2208,-2e-05,-5e-05,-7e-05,-6e-05,7e-05,-6e-05,0,-1e-05,1,30
2209,-2e-05,-5e-05,-7e-05,-6e-05,7e-05,-6e-05,0,-1e-05,1,30
2210,-2e-05,-5e-05,-7e-05,-6e-05,7e-05,-6e-05,0,-1e-05,1,30
2211,-2e-05,-5e-05,-7e-05,-6e-05,7e-05,-6e-05,0,-1e-05,1,30
2212,-2e-05,-5e-05,-7e-05,-6e-05,7e-05,-6e-05,0,-1e-05,1,30
2213,-2e-05,-5e-05,-7e-05,-6e-05,7e-05,-6e-05,0,-1e-05,1,30
2214,-2e-05,-2e-05,-2e-05,-0.00013,-0.00017,-0.00012,-4e-05,-5e-05,1,30
2215,-1e-05,-2e-05,0,0,-0.00017,-1e-05,-1e-05,-2e-05,1,30
2216,-1e-05,-2e-05,0,0,-0.00017,-1e-05,-1e-05,-2e-05,1,30
2217,-1e-05,-2e-05,0,0,-0.00017,-1e-05,-1e-05,-2e-05,1,30
2218,-1e-05,-2e-05,0,0,-0.00017,-1e-05,-1e-05,-2e-05,1,30
2219,-1e-05,-2e-05,0,0,-0.00017,-1e-05,-1e-05,-2e-05,1,30
2220,-1e-05,-2e-05,0,0,-0.00017,-1e-05,-1e-05,-2e-05,1,30
2221,-1e-05,-2e-05,0,0,-0.00017,-1e-05,-1e-05,-2e-05,1,30
2222,-1e-05,-2e-05,0,0,-0.00017,-1e-05,-1e-05,-2e-05,1,30
2224,-1e-05,-2e-05,0,0,-0.00017,-1e-05,-1e-05,-2e-05,1,30
2225,-1e-05,-2e-05,0,0,-0.00017,-1e-05,-1e-05,-2e-05,1,30
2226,-1e-05,-2e-05,0,0,-0.00017,-1e-05,-1e-05,-2e-05,1,30
2227,-1e-05,-2e-05,0,0,-0.00017,-1e-05,-1e-05,-2e-05,1,30
2228,1e-05,-1e-05,-3e-05,-4e-05,-8e-05,-4e-05,0,-2e-05,1,30
2229,1e-05,-1e-05,-3e-05,-4e-05,-8e-05,-4e-05,0,-2e-05,1,30
2230,1e-05,-1e-05,-3e-05,-4e-05,-8e-05,-4e-05,0,-2e-05,1,30
2231,1e-05,-1e-05,-3e-05,-4e-05,-8e-05,-4e-05,0,-2e-05,1,30
2232,1e-05,-1e-05,-3e-05,-4e-05,-8e-05,-4e-05,0,-2e-05,1,30
2233,1e-05,-1e-05,-3e-05,-4e-05,-8e-05,-4e-05,0,-2e-05,1,30
2234,1e-05,-1e-05,-3e-05,-4e-05,-8e-05,-4e-05,0,-2e-05,1,30
2235,-1e-05,-4e-05,2e-05,-6e-05,-4e-05,-2e-05,-1e-05,2e-05,1,30
2236,-1e-05,-4e-05,2e-05,-6e-05,-4e-05,-2e-05,-1e-05,2e-05,1,30
2239,-1e-05,-4e-05,2e-05,-6e-05,-4e-05,-2e-05,-1e-05,2e-05,1,30
2240,-1e-05,-4e-05,2e-05,-6e-05,-4e-05,-2e-05,-1e-05,2e-05,1,30
2241,-1e-05,-4e-05,2e-05,-6e-05,-4e-05,-2e-05,-1e-05,2e-05,1,30
2242,-1e-05,-4e-05,2e-05,-6e-05,-4e-05,-2e-05,-1e-05,2e-05,1,30
2243,-1e-05,-4e-05,2e-05,-6e-05,-4e-05,-2e-05,-1e-05,2e-05,1,30
2244,-1e-05,-4e-05,2e-05,-6e-05,-4e-05,-2e-05,-1e-05,2e-05,1,30
2245,-1e-05,-4e-05,2e-05,-6e-05,-4e-05,-2e-05,-1e-05,2e-05,1,30
2246,-1e-05,-4e-05,2e-05,-6e-05,-4e-05,-2e-05,-1e-05,2e-05,1,30
2247,-1e-05,-4e-05,2e-05,-6e-05,-4e-05,-2e-05,-1e-05,2e-05,1,30
2248,-1e-05,-4e-05,2e-05,-6e-05,-4e-05,-2e-05,-1e-05,2e-05,1,30
2249,-1e-05,-4e-05,2e-05,-6e-05,-4e-05,-2e-05,-1e-05,2e-05,1,30
2250,-1e-05,-4e-05,2e-05,-6e-05,-4e-05,-2e-05,-1e-05,2e-05,1,30
2251,2e-05,2e-05,3e-05,4e-05,-0.0002,-1e-05,-4e-05,-2e-05,1,30
2252,2e-05,2e-05,3e-05,4e-05,-0.0002,-1e-05,-4e-05,-2e-05,1,30
2253,1e-05,2e-05,3e-05,-2e-05,-0.00022,-7e-05,4e-05,1e-05,1,30
2254,1e-05,2e-05,3e-05,-2e-05,-0.00022,-7e-05,4e-05,1e-05,1,30
2255,1e-05,2e-05,3e-05,-2e-05,-0.00022,-7e-05,4e-05,1e-05,1,30
2256,1e-05,2e-05,3e-05,-2e-05,-0.00022,-7e-05,4e-05,1e-05,1,30
2257,1e-05,2e-05,3e-05,-2e-05,-0.00022,-7e-05,4e-05,1e-05,1,30
2258,1e-05,2e-05,3e-05,-2e-05,-0.00022,-7e-05,4e-05,1e-05,1,30
2259,1e-05,2e-05,3e-05,-2e-05,-0.00022,-7e-05,4e-05,1e-05,1,30
2260,1e-05,2e-05,3e-05,-2e-05,-0.00022,-7e-05,4e-05,1e-05,1,30
2261,1e-05,2e-05,3e-05,-2e-05,-0.00022,-7e-05,4e-05,1e-05,1,30
2262,1e-05,2e-05,3e-05,-2e-05,-0.00022,-7e-05,4e-05,1e-05,1,30
2263,1e-05,2e-05,3e-05,-2e-05,-0.00022,-7e-05,4e-05,1e-05,1,30
2264,1e-05,2e-05,3e-05,-2e-05,-0.00022,-7e-05,4e-05,1e-05,1,30
2265,1e-05,2e-05,3e-05,-2e-05,-0.00022,-7e-05,4e-05,1e-05,1,30
2266,1e-05,2e-05,3e-05,-2e-05,-0.00022,-7e-05,4e-05,1e-05,1,30
2267,1e-05,2e-05,3e-05,-2e-05,-0.00022,-7e-05,4e-05,1e-05,1,30
2268,1e-05,2e-05,3e-05,-2e-05,-0.00022,-7e-05,4e-05,1e-05,1,30
2269,1e-05,2e-05,3e-05,-2e-05,-0.00022,-7e-05,4e-05,1e-05,1,30
2270,1e-05,2e-05,3e-05,-2e-05,-0.00022,-7e-05,4e-05,1e-05,1,30
2271,1e-05,2e-05,3e-05,-2e-05,-0.00022,-7e-05,4e-05,1e-05,1,30
2272,1e-05,2e-05,3e-05,-2e-05,-0.00022,-7e-05,4e-05,1e-05,1,30
2273,1e-05,2e-05,3e-05,-2e-05,-0.00022,-7e-05,4e-05,1e-05,1,30
2274,-8e-05,-4e-05,0,-9e-05,-0.00027,4e-05,1e-05,-3e-05,1,30
2275,-4e-05,-2e-05,-9e-05,-0.00014,-0.00015,-0.00012,-1e-05,-1e-05,1,30
2276,-4e-05,-4e-05,-0.0001,-1e-05,5e-05,3e-05,0,-2e-05,1,30
2277,-4e-05,-4e-05,-0.0001,-1e-05,5e-05,3e-05,0,-2e-05,1,30
2278,-4e-05,-4e-05,-0.0001,-1e-05,5e-05,3e-05,0,-2e-05,1,30
2279,-4e-05,-4e-05,-0.0001,-1e-05,5e-05,3e-05,0,-2e-05,1,30
2280,-4e-05,-4e-05,-0.0001,-1e-05,5e-05,3e-05,0,-2e-05,1,30
2281,-4e-05,-4e-05,-0.0001,-1e-05,5e-05,3e-05,0,-2e-05,1,30
2282,-4e-05,-4e-05,-0.0001,-1e-05,5e-05,3e-05,0,-2e-05,1,30
2283,-4e-05,-4e-05,-0.0001,-1e-05,5e-05,3e-05,0,-2e-05,1,30
2284,-4e-05,-4e-05,-0.0001,-1e-05,5e-05,3e-05,0,-2e-05,1,30
2285,-4e-05,-4e-05,-0.0001,-1e-05,5e-05,3e-05,0,-2e-05,1,30
2286,-4e-05,-4e-05,-0.0001,-1e-05,5e-05,3e-05,0,-2e-05,1,30
2289,0,1e-05,2e-05,0.00015,0.00043,-5e-05,0,-1e-05,1,30
2290,0,1e-05,2e-05,0.00015,0.00043,-5e-05,0,-1e-05,1,30
2291,0,1e-05,2e-05,0.00015,0.00043,-5e-05,0,-1e-05,1,30
2292,0,1e-05,2e-05,0.00015,0.00043,-5e-05,0,-1e-05,1,30
2293,0,1e-05,2e-05,0.00015,0.00043,-5e-05,0,-1e-05,1,30
2294,0,1e-05,2e-05,0.00015,0.00043,-5e-05,0,-1e-05,1,30
2295,2e-05,0,-2e-05,0.00011,-7e-05,3e-05,-1e-05,2e-05,1,30
2296,2e-05,0,-2e-05,0.00011,-7e-05,3e-05,-1e-05,2e-05,1,30
2297,2e-05,0,-2e-05,0.00011,-7e-05,3e-05,-1e-05,2e-05,1,30
2298,2e-05,0,-2e-05,0.00011,-7e-05,3e-05,-1e-05,2e-05,1,30
2299,2e-05,0,-2e-05,0.00011,-7e-05,3e-05,-1e-05,2e-05,1,30
2300,2e-05,0,-2e-05,0.00011,-7e-05,3e-05,-1e-05,2e-05,1,30
2301,2e-05,0,-2e-05,0.00011,-7e-05,3e-05,-1e-05,2e-05,1,30
2302,2e-05,0,-2e-05,0.00011,-7e-05,3e-05,-1e-05,2e-05,1,30
2303,2e-05,0,-2e-05,0.00011,-7e-05,3e-05,-1e-05,2e-05,1,30
2304,2e-05,0,-2e-05,0.00011,-7e-05,3e-05,-1e-05,2e-05,1,30
2305,2e-05,0,-2e-05,0.00011,-7e-05,3e-05,-1e-05,2e-05,1,30
2306,2e-05,0,-2e-05,0.00011,-7e-05,3e-05,-1e-05,2e-05,1,30
2307,2e-05,0,-2e-05,0.00011,-7e-05,3e-05,-1e-05,2e-05,1,30
2308,2e-05,0,-2e-05,0.00011,-7e-05,3e-05,-1e-05,2e-05,1,30
2309,2e-05,0,-2e-05,0.00011,-7e-05,3e-05,-1e-05,2e-05,1,30
2310,2e-05,0,-2e-05,0.00011,-7e-05,3e-05,-1e-05,2e-05,1,30
2311,0,-4e-05,-3e-05,-0.00016,6e-05,-5e-05,-2e-05,-1e-05,1,30
2312,3e-05,-6e-05,-0.0001,-0.00012,-2e-05,0,-3e-05,1e-05,1,30
2313,2e-05,1e-05,6e-05,0.00012,1e-05,4e-05,0,1e-05,1,30
2314,2e-05,1e-05,6e-05,0.00012,1e-05,4e-05,0,1e-05,1,30
2315,2e-05,1e-05,6e-05,0.00012,1e-05,4e-05,0,1e-05,1,30
2316,2e-05,1e-05,6e-05,0.00012,1e-05,4e-05,0,1e-05,1,30
2317,2e-05,1e-05,6e-05,0.00012,1e-05,4e-05,0,1e-05,1,30
2318,2e-05,1e-05,6e-05,0.00012,1e-05,4e-05,0,1e-05,1,30
2319,2e-05,1e-05,6e-05,0.00012,1e-05,4e-05,0,1e-05,1,30
2320,2e-05,1e-05,6e-05,0.00012,1e-05,4e-05,0,1e-05,1,30
2321,2e-05,1e-05,6e-05,0.00012,1e-05,4e-05,0,1e-05,1,30
2322,2e-05,1e-05,6e-05,0.00012,1e-05,4e-05,0,1e-05,1,30
2323,2e-05,1e-05,6e-05,0.00012,1e-05,4e-05,0,1e-05,1,30
2324,2e-05,1e-05,6e-05,0.00012,1e-05,4e-05,0,1e-05,1,30
2325,2e-05,1e-05,6e-05,0.00012,1e-05,4e-05,0,1e-05,1,30
2326,2e-05,1e-05,6e-05,0.00012,1e-05,4e-05,0,1e-05,1,30
2327,2e-05,1e-05,6e-05,0.00012,1e-05,4e-05,0,1e-05,1,30
2328,2e-05,1e-05,6e-05,0.00012,1e-05,4e-05,0,1e-05,1,30
2329,2e-05,1e-05,6e-05,0.00012,1e-05,4e-05,0,1e-05,1,30
2330,2e-05,1e-05,6e-05,0.00012,1e-05,4e-05,0,1e-05,1,30
2331,2e-05,1e-05,6e-05,0.00012,1e-05,4e-05,0,1e-05,1,30
2332,2e-05,1e-05,6e-05,0.00012,1e-05,4e-05,0,1e-05,1,30
2333,2e-05,1e-05,6e-05,0.00012,1e-05,4e-05,0,1e-05,1,30
2334,1e-05,-5e-05,-0.00018,-8e-05,-0.00011,-5e-05,3e-05,0,1,30
2335,-2e-05,3e-05,1e-05,-0.00013,-0.00014,-4e-05,-3e-05,-3e-05,1,30
2336,-2e-05,3e-05,1e-05,-0.00013,-0.00014,-4e-05,-3e-05,-3e-05,1,30
2339,-2e-05,3e-05,1e-05,-0.00013,-0.00014,-4e-05,-3e-05,-3e-05,1,30
2340,-2e-05,3e-05,1e-05,-0.00013,-0.00014,-4e-05,-3e-05,-3e-05,1,30
2341,-2e-05,3e-05,1e-05,-0.00013,-0.00014,-4e-05,-3e-05,-3e-05,1,30
2342,-2e-05,3e-05,1e-05,-0.00013,-0.00014,-4e-05,-3e-05,-3e-05,1,30
2343,-2e-05,3e-05,1e-05,-0.00013,-0.00014,-4e-05,-3e-05,-3e-05,1,30
2344,-2e-05,3e-05,1e-05,-0.00013,-0.00014,-4e-05,-3e-05,-3e-05,1,30
2345,-2e-05,3e-05,1e-05,-0.00013,-0.00014,-4e-05,-3e-05,-3e-05,1,30
2346,-2e-05,3e-05,1e-05,-0.00013,-0.00014,-4e-05,-3e-05,-3e-05,1,30
2347,-2e-05,3e-05,1e-05,-0.00013,-0.00014,-4e-05,-3e-05,-3e-05,1,30
2348,-3e-05,-1e-05,5e-05,7e-05,0.00013,9e-05,-1e-05,-1e-05,1,30
2349,-3e-05,-1e-05,5e-05,7e-05,0.00013,9e-05,-1e-05,-1e-05,1,30
2350,-3e-05,-1e-05,5e-05,7e-05,0.00013,9e-05,-1e-05,-1e-05,1,30
2351,-3e-05,-1e-05,5e-05,7e-05,0.00013,9e-05,-1e-05,-1e-05,1,30
2352,-3e-05,-1e-05,5e-05,7e-05,0.00013,9e-05,-1e-05,-1e-05,1,30
2353,-3e-05,-1e-05,5e-05,7e-05,0.00013,9e-05,-1e-05,-1e-05,1,30
2354,-3e-05,-1e-05,5e-05,7e-05,0.00013,9e-05,-1e-05,-1e-05,1,30
2355,-2e-05,-4e-05,-1e-05,4e-05,1e-05,0,-2e-05,0,1,30
2356,-2e-05,-4e-05,-1e-05,4e-05,1e-05,0,-2e-05,0,1,30
2357,-2e-05,-4e-05,-1e-05,4e-05,1e-05,0,-2e-05,0,1,30
2358,-2e-05,-4e-05,-1e-05,4e-05,1e-05,0,-2e-05,0,1,30
2359,-2e-05,-4e-05,-1e-05,4e-05,1e-05,0,-2e-05,0,1,30
2360,-2e-05,-4e-05,-1e-05,4e-05,1e-05,0,-2e-05,0,1,30
2361,-2e-05,-4e-05,-1e-05,4e-05,1e-05,0,-2e-05,0,1,30
2362,-2e-05,-4e-05,-1e-05,4e-05,1e-05,0,-2e-05,0,1,30
2363,-2e-05,-4e-05,-1e-05,4e-05,1e-05,0,-2e-05,0,1,30
2364,-2e-05,-4e-05,-1e-05,4e-05,1e-05,0,-2e-05,0,1,30
2365,-2e-05,-4e-05,-1e-05,4e-05,1e-05,0,-2e-05,0,1,30
2366,-2e-05,-4e-05,-1e-05,4e-05,1e-05,0,-2e-05,0,1,30
2367,-2e-05,-4e-05,-1e-05,4e-05,1e-05,0,-2e-05,0,1,30
2368,-2e-05,-4e-05,-1e-05,4e-05,1e-05,0,-2e-05,0,1,30
2369,-2e-05,-4e-05,-1e-05,4e-05,1e-05,0,-2e-05,0,1,30
2370,-2e-05,-4e-05,-1e-05,4e-05,1e-05,0,-2e-05,0,1,30
2371,-2e-05,-4e-05,-1e-05,4e-05,1e-05,0,-2e-05,0,1,30
2372,1e-05,3e-05,6e-05,0.00012,0.0001,-4e-05,-4e-05,2e-05,1,30
2373,-2e-05,-3e-05,-2e-05,-2e-05,-1e-05,-0.0001,-2e-05,-3e-05,1,30
2374,-2e-05,-3e-05,-2e-05,-2e-05,-1e-05,-0.0001,-2e-05,-3e-05,1,30
2375,-2e-05,-3e-05,-2e-05,-2e-05,-1e-05,-0.0001,-2e-05,-3e-05,1,30
2376,-2e-05,-3e-05,-2e-05,-2e-05,-1e-05,-0.0001,-2e-05,-3e-05,1,30
2377,-2e-05,-3e-05,-2e-05,-2e-05,-1e-05,-0.0001,-2e-05,-3e-05,1,30
2378,-2e-05,-3e-05,-2e-05,-2e-05,-1e-05,-0.0001,-2e-05,-3e-05,1,30
2379,-2e-05,-3e-05,-2e-05,-2e-05,-1e-05,-0.0001,-2e-05,-3e-05,1,30
2380,-2e-05,-3e-05,-2e-05,-2e-05,-1e-05,-0.0001,-2e-05,-3e-05,1,30
2381,-2e-05,-3e-05,-2e-05,-2e-05,-1e-05,-0.0001,-2e-05,-3e-05,1,30
2382,-2e-05,-3e-05,-2e-05,-2e-05,-1e-05,-0.0001,-2e-05,-3e-05,1,30
2383,-2e-05,-3e-05,-2e-05,-2e-05,-1e-05,-0.0001,-2e-05,-3e-05,1,30
2384,-2e-05,-3e-05,-2e-05,-2e-05,-1e-05,-0.0001,-2e-05,-3e-05,1,30
2385,-2e-05,-3e-05,-2e-05,-2e-05,-1e-05,-0.0001,-2e-05,-3e-05,1,30
2386,-2e-05,-3e-05,-2e-05,-2e-05,-1e-05,-0.0001,-2e-05,-3e-05,1,30
2388,-2e-05,-3e-05,-2e-05,-2e-05,-1e-05,-0.0001,-2e-05,-3e-05,1,30
2389,-2e-05,-3e-05,-2e-05,-2e-05,-1e-05,-0.0001,-2e-05,-3e-05,1,30
2390,-2e-05,-3e-05,-2e-05,-2e-05,-1e-05,-0.0001,-2e-05,-3e-05,1,30
2391,-2e-05,-3e-05,-2e-05,-2e-05,-1e-05,-0.0001,-2e-05,-3e-05,1,30
2392,-2e-05,-3e-05,-2e-05,-2e-05,-1e-05,-0.0001,-2e-05,-3e-05,1,30
2393,-2e-05,-3e-05,-2e-05,-2e-05,-1e-05,-0.0001,-2e-05,-3e-05,1,30
2394,1e-05,-2e-05,-3e-05,6e-05,6e-05,-1e-05,0,1e-05,1,30
2395,-2e-05,2e-05,-1e-05,-0.00013,-0.00023,-1e-05,-2e-05,-3e-05,1,30
2396,0,1e-05,5e-05,0.00021,0.00032,4e-05,3e-05,0,1,30
2397,0,1e-05,5e-05,0.00021,0.00032,4e-05,3e-05,0,1,30
2398,0,1e-05,5e-05,0.00021,0.00032,4e-05,3e-05,0,1,30
2399,0,1e-05,5e-05,0.00021,0.00032,4e-05,3e-05,0,1,30
2400,0,1e-05,5e-05,0.00021,0.00032,4e-05,3e-05,0,1,30
2401,0,1e-05,5e-05,0.00021,0.00032,4e-05,3e-05,0,1,30
2402,0,1e-05,5e-05,0.00021,0.00032,4e-05,3e-05,0,1,30
2403,0,1e-05,5e-05,0.00021,0.00032,4e-05,3e-05,0,1,30
2404,0,1e-05,5e-05,0.00021,0.00032,4e-05,3e-05,0,1,30
2405,0,1e-05,5e-05,0.00021,0.00032,4e-05,3e-05,0,1,30
2406,0,1e-05,5e-05,0.00021,0.00032,4e-05,3e-05,0,1,30
2407,0,1e-05,5e-05,0.00021,0.00032,4e-05,3e-05,0,1,30
2408,-3e-05,1e-05,-1e-05,2e-05,-5e-05,-1e-05,-1e-05,-3e-05,1,30
2409,-3e-05,1e-05,-1e-05,2e-05,-5e-05,-1e-05,-1e-05,-3e-05,1,30
2410,-3e-05,1e-05,-1e-05,2e-05,-5e-05,-1e-05,-1e-05,-3e-05,1,30
2411,-3e-05,1e-05,-1e-05,2e-05,-5e-05,-1e-05,-1e-05,-3e-05,1,30
2412,-3e-05,1e-05,-1e-05,2e-05,-5e-05,-1e-05,-1e-05,-3e-05,1,30
2413,-3e-05,1e-05,-1e-05,2e-05,-5e-05,-1e-05,-1e-05,-3e-05,1,30
2414,-3e-05,1e-05,-1e-05,2e-05,-5e-05,-1e-05,-1e-05,-3e-05,1,30
2415,1e-05,-2e-05,-0.00011,-0.00018,-7e-05,3e-05,-3e-05,0,1,30
2416,1e-05,-2e-05,-0.00011,-0.00018,-7e-05,3e-05,-3e-05,0,1,30
2417,1e-05,-2e-05,-0.00011,-0.00018,-7e-05,3e-05,-3e-05,0,1,30
2418,1e-05,-2e-05,-0.00011,-0.00018,-7e-05,3e-05,-3e-05,0,1,30
2419,1e-05,-2e-05,-0.00011,-0.00018,-7e-05,3e-05,-3e-05,0,1,30
2420,1e-05,-2e-05,-0.00011,-0.00018,-7e-05,3e-05,-3e-05,0,1,30
2421,1e-05,-2e-05,-0.00011,-0.00018,-7e-05,3e-05,-3e-05,0,1,30
2422,1e-05,-2e-05,-0.00011,-0.00018,-7e-05,3e-05,-3e-05,0,1,30
2423,1e-05,-2e-05,-0.00011,-0.00018,-7e-05,3e-05,-3e-05,0,1,30
2424,1e-05,-2e-05,-0.00011,-0.00018,-7e-05,3e-05,-3e-05,0,1,30
2425,1e-05,-2e-05,-0.00011,-0.00018,-7e-05,3e-05,-3e-05,0,1,30
2426,1e-05,-2e-05,-0.00011,-0.00018,-7e-05,3e-05,-3e-05,0,1,30
2427,1e-05,-2e-05,-0.00011,-0.00018,-7e-05,3e-05,-3e-05,0,1,30
2428,1e-05,-2e-05,-0.00011,-0.00018,-7e-05,3e-05,-3e-05,0,1,30
2429,1e-05,-2e-05,-0.00011,-0.00018,-7e-05,3e-05,-3e-05,0,1,30
2430,1e-05,-2e-05,-0.00011,-0.00018,-7e-05,3e-05,-3e-05,0,1,30
2431,1e-05,2e-05,4e-05,-1e-05,4e-05,-1e-05,-3e-05,-3e-05,1,30
2432,1e-05,2e-05,4e-05,-1e-05,4e-05,-1e-05,-3e-05,-3e-05,1,30
2433,1e-05,1e-05,-2e-05,2e-05,-4e-05,0,1e-05,-1e-05,1,30
2434,1e-05,1e-05,-2e-05,2e-05,-4e-05,0,1e-05,-1e-05,1,30
2435,1e-05,1e-05,-2e-05,2e-05,-4e-05,0,1e-05,-1e-05,1,30
2436,1e-05,1e-05,-2e-05,2e-05,-4e-05,0,1e-05,-1e-05,1,30
2438,1e-05,1e-05,-2e-05,2e-05,-4e-05,0,1e-05,-1e-05,1,30
2439,1e-05,1e-05,-2e-05,2e-05,-4e-05,0,1e-05,-1e-05,1,30
2440,1e-05,1e-05,-2e-05,2e-05,-4e-05,0,1e-05,-1e-05,1,30
2441,1e-05,1e-05,-2e-05,2e-05,-4e-05,0,1e-05,-1e-05,1,30
2442,1e-05,1e-05,-2e-05,2e-05,-4e-05,0,1e-05,-1e-05,1,30
2443,1e-05,1e-05,-2e-05,2e-05,-4e-05,0,1e-05,-1e-05,1,30
2444,1e-05,1e-05,-2e-05,2e-05,-4e-05,0,1e-05,-1e-05,1,30
2445,1e-05,1e-05,-2e-05,2e-05,-4e-05,0,1e-05,-1e-05,1,30
2446,1e-05,1e-05,-2e-05,2e-05,-4e-05,0,1e-05,-1e-05,1,30
2447,1e-05,1e-05,-2e-05,2e-05,-4e-05,0,1e-05,-1e-05,1,30
2448,1e-05,1e-05,-2e-05,2e-05,-4e-05,0,1e-05,-1e-05,1,30
2449,1e-05,1e-05,-2e-05,2e-05,-4e-05,0,1e-05,-1e-05,1,30
2450,1e-05,1e-05,-2e-05,2e-05,-4e-05,0,1e-05,-1e-05,1,30
2451,1e-05,1e-05,-2e-05,2e-05,-4e-05,0,1e-05,-1e-05,1,30
2452,1e-05,1e-05,-2e-05,2e-05,-4e-05,0,1e-05,-1e-05,1,30
2453,1e-05,1e-05,-2e-05,2e-05,-4e-05,0,1e-05,-1e-05,1,30
2454,-3e-05,-2e-05,2e-05,-5e-05,-0.0001,2e-05,-1e-05,2e-05,1,30
2455,-1e-05,-2e-05,-5e-05,-0.0001,-7e-05,-7e-05,-3e-05,-7e-05,1,30
2456,-4e-05,-5e-05,-7e-05,0.00013,0.00011,2e-05,1e-05,-2e-05,1,30
2457,-4e-05,-5e-05,-7e-05,0.00013,0.00011,2e-05,1e-05,-2e-05,1,30
2458,-4e-05,-5e-05,-7e-05,0.00013,0.00011,2e-05,1e-05,-2e-05,1,30
2459,-4e-05,-5e-05,-7e-05,0.00013,0.00011,2e-05,1e-05,-2e-05,1,30
2460,-4e-05,-5e-05,-7e-05,0.00013,0.00011,2e-05,1e-05,-2e-05,1,30
2461,-4e-05,-5e-05,-7e-05,0.00013,0.00011,2e-05,1e-05,-2e-05,1,30
2462,-4e-05,-5e-05,-7e-05,0.00013,0.00011,2e-05,1e-05,-2e-05,1,30
2463,-4e-05,-5e-05,-7e-05,0.00013,0.00011,2e-05,1e-05,-2e-05,1,30
2464,-4e-05,-5e-05,-7e-05,0.00013,0.00011,2e-05,1e-05,-2e-05,1,30
2465,-4e-05,-5e-05,-7e-05,0.00013,0.00011,2e-05,1e-05,-2e-05,1,30
2466,-4e-05,-5e-05,-7e-05,0.00013,0.00011,2e-05,1e-05,-2e-05,1,30
2467,2e-05,5e-05,8e-05,-1e-05,-0.00029,2e-05,-1e-05,1e-05,1,30
2468,-6e-05,-1e-05,-4e-05,3e-05,0.00035,2e-05,1e-05,-1e-05,1,30
2469,-6e-05,-1e-05,-4e-05,3e-05,0.00035,2e-05,1e-05,-1e-05,1,30
2470,-6e-05,-1e-05,-4e-05,3e-05,0.00035,2e-05,1e-05,-1e-05,1,30
2471,-6e-05,-1e-05,-4e-05,3e-05,0.00035,2e-05,1e-05,-1e-05,1,30
2472,-6e-05,-1e-05,-4e-05,3e-05,0.00035,2e-05,1e-05,-1e-05,1,30
2473,-6e-05,-1e-05,-4e-05,3e-05,0.00035,2e-05,1e-05,-1e-05,1,30
2474,-6e-05,-1e-05,-4e-05,3e-05,0.00035,2e-05,1e-05,-1e-05,1,30
2475,-6e-05,-1e-05,-4e-05,3e-05,0.00035,2e-05,1e-05,-1e-05,1,30
2476,-6e-05,-1e-05,-4e-05,3e-05,0.00035,2e-05,1e-05,-1e-05,1,30
2477,5e-05,1e-05,3e-05,-7e-05,-3e-05,6e-05,-4e-05,0,1,30
2478,5e-05,1e-05,3e-05,-7e-05,-3e-05,6e-05,-4e-05,0,1,30
2479,5e-05,1e-05,3e-05,-7e-05,-3e-05,6e-05,-4e-05,0,1,30
2480,5e-05,1e-05,3e-05,-7e-05,-3e-05,6e-05,-4e-05,0,1,30
2481,5e-05,1e-05,3e-05,-7e-05,-3e-05,6e-05,-4e-05,0,1,30
2482,5e-05,1e-05,3e-05,-7e-05,-3e-05,6e-05,-4e-05,0,1,30
2483,5e-05,1e-05,3e-05,-7e-05,-3e-05,6e-05,-4e-05,0,1,30
2484,5e-05,1e-05,3e-05,-7e-05,-3e-05,6e-05,-4e-05,0,1,30
2485,5e-05,1e-05,3e-05,-7e-05,-3e-05,6e-05,-4e-05,0,1,30
2486,5e-05,1e-05,3e-05,-7e-05,-3e-05,6e-05,-4e-05,0,1,30
2488,5e-05,1e-05,3e-05,-7e-05,-3e-05,6e-05,-4e-05,0,1,30
2489,5e-05,1e-05,3e-05,-7e-05,-3e-05,6e-05,-4e-05,0,1,30
2490,5e-05,1e-05,3e-05,-7e-05,-3e-05,6e-05,-4e-05,0,1,30
2491,-1e-05,1e-05,0.00011,3e-05,-0.00012,-2e-05,2e-05,-1e-05,1,30
2492,-1e-05,1e-05,0.00011,3e-05,-0.00012,-2e-05,2e-05,-1e-05,1,30
2493,-6e-05,-3e-05,-9e-05,-9e-05,5e-05,-2e-05,-1e-05,-1e-05,1,30
2494,-6e-05,-3e-05,-9e-05,-9e-05,5e-05,-2e-05,-1e-05,-1e-05,1,30
2495,-6e-05,-3e-05,-9e-05,-9e-05,5e-05,-2e-05,-1e-05,-1e-05,1,30
2496,-6e-05,-3e-05,-9e-05,-9e-05,5e-05,-2e-05,-1e-05,-1e-05,1,30
2497,-6e-05,-3e-05,-9e-05,-9e-05,5e-05,-2e-05,-1e-05,-1e-05,1,30
2498,-6e-05,-3e-05,-9e-05,-9e-05,5e-05,-2e-05,-1e-05,-1e-05,1,30
2499,-6e-05,-3e-05,-9e-05,-9e-05,5e-05,-2e-05,-1e-05,-1e-05,1,30
2500,-6e-05,-3e-05,-9e-05,-9e-05,5e-05,-2e-05,-1e-05,-1e-05,1,30
2501,-6e-05,-3e-05,-9e-05,-9e-05,5e-05,-2e-05,-1e-05,-1e-05,1,30
2502,-6e-05,-3e-05,-9e-05,-9e-05,5e-05,-2e-05,-1e-05,-1e-05,1,30
2503,-6e-05,-3e-05,-9e-05,-9e-05,5e-05,-2e-05,-1e-05,-1e-05,1,30
2504,-6e-05,-3e-05,-9e-05,-9e-05,5e-05,-2e-05,-1e-05,-1e-05,1,30
2505,-6e-05,-3e-05,-9e-05,-9e-05,5e-05,-2e-05,-1e-05,-1e-05,1,30
2506,-6e-05,-3e-05,-9e-05,-9e-05,5e-05,-2e-05,-1e-05,-1e-05,1,30
2507,-6e-05,-3e-05,-9e-05,-9e-05,5e-05,-2e-05,-1e-05,-1e-05,1,30
2508,-6e-05,-3e-05,-9e-05,-9e-05,5e-05,-2e-05,-1e-05,-1e-05,1,30
2509,-6e-05,-3e-05,-9e-05,-9e-05,5e-05,-2e-05,-1e-05,-1e-05,1,30
2510,-6e-05,-3e-05,-9e-05,-9e-05,5e-05,-2e-05,-1e-05,-1e-05,1,30
2511,-6e-05,-3e-05,-9e-05,-9e-05,5e-05,-2e-05,-1e-05,-1e-05,1,30
2512,-6e-05,-3e-05,-9e-05,-9e-05,5e-05,-2e-05,-1e-05,-1e-05,1,30
2513,-6e-05,-3e-05,-9e-05,-9e-05,5e-05,-2e-05,-1e-05,-1e-05,1,30
2514,3e-05,0,2e-05,0.00013,0.0001,1e-05,1e-05,1e-05,1,30
2515,-6e-05,-5e-05,-3e-05,4e-05,-3e-05,4e-05,-4e-05,-2e-05,1,30
2516,3e-05,7e-05,0.00013,1e-05,-0.00016,0.00011,-2e-05,1e-05,1,30
2517,3e-05,7e-05,0.00013,1e-05,-0.00016,0.00011,-2e-05,1e-05,1,30
2518,3e-05,7e-05,0.00013,1e-05,-0.00016,0.00011,-2e-05,1e-05,1,30
2519,3e-05,7e-05,0.00013,1e-05,-0.00016,0.00011,-2e-05,1e-05,1,30
2520,3e-05,7e-05,0.00013,1e-05,-0.00016,0.00011,-2e-05,1e-05,1,30
2521,3e-05,7e-05,0.00013,1e-05,-0.00016,0.00011,-2e-05,1e-05,1,30
2522,3e-05,7e-05,0.00013,1e-05,-0.00016,0.00011,-2e-05,1e-05,1,30
2523,3e-05,7e-05,0.00013,1e-05,-0.00016,0.00011,-2e-05,1e-05,1,30
2524,3e-05,7e-05,0.00013,1e-05,-0.00016,0.00011,-2e-05,1e-05,1,30
2525,3e-05,7e-05,0.00013,1e-05,-0.00016,0.00011,-2e-05,1e-05,1,30
2526,3e-05,7e-05,0.00013,1e-05,-0.00016,0.00011,-2e-05,1e-05,1,30
2527,0,0,-0.0001,-0.00011,0.00035,5e-05,1e-05,-1e-05,1,30
2528,1e-05,0,2e-05,6e-05,-0.00029,-4e-05,0,-6e-05,1,30
2529,1e-05,0,2e-05,6e-05,-0.00029,-4e-05,0,-6e-05,1,30
2530,1e-05,0,2e-05,6e-05,-0.00029,-4e-05,0,-6e-05,1,30
2531,1e-05,0,2e-05,6e-05,-0.00029,-4e-05,0,-6e-05,1,30
2532,1e-05,0,2e-05,6e-05,-0.00029,-4e-05,0,-6e-05,1,30
2533,1e-05,0,2e-05,6e-05,-0.00029,-4e-05,0,-6e-05,1,30
2534,1e-05,0,2e-05,6e-05,-0.00029,-4e-05,0,-6e-05,1,30
2535,1e-05,0,2e-05,6e-05,-0.00029,-4e-05,0,-6e-05,1,30
2536,1e-05,-4e-05,-0.00011,-6e-05,0.00012,-4e-05,-1e-05,-1e-05,1,30
2538,-5e-05,-4e-05,-8e-05,-3e-05,-7e-05,-3e-05,-5e-05,-3e-05,1,30
2539,-5e-05,-4e-05,-8e-05,-3e-05,-7e-05,-3e-05,-5e-05,-3e-05,1,30
2540,-5e-05,-4e-05,-8e-05,-3e-05,-7e-05,-3e-05,-5e-05,-3e-05,1,30
2541,-5e-05,-4e-05,-8e-05,-3e-05,-7e-05,-3e-05,-5e-05,-3e-05,1,30
2542,-5e-05,-4e-05,-8e-05,-3e-05,-7e-05,-3e-05,-5e-05,-3e-05,1,30
2543,-5e-05,-4e-05,-8e-05,-3e-05,-7e-05,-3e-05,-5e-05,-3e-05,1,30
2544,-5e-05,-4e-05,-8e-05,-3e-05,-7e-05,-3e-05,-5e-05,-3e-05,1,30
2545,-5e-05,-4e-05,-8e-05,-3e-05,-7e-05,-3e-05,-5e-05,-3e-05,1,30
2546,-5e-05,-4e-05,-8e-05,-3e-05,-7e-05,-3e-05,-5e-05,-3e-05,1,30
2547,-5e-05,-4e-05,-8e-05,-3e-05,-7e-05,-3e-05,-5e-05,-3e-05,1,30
2548,-5e-05,-4e-05,-8e-05,-3e-05,-7e-05,-3e-05,-5e-05,-3e-05,1,30
2549,-5e-05,-4e-05,-8e-05,-3e-05,-7e-05,-3e-05,-5e-05,-3e-05,1,30
2550,-5e-05,-4e-05,-8e-05,-3e-05,-7e-05,-3e-05,-5e-05,-3e-05,1,30
2551,0,-2e-05,-1e-05,-5e-05,-0.00013,0,-2e-05,0,1,30
2552,0,-2e-05,-1e-05,-5e-05,-0.00013,0,-2e-05,0,1,30
2553,3e-05,2e-05,4e-05,6e-05,-0.00018,-5e-05,-1e-05,-1e-05,1,30
2554,3e-05,2e-05,4e-05,6e-05,-0.00018,-5e-05,-1e-05,-1e-05,1,30
2555,3e-05,2e-05,4e-05,6e-05,-0.00018,-5e-05,-1e-05,-1e-05,1,30
2556,3e-05,2e-05,4e-05,6e-05,-0.00018,-5e-05,-1e-05,-1e-05,1,30
2557,3e-05,2e-05,4e-05,6e-05,-0.00018,-5e-05,-1e-05,-1e-05,1,30
2558,3e-05,2e-05,4e-05,6e-05,-0.00018,-5e-05,-1e-05,-1e-05,1,30
2559,3e-05,2e-05,4e-05,6e-05,-0.00018,-5e-05,-1e-05,-1e-05,1,30
2560,3e-05,2e-05,4e-05,6e-05,-0.00018,-5e-05,-1e-05,-1e-05,1,30
2561,3e-05,2e-05,4e-05,6e-05,-0.00018,-5e-05,-1e-05,-1e-05,1,30
2562,3e-05,2e-05,4e-05,6e-05,-0.00018,-5e-05,-1e-05,-1e-05,1,30
2563,3e-05,2e-05,4e-05,6e-05,-0.00018,-5e-05,-1e-05,-1e-05,1,30
2564,3e-05,2e-05,4e-05,6e-05,-0.00018,-5e-05,-1e-05,-1e-05,1,30
2565,3e-05,2e-05,4e-05,6e-05,-0.00018,-5e-05,-1e-05,-1e-05,1,30
2566,3e-05,2e-05,4e-05,6e-05,-0.00018,-5e-05,-1e-05,-1e-05,1,30
2567,3e-05,2e-05,4e-05,6e-05,-0.00018,-5e-05,-1e-05,-1e-05,1,30
2568,3e-05,2e-05,4e-05,6e-05,-0.00018,-5e-05,-1e-05,-1e-05,1,30
2569,3e-05,2e-05,4e-05,6e-05,-0.00018,-5e-05,-1e-05,-1e-05,1,30
2570,3e-05,2e-05,4e-05,6e-05,-0.00018,-5e-05,-1e-05,-1e-05,1,30
2571,3e-05,2e-05,4e-05,6e-05,-0.00018,-5e-05,-1e-05,-1e-05,1,30
2572,3e-05,2e-05,4e-05,6e-05,-0.00018,-5e-05,-1e-05,-1e-05,1,30
2573,3e-05,2e-05,4e-05,6e-05,-0.00018,-5e-05,-1e-05,-1e-05,1,30
2574,0,-3e-05,-3e-05,-4e-05,0.00013,-7e-05,2e-05,1e-05,1,30
2575,0,-3e-05,-3e-05,-4e-05,0.00013,-7e-05,2e-05,1e-05,1,30
2576,0,-3e-05,-3e-05,-4e-05,0.00013,-7e-05,2e-05,1e-05,1,30
2577,0,-3e-05,-3e-05,-4e-05,0.00013,-7e-05,2e-05,1e-05,1,30
2578,0,-3e-05,-3e-05,-4e-05,0.00013,-7e-05,2e-05,1e-05,1,30
2579,0,-3e-05,-3e-05,-4e-05,0.00013,-7e-05,2e-05,1e-05,1,30
2580,-3e-05,-5e-05,-8e-05,-8e-05,1e-05,-3e-05,2e-05,0,1,30
2581,-3e-05,-5e-05,-8e-05,-8e-05,1e-05,-3e-05,2e-05,0,1,30
2582,-3e-05,-5e-05,-8e-05,-8e-05,1e-05,-3e-05,2e-05,0,1,30
2583,-3e-05,-5e-05,-8e-05,-8e-05,1e-05,-3e-05,2e-05,0,1,30
2584,-3e-05,-5e-05,-8e-05,-8e-05,1e-05,-3e-05,2e-05,0,1,30
2585,-3e-05,-5e-05,-8e-05,-8e-05,1e-05,-3e-05,2e-05,0,1,30
2586,-3e-05,-5e-05,-8e-05,-8e-05,1e-05,-3e-05,2e-05,0,1,30
2588,0,4e-05,8e-05,1e-05,-0.0002,0.00011,1e-05,2e-05,1,30
2589,0,4e-05,8e-05,1e-05,-0.0002,0.00011,1e-05,2e-05,1,30
2590,0,4e-05,8e-05,1e-05,-0.0002,0.00011,1e-05,2e-05,1,30
2591,0,4e-05,8e-05,1e-05,-0.0002,0.00011,1e-05,2e-05,1,30
2592,0,4e-05,8e-05,1e-05,-0.0002,0.00011,1e-05,2e-05,1,30
2593,0,4e-05,8e-05,1e-05,-0.0002,0.00011,1e-05,2e-05,1,30
2594,0,4e-05,8e-05,1e-05,-0.0002,0.00011,1e-05,2e-05,1,30
2595,0,4e-05,8e-05,1e-05,-0.0002,0.00011,1e-05,2e-05,1,30
2596,7e-05,1e-05,0,3e-05,0.0002,8e-05,-3e-05,0,1,30
2597,-7e-05,-6e-05,-9e-05,-0.00012,-0.00014,-3e-05,-2e-05,-3e-05,1,30
2599,-7e-05,-6e-05,-9e-05,-0.00012,-0.00014,-3e-05,-2e-05,-3e-05,1,30
2600,-7e-05,-6e-05,-9e-05,-0.00012,-0.00014,-3e-05,-2e-05,-3e-05,1,30
2601,-7e-05,-6e-05,-9e-05,-0.00012,-0.00014,-3e-05,-2e-05,-3e-05,1,30
2602,-7e-05,-6e-05,-9e-05,-0.00012,-0.00014,-3e-05,-2e-05,-3e-05,1,30
2603,-7e-05,-6e-05,-9e-05,-0.00012,-0.00014,-3e-05,-2e-05,-3e-05,1,30
2604,-7e-05,-6e-05,-9e-05,-0.00012,-0.00014,-3e-05,-2e-05,-3e-05,1,30
2605,-7e-05,-6e-05,-9e-05,-0.00012,-0.00014,-3e-05,-2e-05,-3e-05,1,30
2606,-7e-05,-6e-05,-9e-05,-0.00012,-0.00014,-3e-05,-2e-05,-3e-05,1,30
2607,-7e-05,-6e-05,-9e-05,-0.00012,-0.00014,-3e-05,-2e-05,-3e-05,1,30
2608,-7e-05,-6e-05,-9e-05,-0.00012,-0.00014,-3e-05,-2e-05,-3e-05,1,30
2609,-7e-05,-6e-05,-9e-05,-0.00012,-0.00014,-3e-05,-2e-05,-3e-05,1,30
2610,-7e-05,-6e-05,-9e-05,-0.00012,-0.00014,-3e-05,-2e-05,-3e-05,1,30
2611,3e-05,-4e-05,-4e-05,-0.00012,-0.00032,0,-3e-05,-2e-05,1,30
2612,3e-05,-4e-05,-4e-05,-0.00012,-0.00032,0,-3e-05,-2e-05,1,30
2613,-2e-05,-6e-05,-3e-05,0.00011,0.00016,-9e-05,1e-05,-2e-05,1,30
2614,-2e-05,-6e-05,-3e-05,0.00011,0.00016,-9e-05,1e-05,-2e-05,1,30
2615,-2e-05,-6e-05,-3e-05,0.00011,0.00016,-9e-05,1e-05,-2e-05,1,30
2616,-2e-05,-6e-05,-3e-05,0.00011,0.00016,-9e-05,1e-05,-2e-05,1,30
2617,-2e-05,-6e-05,-3e-05,0.00011,0.00016,-9e-05,1e-05,-2e-05,1,30
2618,-2e-05,-6e-05,-3e-05,0.00011,0.00016,-9e-05,1e-05,-2e-05,1,30
2619,-2e-05,-6e-05,-3e-05,0.00011,0.00016,-9e-05,1e-05,-2e-05,1,30
2620,-2e-05,-6e-05,-3e-05,0.00011,0.00016,-9e-05,1e-05,-2e-05,1,30
2621,-2e-05,-6e-05,-3e-05,0.00011,0.00016,-9e-05,1e-05,-2e-05,1,30
2622,-2e-05,-6e-05,-3e-05,0.00011,0.00016,-9e-05,1e-05,-2e-05,1,30
2623,-2e-05,-6e-05,-3e-05,0.00011,0.00016,-9e-05,1e-05,-2e-05,1,30
2624,-2e-05,-6e-05,-3e-05,0.00011,0.00016,-9e-05,1e-05,-2e-05,1,30
2625,-2e-05,-6e-05,-3e-05,0.00011,0.00016,-9e-05,1e-05,-2e-05,1,30
2626,-2e-05,-6e-05,-3e-05,0.00011,0.00016,-9e-05,1e-05,-2e-05,1,30
2627,-2e-05,-6e-05,-3e-05,0.00011,0.00016,-9e-05,1e-05,-2e-05,1,30
2628,-2e-05,-6e-05,-3e-05,0.00011,0.00016,-9e-05,1e-05,-2e-05,1,30
2629,-2e-05,-6e-05,-3e-05,0.00011,0.00016,-9e-05,1e-05,-2e-05,1,30
2630,-2e-05,-6e-05,-3e-05,0.00011,0.00016,-9e-05,1e-05,-2e-05,1,30
2631,-2e-05,-6e-05,-3e-05,0.00011,0.00016,-9e-05,1e-05,-2e-05,1,30
2632,-2e-05,-6e-05,-3e-05,0.00011,0.00016,-9e-05,1e-05,-2e-05,1,30
2633,-2e-05,-6e-05,-3e-05,0.00011,0.00016,-9e-05,1e-05,-2e-05,1,30
2634,-1e-05,-2e-05,-5e-05,-0.00023,-7e-05,-6e-05,-2e-05,-4e-05,1,30
2635,-2e-05,-3e-05,-4e-05,-3e-05,-9e-05,-1e-05,-4e-05,-4e-05,1,30
2636,1e-05,1e-05,3e-05,-3e-05,0,5e-05,0,-1e-05,1,30
2638,1e-05,1e-05,3e-05,-3e-05,0,5e-05,0,-1e-05,1,30
2639,1e-05,1e-05,3e-05,-3e-05,0,5e-05,0,-1e-05,1,30
2640,1e-05,1e-05,3e-05,-3e-05,0,5e-05,0,-1e-05,1,30
2641,1e-05,1e-05,3e-05,-3e-05,0,5e-05,0,-1e-05,1,30
2642,1e-05,1e-05,3e-05,-3e-05,0,5e-05,0,-1e-05,1,30
2643,1e-05,1e-05,3e-05,-3e-05,0,5e-05,0,-1e-05,1,30
2644,1e-05,1e-05,3e-05,-3e-05,0,5e-05,0,-1e-05,1,30
2645,1e-05,1e-05,3e-05,-3e-05,0,5e-05,0,-1e-05,1,30
2646,1e-05,1e-05,3e-05,-3e-05,0,5e-05,0,-1e-05,1,30
2647,-3e-05,-1e-05,-1e-05,3e-05,-2e-05,0,1e-05,0,1,30
2648,-3e-05,-4e-05,-2e-05,-5e-05,0.00015,-5e-05,-3e-05,-8e-05,1,30
2649,-3e-05,-4e-05,-2e-05,-5e-05,0.00015,-5e-05,-3e-05,-8e-05,1,30
2650,-3e-05,-4e-05,-2e-05,-5e-05,0.00015,-5e-05,-3e-05,-8e-05,1,30
2651,-3e-05,-4e-05,-2e-05,-5e-05,0.00015,-5e-05,-3e-05,-8e-05,1,30
2652,-3e-05,-4e-05,-2e-05,-5e-05,0.00015,-5e-05,-3e-05,-8e-05,1,30
2653,-3e-05,-4e-05,-2e-05,-5e-05,0.00015,-5e-05,-3e-05,-8e-05,1,30
2654,-3e-05,-4e-05,-2e-05,-5e-05,0.00015,-5e-05,-3e-05,-8e-05,1,30
2655,-3e-05,-4e-05,-2e-05,-5e-05,0.00015,-5e-05,-3e-05,-8e-05,1,30
2656,-3e-05,-4e-05,-2e-05,-5e-05,0.00015,-5e-05,-3e-05,-8e-05,1,30
2657,3e-05,2e-05,3e-05,-3e-05,4e-05,-3e-05,-5e-05,-1e-05,1,30
2658,3e-05,2e-05,3e-05,-3e-05,4e-05,-3e-05,-5e-05,-1e-05,1,30
2659,3e-05,2e-05,3e-05,-3e-05,4e-05,-3e-05,-5e-05,-1e-05,1,30
2660,3e-05,2e-05,3e-05,-3e-05,4e-05,-3e-05,-5e-05,-1e-05,1,30
2661,3e-05,2e-05,3e-05,-3e-05,4e-05,-3e-05,-5e-05,-1e-05,1,30
2662,3e-05,2e-05,3e-05,-3e-05,4e-05,-3e-05,-5e-05,-1e-05,1,30
2663,3e-05,2e-05,3e-05,-3e-05,4e-05,-3e-05,-5e-05,-1e-05,1,30
2664,3e-05,2e-05,3e-05,-3e-05,4e-05,-3e-05,-5e-05,-1e-05,1,30
2665,3e-05,2e-05,3e-05,-3e-05,4e-05,-3e-05,-5e-05,-1e-05,1,30
2666,3e-05,2e-05,3e-05,-3e-05,4e-05,-3e-05,-5e-05,-1e-05,1,30
2667,3e-05,2e-05,3e-05,-3e-05,4e-05,-3e-05,-5e-05,-1e-05,1,30
2668,3e-05,2e-05,3e-05,-3e-05,4e-05,-3e-05,-5e-05,-1e-05,1,30
2669,3e-05,2e-05,3e-05,-3e-05,4e-05,-3e-05,-5e-05,-1e-05,1,30
2670,3e-05,2e-05,3e-05,-3e-05,4e-05,-3e-05,-5e-05,-1e-05,1,30
2671,0,0,-4e-05,6e-05,1e-05,-5e-05,-1e-05,0,1,30
2672,0,0,-4e-05,6e-05,1e-05,-5e-05,-1e-05,0,1,30
2673,0,2e-05,2e-05,-1e-05,-0.0002,1e-05,-1e-05,0,1,30
2674,0,2e-05,2e-05,-1e-05,-0.0002,1e-05,-1e-05,0,1,30
2675,0,2e-05,2e-05,-1e-05,-0.0002,1e-05,-1e-05,0,1,30
2676,0,2e-05,2e-05,-1e-05,-0.0002,1e-05,-1e-05,0,1,30
2677,0,2e-05,2e-05,-1e-05,-0.0002,1e-05,-1e-05,0,1,30
2678,0,2e-05,2e-05,-1e-05,-0.0002,1e-05,-1e-05,0,1,30
2679,0,2e-05,2e-05,-1e-05,-0.0002,1e-05,-1e-05,0,1,30
2680,0,2e-05,2e-05,-1e-05,-0.0002,1e-05,-1e-05,0,1,30
2681,0,2e-05,2e-05,-1e-05,-0.0002,1e-05,-1e-05,0,1,30
2682,0,2e-05,2e-05,-1e-05,-0.0002,1e-05,-1e-05,0,1,30
2683,0,2e-05,2e-05,-1e-05,-0.0002,1e-05,-1e-05,0,1,30
2684,0,2e-05,2e-05,-1e-05,-0.0002,1e-05,-1e-05,0,1,30
2685,0,2e-05,2e-05,-1e-05,-0.0002,1e-05,-1e-05,0,1,30
2686,0,2e-05,2e-05,-1e-05,-0.0002,1e-05,-1e-05,0,1,30
2688,0,2e-05,2e-05,-1e-05,-0.0002,1e-05,-1e-05,0,1,30
2689,0,2e-05,2e-05,-1e-05,-0.0002,1e-05,-1e-05,0,1,30
2690,0,2e-05,2e-05,-1e-05,-0.0002,1e-05,-1e-05,0,1,30
2691,0,2e-05,2e-05,-1e-05,-0.0002,1e-05,-1e-05,0,1,30
2692,0,2e-05,2e-05,-1e-05,-0.0002,1e-05,-1e-05,0,1,30
2693,0,2e-05,2e-05,-1e-05,-0.0002,1e-05,-1e-05,0,1,30
2694,-2e-05,-4e-05,-7e-05,-0.00016,-0.00014,4e-05,-3e-05,0,1,30
2695,-2e-05,4e-05,9e-05,0.00027,0.00018,1e-05,2e-05,0,1,30
2696,0,5e-05,8e-05,2e-05,0.00018,-2e-05,-1e-05,1e-05,1,30
2697,0,5e-05,8e-05,2e-05,0.00018,-2e-05,-1e-05,1e-05,1,30
2698,0,5e-05,8e-05,2e-05,0.00018,-2e-05,-1e-05,1e-05,1,30
2699,0,5e-05,8e-05,2e-05,0.00018,-2e-05,-1e-05,1e-05,1,30
2700,0,5e-05,8e-05,2e-05,0.00018,-2e-05,-1e-05,1e-05,1,30
2701,0,5e-05,8e-05,2e-05,0.00018,-2e-05,-1e-05,1e-05,1,30
2702,0,5e-05,8e-05,2e-05,0.00018,-2e-05,-1e-05,1e-05,1,30
2703,0,5e-05,8e-05,2e-05,0.00018,-2e-05,-1e-05,1e-05,1,30
2704,0,5e-05,8e-05,2e-05,0.00018,-2e-05,-1e-05,1e-05,1,30
2705,0,5e-05,8e-05,2e-05,0.00018,-2e-05,-1e-05,1e-05,1,30
2706,0,5e-05,8e-05,2e-05,0.00018,-2e-05,-1e-05,1e-05,1,30
2707,-2e-05,-9e-05,-0.00012,-9e-05,-0.00017,4e-05,0,0,1,30
2708,-2e-05,-5e-05,-8e-05,-0.00013,-7e-05,-0.00024,0,-2e-05,1,30
2709,-2e-05,-5e-05,-8e-05,-0.00013,-7e-05,-0.00024,0,-2e-05,1,30
2710,-2e-05,-5e-05,-8e-05,-0.00013,-7e-05,-0.00024,0,-2e-05,1,30
2711,-2e-05,-5e-05,-8e-05,-0.00013,-7e-05,-0.00024,0,-2e-05,1,30
2712,-2e-05,-5e-05,-8e-05,-0.00013,-7e-05,-0.00024,0,-2e-05,1,30
2713,-2e-05,-5e-05,-8e-05,-0.00013,-7e-05,-0.00024,0,-2e-05,1,30
2714,-2e-05,-5e-05,-8e-05,-0.00013,-7e-05,-0.00024,0,-2e-05,1,30
2715,-2e-05,-5e-05,-8e-05,-0.00013,-7e-05,-0.00024,0,-2e-05,1,30
2716,-2e-05,-1e-05,4e-05,-2e-05,-0.00012,-1e-05,0,0,1,30
2717,-5e-05,0,-2e-05,-0.00021,-8e-05,0.00015,-2e-05,-3e-05,1,30
2718,-5e-05,0,-2e-05,-0.00021,-8e-05,0.00015,-2e-05,-3e-05,1,30
2719,-5e-05,0,-2e-05,-0.00021,-8e-05,0.00015,-2e-05,-3e-05,1,30
2720,-5e-05,0,-2e-05,-0.00021,-8e-05,0.00015,-2e-05,-3e-05,1,30
2721,-5e-05,0,-2e-05,-0.00021,-8e-05,0.00015,-2e-05,-3e-05,1,30
2722,-5e-05,0,-2e-05,-0.00021,-8e-05,0.00015,-2e-05,-3e-05,1,30
2723,-5e-05,0,-2e-05,-0.00021,-8e-05,0.00015,-2e-05,-3e-05,1,30
2724,-5e-05,0,-2e-05,-0.00021,-8e-05,0.00015,-2e-05,-3e-05,1,30
2725,-5e-05,0,-2e-05,-0.00021,-8e-05,0.00015,-2e-05,-3e-05,1,30
2726,-5e-05,0,-2e-05,-0.00021,-8e-05,0.00015,-2e-05,-3e-05,1,30
2727,-5e-05,0,-2e-05,-0.00021,-8e-05,0.00015,-2e-05,-3e-05,1,30
2728,-5e-05,0,-2e-05,-0.00021,-8e-05,0.00015,-2e-05,-3e-05,1,30
2729,-5e-05,0,-2e-05,-0.00021,-8e-05,0.00015,-2e-05,-3e-05,1,30
2730,-5e-05,0,-2e-05,-0.00021,-8e-05,0.00015,-2e-05,-3e-05,1,30
2731,0,2e-05,-3e-05,5e-05,0.00011,0,-1e-05,-2e-05,1,30
2732,0,2e-05,-3e-05,5e-05,0.00011,0,-1e-05,-2e-05,1,30
2733,-6e-05,-5e-05,0,0,-0.00026,0,-2e-05,-6e-05,1,30
2734,-6e-05,-5e-05,0,0,-0.00026,0,-2e-05,-6e-05,1,30
2735,-6e-05,-5e-05,0,0,-0.00026,0,-2e-05,-6e-05,1,30
2736,-6e-05,-5e-05,0,0,-0.00026,0,-2e-05,-6e-05,1,30
2738,-6e-05,-5e-05,0,0,-0.00026,0,-2e-05,-6e-05,1,30
2740,-6e-05,-5e-05,0,0,-0.00026,0,-2e-05,-6e-05,1,30
2741,-6e-05,-5e-05,0,0,-0.00026,0,-2e-05,-6e-05,1,30
2742,-6e-05,-5e-05,0,0,-0.00026,0,-2e-05,-6e-05,1,30
2743,-6e-05,-5e-05,0,0,-0.00026,0,-2e-05,-6e-05,1,30
2744,-6e-05,-5e-05,0,0,-0.00026,0,-2e-05,-6e-05,1,30
2745,-6e-05,-5e-05,0,0,-0.00026,0,-2e-05,-6e-05,1,30
2746,-6e-05,-5e-05,0,0,-0.00026,0,-2e-05,-6e-05,1,30
2747,-6e-05,-5e-05,0,0,-0.00026,0,-2e-05,-6e-05,1,30
2748,-6e-05,-5e-05,0,0,-0.00026,0,-2e-05,-6e-05,1,30
2749,-6e-05,-5e-05,0,0,-0.00026,0,-2e-05,-6e-05,1,30
2750,-6e-05,-5e-05,0,0,-0.00026,0,-2e-05,-6e-05,1,30
2751,-6e-05,-5e-05,0,0,-0.00026,0,-2e-05,-6e-05,1,30
2752,-6e-05,-5e-05,0,0,-0.00026,0,-2e-05,-6e-05,1,30
2753,-6e-05,-5e-05,0,0,-0.00026,0,-2e-05,-6e-05,1,30
2754,0,-2e-05,5e-05,0.00016,0.00024,7e-05,0,3e-05,1,30
2755,-1e-05,-4e-05,-3e-05,2e-05,0.00023,-6e-05,2e-05,2e-05,1,30
2756,-1e-05,-4e-05,-3e-05,2e-05,0.00023,-6e-05,2e-05,2e-05,1,30
2757,-1e-05,-4e-05,-3e-05,2e-05,0.00023,-6e-05,2e-05,2e-05,1,30
2758,-1e-05,-4e-05,-3e-05,2e-05,0.00023,-6e-05,2e-05,2e-05,1,30
2759,-1e-05,-4e-05,-3e-05,2e-05,0.00023,-6e-05,2e-05,2e-05,1,30
2760,-1e-05,-4e-05,-3e-05,2e-05,0.00023,-6e-05,2e-05,2e-05,1,30
2761,-1e-05,-4e-05,-3e-05,2e-05,0.00023,-6e-05,2e-05,2e-05,1,30
2762,-1e-05,-4e-05,-3e-05,2e-05,0.00023,-6e-05,2e-05,2e-05,1,30
2763,-1e-05,-4e-05,-3e-05,2e-05,0.00023,-6e-05,2e-05,2e-05,1,30
2764,-1e-05,-4e-05,-3e-05,2e-05,0.00023,-6e-05,2e-05,2e-05,1,30
2765,-1e-05,-4e-05,-3e-05,2e-05,0.00023,-6e-05,2e-05,2e-05,1,30
2766,-1e-05,-4e-05,-3e-05,2e-05,0.00023,-6e-05,2e-05,2e-05,1,30
2767,0,1e-05,2e-05,5e-05,-2e-05,-4e-05,0,-3e-05,1,30
2768,0,1e-05,2e-05,5e-05,-2e-05,-4e-05,0,-3e-05,1,30
2769,0,1e-05,2e-05,5e-05,-2e-05,-4e-05,0,-3e-05,1,30
2770,0,1e-05,2e-05,5e-05,-2e-05,-4e-05,0,-3e-05,1,30
2771,0,1e-05,2e-05,5e-05,-2e-05,-4e-05,0,-3e-05,1,30
2772,0,1e-05,2e-05,5e-05,-2e-05,-4e-05,0,-3e-05,1,30
2773,0,1e-05,2e-05,5e-05,-2e-05,-4e-05,0,-3e-05,1,30
2774,0,1e-05,2e-05,5e-05,-2e-05,-4e-05,0,-3e-05,1,30
2775,0,1e-05,2e-05,5e-05,-2e-05,-4e-05,0,-3e-05,1,30
2776,2e-05,2e-05,2e-05,-0.00011,-0.00017,9e-05,-3e-05,3e-05,1,30
2777,-4e-05,-2e-05,0,0.00016,0.00011,-5e-05,2e-05,1e-05,1,30
2778,-4e-05,-2e-05,0,0.00016,0.00011,-5e-05,2e-05,1e-05,1,30
2779,-4e-05,-2e-05,0,0.00016,0.00011,-5e-05,2e-05,1e-05,1,30
2780,-4e-05,-2e-05,0,0.00016,0.00011,-5e-05,2e-05,1e-05,1,30
2781,-4e-05,-2e-05,0,0.00016,0.00011,-5e-05,2e-05,1e-05,1,30
2782,-4e-05,-2e-05,0,0.00016,0.00011,-5e-05,2e-05,1e-05,1,30
2783,-4e-05,-2e-05,0,0.00016,0.00011,-5e-05,2e-05,1e-05,1,30
2784,-4e-05,-2e-05,0,0.00016,0.00011,-5e-05,2e-05,1e-05,1,30
2785,-4e-05,-2e-05,0,0.00016,0.00011,-5e-05,2e-05,1e-05,1,30
2786,-4e-05,-2e-05,0,0.00016,0.00011,-5e-05,2e-05,1e-05,1,30
2788,-4e-05,-2e-05,0,0.00016,0.00011,-5e-05,2e-05,1e-05,1,30
2789,-4e-05,-2e-05,0,0.00016,0.00011,-5e-05,2e-05,1e-05,1,30
2790,-4e-05,-2e-05,0,0.00016,0.00011,-5e-05,2e-05,1e-05,1,30
2791,-4e-05,-2e-05,0,0.00016,0.00011,-5e-05,2e-05,1e-05,1,30
2792,-4e-05,-2e-05,0,0.00016,0.00011,-5e-05,2e-05,1e-05,1,30
2793,-4e-05,-2e-05,0,0.00016,0.00011,-5e-05,2e-05,1e-05,1,30
2794,-4e-05,-2e-05,0,0.00016,0.00011,-5e-05,2e-05,1e-05,1,30
2795,-4e-05,-2e-05,0,0.00016,0.00011,-5e-05,2e-05,1e-05,1,30
2796,-4e-05,-2e-05,0,0.00016,0.00011,-5e-05,2e-05,1e-05,1,30
2797,-4e-05,-2e-05,0,0.00016,0.00011,-5e-05,2e-05,1e-05,1,30
2798,-4e-05,-2e-05,0,0.00016,0.00011,-5e-05,2e-05,1e-05,1,30
2799,0,0,-3e-05,-2e-05,1e-05,4e-05,-1e-05,1e-05,1,30
2800,-2e-05,-2e-05,-3e-05,-0.00011,-0.00015,-2e-05,-4e-05,-4e-05,1,30
2801,1e-05,1e-05,6e-05,2e-05,0.00019,6e-05,1e-05,2e-05,1,30
2802,1e-05,1e-05,6e-05,2e-05,0.00019,6e-05,1e-05,2e-05,1,30
2803,1e-05,1e-05,6e-05,2e-05,0.00019,6e-05,1e-05,2e-05,1,30
2804,1e-05,1e-05,6e-05,2e-05,0.00019,6e-05,1e-05,2e-05,1,30
2805,1e-05,1e-05,6e-05,2e-05,0.00019,6e-05,1e-05,2e-05,1,30
2806,1e-05,1e-05,6e-05,2e-05,0.00019,6e-05,1e-05,2e-05,1,30
2807,1e-05,1e-05,6e-05,2e-05,0.00019,6e-05,1e-05,2e-05,1,30
2808,1e-05,1e-05,6e-05,2e-05,0.00019,6e-05,1e-05,2e-05,1,30
2809,1e-05,1e-05,6e-05,2e-05,0.00019,6e-05,1e-05,2e-05,1,30
2810,1e-05,1e-05,6e-05,2e-05,0.00019,6e-05,1e-05,2e-05,1,30
2811,1e-05,1e-05,6e-05,2e-05,0.00019,6e-05,1e-05,2e-05,1,30
2812,1e-05,1e-05,6e-05,2e-05,0.00019,6e-05,1e-05,2e-05,1,30
2813,1e-05,1e-05,6e-05,2e-05,0.00019,6e-05,1e-05,2e-05,1,30
2814,-3e-05,0,0,0.00024,3e-05,4e-05,-1e-05,0,1,30
2815,3e-05,-1e-05,-9e-05,-0.00013,2e-05,-0.0001,-2e-05,-3e-05,1,30
2816,3e-05,-1e-05,-9e-05,-0.00013,2e-05,-0.0001,-2e-05,-3e-05,1,30
2817,3e-05,-1e-05,-9e-05,-0.00013,2e-05,-0.0001,-2e-05,-3e-05,1,30
2818,3e-05,-1e-05,-9e-05,-0.00013,2e-05,-0.0001,-2e-05,-3e-05,1,30
2819,3e-05,-1e-05,-9e-05,-0.00013,2e-05,-0.0001,-2e-05,-3e-05,1,30
2820,3e-05,-1e-05,-9e-05,-0.00013,2e-05,-0.0001,-2e-05,-3e-05,1,30
2821,3e-05,-1e-05,-9e-05,-0.00013,2e-05,-0.0001,-2e-05,-3e-05,1,30
2822,3e-05,-1e-05,-9e-05,-0.00013,2e-05,-0.0001,-2e-05,-3e-05,1,30
2823,3e-05,-1e-05,-9e-05,-0.00013,2e-05,-0.0001,-2e-05,-3e-05,1,30
2824,3e-05,-1e-05,-9e-05,-0.00013,2e-05,-0.0001,-2e-05,-3e-05,1,30
2825,3e-05,-1e-05,-9e-05,-0.00013,2e-05,-0.0001,-2e-05,-3e-05,1,30
2826,3e-05,-1e-05,-9e-05,-0.00013,2e-05,-0.0001,-2e-05,-3e-05,1,30
2827,2e-05,1e-05,2e-05,-0.00012,-0.00018,3e-05,-3e-05,-2e-05,1,30
2828,-2e-05,-5e-05,-0.00014,-3e-05,7e-05,-1e-05,-6e-05,-2e-05,1,30
2829,-2e-05,-5e-05,-0.00014,-3e-05,7e-05,-1e-05,-6e-05,-2e-05,1,30
2830,-2e-05,-5e-05,-0.00014,-3e-05,7e-05,-1e-05,-6e-05,-2e-05,1,30
2831,-2e-05,-5e-05,-0.00014,-3e-05,7e-05,-1e-05,-6e-05,-2e-05,1,30
2832,-2e-05,-5e-05,-0.00014,-3e-05,7e-05,-1e-05,-6e-05,-2e-05,1,30
2833,-2e-05,-5e-05,-0.00014,-3e-05,7e-05,-1e-05,-6e-05,-2e-05,1,30
2834,-2e-05,-5e-05,-0.00014,-3e-05,7e-05,-1e-05,-6e-05,-2e-05,1,30
2835,-2e-05,-5e-05,-0.00014,-3e-05,7e-05,-1e-05,-6e-05,-2e-05,1,30
2837,1e-05,1e-05,9e-05,8e-05,-7e-05,-6e-05,1e-05,0,1,30
2839,1e-05,1e-05,9e-05,8e-05,-7e-05,-6e-05,1e-05,0,1,30
2840,1e-05,1e-05,9e-05,8e-05,-7e-05,-6e-05,1e-05,0,1,30
2841,1e-05,1e-05,9e-05,8e-05,-7e-05,-6e-05,1e-05,0,1,30
2842,1e-05,1e-05,9e-05,8e-05,-7e-05,-6e-05,1e-05,0,1,30
2843,1e-05,1e-05,9e-05,8e-05,-7e-05,-6e-05,1e-05,0,1,30
2844,1e-05,1e-05,9e-05,8e-05,-7e-05,-6e-05,1e-05,0,1,30
2845,1e-05,1e-05,9e-05,8e-05,-7e-05,-6e-05,1e-05,0,1,30
2846,1e-05,1e-05,9e-05,8e-05,-7e-05,-6e-05,1e-05,0,1,30
2847,1e-05,1e-05,9e-05,8e-05,-7e-05,-6e-05,1e-05,0,1,30
2848,1e-05,1e-05,9e-05,8e-05,-7e-05,-6e-05,1e-05,0,1,30
2849,1e-05,1e-05,9e-05,8e-05,-7e-05,-6e-05,1e-05,0,1,30
2850,1e-05,1e-05,9e-05,8e-05,-7e-05,-6e-05,1e-05,0,1,30
2851,-7e-05,-3e-05,3e-05,-5e-05,0,3e-05,0,-1e-05,1,30
2852,-7e-05,-3e-05,3e-05,-5e-05,0,3e-05,0,-1e-05,1,30
2853,-1e-05,-5e-05,-0.0001,-8e-05,-9e-05,-6e-05,-2e-05,1e-05,1,30
2854,-1e-05,-5e-05,-0.0001,-8e-05,-9e-05,-6e-05,-2e-05,1e-05,1,30
2855,-1e-05,-5e-05,-0.0001,-8e-05,-9e-05,-6e-05,-2e-05,1e-05,1,30
2856,-1e-05,-5e-05,-0.0001,-8e-05,-9e-05,-6e-05,-2e-05,1e-05,1,30
2857,-1e-05,-5e-05,-0.0001,-8e-05,-9e-05,-6e-05,-2e-05,1e-05,1,30
2858,-1e-05,-5e-05,-0.0001,-8e-05,-9e-05,-6e-05,-2e-05,1e-05,1,30
2859,-1e-05,-5e-05,-0.0001,-8e-05,-9e-05,-6e-05,-2e-05,1e-05,1,30
2860,-1e-05,-5e-05,-0.0001,-8e-05,-9e-05,-6e-05,-2e-05,1e-05,1,30
2861,-1e-05,-5e-05,-0.0001,-8e-05,-9e-05,-6e-05,-2e-05,1e-05,1,30
2862,-1e-05,-5e-05,-0.0001,-8e-05,-9e-05,-6e-05,-2e-05,1e-05,1,30
2863,-1e-05,-5e-05,-0.0001,-8e-05,-9e-05,-6e-05,-2e-05,1e-05,1,30
2864,-1e-05,-5e-05,-0.0001,-8e-05,-9e-05,-6e-05,-2e-05,1e-05,1,30
2865,-1e-05,-5e-05,-0.0001,-8e-05,-9e-05,-6e-05,-2e-05,1e-05,1,30
2866,-1e-05,-5e-05,-0.0001,-8e-05,-9e-05,-6e-05,-2e-05,1e-05,1,30
2867,-1e-05,-5e-05,-0.0001,-8e-05,-9e-05,-6e-05,-2e-05,1e-05,1,30
2868,-1e-05,-5e-05,-0.0001,-8e-05,-9e-05,-6e-05,-2e-05,1e-05,1,30
2869,-1e-05,-5e-05,-0.0001,-8e-05,-9e-05,-6e-05,-2e-05,1e-05,1,30
2870,-1e-05,-5e-05,-0.0001,-8e-05,-9e-05,-6e-05,-2e-05,1e-05,1,30
2871,-1e-05,-5e-05,-0.0001,-8e-05,-9e-05,-6e-05,-2e-05,1e-05,1,30
2872,-1e-05,-5e-05,-0.0001,-8e-05,-9e-05,-6e-05,-2e-05,1e-05,1,30
2873,-1e-05,-5e-05,-0.0001,-8e-05,-9e-05,-6e-05,-2e-05,1e-05,1,30
2874,2e-05,3e-05,5e-05,2e-05,9e-05,0,-2e-05,-5e-05,1,30
2875,-3e-05,-4e-05,-7e-05,-0.00016,-9e-05,7e-05,-1e-05,-2e-05,1,30
2876,-3e-05,-4e-05,-7e-05,-0.00016,-9e-05,7e-05,-1e-05,-2e-05,1,30
2877,-3e-05,-4e-05,-7e-05,-0.00016,-9e-05,7e-05,-1e-05,-2e-05,1,30
2878,-3e-05,-4e-05,-7e-05,-0.00016,-9e-05,7e-05,-1e-05,-2e-05,1,30
2879,-3e-05,-4e-05,-7e-05,-0.00016,-9e-05,7e-05,-1e-05,-2e-05,1,30
2880,-3e-05,-4e-05,-7e-05,-0.00016,-9e-05,7e-05,-1e-05,-2e-05,1,30
2881,-3e-05,-4e-05,-7e-05,-0.00016,-9e-05,7e-05,-1e-05,-2e-05,1,30
2882,-3e-05,-4e-05,-7e-05,-0.00016,-9e-05,7e-05,-1e-05,-2e-05,1,30
2883,-3e-05,-4e-05,-7e-05,-0.00016,-9e-05,7e-05,-1e-05,-2e-05,1,30
2884,-3e-05,-4e-05,-7e-05,-0.00016,-9e-05,7e-05,-1e-05,-2e-05,1,30
2885,-3e-05,-4e-05,-7e-05,-0.00016,-9e-05,7e-05,-1e-05,-2e-05,1,30
2886,-3e-05,-4e-05,-7e-05,-0.00016,-9e-05,7e-05,-1e-05,-2e-05,1,30
2888,-3e-05,-4e-05,-7e-05,-0.00016,-9e-05,7e-05,-1e-05,-2e-05,1,30
2889,-3e-05,-4e-05,-7e-05,-0.00016,-9e-05,7e-05,-1e-05,-2e-05,1,30
2890,-3e-05,-4e-05,-7e-05,-0.00016,-9e-05,7e-05,-1e-05,-2e-05,1,30
2891,-3e-05,-4e-05,-7e-05,-0.00016,-9e-05,7e-05,-1e-05,-2e-05,1,30
2892,-3e-05,-4e-05,-7e-05,-0.00016,-9e-05,7e-05,-1e-05,-2e-05,1,30
2893,-3e-05,-4e-05,-7e-05,-0.00016,-9e-05,7e-05,-1e-05,-2e-05,1,30
2894,-3e-05,-4e-05,-7e-05,-0.00016,-9e-05,7e-05,-1e-05,-2e-05,1,30
2895,-3e-05,-4e-05,-7e-05,-0.00016,-9e-05,7e-05,-1e-05,-2e-05,1,30
2896,-1e-05,1e-05,2e-05,4e-05,-9e-05,-1e-05,2e-05,-2e-05,1,30
2897,-1e-05,1e-05,2e-05,4e-05,-9e-05,-1e-05,2e-05,-2e-05,1,30
2898,-3e-05,-2e-05,-0.00018,0.00011,9e-05,-7e-05,-2e-05,-2e-05,1,30
2899,-3e-05,-2e-05,-0.00018,0.00011,9e-05,-7e-05,-2e-05,-2e-05,1,30
2900,-3e-05,-2e-05,-0.00018,0.00011,9e-05,-7e-05,-2e-05,-2e-05,1,30
2901,-3e-05,-2e-05,-0.00018,0.00011,9e-05,-7e-05,-2e-05,-2e-05,1,30
2902,-3e-05,-2e-05,-0.00018,0.00011,9e-05,-7e-05,-2e-05,-2e-05,1,30
2903,-3e-05,-2e-05,-0.00018,0.00011,9e-05,-7e-05,-2e-05,-2e-05,1,30
2904,-3e-05,-2e-05,-0.00018,0.00011,9e-05,-7e-05,-2e-05,-2e-05,1,30
2905,-3e-05,-2e-05,-0.00018,0.00011,9e-05,-7e-05,-2e-05,-2e-05,1,30
2906,-3e-05,-2e-05,-0.00018,0.00011,9e-05,-7e-05,-2e-05,-2e-05,1,30
2907,-3e-05,-2e-05,-0.00018,0.00011,9e-05,-7e-05,-2e-05,-2e-05,1,30
2908,-3e-05,-2e-05,-0.00018,0.00011,9e-05,-7e-05,-2e-05,-2e-05,1,30
2909,-3e-05,-2e-05,-0.00018,0.00011,9e-05,-7e-05,-2e-05,-2e-05,1,30
2910,-3e-05,-2e-05,-0.00018,0.00011,9e-05,-7e-05,-2e-05,-2e-05,1,30
2911,0,-3e-05,-1e-05,-0.00013,2e-05,2e-05,-1e-05,1e-05,1,30
2912,0,-3e-05,-1e-05,-0.00013,2e-05,2e-05,-1e-05,1e-05,1,30
2913,3e-05,4e-05,0.00013,0.00017,0.00041,0.00015,4e-05,3e-05,1,30
2914,3e-05,4e-05,0.00013,0.00017,0.00041,0.00015,4e-05,3e-05,1,30
2915,3e-05,4e-05,0.00013,0.00017,0.00041,0.00015,4e-05,3e-05,1,30
2916,3e-05,4e-05,0.00013,0.00017,0.00041,0.00015,4e-05,3e-05,1,30
2917,3e-05,4e-05,0.00013,0.00017,0.00041,0.00015,4e-05,3e-05,1,30
2918,3e-05,4e-05,0.00013,0.00017,0.00041,0.00015,4e-05,3e-05,1,30
2919,3e-05,4e-05,0.00013,0.00017,0.00041,0.00015,4e-05,3e-05,1,30
2920,3e-05,4e-05,0.00013,0.00017,0.00041,0.00015,4e-05,3e-05,1,30
2921,3e-05,4e-05,0.00013,0.00017,0.00041,0.00015,4e-05,3e-05,1,30
2922,3e-05,4e-05,0.00013,0.00017,0.00041,0.00015,4e-05,3e-05,1,30
2923,3e-05,4e-05,0.00013,0.00017,0.00041,0.00015,4e-05,3e-05,1,30
2924,3e-05,4e-05,0.00013,0.00017,0.00041,0.00015,4e-05,3e-05,1,30
2925,3e-05,4e-05,0.00013,0.00017,0.00041,0.00015,4e-05,3e-05,1,30
2926,3e-05,4e-05,0.00013,0.00017,0.00041,0.00015,4e-05,3e-05,1,30
2927,3e-05,4e-05,0.00013,0.00017,0.00041,0.00015,4e-05,3e-05,1,30
2928,3e-05,4e-05,0.00013,0.00017,0.00041,0.00015,4e-05,3e-05,1,30
2929,3e-05,4e-05,0.00013,0.00017,0.00041,0.00015,4e-05,3e-05,1,30
2930,3e-05,4e-05,0.00013,0.00017,0.00041,0.00015,4e-05,3e-05,1,30
2931,3e-05,4e-05,0.00013,0.00017,0.00041,0.00015,4e-05,3e-05,1,30
2932,3e-05,4e-05,0.00013,0.00017,0.00041,0.00015,4e-05,3e-05,1,30
2933,3e-05,4e-05,0.00013,0.00017,0.00041,0.00015,4e-05,3e-05,1,30
2934,-1e-05,-3e-05,3e-05,0.00015,1e-05,-6e-05,1e-05,0,1,30
2935,-1e-05,-4e-05,-7e-05,-0.00014,2e-05,-2e-05,1e-05,-3e-05,1,30
2936,-2e-05,-2e-05,-1e-05,-0.0001,-0.00012,-0.0001,-2e-05,-2e-05,1,30
2938,-2e-05,-2e-05,-1e-05,-0.0001,-0.00012,-0.0001,-2e-05,-2e-05,1,30
2939,-2e-05,-2e-05,-1e-05,-0.0001,-0.00012,-0.0001,-2e-05,-2e-05,1,30
2940,-2e-05,-2e-05,-1e-05,-0.0001,-0.00012,-0.0001,-2e-05,-2e-05,1,30
2941,-2e-05,-2e-05,-1e-05,-0.0001,-0.00012,-0.0001,-2e-05,-2e-05,1,30
2942,-2e-05,-2e-05,-1e-05,-0.0001,-0.00012,-0.0001,-2e-05,-2e-05,1,30
2943,-2e-05,-2e-05,-1e-05,-0.0001,-0.00012,-0.0001,-2e-05,-2e-05,1,30
2944,-2e-05,-2e-05,-1e-05,-0.0001,-0.00012,-0.0001,-2e-05,-2e-05,1,30
2945,-2e-05,-2e-05,-1e-05,-0.0001,-0.00012,-0.0001,-2e-05,-2e-05,1,30
2946,-2e-05,-2e-05,-1e-05,-0.0001,-0.00012,-0.0001,-2e-05,-2e-05,1,30
2947,-2e-05,-2e-05,-1e-05,-0.0001,-0.00012,-0.0001,-2e-05,-2e-05,1,30
2948,-2e-05,-2e-05,-1e-05,-0.0001,-0.00012,-0.0001,-2e-05,-2e-05,1,30
2949,-2e-05,-2e-05,-1e-05,-0.0001,-0.00012,-0.0001,-2e-05,-2e-05,1,30
2950,-2e-05,-2e-05,-1e-05,-0.0001,-0.00012,-0.0001,-2e-05,-2e-05,1,30
2951,-2e-05,-2e-05,-1e-05,-0.0001,-0.00012,-0.0001,-2e-05,-2e-05,1,30
2952,-2e-05,-2e-05,-1e-05,-0.0001,-0.00012,-0.0001,-2e-05,-2e-05,1,30
2953,-2e-05,-2e-05,-1e-05,-0.0001,-0.00012,-0.0001,-2e-05,-2e-05,1,30
2954,-2e-05,-2e-05,-1e-05,-0.0001,-0.00012,-0.0001,-2e-05,-2e-05,1,30
2955,-2e-05,-2e-05,-1e-05,-0.0001,-0.00012,-0.0001,-2e-05,-2e-05,1,30
2956,1e-05,-1e-05,2e-05,0.0001,3e-05,-9e-05,-2e-05,-1e-05,1,30
2957,-6e-05,-5e-05,-3e-05,0.0001,0.00052,0.00011,-2e-05,0,1,30
2958,0,-1e-05,-9e-05,-8e-05,-0.00025,-3e-05,-3e-05,-2e-05,1,30
2959,0,-1e-05,-9e-05,-8e-05,-0.00025,-3e-05,-3e-05,-2e-05,1,30
2960,0,-1e-05,-9e-05,-8e-05,-0.00025,-3e-05,-3e-05,-2e-05,1,30
2961,0,-1e-05,-9e-05,-8e-05,-0.00025,-3e-05,-3e-05,-2e-05,1,30
2962,0,-1e-05,-9e-05,-8e-05,-0.00025,-3e-05,-3e-05,-2e-05,1,30
2963,0,-1e-05,-9e-05,-8e-05,-0.00025,-3e-05,-3e-05,-2e-05,1,30
2964,0,-1e-05,-9e-05,-8e-05,-0.00025,-3e-05,-3e-05,-2e-05,1,30
2965,0,-1e-05,-9e-05,-8e-05,-0.00025,-3e-05,-3e-05,-2e-05,1,30
2966,0,-1e-05,-9e-05,-8e-05,-0.00025,-3e-05,-3e-05,-2e-05,1,30
2967,0,-1e-05,-9e-05,-8e-05,-0.00025,-3e-05,-3e-05,-2e-05,1,30
2968,0,-1e-05,-9e-05,-8e-05,-0.00025,-3e-05,-3e-05,-2e-05,1,30
2969,0,-1e-05,-9e-05,-8e-05,-0.00025,-3e-05,-3e-05,-2e-05,1,30
2970,0,-1e-05,-9e-05,-8e-05,-0.00025,-3e-05,-3e-05,-2e-05,1,30
2971,-1e-05,0,-3e-05,-4e-05,-0.00012,4e-05,-2e-05,3e-05,1,30
2972,-1e-05,0,-3e-05,-4e-05,-0.00012,4e-05,-2e-05,3e-05,1,30
2973,-2e-05,-1e-05,4e-05,-7e-05,-0.00023,-4e-05,2e-05,1e-05,1,30
2974,-2e-05,-1e-05,4e-05,-7e-05,-0.00023,-4e-05,2e-05,1e-05,1,30
2975,-2e-05,-1e-05,4e-05,-7e-05,-0.00023,-4e-05,2e-05,1e-05,1,30
2976,-2e-05,-1e-05,4e-05,-7e-05,-0.00023,-4e-05,2e-05,1e-05,1,30
2977,-2e-05,-1e-05,4e-05,-7e-05,-0.00023,-4e-05,2e-05,1e-05,1,30
2978,-2e-05,-1e-05,4e-05,-7e-05,-0.00023,-4e-05,2e-05,1e-05,1,30
2979,-2e-05,-1e-05,4e-05,-7e-05,-0.00023,-4e-05,2e-05,1e-05,1,30
2980,-2e-05,-1e-05,4e-05,-7e-05,-0.00023,-4e-05,2e-05,1e-05,1,30
2981,-2e-05,-1e-05,4e-05,-7e-05,-0.00023,-4e-05,2e-05,1e-05,1,30
2982,-2e-05,-1e-05,4e-05,-7e-05,-0.00023,-4e-05,2e-05,1e-05,1,30
2983,-2e-05,-1e-05,4e-05,-7e-05,-0.00023,-4e-05,2e-05,1e-05,1,30
2984,-2e-05,-1e-05,4e-05,-7e-05,-0.00023,-4e-05,2e-05,1e-05,1,30
2985,-2e-05,-1e-05,4e-05,-7e-05,-0.00023,-4e-05,2e-05,1e-05,1,30
2986,-2e-05,-1e-05,4e-05,-7e-05,-0.00023,-4e-05,2e-05,1e-05,1,30
2988,-2e-05,-1e-05,4e-05,-7e-05,-0.00023,-4e-05,2e-05,1e-05,1,30
2989,-2e-05,-1e-05,4e-05,-7e-05,-0.00023,-4e-05,2e-05,1e-05,1,30
2990,-2e-05,-1e-05,4e-05,-7e-05,-0.00023,-4e-05,2e-05,1e-05,1,30
2991,-2e-05,-1e-05,4e-05,-7e-05,-0.00023,-4e-05,2e-05,1e-05,1,30
2992,-2e-05,-1e-05,4e-05,-7e-05,-0.00023,-4e-05,2e-05,1e-05,1,30
2993,-2e-05,-1e-05,4e-05,-7e-05,-0.00023,-4e-05,2e-05,1e-05,1,30
2994,1e-05,-2e-05,-6e-05,-8e-05,-1e-05,5e-05,-2e-05,-2e-05,1,30
2995,1e-05,-3e-05,-3e-05,0,-1e-05,-1e-05,-3e-05,-3e-05,1,30
2996,1e-05,-3e-05,-3e-05,0,-1e-05,-1e-05,-3e-05,-3e-05,1,30
2997,1e-05,-3e-05,-3e-05,0,-1e-05,-1e-05,-3e-05,-3e-05,1,30
2998,1e-05,-3e-05,-3e-05,0,-1e-05,-1e-05,-3e-05,-3e-05,1,30
2999,1e-05,-3e-05,-3e-05,0,-1e-05,-1e-05,-3e-05,-3e-05,1,30
3000,1e-05,-3e-05,-3e-05,0,-1e-05,-1e-05,-3e-05,-3e-05,1,30
3001,1e-05,-3e-05,-3e-05,0,-1e-05,-1e-05,-3e-05,-3e-05,1,30
3002,1e-05,-3e-05,-3e-05,0,-1e-05,-1e-05,-3e-05,-3e-05,1,30
3003,1e-05,-3e-05,-3e-05,0,-1e-05,-1e-05,-3e-05,-3e-05,1,30
3004,1e-05,-3e-05,-3e-05,0,-1e-05,-1e-05,-3e-05,-3e-05,1,30
3005,1e-05,-3e-05,-3e-05,0,-1e-05,-1e-05,-3e-05,-3e-05,1,30
3006,1e-05,-3e-05,-3e-05,0,-1e-05,-1e-05,-3e-05,-3e-05,1,30
3007,1e-05,-3e-05,-3e-05,0,-1e-05,-1e-05,-3e-05,-3e-05,1,30
3008,1e-05,-3e-05,-3e-05,0,-1e-05,-1e-05,-3e-05,-3e-05,1,30
3009,1e-05,-3e-05,-3e-05,0,-1e-05,-1e-05,-3e-05,-3e-05,1,30
3010,1e-05,-3e-05,-3e-05,0,-1e-05,-1e-05,-3e-05,-3e-05,1,30
3011,1e-05,-3e-05,-3e-05,0,-1e-05,-1e-05,-3e-05,-3e-05,1,30
3012,1e-05,-3e-05,-3e-05,0,-1e-05,-1e-05,-3e-05,-3e-05,1,30
3013,1e-05,-3e-05,-3e-05,0,-1e-05,-1e-05,-3e-05,-3e-05,1,30
3014,1e-05,-3e-05,-3e-05,0,-1e-05,-1e-05,-3e-05,-3e-05,1,30
3015,1e-05,-3e-05,-3e-05,0,-1e-05,-1e-05,-3e-05,-3e-05,1,30
3016,4e-05,-2e-05,1e-05,-7e-05,-4e-05,-1e-05,-3e-05,0,1,30
3017,4e-05,-2e-05,1e-05,-7e-05,-4e-05,-1e-05,-3e-05,0,1,30
3018,-2e-05,-3e-05,4e-05,-0.0001,-0.00022,-3e-05,-3e-05,-1e-05,1,30
3019,-2e-05,-3e-05,4e-05,-0.0001,-0.00022,-3e-05,-3e-05,-1e-05,1,30
3020,-2e-05,-3e-05,4e-05,-0.0001,-0.00022,-3e-05,-3e-05,-1e-05,1,30
3021,-2e-05,-3e-05,4e-05,-0.0001,-0.00022,-3e-05,-3e-05,-1e-05,1,30
3022,-2e-05,-3e-05,4e-05,-0.0001,-0.00022,-3e-05,-3e-05,-1e-05,1,30
3023,-2e-05,-3e-05,4e-05,-0.0001,-0.00022,-3e-05,-3e-05,-1e-05,1,30
3024,-2e-05,-3e-05,4e-05,-0.0001,-0.00022,-3e-05,-3e-05,-1e-05,1,30
3025,-2e-05,-3e-05,4e-05,-0.0001,-0.00022,-3e-05,-3e-05,-1e-05,1,30
3026,-2e-05,-3e-05,4e-05,-0.0001,-0.00022,-3e-05,-3e-05,-1e-05,1,30
3027,-2e-05,-3e-05,4e-05,-0.0001,-0.00022,-3e-05,-3e-05,-1e-05,1,30
3028,-2e-05,-3e-05,4e-05,-0.0001,-0.00022,-3e-05,-3e-05,-1e-05,1,30
3029,-2e-05,-3e-05,4e-05,-0.0001,-0.00022,-3e-05,-3e-05,-1e-05,1,30
3030,-2e-05,-3e-05,4e-05,-0.0001,-0.00022,-3e-05,-3e-05,-1e-05,1,30
3031,0,-3e-05,-9e-05,2e-05,0.00021,-4e-05,2e-05,0,1,30
3032,0,-3e-05,-9e-05,2e-05,0.00021,-4e-05,2e-05,0,1,30
3033,0,-3e-05,-9e-05,2e-05,0.00021,-4e-05,2e-05,0,1,30
3034,0,-3e-05,-9e-05,2e-05,0.00021,-4e-05,2e-05,0,1,30
3035,0,-3e-05,-9e-05,2e-05,0.00021,-4e-05,2e-05,0,1,30
3036,0,-3e-05,-9e-05,2e-05,0.00021,-4e-05,2e-05,0,1,30
3038,0,-2e-05,1e-05,-2e-05,-4e-05,-2e-05,1e-05,-1e-05,1,30
3039,0,-2e-05,1e-05,-2e-05,-4e-05,-2e-05,1e-05,-1e-05,1,30
3040,0,-2e-05,1e-05,-2e-05,-4e-05,-2e-05,1e-05,-1e-05,1,30
3041,0,-2e-05,1e-05,-2e-05,-4e-05,-2e-05,1e-05,-1e-05,1,30
3042,0,-2e-05,1e-05,-2e-05,-4e-05,-2e-05,1e-05,-1e-05,1,30
3043,0,-2e-05,1e-05,-2e-05,-4e-05,-2e-05,1e-05,-1e-05,1,30
3044,0,-2e-05,1e-05,-2e-05,-4e-05,-2e-05,1e-05,-1e-05,1,30
3045,0,-2e-05,1e-05,-2e-05,-4e-05,-2e-05,1e-05,-1e-05,1,30
3046,0,-2e-05,1e-05,-2e-05,-4e-05,-2e-05,1e-05,-1e-05,1,30
3047,0,-2e-05,1e-05,-2e-05,-4e-05,-2e-05,1e-05,-1e-05,1,30
3048,0,-2e-05,1e-05,-2e-05,-4e-05,-2e-05,1e-05,-1e-05,1,30
3049,0,-2e-05,1e-05,-2e-05,-4e-05,-2e-05,1e-05,-1e-05,1,30
3050,0,-2e-05,1e-05,-2e-05,-4e-05,-2e-05,1e-05,-1e-05,1,30
3051,0,-2e-05,1e-05,-2e-05,-4e-05,-2e-05,1e-05,-1e-05,1,30
3052,0,-2e-05,1e-05,-2e-05,-4e-05,-2e-05,1e-05,-1e-05,1,30
3053,0,-2e-05,1e-05,-2e-05,-4e-05,-2e-05,1e-05,-1e-05,1,30
3054,-2e-05,-1e-05,2e-05,1e-05,0.00028,-4e-05,0,0,1,30
3055,-3e-05,2e-05,-3e-05,-1e-05,-0.00025,-0.00047,3e-05,-1e-05,1,30
3056,-3e-05,-5e-05,-0.00012,-8e-05,-7e-05,-2e-05,-2e-05,-3e-05,1,30
3057,-3e-05,-5e-05,-0.00012,-8e-05,-7e-05,-2e-05,-2e-05,-3e-05,1,30
3058,-3e-05,-5e-05,-0.00012,-8e-05,-7e-05,-2e-05,-2e-05,-3e-05,1,30
3059,-3e-05,-5e-05,-0.00012,-8e-05,-7e-05,-2e-05,-2e-05,-3e-05,1,30
3060,-3e-05,-5e-05,-0.00012,-8e-05,-7e-05,-2e-05,-2e-05,-3e-05,1,30
3061,-3e-05,-5e-05,-0.00012,-8e-05,-7e-05,-2e-05,-2e-05,-3e-05,1,30
3062,-3e-05,-5e-05,-0.00012,-8e-05,-7e-05,-2e-05,-2e-05,-3e-05,1,30
3063,-3e-05,-5e-05,-0.00012,-8e-05,-7e-05,-2e-05,-2e-05,-3e-05,1,30
3064,-3e-05,-5e-05,-0.00012,-8e-05,-7e-05,-2e-05,-2e-05,-3e-05,1,30
3065,-3e-05,-5e-05,-0.00012,-8e-05,-7e-05,-2e-05,-2e-05,-3e-05,1,30
3066,-3e-05,-5e-05,-0.00012,-8e-05,-7e-05,-2e-05,-2e-05,-3e-05,1,30
3067,-3e-05,-5e-05,-0.00012,-8e-05,-7e-05,-2e-05,-2e-05,-3e-05,1,30
3068,-3e-05,-5e-05,-0.00012,-8e-05,-7e-05,-2e-05,-2e-05,-3e-05,1,30
3069,-3e-05,-5e-05,-0.00012,-8e-05,-7e-05,-2e-05,-2e-05,-3e-05,1,30
3070,-3e-05,-5e-05,-0.00012,-8e-05,-7e-05,-2e-05,-2e-05,-3e-05,1,30
3071,-3e-05,-5e-05,-0.00012,-8e-05,-7e-05,-2e-05,-2e-05,-3e-05,1,30
3072,-3e-05,-5e-05,-0.00012,-8e-05,-7e-05,-2e-05,-2e-05,-3e-05,1,30
3073,-3e-05,-5e-05,-0.00012,-8e-05,-7e-05,-2e-05,-2e-05,-3e-05,1,30
3074,-3e-05,-5e-05,-0.00012,-8e-05,-7e-05,-2e-05,-2e-05,-3e-05,1,30
3075,-3e-05,-5e-05,-0.00012,-8e-05,-7e-05,-2e-05,-2e-05,-3e-05,1,30
3076,-3e-05,-5e-05,-0.00012,-8e-05,-7e-05,-2e-05,-2e-05,-3e-05,1,30
3077,-3e-05,-3e-05,6e-05,-6e-05,-0.00021,0.00011,-1e-05,0,1,30
3078,-3e-05,-3e-05,6e-05,-6e-05,-0.00021,0.00011,-1e-05,0,1,30
3079,-3e-05,-3e-05,6e-05,-6e-05,-0.00021,0.00011,-1e-05,0,1,30
3080,-3e-05,-3e-05,6e-05,-6e-05,-0.00021,0.00011,-1e-05,0,1,30
3081,-3e-05,-3e-05,6e-05,-6e-05,-0.00021,0.00011,-1e-05,0,1,30
3082,0,-4e-05,-3e-05,0.00014,0.00025,1e-05,-1e-05,3e-05,1,30
3083,2e-05,-1e-05,3e-05,1e-05,-2e-05,-8e-05,1e-05,-1e-05,1,30
3084,2e-05,-1e-05,3e-05,1e-05,-2e-05,-8e-05,1e-05,-1e-05,1,30
3085,2e-05,-1e-05,3e-05,1e-05,-2e-05,-8e-05,1e-05,-1e-05,1,30
3086,2e-05,-1e-05,3e-05,1e-05,-2e-05,-8e-05,1e-05,-1e-05,1,30
3088,2e-05,-1e-05,3e-05,1e-05,-2e-05,-8e-05,1e-05,-1e-05,1,30
3089,2e-05,-1e-05,3e-05,1e-05,-2e-05,-8e-05,1e-05,-1e-05,1,30
3090,2e-05,-1e-05,3e-05,1e-05,-2e-05,-8e-05,1e-05,-1e-05,1,30
3091,1e-05,-3e-05,-4e-05,-4e-05,0.0001,5e-05,-4e-05,-2e-05,1,30
3092,1e-05,-3e-05,-4e-05,-4e-05,0.0001,5e-05,-4e-05,-2e-05,1,30
3093,1e-05,-3e-05,-4e-05,-4e-05,0.0001,5e-05,-4e-05,-2e-05,1,30
3094,1e-05,-3e-05,-4e-05,-4e-05,0.0001,5e-05,-4e-05,-2e-05,1,30
3095,1e-05,-3e-05,-4e-05,-4e-05,0.0001,5e-05,-4e-05,-2e-05,1,30
3096,1e-05,-3e-05,-4e-05,-4e-05,0.0001,5e-05,-4e-05,-2e-05,1,30
3097,-2e-05,1e-05,-2e-05,-0.00013,5e-05,8e-05,-3e-05,-3e-05,1,30
3098,-2e-05,1e-05,-2e-05,-0.00013,5e-05,8e-05,-3e-05,-3e-05,1,30
3099,-2e-05,1e-05,-2e-05,-0.00013,5e-05,8e-05,-3e-05,-3e-05,1,30
3100,-2e-05,1e-05,-2e-05,-0.00013,5e-05,8e-05,-3e-05,-3e-05,1,30
3101,-2e-05,1e-05,-2e-05,-0.00013,5e-05,8e-05,-3e-05,-3e-05,1,30
3102,-2e-05,1e-05,-2e-05,-0.00013,5e-05,8e-05,-3e-05,-3e-05,1,30
3103,-2e-05,1e-05,-2e-05,-0.00013,5e-05,8e-05,-3e-05,-3e-05,1,30
3104,-2e-05,1e-05,-2e-05,-0.00013,5e-05,8e-05,-3e-05,-3e-05,1,30
3105,-2e-05,1e-05,-2e-05,-0.00013,5e-05,8e-05,-3e-05,-3e-05,1,30
3106,-2e-05,1e-05,-2e-05,-0.00013,5e-05,8e-05,-3e-05,-3e-05,1,30
3107,-2e-05,1e-05,-2e-05,-0.00013,5e-05,8e-05,-3e-05,-3e-05,1,30
3108,-2e-05,1e-05,-2e-05,-0.00013,5e-05,8e-05,-3e-05,-3e-05,1,30
3109,-2e-05,1e-05,-2e-05,-0.00013,5e-05,8e-05,-3e-05,-3e-05,1,30
3110,-2e-05,1e-05,-2e-05,-0.00013,5e-05,8e-05,-3e-05,-3e-05,1,30
3111,-2e-05,1e-05,-2e-05,-0.00013,5e-05,8e-05,-3e-05,-3e-05,1,30
3112,-2e-05,1e-05,-2e-05,-0.00013,5e-05,8e-05,-3e-05,-3e-05,1,30
3113,-2e-05,1e-05,-2e-05,-0.00013,5e-05,8e-05,-3e-05,-3e-05,1,30
3114,2e-05,0,-3e-05,-7e-05,0.00014,6e-05,0,1e-05,1,30
3115,-4e-05,4e-05,2e-05,7e-05,7e-05,0,3e-05,3e-05,1,30
3116,-4e-05,4e-05,2e-05,7e-05,7e-05,0,3e-05,3e-05,1,30
3117,-4e-05,4e-05,2e-05,7e-05,7e-05,0,3e-05,3e-05,1,30
3118,-4e-05,4e-05,2e-05,7e-05,7e-05,0,3e-05,3e-05,1,30
3119,-4e-05,4e-05,2e-05,7e-05,7e-05,0,3e-05,3e-05,1,30
3120,-4e-05,4e-05,2e-05,7e-05,7e-05,0,3e-05,3e-05,1,30
3121,-4e-05,4e-05,2e-05,7e-05,7e-05,0,3e-05,3e-05,1,30
3122,-4e-05,4e-05,2e-05,7e-05,7e-05,0,3e-05,3e-05,1,30
3123,-4e-05,4e-05,2e-05,7e-05,7e-05,0,3e-05,3e-05,1,30
3124,-4e-05,4e-05,2e-05,7e-05,7e-05,0,3e-05,3e-05,1,30
3125,-4e-05,4e-05,2e-05,7e-05,7e-05,0,3e-05,3e-05,1,30
3126,-4e-05,4e-05,2e-05,7e-05,7e-05,0,3e-05,3e-05,1,30
3127,-4e-05,4e-05,2e-05,7e-05,7e-05,0,3e-05,3e-05,1,30
3128,-4e-05,4e-05,2e-05,7e-05,7e-05,0,3e-05,3e-05,1,30
3129,-4e-05,4e-05,2e-05,7e-05,7e-05,0,3e-05,3e-05,1,30
3130,-4e-05,4e-05,2e-05,7e-05,7e-05,0,3e-05,3e-05,1,30
3131,-4e-05,4e-05,2e-05,7e-05,7e-05,0,3e-05,3e-05,1,30
3132,-4e-05,4e-05,2e-05,7e-05,7e-05,0,3e-05,3e-05,1,30
3133,-4e-05,4e-05,2e-05,7e-05,7e-05,0,3e-05,3e-05,1,30
3134,-4e-05,4e-05,2e-05,7e-05,7e-05,0,3e-05,3e-05,1,30
3135,-4e-05,4e-05,2e-05,7e-05,7e-05,0,3e-05,3e-05,1,30
3136,-6e-05,-3e-05,-1e-05,0.00014,-0.00011,1e-05,-1e-05,-1e-05,1,30
3138,-2e-05,0,-4e-05,5e-05,0.00019,-1e-05,0,-2e-05,1,30
3139,-2e-05,0,-4e-05,5e-05,0.00019,-1e-05,0,-2e-05,1,30
3140,-2e-05,0,-4e-05,5e-05,0.00019,-1e-05,0,-2e-05,1,30
3141,-2e-05,0,-4e-05,5e-05,0.00019,-1e-05,0,-2e-05,1,30
3142,-2e-05,0,-4e-05,5e-05,0.00019,-1e-05,0,-2e-05,1,30
3143,-2e-05,0,-4e-05,5e-05,0.00019,-1e-05,0,-2e-05,1,30
3144,-2e-05,0,-4e-05,5e-05,0.00019,-1e-05,0,-2e-05,1,30
3145,-2e-05,0,-4e-05,5e-05,0.00019,-1e-05,0,-2e-05,1,30
3146,-2e-05,0,-4e-05,5e-05,0.00019,-1e-05,0,-2e-05,1,30
3147,-2e-05,0,-4e-05,5e-05,0.00019,-1e-05,0,-2e-05,1,30
3148,-2e-05,0,-4e-05,5e-05,0.00019,-1e-05,0,-2e-05,1,30
3149,-2e-05,0,-4e-05,5e-05,0.00019,-1e-05,0,-2e-05,1,30
3150,-2e-05,0,-4e-05,5e-05,0.00019,-1e-05,0,-2e-05,1,30
3151,0,1e-05,3e-05,-0.0001,-0.0001,6e-05,0,-1e-05,1,30
3152,0,1e-05,3e-05,-0.0001,-0.0001,6e-05,0,-1e-05,1,30
3153,0,1e-05,3e-05,-0.0001,-0.0001,6e-05,0,-1e-05,1,30
3154,0,1e-05,3e-05,-0.0001,-0.0001,6e-05,0,-1e-05,1,30
3155,0,1e-05,3e-05,-0.0001,-0.0001,6e-05,0,-1e-05,1,30
3156,0,1e-05,3e-05,-0.0001,-0.0001,6e-05,0,-1e-05,1,30
3157,0,1e-05,3e-05,-0.0001,-0.0001,6e-05,0,-1e-05,1,30
3158,1e-05,-1e-05,0.00014,0.00029,0.00018,-7e-05,0,-1e-05,1,30
3159,1e-05,-1e-05,0.00014,0.00029,0.00018,-7e-05,0,-1e-05,1,30
3160,1e-05,-1e-05,0.00014,0.00029,0.00018,-7e-05,0,-1e-05,1,30
3161,1e-05,-1e-05,0.00014,0.00029,0.00018,-7e-05,0,-1e-05,1,30
3162,1e-05,-1e-05,0.00014,0.00029,0.00018,-7e-05,0,-1e-05,1,30
3163,1e-05,-1e-05,0.00014,0.00029,0.00018,-7e-05,0,-1e-05,1,30
3164,1e-05,-1e-05,0.00014,0.00029,0.00018,-7e-05,0,-1e-05,1,30
3165,1e-05,-1e-05,0.00014,0.00029,0.00018,-7e-05,0,-1e-05,1,30
3166,1e-05,-1e-05,0.00014,0.00029,0.00018,-7e-05,0,-1e-05,1,30
3167,1e-05,-1e-05,0.00014,0.00029,0.00018,-7e-05,0,-1e-05,1,30
3168,1e-05,-1e-05,0.00014,0.00029,0.00018,-7e-05,0,-1e-05,1,30
3169,1e-05,-1e-05,0.00014,0.00029,0.00018,-7e-05,0,-1e-05,1,30
3170,1e-05,-1e-05,0.00014,0.00029,0.00018,-7e-05,0,-1e-05,1,30
3171,1e-05,-1e-05,0.00014,0.00029,0.00018,-7e-05,0,-1e-05,1,30
3172,1e-05,-1e-05,0.00014,0.00029,0.00018,-7e-05,0,-1e-05,1,30
3173,1e-05,-1e-05,0.00014,0.00029,0.00018,-7e-05,0,-1e-05,1,30
3174,-3e-05,-4e-05,-6e-05,-9e-05,0.00014,-1e-05,-4e-05,-2e-05,1,30
3175,-1e-05,2e-05,-3e-05,-9e-05,-4e-05,0,-6e-05,1e-05,1,30
3176,-1e-05,2e-05,-3e-05,-9e-05,-4e-05,0,-6e-05,1e-05,1,30
3177,-1e-05,2e-05,-3e-05,-9e-05,-4e-05,0,-6e-05,1e-05,1,30
3178,-1e-05,2e-05,-3e-05,-9e-05,-4e-05,0,-6e-05,1e-05,1,30
3179,-1e-05,2e-05,-3e-05,-9e-05,-4e-05,0,-6e-05,1e-05,1,30
3180,-1e-05,2e-05,-3e-05,-9e-05,-4e-05,0,-6e-05,1e-05,1,30
3181,-1e-05,2e-05,-3e-05,-9e-05,-4e-05,0,-6e-05,1e-05,1,30
3182,-1e-05,2e-05,-3e-05,-9e-05,-4e-05,0,-6e-05,1e-05,1,30
3183,-1e-05,2e-05,-3e-05,-9e-05,-4e-05,0,-6e-05,1e-05,1,30
3184,-1e-05,2e-05,-3e-05,-9e-05,-4e-05,0,-6e-05,1e-05,1,30
3185,-1e-05,2e-05,-3e-05,-9e-05,-4e-05,0,-6e-05,1e-05,1,30
3186,-1e-05,2e-05,-3e-05,-9e-05,-4e-05,0,-6e-05,1e-05,1,30
3188,-1e-05,2e-05,-3e-05,-9e-05,-4e-05,0,-6e-05,1e-05,1,30
3189,-1e-05,2e-05,-3e-05,-9e-05,-4e-05,0,-6e-05,1e-05,1,30
3190,-1e-05,2e-05,-3e-05,-9e-05,-4e-05,0,-6e-05,1e-05,1,30
3191,-1e-05,2e-05,-3e-05,-9e-05,-4e-05,0,-6e-05,1e-05,1,30
3192,-1e-05,2e-05,-3e-05,-9e-05,-4e-05,0,-6e-05,1e-05,1,30
3193,-1e-05,2e-05,-3e-05,-9e-05,-4e-05,0,-6e-05,1e-05,1,30
3194,-1e-05,2e-05,-3e-05,-9e-05,-4e-05,0,-6e-05,1e-05,1,30
3195,0,-1e-05,-3e-05,-3e-05,0.00023,-3e-05,-2e-05,2e-05,1,30
3196,0,-5e-05,-1e-05,-2e-05,-0.00018,0,1e-05,0,1,30
3197,0,-5e-05,-1e-05,-2e-05,-0.00018,0,1e-05,0,1,30
3198,0,-5e-05,-1e-05,-2e-05,-0.00018,0,1e-05,0,1,30
3199,0,-5e-05,-1e-05,-2e-05,-0.00018,0,1e-05,0,1,30
3200,0,-5e-05,-1e-05,-2e-05,-0.00018,0,1e-05,0,1,30
3201,0,-5e-05,-1e-05,-2e-05,-0.00018,0,1e-05,0,1,30
3202,0,-5e-05,-1e-05,-2e-05,-0.00018,0,1e-05,0,1,30
3203,0,-5e-05,-1e-05,-2e-05,-0.00018,0,1e-05,0,1,30
3204,-2e-05,0,8e-05,0.00019,0.00025,4e-05,-1e-05,-2e-05,1,30
3205,-2e-05,0,8e-05,0.00019,0.00025,4e-05,-1e-05,-2e-05,1,30
3206,-2e-05,0,8e-05,0.00019,0.00025,4e-05,-1e-05,-2e-05,1,30
3207,-2e-05,0,8e-05,0.00019,0.00025,4e-05,-1e-05,-2e-05,1,30
3208,-2e-05,0,8e-05,0.00019,0.00025,4e-05,-1e-05,-2e-05,1,30
3209,-2e-05,0,8e-05,0.00019,0.00025,4e-05,-1e-05,-2e-05,1,30
3210,-2e-05,0,8e-05,0.00019,0.00025,4e-05,-1e-05,-2e-05,1,30
3211,-5e-05,-8e-05,-0.0001,-0.00013,0.00035,0.0002,4e-05,-1e-05,1,30
3212,-5e-05,-8e-05,-0.0001,-0.00013,0.00035,0.0002,4e-05,-1e-05,1,30
3213,-5e-05,-8e-05,-0.0001,-0.00013,0.00035,0.0002,4e-05,-1e-05,1,30
3214,-5e-05,-8e-05,-0.0001,-0.00013,0.00035,0.0002,4e-05,-1e-05,1,30
3215,-5e-05,-8e-05,-0.0001,-0.00013,0.00035,0.0002,4e-05,-1e-05,1,30
3216,-5e-05,-8e-05,-0.0001,-0.00013,0.00035,0.0002,4e-05,-1e-05,1,30
3217,-3e-05,-1e-05,-1e-05,1e-05,5e-05,-2e-05,0,0,1,30
3218,-3e-05,-1e-05,-1e-05,1e-05,5e-05,-2e-05,0,0,1,30
3219,-3e-05,-1e-05,-1e-05,1e-05,5e-05,-2e-05,0,0,1,30
3220,-3e-05,-1e-05,-1e-05,1e-05,5e-05,-2e-05,0,0,1,30
3221,-3e-05,-1e-05,-1e-05,1e-05,5e-05,-2e-05,0,0,1,30
3222,-3e-05,-1e-05,-1e-05,1e-05,5e-05,-2e-05,0,0,1,30
3223,-3e-05,-1e-05,-1e-05,1e-05,5e-05,-2e-05,0,0,1,30
3224,-3e-05,-1e-05,-1e-05,1e-05,5e-05,-2e-05,0,0,1,30
3225,-3e-05,-1e-05,-1e-05,1e-05,5e-05,-2e-05,0,0,1,30
3226,-3e-05,-1e-05,-1e-05,1e-05,5e-05,-2e-05,0,0,1,30
3227,-3e-05,-1e-05,-1e-05,1e-05,5e-05,-2e-05,0,0,1,30
3228,-3e-05,-1e-05,-1e-05,1e-05,5e-05,-2e-05,0,0,1,30
3229,-3e-05,-1e-05,-1e-05,1e-05,5e-05,-2e-05,0,0,1,30
3230,-3e-05,-1e-05,-1e-05,1e-05,5e-05,-2e-05,0,0,1,30
3231,-3e-05,-1e-05,-1e-05,1e-05,5e-05,-2e-05,0,0,1,30
3232,-3e-05,-1e-05,-1e-05,1e-05,5e-05,-2e-05,0,0,1,30
3233,-3e-05,-1e-05,-1e-05,1e-05,5e-05,-2e-05,0,0,1,30
3234,0,4e-05,7e-05,0.00011,-2e-05,0.00011,-1e-05,0,1,30
3235,2e-05,-1e-05,1e-05,-0.00025,-0.00018,2e-05,1e-05,1e-05,1,30
3236,2e-05,-1e-05,1e-05,-0.00025,-0.00018,2e-05,1e-05,1e-05,1,30
3238,2e-05,-1e-05,1e-05,-0.00025,-0.00018,2e-05,1e-05,1e-05,1,30
3239,2e-05,-1e-05,1e-05,-0.00025,-0.00018,2e-05,1e-05,1e-05,1,30
3240,2e-05,-1e-05,1e-05,-0.00025,-0.00018,2e-05,1e-05,1e-05,1,30
3241,2e-05,-1e-05,1e-05,-0.00025,-0.00018,2e-05,1e-05,1e-05,1,30
3242,2e-05,-1e-05,1e-05,-0.00025,-0.00018,2e-05,1e-05,1e-05,1,30
3243,2e-05,-1e-05,1e-05,-0.00025,-0.00018,2e-05,1e-05,1e-05,1,30
3244,2e-05,-1e-05,1e-05,-0.00025,-0.00018,2e-05,1e-05,1e-05,1,30
3245,2e-05,-1e-05,1e-05,-0.00025,-0.00018,2e-05,1e-05,1e-05,1,30
3246,2e-05,-1e-05,1e-05,-0.00025,-0.00018,2e-05,1e-05,1e-05,1,30
3247,2e-05,-1e-05,1e-05,-0.00025,-0.00018,2e-05,1e-05,1e-05,1,30
3248,2e-05,-1e-05,1e-05,-0.00025,-0.00018,2e-05,1e-05,1e-05,1,30
3249,2e-05,-1e-05,1e-05,-0.00025,-0.00018,2e-05,1e-05,1e-05,1,30
3250,2e-05,-1e-05,1e-05,-0.00025,-0.00018,2e-05,1e-05,1e-05,1,30
3251,2e-05,-1e-05,1e-05,-0.00025,-0.00018,2e-05,1e-05,1e-05,1,30
3252,2e-05,-1e-05,1e-05,-0.00025,-0.00018,2e-05,1e-05,1e-05,1,30
3253,2e-05,-1e-05,1e-05,-0.00025,-0.00018,2e-05,1e-05,1e-05,1,30
3254,2e-05,-1e-05,1e-05,-0.00025,-0.00018,2e-05,1e-05,1e-05,1,30
3255,2e-05,-1e-05,1e-05,-0.00025,-0.00018,2e-05,1e-05,1e-05,1,30
3256,-4e-05,-5e-05,-7e-05,2e-05,0.00016,-0.00011,-5e-05,-2e-05,1,30
3257,-1e-05,0,2e-05,-0.00011,-5e-05,-7e-05,-2e-05,-2e-05,1,30
3258,2e-05,-1e-05,-1e-05,-5e-05,-0.00022,-5e-05,1e-05,0,1,30
3259,2e-05,-1e-05,-1e-05,-5e-05,-0.00022,-5e-05,1e-05,0,1,30
3260,2e-05,-1e-05,-1e-05,-5e-05,-0.00022,-5e-05,1e-05,0,1,30
3261,2e-05,-1e-05,-1e-05,-5e-05,-0.00022,-5e-05,1e-05,0,1,30
3262,2e-05,-1e-05,-1e-05,-5e-05,-0.00022,-5e-05,1e-05,0,1,30
3263,2e-05,-1e-05,-1e-05,-5e-05,-0.00022,-5e-05,1e-05,0,1,30
3264,2e-05,-1e-05,-1e-05,-5e-05,-0.00022,-5e-05,1e-05,0,1,30
3265,2e-05,-1e-05,-1e-05,-5e-05,-0.00022,-5e-05,1e-05,0,1,30
3266,2e-05,-1e-05,-1e-05,-5e-05,-0.00022,-5e-05,1e-05,0,1,30
3267,2e-05,-1e-05,-1e-05,-5e-05,-0.00022,-5e-05,1e-05,0,1,30
3268,2e-05,-1e-05,-1e-05,-5e-05,-0.00022,-5e-05,1e-05,0,1,30
3269,2e-05,-1e-05,-1e-05,-5e-05,-0.00022,-5e-05,1e-05,0,1,30
3270,2e-05,-1e-05,-1e-05,-5e-05,-0.00022,-5e-05,1e-05,0,1,30
3271,3e-05,-1e-05,0,1e-05,-0.00011,-5e-05,-1e-05,-2e-05,1,30
3272,3e-05,-1e-05,0,1e-05,-0.00011,-5e-05,-1e-05,-2e-05,1,30
3273,3e-05,-1e-05,0,1e-05,-0.00011,-5e-05,-1e-05,-2e-05,1,30
3274,3e-05,-1e-05,0,1e-05,-0.00011,-5e-05,-1e-05,-2e-05,1,30
3275,3e-05,-1e-05,0,1e-05,-0.00011,-5e-05,-1e-05,-2e-05,1,30
3276,3e-05,-1e-05,0,1e-05,-0.00011,-5e-05,-1e-05,-2e-05,1,30
3277,-3e-05,1e-05,3e-05,-3e-05,-0.00014,9e-05,1e-05,-2e-05,1,30
3278,1e-05,-1e-05,-2e-05,3e-05,0.00029,5e-05,-2e-05,-1e-05,1,30
3279,1e-05,-1e-05,-2e-05,3e-05,0.00029,5e-05,-2e-05,-1e-05,1,30
3280,1e-05,-1e-05,-2e-05,3e-05,0.00029,5e-05,-2e-05,-1e-05,1,30
3281,1e-05,-1e-05,-2e-05,3e-05,0.00029,5e-05,-2e-05,-1e-05,1,30
3282,1e-05,-1e-05,-2e-05,3e-05,0.00029,5e-05,-2e-05,-1e-05,1,30
3283,1e-05,-1e-05,-2e-05,3e-05,0.00029,5e-05,-2e-05,-1e-05,1,30
3284,1e-05,-1e-05,-2e-05,3e-05,0.00029,5e-05,-2e-05,-1e-05,1,30
3285,1e-05,-1e-05,-2e-05,3e-05,0.00029,5e-05,-2e-05,-1e-05,1,30
3286,1e-05,-1e-05,-2e-05,3e-05,0.00029,5e-05,-2e-05,-1e-05,1,30
3288,1e-05,-1e-05,-2e-05,3e-05,0.00029,5e-05,-2e-05,-1e-05,1,30
3289,1e-05,-1e-05,-2e-05,3e-05,0.00029,5e-05,-2e-05,-1e-05,1,30
3290,1e-05,-1e-05,-2e-05,3e-05,0.00029,5e-05,-2e-05,-1e-05,1,30
3291,1e-05,-1e-05,-2e-05,3e-05,0.00029,5e-05,-2e-05,-1e-05,1,30
3292,1e-05,-1e-05,-2e-05,3e-05,0.00029,5e-05,-2e-05,-1e-05,1,30
3293,1e-05,-1e-05,-2e-05,3e-05,0.00029,5e-05,-2e-05,-1e-05,1,30
3294,-3e-05,-4e-05,2e-05,-4e-05,-5e-05,0,-2e-05,-3e-05,1,30
3295,-3e-05,-5e-05,-7e-05,-0.0001,-0.00022,-1e-05,-4e-05,-3e-05,1,30
3296,-3e-05,-5e-05,-7e-05,-0.0001,-0.00022,-1e-05,-4e-05,-3e-05,1,30
3297,-3e-05,-5e-05,-7e-05,-0.0001,-0.00022,-1e-05,-4e-05,-3e-05,1,30
3298,-3e-05,-5e-05,-7e-05,-0.0001,-0.00022,-1e-05,-4e-05,-3e-05,1,30
3299,-3e-05,-5e-05,-7e-05,-0.0001,-0.00022,-1e-05,-4e-05,-3e-05,1,30
3301,-3e-05,-5e-05,-7e-05,-0.0001,-0.00022,-1e-05,-4e-05,-3e-05,1,30
3302,-3e-05,-5e-05,-7e-05,-0.0001,-0.00022,-1e-05,-4e-05,-3e-05,1,30
3303,-3e-05,-5e-05,-7e-05,-0.0001,-0.00022,-1e-05,-4e-05,-3e-05,1,30
3304,-3e-05,-5e-05,-7e-05,-0.0001,-0.00022,-1e-05,-4e-05,-3e-05,1,30
3305,-3e-05,-5e-05,-7e-05,-0.0001,-0.00022,-1e-05,-4e-05,-3e-05,1,30
3306,-3e-05,-5e-05,-7e-05,-0.0001,-0.00022,-1e-05,-4e-05,-3e-05,1,30
3307,-3e-05,-5e-05,-7e-05,-0.0001,-0.00022,-1e-05,-4e-05,-3e-05,1,30
3308,-3e-05,-5e-05,-7e-05,-0.0001,-0.00022,-1e-05,-4e-05,-3e-05,1,30
3309,-3e-05,-5e-05,-7e-05,-0.0001,-0.00022,-1e-05,-4e-05,-3e-05,1,30
3310,-3e-05,-5e-05,-7e-05,-0.0001,-0.00022,-1e-05,-4e-05,-3e-05,1,30
3311,-3e-05,-5e-05,-7e-05,-0.0001,-0.00022,-1e-05,-4e-05,-3e-05,1,30
3312,-3e-05,-5e-05,-7e-05,-0.0001,-0.00022,-1e-05,-4e-05,-3e-05,1,30
3313,-3e-05,-5e-05,-7e-05,-0.0001,-0.00022,-1e-05,-4e-05,-3e-05,1,30
3314,-3e-05,-5e-05,-7e-05,-0.0001,-0.00022,-1e-05,-4e-05,-3e-05,1,30
3315,-3e-05,-5e-05,-7e-05,-0.0001,-0.00022,-1e-05,-4e-05,-3e-05,1,30
3316,-2e-05,3e-05,3e-05,3e-05,2e-05,-2e-05,-2e-05,1e-05,1,30
3317,-2e-05,3e-05,3e-05,3e-05,2e-05,-2e-05,-2e-05,1e-05,1,30
3318,-3e-05,4e-05,-7e-05,2e-05,3e-05,0,0,0,1,30
3319,-3e-05,4e-05,-7e-05,2e-05,3e-05,0,0,0,1,30
3320,-3e-05,4e-05,-7e-05,2e-05,3e-05,0,0,0,1,30
3321,-3e-05,4e-05,-7e-05,2e-05,3e-05,0,0,0,1,30
3322,-3e-05,4e-05,-7e-05,2e-05,3e-05,0,0,0,1,30
3323,-3e-05,4e-05,-7e-05,2e-05,3e-05,0,0,0,1,30
3324,-3e-05,4e-05,-7e-05,2e-05,3e-05,0,0,0,1,30
3325,-3e-05,4e-05,-7e-05,2e-05,3e-05,0,0,0,1,30
3326,-3e-05,4e-05,-7e-05,2e-05,3e-05,0,0,0,1,30
3327,-3e-05,4e-05,-7e-05,2e-05,3e-05,0,0,0,1,30
3328,-3e-05,4e-05,-7e-05,2e-05,3e-05,0,0,0,1,30
3329,-3e-05,4e-05,-7e-05,2e-05,3e-05,0,0,0,1,30
3330,-3e-05,4e-05,-7e-05,2e-05,3e-05,0,0,0,1,30
3331,-1e-05,-1e-05,-5e-05,-2e-05,2e-05,-1e-05,-3e-05,0,1,30
3332,-1e-05,-1e-05,-5e-05,-2e-05,2e-05,-1e-05,-3e-05,0,1,30
3333,-1e-05,-1e-05,-5e-05,-2e-05,2e-05,-1e-05,-3e-05,0,1,30
3334,-1e-05,-1e-05,-5e-05,-2e-05,2e-05,-1e-05,-3e-05,0,1,30
3335,-1e-05,-1e-05,-5e-05,-2e-05,2e-05,-1e-05,-3e-05,0,1,30
3336,-1e-05,-1e-05,-5e-05,-2e-05,2e-05,-1e-05,-3e-05,0,1,30
3338,0,2e-05,3e-05,4e-05,-0.00013,4e-05,1e-05,1e-05,1,30
3339,0,2e-05,3e-05,4e-05,-0.00013,4e-05,1e-05,1e-05,1,30
3340,0,2e-05,3e-05,4e-05,-0.00013,4e-05,1e-05,1e-05,1,30
3341,0,2e-05,3e-05,4e-05,-0.00013,4e-05,1e-05,1e-05,1,30
3342,0,2e-05,3e-05,4e-05,-0.00013,4e-05,1e-05,1e-05,1,30
3343,0,2e-05,3e-05,4e-05,-0.00013,4e-05,1e-05,1e-05,1,30
3344,0,2e-05,3e-05,4e-05,-0.00013,4e-05,1e-05,1e-05,1,30
3345,0,2e-05,3e-05,4e-05,-0.00013,4e-05,1e-05,1e-05,1,30
3346,0,2e-05,3e-05,4e-05,-0.00013,4e-05,1e-05,1e-05,1,30
3347,0,2e-05,3e-05,4e-05,-0.00013,4e-05,1e-05,1e-05,1,30
3348,0,2e-05,3e-05,4e-05,-0.00013,4e-05,1e-05,1e-05,1,30
3349,0,2e-05,3e-05,4e-05,-0.00013,4e-05,1e-05,1e-05,1,30
3350,0,2e-05,3e-05,4e-05,-0.00013,4e-05,1e-05,1e-05,1,30
3351,0,2e-05,3e-05,4e-05,-0.00013,4e-05,1e-05,1e-05,1,30
3352,0,2e-05,3e-05,4e-05,-0.00013,4e-05,1e-05,1e-05,1,30
3353,0,2e-05,3e-05,4e-05,-0.00013,4e-05,1e-05,1e-05,1,30
3354,-2e-05,-2e-05,0,5e-05,0,-2e-05,1e-05,1e-05,1,30
3355,-1e-05,-5e-05,0,0.00011,5e-05,-0.0001,-3e-05,-3e-05,1,30
3356,-1e-05,-5e-05,0,0.00011,5e-05,-0.0001,-3e-05,-3e-05,1,30
3357,-1e-05,-5e-05,0,0.00011,5e-05,-0.0001,-3e-05,-3e-05,1,30
3358,-1e-05,-5e-05,0,0.00011,5e-05,-0.0001,-3e-05,-3e-05,1,30
3359,-1e-05,-5e-05,0,0.00011,5e-05,-0.0001,-3e-05,-3e-05,1,30
3360,-1e-05,-5e-05,0,0.00011,5e-05,-0.0001,-3e-05,-3e-05,1,30
3361,-1e-05,-5e-05,0,0.00011,5e-05,-0.0001,-3e-05,-3e-05,1,30
3362,-1e-05,-5e-05,0,0.00011,5e-05,-0.0001,-3e-05,-3e-05,1,30
3363,-1e-05,-5e-05,0,0.00011,5e-05,-0.0001,-3e-05,-3e-05,1,30
3364,-1e-05,-5e-05,0,0.00011,5e-05,-0.0001,-3e-05,-3e-05,1,30
3365,-1e-05,-5e-05,0,0.00011,5e-05,-0.0001,-3e-05,-3e-05,1,30
3366,-1e-05,-5e-05,0,0.00011,5e-05,-0.0001,-3e-05,-3e-05,1,30
3367,-1e-05,-5e-05,0,0.00011,5e-05,-0.0001,-3e-05,-3e-05,1,30
3368,-1e-05,-5e-05,0,0.00011,5e-05,-0.0001,-3e-05,-3e-05,1,30
3369,-1e-05,-5e-05,0,0.00011,5e-05,-0.0001,-3e-05,-3e-05,1,30
3370,-1e-05,-5e-05,0,0.00011,5e-05,-0.0001,-3e-05,-3e-05,1,30
3371,-1e-05,-5e-05,0,0.00011,5e-05,-0.0001,-3e-05,-3e-05,1,30
3372,-1e-05,-5e-05,0,0.00011,5e-05,-0.0001,-3e-05,-3e-05,1,30
3373,-1e-05,-5e-05,0,0.00011,5e-05,-0.0001,-3e-05,-3e-05,1,30
3374,-1e-05,-5e-05,0,0.00011,5e-05,-0.0001,-3e-05,-3e-05,1,30
3375,-1e-05,-5e-05,0,0.00011,5e-05,-0.0001,-3e-05,-3e-05,1,30
3376,-4e-05,1e-05,6e-05,0.0001,0.00031,-1e-05,-4e-05,-2e-05,1,30
3377,-4e-05,1e-05,6e-05,0.0001,0.00031,-1e-05,-4e-05,-2e-05,1,30
3378,2e-05,-3e-05,-9e-05,-0.00015,-0.00011,9e-05,-3e-05,1e-05,1,30
3379,2e-05,-3e-05,-9e-05,-0.00015,-0.00011,9e-05,-3e-05,1e-05,1,30
3380,2e-05,-3e-05,-9e-05,-0.00015,-0.00011,9e-05,-3e-05,1e-05,1,30
3381,2e-05,-3e-05,-9e-05,-0.00015,-0.00011,9e-05,-3e-05,1e-05,1,30
3382,2e-05,-3e-05,-9e-05,-0.00015,-0.00011,9e-05,-3e-05,1e-05,1,30
3383,2e-05,-3e-05,-9e-05,-0.00015,-0.00011,9e-05,-3e-05,1e-05,1,30
3384,2e-05,-3e-05,-9e-05,-0.00015,-0.00011,9e-05,-3e-05,1e-05,1,30
3385,2e-05,-3e-05,-9e-05,-0.00015,-0.00011,9e-05,-3e-05,1e-05,1,30
3386,2e-05,-3e-05,-9e-05,-0.00015,-0.00011,9e-05,-3e-05,1e-05,1,30
3388,2e-05,-3e-05,-9e-05,-0.00015,-0.00011,9e-05,-3e-05,1e-05,1,30
3389,2e-05,-3e-05,-9e-05,-0.00015,-0.00011,9e-05,-3e-05,1e-05,1,30
3390,2e-05,-3e-05,-9e-05,-0.00015,-0.00011,9e-05,-3e-05,1e-05,1,30
3391,-1e-05,-2e-05,-6e-05,-3e-05,-0.00011,-0.00012,-4e-05,-8e-05,1,30
3392,-1e-05,-2e-05,-6e-05,-3e-05,-0.00011,-0.00012,-4e-05,-8e-05,1,30
3393,-1e-05,-2e-05,-6e-05,-3e-05,-0.00011,-0.00012,-4e-05,-8e-05,1,30
3394,-1e-05,-2e-05,-6e-05,-3e-05,-0.00011,-0.00012,-4e-05,-8e-05,1,30
3395,-1e-05,-2e-05,-6e-05,-3e-05,-0.00011,-0.00012,-4e-05,-8e-05,1,30
3396,-1e-05,-2e-05,-6e-05,-3e-05,-0.00011,-0.00012,-4e-05,-8e-05,1,30
3397,2e-05,-1e-05,5e-05,3e-05,-0.0001,-5e-05,0,-2e-05,1,30
3398,2e-05,-1e-05,5e-05,3e-05,-0.0001,-5e-05,0,-2e-05,1,30
3399,2e-05,-1e-05,5e-05,3e-05,-0.0001,-5e-05,0,-2e-05,1,30
3400,2e-05,-1e-05,5e-05,3e-05,-0.0001,-5e-05,0,-2e-05,1,30
3401,2e-05,-1e-05,5e-05,3e-05,-0.0001,-5e-05,0,-2e-05,1,30
3402,2e-05,-1e-05,5e-05,3e-05,-0.0001,-5e-05,0,-2e-05,1,30
3403,2e-05,-1e-05,5e-05,3e-05,-0.0001,-5e-05,0,-2e-05,1,30
3404,2e-05,-1e-05,5e-05,3e-05,-0.0001,-5e-05,0,-2e-05,1,30
3405,2e-05,-1e-05,5e-05,3e-05,-0.0001,-5e-05,0,-2e-05,1,30
3406,2e-05,-1e-05,5e-05,3e-05,-0.0001,-5e-05,0,-2e-05,1,30
3407,2e-05,-1e-05,5e-05,3e-05,-0.0001,-5e-05,0,-2e-05,1,30
3408,2e-05,-1e-05,5e-05,3e-05,-0.0001,-5e-05,0,-2e-05,1,30
3409,2e-05,-1e-05,5e-05,3e-05,-0.0001,-5e-05,0,-2e-05,1,30
3410,2e-05,-1e-05,5e-05,3e-05,-0.0001,-5e-05,0,-2e-05,1,30
3411,2e-05,-1e-05,5e-05,3e-05,-0.0001,-5e-05,0,-2e-05,1,30
3412,2e-05,-1e-05,5e-05,3e-05,-0.0001,-5e-05,0,-2e-05,1,30
3413,2e-05,-1e-05,5e-05,3e-05,-0.0001,-5e-05,0,-2e-05,1,30
3414,1e-05,-2e-05,-4e-05,-8e-05,-0.00018,-1e-05,-1e-05,2e-05,1,30
3415,-5e-05,-2e-05,-4e-05,-4e-05,0.00011,-2e-05,-4e-05,-3e-05,1,30
3416,-5e-05,-2e-05,-4e-05,-4e-05,0.00011,-2e-05,-4e-05,-3e-05,1,30
3417,-5e-05,-2e-05,-4e-05,-4e-05,0.00011,-2e-05,-4e-05,-3e-05,1,30
3418,-5e-05,-2e-05,-4e-05,-4e-05,0.00011,-2e-05,-4e-05,-3e-05,1,30
3419,-5e-05,-2e-05,-4e-05,-4e-05,0.00011,-2e-05,-4e-05,-3e-05,1,30
3420,-5e-05,-2e-05,-4e-05,-4e-05,0.00011,-2e-05,-4e-05,-3e-05,1,30
3421,-5e-05,-2e-05,-4e-05,-4e-05,0.00011,-2e-05,-4e-05,-3e-05,1,30
3422,-5e-05,-2e-05,-4e-05,-4e-05,0.00011,-2e-05,-4e-05,-3e-05,1,30
3423,-5e-05,-2e-05,-4e-05,-4e-05,0.00011,-2e-05,-4e-05,-3e-05,1,30
3424,-5e-05,-2e-05,-4e-05,-4e-05,0.00011,-2e-05,-4e-05,-3e-05,1,30
3425,-5e-05,-2e-05,-4e-05,-4e-05,0.00011,-2e-05,-4e-05,-3e-05,1,30
3426,-5e-05,-2e-05,-4e-05,-4e-05,0.00011,-2e-05,-4e-05,-3e-05,1,30
3427,-5e-05,-2e-05,-4e-05,-4e-05,0.00011,-2e-05,-4e-05,-3e-05,1,30
3428,-5e-05,-2e-05,-4e-05,-4e-05,0.00011,-2e-05,-4e-05,-3e-05,1,30
3429,-5e-05,-2e-05,-4e-05,-4e-05,0.00011,-2e-05,-4e-05,-3e-05,1,30
3430,-5e-05,-2e-05,-4e-05,-4e-05,0.00011,-2e-05,-4e-05,-3e-05,1,30
3431,-5e-05,-2e-05,-4e-05,-4e-05,0.00011,-2e-05,-4e-05,-3e-05,1,30
3432,-5e-05,-2e-05,-4e-05,-4e-05,0.00011,-2e-05,-4e-05,-3e-05,1,30
3433,-5e-05,-2e-05,-4e-05,-4e-05,0.00011,-2e-05,-4e-05,-3e-05,1,30
3434,-5e-05,-2e-05,-4e-05,-4e-05,0.00011,-2e-05,-4e-05,-3e-05,1,30
3435,-5e-05,-2e-05,-4e-05,-4e-05,0.00011,-2e-05,-4e-05,-3e-05,1,30
3436,0,-4e-05,1e-05,-8e-05,-0.00019,-6e-05,-1e-05,0,1,30
3438,0,-1e-05,-6e-05,-0.00012,5e-05,-6e-05,0,-1e-05,1,30
3439,0,-1e-05,-6e-05,-0.00012,5e-05,-6e-05,0,-1e-05,1,30
3440,0,-1e-05,-6e-05,-0.00012,5e-05,-6e-05,0,-1e-05,1,30
3442,0,-1e-05,-6e-05,-0.00012,5e-05,-6e-05,0,-1e-05,1,30
3443,0,-1e-05,-6e-05,-0.00012,5e-05,-6e-05,0,-1e-05,1,30
3444,0,-1e-05,-6e-05,-0.00012,5e-05,-6e-05,0,-1e-05,1,30
3445,0,-1e-05,-6e-05,-0.00012,5e-05,-6e-05,0,-1e-05,1,30
3446,0,-1e-05,-6e-05,-0.00012,5e-05,-6e-05,0,-1e-05,1,30
3447,0,-1e-05,-6e-05,-0.00012,5e-05,-6e-05,0,-1e-05,1,30
3448,0,-1e-05,-6e-05,-0.00012,5e-05,-6e-05,0,-1e-05,1,30
3449,0,-1e-05,-6e-05,-0.00012,5e-05,-6e-05,0,-1e-05,1,30
3450,0,-1e-05,-2e-05,-0.00012,-0.00034,-1e-05,0,-1e-05,1,30
3451,0,-1e-05,-2e-05,-0.00012,-0.00034,-1e-05,0,-1e-05,1,30
3452,0,-1e-05,-2e-05,-0.00012,-0.00034,-1e-05,0,-1e-05,1,30
3453,0,-1e-05,-2e-05,-0.00012,-0.00034,-1e-05,0,-1e-05,1,30
3454,0,-1e-05,-2e-05,-0.00012,-0.00034,-1e-05,0,-1e-05,1,30
3455,0,-1e-05,-2e-05,-0.00012,-0.00034,-1e-05,0,-1e-05,1,30
3456,0,-1e-05,-2e-05,-0.00012,-0.00034,-1e-05,0,-1e-05,1,30
3457,0,-1e-05,-2e-05,-0.00012,-0.00034,-1e-05,0,-1e-05,1,30
3458,0,-1e-05,-2e-05,-0.00012,-0.00034,-1e-05,0,-1e-05,1,30
3459,-1e-05,-4e-05,-2e-05,-2e-05,-9e-05,5e-05,0,-1e-05,1,30
3460,-1e-05,-4e-05,-2e-05,-2e-05,-9e-05,5e-05,0,-1e-05,1,30
3461,-1e-05,-4e-05,-2e-05,-2e-05,-9e-05,5e-05,0,-1e-05,1,30
3462,-1e-05,-4e-05,-2e-05,-2e-05,-9e-05,5e-05,0,-1e-05,1,30
3463,-1e-05,-4e-05,-2e-05,-2e-05,-9e-05,5e-05,0,-1e-05,1,30
3464,-1e-05,-4e-05,-2e-05,-2e-05,-9e-05,5e-05,0,-1e-05,1,30
3465,-1e-05,-4e-05,-2e-05,-2e-05,-9e-05,5e-05,0,-1e-05,1,30
3466,-1e-05,-4e-05,-2e-05,-2e-05,-9e-05,5e-05,0,-1e-05,1,30
3467,-1e-05,-4e-05,-2e-05,-2e-05,-9e-05,5e-05,0,-1e-05,1,30
3468,-1e-05,-4e-05,-2e-05,-2e-05,-9e-05,5e-05,0,-1e-05,1,30
3469,-1e-05,-4e-05,-2e-05,-2e-05,-9e-05,5e-05,0,-1e-05,1,30
3470,-1e-05,-4e-05,-2e-05,-2e-05,-9e-05,5e-05,0,-1e-05,1,30
3471,-1e-05,-4e-05,-2e-05,-2e-05,-9e-05,5e-05,0,-1e-05,1,30
3472,-1e-05,-4e-05,-2e-05,-2e-05,-9e-05,5e-05,0,-1e-05,1,30
3473,-1e-05,-4e-05,-2e-05,-2e-05,-9e-05,5e-05,0,-1e-05,1,30
3474,-2e-05,-1e-05,-1e-05,4e-05,0.00021,-2e-05,2e-05,-1e-05,1,30
3475,-2e-05,-1e-05,-1e-05,4e-05,0.00021,-2e-05,2e-05,-1e-05,1,30
3476,-2e-05,1e-05,0.0001,0.00018,-5e-05,3e-05,1e-05,-7e-05,1,30
3477,-2e-05,1e-05,0.0001,0.00018,-5e-05,3e-05,1e-05,-7e-05,1,30
3478,-2e-05,1e-05,0.0001,0.00018,-5e-05,3e-05,1e-05,-7e-05,1,30
3479,-2e-05,1e-05,0.0001,0.00018,-5e-05,3e-05,1e-05,-7e-05,1,30
3480,-2e-05,1e-05,0.0001,0.00018,-5e-05,3e-05,1e-05,-7e-05,1,30
3481,-2e-05,1e-05,0.0001,0.00018,-5e-05,3e-05,1e-05,-7e-05,1,30
3482,-2e-05,1e-05,0.0001,0.00018,-5e-05,3e-05,1e-05,-7e-05,1,30
3483,-2e-05,1e-05,0.0001,0.00018,-5e-05,3e-05,1e-05,-7e-05,1,30
3484,-2e-05,1e-05,0.0001,0.00018,-5e-05,3e-05,1e-05,-7e-05,1,30
3485,-2e-05,1e-05,0.0001,0.00018,-5e-05,3e-05,1e-05,-7e-05,1,30
3486,-2e-05,1e-05,0.0001,0.00018,-5e-05,3e-05,1e-05,-7e-05,1,30
3489,-2e-05,1e-05,0.0001,0.00018,-5e-05,3e-05,1e-05,-7e-05,1,30
3490,-2e-05,1e-05,0.0001,0.00018,-5e-05,3e-05,1e-05,-7e-05,1,30
3491,-2e-05,1e-05,0.0001,0.00018,-5e-05,3e-05,1e-05,-7e-05,1,30
3492,-2e-05,1e-05,0.0001,0.00018,-5e-05,3e-05,1e-05,-7e-05,1,30
3493,-2e-05,1e-05,0.0001,0.00018,-5e-05,3e-05,1e-05,-7e-05,1,30
3494,-2e-05,1e-05,0.0001,0.00018,-5e-05,3e-05,1e-05,-7e-05,1,30
3495,-2e-05,1e-05,0.0001,0.00018,-5e-05,3e-05,1e-05,-7e-05,1,30
3496,-3e-05,-1e-05,3e-05,2e-05,-6e-05,0,-2e-05,0,1,30
3497,-3e-05,-1e-05,3e-05,2e-05,-6e-05,0,-2e-05,0,1,30
3498,-3e-05,-1e-05,3e-05,2e-05,-6e-05,0,-2e-05,0,1,30
3499,-3e-05,-1e-05,3e-05,2e-05,-6e-05,0,-2e-05,0,1,30
3500,-3e-05,-1e-05,3e-05,2e-05,-6e-05,0,-2e-05,0,1,30
3501,-3e-05,-1e-05,3e-05,2e-05,-6e-05,0,-2e-05,0,1,30
3502,-3e-05,-1e-05,3e-05,2e-05,-6e-05,0,-2e-05,0,1,30
3503,-3e-05,-1e-05,3e-05,2e-05,-6e-05,0,-2e-05,0,1,30
3504,-2e-05,-2e-05,-8e-05,-1e-05,0.00019,-0.00015,3e-05,-1e-05,1,30
3505,-2e-05,-2e-05,-8e-05,-1e-05,0.00019,-0.00015,3e-05,-1e-05,1,30
3506,-2e-05,-2e-05,-8e-05,-1e-05,0.00019,-0.00015,3e-05,-1e-05,1,30
3507,-2e-05,-2e-05,-8e-05,-1e-05,0.00019,-0.00015,3e-05,-1e-05,1,30
3508,-2e-05,-2e-05,-8e-05,-1e-05,0.00019,-0.00015,3e-05,-1e-05,1,30
3509,-2e-05,-2e-05,-8e-05,-1e-05,0.00019,-0.00015,3e-05,-1e-05,1,30
3510,0,1e-05,0,-7e-05,-5e-05,-5e-05,0,2e-05,1,30
3511,0,1e-05,0,-7e-05,-5e-05,-5e-05,0,2e-05,1,30
3512,0,1e-05,0,-7e-05,-5e-05,-5e-05,0,2e-05,1,30
3513,0,1e-05,0,-7e-05,-5e-05,-5e-05,0,2e-05,1,30
3514,0,1e-05,0,-7e-05,-5e-05,-5e-05,0,2e-05,1,30
3515,0,1e-05,0,-7e-05,-5e-05,-5e-05,0,2e-05,1,30
3516,0,1e-05,0,-7e-05,-5e-05,-5e-05,0,2e-05,1,30
3517,0,1e-05,0,-7e-05,-5e-05,-5e-05,0,2e-05,1,30
3518,0,1e-05,0,-7e-05,-5e-05,-5e-05,0,2e-05,1,30
3519,-1e-05,0,4e-05,2e-05,-0.00011,1e-05,-1e-05,0,1,30
3520,-1e-05,0,4e-05,2e-05,-0.00011,1e-05,-1e-05,0,1,30
3521,-1e-05,0,4e-05,2e-05,-0.00011,1e-05,-1e-05,0,1,30
3522,-1e-05,0,4e-05,2e-05,-0.00011,1e-05,-1e-05,0,1,30
3523,-1e-05,0,4e-05,2e-05,-0.00011,1e-05,-1e-05,0,1,30
3524,-1e-05,0,4e-05,2e-05,-0.00011,1e-05,-1e-05,0,1,30
3525,-1e-05,0,4e-05,2e-05,-0.00011,1e-05,-1e-05,0,1,30
3526,-1e-05,0,4e-05,2e-05,-0.00011,1e-05,-1e-05,0,1,30
3527,-1e-05,0,4e-05,2e-05,-0.00011,1e-05,-1e-05,0,1,30
3528,-1e-05,0,4e-05,2e-05,-0.00011,1e-05,-1e-05,0,1,30
3529,-1e-05,0,4e-05,2e-05,-0.00011,1e-05,-1e-05,0,1,30
3530,-1e-05,0,4e-05,2e-05,-0.00011,1e-05,-1e-05,0,1,30
3531,-1e-05,0,4e-05,2e-05,-0.00011,1e-05,-1e-05,0,1,30
3532,-1e-05,0,4e-05,2e-05,-0.00011,1e-05,-1e-05,0,1,30
3533,-1e-05,0,4e-05,2e-05,-0.00011,1e-05,-1e-05,0,1,30
3534,-3e-05,-2e-05,-7e-05,-6e-05,2e-05,1e-05,-1e-05,0,1,30
3535,0,1e-05,8e-05,-2e-05,-0.00021,-3e-05,-2e-05,2e-05,1,30
3536,0,1e-05,8e-05,-2e-05,-0.00021,-3e-05,-2e-05,2e-05,1,30
3538,0,1e-05,8e-05,-2e-05,-0.00021,-3e-05,-2e-05,2e-05,1,30
3539,0,1e-05,8e-05,-2e-05,-0.00021,-3e-05,-2e-05,2e-05,1,30
3540,0,1e-05,8e-05,-2e-05,-0.00021,-3e-05,-2e-05,2e-05,1,30
3541,0,1e-05,8e-05,-2e-05,-0.00021,-3e-05,-2e-05,2e-05,1,30
3542,0,1e-05,8e-05,-2e-05,-0.00021,-3e-05,-2e-05,2e-05,1,30
3543,0,1e-05,8e-05,-2e-05,-0.00021,-3e-05,-2e-05,2e-05,1,30
3544,0,1e-05,8e-05,-2e-05,-0.00021,-3e-05,-2e-05,2e-05,1,30
3545,0,1e-05,8e-05,-2e-05,-0.00021,-3e-05,-2e-05,2e-05,1,30
3546,0,1e-05,8e-05,-2e-05,-0.00021,-3e-05,-2e-05,2e-05,1,30
3547,0,1e-05,8e-05,-2e-05,-0.00021,-3e-05,-2e-05,2e-05,1,30
3548,0,1e-05,8e-05,-2e-05,-0.00021,-3e-05,-2e-05,2e-05,1,30
3549,0,1e-05,8e-05,-2e-05,-0.00021,-3e-05,-2e-05,2e-05,1,30
3550,0,1e-05,8e-05,-2e-05,-0.00021,-3e-05,-2e-05,2e-05,1,30
3551,0,1e-05,8e-05,-2e-05,-0.00021,-3e-05,-2e-05,2e-05,1,30
3552,0,1e-05,8e-05,-2e-05,-0.00021,-3e-05,-2e-05,2e-05,1,30
3553,0,1e-05,8e-05,-2e-05,-0.00021,-3e-05,-2e-05,2e-05,1,30
3554,0,1e-05,8e-05,-2e-05,-0.00021,-3e-05,-2e-05,2e-05,1,30
3555,0,1e-05,8e-05,-2e-05,-0.00021,-3e-05,-2e-05,2e-05,1,30
3556,1e-05,1e-05,2e-05,0.00017,0.00014,2e-05,1e-05,5e-05,1,30
3557,1e-05,1e-05,2e-05,0.00017,0.00014,2e-05,1e-05,5e-05,1,30
3558,1e-05,-3e-05,-1e-05,-3e-05,0.00017,4e-05,2e-05,-2e-05,1,30
3559,1e-05,-3e-05,-1e-05,-3e-05,0.00017,4e-05,2e-05,-2e-05,1,30
3560,1e-05,-3e-05,-1e-05,-3e-05,0.00017,4e-05,2e-05,-2e-05,1,30
3561,1e-05,-3e-05,-1e-05,-3e-05,0.00017,4e-05,2e-05,-2e-05,1,30
3562,1e-05,-3e-05,-1e-05,-3e-05,0.00017,4e-05,2e-05,-2e-05,1,30
3563,1e-05,-3e-05,-1e-05,-3e-05,0.00017,4e-05,2e-05,-2e-05,1,30
3564,1e-05,-3e-05,-1e-05,-3e-05,0.00017,4e-05,2e-05,-2e-05,1,30
3565,1e-05,-3e-05,-1e-05,-3e-05,0.00017,4e-05,2e-05,-2e-05,1,30
3566,1e-05,-3e-05,-1e-05,-3e-05,0.00017,4e-05,2e-05,-2e-05,1,30
3567,1e-05,-3e-05,-1e-05,-3e-05,0.00017,4e-05,2e-05,-2e-05,1,30
3568,1e-05,-3e-05,-1e-05,-3e-05,0.00017,4e-05,2e-05,-2e-05,1,30
3569,1e-05,-3e-05,-1e-05,-3e-05,0.00017,4e-05,2e-05,-2e-05,1,30
3570,1e-05,-3e-05,-6e-05,-0.00011,-3e-05,6e-05,1e-05,2e-05,1,30
3571,1e-05,-3e-05,-6e-05,-0.00011,-3e-05,6e-05,1e-05,2e-05,1,30
3572,1e-05,-3e-05,-6e-05,-0.00011,-3e-05,6e-05,1e-05,2e-05,1,30
3573,1e-05,-3e-05,-6e-05,-0.00011,-3e-05,6e-05,1e-05,2e-05,1,30
3574,1e-05,-3e-05,-6e-05,-0.00011,-3e-05,6e-05,1e-05,2e-05,1,30
3575,1e-05,-3e-05,-6e-05,-0.00011,-3e-05,6e-05,1e-05,2e-05,1,30
3576,1e-05,-3e-05,-6e-05,-0.00011,-3e-05,6e-05,1e-05,2e-05,1,30
3577,1e-05,-3e-05,-6e-05,-0.00011,-3e-05,6e-05,1e-05,2e-05,1,30
3578,1e-05,-3e-05,-6e-05,-0.00011,-3e-05,6e-05,1e-05,2e-05,1,30
3579,-2e-05,-4e-05,0,5e-05,-4e-05,0,-1e-05,0,1,30
3580,-2e-05,-4e-05,0,5e-05,-4e-05,0,-1e-05,0,1,30
3581,-2e-05,-4e-05,0,5e-05,-4e-05,0,-1e-05,0,1,30
3582,-2e-05,-4e-05,0,5e-05,-4e-05,0,-1e-05,0,1,30
3583,-2e-05,-4e-05,0,5e-05,-4e-05,0,-1e-05,0,1,30
3584,-2e-05,-4e-05,0,5e-05,-4e-05,0,-1e-05,0,1,30
3585,-2e-05,-4e-05,0,5e-05,-4e-05,0,-1e-05,0,1,30
3586,-2e-05,-4e-05,0,5e-05,-4e-05,0,-1e-05,0,1,30
3588,-2e-05,-4e-05,0,5e-05,-4e-05,0,-1e-05,0,1,30
3589,-2e-05,-4e-05,0,5e-05,-4e-05,0,-1e-05,0,1,30
3590,-2e-05,-4e-05,0,5e-05,-4e-05,0,-1e-05,0,1,30
3591,-2e-05,-4e-05,0,5e-05,-4e-05,0,-1e-05,0,1,30
3592,-2e-05,-4e-05,0,5e-05,-4e-05,0,-1e-05,0,1,30
3593,-2e-05,-4e-05,0,5e-05,-4e-05,0,-1e-05,0,1,30
3594,1e-05,2e-05,4e-05,0.00017,0.00046,8e-05,-2e-05,-2e-05,1,30
3595,2e-05,-1e-05,-2e-05,-0.00016,-0.00013,-7e-05,-4e-05,-2e-05,1,30
3596,2e-05,-1e-05,-2e-05,-0.00016,-0.00013,-7e-05,-4e-05,-2e-05,1,30
3597,2e-05,-1e-05,-2e-05,-0.00016,-0.00013,-7e-05,-4e-05,-2e-05,1,30
3598,2e-05,-1e-05,-2e-05,-0.00016,-0.00013,-7e-05,-4e-05,-2e-05,1,30
3599,2e-05,-1e-05,-2e-05,-0.00016,-0.00013,-7e-05,-4e-05,-2e-05,1,30
3600,2e-05,-1e-05,-2e-05,-0.00016,-0.00013,-7e-05,-4e-05,-2e-05,1,30
3601,2e-05,-1e-05,-2e-05,-0.00016,-0.00013,-7e-05,-4e-05,-2e-05,1,30
3602,2e-05,-1e-05,-2e-05,-0.00016,-0.00013,-7e-05,-4e-05,-2e-05,1,30
3603,2e-05,-1e-05,-2e-05,-0.00016,-0.00013,-7e-05,-4e-05,-2e-05,1,30
3604,2e-05,-1e-05,-2e-05,-0.00016,-0.00013,-7e-05,-4e-05,-2e-05,1,30
3605,2e-05,-1e-05,-2e-05,-0.00016,-0.00013,-7e-05,-4e-05,-2e-05,1,30
3606,2e-05,-1e-05,-2e-05,-0.00016,-0.00013,-7e-05,-4e-05,-2e-05,1,30
3607,2e-05,-1e-05,-2e-05,-0.00016,-0.00013,-7e-05,-4e-05,-2e-05,1,30
3608,2e-05,-1e-05,-2e-05,-0.00016,-0.00013,-7e-05,-4e-05,-2e-05,1,30
3609,2e-05,-1e-05,-2e-05,-0.00016,-0.00013,-7e-05,-4e-05,-2e-05,1,30
3610,2e-05,-1e-05,-2e-05,-0.00016,-0.00013,-7e-05,-4e-05,-2e-05,1,30
3611,2e-05,-1e-05,-2e-05,-0.00016,-0.00013,-7e-05,-4e-05,-2e-05,1,30
3612,2e-05,-1e-05,-2e-05,-0.00016,-0.00013,-7e-05,-4e-05,-2e-05,1,30
3613,2e-05,-1e-05,-2e-05,-0.00016,-0.00013,-7e-05,-4e-05,-2e-05,1,30
3614,2e-05,-1e-05,-2e-05,-0.00016,-0.00013,-7e-05,-4e-05,-2e-05,1,30
3615,2e-05,-1e-05,-2e-05,-0.00016,-0.00013,-7e-05,-4e-05,-2e-05,1,30
3616,-2e-05,-2e-05,0,-3e-05,-0.00012,-7e-05,-3e-05,-3e-05,1,30
3617,-2e-05,-2e-05,0,-3e-05,-0.00012,-7e-05,-3e-05,-3e-05,1,30
3618,4e-05,-2e-05,-5e-05,9e-05,0.00023,0.00017,2e-05,2e-05,1,30
3619,4e-05,-2e-05,-5e-05,9e-05,0.00023,0.00017,2e-05,2e-05,1,30
3620,4e-05,-2e-05,-5e-05,9e-05,0.00023,0.00017,2e-05,2e-05,1,30
3621,4e-05,-2e-05,-5e-05,9e-05,0.00023,0.00017,2e-05,2e-05,1,30
3622,4e-05,-2e-05,-5e-05,9e-05,0.00023,0.00017,2e-05,2e-05,1,30
3623,4e-05,-2e-05,-5e-05,9e-05,0.00023,0.00017,2e-05,2e-05,1,30
3624,4e-05,-2e-05,-5e-05,9e-05,0.00023,0.00017,2e-05,2e-05,1,30
3625,4e-05,-2e-05,-5e-05,9e-05,0.00023,0.00017,2e-05,2e-05,1,30
3626,4e-05,-2e-05,-5e-05,9e-05,0.00023,0.00017,2e-05,2e-05,1,30
3627,4e-05,-2e-05,-5e-05,9e-05,0.00023,0.00017,2e-05,2e-05,1,30
3628,4e-05,-2e-05,-5e-05,9e-05,0.00023,0.00017,2e-05,2e-05,1,30
3629,4e-05,-2e-05,-5e-05,9e-05,0.00023,0.00017,2e-05,2e-05,1,30
3630,-4e-05,2e-05,-2e-05,-2e-05,-0.0001,-4e-05,2e-05,-3e-05,1,30
3631,-4e-05,2e-05,-2e-05,-2e-05,-0.0001,-4e-05,2e-05,-3e-05,1,30
3632,-4e-05,2e-05,-2e-05,-2e-05,-0.0001,-4e-05,2e-05,-3e-05,1,30
3633,-4e-05,2e-05,-2e-05,-2e-05,-0.0001,-4e-05,2e-05,-3e-05,1,30
3634,-4e-05,2e-05,-2e-05,-2e-05,-0.0001,-4e-05,2e-05,-3e-05,1,30
3635,-4e-05,2e-05,-2e-05,-2e-05,-0.0001,-4e-05,2e-05,-3e-05,1,30
3636,-4e-05,2e-05,-2e-05,-2e-05,-0.0001,-4e-05,2e-05,-3e-05,1,30
3638,-4e-05,2e-05,-2e-05,-2e-05,-0.0001,-4e-05,2e-05,-3e-05,1,30
3639,-5e-05,0,1e-05,0.00015,0.00018,-9e-05,0,-1e-05,1,30
3640,-5e-05,0,1e-05,0.00015,0.00018,-9e-05,0,-1e-05,1,30
3641,-5e-05,0,1e-05,0.00015,0.00018,-9e-05,0,-1e-05,1,30
3642,-5e-05,0,1e-05,0.00015,0.00018,-9e-05,0,-1e-05,1,30
3643,-5e-05,0,1e-05,0.00015,0.00018,-9e-05,0,-1e-05,1,30
3644,-5e-05,0,1e-05,0.00015,0.00018,-9e-05,0,-1e-05,1,30
3645,-5e-05,0,1e-05,0.00015,0.00018,-9e-05,0,-1e-05,1,30
3646,-5e-05,0,1e-05,0.00015,0.00018,-9e-05,0,-1e-05,1,30
3647,-5e-05,0,1e-05,0.00015,0.00018,-9e-05,0,-1e-05,1,30
3648,-5e-05,0,1e-05,0.00015,0.00018,-9e-05,0,-1e-05,1,30
3649,-5e-05,0,1e-05,0.00015,0.00018,-9e-05,0,-1e-05,1,30
3650,-5e-05,0,1e-05,0.00015,0.00018,-9e-05,0,-1e-05,1,30
3651,-5e-05,0,1e-05,0.00015,0.00018,-9e-05,0,-1e-05,1,30
3652,-5e-05,0,1e-05,0.00015,0.00018,-9e-05,0,-1e-05,1,30
3653,-5e-05,0,1e-05,0.00015,0.00018,-9e-05,0,-1e-05,1,30
3654,0,-2e-05,2e-05,-1e-05,-0.00019,-0.0001,-4e-05,-2e-05,1,30
3655,-1e-05,-5e-05,-0.0002,-0.00027,-0.00038,-2e-05,-1e-05,0,1,30
3656,-1e-05,-5e-05,-0.0002,-0.00027,-0.00038,-2e-05,-1e-05,0,1,30
3657,-1e-05,-5e-05,-0.0002,-0.00027,-0.00038,-2e-05,-1e-05,0,1,30
3658,-1e-05,-5e-05,-0.0002,-0.00027,-0.00038,-2e-05,-1e-05,0,1,30
3659,-1e-05,-5e-05,-0.0002,-0.00027,-0.00038,-2e-05,-1e-05,0,1,30
3660,-1e-05,-5e-05,-0.0002,-0.00027,-0.00038,-2e-05,-1e-05,0,1,30
3661,-1e-05,-5e-05,-0.0002,-0.00027,-0.00038,-2e-05,-1e-05,0,1,30
3662,-1e-05,-5e-05,-0.0002,-0.00027,-0.00038,-2e-05,-1e-05,0,1,30
3663,-1e-05,-5e-05,-0.0002,-0.00027,-0.00038,-2e-05,-1e-05,0,1,30
3664,-1e-05,-5e-05,-0.0002,-0.00027,-0.00038,-2e-05,-1e-05,0,1,30
3665,-1e-05,-5e-05,-0.0002,-0.00027,-0.00038,-2e-05,-1e-05,0,1,30
3666,-1e-05,-5e-05,-0.0002,-0.00027,-0.00038,-2e-05,-1e-05,0,1,30
3667,-1e-05,-5e-05,-0.0002,-0.00027,-0.00038,-2e-05,-1e-05,0,1,30
3668,-1e-05,-5e-05,-0.0002,-0.00027,-0.00038,-2e-05,-1e-05,0,1,30
3669,-1e-05,-5e-05,-0.0002,-0.00027,-0.00038,-2e-05,-1e-05,0,1,30
3670,-1e-05,-5e-05,-0.0002,-0.00027,-0.00038,-2e-05,-1e-05,0,1,30
3671,-1e-05,-5e-05,-0.0002,-0.00027,-0.00038,-2e-05,-1e-05,0,1,30
3672,-1e-05,-5e-05,-0.0002,-0.00027,-0.00038,-2e-05,-1e-05,0,1,30
3673,-1e-05,-5e-05,-0.0002,-0.00027,-0.00038,-2e-05,-1e-05,0,1,30
3674,-1e-05,-5e-05,-0.0002,-0.00027,-0.00038,-2e-05,-1e-05,0,1,30
3675,-1e-05,-5e-05,-0.0002,-0.00027,-0.00038,-2e-05,-1e-05,0,1,30
3676,-1e-05,-5e-05,-0.0002,-0.00027,-0.00038,-2e-05,-1e-05,0,1,30
3677,-2e-05,0,4e-05,1e-05,-3e-05,3e-05,1e-05,-1e-05,1,30
3678,-2e-05,0,4e-05,-9e-05,0.00018,-2e-05,1e-05,-3e-05,1,30
3679,-2e-05,0,4e-05,-9e-05,0.00018,-2e-05,1e-05,-3e-05,1,30
3680,-2e-05,0,4e-05,-9e-05,0.00018,-2e-05,1e-05,-3e-05,1,30
3681,-2e-05,0,4e-05,-9e-05,0.00018,-2e-05,1e-05,-3e-05,1,30
3682,-2e-05,0,4e-05,-9e-05,0.00018,-2e-05,1e-05,-3e-05,1,30
3683,-2e-05,0,4e-05,-9e-05,0.00018,-2e-05,1e-05,-3e-05,1,30
3684,-2e-05,0,4e-05,-9e-05,0.00018,-2e-05,1e-05,-3e-05,1,30
3685,-2e-05,0,4e-05,-9e-05,0.00018,-2e-05,1e-05,-3e-05,1,30
3686,-2e-05,0,4e-05,-9e-05,0.00018,-2e-05,1e-05,-3e-05,1,30
3688,-2e-05,0,4e-05,-9e-05,0.00018,-2e-05,1e-05,-3e-05,1,30
3689,-2e-05,0,4e-05,-9e-05,0.00018,-2e-05,1e-05,-3e-05,1,30
3690,1e-05,-1e-05,-6e-05,0.00012,0.00025,2e-05,1e-05,1e-05,1,30
3691,1e-05,-1e-05,-6e-05,0.00012,0.00025,2e-05,1e-05,1e-05,1,30
3692,1e-05,-1e-05,-6e-05,0.00012,0.00025,2e-05,1e-05,1e-05,1,30
3693,1e-05,-1e-05,-6e-05,0.00012,0.00025,2e-05,1e-05,1e-05,1,30
3694,1e-05,-1e-05,-6e-05,0.00012,0.00025,2e-05,1e-05,1e-05,1,30
3695,1e-05,-1e-05,-6e-05,0.00012,0.00025,2e-05,1e-05,1e-05,1,30
3696,1e-05,-1e-05,-6e-05,0.00012,0.00025,2e-05,1e-05,1e-05,1,30
3697,1e-05,-1e-05,-6e-05,0.00012,0.00025,2e-05,1e-05,1e-05,1,30
3698,1e-05,-1e-05,-6e-05,0.00012,0.00025,2e-05,1e-05,1e-05,1,30
3699,-2e-05,3e-05,9e-05,4e-05,0.00016,-4e-05,0,1e-05,1,30
3700,-2e-05,3e-05,9e-05,4e-05,0.00016,-4e-05,0,1e-05,1,30
3701,-2e-05,3e-05,9e-05,4e-05,0.00016,-4e-05,0,1e-05,1,30
3702,-2e-05,3e-05,9e-05,4e-05,0.00016,-4e-05,0,1e-05,1,30
3703,-2e-05,3e-05,9e-05,4e-05,0.00016,-4e-05,0,1e-05,1,30
3704,-2e-05,3e-05,9e-05,4e-05,0.00016,-4e-05,0,1e-05,1,30
3705,-2e-05,3e-05,9e-05,4e-05,0.00016,-4e-05,0,1e-05,1,30
3706,-2e-05,3e-05,9e-05,4e-05,0.00016,-4e-05,0,1e-05,1,30
3707,-2e-05,3e-05,9e-05,4e-05,0.00016,-4e-05,0,1e-05,1,30
3708,-2e-05,3e-05,9e-05,4e-05,0.00016,-4e-05,0,1e-05,1,30
3709,-2e-05,3e-05,9e-05,4e-05,0.00016,-4e-05,0,1e-05,1,30
3710,-2e-05,3e-05,9e-05,4e-05,0.00016,-4e-05,0,1e-05,1,30
3711,-2e-05,3e-05,9e-05,4e-05,0.00016,-4e-05,0,1e-05,1,30
3712,-2e-05,3e-05,9e-05,4e-05,0.00016,-4e-05,0,1e-05,1,30
3713,-2e-05,3e-05,9e-05,4e-05,0.00016,-4e-05,0,1e-05,1,30
3714,-4e-05,-8e-05,-0.0001,-0.0001,0,5e-05,-3e-05,-4e-05,1,30
3715,-3e-05,-1e-05,1e-05,5e-05,-7e-05,2e-05,-3e-05,0,1,30
3716,-3e-05,-1e-05,1e-05,5e-05,-7e-05,2e-05,-3e-05,0,1,30
3717,-3e-05,-1e-05,1e-05,5e-05,-7e-05,2e-05,-3e-05,0,1,30
3718,-3e-05,-1e-05,1e-05,5e-05,-7e-05,2e-05,-3e-05,0,1,30
3719,-3e-05,-1e-05,1e-05,5e-05,-7e-05,2e-05,-3e-05,0,1,30
3720,-3e-05,-1e-05,1e-05,5e-05,-7e-05,2e-05,-3e-05,0,1,30
3721,-3e-05,-1e-05,1e-05,5e-05,-7e-05,2e-05,-3e-05,0,1,30
3722,-3e-05,-1e-05,1e-05,5e-05,-7e-05,2e-05,-3e-05,0,1,30
3723,-3e-05,-1e-05,1e-05,5e-05,-7e-05,2e-05,-3e-05,0,1,30
3724,-3e-05,-1e-05,1e-05,5e-05,-7e-05,2e-05,-3e-05,0,1,30
3725,-3e-05,-1e-05,1e-05,5e-05,-7e-05,2e-05,-3e-05,0,1,30
3726,-3e-05,-1e-05,1e-05,5e-05,-7e-05,2e-05,-3e-05,0,1,30
3727,-3e-05,-1e-05,1e-05,5e-05,-7e-05,2e-05,-3e-05,0,1,30
3728,-3e-05,-1e-05,1e-05,5e-05,-7e-05,2e-05,-3e-05,0,1,30
3729,-3e-05,-1e-05,1e-05,5e-05,-7e-05,2e-05,-3e-05,0,1,30
3730,-3e-05,-1e-05,1e-05,5e-05,-7e-05,2e-05,-3e-05,0,1,30
3731,-3e-05,-1e-05,1e-05,5e-05,-7e-05,2e-05,-3e-05,0,1,30
3732,-3e-05,-1e-05,1e-05,5e-05,-7e-05,2e-05,-3e-05,0,1,30
3733,-3e-05,-1e-05,1e-05,5e-05,-7e-05,2e-05,-3e-05,0,1,30
3734,-3e-05,-1e-05,1e-05,5e-05,-7e-05,2e-05,-3e-05,0,1,30
3735,-3e-05,-1e-05,1e-05,5e-05,-7e-05,2e-05,-3e-05,0,1,30
3736,3e-05,1e-05,4e-05,-3e-05,0.00021,0.00027,-2e-05,-2e-05,1,30
3739,-6e-05,-8e-05,-0.00019,-0.0002,-0.00023,-2e-05,-2e-05,-6e-05,1,30
3740,-6e-05,-8e-05,-0.00019,-0.0002,-0.00023,-2e-05,-2e-05,-6e-05,1,30
3741,-6e-05,-8e-05,-0.00019,-0.0002,-0.00023,-2e-05,-2e-05,-6e-05,1,30
3742,-6e-05,-8e-05,-0.00019,-0.0002,-0.00023,-2e-05,-2e-05,-6e-05,1,30
3743,-6e-05,-8e-05,-0.00019,-0.0002,-0.00023,-2e-05,-2e-05,-6e-05,1,30
3744,-6e-05,-8e-05,-0.00019,-0.0002,-0.00023,-2e-05,-2e-05,-6e-05,1,30
3745,-6e-05,-8e-05,-0.00019,-0.0002,-0.00023,-2e-05,-2e-05,-6e-05,1,30
3746,-6e-05,-8e-05,-0.00019,-0.0002,-0.00023,-2e-05,-2e-05,-6e-05,1,30
3747,-6e-05,-8e-05,-0.00019,-0.0002,-0.00023,-2e-05,-2e-05,-6e-05,1,30
3748,-6e-05,-8e-05,-0.00019,-0.0002,-0.00023,-2e-05,-2e-05,-6e-05,1,30
3749,-6e-05,-8e-05,-0.00019,-0.0002,-0.00023,-2e-05,-2e-05,-6e-05,1,30
3750,1e-05,0,0,-9e-05,-0.00026,1e-05,-2e-05,1e-05,1,30
3751,1e-05,0,0,-9e-05,-0.00026,1e-05,-2e-05,1e-05,1,30
3752,1e-05,0,0,-9e-05,-0.00026,1e-05,-2e-05,1e-05,1,30
3753,1e-05,0,0,-9e-05,-0.00026,1e-05,-2e-05,1e-05,1,30
3754,1e-05,0,0,-9e-05,-0.00026,1e-05,-2e-05,1e-05,1,30
3755,1e-05,0,0,-9e-05,-0.00026,1e-05,-2e-05,1e-05,1,30
3756,1e-05,0,0,-9e-05,-0.00026,1e-05,-2e-05,1e-05,1,30
3757,1e-05,0,0,-9e-05,-0.00026,1e-05,-2e-05,1e-05,1,30
3758,1e-05,0,0,-9e-05,-0.00026,1e-05,-2e-05,1e-05,1,30
3759,-1e-05,2e-05,1e-05,-5e-05,-6e-05,4e-05,-3e-05,-2e-05,1,30
3760,0,-3e-05,0,3e-05,-1e-05,0,1e-05,-2e-05,1,30
3761,0,-3e-05,0,3e-05,-1e-05,0,1e-05,-2e-05,1,30
3762,0,-3e-05,0,3e-05,-1e-05,0,1e-05,-2e-05,1,30
3763,0,-3e-05,0,3e-05,-1e-05,0,1e-05,-2e-05,1,30
3764,0,-3e-05,0,3e-05,-1e-05,0,1e-05,-2e-05,1,30
3765,0,-3e-05,0,3e-05,-1e-05,0,1e-05,-2e-05,1,30
3766,0,-3e-05,0,3e-05,-1e-05,0,1e-05,-2e-05,1,30
3767,0,-3e-05,0,3e-05,-1e-05,0,1e-05,-2e-05,1,30
3768,0,-3e-05,0,3e-05,-1e-05,0,1e-05,-2e-05,1,30
3769,0,-3e-05,0,3e-05,-1e-05,0,1e-05,-2e-05,1,30
3770,0,-3e-05,0,3e-05,-1e-05,0,1e-05,-2e-05,1,30
3771,0,-3e-05,0,3e-05,-1e-05,0,1e-05,-2e-05,1,30
3772,0,-3e-05,0,3e-05,-1e-05,0,1e-05,-2e-05,1,30
3773,0,-3e-05,0,3e-05,-1e-05,0,1e-05,-2e-05,1,30
3774,-4e-05,-1e-05,4e-05,3e-05,-2e-05,-0.00018,-2e-05,-1e-05,1,30
3775,0,-2e-05,-8e-05,-8e-05,-0.00015,5e-05,0,2e-05,1,30
3776,0,-1e-05,2e-05,0,-3e-05,-3e-05,-2e-05,0,1,30
3777,0,-1e-05,2e-05,0,-3e-05,-3e-05,-2e-05,0,1,30
3778,0,-1e-05,2e-05,0,-3e-05,-3e-05,-2e-05,0,1,30
3779,0,-1e-05,2e-05,0,-3e-05,-3e-05,-2e-05,0,1,30
3780,0,-1e-05,2e-05,0,-3e-05,-3e-05,-2e-05,0,1,30
3781,0,-1e-05,2e-05,0,-3e-05,-3e-05,-2e-05,0,1,30
3782,0,-1e-05,2e-05,0,-3e-05,-3e-05,-2e-05,0,1,30
3783,0,-1e-05,2e-05,0,-3e-05,-3e-05,-2e-05,0,1,30
3784,0,-1e-05,2e-05,0,-3e-05,-3e-05,-2e-05,0,1,30
3785,0,-1e-05,2e-05,0,-3e-05,-3e-05,-2e-05,0,1,30
3786,0,-1e-05,2e-05,0,-3e-05,-3e-05,-2e-05,0,1,30
3788,0,-1e-05,2e-05,0,-3e-05,-3e-05,-2e-05,0,1,30
3789,0,-1e-05,2e-05,0,-3e-05,-3e-05,-2e-05,0,1,30
3790,0,-1e-05,2e-05,0,-3e-05,-3e-05,-2e-05,0,1,30
3791,0,-1e-05,2e-05,0,-3e-05,-3e-05,-2e-05,0,1,30
3792,0,-1e-05,2e-05,0,-3e-05,-3e-05,-2e-05,0,1,30
3793,0,-1e-05,2e-05,0,-3e-05,-3e-05,-2e-05,0,1,30
3794,0,-1e-05,2e-05,0,-3e-05,-3e-05,-2e-05,0,1,30
3795,0,-1e-05,2e-05,0,-3e-05,-3e-05,-2e-05,0,1,30
3796,2e-05,2e-05,3e-05,0,-1e-05,-3e-05,3e-05,1e-05,1,30
3797,2e-05,2e-05,3e-05,0,-1e-05,-3e-05,3e-05,1e-05,1,30
3798,-2e-05,-3e-05,-9e-05,-5e-05,-0.0002,2e-05,-4e-05,-3e-05,1,30
3799,-2e-05,-3e-05,-9e-05,-5e-05,-0.0002,2e-05,-4e-05,-3e-05,1,30
3800,-2e-05,-3e-05,-9e-05,-5e-05,-0.0002,2e-05,-4e-05,-3e-05,1,30
3801,-2e-05,-3e-05,-9e-05,-5e-05,-0.0002,2e-05,-4e-05,-3e-05,1,30
3802,-2e-05,-3e-05,-9e-05,-5e-05,-0.0002,2e-05,-4e-05,-3e-05,1,30
3803,-2e-05,-3e-05,-9e-05,-5e-05,-0.0002,2e-05,-4e-05,-3e-05,1,30
3804,-2e-05,-3e-05,-9e-05,-5e-05,-0.0002,2e-05,-4e-05,-3e-05,1,30
3805,-2e-05,-3e-05,-9e-05,-5e-05,-0.0002,2e-05,-4e-05,-3e-05,1,30
3806,-2e-05,-3e-05,-9e-05,-5e-05,-0.0002,2e-05,-4e-05,-3e-05,1,30
3807,-2e-05,-3e-05,-9e-05,-5e-05,-0.0002,2e-05,-4e-05,-3e-05,1,30
3808,-2e-05,-3e-05,-9e-05,-5e-05,-0.0002,2e-05,-4e-05,-3e-05,1,30
3809,-2e-05,-3e-05,-9e-05,-5e-05,-0.0002,2e-05,-4e-05,-3e-05,1,30
3810,-3e-05,0,2e-05,2e-05,7e-05,-8e-05,1e-05,-3e-05,1,30
3811,-3e-05,0,2e-05,2e-05,7e-05,-8e-05,1e-05,-3e-05,1,30
3812,-3e-05,0,2e-05,2e-05,7e-05,-8e-05,1e-05,-3e-05,1,30
3813,-3e-05,0,2e-05,2e-05,7e-05,-8e-05,1e-05,-3e-05,1,30
3814,-3e-05,0,2e-05,2e-05,7e-05,-8e-05,1e-05,-3e-05,1,30
3815,-3e-05,0,2e-05,2e-05,7e-05,-8e-05,1e-05,-3e-05,1,30
3816,-3e-05,0,2e-05,2e-05,7e-05,-8e-05,1e-05,-3e-05,1,30
3817,-3e-05,0,2e-05,2e-05,7e-05,-8e-05,1e-05,-3e-05,1,30
3818,-3e-05,0,2e-05,2e-05,7e-05,-8e-05,1e-05,-3e-05,1,30
3819,-3e-05,0,2e-05,2e-05,7e-05,-8e-05,1e-05,-3e-05,1,30
3820,-3e-05,0,2e-05,2e-05,7e-05,-8e-05,1e-05,-3e-05,1,30
3821,-3e-05,0,2e-05,2e-05,7e-05,-8e-05,1e-05,-3e-05,1,30
3822,-3e-05,0,2e-05,2e-05,7e-05,-8e-05,1e-05,-3e-05,1,30
3823,-3e-05,0,2e-05,2e-05,7e-05,-8e-05,1e-05,-3e-05,1,30
3824,-3e-05,0,2e-05,2e-05,7e-05,-8e-05,1e-05,-3e-05,1,30
3825,-2e-05,-2e-05,-1e-05,7e-05,0,0.00013,-2e-05,-3e-05,1,30
3826,-2e-05,-2e-05,-1e-05,7e-05,0,0.00013,-2e-05,-3e-05,1,30
3827,-2e-05,-2e-05,-1e-05,7e-05,0,0.00013,-2e-05,-3e-05,1,30
3828,-2e-05,-2e-05,-1e-05,7e-05,0,0.00013,-2e-05,-3e-05,1,30
3829,-2e-05,-2e-05,-1e-05,7e-05,0,0.00013,-2e-05,-3e-05,1,30
3830,-2e-05,-2e-05,-1e-05,7e-05,0,0.00013,-2e-05,-3e-05,1,30
3831,-2e-05,-2e-05,-1e-05,7e-05,0,0.00013,-2e-05,-3e-05,1,30
3832,-2e-05,-2e-05,-1e-05,7e-05,0,0.00013,-2e-05,-3e-05,1,30
3833,-2e-05,-2e-05,-1e-05,7e-05,0,0.00013,-2e-05,-3e-05,1,30
3834,-2e-05,1e-05,-4e-05,0,-0.0001,-7e-05,1e-05,3e-05,1,30
3835,-4e-05,-1e-05,1e-05,-1e-05,3e-05,-7e-05,-1e-05,-1e-05,1,30
3836,-4e-05,-1e-05,1e-05,-1e-05,3e-05,-7e-05,-1e-05,-1e-05,1,30
3838,-4e-05,-1e-05,1e-05,-1e-05,3e-05,-7e-05,-1e-05,-1e-05,1,30
3839,-4e-05,-1e-05,1e-05,-1e-05,3e-05,-7e-05,-1e-05,-1e-05,1,30
3840,-4e-05,-1e-05,1e-05,-1e-05,3e-05,-7e-05,-1e-05,-1e-05,1,30
3841,-4e-05,-1e-05,1e-05,-1e-05,3e-05,-7e-05,-1e-05,-1e-05,1,30
3842,-4e-05,-1e-05,1e-05,-1e-05,3e-05,-7e-05,-1e-05,-1e-05,1,30
3843,-4e-05,-1e-05,1e-05,-1e-05,3e-05,-7e-05,-1e-05,-1e-05,1,30
3844,-4e-05,-1e-05,1e-05,-1e-05,3e-05,-7e-05,-1e-05,-1e-05,1,30
3845,-4e-05,-1e-05,1e-05,-1e-05,3e-05,-7e-05,-1e-05,-1e-05,1,30
3846,-4e-05,-1e-05,1e-05,-1e-05,3e-05,-7e-05,-1e-05,-1e-05,1,30
3847,-4e-05,-1e-05,1e-05,-1e-05,3e-05,-7e-05,-1e-05,-1e-05,1,30
3848,-4e-05,-1e-05,1e-05,-1e-05,3e-05,-7e-05,-1e-05,-1e-05,1,30
3849,-4e-05,-1e-05,1e-05,-1e-05,3e-05,-7e-05,-1e-05,-1e-05,1,30
3850,-4e-05,-1e-05,1e-05,-1e-05,3e-05,-7e-05,-1e-05,-1e-05,1,30
3851,-4e-05,-1e-05,1e-05,-1e-05,3e-05,-7e-05,-1e-05,-1e-05,1,30
3852,-4e-05,-1e-05,1e-05,-1e-05,3e-05,-7e-05,-1e-05,-1e-05,1,30
3853,-4e-05,-1e-05,1e-05,-1e-05,3e-05,-7e-05,-1e-05,-1e-05,1,30
3854,-4e-05,-1e-05,1e-05,-1e-05,3e-05,-7e-05,-1e-05,-1e-05,1,30
3855,-4e-05,-1e-05,1e-05,-1e-05,3e-05,-7e-05,-1e-05,-1e-05,1,30
3856,5e-05,-1e-05,4e-05,-8e-05,-0.0001,0,-1e-05,2e-05,1,30
3857,0,0,-3e-05,0.00023,0.00029,4e-05,2e-05,2e-05,1,30
3858,-3e-05,-1e-05,2e-05,0,-0.00043,-8e-05,-1e-05,-1e-05,1,30
3859,-3e-05,-1e-05,2e-05,0,-0.00043,-8e-05,-1e-05,-1e-05,1,30
3860,-3e-05,-1e-05,2e-05,0,-0.00043,-8e-05,-1e-05,-1e-05,1,30
3861,-3e-05,-1e-05,2e-05,0,-0.00043,-8e-05,-1e-05,-1e-05,1,30
3862,-3e-05,-1e-05,2e-05,0,-0.00043,-8e-05,-1e-05,-1e-05,1,30
3863,-3e-05,-1e-05,2e-05,0,-0.00043,-8e-05,-1e-05,-1e-05,1,30
3864,-3e-05,-1e-05,2e-05,0,-0.00043,-8e-05,-1e-05,-1e-05,1,30
3865,-3e-05,-1e-05,2e-05,0,-0.00043,-8e-05,-1e-05,-1e-05,1,30
3866,-3e-05,-1e-05,2e-05,0,-0.00043,-8e-05,-1e-05,-1e-05,1,30
3867,-3e-05,-1e-05,2e-05,0,-0.00043,-8e-05,-1e-05,-1e-05,1,30
3868,-3e-05,-1e-05,2e-05,0,-0.00043,-8e-05,-1e-05,-1e-05,1,30
3869,-3e-05,-1e-05,2e-05,0,-0.00043,-8e-05,-1e-05,-1e-05,1,30
3870,-3e-05,-1e-05,2e-05,0,-0.00043,-8e-05,-1e-05,-1e-05,1,30
3871,-3e-05,-1e-05,2e-05,0,-0.00043,-8e-05,-1e-05,-1e-05,1,30
3872,-3e-05,-1e-05,2e-05,0,-0.00043,-8e-05,-1e-05,-1e-05,1,30
3873,-3e-05,-1e-05,2e-05,0,-0.00043,-8e-05,-1e-05,-1e-05,1,30
3874,-3e-05,-1e-05,2e-05,0,-0.00043,-8e-05,-1e-05,-1e-05,1,30
3875,-3e-05,-1e-05,2e-05,0,-0.00043,-8e-05,-1e-05,-1e-05,1,30
3876,-3e-05,-1e-05,2e-05,0,-0.00043,-8e-05,-1e-05,-1e-05,1,30
3877,-3e-05,-1e-05,2e-05,0,-0.00043,-8e-05,-1e-05,-1e-05,1,30
3878,-3e-05,-6e-05,-0.0001,-9e-05,-6e-05,-8e-05,-3e-05,-4e-05,1,30
3879,4e-05,3e-05,4e-05,2e-05,2e-05,-5e-05,3e-05,0,1,30
3880,4e-05,3e-05,4e-05,2e-05,2e-05,-5e-05,3e-05,0,1,30
3881,4e-05,3e-05,4e-05,2e-05,2e-05,-5e-05,3e-05,0,1,30
3882,4e-05,3e-05,4e-05,2e-05,2e-05,-5e-05,3e-05,0,1,30
3883,4e-05,3e-05,4e-05,2e-05,2e-05,-5e-05,3e-05,0,1,30
3884,4e-05,3e-05,4e-05,2e-05,2e-05,-5e-05,3e-05,0,1,30
3885,4e-05,3e-05,4e-05,2e-05,2e-05,-5e-05,3e-05,0,1,30
3886,4e-05,3e-05,4e-05,2e-05,2e-05,-5e-05,3e-05,0,1,30
3888,4e-05,3e-05,4e-05,2e-05,2e-05,-5e-05,3e-05,0,1,30
3889,4e-05,3e-05,4e-05,2e-05,2e-05,-5e-05,3e-05,0,1,30
3890,4e-05,3e-05,4e-05,2e-05,2e-05,-5e-05,3e-05,0,1,30
3891,4e-05,3e-05,4e-05,2e-05,2e-05,-5e-05,3e-05,0,1,30
3892,4e-05,3e-05,4e-05,2e-05,2e-05,-5e-05,3e-05,0,1,30
3893,-2e-05,-1e-05,0,-8e-05,-9e-05,-4e-05,-3e-05,-2e-05,1,30
3894,-1e-05,0,-1e-05,0.00012,0.00013,-1e-05,1e-05,2e-05,1,30
3895,-1e-05,0,-1e-05,0.00012,0.00013,-1e-05,1e-05,2e-05,1,30
3896,-1e-05,0,-1e-05,0.00012,0.00013,-1e-05,1e-05,2e-05,1,30
3897,-1e-05,0,-1e-05,0.00012,0.00013,-1e-05,1e-05,2e-05,1,30
3898,-1e-05,0,-1e-05,0.00012,0.00013,-1e-05,1e-05,2e-05,1,30
3899,-1e-05,0,-1e-05,0.00012,0.00013,-1e-05,1e-05,2e-05,1,30
3900,-1e-05,0,-1e-05,0.00012,0.00013,-1e-05,1e-05,2e-05,1,30
3901,-1e-05,0,-1e-05,0.00012,0.00013,-1e-05,1e-05,2e-05,1,30
3902,-1e-05,0,-1e-05,0.00012,0.00013,-1e-05,1e-05,2e-05,1,30
3903,-1e-05,0,-1e-05,0.00012,0.00013,-1e-05,1e-05,2e-05,1,30
3904,-1e-05,0,-1e-05,0.00012,0.00013,-1e-05,1e-05,2e-05,1,30
3905,-1e-05,0,-1e-05,0.00012,0.00013,-1e-05,1e-05,2e-05,1,30
3906,-1e-05,0,-1e-05,0.00012,0.00013,-1e-05,1e-05,2e-05,1,30
3907,-1e-05,0,-1e-05,0.00012,0.00013,-1e-05,1e-05,2e-05,1,30
3908,-1e-05,0,-1e-05,0.00012,0.00013,-1e-05,1e-05,2e-05,1,30
3909,-1e-05,0,-1e-05,0.00012,0.00013,-1e-05,1e-05,2e-05,1,30
3910,-1e-05,0,-1e-05,0.00012,0.00013,-1e-05,1e-05,2e-05,1,30
3911,-1e-05,0,-1e-05,0.00012,0.00013,-1e-05,1e-05,2e-05,1,30
3912,-1e-05,0,-1e-05,0.00012,0.00013,-1e-05,1e-05,2e-05,1,30
3913,-1e-05,0,-1e-05,0.00012,0.00013,-1e-05,1e-05,2e-05,1,30
3914,-1e-05,0,-1e-05,0.00012,0.00013,-1e-05,1e-05,2e-05,1,30
3915,-5e-05,3e-05,-2e-05,-0.00013,-2e-05,0,1e-05,-4e-05,1,30
3916,2e-05,2e-05,5e-05,-6e-05,5e-05,2e-05,0,0,1,30
3917,2e-05,2e-05,5e-05,-6e-05,5e-05,2e-05,0,0,1,30
3918,2e-05,2e-05,5e-05,-6e-05,5e-05,2e-05,0,0,1,30
3919,2e-05,2e-05,5e-05,-6e-05,5e-05,2e-05,0,0,1,30
3920,2e-05,2e-05,5e-05,-6e-05,5e-05,2e-05,0,0,1,30
3921,2e-05,2e-05,5e-05,-6e-05,5e-05,2e-05,0,0,1,30
3922,2e-05,2e-05,5e-05,-6e-05,5e-05,2e-05,0,0,1,30
3923,2e-05,2e-05,5e-05,-6e-05,5e-05,2e-05,0,0,1,30
3924,2e-05,2e-05,5e-05,-6e-05,5e-05,2e-05,0,0,1,30
3925,2e-05,2e-05,5e-05,-6e-05,5e-05,2e-05,0,0,1,30
3926,2e-05,2e-05,5e-05,-6e-05,5e-05,2e-05,0,0,1,30
3927,2e-05,2e-05,5e-05,-6e-05,5e-05,2e-05,0,0,1,30
3928,2e-05,2e-05,5e-05,-6e-05,5e-05,2e-05,0,0,1,30
3929,2e-05,2e-05,5e-05,-6e-05,5e-05,2e-05,0,0,1,30
3930,2e-05,2e-05,5e-05,-6e-05,5e-05,2e-05,0,0,1,30
3931,2e-05,2e-05,5e-05,-6e-05,5e-05,2e-05,0,0,1,30
3932,2e-05,2e-05,5e-05,-6e-05,5e-05,2e-05,0,0,1,30
3933,2e-05,2e-05,5e-05,-6e-05,5e-05,2e-05,0,0,1,30
3934,2e-05,2e-05,5e-05,-6e-05,5e-05,2e-05,0,0,1,30
3935,2e-05,2e-05,5e-05,-6e-05,5e-05,2e-05,0,0,1,30
3936,2e-05,2e-05,5e-05,-6e-05,5e-05,2e-05,0,0,1,30
3938,0,0,-3e-05,-6e-05,-9e-05,-1e-05,0,-1e-05,1,30
3939,-1e-05,-2e-05,-0.00011,-5e-05,-1e-05,0,-3e-05,-1e-05,1,30
3940,-1e-05,-2e-05,-0.00011,-5e-05,-1e-05,0,-3e-05,-1e-05,1,30
3941,-1e-05,-2e-05,-0.00011,-5e-05,-1e-05,0,-3e-05,-1e-05,1,30
3942,-1e-05,-2e-05,-0.00011,-5e-05,-1e-05,0,-3e-05,-1e-05,1,30
3943,-1e-05,-2e-05,-0.00011,-5e-05,-1e-05,0,-3e-05,-1e-05,1,30
3944,-1e-05,-2e-05,-0.00011,-5e-05,-1e-05,0,-3e-05,-1e-05,1,30
3945,-1e-05,-2e-05,-0.00011,-5e-05,-1e-05,0,-3e-05,-1e-05,1,30
3946,-1e-05,-2e-05,-0.00011,-5e-05,-1e-05,0,-3e-05,-1e-05,1,30
3947,-1e-05,-2e-05,-0.00011,-5e-05,-1e-05,0,-3e-05,-1e-05,1,30
3948,-1e-05,-2e-05,-0.00011,-5e-05,-1e-05,0,-3e-05,-1e-05,1,30
3949,-1e-05,-2e-05,-0.00011,-5e-05,-1e-05,0,-3e-05,-1e-05,1,30
3950,-1e-05,-2e-05,-0.00011,-5e-05,-1e-05,0,-3e-05,-1e-05,1,30
3951,-1e-05,-2e-05,-0.00011,-5e-05,-1e-05,0,-3e-05,-1e-05,1,30
3952,-1e-05,-2e-05,-0.00011,-5e-05,-1e-05,0,-3e-05,-1e-05,1,30
3953,1e-05,-3e-05,-2e-05,-0.00012,-0.00017,-3e-05,-4e-05,-4e-05,1,30
3954,-1e-05,3e-05,2e-05,-5e-05,0.00018,3e-05,-1e-05,-1e-05,1,30
3955,-1e-05,3e-05,2e-05,-5e-05,0.00018,3e-05,-1e-05,-1e-05,1,30
3956,-1e-05,3e-05,2e-05,-5e-05,0.00018,3e-05,-1e-05,-1e-05,1,30
3957,-1e-05,3e-05,2e-05,-5e-05,0.00018,3e-05,-1e-05,-1e-05,1,30
3958,-1e-05,3e-05,2e-05,-5e-05,0.00018,3e-05,-1e-05,-1e-05,1,30
3959,-1e-05,3e-05,2e-05,-5e-05,0.00018,3e-05,-1e-05,-1e-05,1,30
3960,-1e-05,3e-05,2e-05,-5e-05,0.00018,3e-05,-1e-05,-1e-05,1,30
3961,-1e-05,3e-05,2e-05,-5e-05,0.00018,3e-05,-1e-05,-1e-05,1,30
3962,-1e-05,3e-05,2e-05,-5e-05,0.00018,3e-05,-1e-05,-1e-05,1,30
3963,-1e-05,3e-05,2e-05,-5e-05,0.00018,3e-05,-1e-05,-1e-05,1,30
3964,-1e-05,3e-05,2e-05,-5e-05,0.00018,3e-05,-1e-05,-1e-05,1,30
3965,-1e-05,3e-05,2e-05,-5e-05,0.00018,3e-05,-1e-05,-1e-05,1,30
3966,-1e-05,3e-05,2e-05,-5e-05,0.00018,3e-05,-1e-05,-1e-05,1,30
3967,-1e-05,3e-05,2e-05,-5e-05,0.00018,3e-05,-1e-05,-1e-05,1,30
3968,-1e-05,3e-05,2e-05,-5e-05,0.00018,3e-05,-1e-05,-1e-05,1,30
3969,-1e-05,3e-05,2e-05,-5e-05,0.00018,3e-05,-1e-05,-1e-05,1,30
3970,-1e-05,3e-05,2e-05,-5e-05,0.00018,3e-05,-1e-05,-1e-05,1,30
3971,-1e-05,3e-05,2e-05,-5e-05,0.00018,3e-05,-1e-05,-1e-05,1,30
3972,-1e-05,3e-05,2e-05,-5e-05,0.00018,3e-05,-1e-05,-1e-05,1,30
3973,-1e-05,3e-05,2e-05,-5e-05,0.00018,3e-05,-1e-05,-1e-05,1,30
3974,-1e-05,3e-05,2e-05,-5e-05,0.00018,3e-05,-1e-05,-1e-05,1,30
3975,-1e-05,3e-05,2e-05,-5e-05,0.00018,3e-05,-1e-05,-1e-05,1,30
3976,0,-2e-05,3e-05,4e-05,0.0002,4e-05,0,1e-05,1,30
3977,0,-2e-05,3e-05,4e-05,0.0002,4e-05,0,1e-05,1,30
3978,0,-2e-05,3e-05,4e-05,0.0002,4e-05,0,1e-05,1,30
3979,0,-2e-05,3e-05,4e-05,0.0002,4e-05,0,1e-05,1,30
3980,0,-2e-05,3e-05,4e-05,0.0002,4e-05,0,1e-05,1,30
3981,0,-2e-05,3e-05,4e-05,0.0002,4e-05,0,1e-05,1,30
3982,0,-2e-05,3e-05,4e-05,0.0002,4e-05,0,1e-05,1,30
3983,0,-2e-05,3e-05,4e-05,0.0002,4e-05,0,1e-05,1,30
3984,0,-2e-05,3e-05,4e-05,0.0002,4e-05,0,1e-05,1,30
3985,0,-2e-05,3e-05,4e-05,0.0002,4e-05,0,1e-05,1,30
3986,0,-2e-05,3e-05,4e-05,0.0002,4e-05,0,1e-05,1,30
3988,0,-2e-05,3e-05,4e-05,0.0002,4e-05,0,1e-05,1,30
3989,0,-2e-05,3e-05,4e-05,0.0002,4e-05,0,1e-05,1,30
3990,0,-2e-05,3e-05,4e-05,0.0002,4e-05,0,1e-05,1,30
3991,0,-2e-05,3e-05,4e-05,0.0002,4e-05,0,1e-05,1,30
3992,0,-2e-05,3e-05,4e-05,0.0002,4e-05,0,1e-05,1,30
3993,0,-2e-05,3e-05,4e-05,0.0002,4e-05,0,1e-05,1,30
3994,0,-2e-05,3e-05,4e-05,0.0002,4e-05,0,1e-05,1,30
3995,0,-2e-05,3e-05,4e-05,0.0002,4e-05,0,1e-05,1,30
3996,0,-2e-05,3e-05,4e-05,0.0002,4e-05,0,1e-05,1,30
3997,0,-2e-05,3e-05,4e-05,0.0002,4e-05,0,1e-05,1,30
3998,-4e-05,-4e-05,-5e-05,-3e-05,-1e-05,-1e-05,0,0,1,30
3999,0,2e-05,3e-05,-0.00012,-0.00025,-8e-05,-3e-05,-4e-05,1,30
4000,0,2e-05,3e-05,-0.00012,-0.00025,-8e-05,-3e-05,-4e-05,1,30
4001,0,2e-05,3e-05,-0.00012,-0.00025,-8e-05,-3e-05,-4e-05,1,30
4002,0,2e-05,3e-05,-0.00012,-0.00025,-8e-05,-3e-05,-4e-05,1,30
4003,0,2e-05,3e-05,-0.00012,-0.00025,-8e-05,-3e-05,-4e-05,1,30
4004,0,2e-05,3e-05,-0.00012,-0.00025,-8e-05,-3e-05,-4e-05,1,30
4005,0,2e-05,3e-05,-0.00012,-0.00025,-8e-05,-3e-05,-4e-05,1,30
4006,0,2e-05,3e-05,-0.00012,-0.00025,-8e-05,-3e-05,-4e-05,1,30
4007,0,2e-05,3e-05,-0.00012,-0.00025,-8e-05,-3e-05,-4e-05,1,30
4008,0,2e-05,3e-05,-0.00012,-0.00025,-8e-05,-3e-05,-4e-05,1,30
4009,0,2e-05,3e-05,-0.00012,-0.00025,-8e-05,-3e-05,-4e-05,1,30
4010,0,2e-05,3e-05,-0.00012,-0.00025,-8e-05,-3e-05,-4e-05,1,30
4011,0,2e-05,3e-05,-0.00012,-0.00025,-8e-05,-3e-05,-4e-05,1,30
4012,0,2e-05,3e-05,-0.00012,-0.00025,-8e-05,-3e-05,-4e-05,1,30
4013,3e-05,0,-0.00013,-0.00018,-0.0001,-2e-05,2e-05,-1e-05,1,30
4014,1e-05,-4e-05,-2e-05,-2e-05,-0.00022,0.00018,-3e-05,-3e-05,1,30
4015,1e-05,-4e-05,-2e-05,-2e-05,-0.00022,0.00018,-3e-05,-3e-05,1,30
4016,1e-05,-4e-05,-2e-05,-2e-05,-0.00022,0.00018,-3e-05,-3e-05,1,30
4017,1e-05,-4e-05,-2e-05,-2e-05,-0.00022,0.00018,-3e-05,-3e-05,1,30
4018,1e-05,-4e-05,-2e-05,-2e-05,-0.00022,0.00018,-3e-05,-3e-05,1,30
4019,1e-05,-4e-05,-2e-05,-2e-05,-0.00022,0.00018,-3e-05,-3e-05,1,30
4020,1e-05,-4e-05,-2e-05,-2e-05,-0.00022,0.00018,-3e-05,-3e-05,1,30
4021,1e-05,-4e-05,-2e-05,-2e-05,-0.00022,0.00018,-3e-05,-3e-05,1,30
4022,1e-05,-4e-05,-2e-05,-2e-05,-0.00022,0.00018,-3e-05,-3e-05,1,30
4023,1e-05,-4e-05,-2e-05,-2e-05,-0.00022,0.00018,-3e-05,-3e-05,1,30
4024,1e-05,-4e-05,-2e-05,-2e-05,-0.00022,0.00018,-3e-05,-3e-05,1,30
4025,1e-05,-4e-05,-2e-05,-2e-05,-0.00022,0.00018,-3e-05,-3e-05,1,30
4026,1e-05,-4e-05,-2e-05,-2e-05,-0.00022,0.00018,-3e-05,-3e-05,1,30
4027,1e-05,-4e-05,-2e-05,-2e-05,-0.00022,0.00018,-3e-05,-3e-05,1,30
4028,1e-05,-4e-05,-2e-05,-2e-05,-0.00022,0.00018,-3e-05,-3e-05,1,30
4029,1e-05,-4e-05,-2e-05,-2e-05,-0.00022,0.00018,-3e-05,-3e-05,1,30
4030,1e-05,-4e-05,-2e-05,-2e-05,-0.00022,0.00018,-3e-05,-3e-05,1,30
4031,1e-05,-4e-05,-2e-05,-2e-05,-0.00022,0.00018,-3e-05,-3e-05,1,30
4032,1e-05,-4e-05,-2e-05,-2e-05,-0.00022,0.00018,-3e-05,-3e-05,1,30
4033,1e-05,-4e-05,-2e-05,-2e-05,-0.00022,0.00018,-3e-05,-3e-05,1,30
4034,1e-05,-4e-05,-2e-05,-2e-05,-0.00022,0.00018,-3e-05,-3e-05,1,30
4035,1e-05,-4e-05,-2e-05,-2e-05,-0.00022,0.00018,-3e-05,-3e-05,1,30
4036,3e-05,3e-05,0,2e-05,0.00017,5e-05,2e-05,4e-05,1,30
4038,1e-05,-1e-05,2e-05,7e-05,2e-05,5e-05,-1e-05,0,1,30
4039,1e-05,-1e-05,2e-05,7e-05,2e-05,5e-05,-1e-05,0,1,30
4040,1e-05,-1e-05,2e-05,7e-05,2e-05,5e-05,-1e-05,0,1,30
4041,1e-05,-1e-05,2e-05,7e-05,2e-05,5e-05,-1e-05,0,1,30
4042,1e-05,-1e-05,2e-05,7e-05,2e-05,5e-05,-1e-05,0,1,30
4043,1e-05,-1e-05,2e-05,7e-05,2e-05,5e-05,-1e-05,0,1,30
4044,1e-05,-1e-05,2e-05,7e-05,2e-05,5e-05,-1e-05,0,1,30
4045,1e-05,-1e-05,2e-05,7e-05,2e-05,5e-05,-1e-05,0,1,30
4046,1e-05,-1e-05,2e-05,7e-05,2e-05,5e-05,-1e-05,0,1,30
4047,1e-05,-1e-05,2e-05,7e-05,2e-05,5e-05,-1e-05,0,1,30
4048,1e-05,-1e-05,2e-05,7e-05,2e-05,5e-05,-1e-05,0,1,30
4049,1e-05,-1e-05,2e-05,7e-05,2e-05,5e-05,-1e-05,0,1,30
4050,1e-05,-1e-05,2e-05,7e-05,2e-05,5e-05,-1e-05,0,1,30
4051,1e-05,-1e-05,2e-05,7e-05,2e-05,5e-05,-1e-05,0,1,30
4052,1e-05,-1e-05,2e-05,7e-05,2e-05,5e-05,-1e-05,0,1,30
4053,1e-05,-1e-05,2e-05,7e-05,2e-05,5e-05,-1e-05,0,1,30
4054,1e-05,-1e-05,2e-05,7e-05,2e-05,5e-05,-1e-05,0,1,30
4055,1e-05,-1e-05,2e-05,7e-05,2e-05,5e-05,-1e-05,0,1,30
4056,1e-05,-1e-05,2e-05,7e-05,2e-05,5e-05,-1e-05,0,1,30
4057,1e-05,-1e-05,2e-05,7e-05,2e-05,5e-05,-1e-05,0,1,30
4058,0,-3e-05,1e-05,0.00013,0.00021,7e-05,0,0,1,30
4059,-2e-05,1e-05,3e-05,4e-05,0.00011,-0.0001,-1e-05,-1e-05,1,30
4060,-2e-05,1e-05,3e-05,4e-05,0.00011,-0.0001,-1e-05,-1e-05,1,30
4061,-2e-05,1e-05,3e-05,4e-05,0.00011,-0.0001,-1e-05,-1e-05,1,30
4062,-2e-05,1e-05,3e-05,4e-05,0.00011,-0.0001,-1e-05,-1e-05,1,30
4063,-2e-05,1e-05,3e-05,4e-05,0.00011,-0.0001,-1e-05,-1e-05,1,30
4064,-2e-05,1e-05,3e-05,4e-05,0.00011,-0.0001,-1e-05,-1e-05,1,30
4065,-2e-05,1e-05,3e-05,4e-05,0.00011,-0.0001,-1e-05,-1e-05,1,30
4066,-2e-05,1e-05,3e-05,4e-05,0.00011,-0.0001,-1e-05,-1e-05,1,30
4067,-2e-05,1e-05,3e-05,4e-05,0.00011,-0.0001,-1e-05,-1e-05,1,30
4068,-2e-05,1e-05,3e-05,4e-05,0.00011,-0.0001,-1e-05,-1e-05,1,30
4069,-2e-05,1e-05,3e-05,4e-05,0.00011,-0.0001,-1e-05,-1e-05,1,30
4070,-2e-05,1e-05,3e-05,4e-05,0.00011,-0.0001,-1e-05,-1e-05,1,30
4071,-2e-05,1e-05,3e-05,4e-05,0.00011,-0.0001,-1e-05,-1e-05,1,30
4072,-2e-05,1e-05,3e-05,4e-05,0.00011,-0.0001,-1e-05,-1e-05,1,30
4073,-9e-05,-3e-05,-5e-05,0,-5e-05,-3e-05,-5e-05,-3e-05,1,30
4074,-1e-05,4e-05,3e-05,4e-05,3e-05,-5e-05,2e-05,2e-05,1,30
4075,-1e-05,4e-05,3e-05,4e-05,3e-05,-5e-05,2e-05,2e-05,1,30
4076,-1e-05,4e-05,3e-05,4e-05,3e-05,-5e-05,2e-05,2e-05,1,30
4077,-1e-05,4e-05,3e-05,4e-05,3e-05,-5e-05,2e-05,2e-05,1,30
4078,-1e-05,4e-05,3e-05,4e-05,3e-05,-5e-05,2e-05,2e-05,1,30
4079,-1e-05,4e-05,3e-05,4e-05,3e-05,-5e-05,2e-05,2e-05,1,30
4080,-1e-05,4e-05,3e-05,4e-05,3e-05,-5e-05,2e-05,2e-05,1,30
4081,-1e-05,4e-05,3e-05,4e-05,3e-05,-5e-05,2e-05,2e-05,1,30
4082,-1e-05,4e-05,3e-05,4e-05,3e-05,-5e-05,2e-05,2e-05,1,30
4083,-1e-05,4e-05,3e-05,4e-05,3e-05,-5e-05,2e-05,2e-05,1,30
4084,-1e-05,4e-05,3e-05,4e-05,3e-05,-5e-05,2e-05,2e-05,1,30
4085,-1e-05,4e-05,3e-05,4e-05,3e-05,-5e-05,2e-05,2e-05,1,30
4086,-1e-05,4e-05,3e-05,4e-05,3e-05,-5e-05,2e-05,2e-05,1,30
4088,-1e-05,4e-05,3e-05,4e-05,3e-05,-5e-05,2e-05,2e-05,1,30
4089,-1e-05,4e-05,3e-05,4e-05,3e-05,-5e-05,2e-05,2e-05,1,30
4090,-1e-05,4e-05,3e-05,4e-05,3e-05,-5e-05,2e-05,2e-05,1,30
4091,-1e-05,4e-05,3e-05,4e-05,3e-05,-5e-05,2e-05,2e-05,1,30
4092,-1e-05,4e-05,3e-05,4e-05,3e-05,-5e-05,2e-05,2e-05,1,30
4093,-1e-05,4e-05,3e-05,4e-05,3e-05,-5e-05,2e-05,2e-05,1,30
4094,-1e-05,4e-05,3e-05,4e-05,3e-05,-5e-05,2e-05,2e-05,1,30
4095,-1e-05,4e-05,3e-05,4e-05,3e-05,-5e-05,2e-05,2e-05,1,30
4096,0,-3e-05,-7e-05,-3e-05,1e-05,-5e-05,-2e-05,3e-05,1,30
4097,0,-3e-05,-7e-05,-3e-05,1e-05,-5e-05,-2e-05,3e-05,1,30
4098,0,-3e-05,-7e-05,-3e-05,1e-05,-5e-05,-2e-05,3e-05,1,30
4099,0,-3e-05,-7e-05,-3e-05,1e-05,-5e-05,-2e-05,3e-05,1,30
4100,0,-3e-05,-7e-05,-3e-05,1e-05,-5e-05,-2e-05,3e-05,1,30
4101,0,-3e-05,-7e-05,-3e-05,1e-05,-5e-05,-2e-05,3e-05,1,30
4102,0,-3e-05,-7e-05,-3e-05,1e-05,-5e-05,-2e-05,3e-05,1,30
4103,0,-3e-05,-7e-05,-3e-05,1e-05,-5e-05,-2e-05,3e-05,1,30
4104,0,-3e-05,-7e-05,-3e-05,1e-05,-5e-05,-2e-05,3e-05,1,30
4105,0,-3e-05,-7e-05,-3e-05,1e-05,-5e-05,-2e-05,3e-05,1,30
4106,0,-3e-05,-7e-05,-3e-05,1e-05,-5e-05,-2e-05,3e-05,1,30
4107,0,-3e-05,-7e-05,-3e-05,1e-05,-5e-05,-2e-05,3e-05,1,30
4108,0,-3e-05,-7e-05,-3e-05,1e-05,-5e-05,-2e-05,3e-05,1,30
4109,0,-3e-05,-7e-05,-3e-05,1e-05,-5e-05,-2e-05,3e-05,1,30
4110,0,-3e-05,-7e-05,-3e-05,1e-05,-5e-05,-2e-05,3e-05,1,30
4111,0,-3e-05,-7e-05,-3e-05,1e-05,-5e-05,-2e-05,3e-05,1,30
4112,0,-3e-05,-7e-05,-3e-05,1e-05,-5e-05,-2e-05,3e-05,1,30
4113,0,-3e-05,-7e-05,-3e-05,1e-05,-5e-05,-2e-05,3e-05,1,30
4114,0,-3e-05,-7e-05,-3e-05,1e-05,-5e-05,-2e-05,3e-05,1,30
4115,0,-3e-05,-7e-05,-3e-05,1e-05,-5e-05,-2e-05,3e-05,1,30
4116,0,-3e-05,-7e-05,-3e-05,1e-05,-5e-05,-2e-05,3e-05,1,30
4117,0,-3e-05,-7e-05,-3e-05,1e-05,-5e-05,-2e-05,3e-05,1,30
4118,-2e-05,-2e-05,0,2e-05,5e-05,-1e-05,-2e-05,0,1,30
4119,4e-05,4e-05,5e-05,4e-05,0.00013,3e-05,3e-05,2e-05,1,30
4120,4e-05,4e-05,5e-05,4e-05,0.00013,3e-05,3e-05,2e-05,1,30
4121,4e-05,4e-05,5e-05,4e-05,0.00013,3e-05,3e-05,2e-05,1,30
4122,4e-05,4e-05,5e-05,4e-05,0.00013,3e-05,3e-05,2e-05,1,30
4123,4e-05,4e-05,5e-05,4e-05,0.00013,3e-05,3e-05,2e-05,1,30
4124,4e-05,4e-05,5e-05,4e-05,0.00013,3e-05,3e-05,2e-05,1,30
4125,4e-05,4e-05,5e-05,4e-05,0.00013,3e-05,3e-05,2e-05,1,30
4126,4e-05,4e-05,5e-05,4e-05,0.00013,3e-05,3e-05,2e-05,1,30
4127,4e-05,4e-05,5e-05,4e-05,0.00013,3e-05,3e-05,2e-05,1,30
4128,4e-05,4e-05,5e-05,4e-05,0.00013,3e-05,3e-05,2e-05,1,30
4129,4e-05,4e-05,5e-05,4e-05,0.00013,3e-05,3e-05,2e-05,1,30
4130,4e-05,4e-05,5e-05,4e-05,0.00013,3e-05,3e-05,2e-05,1,30
4131,4e-05,4e-05,5e-05,4e-05,0.00013,3e-05,3e-05,2e-05,1,30
4132,4e-05,4e-05,5e-05,4e-05,0.00013,3e-05,3e-05,2e-05,1,30
4133,0,1e-05,0,6e-05,0.00019,-6e-05,3e-05,0,1,30
4134,-5e-05,-8e-05,-8e-05,-8e-05,-4e-05,-0.00014,-1e-05,-2e-05,1,30
4135,-5e-05,-8e-05,-8e-05,-8e-05,-4e-05,-0.00014,-1e-05,-2e-05,1,30
4136,-5e-05,-8e-05,-8e-05,-8e-05,-4e-05,-0.00014,-1e-05,-2e-05,1,30
4138,-5e-05,-8e-05,-8e-05,-8e-05,-4e-05,-0.00014,-1e-05,-2e-05,1,30
4139,-5e-05,-8e-05,-8e-05,-8e-05,-4e-05,-0.00014,-1e-05,-2e-05,1,30
4140,-5e-05,-8e-05,-8e-05,-8e-05,-4e-05,-0.00014,-1e-05,-2e-05,1,30
4141,-5e-05,-8e-05,-8e-05,-8e-05,-4e-05,-0.00014,-1e-05,-2e-05,1,30
4142,-5e-05,-8e-05,-8e-05,-8e-05,-4e-05,-0.00014,-1e-05,-2e-05,1,30
4143,-5e-05,-8e-05,-8e-05,-8e-05,-4e-05,-0.00014,-1e-05,-2e-05,1,30
4144,-5e-05,-8e-05,-8e-05,-8e-05,-4e-05,-0.00014,-1e-05,-2e-05,1,30
4145,-5e-05,-8e-05,-8e-05,-8e-05,-4e-05,-0.00014,-1e-05,-2e-05,1,30
4146,-5e-05,-8e-05,-8e-05,-8e-05,-4e-05,-0.00014,-1e-05,-2e-05,1,30
4147,-5e-05,-8e-05,-8e-05,-8e-05,-4e-05,-0.00014,-1e-05,-2e-05,1,30
4148,-5e-05,-8e-05,-8e-05,-8e-05,-4e-05,-0.00014,-1e-05,-2e-05,1,30
4149,-5e-05,-8e-05,-8e-05,-8e-05,-4e-05,-0.00014,-1e-05,-2e-05,1,30
4150,-5e-05,-8e-05,-8e-05,-8e-05,-4e-05,-0.00014,-1e-05,-2e-05,1,30
4151,-5e-05,-8e-05,-8e-05,-8e-05,-4e-05,-0.00014,-1e-05,-2e-05,1,30
4152,-5e-05,-8e-05,-8e-05,-8e-05,-4e-05,-0.00014,-1e-05,-2e-05,1,30
4153,-5e-05,-8e-05,-8e-05,-8e-05,-4e-05,-0.00014,-1e-05,-2e-05,1,30
4154,-5e-05,-8e-05,-8e-05,-8e-05,-4e-05,-0.00014,-1e-05,-2e-05,1,30
4155,-5e-05,-8e-05,-8e-05,-8e-05,-4e-05,-0.00014,-1e-05,-2e-05,1,30
4156,1e-05,-1e-05,1e-05,-1e-05,-1e-05,-0.00064,-2e-05,0,1,30
4157,1e-05,-1e-05,1e-05,-1e-05,-1e-05,-0.00064,-2e-05,0,1,30
4158,1e-05,-1e-05,1e-05,-1e-05,-1e-05,-0.00064,-2e-05,0,1,30
4159,1e-05,-1e-05,1e-05,-1e-05,-1e-05,-0.00064,-2e-05,0,1,30
4160,1e-05,-1e-05,1e-05,-1e-05,-1e-05,-0.00064,-2e-05,0,1,30
4161,1e-05,-1e-05,1e-05,-1e-05,-1e-05,-0.00064,-2e-05,0,1,30
4162,1e-05,-1e-05,1e-05,-1e-05,-1e-05,-0.00064,-2e-05,0,1,30
4163,1e-05,-1e-05,1e-05,-1e-05,-1e-05,-0.00064,-2e-05,0,1,30
4164,1e-05,-1e-05,1e-05,-1e-05,-1e-05,-0.00064,-2e-05,0,1,30
4165,1e-05,-1e-05,1e-05,-1e-05,-1e-05,-0.00064,-2e-05,0,1,30
4166,1e-05,-1e-05,1e-05,-1e-05,-1e-05,-0.00064,-2e-05,0,1,30
4167,1e-05,-1e-05,1e-05,-1e-05,-1e-05,-0.00064,-2e-05,0,1,30
4168,1e-05,-1e-05,1e-05,-1e-05,-1e-05,-0.00064,-2e-05,0,1,30
4169,1e-05,-1e-05,1e-05,-1e-05,-1e-05,-0.00064,-2e-05,0,1,30
4170,1e-05,-1e-05,1e-05,-1e-05,-1e-05,-0.00064,-2e-05,0,1,30
4171,1e-05,-1e-05,1e-05,-1e-05,-1e-05,-0.00064,-2e-05,0,1,30
4172,1e-05,-1e-05,1e-05,-1e-05,-1e-05,-0.00064,-2e-05,0,1,30
4173,1e-05,-1e-05,1e-05,-1e-05,-1e-05,-0.00064,-2e-05,0,1,30
4174,1e-05,-1e-05,1e-05,-1e-05,-1e-05,-0.00064,-2e-05,0,1,30
4175,1e-05,-1e-05,1e-05,-1e-05,-1e-05,-0.00064,-2e-05,0,1,30
4176,1e-05,-1e-05,1e-05,-1e-05,-1e-05,-0.00064,-2e-05,0,1,30
4177,1e-05,-1e-05,1e-05,-1e-05,-1e-05,-0.00064,-2e-05,0,1,30
4178,1e-05,-1e-05,1e-05,-1e-05,-1e-05,-0.00064,-2e-05,0,1,30
4179,1e-05,-1e-05,1e-05,-1e-05,-1e-05,-0.00064,-2e-05,0,1,30
4180,1e-05,-1e-05,1e-05,-1e-05,-1e-05,-0.00064,-2e-05,0,1,30
4181,1e-05,-1e-05,1e-05,-1e-05,-1e-05,-0.00064,-2e-05,0,1,30
4182,1e-05,-1e-05,1e-05,-1e-05,-1e-05,-0.00064,-2e-05,0,1,30
4183,1e-05,-1e-05,1e-05,-1e-05,-1e-05,-0.00064,-2e-05,0,1,30
4184,1e-05,-1e-05,1e-05,-1e-05,-1e-05,-0.00064,-2e-05,0,1,30
4185,1e-05,-1e-05,1e-05,-1e-05,-1e-05,-0.00064,-2e-05,0,1,30
4186,-2e-05,-1e-05,-3e-05,3e-05,-0.00012,-7e-05,-3e-05,-1e-05,1,30
4189,-1e-05,-1e-05,4e-05,0,-9e-05,0.00014,-1e-05,-5e-05,1,30
