6056,-1e-05,-1e-05,-7e-05,-0.00023,0,5e-05,9e-05,-4e-05,2,12
6057,-1e-05,-1e-05,-7e-05,-0.00023,0,5e-05,9e-05,-4e-05,2,12
6058,-1e-05,-1e-05,-7e-05,-0.00023,0,5e-05,9e-05,-4e-05,2,12
6059,-1e-05,-1e-05,-7e-05,-0.00023,0,5e-05,9e-05,-4e-05,2,12
6060,-1e-05,-1e-05,-7e-05,-0.00023,0,5e-05,9e-05,-4e-05,2,12
6061,-1e-05,-1e-05,-7e-05,-0.00023,0,5e-05,9e-05,-4e-05,2,12
6062,-1e-05,-1e-05,-7e-05,-0.00023,0,5e-05,9e-05,-4e-05,2,12
6063,-1e-05,-1e-05,-7e-05,-0.00023,0,5e-05,9e-05,-4e-05,2,12
6064,-1e-05,-1e-05,-7e-05,-0.00023,0,5e-05,9e-05,-4e-05,2,12
6065,-1e-05,-1e-05,-7e-05,-0.00023,0,5e-05,9e-05,-4e-05,2,12
6066,-1e-05,-1e-05,-7e-05,-0.00023,0,5e-05,9e-05,-4e-05,2,12
6067,-1e-05,-1e-05,-7e-05,-0.00023,0,5e-05,9e-05,-4e-05,2,12
6068,-1e-05,-1e-05,-7e-05,-0.00023,0,5e-05,9e-05,-4e-05,2,12
6069,-1e-05,-1e-05,-7e-05,-0.00023,0,5e-05,9e-05,-4e-05,2,12
6070,-3e-05,0.00013,0.00011,0.00037,0,-1e-05,0.0001,-1e-05,2,12
6071,-3e-05,0.00013,0.00011,0.00037,0,-1e-05,0.0001,-1e-05,2,12
6072,2e-05,-5e-05,6e-05,0.00024,7e-05,7e-05,0.00051,7e-05,2,12
6073,2e-05,-5e-05,6e-05,0.00024,7e-05,7e-05,0.00051,7e-05,2,12
6074,2e-05,-5e-05,6e-05,0.00024,7e-05,7e-05,0.00051,7e-05,2,12
6075,2e-05,-5e-05,6e-05,0.00024,7e-05,7e-05,0.00051,7e-05,2,12
6076,2e-05,-5e-05,6e-05,0.00024,7e-05,7e-05,0.00051,7e-05,2,12
6077,2e-05,-5e-05,6e-05,0.00024,7e-05,7e-05,0.00051,7e-05,2,12
6078,2e-05,-5e-05,6e-05,0.00024,7e-05,7e-05,0.00051,7e-05,2,12
6079,2e-05,-5e-05,6e-05,0.00024,7e-05,7e-05,0.00051,7e-05,2,12
6080,2e-05,-5e-05,6e-05,0.00024,7e-05,7e-05,0.00051,7e-05,2,12
6081,2e-05,-5e-05,6e-05,0.00024,7e-05,7e-05,0.00051,7e-05,2,12
6082,2e-05,-5e-05,6e-05,0.00024,7e-05,7e-05,0.00051,7e-05,2,12
6083,2e-05,-5e-05,6e-05,0.00024,7e-05,7e-05,0.00051,7e-05,2,12
6084,2e-05,-5e-05,6e-05,0.00024,7e-05,7e-05,0.00051,7e-05,2,12
6085,2e-05,-5e-05,6e-05,0.00024,7e-05,7e-05,0.00051,7e-05,2,12
6086,2e-05,-5e-05,6e-05,0.00024,7e-05,7e-05,0.00051,7e-05,2,12
6088,2e-05,-5e-05,6e-05,0.00024,7e-05,7e-05,0.00051,7e-05,2,12
6089,2e-05,-5e-05,6e-05,0.00024,7e-05,7e-05,0.00051,7e-05,2,12
6090,2e-05,-5e-05,6e-05,0.00024,7e-05,7e-05,0.00051,7e-05,2,12
6091,2e-05,-5e-05,6e-05,0.00024,7e-05,7e-05,0.00051,7e-05,2,12
6092,4e-05,0.00017,0,-0.00021,-2e-05,6e-05,0.00014,2e-05,2,12
6093,4e-05,0.00017,0,-0.00021,-2e-05,6e-05,0.00014,2e-05,2,12
6094,0,-2e-05,6e-05,6e-05,-4e-05,0,-0.00018,1e-05,2,12
6095,0,-2e-05,6e-05,6e-05,-4e-05,0,-0.00018,1e-05,2,12
6096,0,-2e-05,6e-05,6e-05,-4e-05,0,-0.00018,1e-05,2,12
6097,0,-2e-05,6e-05,6e-05,-4e-05,0,-0.00018,1e-05,2,12
6098,0,-2e-05,6e-05,6e-05,-4e-05,0,-0.00018,1e-05,2,12
6099,0,-2e-05,6e-05,6e-05,-4e-05,0,-0.00018,1e-05,2,12
6100,0,-2e-05,6e-05,6e-05,-4e-05,0,-0.00018,1e-05,2,12
6101,0,-2e-05,6e-05,6e-05,-4e-05,0,-0.00018,1e-05,2,12
6102,0,-2e-05,6e-05,6e-05,-4e-05,0,-0.00018,1e-05,2,12
6103,0,-2e-05,6e-05,6e-05,-4e-05,0,-0.00018,1e-05,2,12
6104,0,-2e-05,6e-05,6e-05,-4e-05,0,-0.00018,1e-05,2,12
6105,0,-2e-05,6e-05,6e-05,-4e-05,0,-0.00018,1e-05,2,12
6106,1e-05,2e-05,2e-05,0.0001,0.0001,2e-05,-0.00025,-5e-05,2,12
6107,1e-05,2e-05,2e-05,0.0001,0.0001,2e-05,-0.00025,-5e-05,2,12
6108,1e-05,2e-05,2e-05,0.0001,0.0001,2e-05,-0.00025,-5e-05,2,12
6109,1e-05,2e-05,2e-05,0.0001,0.0001,2e-05,-0.00025,-5e-05,2,12
6110,1e-05,2e-05,2e-05,0.0001,0.0001,2e-05,-0.00025,-5e-05,2,12
6111,1e-05,2e-05,2e-05,0.0001,0.0001,2e-05,-0.00025,-5e-05,2,12
6112,1e-05,2e-05,2e-05,0.0001,0.0001,2e-05,-0.00025,-5e-05,2,12
6113,1e-05,2e-05,2e-05,0.0001,0.0001,2e-05,-0.00025,-5e-05,2,12
6114,1e-05,2e-05,2e-05,0.0001,0.0001,2e-05,-0.00025,-5e-05,2,12
6115,-1e-05,-2e-05,-4e-05,-4e-05,8e-05,-4e-05,-1e-05,-3e-05,2,12
6116,-1e-05,-2e-05,-4e-05,-4e-05,8e-05,-4e-05,-1e-05,-3e-05,2,12
6117,-1e-05,-2e-05,-4e-05,-4e-05,8e-05,-4e-05,-1e-05,-3e-05,2,12
6118,-1e-05,-2e-05,-4e-05,-4e-05,8e-05,-4e-05,-1e-05,-3e-05,2,12
6119,-1e-05,-2e-05,-4e-05,-4e-05,8e-05,-4e-05,-1e-05,-3e-05,2,12
6120,-1e-05,-2e-05,-4e-05,-4e-05,8e-05,-4e-05,-1e-05,-3e-05,2,12
6121,-1e-05,-2e-05,-4e-05,-4e-05,8e-05,-4e-05,-1e-05,-3e-05,2,12
6122,-1e-05,-2e-05,-4e-05,-4e-05,8e-05,-4e-05,-1e-05,-3e-05,2,12
6123,-1e-05,-2e-05,-4e-05,-4e-05,8e-05,-4e-05,-1e-05,-3e-05,2,12
6124,-1e-05,-2e-05,-4e-05,-4e-05,8e-05,-4e-05,-1e-05,-3e-05,2,12
6125,-1e-05,-2e-05,-4e-05,-4e-05,8e-05,-4e-05,-1e-05,-3e-05,2,12
6126,-1e-05,-2e-05,-4e-05,-4e-05,8e-05,-4e-05,-1e-05,-3e-05,2,12
6127,-1e-05,-2e-05,-4e-05,-4e-05,8e-05,-4e-05,-1e-05,-3e-05,2,12
6128,-1e-05,-2e-05,-4e-05,-4e-05,8e-05,-4e-05,-1e-05,-3e-05,2,12
6129,-1e-05,-2e-05,-4e-05,-4e-05,8e-05,-4e-05,-1e-05,-3e-05,2,12
6130,0,-5e-05,5e-05,-4e-05,-6e-05,-6e-05,-0.00017,-2e-05,2,12
6131,-2e-05,5e-05,-5e-05,-0.00019,0,0.0001,-5e-05,2e-05,2,12
6132,-4e-05,-0.00013,3e-05,0.0003,3e-05,-4e-05,0.00016,-2e-05,2,12
6133,-4e-05,-0.00013,3e-05,0.0003,3e-05,-4e-05,0.00016,-2e-05,2,12
6134,-4e-05,-0.00013,3e-05,0.0003,3e-05,-4e-05,0.00016,-2e-05,2,12
6135,-4e-05,-0.00013,3e-05,0.0003,3e-05,-4e-05,0.00016,-2e-05,2,12
6136,-4e-05,-0.00013,3e-05,0.0003,3e-05,-4e-05,0.00016,-2e-05,2,12
6138,-4e-05,-0.00013,3e-05,0.0003,3e-05,-4e-05,0.00016,-2e-05,2,12
6139,-4e-05,-0.00013,3e-05,0.0003,3e-05,-4e-05,0.00016,-2e-05,2,12
6140,-4e-05,-0.00013,3e-05,0.0003,3e-05,-4e-05,0.00016,-2e-05,2,12
6141,-4e-05,-0.00013,3e-05,0.0003,3e-05,-4e-05,0.00016,-2e-05,2,12
6142,-4e-05,-0.00013,3e-05,0.0003,3e-05,-4e-05,0.00016,-2e-05,2,12
6143,-4e-05,-0.00013,3e-05,0.0003,3e-05,-4e-05,0.00016,-2e-05,2,12
6144,-4e-05,-0.00013,3e-05,0.0003,3e-05,-4e-05,0.00016,-2e-05,2,12
6145,-4e-05,-0.00013,3e-05,0.0003,3e-05,-4e-05,0.00016,-2e-05,2,12
6146,-4e-05,-0.00013,3e-05,0.0003,3e-05,-4e-05,0.00016,-2e-05,2,12
6147,-4e-05,-0.00013,3e-05,0.0003,3e-05,-4e-05,0.00016,-2e-05,2,12
6148,-4e-05,-0.00013,3e-05,0.0003,3e-05,-4e-05,0.00016,-2e-05,2,12
6149,-4e-05,-0.00013,3e-05,0.0003,3e-05,-4e-05,0.00016,-2e-05,2,12
6150,-4e-05,-0.00013,3e-05,0.0003,3e-05,-4e-05,0.00016,-2e-05,2,12
6151,-4e-05,-0.00013,3e-05,0.0003,3e-05,-4e-05,0.00016,-2e-05,2,12
6152,-4e-05,-9e-05,-0.00013,-0.00032,-7e-05,3e-05,7e-05,-1e-05,2,12
6153,-4e-05,-9e-05,-0.00013,-0.00032,-7e-05,3e-05,7e-05,-1e-05,2,12
6154,-1e-05,8e-05,3e-05,-2e-05,7e-05,6e-05,0.00034,6e-05,2,12
6155,-1e-05,8e-05,3e-05,-2e-05,7e-05,6e-05,0.00034,6e-05,2,12
6156,-1e-05,8e-05,3e-05,-2e-05,7e-05,6e-05,0.00034,6e-05,2,12
6157,-1e-05,8e-05,3e-05,-2e-05,7e-05,6e-05,0.00034,6e-05,2,12
6158,-1e-05,8e-05,3e-05,-2e-05,7e-05,6e-05,0.00034,6e-05,2,12
6159,-1e-05,8e-05,3e-05,-2e-05,7e-05,6e-05,0.00034,6e-05,2,12
6160,-1e-05,8e-05,3e-05,-2e-05,7e-05,6e-05,0.00034,6e-05,2,12
6161,-1e-05,8e-05,3e-05,-2e-05,7e-05,6e-05,0.00034,6e-05,2,12
6162,-1e-05,8e-05,3e-05,-2e-05,7e-05,6e-05,0.00034,6e-05,2,12
6163,-1e-05,8e-05,3e-05,-2e-05,7e-05,6e-05,0.00034,6e-05,2,12
6164,-1e-05,8e-05,3e-05,-2e-05,7e-05,6e-05,0.00034,6e-05,2,12
6165,-1e-05,8e-05,3e-05,-2e-05,7e-05,6e-05,0.00034,6e-05,2,12
6166,0.0001,0,0.00013,0.00033,0.00019,0,-0.00017,9e-05,2,12
6167,0.0001,0,0.00013,0.00033,0.00019,0,-0.00017,9e-05,2,12
6168,0.0001,0,0.00013,0.00033,0.00019,0,-0.00017,9e-05,2,12
6169,0.0001,0,0.00013,0.00033,0.00019,0,-0.00017,9e-05,2,12
6170,0.0001,0,0.00013,0.00033,0.00019,0,-0.00017,9e-05,2,12
6171,0.0001,0,0.00013,0.00033,0.00019,0,-0.00017,9e-05,2,12
6172,0.0001,0,0.00013,0.00033,0.00019,0,-0.00017,9e-05,2,12
6173,0.0001,0,0.00013,0.00033,0.00019,0,-0.00017,9e-05,2,12
6174,0.0001,0,0.00013,0.00033,0.00019,0,-0.00017,9e-05,2,12
6175,-9e-05,-1e-05,-9e-05,-0.00013,-0.00012,-2e-05,0.0003,3e-05,2,12
6176,-9e-05,-1e-05,-9e-05,-0.00013,-0.00012,-2e-05,0.0003,3e-05,2,12
6177,-9e-05,-1e-05,-9e-05,-0.00013,-0.00012,-2e-05,0.0003,3e-05,2,12
6178,-9e-05,-1e-05,-9e-05,-0.00013,-0.00012,-2e-05,0.0003,3e-05,2,12
6179,-9e-05,-1e-05,-9e-05,-0.00013,-0.00012,-2e-05,0.0003,3e-05,2,12
6180,-9e-05,-1e-05,-9e-05,-0.00013,-0.00012,-2e-05,0.0003,3e-05,2,12
6181,-9e-05,-1e-05,-9e-05,-0.00013,-0.00012,-2e-05,0.0003,3e-05,2,12
6182,-9e-05,-1e-05,-9e-05,-0.00013,-0.00012,-2e-05,0.0003,3e-05,2,12
6183,-9e-05,-1e-05,-9e-05,-0.00013,-0.00012,-2e-05,0.0003,3e-05,2,12
6184,-9e-05,-1e-05,-9e-05,-0.00013,-0.00012,-2e-05,0.0003,3e-05,2,12
6185,-9e-05,-1e-05,-9e-05,-0.00013,-0.00012,-2e-05,0.0003,3e-05,2,12
6186,-9e-05,-1e-05,-9e-05,-0.00013,-0.00012,-2e-05,0.0003,3e-05,2,12
6188,-9e-05,-1e-05,-9e-05,-0.00013,-0.00012,-2e-05,0.0003,3e-05,2,12
6189,-9e-05,-1e-05,-9e-05,-0.00013,-0.00012,-2e-05,0.0003,3e-05,2,12
6190,-4e-05,-5e-05,-3e-05,-4e-05,3e-05,7e-05,0.00025,8e-05,2,12
6191,-3e-05,7e-05,0.00016,0.00033,6e-05,-6e-05,-0.00021,-0.00011,2,12
6192,7e-05,0,1e-05,0,-2e-05,-4e-05,-0.00011,3e-05,2,12
6193,7e-05,0,1e-05,0,-2e-05,-4e-05,-0.00011,3e-05,2,12
6194,7e-05,0,1e-05,0,-2e-05,-4e-05,-0.00011,3e-05,2,12
6195,7e-05,0,1e-05,0,-2e-05,-4e-05,-0.00011,3e-05,2,12
6196,7e-05,0,1e-05,0,-2e-05,-4e-05,-0.00011,3e-05,2,12
6197,7e-05,0,1e-05,0,-2e-05,-4e-05,-0.00011,3e-05,2,12
6198,7e-05,0,1e-05,0,-2e-05,-4e-05,-0.00011,3e-05,2,12
6199,7e-05,0,1e-05,0,-2e-05,-4e-05,-0.00011,3e-05,2,12
6200,7e-05,0,1e-05,0,-2e-05,-4e-05,-0.00011,3e-05,2,12
6201,7e-05,0,1e-05,0,-2e-05,-4e-05,-0.00011,3e-05,2,12
6202,7e-05,0,1e-05,0,-2e-05,-4e-05,-0.00011,3e-05,2,12
6203,7e-05,0,1e-05,0,-2e-05,-4e-05,-0.00011,3e-05,2,12
6204,7e-05,0,1e-05,0,-2e-05,-4e-05,-0.00011,3e-05,2,12
6205,7e-05,0,1e-05,0,-2e-05,-4e-05,-0.00011,3e-05,2,12
6206,7e-05,0,1e-05,0,-2e-05,-4e-05,-0.00011,3e-05,2,12
6207,7e-05,0,1e-05,0,-2e-05,-4e-05,-0.00011,3e-05,2,12
6208,7e-05,0,1e-05,0,-2e-05,-4e-05,-0.00011,3e-05,2,12
6209,7e-05,0,1e-05,0,-2e-05,-4e-05,-0.00011,3e-05,2,12
6210,7e-05,0,1e-05,0,-2e-05,-4e-05,-0.00011,3e-05,2,12
6211,7e-05,0,1e-05,0,-2e-05,-4e-05,-0.00011,3e-05,2,12
6212,7e-05,0,1e-05,0,-2e-05,-4e-05,-0.00011,3e-05,2,12
6213,4e-05,-4e-05,-0.0003,-0.00073,-0.00014,-3e-05,-3e-05,3e-05,2,12
6214,-5e-05,-3e-05,0.00013,0.00041,7e-05,1e-05,-5e-05,4e-05,2,12
6215,-5e-05,-6e-05,-0.0001,-0.00012,-4e-05,3e-05,-0.00014,-2e-05,2,12
6216,-5e-05,-6e-05,-0.0001,-0.00012,-4e-05,3e-05,-0.00014,-2e-05,2,12
6217,-5e-05,-6e-05,-0.0001,-0.00012,-4e-05,3e-05,-0.00014,-2e-05,2,12
6218,-5e-05,-6e-05,-0.0001,-0.00012,-4e-05,3e-05,-0.00014,-2e-05,2,12
6219,-5e-05,-6e-05,-0.0001,-0.00012,-4e-05,3e-05,-0.00014,-2e-05,2,12
6220,-5e-05,-6e-05,-0.0001,-0.00012,-4e-05,3e-05,-0.00014,-2e-05,2,12
6221,-5e-05,-6e-05,-0.0001,-0.00012,-4e-05,3e-05,-0.00014,-2e-05,2,12
6222,-5e-05,-6e-05,-0.0001,-0.00012,-4e-05,3e-05,-0.00014,-2e-05,2,12
6223,-5e-05,-6e-05,-0.0001,-0.00012,-4e-05,3e-05,-0.00014,-2e-05,2,12
6224,-5e-05,-6e-05,-0.0001,-0.00012,-4e-05,3e-05,-0.00014,-2e-05,2,12
6225,-5e-05,-6e-05,-0.0001,-0.00012,-4e-05,3e-05,-0.00014,-2e-05,2,12
6226,-1e-05,-8e-05,0,0.00013,1e-05,-7e-05,0.00019,3e-05,2,12
6227,-1e-05,-8e-05,0,0.00013,1e-05,-7e-05,0.00019,3e-05,2,12
6228,-1e-05,-8e-05,0,0.00013,1e-05,-7e-05,0.00019,3e-05,2,12
6229,-1e-05,-8e-05,0,0.00013,1e-05,-7e-05,0.00019,3e-05,2,12
6230,-1e-05,-8e-05,0,0.00013,1e-05,-7e-05,0.00019,3e-05,2,12
6231,-1e-05,-8e-05,0,0.00013,1e-05,-7e-05,0.00019,3e-05,2,12
6232,-1e-05,-8e-05,0,0.00013,1e-05,-7e-05,0.00019,3e-05,2,12
6233,-1e-05,-8e-05,0,0.00013,1e-05,-7e-05,0.00019,3e-05,2,12
6234,-1e-05,-8e-05,0,0.00013,1e-05,-7e-05,0.00019,3e-05,2,12
6235,-5e-05,-6e-05,0,0.00017,-2e-05,-3e-05,-0.00029,-5e-05,2,12
6236,-5e-05,-6e-05,0,0.00017,-2e-05,-3e-05,-0.00029,-5e-05,2,12
6238,-5e-05,-6e-05,0,0.00017,-2e-05,-3e-05,-0.00029,-5e-05,2,12
6239,-5e-05,-6e-05,0,0.00017,-2e-05,-3e-05,-0.00029,-5e-05,2,12
6240,-5e-05,-6e-05,0,0.00017,-2e-05,-3e-05,-0.00029,-5e-05,2,12
6241,-5e-05,-6e-05,0,0.00017,-2e-05,-3e-05,-0.00029,-5e-05,2,12
6242,-5e-05,-6e-05,0,0.00017,-2e-05,-3e-05,-0.00029,-5e-05,2,12
6243,-5e-05,-6e-05,0,0.00017,-2e-05,-3e-05,-0.00029,-5e-05,2,12
6244,-5e-05,-6e-05,0,0.00017,-2e-05,-3e-05,-0.00029,-5e-05,2,12
6245,-5e-05,-6e-05,0,0.00017,-2e-05,-3e-05,-0.00029,-5e-05,2,12
6246,-5e-05,-6e-05,0,0.00017,-2e-05,-3e-05,-0.00029,-5e-05,2,12
6247,-5e-05,-6e-05,0,0.00017,-2e-05,-3e-05,-0.00029,-5e-05,2,12
6248,-5e-05,-6e-05,0,0.00017,-2e-05,-3e-05,-0.00029,-5e-05,2,12
6249,-5e-05,-6e-05,0,0.00017,-2e-05,-3e-05,-0.00029,-5e-05,2,12
6250,-1e-05,-4e-05,4e-05,0.00024,-1e-05,-1e-05,0.00014,1e-05,2,12
6251,-1e-05,-4e-05,4e-05,0.00024,-1e-05,-1e-05,0.00014,1e-05,2,12
6252,-0.00011,0.00011,0.00013,0.00029,5e-05,-8e-05,-0.00027,-0.00023,2,12
6253,-0.00011,0.00011,0.00013,0.00029,5e-05,-8e-05,-0.00027,-0.00023,2,12
6254,-0.00011,0.00011,0.00013,0.00029,5e-05,-8e-05,-0.00027,-0.00023,2,12
6255,-0.00011,0.00011,0.00013,0.00029,5e-05,-8e-05,-0.00027,-0.00023,2,12
6256,-0.00011,0.00011,0.00013,0.00029,5e-05,-8e-05,-0.00027,-0.00023,2,12
6257,-0.00011,0.00011,0.00013,0.00029,5e-05,-8e-05,-0.00027,-0.00023,2,12
6258,-0.00011,0.00011,0.00013,0.00029,5e-05,-8e-05,-0.00027,-0.00023,2,12
6259,-0.00011,0.00011,0.00013,0.00029,5e-05,-8e-05,-0.00027,-0.00023,2,12
6260,-0.00011,0.00011,0.00013,0.00029,5e-05,-8e-05,-0.00027,-0.00023,2,12
6261,-0.00011,0.00011,0.00013,0.00029,5e-05,-8e-05,-0.00027,-0.00023,2,12
6262,-0.00011,0.00011,0.00013,0.00029,5e-05,-8e-05,-0.00027,-0.00023,2,12
6263,-0.00011,0.00011,0.00013,0.00029,5e-05,-8e-05,-0.00027,-0.00023,2,12
6264,-0.00011,0.00011,0.00013,0.00029,5e-05,-8e-05,-0.00027,-0.00023,2,12
6265,-0.00011,0.00011,0.00013,0.00029,5e-05,-8e-05,-0.00027,-0.00023,2,12
6266,-0.00011,0.00011,0.00013,0.00029,5e-05,-8e-05,-0.00027,-0.00023,2,12
6267,-0.00011,0.00011,0.00013,0.00029,5e-05,-8e-05,-0.00027,-0.00023,2,12
6268,-0.00011,0.00011,0.00013,0.00029,5e-05,-8e-05,-0.00027,-0.00023,2,12
6269,-0.00011,0.00011,0.00013,0.00029,5e-05,-8e-05,-0.00027,-0.00023,2,12
6270,-0.00011,0.00011,0.00013,0.00029,5e-05,-8e-05,-0.00027,-0.00023,2,12
6271,-0.00011,0.00011,0.00013,0.00029,5e-05,-8e-05,-0.00027,-0.00023,2,12
6272,7e-05,0,2e-05,0.00012,0,3e-05,8e-05,3e-05,2,12
6273,7e-05,0,2e-05,0.00012,0,3e-05,8e-05,3e-05,2,12
6274,0.00012,0.00013,6e-05,-3e-05,5e-05,1e-05,0,0,2,12
6275,0.00012,0.00013,6e-05,-3e-05,5e-05,1e-05,0,0,2,12
6276,0.00012,0.00013,6e-05,-3e-05,5e-05,1e-05,0,0,2,12
6277,0.00012,0.00013,6e-05,-3e-05,5e-05,1e-05,0,0,2,12
6278,0.00012,0.00013,6e-05,-3e-05,5e-05,1e-05,0,0,2,12
6279,0.00012,0.00013,6e-05,-3e-05,5e-05,1e-05,0,0,2,12
6280,0.00012,0.00013,6e-05,-3e-05,5e-05,1e-05,0,0,2,12
6281,0.00012,0.00013,6e-05,-3e-05,5e-05,1e-05,0,0,2,12
6282,0.00012,0.00013,6e-05,-3e-05,5e-05,1e-05,0,0,2,12
6283,0.00012,0.00013,6e-05,-3e-05,5e-05,1e-05,0,0,2,12
6284,0.00012,0.00013,6e-05,-3e-05,5e-05,1e-05,0,0,2,12
6285,0.00012,0.00013,6e-05,-3e-05,5e-05,1e-05,0,0,2,12
6286,-8e-05,-0.00011,-2e-05,8e-05,1e-05,2e-05,-9e-05,-3e-05,2,12
6288,-8e-05,-0.00011,-2e-05,8e-05,1e-05,2e-05,-9e-05,-3e-05,2,12
6289,-8e-05,-0.00011,-2e-05,8e-05,1e-05,2e-05,-9e-05,-3e-05,2,12
6290,-8e-05,-0.00011,-2e-05,8e-05,1e-05,2e-05,-9e-05,-3e-05,2,12
6291,-8e-05,-0.00011,-2e-05,8e-05,1e-05,2e-05,-9e-05,-3e-05,2,12
6292,-8e-05,-0.00011,-2e-05,8e-05,1e-05,2e-05,-9e-05,-3e-05,2,12
6293,-8e-05,-0.00011,-2e-05,8e-05,1e-05,2e-05,-9e-05,-3e-05,2,12
6294,-8e-05,-0.00011,-2e-05,8e-05,1e-05,2e-05,-9e-05,-3e-05,2,12
6295,1e-05,2e-05,-9e-05,-1e-05,-0.0001,-3e-05,-3e-05,-2e-05,2,12
6296,1e-05,2e-05,-9e-05,-1e-05,-0.0001,-3e-05,-3e-05,-2e-05,2,12
6297,1e-05,2e-05,-9e-05,-1e-05,-0.0001,-3e-05,-3e-05,-2e-05,2,12
6298,1e-05,2e-05,-9e-05,-1e-05,-0.0001,-3e-05,-3e-05,-2e-05,2,12
6299,1e-05,2e-05,-9e-05,-1e-05,-0.0001,-3e-05,-3e-05,-2e-05,2,12
6300,1e-05,2e-05,-9e-05,-1e-05,-0.0001,-3e-05,-3e-05,-2e-05,2,12
6301,1e-05,2e-05,-9e-05,-1e-05,-0.0001,-3e-05,-3e-05,-2e-05,2,12
6302,1e-05,2e-05,-9e-05,-1e-05,-0.0001,-3e-05,-3e-05,-2e-05,2,12
6303,1e-05,2e-05,-9e-05,-1e-05,-0.0001,-3e-05,-3e-05,-2e-05,2,12
6304,1e-05,2e-05,-9e-05,-1e-05,-0.0001,-3e-05,-3e-05,-2e-05,2,12
6305,1e-05,2e-05,-9e-05,-1e-05,-0.0001,-3e-05,-3e-05,-2e-05,2,12
6306,1e-05,2e-05,-9e-05,-1e-05,-0.0001,-3e-05,-3e-05,-2e-05,2,12
6307,1e-05,2e-05,-9e-05,-1e-05,-0.0001,-3e-05,-3e-05,-2e-05,2,12
6308,1e-05,2e-05,-9e-05,-1e-05,-0.0001,-3e-05,-3e-05,-2e-05,2,12
6309,1e-05,2e-05,-9e-05,-1e-05,-0.0001,-3e-05,-3e-05,-2e-05,2,12
6310,9e-05,9e-05,0.0001,0.00028,6e-05,1e-05,-0.0001,-3e-05,2,12
6311,-0.00015,-3e-05,-1e-05,-6e-05,-4e-05,-3e-05,2e-05,-0.0001,2,12
6312,3e-05,1e-05,5e-05,3e-05,0,-5e-05,3e-05,0,2,12
6313,3e-05,1e-05,5e-05,3e-05,0,-5e-05,3e-05,0,2,12
6314,3e-05,1e-05,5e-05,3e-05,0,-5e-05,3e-05,0,2,12
6315,3e-05,1e-05,5e-05,3e-05,0,-5e-05,3e-05,0,2,12
6316,3e-05,1e-05,5e-05,3e-05,0,-5e-05,3e-05,0,2,12
6317,3e-05,1e-05,5e-05,3e-05,0,-5e-05,3e-05,0,2,12
6318,3e-05,1e-05,5e-05,3e-05,0,-5e-05,3e-05,0,2,12
6319,3e-05,1e-05,5e-05,3e-05,0,-5e-05,3e-05,0,2,12
6320,3e-05,1e-05,5e-05,3e-05,0,-5e-05,3e-05,0,2,12
6321,3e-05,1e-05,5e-05,3e-05,0,-5e-05,3e-05,0,2,12
6322,3e-05,1e-05,5e-05,3e-05,0,-5e-05,3e-05,0,2,12
6323,3e-05,1e-05,5e-05,3e-05,0,-5e-05,3e-05,0,2,12
6324,3e-05,1e-05,5e-05,3e-05,0,-5e-05,3e-05,0,2,12
6325,3e-05,1e-05,5e-05,3e-05,0,-5e-05,3e-05,0,2,12
6326,3e-05,1e-05,5e-05,3e-05,0,-5e-05,3e-05,0,2,12
6327,3e-05,1e-05,5e-05,3e-05,0,-5e-05,3e-05,0,2,12
6328,3e-05,1e-05,5e-05,3e-05,0,-5e-05,3e-05,0,2,12
6329,3e-05,1e-05,5e-05,3e-05,0,-5e-05,3e-05,0,2,12
6330,3e-05,1e-05,5e-05,3e-05,0,-5e-05,3e-05,0,2,12
6331,3e-05,1e-05,5e-05,3e-05,0,-5e-05,3e-05,0,2,12
6332,-4e-05,4e-05,-1e-05,-0.00034,-0.00015,-3e-05,0.0001,-2e-05,2,12
6333,-4e-05,4e-05,-1e-05,-0.00034,-0.00015,-3e-05,0.0001,-2e-05,2,12
6334,-5e-05,-0.00014,-9e-05,-0.00011,0.00011,1e-05,-0.00016,-3e-05,2,12
6335,-5e-05,-0.00014,-9e-05,-0.00011,0.00011,1e-05,-0.00016,-3e-05,2,12
6336,-5e-05,-0.00014,-9e-05,-0.00011,0.00011,1e-05,-0.00016,-3e-05,2,12
6338,-5e-05,-0.00014,-9e-05,-0.00011,0.00011,1e-05,-0.00016,-3e-05,2,12
6339,-5e-05,-0.00014,-9e-05,-0.00011,0.00011,1e-05,-0.00016,-3e-05,2,12
6340,-5e-05,-0.00014,-9e-05,-0.00011,0.00011,1e-05,-0.00016,-3e-05,2,12
6341,-5e-05,-0.00014,-9e-05,-0.00011,0.00011,1e-05,-0.00016,-3e-05,2,12
6342,-5e-05,-0.00014,-9e-05,-0.00011,0.00011,1e-05,-0.00016,-3e-05,2,12
6343,-5e-05,-0.00014,-9e-05,-0.00011,0.00011,1e-05,-0.00016,-3e-05,2,12
6344,-5e-05,-0.00014,-9e-05,-0.00011,0.00011,1e-05,-0.00016,-3e-05,2,12
6345,-5e-05,-0.00014,-9e-05,-0.00011,0.00011,1e-05,-0.00016,-3e-05,2,12
6346,-0.0001,-8e-05,2e-05,0.00012,7e-05,3e-05,3e-05,2e-05,2,12
6347,-0.0001,-8e-05,2e-05,0.00012,7e-05,3e-05,3e-05,2e-05,2,12
6348,-0.0001,-8e-05,2e-05,0.00012,7e-05,3e-05,3e-05,2e-05,2,12
6349,-0.0001,-8e-05,2e-05,0.00012,7e-05,3e-05,3e-05,2e-05,2,12
6350,-0.0001,-8e-05,2e-05,0.00012,7e-05,3e-05,3e-05,2e-05,2,12
6351,-0.0001,-8e-05,2e-05,0.00012,7e-05,3e-05,3e-05,2e-05,2,12
6352,-0.0001,-8e-05,2e-05,0.00012,7e-05,3e-05,3e-05,2e-05,2,12
6353,-0.0001,-8e-05,2e-05,0.00012,7e-05,3e-05,3e-05,2e-05,2,12
6354,-0.0001,-8e-05,2e-05,0.00012,7e-05,3e-05,3e-05,2e-05,2,12
6355,0,-0.00014,-0.00013,-0.00024,-6e-05,2e-05,0.00021,0.0001,2,12
6356,0,-0.00014,-0.00013,-0.00024,-6e-05,2e-05,0.00021,0.0001,2,12
6357,0,-0.00014,-0.00013,-0.00024,-6e-05,2e-05,0.00021,0.0001,2,12
6358,0,-0.00014,-0.00013,-0.00024,-6e-05,2e-05,0.00021,0.0001,2,12
6359,0,-0.00014,-0.00013,-0.00024,-6e-05,2e-05,0.00021,0.0001,2,12
6360,0,-0.00014,-0.00013,-0.00024,-6e-05,2e-05,0.00021,0.0001,2,12
6361,0,-0.00014,-0.00013,-0.00024,-6e-05,2e-05,0.00021,0.0001,2,12
6362,0,-0.00014,-0.00013,-0.00024,-6e-05,2e-05,0.00021,0.0001,2,12
6363,0,-0.00014,-0.00013,-0.00024,-6e-05,2e-05,0.00021,0.0001,2,12
6364,0,-0.00014,-0.00013,-0.00024,-6e-05,2e-05,0.00021,0.0001,2,12
6365,0,-0.00014,-0.00013,-0.00024,-6e-05,2e-05,0.00021,0.0001,2,12
6366,0,-0.00014,-0.00013,-0.00024,-6e-05,2e-05,0.00021,0.0001,2,12
6367,0,-0.00014,-0.00013,-0.00024,-6e-05,2e-05,0.00021,0.0001,2,12
6368,0,-0.00014,-0.00013,-0.00024,-6e-05,2e-05,0.00021,0.0001,2,12
6369,0,-0.00014,-0.00013,-0.00024,-6e-05,2e-05,0.00021,0.0001,2,12
6370,-2e-05,-0.00012,-2e-05,4e-05,-4e-05,2e-05,-6e-05,2e-05,2,12
6371,-1e-05,3e-05,0.00014,0.00015,-1e-05,-1e-05,-0.0002,-0.00011,2,12
6372,3e-05,4e-05,-8e-05,-8e-05,6e-05,8e-05,5e-05,6e-05,2,12
6373,3e-05,4e-05,-8e-05,-8e-05,6e-05,8e-05,5e-05,6e-05,2,12
6374,3e-05,4e-05,-8e-05,-8e-05,6e-05,8e-05,5e-05,6e-05,2,12
6375,3e-05,4e-05,-8e-05,-8e-05,6e-05,8e-05,5e-05,6e-05,2,12
6376,3e-05,4e-05,-8e-05,-8e-05,6e-05,8e-05,5e-05,6e-05,2,12
6377,3e-05,4e-05,-8e-05,-8e-05,6e-05,8e-05,5e-05,6e-05,2,12
6378,3e-05,4e-05,-8e-05,-8e-05,6e-05,8e-05,5e-05,6e-05,2,12
6379,3e-05,4e-05,-8e-05,-8e-05,6e-05,8e-05,5e-05,6e-05,2,12
6380,3e-05,4e-05,-8e-05,-8e-05,6e-05,8e-05,5e-05,6e-05,2,12
6381,3e-05,4e-05,-8e-05,-8e-05,6e-05,8e-05,5e-05,6e-05,2,12
6382,3e-05,4e-05,-8e-05,-8e-05,6e-05,8e-05,5e-05,6e-05,2,12
6383,3e-05,4e-05,-8e-05,-8e-05,6e-05,8e-05,5e-05,6e-05,2,12
6384,3e-05,4e-05,-8e-05,-8e-05,6e-05,8e-05,5e-05,6e-05,2,12
6385,3e-05,4e-05,-8e-05,-8e-05,6e-05,8e-05,5e-05,6e-05,2,12
6386,3e-05,4e-05,-8e-05,-8e-05,6e-05,8e-05,5e-05,6e-05,2,12
6388,3e-05,4e-05,-8e-05,-8e-05,6e-05,8e-05,5e-05,6e-05,2,12
6389,3e-05,4e-05,-8e-05,-8e-05,6e-05,8e-05,5e-05,6e-05,2,12
6390,3e-05,4e-05,-8e-05,-8e-05,6e-05,8e-05,5e-05,6e-05,2,12
6391,3e-05,4e-05,-8e-05,-8e-05,6e-05,8e-05,5e-05,6e-05,2,12
6392,-5e-05,-8e-05,-9e-05,-0.00011,3e-05,-2e-05,-0.00012,-7e-05,2,12
6393,-5e-05,-8e-05,-9e-05,-0.00011,3e-05,-2e-05,-0.00012,-7e-05,2,12
6394,6e-05,6e-05,-4e-05,-0.00024,-0.00013,-8e-05,-4e-05,-5e-05,2,12
6395,6e-05,6e-05,-4e-05,-0.00024,-0.00013,-8e-05,-4e-05,-5e-05,2,12
6396,6e-05,6e-05,-4e-05,-0.00024,-0.00013,-8e-05,-4e-05,-5e-05,2,12
6397,6e-05,6e-05,-4e-05,-0.00024,-0.00013,-8e-05,-4e-05,-5e-05,2,12
6398,6e-05,6e-05,-4e-05,-0.00024,-0.00013,-8e-05,-4e-05,-5e-05,2,12
6399,6e-05,6e-05,-4e-05,-0.00024,-0.00013,-8e-05,-4e-05,-5e-05,2,12
6400,6e-05,6e-05,-4e-05,-0.00024,-0.00013,-8e-05,-4e-05,-5e-05,2,12
6401,6e-05,6e-05,-4e-05,-0.00024,-0.00013,-8e-05,-4e-05,-5e-05,2,12
6402,6e-05,6e-05,-4e-05,-0.00024,-0.00013,-8e-05,-4e-05,-5e-05,2,12
6403,6e-05,6e-05,-4e-05,-0.00024,-0.00013,-8e-05,-4e-05,-5e-05,2,12
6404,6e-05,6e-05,-4e-05,-0.00024,-0.00013,-8e-05,-4e-05,-5e-05,2,12
6405,6e-05,6e-05,-4e-05,-0.00024,-0.00013,-8e-05,-4e-05,-5e-05,2,12
6406,6e-05,6e-05,-4e-05,-0.00024,-0.00013,-8e-05,-4e-05,-5e-05,2,12
6407,6e-05,6e-05,-4e-05,-0.00024,-0.00013,-8e-05,-4e-05,-5e-05,2,12
6408,6e-05,6e-05,-4e-05,-0.00024,-0.00013,-8e-05,-4e-05,-5e-05,2,12
6409,6e-05,6e-05,-4e-05,-0.00024,-0.00013,-8e-05,-4e-05,-5e-05,2,12
6410,6e-05,6e-05,-4e-05,-0.00024,-0.00013,-8e-05,-4e-05,-5e-05,2,12
6411,6e-05,6e-05,-4e-05,-0.00024,-0.00013,-8e-05,-4e-05,-5e-05,2,12
6412,6e-05,6e-05,-4e-05,-0.00024,-0.00013,-8e-05,-4e-05,-5e-05,2,12
6413,6e-05,6e-05,-4e-05,-0.00024,-0.00013,-8e-05,-4e-05,-5e-05,2,12
6414,6e-05,6e-05,-4e-05,-0.00024,-0.00013,-8e-05,-4e-05,-5e-05,2,12
6415,6e-05,6e-05,-4e-05,-0.00024,-0.00013,-8e-05,-4e-05,-5e-05,2,12
6416,-0.00017,-0.0002,-5e-05,-7e-05,1e-05,-1e-05,-8e-05,-0.00013,2,12
6417,-0.00017,-0.0002,-5e-05,-7e-05,1e-05,-1e-05,-8e-05,-0.00013,2,12
6418,-0.00017,-0.0002,-5e-05,-7e-05,1e-05,-1e-05,-8e-05,-0.00013,2,12
6419,-0.00017,-0.0002,-5e-05,-7e-05,1e-05,-1e-05,-8e-05,-0.00013,2,12
6420,-0.00017,-0.0002,-5e-05,-7e-05,1e-05,-1e-05,-8e-05,-0.00013,2,12
6421,-0.00017,-0.0002,-5e-05,-7e-05,1e-05,-1e-05,-8e-05,-0.00013,2,12
6422,-0.00017,-0.0002,-5e-05,-7e-05,1e-05,-1e-05,-8e-05,-0.00013,2,12
6423,-0.00017,-0.0002,-5e-05,-7e-05,1e-05,-1e-05,-8e-05,-0.00013,2,12
6424,-0.00017,-0.0002,-5e-05,-7e-05,1e-05,-1e-05,-8e-05,-0.00013,2,12
6425,-0.00017,-0.0002,-5e-05,-7e-05,1e-05,-1e-05,-8e-05,-0.00013,2,12
6426,-0.00017,-0.0002,-5e-05,-7e-05,1e-05,-1e-05,-8e-05,-0.00013,2,12
6427,-0.00017,-0.0002,-5e-05,-7e-05,1e-05,-1e-05,-8e-05,-0.00013,2,12
6428,-0.00017,-0.0002,-5e-05,-7e-05,1e-05,-1e-05,-8e-05,-0.00013,2,12
6429,-0.00017,-0.0002,-5e-05,-7e-05,1e-05,-1e-05,-8e-05,-0.00013,2,12
6430,0.00011,6e-05,-3e-05,-0.00023,-9e-05,0,0.0004,0.00011,2,12
6431,-0.00015,-0.00035,4e-05,0.00019,5e-05,-3e-05,-0.0002,-6e-05,2,12
6432,7e-05,6e-05,3e-05,0,-7e-05,-7e-05,-0.00021,-0.00014,2,12
6433,7e-05,6e-05,3e-05,0,-7e-05,-7e-05,-0.00021,-0.00014,2,12
6434,7e-05,6e-05,3e-05,0,-7e-05,-7e-05,-0.00021,-0.00014,2,12
6435,7e-05,6e-05,3e-05,0,-7e-05,-7e-05,-0.00021,-0.00014,2,12
6436,7e-05,6e-05,3e-05,0,-7e-05,-7e-05,-0.00021,-0.00014,2,12
6438,7e-05,6e-05,3e-05,0,-7e-05,-7e-05,-0.00021,-0.00014,2,12
6439,7e-05,6e-05,3e-05,0,-7e-05,-7e-05,-0.00021,-0.00014,2,12
6440,7e-05,6e-05,3e-05,0,-7e-05,-7e-05,-0.00021,-0.00014,2,12
6441,7e-05,6e-05,3e-05,0,-7e-05,-7e-05,-0.00021,-0.00014,2,12
6442,7e-05,6e-05,3e-05,0,-7e-05,-7e-05,-0.00021,-0.00014,2,12
6443,7e-05,6e-05,3e-05,0,-7e-05,-7e-05,-0.00021,-0.00014,2,12
6444,7e-05,6e-05,3e-05,0,-7e-05,-7e-05,-0.00021,-0.00014,2,12
6445,7e-05,6e-05,3e-05,0,-7e-05,-7e-05,-0.00021,-0.00014,2,12
6446,7e-05,6e-05,3e-05,0,-7e-05,-7e-05,-0.00021,-0.00014,2,12
6447,7e-05,6e-05,3e-05,0,-7e-05,-7e-05,-0.00021,-0.00014,2,12
6448,7e-05,6e-05,3e-05,0,-7e-05,-7e-05,-0.00021,-0.00014,2,12
6449,7e-05,6e-05,3e-05,0,-7e-05,-7e-05,-0.00021,-0.00014,2,12
6450,7e-05,6e-05,3e-05,0,-7e-05,-7e-05,-0.00021,-0.00014,2,12
6451,7e-05,6e-05,3e-05,0,-7e-05,-7e-05,-0.00021,-0.00014,2,12
6452,2e-05,9e-05,3e-05,-0.00011,-3e-05,-1e-05,-1e-05,-4e-05,2,12
6453,2e-05,9e-05,3e-05,-0.00011,-3e-05,-1e-05,-1e-05,-4e-05,2,12
6454,1e-05,-3e-05,0.00013,0.00055,3e-05,3e-05,0.00012,5e-05,2,12
6455,1e-05,-3e-05,0.00013,0.00055,3e-05,3e-05,0.00012,5e-05,2,12
6456,1e-05,-3e-05,0.00013,0.00055,3e-05,3e-05,0.00012,5e-05,2,12
6457,1e-05,-3e-05,0.00013,0.00055,3e-05,3e-05,0.00012,5e-05,2,12
6458,1e-05,-3e-05,0.00013,0.00055,3e-05,3e-05,0.00012,5e-05,2,12
6459,1e-05,-3e-05,0.00013,0.00055,3e-05,3e-05,0.00012,5e-05,2,12
6460,1e-05,-3e-05,0.00013,0.00055,3e-05,3e-05,0.00012,5e-05,2,12
6461,1e-05,-3e-05,0.00013,0.00055,3e-05,3e-05,0.00012,5e-05,2,12
6462,1e-05,-3e-05,0.00013,0.00055,3e-05,3e-05,0.00012,5e-05,2,12
6463,1e-05,-3e-05,0.00013,0.00055,3e-05,3e-05,0.00012,5e-05,2,12
6464,1e-05,-3e-05,0.00013,0.00055,3e-05,3e-05,0.00012,5e-05,2,12
6465,1e-05,-3e-05,0.00013,0.00055,3e-05,3e-05,0.00012,5e-05,2,12
6466,1e-05,-3e-05,0.00013,0.00055,3e-05,3e-05,0.00012,5e-05,2,12
6467,1e-05,-3e-05,0.00013,0.00055,3e-05,3e-05,0.00012,5e-05,2,12
6468,1e-05,-3e-05,0.00013,0.00055,3e-05,3e-05,0.00012,5e-05,2,12
6469,1e-05,-3e-05,0.00013,0.00055,3e-05,3e-05,0.00012,5e-05,2,12
6470,1e-05,-3e-05,0.00013,0.00055,3e-05,3e-05,0.00012,5e-05,2,12
6471,1e-05,-3e-05,0.00013,0.00055,3e-05,3e-05,0.00012,5e-05,2,12
6472,1e-05,-3e-05,0.00013,0.00055,3e-05,3e-05,0.00012,5e-05,2,12
6473,1e-05,-3e-05,0.00013,0.00055,3e-05,3e-05,0.00012,5e-05,2,12
6474,1e-05,-3e-05,0.00013,0.00055,3e-05,3e-05,0.00012,5e-05,2,12
6475,-9e-05,-9e-05,-0.00012,-0.0003,-7e-05,-9e-05,-0.00037,-9e-05,2,12
6476,1e-05,2e-05,2e-05,-0.0001,-0.00014,-1e-05,0.00051,0.0001,2,12
6477,-0.00011,-5e-05,-9e-05,0.0001,3e-05,-1e-05,1e-05,-5e-05,2,12
6478,-0.00011,-5e-05,-9e-05,0.0001,3e-05,-1e-05,1e-05,-5e-05,2,12
6479,-0.00011,-5e-05,-9e-05,0.0001,3e-05,-1e-05,1e-05,-5e-05,2,12
6480,-0.00011,-5e-05,-9e-05,0.0001,3e-05,-1e-05,1e-05,-5e-05,2,12
6481,-0.00011,-5e-05,-9e-05,0.0001,3e-05,-1e-05,1e-05,-5e-05,2,12
6482,-0.00011,-5e-05,-9e-05,0.0001,3e-05,-1e-05,1e-05,-5e-05,2,12
6483,-0.00011,-5e-05,-9e-05,0.0001,3e-05,-1e-05,1e-05,-5e-05,2,12
6484,-0.00011,-5e-05,-9e-05,0.0001,3e-05,-1e-05,1e-05,-5e-05,2,12
6485,-0.00011,-5e-05,-9e-05,0.0001,3e-05,-1e-05,1e-05,-5e-05,2,12
6486,-0.00011,-5e-05,-9e-05,0.0001,3e-05,-1e-05,1e-05,-5e-05,2,12
6489,-0.00011,-5e-05,-9e-05,0.0001,3e-05,-1e-05,1e-05,-5e-05,2,12
6490,-2e-05,-0.00012,0.00011,0.00032,-3e-05,2e-05,0.0003,-1e-05,2,12
6491,-0.0001,2e-05,-0.00019,-0.00024,-0.00011,-3e-05,-0.00012,-0.00011,2,12
6492,1e-05,0.00012,6e-05,0.0002,0.00011,-2e-05,0.00018,5e-05,2,12
6493,1e-05,0.00012,6e-05,0.0002,0.00011,-2e-05,0.00018,5e-05,2,12
6494,1e-05,0.00012,6e-05,0.0002,0.00011,-2e-05,0.00018,5e-05,2,12
6495,1e-05,0.00012,6e-05,0.0002,0.00011,-2e-05,0.00018,5e-05,2,12
6496,1e-05,0.00012,6e-05,0.0002,0.00011,-2e-05,0.00018,5e-05,2,12
6497,1e-05,0.00012,6e-05,0.0002,0.00011,-2e-05,0.00018,5e-05,2,12
6498,1e-05,0.00012,6e-05,0.0002,0.00011,-2e-05,0.00018,5e-05,2,12
6499,1e-05,0.00012,6e-05,0.0002,0.00011,-2e-05,0.00018,5e-05,2,12
6500,1e-05,0.00012,6e-05,0.0002,0.00011,-2e-05,0.00018,5e-05,2,12
6501,1e-05,0.00012,6e-05,0.0002,0.00011,-2e-05,0.00018,5e-05,2,12
6502,1e-05,0.00012,6e-05,0.0002,0.00011,-2e-05,0.00018,5e-05,2,12
6503,1e-05,0.00012,6e-05,0.0002,0.00011,-2e-05,0.00018,5e-05,2,12
6504,1e-05,0.00012,6e-05,0.0002,0.00011,-2e-05,0.00018,5e-05,2,12
6505,1e-05,0.00012,6e-05,0.0002,0.00011,-2e-05,0.00018,5e-05,2,12
6506,1e-05,0.00012,6e-05,0.0002,0.00011,-2e-05,0.00018,5e-05,2,12
6507,1e-05,0.00012,6e-05,0.0002,0.00011,-2e-05,0.00018,5e-05,2,12
6508,1e-05,0.00012,6e-05,0.0002,0.00011,-2e-05,0.00018,5e-05,2,12
6509,1e-05,0.00012,6e-05,0.0002,0.00011,-2e-05,0.00018,5e-05,2,12
6510,1e-05,0.00012,6e-05,0.0002,0.00011,-2e-05,0.00018,5e-05,2,12
6511,1e-05,0.00012,6e-05,0.0002,0.00011,-2e-05,0.00018,5e-05,2,12
6512,-1e-05,-5e-05,-0.00012,-4e-05,5e-05,1e-05,-0.0001,-4e-05,2,12
6513,-1e-05,-5e-05,-0.00012,-4e-05,5e-05,1e-05,-0.0001,-4e-05,2,12
6514,0,-2e-05,2e-05,-0.00026,-9e-05,-3e-05,0.00011,2e-05,2,12
6515,0,-2e-05,2e-05,-0.00026,-9e-05,-3e-05,0.00011,2e-05,2,12
6516,0,-2e-05,2e-05,-0.00026,-9e-05,-3e-05,0.00011,2e-05,2,12
6517,0,-2e-05,2e-05,-0.00026,-9e-05,-3e-05,0.00011,2e-05,2,12
6518,0,-2e-05,2e-05,-0.00026,-9e-05,-3e-05,0.00011,2e-05,2,12
6519,0,-2e-05,2e-05,-0.00026,-9e-05,-3e-05,0.00011,2e-05,2,12
6520,0,-2e-05,2e-05,-0.00026,-9e-05,-3e-05,0.00011,2e-05,2,12
6521,0,-2e-05,2e-05,-0.00026,-9e-05,-3e-05,0.00011,2e-05,2,12
6522,0,-2e-05,2e-05,-0.00026,-9e-05,-3e-05,0.00011,2e-05,2,12
6523,0,-2e-05,2e-05,-0.00026,-9e-05,-3e-05,0.00011,2e-05,2,12
6524,0,-2e-05,2e-05,-0.00026,-9e-05,-3e-05,0.00011,2e-05,2,12
6525,0,-2e-05,2e-05,-0.00026,-9e-05,-3e-05,0.00011,2e-05,2,12
6526,0,-2e-05,2e-05,-0.00026,-9e-05,-3e-05,0.00011,2e-05,2,12
6527,0,-2e-05,2e-05,-0.00026,-9e-05,-3e-05,0.00011,2e-05,2,12
6528,0,-2e-05,2e-05,-0.00026,-9e-05,-3e-05,0.00011,2e-05,2,12
6529,0,-2e-05,2e-05,-0.00026,-9e-05,-3e-05,0.00011,2e-05,2,12
6530,0,-2e-05,2e-05,-0.00026,-9e-05,-3e-05,0.00011,2e-05,2,12
6531,0,-2e-05,2e-05,-0.00026,-9e-05,-3e-05,0.00011,2e-05,2,12
6532,0,-2e-05,2e-05,-0.00026,-9e-05,-3e-05,0.00011,2e-05,2,12
6533,0,-2e-05,2e-05,-0.00026,-9e-05,-3e-05,0.00011,2e-05,2,12
6534,0,-2e-05,2e-05,-0.00026,-9e-05,-3e-05,0.00011,2e-05,2,12
6535,-2e-05,-3e-05,1e-05,7e-05,-9e-05,-6e-05,-3e-05,8e-05,2,12
6536,-2e-05,-3e-05,1e-05,7e-05,-9e-05,-6e-05,-3e-05,8e-05,2,12
6538,-8e-05,-0.00018,-5e-05,8e-05,0,4e-05,0.00041,-5e-05,2,12
6539,-8e-05,-0.00018,-5e-05,8e-05,0,4e-05,0.00041,-5e-05,2,12
6540,-8e-05,-0.00018,-5e-05,8e-05,0,4e-05,0.00041,-5e-05,2,12
6541,-8e-05,-0.00018,-5e-05,8e-05,0,4e-05,0.00041,-5e-05,2,12
6542,-8e-05,-0.00018,-5e-05,8e-05,0,4e-05,0.00041,-5e-05,2,12
6543,-8e-05,-0.00018,-5e-05,8e-05,0,4e-05,0.00041,-5e-05,2,12
6544,-8e-05,-0.00018,-5e-05,8e-05,0,4e-05,0.00041,-5e-05,2,12
6545,-8e-05,-0.00018,-5e-05,8e-05,0,4e-05,0.00041,-5e-05,2,12
6546,-8e-05,-0.00018,-5e-05,8e-05,0,4e-05,0.00041,-5e-05,2,12
6547,-8e-05,-0.00018,-5e-05,8e-05,0,4e-05,0.00041,-5e-05,2,12
6548,-8e-05,-0.00018,-5e-05,8e-05,0,4e-05,0.00041,-5e-05,2,12
6549,0,7e-05,4e-05,0.00026,8e-05,3e-05,-0.00021,1e-05,2,12
6550,0,7e-05,4e-05,0.00026,8e-05,3e-05,-0.00021,1e-05,2,12
6551,0,7e-05,4e-05,0.00026,8e-05,3e-05,-0.00021,1e-05,2,12
6552,0,7e-05,4e-05,0.00026,8e-05,3e-05,-0.00021,1e-05,2,12
6553,0,7e-05,4e-05,0.00026,8e-05,3e-05,-0.00021,1e-05,2,12
6554,0,7e-05,4e-05,0.00026,8e-05,3e-05,-0.00021,1e-05,2,12
6555,0,7e-05,4e-05,0.00026,8e-05,3e-05,-0.00021,1e-05,2,12
6556,4e-05,7e-05,7e-05,0.00016,-4e-05,-2e-05,-5e-05,4e-05,2,12
6557,4e-05,7e-05,7e-05,0.00016,-4e-05,-2e-05,-5e-05,4e-05,2,12
6558,4e-05,7e-05,7e-05,0.00016,-4e-05,-2e-05,-5e-05,4e-05,2,12
6559,4e-05,7e-05,7e-05,0.00016,-4e-05,-2e-05,-5e-05,4e-05,2,12
6560,4e-05,7e-05,7e-05,0.00016,-4e-05,-2e-05,-5e-05,4e-05,2,12
6561,4e-05,7e-05,7e-05,0.00016,-4e-05,-2e-05,-5e-05,4e-05,2,12
6562,4e-05,7e-05,7e-05,0.00016,-4e-05,-2e-05,-5e-05,4e-05,2,12
6563,4e-05,7e-05,7e-05,0.00016,-4e-05,-2e-05,-5e-05,4e-05,2,12
6564,4e-05,7e-05,7e-05,0.00016,-4e-05,-2e-05,-5e-05,4e-05,2,12
6565,4e-05,7e-05,7e-05,0.00016,-4e-05,-2e-05,-5e-05,4e-05,2,12
6566,4e-05,7e-05,7e-05,0.00016,-4e-05,-2e-05,-5e-05,4e-05,2,12
6567,4e-05,7e-05,7e-05,0.00016,-4e-05,-2e-05,-5e-05,4e-05,2,12
6568,4e-05,7e-05,7e-05,0.00016,-4e-05,-2e-05,-5e-05,4e-05,2,12
6569,4e-05,7e-05,7e-05,0.00016,-4e-05,-2e-05,-5e-05,4e-05,2,12
6570,4e-05,7e-05,7e-05,0.00016,-4e-05,-2e-05,-5e-05,4e-05,2,12
6571,4e-05,7e-05,7e-05,0.00016,-4e-05,-2e-05,-5e-05,4e-05,2,12
6572,-1e-05,-3e-05,0,-8e-05,-5e-05,-6e-05,-1e-05,-6e-05,2,12
6573,-1e-05,-3e-05,0,-8e-05,-5e-05,-6e-05,-1e-05,-6e-05,2,12
6574,0,-2e-05,-0.0001,-0.00019,9e-05,-1e-05,-0.0002,-6e-05,2,12
6575,0,-2e-05,-0.0001,-0.00019,9e-05,-1e-05,-0.0002,-6e-05,2,12
6576,0,-2e-05,-0.0001,-0.00019,9e-05,-1e-05,-0.0002,-6e-05,2,12
6577,0,-2e-05,-0.0001,-0.00019,9e-05,-1e-05,-0.0002,-6e-05,2,12
6578,0,-2e-05,-0.0001,-0.00019,9e-05,-1e-05,-0.0002,-6e-05,2,12
6579,0,-2e-05,-0.0001,-0.00019,9e-05,-1e-05,-0.0002,-6e-05,2,12
6580,0,-2e-05,-0.0001,-0.00019,9e-05,-1e-05,-0.0002,-6e-05,2,12
6581,0,-2e-05,-0.0001,-0.00019,9e-05,-1e-05,-0.0002,-6e-05,2,12
6582,0,-2e-05,-0.0001,-0.00019,9e-05,-1e-05,-0.0002,-6e-05,2,12
6583,0,-2e-05,-0.0001,-0.00019,9e-05,-1e-05,-0.0002,-6e-05,2,12
6584,0,-2e-05,-0.0001,-0.00019,9e-05,-1e-05,-0.0002,-6e-05,2,12
6585,0,-2e-05,-0.0001,-0.00019,9e-05,-1e-05,-0.0002,-6e-05,2,12
6586,0,-2e-05,-0.0001,-0.00019,9e-05,-1e-05,-0.0002,-6e-05,2,12
6588,0,-2e-05,-0.0001,-0.00019,9e-05,-1e-05,-0.0002,-6e-05,2,12
6589,0,-2e-05,-0.0001,-0.00019,9e-05,-1e-05,-0.0002,-6e-05,2,12
6590,0,-2e-05,-0.0001,-0.00019,9e-05,-1e-05,-0.0002,-6e-05,2,12
6591,0,-2e-05,-0.0001,-0.00019,9e-05,-1e-05,-0.0002,-6e-05,2,12
6592,0,-2e-05,-0.0001,-0.00019,9e-05,-1e-05,-0.0002,-6e-05,2,12
6593,0,-2e-05,-0.0001,-0.00019,9e-05,-1e-05,-0.0002,-6e-05,2,12
6594,0,0.0001,6e-05,9e-05,0.00011,4e-05,4e-05,0,2,12
6595,4e-05,3e-05,2e-05,-0.00019,-8e-05,-7e-05,-0.00014,-2e-05,2,12
6596,4e-05,3e-05,2e-05,-0.00019,-8e-05,-7e-05,-0.00014,-2e-05,2,12
6597,4e-05,3e-05,2e-05,-0.00019,-8e-05,-7e-05,-0.00014,-2e-05,2,12
6598,4e-05,3e-05,2e-05,-0.00019,-8e-05,-7e-05,-0.00014,-2e-05,2,12
6599,4e-05,3e-05,2e-05,-0.00019,-8e-05,-7e-05,-0.00014,-2e-05,2,12
6600,4e-05,3e-05,2e-05,-0.00019,-8e-05,-7e-05,-0.00014,-2e-05,2,12
6601,4e-05,3e-05,2e-05,-0.00019,-8e-05,-7e-05,-0.00014,-2e-05,2,12
6602,4e-05,3e-05,2e-05,-0.00019,-8e-05,-7e-05,-0.00014,-2e-05,2,12
6603,4e-05,3e-05,2e-05,-0.00019,-8e-05,-7e-05,-0.00014,-2e-05,2,12
6604,4e-05,3e-05,2e-05,-0.00019,-8e-05,-7e-05,-0.00014,-2e-05,2,12
6605,4e-05,3e-05,2e-05,-0.00019,-8e-05,-7e-05,-0.00014,-2e-05,2,12
6606,4e-05,3e-05,2e-05,-0.00019,-8e-05,-7e-05,-0.00014,-2e-05,2,12
6607,4e-05,3e-05,2e-05,-0.00019,-8e-05,-7e-05,-0.00014,-2e-05,2,12
6608,-0.00015,-0.00013,-8e-05,0.0002,7e-05,-2e-05,-2e-05,-1e-05,2,12
6609,0,-0.0001,0,3e-05,2e-05,-5e-05,-1e-05,2e-05,2,12
6610,0,-0.0001,0,3e-05,2e-05,-5e-05,-1e-05,2e-05,2,12
6611,0,-0.0001,0,3e-05,2e-05,-5e-05,-1e-05,2e-05,2,12
6612,0,-0.0001,0,3e-05,2e-05,-5e-05,-1e-05,2e-05,2,12
6613,0,-0.0001,0,3e-05,2e-05,-5e-05,-1e-05,2e-05,2,12
6614,0,-0.0001,0,3e-05,2e-05,-5e-05,-1e-05,2e-05,2,12
6615,0,-0.0001,0,3e-05,2e-05,-5e-05,-1e-05,2e-05,2,12
6616,0,-0.0001,0,3e-05,2e-05,-5e-05,-1e-05,2e-05,2,12
6617,1e-05,1e-05,-7e-05,-0.00024,-1e-05,2e-05,-0.00015,0,2,12
6618,1e-05,1e-05,-7e-05,-0.00024,-1e-05,2e-05,-0.00015,0,2,12
6619,1e-05,1e-05,-7e-05,-0.00024,-1e-05,2e-05,-0.00015,0,2,12
6620,1e-05,1e-05,-7e-05,-0.00024,-1e-05,2e-05,-0.00015,0,2,12
6621,1e-05,1e-05,-7e-05,-0.00024,-1e-05,2e-05,-0.00015,0,2,12
6622,1e-05,1e-05,-7e-05,-0.00024,-1e-05,2e-05,-0.00015,0,2,12
6623,1e-05,1e-05,-7e-05,-0.00024,-1e-05,2e-05,-0.00015,0,2,12
6624,1e-05,1e-05,-7e-05,-0.00024,-1e-05,2e-05,-0.00015,0,2,12
6625,1e-05,1e-05,-7e-05,-0.00024,-1e-05,2e-05,-0.00015,0,2,12
6626,1e-05,1e-05,-7e-05,-0.00024,-1e-05,2e-05,-0.00015,0,2,12
6627,1e-05,1e-05,-7e-05,-0.00024,-1e-05,2e-05,-0.00015,0,2,12
6628,1e-05,1e-05,-7e-05,-0.00024,-1e-05,2e-05,-0.00015,0,2,12
6629,1e-05,1e-05,-7e-05,-0.00024,-1e-05,2e-05,-0.00015,0,2,12
6630,1e-05,1e-05,-7e-05,-0.00024,-1e-05,2e-05,-0.00015,0,2,12
6631,1e-05,1e-05,-7e-05,-0.00024,-1e-05,2e-05,-0.00015,0,2,12
6632,0.00011,0.00014,-9e-05,0.00013,7e-05,3e-05,0.00013,7e-05,2,12
6633,-0.00012,-0.00046,-5e-05,-0.00047,-0.0001,-3e-05,-0.00023,-0.00014,2,12
6634,-0.00012,-0.00046,-5e-05,-0.00047,-0.0001,-3e-05,-0.00023,-0.00014,2,12
6635,-0.00012,-0.00046,-5e-05,-0.00047,-0.0001,-3e-05,-0.00023,-0.00014,2,12
6636,-0.00012,-0.00046,-5e-05,-0.00047,-0.0001,-3e-05,-0.00023,-0.00014,2,12
6638,-0.00012,-0.00046,-5e-05,-0.00047,-0.0001,-3e-05,-0.00023,-0.00014,2,12
6639,-0.00012,-0.00046,-5e-05,-0.00047,-0.0001,-3e-05,-0.00023,-0.00014,2,12
6640,-0.00012,-0.00046,-5e-05,-0.00047,-0.0001,-3e-05,-0.00023,-0.00014,2,12
6641,-0.00012,-0.00046,-5e-05,-0.00047,-0.0001,-3e-05,-0.00023,-0.00014,2,12
6642,-0.00012,-0.00046,-5e-05,-0.00047,-0.0001,-3e-05,-0.00023,-0.00014,2,12
6643,-0.00012,-0.00046,-5e-05,-0.00047,-0.0001,-3e-05,-0.00023,-0.00014,2,12
6644,-0.00012,-0.00046,-5e-05,-0.00047,-0.0001,-3e-05,-0.00023,-0.00014,2,12
6645,-0.00012,-0.00046,-5e-05,-0.00047,-0.0001,-3e-05,-0.00023,-0.00014,2,12
6646,-0.00012,-0.00046,-5e-05,-0.00047,-0.0001,-3e-05,-0.00023,-0.00014,2,12
6647,-0.00012,-0.00046,-5e-05,-0.00047,-0.0001,-3e-05,-0.00023,-0.00014,2,12
6648,-0.00012,-0.00046,-5e-05,-0.00047,-0.0001,-3e-05,-0.00023,-0.00014,2,12
6649,-0.00012,-0.00046,-5e-05,-0.00047,-0.0001,-3e-05,-0.00023,-0.00014,2,12
6650,-0.00012,-0.00046,-5e-05,-0.00047,-0.0001,-3e-05,-0.00023,-0.00014,2,12
6651,-0.00012,-0.00046,-5e-05,-0.00047,-0.0001,-3e-05,-0.00023,-0.00014,2,12
6652,-0.00012,-0.00046,-5e-05,-0.00047,-0.0001,-3e-05,-0.00023,-0.00014,2,12
6653,-0.00012,-0.00046,-5e-05,-0.00047,-0.0001,-3e-05,-0.00023,-0.00014,2,12
6654,0,-2e-05,-9e-05,-7e-05,-7e-05,-3e-05,-0.00012,-5e-05,2,12
6655,0,0.00012,6e-05,0.00038,1e-05,1e-05,0.00011,8e-05,2,12
6656,0,0.00012,6e-05,0.00038,1e-05,1e-05,0.00011,8e-05,2,12
6657,0,0.00012,6e-05,0.00038,1e-05,1e-05,0.00011,8e-05,2,12
6658,0,0.00012,6e-05,0.00038,1e-05,1e-05,0.00011,8e-05,2,12
6659,0,0.00012,6e-05,0.00038,1e-05,1e-05,0.00011,8e-05,2,12
6660,0,0.00012,6e-05,0.00038,1e-05,1e-05,0.00011,8e-05,2,12
6661,0,0.00012,6e-05,0.00038,1e-05,1e-05,0.00011,8e-05,2,12
6662,0,0.00012,6e-05,0.00038,1e-05,1e-05,0.00011,8e-05,2,12
6663,0,0.00012,6e-05,0.00038,1e-05,1e-05,0.00011,8e-05,2,12
6664,0,0.00012,6e-05,0.00038,1e-05,1e-05,0.00011,8e-05,2,12
6665,0,0.00012,6e-05,0.00038,1e-05,1e-05,0.00011,8e-05,2,12
6666,0,0.00012,6e-05,0.00038,1e-05,1e-05,0.00011,8e-05,2,12
6667,0,0.00012,6e-05,0.00038,1e-05,1e-05,0.00011,8e-05,2,12
6668,0,0.00012,6e-05,0.00038,1e-05,1e-05,0.00011,8e-05,2,12
6669,5e-05,5e-05,2e-05,0.0001,0.00017,0.00012,-7e-05,-3e-05,2,12
6670,5e-05,5e-05,2e-05,0.0001,0.00017,0.00012,-7e-05,-3e-05,2,12
6671,5e-05,5e-05,2e-05,0.0001,0.00017,0.00012,-7e-05,-3e-05,2,12
6672,5e-05,5e-05,2e-05,0.0001,0.00017,0.00012,-7e-05,-3e-05,2,12
6673,5e-05,5e-05,2e-05,0.0001,0.00017,0.00012,-7e-05,-3e-05,2,12
6674,5e-05,5e-05,2e-05,0.0001,0.00017,0.00012,-7e-05,-3e-05,2,12
6675,5e-05,5e-05,2e-05,0.0001,0.00017,0.00012,-7e-05,-3e-05,2,12
6676,5e-05,5e-05,2e-05,0.0001,0.00017,0.00012,-7e-05,-3e-05,2,12
6677,3e-05,9e-05,-2e-05,1e-05,-4e-05,-2e-05,7e-05,2e-05,2,12
6678,3e-05,9e-05,-2e-05,1e-05,-4e-05,-2e-05,7e-05,2e-05,2,12
6679,3e-05,9e-05,-2e-05,1e-05,-4e-05,-2e-05,7e-05,2e-05,2,12
6680,3e-05,9e-05,-2e-05,1e-05,-4e-05,-2e-05,7e-05,2e-05,2,12
6681,3e-05,9e-05,-2e-05,1e-05,-4e-05,-2e-05,7e-05,2e-05,2,12
6682,3e-05,9e-05,-2e-05,1e-05,-4e-05,-2e-05,7e-05,2e-05,2,12
6683,3e-05,9e-05,-2e-05,1e-05,-4e-05,-2e-05,7e-05,2e-05,2,12
6684,3e-05,9e-05,-2e-05,1e-05,-4e-05,-2e-05,7e-05,2e-05,2,12
6685,3e-05,9e-05,-2e-05,1e-05,-4e-05,-2e-05,7e-05,2e-05,2,12
6686,3e-05,9e-05,-2e-05,1e-05,-4e-05,-2e-05,7e-05,2e-05,2,12
6688,3e-05,9e-05,-2e-05,1e-05,-4e-05,-2e-05,7e-05,2e-05,2,12
6689,3e-05,9e-05,-2e-05,1e-05,-4e-05,-2e-05,7e-05,2e-05,2,12
6690,3e-05,9e-05,-2e-05,1e-05,-4e-05,-2e-05,7e-05,2e-05,2,12
6691,3e-05,9e-05,-2e-05,1e-05,-4e-05,-2e-05,7e-05,2e-05,2,12
6692,-0.0001,-7e-05,4e-05,8e-05,0,0,-8e-05,-1e-05,2,12
6693,0.00011,0.00012,3e-05,6e-05,-3e-05,-5e-05,-0.00011,-4e-05,2,12
6694,0.00011,0.00012,3e-05,6e-05,-3e-05,-5e-05,-0.00011,-4e-05,2,12
6695,0.00011,0.00012,3e-05,6e-05,-3e-05,-5e-05,-0.00011,-4e-05,2,12
6696,0.00011,0.00012,3e-05,6e-05,-3e-05,-5e-05,-0.00011,-4e-05,2,12
6697,0.00011,0.00012,3e-05,6e-05,-3e-05,-5e-05,-0.00011,-4e-05,2,12
6698,0.00011,0.00012,3e-05,6e-05,-3e-05,-5e-05,-0.00011,-4e-05,2,12
6699,0.00011,0.00012,3e-05,6e-05,-3e-05,-5e-05,-0.00011,-4e-05,2,12
6700,0.00011,0.00012,3e-05,6e-05,-3e-05,-5e-05,-0.00011,-4e-05,2,12
6701,0.00011,0.00012,3e-05,6e-05,-3e-05,-5e-05,-0.00011,-4e-05,2,12
6702,0.00011,0.00012,3e-05,6e-05,-3e-05,-5e-05,-0.00011,-4e-05,2,12
6703,0.00011,0.00012,3e-05,6e-05,-3e-05,-5e-05,-0.00011,-4e-05,2,12
6704,0.00011,0.00012,3e-05,6e-05,-3e-05,-5e-05,-0.00011,-4e-05,2,12
6705,0.00011,0.00012,3e-05,6e-05,-3e-05,-5e-05,-0.00011,-4e-05,2,12
6706,0.00011,0.00012,3e-05,6e-05,-3e-05,-5e-05,-0.00011,-4e-05,2,12
6707,0.00011,0.00012,3e-05,6e-05,-3e-05,-5e-05,-0.00011,-4e-05,2,12
6708,0.00011,0.00012,3e-05,6e-05,-3e-05,-5e-05,-0.00011,-4e-05,2,12
6709,0.00011,0.00012,3e-05,6e-05,-3e-05,-5e-05,-0.00011,-4e-05,2,12
6710,0.00011,0.00012,3e-05,6e-05,-3e-05,-5e-05,-0.00011,-4e-05,2,12
6711,0.00011,0.00012,3e-05,6e-05,-3e-05,-5e-05,-0.00011,-4e-05,2,12
6712,0.00011,0.00012,3e-05,6e-05,-3e-05,-5e-05,-0.00011,-4e-05,2,12
6713,0.00011,0.00012,3e-05,6e-05,-3e-05,-5e-05,-0.00011,-4e-05,2,12
6714,-6e-05,-3e-05,-4e-05,-2e-05,-3e-05,0,0.00056,7e-05,2,12
6715,1e-05,4e-05,3e-05,4e-05,8e-05,0,0.00018,-1e-05,2,12
6716,-6e-05,9e-05,-9e-05,-0.00015,-8e-05,3e-05,0.00012,5e-05,2,12
6717,-6e-05,9e-05,-9e-05,-0.00015,-8e-05,3e-05,0.00012,5e-05,2,12
6718,-6e-05,9e-05,-9e-05,-0.00015,-8e-05,3e-05,0.00012,5e-05,2,12
6719,-6e-05,9e-05,-9e-05,-0.00015,-8e-05,3e-05,0.00012,5e-05,2,12
6720,-6e-05,9e-05,-9e-05,-0.00015,-8e-05,3e-05,0.00012,5e-05,2,12
6721,-6e-05,9e-05,-9e-05,-0.00015,-8e-05,3e-05,0.00012,5e-05,2,12
6722,-6e-05,9e-05,-9e-05,-0.00015,-8e-05,3e-05,0.00012,5e-05,2,12
6723,-6e-05,9e-05,-9e-05,-0.00015,-8e-05,3e-05,0.00012,5e-05,2,12
6724,-6e-05,9e-05,-9e-05,-0.00015,-8e-05,3e-05,0.00012,5e-05,2,12
6725,-6e-05,9e-05,-9e-05,-0.00015,-8e-05,3e-05,0.00012,5e-05,2,12
6726,-6e-05,9e-05,-9e-05,-0.00015,-8e-05,3e-05,0.00012,5e-05,2,12
6727,-6e-05,9e-05,-9e-05,-0.00015,-8e-05,3e-05,0.00012,5e-05,2,12
6728,-6e-05,9e-05,-9e-05,-0.00015,-8e-05,3e-05,0.00012,5e-05,2,12
6729,-7e-05,-2e-05,2e-05,0.00012,2e-05,-0.00011,-0.00015,-8e-05,2,12
6730,-7e-05,-2e-05,2e-05,0.00012,2e-05,-0.00011,-0.00015,-8e-05,2,12
6731,-7e-05,-2e-05,2e-05,0.00012,2e-05,-0.00011,-0.00015,-8e-05,2,12
6732,-7e-05,-2e-05,2e-05,0.00012,2e-05,-0.00011,-0.00015,-8e-05,2,12
6733,-7e-05,-2e-05,2e-05,0.00012,2e-05,-0.00011,-0.00015,-8e-05,2,12
6734,-7e-05,-2e-05,2e-05,0.00012,2e-05,-0.00011,-0.00015,-8e-05,2,12
6735,-7e-05,-2e-05,2e-05,0.00012,2e-05,-0.00011,-0.00015,-8e-05,2,12
6736,-7e-05,-2e-05,2e-05,0.00012,2e-05,-0.00011,-0.00015,-8e-05,2,12
6738,6e-05,7e-05,3e-05,0.00014,8e-05,-7e-05,-2e-05,2e-05,2,12
6739,6e-05,7e-05,3e-05,0.00014,8e-05,-7e-05,-2e-05,2e-05,2,12
6740,6e-05,7e-05,3e-05,0.00014,8e-05,-7e-05,-2e-05,2e-05,2,12
6741,6e-05,7e-05,3e-05,0.00014,8e-05,-7e-05,-2e-05,2e-05,2,12
6742,6e-05,7e-05,3e-05,0.00014,8e-05,-7e-05,-2e-05,2e-05,2,12
6743,6e-05,7e-05,3e-05,0.00014,8e-05,-7e-05,-2e-05,2e-05,2,12
6744,6e-05,7e-05,3e-05,0.00014,8e-05,-7e-05,-2e-05,2e-05,2,12
6745,6e-05,7e-05,3e-05,0.00014,8e-05,-7e-05,-2e-05,2e-05,2,12
6746,6e-05,7e-05,3e-05,0.00014,8e-05,-7e-05,-2e-05,2e-05,2,12
6747,6e-05,7e-05,3e-05,0.00014,8e-05,-7e-05,-2e-05,2e-05,2,12
6748,6e-05,7e-05,3e-05,0.00014,8e-05,-7e-05,-2e-05,2e-05,2,12
6749,6e-05,7e-05,3e-05,0.00014,8e-05,-7e-05,-2e-05,2e-05,2,12
6750,6e-05,7e-05,3e-05,0.00014,8e-05,-7e-05,-2e-05,2e-05,2,12
6751,6e-05,7e-05,3e-05,0.00014,8e-05,-7e-05,-2e-05,2e-05,2,12
6752,-2e-05,-0.00031,4e-05,0.00013,0.00012,-5e-05,-0.0001,-8e-05,2,12
6753,0,1e-05,-5e-05,-0.00019,-6e-05,1e-05,0.00011,1e-05,2,12
6754,0,1e-05,-5e-05,-0.00019,-6e-05,1e-05,0.00011,1e-05,2,12
6755,0,1e-05,-5e-05,-0.00019,-6e-05,1e-05,0.00011,1e-05,2,12
6756,0,1e-05,-5e-05,-0.00019,-6e-05,1e-05,0.00011,1e-05,2,12
6757,0,1e-05,-5e-05,-0.00019,-6e-05,1e-05,0.00011,1e-05,2,12
6758,0,1e-05,-5e-05,-0.00019,-6e-05,1e-05,0.00011,1e-05,2,12
6759,0,1e-05,-5e-05,-0.00019,-6e-05,1e-05,0.00011,1e-05,2,12
6760,0,1e-05,-5e-05,-0.00019,-6e-05,1e-05,0.00011,1e-05,2,12
6761,0,1e-05,-5e-05,-0.00019,-6e-05,1e-05,0.00011,1e-05,2,12
6762,0,1e-05,-5e-05,-0.00019,-6e-05,1e-05,0.00011,1e-05,2,12
6763,0,1e-05,-5e-05,-0.00019,-6e-05,1e-05,0.00011,1e-05,2,12
6764,0,1e-05,-5e-05,-0.00019,-6e-05,1e-05,0.00011,1e-05,2,12
6765,0,1e-05,-5e-05,-0.00019,-6e-05,1e-05,0.00011,1e-05,2,12
6766,0,1e-05,-5e-05,-0.00019,-6e-05,1e-05,0.00011,1e-05,2,12
6767,0,1e-05,-5e-05,-0.00019,-6e-05,1e-05,0.00011,1e-05,2,12
6768,0,1e-05,-5e-05,-0.00019,-6e-05,1e-05,0.00011,1e-05,2,12
6769,0,1e-05,-5e-05,-0.00019,-6e-05,1e-05,0.00011,1e-05,2,12
6770,0,1e-05,-5e-05,-0.00019,-6e-05,1e-05,0.00011,1e-05,2,12
6771,0,1e-05,-5e-05,-0.00019,-6e-05,1e-05,0.00011,1e-05,2,12
6772,0,1e-05,-5e-05,-0.00019,-6e-05,1e-05,0.00011,1e-05,2,12
6773,0,1e-05,-5e-05,-0.00019,-6e-05,1e-05,0.00011,1e-05,2,12
6774,1e-05,5e-05,2e-05,-0.00025,6e-05,3e-05,-7e-05,-6e-05,2,12
6775,2e-05,-5e-05,5e-05,0.00012,-7e-05,0.00012,0.00013,5e-05,2,12
6776,2e-05,-5e-05,5e-05,0.00012,-7e-05,0.00012,0.00013,5e-05,2,12
6777,2e-05,-5e-05,5e-05,0.00012,-7e-05,0.00012,0.00013,5e-05,2,12
6778,2e-05,-5e-05,5e-05,0.00012,-7e-05,0.00012,0.00013,5e-05,2,12
6779,2e-05,-5e-05,5e-05,0.00012,-7e-05,0.00012,0.00013,5e-05,2,12
6780,2e-05,-5e-05,5e-05,0.00012,-7e-05,0.00012,0.00013,5e-05,2,12
6781,2e-05,-5e-05,5e-05,0.00012,-7e-05,0.00012,0.00013,5e-05,2,12
6782,2e-05,-5e-05,5e-05,0.00012,-7e-05,0.00012,0.00013,5e-05,2,12
6783,2e-05,-5e-05,5e-05,0.00012,-7e-05,0.00012,0.00013,5e-05,2,12
6784,2e-05,-5e-05,5e-05,0.00012,-7e-05,0.00012,0.00013,5e-05,2,12
6785,2e-05,-5e-05,5e-05,0.00012,-7e-05,0.00012,0.00013,5e-05,2,12
6786,2e-05,-5e-05,5e-05,0.00012,-7e-05,0.00012,0.00013,5e-05,2,12
6788,2e-05,-5e-05,5e-05,0.00012,-7e-05,0.00012,0.00013,5e-05,2,12
6789,-2e-05,-2e-05,4e-05,0.00019,5e-05,2e-05,-4e-05,0,2,12
6790,-6e-05,-1e-05,3e-05,0.00019,-1e-05,-3e-05,8e-05,1e-05,2,12
6791,-6e-05,-1e-05,3e-05,0.00019,-1e-05,-3e-05,8e-05,1e-05,2,12
6792,-6e-05,-1e-05,3e-05,0.00019,-1e-05,-3e-05,8e-05,1e-05,2,12
6793,-6e-05,-1e-05,3e-05,0.00019,-1e-05,-3e-05,8e-05,1e-05,2,12
6794,-6e-05,-1e-05,3e-05,0.00019,-1e-05,-3e-05,8e-05,1e-05,2,12
6795,-6e-05,-1e-05,3e-05,0.00019,-1e-05,-3e-05,8e-05,1e-05,2,12
6796,-6e-05,-1e-05,3e-05,0.00019,-1e-05,-3e-05,8e-05,1e-05,2,12
6797,-6e-05,-1e-05,3e-05,0.00019,-1e-05,-3e-05,8e-05,1e-05,2,12
6798,-6e-05,-1e-05,3e-05,0.00019,-1e-05,-3e-05,8e-05,1e-05,2,12
6799,-6e-05,-1e-05,3e-05,0.00019,-1e-05,-3e-05,8e-05,1e-05,2,12
6800,-6e-05,-1e-05,3e-05,0.00019,-1e-05,-3e-05,8e-05,1e-05,2,12
6801,-6e-05,-1e-05,3e-05,0.00019,-1e-05,-3e-05,8e-05,1e-05,2,12
6802,-6e-05,-1e-05,3e-05,0.00019,-1e-05,-3e-05,8e-05,1e-05,2,12
6803,-6e-05,-1e-05,3e-05,0.00019,-1e-05,-3e-05,8e-05,1e-05,2,12
6804,-6e-05,-1e-05,3e-05,0.00019,-1e-05,-3e-05,8e-05,1e-05,2,12
6805,-6e-05,-1e-05,3e-05,0.00019,-1e-05,-3e-05,8e-05,1e-05,2,12
6806,-6e-05,-1e-05,3e-05,0.00019,-1e-05,-3e-05,8e-05,1e-05,2,12
6807,-6e-05,-1e-05,3e-05,0.00019,-1e-05,-3e-05,8e-05,1e-05,2,12
6808,-6e-05,-1e-05,3e-05,0.00019,-1e-05,-3e-05,8e-05,1e-05,2,12
6809,-6e-05,-1e-05,3e-05,0.00019,-1e-05,-3e-05,8e-05,1e-05,2,12
6810,-6e-05,-1e-05,3e-05,0.00019,-1e-05,-3e-05,8e-05,1e-05,2,12
6811,-6e-05,-1e-05,3e-05,0.00019,-1e-05,-3e-05,8e-05,1e-05,2,12
6812,-4e-05,0,-0.00011,-0.00013,-5e-05,-2e-05,-0.00011,-5e-05,2,12
6813,-0.00012,-0.00013,-7e-05,-0.00021,1e-05,-1e-05,-1e-05,-7e-05,2,12
6814,-0.00012,-0.00013,-7e-05,-0.00021,1e-05,-1e-05,-1e-05,-7e-05,2,12
6816,-0.00012,-0.00013,-7e-05,-0.00021,1e-05,-1e-05,-1e-05,-7e-05,2,12
6817,-0.00012,-0.00013,-7e-05,-0.00021,1e-05,-1e-05,-1e-05,-7e-05,2,12
6818,-0.00012,-0.00013,-7e-05,-0.00021,1e-05,-1e-05,-1e-05,-7e-05,2,12
6819,-0.00012,-0.00013,-7e-05,-0.00021,1e-05,-1e-05,-1e-05,-7e-05,2,12
6820,-0.00012,-0.00013,-7e-05,-0.00021,1e-05,-1e-05,-1e-05,-7e-05,2,12
6821,-0.00012,-0.00013,-7e-05,-0.00021,1e-05,-1e-05,-1e-05,-7e-05,2,12
6822,-0.00012,-0.00013,-7e-05,-0.00021,1e-05,-1e-05,-1e-05,-7e-05,2,12
6823,-0.00012,-0.00013,-7e-05,-0.00021,1e-05,-1e-05,-1e-05,-7e-05,2,12
6824,-0.00012,-0.00013,-7e-05,-0.00021,1e-05,-1e-05,-1e-05,-7e-05,2,12
6825,-0.00012,-0.00013,-7e-05,-0.00021,1e-05,-1e-05,-1e-05,-7e-05,2,12
6826,-0.00012,-0.00013,-7e-05,-0.00021,1e-05,-1e-05,-1e-05,-7e-05,2,12
6827,-0.00012,-0.00013,-7e-05,-0.00021,1e-05,-1e-05,-1e-05,-7e-05,2,12
6828,-0.00012,-0.00013,-7e-05,-0.00021,1e-05,-1e-05,-1e-05,-7e-05,2,12
6829,-0.00012,-0.00013,-7e-05,-0.00021,1e-05,-1e-05,-1e-05,-7e-05,2,12
6830,-0.00012,-0.00013,-7e-05,-0.00021,1e-05,-1e-05,-1e-05,-7e-05,2,12
6831,-0.00012,-0.00013,-7e-05,-0.00021,1e-05,-1e-05,-1e-05,-7e-05,2,12
6832,-0.00012,-0.00013,-7e-05,-0.00021,1e-05,-1e-05,-1e-05,-7e-05,2,12
6833,-0.00012,-0.00013,-7e-05,-0.00021,1e-05,-1e-05,-1e-05,-7e-05,2,12
6834,1e-05,4e-05,7e-05,0.00011,-3e-05,-8e-05,-0.0002,-4e-05,2,12
6835,2e-05,-0.0001,-8e-05,-4e-05,-7e-05,0,-0.0002,-1e-05,2,12
6836,2e-05,-0.0001,-8e-05,-4e-05,-7e-05,0,-0.0002,-1e-05,2,12
6838,2e-05,-0.0001,-8e-05,-4e-05,-7e-05,0,-0.0002,-1e-05,2,12
6839,2e-05,-0.0001,-8e-05,-4e-05,-7e-05,0,-0.0002,-1e-05,2,12
6840,2e-05,-0.0001,-8e-05,-4e-05,-7e-05,0,-0.0002,-1e-05,2,12
6841,2e-05,-0.0001,-8e-05,-4e-05,-7e-05,0,-0.0002,-1e-05,2,12
6842,2e-05,-0.0001,-8e-05,-4e-05,-7e-05,0,-0.0002,-1e-05,2,12
6843,2e-05,-0.0001,-8e-05,-4e-05,-7e-05,0,-0.0002,-1e-05,2,12
6844,2e-05,-0.0001,-8e-05,-4e-05,-7e-05,0,-0.0002,-1e-05,2,12
6845,2e-05,-0.0001,-8e-05,-4e-05,-7e-05,0,-0.0002,-1e-05,2,12
6846,2e-05,-0.0001,-8e-05,-4e-05,-7e-05,0,-0.0002,-1e-05,2,12
6847,2e-05,-0.0001,-8e-05,-4e-05,-7e-05,0,-0.0002,-1e-05,2,12
6848,2e-05,-0.0001,-8e-05,-4e-05,-7e-05,0,-0.0002,-1e-05,2,12
6849,0,-2e-05,-7e-05,-0.0002,-2e-05,7e-05,0.00012,2e-05,2,12
6850,5e-05,5e-05,2e-05,-0.00022,-3e-05,-5e-05,-7e-05,5e-05,2,12
6851,5e-05,5e-05,2e-05,-0.00022,-3e-05,-5e-05,-7e-05,5e-05,2,12
6852,5e-05,5e-05,2e-05,-0.00022,-3e-05,-5e-05,-7e-05,5e-05,2,12
6853,5e-05,5e-05,2e-05,-0.00022,-3e-05,-5e-05,-7e-05,5e-05,2,12
6854,5e-05,5e-05,2e-05,-0.00022,-3e-05,-5e-05,-7e-05,5e-05,2,12
6855,5e-05,5e-05,2e-05,-0.00022,-3e-05,-5e-05,-7e-05,5e-05,2,12
6856,5e-05,5e-05,2e-05,-0.00022,-3e-05,-5e-05,-7e-05,5e-05,2,12
6857,5e-05,5e-05,2e-05,-0.00022,-3e-05,-5e-05,-7e-05,5e-05,2,12
6858,5e-05,5e-05,2e-05,-0.00022,-3e-05,-5e-05,-7e-05,5e-05,2,12
6859,5e-05,5e-05,2e-05,-0.00022,-3e-05,-5e-05,-7e-05,5e-05,2,12
6860,5e-05,5e-05,2e-05,-0.00022,-3e-05,-5e-05,-7e-05,5e-05,2,12
6861,5e-05,5e-05,2e-05,-0.00022,-3e-05,-5e-05,-7e-05,5e-05,2,12
6862,5e-05,5e-05,2e-05,-0.00022,-3e-05,-5e-05,-7e-05,5e-05,2,12
6863,5e-05,5e-05,2e-05,-0.00022,-3e-05,-5e-05,-7e-05,5e-05,2,12
6864,5e-05,5e-05,2e-05,-0.00022,-3e-05,-5e-05,-7e-05,5e-05,2,12
6865,5e-05,5e-05,2e-05,-0.00022,-3e-05,-5e-05,-7e-05,5e-05,2,12
6866,5e-05,5e-05,2e-05,-0.00022,-3e-05,-5e-05,-7e-05,5e-05,2,12
6867,5e-05,5e-05,2e-05,-0.00022,-3e-05,-5e-05,-7e-05,5e-05,2,12
6868,5e-05,5e-05,2e-05,-0.00022,-3e-05,-5e-05,-7e-05,5e-05,2,12
6869,5e-05,5e-05,2e-05,-0.00022,-3e-05,-5e-05,-7e-05,5e-05,2,12
6870,5e-05,5e-05,2e-05,-0.00022,-3e-05,-5e-05,-7e-05,5e-05,2,12
6871,5e-05,5e-05,2e-05,-0.00022,-3e-05,-5e-05,-7e-05,5e-05,2,12
6872,-7e-05,9e-05,9e-05,0.00035,7e-05,1e-05,0.00012,6e-05,2,12
6873,-7e-05,9e-05,9e-05,0.00035,7e-05,1e-05,0.00012,6e-05,2,12
6874,-7e-05,9e-05,9e-05,0.00035,7e-05,1e-05,0.00012,6e-05,2,12
6875,-7e-05,9e-05,9e-05,0.00035,7e-05,1e-05,0.00012,6e-05,2,12
6876,-7e-05,9e-05,9e-05,0.00035,7e-05,1e-05,0.00012,6e-05,2,12
6877,-7e-05,9e-05,9e-05,0.00035,7e-05,1e-05,0.00012,6e-05,2,12
6878,-7e-05,9e-05,9e-05,0.00035,7e-05,1e-05,0.00012,6e-05,2,12
6879,-7e-05,9e-05,9e-05,0.00035,7e-05,1e-05,0.00012,6e-05,2,12
6880,-7e-05,9e-05,9e-05,0.00035,7e-05,1e-05,0.00012,6e-05,2,12
6881,-7e-05,9e-05,9e-05,0.00035,7e-05,1e-05,0.00012,6e-05,2,12
6882,-7e-05,9e-05,9e-05,0.00035,7e-05,1e-05,0.00012,6e-05,2,12
6883,-7e-05,9e-05,9e-05,0.00035,7e-05,1e-05,0.00012,6e-05,2,12
6884,-7e-05,9e-05,9e-05,0.00035,7e-05,1e-05,0.00012,6e-05,2,12
6885,-7e-05,9e-05,9e-05,0.00035,7e-05,1e-05,0.00012,6e-05,2,12
6886,-7e-05,9e-05,9e-05,0.00035,7e-05,1e-05,0.00012,6e-05,2,12
6888,-7e-05,9e-05,9e-05,0.00035,7e-05,1e-05,0.00012,6e-05,2,12
6889,-7e-05,9e-05,9e-05,0.00035,7e-05,1e-05,0.00012,6e-05,2,12
6890,-7e-05,9e-05,9e-05,0.00035,7e-05,1e-05,0.00012,6e-05,2,12
6891,-7e-05,9e-05,9e-05,0.00035,7e-05,1e-05,0.00012,6e-05,2,12
6892,-7e-05,9e-05,9e-05,0.00035,7e-05,1e-05,0.00012,6e-05,2,12
6893,-7e-05,9e-05,9e-05,0.00035,7e-05,1e-05,0.00012,6e-05,2,12
6894,-6e-05,-6e-05,-7e-05,-0.0001,1e-05,-8e-05,-0.00028,-8e-05,2,12
6895,-1e-05,0.0001,0,8e-05,1e-05,-2e-05,-2e-05,0,2,12
6896,-1e-05,0.0001,0,8e-05,1e-05,-2e-05,-2e-05,0,2,12
6897,-1e-05,0.0001,0,8e-05,1e-05,-2e-05,-2e-05,0,2,12
6898,-1e-05,0.0001,0,8e-05,1e-05,-2e-05,-2e-05,0,2,12
6899,-1e-05,0.0001,0,8e-05,1e-05,-2e-05,-2e-05,0,2,12
6900,-1e-05,0.0001,0,8e-05,1e-05,-2e-05,-2e-05,0,2,12
6901,-1e-05,0.0001,0,8e-05,1e-05,-2e-05,-2e-05,0,2,12
6902,-1e-05,0.0001,0,8e-05,1e-05,-2e-05,-2e-05,0,2,12
6903,-1e-05,0.0001,0,8e-05,1e-05,-2e-05,-2e-05,0,2,12
6904,-1e-05,0.0001,0,8e-05,1e-05,-2e-05,-2e-05,0,2,12
6905,-1e-05,0.0001,0,8e-05,1e-05,-2e-05,-2e-05,0,2,12
6906,-1e-05,0.0001,0,8e-05,1e-05,-2e-05,-2e-05,0,2,12
6907,-1e-05,0.0001,0,8e-05,1e-05,-2e-05,-2e-05,0,2,12
6908,-1e-05,0.0001,0,8e-05,1e-05,-2e-05,-2e-05,0,2,12
6909,0.00014,0.00012,-0.00012,-0.00027,-1e-05,0.0001,0.00066,2e-05,2,12
6910,4e-05,3e-05,3e-05,-5e-05,-7e-05,-6e-05,0.00012,-4e-05,2,12
6911,4e-05,3e-05,3e-05,-5e-05,-7e-05,-6e-05,0.00012,-4e-05,2,12
6912,4e-05,3e-05,3e-05,-5e-05,-7e-05,-6e-05,0.00012,-4e-05,2,12
6913,4e-05,3e-05,3e-05,-5e-05,-7e-05,-6e-05,0.00012,-4e-05,2,12
6914,4e-05,3e-05,3e-05,-5e-05,-7e-05,-6e-05,0.00012,-4e-05,2,12
6915,4e-05,3e-05,3e-05,-5e-05,-7e-05,-6e-05,0.00012,-4e-05,2,12
6916,4e-05,3e-05,3e-05,-5e-05,-7e-05,-6e-05,0.00012,-4e-05,2,12
6917,4e-05,3e-05,3e-05,-5e-05,-7e-05,-6e-05,0.00012,-4e-05,2,12
6918,4e-05,3e-05,3e-05,-5e-05,-7e-05,-6e-05,0.00012,-4e-05,2,12
6919,4e-05,3e-05,3e-05,-5e-05,-7e-05,-6e-05,0.00012,-4e-05,2,12
6920,4e-05,3e-05,3e-05,-5e-05,-7e-05,-6e-05,0.00012,-4e-05,2,12
6921,4e-05,3e-05,3e-05,-5e-05,-7e-05,-6e-05,0.00012,-4e-05,2,12
6922,4e-05,3e-05,3e-05,-5e-05,-7e-05,-6e-05,0.00012,-4e-05,2,12
6923,4e-05,3e-05,3e-05,-5e-05,-7e-05,-6e-05,0.00012,-4e-05,2,12
6924,4e-05,3e-05,3e-05,-5e-05,-7e-05,-6e-05,0.00012,-4e-05,2,12
6925,4e-05,3e-05,3e-05,-5e-05,-7e-05,-6e-05,0.00012,-4e-05,2,12
6926,4e-05,3e-05,3e-05,-5e-05,-7e-05,-6e-05,0.00012,-4e-05,2,12
6927,4e-05,3e-05,3e-05,-5e-05,-7e-05,-6e-05,0.00012,-4e-05,2,12
6928,4e-05,3e-05,3e-05,-5e-05,-7e-05,-6e-05,0.00012,-4e-05,2,12
6929,4e-05,3e-05,3e-05,-5e-05,-7e-05,-6e-05,0.00012,-4e-05,2,12
6930,4e-05,3e-05,3e-05,-5e-05,-7e-05,-6e-05,0.00012,-4e-05,2,12
6931,4e-05,3e-05,3e-05,-5e-05,-7e-05,-6e-05,0.00012,-4e-05,2,12
6932,-1e-05,-5e-05,-8e-05,-0.00045,-0.0001,-2e-05,-0.00014,2e-05,2,12
6933,-6e-05,-0.00025,-9e-05,-4e-05,-4e-05,-3e-05,-0.00011,-2e-05,2,12
6934,-6e-05,-0.00025,-9e-05,-4e-05,-4e-05,-3e-05,-0.00011,-2e-05,2,12
6935,-6e-05,-0.00025,-9e-05,-4e-05,-4e-05,-3e-05,-0.00011,-2e-05,2,12
6936,-6e-05,-0.00025,-9e-05,-4e-05,-4e-05,-3e-05,-0.00011,-2e-05,2,12
6938,-6e-05,-0.00025,-9e-05,-4e-05,-4e-05,-3e-05,-0.00011,-2e-05,2,12
6939,-6e-05,-0.00025,-9e-05,-4e-05,-4e-05,-3e-05,-0.00011,-2e-05,2,12
6940,-6e-05,-0.00025,-9e-05,-4e-05,-4e-05,-3e-05,-0.00011,-2e-05,2,12
6941,-6e-05,-0.00025,-9e-05,-4e-05,-4e-05,-3e-05,-0.00011,-2e-05,2,12
6942,-6e-05,-0.00025,-9e-05,-4e-05,-4e-05,-3e-05,-0.00011,-2e-05,2,12
6943,-6e-05,-0.00025,-9e-05,-4e-05,-4e-05,-3e-05,-0.00011,-2e-05,2,12
6944,-6e-05,-0.00025,-9e-05,-4e-05,-4e-05,-3e-05,-0.00011,-2e-05,2,12
6945,-6e-05,-0.00025,-9e-05,-4e-05,-4e-05,-3e-05,-0.00011,-2e-05,2,12
6946,-6e-05,-0.00025,-9e-05,-4e-05,-4e-05,-3e-05,-0.00011,-2e-05,2,12
6947,-6e-05,-0.00025,-9e-05,-4e-05,-4e-05,-3e-05,-0.00011,-2e-05,2,12
6948,-6e-05,-0.00025,-9e-05,-4e-05,-4e-05,-3e-05,-0.00011,-2e-05,2,12
6949,-6e-05,-0.00025,-9e-05,-4e-05,-4e-05,-3e-05,-0.00011,-2e-05,2,12
6950,-6e-05,-0.00025,-9e-05,-4e-05,-4e-05,-3e-05,-0.00011,-2e-05,2,12
6951,-6e-05,-0.00025,-9e-05,-4e-05,-4e-05,-3e-05,-0.00011,-2e-05,2,12
6952,-6e-05,-0.00025,-9e-05,-4e-05,-4e-05,-3e-05,-0.00011,-2e-05,2,12
6953,-6e-05,-0.00025,-9e-05,-4e-05,-4e-05,-3e-05,-0.00011,-2e-05,2,12
6954,-3e-05,0,0.00017,0.00045,0,-6e-05,5e-05,-1e-05,2,12
6955,0,4e-05,0,-3e-05,7e-05,3e-05,-7e-05,0,2,12
6956,0,4e-05,0,-3e-05,7e-05,3e-05,-7e-05,0,2,12
6957,0,4e-05,0,-3e-05,7e-05,3e-05,-7e-05,0,2,12
6958,0,4e-05,0,-3e-05,7e-05,3e-05,-7e-05,0,2,12
6959,0,4e-05,0,-3e-05,7e-05,3e-05,-7e-05,0,2,12
6960,0,4e-05,0,-3e-05,7e-05,3e-05,-7e-05,0,2,12
6961,0,4e-05,0,-3e-05,7e-05,3e-05,-7e-05,0,2,12
6962,0,4e-05,0,-3e-05,7e-05,3e-05,-7e-05,0,2,12
6963,0,4e-05,0,-3e-05,7e-05,3e-05,-7e-05,0,2,12
6964,0,4e-05,0,-3e-05,7e-05,3e-05,-7e-05,0,2,12
6965,0,4e-05,0,-3e-05,7e-05,3e-05,-7e-05,0,2,12
6966,0,4e-05,0,-3e-05,7e-05,3e-05,-7e-05,0,2,12
6967,0,4e-05,0,-3e-05,7e-05,3e-05,-7e-05,0,2,12
6968,0,4e-05,0,-3e-05,7e-05,3e-05,-7e-05,0,2,12
6969,6e-05,3e-05,2e-05,0.00014,-3e-05,-3e-05,0.00023,4e-05,2,12
6970,6e-05,3e-05,2e-05,0.00014,-3e-05,-3e-05,0.00023,4e-05,2,12
6971,6e-05,3e-05,2e-05,0.00014,-3e-05,-3e-05,0.00023,4e-05,2,12
6972,6e-05,3e-05,2e-05,0.00014,-3e-05,-3e-05,0.00023,4e-05,2,12
6973,6e-05,3e-05,2e-05,0.00014,-3e-05,-3e-05,0.00023,4e-05,2,12
6974,6e-05,3e-05,2e-05,0.00014,-3e-05,-3e-05,0.00023,4e-05,2,12
6975,6e-05,3e-05,2e-05,0.00014,-3e-05,-3e-05,0.00023,4e-05,2,12
6976,6e-05,3e-05,2e-05,0.00014,-3e-05,-3e-05,0.00023,4e-05,2,12
6977,3e-05,7e-05,0,0.00012,-4e-05,-9e-05,-0.00018,-8e-05,2,12
6978,3e-05,7e-05,0,0.00012,-4e-05,-9e-05,-0.00018,-8e-05,2,12
6979,3e-05,7e-05,0,0.00012,-4e-05,-9e-05,-0.00018,-8e-05,2,12
6980,3e-05,7e-05,0,0.00012,-4e-05,-9e-05,-0.00018,-8e-05,2,12
6981,3e-05,7e-05,0,0.00012,-4e-05,-9e-05,-0.00018,-8e-05,2,12
6982,3e-05,7e-05,0,0.00012,-4e-05,-9e-05,-0.00018,-8e-05,2,12
6983,3e-05,7e-05,0,0.00012,-4e-05,-9e-05,-0.00018,-8e-05,2,12
6984,3e-05,7e-05,0,0.00012,-4e-05,-9e-05,-0.00018,-8e-05,2,12
6985,3e-05,7e-05,0,0.00012,-4e-05,-9e-05,-0.00018,-8e-05,2,12
6986,3e-05,7e-05,0,0.00012,-4e-05,-9e-05,-0.00018,-8e-05,2,12
6988,3e-05,7e-05,0,0.00012,-4e-05,-9e-05,-0.00018,-8e-05,2,12
6989,3e-05,7e-05,0,0.00012,-4e-05,-9e-05,-0.00018,-8e-05,2,12
6990,3e-05,7e-05,0,0.00012,-4e-05,-9e-05,-0.00018,-8e-05,2,12
6991,3e-05,7e-05,0,0.00012,-4e-05,-9e-05,-0.00018,-8e-05,2,12
6992,8e-05,5e-05,-3e-05,-0.00018,-3e-05,4e-05,0.00018,0.0001,2,12
6993,8e-05,5e-05,-3e-05,-0.00018,-3e-05,4e-05,0.00018,0.0001,2,12
6994,8e-05,5e-05,-3e-05,-0.00018,-3e-05,4e-05,0.00018,0.0001,2,12
6995,8e-05,5e-05,-3e-05,-0.00018,-3e-05,4e-05,0.00018,0.0001,2,12
6996,8e-05,5e-05,-3e-05,-0.00018,-3e-05,4e-05,0.00018,0.0001,2,12
6997,8e-05,5e-05,-3e-05,-0.00018,-3e-05,4e-05,0.00018,0.0001,2,12
6998,8e-05,5e-05,-3e-05,-0.00018,-3e-05,4e-05,0.00018,0.0001,2,12
6999,8e-05,5e-05,-3e-05,-0.00018,-3e-05,4e-05,0.00018,0.0001,2,12
7000,8e-05,5e-05,-3e-05,-0.00018,-3e-05,4e-05,0.00018,0.0001,2,12
7001,8e-05,5e-05,-3e-05,-0.00018,-3e-05,4e-05,0.00018,0.0001,2,12
7002,8e-05,5e-05,-3e-05,-0.00018,-3e-05,4e-05,0.00018,0.0001,2,12
7003,8e-05,5e-05,-3e-05,-0.00018,-3e-05,4e-05,0.00018,0.0001,2,12
7004,8e-05,5e-05,-3e-05,-0.00018,-3e-05,4e-05,0.00018,0.0001,2,12
7005,8e-05,5e-05,-3e-05,-0.00018,-3e-05,4e-05,0.00018,0.0001,2,12
7006,8e-05,5e-05,-3e-05,-0.00018,-3e-05,4e-05,0.00018,0.0001,2,12
7007,8e-05,5e-05,-3e-05,-0.00018,-3e-05,4e-05,0.00018,0.0001,2,12
7008,8e-05,5e-05,-3e-05,-0.00018,-3e-05,4e-05,0.00018,0.0001,2,12
7009,8e-05,5e-05,-3e-05,-0.00018,-3e-05,4e-05,0.00018,0.0001,2,12
7010,8e-05,5e-05,-3e-05,-0.00018,-3e-05,4e-05,0.00018,0.0001,2,12
7011,8e-05,5e-05,-3e-05,-0.00018,-3e-05,4e-05,0.00018,0.0001,2,12
7012,8e-05,5e-05,-3e-05,-0.00018,-3e-05,4e-05,0.00018,0.0001,2,12
7013,8e-05,5e-05,-3e-05,-0.00018,-3e-05,4e-05,0.00018,0.0001,2,12
7014,-6e-05,-0.0001,1e-05,0.00017,-6e-05,-7e-05,-0.00017,-3e-05,2,12
7015,-6e-05,-0.0001,1e-05,0.00017,-6e-05,-7e-05,-0.00017,-3e-05,2,12
7016,2e-05,2e-05,7e-05,0.0002,3e-05,-7e-05,-2e-05,5e-05,2,12
7018,-0.00011,-4e-05,-9e-05,3e-05,-1e-05,2e-05,-4e-05,-2e-05,2,12
7019,-0.00011,-4e-05,-9e-05,3e-05,-1e-05,2e-05,-4e-05,-2e-05,2,12
7020,-0.00011,-4e-05,-9e-05,3e-05,-1e-05,2e-05,-4e-05,-2e-05,2,12
7021,-0.00011,-4e-05,-9e-05,3e-05,-1e-05,2e-05,-4e-05,-2e-05,2,12
7022,-0.00011,-4e-05,-9e-05,3e-05,-1e-05,2e-05,-4e-05,-2e-05,2,12
7023,-0.00011,-4e-05,-9e-05,3e-05,-1e-05,2e-05,-4e-05,-2e-05,2,12
7024,-0.00011,-4e-05,-9e-05,3e-05,-1e-05,2e-05,-4e-05,-2e-05,2,12
7025,-0.00011,-4e-05,-9e-05,3e-05,-1e-05,2e-05,-4e-05,-2e-05,2,12
7026,-0.00011,-4e-05,-9e-05,3e-05,-1e-05,2e-05,-4e-05,-2e-05,2,12
7027,-0.00011,-4e-05,-9e-05,3e-05,-1e-05,2e-05,-4e-05,-2e-05,2,12
7028,-0.00011,-4e-05,-9e-05,3e-05,-1e-05,2e-05,-4e-05,-2e-05,2,12
7029,-7e-05,-7e-05,-1e-05,0.00016,9e-05,2e-05,5e-05,-2e-05,2,12
7030,-7e-05,-7e-05,-1e-05,0.00016,9e-05,2e-05,5e-05,-2e-05,2,12
7031,-7e-05,-7e-05,-1e-05,0.00016,9e-05,2e-05,5e-05,-2e-05,2,12
7032,-7e-05,-7e-05,-1e-05,0.00016,9e-05,2e-05,5e-05,-2e-05,2,12
7033,-7e-05,-7e-05,-1e-05,0.00016,9e-05,2e-05,5e-05,-2e-05,2,12
7034,-7e-05,-7e-05,-1e-05,0.00016,9e-05,2e-05,5e-05,-2e-05,2,12
7035,-7e-05,-7e-05,-1e-05,0.00016,9e-05,2e-05,5e-05,-2e-05,2,12
7036,-7e-05,-7e-05,-1e-05,0.00016,9e-05,2e-05,5e-05,-2e-05,2,12
7038,2e-05,0,8e-05,9e-05,-3e-05,-6e-05,1e-05,-7e-05,2,12
7039,2e-05,0,8e-05,9e-05,-3e-05,-6e-05,1e-05,-7e-05,2,12
7040,2e-05,0,8e-05,9e-05,-3e-05,-6e-05,1e-05,-7e-05,2,12
7041,2e-05,0,8e-05,9e-05,-3e-05,-6e-05,1e-05,-7e-05,2,12
7042,2e-05,0,8e-05,9e-05,-3e-05,-6e-05,1e-05,-7e-05,2,12
7043,2e-05,0,8e-05,9e-05,-3e-05,-6e-05,1e-05,-7e-05,2,12
7044,2e-05,0,8e-05,9e-05,-3e-05,-6e-05,1e-05,-7e-05,2,12
7045,2e-05,0,8e-05,9e-05,-3e-05,-6e-05,1e-05,-7e-05,2,12
7046,2e-05,0,8e-05,9e-05,-3e-05,-6e-05,1e-05,-7e-05,2,12
7047,2e-05,0,8e-05,9e-05,-3e-05,-6e-05,1e-05,-7e-05,2,12
7048,2e-05,0,8e-05,9e-05,-3e-05,-6e-05,1e-05,-7e-05,2,12
7049,2e-05,0,8e-05,9e-05,-3e-05,-6e-05,1e-05,-7e-05,2,12
7050,2e-05,0,8e-05,9e-05,-3e-05,-6e-05,1e-05,-7e-05,2,12
7051,2e-05,0,8e-05,9e-05,-3e-05,-6e-05,1e-05,-7e-05,2,12
7052,-9e-05,8e-05,-9e-05,-0.00054,-9e-05,-1e-05,-0.00028,-0.00017,2,12
7053,-9e-05,8e-05,-9e-05,-0.00054,-9e-05,-1e-05,-0.00028,-0.00017,2,12
7054,-9e-05,8e-05,-9e-05,-0.00054,-9e-05,-1e-05,-0.00028,-0.00017,2,12
7055,-9e-05,8e-05,-9e-05,-0.00054,-9e-05,-1e-05,-0.00028,-0.00017,2,12
7056,-9e-05,8e-05,-9e-05,-0.00054,-9e-05,-1e-05,-0.00028,-0.00017,2,12
7057,-9e-05,8e-05,-9e-05,-0.00054,-9e-05,-1e-05,-0.00028,-0.00017,2,12
7058,-9e-05,8e-05,-9e-05,-0.00054,-9e-05,-1e-05,-0.00028,-0.00017,2,12
7059,-9e-05,8e-05,-9e-05,-0.00054,-9e-05,-1e-05,-0.00028,-0.00017,2,12
7060,-9e-05,8e-05,-9e-05,-0.00054,-9e-05,-1e-05,-0.00028,-0.00017,2,12
7061,-9e-05,8e-05,-9e-05,-0.00054,-9e-05,-1e-05,-0.00028,-0.00017,2,12
7062,-9e-05,8e-05,-9e-05,-0.00054,-9e-05,-1e-05,-0.00028,-0.00017,2,12
7063,-9e-05,8e-05,-9e-05,-0.00054,-9e-05,-1e-05,-0.00028,-0.00017,2,12
7064,-9e-05,8e-05,-9e-05,-0.00054,-9e-05,-1e-05,-0.00028,-0.00017,2,12
7065,-9e-05,8e-05,-9e-05,-0.00054,-9e-05,-1e-05,-0.00028,-0.00017,2,12
7066,-9e-05,8e-05,-9e-05,-0.00054,-9e-05,-1e-05,-0.00028,-0.00017,2,12
7068,-9e-05,8e-05,-9e-05,-0.00054,-9e-05,-1e-05,-0.00028,-0.00017,2,12
7069,-9e-05,8e-05,-9e-05,-0.00054,-9e-05,-1e-05,-0.00028,-0.00017,2,12
7070,-9e-05,8e-05,-9e-05,-0.00054,-9e-05,-1e-05,-0.00028,-0.00017,2,12
7071,-9e-05,8e-05,-9e-05,-0.00054,-9e-05,-1e-05,-0.00028,-0.00017,2,12
7072,-9e-05,8e-05,-9e-05,-0.00054,-9e-05,-1e-05,-0.00028,-0.00017,2,12
7073,-9e-05,8e-05,-9e-05,-0.00054,-9e-05,-1e-05,-0.00028,-0.00017,2,12
7074,-0.00013,0,-5e-05,6e-05,-2e-05,0,-0.00029,-0.00014,2,12
7075,0.00017,7e-05,0,0.00013,2e-05,-5e-05,-0.00013,-4e-05,2,12
7076,0.00017,7e-05,0,0.00013,2e-05,-5e-05,-0.00013,-4e-05,2,12
7077,0.00017,7e-05,0,0.00013,2e-05,-5e-05,-0.00013,-4e-05,2,12
7078,0.00017,7e-05,0,0.00013,2e-05,-5e-05,-0.00013,-4e-05,2,12
7079,0.00017,7e-05,0,0.00013,2e-05,-5e-05,-0.00013,-4e-05,2,12
7080,0.00017,7e-05,0,0.00013,2e-05,-5e-05,-0.00013,-4e-05,2,12
7081,0.00017,7e-05,0,0.00013,2e-05,-5e-05,-0.00013,-4e-05,2,12
7082,0.00017,7e-05,0,0.00013,2e-05,-5e-05,-0.00013,-4e-05,2,12
7083,0.00017,7e-05,0,0.00013,2e-05,-5e-05,-0.00013,-4e-05,2,12
7084,0.00017,7e-05,0,0.00013,2e-05,-5e-05,-0.00013,-4e-05,2,12
7085,0.00017,7e-05,0,0.00013,2e-05,-5e-05,-0.00013,-4e-05,2,12
7086,0.00017,7e-05,0,0.00013,2e-05,-5e-05,-0.00013,-4e-05,2,12
7088,-2e-05,6e-05,6e-05,4e-05,0,1e-05,-0.00018,-6e-05,2,12
7089,-1e-05,-8e-05,-7e-05,-9e-05,2e-05,0,0.00016,3e-05,2,12
7090,-1e-05,-8e-05,-7e-05,-9e-05,2e-05,0,0.00016,3e-05,2,12
7091,-1e-05,-8e-05,-7e-05,-9e-05,2e-05,0,0.00016,3e-05,2,12
7092,-1e-05,-8e-05,-7e-05,-9e-05,2e-05,0,0.00016,3e-05,2,12
7093,-1e-05,-8e-05,-7e-05,-9e-05,2e-05,0,0.00016,3e-05,2,12
7094,-1e-05,-8e-05,-7e-05,-9e-05,2e-05,0,0.00016,3e-05,2,12
7095,-1e-05,-8e-05,-7e-05,-9e-05,2e-05,0,0.00016,3e-05,2,12
7096,-1e-05,-8e-05,-7e-05,-9e-05,2e-05,0,0.00016,3e-05,2,12
7097,-2e-05,-6e-05,0,-0.00023,-2e-05,6e-05,-0.0001,0,2,12
7098,-2e-05,-6e-05,0,-0.00023,-2e-05,6e-05,-0.0001,0,2,12
7099,-2e-05,-6e-05,0,-0.00023,-2e-05,6e-05,-0.0001,0,2,12
7100,-2e-05,-6e-05,0,-0.00023,-2e-05,6e-05,-0.0001,0,2,12
7101,-2e-05,-6e-05,0,-0.00023,-2e-05,6e-05,-0.0001,0,2,12
7102,-2e-05,-6e-05,0,-0.00023,-2e-05,6e-05,-0.0001,0,2,12
7103,-2e-05,-6e-05,0,-0.00023,-2e-05,6e-05,-0.0001,0,2,12
7104,-2e-05,-6e-05,0,-0.00023,-2e-05,6e-05,-0.0001,0,2,12
7105,-2e-05,-6e-05,0,-0.00023,-2e-05,6e-05,-0.0001,0,2,12
7106,-2e-05,-6e-05,0,-0.00023,-2e-05,6e-05,-0.0001,0,2,12
7107,-2e-05,-6e-05,0,-0.00023,-2e-05,6e-05,-0.0001,0,2,12
7108,-2e-05,-6e-05,0,-0.00023,-2e-05,6e-05,-0.0001,0,2,12
7109,-2e-05,-6e-05,0,-0.00023,-2e-05,6e-05,-0.0001,0,2,12
7110,-2e-05,-6e-05,0,-0.00023,-2e-05,6e-05,-0.0001,0,2,12
7111,-2e-05,-6e-05,0,-0.00023,-2e-05,6e-05,-0.0001,0,2,12
7112,1e-05,3e-05,6e-05,0.00023,0.00015,-5e-05,-5e-05,5e-05,2,12
7113,-7e-05,-5e-05,1e-05,8e-05,5e-05,2e-05,-3e-05,-4e-05,2,12
7114,-7e-05,-5e-05,1e-05,8e-05,5e-05,2e-05,-3e-05,-4e-05,2,12
7115,-7e-05,-5e-05,1e-05,8e-05,5e-05,2e-05,-3e-05,-4e-05,2,12
7116,-7e-05,-5e-05,1e-05,8e-05,5e-05,2e-05,-3e-05,-4e-05,2,12
7117,-7e-05,-5e-05,1e-05,8e-05,5e-05,2e-05,-3e-05,-4e-05,2,12
7118,-7e-05,-5e-05,1e-05,8e-05,5e-05,2e-05,-3e-05,-4e-05,2,12
7119,-7e-05,-5e-05,1e-05,8e-05,5e-05,2e-05,-3e-05,-4e-05,2,12
7120,-7e-05,-5e-05,1e-05,8e-05,5e-05,2e-05,-3e-05,-4e-05,2,12
7121,-7e-05,-5e-05,1e-05,8e-05,5e-05,2e-05,-3e-05,-4e-05,2,12
7122,-7e-05,-5e-05,1e-05,8e-05,5e-05,2e-05,-3e-05,-4e-05,2,12
7123,-7e-05,-5e-05,1e-05,8e-05,5e-05,2e-05,-3e-05,-4e-05,2,12
7124,-7e-05,-5e-05,1e-05,8e-05,5e-05,2e-05,-3e-05,-4e-05,2,12
7125,-7e-05,-5e-05,1e-05,8e-05,5e-05,2e-05,-3e-05,-4e-05,2,12
7126,-7e-05,-5e-05,1e-05,8e-05,5e-05,2e-05,-3e-05,-4e-05,2,12
7127,-7e-05,-5e-05,1e-05,8e-05,5e-05,2e-05,-3e-05,-4e-05,2,12
7128,-7e-05,-5e-05,1e-05,8e-05,5e-05,2e-05,-3e-05,-4e-05,2,12
7129,-7e-05,-5e-05,1e-05,8e-05,5e-05,2e-05,-3e-05,-4e-05,2,12
7130,-7e-05,-5e-05,1e-05,8e-05,5e-05,2e-05,-3e-05,-4e-05,2,12
7131,-7e-05,-5e-05,1e-05,8e-05,5e-05,2e-05,-3e-05,-4e-05,2,12
7132,-7e-05,-5e-05,1e-05,8e-05,5e-05,2e-05,-3e-05,-4e-05,2,12
7133,-7e-05,-5e-05,1e-05,8e-05,5e-05,2e-05,-3e-05,-4e-05,2,12
7134,-0.00012,-0.00037,-0.00024,-0.00042,-1e-05,2e-05,-0.0001,1e-05,2,12
7135,4e-05,-5e-05,6e-05,1e-05,-1e-05,4e-05,0.00024,4e-05,2,12
7136,4e-05,-5e-05,6e-05,1e-05,-1e-05,4e-05,0.00024,4e-05,2,12
7138,4e-05,-5e-05,6e-05,1e-05,-1e-05,4e-05,0.00024,4e-05,2,12
7139,4e-05,-5e-05,6e-05,1e-05,-1e-05,4e-05,0.00024,4e-05,2,12
7140,4e-05,-5e-05,6e-05,1e-05,-1e-05,4e-05,0.00024,4e-05,2,12
7141,4e-05,-5e-05,6e-05,1e-05,-1e-05,4e-05,0.00024,4e-05,2,12
7142,4e-05,-5e-05,6e-05,1e-05,-1e-05,4e-05,0.00024,4e-05,2,12
7143,4e-05,-5e-05,6e-05,1e-05,-1e-05,4e-05,0.00024,4e-05,2,12
7144,4e-05,-5e-05,6e-05,1e-05,-1e-05,4e-05,0.00024,4e-05,2,12
7145,4e-05,-5e-05,6e-05,1e-05,-1e-05,4e-05,0.00024,4e-05,2,12
7146,4e-05,-5e-05,6e-05,1e-05,-1e-05,4e-05,0.00024,4e-05,2,12
7147,4e-05,-5e-05,6e-05,1e-05,-1e-05,4e-05,0.00024,4e-05,2,12
7148,-6e-05,0.00011,0.00013,0.00017,-6e-05,-2e-05,2e-05,-3e-05,2,12
7149,-6e-05,0.00011,0.00013,0.00017,-6e-05,-2e-05,2e-05,-3e-05,2,12
7150,-6e-05,0.00011,0.00013,0.00017,-6e-05,-2e-05,2e-05,-3e-05,2,12
7151,-6e-05,0.00011,0.00013,0.00017,-6e-05,-2e-05,2e-05,-3e-05,2,12
7152,-6e-05,0.00011,0.00013,0.00017,-6e-05,-2e-05,2e-05,-3e-05,2,12
7153,-6e-05,0.00011,0.00013,0.00017,-6e-05,-2e-05,2e-05,-3e-05,2,12
7154,-6e-05,0.00011,0.00013,0.00017,-6e-05,-2e-05,2e-05,-3e-05,2,12
7155,-6e-05,0.00011,0.00013,0.00017,-6e-05,-2e-05,2e-05,-3e-05,2,12
7156,-6e-05,0.00011,0.00013,0.00017,-6e-05,-2e-05,2e-05,-3e-05,2,12
7157,-4e-05,-5e-05,3e-05,0.00021,-4e-05,-8e-05,9e-05,1e-05,2,12
7158,-4e-05,-5e-05,3e-05,0.00021,-4e-05,-8e-05,9e-05,1e-05,2,12
7159,-4e-05,-5e-05,3e-05,0.00021,-4e-05,-8e-05,9e-05,1e-05,2,12
7160,-4e-05,-5e-05,3e-05,0.00021,-4e-05,-8e-05,9e-05,1e-05,2,12
7161,-4e-05,-5e-05,3e-05,0.00021,-4e-05,-8e-05,9e-05,1e-05,2,12
7162,-4e-05,-5e-05,3e-05,0.00021,-4e-05,-8e-05,9e-05,1e-05,2,12
7163,-4e-05,-5e-05,3e-05,0.00021,-4e-05,-8e-05,9e-05,1e-05,2,12
7164,-4e-05,-5e-05,3e-05,0.00021,-4e-05,-8e-05,9e-05,1e-05,2,12
7165,-4e-05,-5e-05,3e-05,0.00021,-4e-05,-8e-05,9e-05,1e-05,2,12
7166,-4e-05,-5e-05,3e-05,0.00021,-4e-05,-8e-05,9e-05,1e-05,2,12
7167,-4e-05,-5e-05,3e-05,0.00021,-4e-05,-8e-05,9e-05,1e-05,2,12
7168,-4e-05,-5e-05,3e-05,0.00021,-4e-05,-8e-05,9e-05,1e-05,2,12
7169,-4e-05,-5e-05,3e-05,0.00021,-4e-05,-8e-05,9e-05,1e-05,2,12
7170,-4e-05,-5e-05,3e-05,0.00021,-4e-05,-8e-05,9e-05,1e-05,2,12
7171,-4e-05,-5e-05,3e-05,0.00021,-4e-05,-8e-05,9e-05,1e-05,2,12
7172,4e-05,0,-2e-05,8e-05,-4e-05,-4e-05,-8e-05,4e-05,2,12
7173,4e-05,0,-2e-05,8e-05,-4e-05,-4e-05,-8e-05,4e-05,2,12
7174,4e-05,0,-2e-05,8e-05,-4e-05,-4e-05,-8e-05,4e-05,2,12
7175,4e-05,0,-2e-05,8e-05,-4e-05,-4e-05,-8e-05,4e-05,2,12
7176,4e-05,0,-2e-05,8e-05,-4e-05,-4e-05,-8e-05,4e-05,2,12
7177,4e-05,0,-2e-05,8e-05,-4e-05,-4e-05,-8e-05,4e-05,2,12
7178,4e-05,0,-2e-05,8e-05,-4e-05,-4e-05,-8e-05,4e-05,2,12
7179,4e-05,0,-2e-05,8e-05,-4e-05,-4e-05,-8e-05,4e-05,2,12
7180,4e-05,0,-2e-05,8e-05,-4e-05,-4e-05,-8e-05,4e-05,2,12
7181,4e-05,0,-2e-05,8e-05,-4e-05,-4e-05,-8e-05,4e-05,2,12
7182,4e-05,0,-2e-05,8e-05,-4e-05,-4e-05,-8e-05,4e-05,2,12
7183,4e-05,0,-2e-05,8e-05,-4e-05,-4e-05,-8e-05,4e-05,2,12
7184,4e-05,0,-2e-05,8e-05,-4e-05,-4e-05,-8e-05,4e-05,2,12
7185,4e-05,0,-2e-05,8e-05,-4e-05,-4e-05,-8e-05,4e-05,2,12
7186,4e-05,0,-2e-05,8e-05,-4e-05,-4e-05,-8e-05,4e-05,2,12
7188,4e-05,0,-2e-05,8e-05,-4e-05,-4e-05,-8e-05,4e-05,2,12
7189,4e-05,0,-2e-05,8e-05,-4e-05,-4e-05,-8e-05,4e-05,2,12
7190,4e-05,0,-2e-05,8e-05,-4e-05,-4e-05,-8e-05,4e-05,2,12
7191,4e-05,0,-2e-05,8e-05,-4e-05,-4e-05,-8e-05,4e-05,2,12
7192,4e-05,0,-2e-05,8e-05,-4e-05,-4e-05,-8e-05,4e-05,2,12
7193,4e-05,0,-2e-05,8e-05,-4e-05,-4e-05,-8e-05,4e-05,2,12
7194,-1e-05,0.00013,8e-05,5e-05,2e-05,3e-05,0.00011,-2e-05,2,12
7195,-4e-05,-7e-05,-3e-05,7e-05,8e-05,6e-05,0.00037,3e-05,2,12
7196,-4e-05,-7e-05,-3e-05,7e-05,8e-05,6e-05,0.00037,3e-05,2,12
7197,-4e-05,-7e-05,-3e-05,7e-05,8e-05,6e-05,0.00037,3e-05,2,12
7198,-4e-05,-7e-05,-3e-05,7e-05,8e-05,6e-05,0.00037,3e-05,2,12
7199,-4e-05,-7e-05,-3e-05,7e-05,8e-05,6e-05,0.00037,3e-05,2,12
7200,-4e-05,-7e-05,-3e-05,7e-05,8e-05,6e-05,0.00037,3e-05,2,12
7201,-4e-05,-7e-05,-3e-05,7e-05,8e-05,6e-05,0.00037,3e-05,2,12
7202,-4e-05,-7e-05,-3e-05,7e-05,8e-05,6e-05,0.00037,3e-05,2,12
7203,-4e-05,-7e-05,-3e-05,7e-05,8e-05,6e-05,0.00037,3e-05,2,12
7204,-4e-05,-7e-05,-3e-05,7e-05,8e-05,6e-05,0.00037,3e-05,2,12
7205,-4e-05,-7e-05,-3e-05,7e-05,8e-05,6e-05,0.00037,3e-05,2,12
7206,-4e-05,-7e-05,-3e-05,7e-05,8e-05,6e-05,0.00037,3e-05,2,12
7207,-4e-05,-7e-05,-3e-05,7e-05,8e-05,6e-05,0.00037,3e-05,2,12
7208,-4e-05,-7e-05,-3e-05,7e-05,8e-05,6e-05,0.00037,3e-05,2,12
7209,4e-05,0,-2e-05,8e-05,0,-2e-05,2e-05,-1e-05,2,12
7210,4e-05,0,-2e-05,8e-05,0,-2e-05,2e-05,-1e-05,2,12
7211,4e-05,0,-2e-05,8e-05,0,-2e-05,2e-05,-1e-05,2,12
7212,4e-05,0,-2e-05,8e-05,0,-2e-05,2e-05,-1e-05,2,12
7213,4e-05,0,-2e-05,8e-05,0,-2e-05,2e-05,-1e-05,2,12
7214,4e-05,0,-2e-05,8e-05,0,-2e-05,2e-05,-1e-05,2,12
7215,4e-05,0,-2e-05,8e-05,0,-2e-05,2e-05,-1e-05,2,12
7216,4e-05,0,-2e-05,8e-05,0,-2e-05,2e-05,-1e-05,2,12
7217,-5e-05,-0.00012,-8e-05,-0.00017,-0.00013,-3e-05,1e-05,-3e-05,2,12
7218,-5e-05,-0.00012,-8e-05,-0.00017,-0.00013,-3e-05,1e-05,-3e-05,2,12
7219,-5e-05,-0.00012,-8e-05,-0.00017,-0.00013,-3e-05,1e-05,-3e-05,2,12
7220,-5e-05,-0.00012,-8e-05,-0.00017,-0.00013,-3e-05,1e-05,-3e-05,2,12
7221,-5e-05,-0.00012,-8e-05,-0.00017,-0.00013,-3e-05,1e-05,-3e-05,2,12
7222,-5e-05,-0.00012,-8e-05,-0.00017,-0.00013,-3e-05,1e-05,-3e-05,2,12
7223,-5e-05,-0.00012,-8e-05,-0.00017,-0.00013,-3e-05,1e-05,-3e-05,2,12
7224,-5e-05,-0.00012,-8e-05,-0.00017,-0.00013,-3e-05,1e-05,-3e-05,2,12
7225,-5e-05,-0.00012,-8e-05,-0.00017,-0.00013,-3e-05,1e-05,-3e-05,2,12
7226,-5e-05,-0.00012,-8e-05,-0.00017,-0.00013,-3e-05,1e-05,-3e-05,2,12
7227,-5e-05,-0.00012,-8e-05,-0.00017,-0.00013,-3e-05,1e-05,-3e-05,2,12
7228,-5e-05,-0.00012,-8e-05,-0.00017,-0.00013,-3e-05,1e-05,-3e-05,2,12
7229,-5e-05,-0.00012,-8e-05,-0.00017,-0.00013,-3e-05,1e-05,-3e-05,2,12
7230,-5e-05,-0.00012,-8e-05,-0.00017,-0.00013,-3e-05,1e-05,-3e-05,2,12
7231,-5e-05,-0.00012,-8e-05,-0.00017,-0.00013,-3e-05,1e-05,-3e-05,2,12
7232,7e-05,0.00013,6e-05,0.00023,9e-05,3e-05,-0.00021,0,2,12
7233,-7e-05,-1e-05,-2e-05,-5e-05,3e-05,-3e-05,-3e-05,0,2,12
7234,-7e-05,-1e-05,-2e-05,-5e-05,3e-05,-3e-05,-3e-05,0,2,12
7235,-7e-05,-1e-05,-2e-05,-5e-05,3e-05,-3e-05,-3e-05,0,2,12
7236,-7e-05,-1e-05,-2e-05,-5e-05,3e-05,-3e-05,-3e-05,0,2,12
7238,-7e-05,-1e-05,-2e-05,-5e-05,3e-05,-3e-05,-3e-05,0,2,12
7239,-7e-05,-1e-05,-2e-05,-5e-05,3e-05,-3e-05,-3e-05,0,2,12
7240,-7e-05,-1e-05,-2e-05,-5e-05,3e-05,-3e-05,-3e-05,0,2,12
7241,-7e-05,-1e-05,-2e-05,-5e-05,3e-05,-3e-05,-3e-05,0,2,12
7242,-7e-05,-1e-05,-2e-05,-5e-05,3e-05,-3e-05,-3e-05,0,2,12
7243,-7e-05,-1e-05,-2e-05,-5e-05,3e-05,-3e-05,-3e-05,0,2,12
7244,-7e-05,-1e-05,-2e-05,-5e-05,3e-05,-3e-05,-3e-05,0,2,12
7245,-7e-05,-1e-05,-2e-05,-5e-05,3e-05,-3e-05,-3e-05,0,2,12
7246,-7e-05,-1e-05,-2e-05,-5e-05,3e-05,-3e-05,-3e-05,0,2,12
7247,-7e-05,-1e-05,-2e-05,-5e-05,3e-05,-3e-05,-3e-05,0,2,12
7248,-7e-05,-1e-05,-2e-05,-5e-05,3e-05,-3e-05,-3e-05,0,2,12
7249,-7e-05,-1e-05,-2e-05,-5e-05,3e-05,-3e-05,-3e-05,0,2,12
7250,-7e-05,-1e-05,-2e-05,-5e-05,3e-05,-3e-05,-3e-05,0,2,12
7251,-7e-05,-1e-05,-2e-05,-5e-05,3e-05,-3e-05,-3e-05,0,2,12
7252,-7e-05,-1e-05,-2e-05,-5e-05,3e-05,-3e-05,-3e-05,0,2,12
7253,-7e-05,-1e-05,-2e-05,-5e-05,3e-05,-3e-05,-3e-05,0,2,12
7254,7e-05,1e-05,3e-05,0,0.00015,4e-05,0.00026,6e-05,2,12
7255,-5e-05,6e-05,-1e-05,-0.00017,4e-05,0.0001,8e-05,-0.00011,2,12
7256,-5e-05,6e-05,-1e-05,-0.00017,4e-05,0.0001,8e-05,-0.00011,2,12
7257,-5e-05,6e-05,-1e-05,-0.00017,4e-05,0.0001,8e-05,-0.00011,2,12
7258,-5e-05,6e-05,-1e-05,-0.00017,4e-05,0.0001,8e-05,-0.00011,2,12
7259,-5e-05,6e-05,-1e-05,-0.00017,4e-05,0.0001,8e-05,-0.00011,2,12
7260,-5e-05,6e-05,-1e-05,-0.00017,4e-05,0.0001,8e-05,-0.00011,2,12
7261,-5e-05,6e-05,-1e-05,-0.00017,4e-05,0.0001,8e-05,-0.00011,2,12
7262,-5e-05,6e-05,-1e-05,-0.00017,4e-05,0.0001,8e-05,-0.00011,2,12
7263,-5e-05,6e-05,-1e-05,-0.00017,4e-05,0.0001,8e-05,-0.00011,2,12
7264,-5e-05,6e-05,-1e-05,-0.00017,4e-05,0.0001,8e-05,-0.00011,2,12
7265,-5e-05,6e-05,-1e-05,-0.00017,4e-05,0.0001,8e-05,-0.00011,2,12
7266,-5e-05,6e-05,-1e-05,-0.00017,4e-05,0.0001,8e-05,-0.00011,2,12
7267,-5e-05,6e-05,-1e-05,-0.00017,4e-05,0.0001,8e-05,-0.00011,2,12
7268,2e-05,-0.00014,-0.0001,-0.00025,-6e-05,-3e-05,0.00012,1e-05,2,12
7269,-0.00015,-0.00048,-3e-05,5e-05,-2e-05,-7e-05,-3e-05,-2e-05,2,12
7270,-0.00015,-0.00048,-3e-05,5e-05,-2e-05,-7e-05,-3e-05,-2e-05,2,12
7271,-0.00015,-0.00048,-3e-05,5e-05,-2e-05,-7e-05,-3e-05,-2e-05,2,12
7272,-0.00015,-0.00048,-3e-05,5e-05,-2e-05,-7e-05,-3e-05,-2e-05,2,12
7273,-0.00015,-0.00048,-3e-05,5e-05,-2e-05,-7e-05,-3e-05,-2e-05,2,12
7274,-0.00015,-0.00048,-3e-05,5e-05,-2e-05,-7e-05,-3e-05,-2e-05,2,12
7275,-0.00015,-0.00048,-3e-05,5e-05,-2e-05,-7e-05,-3e-05,-2e-05,2,12
7276,-0.00015,-0.00048,-3e-05,5e-05,-2e-05,-7e-05,-3e-05,-2e-05,2,12
7277,0,-1e-05,-2e-05,-0.00021,-5e-05,3e-05,7e-05,-3e-05,2,12
7278,0,-1e-05,-2e-05,-0.00021,-5e-05,3e-05,7e-05,-3e-05,2,12
7279,0,-1e-05,-2e-05,-0.00021,-5e-05,3e-05,7e-05,-3e-05,2,12
7280,0,-1e-05,-2e-05,-0.00021,-5e-05,3e-05,7e-05,-3e-05,2,12
7281,0,-1e-05,-2e-05,-0.00021,-5e-05,3e-05,7e-05,-3e-05,2,12
7282,0,-1e-05,-2e-05,-0.00021,-5e-05,3e-05,7e-05,-3e-05,2,12
7283,0,-1e-05,-2e-05,-0.00021,-5e-05,3e-05,7e-05,-3e-05,2,12
7284,0,-1e-05,-2e-05,-0.00021,-5e-05,3e-05,7e-05,-3e-05,2,12
7285,0,-1e-05,-2e-05,-0.00021,-5e-05,3e-05,7e-05,-3e-05,2,12
7286,0,-1e-05,-2e-05,-0.00021,-5e-05,3e-05,7e-05,-3e-05,2,12
7288,0,-1e-05,-2e-05,-0.00021,-5e-05,3e-05,7e-05,-3e-05,2,12
7289,0,-1e-05,-2e-05,-0.00021,-5e-05,3e-05,7e-05,-3e-05,2,12
7290,0,-1e-05,-2e-05,-0.00021,-5e-05,3e-05,7e-05,-3e-05,2,12
7291,0,-1e-05,-2e-05,-0.00021,-5e-05,3e-05,7e-05,-3e-05,2,12
7292,3e-05,-9e-05,3e-05,-0.00025,-5e-05,-1e-05,1e-05,4e-05,2,12
7293,-5e-05,-0.00011,-0.00015,-0.00021,-6e-05,-5e-05,-0.00022,-1e-05,2,12
7294,-5e-05,-0.00011,-0.00015,-0.00021,-6e-05,-5e-05,-0.00022,-1e-05,2,12
7295,-5e-05,-0.00011,-0.00015,-0.00021,-6e-05,-5e-05,-0.00022,-1e-05,2,12
7296,-5e-05,-0.00011,-0.00015,-0.00021,-6e-05,-5e-05,-0.00022,-1e-05,2,12
7297,-5e-05,-0.00011,-0.00015,-0.00021,-6e-05,-5e-05,-0.00022,-1e-05,2,12
7298,-5e-05,-0.00011,-0.00015,-0.00021,-6e-05,-5e-05,-0.00022,-1e-05,2,12
7299,-5e-05,-0.00011,-0.00015,-0.00021,-6e-05,-5e-05,-0.00022,-1e-05,2,12
7300,-5e-05,-0.00011,-0.00015,-0.00021,-6e-05,-5e-05,-0.00022,-1e-05,2,12
7301,-5e-05,-0.00011,-0.00015,-0.00021,-6e-05,-5e-05,-0.00022,-1e-05,2,12
7302,-5e-05,-0.00011,-0.00015,-0.00021,-6e-05,-5e-05,-0.00022,-1e-05,2,12
7303,-5e-05,-0.00011,-0.00015,-0.00021,-6e-05,-5e-05,-0.00022,-1e-05,2,12
7304,-5e-05,-0.00011,-0.00015,-0.00021,-6e-05,-5e-05,-0.00022,-1e-05,2,12
7305,-5e-05,-0.00011,-0.00015,-0.00021,-6e-05,-5e-05,-0.00022,-1e-05,2,12
7306,-5e-05,-0.00011,-0.00015,-0.00021,-6e-05,-5e-05,-0.00022,-1e-05,2,12
7307,-5e-05,-0.00011,-0.00015,-0.00021,-6e-05,-5e-05,-0.00022,-1e-05,2,12
7308,-5e-05,-0.00011,-0.00015,-0.00021,-6e-05,-5e-05,-0.00022,-1e-05,2,12
7309,-5e-05,-0.00011,-0.00015,-0.00021,-6e-05,-5e-05,-0.00022,-1e-05,2,12
7310,-5e-05,-0.00011,-0.00015,-0.00021,-6e-05,-5e-05,-0.00022,-1e-05,2,12
7311,-5e-05,-0.00011,-0.00015,-0.00021,-6e-05,-5e-05,-0.00022,-1e-05,2,12
7312,-5e-05,-0.00011,-0.00015,-0.00021,-6e-05,-5e-05,-0.00022,-1e-05,2,12
7313,-5e-05,-0.00011,-0.00015,-0.00021,-6e-05,-5e-05,-0.00022,-1e-05,2,12
7314,1e-05,0,-9e-05,-0.00052,-0.0002,-4e-05,0.00011,5e-05,2,12
7315,8e-05,0.00016,8e-05,0.0002,0.00014,-2e-05,-8e-05,-1e-05,2,12
7316,8e-05,0.00016,8e-05,0.0002,0.00014,-2e-05,-8e-05,-1e-05,2,12
7317,8e-05,0.00016,8e-05,0.0002,0.00014,-2e-05,-8e-05,-1e-05,2,12
7318,8e-05,0.00016,8e-05,0.0002,0.00014,-2e-05,-8e-05,-1e-05,2,12
7319,8e-05,0.00016,8e-05,0.0002,0.00014,-2e-05,-8e-05,-1e-05,2,12
7320,8e-05,0.00016,8e-05,0.0002,0.00014,-2e-05,-8e-05,-1e-05,2,12
7321,8e-05,0.00016,8e-05,0.0002,0.00014,-2e-05,-8e-05,-1e-05,2,12
7322,8e-05,0.00016,8e-05,0.0002,0.00014,-2e-05,-8e-05,-1e-05,2,12
7323,8e-05,0.00016,8e-05,0.0002,0.00014,-2e-05,-8e-05,-1e-05,2,12
7324,8e-05,0.00016,8e-05,0.0002,0.00014,-2e-05,-8e-05,-1e-05,2,12
7325,8e-05,0.00016,8e-05,0.0002,0.00014,-2e-05,-8e-05,-1e-05,2,12
7326,8e-05,0.00016,8e-05,0.0002,0.00014,-2e-05,-8e-05,-1e-05,2,12
7327,8e-05,0.00016,8e-05,0.0002,0.00014,-2e-05,-8e-05,-1e-05,2,12
7328,8e-05,0.00016,8e-05,0.0002,0.00014,-2e-05,-8e-05,-1e-05,2,12
7329,8e-05,0.00016,8e-05,0.0002,0.00014,-2e-05,-8e-05,-1e-05,2,12
7330,8e-05,0.00016,8e-05,0.0002,0.00014,-2e-05,-8e-05,-1e-05,2,12
7331,8e-05,0.00016,8e-05,0.0002,0.00014,-2e-05,-8e-05,-1e-05,2,12
7332,8e-05,0.00016,8e-05,0.0002,0.00014,-2e-05,-8e-05,-1e-05,2,12
7333,8e-05,0.00016,8e-05,0.0002,0.00014,-2e-05,-8e-05,-1e-05,2,12
7334,8e-05,0.00016,8e-05,0.0002,0.00014,-2e-05,-8e-05,-1e-05,2,12
7335,8e-05,0.00016,8e-05,0.0002,0.00014,-2e-05,-8e-05,-1e-05,2,12
7336,8e-05,0.00016,8e-05,0.0002,0.00014,-2e-05,-8e-05,-1e-05,2,12
7338,1e-05,0,2e-05,5e-05,0,5e-05,6e-05,8e-05,2,12
7339,1e-05,0,2e-05,5e-05,0,5e-05,6e-05,8e-05,2,12
7340,1e-05,0,2e-05,5e-05,0,5e-05,6e-05,8e-05,2,12
7341,1e-05,0,2e-05,5e-05,0,5e-05,6e-05,8e-05,2,12
7342,1e-05,0,2e-05,5e-05,0,5e-05,6e-05,8e-05,2,12
7343,1e-05,0,2e-05,5e-05,0,5e-05,6e-05,8e-05,2,12
7344,1e-05,0,2e-05,5e-05,0,5e-05,6e-05,8e-05,2,12
7345,1e-05,0,2e-05,5e-05,0,5e-05,6e-05,8e-05,2,12
7346,1e-05,0,2e-05,5e-05,0,5e-05,6e-05,8e-05,2,12
7347,1e-05,0,2e-05,5e-05,0,5e-05,6e-05,8e-05,2,12
7348,1e-05,0,2e-05,5e-05,0,5e-05,6e-05,8e-05,2,12
7349,1e-05,0,2e-05,5e-05,0,5e-05,6e-05,8e-05,2,12
7350,1e-05,0,2e-05,5e-05,0,5e-05,6e-05,8e-05,2,12
7351,0,5e-05,2e-05,-0.00016,-0.0001,-6e-05,-0.0003,-2e-05,2,12
7352,0,5e-05,2e-05,-0.00016,-0.0001,-6e-05,-0.0003,-2e-05,2,12
7353,0,5e-05,2e-05,-0.00016,-0.0001,-6e-05,-0.0003,-2e-05,2,12
7354,0,5e-05,2e-05,-0.00016,-0.0001,-6e-05,-0.0003,-2e-05,2,12
7355,0,5e-05,2e-05,-0.00016,-0.0001,-6e-05,-0.0003,-2e-05,2,12
7356,0,5e-05,2e-05,-0.00016,-0.0001,-6e-05,-0.0003,-2e-05,2,12
7357,0,5e-05,2e-05,-0.00016,-0.0001,-6e-05,-0.0003,-2e-05,2,12
7358,0,5e-05,2e-05,-0.00016,-0.0001,-6e-05,-0.0003,-2e-05,2,12
7359,8e-05,2e-05,2e-05,0.00018,5e-05,-2e-05,-0.00015,6e-05,2,12
7360,8e-05,2e-05,2e-05,0.00018,5e-05,-2e-05,-0.00015,6e-05,2,12
7361,8e-05,2e-05,2e-05,0.00018,5e-05,-2e-05,-0.00015,6e-05,2,12
7362,8e-05,2e-05,2e-05,0.00018,5e-05,-2e-05,-0.00015,6e-05,2,12
7363,8e-05,2e-05,2e-05,0.00018,5e-05,-2e-05,-0.00015,6e-05,2,12
7364,8e-05,2e-05,2e-05,0.00018,5e-05,-2e-05,-0.00015,6e-05,2,12
7365,8e-05,2e-05,2e-05,0.00018,5e-05,-2e-05,-0.00015,6e-05,2,12
7366,8e-05,2e-05,2e-05,0.00018,5e-05,-2e-05,-0.00015,6e-05,2,12
7367,8e-05,2e-05,2e-05,0.00018,5e-05,-2e-05,-0.00015,6e-05,2,12
7368,8e-05,2e-05,2e-05,0.00018,5e-05,-2e-05,-0.00015,6e-05,2,12
7369,8e-05,2e-05,2e-05,0.00018,5e-05,-2e-05,-0.00015,6e-05,2,12
7370,8e-05,2e-05,2e-05,0.00018,5e-05,-2e-05,-0.00015,6e-05,2,12
7371,8e-05,2e-05,2e-05,0.00018,5e-05,-2e-05,-0.00015,6e-05,2,12
7372,8e-05,2e-05,2e-05,0.00018,5e-05,-2e-05,-0.00015,6e-05,2,12
7373,8e-05,2e-05,2e-05,0.00018,5e-05,-2e-05,-0.00015,6e-05,2,12
7374,5e-05,5e-05,7e-05,8e-05,-1e-05,0,-5e-05,-3e-05,2,12
7375,-7e-05,-0.00018,4e-05,0.00013,0.00012,-1e-05,-7e-05,-3e-05,2,12
7376,-7e-05,-0.00018,4e-05,0.00013,0.00012,-1e-05,-7e-05,-3e-05,2,12
7377,-7e-05,-0.00018,4e-05,0.00013,0.00012,-1e-05,-7e-05,-3e-05,2,12
7378,-7e-05,-0.00018,4e-05,0.00013,0.00012,-1e-05,-7e-05,-3e-05,2,12
7379,-7e-05,-0.00018,4e-05,0.00013,0.00012,-1e-05,-7e-05,-3e-05,2,12
7380,-7e-05,-0.00018,4e-05,0.00013,0.00012,-1e-05,-7e-05,-3e-05,2,12
7381,-7e-05,-0.00018,4e-05,0.00013,0.00012,-1e-05,-7e-05,-3e-05,2,12
7382,-7e-05,-0.00018,4e-05,0.00013,0.00012,-1e-05,-7e-05,-3e-05,2,12
7383,-7e-05,-0.00018,4e-05,0.00013,0.00012,-1e-05,-7e-05,-3e-05,2,12
7384,-7e-05,-0.00018,4e-05,0.00013,0.00012,-1e-05,-7e-05,-3e-05,2,12
7385,-7e-05,-0.00018,4e-05,0.00013,0.00012,-1e-05,-7e-05,-3e-05,2,12
7386,-7e-05,-0.00018,4e-05,0.00013,0.00012,-1e-05,-7e-05,-3e-05,2,12
7388,-7e-05,-0.00018,4e-05,0.00013,0.00012,-1e-05,-7e-05,-3e-05,2,12
7389,-7e-05,-0.00018,4e-05,0.00013,0.00012,-1e-05,-7e-05,-3e-05,2,12
7390,-7e-05,-0.00018,4e-05,0.00013,0.00012,-1e-05,-7e-05,-3e-05,2,12
7391,-7e-05,-0.00018,4e-05,0.00013,0.00012,-1e-05,-7e-05,-3e-05,2,12
7392,-7e-05,-0.00018,4e-05,0.00013,0.00012,-1e-05,-7e-05,-3e-05,2,12
7393,-7e-05,-0.00018,4e-05,0.00013,0.00012,-1e-05,-7e-05,-3e-05,2,12
7394,-7e-05,-0.00018,4e-05,0.00013,0.00012,-1e-05,-7e-05,-3e-05,2,12
7395,-7e-05,-0.00018,4e-05,0.00013,0.00012,-1e-05,-7e-05,-3e-05,2,12
7396,-7e-05,-0.00018,4e-05,0.00013,0.00012,-1e-05,-7e-05,-3e-05,2,12
7397,1e-05,-4e-05,-4e-05,-7e-05,-5e-05,-2e-05,0,1e-05,2,12
7398,-2e-05,-4e-05,-4e-05,-6e-05,-0.00016,-1e-05,9e-05,2e-05,2,12
7399,-2e-05,-4e-05,-4e-05,-6e-05,-0.00016,-1e-05,9e-05,2e-05,2,12
7400,-2e-05,-4e-05,-4e-05,-6e-05,-0.00016,-1e-05,9e-05,2e-05,2,12
7401,-2e-05,-4e-05,-4e-05,-6e-05,-0.00016,-1e-05,9e-05,2e-05,2,12
7402,-2e-05,-4e-05,-4e-05,-6e-05,-0.00016,-1e-05,9e-05,2e-05,2,12
7403,-2e-05,-4e-05,-4e-05,-6e-05,-0.00016,-1e-05,9e-05,2e-05,2,12
7404,-2e-05,-4e-05,-4e-05,-6e-05,-0.00016,-1e-05,9e-05,2e-05,2,12
7405,-2e-05,-4e-05,-4e-05,-6e-05,-0.00016,-1e-05,9e-05,2e-05,2,12
7406,-2e-05,-4e-05,-4e-05,-6e-05,-0.00016,-1e-05,9e-05,2e-05,2,12
7407,-2e-05,-4e-05,-4e-05,-6e-05,-0.00016,-1e-05,9e-05,2e-05,2,12
7408,-2e-05,-4e-05,-4e-05,-6e-05,-0.00016,-1e-05,9e-05,2e-05,2,12
7409,-2e-05,-4e-05,-4e-05,-6e-05,-0.00016,-1e-05,9e-05,2e-05,2,12
7410,-2e-05,-4e-05,-4e-05,-6e-05,-0.00016,-1e-05,9e-05,2e-05,2,12
7411,-2e-05,-4e-05,-4e-05,-6e-05,-0.00016,-1e-05,9e-05,2e-05,2,12
7412,0,5e-05,-3e-05,-6e-05,2e-05,-4e-05,-0.00014,-2e-05,2,12
7413,-3e-05,4e-05,8e-05,0.00015,4e-05,1e-05,0.00012,-1e-05,2,12
7414,-3e-05,4e-05,8e-05,0.00015,4e-05,1e-05,0.00012,-1e-05,2,12
7415,-3e-05,4e-05,8e-05,0.00015,4e-05,1e-05,0.00012,-1e-05,2,12
7416,-3e-05,4e-05,8e-05,0.00015,4e-05,1e-05,0.00012,-1e-05,2,12
7417,-3e-05,4e-05,8e-05,0.00015,4e-05,1e-05,0.00012,-1e-05,2,12
7418,-3e-05,4e-05,8e-05,0.00015,4e-05,1e-05,0.00012,-1e-05,2,12
7419,-3e-05,4e-05,8e-05,0.00015,4e-05,1e-05,0.00012,-1e-05,2,12
7420,-3e-05,4e-05,8e-05,0.00015,4e-05,1e-05,0.00012,-1e-05,2,12
7421,-3e-05,4e-05,8e-05,0.00015,4e-05,1e-05,0.00012,-1e-05,2,12
7422,-3e-05,4e-05,8e-05,0.00015,4e-05,1e-05,0.00012,-1e-05,2,12
7423,-3e-05,4e-05,8e-05,0.00015,4e-05,1e-05,0.00012,-1e-05,2,12
7424,-3e-05,4e-05,8e-05,0.00015,4e-05,1e-05,0.00012,-1e-05,2,12
7425,-3e-05,4e-05,8e-05,0.00015,4e-05,1e-05,0.00012,-1e-05,2,12
7426,-3e-05,4e-05,8e-05,0.00015,4e-05,1e-05,0.00012,-1e-05,2,12
7427,-3e-05,4e-05,8e-05,0.00015,4e-05,1e-05,0.00012,-1e-05,2,12
7428,-3e-05,4e-05,8e-05,0.00015,4e-05,1e-05,0.00012,-1e-05,2,12
7429,-3e-05,4e-05,8e-05,0.00015,4e-05,1e-05,0.00012,-1e-05,2,12
7430,-3e-05,4e-05,8e-05,0.00015,4e-05,1e-05,0.00012,-1e-05,2,12
7431,-3e-05,4e-05,8e-05,0.00015,4e-05,1e-05,0.00012,-1e-05,2,12
7432,-3e-05,4e-05,8e-05,0.00015,4e-05,1e-05,0.00012,-1e-05,2,12
7433,-3e-05,4e-05,8e-05,0.00015,4e-05,1e-05,0.00012,-1e-05,2,12
7434,0,0.00013,-2e-05,-9e-05,-8e-05,2e-05,-4e-05,-5e-05,2,12
7435,-1e-05,9e-05,0.00014,0.00044,-1e-05,-0.0001,-1e-05,-2e-05,2,12
7436,-1e-05,9e-05,0.00014,0.00044,-1e-05,-0.0001,-1e-05,-2e-05,2,12
7439,-1e-05,9e-05,0.00014,0.00044,-1e-05,-0.0001,-1e-05,-2e-05,2,12
7440,-1e-05,9e-05,0.00014,0.00044,-1e-05,-0.0001,-1e-05,-2e-05,2,12
7441,-1e-05,9e-05,0.00014,0.00044,-1e-05,-0.0001,-1e-05,-2e-05,2,12
7442,-1e-05,9e-05,0.00014,0.00044,-1e-05,-0.0001,-1e-05,-2e-05,2,12
7443,-1e-05,9e-05,0.00014,0.00044,-1e-05,-0.0001,-1e-05,-2e-05,2,12
7444,-1e-05,9e-05,0.00014,0.00044,-1e-05,-0.0001,-1e-05,-2e-05,2,12
7445,-1e-05,9e-05,0.00014,0.00044,-1e-05,-0.0001,-1e-05,-2e-05,2,12
7446,-1e-05,9e-05,0.00014,0.00044,-1e-05,-0.0001,-1e-05,-2e-05,2,12
7447,-1e-05,9e-05,0.00014,0.00044,-1e-05,-0.0001,-1e-05,-2e-05,2,12
7448,-1e-05,9e-05,0.00014,0.00044,-1e-05,-0.0001,-1e-05,-2e-05,2,12
7449,-1e-05,9e-05,0.00014,0.00044,-1e-05,-0.0001,-1e-05,-2e-05,2,12
7450,-1e-05,9e-05,0.00014,0.00044,-1e-05,-0.0001,-1e-05,-2e-05,2,12
7451,-1e-05,9e-05,0.00014,0.00044,-1e-05,-0.0001,-1e-05,-2e-05,2,12
7452,-1e-05,9e-05,0.00014,0.00044,-1e-05,-0.0001,-1e-05,-2e-05,2,12
7453,-1e-05,9e-05,0.00014,0.00044,-1e-05,-0.0001,-1e-05,-2e-05,2,12
7454,-1e-05,9e-05,0.00014,0.00044,-1e-05,-0.0001,-1e-05,-2e-05,2,12
7455,-1e-05,9e-05,0.00014,0.00044,-1e-05,-0.0001,-1e-05,-2e-05,2,12
7456,-1e-05,9e-05,0.00014,0.00044,-1e-05,-0.0001,-1e-05,-2e-05,2,12
7457,-0.0001,-0.00014,0,0.00026,0.00021,1e-05,0.00019,-1e-05,2,12
7458,-4e-05,-0.00011,-5e-05,0.00012,-3e-05,-1e-05,-2e-05,-4e-05,2,12
7459,-4e-05,-0.00011,-5e-05,0.00012,-3e-05,-1e-05,-2e-05,-4e-05,2,12
7460,-4e-05,-0.00011,-5e-05,0.00012,-3e-05,-1e-05,-2e-05,-4e-05,2,12
7461,-4e-05,-0.00011,-5e-05,0.00012,-3e-05,-1e-05,-2e-05,-4e-05,2,12
7462,-4e-05,-0.00011,-5e-05,0.00012,-3e-05,-1e-05,-2e-05,-4e-05,2,12
7463,-4e-05,-0.00011,-5e-05,0.00012,-3e-05,-1e-05,-2e-05,-4e-05,2,12
7464,-4e-05,-0.00011,-5e-05,0.00012,-3e-05,-1e-05,-2e-05,-4e-05,2,12
7465,-4e-05,-0.00011,-5e-05,0.00012,-3e-05,-1e-05,-2e-05,-4e-05,2,12
7466,-4e-05,-0.00011,-5e-05,0.00012,-3e-05,-1e-05,-2e-05,-4e-05,2,12
7467,-4e-05,-0.00011,-5e-05,0.00012,-3e-05,-1e-05,-2e-05,-4e-05,2,12
7468,-4e-05,-0.00011,-5e-05,0.00012,-3e-05,-1e-05,-2e-05,-4e-05,2,12
7469,-4e-05,-0.00011,-5e-05,0.00012,-3e-05,-1e-05,-2e-05,-4e-05,2,12
7470,-4e-05,-0.00011,-5e-05,0.00012,-3e-05,-1e-05,-2e-05,-4e-05,2,12
7471,-4e-05,-0.00011,-5e-05,0.00012,-3e-05,-1e-05,-2e-05,-4e-05,2,12
7472,0,7e-05,-1e-05,-7e-05,-1e-05,-2e-05,-0.00022,-2e-05,2,12
7473,0,7e-05,-1e-05,-7e-05,-1e-05,-2e-05,-0.00022,-2e-05,2,12
7474,0,7e-05,-1e-05,-7e-05,-1e-05,-2e-05,-0.00022,-2e-05,2,12
7475,0,7e-05,-1e-05,-7e-05,-1e-05,-2e-05,-0.00022,-2e-05,2,12
7476,0,7e-05,-1e-05,-7e-05,-1e-05,-2e-05,-0.00022,-2e-05,2,12
7477,0,7e-05,-1e-05,-7e-05,-1e-05,-2e-05,-0.00022,-2e-05,2,12
7478,0,7e-05,-1e-05,-7e-05,-1e-05,-2e-05,-0.00022,-2e-05,2,12
7479,0,7e-05,-1e-05,-7e-05,-1e-05,-2e-05,-0.00022,-2e-05,2,12
7480,0,7e-05,-1e-05,-7e-05,-1e-05,-2e-05,-0.00022,-2e-05,2,12
7481,0,7e-05,-1e-05,-7e-05,-1e-05,-2e-05,-0.00022,-2e-05,2,12
7482,0,7e-05,-1e-05,-7e-05,-1e-05,-2e-05,-0.00022,-2e-05,2,12
7483,0,7e-05,-1e-05,-7e-05,-1e-05,-2e-05,-0.00022,-2e-05,2,12
7484,0,7e-05,-1e-05,-7e-05,-1e-05,-2e-05,-0.00022,-2e-05,2,12
7485,0,7e-05,-1e-05,-7e-05,-1e-05,-2e-05,-0.00022,-2e-05,2,12
7486,0,7e-05,-1e-05,-7e-05,-1e-05,-2e-05,-0.00022,-2e-05,2,12
7488,0,7e-05,-1e-05,-7e-05,-1e-05,-2e-05,-0.00022,-2e-05,2,12
7489,0,7e-05,-1e-05,-7e-05,-1e-05,-2e-05,-0.00022,-2e-05,2,12
7490,0,7e-05,-1e-05,-7e-05,-1e-05,-2e-05,-0.00022,-2e-05,2,12
7491,0,7e-05,-1e-05,-7e-05,-1e-05,-2e-05,-0.00022,-2e-05,2,12
7492,0,7e-05,-1e-05,-7e-05,-1e-05,-2e-05,-0.00022,-2e-05,2,12
7493,0,7e-05,-1e-05,-7e-05,-1e-05,-2e-05,-0.00022,-2e-05,2,12
7494,8e-05,0.0001,0.00011,0.00011,-4e-05,-2e-05,-0.00016,-2e-05,2,12
7495,-3e-05,-3e-05,-0.00026,-0.00105,-0.00035,0,-0.0001,-3e-05,2,12
7496,-3e-05,-3e-05,-0.00026,-0.00105,-0.00035,0,-0.0001,-3e-05,2,12
7497,-3e-05,-3e-05,-0.00026,-0.00105,-0.00035,0,-0.0001,-3e-05,2,12
7498,-3e-05,-3e-05,-0.00026,-0.00105,-0.00035,0,-0.0001,-3e-05,2,12
7499,-3e-05,-3e-05,-0.00026,-0.00105,-0.00035,0,-0.0001,-3e-05,2,12
7500,-3e-05,-3e-05,-0.00026,-0.00105,-0.00035,0,-0.0001,-3e-05,2,12
7501,-3e-05,-3e-05,-0.00026,-0.00105,-0.00035,0,-0.0001,-3e-05,2,12
7502,-3e-05,-3e-05,-0.00026,-0.00105,-0.00035,0,-0.0001,-3e-05,2,12
7503,-3e-05,-3e-05,-0.00026,-0.00105,-0.00035,0,-0.0001,-3e-05,2,12
7504,-3e-05,-3e-05,-0.00026,-0.00105,-0.00035,0,-0.0001,-3e-05,2,12
7505,-3e-05,-3e-05,-0.00026,-0.00105,-0.00035,0,-0.0001,-3e-05,2,12
7506,-3e-05,-3e-05,-0.00026,-0.00105,-0.00035,0,-0.0001,-3e-05,2,12
7507,-3e-05,-3e-05,-0.00026,-0.00105,-0.00035,0,-0.0001,-3e-05,2,12
7508,-3e-05,-3e-05,-0.00026,-0.00105,-0.00035,0,-0.0001,-3e-05,2,12
7509,-3e-05,-3e-05,-0.00026,-0.00105,-0.00035,0,-0.0001,-3e-05,2,12
7510,-3e-05,-3e-05,-0.00026,-0.00105,-0.00035,0,-0.0001,-3e-05,2,12
7511,-3e-05,-3e-05,-0.00026,-0.00105,-0.00035,0,-0.0001,-3e-05,2,12
7512,-3e-05,-3e-05,-0.00026,-0.00105,-0.00035,0,-0.0001,-3e-05,2,12
7513,-3e-05,-3e-05,-0.00026,-0.00105,-0.00035,0,-0.0001,-3e-05,2,12
7514,-3e-05,-3e-05,-0.00026,-0.00105,-0.00035,0,-0.0001,-3e-05,2,12
7515,-3e-05,-3e-05,-0.00026,-0.00105,-0.00035,0,-0.0001,-3e-05,2,12
7516,-3e-05,-3e-05,-0.00026,-0.00105,-0.00035,0,-0.0001,-3e-05,2,12
7517,-3e-05,-3e-05,-0.00026,-0.00105,-0.00035,0,-0.0001,-3e-05,2,12
7518,5e-05,0.00011,-8e-05,-0.00011,-1e-05,3e-05,7e-05,5e-05,2,12
7519,-7e-05,-0.00023,6e-05,0.00035,2e-05,-4e-05,0,-4e-05,2,12
7520,-7e-05,-0.00023,6e-05,0.00035,2e-05,-4e-05,0,-4e-05,2,12
7521,-7e-05,-0.00023,6e-05,0.00035,2e-05,-4e-05,0,-4e-05,2,12
7522,-7e-05,-0.00023,6e-05,0.00035,2e-05,-4e-05,0,-4e-05,2,12
7523,-7e-05,-0.00023,6e-05,0.00035,2e-05,-4e-05,0,-4e-05,2,12
7524,-7e-05,-0.00023,6e-05,0.00035,2e-05,-4e-05,0,-4e-05,2,12
7525,-7e-05,-0.00023,6e-05,0.00035,2e-05,-4e-05,0,-4e-05,2,12
7526,-7e-05,-0.00023,6e-05,0.00035,2e-05,-4e-05,0,-4e-05,2,12
7527,-7e-05,-0.00023,6e-05,0.00035,2e-05,-4e-05,0,-4e-05,2,12
7528,-7e-05,-0.00023,6e-05,0.00035,2e-05,-4e-05,0,-4e-05,2,12
7529,-7e-05,-0.00023,6e-05,0.00035,2e-05,-4e-05,0,-4e-05,2,12
7530,-7e-05,-0.00023,6e-05,0.00035,2e-05,-4e-05,0,-4e-05,2,12
7531,-7e-05,-0.00023,6e-05,0.00035,2e-05,-4e-05,0,-4e-05,2,12
7532,0.0001,1e-05,4e-05,0.00058,0.00014,0,0.00035,0.00012,2,12
7533,0.0001,1e-05,4e-05,0.00058,0.00014,0,0.00035,0.00012,2,12
7534,0.0001,1e-05,4e-05,0.00058,0.00014,0,0.00035,0.00012,2,12
7535,0.0001,1e-05,4e-05,0.00058,0.00014,0,0.00035,0.00012,2,12
7536,0.0001,1e-05,4e-05,0.00058,0.00014,0,0.00035,0.00012,2,12
7538,0.0001,1e-05,4e-05,0.00058,0.00014,0,0.00035,0.00012,2,12
7539,0.0001,1e-05,4e-05,0.00058,0.00014,0,0.00035,0.00012,2,12
7540,0.0001,1e-05,4e-05,0.00058,0.00014,0,0.00035,0.00012,2,12
7541,0.0001,1e-05,4e-05,0.00058,0.00014,0,0.00035,0.00012,2,12
7542,0.0001,1e-05,4e-05,0.00058,0.00014,0,0.00035,0.00012,2,12
7543,0.0001,1e-05,4e-05,0.00058,0.00014,0,0.00035,0.00012,2,12
7544,0.0001,1e-05,4e-05,0.00058,0.00014,0,0.00035,0.00012,2,12
7545,0.0001,1e-05,4e-05,0.00058,0.00014,0,0.00035,0.00012,2,12
7546,0.0001,1e-05,4e-05,0.00058,0.00014,0,0.00035,0.00012,2,12
7547,0.0001,1e-05,4e-05,0.00058,0.00014,0,0.00035,0.00012,2,12
7548,0.0001,1e-05,4e-05,0.00058,0.00014,0,0.00035,0.00012,2,12
7549,0.0001,1e-05,4e-05,0.00058,0.00014,0,0.00035,0.00012,2,12
7550,0.0001,1e-05,4e-05,0.00058,0.00014,0,0.00035,0.00012,2,12
7551,0.0001,1e-05,4e-05,0.00058,0.00014,0,0.00035,0.00012,2,12
7552,0.0001,1e-05,4e-05,0.00058,0.00014,0,0.00035,0.00012,2,12
7553,0.0001,1e-05,4e-05,0.00058,0.00014,0,0.00035,0.00012,2,12
7554,-2e-05,-0.00024,-1e-05,8e-05,5e-05,0,-6e-05,3e-05,2,12
7555,-5e-05,-0.0001,-8e-05,-0.00014,-1e-05,1e-05,-8e-05,3e-05,2,12
7556,-5e-05,-0.0001,-8e-05,-0.00014,-1e-05,1e-05,-8e-05,3e-05,2,12
7557,-5e-05,-0.0001,-8e-05,-0.00014,-1e-05,1e-05,-8e-05,3e-05,2,12
7558,-5e-05,-0.0001,-8e-05,-0.00014,-1e-05,1e-05,-8e-05,3e-05,2,12
7559,-5e-05,-0.0001,-8e-05,-0.00014,-1e-05,1e-05,-8e-05,3e-05,2,12
7560,-5e-05,-0.0001,-8e-05,-0.00014,-1e-05,1e-05,-8e-05,3e-05,2,12
7561,-5e-05,-0.0001,-8e-05,-0.00014,-1e-05,1e-05,-8e-05,3e-05,2,12
7562,-5e-05,-0.0001,-8e-05,-0.00014,-1e-05,1e-05,-8e-05,3e-05,2,12
7563,-5e-05,-0.0001,-8e-05,-0.00014,-1e-05,1e-05,-8e-05,3e-05,2,12
7564,-5e-05,-0.0001,-8e-05,-0.00014,-1e-05,1e-05,-8e-05,3e-05,2,12
7565,-5e-05,-0.0001,-8e-05,-0.00014,-1e-05,1e-05,-8e-05,3e-05,2,12
7566,-5e-05,-0.0001,-8e-05,-0.00014,-1e-05,1e-05,-8e-05,3e-05,2,12
7567,-5e-05,-0.0001,-8e-05,-0.00014,-1e-05,1e-05,-8e-05,3e-05,2,12
7568,-5e-05,-0.0001,-8e-05,-0.00014,-1e-05,1e-05,-8e-05,3e-05,2,12
7569,-5e-05,-0.0001,-8e-05,-0.00014,-1e-05,1e-05,-8e-05,3e-05,2,12
7570,-5e-05,-0.0001,-8e-05,-0.00014,-1e-05,1e-05,-8e-05,3e-05,2,12
7571,-5e-05,-0.0001,-8e-05,-0.00014,-1e-05,1e-05,-8e-05,3e-05,2,12
7572,-5e-05,-0.0001,-8e-05,-0.00014,-1e-05,1e-05,-8e-05,3e-05,2,12
7573,-5e-05,-0.0001,-8e-05,-0.00014,-1e-05,1e-05,-8e-05,3e-05,2,12
7574,-5e-05,-0.0001,-8e-05,-0.00014,-1e-05,1e-05,-8e-05,3e-05,2,12
7575,-5e-05,-0.0001,-8e-05,-0.00014,-1e-05,1e-05,-8e-05,3e-05,2,12
7576,-5e-05,-0.0001,-8e-05,-0.00014,-1e-05,1e-05,-8e-05,3e-05,2,12
7577,-1e-05,0.00012,2e-05,-6e-05,-9e-05,-6e-05,-0.00012,-1e-05,2,12
7578,-8e-05,0.0001,3e-05,-9e-05,1e-05,0,2e-05,2e-05,2,12
7579,-8e-05,0.0001,3e-05,-9e-05,1e-05,0,2e-05,2e-05,2,12
7580,-8e-05,0.0001,3e-05,-9e-05,1e-05,0,2e-05,2e-05,2,12
7581,-8e-05,0.0001,3e-05,-9e-05,1e-05,0,2e-05,2e-05,2,12
7582,-8e-05,0.0001,3e-05,-9e-05,1e-05,0,2e-05,2e-05,2,12
7583,-8e-05,0.0001,3e-05,-9e-05,1e-05,0,2e-05,2e-05,2,12
7584,-8e-05,0.0001,3e-05,-9e-05,1e-05,0,2e-05,2e-05,2,12
7585,-8e-05,0.0001,3e-05,-9e-05,1e-05,0,2e-05,2e-05,2,12
7586,-8e-05,0.0001,3e-05,-9e-05,1e-05,0,2e-05,2e-05,2,12
7588,-8e-05,0.0001,3e-05,-9e-05,1e-05,0,2e-05,2e-05,2,12
7589,-8e-05,0.0001,3e-05,-9e-05,1e-05,0,2e-05,2e-05,2,12
7590,-8e-05,0.0001,3e-05,-9e-05,1e-05,0,2e-05,2e-05,2,12
7591,-8e-05,0.0001,3e-05,-9e-05,1e-05,0,2e-05,2e-05,2,12
7592,-2e-05,-2e-05,-4e-05,-5e-05,-6e-05,-5e-05,-0.0002,2e-05,2,12
7593,-1e-05,0,4e-05,-9e-05,0,-6e-05,-2e-05,-0.00011,2,12
7594,-1e-05,0,4e-05,-9e-05,0,-6e-05,-2e-05,-0.00011,2,12
7595,-1e-05,0,4e-05,-9e-05,0,-6e-05,-2e-05,-0.00011,2,12
7596,-1e-05,0,4e-05,-9e-05,0,-6e-05,-2e-05,-0.00011,2,12
7597,-1e-05,0,4e-05,-9e-05,0,-6e-05,-2e-05,-0.00011,2,12
7598,-1e-05,0,4e-05,-9e-05,0,-6e-05,-2e-05,-0.00011,2,12
7599,-1e-05,0,4e-05,-9e-05,0,-6e-05,-2e-05,-0.00011,2,12
7600,-1e-05,0,4e-05,-9e-05,0,-6e-05,-2e-05,-0.00011,2,12
7601,-1e-05,0,4e-05,-9e-05,0,-6e-05,-2e-05,-0.00011,2,12
7602,-1e-05,0,4e-05,-9e-05,0,-6e-05,-2e-05,-0.00011,2,12
7603,-1e-05,0,4e-05,-9e-05,0,-6e-05,-2e-05,-0.00011,2,12
7604,-1e-05,0,4e-05,-9e-05,0,-6e-05,-2e-05,-0.00011,2,12
7605,-1e-05,0,4e-05,-9e-05,0,-6e-05,-2e-05,-0.00011,2,12
7606,-1e-05,0,4e-05,-9e-05,0,-6e-05,-2e-05,-0.00011,2,12
7607,-1e-05,0,4e-05,-9e-05,0,-6e-05,-2e-05,-0.00011,2,12
7608,-1e-05,0,4e-05,-9e-05,0,-6e-05,-2e-05,-0.00011,2,12
7609,-1e-05,0,4e-05,-9e-05,0,-6e-05,-2e-05,-0.00011,2,12
7610,-1e-05,0,4e-05,-9e-05,0,-6e-05,-2e-05,-0.00011,2,12
7611,-1e-05,0,4e-05,-9e-05,0,-6e-05,-2e-05,-0.00011,2,12
7612,-1e-05,0,4e-05,-9e-05,0,-6e-05,-2e-05,-0.00011,2,12
7613,-1e-05,0,4e-05,-9e-05,0,-6e-05,-2e-05,-0.00011,2,12
7614,2e-05,-0.00013,-4e-05,-0.00025,-7e-05,-1e-05,5e-05,6e-05,2,12
7615,7e-05,5e-05,-1e-05,-9e-05,8e-05,1e-05,-1e-05,-1e-05,2,12
7616,7e-05,5e-05,-1e-05,-9e-05,8e-05,1e-05,-1e-05,-1e-05,2,12
7617,7e-05,5e-05,-1e-05,-9e-05,8e-05,1e-05,-1e-05,-1e-05,2,12
7618,7e-05,5e-05,-1e-05,-9e-05,8e-05,1e-05,-1e-05,-1e-05,2,12
7619,7e-05,5e-05,-1e-05,-9e-05,8e-05,1e-05,-1e-05,-1e-05,2,12
7620,7e-05,5e-05,-1e-05,-9e-05,8e-05,1e-05,-1e-05,-1e-05,2,12
7621,7e-05,5e-05,-1e-05,-9e-05,8e-05,1e-05,-1e-05,-1e-05,2,12
7622,7e-05,5e-05,-1e-05,-9e-05,8e-05,1e-05,-1e-05,-1e-05,2,12
7623,7e-05,5e-05,-1e-05,-9e-05,8e-05,1e-05,-1e-05,-1e-05,2,12
7624,7e-05,5e-05,-1e-05,-9e-05,8e-05,1e-05,-1e-05,-1e-05,2,12
7625,7e-05,5e-05,-1e-05,-9e-05,8e-05,1e-05,-1e-05,-1e-05,2,12
7626,7e-05,5e-05,-1e-05,-9e-05,8e-05,1e-05,-1e-05,-1e-05,2,12
7627,7e-05,5e-05,-1e-05,-9e-05,8e-05,1e-05,-1e-05,-1e-05,2,12
7628,7e-05,5e-05,-1e-05,-9e-05,8e-05,1e-05,-1e-05,-1e-05,2,12
7629,7e-05,5e-05,-1e-05,-9e-05,8e-05,1e-05,-1e-05,-1e-05,2,12
7630,7e-05,5e-05,-1e-05,-9e-05,8e-05,1e-05,-1e-05,-1e-05,2,12
7631,7e-05,5e-05,-1e-05,-9e-05,8e-05,1e-05,-1e-05,-1e-05,2,12
7632,7e-05,5e-05,-1e-05,-9e-05,8e-05,1e-05,-1e-05,-1e-05,2,12
7633,7e-05,5e-05,-1e-05,-9e-05,8e-05,1e-05,-1e-05,-1e-05,2,12
7634,7e-05,5e-05,-1e-05,-9e-05,8e-05,1e-05,-1e-05,-1e-05,2,12
7635,7e-05,5e-05,-1e-05,-9e-05,8e-05,1e-05,-1e-05,-1e-05,2,12
7636,7e-05,5e-05,-1e-05,-9e-05,8e-05,1e-05,-1e-05,-1e-05,2,12
7638,-2e-05,5e-05,-6e-05,-2e-05,-3e-05,4e-05,6e-05,2e-05,2,12
7639,-2e-05,5e-05,-6e-05,-2e-05,-3e-05,4e-05,6e-05,2e-05,2,12
7640,-2e-05,5e-05,-6e-05,-2e-05,-3e-05,4e-05,6e-05,2e-05,2,12
7641,-2e-05,5e-05,-6e-05,-2e-05,-3e-05,4e-05,6e-05,2e-05,2,12
7642,-2e-05,5e-05,-6e-05,-2e-05,-3e-05,4e-05,6e-05,2e-05,2,12
7643,-2e-05,5e-05,-6e-05,-2e-05,-3e-05,4e-05,6e-05,2e-05,2,12
7644,-2e-05,5e-05,-6e-05,-2e-05,-3e-05,4e-05,6e-05,2e-05,2,12
7645,-2e-05,5e-05,-6e-05,-2e-05,-3e-05,4e-05,6e-05,2e-05,2,12
7646,-2e-05,5e-05,-6e-05,-2e-05,-3e-05,4e-05,6e-05,2e-05,2,12
7647,-2e-05,5e-05,-6e-05,-2e-05,-3e-05,4e-05,6e-05,2e-05,2,12
7648,-2e-05,5e-05,-6e-05,-2e-05,-3e-05,4e-05,6e-05,2e-05,2,12
7649,-2e-05,5e-05,-6e-05,-2e-05,-3e-05,4e-05,6e-05,2e-05,2,12
7650,-2e-05,5e-05,-6e-05,-2e-05,-3e-05,4e-05,6e-05,2e-05,2,12
7651,-2e-05,5e-05,-6e-05,-2e-05,-3e-05,4e-05,6e-05,2e-05,2,12
7652,-4e-05,-3e-05,-8e-05,8e-05,-0.00013,-3e-05,-1e-05,-4e-05,2,12
7653,1e-05,2e-05,1e-05,2e-05,-2e-05,2e-05,-0.00015,-3e-05,2,12
7654,1e-05,2e-05,1e-05,2e-05,-2e-05,2e-05,-0.00015,-3e-05,2,12
7655,1e-05,2e-05,1e-05,2e-05,-2e-05,2e-05,-0.00015,-3e-05,2,12
7656,1e-05,2e-05,1e-05,2e-05,-2e-05,2e-05,-0.00015,-3e-05,2,12
7657,1e-05,2e-05,1e-05,2e-05,-2e-05,2e-05,-0.00015,-3e-05,2,12
7658,1e-05,2e-05,1e-05,2e-05,-2e-05,2e-05,-0.00015,-3e-05,2,12
7659,1e-05,2e-05,1e-05,2e-05,-2e-05,2e-05,-0.00015,-3e-05,2,12
7660,1e-05,2e-05,1e-05,2e-05,-2e-05,2e-05,-0.00015,-3e-05,2,12
7661,1e-05,2e-05,1e-05,2e-05,-2e-05,2e-05,-0.00015,-3e-05,2,12
7662,1e-05,2e-05,1e-05,2e-05,-2e-05,2e-05,-0.00015,-3e-05,2,12
7663,1e-05,2e-05,1e-05,2e-05,-2e-05,2e-05,-0.00015,-3e-05,2,12
7664,1e-05,2e-05,1e-05,2e-05,-2e-05,2e-05,-0.00015,-3e-05,2,12
7665,1e-05,2e-05,1e-05,2e-05,-2e-05,2e-05,-0.00015,-3e-05,2,12
7666,1e-05,2e-05,1e-05,2e-05,-2e-05,2e-05,-0.00015,-3e-05,2,12
7667,1e-05,2e-05,1e-05,2e-05,-2e-05,2e-05,-0.00015,-3e-05,2,12
7668,1e-05,2e-05,1e-05,2e-05,-2e-05,2e-05,-0.00015,-3e-05,2,12
7669,1e-05,2e-05,1e-05,2e-05,-2e-05,2e-05,-0.00015,-3e-05,2,12
7670,1e-05,2e-05,1e-05,2e-05,-2e-05,2e-05,-0.00015,-3e-05,2,12
7671,1e-05,2e-05,1e-05,2e-05,-2e-05,2e-05,-0.00015,-3e-05,2,12
7672,1e-05,2e-05,1e-05,2e-05,-2e-05,2e-05,-0.00015,-3e-05,2,12
7673,1e-05,2e-05,1e-05,2e-05,-2e-05,2e-05,-0.00015,-3e-05,2,12
7674,1e-05,-1e-05,-4e-05,-0.00035,-0.00015,0,1e-05,-1e-05,2,12
7675,2e-05,9e-05,-2e-05,-4e-05,0,-4e-05,-0.00036,-6e-05,2,12
7676,2e-05,9e-05,-2e-05,-4e-05,0,-4e-05,-0.00036,-6e-05,2,12
7677,2e-05,9e-05,-2e-05,-4e-05,0,-4e-05,-0.00036,-6e-05,2,12
7678,2e-05,9e-05,-2e-05,-4e-05,0,-4e-05,-0.00036,-6e-05,2,12
7679,2e-05,9e-05,-2e-05,-4e-05,0,-4e-05,-0.00036,-6e-05,2,12
7680,2e-05,9e-05,-2e-05,-4e-05,0,-4e-05,-0.00036,-6e-05,2,12
7681,2e-05,9e-05,-2e-05,-4e-05,0,-4e-05,-0.00036,-6e-05,2,12
7682,2e-05,9e-05,-2e-05,-4e-05,0,-4e-05,-0.00036,-6e-05,2,12
7683,2e-05,9e-05,-2e-05,-4e-05,0,-4e-05,-0.00036,-6e-05,2,12
7684,2e-05,9e-05,-2e-05,-4e-05,0,-4e-05,-0.00036,-6e-05,2,12
7685,2e-05,9e-05,-2e-05,-4e-05,0,-4e-05,-0.00036,-6e-05,2,12
7686,2e-05,9e-05,-2e-05,-4e-05,0,-4e-05,-0.00036,-6e-05,2,12
7688,2e-05,9e-05,-2e-05,-4e-05,0,-4e-05,-0.00036,-6e-05,2,12
7689,2e-05,9e-05,-2e-05,-4e-05,0,-4e-05,-0.00036,-6e-05,2,12
7690,2e-05,9e-05,-2e-05,-4e-05,0,-4e-05,-0.00036,-6e-05,2,12
7691,2e-05,9e-05,-2e-05,-4e-05,0,-4e-05,-0.00036,-6e-05,2,12
7692,2e-05,9e-05,-2e-05,-4e-05,0,-4e-05,-0.00036,-6e-05,2,12
7693,2e-05,9e-05,-2e-05,-4e-05,0,-4e-05,-0.00036,-6e-05,2,12
7694,2e-05,9e-05,-2e-05,-4e-05,0,-4e-05,-0.00036,-6e-05,2,12
7695,2e-05,9e-05,-2e-05,-4e-05,0,-4e-05,-0.00036,-6e-05,2,12
7696,2e-05,9e-05,-2e-05,-4e-05,0,-4e-05,-0.00036,-6e-05,2,12
7697,3e-05,1e-05,2e-05,0.00015,0,0,4e-05,1e-05,2,12
7698,1e-05,-8e-05,-0.00011,-0.0002,-8e-05,-4e-05,6e-05,2e-05,2,12
7699,1e-05,-8e-05,-0.00011,-0.0002,-8e-05,-4e-05,6e-05,2e-05,2,12
7700,1e-05,-8e-05,-0.00011,-0.0002,-8e-05,-4e-05,6e-05,2e-05,2,12
7701,1e-05,-8e-05,-0.00011,-0.0002,-8e-05,-4e-05,6e-05,2e-05,2,12
7702,1e-05,-8e-05,-0.00011,-0.0002,-8e-05,-4e-05,6e-05,2e-05,2,12
7703,1e-05,-8e-05,-0.00011,-0.0002,-8e-05,-4e-05,6e-05,2e-05,2,12
7704,1e-05,-8e-05,-0.00011,-0.0002,-8e-05,-4e-05,6e-05,2e-05,2,12
7705,1e-05,-8e-05,-0.00011,-0.0002,-8e-05,-4e-05,6e-05,2e-05,2,12
7706,1e-05,-8e-05,-0.00011,-0.0002,-8e-05,-4e-05,6e-05,2e-05,2,12
7707,1e-05,-8e-05,-0.00011,-0.0002,-8e-05,-4e-05,6e-05,2e-05,2,12
7708,1e-05,-8e-05,-0.00011,-0.0002,-8e-05,-4e-05,6e-05,2e-05,2,12
7709,1e-05,-8e-05,-0.00011,-0.0002,-8e-05,-4e-05,6e-05,2e-05,2,12
7710,1e-05,-8e-05,-0.00011,-0.0002,-8e-05,-4e-05,6e-05,2e-05,2,12
7711,1e-05,-8e-05,-0.00011,-0.0002,-8e-05,-4e-05,6e-05,2e-05,2,12
7712,-1e-05,1e-05,-5e-05,-0.00034,1e-05,-6e-05,3e-05,0,2,12
7713,-1e-05,1e-05,-5e-05,-0.00034,1e-05,-6e-05,3e-05,0,2,12
7714,-1e-05,1e-05,-5e-05,-0.00034,1e-05,-6e-05,3e-05,0,2,12
7715,-1e-05,1e-05,-5e-05,-0.00034,1e-05,-6e-05,3e-05,0,2,12
7716,-1e-05,1e-05,-5e-05,-0.00034,1e-05,-6e-05,3e-05,0,2,12
7717,-1e-05,1e-05,-5e-05,-0.00034,1e-05,-6e-05,3e-05,0,2,12
7718,-1e-05,1e-05,-5e-05,-0.00034,1e-05,-6e-05,3e-05,0,2,12
7719,-1e-05,1e-05,-5e-05,-0.00034,1e-05,-6e-05,3e-05,0,2,12
7720,-1e-05,1e-05,-5e-05,-0.00034,1e-05,-6e-05,3e-05,0,2,12
7721,-1e-05,1e-05,-5e-05,-0.00034,1e-05,-6e-05,3e-05,0,2,12
7722,-1e-05,1e-05,-5e-05,-0.00034,1e-05,-6e-05,3e-05,0,2,12
7723,-1e-05,1e-05,-5e-05,-0.00034,1e-05,-6e-05,3e-05,0,2,12
7724,-1e-05,1e-05,-5e-05,-0.00034,1e-05,-6e-05,3e-05,0,2,12
7725,-1e-05,1e-05,-5e-05,-0.00034,1e-05,-6e-05,3e-05,0,2,12
7726,-1e-05,1e-05,-5e-05,-0.00034,1e-05,-6e-05,3e-05,0,2,12
7727,-1e-05,1e-05,-5e-05,-0.00034,1e-05,-6e-05,3e-05,0,2,12
7728,-1e-05,1e-05,-5e-05,-0.00034,1e-05,-6e-05,3e-05,0,2,12
7729,-1e-05,1e-05,-5e-05,-0.00034,1e-05,-6e-05,3e-05,0,2,12
7730,-1e-05,1e-05,-5e-05,-0.00034,1e-05,-6e-05,3e-05,0,2,12
7731,-1e-05,1e-05,-5e-05,-0.00034,1e-05,-6e-05,3e-05,0,2,12
7732,-1e-05,1e-05,-5e-05,-0.00034,1e-05,-6e-05,3e-05,0,2,12
7733,-1e-05,1e-05,-5e-05,-0.00034,1e-05,-6e-05,3e-05,0,2,12
7734,5e-05,0.00014,4e-05,0.00031,-5e-05,1e-05,1e-05,7e-05,2,12
7735,-2e-05,-1e-05,-1e-05,-0.00015,-4e-05,-4e-05,-0.00019,-6e-05,2,12
7736,-2e-05,-1e-05,-1e-05,-0.00015,-4e-05,-4e-05,-0.00019,-6e-05,2,12
7738,-2e-05,-1e-05,-1e-05,-0.00015,-4e-05,-4e-05,-0.00019,-6e-05,2,12
7739,-2e-05,-1e-05,-1e-05,-0.00015,-4e-05,-4e-05,-0.00019,-6e-05,2,12
7740,-2e-05,-1e-05,-1e-05,-0.00015,-4e-05,-4e-05,-0.00019,-6e-05,2,12
7741,-2e-05,-1e-05,-1e-05,-0.00015,-4e-05,-4e-05,-0.00019,-6e-05,2,12
7742,-2e-05,-1e-05,-1e-05,-0.00015,-4e-05,-4e-05,-0.00019,-6e-05,2,12
7743,-2e-05,-1e-05,-1e-05,-0.00015,-4e-05,-4e-05,-0.00019,-6e-05,2,12
7744,-2e-05,-1e-05,-1e-05,-0.00015,-4e-05,-4e-05,-0.00019,-6e-05,2,12
7745,-2e-05,-1e-05,-1e-05,-0.00015,-4e-05,-4e-05,-0.00019,-6e-05,2,12
7746,-2e-05,-1e-05,-1e-05,-0.00015,-4e-05,-4e-05,-0.00019,-6e-05,2,12
7747,-2e-05,-1e-05,-1e-05,-0.00015,-4e-05,-4e-05,-0.00019,-6e-05,2,12
7748,-2e-05,-1e-05,-1e-05,-0.00015,-4e-05,-4e-05,-0.00019,-6e-05,2,12
7749,-2e-05,-1e-05,-1e-05,-0.00015,-4e-05,-4e-05,-0.00019,-6e-05,2,12
7750,-2e-05,-1e-05,-1e-05,-0.00015,-4e-05,-4e-05,-0.00019,-6e-05,2,12
7751,-2e-05,-1e-05,-1e-05,-0.00015,-4e-05,-4e-05,-0.00019,-6e-05,2,12
7752,-2e-05,-1e-05,-1e-05,-0.00015,-4e-05,-4e-05,-0.00019,-6e-05,2,12
7753,-2e-05,-1e-05,-1e-05,-0.00015,-4e-05,-4e-05,-0.00019,-6e-05,2,12
7754,-2e-05,-1e-05,-1e-05,-0.00015,-4e-05,-4e-05,-0.00019,-6e-05,2,12
7755,-2e-05,-1e-05,-1e-05,-0.00015,-4e-05,-4e-05,-0.00019,-6e-05,2,12
7756,-2e-05,-1e-05,-1e-05,-0.00015,-4e-05,-4e-05,-0.00019,-6e-05,2,12
7757,4e-05,2e-05,-2e-05,0.00011,1e-05,-5e-05,-0.00022,-9e-05,2,12
7758,3e-05,4e-05,5e-05,0.00011,-2e-05,6e-05,0.00031,3e-05,2,12
7759,3e-05,4e-05,5e-05,0.00011,-2e-05,6e-05,0.00031,3e-05,2,12
7760,3e-05,4e-05,5e-05,0.00011,-2e-05,6e-05,0.00031,3e-05,2,12
7761,3e-05,4e-05,5e-05,0.00011,-2e-05,6e-05,0.00031,3e-05,2,12
7762,3e-05,4e-05,5e-05,0.00011,-2e-05,6e-05,0.00031,3e-05,2,12
7763,3e-05,4e-05,5e-05,0.00011,-2e-05,6e-05,0.00031,3e-05,2,12
7764,3e-05,4e-05,5e-05,0.00011,-2e-05,6e-05,0.00031,3e-05,2,12
7765,3e-05,4e-05,5e-05,0.00011,-2e-05,6e-05,0.00031,3e-05,2,12
7766,3e-05,4e-05,5e-05,0.00011,-2e-05,6e-05,0.00031,3e-05,2,12
7767,3e-05,4e-05,5e-05,0.00011,-2e-05,6e-05,0.00031,3e-05,2,12
7768,3e-05,4e-05,5e-05,0.00011,-2e-05,6e-05,0.00031,3e-05,2,12
7769,3e-05,4e-05,5e-05,0.00011,-2e-05,6e-05,0.00031,3e-05,2,12
7770,3e-05,4e-05,5e-05,0.00011,-2e-05,6e-05,0.00031,3e-05,2,12
7771,3e-05,4e-05,5e-05,0.00011,-2e-05,6e-05,0.00031,3e-05,2,12
7772,1e-05,0.0001,0,0.00027,9e-05,-6e-05,-9e-05,-4e-05,2,12
7773,-3e-05,1e-05,0.00012,0.00013,2e-05,-4e-05,-6e-05,-2e-05,2,12
7774,-3e-05,1e-05,0.00012,0.00013,2e-05,-4e-05,-6e-05,-2e-05,2,12
7775,-3e-05,1e-05,0.00012,0.00013,2e-05,-4e-05,-6e-05,-2e-05,2,12
7776,-3e-05,1e-05,0.00012,0.00013,2e-05,-4e-05,-6e-05,-2e-05,2,12
7777,-3e-05,1e-05,0.00012,0.00013,2e-05,-4e-05,-6e-05,-2e-05,2,12
7778,-3e-05,1e-05,0.00012,0.00013,2e-05,-4e-05,-6e-05,-2e-05,2,12
7779,-3e-05,1e-05,0.00012,0.00013,2e-05,-4e-05,-6e-05,-2e-05,2,12
7780,-3e-05,1e-05,0.00012,0.00013,2e-05,-4e-05,-6e-05,-2e-05,2,12
7781,-3e-05,1e-05,0.00012,0.00013,2e-05,-4e-05,-6e-05,-2e-05,2,12
7782,-3e-05,1e-05,0.00012,0.00013,2e-05,-4e-05,-6e-05,-2e-05,2,12
7783,-3e-05,1e-05,0.00012,0.00013,2e-05,-4e-05,-6e-05,-2e-05,2,12
7784,-3e-05,1e-05,0.00012,0.00013,2e-05,-4e-05,-6e-05,-2e-05,2,12
7785,-3e-05,1e-05,0.00012,0.00013,2e-05,-4e-05,-6e-05,-2e-05,2,12
7786,-3e-05,1e-05,0.00012,0.00013,2e-05,-4e-05,-6e-05,-2e-05,2,12
7788,-3e-05,1e-05,0.00012,0.00013,2e-05,-4e-05,-6e-05,-2e-05,2,12
7789,-3e-05,1e-05,0.00012,0.00013,2e-05,-4e-05,-6e-05,-2e-05,2,12
7790,-3e-05,1e-05,0.00012,0.00013,2e-05,-4e-05,-6e-05,-2e-05,2,12
7791,-3e-05,1e-05,0.00012,0.00013,2e-05,-4e-05,-6e-05,-2e-05,2,12
7792,-3e-05,1e-05,0.00012,0.00013,2e-05,-4e-05,-6e-05,-2e-05,2,12
7793,-3e-05,1e-05,0.00012,0.00013,2e-05,-4e-05,-6e-05,-2e-05,2,12
7794,-5e-05,-6e-05,-8e-05,-8e-05,-3e-05,2e-05,-7e-05,-3e-05,2,12
7795,-2e-05,-0.00011,-9e-05,3e-05,0,5e-05,6e-05,7e-05,2,12
7796,-2e-05,-0.00011,-9e-05,3e-05,0,5e-05,6e-05,7e-05,2,12
7797,-2e-05,-0.00011,-9e-05,3e-05,0,5e-05,6e-05,7e-05,2,12
7798,-2e-05,-0.00011,-9e-05,3e-05,0,5e-05,6e-05,7e-05,2,12
7799,-2e-05,-0.00011,-9e-05,3e-05,0,5e-05,6e-05,7e-05,2,12
7800,-2e-05,-0.00011,-9e-05,3e-05,0,5e-05,6e-05,7e-05,2,12
7801,-2e-05,-0.00011,-9e-05,3e-05,0,5e-05,6e-05,7e-05,2,12
7802,-2e-05,-0.00011,-9e-05,3e-05,0,5e-05,6e-05,7e-05,2,12
7803,-2e-05,-0.00011,-9e-05,3e-05,0,5e-05,6e-05,7e-05,2,12
7804,-2e-05,-0.00011,-9e-05,3e-05,0,5e-05,6e-05,7e-05,2,12
7805,-2e-05,-0.00011,-9e-05,3e-05,0,5e-05,6e-05,7e-05,2,12
7806,-2e-05,-0.00011,-9e-05,3e-05,0,5e-05,6e-05,7e-05,2,12
7807,-2e-05,-0.00011,-9e-05,3e-05,0,5e-05,6e-05,7e-05,2,12
7808,-2e-05,-0.00011,-9e-05,3e-05,0,5e-05,6e-05,7e-05,2,12
7809,-2e-05,-0.00011,-9e-05,3e-05,0,5e-05,6e-05,7e-05,2,12
7810,-2e-05,-0.00011,-9e-05,3e-05,0,5e-05,6e-05,7e-05,2,12
7811,-2e-05,-0.00011,-9e-05,3e-05,0,5e-05,6e-05,7e-05,2,12
7812,-2e-05,-0.00011,-9e-05,3e-05,0,5e-05,6e-05,7e-05,2,12
7813,-2e-05,-0.00011,-9e-05,3e-05,0,5e-05,6e-05,7e-05,2,12
7814,-2e-05,-0.00011,-9e-05,3e-05,0,5e-05,6e-05,7e-05,2,12
7815,-2e-05,-0.00011,-9e-05,3e-05,0,5e-05,6e-05,7e-05,2,12
7816,-2e-05,-0.00011,-9e-05,3e-05,0,5e-05,6e-05,7e-05,2,12
7817,-4e-05,2e-05,9e-05,0.00013,0.00011,-1e-05,0.0001,-3e-05,2,12
7818,-8e-05,-0.00022,-2e-05,0.00015,0,0,6e-05,0,2,12
7819,-8e-05,-0.00022,-2e-05,0.00015,0,0,6e-05,0,2,12
7820,-8e-05,-0.00022,-2e-05,0.00015,0,0,6e-05,0,2,12
7821,-8e-05,-0.00022,-2e-05,0.00015,0,0,6e-05,0,2,12
7822,-8e-05,-0.00022,-2e-05,0.00015,0,0,6e-05,0,2,12
7823,-8e-05,-0.00022,-2e-05,0.00015,0,0,6e-05,0,2,12
7824,-8e-05,-0.00022,-2e-05,0.00015,0,0,6e-05,0,2,12
7825,-8e-05,-0.00022,-2e-05,0.00015,0,0,6e-05,0,2,12
7826,-8e-05,-0.00022,-2e-05,0.00015,0,0,6e-05,0,2,12
7827,-8e-05,-0.00022,-2e-05,0.00015,0,0,6e-05,0,2,12
7828,-8e-05,-0.00022,-2e-05,0.00015,0,0,6e-05,0,2,12
7829,-8e-05,-0.00022,-2e-05,0.00015,0,0,6e-05,0,2,12
39496,4e-05,-1e-05,7e-05,0.00011,-0.00013,-9e-05,0.00027,0.00015,2,12
39497,4e-05,-1e-05,7e-05,0.00011,-0.00013,-9e-05,0.00027,0.00015,2,12
39498,4e-05,-1e-05,7e-05,0.00011,-0.00013,-9e-05,0.00027,0.00015,2,12
39499,4e-05,-1e-05,7e-05,0.00011,-0.00013,-9e-05,0.00027,0.00015,2,12
39500,4e-05,-1e-05,7e-05,0.00011,-0.00013,-9e-05,0.00027,0.00015,2,12
39501,4e-05,-1e-05,7e-05,0.00011,-0.00013,-9e-05,0.00027,0.00015,2,12
39502,4e-05,-1e-05,7e-05,0.00011,-0.00013,-9e-05,0.00027,0.00015,2,12
39503,4e-05,-1e-05,7e-05,0.00011,-0.00013,-9e-05,0.00027,0.00015,2,12
39504,4e-05,-1e-05,7e-05,0.00011,-0.00013,-9e-05,0.00027,0.00015,2,12
39505,9e-05,4e-05,8e-05,-0.00031,1e-05,3e-05,3e-05,5e-05,2,12
39506,9e-05,4e-05,8e-05,-0.00031,1e-05,3e-05,3e-05,5e-05,2,12
39507,3e-05,-1e-05,-2e-05,0.00037,0.00016,-2e-05,-0.00012,-7e-05,2,12
39508,3e-05,-1e-05,-2e-05,0.00037,0.00016,-2e-05,-0.00012,-7e-05,2,12
39509,3e-05,-1e-05,-2e-05,0.00037,0.00016,-2e-05,-0.00012,-7e-05,2,12
39510,3e-05,-1e-05,-2e-05,0.00037,0.00016,-2e-05,-0.00012,-7e-05,2,12
39511,3e-05,-1e-05,-2e-05,0.00037,0.00016,-2e-05,-0.00012,-7e-05,2,12
39512,3e-05,-1e-05,-2e-05,0.00037,0.00016,-2e-05,-0.00012,-7e-05,2,12
39513,3e-05,-1e-05,-2e-05,0.00037,0.00016,-2e-05,-0.00012,-7e-05,2,12
39514,3e-05,-1e-05,-2e-05,0.00037,0.00016,-2e-05,-0.00012,-7e-05,2,12
39515,3e-05,-1e-05,-2e-05,0.00037,0.00016,-2e-05,-0.00012,-7e-05,2,12
39516,3e-05,-1e-05,-2e-05,0.00037,0.00016,-2e-05,-0.00012,-7e-05,2,12
39517,3e-05,-1e-05,-2e-05,0.00037,0.00016,-2e-05,-0.00012,-7e-05,2,12
39518,3e-05,-1e-05,-2e-05,0.00037,0.00016,-2e-05,-0.00012,-7e-05,2,12
39519,3e-05,-1e-05,-2e-05,0.00037,0.00016,-2e-05,-0.00012,-7e-05,2,12
39520,-0.00011,-3e-05,7e-05,0.00028,-1e-05,-9e-05,-6e-05,-8e-05,2,12
39521,-0.00011,-3e-05,7e-05,0.00028,-1e-05,-9e-05,-6e-05,-8e-05,2,12
39522,-0.00011,-0.00011,-5e-05,1e-05,3e-05,-3e-05,-0.00013,-0.00014,2,12
39523,-0.00011,-0.00011,-5e-05,1e-05,3e-05,-3e-05,-0.00013,-0.00014,2,12
39524,-0.00011,-0.00011,-5e-05,1e-05,3e-05,-3e-05,-0.00013,-0.00014,2,12
39525,-0.00011,-0.00011,-5e-05,1e-05,3e-05,-3e-05,-0.00013,-0.00014,2,12
39526,-0.00011,-0.00011,-5e-05,1e-05,3e-05,-3e-05,-0.00013,-0.00014,2,12
39527,-0.00011,-0.00011,-5e-05,1e-05,3e-05,-3e-05,-0.00013,-0.00014,2,12
39528,-0.00011,-0.00011,-5e-05,1e-05,3e-05,-3e-05,-0.00013,-0.00014,2,12
39529,-0.00011,-0.00011,-5e-05,1e-05,3e-05,-3e-05,-0.00013,-0.00014,2,12
39530,-0.00011,-0.00011,-5e-05,1e-05,3e-05,-3e-05,-0.00013,-0.00014,2,12
39531,-0.00011,-0.00011,-5e-05,1e-05,3e-05,-3e-05,-0.00013,-0.00014,2,12
39532,-0.00011,-0.00011,-5e-05,1e-05,3e-05,-3e-05,-0.00013,-0.00014,2,12
39533,-0.00011,-0.00011,-5e-05,1e-05,3e-05,-3e-05,-0.00013,-0.00014,2,12
39534,2e-05,-4e-05,-0.00017,-0.00035,-0.00011,-5e-05,-0.00014,-0.00011,2,12
39535,2e-05,-4e-05,-0.00017,-0.00035,-0.00011,-5e-05,-0.00014,-0.00011,2,12
39536,2e-05,-4e-05,-0.00017,-0.00035,-0.00011,-5e-05,-0.00014,-0.00011,2,12
39538,2e-05,-4e-05,-0.00017,-0.00035,-0.00011,-5e-05,-0.00014,-0.00011,2,12
39539,2e-05,-4e-05,-0.00017,-0.00035,-0.00011,-5e-05,-0.00014,-0.00011,2,12
39540,2e-05,-4e-05,-0.00017,-0.00035,-0.00011,-5e-05,-0.00014,-0.00011,2,12
39541,2e-05,-4e-05,-0.00017,-0.00035,-0.00011,-5e-05,-0.00014,-0.00011,2,12
39542,2e-05,-4e-05,-0.00017,-0.00035,-0.00011,-5e-05,-0.00014,-0.00011,2,12
39543,2e-05,-4e-05,-0.00017,-0.00035,-0.00011,-5e-05,-0.00014,-0.00011,2,12
39544,2e-05,-4e-05,-0.00017,-0.00035,-0.00011,-5e-05,-0.00014,-0.00011,2,12
39545,2e-05,-4e-05,-0.00017,-0.00035,-0.00011,-5e-05,-0.00014,-0.00011,2,12
39546,2e-05,-4e-05,-0.00017,-0.00035,-0.00011,-5e-05,-0.00014,-0.00011,2,12
39547,2e-05,-4e-05,-0.00017,-0.00035,-0.00011,-5e-05,-0.00014,-0.00011,2,12
39548,2e-05,-4e-05,-0.00017,-0.00035,-0.00011,-5e-05,-0.00014,-0.00011,2,12
39549,2e-05,-4e-05,-0.00017,-0.00035,-0.00011,-5e-05,-0.00014,-0.00011,2,12
39550,2e-05,-4e-05,-0.00017,-0.00035,-0.00011,-5e-05,-0.00014,-0.00011,2,12
39551,2e-05,-4e-05,-0.00017,-0.00035,-0.00011,-5e-05,-0.00014,-0.00011,2,12
39552,2e-05,-4e-05,-0.00017,-0.00035,-0.00011,-5e-05,-0.00014,-0.00011,2,12
39553,2e-05,-4e-05,-0.00017,-0.00035,-0.00011,-5e-05,-0.00014,-0.00011,2,12
39554,2e-05,-4e-05,-0.00017,-0.00035,-0.00011,-5e-05,-0.00014,-0.00011,2,12
39555,2e-05,-4e-05,-0.00017,-0.00035,-0.00011,-5e-05,-0.00014,-0.00011,2,12
39556,2e-05,-4e-05,-0.00017,-0.00035,-0.00011,-5e-05,-0.00014,-0.00011,2,12
39557,2e-05,-4e-05,-0.00017,-0.00035,-0.00011,-5e-05,-0.00014,-0.00011,2,12
39558,2e-05,-4e-05,-0.00017,-0.00035,-0.00011,-5e-05,-0.00014,-0.00011,2,12
39559,-1e-05,1e-05,0.0001,0.00043,0.00011,-2e-05,2e-05,-2e-05,2,12
39560,-1e-05,1e-05,0.0001,0.00043,0.00011,-2e-05,2e-05,-2e-05,2,12
39561,2e-05,-0.00015,-0.00013,-0.00021,7e-05,0.00011,-0.00016,-4e-05,2,12
39562,2e-05,-0.00015,-0.00013,-0.00021,7e-05,0.00011,-0.00016,-4e-05,2,12
39563,2e-05,-0.00015,-0.00013,-0.00021,7e-05,0.00011,-0.00016,-4e-05,2,12
39564,2e-05,-0.00015,-0.00013,-0.00021,7e-05,0.00011,-0.00016,-4e-05,2,12
39565,2e-05,-0.00015,-0.00013,-0.00021,7e-05,0.00011,-0.00016,-4e-05,2,12
39566,2e-05,-0.00015,-0.00013,-0.00021,7e-05,0.00011,-0.00016,-4e-05,2,12
39567,2e-05,-0.00015,-0.00013,-0.00021,7e-05,0.00011,-0.00016,-4e-05,2,12
39568,2e-05,-0.00015,-0.00013,-0.00021,7e-05,0.00011,-0.00016,-4e-05,2,12
39569,2e-05,-0.00015,-0.00013,-0.00021,7e-05,0.00011,-0.00016,-4e-05,2,12
39570,2e-05,-0.00015,-0.00013,-0.00021,7e-05,0.00011,-0.00016,-4e-05,2,12
39571,2e-05,-0.00015,-0.00013,-0.00021,7e-05,0.00011,-0.00016,-4e-05,2,12
39572,2e-05,-0.00015,-0.00013,-0.00021,7e-05,0.00011,-0.00016,-4e-05,2,12
39573,2e-05,-0.00015,-0.00013,-0.00021,7e-05,0.00011,-0.00016,-4e-05,2,12
39574,2e-05,-0.00015,-0.00013,-0.00021,7e-05,0.00011,-0.00016,-4e-05,2,12
39575,2e-05,-0.00015,-0.00013,-0.00021,7e-05,0.00011,-0.00016,-4e-05,2,12
39576,2e-05,-0.00015,-0.00013,-0.00021,7e-05,0.00011,-0.00016,-4e-05,2,12
39577,2e-05,-0.00015,-0.00013,-0.00021,7e-05,0.00011,-0.00016,-4e-05,2,12
39578,2e-05,-0.00015,-0.00013,-0.00021,7e-05,0.00011,-0.00016,-4e-05,2,12
39579,2e-05,-0.00015,-0.00013,-0.00021,7e-05,0.00011,-0.00016,-4e-05,2,12
39580,-2e-05,-7e-05,-1e-05,-2e-05,4e-05,0,-2e-05,1e-05,2,12
39581,-2e-05,-7e-05,-1e-05,-2e-05,4e-05,0,-2e-05,1e-05,2,12
39582,-0.00015,0.00021,6e-05,2e-05,-4e-05,-6e-05,-0.00021,-0.00011,2,12
39583,-0.00015,0.00021,6e-05,2e-05,-4e-05,-6e-05,-0.00021,-0.00011,2,12
39584,-0.00015,0.00021,6e-05,2e-05,-4e-05,-6e-05,-0.00021,-0.00011,2,12
39585,-0.00015,0.00021,6e-05,2e-05,-4e-05,-6e-05,-0.00021,-0.00011,2,12
39586,-0.00015,0.00021,6e-05,2e-05,-4e-05,-6e-05,-0.00021,-0.00011,2,12
39588,-0.00015,0.00021,6e-05,2e-05,-4e-05,-6e-05,-0.00021,-0.00011,2,12
39589,-0.00015,0.00021,6e-05,2e-05,-4e-05,-6e-05,-0.00021,-0.00011,2,12
39590,-0.00015,0.00021,6e-05,2e-05,-4e-05,-6e-05,-0.00021,-0.00011,2,12
39591,-0.00015,0.00021,6e-05,2e-05,-4e-05,-6e-05,-0.00021,-0.00011,2,12
39592,-0.00015,0.00021,6e-05,2e-05,-4e-05,-6e-05,-0.00021,-0.00011,2,12
39593,-0.00015,0.00021,6e-05,2e-05,-4e-05,-6e-05,-0.00021,-0.00011,2,12
39594,-0.00015,0.00021,6e-05,2e-05,-4e-05,-6e-05,-0.00021,-0.00011,2,12
39595,-0.00015,0.00021,6e-05,2e-05,-4e-05,-6e-05,-0.00021,-0.00011,2,12
39596,-0.00015,0.00021,6e-05,2e-05,-4e-05,-6e-05,-0.00021,-0.00011,2,12
39597,-0.00015,0.00021,6e-05,2e-05,-4e-05,-6e-05,-0.00021,-0.00011,2,12
39598,-0.00015,0.00021,6e-05,2e-05,-4e-05,-6e-05,-0.00021,-0.00011,2,12
39599,-0.00015,0.00021,6e-05,2e-05,-4e-05,-6e-05,-0.00021,-0.00011,2,12
39600,-0.00015,0.00021,6e-05,2e-05,-4e-05,-6e-05,-0.00021,-0.00011,2,12
39601,-0.00015,0.00021,6e-05,2e-05,-4e-05,-6e-05,-0.00021,-0.00011,2,12
39602,-0.00015,0.00021,6e-05,2e-05,-4e-05,-6e-05,-0.00021,-0.00011,2,12
39603,-0.00014,-4e-05,-2e-05,-0.00033,-0.00017,2e-05,-0.00037,-0.00015,2,12
