4462,-5e-05,-7e-05,-0.00012,3e-05,0.00011,0.00018,-0.0001,-3e-05,2,16
4463,-5e-05,-7e-05,-0.00012,3e-05,0.00011,0.00018,-0.0001,-3e-05,2,16
4464,-5e-05,-7e-05,-0.00012,3e-05,0.00011,0.00018,-0.0001,-3e-05,2,16
4465,-2e-05,-5e-05,-1e-05,0.00012,0.00011,0.00081,0.00019,2e-05,2,16
4466,-2e-05,-5e-05,-1e-05,0.00012,0.00011,0.00081,0.00019,2e-05,2,16
4467,-2e-05,-5e-05,-1e-05,0.00012,0.00011,0.00081,0.00019,2e-05,2,16
4468,-2e-05,-5e-05,-1e-05,0.00012,0.00011,0.00081,0.00019,2e-05,2,16
4469,-2e-05,-5e-05,-1e-05,0.00012,0.00011,0.00081,0.00019,2e-05,2,16
4470,-2e-05,-5e-05,-1e-05,0.00012,0.00011,0.00081,0.00019,2e-05,2,16
4471,-2e-05,-5e-05,-1e-05,0.00012,0.00011,0.00081,0.00019,2e-05,2,16
4472,-2e-05,-5e-05,-1e-05,0.00012,0.00011,0.00081,0.00019,2e-05,2,16
4473,-2e-05,-5e-05,-1e-05,0.00012,0.00011,0.00081,0.00019,2e-05,2,16
4474,-2e-05,-5e-05,-1e-05,0.00012,0.00011,0.00081,0.00019,2e-05,2,16
4475,-2e-05,-5e-05,-1e-05,0.00012,0.00011,0.00081,0.00019,2e-05,2,16
4476,-2e-05,-5e-05,-1e-05,0.00012,0.00011,0.00081,0.00019,2e-05,2,16
4477,-2e-05,-5e-05,-1e-05,0.00012,0.00011,0.00081,0.00019,2e-05,2,16
4478,-2e-05,-5e-05,-1e-05,0.00012,0.00011,0.00081,0.00019,2e-05,2,16
4479,-2e-05,-5e-05,-1e-05,0.00012,0.00011,0.00081,0.00019,2e-05,2,16
4480,-2e-05,-5e-05,-1e-05,0.00012,0.00011,0.00081,0.00019,2e-05,2,16
4481,-2e-05,-5e-05,-1e-05,0.00012,0.00011,0.00081,0.00019,2e-05,2,16
4482,-2e-05,-5e-05,-1e-05,0.00012,0.00011,0.00081,0.00019,2e-05,2,16
4483,-2e-05,-5e-05,-1e-05,0.00012,0.00011,0.00081,0.00019,2e-05,2,16
4484,-2e-05,-5e-05,-1e-05,0.00012,0.00011,0.00081,0.00019,2e-05,2,16
4485,-2e-05,-5e-05,-1e-05,0.00012,0.00011,0.00081,0.00019,2e-05,2,16
4486,3e-05,6e-05,8e-05,-0.00013,-0.00034,-0.00057,-0.00013,-4e-05,2,16
4489,-0.00011,-0.00016,-0.0003,0.00049,0.0001,-0.00028,-0.00023,-9e-05,2,16
4490,-0.00011,-0.00016,-0.0003,0.00049,0.0001,-0.00028,-0.00023,-9e-05,2,16
4491,-0.00011,-0.00016,-0.0003,0.00049,0.0001,-0.00028,-0.00023,-9e-05,2,16
4492,-0.00011,-0.00016,-0.0003,0.00049,0.0001,-0.00028,-0.00023,-9e-05,2,16
4493,-0.00011,-0.00016,-0.0003,0.00049,0.0001,-0.00028,-0.00023,-9e-05,2,16
4494,-0.00011,-0.00016,-0.0003,0.00049,0.0001,-0.00028,-0.00023,-9e-05,2,16
4495,-0.00011,-0.00016,-0.0003,0.00049,0.0001,-0.00028,-0.00023,-9e-05,2,16
4496,-0.00011,-0.00016,-0.0003,0.00049,0.0001,-0.00028,-0.00023,-9e-05,2,16
4497,-0.00011,-0.00016,-0.0003,0.00049,0.0001,-0.00028,-0.00023,-9e-05,2,16
4498,-0.00011,-0.00016,-0.0003,0.00049,0.0001,-0.00028,-0.00023,-9e-05,2,16
4499,-0.00011,-0.00016,-0.0003,0.00049,0.0001,-0.00028,-0.00023,-9e-05,2,16
4500,-0.00011,-0.00016,-0.0003,0.00049,0.0001,-0.00028,-0.00023,-9e-05,2,16
4501,-8e-05,-0.0001,-0.00034,-0.00024,0.00021,0.0007,0.00041,5e-05,2,16
4502,-8e-05,-0.0001,-0.00034,-0.00024,0.00021,0.0007,0.00041,5e-05,2,16
4503,-8e-05,-0.0001,-0.00034,-0.00024,0.00021,0.0007,0.00041,5e-05,2,16
4504,-8e-05,-0.0001,-0.00034,-0.00024,0.00021,0.0007,0.00041,5e-05,2,16
4505,-8e-05,-0.0001,-0.00034,-0.00024,0.00021,0.0007,0.00041,5e-05,2,16
4506,-8e-05,-0.0001,-0.00034,-0.00024,0.00021,0.0007,0.00041,5e-05,2,16
4507,-8e-05,-0.0001,-0.00034,-0.00024,0.00021,0.0007,0.00041,5e-05,2,16
4508,-8e-05,-0.0001,-0.00034,-0.00024,0.00021,0.0007,0.00041,5e-05,2,16
4509,-8e-05,-0.0001,-0.00034,-0.00024,0.00021,0.0007,0.00041,5e-05,2,16
4510,-8e-05,-0.0001,-0.00034,-0.00024,0.00021,0.0007,0.00041,5e-05,2,16
4511,-8e-05,-0.0001,-0.00034,-0.00024,0.00021,0.0007,0.00041,5e-05,2,16
4512,-8e-05,-0.0001,-0.00034,-0.00024,0.00021,0.0007,0.00041,5e-05,2,16
4513,-8e-05,-0.0001,-0.00034,-0.00024,0.00021,0.0007,0.00041,5e-05,2,16
4514,-8e-05,-0.0001,-0.00034,-0.00024,0.00021,0.0007,0.00041,5e-05,2,16
4515,-8e-05,-0.0001,-0.00034,-0.00024,0.00021,0.0007,0.00041,5e-05,2,16
4516,-8e-05,-0.0001,-0.00034,-0.00024,0.00021,0.0007,0.00041,5e-05,2,16
4517,-8e-05,-0.0001,-0.00034,-0.00024,0.00021,0.0007,0.00041,5e-05,2,16
4518,-8e-05,-0.0001,-0.00034,-0.00024,0.00021,0.0007,0.00041,5e-05,2,16
4519,-8e-05,-0.0001,-0.00034,-0.00024,0.00021,0.0007,0.00041,5e-05,2,16
4520,-8e-05,-0.0001,-0.00034,-0.00024,0.00021,0.0007,0.00041,5e-05,2,16
4521,-8e-05,-0.0001,-0.00034,-0.00024,0.00021,0.0007,0.00041,5e-05,2,16
4522,-8e-05,-0.0001,-0.00034,-0.00024,0.00021,0.0007,0.00041,5e-05,2,16
4523,-8e-05,-0.0001,-0.00034,-0.00024,0.00021,0.0007,0.00041,5e-05,2,16
4524,-4e-05,-2e-05,0,7e-05,0.00011,9e-05,-0.00012,-0.00011,2,16
4525,0,0,9e-05,0.00019,-0.00015,-0.00011,-0.00019,5e-05,2,16
4526,0,0,9e-05,0.00019,-0.00015,-0.00011,-0.00019,5e-05,2,16
4527,0,0,9e-05,0.00019,-0.00015,-0.00011,-0.00019,5e-05,2,16
4528,0,0,9e-05,0.00019,-0.00015,-0.00011,-0.00019,5e-05,2,16
4529,0,0,9e-05,0.00019,-0.00015,-0.00011,-0.00019,5e-05,2,16
4530,0,0,9e-05,0.00019,-0.00015,-0.00011,-0.00019,5e-05,2,16
4531,0,0,9e-05,0.00019,-0.00015,-0.00011,-0.00019,5e-05,2,16
4532,0,0,9e-05,0.00019,-0.00015,-0.00011,-0.00019,5e-05,2,16
4533,0,0,9e-05,0.00019,-0.00015,-0.00011,-0.00019,5e-05,2,16
4534,0,0,9e-05,0.00019,-0.00015,-0.00011,-0.00019,5e-05,2,16
4535,0,0,9e-05,0.00019,-0.00015,-0.00011,-0.00019,5e-05,2,16
4536,0,0,9e-05,0.00019,-0.00015,-0.00011,-0.00019,5e-05,2,16
4538,0,0,9e-05,0.00019,-0.00015,-0.00011,-0.00019,5e-05,2,16
4539,0,0,9e-05,0.00019,-0.00015,-0.00011,-0.00019,5e-05,2,16
4540,0,0,9e-05,0.00019,-0.00015,-0.00011,-0.00019,5e-05,2,16
4541,0,0,9e-05,0.00019,-0.00015,-0.00011,-0.00019,5e-05,2,16
4542,0,0,9e-05,0.00019,-0.00015,-0.00011,-0.00019,5e-05,2,16
4543,0,0,9e-05,0.00019,-0.00015,-0.00011,-0.00019,5e-05,2,16
4544,0,0,9e-05,0.00019,-0.00015,-0.00011,-0.00019,5e-05,2,16
4545,0,0,9e-05,0.00019,-0.00015,-0.00011,-0.00019,5e-05,2,16
4546,0,0,9e-05,0.00019,-0.00015,-0.00011,-0.00019,5e-05,2,16
4547,5e-05,7e-05,0.00015,9e-05,-5e-05,0,-0.0001,1e-05,2,16
4548,5e-05,7e-05,0.00015,9e-05,-5e-05,0,-0.0001,1e-05,2,16
4549,5e-05,7e-05,0.00015,9e-05,-5e-05,0,-0.0001,1e-05,2,16
4550,5e-05,7e-05,0.00015,9e-05,-5e-05,0,-0.0001,1e-05,2,16
4551,5e-05,7e-05,0.00015,9e-05,-5e-05,0,-0.0001,1e-05,2,16
4552,5e-05,7e-05,0.00015,9e-05,-5e-05,0,-0.0001,1e-05,2,16
4553,5e-05,7e-05,0.00015,9e-05,-5e-05,0,-0.0001,1e-05,2,16
4554,5e-05,7e-05,0.00015,9e-05,-5e-05,0,-0.0001,1e-05,2,16
4555,5e-05,7e-05,0.00015,9e-05,-5e-05,0,-0.0001,1e-05,2,16
4556,5e-05,7e-05,0.00015,9e-05,-5e-05,0,-0.0001,1e-05,2,16
4557,5e-05,7e-05,0.00015,9e-05,-5e-05,0,-0.0001,1e-05,2,16
4558,5e-05,7e-05,0.00015,9e-05,-5e-05,0,-0.0001,1e-05,2,16
4559,5e-05,7e-05,0.00015,9e-05,-5e-05,0,-0.0001,1e-05,2,16
4560,4e-05,2e-05,0,7e-05,0.00011,-0.00014,-0.00017,-3e-05,2,16
4561,4e-05,2e-05,0,7e-05,0.00011,-0.00014,-0.00017,-3e-05,2,16
4562,4e-05,2e-05,0,7e-05,0.00011,-0.00014,-0.00017,-3e-05,2,16
4563,4e-05,2e-05,0,7e-05,0.00011,-0.00014,-0.00017,-3e-05,2,16
4564,4e-05,2e-05,0,7e-05,0.00011,-0.00014,-0.00017,-3e-05,2,16
4565,4e-05,2e-05,0,7e-05,0.00011,-0.00014,-0.00017,-3e-05,2,16
4566,4e-05,2e-05,0,7e-05,0.00011,-0.00014,-0.00017,-3e-05,2,16
4567,4e-05,2e-05,0,7e-05,0.00011,-0.00014,-0.00017,-3e-05,2,16
4568,4e-05,2e-05,0,7e-05,0.00011,-0.00014,-0.00017,-3e-05,2,16
4569,0.00014,0.00011,-5e-05,4e-05,-2e-05,-0.00036,-0.00023,-2e-05,2,16
4570,0.00014,0.00011,-5e-05,4e-05,-2e-05,-0.00036,-0.00023,-2e-05,2,16
4571,0.00014,0.00011,-5e-05,4e-05,-2e-05,-0.00036,-0.00023,-2e-05,2,16
4572,0.00014,0.00011,-5e-05,4e-05,-2e-05,-0.00036,-0.00023,-2e-05,2,16
4573,0.00014,0.00011,-5e-05,4e-05,-2e-05,-0.00036,-0.00023,-2e-05,2,16
4574,0.00014,0.00011,-5e-05,4e-05,-2e-05,-0.00036,-0.00023,-2e-05,2,16
4575,0.00014,0.00011,-5e-05,4e-05,-2e-05,-0.00036,-0.00023,-2e-05,2,16
4576,0.00014,0.00011,-5e-05,4e-05,-2e-05,-0.00036,-0.00023,-2e-05,2,16
4577,0.00014,0.00011,-5e-05,4e-05,-2e-05,-0.00036,-0.00023,-2e-05,2,16
4578,0.00014,0.00011,-5e-05,4e-05,-2e-05,-0.00036,-0.00023,-2e-05,2,16
4579,0.00014,0.00011,-5e-05,4e-05,-2e-05,-0.00036,-0.00023,-2e-05,2,16
4580,0.00014,0.00011,-5e-05,4e-05,-2e-05,-0.00036,-0.00023,-2e-05,2,16
4581,0.00014,0.00011,-5e-05,4e-05,-2e-05,-0.00036,-0.00023,-2e-05,2,16
4582,0.00014,0.00011,-5e-05,4e-05,-2e-05,-0.00036,-0.00023,-2e-05,2,16
4583,-1e-05,-0.00018,-0.00034,-9e-05,-2e-05,1e-05,0.00011,-4e-05,2,16
4584,4e-05,7e-05,0.00023,-8e-05,-0.00014,0.00025,7e-05,4e-05,2,16
4585,4e-05,7e-05,0.00023,-8e-05,-0.00014,0.00025,7e-05,4e-05,2,16
4586,4e-05,7e-05,0.00023,-8e-05,-0.00014,0.00025,7e-05,4e-05,2,16
4588,4e-05,7e-05,0.00023,-8e-05,-0.00014,0.00025,7e-05,4e-05,2,16
4589,4e-05,7e-05,0.00023,-8e-05,-0.00014,0.00025,7e-05,4e-05,2,16
4590,4e-05,7e-05,0.00023,-8e-05,-0.00014,0.00025,7e-05,4e-05,2,16
4591,4e-05,7e-05,0.00023,-8e-05,-0.00014,0.00025,7e-05,4e-05,2,16
4592,4e-05,7e-05,0.00023,-8e-05,-0.00014,0.00025,7e-05,4e-05,2,16
4593,4e-05,7e-05,0.00023,-8e-05,-0.00014,0.00025,7e-05,4e-05,2,16
4594,4e-05,7e-05,0.00023,-8e-05,-0.00014,0.00025,7e-05,4e-05,2,16
4595,4e-05,7e-05,0.00023,-8e-05,-0.00014,0.00025,7e-05,4e-05,2,16
4596,4e-05,7e-05,0.00023,-8e-05,-0.00014,0.00025,7e-05,4e-05,2,16
4597,4e-05,7e-05,0.00023,-8e-05,-0.00014,0.00025,7e-05,4e-05,2,16
4598,4e-05,7e-05,0.00023,-8e-05,-0.00014,0.00025,7e-05,4e-05,2,16
4599,4e-05,7e-05,0.00023,-8e-05,-0.00014,0.00025,7e-05,4e-05,2,16
4600,4e-05,7e-05,0.00023,-8e-05,-0.00014,0.00025,7e-05,4e-05,2,16
4601,4e-05,7e-05,0.00023,-8e-05,-0.00014,0.00025,7e-05,4e-05,2,16
4602,4e-05,7e-05,0.00023,-8e-05,-0.00014,0.00025,7e-05,4e-05,2,16
4603,4e-05,7e-05,0.00023,-8e-05,-0.00014,0.00025,7e-05,4e-05,2,16
4604,4e-05,7e-05,0.00023,-8e-05,-0.00014,0.00025,7e-05,4e-05,2,16
4605,4e-05,7e-05,0.00023,-8e-05,-0.00014,0.00025,7e-05,4e-05,2,16
4606,-5e-05,2e-05,0.00016,-7e-05,-0.00021,-0.00069,0.00012,4e-05,2,16
4607,6e-05,0.00012,0.00046,4e-05,-0.00034,-0.00023,0.00014,2e-05,2,16
4608,6e-05,0.00012,0.00046,4e-05,-0.00034,-0.00023,0.00014,2e-05,2,16
4609,6e-05,0.00012,0.00046,4e-05,-0.00034,-0.00023,0.00014,2e-05,2,16
4610,6e-05,0.00012,0.00046,4e-05,-0.00034,-0.00023,0.00014,2e-05,2,16
4611,6e-05,0.00012,0.00046,4e-05,-0.00034,-0.00023,0.00014,2e-05,2,16
4612,6e-05,0.00012,0.00046,4e-05,-0.00034,-0.00023,0.00014,2e-05,2,16
4613,6e-05,0.00012,0.00046,4e-05,-0.00034,-0.00023,0.00014,2e-05,2,16
4614,6e-05,0.00012,0.00046,4e-05,-0.00034,-0.00023,0.00014,2e-05,2,16
4615,6e-05,0.00012,0.00046,4e-05,-0.00034,-0.00023,0.00014,2e-05,2,16
4616,6e-05,0.00012,0.00046,4e-05,-0.00034,-0.00023,0.00014,2e-05,2,16
4617,6e-05,0.00012,0.00046,4e-05,-0.00034,-0.00023,0.00014,2e-05,2,16
4618,6e-05,0.00012,0.00046,4e-05,-0.00034,-0.00023,0.00014,2e-05,2,16
4619,6e-05,0.00012,0.00046,4e-05,-0.00034,-0.00023,0.00014,2e-05,2,16
4620,6e-05,0.00012,0.00046,4e-05,-0.00034,-0.00023,0.00014,2e-05,2,16
4621,6e-05,0.00012,0.00046,4e-05,-0.00034,-0.00023,0.00014,2e-05,2,16
4622,6e-05,0.00012,0.00046,4e-05,-0.00034,-0.00023,0.00014,2e-05,2,16
4623,6e-05,0.00012,0.00046,4e-05,-0.00034,-0.00023,0.00014,2e-05,2,16
4624,6e-05,0.00012,0.00046,4e-05,-0.00034,-0.00023,0.00014,2e-05,2,16
4625,6e-05,0.00012,0.00046,4e-05,-0.00034,-0.00023,0.00014,2e-05,2,16
4626,6e-05,0.00012,0.00046,4e-05,-0.00034,-0.00023,0.00014,2e-05,2,16
4627,6e-05,0.00012,0.00046,4e-05,-0.00034,-0.00023,0.00014,2e-05,2,16
4628,6e-05,0.00012,0.00046,4e-05,-0.00034,-0.00023,0.00014,2e-05,2,16
4629,-5e-05,-1e-05,1e-05,-7e-05,2e-05,0.00057,-0.00012,-2e-05,2,16
4630,0.00013,7e-05,8e-05,8e-05,4e-05,6e-05,-0.0001,5e-05,2,16
4631,0.00013,7e-05,8e-05,8e-05,4e-05,6e-05,-0.0001,5e-05,2,16
4632,0.00013,7e-05,8e-05,8e-05,4e-05,6e-05,-0.0001,5e-05,2,16
4633,0.00013,7e-05,8e-05,8e-05,4e-05,6e-05,-0.0001,5e-05,2,16
4634,0.00013,7e-05,8e-05,8e-05,4e-05,6e-05,-0.0001,5e-05,2,16
4635,0.00013,7e-05,8e-05,8e-05,4e-05,6e-05,-0.0001,5e-05,2,16
4636,0.00013,7e-05,8e-05,8e-05,4e-05,6e-05,-0.0001,5e-05,2,16
4638,0.00013,7e-05,8e-05,8e-05,4e-05,6e-05,-0.0001,5e-05,2,16
4639,0.00013,7e-05,8e-05,8e-05,4e-05,6e-05,-0.0001,5e-05,2,16
4640,0.00013,7e-05,8e-05,8e-05,4e-05,6e-05,-0.0001,5e-05,2,16
4641,0.00013,7e-05,8e-05,8e-05,4e-05,6e-05,-0.0001,5e-05,2,16
4642,0.00013,7e-05,8e-05,8e-05,4e-05,6e-05,-0.0001,5e-05,2,16
4643,0.00013,7e-05,8e-05,8e-05,4e-05,6e-05,-0.0001,5e-05,2,16
4644,0.00013,7e-05,8e-05,8e-05,4e-05,6e-05,-0.0001,5e-05,2,16
4645,0.00013,7e-05,8e-05,8e-05,4e-05,6e-05,-0.0001,5e-05,2,16
4646,0.00013,7e-05,8e-05,8e-05,4e-05,6e-05,-0.0001,5e-05,2,16
4647,0.00013,7e-05,8e-05,8e-05,4e-05,6e-05,-0.0001,5e-05,2,16
4648,0.00013,7e-05,8e-05,8e-05,4e-05,6e-05,-0.0001,5e-05,2,16
4649,0.00013,7e-05,8e-05,8e-05,4e-05,6e-05,-0.0001,5e-05,2,16
4650,0.00013,7e-05,8e-05,8e-05,4e-05,6e-05,-0.0001,5e-05,2,16
4651,-1e-05,-4e-05,-0.00013,-0.00015,3e-05,-0.00041,-3e-05,0,2,16
4652,-5e-05,4e-05,0.00018,-4e-05,0.0001,0.00017,-8e-05,-5e-05,2,16
4653,-5e-05,4e-05,0.00018,-4e-05,0.0001,0.00017,-8e-05,-5e-05,2,16
4654,-5e-05,4e-05,0.00018,-4e-05,0.0001,0.00017,-8e-05,-5e-05,2,16
4655,-5e-05,4e-05,0.00018,-4e-05,0.0001,0.00017,-8e-05,-5e-05,2,16
4656,-5e-05,4e-05,0.00018,-4e-05,0.0001,0.00017,-8e-05,-5e-05,2,16
4657,-5e-05,4e-05,0.00018,-4e-05,0.0001,0.00017,-8e-05,-5e-05,2,16
4658,-5e-05,4e-05,0.00018,-4e-05,0.0001,0.00017,-8e-05,-5e-05,2,16
4659,-5e-05,4e-05,0.00018,-4e-05,0.0001,0.00017,-8e-05,-5e-05,2,16
4660,-5e-05,4e-05,0.00018,-4e-05,0.0001,0.00017,-8e-05,-5e-05,2,16
4661,-5e-05,4e-05,0.00018,-4e-05,0.0001,0.00017,-8e-05,-5e-05,2,16
4662,-5e-05,4e-05,0.00018,-4e-05,0.0001,0.00017,-8e-05,-5e-05,2,16
4663,-5e-05,4e-05,0.00018,-4e-05,0.0001,0.00017,-8e-05,-5e-05,2,16
4664,-5e-05,4e-05,0.00018,-4e-05,0.0001,0.00017,-8e-05,-5e-05,2,16
4665,-1e-05,-1e-05,-6e-05,5e-05,-0.00013,7e-05,-0.00032,0,2,16
4666,-1e-05,-1e-05,-6e-05,5e-05,-0.00013,7e-05,-0.00032,0,2,16
4667,-1e-05,-1e-05,-6e-05,5e-05,-0.00013,7e-05,-0.00032,0,2,16
4668,-1e-05,-1e-05,-6e-05,5e-05,-0.00013,7e-05,-0.00032,0,2,16
4669,-1e-05,-1e-05,-6e-05,5e-05,-0.00013,7e-05,-0.00032,0,2,16
4670,-1e-05,-1e-05,-6e-05,5e-05,-0.00013,7e-05,-0.00032,0,2,16
4671,-1e-05,-1e-05,-6e-05,5e-05,-0.00013,7e-05,-0.00032,0,2,16
4672,-1e-05,-1e-05,-6e-05,5e-05,-0.00013,7e-05,-0.00032,0,2,16
4673,-4e-05,-2e-05,0.00012,-7e-05,5e-05,0.00086,0.00024,-3e-05,2,16
4674,-4e-05,-2e-05,0.00012,-7e-05,5e-05,0.00086,0.00024,-3e-05,2,16
4675,-4e-05,-2e-05,0.00012,-7e-05,5e-05,0.00086,0.00024,-3e-05,2,16
4676,-4e-05,-2e-05,0.00012,-7e-05,5e-05,0.00086,0.00024,-3e-05,2,16
4677,-4e-05,-2e-05,0.00012,-7e-05,5e-05,0.00086,0.00024,-3e-05,2,16
4678,-4e-05,-2e-05,0.00012,-7e-05,5e-05,0.00086,0.00024,-3e-05,2,16
4679,-4e-05,-2e-05,0.00012,-7e-05,5e-05,0.00086,0.00024,-3e-05,2,16
4680,2e-05,3e-05,0.00025,0.0001,-0.00016,-0.00038,0.00024,-1e-05,2,16
4681,2e-05,3e-05,0.00025,0.0001,-0.00016,-0.00038,0.00024,-1e-05,2,16
4682,2e-05,3e-05,0.00025,0.0001,-0.00016,-0.00038,0.00024,-1e-05,2,16
4683,2e-05,3e-05,0.00025,0.0001,-0.00016,-0.00038,0.00024,-1e-05,2,16
4684,2e-05,3e-05,0.00025,0.0001,-0.00016,-0.00038,0.00024,-1e-05,2,16
4685,2e-05,3e-05,0.00025,0.0001,-0.00016,-0.00038,0.00024,-1e-05,2,16
4686,2e-05,3e-05,0.00025,0.0001,-0.00016,-0.00038,0.00024,-1e-05,2,16
4688,2e-05,3e-05,0.00025,0.0001,-0.00016,-0.00038,0.00024,-1e-05,2,16
4689,2e-05,3e-05,0.00025,0.0001,-0.00016,-0.00038,0.00024,-1e-05,2,16
4690,2e-05,3e-05,0.00025,0.0001,-0.00016,-0.00038,0.00024,-1e-05,2,16
4691,2e-05,3e-05,0.00025,0.0001,-0.00016,-0.00038,0.00024,-1e-05,2,16
4692,2e-05,3e-05,0.00025,0.0001,-0.00016,-0.00038,0.00024,-1e-05,2,16
4693,2e-05,3e-05,0.00025,0.0001,-0.00016,-0.00038,0.00024,-1e-05,2,16
4694,2e-05,3e-05,0.00025,0.0001,-0.00016,-0.00038,0.00024,-1e-05,2,16
4695,2e-05,3e-05,0.00025,0.0001,-0.00016,-0.00038,0.00024,-1e-05,2,16
4696,-6e-05,-4e-05,1e-05,0.00023,-1e-05,-0.0002,5e-05,-2e-05,2,16
4697,-3e-05,-5e-05,-0.00014,8e-05,1e-05,-0.00011,-0.00015,-2e-05,2,16
4698,-3e-05,-5e-05,-0.00014,8e-05,1e-05,-0.00011,-0.00015,-2e-05,2,16
4699,-3e-05,-5e-05,-0.00014,8e-05,1e-05,-0.00011,-0.00015,-2e-05,2,16
4700,-3e-05,-5e-05,-0.00014,8e-05,1e-05,-0.00011,-0.00015,-2e-05,2,16
4701,-3e-05,-5e-05,-0.00014,8e-05,1e-05,-0.00011,-0.00015,-2e-05,2,16
4702,-3e-05,-5e-05,-0.00014,8e-05,1e-05,-0.00011,-0.00015,-2e-05,2,16
4703,7e-05,3e-05,-2e-05,-0.00015,0.00015,0.00036,5e-05,0.00015,2,16
4704,-3e-05,4e-05,-1e-05,-2e-05,-5e-05,-0.00025,-0.00015,1e-05,2,16
4705,-3e-05,4e-05,-1e-05,-2e-05,-5e-05,-0.00025,-0.00015,1e-05,2,16
4706,-3e-05,4e-05,-1e-05,-2e-05,-5e-05,-0.00025,-0.00015,1e-05,2,16
4707,-3e-05,4e-05,-1e-05,-2e-05,-5e-05,-0.00025,-0.00015,1e-05,2,16
4708,-3e-05,4e-05,-1e-05,-2e-05,-5e-05,-0.00025,-0.00015,1e-05,2,16
4709,-3e-05,4e-05,-1e-05,-2e-05,-5e-05,-0.00025,-0.00015,1e-05,2,16
4710,-3e-05,4e-05,-1e-05,-2e-05,-5e-05,-0.00025,-0.00015,1e-05,2,16
4711,-3e-05,4e-05,-1e-05,-2e-05,-5e-05,-0.00025,-0.00015,1e-05,2,16
4712,-3e-05,4e-05,-1e-05,-2e-05,-5e-05,-0.00025,-0.00015,1e-05,2,16
4713,-3e-05,4e-05,-1e-05,-2e-05,-5e-05,-0.00025,-0.00015,1e-05,2,16
4714,-3e-05,4e-05,-1e-05,-2e-05,-5e-05,-0.00025,-0.00015,1e-05,2,16
4715,-3e-05,4e-05,-1e-05,-2e-05,-5e-05,-0.00025,-0.00015,1e-05,2,16
4716,-3e-05,4e-05,-1e-05,-2e-05,-5e-05,-0.00025,-0.00015,1e-05,2,16
4717,-3e-05,4e-05,-1e-05,-2e-05,-5e-05,-0.00025,-0.00015,1e-05,2,16
4718,-3e-05,4e-05,-1e-05,-2e-05,-5e-05,-0.00025,-0.00015,1e-05,2,16
4719,-3e-05,4e-05,-1e-05,-2e-05,-5e-05,-0.00025,-0.00015,1e-05,2,16
4720,-3e-05,4e-05,-1e-05,-2e-05,-5e-05,-0.00025,-0.00015,1e-05,2,16
4721,-3e-05,4e-05,-1e-05,-2e-05,-5e-05,-0.00025,-0.00015,1e-05,2,16
4722,-3e-05,4e-05,-1e-05,-2e-05,-5e-05,-0.00025,-0.00015,1e-05,2,16
4723,-3e-05,4e-05,-1e-05,-2e-05,-5e-05,-0.00025,-0.00015,1e-05,2,16
4724,-3e-05,4e-05,-1e-05,-2e-05,-5e-05,-0.00025,-0.00015,1e-05,2,16
4725,-3e-05,4e-05,-1e-05,-2e-05,-5e-05,-0.00025,-0.00015,1e-05,2,16
4726,-7e-05,-4e-05,-9e-05,0.00025,2e-05,-5e-05,0.00011,-0.00014,2,16
4727,-0.0001,-8e-05,-8e-05,-0.00028,-0.00019,-0.00042,-9e-05,-9e-05,2,16
4728,-0.0001,-8e-05,-8e-05,-0.00028,-0.00019,-0.00042,-9e-05,-9e-05,2,16
4729,-0.0001,-8e-05,-8e-05,-0.00028,-0.00019,-0.00042,-9e-05,-9e-05,2,16
4730,-0.0001,-8e-05,-8e-05,-0.00028,-0.00019,-0.00042,-9e-05,-9e-05,2,16
4731,-0.0001,-8e-05,-8e-05,-0.00028,-0.00019,-0.00042,-9e-05,-9e-05,2,16
4732,-0.0001,-8e-05,-8e-05,-0.00028,-0.00019,-0.00042,-9e-05,-9e-05,2,16
4733,-0.0001,-8e-05,-8e-05,-0.00028,-0.00019,-0.00042,-9e-05,-9e-05,2,16
4734,-0.0001,-8e-05,-8e-05,-0.00028,-0.00019,-0.00042,-9e-05,-9e-05,2,16
4735,-0.0001,-8e-05,-8e-05,-0.00028,-0.00019,-0.00042,-9e-05,-9e-05,2,16
4736,-0.0001,-8e-05,-8e-05,-0.00028,-0.00019,-0.00042,-9e-05,-9e-05,2,16
4738,-0.0001,-8e-05,-8e-05,-0.00028,-0.00019,-0.00042,-9e-05,-9e-05,2,16
4739,-0.0001,-8e-05,-8e-05,-0.00028,-0.00019,-0.00042,-9e-05,-9e-05,2,16
4740,2e-05,-7e-05,-0.00015,-0.00016,4e-05,-0.00047,-0.00015,-6e-05,2,16
4741,2e-05,-7e-05,-0.00015,-0.00016,4e-05,-0.00047,-0.00015,-6e-05,2,16
4742,2e-05,-7e-05,-0.00015,-0.00016,4e-05,-0.00047,-0.00015,-6e-05,2,16
4743,2e-05,-7e-05,-0.00015,-0.00016,4e-05,-0.00047,-0.00015,-6e-05,2,16
4744,2e-05,-7e-05,-0.00015,-0.00016,4e-05,-0.00047,-0.00015,-6e-05,2,16
4745,2e-05,-7e-05,-0.00015,-0.00016,4e-05,-0.00047,-0.00015,-6e-05,2,16
4746,2e-05,-7e-05,-0.00015,-0.00016,4e-05,-0.00047,-0.00015,-6e-05,2,16
4747,2e-05,-7e-05,-0.00015,-0.00016,4e-05,-0.00047,-0.00015,-6e-05,2,16
4748,-0.0001,-0.00012,-0.00018,-0.00018,-0.00027,-0.00119,-0.00047,-0.00015,2,16
4749,-0.0001,-0.00012,-0.00018,-0.00018,-0.00027,-0.00119,-0.00047,-0.00015,2,16
4750,-0.0001,-0.00012,-0.00018,-0.00018,-0.00027,-0.00119,-0.00047,-0.00015,2,16
4751,-0.0001,-0.00012,-0.00018,-0.00018,-0.00027,-0.00119,-0.00047,-0.00015,2,16
4752,-0.0001,-0.00012,-0.00018,-0.00018,-0.00027,-0.00119,-0.00047,-0.00015,2,16
4753,-0.0001,-0.00012,-0.00018,-0.00018,-0.00027,-0.00119,-0.00047,-0.00015,2,16
4754,-0.0001,-0.00012,-0.00018,-0.00018,-0.00027,-0.00119,-0.00047,-0.00015,2,16
4755,-0.0001,-0.00012,-0.00018,-0.00018,-0.00027,-0.00119,-0.00047,-0.00015,2,16
4756,-0.0001,-0.00012,-0.00018,-0.00018,-0.00027,-0.00119,-0.00047,-0.00015,2,16
4757,-0.0001,-0.00012,-0.00018,-0.00018,-0.00027,-0.00119,-0.00047,-0.00015,2,16
4758,-0.0001,-0.00012,-0.00018,-0.00018,-0.00027,-0.00119,-0.00047,-0.00015,2,16
4759,-0.0001,-0.00012,-0.00018,-0.00018,-0.00027,-0.00119,-0.00047,-0.00015,2,16
4760,-0.0001,-0.00012,-0.00018,-0.00018,-0.00027,-0.00119,-0.00047,-0.00015,2,16
4761,-0.0001,-0.00012,-0.00018,-0.00018,-0.00027,-0.00119,-0.00047,-0.00015,2,16
4762,-0.0001,-0.00012,-0.00018,-0.00018,-0.00027,-0.00119,-0.00047,-0.00015,2,16
4763,-0.0001,-0.00012,-0.00018,-0.00018,-0.00027,-0.00119,-0.00047,-0.00015,2,16
4764,4e-05,3e-05,-0.00012,2e-05,3e-05,-0.00029,-0.00028,1e-05,2,16
4765,0.00011,6e-05,6e-05,-0.00016,-7e-05,0.00019,0.0001,9e-05,2,16
4766,0.00011,6e-05,6e-05,-0.00016,-7e-05,0.00019,0.0001,9e-05,2,16
4767,0.00011,6e-05,6e-05,-0.00016,-7e-05,0.00019,0.0001,9e-05,2,16
4768,0.00011,6e-05,6e-05,-0.00016,-7e-05,0.00019,0.0001,9e-05,2,16
4769,0.00011,6e-05,6e-05,-0.00016,-7e-05,0.00019,0.0001,9e-05,2,16
4770,0.00011,6e-05,6e-05,-0.00016,-7e-05,0.00019,0.0001,9e-05,2,16
4771,0.00011,6e-05,6e-05,-0.00016,-7e-05,0.00019,0.0001,9e-05,2,16
4772,0.00011,6e-05,6e-05,-0.00016,-7e-05,0.00019,0.0001,9e-05,2,16
4773,0.00011,6e-05,6e-05,-0.00016,-7e-05,0.00019,0.0001,9e-05,2,16
4774,0.00011,6e-05,6e-05,-0.00016,-7e-05,0.00019,0.0001,9e-05,2,16
4775,0.00011,6e-05,6e-05,-0.00016,-7e-05,0.00019,0.0001,9e-05,2,16
4776,0.00011,6e-05,6e-05,-0.00016,-7e-05,0.00019,0.0001,9e-05,2,16
4777,0.00011,6e-05,6e-05,-0.00016,-7e-05,0.00019,0.0001,9e-05,2,16
4778,0.00011,6e-05,6e-05,-0.00016,-7e-05,0.00019,0.0001,9e-05,2,16
4779,0.00011,6e-05,6e-05,-0.00016,-7e-05,0.00019,0.0001,9e-05,2,16
4780,0.00011,6e-05,6e-05,-0.00016,-7e-05,0.00019,0.0001,9e-05,2,16
4781,0.00011,6e-05,6e-05,-0.00016,-7e-05,0.00019,0.0001,9e-05,2,16
4782,0.00011,6e-05,6e-05,-0.00016,-7e-05,0.00019,0.0001,9e-05,2,16
4783,0.00011,6e-05,6e-05,-0.00016,-7e-05,0.00019,0.0001,9e-05,2,16
4784,0.00011,6e-05,6e-05,-0.00016,-7e-05,0.00019,0.0001,9e-05,2,16
4785,0.00011,6e-05,6e-05,-0.00016,-7e-05,0.00019,0.0001,9e-05,2,16
4786,-0.00014,-9e-05,-4e-05,-0.00023,-0.00026,-0.00012,1e-05,-4e-05,2,16
4788,0.0001,-2e-05,-3e-05,0.00035,0.00016,0.00017,0.00032,6e-05,2,16
4789,0.0001,-2e-05,-3e-05,0.00035,0.00016,0.00017,0.00032,6e-05,2,16
4790,0.0001,-2e-05,-3e-05,0.00035,0.00016,0.00017,0.00032,6e-05,2,16
4791,0.0001,-2e-05,-3e-05,0.00035,0.00016,0.00017,0.00032,6e-05,2,16
4792,0.0001,-2e-05,-3e-05,0.00035,0.00016,0.00017,0.00032,6e-05,2,16
4793,0.0001,-2e-05,-3e-05,0.00035,0.00016,0.00017,0.00032,6e-05,2,16
4794,0.0001,-2e-05,-3e-05,0.00035,0.00016,0.00017,0.00032,6e-05,2,16
4795,0.0001,-2e-05,-3e-05,0.00035,0.00016,0.00017,0.00032,6e-05,2,16
4796,0.0001,-2e-05,-3e-05,0.00035,0.00016,0.00017,0.00032,6e-05,2,16
4797,0.0001,-2e-05,-3e-05,0.00035,0.00016,0.00017,0.00032,6e-05,2,16
4798,0.0001,-2e-05,-3e-05,0.00035,0.00016,0.00017,0.00032,6e-05,2,16
4799,0.0001,-2e-05,-3e-05,0.00035,0.00016,0.00017,0.00032,6e-05,2,16
4800,-5e-05,0,-0.0001,-6e-05,0.00018,0.00015,-0.00011,0,2,16
4801,-5e-05,0,-0.0001,-6e-05,0.00018,0.00015,-0.00011,0,2,16
4802,-5e-05,0,-0.0001,-6e-05,0.00018,0.00015,-0.00011,0,2,16
4803,-5e-05,0,-0.0001,-6e-05,0.00018,0.00015,-0.00011,0,2,16
4804,-5e-05,0,-0.0001,-6e-05,0.00018,0.00015,-0.00011,0,2,16
4805,-5e-05,0,-0.0001,-6e-05,0.00018,0.00015,-0.00011,0,2,16
4806,-5e-05,0,-0.0001,-6e-05,0.00018,0.00015,-0.00011,0,2,16
4807,-5e-05,0,-0.0001,-6e-05,0.00018,0.00015,-0.00011,0,2,16
4808,-6e-05,-2e-05,-3e-05,2e-05,-1e-05,-0.00064,-3e-05,-3e-05,2,16
4809,-6e-05,-2e-05,-3e-05,2e-05,-1e-05,-0.00064,-3e-05,-3e-05,2,16
4810,-6e-05,-2e-05,-3e-05,2e-05,-1e-05,-0.00064,-3e-05,-3e-05,2,16
4811,-6e-05,-2e-05,-3e-05,2e-05,-1e-05,-0.00064,-3e-05,-3e-05,2,16
4812,-6e-05,-2e-05,-3e-05,2e-05,-1e-05,-0.00064,-3e-05,-3e-05,2,16
4813,-6e-05,-2e-05,-3e-05,2e-05,-1e-05,-0.00064,-3e-05,-3e-05,2,16
4814,-6e-05,-2e-05,-3e-05,2e-05,-1e-05,-0.00064,-3e-05,-3e-05,2,16
4815,-6e-05,-2e-05,-3e-05,2e-05,-1e-05,-0.00064,-3e-05,-3e-05,2,16
4816,-6e-05,-2e-05,-3e-05,2e-05,-1e-05,-0.00064,-3e-05,-3e-05,2,16
4817,-6e-05,-2e-05,-3e-05,2e-05,-1e-05,-0.00064,-3e-05,-3e-05,2,16
4818,-6e-05,-2e-05,-3e-05,2e-05,-1e-05,-0.00064,-3e-05,-3e-05,2,16
4819,-6e-05,-2e-05,-3e-05,2e-05,-1e-05,-0.00064,-3e-05,-3e-05,2,16
4820,-6e-05,-2e-05,-3e-05,2e-05,-1e-05,-0.00064,-3e-05,-3e-05,2,16
4821,-6e-05,-2e-05,-3e-05,2e-05,-1e-05,-0.00064,-3e-05,-3e-05,2,16
4822,-6e-05,-2e-05,-3e-05,2e-05,-1e-05,-0.00064,-3e-05,-3e-05,2,16
4823,1e-05,4e-05,2e-05,-9e-05,-3e-05,0.00017,-0.0001,-3e-05,2,16
4824,-0.0001,-0.00013,-0.00037,-0.00021,0.00028,0.00048,2e-05,2e-05,2,16
4825,-0.0001,-0.00013,-0.00037,-0.00021,0.00028,0.00048,2e-05,2e-05,2,16
4826,-0.0001,-0.00013,-0.00037,-0.00021,0.00028,0.00048,2e-05,2e-05,2,16
4827,-0.0001,-0.00013,-0.00037,-0.00021,0.00028,0.00048,2e-05,2e-05,2,16
4828,-0.0001,-0.00013,-0.00037,-0.00021,0.00028,0.00048,2e-05,2e-05,2,16
4829,-0.0001,-0.00013,-0.00037,-0.00021,0.00028,0.00048,2e-05,2e-05,2,16
4830,-0.0001,-0.00013,-0.00037,-0.00021,0.00028,0.00048,2e-05,2e-05,2,16
4831,-0.0001,-0.00013,-0.00037,-0.00021,0.00028,0.00048,2e-05,2e-05,2,16
4832,-0.0001,-0.00013,-0.00037,-0.00021,0.00028,0.00048,2e-05,2e-05,2,16
4833,-0.0001,-0.00013,-0.00037,-0.00021,0.00028,0.00048,2e-05,2e-05,2,16
4834,-0.0001,-0.00013,-0.00037,-0.00021,0.00028,0.00048,2e-05,2e-05,2,16
4835,-0.0001,-0.00013,-0.00037,-0.00021,0.00028,0.00048,2e-05,2e-05,2,16
4836,-0.0001,-0.00013,-0.00037,-0.00021,0.00028,0.00048,2e-05,2e-05,2,16
4838,-0.0001,-0.00013,-0.00037,-0.00021,0.00028,0.00048,2e-05,2e-05,2,16
4839,-0.0001,-0.00013,-0.00037,-0.00021,0.00028,0.00048,2e-05,2e-05,2,16
4840,-0.0001,-0.00013,-0.00037,-0.00021,0.00028,0.00048,2e-05,2e-05,2,16
4841,-0.0001,-0.00013,-0.00037,-0.00021,0.00028,0.00048,2e-05,2e-05,2,16
4842,-0.0001,-0.00013,-0.00037,-0.00021,0.00028,0.00048,2e-05,2e-05,2,16
4843,-0.0001,-0.00013,-0.00037,-0.00021,0.00028,0.00048,2e-05,2e-05,2,16
4844,-0.0001,-0.00013,-0.00037,-0.00021,0.00028,0.00048,2e-05,2e-05,2,16
4845,-0.0001,-0.00013,-0.00037,-0.00021,0.00028,0.00048,2e-05,2e-05,2,16
4846,1e-05,6e-05,0.00012,0.00026,0.00024,0.00085,0.00029,6e-05,2,16
4847,-1e-05,-7e-05,-8e-05,-0.00012,-1e-05,0.00049,0.00023,-2e-05,2,16
4848,-1e-05,-7e-05,-8e-05,-0.00012,-1e-05,0.00049,0.00023,-2e-05,2,16
4849,-1e-05,-7e-05,-8e-05,-0.00012,-1e-05,0.00049,0.00023,-2e-05,2,16
4850,-1e-05,-7e-05,-8e-05,-0.00012,-1e-05,0.00049,0.00023,-2e-05,2,16
4851,-1e-05,-7e-05,-8e-05,-0.00012,-1e-05,0.00049,0.00023,-2e-05,2,16
4852,-1e-05,-7e-05,-8e-05,-0.00012,-1e-05,0.00049,0.00023,-2e-05,2,16
4853,-1e-05,-7e-05,-8e-05,-0.00012,-1e-05,0.00049,0.00023,-2e-05,2,16
4854,-1e-05,-7e-05,-8e-05,-0.00012,-1e-05,0.00049,0.00023,-2e-05,2,16
4855,-1e-05,-7e-05,-8e-05,-0.00012,-1e-05,0.00049,0.00023,-2e-05,2,16
4856,-1e-05,-7e-05,-8e-05,-0.00012,-1e-05,0.00049,0.00023,-2e-05,2,16
4857,-1e-05,-7e-05,-8e-05,-0.00012,-1e-05,0.00049,0.00023,-2e-05,2,16
4858,-1e-05,-7e-05,-8e-05,-0.00012,-1e-05,0.00049,0.00023,-2e-05,2,16
4859,-1e-05,-7e-05,-8e-05,-0.00012,-1e-05,0.00049,0.00023,-2e-05,2,16
4860,-8e-05,-5e-05,-4e-05,3e-05,5e-05,-0.00036,-6e-05,-3e-05,2,16
4861,-8e-05,-5e-05,-4e-05,3e-05,5e-05,-0.00036,-6e-05,-3e-05,2,16
4862,-8e-05,-5e-05,-4e-05,3e-05,5e-05,-0.00036,-6e-05,-3e-05,2,16
4863,-8e-05,-5e-05,-4e-05,3e-05,5e-05,-0.00036,-6e-05,-3e-05,2,16
4864,-8e-05,-5e-05,-4e-05,3e-05,5e-05,-0.00036,-6e-05,-3e-05,2,16
4865,-8e-05,-5e-05,-4e-05,3e-05,5e-05,-0.00036,-6e-05,-3e-05,2,16
4866,-8e-05,-5e-05,-4e-05,3e-05,5e-05,-0.00036,-6e-05,-3e-05,2,16
4867,-8e-05,-5e-05,-4e-05,3e-05,5e-05,-0.00036,-6e-05,-3e-05,2,16
4868,2e-05,0.00012,0.00017,0.00011,0.0003,-0.00035,0.00023,5e-05,2,16
4869,2e-05,0.00012,0.00017,0.00011,0.0003,-0.00035,0.00023,5e-05,2,16
4870,2e-05,0.00012,0.00017,0.00011,0.0003,-0.00035,0.00023,5e-05,2,16
4871,2e-05,0.00012,0.00017,0.00011,0.0003,-0.00035,0.00023,5e-05,2,16
4872,2e-05,0.00012,0.00017,0.00011,0.0003,-0.00035,0.00023,5e-05,2,16
4873,2e-05,0.00012,0.00017,0.00011,0.0003,-0.00035,0.00023,5e-05,2,16
4874,2e-05,0.00012,0.00017,0.00011,0.0003,-0.00035,0.00023,5e-05,2,16
4875,2e-05,0.00012,0.00017,0.00011,0.0003,-0.00035,0.00023,5e-05,2,16
4876,2e-05,0.00012,0.00017,0.00011,0.0003,-0.00035,0.00023,5e-05,2,16
4877,2e-05,0.00012,0.00017,0.00011,0.0003,-0.00035,0.00023,5e-05,2,16
4878,2e-05,0.00012,0.00017,0.00011,0.0003,-0.00035,0.00023,5e-05,2,16
4879,2e-05,0.00012,0.00017,0.00011,0.0003,-0.00035,0.00023,5e-05,2,16
4880,2e-05,0.00012,0.00017,0.00011,0.0003,-0.00035,0.00023,5e-05,2,16
4881,2e-05,0.00012,0.00017,0.00011,0.0003,-0.00035,0.00023,5e-05,2,16
4882,2e-05,0.00012,0.00017,0.00011,0.0003,-0.00035,0.00023,5e-05,2,16
4883,9e-05,4e-05,0.00015,-0.00015,-0.00027,-0.0005,-0.00044,1e-05,2,16
4884,-5e-05,-3e-05,-0.00017,-7e-05,-8e-05,0.00011,-0.00032,-7e-05,2,16
4885,-5e-05,-3e-05,-0.00017,-7e-05,-8e-05,0.00011,-0.00032,-7e-05,2,16
4886,-5e-05,-3e-05,-0.00017,-7e-05,-8e-05,0.00011,-0.00032,-7e-05,2,16
4888,-5e-05,-3e-05,-0.00017,-7e-05,-8e-05,0.00011,-0.00032,-7e-05,2,16
4889,-5e-05,-3e-05,-0.00017,-7e-05,-8e-05,0.00011,-0.00032,-7e-05,2,16
4890,-5e-05,-3e-05,-0.00017,-7e-05,-8e-05,0.00011,-0.00032,-7e-05,2,16
4891,-5e-05,-3e-05,-0.00017,-7e-05,-8e-05,0.00011,-0.00032,-7e-05,2,16
4892,-5e-05,-3e-05,-0.00017,-7e-05,-8e-05,0.00011,-0.00032,-7e-05,2,16
4893,-5e-05,-3e-05,-0.00017,-7e-05,-8e-05,0.00011,-0.00032,-7e-05,2,16
4894,-5e-05,-3e-05,-0.00017,-7e-05,-8e-05,0.00011,-0.00032,-7e-05,2,16
4895,-5e-05,-3e-05,-0.00017,-7e-05,-8e-05,0.00011,-0.00032,-7e-05,2,16
4896,-5e-05,-3e-05,-0.00017,-7e-05,-8e-05,0.00011,-0.00032,-7e-05,2,16
4897,-5e-05,-3e-05,-0.00017,-7e-05,-8e-05,0.00011,-0.00032,-7e-05,2,16
4898,-5e-05,-3e-05,-0.00017,-7e-05,-8e-05,0.00011,-0.00032,-7e-05,2,16
4899,-5e-05,-3e-05,-0.00017,-7e-05,-8e-05,0.00011,-0.00032,-7e-05,2,16
4900,-5e-05,-3e-05,-0.00017,-7e-05,-8e-05,0.00011,-0.00032,-7e-05,2,16
4901,-5e-05,-3e-05,-0.00017,-7e-05,-8e-05,0.00011,-0.00032,-7e-05,2,16
4902,-5e-05,-3e-05,-0.00017,-7e-05,-8e-05,0.00011,-0.00032,-7e-05,2,16
4903,-5e-05,-3e-05,-0.00017,-7e-05,-8e-05,0.00011,-0.00032,-7e-05,2,16
4904,-5e-05,-3e-05,-0.00017,-7e-05,-8e-05,0.00011,-0.00032,-7e-05,2,16
4905,-5e-05,-3e-05,-0.00017,-7e-05,-8e-05,0.00011,-0.00032,-7e-05,2,16
4906,0,8e-05,0.00015,0.00021,-0.00037,-0.00054,-0.0001,-8e-05,2,16
4907,-2e-05,-4e-05,3e-05,-0.00013,-3e-05,0.00015,-6e-05,-1e-05,2,16
4908,-2e-05,-4e-05,3e-05,-0.00013,-3e-05,0.00015,-6e-05,-1e-05,2,16
4909,-2e-05,-4e-05,3e-05,-0.00013,-3e-05,0.00015,-6e-05,-1e-05,2,16
4910,-2e-05,-4e-05,3e-05,-0.00013,-3e-05,0.00015,-6e-05,-1e-05,2,16
4911,-2e-05,-4e-05,3e-05,-0.00013,-3e-05,0.00015,-6e-05,-1e-05,2,16
4912,-2e-05,-4e-05,3e-05,-0.00013,-3e-05,0.00015,-6e-05,-1e-05,2,16
4913,-2e-05,-4e-05,3e-05,-0.00013,-3e-05,0.00015,-6e-05,-1e-05,2,16
4914,-2e-05,-4e-05,3e-05,-0.00013,-3e-05,0.00015,-6e-05,-1e-05,2,16
4915,-2e-05,-4e-05,3e-05,-0.00013,-3e-05,0.00015,-6e-05,-1e-05,2,16
4916,-2e-05,-4e-05,3e-05,-0.00013,-3e-05,0.00015,-6e-05,-1e-05,2,16
4917,-2e-05,-4e-05,3e-05,-0.00013,-3e-05,0.00015,-6e-05,-1e-05,2,16
4918,-2e-05,-4e-05,3e-05,-0.00013,-3e-05,0.00015,-6e-05,-1e-05,2,16
4919,-2e-05,-4e-05,3e-05,-0.00013,-3e-05,0.00015,-6e-05,-1e-05,2,16
4920,-2e-05,-4e-05,3e-05,-0.00013,-3e-05,0.00015,-6e-05,-1e-05,2,16
4921,-2e-05,-4e-05,3e-05,-0.00013,-3e-05,0.00015,-6e-05,-1e-05,2,16
4922,-2e-05,-4e-05,3e-05,-0.00013,-3e-05,0.00015,-6e-05,-1e-05,2,16
4923,-2e-05,-4e-05,3e-05,-0.00013,-3e-05,0.00015,-6e-05,-1e-05,2,16
4924,-2e-05,-4e-05,3e-05,-0.00013,-3e-05,0.00015,-6e-05,-1e-05,2,16
4925,-2e-05,-4e-05,3e-05,-0.00013,-3e-05,0.00015,-6e-05,-1e-05,2,16
4926,-2e-05,-4e-05,3e-05,-0.00013,-3e-05,0.00015,-6e-05,-1e-05,2,16
4927,-2e-05,-4e-05,3e-05,-0.00013,-3e-05,0.00015,-6e-05,-1e-05,2,16
4928,-2e-05,-4e-05,3e-05,-0.00013,-3e-05,0.00015,-6e-05,-1e-05,2,16
4929,2e-05,3e-05,0.00013,-0.00023,-1e-05,0.0002,0,4e-05,2,16
4930,2e-05,3e-05,0.00013,-0.00023,-1e-05,0.0002,0,4e-05,2,16
4931,2e-05,3e-05,0.00013,-0.00023,-1e-05,0.0002,0,4e-05,2,16
4932,2e-05,3e-05,0.00013,-0.00023,-1e-05,0.0002,0,4e-05,2,16
4933,2e-05,3e-05,0.00013,-0.00023,-1e-05,0.0002,0,4e-05,2,16
4934,2e-05,3e-05,0.00013,-0.00023,-1e-05,0.0002,0,4e-05,2,16
4935,2e-05,3e-05,0.00013,-0.00023,-1e-05,0.0002,0,4e-05,2,16
4936,2e-05,3e-05,0.00013,-0.00023,-1e-05,0.0002,0,4e-05,2,16
4938,2e-05,3e-05,0.00013,-0.00023,-1e-05,0.0002,0,4e-05,2,16
4939,2e-05,3e-05,0.00013,-0.00023,-1e-05,0.0002,0,4e-05,2,16
4940,2e-05,3e-05,0.00013,-0.00023,-1e-05,0.0002,0,4e-05,2,16
4941,2e-05,3e-05,0.00013,-0.00023,-1e-05,0.0002,0,4e-05,2,16
4942,2e-05,3e-05,0.00013,-0.00023,-1e-05,0.0002,0,4e-05,2,16
4943,-5e-05,-0.0001,-0.00011,4e-05,3e-05,-0.00013,7e-05,7e-05,2,16
4944,4e-05,5e-05,2e-05,8e-05,-5e-05,0.0005,0.00019,0.00011,2,16
4945,4e-05,5e-05,2e-05,8e-05,-5e-05,0.0005,0.00019,0.00011,2,16
4946,4e-05,5e-05,2e-05,8e-05,-5e-05,0.0005,0.00019,0.00011,2,16
4947,4e-05,5e-05,2e-05,8e-05,-5e-05,0.0005,0.00019,0.00011,2,16
4948,4e-05,5e-05,2e-05,8e-05,-5e-05,0.0005,0.00019,0.00011,2,16
4949,4e-05,5e-05,2e-05,8e-05,-5e-05,0.0005,0.00019,0.00011,2,16
4950,4e-05,5e-05,2e-05,8e-05,-5e-05,0.0005,0.00019,0.00011,2,16
4951,4e-05,5e-05,2e-05,8e-05,-5e-05,0.0005,0.00019,0.00011,2,16
4952,4e-05,5e-05,2e-05,8e-05,-5e-05,0.0005,0.00019,0.00011,2,16
4953,4e-05,5e-05,2e-05,8e-05,-5e-05,0.0005,0.00019,0.00011,2,16
4954,4e-05,5e-05,2e-05,8e-05,-5e-05,0.0005,0.00019,0.00011,2,16
4955,4e-05,5e-05,2e-05,8e-05,-5e-05,0.0005,0.00019,0.00011,2,16
4956,4e-05,5e-05,2e-05,8e-05,-5e-05,0.0005,0.00019,0.00011,2,16
4957,4e-05,5e-05,2e-05,8e-05,-5e-05,0.0005,0.00019,0.00011,2,16
4958,4e-05,5e-05,2e-05,8e-05,-5e-05,0.0005,0.00019,0.00011,2,16
4959,4e-05,5e-05,2e-05,8e-05,-5e-05,0.0005,0.00019,0.00011,2,16
4960,4e-05,5e-05,2e-05,8e-05,-5e-05,0.0005,0.00019,0.00011,2,16
4961,4e-05,5e-05,2e-05,8e-05,-5e-05,0.0005,0.00019,0.00011,2,16
4962,4e-05,5e-05,2e-05,8e-05,-5e-05,0.0005,0.00019,0.00011,2,16
4963,4e-05,5e-05,2e-05,8e-05,-5e-05,0.0005,0.00019,0.00011,2,16
4964,4e-05,5e-05,2e-05,8e-05,-5e-05,0.0005,0.00019,0.00011,2,16
4965,4e-05,5e-05,2e-05,8e-05,-5e-05,0.0005,0.00019,0.00011,2,16
4966,1e-05,1e-05,-8e-05,-9e-05,1e-05,-0.00069,-0.00031,-2e-05,2,16
4967,3e-05,2e-05,2e-05,0.00022,-3e-05,0.00035,4e-05,3e-05,2,16
4968,3e-05,2e-05,2e-05,0.00022,-3e-05,0.00035,4e-05,3e-05,2,16
4969,3e-05,2e-05,2e-05,0.00022,-3e-05,0.00035,4e-05,3e-05,2,16
4970,3e-05,2e-05,2e-05,0.00022,-3e-05,0.00035,4e-05,3e-05,2,16
4971,3e-05,2e-05,2e-05,0.00022,-3e-05,0.00035,4e-05,3e-05,2,16
4972,3e-05,2e-05,2e-05,0.00022,-3e-05,0.00035,4e-05,3e-05,2,16
4973,3e-05,2e-05,2e-05,0.00022,-3e-05,0.00035,4e-05,3e-05,2,16
4974,3e-05,2e-05,2e-05,0.00022,-3e-05,0.00035,4e-05,3e-05,2,16
4975,3e-05,2e-05,2e-05,0.00022,-3e-05,0.00035,4e-05,3e-05,2,16
4976,3e-05,2e-05,2e-05,0.00022,-3e-05,0.00035,4e-05,3e-05,2,16
4977,3e-05,2e-05,2e-05,0.00022,-3e-05,0.00035,4e-05,3e-05,2,16
4978,3e-05,2e-05,2e-05,0.00022,-3e-05,0.00035,4e-05,3e-05,2,16
4979,3e-05,2e-05,2e-05,0.00022,-3e-05,0.00035,4e-05,3e-05,2,16
4980,3e-05,2e-05,2e-05,0.00022,-3e-05,0.00035,4e-05,3e-05,2,16
4981,3e-05,2e-05,2e-05,0.00022,-3e-05,0.00035,4e-05,3e-05,2,16
4982,3e-05,2e-05,2e-05,0.00022,-3e-05,0.00035,4e-05,3e-05,2,16
4983,3e-05,2e-05,2e-05,0.00022,-3e-05,0.00035,4e-05,3e-05,2,16
4984,3e-05,2e-05,2e-05,0.00022,-3e-05,0.00035,4e-05,3e-05,2,16
4985,3e-05,2e-05,2e-05,0.00022,-3e-05,0.00035,4e-05,3e-05,2,16
4986,3e-05,2e-05,2e-05,0.00022,-3e-05,0.00035,4e-05,3e-05,2,16
4988,3e-05,2e-05,2e-05,0.00022,-3e-05,0.00035,4e-05,3e-05,2,16
4989,3e-05,2e-05,2e-05,0.00022,-3e-05,0.00035,4e-05,3e-05,2,16
4990,3e-05,2e-05,2e-05,0.00022,-3e-05,0.00035,4e-05,3e-05,2,16
4991,3e-05,2e-05,2e-05,0.00022,-3e-05,0.00035,4e-05,3e-05,2,16
4992,3e-05,2e-05,2e-05,0.00022,-3e-05,0.00035,4e-05,3e-05,2,16
4993,3e-05,2e-05,2e-05,0.00022,-3e-05,0.00035,4e-05,3e-05,2,16
4994,3e-05,2e-05,2e-05,0.00022,-3e-05,0.00035,4e-05,3e-05,2,16
4995,3e-05,2e-05,2e-05,0.00022,-3e-05,0.00035,4e-05,3e-05,2,16
4996,0.0001,3e-05,-4e-05,0.0001,-9e-05,0.00041,0.00019,0.00013,2,16
4997,-7e-05,-2e-05,-4e-05,2e-05,3e-05,0.0002,0.0001,-8e-05,2,16
4998,-7e-05,-2e-05,-4e-05,2e-05,3e-05,0.0002,0.0001,-8e-05,2,16
4999,-7e-05,-2e-05,-4e-05,2e-05,3e-05,0.0002,0.0001,-8e-05,2,16
5000,-7e-05,-2e-05,-4e-05,2e-05,3e-05,0.0002,0.0001,-8e-05,2,16
5001,-7e-05,-2e-05,-4e-05,2e-05,3e-05,0.0002,0.0001,-8e-05,2,16
5002,-7e-05,-2e-05,-4e-05,2e-05,3e-05,0.0002,0.0001,-8e-05,2,16
5003,1e-05,-4e-05,0.00013,0.0002,-0.00017,-0.00056,-0.00027,-9e-05,2,16
5004,0,-6e-05,-0.00025,-0.00026,0.00019,0.00022,0.00024,3e-05,2,16
5005,0,-6e-05,-0.00025,-0.00026,0.00019,0.00022,0.00024,3e-05,2,16
5006,0,-6e-05,-0.00025,-0.00026,0.00019,0.00022,0.00024,3e-05,2,16
5007,0,-6e-05,-0.00025,-0.00026,0.00019,0.00022,0.00024,3e-05,2,16
5008,0,-6e-05,-0.00025,-0.00026,0.00019,0.00022,0.00024,3e-05,2,16
5009,0,-6e-05,-0.00025,-0.00026,0.00019,0.00022,0.00024,3e-05,2,16
5010,0,-6e-05,-0.00025,-0.00026,0.00019,0.00022,0.00024,3e-05,2,16
5011,0,-6e-05,-0.00025,-0.00026,0.00019,0.00022,0.00024,3e-05,2,16
5012,0,-6e-05,-0.00025,-0.00026,0.00019,0.00022,0.00024,3e-05,2,16
5013,0,-6e-05,-0.00025,-0.00026,0.00019,0.00022,0.00024,3e-05,2,16
5014,0,-6e-05,-0.00025,-0.00026,0.00019,0.00022,0.00024,3e-05,2,16
5015,0,-6e-05,-0.00025,-0.00026,0.00019,0.00022,0.00024,3e-05,2,16
5016,0,-6e-05,-0.00025,-0.00026,0.00019,0.00022,0.00024,3e-05,2,16
5017,0,-6e-05,-0.00025,-0.00026,0.00019,0.00022,0.00024,3e-05,2,16
5018,0,-6e-05,-0.00025,-0.00026,0.00019,0.00022,0.00024,3e-05,2,16
5019,0,-6e-05,-0.00025,-0.00026,0.00019,0.00022,0.00024,3e-05,2,16
5020,0,-6e-05,-0.00025,-0.00026,0.00019,0.00022,0.00024,3e-05,2,16
5021,0,-6e-05,-0.00025,-0.00026,0.00019,0.00022,0.00024,3e-05,2,16
5022,0,-6e-05,-0.00025,-0.00026,0.00019,0.00022,0.00024,3e-05,2,16
5023,0,-6e-05,-0.00025,-0.00026,0.00019,0.00022,0.00024,3e-05,2,16
5024,0,-6e-05,-0.00025,-0.00026,0.00019,0.00022,0.00024,3e-05,2,16
5025,0,-6e-05,-0.00025,-0.00026,0.00019,0.00022,0.00024,3e-05,2,16
5026,-1e-05,-2e-05,-8e-05,-3e-05,-5e-05,-0.00017,0.00011,-8e-05,2,16
5027,-2e-05,-4e-05,2e-05,0.00015,-0.00015,-0.00085,-0.00029,-0.00013,2,16
5028,-2e-05,-4e-05,2e-05,0.00015,-0.00015,-0.00085,-0.00029,-0.00013,2,16
5029,-2e-05,-4e-05,2e-05,0.00015,-0.00015,-0.00085,-0.00029,-0.00013,2,16
5030,-2e-05,-4e-05,2e-05,0.00015,-0.00015,-0.00085,-0.00029,-0.00013,2,16
5031,-2e-05,-4e-05,2e-05,0.00015,-0.00015,-0.00085,-0.00029,-0.00013,2,16
5033,-2e-05,-4e-05,2e-05,0.00015,-0.00015,-0.00085,-0.00029,-0.00013,2,16
5034,-2e-05,-4e-05,2e-05,0.00015,-0.00015,-0.00085,-0.00029,-0.00013,2,16
5035,-2e-05,-4e-05,2e-05,0.00015,-0.00015,-0.00085,-0.00029,-0.00013,2,16
5036,-2e-05,-4e-05,2e-05,0.00015,-0.00015,-0.00085,-0.00029,-0.00013,2,16
5038,-2e-05,-4e-05,2e-05,0.00015,-0.00015,-0.00085,-0.00029,-0.00013,2,16
5039,-2e-05,-4e-05,2e-05,0.00015,-0.00015,-0.00085,-0.00029,-0.00013,2,16
5040,-2e-05,-4e-05,2e-05,0.00015,-0.00015,-0.00085,-0.00029,-0.00013,2,16
5041,-2e-05,-4e-05,2e-05,0.00015,-0.00015,-0.00085,-0.00029,-0.00013,2,16
5042,-2e-05,-4e-05,2e-05,0.00015,-0.00015,-0.00085,-0.00029,-0.00013,2,16
5043,-2e-05,-4e-05,2e-05,0.00015,-0.00015,-0.00085,-0.00029,-0.00013,2,16
5044,-2e-05,-4e-05,2e-05,0.00015,-0.00015,-0.00085,-0.00029,-0.00013,2,16
5045,-2e-05,-4e-05,2e-05,0.00015,-0.00015,-0.00085,-0.00029,-0.00013,2,16
5046,-2e-05,-4e-05,2e-05,0.00015,-0.00015,-0.00085,-0.00029,-0.00013,2,16
5047,-2e-05,-4e-05,2e-05,0.00015,-0.00015,-0.00085,-0.00029,-0.00013,2,16
5048,-2e-05,-4e-05,2e-05,0.00015,-0.00015,-0.00085,-0.00029,-0.00013,2,16
5049,1e-05,1e-05,-3e-05,-0.00011,8e-05,6e-05,-1e-05,2e-05,2,16
5050,-6e-05,1e-05,3e-05,-3e-05,-0.00018,-0.0005,-0.00026,-3e-05,2,16
5052,-6e-05,1e-05,3e-05,-3e-05,-0.00018,-0.0005,-0.00026,-3e-05,2,16
5053,-6e-05,1e-05,3e-05,-3e-05,-0.00018,-0.0005,-0.00026,-3e-05,2,16
5054,-6e-05,1e-05,3e-05,-3e-05,-0.00018,-0.0005,-0.00026,-3e-05,2,16
5055,-6e-05,1e-05,3e-05,-3e-05,-0.00018,-0.0005,-0.00026,-3e-05,2,16
5056,-6e-05,1e-05,3e-05,-3e-05,-0.00018,-0.0005,-0.00026,-3e-05,2,16
5057,-6e-05,1e-05,3e-05,-3e-05,-0.00018,-0.0005,-0.00026,-3e-05,2,16
5058,-6e-05,1e-05,3e-05,-3e-05,-0.00018,-0.0005,-0.00026,-3e-05,2,16
5059,-6e-05,1e-05,3e-05,-3e-05,-0.00018,-0.0005,-0.00026,-3e-05,2,16
5060,-6e-05,1e-05,3e-05,-3e-05,-0.00018,-0.0005,-0.00026,-3e-05,2,16
5061,-6e-05,1e-05,3e-05,-3e-05,-0.00018,-0.0005,-0.00026,-3e-05,2,16
5062,-6e-05,1e-05,3e-05,-3e-05,-0.00018,-0.0005,-0.00026,-3e-05,2,16
5063,-2e-05,0,-2e-05,-1e-05,0.0001,0.00062,0.00012,-1e-05,2,16
5064,-3e-05,-3e-05,7e-05,0.00019,0.00021,-2e-05,-0.00017,-3e-05,2,16
5065,-3e-05,-3e-05,7e-05,0.00019,0.00021,-2e-05,-0.00017,-3e-05,2,16
5066,-3e-05,-3e-05,7e-05,0.00019,0.00021,-2e-05,-0.00017,-3e-05,2,16
5067,-3e-05,-3e-05,7e-05,0.00019,0.00021,-2e-05,-0.00017,-3e-05,2,16
5068,-3e-05,-3e-05,7e-05,0.00019,0.00021,-2e-05,-0.00017,-3e-05,2,16
5069,-3e-05,-3e-05,7e-05,0.00019,0.00021,-2e-05,-0.00017,-3e-05,2,16
5070,-3e-05,-3e-05,7e-05,0.00019,0.00021,-2e-05,-0.00017,-3e-05,2,16
5071,-3e-05,-3e-05,7e-05,0.00019,0.00021,-2e-05,-0.00017,-3e-05,2,16
5072,-3e-05,-3e-05,7e-05,0.00019,0.00021,-2e-05,-0.00017,-3e-05,2,16
5073,-3e-05,-3e-05,7e-05,0.00019,0.00021,-2e-05,-0.00017,-3e-05,2,16
5074,-3e-05,-3e-05,7e-05,0.00019,0.00021,-2e-05,-0.00017,-3e-05,2,16
5075,-3e-05,-3e-05,7e-05,0.00019,0.00021,-2e-05,-0.00017,-3e-05,2,16
5076,-3e-05,-3e-05,7e-05,0.00019,0.00021,-2e-05,-0.00017,-3e-05,2,16
5077,-3e-05,-3e-05,7e-05,0.00019,0.00021,-2e-05,-0.00017,-3e-05,2,16
5078,-3e-05,-3e-05,7e-05,0.00019,0.00021,-2e-05,-0.00017,-3e-05,2,16
5079,-3e-05,-3e-05,7e-05,0.00019,0.00021,-2e-05,-0.00017,-3e-05,2,16
5080,-3e-05,-3e-05,7e-05,0.00019,0.00021,-2e-05,-0.00017,-3e-05,2,16
5081,-3e-05,-3e-05,7e-05,0.00019,0.00021,-2e-05,-0.00017,-3e-05,2,16
5082,-3e-05,-3e-05,7e-05,0.00019,0.00021,-2e-05,-0.00017,-3e-05,2,16
5083,-3e-05,-3e-05,7e-05,0.00019,0.00021,-2e-05,-0.00017,-3e-05,2,16
5084,-3e-05,-3e-05,7e-05,0.00019,0.00021,-2e-05,-0.00017,-3e-05,2,16
5085,-3e-05,-3e-05,7e-05,0.00019,0.00021,-2e-05,-0.00017,-3e-05,2,16
5086,3e-05,4e-05,8e-05,3e-05,3e-05,-0.00017,-1e-05,-1e-05,2,16
5088,-5e-05,2e-05,-1e-05,-3e-05,0.00011,0.00062,-0.00011,-3e-05,2,16
5089,-5e-05,2e-05,-1e-05,-3e-05,0.00011,0.00062,-0.00011,-3e-05,2,16
5090,-5e-05,2e-05,-1e-05,-3e-05,0.00011,0.00062,-0.00011,-3e-05,2,16
5091,-5e-05,2e-05,-1e-05,-3e-05,0.00011,0.00062,-0.00011,-3e-05,2,16
5092,-5e-05,2e-05,-1e-05,-3e-05,0.00011,0.00062,-0.00011,-3e-05,2,16
5093,-5e-05,2e-05,-1e-05,-3e-05,0.00011,0.00062,-0.00011,-3e-05,2,16
5094,-5e-05,2e-05,-1e-05,-3e-05,0.00011,0.00062,-0.00011,-3e-05,2,16
5095,-5e-05,2e-05,-1e-05,-3e-05,0.00011,0.00062,-0.00011,-3e-05,2,16
5096,-5e-05,2e-05,-1e-05,-3e-05,0.00011,0.00062,-0.00011,-3e-05,2,16
5097,-5e-05,2e-05,-1e-05,-3e-05,0.00011,0.00062,-0.00011,-3e-05,2,16
5098,-5e-05,2e-05,-1e-05,-3e-05,0.00011,0.00062,-0.00011,-3e-05,2,16
5099,-5e-05,2e-05,-1e-05,-3e-05,0.00011,0.00062,-0.00011,-3e-05,2,16
5100,-5e-05,2e-05,-1e-05,-3e-05,0.00011,0.00062,-0.00011,-3e-05,2,16
5101,-5e-05,2e-05,-1e-05,-3e-05,0.00011,0.00062,-0.00011,-3e-05,2,16
5102,-5e-05,2e-05,-1e-05,-3e-05,0.00011,0.00062,-0.00011,-3e-05,2,16
5103,-5e-05,2e-05,-1e-05,-3e-05,0.00011,0.00062,-0.00011,-3e-05,2,16
5104,-5e-05,2e-05,-1e-05,-3e-05,0.00011,0.00062,-0.00011,-3e-05,2,16
5105,-5e-05,2e-05,-1e-05,-3e-05,0.00011,0.00062,-0.00011,-3e-05,2,16
5106,-5e-05,2e-05,-1e-05,-3e-05,0.00011,0.00062,-0.00011,-3e-05,2,16
5107,-5e-05,2e-05,-1e-05,-3e-05,0.00011,0.00062,-0.00011,-3e-05,2,16
5108,-5e-05,2e-05,-1e-05,-3e-05,0.00011,0.00062,-0.00011,-3e-05,2,16
5109,-0.00011,-7e-05,-0.00029,-0.00072,7e-05,-0.0002,-0.00022,-4e-05,2,16
5110,3e-05,-8e-05,-0.00027,6e-05,8e-05,0.00017,0.00023,4e-05,2,16
5111,3e-05,-8e-05,-0.00027,6e-05,8e-05,0.00017,0.00023,4e-05,2,16
5112,3e-05,-8e-05,-0.00027,6e-05,8e-05,0.00017,0.00023,4e-05,2,16
5113,3e-05,-8e-05,-0.00027,6e-05,8e-05,0.00017,0.00023,4e-05,2,16
5114,3e-05,-8e-05,-0.00027,6e-05,8e-05,0.00017,0.00023,4e-05,2,16
5115,3e-05,-8e-05,-0.00027,6e-05,8e-05,0.00017,0.00023,4e-05,2,16
5116,3e-05,-8e-05,-0.00027,6e-05,8e-05,0.00017,0.00023,4e-05,2,16
5117,3e-05,-8e-05,-0.00027,6e-05,8e-05,0.00017,0.00023,4e-05,2,16
5118,3e-05,-8e-05,-0.00027,6e-05,8e-05,0.00017,0.00023,4e-05,2,16
5119,3e-05,-8e-05,-0.00027,6e-05,8e-05,0.00017,0.00023,4e-05,2,16
5120,3e-05,-8e-05,-0.00027,6e-05,8e-05,0.00017,0.00023,4e-05,2,16
5121,3e-05,-8e-05,-0.00027,6e-05,8e-05,0.00017,0.00023,4e-05,2,16
5122,3e-05,-8e-05,-0.00027,6e-05,8e-05,0.00017,0.00023,4e-05,2,16
5123,1e-05,0,0.00017,0.00012,-0.00026,-0.00035,-0.00013,0,2,16
5124,-4e-05,-4e-05,-0.00016,-0.00042,-0.00028,-0.00111,-0.00033,-6e-05,2,16
5125,-4e-05,-4e-05,-0.00016,-0.00042,-0.00028,-0.00111,-0.00033,-6e-05,2,16
5126,-4e-05,-4e-05,-0.00016,-0.00042,-0.00028,-0.00111,-0.00033,-6e-05,2,16
5127,-4e-05,-4e-05,-0.00016,-0.00042,-0.00028,-0.00111,-0.00033,-6e-05,2,16
5128,-4e-05,-4e-05,-0.00016,-0.00042,-0.00028,-0.00111,-0.00033,-6e-05,2,16
5129,-4e-05,-4e-05,-0.00016,-0.00042,-0.00028,-0.00111,-0.00033,-6e-05,2,16
5130,-4e-05,-4e-05,-0.00016,-0.00042,-0.00028,-0.00111,-0.00033,-6e-05,2,16
5131,-4e-05,-4e-05,-0.00016,-0.00042,-0.00028,-0.00111,-0.00033,-6e-05,2,16
5132,-4e-05,-4e-05,-0.00016,-0.00042,-0.00028,-0.00111,-0.00033,-6e-05,2,16
5133,-4e-05,-4e-05,-0.00016,-0.00042,-0.00028,-0.00111,-0.00033,-6e-05,2,16
5134,-4e-05,-4e-05,-0.00016,-0.00042,-0.00028,-0.00111,-0.00033,-6e-05,2,16
5135,-4e-05,-4e-05,-0.00016,-0.00042,-0.00028,-0.00111,-0.00033,-6e-05,2,16
5136,-4e-05,-4e-05,-0.00016,-0.00042,-0.00028,-0.00111,-0.00033,-6e-05,2,16
5138,-4e-05,-4e-05,-0.00016,-0.00042,-0.00028,-0.00111,-0.00033,-6e-05,2,16
5139,-4e-05,-4e-05,-0.00016,-0.00042,-0.00028,-0.00111,-0.00033,-6e-05,2,16
5140,-4e-05,-4e-05,-0.00016,-0.00042,-0.00028,-0.00111,-0.00033,-6e-05,2,16
5141,-4e-05,-4e-05,-0.00016,-0.00042,-0.00028,-0.00111,-0.00033,-6e-05,2,16
5142,-4e-05,-4e-05,-0.00016,-0.00042,-0.00028,-0.00111,-0.00033,-6e-05,2,16
5143,-4e-05,-4e-05,-0.00016,-0.00042,-0.00028,-0.00111,-0.00033,-6e-05,2,16
5144,-4e-05,-4e-05,-0.00016,-0.00042,-0.00028,-0.00111,-0.00033,-6e-05,2,16
5145,-4e-05,-4e-05,-0.00016,-0.00042,-0.00028,-0.00111,-0.00033,-6e-05,2,16
5146,3e-05,9e-05,5e-05,0.00015,0.00024,0.00018,6e-05,-1e-05,2,16
5147,2e-05,-8e-05,-0.00025,-0.00021,-6e-05,0.00023,0.0001,3e-05,2,16
5148,2e-05,-8e-05,-0.00025,-0.00021,-6e-05,0.00023,0.0001,3e-05,2,16
5149,2e-05,-8e-05,-0.00025,-0.00021,-6e-05,0.00023,0.0001,3e-05,2,16
5150,2e-05,-8e-05,-0.00025,-0.00021,-6e-05,0.00023,0.0001,3e-05,2,16
5151,2e-05,-8e-05,-0.00025,-0.00021,-6e-05,0.00023,0.0001,3e-05,2,16
5152,2e-05,-8e-05,-0.00025,-0.00021,-6e-05,0.00023,0.0001,3e-05,2,16
5153,2e-05,-8e-05,-0.00025,-0.00021,-6e-05,0.00023,0.0001,3e-05,2,16
5154,2e-05,-8e-05,-0.00025,-0.00021,-6e-05,0.00023,0.0001,3e-05,2,16
5155,2e-05,-8e-05,-0.00025,-0.00021,-6e-05,0.00023,0.0001,3e-05,2,16
5156,2e-05,-8e-05,-0.00025,-0.00021,-6e-05,0.00023,0.0001,3e-05,2,16
5157,2e-05,-8e-05,-0.00025,-0.00021,-6e-05,0.00023,0.0001,3e-05,2,16
5158,2e-05,-8e-05,-0.00025,-0.00021,-6e-05,0.00023,0.0001,3e-05,2,16
5159,2e-05,-8e-05,-0.00025,-0.00021,-6e-05,0.00023,0.0001,3e-05,2,16
5160,2e-05,-8e-05,-0.00025,-0.00021,-6e-05,0.00023,0.0001,3e-05,2,16
5161,2e-05,-8e-05,-0.00025,-0.00021,-6e-05,0.00023,0.0001,3e-05,2,16
5162,2e-05,-8e-05,-0.00025,-0.00021,-6e-05,0.00023,0.0001,3e-05,2,16
5163,2e-05,-8e-05,-0.00025,-0.00021,-6e-05,0.00023,0.0001,3e-05,2,16
5164,2e-05,-8e-05,-0.00025,-0.00021,-6e-05,0.00023,0.0001,3e-05,2,16
5165,2e-05,-8e-05,-0.00025,-0.00021,-6e-05,0.00023,0.0001,3e-05,2,16
5166,2e-05,-8e-05,-0.00025,-0.00021,-6e-05,0.00023,0.0001,3e-05,2,16
5167,2e-05,-8e-05,-0.00025,-0.00021,-6e-05,0.00023,0.0001,3e-05,2,16
5168,2e-05,-8e-05,-0.00025,-0.00021,-6e-05,0.00023,0.0001,3e-05,2,16
5169,2e-05,-8e-05,-0.00025,-0.00021,-6e-05,0.00023,0.0001,3e-05,2,16
5170,2e-05,-8e-05,-0.00025,-0.00021,-6e-05,0.00023,0.0001,3e-05,2,16
5171,2e-05,-8e-05,-0.00025,-0.00021,-6e-05,0.00023,0.0001,3e-05,2,16
5172,2e-05,-8e-05,-0.00025,-0.00021,-6e-05,0.00023,0.0001,3e-05,2,16
5173,2e-05,-8e-05,-0.00025,-0.00021,-6e-05,0.00023,0.0001,3e-05,2,16
5174,2e-05,-8e-05,-0.00025,-0.00021,-6e-05,0.00023,0.0001,3e-05,2,16
5175,2e-05,-8e-05,-0.00025,-0.00021,-6e-05,0.00023,0.0001,3e-05,2,16
5176,2e-05,-8e-05,-0.00025,-0.00021,-6e-05,0.00023,0.0001,3e-05,2,16
5177,2e-05,-8e-05,-0.00025,-0.00021,-6e-05,0.00023,0.0001,3e-05,2,16
5178,2e-05,-8e-05,-0.00025,-0.00021,-6e-05,0.00023,0.0001,3e-05,2,16
5179,2e-05,-8e-05,-0.00025,-0.00021,-6e-05,0.00023,0.0001,3e-05,2,16
5180,2e-05,-8e-05,-0.00025,-0.00021,-6e-05,0.00023,0.0001,3e-05,2,16
5181,2e-05,-8e-05,-0.00025,-0.00021,-6e-05,0.00023,0.0001,3e-05,2,16
5182,2e-05,-8e-05,-0.00025,-0.00021,-6e-05,0.00023,0.0001,3e-05,2,16
5183,2e-05,-8e-05,-0.00025,-0.00021,-6e-05,0.00023,0.0001,3e-05,2,16
5184,2e-05,-8e-05,-0.00025,-0.00021,-6e-05,0.00023,0.0001,3e-05,2,16
5185,-4e-05,-2e-05,3e-05,7e-05,-2e-05,-0.00011,-0.00012,-6e-05,2,16
5186,3e-05,0.00011,0.00028,0.00039,0.0002,0.00027,0.00032,2e-05,2,16
5188,-3e-05,-7e-05,-0.00013,-7e-05,7e-05,0.00024,0.00012,0,2,16
5189,-3e-05,-7e-05,-0.00013,-7e-05,7e-05,0.00024,0.00012,0,2,16
5190,-3e-05,-7e-05,-0.00013,-7e-05,7e-05,0.00024,0.00012,0,2,16
5191,-2e-05,-3e-05,0.00018,0.0001,-0.00025,-0.00076,-0.00028,-4e-05,2,16
5192,-2e-05,-3e-05,0.00018,0.0001,-0.00025,-0.00076,-0.00028,-4e-05,2,16
5193,-2e-05,-3e-05,0.00018,0.0001,-0.00025,-0.00076,-0.00028,-4e-05,2,16
5194,-2e-05,-3e-05,0.00018,0.0001,-0.00025,-0.00076,-0.00028,-4e-05,2,16
5195,-2e-05,-3e-05,0.00018,0.0001,-0.00025,-0.00076,-0.00028,-4e-05,2,16
5196,-2e-05,-3e-05,0.00018,0.0001,-0.00025,-0.00076,-0.00028,-4e-05,2,16
5197,-2e-05,-3e-05,0.00018,0.0001,-0.00025,-0.00076,-0.00028,-4e-05,2,16
5198,-2e-05,-3e-05,0.00018,0.0001,-0.00025,-0.00076,-0.00028,-4e-05,2,16
5199,-2e-05,-3e-05,0.00018,0.0001,-0.00025,-0.00076,-0.00028,-4e-05,2,16
5200,-2e-05,-3e-05,0.00018,0.0001,-0.00025,-0.00076,-0.00028,-4e-05,2,16
5201,-2e-05,-3e-05,0.00018,0.0001,-0.00025,-0.00076,-0.00028,-4e-05,2,16
5202,-2e-05,-3e-05,0.00018,0.0001,-0.00025,-0.00076,-0.00028,-4e-05,2,16
5203,-2e-05,-3e-05,0.00018,0.0001,-0.00025,-0.00076,-0.00028,-4e-05,2,16
5204,-2e-05,-3e-05,0.00018,0.0001,-0.00025,-0.00076,-0.00028,-4e-05,2,16
5205,-2e-05,-3e-05,0.00018,0.0001,-0.00025,-0.00076,-0.00028,-4e-05,2,16
5206,-3e-05,-0.00011,-0.00043,-2e-05,6e-05,7e-05,-0.00014,-5e-05,2,16
5207,-8e-05,-6e-05,-2e-05,-4e-05,-3e-05,-0.00032,-0.00031,-0.00011,2,16
5208,-8e-05,-6e-05,-2e-05,-4e-05,-3e-05,-0.00032,-0.00031,-0.00011,2,16
5209,-8e-05,-6e-05,-2e-05,-4e-05,-3e-05,-0.00032,-0.00031,-0.00011,2,16
5210,-8e-05,-6e-05,-2e-05,-4e-05,-3e-05,-0.00032,-0.00031,-0.00011,2,16
5211,-8e-05,-6e-05,-2e-05,-4e-05,-3e-05,-0.00032,-0.00031,-0.00011,2,16
5212,-8e-05,-6e-05,-2e-05,-4e-05,-3e-05,-0.00032,-0.00031,-0.00011,2,16
5213,-8e-05,-6e-05,-2e-05,-4e-05,-3e-05,-0.00032,-0.00031,-0.00011,2,16
5214,-8e-05,-6e-05,-2e-05,-4e-05,-3e-05,-0.00032,-0.00031,-0.00011,2,16
5215,-8e-05,-6e-05,-2e-05,-4e-05,-3e-05,-0.00032,-0.00031,-0.00011,2,16
5216,-8e-05,-6e-05,-2e-05,-4e-05,-3e-05,-0.00032,-0.00031,-0.00011,2,16
5217,-8e-05,-6e-05,-2e-05,-4e-05,-3e-05,-0.00032,-0.00031,-0.00011,2,16
5218,-8e-05,-6e-05,-2e-05,-4e-05,-3e-05,-0.00032,-0.00031,-0.00011,2,16
5219,-8e-05,-6e-05,-2e-05,-4e-05,-3e-05,-0.00032,-0.00031,-0.00011,2,16
5220,-8e-05,-6e-05,-2e-05,-4e-05,-3e-05,-0.00032,-0.00031,-0.00011,2,16
5221,-8e-05,-6e-05,-2e-05,-4e-05,-3e-05,-0.00032,-0.00031,-0.00011,2,16
5222,-8e-05,-6e-05,-2e-05,-4e-05,-3e-05,-0.00032,-0.00031,-0.00011,2,16
5223,-8e-05,-6e-05,-2e-05,-4e-05,-3e-05,-0.00032,-0.00031,-0.00011,2,16
5224,-8e-05,-6e-05,-2e-05,-4e-05,-3e-05,-0.00032,-0.00031,-0.00011,2,16
5225,-8e-05,-6e-05,-2e-05,-4e-05,-3e-05,-0.00032,-0.00031,-0.00011,2,16
5226,-8e-05,-6e-05,-2e-05,-4e-05,-3e-05,-0.00032,-0.00031,-0.00011,2,16
5227,-8e-05,-6e-05,-2e-05,-4e-05,-3e-05,-0.00032,-0.00031,-0.00011,2,16
5228,-8e-05,-6e-05,-2e-05,-4e-05,-3e-05,-0.00032,-0.00031,-0.00011,2,16
5229,2e-05,2e-05,-6e-05,-0.00016,-6e-05,9e-05,-7e-05,-3e-05,2,16
5230,2e-05,2e-05,-6e-05,-0.00016,-6e-05,9e-05,-7e-05,-3e-05,2,16
5231,2e-05,2e-05,-6e-05,-0.00016,-6e-05,9e-05,-7e-05,-3e-05,2,16
5232,2e-05,2e-05,-6e-05,-0.00016,-6e-05,9e-05,-7e-05,-3e-05,2,16
5233,2e-05,2e-05,-6e-05,-0.00016,-6e-05,9e-05,-7e-05,-3e-05,2,16
5234,2e-05,2e-05,-6e-05,-0.00016,-6e-05,9e-05,-7e-05,-3e-05,2,16
5235,2e-05,2e-05,-6e-05,-0.00016,-6e-05,9e-05,-7e-05,-3e-05,2,16
5236,2e-05,2e-05,-6e-05,-0.00016,-6e-05,9e-05,-7e-05,-3e-05,2,16
5238,2e-05,2e-05,-6e-05,-0.00016,-6e-05,9e-05,-7e-05,-3e-05,2,16
5239,2e-05,2e-05,-6e-05,-0.00016,-6e-05,9e-05,-7e-05,-3e-05,2,16
5240,2e-05,2e-05,-6e-05,-0.00016,-6e-05,9e-05,-7e-05,-3e-05,2,16
5241,2e-05,2e-05,-6e-05,-0.00016,-6e-05,9e-05,-7e-05,-3e-05,2,16
5242,2e-05,2e-05,-6e-05,-0.00016,-6e-05,9e-05,-7e-05,-3e-05,2,16
5243,-4e-05,0,7e-05,-0.0001,-0.00017,-0.00043,-0.00011,-5e-05,2,16
5244,-1e-05,4e-05,0.00012,0.00021,-0.00014,-0.00056,3e-05,-5e-05,2,16
5245,-1e-05,4e-05,0.00012,0.00021,-0.00014,-0.00056,3e-05,-5e-05,2,16
5246,-1e-05,4e-05,0.00012,0.00021,-0.00014,-0.00056,3e-05,-5e-05,2,16
5247,-1e-05,4e-05,0.00012,0.00021,-0.00014,-0.00056,3e-05,-5e-05,2,16
5248,-1e-05,4e-05,0.00012,0.00021,-0.00014,-0.00056,3e-05,-5e-05,2,16
5249,-1e-05,4e-05,0.00012,0.00021,-0.00014,-0.00056,3e-05,-5e-05,2,16
5250,-1e-05,4e-05,0.00012,0.00021,-0.00014,-0.00056,3e-05,-5e-05,2,16
5251,-1e-05,4e-05,0.00012,0.00021,-0.00014,-0.00056,3e-05,-5e-05,2,16
5252,-1e-05,4e-05,0.00012,0.00021,-0.00014,-0.00056,3e-05,-5e-05,2,16
5253,-1e-05,4e-05,0.00012,0.00021,-0.00014,-0.00056,3e-05,-5e-05,2,16
5254,-1e-05,4e-05,0.00012,0.00021,-0.00014,-0.00056,3e-05,-5e-05,2,16
5255,-1e-05,4e-05,0.00012,0.00021,-0.00014,-0.00056,3e-05,-5e-05,2,16
5256,-1e-05,4e-05,0.00012,0.00021,-0.00014,-0.00056,3e-05,-5e-05,2,16
5257,-1e-05,4e-05,0.00012,0.00021,-0.00014,-0.00056,3e-05,-5e-05,2,16
5258,-1e-05,4e-05,0.00012,0.00021,-0.00014,-0.00056,3e-05,-5e-05,2,16
5259,-1e-05,4e-05,0.00012,0.00021,-0.00014,-0.00056,3e-05,-5e-05,2,16
5260,-1e-05,4e-05,0.00012,0.00021,-0.00014,-0.00056,3e-05,-5e-05,2,16
5261,-1e-05,4e-05,0.00012,0.00021,-0.00014,-0.00056,3e-05,-5e-05,2,16
5262,-1e-05,4e-05,0.00012,0.00021,-0.00014,-0.00056,3e-05,-5e-05,2,16
5263,-1e-05,4e-05,0.00012,0.00021,-0.00014,-0.00056,3e-05,-5e-05,2,16
5264,-1e-05,4e-05,0.00012,0.00021,-0.00014,-0.00056,3e-05,-5e-05,2,16
5265,-1e-05,4e-05,0.00012,0.00021,-0.00014,-0.00056,3e-05,-5e-05,2,16
5266,-1e-05,4e-05,0.00012,0.00021,-0.00014,-0.00056,3e-05,-5e-05,2,16
5267,6e-05,6e-05,0.0001,-5e-05,6e-05,0.00027,5e-05,7e-05,2,16
5268,6e-05,6e-05,0.0001,-5e-05,6e-05,0.00027,5e-05,7e-05,2,16
5269,6e-05,6e-05,0.0001,-5e-05,6e-05,0.00027,5e-05,7e-05,2,16
5270,6e-05,6e-05,0.0001,-5e-05,6e-05,0.00027,5e-05,7e-05,2,16
5271,6e-05,6e-05,0.0001,-5e-05,6e-05,0.00027,5e-05,7e-05,2,16
5272,6e-05,6e-05,0.0001,-5e-05,6e-05,0.00027,5e-05,7e-05,2,16
5273,0,-2e-05,7e-05,6e-05,-8e-05,-0.00027,-4e-05,-1e-05,2,16
5274,0,-2e-05,7e-05,6e-05,-8e-05,-0.00027,-4e-05,-1e-05,2,16
5275,0,-2e-05,7e-05,6e-05,-8e-05,-0.00027,-4e-05,-1e-05,2,16
5276,0,-2e-05,7e-05,6e-05,-8e-05,-0.00027,-4e-05,-1e-05,2,16
5277,0,-2e-05,7e-05,6e-05,-8e-05,-0.00027,-4e-05,-1e-05,2,16
5278,0,-2e-05,7e-05,6e-05,-8e-05,-0.00027,-4e-05,-1e-05,2,16
5279,0,-2e-05,7e-05,6e-05,-8e-05,-0.00027,-4e-05,-1e-05,2,16
5280,0,-2e-05,7e-05,6e-05,-8e-05,-0.00027,-4e-05,-1e-05,2,16
5281,0,-2e-05,7e-05,6e-05,-8e-05,-0.00027,-4e-05,-1e-05,2,16
5282,0,-2e-05,7e-05,6e-05,-8e-05,-0.00027,-4e-05,-1e-05,2,16
5283,0,-2e-05,7e-05,6e-05,-8e-05,-0.00027,-4e-05,-1e-05,2,16
5284,0,-2e-05,7e-05,6e-05,-8e-05,-0.00027,-4e-05,-1e-05,2,16
5285,0,-2e-05,7e-05,6e-05,-8e-05,-0.00027,-4e-05,-1e-05,2,16
5286,0,-2e-05,7e-05,6e-05,-8e-05,-0.00027,-4e-05,-1e-05,2,16
5288,0,-2e-05,7e-05,6e-05,-8e-05,-0.00027,-4e-05,-1e-05,2,16
5289,6e-05,0,3e-05,-0.00025,-4e-05,0.00033,0.00032,3e-05,2,16
5290,-5e-05,-1e-05,-0.00024,-0.00022,-9e-05,6e-05,0.0001,3e-05,2,16
5291,-5e-05,-1e-05,-0.00024,-0.00022,-9e-05,6e-05,0.0001,3e-05,2,16
5292,-5e-05,-1e-05,-0.00024,-0.00022,-9e-05,6e-05,0.0001,3e-05,2,16
5293,-5e-05,-1e-05,-0.00024,-0.00022,-9e-05,6e-05,0.0001,3e-05,2,16
5294,-5e-05,-1e-05,-0.00024,-0.00022,-9e-05,6e-05,0.0001,3e-05,2,16
5295,-5e-05,-1e-05,-0.00024,-0.00022,-9e-05,6e-05,0.0001,3e-05,2,16
5296,-5e-05,-1e-05,-0.00024,-0.00022,-9e-05,6e-05,0.0001,3e-05,2,16
5297,-5e-05,-1e-05,-0.00024,-0.00022,-9e-05,6e-05,0.0001,3e-05,2,16
5298,-5e-05,-1e-05,-0.00024,-0.00022,-9e-05,6e-05,0.0001,3e-05,2,16
5299,-5e-05,-1e-05,-0.00024,-0.00022,-9e-05,6e-05,0.0001,3e-05,2,16
5300,-5e-05,-1e-05,-0.00024,-0.00022,-9e-05,6e-05,0.0001,3e-05,2,16
5301,-5e-05,-1e-05,-0.00024,-0.00022,-9e-05,6e-05,0.0001,3e-05,2,16
5302,-5e-05,-1e-05,-0.00024,-0.00022,-9e-05,6e-05,0.0001,3e-05,2,16
5303,3e-05,-1e-05,4e-05,5e-05,0.00015,1e-05,-7e-05,3e-05,2,16
5304,-2e-05,1e-05,9e-05,0.00011,-1e-05,0.00032,0.00011,-3e-05,2,16
5305,-2e-05,1e-05,9e-05,0.00011,-1e-05,0.00032,0.00011,-3e-05,2,16
5306,-2e-05,1e-05,9e-05,0.00011,-1e-05,0.00032,0.00011,-3e-05,2,16
5307,-2e-05,1e-05,9e-05,0.00011,-1e-05,0.00032,0.00011,-3e-05,2,16
5308,-2e-05,1e-05,9e-05,0.00011,-1e-05,0.00032,0.00011,-3e-05,2,16
5309,-2e-05,1e-05,9e-05,0.00011,-1e-05,0.00032,0.00011,-3e-05,2,16
5310,-2e-05,1e-05,9e-05,0.00011,-1e-05,0.00032,0.00011,-3e-05,2,16
5311,-2e-05,1e-05,9e-05,0.00011,-1e-05,0.00032,0.00011,-3e-05,2,16
5312,-2e-05,1e-05,9e-05,0.00011,-1e-05,0.00032,0.00011,-3e-05,2,16
5313,-2e-05,1e-05,9e-05,0.00011,-1e-05,0.00032,0.00011,-3e-05,2,16
5314,-2e-05,1e-05,9e-05,0.00011,-1e-05,0.00032,0.00011,-3e-05,2,16
5315,-2e-05,1e-05,9e-05,0.00011,-1e-05,0.00032,0.00011,-3e-05,2,16
5316,-2e-05,1e-05,9e-05,0.00011,-1e-05,0.00032,0.00011,-3e-05,2,16
5317,-2e-05,1e-05,9e-05,0.00011,-1e-05,0.00032,0.00011,-3e-05,2,16
5318,-2e-05,1e-05,9e-05,0.00011,-1e-05,0.00032,0.00011,-3e-05,2,16
5319,-2e-05,1e-05,9e-05,0.00011,-1e-05,0.00032,0.00011,-3e-05,2,16
5320,-2e-05,1e-05,9e-05,0.00011,-1e-05,0.00032,0.00011,-3e-05,2,16
5321,-2e-05,1e-05,9e-05,0.00011,-1e-05,0.00032,0.00011,-3e-05,2,16
5322,-2e-05,1e-05,9e-05,0.00011,-1e-05,0.00032,0.00011,-3e-05,2,16
5323,-2e-05,1e-05,9e-05,0.00011,-1e-05,0.00032,0.00011,-3e-05,2,16
5324,-2e-05,1e-05,9e-05,0.00011,-1e-05,0.00032,0.00011,-3e-05,2,16
5325,-2e-05,1e-05,9e-05,0.00011,-1e-05,0.00032,0.00011,-3e-05,2,16
5326,-2e-05,1e-05,9e-05,0.00011,-1e-05,0.00032,0.00011,-3e-05,2,16
5327,-2e-05,0,5e-05,6e-05,7e-05,2e-05,-2e-05,-6e-05,2,16
5328,-2e-05,0,5e-05,6e-05,7e-05,2e-05,-2e-05,-6e-05,2,16
5330,-2e-05,0,5e-05,6e-05,7e-05,2e-05,-2e-05,-6e-05,2,16
5331,-2e-05,0,5e-05,6e-05,7e-05,2e-05,-2e-05,-6e-05,2,16
5332,-2e-05,0,5e-05,6e-05,7e-05,2e-05,-2e-05,-6e-05,2,16
5333,-2e-05,0,5e-05,6e-05,7e-05,2e-05,-2e-05,-6e-05,2,16
5334,-2e-05,0,5e-05,6e-05,7e-05,2e-05,-2e-05,-6e-05,2,16
5335,-2e-05,0,5e-05,6e-05,7e-05,2e-05,-2e-05,-6e-05,2,16
5336,-2e-05,0,5e-05,6e-05,7e-05,2e-05,-2e-05,-6e-05,2,16
5338,-2e-05,0,5e-05,6e-05,7e-05,2e-05,-2e-05,-6e-05,2,16
5339,-2e-05,0,5e-05,6e-05,7e-05,2e-05,-2e-05,-6e-05,2,16
5340,-2e-05,0,5e-05,6e-05,7e-05,2e-05,-2e-05,-6e-05,2,16
5341,-2e-05,0,5e-05,6e-05,7e-05,2e-05,-2e-05,-6e-05,2,16
5342,-2e-05,0,5e-05,6e-05,7e-05,2e-05,-2e-05,-6e-05,2,16
5343,-2e-05,0,5e-05,6e-05,7e-05,2e-05,-2e-05,-6e-05,2,16
5344,-2e-05,0,5e-05,6e-05,7e-05,2e-05,-2e-05,-6e-05,2,16
5345,-2e-05,0,5e-05,6e-05,7e-05,2e-05,-2e-05,-6e-05,2,16
5346,-2e-05,0,5e-05,6e-05,7e-05,2e-05,-2e-05,-6e-05,2,16
5347,-2e-05,0,5e-05,6e-05,7e-05,2e-05,-2e-05,-6e-05,2,16
5348,-2e-05,0,5e-05,6e-05,7e-05,2e-05,-2e-05,-6e-05,2,16
5349,-6e-05,-0.00012,-0.00037,-0.00013,2e-05,0.00012,-1e-05,-1e-05,2,16
5350,-5e-05,-1e-05,0.00022,5e-05,-0.00017,-0.00025,-0.00022,-1e-05,2,16
5351,-5e-05,-1e-05,0.00022,5e-05,-0.00017,-0.00025,-0.00022,-1e-05,2,16
5352,-5e-05,-1e-05,0.00022,5e-05,-0.00017,-0.00025,-0.00022,-1e-05,2,16
5353,-5e-05,-1e-05,0.00022,5e-05,-0.00017,-0.00025,-0.00022,-1e-05,2,16
5354,-5e-05,-1e-05,0.00022,5e-05,-0.00017,-0.00025,-0.00022,-1e-05,2,16
5355,-5e-05,-1e-05,0.00022,5e-05,-0.00017,-0.00025,-0.00022,-1e-05,2,16
5356,-5e-05,-1e-05,0.00022,5e-05,-0.00017,-0.00025,-0.00022,-1e-05,2,16
5357,-5e-05,-1e-05,0.00022,5e-05,-0.00017,-0.00025,-0.00022,-1e-05,2,16
5358,-5e-05,-1e-05,0.00022,5e-05,-0.00017,-0.00025,-0.00022,-1e-05,2,16
5359,-5e-05,-1e-05,0.00022,5e-05,-0.00017,-0.00025,-0.00022,-1e-05,2,16
5360,-5e-05,-1e-05,0.00022,5e-05,-0.00017,-0.00025,-0.00022,-1e-05,2,16
5361,-5e-05,-1e-05,0.00022,5e-05,-0.00017,-0.00025,-0.00022,-1e-05,2,16
5362,-5e-05,-1e-05,0.00022,5e-05,-0.00017,-0.00025,-0.00022,-1e-05,2,16
5363,-6e-05,-3e-05,-1e-05,0.00012,0.00017,0.00032,-4e-05,-1e-05,2,16
5364,2e-05,-5e-05,-1e-05,8e-05,0.00013,0.00015,-3e-05,2e-05,2,16
5365,2e-05,-5e-05,-1e-05,8e-05,0.00013,0.00015,-3e-05,2e-05,2,16
5366,2e-05,-5e-05,-1e-05,8e-05,0.00013,0.00015,-3e-05,2e-05,2,16
5367,2e-05,-5e-05,-1e-05,8e-05,0.00013,0.00015,-3e-05,2e-05,2,16
5368,2e-05,-5e-05,-1e-05,8e-05,0.00013,0.00015,-3e-05,2e-05,2,16
5369,2e-05,-5e-05,-1e-05,8e-05,0.00013,0.00015,-3e-05,2e-05,2,16
5370,2e-05,-5e-05,-1e-05,8e-05,0.00013,0.00015,-3e-05,2e-05,2,16
5371,2e-05,-5e-05,-1e-05,8e-05,0.00013,0.00015,-3e-05,2e-05,2,16
5372,2e-05,-5e-05,-1e-05,8e-05,0.00013,0.00015,-3e-05,2e-05,2,16
5373,2e-05,-5e-05,-1e-05,8e-05,0.00013,0.00015,-3e-05,2e-05,2,16
5374,2e-05,-5e-05,-1e-05,8e-05,0.00013,0.00015,-3e-05,2e-05,2,16
5375,2e-05,-5e-05,-1e-05,8e-05,0.00013,0.00015,-3e-05,2e-05,2,16
5376,2e-05,-5e-05,-1e-05,8e-05,0.00013,0.00015,-3e-05,2e-05,2,16
5377,2e-05,-5e-05,-1e-05,8e-05,0.00013,0.00015,-3e-05,2e-05,2,16
5378,2e-05,-5e-05,-1e-05,8e-05,0.00013,0.00015,-3e-05,2e-05,2,16
5379,2e-05,-5e-05,-1e-05,8e-05,0.00013,0.00015,-3e-05,2e-05,2,16
5380,2e-05,-5e-05,-1e-05,8e-05,0.00013,0.00015,-3e-05,2e-05,2,16
5381,2e-05,-5e-05,-1e-05,8e-05,0.00013,0.00015,-3e-05,2e-05,2,16
5382,2e-05,-5e-05,-1e-05,8e-05,0.00013,0.00015,-3e-05,2e-05,2,16
5383,2e-05,-5e-05,-1e-05,8e-05,0.00013,0.00015,-3e-05,2e-05,2,16
5384,2e-05,-5e-05,-1e-05,8e-05,0.00013,0.00015,-3e-05,2e-05,2,16
5385,2e-05,-5e-05,-1e-05,8e-05,0.00013,0.00015,-3e-05,2e-05,2,16
5386,2e-05,-5e-05,-1e-05,8e-05,0.00013,0.00015,-3e-05,2e-05,2,16
5388,2e-05,-1e-05,-1e-05,0.00014,0.0001,-0.00037,3e-05,6e-05,2,16
5389,2e-05,-1e-05,-1e-05,0.00014,0.0001,-0.00037,3e-05,6e-05,2,16
5390,2e-05,-1e-05,-1e-05,0.00014,0.0001,-0.00037,3e-05,6e-05,2,16
5391,2e-05,-1e-05,-1e-05,0.00014,0.0001,-0.00037,3e-05,6e-05,2,16
5392,2e-05,-1e-05,-1e-05,0.00014,0.0001,-0.00037,3e-05,6e-05,2,16
5393,2e-05,-1e-05,-1e-05,0.00014,0.0001,-0.00037,3e-05,6e-05,2,16
5394,2e-05,-1e-05,-1e-05,0.00014,0.0001,-0.00037,3e-05,6e-05,2,16
5395,2e-05,-1e-05,-1e-05,0.00014,0.0001,-0.00037,3e-05,6e-05,2,16
5396,2e-05,-1e-05,-1e-05,0.00014,0.0001,-0.00037,3e-05,6e-05,2,16
5397,2e-05,-1e-05,-1e-05,0.00014,0.0001,-0.00037,3e-05,6e-05,2,16
5398,2e-05,-1e-05,-1e-05,0.00014,0.0001,-0.00037,3e-05,6e-05,2,16
5399,2e-05,-1e-05,-1e-05,0.00014,0.0001,-0.00037,3e-05,6e-05,2,16
5400,2e-05,-1e-05,-1e-05,0.00014,0.0001,-0.00037,3e-05,6e-05,2,16
5401,2e-05,-1e-05,-1e-05,0.00014,0.0001,-0.00037,3e-05,6e-05,2,16
5402,2e-05,-1e-05,-1e-05,0.00014,0.0001,-0.00037,3e-05,6e-05,2,16
5403,2e-05,-1e-05,-1e-05,0.00014,0.0001,-0.00037,3e-05,6e-05,2,16
5404,2e-05,-1e-05,-1e-05,0.00014,0.0001,-0.00037,3e-05,6e-05,2,16
5405,2e-05,-1e-05,-1e-05,0.00014,0.0001,-0.00037,3e-05,6e-05,2,16
5406,2e-05,-1e-05,-1e-05,0.00014,0.0001,-0.00037,3e-05,6e-05,2,16
5407,2e-05,-1e-05,-1e-05,0.00014,0.0001,-0.00037,3e-05,6e-05,2,16
5408,2e-05,-1e-05,-1e-05,0.00014,0.0001,-0.00037,3e-05,6e-05,2,16
5409,2e-05,-1e-05,-1e-05,0.00014,0.0001,-0.00037,3e-05,6e-05,2,16
5410,2e-05,-1e-05,-1e-05,0.00014,0.0001,-0.00037,3e-05,6e-05,2,16
5411,2e-05,-1e-05,-1e-05,0.00014,0.0001,-0.00037,3e-05,6e-05,2,16
5412,2e-05,-1e-05,-1e-05,0.00014,0.0001,-0.00037,3e-05,6e-05,2,16
5413,2e-05,-1e-05,-1e-05,0.00014,0.0001,-0.00037,3e-05,6e-05,2,16
5414,2e-05,-1e-05,-1e-05,0.00014,0.0001,-0.00037,3e-05,6e-05,2,16
5415,2e-05,-1e-05,-1e-05,0.00014,0.0001,-0.00037,3e-05,6e-05,2,16
5416,2e-05,-1e-05,-1e-05,0.00014,0.0001,-0.00037,3e-05,6e-05,2,16
5417,2e-05,-1e-05,-2e-05,2e-05,7e-05,0.0003,9e-05,1e-05,2,16
5418,2e-05,-1e-05,-2e-05,2e-05,7e-05,0.0003,9e-05,1e-05,2,16
5419,2e-05,-1e-05,-2e-05,2e-05,7e-05,0.0003,9e-05,1e-05,2,16
5420,2e-05,-1e-05,-2e-05,2e-05,7e-05,0.0003,9e-05,1e-05,2,16
5421,2e-05,-1e-05,-2e-05,2e-05,7e-05,0.0003,9e-05,1e-05,2,16
5422,2e-05,-1e-05,-2e-05,2e-05,7e-05,0.0003,9e-05,1e-05,2,16
5423,-2e-05,-1e-05,2e-05,-0.00013,-0.00012,0.00035,1e-05,-4e-05,2,16
5424,5e-05,1e-05,-4e-05,-0.00026,-0.00019,-0.00061,-8e-05,-7e-05,2,16
5425,5e-05,1e-05,-4e-05,-0.00026,-0.00019,-0.00061,-8e-05,-7e-05,2,16
5426,5e-05,1e-05,-4e-05,-0.00026,-0.00019,-0.00061,-8e-05,-7e-05,2,16
5427,5e-05,1e-05,-4e-05,-0.00026,-0.00019,-0.00061,-8e-05,-7e-05,2,16
5428,5e-05,1e-05,-4e-05,-0.00026,-0.00019,-0.00061,-8e-05,-7e-05,2,16
5429,5e-05,1e-05,-4e-05,-0.00026,-0.00019,-0.00061,-8e-05,-7e-05,2,16
5430,5e-05,1e-05,-4e-05,-0.00026,-0.00019,-0.00061,-8e-05,-7e-05,2,16
5431,5e-05,1e-05,-4e-05,-0.00026,-0.00019,-0.00061,-8e-05,-7e-05,2,16
5432,5e-05,1e-05,-4e-05,-0.00026,-0.00019,-0.00061,-8e-05,-7e-05,2,16
5433,5e-05,1e-05,-4e-05,-0.00026,-0.00019,-0.00061,-8e-05,-7e-05,2,16
5434,5e-05,1e-05,-4e-05,-0.00026,-0.00019,-0.00061,-8e-05,-7e-05,2,16
5435,5e-05,1e-05,-4e-05,-0.00026,-0.00019,-0.00061,-8e-05,-7e-05,2,16
5436,5e-05,1e-05,-4e-05,-0.00026,-0.00019,-0.00061,-8e-05,-7e-05,2,16
5438,5e-05,1e-05,-4e-05,-0.00026,-0.00019,-0.00061,-8e-05,-7e-05,2,16
5439,5e-05,1e-05,-4e-05,-0.00026,-0.00019,-0.00061,-8e-05,-7e-05,2,16
5440,5e-05,1e-05,-4e-05,-0.00026,-0.00019,-0.00061,-8e-05,-7e-05,2,16
5441,5e-05,1e-05,-4e-05,-0.00026,-0.00019,-0.00061,-8e-05,-7e-05,2,16
5442,5e-05,1e-05,-4e-05,-0.00026,-0.00019,-0.00061,-8e-05,-7e-05,2,16
5443,5e-05,1e-05,-4e-05,-0.00026,-0.00019,-0.00061,-8e-05,-7e-05,2,16
5444,5e-05,1e-05,-4e-05,-0.00026,-0.00019,-0.00061,-8e-05,-7e-05,2,16
5445,5e-05,1e-05,-4e-05,-0.00026,-0.00019,-0.00061,-8e-05,-7e-05,2,16
5446,5e-05,1e-05,-4e-05,-0.00026,-0.00019,-0.00061,-8e-05,-7e-05,2,16
5447,1e-05,-8e-05,-0.00023,-0.0001,6e-05,7e-05,0.00014,4e-05,2,16
5449,1e-05,-8e-05,-0.00023,-0.0001,6e-05,7e-05,0.00014,4e-05,2,16
5450,1e-05,-8e-05,-0.00023,-0.0001,6e-05,7e-05,0.00014,4e-05,2,16
5451,1e-05,-8e-05,-0.00023,-0.0001,6e-05,7e-05,0.00014,4e-05,2,16
5452,1e-05,-8e-05,-0.00023,-0.0001,6e-05,7e-05,0.00014,4e-05,2,16
5453,1e-05,-8e-05,-0.00023,-0.0001,6e-05,7e-05,0.00014,4e-05,2,16
5454,1e-05,-8e-05,-0.00023,-0.0001,6e-05,7e-05,0.00014,4e-05,2,16
5455,1e-05,-8e-05,-0.00023,-0.0001,6e-05,7e-05,0.00014,4e-05,2,16
5456,1e-05,-8e-05,-0.00023,-0.0001,6e-05,7e-05,0.00014,4e-05,2,16
5457,1e-05,-8e-05,-0.00023,-0.0001,6e-05,7e-05,0.00014,4e-05,2,16
5458,1e-05,-8e-05,-0.00023,-0.0001,6e-05,7e-05,0.00014,4e-05,2,16
5459,1e-05,-8e-05,-0.00023,-0.0001,6e-05,7e-05,0.00014,4e-05,2,16
5460,2e-05,2e-05,1e-05,-7e-05,0.00016,0.00016,0.00017,2e-05,2,16
5461,2e-05,2e-05,1e-05,-7e-05,0.00016,0.00016,0.00017,2e-05,2,16
5462,2e-05,2e-05,1e-05,-7e-05,0.00016,0.00016,0.00017,2e-05,2,16
5463,2e-05,2e-05,1e-05,-7e-05,0.00016,0.00016,0.00017,2e-05,2,16
5464,2e-05,2e-05,1e-05,-7e-05,0.00016,0.00016,0.00017,2e-05,2,16
5465,2e-05,2e-05,1e-05,-7e-05,0.00016,0.00016,0.00017,2e-05,2,16
5466,2e-05,2e-05,1e-05,-7e-05,0.00016,0.00016,0.00017,2e-05,2,16
5467,2e-05,2e-05,1e-05,-7e-05,0.00016,0.00016,0.00017,2e-05,2,16
5468,2e-05,2e-05,1e-05,-7e-05,0.00016,0.00016,0.00017,2e-05,2,16
5469,-3e-05,-5e-05,-0.00014,4e-05,-8e-05,-0.00044,-5e-05,-6e-05,2,16
5470,0,-7e-05,-0.00017,9e-05,7e-05,0.00048,3e-05,3e-05,2,16
5471,0,-7e-05,-0.00017,9e-05,7e-05,0.00048,3e-05,3e-05,2,16
5472,0,-7e-05,-0.00017,9e-05,7e-05,0.00048,3e-05,3e-05,2,16
5473,0,-7e-05,-0.00017,9e-05,7e-05,0.00048,3e-05,3e-05,2,16
5474,0,-7e-05,-0.00017,9e-05,7e-05,0.00048,3e-05,3e-05,2,16
5475,0,-7e-05,-0.00017,9e-05,7e-05,0.00048,3e-05,3e-05,2,16
5476,0,-7e-05,-0.00017,9e-05,7e-05,0.00048,3e-05,3e-05,2,16
5477,0,-7e-05,-0.00017,9e-05,7e-05,0.00048,3e-05,3e-05,2,16
5478,0,-7e-05,-0.00017,9e-05,7e-05,0.00048,3e-05,3e-05,2,16
5479,0,-7e-05,-0.00017,9e-05,7e-05,0.00048,3e-05,3e-05,2,16
5480,0,-7e-05,-0.00017,9e-05,7e-05,0.00048,3e-05,3e-05,2,16
5481,0,-7e-05,-0.00017,9e-05,7e-05,0.00048,3e-05,3e-05,2,16
5482,-4e-05,1e-05,0.0002,0.00021,6e-05,6e-05,-0.00018,-1e-05,2,16
5483,1e-05,1e-05,-0.00021,-0.00036,4e-05,-0.00028,-0.00014,-2e-05,2,16
5484,1e-05,1e-05,-0.00021,-0.00036,4e-05,-0.00028,-0.00014,-2e-05,2,16
5485,1e-05,1e-05,-0.00021,-0.00036,4e-05,-0.00028,-0.00014,-2e-05,2,16
5486,1e-05,1e-05,-0.00021,-0.00036,4e-05,-0.00028,-0.00014,-2e-05,2,16
5488,1e-05,1e-05,-0.00021,-0.00036,4e-05,-0.00028,-0.00014,-2e-05,2,16
5489,1e-05,1e-05,-0.00021,-0.00036,4e-05,-0.00028,-0.00014,-2e-05,2,16
5490,1e-05,1e-05,-0.00021,-0.00036,4e-05,-0.00028,-0.00014,-2e-05,2,16
5491,1e-05,5e-05,0,-3e-05,1e-05,-8e-05,4e-05,2e-05,2,16
5492,1e-05,5e-05,0,-3e-05,1e-05,-8e-05,4e-05,2e-05,2,16
5493,1e-05,5e-05,0,-3e-05,1e-05,-8e-05,4e-05,2e-05,2,16
5494,1e-05,5e-05,0,-3e-05,1e-05,-8e-05,4e-05,2e-05,2,16
5495,1e-05,5e-05,0,-3e-05,1e-05,-8e-05,4e-05,2e-05,2,16
5496,1e-05,5e-05,0,-3e-05,1e-05,-8e-05,4e-05,2e-05,2,16
5497,1e-05,5e-05,0,-3e-05,1e-05,-8e-05,4e-05,2e-05,2,16
5498,1e-05,5e-05,0,-3e-05,1e-05,-8e-05,4e-05,2e-05,2,16
5499,1e-05,5e-05,0,-3e-05,1e-05,-8e-05,4e-05,2e-05,2,16
5500,1e-05,5e-05,0,-3e-05,1e-05,-8e-05,4e-05,2e-05,2,16
5501,1e-05,5e-05,0,-3e-05,1e-05,-8e-05,4e-05,2e-05,2,16
5502,1e-05,5e-05,0,-3e-05,1e-05,-8e-05,4e-05,2e-05,2,16
5503,1e-05,5e-05,0,-3e-05,1e-05,-8e-05,4e-05,2e-05,2,16
5504,1e-05,5e-05,0,-3e-05,1e-05,-8e-05,4e-05,2e-05,2,16
5505,1e-05,5e-05,0,-3e-05,1e-05,-8e-05,4e-05,2e-05,2,16
5506,1e-05,5e-05,0,-3e-05,1e-05,-8e-05,4e-05,2e-05,2,16
5507,4e-05,0.00011,0.00018,1e-05,0.00019,-1e-05,7e-05,5e-05,2,16
5508,-0.00011,-7e-05,-7e-05,6e-05,-6e-05,-0.00027,4e-05,-2e-05,2,16
5509,-0.00011,-7e-05,-7e-05,6e-05,-6e-05,-0.00027,4e-05,-2e-05,2,16
5510,-0.00011,-7e-05,-7e-05,6e-05,-6e-05,-0.00027,4e-05,-2e-05,2,16
5511,-0.00011,-7e-05,-7e-05,6e-05,-6e-05,-0.00027,4e-05,-2e-05,2,16
5512,-0.00011,-7e-05,-7e-05,6e-05,-6e-05,-0.00027,4e-05,-2e-05,2,16
5513,-0.00011,-7e-05,-7e-05,6e-05,-6e-05,-0.00027,4e-05,-2e-05,2,16
5514,-0.00011,-7e-05,-7e-05,6e-05,-6e-05,-0.00027,4e-05,-2e-05,2,16
5515,-0.00011,-7e-05,-7e-05,6e-05,-6e-05,-0.00027,4e-05,-2e-05,2,16
5516,-0.00011,-7e-05,-7e-05,6e-05,-6e-05,-0.00027,4e-05,-2e-05,2,16
5517,-0.00011,-7e-05,-7e-05,6e-05,-6e-05,-0.00027,4e-05,-2e-05,2,16
5518,-0.00011,-7e-05,-7e-05,6e-05,-6e-05,-0.00027,4e-05,-2e-05,2,16
5519,-0.00011,-7e-05,-7e-05,6e-05,-6e-05,-0.00027,4e-05,-2e-05,2,16
5520,-0.00011,-7e-05,-7e-05,6e-05,-6e-05,-0.00027,4e-05,-2e-05,2,16
5521,-0.00011,-7e-05,-7e-05,6e-05,-6e-05,-0.00027,4e-05,-2e-05,2,16
5522,-0.00011,-7e-05,-7e-05,6e-05,-6e-05,-0.00027,4e-05,-2e-05,2,16
5523,-0.00011,-7e-05,-7e-05,6e-05,-6e-05,-0.00027,4e-05,-2e-05,2,16
5524,-0.00011,-7e-05,-7e-05,6e-05,-6e-05,-0.00027,4e-05,-2e-05,2,16
5525,-0.00011,-7e-05,-7e-05,6e-05,-6e-05,-0.00027,4e-05,-2e-05,2,16
5526,-0.00011,-7e-05,-7e-05,6e-05,-6e-05,-0.00027,4e-05,-2e-05,2,16
5527,-0.00011,-7e-05,-7e-05,6e-05,-6e-05,-0.00027,4e-05,-2e-05,2,16
5528,-0.00011,-7e-05,-7e-05,6e-05,-6e-05,-0.00027,4e-05,-2e-05,2,16
5529,-2e-05,1e-05,0.00012,1e-05,-0.00018,9e-05,-0.00011,-2e-05,2,16
5530,0,-2e-05,-3e-05,7e-05,2e-05,0.00019,-5e-05,0,2,16
5531,0,-2e-05,-3e-05,7e-05,2e-05,0.00019,-5e-05,0,2,16
5532,0,-2e-05,-3e-05,7e-05,2e-05,0.00019,-5e-05,0,2,16
5533,0,-2e-05,-3e-05,7e-05,2e-05,0.00019,-5e-05,0,2,16
5534,0,-2e-05,-3e-05,7e-05,2e-05,0.00019,-5e-05,0,2,16
5535,0,-2e-05,-3e-05,7e-05,2e-05,0.00019,-5e-05,0,2,16
5536,0,-2e-05,-3e-05,7e-05,2e-05,0.00019,-5e-05,0,2,16
5538,0,-2e-05,-3e-05,7e-05,2e-05,0.00019,-5e-05,0,2,16
5539,0,-2e-05,-3e-05,7e-05,2e-05,0.00019,-5e-05,0,2,16
5540,0,-2e-05,-3e-05,7e-05,2e-05,0.00019,-5e-05,0,2,16
5541,0,-2e-05,-3e-05,7e-05,2e-05,0.00019,-5e-05,0,2,16
5542,0,-2e-05,-3e-05,7e-05,2e-05,0.00019,-5e-05,0,2,16
5543,0,-2e-05,-3e-05,7e-05,2e-05,0.00019,-5e-05,0,2,16
5544,0,-2e-05,-3e-05,7e-05,2e-05,0.00019,-5e-05,0,2,16
5545,0,-2e-05,-3e-05,7e-05,2e-05,0.00019,-5e-05,0,2,16
5546,0,-2e-05,-3e-05,7e-05,2e-05,0.00019,-5e-05,0,2,16
5547,0,-2e-05,-3e-05,7e-05,2e-05,0.00019,-5e-05,0,2,16
5548,0,-2e-05,-3e-05,7e-05,2e-05,0.00019,-5e-05,0,2,16
5549,0,-2e-05,-3e-05,7e-05,2e-05,0.00019,-5e-05,0,2,16
5550,0,-2e-05,-3e-05,7e-05,2e-05,0.00019,-5e-05,0,2,16
5551,1e-05,-5e-05,4e-05,5e-05,-0.00013,7e-05,-1e-05,0,2,16
5552,1e-05,-5e-05,4e-05,5e-05,-0.00013,7e-05,-1e-05,0,2,16
5553,2e-05,-3e-05,0,-5e-05,5e-05,0.00014,-0.00013,1e-05,2,16
5554,2e-05,-3e-05,0,-5e-05,5e-05,0.00014,-0.00013,1e-05,2,16
5555,2e-05,-3e-05,0,-5e-05,5e-05,0.00014,-0.00013,1e-05,2,16
5556,2e-05,-3e-05,0,-5e-05,5e-05,0.00014,-0.00013,1e-05,2,16
5557,2e-05,-3e-05,0,-5e-05,5e-05,0.00014,-0.00013,1e-05,2,16
5558,2e-05,-3e-05,0,-5e-05,5e-05,0.00014,-0.00013,1e-05,2,16
5559,2e-05,-3e-05,0,-5e-05,5e-05,0.00014,-0.00013,1e-05,2,16
5560,2e-05,-3e-05,0,-5e-05,5e-05,0.00014,-0.00013,1e-05,2,16
5561,2e-05,-3e-05,0,-5e-05,5e-05,0.00014,-0.00013,1e-05,2,16
5562,2e-05,-3e-05,0,-5e-05,5e-05,0.00014,-0.00013,1e-05,2,16
5563,2e-05,-3e-05,0,-5e-05,5e-05,0.00014,-0.00013,1e-05,2,16
5564,2e-05,-3e-05,0,-5e-05,5e-05,0.00014,-0.00013,1e-05,2,16
5565,2e-05,-3e-05,0,-5e-05,5e-05,0.00014,-0.00013,1e-05,2,16
5566,-5e-05,0,-2e-05,7e-05,0,-0.00017,7e-05,0,2,16
5567,-5e-05,0,-2e-05,7e-05,0,-0.00017,7e-05,0,2,16
5568,-0.0001,-4e-05,3e-05,1e-05,7e-05,-0.0003,0.00013,-1e-05,2,16
5569,-0.0001,-4e-05,3e-05,1e-05,7e-05,-0.0003,0.00013,-1e-05,2,16
5570,-0.0001,-4e-05,3e-05,1e-05,7e-05,-0.0003,0.00013,-1e-05,2,16
5571,-0.0001,-4e-05,3e-05,1e-05,7e-05,-0.0003,0.00013,-1e-05,2,16
5572,-0.0001,-4e-05,3e-05,1e-05,7e-05,-0.0003,0.00013,-1e-05,2,16
5573,-0.0001,-4e-05,3e-05,1e-05,7e-05,-0.0003,0.00013,-1e-05,2,16
5574,-0.0001,-4e-05,3e-05,1e-05,7e-05,-0.0003,0.00013,-1e-05,2,16
5575,-0.0001,-4e-05,3e-05,1e-05,7e-05,-0.0003,0.00013,-1e-05,2,16
5576,-0.0001,-4e-05,3e-05,1e-05,7e-05,-0.0003,0.00013,-1e-05,2,16
5577,-0.0001,-4e-05,3e-05,1e-05,7e-05,-0.0003,0.00013,-1e-05,2,16
5578,-0.0001,-4e-05,3e-05,1e-05,7e-05,-0.0003,0.00013,-1e-05,2,16
5579,-0.0001,-4e-05,3e-05,1e-05,7e-05,-0.0003,0.00013,-1e-05,2,16
5580,-0.0001,-4e-05,3e-05,1e-05,7e-05,-0.0003,0.00013,-1e-05,2,16
5581,-0.0001,-4e-05,3e-05,1e-05,7e-05,-0.0003,0.00013,-1e-05,2,16
5582,-0.0001,-4e-05,3e-05,1e-05,7e-05,-0.0003,0.00013,-1e-05,2,16
5583,-0.0001,-4e-05,3e-05,1e-05,7e-05,-0.0003,0.00013,-1e-05,2,16
5584,-0.0001,-4e-05,3e-05,1e-05,7e-05,-0.0003,0.00013,-1e-05,2,16
5585,-0.0001,-4e-05,3e-05,1e-05,7e-05,-0.0003,0.00013,-1e-05,2,16
5586,-0.0001,-4e-05,3e-05,1e-05,7e-05,-0.0003,0.00013,-1e-05,2,16
5588,-0.0001,-4e-05,3e-05,1e-05,7e-05,-0.0003,0.00013,-1e-05,2,16
5589,-0.0001,-4e-05,3e-05,1e-05,7e-05,-0.0003,0.00013,-1e-05,2,16
5590,-0.0001,-4e-05,3e-05,1e-05,7e-05,-0.0003,0.00013,-1e-05,2,16
5591,-0.0001,-4e-05,3e-05,1e-05,7e-05,-0.0003,0.00013,-1e-05,2,16
5592,-0.0001,-4e-05,3e-05,1e-05,7e-05,-0.0003,0.00013,-1e-05,2,16
5593,-0.0001,-4e-05,3e-05,1e-05,7e-05,-0.0003,0.00013,-1e-05,2,16
5594,-0.0001,-4e-05,3e-05,1e-05,7e-05,-0.0003,0.00013,-1e-05,2,16
5595,-0.0001,-4e-05,3e-05,1e-05,7e-05,-0.0003,0.00013,-1e-05,2,16
5596,-4e-05,2e-05,0.00012,8e-05,4e-05,-1e-05,-0.00016,1e-05,2,16
5597,-4e-05,2e-05,0.00012,8e-05,4e-05,-1e-05,-0.00016,1e-05,2,16
5598,-1e-05,3e-05,3e-05,-3e-05,0.00021,3e-05,-0.00011,-1e-05,2,16
5599,-1e-05,3e-05,3e-05,-3e-05,0.00021,3e-05,-0.00011,-1e-05,2,16
5600,-1e-05,3e-05,3e-05,-3e-05,0.00021,3e-05,-0.00011,-1e-05,2,16
5601,-1e-05,3e-05,3e-05,-3e-05,0.00021,3e-05,-0.00011,-1e-05,2,16
5602,-3e-05,-3e-05,-6e-05,-0.00012,-0.00012,-0.00034,2e-05,-1e-05,2,16
5603,-3e-05,-3e-05,-6e-05,-0.00012,-0.00012,-0.00034,2e-05,-1e-05,2,16
5604,-3e-05,-3e-05,-6e-05,-0.00012,-0.00012,-0.00034,2e-05,-1e-05,2,16
5605,-3e-05,-3e-05,-6e-05,-0.00012,-0.00012,-0.00034,2e-05,-1e-05,2,16
5606,-3e-05,-3e-05,-6e-05,-0.00012,-0.00012,-0.00034,2e-05,-1e-05,2,16
5607,-3e-05,-3e-05,-6e-05,-0.00012,-0.00012,-0.00034,2e-05,-1e-05,2,16
5608,-3e-05,-3e-05,-6e-05,-0.00012,-0.00012,-0.00034,2e-05,-1e-05,2,16
5609,-3e-05,-3e-05,-6e-05,-0.00012,-0.00012,-0.00034,2e-05,-1e-05,2,16
5610,-3e-05,-3e-05,-6e-05,-0.00012,-0.00012,-0.00034,2e-05,-1e-05,2,16
5611,-3e-05,1e-05,-3e-05,0.0001,3e-05,0.00067,0.0003,2e-05,2,16
5612,-3e-05,1e-05,-3e-05,0.0001,3e-05,0.00067,0.0003,2e-05,2,16
5613,-3e-05,1e-05,-3e-05,0.0001,3e-05,0.00067,0.0003,2e-05,2,16
5614,-3e-05,1e-05,-3e-05,0.0001,3e-05,0.00067,0.0003,2e-05,2,16
5615,-3e-05,1e-05,-3e-05,0.0001,3e-05,0.00067,0.0003,2e-05,2,16
5616,-3e-05,1e-05,-3e-05,0.0001,3e-05,0.00067,0.0003,2e-05,2,16
5617,-3e-05,1e-05,-3e-05,0.0001,3e-05,0.00067,0.0003,2e-05,2,16
5618,-3e-05,1e-05,-3e-05,0.0001,3e-05,0.00067,0.0003,2e-05,2,16
5619,-3e-05,1e-05,-3e-05,0.0001,3e-05,0.00067,0.0003,2e-05,2,16
5620,-3e-05,1e-05,-3e-05,0.0001,3e-05,0.00067,0.0003,2e-05,2,16
5621,-3e-05,1e-05,-3e-05,0.0001,3e-05,0.00067,0.0003,2e-05,2,16
5622,-3e-05,1e-05,-3e-05,0.0001,3e-05,0.00067,0.0003,2e-05,2,16
5623,-3e-05,1e-05,-3e-05,0.0001,3e-05,0.00067,0.0003,2e-05,2,16
5624,-3e-05,1e-05,-3e-05,0.0001,3e-05,0.00067,0.0003,2e-05,2,16
5625,-3e-05,1e-05,-3e-05,0.0001,3e-05,0.00067,0.0003,2e-05,2,16
5626,-6e-05,-2e-05,-3e-05,-2e-05,0.00013,-0.00016,-7e-05,-3e-05,2,16
5627,-6e-05,-2e-05,-3e-05,-2e-05,0.00013,-0.00016,-7e-05,-3e-05,2,16
5628,-3e-05,-4e-05,-5e-05,-0.0002,-0.00019,-0.00029,-0.00016,-9e-05,2,16
5629,-3e-05,-4e-05,-5e-05,-0.0002,-0.00019,-0.00029,-0.00016,-9e-05,2,16
5630,-3e-05,-4e-05,-5e-05,-0.0002,-0.00019,-0.00029,-0.00016,-9e-05,2,16
5631,-3e-05,-4e-05,-5e-05,-0.0002,-0.00019,-0.00029,-0.00016,-9e-05,2,16
5632,-3e-05,-4e-05,-5e-05,-0.0002,-0.00019,-0.00029,-0.00016,-9e-05,2,16
5633,-3e-05,-4e-05,-5e-05,-0.0002,-0.00019,-0.00029,-0.00016,-9e-05,2,16
5634,-3e-05,-4e-05,-5e-05,-0.0002,-0.00019,-0.00029,-0.00016,-9e-05,2,16
5635,-3e-05,-4e-05,-5e-05,-0.0002,-0.00019,-0.00029,-0.00016,-9e-05,2,16
5636,-3e-05,-4e-05,-5e-05,-0.0002,-0.00019,-0.00029,-0.00016,-9e-05,2,16
5638,-3e-05,-4e-05,-5e-05,-0.0002,-0.00019,-0.00029,-0.00016,-9e-05,2,16
5639,-3e-05,-4e-05,-5e-05,-0.0002,-0.00019,-0.00029,-0.00016,-9e-05,2,16
5640,-3e-05,-4e-05,-5e-05,-0.0002,-0.00019,-0.00029,-0.00016,-9e-05,2,16
5641,-3e-05,-4e-05,-5e-05,-0.0002,-0.00019,-0.00029,-0.00016,-9e-05,2,16
5642,-3e-05,-4e-05,-5e-05,-0.0002,-0.00019,-0.00029,-0.00016,-9e-05,2,16
5643,-3e-05,-4e-05,-5e-05,-0.0002,-0.00019,-0.00029,-0.00016,-9e-05,2,16
5644,-3e-05,-4e-05,-5e-05,-0.0002,-0.00019,-0.00029,-0.00016,-9e-05,2,16
5645,-3e-05,-4e-05,-5e-05,-0.0002,-0.00019,-0.00029,-0.00016,-9e-05,2,16
5646,-3e-05,-4e-05,-5e-05,-0.0002,-0.00019,-0.00029,-0.00016,-9e-05,2,16
5647,-3e-05,-4e-05,-5e-05,-0.0002,-0.00019,-0.00029,-0.00016,-9e-05,2,16
5648,-3e-05,-4e-05,-5e-05,-0.0002,-0.00019,-0.00029,-0.00016,-9e-05,2,16
5649,0,0,3e-05,-2e-05,-7e-05,0.00015,5e-05,1e-05,2,16
5650,0,0,3e-05,-2e-05,-7e-05,0.00015,5e-05,1e-05,2,16
5651,-7e-05,-5e-05,-0.00011,-5e-05,-0.00012,9e-05,-3e-05,-1e-05,2,16
5652,-7e-05,-5e-05,-0.00011,-5e-05,-0.00012,9e-05,-3e-05,-1e-05,2,16
5653,-7e-05,-5e-05,-0.00011,-5e-05,-0.00012,9e-05,-3e-05,-1e-05,2,16
5654,-7e-05,-5e-05,-0.00011,-5e-05,-0.00012,9e-05,-3e-05,-1e-05,2,16
5655,-7e-05,-5e-05,-0.00011,-5e-05,-0.00012,9e-05,-3e-05,-1e-05,2,16
5656,-7e-05,-5e-05,-0.00011,-5e-05,-0.00012,9e-05,-3e-05,-1e-05,2,16
5657,-7e-05,-5e-05,-0.00011,-5e-05,-0.00012,9e-05,-3e-05,-1e-05,2,16
5658,-7e-05,-5e-05,-0.00011,-5e-05,-0.00012,9e-05,-3e-05,-1e-05,2,16
5659,-7e-05,-5e-05,-0.00011,-5e-05,-0.00012,9e-05,-3e-05,-1e-05,2,16
5660,-7e-05,-5e-05,-0.00011,-5e-05,-0.00012,9e-05,-3e-05,-1e-05,2,16
5661,-7e-05,-5e-05,-0.00011,-5e-05,-0.00012,9e-05,-3e-05,-1e-05,2,16
5662,-2e-05,-7e-05,2e-05,-3e-05,-0.00023,-0.0001,4e-05,-6e-05,2,16
5663,-2e-05,-7e-05,2e-05,-3e-05,-0.00023,-0.0001,4e-05,-6e-05,2,16
5664,-2e-05,-7e-05,2e-05,-3e-05,-0.00023,-0.0001,4e-05,-6e-05,2,16
5665,-2e-05,-7e-05,2e-05,-3e-05,-0.00023,-0.0001,4e-05,-6e-05,2,16
5666,-2e-05,-7e-05,2e-05,-3e-05,-0.00023,-0.0001,4e-05,-6e-05,2,16
5667,-2e-05,-7e-05,2e-05,-3e-05,-0.00023,-0.0001,4e-05,-6e-05,2,16
5668,-2e-05,-7e-05,2e-05,-3e-05,-0.00023,-0.0001,4e-05,-6e-05,2,16
5669,-2e-05,-7e-05,2e-05,-3e-05,-0.00023,-0.0001,4e-05,-6e-05,2,16
5670,-2e-05,-7e-05,2e-05,-3e-05,-0.00023,-0.0001,4e-05,-6e-05,2,16
5671,0,3e-05,4e-05,8e-05,-5e-05,9e-05,0,-3e-05,2,16
5672,0,3e-05,4e-05,8e-05,-5e-05,9e-05,0,-3e-05,2,16
5673,0,3e-05,4e-05,8e-05,-5e-05,9e-05,0,-3e-05,2,16
5674,0,3e-05,4e-05,8e-05,-5e-05,9e-05,0,-3e-05,2,16
5675,0,3e-05,4e-05,8e-05,-5e-05,9e-05,0,-3e-05,2,16
5676,0,3e-05,4e-05,8e-05,-5e-05,9e-05,0,-3e-05,2,16
5677,0,3e-05,4e-05,8e-05,-5e-05,9e-05,0,-3e-05,2,16
5678,0,3e-05,4e-05,8e-05,-5e-05,9e-05,0,-3e-05,2,16
5679,0,3e-05,4e-05,8e-05,-5e-05,9e-05,0,-3e-05,2,16
5680,0,3e-05,4e-05,8e-05,-5e-05,9e-05,0,-3e-05,2,16
5681,0,3e-05,4e-05,8e-05,-5e-05,9e-05,0,-3e-05,2,16
5682,0,3e-05,4e-05,8e-05,-5e-05,9e-05,0,-3e-05,2,16
5683,0,3e-05,4e-05,8e-05,-5e-05,9e-05,0,-3e-05,2,16
5684,0,3e-05,4e-05,8e-05,-5e-05,9e-05,0,-3e-05,2,16
5685,0,3e-05,4e-05,8e-05,-5e-05,9e-05,0,-3e-05,2,16
5686,0,3e-05,4e-05,8e-05,-5e-05,9e-05,0,-3e-05,2,16
5688,0,1e-05,4e-05,0.00015,-0.00013,-0.00025,-1e-05,1e-05,2,16
5689,0,1e-05,4e-05,0.00015,-0.00013,-0.00025,-1e-05,1e-05,2,16
5690,0,1e-05,4e-05,0.00015,-0.00013,-0.00025,-1e-05,1e-05,2,16
5691,0,1e-05,4e-05,0.00015,-0.00013,-0.00025,-1e-05,1e-05,2,16
5692,1e-05,-1e-05,-7e-05,1e-05,4e-05,0.00012,-3e-05,2e-05,2,16
5693,1e-05,-1e-05,-7e-05,1e-05,4e-05,0.00012,-3e-05,2e-05,2,16
5694,1e-05,-1e-05,-7e-05,1e-05,4e-05,0.00012,-3e-05,2e-05,2,16
5695,1e-05,-1e-05,-7e-05,1e-05,4e-05,0.00012,-3e-05,2e-05,2,16
5696,1e-05,-1e-05,-7e-05,1e-05,4e-05,0.00012,-3e-05,2e-05,2,16
5697,1e-05,-1e-05,-7e-05,1e-05,4e-05,0.00012,-3e-05,2e-05,2,16
5698,1e-05,-1e-05,-7e-05,1e-05,4e-05,0.00012,-3e-05,2e-05,2,16
5699,1e-05,-1e-05,-7e-05,1e-05,4e-05,0.00012,-3e-05,2e-05,2,16
5700,1e-05,-1e-05,-7e-05,1e-05,4e-05,0.00012,-3e-05,2e-05,2,16
5701,1e-05,-1e-05,-7e-05,1e-05,4e-05,0.00012,-3e-05,2e-05,2,16
5702,1e-05,-1e-05,-7e-05,1e-05,4e-05,0.00012,-3e-05,2e-05,2,16
5703,1e-05,-1e-05,-7e-05,1e-05,4e-05,0.00012,-3e-05,2e-05,2,16
5704,1e-05,-1e-05,-7e-05,1e-05,4e-05,0.00012,-3e-05,2e-05,2,16
5705,1e-05,-1e-05,-7e-05,1e-05,4e-05,0.00012,-3e-05,2e-05,2,16
5706,1e-05,-1e-05,-7e-05,1e-05,4e-05,0.00012,-3e-05,2e-05,2,16
5707,1e-05,-1e-05,-7e-05,1e-05,4e-05,0.00012,-3e-05,2e-05,2,16
5708,1e-05,-1e-05,-7e-05,1e-05,4e-05,0.00012,-3e-05,2e-05,2,16
5709,1e-05,-1e-05,0,-5e-05,-2e-05,0.00012,-3e-05,2e-05,2,16
5710,0.00013,0,-0.00024,-0.00027,0.0001,1e-05,-0.00012,9e-05,2,16
5711,0.00013,0,-0.00024,-0.00027,0.0001,1e-05,-0.00012,9e-05,2,16
5712,0.00013,0,-0.00024,-0.00027,0.0001,1e-05,-0.00012,9e-05,2,16
5713,0.00013,0,-0.00024,-0.00027,0.0001,1e-05,-0.00012,9e-05,2,16
5714,0.00013,0,-0.00024,-0.00027,0.0001,1e-05,-0.00012,9e-05,2,16
5715,0.00013,0,-0.00024,-0.00027,0.0001,1e-05,-0.00012,9e-05,2,16
5716,0.00013,0,-0.00024,-0.00027,0.0001,1e-05,-0.00012,9e-05,2,16
5717,0.00013,0,-0.00024,-0.00027,0.0001,1e-05,-0.00012,9e-05,2,16
5718,0.00013,0,-0.00024,-0.00027,0.0001,1e-05,-0.00012,9e-05,2,16
5719,0.00013,0,-0.00024,-0.00027,0.0001,1e-05,-0.00012,9e-05,2,16
5720,0.00013,0,-0.00024,-0.00027,0.0001,1e-05,-0.00012,9e-05,2,16
5721,0.00013,0,-0.00024,-0.00027,0.0001,1e-05,-0.00012,9e-05,2,16
5722,-3e-05,-5e-05,2e-05,7e-05,1e-05,3e-05,-2e-05,0,2,16
5723,-3e-05,-5e-05,2e-05,7e-05,1e-05,3e-05,-2e-05,0,2,16
5724,-3e-05,-5e-05,2e-05,7e-05,1e-05,3e-05,-2e-05,0,2,16
5725,-3e-05,-5e-05,2e-05,7e-05,1e-05,3e-05,-2e-05,0,2,16
5726,-3e-05,-5e-05,2e-05,7e-05,1e-05,3e-05,-2e-05,0,2,16
5727,-3e-05,-5e-05,2e-05,7e-05,1e-05,3e-05,-2e-05,0,2,16
5728,-3e-05,-5e-05,2e-05,7e-05,1e-05,3e-05,-2e-05,0,2,16
5729,-3e-05,-5e-05,2e-05,7e-05,1e-05,3e-05,-2e-05,0,2,16
5730,-3e-05,-5e-05,2e-05,7e-05,1e-05,3e-05,-2e-05,0,2,16
5731,-3e-05,-5e-05,2e-05,7e-05,1e-05,3e-05,-2e-05,0,2,16
5732,-3e-05,-5e-05,2e-05,7e-05,1e-05,3e-05,-2e-05,0,2,16
5733,-3e-05,-5e-05,2e-05,7e-05,1e-05,3e-05,-2e-05,0,2,16
5734,-3e-05,-5e-05,2e-05,7e-05,1e-05,3e-05,-2e-05,0,2,16
5735,-3e-05,-5e-05,2e-05,7e-05,1e-05,3e-05,-2e-05,0,2,16
5736,-3e-05,-5e-05,2e-05,7e-05,1e-05,3e-05,-2e-05,0,2,16
5738,-3e-05,-5e-05,2e-05,7e-05,1e-05,3e-05,-2e-05,0,2,16
5739,8e-05,5e-05,8e-05,2e-05,8e-05,0.00032,9e-05,-1e-05,2,16
5740,8e-05,5e-05,8e-05,2e-05,8e-05,0.00032,9e-05,-1e-05,2,16
5741,8e-05,5e-05,8e-05,2e-05,8e-05,0.00032,9e-05,-1e-05,2,16
5742,8e-05,5e-05,8e-05,2e-05,8e-05,0.00032,9e-05,-1e-05,2,16
5743,8e-05,5e-05,8e-05,2e-05,8e-05,0.00032,9e-05,-1e-05,2,16
5744,8e-05,5e-05,8e-05,2e-05,8e-05,0.00032,9e-05,-1e-05,2,16
5745,8e-05,5e-05,8e-05,2e-05,8e-05,0.00032,9e-05,-1e-05,2,16
5746,1e-05,6e-05,0.00014,0.00011,-8e-05,-0.00043,-0.00036,-4e-05,2,16
5747,1e-05,6e-05,0.00014,0.00011,-8e-05,-0.00043,-0.00036,-4e-05,2,16
5748,-6e-05,0,0.00011,8e-05,-0.00022,-0.00035,-0.00017,-5e-05,2,16
5749,-6e-05,0,0.00011,8e-05,-0.00022,-0.00035,-0.00017,-5e-05,2,16
5750,-6e-05,0,0.00011,8e-05,-0.00022,-0.00035,-0.00017,-5e-05,2,16
5751,-6e-05,0,0.00011,8e-05,-0.00022,-0.00035,-0.00017,-5e-05,2,16
5752,-6e-05,0,0.00011,8e-05,-0.00022,-0.00035,-0.00017,-5e-05,2,16
5753,-6e-05,0,0.00011,8e-05,-0.00022,-0.00035,-0.00017,-5e-05,2,16
5754,-6e-05,0,0.00011,8e-05,-0.00022,-0.00035,-0.00017,-5e-05,2,16
5755,-6e-05,0,0.00011,8e-05,-0.00022,-0.00035,-0.00017,-5e-05,2,16
5756,-6e-05,0,0.00011,8e-05,-0.00022,-0.00035,-0.00017,-5e-05,2,16
5757,-6e-05,0,0.00011,8e-05,-0.00022,-0.00035,-0.00017,-5e-05,2,16
5758,-6e-05,0,0.00011,8e-05,-0.00022,-0.00035,-0.00017,-5e-05,2,16
5759,-6e-05,0,0.00011,8e-05,-0.00022,-0.00035,-0.00017,-5e-05,2,16
5760,-6e-05,0,0.00011,8e-05,-0.00022,-0.00035,-0.00017,-5e-05,2,16
5761,-6e-05,0,0.00011,8e-05,-0.00022,-0.00035,-0.00017,-5e-05,2,16
5762,-6e-05,0,0.00011,8e-05,-0.00022,-0.00035,-0.00017,-5e-05,2,16
5763,-6e-05,0,0.00011,8e-05,-0.00022,-0.00035,-0.00017,-5e-05,2,16
5764,-6e-05,0,0.00011,8e-05,-0.00022,-0.00035,-0.00017,-5e-05,2,16
5765,-6e-05,0,0.00011,8e-05,-0.00022,-0.00035,-0.00017,-5e-05,2,16
5766,-6e-05,0,0.00011,8e-05,-0.00022,-0.00035,-0.00017,-5e-05,2,16
5767,-6e-05,0,0.00011,8e-05,-0.00022,-0.00035,-0.00017,-5e-05,2,16
5768,-6e-05,0,0.00011,8e-05,-0.00022,-0.00035,-0.00017,-5e-05,2,16
5769,-2e-05,3e-05,4e-05,2e-05,4e-05,0.00018,0.00011,-1e-05,2,16
5770,0,-4e-05,-5e-05,4e-05,-4e-05,-1e-05,-0.00014,1e-05,2,16
5771,0,-4e-05,-5e-05,4e-05,-4e-05,-1e-05,-0.00014,1e-05,2,16
5772,0,-4e-05,-5e-05,4e-05,-4e-05,-1e-05,-0.00014,1e-05,2,16
5773,0,-4e-05,-5e-05,4e-05,-4e-05,-1e-05,-0.00014,1e-05,2,16
5774,0,-4e-05,-5e-05,4e-05,-4e-05,-1e-05,-0.00014,1e-05,2,16
5775,0,-4e-05,-5e-05,4e-05,-4e-05,-1e-05,-0.00014,1e-05,2,16
5776,0,-4e-05,-5e-05,4e-05,-4e-05,-1e-05,-0.00014,1e-05,2,16
5777,0,-4e-05,-5e-05,4e-05,-4e-05,-1e-05,-0.00014,1e-05,2,16
5778,0,-4e-05,-5e-05,4e-05,-4e-05,-1e-05,-0.00014,1e-05,2,16
5779,0,-4e-05,-5e-05,4e-05,-4e-05,-1e-05,-0.00014,1e-05,2,16
5780,0,-4e-05,-5e-05,4e-05,-4e-05,-1e-05,-0.00014,1e-05,2,16
5781,0,-4e-05,-5e-05,4e-05,-4e-05,-1e-05,-0.00014,1e-05,2,16
5782,0,-4e-05,-5e-05,4e-05,-4e-05,-1e-05,-0.00014,1e-05,2,16
5783,0,-3e-05,-0.00013,-0.00029,2e-05,8e-05,7e-05,4e-05,2,16
5784,0,-3e-05,-0.00013,-0.00029,2e-05,8e-05,7e-05,4e-05,2,16
5785,0,-3e-05,-0.00013,-0.00029,2e-05,8e-05,7e-05,4e-05,2,16
5786,0,-3e-05,-0.00013,-0.00029,2e-05,8e-05,7e-05,4e-05,2,16
5788,0,-3e-05,-0.00013,-0.00029,2e-05,8e-05,7e-05,4e-05,2,16
5789,0,-3e-05,-0.00013,-0.00029,2e-05,8e-05,7e-05,4e-05,2,16
5790,0,-3e-05,-0.00013,-0.00029,2e-05,8e-05,7e-05,4e-05,2,16
5791,-0.00011,-5e-05,-0.00018,-7e-05,-5e-05,-1e-05,0.00011,-4e-05,2,16
5792,-0.00011,-5e-05,-0.00018,-7e-05,-5e-05,-1e-05,0.00011,-4e-05,2,16
5793,-0.00011,-5e-05,-0.00018,-7e-05,-5e-05,-1e-05,0.00011,-4e-05,2,16
5794,-0.00011,-5e-05,-0.00018,-7e-05,-5e-05,-1e-05,0.00011,-4e-05,2,16
5795,-0.00011,-5e-05,-0.00018,-7e-05,-5e-05,-1e-05,0.00011,-4e-05,2,16
5796,-0.00011,-5e-05,-0.00018,-7e-05,-5e-05,-1e-05,0.00011,-4e-05,2,16
5797,-0.00011,-5e-05,-0.00018,-7e-05,-5e-05,-1e-05,0.00011,-4e-05,2,16
5798,-0.00011,-5e-05,-0.00018,-7e-05,-5e-05,-1e-05,0.00011,-4e-05,2,16
5799,-0.00011,-5e-05,-0.00018,-7e-05,-5e-05,-1e-05,0.00011,-4e-05,2,16
5800,-0.00011,-5e-05,-0.00018,-7e-05,-5e-05,-1e-05,0.00011,-4e-05,2,16
5801,-0.00011,-5e-05,-0.00018,-7e-05,-5e-05,-1e-05,0.00011,-4e-05,2,16
5802,-0.00011,-5e-05,-0.00018,-7e-05,-5e-05,-1e-05,0.00011,-4e-05,2,16
5803,-0.00011,-5e-05,-0.00018,-7e-05,-5e-05,-1e-05,0.00011,-4e-05,2,16
5804,-0.00011,-5e-05,-0.00018,-7e-05,-5e-05,-1e-05,0.00011,-4e-05,2,16
5805,-0.00011,-5e-05,-0.00018,-7e-05,-5e-05,-1e-05,0.00011,-4e-05,2,16
5806,5e-05,-4e-05,-7e-05,-2e-05,-0.00013,-0.00051,-3e-05,-9e-05,2,16
5807,5e-05,-4e-05,-7e-05,-2e-05,-0.00013,-0.00051,-3e-05,-9e-05,2,16
5808,-3e-05,0,1e-05,-0.0001,7e-05,0.00015,-0.00014,-1e-05,2,16
5809,-3e-05,0,1e-05,-0.0001,7e-05,0.00015,-0.00014,-1e-05,2,16
5810,-3e-05,0,1e-05,-0.0001,7e-05,0.00015,-0.00014,-1e-05,2,16
5811,-3e-05,0,1e-05,-0.0001,7e-05,0.00015,-0.00014,-1e-05,2,16
5812,-3e-05,0,1e-05,-0.0001,7e-05,0.00015,-0.00014,-1e-05,2,16
5813,-3e-05,0,1e-05,-0.0001,7e-05,0.00015,-0.00014,-1e-05,2,16
5814,-3e-05,0,1e-05,-0.0001,7e-05,0.00015,-0.00014,-1e-05,2,16
5815,-3e-05,0,1e-05,-0.0001,7e-05,0.00015,-0.00014,-1e-05,2,16
5816,-3e-05,0,1e-05,-0.0001,7e-05,0.00015,-0.00014,-1e-05,2,16
5817,-3e-05,0,1e-05,-0.0001,7e-05,0.00015,-0.00014,-1e-05,2,16
5818,-3e-05,0,1e-05,-0.0001,7e-05,0.00015,-0.00014,-1e-05,2,16
5819,-3e-05,0,1e-05,-0.0001,7e-05,0.00015,-0.00014,-1e-05,2,16
5820,-3e-05,0,1e-05,-0.0001,7e-05,0.00015,-0.00014,-1e-05,2,16
5821,-3e-05,0,1e-05,-0.0001,7e-05,0.00015,-0.00014,-1e-05,2,16
5822,-3e-05,0,1e-05,-0.0001,7e-05,0.00015,-0.00014,-1e-05,2,16
5823,-3e-05,0,1e-05,-0.0001,7e-05,0.00015,-0.00014,-1e-05,2,16
5824,-3e-05,0,1e-05,-0.0001,7e-05,0.00015,-0.00014,-1e-05,2,16
5825,-3e-05,0,1e-05,-0.0001,7e-05,0.00015,-0.00014,-1e-05,2,16
5826,-3e-05,0,1e-05,-0.0001,7e-05,0.00015,-0.00014,-1e-05,2,16
5827,-3e-05,0,1e-05,-0.0001,7e-05,0.00015,-0.00014,-1e-05,2,16
5828,-3e-05,0,1e-05,-0.0001,7e-05,0.00015,-0.00014,-1e-05,2,16
5829,-5e-05,-3e-05,-8e-05,-0.00019,-8e-05,-9e-05,-5e-05,-4e-05,2,16
5830,-5e-05,-3e-05,-8e-05,-0.00019,-8e-05,-9e-05,-5e-05,-4e-05,2,16
5831,2e-05,-4e-05,-7e-05,9e-05,0.00012,0.00016,-8e-05,-2e-05,2,16
5832,2e-05,-4e-05,-7e-05,9e-05,0.00012,0.00016,-8e-05,-2e-05,2,16
5833,2e-05,-4e-05,-7e-05,9e-05,0.00012,0.00016,-8e-05,-2e-05,2,16
5834,2e-05,-4e-05,-7e-05,9e-05,0.00012,0.00016,-8e-05,-2e-05,2,16
5835,2e-05,-4e-05,-7e-05,9e-05,0.00012,0.00016,-8e-05,-2e-05,2,16
5836,2e-05,-4e-05,-7e-05,9e-05,0.00012,0.00016,-8e-05,-2e-05,2,16
5838,2e-05,-4e-05,-7e-05,9e-05,0.00012,0.00016,-8e-05,-2e-05,2,16
5839,2e-05,-4e-05,-7e-05,9e-05,0.00012,0.00016,-8e-05,-2e-05,2,16
5840,2e-05,-4e-05,-7e-05,9e-05,0.00012,0.00016,-8e-05,-2e-05,2,16
5841,2e-05,-4e-05,-7e-05,9e-05,0.00012,0.00016,-8e-05,-2e-05,2,16
5842,3e-05,0,1e-05,-1e-05,0.00015,0.00014,0.0001,6e-05,2,16
5843,3e-05,0,1e-05,-1e-05,0.00015,0.00014,0.0001,6e-05,2,16
5844,3e-05,0,1e-05,-1e-05,0.00015,0.00014,0.0001,6e-05,2,16
5845,3e-05,0,1e-05,-1e-05,0.00015,0.00014,0.0001,6e-05,2,16
5846,3e-05,0,1e-05,-1e-05,0.00015,0.00014,0.0001,6e-05,2,16
5847,3e-05,0,1e-05,-1e-05,0.00015,0.00014,0.0001,6e-05,2,16
5848,3e-05,0,1e-05,-1e-05,0.00015,0.00014,0.0001,6e-05,2,16
5849,3e-05,0,1e-05,-1e-05,0.00015,0.00014,0.0001,6e-05,2,16
5850,3e-05,0,1e-05,-1e-05,0.00015,0.00014,0.0001,6e-05,2,16
5851,-1e-05,-2e-05,-2e-05,-9e-05,-3e-05,-0.00012,-0.00015,0,2,16
5852,-1e-05,-2e-05,-2e-05,-9e-05,-3e-05,-0.00012,-0.00015,0,2,16
5853,-1e-05,-2e-05,-2e-05,-9e-05,-3e-05,-0.00012,-0.00015,0,2,16
5854,-1e-05,-2e-05,-2e-05,-9e-05,-3e-05,-0.00012,-0.00015,0,2,16
5855,-1e-05,-2e-05,-2e-05,-9e-05,-3e-05,-0.00012,-0.00015,0,2,16
5856,-1e-05,-2e-05,-2e-05,-9e-05,-3e-05,-0.00012,-0.00015,0,2,16
5857,-1e-05,-2e-05,-2e-05,-9e-05,-3e-05,-0.00012,-0.00015,0,2,16
5858,-1e-05,-2e-05,-2e-05,-9e-05,-3e-05,-0.00012,-0.00015,0,2,16
5859,-1e-05,-2e-05,-2e-05,-9e-05,-3e-05,-0.00012,-0.00015,0,2,16
5860,-1e-05,-2e-05,-2e-05,-9e-05,-3e-05,-0.00012,-0.00015,0,2,16
5861,-1e-05,-2e-05,-2e-05,-9e-05,-3e-05,-0.00012,-0.00015,0,2,16
5862,-1e-05,-2e-05,-2e-05,-9e-05,-3e-05,-0.00012,-0.00015,0,2,16
5863,-1e-05,-2e-05,-2e-05,-9e-05,-3e-05,-0.00012,-0.00015,0,2,16
5864,-1e-05,-2e-05,-2e-05,-9e-05,-3e-05,-0.00012,-0.00015,0,2,16
5865,-1e-05,-2e-05,-2e-05,-9e-05,-3e-05,-0.00012,-0.00015,0,2,16
5866,-1e-05,-2e-05,-2e-05,-9e-05,-3e-05,-0.00012,-0.00015,0,2,16
5867,-1e-05,-2e-05,-2e-05,-9e-05,-3e-05,-0.00012,-0.00015,0,2,16
5868,-1e-05,-2e-05,-2e-05,-9e-05,-3e-05,-0.00012,-0.00015,0,2,16
5869,-1e-05,-2e-05,-2e-05,-9e-05,-3e-05,-0.00012,-0.00015,0,2,16
5870,-1e-05,-2e-05,-2e-05,-9e-05,-3e-05,-0.00012,-0.00015,0,2,16
5871,-1e-05,-2e-05,-2e-05,-9e-05,-3e-05,-0.00012,-0.00015,0,2,16
5872,-1e-05,-2e-05,-2e-05,-9e-05,-3e-05,-0.00012,-0.00015,0,2,16
5873,-1e-05,-2e-05,-2e-05,-9e-05,-3e-05,-0.00012,-0.00015,0,2,16
5874,-6e-05,-5e-05,-1e-05,5e-05,5e-05,0.00013,-2e-05,-4e-05,2,16
5875,-4e-05,-3e-05,6e-05,4e-05,7e-05,0.00013,0,-3e-05,2,16
5876,-4e-05,-3e-05,6e-05,4e-05,7e-05,0.00013,0,-3e-05,2,16
5877,-4e-05,-3e-05,6e-05,4e-05,7e-05,0.00013,0,-3e-05,2,16
5878,-4e-05,-3e-05,6e-05,4e-05,7e-05,0.00013,0,-3e-05,2,16
5879,-4e-05,-3e-05,6e-05,4e-05,7e-05,0.00013,0,-3e-05,2,16
5880,-4e-05,-3e-05,6e-05,4e-05,7e-05,0.00013,0,-3e-05,2,16
5881,-4e-05,-3e-05,6e-05,4e-05,7e-05,0.00013,0,-3e-05,2,16
5882,-4e-05,-3e-05,6e-05,4e-05,7e-05,0.00013,0,-3e-05,2,16
5883,-4e-05,-3e-05,6e-05,4e-05,7e-05,0.00013,0,-3e-05,2,16
5884,-4e-05,-3e-05,6e-05,4e-05,7e-05,0.00013,0,-3e-05,2,16
5885,-4e-05,-3e-05,6e-05,4e-05,7e-05,0.00013,0,-3e-05,2,16
5886,-4e-05,-3e-05,6e-05,4e-05,7e-05,0.00013,0,-3e-05,2,16
5888,-4e-05,-3e-05,6e-05,4e-05,7e-05,0.00013,0,-3e-05,2,16
5889,-6e-05,5e-05,3e-05,2e-05,0,-0.00027,-0.0001,-6e-05,2,16
5890,4e-05,3e-05,-1e-05,-0.00019,-6e-05,0,0.00024,-2e-05,2,16
5891,4e-05,3e-05,-1e-05,-0.00019,-6e-05,0,0.00024,-2e-05,2,16
5892,4e-05,3e-05,-1e-05,-0.00019,-6e-05,0,0.00024,-2e-05,2,16
5893,4e-05,3e-05,-1e-05,-0.00019,-6e-05,0,0.00024,-2e-05,2,16
5894,4e-05,3e-05,-1e-05,-0.00019,-6e-05,0,0.00024,-2e-05,2,16
5895,4e-05,3e-05,-1e-05,-0.00019,-6e-05,0,0.00024,-2e-05,2,16
5896,4e-05,3e-05,-1e-05,-0.00019,-6e-05,0,0.00024,-2e-05,2,16
5897,4e-05,3e-05,-1e-05,-0.00019,-6e-05,0,0.00024,-2e-05,2,16
5898,4e-05,3e-05,-1e-05,-0.00019,-6e-05,0,0.00024,-2e-05,2,16
5899,4e-05,3e-05,-1e-05,-0.00019,-6e-05,0,0.00024,-2e-05,2,16
5900,4e-05,3e-05,-1e-05,-0.00019,-6e-05,0,0.00024,-2e-05,2,16
5901,4e-05,3e-05,-1e-05,-0.00019,-6e-05,0,0.00024,-2e-05,2,16
5902,4e-05,3e-05,-1e-05,-0.00019,-6e-05,0,0.00024,-2e-05,2,16
5903,4e-05,3e-05,-1e-05,-0.00019,-6e-05,0,0.00024,-2e-05,2,16
5904,4e-05,3e-05,-1e-05,-0.00019,-6e-05,0,0.00024,-2e-05,2,16
5905,4e-05,3e-05,-1e-05,-0.00019,-6e-05,0,0.00024,-2e-05,2,16
5906,4e-05,3e-05,-1e-05,-0.00019,-6e-05,0,0.00024,-2e-05,2,16
5907,4e-05,3e-05,-1e-05,-0.00019,-6e-05,0,0.00024,-2e-05,2,16
5908,4e-05,3e-05,-1e-05,-0.00019,-6e-05,0,0.00024,-2e-05,2,16
5909,4e-05,3e-05,-1e-05,-0.00019,-6e-05,0,0.00024,-2e-05,2,16
5910,4e-05,3e-05,-1e-05,-0.00019,-6e-05,0,0.00024,-2e-05,2,16
5911,4e-05,3e-05,-1e-05,-0.00019,-6e-05,0,0.00024,-2e-05,2,16
5912,4e-05,3e-05,-1e-05,-0.00019,-6e-05,0,0.00024,-2e-05,2,16
5913,4e-05,3e-05,-1e-05,-0.00019,-6e-05,0,0.00024,-2e-05,2,16
5914,4e-05,3e-05,-1e-05,-0.00019,-6e-05,0,0.00024,-2e-05,2,16
5915,4e-05,3e-05,-1e-05,-0.00019,-6e-05,0,0.00024,-2e-05,2,16
5916,4e-05,3e-05,-1e-05,-0.00019,-6e-05,0,0.00024,-2e-05,2,16
5917,4e-05,3e-05,-1e-05,-0.00019,-6e-05,0,0.00024,-2e-05,2,16
5918,4e-05,3e-05,-1e-05,-0.00019,-6e-05,0,0.00024,-2e-05,2,16
5919,0,3e-05,7e-05,0.00031,0.00036,0.00052,0.00037,4e-05,2,16
5920,0,3e-05,7e-05,0.00031,0.00036,0.00052,0.00037,4e-05,2,16
5921,0,3e-05,7e-05,0.00031,0.00036,0.00052,0.00037,4e-05,2,16
5922,0,3e-05,7e-05,0.00031,0.00036,0.00052,0.00037,4e-05,2,16
5923,0,3e-05,7e-05,0.00031,0.00036,0.00052,0.00037,4e-05,2,16
5924,0,3e-05,7e-05,0.00031,0.00036,0.00052,0.00037,4e-05,2,16
5925,0,3e-05,7e-05,0.00031,0.00036,0.00052,0.00037,4e-05,2,16
5926,0,3e-05,7e-05,0.00031,0.00036,0.00052,0.00037,4e-05,2,16
5927,0,0,2e-05,0.00017,-4e-05,-0.00018,0.00012,1e-05,2,16
5928,0,0,-2e-05,-0.0001,-3e-05,-0.00021,-0.00029,-7e-05,2,16
5929,5e-05,3e-05,0.00012,-5e-05,-0.0001,0.00019,0.00028,2e-05,2,16
5931,5e-05,3e-05,0.00012,-5e-05,-0.0001,0.00019,0.00028,2e-05,2,16
5932,5e-05,3e-05,0.00012,-5e-05,-0.0001,0.00019,0.00028,2e-05,2,16
5933,5e-05,3e-05,0.00012,-5e-05,-0.0001,0.00019,0.00028,2e-05,2,16
5934,5e-05,3e-05,0.00012,-5e-05,-0.0001,0.00019,0.00028,2e-05,2,16
5935,5e-05,3e-05,0.00012,-5e-05,-0.0001,0.00019,0.00028,2e-05,2,16
5936,5e-05,3e-05,0.00012,-5e-05,-0.0001,0.00019,0.00028,2e-05,2,16
5938,5e-05,3e-05,0.00012,-5e-05,-0.0001,0.00019,0.00028,2e-05,2,16
5939,5e-05,3e-05,0.00012,-5e-05,-0.0001,0.00019,0.00028,2e-05,2,16
5940,5e-05,3e-05,0.00012,-5e-05,-0.0001,0.00019,0.00028,2e-05,2,16
5941,5e-05,3e-05,0.00012,-5e-05,-0.0001,0.00019,0.00028,2e-05,2,16
5942,5e-05,3e-05,0.00012,-5e-05,-0.0001,0.00019,0.00028,2e-05,2,16
5943,5e-05,3e-05,0.00012,-5e-05,-0.0001,0.00019,0.00028,2e-05,2,16
5944,5e-05,3e-05,0.00012,-5e-05,-0.0001,0.00019,0.00028,2e-05,2,16
5945,5e-05,3e-05,0.00012,-5e-05,-0.0001,0.00019,0.00028,2e-05,2,16
5946,5e-05,3e-05,0.00012,-5e-05,-0.0001,0.00019,0.00028,2e-05,2,16
5947,5e-05,3e-05,0.00012,-5e-05,-0.0001,0.00019,0.00028,2e-05,2,16
5948,5e-05,3e-05,0.00012,-5e-05,-0.0001,0.00019,0.00028,2e-05,2,16
5949,-7e-05,-6e-05,-2e-05,-2e-05,-0.00014,-0.00011,-0.00016,-1e-05,2,16
5950,-1e-05,4e-05,0.00011,7e-05,8e-05,0.00026,0.00019,-3e-05,2,16
5951,-1e-05,1e-05,-3e-05,0.00013,-5e-05,-0.0002,-0.00011,-5e-05,2,16
5952,-1e-05,1e-05,-3e-05,0.00013,-5e-05,-0.0002,-0.00011,-5e-05,2,16
5953,-1e-05,1e-05,-3e-05,0.00013,-5e-05,-0.0002,-0.00011,-5e-05,2,16
5954,-1e-05,1e-05,-3e-05,0.00013,-5e-05,-0.0002,-0.00011,-5e-05,2,16
5955,-1e-05,1e-05,-3e-05,0.00013,-5e-05,-0.0002,-0.00011,-5e-05,2,16
5956,-1e-05,1e-05,-3e-05,0.00013,-5e-05,-0.0002,-0.00011,-5e-05,2,16
5957,-1e-05,1e-05,-3e-05,0.00013,-5e-05,-0.0002,-0.00011,-5e-05,2,16
5958,-1e-05,1e-05,-3e-05,0.00013,-5e-05,-0.0002,-0.00011,-5e-05,2,16
5959,-1e-05,1e-05,-3e-05,0.00013,-5e-05,-0.0002,-0.00011,-5e-05,2,16
5960,-1e-05,1e-05,-3e-05,0.00013,-5e-05,-0.0002,-0.00011,-5e-05,2,16
5961,-1e-05,1e-05,-3e-05,0.00013,-5e-05,-0.0002,-0.00011,-5e-05,2,16
5962,-1e-05,1e-05,-3e-05,0.00013,-5e-05,-0.0002,-0.00011,-5e-05,2,16
5963,-1e-05,1e-05,-3e-05,0.00013,-5e-05,-0.0002,-0.00011,-5e-05,2,16
5964,-1e-05,1e-05,-3e-05,0.00013,-5e-05,-0.0002,-0.00011,-5e-05,2,16
5965,-1e-05,1e-05,-3e-05,0.00013,-5e-05,-0.0002,-0.00011,-5e-05,2,16
5966,-1e-05,1e-05,-3e-05,0.00013,-5e-05,-0.0002,-0.00011,-5e-05,2,16
5967,-1e-05,1e-05,-3e-05,0.00013,-5e-05,-0.0002,-0.00011,-5e-05,2,16
5968,-1e-05,1e-05,-3e-05,0.00013,-5e-05,-0.0002,-0.00011,-5e-05,2,16
5969,-1e-05,1e-05,-3e-05,0.00013,-5e-05,-0.0002,-0.00011,-5e-05,2,16
5970,-1e-05,1e-05,-3e-05,0.00013,-5e-05,-0.0002,-0.00011,-5e-05,2,16
5971,0.00011,2e-05,-3e-05,-6e-05,-6e-05,5e-05,-1e-05,4e-05,2,16
5972,0.00011,2e-05,-3e-05,-6e-05,-6e-05,5e-05,-1e-05,4e-05,2,16
5973,4e-05,6e-05,0.00016,4e-05,9e-05,0.00067,8e-05,3e-05,2,16
5974,4e-05,6e-05,0.00016,4e-05,9e-05,0.00067,8e-05,3e-05,2,16
5975,4e-05,6e-05,0.00016,4e-05,9e-05,0.00067,8e-05,3e-05,2,16
5976,4e-05,6e-05,0.00016,4e-05,9e-05,0.00067,8e-05,3e-05,2,16
5977,4e-05,6e-05,0.00016,4e-05,9e-05,0.00067,8e-05,3e-05,2,16
5978,4e-05,6e-05,0.00016,4e-05,9e-05,0.00067,8e-05,3e-05,2,16
5979,4e-05,6e-05,0.00016,4e-05,9e-05,0.00067,8e-05,3e-05,2,16
5980,4e-05,6e-05,0.00016,4e-05,9e-05,0.00067,8e-05,3e-05,2,16
5981,4e-05,6e-05,0.00016,4e-05,9e-05,0.00067,8e-05,3e-05,2,16
5982,4e-05,6e-05,0.00016,4e-05,9e-05,0.00067,8e-05,3e-05,2,16
5983,4e-05,6e-05,0.00016,4e-05,9e-05,0.00067,8e-05,3e-05,2,16
5984,4e-05,6e-05,0.00016,4e-05,9e-05,0.00067,8e-05,3e-05,2,16
5985,4e-05,6e-05,0.00016,4e-05,9e-05,0.00067,8e-05,3e-05,2,16
5986,7e-05,5e-05,-5e-05,3e-05,5e-05,-9e-05,-0.00014,-5e-05,2,16
5988,7e-05,5e-05,-5e-05,3e-05,5e-05,-9e-05,-0.00014,-5e-05,2,16
5989,7e-05,5e-05,-5e-05,3e-05,5e-05,-9e-05,-0.00014,-5e-05,2,16
5990,7e-05,5e-05,-5e-05,3e-05,5e-05,-9e-05,-0.00014,-5e-05,2,16
5991,7e-05,5e-05,-5e-05,3e-05,5e-05,-9e-05,-0.00014,-5e-05,2,16
5992,-2e-05,6e-05,0.00013,-4e-05,-6e-05,-0.00047,-4e-05,-1e-05,2,16
5993,-2e-05,6e-05,0.00013,-4e-05,-6e-05,-0.00047,-4e-05,-1e-05,2,16
5994,-2e-05,6e-05,0.00013,-4e-05,-6e-05,-0.00047,-4e-05,-1e-05,2,16
5995,-2e-05,6e-05,0.00013,-4e-05,-6e-05,-0.00047,-4e-05,-1e-05,2,16
5996,-2e-05,6e-05,0.00013,-4e-05,-6e-05,-0.00047,-4e-05,-1e-05,2,16
5997,-2e-05,6e-05,0.00013,-4e-05,-6e-05,-0.00047,-4e-05,-1e-05,2,16
5998,-2e-05,6e-05,0.00013,-4e-05,-6e-05,-0.00047,-4e-05,-1e-05,2,16
5999,-2e-05,6e-05,0.00013,-4e-05,-6e-05,-0.00047,-4e-05,-1e-05,2,16
6000,-2e-05,6e-05,0.00013,-4e-05,-6e-05,-0.00047,-4e-05,-1e-05,2,16
6001,-2e-05,6e-05,0.00013,-4e-05,-6e-05,-0.00047,-4e-05,-1e-05,2,16
6002,-2e-05,6e-05,0.00013,-4e-05,-6e-05,-0.00047,-4e-05,-1e-05,2,16
6003,-2e-05,6e-05,0.00013,-4e-05,-6e-05,-0.00047,-4e-05,-1e-05,2,16
6004,-2e-05,6e-05,0.00013,-4e-05,-6e-05,-0.00047,-4e-05,-1e-05,2,16
6005,-2e-05,6e-05,0.00013,-4e-05,-6e-05,-0.00047,-4e-05,-1e-05,2,16
6006,-2e-05,6e-05,0.00013,-4e-05,-6e-05,-0.00047,-4e-05,-1e-05,2,16
6007,-2e-05,6e-05,0.00013,-4e-05,-6e-05,-0.00047,-4e-05,-1e-05,2,16
6008,-2e-05,6e-05,0.00013,-4e-05,-6e-05,-0.00047,-4e-05,-1e-05,2,16
6009,0.0001,2e-05,-4e-05,-0.00023,0.00015,0.00057,0.00012,0,2,16
6010,0.0001,2e-05,-4e-05,-0.00023,0.00015,0.00057,0.00012,0,2,16
6011,0.0001,2e-05,-4e-05,-0.00023,0.00015,0.00057,0.00012,0,2,16
6012,0.0001,2e-05,-4e-05,-0.00023,0.00015,0.00057,0.00012,0,2,16
6013,0.0001,2e-05,-4e-05,-0.00023,0.00015,0.00057,0.00012,0,2,16
6014,0.0001,2e-05,-4e-05,-0.00023,0.00015,0.00057,0.00012,0,2,16
6015,0.0001,2e-05,-4e-05,-0.00023,0.00015,0.00057,0.00012,0,2,16
6016,1e-05,0,4e-05,-0.00014,-0.0001,-7e-05,-0.00023,-1e-05,2,16
6017,1e-05,0,4e-05,-0.00014,-0.0001,-7e-05,-0.00023,-1e-05,2,16
6018,1e-05,0,4e-05,-0.00014,-0.0001,-7e-05,-0.00023,-1e-05,2,16
6019,1e-05,0,4e-05,-0.00014,-0.0001,-7e-05,-0.00023,-1e-05,2,16
6020,1e-05,0,4e-05,-0.00014,-0.0001,-7e-05,-0.00023,-1e-05,2,16
6021,1e-05,0,4e-05,-0.00014,-0.0001,-7e-05,-0.00023,-1e-05,2,16
6022,1e-05,0,4e-05,-0.00014,-0.0001,-7e-05,-0.00023,-1e-05,2,16
6023,1e-05,0,4e-05,-0.00014,-0.0001,-7e-05,-0.00023,-1e-05,2,16
6024,1e-05,0,4e-05,-0.00014,-0.0001,-7e-05,-0.00023,-1e-05,2,16
6025,1e-05,0,4e-05,-0.00014,-0.0001,-7e-05,-0.00023,-1e-05,2,16
6026,1e-05,0,4e-05,-0.00014,-0.0001,-7e-05,-0.00023,-1e-05,2,16
6027,1e-05,0,4e-05,-0.00014,-0.0001,-7e-05,-0.00023,-1e-05,2,16
6028,1e-05,0,4e-05,-0.00014,-0.0001,-7e-05,-0.00023,-1e-05,2,16
6029,1e-05,0,4e-05,-0.00014,-0.0001,-7e-05,-0.00023,-1e-05,2,16
6030,1e-05,0,4e-05,-0.00014,-0.0001,-7e-05,-0.00023,-1e-05,2,16
6031,1e-05,0,4e-05,-0.00014,-0.0001,-7e-05,-0.00023,-1e-05,2,16
6032,-6e-05,-2e-05,4e-05,6e-05,-0.00029,-0.00047,-0.00018,-3e-05,2,16
6033,-6e-05,-2e-05,4e-05,6e-05,-0.00029,-0.00047,-0.00018,-3e-05,2,16
6034,-6e-05,-2e-05,4e-05,6e-05,-0.00029,-0.00047,-0.00018,-3e-05,2,16
6035,-6e-05,-2e-05,4e-05,6e-05,-0.00029,-0.00047,-0.00018,-3e-05,2,16
6036,-6e-05,-2e-05,4e-05,6e-05,-0.00029,-0.00047,-0.00018,-3e-05,2,16
6038,-6e-05,-2e-05,4e-05,6e-05,-0.00029,-0.00047,-0.00018,-3e-05,2,16
6039,-2e-05,-8e-05,-0.0002,0.00025,0.0001,0.0003,4e-05,-4e-05,2,16
6040,-2e-05,-8e-05,-0.0002,0.00025,0.0001,0.0003,4e-05,-4e-05,2,16
6041,-2e-05,-8e-05,-0.0002,0.00025,0.0001,0.0003,4e-05,-4e-05,2,16
6042,-2e-05,-8e-05,-0.0002,0.00025,0.0001,0.0003,4e-05,-4e-05,2,16
6043,-2e-05,-8e-05,-0.0002,0.00025,0.0001,0.0003,4e-05,-4e-05,2,16
6044,-2e-05,-8e-05,-0.0002,0.00025,0.0001,0.0003,4e-05,-4e-05,2,16
6045,-2e-05,-8e-05,-0.0002,0.00025,0.0001,0.0003,4e-05,-4e-05,2,16
6046,-2e-05,-3e-05,0,-3e-05,-4e-05,-0.00023,6e-05,0,2,16
6047,-2e-05,-3e-05,0,-3e-05,-4e-05,-0.00023,6e-05,0,2,16
6048,-2e-05,-3e-05,0,-3e-05,-4e-05,-0.00023,6e-05,0,2,16
6049,-2e-05,-3e-05,0,-3e-05,-4e-05,-0.00023,6e-05,0,2,16
6050,-2e-05,-3e-05,0,-3e-05,-4e-05,-0.00023,6e-05,0,2,16
6051,-2e-05,-3e-05,0,-3e-05,-4e-05,-0.00023,6e-05,0,2,16
6052,-2e-05,-3e-05,0,-3e-05,-4e-05,-0.00023,6e-05,0,2,16
6053,-2e-05,-3e-05,0,-3e-05,-4e-05,-0.00023,6e-05,0,2,16
6054,-2e-05,-3e-05,0,-3e-05,-4e-05,-0.00023,6e-05,0,2,16
6055,-2e-05,-3e-05,0,-3e-05,-4e-05,-0.00023,6e-05,0,2,16
6056,-2e-05,-3e-05,0,-3e-05,-4e-05,-0.00023,6e-05,0,2,16
6057,-2e-05,-3e-05,0,-3e-05,-4e-05,-0.00023,6e-05,0,2,16
6058,-2e-05,-3e-05,0,-3e-05,-4e-05,-0.00023,6e-05,0,2,16
6059,-5e-05,-7e-05,-4e-05,-0.0002,-7e-05,0.00016,0.00027,1e-05,2,16
6060,-5e-05,-7e-05,-4e-05,-0.0002,-7e-05,0.00016,0.00027,1e-05,2,16
6061,-5e-05,-7e-05,-4e-05,-0.0002,-7e-05,0.00016,0.00027,1e-05,2,16
6062,-5e-05,-7e-05,-4e-05,-0.0002,-7e-05,0.00016,0.00027,1e-05,2,16
6063,-5e-05,-7e-05,-4e-05,-0.0002,-7e-05,0.00016,0.00027,1e-05,2,16
6064,-5e-05,-7e-05,-4e-05,-0.0002,-7e-05,0.00016,0.00027,1e-05,2,16
6065,-5e-05,-7e-05,-4e-05,-0.0002,-7e-05,0.00016,0.00027,1e-05,2,16
6066,-5e-05,-7e-05,-4e-05,-0.0002,-7e-05,0.00016,0.00027,1e-05,2,16
6067,-5e-05,-7e-05,-4e-05,-0.0002,-7e-05,0.00016,0.00027,1e-05,2,16
6068,-5e-05,-7e-05,-4e-05,-0.0002,-7e-05,0.00016,0.00027,1e-05,2,16
34406,-7e-05,-0.0001,-0.00025,0.00013,3e-05,-0.00023,0.0002,-2e-05,2,16
34407,-7e-05,-0.0001,-0.00025,0.00013,3e-05,-0.00023,0.0002,-2e-05,2,16
34408,-7e-05,-0.0001,-0.00025,0.00013,3e-05,-0.00023,0.0002,-2e-05,2,16
34409,-7e-05,-0.0001,-0.00025,0.00013,3e-05,-0.00023,0.0002,-2e-05,2,16
34410,-7e-05,-0.0001,-0.00025,0.00013,3e-05,-0.00023,0.0002,-2e-05,2,16
34411,-7e-05,-0.0001,-0.00025,0.00013,3e-05,-0.00023,0.0002,-2e-05,2,16
34412,-7e-05,-0.0001,-0.00025,0.00013,3e-05,-0.00023,0.0002,-2e-05,2,16
34413,-7e-05,-0.0001,-0.00025,0.00013,3e-05,-0.00023,0.0002,-2e-05,2,16
34414,-7e-05,-0.0001,-0.00025,0.00013,3e-05,-0.00023,0.0002,-2e-05,2,16
34415,-7e-05,-0.0001,-0.00025,0.00013,3e-05,-0.00023,0.0002,-2e-05,2,16
34416,-7e-05,-0.0001,-0.00025,0.00013,3e-05,-0.00023,0.0002,-2e-05,2,16
34417,-7e-05,-0.0001,-0.00025,0.00013,3e-05,-0.00023,0.0002,-2e-05,2,16
34418,-7e-05,-0.0001,-0.00025,0.00013,3e-05,-0.00023,0.0002,-2e-05,2,16
34419,-7e-05,-0.0001,-0.00025,0.00013,3e-05,-0.00023,0.0002,-2e-05,2,16
34420,6e-05,8e-05,3e-05,1e-05,6e-05,-0.0002,0.0003,5e-05,2,16
34421,6e-05,8e-05,3e-05,1e-05,6e-05,-0.0002,0.0003,5e-05,2,16
34422,6e-05,8e-05,3e-05,1e-05,6e-05,-0.0002,0.0003,5e-05,2,16
34423,6e-05,8e-05,3e-05,1e-05,6e-05,-0.0002,0.0003,5e-05,2,16
34424,6e-05,8e-05,3e-05,1e-05,6e-05,-0.0002,0.0003,5e-05,2,16
34425,6e-05,8e-05,3e-05,1e-05,6e-05,-0.0002,0.0003,5e-05,2,16
34426,6e-05,8e-05,3e-05,1e-05,6e-05,-0.0002,0.0003,5e-05,2,16
34427,6e-05,8e-05,3e-05,1e-05,6e-05,-0.0002,0.0003,5e-05,2,16
34428,6e-05,8e-05,3e-05,1e-05,6e-05,-0.0002,0.0003,5e-05,2,16
34429,6e-05,8e-05,3e-05,1e-05,6e-05,-0.0002,0.0003,5e-05,2,16
34430,6e-05,8e-05,3e-05,1e-05,6e-05,-0.0002,0.0003,5e-05,2,16
34431,6e-05,8e-05,3e-05,1e-05,6e-05,-0.0002,0.0003,5e-05,2,16
34432,6e-05,8e-05,3e-05,1e-05,6e-05,-0.0002,0.0003,5e-05,2,16
34433,6e-05,8e-05,3e-05,1e-05,6e-05,-0.0002,0.0003,5e-05,2,16
34434,6e-05,8e-05,3e-05,1e-05,6e-05,-0.0002,0.0003,5e-05,2,16
34435,6e-05,8e-05,3e-05,1e-05,6e-05,-0.0002,0.0003,5e-05,2,16
34436,0,4e-05,0,0.00033,0.00012,0.0009,0.00032,1e-05,2,16
34439,-2e-05,-1e-05,0,4e-05,8e-05,0.00024,-0.00012,0,2,16
34440,-2e-05,-1e-05,0,4e-05,8e-05,0.00024,-0.00012,0,2,16
34441,-2e-05,-1e-05,0,4e-05,8e-05,0.00024,-0.00012,0,2,16
34442,-2e-05,-1e-05,0,4e-05,8e-05,0.00024,-0.00012,0,2,16
34443,5e-05,8e-05,0.00017,0.00015,8e-05,0.00024,8e-05,-1e-05,2,16
34444,5e-05,8e-05,0.00017,0.00015,8e-05,0.00024,8e-05,-1e-05,2,16
34445,-5e-05,-7e-05,-0.00023,-0.00029,-0.00014,-0.00066,-5e-05,0,2,16
34446,-5e-05,-7e-05,-0.00023,-0.00029,-0.00014,-0.00066,-5e-05,0,2,16
34447,-5e-05,-7e-05,-0.00023,-0.00029,-0.00014,-0.00066,-5e-05,0,2,16
34448,-5e-05,-7e-05,-0.00023,-0.00029,-0.00014,-0.00066,-5e-05,0,2,16
34449,-5e-05,-7e-05,-0.00023,-0.00029,-0.00014,-0.00066,-5e-05,0,2,16
34450,-5e-05,-7e-05,-0.00023,-0.00029,-0.00014,-0.00066,-5e-05,0,2,16
34451,-5e-05,-7e-05,-0.00023,-0.00029,-0.00014,-0.00066,-5e-05,0,2,16
34452,-5e-05,-7e-05,-0.00023,-0.00029,-0.00014,-0.00066,-5e-05,0,2,16
34453,-5e-05,-7e-05,-0.00023,-0.00029,-0.00014,-0.00066,-5e-05,0,2,16
34454,-5e-05,-7e-05,-0.00023,-0.00029,-0.00014,-0.00066,-5e-05,0,2,16
34455,-5e-05,-7e-05,-0.00023,-0.00029,-0.00014,-0.00066,-5e-05,0,2,16
34456,-5e-05,-7e-05,-0.00023,-0.00029,-0.00014,-0.00066,-5e-05,0,2,16
34457,-5e-05,-7e-05,-0.00023,-0.00029,-0.00014,-0.00066,-5e-05,0,2,16
34458,-5e-05,-7e-05,-0.00023,-0.00029,-0.00014,-0.00066,-5e-05,0,2,16
34459,-5e-05,-7e-05,-0.00023,-0.00029,-0.00014,-0.00066,-5e-05,0,2,16
34460,-5e-05,-7e-05,-0.00023,-0.00029,-0.00014,-0.00066,-5e-05,0,2,16
34461,-5e-05,-7e-05,-0.00023,-0.00029,-0.00014,-0.00066,-5e-05,0,2,16
34462,-5e-05,-7e-05,-0.00023,-0.00029,-0.00014,-0.00066,-5e-05,0,2,16
34463,-5e-05,-7e-05,-0.00023,-0.00029,-0.00014,-0.00066,-5e-05,0,2,16
34464,-5e-05,-7e-05,-0.00023,-0.00029,-0.00014,-0.00066,-5e-05,0,2,16
34465,-0.00017,-0.00013,-0.00028,-0.00014,-0.00013,-0.00044,-0.0004,-0.00014,2,16
34466,-2e-05,-1e-05,7e-05,2e-05,-9e-05,-0.00025,0.00012,-7e-05,2,16
34467,-2e-05,-1e-05,7e-05,2e-05,-9e-05,-0.00025,0.00012,-7e-05,2,16
34468,-2e-05,-1e-05,7e-05,2e-05,-9e-05,-0.00025,0.00012,-7e-05,2,16
34469,-2e-05,-1e-05,7e-05,2e-05,-9e-05,-0.00025,0.00012,-7e-05,2,16
34470,-2e-05,-1e-05,7e-05,2e-05,-9e-05,-0.00025,0.00012,-7e-05,2,16
34471,-2e-05,-1e-05,7e-05,2e-05,-9e-05,-0.00025,0.00012,-7e-05,2,16
34472,-2e-05,-1e-05,7e-05,2e-05,-9e-05,-0.00025,0.00012,-7e-05,2,16
34473,-2e-05,-1e-05,7e-05,2e-05,-9e-05,-0.00025,0.00012,-7e-05,2,16
34474,-2e-05,-1e-05,7e-05,2e-05,-9e-05,-0.00025,0.00012,-7e-05,2,16
34475,-2e-05,-1e-05,7e-05,2e-05,-9e-05,-0.00025,0.00012,-7e-05,2,16
34476,-2e-05,-1e-05,7e-05,2e-05,-9e-05,-0.00025,0.00012,-7e-05,2,16
34477,-2e-05,-1e-05,7e-05,2e-05,-9e-05,-0.00025,0.00012,-7e-05,2,16
34478,-2e-05,-1e-05,7e-05,2e-05,-9e-05,-0.00025,0.00012,-7e-05,2,16
34479,-2e-05,-1e-05,7e-05,2e-05,-9e-05,-0.00025,0.00012,-7e-05,2,16
34480,-2e-05,-1e-05,7e-05,2e-05,-9e-05,-0.00025,0.00012,-7e-05,2,16
34481,-2e-05,-1e-05,7e-05,2e-05,-9e-05,-0.00025,0.00012,-7e-05,2,16
34482,-2e-05,-1e-05,7e-05,2e-05,-9e-05,-0.00025,0.00012,-7e-05,2,16
34483,-2e-05,-1e-05,7e-05,2e-05,-9e-05,-0.00025,0.00012,-7e-05,2,16
34484,-2e-05,-1e-05,7e-05,2e-05,-9e-05,-0.00025,0.00012,-7e-05,2,16
34485,-2e-05,-1e-05,7e-05,2e-05,-9e-05,-0.00025,0.00012,-7e-05,2,16
34486,-2e-05,-1e-05,7e-05,2e-05,-9e-05,-0.00025,0.00012,-7e-05,2,16
34489,-3e-05,-2e-05,0.00013,-2e-05,-0.00024,-0.00032,-0.00029,-1e-05,2,16
34490,-3e-05,-2e-05,0.00013,-2e-05,-0.00024,-0.00032,-0.00029,-1e-05,2,16
34491,-3e-05,-2e-05,0.00013,-2e-05,-0.00024,-0.00032,-0.00029,-1e-05,2,16
34492,-3e-05,-2e-05,0.00013,-2e-05,-0.00024,-0.00032,-0.00029,-1e-05,2,16
34493,-3e-05,-2e-05,0.00013,-2e-05,-0.00024,-0.00032,-0.00029,-1e-05,2,16
34494,-3e-05,-2e-05,0.00013,-2e-05,-0.00024,-0.00032,-0.00029,-1e-05,2,16
34495,-3e-05,-2e-05,0.00013,-2e-05,-0.00024,-0.00032,-0.00029,-1e-05,2,16
34496,-3e-05,-2e-05,0.00013,-2e-05,-0.00024,-0.00032,-0.00029,-1e-05,2,16
34497,-3e-05,-2e-05,0.00013,-2e-05,-0.00024,-0.00032,-0.00029,-1e-05,2,16
34498,-3e-05,-2e-05,0.00013,-2e-05,-0.00024,-0.00032,-0.00029,-1e-05,2,16
34499,-3e-05,-2e-05,0.00013,-2e-05,-0.00024,-0.00032,-0.00029,-1e-05,2,16
34500,-3e-05,-2e-05,0.00013,-2e-05,-0.00024,-0.00032,-0.00029,-1e-05,2,16
34501,-3e-05,-2e-05,0.00013,-2e-05,-0.00024,-0.00032,-0.00029,-1e-05,2,16
34502,-3e-05,-2e-05,0.00013,-2e-05,-0.00024,-0.00032,-0.00029,-1e-05,2,16
34503,-3e-05,-2e-05,0.00013,-2e-05,-0.00024,-0.00032,-0.00029,-1e-05,2,16
34504,-3e-05,-2e-05,0.00013,-2e-05,-0.00024,-0.00032,-0.00029,-1e-05,2,16
34505,-3e-05,-2e-05,0.00013,-2e-05,-0.00024,-0.00032,-0.00029,-1e-05,2,16
34506,-3e-05,-2e-05,0.00013,-2e-05,-0.00024,-0.00032,-0.00029,-1e-05,2,16
34507,-3e-05,-2e-05,0.00013,-2e-05,-0.00024,-0.00032,-0.00029,-1e-05,2,16
34508,-3e-05,-2e-05,0.00013,-2e-05,-0.00024,-0.00032,-0.00029,-1e-05,2,16
34509,-3e-05,-0.0001,-0.00053,-0.00033,0.00011,8e-05,0.00015,-4e-05,2,16
34510,0.00017,8e-05,0.00018,0,-0.00021,0.00029,8e-05,0.00019,2,16
34511,0.00017,8e-05,0.00018,0,-0.00021,0.00029,8e-05,0.00019,2,16
34512,0.00017,8e-05,0.00018,0,-0.00021,0.00029,8e-05,0.00019,2,16
34513,0.00017,8e-05,0.00018,0,-0.00021,0.00029,8e-05,0.00019,2,16
34514,0.00017,8e-05,0.00018,0,-0.00021,0.00029,8e-05,0.00019,2,16
34515,0.00017,8e-05,0.00018,0,-0.00021,0.00029,8e-05,0.00019,2,16
34516,0.00017,8e-05,0.00018,0,-0.00021,0.00029,8e-05,0.00019,2,16
34517,0.00017,8e-05,0.00018,0,-0.00021,0.00029,8e-05,0.00019,2,16
34518,0.00017,8e-05,0.00018,0,-0.00021,0.00029,8e-05,0.00019,2,16
34519,0.00017,8e-05,0.00018,0,-0.00021,0.00029,8e-05,0.00019,2,16
34520,0.00017,8e-05,0.00018,0,-0.00021,0.00029,8e-05,0.00019,2,16
34521,0.00017,8e-05,0.00018,0,-0.00021,0.00029,8e-05,0.00019,2,16
34522,0.00017,8e-05,0.00018,0,-0.00021,0.00029,8e-05,0.00019,2,16
34523,0.00017,8e-05,0.00018,0,-0.00021,0.00029,8e-05,0.00019,2,16
34524,5e-05,-2e-05,-1e-05,-8e-05,-0.0001,-0.00026,-5e-05,0,2,16
34525,-0.00015,-7e-05,-3e-05,-0.00011,-0.00015,-0.00062,-0.00018,-0.00012,2,16
34526,-0.00015,-7e-05,-3e-05,-0.00011,-0.00015,-0.00062,-0.00018,-0.00012,2,16
34527,-0.00015,-7e-05,-3e-05,-0.00011,-0.00015,-0.00062,-0.00018,-0.00012,2,16
34528,-0.00015,-7e-05,-3e-05,-0.00011,-0.00015,-0.00062,-0.00018,-0.00012,2,16
34529,-0.00015,-7e-05,-3e-05,-0.00011,-0.00015,-0.00062,-0.00018,-0.00012,2,16
34530,-0.00015,-7e-05,-3e-05,-0.00011,-0.00015,-0.00062,-0.00018,-0.00012,2,16
34531,-0.00015,-7e-05,-3e-05,-0.00011,-0.00015,-0.00062,-0.00018,-0.00012,2,16
34532,-0.00015,-7e-05,-3e-05,-0.00011,-0.00015,-0.00062,-0.00018,-0.00012,2,16
34533,-0.00015,-7e-05,-3e-05,-0.00011,-0.00015,-0.00062,-0.00018,-0.00012,2,16
34534,-0.00015,-7e-05,-3e-05,-0.00011,-0.00015,-0.00062,-0.00018,-0.00012,2,16
34535,-0.00015,-7e-05,-3e-05,-0.00011,-0.00015,-0.00062,-0.00018,-0.00012,2,16
34536,-0.00015,-7e-05,-3e-05,-0.00011,-0.00015,-0.00062,-0.00018,-0.00012,2,16
34538,-0.00015,-7e-05,-3e-05,-0.00011,-0.00015,-0.00062,-0.00018,-0.00012,2,16
34539,-0.00015,-7e-05,-3e-05,-0.00011,-0.00015,-0.00062,-0.00018,-0.00012,2,16
34540,-0.00015,-7e-05,-3e-05,-0.00011,-0.00015,-0.00062,-0.00018,-0.00012,2,16
34541,-0.00015,-7e-05,-3e-05,-0.00011,-0.00015,-0.00062,-0.00018,-0.00012,2,16
34542,-0.00015,-7e-05,-3e-05,-0.00011,-0.00015,-0.00062,-0.00018,-0.00012,2,16
34543,-0.00015,-7e-05,-3e-05,-0.00011,-0.00015,-0.00062,-0.00018,-0.00012,2,16
34544,-0.00015,-7e-05,-3e-05,-0.00011,-0.00015,-0.00062,-0.00018,-0.00012,2,16
34545,-0.00015,-7e-05,-3e-05,-0.00011,-0.00015,-0.00062,-0.00018,-0.00012,2,16
34546,-0.00015,-7e-05,-3e-05,-0.00011,-0.00015,-0.00062,-0.00018,-0.00012,2,16
34547,-0.00015,-7e-05,-3e-05,-0.00011,-0.00015,-0.00062,-0.00018,-0.00012,2,16
34548,-0.00015,-7e-05,-3e-05,-0.00011,-0.00015,-0.00062,-0.00018,-0.00012,2,16
34549,-0.00015,-7e-05,-3e-05,-0.00011,-0.00015,-0.00062,-0.00018,-0.00012,2,16
34550,-0.00015,-7e-05,-3e-05,-0.00011,-0.00015,-0.00062,-0.00018,-0.00012,2,16
34551,-0.00015,-7e-05,-3e-05,-0.00011,-0.00015,-0.00062,-0.00018,-0.00012,2,16
34552,-0.00015,-7e-05,-3e-05,-0.00011,-0.00015,-0.00062,-0.00018,-0.00012,2,16
34553,-0.00015,-7e-05,-3e-05,-0.00011,-0.00015,-0.00062,-0.00018,-0.00012,2,16
34554,-0.00015,-7e-05,-3e-05,-0.00011,-0.00015,-0.00062,-0.00018,-0.00012,2,16
34555,-0.00015,-7e-05,-3e-05,-0.00011,-0.00015,-0.00062,-0.00018,-0.00012,2,16
34556,-0.00015,-7e-05,-3e-05,-0.00011,-0.00015,-0.00062,-0.00018,-0.00012,2,16
34557,-0.00015,-7e-05,-3e-05,-0.00011,-0.00015,-0.00062,-0.00018,-0.00012,2,16
34558,-0.00015,-7e-05,-3e-05,-0.00011,-0.00015,-0.00062,-0.00018,-0.00012,2,16
34559,-0.00015,-7e-05,-3e-05,-0.00011,-0.00015,-0.00062,-0.00018,-0.00012,2,16
34560,-0.00015,-7e-05,-3e-05,-0.00011,-0.00015,-0.00062,-0.00018,-0.00012,2,16
34561,2e-05,-4e-05,-0.0001,8e-05,0.00022,7e-05,-3e-05,-2e-05,2,16
34562,2e-05,-4e-05,-0.0001,8e-05,0.00022,7e-05,-3e-05,-2e-05,2,16
34563,2e-05,-4e-05,-0.0001,8e-05,0.00022,7e-05,-3e-05,-2e-05,2,16
34564,2e-05,-4e-05,-0.0001,8e-05,0.00022,7e-05,-3e-05,-2e-05,2,16
34565,2e-05,-4e-05,-0.0001,8e-05,0.00022,7e-05,-3e-05,-2e-05,2,16
34566,2e-05,-4e-05,-0.0001,8e-05,0.00022,7e-05,-3e-05,-2e-05,2,16
34567,2e-05,-4e-05,-0.0001,8e-05,0.00022,7e-05,-3e-05,-2e-05,2,16
34568,2e-05,-4e-05,-0.0001,8e-05,0.00022,7e-05,-3e-05,-2e-05,2,16
34569,2e-05,-4e-05,-0.0001,8e-05,0.00022,7e-05,-3e-05,-2e-05,2,16
34570,2e-05,-4e-05,-0.0001,8e-05,0.00022,7e-05,-3e-05,-2e-05,2,16
34571,2e-05,-4e-05,-0.0001,8e-05,0.00022,7e-05,-3e-05,-2e-05,2,16
34572,2e-05,-4e-05,-0.0001,8e-05,0.00022,7e-05,-3e-05,-2e-05,2,16
34573,2e-05,-4e-05,-0.0001,8e-05,0.00022,7e-05,-3e-05,-2e-05,2,16
34574,2e-05,-4e-05,-0.0001,8e-05,0.00022,7e-05,-3e-05,-2e-05,2,16
34575,2e-05,-4e-05,-0.0001,8e-05,0.00022,7e-05,-3e-05,-2e-05,2,16
34576,2e-05,-4e-05,-0.0001,8e-05,0.00022,7e-05,-3e-05,-2e-05,2,16
34577,2e-05,-4e-05,-0.0001,8e-05,0.00022,7e-05,-3e-05,-2e-05,2,16
34578,8e-05,6e-05,9e-05,0.00012,-3e-05,-0.00022,-0.00022,-2e-05,2,16
34579,8e-05,6e-05,9e-05,0.00012,-3e-05,-0.00022,-0.00022,-2e-05,2,16
34580,8e-05,7e-05,8e-05,0,1e-05,0.00063,0.00031,1e-05,2,16
34581,-7e-05,-2e-05,-0.00011,7e-05,6e-05,-9e-05,-5e-05,8e-05,2,16
34582,-7e-05,-2e-05,-0.00011,7e-05,6e-05,-9e-05,-5e-05,8e-05,2,16
34583,-7e-05,-2e-05,-0.00011,7e-05,6e-05,-9e-05,-5e-05,8e-05,2,16
34584,-7e-05,-2e-05,-0.00011,7e-05,6e-05,-9e-05,-5e-05,8e-05,2,16
34585,-8e-05,-0.00011,-0.00021,0.00041,0.0001,-0.00018,2e-05,-5e-05,2,16
34586,0,3e-05,0.00016,8e-05,-3e-05,-0.00012,-0.00015,-4e-05,2,16
34588,0,3e-05,0.00016,8e-05,-3e-05,-0.00012,-0.00015,-4e-05,2,16
34589,0,3e-05,0.00016,8e-05,-3e-05,-0.00012,-0.00015,-4e-05,2,16
34590,0,3e-05,0.00016,8e-05,-3e-05,-0.00012,-0.00015,-4e-05,2,16
34591,0,3e-05,0.00016,8e-05,-3e-05,-0.00012,-0.00015,-4e-05,2,16
34592,0,3e-05,0.00016,8e-05,-3e-05,-0.00012,-0.00015,-4e-05,2,16
34593,0,3e-05,0.00016,8e-05,-3e-05,-0.00012,-0.00015,-4e-05,2,16
34594,0,3e-05,0.00016,8e-05,-3e-05,-0.00012,-0.00015,-4e-05,2,16
34595,0,3e-05,0.00016,8e-05,-3e-05,-0.00012,-0.00015,-4e-05,2,16
34596,0,3e-05,0.00016,8e-05,-3e-05,-0.00012,-0.00015,-4e-05,2,16
34597,0,3e-05,0.00016,8e-05,-3e-05,-0.00012,-0.00015,-4e-05,2,16
34598,0,3e-05,0.00016,8e-05,-3e-05,-0.00012,-0.00015,-4e-05,2,16
34599,0,3e-05,0.00016,8e-05,-3e-05,-0.00012,-0.00015,-4e-05,2,16
34600,0,3e-05,0.00016,8e-05,-3e-05,-0.00012,-0.00015,-4e-05,2,16
34601,0,3e-05,0.00016,8e-05,-3e-05,-0.00012,-0.00015,-4e-05,2,16
34602,0,3e-05,0.00016,8e-05,-3e-05,-0.00012,-0.00015,-4e-05,2,16
34603,0,3e-05,0.00016,8e-05,-3e-05,-0.00012,-0.00015,-4e-05,2,16
34604,0,3e-05,0.00016,8e-05,-3e-05,-0.00012,-0.00015,-4e-05,2,16
34605,0,3e-05,0.00016,8e-05,-3e-05,-0.00012,-0.00015,-4e-05,2,16
34606,0,3e-05,0.00016,8e-05,-3e-05,-0.00012,-0.00015,-4e-05,2,16
34607,8e-05,5e-05,0.0001,0.0001,-0.00013,-7e-05,1e-05,-2e-05,2,16
34608,-7e-05,-2e-05,-2e-05,8e-05,0.00018,0.0002,-0.00014,-3e-05,2,16
34609,-7e-05,-2e-05,-2e-05,8e-05,0.00018,0.0002,-0.00014,-3e-05,2,16
34610,-7e-05,-2e-05,-2e-05,8e-05,0.00018,0.0002,-0.00014,-3e-05,2,16
34611,-7e-05,-2e-05,-2e-05,8e-05,0.00018,0.0002,-0.00014,-3e-05,2,16
34612,-7e-05,-2e-05,-2e-05,8e-05,0.00018,0.0002,-0.00014,-3e-05,2,16
