5102,-0.00027,-0.00016,-0.00027,-0.00013,0.00087,0.00064,0.00067,0.00022,2,18
5103,-0.00027,-0.00016,-0.00027,-0.00013,0.00087,0.00064,0.00067,0.00022,2,18
5104,-0.00027,-0.00016,-0.00027,-0.00013,0.00087,0.00064,0.00067,0.00022,2,18
5105,-0.00027,-0.00016,-0.00027,-0.00013,0.00087,0.00064,0.00067,0.00022,2,18
5106,-0.00027,-0.00016,-0.00027,-0.00013,0.00087,0.00064,0.00067,0.00022,2,18
5107,4e-05,0,0.00015,0.0008,-4e-05,0,-0.00047,0.00025,2,18
5108,4e-05,0,0.00015,0.0008,-4e-05,0,-0.00047,0.00025,2,18
5109,4e-05,0,0.00015,0.0008,-4e-05,0,-0.00047,0.00025,2,18
5110,4e-05,0,0.00015,0.0008,-4e-05,0,-0.00047,0.00025,2,18
5111,4e-05,0,0.00015,0.0008,-4e-05,0,-0.00047,0.00025,2,18
5112,4e-05,0,0.00015,0.0008,-4e-05,0,-0.00047,0.00025,2,18
5113,4e-05,0,0.00015,0.0008,-4e-05,0,-0.00047,0.00025,2,18
5114,4e-05,0,0.00015,0.0008,-4e-05,0,-0.00047,0.00025,2,18
5115,4e-05,0,0.00015,0.0008,-4e-05,0,-0.00047,0.00025,2,18
5116,4e-05,0,0.00015,0.0008,-4e-05,0,-0.00047,0.00025,2,18
5117,4e-05,0,0.00015,0.0008,-4e-05,0,-0.00047,0.00025,2,18
5118,4e-05,0,0.00015,0.0008,-4e-05,0,-0.00047,0.00025,2,18
5119,4e-05,0,0.00015,0.0008,-4e-05,0,-0.00047,0.00025,2,18
5120,4e-05,0,0.00015,0.0008,-4e-05,0,-0.00047,0.00025,2,18
5121,4e-05,0,0.00015,0.0008,-4e-05,0,-0.00047,0.00025,2,18
5122,4e-05,0,0.00015,0.0008,-4e-05,0,-0.00047,0.00025,2,18
5123,-0.00021,-2e-05,-3e-05,0.0004,-0.00034,-9e-05,4e-05,0.00015,2,18
5124,-0.00021,-2e-05,-3e-05,0.0004,-0.00034,-9e-05,4e-05,0.00015,2,18
5125,-0.00021,-2e-05,-3e-05,0.0004,-0.00034,-9e-05,4e-05,0.00015,2,18
5126,-0.00021,-2e-05,-3e-05,0.0004,-0.00034,-9e-05,4e-05,0.00015,2,18
5127,-0.00021,-2e-05,-3e-05,0.0004,-0.00034,-9e-05,4e-05,0.00015,2,18
5128,-0.00021,-2e-05,-3e-05,0.0004,-0.00034,-9e-05,4e-05,0.00015,2,18
5129,0.00083,4e-05,-8e-05,-9e-05,-7e-05,0.00042,0.00099,0.00021,2,18
5130,0.00083,4e-05,-8e-05,-9e-05,-7e-05,0.00042,0.00099,0.00021,2,18
5131,0.00083,4e-05,-8e-05,-9e-05,-7e-05,0.00042,0.00099,0.00021,2,18
5132,0.00083,4e-05,-8e-05,-9e-05,-7e-05,0.00042,0.00099,0.00021,2,18
5133,0.00083,4e-05,-8e-05,-9e-05,-7e-05,0.00042,0.00099,0.00021,2,18
5134,0.00083,4e-05,-8e-05,-9e-05,-7e-05,0.00042,0.00099,0.00021,2,18
5135,0.00083,4e-05,-8e-05,-9e-05,-7e-05,0.00042,0.00099,0.00021,2,18
5136,-0.00048,5e-05,3e-05,7e-05,1e-05,-0.00038,-3e-05,-0.0002,2,18
5138,-0.00018,-1e-05,2e-05,0.00023,-0.00014,7e-05,-0.00083,-0.0005,2,18
5139,-0.00018,-1e-05,2e-05,0.00023,-0.00014,7e-05,-0.00083,-0.0005,2,18
5141,-0.00018,-1e-05,2e-05,0.00023,-0.00014,7e-05,-0.00083,-0.0005,2,18
5142,-0.00018,-1e-05,2e-05,0.00023,-0.00014,7e-05,-0.00083,-0.0005,2,18
5143,-0.00018,-1e-05,2e-05,0.00023,-0.00014,7e-05,-0.00083,-0.0005,2,18
5144,-0.00018,-1e-05,2e-05,0.00023,-0.00014,7e-05,-0.00083,-0.0005,2,18
5145,0.00043,3e-05,0.0001,0.00038,-0.0001,-0.00011,0.00111,0.00096,2,18
5146,0.00048,-0.0001,-7e-05,0.00039,9e-05,-0.00017,-0.00099,-0.00011,2,18
5147,0.00048,-0.0001,-7e-05,0.00039,9e-05,-0.00017,-0.00099,-0.00011,2,18
5148,0.00048,-0.0001,-7e-05,0.00039,9e-05,-0.00017,-0.00099,-0.00011,2,18
5149,0.00048,-0.0001,-7e-05,0.00039,9e-05,-0.00017,-0.00099,-0.00011,2,18
5150,0.00048,-0.0001,-7e-05,0.00039,9e-05,-0.00017,-0.00099,-0.00011,2,18
5151,0.00048,-0.0001,-7e-05,0.00039,9e-05,-0.00017,-0.00099,-0.00011,2,18
5152,0.00048,-0.0001,-7e-05,0.00039,9e-05,-0.00017,-0.00099,-0.00011,2,18
5153,0.00048,-0.0001,-7e-05,0.00039,9e-05,-0.00017,-0.00099,-0.00011,2,18
5154,0.00048,-0.0001,-7e-05,0.00039,9e-05,-0.00017,-0.00099,-0.00011,2,18
5155,0.00048,-0.0001,-7e-05,0.00039,9e-05,-0.00017,-0.00099,-0.00011,2,18
5156,0.00048,-0.0001,-7e-05,0.00039,9e-05,-0.00017,-0.00099,-0.00011,2,18
5157,0.00048,-0.0001,-7e-05,0.00039,9e-05,-0.00017,-0.00099,-0.00011,2,18
5158,0.00048,-0.0001,-7e-05,0.00039,9e-05,-0.00017,-0.00099,-0.00011,2,18
5159,0.00048,-0.0001,-7e-05,0.00039,9e-05,-0.00017,-0.00099,-0.00011,2,18
5160,0.00048,-0.0001,-7e-05,0.00039,9e-05,-0.00017,-0.00099,-0.00011,2,18
5161,0.00072,1e-05,-0.00019,-0.00049,0.00037,-0.00015,-5e-05,-1e-05,2,18
5162,0.00072,1e-05,-0.00019,-0.00049,0.00037,-0.00015,-5e-05,-1e-05,2,18
5163,0.00072,1e-05,-0.00019,-0.00049,0.00037,-0.00015,-5e-05,-1e-05,2,18
5164,0.00072,1e-05,-0.00019,-0.00049,0.00037,-0.00015,-5e-05,-1e-05,2,18
5165,0.00072,1e-05,-0.00019,-0.00049,0.00037,-0.00015,-5e-05,-1e-05,2,18
5166,-0.00012,0.00013,0.0003,0.00087,-9e-05,0.00012,0.00021,7e-05,2,18
5167,-0.00106,-0.00012,0,0.00018,-0.00051,-0.00016,-1e-05,-0.00024,2,18
5168,-0.00106,-0.00012,0,0.00018,-0.00051,-0.00016,-1e-05,-0.00024,2,18
5169,-0.00106,-0.00012,0,0.00018,-0.00051,-0.00016,-1e-05,-0.00024,2,18
5170,-0.00106,-0.00012,0,0.00018,-0.00051,-0.00016,-1e-05,-0.00024,2,18
5171,-0.00106,-0.00012,0,0.00018,-0.00051,-0.00016,-1e-05,-0.00024,2,18
5172,-0.00106,-0.00012,0,0.00018,-0.00051,-0.00016,-1e-05,-0.00024,2,18
5173,-0.00106,-0.00012,0,0.00018,-0.00051,-0.00016,-1e-05,-0.00024,2,18
5174,-0.00106,-0.00012,0,0.00018,-0.00051,-0.00016,-1e-05,-0.00024,2,18
5175,-0.00106,-0.00012,0,0.00018,-0.00051,-0.00016,-1e-05,-0.00024,2,18
5176,-0.00106,-0.00012,0,0.00018,-0.00051,-0.00016,-1e-05,-0.00024,2,18
5177,-0.00106,-0.00012,0,0.00018,-0.00051,-0.00016,-1e-05,-0.00024,2,18
5178,-0.00106,-0.00012,0,0.00018,-0.00051,-0.00016,-1e-05,-0.00024,2,18
5179,-0.00106,-0.00012,0,0.00018,-0.00051,-0.00016,-1e-05,-0.00024,2,18
5180,-0.00106,-0.00012,0,0.00018,-0.00051,-0.00016,-1e-05,-0.00024,2,18
5181,-0.00106,-0.00012,0,0.00018,-0.00051,-0.00016,-1e-05,-0.00024,2,18
5182,-0.00106,-0.00012,0,0.00018,-0.00051,-0.00016,-1e-05,-0.00024,2,18
5183,-0.00011,0,6e-05,0.00023,-0.00023,-0.00013,-0.00016,-0.00022,2,18
5184,-0.00042,-2e-05,-3e-05,-3e-05,5e-05,2e-05,0.00057,-5e-05,2,18
5185,0.00034,4e-05,4e-05,-0.00024,-6e-05,-0.00033,-0.00022,-0.00018,2,18
5186,0.00034,4e-05,4e-05,-0.00024,-6e-05,-0.00033,-0.00022,-0.00018,2,18
5188,0.00034,4e-05,4e-05,-0.00024,-6e-05,-0.00033,-0.00022,-0.00018,2,18
5190,0.00034,4e-05,4e-05,-0.00024,-6e-05,-0.00033,-0.00022,-0.00018,2,18
5191,0.00034,4e-05,4e-05,-0.00024,-6e-05,-0.00033,-0.00022,-0.00018,2,18
5192,0.00034,4e-05,4e-05,-0.00024,-6e-05,-0.00033,-0.00022,-0.00018,2,18
5193,0.00034,4e-05,4e-05,-0.00024,-6e-05,-0.00033,-0.00022,-0.00018,2,18
5194,0.00034,4e-05,4e-05,-0.00024,-6e-05,-0.00033,-0.00022,-0.00018,2,18
5195,0.00034,4e-05,4e-05,-0.00024,-6e-05,-0.00033,-0.00022,-0.00018,2,18
5196,0.00034,4e-05,4e-05,-0.00024,-6e-05,-0.00033,-0.00022,-0.00018,2,18
5197,0.00034,4e-05,4e-05,-0.00024,-6e-05,-0.00033,-0.00022,-0.00018,2,18
5198,0.00034,4e-05,4e-05,-0.00024,-6e-05,-0.00033,-0.00022,-0.00018,2,18
5199,0.00034,4e-05,4e-05,-0.00024,-6e-05,-0.00033,-0.00022,-0.00018,2,18
5200,0.00034,4e-05,4e-05,-0.00024,-6e-05,-0.00033,-0.00022,-0.00018,2,18
5201,0.00034,4e-05,4e-05,-0.00024,-6e-05,-0.00033,-0.00022,-0.00018,2,18
5202,0.00034,4e-05,4e-05,-0.00024,-6e-05,-0.00033,-0.00022,-0.00018,2,18
5203,0.00034,4e-05,4e-05,-0.00024,-6e-05,-0.00033,-0.00022,-0.00018,2,18
5204,0.00034,4e-05,4e-05,-0.00024,-6e-05,-0.00033,-0.00022,-0.00018,2,18
5205,0.00042,-0.00011,-1e-05,0.00076,-0.00037,-0.00021,0.00035,-0.0001,2,18
5206,0.00042,-0.00011,-1e-05,0.00076,-0.00037,-0.00021,0.00035,-0.0001,2,18
5207,0.00022,5e-05,0.00014,0.0009,-8e-05,0.00017,-0.0002,-3e-05,2,18
5208,0.00022,5e-05,0.00014,0.0009,-8e-05,0.00017,-0.0002,-3e-05,2,18
5209,0.00022,5e-05,0.00014,0.0009,-8e-05,0.00017,-0.0002,-3e-05,2,18
5210,0.00022,5e-05,0.00014,0.0009,-8e-05,0.00017,-0.0002,-3e-05,2,18
5211,0.00022,5e-05,0.00014,0.0009,-8e-05,0.00017,-0.0002,-3e-05,2,18
5212,0.00022,5e-05,0.00014,0.0009,-8e-05,0.00017,-0.0002,-3e-05,2,18
5213,0.00022,5e-05,0.00014,0.0009,-8e-05,0.00017,-0.0002,-3e-05,2,18
5214,0.00022,5e-05,0.00014,0.0009,-8e-05,0.00017,-0.0002,-3e-05,2,18
5215,0.00022,5e-05,0.00014,0.0009,-8e-05,0.00017,-0.0002,-3e-05,2,18
5216,0.00022,5e-05,0.00014,0.0009,-8e-05,0.00017,-0.0002,-3e-05,2,18
5217,0.00022,5e-05,0.00014,0.0009,-8e-05,0.00017,-0.0002,-3e-05,2,18
5218,0.00022,5e-05,0.00014,0.0009,-8e-05,0.00017,-0.0002,-3e-05,2,18
5219,0.00022,5e-05,0.00014,0.0009,-8e-05,0.00017,-0.0002,-3e-05,2,18
5220,0.00022,5e-05,0.00014,0.0009,-8e-05,0.00017,-0.0002,-3e-05,2,18
5221,0.00022,5e-05,0.00014,0.0009,-8e-05,0.00017,-0.0002,-3e-05,2,18
5222,0.00022,5e-05,0.00014,0.0009,-8e-05,0.00017,-0.0002,-3e-05,2,18
5223,0.00022,5e-05,0.00014,0.0009,-8e-05,0.00017,-0.0002,-3e-05,2,18
5224,0.00022,5e-05,0.00014,0.0009,-8e-05,0.00017,-0.0002,-3e-05,2,18
5225,0.00022,5e-05,0.00014,0.0009,-8e-05,0.00017,-0.0002,-3e-05,2,18
5226,0.00022,5e-05,0.00014,0.0009,-8e-05,0.00017,-0.0002,-3e-05,2,18
5227,0.00022,5e-05,0.00014,0.0009,-8e-05,0.00017,-0.0002,-3e-05,2,18
5228,0.00048,0.00017,0.00027,0.00038,0.00011,0.00058,0.00065,0.00052,2,18
5229,-0.00021,-3e-05,-0.00013,-0.00064,0.00017,0.00022,9e-05,8e-05,2,18
5230,-0.00021,-3e-05,-0.00013,-0.00064,0.00017,0.00022,9e-05,8e-05,2,18
5231,-0.00021,-3e-05,-0.00013,-0.00064,0.00017,0.00022,9e-05,8e-05,2,18
5232,-0.00021,-3e-05,-0.00013,-0.00064,0.00017,0.00022,9e-05,8e-05,2,18
5234,-0.00021,-3e-05,-0.00013,-0.00064,0.00017,0.00022,9e-05,8e-05,2,18
5235,-0.00021,-3e-05,-0.00013,-0.00064,0.00017,0.00022,9e-05,8e-05,2,18
5236,-0.00021,-3e-05,-0.00013,-0.00064,0.00017,0.00022,9e-05,8e-05,2,18
5238,-0.00021,-3e-05,-0.00013,-0.00064,0.00017,0.00022,9e-05,8e-05,2,18
5239,-0.00021,-3e-05,-0.00013,-0.00064,0.00017,0.00022,9e-05,8e-05,2,18
5240,-0.00021,-3e-05,-0.00013,-0.00064,0.00017,0.00022,9e-05,8e-05,2,18
5241,-0.00021,-3e-05,-0.00013,-0.00064,0.00017,0.00022,9e-05,8e-05,2,18
5242,-0.00021,-3e-05,-0.00013,-0.00064,0.00017,0.00022,9e-05,8e-05,2,18
5243,-0.00021,-3e-05,-0.00013,-0.00064,0.00017,0.00022,9e-05,8e-05,2,18
5244,-0.00042,-6e-05,0,-0.00014,-0.0002,-0.0001,-0.0003,-0.00022,2,18
5245,-0.00041,-7e-05,-3e-05,0.00018,0.00025,0.00021,0.0002,7e-05,2,18
5246,-0.00041,-7e-05,-3e-05,0.00018,0.00025,0.00021,0.0002,7e-05,2,18
5247,-0.00041,-7e-05,-3e-05,0.00018,0.00025,0.00021,0.0002,7e-05,2,18
5248,-0.00041,-7e-05,-3e-05,0.00018,0.00025,0.00021,0.0002,7e-05,2,18
5249,-0.00041,-7e-05,-3e-05,0.00018,0.00025,0.00021,0.0002,7e-05,2,18
5250,-0.00041,-7e-05,-3e-05,0.00018,0.00025,0.00021,0.0002,7e-05,2,18
5251,-0.00041,-7e-05,-3e-05,0.00018,0.00025,0.00021,0.0002,7e-05,2,18
5252,-0.00041,-7e-05,-3e-05,0.00018,0.00025,0.00021,0.0002,7e-05,2,18
5253,-0.00041,-7e-05,-3e-05,0.00018,0.00025,0.00021,0.0002,7e-05,2,18
5254,-0.00041,-7e-05,-3e-05,0.00018,0.00025,0.00021,0.0002,7e-05,2,18
5255,-0.00041,-7e-05,-3e-05,0.00018,0.00025,0.00021,0.0002,7e-05,2,18
5256,-0.00041,-7e-05,-3e-05,0.00018,0.00025,0.00021,0.0002,7e-05,2,18
5257,-0.00041,-7e-05,-3e-05,0.00018,0.00025,0.00021,0.0002,7e-05,2,18
5258,-0.00041,-7e-05,-3e-05,0.00018,0.00025,0.00021,0.0002,7e-05,2,18
5259,-0.00041,-7e-05,-3e-05,0.00018,0.00025,0.00021,0.0002,7e-05,2,18
5260,-0.00041,-7e-05,-3e-05,0.00018,0.00025,0.00021,0.0002,7e-05,2,18
5261,-0.00041,-7e-05,-3e-05,0.00018,0.00025,0.00021,0.0002,7e-05,2,18
5262,-0.00041,-7e-05,-3e-05,0.00018,0.00025,0.00021,0.0002,7e-05,2,18
5263,-0.00041,-7e-05,-3e-05,0.00018,0.00025,0.00021,0.0002,7e-05,2,18
5264,-0.00041,-7e-05,-3e-05,0.00018,0.00025,0.00021,0.0002,7e-05,2,18
5265,-0.00011,3e-05,2e-05,0.00014,-6e-05,-0.00024,-0.00048,-7e-05,2,18
5266,-0.00011,3e-05,2e-05,0.00014,-6e-05,-0.00024,-0.00048,-7e-05,2,18
5267,5e-05,6e-05,-3e-05,-3e-05,0.00022,0.0003,0.00043,-0.00031,2,18
5268,5e-05,6e-05,-3e-05,-3e-05,0.00022,0.0003,0.00043,-0.00031,2,18
5269,5e-05,6e-05,-3e-05,-3e-05,0.00022,0.0003,0.00043,-0.00031,2,18
5270,5e-05,6e-05,-3e-05,-3e-05,0.00022,0.0003,0.00043,-0.00031,2,18
5271,5e-05,6e-05,-3e-05,-3e-05,0.00022,0.0003,0.00043,-0.00031,2,18
5272,5e-05,6e-05,-3e-05,-3e-05,0.00022,0.0003,0.00043,-0.00031,2,18
5273,5e-05,6e-05,-3e-05,-3e-05,0.00022,0.0003,0.00043,-0.00031,2,18
5274,5e-05,6e-05,-3e-05,-3e-05,0.00022,0.0003,0.00043,-0.00031,2,18
5275,5e-05,6e-05,-3e-05,-3e-05,0.00022,0.0003,0.00043,-0.00031,2,18
5276,5e-05,6e-05,-3e-05,-3e-05,0.00022,0.0003,0.00043,-0.00031,2,18
5277,5e-05,6e-05,-3e-05,-3e-05,0.00022,0.0003,0.00043,-0.00031,2,18
5278,5e-05,6e-05,-3e-05,-3e-05,0.00022,0.0003,0.00043,-0.00031,2,18
5279,5e-05,6e-05,-3e-05,-3e-05,0.00022,0.0003,0.00043,-0.00031,2,18
5280,5e-05,6e-05,-3e-05,-3e-05,0.00022,0.0003,0.00043,-0.00031,2,18
5281,5e-05,6e-05,-3e-05,-3e-05,0.00022,0.0003,0.00043,-0.00031,2,18
5282,5e-05,6e-05,-3e-05,-3e-05,0.00022,0.0003,0.00043,-0.00031,2,18
5283,5e-05,6e-05,-3e-05,-3e-05,0.00022,0.0003,0.00043,-0.00031,2,18
5284,5e-05,6e-05,-3e-05,-3e-05,0.00022,0.0003,0.00043,-0.00031,2,18
5285,5e-05,6e-05,-3e-05,-3e-05,0.00022,0.0003,0.00043,-0.00031,2,18
5286,5e-05,6e-05,-3e-05,-3e-05,0.00022,0.0003,0.00043,-0.00031,2,18
5289,-0.00024,-2e-05,1e-05,-0.00057,-0.00024,-0.00036,-0.00061,-6e-05,2,18
5290,-0.00047,-6e-05,-1e-05,0.00019,-0.00049,0.00037,7e-05,-4e-05,2,18
5291,-0.00047,-6e-05,-1e-05,0.00019,-0.00049,0.00037,7e-05,-4e-05,2,18
5292,-0.00047,-6e-05,-1e-05,0.00019,-0.00049,0.00037,7e-05,-4e-05,2,18
5293,-0.00047,-6e-05,-1e-05,0.00019,-0.00049,0.00037,7e-05,-4e-05,2,18
5294,-0.00047,-6e-05,-1e-05,0.00019,-0.00049,0.00037,7e-05,-4e-05,2,18
5295,-0.00047,-6e-05,-1e-05,0.00019,-0.00049,0.00037,7e-05,-4e-05,2,18
5296,-0.00047,-6e-05,-1e-05,0.00019,-0.00049,0.00037,7e-05,-4e-05,2,18
5297,-0.00047,-6e-05,-1e-05,0.00019,-0.00049,0.00037,7e-05,-4e-05,2,18
5298,-0.00047,-6e-05,-1e-05,0.00019,-0.00049,0.00037,7e-05,-4e-05,2,18
5299,-0.00047,-6e-05,-1e-05,0.00019,-0.00049,0.00037,7e-05,-4e-05,2,18
5300,-0.00047,-6e-05,-1e-05,0.00019,-0.00049,0.00037,7e-05,-4e-05,2,18
5301,-0.00047,-6e-05,-1e-05,0.00019,-0.00049,0.00037,7e-05,-4e-05,2,18
5302,-0.00047,-6e-05,-1e-05,0.00019,-0.00049,0.00037,7e-05,-4e-05,2,18
5303,-0.00047,-6e-05,-1e-05,0.00019,-0.00049,0.00037,7e-05,-4e-05,2,18
5304,-0.00047,-6e-05,-1e-05,0.00019,-0.00049,0.00037,7e-05,-4e-05,2,18
5305,-0.00047,-6e-05,-1e-05,0.00019,-0.00049,0.00037,7e-05,-4e-05,2,18
5306,-0.00047,-6e-05,-1e-05,0.00019,-0.00049,0.00037,7e-05,-4e-05,2,18
5307,-0.00047,-6e-05,-1e-05,0.00019,-0.00049,0.00037,7e-05,-4e-05,2,18
5308,-0.00047,-6e-05,-1e-05,0.00019,-0.00049,0.00037,7e-05,-4e-05,2,18
5309,-0.00047,-6e-05,-1e-05,0.00019,-0.00049,0.00037,7e-05,-4e-05,2,18
5310,-0.00047,-6e-05,-1e-05,0.00019,-0.00049,0.00037,7e-05,-4e-05,2,18
5311,-0.00047,-6e-05,-1e-05,0.00019,-0.00049,0.00037,7e-05,-4e-05,2,18
5312,-0.00047,-6e-05,-1e-05,0.00019,-0.00049,0.00037,7e-05,-4e-05,2,18
5313,-0.00047,-6e-05,-1e-05,0.00019,-0.00049,0.00037,7e-05,-4e-05,2,18
5314,-0.00047,-6e-05,-1e-05,0.00019,-0.00049,0.00037,7e-05,-4e-05,2,18
5315,-0.00047,-6e-05,-1e-05,0.00019,-0.00049,0.00037,7e-05,-4e-05,2,18
5316,-0.00047,-6e-05,-1e-05,0.00019,-0.00049,0.00037,7e-05,-4e-05,2,18
5317,-0.00047,-6e-05,-1e-05,0.00019,-0.00049,0.00037,7e-05,-4e-05,2,18
5318,-0.00029,-6e-05,-5e-05,-0.00053,-0.00014,-0.00017,-0.00047,-0.00017,2,18
5319,0.00034,3e-05,1e-05,0.00067,-6e-05,6e-05,-0.00026,5e-05,2,18
5320,-0.0005,7e-05,0.00011,0.00038,0.00015,-0.00011,0.00012,0.00033,2,18
5321,-0.0005,7e-05,0.00011,0.00038,0.00015,-0.00011,0.00012,0.00033,2,18
5322,-0.0005,7e-05,0.00011,0.00038,0.00015,-0.00011,0.00012,0.00033,2,18
5323,-0.0005,7e-05,0.00011,0.00038,0.00015,-0.00011,0.00012,0.00033,2,18
5324,-0.0005,7e-05,0.00011,0.00038,0.00015,-0.00011,0.00012,0.00033,2,18
5325,0.0001,-1e-05,-3e-05,3e-05,-3e-05,-0.00014,0.00034,0.00029,2,18
5326,0.0001,-1e-05,-3e-05,3e-05,-3e-05,-0.00014,0.00034,0.00029,2,18
5327,0.00048,-3e-05,-4e-05,-0.00035,0.00016,0.0001,-2e-05,9e-05,2,18
5328,0.00048,-3e-05,-4e-05,-0.00035,0.00016,0.0001,-2e-05,9e-05,2,18
5329,0.00048,-3e-05,-4e-05,-0.00035,0.00016,0.0001,-2e-05,9e-05,2,18
5330,0.00048,-3e-05,-4e-05,-0.00035,0.00016,0.0001,-2e-05,9e-05,2,18
5331,0.00048,-3e-05,-4e-05,-0.00035,0.00016,0.0001,-2e-05,9e-05,2,18
5332,0.00048,-3e-05,-4e-05,-0.00035,0.00016,0.0001,-2e-05,9e-05,2,18
5333,0.00048,-3e-05,-4e-05,-0.00035,0.00016,0.0001,-2e-05,9e-05,2,18
5334,0.00048,-3e-05,-4e-05,-0.00035,0.00016,0.0001,-2e-05,9e-05,2,18
5335,0.00048,-3e-05,-4e-05,-0.00035,0.00016,0.0001,-2e-05,9e-05,2,18
5336,0.00048,-3e-05,-4e-05,-0.00035,0.00016,0.0001,-2e-05,9e-05,2,18
5338,0.00048,-3e-05,-4e-05,-0.00035,0.00016,0.0001,-2e-05,9e-05,2,18
5339,0.00048,-3e-05,-4e-05,-0.00035,0.00016,0.0001,-2e-05,9e-05,2,18
5340,0.00048,-3e-05,-4e-05,-0.00035,0.00016,0.0001,-2e-05,9e-05,2,18
5341,0.00048,-3e-05,-4e-05,-0.00035,0.00016,0.0001,-2e-05,9e-05,2,18
5342,0.00048,-3e-05,-4e-05,-0.00035,0.00016,0.0001,-2e-05,9e-05,2,18
5343,0.00048,-3e-05,-4e-05,-0.00035,0.00016,0.0001,-2e-05,9e-05,2,18
5344,0.00048,-3e-05,-4e-05,-0.00035,0.00016,0.0001,-2e-05,9e-05,2,18
5345,0.00048,-3e-05,-4e-05,-0.00035,0.00016,0.0001,-2e-05,9e-05,2,18
5346,0.00048,-3e-05,-4e-05,-0.00035,0.00016,0.0001,-2e-05,9e-05,2,18
5347,0.00048,-3e-05,-4e-05,-0.00035,0.00016,0.0001,-2e-05,9e-05,2,18
5348,-0.00035,0,-0.00021,-0.00078,0.00012,-5e-05,0.00054,6e-05,2,18
5349,0,-0.0001,5e-05,1e-05,0.00021,8e-05,-0.00033,-0.00012,2,18
5350,0.00018,0,3e-05,-0.00051,-6e-05,0.00012,-0.00014,1e-05,2,18
5351,0.00018,0,3e-05,-0.00051,-6e-05,0.00012,-0.00014,1e-05,2,18
5352,0.00018,0,3e-05,-0.00051,-6e-05,0.00012,-0.00014,1e-05,2,18
5353,0.00018,0,3e-05,-0.00051,-6e-05,0.00012,-0.00014,1e-05,2,18
5354,0.00018,0,3e-05,-0.00051,-6e-05,0.00012,-0.00014,1e-05,2,18
5355,0.00018,0,3e-05,-0.00051,-6e-05,0.00012,-0.00014,1e-05,2,18
5356,0.00018,0,3e-05,-0.00051,-6e-05,0.00012,-0.00014,1e-05,2,18
5357,0.00018,0,3e-05,-0.00051,-6e-05,0.00012,-0.00014,1e-05,2,18
5358,0.00018,0,3e-05,-0.00051,-6e-05,0.00012,-0.00014,1e-05,2,18
5359,0.00018,0,3e-05,-0.00051,-6e-05,0.00012,-0.00014,1e-05,2,18
5360,0.00018,0,3e-05,-0.00051,-6e-05,0.00012,-0.00014,1e-05,2,18
5361,0.00018,0,3e-05,-0.00051,-6e-05,0.00012,-0.00014,1e-05,2,18
5362,0.00018,0,3e-05,-0.00051,-6e-05,0.00012,-0.00014,1e-05,2,18
5363,-6e-05,-2e-05,-7e-05,-6e-05,-0.00011,-4e-05,2e-05,0,2,18
5364,0.00018,4e-05,9e-05,0.0001,3e-05,0.00055,-3e-05,0.00013,2,18
5365,0.00037,-2e-05,-0.00011,-0.00027,3e-05,-0.00048,0.00022,0.00016,2,18
5366,0.00037,-2e-05,-0.00011,-0.00027,3e-05,-0.00048,0.00022,0.00016,2,18
5367,0.00037,-2e-05,-0.00011,-0.00027,3e-05,-0.00048,0.00022,0.00016,2,18
5368,0.00037,-2e-05,-0.00011,-0.00027,3e-05,-0.00048,0.00022,0.00016,2,18
5369,0.00037,-2e-05,-0.00011,-0.00027,3e-05,-0.00048,0.00022,0.00016,2,18
5370,0.00037,-2e-05,-0.00011,-0.00027,3e-05,-0.00048,0.00022,0.00016,2,18
5371,0.00037,-2e-05,-0.00011,-0.00027,3e-05,-0.00048,0.00022,0.00016,2,18
5372,0.00037,-2e-05,-0.00011,-0.00027,3e-05,-0.00048,0.00022,0.00016,2,18
5373,0.00037,-2e-05,-0.00011,-0.00027,3e-05,-0.00048,0.00022,0.00016,2,18
5374,0.00037,-2e-05,-0.00011,-0.00027,3e-05,-0.00048,0.00022,0.00016,2,18
5376,0.00037,-2e-05,-0.00011,-0.00027,3e-05,-0.00048,0.00022,0.00016,2,18
5377,0.00037,-2e-05,-0.00011,-0.00027,3e-05,-0.00048,0.00022,0.00016,2,18
5378,0.00037,-2e-05,-0.00011,-0.00027,3e-05,-0.00048,0.00022,0.00016,2,18
5379,0.00037,-2e-05,-0.00011,-0.00027,3e-05,-0.00048,0.00022,0.00016,2,18
5380,0.00037,-2e-05,-0.00011,-0.00027,3e-05,-0.00048,0.00022,0.00016,2,18
5381,0.00037,-2e-05,-0.00011,-0.00027,3e-05,-0.00048,0.00022,0.00016,2,18
5382,0.00037,-2e-05,-0.00011,-0.00027,3e-05,-0.00048,0.00022,0.00016,2,18
5383,0.00037,-2e-05,-0.00011,-0.00027,3e-05,-0.00048,0.00022,0.00016,2,18
5384,0.00037,-2e-05,-0.00011,-0.00027,3e-05,-0.00048,0.00022,0.00016,2,18
5385,0.0002,-4e-05,-9e-05,-0.00061,-3e-05,0.00022,-0.00017,-0.00016,2,18
5386,0.0002,-4e-05,-9e-05,-0.00061,-3e-05,0.00022,-0.00017,-0.00016,2,18
5388,9e-05,0,-7e-05,-0.00032,-0.00016,5e-05,0.00053,0.0001,2,18
5389,9e-05,0,-7e-05,-0.00032,-0.00016,5e-05,0.00053,0.0001,2,18
5390,9e-05,0,-7e-05,-0.00032,-0.00016,5e-05,0.00053,0.0001,2,18
5391,9e-05,0,-7e-05,-0.00032,-0.00016,5e-05,0.00053,0.0001,2,18
5392,9e-05,0,-7e-05,-0.00032,-0.00016,5e-05,0.00053,0.0001,2,18
5393,9e-05,0,-7e-05,-0.00032,-0.00016,5e-05,0.00053,0.0001,2,18
5394,9e-05,0,-7e-05,-0.00032,-0.00016,5e-05,0.00053,0.0001,2,18
5395,9e-05,0,-7e-05,-0.00032,-0.00016,5e-05,0.00053,0.0001,2,18
5396,9e-05,0,-7e-05,-0.00032,-0.00016,5e-05,0.00053,0.0001,2,18
5397,9e-05,0,-7e-05,-0.00032,-0.00016,5e-05,0.00053,0.0001,2,18
5398,9e-05,0,-7e-05,-0.00032,-0.00016,5e-05,0.00053,0.0001,2,18
5399,9e-05,0,-7e-05,-0.00032,-0.00016,5e-05,0.00053,0.0001,2,18
5400,9e-05,0,-7e-05,-0.00032,-0.00016,5e-05,0.00053,0.0001,2,18
5401,9e-05,0,-7e-05,-0.00032,-0.00016,5e-05,0.00053,0.0001,2,18
5402,9e-05,0,-7e-05,-0.00032,-0.00016,5e-05,0.00053,0.0001,2,18
5403,9e-05,0,-7e-05,-0.00032,-0.00016,5e-05,0.00053,0.0001,2,18
5404,9e-05,0,-7e-05,-0.00032,-0.00016,5e-05,0.00053,0.0001,2,18
5405,9e-05,0,-7e-05,-0.00032,-0.00016,5e-05,0.00053,0.0001,2,18
5406,9e-05,0,-7e-05,-0.00032,-0.00016,5e-05,0.00053,0.0001,2,18
5407,9e-05,0,-7e-05,-0.00032,-0.00016,5e-05,0.00053,0.0001,2,18
5408,-0.00023,-2e-05,3e-05,0.0003,-0.0001,-0.00016,0.00034,0.00011,2,18
5409,-0.00023,-2e-05,3e-05,0.0003,-0.0001,-0.00016,0.00034,0.00011,2,18
5410,-0.00064,-4e-05,-8e-05,-0.00098,-0.00011,-5e-05,0.00016,-1e-05,2,18
5411,-0.00064,-4e-05,-8e-05,-0.00098,-0.00011,-5e-05,0.00016,-1e-05,2,18
5412,-0.00064,-4e-05,-8e-05,-0.00098,-0.00011,-5e-05,0.00016,-1e-05,2,18
5413,-0.00064,-4e-05,-8e-05,-0.00098,-0.00011,-5e-05,0.00016,-1e-05,2,18
5414,-0.00064,-4e-05,-8e-05,-0.00098,-0.00011,-5e-05,0.00016,-1e-05,2,18
5415,-0.00064,-4e-05,-8e-05,-0.00098,-0.00011,-5e-05,0.00016,-1e-05,2,18
5416,-0.00064,-4e-05,-8e-05,-0.00098,-0.00011,-5e-05,0.00016,-1e-05,2,18
5417,-0.00064,-4e-05,-8e-05,-0.00098,-0.00011,-5e-05,0.00016,-1e-05,2,18
5418,-0.00064,-4e-05,-8e-05,-0.00098,-0.00011,-5e-05,0.00016,-1e-05,2,18
5419,-0.00064,-4e-05,-8e-05,-0.00098,-0.00011,-5e-05,0.00016,-1e-05,2,18
5420,-0.00064,-4e-05,-8e-05,-0.00098,-0.00011,-5e-05,0.00016,-1e-05,2,18
5421,-0.00064,-4e-05,-8e-05,-0.00098,-0.00011,-5e-05,0.00016,-1e-05,2,18
5422,-0.00064,-4e-05,-8e-05,-0.00098,-0.00011,-5e-05,0.00016,-1e-05,2,18
5423,0.00028,4e-05,7e-05,0.00037,0.00011,-0.00042,-0.00031,8e-05,2,18
5424,0.00069,-5e-05,-4e-05,4e-05,-0.00021,-0.00015,1e-05,-1e-05,2,18
5425,-0.00116,-9e-05,-0.0001,0.00032,0.0003,0.00042,-0.00047,-0.00027,2,18
5426,-0.00116,-9e-05,-0.0001,0.00032,0.0003,0.00042,-0.00047,-0.00027,2,18
5427,-0.00116,-9e-05,-0.0001,0.00032,0.0003,0.00042,-0.00047,-0.00027,2,18
5428,-0.00116,-9e-05,-0.0001,0.00032,0.0003,0.00042,-0.00047,-0.00027,2,18
5429,-0.00116,-9e-05,-0.0001,0.00032,0.0003,0.00042,-0.00047,-0.00027,2,18
5430,-0.00116,-9e-05,-0.0001,0.00032,0.0003,0.00042,-0.00047,-0.00027,2,18
5431,-0.00116,-9e-05,-0.0001,0.00032,0.0003,0.00042,-0.00047,-0.00027,2,18
5432,-0.00116,-9e-05,-0.0001,0.00032,0.0003,0.00042,-0.00047,-0.00027,2,18
5433,-0.00116,-9e-05,-0.0001,0.00032,0.0003,0.00042,-0.00047,-0.00027,2,18
5434,-0.00116,-9e-05,-0.0001,0.00032,0.0003,0.00042,-0.00047,-0.00027,2,18
5435,-0.00116,-9e-05,-0.0001,0.00032,0.0003,0.00042,-0.00047,-0.00027,2,18
5436,-0.00116,-9e-05,-0.0001,0.00032,0.0003,0.00042,-0.00047,-0.00027,2,18
5438,-0.00116,-9e-05,-0.0001,0.00032,0.0003,0.00042,-0.00047,-0.00027,2,18
5439,-0.00116,-9e-05,-0.0001,0.00032,0.0003,0.00042,-0.00047,-0.00027,2,18
5440,-0.00116,-9e-05,-0.0001,0.00032,0.0003,0.00042,-0.00047,-0.00027,2,18
5441,-0.00116,-9e-05,-0.0001,0.00032,0.0003,0.00042,-0.00047,-0.00027,2,18
5442,-0.00116,-9e-05,-0.0001,0.00032,0.0003,0.00042,-0.00047,-0.00027,2,18
5443,-0.00116,-9e-05,-0.0001,0.00032,0.0003,0.00042,-0.00047,-0.00027,2,18
5444,-0.00116,-9e-05,-0.0001,0.00032,0.0003,0.00042,-0.00047,-0.00027,2,18
5445,0.00046,5e-05,3e-05,-0.00027,-0.0001,4e-05,0.00047,0.00025,2,18
5446,-0.0003,5e-05,0.00015,0.00039,5e-05,-0.00023,0.00079,0.00027,2,18
5447,0.00035,-6e-05,-0.0001,0,-6e-05,-0.00018,-0.00077,-0.00034,2,18
5448,0.00035,-6e-05,-0.0001,0,-6e-05,-0.00018,-0.00077,-0.00034,2,18
5449,0.00035,-6e-05,-0.0001,0,-6e-05,-0.00018,-0.00077,-0.00034,2,18
5450,0.00035,-6e-05,-0.0001,0,-6e-05,-0.00018,-0.00077,-0.00034,2,18
5451,0.00035,-6e-05,-0.0001,0,-6e-05,-0.00018,-0.00077,-0.00034,2,18
5452,0.00035,-6e-05,-0.0001,0,-6e-05,-0.00018,-0.00077,-0.00034,2,18
5453,0.00035,-6e-05,-0.0001,0,-6e-05,-0.00018,-0.00077,-0.00034,2,18
5454,0.00035,-6e-05,-0.0001,0,-6e-05,-0.00018,-0.00077,-0.00034,2,18
5455,0.00035,-6e-05,-0.0001,0,-6e-05,-0.00018,-0.00077,-0.00034,2,18
5456,0.00035,-6e-05,-0.0001,0,-6e-05,-0.00018,-0.00077,-0.00034,2,18
5457,0.00035,-6e-05,-0.0001,0,-6e-05,-0.00018,-0.00077,-0.00034,2,18
5458,0.00035,-6e-05,-0.0001,0,-6e-05,-0.00018,-0.00077,-0.00034,2,18
5459,0.00035,-6e-05,-0.0001,0,-6e-05,-0.00018,-0.00077,-0.00034,2,18
5460,0.00057,0,-1e-05,-9e-05,-0.00012,0.00031,-1e-05,-0.00022,2,18
5461,0.00057,0,-1e-05,-9e-05,-0.00012,0.00031,-1e-05,-0.00022,2,18
5462,0.00057,0,-1e-05,-9e-05,-0.00012,0.00031,-1e-05,-0.00022,2,18
5463,0.00057,0,-1e-05,-9e-05,-0.00012,0.00031,-1e-05,-0.00022,2,18
5464,0.00057,0,-1e-05,-9e-05,-0.00012,0.00031,-1e-05,-0.00022,2,18
5465,0.00057,0,-1e-05,-9e-05,-0.00012,0.00031,-1e-05,-0.00022,2,18
5466,-0.00053,0.0001,3e-05,-0.00022,3e-05,2e-05,0.00061,0.00039,2,18
5467,0.00039,-3e-05,5e-05,0.00034,0.00014,-2e-05,-0.00025,0.00011,2,18
5468,0.00039,-3e-05,5e-05,0.00034,0.00014,-2e-05,-0.00025,0.00011,2,18
5469,0.00039,-3e-05,5e-05,0.00034,0.00014,-2e-05,-0.00025,0.00011,2,18
5470,0.00039,-3e-05,5e-05,0.00034,0.00014,-2e-05,-0.00025,0.00011,2,18
5471,0.00039,-3e-05,5e-05,0.00034,0.00014,-2e-05,-0.00025,0.00011,2,18
5472,0.00039,-3e-05,5e-05,0.00034,0.00014,-2e-05,-0.00025,0.00011,2,18
5473,0.00039,-3e-05,5e-05,0.00034,0.00014,-2e-05,-0.00025,0.00011,2,18
5474,0.00039,-3e-05,5e-05,0.00034,0.00014,-2e-05,-0.00025,0.00011,2,18
5475,0.00039,-3e-05,5e-05,0.00034,0.00014,-2e-05,-0.00025,0.00011,2,18
5476,0.00039,-3e-05,5e-05,0.00034,0.00014,-2e-05,-0.00025,0.00011,2,18
5477,0.00039,-3e-05,5e-05,0.00034,0.00014,-2e-05,-0.00025,0.00011,2,18
5478,0.00039,-3e-05,5e-05,0.00034,0.00014,-2e-05,-0.00025,0.00011,2,18
5479,0.00039,-3e-05,5e-05,0.00034,0.00014,-2e-05,-0.00025,0.00011,2,18
5480,0.00039,-3e-05,5e-05,0.00034,0.00014,-2e-05,-0.00025,0.00011,2,18
5481,0.00039,-3e-05,5e-05,0.00034,0.00014,-2e-05,-0.00025,0.00011,2,18
5482,0.00039,-3e-05,5e-05,0.00034,0.00014,-2e-05,-0.00025,0.00011,2,18
5483,-0.00042,-1e-05,0,-0.00015,-2e-05,-4e-05,-8e-05,-5e-05,2,18
5484,-6e-05,-5e-05,-0.00018,-0.00031,0.00047,0.00027,-0.00029,2e-05,2,18
5485,-6e-05,-5e-05,-0.00018,-0.00031,0.00047,0.00027,-0.00029,2e-05,2,18
5486,-6e-05,-5e-05,-0.00018,-0.00031,0.00047,0.00027,-0.00029,2e-05,2,18
5488,-6e-05,-5e-05,-0.00018,-0.00031,0.00047,0.00027,-0.00029,2e-05,2,18
5489,-6e-05,-5e-05,-0.00018,-0.00031,0.00047,0.00027,-0.00029,2e-05,2,18
5490,-6e-05,-5e-05,-0.00018,-0.00031,0.00047,0.00027,-0.00029,2e-05,2,18
5491,-6e-05,-5e-05,-0.00018,-0.00031,0.00047,0.00027,-0.00029,2e-05,2,18
5492,-6e-05,-5e-05,-0.00018,-0.00031,0.00047,0.00027,-0.00029,2e-05,2,18
5493,-6e-05,-5e-05,-0.00018,-0.00031,0.00047,0.00027,-0.00029,2e-05,2,18
5494,-6e-05,-5e-05,-0.00018,-0.00031,0.00047,0.00027,-0.00029,2e-05,2,18
5495,-6e-05,-5e-05,-0.00018,-0.00031,0.00047,0.00027,-0.00029,2e-05,2,18
5496,-6e-05,-5e-05,-0.00018,-0.00031,0.00047,0.00027,-0.00029,2e-05,2,18
5497,-6e-05,-5e-05,-0.00018,-0.00031,0.00047,0.00027,-0.00029,2e-05,2,18
5498,-6e-05,-5e-05,-0.00018,-0.00031,0.00047,0.00027,-0.00029,2e-05,2,18
5499,-6e-05,-5e-05,-0.00018,-0.00031,0.00047,0.00027,-0.00029,2e-05,2,18
5500,-6e-05,-5e-05,-0.00018,-0.00031,0.00047,0.00027,-0.00029,2e-05,2,18
5501,-6e-05,-5e-05,-0.00018,-0.00031,0.00047,0.00027,-0.00029,2e-05,2,18
5502,-6e-05,-5e-05,-0.00018,-0.00031,0.00047,0.00027,-0.00029,2e-05,2,18
5503,-6e-05,-5e-05,-0.00018,-0.00031,0.00047,0.00027,-0.00029,2e-05,2,18
5504,-6e-05,-5e-05,-0.00018,-0.00031,0.00047,0.00027,-0.00029,2e-05,2,18
5505,-0.00041,-1e-05,-3e-05,0,-1e-05,8e-05,0.00061,5e-05,2,18
5506,-0.00041,-1e-05,-3e-05,0,-1e-05,8e-05,0.00061,5e-05,2,18
5507,0.00083,-3e-05,2e-05,0.00037,-0.00019,-0.00013,0.0003,2e-05,2,18
5508,0.00083,-3e-05,2e-05,0.00037,-0.00019,-0.00013,0.0003,2e-05,2,18
5509,0.00083,-3e-05,2e-05,0.00037,-0.00019,-0.00013,0.0003,2e-05,2,18
5510,0.00083,-3e-05,2e-05,0.00037,-0.00019,-0.00013,0.0003,2e-05,2,18
5511,0.00083,-3e-05,2e-05,0.00037,-0.00019,-0.00013,0.0003,2e-05,2,18
5512,0.00083,-3e-05,2e-05,0.00037,-0.00019,-0.00013,0.0003,2e-05,2,18
5513,0.00083,-3e-05,2e-05,0.00037,-0.00019,-0.00013,0.0003,2e-05,2,18
5514,0.00083,-3e-05,2e-05,0.00037,-0.00019,-0.00013,0.0003,2e-05,2,18
5516,0.00083,-3e-05,2e-05,0.00037,-0.00019,-0.00013,0.0003,2e-05,2,18
5517,0.00083,-3e-05,2e-05,0.00037,-0.00019,-0.00013,0.0003,2e-05,2,18
5518,0.00083,-3e-05,2e-05,0.00037,-0.00019,-0.00013,0.0003,2e-05,2,18
5519,0.00083,-3e-05,2e-05,0.00037,-0.00019,-0.00013,0.0003,2e-05,2,18
5520,0.0002,-7e-05,3e-05,0.00054,0.00027,0.00073,-0.00012,-0.00024,2,18
5521,0.0002,-7e-05,3e-05,0.00054,0.00027,0.00073,-0.00012,-0.00024,2,18
5522,0.0002,-7e-05,3e-05,0.00054,0.00027,0.00073,-0.00012,-0.00024,2,18
5523,0.0002,-7e-05,3e-05,0.00054,0.00027,0.00073,-0.00012,-0.00024,2,18
5524,0.0002,-7e-05,3e-05,0.00054,0.00027,0.00073,-0.00012,-0.00024,2,18
5525,0.0002,-7e-05,3e-05,0.00054,0.00027,0.00073,-0.00012,-0.00024,2,18
5526,0.0002,-7e-05,3e-05,0.00054,0.00027,0.00073,-0.00012,-0.00024,2,18
5527,6e-05,-8e-05,-0.0001,-0.00055,0.00033,0.00013,0.0007,-9e-05,2,18
5528,6e-05,-8e-05,-0.0001,-0.00055,0.00033,0.00013,0.0007,-9e-05,2,18
5529,6e-05,-8e-05,-0.0001,-0.00055,0.00033,0.00013,0.0007,-9e-05,2,18
5530,6e-05,-8e-05,-0.0001,-0.00055,0.00033,0.00013,0.0007,-9e-05,2,18
5531,6e-05,-8e-05,-0.0001,-0.00055,0.00033,0.00013,0.0007,-9e-05,2,18
5532,6e-05,-8e-05,-0.0001,-0.00055,0.00033,0.00013,0.0007,-9e-05,2,18
5533,6e-05,-8e-05,-0.0001,-0.00055,0.00033,0.00013,0.0007,-9e-05,2,18
5534,6e-05,-8e-05,-0.0001,-0.00055,0.00033,0.00013,0.0007,-9e-05,2,18
5535,6e-05,-8e-05,-0.0001,-0.00055,0.00033,0.00013,0.0007,-9e-05,2,18
5536,6e-05,-8e-05,-0.0001,-0.00055,0.00033,0.00013,0.0007,-9e-05,2,18
5538,6e-05,-8e-05,-0.0001,-0.00055,0.00033,0.00013,0.0007,-9e-05,2,18
5539,6e-05,-8e-05,-0.0001,-0.00055,0.00033,0.00013,0.0007,-9e-05,2,18
5540,6e-05,-8e-05,-0.0001,-0.00055,0.00033,0.00013,0.0007,-9e-05,2,18
5541,6e-05,-8e-05,-0.0001,-0.00055,0.00033,0.00013,0.0007,-9e-05,2,18
5542,6e-05,-8e-05,-0.0001,-0.00055,0.00033,0.00013,0.0007,-9e-05,2,18
5543,6e-05,-8e-05,-0.0001,-0.00055,0.00033,0.00013,0.0007,-9e-05,2,18
5544,0.00025,-2e-05,-6e-05,-0.00042,1e-05,9e-05,5e-05,0.00016,2,18
5545,0.00024,0.00021,6e-05,0.0001,0.00022,3e-05,-0.00028,-0.00014,2,18
5546,0.00024,0.00021,6e-05,0.0001,0.00022,3e-05,-0.00028,-0.00014,2,18
5547,0.00024,0.00021,6e-05,0.0001,0.00022,3e-05,-0.00028,-0.00014,2,18
5548,0.00024,0.00021,6e-05,0.0001,0.00022,3e-05,-0.00028,-0.00014,2,18
5549,0.00024,0.00021,6e-05,0.0001,0.00022,3e-05,-0.00028,-0.00014,2,18
5550,0.00024,0.00021,6e-05,0.0001,0.00022,3e-05,-0.00028,-0.00014,2,18
5551,0.00024,0.00021,6e-05,0.0001,0.00022,3e-05,-0.00028,-0.00014,2,18
5552,0.00024,0.00021,6e-05,0.0001,0.00022,3e-05,-0.00028,-0.00014,2,18
5553,0.00024,0.00021,6e-05,0.0001,0.00022,3e-05,-0.00028,-0.00014,2,18
5554,0.00024,0.00021,6e-05,0.0001,0.00022,3e-05,-0.00028,-0.00014,2,18
5555,0.00024,0.00021,6e-05,0.0001,0.00022,3e-05,-0.00028,-0.00014,2,18
5556,0.00024,0.00021,6e-05,0.0001,0.00022,3e-05,-0.00028,-0.00014,2,18
5557,0.00024,0.00021,6e-05,0.0001,0.00022,3e-05,-0.00028,-0.00014,2,18
5558,0.00024,0.00021,6e-05,0.0001,0.00022,3e-05,-0.00028,-0.00014,2,18
5559,0.00024,0.00021,6e-05,0.0001,0.00022,3e-05,-0.00028,-0.00014,2,18
5560,0.00024,0.00021,6e-05,0.0001,0.00022,3e-05,-0.00028,-0.00014,2,18
5561,0.00024,0.00021,6e-05,0.0001,0.00022,3e-05,-0.00028,-0.00014,2,18
5562,0.00024,0.00021,6e-05,0.0001,0.00022,3e-05,-0.00028,-0.00014,2,18
5563,0.00024,0.00021,6e-05,0.0001,0.00022,3e-05,-0.00028,-0.00014,2,18
5564,0.00024,0.00021,6e-05,0.0001,0.00022,3e-05,-0.00028,-0.00014,2,18
5565,-7e-05,-2e-05,-0.00013,-0.00087,-5e-05,-0.00017,-4e-05,-2e-05,2,18
5566,-0.00036,-6e-05,8e-05,-0.00024,3e-05,0.00011,0.0001,-6e-05,2,18
5567,-0.00029,7e-05,0.00013,0.00041,-0.00022,-0.00011,-0.00021,9e-05,2,18
5568,-0.00029,7e-05,0.00013,0.00041,-0.00022,-0.00011,-0.00021,9e-05,2,18
5569,-0.00029,7e-05,0.00013,0.00041,-0.00022,-0.00011,-0.00021,9e-05,2,18
5570,-0.00029,7e-05,0.00013,0.00041,-0.00022,-0.00011,-0.00021,9e-05,2,18
5571,-0.00029,7e-05,0.00013,0.00041,-0.00022,-0.00011,-0.00021,9e-05,2,18
5572,-0.00029,7e-05,0.00013,0.00041,-0.00022,-0.00011,-0.00021,9e-05,2,18
5573,-0.00029,7e-05,0.00013,0.00041,-0.00022,-0.00011,-0.00021,9e-05,2,18
5574,-0.00029,7e-05,0.00013,0.00041,-0.00022,-0.00011,-0.00021,9e-05,2,18
5575,-0.00029,7e-05,0.00013,0.00041,-0.00022,-0.00011,-0.00021,9e-05,2,18
5576,-0.00029,7e-05,0.00013,0.00041,-0.00022,-0.00011,-0.00021,9e-05,2,18
5577,-0.00029,7e-05,0.00013,0.00041,-0.00022,-0.00011,-0.00021,9e-05,2,18
5578,-0.00029,7e-05,0.00013,0.00041,-0.00022,-0.00011,-0.00021,9e-05,2,18
5579,-0.00029,7e-05,0.00013,0.00041,-0.00022,-0.00011,-0.00021,9e-05,2,18
5580,-0.00029,7e-05,0.00013,0.00041,-0.00022,-0.00011,-0.00021,9e-05,2,18
5581,-0.00029,7e-05,0.00013,0.00041,-0.00022,-0.00011,-0.00021,9e-05,2,18
5582,-0.00029,7e-05,0.00013,0.00041,-0.00022,-0.00011,-0.00021,9e-05,2,18
5583,-0.00029,7e-05,0.00013,0.00041,-0.00022,-0.00011,-0.00021,9e-05,2,18
5584,-0.00029,7e-05,0.00013,0.00041,-0.00022,-0.00011,-0.00021,9e-05,2,18
5585,-0.00029,7e-05,0.00013,0.00041,-0.00022,-0.00011,-0.00021,9e-05,2,18
5586,-0.00029,7e-05,0.00013,0.00041,-0.00022,-0.00011,-0.00021,9e-05,2,18
5588,-0.00031,-5e-05,-5e-05,-0.0004,5e-05,0.00015,0.0001,-4e-05,2,18
5589,0.00057,-7e-05,-3e-05,-0.00034,0,-0.00018,-0.00016,-0.00015,2,18
5590,0.00057,-7e-05,-3e-05,-0.00034,0,-0.00018,-0.00016,-0.00015,2,18
5591,0.00057,-7e-05,-3e-05,-0.00034,0,-0.00018,-0.00016,-0.00015,2,18
5592,0.00057,-7e-05,-3e-05,-0.00034,0,-0.00018,-0.00016,-0.00015,2,18
5593,0.00057,-7e-05,-3e-05,-0.00034,0,-0.00018,-0.00016,-0.00015,2,18
5594,0.00057,-7e-05,-3e-05,-0.00034,0,-0.00018,-0.00016,-0.00015,2,18
5595,0.00057,-7e-05,-3e-05,-0.00034,0,-0.00018,-0.00016,-0.00015,2,18
5596,-0.00012,-3e-05,4e-05,0.00011,-0.00021,-0.00013,0.00016,-4e-05,2,18
5597,-0.00012,-3e-05,4e-05,0.00011,-0.00021,-0.00013,0.00016,-4e-05,2,18
5598,-0.00012,-3e-05,4e-05,0.00011,-0.00021,-0.00013,0.00016,-4e-05,2,18
5599,-0.00012,-3e-05,4e-05,0.00011,-0.00021,-0.00013,0.00016,-4e-05,2,18
5600,-0.00012,-3e-05,4e-05,0.00011,-0.00021,-0.00013,0.00016,-4e-05,2,18
5601,-0.00012,-3e-05,4e-05,0.00011,-0.00021,-0.00013,0.00016,-4e-05,2,18
5602,-0.00012,-3e-05,4e-05,0.00011,-0.00021,-0.00013,0.00016,-4e-05,2,18
5603,-0.00026,-4e-05,-0.00029,-0.00056,0.00061,0.00052,-0.00037,0.00035,2,18
5604,6e-05,6e-05,0.00024,0.0012,0.00016,0.00016,0.00016,0.00023,2,18
5605,6e-05,6e-05,0.00024,0.0012,0.00016,0.00016,0.00016,0.00023,2,18
5606,6e-05,6e-05,0.00024,0.0012,0.00016,0.00016,0.00016,0.00023,2,18
5607,6e-05,6e-05,0.00024,0.0012,0.00016,0.00016,0.00016,0.00023,2,18
5608,6e-05,6e-05,0.00024,0.0012,0.00016,0.00016,0.00016,0.00023,2,18
5609,6e-05,6e-05,0.00024,0.0012,0.00016,0.00016,0.00016,0.00023,2,18
5610,6e-05,6e-05,0.00024,0.0012,0.00016,0.00016,0.00016,0.00023,2,18
5611,6e-05,6e-05,0.00024,0.0012,0.00016,0.00016,0.00016,0.00023,2,18
5612,6e-05,6e-05,0.00024,0.0012,0.00016,0.00016,0.00016,0.00023,2,18
5613,6e-05,6e-05,0.00024,0.0012,0.00016,0.00016,0.00016,0.00023,2,18
5614,6e-05,6e-05,0.00024,0.0012,0.00016,0.00016,0.00016,0.00023,2,18
5615,6e-05,6e-05,0.00024,0.0012,0.00016,0.00016,0.00016,0.00023,2,18
5616,6e-05,6e-05,0.00024,0.0012,0.00016,0.00016,0.00016,0.00023,2,18
5617,6e-05,6e-05,0.00024,0.0012,0.00016,0.00016,0.00016,0.00023,2,18
5618,6e-05,6e-05,0.00024,0.0012,0.00016,0.00016,0.00016,0.00023,2,18
5619,6e-05,6e-05,0.00024,0.0012,0.00016,0.00016,0.00016,0.00023,2,18
5620,6e-05,6e-05,0.00024,0.0012,0.00016,0.00016,0.00016,0.00023,2,18
5621,6e-05,6e-05,0.00024,0.0012,0.00016,0.00016,0.00016,0.00023,2,18
5622,6e-05,6e-05,0.00024,0.0012,0.00016,0.00016,0.00016,0.00023,2,18
5623,6e-05,6e-05,0.00024,0.0012,0.00016,0.00016,0.00016,0.00023,2,18
5624,6e-05,6e-05,0.00024,0.0012,0.00016,0.00016,0.00016,0.00023,2,18
5625,-0.00041,-5e-05,5e-05,0.0002,-0.00022,-0.00028,-0.00061,5e-05,2,18
5626,-0.00041,-5e-05,5e-05,0.0002,-0.00022,-0.00028,-0.00061,5e-05,2,18
5627,-0.0011,-2e-05,1e-05,5e-05,-0.00016,-0.00038,-0.0003,-4e-05,2,18
5628,-0.0011,-2e-05,1e-05,5e-05,-0.00016,-0.00038,-0.0003,-4e-05,2,18
5629,-0.0011,-2e-05,1e-05,5e-05,-0.00016,-0.00038,-0.0003,-4e-05,2,18
5630,-0.0011,-2e-05,1e-05,5e-05,-0.00016,-0.00038,-0.0003,-4e-05,2,18
5631,-0.0011,-2e-05,1e-05,5e-05,-0.00016,-0.00038,-0.0003,-4e-05,2,18
5632,-0.0011,-2e-05,1e-05,5e-05,-0.00016,-0.00038,-0.0003,-4e-05,2,18
5633,-0.0011,-2e-05,1e-05,5e-05,-0.00016,-0.00038,-0.0003,-4e-05,2,18
5634,-0.0011,-2e-05,1e-05,5e-05,-0.00016,-0.00038,-0.0003,-4e-05,2,18
5635,-0.0011,-2e-05,1e-05,5e-05,-0.00016,-0.00038,-0.0003,-4e-05,2,18
5636,-0.0011,-2e-05,1e-05,5e-05,-0.00016,-0.00038,-0.0003,-4e-05,2,18
5638,-0.0011,-2e-05,1e-05,5e-05,-0.00016,-0.00038,-0.0003,-4e-05,2,18
5639,-0.0011,-2e-05,1e-05,5e-05,-0.00016,-0.00038,-0.0003,-4e-05,2,18
5640,0,6e-05,5e-05,0.00012,-2e-05,-4e-05,-0.0001,-7e-05,2,18
5641,0,6e-05,5e-05,0.00012,-2e-05,-4e-05,-0.0001,-7e-05,2,18
5642,0,6e-05,5e-05,0.00012,-2e-05,-4e-05,-0.0001,-7e-05,2,18
5643,0,6e-05,5e-05,0.00012,-2e-05,-4e-05,-0.0001,-7e-05,2,18
5644,0,6e-05,5e-05,0.00012,-2e-05,-4e-05,-0.0001,-7e-05,2,18
5645,0,6e-05,5e-05,0.00012,-2e-05,-4e-05,-0.0001,-7e-05,2,18
5646,0,6e-05,5e-05,0.00012,-2e-05,-4e-05,-0.0001,-7e-05,2,18
5647,0,6e-05,5e-05,0.00012,-2e-05,-4e-05,-0.0001,-7e-05,2,18
5648,0.00052,4e-05,5e-05,-0.00023,-1e-05,0,0.00021,9e-05,2,18
5649,0.00052,4e-05,5e-05,-0.00023,-1e-05,0,0.00021,9e-05,2,18
5650,0.00052,4e-05,5e-05,-0.00023,-1e-05,0,0.00021,9e-05,2,18
5651,0.00052,4e-05,5e-05,-0.00023,-1e-05,0,0.00021,9e-05,2,18
5652,0.00052,4e-05,5e-05,-0.00023,-1e-05,0,0.00021,9e-05,2,18
5653,0.00052,4e-05,5e-05,-0.00023,-1e-05,0,0.00021,9e-05,2,18
5654,0.00052,4e-05,5e-05,-0.00023,-1e-05,0,0.00021,9e-05,2,18
5655,0.00052,4e-05,5e-05,-0.00023,-1e-05,0,0.00021,9e-05,2,18
5656,0.00052,4e-05,5e-05,-0.00023,-1e-05,0,0.00021,9e-05,2,18
5657,0.00052,4e-05,5e-05,-0.00023,-1e-05,0,0.00021,9e-05,2,18
5658,0.00052,4e-05,5e-05,-0.00023,-1e-05,0,0.00021,9e-05,2,18
5659,0.00052,4e-05,5e-05,-0.00023,-1e-05,0,0.00021,9e-05,2,18
5660,0.00052,4e-05,5e-05,-0.00023,-1e-05,0,0.00021,9e-05,2,18
5661,0.00052,4e-05,5e-05,-0.00023,-1e-05,0,0.00021,9e-05,2,18
5662,0.00052,4e-05,5e-05,-0.00023,-1e-05,0,0.00021,9e-05,2,18
5663,-3e-05,0,-6e-05,-0.00022,4e-05,5e-05,0.00056,9e-05,2,18
5664,-0.00025,6e-05,0.00027,0.00023,-0.00049,-0.00024,-0.00028,9e-05,2,18
5665,-0.00025,6e-05,0.00027,0.00023,-0.00049,-0.00024,-0.00028,9e-05,2,18
5666,-0.00025,6e-05,0.00027,0.00023,-0.00049,-0.00024,-0.00028,9e-05,2,18
5667,-0.00025,6e-05,0.00027,0.00023,-0.00049,-0.00024,-0.00028,9e-05,2,18
5668,-0.00025,6e-05,0.00027,0.00023,-0.00049,-0.00024,-0.00028,9e-05,2,18
5669,-0.00025,6e-05,0.00027,0.00023,-0.00049,-0.00024,-0.00028,9e-05,2,18
5670,-0.00025,6e-05,0.00027,0.00023,-0.00049,-0.00024,-0.00028,9e-05,2,18
5671,-0.00025,6e-05,0.00027,0.00023,-0.00049,-0.00024,-0.00028,9e-05,2,18
5672,-0.00025,6e-05,0.00027,0.00023,-0.00049,-0.00024,-0.00028,9e-05,2,18
5673,-0.00025,6e-05,0.00027,0.00023,-0.00049,-0.00024,-0.00028,9e-05,2,18
5674,-0.00025,6e-05,0.00027,0.00023,-0.00049,-0.00024,-0.00028,9e-05,2,18
5675,-0.00025,6e-05,0.00027,0.00023,-0.00049,-0.00024,-0.00028,9e-05,2,18
5676,-0.00025,6e-05,0.00027,0.00023,-0.00049,-0.00024,-0.00028,9e-05,2,18
5677,-0.00025,6e-05,0.00027,0.00023,-0.00049,-0.00024,-0.00028,9e-05,2,18
5678,-0.00025,6e-05,0.00027,0.00023,-0.00049,-0.00024,-0.00028,9e-05,2,18
5679,-0.00025,6e-05,0.00027,0.00023,-0.00049,-0.00024,-0.00028,9e-05,2,18
5680,-0.00025,6e-05,0.00027,0.00023,-0.00049,-0.00024,-0.00028,9e-05,2,18
5681,-0.00025,6e-05,0.00027,0.00023,-0.00049,-0.00024,-0.00028,9e-05,2,18
5682,-0.00025,6e-05,0.00027,0.00023,-0.00049,-0.00024,-0.00028,9e-05,2,18
5683,-0.00025,6e-05,0.00027,0.00023,-0.00049,-0.00024,-0.00028,9e-05,2,18
5684,-0.00025,6e-05,0.00027,0.00023,-0.00049,-0.00024,-0.00028,9e-05,2,18
5685,0.0001,-1e-05,5e-05,0.0008,-0.00011,0.00068,0.00089,-2e-05,2,18
5686,0.0001,-1e-05,5e-05,0.0008,-0.00011,0.00068,0.00089,-2e-05,2,18
5688,-0.00031,8e-05,0.0001,0.00019,-0.00023,-8e-05,0.00031,-9e-05,2,18
5689,-0.00031,8e-05,0.0001,0.00019,-0.00023,-8e-05,0.00031,-9e-05,2,18
5690,-0.00031,8e-05,0.0001,0.00019,-0.00023,-8e-05,0.00031,-9e-05,2,18
5691,-0.00031,8e-05,0.0001,0.00019,-0.00023,-8e-05,0.00031,-9e-05,2,18
5692,-0.00031,8e-05,0.0001,0.00019,-0.00023,-8e-05,0.00031,-9e-05,2,18
5693,-0.00031,8e-05,0.0001,0.00019,-0.00023,-8e-05,0.00031,-9e-05,2,18
5694,-0.00031,8e-05,0.0001,0.00019,-0.00023,-8e-05,0.00031,-9e-05,2,18
5695,-0.00031,8e-05,0.0001,0.00019,-0.00023,-8e-05,0.00031,-9e-05,2,18
5696,-0.00031,8e-05,0.0001,0.00019,-0.00023,-8e-05,0.00031,-9e-05,2,18
5697,-0.00031,8e-05,0.0001,0.00019,-0.00023,-8e-05,0.00031,-9e-05,2,18
5698,-0.00031,8e-05,0.0001,0.00019,-0.00023,-8e-05,0.00031,-9e-05,2,18
5699,-0.00031,8e-05,0.0001,0.00019,-0.00023,-8e-05,0.00031,-9e-05,2,18
5700,-0.0005,5e-05,9e-05,-0.0002,-8e-05,-0.00015,0.00095,2e-05,2,18
5702,-0.0005,5e-05,9e-05,-0.0002,-8e-05,-0.00015,0.00095,2e-05,2,18
5703,-0.0005,5e-05,9e-05,-0.0002,-8e-05,-0.00015,0.00095,2e-05,2,18
5704,-0.0005,5e-05,9e-05,-0.0002,-8e-05,-0.00015,0.00095,2e-05,2,18
5705,-0.0005,5e-05,9e-05,-0.0002,-8e-05,-0.00015,0.00095,2e-05,2,18
5706,-0.0005,5e-05,9e-05,-0.0002,-8e-05,-0.00015,0.00095,2e-05,2,18
5707,-0.0005,5e-05,9e-05,-0.0002,-8e-05,-0.00015,0.00095,2e-05,2,18
5708,-0.0005,5e-05,9e-05,-0.0002,-8e-05,-0.00015,0.00095,2e-05,2,18
5709,-0.0005,5e-05,9e-05,-0.0002,-8e-05,-0.00015,0.00095,2e-05,2,18
5710,-0.0005,5e-05,9e-05,-0.0002,-8e-05,-0.00015,0.00095,2e-05,2,18
5711,-0.0005,5e-05,9e-05,-0.0002,-8e-05,-0.00015,0.00095,2e-05,2,18
5712,-0.0005,5e-05,9e-05,-0.0002,-8e-05,-0.00015,0.00095,2e-05,2,18
5714,0.00082,-7e-05,-0.00015,-0.00019,4e-05,-1e-05,-2e-05,-4e-05,2,18
5715,0.00082,-7e-05,-0.00015,-0.00019,4e-05,-1e-05,-2e-05,-4e-05,2,18
5716,0.00082,-7e-05,-0.00015,-0.00019,4e-05,-1e-05,-2e-05,-4e-05,2,18
5717,0.00082,-7e-05,-0.00015,-0.00019,4e-05,-1e-05,-2e-05,-4e-05,2,18
5718,0.00082,-7e-05,-0.00015,-0.00019,4e-05,-1e-05,-2e-05,-4e-05,2,18
5719,0.00082,-7e-05,-0.00015,-0.00019,4e-05,-1e-05,-2e-05,-4e-05,2,18
5720,0.00082,-7e-05,-0.00015,-0.00019,4e-05,-1e-05,-2e-05,-4e-05,2,18
5721,0.00082,-7e-05,-0.00015,-0.00019,4e-05,-1e-05,-2e-05,-4e-05,2,18
5722,0.00082,-7e-05,-0.00015,-0.00019,4e-05,-1e-05,-2e-05,-4e-05,2,18
5723,0.00123,-2e-05,-7e-05,0.00026,3e-05,-0.00016,0.00023,0.00018,2,18
5724,-0.00044,0.0001,0.00015,0.00035,0.00011,0.00027,-0.00052,-2e-05,2,18
5725,-0.00056,-2e-05,-0.0002,-0.0007,7e-05,-0.00018,0.00013,-0.0003,2,18
5726,-0.00056,-2e-05,-0.0002,-0.0007,7e-05,-0.00018,0.00013,-0.0003,2,18
5727,-0.00056,-2e-05,-0.0002,-0.0007,7e-05,-0.00018,0.00013,-0.0003,2,18
5728,-0.00056,-2e-05,-0.0002,-0.0007,7e-05,-0.00018,0.00013,-0.0003,2,18
5729,-0.00056,-2e-05,-0.0002,-0.0007,7e-05,-0.00018,0.00013,-0.0003,2,18
5730,-0.00056,-2e-05,-0.0002,-0.0007,7e-05,-0.00018,0.00013,-0.0003,2,18
5731,-0.00056,-2e-05,-0.0002,-0.0007,7e-05,-0.00018,0.00013,-0.0003,2,18
5732,-0.00056,-2e-05,-0.0002,-0.0007,7e-05,-0.00018,0.00013,-0.0003,2,18
5733,-0.00056,-2e-05,-0.0002,-0.0007,7e-05,-0.00018,0.00013,-0.0003,2,18
5734,-0.00056,-2e-05,-0.0002,-0.0007,7e-05,-0.00018,0.00013,-0.0003,2,18
5735,-0.00056,-2e-05,-0.0002,-0.0007,7e-05,-0.00018,0.00013,-0.0003,2,18
5736,-0.00056,-2e-05,-0.0002,-0.0007,7e-05,-0.00018,0.00013,-0.0003,2,18
5738,-0.00056,-2e-05,-0.0002,-0.0007,7e-05,-0.00018,0.00013,-0.0003,2,18
5739,-0.00056,-2e-05,-0.0002,-0.0007,7e-05,-0.00018,0.00013,-0.0003,2,18
5740,-0.00056,-2e-05,-0.0002,-0.0007,7e-05,-0.00018,0.00013,-0.0003,2,18
5741,-0.00056,-2e-05,-0.0002,-0.0007,7e-05,-0.00018,0.00013,-0.0003,2,18
5742,-0.00056,-2e-05,-0.0002,-0.0007,7e-05,-0.00018,0.00013,-0.0003,2,18
5743,-0.00056,-2e-05,-0.0002,-0.0007,7e-05,-0.00018,0.00013,-0.0003,2,18
5744,-0.00056,-2e-05,-0.0002,-0.0007,7e-05,-0.00018,0.00013,-0.0003,2,18
5745,0.0008,-3e-05,-2e-05,-0.00022,-0.00024,-0.00029,-0.00076,0.00014,2,18
5746,-0.00105,4e-05,0.00016,0.00038,-0.00036,-0.00032,-0.00036,0,2,18
5747,1e-05,-1e-05,5e-05,0.00067,-4e-05,0.00023,-8e-05,-3e-05,2,18
5748,1e-05,-1e-05,5e-05,0.00067,-4e-05,0.00023,-8e-05,-3e-05,2,18
5749,1e-05,-1e-05,5e-05,0.00067,-4e-05,0.00023,-8e-05,-3e-05,2,18
5750,1e-05,-1e-05,5e-05,0.00067,-4e-05,0.00023,-8e-05,-3e-05,2,18
5751,1e-05,-1e-05,5e-05,0.00067,-4e-05,0.00023,-8e-05,-3e-05,2,18
5752,1e-05,-1e-05,5e-05,0.00067,-4e-05,0.00023,-8e-05,-3e-05,2,18
5753,1e-05,-1e-05,5e-05,0.00067,-4e-05,0.00023,-8e-05,-3e-05,2,18
5754,1e-05,-1e-05,5e-05,0.00067,-4e-05,0.00023,-8e-05,-3e-05,2,18
5755,1e-05,-1e-05,5e-05,0.00067,-4e-05,0.00023,-8e-05,-3e-05,2,18
5756,1e-05,-1e-05,5e-05,0.00067,-4e-05,0.00023,-8e-05,-3e-05,2,18
5757,1e-05,-1e-05,5e-05,0.00067,-4e-05,0.00023,-8e-05,-3e-05,2,18
5758,1e-05,-1e-05,5e-05,0.00067,-4e-05,0.00023,-8e-05,-3e-05,2,18
5759,-0.00011,-2e-05,4e-05,2e-05,-0.00029,3e-05,0.00018,-2e-05,2,18
5760,-0.00011,-2e-05,4e-05,2e-05,-0.00029,3e-05,0.00018,-2e-05,2,18
5761,-0.00011,-2e-05,4e-05,2e-05,-0.00029,3e-05,0.00018,-2e-05,2,18
5762,-0.00011,-2e-05,4e-05,2e-05,-0.00029,3e-05,0.00018,-2e-05,2,18
5763,-0.00011,-2e-05,4e-05,2e-05,-0.00029,3e-05,0.00018,-2e-05,2,18
5764,-0.00011,-2e-05,4e-05,2e-05,-0.00029,3e-05,0.00018,-2e-05,2,18
5765,-0.00011,-2e-05,4e-05,2e-05,-0.00029,3e-05,0.00018,-2e-05,2,18
5766,-0.00011,-2e-05,4e-05,2e-05,-0.00029,3e-05,0.00018,-2e-05,2,18
5767,-0.00011,-2e-05,4e-05,2e-05,-0.00029,3e-05,0.00018,-2e-05,2,18
5768,-0.00023,-0.00015,-0.00041,-0.00085,0.00041,5e-05,-0.00037,-0.00043,2,18
5769,-0.00023,-0.00015,-0.00041,-0.00085,0.00041,5e-05,-0.00037,-0.00043,2,18
5770,-0.00023,-0.00015,-0.00041,-0.00085,0.00041,5e-05,-0.00037,-0.00043,2,18
5771,-0.00023,-0.00015,-0.00041,-0.00085,0.00041,5e-05,-0.00037,-0.00043,2,18
5772,-0.00023,-0.00015,-0.00041,-0.00085,0.00041,5e-05,-0.00037,-0.00043,2,18
5773,-0.00023,-0.00015,-0.00041,-0.00085,0.00041,5e-05,-0.00037,-0.00043,2,18
5774,-0.00023,-0.00015,-0.00041,-0.00085,0.00041,5e-05,-0.00037,-0.00043,2,18
5775,-0.00023,-0.00015,-0.00041,-0.00085,0.00041,5e-05,-0.00037,-0.00043,2,18
5776,-0.00023,-0.00015,-0.00041,-0.00085,0.00041,5e-05,-0.00037,-0.00043,2,18
5777,-0.00023,-0.00015,-0.00041,-0.00085,0.00041,5e-05,-0.00037,-0.00043,2,18
5778,-0.00023,-0.00015,-0.00041,-0.00085,0.00041,5e-05,-0.00037,-0.00043,2,18
5779,-0.00023,-0.00015,-0.00041,-0.00085,0.00041,5e-05,-0.00037,-0.00043,2,18
5780,-0.00023,-0.00015,-0.00041,-0.00085,0.00041,5e-05,-0.00037,-0.00043,2,18
5781,-0.00023,-0.00015,-0.00041,-0.00085,0.00041,5e-05,-0.00037,-0.00043,2,18
5782,-0.00023,-0.00015,-0.00041,-0.00085,0.00041,5e-05,-0.00037,-0.00043,2,18
5783,-0.00028,2e-05,1e-05,0.00017,0,-0.00019,-0.00054,-4e-05,2,18
5784,-0.00018,-3e-05,-8e-05,-0.00042,-5e-05,2e-05,0.00039,-0.00016,2,18
5785,0.00071,3e-05,-3e-05,0.00016,5e-05,-4e-05,-0.00033,0.0002,2,18
5786,0.00071,3e-05,-3e-05,0.00016,5e-05,-4e-05,-0.00033,0.0002,2,18
5788,0.00071,3e-05,-3e-05,0.00016,5e-05,-4e-05,-0.00033,0.0002,2,18
5789,0.00071,3e-05,-3e-05,0.00016,5e-05,-4e-05,-0.00033,0.0002,2,18
5790,0.00071,3e-05,-3e-05,0.00016,5e-05,-4e-05,-0.00033,0.0002,2,18
5791,0.00071,3e-05,-3e-05,0.00016,5e-05,-4e-05,-0.00033,0.0002,2,18
5792,0.00071,3e-05,-3e-05,0.00016,5e-05,-4e-05,-0.00033,0.0002,2,18
5793,0.00071,3e-05,-3e-05,0.00016,5e-05,-4e-05,-0.00033,0.0002,2,18
5794,0.00071,3e-05,-3e-05,0.00016,5e-05,-4e-05,-0.00033,0.0002,2,18
5795,0.00071,3e-05,-3e-05,0.00016,5e-05,-4e-05,-0.00033,0.0002,2,18
5796,0.00071,3e-05,-3e-05,0.00016,5e-05,-4e-05,-0.00033,0.0002,2,18
5797,0.00071,3e-05,-3e-05,0.00016,5e-05,-4e-05,-0.00033,0.0002,2,18
5798,0.00071,3e-05,-3e-05,0.00016,5e-05,-4e-05,-0.00033,0.0002,2,18
5799,0.00071,3e-05,-3e-05,0.00016,5e-05,-4e-05,-0.00033,0.0002,2,18
5800,0.00071,3e-05,-3e-05,0.00016,5e-05,-4e-05,-0.00033,0.0002,2,18
5801,0.00071,3e-05,-3e-05,0.00016,5e-05,-4e-05,-0.00033,0.0002,2,18
5802,0.00071,3e-05,-3e-05,0.00016,5e-05,-4e-05,-0.00033,0.0002,2,18
5803,0.00071,3e-05,-3e-05,0.00016,5e-05,-4e-05,-0.00033,0.0002,2,18
5804,0.00071,3e-05,-3e-05,0.00016,5e-05,-4e-05,-0.00033,0.0002,2,18
5805,0.00014,-0.00012,-0.00017,-0.00052,0.00019,0.00094,0.00027,-8e-05,2,18
5806,0,2e-05,-2e-05,0,-0.00022,-0.00039,0,0.00021,2,18
5807,0.00046,-9e-05,5e-05,0.0009,0.00012,-6e-05,0.00022,0.00013,2,18
5808,0.00046,-9e-05,5e-05,0.0009,0.00012,-6e-05,0.00022,0.00013,2,18
5809,0.00046,-9e-05,5e-05,0.0009,0.00012,-6e-05,0.00022,0.00013,2,18
5810,0.00046,-9e-05,5e-05,0.0009,0.00012,-6e-05,0.00022,0.00013,2,18
5811,0.00046,-9e-05,5e-05,0.0009,0.00012,-6e-05,0.00022,0.00013,2,18
5812,0.00046,-9e-05,5e-05,0.0009,0.00012,-6e-05,0.00022,0.00013,2,18
5813,0.00046,-9e-05,5e-05,0.0009,0.00012,-6e-05,0.00022,0.00013,2,18
5814,0.00046,-9e-05,5e-05,0.0009,0.00012,-6e-05,0.00022,0.00013,2,18
5815,0.00046,-9e-05,5e-05,0.0009,0.00012,-6e-05,0.00022,0.00013,2,18
5816,0.00046,-9e-05,5e-05,0.0009,0.00012,-6e-05,0.00022,0.00013,2,18
5817,0.00046,-9e-05,5e-05,0.0009,0.00012,-6e-05,0.00022,0.00013,2,18
5818,0.00046,-9e-05,5e-05,0.0009,0.00012,-6e-05,0.00022,0.00013,2,18
5819,-9e-05,0.00011,0.00013,0.00073,-0.00012,-0.00035,-0.0009,-0.00019,2,18
5820,-9e-05,0.00011,0.00013,0.00073,-0.00012,-0.00035,-0.0009,-0.00019,2,18
5821,-9e-05,0.00011,0.00013,0.00073,-0.00012,-0.00035,-0.0009,-0.00019,2,18
5822,-9e-05,0.00011,0.00013,0.00073,-0.00012,-0.00035,-0.0009,-0.00019,2,18
5823,-9e-05,0.00011,0.00013,0.00073,-0.00012,-0.00035,-0.0009,-0.00019,2,18
5824,-9e-05,0.00011,0.00013,0.00073,-0.00012,-0.00035,-0.0009,-0.00019,2,18
5825,-9e-05,0.00011,0.00013,0.00073,-0.00012,-0.00035,-0.0009,-0.00019,2,18
5826,-9e-05,0.00011,0.00013,0.00073,-0.00012,-0.00035,-0.0009,-0.00019,2,18
5827,-9e-05,0.00011,0.00013,0.00073,-0.00012,-0.00035,-0.0009,-0.00019,2,18
5828,-0.00023,-7e-05,-0.00012,-0.00018,-0.00023,0.00027,-0.00038,0.00013,2,18
5830,-0.00023,-7e-05,-0.00012,-0.00018,-0.00023,0.00027,-0.00038,0.00013,2,18
5831,-0.00023,-7e-05,-0.00012,-0.00018,-0.00023,0.00027,-0.00038,0.00013,2,18
5832,-0.00023,-7e-05,-0.00012,-0.00018,-0.00023,0.00027,-0.00038,0.00013,2,18
5833,-0.00023,-7e-05,-0.00012,-0.00018,-0.00023,0.00027,-0.00038,0.00013,2,18
5834,-0.00023,-7e-05,-0.00012,-0.00018,-0.00023,0.00027,-0.00038,0.00013,2,18
5835,-0.00023,-7e-05,-0.00012,-0.00018,-0.00023,0.00027,-0.00038,0.00013,2,18
5836,-0.00023,-7e-05,-0.00012,-0.00018,-0.00023,0.00027,-0.00038,0.00013,2,18
5838,-0.00023,-7e-05,-0.00012,-0.00018,-0.00023,0.00027,-0.00038,0.00013,2,18
5839,-0.00023,-7e-05,-0.00012,-0.00018,-0.00023,0.00027,-0.00038,0.00013,2,18
5840,-0.00023,-7e-05,-0.00012,-0.00018,-0.00023,0.00027,-0.00038,0.00013,2,18
5841,-0.00023,-7e-05,-0.00012,-0.00018,-0.00023,0.00027,-0.00038,0.00013,2,18
5842,-0.00023,-7e-05,-0.00012,-0.00018,-0.00023,0.00027,-0.00038,0.00013,2,18
5843,-0.00075,-0.00016,-0.00023,-0.00027,0.00011,-0.00017,4e-05,-8e-05,2,18
5844,-0.00075,-0.00016,-0.00023,-0.00027,0.00011,-0.00017,4e-05,-8e-05,2,18
5845,-1e-05,6e-05,0.00014,0.00019,-0.00011,0.00063,-0.00044,-1e-05,2,18
5846,-1e-05,6e-05,0.00014,0.00019,-0.00011,0.00063,-0.00044,-1e-05,2,18
5847,-1e-05,6e-05,0.00014,0.00019,-0.00011,0.00063,-0.00044,-1e-05,2,18
5848,-1e-05,6e-05,0.00014,0.00019,-0.00011,0.00063,-0.00044,-1e-05,2,18
5849,-1e-05,6e-05,0.00014,0.00019,-0.00011,0.00063,-0.00044,-1e-05,2,18
5850,-1e-05,6e-05,0.00014,0.00019,-0.00011,0.00063,-0.00044,-1e-05,2,18
5851,-1e-05,6e-05,0.00014,0.00019,-0.00011,0.00063,-0.00044,-1e-05,2,18
5852,-1e-05,6e-05,0.00014,0.00019,-0.00011,0.00063,-0.00044,-1e-05,2,18
5853,-1e-05,6e-05,0.00014,0.00019,-0.00011,0.00063,-0.00044,-1e-05,2,18
5854,-1e-05,6e-05,0.00014,0.00019,-0.00011,0.00063,-0.00044,-1e-05,2,18
5855,-1e-05,6e-05,0.00014,0.00019,-0.00011,0.00063,-0.00044,-1e-05,2,18
5856,-1e-05,6e-05,0.00014,0.00019,-0.00011,0.00063,-0.00044,-1e-05,2,18
5857,-1e-05,6e-05,0.00014,0.00019,-0.00011,0.00063,-0.00044,-1e-05,2,18
5858,-1e-05,6e-05,0.00014,0.00019,-0.00011,0.00063,-0.00044,-1e-05,2,18
5859,-1e-05,6e-05,0.00014,0.00019,-0.00011,0.00063,-0.00044,-1e-05,2,18
5860,-1e-05,6e-05,0.00014,0.00019,-0.00011,0.00063,-0.00044,-1e-05,2,18
5861,-1e-05,6e-05,0.00014,0.00019,-0.00011,0.00063,-0.00044,-1e-05,2,18
5862,-1e-05,6e-05,0.00014,0.00019,-0.00011,0.00063,-0.00044,-1e-05,2,18
5863,-1e-05,6e-05,0.00014,0.00019,-0.00011,0.00063,-0.00044,-1e-05,2,18
5864,-1e-05,6e-05,0.00014,0.00019,-0.00011,0.00063,-0.00044,-1e-05,2,18
5865,0.00022,4e-05,5e-05,0.00047,3e-05,-0.00022,-0.00018,6e-05,2,18
5866,0.00022,4e-05,5e-05,0.00047,3e-05,-0.00022,-0.00018,6e-05,2,18
5867,-0.00029,-1e-05,-0.00018,-0.0005,0.00021,-5e-05,0.00065,0.00011,2,18
5868,-0.00029,-1e-05,-0.00018,-0.0005,0.00021,-5e-05,0.00065,0.00011,2,18
5869,-0.00029,-1e-05,-0.00018,-0.0005,0.00021,-5e-05,0.00065,0.00011,2,18
5870,-0.00029,-1e-05,-0.00018,-0.0005,0.00021,-5e-05,0.00065,0.00011,2,18
5871,-0.00029,-1e-05,-0.00018,-0.0005,0.00021,-5e-05,0.00065,0.00011,2,18
5872,-0.00029,-1e-05,-0.00018,-0.0005,0.00021,-5e-05,0.00065,0.00011,2,18
5873,-0.00029,-1e-05,-0.00018,-0.0005,0.00021,-5e-05,0.00065,0.00011,2,18
5874,-0.00029,-1e-05,-0.00018,-0.0005,0.00021,-5e-05,0.00065,0.00011,2,18
5875,-0.00029,-1e-05,-0.00018,-0.0005,0.00021,-5e-05,0.00065,0.00011,2,18
5876,-0.00029,-1e-05,-0.00018,-0.0005,0.00021,-5e-05,0.00065,0.00011,2,18
5877,-0.00029,-1e-05,-0.00018,-0.0005,0.00021,-5e-05,0.00065,0.00011,2,18
5878,-0.00029,-1e-05,-0.00018,-0.0005,0.00021,-5e-05,0.00065,0.00011,2,18
5879,0.00052,0.00015,0.00013,0.00098,0.00012,0.00051,0.00044,0.00031,2,18
5880,0.00052,0.00015,0.00013,0.00098,0.00012,0.00051,0.00044,0.00031,2,18
5881,0.00052,0.00015,0.00013,0.00098,0.00012,0.00051,0.00044,0.00031,2,18
5882,0.00052,0.00015,0.00013,0.00098,0.00012,0.00051,0.00044,0.00031,2,18
5883,0.00052,0.00015,0.00013,0.00098,0.00012,0.00051,0.00044,0.00031,2,18
5884,0.00052,0.00015,0.00013,0.00098,0.00012,0.00051,0.00044,0.00031,2,18
5885,0.00052,0.00015,0.00013,0.00098,0.00012,0.00051,0.00044,0.00031,2,18
5886,0.00052,0.00015,0.00013,0.00098,0.00012,0.00051,0.00044,0.00031,2,18
5889,0.00081,4e-05,0.00011,0.0002,-9e-05,-4e-05,-8e-05,0.00011,2,18
5890,0.00081,4e-05,0.00011,0.0002,-9e-05,-4e-05,-8e-05,0.00011,2,18
5891,0.00081,4e-05,0.00011,0.0002,-9e-05,-4e-05,-8e-05,0.00011,2,18
5892,0.00081,4e-05,0.00011,0.0002,-9e-05,-4e-05,-8e-05,0.00011,2,18
5893,0.00081,4e-05,0.00011,0.0002,-9e-05,-4e-05,-8e-05,0.00011,2,18
5894,0.00081,4e-05,0.00011,0.0002,-9e-05,-4e-05,-8e-05,0.00011,2,18
5895,0.00081,4e-05,0.00011,0.0002,-9e-05,-4e-05,-8e-05,0.00011,2,18
5896,0.00081,4e-05,0.00011,0.0002,-9e-05,-4e-05,-8e-05,0.00011,2,18
5897,0.00081,4e-05,0.00011,0.0002,-9e-05,-4e-05,-8e-05,0.00011,2,18
5898,0.00081,4e-05,0.00011,0.0002,-9e-05,-4e-05,-8e-05,0.00011,2,18
5899,0.00081,4e-05,0.00011,0.0002,-9e-05,-4e-05,-8e-05,0.00011,2,18
5900,0.00081,4e-05,0.00011,0.0002,-9e-05,-4e-05,-8e-05,0.00011,2,18
5901,0.00081,4e-05,0.00011,0.0002,-9e-05,-4e-05,-8e-05,0.00011,2,18
5902,0.00081,4e-05,0.00011,0.0002,-9e-05,-4e-05,-8e-05,0.00011,2,18
5903,0.00034,-4e-05,-0.00014,-0.00052,-7e-05,-0.00055,-2e-05,-0.00033,2,18
5904,-0.00039,9e-05,4e-05,7e-05,-6e-05,0.00026,-8e-05,-0.00018,2,18
5905,-0.00039,9e-05,4e-05,7e-05,-6e-05,0.00026,-8e-05,-0.00018,2,18
5906,-0.00039,9e-05,4e-05,7e-05,-6e-05,0.00026,-8e-05,-0.00018,2,18
5907,-0.00039,9e-05,4e-05,7e-05,-6e-05,0.00026,-8e-05,-0.00018,2,18
5908,-0.00039,9e-05,4e-05,7e-05,-6e-05,0.00026,-8e-05,-0.00018,2,18
5909,-0.00039,9e-05,4e-05,7e-05,-6e-05,0.00026,-8e-05,-0.00018,2,18
5910,-0.00039,9e-05,4e-05,7e-05,-6e-05,0.00026,-8e-05,-0.00018,2,18
5911,-0.00039,9e-05,4e-05,7e-05,-6e-05,0.00026,-8e-05,-0.00018,2,18
5912,-0.00039,9e-05,4e-05,7e-05,-6e-05,0.00026,-8e-05,-0.00018,2,18
5913,-0.00039,9e-05,4e-05,7e-05,-6e-05,0.00026,-8e-05,-0.00018,2,18
5914,-0.00039,9e-05,4e-05,7e-05,-6e-05,0.00026,-8e-05,-0.00018,2,18
5915,-0.00039,9e-05,4e-05,7e-05,-6e-05,0.00026,-8e-05,-0.00018,2,18
5916,-0.00039,9e-05,4e-05,7e-05,-6e-05,0.00026,-8e-05,-0.00018,2,18
5917,-0.00039,9e-05,4e-05,7e-05,-6e-05,0.00026,-8e-05,-0.00018,2,18
5918,-0.00039,9e-05,4e-05,7e-05,-6e-05,0.00026,-8e-05,-0.00018,2,18
5919,-0.00039,9e-05,4e-05,7e-05,-6e-05,0.00026,-8e-05,-0.00018,2,18
5920,-0.00039,9e-05,4e-05,7e-05,-6e-05,0.00026,-8e-05,-0.00018,2,18
5921,-0.00039,9e-05,4e-05,7e-05,-6e-05,0.00026,-8e-05,-0.00018,2,18
5922,-0.00039,9e-05,4e-05,7e-05,-6e-05,0.00026,-8e-05,-0.00018,2,18
5923,-0.00039,9e-05,4e-05,7e-05,-6e-05,0.00026,-8e-05,-0.00018,2,18
5924,-0.00039,9e-05,4e-05,7e-05,-6e-05,0.00026,-8e-05,-0.00018,2,18
5925,0.00012,-4e-05,7e-05,-0.00034,-0.0001,-0.00027,-1e-05,0.00025,2,18
5926,0.00012,-4e-05,7e-05,-0.00034,-0.0001,-0.00027,-1e-05,0.00025,2,18
5927,-0.00014,-1e-05,7e-05,-7e-05,-7e-05,-0.00074,-0.0002,0,2,18
5928,-0.00014,-1e-05,7e-05,-7e-05,-7e-05,-0.00074,-0.0002,0,2,18
5929,-0.00014,-1e-05,7e-05,-7e-05,-7e-05,-0.00074,-0.0002,0,2,18
5930,-0.00014,-1e-05,7e-05,-7e-05,-7e-05,-0.00074,-0.0002,0,2,18
5931,-0.00014,-1e-05,7e-05,-7e-05,-7e-05,-0.00074,-0.0002,0,2,18
5932,-0.00014,-1e-05,7e-05,-7e-05,-7e-05,-0.00074,-0.0002,0,2,18
5933,-0.00014,-1e-05,7e-05,-7e-05,-7e-05,-0.00074,-0.0002,0,2,18
5934,-0.00014,-1e-05,7e-05,-7e-05,-7e-05,-0.00074,-0.0002,0,2,18
5935,-0.00014,-1e-05,7e-05,-7e-05,-7e-05,-0.00074,-0.0002,0,2,18
5936,-0.00014,-1e-05,7e-05,-7e-05,-7e-05,-0.00074,-0.0002,0,2,18
5938,-0.00014,-1e-05,7e-05,-7e-05,-7e-05,-0.00074,-0.0002,0,2,18
5939,-0.00014,-1e-05,7e-05,-7e-05,-7e-05,-0.00074,-0.0002,0,2,18
5940,-0.00014,-1e-05,7e-05,-7e-05,-7e-05,-0.00074,-0.0002,0,2,18
5941,-0.00014,-1e-05,7e-05,-7e-05,-7e-05,-0.00074,-0.0002,0,2,18
5942,-0.00014,-1e-05,7e-05,-7e-05,-7e-05,-0.00074,-0.0002,0,2,18
5943,-0.00014,-1e-05,7e-05,-7e-05,-7e-05,-0.00074,-0.0002,0,2,18
5944,-0.00014,-1e-05,7e-05,-7e-05,-7e-05,-0.00074,-0.0002,0,2,18
5945,-0.00014,-1e-05,7e-05,-7e-05,-7e-05,-0.00074,-0.0002,0,2,18
5946,-0.00014,-1e-05,7e-05,-7e-05,-7e-05,-0.00074,-0.0002,0,2,18
5947,-0.00014,-1e-05,7e-05,-7e-05,-7e-05,-0.00074,-0.0002,0,2,18
5948,-0.00072,0,-1e-05,-0.00012,-7e-05,-8e-05,0.00019,-4e-05,2,18
5949,-0.00066,-0.00014,-6e-05,-0.00016,0,-0.00022,0.00033,0.00018,2,18
5950,-0.00066,-0.00014,-6e-05,-0.00016,0,-0.00022,0.00033,0.00018,2,18
5951,-0.00066,-0.00014,-6e-05,-0.00016,0,-0.00022,0.00033,0.00018,2,18
5952,-0.00066,-0.00014,-6e-05,-0.00016,0,-0.00022,0.00033,0.00018,2,18
5953,-0.00066,-0.00014,-6e-05,-0.00016,0,-0.00022,0.00033,0.00018,2,18
5954,-0.00066,-0.00014,-6e-05,-0.00016,0,-0.00022,0.00033,0.00018,2,18
5955,-0.00066,-0.00014,-6e-05,-0.00016,0,-0.00022,0.00033,0.00018,2,18
5956,-0.00066,-0.00014,-6e-05,-0.00016,0,-0.00022,0.00033,0.00018,2,18
5957,-0.00066,-0.00014,-6e-05,-0.00016,0,-0.00022,0.00033,0.00018,2,18
5958,-0.00066,-0.00014,-6e-05,-0.00016,0,-0.00022,0.00033,0.00018,2,18
5959,-0.00066,-0.00014,-6e-05,-0.00016,0,-0.00022,0.00033,0.00018,2,18
5960,-0.00066,-0.00014,-6e-05,-0.00016,0,-0.00022,0.00033,0.00018,2,18
5961,-0.00066,-0.00014,-6e-05,-0.00016,0,-0.00022,0.00033,0.00018,2,18
5962,-0.00066,-0.00014,-6e-05,-0.00016,0,-0.00022,0.00033,0.00018,2,18
5963,0.00059,9e-05,0.00026,0.00127,9e-05,8e-05,-0.00019,0.00015,2,18
5964,-0.00044,-3e-05,-3e-05,-9e-05,0.00013,0.00046,0.00056,-3e-05,2,18
5965,-0.00044,-3e-05,-3e-05,-9e-05,0.00013,0.00046,0.00056,-3e-05,2,18
5966,-0.00044,-3e-05,-3e-05,-9e-05,0.00013,0.00046,0.00056,-3e-05,2,18
5967,-0.00044,-3e-05,-3e-05,-9e-05,0.00013,0.00046,0.00056,-3e-05,2,18
5968,-0.00044,-3e-05,-3e-05,-9e-05,0.00013,0.00046,0.00056,-3e-05,2,18
5969,-0.00044,-3e-05,-3e-05,-9e-05,0.00013,0.00046,0.00056,-3e-05,2,18
5970,-0.00044,-3e-05,-3e-05,-9e-05,0.00013,0.00046,0.00056,-3e-05,2,18
5971,-0.00044,-3e-05,-3e-05,-9e-05,0.00013,0.00046,0.00056,-3e-05,2,18
5972,-0.00044,-3e-05,-3e-05,-9e-05,0.00013,0.00046,0.00056,-3e-05,2,18
5973,-0.00044,-3e-05,-3e-05,-9e-05,0.00013,0.00046,0.00056,-3e-05,2,18
5974,-0.00044,-3e-05,-3e-05,-9e-05,0.00013,0.00046,0.00056,-3e-05,2,18
5975,-0.00044,-3e-05,-3e-05,-9e-05,0.00013,0.00046,0.00056,-3e-05,2,18
5976,-0.00044,-3e-05,-3e-05,-9e-05,0.00013,0.00046,0.00056,-3e-05,2,18
5977,-0.00044,-3e-05,-3e-05,-9e-05,0.00013,0.00046,0.00056,-3e-05,2,18
5978,-0.00044,-3e-05,-3e-05,-9e-05,0.00013,0.00046,0.00056,-3e-05,2,18
5979,-0.00044,-3e-05,-3e-05,-9e-05,0.00013,0.00046,0.00056,-3e-05,2,18
5980,-0.00044,-3e-05,-3e-05,-9e-05,0.00013,0.00046,0.00056,-3e-05,2,18
5981,-0.00044,-3e-05,-3e-05,-9e-05,0.00013,0.00046,0.00056,-3e-05,2,18
5982,-0.00044,-3e-05,-3e-05,-9e-05,0.00013,0.00046,0.00056,-3e-05,2,18
5983,-0.00044,-3e-05,-3e-05,-9e-05,0.00013,0.00046,0.00056,-3e-05,2,18
5984,-0.00044,-3e-05,-3e-05,-9e-05,0.00013,0.00046,0.00056,-3e-05,2,18
5985,8e-05,0,6e-05,0.00059,0,0.00012,-0.00013,0.0001,2,18
5987,1e-05,-2e-05,3e-05,0.00039,-9e-05,0.00036,-0.00015,4e-05,2,18
5989,1e-05,-2e-05,3e-05,0.00039,-9e-05,0.00036,-0.00015,4e-05,2,18
5990,1e-05,-2e-05,3e-05,0.00039,-9e-05,0.00036,-0.00015,4e-05,2,18
5991,1e-05,-2e-05,3e-05,0.00039,-9e-05,0.00036,-0.00015,4e-05,2,18
5992,1e-05,-2e-05,3e-05,0.00039,-9e-05,0.00036,-0.00015,4e-05,2,18
5994,1e-05,-2e-05,3e-05,0.00039,-9e-05,0.00036,-0.00015,4e-05,2,18
5995,1e-05,-2e-05,3e-05,0.00039,-9e-05,0.00036,-0.00015,4e-05,2,18
5996,1e-05,-2e-05,3e-05,0.00039,-9e-05,0.00036,-0.00015,4e-05,2,18
5997,1e-05,-2e-05,3e-05,0.00039,-9e-05,0.00036,-0.00015,4e-05,2,18
5998,1e-05,-2e-05,3e-05,0.00039,-9e-05,0.00036,-0.00015,4e-05,2,18
5999,0.0006,5e-05,0.00012,0.00016,-6e-05,-0.00037,-0.00021,-9e-05,2,18
6000,0.0006,5e-05,0.00012,0.00016,-6e-05,-0.00037,-0.00021,-9e-05,2,18
6001,0.0006,5e-05,0.00012,0.00016,-6e-05,-0.00037,-0.00021,-9e-05,2,18
6002,0.0006,5e-05,0.00012,0.00016,-6e-05,-0.00037,-0.00021,-9e-05,2,18
6003,0.0006,5e-05,0.00012,0.00016,-6e-05,-0.00037,-0.00021,-9e-05,2,18
6004,0.0006,5e-05,0.00012,0.00016,-6e-05,-0.00037,-0.00021,-9e-05,2,18
6005,0.0006,5e-05,0.00012,0.00016,-6e-05,-0.00037,-0.00021,-9e-05,2,18
6006,0.0006,5e-05,0.00012,0.00016,-6e-05,-0.00037,-0.00021,-9e-05,2,18
6007,0.0006,5e-05,0.00012,0.00016,-6e-05,-0.00037,-0.00021,-9e-05,2,18
6008,4e-05,0.00018,4e-05,-0.00014,8e-05,-0.00047,-0.00054,-0.00022,2,18
6009,4e-05,0.00018,4e-05,-0.00014,8e-05,-0.00047,-0.00054,-0.00022,2,18
6010,4e-05,0.00018,4e-05,-0.00014,8e-05,-0.00047,-0.00054,-0.00022,2,18
6011,4e-05,0.00018,4e-05,-0.00014,8e-05,-0.00047,-0.00054,-0.00022,2,18
6012,4e-05,0.00018,4e-05,-0.00014,8e-05,-0.00047,-0.00054,-0.00022,2,18
6013,4e-05,0.00018,4e-05,-0.00014,8e-05,-0.00047,-0.00054,-0.00022,2,18
6014,4e-05,0.00018,4e-05,-0.00014,8e-05,-0.00047,-0.00054,-0.00022,2,18
6015,4e-05,0.00018,4e-05,-0.00014,8e-05,-0.00047,-0.00054,-0.00022,2,18
6016,4e-05,0.00018,4e-05,-0.00014,8e-05,-0.00047,-0.00054,-0.00022,2,18
6017,4e-05,0.00018,4e-05,-0.00014,8e-05,-0.00047,-0.00054,-0.00022,2,18
6018,4e-05,0.00018,4e-05,-0.00014,8e-05,-0.00047,-0.00054,-0.00022,2,18
6019,4e-05,0.00018,4e-05,-0.00014,8e-05,-0.00047,-0.00054,-0.00022,2,18
6020,4e-05,0.00018,4e-05,-0.00014,8e-05,-0.00047,-0.00054,-0.00022,2,18
6021,4e-05,0.00018,4e-05,-0.00014,8e-05,-0.00047,-0.00054,-0.00022,2,18
6022,4e-05,0.00018,4e-05,-0.00014,8e-05,-0.00047,-0.00054,-0.00022,2,18
6023,9e-05,-0.00012,-6e-05,0.00017,7e-05,-0.00064,-0.0005,4e-05,2,18
6024,9e-05,-0.00012,-6e-05,0.00017,7e-05,-0.00064,-0.0005,4e-05,2,18
6025,9e-05,-0.00012,-6e-05,0.00017,7e-05,-0.00064,-0.0005,4e-05,2,18
6026,9e-05,-0.00012,-6e-05,0.00017,7e-05,-0.00064,-0.0005,4e-05,2,18
6027,9e-05,-0.00012,-6e-05,0.00017,7e-05,-0.00064,-0.0005,4e-05,2,18
6028,9e-05,-0.00012,-6e-05,0.00017,7e-05,-0.00064,-0.0005,4e-05,2,18
6029,-0.00023,0.00014,0.00012,0,-7e-05,6e-05,0.00067,2e-05,2,18
6030,-0.00023,0.00014,0.00012,0,-7e-05,6e-05,0.00067,2e-05,2,18
6031,-0.00023,0.00014,0.00012,0,-7e-05,6e-05,0.00067,2e-05,2,18
6032,-0.00023,0.00014,0.00012,0,-7e-05,6e-05,0.00067,2e-05,2,18
6033,-0.00023,0.00014,0.00012,0,-7e-05,6e-05,0.00067,2e-05,2,18
6034,-0.00023,0.00014,0.00012,0,-7e-05,6e-05,0.00067,2e-05,2,18
6035,-0.00023,0.00014,0.00012,0,-7e-05,6e-05,0.00067,2e-05,2,18
6036,-0.00023,0.00014,0.00012,0,-7e-05,6e-05,0.00067,2e-05,2,18
6038,-0.00023,0.00014,0.00012,0,-7e-05,6e-05,0.00067,2e-05,2,18
6039,-0.00023,0.00014,0.00012,0,-7e-05,6e-05,0.00067,2e-05,2,18
6040,-0.00023,0.00014,0.00012,0,-7e-05,6e-05,0.00067,2e-05,2,18
6041,-0.00023,0.00014,0.00012,0,-7e-05,6e-05,0.00067,2e-05,2,18
6042,-0.00023,0.00014,0.00012,0,-7e-05,6e-05,0.00067,2e-05,2,18
6043,-0.00023,0.00014,0.00012,0,-7e-05,6e-05,0.00067,2e-05,2,18
6044,-0.00023,0.00014,0.00012,0,-7e-05,6e-05,0.00067,2e-05,2,18
6045,-0.00023,0.00014,0.00012,0,-7e-05,6e-05,0.00067,2e-05,2,18
6046,-0.00019,-4e-05,0.00012,0.00075,-3e-05,-6e-05,-0.00022,-0.00011,2,18
6047,-0.00015,-9e-05,6e-05,0.0006,-0.0003,-0.00026,-0.0001,-0.00013,2,18
6048,-0.00015,-9e-05,6e-05,0.0006,-0.0003,-0.00026,-0.0001,-0.00013,2,18
6049,-0.00015,-9e-05,6e-05,0.0006,-0.0003,-0.00026,-0.0001,-0.00013,2,18
6050,-0.00015,-9e-05,6e-05,0.0006,-0.0003,-0.00026,-0.0001,-0.00013,2,18
6051,-0.00015,-9e-05,6e-05,0.0006,-0.0003,-0.00026,-0.0001,-0.00013,2,18
6052,-0.00015,-9e-05,6e-05,0.0006,-0.0003,-0.00026,-0.0001,-0.00013,2,18
6053,-0.00015,-9e-05,6e-05,0.0006,-0.0003,-0.00026,-0.0001,-0.00013,2,18
6054,-0.00015,-9e-05,6e-05,0.0006,-0.0003,-0.00026,-0.0001,-0.00013,2,18
6055,-0.00015,-9e-05,6e-05,0.0006,-0.0003,-0.00026,-0.0001,-0.00013,2,18
6056,-0.00015,-9e-05,6e-05,0.0006,-0.0003,-0.00026,-0.0001,-0.00013,2,18
6057,-0.00015,-9e-05,6e-05,0.0006,-0.0003,-0.00026,-0.0001,-0.00013,2,18
6058,-0.00015,-9e-05,6e-05,0.0006,-0.0003,-0.00026,-0.0001,-0.00013,2,18
6059,-0.00024,-2e-05,-0.00012,-0.00052,4e-05,-0.00011,4e-05,0,2,18
6060,0.0002,-7e-05,-0.00017,4e-05,0.00018,-0.00028,-1e-05,5e-05,2,18
6061,0.0002,-7e-05,-0.00017,4e-05,0.00018,-0.00028,-1e-05,5e-05,2,18
6062,0.0002,-7e-05,-0.00017,4e-05,0.00018,-0.00028,-1e-05,5e-05,2,18
6063,0.0002,-7e-05,-0.00017,4e-05,0.00018,-0.00028,-1e-05,5e-05,2,18
6064,0.0002,-7e-05,-0.00017,4e-05,0.00018,-0.00028,-1e-05,5e-05,2,18
6065,0.0002,-7e-05,-0.00017,4e-05,0.00018,-0.00028,-1e-05,5e-05,2,18
6066,0.0002,-7e-05,-0.00017,4e-05,0.00018,-0.00028,-1e-05,5e-05,2,18
6067,0.0002,-7e-05,-0.00017,4e-05,0.00018,-0.00028,-1e-05,5e-05,2,18
6068,0.00047,-7e-05,7e-05,0.00029,-0.00013,6e-05,0.00044,6e-05,2,18
6069,0.00047,-7e-05,7e-05,0.00029,-0.00013,6e-05,0.00044,6e-05,2,18
6070,0.00047,-7e-05,7e-05,0.00029,-0.00013,6e-05,0.00044,6e-05,2,18
6071,0.00047,-7e-05,7e-05,0.00029,-0.00013,6e-05,0.00044,6e-05,2,18
6072,0.00047,-7e-05,7e-05,0.00029,-0.00013,6e-05,0.00044,6e-05,2,18
6073,0.00047,-7e-05,7e-05,0.00029,-0.00013,6e-05,0.00044,6e-05,2,18
6074,0.00047,-7e-05,7e-05,0.00029,-0.00013,6e-05,0.00044,6e-05,2,18
6075,0.00047,-7e-05,7e-05,0.00029,-0.00013,6e-05,0.00044,6e-05,2,18
6076,0.00047,-7e-05,7e-05,0.00029,-0.00013,6e-05,0.00044,6e-05,2,18
6077,0.00047,-7e-05,7e-05,0.00029,-0.00013,6e-05,0.00044,6e-05,2,18
6078,0.00047,-7e-05,7e-05,0.00029,-0.00013,6e-05,0.00044,6e-05,2,18
6079,0.00047,-7e-05,7e-05,0.00029,-0.00013,6e-05,0.00044,6e-05,2,18
6080,0.00047,-7e-05,7e-05,0.00029,-0.00013,6e-05,0.00044,6e-05,2,18
6081,0.00047,-7e-05,7e-05,0.00029,-0.00013,6e-05,0.00044,6e-05,2,18
6082,0.00047,-7e-05,7e-05,0.00029,-0.00013,6e-05,0.00044,6e-05,2,18
6083,0.00047,-7e-05,7e-05,0.00029,-0.00013,6e-05,0.00044,6e-05,2,18
6084,0.00047,-7e-05,7e-05,0.00029,-0.00013,6e-05,0.00044,6e-05,2,18
6085,0.00047,-7e-05,7e-05,0.00029,-0.00013,6e-05,0.00044,6e-05,2,18
6086,0.00047,-7e-05,7e-05,0.00029,-0.00013,6e-05,0.00044,6e-05,2,18
6088,0.00047,-7e-05,7e-05,0.00029,-0.00013,6e-05,0.00044,6e-05,2,18
6089,0.00047,-7e-05,7e-05,0.00029,-0.00013,6e-05,0.00044,6e-05,2,18
6090,-0.00019,1e-05,1e-05,0.00011,0.00013,0.0002,-0.00021,-3e-05,2,18
6091,-0.00019,1e-05,1e-05,0.00011,0.00013,0.0002,-0.00021,-3e-05,2,18
6092,-0.00019,-0.00011,-0.00012,-0.0006,-0.00013,-0.00039,-1e-05,-0.00013,2,18
6093,-0.00019,-0.00011,-0.00012,-0.0006,-0.00013,-0.00039,-1e-05,-0.00013,2,18
6094,-0.00019,-0.00011,-0.00012,-0.0006,-0.00013,-0.00039,-1e-05,-0.00013,2,18
6095,-0.00019,-0.00011,-0.00012,-0.0006,-0.00013,-0.00039,-1e-05,-0.00013,2,18
6096,-0.00019,-0.00011,-0.00012,-0.0006,-0.00013,-0.00039,-1e-05,-0.00013,2,18
6097,-0.00019,-0.00011,-0.00012,-0.0006,-0.00013,-0.00039,-1e-05,-0.00013,2,18
6098,-0.00019,-0.00011,-0.00012,-0.0006,-0.00013,-0.00039,-1e-05,-0.00013,2,18
6099,-0.00019,-0.00011,-0.00012,-0.0006,-0.00013,-0.00039,-1e-05,-0.00013,2,18
6100,-0.00019,-0.00011,-0.00012,-0.0006,-0.00013,-0.00039,-1e-05,-0.00013,2,18
6101,-0.00019,-0.00011,-0.00012,-0.0006,-0.00013,-0.00039,-1e-05,-0.00013,2,18
6102,-0.00019,-0.00011,-0.00012,-0.0006,-0.00013,-0.00039,-1e-05,-0.00013,2,18
6103,-0.00019,-0.00011,-0.00012,-0.0006,-0.00013,-0.00039,-1e-05,-0.00013,2,18
6104,-0.00045,-3e-05,-5e-05,-0.00021,3e-05,0.00039,0.00048,-8e-05,2,18
6105,-0.00045,-3e-05,-5e-05,-0.00021,3e-05,0.00039,0.00048,-8e-05,2,18
6106,-0.00045,-3e-05,-5e-05,-0.00021,3e-05,0.00039,0.00048,-8e-05,2,18
6107,-0.00045,-3e-05,-5e-05,-0.00021,3e-05,0.00039,0.00048,-8e-05,2,18
6108,-0.00045,-3e-05,-5e-05,-0.00021,3e-05,0.00039,0.00048,-8e-05,2,18
6109,-0.00045,-3e-05,-5e-05,-0.00021,3e-05,0.00039,0.00048,-8e-05,2,18
6110,-0.00045,-3e-05,-5e-05,-0.00021,3e-05,0.00039,0.00048,-8e-05,2,18
6111,-0.00045,-3e-05,-5e-05,-0.00021,3e-05,0.00039,0.00048,-8e-05,2,18
6112,-0.00045,-3e-05,-5e-05,-0.00021,3e-05,0.00039,0.00048,-8e-05,2,18
6113,-0.00045,-3e-05,-5e-05,-0.00021,3e-05,0.00039,0.00048,-8e-05,2,18
6114,-0.00045,-3e-05,-5e-05,-0.00021,3e-05,0.00039,0.00048,-8e-05,2,18
6115,-0.00045,-3e-05,-5e-05,-0.00021,3e-05,0.00039,0.00048,-8e-05,2,18
6116,-0.00045,-3e-05,-5e-05,-0.00021,3e-05,0.00039,0.00048,-8e-05,2,18
6117,-0.00045,-3e-05,-5e-05,-0.00021,3e-05,0.00039,0.00048,-8e-05,2,18
6118,-0.00045,-3e-05,-5e-05,-0.00021,3e-05,0.00039,0.00048,-8e-05,2,18
6119,-0.00045,-3e-05,-5e-05,-0.00021,3e-05,0.00039,0.00048,-8e-05,2,18
6120,-0.00045,-3e-05,-5e-05,-0.00021,3e-05,0.00039,0.00048,-8e-05,2,18
6121,3e-05,-5e-05,-2e-05,0.00035,-0.0001,-7e-05,-0.00016,-3e-05,2,18
6122,-0.00034,6e-05,5e-05,-0.00024,7e-05,0.00019,0.00049,2e-05,2,18
6123,-0.00034,6e-05,5e-05,-0.00024,7e-05,0.00019,0.00049,2e-05,2,18
6124,-0.00034,6e-05,5e-05,-0.00024,7e-05,0.00019,0.00049,2e-05,2,18
6125,-0.00034,6e-05,5e-05,-0.00024,7e-05,0.00019,0.00049,2e-05,2,18
6126,-0.00034,6e-05,5e-05,-0.00024,7e-05,0.00019,0.00049,2e-05,2,18
6127,-0.00034,6e-05,5e-05,-0.00024,7e-05,0.00019,0.00049,2e-05,2,18
6128,0.00022,-0.00011,-0.00027,-0.00114,-0.00016,-9e-05,-0.00035,-5e-05,2,18
6129,0.00022,-0.00011,-0.00027,-0.00114,-0.00016,-9e-05,-0.00035,-5e-05,2,18
6130,0.00022,-0.00011,-0.00027,-0.00114,-0.00016,-9e-05,-0.00035,-5e-05,2,18
6131,0.00022,-0.00011,-0.00027,-0.00114,-0.00016,-9e-05,-0.00035,-5e-05,2,18
6132,0.00022,-0.00011,-0.00027,-0.00114,-0.00016,-9e-05,-0.00035,-5e-05,2,18
6133,0.00022,-0.00011,-0.00027,-0.00114,-0.00016,-9e-05,-0.00035,-5e-05,2,18
6134,0.00022,-0.00011,-0.00027,-0.00114,-0.00016,-9e-05,-0.00035,-5e-05,2,18
6135,0.00022,-0.00011,-0.00027,-0.00114,-0.00016,-9e-05,-0.00035,-5e-05,2,18
6136,0.00022,-0.00011,-0.00027,-0.00114,-0.00016,-9e-05,-0.00035,-5e-05,2,18
6138,0.00022,-0.00011,-0.00027,-0.00114,-0.00016,-9e-05,-0.00035,-5e-05,2,18
6139,0.00022,-0.00011,-0.00027,-0.00114,-0.00016,-9e-05,-0.00035,-5e-05,2,18
6140,0.00022,-0.00011,-0.00027,-0.00114,-0.00016,-9e-05,-0.00035,-5e-05,2,18
6141,0.00022,-0.00011,-0.00027,-0.00114,-0.00016,-9e-05,-0.00035,-5e-05,2,18
6142,0.00022,-0.00011,-0.00027,-0.00114,-0.00016,-9e-05,-0.00035,-5e-05,2,18
6143,0.00022,-0.00011,-0.00027,-0.00114,-0.00016,-9e-05,-0.00035,-5e-05,2,18
6144,0.00022,-0.00011,-0.00027,-0.00114,-0.00016,-9e-05,-0.00035,-5e-05,2,18
6145,0.00022,-0.00011,-0.00027,-0.00114,-0.00016,-9e-05,-0.00035,-5e-05,2,18
6146,0.00022,-0.00011,-0.00027,-0.00114,-0.00016,-9e-05,-0.00035,-5e-05,2,18
6147,0.00022,-0.00011,-0.00027,-0.00114,-0.00016,-9e-05,-0.00035,-5e-05,2,18
6148,0.00022,-0.00011,-0.00027,-0.00114,-0.00016,-9e-05,-0.00035,-5e-05,2,18
6149,0.00022,-0.00011,-0.00027,-0.00114,-0.00016,-9e-05,-0.00035,-5e-05,2,18
6150,-0.00024,-4e-05,-2e-05,-9e-05,0,4e-05,2e-05,1e-05,2,18
6151,0.00038,4e-05,9e-05,0.0002,3e-05,9e-05,0,4e-05,2,18
6152,-0.00081,8e-05,0,0.00016,0.00018,-0.0003,0.00035,0.00033,2,18
6153,-0.00081,8e-05,0,0.00016,0.00018,-0.0003,0.00035,0.00033,2,18
6154,-0.00081,8e-05,0,0.00016,0.00018,-0.0003,0.00035,0.00033,2,18
6155,-0.00081,8e-05,0,0.00016,0.00018,-0.0003,0.00035,0.00033,2,18
6156,-0.00081,8e-05,0,0.00016,0.00018,-0.0003,0.00035,0.00033,2,18
6157,-0.00081,8e-05,0,0.00016,0.00018,-0.0003,0.00035,0.00033,2,18
6158,-0.00081,8e-05,0,0.00016,0.00018,-0.0003,0.00035,0.00033,2,18
6159,-0.00081,8e-05,0,0.00016,0.00018,-0.0003,0.00035,0.00033,2,18
6160,-0.00081,8e-05,0,0.00016,0.00018,-0.0003,0.00035,0.00033,2,18
6161,-0.00081,8e-05,0,0.00016,0.00018,-0.0003,0.00035,0.00033,2,18
6162,-0.00081,8e-05,0,0.00016,0.00018,-0.0003,0.00035,0.00033,2,18
6163,-0.00081,8e-05,0,0.00016,0.00018,-0.0003,0.00035,0.00033,2,18
6164,-0.00081,8e-05,0,0.00016,0.00018,-0.0003,0.00035,0.00033,2,18
6165,-0.00093,-5e-05,1e-05,0.00017,0.00023,0.00052,6e-05,-0.00015,2,18
6166,0.00029,-4e-05,-9e-05,-9e-05,-0.00043,-0.00031,0.00019,0,2,18
6167,0.00059,-5e-05,-0.0001,0.00016,0.00056,0.00017,-0.00026,9e-05,2,18
6168,0.00059,-5e-05,-0.0001,0.00016,0.00056,0.00017,-0.00026,9e-05,2,18
6169,0.00059,-5e-05,-0.0001,0.00016,0.00056,0.00017,-0.00026,9e-05,2,18
6170,0.00059,-5e-05,-0.0001,0.00016,0.00056,0.00017,-0.00026,9e-05,2,18
6171,0.00059,-5e-05,-0.0001,0.00016,0.00056,0.00017,-0.00026,9e-05,2,18
6172,0.00059,-5e-05,-0.0001,0.00016,0.00056,0.00017,-0.00026,9e-05,2,18
6173,0.00059,-5e-05,-0.0001,0.00016,0.00056,0.00017,-0.00026,9e-05,2,18
6174,0.00059,-5e-05,-0.0001,0.00016,0.00056,0.00017,-0.00026,9e-05,2,18
6175,0.00059,-5e-05,-0.0001,0.00016,0.00056,0.00017,-0.00026,9e-05,2,18
6176,0.00059,-5e-05,-0.0001,0.00016,0.00056,0.00017,-0.00026,9e-05,2,18
6177,0.00059,-5e-05,-0.0001,0.00016,0.00056,0.00017,-0.00026,9e-05,2,18
6178,0.00059,-5e-05,-0.0001,0.00016,0.00056,0.00017,-0.00026,9e-05,2,18
6179,0.00059,-5e-05,-0.0001,0.00016,0.00056,0.00017,-0.00026,9e-05,2,18
6180,0.00059,-5e-05,-0.0001,0.00016,0.00056,0.00017,-0.00026,9e-05,2,18
6181,0.00059,-5e-05,-0.0001,0.00016,0.00056,0.00017,-0.00026,9e-05,2,18
6182,0.00059,-5e-05,-0.0001,0.00016,0.00056,0.00017,-0.00026,9e-05,2,18
6183,0.00059,-5e-05,-0.0001,0.00016,0.00056,0.00017,-0.00026,9e-05,2,18
6184,0.00059,-5e-05,-0.0001,0.00016,0.00056,0.00017,-0.00026,9e-05,2,18
6185,0.00059,-5e-05,-0.0001,0.00016,0.00056,0.00017,-0.00026,9e-05,2,18
6186,0.00059,-5e-05,-0.0001,0.00016,0.00056,0.00017,-0.00026,9e-05,2,18
6188,0.00011,5e-05,1e-05,-0.00024,-8e-05,-4e-05,-0.00011,-9e-05,2,18
6189,0.00011,5e-05,1e-05,-0.00024,-8e-05,-4e-05,-0.00011,-9e-05,2,18
6190,0.00011,5e-05,1e-05,-0.00024,-8e-05,-4e-05,-0.00011,-9e-05,2,18
6191,0.00011,5e-05,1e-05,-0.00024,-8e-05,-4e-05,-0.00011,-9e-05,2,18
6192,0.00011,5e-05,1e-05,-0.00024,-8e-05,-4e-05,-0.00011,-9e-05,2,18
6193,0.00011,5e-05,1e-05,-0.00024,-8e-05,-4e-05,-0.00011,-9e-05,2,18
6194,3e-05,5e-05,7e-05,0.00065,-4e-05,0.00014,0.00033,8e-05,2,18
6195,3e-05,5e-05,7e-05,0.00065,-4e-05,0.00014,0.00033,8e-05,2,18
6196,3e-05,5e-05,7e-05,0.00065,-4e-05,0.00014,0.00033,8e-05,2,18
6197,3e-05,5e-05,7e-05,0.00065,-4e-05,0.00014,0.00033,8e-05,2,18
6198,3e-05,5e-05,7e-05,0.00065,-4e-05,0.00014,0.00033,8e-05,2,18
6199,3e-05,5e-05,7e-05,0.00065,-4e-05,0.00014,0.00033,8e-05,2,18
6200,3e-05,5e-05,7e-05,0.00065,-4e-05,0.00014,0.00033,8e-05,2,18
6201,3e-05,5e-05,7e-05,0.00065,-4e-05,0.00014,0.00033,8e-05,2,18
6202,3e-05,5e-05,7e-05,0.00065,-4e-05,0.00014,0.00033,8e-05,2,18
6203,0.00075,-6e-05,-2e-05,-0.00039,-0.00018,0.0001,-0.00048,1e-05,2,18
6204,0.00075,-6e-05,-2e-05,-0.00039,-0.00018,0.0001,-0.00048,1e-05,2,18
6205,0.00075,-6e-05,-2e-05,-0.00039,-0.00018,0.0001,-0.00048,1e-05,2,18
6206,0.00075,-6e-05,-2e-05,-0.00039,-0.00018,0.0001,-0.00048,1e-05,2,18
6207,0.00075,-6e-05,-2e-05,-0.00039,-0.00018,0.0001,-0.00048,1e-05,2,18
6208,0.00075,-6e-05,-2e-05,-0.00039,-0.00018,0.0001,-0.00048,1e-05,2,18
6209,0.0005,-1e-05,0.00015,0.00059,-0.00023,-2e-05,-0.00028,0,2,18
6210,0.0005,-1e-05,0.00015,0.00059,-0.00023,-2e-05,-0.00028,0,2,18
6211,0.0005,-1e-05,0.00015,0.00059,-0.00023,-2e-05,-0.00028,0,2,18
6212,0.0005,-1e-05,0.00015,0.00059,-0.00023,-2e-05,-0.00028,0,2,18
6213,0.0005,-1e-05,0.00015,0.00059,-0.00023,-2e-05,-0.00028,0,2,18
6214,0.0005,-1e-05,0.00015,0.00059,-0.00023,-2e-05,-0.00028,0,2,18
6215,0.0005,-1e-05,0.00015,0.00059,-0.00023,-2e-05,-0.00028,0,2,18
6216,0.0005,-1e-05,0.00015,0.00059,-0.00023,-2e-05,-0.00028,0,2,18
6217,0.0005,-1e-05,0.00015,0.00059,-0.00023,-2e-05,-0.00028,0,2,18
6218,0.0005,-1e-05,0.00015,0.00059,-0.00023,-2e-05,-0.00028,0,2,18
6219,0.0005,-1e-05,0.00015,0.00059,-0.00023,-2e-05,-0.00028,0,2,18
6220,0.0005,-1e-05,0.00015,0.00059,-0.00023,-2e-05,-0.00028,0,2,18
6221,0.0005,-1e-05,0.00015,0.00059,-0.00023,-2e-05,-0.00028,0,2,18
6222,0.0005,-1e-05,0.00015,0.00059,-0.00023,-2e-05,-0.00028,0,2,18
6223,0.0005,-1e-05,0.00015,0.00059,-0.00023,-2e-05,-0.00028,0,2,18
6224,0.0005,-1e-05,0.00015,0.00059,-0.00023,-2e-05,-0.00028,0,2,18
6225,0.00041,2e-05,0.00011,0.0003,-0.00018,-0.00048,2e-05,-0.00011,2,18
6226,0.00041,2e-05,0.00011,0.0003,-0.00018,-0.00048,2e-05,-0.00011,2,18
6227,-0.00094,-0.00011,0.0002,0.00108,-0.00049,8e-05,-0.00028,-0.0002,2,18
6228,-0.00094,-0.00011,0.0002,0.00108,-0.00049,8e-05,-0.00028,-0.0002,2,18
6229,-0.00094,-0.00011,0.0002,0.00108,-0.00049,8e-05,-0.00028,-0.0002,2,18
6230,-0.00094,-0.00011,0.0002,0.00108,-0.00049,8e-05,-0.00028,-0.0002,2,18
6231,-0.00094,-0.00011,0.0002,0.00108,-0.00049,8e-05,-0.00028,-0.0002,2,18
6232,-0.00094,-0.00011,0.0002,0.00108,-0.00049,8e-05,-0.00028,-0.0002,2,18
6233,-0.00094,-0.00011,0.0002,0.00108,-0.00049,8e-05,-0.00028,-0.0002,2,18
6234,-0.00094,-0.00011,0.0002,0.00108,-0.00049,8e-05,-0.00028,-0.0002,2,18
6235,-0.00094,-0.00011,0.0002,0.00108,-0.00049,8e-05,-0.00028,-0.0002,2,18
6236,-0.00094,-0.00011,0.0002,0.00108,-0.00049,8e-05,-0.00028,-0.0002,2,18
6238,-0.00094,-0.00011,0.0002,0.00108,-0.00049,8e-05,-0.00028,-0.0002,2,18
6239,-0.00094,-0.00011,0.0002,0.00108,-0.00049,8e-05,-0.00028,-0.0002,2,18
6240,-0.00094,-0.00011,0.0002,0.00108,-0.00049,8e-05,-0.00028,-0.0002,2,18
6241,-0.00094,-0.00011,0.0002,0.00108,-0.00049,8e-05,-0.00028,-0.0002,2,18
6242,-0.00094,-0.00011,0.0002,0.00108,-0.00049,8e-05,-0.00028,-0.0002,2,18
6243,-0.00094,-0.00011,0.0002,0.00108,-0.00049,8e-05,-0.00028,-0.0002,2,18
6244,-0.00094,-0.00011,0.0002,0.00108,-0.00049,8e-05,-0.00028,-0.0002,2,18
6245,-0.00094,-0.00011,0.0002,0.00108,-0.00049,8e-05,-0.00028,-0.0002,2,18
6246,-0.00094,-0.00011,0.0002,0.00108,-0.00049,8e-05,-0.00028,-0.0002,2,18
6247,-0.00094,-0.00011,0.0002,0.00108,-0.00049,8e-05,-0.00028,-0.0002,2,18
6248,-0.0007,-1e-05,-4e-05,0.00055,-9e-05,-1e-05,-0.00029,-6e-05,2,18
6249,-0.0007,-1e-05,-4e-05,0.00055,-9e-05,-1e-05,-0.00029,-6e-05,2,18
6250,-0.0007,-1e-05,-4e-05,0.00055,-9e-05,-1e-05,-0.00029,-6e-05,2,18
6251,-0.0007,-1e-05,-4e-05,0.00055,-9e-05,-1e-05,-0.00029,-6e-05,2,18
6252,-0.0007,-1e-05,-4e-05,0.00055,-9e-05,-1e-05,-0.00029,-6e-05,2,18
6253,-0.0007,-1e-05,-4e-05,0.00055,-9e-05,-1e-05,-0.00029,-6e-05,2,18
6254,0.00048,5e-05,0.0001,1e-05,8e-05,8e-05,3e-05,0.00023,2,18
6255,0.00048,5e-05,0.0001,1e-05,8e-05,8e-05,3e-05,0.00023,2,18
6256,0.00048,5e-05,0.0001,1e-05,8e-05,8e-05,3e-05,0.00023,2,18
6257,0.00048,5e-05,0.0001,1e-05,8e-05,8e-05,3e-05,0.00023,2,18
6258,0.00048,5e-05,0.0001,1e-05,8e-05,8e-05,3e-05,0.00023,2,18
6259,0.00048,5e-05,0.0001,1e-05,8e-05,8e-05,3e-05,0.00023,2,18
6260,0.00048,5e-05,0.0001,1e-05,8e-05,8e-05,3e-05,0.00023,2,18
6261,0.00048,5e-05,0.0001,1e-05,8e-05,8e-05,3e-05,0.00023,2,18
6262,0.00048,5e-05,0.0001,1e-05,8e-05,8e-05,3e-05,0.00023,2,18
6264,0.00048,5e-05,0.0001,1e-05,8e-05,8e-05,3e-05,0.00023,2,18
6265,0.00048,5e-05,0.0001,1e-05,8e-05,8e-05,3e-05,0.00023,2,18
6266,0.00029,-0.00015,-0.00022,-0.00089,0.00012,0.00014,-4e-05,-8e-05,2,18
6267,0.00029,-0.00015,-0.00022,-0.00089,0.00012,0.00014,-4e-05,-8e-05,2,18
6268,0.00029,-0.00015,-0.00022,-0.00089,0.00012,0.00014,-4e-05,-8e-05,2,18
6269,0.00029,-0.00015,-0.00022,-0.00089,0.00012,0.00014,-4e-05,-8e-05,2,18
6270,0.00029,-0.00015,-0.00022,-0.00089,0.00012,0.00014,-4e-05,-8e-05,2,18
6271,0.00029,-0.00015,-0.00022,-0.00089,0.00012,0.00014,-4e-05,-8e-05,2,18
6272,0.00029,-0.00015,-0.00022,-0.00089,0.00012,0.00014,-4e-05,-8e-05,2,18
6273,0.00029,-0.00015,-0.00022,-0.00089,0.00012,0.00014,-4e-05,-8e-05,2,18
6274,0.00029,-0.00015,-0.00022,-0.00089,0.00012,0.00014,-4e-05,-8e-05,2,18
6275,0.00029,-0.00015,-0.00022,-0.00089,0.00012,0.00014,-4e-05,-8e-05,2,18
6276,0.00029,-0.00015,-0.00022,-0.00089,0.00012,0.00014,-4e-05,-8e-05,2,18
6277,0.00029,-0.00015,-0.00022,-0.00089,0.00012,0.00014,-4e-05,-8e-05,2,18
6278,0.00029,-0.00015,-0.00022,-0.00089,0.00012,0.00014,-4e-05,-8e-05,2,18
6279,0.00029,-0.00015,-0.00022,-0.00089,0.00012,0.00014,-4e-05,-8e-05,2,18
6280,0.00029,-0.00015,-0.00022,-0.00089,0.00012,0.00014,-4e-05,-8e-05,2,18
6281,0.00029,-0.00015,-0.00022,-0.00089,0.00012,0.00014,-4e-05,-8e-05,2,18
6282,0.00029,-0.00015,-0.00022,-0.00089,0.00012,0.00014,-4e-05,-8e-05,2,18
6283,0.00029,-0.00015,-0.00022,-0.00089,0.00012,0.00014,-4e-05,-8e-05,2,18
6284,0.00029,-0.00015,-0.00022,-0.00089,0.00012,0.00014,-4e-05,-8e-05,2,18
6285,-0.00069,-2e-05,-1e-05,-0.00013,4e-05,-0.00036,-0.0001,-0.00011,2,18
6286,-0.00069,-2e-05,-1e-05,-0.00013,4e-05,-0.00036,-0.0001,-0.00011,2,18
6288,0.00046,7e-05,-0.00013,-0.00095,4e-05,-0.00016,-2e-05,-2e-05,2,18
6289,0.00046,7e-05,-0.00013,-0.00095,4e-05,-0.00016,-2e-05,-2e-05,2,18
6290,0.00046,7e-05,-0.00013,-0.00095,4e-05,-0.00016,-2e-05,-2e-05,2,18
6291,0.00046,7e-05,-0.00013,-0.00095,4e-05,-0.00016,-2e-05,-2e-05,2,18
6292,0.00046,7e-05,-0.00013,-0.00095,4e-05,-0.00016,-2e-05,-2e-05,2,18
6293,0.00046,7e-05,-0.00013,-0.00095,4e-05,-0.00016,-2e-05,-2e-05,2,18
6294,0.00046,7e-05,-0.00013,-0.00095,4e-05,-0.00016,-2e-05,-2e-05,2,18
6295,0.00046,7e-05,-0.00013,-0.00095,4e-05,-0.00016,-2e-05,-2e-05,2,18
6296,0.00046,7e-05,-0.00013,-0.00095,4e-05,-0.00016,-2e-05,-2e-05,2,18
6297,0.00046,7e-05,-0.00013,-0.00095,4e-05,-0.00016,-2e-05,-2e-05,2,18
6298,0.00046,7e-05,-0.00013,-0.00095,4e-05,-0.00016,-2e-05,-2e-05,2,18
6299,0.00046,7e-05,-0.00013,-0.00095,4e-05,-0.00016,-2e-05,-2e-05,2,18
6300,0.00046,7e-05,-0.00013,-0.00095,4e-05,-0.00016,-2e-05,-2e-05,2,18
6301,0.00046,7e-05,-0.00013,-0.00095,4e-05,-0.00016,-2e-05,-2e-05,2,18
6302,0.00046,7e-05,-0.00013,-0.00095,4e-05,-0.00016,-2e-05,-2e-05,2,18
6303,0.00046,7e-05,-0.00013,-0.00095,4e-05,-0.00016,-2e-05,-2e-05,2,18
6304,0.00046,7e-05,-0.00013,-0.00095,4e-05,-0.00016,-2e-05,-2e-05,2,18
6305,0.00046,7e-05,-0.00013,-0.00095,4e-05,-0.00016,-2e-05,-2e-05,2,18
6306,0.00046,7e-05,-0.00013,-0.00095,4e-05,-0.00016,-2e-05,-2e-05,2,18
6307,0.00046,7e-05,-0.00013,-0.00095,4e-05,-0.00016,-2e-05,-2e-05,2,18
6308,0.00023,-2e-05,6e-05,0.00044,-0.00013,-0.00011,-0.00033,0.00014,2,18
6309,-0.00098,-2e-05,-7e-05,-0.0005,-7e-05,9e-05,0.00055,-0.00018,2,18
6310,-0.00098,-2e-05,-7e-05,-0.0005,-7e-05,9e-05,0.00055,-0.00018,2,18
6311,-0.00098,-2e-05,-7e-05,-0.0005,-7e-05,9e-05,0.00055,-0.00018,2,18
6312,-0.00098,-2e-05,-7e-05,-0.0005,-7e-05,9e-05,0.00055,-0.00018,2,18
6313,-0.00098,-2e-05,-7e-05,-0.0005,-7e-05,9e-05,0.00055,-0.00018,2,18
6314,-0.00098,-2e-05,-7e-05,-0.0005,-7e-05,9e-05,0.00055,-0.00018,2,18
6315,-0.00098,-2e-05,-7e-05,-0.0005,-7e-05,9e-05,0.00055,-0.00018,2,18
6316,-0.00098,-2e-05,-7e-05,-0.0005,-7e-05,9e-05,0.00055,-0.00018,2,18
6317,-0.00098,-2e-05,-7e-05,-0.0005,-7e-05,9e-05,0.00055,-0.00018,2,18
6318,-0.00098,-2e-05,-7e-05,-0.0005,-7e-05,9e-05,0.00055,-0.00018,2,18
6319,-0.00098,-2e-05,-7e-05,-0.0005,-7e-05,9e-05,0.00055,-0.00018,2,18
6320,-0.00098,-2e-05,-7e-05,-0.0005,-7e-05,9e-05,0.00055,-0.00018,2,18
6321,-0.00098,-2e-05,-7e-05,-0.0005,-7e-05,9e-05,0.00055,-0.00018,2,18
6322,0.00064,-5e-05,-0.00036,-0.00072,0.00022,0.00022,0.00014,-7e-05,2,18
6323,0.00064,-5e-05,-0.00036,-0.00072,0.00022,0.00022,0.00014,-7e-05,2,18
6324,0.00064,-5e-05,-0.00036,-0.00072,0.00022,0.00022,0.00014,-7e-05,2,18
6325,0.00064,-5e-05,-0.00036,-0.00072,0.00022,0.00022,0.00014,-7e-05,2,18
6326,0.00064,-5e-05,-0.00036,-0.00072,0.00022,0.00022,0.00014,-7e-05,2,18
6327,0.00064,-5e-05,-0.00036,-0.00072,0.00022,0.00022,0.00014,-7e-05,2,18
6328,0.00064,-5e-05,-0.00036,-0.00072,0.00022,0.00022,0.00014,-7e-05,2,18
6329,0.00064,-5e-05,-0.00036,-0.00072,0.00022,0.00022,0.00014,-7e-05,2,18
6330,0.00064,-5e-05,-0.00036,-0.00072,0.00022,0.00022,0.00014,-7e-05,2,18
6331,0.00064,-5e-05,-0.00036,-0.00072,0.00022,0.00022,0.00014,-7e-05,2,18
6332,0.00064,-5e-05,-0.00036,-0.00072,0.00022,0.00022,0.00014,-7e-05,2,18
6333,0.00064,-5e-05,-0.00036,-0.00072,0.00022,0.00022,0.00014,-7e-05,2,18
6334,0.00064,-5e-05,-0.00036,-0.00072,0.00022,0.00022,0.00014,-7e-05,2,18
6335,0.00064,-5e-05,-0.00036,-0.00072,0.00022,0.00022,0.00014,-7e-05,2,18
6336,0.00064,-5e-05,-0.00036,-0.00072,0.00022,0.00022,0.00014,-7e-05,2,18
6338,0.00015,0,1e-05,0.00056,0.00017,0.00035,-0.00015,-3e-05,2,18
6339,0.00015,0,1e-05,0.00056,0.00017,0.00035,-0.00015,-3e-05,2,18
6340,0.00015,0,1e-05,0.00056,0.00017,0.00035,-0.00015,-3e-05,2,18
6341,0.00015,0,1e-05,0.00056,0.00017,0.00035,-0.00015,-3e-05,2,18
6342,0.00015,0,1e-05,0.00056,0.00017,0.00035,-0.00015,-3e-05,2,18
6343,0.00015,0,1e-05,0.00056,0.00017,0.00035,-0.00015,-3e-05,2,18
6344,0.00015,0,1e-05,0.00056,0.00017,0.00035,-0.00015,-3e-05,2,18
6345,-0.00072,-1e-05,2e-05,6e-05,-4e-05,-0.00016,-2e-05,-0.00011,2,18
6346,-0.00072,-1e-05,2e-05,6e-05,-4e-05,-0.00016,-2e-05,-0.00011,2,18
6347,-0.00051,-0.00011,-7e-05,-5e-05,-4e-05,-0.0004,-0.00035,-0.00025,2,18
6348,-0.00051,-0.00011,-7e-05,-5e-05,-4e-05,-0.0004,-0.00035,-0.00025,2,18
6349,-0.00051,-0.00011,-7e-05,-5e-05,-4e-05,-0.0004,-0.00035,-0.00025,2,18
6350,-0.00051,-0.00011,-7e-05,-5e-05,-4e-05,-0.0004,-0.00035,-0.00025,2,18
6351,-0.00051,-0.00011,-7e-05,-5e-05,-4e-05,-0.0004,-0.00035,-0.00025,2,18
6352,-0.00051,-0.00011,-7e-05,-5e-05,-4e-05,-0.0004,-0.00035,-0.00025,2,18
6353,-0.00051,-0.00011,-7e-05,-5e-05,-4e-05,-0.0004,-0.00035,-0.00025,2,18
6354,-0.00051,-0.00011,-7e-05,-5e-05,-4e-05,-0.0004,-0.00035,-0.00025,2,18
6355,-0.00051,-0.00011,-7e-05,-5e-05,-4e-05,-0.0004,-0.00035,-0.00025,2,18
6356,-0.00051,-0.00011,-7e-05,-5e-05,-4e-05,-0.0004,-0.00035,-0.00025,2,18
6357,-0.00051,-0.00011,-7e-05,-5e-05,-4e-05,-0.0004,-0.00035,-0.00025,2,18
6358,-0.00051,-0.00011,-7e-05,-5e-05,-4e-05,-0.0004,-0.00035,-0.00025,2,18
6359,-0.00051,-0.00011,-7e-05,-5e-05,-4e-05,-0.0004,-0.00035,-0.00025,2,18
6360,-0.00051,-0.00011,-7e-05,-5e-05,-4e-05,-0.0004,-0.00035,-0.00025,2,18
6361,-0.00051,-0.00011,-7e-05,-5e-05,-4e-05,-0.0004,-0.00035,-0.00025,2,18
6362,-0.00051,-0.00011,-7e-05,-5e-05,-4e-05,-0.0004,-0.00035,-0.00025,2,18
6363,-0.00051,-0.00011,-7e-05,-5e-05,-4e-05,-0.0004,-0.00035,-0.00025,2,18
6364,-0.00051,-0.00011,-7e-05,-5e-05,-4e-05,-0.0004,-0.00035,-0.00025,2,18
6365,-0.00051,-0.00011,-7e-05,-5e-05,-4e-05,-0.0004,-0.00035,-0.00025,2,18
6366,-0.00051,-0.00011,-7e-05,-5e-05,-4e-05,-0.0004,-0.00035,-0.00025,2,18
6367,-0.00051,-0.00011,-7e-05,-5e-05,-4e-05,-0.0004,-0.00035,-0.00025,2,18
6368,0.00068,-4e-05,-7e-05,-9e-05,-0.0001,-2e-05,-0.00057,0.00011,2,18
6369,0.00023,7e-05,3e-05,-0.0002,-7e-05,6e-05,8e-05,-0.00015,2,18
6370,0.00023,7e-05,3e-05,-0.0002,-7e-05,6e-05,8e-05,-0.00015,2,18
6371,0.00023,7e-05,3e-05,-0.0002,-7e-05,6e-05,8e-05,-0.00015,2,18
6372,0.00023,7e-05,3e-05,-0.0002,-7e-05,6e-05,8e-05,-0.00015,2,18
6373,0.00023,7e-05,3e-05,-0.0002,-7e-05,6e-05,8e-05,-0.00015,2,18
6374,0.00023,7e-05,3e-05,-0.0002,-7e-05,6e-05,8e-05,-0.00015,2,18
6375,0.00023,7e-05,3e-05,-0.0002,-7e-05,6e-05,8e-05,-0.00015,2,18
6376,0.00023,7e-05,3e-05,-0.0002,-7e-05,6e-05,8e-05,-0.00015,2,18
6377,0.00023,7e-05,3e-05,-0.0002,-7e-05,6e-05,8e-05,-0.00015,2,18
6378,0.00023,7e-05,3e-05,-0.0002,-7e-05,6e-05,8e-05,-0.00015,2,18
6379,0.00023,7e-05,3e-05,-0.0002,-7e-05,6e-05,8e-05,-0.00015,2,18
6380,0.00023,7e-05,3e-05,-0.0002,-7e-05,6e-05,8e-05,-0.00015,2,18
6381,0.00023,7e-05,3e-05,-0.0002,-7e-05,6e-05,8e-05,-0.00015,2,18
6382,0.00034,-4e-05,-8e-05,-0.00023,-2e-05,-2e-05,0.00047,-4e-05,2,18
6383,0.00034,-4e-05,-8e-05,-0.00023,-2e-05,-2e-05,0.00047,-4e-05,2,18
6384,0.00034,-4e-05,-8e-05,-0.00023,-2e-05,-2e-05,0.00047,-4e-05,2,18
6385,0.00034,-4e-05,-8e-05,-0.00023,-2e-05,-2e-05,0.00047,-4e-05,2,18
6386,0.00034,-4e-05,-8e-05,-0.00023,-2e-05,-2e-05,0.00047,-4e-05,2,18
6388,0.00034,-4e-05,-8e-05,-0.00023,-2e-05,-2e-05,0.00047,-4e-05,2,18
6389,0.00034,-4e-05,-8e-05,-0.00023,-2e-05,-2e-05,0.00047,-4e-05,2,18
6390,0.00034,-4e-05,-8e-05,-0.00023,-2e-05,-2e-05,0.00047,-4e-05,2,18
6391,0.00034,-4e-05,-8e-05,-0.00023,-2e-05,-2e-05,0.00047,-4e-05,2,18
6392,0.00034,-4e-05,-8e-05,-0.00023,-2e-05,-2e-05,0.00047,-4e-05,2,18
6393,0.00034,-4e-05,-8e-05,-0.00023,-2e-05,-2e-05,0.00047,-4e-05,2,18
6394,0.00034,-4e-05,-8e-05,-0.00023,-2e-05,-2e-05,0.00047,-4e-05,2,18
6395,0.00034,-4e-05,-8e-05,-0.00023,-2e-05,-2e-05,0.00047,-4e-05,2,18
6396,0.00034,-4e-05,-8e-05,-0.00023,-2e-05,-2e-05,0.00047,-4e-05,2,18
6397,0.00052,4e-05,-0.00015,-0.00041,0,-5e-05,-9e-05,0.0002,2,18
6398,0.00052,4e-05,-0.00015,-0.00041,0,-5e-05,-9e-05,0.0002,2,18
6399,0.00052,4e-05,-0.00015,-0.00041,0,-5e-05,-9e-05,0.0002,2,18
6400,0.00052,4e-05,-0.00015,-0.00041,0,-5e-05,-9e-05,0.0002,2,18
6401,0.00052,4e-05,-0.00015,-0.00041,0,-5e-05,-9e-05,0.0002,2,18
6402,0.00052,4e-05,-0.00015,-0.00041,0,-5e-05,-9e-05,0.0002,2,18
6403,0.00052,4e-05,-0.00015,-0.00041,0,-5e-05,-9e-05,0.0002,2,18
6404,0.00052,4e-05,-0.00015,-0.00041,0,-5e-05,-9e-05,0.0002,2,18
6405,-0.0006,-2e-05,0.0001,0.00074,-0.0001,0.00024,1e-05,0,2,18
6406,-4e-05,0,2e-05,0.00056,-0.00029,-0.00035,-7e-05,-0.00014,2,18
6407,0.00018,-7e-05,-0.00031,-0.00048,0.00033,4e-05,-0.00025,6e-05,2,18
6408,0.00018,-7e-05,-0.00031,-0.00048,0.00033,4e-05,-0.00025,6e-05,2,18
6409,0.00018,-7e-05,-0.00031,-0.00048,0.00033,4e-05,-0.00025,6e-05,2,18
6410,0.00018,-7e-05,-0.00031,-0.00048,0.00033,4e-05,-0.00025,6e-05,2,18
6411,0.00018,-7e-05,-0.00031,-0.00048,0.00033,4e-05,-0.00025,6e-05,2,18
6412,0.00018,-7e-05,-0.00031,-0.00048,0.00033,4e-05,-0.00025,6e-05,2,18
6413,0.00018,-7e-05,-0.00031,-0.00048,0.00033,4e-05,-0.00025,6e-05,2,18
6414,0.00018,-7e-05,-0.00031,-0.00048,0.00033,4e-05,-0.00025,6e-05,2,18
6415,0.00018,-7e-05,-0.00031,-0.00048,0.00033,4e-05,-0.00025,6e-05,2,18
6416,0.00018,-7e-05,-0.00031,-0.00048,0.00033,4e-05,-0.00025,6e-05,2,18
6417,0.00018,-7e-05,-0.00031,-0.00048,0.00033,4e-05,-0.00025,6e-05,2,18
6418,0.00018,-7e-05,-0.00031,-0.00048,0.00033,4e-05,-0.00025,6e-05,2,18
6419,0.00018,-7e-05,-0.00031,-0.00048,0.00033,4e-05,-0.00025,6e-05,2,18
6420,0.00018,-7e-05,-0.00031,-0.00048,0.00033,4e-05,-0.00025,6e-05,2,18
6421,0.00018,-7e-05,-0.00031,-0.00048,0.00033,4e-05,-0.00025,6e-05,2,18
6422,0.00018,-7e-05,-0.00031,-0.00048,0.00033,4e-05,-0.00025,6e-05,2,18
6423,0.00018,-7e-05,-0.00031,-0.00048,0.00033,4e-05,-0.00025,6e-05,2,18
6424,0.00018,-7e-05,-0.00031,-0.00048,0.00033,4e-05,-0.00025,6e-05,2,18
6425,0.00018,-7e-05,-0.00031,-0.00048,0.00033,4e-05,-0.00025,6e-05,2,18
6426,0.00018,-7e-05,-0.00031,-0.00048,0.00033,4e-05,-0.00025,6e-05,2,18
6427,0.00018,-7e-05,-0.00031,-0.00048,0.00033,4e-05,-0.00025,6e-05,2,18
6428,-0.00015,7e-05,3e-05,9e-05,-3e-05,0.00011,7e-05,9e-05,2,18
6429,-0.00015,7e-05,3e-05,9e-05,-3e-05,0.00011,7e-05,9e-05,2,18
6430,-0.00104,4e-05,0.00015,0.00056,0,1e-05,0.00033,-0.00011,2,18
6431,-0.00104,4e-05,0.00015,0.00056,0,1e-05,0.00033,-0.00011,2,18
6432,-0.00104,4e-05,0.00015,0.00056,0,1e-05,0.00033,-0.00011,2,18
6433,-0.00104,4e-05,0.00015,0.00056,0,1e-05,0.00033,-0.00011,2,18
6434,-0.00104,4e-05,0.00015,0.00056,0,1e-05,0.00033,-0.00011,2,18
6435,-0.00104,4e-05,0.00015,0.00056,0,1e-05,0.00033,-0.00011,2,18
6436,-0.00104,4e-05,0.00015,0.00056,0,1e-05,0.00033,-0.00011,2,18
6438,-0.00104,4e-05,0.00015,0.00056,0,1e-05,0.00033,-0.00011,2,18
6439,-0.00104,4e-05,0.00015,0.00056,0,1e-05,0.00033,-0.00011,2,18
6440,-0.00104,4e-05,0.00015,0.00056,0,1e-05,0.00033,-0.00011,2,18
6441,-0.00104,4e-05,0.00015,0.00056,0,1e-05,0.00033,-0.00011,2,18
6442,0.00033,-3e-05,-3e-05,5e-05,1e-05,-0.0002,-0.00041,-0.00017,2,18
6443,0.00033,-3e-05,-3e-05,5e-05,1e-05,-0.0002,-0.00041,-0.00017,2,18
6444,0.00033,-3e-05,-3e-05,5e-05,1e-05,-0.0002,-0.00041,-0.00017,2,18
6445,0.00033,-3e-05,-3e-05,5e-05,1e-05,-0.0002,-0.00041,-0.00017,2,18
6446,0.00033,-3e-05,-3e-05,5e-05,1e-05,-0.0002,-0.00041,-0.00017,2,18
6447,0.00033,-3e-05,-3e-05,5e-05,1e-05,-0.0002,-0.00041,-0.00017,2,18
6448,0.00033,-3e-05,-3e-05,5e-05,1e-05,-0.0002,-0.00041,-0.00017,2,18
6449,4e-05,2e-05,-7e-05,-0.00035,4e-05,0.00049,0.00014,-1e-05,2,18
6450,0.00037,-3e-05,0.00015,0.00053,-0.00024,-9e-05,5e-05,-2e-05,2,18
6451,0.00037,-3e-05,0.00015,0.00053,-0.00024,-9e-05,5e-05,-2e-05,2,18
6452,0.00037,-3e-05,0.00015,0.00053,-0.00024,-9e-05,5e-05,-2e-05,2,18
6453,0.00037,-3e-05,0.00015,0.00053,-0.00024,-9e-05,5e-05,-2e-05,2,18
6454,0.00037,-3e-05,0.00015,0.00053,-0.00024,-9e-05,5e-05,-2e-05,2,18
6455,0.00037,-3e-05,0.00015,0.00053,-0.00024,-9e-05,5e-05,-2e-05,2,18
6456,0.00037,-3e-05,0.00015,0.00053,-0.00024,-9e-05,5e-05,-2e-05,2,18
6457,0.00037,-3e-05,0.00015,0.00053,-0.00024,-9e-05,5e-05,-2e-05,2,18
6458,0.00037,-3e-05,0.00015,0.00053,-0.00024,-9e-05,5e-05,-2e-05,2,18
6459,0.00037,-3e-05,0.00015,0.00053,-0.00024,-9e-05,5e-05,-2e-05,2,18
6460,0.00037,-3e-05,0.00015,0.00053,-0.00024,-9e-05,5e-05,-2e-05,2,18
6461,0.00037,-3e-05,0.00015,0.00053,-0.00024,-9e-05,5e-05,-2e-05,2,18
6462,0.00037,-3e-05,0.00015,0.00053,-0.00024,-9e-05,5e-05,-2e-05,2,18
6463,0.00037,-3e-05,0.00015,0.00053,-0.00024,-9e-05,5e-05,-2e-05,2,18
6464,0.00037,-3e-05,0.00015,0.00053,-0.00024,-9e-05,5e-05,-2e-05,2,18
6465,0.00037,-3e-05,0.00015,0.00053,-0.00024,-9e-05,5e-05,-2e-05,2,18
6466,0.00054,-7e-05,8e-05,0.00036,0.00014,0.00039,-0.00081,-1e-05,2,18
6467,0.00043,7e-05,0,-7e-05,-0.00019,-0.00024,1e-05,-7e-05,2,18
6468,0.00043,7e-05,0,-7e-05,-0.00019,-0.00024,1e-05,-7e-05,2,18
6469,0.00043,7e-05,0,-7e-05,-0.00019,-0.00024,1e-05,-7e-05,2,18
6470,0.00043,7e-05,0,-7e-05,-0.00019,-0.00024,1e-05,-7e-05,2,18
6471,0.00043,7e-05,0,-7e-05,-0.00019,-0.00024,1e-05,-7e-05,2,18
6472,0.00043,7e-05,0,-7e-05,-0.00019,-0.00024,1e-05,-7e-05,2,18
6473,0.00043,7e-05,0,-7e-05,-0.00019,-0.00024,1e-05,-7e-05,2,18
6474,0.00043,7e-05,0,-7e-05,-0.00019,-0.00024,1e-05,-7e-05,2,18
6475,0.00043,7e-05,0,-7e-05,-0.00019,-0.00024,1e-05,-7e-05,2,18
6476,0.00043,7e-05,0,-7e-05,-0.00019,-0.00024,1e-05,-7e-05,2,18
6477,0.00043,7e-05,0,-7e-05,-0.00019,-0.00024,1e-05,-7e-05,2,18
6478,0.00043,7e-05,0,-7e-05,-0.00019,-0.00024,1e-05,-7e-05,2,18
6479,0.00043,7e-05,0,-7e-05,-0.00019,-0.00024,1e-05,-7e-05,2,18
6480,0.00043,7e-05,0,-7e-05,-0.00019,-0.00024,1e-05,-7e-05,2,18
6481,0.00043,7e-05,0,-7e-05,-0.00019,-0.00024,1e-05,-7e-05,2,18
6482,0.00043,7e-05,0,-7e-05,-0.00019,-0.00024,1e-05,-7e-05,2,18
6483,0.00043,7e-05,0,-7e-05,-0.00019,-0.00024,1e-05,-7e-05,2,18
6484,0.00043,7e-05,0,-7e-05,-0.00019,-0.00024,1e-05,-7e-05,2,18
6485,0.00043,7e-05,0,-7e-05,-0.00019,-0.00024,1e-05,-7e-05,2,18
6486,0.00043,7e-05,0,-7e-05,-0.00019,-0.00024,1e-05,-7e-05,2,18
6488,-4e-05,-8e-05,-5e-05,-8e-05,0.00012,-5e-05,-0.0001,-9e-05,2,18
6489,-9e-05,-4e-05,-9e-05,-0.00012,0.00012,-5e-05,-0.00035,3e-05,2,18
6490,-9e-05,-4e-05,-9e-05,-0.00012,0.00012,-5e-05,-0.00035,3e-05,2,18
6491,-9e-05,-4e-05,-9e-05,-0.00012,0.00012,-5e-05,-0.00035,3e-05,2,18
6492,-9e-05,-4e-05,-9e-05,-0.00012,0.00012,-5e-05,-0.00035,3e-05,2,18
6493,-9e-05,-4e-05,-9e-05,-0.00012,0.00012,-5e-05,-0.00035,3e-05,2,18
6494,-9e-05,-4e-05,-9e-05,-0.00012,0.00012,-5e-05,-0.00035,3e-05,2,18
6495,-9e-05,-4e-05,-9e-05,-0.00012,0.00012,-5e-05,-0.00035,3e-05,2,18
6496,-9e-05,-4e-05,-9e-05,-0.00012,0.00012,-5e-05,-0.00035,3e-05,2,18
6497,-9e-05,-4e-05,-9e-05,-0.00012,0.00012,-5e-05,-0.00035,3e-05,2,18
6499,-9e-05,-4e-05,-9e-05,-0.00012,0.00012,-5e-05,-0.00035,3e-05,2,18
6500,-9e-05,-4e-05,-9e-05,-0.00012,0.00012,-5e-05,-0.00035,3e-05,2,18
6501,-9e-05,-4e-05,-9e-05,-0.00012,0.00012,-5e-05,-0.00035,3e-05,2,18
6502,0.00045,7e-05,-1e-05,-0.00019,-5e-05,-0.00012,0.00033,0,2,18
6503,0.00045,7e-05,-1e-05,-0.00019,-5e-05,-0.00012,0.00033,0,2,18
6504,0.00045,7e-05,-1e-05,-0.00019,-5e-05,-0.00012,0.00033,0,2,18
6505,0.00045,7e-05,-1e-05,-0.00019,-5e-05,-0.00012,0.00033,0,2,18
6506,0.00045,7e-05,-1e-05,-0.00019,-5e-05,-0.00012,0.00033,0,2,18
6507,0.00045,7e-05,-1e-05,-0.00019,-5e-05,-0.00012,0.00033,0,2,18
6508,0.00045,7e-05,-1e-05,-0.00019,-5e-05,-0.00012,0.00033,0,2,18
6509,0.00069,-6e-05,-0.00026,-0.00067,0.00045,0.00046,0.00047,-2e-05,2,18
6510,0.00069,-6e-05,-0.00026,-0.00067,0.00045,0.00046,0.00047,-2e-05,2,18
6511,0.00069,-6e-05,-0.00026,-0.00067,0.00045,0.00046,0.00047,-2e-05,2,18
6512,0.00069,-6e-05,-0.00026,-0.00067,0.00045,0.00046,0.00047,-2e-05,2,18
6513,0.00069,-6e-05,-0.00026,-0.00067,0.00045,0.00046,0.00047,-2e-05,2,18
6514,0.00069,-6e-05,-0.00026,-0.00067,0.00045,0.00046,0.00047,-2e-05,2,18
6515,0.00069,-6e-05,-0.00026,-0.00067,0.00045,0.00046,0.00047,-2e-05,2,18
6516,0.00069,-6e-05,-0.00026,-0.00067,0.00045,0.00046,0.00047,-2e-05,2,18
6517,0.00069,-6e-05,-0.00026,-0.00067,0.00045,0.00046,0.00047,-2e-05,2,18
6518,0.00069,-6e-05,-0.00026,-0.00067,0.00045,0.00046,0.00047,-2e-05,2,18
6519,0.00069,-6e-05,-0.00026,-0.00067,0.00045,0.00046,0.00047,-2e-05,2,18
6520,0.00069,-6e-05,-0.00026,-0.00067,0.00045,0.00046,0.00047,-2e-05,2,18
6521,0.00069,-6e-05,-0.00026,-0.00067,0.00045,0.00046,0.00047,-2e-05,2,18
6522,0.00069,-6e-05,-0.00026,-0.00067,0.00045,0.00046,0.00047,-2e-05,2,18
6523,0.00069,-6e-05,-0.00026,-0.00067,0.00045,0.00046,0.00047,-2e-05,2,18
6524,0.00069,-6e-05,-0.00026,-0.00067,0.00045,0.00046,0.00047,-2e-05,2,18
6525,-0.00024,0,4e-05,0.00018,-9e-05,0.00014,0.0003,-0.00015,2,18
6526,-0.00024,0,4e-05,0.00018,-9e-05,0.00014,0.0003,-0.00015,2,18
6527,0.00065,5e-05,-7e-05,-0.00055,0,-7e-05,-0.00031,-4e-05,2,18
6528,0.00065,5e-05,-7e-05,-0.00055,0,-7e-05,-0.00031,-4e-05,2,18
6529,0.00065,5e-05,-7e-05,-0.00055,0,-7e-05,-0.00031,-4e-05,2,18
6530,0.00065,5e-05,-7e-05,-0.00055,0,-7e-05,-0.00031,-4e-05,2,18
6531,0.00065,5e-05,-7e-05,-0.00055,0,-7e-05,-0.00031,-4e-05,2,18
6532,0.00065,5e-05,-7e-05,-0.00055,0,-7e-05,-0.00031,-4e-05,2,18
6533,0.00065,5e-05,-7e-05,-0.00055,0,-7e-05,-0.00031,-4e-05,2,18
6534,0.00065,5e-05,-7e-05,-0.00055,0,-7e-05,-0.00031,-4e-05,2,18
6535,0.00065,5e-05,-7e-05,-0.00055,0,-7e-05,-0.00031,-4e-05,2,18
6536,0.00065,5e-05,-7e-05,-0.00055,0,-7e-05,-0.00031,-4e-05,2,18
6538,0.00065,5e-05,-7e-05,-0.00055,0,-7e-05,-0.00031,-4e-05,2,18
6539,0.00065,5e-05,-7e-05,-0.00055,0,-7e-05,-0.00031,-4e-05,2,18
6540,0.00065,5e-05,-7e-05,-0.00055,0,-7e-05,-0.00031,-4e-05,2,18
6541,0.00065,5e-05,-7e-05,-0.00055,0,-7e-05,-0.00031,-4e-05,2,18
6542,0.00065,5e-05,-7e-05,-0.00055,0,-7e-05,-0.00031,-4e-05,2,18
6543,0.00065,5e-05,-7e-05,-0.00055,0,-7e-05,-0.00031,-4e-05,2,18
6544,0.00065,5e-05,-7e-05,-0.00055,0,-7e-05,-0.00031,-4e-05,2,18
6546,0.00065,5e-05,-7e-05,-0.00055,0,-7e-05,-0.00031,-4e-05,2,18
6547,0.00065,5e-05,-7e-05,-0.00055,0,-7e-05,-0.00031,-4e-05,2,18
6548,-0.00102,-0.00013,-4e-05,-0.00025,-4e-05,-2e-05,-0.00012,-0.00015,2,18
6549,-0.00102,-0.00013,-4e-05,-0.00025,-4e-05,-2e-05,-0.00012,-0.00015,2,18
6550,-0.00102,-0.00013,-4e-05,-0.00025,-4e-05,-2e-05,-0.00012,-0.00015,2,18
6551,-0.00102,-0.00013,-4e-05,-0.00025,-4e-05,-2e-05,-0.00012,-0.00015,2,18
6552,-0.00102,-0.00013,-4e-05,-0.00025,-4e-05,-2e-05,-0.00012,-0.00015,2,18
6553,-0.00102,-0.00013,-4e-05,-0.00025,-4e-05,-2e-05,-0.00012,-0.00015,2,18
6554,-0.00026,-1e-05,0.00018,0.00075,-0.00011,-3e-05,4e-05,-3e-05,2,18
6555,-0.00026,-1e-05,0.00018,0.00075,-0.00011,-3e-05,4e-05,-3e-05,2,18
6556,-0.00026,-1e-05,0.00018,0.00075,-0.00011,-3e-05,4e-05,-3e-05,2,18
6557,-0.00026,-1e-05,0.00018,0.00075,-0.00011,-3e-05,4e-05,-3e-05,2,18
6558,-0.00026,-1e-05,0.00018,0.00075,-0.00011,-3e-05,4e-05,-3e-05,2,18
6559,-0.00026,-1e-05,0.00018,0.00075,-0.00011,-3e-05,4e-05,-3e-05,2,18
6560,-0.00026,-1e-05,0.00018,0.00075,-0.00011,-3e-05,4e-05,-3e-05,2,18
6561,-0.00026,-1e-05,0.00018,0.00075,-0.00011,-3e-05,4e-05,-3e-05,2,18
6562,-2e-05,0.00011,8e-05,0.00011,-0.00031,-0.00019,0.00046,0.00016,2,18
6563,-2e-05,0.00011,8e-05,0.00011,-0.00031,-0.00019,0.00046,0.00016,2,18
6564,-2e-05,0.00011,8e-05,0.00011,-0.00031,-0.00019,0.00046,0.00016,2,18
6565,-2e-05,0.00011,8e-05,0.00011,-0.00031,-0.00019,0.00046,0.00016,2,18
6566,-2e-05,0.00011,8e-05,0.00011,-0.00031,-0.00019,0.00046,0.00016,2,18
6567,-2e-05,0.00011,8e-05,0.00011,-0.00031,-0.00019,0.00046,0.00016,2,18
6568,-2e-05,0.00011,8e-05,0.00011,-0.00031,-0.00019,0.00046,0.00016,2,18
6569,0.00014,2e-05,4e-05,0.00016,-0.00011,-0.0005,-0.00024,0.00032,2,18
6570,0.00014,2e-05,4e-05,0.00016,-0.00011,-0.0005,-0.00024,0.00032,2,18
6571,0.00014,2e-05,4e-05,0.00016,-0.00011,-0.0005,-0.00024,0.00032,2,18
6572,0.00014,2e-05,4e-05,0.00016,-0.00011,-0.0005,-0.00024,0.00032,2,18
6573,0.00014,2e-05,4e-05,0.00016,-0.00011,-0.0005,-0.00024,0.00032,2,18
6574,0.00014,2e-05,4e-05,0.00016,-0.00011,-0.0005,-0.00024,0.00032,2,18
6575,0.00014,2e-05,4e-05,0.00016,-0.00011,-0.0005,-0.00024,0.00032,2,18
6576,0.00014,2e-05,4e-05,0.00016,-0.00011,-0.0005,-0.00024,0.00032,2,18
6577,0.00014,2e-05,4e-05,0.00016,-0.00011,-0.0005,-0.00024,0.00032,2,18
6578,0.00014,2e-05,4e-05,0.00016,-0.00011,-0.0005,-0.00024,0.00032,2,18
6579,0.00014,2e-05,4e-05,0.00016,-0.00011,-0.0005,-0.00024,0.00032,2,18
6580,0.00014,2e-05,4e-05,0.00016,-0.00011,-0.0005,-0.00024,0.00032,2,18
6581,0.00014,2e-05,4e-05,0.00016,-0.00011,-0.0005,-0.00024,0.00032,2,18
6582,0.00014,2e-05,4e-05,0.00016,-0.00011,-0.0005,-0.00024,0.00032,2,18
6583,0.00014,2e-05,4e-05,0.00016,-0.00011,-0.0005,-0.00024,0.00032,2,18
6584,0.00014,2e-05,4e-05,0.00016,-0.00011,-0.0005,-0.00024,0.00032,2,18
6585,-0.00074,1e-05,-0.0001,-0.00039,0.00037,-0.00015,-2e-05,5e-05,2,18
6586,-0.00074,1e-05,-0.0001,-0.00039,0.00037,-0.00015,-2e-05,5e-05,2,18
6588,-0.00026,0,0.00011,0.00042,2e-05,-0.00012,-2e-05,-8e-05,2,18
6589,-0.00026,0,0.00011,0.00042,2e-05,-0.00012,-2e-05,-8e-05,2,18
6590,-0.00026,0,0.00011,0.00042,2e-05,-0.00012,-2e-05,-8e-05,2,18
6591,-0.00026,0,0.00011,0.00042,2e-05,-0.00012,-2e-05,-8e-05,2,18
6592,-0.00026,0,0.00011,0.00042,2e-05,-0.00012,-2e-05,-8e-05,2,18
6593,-0.00026,0,0.00011,0.00042,2e-05,-0.00012,-2e-05,-8e-05,2,18
6594,-0.00026,0,0.00011,0.00042,2e-05,-0.00012,-2e-05,-8e-05,2,18
6595,-0.00026,0,0.00011,0.00042,2e-05,-0.00012,-2e-05,-8e-05,2,18
6596,-0.00026,0,0.00011,0.00042,2e-05,-0.00012,-2e-05,-8e-05,2,18
6597,-0.00026,0,0.00011,0.00042,2e-05,-0.00012,-2e-05,-8e-05,2,18
6598,-0.00026,0,0.00011,0.00042,2e-05,-0.00012,-2e-05,-8e-05,2,18
6599,-0.00026,0,0.00011,0.00042,2e-05,-0.00012,-2e-05,-8e-05,2,18
6600,-0.00026,0,0.00011,0.00042,2e-05,-0.00012,-2e-05,-8e-05,2,18
6601,-0.00026,0,0.00011,0.00042,2e-05,-0.00012,-2e-05,-8e-05,2,18
6602,-0.00026,0,0.00011,0.00042,2e-05,-0.00012,-2e-05,-8e-05,2,18
6603,-0.00026,0,0.00011,0.00042,2e-05,-0.00012,-2e-05,-8e-05,2,18
6604,-0.00026,0,0.00011,0.00042,2e-05,-0.00012,-2e-05,-8e-05,2,18
6605,-0.00026,0,0.00011,0.00042,2e-05,-0.00012,-2e-05,-8e-05,2,18
6606,-0.00026,0,0.00011,0.00042,2e-05,-0.00012,-2e-05,-8e-05,2,18
6607,-0.00026,0,0.00011,0.00042,2e-05,-0.00012,-2e-05,-8e-05,2,18
6608,0.00025,7e-05,-9e-05,-0.00029,-0.00016,-0.00026,-2e-05,7e-05,2,18
6609,-0.00074,-0.00015,-3e-05,-0.00019,-0.00018,-0.00017,4e-05,-0.00017,2,18
6610,0.00023,1e-05,0,0.00013,-8e-05,6e-05,-0.00036,7e-05,2,18
6611,0.00023,1e-05,0,0.00013,-8e-05,6e-05,-0.00036,7e-05,2,18
6612,0.00023,1e-05,0,0.00013,-8e-05,6e-05,-0.00036,7e-05,2,18
6613,0.00023,1e-05,0,0.00013,-8e-05,6e-05,-0.00036,7e-05,2,18
6614,0.00023,1e-05,0,0.00013,-8e-05,6e-05,-0.00036,7e-05,2,18
6615,0.00023,1e-05,0,0.00013,-8e-05,6e-05,-0.00036,7e-05,2,18
6616,0.00023,1e-05,0,0.00013,-8e-05,6e-05,-0.00036,7e-05,2,18
6617,0.00023,1e-05,0,0.00013,-8e-05,6e-05,-0.00036,7e-05,2,18
6618,0.00023,1e-05,0,0.00013,-8e-05,6e-05,-0.00036,7e-05,2,18
6619,0.00023,1e-05,0,0.00013,-8e-05,6e-05,-0.00036,7e-05,2,18
6620,0.00023,1e-05,0,0.00013,-8e-05,6e-05,-0.00036,7e-05,2,18
6621,0.00023,1e-05,0,0.00013,-8e-05,6e-05,-0.00036,7e-05,2,18
6622,0.00084,2e-05,-0.00014,-0.00051,0.00011,-1e-05,-0.00012,8e-05,2,18
6623,0.00084,2e-05,-0.00014,-0.00051,0.00011,-1e-05,-0.00012,8e-05,2,18
6624,0.00084,2e-05,-0.00014,-0.00051,0.00011,-1e-05,-0.00012,8e-05,2,18
6625,0.00084,2e-05,-0.00014,-0.00051,0.00011,-1e-05,-0.00012,8e-05,2,18
6626,0.00084,2e-05,-0.00014,-0.00051,0.00011,-1e-05,-0.00012,8e-05,2,18
6627,0.00084,2e-05,-0.00014,-0.00051,0.00011,-1e-05,-0.00012,8e-05,2,18
6628,0.00084,2e-05,-0.00014,-0.00051,0.00011,-1e-05,-0.00012,8e-05,2,18
6629,-8e-05,-7e-05,8e-05,0.00025,-0.00014,0,-0.00054,-7e-05,2,18
6630,-8e-05,-7e-05,8e-05,0.00025,-0.00014,0,-0.00054,-7e-05,2,18
6631,-8e-05,-7e-05,8e-05,0.00025,-0.00014,0,-0.00054,-7e-05,2,18
6632,-8e-05,-7e-05,8e-05,0.00025,-0.00014,0,-0.00054,-7e-05,2,18
6633,-8e-05,-7e-05,8e-05,0.00025,-0.00014,0,-0.00054,-7e-05,2,18
6634,-8e-05,-7e-05,8e-05,0.00025,-0.00014,0,-0.00054,-7e-05,2,18
6635,-8e-05,-7e-05,8e-05,0.00025,-0.00014,0,-0.00054,-7e-05,2,18
6636,-8e-05,-7e-05,8e-05,0.00025,-0.00014,0,-0.00054,-7e-05,2,18
6639,-8e-05,-7e-05,8e-05,0.00025,-0.00014,0,-0.00054,-7e-05,2,18
6640,-8e-05,-7e-05,8e-05,0.00025,-0.00014,0,-0.00054,-7e-05,2,18
6641,-8e-05,-7e-05,8e-05,0.00025,-0.00014,0,-0.00054,-7e-05,2,18
6642,-8e-05,-7e-05,8e-05,0.00025,-0.00014,0,-0.00054,-7e-05,2,18
6643,-8e-05,-7e-05,8e-05,0.00025,-0.00014,0,-0.00054,-7e-05,2,18
6644,-8e-05,-7e-05,8e-05,0.00025,-0.00014,0,-0.00054,-7e-05,2,18
6645,0.0003,1e-05,1e-05,0,-0.00016,0.00018,-0.0002,1e-05,2,18
6646,-8e-05,-4e-05,-8e-05,1e-05,0.00029,-0.00026,0.00031,3e-05,2,18
6647,-0.00078,-5e-05,2e-05,9e-05,6e-05,0.00024,0.00016,-0.00012,2,18
6648,-0.00078,-5e-05,2e-05,9e-05,6e-05,0.00024,0.00016,-0.00012,2,18
6649,-0.00078,-5e-05,2e-05,9e-05,6e-05,0.00024,0.00016,-0.00012,2,18
6650,-0.00078,-5e-05,2e-05,9e-05,6e-05,0.00024,0.00016,-0.00012,2,18
6651,-0.00078,-5e-05,2e-05,9e-05,6e-05,0.00024,0.00016,-0.00012,2,18
6652,-0.00078,-5e-05,2e-05,9e-05,6e-05,0.00024,0.00016,-0.00012,2,18
6653,-0.00078,-5e-05,2e-05,9e-05,6e-05,0.00024,0.00016,-0.00012,2,18
6654,-0.00078,-5e-05,2e-05,9e-05,6e-05,0.00024,0.00016,-0.00012,2,18
6655,-0.00078,-5e-05,2e-05,9e-05,6e-05,0.00024,0.00016,-0.00012,2,18
6656,-0.00078,-5e-05,2e-05,9e-05,6e-05,0.00024,0.00016,-0.00012,2,18
6657,-0.00078,-5e-05,2e-05,9e-05,6e-05,0.00024,0.00016,-0.00012,2,18
6658,-0.00078,-5e-05,2e-05,9e-05,6e-05,0.00024,0.00016,-0.00012,2,18
6659,-0.00078,-5e-05,2e-05,9e-05,6e-05,0.00024,0.00016,-0.00012,2,18
6660,-0.00078,-5e-05,2e-05,9e-05,6e-05,0.00024,0.00016,-0.00012,2,18
6661,-0.00078,-5e-05,2e-05,9e-05,6e-05,0.00024,0.00016,-0.00012,2,18
6662,-0.00078,-5e-05,2e-05,9e-05,6e-05,0.00024,0.00016,-0.00012,2,18
6663,-0.00078,-5e-05,2e-05,9e-05,6e-05,0.00024,0.00016,-0.00012,2,18
6664,-0.00078,-5e-05,2e-05,9e-05,6e-05,0.00024,0.00016,-0.00012,2,18
6665,-0.00078,-5e-05,2e-05,9e-05,6e-05,0.00024,0.00016,-0.00012,2,18
6666,-0.00078,-5e-05,2e-05,9e-05,6e-05,0.00024,0.00016,-0.00012,2,18
6667,-0.00078,-5e-05,2e-05,9e-05,6e-05,0.00024,0.00016,-0.00012,2,18
6668,-0.00078,-5e-05,2e-05,9e-05,6e-05,0.00024,0.00016,-0.00012,2,18
6669,-0.00078,-5e-05,2e-05,9e-05,6e-05,0.00024,0.00016,-0.00012,2,18
6670,-0.00078,-5e-05,2e-05,9e-05,6e-05,0.00024,0.00016,-0.00012,2,18
6671,-0.00078,-5e-05,2e-05,9e-05,6e-05,0.00024,0.00016,-0.00012,2,18
6672,-0.00078,-5e-05,2e-05,9e-05,6e-05,0.00024,0.00016,-0.00012,2,18
6673,-0.00078,-5e-05,2e-05,9e-05,6e-05,0.00024,0.00016,-0.00012,2,18
6674,-0.00078,-5e-05,2e-05,9e-05,6e-05,0.00024,0.00016,-0.00012,2,18
6675,-0.00011,0,-0.00015,-0.00042,-0.00012,0.00028,-0.00023,-8e-05,2,18
6676,-0.00011,0,-0.00015,-0.00042,-0.00012,0.00028,-0.00023,-8e-05,2,18
6677,-0.00023,2e-05,4e-05,0.00027,-1e-05,4e-05,0.00013,0.0001,2,18
6678,-0.00023,2e-05,4e-05,0.00027,-1e-05,4e-05,0.00013,0.0001,2,18
6679,-0.00023,2e-05,4e-05,0.00027,-1e-05,4e-05,0.00013,0.0001,2,18
6680,-0.00023,2e-05,4e-05,0.00027,-1e-05,4e-05,0.00013,0.0001,2,18
6681,9e-05,9e-05,0.00014,0.00044,-8e-05,-3e-05,0.00019,0.00027,2,18
6682,9e-05,9e-05,0.00014,0.00044,-8e-05,-3e-05,0.00019,0.00027,2,18
6683,9e-05,9e-05,0.00014,0.00044,-8e-05,-3e-05,0.00019,0.00027,2,18
6684,9e-05,9e-05,0.00014,0.00044,-8e-05,-3e-05,0.00019,0.00027,2,18
6685,9e-05,9e-05,0.00014,0.00044,-8e-05,-3e-05,0.00019,0.00027,2,18
6686,9e-05,9e-05,0.00014,0.00044,-8e-05,-3e-05,0.00019,0.00027,2,18
6688,9e-05,9e-05,0.00014,0.00044,-8e-05,-3e-05,0.00019,0.00027,2,18
6689,9e-05,9e-05,0.00014,0.00044,-8e-05,-3e-05,0.00019,0.00027,2,18
6690,9e-05,9e-05,0.00014,0.00044,-8e-05,-3e-05,0.00019,0.00027,2,18
6691,9e-05,9e-05,0.00014,0.00044,-8e-05,-3e-05,0.00019,0.00027,2,18
6692,9e-05,9e-05,0.00014,0.00044,-8e-05,-3e-05,0.00019,0.00027,2,18
6693,9e-05,9e-05,0.00014,0.00044,-8e-05,-3e-05,0.00019,0.00027,2,18
6694,9e-05,9e-05,0.00014,0.00044,-8e-05,-3e-05,0.00019,0.00027,2,18
6695,9e-05,9e-05,0.00014,0.00044,-8e-05,-3e-05,0.00019,0.00027,2,18
6696,9e-05,9e-05,0.00014,0.00044,-8e-05,-3e-05,0.00019,0.00027,2,18
6697,9e-05,9e-05,0.00014,0.00044,-8e-05,-3e-05,0.00019,0.00027,2,18
6698,9e-05,9e-05,0.00014,0.00044,-8e-05,-3e-05,0.00019,0.00027,2,18
6699,9e-05,9e-05,0.00014,0.00044,-8e-05,-3e-05,0.00019,0.00027,2,18
6700,9e-05,9e-05,0.00014,0.00044,-8e-05,-3e-05,0.00019,0.00027,2,18
36782,0.00044,-7e-05,2e-05,0.0004,-2e-05,-0.00041,0,7e-05,2,18
36783,0.00044,-7e-05,2e-05,0.0004,-2e-05,-0.00041,0,7e-05,2,18
36784,0.00044,-7e-05,2e-05,0.0004,-2e-05,-0.00041,0,7e-05,2,18
36785,0.00044,-7e-05,2e-05,0.0004,-2e-05,-0.00041,0,7e-05,2,18
36786,0.00044,-7e-05,2e-05,0.0004,-2e-05,-0.00041,0,7e-05,2,18
36789,2e-05,-0.00013,-0.00012,7e-05,-0.0001,0.00011,-0.00046,9e-05,2,18
36790,2e-05,-0.00013,-0.00012,7e-05,-0.0001,0.00011,-0.00046,9e-05,2,18
36791,2e-05,-0.00013,-0.00012,7e-05,-0.0001,0.00011,-0.00046,9e-05,2,18
36792,2e-05,-0.00013,-0.00012,7e-05,-0.0001,0.00011,-0.00046,9e-05,2,18
36793,2e-05,-0.00013,-0.00012,7e-05,-0.0001,0.00011,-0.00046,9e-05,2,18
36794,2e-05,-0.00013,-0.00012,7e-05,-0.0001,0.00011,-0.00046,9e-05,2,18
36795,2e-05,-0.00013,-0.00012,7e-05,-0.0001,0.00011,-0.00046,9e-05,2,18
36796,0.00031,-2e-05,-4e-05,-0.00049,-0.0003,-0.00017,0.00014,0.00014,2,18
36797,0.00031,-2e-05,-4e-05,-0.00049,-0.0003,-0.00017,0.00014,0.00014,2,18
36798,0.00031,-2e-05,-4e-05,-0.00049,-0.0003,-0.00017,0.00014,0.00014,2,18
36799,0.00031,-2e-05,-4e-05,-0.00049,-0.0003,-0.00017,0.00014,0.00014,2,18
36800,0.00031,-2e-05,-4e-05,-0.00049,-0.0003,-0.00017,0.00014,0.00014,2,18
36801,0.00031,-2e-05,-4e-05,-0.00049,-0.0003,-0.00017,0.00014,0.00014,2,18
36802,0.00031,-2e-05,-4e-05,-0.00049,-0.0003,-0.00017,0.00014,0.00014,2,18
36803,0.0005,7e-05,-6e-05,2e-05,0.00028,-0.00023,0.00025,-0.00013,2,18
36804,-0.00093,-0.00014,-9e-05,-0.00074,8e-05,-5e-05,-0.00022,0,2,18
36805,-0.00093,-0.00014,-9e-05,-0.00074,8e-05,-5e-05,-0.00022,0,2,18
36806,-0.00093,-0.00014,-9e-05,-0.00074,8e-05,-5e-05,-0.00022,0,2,18
36807,-0.00093,-0.00014,-9e-05,-0.00074,8e-05,-5e-05,-0.00022,0,2,18
36808,-0.00093,-0.00014,-9e-05,-0.00074,8e-05,-5e-05,-0.00022,0,2,18
36809,-0.00093,-0.00014,-9e-05,-0.00074,8e-05,-5e-05,-0.00022,0,2,18
36810,0.0004,6e-05,8e-05,0.00016,-0.00018,9e-05,0.00018,-9e-05,2,18
36811,0.0004,6e-05,8e-05,0.00016,-0.00018,9e-05,0.00018,-9e-05,2,18
36812,0.0004,6e-05,8e-05,0.00016,-0.00018,9e-05,0.00018,-9e-05,2,18
36813,0.0004,6e-05,8e-05,0.00016,-0.00018,9e-05,0.00018,-9e-05,2,18
36814,0.0004,6e-05,8e-05,0.00016,-0.00018,9e-05,0.00018,-9e-05,2,18
36815,0.0004,6e-05,8e-05,0.00016,-0.00018,9e-05,0.00018,-9e-05,2,18
36816,0.0004,6e-05,8e-05,0.00016,-0.00018,9e-05,0.00018,-9e-05,2,18
36817,0.0004,6e-05,8e-05,0.00016,-0.00018,9e-05,0.00018,-9e-05,2,18
36818,0.0004,6e-05,8e-05,0.00016,-0.00018,9e-05,0.00018,-9e-05,2,18
36819,0.0004,6e-05,8e-05,0.00016,-0.00018,9e-05,0.00018,-9e-05,2,18
36820,0.0004,6e-05,8e-05,0.00016,-0.00018,9e-05,0.00018,-9e-05,2,18
36821,0.0004,6e-05,8e-05,0.00016,-0.00018,9e-05,0.00018,-9e-05,2,18
36822,0.0004,6e-05,8e-05,0.00016,-0.00018,9e-05,0.00018,-9e-05,2,18
36823,0.0004,6e-05,8e-05,0.00016,-0.00018,9e-05,0.00018,-9e-05,2,18
36824,0.0004,6e-05,8e-05,0.00016,-0.00018,9e-05,0.00018,-9e-05,2,18
36825,0.0004,6e-05,8e-05,0.00016,-0.00018,9e-05,0.00018,-9e-05,2,18
36826,0.00062,0,-5e-05,-2e-05,9e-05,-0.00016,0.00056,0.00017,2,18
36827,-0.00063,-0.00013,-0.00013,-0.00021,-8e-05,0.00014,0.00036,-8e-05,2,18
36828,-0.00037,8e-05,0.00011,0.00048,-0.00024,0,-0.00022,-0.00021,2,18
36829,-0.00037,8e-05,0.00011,0.00048,-0.00024,0,-0.00022,-0.00021,2,18
36830,-0.00037,8e-05,0.00011,0.00048,-0.00024,0,-0.00022,-0.00021,2,18
36831,-0.00037,8e-05,0.00011,0.00048,-0.00024,0,-0.00022,-0.00021,2,18
36832,-0.00037,8e-05,0.00011,0.00048,-0.00024,0,-0.00022,-0.00021,2,18
36833,-0.00037,8e-05,0.00011,0.00048,-0.00024,0,-0.00022,-0.00021,2,18
36834,-0.00037,8e-05,0.00011,0.00048,-0.00024,0,-0.00022,-0.00021,2,18
36835,-0.00037,8e-05,0.00011,0.00048,-0.00024,0,-0.00022,-0.00021,2,18
36836,-0.00037,8e-05,0.00011,0.00048,-0.00024,0,-0.00022,-0.00021,2,18
36838,-0.00037,8e-05,0.00011,0.00048,-0.00024,0,-0.00022,-0.00021,2,18
36839,-0.00037,8e-05,0.00011,0.00048,-0.00024,0,-0.00022,-0.00021,2,18
36840,-0.00037,8e-05,0.00011,0.00048,-0.00024,0,-0.00022,-0.00021,2,18
36841,-0.00037,8e-05,0.00011,0.00048,-0.00024,0,-0.00022,-0.00021,2,18
36842,-0.00037,8e-05,0.00011,0.00048,-0.00024,0,-0.00022,-0.00021,2,18
36843,-0.00037,8e-05,0.00011,0.00048,-0.00024,0,-0.00022,-0.00021,2,18
36844,-0.00037,8e-05,0.00011,0.00048,-0.00024,0,-0.00022,-0.00021,2,18
36845,-0.00037,8e-05,0.00011,0.00048,-0.00024,0,-0.00022,-0.00021,2,18
36846,-0.00037,8e-05,0.00011,0.00048,-0.00024,0,-0.00022,-0.00021,2,18
36847,-0.00037,8e-05,0.00011,0.00048,-0.00024,0,-0.00022,-0.00021,2,18
36848,-0.00037,8e-05,0.00011,0.00048,-0.00024,0,-0.00022,-0.00021,2,18
36849,0.00076,2e-05,0.00017,7e-05,-8e-05,-0.00049,-0.00119,-0.00027,2,18
36850,0.00035,-5e-05,-5e-05,-2e-05,1e-05,0.00041,0.00127,0.00021,2,18
36851,0.00035,-5e-05,-5e-05,-2e-05,1e-05,0.00041,0.00127,0.00021,2,18
36852,0.00035,-5e-05,-5e-05,-2e-05,1e-05,0.00041,0.00127,0.00021,2,18
36853,0.00035,-5e-05,-5e-05,-2e-05,1e-05,0.00041,0.00127,0.00021,2,18
36854,0.00035,-5e-05,-5e-05,-2e-05,1e-05,0.00041,0.00127,0.00021,2,18
36855,0.00035,-5e-05,-5e-05,-2e-05,1e-05,0.00041,0.00127,0.00021,2,18
36856,0.00035,-5e-05,-5e-05,-2e-05,1e-05,0.00041,0.00127,0.00021,2,18
36857,0.00035,-5e-05,-5e-05,-2e-05,1e-05,0.00041,0.00127,0.00021,2,18
36858,0.00035,-5e-05,-5e-05,-2e-05,1e-05,0.00041,0.00127,0.00021,2,18
36859,0.00035,-5e-05,-5e-05,-2e-05,1e-05,0.00041,0.00127,0.00021,2,18
36860,0.00035,-5e-05,-5e-05,-2e-05,1e-05,0.00041,0.00127,0.00021,2,18
36861,0.00035,-5e-05,-5e-05,-2e-05,1e-05,0.00041,0.00127,0.00021,2,18
36862,0.00035,-5e-05,-5e-05,-2e-05,1e-05,0.00041,0.00127,0.00021,2,18
36863,0.0003,1e-05,1e-05,5e-05,3e-05,0.00018,-0.00057,-9e-05,2,18
36864,0.0003,1e-05,1e-05,5e-05,3e-05,0.00018,-0.00057,-9e-05,2,18
36865,0.0003,1e-05,1e-05,5e-05,3e-05,0.00018,-0.00057,-9e-05,2,18
36866,0.0003,1e-05,1e-05,5e-05,3e-05,0.00018,-0.00057,-9e-05,2,18
36867,0.0003,1e-05,1e-05,5e-05,3e-05,0.00018,-0.00057,-9e-05,2,18
36868,0.0003,1e-05,1e-05,5e-05,3e-05,0.00018,-0.00057,-9e-05,2,18
36869,0.0003,1e-05,1e-05,5e-05,3e-05,0.00018,-0.00057,-9e-05,2,18
36870,5e-05,-5e-05,-3e-05,0.00054,0.00012,-0.00018,-0.00105,-9e-05,2,18
36871,5e-05,-5e-05,-3e-05,0.00054,0.00012,-0.00018,-0.00105,-9e-05,2,18
36872,5e-05,-5e-05,-3e-05,0.00054,0.00012,-0.00018,-0.00105,-9e-05,2,18
36873,5e-05,-5e-05,-3e-05,0.00054,0.00012,-0.00018,-0.00105,-9e-05,2,18
36874,5e-05,-5e-05,-3e-05,0.00054,0.00012,-0.00018,-0.00105,-9e-05,2,18
36875,5e-05,-5e-05,-3e-05,0.00054,0.00012,-0.00018,-0.00105,-9e-05,2,18
36876,5e-05,-5e-05,-3e-05,0.00054,0.00012,-0.00018,-0.00105,-9e-05,2,18
36877,5e-05,-5e-05,-3e-05,0.00054,0.00012,-0.00018,-0.00105,-9e-05,2,18
36878,5e-05,-5e-05,-3e-05,0.00054,0.00012,-0.00018,-0.00105,-9e-05,2,18
36879,5e-05,-5e-05,-3e-05,0.00054,0.00012,-0.00018,-0.00105,-9e-05,2,18
36880,5e-05,-5e-05,-3e-05,0.00054,0.00012,-0.00018,-0.00105,-9e-05,2,18
36881,5e-05,-5e-05,-3e-05,0.00054,0.00012,-0.00018,-0.00105,-9e-05,2,18
36882,5e-05,-5e-05,-3e-05,0.00054,0.00012,-0.00018,-0.00105,-9e-05,2,18
36883,5e-05,-5e-05,-3e-05,0.00054,0.00012,-0.00018,-0.00105,-9e-05,2,18
36884,5e-05,-5e-05,-3e-05,0.00054,0.00012,-0.00018,-0.00105,-9e-05,2,18
36885,5e-05,-5e-05,-3e-05,0.00054,0.00012,-0.00018,-0.00105,-9e-05,2,18
36887,3e-05,3e-05,-4e-05,-0.00024,-1e-05,-3e-05,0.00043,0.00012,2,18
36889,-0.00035,2e-05,0.00011,0.00043,0.00021,0.00011,0.00012,-0.00011,2,18
36890,-0.00035,2e-05,0.00011,0.00043,0.00021,0.00011,0.00012,-0.00011,2,18
36891,-0.00035,2e-05,0.00011,0.00043,0.00021,0.00011,0.00012,-0.00011,2,18
36892,-0.00035,2e-05,0.00011,0.00043,0.00021,0.00011,0.00012,-0.00011,2,18
36893,-0.00035,2e-05,0.00011,0.00043,0.00021,0.00011,0.00012,-0.00011,2,18
36894,-0.00035,2e-05,0.00011,0.00043,0.00021,0.00011,0.00012,-0.00011,2,18
36895,-0.00035,2e-05,0.00011,0.00043,0.00021,0.00011,0.00012,-0.00011,2,18
36896,-0.00035,2e-05,0.00011,0.00043,0.00021,0.00011,0.00012,-0.00011,2,18
36897,-0.00035,2e-05,0.00011,0.00043,0.00021,0.00011,0.00012,-0.00011,2,18
36898,-0.00035,2e-05,0.00011,0.00043,0.00021,0.00011,0.00012,-0.00011,2,18
36899,-0.00035,2e-05,0.00011,0.00043,0.00021,0.00011,0.00012,-0.00011,2,18
36900,-0.00035,2e-05,0.00011,0.00043,0.00021,0.00011,0.00012,-0.00011,2,18
36901,-0.00035,2e-05,0.00011,0.00043,0.00021,0.00011,0.00012,-0.00011,2,18
36902,-0.00035,2e-05,0.00011,0.00043,0.00021,0.00011,0.00012,-0.00011,2,18
36903,-0.00035,2e-05,0.00011,0.00043,0.00021,0.00011,0.00012,-0.00011,2,18
36904,-0.00035,2e-05,0.00011,0.00043,0.00021,0.00011,0.00012,-0.00011,2,18
36905,-0.00035,2e-05,0.00011,0.00043,0.00021,0.00011,0.00012,-0.00011,2,18
36906,-0.00035,2e-05,0.00011,0.00043,0.00021,0.00011,0.00012,-0.00011,2,18
36907,-0.00035,2e-05,0.00011,0.00043,0.00021,0.00011,0.00012,-0.00011,2,18
36908,-0.00035,2e-05,0.00011,0.00043,0.00021,0.00011,0.00012,-0.00011,2,18
36909,0.00091,4e-05,0,-0.00055,-0.00017,-0.00037,-0.00067,-2e-05,2,18
36910,0.00091,4e-05,0,-0.00055,-0.00017,-0.00037,-0.00067,-2e-05,2,18
36911,-0.00022,-1e-05,2e-05,0.00042,3e-05,0,5e-05,-8e-05,2,18
36912,-0.00022,-1e-05,2e-05,0.00042,3e-05,0,5e-05,-8e-05,2,18
36913,-0.00022,-1e-05,2e-05,0.00042,3e-05,0,5e-05,-8e-05,2,18
36914,-0.00022,-1e-05,2e-05,0.00042,3e-05,0,5e-05,-8e-05,2,18
36915,-0.00022,-1e-05,2e-05,0.00042,3e-05,0,5e-05,-8e-05,2,18
36916,-0.00022,-1e-05,2e-05,0.00042,3e-05,0,5e-05,-8e-05,2,18
36917,-0.00022,-1e-05,2e-05,0.00042,3e-05,0,5e-05,-8e-05,2,18
36918,-0.00022,-1e-05,2e-05,0.00042,3e-05,0,5e-05,-8e-05,2,18
36919,-0.00022,-1e-05,2e-05,0.00042,3e-05,0,5e-05,-8e-05,2,18
36920,-0.00022,-1e-05,2e-05,0.00042,3e-05,0,5e-05,-8e-05,2,18
36921,-0.00022,-1e-05,2e-05,0.00042,3e-05,0,5e-05,-8e-05,2,18
36922,-0.00022,-1e-05,2e-05,0.00042,3e-05,0,5e-05,-8e-05,2,18
36923,-3e-05,0,-3e-05,0.00027,0.00018,-1e-05,-2e-05,-8e-05,2,18
