7472,2e-05,-5e-05,0.0002,-0.00017,6e-05,0.00088,0.00084,0.00047,2,20
7473,2e-05,-5e-05,0.0002,-0.00017,6e-05,0.00088,0.00084,0.00047,2,20
7474,2e-05,-5e-05,0.0002,-0.00017,6e-05,0.00088,0.00084,0.00047,2,20
7475,2e-05,-5e-05,0.0002,-0.00017,6e-05,0.00088,0.00084,0.00047,2,20
7476,2e-05,-5e-05,0.0002,-0.00017,6e-05,0.00088,0.00084,0.00047,2,20
7477,2e-05,-5e-05,0.0002,-0.00017,6e-05,0.00088,0.00084,0.00047,2,20
7479,2e-05,-5e-05,0.0002,-0.00017,6e-05,0.00088,0.00084,0.00047,2,20
7480,2e-05,-5e-05,0.0002,-0.00017,6e-05,0.00088,0.00084,0.00047,2,20
7481,2e-05,-5e-05,0.0002,-0.00017,6e-05,0.00088,0.00084,0.00047,2,20
7482,2e-05,-5e-05,0.0002,-0.00017,6e-05,0.00088,0.00084,0.00047,2,20
7483,2e-05,-5e-05,0.0002,-0.00017,6e-05,0.00088,0.00084,0.00047,2,20
7484,2e-05,-5e-05,0.0002,-0.00017,6e-05,0.00088,0.00084,0.00047,2,20
7485,2e-05,-5e-05,0.0002,-0.00017,6e-05,0.00088,0.00084,0.00047,2,20
7486,2e-05,-5e-05,0.0002,-0.00017,6e-05,0.00088,0.00084,0.00047,2,20
7489,2e-05,-5e-05,0.0002,-0.00017,6e-05,0.00088,0.00084,0.00047,2,20
7490,2e-05,-5e-05,0.0002,-0.00017,6e-05,0.00088,0.00084,0.00047,2,20
7491,2e-05,-5e-05,0.0002,-0.00017,6e-05,0.00088,0.00084,0.00047,2,20
7492,2e-05,-5e-05,0.0002,-0.00017,6e-05,0.00088,0.00084,0.00047,2,20
7493,-0.00041,-0.00024,-0.00074,-0.00089,-4e-05,-0.00095,-0.00079,-0.00106,2,20
7494,-3e-05,-0.00027,-8e-05,0.00061,6e-05,0.00033,0.00012,0.00116,2,20
7495,0.00019,0.00025,0.0001,-0.00044,0.00029,0.00085,0.00066,0.00067,2,20
7496,0.00019,0.00025,0.0001,-0.00044,0.00029,0.00085,0.00066,0.00067,2,20
7497,0.00019,0.00025,0.0001,-0.00044,0.00029,0.00085,0.00066,0.00067,2,20
7498,0.00019,0.00025,0.0001,-0.00044,0.00029,0.00085,0.00066,0.00067,2,20
7499,0.00019,0.00025,0.0001,-0.00044,0.00029,0.00085,0.00066,0.00067,2,20
7500,0.00019,0.00025,0.0001,-0.00044,0.00029,0.00085,0.00066,0.00067,2,20
7501,0.00019,0.00025,0.0001,-0.00044,0.00029,0.00085,0.00066,0.00067,2,20
7502,0.00019,0.00025,0.0001,-0.00044,0.00029,0.00085,0.00066,0.00067,2,20
7503,0.00019,0.00025,0.0001,-0.00044,0.00029,0.00085,0.00066,0.00067,2,20
7504,0.00019,0.00025,0.0001,-0.00044,0.00029,0.00085,0.00066,0.00067,2,20
7505,0.00019,0.00025,0.0001,-0.00044,0.00029,0.00085,0.00066,0.00067,2,20
7506,0.00019,0.00025,0.0001,-0.00044,0.00029,0.00085,0.00066,0.00067,2,20
7507,0.00019,0.00025,0.0001,-0.00044,0.00029,0.00085,0.00066,0.00067,2,20
7508,0.00019,0.00025,0.0001,-0.00044,0.00029,0.00085,0.00066,0.00067,2,20
7509,0.00019,0.00025,0.0001,-0.00044,0.00029,0.00085,0.00066,0.00067,2,20
7510,0.00019,0.00025,0.0001,-0.00044,0.00029,0.00085,0.00066,0.00067,2,20
7511,0.00019,0.00025,0.0001,-0.00044,0.00029,0.00085,0.00066,0.00067,2,20
7512,0.00019,0.00025,0.0001,-0.00044,0.00029,0.00085,0.00066,0.00067,2,20
7513,0.00019,0.00025,0.0001,-0.00044,0.00029,0.00085,0.00066,0.00067,2,20
7514,0.00019,0.00025,0.0001,-0.00044,0.00029,0.00085,0.00066,0.00067,2,20
7515,-0.00033,-0.00018,-0.00026,-0.00045,1e-05,0.00043,0.00016,-0.00069,2,20
7516,0.00025,0.00017,0.00072,-3e-05,-0.00027,-8e-05,-0.00055,0.00032,2,20
7517,-9e-05,-0.00012,-2e-05,0.00046,-1e-05,-0.00101,-0.00032,-0.00061,2,20
7518,-9e-05,-0.00012,-2e-05,0.00046,-1e-05,-0.00101,-0.00032,-0.00061,2,20
7519,-9e-05,-0.00012,-2e-05,0.00046,-1e-05,-0.00101,-0.00032,-0.00061,2,20
7520,-9e-05,-0.00012,-2e-05,0.00046,-1e-05,-0.00101,-0.00032,-0.00061,2,20
7521,-9e-05,-0.00012,-2e-05,0.00046,-1e-05,-0.00101,-0.00032,-0.00061,2,20
7522,-9e-05,-0.00012,-2e-05,0.00046,-1e-05,-0.00101,-0.00032,-0.00061,2,20
7523,-9e-05,-0.00012,-2e-05,0.00046,-1e-05,-0.00101,-0.00032,-0.00061,2,20
7524,-9e-05,-0.00012,-2e-05,0.00046,-1e-05,-0.00101,-0.00032,-0.00061,2,20
7525,-9e-05,-0.00012,-2e-05,0.00046,-1e-05,-0.00101,-0.00032,-0.00061,2,20
7526,-9e-05,-0.00012,-2e-05,0.00046,-1e-05,-0.00101,-0.00032,-0.00061,2,20
7527,-9e-05,-0.00012,-2e-05,0.00046,-1e-05,-0.00101,-0.00032,-0.00061,2,20
7528,-9e-05,-0.00012,-2e-05,0.00046,-1e-05,-0.00101,-0.00032,-0.00061,2,20
7529,-9e-05,-0.00012,-2e-05,0.00046,-1e-05,-0.00101,-0.00032,-0.00061,2,20
7530,-9e-05,-0.00012,-2e-05,0.00046,-1e-05,-0.00101,-0.00032,-0.00061,2,20
7531,-9e-05,-0.00012,-2e-05,0.00046,-1e-05,-0.00101,-0.00032,-0.00061,2,20
7532,-9e-05,-0.00012,-2e-05,0.00046,-1e-05,-0.00101,-0.00032,-0.00061,2,20
7533,-9e-05,-0.00012,-2e-05,0.00046,-1e-05,-0.00101,-0.00032,-0.00061,2,20
7534,-9e-05,-0.00012,-2e-05,0.00046,-1e-05,-0.00101,-0.00032,-0.00061,2,20
7535,-9e-05,-0.00012,-2e-05,0.00046,-1e-05,-0.00101,-0.00032,-0.00061,2,20
7537,0.00013,0.00014,0.0005,0.00095,-6e-05,0.00016,-0.00038,-0.00038,2,20
7540,0.00013,0.00014,0.0005,0.00095,-6e-05,0.00016,-0.00038,-0.00038,2,20
7541,0.00013,0.00014,0.0005,0.00095,-6e-05,0.00016,-0.00038,-0.00038,2,20
7542,0.00013,0.00014,0.0005,0.00095,-6e-05,0.00016,-0.00038,-0.00038,2,20
7543,0.00013,0.00014,0.0005,0.00095,-6e-05,0.00016,-0.00038,-0.00038,2,20
7544,0.00013,0.00014,0.0005,0.00095,-6e-05,0.00016,-0.00038,-0.00038,2,20
7545,0.00013,0.00014,0.0005,0.00095,-6e-05,0.00016,-0.00038,-0.00038,2,20
7546,-0.00014,4e-05,0.00025,0.00022,0.0002,-0.0004,0.00107,-0.00026,2,20
7548,-0.00014,4e-05,0.00025,0.00022,0.0002,-0.0004,0.00107,-0.00026,2,20
7549,-0.00014,4e-05,0.00025,0.00022,0.0002,-0.0004,0.00107,-0.00026,2,20
7550,-0.00014,4e-05,0.00025,0.00022,0.0002,-0.0004,0.00107,-0.00026,2,20
7551,-0.00014,4e-05,0.00025,0.00022,0.0002,-0.0004,0.00107,-0.00026,2,20
7552,-0.00014,4e-05,0.00025,0.00022,0.0002,-0.0004,0.00107,-0.00026,2,20
7553,-0.00014,4e-05,0.00025,0.00022,0.0002,-0.0004,0.00107,-0.00026,2,20
7554,-0.00014,4e-05,0.00025,0.00022,0.0002,-0.0004,0.00107,-0.00026,2,20
7555,-0.00014,4e-05,0.00025,0.00022,0.0002,-0.0004,0.00107,-0.00026,2,20
7556,-0.00014,4e-05,0.00025,0.00022,0.0002,-0.0004,0.00107,-0.00026,2,20
7557,-0.00014,4e-05,0.00025,0.00022,0.0002,-0.0004,0.00107,-0.00026,2,20
7558,-0.00014,4e-05,0.00025,0.00022,0.0002,-0.0004,0.00107,-0.00026,2,20
7559,-0.00014,4e-05,0.00025,0.00022,0.0002,-0.0004,0.00107,-0.00026,2,20
7560,-0.00014,4e-05,0.00025,0.00022,0.0002,-0.0004,0.00107,-0.00026,2,20
7561,-0.00014,4e-05,0.00025,0.00022,0.0002,-0.0004,0.00107,-0.00026,2,20
7562,-0.00014,4e-05,0.00025,0.00022,0.0002,-0.0004,0.00107,-0.00026,2,20
7563,-0.00014,4e-05,0.00025,0.00022,0.0002,-0.0004,0.00107,-0.00026,2,20
7564,-0.00014,4e-05,0.00025,0.00022,0.0002,-0.0004,0.00107,-0.00026,2,20
7565,-0.00014,4e-05,0.00025,0.00022,0.0002,-0.0004,0.00107,-0.00026,2,20
7566,-0.00014,4e-05,0.00025,0.00022,0.0002,-0.0004,0.00107,-0.00026,2,20
7567,-0.00014,4e-05,0.00025,0.00022,0.0002,-0.0004,0.00107,-0.00026,2,20
7568,-0.00013,-4e-05,-0.00047,-0.00068,-0.00015,-0.00058,-6e-05,-0.00087,2,20
7569,0.00027,8e-05,0.00046,0.00099,0.00021,0.00026,0.00042,0.00127,2,20
7570,0.00032,0.00042,0.00062,0.00012,0.00021,-0.00092,0.00039,-0.00082,2,20
7571,0.00032,0.00042,0.00062,0.00012,0.00021,-0.00092,0.00039,-0.00082,2,20
7572,0.00032,0.00042,0.00062,0.00012,0.00021,-0.00092,0.00039,-0.00082,2,20
7573,0.00032,0.00042,0.00062,0.00012,0.00021,-0.00092,0.00039,-0.00082,2,20
7574,0.00032,0.00042,0.00062,0.00012,0.00021,-0.00092,0.00039,-0.00082,2,20
7575,0.00032,0.00042,0.00062,0.00012,0.00021,-0.00092,0.00039,-0.00082,2,20
7576,0.00032,0.00042,0.00062,0.00012,0.00021,-0.00092,0.00039,-0.00082,2,20
7577,0.00032,0.00042,0.00062,0.00012,0.00021,-0.00092,0.00039,-0.00082,2,20
7578,0.00032,0.00042,0.00062,0.00012,0.00021,-0.00092,0.00039,-0.00082,2,20
7579,0.00032,0.00042,0.00062,0.00012,0.00021,-0.00092,0.00039,-0.00082,2,20
7580,0.00032,0.00042,0.00062,0.00012,0.00021,-0.00092,0.00039,-0.00082,2,20
7581,0.00032,0.00042,0.00062,0.00012,0.00021,-0.00092,0.00039,-0.00082,2,20
7582,0.00032,0.00042,0.00062,0.00012,0.00021,-0.00092,0.00039,-0.00082,2,20
7583,0.00032,0.00042,0.00062,0.00012,0.00021,-0.00092,0.00039,-0.00082,2,20
7584,0.00032,0.00042,0.00062,0.00012,0.00021,-0.00092,0.00039,-0.00082,2,20
7585,0.00032,0.00042,0.00062,0.00012,0.00021,-0.00092,0.00039,-0.00082,2,20
7586,0.00032,0.00042,0.00062,0.00012,0.00021,-0.00092,0.00039,-0.00082,2,20
7588,0.00032,0.00042,0.00062,0.00012,0.00021,-0.00092,0.00039,-0.00082,2,20
7589,0.00032,0.00042,0.00062,0.00012,0.00021,-0.00092,0.00039,-0.00082,2,20
7590,-0.0003,-0.00038,-0.00084,-0.00108,-0.00049,0.00058,0.00015,0.0002,2,20
7591,-8e-05,1e-05,0.00038,0.00099,1e-05,0.00047,0.00011,-0.00045,2,20
7592,9e-05,6e-05,-0.00011,-0.00034,1e-05,-0.0008,-0.00124,-0.00013,2,20
7593,9e-05,6e-05,-0.00011,-0.00034,1e-05,-0.0008,-0.00124,-0.00013,2,20
7594,9e-05,6e-05,-0.00011,-0.00034,1e-05,-0.0008,-0.00124,-0.00013,2,20
7595,9e-05,6e-05,-0.00011,-0.00034,1e-05,-0.0008,-0.00124,-0.00013,2,20
7596,9e-05,6e-05,-0.00011,-0.00034,1e-05,-0.0008,-0.00124,-0.00013,2,20
7597,9e-05,6e-05,-0.00011,-0.00034,1e-05,-0.0008,-0.00124,-0.00013,2,20
7598,9e-05,6e-05,-0.00011,-0.00034,1e-05,-0.0008,-0.00124,-0.00013,2,20
7599,9e-05,6e-05,-0.00011,-0.00034,1e-05,-0.0008,-0.00124,-0.00013,2,20
7600,9e-05,6e-05,-0.00011,-0.00034,1e-05,-0.0008,-0.00124,-0.00013,2,20
7601,9e-05,6e-05,-0.00011,-0.00034,1e-05,-0.0008,-0.00124,-0.00013,2,20
7602,9e-05,6e-05,-0.00011,-0.00034,1e-05,-0.0008,-0.00124,-0.00013,2,20
7603,9e-05,6e-05,-0.00011,-0.00034,1e-05,-0.0008,-0.00124,-0.00013,2,20
7604,9e-05,6e-05,-0.00011,-0.00034,1e-05,-0.0008,-0.00124,-0.00013,2,20
7605,9e-05,6e-05,-0.00011,-0.00034,1e-05,-0.0008,-0.00124,-0.00013,2,20
7606,9e-05,6e-05,-0.00011,-0.00034,1e-05,-0.0008,-0.00124,-0.00013,2,20
7607,9e-05,6e-05,-0.00011,-0.00034,1e-05,-0.0008,-0.00124,-0.00013,2,20
7608,9e-05,6e-05,-0.00011,-0.00034,1e-05,-0.0008,-0.00124,-0.00013,2,20
7609,9e-05,6e-05,-0.00011,-0.00034,1e-05,-0.0008,-0.00124,-0.00013,2,20
7610,9e-05,6e-05,-0.00011,-0.00034,1e-05,-0.0008,-0.00124,-0.00013,2,20
7611,-0.00019,-0.00017,2e-05,0.00126,0.00037,0.00016,0.00049,-0.00019,2,20
7612,0.00013,0.00023,-4e-05,-0.00065,-0.00027,0.00015,-0.0008,2e-05,2,20
7613,0.00013,0.00023,-4e-05,-0.00065,-0.00027,0.00015,-0.0008,2e-05,2,20
7614,0.00013,0.00023,-4e-05,-0.00065,-0.00027,0.00015,-0.0008,2e-05,2,20
7615,0.00013,0.00023,-4e-05,-0.00065,-0.00027,0.00015,-0.0008,2e-05,2,20
7616,0.00013,0.00023,-4e-05,-0.00065,-0.00027,0.00015,-0.0008,2e-05,2,20
7617,0.00013,0.00023,-4e-05,-0.00065,-0.00027,0.00015,-0.0008,2e-05,2,20
7618,0.00013,0.00023,-4e-05,-0.00065,-0.00027,0.00015,-0.0008,2e-05,2,20
7619,0.00013,0.00023,-4e-05,-0.00065,-0.00027,0.00015,-0.0008,2e-05,2,20
7620,-0.00014,4e-05,0.00045,0.00058,0.00025,-0.00012,-9e-05,-0.00025,2,20
7621,-7e-05,-0.00018,-0.00029,0.00046,-0.00031,-0.00034,-0.00033,0.00083,2,20
7622,-7e-05,-0.00018,-0.00029,0.00046,-0.00031,-0.00034,-0.00033,0.00083,2,20
7623,-7e-05,-0.00018,-0.00029,0.00046,-0.00031,-0.00034,-0.00033,0.00083,2,20
7624,-7e-05,-0.00018,-0.00029,0.00046,-0.00031,-0.00034,-0.00033,0.00083,2,20
7625,-7e-05,-0.00018,-0.00029,0.00046,-0.00031,-0.00034,-0.00033,0.00083,2,20
7626,-7e-05,-0.00018,-0.00029,0.00046,-0.00031,-0.00034,-0.00033,0.00083,2,20
7627,-7e-05,-0.00018,-0.00029,0.00046,-0.00031,-0.00034,-0.00033,0.00083,2,20
7628,-7e-05,-0.00018,-0.00029,0.00046,-0.00031,-0.00034,-0.00033,0.00083,2,20
7629,-7e-05,-0.00018,-0.00029,0.00046,-0.00031,-0.00034,-0.00033,0.00083,2,20
7630,-7e-05,-0.00018,-0.00029,0.00046,-0.00031,-0.00034,-0.00033,0.00083,2,20
7631,-7e-05,-0.00018,-0.00029,0.00046,-0.00031,-0.00034,-0.00033,0.00083,2,20
7632,-7e-05,-0.00018,-0.00029,0.00046,-0.00031,-0.00034,-0.00033,0.00083,2,20
7633,-7e-05,-0.00018,-0.00029,0.00046,-0.00031,-0.00034,-0.00033,0.00083,2,20
7634,-7e-05,-0.00018,-0.00029,0.00046,-0.00031,-0.00034,-0.00033,0.00083,2,20
7635,-7e-05,-0.00018,-0.00029,0.00046,-0.00031,-0.00034,-0.00033,0.00083,2,20
7636,-7e-05,-0.00018,-0.00029,0.00046,-0.00031,-0.00034,-0.00033,0.00083,2,20
7638,-7e-05,-0.00018,-0.00029,0.00046,-0.00031,-0.00034,-0.00033,0.00083,2,20
7639,-7e-05,-0.00018,-0.00029,0.00046,-0.00031,-0.00034,-0.00033,0.00083,2,20
7640,-7e-05,-0.00018,-0.00029,0.00046,-0.00031,-0.00034,-0.00033,0.00083,2,20
7641,-7e-05,-0.00018,-0.00029,0.00046,-0.00031,-0.00034,-0.00033,0.00083,2,20
7642,-7e-05,-0.00018,-0.00029,0.00046,-0.00031,-0.00034,-0.00033,0.00083,2,20
7643,-0.00035,-0.00035,-0.00017,0.00049,0.00022,-0.00063,-0.00043,0.00085,2,20
7644,-0.00016,5e-05,-0.00076,-0.00028,-0.00025,2e-05,-0.0001,-0.00124,2,20
7645,6e-05,2e-05,0.00023,0.00107,-1e-05,0.00011,-0.00065,0.0008,2,20
7646,6e-05,2e-05,0.00023,0.00107,-1e-05,0.00011,-0.00065,0.0008,2,20
7647,6e-05,2e-05,0.00023,0.00107,-1e-05,0.00011,-0.00065,0.0008,2,20
7648,6e-05,2e-05,0.00023,0.00107,-1e-05,0.00011,-0.00065,0.0008,2,20
7649,6e-05,2e-05,0.00023,0.00107,-1e-05,0.00011,-0.00065,0.0008,2,20
7650,6e-05,2e-05,0.00023,0.00107,-1e-05,0.00011,-0.00065,0.0008,2,20
7651,6e-05,2e-05,0.00023,0.00107,-1e-05,0.00011,-0.00065,0.0008,2,20
7652,6e-05,2e-05,0.00023,0.00107,-1e-05,0.00011,-0.00065,0.0008,2,20
7653,6e-05,2e-05,0.00023,0.00107,-1e-05,0.00011,-0.00065,0.0008,2,20
7654,6e-05,2e-05,0.00023,0.00107,-1e-05,0.00011,-0.00065,0.0008,2,20
7655,6e-05,2e-05,0.00023,0.00107,-1e-05,0.00011,-0.00065,0.0008,2,20
7656,6e-05,2e-05,0.00023,0.00107,-1e-05,0.00011,-0.00065,0.0008,2,20
7657,6e-05,2e-05,0.00023,0.00107,-1e-05,0.00011,-0.00065,0.0008,2,20
7658,6e-05,2e-05,0.00023,0.00107,-1e-05,0.00011,-0.00065,0.0008,2,20
7659,6e-05,2e-05,0.00023,0.00107,-1e-05,0.00011,-0.00065,0.0008,2,20
7660,6e-05,2e-05,0.00023,0.00107,-1e-05,0.00011,-0.00065,0.0008,2,20
7661,6e-05,2e-05,0.00023,0.00107,-1e-05,0.00011,-0.00065,0.0008,2,20
7662,6e-05,2e-05,0.00023,0.00107,-1e-05,0.00011,-0.00065,0.0008,2,20
7663,6e-05,2e-05,0.00023,0.00107,-1e-05,0.00011,-0.00065,0.0008,2,20
7664,6e-05,2e-05,0.00023,0.00107,-1e-05,0.00011,-0.00065,0.0008,2,20
7665,6e-05,2e-05,0.00023,0.00107,-1e-05,0.00011,-0.00065,0.0008,2,20
7666,0.00023,-8e-05,-7e-05,0.00045,0.00036,1e-05,0.00025,0.00067,2,20
7667,0.00023,-8e-05,-7e-05,0.00045,0.00036,1e-05,0.00025,0.00067,2,20
7668,0.00023,-8e-05,-7e-05,0.00045,0.00036,1e-05,0.00025,0.00067,2,20
7669,-9e-05,-0.0001,-0.00028,0.00053,0.00019,0.00057,-0.00076,-6e-05,2,20
7670,-9e-05,-0.0001,-0.00028,0.00053,0.00019,0.00057,-0.00076,-6e-05,2,20
7671,-9e-05,-0.0001,-0.00028,0.00053,0.00019,0.00057,-0.00076,-6e-05,2,20
7672,-9e-05,-0.0001,-0.00028,0.00053,0.00019,0.00057,-0.00076,-6e-05,2,20
7673,-9e-05,-0.0001,-0.00028,0.00053,0.00019,0.00057,-0.00076,-6e-05,2,20
7674,-9e-05,-0.0001,-0.00028,0.00053,0.00019,0.00057,-0.00076,-6e-05,2,20
7675,-9e-05,-0.0001,-0.00028,0.00053,0.00019,0.00057,-0.00076,-6e-05,2,20
7676,-9e-05,-0.0001,-0.00028,0.00053,0.00019,0.00057,-0.00076,-6e-05,2,20
7677,-9e-05,-0.0001,-0.00028,0.00053,0.00019,0.00057,-0.00076,-6e-05,2,20
7678,-9e-05,-0.0001,-0.00028,0.00053,0.00019,0.00057,-0.00076,-6e-05,2,20
7679,-9e-05,-0.0001,-0.00028,0.00053,0.00019,0.00057,-0.00076,-6e-05,2,20
7680,-9e-05,-0.0001,-0.00028,0.00053,0.00019,0.00057,-0.00076,-6e-05,2,20
7681,-9e-05,-0.0001,-0.00028,0.00053,0.00019,0.00057,-0.00076,-6e-05,2,20
7682,-9e-05,-0.0001,-0.00028,0.00053,0.00019,0.00057,-0.00076,-6e-05,2,20
7683,-9e-05,-0.0001,-0.00028,0.00053,0.00019,0.00057,-0.00076,-6e-05,2,20
7684,-9e-05,-0.0001,-0.00028,0.00053,0.00019,0.00057,-0.00076,-6e-05,2,20
7685,-9e-05,-0.0001,-0.00028,0.00053,0.00019,0.00057,-0.00076,-6e-05,2,20
7686,-9e-05,-0.0001,-0.00028,0.00053,0.00019,0.00057,-0.00076,-6e-05,2,20
7689,0.00033,0.00021,0.0006,0.0008,-0.00025,-0.00062,-0.00011,0.00102,2,20
7690,0.00033,0.00021,0.0006,0.0008,-0.00025,-0.00062,-0.00011,0.00102,2,20
7691,0.00033,0.00021,0.0006,0.0008,-0.00025,-0.00062,-0.00011,0.00102,2,20
7692,0.00033,0.00021,0.0006,0.0008,-0.00025,-0.00062,-0.00011,0.00102,2,20
7693,0.00033,0.00021,0.0006,0.0008,-0.00025,-0.00062,-0.00011,0.00102,2,20
7694,5e-05,-5e-05,-0.00023,0.00034,0.0001,0.00112,0.00038,-0.00013,2,20
7695,5e-05,-5e-05,-0.00023,0.00034,0.0001,0.00112,0.00038,-0.00013,2,20
7696,5e-05,-5e-05,-0.00023,0.00034,0.0001,0.00112,0.00038,-0.00013,2,20
7697,5e-05,-5e-05,-0.00023,0.00034,0.0001,0.00112,0.00038,-0.00013,2,20
7698,5e-05,-5e-05,-0.00023,0.00034,0.0001,0.00112,0.00038,-0.00013,2,20
7699,5e-05,-5e-05,-0.00023,0.00034,0.0001,0.00112,0.00038,-0.00013,2,20
7700,5e-05,-5e-05,-0.00023,0.00034,0.0001,0.00112,0.00038,-0.00013,2,20
7701,5e-05,-5e-05,-0.00023,0.00034,0.0001,0.00112,0.00038,-0.00013,2,20
7702,5e-05,-5e-05,-0.00023,0.00034,0.0001,0.00112,0.00038,-0.00013,2,20
7703,5e-05,-5e-05,-0.00023,0.00034,0.0001,0.00112,0.00038,-0.00013,2,20
7704,5e-05,-5e-05,-0.00023,0.00034,0.0001,0.00112,0.00038,-0.00013,2,20
7705,5e-05,-5e-05,-0.00023,0.00034,0.0001,0.00112,0.00038,-0.00013,2,20
7706,5e-05,-5e-05,-0.00023,0.00034,0.0001,0.00112,0.00038,-0.00013,2,20
7707,5e-05,-5e-05,-0.00023,0.00034,0.0001,0.00112,0.00038,-0.00013,2,20
7708,5e-05,-5e-05,-0.00023,0.00034,0.0001,0.00112,0.00038,-0.00013,2,20
7709,5e-05,-5e-05,-0.00023,0.00034,0.0001,0.00112,0.00038,-0.00013,2,20
7710,5e-05,-5e-05,-0.00023,0.00034,0.0001,0.00112,0.00038,-0.00013,2,20
7711,5e-05,-5e-05,-0.00023,0.00034,0.0001,0.00112,0.00038,-0.00013,2,20
7712,5e-05,-5e-05,-0.00023,0.00034,0.0001,0.00112,0.00038,-0.00013,2,20
7713,5e-05,-5e-05,-0.00023,0.00034,0.0001,0.00112,0.00038,-0.00013,2,20
7714,5e-05,-5e-05,-0.00023,0.00034,0.0001,0.00112,0.00038,-0.00013,2,20
7715,5e-05,-5e-05,-0.00023,0.00034,0.0001,0.00112,0.00038,-0.00013,2,20
7716,5e-05,-5e-05,-0.00023,0.00034,0.0001,0.00112,0.00038,-0.00013,2,20
7717,5e-05,-5e-05,-0.00023,0.00034,0.0001,0.00112,0.00038,-0.00013,2,20
7718,-0.00062,-0.00025,-0.00029,-0.00097,1e-05,0.00041,-0.00072,-0.00116,2,20
7719,0.0001,-5e-05,0,-0.00045,-0.00025,0,0.00055,0.00103,2,20
7720,0.00015,0.00014,0.00016,0.00054,0.00017,-0.0001,-9e-05,-0.00055,2,20
7721,0.00015,0.00014,0.00016,0.00054,0.00017,-0.0001,-9e-05,-0.00055,2,20
7722,0.00015,0.00014,0.00016,0.00054,0.00017,-0.0001,-9e-05,-0.00055,2,20
7723,0.00015,0.00014,0.00016,0.00054,0.00017,-0.0001,-9e-05,-0.00055,2,20
7724,0.00015,0.00014,0.00016,0.00054,0.00017,-0.0001,-9e-05,-0.00055,2,20
7725,0.00015,0.00014,0.00016,0.00054,0.00017,-0.0001,-9e-05,-0.00055,2,20
7726,0.00015,0.00014,0.00016,0.00054,0.00017,-0.0001,-9e-05,-0.00055,2,20
7727,0.00015,0.00014,0.00016,0.00054,0.00017,-0.0001,-9e-05,-0.00055,2,20
7728,0.00015,0.00014,0.00016,0.00054,0.00017,-0.0001,-9e-05,-0.00055,2,20
7729,0.00015,0.00014,0.00016,0.00054,0.00017,-0.0001,-9e-05,-0.00055,2,20
7730,0.00015,0.00014,0.00016,0.00054,0.00017,-0.0001,-9e-05,-0.00055,2,20
7731,0.00015,0.00014,0.00016,0.00054,0.00017,-0.0001,-9e-05,-0.00055,2,20
7732,0.00015,0.00014,0.00016,0.00054,0.00017,-0.0001,-9e-05,-0.00055,2,20
7733,0.00015,0.00014,0.00016,0.00054,0.00017,-0.0001,-9e-05,-0.00055,2,20
7734,0.00015,0.00014,0.00016,0.00054,0.00017,-0.0001,-9e-05,-0.00055,2,20
7735,0.00015,0.00014,0.00016,0.00054,0.00017,-0.0001,-9e-05,-0.00055,2,20
7736,0.00015,0.00014,0.00016,0.00054,0.00017,-0.0001,-9e-05,-0.00055,2,20
7739,0.00015,0.00014,0.00016,0.00054,0.00017,-0.0001,-9e-05,-0.00055,2,20
7740,-0.00028,-0.00028,-0.00039,-0.00107,2e-05,0.00046,-0.00019,0.00114,2,20
7741,0.00056,0.00022,6e-05,-0.00061,0.00018,-0.00013,0.00127,-0.00053,2,20
7742,-0.00031,-0.00011,-0.00035,-0.00105,-0.00015,0.00046,-0.00014,-0.00078,2,20
7743,-0.00031,-0.00011,-0.00035,-0.00105,-0.00015,0.00046,-0.00014,-0.00078,2,20
7744,-0.00031,-0.00011,-0.00035,-0.00105,-0.00015,0.00046,-0.00014,-0.00078,2,20
7745,-0.00031,-0.00011,-0.00035,-0.00105,-0.00015,0.00046,-0.00014,-0.00078,2,20
7746,-0.00031,-0.00011,-0.00035,-0.00105,-0.00015,0.00046,-0.00014,-0.00078,2,20
7747,-0.00031,-0.00011,-0.00035,-0.00105,-0.00015,0.00046,-0.00014,-0.00078,2,20
7748,-0.00031,-0.00011,-0.00035,-0.00105,-0.00015,0.00046,-0.00014,-0.00078,2,20
7749,-0.00031,-0.00011,-0.00035,-0.00105,-0.00015,0.00046,-0.00014,-0.00078,2,20
7750,-0.00031,-0.00011,-0.00035,-0.00105,-0.00015,0.00046,-0.00014,-0.00078,2,20
7751,-0.00031,-0.00011,-0.00035,-0.00105,-0.00015,0.00046,-0.00014,-0.00078,2,20
7752,-0.00031,-0.00011,-0.00035,-0.00105,-0.00015,0.00046,-0.00014,-0.00078,2,20
7753,-0.00031,-0.00011,-0.00035,-0.00105,-0.00015,0.00046,-0.00014,-0.00078,2,20
7754,-0.00031,-0.00011,-0.00035,-0.00105,-0.00015,0.00046,-0.00014,-0.00078,2,20
7755,-0.00031,-0.00011,-0.00035,-0.00105,-0.00015,0.00046,-0.00014,-0.00078,2,20
7756,-0.00031,-0.00011,-0.00035,-0.00105,-0.00015,0.00046,-0.00014,-0.00078,2,20
7757,-0.00031,-0.00011,-0.00035,-0.00105,-0.00015,0.00046,-0.00014,-0.00078,2,20
7758,-0.00031,-0.00011,-0.00035,-0.00105,-0.00015,0.00046,-0.00014,-0.00078,2,20
7759,-0.00031,-0.00011,-0.00035,-0.00105,-0.00015,0.00046,-0.00014,-0.00078,2,20
7760,-0.00031,-0.00011,-0.00035,-0.00105,-0.00015,0.00046,-0.00014,-0.00078,2,20
7761,-0.00031,-0.00011,-0.00035,-0.00105,-0.00015,0.00046,-0.00014,-0.00078,2,20
7762,-0.00031,-0.00011,-0.00035,-0.00105,-0.00015,0.00046,-0.00014,-0.00078,2,20
7763,-0.00031,-0.00011,-0.00035,-0.00105,-0.00015,0.00046,-0.00014,-0.00078,2,20
7764,-0.00031,-0.00011,-0.00035,-0.00105,-0.00015,0.00046,-0.00014,-0.00078,2,20
7765,-0.00022,-0.00032,-0.0011,0.00016,0.00038,0.00046,-5e-05,-0.00034,2,20
7766,-0.00015,-2e-05,0.0004,0.00119,-6e-05,0.00048,-0.00083,-0.00026,2,20
7767,-0.00015,-2e-05,0.0004,0.00119,-6e-05,0.00048,-0.00083,-0.00026,2,20
7768,-0.00015,-2e-05,0.0004,0.00119,-6e-05,0.00048,-0.00083,-0.00026,2,20
7769,-0.00015,-2e-05,0.0004,0.00119,-6e-05,0.00048,-0.00083,-0.00026,2,20
7770,-0.00015,-2e-05,0.0004,0.00119,-6e-05,0.00048,-0.00083,-0.00026,2,20
7771,-0.00015,-2e-05,0.0004,0.00119,-6e-05,0.00048,-0.00083,-0.00026,2,20
7772,-0.00015,-2e-05,0.0004,0.00119,-6e-05,0.00048,-0.00083,-0.00026,2,20
7773,-0.00015,-2e-05,0.0004,0.00119,-6e-05,0.00048,-0.00083,-0.00026,2,20
7774,-0.00015,-2e-05,0.0004,0.00119,-6e-05,0.00048,-0.00083,-0.00026,2,20
7775,-0.00015,-2e-05,0.0004,0.00119,-6e-05,0.00048,-0.00083,-0.00026,2,20
7776,-0.00015,-2e-05,0.0004,0.00119,-6e-05,0.00048,-0.00083,-0.00026,2,20
7777,-0.00015,-2e-05,0.0004,0.00119,-6e-05,0.00048,-0.00083,-0.00026,2,20
7778,-0.00015,-2e-05,0.0004,0.00119,-6e-05,0.00048,-0.00083,-0.00026,2,20
7779,-0.00015,-2e-05,0.0004,0.00119,-6e-05,0.00048,-0.00083,-0.00026,2,20
7780,-0.00015,-2e-05,0.0004,0.00119,-6e-05,0.00048,-0.00083,-0.00026,2,20
7781,-0.00015,-2e-05,0.0004,0.00119,-6e-05,0.00048,-0.00083,-0.00026,2,20
7782,-0.00015,-2e-05,0.0004,0.00119,-6e-05,0.00048,-0.00083,-0.00026,2,20
7783,-0.00015,-2e-05,0.0004,0.00119,-6e-05,0.00048,-0.00083,-0.00026,2,20
7784,-0.00015,-2e-05,0.0004,0.00119,-6e-05,0.00048,-0.00083,-0.00026,2,20
7785,-0.00015,-2e-05,0.0004,0.00119,-6e-05,0.00048,-0.00083,-0.00026,2,20
7786,-0.00015,-2e-05,0.0004,0.00119,-6e-05,0.00048,-0.00083,-0.00026,2,20
7788,-0.00015,-2e-05,0.0004,0.00119,-6e-05,0.00048,-0.00083,-0.00026,2,20
7789,-0.00015,-2e-05,0.0004,0.00119,-6e-05,0.00048,-0.00083,-0.00026,2,20
7790,-0.00015,-2e-05,0.0004,0.00119,-6e-05,0.00048,-0.00083,-0.00026,2,20
7791,-0.00015,-2e-05,0.0004,0.00119,-6e-05,0.00048,-0.00083,-0.00026,2,20
7792,-0.00015,-2e-05,0.0004,0.00119,-6e-05,0.00048,-0.00083,-0.00026,2,20
7793,-4e-05,-1e-05,-0.00022,0.00029,0.00011,0.00051,0.00041,-0.00087,2,20
7794,-2e-05,-0.00028,-0.00027,-0.00044,-9e-05,-0.00053,-0.0001,0.00013,2,20
7795,0.00037,0.00031,0.00028,-6e-05,0.00023,0.00071,0.00061,0.00036,2,20
7796,0.00037,0.00031,0.00028,-6e-05,0.00023,0.00071,0.00061,0.00036,2,20
7797,0.00037,0.00031,0.00028,-6e-05,0.00023,0.00071,0.00061,0.00036,2,20
7798,0.00037,0.00031,0.00028,-6e-05,0.00023,0.00071,0.00061,0.00036,2,20
7799,0.00037,0.00031,0.00028,-6e-05,0.00023,0.00071,0.00061,0.00036,2,20
7800,0.00037,0.00031,0.00028,-6e-05,0.00023,0.00071,0.00061,0.00036,2,20
7801,0.00037,0.00031,0.00028,-6e-05,0.00023,0.00071,0.00061,0.00036,2,20
7802,0.00037,0.00031,0.00028,-6e-05,0.00023,0.00071,0.00061,0.00036,2,20
7803,0.00037,0.00031,0.00028,-6e-05,0.00023,0.00071,0.00061,0.00036,2,20
7804,0.00037,0.00031,0.00028,-6e-05,0.00023,0.00071,0.00061,0.00036,2,20
7805,0.00037,0.00031,0.00028,-6e-05,0.00023,0.00071,0.00061,0.00036,2,20
7806,0.00037,0.00031,0.00028,-6e-05,0.00023,0.00071,0.00061,0.00036,2,20
7808,0.00037,0.00031,0.00028,-6e-05,0.00023,0.00071,0.00061,0.00036,2,20
7809,0.00037,0.00031,0.00028,-6e-05,0.00023,0.00071,0.00061,0.00036,2,20
7810,0.00037,0.00031,0.00028,-6e-05,0.00023,0.00071,0.00061,0.00036,2,20
7811,0.00037,0.00031,0.00028,-6e-05,0.00023,0.00071,0.00061,0.00036,2,20
7812,0.00037,0.00031,0.00028,-6e-05,0.00023,0.00071,0.00061,0.00036,2,20
7813,0.00037,0.00031,0.00028,-6e-05,0.00023,0.00071,0.00061,0.00036,2,20
7814,0.00037,0.00031,0.00028,-6e-05,0.00023,0.00071,0.00061,0.00036,2,20
7815,0.00037,0.00031,0.00028,-6e-05,0.00023,0.00071,0.00061,0.00036,2,20
7816,1e-05,0.00028,0.00049,-4e-05,-0.00021,-0.0001,-0.0006,-0.00012,2,20
7817,0.00039,-1e-05,-0.0001,-0.00065,-0.00021,-0.00063,0.0001,0.00081,2,20
7818,0.00039,-1e-05,-0.0001,-0.00065,-0.00021,-0.00063,0.0001,0.00081,2,20
7819,0.00039,-1e-05,-0.0001,-0.00065,-0.00021,-0.00063,0.0001,0.00081,2,20
7820,0.00039,-1e-05,-0.0001,-0.00065,-0.00021,-0.00063,0.0001,0.00081,2,20
7821,0.00039,-1e-05,-0.0001,-0.00065,-0.00021,-0.00063,0.0001,0.00081,2,20
7822,0.00039,-1e-05,-0.0001,-0.00065,-0.00021,-0.00063,0.0001,0.00081,2,20
7823,0.00039,-1e-05,-0.0001,-0.00065,-0.00021,-0.00063,0.0001,0.00081,2,20
7824,0.00039,-1e-05,-0.0001,-0.00065,-0.00021,-0.00063,0.0001,0.00081,2,20
7825,0.00039,-1e-05,-0.0001,-0.00065,-0.00021,-0.00063,0.0001,0.00081,2,20
7826,0.00039,-1e-05,-0.0001,-0.00065,-0.00021,-0.00063,0.0001,0.00081,2,20
7827,0.00039,-1e-05,-0.0001,-0.00065,-0.00021,-0.00063,0.0001,0.00081,2,20
7828,0.00039,-1e-05,-0.0001,-0.00065,-0.00021,-0.00063,0.0001,0.00081,2,20
7829,0.00039,-1e-05,-0.0001,-0.00065,-0.00021,-0.00063,0.0001,0.00081,2,20
7830,0.00039,-1e-05,-0.0001,-0.00065,-0.00021,-0.00063,0.0001,0.00081,2,20
7831,0.00039,-1e-05,-0.0001,-0.00065,-0.00021,-0.00063,0.0001,0.00081,2,20
7832,0.00039,-1e-05,-0.0001,-0.00065,-0.00021,-0.00063,0.0001,0.00081,2,20
7833,0.00039,-1e-05,-0.0001,-0.00065,-0.00021,-0.00063,0.0001,0.00081,2,20
7834,0.00039,-1e-05,-0.0001,-0.00065,-0.00021,-0.00063,0.0001,0.00081,2,20
7835,0.00039,-1e-05,-0.0001,-0.00065,-0.00021,-0.00063,0.0001,0.00081,2,20
7836,0.00039,-1e-05,-0.0001,-0.00065,-0.00021,-0.00063,0.0001,0.00081,2,20
7839,0.00032,1e-05,-0.00021,-0.00044,-7e-05,-0.00022,0.0002,-0.00026,2,20
7840,-0.00017,-5e-05,8e-05,-0.00032,-0.00025,-0.00017,-0.00071,-0.00022,2,20
7841,-0.00017,-5e-05,8e-05,-0.00032,-0.00025,-0.00017,-0.00071,-0.00022,2,20
7842,-0.00017,-5e-05,8e-05,-0.00032,-0.00025,-0.00017,-0.00071,-0.00022,2,20
7843,-0.00017,-5e-05,8e-05,-0.00032,-0.00025,-0.00017,-0.00071,-0.00022,2,20
7844,-0.00017,-5e-05,8e-05,-0.00032,-0.00025,-0.00017,-0.00071,-0.00022,2,20
7845,-0.00017,-5e-05,8e-05,-0.00032,-0.00025,-0.00017,-0.00071,-0.00022,2,20
7846,-0.00017,-5e-05,8e-05,-0.00032,-0.00025,-0.00017,-0.00071,-0.00022,2,20
7847,-0.00017,-5e-05,8e-05,-0.00032,-0.00025,-0.00017,-0.00071,-0.00022,2,20
7848,-0.00017,-5e-05,8e-05,-0.00032,-0.00025,-0.00017,-0.00071,-0.00022,2,20
7849,-0.00017,-5e-05,8e-05,-0.00032,-0.00025,-0.00017,-0.00071,-0.00022,2,20
7850,-0.00017,-5e-05,8e-05,-0.00032,-0.00025,-0.00017,-0.00071,-0.00022,2,20
7851,-0.00017,-5e-05,8e-05,-0.00032,-0.00025,-0.00017,-0.00071,-0.00022,2,20
7852,-0.00017,-5e-05,8e-05,-0.00032,-0.00025,-0.00017,-0.00071,-0.00022,2,20
7853,-0.00017,-5e-05,8e-05,-0.00032,-0.00025,-0.00017,-0.00071,-0.00022,2,20
7854,-0.00017,-5e-05,8e-05,-0.00032,-0.00025,-0.00017,-0.00071,-0.00022,2,20
7855,-0.00017,-5e-05,8e-05,-0.00032,-0.00025,-0.00017,-0.00071,-0.00022,2,20
7856,-0.00017,-5e-05,8e-05,-0.00032,-0.00025,-0.00017,-0.00071,-0.00022,2,20
7857,-0.00017,-5e-05,8e-05,-0.00032,-0.00025,-0.00017,-0.00071,-0.00022,2,20
7858,-0.00017,-5e-05,8e-05,-0.00032,-0.00025,-0.00017,-0.00071,-0.00022,2,20
7859,-0.00017,-5e-05,8e-05,-0.00032,-0.00025,-0.00017,-0.00071,-0.00022,2,20
7860,0.0004,0.00023,0.00014,-0.00063,0,0.00039,-0.0002,0.00075,2,20
7861,0.0004,0.00023,0.00014,-0.00063,0,0.00039,-0.0002,0.00075,2,20
7862,0.0004,0.00023,0.00014,-0.00063,0,0.00039,-0.0002,0.00075,2,20
7863,0.0004,0.00023,0.00014,-0.00063,0,0.00039,-0.0002,0.00075,2,20
7864,0.0004,0.00023,0.00014,-0.00063,0,0.00039,-0.0002,0.00075,2,20
7865,0.0004,0.00023,0.00014,-0.00063,0,0.00039,-0.0002,0.00075,2,20
7866,0.0004,0.00023,0.00014,-0.00063,0,0.00039,-0.0002,0.00075,2,20
7867,-0.00071,-0.00012,0.00013,0.00111,-0.00011,-0.00023,-0.00011,-0.00096,2,20
7868,-3e-05,-0.00011,-0.00016,-5e-05,-0.00013,0.00032,-8e-05,0.00102,2,20
7870,-3e-05,-0.00011,-0.00016,-5e-05,-0.00013,0.00032,-8e-05,0.00102,2,20
7871,-3e-05,-0.00011,-0.00016,-5e-05,-0.00013,0.00032,-8e-05,0.00102,2,20
7872,-3e-05,-0.00011,-0.00016,-5e-05,-0.00013,0.00032,-8e-05,0.00102,2,20
7873,-3e-05,-0.00011,-0.00016,-5e-05,-0.00013,0.00032,-8e-05,0.00102,2,20
7874,-3e-05,-0.00011,-0.00016,-5e-05,-0.00013,0.00032,-8e-05,0.00102,2,20
7875,-3e-05,-0.00011,-0.00016,-5e-05,-0.00013,0.00032,-8e-05,0.00102,2,20
7876,-3e-05,-0.00011,-0.00016,-5e-05,-0.00013,0.00032,-8e-05,0.00102,2,20
7877,-3e-05,-0.00011,-0.00016,-5e-05,-0.00013,0.00032,-8e-05,0.00102,2,20
7878,-3e-05,-0.00011,-0.00016,-5e-05,-0.00013,0.00032,-8e-05,0.00102,2,20
7879,-3e-05,-0.00011,-0.00016,-5e-05,-0.00013,0.00032,-8e-05,0.00102,2,20
7880,-3e-05,-0.00011,-0.00016,-5e-05,-0.00013,0.00032,-8e-05,0.00102,2,20
7881,-3e-05,-0.00011,-0.00016,-5e-05,-0.00013,0.00032,-8e-05,0.00102,2,20
7883,-3e-05,-0.00011,-0.00016,-5e-05,-0.00013,0.00032,-8e-05,0.00102,2,20
7884,-3e-05,-0.00011,-0.00016,-5e-05,-0.00013,0.00032,-8e-05,0.00102,2,20
7885,-3e-05,-0.00011,-0.00016,-5e-05,-0.00013,0.00032,-8e-05,0.00102,2,20
7886,-3e-05,-0.00011,-0.00016,-5e-05,-0.00013,0.00032,-8e-05,0.00102,2,20
7888,-3e-05,-0.00011,-0.00016,-5e-05,-0.00013,0.00032,-8e-05,0.00102,2,20
7889,-3e-05,-0.00011,-0.00016,-5e-05,-0.00013,0.00032,-8e-05,0.00102,2,20
7890,0.00015,-8e-05,-6e-05,0.00015,-3e-05,-0.00024,-0.0009,0.00044,2,20
7891,-5e-05,0.00014,0.00031,0.0009,1e-05,-0.00047,-0.00042,-0.00095,2,20
7892,0.0002,0.00012,0.00028,0.00017,0.00047,-0.00039,0.0006,-0.00102,2,20
7893,0.0002,0.00012,0.00028,0.00017,0.00047,-0.00039,0.0006,-0.00102,2,20
7894,0.0002,0.00012,0.00028,0.00017,0.00047,-0.00039,0.0006,-0.00102,2,20
7895,0.0002,0.00012,0.00028,0.00017,0.00047,-0.00039,0.0006,-0.00102,2,20
7896,0.0002,0.00012,0.00028,0.00017,0.00047,-0.00039,0.0006,-0.00102,2,20
7897,0.0002,0.00012,0.00028,0.00017,0.00047,-0.00039,0.0006,-0.00102,2,20
7898,0.0002,0.00012,0.00028,0.00017,0.00047,-0.00039,0.0006,-0.00102,2,20
7900,0.0002,0.00012,0.00028,0.00017,0.00047,-0.00039,0.0006,-0.00102,2,20
7901,0.0002,0.00012,0.00028,0.00017,0.00047,-0.00039,0.0006,-0.00102,2,20
7902,0.0002,0.00012,0.00028,0.00017,0.00047,-0.00039,0.0006,-0.00102,2,20
7903,0.0002,0.00012,0.00028,0.00017,0.00047,-0.00039,0.0006,-0.00102,2,20
7904,0.0002,0.00012,0.00028,0.00017,0.00047,-0.00039,0.0006,-0.00102,2,20
7905,0.0002,0.00012,0.00028,0.00017,0.00047,-0.00039,0.0006,-0.00102,2,20
7906,0.0002,0.00012,0.00028,0.00017,0.00047,-0.00039,0.0006,-0.00102,2,20
7907,0.0002,0.00012,0.00028,0.00017,0.00047,-0.00039,0.0006,-0.00102,2,20
7908,0.0002,0.00012,0.00028,0.00017,0.00047,-0.00039,0.0006,-0.00102,2,20
7909,0.0002,0.00012,0.00028,0.00017,0.00047,-0.00039,0.0006,-0.00102,2,20
7910,0.0002,0.00012,0.00028,0.00017,0.00047,-0.00039,0.0006,-0.00102,2,20
7911,0.0002,0.00012,0.00028,0.00017,0.00047,-0.00039,0.0006,-0.00102,2,20
7912,0.0002,0.00012,0.00028,0.00017,0.00047,-0.00039,0.0006,-0.00102,2,20
7913,0.00014,0.00018,0.00086,0.00127,-0.0003,0.0003,-4e-05,0.00101,2,20
7915,-0.00015,-0.00022,-0.00049,-0.00105,-3e-05,-0.00064,-0.00039,-0.00079,2,20
7916,-0.00017,-0.00032,-0.00034,0.00079,-0.00015,-0.00048,-0.0003,1e-05,2,20
7917,-0.00017,-0.00032,-0.00034,0.00079,-0.00015,-0.00048,-0.0003,1e-05,2,20
7918,-0.00017,-0.00032,-0.00034,0.00079,-0.00015,-0.00048,-0.0003,1e-05,2,20
7919,-0.00017,-0.00032,-0.00034,0.00079,-0.00015,-0.00048,-0.0003,1e-05,2,20
7920,-0.00017,-0.00032,-0.00034,0.00079,-0.00015,-0.00048,-0.0003,1e-05,2,20
7921,-0.00017,-0.00032,-0.00034,0.00079,-0.00015,-0.00048,-0.0003,1e-05,2,20
7922,-0.00017,-0.00032,-0.00034,0.00079,-0.00015,-0.00048,-0.0003,1e-05,2,20
7923,-0.00017,-0.00032,-0.00034,0.00079,-0.00015,-0.00048,-0.0003,1e-05,2,20
7924,-0.00017,-0.00032,-0.00034,0.00079,-0.00015,-0.00048,-0.0003,1e-05,2,20
7925,-0.00017,-0.00032,-0.00034,0.00079,-0.00015,-0.00048,-0.0003,1e-05,2,20
7926,-0.00017,-0.00032,-0.00034,0.00079,-0.00015,-0.00048,-0.0003,1e-05,2,20
7927,-0.00017,-0.00032,-0.00034,0.00079,-0.00015,-0.00048,-0.0003,1e-05,2,20
7928,-0.00017,-0.00032,-0.00034,0.00079,-0.00015,-0.00048,-0.0003,1e-05,2,20
7929,-0.00017,-0.00032,-0.00034,0.00079,-0.00015,-0.00048,-0.0003,1e-05,2,20
7930,-0.00017,-0.00032,-0.00034,0.00079,-0.00015,-0.00048,-0.0003,1e-05,2,20
7931,-0.00017,-0.00032,-0.00034,0.00079,-0.00015,-0.00048,-0.0003,1e-05,2,20
7932,-0.00017,-0.00032,-0.00034,0.00079,-0.00015,-0.00048,-0.0003,1e-05,2,20
7933,-0.00017,-0.00032,-0.00034,0.00079,-0.00015,-0.00048,-0.0003,1e-05,2,20
7934,-0.00017,-0.00032,-0.00034,0.00079,-0.00015,-0.00048,-0.0003,1e-05,2,20
7935,-6e-05,-7e-05,-5e-05,0.00044,0.00091,-0.00029,0.00032,-0.00057,2,20
7936,-6e-05,-7e-05,-5e-05,0.00044,0.00091,-0.00029,0.00032,-0.00057,2,20
7938,-6e-05,-7e-05,-5e-05,0.00044,0.00091,-0.00029,0.00032,-0.00057,2,20
7939,-6e-05,-7e-05,-5e-05,0.00044,0.00091,-0.00029,0.00032,-0.00057,2,20
7940,-6e-05,-7e-05,-5e-05,0.00044,0.00091,-0.00029,0.00032,-0.00057,2,20
7941,0.00029,0.00033,0.00035,0.00096,-0.00015,0,0.00079,0.00044,2,20
7942,0.0001,-9e-05,-3e-05,-0.0008,5e-05,1e-05,0.00015,0.00092,2,20
7943,0.0001,-9e-05,-3e-05,-0.0008,5e-05,1e-05,0.00015,0.00092,2,20
7944,0.0001,-9e-05,-3e-05,-0.0008,5e-05,1e-05,0.00015,0.00092,2,20
7945,0.0001,-9e-05,-3e-05,-0.0008,5e-05,1e-05,0.00015,0.00092,2,20
7946,0.0001,-9e-05,-3e-05,-0.0008,5e-05,1e-05,0.00015,0.00092,2,20
7947,0.0001,-9e-05,-3e-05,-0.0008,5e-05,1e-05,0.00015,0.00092,2,20
7948,0.0001,-9e-05,-3e-05,-0.0008,5e-05,1e-05,0.00015,0.00092,2,20
7949,0.0001,-9e-05,-3e-05,-0.0008,5e-05,1e-05,0.00015,0.00092,2,20
7950,0.0001,-9e-05,-3e-05,-0.0008,5e-05,1e-05,0.00015,0.00092,2,20
7951,0.0001,-9e-05,-3e-05,-0.0008,5e-05,1e-05,0.00015,0.00092,2,20
7952,0.0001,-9e-05,-3e-05,-0.0008,5e-05,1e-05,0.00015,0.00092,2,20
7953,0.0001,-9e-05,-3e-05,-0.0008,5e-05,1e-05,0.00015,0.00092,2,20
7954,0.0001,-9e-05,-3e-05,-0.0008,5e-05,1e-05,0.00015,0.00092,2,20
7955,0.0001,-9e-05,-3e-05,-0.0008,5e-05,1e-05,0.00015,0.00092,2,20
7956,0.0001,-9e-05,-3e-05,-0.0008,5e-05,1e-05,0.00015,0.00092,2,20
7957,0.0001,-9e-05,-3e-05,-0.0008,5e-05,1e-05,0.00015,0.00092,2,20
7958,0.0001,-9e-05,-3e-05,-0.0008,5e-05,1e-05,0.00015,0.00092,2,20
7959,0.0001,-9e-05,-3e-05,-0.0008,5e-05,1e-05,0.00015,0.00092,2,20
7960,0.0001,-9e-05,-3e-05,-0.0008,5e-05,1e-05,0.00015,0.00092,2,20
7961,0.0001,-9e-05,-3e-05,-0.0008,5e-05,1e-05,0.00015,0.00092,2,20
7962,0.0001,-9e-05,-3e-05,-0.0008,5e-05,1e-05,0.00015,0.00092,2,20
7963,0.0001,-9e-05,-3e-05,-0.0008,5e-05,1e-05,0.00015,0.00092,2,20
7964,0.0001,-9e-05,-3e-05,-0.0008,5e-05,1e-05,0.00015,0.00092,2,20
7965,0.0001,-9e-05,-3e-05,-0.0008,5e-05,1e-05,0.00015,0.00092,2,20
7966,-0.00023,-5e-05,-4e-05,0.00019,0.00034,-0.0003,-0.00045,-0.00125,2,20
7967,0.00032,0.00024,0.00057,0.00045,-0.00029,0.00046,0.0001,0.0007,2,20
7968,3e-05,-0.00032,-0.00063,-0.00051,8e-05,0.00127,-0.00108,0.00111,2,20
7969,-5e-05,-2e-05,-1e-05,-0.00032,0,0.00017,0.00028,-0.00128,2,20
7970,-5e-05,-2e-05,-1e-05,-0.00032,0,0.00017,0.00028,-0.00128,2,20
7971,-5e-05,-2e-05,-1e-05,-0.00032,0,0.00017,0.00028,-0.00128,2,20
7972,-5e-05,-2e-05,-1e-05,-0.00032,0,0.00017,0.00028,-0.00128,2,20
7973,-5e-05,-2e-05,-1e-05,-0.00032,0,0.00017,0.00028,-0.00128,2,20
7974,-5e-05,-2e-05,-1e-05,-0.00032,0,0.00017,0.00028,-0.00128,2,20
7975,-5e-05,-2e-05,-1e-05,-0.00032,0,0.00017,0.00028,-0.00128,2,20
7976,-5e-05,-2e-05,-1e-05,-0.00032,0,0.00017,0.00028,-0.00128,2,20
7977,-5e-05,-2e-05,-1e-05,-0.00032,0,0.00017,0.00028,-0.00128,2,20
7978,-5e-05,-2e-05,-1e-05,-0.00032,0,0.00017,0.00028,-0.00128,2,20
7979,-5e-05,-2e-05,-1e-05,-0.00032,0,0.00017,0.00028,-0.00128,2,20
7980,-5e-05,-2e-05,-1e-05,-0.00032,0,0.00017,0.00028,-0.00128,2,20
7981,-5e-05,-2e-05,-1e-05,-0.00032,0,0.00017,0.00028,-0.00128,2,20
7982,-5e-05,-2e-05,-1e-05,-0.00032,0,0.00017,0.00028,-0.00128,2,20
7983,-5e-05,-2e-05,-1e-05,-0.00032,0,0.00017,0.00028,-0.00128,2,20
7984,-5e-05,-2e-05,-1e-05,-0.00032,0,0.00017,0.00028,-0.00128,2,20
7985,-5e-05,-2e-05,-1e-05,-0.00032,0,0.00017,0.00028,-0.00128,2,20
7986,-5e-05,-2e-05,-1e-05,-0.00032,0,0.00017,0.00028,-0.00128,2,20
7989,-4e-05,-2e-05,0.00051,0.00113,0.00031,-0.00106,0.00078,0.00018,2,20
7990,-0.00019,-7e-05,-0.00066,-0.00128,9e-05,-0.00044,0.00022,0.00085,2,20
7991,-0.00019,-7e-05,-0.00066,-0.00128,9e-05,-0.00044,0.00022,0.00085,2,20
7992,-0.00019,-7e-05,-0.00066,-0.00128,9e-05,-0.00044,0.00022,0.00085,2,20
7993,-0.00019,-7e-05,-0.00066,-0.00128,9e-05,-0.00044,0.00022,0.00085,2,20
7994,-0.00019,-7e-05,-0.00066,-0.00128,9e-05,-0.00044,0.00022,0.00085,2,20
7995,-0.00019,-7e-05,-0.00066,-0.00128,9e-05,-0.00044,0.00022,0.00085,2,20
7996,-0.00019,-7e-05,-0.00066,-0.00128,9e-05,-0.00044,0.00022,0.00085,2,20
7997,-0.00019,-7e-05,-0.00066,-0.00128,9e-05,-0.00044,0.00022,0.00085,2,20
7998,-0.00019,-7e-05,-0.00066,-0.00128,9e-05,-0.00044,0.00022,0.00085,2,20
7999,-0.00019,-7e-05,-0.00066,-0.00128,9e-05,-0.00044,0.00022,0.00085,2,20
8000,-0.00019,-7e-05,-0.00066,-0.00128,9e-05,-0.00044,0.00022,0.00085,2,20
8001,-0.00019,-7e-05,-0.00066,-0.00128,9e-05,-0.00044,0.00022,0.00085,2,20
8002,-0.00019,-7e-05,-0.00066,-0.00128,9e-05,-0.00044,0.00022,0.00085,2,20
8003,-0.00019,-7e-05,-0.00066,-0.00128,9e-05,-0.00044,0.00022,0.00085,2,20
8004,-0.00019,-7e-05,-0.00066,-0.00128,9e-05,-0.00044,0.00022,0.00085,2,20
8005,-0.00019,-7e-05,-0.00066,-0.00128,9e-05,-0.00044,0.00022,0.00085,2,20
8006,-0.00019,-7e-05,-0.00066,-0.00128,9e-05,-0.00044,0.00022,0.00085,2,20
8007,-0.00019,-7e-05,-0.00066,-0.00128,9e-05,-0.00044,0.00022,0.00085,2,20
8008,-0.00019,-7e-05,-0.00066,-0.00128,9e-05,-0.00044,0.00022,0.00085,2,20
8009,-0.00019,-7e-05,-0.00066,-0.00128,9e-05,-0.00044,0.00022,0.00085,2,20
8010,0.0002,3e-05,-0.00021,-0.00119,0.00018,-0.00021,-0.00046,0.00026,2,20
8011,0.0002,3e-05,-0.00021,-0.00119,0.00018,-0.00021,-0.00046,0.00026,2,20
8012,0.0002,3e-05,-0.00021,-0.00119,0.00018,-0.00021,-0.00046,0.00026,2,20
8013,0.0002,3e-05,-0.00021,-0.00119,0.00018,-0.00021,-0.00046,0.00026,2,20
8014,0.0002,3e-05,-0.00021,-0.00119,0.00018,-0.00021,-0.00046,0.00026,2,20
8015,0.0002,3e-05,-0.00021,-0.00119,0.00018,-0.00021,-0.00046,0.00026,2,20
8016,0.0002,3e-05,-0.00021,-0.00119,0.00018,-0.00021,-0.00046,0.00026,2,20
8017,-0.00021,1e-05,-0.00027,-0.00082,-0.00042,-0.00024,-8e-05,-0.00034,2,20
8018,-0.00021,1e-05,-0.00027,-0.00082,-0.00042,-0.00024,-8e-05,-0.00034,2,20
8019,-0.00021,1e-05,-0.00027,-0.00082,-0.00042,-0.00024,-8e-05,-0.00034,2,20
8020,-0.00021,1e-05,-0.00027,-0.00082,-0.00042,-0.00024,-8e-05,-0.00034,2,20
8021,-0.00021,1e-05,-0.00027,-0.00082,-0.00042,-0.00024,-8e-05,-0.00034,2,20
8022,-0.00021,1e-05,-0.00027,-0.00082,-0.00042,-0.00024,-8e-05,-0.00034,2,20
8023,-0.00021,1e-05,-0.00027,-0.00082,-0.00042,-0.00024,-8e-05,-0.00034,2,20
8024,-0.00021,1e-05,-0.00027,-0.00082,-0.00042,-0.00024,-8e-05,-0.00034,2,20
8025,-0.00021,1e-05,-0.00027,-0.00082,-0.00042,-0.00024,-8e-05,-0.00034,2,20
8026,-0.00021,1e-05,-0.00027,-0.00082,-0.00042,-0.00024,-8e-05,-0.00034,2,20
8027,-0.00021,1e-05,-0.00027,-0.00082,-0.00042,-0.00024,-8e-05,-0.00034,2,20
8028,-0.00021,1e-05,-0.00027,-0.00082,-0.00042,-0.00024,-8e-05,-0.00034,2,20
8029,-0.00021,1e-05,-0.00027,-0.00082,-0.00042,-0.00024,-8e-05,-0.00034,2,20
8030,-0.00021,1e-05,-0.00027,-0.00082,-0.00042,-0.00024,-8e-05,-0.00034,2,20
8031,-0.00021,1e-05,-0.00027,-0.00082,-0.00042,-0.00024,-8e-05,-0.00034,2,20
8032,-0.00021,1e-05,-0.00027,-0.00082,-0.00042,-0.00024,-8e-05,-0.00034,2,20
8033,-0.00021,1e-05,-0.00027,-0.00082,-0.00042,-0.00024,-8e-05,-0.00034,2,20
8034,-0.00021,1e-05,-0.00027,-0.00082,-0.00042,-0.00024,-8e-05,-0.00034,2,20
8035,-0.00021,1e-05,-0.00027,-0.00082,-0.00042,-0.00024,-8e-05,-0.00034,2,20
8036,-0.00021,1e-05,-0.00027,-0.00082,-0.00042,-0.00024,-8e-05,-0.00034,2,20
8038,-0.00021,1e-05,-0.00027,-0.00082,-0.00042,-0.00024,-8e-05,-0.00034,2,20
8039,-0.00021,1e-05,-0.00027,-0.00082,-0.00042,-0.00024,-8e-05,-0.00034,2,20
8040,-0.0005,-0.00019,-0.00055,-0.00107,-0.00074,-0.00073,-0.00117,-0.00089,2,20
8041,-0.0005,-0.00019,-0.00055,-0.00107,-0.00074,-0.00073,-0.00117,-0.00089,2,20
8042,0.00011,-4e-05,0.00016,0.00062,0.00011,0.00053,0.00094,0.00104,2,20
8043,0.00011,-4e-05,0.00016,0.00062,0.00011,0.00053,0.00094,0.00104,2,20
8044,0.00011,-4e-05,0.00016,0.00062,0.00011,0.00053,0.00094,0.00104,2,20
8045,0.00011,-4e-05,0.00016,0.00062,0.00011,0.00053,0.00094,0.00104,2,20
8046,0.00011,-4e-05,0.00016,0.00062,0.00011,0.00053,0.00094,0.00104,2,20
8047,0.00011,-4e-05,0.00016,0.00062,0.00011,0.00053,0.00094,0.00104,2,20
8048,0.00011,-4e-05,0.00016,0.00062,0.00011,0.00053,0.00094,0.00104,2,20
8049,0.00011,-4e-05,0.00016,0.00062,0.00011,0.00053,0.00094,0.00104,2,20
8050,0.00011,-4e-05,0.00016,0.00062,0.00011,0.00053,0.00094,0.00104,2,20
8051,0.00011,-4e-05,0.00016,0.00062,0.00011,0.00053,0.00094,0.00104,2,20
8052,0.00011,-4e-05,0.00016,0.00062,0.00011,0.00053,0.00094,0.00104,2,20
8053,0.00011,-4e-05,0.00016,0.00062,0.00011,0.00053,0.00094,0.00104,2,20
8054,0.00011,-4e-05,0.00016,0.00062,0.00011,0.00053,0.00094,0.00104,2,20
8055,0.00011,-4e-05,0.00016,0.00062,0.00011,0.00053,0.00094,0.00104,2,20
8056,0.00011,-4e-05,0.00016,0.00062,0.00011,0.00053,0.00094,0.00104,2,20
8057,0.00011,-4e-05,0.00016,0.00062,0.00011,0.00053,0.00094,0.00104,2,20
8058,0.00011,-4e-05,0.00016,0.00062,0.00011,0.00053,0.00094,0.00104,2,20
8059,0.00011,-4e-05,0.00016,0.00062,0.00011,0.00053,0.00094,0.00104,2,20
8060,0.00011,-4e-05,0.00016,0.00062,0.00011,0.00053,0.00094,0.00104,2,20
8061,0.00011,-4e-05,0.00016,0.00062,0.00011,0.00053,0.00094,0.00104,2,20
8062,0.00011,-4e-05,0.00016,0.00062,0.00011,0.00053,0.00094,0.00104,2,20
8063,-0.00021,0.00014,0.0007,0.00095,-0.00027,-0.0002,-0.00048,0.00093,2,20
8064,-0.00032,-0.00041,-0.00088,-0.00092,0.00043,-0.00033,-0.00068,-0.0006,2,20
8066,-3e-05,-3e-05,0.00032,0.00075,4e-05,7e-05,-0.00025,0.00041,2,20
8067,-3e-05,-3e-05,0.00032,0.00075,4e-05,7e-05,-0.00025,0.00041,2,20
8068,-3e-05,-3e-05,0.00032,0.00075,4e-05,7e-05,-0.00025,0.00041,2,20
8069,-3e-05,-3e-05,0.00032,0.00075,4e-05,7e-05,-0.00025,0.00041,2,20
8070,-3e-05,-3e-05,0.00032,0.00075,4e-05,7e-05,-0.00025,0.00041,2,20
8071,-3e-05,-3e-05,0.00032,0.00075,4e-05,7e-05,-0.00025,0.00041,2,20
8072,-3e-05,-3e-05,0.00032,0.00075,4e-05,7e-05,-0.00025,0.00041,2,20
8073,-3e-05,-3e-05,0.00032,0.00075,4e-05,7e-05,-0.00025,0.00041,2,20
8074,-3e-05,-3e-05,0.00032,0.00075,4e-05,7e-05,-0.00025,0.00041,2,20
8075,-3e-05,-3e-05,0.00032,0.00075,4e-05,7e-05,-0.00025,0.00041,2,20
8076,-3e-05,-3e-05,0.00032,0.00075,4e-05,7e-05,-0.00025,0.00041,2,20
8077,-3e-05,-3e-05,0.00032,0.00075,4e-05,7e-05,-0.00025,0.00041,2,20
8078,-3e-05,-3e-05,0.00032,0.00075,4e-05,7e-05,-0.00025,0.00041,2,20
8079,-3e-05,-3e-05,0.00032,0.00075,4e-05,7e-05,-0.00025,0.00041,2,20
8080,-3e-05,-3e-05,0.00032,0.00075,4e-05,7e-05,-0.00025,0.00041,2,20
8081,-3e-05,-3e-05,0.00032,0.00075,4e-05,7e-05,-0.00025,0.00041,2,20
8082,-3e-05,-3e-05,0.00032,0.00075,4e-05,7e-05,-0.00025,0.00041,2,20
8083,-3e-05,-3e-05,0.00032,0.00075,4e-05,7e-05,-0.00025,0.00041,2,20
8084,-3e-05,-3e-05,0.00032,0.00075,4e-05,7e-05,-0.00025,0.00041,2,20
8085,-0.00013,2e-05,-0.00027,-0.00017,-5e-05,0.0003,0.00101,0.00072,2,20
8086,-0.00013,2e-05,-0.00027,-0.00017,-5e-05,0.0003,0.00101,0.00072,2,20
8089,-0.00013,2e-05,-0.00027,-0.00017,-5e-05,0.0003,0.00101,0.00072,2,20
8090,-0.00013,2e-05,-0.00027,-0.00017,-5e-05,0.0003,0.00101,0.00072,2,20
8091,0.00039,0.0003,0.0003,-0.00032,-0.00023,0.00013,0.00089,0.00037,2,20
8092,-0.00044,-0.0001,0.00011,0.0007,0.00014,-0.00045,-0.00111,-0.00103,2,20
8093,-0.00044,-0.0001,0.00011,0.0007,0.00014,-0.00045,-0.00111,-0.00103,2,20
8094,-0.00044,-0.0001,0.00011,0.0007,0.00014,-0.00045,-0.00111,-0.00103,2,20
8095,-0.00044,-0.0001,0.00011,0.0007,0.00014,-0.00045,-0.00111,-0.00103,2,20
8096,-0.00044,-0.0001,0.00011,0.0007,0.00014,-0.00045,-0.00111,-0.00103,2,20
8097,-0.00044,-0.0001,0.00011,0.0007,0.00014,-0.00045,-0.00111,-0.00103,2,20
8098,-0.00044,-0.0001,0.00011,0.0007,0.00014,-0.00045,-0.00111,-0.00103,2,20
8099,-0.00044,-0.0001,0.00011,0.0007,0.00014,-0.00045,-0.00111,-0.00103,2,20
8100,-0.00044,-0.0001,0.00011,0.0007,0.00014,-0.00045,-0.00111,-0.00103,2,20
8101,-0.00044,-0.0001,0.00011,0.0007,0.00014,-0.00045,-0.00111,-0.00103,2,20
8102,-0.00044,-0.0001,0.00011,0.0007,0.00014,-0.00045,-0.00111,-0.00103,2,20
8103,-0.00044,-0.0001,0.00011,0.0007,0.00014,-0.00045,-0.00111,-0.00103,2,20
8104,-0.00044,-0.0001,0.00011,0.0007,0.00014,-0.00045,-0.00111,-0.00103,2,20
8105,-0.00044,-0.0001,0.00011,0.0007,0.00014,-0.00045,-0.00111,-0.00103,2,20
8106,0.00015,-0.00023,-0.00083,-0.00124,-0.00033,0.00043,-0.00026,0.00076,2,20
8107,0.00029,-2e-05,-2e-05,0.00022,-3e-05,0.00013,-0.00011,-0.0008,2,20
8108,0.00029,-2e-05,-2e-05,0.00022,-3e-05,0.00013,-0.00011,-0.0008,2,20
8109,0.00029,-2e-05,-2e-05,0.00022,-3e-05,0.00013,-0.00011,-0.0008,2,20
8110,0.00029,-2e-05,-2e-05,0.00022,-3e-05,0.00013,-0.00011,-0.0008,2,20
8111,0.00029,-2e-05,-2e-05,0.00022,-3e-05,0.00013,-0.00011,-0.0008,2,20
8112,0.00029,-2e-05,-2e-05,0.00022,-3e-05,0.00013,-0.00011,-0.0008,2,20
8113,0.00029,-2e-05,-2e-05,0.00022,-3e-05,0.00013,-0.00011,-0.0008,2,20
8114,0.00029,-2e-05,-2e-05,0.00022,-3e-05,0.00013,-0.00011,-0.0008,2,20
8115,0.00029,-2e-05,-2e-05,0.00022,-3e-05,0.00013,-0.00011,-0.0008,2,20
8116,0.00037,0.00021,7e-05,-0.00011,-3e-05,0.00042,-0.00027,-0.00074,2,20
8117,0.00037,0.00021,7e-05,-0.00011,-3e-05,0.00042,-0.00027,-0.00074,2,20
8118,0.00037,0.00021,7e-05,-0.00011,-3e-05,0.00042,-0.00027,-0.00074,2,20
8119,0.00037,0.00021,7e-05,-0.00011,-3e-05,0.00042,-0.00027,-0.00074,2,20
8120,0.00037,0.00021,7e-05,-0.00011,-3e-05,0.00042,-0.00027,-0.00074,2,20
8121,0.00037,0.00021,7e-05,-0.00011,-3e-05,0.00042,-0.00027,-0.00074,2,20
8122,0.00037,0.00021,7e-05,-0.00011,-3e-05,0.00042,-0.00027,-0.00074,2,20
8123,0.00037,0.00021,7e-05,-0.00011,-3e-05,0.00042,-0.00027,-0.00074,2,20
8124,0.00037,0.00021,7e-05,-0.00011,-3e-05,0.00042,-0.00027,-0.00074,2,20
8125,0.00037,0.00021,7e-05,-0.00011,-3e-05,0.00042,-0.00027,-0.00074,2,20
8126,0.00037,0.00021,7e-05,-0.00011,-3e-05,0.00042,-0.00027,-0.00074,2,20
8127,0.00037,0.00021,7e-05,-0.00011,-3e-05,0.00042,-0.00027,-0.00074,2,20
8128,0.00037,0.00021,7e-05,-0.00011,-3e-05,0.00042,-0.00027,-0.00074,2,20
8129,0.00037,0.00021,7e-05,-0.00011,-3e-05,0.00042,-0.00027,-0.00074,2,20
8130,0.00037,0.00021,7e-05,-0.00011,-3e-05,0.00042,-0.00027,-0.00074,2,20
8131,0.00037,0.00021,7e-05,-0.00011,-3e-05,0.00042,-0.00027,-0.00074,2,20
8132,0.00037,0.00021,7e-05,-0.00011,-3e-05,0.00042,-0.00027,-0.00074,2,20
8133,0.00037,0.00021,7e-05,-0.00011,-3e-05,0.00042,-0.00027,-0.00074,2,20
8134,0.00037,0.00021,7e-05,-0.00011,-3e-05,0.00042,-0.00027,-0.00074,2,20
8135,0.00037,0.00021,7e-05,-0.00011,-3e-05,0.00042,-0.00027,-0.00074,2,20
8136,0.00037,0.00021,7e-05,-0.00011,-3e-05,0.00042,-0.00027,-0.00074,2,20
8139,-8e-05,-0.00015,9e-05,0.0003,-0.0003,1e-05,-5e-05,0.00043,2,20
8140,-0.00042,-0.00014,-0.00024,-0.00078,-0.00016,6e-05,-0.00049,-0.00081,2,20
8141,-0.00042,-0.00014,-0.00024,-0.00078,-0.00016,6e-05,-0.00049,-0.00081,2,20
8142,-0.00042,-0.00014,-0.00024,-0.00078,-0.00016,6e-05,-0.00049,-0.00081,2,20
8143,-0.00042,-0.00014,-0.00024,-0.00078,-0.00016,6e-05,-0.00049,-0.00081,2,20
8144,-0.00042,-0.00014,-0.00024,-0.00078,-0.00016,6e-05,-0.00049,-0.00081,2,20
8145,-0.00042,-0.00014,-0.00024,-0.00078,-0.00016,6e-05,-0.00049,-0.00081,2,20
8146,-0.00042,-0.00014,-0.00024,-0.00078,-0.00016,6e-05,-0.00049,-0.00081,2,20
8147,-0.00042,-0.00014,-0.00024,-0.00078,-0.00016,6e-05,-0.00049,-0.00081,2,20
8148,-0.00042,-0.00014,-0.00024,-0.00078,-0.00016,6e-05,-0.00049,-0.00081,2,20
8149,-0.00042,-0.00014,-0.00024,-0.00078,-0.00016,6e-05,-0.00049,-0.00081,2,20
8150,-0.00042,-0.00014,-0.00024,-0.00078,-0.00016,6e-05,-0.00049,-0.00081,2,20
8151,-0.00042,-0.00014,-0.00024,-0.00078,-0.00016,6e-05,-0.00049,-0.00081,2,20
8152,-0.00042,-0.00014,-0.00024,-0.00078,-0.00016,6e-05,-0.00049,-0.00081,2,20
8153,-0.00042,-0.00014,-0.00024,-0.00078,-0.00016,6e-05,-0.00049,-0.00081,2,20
8154,-0.00042,-0.00014,-0.00024,-0.00078,-0.00016,6e-05,-0.00049,-0.00081,2,20
8155,-0.00042,-0.00014,-0.00024,-0.00078,-0.00016,6e-05,-0.00049,-0.00081,2,20
8156,-0.00042,-0.00014,-0.00024,-0.00078,-0.00016,6e-05,-0.00049,-0.00081,2,20
8157,-0.00042,-0.00014,-0.00024,-0.00078,-0.00016,6e-05,-0.00049,-0.00081,2,20
8158,-0.00042,-0.00014,-0.00024,-0.00078,-0.00016,6e-05,-0.00049,-0.00081,2,20
8159,-0.00042,-0.00014,-0.00024,-0.00078,-0.00016,6e-05,-0.00049,-0.00081,2,20
8160,-0.00013,-0.00028,-0.00055,-0.00017,-0.00019,0.00064,8e-05,0.00014,2,20
8161,-4e-05,-4e-05,0.00019,0.0005,-0.00049,-0.00045,7e-05,0.00127,2,20
8162,-0.00022,-2e-05,-0.00013,-0.00079,-0.0001,-0.00024,-0.00024,-0.00038,2,20
8163,-0.00022,-2e-05,-0.00013,-0.00079,-0.0001,-0.00024,-0.00024,-0.00038,2,20
8164,-0.00022,-2e-05,-0.00013,-0.00079,-0.0001,-0.00024,-0.00024,-0.00038,2,20
8165,-0.00022,-2e-05,-0.00013,-0.00079,-0.0001,-0.00024,-0.00024,-0.00038,2,20
8166,-0.00022,-2e-05,-0.00013,-0.00079,-0.0001,-0.00024,-0.00024,-0.00038,2,20
8167,-0.00022,-2e-05,-0.00013,-0.00079,-0.0001,-0.00024,-0.00024,-0.00038,2,20
8168,-0.00022,-2e-05,-0.00013,-0.00079,-0.0001,-0.00024,-0.00024,-0.00038,2,20
8169,-0.00022,-2e-05,-0.00013,-0.00079,-0.0001,-0.00024,-0.00024,-0.00038,2,20
8170,-0.00022,-2e-05,-0.00013,-0.00079,-0.0001,-0.00024,-0.00024,-0.00038,2,20
8171,-0.00022,-2e-05,-0.00013,-0.00079,-0.0001,-0.00024,-0.00024,-0.00038,2,20
8172,-0.00022,-2e-05,-0.00013,-0.00079,-0.0001,-0.00024,-0.00024,-0.00038,2,20
8173,-0.00022,-2e-05,-0.00013,-0.00079,-0.0001,-0.00024,-0.00024,-0.00038,2,20
8174,-0.00022,-2e-05,-0.00013,-0.00079,-0.0001,-0.00024,-0.00024,-0.00038,2,20
8175,-0.00022,-2e-05,-0.00013,-0.00079,-0.0001,-0.00024,-0.00024,-0.00038,2,20
8176,-0.00022,-2e-05,-0.00013,-0.00079,-0.0001,-0.00024,-0.00024,-0.00038,2,20
8177,-0.00022,-2e-05,-0.00013,-0.00079,-0.0001,-0.00024,-0.00024,-0.00038,2,20
8178,-0.00022,-2e-05,-0.00013,-0.00079,-0.0001,-0.00024,-0.00024,-0.00038,2,20
8179,-0.00022,-2e-05,-0.00013,-0.00079,-0.0001,-0.00024,-0.00024,-0.00038,2,20
8180,-0.00022,-2e-05,-0.00013,-0.00079,-0.0001,-0.00024,-0.00024,-0.00038,2,20
8181,-0.00022,-2e-05,-0.00013,-0.00079,-0.0001,-0.00024,-0.00024,-0.00038,2,20
8182,0.00036,4e-05,0.00019,0.00095,-0.00034,0.00093,0.00051,0.0002,2,20
8183,0.00036,4e-05,0.00019,0.00095,-0.00034,0.00093,0.00051,0.0002,2,20
8184,0.00036,4e-05,0.00019,0.00095,-0.00034,0.00093,0.00051,0.0002,2,20
8185,0.00036,4e-05,0.00019,0.00095,-0.00034,0.00093,0.00051,0.0002,2,20
8186,0.00036,4e-05,0.00019,0.00095,-0.00034,0.00093,0.00051,0.0002,2,20
8188,0.00036,4e-05,0.00019,0.00095,-0.00034,0.00093,0.00051,0.0002,2,20
8189,0.00036,4e-05,0.00019,0.00095,-0.00034,0.00093,0.00051,0.0002,2,20
8190,-0.00018,-0.00021,-0.00031,-0.00093,0.00018,0.00057,-0.00063,-0.00052,2,20
8191,0.00054,0.0001,6e-05,0.0003,0.00046,5e-05,-0.00047,0.00127,2,20
8192,0.00054,0.0001,6e-05,0.0003,0.00046,5e-05,-0.00047,0.00127,2,20
8193,0.00054,0.0001,6e-05,0.0003,0.00046,5e-05,-0.00047,0.00127,2,20
8194,0.00054,0.0001,6e-05,0.0003,0.00046,5e-05,-0.00047,0.00127,2,20
8195,0.00054,0.0001,6e-05,0.0003,0.00046,5e-05,-0.00047,0.00127,2,20
8196,0.00054,0.0001,6e-05,0.0003,0.00046,5e-05,-0.00047,0.00127,2,20
8197,0.00054,0.0001,6e-05,0.0003,0.00046,5e-05,-0.00047,0.00127,2,20
8198,0.00054,0.0001,6e-05,0.0003,0.00046,5e-05,-0.00047,0.00127,2,20
8199,0.00054,0.0001,6e-05,0.0003,0.00046,5e-05,-0.00047,0.00127,2,20
8200,0.00054,0.0001,6e-05,0.0003,0.00046,5e-05,-0.00047,0.00127,2,20
8201,0.00054,0.0001,6e-05,0.0003,0.00046,5e-05,-0.00047,0.00127,2,20
8202,0.00054,0.0001,6e-05,0.0003,0.00046,5e-05,-0.00047,0.00127,2,20
8203,0.00054,0.0001,6e-05,0.0003,0.00046,5e-05,-0.00047,0.00127,2,20
8204,0.00054,0.0001,6e-05,0.0003,0.00046,5e-05,-0.00047,0.00127,2,20
8205,0.00054,0.0001,6e-05,0.0003,0.00046,5e-05,-0.00047,0.00127,2,20
8206,0.00054,0.0001,6e-05,0.0003,0.00046,5e-05,-0.00047,0.00127,2,20
8207,0.00054,0.0001,6e-05,0.0003,0.00046,5e-05,-0.00047,0.00127,2,20
8208,0.00054,0.0001,6e-05,0.0003,0.00046,5e-05,-0.00047,0.00127,2,20
8209,0.00054,0.0001,6e-05,0.0003,0.00046,5e-05,-0.00047,0.00127,2,20
8210,0.00054,0.0001,6e-05,0.0003,0.00046,5e-05,-0.00047,0.00127,2,20
8211,0.00054,0.0001,6e-05,0.0003,0.00046,5e-05,-0.00047,0.00127,2,20
8212,0.00054,0.0001,6e-05,0.0003,0.00046,5e-05,-0.00047,0.00127,2,20
8213,0.00013,0.00018,0.00049,8e-05,-6e-05,-0.00088,-0.0003,0.00065,2,20
8214,-0.00025,0.00018,0.00053,-0.0004,-0.00036,-0.0001,0.00026,-0.00038,2,20
8215,-0.00025,0.00018,0.00053,-0.0004,-0.00036,-0.0001,0.00026,-0.00038,2,20
8216,-0.00025,0.00018,0.00053,-0.0004,-0.00036,-0.0001,0.00026,-0.00038,2,20
8217,-0.00025,0.00018,0.00053,-0.0004,-0.00036,-0.0001,0.00026,-0.00038,2,20
8218,-0.00025,0.00018,0.00053,-0.0004,-0.00036,-0.0001,0.00026,-0.00038,2,20
8219,-0.00025,0.00018,0.00053,-0.0004,-0.00036,-0.0001,0.00026,-0.00038,2,20
8220,-0.00025,0.00018,0.00053,-0.0004,-0.00036,-0.0001,0.00026,-0.00038,2,20
8221,-0.00025,0.00018,0.00053,-0.0004,-0.00036,-0.0001,0.00026,-0.00038,2,20
8222,-0.00025,0.00018,0.00053,-0.0004,-0.00036,-0.0001,0.00026,-0.00038,2,20
8223,-0.00025,0.00018,0.00053,-0.0004,-0.00036,-0.0001,0.00026,-0.00038,2,20
8224,-0.00025,0.00018,0.00053,-0.0004,-0.00036,-0.0001,0.00026,-0.00038,2,20
8225,-0.00025,0.00018,0.00053,-0.0004,-0.00036,-0.0001,0.00026,-0.00038,2,20
8226,-0.00025,0.00018,0.00053,-0.0004,-0.00036,-0.0001,0.00026,-0.00038,2,20
8227,-0.00025,0.00018,0.00053,-0.0004,-0.00036,-0.0001,0.00026,-0.00038,2,20
8228,-0.00025,0.00018,0.00053,-0.0004,-0.00036,-0.0001,0.00026,-0.00038,2,20
8229,-0.00025,0.00018,0.00053,-0.0004,-0.00036,-0.0001,0.00026,-0.00038,2,20
8230,-0.00025,0.00018,0.00053,-0.0004,-0.00036,-0.0001,0.00026,-0.00038,2,20
8231,-0.00025,0.00018,0.00053,-0.0004,-0.00036,-0.0001,0.00026,-0.00038,2,20
8232,-0.00025,0.00018,0.00053,-0.0004,-0.00036,-0.0001,0.00026,-0.00038,2,20
8233,-0.00025,0.00018,0.00053,-0.0004,-0.00036,-0.0001,0.00026,-0.00038,2,20
8234,-0.00025,0.00018,0.00053,-0.0004,-0.00036,-0.0001,0.00026,-0.00038,2,20
8235,0.00017,-9e-05,-0.00023,-0.00059,0.00058,-2e-05,-0.00023,4e-05,2,20
8236,3e-05,8e-05,0.00049,0.00086,-0.0001,-3e-05,-0.00065,8e-05,2,20
8239,0.00022,-3e-05,0.00027,0.00086,-0.00036,-4e-05,0.00031,0.00127,2,20
8240,0.00022,-3e-05,0.00027,0.00086,-0.00036,-4e-05,0.00031,0.00127,2,20
8241,0.00022,-3e-05,0.00027,0.00086,-0.00036,-4e-05,0.00031,0.00127,2,20
8242,0.00022,-3e-05,0.00027,0.00086,-0.00036,-4e-05,0.00031,0.00127,2,20
8243,0.00022,-3e-05,0.00027,0.00086,-0.00036,-4e-05,0.00031,0.00127,2,20
8244,0.00022,-3e-05,0.00027,0.00086,-0.00036,-4e-05,0.00031,0.00127,2,20
8245,0.00022,-3e-05,0.00027,0.00086,-0.00036,-4e-05,0.00031,0.00127,2,20
8246,0.00022,-3e-05,0.00027,0.00086,-0.00036,-4e-05,0.00031,0.00127,2,20
8247,0.00022,-3e-05,0.00027,0.00086,-0.00036,-4e-05,0.00031,0.00127,2,20
8248,0.00022,-3e-05,0.00027,0.00086,-0.00036,-4e-05,0.00031,0.00127,2,20
8249,0.00022,-3e-05,0.00027,0.00086,-0.00036,-4e-05,0.00031,0.00127,2,20
8250,0.00022,-3e-05,0.00027,0.00086,-0.00036,-4e-05,0.00031,0.00127,2,20
8251,0.00022,-3e-05,0.00027,0.00086,-0.00036,-4e-05,0.00031,0.00127,2,20
8252,0.00022,-3e-05,0.00027,0.00086,-0.00036,-4e-05,0.00031,0.00127,2,20
8253,0.00022,-3e-05,0.00027,0.00086,-0.00036,-4e-05,0.00031,0.00127,2,20
8254,0.00022,-3e-05,0.00027,0.00086,-0.00036,-4e-05,0.00031,0.00127,2,20
8255,0.00022,-3e-05,0.00027,0.00086,-0.00036,-4e-05,0.00031,0.00127,2,20
8256,0.00022,-3e-05,0.00027,0.00086,-0.00036,-4e-05,0.00031,0.00127,2,20
8257,5e-05,-0.00018,8e-05,0.00058,3e-05,-0.00047,0.00022,0.001,2,20
8258,5e-05,-0.00018,8e-05,0.00058,3e-05,-0.00047,0.00022,0.001,2,20
8259,5e-05,-0.00018,8e-05,0.00058,3e-05,-0.00047,0.00022,0.001,2,20
8260,5e-05,-0.00018,8e-05,0.00058,3e-05,-0.00047,0.00022,0.001,2,20
8261,5e-05,-0.00018,8e-05,0.00058,3e-05,-0.00047,0.00022,0.001,2,20
8262,5e-05,-0.00018,8e-05,0.00058,3e-05,-0.00047,0.00022,0.001,2,20
8263,5e-05,-0.00018,8e-05,0.00058,3e-05,-0.00047,0.00022,0.001,2,20
8264,-1e-05,-6e-05,7e-05,0.00012,-0.00022,0.00014,0.00056,0.00071,2,20
8265,-1e-05,-6e-05,7e-05,0.00012,-0.00022,0.00014,0.00056,0.00071,2,20
8266,-1e-05,-6e-05,7e-05,0.00012,-0.00022,0.00014,0.00056,0.00071,2,20
8267,-1e-05,-6e-05,7e-05,0.00012,-0.00022,0.00014,0.00056,0.00071,2,20
8268,-1e-05,-6e-05,7e-05,0.00012,-0.00022,0.00014,0.00056,0.00071,2,20
8269,-1e-05,-6e-05,7e-05,0.00012,-0.00022,0.00014,0.00056,0.00071,2,20
8270,-1e-05,-6e-05,7e-05,0.00012,-0.00022,0.00014,0.00056,0.00071,2,20
8271,-1e-05,-6e-05,7e-05,0.00012,-0.00022,0.00014,0.00056,0.00071,2,20
8272,-1e-05,-6e-05,7e-05,0.00012,-0.00022,0.00014,0.00056,0.00071,2,20
8273,-1e-05,-6e-05,7e-05,0.00012,-0.00022,0.00014,0.00056,0.00071,2,20
8274,-1e-05,-6e-05,7e-05,0.00012,-0.00022,0.00014,0.00056,0.00071,2,20
8275,-1e-05,-6e-05,7e-05,0.00012,-0.00022,0.00014,0.00056,0.00071,2,20
8276,-1e-05,-6e-05,7e-05,0.00012,-0.00022,0.00014,0.00056,0.00071,2,20
8277,-1e-05,-6e-05,7e-05,0.00012,-0.00022,0.00014,0.00056,0.00071,2,20
8278,-1e-05,-6e-05,7e-05,0.00012,-0.00022,0.00014,0.00056,0.00071,2,20
8279,-1e-05,-6e-05,7e-05,0.00012,-0.00022,0.00014,0.00056,0.00071,2,20
8280,-1e-05,-6e-05,7e-05,0.00012,-0.00022,0.00014,0.00056,0.00071,2,20
8281,-1e-05,-6e-05,7e-05,0.00012,-0.00022,0.00014,0.00056,0.00071,2,20
8282,-1e-05,-6e-05,7e-05,0.00012,-0.00022,0.00014,0.00056,0.00071,2,20
8283,-1e-05,-6e-05,7e-05,0.00012,-0.00022,0.00014,0.00056,0.00071,2,20
8284,-1e-05,-6e-05,7e-05,0.00012,-0.00022,0.00014,0.00056,0.00071,2,20
8285,-1e-05,-6e-05,7e-05,0.00012,-0.00022,0.00014,0.00056,0.00071,2,20
8286,-1e-05,-6e-05,7e-05,0.00012,-0.00022,0.00014,0.00056,0.00071,2,20
8289,-1e-05,5e-05,-0.0002,-0.001,-6e-05,0.00024,-0.00113,-0.00051,2,20
8290,-1e-05,5e-05,-0.0002,-0.001,-6e-05,0.00024,-0.00113,-0.00051,2,20
8291,0.00014,9e-05,-0.00011,-0.00093,0.00014,0.00018,-0.00063,0.00017,2,20
8292,0.00014,9e-05,-0.00011,-0.00093,0.00014,0.00018,-0.00063,0.00017,2,20
8293,0.00014,9e-05,-0.00011,-0.00093,0.00014,0.00018,-0.00063,0.00017,2,20
8294,0.00014,9e-05,-0.00011,-0.00093,0.00014,0.00018,-0.00063,0.00017,2,20
8295,0.00014,9e-05,-0.00011,-0.00093,0.00014,0.00018,-0.00063,0.00017,2,20
8296,0.00014,9e-05,-0.00011,-0.00093,0.00014,0.00018,-0.00063,0.00017,2,20
8297,0.00014,9e-05,-0.00011,-0.00093,0.00014,0.00018,-0.00063,0.00017,2,20
8298,0.00014,9e-05,-0.00011,-0.00093,0.00014,0.00018,-0.00063,0.00017,2,20
8299,0.00014,9e-05,-0.00011,-0.00093,0.00014,0.00018,-0.00063,0.00017,2,20
8300,0.00014,9e-05,-0.00011,-0.00093,0.00014,0.00018,-0.00063,0.00017,2,20
8301,0.00014,9e-05,-0.00011,-0.00093,0.00014,0.00018,-0.00063,0.00017,2,20
8302,0.00014,9e-05,-0.00011,-0.00093,0.00014,0.00018,-0.00063,0.00017,2,20
8303,0.00014,9e-05,-0.00011,-0.00093,0.00014,0.00018,-0.00063,0.00017,2,20
8304,0.00014,9e-05,-0.00011,-0.00093,0.00014,0.00018,-0.00063,0.00017,2,20
8305,0.00014,9e-05,-0.00011,-0.00093,0.00014,0.00018,-0.00063,0.00017,2,20
8306,0.00014,9e-05,-0.00011,-0.00093,0.00014,0.00018,-0.00063,0.00017,2,20
8307,0.00014,9e-05,-0.00011,-0.00093,0.00014,0.00018,-0.00063,0.00017,2,20
8308,0.00014,9e-05,-0.00011,-0.00093,0.00014,0.00018,-0.00063,0.00017,2,20
8309,0.00014,9e-05,-0.00011,-0.00093,0.00014,0.00018,-0.00063,0.00017,2,20
8310,-0.00038,-0.0001,0.00029,0.00078,-0.00035,-0.00027,0.00055,0.00071,2,20
8311,0.00013,1e-05,0.00014,0.00039,0.0003,-0.00032,-0.00069,-0.00039,2,20
8312,-0.00013,-0.00024,-0.00059,0.00033,-0.00027,0.00055,-0.00062,0.00057,2,20
8313,-0.00013,-0.00024,-0.00059,0.00033,-0.00027,0.00055,-0.00062,0.00057,2,20
8314,-0.00013,-0.00024,-0.00059,0.00033,-0.00027,0.00055,-0.00062,0.00057,2,20
8315,-0.00013,-0.00024,-0.00059,0.00033,-0.00027,0.00055,-0.00062,0.00057,2,20
8316,-0.00013,-0.00024,-0.00059,0.00033,-0.00027,0.00055,-0.00062,0.00057,2,20
8317,-0.00013,-0.00024,-0.00059,0.00033,-0.00027,0.00055,-0.00062,0.00057,2,20
8318,-0.00013,-0.00024,-0.00059,0.00033,-0.00027,0.00055,-0.00062,0.00057,2,20
8319,-0.00013,-0.00024,-0.00059,0.00033,-0.00027,0.00055,-0.00062,0.00057,2,20
8320,-0.00013,-0.00024,-0.00059,0.00033,-0.00027,0.00055,-0.00062,0.00057,2,20
8321,-0.00013,-0.00024,-0.00059,0.00033,-0.00027,0.00055,-0.00062,0.00057,2,20
8322,-0.00013,-0.00024,-0.00059,0.00033,-0.00027,0.00055,-0.00062,0.00057,2,20
8323,-0.00013,-0.00024,-0.00059,0.00033,-0.00027,0.00055,-0.00062,0.00057,2,20
8324,-0.00013,-0.00024,-0.00059,0.00033,-0.00027,0.00055,-0.00062,0.00057,2,20
8325,-0.00013,-0.00024,-0.00059,0.00033,-0.00027,0.00055,-0.00062,0.00057,2,20
8326,-0.00013,-0.00024,-0.00059,0.00033,-0.00027,0.00055,-0.00062,0.00057,2,20
8327,-0.00013,-0.00024,-0.00059,0.00033,-0.00027,0.00055,-0.00062,0.00057,2,20
8328,-0.00013,-0.00024,-0.00059,0.00033,-0.00027,0.00055,-0.00062,0.00057,2,20
8329,-0.00013,-0.00024,-0.00059,0.00033,-0.00027,0.00055,-0.00062,0.00057,2,20
8330,-0.00013,-0.00024,-0.00059,0.00033,-0.00027,0.00055,-0.00062,0.00057,2,20
8331,-0.00013,-0.00024,-0.00059,0.00033,-0.00027,0.00055,-0.00062,0.00057,2,20
8332,-0.00013,-0.00024,-0.00059,0.00033,-0.00027,0.00055,-0.00062,0.00057,2,20
8333,-0.00031,-0.00021,-0.00039,-0.00128,0.00044,0.00054,0.001,0.00043,2,20
8334,2e-05,6e-05,0.00011,0.00081,0.00072,0.00057,0.00053,-0.00058,2,20
8335,2e-05,6e-05,0.00011,0.00081,0.00072,0.00057,0.00053,-0.00058,2,20
8336,2e-05,6e-05,0.00011,0.00081,0.00072,0.00057,0.00053,-0.00058,2,20
8338,2e-05,6e-05,0.00011,0.00081,0.00072,0.00057,0.00053,-0.00058,2,20
8339,2e-05,6e-05,0.00011,0.00081,0.00072,0.00057,0.00053,-0.00058,2,20
8340,2e-05,6e-05,0.00011,0.00081,0.00072,0.00057,0.00053,-0.00058,2,20
8341,2e-05,6e-05,0.00011,0.00081,0.00072,0.00057,0.00053,-0.00058,2,20
8342,2e-05,6e-05,0.00011,0.00081,0.00072,0.00057,0.00053,-0.00058,2,20
8343,2e-05,6e-05,0.00011,0.00081,0.00072,0.00057,0.00053,-0.00058,2,20
8344,2e-05,6e-05,0.00011,0.00081,0.00072,0.00057,0.00053,-0.00058,2,20
8345,2e-05,6e-05,0.00011,0.00081,0.00072,0.00057,0.00053,-0.00058,2,20
8346,2e-05,6e-05,0.00011,0.00081,0.00072,0.00057,0.00053,-0.00058,2,20
8347,2e-05,6e-05,0.00011,0.00081,0.00072,0.00057,0.00053,-0.00058,2,20
8348,2e-05,6e-05,0.00011,0.00081,0.00072,0.00057,0.00053,-0.00058,2,20
8349,2e-05,6e-05,0.00011,0.00081,0.00072,0.00057,0.00053,-0.00058,2,20
8350,2e-05,6e-05,0.00011,0.00081,0.00072,0.00057,0.00053,-0.00058,2,20
8351,2e-05,6e-05,0.00011,0.00081,0.00072,0.00057,0.00053,-0.00058,2,20
8352,2e-05,6e-05,0.00011,0.00081,0.00072,0.00057,0.00053,-0.00058,2,20
8353,2e-05,6e-05,0.00011,0.00081,0.00072,0.00057,0.00053,-0.00058,2,20
8354,-0.0002,0.0001,0.00029,0.00047,-9e-05,-0.00022,0.00059,0.00031,2,20
8355,-0.0002,0.0001,0.00029,0.00047,-9e-05,-0.00022,0.00059,0.00031,2,20
8356,-0.0002,0.0001,0.00029,0.00047,-9e-05,-0.00022,0.00059,0.00031,2,20
8357,-0.0002,0.0001,0.00029,0.00047,-9e-05,-0.00022,0.00059,0.00031,2,20
8358,-0.0002,0.0001,0.00029,0.00047,-9e-05,-0.00022,0.00059,0.00031,2,20
8359,-0.0002,0.0001,0.00029,0.00047,-9e-05,-0.00022,0.00059,0.00031,2,20
8360,-0.0002,0.0001,0.00029,0.00047,-9e-05,-0.00022,0.00059,0.00031,2,20
8361,-0.0002,0.0001,0.00029,0.00047,-9e-05,-0.00022,0.00059,0.00031,2,20
8362,-0.0002,0.0001,0.00029,0.00047,-9e-05,-0.00022,0.00059,0.00031,2,20
8364,0,0.00021,0.00036,0.0008,-7e-05,-0.00043,-0.00039,-0.00094,2,20
8365,0,0.00021,0.00036,0.0008,-7e-05,-0.00043,-0.00039,-0.00094,2,20
8366,0,0.00021,0.00036,0.0008,-7e-05,-0.00043,-0.00039,-0.00094,2,20
8367,0,0.00021,0.00036,0.0008,-7e-05,-0.00043,-0.00039,-0.00094,2,20
8368,0,0.00021,0.00036,0.0008,-7e-05,-0.00043,-0.00039,-0.00094,2,20
8369,0,0.00021,0.00036,0.0008,-7e-05,-0.00043,-0.00039,-0.00094,2,20
8370,0,0.00021,0.00036,0.0008,-7e-05,-0.00043,-0.00039,-0.00094,2,20
8371,0,0.00021,0.00036,0.0008,-7e-05,-0.00043,-0.00039,-0.00094,2,20
8372,0,0.00021,0.00036,0.0008,-7e-05,-0.00043,-0.00039,-0.00094,2,20
8373,0,0.00021,0.00036,0.0008,-7e-05,-0.00043,-0.00039,-0.00094,2,20
8374,0,0.00021,0.00036,0.0008,-7e-05,-0.00043,-0.00039,-0.00094,2,20
8375,0,0.00021,0.00036,0.0008,-7e-05,-0.00043,-0.00039,-0.00094,2,20
8376,0,0.00021,0.00036,0.0008,-7e-05,-0.00043,-0.00039,-0.00094,2,20
8377,0,0.00021,0.00036,0.0008,-7e-05,-0.00043,-0.00039,-0.00094,2,20
8378,0,0.00021,0.00036,0.0008,-7e-05,-0.00043,-0.00039,-0.00094,2,20
8379,0,0.00021,0.00036,0.0008,-7e-05,-0.00043,-0.00039,-0.00094,2,20
8380,0,0.00021,0.00036,0.0008,-7e-05,-0.00043,-0.00039,-0.00094,2,20
8381,0,0.00021,0.00036,0.0008,-7e-05,-0.00043,-0.00039,-0.00094,2,20
8382,0,0.00021,0.00036,0.0008,-7e-05,-0.00043,-0.00039,-0.00094,2,20
8383,0,0.00021,0.00036,0.0008,-7e-05,-0.00043,-0.00039,-0.00094,2,20
8384,0,0.00021,0.00036,0.0008,-7e-05,-0.00043,-0.00039,-0.00094,2,20
8385,0,0.00021,0.00036,0.0008,-7e-05,-0.00043,-0.00039,-0.00094,2,20
8387,0.00013,4e-05,0.00026,0.0005,5e-05,8e-05,-0.00016,-0.00033,2,20
8390,0.00027,-0.00016,-2e-05,0.00049,3e-05,-0.00031,0.00095,0.0003,2,20
8391,0.00027,-0.00016,-2e-05,0.00049,3e-05,-0.00031,0.00095,0.0003,2,20
8392,0.00027,-0.00016,-2e-05,0.00049,3e-05,-0.00031,0.00095,0.0003,2,20
8393,0.00027,-0.00016,-2e-05,0.00049,3e-05,-0.00031,0.00095,0.0003,2,20
8394,0.00027,-0.00016,-2e-05,0.00049,3e-05,-0.00031,0.00095,0.0003,2,20
8395,0.00027,-0.00016,-2e-05,0.00049,3e-05,-0.00031,0.00095,0.0003,2,20
8396,0.00027,-0.00016,-2e-05,0.00049,3e-05,-0.00031,0.00095,0.0003,2,20
8397,0.00027,-0.00016,-2e-05,0.00049,3e-05,-0.00031,0.00095,0.0003,2,20
8398,0.00027,-0.00016,-2e-05,0.00049,3e-05,-0.00031,0.00095,0.0003,2,20
8399,0.00027,-0.00016,-2e-05,0.00049,3e-05,-0.00031,0.00095,0.0003,2,20
8400,0.00027,-0.00016,-2e-05,0.00049,3e-05,-0.00031,0.00095,0.0003,2,20
8401,0.00027,-0.00016,-2e-05,0.00049,3e-05,-0.00031,0.00095,0.0003,2,20
8402,0.00027,-0.00016,-2e-05,0.00049,3e-05,-0.00031,0.00095,0.0003,2,20
8403,0.00027,-0.00016,-2e-05,0.00049,3e-05,-0.00031,0.00095,0.0003,2,20
8404,0.00027,-0.00016,-2e-05,0.00049,3e-05,-0.00031,0.00095,0.0003,2,20
8405,0.00027,-0.00016,-2e-05,0.00049,3e-05,-0.00031,0.00095,0.0003,2,20
8406,0.00027,-0.00016,-2e-05,0.00049,3e-05,-0.00031,0.00095,0.0003,2,20
8407,0.00027,-0.00016,-2e-05,0.00049,3e-05,-0.00031,0.00095,0.0003,2,20
8408,0.00027,-0.00016,-2e-05,0.00049,3e-05,-0.00031,0.00095,0.0003,2,20
8409,-5e-05,-0.00029,-0.00083,-0.00101,-0.00022,-0.0002,-0.00054,0.00121,2,20
8410,-0.00042,-0.00015,-0.00042,-0.00037,0.00053,0.00011,-0.0009,-0.00119,2,20
8411,-0.00042,-0.00015,-0.00042,-0.00037,0.00053,0.00011,-0.0009,-0.00119,2,20
8412,-0.00042,-0.00015,-0.00042,-0.00037,0.00053,0.00011,-0.0009,-0.00119,2,20
8413,-0.00042,-0.00015,-0.00042,-0.00037,0.00053,0.00011,-0.0009,-0.00119,2,20
8414,-0.00042,-0.00015,-0.00042,-0.00037,0.00053,0.00011,-0.0009,-0.00119,2,20
8415,-0.00042,-0.00015,-0.00042,-0.00037,0.00053,0.00011,-0.0009,-0.00119,2,20
8416,-0.00042,-0.00015,-0.00042,-0.00037,0.00053,0.00011,-0.0009,-0.00119,2,20
8417,-0.00042,-0.00015,-0.00042,-0.00037,0.00053,0.00011,-0.0009,-0.00119,2,20
8418,-0.00042,-0.00015,-0.00042,-0.00037,0.00053,0.00011,-0.0009,-0.00119,2,20
8419,-0.00042,-0.00015,-0.00042,-0.00037,0.00053,0.00011,-0.0009,-0.00119,2,20
8420,-0.00042,-0.00015,-0.00042,-0.00037,0.00053,0.00011,-0.0009,-0.00119,2,20
8421,-0.00042,-0.00015,-0.00042,-0.00037,0.00053,0.00011,-0.0009,-0.00119,2,20
8422,-0.00042,-0.00015,-0.00042,-0.00037,0.00053,0.00011,-0.0009,-0.00119,2,20
8423,-0.00042,-0.00015,-0.00042,-0.00037,0.00053,0.00011,-0.0009,-0.00119,2,20
8424,-0.00042,-0.00015,-0.00042,-0.00037,0.00053,0.00011,-0.0009,-0.00119,2,20
8425,-0.00042,-0.00015,-0.00042,-0.00037,0.00053,0.00011,-0.0009,-0.00119,2,20
8426,-0.00042,-0.00015,-0.00042,-0.00037,0.00053,0.00011,-0.0009,-0.00119,2,20
8427,-0.00042,-0.00015,-0.00042,-0.00037,0.00053,0.00011,-0.0009,-0.00119,2,20
8428,-0.00042,-0.00015,-0.00042,-0.00037,0.00053,0.00011,-0.0009,-0.00119,2,20
8429,-0.00042,-0.00015,-0.00042,-0.00037,0.00053,0.00011,-0.0009,-0.00119,2,20
8430,4e-05,9e-05,0.00038,0.00073,0.00067,0.00011,0.00084,0.00108,2,20
8431,4e-05,9e-05,0.00038,0.00073,0.00067,0.00011,0.00084,0.00108,2,20
8432,4e-05,9e-05,0.00038,0.00073,0.00067,0.00011,0.00084,0.00108,2,20
8433,4e-05,9e-05,0.00038,0.00073,0.00067,0.00011,0.00084,0.00108,2,20
8434,4e-05,9e-05,0.00038,0.00073,0.00067,0.00011,0.00084,0.00108,2,20
8435,4e-05,9e-05,0.00038,0.00073,0.00067,0.00011,0.00084,0.00108,2,20
8436,4e-05,9e-05,0.00038,0.00073,0.00067,0.00011,0.00084,0.00108,2,20
8439,-0.00019,-0.00035,-0.00082,-0.00048,-0.00055,-0.00039,-0.00019,-0.00072,2,20
8440,-0.00019,-0.00035,-0.00082,-0.00048,-0.00055,-0.00039,-0.00019,-0.00072,2,20
8441,-0.00019,-0.00035,-0.00082,-0.00048,-0.00055,-0.00039,-0.00019,-0.00072,2,20
8442,-0.00019,-0.00035,-0.00082,-0.00048,-0.00055,-0.00039,-0.00019,-0.00072,2,20
8443,-0.00019,-0.00035,-0.00082,-0.00048,-0.00055,-0.00039,-0.00019,-0.00072,2,20
8444,-0.00019,-0.00035,-0.00082,-0.00048,-0.00055,-0.00039,-0.00019,-0.00072,2,20
8445,-0.00019,-0.00035,-0.00082,-0.00048,-0.00055,-0.00039,-0.00019,-0.00072,2,20
8446,-0.00019,-0.00035,-0.00082,-0.00048,-0.00055,-0.00039,-0.00019,-0.00072,2,20
8447,-0.00019,-0.00035,-0.00082,-0.00048,-0.00055,-0.00039,-0.00019,-0.00072,2,20
8448,-0.00019,-0.00035,-0.00082,-0.00048,-0.00055,-0.00039,-0.00019,-0.00072,2,20
8449,-0.00019,-0.00035,-0.00082,-0.00048,-0.00055,-0.00039,-0.00019,-0.00072,2,20
8450,-0.00019,-0.00035,-0.00082,-0.00048,-0.00055,-0.00039,-0.00019,-0.00072,2,20
8451,-0.00019,-0.00035,-0.00082,-0.00048,-0.00055,-0.00039,-0.00019,-0.00072,2,20
8452,-0.00019,-0.00035,-0.00082,-0.00048,-0.00055,-0.00039,-0.00019,-0.00072,2,20
8453,-0.00019,-0.00035,-0.00082,-0.00048,-0.00055,-0.00039,-0.00019,-0.00072,2,20
8454,-0.00019,-0.00035,-0.00082,-0.00048,-0.00055,-0.00039,-0.00019,-0.00072,2,20
8455,-0.00019,-0.00035,-0.00082,-0.00048,-0.00055,-0.00039,-0.00019,-0.00072,2,20
8456,-0.00019,-0.00035,-0.00082,-0.00048,-0.00055,-0.00039,-0.00019,-0.00072,2,20
8457,-0.00019,-0.00035,-0.00082,-0.00048,-0.00055,-0.00039,-0.00019,-0.00072,2,20
8458,-0.00019,-0.00035,-0.00082,-0.00048,-0.00055,-0.00039,-0.00019,-0.00072,2,20
8459,-0.00019,-0.00035,-0.00082,-0.00048,-0.00055,-0.00039,-0.00019,-0.00072,2,20
8460,-0.00019,-0.00035,-0.00082,-0.00048,-0.00055,-0.00039,-0.00019,-0.00072,2,20
8461,-6e-05,-2e-05,0.00024,0.0008,-0.00061,0.00074,-0.0006,0.00032,2,20
8462,-0.00017,0.00016,0.00041,0.0007,0.00035,0.00068,-0.00041,-0.00065,2,20
8463,-0.00013,0,-3e-05,0.00015,0.00021,-0.00045,-4e-05,-4e-05,2,20
8464,-0.00013,0,-3e-05,0.00015,0.00021,-0.00045,-4e-05,-4e-05,2,20
8465,-0.00013,0,-3e-05,0.00015,0.00021,-0.00045,-4e-05,-4e-05,2,20
8466,-0.00013,0,-3e-05,0.00015,0.00021,-0.00045,-4e-05,-4e-05,2,20
8467,-0.00013,0,-3e-05,0.00015,0.00021,-0.00045,-4e-05,-4e-05,2,20
8468,-0.00013,0,-3e-05,0.00015,0.00021,-0.00045,-4e-05,-4e-05,2,20
8469,-0.00013,0,-3e-05,0.00015,0.00021,-0.00045,-4e-05,-4e-05,2,20
8470,-0.00013,0,-3e-05,0.00015,0.00021,-0.00045,-4e-05,-4e-05,2,20
8471,-0.00013,0,-3e-05,0.00015,0.00021,-0.00045,-4e-05,-4e-05,2,20
8472,-0.00013,0,-3e-05,0.00015,0.00021,-0.00045,-4e-05,-4e-05,2,20
8473,-0.00013,0,-3e-05,0.00015,0.00021,-0.00045,-4e-05,-4e-05,2,20
8474,-0.00013,0,-3e-05,0.00015,0.00021,-0.00045,-4e-05,-4e-05,2,20
8475,-0.00013,0,-3e-05,0.00015,0.00021,-0.00045,-4e-05,-4e-05,2,20
8476,-0.00013,0,-3e-05,0.00015,0.00021,-0.00045,-4e-05,-4e-05,2,20
8477,-0.00013,0,-3e-05,0.00015,0.00021,-0.00045,-4e-05,-4e-05,2,20
8478,-0.00013,0,-3e-05,0.00015,0.00021,-0.00045,-4e-05,-4e-05,2,20
8479,-0.00013,0,-3e-05,0.00015,0.00021,-0.00045,-4e-05,-4e-05,2,20
8480,-0.00013,0,-3e-05,0.00015,0.00021,-0.00045,-4e-05,-4e-05,2,20
8481,-0.00013,0,-3e-05,0.00015,0.00021,-0.00045,-4e-05,-4e-05,2,20
8482,-0.00013,0,-3e-05,0.00015,0.00021,-0.00045,-4e-05,-4e-05,2,20
8483,-0.00013,0,-3e-05,0.00015,0.00021,-0.00045,-4e-05,-4e-05,2,20
8484,-0.00013,0,-3e-05,0.00015,0.00021,-0.00045,-4e-05,-4e-05,2,20
8485,0.00027,-2e-05,-0.00033,-0.00128,-0.00017,0.00028,6e-05,2e-05,2,20
8486,0.00027,-2e-05,-0.00033,-0.00128,-0.00017,0.00028,6e-05,2e-05,2,20
8489,-0.00045,-0.00016,-0.00013,-0.00078,-0.00022,-0.00065,-0.00053,-0.00072,2,20
8490,-0.00045,-0.00016,-0.00013,-0.00078,-0.00022,-0.00065,-0.00053,-0.00072,2,20
8491,-0.00045,-0.00016,-0.00013,-0.00078,-0.00022,-0.00065,-0.00053,-0.00072,2,20
8492,-0.00045,-0.00016,-0.00013,-0.00078,-0.00022,-0.00065,-0.00053,-0.00072,2,20
8493,-0.00045,-0.00016,-0.00013,-0.00078,-0.00022,-0.00065,-0.00053,-0.00072,2,20
8494,-0.00045,-0.00016,-0.00013,-0.00078,-0.00022,-0.00065,-0.00053,-0.00072,2,20
8495,-0.00045,-0.00016,-0.00013,-0.00078,-0.00022,-0.00065,-0.00053,-0.00072,2,20
8496,-0.00045,-0.00016,-0.00013,-0.00078,-0.00022,-0.00065,-0.00053,-0.00072,2,20
8497,-0.00045,-0.00016,-0.00013,-0.00078,-0.00022,-0.00065,-0.00053,-0.00072,2,20
8498,-0.00045,-0.00016,-0.00013,-0.00078,-0.00022,-0.00065,-0.00053,-0.00072,2,20
8499,-0.00045,-0.00016,-0.00013,-0.00078,-0.00022,-0.00065,-0.00053,-0.00072,2,20
8500,-0.00045,-0.00016,-0.00013,-0.00078,-0.00022,-0.00065,-0.00053,-0.00072,2,20
8501,-0.00045,-0.00016,-0.00013,-0.00078,-0.00022,-0.00065,-0.00053,-0.00072,2,20
8502,-0.00045,-0.00016,-0.00013,-0.00078,-0.00022,-0.00065,-0.00053,-0.00072,2,20
8503,-0.00045,-0.00016,-0.00013,-0.00078,-0.00022,-0.00065,-0.00053,-0.00072,2,20
8504,-0.00045,-0.00016,-0.00013,-0.00078,-0.00022,-0.00065,-0.00053,-0.00072,2,20
8505,-7e-05,-2e-05,0.00012,0.00059,-0.00018,-6e-05,0.00018,0.00064,2,20
8506,-7e-05,-2e-05,0.00012,0.00059,-0.00018,-6e-05,0.00018,0.00064,2,20
8507,-7e-05,-2e-05,0.00012,0.00059,-0.00018,-6e-05,0.00018,0.00064,2,20
8508,-7e-05,-2e-05,0.00012,0.00059,-0.00018,-6e-05,0.00018,0.00064,2,20
8509,-7e-05,-2e-05,0.00012,0.00059,-0.00018,-6e-05,0.00018,0.00064,2,20
8511,-7e-05,-2e-05,0.00012,0.00059,-0.00018,-6e-05,0.00018,0.00064,2,20
8512,-7e-05,-2e-05,0.00012,0.00059,-0.00018,-6e-05,0.00018,0.00064,2,20
8513,-7e-05,-2e-05,0.00012,0.00059,-0.00018,-6e-05,0.00018,0.00064,2,20
8514,0.00026,0.00033,0.00074,0.00058,0.00045,0.00081,0.00077,0.00126,2,20
8515,0.00026,0.00033,0.00074,0.00058,0.00045,0.00081,0.00077,0.00126,2,20
8516,0.00026,0.00033,0.00074,0.00058,0.00045,0.00081,0.00077,0.00126,2,20
8517,0.00026,0.00033,0.00074,0.00058,0.00045,0.00081,0.00077,0.00126,2,20
8518,0.00026,0.00033,0.00074,0.00058,0.00045,0.00081,0.00077,0.00126,2,20
8519,0.00026,0.00033,0.00074,0.00058,0.00045,0.00081,0.00077,0.00126,2,20
8520,0.00026,0.00033,0.00074,0.00058,0.00045,0.00081,0.00077,0.00126,2,20
8521,0.00026,0.00033,0.00074,0.00058,0.00045,0.00081,0.00077,0.00126,2,20
8522,0.00026,0.00033,0.00074,0.00058,0.00045,0.00081,0.00077,0.00126,2,20
8523,0.00026,0.00033,0.00074,0.00058,0.00045,0.00081,0.00077,0.00126,2,20
8524,0.00026,0.00033,0.00074,0.00058,0.00045,0.00081,0.00077,0.00126,2,20
8525,0.00026,0.00033,0.00074,0.00058,0.00045,0.00081,0.00077,0.00126,2,20
8526,0.00026,0.00033,0.00074,0.00058,0.00045,0.00081,0.00077,0.00126,2,20
8527,0.00026,0.00033,0.00074,0.00058,0.00045,0.00081,0.00077,0.00126,2,20
8528,0.00026,0.00033,0.00074,0.00058,0.00045,0.00081,0.00077,0.00126,2,20
8529,0.00026,0.00033,0.00074,0.00058,0.00045,0.00081,0.00077,0.00126,2,20
8530,0.00026,0.00033,0.00074,0.00058,0.00045,0.00081,0.00077,0.00126,2,20
8531,0.00026,0.00033,0.00074,0.00058,0.00045,0.00081,0.00077,0.00126,2,20
8532,0.00026,0.00033,0.00074,0.00058,0.00045,0.00081,0.00077,0.00126,2,20
8533,0.00026,0.00033,0.00074,0.00058,0.00045,0.00081,0.00077,0.00126,2,20
8534,0.00026,0.00033,0.00074,0.00058,0.00045,0.00081,0.00077,0.00126,2,20
8535,0.00026,0.00033,0.00074,0.00058,0.00045,0.00081,0.00077,0.00126,2,20
8537,0.00021,-8e-05,-0.00036,0.00025,-2e-05,8e-05,0.00025,0.00034,2,20
8540,0.00024,0.00021,0.00021,0,-9e-05,-3e-05,-0.00041,-0.00057,2,20
8541,0.00024,0.00021,0.00021,0,-9e-05,-3e-05,-0.00041,-0.00057,2,20
8542,0.00024,0.00021,0.00021,0,-9e-05,-3e-05,-0.00041,-0.00057,2,20
8543,0.00024,0.00021,0.00021,0,-9e-05,-3e-05,-0.00041,-0.00057,2,20
8544,0.00024,0.00021,0.00021,0,-9e-05,-3e-05,-0.00041,-0.00057,2,20
8545,0.00024,0.00021,0.00021,0,-9e-05,-3e-05,-0.00041,-0.00057,2,20
8546,0.00024,0.00021,0.00021,0,-9e-05,-3e-05,-0.00041,-0.00057,2,20
8547,0.00024,0.00021,0.00021,0,-9e-05,-3e-05,-0.00041,-0.00057,2,20
8548,0.00024,0.00021,0.00021,0,-9e-05,-3e-05,-0.00041,-0.00057,2,20
8549,0.00024,0.00021,0.00021,0,-9e-05,-3e-05,-0.00041,-0.00057,2,20
8550,0.00024,0.00021,0.00021,0,-9e-05,-3e-05,-0.00041,-0.00057,2,20
8551,0.00024,0.00021,0.00021,0,-9e-05,-3e-05,-0.00041,-0.00057,2,20
8552,0.00024,0.00021,0.00021,0,-9e-05,-3e-05,-0.00041,-0.00057,2,20
8553,0.00024,0.00021,0.00021,0,-9e-05,-3e-05,-0.00041,-0.00057,2,20
8554,0.00024,0.00021,0.00021,0,-9e-05,-3e-05,-0.00041,-0.00057,2,20
8555,0.00024,0.00021,0.00021,0,-9e-05,-3e-05,-0.00041,-0.00057,2,20
8556,0.00024,0.00021,0.00021,0,-9e-05,-3e-05,-0.00041,-0.00057,2,20
8557,0.00024,0.00021,0.00021,0,-9e-05,-3e-05,-0.00041,-0.00057,2,20
8558,0.00024,0.00021,0.00021,0,-9e-05,-3e-05,-0.00041,-0.00057,2,20
8559,-6e-05,-0.00011,-0.00021,-0.00093,0.00047,0.00093,-0.00046,0.00047,2,20
8560,-0.0005,-0.00014,-8e-05,-0.00012,-0.00032,0.00016,0.00015,-0.00033,2,20
8561,0.00025,9e-05,0.0004,0.00013,7e-05,-0.00041,-0.00042,0.00056,2,20
8562,0.00025,9e-05,0.0004,0.00013,7e-05,-0.00041,-0.00042,0.00056,2,20
8563,0.00025,9e-05,0.0004,0.00013,7e-05,-0.00041,-0.00042,0.00056,2,20
8564,0.00025,9e-05,0.0004,0.00013,7e-05,-0.00041,-0.00042,0.00056,2,20
8565,0.00025,9e-05,0.0004,0.00013,7e-05,-0.00041,-0.00042,0.00056,2,20
8566,0.00025,9e-05,0.0004,0.00013,7e-05,-0.00041,-0.00042,0.00056,2,20
8567,0.00025,9e-05,0.0004,0.00013,7e-05,-0.00041,-0.00042,0.00056,2,20
8568,0.00025,9e-05,0.0004,0.00013,7e-05,-0.00041,-0.00042,0.00056,2,20
8569,0.00025,9e-05,0.0004,0.00013,7e-05,-0.00041,-0.00042,0.00056,2,20
8570,0.00025,9e-05,0.0004,0.00013,7e-05,-0.00041,-0.00042,0.00056,2,20
8571,0.00025,9e-05,0.0004,0.00013,7e-05,-0.00041,-0.00042,0.00056,2,20
8572,0.00025,9e-05,0.0004,0.00013,7e-05,-0.00041,-0.00042,0.00056,2,20
8573,0.00025,9e-05,0.0004,0.00013,7e-05,-0.00041,-0.00042,0.00056,2,20
8574,0.00025,9e-05,0.0004,0.00013,7e-05,-0.00041,-0.00042,0.00056,2,20
8575,0.00025,9e-05,0.0004,0.00013,7e-05,-0.00041,-0.00042,0.00056,2,20
8576,0.00025,9e-05,0.0004,0.00013,7e-05,-0.00041,-0.00042,0.00056,2,20
8577,0.00025,9e-05,0.0004,0.00013,7e-05,-0.00041,-0.00042,0.00056,2,20
8578,0.00025,9e-05,0.0004,0.00013,7e-05,-0.00041,-0.00042,0.00056,2,20
8579,0.00025,9e-05,0.0004,0.00013,7e-05,-0.00041,-0.00042,0.00056,2,20
8580,0.00025,9e-05,0.0004,0.00013,7e-05,-0.00041,-0.00042,0.00056,2,20
8581,0.00019,0.0002,0.00026,0.00056,-0.00013,-0.00088,-0.00034,-0.00109,2,20
8582,0.00019,0.0002,0.00026,0.00056,-0.00013,-0.00088,-0.00034,-0.00109,2,20
8583,0.00019,0.0002,0.00026,0.00056,-0.00013,-0.00088,-0.00034,-0.00109,2,20
8584,0.00019,0.0002,0.00026,0.00056,-0.00013,-0.00088,-0.00034,-0.00109,2,20
8585,0.00019,0.0002,0.00026,0.00056,-0.00013,-0.00088,-0.00034,-0.00109,2,20
8587,0.00019,0.0002,0.00026,0.00056,-0.00013,-0.00088,-0.00034,-0.00109,2,20
8590,-0.00016,1e-05,-0.00018,0.00033,0.00038,0.00034,-0.00028,-0.00096,2,20
8591,-0.00016,1e-05,-0.00018,0.00033,0.00038,0.00034,-0.00028,-0.00096,2,20
8592,-0.00016,1e-05,-0.00018,0.00033,0.00038,0.00034,-0.00028,-0.00096,2,20
8593,-0.00016,1e-05,-0.00018,0.00033,0.00038,0.00034,-0.00028,-0.00096,2,20
8594,-0.00016,1e-05,-0.00018,0.00033,0.00038,0.00034,-0.00028,-0.00096,2,20
8595,-0.00016,1e-05,-0.00018,0.00033,0.00038,0.00034,-0.00028,-0.00096,2,20
8596,-0.00016,1e-05,-0.00018,0.00033,0.00038,0.00034,-0.00028,-0.00096,2,20
8597,-0.00016,1e-05,-0.00018,0.00033,0.00038,0.00034,-0.00028,-0.00096,2,20
8598,-0.00016,1e-05,-0.00018,0.00033,0.00038,0.00034,-0.00028,-0.00096,2,20
8599,-0.00016,1e-05,-0.00018,0.00033,0.00038,0.00034,-0.00028,-0.00096,2,20
8600,-0.00016,1e-05,-0.00018,0.00033,0.00038,0.00034,-0.00028,-0.00096,2,20
8601,-0.00016,1e-05,-0.00018,0.00033,0.00038,0.00034,-0.00028,-0.00096,2,20
8602,-0.00016,1e-05,-0.00018,0.00033,0.00038,0.00034,-0.00028,-0.00096,2,20
8603,-0.00016,1e-05,-0.00018,0.00033,0.00038,0.00034,-0.00028,-0.00096,2,20
8604,-0.00016,1e-05,-0.00018,0.00033,0.00038,0.00034,-0.00028,-0.00096,2,20
8605,-0.00016,1e-05,-0.00018,0.00033,0.00038,0.00034,-0.00028,-0.00096,2,20
8606,-0.00016,1e-05,-0.00018,0.00033,0.00038,0.00034,-0.00028,-0.00096,2,20
8607,-0.00016,1e-05,-0.00018,0.00033,0.00038,0.00034,-0.00028,-0.00096,2,20
8608,-0.00016,1e-05,-0.00018,0.00033,0.00038,0.00034,-0.00028,-0.00096,2,20
8609,-0.00016,1e-05,-0.00018,0.00033,0.00038,0.00034,-0.00028,-0.00096,2,20
8610,-0.00016,1e-05,-0.00018,0.00033,0.00038,0.00034,-0.00028,-0.00096,2,20
8611,0,7e-05,0.00067,0.00053,-0.00029,-0.00022,9e-05,0.00048,2,20
8612,-1e-05,-0.00011,-0.00049,-0.00102,-0.0003,-5e-05,0.00086,0.00063,2,20
8613,0.00023,-5e-05,-0.00037,-7e-05,3e-05,-0.00066,-0.00022,0.00048,2,20
8614,0.00023,-5e-05,-0.00037,-7e-05,3e-05,-0.00066,-0.00022,0.00048,2,20
8615,0.00023,-5e-05,-0.00037,-7e-05,3e-05,-0.00066,-0.00022,0.00048,2,20
8616,0.00023,-5e-05,-0.00037,-7e-05,3e-05,-0.00066,-0.00022,0.00048,2,20
8617,0.00023,-5e-05,-0.00037,-7e-05,3e-05,-0.00066,-0.00022,0.00048,2,20
8618,0.00023,-5e-05,-0.00037,-7e-05,3e-05,-0.00066,-0.00022,0.00048,2,20
8619,0.00023,-5e-05,-0.00037,-7e-05,3e-05,-0.00066,-0.00022,0.00048,2,20
8620,0.00023,-5e-05,-0.00037,-7e-05,3e-05,-0.00066,-0.00022,0.00048,2,20
8621,0.00023,-5e-05,-0.00037,-7e-05,3e-05,-0.00066,-0.00022,0.00048,2,20
8622,0.00023,-5e-05,-0.00037,-7e-05,3e-05,-0.00066,-0.00022,0.00048,2,20
8623,0.00023,-5e-05,-0.00037,-7e-05,3e-05,-0.00066,-0.00022,0.00048,2,20
8624,0.00023,-5e-05,-0.00037,-7e-05,3e-05,-0.00066,-0.00022,0.00048,2,20
8625,0.00023,-5e-05,-0.00037,-7e-05,3e-05,-0.00066,-0.00022,0.00048,2,20
8626,0.00023,-5e-05,-0.00037,-7e-05,3e-05,-0.00066,-0.00022,0.00048,2,20
8627,0.00023,-5e-05,-0.00037,-7e-05,3e-05,-0.00066,-0.00022,0.00048,2,20
8628,0.00023,-5e-05,-0.00037,-7e-05,3e-05,-0.00066,-0.00022,0.00048,2,20
8629,0.00023,-5e-05,-0.00037,-7e-05,3e-05,-0.00066,-0.00022,0.00048,2,20
8630,0.00023,-5e-05,-0.00037,-7e-05,3e-05,-0.00066,-0.00022,0.00048,2,20
8631,0.00023,-5e-05,-0.00037,-7e-05,3e-05,-0.00066,-0.00022,0.00048,2,20
8632,0.00023,-5e-05,-0.00037,-7e-05,3e-05,-0.00066,-0.00022,0.00048,2,20
8633,0.00023,-5e-05,-0.00037,-7e-05,3e-05,-0.00066,-0.00022,0.00048,2,20
8634,-7e-05,-9e-05,2e-05,-0.00016,-3e-05,0.00039,-9e-05,-0.0002,2,20
8635,6e-05,6e-05,3e-05,-0.00061,-4e-05,0.00037,-0.00039,-7e-05,2,20
8636,-0.00045,-0.00033,-0.00026,-0.00056,-0.00041,-0.00042,-0.00048,0.00067,2,20
8638,-0.00045,-0.00033,-0.00026,-0.00056,-0.00041,-0.00042,-0.00048,0.00067,2,20
8640,-0.00045,-0.00033,-0.00026,-0.00056,-0.00041,-0.00042,-0.00048,0.00067,2,20
8641,-0.00045,-0.00033,-0.00026,-0.00056,-0.00041,-0.00042,-0.00048,0.00067,2,20
8642,-0.00045,-0.00033,-0.00026,-0.00056,-0.00041,-0.00042,-0.00048,0.00067,2,20
8643,-0.00045,-0.00033,-0.00026,-0.00056,-0.00041,-0.00042,-0.00048,0.00067,2,20
8644,-0.00045,-0.00033,-0.00026,-0.00056,-0.00041,-0.00042,-0.00048,0.00067,2,20
8645,-0.00045,-0.00033,-0.00026,-0.00056,-0.00041,-0.00042,-0.00048,0.00067,2,20
8646,-0.00045,-0.00033,-0.00026,-0.00056,-0.00041,-0.00042,-0.00048,0.00067,2,20
8647,-0.00045,-0.00033,-0.00026,-0.00056,-0.00041,-0.00042,-0.00048,0.00067,2,20
8648,-0.00045,-0.00033,-0.00026,-0.00056,-0.00041,-0.00042,-0.00048,0.00067,2,20
8649,-0.00045,-0.00033,-0.00026,-0.00056,-0.00041,-0.00042,-0.00048,0.00067,2,20
8650,-0.00045,-0.00033,-0.00026,-0.00056,-0.00041,-0.00042,-0.00048,0.00067,2,20
8651,-0.00045,-0.00033,-0.00026,-0.00056,-0.00041,-0.00042,-0.00048,0.00067,2,20
8652,-0.00045,-0.00033,-0.00026,-0.00056,-0.00041,-0.00042,-0.00048,0.00067,2,20
8653,-0.00045,-0.00033,-0.00026,-0.00056,-0.00041,-0.00042,-0.00048,0.00067,2,20
8654,-0.00045,-0.00033,-0.00026,-0.00056,-0.00041,-0.00042,-0.00048,0.00067,2,20
8655,-0.00026,-0.00018,0.00022,0.00113,-7e-05,0,-0.00027,0.0006,2,20
8656,-0.00026,-0.00018,0.00022,0.00113,-7e-05,0,-0.00027,0.0006,2,20
8657,-0.00026,-0.00018,0.00022,0.00113,-7e-05,0,-0.00027,0.0006,2,20
8658,-0.00026,-0.00018,0.00022,0.00113,-7e-05,0,-0.00027,0.0006,2,20
8659,-0.00026,-0.00018,0.00022,0.00113,-7e-05,0,-0.00027,0.0006,2,20
8660,-0.00026,-0.00018,0.00022,0.00113,-7e-05,0,-0.00027,0.0006,2,20
8661,-0.00026,-0.00018,0.00022,0.00113,-7e-05,0,-0.00027,0.0006,2,20
8662,-0.00026,-0.00018,0.00022,0.00113,-7e-05,0,-0.00027,0.0006,2,20
8663,-0.00026,-0.00018,0.00022,0.00113,-7e-05,0,-0.00027,0.0006,2,20
8664,6e-05,0.00017,0.00043,0.00127,0.00029,0.00066,0.00032,0.00123,2,20
8665,6e-05,0.00017,0.00043,0.00127,0.00029,0.00066,0.00032,0.00123,2,20
8666,6e-05,0.00017,0.00043,0.00127,0.00029,0.00066,0.00032,0.00123,2,20
8667,6e-05,0.00017,0.00043,0.00127,0.00029,0.00066,0.00032,0.00123,2,20
8668,6e-05,0.00017,0.00043,0.00127,0.00029,0.00066,0.00032,0.00123,2,20
8669,6e-05,0.00017,0.00043,0.00127,0.00029,0.00066,0.00032,0.00123,2,20
8670,6e-05,0.00017,0.00043,0.00127,0.00029,0.00066,0.00032,0.00123,2,20
8671,6e-05,0.00017,0.00043,0.00127,0.00029,0.00066,0.00032,0.00123,2,20
8672,6e-05,0.00017,0.00043,0.00127,0.00029,0.00066,0.00032,0.00123,2,20
8673,6e-05,0.00017,0.00043,0.00127,0.00029,0.00066,0.00032,0.00123,2,20
8674,6e-05,0.00017,0.00043,0.00127,0.00029,0.00066,0.00032,0.00123,2,20
8675,6e-05,0.00017,0.00043,0.00127,0.00029,0.00066,0.00032,0.00123,2,20
8676,6e-05,0.00017,0.00043,0.00127,0.00029,0.00066,0.00032,0.00123,2,20
8677,6e-05,0.00017,0.00043,0.00127,0.00029,0.00066,0.00032,0.00123,2,20
8678,6e-05,0.00017,0.00043,0.00127,0.00029,0.00066,0.00032,0.00123,2,20
8679,6e-05,0.00017,0.00043,0.00127,0.00029,0.00066,0.00032,0.00123,2,20
8680,6e-05,0.00017,0.00043,0.00127,0.00029,0.00066,0.00032,0.00123,2,20
8681,6e-05,0.00017,0.00043,0.00127,0.00029,0.00066,0.00032,0.00123,2,20
8682,6e-05,0.00017,0.00043,0.00127,0.00029,0.00066,0.00032,0.00123,2,20
8683,6e-05,0.00017,0.00043,0.00127,0.00029,0.00066,0.00032,0.00123,2,20
8684,6e-05,0.00017,0.00043,0.00127,0.00029,0.00066,0.00032,0.00123,2,20
8685,6e-05,0.00017,0.00043,0.00127,0.00029,0.00066,0.00032,0.00123,2,20
8686,6e-05,0.00017,0.00043,0.00127,0.00029,0.00066,0.00032,0.00123,2,20
8689,0.0001,5e-05,0.00035,-0.00034,-0.00031,2e-05,0.00026,0.00043,2,20
8690,0.0001,5e-05,0.00035,-0.00034,-0.00031,2e-05,0.00026,0.00043,2,20
8691,0.0001,5e-05,0.00035,-0.00034,-0.00031,2e-05,0.00026,0.00043,2,20
8692,0.0001,5e-05,0.00035,-0.00034,-0.00031,2e-05,0.00026,0.00043,2,20
8693,0.0001,5e-05,0.00035,-0.00034,-0.00031,2e-05,0.00026,0.00043,2,20
8694,0.0001,5e-05,0.00035,-0.00034,-0.00031,2e-05,0.00026,0.00043,2,20
8695,0.0001,5e-05,0.00035,-0.00034,-0.00031,2e-05,0.00026,0.00043,2,20
8696,0.0001,5e-05,0.00035,-0.00034,-0.00031,2e-05,0.00026,0.00043,2,20
8697,0.0001,5e-05,0.00035,-0.00034,-0.00031,2e-05,0.00026,0.00043,2,20
8698,0.0001,5e-05,0.00035,-0.00034,-0.00031,2e-05,0.00026,0.00043,2,20
8699,0.0001,5e-05,0.00035,-0.00034,-0.00031,2e-05,0.00026,0.00043,2,20
8700,0.0001,5e-05,0.00035,-0.00034,-0.00031,2e-05,0.00026,0.00043,2,20
8701,0.0001,5e-05,0.00035,-0.00034,-0.00031,2e-05,0.00026,0.00043,2,20
8702,0.0001,5e-05,0.00035,-0.00034,-0.00031,2e-05,0.00026,0.00043,2,20
8703,0.0001,5e-05,0.00035,-0.00034,-0.00031,2e-05,0.00026,0.00043,2,20
8704,0.0001,5e-05,0.00035,-0.00034,-0.00031,2e-05,0.00026,0.00043,2,20
8705,0.0001,5e-05,0.00035,-0.00034,-0.00031,2e-05,0.00026,0.00043,2,20
8706,0.0001,5e-05,0.00035,-0.00034,-0.00031,2e-05,0.00026,0.00043,2,20
8707,0.0001,5e-05,0.00035,-0.00034,-0.00031,2e-05,0.00026,0.00043,2,20
8708,0.0001,5e-05,0.00035,-0.00034,-0.00031,2e-05,0.00026,0.00043,2,20
8709,0.00024,0.00027,0.00027,-0.00012,-0.00019,7e-05,3e-05,-0.00105,2,20
8710,-0.00016,-0.00013,-6e-05,0.00032,0.00018,-0.00018,-0.00049,0.00038,2,20
8711,0.00053,0.0003,0.00015,0.00023,0.0002,0.00062,0.00028,0.00052,2,20
8712,0.00053,0.0003,0.00015,0.00023,0.0002,0.00062,0.00028,0.00052,2,20
8713,0.00053,0.0003,0.00015,0.00023,0.0002,0.00062,0.00028,0.00052,2,20
8714,0.00053,0.0003,0.00015,0.00023,0.0002,0.00062,0.00028,0.00052,2,20
8715,0.00053,0.0003,0.00015,0.00023,0.0002,0.00062,0.00028,0.00052,2,20
8716,0.00053,0.0003,0.00015,0.00023,0.0002,0.00062,0.00028,0.00052,2,20
8717,0.00053,0.0003,0.00015,0.00023,0.0002,0.00062,0.00028,0.00052,2,20
8718,0.00053,0.0003,0.00015,0.00023,0.0002,0.00062,0.00028,0.00052,2,20
8719,0.00053,0.0003,0.00015,0.00023,0.0002,0.00062,0.00028,0.00052,2,20
8720,0.00053,0.0003,0.00015,0.00023,0.0002,0.00062,0.00028,0.00052,2,20
8721,0.00053,0.0003,0.00015,0.00023,0.0002,0.00062,0.00028,0.00052,2,20
8722,0.00053,0.0003,0.00015,0.00023,0.0002,0.00062,0.00028,0.00052,2,20
8723,0.00053,0.0003,0.00015,0.00023,0.0002,0.00062,0.00028,0.00052,2,20
8724,0.00053,0.0003,0.00015,0.00023,0.0002,0.00062,0.00028,0.00052,2,20
8725,0.00053,0.0003,0.00015,0.00023,0.0002,0.00062,0.00028,0.00052,2,20
8726,0.00053,0.0003,0.00015,0.00023,0.0002,0.00062,0.00028,0.00052,2,20
8727,0.00053,0.0003,0.00015,0.00023,0.0002,0.00062,0.00028,0.00052,2,20
8728,0.00053,0.0003,0.00015,0.00023,0.0002,0.00062,0.00028,0.00052,2,20
8729,0.00053,0.0003,0.00015,0.00023,0.0002,0.00062,0.00028,0.00052,2,20
8730,0.00053,0.0003,0.00015,0.00023,0.0002,0.00062,0.00028,0.00052,2,20
8731,0.00019,0.00017,0.00048,0.00088,-9e-05,-0.00018,0.00011,0.00047,2,20
8732,0.00019,0.00017,0.00048,0.00088,-9e-05,-0.00018,0.00011,0.00047,2,20
8733,0.00019,0.00017,0.00048,0.00088,-9e-05,-0.00018,0.00011,0.00047,2,20
8734,0.00019,0.00017,0.00048,0.00088,-9e-05,-0.00018,0.00011,0.00047,2,20
8735,0.00019,0.00017,0.00048,0.00088,-9e-05,-0.00018,0.00011,0.00047,2,20
8736,0.00019,0.00017,0.00048,0.00088,-9e-05,-0.00018,0.00011,0.00047,2,20
8739,3e-05,-0.00025,-0.00105,-0.00069,-0.00039,0.00012,0.00018,-0.00089,2,20
8740,3e-05,-0.00025,-0.00105,-0.00069,-0.00039,0.00012,0.00018,-0.00089,2,20
8741,3e-05,-0.00025,-0.00105,-0.00069,-0.00039,0.00012,0.00018,-0.00089,2,20
8742,3e-05,-0.00025,-0.00105,-0.00069,-0.00039,0.00012,0.00018,-0.00089,2,20
8743,3e-05,-0.00025,-0.00105,-0.00069,-0.00039,0.00012,0.00018,-0.00089,2,20
8744,3e-05,-0.00025,-0.00105,-0.00069,-0.00039,0.00012,0.00018,-0.00089,2,20
8745,3e-05,-0.00025,-0.00105,-0.00069,-0.00039,0.00012,0.00018,-0.00089,2,20
8746,3e-05,-0.00025,-0.00105,-0.00069,-0.00039,0.00012,0.00018,-0.00089,2,20
8747,3e-05,-0.00025,-0.00105,-0.00069,-0.00039,0.00012,0.00018,-0.00089,2,20
8748,3e-05,-0.00025,-0.00105,-0.00069,-0.00039,0.00012,0.00018,-0.00089,2,20
8749,3e-05,-0.00025,-0.00105,-0.00069,-0.00039,0.00012,0.00018,-0.00089,2,20
8750,3e-05,-0.00025,-0.00105,-0.00069,-0.00039,0.00012,0.00018,-0.00089,2,20
8751,3e-05,-0.00025,-0.00105,-0.00069,-0.00039,0.00012,0.00018,-0.00089,2,20
8752,3e-05,-0.00025,-0.00105,-0.00069,-0.00039,0.00012,0.00018,-0.00089,2,20
8753,3e-05,-0.00025,-0.00105,-0.00069,-0.00039,0.00012,0.00018,-0.00089,2,20
8754,3e-05,-0.00025,-0.00105,-0.00069,-0.00039,0.00012,0.00018,-0.00089,2,20
8755,3e-05,-0.00025,-0.00105,-0.00069,-0.00039,0.00012,0.00018,-0.00089,2,20
8756,3e-05,-0.00025,-0.00105,-0.00069,-0.00039,0.00012,0.00018,-0.00089,2,20
8757,3e-05,-0.00025,-0.00105,-0.00069,-0.00039,0.00012,0.00018,-0.00089,2,20
8758,3e-05,-0.00025,-0.00105,-0.00069,-0.00039,0.00012,0.00018,-0.00089,2,20
8759,3e-05,-0.00025,-0.00105,-0.00069,-0.00039,0.00012,0.00018,-0.00089,2,20
8760,3e-05,-0.00025,-0.00105,-0.00069,-0.00039,0.00012,0.00018,-0.00089,2,20
8761,-0.00024,4e-05,-9e-05,-0.00036,-0.0002,-0.0004,-0.00112,-0.00053,2,20
8762,-7e-05,-7e-05,-0.00016,0.00036,-0.00018,-0.00038,0.00031,0.00021,2,20
8763,1e-05,1e-05,0.00037,0.00015,0.00049,0.0004,-0.00016,0.00127,2,20
8764,1e-05,1e-05,0.00037,0.00015,0.00049,0.0004,-0.00016,0.00127,2,20
8765,1e-05,1e-05,0.00037,0.00015,0.00049,0.0004,-0.00016,0.00127,2,20
8766,1e-05,1e-05,0.00037,0.00015,0.00049,0.0004,-0.00016,0.00127,2,20
8767,1e-05,1e-05,0.00037,0.00015,0.00049,0.0004,-0.00016,0.00127,2,20
8768,1e-05,1e-05,0.00037,0.00015,0.00049,0.0004,-0.00016,0.00127,2,20
8769,1e-05,1e-05,0.00037,0.00015,0.00049,0.0004,-0.00016,0.00127,2,20
8770,1e-05,1e-05,0.00037,0.00015,0.00049,0.0004,-0.00016,0.00127,2,20
8771,1e-05,1e-05,0.00037,0.00015,0.00049,0.0004,-0.00016,0.00127,2,20
8772,1e-05,1e-05,0.00037,0.00015,0.00049,0.0004,-0.00016,0.00127,2,20
8773,1e-05,1e-05,0.00037,0.00015,0.00049,0.0004,-0.00016,0.00127,2,20
8774,1e-05,1e-05,0.00037,0.00015,0.00049,0.0004,-0.00016,0.00127,2,20
8775,1e-05,1e-05,0.00037,0.00015,0.00049,0.0004,-0.00016,0.00127,2,20
8776,1e-05,1e-05,0.00037,0.00015,0.00049,0.0004,-0.00016,0.00127,2,20
8777,1e-05,1e-05,0.00037,0.00015,0.00049,0.0004,-0.00016,0.00127,2,20
8778,1e-05,1e-05,0.00037,0.00015,0.00049,0.0004,-0.00016,0.00127,2,20
8779,1e-05,1e-05,0.00037,0.00015,0.00049,0.0004,-0.00016,0.00127,2,20
8780,1e-05,1e-05,0.00037,0.00015,0.00049,0.0004,-0.00016,0.00127,2,20
8781,1e-05,1e-05,0.00037,0.00015,0.00049,0.0004,-0.00016,0.00127,2,20
8782,1e-05,1e-05,0.00037,0.00015,0.00049,0.0004,-0.00016,0.00127,2,20
8783,1e-05,1e-05,0.00037,0.00015,0.00049,0.0004,-0.00016,0.00127,2,20
8784,1e-05,1e-05,0.00037,0.00015,0.00049,0.0004,-0.00016,0.00127,2,20
8785,1e-05,1e-05,0.00037,0.00015,0.00049,0.0004,-0.00016,0.00127,2,20
8786,1e-05,1e-05,0.00037,0.00015,0.00049,0.0004,-0.00016,0.00127,2,20
8788,1e-05,1e-05,0.00037,0.00015,0.00049,0.0004,-0.00016,0.00127,2,20
8789,1e-05,1e-05,0.00037,0.00015,0.00049,0.0004,-0.00016,0.00127,2,20
8790,1e-05,1e-05,0.00037,0.00015,0.00049,0.0004,-0.00016,0.00127,2,20
8791,-0.00021,-0.0002,-0.00034,-0.0009,0.00011,-0.00024,7e-05,-0.00018,2,20
8792,-0.00013,-9e-05,-0.00036,-0.00098,-0.0005,-0.00082,-0.00075,-0.00098,2,20
8793,0.00026,0.00019,0.00061,0.00126,0.00023,0.00062,0.00107,-0.00025,2,20
8794,0.00026,0.00019,0.00061,0.00126,0.00023,0.00062,0.00107,-0.00025,2,20
8795,0.00026,0.00019,0.00061,0.00126,0.00023,0.00062,0.00107,-0.00025,2,20
8796,0.00026,0.00019,0.00061,0.00126,0.00023,0.00062,0.00107,-0.00025,2,20
8797,0.00026,0.00019,0.00061,0.00126,0.00023,0.00062,0.00107,-0.00025,2,20
8798,0.00026,0.00019,0.00061,0.00126,0.00023,0.00062,0.00107,-0.00025,2,20
8799,0.00026,0.00019,0.00061,0.00126,0.00023,0.00062,0.00107,-0.00025,2,20
8800,0.00026,0.00019,0.00061,0.00126,0.00023,0.00062,0.00107,-0.00025,2,20
8801,0.00026,0.00019,0.00061,0.00126,0.00023,0.00062,0.00107,-0.00025,2,20
8802,0.00026,0.00019,0.00061,0.00126,0.00023,0.00062,0.00107,-0.00025,2,20
8803,0.00026,0.00019,0.00061,0.00126,0.00023,0.00062,0.00107,-0.00025,2,20
8804,0.00026,0.00019,0.00061,0.00126,0.00023,0.00062,0.00107,-0.00025,2,20
8805,0.00026,0.00019,0.00061,0.00126,0.00023,0.00062,0.00107,-0.00025,2,20
8806,2e-05,-0.00017,-0.001,-0.00123,-0.00025,0.00048,0.00054,-7e-05,2,20
8807,-9e-05,-0.00011,0.00063,0.00104,-0.00024,-0.00041,-0.00086,0.00127,2,20
8808,-9e-05,-0.00011,0.00063,0.00104,-0.00024,-0.00041,-0.00086,0.00127,2,20
8809,-9e-05,-0.00011,0.00063,0.00104,-0.00024,-0.00041,-0.00086,0.00127,2,20
8810,-9e-05,-0.00011,0.00063,0.00104,-0.00024,-0.00041,-0.00086,0.00127,2,20
8811,-9e-05,-0.00011,0.00063,0.00104,-0.00024,-0.00041,-0.00086,0.00127,2,20
8812,4e-05,1e-05,-0.00047,-0.0003,-9e-05,-0.00026,7e-05,0.00091,2,20
8813,-0.00047,-0.00034,-0.00113,-0.00091,-0.00043,4e-05,-0.00104,-0.00107,2,20
8814,-0.00047,-0.00034,-0.00113,-0.00091,-0.00043,4e-05,-0.00104,-0.00107,2,20
8815,-0.00047,-0.00034,-0.00113,-0.00091,-0.00043,4e-05,-0.00104,-0.00107,2,20
8816,-0.00047,-0.00034,-0.00113,-0.00091,-0.00043,4e-05,-0.00104,-0.00107,2,20
8817,-0.00047,-0.00034,-0.00113,-0.00091,-0.00043,4e-05,-0.00104,-0.00107,2,20
8818,-0.00047,-0.00034,-0.00113,-0.00091,-0.00043,4e-05,-0.00104,-0.00107,2,20
8819,-0.00047,-0.00034,-0.00113,-0.00091,-0.00043,4e-05,-0.00104,-0.00107,2,20
8820,-0.00047,-0.00034,-0.00113,-0.00091,-0.00043,4e-05,-0.00104,-0.00107,2,20
8821,-0.00047,-0.00034,-0.00113,-0.00091,-0.00043,4e-05,-0.00104,-0.00107,2,20
8822,-0.00047,-0.00034,-0.00113,-0.00091,-0.00043,4e-05,-0.00104,-0.00107,2,20
8823,-0.00047,-0.00034,-0.00113,-0.00091,-0.00043,4e-05,-0.00104,-0.00107,2,20
8824,-0.00047,-0.00034,-0.00113,-0.00091,-0.00043,4e-05,-0.00104,-0.00107,2,20
8825,-0.00047,-0.00034,-0.00113,-0.00091,-0.00043,4e-05,-0.00104,-0.00107,2,20
8826,-0.00047,-0.00034,-0.00113,-0.00091,-0.00043,4e-05,-0.00104,-0.00107,2,20
8827,-0.00047,-0.00034,-0.00113,-0.00091,-0.00043,4e-05,-0.00104,-0.00107,2,20
8828,-0.00047,-0.00034,-0.00113,-0.00091,-0.00043,4e-05,-0.00104,-0.00107,2,20
8829,-0.00047,-0.00034,-0.00113,-0.00091,-0.00043,4e-05,-0.00104,-0.00107,2,20
8830,-0.00047,-0.00034,-0.00113,-0.00091,-0.00043,4e-05,-0.00104,-0.00107,2,20
8831,-0.00047,-0.00034,-0.00113,-0.00091,-0.00043,4e-05,-0.00104,-0.00107,2,20
8832,-0.00047,-0.00034,-0.00113,-0.00091,-0.00043,4e-05,-0.00104,-0.00107,2,20
8833,-0.00047,-0.00034,-0.00113,-0.00091,-0.00043,4e-05,-0.00104,-0.00107,2,20
8834,-0.00047,-0.00034,-0.00113,-0.00091,-0.00043,4e-05,-0.00104,-0.00107,2,20
8835,-0.00047,-0.00034,-0.00113,-0.00091,-0.00043,4e-05,-0.00104,-0.00107,2,20
8837,0.00072,0.00043,0.00073,0.00113,9e-05,0.00013,-0.00052,8e-05,2,20
8840,-0.00025,-0.00027,-0.00088,-0.00087,0.00012,-4e-05,0.00065,-0.00089,2,20
8841,-0.00025,-0.00027,-0.00088,-0.00087,0.00012,-4e-05,0.00065,-0.00089,2,20
8842,-0.00025,-0.00027,-0.00088,-0.00087,0.00012,-4e-05,0.00065,-0.00089,2,20
8843,-0.00025,-0.00027,-0.00088,-0.00087,0.00012,-4e-05,0.00065,-0.00089,2,20
8844,-0.00025,-0.00027,-0.00088,-0.00087,0.00012,-4e-05,0.00065,-0.00089,2,20
8845,-0.00025,-0.00027,-0.00088,-0.00087,0.00012,-4e-05,0.00065,-0.00089,2,20
8846,-0.00025,-0.00027,-0.00088,-0.00087,0.00012,-4e-05,0.00065,-0.00089,2,20
8847,-0.00025,-0.00027,-0.00088,-0.00087,0.00012,-4e-05,0.00065,-0.00089,2,20
8848,-0.00025,-0.00027,-0.00088,-0.00087,0.00012,-4e-05,0.00065,-0.00089,2,20
8849,-0.00025,-0.00027,-0.00088,-0.00087,0.00012,-4e-05,0.00065,-0.00089,2,20
8850,-0.00025,-0.00027,-0.00088,-0.00087,0.00012,-4e-05,0.00065,-0.00089,2,20
8851,-0.00025,-0.00027,-0.00088,-0.00087,0.00012,-4e-05,0.00065,-0.00089,2,20
8852,-0.00025,-0.00027,-0.00088,-0.00087,0.00012,-4e-05,0.00065,-0.00089,2,20
8853,-0.00025,-0.00027,-0.00088,-0.00087,0.00012,-4e-05,0.00065,-0.00089,2,20
8854,-0.00025,-0.00027,-0.00088,-0.00087,0.00012,-4e-05,0.00065,-0.00089,2,20
8855,-0.00025,-0.00027,-0.00088,-0.00087,0.00012,-4e-05,0.00065,-0.00089,2,20
8856,-0.00025,-0.00027,-0.00088,-0.00087,0.00012,-4e-05,0.00065,-0.00089,2,20
8857,-0.00025,-0.00027,-0.00088,-0.00087,0.00012,-4e-05,0.00065,-0.00089,2,20
8858,-0.00025,-0.00027,-0.00088,-0.00087,0.00012,-4e-05,0.00065,-0.00089,2,20
8859,-0.00034,-0.00033,-0.00057,-0.00031,0.00026,-0.0011,0.00035,-0.00063,2,20
8860,-0.00036,4e-05,0.00052,0.00032,0.00033,0.00113,0.00025,-0.00048,2,20
8861,0.00014,0.00015,0.00049,0.00033,-0.0003,-0.00074,-0.00024,0.00059,2,20
8862,0.00014,0.00015,0.00049,0.00033,-0.0003,-0.00074,-0.00024,0.00059,2,20
8863,0.00014,0.00015,0.00049,0.00033,-0.0003,-0.00074,-0.00024,0.00059,2,20
8864,0.00014,0.00015,0.00049,0.00033,-0.0003,-0.00074,-0.00024,0.00059,2,20
8865,0.00014,0.00015,0.00049,0.00033,-0.0003,-0.00074,-0.00024,0.00059,2,20
8866,0.00014,0.00015,0.00049,0.00033,-0.0003,-0.00074,-0.00024,0.00059,2,20
8867,0.00014,0.00015,0.00049,0.00033,-0.0003,-0.00074,-0.00024,0.00059,2,20
8868,0.00014,0.00015,0.00049,0.00033,-0.0003,-0.00074,-0.00024,0.00059,2,20
8869,0.00014,0.00015,0.00049,0.00033,-0.0003,-0.00074,-0.00024,0.00059,2,20
8870,0.00014,0.00015,0.00049,0.00033,-0.0003,-0.00074,-0.00024,0.00059,2,20
8871,0.00014,0.00015,0.00049,0.00033,-0.0003,-0.00074,-0.00024,0.00059,2,20
8872,0.00014,0.00015,0.00049,0.00033,-0.0003,-0.00074,-0.00024,0.00059,2,20
8873,0.00014,0.00015,0.00049,0.00033,-0.0003,-0.00074,-0.00024,0.00059,2,20
8874,0.00014,0.00015,0.00049,0.00033,-0.0003,-0.00074,-0.00024,0.00059,2,20
8875,0.00014,0.00015,0.00049,0.00033,-0.0003,-0.00074,-0.00024,0.00059,2,20
8876,0.00014,0.00015,0.00049,0.00033,-0.0003,-0.00074,-0.00024,0.00059,2,20
8877,0.00014,0.00015,0.00049,0.00033,-0.0003,-0.00074,-0.00024,0.00059,2,20
8878,0.00014,0.00015,0.00049,0.00033,-0.0003,-0.00074,-0.00024,0.00059,2,20
8879,0.00014,0.00015,0.00049,0.00033,-0.0003,-0.00074,-0.00024,0.00059,2,20
8880,0.00014,0.00015,0.00049,0.00033,-0.0003,-0.00074,-0.00024,0.00059,2,20
8881,-0.00017,-1e-05,-0.00024,-0.00065,0.00017,0.00021,0.00036,-0.00082,2,20
8882,-0.00017,-1e-05,-0.00024,-0.00065,0.00017,0.00021,0.00036,-0.00082,2,20
8883,-0.00017,-1e-05,-0.00024,-0.00065,0.00017,0.00021,0.00036,-0.00082,2,20
8884,-0.00017,-1e-05,-0.00024,-0.00065,0.00017,0.00021,0.00036,-0.00082,2,20
8885,-0.00017,-1e-05,-0.00024,-0.00065,0.00017,0.00021,0.00036,-0.00082,2,20
8886,-0.00017,-1e-05,-0.00024,-0.00065,0.00017,0.00021,0.00036,-0.00082,2,20
8889,-0.0001,0.00018,0.00068,0.0011,0.00016,0,0.00043,0.00111,2,20
8890,-0.0001,0.00018,0.00068,0.0011,0.00016,0,0.00043,0.00111,2,20
8891,-0.0001,0.00018,0.00068,0.0011,0.00016,0,0.00043,0.00111,2,20
8892,-0.0001,0.00018,0.00068,0.0011,0.00016,0,0.00043,0.00111,2,20
8893,-0.0001,0.00018,0.00068,0.0011,0.00016,0,0.00043,0.00111,2,20
8894,-0.0001,0.00018,0.00068,0.0011,0.00016,0,0.00043,0.00111,2,20
8895,-0.0001,0.00018,0.00068,0.0011,0.00016,0,0.00043,0.00111,2,20
8896,-0.0001,0.00018,0.00068,0.0011,0.00016,0,0.00043,0.00111,2,20
8897,-0.0001,0.00018,0.00068,0.0011,0.00016,0,0.00043,0.00111,2,20
8898,-0.0001,0.00018,0.00068,0.0011,0.00016,0,0.00043,0.00111,2,20
8899,-0.0001,0.00018,0.00068,0.0011,0.00016,0,0.00043,0.00111,2,20
8900,-0.0001,0.00018,0.00068,0.0011,0.00016,0,0.00043,0.00111,2,20
8901,-0.0001,0.00018,0.00068,0.0011,0.00016,0,0.00043,0.00111,2,20
8902,0,-0.00014,-0.00029,-0.00018,3e-05,-0.00039,0.00062,0.00033,2,20
8903,-0.00014,-9e-05,-0.00033,-0.00056,-0.0002,0.00014,-0.00122,0.00127,2,20
8904,-0.00014,-9e-05,-0.00033,-0.00056,-0.0002,0.00014,-0.00122,0.00127,2,20
8905,-0.00014,-9e-05,-0.00033,-0.00056,-0.0002,0.00014,-0.00122,0.00127,2,20
8906,-0.00014,-9e-05,-0.00033,-0.00056,-0.0002,0.00014,-0.00122,0.00127,2,20
8907,-0.00014,-9e-05,-0.00033,-0.00056,-0.0002,0.00014,-0.00122,0.00127,2,20
8908,-0.00014,-9e-05,-0.00033,-0.00056,-0.0002,0.00014,-0.00122,0.00127,2,20
8909,-0.00014,-9e-05,-0.00033,-0.00056,-0.0002,0.00014,-0.00122,0.00127,2,20
8910,-0.00014,-9e-05,-0.00033,-0.00056,-0.0002,0.00014,-0.00122,0.00127,2,20
8911,0.00042,0.00037,0.00072,-0.00016,4e-05,0.00029,0.00027,-0.00106,2,20
8912,-0.00081,-0.00033,-0.00072,-0.00057,-0.0005,0,-0.00098,-0.00062,2,20
8913,-0.00081,-0.00033,-0.00072,-0.00057,-0.0005,0,-0.00098,-0.00062,2,20
8914,-0.00081,-0.00033,-0.00072,-0.00057,-0.0005,0,-0.00098,-0.00062,2,20
8915,-0.00081,-0.00033,-0.00072,-0.00057,-0.0005,0,-0.00098,-0.00062,2,20
8916,-0.00081,-0.00033,-0.00072,-0.00057,-0.0005,0,-0.00098,-0.00062,2,20
8917,-0.00081,-0.00033,-0.00072,-0.00057,-0.0005,0,-0.00098,-0.00062,2,20
8918,-0.00081,-0.00033,-0.00072,-0.00057,-0.0005,0,-0.00098,-0.00062,2,20
8919,-0.00081,-0.00033,-0.00072,-0.00057,-0.0005,0,-0.00098,-0.00062,2,20
8920,-0.00081,-0.00033,-0.00072,-0.00057,-0.0005,0,-0.00098,-0.00062,2,20
8921,-0.00081,-0.00033,-0.00072,-0.00057,-0.0005,0,-0.00098,-0.00062,2,20
8922,-0.00081,-0.00033,-0.00072,-0.00057,-0.0005,0,-0.00098,-0.00062,2,20
8923,-0.00081,-0.00033,-0.00072,-0.00057,-0.0005,0,-0.00098,-0.00062,2,20
8924,-0.00081,-0.00033,-0.00072,-0.00057,-0.0005,0,-0.00098,-0.00062,2,20
8925,-0.00081,-0.00033,-0.00072,-0.00057,-0.0005,0,-0.00098,-0.00062,2,20
8926,-0.00081,-0.00033,-0.00072,-0.00057,-0.0005,0,-0.00098,-0.00062,2,20
8927,-0.00081,-0.00033,-0.00072,-0.00057,-0.0005,0,-0.00098,-0.00062,2,20
8928,-0.00081,-0.00033,-0.00072,-0.00057,-0.0005,0,-0.00098,-0.00062,2,20
8929,-0.00081,-0.00033,-0.00072,-0.00057,-0.0005,0,-0.00098,-0.00062,2,20
8930,-0.00081,-0.00033,-0.00072,-0.00057,-0.0005,0,-0.00098,-0.00062,2,20
8931,-0.00081,-0.00033,-0.00072,-0.00057,-0.0005,0,-0.00098,-0.00062,2,20
8932,-0.00081,-0.00033,-0.00072,-0.00057,-0.0005,0,-0.00098,-0.00062,2,20
8933,-0.00081,-0.00033,-0.00072,-0.00057,-0.0005,0,-0.00098,-0.00062,2,20
8934,0.00031,7e-05,-0.00025,0.0006,5e-05,8e-05,0.0006,0.00053,2,20
8935,0.00031,7e-05,-0.00025,0.0006,5e-05,8e-05,0.0006,0.00053,2,20
8936,0.00051,9e-05,0.00062,0.00074,0.00024,-0.00014,0.00016,0.00112,2,20
8940,0.00051,9e-05,0.00062,0.00074,0.00024,-0.00014,0.00016,0.00112,2,20
8941,0.00051,9e-05,0.00062,0.00074,0.00024,-0.00014,0.00016,0.00112,2,20
8942,0.00051,9e-05,0.00062,0.00074,0.00024,-0.00014,0.00016,0.00112,2,20
8943,0.00051,9e-05,0.00062,0.00074,0.00024,-0.00014,0.00016,0.00112,2,20
8944,0.00051,9e-05,0.00062,0.00074,0.00024,-0.00014,0.00016,0.00112,2,20
8945,0.00051,9e-05,0.00062,0.00074,0.00024,-0.00014,0.00016,0.00112,2,20
8946,0.00051,9e-05,0.00062,0.00074,0.00024,-0.00014,0.00016,0.00112,2,20
8947,0.00051,9e-05,0.00062,0.00074,0.00024,-0.00014,0.00016,0.00112,2,20
8948,0.00051,9e-05,0.00062,0.00074,0.00024,-0.00014,0.00016,0.00112,2,20
8949,0.00051,9e-05,0.00062,0.00074,0.00024,-0.00014,0.00016,0.00112,2,20
8950,0.00051,9e-05,0.00062,0.00074,0.00024,-0.00014,0.00016,0.00112,2,20
8951,0.00051,9e-05,0.00062,0.00074,0.00024,-0.00014,0.00016,0.00112,2,20
8952,0.00051,9e-05,0.00062,0.00074,0.00024,-0.00014,0.00016,0.00112,2,20
8953,0.00051,9e-05,0.00062,0.00074,0.00024,-0.00014,0.00016,0.00112,2,20
8954,0.00051,9e-05,0.00062,0.00074,0.00024,-0.00014,0.00016,0.00112,2,20
8955,0.00051,9e-05,0.00062,0.00074,0.00024,-0.00014,0.00016,0.00112,2,20
8956,4e-05,-0.00018,-0.00082,-0.00128,-0.00032,-0.00021,-0.00056,0.0003,2,20
8957,4e-05,-0.00018,-0.00082,-0.00128,-0.00032,-0.00021,-0.00056,0.0003,2,20
8958,0.00076,0.00038,0.00073,6e-05,0.00062,0.00086,-0.00083,-0.00059,2,20
8959,0.00076,0.00038,0.00073,6e-05,0.00062,0.00086,-0.00083,-0.00059,2,20
8960,0.00076,0.00038,0.00073,6e-05,0.00062,0.00086,-0.00083,-0.00059,2,20
8961,0.00076,0.00038,0.00073,6e-05,0.00062,0.00086,-0.00083,-0.00059,2,20
8962,0.00076,0.00038,0.00073,6e-05,0.00062,0.00086,-0.00083,-0.00059,2,20
8963,0.00076,0.00038,0.00073,6e-05,0.00062,0.00086,-0.00083,-0.00059,2,20
8964,0.00076,0.00038,0.00073,6e-05,0.00062,0.00086,-0.00083,-0.00059,2,20
8965,0.00076,0.00038,0.00073,6e-05,0.00062,0.00086,-0.00083,-0.00059,2,20
8966,0.00076,0.00038,0.00073,6e-05,0.00062,0.00086,-0.00083,-0.00059,2,20
8967,0.00076,0.00038,0.00073,6e-05,0.00062,0.00086,-0.00083,-0.00059,2,20
8968,0.00076,0.00038,0.00073,6e-05,0.00062,0.00086,-0.00083,-0.00059,2,20
8969,0.00076,0.00038,0.00073,6e-05,0.00062,0.00086,-0.00083,-0.00059,2,20
8970,0.00076,0.00038,0.00073,6e-05,0.00062,0.00086,-0.00083,-0.00059,2,20
8971,0.00076,0.00038,0.00073,6e-05,0.00062,0.00086,-0.00083,-0.00059,2,20
8972,0.00076,0.00038,0.00073,6e-05,0.00062,0.00086,-0.00083,-0.00059,2,20
8973,0.00076,0.00038,0.00073,6e-05,0.00062,0.00086,-0.00083,-0.00059,2,20
8974,0.00076,0.00038,0.00073,6e-05,0.00062,0.00086,-0.00083,-0.00059,2,20
8975,0.00076,0.00038,0.00073,6e-05,0.00062,0.00086,-0.00083,-0.00059,2,20
8976,0.00076,0.00038,0.00073,6e-05,0.00062,0.00086,-0.00083,-0.00059,2,20
8977,0.00076,0.00038,0.00073,6e-05,0.00062,0.00086,-0.00083,-0.00059,2,20
8978,0.00076,0.00038,0.00073,6e-05,0.00062,0.00086,-0.00083,-0.00059,2,20
8979,0.00076,0.00038,0.00073,6e-05,0.00062,0.00086,-0.00083,-0.00059,2,20
8980,0.00076,0.00038,0.00073,6e-05,0.00062,0.00086,-0.00083,-0.00059,2,20
8981,0.00076,0.00038,0.00073,6e-05,0.00062,0.00086,-0.00083,-0.00059,2,20
8982,0.00076,0.00038,0.00073,6e-05,0.00062,0.00086,-0.00083,-0.00059,2,20
8983,0.00076,0.00038,0.00073,6e-05,0.00062,0.00086,-0.00083,-0.00059,2,20
8984,0.00076,0.00038,0.00073,6e-05,0.00062,0.00086,-0.00083,-0.00059,2,20
8985,0.00076,0.00038,0.00073,6e-05,0.00062,0.00086,-0.00083,-0.00059,2,20
8987,0.00012,0.0002,0.00053,0.00063,4e-05,0.00013,-0.00082,0.00049,2,20
8990,-0.00021,-9e-05,0.00044,0.00103,-0.00078,-0.00041,0.00065,0.00127,2,20
8991,-0.00021,-9e-05,0.00044,0.00103,-0.00078,-0.00041,0.00065,0.00127,2,20
8992,-0.00021,-9e-05,0.00044,0.00103,-0.00078,-0.00041,0.00065,0.00127,2,20
8993,-0.00021,-9e-05,0.00044,0.00103,-0.00078,-0.00041,0.00065,0.00127,2,20
8994,-0.00021,-9e-05,0.00044,0.00103,-0.00078,-0.00041,0.00065,0.00127,2,20
8995,-0.00021,-9e-05,0.00044,0.00103,-0.00078,-0.00041,0.00065,0.00127,2,20
8996,-0.00021,-9e-05,0.00044,0.00103,-0.00078,-0.00041,0.00065,0.00127,2,20
8997,-0.00021,-9e-05,0.00044,0.00103,-0.00078,-0.00041,0.00065,0.00127,2,20
8998,-0.00021,-9e-05,0.00044,0.00103,-0.00078,-0.00041,0.00065,0.00127,2,20
8999,-0.00021,-9e-05,0.00044,0.00103,-0.00078,-0.00041,0.00065,0.00127,2,20
9000,-0.00021,-9e-05,0.00044,0.00103,-0.00078,-0.00041,0.00065,0.00127,2,20
9001,-0.00021,-9e-05,0.00044,0.00103,-0.00078,-0.00041,0.00065,0.00127,2,20
9002,-0.00021,-9e-05,0.00044,0.00103,-0.00078,-0.00041,0.00065,0.00127,2,20
9003,-0.00021,-9e-05,0.00044,0.00103,-0.00078,-0.00041,0.00065,0.00127,2,20
9004,-0.00021,-9e-05,0.00044,0.00103,-0.00078,-0.00041,0.00065,0.00127,2,20
9005,-0.00021,-9e-05,0.00044,0.00103,-0.00078,-0.00041,0.00065,0.00127,2,20
9006,-0.00021,-9e-05,0.00044,0.00103,-0.00078,-0.00041,0.00065,0.00127,2,20
9007,-0.00021,-9e-05,0.00044,0.00103,-0.00078,-0.00041,0.00065,0.00127,2,20
9008,-0.00021,-9e-05,0.00044,0.00103,-0.00078,-0.00041,0.00065,0.00127,2,20
9009,-0.00014,1e-05,-0.00049,-0.00015,-1e-05,-0.00036,-0.00041,-0.00071,2,20
9010,-0.00026,-6e-05,7e-05,0.00057,9e-05,0.00012,-0.00023,8e-05,2,20
9011,0,-7e-05,0.00069,0.00127,0.00036,-0.00075,-0.0008,0.00045,2,20
9012,0,-7e-05,0.00069,0.00127,0.00036,-0.00075,-0.0008,0.00045,2,20
9013,0,-7e-05,0.00069,0.00127,0.00036,-0.00075,-0.0008,0.00045,2,20
9014,0,-7e-05,0.00069,0.00127,0.00036,-0.00075,-0.0008,0.00045,2,20
9015,0,-7e-05,0.00069,0.00127,0.00036,-0.00075,-0.0008,0.00045,2,20
9016,0,-7e-05,0.00069,0.00127,0.00036,-0.00075,-0.0008,0.00045,2,20
9017,0,-7e-05,0.00069,0.00127,0.00036,-0.00075,-0.0008,0.00045,2,20
9018,0,-7e-05,0.00069,0.00127,0.00036,-0.00075,-0.0008,0.00045,2,20
9019,0,-7e-05,0.00069,0.00127,0.00036,-0.00075,-0.0008,0.00045,2,20
9020,0,-7e-05,0.00069,0.00127,0.00036,-0.00075,-0.0008,0.00045,2,20
9021,0,-7e-05,0.00069,0.00127,0.00036,-0.00075,-0.0008,0.00045,2,20
9022,0,-7e-05,0.00069,0.00127,0.00036,-0.00075,-0.0008,0.00045,2,20
9023,0,-7e-05,0.00069,0.00127,0.00036,-0.00075,-0.0008,0.00045,2,20
9024,0,-7e-05,0.00069,0.00127,0.00036,-0.00075,-0.0008,0.00045,2,20
9025,0,-7e-05,0.00069,0.00127,0.00036,-0.00075,-0.0008,0.00045,2,20
9026,0,-7e-05,0.00069,0.00127,0.00036,-0.00075,-0.0008,0.00045,2,20
9027,0,-7e-05,0.00069,0.00127,0.00036,-0.00075,-0.0008,0.00045,2,20
9028,0,-7e-05,0.00069,0.00127,0.00036,-0.00075,-0.0008,0.00045,2,20
9029,0,-7e-05,0.00069,0.00127,0.00036,-0.00075,-0.0008,0.00045,2,20
9030,0,-7e-05,0.00069,0.00127,0.00036,-0.00075,-0.0008,0.00045,2,20
9031,0.00023,0.00025,0.00074,0.00102,-0.00011,0.00071,-0.00035,-0.00016,2,20
9032,0.00023,0.00025,0.00074,0.00102,-0.00011,0.00071,-0.00035,-0.00016,2,20
9033,0.00035,4e-05,5e-05,0.00093,5e-05,-0.00114,0.00041,0.00093,2,20
9034,0.00035,4e-05,5e-05,0.00093,5e-05,-0.00114,0.00041,0.00093,2,20
9035,0.00035,4e-05,5e-05,0.00093,5e-05,-0.00114,0.00041,0.00093,2,20
9037,0.00035,4e-05,5e-05,0.00093,5e-05,-0.00114,0.00041,0.00093,2,20
9039,0.00035,4e-05,5e-05,0.00093,5e-05,-0.00114,0.00041,0.00093,2,20
9040,0.00035,4e-05,5e-05,0.00093,5e-05,-0.00114,0.00041,0.00093,2,20
9041,0.00035,4e-05,5e-05,0.00093,5e-05,-0.00114,0.00041,0.00093,2,20
9042,0.00035,4e-05,5e-05,0.00093,5e-05,-0.00114,0.00041,0.00093,2,20
9043,0.00035,4e-05,5e-05,0.00093,5e-05,-0.00114,0.00041,0.00093,2,20
9044,0.00035,4e-05,5e-05,0.00093,5e-05,-0.00114,0.00041,0.00093,2,20
9045,0.00035,4e-05,5e-05,0.00093,5e-05,-0.00114,0.00041,0.00093,2,20
9046,0.00035,4e-05,5e-05,0.00093,5e-05,-0.00114,0.00041,0.00093,2,20
9047,0.00035,4e-05,5e-05,0.00093,5e-05,-0.00114,0.00041,0.00093,2,20
9048,0.00035,4e-05,5e-05,0.00093,5e-05,-0.00114,0.00041,0.00093,2,20
9049,0.00035,4e-05,5e-05,0.00093,5e-05,-0.00114,0.00041,0.00093,2,20
9050,0.00035,4e-05,5e-05,0.00093,5e-05,-0.00114,0.00041,0.00093,2,20
9051,0.00035,4e-05,5e-05,0.00093,5e-05,-0.00114,0.00041,0.00093,2,20
9052,0.00035,4e-05,5e-05,0.00093,5e-05,-0.00114,0.00041,0.00093,2,20
9053,0.00035,4e-05,5e-05,0.00093,5e-05,-0.00114,0.00041,0.00093,2,20
9054,0.00013,-4e-05,0,-8e-05,-1e-05,-0.00092,0.00025,0.00116,2,20
9055,8e-05,-8e-05,-0.00018,-0.00027,-0.00027,0.00035,0.0005,2e-05,2,20
9056,8e-05,-8e-05,-0.00018,-0.00027,-0.00027,0.00035,0.0005,2e-05,2,20
9057,8e-05,-8e-05,-0.00018,-0.00027,-0.00027,0.00035,0.0005,2e-05,2,20
9058,8e-05,-8e-05,-0.00018,-0.00027,-0.00027,0.00035,0.0005,2e-05,2,20
9059,8e-05,-8e-05,-0.00018,-0.00027,-0.00027,0.00035,0.0005,2e-05,2,20
9060,8e-05,-8e-05,-0.00018,-0.00027,-0.00027,0.00035,0.0005,2e-05,2,20
9061,8e-05,-8e-05,-0.00018,-0.00027,-0.00027,0.00035,0.0005,2e-05,2,20
9062,8e-05,-8e-05,-0.00018,-0.00027,-0.00027,0.00035,0.0005,2e-05,2,20
9063,8e-05,-8e-05,-0.00018,-0.00027,-0.00027,0.00035,0.0005,2e-05,2,20
9064,8e-05,-8e-05,-0.00018,-0.00027,-0.00027,0.00035,0.0005,2e-05,2,20
9065,8e-05,-8e-05,-0.00018,-0.00027,-0.00027,0.00035,0.0005,2e-05,2,20
9066,8e-05,-8e-05,-0.00018,-0.00027,-0.00027,0.00035,0.0005,2e-05,2,20
9067,8e-05,-8e-05,-0.00018,-0.00027,-0.00027,0.00035,0.0005,2e-05,2,20
9068,8e-05,-8e-05,-0.00018,-0.00027,-0.00027,0.00035,0.0005,2e-05,2,20
9069,8e-05,-8e-05,-0.00018,-0.00027,-0.00027,0.00035,0.0005,2e-05,2,20
9070,8e-05,-8e-05,-0.00018,-0.00027,-0.00027,0.00035,0.0005,2e-05,2,20
9071,8e-05,-8e-05,-0.00018,-0.00027,-0.00027,0.00035,0.0005,2e-05,2,20
9072,8e-05,-8e-05,-0.00018,-0.00027,-0.00027,0.00035,0.0005,2e-05,2,20
9073,8e-05,-8e-05,-0.00018,-0.00027,-0.00027,0.00035,0.0005,2e-05,2,20
9074,8e-05,-8e-05,-0.00018,-0.00027,-0.00027,0.00035,0.0005,2e-05,2,20
9075,-0.00088,-0.00015,-0.00079,-0.00065,0.00049,-0.00037,0.00047,-0.00123,2,20
9076,-0.00088,-0.00015,-0.00079,-0.00065,0.00049,-0.00037,0.00047,-0.00123,2,20
9077,-0.00088,-0.00015,-0.00079,-0.00065,0.00049,-0.00037,0.00047,-0.00123,2,20
9078,-0.00088,-0.00015,-0.00079,-0.00065,0.00049,-0.00037,0.00047,-0.00123,2,20
9079,-0.00088,-0.00015,-0.00079,-0.00065,0.00049,-0.00037,0.00047,-0.00123,2,20
9080,-0.00088,-0.00015,-0.00079,-0.00065,0.00049,-0.00037,0.00047,-0.00123,2,20
9081,-0.00088,-0.00015,-0.00079,-0.00065,0.00049,-0.00037,0.00047,-0.00123,2,20
9082,-0.00088,-0.00015,-0.00079,-0.00065,0.00049,-0.00037,0.00047,-0.00123,2,20
9083,-0.00088,-0.00015,-0.00079,-0.00065,0.00049,-0.00037,0.00047,-0.00123,2,20
9084,-0.00088,-0.00015,-0.00079,-0.00065,0.00049,-0.00037,0.00047,-0.00123,2,20
9085,-0.00017,-0.00011,-0.00043,-0.00128,-0.00027,-0.00025,-0.0008,-0.00128,2,20
9087,-0.00017,-0.00011,-0.00043,-0.00128,-0.00027,-0.00025,-0.0008,-0.00128,2,20
9089,-0.00017,-0.00011,-0.00043,-0.00128,-0.00027,-0.00025,-0.0008,-0.00128,2,20
9090,-0.00017,-0.00011,-0.00043,-0.00128,-0.00027,-0.00025,-0.0008,-0.00128,2,20
9091,-0.00017,-0.00011,-0.00043,-0.00128,-0.00027,-0.00025,-0.0008,-0.00128,2,20
9092,-0.00017,-0.00011,-0.00043,-0.00128,-0.00027,-0.00025,-0.0008,-0.00128,2,20
9093,-0.00017,-0.00011,-0.00043,-0.00128,-0.00027,-0.00025,-0.0008,-0.00128,2,20
9094,-0.00017,-0.00011,-0.00043,-0.00128,-0.00027,-0.00025,-0.0008,-0.00128,2,20
9095,-0.00017,-0.00011,-0.00043,-0.00128,-0.00027,-0.00025,-0.0008,-0.00128,2,20
9096,-0.00017,-0.00011,-0.00043,-0.00128,-0.00027,-0.00025,-0.0008,-0.00128,2,20
9097,-0.00017,-0.00011,-0.00043,-0.00128,-0.00027,-0.00025,-0.0008,-0.00128,2,20
9098,-0.00017,-0.00011,-0.00043,-0.00128,-0.00027,-0.00025,-0.0008,-0.00128,2,20
9099,-0.00017,-0.00011,-0.00043,-0.00128,-0.00027,-0.00025,-0.0008,-0.00128,2,20
9100,-0.00017,-0.00011,-0.00043,-0.00128,-0.00027,-0.00025,-0.0008,-0.00128,2,20
9101,-0.00017,-0.00011,-0.00043,-0.00128,-0.00027,-0.00025,-0.0008,-0.00128,2,20
9102,-0.00017,-0.00011,-0.00043,-0.00128,-0.00027,-0.00025,-0.0008,-0.00128,2,20
9103,-0.00017,-0.00011,-0.00043,-0.00128,-0.00027,-0.00025,-0.0008,-0.00128,2,20
9104,-0.00017,-0.00011,-0.00043,-0.00128,-0.00027,-0.00025,-0.0008,-0.00128,2,20
9105,-0.00017,-0.00011,-0.00043,-0.00128,-0.00027,-0.00025,-0.0008,-0.00128,2,20
9106,0.00035,0,0.00059,0.00127,0.00029,-0.00067,-0.00086,0.00084,2,20
9107,-0.00021,-7e-05,-0.00063,-0.00097,-0.00022,-0.0001,-8e-05,-0.00089,2,20
9108,8e-05,0.00036,0.00058,0.00086,0.00083,0.00039,0.00011,-4e-05,2,20
9109,8e-05,0.00036,0.00058,0.00086,0.00083,0.00039,0.00011,-4e-05,2,20
9110,8e-05,0.00036,0.00058,0.00086,0.00083,0.00039,0.00011,-4e-05,2,20
9111,8e-05,0.00036,0.00058,0.00086,0.00083,0.00039,0.00011,-4e-05,2,20
9112,8e-05,0.00036,0.00058,0.00086,0.00083,0.00039,0.00011,-4e-05,2,20
9113,8e-05,0.00036,0.00058,0.00086,0.00083,0.00039,0.00011,-4e-05,2,20
9114,8e-05,0.00036,0.00058,0.00086,0.00083,0.00039,0.00011,-4e-05,2,20
9115,8e-05,0.00036,0.00058,0.00086,0.00083,0.00039,0.00011,-4e-05,2,20
9116,8e-05,0.00036,0.00058,0.00086,0.00083,0.00039,0.00011,-4e-05,2,20
9117,8e-05,0.00036,0.00058,0.00086,0.00083,0.00039,0.00011,-4e-05,2,20
9118,8e-05,0.00036,0.00058,0.00086,0.00083,0.00039,0.00011,-4e-05,2,20
9119,8e-05,0.00036,0.00058,0.00086,0.00083,0.00039,0.00011,-4e-05,2,20
9120,8e-05,0.00036,0.00058,0.00086,0.00083,0.00039,0.00011,-4e-05,2,20
9121,8e-05,0.00036,0.00058,0.00086,0.00083,0.00039,0.00011,-4e-05,2,20
9122,8e-05,0.00036,0.00058,0.00086,0.00083,0.00039,0.00011,-4e-05,2,20
9123,8e-05,0.00036,0.00058,0.00086,0.00083,0.00039,0.00011,-4e-05,2,20
9124,8e-05,0.00036,0.00058,0.00086,0.00083,0.00039,0.00011,-4e-05,2,20
9125,8e-05,0.00036,0.00058,0.00086,0.00083,0.00039,0.00011,-4e-05,2,20
9126,8e-05,0.00036,0.00058,0.00086,0.00083,0.00039,0.00011,-4e-05,2,20
9127,8e-05,0.00036,0.00058,0.00086,0.00083,0.00039,0.00011,-4e-05,2,20
9128,8e-05,0.00036,0.00058,0.00086,0.00083,0.00039,0.00011,-4e-05,2,20
9129,0.00039,0.00017,0.00092,-0.00051,4e-05,0.00048,0.00069,0.00127,2,20
9130,-0.00032,-0.00023,-9e-05,0.00052,-0.00048,-0.00017,-0.00035,-0.00049,2,20
9131,-0.00032,-0.00023,-9e-05,0.00052,-0.00048,-0.00017,-0.00035,-0.00049,2,20
9132,-0.00032,-0.00023,-9e-05,0.00052,-0.00048,-0.00017,-0.00035,-0.00049,2,20
9133,-0.00032,-0.00023,-9e-05,0.00052,-0.00048,-0.00017,-0.00035,-0.00049,2,20
9134,-0.00032,-0.00023,-9e-05,0.00052,-0.00048,-0.00017,-0.00035,-0.00049,2,20
9135,-0.00032,-0.00023,-9e-05,0.00052,-0.00048,-0.00017,-0.00035,-0.00049,2,20
9136,-0.00032,-0.00023,-9e-05,0.00052,-0.00048,-0.00017,-0.00035,-0.00049,2,20
9138,-0.00032,-0.00023,-9e-05,0.00052,-0.00048,-0.00017,-0.00035,-0.00049,2,20
9139,-0.00032,-0.00023,-9e-05,0.00052,-0.00048,-0.00017,-0.00035,-0.00049,2,20
9140,-0.00032,-0.00023,-9e-05,0.00052,-0.00048,-0.00017,-0.00035,-0.00049,2,20
9141,-0.00032,-0.00023,-9e-05,0.00052,-0.00048,-0.00017,-0.00035,-0.00049,2,20
9142,-0.00032,-0.00023,-9e-05,0.00052,-0.00048,-0.00017,-0.00035,-0.00049,2,20
9143,-0.00032,-0.00023,-9e-05,0.00052,-0.00048,-0.00017,-0.00035,-0.00049,2,20
9144,-0.00032,-0.00023,-9e-05,0.00052,-0.00048,-0.00017,-0.00035,-0.00049,2,20
9145,-0.00032,-0.00023,-9e-05,0.00052,-0.00048,-0.00017,-0.00035,-0.00049,2,20
9146,-0.00032,-0.00023,-9e-05,0.00052,-0.00048,-0.00017,-0.00035,-0.00049,2,20
9147,-0.00032,-0.00023,-9e-05,0.00052,-0.00048,-0.00017,-0.00035,-0.00049,2,20
9148,-0.00032,-0.00023,-9e-05,0.00052,-0.00048,-0.00017,-0.00035,-0.00049,2,20
