5265,-0.00049,-8e-05,-9e-05,-0.00015,-9e-05,-0.0002,0.00082,-0.00023,2,21
5266,-0.00049,-8e-05,-9e-05,-0.00015,-9e-05,-0.0002,0.00082,-0.00023,2,21
5267,-0.00049,-8e-05,-9e-05,-0.00015,-9e-05,-0.0002,0.00082,-0.00023,2,21
5268,-0.00049,-8e-05,-9e-05,-0.00015,-9e-05,-0.0002,0.00082,-0.00023,2,21
5269,-0.00049,-8e-05,-9e-05,-0.00015,-9e-05,-0.0002,0.00082,-0.00023,2,21
5270,-0.00049,-8e-05,-9e-05,-0.00015,-9e-05,-0.0002,0.00082,-0.00023,2,21
5271,-0.00049,-8e-05,-9e-05,-0.00015,-9e-05,-0.0002,0.00082,-0.00023,2,21
5272,0.00049,0.00018,0.00055,0.00097,-0.00038,-0.00045,-0.00128,-0.00036,2,21
5273,0.00012,-6e-05,-0.00038,-0.00104,0.00029,-2e-05,-0.00072,0.00015,2,21
5274,0.00012,-6e-05,-0.00038,-0.00104,0.00029,-2e-05,-0.00072,0.00015,2,21
5275,0.00012,-6e-05,-0.00038,-0.00104,0.00029,-2e-05,-0.00072,0.00015,2,21
5276,0.00012,-6e-05,-0.00038,-0.00104,0.00029,-2e-05,-0.00072,0.00015,2,21
5277,0.00012,-6e-05,-0.00038,-0.00104,0.00029,-2e-05,-0.00072,0.00015,2,21
5278,0.00012,-6e-05,-0.00038,-0.00104,0.00029,-2e-05,-0.00072,0.00015,2,21
5279,0.00012,-6e-05,-0.00038,-0.00104,0.00029,-2e-05,-0.00072,0.00015,2,21
5280,0.00012,-6e-05,-0.00038,-0.00104,0.00029,-2e-05,-0.00072,0.00015,2,21
5281,0.00012,-6e-05,-0.00038,-0.00104,0.00029,-2e-05,-0.00072,0.00015,2,21
5282,0.00012,-6e-05,-0.00038,-0.00104,0.00029,-2e-05,-0.00072,0.00015,2,21
5283,0.00012,-6e-05,-0.00038,-0.00104,0.00029,-2e-05,-0.00072,0.00015,2,21
5284,0.00012,-6e-05,-0.00038,-0.00104,0.00029,-2e-05,-0.00072,0.00015,2,21
5285,0.00012,-6e-05,-0.00038,-0.00104,0.00029,-2e-05,-0.00072,0.00015,2,21
5287,-0.00069,-6e-05,0.00024,0.00024,0.0002,0.00082,0.00105,0.00025,2,21
5289,0.00014,0.00019,3e-05,0.00029,0.00023,7e-05,0.00119,-0.00077,2,21
5290,0.00014,0.00019,3e-05,0.00029,0.00023,7e-05,0.00119,-0.00077,2,21
5291,0.00014,0.00019,3e-05,0.00029,0.00023,7e-05,0.00119,-0.00077,2,21
5292,0.00014,0.00019,3e-05,0.00029,0.00023,7e-05,0.00119,-0.00077,2,21
5293,0.00014,0.00019,3e-05,0.00029,0.00023,7e-05,0.00119,-0.00077,2,21
5294,0.00014,0.00019,3e-05,0.00029,0.00023,7e-05,0.00119,-0.00077,2,21
5295,0.00014,0.00019,3e-05,0.00029,0.00023,7e-05,0.00119,-0.00077,2,21
5296,0.00014,0.00019,3e-05,0.00029,0.00023,7e-05,0.00119,-0.00077,2,21
5297,0.00014,0.00019,3e-05,0.00029,0.00023,7e-05,0.00119,-0.00077,2,21
5298,0.00014,0.00019,3e-05,0.00029,0.00023,7e-05,0.00119,-0.00077,2,21
5299,0.00014,0.00019,3e-05,0.00029,0.00023,7e-05,0.00119,-0.00077,2,21
5300,0.00014,0.00019,3e-05,0.00029,0.00023,7e-05,0.00119,-0.00077,2,21
5301,0.00014,0.00019,3e-05,0.00029,0.00023,7e-05,0.00119,-0.00077,2,21
5302,0.00014,0.00019,3e-05,0.00029,0.00023,7e-05,0.00119,-0.00077,2,21
5303,0.00014,0.00019,3e-05,0.00029,0.00023,7e-05,0.00119,-0.00077,2,21
5304,0.00014,0.00019,3e-05,0.00029,0.00023,7e-05,0.00119,-0.00077,2,21
5305,0.00014,0.00019,3e-05,0.00029,0.00023,7e-05,0.00119,-0.00077,2,21
5306,0.00014,0.00019,3e-05,0.00029,0.00023,7e-05,0.00119,-0.00077,2,21
5307,0.00014,0.00019,3e-05,0.00029,0.00023,7e-05,0.00119,-0.00077,2,21
5308,0.00014,0.00019,3e-05,0.00029,0.00023,7e-05,0.00119,-0.00077,2,21
5309,0.00014,0.00019,3e-05,0.00029,0.00023,7e-05,0.00119,-0.00077,2,21
5310,-0.00058,1e-05,-0.00011,1e-05,-3e-05,-7e-05,-0.00042,-0.00118,2,21
5311,-0.00018,1e-05,0.00019,-0.00035,0.00012,0.00014,0.00075,-9e-05,2,21
5312,-0.00018,1e-05,0.00019,-0.00035,0.00012,0.00014,0.00075,-9e-05,2,21
5313,-0.00018,1e-05,0.00019,-0.00035,0.00012,0.00014,0.00075,-9e-05,2,21
5314,-0.00018,1e-05,0.00019,-0.00035,0.00012,0.00014,0.00075,-9e-05,2,21
5315,-0.00018,1e-05,0.00019,-0.00035,0.00012,0.00014,0.00075,-9e-05,2,21
5316,-0.00018,1e-05,0.00019,-0.00035,0.00012,0.00014,0.00075,-9e-05,2,21
5317,-0.00018,1e-05,0.00019,-0.00035,0.00012,0.00014,0.00075,-9e-05,2,21
5318,-0.00018,1e-05,0.00019,-0.00035,0.00012,0.00014,0.00075,-9e-05,2,21
5319,-0.00018,1e-05,0.00019,-0.00035,0.00012,0.00014,0.00075,-9e-05,2,21
5320,-0.00018,1e-05,0.00019,-0.00035,0.00012,0.00014,0.00075,-9e-05,2,21
5321,-0.00018,1e-05,0.00019,-0.00035,0.00012,0.00014,0.00075,-9e-05,2,21
5322,-0.00018,1e-05,0.00019,-0.00035,0.00012,0.00014,0.00075,-9e-05,2,21
5323,-0.00018,1e-05,0.00019,-0.00035,0.00012,0.00014,0.00075,-9e-05,2,21
5324,-9e-05,-8e-05,1e-05,0.00024,0.00024,-1e-05,0.00075,0.001,2,21
5325,-9e-05,-8e-05,1e-05,0.00024,0.00024,-1e-05,0.00075,0.001,2,21
5326,-9e-05,-8e-05,1e-05,0.00024,0.00024,-1e-05,0.00075,0.001,2,21
5327,-9e-05,-8e-05,1e-05,0.00024,0.00024,-1e-05,0.00075,0.001,2,21
5328,-9e-05,-8e-05,1e-05,0.00024,0.00024,-1e-05,0.00075,0.001,2,21
5329,-9e-05,-8e-05,1e-05,0.00024,0.00024,-1e-05,0.00075,0.001,2,21
5330,-9e-05,-8e-05,1e-05,0.00024,0.00024,-1e-05,0.00075,0.001,2,21
5331,-9e-05,-8e-05,1e-05,0.00024,0.00024,-1e-05,0.00075,0.001,2,21
5332,0.00031,0.00027,0.00048,0.0009,0.00021,0.00051,-0.00053,0.00075,2,21
5333,0.00031,0.00027,0.00048,0.0009,0.00021,0.00051,-0.00053,0.00075,2,21
5334,0.00031,0.00027,0.00048,0.0009,0.00021,0.00051,-0.00053,0.00075,2,21
5335,0.00031,0.00027,0.00048,0.0009,0.00021,0.00051,-0.00053,0.00075,2,21
5337,0.00031,0.00027,0.00048,0.0009,0.00021,0.00051,-0.00053,0.00075,2,21
5339,0.00031,0.00027,0.00048,0.0009,0.00021,0.00051,-0.00053,0.00075,2,21
5340,0.00031,0.00027,0.00048,0.0009,0.00021,0.00051,-0.00053,0.00075,2,21
5341,0.00031,0.00027,0.00048,0.0009,0.00021,0.00051,-0.00053,0.00075,2,21
5342,0.00031,0.00027,0.00048,0.0009,0.00021,0.00051,-0.00053,0.00075,2,21
5343,0.00031,0.00027,0.00048,0.0009,0.00021,0.00051,-0.00053,0.00075,2,21
5344,0.00031,0.00027,0.00048,0.0009,0.00021,0.00051,-0.00053,0.00075,2,21
5345,0.00031,0.00027,0.00048,0.0009,0.00021,0.00051,-0.00053,0.00075,2,21
5346,0.00031,0.00027,0.00048,0.0009,0.00021,0.00051,-0.00053,0.00075,2,21
5347,0.00094,1e-05,-0.00023,0.0001,-0.00029,-0.00018,0.00127,0.00049,2,21
5348,0.00094,1e-05,-0.00023,0.0001,-0.00029,-0.00018,0.00127,0.00049,2,21
5349,0.00094,1e-05,-0.00023,0.0001,-0.00029,-0.00018,0.00127,0.00049,2,21
5350,0.00094,1e-05,-0.00023,0.0001,-0.00029,-0.00018,0.00127,0.00049,2,21
5351,0.00094,1e-05,-0.00023,0.0001,-0.00029,-0.00018,0.00127,0.00049,2,21
5352,0.00094,1e-05,-0.00023,0.0001,-0.00029,-0.00018,0.00127,0.00049,2,21
5353,0.00094,1e-05,-0.00023,0.0001,-0.00029,-0.00018,0.00127,0.00049,2,21
5354,0.00094,1e-05,-0.00023,0.0001,-0.00029,-0.00018,0.00127,0.00049,2,21
5355,0.00094,1e-05,-0.00023,0.0001,-0.00029,-0.00018,0.00127,0.00049,2,21
5356,0.00094,1e-05,-0.00023,0.0001,-0.00029,-0.00018,0.00127,0.00049,2,21
5357,0.00094,1e-05,-0.00023,0.0001,-0.00029,-0.00018,0.00127,0.00049,2,21
5358,0.00094,1e-05,-0.00023,0.0001,-0.00029,-0.00018,0.00127,0.00049,2,21
5359,0.00094,1e-05,-0.00023,0.0001,-0.00029,-0.00018,0.00127,0.00049,2,21
5360,0.00094,1e-05,-0.00023,0.0001,-0.00029,-0.00018,0.00127,0.00049,2,21
5361,0.00094,1e-05,-0.00023,0.0001,-0.00029,-0.00018,0.00127,0.00049,2,21
5362,0.00094,1e-05,-0.00023,0.0001,-0.00029,-0.00018,0.00127,0.00049,2,21
5363,0.00094,1e-05,-0.00023,0.0001,-0.00029,-0.00018,0.00127,0.00049,2,21
5364,0.00094,1e-05,-0.00023,0.0001,-0.00029,-0.00018,0.00127,0.00049,2,21
5365,0.00094,1e-05,-0.00023,0.0001,-0.00029,-0.00018,0.00127,0.00049,2,21
5366,0.00094,1e-05,-0.00023,0.0001,-0.00029,-0.00018,0.00127,0.00049,2,21
5367,0.00094,1e-05,-0.00023,0.0001,-0.00029,-0.00018,0.00127,0.00049,2,21
5368,0.00094,1e-05,-0.00023,0.0001,-0.00029,-0.00018,0.00127,0.00049,2,21
5369,0.00094,1e-05,-0.00023,0.0001,-0.00029,-0.00018,0.00127,0.00049,2,21
5370,-0.0002,-8e-05,-0.00038,-0.00081,0.00046,0.00034,0.00036,-0.00068,2,21
5371,-0.0002,-0.0001,0.00021,0.00022,-0.00021,0.00024,0.0001,0.00047,2,21
5372,-0.0002,-0.0001,0.00021,0.00022,-0.00021,0.00024,0.0001,0.00047,2,21
5373,-0.0002,-0.0001,0.00021,0.00022,-0.00021,0.00024,0.0001,0.00047,2,21
5374,-0.0002,-0.0001,0.00021,0.00022,-0.00021,0.00024,0.0001,0.00047,2,21
5375,-0.0002,-0.0001,0.00021,0.00022,-0.00021,0.00024,0.0001,0.00047,2,21
5376,-0.0002,-0.0001,0.00021,0.00022,-0.00021,0.00024,0.0001,0.00047,2,21
5377,-0.0002,-0.0001,0.00021,0.00022,-0.00021,0.00024,0.0001,0.00047,2,21
5378,-0.0002,-0.0001,0.00021,0.00022,-0.00021,0.00024,0.0001,0.00047,2,21
5379,-0.0002,-0.0001,0.00021,0.00022,-0.00021,0.00024,0.0001,0.00047,2,21
5380,-0.0002,-0.0001,0.00021,0.00022,-0.00021,0.00024,0.0001,0.00047,2,21
5381,-0.0002,-0.0001,0.00021,0.00022,-0.00021,0.00024,0.0001,0.00047,2,21
5382,-0.0002,-0.0001,0.00021,0.00022,-0.00021,0.00024,0.0001,0.00047,2,21
5383,-0.0002,-0.0001,0.00021,0.00022,-0.00021,0.00024,0.0001,0.00047,2,21
5384,-0.00029,9e-05,0.0002,0.00026,-0.0005,7e-05,-0.00031,0.00049,2,21
5385,-0.00029,9e-05,0.0002,0.00026,-0.0005,7e-05,-0.00031,0.00049,2,21
5387,-0.00029,9e-05,0.0002,0.00026,-0.0005,7e-05,-0.00031,0.00049,2,21
5389,-0.00029,9e-05,0.0002,0.00026,-0.0005,7e-05,-0.00031,0.00049,2,21
5390,-0.00029,9e-05,0.0002,0.00026,-0.0005,7e-05,-0.00031,0.00049,2,21
5391,-0.00029,9e-05,0.0002,0.00026,-0.0005,7e-05,-0.00031,0.00049,2,21
5392,-0.00034,-0.00012,8e-05,-0.00061,-3e-05,0.00043,-0.0003,0.00028,2,21
5393,-0.00034,-0.00012,8e-05,-0.00061,-3e-05,0.00043,-0.0003,0.00028,2,21
5394,-0.00034,-0.00012,8e-05,-0.00061,-3e-05,0.00043,-0.0003,0.00028,2,21
5395,-0.00034,-0.00012,8e-05,-0.00061,-3e-05,0.00043,-0.0003,0.00028,2,21
5396,-0.00034,-0.00012,8e-05,-0.00061,-3e-05,0.00043,-0.0003,0.00028,2,21
5397,-0.00034,-0.00012,8e-05,-0.00061,-3e-05,0.00043,-0.0003,0.00028,2,21
5398,-0.00034,-0.00012,8e-05,-0.00061,-3e-05,0.00043,-0.0003,0.00028,2,21
5399,-0.00034,-0.00012,8e-05,-0.00061,-3e-05,0.00043,-0.0003,0.00028,2,21
5400,-0.00034,-0.00012,8e-05,-0.00061,-3e-05,0.00043,-0.0003,0.00028,2,21
5401,-0.00034,-0.00012,8e-05,-0.00061,-3e-05,0.00043,-0.0003,0.00028,2,21
5402,-0.00034,-0.00012,8e-05,-0.00061,-3e-05,0.00043,-0.0003,0.00028,2,21
5403,-0.00034,-0.00012,8e-05,-0.00061,-3e-05,0.00043,-0.0003,0.00028,2,21
5404,-0.00034,-0.00012,8e-05,-0.00061,-3e-05,0.00043,-0.0003,0.00028,2,21
5405,-0.00034,-0.00012,8e-05,-0.00061,-3e-05,0.00043,-0.0003,0.00028,2,21
5406,-0.00034,-0.00012,8e-05,-0.00061,-3e-05,0.00043,-0.0003,0.00028,2,21
5407,-0.00013,-3e-05,6e-05,-0.00014,0.00038,-0.00042,-0.00065,-0.00089,2,21
5408,-0.00071,2e-05,0.00031,0.00081,0.00067,9e-05,0.00057,0.00024,2,21
5409,-0.00071,2e-05,0.00031,0.00081,0.00067,9e-05,0.00057,0.00024,2,21
5410,-0.00071,2e-05,0.00031,0.00081,0.00067,9e-05,0.00057,0.00024,2,21
5411,-0.00071,2e-05,0.00031,0.00081,0.00067,9e-05,0.00057,0.00024,2,21
5412,-0.00071,2e-05,0.00031,0.00081,0.00067,9e-05,0.00057,0.00024,2,21
5413,-0.00071,2e-05,0.00031,0.00081,0.00067,9e-05,0.00057,0.00024,2,21
5414,-0.00071,2e-05,0.00031,0.00081,0.00067,9e-05,0.00057,0.00024,2,21
5415,-0.00071,2e-05,0.00031,0.00081,0.00067,9e-05,0.00057,0.00024,2,21
5416,-0.00071,2e-05,0.00031,0.00081,0.00067,9e-05,0.00057,0.00024,2,21
5417,-0.00071,2e-05,0.00031,0.00081,0.00067,9e-05,0.00057,0.00024,2,21
5418,-0.00071,2e-05,0.00031,0.00081,0.00067,9e-05,0.00057,0.00024,2,21
5419,-0.00071,2e-05,0.00031,0.00081,0.00067,9e-05,0.00057,0.00024,2,21
5420,-0.00071,2e-05,0.00031,0.00081,0.00067,9e-05,0.00057,0.00024,2,21
5421,-0.00071,2e-05,0.00031,0.00081,0.00067,9e-05,0.00057,0.00024,2,21
5422,-0.00071,2e-05,0.00031,0.00081,0.00067,9e-05,0.00057,0.00024,2,21
5423,-0.00071,2e-05,0.00031,0.00081,0.00067,9e-05,0.00057,0.00024,2,21
5424,-0.00071,2e-05,0.00031,0.00081,0.00067,9e-05,0.00057,0.00024,2,21
5425,-0.00071,2e-05,0.00031,0.00081,0.00067,9e-05,0.00057,0.00024,2,21
5426,-0.00071,2e-05,0.00031,0.00081,0.00067,9e-05,0.00057,0.00024,2,21
5427,-0.00071,2e-05,0.00031,0.00081,0.00067,9e-05,0.00057,0.00024,2,21
5428,-0.00071,2e-05,0.00031,0.00081,0.00067,9e-05,0.00057,0.00024,2,21
5429,-0.00071,2e-05,0.00031,0.00081,0.00067,9e-05,0.00057,0.00024,2,21
5430,0.00023,0.00013,0.0002,0.00014,-0.00024,0.00023,-0.00045,0.00055,2,21
5431,0.00036,5e-05,-4e-05,2e-05,-0.00031,-0.00075,0.00024,0.00039,2,21
5432,0.00036,5e-05,-4e-05,2e-05,-0.00031,-0.00075,0.00024,0.00039,2,21
5433,0.00036,5e-05,-4e-05,2e-05,-0.00031,-0.00075,0.00024,0.00039,2,21
5434,0.00036,5e-05,-4e-05,2e-05,-0.00031,-0.00075,0.00024,0.00039,2,21
5435,0.00036,5e-05,-4e-05,2e-05,-0.00031,-0.00075,0.00024,0.00039,2,21
5437,0.00036,5e-05,-4e-05,2e-05,-0.00031,-0.00075,0.00024,0.00039,2,21
5439,0.00036,5e-05,-4e-05,2e-05,-0.00031,-0.00075,0.00024,0.00039,2,21
5440,0.00036,5e-05,-4e-05,2e-05,-0.00031,-0.00075,0.00024,0.00039,2,21
5441,0.00036,5e-05,-4e-05,2e-05,-0.00031,-0.00075,0.00024,0.00039,2,21
5442,0.00036,5e-05,-4e-05,2e-05,-0.00031,-0.00075,0.00024,0.00039,2,21
5443,0.00036,5e-05,-4e-05,2e-05,-0.00031,-0.00075,0.00024,0.00039,2,21
5444,-1e-05,-0.0001,-0.00029,-0.00011,0.00056,8e-05,0.00043,-0.00034,2,21
5445,-1e-05,-0.0001,-0.00029,-0.00011,0.00056,8e-05,0.00043,-0.00034,2,21
5446,-1e-05,-0.0001,-0.00029,-0.00011,0.00056,8e-05,0.00043,-0.00034,2,21
5447,-1e-05,-0.0001,-0.00029,-0.00011,0.00056,8e-05,0.00043,-0.00034,2,21
5448,-1e-05,-0.0001,-0.00029,-0.00011,0.00056,8e-05,0.00043,-0.00034,2,21
5449,-1e-05,-0.0001,-0.00029,-0.00011,0.00056,8e-05,0.00043,-0.00034,2,21
5450,-1e-05,-0.0001,-0.00029,-0.00011,0.00056,8e-05,0.00043,-0.00034,2,21
5451,-1e-05,-0.0001,-0.00029,-0.00011,0.00056,8e-05,0.00043,-0.00034,2,21
5452,-0.00017,-0.00014,-0.00021,-0.00064,-0.00054,-0.00028,-0.00066,-0.00118,2,21
5453,-0.00017,-0.00014,-0.00021,-0.00064,-0.00054,-0.00028,-0.00066,-0.00118,2,21
5454,-0.00017,-0.00014,-0.00021,-0.00064,-0.00054,-0.00028,-0.00066,-0.00118,2,21
5455,-0.00017,-0.00014,-0.00021,-0.00064,-0.00054,-0.00028,-0.00066,-0.00118,2,21
5456,-0.00017,-0.00014,-0.00021,-0.00064,-0.00054,-0.00028,-0.00066,-0.00118,2,21
5457,-0.00017,-0.00014,-0.00021,-0.00064,-0.00054,-0.00028,-0.00066,-0.00118,2,21
5458,-0.00017,-0.00014,-0.00021,-0.00064,-0.00054,-0.00028,-0.00066,-0.00118,2,21
5459,-0.00017,-0.00014,-0.00021,-0.00064,-0.00054,-0.00028,-0.00066,-0.00118,2,21
5460,-0.00017,-0.00014,-0.00021,-0.00064,-0.00054,-0.00028,-0.00066,-0.00118,2,21
5461,-0.00017,-0.00014,-0.00021,-0.00064,-0.00054,-0.00028,-0.00066,-0.00118,2,21
5462,-0.00017,-0.00014,-0.00021,-0.00064,-0.00054,-0.00028,-0.00066,-0.00118,2,21
5463,-0.00017,-0.00014,-0.00021,-0.00064,-0.00054,-0.00028,-0.00066,-0.00118,2,21
5464,-0.00017,-0.00014,-0.00021,-0.00064,-0.00054,-0.00028,-0.00066,-0.00118,2,21
5465,-0.00017,-0.00014,-0.00021,-0.00064,-0.00054,-0.00028,-0.00066,-0.00118,2,21
5466,-0.00017,-0.00014,-0.00021,-0.00064,-0.00054,-0.00028,-0.00066,-0.00118,2,21
5467,0.0005,0.00026,0.00031,0.00053,0.00052,0.00026,0.00015,0.00019,2,21
5468,-0.00045,-9e-05,-4e-05,0.00029,0.00023,-0.00024,-0.00128,1e-05,2,21
5469,-0.00045,-9e-05,-4e-05,0.00029,0.00023,-0.00024,-0.00128,1e-05,2,21
5470,-0.00045,-9e-05,-4e-05,0.00029,0.00023,-0.00024,-0.00128,1e-05,2,21
5471,-0.00045,-9e-05,-4e-05,0.00029,0.00023,-0.00024,-0.00128,1e-05,2,21
5472,-0.00045,-9e-05,-4e-05,0.00029,0.00023,-0.00024,-0.00128,1e-05,2,21
5473,-0.00045,-9e-05,-4e-05,0.00029,0.00023,-0.00024,-0.00128,1e-05,2,21
5474,-0.00045,-9e-05,-4e-05,0.00029,0.00023,-0.00024,-0.00128,1e-05,2,21
5475,-0.00045,-9e-05,-4e-05,0.00029,0.00023,-0.00024,-0.00128,1e-05,2,21
5476,-0.00045,-9e-05,-4e-05,0.00029,0.00023,-0.00024,-0.00128,1e-05,2,21
5477,-0.00045,-9e-05,-4e-05,0.00029,0.00023,-0.00024,-0.00128,1e-05,2,21
5478,-0.00045,-9e-05,-4e-05,0.00029,0.00023,-0.00024,-0.00128,1e-05,2,21
5479,-0.00045,-9e-05,-4e-05,0.00029,0.00023,-0.00024,-0.00128,1e-05,2,21
5480,-0.00045,-9e-05,-4e-05,0.00029,0.00023,-0.00024,-0.00128,1e-05,2,21
5481,-0.00045,-9e-05,-4e-05,0.00029,0.00023,-0.00024,-0.00128,1e-05,2,21
5482,-0.00045,-9e-05,-4e-05,0.00029,0.00023,-0.00024,-0.00128,1e-05,2,21
5483,-0.00045,-9e-05,-4e-05,0.00029,0.00023,-0.00024,-0.00128,1e-05,2,21
5484,-0.00045,-9e-05,-4e-05,0.00029,0.00023,-0.00024,-0.00128,1e-05,2,21
5485,-0.00045,-9e-05,-4e-05,0.00029,0.00023,-0.00024,-0.00128,1e-05,2,21
5487,-0.00045,-9e-05,-4e-05,0.00029,0.00023,-0.00024,-0.00128,1e-05,2,21
5489,-0.00045,-9e-05,-4e-05,0.00029,0.00023,-0.00024,-0.00128,1e-05,2,21
5490,0.00011,0.00015,-0.00014,-8e-05,-0.00086,-0.00022,-0.00018,-0.00038,2,21
5491,-0.00076,1e-05,-0.00022,-0.00027,-0.00039,0.00014,0.00037,-0.00046,2,21
5492,-0.00076,1e-05,-0.00022,-0.00027,-0.00039,0.00014,0.00037,-0.00046,2,21
5493,-0.00076,1e-05,-0.00022,-0.00027,-0.00039,0.00014,0.00037,-0.00046,2,21
5494,-0.00076,1e-05,-0.00022,-0.00027,-0.00039,0.00014,0.00037,-0.00046,2,21
5495,-0.00076,1e-05,-0.00022,-0.00027,-0.00039,0.00014,0.00037,-0.00046,2,21
5496,-0.00076,1e-05,-0.00022,-0.00027,-0.00039,0.00014,0.00037,-0.00046,2,21
5497,-0.00076,1e-05,-0.00022,-0.00027,-0.00039,0.00014,0.00037,-0.00046,2,21
5498,-0.00076,1e-05,-0.00022,-0.00027,-0.00039,0.00014,0.00037,-0.00046,2,21
5499,-0.00076,1e-05,-0.00022,-0.00027,-0.00039,0.00014,0.00037,-0.00046,2,21
5500,-0.00076,1e-05,-0.00022,-0.00027,-0.00039,0.00014,0.00037,-0.00046,2,21
5501,-0.00076,1e-05,-0.00022,-0.00027,-0.00039,0.00014,0.00037,-0.00046,2,21
5502,-0.00076,1e-05,-0.00022,-0.00027,-0.00039,0.00014,0.00037,-0.00046,2,21
5503,-0.00076,1e-05,-0.00022,-0.00027,-0.00039,0.00014,0.00037,-0.00046,2,21
5504,-0.00076,1e-05,-0.00022,-0.00027,-0.00039,0.00014,0.00037,-0.00046,2,21
5505,-0.00076,1e-05,-0.00022,-0.00027,-0.00039,0.00014,0.00037,-0.00046,2,21
5506,-0.00076,1e-05,-0.00022,-0.00027,-0.00039,0.00014,0.00037,-0.00046,2,21
5507,-0.00076,1e-05,-0.00022,-0.00027,-0.00039,0.00014,0.00037,-0.00046,2,21
5508,-0.00076,1e-05,-0.00022,-0.00027,-0.00039,0.00014,0.00037,-0.00046,2,21
5509,-0.00076,1e-05,-0.00022,-0.00027,-0.00039,0.00014,0.00037,-0.00046,2,21
5510,-0.00076,1e-05,-0.00022,-0.00027,-0.00039,0.00014,0.00037,-0.00046,2,21
5511,-0.00076,1e-05,-0.00022,-0.00027,-0.00039,0.00014,0.00037,-0.00046,2,21
5512,-0.00076,1e-05,-0.00022,-0.00027,-0.00039,0.00014,0.00037,-0.00046,2,21
5513,-0.00094,-0.00011,0.00015,-5e-05,-0.00043,0.00015,0.00083,-0.00055,2,21
5514,0.00079,-0.00018,-0.00055,-0.00079,-1e-05,0.00041,0.00015,0.00086,2,21
5515,0.00079,-0.00018,-0.00055,-0.00079,-1e-05,0.00041,0.00015,0.00086,2,21
5516,0.00079,-0.00018,-0.00055,-0.00079,-1e-05,0.00041,0.00015,0.00086,2,21
5517,0.00079,-0.00018,-0.00055,-0.00079,-1e-05,0.00041,0.00015,0.00086,2,21
5518,0.00079,-0.00018,-0.00055,-0.00079,-1e-05,0.00041,0.00015,0.00086,2,21
5519,0.00079,-0.00018,-0.00055,-0.00079,-1e-05,0.00041,0.00015,0.00086,2,21
5520,0.00079,-0.00018,-0.00055,-0.00079,-1e-05,0.00041,0.00015,0.00086,2,21
5521,0.00079,-0.00018,-0.00055,-0.00079,-1e-05,0.00041,0.00015,0.00086,2,21
5522,0.00079,-0.00018,-0.00055,-0.00079,-1e-05,0.00041,0.00015,0.00086,2,21
5523,0.00079,-0.00018,-0.00055,-0.00079,-1e-05,0.00041,0.00015,0.00086,2,21
5524,0.00079,-0.00018,-0.00055,-0.00079,-1e-05,0.00041,0.00015,0.00086,2,21
5525,0.00079,-0.00018,-0.00055,-0.00079,-1e-05,0.00041,0.00015,0.00086,2,21
5526,0.00079,-0.00018,-0.00055,-0.00079,-1e-05,0.00041,0.00015,0.00086,2,21
5527,-0.00026,-0.00015,-0.00034,-0.00058,3e-05,-0.00012,-0.00052,0.00016,2,21
5528,7e-05,1e-05,0.00031,0.00053,-0.00012,-0.00031,0.00043,0.00022,2,21
5529,7e-05,1e-05,0.00031,0.00053,-0.00012,-0.00031,0.00043,0.00022,2,21
5530,7e-05,1e-05,0.00031,0.00053,-0.00012,-0.00031,0.00043,0.00022,2,21
5531,7e-05,1e-05,0.00031,0.00053,-0.00012,-0.00031,0.00043,0.00022,2,21
5532,7e-05,1e-05,0.00031,0.00053,-0.00012,-0.00031,0.00043,0.00022,2,21
5533,7e-05,1e-05,0.00031,0.00053,-0.00012,-0.00031,0.00043,0.00022,2,21
5534,7e-05,1e-05,0.00031,0.00053,-0.00012,-0.00031,0.00043,0.00022,2,21
5535,7e-05,1e-05,0.00031,0.00053,-0.00012,-0.00031,0.00043,0.00022,2,21
5537,7e-05,1e-05,0.00031,0.00053,-0.00012,-0.00031,0.00043,0.00022,2,21
5539,7e-05,1e-05,0.00031,0.00053,-0.00012,-0.00031,0.00043,0.00022,2,21
5540,7e-05,1e-05,0.00031,0.00053,-0.00012,-0.00031,0.00043,0.00022,2,21
5541,7e-05,1e-05,0.00031,0.00053,-0.00012,-0.00031,0.00043,0.00022,2,21
5542,7e-05,1e-05,0.00031,0.00053,-0.00012,-0.00031,0.00043,0.00022,2,21
5543,7e-05,1e-05,0.00031,0.00053,-0.00012,-0.00031,0.00043,0.00022,2,21
5544,7e-05,1e-05,0.00031,0.00053,-0.00012,-0.00031,0.00043,0.00022,2,21
5545,7e-05,1e-05,0.00031,0.00053,-0.00012,-0.00031,0.00043,0.00022,2,21
5546,7e-05,1e-05,0.00031,0.00053,-0.00012,-0.00031,0.00043,0.00022,2,21
5547,7e-05,1e-05,0.00031,0.00053,-0.00012,-0.00031,0.00043,0.00022,2,21
5548,7e-05,1e-05,0.00031,0.00053,-0.00012,-0.00031,0.00043,0.00022,2,21
5549,7e-05,1e-05,0.00031,0.00053,-0.00012,-0.00031,0.00043,0.00022,2,21
5550,-0.00012,8e-05,0.00036,-6e-05,0.00028,-0.00015,-0.00039,-0.00056,2,21
5551,0.00015,1e-05,-0.00019,-1e-05,-0.00024,-3e-05,-0.00026,-0.00018,2,21
5552,0.00015,1e-05,-0.00019,-1e-05,-0.00024,-3e-05,-0.00026,-0.00018,2,21
5553,0.00015,1e-05,-0.00019,-1e-05,-0.00024,-3e-05,-0.00026,-0.00018,2,21
5554,0.00015,1e-05,-0.00019,-1e-05,-0.00024,-3e-05,-0.00026,-0.00018,2,21
5555,0.00015,1e-05,-0.00019,-1e-05,-0.00024,-3e-05,-0.00026,-0.00018,2,21
5556,0.00015,1e-05,-0.00019,-1e-05,-0.00024,-3e-05,-0.00026,-0.00018,2,21
5557,0.00015,1e-05,-0.00019,-1e-05,-0.00024,-3e-05,-0.00026,-0.00018,2,21
5558,0.00015,1e-05,-0.00019,-1e-05,-0.00024,-3e-05,-0.00026,-0.00018,2,21
5559,0.00015,1e-05,-0.00019,-1e-05,-0.00024,-3e-05,-0.00026,-0.00018,2,21
5560,0.00015,1e-05,-0.00019,-1e-05,-0.00024,-3e-05,-0.00026,-0.00018,2,21
5561,0.00015,1e-05,-0.00019,-1e-05,-0.00024,-3e-05,-0.00026,-0.00018,2,21
5562,0.00015,1e-05,-0.00019,-1e-05,-0.00024,-3e-05,-0.00026,-0.00018,2,21
5563,0.00015,1e-05,-0.00019,-1e-05,-0.00024,-3e-05,-0.00026,-0.00018,2,21
5564,0.00015,1e-05,-0.00019,-1e-05,-0.00024,-3e-05,-0.00026,-0.00018,2,21
5565,0.00015,1e-05,-0.00019,-1e-05,-0.00024,-3e-05,-0.00026,-0.00018,2,21
5566,0.00015,1e-05,-0.00019,-1e-05,-0.00024,-3e-05,-0.00026,-0.00018,2,21
5567,0.00015,1e-05,-0.00019,-1e-05,-0.00024,-3e-05,-0.00026,-0.00018,2,21
5568,0.00015,1e-05,-0.00019,-1e-05,-0.00024,-3e-05,-0.00026,-0.00018,2,21
5569,0.00015,1e-05,-0.00019,-1e-05,-0.00024,-3e-05,-0.00026,-0.00018,2,21
5570,0.00015,1e-05,-0.00019,-1e-05,-0.00024,-3e-05,-0.00026,-0.00018,2,21
5571,0.00015,1e-05,-0.00019,-1e-05,-0.00024,-3e-05,-0.00026,-0.00018,2,21
5572,0.00015,1e-05,-0.00019,-1e-05,-0.00024,-3e-05,-0.00026,-0.00018,2,21
5573,0.00081,0.00011,0.00025,-0.00016,0.00019,0.0001,0.00029,0.00097,2,21
5574,0.0007,0.00019,2e-05,7e-05,-0.00023,-0.00023,-0.00048,-0.00122,2,21
5575,0.0007,0.00019,2e-05,7e-05,-0.00023,-0.00023,-0.00048,-0.00122,2,21
5576,0.0007,0.00019,2e-05,7e-05,-0.00023,-0.00023,-0.00048,-0.00122,2,21
5577,0.0007,0.00019,2e-05,7e-05,-0.00023,-0.00023,-0.00048,-0.00122,2,21
5578,0.0007,0.00019,2e-05,7e-05,-0.00023,-0.00023,-0.00048,-0.00122,2,21
5579,0.0007,0.00019,2e-05,7e-05,-0.00023,-0.00023,-0.00048,-0.00122,2,21
5580,0.0007,0.00019,2e-05,7e-05,-0.00023,-0.00023,-0.00048,-0.00122,2,21
5581,0.0007,0.00019,2e-05,7e-05,-0.00023,-0.00023,-0.00048,-0.00122,2,21
5582,0.0007,0.00019,2e-05,7e-05,-0.00023,-0.00023,-0.00048,-0.00122,2,21
5583,0.0007,0.00019,2e-05,7e-05,-0.00023,-0.00023,-0.00048,-0.00122,2,21
5584,0.0007,0.00019,2e-05,7e-05,-0.00023,-0.00023,-0.00048,-0.00122,2,21
5585,0.0007,0.00019,2e-05,7e-05,-0.00023,-0.00023,-0.00048,-0.00122,2,21
5587,0.00022,-4e-05,-0.00042,-9e-05,-0.0002,-0.0001,6e-05,-0.00016,2,21
5589,0.00018,0.00014,0.00028,0.00073,0.00024,-0.00012,0.00089,-0.0007,2,21
5590,0.00018,0.00014,0.00028,0.00073,0.00024,-0.00012,0.00089,-0.0007,2,21
5591,0.00018,0.00014,0.00028,0.00073,0.00024,-0.00012,0.00089,-0.0007,2,21
5592,0.00018,0.00014,0.00028,0.00073,0.00024,-0.00012,0.00089,-0.0007,2,21
5593,0.00018,0.00014,0.00028,0.00073,0.00024,-0.00012,0.00089,-0.0007,2,21
5594,0.00018,0.00014,0.00028,0.00073,0.00024,-0.00012,0.00089,-0.0007,2,21
5595,0.00018,0.00014,0.00028,0.00073,0.00024,-0.00012,0.00089,-0.0007,2,21
5596,0.00018,0.00014,0.00028,0.00073,0.00024,-0.00012,0.00089,-0.0007,2,21
5597,0.00018,0.00014,0.00028,0.00073,0.00024,-0.00012,0.00089,-0.0007,2,21
5598,0.00018,0.00014,0.00028,0.00073,0.00024,-0.00012,0.00089,-0.0007,2,21
5599,0.00018,0.00014,0.00028,0.00073,0.00024,-0.00012,0.00089,-0.0007,2,21
5600,0.00018,0.00014,0.00028,0.00073,0.00024,-0.00012,0.00089,-0.0007,2,21
5601,0.00018,0.00014,0.00028,0.00073,0.00024,-0.00012,0.00089,-0.0007,2,21
5602,0.00018,0.00014,0.00028,0.00073,0.00024,-0.00012,0.00089,-0.0007,2,21
5603,0.00018,0.00014,0.00028,0.00073,0.00024,-0.00012,0.00089,-0.0007,2,21
5604,0.00018,0.00014,0.00028,0.00073,0.00024,-0.00012,0.00089,-0.0007,2,21
5605,0.00018,0.00014,0.00028,0.00073,0.00024,-0.00012,0.00089,-0.0007,2,21
5606,0.00018,0.00014,0.00028,0.00073,0.00024,-0.00012,0.00089,-0.0007,2,21
5607,0.00018,0.00014,0.00028,0.00073,0.00024,-0.00012,0.00089,-0.0007,2,21
5608,0.00018,0.00014,0.00028,0.00073,0.00024,-0.00012,0.00089,-0.0007,2,21
5609,0.00018,0.00014,0.00028,0.00073,0.00024,-0.00012,0.00089,-0.0007,2,21
5610,0.00028,-1e-05,-3e-05,9e-05,-0.00025,-0.00025,0.0007,0.00082,2,21
5611,-0.00018,-5e-05,0.0002,0.00016,-0.00012,0.0001,-0.00031,0.00047,2,21
5612,-0.00018,-5e-05,0.0002,0.00016,-0.00012,0.0001,-0.00031,0.00047,2,21
5613,-0.00018,-5e-05,0.0002,0.00016,-0.00012,0.0001,-0.00031,0.00047,2,21
5614,-0.00018,-5e-05,0.0002,0.00016,-0.00012,0.0001,-0.00031,0.00047,2,21
5615,-0.00018,-5e-05,0.0002,0.00016,-0.00012,0.0001,-0.00031,0.00047,2,21
5616,-0.00018,-5e-05,0.0002,0.00016,-0.00012,0.0001,-0.00031,0.00047,2,21
5617,-0.00018,-5e-05,0.0002,0.00016,-0.00012,0.0001,-0.00031,0.00047,2,21
5618,-0.00018,-5e-05,0.0002,0.00016,-0.00012,0.0001,-0.00031,0.00047,2,21
5619,-0.00018,-5e-05,0.0002,0.00016,-0.00012,0.0001,-0.00031,0.00047,2,21
5620,-0.00018,-5e-05,0.0002,0.00016,-0.00012,0.0001,-0.00031,0.00047,2,21
5621,-0.00018,-5e-05,0.0002,0.00016,-0.00012,0.0001,-0.00031,0.00047,2,21
5622,-0.00018,-5e-05,0.0002,0.00016,-0.00012,0.0001,-0.00031,0.00047,2,21
5623,-0.00018,-5e-05,0.0002,0.00016,-0.00012,0.0001,-0.00031,0.00047,2,21
5624,-0.00018,-5e-05,0.0002,0.00016,-0.00012,0.0001,-0.00031,0.00047,2,21
5625,-0.00018,-5e-05,0.0002,0.00016,-0.00012,0.0001,-0.00031,0.00047,2,21
5626,-0.00018,-5e-05,0.0002,0.00016,-0.00012,0.0001,-0.00031,0.00047,2,21
5627,-0.00018,-5e-05,0.0002,0.00016,-0.00012,0.0001,-0.00031,0.00047,2,21
5628,-0.00018,-5e-05,0.0002,0.00016,-0.00012,0.0001,-0.00031,0.00047,2,21
5629,-0.00018,-5e-05,0.0002,0.00016,-0.00012,0.0001,-0.00031,0.00047,2,21
5630,-0.00018,-5e-05,0.0002,0.00016,-0.00012,0.0001,-0.00031,0.00047,2,21
5631,-0.00018,-5e-05,0.0002,0.00016,-0.00012,0.0001,-0.00031,0.00047,2,21
5632,-0.00018,-5e-05,0.0002,0.00016,-0.00012,0.0001,-0.00031,0.00047,2,21
5633,-0.00021,4e-05,0.00029,0.0005,-6e-05,-0.00043,-0.00016,-0.00115,2,21
5634,-0.00114,-0.00011,-0.00041,-0.00037,0.00021,0.00077,-0.00011,0.00052,2,21
5635,-0.00114,-0.00011,-0.00041,-0.00037,0.00021,0.00077,-0.00011,0.00052,2,21
5637,-0.00114,-0.00011,-0.00041,-0.00037,0.00021,0.00077,-0.00011,0.00052,2,21
5639,-0.00114,-0.00011,-0.00041,-0.00037,0.00021,0.00077,-0.00011,0.00052,2,21
5640,-0.00114,-0.00011,-0.00041,-0.00037,0.00021,0.00077,-0.00011,0.00052,2,21
5641,-0.00114,-0.00011,-0.00041,-0.00037,0.00021,0.00077,-0.00011,0.00052,2,21
5642,-0.00114,-0.00011,-0.00041,-0.00037,0.00021,0.00077,-0.00011,0.00052,2,21
5643,-0.00114,-0.00011,-0.00041,-0.00037,0.00021,0.00077,-0.00011,0.00052,2,21
5644,-0.00114,-0.00011,-0.00041,-0.00037,0.00021,0.00077,-0.00011,0.00052,2,21
5645,-0.00114,-0.00011,-0.00041,-0.00037,0.00021,0.00077,-0.00011,0.00052,2,21
5646,-0.00114,-0.00011,-0.00041,-0.00037,0.00021,0.00077,-0.00011,0.00052,2,21
5647,0.00037,0.00012,-6e-05,0.00017,-0.0003,-0.00016,0.00047,0.00043,2,21
5649,-4e-05,-0.00023,-0.00048,-0.00041,0.00013,-0.00057,-0.00037,-0.00084,2,21
5650,-4e-05,-0.00023,-0.00048,-0.00041,0.00013,-0.00057,-0.00037,-0.00084,2,21
5651,-4e-05,-0.00023,-0.00048,-0.00041,0.00013,-0.00057,-0.00037,-0.00084,2,21
5652,-4e-05,-0.00023,-0.00048,-0.00041,0.00013,-0.00057,-0.00037,-0.00084,2,21
5653,-4e-05,-0.00023,-0.00048,-0.00041,0.00013,-0.00057,-0.00037,-0.00084,2,21
5654,-4e-05,-0.00023,-0.00048,-0.00041,0.00013,-0.00057,-0.00037,-0.00084,2,21
5655,-4e-05,-0.00023,-0.00048,-0.00041,0.00013,-0.00057,-0.00037,-0.00084,2,21
5656,-4e-05,-0.00023,-0.00048,-0.00041,0.00013,-0.00057,-0.00037,-0.00084,2,21
5657,-4e-05,-0.00023,-0.00048,-0.00041,0.00013,-0.00057,-0.00037,-0.00084,2,21
5658,-4e-05,-0.00023,-0.00048,-0.00041,0.00013,-0.00057,-0.00037,-0.00084,2,21
5659,-4e-05,-0.00023,-0.00048,-0.00041,0.00013,-0.00057,-0.00037,-0.00084,2,21
5660,-4e-05,-0.00023,-0.00048,-0.00041,0.00013,-0.00057,-0.00037,-0.00084,2,21
5661,-4e-05,-0.00023,-0.00048,-0.00041,0.00013,-0.00057,-0.00037,-0.00084,2,21
5662,-4e-05,-0.00023,-0.00048,-0.00041,0.00013,-0.00057,-0.00037,-0.00084,2,21
5663,-4e-05,-0.00023,-0.00048,-0.00041,0.00013,-0.00057,-0.00037,-0.00084,2,21
5664,-4e-05,-0.00023,-0.00048,-0.00041,0.00013,-0.00057,-0.00037,-0.00084,2,21
5665,-4e-05,-0.00023,-0.00048,-0.00041,0.00013,-0.00057,-0.00037,-0.00084,2,21
5666,-4e-05,-0.00023,-0.00048,-0.00041,0.00013,-0.00057,-0.00037,-0.00084,2,21
5667,-4e-05,-0.00023,-0.00048,-0.00041,0.00013,-0.00057,-0.00037,-0.00084,2,21
5668,-4e-05,-0.00023,-0.00048,-0.00041,0.00013,-0.00057,-0.00037,-0.00084,2,21
5669,-4e-05,-0.00023,-0.00048,-0.00041,0.00013,-0.00057,-0.00037,-0.00084,2,21
5670,-0.00038,-0.00014,-0.0001,-0.00015,-0.00022,-0.00057,0.00095,-0.00128,2,21
5671,-0.00081,-0.00036,-0.00049,-0.0005,-0.00021,5e-05,-4e-05,0.00027,2,21
5672,-0.00081,-0.00036,-0.00049,-0.0005,-0.00021,5e-05,-4e-05,0.00027,2,21
5673,-0.00081,-0.00036,-0.00049,-0.0005,-0.00021,5e-05,-4e-05,0.00027,2,21
5674,-0.00081,-0.00036,-0.00049,-0.0005,-0.00021,5e-05,-4e-05,0.00027,2,21
5675,-0.00081,-0.00036,-0.00049,-0.0005,-0.00021,5e-05,-4e-05,0.00027,2,21
5676,-0.00081,-0.00036,-0.00049,-0.0005,-0.00021,5e-05,-4e-05,0.00027,2,21
5677,-0.00081,-0.00036,-0.00049,-0.0005,-0.00021,5e-05,-4e-05,0.00027,2,21
5678,-0.00081,-0.00036,-0.00049,-0.0005,-0.00021,5e-05,-4e-05,0.00027,2,21
5679,-0.00081,-0.00036,-0.00049,-0.0005,-0.00021,5e-05,-4e-05,0.00027,2,21
5680,-0.00081,-0.00036,-0.00049,-0.0005,-0.00021,5e-05,-4e-05,0.00027,2,21
5681,-0.00081,-0.00036,-0.00049,-0.0005,-0.00021,5e-05,-4e-05,0.00027,2,21
5682,-0.00081,-0.00036,-0.00049,-0.0005,-0.00021,5e-05,-4e-05,0.00027,2,21
5683,-0.00081,-0.00036,-0.00049,-0.0005,-0.00021,5e-05,-4e-05,0.00027,2,21
5684,-0.00081,-0.00036,-0.00049,-0.0005,-0.00021,5e-05,-4e-05,0.00027,2,21
5685,-0.00081,-0.00036,-0.00049,-0.0005,-0.00021,5e-05,-4e-05,0.00027,2,21
5687,-0.00081,-0.00036,-0.00049,-0.0005,-0.00021,5e-05,-4e-05,0.00027,2,21
5689,-0.00081,-0.00036,-0.00049,-0.0005,-0.00021,5e-05,-4e-05,0.00027,2,21
5690,-0.00081,-0.00036,-0.00049,-0.0005,-0.00021,5e-05,-4e-05,0.00027,2,21
5691,-0.00081,-0.00036,-0.00049,-0.0005,-0.00021,5e-05,-4e-05,0.00027,2,21
5692,-0.00081,-0.00036,-0.00049,-0.0005,-0.00021,5e-05,-4e-05,0.00027,2,21
5693,0.00013,2e-05,-0.00021,0.00012,0.00014,-0.00018,-0.00023,-0.00045,2,21
5694,-5e-05,4e-05,8e-05,-0.00029,0.00026,0.0008,0.00036,0.00107,2,21
5695,-5e-05,4e-05,8e-05,-0.00029,0.00026,0.0008,0.00036,0.00107,2,21
5696,-5e-05,4e-05,8e-05,-0.00029,0.00026,0.0008,0.00036,0.00107,2,21
5697,-5e-05,4e-05,8e-05,-0.00029,0.00026,0.0008,0.00036,0.00107,2,21
5699,-5e-05,4e-05,8e-05,-0.00029,0.00026,0.0008,0.00036,0.00107,2,21
5700,-5e-05,4e-05,8e-05,-0.00029,0.00026,0.0008,0.00036,0.00107,2,21
5701,-5e-05,4e-05,8e-05,-0.00029,0.00026,0.0008,0.00036,0.00107,2,21
5702,-5e-05,4e-05,8e-05,-0.00029,0.00026,0.0008,0.00036,0.00107,2,21
5703,-5e-05,4e-05,8e-05,-0.00029,0.00026,0.0008,0.00036,0.00107,2,21
5704,-5e-05,4e-05,8e-05,-0.00029,0.00026,0.0008,0.00036,0.00107,2,21
5705,-5e-05,4e-05,8e-05,-0.00029,0.00026,0.0008,0.00036,0.00107,2,21
5706,-5e-05,4e-05,8e-05,-0.00029,0.00026,0.0008,0.00036,0.00107,2,21
5707,-0.00028,4e-05,0.00038,0.00067,0.00014,0.00042,-0.0005,-9e-05,2,21
5708,0.00033,-0.00011,-0.00051,0.00012,-0.00038,-0.00061,-0.00098,5e-05,2,21
5709,0.00033,-0.00011,-0.00051,0.00012,-0.00038,-0.00061,-0.00098,5e-05,2,21
5710,0.00033,-0.00011,-0.00051,0.00012,-0.00038,-0.00061,-0.00098,5e-05,2,21
5711,0.00033,-0.00011,-0.00051,0.00012,-0.00038,-0.00061,-0.00098,5e-05,2,21
5712,0.00033,-0.00011,-0.00051,0.00012,-0.00038,-0.00061,-0.00098,5e-05,2,21
5713,0.00033,-0.00011,-0.00051,0.00012,-0.00038,-0.00061,-0.00098,5e-05,2,21
5714,0.00033,-0.00011,-0.00051,0.00012,-0.00038,-0.00061,-0.00098,5e-05,2,21
5715,0.00033,-0.00011,-0.00051,0.00012,-0.00038,-0.00061,-0.00098,5e-05,2,21
5716,0.00033,-0.00011,-0.00051,0.00012,-0.00038,-0.00061,-0.00098,5e-05,2,21
5717,0.00033,-0.00011,-0.00051,0.00012,-0.00038,-0.00061,-0.00098,5e-05,2,21
5718,0.00033,-0.00011,-0.00051,0.00012,-0.00038,-0.00061,-0.00098,5e-05,2,21
5719,0.00033,-0.00011,-0.00051,0.00012,-0.00038,-0.00061,-0.00098,5e-05,2,21
5720,0.00033,-0.00011,-0.00051,0.00012,-0.00038,-0.00061,-0.00098,5e-05,2,21
5721,0.00033,-0.00011,-0.00051,0.00012,-0.00038,-0.00061,-0.00098,5e-05,2,21
5722,0.00033,-0.00011,-0.00051,0.00012,-0.00038,-0.00061,-0.00098,5e-05,2,21
5723,0.00033,-0.00011,-0.00051,0.00012,-0.00038,-0.00061,-0.00098,5e-05,2,21
5724,0.00033,-0.00011,-0.00051,0.00012,-0.00038,-0.00061,-0.00098,5e-05,2,21
5725,0.00033,-0.00011,-0.00051,0.00012,-0.00038,-0.00061,-0.00098,5e-05,2,21
5726,0.00033,-0.00011,-0.00051,0.00012,-0.00038,-0.00061,-0.00098,5e-05,2,21
5727,0.00033,-0.00011,-0.00051,0.00012,-0.00038,-0.00061,-0.00098,5e-05,2,21
5728,0.00033,-0.00011,-0.00051,0.00012,-0.00038,-0.00061,-0.00098,5e-05,2,21
5729,0.00033,-0.00011,-0.00051,0.00012,-0.00038,-0.00061,-0.00098,5e-05,2,21
5730,0.00047,1e-05,6e-05,-0.00059,0.00062,0.00044,8e-05,-0.00064,2,21
5731,0.00042,0.00011,0.00027,4e-05,0.00032,-0.00012,-0.00028,-0.00013,2,21
5732,0.00042,0.00011,0.00027,4e-05,0.00032,-0.00012,-0.00028,-0.00013,2,21
5733,0.00042,0.00011,0.00027,4e-05,0.00032,-0.00012,-0.00028,-0.00013,2,21
5734,0.00042,0.00011,0.00027,4e-05,0.00032,-0.00012,-0.00028,-0.00013,2,21
5735,0.00042,0.00011,0.00027,4e-05,0.00032,-0.00012,-0.00028,-0.00013,2,21
5737,0.00042,0.00011,0.00027,4e-05,0.00032,-0.00012,-0.00028,-0.00013,2,21
5739,0.00042,0.00011,0.00027,4e-05,0.00032,-0.00012,-0.00028,-0.00013,2,21
5740,0.00042,0.00011,0.00027,4e-05,0.00032,-0.00012,-0.00028,-0.00013,2,21
5741,0.00042,0.00011,0.00027,4e-05,0.00032,-0.00012,-0.00028,-0.00013,2,21
5742,0.00042,0.00011,0.00027,4e-05,0.00032,-0.00012,-0.00028,-0.00013,2,21
5743,0.00042,0.00011,0.00027,4e-05,0.00032,-0.00012,-0.00028,-0.00013,2,21
5744,0.00042,0.00011,0.00027,4e-05,0.00032,-0.00012,-0.00028,-0.00013,2,21
5745,0.00042,0.00011,0.00027,4e-05,0.00032,-0.00012,-0.00028,-0.00013,2,21
5746,0.00042,0.00011,0.00027,4e-05,0.00032,-0.00012,-0.00028,-0.00013,2,21
5747,0.00042,0.00011,0.00027,4e-05,0.00032,-0.00012,-0.00028,-0.00013,2,21
5748,0.00042,0.00011,0.00027,4e-05,0.00032,-0.00012,-0.00028,-0.00013,2,21
5749,0.00042,0.00011,0.00027,4e-05,0.00032,-0.00012,-0.00028,-0.00013,2,21
5750,0.00042,0.00011,0.00027,4e-05,0.00032,-0.00012,-0.00028,-0.00013,2,21
5751,0.00042,0.00011,0.00027,4e-05,0.00032,-0.00012,-0.00028,-0.00013,2,21
5752,0.00042,0.00011,0.00027,4e-05,0.00032,-0.00012,-0.00028,-0.00013,2,21
5753,0.00038,-2e-05,-0.00023,-0.00047,0.00016,3e-05,0.00018,-0.00027,2,21
5754,0.00038,-2e-05,-0.00023,-0.00047,0.00016,3e-05,0.00018,-0.00027,2,21
5755,0.00038,-2e-05,-0.00023,-0.00047,0.00016,3e-05,0.00018,-0.00027,2,21
5756,0.00038,-2e-05,-0.00023,-0.00047,0.00016,3e-05,0.00018,-0.00027,2,21
5757,0.00038,-2e-05,-0.00023,-0.00047,0.00016,3e-05,0.00018,-0.00027,2,21
5758,0.00038,-2e-05,-0.00023,-0.00047,0.00016,3e-05,0.00018,-0.00027,2,21
5759,0.00038,-2e-05,-0.00023,-0.00047,0.00016,3e-05,0.00018,-0.00027,2,21
5760,0.00038,-2e-05,-0.00023,-0.00047,0.00016,3e-05,0.00018,-0.00027,2,21
5761,0.00038,-2e-05,-0.00023,-0.00047,0.00016,3e-05,0.00018,-0.00027,2,21
5762,0.00038,-2e-05,-0.00023,-0.00047,0.00016,3e-05,0.00018,-0.00027,2,21
5763,0.00038,-2e-05,-0.00023,-0.00047,0.00016,3e-05,0.00018,-0.00027,2,21
5764,0.00038,-2e-05,-0.00023,-0.00047,0.00016,3e-05,0.00018,-0.00027,2,21
5765,0.00038,-2e-05,-0.00023,-0.00047,0.00016,3e-05,0.00018,-0.00027,2,21
5766,0.00038,-2e-05,-0.00023,-0.00047,0.00016,3e-05,0.00018,-0.00027,2,21
5767,-0.00055,8e-05,0.00038,0.00063,0.00012,0.00057,0.00078,-0.0001,2,21
5768,0.00057,0.00014,-0.00018,0.00018,0.00017,-0.00025,0.00045,0.00046,2,21
5769,0.00057,0.00014,-0.00018,0.00018,0.00017,-0.00025,0.00045,0.00046,2,21
5770,0.00057,0.00014,-0.00018,0.00018,0.00017,-0.00025,0.00045,0.00046,2,21
5771,0.00057,0.00014,-0.00018,0.00018,0.00017,-0.00025,0.00045,0.00046,2,21
5772,0.00057,0.00014,-0.00018,0.00018,0.00017,-0.00025,0.00045,0.00046,2,21
5773,0.00057,0.00014,-0.00018,0.00018,0.00017,-0.00025,0.00045,0.00046,2,21
5774,0.00057,0.00014,-0.00018,0.00018,0.00017,-0.00025,0.00045,0.00046,2,21
5775,0.00057,0.00014,-0.00018,0.00018,0.00017,-0.00025,0.00045,0.00046,2,21
5776,0.00057,0.00014,-0.00018,0.00018,0.00017,-0.00025,0.00045,0.00046,2,21
5777,0.00057,0.00014,-0.00018,0.00018,0.00017,-0.00025,0.00045,0.00046,2,21
5778,0.00057,0.00014,-0.00018,0.00018,0.00017,-0.00025,0.00045,0.00046,2,21
5779,0.00057,0.00014,-0.00018,0.00018,0.00017,-0.00025,0.00045,0.00046,2,21
5780,0.00057,0.00014,-0.00018,0.00018,0.00017,-0.00025,0.00045,0.00046,2,21
5781,0.00057,0.00014,-0.00018,0.00018,0.00017,-0.00025,0.00045,0.00046,2,21
5782,0.00057,0.00014,-0.00018,0.00018,0.00017,-0.00025,0.00045,0.00046,2,21
5783,0.00057,0.00014,-0.00018,0.00018,0.00017,-0.00025,0.00045,0.00046,2,21
5784,0.00057,0.00014,-0.00018,0.00018,0.00017,-0.00025,0.00045,0.00046,2,21
5785,0.00057,0.00014,-0.00018,0.00018,0.00017,-0.00025,0.00045,0.00046,2,21
5787,0.00057,0.00014,-0.00018,0.00018,0.00017,-0.00025,0.00045,0.00046,2,21
5789,0.00057,0.00014,-0.00018,0.00018,0.00017,-0.00025,0.00045,0.00046,2,21
5790,0.0003,-0.0002,0.00015,0.00022,-0.00013,-0.00025,-0.00073,0.00127,2,21
5791,-0.0005,3e-05,-0.00016,-0.0005,4e-05,0.00019,0.00048,-0.00128,2,21
5792,-0.00022,4e-05,8e-05,0.00019,-0.0001,-0.0003,0.00087,0.00028,2,21
5793,-0.00022,4e-05,8e-05,0.00019,-0.0001,-0.0003,0.00087,0.00028,2,21
5794,-0.00022,4e-05,8e-05,0.00019,-0.0001,-0.0003,0.00087,0.00028,2,21
5795,-0.00022,4e-05,8e-05,0.00019,-0.0001,-0.0003,0.00087,0.00028,2,21
5796,-0.00022,4e-05,8e-05,0.00019,-0.0001,-0.0003,0.00087,0.00028,2,21
5797,-0.00022,4e-05,8e-05,0.00019,-0.0001,-0.0003,0.00087,0.00028,2,21
5798,-0.00022,4e-05,8e-05,0.00019,-0.0001,-0.0003,0.00087,0.00028,2,21
5799,-0.00022,4e-05,8e-05,0.00019,-0.0001,-0.0003,0.00087,0.00028,2,21
5800,-0.00022,4e-05,8e-05,0.00019,-0.0001,-0.0003,0.00087,0.00028,2,21
5801,-0.00022,4e-05,8e-05,0.00019,-0.0001,-0.0003,0.00087,0.00028,2,21
5802,-0.00022,4e-05,8e-05,0.00019,-0.0001,-0.0003,0.00087,0.00028,2,21
5803,-0.00022,4e-05,8e-05,0.00019,-0.0001,-0.0003,0.00087,0.00028,2,21
5804,-0.00022,4e-05,8e-05,0.00019,-0.0001,-0.0003,0.00087,0.00028,2,21
5805,-0.00022,4e-05,8e-05,0.00019,-0.0001,-0.0003,0.00087,0.00028,2,21
5806,-0.00022,4e-05,8e-05,0.00019,-0.0001,-0.0003,0.00087,0.00028,2,21
5807,-0.00022,4e-05,8e-05,0.00019,-0.0001,-0.0003,0.00087,0.00028,2,21
5808,-0.00022,4e-05,8e-05,0.00019,-0.0001,-0.0003,0.00087,0.00028,2,21
5809,-0.00022,4e-05,8e-05,0.00019,-0.0001,-0.0003,0.00087,0.00028,2,21
5810,-0.00022,4e-05,8e-05,0.00019,-0.0001,-0.0003,0.00087,0.00028,2,21
5811,-0.00022,4e-05,8e-05,0.00019,-0.0001,-0.0003,0.00087,0.00028,2,21
5812,-0.00022,4e-05,8e-05,0.00019,-0.0001,-0.0003,0.00087,0.00028,2,21
5813,-4e-05,1e-05,1e-05,-0.00097,-0.00033,-0.00083,-0.00067,0.00076,2,21
5814,0.00091,-3e-05,0,-0.00024,0.00019,-0.00036,-0.00061,-0.00027,2,21
5815,0.00091,-3e-05,0,-0.00024,0.00019,-0.00036,-0.00061,-0.00027,2,21
5816,0.00091,-3e-05,0,-0.00024,0.00019,-0.00036,-0.00061,-0.00027,2,21
5817,0.00091,-3e-05,0,-0.00024,0.00019,-0.00036,-0.00061,-0.00027,2,21
5818,0.00091,-3e-05,0,-0.00024,0.00019,-0.00036,-0.00061,-0.00027,2,21
5819,0.00091,-3e-05,0,-0.00024,0.00019,-0.00036,-0.00061,-0.00027,2,21
5820,0.00091,-3e-05,0,-0.00024,0.00019,-0.00036,-0.00061,-0.00027,2,21
5821,0.00091,-3e-05,0,-0.00024,0.00019,-0.00036,-0.00061,-0.00027,2,21
5822,0.00091,-3e-05,0,-0.00024,0.00019,-0.00036,-0.00061,-0.00027,2,21
5823,0.00091,-3e-05,0,-0.00024,0.00019,-0.00036,-0.00061,-0.00027,2,21
5824,0.00091,-3e-05,0,-0.00024,0.00019,-0.00036,-0.00061,-0.00027,2,21
5825,0.00091,-3e-05,0,-0.00024,0.00019,-0.00036,-0.00061,-0.00027,2,21
5826,0.00091,-3e-05,0,-0.00024,0.00019,-0.00036,-0.00061,-0.00027,2,21
5827,-0.00047,-0.00029,-0.00046,-0.00045,-0.00024,0.00014,0.00019,-0.00039,2,21
5828,-0.00038,0.00014,0.00088,0.00062,-0.00013,-0.00012,-0.00065,0.00011,2,21
5829,-0.00038,0.00014,0.00088,0.00062,-0.00013,-0.00012,-0.00065,0.00011,2,21
5830,-0.00038,0.00014,0.00088,0.00062,-0.00013,-0.00012,-0.00065,0.00011,2,21
5831,-0.00038,0.00014,0.00088,0.00062,-0.00013,-0.00012,-0.00065,0.00011,2,21
5832,-0.00038,0.00014,0.00088,0.00062,-0.00013,-0.00012,-0.00065,0.00011,2,21
5833,-0.00038,0.00014,0.00088,0.00062,-0.00013,-0.00012,-0.00065,0.00011,2,21
5834,-0.00038,0.00014,0.00088,0.00062,-0.00013,-0.00012,-0.00065,0.00011,2,21
5835,-0.00038,0.00014,0.00088,0.00062,-0.00013,-0.00012,-0.00065,0.00011,2,21
5837,-0.00038,0.00014,0.00088,0.00062,-0.00013,-0.00012,-0.00065,0.00011,2,21
5839,-0.00038,0.00014,0.00088,0.00062,-0.00013,-0.00012,-0.00065,0.00011,2,21
5840,-0.00038,0.00014,0.00088,0.00062,-0.00013,-0.00012,-0.00065,0.00011,2,21
5841,-0.00038,0.00014,0.00088,0.00062,-0.00013,-0.00012,-0.00065,0.00011,2,21
5842,-0.00038,0.00014,0.00088,0.00062,-0.00013,-0.00012,-0.00065,0.00011,2,21
5843,-0.00038,0.00014,0.00088,0.00062,-0.00013,-0.00012,-0.00065,0.00011,2,21
5844,-0.00038,0.00014,0.00088,0.00062,-0.00013,-0.00012,-0.00065,0.00011,2,21
5845,-0.00038,0.00014,0.00088,0.00062,-0.00013,-0.00012,-0.00065,0.00011,2,21
5846,-0.00038,0.00014,0.00088,0.00062,-0.00013,-0.00012,-0.00065,0.00011,2,21
5847,-0.00038,0.00014,0.00088,0.00062,-0.00013,-0.00012,-0.00065,0.00011,2,21
5848,-0.00038,0.00014,0.00088,0.00062,-0.00013,-0.00012,-0.00065,0.00011,2,21
5849,-0.00038,0.00014,0.00088,0.00062,-0.00013,-0.00012,-0.00065,0.00011,2,21
5850,2e-05,6e-05,0.00049,-1e-05,0.00021,0.00054,0.00059,0.00021,2,21
5851,-0.00022,6e-05,0.00066,0.00125,-0.00028,-0.0002,0.00044,0.00039,2,21
5852,-0.00022,6e-05,0.00066,0.00125,-0.00028,-0.0002,0.00044,0.00039,2,21
5853,-0.00022,6e-05,0.00066,0.00125,-0.00028,-0.0002,0.00044,0.00039,2,21
5854,-0.00022,6e-05,0.00066,0.00125,-0.00028,-0.0002,0.00044,0.00039,2,21
5855,-0.00022,6e-05,0.00066,0.00125,-0.00028,-0.0002,0.00044,0.00039,2,21
5856,-0.00022,6e-05,0.00066,0.00125,-0.00028,-0.0002,0.00044,0.00039,2,21
5857,-0.00022,6e-05,0.00066,0.00125,-0.00028,-0.0002,0.00044,0.00039,2,21
5858,-0.00022,6e-05,0.00066,0.00125,-0.00028,-0.0002,0.00044,0.00039,2,21
5859,-0.00022,6e-05,0.00066,0.00125,-0.00028,-0.0002,0.00044,0.00039,2,21
5860,-0.00022,6e-05,0.00066,0.00125,-0.00028,-0.0002,0.00044,0.00039,2,21
5861,-0.00022,6e-05,0.00066,0.00125,-0.00028,-0.0002,0.00044,0.00039,2,21
5862,-0.00022,6e-05,0.00066,0.00125,-0.00028,-0.0002,0.00044,0.00039,2,21
5863,-0.00022,6e-05,0.00066,0.00125,-0.00028,-0.0002,0.00044,0.00039,2,21
5864,-0.00022,6e-05,0.00066,0.00125,-0.00028,-0.0002,0.00044,0.00039,2,21
5865,-0.00022,6e-05,0.00066,0.00125,-0.00028,-0.0002,0.00044,0.00039,2,21
5866,-0.00022,6e-05,0.00066,0.00125,-0.00028,-0.0002,0.00044,0.00039,2,21
5867,-0.00022,6e-05,0.00066,0.00125,-0.00028,-0.0002,0.00044,0.00039,2,21
5868,-0.00022,6e-05,0.00066,0.00125,-0.00028,-0.0002,0.00044,0.00039,2,21
5869,-0.00022,6e-05,0.00066,0.00125,-0.00028,-0.0002,0.00044,0.00039,2,21
5870,-0.00022,6e-05,0.00066,0.00125,-0.00028,-0.0002,0.00044,0.00039,2,21
5871,-0.00022,6e-05,0.00066,0.00125,-0.00028,-0.0002,0.00044,0.00039,2,21
5872,0.0002,5e-05,-0.00025,-0.00106,0,-8e-05,-0.00026,-0.00077,2,21
5873,-0.00079,6e-05,0.00034,0.00112,0.00038,0.00065,-0.00011,-0.00013,2,21
5874,-0.0001,5e-05,0.00046,-1e-05,0.00033,-0.00039,-0.00087,-0.00085,2,21
5875,-0.0001,5e-05,0.00046,-1e-05,0.00033,-0.00039,-0.00087,-0.00085,2,21
5876,-0.0001,5e-05,0.00046,-1e-05,0.00033,-0.00039,-0.00087,-0.00085,2,21
5877,-0.0001,5e-05,0.00046,-1e-05,0.00033,-0.00039,-0.00087,-0.00085,2,21
5878,-0.0001,5e-05,0.00046,-1e-05,0.00033,-0.00039,-0.00087,-0.00085,2,21
5879,-0.0001,5e-05,0.00046,-1e-05,0.00033,-0.00039,-0.00087,-0.00085,2,21
5880,-0.0001,5e-05,0.00046,-1e-05,0.00033,-0.00039,-0.00087,-0.00085,2,21
5881,-0.0001,5e-05,0.00046,-1e-05,0.00033,-0.00039,-0.00087,-0.00085,2,21
5882,-0.0001,5e-05,0.00046,-1e-05,0.00033,-0.00039,-0.00087,-0.00085,2,21
5883,-0.0001,5e-05,0.00046,-1e-05,0.00033,-0.00039,-0.00087,-0.00085,2,21
5884,-0.0001,5e-05,0.00046,-1e-05,0.00033,-0.00039,-0.00087,-0.00085,2,21
5885,-0.0001,5e-05,0.00046,-1e-05,0.00033,-0.00039,-0.00087,-0.00085,2,21
5887,2e-05,-8e-05,-0.00042,-0.00034,6e-05,-0.00051,-0.00011,-0.00025,2,21
5889,-0.00027,3e-05,0.00017,0.00045,-0.00052,-0.00075,-0.00028,0.00023,2,21
5890,-0.00027,3e-05,0.00017,0.00045,-0.00052,-0.00075,-0.00028,0.00023,2,21
5891,-0.00027,3e-05,0.00017,0.00045,-0.00052,-0.00075,-0.00028,0.00023,2,21
5892,-0.00027,3e-05,0.00017,0.00045,-0.00052,-0.00075,-0.00028,0.00023,2,21
5893,-0.00027,3e-05,0.00017,0.00045,-0.00052,-0.00075,-0.00028,0.00023,2,21
5894,-0.00027,3e-05,0.00017,0.00045,-0.00052,-0.00075,-0.00028,0.00023,2,21
5895,-0.00027,3e-05,0.00017,0.00045,-0.00052,-0.00075,-0.00028,0.00023,2,21
5896,-0.00027,3e-05,0.00017,0.00045,-0.00052,-0.00075,-0.00028,0.00023,2,21
5897,-0.00027,3e-05,0.00017,0.00045,-0.00052,-0.00075,-0.00028,0.00023,2,21
5898,-0.00027,3e-05,0.00017,0.00045,-0.00052,-0.00075,-0.00028,0.00023,2,21
5899,-0.00027,3e-05,0.00017,0.00045,-0.00052,-0.00075,-0.00028,0.00023,2,21
5900,-0.00027,3e-05,0.00017,0.00045,-0.00052,-0.00075,-0.00028,0.00023,2,21
5901,-0.00027,3e-05,0.00017,0.00045,-0.00052,-0.00075,-0.00028,0.00023,2,21
5902,-0.00027,3e-05,0.00017,0.00045,-0.00052,-0.00075,-0.00028,0.00023,2,21
5903,-0.00027,3e-05,0.00017,0.00045,-0.00052,-0.00075,-0.00028,0.00023,2,21
5904,-0.00027,3e-05,0.00017,0.00045,-0.00052,-0.00075,-0.00028,0.00023,2,21
5905,-0.00027,3e-05,0.00017,0.00045,-0.00052,-0.00075,-0.00028,0.00023,2,21
5906,-0.00027,3e-05,0.00017,0.00045,-0.00052,-0.00075,-0.00028,0.00023,2,21
5907,-0.00027,3e-05,0.00017,0.00045,-0.00052,-0.00075,-0.00028,0.00023,2,21
5908,-0.00027,3e-05,0.00017,0.00045,-0.00052,-0.00075,-0.00028,0.00023,2,21
5909,-0.00027,3e-05,0.00017,0.00045,-0.00052,-0.00075,-0.00028,0.00023,2,21
5910,0.00052,-2e-05,-0.00054,-0.0005,2e-05,0.00031,9e-05,-0.00015,2,21
5911,-0.00041,-0.0001,-0.00084,-0.00099,-0.00029,-0.0003,-0.00021,-2e-05,2,21
5912,-0.00041,-0.0001,-0.00084,-0.00099,-0.00029,-0.0003,-0.00021,-2e-05,2,21
5913,-0.00041,-0.0001,-0.00084,-0.00099,-0.00029,-0.0003,-0.00021,-2e-05,2,21
5914,-0.00041,-0.0001,-0.00084,-0.00099,-0.00029,-0.0003,-0.00021,-2e-05,2,21
5915,-0.00041,-0.0001,-0.00084,-0.00099,-0.00029,-0.0003,-0.00021,-2e-05,2,21
5916,-0.00041,-0.0001,-0.00084,-0.00099,-0.00029,-0.0003,-0.00021,-2e-05,2,21
5917,-0.00041,-0.0001,-0.00084,-0.00099,-0.00029,-0.0003,-0.00021,-2e-05,2,21
5918,-0.00041,-0.0001,-0.00084,-0.00099,-0.00029,-0.0003,-0.00021,-2e-05,2,21
5919,-0.00041,-0.0001,-0.00084,-0.00099,-0.00029,-0.0003,-0.00021,-2e-05,2,21
5920,-0.00041,-0.0001,-0.00084,-0.00099,-0.00029,-0.0003,-0.00021,-2e-05,2,21
5921,-0.00041,-0.0001,-0.00084,-0.00099,-0.00029,-0.0003,-0.00021,-2e-05,2,21
5922,-0.00041,-0.0001,-0.00084,-0.00099,-0.00029,-0.0003,-0.00021,-2e-05,2,21
5923,-0.00041,-0.0001,-0.00084,-0.00099,-0.00029,-0.0003,-0.00021,-2e-05,2,21
5924,-0.00041,-0.0001,-0.00084,-0.00099,-0.00029,-0.0003,-0.00021,-2e-05,2,21
5925,-0.00041,-0.0001,-0.00084,-0.00099,-0.00029,-0.0003,-0.00021,-2e-05,2,21
5926,-0.00041,-0.0001,-0.00084,-0.00099,-0.00029,-0.0003,-0.00021,-2e-05,2,21
5927,-0.00041,-0.0001,-0.00084,-0.00099,-0.00029,-0.0003,-0.00021,-2e-05,2,21
5928,-0.00041,-0.0001,-0.00084,-0.00099,-0.00029,-0.0003,-0.00021,-2e-05,2,21
5929,-0.00041,-0.0001,-0.00084,-0.00099,-0.00029,-0.0003,-0.00021,-2e-05,2,21
5930,-0.00041,-0.0001,-0.00084,-0.00099,-0.00029,-0.0003,-0.00021,-2e-05,2,21
5931,-0.00041,-0.0001,-0.00084,-0.00099,-0.00029,-0.0003,-0.00021,-2e-05,2,21
5932,-0.00041,-0.0001,-0.00084,-0.00099,-0.00029,-0.0003,-0.00021,-2e-05,2,21
5933,0.0001,8e-05,-2e-05,0.00025,0.00042,-0.00034,-0.00027,-0.00072,2,21
5934,0.00032,0.0001,0.00033,0.00017,-0.0004,0.00029,-0.00025,-5e-05,2,21
5935,0.00032,0.0001,0.00033,0.00017,-0.0004,0.00029,-0.00025,-5e-05,2,21
5937,0.00032,0.0001,0.00033,0.00017,-0.0004,0.00029,-0.00025,-5e-05,2,21
5939,0.00032,0.0001,0.00033,0.00017,-0.0004,0.00029,-0.00025,-5e-05,2,21
5940,0.00032,0.0001,0.00033,0.00017,-0.0004,0.00029,-0.00025,-5e-05,2,21
5941,0.00032,0.0001,0.00033,0.00017,-0.0004,0.00029,-0.00025,-5e-05,2,21
5942,0.00032,0.0001,0.00033,0.00017,-0.0004,0.00029,-0.00025,-5e-05,2,21
5943,0.00032,0.0001,0.00033,0.00017,-0.0004,0.00029,-0.00025,-5e-05,2,21
5944,0.00032,0.0001,0.00033,0.00017,-0.0004,0.00029,-0.00025,-5e-05,2,21
5945,0.00032,0.0001,0.00033,0.00017,-0.0004,0.00029,-0.00025,-5e-05,2,21
5946,0.00032,0.0001,0.00033,0.00017,-0.0004,0.00029,-0.00025,-5e-05,2,21
5947,0.00032,0.0001,0.00033,0.00017,-0.0004,0.00029,-0.00025,-5e-05,2,21
5948,0.00061,-1e-05,-0.00029,-0.0007,0.00045,0.00127,0.00082,-2e-05,2,21
5949,0.00061,-1e-05,-0.00029,-0.0007,0.00045,0.00127,0.00082,-2e-05,2,21
5950,0.00061,-1e-05,-0.00029,-0.0007,0.00045,0.00127,0.00082,-2e-05,2,21
5951,0.00061,-1e-05,-0.00029,-0.0007,0.00045,0.00127,0.00082,-2e-05,2,21
5952,0.00061,-1e-05,-0.00029,-0.0007,0.00045,0.00127,0.00082,-2e-05,2,21
5953,0.00061,-1e-05,-0.00029,-0.0007,0.00045,0.00127,0.00082,-2e-05,2,21
5954,0.00061,-1e-05,-0.00029,-0.0007,0.00045,0.00127,0.00082,-2e-05,2,21
5955,0.00061,-1e-05,-0.00029,-0.0007,0.00045,0.00127,0.00082,-2e-05,2,21
5956,0.00061,-1e-05,-0.00029,-0.0007,0.00045,0.00127,0.00082,-2e-05,2,21
5957,0.00061,-1e-05,-0.00029,-0.0007,0.00045,0.00127,0.00082,-2e-05,2,21
5958,0.00061,-1e-05,-0.00029,-0.0007,0.00045,0.00127,0.00082,-2e-05,2,21
5959,0.00061,-1e-05,-0.00029,-0.0007,0.00045,0.00127,0.00082,-2e-05,2,21
5960,0.00061,-1e-05,-0.00029,-0.0007,0.00045,0.00127,0.00082,-2e-05,2,21
5961,0.00061,-1e-05,-0.00029,-0.0007,0.00045,0.00127,0.00082,-2e-05,2,21
5962,0.00061,-1e-05,-0.00029,-0.0007,0.00045,0.00127,0.00082,-2e-05,2,21
5963,0.00061,-1e-05,-0.00029,-0.0007,0.00045,0.00127,0.00082,-2e-05,2,21
5964,0.00061,-1e-05,-0.00029,-0.0007,0.00045,0.00127,0.00082,-2e-05,2,21
5965,0.00061,-1e-05,-0.00029,-0.0007,0.00045,0.00127,0.00082,-2e-05,2,21
5966,0.00061,-1e-05,-0.00029,-0.0007,0.00045,0.00127,0.00082,-2e-05,2,21
5967,0.00061,-1e-05,-0.00029,-0.0007,0.00045,0.00127,0.00082,-2e-05,2,21
5968,0.00061,-1e-05,-0.00029,-0.0007,0.00045,0.00127,0.00082,-2e-05,2,21
5969,0.00061,-1e-05,-0.00029,-0.0007,0.00045,0.00127,0.00082,-2e-05,2,21
5970,0.00046,0.00012,6e-05,0.00023,0.00026,-0.00037,-0.00051,0.00102,2,21
5971,-0.00051,-4e-05,-0.0001,0.0001,-0.00061,-0.0005,-0.00042,5e-05,2,21
5972,-0.00051,-4e-05,-0.0001,0.0001,-0.00061,-0.0005,-0.00042,5e-05,2,21
5973,-0.00051,-4e-05,-0.0001,0.0001,-0.00061,-0.0005,-0.00042,5e-05,2,21
5974,-0.00051,-4e-05,-0.0001,0.0001,-0.00061,-0.0005,-0.00042,5e-05,2,21
5975,-0.00051,-4e-05,-0.0001,0.0001,-0.00061,-0.0005,-0.00042,5e-05,2,21
5976,-0.00051,-4e-05,-0.0001,0.0001,-0.00061,-0.0005,-0.00042,5e-05,2,21
5977,-0.00051,-4e-05,-0.0001,0.0001,-0.00061,-0.0005,-0.00042,5e-05,2,21
5978,-0.00051,-4e-05,-0.0001,0.0001,-0.00061,-0.0005,-0.00042,5e-05,2,21
5979,-0.00051,-4e-05,-0.0001,0.0001,-0.00061,-0.0005,-0.00042,5e-05,2,21
5980,-0.00051,-4e-05,-0.0001,0.0001,-0.00061,-0.0005,-0.00042,5e-05,2,21
5981,-0.00051,-4e-05,-0.0001,0.0001,-0.00061,-0.0005,-0.00042,5e-05,2,21
5982,-0.00051,-4e-05,-0.0001,0.0001,-0.00061,-0.0005,-0.00042,5e-05,2,21
5983,-0.00051,-4e-05,-0.0001,0.0001,-0.00061,-0.0005,-0.00042,5e-05,2,21
5984,-0.00051,-4e-05,-0.0001,0.0001,-0.00061,-0.0005,-0.00042,5e-05,2,21
5985,-0.00051,-4e-05,-0.0001,0.0001,-0.00061,-0.0005,-0.00042,5e-05,2,21
5987,-0.00051,-4e-05,-0.0001,0.0001,-0.00061,-0.0005,-0.00042,5e-05,2,21
5989,-0.00051,-4e-05,-0.0001,0.0001,-0.00061,-0.0005,-0.00042,5e-05,2,21
5990,-0.00051,-4e-05,-0.0001,0.0001,-0.00061,-0.0005,-0.00042,5e-05,2,21
5991,-0.00051,-4e-05,-0.0001,0.0001,-0.00061,-0.0005,-0.00042,5e-05,2,21
5992,-0.00051,-4e-05,-0.0001,0.0001,-0.00061,-0.0005,-0.00042,5e-05,2,21
5993,-0.00014,-6e-05,-0.00014,-0.00057,2e-05,0.00049,2e-05,0.00099,2,21
5994,-0.00043,1e-05,-7e-05,1e-05,-0.00023,-0.00038,0.00045,-0.00092,2,21
5995,-0.00043,1e-05,-7e-05,1e-05,-0.00023,-0.00038,0.00045,-0.00092,2,21
5996,-0.00043,1e-05,-7e-05,1e-05,-0.00023,-0.00038,0.00045,-0.00092,2,21
5997,-0.00043,1e-05,-7e-05,1e-05,-0.00023,-0.00038,0.00045,-0.00092,2,21
5998,-0.00043,1e-05,-7e-05,1e-05,-0.00023,-0.00038,0.00045,-0.00092,2,21
5999,-0.00043,1e-05,-7e-05,1e-05,-0.00023,-0.00038,0.00045,-0.00092,2,21
6000,-0.00043,1e-05,-7e-05,1e-05,-0.00023,-0.00038,0.00045,-0.00092,2,21
6001,-0.00043,1e-05,-7e-05,1e-05,-0.00023,-0.00038,0.00045,-0.00092,2,21
6002,-0.00043,1e-05,-7e-05,1e-05,-0.00023,-0.00038,0.00045,-0.00092,2,21
6003,-0.00043,1e-05,-7e-05,1e-05,-0.00023,-0.00038,0.00045,-0.00092,2,21
6004,-0.00043,1e-05,-7e-05,1e-05,-0.00023,-0.00038,0.00045,-0.00092,2,21
6005,-0.00043,1e-05,-7e-05,1e-05,-0.00023,-0.00038,0.00045,-0.00092,2,21
6006,-0.00043,1e-05,-7e-05,1e-05,-0.00023,-0.00038,0.00045,-0.00092,2,21
6007,0.00012,0,0.0001,-8e-05,-0.00039,0.00064,-0.00032,-0.00041,2,21
6008,-0.00014,3e-05,0.00026,-0.00043,0.00047,0.00055,6e-05,-2e-05,2,21
6009,-0.00014,3e-05,0.00026,-0.00043,0.00047,0.00055,6e-05,-2e-05,2,21
6010,-0.00014,3e-05,0.00026,-0.00043,0.00047,0.00055,6e-05,-2e-05,2,21
6011,-0.00014,3e-05,0.00026,-0.00043,0.00047,0.00055,6e-05,-2e-05,2,21
6012,-0.00014,3e-05,0.00026,-0.00043,0.00047,0.00055,6e-05,-2e-05,2,21
6013,-0.00014,3e-05,0.00026,-0.00043,0.00047,0.00055,6e-05,-2e-05,2,21
6014,-0.00014,3e-05,0.00026,-0.00043,0.00047,0.00055,6e-05,-2e-05,2,21
6015,-0.00014,3e-05,0.00026,-0.00043,0.00047,0.00055,6e-05,-2e-05,2,21
6016,-0.00014,3e-05,0.00026,-0.00043,0.00047,0.00055,6e-05,-2e-05,2,21
6017,-0.00014,3e-05,0.00026,-0.00043,0.00047,0.00055,6e-05,-2e-05,2,21
6018,-0.00014,3e-05,0.00026,-0.00043,0.00047,0.00055,6e-05,-2e-05,2,21
6019,-0.00014,3e-05,0.00026,-0.00043,0.00047,0.00055,6e-05,-2e-05,2,21
6020,-0.00014,3e-05,0.00026,-0.00043,0.00047,0.00055,6e-05,-2e-05,2,21
6021,-0.00014,3e-05,0.00026,-0.00043,0.00047,0.00055,6e-05,-2e-05,2,21
6022,-0.00014,3e-05,0.00026,-0.00043,0.00047,0.00055,6e-05,-2e-05,2,21
6023,-0.00014,3e-05,0.00026,-0.00043,0.00047,0.00055,6e-05,-2e-05,2,21
6024,-0.00014,3e-05,0.00026,-0.00043,0.00047,0.00055,6e-05,-2e-05,2,21
6026,-0.00014,3e-05,0.00026,-0.00043,0.00047,0.00055,6e-05,-2e-05,2,21
6027,-0.00014,3e-05,0.00026,-0.00043,0.00047,0.00055,6e-05,-2e-05,2,21
6028,-0.00014,3e-05,0.00026,-0.00043,0.00047,0.00055,6e-05,-2e-05,2,21
6029,-0.00014,3e-05,0.00026,-0.00043,0.00047,0.00055,6e-05,-2e-05,2,21
6030,-0.00017,-0.00011,5e-05,9e-05,9e-05,-5e-05,0.00067,-3e-05,2,21
6031,0.00032,-5e-05,0.00015,0.00056,0,-0.0004,-5e-05,0.00041,2,21
6032,0.00032,-5e-05,0.00015,0.00056,0,-0.0004,-5e-05,0.00041,2,21
6033,0.00032,-5e-05,0.00015,0.00056,0,-0.0004,-5e-05,0.00041,2,21
6034,0.00032,-5e-05,0.00015,0.00056,0,-0.0004,-5e-05,0.00041,2,21
6035,0.00032,-5e-05,0.00015,0.00056,0,-0.0004,-5e-05,0.00041,2,21
6037,0.00032,-5e-05,0.00015,0.00056,0,-0.0004,-5e-05,0.00041,2,21
6039,0.00032,-5e-05,0.00015,0.00056,0,-0.0004,-5e-05,0.00041,2,21
6040,0.00032,-5e-05,0.00015,0.00056,0,-0.0004,-5e-05,0.00041,2,21
6041,0.00032,-5e-05,0.00015,0.00056,0,-0.0004,-5e-05,0.00041,2,21
6042,0.00032,-5e-05,0.00015,0.00056,0,-0.0004,-5e-05,0.00041,2,21
6043,0.00032,-5e-05,0.00015,0.00056,0,-0.0004,-5e-05,0.00041,2,21
6044,0.00032,-5e-05,0.00015,0.00056,0,-0.0004,-5e-05,0.00041,2,21
6045,0.00032,-5e-05,0.00015,0.00056,0,-0.0004,-5e-05,0.00041,2,21
6046,0.00032,-5e-05,0.00015,0.00056,0,-0.0004,-5e-05,0.00041,2,21
6047,0.00032,-5e-05,0.00015,0.00056,0,-0.0004,-5e-05,0.00041,2,21
6048,0.00032,-5e-05,0.00015,0.00056,0,-0.0004,-5e-05,0.00041,2,21
6049,0.00032,-5e-05,0.00015,0.00056,0,-0.0004,-5e-05,0.00041,2,21
6050,0.00032,-5e-05,0.00015,0.00056,0,-0.0004,-5e-05,0.00041,2,21
6051,0.00032,-5e-05,0.00015,0.00056,0,-0.0004,-5e-05,0.00041,2,21
6052,0.00032,-5e-05,0.00015,0.00056,0,-0.0004,-5e-05,0.00041,2,21
6053,0.00025,0.00013,-0.0002,-5e-05,5e-05,0.00024,-6e-05,-0.00086,2,21
6054,0.00025,0.00013,-0.0002,-5e-05,5e-05,0.00024,-6e-05,-0.00086,2,21
6055,0.00025,0.00013,-0.0002,-5e-05,5e-05,0.00024,-6e-05,-0.00086,2,21
6056,0.00025,0.00013,-0.0002,-5e-05,5e-05,0.00024,-6e-05,-0.00086,2,21
6057,0.00025,0.00013,-0.0002,-5e-05,5e-05,0.00024,-6e-05,-0.00086,2,21
6058,0.00025,0.00013,-0.0002,-5e-05,5e-05,0.00024,-6e-05,-0.00086,2,21
6059,0.00025,0.00013,-0.0002,-5e-05,5e-05,0.00024,-6e-05,-0.00086,2,21
6060,0.00025,0.00013,-0.0002,-5e-05,5e-05,0.00024,-6e-05,-0.00086,2,21
6061,0.00025,0.00013,-0.0002,-5e-05,5e-05,0.00024,-6e-05,-0.00086,2,21
6062,0.00025,0.00013,-0.0002,-5e-05,5e-05,0.00024,-6e-05,-0.00086,2,21
6063,0.00025,0.00013,-0.0002,-5e-05,5e-05,0.00024,-6e-05,-0.00086,2,21
6064,0.00025,0.00013,-0.0002,-5e-05,5e-05,0.00024,-6e-05,-0.00086,2,21
6065,0.00025,0.00013,-0.0002,-5e-05,5e-05,0.00024,-6e-05,-0.00086,2,21
6066,0.00025,0.00013,-0.0002,-5e-05,5e-05,0.00024,-6e-05,-0.00086,2,21
6067,-0.00113,-0.00041,-0.0008,-0.00085,-0.00033,-0.00057,0.00031,-0.00095,2,21
6068,0.00026,-0.00012,2e-05,0.00058,3e-05,-0.00027,-0.00026,0.00015,2,21
6069,0.00026,-0.00012,2e-05,0.00058,3e-05,-0.00027,-0.00026,0.00015,2,21
6070,0.00026,-0.00012,2e-05,0.00058,3e-05,-0.00027,-0.00026,0.00015,2,21
6071,0.00026,-0.00012,2e-05,0.00058,3e-05,-0.00027,-0.00026,0.00015,2,21
6072,0.00026,-0.00012,2e-05,0.00058,3e-05,-0.00027,-0.00026,0.00015,2,21
6073,0.00026,-0.00012,2e-05,0.00058,3e-05,-0.00027,-0.00026,0.00015,2,21
6074,0.00026,-0.00012,2e-05,0.00058,3e-05,-0.00027,-0.00026,0.00015,2,21
6075,0.00026,-0.00012,2e-05,0.00058,3e-05,-0.00027,-0.00026,0.00015,2,21
6076,0.00026,-0.00012,2e-05,0.00058,3e-05,-0.00027,-0.00026,0.00015,2,21
6077,0.00026,-0.00012,2e-05,0.00058,3e-05,-0.00027,-0.00026,0.00015,2,21
6078,0.00026,-0.00012,2e-05,0.00058,3e-05,-0.00027,-0.00026,0.00015,2,21
6079,0.00026,-0.00012,2e-05,0.00058,3e-05,-0.00027,-0.00026,0.00015,2,21
6080,0.00026,-0.00012,2e-05,0.00058,3e-05,-0.00027,-0.00026,0.00015,2,21
6081,0.00026,-0.00012,2e-05,0.00058,3e-05,-0.00027,-0.00026,0.00015,2,21
6082,0.00026,-0.00012,2e-05,0.00058,3e-05,-0.00027,-0.00026,0.00015,2,21
6083,0.00026,-0.00012,2e-05,0.00058,3e-05,-0.00027,-0.00026,0.00015,2,21
6084,0.00026,-0.00012,2e-05,0.00058,3e-05,-0.00027,-0.00026,0.00015,2,21
6085,0.00026,-0.00012,2e-05,0.00058,3e-05,-0.00027,-0.00026,0.00015,2,21
6087,0.00026,-0.00012,2e-05,0.00058,3e-05,-0.00027,-0.00026,0.00015,2,21
6089,0.00026,-0.00012,2e-05,0.00058,3e-05,-0.00027,-0.00026,0.00015,2,21
6090,0.00013,0.00011,0.00028,0.00028,-7e-05,8e-05,-0.0003,-0.00049,2,21
6091,0.00013,0.00011,0.00028,0.00028,-7e-05,8e-05,-0.0003,-0.00049,2,21
6092,0.00046,0.00012,0.00022,0.00027,0.00043,0.00032,0.00069,0.00034,2,21
6093,0.00046,0.00012,0.00022,0.00027,0.00043,0.00032,0.00069,0.00034,2,21
6094,0.00046,0.00012,0.00022,0.00027,0.00043,0.00032,0.00069,0.00034,2,21
6095,0.00046,0.00012,0.00022,0.00027,0.00043,0.00032,0.00069,0.00034,2,21
6096,0.00046,0.00012,0.00022,0.00027,0.00043,0.00032,0.00069,0.00034,2,21
6097,0.00046,0.00012,0.00022,0.00027,0.00043,0.00032,0.00069,0.00034,2,21
6098,0.00046,0.00012,0.00022,0.00027,0.00043,0.00032,0.00069,0.00034,2,21
6099,0.00046,0.00012,0.00022,0.00027,0.00043,0.00032,0.00069,0.00034,2,21
6100,0.00046,0.00012,0.00022,0.00027,0.00043,0.00032,0.00069,0.00034,2,21
6101,0.00046,0.00012,0.00022,0.00027,0.00043,0.00032,0.00069,0.00034,2,21
6102,0.00046,0.00012,0.00022,0.00027,0.00043,0.00032,0.00069,0.00034,2,21
6103,0.00046,0.00012,0.00022,0.00027,0.00043,0.00032,0.00069,0.00034,2,21
6104,0.00046,0.00012,0.00022,0.00027,0.00043,0.00032,0.00069,0.00034,2,21
6105,0.00046,0.00012,0.00022,0.00027,0.00043,0.00032,0.00069,0.00034,2,21
6106,0.00046,0.00012,0.00022,0.00027,0.00043,0.00032,0.00069,0.00034,2,21
6107,0.00046,0.00012,0.00022,0.00027,0.00043,0.00032,0.00069,0.00034,2,21
6108,0.00046,0.00012,0.00022,0.00027,0.00043,0.00032,0.00069,0.00034,2,21
6109,0.00046,0.00012,0.00022,0.00027,0.00043,0.00032,0.00069,0.00034,2,21
6110,0.00046,0.00012,0.00022,0.00027,0.00043,0.00032,0.00069,0.00034,2,21
6111,0.00046,0.00012,0.00022,0.00027,0.00043,0.00032,0.00069,0.00034,2,21
6112,0.00046,0.00012,0.00022,0.00027,0.00043,0.00032,0.00069,0.00034,2,21
6113,-0.00037,-0.00023,-0.00074,-0.00091,0.00054,0.00016,-0.00036,-0.00029,2,21
6114,-0.00037,-0.00023,-0.00074,-0.00091,0.00054,0.00016,-0.00036,-0.00029,2,21
6115,-0.00037,-0.00023,-0.00074,-0.00091,0.00054,0.00016,-0.00036,-0.00029,2,21
6116,-0.00037,-0.00023,-0.00074,-0.00091,0.00054,0.00016,-0.00036,-0.00029,2,21
6117,-0.00037,-0.00023,-0.00074,-0.00091,0.00054,0.00016,-0.00036,-0.00029,2,21
6118,-0.00037,-0.00023,-0.00074,-0.00091,0.00054,0.00016,-0.00036,-0.00029,2,21
6119,-0.00037,-0.00023,-0.00074,-0.00091,0.00054,0.00016,-0.00036,-0.00029,2,21
6120,-0.00037,-0.00023,-0.00074,-0.00091,0.00054,0.00016,-0.00036,-0.00029,2,21
6121,-0.00037,-0.00023,-0.00074,-0.00091,0.00054,0.00016,-0.00036,-0.00029,2,21
6122,-0.00037,-0.00023,-0.00074,-0.00091,0.00054,0.00016,-0.00036,-0.00029,2,21
6123,-0.00037,-0.00023,-0.00074,-0.00091,0.00054,0.00016,-0.00036,-0.00029,2,21
6124,-0.00037,-0.00023,-0.00074,-0.00091,0.00054,0.00016,-0.00036,-0.00029,2,21
6125,-0.00037,-0.00023,-0.00074,-0.00091,0.00054,0.00016,-0.00036,-0.00029,2,21
6126,-0.00023,-1e-05,-9e-05,-0.00022,-0.00048,-0.00075,-0.00026,-3e-05,2,21
6127,-0.00023,-1e-05,-9e-05,-0.00022,-0.00048,-0.00075,-0.00026,-3e-05,2,21
6128,-0.00023,-1e-05,-9e-05,-0.00022,-0.00048,-0.00075,-0.00026,-3e-05,2,21
6129,-0.00023,-1e-05,-9e-05,-0.00022,-0.00048,-0.00075,-0.00026,-3e-05,2,21
6130,-0.00023,-1e-05,-9e-05,-0.00022,-0.00048,-0.00075,-0.00026,-3e-05,2,21
6131,-0.00023,-1e-05,-9e-05,-0.00022,-0.00048,-0.00075,-0.00026,-3e-05,2,21
6132,-0.00023,-1e-05,-9e-05,-0.00022,-0.00048,-0.00075,-0.00026,-3e-05,2,21
6133,-0.00023,-1e-05,-9e-05,-0.00022,-0.00048,-0.00075,-0.00026,-3e-05,2,21
6134,-0.00012,0,5e-05,0.00032,0.00012,-0.00018,0.00016,-0.00032,2,21
6135,0.00056,0.00025,0.0002,-0.00058,-0.00022,6e-05,-0.00034,0.00023,2,21
6137,0.00056,0.00025,0.0002,-0.00058,-0.00022,6e-05,-0.00034,0.00023,2,21
6139,0.00056,0.00025,0.0002,-0.00058,-0.00022,6e-05,-0.00034,0.00023,2,21
6140,0.00056,0.00025,0.0002,-0.00058,-0.00022,6e-05,-0.00034,0.00023,2,21
6141,0.00056,0.00025,0.0002,-0.00058,-0.00022,6e-05,-0.00034,0.00023,2,21
6142,0.00056,0.00025,0.0002,-0.00058,-0.00022,6e-05,-0.00034,0.00023,2,21
6143,0.00056,0.00025,0.0002,-0.00058,-0.00022,6e-05,-0.00034,0.00023,2,21
6144,0.00056,0.00025,0.0002,-0.00058,-0.00022,6e-05,-0.00034,0.00023,2,21
6145,0.00056,0.00025,0.0002,-0.00058,-0.00022,6e-05,-0.00034,0.00023,2,21
6146,0.00056,0.00025,0.0002,-0.00058,-0.00022,6e-05,-0.00034,0.00023,2,21
6147,0.00056,0.00025,0.0002,-0.00058,-0.00022,6e-05,-0.00034,0.00023,2,21
6148,0.00056,0.00025,0.0002,-0.00058,-0.00022,6e-05,-0.00034,0.00023,2,21
6149,0.00056,0.00025,0.0002,-0.00058,-0.00022,6e-05,-0.00034,0.00023,2,21
6150,-0.00047,-0.00023,-0.00043,-0.0007,-0.00014,-0.0002,-0.00054,-0.00041,2,21
6151,-0.00063,-9e-05,-0.00011,-0.00012,5e-05,0.00036,-0.00058,-0.00022,2,21
6152,-0.00063,-9e-05,-0.00011,-0.00012,5e-05,0.00036,-0.00058,-0.00022,2,21
6153,-0.00063,-9e-05,-0.00011,-0.00012,5e-05,0.00036,-0.00058,-0.00022,2,21
6154,-0.00063,-9e-05,-0.00011,-0.00012,5e-05,0.00036,-0.00058,-0.00022,2,21
6155,-0.00063,-9e-05,-0.00011,-0.00012,5e-05,0.00036,-0.00058,-0.00022,2,21
6156,-0.00063,-9e-05,-0.00011,-0.00012,5e-05,0.00036,-0.00058,-0.00022,2,21
6157,-0.00063,-9e-05,-0.00011,-0.00012,5e-05,0.00036,-0.00058,-0.00022,2,21
6158,-0.00063,-9e-05,-0.00011,-0.00012,5e-05,0.00036,-0.00058,-0.00022,2,21
6159,-0.00063,-9e-05,-0.00011,-0.00012,5e-05,0.00036,-0.00058,-0.00022,2,21
6160,-0.00063,-9e-05,-0.00011,-0.00012,5e-05,0.00036,-0.00058,-0.00022,2,21
6161,-0.00063,-9e-05,-0.00011,-0.00012,5e-05,0.00036,-0.00058,-0.00022,2,21
6162,-0.00063,-9e-05,-0.00011,-0.00012,5e-05,0.00036,-0.00058,-0.00022,2,21
6163,-0.00063,-9e-05,-0.00011,-0.00012,5e-05,0.00036,-0.00058,-0.00022,2,21
6164,-0.00063,-9e-05,-0.00011,-0.00012,5e-05,0.00036,-0.00058,-0.00022,2,21
6165,-0.00063,-9e-05,-0.00011,-0.00012,5e-05,0.00036,-0.00058,-0.00022,2,21
6166,-0.00063,-9e-05,-0.00011,-0.00012,5e-05,0.00036,-0.00058,-0.00022,2,21
6167,-0.00063,-9e-05,-0.00011,-0.00012,5e-05,0.00036,-0.00058,-0.00022,2,21
6168,-0.00063,-9e-05,-0.00011,-0.00012,5e-05,0.00036,-0.00058,-0.00022,2,21
6169,-0.00063,-9e-05,-0.00011,-0.00012,5e-05,0.00036,-0.00058,-0.00022,2,21
6170,-0.00063,-9e-05,-0.00011,-0.00012,5e-05,0.00036,-0.00058,-0.00022,2,21
6171,-0.00063,-9e-05,-0.00011,-0.00012,5e-05,0.00036,-0.00058,-0.00022,2,21
6172,0.00011,-2e-05,-9e-05,-0.00023,0.00018,0.00064,0.00021,0.00036,2,21
6173,0.00025,-2e-05,0,-0.00045,-0.00033,-0.00029,0.00016,-0.00031,2,21
6174,-0.00062,-0.0003,-0.00084,-0.00028,-0.00064,-0.00013,-0.00057,-0.00091,2,21
6175,-0.00062,-0.0003,-0.00084,-0.00028,-0.00064,-0.00013,-0.00057,-0.00091,2,21
6176,-0.00062,-0.0003,-0.00084,-0.00028,-0.00064,-0.00013,-0.00057,-0.00091,2,21
6177,-0.00062,-0.0003,-0.00084,-0.00028,-0.00064,-0.00013,-0.00057,-0.00091,2,21
6178,-0.00062,-0.0003,-0.00084,-0.00028,-0.00064,-0.00013,-0.00057,-0.00091,2,21
6179,-0.00062,-0.0003,-0.00084,-0.00028,-0.00064,-0.00013,-0.00057,-0.00091,2,21
6180,-0.00062,-0.0003,-0.00084,-0.00028,-0.00064,-0.00013,-0.00057,-0.00091,2,21
6181,-0.00062,-0.0003,-0.00084,-0.00028,-0.00064,-0.00013,-0.00057,-0.00091,2,21
6182,-0.00062,-0.0003,-0.00084,-0.00028,-0.00064,-0.00013,-0.00057,-0.00091,2,21
6183,-0.00062,-0.0003,-0.00084,-0.00028,-0.00064,-0.00013,-0.00057,-0.00091,2,21
6184,-0.00062,-0.0003,-0.00084,-0.00028,-0.00064,-0.00013,-0.00057,-0.00091,2,21
6185,-0.00062,-0.0003,-0.00084,-0.00028,-0.00064,-0.00013,-0.00057,-0.00091,2,21
6187,9e-05,-1e-05,0.00018,0.00012,0.00019,0.00035,0.00053,0.00065,2,21
6189,9e-05,-1e-05,0.00018,0.00012,0.00019,0.00035,0.00053,0.00065,2,21
6190,9e-05,-1e-05,0.00018,0.00012,0.00019,0.00035,0.00053,0.00065,2,21
6191,9e-05,-1e-05,0.00018,0.00012,0.00019,0.00035,0.00053,0.00065,2,21
6192,9e-05,-1e-05,0.00018,0.00012,0.00019,0.00035,0.00053,0.00065,2,21
6193,9e-05,-1e-05,0.00018,0.00012,0.00019,0.00035,0.00053,0.00065,2,21
6194,9e-05,-1e-05,0.00018,0.00012,0.00019,0.00035,0.00053,0.00065,2,21
6195,-0.00025,-0.00014,-0.00016,-0.00022,-0.00018,-0.00024,-0.0002,0.00072,2,21
6196,-0.00025,-0.00014,-0.00016,-0.00022,-0.00018,-0.00024,-0.0002,0.00072,2,21
6197,-0.00025,-0.00014,-0.00016,-0.00022,-0.00018,-0.00024,-0.0002,0.00072,2,21
6198,-0.00025,-0.00014,-0.00016,-0.00022,-0.00018,-0.00024,-0.0002,0.00072,2,21
6199,-0.00025,-0.00014,-0.00016,-0.00022,-0.00018,-0.00024,-0.0002,0.00072,2,21
6200,-0.00025,-0.00014,-0.00016,-0.00022,-0.00018,-0.00024,-0.0002,0.00072,2,21
6201,-0.00025,-0.00014,-0.00016,-0.00022,-0.00018,-0.00024,-0.0002,0.00072,2,21
6202,-0.00025,-0.00014,-0.00016,-0.00022,-0.00018,-0.00024,-0.0002,0.00072,2,21
6203,-0.00025,-0.00014,-0.00016,-0.00022,-0.00018,-0.00024,-0.0002,0.00072,2,21
6204,-0.00025,-0.00014,-0.00016,-0.00022,-0.00018,-0.00024,-0.0002,0.00072,2,21
6205,-0.00025,-0.00014,-0.00016,-0.00022,-0.00018,-0.00024,-0.0002,0.00072,2,21
6206,-0.00025,-0.00014,-0.00016,-0.00022,-0.00018,-0.00024,-0.0002,0.00072,2,21
6207,-0.00025,-0.00014,-0.00016,-0.00022,-0.00018,-0.00024,-0.0002,0.00072,2,21
6208,-0.00025,-0.00014,-0.00016,-0.00022,-0.00018,-0.00024,-0.0002,0.00072,2,21
6209,-0.00025,-0.00014,-0.00016,-0.00022,-0.00018,-0.00024,-0.0002,0.00072,2,21
6210,-0.00014,-1e-05,-5e-05,-0.0002,0.00045,9e-05,-0.0002,-0.00085,2,21
6211,-0.00014,-1e-05,-5e-05,-0.0002,0.00045,9e-05,-0.0002,-0.00085,2,21
6212,2e-05,1e-05,0.0002,-0.00048,-0.00054,-0.00101,-9e-05,-0.00046,2,21
6213,2e-05,1e-05,0.0002,-0.00048,-0.00054,-0.00101,-9e-05,-0.00046,2,21
6214,2e-05,1e-05,0.0002,-0.00048,-0.00054,-0.00101,-9e-05,-0.00046,2,21
6215,2e-05,1e-05,0.0002,-0.00048,-0.00054,-0.00101,-9e-05,-0.00046,2,21
6216,2e-05,1e-05,0.0002,-0.00048,-0.00054,-0.00101,-9e-05,-0.00046,2,21
6217,2e-05,1e-05,0.0002,-0.00048,-0.00054,-0.00101,-9e-05,-0.00046,2,21
6218,2e-05,1e-05,0.0002,-0.00048,-0.00054,-0.00101,-9e-05,-0.00046,2,21
6219,2e-05,1e-05,0.0002,-0.00048,-0.00054,-0.00101,-9e-05,-0.00046,2,21
6220,2e-05,1e-05,0.0002,-0.00048,-0.00054,-0.00101,-9e-05,-0.00046,2,21
6221,2e-05,1e-05,0.0002,-0.00048,-0.00054,-0.00101,-9e-05,-0.00046,2,21
6222,2e-05,1e-05,0.0002,-0.00048,-0.00054,-0.00101,-9e-05,-0.00046,2,21
6223,2e-05,1e-05,0.0002,-0.00048,-0.00054,-0.00101,-9e-05,-0.00046,2,21
6224,2e-05,1e-05,0.0002,-0.00048,-0.00054,-0.00101,-9e-05,-0.00046,2,21
6225,2e-05,1e-05,0.0002,-0.00048,-0.00054,-0.00101,-9e-05,-0.00046,2,21
6226,2e-05,1e-05,0.0002,-0.00048,-0.00054,-0.00101,-9e-05,-0.00046,2,21
6227,2e-05,1e-05,0.0002,-0.00048,-0.00054,-0.00101,-9e-05,-0.00046,2,21
6228,2e-05,1e-05,0.0002,-0.00048,-0.00054,-0.00101,-9e-05,-0.00046,2,21
6229,2e-05,1e-05,0.0002,-0.00048,-0.00054,-0.00101,-9e-05,-0.00046,2,21
6230,2e-05,1e-05,0.0002,-0.00048,-0.00054,-0.00101,-9e-05,-0.00046,2,21
6231,2e-05,1e-05,0.0002,-0.00048,-0.00054,-0.00101,-9e-05,-0.00046,2,21
6232,2e-05,1e-05,0.0002,-0.00048,-0.00054,-0.00101,-9e-05,-0.00046,2,21
6233,0.00033,0.00017,0.00029,0.00058,7e-05,0.00033,-0.00045,0.00048,2,21
6234,-0.00031,6e-05,0.0004,0.00063,4e-05,0.0004,-0.00037,0.00099,2,21
6235,-0.00031,6e-05,0.0004,0.00063,4e-05,0.0004,-0.00037,0.00099,2,21
6237,-0.00031,6e-05,0.0004,0.00063,4e-05,0.0004,-0.00037,0.00099,2,21
6239,-0.00031,6e-05,0.0004,0.00063,4e-05,0.0004,-0.00037,0.00099,2,21
6240,-0.00031,6e-05,0.0004,0.00063,4e-05,0.0004,-0.00037,0.00099,2,21
6241,-0.00031,6e-05,0.0004,0.00063,4e-05,0.0004,-0.00037,0.00099,2,21
6242,-0.00031,6e-05,0.0004,0.00063,4e-05,0.0004,-0.00037,0.00099,2,21
6243,-0.00031,6e-05,0.0004,0.00063,4e-05,0.0004,-0.00037,0.00099,2,21
6244,-0.00031,6e-05,0.0004,0.00063,4e-05,0.0004,-0.00037,0.00099,2,21
6245,-0.00031,6e-05,0.0004,0.00063,4e-05,0.0004,-0.00037,0.00099,2,21
6246,-0.00076,-0.0003,-0.0004,9e-05,6e-05,0.00019,0.00058,-0.00116,2,21
6247,-1e-05,0.00014,5e-05,-0.00038,4e-05,0.00108,0.00104,0.00021,2,21
6248,-1e-05,0.00014,5e-05,-0.00038,4e-05,0.00108,0.00104,0.00021,2,21
6249,-1e-05,0.00014,5e-05,-0.00038,4e-05,0.00108,0.00104,0.00021,2,21
6250,-1e-05,0.00014,5e-05,-0.00038,4e-05,0.00108,0.00104,0.00021,2,21
6251,-1e-05,0.00014,5e-05,-0.00038,4e-05,0.00108,0.00104,0.00021,2,21
6252,-1e-05,0.00014,5e-05,-0.00038,4e-05,0.00108,0.00104,0.00021,2,21
6253,-1e-05,0.00014,5e-05,-0.00038,4e-05,0.00108,0.00104,0.00021,2,21
6254,-1e-05,0.00014,5e-05,-0.00038,4e-05,0.00108,0.00104,0.00021,2,21
6255,0.00069,9e-05,0.0003,0.00073,0.00022,-5e-05,0.00127,0.00127,2,21
6256,0.00069,9e-05,0.0003,0.00073,0.00022,-5e-05,0.00127,0.00127,2,21
6257,0.00069,9e-05,0.0003,0.00073,0.00022,-5e-05,0.00127,0.00127,2,21
6258,0.00069,9e-05,0.0003,0.00073,0.00022,-5e-05,0.00127,0.00127,2,21
6259,0.00069,9e-05,0.0003,0.00073,0.00022,-5e-05,0.00127,0.00127,2,21
6260,0.00069,9e-05,0.0003,0.00073,0.00022,-5e-05,0.00127,0.00127,2,21
6261,0.00069,9e-05,0.0003,0.00073,0.00022,-5e-05,0.00127,0.00127,2,21
6262,0.00069,9e-05,0.0003,0.00073,0.00022,-5e-05,0.00127,0.00127,2,21
6263,0.00069,9e-05,0.0003,0.00073,0.00022,-5e-05,0.00127,0.00127,2,21
6264,0.00069,9e-05,0.0003,0.00073,0.00022,-5e-05,0.00127,0.00127,2,21
6265,0.00069,9e-05,0.0003,0.00073,0.00022,-5e-05,0.00127,0.00127,2,21
6266,0.00069,9e-05,0.0003,0.00073,0.00022,-5e-05,0.00127,0.00127,2,21
6267,0.00069,9e-05,0.0003,0.00073,0.00022,-5e-05,0.00127,0.00127,2,21
6268,0.00069,9e-05,0.0003,0.00073,0.00022,-5e-05,0.00127,0.00127,2,21
6269,0.00069,9e-05,0.0003,0.00073,0.00022,-5e-05,0.00127,0.00127,2,21
6270,0.00069,9e-05,0.0003,0.00073,0.00022,-5e-05,0.00127,0.00127,2,21
6271,-0.00033,-0.00018,-0.00023,-0.00027,-0.00034,-4e-05,0.00078,-0.00093,2,21
6272,0.00052,7e-05,0.00012,0.00029,-5e-05,-0.00025,-0.00065,0.00047,2,21
6273,-0.00038,2e-05,4e-05,-0.00052,0.00015,0.00062,0.00033,-0.00048,2,21
6274,-0.00038,2e-05,4e-05,-0.00052,0.00015,0.00062,0.00033,-0.00048,2,21
6275,-0.00038,2e-05,4e-05,-0.00052,0.00015,0.00062,0.00033,-0.00048,2,21
6276,-0.00038,2e-05,4e-05,-0.00052,0.00015,0.00062,0.00033,-0.00048,2,21
6277,-0.00038,2e-05,4e-05,-0.00052,0.00015,0.00062,0.00033,-0.00048,2,21
6278,-0.00038,2e-05,4e-05,-0.00052,0.00015,0.00062,0.00033,-0.00048,2,21
6279,-0.00038,2e-05,4e-05,-0.00052,0.00015,0.00062,0.00033,-0.00048,2,21
6280,-0.00038,2e-05,4e-05,-0.00052,0.00015,0.00062,0.00033,-0.00048,2,21
6281,-0.00038,2e-05,4e-05,-0.00052,0.00015,0.00062,0.00033,-0.00048,2,21
6282,-0.00038,2e-05,4e-05,-0.00052,0.00015,0.00062,0.00033,-0.00048,2,21
6283,-0.00038,2e-05,4e-05,-0.00052,0.00015,0.00062,0.00033,-0.00048,2,21
6284,-0.00038,2e-05,4e-05,-0.00052,0.00015,0.00062,0.00033,-0.00048,2,21
6285,-0.00038,2e-05,4e-05,-0.00052,0.00015,0.00062,0.00033,-0.00048,2,21
6287,-0.00038,2e-05,4e-05,-0.00052,0.00015,0.00062,0.00033,-0.00048,2,21
6289,-0.00038,2e-05,4e-05,-0.00052,0.00015,0.00062,0.00033,-0.00048,2,21
6290,-0.00038,2e-05,4e-05,-0.00052,0.00015,0.00062,0.00033,-0.00048,2,21
6291,-0.00038,2e-05,4e-05,-0.00052,0.00015,0.00062,0.00033,-0.00048,2,21
6292,-0.00038,2e-05,4e-05,-0.00052,0.00015,0.00062,0.00033,-0.00048,2,21
6293,-0.00034,-9e-05,5e-05,-0.00022,-0.00016,-0.00055,-0.00128,-0.00046,2,21
6294,-0.00069,-6e-05,5e-05,0.0005,0.00027,-5e-05,0.00029,-0.00012,2,21
6295,-0.00069,-6e-05,5e-05,0.0005,0.00027,-5e-05,0.00029,-0.00012,2,21
6296,-0.00069,-6e-05,5e-05,0.0005,0.00027,-5e-05,0.00029,-0.00012,2,21
6297,-0.00069,-6e-05,5e-05,0.0005,0.00027,-5e-05,0.00029,-0.00012,2,21
6298,-0.00069,-6e-05,5e-05,0.0005,0.00027,-5e-05,0.00029,-0.00012,2,21
6299,-0.00069,-6e-05,5e-05,0.0005,0.00027,-5e-05,0.00029,-0.00012,2,21
6300,-0.00069,-6e-05,5e-05,0.0005,0.00027,-5e-05,0.00029,-0.00012,2,21
6301,-0.00069,-6e-05,5e-05,0.0005,0.00027,-5e-05,0.00029,-0.00012,2,21
6302,-0.00069,-6e-05,5e-05,0.0005,0.00027,-5e-05,0.00029,-0.00012,2,21
6303,-0.00069,-6e-05,5e-05,0.0005,0.00027,-5e-05,0.00029,-0.00012,2,21
6304,-0.00069,-6e-05,5e-05,0.0005,0.00027,-5e-05,0.00029,-0.00012,2,21
6305,-0.00069,-6e-05,5e-05,0.0005,0.00027,-5e-05,0.00029,-0.00012,2,21
6306,-0.00037,-0.00024,-0.00051,-0.0001,-0.00047,-0.00081,0.00031,0.00034,2,21
6307,-0.00037,-0.00024,-0.00051,-0.0001,-0.00047,-0.00081,0.00031,0.00034,2,21
6308,-0.00037,-0.00024,-0.00051,-0.0001,-0.00047,-0.00081,0.00031,0.00034,2,21
6309,-0.00037,-0.00024,-0.00051,-0.0001,-0.00047,-0.00081,0.00031,0.00034,2,21
6310,-0.00037,-0.00024,-0.00051,-0.0001,-0.00047,-0.00081,0.00031,0.00034,2,21
6311,-0.00037,-0.00024,-0.00051,-0.0001,-0.00047,-0.00081,0.00031,0.00034,2,21
6312,-0.00037,-0.00024,-0.00051,-0.0001,-0.00047,-0.00081,0.00031,0.00034,2,21
6313,-0.00037,-0.00024,-0.00051,-0.0001,-0.00047,-0.00081,0.00031,0.00034,2,21
6314,-0.00037,-0.00024,-0.00051,-0.0001,-0.00047,-0.00081,0.00031,0.00034,2,21
6315,0.0004,0.00016,0.00027,-8e-05,-0.0004,-0.00034,-0.00066,-0.00041,2,21
6316,0.0004,0.00016,0.00027,-8e-05,-0.0004,-0.00034,-0.00066,-0.00041,2,21
6317,0.0004,0.00016,0.00027,-8e-05,-0.0004,-0.00034,-0.00066,-0.00041,2,21
6318,0.0004,0.00016,0.00027,-8e-05,-0.0004,-0.00034,-0.00066,-0.00041,2,21
6319,0.0004,0.00016,0.00027,-8e-05,-0.0004,-0.00034,-0.00066,-0.00041,2,21
6320,0.0004,0.00016,0.00027,-8e-05,-0.0004,-0.00034,-0.00066,-0.00041,2,21
6321,0.0004,0.00016,0.00027,-8e-05,-0.0004,-0.00034,-0.00066,-0.00041,2,21
6322,0.0004,0.00016,0.00027,-8e-05,-0.0004,-0.00034,-0.00066,-0.00041,2,21
6323,0.0004,0.00016,0.00027,-8e-05,-0.0004,-0.00034,-0.00066,-0.00041,2,21
6324,0.0004,0.00016,0.00027,-8e-05,-0.0004,-0.00034,-0.00066,-0.00041,2,21
6325,0.0004,0.00016,0.00027,-8e-05,-0.0004,-0.00034,-0.00066,-0.00041,2,21
6326,0.0004,0.00016,0.00027,-8e-05,-0.0004,-0.00034,-0.00066,-0.00041,2,21
6327,0.0004,0.00016,0.00027,-8e-05,-0.0004,-0.00034,-0.00066,-0.00041,2,21
6328,0.0004,0.00016,0.00027,-8e-05,-0.0004,-0.00034,-0.00066,-0.00041,2,21
6329,0.0004,0.00016,0.00027,-8e-05,-0.0004,-0.00034,-0.00066,-0.00041,2,21
6330,-0.00011,-9e-05,-0.00039,-0.00012,-0.00019,-5e-05,0,-0.00067,2,21
6331,0.00037,-6e-05,-8e-05,-4e-05,6e-05,-0.00055,-0.00035,0.00012,2,21
6332,-0.00059,6e-05,0.00023,0.00038,-0.00033,0.00015,0,0.00018,2,21
6333,-0.00059,6e-05,0.00023,0.00038,-0.00033,0.00015,0,0.00018,2,21
6334,-0.00059,6e-05,0.00023,0.00038,-0.00033,0.00015,0,0.00018,2,21
6335,-0.00059,6e-05,0.00023,0.00038,-0.00033,0.00015,0,0.00018,2,21
6337,-0.00059,6e-05,0.00023,0.00038,-0.00033,0.00015,0,0.00018,2,21
6339,-0.00059,6e-05,0.00023,0.00038,-0.00033,0.00015,0,0.00018,2,21
6340,-0.00059,6e-05,0.00023,0.00038,-0.00033,0.00015,0,0.00018,2,21
6341,-0.00059,6e-05,0.00023,0.00038,-0.00033,0.00015,0,0.00018,2,21
6342,-0.00059,6e-05,0.00023,0.00038,-0.00033,0.00015,0,0.00018,2,21
6343,-0.00059,6e-05,0.00023,0.00038,-0.00033,0.00015,0,0.00018,2,21
6344,-0.00059,6e-05,0.00023,0.00038,-0.00033,0.00015,0,0.00018,2,21
6345,-0.00059,6e-05,0.00023,0.00038,-0.00033,0.00015,0,0.00018,2,21
6346,-0.00059,6e-05,0.00023,0.00038,-0.00033,0.00015,0,0.00018,2,21
6347,-0.00059,6e-05,0.00023,0.00038,-0.00033,0.00015,0,0.00018,2,21
6348,-0.00059,6e-05,0.00023,0.00038,-0.00033,0.00015,0,0.00018,2,21
6349,-0.00059,6e-05,0.00023,0.00038,-0.00033,0.00015,0,0.00018,2,21
6350,-0.00059,6e-05,0.00023,0.00038,-0.00033,0.00015,0,0.00018,2,21
6351,-0.00059,6e-05,0.00023,0.00038,-0.00033,0.00015,0,0.00018,2,21
6352,-0.00059,6e-05,0.00023,0.00038,-0.00033,0.00015,0,0.00018,2,21
6353,-0.00024,3e-05,8e-05,0.00013,0.00026,-5e-05,-0.00046,-0.00039,2,21
6354,-0.00027,1e-05,6e-05,0.00023,0.00026,-1e-05,-0.00077,0.00032,2,21
6355,-0.00027,1e-05,6e-05,0.00023,0.00026,-1e-05,-0.00077,0.00032,2,21
6356,-0.00027,1e-05,6e-05,0.00023,0.00026,-1e-05,-0.00077,0.00032,2,21
6357,-0.00027,1e-05,6e-05,0.00023,0.00026,-1e-05,-0.00077,0.00032,2,21
6358,-0.00027,1e-05,6e-05,0.00023,0.00026,-1e-05,-0.00077,0.00032,2,21
6359,-0.00027,1e-05,6e-05,0.00023,0.00026,-1e-05,-0.00077,0.00032,2,21
6360,-0.00027,1e-05,6e-05,0.00023,0.00026,-1e-05,-0.00077,0.00032,2,21
6361,-0.00027,1e-05,6e-05,0.00023,0.00026,-1e-05,-0.00077,0.00032,2,21
6362,-0.00027,1e-05,6e-05,0.00023,0.00026,-1e-05,-0.00077,0.00032,2,21
6363,-0.00027,1e-05,6e-05,0.00023,0.00026,-1e-05,-0.00077,0.00032,2,21
6364,-0.00027,1e-05,6e-05,0.00023,0.00026,-1e-05,-0.00077,0.00032,2,21
6365,-0.00027,1e-05,6e-05,0.00023,0.00026,-1e-05,-0.00077,0.00032,2,21
6366,-0.00038,0,-2e-05,8e-05,-3e-05,-5e-05,0.00027,0.00032,2,21
6367,-0.00038,0,-2e-05,8e-05,-3e-05,-5e-05,0.00027,0.00032,2,21
6368,-0.00038,0,-2e-05,8e-05,-3e-05,-5e-05,0.00027,0.00032,2,21
6369,-0.00038,0,-2e-05,8e-05,-3e-05,-5e-05,0.00027,0.00032,2,21
6370,-0.00038,0,-2e-05,8e-05,-3e-05,-5e-05,0.00027,0.00032,2,21
6371,-0.00038,0,-2e-05,8e-05,-3e-05,-5e-05,0.00027,0.00032,2,21
6372,-0.00038,0,-2e-05,8e-05,-3e-05,-5e-05,0.00027,0.00032,2,21
6373,-0.00038,0,-2e-05,8e-05,-3e-05,-5e-05,0.00027,0.00032,2,21
6374,-0.00038,0,-2e-05,8e-05,-3e-05,-5e-05,0.00027,0.00032,2,21
6375,0.00036,1e-05,0.00018,0.00043,-7e-05,0,-2e-05,-2e-05,2,21
6377,0.00036,1e-05,0.00018,0.00043,-7e-05,0,-2e-05,-2e-05,2,21
6378,0.00036,1e-05,0.00018,0.00043,-7e-05,0,-2e-05,-2e-05,2,21
6379,0.00036,1e-05,0.00018,0.00043,-7e-05,0,-2e-05,-2e-05,2,21
6380,0.00036,1e-05,0.00018,0.00043,-7e-05,0,-2e-05,-2e-05,2,21
6381,0.00036,1e-05,0.00018,0.00043,-7e-05,0,-2e-05,-2e-05,2,21
6382,0.00036,1e-05,0.00018,0.00043,-7e-05,0,-2e-05,-2e-05,2,21
6383,0.00036,1e-05,0.00018,0.00043,-7e-05,0,-2e-05,-2e-05,2,21
6384,0.00036,1e-05,0.00018,0.00043,-7e-05,0,-2e-05,-2e-05,2,21
6385,0.00036,1e-05,0.00018,0.00043,-7e-05,0,-2e-05,-2e-05,2,21
6387,0.00036,1e-05,0.00018,0.00043,-7e-05,0,-2e-05,-2e-05,2,21
6389,0.00036,1e-05,0.00018,0.00043,-7e-05,0,-2e-05,-2e-05,2,21
6390,0.00085,0.00019,0.00022,0.00039,0.00023,0.00063,0.00047,-0.00011,2,21
6391,-0.00036,-0.0001,-0.00017,-0.00046,0.00053,0.00026,-0.00039,-0.00054,2,21
6392,-0.0003,-0.0001,-0.00021,6e-05,-8e-05,0.00015,-0.00047,-4e-05,2,21
6393,-0.0003,-0.0001,-0.00021,6e-05,-8e-05,0.00015,-0.00047,-4e-05,2,21
6394,-0.0003,-0.0001,-0.00021,6e-05,-8e-05,0.00015,-0.00047,-4e-05,2,21
6395,-0.0003,-0.0001,-0.00021,6e-05,-8e-05,0.00015,-0.00047,-4e-05,2,21
6396,-0.0003,-0.0001,-0.00021,6e-05,-8e-05,0.00015,-0.00047,-4e-05,2,21
6397,-0.0003,-0.0001,-0.00021,6e-05,-8e-05,0.00015,-0.00047,-4e-05,2,21
6399,-0.0003,-0.0001,-0.00021,6e-05,-8e-05,0.00015,-0.00047,-4e-05,2,21
6400,-0.0003,-0.0001,-0.00021,6e-05,-8e-05,0.00015,-0.00047,-4e-05,2,21
6401,-0.0003,-0.0001,-0.00021,6e-05,-8e-05,0.00015,-0.00047,-4e-05,2,21
6402,-0.0003,-0.0001,-0.00021,6e-05,-8e-05,0.00015,-0.00047,-4e-05,2,21
6403,-0.0003,-0.0001,-0.00021,6e-05,-8e-05,0.00015,-0.00047,-4e-05,2,21
6404,-0.0003,-0.0001,-0.00021,6e-05,-8e-05,0.00015,-0.00047,-4e-05,2,21
6405,-0.0003,-0.0001,-0.00021,6e-05,-8e-05,0.00015,-0.00047,-4e-05,2,21
6406,-0.0003,-0.0001,-0.00021,6e-05,-8e-05,0.00015,-0.00047,-4e-05,2,21
6407,-0.0003,-0.0001,-0.00021,6e-05,-8e-05,0.00015,-0.00047,-4e-05,2,21
6408,-0.0003,-0.0001,-0.00021,6e-05,-8e-05,0.00015,-0.00047,-4e-05,2,21
6409,-0.0003,-0.0001,-0.00021,6e-05,-8e-05,0.00015,-0.00047,-4e-05,2,21
6410,-0.0003,-0.0001,-0.00021,6e-05,-8e-05,0.00015,-0.00047,-4e-05,2,21
6411,-0.0003,-0.0001,-0.00021,6e-05,-8e-05,0.00015,-0.00047,-4e-05,2,21
6412,-0.0003,-0.0001,-0.00021,6e-05,-8e-05,0.00015,-0.00047,-4e-05,2,21
6413,8e-05,6e-05,0.00014,0.00016,0.00013,1e-05,-0.00048,0.00043,2,21
6414,0.00011,5e-05,0.00039,0.00025,0.00022,3e-05,0.00021,0.00023,2,21
6415,0.00011,5e-05,0.00039,0.00025,0.00022,3e-05,0.00021,0.00023,2,21
6416,0.00011,5e-05,0.00039,0.00025,0.00022,3e-05,0.00021,0.00023,2,21
6417,0.00011,5e-05,0.00039,0.00025,0.00022,3e-05,0.00021,0.00023,2,21
6418,0.00011,5e-05,0.00039,0.00025,0.00022,3e-05,0.00021,0.00023,2,21
6419,0.00011,5e-05,0.00039,0.00025,0.00022,3e-05,0.00021,0.00023,2,21
6420,0.00011,5e-05,0.00039,0.00025,0.00022,3e-05,0.00021,0.00023,2,21
6421,0.00011,5e-05,0.00039,0.00025,0.00022,3e-05,0.00021,0.00023,2,21
6422,0.00011,5e-05,0.00039,0.00025,0.00022,3e-05,0.00021,0.00023,2,21
6423,0.00011,5e-05,0.00039,0.00025,0.00022,3e-05,0.00021,0.00023,2,21
6424,0.00011,5e-05,0.00039,0.00025,0.00022,3e-05,0.00021,0.00023,2,21
6425,0.00011,5e-05,0.00039,0.00025,0.00022,3e-05,0.00021,0.00023,2,21
6426,0.00011,5e-05,0.00039,0.00025,0.00022,3e-05,0.00021,0.00023,2,21
6427,0.00011,5e-05,0.00039,0.00025,0.00022,3e-05,0.00021,0.00023,2,21
6428,0.00011,5e-05,0.00039,0.00025,0.00022,3e-05,0.00021,0.00023,2,21
6429,0.00011,5e-05,0.00039,0.00025,0.00022,3e-05,0.00021,0.00023,2,21
6430,0.00011,5e-05,0.00039,0.00025,0.00022,3e-05,0.00021,0.00023,2,21
6431,0.00011,5e-05,0.00039,0.00025,0.00022,3e-05,0.00021,0.00023,2,21
6432,0.00011,5e-05,0.00039,0.00025,0.00022,3e-05,0.00021,0.00023,2,21
6433,0.00011,5e-05,0.00039,0.00025,0.00022,3e-05,0.00021,0.00023,2,21
6434,0.00011,5e-05,0.00039,0.00025,0.00022,3e-05,0.00021,0.00023,2,21
6435,0.00024,-9e-05,-0.00025,-0.00021,-4e-05,-0.00022,-0.00011,0.00053,2,21
6437,-0.00014,0,-0.0001,-0.0003,-0.00015,-0.00033,-0.00026,-0.00046,2,21
6439,-0.00014,0,-0.0001,-0.0003,-0.00015,-0.00033,-0.00026,-0.00046,2,21
6440,-0.00014,0,-0.0001,-0.0003,-0.00015,-0.00033,-0.00026,-0.00046,2,21
6441,-0.00014,0,-0.0001,-0.0003,-0.00015,-0.00033,-0.00026,-0.00046,2,21
6442,-0.00014,0,-0.0001,-0.0003,-0.00015,-0.00033,-0.00026,-0.00046,2,21
6443,-0.00014,0,-0.0001,-0.0003,-0.00015,-0.00033,-0.00026,-0.00046,2,21
6444,-0.00014,0,-0.0001,-0.0003,-0.00015,-0.00033,-0.00026,-0.00046,2,21
6445,-0.00014,0,-0.0001,-0.0003,-0.00015,-0.00033,-0.00026,-0.00046,2,21
6446,-0.00014,0,-0.0001,-0.0003,-0.00015,-0.00033,-0.00026,-0.00046,2,21
6447,-0.00014,0,-0.0001,-0.0003,-0.00015,-0.00033,-0.00026,-0.00046,2,21
6448,-0.00014,0,-0.0001,-0.0003,-0.00015,-0.00033,-0.00026,-0.00046,2,21
6449,-0.00014,0,-0.0001,-0.0003,-0.00015,-0.00033,-0.00026,-0.00046,2,21
6450,0.00059,-2e-05,0.0002,0.00048,-4e-05,0.00017,0.0008,0.00016,2,21
6451,-0.00025,4e-05,-3e-05,-0.00045,-0.00046,6e-05,0.00017,-0.00017,2,21
6452,9e-05,-0.00015,-0.00053,-0.00049,0,0,0,-0.00037,2,21
6453,9e-05,-0.00015,-0.00053,-0.00049,0,0,0,-0.00037,2,21
6454,9e-05,-0.00015,-0.00053,-0.00049,0,0,0,-0.00037,2,21
6455,9e-05,-0.00015,-0.00053,-0.00049,0,0,0,-0.00037,2,21
6456,9e-05,-0.00015,-0.00053,-0.00049,0,0,0,-0.00037,2,21
6457,9e-05,-0.00015,-0.00053,-0.00049,0,0,0,-0.00037,2,21
6458,9e-05,-0.00015,-0.00053,-0.00049,0,0,0,-0.00037,2,21
6459,9e-05,-0.00015,-0.00053,-0.00049,0,0,0,-0.00037,2,21
6460,9e-05,-0.00015,-0.00053,-0.00049,0,0,0,-0.00037,2,21
6461,9e-05,-0.00015,-0.00053,-0.00049,0,0,0,-0.00037,2,21
6462,9e-05,-0.00015,-0.00053,-0.00049,0,0,0,-0.00037,2,21
6463,9e-05,-0.00015,-0.00053,-0.00049,0,0,0,-0.00037,2,21
6464,9e-05,-0.00015,-0.00053,-0.00049,0,0,0,-0.00037,2,21
6465,9e-05,-0.00015,-0.00053,-0.00049,0,0,0,-0.00037,2,21
6466,9e-05,-0.00015,-0.00053,-0.00049,0,0,0,-0.00037,2,21
6467,9e-05,-0.00015,-0.00053,-0.00049,0,0,0,-0.00037,2,21
6468,9e-05,-0.00015,-0.00053,-0.00049,0,0,0,-0.00037,2,21
6469,9e-05,-0.00015,-0.00053,-0.00049,0,0,0,-0.00037,2,21
6470,9e-05,-0.00015,-0.00053,-0.00049,0,0,0,-0.00037,2,21
6471,9e-05,-0.00015,-0.00053,-0.00049,0,0,0,-0.00037,2,21
6472,0.00021,7e-05,0.00029,0.00016,-0.00022,3e-05,2e-05,0.00011,2,21
6473,-0.00043,2e-05,-4e-05,-0.00017,-0.0002,0.00025,-0.00045,-0.00011,2,21
6474,-0.00035,-2e-05,-0.00025,-0.00013,-0.00013,-0.00022,2e-05,0.00015,2,21
6475,-0.00035,-2e-05,-0.00025,-0.00013,-0.00013,-0.00022,2e-05,0.00015,2,21
6476,-0.00035,-2e-05,-0.00025,-0.00013,-0.00013,-0.00022,2e-05,0.00015,2,21
6477,-0.00035,-2e-05,-0.00025,-0.00013,-0.00013,-0.00022,2e-05,0.00015,2,21
6478,-0.00035,-2e-05,-0.00025,-0.00013,-0.00013,-0.00022,2e-05,0.00015,2,21
6479,-0.00035,-2e-05,-0.00025,-0.00013,-0.00013,-0.00022,2e-05,0.00015,2,21
6480,-0.00035,-2e-05,-0.00025,-0.00013,-0.00013,-0.00022,2e-05,0.00015,2,21
6481,-0.00035,-2e-05,-0.00025,-0.00013,-0.00013,-0.00022,2e-05,0.00015,2,21
6482,-0.00035,-2e-05,-0.00025,-0.00013,-0.00013,-0.00022,2e-05,0.00015,2,21
6483,-0.00035,-2e-05,-0.00025,-0.00013,-0.00013,-0.00022,2e-05,0.00015,2,21
6484,-0.00035,-2e-05,-0.00025,-0.00013,-0.00013,-0.00022,2e-05,0.00015,2,21
6485,-0.00035,-2e-05,-0.00025,-0.00013,-0.00013,-0.00022,2e-05,0.00015,2,21
6487,-0.00035,-2e-05,-0.00025,-0.00013,-0.00013,-0.00022,2e-05,0.00015,2,21
6489,-0.00035,-2e-05,-0.00025,-0.00013,-0.00013,-0.00022,2e-05,0.00015,2,21
6490,-0.00035,-2e-05,-0.00025,-0.00013,-0.00013,-0.00022,2e-05,0.00015,2,21
6491,-0.00035,-2e-05,-0.00025,-0.00013,-0.00013,-0.00022,2e-05,0.00015,2,21
6492,-0.00035,-2e-05,-0.00025,-0.00013,-0.00013,-0.00022,2e-05,0.00015,2,21
6493,-0.00035,-2e-05,-0.00025,-0.00013,-0.00013,-0.00022,2e-05,0.00015,2,21
6494,-0.00035,-2e-05,-0.00025,-0.00013,-0.00013,-0.00022,2e-05,0.00015,2,21
6495,5e-05,0.00017,0.0005,0.0009,-0.00012,0.00018,-0.00064,0.00063,2,21
6496,5e-05,0.00017,0.0005,0.0009,-0.00012,0.00018,-0.00064,0.00063,2,21
6497,0.00039,-3e-05,-0.00016,0.00029,0.00043,-0.00034,-8e-05,-0.00054,2,21
6498,0.00039,-3e-05,-0.00016,0.00029,0.00043,-0.00034,-8e-05,-0.00054,2,21
6499,0.00039,-3e-05,-0.00016,0.00029,0.00043,-0.00034,-8e-05,-0.00054,2,21
6500,0.00039,-3e-05,-0.00016,0.00029,0.00043,-0.00034,-8e-05,-0.00054,2,21
6501,0.00039,-3e-05,-0.00016,0.00029,0.00043,-0.00034,-8e-05,-0.00054,2,21
6502,0.00039,-3e-05,-0.00016,0.00029,0.00043,-0.00034,-8e-05,-0.00054,2,21
6503,0.00039,-3e-05,-0.00016,0.00029,0.00043,-0.00034,-8e-05,-0.00054,2,21
6504,0.00039,-3e-05,-0.00016,0.00029,0.00043,-0.00034,-8e-05,-0.00054,2,21
6505,0.00039,-3e-05,-0.00016,0.00029,0.00043,-0.00034,-8e-05,-0.00054,2,21
6506,0.00039,-3e-05,-0.00016,0.00029,0.00043,-0.00034,-8e-05,-0.00054,2,21
6507,0.00039,-3e-05,-0.00016,0.00029,0.00043,-0.00034,-8e-05,-0.00054,2,21
6508,0.00039,-3e-05,-0.00016,0.00029,0.00043,-0.00034,-8e-05,-0.00054,2,21
6509,0.00039,-3e-05,-0.00016,0.00029,0.00043,-0.00034,-8e-05,-0.00054,2,21
6510,0.00014,6e-05,9e-05,0.00012,0.00019,0.00036,-0.00032,-0.00056,2,21
6511,0.00014,6e-05,9e-05,0.00012,0.00019,0.00036,-0.00032,-0.00056,2,21
6512,-0.00037,-0.00022,-0.00021,-0.00035,-0.00031,-0.00014,0.00025,-0.00016,2,21
6513,-0.00037,-0.00022,-0.00021,-0.00035,-0.00031,-0.00014,0.00025,-0.00016,2,21
6514,-0.00037,-0.00022,-0.00021,-0.00035,-0.00031,-0.00014,0.00025,-0.00016,2,21
6515,-0.00037,-0.00022,-0.00021,-0.00035,-0.00031,-0.00014,0.00025,-0.00016,2,21
6516,-0.00037,-0.00022,-0.00021,-0.00035,-0.00031,-0.00014,0.00025,-0.00016,2,21
6517,-0.00037,-0.00022,-0.00021,-0.00035,-0.00031,-0.00014,0.00025,-0.00016,2,21
6518,-0.00037,-0.00022,-0.00021,-0.00035,-0.00031,-0.00014,0.00025,-0.00016,2,21
6519,-0.00037,-0.00022,-0.00021,-0.00035,-0.00031,-0.00014,0.00025,-0.00016,2,21
6520,-0.00037,-0.00022,-0.00021,-0.00035,-0.00031,-0.00014,0.00025,-0.00016,2,21
6521,-0.00037,-0.00022,-0.00021,-0.00035,-0.00031,-0.00014,0.00025,-0.00016,2,21
6522,-0.00037,-0.00022,-0.00021,-0.00035,-0.00031,-0.00014,0.00025,-0.00016,2,21
6523,-0.00037,-0.00022,-0.00021,-0.00035,-0.00031,-0.00014,0.00025,-0.00016,2,21
6524,-0.00037,-0.00022,-0.00021,-0.00035,-0.00031,-0.00014,0.00025,-0.00016,2,21
6525,-0.00037,-0.00022,-0.00021,-0.00035,-0.00031,-0.00014,0.00025,-0.00016,2,21
6526,-0.00037,-0.00022,-0.00021,-0.00035,-0.00031,-0.00014,0.00025,-0.00016,2,21
6527,-0.00037,-0.00022,-0.00021,-0.00035,-0.00031,-0.00014,0.00025,-0.00016,2,21
6528,-0.00037,-0.00022,-0.00021,-0.00035,-0.00031,-0.00014,0.00025,-0.00016,2,21
6529,-0.00037,-0.00022,-0.00021,-0.00035,-0.00031,-0.00014,0.00025,-0.00016,2,21
6530,-0.00037,-0.00022,-0.00021,-0.00035,-0.00031,-0.00014,0.00025,-0.00016,2,21
6531,-0.00037,-0.00022,-0.00021,-0.00035,-0.00031,-0.00014,0.00025,-0.00016,2,21
6532,-0.00037,-0.00022,-0.00021,-0.00035,-0.00031,-0.00014,0.00025,-0.00016,2,21
6533,-4e-05,-3e-05,-7e-05,0.00034,0.00088,-0.00022,-0.00042,-0.0003,2,21
6534,-0.00026,-8e-05,-0.00015,-8e-05,0.00017,-2e-05,0.00038,0.00044,2,21
6535,-0.00026,-8e-05,-0.00015,-8e-05,0.00017,-2e-05,0.00038,0.00044,2,21
6537,-0.00026,-8e-05,-0.00015,-8e-05,0.00017,-2e-05,0.00038,0.00044,2,21
6539,-0.00026,-8e-05,-0.00015,-8e-05,0.00017,-2e-05,0.00038,0.00044,2,21
6540,-0.00026,-8e-05,-0.00015,-8e-05,0.00017,-2e-05,0.00038,0.00044,2,21
6541,-0.00026,-8e-05,-0.00015,-8e-05,0.00017,-2e-05,0.00038,0.00044,2,21
6542,-0.00026,-8e-05,-0.00015,-8e-05,0.00017,-2e-05,0.00038,0.00044,2,21
6543,-0.00026,-8e-05,-0.00015,-8e-05,0.00017,-2e-05,0.00038,0.00044,2,21
6544,-0.00026,-8e-05,-0.00015,-8e-05,0.00017,-2e-05,0.00038,0.00044,2,21
6545,-0.00026,-8e-05,-0.00015,-8e-05,0.00017,-2e-05,0.00038,0.00044,2,21
6546,-0.00026,-8e-05,-0.00015,-8e-05,0.00017,-2e-05,0.00038,0.00044,2,21
6547,-0.00026,-8e-05,-0.00015,-8e-05,0.00017,-2e-05,0.00038,0.00044,2,21
6548,-0.00026,-8e-05,-0.00015,-8e-05,0.00017,-2e-05,0.00038,0.00044,2,21
6549,-0.00026,-8e-05,-0.00015,-8e-05,0.00017,-2e-05,0.00038,0.00044,2,21
6550,-0.00026,-8e-05,-0.00015,-8e-05,0.00017,-2e-05,0.00038,0.00044,2,21
6551,-0.00026,-8e-05,-0.00015,-8e-05,0.00017,-2e-05,0.00038,0.00044,2,21
6552,-0.00026,-8e-05,-0.00015,-8e-05,0.00017,-2e-05,0.00038,0.00044,2,21
6553,-0.00026,-8e-05,-0.00015,-8e-05,0.00017,-2e-05,0.00038,0.00044,2,21
6554,-0.00026,-8e-05,-0.00015,-8e-05,0.00017,-2e-05,0.00038,0.00044,2,21
6555,0.00011,-4e-05,0.00016,0.00057,-0.00035,-0.00059,-0.00018,0.00027,2,21
6556,0.00011,-4e-05,0.00016,0.00057,-0.00035,-0.00059,-0.00018,0.00027,2,21
6557,0.00028,0.00012,0.00029,0.00066,0.00011,0.00014,-0.00013,0.00041,2,21
6558,0.00028,0.00012,0.00029,0.00066,0.00011,0.00014,-0.00013,0.00041,2,21
6559,0.00028,0.00012,0.00029,0.00066,0.00011,0.00014,-0.00013,0.00041,2,21
6560,0.00028,0.00012,0.00029,0.00066,0.00011,0.00014,-0.00013,0.00041,2,21
6561,0.00028,0.00012,0.00029,0.00066,0.00011,0.00014,-0.00013,0.00041,2,21
6562,0.00028,0.00012,0.00029,0.00066,0.00011,0.00014,-0.00013,0.00041,2,21
6563,0.00028,0.00012,0.00029,0.00066,0.00011,0.00014,-0.00013,0.00041,2,21
6564,0.00028,0.00012,0.00029,0.00066,0.00011,0.00014,-0.00013,0.00041,2,21
6565,0.00028,0.00012,0.00029,0.00066,0.00011,0.00014,-0.00013,0.00041,2,21
6566,0.00028,0.00012,0.00029,0.00066,0.00011,0.00014,-0.00013,0.00041,2,21
6567,0.00028,0.00012,0.00029,0.00066,0.00011,0.00014,-0.00013,0.00041,2,21
6568,0.00028,0.00012,0.00029,0.00066,0.00011,0.00014,-0.00013,0.00041,2,21
6569,0.00028,0.00012,0.00029,0.00066,0.00011,0.00014,-0.00013,0.00041,2,21
6570,-0.00012,6e-05,-5e-05,-0.00054,-0.00014,0.00011,7e-05,0.00032,2,21
6571,-0.00012,6e-05,-5e-05,-0.00054,-0.00014,0.00011,7e-05,0.00032,2,21
6572,0.00015,-0.00013,9e-05,-0.00026,0.00031,0.00012,0.00029,0.00011,2,21
6573,0.00015,-0.00013,9e-05,-0.00026,0.00031,0.00012,0.00029,0.00011,2,21
6574,0.00015,-0.00013,9e-05,-0.00026,0.00031,0.00012,0.00029,0.00011,2,21
6575,0.00015,-0.00013,9e-05,-0.00026,0.00031,0.00012,0.00029,0.00011,2,21
6576,0.00015,-0.00013,9e-05,-0.00026,0.00031,0.00012,0.00029,0.00011,2,21
6577,0.00015,-0.00013,9e-05,-0.00026,0.00031,0.00012,0.00029,0.00011,2,21
6578,0.00015,-0.00013,9e-05,-0.00026,0.00031,0.00012,0.00029,0.00011,2,21
6579,0.00015,-0.00013,9e-05,-0.00026,0.00031,0.00012,0.00029,0.00011,2,21
6580,0.00015,-0.00013,9e-05,-0.00026,0.00031,0.00012,0.00029,0.00011,2,21
6581,0.00015,-0.00013,9e-05,-0.00026,0.00031,0.00012,0.00029,0.00011,2,21
6582,0.00015,-0.00013,9e-05,-0.00026,0.00031,0.00012,0.00029,0.00011,2,21
6583,0.00015,-0.00013,9e-05,-0.00026,0.00031,0.00012,0.00029,0.00011,2,21
6584,0.00015,-0.00013,9e-05,-0.00026,0.00031,0.00012,0.00029,0.00011,2,21
6585,0.00015,-0.00013,9e-05,-0.00026,0.00031,0.00012,0.00029,0.00011,2,21
6587,0.00015,-0.00013,9e-05,-0.00026,0.00031,0.00012,0.00029,0.00011,2,21
6589,0.00015,-0.00013,9e-05,-0.00026,0.00031,0.00012,0.00029,0.00011,2,21
6590,0.00015,-0.00013,9e-05,-0.00026,0.00031,0.00012,0.00029,0.00011,2,21
6591,0.00015,-0.00013,9e-05,-0.00026,0.00031,0.00012,0.00029,0.00011,2,21
6592,0.00015,-0.00013,9e-05,-0.00026,0.00031,0.00012,0.00029,0.00011,2,21
6593,0.0003,-4e-05,-0.00041,-0.00112,0.00042,-0.00032,0.00067,-0.00099,2,21
6594,0.00036,5e-05,-0.00013,-0.00027,0.00015,0.00015,-0.00028,-0.00038,2,21
6595,0.00036,5e-05,-0.00013,-0.00027,0.00015,0.00015,-0.00028,-0.00038,2,21
6596,0.00036,5e-05,-0.00013,-0.00027,0.00015,0.00015,-0.00028,-0.00038,2,21
6597,0.00036,5e-05,-0.00013,-0.00027,0.00015,0.00015,-0.00028,-0.00038,2,21
6598,0.00036,5e-05,-0.00013,-0.00027,0.00015,0.00015,-0.00028,-0.00038,2,21
6599,0.00036,5e-05,-0.00013,-0.00027,0.00015,0.00015,-0.00028,-0.00038,2,21
6600,0.00036,5e-05,-0.00013,-0.00027,0.00015,0.00015,-0.00028,-0.00038,2,21
6601,0.00036,5e-05,-0.00013,-0.00027,0.00015,0.00015,-0.00028,-0.00038,2,21
6602,0.00036,5e-05,-0.00013,-0.00027,0.00015,0.00015,-0.00028,-0.00038,2,21
6603,0.00036,5e-05,-0.00013,-0.00027,0.00015,0.00015,-0.00028,-0.00038,2,21
6604,0.00036,5e-05,-0.00013,-0.00027,0.00015,0.00015,-0.00028,-0.00038,2,21
6605,0.00036,5e-05,-0.00013,-0.00027,0.00015,0.00015,-0.00028,-0.00038,2,21
6606,0.00036,5e-05,-0.00013,-0.00027,0.00015,0.00015,-0.00028,-0.00038,2,21
6607,0.00036,5e-05,-0.00013,-0.00027,0.00015,0.00015,-0.00028,-0.00038,2,21
6608,0.00036,5e-05,-0.00013,-0.00027,0.00015,0.00015,-0.00028,-0.00038,2,21
6609,0.00036,5e-05,-0.00013,-0.00027,0.00015,0.00015,-0.00028,-0.00038,2,21
6610,0.00036,5e-05,-0.00013,-0.00027,0.00015,0.00015,-0.00028,-0.00038,2,21
6611,0.00036,5e-05,-0.00013,-0.00027,0.00015,0.00015,-0.00028,-0.00038,2,21
6612,0.00036,5e-05,-0.00013,-0.00027,0.00015,0.00015,-0.00028,-0.00038,2,21
6613,0.00036,5e-05,-0.00013,-0.00027,0.00015,0.00015,-0.00028,-0.00038,2,21
6614,0.00036,5e-05,-0.00013,-0.00027,0.00015,0.00015,-0.00028,-0.00038,2,21
6615,-0.00038,-4e-05,-0.00014,-0.00011,-0.00031,-0.00018,0.00022,0.00011,2,21
6616,0.00042,0.00014,0.00021,0.00022,-0.00014,-0.00022,-0.00049,0.00037,2,21
6617,-4e-05,1e-05,0.00023,0.00012,0.00038,0.0003,-6e-05,-0.00071,2,21
6618,-4e-05,1e-05,0.00023,0.00012,0.00038,0.0003,-6e-05,-0.00071,2,21
6619,-4e-05,1e-05,0.00023,0.00012,0.00038,0.0003,-6e-05,-0.00071,2,21
6620,-4e-05,1e-05,0.00023,0.00012,0.00038,0.0003,-6e-05,-0.00071,2,21
6621,-4e-05,1e-05,0.00023,0.00012,0.00038,0.0003,-6e-05,-0.00071,2,21
6622,-4e-05,1e-05,0.00023,0.00012,0.00038,0.0003,-6e-05,-0.00071,2,21
6623,-4e-05,1e-05,0.00023,0.00012,0.00038,0.0003,-6e-05,-0.00071,2,21
6624,-4e-05,1e-05,0.00023,0.00012,0.00038,0.0003,-6e-05,-0.00071,2,21
6625,-4e-05,1e-05,0.00023,0.00012,0.00038,0.0003,-6e-05,-0.00071,2,21
6626,-4e-05,1e-05,0.00023,0.00012,0.00038,0.0003,-6e-05,-0.00071,2,21
6627,-4e-05,1e-05,0.00023,0.00012,0.00038,0.0003,-6e-05,-0.00071,2,21
6628,-4e-05,1e-05,0.00023,0.00012,0.00038,0.0003,-6e-05,-0.00071,2,21
6629,-0.00012,-0.00031,-0.0006,-0.00088,-7e-05,-0.00081,-0.00128,-0.0001,2,21
6630,-0.00052,-0.00026,-0.00094,-0.0009,-6e-05,0.00038,0.00024,0.00021,2,21
6631,-0.00052,-0.00026,-0.00094,-0.0009,-6e-05,0.00038,0.00024,0.00021,2,21
6632,-0.00052,-0.00026,-0.00094,-0.0009,-6e-05,0.00038,0.00024,0.00021,2,21
6633,-0.00052,-0.00026,-0.00094,-0.0009,-6e-05,0.00038,0.00024,0.00021,2,21
6634,-0.00052,-0.00026,-0.00094,-0.0009,-6e-05,0.00038,0.00024,0.00021,2,21
6635,-0.00052,-0.00026,-0.00094,-0.0009,-6e-05,0.00038,0.00024,0.00021,2,21
6637,0.00016,1e-05,0.00017,0.00011,-0.0005,-1e-05,4e-05,7e-05,2,21
6639,0.00016,1e-05,0.00017,0.00011,-0.0005,-1e-05,4e-05,7e-05,2,21
6640,0.00016,1e-05,0.00017,0.00011,-0.0005,-1e-05,4e-05,7e-05,2,21
6641,0.00016,1e-05,0.00017,0.00011,-0.0005,-1e-05,4e-05,7e-05,2,21
6642,0.00016,1e-05,0.00017,0.00011,-0.0005,-1e-05,4e-05,7e-05,2,21
6643,0.00016,1e-05,0.00017,0.00011,-0.0005,-1e-05,4e-05,7e-05,2,21
6644,0.00016,1e-05,0.00017,0.00011,-0.0005,-1e-05,4e-05,7e-05,2,21
6645,0.00016,1e-05,0.00017,0.00011,-0.0005,-1e-05,4e-05,7e-05,2,21
6646,0.00016,1e-05,0.00017,0.00011,-0.0005,-1e-05,4e-05,7e-05,2,21
6647,0.00016,1e-05,0.00017,0.00011,-0.0005,-1e-05,4e-05,7e-05,2,21
6648,0.00016,1e-05,0.00017,0.00011,-0.0005,-1e-05,4e-05,7e-05,2,21
6649,0.00016,1e-05,0.00017,0.00011,-0.0005,-1e-05,4e-05,7e-05,2,21
6650,0.00016,1e-05,0.00017,0.00011,-0.0005,-1e-05,4e-05,7e-05,2,21
6651,0.00016,1e-05,0.00017,0.00011,-0.0005,-1e-05,4e-05,7e-05,2,21
6652,0.00016,1e-05,0.00017,0.00011,-0.0005,-1e-05,4e-05,7e-05,2,21
6653,-4e-05,0.00012,0.00023,0.00013,-0.00024,-0.00046,-0.00036,2e-05,2,21
6654,0.00026,3e-05,-7e-05,-0.00019,-0.00036,8e-05,0.00084,-0.00032,2,21
6655,0.00026,3e-05,-7e-05,-0.00019,-0.00036,8e-05,0.00084,-0.00032,2,21
6656,0.00026,3e-05,-7e-05,-0.00019,-0.00036,8e-05,0.00084,-0.00032,2,21
6657,0.00026,3e-05,-7e-05,-0.00019,-0.00036,8e-05,0.00084,-0.00032,2,21
6658,0.00026,3e-05,-7e-05,-0.00019,-0.00036,8e-05,0.00084,-0.00032,2,21
6659,0.00026,3e-05,-7e-05,-0.00019,-0.00036,8e-05,0.00084,-0.00032,2,21
6660,0.00026,3e-05,-7e-05,-0.00019,-0.00036,8e-05,0.00084,-0.00032,2,21
6661,0.00026,3e-05,-7e-05,-0.00019,-0.00036,8e-05,0.00084,-0.00032,2,21
6662,0.00026,3e-05,-7e-05,-0.00019,-0.00036,8e-05,0.00084,-0.00032,2,21
6663,0.00026,3e-05,-7e-05,-0.00019,-0.00036,8e-05,0.00084,-0.00032,2,21
6664,0.00026,3e-05,-7e-05,-0.00019,-0.00036,8e-05,0.00084,-0.00032,2,21
6665,0.00026,3e-05,-7e-05,-0.00019,-0.00036,8e-05,0.00084,-0.00032,2,21
6666,0.00026,3e-05,-7e-05,-0.00019,-0.00036,8e-05,0.00084,-0.00032,2,21
6667,0.00026,3e-05,-7e-05,-0.00019,-0.00036,8e-05,0.00084,-0.00032,2,21
6668,0.00026,3e-05,-7e-05,-0.00019,-0.00036,8e-05,0.00084,-0.00032,2,21
6669,0.00026,3e-05,-7e-05,-0.00019,-0.00036,8e-05,0.00084,-0.00032,2,21
6670,0.00026,3e-05,-7e-05,-0.00019,-0.00036,8e-05,0.00084,-0.00032,2,21
6671,0.00026,3e-05,-7e-05,-0.00019,-0.00036,8e-05,0.00084,-0.00032,2,21
6672,0.00026,3e-05,-7e-05,-0.00019,-0.00036,8e-05,0.00084,-0.00032,2,21
6673,0.00026,3e-05,-7e-05,-0.00019,-0.00036,8e-05,0.00084,-0.00032,2,21
6674,0.00026,3e-05,-7e-05,-0.00019,-0.00036,8e-05,0.00084,-0.00032,2,21
6675,0.0001,7e-05,9e-05,0.00013,0.00038,0.00011,-0.00025,0.00053,2,21
6676,-8e-05,5e-05,0.00032,0.00021,-5e-05,8e-05,0.00064,7e-05,2,21
6677,9e-05,-0.00021,-0.00046,-0.0006,0.00014,0.00025,-0.00014,0.00057,2,21
6678,9e-05,-0.00021,-0.00046,-0.0006,0.00014,0.00025,-0.00014,0.00057,2,21
6679,9e-05,-0.00021,-0.00046,-0.0006,0.00014,0.00025,-0.00014,0.00057,2,21
6680,9e-05,-0.00021,-0.00046,-0.0006,0.00014,0.00025,-0.00014,0.00057,2,21
6681,9e-05,-0.00021,-0.00046,-0.0006,0.00014,0.00025,-0.00014,0.00057,2,21
6682,9e-05,-0.00021,-0.00046,-0.0006,0.00014,0.00025,-0.00014,0.00057,2,21
6683,9e-05,-0.00021,-0.00046,-0.0006,0.00014,0.00025,-0.00014,0.00057,2,21
6684,9e-05,-0.00021,-0.00046,-0.0006,0.00014,0.00025,-0.00014,0.00057,2,21
6685,9e-05,-0.00021,-0.00046,-0.0006,0.00014,0.00025,-0.00014,0.00057,2,21
6687,9e-05,-0.00021,-0.00046,-0.0006,0.00014,0.00025,-0.00014,0.00057,2,21
6689,0.00034,0.0002,0.00021,0.00043,-0.00023,0.00025,0.00018,-0.00016,2,21
6690,0.00021,0.00012,0.00025,0.00031,0.00028,-0.0007,-7e-05,-0.00013,2,21
6691,0.00021,0.00012,0.00025,0.00031,0.00028,-0.0007,-7e-05,-0.00013,2,21
6692,0.00021,0.00012,0.00025,0.00031,0.00028,-0.0007,-7e-05,-0.00013,2,21
6693,0.00021,0.00012,0.00025,0.00031,0.00028,-0.0007,-7e-05,-0.00013,2,21
6694,0.00021,0.00012,0.00025,0.00031,0.00028,-0.0007,-7e-05,-0.00013,2,21
6695,0.00021,0.00012,0.00025,0.00031,0.00028,-0.0007,-7e-05,-0.00013,2,21
6696,-1e-05,-1e-05,6e-05,8e-05,-0.0002,-0.0003,0.00019,0.00061,2,21
6697,-1e-05,-1e-05,6e-05,8e-05,-0.0002,-0.0003,0.00019,0.00061,2,21
6698,-1e-05,-1e-05,6e-05,8e-05,-0.0002,-0.0003,0.00019,0.00061,2,21
6699,-1e-05,-1e-05,6e-05,8e-05,-0.0002,-0.0003,0.00019,0.00061,2,21
6700,-1e-05,-1e-05,6e-05,8e-05,-0.0002,-0.0003,0.00019,0.00061,2,21
6701,-1e-05,-1e-05,6e-05,8e-05,-0.0002,-0.0003,0.00019,0.00061,2,21
6702,-1e-05,-1e-05,6e-05,8e-05,-0.0002,-0.0003,0.00019,0.00061,2,21
6703,-1e-05,-1e-05,6e-05,8e-05,-0.0002,-0.0003,0.00019,0.00061,2,21
6704,-1e-05,-1e-05,6e-05,8e-05,-0.0002,-0.0003,0.00019,0.00061,2,21
6705,-1e-05,-1e-05,6e-05,8e-05,-0.0002,-0.0003,0.00019,0.00061,2,21
6706,-1e-05,-1e-05,6e-05,8e-05,-0.0002,-0.0003,0.00019,0.00061,2,21
6707,-1e-05,-1e-05,6e-05,8e-05,-0.0002,-0.0003,0.00019,0.00061,2,21
6708,-1e-05,-1e-05,6e-05,8e-05,-0.0002,-0.0003,0.00019,0.00061,2,21
6709,-1e-05,-1e-05,6e-05,8e-05,-0.0002,-0.0003,0.00019,0.00061,2,21
6710,-1e-05,-1e-05,6e-05,8e-05,-0.0002,-0.0003,0.00019,0.00061,2,21
6711,-1e-05,-1e-05,6e-05,8e-05,-0.0002,-0.0003,0.00019,0.00061,2,21
6712,-0.00044,-7e-05,-9e-05,-0.00047,0.00031,0,-0.00024,-0.00038,2,21
6713,0.0003,-4e-05,-0.00021,-0.00037,-0.00059,0.00019,-6e-05,-0.00017,2,21
6714,-0.00018,0,-0.00014,0.00038,-0.00028,-0.00011,-0.00023,-0.00066,2,21
6715,-0.00018,0,-0.00014,0.00038,-0.00028,-0.00011,-0.00023,-0.00066,2,21
6716,-0.00018,0,-0.00014,0.00038,-0.00028,-0.00011,-0.00023,-0.00066,2,21
6717,-0.00018,0,-0.00014,0.00038,-0.00028,-0.00011,-0.00023,-0.00066,2,21
6718,-0.00018,0,-0.00014,0.00038,-0.00028,-0.00011,-0.00023,-0.00066,2,21
6719,-0.00018,0,-0.00014,0.00038,-0.00028,-0.00011,-0.00023,-0.00066,2,21
6720,-0.00018,0,-0.00014,0.00038,-0.00028,-0.00011,-0.00023,-0.00066,2,21
6721,-0.00018,0,-0.00014,0.00038,-0.00028,-0.00011,-0.00023,-0.00066,2,21
6722,-0.00018,0,-0.00014,0.00038,-0.00028,-0.00011,-0.00023,-0.00066,2,21
6723,-0.00018,0,-0.00014,0.00038,-0.00028,-0.00011,-0.00023,-0.00066,2,21
6724,-0.00018,0,-0.00014,0.00038,-0.00028,-0.00011,-0.00023,-0.00066,2,21
6725,-0.00018,0,-0.00014,0.00038,-0.00028,-0.00011,-0.00023,-0.00066,2,21
6726,-0.00018,0,-0.00014,0.00038,-0.00028,-0.00011,-0.00023,-0.00066,2,21
6727,-0.00018,0,-0.00014,0.00038,-0.00028,-0.00011,-0.00023,-0.00066,2,21
6728,-0.00018,0,-0.00014,0.00038,-0.00028,-0.00011,-0.00023,-0.00066,2,21
6729,-0.00018,0,-0.00014,0.00038,-0.00028,-0.00011,-0.00023,-0.00066,2,21
6730,-0.00018,0,-0.00014,0.00038,-0.00028,-0.00011,-0.00023,-0.00066,2,21
6731,-0.00018,0,-0.00014,0.00038,-0.00028,-0.00011,-0.00023,-0.00066,2,21
6732,-0.00018,0,-0.00014,0.00038,-0.00028,-0.00011,-0.00023,-0.00066,2,21
6733,-0.00018,0,-0.00014,0.00038,-0.00028,-0.00011,-0.00023,-0.00066,2,21
6734,-0.00018,0,-0.00014,0.00038,-0.00028,-0.00011,-0.00023,-0.00066,2,21
6735,0.00024,8e-05,0.00044,0.0004,-0.00013,0.00013,-6e-05,0.00021,2,21
6737,-0.00011,-5e-05,-0.00042,-0.00023,0.00063,0.00052,-1e-05,9e-05,2,21
6739,-0.00011,-5e-05,-0.00042,-0.00023,0.00063,0.00052,-1e-05,9e-05,2,21
6740,-0.00011,-5e-05,-0.00042,-0.00023,0.00063,0.00052,-1e-05,9e-05,2,21
6741,-0.00011,-5e-05,-0.00042,-0.00023,0.00063,0.00052,-1e-05,9e-05,2,21
6742,-0.00011,-5e-05,-0.00042,-0.00023,0.00063,0.00052,-1e-05,9e-05,2,21
6743,-0.00011,-5e-05,-0.00042,-0.00023,0.00063,0.00052,-1e-05,9e-05,2,21
6744,-0.00011,-5e-05,-0.00042,-0.00023,0.00063,0.00052,-1e-05,9e-05,2,21
6745,-0.00011,-5e-05,-0.00042,-0.00023,0.00063,0.00052,-1e-05,9e-05,2,21
6746,-0.00011,-5e-05,-0.00042,-0.00023,0.00063,0.00052,-1e-05,9e-05,2,21
6747,-0.00011,-5e-05,-0.00042,-0.00023,0.00063,0.00052,-1e-05,9e-05,2,21
6748,-0.00011,-5e-05,-0.00042,-0.00023,0.00063,0.00052,-1e-05,9e-05,2,21
6749,9e-05,-6e-05,0.00028,0.00058,-0.0001,9e-05,0.00056,0.00094,2,21
6750,-0.0005,-3e-05,-8e-05,-0.00052,-0.0002,0.00052,-0.0008,-0.00097,2,21
6751,-0.0005,-3e-05,-8e-05,-0.00052,-0.0002,0.00052,-0.0008,-0.00097,2,21
6752,-0.0005,-3e-05,-8e-05,-0.00052,-0.0002,0.00052,-0.0008,-0.00097,2,21
6753,-0.0005,-3e-05,-8e-05,-0.00052,-0.0002,0.00052,-0.0008,-0.00097,2,21
6754,-0.0005,-3e-05,-8e-05,-0.00052,-0.0002,0.00052,-0.0008,-0.00097,2,21
6755,-0.0005,-3e-05,-8e-05,-0.00052,-0.0002,0.00052,-0.0008,-0.00097,2,21
6756,-0.00027,0.00017,0.00036,0.00035,0.00012,-0.00022,-0.00018,0.00053,2,21
6757,-0.00027,0.00017,0.00036,0.00035,0.00012,-0.00022,-0.00018,0.00053,2,21
6758,-0.00027,0.00017,0.00036,0.00035,0.00012,-0.00022,-0.00018,0.00053,2,21
6759,-0.00027,0.00017,0.00036,0.00035,0.00012,-0.00022,-0.00018,0.00053,2,21
6760,-0.00027,0.00017,0.00036,0.00035,0.00012,-0.00022,-0.00018,0.00053,2,21
6761,-0.00027,0.00017,0.00036,0.00035,0.00012,-0.00022,-0.00018,0.00053,2,21
6762,-0.00027,0.00017,0.00036,0.00035,0.00012,-0.00022,-0.00018,0.00053,2,21
6763,-0.00027,0.00017,0.00036,0.00035,0.00012,-0.00022,-0.00018,0.00053,2,21
6764,-0.00027,0.00017,0.00036,0.00035,0.00012,-0.00022,-0.00018,0.00053,2,21
6765,-0.00027,0.00017,0.00036,0.00035,0.00012,-0.00022,-0.00018,0.00053,2,21
6766,-0.00027,0.00017,0.00036,0.00035,0.00012,-0.00022,-0.00018,0.00053,2,21
6767,-0.00027,0.00017,0.00036,0.00035,0.00012,-0.00022,-0.00018,0.00053,2,21
6768,-0.00027,0.00017,0.00036,0.00035,0.00012,-0.00022,-0.00018,0.00053,2,21
6769,-0.00027,0.00017,0.00036,0.00035,0.00012,-0.00022,-0.00018,0.00053,2,21
6770,-0.00027,0.00017,0.00036,0.00035,0.00012,-0.00022,-0.00018,0.00053,2,21
6771,-0.00027,0.00017,0.00036,0.00035,0.00012,-0.00022,-0.00018,0.00053,2,21
6772,-0.00027,0.00017,0.00036,0.00035,0.00012,-0.00022,-0.00018,0.00053,2,21
6773,-4e-05,-0.00011,-8e-05,0.00042,-0.00032,0.00018,6e-05,0.0002,2,21
6774,-4e-05,-0.00011,-8e-05,0.00042,-0.00032,0.00018,6e-05,0.0002,2,21
6775,-9e-05,0.0001,0.00011,-0.0009,-4e-05,-0.00014,-9e-05,-2e-05,2,21
6776,-9e-05,0.0001,0.00011,-0.0009,-4e-05,-0.00014,-9e-05,-2e-05,2,21
6777,-9e-05,0.0001,0.00011,-0.0009,-4e-05,-0.00014,-9e-05,-2e-05,2,21
6778,-9e-05,0.0001,0.00011,-0.0009,-4e-05,-0.00014,-9e-05,-2e-05,2,21
6779,-9e-05,0.0001,0.00011,-0.0009,-4e-05,-0.00014,-9e-05,-2e-05,2,21
6780,-9e-05,0.0001,0.00011,-0.0009,-4e-05,-0.00014,-9e-05,-2e-05,2,21
6781,-9e-05,0.0001,0.00011,-0.0009,-4e-05,-0.00014,-9e-05,-2e-05,2,21
6782,-9e-05,0.0001,0.00011,-0.0009,-4e-05,-0.00014,-9e-05,-2e-05,2,21
6783,-9e-05,0.0001,0.00011,-0.0009,-4e-05,-0.00014,-9e-05,-2e-05,2,21
6784,-9e-05,0.0001,0.00011,-0.0009,-4e-05,-0.00014,-9e-05,-2e-05,2,21
6785,-9e-05,0.0001,0.00011,-0.0009,-4e-05,-0.00014,-9e-05,-2e-05,2,21
6787,-9e-05,0.0001,0.00011,-0.0009,-4e-05,-0.00014,-9e-05,-2e-05,2,21
6789,-9e-05,0.0001,0.00011,-0.0009,-4e-05,-0.00014,-9e-05,-2e-05,2,21
6790,-9e-05,0.0001,0.00011,-0.0009,-4e-05,-0.00014,-9e-05,-2e-05,2,21
6791,-9e-05,0.0001,0.00011,-0.0009,-4e-05,-0.00014,-9e-05,-2e-05,2,21
6792,-9e-05,0.0001,0.00011,-0.0009,-4e-05,-0.00014,-9e-05,-2e-05,2,21
6793,-9e-05,0.0001,0.00011,-0.0009,-4e-05,-0.00014,-9e-05,-2e-05,2,21
6794,-9e-05,0.0001,0.00011,-0.0009,-4e-05,-0.00014,-9e-05,-2e-05,2,21
6795,0.00036,4e-05,-8e-05,-0.00025,-4e-05,-0.00021,-0.00022,0.00034,2,21
6796,0.00036,4e-05,-8e-05,-0.00025,-4e-05,-0.00021,-0.00022,0.00034,2,21
6797,7e-05,3e-05,9e-05,0.00011,0.00027,-0.0005,-0.00043,0.00024,2,21
6798,7e-05,3e-05,9e-05,0.00011,0.00027,-0.0005,-0.00043,0.00024,2,21
6799,7e-05,3e-05,9e-05,0.00011,0.00027,-0.0005,-0.00043,0.00024,2,21
6800,7e-05,3e-05,9e-05,0.00011,0.00027,-0.0005,-0.00043,0.00024,2,21
6801,7e-05,3e-05,9e-05,0.00011,0.00027,-0.0005,-0.00043,0.00024,2,21
6802,7e-05,3e-05,9e-05,0.00011,0.00027,-0.0005,-0.00043,0.00024,2,21
6803,7e-05,3e-05,9e-05,0.00011,0.00027,-0.0005,-0.00043,0.00024,2,21
6804,7e-05,3e-05,9e-05,0.00011,0.00027,-0.0005,-0.00043,0.00024,2,21
6805,7e-05,3e-05,9e-05,0.00011,0.00027,-0.0005,-0.00043,0.00024,2,21
6806,7e-05,3e-05,9e-05,0.00011,0.00027,-0.0005,-0.00043,0.00024,2,21
6807,7e-05,3e-05,9e-05,0.00011,0.00027,-0.0005,-0.00043,0.00024,2,21
6808,7e-05,3e-05,9e-05,0.00011,0.00027,-0.0005,-0.00043,0.00024,2,21
6809,-0.00016,6e-05,0.00026,0.00062,0.00044,0.0005,0.00017,-6e-05,2,21
6810,7e-05,7e-05,0.0004,0.00065,0.00048,0.00015,-3e-05,9e-05,2,21
6811,7e-05,7e-05,0.0004,0.00065,0.00048,0.00015,-3e-05,9e-05,2,21
6812,7e-05,7e-05,0.0004,0.00065,0.00048,0.00015,-3e-05,9e-05,2,21
6813,7e-05,7e-05,0.0004,0.00065,0.00048,0.00015,-3e-05,9e-05,2,21
6814,7e-05,7e-05,0.0004,0.00065,0.00048,0.00015,-3e-05,9e-05,2,21
6815,7e-05,7e-05,0.0004,0.00065,0.00048,0.00015,-3e-05,9e-05,2,21
6816,2e-05,2e-05,0.00024,0.0005,-0.00025,0.00017,0.00091,-0.00032,2,21
6817,2e-05,2e-05,0.00024,0.0005,-0.00025,0.00017,0.00091,-0.00032,2,21
6818,2e-05,2e-05,0.00024,0.0005,-0.00025,0.00017,0.00091,-0.00032,2,21
6819,2e-05,2e-05,0.00024,0.0005,-0.00025,0.00017,0.00091,-0.00032,2,21
6820,2e-05,2e-05,0.00024,0.0005,-0.00025,0.00017,0.00091,-0.00032,2,21
6821,2e-05,2e-05,0.00024,0.0005,-0.00025,0.00017,0.00091,-0.00032,2,21
6822,2e-05,2e-05,0.00024,0.0005,-0.00025,0.00017,0.00091,-0.00032,2,21
6823,2e-05,2e-05,0.00024,0.0005,-0.00025,0.00017,0.00091,-0.00032,2,21
6824,2e-05,2e-05,0.00024,0.0005,-0.00025,0.00017,0.00091,-0.00032,2,21
6825,2e-05,2e-05,0.00024,0.0005,-0.00025,0.00017,0.00091,-0.00032,2,21
6826,2e-05,2e-05,0.00024,0.0005,-0.00025,0.00017,0.00091,-0.00032,2,21
6827,2e-05,2e-05,0.00024,0.0005,-0.00025,0.00017,0.00091,-0.00032,2,21
6828,2e-05,2e-05,0.00024,0.0005,-0.00025,0.00017,0.00091,-0.00032,2,21
6829,2e-05,2e-05,0.00024,0.0005,-0.00025,0.00017,0.00091,-0.00032,2,21
6830,2e-05,2e-05,0.00024,0.0005,-0.00025,0.00017,0.00091,-0.00032,2,21
6831,2e-05,2e-05,0.00024,0.0005,-0.00025,0.00017,0.00091,-0.00032,2,21
6832,2e-05,2e-05,0.00024,0.0005,-0.00025,0.00017,0.00091,-0.00032,2,21
6833,-0.0007,-8e-05,0.00012,0.00043,-0.00026,-0.00035,-0.00016,-0.00048,2,21
6834,5e-05,-4e-05,0.00014,0.00034,-0.00012,5e-05,-0.00022,0.00013,2,21
6835,5e-05,-4e-05,0.00014,0.00034,-0.00012,5e-05,-0.00022,0.00013,2,21
6837,5e-05,-4e-05,0.00014,0.00034,-0.00012,5e-05,-0.00022,0.00013,2,21
6839,5e-05,-4e-05,0.00014,0.00034,-0.00012,5e-05,-0.00022,0.00013,2,21
6840,5e-05,-4e-05,0.00014,0.00034,-0.00012,5e-05,-0.00022,0.00013,2,21
6841,5e-05,-4e-05,0.00014,0.00034,-0.00012,5e-05,-0.00022,0.00013,2,21
6842,5e-05,-4e-05,0.00014,0.00034,-0.00012,5e-05,-0.00022,0.00013,2,21
6843,5e-05,-4e-05,0.00014,0.00034,-0.00012,5e-05,-0.00022,0.00013,2,21
6844,5e-05,-4e-05,0.00014,0.00034,-0.00012,5e-05,-0.00022,0.00013,2,21
6845,5e-05,-4e-05,0.00014,0.00034,-0.00012,5e-05,-0.00022,0.00013,2,21
6846,5e-05,-4e-05,0.00014,0.00034,-0.00012,5e-05,-0.00022,0.00013,2,21
6847,5e-05,-4e-05,0.00014,0.00034,-0.00012,5e-05,-0.00022,0.00013,2,21
6848,5e-05,-4e-05,0.00014,0.00034,-0.00012,5e-05,-0.00022,0.00013,2,21
6849,5e-05,-4e-05,0.00014,0.00034,-0.00012,5e-05,-0.00022,0.00013,2,21
6850,5e-05,-4e-05,0.00014,0.00034,-0.00012,5e-05,-0.00022,0.00013,2,21
6851,5e-05,-4e-05,0.00014,0.00034,-0.00012,5e-05,-0.00022,0.00013,2,21
6852,5e-05,-4e-05,0.00014,0.00034,-0.00012,5e-05,-0.00022,0.00013,2,21
6853,5e-05,-4e-05,0.00014,0.00034,-0.00012,5e-05,-0.00022,0.00013,2,21
6854,5e-05,-4e-05,0.00014,0.00034,-0.00012,5e-05,-0.00022,0.00013,2,21
6855,0.00064,-6e-05,-0.00013,2e-05,0.0001,-0.00019,-0.00014,0.00023,2,21
6856,-8e-05,9e-05,7e-05,0.00046,0.00059,0.00077,0.00053,-0.00031,2,21
6857,0,-4e-05,-3e-05,-0.00065,-0.00037,-0.00055,-0.00048,6e-05,2,21
6858,0,-4e-05,-3e-05,-0.00065,-0.00037,-0.00055,-0.00048,6e-05,2,21
6859,0,-4e-05,-3e-05,-0.00065,-0.00037,-0.00055,-0.00048,6e-05,2,21
6860,0,-4e-05,-3e-05,-0.00065,-0.00037,-0.00055,-0.00048,6e-05,2,21
6861,0,-4e-05,-3e-05,-0.00065,-0.00037,-0.00055,-0.00048,6e-05,2,21
6862,0,-4e-05,-3e-05,-0.00065,-0.00037,-0.00055,-0.00048,6e-05,2,21
6863,0,-4e-05,-3e-05,-0.00065,-0.00037,-0.00055,-0.00048,6e-05,2,21
6864,0,-4e-05,-3e-05,-0.00065,-0.00037,-0.00055,-0.00048,6e-05,2,21
6865,0,-4e-05,-3e-05,-0.00065,-0.00037,-0.00055,-0.00048,6e-05,2,21
6866,0,-4e-05,-3e-05,-0.00065,-0.00037,-0.00055,-0.00048,6e-05,2,21
6867,0,-4e-05,-3e-05,-0.00065,-0.00037,-0.00055,-0.00048,6e-05,2,21
6868,0,-4e-05,-3e-05,-0.00065,-0.00037,-0.00055,-0.00048,6e-05,2,21
6869,8e-05,9e-05,0.00036,0.00071,0.00046,-1e-05,0.00027,-0.00052,2,21
6870,2e-05,-0.0001,-0.00021,-0.00086,-0.00033,-0.00037,-0.00065,0.00053,2,21
6871,2e-05,-0.0001,-0.00021,-0.00086,-0.00033,-0.00037,-0.00065,0.00053,2,21
6872,2e-05,-0.0001,-0.00021,-0.00086,-0.00033,-0.00037,-0.00065,0.00053,2,21
6873,2e-05,-0.0001,-0.00021,-0.00086,-0.00033,-0.00037,-0.00065,0.00053,2,21
6874,2e-05,-0.0001,-0.00021,-0.00086,-0.00033,-0.00037,-0.00065,0.00053,2,21
6875,2e-05,-0.0001,-0.00021,-0.00086,-0.00033,-0.00037,-0.00065,0.00053,2,21
6876,0.00127,0.0001,0.00021,0.00035,0.00039,0.0008,0.00053,-0.00036,2,21
6877,0.00127,0.0001,0.00021,0.00035,0.00039,0.0008,0.00053,-0.00036,2,21
6878,0.00127,0.0001,0.00021,0.00035,0.00039,0.0008,0.00053,-0.00036,2,21
6879,0.00127,0.0001,0.00021,0.00035,0.00039,0.0008,0.00053,-0.00036,2,21
6880,0.00127,0.0001,0.00021,0.00035,0.00039,0.0008,0.00053,-0.00036,2,21
6881,0.00127,0.0001,0.00021,0.00035,0.00039,0.0008,0.00053,-0.00036,2,21
6882,0.00127,0.0001,0.00021,0.00035,0.00039,0.0008,0.00053,-0.00036,2,21
6883,0.00127,0.0001,0.00021,0.00035,0.00039,0.0008,0.00053,-0.00036,2,21
6884,0.00127,0.0001,0.00021,0.00035,0.00039,0.0008,0.00053,-0.00036,2,21
6885,0.00127,0.0001,0.00021,0.00035,0.00039,0.0008,0.00053,-0.00036,2,21
6887,0.00127,0.0001,0.00021,0.00035,0.00039,0.0008,0.00053,-0.00036,2,21
6889,0.00127,0.0001,0.00021,0.00035,0.00039,0.0008,0.00053,-0.00036,2,21
6890,0.00127,0.0001,0.00021,0.00035,0.00039,0.0008,0.00053,-0.00036,2,21
6891,0.00127,0.0001,0.00021,0.00035,0.00039,0.0008,0.00053,-0.00036,2,21
6892,0.00127,0.0001,0.00021,0.00035,0.00039,0.0008,0.00053,-0.00036,2,21
6893,-0.00011,4e-05,0.00014,0.00014,-0.00029,-0.00035,-0.0001,0.00028,2,21
6894,-0.00059,4e-05,0.00042,0.00039,-4e-05,0.00043,7e-05,0.00088,2,21
6896,-0.00059,4e-05,0.00042,0.00039,-4e-05,0.00043,7e-05,0.00088,2,21
6897,-0.00059,4e-05,0.00042,0.00039,-4e-05,0.00043,7e-05,0.00088,2,21
6898,-0.00059,4e-05,0.00042,0.00039,-4e-05,0.00043,7e-05,0.00088,2,21
6899,-0.00059,4e-05,0.00042,0.00039,-4e-05,0.00043,7e-05,0.00088,2,21
6900,-0.00059,4e-05,0.00042,0.00039,-4e-05,0.00043,7e-05,0.00088,2,21
6901,-0.00059,4e-05,0.00042,0.00039,-4e-05,0.00043,7e-05,0.00088,2,21
6902,-0.00059,4e-05,0.00042,0.00039,-4e-05,0.00043,7e-05,0.00088,2,21
6903,-0.00059,4e-05,0.00042,0.00039,-4e-05,0.00043,7e-05,0.00088,2,21
6904,-0.00059,4e-05,0.00042,0.00039,-4e-05,0.00043,7e-05,0.00088,2,21
6905,-0.00059,4e-05,0.00042,0.00039,-4e-05,0.00043,7e-05,0.00088,2,21
6906,-0.00059,4e-05,0.00042,0.00039,-4e-05,0.00043,7e-05,0.00088,2,21
6907,-0.00059,4e-05,0.00042,0.00039,-4e-05,0.00043,7e-05,0.00088,2,21
6908,-0.00059,4e-05,0.00042,0.00039,-4e-05,0.00043,7e-05,0.00088,2,21
6909,-0.00059,4e-05,0.00042,0.00039,-4e-05,0.00043,7e-05,0.00088,2,21
6910,-0.00059,4e-05,0.00042,0.00039,-4e-05,0.00043,7e-05,0.00088,2,21
6911,-0.00059,4e-05,0.00042,0.00039,-4e-05,0.00043,7e-05,0.00088,2,21
6912,-0.00059,4e-05,0.00042,0.00039,-4e-05,0.00043,7e-05,0.00088,2,21
6913,-0.00059,4e-05,0.00042,0.00039,-4e-05,0.00043,7e-05,0.00088,2,21
6914,-0.00059,4e-05,0.00042,0.00039,-4e-05,0.00043,7e-05,0.00088,2,21
6915,-2e-05,-0.00019,-0.00044,-0.00024,-0.00035,5e-05,0.001,-0.00042,2,21
6916,-0.00016,0.00017,0.00032,0.00048,0.00046,0.00018,-1e-05,0.00048,2,21
6917,-0.0008,-6e-05,-3e-05,5e-05,-0.00031,-0.00027,3e-05,-0.00023,2,21
6918,-0.0008,-6e-05,-3e-05,5e-05,-0.00031,-0.00027,3e-05,-0.00023,2,21
6919,-0.0008,-6e-05,-3e-05,5e-05,-0.00031,-0.00027,3e-05,-0.00023,2,21
6920,-0.0008,-6e-05,-3e-05,5e-05,-0.00031,-0.00027,3e-05,-0.00023,2,21
6921,-0.0008,-6e-05,-3e-05,5e-05,-0.00031,-0.00027,3e-05,-0.00023,2,21
6922,-0.0008,-6e-05,-3e-05,5e-05,-0.00031,-0.00027,3e-05,-0.00023,2,21
6923,-0.0008,-6e-05,-3e-05,5e-05,-0.00031,-0.00027,3e-05,-0.00023,2,21
6924,-0.0008,-6e-05,-3e-05,5e-05,-0.00031,-0.00027,3e-05,-0.00023,2,21
6925,-0.0008,-6e-05,-3e-05,5e-05,-0.00031,-0.00027,3e-05,-0.00023,2,21
6926,-0.0008,-6e-05,-3e-05,5e-05,-0.00031,-0.00027,3e-05,-0.00023,2,21
6927,-0.0008,-6e-05,-3e-05,5e-05,-0.00031,-0.00027,3e-05,-0.00023,2,21
6928,-0.0008,-6e-05,-3e-05,5e-05,-0.00031,-0.00027,3e-05,-0.00023,2,21
6929,-3e-05,6e-05,0.00033,0.00065,0.00085,0.00059,0.00042,0.00023,2,21
6930,-3e-05,6e-05,0.00033,0.00065,0.00085,0.00059,0.00042,0.00023,2,21
6931,-3e-05,6e-05,0.00033,0.00065,0.00085,0.00059,0.00042,0.00023,2,21
6932,-3e-05,6e-05,0.00033,0.00065,0.00085,0.00059,0.00042,0.00023,2,21
6933,-3e-05,6e-05,0.00033,0.00065,0.00085,0.00059,0.00042,0.00023,2,21
6934,-3e-05,6e-05,0.00033,0.00065,0.00085,0.00059,0.00042,0.00023,2,21
6935,-3e-05,6e-05,0.00033,0.00065,0.00085,0.00059,0.00042,0.00023,2,21
6937,-3e-05,6e-05,0.00033,0.00065,0.00085,0.00059,0.00042,0.00023,2,21
6939,-4e-05,5e-05,3e-05,0.00029,1e-05,-0.00025,-0.0001,0.00013,2,21
6940,-4e-05,5e-05,3e-05,0.00029,1e-05,-0.00025,-0.0001,0.00013,2,21
6941,-4e-05,5e-05,3e-05,0.00029,1e-05,-0.00025,-0.0001,0.00013,2,21
6942,-4e-05,5e-05,3e-05,0.00029,1e-05,-0.00025,-0.0001,0.00013,2,21
6943,-4e-05,5e-05,3e-05,0.00029,1e-05,-0.00025,-0.0001,0.00013,2,21
6944,-4e-05,5e-05,3e-05,0.00029,1e-05,-0.00025,-0.0001,0.00013,2,21
6945,-4e-05,5e-05,3e-05,0.00029,1e-05,-0.00025,-0.0001,0.00013,2,21
6946,-4e-05,5e-05,3e-05,0.00029,1e-05,-0.00025,-0.0001,0.00013,2,21
6947,-4e-05,5e-05,3e-05,0.00029,1e-05,-0.00025,-0.0001,0.00013,2,21
6948,-4e-05,5e-05,3e-05,0.00029,1e-05,-0.00025,-0.0001,0.00013,2,21
6949,-4e-05,5e-05,3e-05,0.00029,1e-05,-0.00025,-0.0001,0.00013,2,21
6950,-4e-05,5e-05,3e-05,0.00029,1e-05,-0.00025,-0.0001,0.00013,2,21
6951,-4e-05,5e-05,3e-05,0.00029,1e-05,-0.00025,-0.0001,0.00013,2,21
6952,-0.00022,1e-05,0,0.00032,-0.0008,-0.00031,-0.00042,0.00032,2,21
6953,7e-05,-8e-05,-0.00016,-0.0003,-0.00055,-0.00014,-0.00051,0.00032,2,21
6954,-0.00084,-0.00016,-7e-05,0.0001,0.00015,0.00063,0.00059,0.00024,2,21
6955,-0.00084,-0.00016,-7e-05,0.0001,0.00015,0.00063,0.00059,0.00024,2,21
6956,-0.00084,-0.00016,-7e-05,0.0001,0.00015,0.00063,0.00059,0.00024,2,21
