6392,0.00028,0.0001,0.00016,0.00035,1e-05,1e-05,-5e-05,-9e-05,2,22
6393,0.00028,0.0001,0.00016,0.00035,1e-05,1e-05,-5e-05,-9e-05,2,22
6394,0.00028,0.0001,0.00016,0.00035,1e-05,1e-05,-5e-05,-9e-05,2,22
6395,0.00028,0.0001,0.00016,0.00035,1e-05,1e-05,-5e-05,-9e-05,2,22
6396,0.00028,0.0001,0.00016,0.00035,1e-05,1e-05,-5e-05,-9e-05,2,22
6397,0.00028,0.0001,0.00016,0.00035,1e-05,1e-05,-5e-05,-9e-05,2,22
6398,0.00028,0.0001,0.00016,0.00035,1e-05,1e-05,-5e-05,-9e-05,2,22
6399,0.00028,0.0001,0.00016,0.00035,1e-05,1e-05,-5e-05,-9e-05,2,22
6400,0.00028,0.0001,0.00016,0.00035,1e-05,1e-05,-5e-05,-9e-05,2,22
6401,0.00028,0.0001,0.00016,0.00035,1e-05,1e-05,-5e-05,-9e-05,2,22
6402,0.00028,0.0001,0.00016,0.00035,1e-05,1e-05,-5e-05,-9e-05,2,22
6403,0.00028,0.0001,0.00016,0.00035,1e-05,1e-05,-5e-05,-9e-05,2,22
6404,0.00028,0.0001,0.00016,0.00035,1e-05,1e-05,-5e-05,-9e-05,2,22
6405,4e-05,0.0001,3e-05,-0.00045,0.00023,0.00013,9e-05,7e-05,2,22
6406,0.00041,0.0002,6e-05,0.00051,0.00015,5e-05,3e-05,7e-05,2,22
6407,0.00041,0.0002,6e-05,0.00051,0.00015,5e-05,3e-05,7e-05,2,22
6408,0.00041,0.0002,6e-05,0.00051,0.00015,5e-05,3e-05,7e-05,2,22
6409,0.00041,0.0002,6e-05,0.00051,0.00015,5e-05,3e-05,7e-05,2,22
6410,0.00041,0.0002,6e-05,0.00051,0.00015,5e-05,3e-05,7e-05,2,22
6411,0.00041,0.0002,6e-05,0.00051,0.00015,5e-05,3e-05,7e-05,2,22
6412,0.00041,0.0002,6e-05,0.00051,0.00015,5e-05,3e-05,7e-05,2,22
6413,0.00041,0.0002,6e-05,0.00051,0.00015,5e-05,3e-05,7e-05,2,22
6414,0.00041,0.0002,6e-05,0.00051,0.00015,5e-05,3e-05,7e-05,2,22
6415,0.00041,0.0002,6e-05,0.00051,0.00015,5e-05,3e-05,7e-05,2,22
6416,0.00041,0.0002,6e-05,0.00051,0.00015,5e-05,3e-05,7e-05,2,22
6417,0.00041,0.0002,6e-05,0.00051,0.00015,5e-05,3e-05,7e-05,2,22
6418,0.00041,0.0002,6e-05,0.00051,0.00015,5e-05,3e-05,7e-05,2,22
6419,0.00041,0.0002,6e-05,0.00051,0.00015,5e-05,3e-05,7e-05,2,22
6420,0.00041,0.0002,6e-05,0.00051,0.00015,5e-05,3e-05,7e-05,2,22
6421,0.00041,0.0002,6e-05,0.00051,0.00015,5e-05,3e-05,7e-05,2,22
6422,0.00041,0.0002,6e-05,0.00051,0.00015,5e-05,3e-05,7e-05,2,22
6423,0.00041,0.0002,6e-05,0.00051,0.00015,5e-05,3e-05,7e-05,2,22
6424,0.00041,0.0002,6e-05,0.00051,0.00015,5e-05,3e-05,7e-05,2,22
6425,0.00041,0.0002,6e-05,0.00051,0.00015,5e-05,3e-05,7e-05,2,22
6426,0.00041,0.0002,6e-05,0.00051,0.00015,5e-05,3e-05,7e-05,2,22
6427,-0.00025,-0.00015,0,7e-05,2e-05,-1e-05,1e-05,-5e-05,2,22
6428,-0.00025,-0.00015,0,7e-05,2e-05,-1e-05,1e-05,-5e-05,2,22
6429,-0.00021,-9e-05,-0.0001,-0.00013,-5e-05,8e-05,5e-05,1e-05,2,22
6430,-0.00021,-9e-05,-0.0001,-0.00013,-5e-05,8e-05,5e-05,1e-05,2,22
6431,-0.00021,-9e-05,-0.0001,-0.00013,-5e-05,8e-05,5e-05,1e-05,2,22
6432,-0.00021,-9e-05,-0.0001,-0.00013,-5e-05,8e-05,5e-05,1e-05,2,22
6433,-0.00021,-9e-05,-0.0001,-0.00013,-5e-05,8e-05,5e-05,1e-05,2,22
6434,-0.00021,-9e-05,-0.0001,-0.00013,-5e-05,8e-05,5e-05,1e-05,2,22
6435,-0.00021,-9e-05,-0.0001,-0.00013,-5e-05,8e-05,5e-05,1e-05,2,22
6436,-0.00021,-9e-05,-0.0001,-0.00013,-5e-05,8e-05,5e-05,1e-05,2,22
6438,-0.00021,-9e-05,-0.0001,-0.00013,-5e-05,8e-05,5e-05,1e-05,2,22
6439,-0.00021,-9e-05,-0.0001,-0.00013,-5e-05,8e-05,5e-05,1e-05,2,22
6440,-0.00021,-9e-05,-0.0001,-0.00013,-5e-05,8e-05,5e-05,1e-05,2,22
6441,-0.00021,-9e-05,-0.0001,-0.00013,-5e-05,8e-05,5e-05,1e-05,2,22
6442,0.00039,-0.00014,-0.0002,-3e-05,1e-05,0,-2e-05,-1e-05,2,22
6443,0.00039,-0.00014,-0.0002,-3e-05,1e-05,0,-2e-05,-1e-05,2,22
6444,0.00039,-0.00014,-0.0002,-3e-05,1e-05,0,-2e-05,-1e-05,2,22
6445,0.00039,-0.00014,-0.0002,-3e-05,1e-05,0,-2e-05,-1e-05,2,22
6446,0.00039,-0.00014,-0.0002,-3e-05,1e-05,0,-2e-05,-1e-05,2,22
6447,0.00039,-0.00014,-0.0002,-3e-05,1e-05,0,-2e-05,-1e-05,2,22
6448,-7e-05,0.00014,6e-05,-0.00018,-1e-05,-4e-05,-1e-05,-1e-05,2,22
6449,-7e-05,0.00014,6e-05,-0.00018,-1e-05,-4e-05,-1e-05,-1e-05,2,22
6450,-7e-05,0.00014,6e-05,-0.00018,-1e-05,-4e-05,-1e-05,-1e-05,2,22
6451,-7e-05,0.00014,6e-05,-0.00018,-1e-05,-4e-05,-1e-05,-1e-05,2,22
6452,-7e-05,0.00014,6e-05,-0.00018,-1e-05,-4e-05,-1e-05,-1e-05,2,22
6453,-7e-05,0.00014,6e-05,-0.00018,-1e-05,-4e-05,-1e-05,-1e-05,2,22
6454,-7e-05,0.00014,6e-05,-0.00018,-1e-05,-4e-05,-1e-05,-1e-05,2,22
6455,-7e-05,0.00014,6e-05,-0.00018,-1e-05,-4e-05,-1e-05,-1e-05,2,22
6456,-7e-05,0.00014,6e-05,-0.00018,-1e-05,-4e-05,-1e-05,-1e-05,2,22
6457,-7e-05,0.00014,6e-05,-0.00018,-1e-05,-4e-05,-1e-05,-1e-05,2,22
6458,-7e-05,0.00014,6e-05,-0.00018,-1e-05,-4e-05,-1e-05,-1e-05,2,22
6459,-7e-05,0.00014,6e-05,-0.00018,-1e-05,-4e-05,-1e-05,-1e-05,2,22
6460,-7e-05,0.00014,6e-05,-0.00018,-1e-05,-4e-05,-1e-05,-1e-05,2,22
6461,-7e-05,0.00014,6e-05,-0.00018,-1e-05,-4e-05,-1e-05,-1e-05,2,22
6462,-7e-05,0.00014,6e-05,-0.00018,-1e-05,-4e-05,-1e-05,-1e-05,2,22
6463,-7e-05,0.00014,6e-05,-0.00018,-1e-05,-4e-05,-1e-05,-1e-05,2,22
6464,-7e-05,0.00014,6e-05,-0.00018,-1e-05,-4e-05,-1e-05,-1e-05,2,22
6465,-4e-05,1e-05,-4e-05,-0.00011,0,0,2e-05,2e-05,2,22
6466,-0.00033,0.0002,2e-05,-5e-05,7e-05,4e-05,-5e-05,-0.00015,2,22
6467,-0.00033,0.0002,2e-05,-5e-05,7e-05,4e-05,-5e-05,-0.00015,2,22
6468,-0.00033,0.0002,2e-05,-5e-05,7e-05,4e-05,-5e-05,-0.00015,2,22
6469,-0.00033,0.0002,2e-05,-5e-05,7e-05,4e-05,-5e-05,-0.00015,2,22
6470,-0.00033,0.0002,2e-05,-5e-05,7e-05,4e-05,-5e-05,-0.00015,2,22
6471,-0.00033,0.0002,2e-05,-5e-05,7e-05,4e-05,-5e-05,-0.00015,2,22
6472,-0.00033,0.0002,2e-05,-5e-05,7e-05,4e-05,-5e-05,-0.00015,2,22
6473,-0.00033,0.0002,2e-05,-5e-05,7e-05,4e-05,-5e-05,-0.00015,2,22
6474,-0.00033,0.0002,2e-05,-5e-05,7e-05,4e-05,-5e-05,-0.00015,2,22
6475,-0.00033,0.0002,2e-05,-5e-05,7e-05,4e-05,-5e-05,-0.00015,2,22
6476,-0.00033,0.0002,2e-05,-5e-05,7e-05,4e-05,-5e-05,-0.00015,2,22
6477,-0.00033,0.0002,2e-05,-5e-05,7e-05,4e-05,-5e-05,-0.00015,2,22
6478,-0.00033,0.0002,2e-05,-5e-05,7e-05,4e-05,-5e-05,-0.00015,2,22
6479,-0.00033,0.0002,2e-05,-5e-05,7e-05,4e-05,-5e-05,-0.00015,2,22
6480,-0.00033,0.0002,2e-05,-5e-05,7e-05,4e-05,-5e-05,-0.00015,2,22
6481,-0.00033,0.0002,2e-05,-5e-05,7e-05,4e-05,-5e-05,-0.00015,2,22
6482,-0.00033,0.0002,2e-05,-5e-05,7e-05,4e-05,-5e-05,-0.00015,2,22
6483,-0.00033,0.0002,2e-05,-5e-05,7e-05,4e-05,-5e-05,-0.00015,2,22
6484,-0.00033,0.0002,2e-05,-5e-05,7e-05,4e-05,-5e-05,-0.00015,2,22
6485,-0.00033,0.0002,2e-05,-5e-05,7e-05,4e-05,-5e-05,-0.00015,2,22
6486,-0.00033,0.0002,2e-05,-5e-05,7e-05,4e-05,-5e-05,-0.00015,2,22
6489,7e-05,-0.00044,1e-05,0.00017,6e-05,-3e-05,-6e-05,-5e-05,2,22
6490,7e-05,-0.00044,1e-05,0.00017,6e-05,-3e-05,-6e-05,-5e-05,2,22
6491,7e-05,-0.00044,1e-05,0.00017,6e-05,-3e-05,-6e-05,-5e-05,2,22
6492,7e-05,-0.00044,1e-05,0.00017,6e-05,-3e-05,-6e-05,-5e-05,2,22
6493,-0.00014,-0.00013,8e-05,7e-05,4e-05,-1e-05,-2e-05,-4e-05,2,22
6494,0.00016,-9e-05,4e-05,-0.00013,5e-05,5e-05,0.0001,0.00012,2,22
6495,0.00016,-9e-05,4e-05,-0.00013,5e-05,5e-05,0.0001,0.00012,2,22
6496,0.00016,-9e-05,4e-05,-0.00013,5e-05,5e-05,0.0001,0.00012,2,22
6497,0.00016,-9e-05,4e-05,-0.00013,5e-05,5e-05,0.0001,0.00012,2,22
6498,0.00016,-9e-05,4e-05,-0.00013,5e-05,5e-05,0.0001,0.00012,2,22
6499,0.00016,-9e-05,4e-05,-0.00013,5e-05,5e-05,0.0001,0.00012,2,22
6500,0.00016,-9e-05,4e-05,-0.00013,5e-05,5e-05,0.0001,0.00012,2,22
6501,0.00016,-9e-05,4e-05,-0.00013,5e-05,5e-05,0.0001,0.00012,2,22
6502,-0.00021,0.00024,0,-0.00025,0.00011,6e-05,-1e-05,-3e-05,2,22
6504,-0.00021,0.00024,0,-0.00025,0.00011,6e-05,-1e-05,-3e-05,2,22
6505,-0.00021,0.00024,0,-0.00025,0.00011,6e-05,-1e-05,-3e-05,2,22
6506,-0.00021,0.00024,0,-0.00025,0.00011,6e-05,-1e-05,-3e-05,2,22
6507,-0.00021,0.00024,0,-0.00025,0.00011,6e-05,-1e-05,-3e-05,2,22
6508,-0.00021,0.00024,0,-0.00025,0.00011,6e-05,-1e-05,-3e-05,2,22
6509,-0.00021,0.00024,0,-0.00025,0.00011,6e-05,-1e-05,-3e-05,2,22
6510,-0.00021,0.00024,0,-0.00025,0.00011,6e-05,-1e-05,-3e-05,2,22
6511,-0.00021,0.00024,0,-0.00025,0.00011,6e-05,-1e-05,-3e-05,2,22
6512,-0.00021,0.00024,0,-0.00025,0.00011,6e-05,-1e-05,-3e-05,2,22
6513,-0.00021,0.00024,0,-0.00025,0.00011,6e-05,-1e-05,-3e-05,2,22
6514,-0.00021,0.00024,0,-0.00025,0.00011,6e-05,-1e-05,-3e-05,2,22
6515,-0.00021,0.00024,0,-0.00025,0.00011,6e-05,-1e-05,-3e-05,2,22
6516,-0.00033,-0.00038,-0.00033,-1e-05,-0.0001,-2e-05,0,3e-05,2,22
6517,-0.00033,-0.00038,-0.00033,-1e-05,-0.0001,-2e-05,0,3e-05,2,22
6518,-0.00033,-0.00038,-0.00033,-1e-05,-0.0001,-2e-05,0,3e-05,2,22
6519,-0.00033,-0.00038,-0.00033,-1e-05,-0.0001,-2e-05,0,3e-05,2,22
6520,-0.00033,-0.00038,-0.00033,-1e-05,-0.0001,-2e-05,0,3e-05,2,22
6521,-0.00033,-0.00038,-0.00033,-1e-05,-0.0001,-2e-05,0,3e-05,2,22
6522,-0.00033,-0.00038,-0.00033,-1e-05,-0.0001,-2e-05,0,3e-05,2,22
6523,-0.00033,-0.00038,-0.00033,-1e-05,-0.0001,-2e-05,0,3e-05,2,22
6524,-0.00069,-0.00037,-0.00013,0.00014,-0.00015,-5e-05,-3e-05,-0.00013,2,22
6525,-0.00069,-0.00037,-0.00013,0.00014,-0.00015,-5e-05,-3e-05,-0.00013,2,22
6527,-0.00069,-0.00037,-0.00013,0.00014,-0.00015,-5e-05,-3e-05,-0.00013,2,22
6528,-0.00069,-0.00037,-0.00013,0.00014,-0.00015,-5e-05,-3e-05,-0.00013,2,22
6529,-0.00069,-0.00037,-0.00013,0.00014,-0.00015,-5e-05,-3e-05,-0.00013,2,22
6530,-0.00069,-0.00037,-0.00013,0.00014,-0.00015,-5e-05,-3e-05,-0.00013,2,22
6531,-0.00069,-0.00037,-0.00013,0.00014,-0.00015,-5e-05,-3e-05,-0.00013,2,22
6532,-0.00069,-0.00037,-0.00013,0.00014,-0.00015,-5e-05,-3e-05,-0.00013,2,22
6533,-0.00069,-0.00037,-0.00013,0.00014,-0.00015,-5e-05,-3e-05,-0.00013,2,22
6534,-0.00069,-0.00037,-0.00013,0.00014,-0.00015,-5e-05,-3e-05,-0.00013,2,22
6535,-0.00069,-0.00037,-0.00013,0.00014,-0.00015,-5e-05,-3e-05,-0.00013,2,22
6536,-0.00069,-0.00037,-0.00013,0.00014,-0.00015,-5e-05,-3e-05,-0.00013,2,22
6538,-0.00069,-0.00037,-0.00013,0.00014,-0.00015,-5e-05,-3e-05,-0.00013,2,22
6539,5e-05,-4e-05,-1e-05,-0.00016,2e-05,6e-05,4e-05,5e-05,2,22
6540,5e-05,0.00018,5e-05,0,-1e-05,0,-1e-05,6e-05,2,22
6541,5e-05,0.00018,5e-05,0,-1e-05,0,-1e-05,6e-05,2,22
6542,5e-05,0.00018,5e-05,0,-1e-05,0,-1e-05,6e-05,2,22
6543,5e-05,0.00018,5e-05,0,-1e-05,0,-1e-05,6e-05,2,22
6544,5e-05,0.00018,5e-05,0,-1e-05,0,-1e-05,6e-05,2,22
6545,5e-05,0.00018,5e-05,0,-1e-05,0,-1e-05,6e-05,2,22
6546,5e-05,0.00018,5e-05,0,-1e-05,0,-1e-05,6e-05,2,22
6547,0.00012,0.00028,0,-9e-05,-8e-05,-6e-05,7e-05,0.00014,2,22
6548,0.00012,0.00028,0,-9e-05,-8e-05,-6e-05,7e-05,0.00014,2,22
6549,-0.00076,-0.00065,-2e-05,-0.00012,-0.00011,-0.00012,-0.00013,-0.0003,2,22
6550,-0.00076,-0.00065,-2e-05,-0.00012,-0.00011,-0.00012,-0.00013,-0.0003,2,22
6551,-0.00076,-0.00065,-2e-05,-0.00012,-0.00011,-0.00012,-0.00013,-0.0003,2,22
6552,-0.00076,-0.00065,-2e-05,-0.00012,-0.00011,-0.00012,-0.00013,-0.0003,2,22
6553,-0.00076,-0.00065,-2e-05,-0.00012,-0.00011,-0.00012,-0.00013,-0.0003,2,22
6554,-0.00076,-0.00065,-2e-05,-0.00012,-0.00011,-0.00012,-0.00013,-0.0003,2,22
6555,-0.00076,-0.00065,-2e-05,-0.00012,-0.00011,-0.00012,-0.00013,-0.0003,2,22
6556,-0.00076,-0.00065,-2e-05,-0.00012,-0.00011,-0.00012,-0.00013,-0.0003,2,22
6557,-0.00076,-0.00065,-2e-05,-0.00012,-0.00011,-0.00012,-0.00013,-0.0003,2,22
6558,-0.00076,-0.00065,-2e-05,-0.00012,-0.00011,-0.00012,-0.00013,-0.0003,2,22
6559,-0.00076,-0.00065,-2e-05,-0.00012,-0.00011,-0.00012,-0.00013,-0.0003,2,22
6560,-0.00076,-0.00065,-2e-05,-0.00012,-0.00011,-0.00012,-0.00013,-0.0003,2,22
6561,-0.00076,-0.00065,-2e-05,-0.00012,-0.00011,-0.00012,-0.00013,-0.0003,2,22
6562,-0.00076,-0.00065,-2e-05,-0.00012,-0.00011,-0.00012,-0.00013,-0.0003,2,22
6563,-0.00076,-0.00065,-2e-05,-0.00012,-0.00011,-0.00012,-0.00013,-0.0003,2,22
6564,-0.00076,-0.00065,-2e-05,-0.00012,-0.00011,-0.00012,-0.00013,-0.0003,2,22
6565,-0.00076,-0.00065,-2e-05,-0.00012,-0.00011,-0.00012,-0.00013,-0.0003,2,22
6566,-0.00076,-0.00065,-2e-05,-0.00012,-0.00011,-0.00012,-0.00013,-0.0003,2,22
6567,-0.00076,-0.00065,-2e-05,-0.00012,-0.00011,-0.00012,-0.00013,-0.0003,2,22
6568,-0.00076,-0.00065,-2e-05,-0.00012,-0.00011,-0.00012,-0.00013,-0.0003,2,22
6569,-0.00076,-0.00065,-2e-05,-0.00012,-0.00011,-0.00012,-0.00013,-0.0003,2,22
6570,0.00039,0.00053,0.00018,9e-05,-0.00013,-3e-05,-4e-05,6e-05,2,22
6571,0.00024,-0.00053,-7e-05,-0.00025,-6e-05,-4e-05,2e-05,0.00011,2,22
6573,0.00024,-0.00053,-7e-05,-0.00025,-6e-05,-4e-05,2e-05,0.00011,2,22
6574,0.00024,-0.00053,-7e-05,-0.00025,-6e-05,-4e-05,2e-05,0.00011,2,22
6575,0.00024,-0.00053,-7e-05,-0.00025,-6e-05,-4e-05,2e-05,0.00011,2,22
6576,0.00024,-0.00053,-7e-05,-0.00025,-6e-05,-4e-05,2e-05,0.00011,2,22
6577,0.00024,-0.00053,-7e-05,-0.00025,-6e-05,-4e-05,2e-05,0.00011,2,22
6578,0.00024,-0.00053,-7e-05,-0.00025,-6e-05,-4e-05,2e-05,0.00011,2,22
6579,0.00024,-0.00053,-7e-05,-0.00025,-6e-05,-4e-05,2e-05,0.00011,2,22
6580,0.00024,-0.00053,-7e-05,-0.00025,-6e-05,-4e-05,2e-05,0.00011,2,22
6581,0.00024,-0.00053,-7e-05,-0.00025,-6e-05,-4e-05,2e-05,0.00011,2,22
6582,0.00024,-0.00053,-7e-05,-0.00025,-6e-05,-4e-05,2e-05,0.00011,2,22
6583,0.00024,-0.00053,-7e-05,-0.00025,-6e-05,-4e-05,2e-05,0.00011,2,22
6584,0.00024,-0.00053,-7e-05,-0.00025,-6e-05,-4e-05,2e-05,0.00011,2,22
6585,0.00024,-0.00053,-7e-05,-0.00025,-6e-05,-4e-05,2e-05,0.00011,2,22
6586,0.00024,-0.00053,-7e-05,-0.00025,-6e-05,-4e-05,2e-05,0.00011,2,22
6588,0.00024,-0.00053,-7e-05,-0.00025,-6e-05,-4e-05,2e-05,0.00011,2,22
6589,0.00024,-0.00053,-7e-05,-0.00025,-6e-05,-4e-05,2e-05,0.00011,2,22
6590,0.00024,-0.00053,-7e-05,-0.00025,-6e-05,-4e-05,2e-05,0.00011,2,22
6591,0.00024,-0.00053,-7e-05,-0.00025,-6e-05,-4e-05,2e-05,0.00011,2,22
6592,0,-1e-05,-3e-05,-0.00044,-0.00012,-2e-05,4e-05,6e-05,2,22
6593,0,-1e-05,-3e-05,-0.00044,-0.00012,-2e-05,4e-05,6e-05,2,22
6594,-7e-05,0.00019,0.00012,0.00029,-9e-05,-7e-05,-8e-05,-9e-05,2,22
6595,-7e-05,0.00019,0.00012,0.00029,-9e-05,-7e-05,-8e-05,-9e-05,2,22
6596,-7e-05,0.00019,0.00012,0.00029,-9e-05,-7e-05,-8e-05,-9e-05,2,22
6597,-7e-05,0.00019,0.00012,0.00029,-9e-05,-7e-05,-8e-05,-9e-05,2,22
6598,-7e-05,0.00019,0.00012,0.00029,-9e-05,-7e-05,-8e-05,-9e-05,2,22
6599,-7e-05,0.00019,0.00012,0.00029,-9e-05,-7e-05,-8e-05,-9e-05,2,22
6600,-7e-05,0.00019,0.00012,0.00029,-9e-05,-7e-05,-8e-05,-9e-05,2,22
6601,-7e-05,0.00019,0.00012,0.00029,-9e-05,-7e-05,-8e-05,-9e-05,2,22
6602,-7e-05,0.00019,0.00012,0.00029,-9e-05,-7e-05,-8e-05,-9e-05,2,22
6603,-7e-05,0.00019,0.00012,0.00029,-9e-05,-7e-05,-8e-05,-9e-05,2,22
6604,-7e-05,0.00019,0.00012,0.00029,-9e-05,-7e-05,-8e-05,-9e-05,2,22
6605,-7e-05,0.00019,0.00012,0.00029,-9e-05,-7e-05,-8e-05,-9e-05,2,22
6606,-7e-05,0.00019,0.00012,0.00029,-9e-05,-7e-05,-8e-05,-9e-05,2,22
6607,-2e-05,0,3e-05,0.00018,-3e-05,3e-05,2e-05,4e-05,2,22
6608,-2e-05,0,3e-05,0.00018,-3e-05,3e-05,2e-05,4e-05,2,22
6609,-2e-05,0,3e-05,0.00018,-3e-05,3e-05,2e-05,4e-05,2,22
6610,-2e-05,0,3e-05,0.00018,-3e-05,3e-05,2e-05,4e-05,2,22
6611,-2e-05,0,3e-05,0.00018,-3e-05,3e-05,2e-05,4e-05,2,22
6612,-2e-05,0,3e-05,0.00018,-3e-05,3e-05,2e-05,4e-05,2,22
6613,-2e-05,0,3e-05,0.00018,-3e-05,3e-05,2e-05,4e-05,2,22
6614,-2e-05,0,3e-05,0.00018,-3e-05,3e-05,2e-05,4e-05,2,22
6615,0.00017,6e-05,-9e-05,0.00011,-2e-05,4e-05,8e-05,7e-05,2,22
6616,0.00017,6e-05,-9e-05,0.00011,-2e-05,4e-05,8e-05,7e-05,2,22
6617,0.00017,6e-05,-9e-05,0.00011,-2e-05,4e-05,8e-05,7e-05,2,22
6618,0.00017,6e-05,-9e-05,0.00011,-2e-05,4e-05,8e-05,7e-05,2,22
6619,0.00017,6e-05,-9e-05,0.00011,-2e-05,4e-05,8e-05,7e-05,2,22
6620,0.00017,6e-05,-9e-05,0.00011,-2e-05,4e-05,8e-05,7e-05,2,22
6621,2e-05,0.00018,4e-05,2e-05,1e-05,-1e-05,1e-05,3e-05,2,22
6622,2e-05,0.00018,4e-05,2e-05,1e-05,-1e-05,1e-05,3e-05,2,22
6623,2e-05,0.00018,4e-05,2e-05,1e-05,-1e-05,1e-05,3e-05,2,22
6624,2e-05,0.00018,4e-05,2e-05,1e-05,-1e-05,1e-05,3e-05,2,22
6625,2e-05,0.00018,4e-05,2e-05,1e-05,-1e-05,1e-05,3e-05,2,22
6626,2e-05,0.00018,4e-05,2e-05,1e-05,-1e-05,1e-05,3e-05,2,22
6627,2e-05,0.00018,4e-05,2e-05,1e-05,-1e-05,1e-05,3e-05,2,22
6628,2e-05,0.00018,4e-05,2e-05,1e-05,-1e-05,1e-05,3e-05,2,22
6629,2e-05,0.00018,4e-05,2e-05,1e-05,-1e-05,1e-05,3e-05,2,22
6630,0.00013,-0.00015,-7e-05,0.00027,-1e-05,-4e-05,-2e-05,1e-05,2,22
6631,0.00013,-0.00015,-7e-05,0.00027,-1e-05,-4e-05,-2e-05,1e-05,2,22
6632,0.00013,-0.00015,-7e-05,0.00027,-1e-05,-4e-05,-2e-05,1e-05,2,22
6633,0.00013,-0.00015,-7e-05,0.00027,-1e-05,-4e-05,-2e-05,1e-05,2,22
6634,0.00013,-0.00015,-7e-05,0.00027,-1e-05,-4e-05,-2e-05,1e-05,2,22
6635,0.00013,-0.00015,-7e-05,0.00027,-1e-05,-4e-05,-2e-05,1e-05,2,22
6636,0.00013,-0.00015,-7e-05,0.00027,-1e-05,-4e-05,-2e-05,1e-05,2,22
6638,0.00013,-0.00015,-7e-05,0.00027,-1e-05,-4e-05,-2e-05,1e-05,2,22
6639,0.00013,-0.00015,-7e-05,0.00027,-1e-05,-4e-05,-2e-05,1e-05,2,22
6640,0.00013,-0.00015,-7e-05,0.00027,-1e-05,-4e-05,-2e-05,1e-05,2,22
6641,0.00013,-0.00015,-7e-05,0.00027,-1e-05,-4e-05,-2e-05,1e-05,2,22
6642,0.00013,-0.00015,-7e-05,0.00027,-1e-05,-4e-05,-2e-05,1e-05,2,22
6643,0.00013,-0.00015,-7e-05,0.00027,-1e-05,-4e-05,-2e-05,1e-05,2,22
6644,0.00013,-0.00015,-7e-05,0.00027,-1e-05,-4e-05,-2e-05,1e-05,2,22
6645,0.00013,-0.00015,-7e-05,0.00027,-1e-05,-4e-05,-2e-05,1e-05,2,22
6646,0.00086,-0.0003,-1e-05,1e-05,2e-05,-4e-05,0,0.00011,2,22
6647,0.00031,-4e-05,4e-05,2e-05,0.00025,8e-05,4e-05,9e-05,2,22
6648,0.00031,-4e-05,4e-05,2e-05,0.00025,8e-05,4e-05,9e-05,2,22
6649,0.00031,-4e-05,4e-05,2e-05,0.00025,8e-05,4e-05,9e-05,2,22
6650,0.00031,-4e-05,4e-05,2e-05,0.00025,8e-05,4e-05,9e-05,2,22
6651,0.00031,-4e-05,4e-05,2e-05,0.00025,8e-05,4e-05,9e-05,2,22
6652,0.00031,-4e-05,4e-05,2e-05,0.00025,8e-05,4e-05,9e-05,2,22
6653,0.00031,-4e-05,4e-05,2e-05,0.00025,8e-05,4e-05,9e-05,2,22
6654,0.00031,-4e-05,4e-05,2e-05,0.00025,8e-05,4e-05,9e-05,2,22
6655,0.00031,-4e-05,4e-05,2e-05,0.00025,8e-05,4e-05,9e-05,2,22
6656,0.00031,-4e-05,4e-05,2e-05,0.00025,8e-05,4e-05,9e-05,2,22
6657,0.00031,-4e-05,4e-05,2e-05,0.00025,8e-05,4e-05,9e-05,2,22
6658,0.00031,-4e-05,4e-05,2e-05,0.00025,8e-05,4e-05,9e-05,2,22
6659,0.00031,-4e-05,4e-05,2e-05,0.00025,8e-05,4e-05,9e-05,2,22
6660,0.00031,-4e-05,4e-05,2e-05,0.00025,8e-05,4e-05,9e-05,2,22
6661,0.00031,-4e-05,4e-05,2e-05,0.00025,8e-05,4e-05,9e-05,2,22
6662,0.00031,-4e-05,4e-05,2e-05,0.00025,8e-05,4e-05,9e-05,2,22
6663,0.00031,-4e-05,4e-05,2e-05,0.00025,8e-05,4e-05,9e-05,2,22
6664,0.00031,-4e-05,4e-05,2e-05,0.00025,8e-05,4e-05,9e-05,2,22
6666,0.00031,-4e-05,4e-05,2e-05,0.00025,8e-05,4e-05,9e-05,2,22
6667,-0.00019,-4e-05,1e-05,-0.00024,-3e-05,-6e-05,-6e-05,-0.00012,2,22
6668,-0.00019,-4e-05,1e-05,-0.00024,-3e-05,-6e-05,-6e-05,-0.00012,2,22
6669,0.00029,0.00037,0,-0.00063,0.0002,4e-05,1e-05,-3e-05,2,22
6670,0.00029,0.00037,0,-0.00063,0.0002,4e-05,1e-05,-3e-05,2,22
6671,0.00029,0.00037,0,-0.00063,0.0002,4e-05,1e-05,-3e-05,2,22
6672,0.00029,0.00037,0,-0.00063,0.0002,4e-05,1e-05,-3e-05,2,22
6673,0.00029,0.00037,0,-0.00063,0.0002,4e-05,1e-05,-3e-05,2,22
6674,0.00029,0.00037,0,-0.00063,0.0002,4e-05,1e-05,-3e-05,2,22
6675,0.00029,0.00037,0,-0.00063,0.0002,4e-05,1e-05,-3e-05,2,22
6676,0.00029,0.00037,0,-0.00063,0.0002,4e-05,1e-05,-3e-05,2,22
6677,0.00029,0.00037,0,-0.00063,0.0002,4e-05,1e-05,-3e-05,2,22
6678,0.00029,0.00037,0,-0.00063,0.0002,4e-05,1e-05,-3e-05,2,22
6679,0.00029,0.00037,0,-0.00063,0.0002,4e-05,1e-05,-3e-05,2,22
6680,0.00029,0.00037,0,-0.00063,0.0002,4e-05,1e-05,-3e-05,2,22
6681,-9e-05,6e-05,0.00016,0.0006,4e-05,2e-05,-7e-05,1e-05,2,22
6682,-9e-05,6e-05,0.00016,0.0006,4e-05,2e-05,-7e-05,1e-05,2,22
6683,-9e-05,6e-05,0.00016,0.0006,4e-05,2e-05,-7e-05,1e-05,2,22
6684,-9e-05,6e-05,0.00016,0.0006,4e-05,2e-05,-7e-05,1e-05,2,22
6685,-9e-05,6e-05,0.00016,0.0006,4e-05,2e-05,-7e-05,1e-05,2,22
6686,-9e-05,6e-05,0.00016,0.0006,4e-05,2e-05,-7e-05,1e-05,2,22
6688,-9e-05,6e-05,0.00016,0.0006,4e-05,2e-05,-7e-05,1e-05,2,22
6689,-9e-05,6e-05,0.00016,0.0006,4e-05,2e-05,-7e-05,1e-05,2,22
6690,2e-05,0.00033,0.00015,0.00013,-0.00011,-5e-05,-4e-05,-7e-05,2,22
6691,2e-05,0.00033,0.00015,0.00013,-0.00011,-5e-05,-4e-05,-7e-05,2,22
6692,2e-05,0.00033,0.00015,0.00013,-0.00011,-5e-05,-4e-05,-7e-05,2,22
6693,2e-05,0.00033,0.00015,0.00013,-0.00011,-5e-05,-4e-05,-7e-05,2,22
6694,2e-05,0.00033,0.00015,0.00013,-0.00011,-5e-05,-4e-05,-7e-05,2,22
6695,2e-05,0.00033,0.00015,0.00013,-0.00011,-5e-05,-4e-05,-7e-05,2,22
6696,2e-05,0.00033,0.00015,0.00013,-0.00011,-5e-05,-4e-05,-7e-05,2,22
6697,2e-05,0.00033,0.00015,0.00013,-0.00011,-5e-05,-4e-05,-7e-05,2,22
6698,2e-05,0.00033,0.00015,0.00013,-0.00011,-5e-05,-4e-05,-7e-05,2,22
6699,2e-05,0.00033,0.00015,0.00013,-0.00011,-5e-05,-4e-05,-7e-05,2,22
6700,2e-05,0.00033,0.00015,0.00013,-0.00011,-5e-05,-4e-05,-7e-05,2,22
6701,2e-05,0.00033,0.00015,0.00013,-0.00011,-5e-05,-4e-05,-7e-05,2,22
6702,2e-05,0.00033,0.00015,0.00013,-0.00011,-5e-05,-4e-05,-7e-05,2,22
6703,2e-05,0.00033,0.00015,0.00013,-0.00011,-5e-05,-4e-05,-7e-05,2,22
6704,2e-05,0.00033,0.00015,0.00013,-0.00011,-5e-05,-4e-05,-7e-05,2,22
6705,0.00016,0.0001,5e-05,0.00021,4e-05,2e-05,-1e-05,0,2,22
6706,-0.00041,1e-05,-9e-05,-0.00039,-0.00015,-6e-05,-0.00014,-0.00013,2,22
6707,-0.00041,1e-05,-9e-05,-0.00039,-0.00015,-6e-05,-0.00014,-0.00013,2,22
6708,-0.00041,1e-05,-9e-05,-0.00039,-0.00015,-6e-05,-0.00014,-0.00013,2,22
6709,-0.00041,1e-05,-9e-05,-0.00039,-0.00015,-6e-05,-0.00014,-0.00013,2,22
6710,-0.00041,1e-05,-9e-05,-0.00039,-0.00015,-6e-05,-0.00014,-0.00013,2,22
6711,-0.00041,1e-05,-9e-05,-0.00039,-0.00015,-6e-05,-0.00014,-0.00013,2,22
6713,-0.00041,1e-05,-9e-05,-0.00039,-0.00015,-6e-05,-0.00014,-0.00013,2,22
6714,-0.00041,1e-05,-9e-05,-0.00039,-0.00015,-6e-05,-0.00014,-0.00013,2,22
6715,-0.00041,1e-05,-9e-05,-0.00039,-0.00015,-6e-05,-0.00014,-0.00013,2,22
6716,-0.00041,1e-05,-9e-05,-0.00039,-0.00015,-6e-05,-0.00014,-0.00013,2,22
6717,-0.00041,1e-05,-9e-05,-0.00039,-0.00015,-6e-05,-0.00014,-0.00013,2,22
6718,-0.00041,1e-05,-9e-05,-0.00039,-0.00015,-6e-05,-0.00014,-0.00013,2,22
6719,-0.00041,1e-05,-9e-05,-0.00039,-0.00015,-6e-05,-0.00014,-0.00013,2,22
6720,-0.00041,1e-05,-9e-05,-0.00039,-0.00015,-6e-05,-0.00014,-0.00013,2,22
6721,-0.00041,1e-05,-9e-05,-0.00039,-0.00015,-6e-05,-0.00014,-0.00013,2,22
6722,-0.00041,1e-05,-9e-05,-0.00039,-0.00015,-6e-05,-0.00014,-0.00013,2,22
6723,-0.00041,1e-05,-9e-05,-0.00039,-0.00015,-6e-05,-0.00014,-0.00013,2,22
6724,-0.00041,1e-05,-9e-05,-0.00039,-0.00015,-6e-05,-0.00014,-0.00013,2,22
6725,-0.00041,1e-05,-9e-05,-0.00039,-0.00015,-6e-05,-0.00014,-0.00013,2,22
6726,-0.00041,1e-05,-9e-05,-0.00039,-0.00015,-6e-05,-0.00014,-0.00013,2,22
6727,-7e-05,-0.00026,-8e-05,0.00019,-6e-05,-4e-05,3e-05,0,2,22
6728,-7e-05,-0.00026,-8e-05,0.00019,-6e-05,-4e-05,3e-05,0,2,22
6729,0.00023,0.00024,0.00013,0.00023,6e-05,4e-05,8e-05,0.00015,2,22
6730,0.00023,0.00024,0.00013,0.00023,6e-05,4e-05,8e-05,0.00015,2,22
6731,0.00023,0.00024,0.00013,0.00023,6e-05,4e-05,8e-05,0.00015,2,22
6732,0.00023,0.00024,0.00013,0.00023,6e-05,4e-05,8e-05,0.00015,2,22
6733,0.00023,0.00024,0.00013,0.00023,6e-05,4e-05,8e-05,0.00015,2,22
6734,0.00023,0.00024,0.00013,0.00023,6e-05,4e-05,8e-05,0.00015,2,22
6735,0.00023,0.00024,0.00013,0.00023,6e-05,4e-05,8e-05,0.00015,2,22
6736,0.00023,0.00024,0.00013,0.00023,6e-05,4e-05,8e-05,0.00015,2,22
6738,0.00023,0.00024,0.00013,0.00023,6e-05,4e-05,8e-05,0.00015,2,22
6739,0.00023,0.00024,0.00013,0.00023,6e-05,4e-05,8e-05,0.00015,2,22
6740,0.00023,0.00024,0.00013,0.00023,6e-05,4e-05,8e-05,0.00015,2,22
6741,-0.00103,-0.00016,-0.0003,-0.00116,-4e-05,0,-4e-05,-0.00023,2,22
6742,-0.00103,-0.00016,-0.0003,-0.00116,-4e-05,0,-4e-05,-0.00023,2,22
6743,-0.00103,-0.00016,-0.0003,-0.00116,-4e-05,0,-4e-05,-0.00023,2,22
6744,-0.00103,-0.00016,-0.0003,-0.00116,-4e-05,0,-4e-05,-0.00023,2,22
6745,-0.00103,-0.00016,-0.0003,-0.00116,-4e-05,0,-4e-05,-0.00023,2,22
6746,-0.00103,-0.00016,-0.0003,-0.00116,-4e-05,0,-4e-05,-0.00023,2,22
6747,-0.00103,-0.00016,-0.0003,-0.00116,-4e-05,0,-4e-05,-0.00023,2,22
6748,-0.00103,-0.00016,-0.0003,-0.00116,-4e-05,0,-4e-05,-0.00023,2,22
6749,-0.00103,-0.00016,-0.0003,-0.00116,-4e-05,0,-4e-05,-0.00023,2,22
6750,6e-05,-5e-05,-8e-05,2e-05,-0.00014,-1e-05,0.00012,0.00015,2,22
6751,6e-05,-5e-05,-8e-05,2e-05,-0.00014,-1e-05,0.00012,0.00015,2,22
6752,6e-05,-5e-05,-8e-05,2e-05,-0.00014,-1e-05,0.00012,0.00015,2,22
6753,6e-05,-5e-05,-8e-05,2e-05,-0.00014,-1e-05,0.00012,0.00015,2,22
6754,6e-05,-5e-05,-8e-05,2e-05,-0.00014,-1e-05,0.00012,0.00015,2,22
6755,6e-05,-5e-05,-8e-05,2e-05,-0.00014,-1e-05,0.00012,0.00015,2,22
6756,6e-05,-5e-05,-8e-05,2e-05,-0.00014,-1e-05,0.00012,0.00015,2,22
6757,6e-05,-5e-05,-8e-05,2e-05,-0.00014,-1e-05,0.00012,0.00015,2,22
6758,6e-05,-5e-05,-8e-05,2e-05,-0.00014,-1e-05,0.00012,0.00015,2,22
6759,6e-05,-5e-05,-8e-05,2e-05,-0.00014,-1e-05,0.00012,0.00015,2,22
6760,6e-05,-5e-05,-8e-05,2e-05,-0.00014,-1e-05,0.00012,0.00015,2,22
6761,6e-05,-5e-05,-8e-05,2e-05,-0.00014,-1e-05,0.00012,0.00015,2,22
6762,6e-05,-5e-05,-8e-05,2e-05,-0.00014,-1e-05,0.00012,0.00015,2,22
6763,6e-05,-5e-05,-8e-05,2e-05,-0.00014,-1e-05,0.00012,0.00015,2,22
6764,6e-05,-5e-05,-8e-05,2e-05,-0.00014,-1e-05,0.00012,0.00015,2,22
6765,-1e-05,-9e-05,-0.0001,0.00013,-5e-05,-2e-05,-8e-05,-5e-05,2,22
6766,-1e-05,-9e-05,-0.0001,0.00013,-5e-05,-2e-05,-8e-05,-5e-05,2,22
6767,-1e-05,-9e-05,-0.0001,0.00013,-5e-05,-2e-05,-8e-05,-5e-05,2,22
6768,-1e-05,-9e-05,-0.0001,0.00013,-5e-05,-2e-05,-8e-05,-5e-05,2,22
6769,-1e-05,-9e-05,-0.0001,0.00013,-5e-05,-2e-05,-8e-05,-5e-05,2,22
6770,-1e-05,-9e-05,-0.0001,0.00013,-5e-05,-2e-05,-8e-05,-5e-05,2,22
6771,-8e-05,-0.00052,-7e-05,-0.00057,-6e-05,2e-05,9e-05,7e-05,2,22
6772,-8e-05,-0.00052,-7e-05,-0.00057,-6e-05,2e-05,9e-05,7e-05,2,22
6773,-8e-05,-0.00052,-7e-05,-0.00057,-6e-05,2e-05,9e-05,7e-05,2,22
6774,-8e-05,-0.00052,-7e-05,-0.00057,-6e-05,2e-05,9e-05,7e-05,2,22
6775,-8e-05,-0.00052,-7e-05,-0.00057,-6e-05,2e-05,9e-05,7e-05,2,22
6776,-8e-05,-0.00052,-7e-05,-0.00057,-6e-05,2e-05,9e-05,7e-05,2,22
6777,-8e-05,-0.00052,-7e-05,-0.00057,-6e-05,2e-05,9e-05,7e-05,2,22
6778,-8e-05,-0.00052,-7e-05,-0.00057,-6e-05,2e-05,9e-05,7e-05,2,22
6779,-8e-05,-0.00052,-7e-05,-0.00057,-6e-05,2e-05,9e-05,7e-05,2,22
6780,-8e-05,-0.00052,-7e-05,-0.00057,-6e-05,2e-05,9e-05,7e-05,2,22
6781,-8e-05,-0.00052,-7e-05,-0.00057,-6e-05,2e-05,9e-05,7e-05,2,22
6782,-8e-05,-0.00052,-7e-05,-0.00057,-6e-05,2e-05,9e-05,7e-05,2,22
6783,-8e-05,-0.00052,-7e-05,-0.00057,-6e-05,2e-05,9e-05,7e-05,2,22
6784,-8e-05,-0.00052,-7e-05,-0.00057,-6e-05,2e-05,9e-05,7e-05,2,22
6785,-8e-05,-0.00052,-7e-05,-0.00057,-6e-05,2e-05,9e-05,7e-05,2,22
6786,-8e-05,-0.00052,-7e-05,-0.00057,-6e-05,2e-05,9e-05,7e-05,2,22
6789,0.00021,-0.00021,6e-05,0.0003,-4e-05,-8e-05,-8e-05,-0.00012,2,22
6790,0.00021,-0.00021,6e-05,0.0003,-4e-05,-8e-05,-8e-05,-0.00012,2,22
6791,0.00021,-0.00021,6e-05,0.0003,-4e-05,-8e-05,-8e-05,-0.00012,2,22
6792,0.00021,-0.00021,6e-05,0.0003,-4e-05,-8e-05,-8e-05,-0.00012,2,22
6793,0.00021,-0.00021,6e-05,0.0003,-4e-05,-8e-05,-8e-05,-0.00012,2,22
6794,0.00021,-0.00021,6e-05,0.0003,-4e-05,-8e-05,-8e-05,-0.00012,2,22
6795,0.00021,-0.00021,6e-05,0.0003,-4e-05,-8e-05,-8e-05,-0.00012,2,22
6796,0.00021,-0.00021,6e-05,0.0003,-4e-05,-8e-05,-8e-05,-0.00012,2,22
6797,0.00021,-0.00021,6e-05,0.0003,-4e-05,-8e-05,-8e-05,-0.00012,2,22
6798,0.00021,-0.00021,6e-05,0.0003,-4e-05,-8e-05,-8e-05,-0.00012,2,22
6799,0.00021,-0.00021,6e-05,0.0003,-4e-05,-8e-05,-8e-05,-0.00012,2,22
6800,0.00021,-0.00021,6e-05,0.0003,-4e-05,-8e-05,-8e-05,-0.00012,2,22
6801,1e-05,-0.00038,-3e-05,-0.00019,7e-05,0,-3e-05,-0.0001,2,22
6802,1e-05,-0.00038,-3e-05,-0.00019,7e-05,0,-3e-05,-0.0001,2,22
6803,1e-05,-0.00038,-3e-05,-0.00019,7e-05,0,-3e-05,-0.0001,2,22
6804,1e-05,-0.00038,-3e-05,-0.00019,7e-05,0,-3e-05,-0.0001,2,22
6805,1e-05,-0.00038,-3e-05,-0.00019,7e-05,0,-3e-05,-0.0001,2,22
6806,1e-05,-0.00038,-3e-05,-0.00019,7e-05,0,-3e-05,-0.0001,2,22
6808,1e-05,-0.00038,-3e-05,-0.00019,7e-05,0,-3e-05,-0.0001,2,22
6809,1e-05,-0.00038,-3e-05,-0.00019,7e-05,0,-3e-05,-0.0001,2,22
6810,0.00011,-3e-05,-0.00014,0.00021,-6e-05,-3e-05,8e-05,0.00012,2,22
6811,0.00011,-3e-05,-0.00014,0.00021,-6e-05,-3e-05,8e-05,0.00012,2,22
6812,0.00011,-3e-05,-0.00014,0.00021,-6e-05,-3e-05,8e-05,0.00012,2,22
6813,0.00011,-3e-05,-0.00014,0.00021,-6e-05,-3e-05,8e-05,0.00012,2,22
6814,0.00011,-3e-05,-0.00014,0.00021,-6e-05,-3e-05,8e-05,0.00012,2,22
6815,0.00011,-3e-05,-0.00014,0.00021,-6e-05,-3e-05,8e-05,0.00012,2,22
6816,0.00011,-3e-05,-0.00014,0.00021,-6e-05,-3e-05,8e-05,0.00012,2,22
6817,0.00011,-3e-05,-0.00014,0.00021,-6e-05,-3e-05,8e-05,0.00012,2,22
6818,0.00011,-3e-05,-0.00014,0.00021,-6e-05,-3e-05,8e-05,0.00012,2,22
6819,0.00011,-3e-05,-0.00014,0.00021,-6e-05,-3e-05,8e-05,0.00012,2,22
6820,0.00011,-3e-05,-0.00014,0.00021,-6e-05,-3e-05,8e-05,0.00012,2,22
6821,0.00011,-3e-05,-0.00014,0.00021,-6e-05,-3e-05,8e-05,0.00012,2,22
6822,0.00011,-3e-05,-0.00014,0.00021,-6e-05,-3e-05,8e-05,0.00012,2,22
6823,0.00011,-3e-05,-0.00014,0.00021,-6e-05,-3e-05,8e-05,0.00012,2,22
6824,0.00011,-3e-05,-0.00014,0.00021,-6e-05,-3e-05,8e-05,0.00012,2,22
6825,0.00032,0.00049,-0.00011,0.00011,0,4e-05,-0.00018,-4e-05,2,22
6826,-3e-05,5e-05,0.00016,-1e-05,8e-05,3e-05,-6e-05,-0.0001,2,22
6827,-3e-05,5e-05,0.00016,-1e-05,8e-05,3e-05,-6e-05,-0.0001,2,22
6828,-3e-05,5e-05,0.00016,-1e-05,8e-05,3e-05,-6e-05,-0.0001,2,22
6829,-3e-05,5e-05,0.00016,-1e-05,8e-05,3e-05,-6e-05,-0.0001,2,22
6830,-3e-05,5e-05,0.00016,-1e-05,8e-05,3e-05,-6e-05,-0.0001,2,22
6831,-3e-05,5e-05,0.00016,-1e-05,8e-05,3e-05,-6e-05,-0.0001,2,22
6832,-3e-05,5e-05,0.00016,-1e-05,8e-05,3e-05,-6e-05,-0.0001,2,22
6833,-3e-05,5e-05,0.00016,-1e-05,8e-05,3e-05,-6e-05,-0.0001,2,22
6834,-3e-05,5e-05,0.00016,-1e-05,8e-05,3e-05,-6e-05,-0.0001,2,22
6835,-3e-05,5e-05,0.00016,-1e-05,8e-05,3e-05,-6e-05,-0.0001,2,22
6836,-3e-05,5e-05,0.00016,-1e-05,8e-05,3e-05,-6e-05,-0.0001,2,22
6838,-3e-05,5e-05,0.00016,-1e-05,8e-05,3e-05,-6e-05,-0.0001,2,22
6839,-3e-05,5e-05,0.00016,-1e-05,8e-05,3e-05,-6e-05,-0.0001,2,22
6840,-3e-05,5e-05,0.00016,-1e-05,8e-05,3e-05,-6e-05,-0.0001,2,22
6841,-3e-05,5e-05,0.00016,-1e-05,8e-05,3e-05,-6e-05,-0.0001,2,22
6842,-3e-05,5e-05,0.00016,-1e-05,8e-05,3e-05,-6e-05,-0.0001,2,22
6843,-3e-05,5e-05,0.00016,-1e-05,8e-05,3e-05,-6e-05,-0.0001,2,22
6844,-3e-05,5e-05,0.00016,-1e-05,8e-05,3e-05,-6e-05,-0.0001,2,22
6845,-3e-05,5e-05,0.00016,-1e-05,8e-05,3e-05,-6e-05,-0.0001,2,22
6846,-3e-05,5e-05,0.00016,-1e-05,8e-05,3e-05,-6e-05,-0.0001,2,22
6847,-3e-05,5e-05,0.00016,-1e-05,8e-05,3e-05,-6e-05,-0.0001,2,22
6848,-0.00017,-0.00034,0.00013,0.00038,-5e-05,-5e-05,0.00012,0.00018,2,22
6849,0.00013,0.00024,-4e-05,0.00016,4e-05,9e-05,-6e-05,1e-05,2,22
6850,0.00013,0.00024,-4e-05,0.00016,4e-05,9e-05,-6e-05,1e-05,2,22
6851,0.00013,0.00024,-4e-05,0.00016,4e-05,9e-05,-6e-05,1e-05,2,22
6852,0.00013,0.00024,-4e-05,0.00016,4e-05,9e-05,-6e-05,1e-05,2,22
6853,0.00013,0.00024,-4e-05,0.00016,4e-05,9e-05,-6e-05,1e-05,2,22
6854,0.00013,0.00024,-4e-05,0.00016,4e-05,9e-05,-6e-05,1e-05,2,22
6855,0.00013,0.00024,-4e-05,0.00016,4e-05,9e-05,-6e-05,1e-05,2,22
6856,0.00013,0.00024,-4e-05,0.00016,4e-05,9e-05,-6e-05,1e-05,2,22
6857,0.00013,0.00024,-4e-05,0.00016,4e-05,9e-05,-6e-05,1e-05,2,22
6858,0.00013,0.00024,-4e-05,0.00016,4e-05,9e-05,-6e-05,1e-05,2,22
6859,0.00013,0.00024,-4e-05,0.00016,4e-05,9e-05,-6e-05,1e-05,2,22
6860,0.00013,0.00024,-4e-05,0.00016,4e-05,9e-05,-6e-05,1e-05,2,22
6861,-0.00031,0.00023,5e-05,-0.00027,-4e-05,-2e-05,1e-05,-0.00013,2,22
6862,-0.00031,0.00023,5e-05,-0.00027,-4e-05,-2e-05,1e-05,-0.00013,2,22
6863,-0.00031,0.00023,5e-05,-0.00027,-4e-05,-2e-05,1e-05,-0.00013,2,22
6864,-0.00031,0.00023,5e-05,-0.00027,-4e-05,-2e-05,1e-05,-0.00013,2,22
6865,-0.00031,0.00023,5e-05,-0.00027,-4e-05,-2e-05,1e-05,-0.00013,2,22
6866,-0.00031,0.00023,5e-05,-0.00027,-4e-05,-2e-05,1e-05,-0.00013,2,22
6867,-0.00031,0.00023,5e-05,-0.00027,-4e-05,-2e-05,1e-05,-0.00013,2,22
6868,-0.00031,0.00023,5e-05,-0.00027,-4e-05,-2e-05,1e-05,-0.00013,2,22
6869,-0.00031,0.00023,5e-05,-0.00027,-4e-05,-2e-05,1e-05,-0.00013,2,22
6870,0.00016,0.00027,7e-05,8e-05,-7e-05,-7e-05,-1e-05,3e-05,2,22
6871,0.00016,0.00027,7e-05,8e-05,-7e-05,-7e-05,-1e-05,3e-05,2,22
6872,0.00016,0.00027,7e-05,8e-05,-7e-05,-7e-05,-1e-05,3e-05,2,22
6873,0.00016,0.00027,7e-05,8e-05,-7e-05,-7e-05,-1e-05,3e-05,2,22
6874,0.00016,0.00027,7e-05,8e-05,-7e-05,-7e-05,-1e-05,3e-05,2,22
6875,0.00016,0.00027,7e-05,8e-05,-7e-05,-7e-05,-1e-05,3e-05,2,22
6876,0.00016,0.00027,7e-05,8e-05,-7e-05,-7e-05,-1e-05,3e-05,2,22
6877,0.00016,0.00027,7e-05,8e-05,-7e-05,-7e-05,-1e-05,3e-05,2,22
6878,0.00016,0.00027,7e-05,8e-05,-7e-05,-7e-05,-1e-05,3e-05,2,22
6879,0.00016,0.00027,7e-05,8e-05,-7e-05,-7e-05,-1e-05,3e-05,2,22
6880,0.00016,0.00027,7e-05,8e-05,-7e-05,-7e-05,-1e-05,3e-05,2,22
6881,0.00016,0.00027,7e-05,8e-05,-7e-05,-7e-05,-1e-05,3e-05,2,22
6882,0.00016,0.00027,7e-05,8e-05,-7e-05,-7e-05,-1e-05,3e-05,2,22
6883,0.00016,0.00027,7e-05,8e-05,-7e-05,-7e-05,-1e-05,3e-05,2,22
6884,0.00016,0.00027,7e-05,8e-05,-7e-05,-7e-05,-1e-05,3e-05,2,22
6885,-6e-05,5e-05,7e-05,0.00042,-2e-05,6e-05,9e-05,0.00011,2,22
6886,0.0004,0.00081,-5e-05,-0.00063,0.0001,-3e-05,-5e-05,-9e-05,2,22
6888,-0.00024,-0.0004,5e-05,0.00068,6e-05,0,4e-05,0.00017,2,22
6889,-0.00024,-0.0004,5e-05,0.00068,6e-05,0,4e-05,0.00017,2,22
6890,-0.00024,-0.0004,5e-05,0.00068,6e-05,0,4e-05,0.00017,2,22
6891,-0.00024,-0.0004,5e-05,0.00068,6e-05,0,4e-05,0.00017,2,22
6892,-0.00024,-0.0004,5e-05,0.00068,6e-05,0,4e-05,0.00017,2,22
6893,-0.00024,-0.0004,5e-05,0.00068,6e-05,0,4e-05,0.00017,2,22
6894,-0.00024,-0.0004,5e-05,0.00068,6e-05,0,4e-05,0.00017,2,22
6895,-0.00024,-0.0004,5e-05,0.00068,6e-05,0,4e-05,0.00017,2,22
6896,-0.00024,-0.0004,5e-05,0.00068,6e-05,0,4e-05,0.00017,2,22
6897,-0.00024,-0.0004,5e-05,0.00068,6e-05,0,4e-05,0.00017,2,22
6898,-0.00024,-0.0004,5e-05,0.00068,6e-05,0,4e-05,0.00017,2,22
6899,-0.00024,-0.0004,5e-05,0.00068,6e-05,0,4e-05,0.00017,2,22
6900,-0.00024,-0.0004,5e-05,0.00068,6e-05,0,4e-05,0.00017,2,22
6901,-0.00024,-0.0004,5e-05,0.00068,6e-05,0,4e-05,0.00017,2,22
6902,-0.00024,-0.0004,5e-05,0.00068,6e-05,0,4e-05,0.00017,2,22
6903,-0.00024,-0.0004,5e-05,0.00068,6e-05,0,4e-05,0.00017,2,22
6904,-0.00024,-0.0004,5e-05,0.00068,6e-05,0,4e-05,0.00017,2,22
6905,-0.00024,-0.0004,5e-05,0.00068,6e-05,0,4e-05,0.00017,2,22
6906,-0.00024,-0.0004,5e-05,0.00068,6e-05,0,4e-05,0.00017,2,22
6907,0.00033,-0.00012,0,-5e-05,1e-05,-2e-05,-1e-05,-1e-05,2,22
6908,0.00033,-0.00012,0,-5e-05,1e-05,-2e-05,-1e-05,-1e-05,2,22
6909,0.00016,0.0001,-0.00016,3e-05,-9e-05,0,0.0001,0.00015,2,22
6910,0.00016,0.0001,-0.00016,3e-05,-9e-05,0,0.0001,0.00015,2,22
6911,0.00016,0.0001,-0.00016,3e-05,-9e-05,0,0.0001,0.00015,2,22
6912,0.00016,0.0001,-0.00016,3e-05,-9e-05,0,0.0001,0.00015,2,22
6913,0.00016,0.0001,-0.00016,3e-05,-9e-05,0,0.0001,0.00015,2,22
6914,0.00016,0.0001,-0.00016,3e-05,-9e-05,0,0.0001,0.00015,2,22
6915,0.00016,0.0001,-0.00016,3e-05,-9e-05,0,0.0001,0.00015,2,22
6916,0.00016,0.0001,-0.00016,3e-05,-9e-05,0,0.0001,0.00015,2,22
6917,0.00016,0.0001,-0.00016,3e-05,-9e-05,0,0.0001,0.00015,2,22
6918,0.00016,0.0001,-0.00016,3e-05,-9e-05,0,0.0001,0.00015,2,22
6919,0.00016,0.0001,-0.00016,3e-05,-9e-05,0,0.0001,0.00015,2,22
6920,0.00016,0.0001,-0.00016,3e-05,-9e-05,0,0.0001,0.00015,2,22
6921,0.00016,0.0001,-0.00016,3e-05,-9e-05,0,0.0001,0.00015,2,22
6922,0.00016,0.0001,-0.00016,3e-05,-9e-05,0,0.0001,0.00015,2,22
6923,0.00016,0.0001,-0.00016,3e-05,-9e-05,0,0.0001,0.00015,2,22
6924,0.00016,0.0001,-0.00016,3e-05,-9e-05,0,0.0001,0.00015,2,22
6925,0.00016,0.0001,-0.00016,3e-05,-9e-05,0,0.0001,0.00015,2,22
6926,0.00016,0.0001,-0.00016,3e-05,-9e-05,0,0.0001,0.00015,2,22
6927,0.00016,0.0001,-0.00016,3e-05,-9e-05,0,0.0001,0.00015,2,22
6928,0.00016,0.0001,-0.00016,3e-05,-9e-05,0,0.0001,0.00015,2,22
6929,0.00016,0.0001,-0.00016,3e-05,-9e-05,0,0.0001,0.00015,2,22
6930,-0.00037,-0.00097,-0.00014,-0.00037,4e-05,-4e-05,-0.00011,-0.00026,2,22
6931,-6e-05,0.0001,-7e-05,-9e-05,4e-05,2e-05,2e-05,-3e-05,2,22
6933,-6e-05,0.0001,-7e-05,-9e-05,4e-05,2e-05,2e-05,-3e-05,2,22
6934,-6e-05,0.0001,-7e-05,-9e-05,4e-05,2e-05,2e-05,-3e-05,2,22
6935,-6e-05,0.0001,-7e-05,-9e-05,4e-05,2e-05,2e-05,-3e-05,2,22
6936,-6e-05,0.0001,-7e-05,-9e-05,4e-05,2e-05,2e-05,-3e-05,2,22
6938,-6e-05,0.0001,-7e-05,-9e-05,4e-05,2e-05,2e-05,-3e-05,2,22
6939,-6e-05,0.0001,-7e-05,-9e-05,4e-05,2e-05,2e-05,-3e-05,2,22
6940,-6e-05,0.0001,-7e-05,-9e-05,4e-05,2e-05,2e-05,-3e-05,2,22
6941,-6e-05,0.0001,-7e-05,-9e-05,4e-05,2e-05,2e-05,-3e-05,2,22
6942,-6e-05,0.0001,-7e-05,-9e-05,4e-05,2e-05,2e-05,-3e-05,2,22
6943,-6e-05,0.0001,-7e-05,-9e-05,4e-05,2e-05,2e-05,-3e-05,2,22
6944,-6e-05,0.0001,-7e-05,-9e-05,4e-05,2e-05,2e-05,-3e-05,2,22
6945,-0.00038,0.00036,6e-05,-0.00011,-3e-05,-3e-05,-3e-05,-7e-05,2,22
6946,-0.00038,0.00036,6e-05,-0.00011,-3e-05,-3e-05,-3e-05,-7e-05,2,22
6947,-0.00019,6e-05,2e-05,-0.00017,-0.00011,-1e-05,-0.00022,-0.00011,2,22
6948,-0.00019,6e-05,2e-05,-0.00017,-0.00011,-1e-05,-0.00022,-0.00011,2,22
6949,-0.00019,6e-05,2e-05,-0.00017,-0.00011,-1e-05,-0.00022,-0.00011,2,22
6950,-0.00019,6e-05,2e-05,-0.00017,-0.00011,-1e-05,-0.00022,-0.00011,2,22
6951,-0.00019,6e-05,2e-05,-0.00017,-0.00011,-1e-05,-0.00022,-0.00011,2,22
6952,-0.00019,6e-05,2e-05,-0.00017,-0.00011,-1e-05,-0.00022,-0.00011,2,22
6953,-0.00019,6e-05,2e-05,-0.00017,-0.00011,-1e-05,-0.00022,-0.00011,2,22
6954,-0.00019,6e-05,2e-05,-0.00017,-0.00011,-1e-05,-0.00022,-0.00011,2,22
6955,-0.00019,6e-05,2e-05,-0.00017,-0.00011,-1e-05,-0.00022,-0.00011,2,22
6956,-0.00019,6e-05,2e-05,-0.00017,-0.00011,-1e-05,-0.00022,-0.00011,2,22
6957,-0.00019,6e-05,2e-05,-0.00017,-0.00011,-1e-05,-0.00022,-0.00011,2,22
6958,-0.00019,6e-05,2e-05,-0.00017,-0.00011,-1e-05,-0.00022,-0.00011,2,22
6959,-0.00019,6e-05,2e-05,-0.00017,-0.00011,-1e-05,-0.00022,-0.00011,2,22
6960,-0.00019,6e-05,2e-05,-0.00017,-0.00011,-1e-05,-0.00022,-0.00011,2,22
6961,-0.00019,6e-05,2e-05,-0.00017,-0.00011,-1e-05,-0.00022,-0.00011,2,22
6962,-0.00019,6e-05,2e-05,-0.00017,-0.00011,-1e-05,-0.00022,-0.00011,2,22
6963,-0.00019,6e-05,2e-05,-0.00017,-0.00011,-1e-05,-0.00022,-0.00011,2,22
6964,-0.00019,6e-05,2e-05,-0.00017,-0.00011,-1e-05,-0.00022,-0.00011,2,22
6965,-0.00019,6e-05,2e-05,-0.00017,-0.00011,-1e-05,-0.00022,-0.00011,2,22
6966,-0.00019,6e-05,2e-05,-0.00017,-0.00011,-1e-05,-0.00022,-0.00011,2,22
6967,-0.00048,-0.00077,-0.0002,-0.00042,4e-05,-6e-05,-0.00012,-0.00018,2,22
6968,-0.00048,-0.00077,-0.0002,-0.00042,4e-05,-6e-05,-0.00012,-0.00018,2,22
6969,-0.00013,0.00034,8e-05,0.00023,0.00025,3e-05,-8e-05,-0.00017,2,22
6970,-0.00013,0.00034,8e-05,0.00023,0.00025,3e-05,-8e-05,-0.00017,2,22
6971,-0.00013,0.00034,8e-05,0.00023,0.00025,3e-05,-8e-05,-0.00017,2,22
6972,-0.00013,0.00034,8e-05,0.00023,0.00025,3e-05,-8e-05,-0.00017,2,22
6973,-0.00013,0.00034,8e-05,0.00023,0.00025,3e-05,-8e-05,-0.00017,2,22
6974,-0.00013,0.00034,8e-05,0.00023,0.00025,3e-05,-8e-05,-0.00017,2,22
6975,-0.00013,0.00034,8e-05,0.00023,0.00025,3e-05,-8e-05,-0.00017,2,22
6976,-0.00013,0.00034,8e-05,0.00023,0.00025,3e-05,-8e-05,-0.00017,2,22
6977,-0.00013,0.00034,8e-05,0.00023,0.00025,3e-05,-8e-05,-0.00017,2,22
6978,-0.00013,0.00034,8e-05,0.00023,0.00025,3e-05,-8e-05,-0.00017,2,22
6979,-0.00013,0.00034,8e-05,0.00023,0.00025,3e-05,-8e-05,-0.00017,2,22
6980,-0.00013,0.00034,8e-05,0.00023,0.00025,3e-05,-8e-05,-0.00017,2,22
6981,-0.00013,0.00034,8e-05,0.00023,0.00025,3e-05,-8e-05,-0.00017,2,22
6982,-0.00013,0.00034,8e-05,0.00023,0.00025,3e-05,-8e-05,-0.00017,2,22
6983,-0.00013,0.00034,8e-05,0.00023,0.00025,3e-05,-8e-05,-0.00017,2,22
6984,-0.00013,0.00034,8e-05,0.00023,0.00025,3e-05,-8e-05,-0.00017,2,22
6985,-0.00013,0.00034,8e-05,0.00023,0.00025,3e-05,-8e-05,-0.00017,2,22
6986,-0.00013,0.00034,8e-05,0.00023,0.00025,3e-05,-8e-05,-0.00017,2,22
6988,-0.00013,0.00034,8e-05,0.00023,0.00025,3e-05,-8e-05,-0.00017,2,22
6989,-0.00013,0.00034,8e-05,0.00023,0.00025,3e-05,-8e-05,-0.00017,2,22
6990,9e-05,0.00048,2e-05,0.00036,6e-05,4e-05,7e-05,0.00013,2,22
6991,-0.00038,-0.00018,5e-05,-0.00019,-1e-05,-2e-05,1e-05,-5e-05,2,22
6992,-0.00038,-0.00018,5e-05,-0.00019,-1e-05,-2e-05,1e-05,-5e-05,2,22
6993,-0.00038,-0.00018,5e-05,-0.00019,-1e-05,-2e-05,1e-05,-5e-05,2,22
6994,-0.00038,-0.00018,5e-05,-0.00019,-1e-05,-2e-05,1e-05,-5e-05,2,22
6995,-0.00038,-0.00018,5e-05,-0.00019,-1e-05,-2e-05,1e-05,-5e-05,2,22
6996,-0.00038,-0.00018,5e-05,-0.00019,-1e-05,-2e-05,1e-05,-5e-05,2,22
6997,-0.00038,-0.00018,5e-05,-0.00019,-1e-05,-2e-05,1e-05,-5e-05,2,22
6998,-0.00038,-0.00018,5e-05,-0.00019,-1e-05,-2e-05,1e-05,-5e-05,2,22
6999,-0.00038,-0.00018,5e-05,-0.00019,-1e-05,-2e-05,1e-05,-5e-05,2,22
7000,-0.00038,-0.00018,5e-05,-0.00019,-1e-05,-2e-05,1e-05,-5e-05,2,22
7001,-0.00038,-0.00018,5e-05,-0.00019,-1e-05,-2e-05,1e-05,-5e-05,2,22
7002,-0.00038,-0.00018,5e-05,-0.00019,-1e-05,-2e-05,1e-05,-5e-05,2,22
7003,-0.00038,-0.00018,5e-05,-0.00019,-1e-05,-2e-05,1e-05,-5e-05,2,22
7004,-0.00038,-0.00018,5e-05,-0.00019,-1e-05,-2e-05,1e-05,-5e-05,2,22
7005,2e-05,0.00011,0.00012,0.00024,0.00014,-1e-05,-2e-05,-0.00013,2,22
7006,-0.00045,-0.00036,-6e-05,-3e-05,-0.0001,-5e-05,-4e-05,-0.00012,2,22
7007,-0.00045,-0.00036,-6e-05,-3e-05,-0.0001,-5e-05,-4e-05,-0.00012,2,22
7008,-0.00045,-0.00036,-6e-05,-3e-05,-0.0001,-5e-05,-4e-05,-0.00012,2,22
7009,-0.00045,-0.00036,-6e-05,-3e-05,-0.0001,-5e-05,-4e-05,-0.00012,2,22
7010,-0.00045,-0.00036,-6e-05,-3e-05,-0.0001,-5e-05,-4e-05,-0.00012,2,22
7011,-0.00045,-0.00036,-6e-05,-3e-05,-0.0001,-5e-05,-4e-05,-0.00012,2,22
7012,-0.00045,-0.00036,-6e-05,-3e-05,-0.0001,-5e-05,-4e-05,-0.00012,2,22
7014,-0.00045,-0.00036,-6e-05,-3e-05,-0.0001,-5e-05,-4e-05,-0.00012,2,22
7015,-0.00045,-0.00036,-6e-05,-3e-05,-0.0001,-5e-05,-4e-05,-0.00012,2,22
7016,-0.00045,-0.00036,-6e-05,-3e-05,-0.0001,-5e-05,-4e-05,-0.00012,2,22
7017,-0.00045,-0.00036,-6e-05,-3e-05,-0.0001,-5e-05,-4e-05,-0.00012,2,22
7018,-0.00045,-0.00036,-6e-05,-3e-05,-0.0001,-5e-05,-4e-05,-0.00012,2,22
7019,-0.00045,-0.00036,-6e-05,-3e-05,-0.0001,-5e-05,-4e-05,-0.00012,2,22
7020,-0.00045,-0.00036,-6e-05,-3e-05,-0.0001,-5e-05,-4e-05,-0.00012,2,22
7022,-0.00045,-0.00036,-6e-05,-3e-05,-0.0001,-5e-05,-4e-05,-0.00012,2,22
7023,-0.00045,-0.00036,-6e-05,-3e-05,-0.0001,-5e-05,-4e-05,-0.00012,2,22
7024,-0.00045,-0.00036,-6e-05,-3e-05,-0.0001,-5e-05,-4e-05,-0.00012,2,22
7025,-0.00045,-0.00036,-6e-05,-3e-05,-0.0001,-5e-05,-4e-05,-0.00012,2,22
7026,-0.00045,-0.00036,-6e-05,-3e-05,-0.0001,-5e-05,-4e-05,-0.00012,2,22
7027,0.00037,-0.00024,-0.0001,-0.00025,-0.00016,-5e-05,-7e-05,1e-05,2,22
7028,0.00037,-0.00024,-0.0001,-0.00025,-0.00016,-5e-05,-7e-05,1e-05,2,22
7029,0.00022,0.00022,9e-05,-0.00019,-4e-05,2e-05,4e-05,0.0001,2,22
7030,0.00022,0.00022,9e-05,-0.00019,-4e-05,2e-05,4e-05,0.0001,2,22
7031,0.00022,0.00022,9e-05,-0.00019,-4e-05,2e-05,4e-05,0.0001,2,22
7032,0.00022,0.00022,9e-05,-0.00019,-4e-05,2e-05,4e-05,0.0001,2,22
7033,0.00022,0.00022,9e-05,-0.00019,-4e-05,2e-05,4e-05,0.0001,2,22
7034,0.00022,0.00022,9e-05,-0.00019,-4e-05,2e-05,4e-05,0.0001,2,22
7035,0.00022,0.00022,9e-05,-0.00019,-4e-05,2e-05,4e-05,0.0001,2,22
7036,0.00022,0.00022,9e-05,-0.00019,-4e-05,2e-05,4e-05,0.0001,2,22
7038,0.00022,0.00022,9e-05,-0.00019,-4e-05,2e-05,4e-05,0.0001,2,22
7039,0.00022,0.00022,9e-05,-0.00019,-4e-05,2e-05,4e-05,0.0001,2,22
7040,0.00022,0.00022,9e-05,-0.00019,-4e-05,2e-05,4e-05,0.0001,2,22
7041,0.00022,0.00022,9e-05,-0.00019,-4e-05,2e-05,4e-05,0.0001,2,22
7042,0.00022,0.00022,9e-05,-0.00019,-4e-05,2e-05,4e-05,0.0001,2,22
7043,0.00022,0.00022,9e-05,-0.00019,-4e-05,2e-05,4e-05,0.0001,2,22
7044,0.00022,0.00022,9e-05,-0.00019,-4e-05,2e-05,4e-05,0.0001,2,22
7045,0.00022,0.00022,9e-05,-0.00019,-4e-05,2e-05,4e-05,0.0001,2,22
7046,0.00022,0.00022,9e-05,-0.00019,-4e-05,2e-05,4e-05,0.0001,2,22
7047,0.00022,0.00022,9e-05,-0.00019,-4e-05,2e-05,4e-05,0.0001,2,22
7048,0.00022,0.00022,9e-05,-0.00019,-4e-05,2e-05,4e-05,0.0001,2,22
7049,0.00022,0.00022,9e-05,-0.00019,-4e-05,2e-05,4e-05,0.0001,2,22
7050,0.00022,0.00051,9e-05,0.00011,3e-05,0,6e-05,0.0001,2,22
7051,0.0001,-0.00025,-0.0001,-0.0002,-9e-05,-6e-05,-3e-05,-2e-05,2,22
7053,0.0001,-0.00025,-0.0001,-0.0002,-9e-05,-6e-05,-3e-05,-2e-05,2,22
7054,0.0001,-0.00025,-0.0001,-0.0002,-9e-05,-6e-05,-3e-05,-2e-05,2,22
7055,0.0001,-0.00025,-0.0001,-0.0002,-9e-05,-6e-05,-3e-05,-2e-05,2,22
7056,0.0001,-0.00025,-0.0001,-0.0002,-9e-05,-6e-05,-3e-05,-2e-05,2,22
7057,0.0001,-0.00025,-0.0001,-0.0002,-9e-05,-6e-05,-3e-05,-2e-05,2,22
7058,0.0001,-0.00025,-0.0001,-0.0002,-9e-05,-6e-05,-3e-05,-2e-05,2,22
7059,0.0001,-0.00025,-0.0001,-0.0002,-9e-05,-6e-05,-3e-05,-2e-05,2,22
7060,0.0001,-0.00025,-0.0001,-0.0002,-9e-05,-6e-05,-3e-05,-2e-05,2,22
7061,0.0001,-0.00025,-0.0001,-0.0002,-9e-05,-6e-05,-3e-05,-2e-05,2,22
7062,0.0001,-0.00025,-0.0001,-0.0002,-9e-05,-6e-05,-3e-05,-2e-05,2,22
7063,0.0001,-0.00025,-0.0001,-0.0002,-9e-05,-6e-05,-3e-05,-2e-05,2,22
7064,0.0001,-0.00025,-0.0001,-0.0002,-9e-05,-6e-05,-3e-05,-2e-05,2,22
7065,0.0002,0.00068,0.00012,0.00028,-1e-05,2e-05,-2e-05,3e-05,2,22
7066,-0.00019,0.00051,4e-05,-3e-05,-0.0001,-1e-05,0.0001,7e-05,2,22
7067,-0.00019,0.00051,4e-05,-3e-05,-0.0001,-1e-05,0.0001,7e-05,2,22
7068,-0.00019,0.00051,4e-05,-3e-05,-0.0001,-1e-05,0.0001,7e-05,2,22
7069,-0.00019,0.00051,4e-05,-3e-05,-0.0001,-1e-05,0.0001,7e-05,2,22
7070,-0.00019,0.00051,4e-05,-3e-05,-0.0001,-1e-05,0.0001,7e-05,2,22
7071,-0.00019,0.00051,4e-05,-3e-05,-0.0001,-1e-05,0.0001,7e-05,2,22
7072,-0.00019,0.00051,4e-05,-3e-05,-0.0001,-1e-05,0.0001,7e-05,2,22
7073,-0.00019,0.00051,4e-05,-3e-05,-0.0001,-1e-05,0.0001,7e-05,2,22
7074,-0.00019,0.00051,4e-05,-3e-05,-0.0001,-1e-05,0.0001,7e-05,2,22
7075,-0.00019,0.00051,4e-05,-3e-05,-0.0001,-1e-05,0.0001,7e-05,2,22
7076,-0.00019,0.00051,4e-05,-3e-05,-0.0001,-1e-05,0.0001,7e-05,2,22
7077,-0.00019,0.00051,4e-05,-3e-05,-0.0001,-1e-05,0.0001,7e-05,2,22
7078,-0.00019,0.00051,4e-05,-3e-05,-0.0001,-1e-05,0.0001,7e-05,2,22
7079,-0.00019,0.00051,4e-05,-3e-05,-0.0001,-1e-05,0.0001,7e-05,2,22
7080,-0.00019,0.00051,4e-05,-3e-05,-0.0001,-1e-05,0.0001,7e-05,2,22
7081,-0.00019,0.00051,4e-05,-3e-05,-0.0001,-1e-05,0.0001,7e-05,2,22
7082,-0.00019,0.00051,4e-05,-3e-05,-0.0001,-1e-05,0.0001,7e-05,2,22
7083,-0.00019,0.00051,4e-05,-3e-05,-0.0001,-1e-05,0.0001,7e-05,2,22
7084,-0.00019,0.00051,4e-05,-3e-05,-0.0001,-1e-05,0.0001,7e-05,2,22
7085,-0.00019,0.00051,4e-05,-3e-05,-0.0001,-1e-05,0.0001,7e-05,2,22
7086,-0.00019,0.00051,4e-05,-3e-05,-0.0001,-1e-05,0.0001,7e-05,2,22
7089,-0.00019,0.00051,4e-05,-3e-05,-0.0001,-1e-05,0.0001,7e-05,2,22
7090,8e-05,-4e-05,3e-05,1e-05,-3e-05,2e-05,-1e-05,-7e-05,2,22
7091,8e-05,-4e-05,3e-05,1e-05,-3e-05,2e-05,-1e-05,-7e-05,2,22
7092,8e-05,-4e-05,3e-05,1e-05,-3e-05,2e-05,-1e-05,-7e-05,2,22
7093,8e-05,-4e-05,3e-05,1e-05,-3e-05,2e-05,-1e-05,-7e-05,2,22
7094,8e-05,-4e-05,3e-05,1e-05,-3e-05,2e-05,-1e-05,-7e-05,2,22
7095,8e-05,-4e-05,3e-05,1e-05,-3e-05,2e-05,-1e-05,-7e-05,2,22
7096,8e-05,-4e-05,3e-05,1e-05,-3e-05,2e-05,-1e-05,-7e-05,2,22
7097,8e-05,-4e-05,3e-05,1e-05,-3e-05,2e-05,-1e-05,-7e-05,2,22
7098,8e-05,-4e-05,3e-05,1e-05,-3e-05,2e-05,-1e-05,-7e-05,2,22
7099,8e-05,-4e-05,3e-05,1e-05,-3e-05,2e-05,-1e-05,-7e-05,2,22
7100,8e-05,-4e-05,3e-05,1e-05,-3e-05,2e-05,-1e-05,-7e-05,2,22
7101,8e-05,-4e-05,3e-05,1e-05,-3e-05,2e-05,-1e-05,-7e-05,2,22
7102,8e-05,-4e-05,3e-05,1e-05,-3e-05,2e-05,-1e-05,-7e-05,2,22
7103,8e-05,-4e-05,3e-05,1e-05,-3e-05,2e-05,-1e-05,-7e-05,2,22
7104,8e-05,-4e-05,3e-05,1e-05,-3e-05,2e-05,-1e-05,-7e-05,2,22
7105,8e-05,-4e-05,3e-05,1e-05,-3e-05,2e-05,-1e-05,-7e-05,2,22
7106,8e-05,-4e-05,3e-05,1e-05,-3e-05,2e-05,-1e-05,-7e-05,2,22
7107,8e-05,-4e-05,3e-05,1e-05,-3e-05,2e-05,-1e-05,-7e-05,2,22
7108,8e-05,-4e-05,3e-05,1e-05,-3e-05,2e-05,-1e-05,-7e-05,2,22
7109,8e-05,-4e-05,3e-05,1e-05,-3e-05,2e-05,-1e-05,-7e-05,2,22
7110,-0.00095,-0.00049,-9e-05,-1e-05,-0.0001,-6e-05,7e-05,-2e-05,2,22
7111,0.00017,0.00019,1e-05,0.00029,0.00019,4e-05,1e-05,3e-05,2,22
7112,0.00017,0.00019,1e-05,0.00029,0.00019,4e-05,1e-05,3e-05,2,22
7113,0.00017,0.00019,1e-05,0.00029,0.00019,4e-05,1e-05,3e-05,2,22
7114,0.00017,0.00019,1e-05,0.00029,0.00019,4e-05,1e-05,3e-05,2,22
7115,0.00017,0.00019,1e-05,0.00029,0.00019,4e-05,1e-05,3e-05,2,22
7116,0.00017,0.00019,1e-05,0.00029,0.00019,4e-05,1e-05,3e-05,2,22
7117,0.00017,0.00019,1e-05,0.00029,0.00019,4e-05,1e-05,3e-05,2,22
7118,0.00017,0.00019,1e-05,0.00029,0.00019,4e-05,1e-05,3e-05,2,22
7119,0.00017,0.00019,1e-05,0.00029,0.00019,4e-05,1e-05,3e-05,2,22
7120,0.00017,0.00019,1e-05,0.00029,0.00019,4e-05,1e-05,3e-05,2,22
7121,0.00017,0.00019,1e-05,0.00029,0.00019,4e-05,1e-05,3e-05,2,22
7122,0.00017,0.00019,1e-05,0.00029,0.00019,4e-05,1e-05,3e-05,2,22
7123,0.00017,0.00019,1e-05,0.00029,0.00019,4e-05,1e-05,3e-05,2,22
7124,0.00017,0.00019,1e-05,0.00029,0.00019,4e-05,1e-05,3e-05,2,22
7125,-3e-05,0.00022,1e-05,1e-05,6e-05,1e-05,0,-2e-05,2,22
7126,-3e-05,0.00022,1e-05,1e-05,6e-05,1e-05,0,-2e-05,2,22
7127,-3e-05,0.00022,1e-05,1e-05,6e-05,1e-05,0,-2e-05,2,22
7128,-3e-05,0.00022,1e-05,1e-05,6e-05,1e-05,0,-2e-05,2,22
7129,-3e-05,0.00022,1e-05,1e-05,6e-05,1e-05,0,-2e-05,2,22
7130,-3e-05,0.00022,1e-05,1e-05,6e-05,1e-05,0,-2e-05,2,22
7131,-0.00023,-0.00022,7e-05,5e-05,0.00012,1e-05,-1e-05,-1e-05,2,22
7132,-0.00023,-0.00022,7e-05,5e-05,0.00012,1e-05,-1e-05,-1e-05,2,22
7133,-0.00023,-0.00022,7e-05,5e-05,0.00012,1e-05,-1e-05,-1e-05,2,22
7134,-0.00023,-0.00022,7e-05,5e-05,0.00012,1e-05,-1e-05,-1e-05,2,22
7135,-0.00023,-0.00022,7e-05,5e-05,0.00012,1e-05,-1e-05,-1e-05,2,22
7136,-0.00023,-0.00022,7e-05,5e-05,0.00012,1e-05,-1e-05,-1e-05,2,22
7138,-0.00023,-0.00022,7e-05,5e-05,0.00012,1e-05,-1e-05,-1e-05,2,22
7139,-0.00023,-0.00022,7e-05,5e-05,0.00012,1e-05,-1e-05,-1e-05,2,22
7140,-0.00023,-0.00022,7e-05,5e-05,0.00012,1e-05,-1e-05,-1e-05,2,22
7141,-0.00023,-0.00022,7e-05,5e-05,0.00012,1e-05,-1e-05,-1e-05,2,22
7142,-0.00023,-0.00022,7e-05,5e-05,0.00012,1e-05,-1e-05,-1e-05,2,22
7143,-0.00023,-0.00022,7e-05,5e-05,0.00012,1e-05,-1e-05,-1e-05,2,22
7144,-0.00023,-0.00022,7e-05,5e-05,0.00012,1e-05,-1e-05,-1e-05,2,22
7145,-0.00023,-0.00022,7e-05,5e-05,0.00012,1e-05,-1e-05,-1e-05,2,22
7146,-0.00023,-0.00022,7e-05,5e-05,0.00012,1e-05,-1e-05,-1e-05,2,22
7147,0.00011,0.00016,-7e-05,-0.00021,0.00017,-1e-05,1e-05,2e-05,2,22
7148,0.00011,0.00016,-7e-05,-0.00021,0.00017,-1e-05,1e-05,2e-05,2,22
7149,1e-05,0.00024,0.00013,1e-05,-0.00011,0,-1e-05,1e-05,2,22
7150,1e-05,0.00024,0.00013,1e-05,-0.00011,0,-1e-05,1e-05,2,22
7151,1e-05,0.00024,0.00013,1e-05,-0.00011,0,-1e-05,1e-05,2,22
7152,1e-05,0.00024,0.00013,1e-05,-0.00011,0,-1e-05,1e-05,2,22
7153,1e-05,0.00024,0.00013,1e-05,-0.00011,0,-1e-05,1e-05,2,22
7154,1e-05,0.00024,0.00013,1e-05,-0.00011,0,-1e-05,1e-05,2,22
7155,1e-05,0.00024,0.00013,1e-05,-0.00011,0,-1e-05,1e-05,2,22
7156,1e-05,0.00024,0.00013,1e-05,-0.00011,0,-1e-05,1e-05,2,22
7157,1e-05,0.00024,0.00013,1e-05,-0.00011,0,-1e-05,1e-05,2,22
7158,1e-05,0.00024,0.00013,1e-05,-0.00011,0,-1e-05,1e-05,2,22
7159,1e-05,0.00024,0.00013,1e-05,-0.00011,0,-1e-05,1e-05,2,22
7160,1e-05,0.00024,0.00013,1e-05,-0.00011,0,-1e-05,1e-05,2,22
7161,1e-05,0.00024,0.00013,1e-05,-0.00011,0,-1e-05,1e-05,2,22
7162,1e-05,0.00024,0.00013,1e-05,-0.00011,0,-1e-05,1e-05,2,22
7163,1e-05,0.00024,0.00013,1e-05,-0.00011,0,-1e-05,1e-05,2,22
7164,1e-05,0.00024,0.00013,1e-05,-0.00011,0,-1e-05,1e-05,2,22
7165,1e-05,0.00024,0.00013,1e-05,-0.00011,0,-1e-05,1e-05,2,22
7166,1e-05,0.00024,0.00013,1e-05,-0.00011,0,-1e-05,1e-05,2,22
7167,1e-05,0.00024,0.00013,1e-05,-0.00011,0,-1e-05,1e-05,2,22
7168,1e-05,0.00024,0.00013,1e-05,-0.00011,0,-1e-05,1e-05,2,22
7169,1e-05,0.00024,0.00013,1e-05,-0.00011,0,-1e-05,1e-05,2,22
7170,0.00019,0.00042,2e-05,-0.00033,-0.00021,-1e-05,-3e-05,5e-05,2,22
7171,0.00033,-9e-05,-0.0002,-0.0003,0,-4e-05,-0.00011,-0.0001,2,22
7172,0.00033,-9e-05,-0.0002,-0.0003,0,-4e-05,-0.00011,-0.0001,2,22
7173,0.00033,-9e-05,-0.0002,-0.0003,0,-4e-05,-0.00011,-0.0001,2,22
7174,0.00033,-9e-05,-0.0002,-0.0003,0,-4e-05,-0.00011,-0.0001,2,22
7175,0.00033,-9e-05,-0.0002,-0.0003,0,-4e-05,-0.00011,-0.0001,2,22
7176,0.00033,-9e-05,-0.0002,-0.0003,0,-4e-05,-0.00011,-0.0001,2,22
7177,0.00033,-9e-05,-0.0002,-0.0003,0,-4e-05,-0.00011,-0.0001,2,22
7178,0.00033,-9e-05,-0.0002,-0.0003,0,-4e-05,-0.00011,-0.0001,2,22
7179,0.00033,-9e-05,-0.0002,-0.0003,0,-4e-05,-0.00011,-0.0001,2,22
7180,0.00033,-9e-05,-0.0002,-0.0003,0,-4e-05,-0.00011,-0.0001,2,22
7181,0.00033,-9e-05,-0.0002,-0.0003,0,-4e-05,-0.00011,-0.0001,2,22
7182,0.00033,-9e-05,-0.0002,-0.0003,0,-4e-05,-0.00011,-0.0001,2,22
7183,0.00033,-9e-05,-0.0002,-0.0003,0,-4e-05,-0.00011,-0.0001,2,22
7184,0.00023,5e-05,2e-05,0.00036,9e-05,-3e-05,-2e-05,-8e-05,2,22
7185,0.00023,5e-05,2e-05,0.00036,9e-05,-3e-05,-2e-05,-8e-05,2,22
7186,0.00023,5e-05,2e-05,0.00036,9e-05,-3e-05,-2e-05,-8e-05,2,22
7188,0.00023,5e-05,2e-05,0.00036,9e-05,-3e-05,-2e-05,-8e-05,2,22
7189,0.00023,5e-05,2e-05,0.00036,9e-05,-3e-05,-2e-05,-8e-05,2,22
7190,0.00023,5e-05,2e-05,0.00036,9e-05,-3e-05,-2e-05,-8e-05,2,22
7191,-0.00026,-0.00061,0.00011,7e-05,3e-05,5e-05,5e-05,8e-05,2,22
7192,-0.00026,-0.00061,0.00011,7e-05,3e-05,5e-05,5e-05,8e-05,2,22
7193,-0.00026,-0.00061,0.00011,7e-05,3e-05,5e-05,5e-05,8e-05,2,22
7194,-0.00026,-0.00061,0.00011,7e-05,3e-05,5e-05,5e-05,8e-05,2,22
7195,-0.00026,-0.00061,0.00011,7e-05,3e-05,5e-05,5e-05,8e-05,2,22
7196,-0.00026,-0.00061,0.00011,7e-05,3e-05,5e-05,5e-05,8e-05,2,22
7197,-0.00026,-0.00061,0.00011,7e-05,3e-05,5e-05,5e-05,8e-05,2,22
7198,-0.00026,-0.00061,0.00011,7e-05,3e-05,5e-05,5e-05,8e-05,2,22
7199,-0.00026,-0.00061,0.00011,7e-05,3e-05,5e-05,5e-05,8e-05,2,22
7200,-0.00026,-0.00061,0.00011,7e-05,3e-05,5e-05,5e-05,8e-05,2,22
7201,-0.00026,-0.00061,0.00011,7e-05,3e-05,5e-05,5e-05,8e-05,2,22
7202,-0.00026,-0.00061,0.00011,7e-05,3e-05,5e-05,5e-05,8e-05,2,22
7203,-0.00026,-0.00061,0.00011,7e-05,3e-05,5e-05,5e-05,8e-05,2,22
7204,-0.00026,-0.00061,0.00011,7e-05,3e-05,5e-05,5e-05,8e-05,2,22
7205,-0.00026,-0.00061,0.00011,7e-05,3e-05,5e-05,5e-05,8e-05,2,22
7206,-0.00026,-0.00061,0.00011,7e-05,3e-05,5e-05,5e-05,8e-05,2,22
7207,-0.00027,-9e-05,-7e-05,-0.0002,-0.00012,-7e-05,-5e-05,-0.00011,2,22
7208,-0.00027,-9e-05,-7e-05,-0.0002,-0.00012,-7e-05,-5e-05,-0.00011,2,22
7209,4e-05,0.0001,-0.00016,-8e-05,0,-6e-05,0,0,2,22
7210,4e-05,0.0001,-0.00016,-8e-05,0,-6e-05,0,0,2,22
7211,4e-05,0.0001,-0.00016,-8e-05,0,-6e-05,0,0,2,22
7212,4e-05,0.0001,-0.00016,-8e-05,0,-6e-05,0,0,2,22
7213,4e-05,0.0001,-0.00016,-8e-05,0,-6e-05,0,0,2,22
7214,4e-05,0.0001,-0.00016,-8e-05,0,-6e-05,0,0,2,22
7215,4e-05,0.0001,-0.00016,-8e-05,0,-6e-05,0,0,2,22
7216,4e-05,0.0001,-0.00016,-8e-05,0,-6e-05,0,0,2,22
7217,4e-05,0.0001,-0.00016,-8e-05,0,-6e-05,0,0,2,22
7218,4e-05,0.0001,-0.00016,-8e-05,0,-6e-05,0,0,2,22
7219,4e-05,0.0001,-0.00016,-8e-05,0,-6e-05,0,0,2,22
7220,4e-05,0.0001,-0.00016,-8e-05,0,-6e-05,0,0,2,22
7221,4e-05,0.0001,-0.00016,-8e-05,0,-6e-05,0,0,2,22
7222,4e-05,0.0001,-0.00016,-8e-05,0,-6e-05,0,0,2,22
7223,4e-05,0.0001,-0.00016,-8e-05,0,-6e-05,0,0,2,22
7224,4e-05,0.0001,-0.00016,-8e-05,0,-6e-05,0,0,2,22
7225,4e-05,0.0001,-0.00016,-8e-05,0,-6e-05,0,0,2,22
7226,4e-05,0.0001,-0.00016,-8e-05,0,-6e-05,0,0,2,22
7227,4e-05,0.0001,-0.00016,-8e-05,0,-6e-05,0,0,2,22
7228,4e-05,0.0001,-0.00016,-8e-05,0,-6e-05,0,0,2,22
7229,4e-05,0.0001,-0.00016,-8e-05,0,-6e-05,0,0,2,22
7230,1e-05,-0.00012,3e-05,-2e-05,-0.00011,1e-05,-6e-05,0.0001,2,22
7231,1e-05,-0.00012,3e-05,-2e-05,-0.00011,1e-05,-6e-05,0.0001,2,22
7232,5e-05,-0.0001,-7e-05,-0.00041,-1e-05,-5e-05,1e-05,2e-05,2,22
7233,5e-05,-0.0001,-7e-05,-0.00041,-1e-05,-5e-05,1e-05,2e-05,2,22
7234,5e-05,-0.0001,-7e-05,-0.00041,-1e-05,-5e-05,1e-05,2e-05,2,22
7235,5e-05,-0.0001,-7e-05,-0.00041,-1e-05,-5e-05,1e-05,2e-05,2,22
7236,5e-05,-0.0001,-7e-05,-0.00041,-1e-05,-5e-05,1e-05,2e-05,2,22
7238,5e-05,-0.0001,-7e-05,-0.00041,-1e-05,-5e-05,1e-05,2e-05,2,22
7239,5e-05,-0.0001,-7e-05,-0.00041,-1e-05,-5e-05,1e-05,2e-05,2,22
7240,5e-05,-0.0001,-7e-05,-0.00041,-1e-05,-5e-05,1e-05,2e-05,2,22
7241,5e-05,-0.0001,-7e-05,-0.00041,-1e-05,-5e-05,1e-05,2e-05,2,22
7242,5e-05,-0.0001,-7e-05,-0.00041,-1e-05,-5e-05,1e-05,2e-05,2,22
7243,5e-05,-0.0001,-7e-05,-0.00041,-1e-05,-5e-05,1e-05,2e-05,2,22
7244,-6e-05,0.00029,-0.00011,-3e-05,-6e-05,-4e-05,0,-8e-05,2,22
7245,-6e-05,0.00029,-0.00011,-3e-05,-6e-05,-4e-05,0,-8e-05,2,22
7246,-6e-05,0.00029,-0.00011,-3e-05,-6e-05,-4e-05,0,-8e-05,2,22
7247,-6e-05,0.00029,-0.00011,-3e-05,-6e-05,-4e-05,0,-8e-05,2,22
7248,-6e-05,0.00029,-0.00011,-3e-05,-6e-05,-4e-05,0,-8e-05,2,22
7249,-6e-05,0.00029,-0.00011,-3e-05,-6e-05,-4e-05,0,-8e-05,2,22
7250,-6e-05,0.00029,-0.00011,-3e-05,-6e-05,-4e-05,0,-8e-05,2,22
7251,-0.00015,-0.00032,-0.00022,-0.00014,-4e-05,-4e-05,-8e-05,-0.00014,2,22
7252,-0.00015,-0.00032,-0.00022,-0.00014,-4e-05,-4e-05,-8e-05,-0.00014,2,22
7253,-0.00015,-0.00032,-0.00022,-0.00014,-4e-05,-4e-05,-8e-05,-0.00014,2,22
7254,-0.00015,-0.00032,-0.00022,-0.00014,-4e-05,-4e-05,-8e-05,-0.00014,2,22
7255,-0.00015,-0.00032,-0.00022,-0.00014,-4e-05,-4e-05,-8e-05,-0.00014,2,22
7256,-0.00015,-0.00032,-0.00022,-0.00014,-4e-05,-4e-05,-8e-05,-0.00014,2,22
7257,-0.00015,-0.00032,-0.00022,-0.00014,-4e-05,-4e-05,-8e-05,-0.00014,2,22
7258,-0.00015,-0.00032,-0.00022,-0.00014,-4e-05,-4e-05,-8e-05,-0.00014,2,22
7259,-0.00015,-0.00032,-0.00022,-0.00014,-4e-05,-4e-05,-8e-05,-0.00014,2,22
7260,-0.00015,-0.00032,-0.00022,-0.00014,-4e-05,-4e-05,-8e-05,-0.00014,2,22
7261,-0.00015,-0.00032,-0.00022,-0.00014,-4e-05,-4e-05,-8e-05,-0.00014,2,22
7262,-0.00015,-0.00032,-0.00022,-0.00014,-4e-05,-4e-05,-8e-05,-0.00014,2,22
7263,-0.00015,-0.00032,-0.00022,-0.00014,-4e-05,-4e-05,-8e-05,-0.00014,2,22
7264,-0.00015,-0.00032,-0.00022,-0.00014,-4e-05,-4e-05,-8e-05,-0.00014,2,22
7265,-0.00015,-0.00032,-0.00022,-0.00014,-4e-05,-4e-05,-8e-05,-0.00014,2,22
7266,-0.00015,-0.00032,-0.00022,-0.00014,-4e-05,-4e-05,-8e-05,-0.00014,2,22
7267,0.00052,-4e-05,9e-05,0.00016,0,1e-05,0,3e-05,2,22
7268,0.00052,-4e-05,9e-05,0.00016,0,1e-05,0,3e-05,2,22
7269,0.0001,0.00041,5e-05,0.00037,-1e-05,-6e-05,4e-05,0,2,22
7270,0.0001,0.00041,5e-05,0.00037,-1e-05,-6e-05,4e-05,0,2,22
7271,0.0001,0.00041,5e-05,0.00037,-1e-05,-6e-05,4e-05,0,2,22
7272,0.0001,0.00041,5e-05,0.00037,-1e-05,-6e-05,4e-05,0,2,22
7273,0.0001,0.00041,5e-05,0.00037,-1e-05,-6e-05,4e-05,0,2,22
7274,0.0001,0.00041,5e-05,0.00037,-1e-05,-6e-05,4e-05,0,2,22
7275,0.0001,0.00041,5e-05,0.00037,-1e-05,-6e-05,4e-05,0,2,22
7276,0.0001,0.00041,5e-05,0.00037,-1e-05,-6e-05,4e-05,0,2,22
7277,0.0001,0.00041,5e-05,0.00037,-1e-05,-6e-05,4e-05,0,2,22
7278,0.0001,0.00041,5e-05,0.00037,-1e-05,-6e-05,4e-05,0,2,22
7279,0.0001,0.00041,5e-05,0.00037,-1e-05,-6e-05,4e-05,0,2,22
7280,0.0001,0.00041,5e-05,0.00037,-1e-05,-6e-05,4e-05,0,2,22
7281,0.0001,0.00041,5e-05,0.00037,-1e-05,-6e-05,4e-05,0,2,22
7282,0.0001,0.00041,5e-05,0.00037,-1e-05,-6e-05,4e-05,0,2,22
7283,0.0001,0.00041,5e-05,0.00037,-1e-05,-6e-05,4e-05,0,2,22
7284,0.0001,0.00041,5e-05,0.00037,-1e-05,-6e-05,4e-05,0,2,22
7285,0.0001,0.00041,5e-05,0.00037,-1e-05,-6e-05,4e-05,0,2,22
7286,0.0001,0.00041,5e-05,0.00037,-1e-05,-6e-05,4e-05,0,2,22
7288,0.0001,0.00041,5e-05,0.00037,-1e-05,-6e-05,4e-05,0,2,22
7289,0.0001,0.00041,5e-05,0.00037,-1e-05,-6e-05,4e-05,0,2,22
7290,-0.00029,-0.00044,-6e-05,0.00023,-0.00011,-6e-05,-8e-05,-5e-05,2,22
7291,-0.0003,-0.00065,-0.0002,-0.00052,4e-05,5e-05,8e-05,2e-05,2,22
7292,-0.0003,-0.00065,-0.0002,-0.00052,4e-05,5e-05,8e-05,2e-05,2,22
7293,-0.0003,-0.00065,-0.0002,-0.00052,4e-05,5e-05,8e-05,2e-05,2,22
7294,-0.0003,-0.00065,-0.0002,-0.00052,4e-05,5e-05,8e-05,2e-05,2,22
7295,-0.0003,-0.00065,-0.0002,-0.00052,4e-05,5e-05,8e-05,2e-05,2,22
7296,-8e-05,0.00031,5e-05,-3e-05,-6e-05,-3e-05,3e-05,2e-05,2,22
7297,-8e-05,0.00031,5e-05,-3e-05,-6e-05,-3e-05,3e-05,2e-05,2,22
7298,-8e-05,0.00031,5e-05,-3e-05,-6e-05,-3e-05,3e-05,2e-05,2,22
7299,-8e-05,0.00031,5e-05,-3e-05,-6e-05,-3e-05,3e-05,2e-05,2,22
7300,-8e-05,0.00031,5e-05,-3e-05,-6e-05,-3e-05,3e-05,2e-05,2,22
7301,-8e-05,0.00031,5e-05,-3e-05,-6e-05,-3e-05,3e-05,2e-05,2,22
7302,-8e-05,0.00031,5e-05,-3e-05,-6e-05,-3e-05,3e-05,2e-05,2,22
7303,-8e-05,0.00031,5e-05,-3e-05,-6e-05,-3e-05,3e-05,2e-05,2,22
7304,-0.0001,-0.00052,-0.0001,0.00011,0.00011,4e-05,-0.00011,-5e-05,2,22
7305,-0.0001,-0.00052,-0.0001,0.00011,0.00011,4e-05,-0.00011,-5e-05,2,22
7306,-0.0001,-0.00052,-0.0001,0.00011,0.00011,4e-05,-0.00011,-5e-05,2,22
7307,-0.0001,-0.00052,-0.0001,0.00011,0.00011,4e-05,-0.00011,-5e-05,2,22
7308,-0.0001,-0.00052,-0.0001,0.00011,0.00011,4e-05,-0.00011,-5e-05,2,22
7309,-0.0001,-0.00052,-0.0001,0.00011,0.00011,4e-05,-0.00011,-5e-05,2,22
7310,-0.0001,-0.00052,-0.0001,0.00011,0.00011,4e-05,-0.00011,-5e-05,2,22
7311,-2e-05,-0.00022,6e-05,0.00021,-3e-05,-2e-05,3e-05,-6e-05,2,22
7312,-2e-05,-0.00022,6e-05,0.00021,-3e-05,-2e-05,3e-05,-6e-05,2,22
7313,-2e-05,-0.00022,6e-05,0.00021,-3e-05,-2e-05,3e-05,-6e-05,2,22
7314,-2e-05,-0.00022,6e-05,0.00021,-3e-05,-2e-05,3e-05,-6e-05,2,22
7315,-2e-05,-0.00022,6e-05,0.00021,-3e-05,-2e-05,3e-05,-6e-05,2,22
7316,-2e-05,-0.00022,6e-05,0.00021,-3e-05,-2e-05,3e-05,-6e-05,2,22
7317,-2e-05,-0.00022,6e-05,0.00021,-3e-05,-2e-05,3e-05,-6e-05,2,22
7318,-2e-05,-0.00022,6e-05,0.00021,-3e-05,-2e-05,3e-05,-6e-05,2,22
7319,-2e-05,-0.00022,6e-05,0.00021,-3e-05,-2e-05,3e-05,-6e-05,2,22
7320,-2e-05,-0.00022,6e-05,0.00021,-3e-05,-2e-05,3e-05,-6e-05,2,22
7321,-2e-05,-0.00022,6e-05,0.00021,-3e-05,-2e-05,3e-05,-6e-05,2,22
7322,-2e-05,-0.00022,6e-05,0.00021,-3e-05,-2e-05,3e-05,-6e-05,2,22
7323,-2e-05,-0.00022,6e-05,0.00021,-3e-05,-2e-05,3e-05,-6e-05,2,22
7324,-2e-05,-0.00022,6e-05,0.00021,-3e-05,-2e-05,3e-05,-6e-05,2,22
7325,-2e-05,-0.00022,6e-05,0.00021,-3e-05,-2e-05,3e-05,-6e-05,2,22
7326,-2e-05,-0.00022,6e-05,0.00021,-3e-05,-2e-05,3e-05,-6e-05,2,22
7327,0.00017,-0.00023,-2e-05,0.00024,-8e-05,-1e-05,2e-05,8e-05,2,22
7328,0.00017,-0.00023,-2e-05,0.00024,-8e-05,-1e-05,2e-05,8e-05,2,22
7329,9e-05,0.00015,0.00011,-2e-05,-5e-05,4e-05,-4e-05,-1e-05,2,22
7330,9e-05,0.00015,0.00011,-2e-05,-5e-05,4e-05,-4e-05,-1e-05,2,22
7331,9e-05,0.00015,0.00011,-2e-05,-5e-05,4e-05,-4e-05,-1e-05,2,22
7332,9e-05,0.00015,0.00011,-2e-05,-5e-05,4e-05,-4e-05,-1e-05,2,22
7333,9e-05,0.00015,0.00011,-2e-05,-5e-05,4e-05,-4e-05,-1e-05,2,22
7334,9e-05,0.00015,0.00011,-2e-05,-5e-05,4e-05,-4e-05,-1e-05,2,22
7335,9e-05,0.00015,0.00011,-2e-05,-5e-05,4e-05,-4e-05,-1e-05,2,22
7337,9e-05,0.00015,0.00011,-2e-05,-5e-05,4e-05,-4e-05,-1e-05,2,22
7339,9e-05,0.00015,0.00011,-2e-05,-5e-05,4e-05,-4e-05,-1e-05,2,22
7340,9e-05,0.00015,0.00011,-2e-05,-5e-05,4e-05,-4e-05,-1e-05,2,22
7341,9e-05,0.00015,0.00011,-2e-05,-5e-05,4e-05,-4e-05,-1e-05,2,22
7342,9e-05,0.00015,0.00011,-2e-05,-5e-05,4e-05,-4e-05,-1e-05,2,22
7343,9e-05,0.00015,0.00011,-2e-05,-5e-05,4e-05,-4e-05,-1e-05,2,22
7344,9e-05,0.00015,0.00011,-2e-05,-5e-05,4e-05,-4e-05,-1e-05,2,22
7345,9e-05,0.00015,0.00011,-2e-05,-5e-05,4e-05,-4e-05,-1e-05,2,22
7346,9e-05,0.00015,0.00011,-2e-05,-5e-05,4e-05,-4e-05,-1e-05,2,22
7347,9e-05,0.00015,0.00011,-2e-05,-5e-05,4e-05,-4e-05,-1e-05,2,22
7348,9e-05,0.00015,0.00011,-2e-05,-5e-05,4e-05,-4e-05,-1e-05,2,22
7349,9e-05,0.00015,0.00011,-2e-05,-5e-05,4e-05,-4e-05,-1e-05,2,22
7350,0.0001,0.00022,9e-05,-0.00011,7e-05,1e-05,1e-05,3e-05,2,22
7351,0.0001,-3e-05,0,-0.00014,1e-05,2e-05,1e-05,0.00013,2,22
7352,0.0001,-3e-05,0,-0.00014,1e-05,2e-05,1e-05,0.00013,2,22
7353,0.0001,-3e-05,0,-0.00014,1e-05,2e-05,1e-05,0.00013,2,22
7354,0.0001,-3e-05,0,-0.00014,1e-05,2e-05,1e-05,0.00013,2,22
7355,0.0001,-3e-05,0,-0.00014,1e-05,2e-05,1e-05,0.00013,2,22
7356,0.0001,-3e-05,0,-0.00014,1e-05,2e-05,1e-05,0.00013,2,22
7357,0.0001,-3e-05,0,-0.00014,1e-05,2e-05,1e-05,0.00013,2,22
7358,0.0001,-3e-05,0,-0.00014,1e-05,2e-05,1e-05,0.00013,2,22
7359,0.0001,-3e-05,0,-0.00014,1e-05,2e-05,1e-05,0.00013,2,22
7360,0.0001,-3e-05,0,-0.00014,1e-05,2e-05,1e-05,0.00013,2,22
7361,0.0001,-3e-05,0,-0.00014,1e-05,2e-05,1e-05,0.00013,2,22
7362,0.0001,-3e-05,0,-0.00014,1e-05,2e-05,1e-05,0.00013,2,22
7363,0.0001,-3e-05,0,-0.00014,1e-05,2e-05,1e-05,0.00013,2,22
7364,5e-05,0.00052,0.00013,0.00015,7e-05,-2e-05,4e-05,3e-05,2,22
7365,5e-05,0.00052,0.00013,0.00015,7e-05,-2e-05,4e-05,3e-05,2,22
7366,5e-05,0.00052,0.00013,0.00015,7e-05,-2e-05,4e-05,3e-05,2,22
7367,5e-05,0.00052,0.00013,0.00015,7e-05,-2e-05,4e-05,3e-05,2,22
7368,5e-05,0.00052,0.00013,0.00015,7e-05,-2e-05,4e-05,3e-05,2,22
7369,5e-05,0.00052,0.00013,0.00015,7e-05,-2e-05,4e-05,3e-05,2,22
7370,5e-05,0.00052,0.00013,0.00015,7e-05,-2e-05,4e-05,3e-05,2,22
7371,-0.0002,-9e-05,-5e-05,3e-05,9e-05,-1e-05,-0.00013,-0.00014,2,22
7372,-0.0002,-9e-05,-5e-05,3e-05,9e-05,-1e-05,-0.00013,-0.00014,2,22
7373,-0.0002,-9e-05,-5e-05,3e-05,9e-05,-1e-05,-0.00013,-0.00014,2,22
7374,-0.0002,-9e-05,-5e-05,3e-05,9e-05,-1e-05,-0.00013,-0.00014,2,22
7375,-0.0002,-9e-05,-5e-05,3e-05,9e-05,-1e-05,-0.00013,-0.00014,2,22
7376,-0.0002,-9e-05,-5e-05,3e-05,9e-05,-1e-05,-0.00013,-0.00014,2,22
7377,-0.0002,-9e-05,-5e-05,3e-05,9e-05,-1e-05,-0.00013,-0.00014,2,22
7378,-0.0002,-9e-05,-5e-05,3e-05,9e-05,-1e-05,-0.00013,-0.00014,2,22
7379,-0.0002,-9e-05,-5e-05,3e-05,9e-05,-1e-05,-0.00013,-0.00014,2,22
7380,-0.0002,-9e-05,-5e-05,3e-05,9e-05,-1e-05,-0.00013,-0.00014,2,22
7381,-0.0002,-9e-05,-5e-05,3e-05,9e-05,-1e-05,-0.00013,-0.00014,2,22
7382,-0.0002,-9e-05,-5e-05,3e-05,9e-05,-1e-05,-0.00013,-0.00014,2,22
7383,-0.0002,-9e-05,-5e-05,3e-05,9e-05,-1e-05,-0.00013,-0.00014,2,22
7384,-0.0002,-9e-05,-5e-05,3e-05,9e-05,-1e-05,-0.00013,-0.00014,2,22
7385,-0.0002,-9e-05,-5e-05,3e-05,9e-05,-1e-05,-0.00013,-0.00014,2,22
7386,-0.0002,-9e-05,-5e-05,3e-05,9e-05,-1e-05,-0.00013,-0.00014,2,22
7389,-0.00041,-0.00032,-0.00013,2e-05,-8e-05,-6e-05,-5e-05,-8e-05,2,22
7390,-0.00041,-0.00032,-0.00013,2e-05,-8e-05,-6e-05,-5e-05,-8e-05,2,22
7391,-0.00041,-0.00032,-0.00013,2e-05,-8e-05,-6e-05,-5e-05,-8e-05,2,22
7392,-0.00041,-0.00032,-0.00013,2e-05,-8e-05,-6e-05,-5e-05,-8e-05,2,22
7393,-0.00041,-0.00032,-0.00013,2e-05,-8e-05,-6e-05,-5e-05,-8e-05,2,22
7394,-0.00041,-0.00032,-0.00013,2e-05,-8e-05,-6e-05,-5e-05,-8e-05,2,22
7395,-0.00041,-0.00032,-0.00013,2e-05,-8e-05,-6e-05,-5e-05,-8e-05,2,22
7396,-0.00041,-0.00032,-0.00013,2e-05,-8e-05,-6e-05,-5e-05,-8e-05,2,22
7397,-0.00041,-0.00032,-0.00013,2e-05,-8e-05,-6e-05,-5e-05,-8e-05,2,22
7398,-0.00041,-0.00032,-0.00013,2e-05,-8e-05,-6e-05,-5e-05,-8e-05,2,22
7399,-0.00041,-0.00032,-0.00013,2e-05,-8e-05,-6e-05,-5e-05,-8e-05,2,22
7400,-0.00041,-0.00032,-0.00013,2e-05,-8e-05,-6e-05,-5e-05,-8e-05,2,22
7401,-0.00041,-0.00032,-0.00013,2e-05,-8e-05,-6e-05,-5e-05,-8e-05,2,22
7402,-0.00041,-0.00032,-0.00013,2e-05,-8e-05,-6e-05,-5e-05,-8e-05,2,22
7403,-0.00041,-0.00032,-0.00013,2e-05,-8e-05,-6e-05,-5e-05,-8e-05,2,22
7404,-0.00041,-0.00032,-0.00013,2e-05,-8e-05,-6e-05,-5e-05,-8e-05,2,22
7405,-0.00041,-0.00032,-0.00013,2e-05,-8e-05,-6e-05,-5e-05,-8e-05,2,22
7406,-0.00041,-0.00032,-0.00013,2e-05,-8e-05,-6e-05,-5e-05,-8e-05,2,22
7407,-0.00041,-0.00032,-0.00013,2e-05,-8e-05,-6e-05,-5e-05,-8e-05,2,22
7408,-0.00041,-0.00032,-0.00013,2e-05,-8e-05,-6e-05,-5e-05,-8e-05,2,22
7409,-0.00041,-0.00032,-0.00013,2e-05,-8e-05,-6e-05,-5e-05,-8e-05,2,22
7410,0.00014,6e-05,4e-05,-0.00023,0.00012,5e-05,4e-05,-3e-05,2,22
7411,-0.00013,0.00019,7e-05,0.00018,7e-05,0,-4e-05,1e-05,2,22
7412,-0.00013,0.00019,7e-05,0.00018,7e-05,0,-4e-05,1e-05,2,22
7413,-0.00013,0.00019,7e-05,0.00018,7e-05,0,-4e-05,1e-05,2,22
7414,-0.00013,0.00019,7e-05,0.00018,7e-05,0,-4e-05,1e-05,2,22
7415,-0.00013,0.00019,7e-05,0.00018,7e-05,0,-4e-05,1e-05,2,22
7416,-0.00013,0.00019,7e-05,0.00018,7e-05,0,-4e-05,1e-05,2,22
7417,-0.00013,0.00019,7e-05,0.00018,7e-05,0,-4e-05,1e-05,2,22
7418,-0.00013,0.00019,7e-05,0.00018,7e-05,0,-4e-05,1e-05,2,22
7419,-0.00013,0.00019,7e-05,0.00018,7e-05,0,-4e-05,1e-05,2,22
7420,-0.00013,0.00019,7e-05,0.00018,7e-05,0,-4e-05,1e-05,2,22
7421,-0.00013,0.00019,7e-05,0.00018,7e-05,0,-4e-05,1e-05,2,22
7422,-0.00013,0.00019,7e-05,0.00018,7e-05,0,-4e-05,1e-05,2,22
7423,-0.00013,0.00019,7e-05,0.00018,7e-05,0,-4e-05,1e-05,2,22
7424,0.00027,0.00011,3e-05,6e-05,3e-05,0,8e-05,0.00014,2,22
7425,0.00027,0.00011,3e-05,6e-05,3e-05,0,8e-05,0.00014,2,22
7426,0.00027,0.00011,3e-05,6e-05,3e-05,0,8e-05,0.00014,2,22
7427,0.00027,0.00011,3e-05,6e-05,3e-05,0,8e-05,0.00014,2,22
7428,0.00027,0.00011,3e-05,6e-05,3e-05,0,8e-05,0.00014,2,22
7429,0.00027,0.00011,3e-05,6e-05,3e-05,0,8e-05,0.00014,2,22
7430,0.00027,0.00011,3e-05,6e-05,3e-05,0,8e-05,0.00014,2,22
7431,0.00031,2e-05,3e-05,-3e-05,-5e-05,1e-05,3e-05,-1e-05,2,22
7432,0.00031,2e-05,3e-05,-3e-05,-5e-05,1e-05,3e-05,-1e-05,2,22
7433,0.00031,2e-05,3e-05,-3e-05,-5e-05,1e-05,3e-05,-1e-05,2,22
7434,0.00031,2e-05,3e-05,-3e-05,-5e-05,1e-05,3e-05,-1e-05,2,22
7435,0.00031,2e-05,3e-05,-3e-05,-5e-05,1e-05,3e-05,-1e-05,2,22
7436,0.00031,2e-05,3e-05,-3e-05,-5e-05,1e-05,3e-05,-1e-05,2,22
7438,0.00031,2e-05,3e-05,-3e-05,-5e-05,1e-05,3e-05,-1e-05,2,22
7439,0.00031,2e-05,3e-05,-3e-05,-5e-05,1e-05,3e-05,-1e-05,2,22
7440,0.00031,2e-05,3e-05,-3e-05,-5e-05,1e-05,3e-05,-1e-05,2,22
7441,0.00031,2e-05,3e-05,-3e-05,-5e-05,1e-05,3e-05,-1e-05,2,22
7442,0.00031,2e-05,3e-05,-3e-05,-5e-05,1e-05,3e-05,-1e-05,2,22
7443,0.00031,2e-05,3e-05,-3e-05,-5e-05,1e-05,3e-05,-1e-05,2,22
7444,0.00031,2e-05,3e-05,-3e-05,-5e-05,1e-05,3e-05,-1e-05,2,22
7445,0.00031,2e-05,3e-05,-3e-05,-5e-05,1e-05,3e-05,-1e-05,2,22
7446,0.00031,2e-05,3e-05,-3e-05,-5e-05,1e-05,3e-05,-1e-05,2,22
7447,0.00031,2e-05,3e-05,-3e-05,-5e-05,1e-05,3e-05,-1e-05,2,22
7448,0.00031,2e-05,3e-05,-3e-05,-5e-05,1e-05,3e-05,-1e-05,2,22
7449,0.00031,2e-05,3e-05,-3e-05,-5e-05,1e-05,3e-05,-1e-05,2,22
7450,0.00031,2e-05,3e-05,-3e-05,-5e-05,1e-05,3e-05,-1e-05,2,22
7451,0.00031,2e-05,3e-05,-3e-05,-5e-05,1e-05,3e-05,-1e-05,2,22
7452,0.00031,2e-05,3e-05,-3e-05,-5e-05,1e-05,3e-05,-1e-05,2,22
7453,0.00031,2e-05,3e-05,-3e-05,-5e-05,1e-05,3e-05,-1e-05,2,22
7454,0.00031,2e-05,3e-05,-3e-05,-5e-05,1e-05,3e-05,-1e-05,2,22
7455,0.00018,-4e-05,-0.00019,-0.00022,-6e-05,-5e-05,-0.00011,-0.00014,2,22
7456,0.00037,0.00024,2e-05,-6e-05,-0.00016,-7e-05,-6e-05,1e-05,2,22
7457,0.00037,0.00024,2e-05,-6e-05,-0.00016,-7e-05,-6e-05,1e-05,2,22
7458,0.00037,0.00024,2e-05,-6e-05,-0.00016,-7e-05,-6e-05,1e-05,2,22
7459,0.00037,0.00024,2e-05,-6e-05,-0.00016,-7e-05,-6e-05,1e-05,2,22
7460,0.00037,0.00024,2e-05,-6e-05,-0.00016,-7e-05,-6e-05,1e-05,2,22
7461,0.00037,0.00024,2e-05,-6e-05,-0.00016,-7e-05,-6e-05,1e-05,2,22
7462,0.00037,0.00024,2e-05,-6e-05,-0.00016,-7e-05,-6e-05,1e-05,2,22
7463,0.00037,0.00024,2e-05,-6e-05,-0.00016,-7e-05,-6e-05,1e-05,2,22
7464,0.00037,0.00024,2e-05,-6e-05,-0.00016,-7e-05,-6e-05,1e-05,2,22
7465,0.00037,0.00024,2e-05,-6e-05,-0.00016,-7e-05,-6e-05,1e-05,2,22
7466,0.00037,0.00024,2e-05,-6e-05,-0.00016,-7e-05,-6e-05,1e-05,2,22
7467,0.00037,0.00024,2e-05,-6e-05,-0.00016,-7e-05,-6e-05,1e-05,2,22
7468,0.00037,0.00024,2e-05,-6e-05,-0.00016,-7e-05,-6e-05,1e-05,2,22
7469,0.00037,0.00024,2e-05,-6e-05,-0.00016,-7e-05,-6e-05,1e-05,2,22
7470,0.00031,0.0001,0.0002,-1e-05,-8e-05,-1e-05,-7e-05,0.00012,2,22
7471,-0.0003,-0.00043,-8e-05,-0.00046,-4e-05,-3e-05,0,-8e-05,2,22
7472,-0.0003,-0.00043,-8e-05,-0.00046,-4e-05,-3e-05,0,-8e-05,2,22
7473,-0.0003,-0.00043,-8e-05,-0.00046,-4e-05,-3e-05,0,-8e-05,2,22
7474,-0.0003,-0.00043,-8e-05,-0.00046,-4e-05,-3e-05,0,-8e-05,2,22
7475,-0.0003,-0.00043,-8e-05,-0.00046,-4e-05,-3e-05,0,-8e-05,2,22
7476,-0.0003,-0.00043,-8e-05,-0.00046,-4e-05,-3e-05,0,-8e-05,2,22
7477,-0.0003,-0.00043,-8e-05,-0.00046,-4e-05,-3e-05,0,-8e-05,2,22
7478,-0.0003,-0.00043,-8e-05,-0.00046,-4e-05,-3e-05,0,-8e-05,2,22
7479,-0.0003,-0.00043,-8e-05,-0.00046,-4e-05,-3e-05,0,-8e-05,2,22
7480,-0.0003,-0.00043,-8e-05,-0.00046,-4e-05,-3e-05,0,-8e-05,2,22
7481,-0.0003,-0.00043,-8e-05,-0.00046,-4e-05,-3e-05,0,-8e-05,2,22
7482,-0.0003,-0.00043,-8e-05,-0.00046,-4e-05,-3e-05,0,-8e-05,2,22
7483,-0.00063,0.00025,0.00015,0.00019,-5e-05,-7e-05,-2e-05,-0.00012,2,22
7484,-0.00063,0.00025,0.00015,0.00019,-5e-05,-7e-05,-2e-05,-0.00012,2,22
7485,-0.00063,0.00025,0.00015,0.00019,-5e-05,-7e-05,-2e-05,-0.00012,2,22
7486,-0.00063,0.00025,0.00015,0.00019,-5e-05,-7e-05,-2e-05,-0.00012,2,22
7488,-0.00063,0.00025,0.00015,0.00019,-5e-05,-7e-05,-2e-05,-0.00012,2,22
7489,-0.00063,0.00025,0.00015,0.00019,-5e-05,-7e-05,-2e-05,-0.00012,2,22
7490,-0.00063,0.00025,0.00015,0.00019,-5e-05,-7e-05,-2e-05,-0.00012,2,22
7491,-0.00063,0.00025,0.00015,0.00019,-5e-05,-7e-05,-2e-05,-0.00012,2,22
7492,0.0002,0.00021,0.0001,0.00011,-0.0002,-0.0001,-0.00023,-7e-05,2,22
7493,0.0002,0.00021,0.0001,0.00011,-0.0002,-0.0001,-0.00023,-7e-05,2,22
7494,0.0002,0.00021,0.0001,0.00011,-0.0002,-0.0001,-0.00023,-7e-05,2,22
7495,0.0002,0.00021,0.0001,0.00011,-0.0002,-0.0001,-0.00023,-7e-05,2,22
7496,0.0002,0.00021,0.0001,0.00011,-0.0002,-0.0001,-0.00023,-7e-05,2,22
7497,0.0002,0.00021,0.0001,0.00011,-0.0002,-0.0001,-0.00023,-7e-05,2,22
7498,0.0002,0.00021,0.0001,0.00011,-0.0002,-0.0001,-0.00023,-7e-05,2,22
7499,0.0002,0.00021,0.0001,0.00011,-0.0002,-0.0001,-0.00023,-7e-05,2,22
7500,0.0002,0.00021,0.0001,0.00011,-0.0002,-0.0001,-0.00023,-7e-05,2,22
7501,0.0002,0.00021,0.0001,0.00011,-0.0002,-0.0001,-0.00023,-7e-05,2,22
7502,0.0002,0.00021,0.0001,0.00011,-0.0002,-0.0001,-0.00023,-7e-05,2,22
7503,0.0002,0.00021,0.0001,0.00011,-0.0002,-0.0001,-0.00023,-7e-05,2,22
7504,0.0002,0.00021,0.0001,0.00011,-0.0002,-0.0001,-0.00023,-7e-05,2,22
7505,0.0002,0.00021,0.0001,0.00011,-0.0002,-0.0001,-0.00023,-7e-05,2,22
7506,0.0002,0.00021,0.0001,0.00011,-0.0002,-0.0001,-0.00023,-7e-05,2,22
7507,0.0002,0.00021,0.0001,0.00011,-0.0002,-0.0001,-0.00023,-7e-05,2,22
7508,0.0002,0.00021,0.0001,0.00011,-0.0002,-0.0001,-0.00023,-7e-05,2,22
7509,0.0002,0.00021,0.0001,0.00011,-0.0002,-0.0001,-0.00023,-7e-05,2,22
7510,0.0002,0.00021,0.0001,0.00011,-0.0002,-0.0001,-0.00023,-7e-05,2,22
7511,0.0002,0.00021,0.0001,0.00011,-0.0002,-0.0001,-0.00023,-7e-05,2,22
7512,0.0002,0.00021,0.0001,0.00011,-0.0002,-0.0001,-0.00023,-7e-05,2,22
7513,0.0002,0.00021,0.0001,0.00011,-0.0002,-0.0001,-0.00023,-7e-05,2,22
7514,0.0002,0.00021,0.0001,0.00011,-0.0002,-0.0001,-0.00023,-7e-05,2,22
7515,-0.0005,-0.00035,-2e-05,0.00015,2e-05,-2e-05,0,-0.0001,2,22
7516,-0.0005,-0.00035,-2e-05,0.00015,2e-05,-2e-05,0,-0.0001,2,22
7517,0.00037,7e-05,-9e-05,0.00016,-6e-05,2e-05,0.0001,0.00017,2,22
7518,0.00037,7e-05,-9e-05,0.00016,-6e-05,2e-05,0.0001,0.00017,2,22
7519,0.00037,7e-05,-9e-05,0.00016,-6e-05,2e-05,0.0001,0.00017,2,22
7520,0.00037,7e-05,-9e-05,0.00016,-6e-05,2e-05,0.0001,0.00017,2,22
7521,0.00037,7e-05,-9e-05,0.00016,-6e-05,2e-05,0.0001,0.00017,2,22
7522,0.00037,7e-05,-9e-05,0.00016,-6e-05,2e-05,0.0001,0.00017,2,22
7523,0.00037,7e-05,-9e-05,0.00016,-6e-05,2e-05,0.0001,0.00017,2,22
7524,0.00037,7e-05,-9e-05,0.00016,-6e-05,2e-05,0.0001,0.00017,2,22
7525,0.00037,7e-05,-9e-05,0.00016,-6e-05,2e-05,0.0001,0.00017,2,22
7526,0.00037,7e-05,-9e-05,0.00016,-6e-05,2e-05,0.0001,0.00017,2,22
7527,0.00037,7e-05,-9e-05,0.00016,-6e-05,2e-05,0.0001,0.00017,2,22
7528,0.00037,7e-05,-9e-05,0.00016,-6e-05,2e-05,0.0001,0.00017,2,22
7529,0.00037,7e-05,-9e-05,0.00016,-6e-05,2e-05,0.0001,0.00017,2,22
7530,0.0002,-0.00025,-6e-05,0.0003,-4e-05,-2e-05,-2e-05,3e-05,2,22
7531,0.00055,0.00023,8e-05,4e-05,0.0001,5e-05,5e-05,0.00012,2,22
7532,0.00055,0.00023,8e-05,4e-05,0.0001,5e-05,5e-05,0.00012,2,22
7533,0.00055,0.00023,8e-05,4e-05,0.0001,5e-05,5e-05,0.00012,2,22
7534,0.00055,0.00023,8e-05,4e-05,0.0001,5e-05,5e-05,0.00012,2,22
7535,0.00055,0.00023,8e-05,4e-05,0.0001,5e-05,5e-05,0.00012,2,22
7536,0.00055,0.00023,8e-05,4e-05,0.0001,5e-05,5e-05,0.00012,2,22
7538,0.00055,0.00023,8e-05,4e-05,0.0001,5e-05,5e-05,0.00012,2,22
7539,0.00055,0.00023,8e-05,4e-05,0.0001,5e-05,5e-05,0.00012,2,22
7540,0.00055,0.00023,8e-05,4e-05,0.0001,5e-05,5e-05,0.00012,2,22
7541,0.00055,0.00023,8e-05,4e-05,0.0001,5e-05,5e-05,0.00012,2,22
7542,0.00055,0.00023,8e-05,4e-05,0.0001,5e-05,5e-05,0.00012,2,22
7543,0.00021,-0.00018,-0.00011,-8e-05,1e-05,2e-05,6e-05,0.00013,2,22
7544,0.00021,-0.00018,-0.00011,-8e-05,1e-05,2e-05,6e-05,0.00013,2,22
7545,0.00021,-0.00018,-0.00011,-8e-05,1e-05,2e-05,6e-05,0.00013,2,22
7546,0.00021,-0.00018,-0.00011,-8e-05,1e-05,2e-05,6e-05,0.00013,2,22
7547,0.00021,-0.00018,-0.00011,-8e-05,1e-05,2e-05,6e-05,0.00013,2,22
7548,0.00021,-0.00018,-0.00011,-8e-05,1e-05,2e-05,6e-05,0.00013,2,22
7549,0.00021,-0.00018,-0.00011,-8e-05,1e-05,2e-05,6e-05,0.00013,2,22
7550,0.00021,-0.00018,-0.00011,-8e-05,1e-05,2e-05,6e-05,0.00013,2,22
7551,0.00021,-0.00018,-0.00011,-8e-05,1e-05,2e-05,6e-05,0.00013,2,22
7552,0.00016,0.00026,-0.00012,-2e-05,0.0001,1e-05,0.00012,9e-05,2,22
7553,0.00016,0.00026,-0.00012,-2e-05,0.0001,1e-05,0.00012,9e-05,2,22
7554,0.00016,0.00026,-0.00012,-2e-05,0.0001,1e-05,0.00012,9e-05,2,22
7555,0.00016,0.00026,-0.00012,-2e-05,0.0001,1e-05,0.00012,9e-05,2,22
7556,0.00016,0.00026,-0.00012,-2e-05,0.0001,1e-05,0.00012,9e-05,2,22
7557,0.00016,0.00026,-0.00012,-2e-05,0.0001,1e-05,0.00012,9e-05,2,22
7558,0.00016,0.00026,-0.00012,-2e-05,0.0001,1e-05,0.00012,9e-05,2,22
7559,0.00016,0.00026,-0.00012,-2e-05,0.0001,1e-05,0.00012,9e-05,2,22
7560,0.00016,0.00026,-0.00012,-2e-05,0.0001,1e-05,0.00012,9e-05,2,22
7561,0.00016,0.00026,-0.00012,-2e-05,0.0001,1e-05,0.00012,9e-05,2,22
7562,0.00016,0.00026,-0.00012,-2e-05,0.0001,1e-05,0.00012,9e-05,2,22
7563,0.00016,0.00026,-0.00012,-2e-05,0.0001,1e-05,0.00012,9e-05,2,22
7564,0.00016,0.00026,-0.00012,-2e-05,0.0001,1e-05,0.00012,9e-05,2,22
7565,0.00016,0.00026,-0.00012,-2e-05,0.0001,1e-05,0.00012,9e-05,2,22
7566,0.00016,0.00026,-0.00012,-2e-05,0.0001,1e-05,0.00012,9e-05,2,22
7567,0.00016,0.00026,-0.00012,-2e-05,0.0001,1e-05,0.00012,9e-05,2,22
7568,-0.00029,5e-05,-8e-05,-0.00033,-1e-05,3e-05,-8e-05,-0.00019,2,22
7569,-0.00029,5e-05,-8e-05,-0.00033,-1e-05,3e-05,-8e-05,-0.00019,2,22
7570,-0.00029,5e-05,-8e-05,-0.00033,-1e-05,3e-05,-8e-05,-0.00019,2,22
7571,-0.00029,5e-05,-8e-05,-0.00033,-1e-05,3e-05,-8e-05,-0.00019,2,22
7572,-0.00029,5e-05,-8e-05,-0.00033,-1e-05,3e-05,-8e-05,-0.00019,2,22
7573,-0.00052,-0.00063,-0.00037,-6e-05,-7e-05,-5e-05,2e-05,0,2,22
7574,-0.00052,-0.00063,-0.00037,-6e-05,-7e-05,-5e-05,2e-05,0,2,22
7575,-0.00052,-0.00063,-0.00037,-6e-05,-7e-05,-5e-05,2e-05,0,2,22
7576,-0.00052,-0.00063,-0.00037,-6e-05,-7e-05,-5e-05,2e-05,0,2,22
7577,-0.00052,-0.00063,-0.00037,-6e-05,-7e-05,-5e-05,2e-05,0,2,22
7578,-0.00052,-0.00063,-0.00037,-6e-05,-7e-05,-5e-05,2e-05,0,2,22
7579,-0.00052,-0.00063,-0.00037,-6e-05,-7e-05,-5e-05,2e-05,0,2,22
7580,-0.00052,-0.00063,-0.00037,-6e-05,-7e-05,-5e-05,2e-05,0,2,22
7581,-0.00052,-0.00063,-0.00037,-6e-05,-7e-05,-5e-05,2e-05,0,2,22
7582,-0.00052,-0.00063,-0.00037,-6e-05,-7e-05,-5e-05,2e-05,0,2,22
7583,-0.00052,-0.00063,-0.00037,-6e-05,-7e-05,-5e-05,2e-05,0,2,22
7584,-0.00052,-0.00063,-0.00037,-6e-05,-7e-05,-5e-05,2e-05,0,2,22
7585,-0.00052,-0.00063,-0.00037,-6e-05,-7e-05,-5e-05,2e-05,0,2,22
7586,-0.00052,-0.00063,-0.00037,-6e-05,-7e-05,-5e-05,2e-05,0,2,22
7588,-0.00052,-0.00063,-0.00037,-6e-05,-7e-05,-5e-05,2e-05,0,2,22
7589,-0.00052,-0.00063,-0.00037,-6e-05,-7e-05,-5e-05,2e-05,0,2,22
7590,-0.00036,-3e-05,-3e-05,-0.00027,9e-05,0,1e-05,-1e-05,2,22
7591,-0.00015,1e-05,-2e-05,-8e-05,0.00013,1e-05,-7e-05,-0.00011,2,22
7592,-0.00015,1e-05,-2e-05,-8e-05,0.00013,1e-05,-7e-05,-0.00011,2,22
7593,-0.00015,1e-05,-2e-05,-8e-05,0.00013,1e-05,-7e-05,-0.00011,2,22
7594,-0.00015,1e-05,-2e-05,-8e-05,0.00013,1e-05,-7e-05,-0.00011,2,22
7595,-0.00015,1e-05,-2e-05,-8e-05,0.00013,1e-05,-7e-05,-0.00011,2,22
7596,-0.00015,1e-05,-2e-05,-8e-05,0.00013,1e-05,-7e-05,-0.00011,2,22
7597,-0.00015,1e-05,-2e-05,-8e-05,0.00013,1e-05,-7e-05,-0.00011,2,22
7598,-0.00015,1e-05,-2e-05,-8e-05,0.00013,1e-05,-7e-05,-0.00011,2,22
7599,-0.00015,1e-05,-2e-05,-8e-05,0.00013,1e-05,-7e-05,-0.00011,2,22
7600,-0.00015,1e-05,-2e-05,-8e-05,0.00013,1e-05,-7e-05,-0.00011,2,22
7601,-0.00015,1e-05,-2e-05,-8e-05,0.00013,1e-05,-7e-05,-0.00011,2,22
7602,-0.00015,1e-05,-2e-05,-8e-05,0.00013,1e-05,-7e-05,-0.00011,2,22
7603,0.00026,7e-05,6e-05,2e-05,-0.00013,-5e-05,-2e-05,2e-05,2,22
7604,0.00026,7e-05,6e-05,2e-05,-0.00013,-5e-05,-2e-05,2e-05,2,22
7605,0.00026,7e-05,6e-05,2e-05,-0.00013,-5e-05,-2e-05,2e-05,2,22
7606,0.00026,7e-05,6e-05,2e-05,-0.00013,-5e-05,-2e-05,2e-05,2,22
7607,0.00026,7e-05,6e-05,2e-05,-0.00013,-5e-05,-2e-05,2e-05,2,22
7608,0.00026,7e-05,6e-05,2e-05,-0.00013,-5e-05,-2e-05,2e-05,2,22
7609,0.00026,7e-05,6e-05,2e-05,-0.00013,-5e-05,-2e-05,2e-05,2,22
7610,0.00026,7e-05,6e-05,2e-05,-0.00013,-5e-05,-2e-05,2e-05,2,22
7611,0.00026,7e-05,6e-05,2e-05,-0.00013,-5e-05,-2e-05,2e-05,2,22
7612,8e-05,7e-05,-4e-05,-7e-05,0,1e-05,-2e-05,-1e-05,2,22
7613,6e-05,0.00029,0.00014,3e-05,-0.00017,0,5e-05,4e-05,2,22
7614,6e-05,0.00029,0.00014,3e-05,-0.00017,0,5e-05,4e-05,2,22
7615,6e-05,0.00029,0.00014,3e-05,-0.00017,0,5e-05,4e-05,2,22
7616,6e-05,0.00029,0.00014,3e-05,-0.00017,0,5e-05,4e-05,2,22
7617,6e-05,0.00029,0.00014,3e-05,-0.00017,0,5e-05,4e-05,2,22
7618,6e-05,0.00029,0.00014,3e-05,-0.00017,0,5e-05,4e-05,2,22
7619,6e-05,0.00029,0.00014,3e-05,-0.00017,0,5e-05,4e-05,2,22
7620,6e-05,0.00029,0.00014,3e-05,-0.00017,0,5e-05,4e-05,2,22
7621,6e-05,0.00029,0.00014,3e-05,-0.00017,0,5e-05,4e-05,2,22
7622,6e-05,0.00029,0.00014,3e-05,-0.00017,0,5e-05,4e-05,2,22
7623,6e-05,0.00029,0.00014,3e-05,-0.00017,0,5e-05,4e-05,2,22
7624,6e-05,0.00029,0.00014,3e-05,-0.00017,0,5e-05,4e-05,2,22
7625,6e-05,0.00029,0.00014,3e-05,-0.00017,0,5e-05,4e-05,2,22
7626,6e-05,0.00029,0.00014,3e-05,-0.00017,0,5e-05,4e-05,2,22
7627,-0.00016,-5e-05,-0.00013,-0.00027,-4e-05,0,8e-05,-0.0001,2,22
7628,-0.00016,-5e-05,-0.00013,-0.00027,-4e-05,0,8e-05,-0.0001,2,22
7629,3e-05,7e-05,-4e-05,-9e-05,-3e-05,-1e-05,-0.00015,-0.00014,2,22
7630,3e-05,7e-05,-4e-05,-9e-05,-3e-05,-1e-05,-0.00015,-0.00014,2,22
7631,3e-05,7e-05,-4e-05,-9e-05,-3e-05,-1e-05,-0.00015,-0.00014,2,22
7632,3e-05,7e-05,-4e-05,-9e-05,-3e-05,-1e-05,-0.00015,-0.00014,2,22
7633,3e-05,7e-05,-4e-05,-9e-05,-3e-05,-1e-05,-0.00015,-0.00014,2,22
7634,3e-05,7e-05,-4e-05,-9e-05,-3e-05,-1e-05,-0.00015,-0.00014,2,22
7635,3e-05,7e-05,-4e-05,-9e-05,-3e-05,-1e-05,-0.00015,-0.00014,2,22
7636,3e-05,7e-05,-4e-05,-9e-05,-3e-05,-1e-05,-0.00015,-0.00014,2,22
7638,3e-05,7e-05,-4e-05,-9e-05,-3e-05,-1e-05,-0.00015,-0.00014,2,22
7639,3e-05,7e-05,-4e-05,-9e-05,-3e-05,-1e-05,-0.00015,-0.00014,2,22
7640,3e-05,7e-05,-4e-05,-9e-05,-3e-05,-1e-05,-0.00015,-0.00014,2,22
7641,3e-05,7e-05,-4e-05,-9e-05,-3e-05,-1e-05,-0.00015,-0.00014,2,22
7642,3e-05,7e-05,-4e-05,-9e-05,-3e-05,-1e-05,-0.00015,-0.00014,2,22
7643,3e-05,7e-05,-4e-05,-9e-05,-3e-05,-1e-05,-0.00015,-0.00014,2,22
7644,3e-05,7e-05,-4e-05,-9e-05,-3e-05,-1e-05,-0.00015,-0.00014,2,22
7645,3e-05,7e-05,-4e-05,-9e-05,-3e-05,-1e-05,-0.00015,-0.00014,2,22
7646,3e-05,7e-05,-4e-05,-9e-05,-3e-05,-1e-05,-0.00015,-0.00014,2,22
7647,3e-05,7e-05,-4e-05,-9e-05,-3e-05,-1e-05,-0.00015,-0.00014,2,22
7648,3e-05,7e-05,-4e-05,-9e-05,-3e-05,-1e-05,-0.00015,-0.00014,2,22
7649,3e-05,7e-05,-4e-05,-9e-05,-3e-05,-1e-05,-0.00015,-0.00014,2,22
7650,8e-05,0.0001,8e-05,0.0003,-0.0001,-4e-05,3e-05,3e-05,2,22
7651,9e-05,-0.00013,7e-05,-0.00027,0.0001,2e-05,1e-05,-6e-05,2,22
7652,9e-05,-0.00013,7e-05,-0.00027,0.0001,2e-05,1e-05,-6e-05,2,22
7653,9e-05,-0.00013,7e-05,-0.00027,0.0001,2e-05,1e-05,-6e-05,2,22
7654,9e-05,-0.00013,7e-05,-0.00027,0.0001,2e-05,1e-05,-6e-05,2,22
7655,9e-05,-0.00013,7e-05,-0.00027,0.0001,2e-05,1e-05,-6e-05,2,22
7656,9e-05,-0.00013,7e-05,-0.00027,0.0001,2e-05,1e-05,-6e-05,2,22
7657,9e-05,-0.00013,7e-05,-0.00027,0.0001,2e-05,1e-05,-6e-05,2,22
7658,9e-05,-0.00013,7e-05,-0.00027,0.0001,2e-05,1e-05,-6e-05,2,22
7659,9e-05,-0.00013,7e-05,-0.00027,0.0001,2e-05,1e-05,-6e-05,2,22
7660,9e-05,-0.00013,7e-05,-0.00027,0.0001,2e-05,1e-05,-6e-05,2,22
7661,9e-05,-0.00013,7e-05,-0.00027,0.0001,2e-05,1e-05,-6e-05,2,22
7662,9e-05,-0.00013,7e-05,-0.00027,0.0001,2e-05,1e-05,-6e-05,2,22
7663,9e-05,-0.00013,7e-05,-0.00027,0.0001,2e-05,1e-05,-6e-05,2,22
7664,0.00025,-0.00023,0.00018,0.00031,4e-05,-6e-05,-4e-05,0,2,22
7666,0.00025,-0.00023,0.00018,0.00031,4e-05,-6e-05,-4e-05,0,2,22
7667,0.00025,-0.00023,0.00018,0.00031,4e-05,-6e-05,-4e-05,0,2,22
7668,0.00025,-0.00023,0.00018,0.00031,4e-05,-6e-05,-4e-05,0,2,22
7669,0.00025,-0.00023,0.00018,0.00031,4e-05,-6e-05,-4e-05,0,2,22
7670,0.00025,-0.00023,0.00018,0.00031,4e-05,-6e-05,-4e-05,0,2,22
7671,0.00025,-0.00023,0.00018,0.00031,4e-05,-6e-05,-4e-05,0,2,22
7672,-0.00048,-0.00055,-0.00057,-0.00094,-0.00028,-7e-05,-7e-05,-0.00015,2,22
7673,-0.00016,-4e-05,3e-05,9e-05,0.00016,6e-05,0.00017,8e-05,2,22
7674,-0.00016,-4e-05,3e-05,9e-05,0.00016,6e-05,0.00017,8e-05,2,22
7675,-0.00016,-4e-05,3e-05,9e-05,0.00016,6e-05,0.00017,8e-05,2,22
7676,-0.00016,-4e-05,3e-05,9e-05,0.00016,6e-05,0.00017,8e-05,2,22
7677,-0.00016,-4e-05,3e-05,9e-05,0.00016,6e-05,0.00017,8e-05,2,22
7678,-0.00016,-4e-05,3e-05,9e-05,0.00016,6e-05,0.00017,8e-05,2,22
7679,-0.00016,-4e-05,3e-05,9e-05,0.00016,6e-05,0.00017,8e-05,2,22
7680,-0.00016,-4e-05,3e-05,9e-05,0.00016,6e-05,0.00017,8e-05,2,22
7681,-0.00016,-4e-05,3e-05,9e-05,0.00016,6e-05,0.00017,8e-05,2,22
7682,-0.00016,-4e-05,3e-05,9e-05,0.00016,6e-05,0.00017,8e-05,2,22
7683,-0.00016,-4e-05,3e-05,9e-05,0.00016,6e-05,0.00017,8e-05,2,22
7684,-0.00016,-4e-05,3e-05,9e-05,0.00016,6e-05,0.00017,8e-05,2,22
7685,-0.00016,-4e-05,3e-05,9e-05,0.00016,6e-05,0.00017,8e-05,2,22
7686,-0.00016,-4e-05,3e-05,9e-05,0.00016,6e-05,0.00017,8e-05,2,22
7689,-5e-05,0.00023,-1e-05,0.0004,5e-05,-2e-05,6e-05,4e-05,2,22
7690,-5e-05,0.00023,-1e-05,0.0004,5e-05,-2e-05,6e-05,4e-05,2,22
7691,-5e-05,0.00023,-1e-05,0.0004,5e-05,-2e-05,6e-05,4e-05,2,22
7692,-5e-05,0.00023,-1e-05,0.0004,5e-05,-2e-05,6e-05,4e-05,2,22
7693,-5e-05,0.00023,-1e-05,0.0004,5e-05,-2e-05,6e-05,4e-05,2,22
7694,-5e-05,0.00023,-1e-05,0.0004,5e-05,-2e-05,6e-05,4e-05,2,22
7695,-5e-05,0.00023,-1e-05,0.0004,5e-05,-2e-05,6e-05,4e-05,2,22
7696,-5e-05,0.00023,-1e-05,0.0004,5e-05,-2e-05,6e-05,4e-05,2,22
7697,-5e-05,0.00023,-1e-05,0.0004,5e-05,-2e-05,6e-05,4e-05,2,22
7698,-5e-05,0.00023,-1e-05,0.0004,5e-05,-2e-05,6e-05,4e-05,2,22
7699,-5e-05,0.00023,-1e-05,0.0004,5e-05,-2e-05,6e-05,4e-05,2,22
7700,-5e-05,0.00023,-1e-05,0.0004,5e-05,-2e-05,6e-05,4e-05,2,22
7701,-5e-05,0.00023,-1e-05,0.0004,5e-05,-2e-05,6e-05,4e-05,2,22
7702,-5e-05,0.00023,-1e-05,0.0004,5e-05,-2e-05,6e-05,4e-05,2,22
7703,-5e-05,0.00023,-1e-05,0.0004,5e-05,-2e-05,6e-05,4e-05,2,22
7704,-5e-05,0.00023,-1e-05,0.0004,5e-05,-2e-05,6e-05,4e-05,2,22
7705,-5e-05,0.00023,-1e-05,0.0004,5e-05,-2e-05,6e-05,4e-05,2,22
7706,-5e-05,0.00023,-1e-05,0.0004,5e-05,-2e-05,6e-05,4e-05,2,22
7707,-5e-05,0.00023,-1e-05,0.0004,5e-05,-2e-05,6e-05,4e-05,2,22
7708,-5e-05,0.00023,-1e-05,0.0004,5e-05,-2e-05,6e-05,4e-05,2,22
7709,-5e-05,0.00023,-1e-05,0.0004,5e-05,-2e-05,6e-05,4e-05,2,22
7710,9e-05,0.00032,-9e-05,4e-05,0.00012,7e-05,-8e-05,0,2,22
7711,9e-05,0.00032,-9e-05,4e-05,0.00012,7e-05,-8e-05,0,2,22
7712,-0.00045,-0.00046,-9e-05,-0.00036,-0.00014,-5e-05,-0.00011,-0.00018,2,22
7713,-0.00045,-0.00046,-9e-05,-0.00036,-0.00014,-5e-05,-0.00011,-0.00018,2,22
7714,-0.00045,-0.00046,-9e-05,-0.00036,-0.00014,-5e-05,-0.00011,-0.00018,2,22
7715,-0.00045,-0.00046,-9e-05,-0.00036,-0.00014,-5e-05,-0.00011,-0.00018,2,22
7716,-0.00045,-0.00046,-9e-05,-0.00036,-0.00014,-5e-05,-0.00011,-0.00018,2,22
7717,-0.00045,-0.00046,-9e-05,-0.00036,-0.00014,-5e-05,-0.00011,-0.00018,2,22
7718,-0.00045,-0.00046,-9e-05,-0.00036,-0.00014,-5e-05,-0.00011,-0.00018,2,22
7719,-0.00045,-0.00046,-9e-05,-0.00036,-0.00014,-5e-05,-0.00011,-0.00018,2,22
7720,-0.00045,-0.00046,-9e-05,-0.00036,-0.00014,-5e-05,-0.00011,-0.00018,2,22
7721,-0.00045,-0.00046,-9e-05,-0.00036,-0.00014,-5e-05,-0.00011,-0.00018,2,22
7722,-0.00045,-0.00046,-9e-05,-0.00036,-0.00014,-5e-05,-0.00011,-0.00018,2,22
7723,-0.00037,-0.00044,0.0001,4e-05,5e-05,0,-8e-05,-0.00019,2,22
7724,-0.00037,-0.00044,0.0001,4e-05,5e-05,0,-8e-05,-0.00019,2,22
7725,-0.00037,-0.00044,0.0001,4e-05,5e-05,0,-8e-05,-0.00019,2,22
7726,-0.00037,-0.00044,0.0001,4e-05,5e-05,0,-8e-05,-0.00019,2,22
7727,-0.00037,-0.00044,0.0001,4e-05,5e-05,0,-8e-05,-0.00019,2,22
7728,-0.00037,-0.00044,0.0001,4e-05,5e-05,0,-8e-05,-0.00019,2,22
7729,-0.00037,-0.00044,0.0001,4e-05,5e-05,0,-8e-05,-0.00019,2,22
7730,-0.00037,-0.00044,0.0001,4e-05,5e-05,0,-8e-05,-0.00019,2,22
7731,-0.00037,-0.00044,0.0001,4e-05,5e-05,0,-8e-05,-0.00019,2,22
7732,-0.00037,-0.00044,0.0001,4e-05,5e-05,0,-8e-05,-0.00019,2,22
7733,-0.00022,-4e-05,1e-05,0.00021,1e-05,-5e-05,-6e-05,-3e-05,2,22
7734,-0.00022,-4e-05,1e-05,0.00021,1e-05,-5e-05,-6e-05,-3e-05,2,22
7735,-0.00022,-4e-05,1e-05,0.00021,1e-05,-5e-05,-6e-05,-3e-05,2,22
7736,-0.00022,-4e-05,1e-05,0.00021,1e-05,-5e-05,-6e-05,-3e-05,2,22
7738,-0.00022,-4e-05,1e-05,0.00021,1e-05,-5e-05,-6e-05,-3e-05,2,22
7739,-0.00022,-4e-05,1e-05,0.00021,1e-05,-5e-05,-6e-05,-3e-05,2,22
7740,-0.00022,-4e-05,1e-05,0.00021,1e-05,-5e-05,-6e-05,-3e-05,2,22
7741,-0.00022,-4e-05,1e-05,0.00021,1e-05,-5e-05,-6e-05,-3e-05,2,22
7742,-0.00022,-4e-05,1e-05,0.00021,1e-05,-5e-05,-6e-05,-3e-05,2,22
7743,-0.00022,-4e-05,1e-05,0.00021,1e-05,-5e-05,-6e-05,-3e-05,2,22
7744,-0.00022,-4e-05,1e-05,0.00021,1e-05,-5e-05,-6e-05,-3e-05,2,22
7745,-0.00022,-4e-05,1e-05,0.00021,1e-05,-5e-05,-6e-05,-3e-05,2,22
7746,-0.00022,-4e-05,1e-05,0.00021,1e-05,-5e-05,-6e-05,-3e-05,2,22
7747,0.00017,-0.00033,0,-0.00031,0.00022,0.00012,-1e-05,-4e-05,2,22
7748,0.00017,-0.00033,0,-0.00031,0.00022,0.00012,-1e-05,-4e-05,2,22
7749,1e-05,-0.00014,1e-05,0,-3e-05,-2e-05,2e-05,4e-05,2,22
7750,1e-05,-0.00014,1e-05,0,-3e-05,-2e-05,2e-05,4e-05,2,22
7751,1e-05,-0.00014,1e-05,0,-3e-05,-2e-05,2e-05,4e-05,2,22
7752,1e-05,-0.00014,1e-05,0,-3e-05,-2e-05,2e-05,4e-05,2,22
7753,1e-05,-0.00014,1e-05,0,-3e-05,-2e-05,2e-05,4e-05,2,22
7754,1e-05,-0.00014,1e-05,0,-3e-05,-2e-05,2e-05,4e-05,2,22
7755,1e-05,-0.00014,1e-05,0,-3e-05,-2e-05,2e-05,4e-05,2,22
7756,1e-05,-0.00014,1e-05,0,-3e-05,-2e-05,2e-05,4e-05,2,22
7757,1e-05,-0.00014,1e-05,0,-3e-05,-2e-05,2e-05,4e-05,2,22
7758,1e-05,-0.00014,1e-05,0,-3e-05,-2e-05,2e-05,4e-05,2,22
7759,1e-05,-0.00014,1e-05,0,-3e-05,-2e-05,2e-05,4e-05,2,22
7760,1e-05,-0.00014,1e-05,0,-3e-05,-2e-05,2e-05,4e-05,2,22
7761,1e-05,-0.00014,1e-05,0,-3e-05,-2e-05,2e-05,4e-05,2,22
7762,1e-05,-0.00014,1e-05,0,-3e-05,-2e-05,2e-05,4e-05,2,22
7763,1e-05,-0.00014,1e-05,0,-3e-05,-2e-05,2e-05,4e-05,2,22
7764,1e-05,-0.00014,1e-05,0,-3e-05,-2e-05,2e-05,4e-05,2,22
7765,1e-05,-0.00014,1e-05,0,-3e-05,-2e-05,2e-05,4e-05,2,22
7766,1e-05,-0.00014,1e-05,0,-3e-05,-2e-05,2e-05,4e-05,2,22
7767,1e-05,-0.00014,1e-05,0,-3e-05,-2e-05,2e-05,4e-05,2,22
7768,1e-05,-0.00014,1e-05,0,-3e-05,-2e-05,2e-05,4e-05,2,22
7769,1e-05,-0.00014,1e-05,0,-3e-05,-2e-05,2e-05,4e-05,2,22
7770,1e-05,-0.00014,1e-05,0,-3e-05,-2e-05,2e-05,4e-05,2,22
7771,1e-05,-0.00014,1e-05,0,-3e-05,-2e-05,2e-05,4e-05,2,22
7772,1e-05,-0.00014,1e-05,0,-3e-05,-2e-05,2e-05,4e-05,2,22
7773,1e-05,-0.00014,1e-05,0,-3e-05,-2e-05,2e-05,4e-05,2,22
7774,1e-05,-0.00014,1e-05,0,-3e-05,-2e-05,2e-05,4e-05,2,22
7775,1e-05,-0.00014,1e-05,0,-3e-05,-2e-05,2e-05,4e-05,2,22
7776,1e-05,-0.00014,1e-05,0,-3e-05,-2e-05,2e-05,4e-05,2,22
7777,-0.00014,0.00014,-5e-05,-0.00013,-1e-05,0,2e-05,2e-05,2,22
7778,-0.00014,0.00014,-5e-05,-0.00013,-1e-05,0,2e-05,2e-05,2,22
7779,0,-0.00012,-4e-05,-0.00066,0.0002,4e-05,-2e-05,-1e-05,2,22
7780,0,-0.00012,-4e-05,-0.00066,0.0002,4e-05,-2e-05,-1e-05,2,22
7781,0,-0.00012,-4e-05,-0.00066,0.0002,4e-05,-2e-05,-1e-05,2,22
7782,0,-0.00012,-4e-05,-0.00066,0.0002,4e-05,-2e-05,-1e-05,2,22
7783,0.00011,4e-05,-5e-05,0.0002,-3e-05,0,5e-05,3e-05,2,22
7784,0.00011,4e-05,-5e-05,0.0002,-3e-05,0,5e-05,3e-05,2,22
7785,0.00011,4e-05,-5e-05,0.0002,-3e-05,0,5e-05,3e-05,2,22
7786,0.00011,4e-05,-5e-05,0.0002,-3e-05,0,5e-05,3e-05,2,22
7788,0.00011,4e-05,-5e-05,0.0002,-3e-05,0,5e-05,3e-05,2,22
7789,0.00011,4e-05,-5e-05,0.0002,-3e-05,0,5e-05,3e-05,2,22
7790,0.00011,4e-05,-5e-05,0.0002,-3e-05,0,5e-05,3e-05,2,22
7791,0.00011,4e-05,-5e-05,0.0002,-3e-05,0,5e-05,3e-05,2,22
7792,5e-05,-0.00035,6e-05,0.00033,-0.00013,-6e-05,3e-05,6e-05,2,22
7793,5e-05,-0.00035,6e-05,0.00033,-0.00013,-6e-05,3e-05,6e-05,2,22
7794,5e-05,-0.00035,6e-05,0.00033,-0.00013,-6e-05,3e-05,6e-05,2,22
7795,5e-05,-0.00035,6e-05,0.00033,-0.00013,-6e-05,3e-05,6e-05,2,22
7796,5e-05,-0.00035,6e-05,0.00033,-0.00013,-6e-05,3e-05,6e-05,2,22
7797,5e-05,-0.00035,6e-05,0.00033,-0.00013,-6e-05,3e-05,6e-05,2,22
7798,5e-05,-0.00035,6e-05,0.00033,-0.00013,-6e-05,3e-05,6e-05,2,22
7799,5e-05,-0.00035,6e-05,0.00033,-0.00013,-6e-05,3e-05,6e-05,2,22
7800,5e-05,-0.00035,6e-05,0.00033,-0.00013,-6e-05,3e-05,6e-05,2,22
7801,5e-05,-0.00035,6e-05,0.00033,-0.00013,-6e-05,3e-05,6e-05,2,22
7802,5e-05,-0.00035,6e-05,0.00033,-0.00013,-6e-05,3e-05,6e-05,2,22
7803,5e-05,-0.00035,6e-05,0.00033,-0.00013,-6e-05,3e-05,6e-05,2,22
7804,5e-05,-0.00035,6e-05,0.00033,-0.00013,-6e-05,3e-05,6e-05,2,22
7805,5e-05,-0.00035,6e-05,0.00033,-0.00013,-6e-05,3e-05,6e-05,2,22
7806,5e-05,-0.00035,6e-05,0.00033,-0.00013,-6e-05,3e-05,6e-05,2,22
7807,4e-05,9e-05,-0.00012,-9e-05,-2e-05,-2e-05,5e-05,2e-05,2,22
7808,4e-05,9e-05,-0.00012,-9e-05,-2e-05,-2e-05,5e-05,2e-05,2,22
7809,0,0.00018,8e-05,6e-05,-1e-05,0,0,1e-05,2,22
7810,0,0.00018,8e-05,6e-05,-1e-05,0,0,1e-05,2,22
7811,0,0.00018,8e-05,6e-05,-1e-05,0,0,1e-05,2,22
7812,0,0.00018,8e-05,6e-05,-1e-05,0,0,1e-05,2,22
7813,0,0.00018,8e-05,6e-05,-1e-05,0,0,1e-05,2,22
7814,0,0.00018,8e-05,6e-05,-1e-05,0,0,1e-05,2,22
7815,0,0.00018,8e-05,6e-05,-1e-05,0,0,1e-05,2,22
7816,0,0.00018,8e-05,6e-05,-1e-05,0,0,1e-05,2,22
7817,0,0.00018,8e-05,6e-05,-1e-05,0,0,1e-05,2,22
7818,0,0.00018,8e-05,6e-05,-1e-05,0,0,1e-05,2,22
7819,0,0.00018,8e-05,6e-05,-1e-05,0,0,1e-05,2,22
7820,0,0.00018,8e-05,6e-05,-1e-05,0,0,1e-05,2,22
7821,0,0.00018,8e-05,6e-05,-1e-05,0,0,1e-05,2,22
7822,0,0.00018,8e-05,6e-05,-1e-05,0,0,1e-05,2,22
7823,0,0.00018,8e-05,6e-05,-1e-05,0,0,1e-05,2,22
7824,0,0.00018,8e-05,6e-05,-1e-05,0,0,1e-05,2,22
7825,0,0.00018,8e-05,6e-05,-1e-05,0,0,1e-05,2,22
7826,0,0.00018,8e-05,6e-05,-1e-05,0,0,1e-05,2,22
7827,0,0.00018,8e-05,6e-05,-1e-05,0,0,1e-05,2,22
7828,0,0.00018,8e-05,6e-05,-1e-05,0,0,1e-05,2,22
7829,0,0.00018,8e-05,6e-05,-1e-05,0,0,1e-05,2,22
7830,-0.00012,-2e-05,-1e-05,9e-05,0,1e-05,3e-05,8e-05,2,22
7831,-0.00012,-2e-05,-1e-05,9e-05,0,1e-05,3e-05,8e-05,2,22
7832,-0.00012,-2e-05,-1e-05,9e-05,0,1e-05,3e-05,8e-05,2,22
7833,-0.00012,-2e-05,-1e-05,9e-05,0,1e-05,3e-05,8e-05,2,22
7834,-0.00012,-2e-05,-1e-05,9e-05,0,1e-05,3e-05,8e-05,2,22
7835,-0.00012,-2e-05,-1e-05,9e-05,0,1e-05,3e-05,8e-05,2,22
7836,-7e-05,-4e-05,-9e-05,-0.00014,3e-05,2e-05,-8e-05,-0.00011,2,22
7838,-7e-05,-4e-05,-9e-05,-0.00014,3e-05,2e-05,-8e-05,-0.00011,2,22
7839,-7e-05,-4e-05,-9e-05,-0.00014,3e-05,2e-05,-8e-05,-0.00011,2,22
7840,-7e-05,-4e-05,-9e-05,-0.00014,3e-05,2e-05,-8e-05,-0.00011,2,22
7841,-7e-05,-4e-05,-9e-05,-0.00014,3e-05,2e-05,-8e-05,-0.00011,2,22
7842,-7e-05,-4e-05,-9e-05,-0.00014,3e-05,2e-05,-8e-05,-0.00011,2,22
7843,0.00046,0.00041,0,-0.0001,-6e-05,-2e-05,4e-05,0.0001,2,22
7844,0.00046,0.00041,0,-0.0001,-6e-05,-2e-05,4e-05,0.0001,2,22
7845,0.00046,0.00041,0,-0.0001,-6e-05,-2e-05,4e-05,0.0001,2,22
7846,0.00046,0.00041,0,-0.0001,-6e-05,-2e-05,4e-05,0.0001,2,22
7847,0.00046,0.00041,0,-0.0001,-6e-05,-2e-05,4e-05,0.0001,2,22
7848,0.00046,0.00041,0,-0.0001,-6e-05,-2e-05,4e-05,0.0001,2,22
7849,0.00046,0.00041,0,-0.0001,-6e-05,-2e-05,4e-05,0.0001,2,22
7850,0.00046,0.00041,0,-0.0001,-6e-05,-2e-05,4e-05,0.0001,2,22
7851,0.00046,0.00041,0,-0.0001,-6e-05,-2e-05,4e-05,0.0001,2,22
7852,0.00046,0.00041,0,-0.0001,-6e-05,-2e-05,4e-05,0.0001,2,22
7853,-2e-05,5e-05,-5e-05,0.00011,-9e-05,-6e-05,-1e-05,-0.00013,2,22
7854,-2e-05,5e-05,-5e-05,0.00011,-9e-05,-6e-05,-1e-05,-0.00013,2,22
7855,-2e-05,5e-05,-5e-05,0.00011,-9e-05,-6e-05,-1e-05,-0.00013,2,22
7856,-2e-05,5e-05,-5e-05,0.00011,-9e-05,-6e-05,-1e-05,-0.00013,2,22
7857,-2e-05,5e-05,-5e-05,0.00011,-9e-05,-6e-05,-1e-05,-0.00013,2,22
7858,-2e-05,5e-05,-5e-05,0.00011,-9e-05,-6e-05,-1e-05,-0.00013,2,22
7859,-2e-05,5e-05,-5e-05,0.00011,-9e-05,-6e-05,-1e-05,-0.00013,2,22
7860,-2e-05,5e-05,-5e-05,0.00011,-9e-05,-6e-05,-1e-05,-0.00013,2,22
7861,-2e-05,5e-05,-5e-05,0.00011,-9e-05,-6e-05,-1e-05,-0.00013,2,22
7862,-2e-05,5e-05,-5e-05,0.00011,-9e-05,-6e-05,-1e-05,-0.00013,2,22
7863,-2e-05,5e-05,-5e-05,0.00011,-9e-05,-6e-05,-1e-05,-0.00013,2,22
7864,-2e-05,5e-05,-5e-05,0.00011,-9e-05,-6e-05,-1e-05,-0.00013,2,22
7865,-2e-05,5e-05,-5e-05,0.00011,-9e-05,-6e-05,-1e-05,-0.00013,2,22
7866,-2e-05,5e-05,-5e-05,0.00011,-9e-05,-6e-05,-1e-05,-0.00013,2,22
7867,-0.00045,0.00021,-9e-05,-0.00016,-0.00013,-7e-05,-0.00011,-0.0001,2,22
7868,-0.00045,0.00021,-9e-05,-0.00016,-0.00013,-7e-05,-0.00011,-0.0001,2,22
7869,-0.00045,0.00021,-9e-05,-0.00016,-0.00013,-7e-05,-0.00011,-0.0001,2,22
7870,-0.00045,0.00021,-9e-05,-0.00016,-0.00013,-7e-05,-0.00011,-0.0001,2,22
7871,-0.00045,0.00021,-9e-05,-0.00016,-0.00013,-7e-05,-0.00011,-0.0001,2,22
7872,-0.00045,0.00021,-9e-05,-0.00016,-0.00013,-7e-05,-0.00011,-0.0001,2,22
7873,0.00023,0.00032,6e-05,0.00016,-0.00013,0,0,6e-05,2,22
7874,0.00023,0.00032,6e-05,0.00016,-0.00013,0,0,6e-05,2,22
7875,0.00023,0.00032,6e-05,0.00016,-0.00013,0,0,6e-05,2,22
7876,0.00023,0.00032,6e-05,0.00016,-0.00013,0,0,6e-05,2,22
7877,0.00023,0.00032,6e-05,0.00016,-0.00013,0,0,6e-05,2,22
7878,0.00023,0.00032,6e-05,0.00016,-0.00013,0,0,6e-05,2,22
7879,0.00023,0.00032,6e-05,0.00016,-0.00013,0,0,6e-05,2,22
7880,0.00023,0.00032,6e-05,0.00016,-0.00013,0,0,6e-05,2,22
7881,0.00023,0.00032,6e-05,0.00016,-0.00013,0,0,6e-05,2,22
7882,0.00023,0.00032,6e-05,0.00016,-0.00013,0,0,6e-05,2,22
7883,0.00023,0.00032,6e-05,0.00016,-0.00013,0,0,6e-05,2,22
7884,0.00023,0.00032,6e-05,0.00016,-0.00013,0,0,6e-05,2,22
7885,0.00023,0.00032,6e-05,0.00016,-0.00013,0,0,6e-05,2,22
7886,0.00023,0.00032,6e-05,0.00016,-0.00013,0,0,6e-05,2,22
7888,0.00023,0.00032,6e-05,0.00016,-0.00013,0,0,6e-05,2,22
7889,0.00023,0.00032,6e-05,0.00016,-0.00013,0,0,6e-05,2,22
7890,0.00042,1e-05,-0.00011,-4e-05,0,-1e-05,-5e-05,-3e-05,2,22
7891,-2e-05,0.00016,0.00013,-6e-05,-6e-05,0,-4e-05,-4e-05,2,22
7893,-2e-05,0.00016,0.00013,-6e-05,-6e-05,0,-4e-05,-4e-05,2,22
7894,-2e-05,0.00016,0.00013,-6e-05,-6e-05,0,-4e-05,-4e-05,2,22
7895,-2e-05,0.00016,0.00013,-6e-05,-6e-05,0,-4e-05,-4e-05,2,22
7896,-2e-05,0.00016,0.00013,-6e-05,-6e-05,0,-4e-05,-4e-05,2,22
7897,-2e-05,0.00016,0.00013,-6e-05,-6e-05,0,-4e-05,-4e-05,2,22
7898,-2e-05,0.00016,0.00013,-6e-05,-6e-05,0,-4e-05,-4e-05,2,22
7899,-2e-05,0.00016,0.00013,-6e-05,-6e-05,0,-4e-05,-4e-05,2,22
7900,-2e-05,0.00016,0.00013,-6e-05,-6e-05,0,-4e-05,-4e-05,2,22
7901,-2e-05,0.00016,0.00013,-6e-05,-6e-05,0,-4e-05,-4e-05,2,22
7902,-2e-05,0.00016,0.00013,-6e-05,-6e-05,0,-4e-05,-4e-05,2,22
7903,-0.00014,-0.00021,-0.00033,-0.00014,0.00011,0,-3e-05,-0.0001,2,22
7904,0.00044,0.00064,0.00022,0.00027,4e-05,0,-1e-05,7e-05,2,22
7905,0.00044,0.00064,0.00022,0.00027,4e-05,0,-1e-05,7e-05,2,22
7906,0.00044,0.00064,0.00022,0.00027,4e-05,0,-1e-05,7e-05,2,22
7907,0.00044,0.00064,0.00022,0.00027,4e-05,0,-1e-05,7e-05,2,22
7908,0.00044,0.00064,0.00022,0.00027,4e-05,0,-1e-05,7e-05,2,22
7909,0.00044,0.00064,0.00022,0.00027,4e-05,0,-1e-05,7e-05,2,22
7910,0.00044,0.00064,0.00022,0.00027,4e-05,0,-1e-05,7e-05,2,22
7911,0.00044,0.00064,0.00022,0.00027,4e-05,0,-1e-05,7e-05,2,22
7912,0.00018,0.00014,3e-05,-0.00011,-1e-05,0,1e-05,1e-05,2,22
7913,-0.00053,-0.0007,-6e-05,0.00011,2e-05,-1e-05,0.00013,0.0001,2,22
7914,-0.00053,-0.0007,-6e-05,0.00011,2e-05,-1e-05,0.00013,0.0001,2,22
7915,-0.00053,-0.0007,-6e-05,0.00011,2e-05,-1e-05,0.00013,0.0001,2,22
7916,-0.00053,-0.0007,-6e-05,0.00011,2e-05,-1e-05,0.00013,0.0001,2,22
7917,-0.00053,-0.0007,-6e-05,0.00011,2e-05,-1e-05,0.00013,0.0001,2,22
38431,0.00013,-4e-05,0.00011,0,-0.0001,-3e-05,-0.00012,-0.00012,2,22
38432,0.00013,-4e-05,0.00011,0,-0.0001,-3e-05,-0.00012,-0.00012,2,22
38433,0.00013,-4e-05,0.00011,0,-0.0001,-3e-05,-0.00012,-0.00012,2,22
38434,0.00013,-4e-05,0.00011,0,-0.0001,-3e-05,-0.00012,-0.00012,2,22
38435,0.00013,-4e-05,0.00011,0,-0.0001,-3e-05,-0.00012,-0.00012,2,22
38436,0.00013,-4e-05,0.00011,0,-0.0001,-3e-05,-0.00012,-0.00012,2,22
38438,0.00013,-4e-05,0.00011,0,-0.0001,-3e-05,-0.00012,-0.00012,2,22
38439,0.00013,-4e-05,0.00011,0,-0.0001,-3e-05,-0.00012,-0.00012,2,22
38440,0.00013,-4e-05,0.00011,0,-0.0001,-3e-05,-0.00012,-0.00012,2,22
38441,0.00013,-4e-05,0.00011,0,-0.0001,-3e-05,-0.00012,-0.00012,2,22
38442,0.00013,-4e-05,0.00011,0,-0.0001,-3e-05,-0.00012,-0.00012,2,22
38443,0.00013,-4e-05,0.00011,0,-0.0001,-3e-05,-0.00012,-0.00012,2,22
38444,0.00013,-4e-05,0.00011,0,-0.0001,-3e-05,-0.00012,-0.00012,2,22
38445,0.00013,-4e-05,0.00011,0,-0.0001,-3e-05,-0.00012,-0.00012,2,22
38446,0.00013,-4e-05,0.00011,0,-0.0001,-3e-05,-0.00012,-0.00012,2,22
38447,0.00013,-4e-05,0.00011,0,-0.0001,-3e-05,-0.00012,-0.00012,2,22
38448,0.00013,-4e-05,0.00011,0,-0.0001,-3e-05,-0.00012,-0.00012,2,22
38449,0.00013,-4e-05,0.00011,0,-0.0001,-3e-05,-0.00012,-0.00012,2,22
38450,0.00013,-4e-05,0.00011,0,-0.0001,-3e-05,-0.00012,-0.00012,2,22
38451,0.00013,-4e-05,0.00011,0,-0.0001,-3e-05,-0.00012,-0.00012,2,22
38452,-0.00026,-0.0003,3e-05,4e-05,-0.0001,-4e-05,-8e-05,-9e-05,2,22
38453,0.00012,0.00062,4e-05,-0.00026,0.00015,0.0001,-7e-05,5e-05,2,22
38454,0.00012,0.00062,4e-05,-0.00026,0.00015,0.0001,-7e-05,5e-05,2,22
38455,0.00012,0.00062,4e-05,-0.00026,0.00015,0.0001,-7e-05,5e-05,2,22
38456,0.00012,0.00062,4e-05,-0.00026,0.00015,0.0001,-7e-05,5e-05,2,22
38457,0.00012,0.00062,4e-05,-0.00026,0.00015,0.0001,-7e-05,5e-05,2,22
38458,0.00012,0.00062,4e-05,-0.00026,0.00015,0.0001,-7e-05,5e-05,2,22
38459,0.00012,0.00062,4e-05,-0.00026,0.00015,0.0001,-7e-05,5e-05,2,22
38460,0.00012,0.00062,4e-05,-0.00026,0.00015,0.0001,-7e-05,5e-05,2,22
38461,0.00012,0.00062,4e-05,-0.00026,0.00015,0.0001,-7e-05,5e-05,2,22
38462,0.00012,0.00062,4e-05,-0.00026,0.00015,0.0001,-7e-05,5e-05,2,22
38463,0.00012,0.00062,4e-05,-0.00026,0.00015,0.0001,-7e-05,5e-05,2,22
38464,0.00012,0.00062,4e-05,-0.00026,0.00015,0.0001,-7e-05,5e-05,2,22
38465,0.00012,0.00062,4e-05,-0.00026,0.00015,0.0001,-7e-05,5e-05,2,22
38466,0.00012,0.00062,4e-05,-0.00026,0.00015,0.0001,-7e-05,5e-05,2,22
38467,0.00012,0.00062,4e-05,-0.00026,0.00015,0.0001,-7e-05,5e-05,2,22
38468,0.00012,0.00062,4e-05,-0.00026,0.00015,0.0001,-7e-05,5e-05,2,22
38469,0.00012,0.00062,4e-05,-0.00026,0.00015,0.0001,-7e-05,5e-05,2,22
38470,0.00012,0.00062,4e-05,-0.00026,0.00015,0.0001,-7e-05,5e-05,2,22
38471,0.00012,0.00062,4e-05,-0.00026,0.00015,0.0001,-7e-05,5e-05,2,22
38472,0.00012,0.00062,4e-05,-0.00026,0.00015,0.0001,-7e-05,5e-05,2,22
38473,0.00012,0.00062,4e-05,-0.00026,0.00015,0.0001,-7e-05,5e-05,2,22
38474,0.00012,0.00062,4e-05,-0.00026,0.00015,0.0001,-7e-05,5e-05,2,22
38475,0.00012,0.00062,4e-05,-0.00026,0.00015,0.0001,-7e-05,5e-05,2,22
38476,0.00012,0.00062,4e-05,-0.00026,0.00015,0.0001,-7e-05,5e-05,2,22
38477,0.00012,0.00062,4e-05,-0.00026,0.00015,0.0001,-7e-05,5e-05,2,22
38478,0.00012,0.00062,4e-05,-0.00026,0.00015,0.0001,-7e-05,5e-05,2,22
38479,0.00012,0.00062,4e-05,-0.00026,0.00015,0.0001,-7e-05,5e-05,2,22
38480,0.00012,0.00062,4e-05,-0.00026,0.00015,0.0001,-7e-05,5e-05,2,22
38481,0.00012,0.00062,4e-05,-0.00026,0.00015,0.0001,-7e-05,5e-05,2,22
38482,-0.00035,-0.00033,2e-05,-0.00024,7e-05,1e-05,0,-8e-05,2,22
38483,-0.00025,-9e-05,2e-05,0.00023,-1e-05,-6e-05,0.00013,0.00022,2,22
38484,-0.00025,-9e-05,2e-05,0.00023,-1e-05,-6e-05,0.00013,0.00022,2,22
38485,-0.00025,-9e-05,2e-05,0.00023,-1e-05,-6e-05,0.00013,0.00022,2,22
38486,-0.00025,-9e-05,2e-05,0.00023,-1e-05,-6e-05,0.00013,0.00022,2,22
38488,-0.00025,-9e-05,2e-05,0.00023,-1e-05,-6e-05,0.00013,0.00022,2,22
38489,-0.00025,-9e-05,2e-05,0.00023,-1e-05,-6e-05,0.00013,0.00022,2,22
38490,-0.00035,-0.0005,2e-05,2e-05,2e-05,-1e-05,-6e-05,-8e-05,2,22
38491,-0.00034,-9e-05,0.00013,4e-05,7e-05,-4e-05,6e-05,0,2,22
38492,-0.00034,-9e-05,0.00013,4e-05,7e-05,-4e-05,6e-05,0,2,22
38493,-0.00034,-9e-05,0.00013,4e-05,7e-05,-4e-05,6e-05,0,2,22
38494,-0.00034,-9e-05,0.00013,4e-05,7e-05,-4e-05,6e-05,0,2,22
38495,-0.00034,-9e-05,0.00013,4e-05,7e-05,-4e-05,6e-05,0,2,22
38496,-0.00034,-9e-05,0.00013,4e-05,7e-05,-4e-05,6e-05,0,2,22
38497,-0.00034,-9e-05,0.00013,4e-05,7e-05,-4e-05,6e-05,0,2,22
38498,-0.00034,-9e-05,0.00013,4e-05,7e-05,-4e-05,6e-05,0,2,22
38499,-0.00034,-9e-05,0.00013,4e-05,7e-05,-4e-05,6e-05,0,2,22
38500,-0.00034,-9e-05,0.00013,4e-05,7e-05,-4e-05,6e-05,0,2,22
38501,-0.00034,-9e-05,0.00013,4e-05,7e-05,-4e-05,6e-05,0,2,22
38502,-0.00034,-9e-05,0.00013,4e-05,7e-05,-4e-05,6e-05,0,2,22
38503,-0.00034,-9e-05,0.00013,4e-05,7e-05,-4e-05,6e-05,0,2,22
38504,-0.00034,-9e-05,0.00013,4e-05,7e-05,-4e-05,6e-05,0,2,22
38505,-0.00034,-9e-05,0.00013,4e-05,7e-05,-4e-05,6e-05,0,2,22
38506,-0.00034,-9e-05,0.00013,4e-05,7e-05,-4e-05,6e-05,0,2,22
38507,-0.00034,-9e-05,0.00013,4e-05,7e-05,-4e-05,6e-05,0,2,22
38508,-0.00034,-9e-05,0.00013,4e-05,7e-05,-4e-05,6e-05,0,2,22
38509,-0.00034,-9e-05,0.00013,4e-05,7e-05,-4e-05,6e-05,0,2,22
38510,-0.00034,-9e-05,0.00013,4e-05,7e-05,-4e-05,6e-05,0,2,22
38511,-0.00034,-9e-05,0.00013,4e-05,7e-05,-4e-05,6e-05,0,2,22
38512,-0.00057,-0.00086,-0.00027,-7e-05,-0.00016,-9e-05,0.00012,7e-05,2,22
38513,0.00023,-5e-05,6e-05,0.00015,-3e-05,-2e-05,-7e-05,-6e-05,2,22
38514,-0.00065,-0.0003,-0.00025,-0.00018,-3e-05,0,0.00014,3e-05,2,22
38515,-0.00065,-0.0003,-0.00025,-0.00018,-3e-05,0,0.00014,3e-05,2,22
38516,-0.00065,-0.0003,-0.00025,-0.00018,-3e-05,0,0.00014,3e-05,2,22
38517,-0.00065,-0.0003,-0.00025,-0.00018,-3e-05,0,0.00014,3e-05,2,22
38518,-0.00065,-0.0003,-0.00025,-0.00018,-3e-05,0,0.00014,3e-05,2,22
38519,-0.00065,-0.0003,-0.00025,-0.00018,-3e-05,0,0.00014,3e-05,2,22
38520,-0.00065,-0.0003,-0.00025,-0.00018,-3e-05,0,0.00014,3e-05,2,22
38521,-0.00065,-0.0003,-0.00025,-0.00018,-3e-05,0,0.00014,3e-05,2,22
38522,-0.00065,-0.0003,-0.00025,-0.00018,-3e-05,0,0.00014,3e-05,2,22
38523,-0.00065,-0.0003,-0.00025,-0.00018,-3e-05,0,0.00014,3e-05,2,22
38524,-0.00065,-0.0003,-0.00025,-0.00018,-3e-05,0,0.00014,3e-05,2,22
38525,-0.00065,-0.0003,-0.00025,-0.00018,-3e-05,0,0.00014,3e-05,2,22
38526,-0.00065,-0.0003,-0.00025,-0.00018,-3e-05,0,0.00014,3e-05,2,22
38527,-0.00065,-0.0003,-0.00025,-0.00018,-3e-05,0,0.00014,3e-05,2,22
38528,-0.00065,-0.0003,-0.00025,-0.00018,-3e-05,0,0.00014,3e-05,2,22
38529,-0.00065,-0.0003,-0.00025,-0.00018,-3e-05,0,0.00014,3e-05,2,22
38530,-0.00065,-0.0003,-0.00025,-0.00018,-3e-05,0,0.00014,3e-05,2,22
38531,-0.00065,-0.0003,-0.00025,-0.00018,-3e-05,0,0.00014,3e-05,2,22
38532,-0.00065,-0.0003,-0.00025,-0.00018,-3e-05,0,0.00014,3e-05,2,22
38533,-0.00065,-0.0003,-0.00025,-0.00018,-3e-05,0,0.00014,3e-05,2,22
38534,-0.00065,-0.0003,-0.00025,-0.00018,-3e-05,0,0.00014,3e-05,2,22
38535,-0.00019,0.00035,-8e-05,7e-05,-0.00019,-0.00021,-0.00025,-0.00025,2,22
38536,-2e-05,-0.0004,-1e-05,-4e-05,0.00011,6e-05,0.0001,9e-05,2,22
38538,0.00021,0.00028,0.0002,0.00018,-4e-05,-2e-05,-8e-05,-2e-05,2,22
38539,0.00021,0.00028,0.0002,0.00018,-4e-05,-2e-05,-8e-05,-2e-05,2,22
38540,0.00021,0.00028,0.0002,0.00018,-4e-05,-2e-05,-8e-05,-2e-05,2,22
38541,0.00021,0.00028,0.0002,0.00018,-4e-05,-2e-05,-8e-05,-2e-05,2,22
38542,0.00021,0.00028,0.0002,0.00018,-4e-05,-2e-05,-8e-05,-2e-05,2,22
38543,0.00021,0.00028,0.0002,0.00018,-4e-05,-2e-05,-8e-05,-2e-05,2,22
38544,0.00021,0.00028,0.0002,0.00018,-4e-05,-2e-05,-8e-05,-2e-05,2,22
38545,0.00021,0.00028,0.0002,0.00018,-4e-05,-2e-05,-8e-05,-2e-05,2,22
38546,0.00021,0.00028,0.0002,0.00018,-4e-05,-2e-05,-8e-05,-2e-05,2,22
38547,0.00021,0.00028,0.0002,0.00018,-4e-05,-2e-05,-8e-05,-2e-05,2,22
38548,0.00021,0.00028,0.0002,0.00018,-4e-05,-2e-05,-8e-05,-2e-05,2,22
38549,0.00021,0.00028,0.0002,0.00018,-4e-05,-2e-05,-8e-05,-2e-05,2,22
38550,0.00021,0.00028,0.0002,0.00018,-4e-05,-2e-05,-8e-05,-2e-05,2,22
38551,0.00021,0.00028,0.0002,0.00018,-4e-05,-2e-05,-8e-05,-2e-05,2,22
38552,0.00021,0.00028,0.0002,0.00018,-4e-05,-2e-05,-8e-05,-2e-05,2,22
38553,0.00021,0.00028,0.0002,0.00018,-4e-05,-2e-05,-8e-05,-2e-05,2,22
38554,0.00021,0.00028,0.0002,0.00018,-4e-05,-2e-05,-8e-05,-2e-05,2,22
38555,0.00021,0.00028,0.0002,0.00018,-4e-05,-2e-05,-8e-05,-2e-05,2,22
38556,0.00021,0.00028,0.0002,0.00018,-4e-05,-2e-05,-8e-05,-2e-05,2,22
38557,0.00039,0.00071,1e-05,0.00024,-1e-05,0,0,0.0001,2,22
38558,0.00039,0.00071,1e-05,0.00024,-1e-05,0,0,0.0001,2,22
38559,2e-05,0.00035,4e-05,0.00033,-0.00013,-7e-05,-7e-05,-3e-05,2,22
38560,2e-05,0.00035,4e-05,0.00033,-0.00013,-7e-05,-7e-05,-3e-05,2,22
38561,2e-05,0.00035,4e-05,0.00033,-0.00013,-7e-05,-7e-05,-3e-05,2,22
38562,2e-05,0.00035,4e-05,0.00033,-0.00013,-7e-05,-7e-05,-3e-05,2,22
38563,2e-05,0.00035,4e-05,0.00033,-0.00013,-7e-05,-7e-05,-3e-05,2,22
38564,2e-05,0.00035,4e-05,0.00033,-0.00013,-7e-05,-7e-05,-3e-05,2,22
38565,2e-05,0.00035,4e-05,0.00033,-0.00013,-7e-05,-7e-05,-3e-05,2,22
38566,2e-05,0.00035,4e-05,0.00033,-0.00013,-7e-05,-7e-05,-3e-05,2,22
38567,2e-05,0.00035,4e-05,0.00033,-0.00013,-7e-05,-7e-05,-3e-05,2,22
38568,2e-05,0.00035,4e-05,0.00033,-0.00013,-7e-05,-7e-05,-3e-05,2,22
38569,2e-05,0.00035,4e-05,0.00033,-0.00013,-7e-05,-7e-05,-3e-05,2,22
38570,2e-05,0.00035,4e-05,0.00033,-0.00013,-7e-05,-7e-05,-3e-05,2,22
38571,2e-05,0.00035,4e-05,0.00033,-0.00013,-7e-05,-7e-05,-3e-05,2,22
38572,0.00035,2e-05,0.00011,-3e-05,0,0,-9e-05,-0.0001,2,22
38573,4e-05,7e-05,-0.00017,0.00019,-4e-05,-1e-05,-4e-05,-7e-05,2,22
38575,4e-05,7e-05,-0.00017,0.00019,-4e-05,-1e-05,-4e-05,-7e-05,2,22
38576,4e-05,7e-05,-0.00017,0.00019,-4e-05,-1e-05,-4e-05,-7e-05,2,22
38577,4e-05,7e-05,-0.00017,0.00019,-4e-05,-1e-05,-4e-05,-7e-05,2,22
38578,4e-05,7e-05,-0.00017,0.00019,-4e-05,-1e-05,-4e-05,-7e-05,2,22
38579,4e-05,7e-05,-0.00017,0.00019,-4e-05,-1e-05,-4e-05,-7e-05,2,22
38580,4e-05,7e-05,-0.00017,0.00019,-4e-05,-1e-05,-4e-05,-7e-05,2,22
38581,4e-05,7e-05,-0.00017,0.00019,-4e-05,-1e-05,-4e-05,-7e-05,2,22
38582,4e-05,7e-05,-0.00017,0.00019,-4e-05,-1e-05,-4e-05,-7e-05,2,22
38583,4e-05,7e-05,-0.00017,0.00019,-4e-05,-1e-05,-4e-05,-7e-05,2,22
38584,4e-05,7e-05,-0.00017,0.00019,-4e-05,-1e-05,-4e-05,-7e-05,2,22
38585,4e-05,7e-05,-0.00017,0.00019,-4e-05,-1e-05,-4e-05,-7e-05,2,22
38586,-0.00027,6e-05,-2e-05,-0.00024,1e-05,4e-05,-1e-05,-0.00011,2,22
38588,-0.00027,6e-05,-2e-05,-0.00024,1e-05,4e-05,-1e-05,-0.00011,2,22
38589,-0.00027,6e-05,-2e-05,-0.00024,1e-05,4e-05,-1e-05,-0.00011,2,22
38590,-0.00027,6e-05,-2e-05,-0.00024,1e-05,4e-05,-1e-05,-0.00011,2,22
38591,-0.00027,6e-05,-2e-05,-0.00024,1e-05,4e-05,-1e-05,-0.00011,2,22
38592,-0.00027,6e-05,-2e-05,-0.00024,1e-05,4e-05,-1e-05,-0.00011,2,22
38593,-0.00027,6e-05,-2e-05,-0.00024,1e-05,4e-05,-1e-05,-0.00011,2,22
38594,-0.00027,6e-05,-2e-05,-0.00024,1e-05,4e-05,-1e-05,-0.00011,2,22
38595,-0.00027,6e-05,-2e-05,-0.00024,1e-05,4e-05,-1e-05,-0.00011,2,22
38596,-0.00027,6e-05,-2e-05,-0.00024,1e-05,4e-05,-1e-05,-0.00011,2,22
38597,-0.00027,6e-05,-2e-05,-0.00024,1e-05,4e-05,-1e-05,-0.00011,2,22
38598,-0.00027,6e-05,-2e-05,-0.00024,1e-05,4e-05,-1e-05,-0.00011,2,22
38599,-0.00027,6e-05,-2e-05,-0.00024,1e-05,4e-05,-1e-05,-0.00011,2,22
38600,-0.00027,6e-05,-2e-05,-0.00024,1e-05,4e-05,-1e-05,-0.00011,2,22
38601,-0.00015,-0.00033,-2e-05,-0.00019,0,-2e-05,-7e-05,-8e-05,2,22
38602,-0.00015,-0.00033,-2e-05,-0.00019,0,-2e-05,-7e-05,-8e-05,2,22
38603,-0.00015,-0.00033,-2e-05,-0.00019,0,-2e-05,-7e-05,-8e-05,2,22
38604,-0.00015,-0.00033,-2e-05,-0.00019,0,-2e-05,-7e-05,-8e-05,2,22
38605,-0.00015,-0.00033,-2e-05,-0.00019,0,-2e-05,-7e-05,-8e-05,2,22
38606,-0.00015,-0.00033,-2e-05,-0.00019,0,-2e-05,-7e-05,-8e-05,2,22
38607,-0.00015,-0.00033,-2e-05,-0.00019,0,-2e-05,-7e-05,-8e-05,2,22
38608,-0.00015,-0.00033,-2e-05,-0.00019,0,-2e-05,-7e-05,-8e-05,2,22
38609,0.00043,0.00048,-0.00017,0,-0.00015,-2e-05,1e-05,2e-05,2,22
38610,-0.00069,-0.00077,-1e-05,0.00014,8e-05,3e-05,-4e-05,-0.00013,2,22
38611,0.00013,-0.00042,-0.00013,-0.00013,-5e-05,-7e-05,-8e-05,-6e-05,2,22
38612,0.00013,-0.00042,-0.00013,-0.00013,-5e-05,-7e-05,-8e-05,-6e-05,2,22
38613,0.00013,-0.00042,-0.00013,-0.00013,-5e-05,-7e-05,-8e-05,-6e-05,2,22
38614,0.00013,-0.00042,-0.00013,-0.00013,-5e-05,-7e-05,-8e-05,-6e-05,2,22
38615,0.00013,-0.00042,-0.00013,-0.00013,-5e-05,-7e-05,-8e-05,-6e-05,2,22
38616,0.00013,-0.00042,-0.00013,-0.00013,-5e-05,-7e-05,-8e-05,-6e-05,2,22
38617,0.00013,-0.00042,-0.00013,-0.00013,-5e-05,-7e-05,-8e-05,-6e-05,2,22
38618,0.00013,-0.00042,-0.00013,-0.00013,-5e-05,-7e-05,-8e-05,-6e-05,2,22
38619,0.00013,-0.00042,-0.00013,-0.00013,-5e-05,-7e-05,-8e-05,-6e-05,2,22
38620,0.00013,-0.00042,-0.00013,-0.00013,-5e-05,-7e-05,-8e-05,-6e-05,2,22
38621,0.00013,-0.00042,-0.00013,-0.00013,-5e-05,-7e-05,-8e-05,-6e-05,2,22
38622,0.00013,-0.00042,-0.00013,-0.00013,-5e-05,-7e-05,-8e-05,-6e-05,2,22
38623,0.00013,-0.00042,-0.00013,-0.00013,-5e-05,-7e-05,-8e-05,-6e-05,2,22
38624,0.00013,-0.00042,-0.00013,-0.00013,-5e-05,-7e-05,-8e-05,-6e-05,2,22
38625,0.00013,-0.00042,-0.00013,-0.00013,-5e-05,-7e-05,-8e-05,-6e-05,2,22
38626,0.00013,-0.00042,-0.00013,-0.00013,-5e-05,-7e-05,-8e-05,-6e-05,2,22
38627,0.00013,-0.00042,-0.00013,-0.00013,-5e-05,-7e-05,-8e-05,-6e-05,2,22
38628,0.00013,-0.00042,-0.00013,-0.00013,-5e-05,-7e-05,-8e-05,-6e-05,2,22
38629,0.00013,-0.00042,-0.00013,-0.00013,-5e-05,-7e-05,-8e-05,-6e-05,2,22
38630,0.00013,-0.00042,-0.00013,-0.00013,-5e-05,-7e-05,-8e-05,-6e-05,2,22
38631,0.00013,-0.00042,-0.00013,-0.00013,-5e-05,-7e-05,-8e-05,-6e-05,2,22
38632,0.00015,8e-05,-8e-05,0.00022,0.0002,7e-05,-0.00025,-0.00023,2,22
38633,7e-05,-6e-05,-0.00011,-0.00017,-7e-05,-2e-05,3e-05,6e-05,2,22
38634,0.00026,0.00044,0.00014,0.00013,-0.00011,-5e-05,-0.00018,-2e-05,2,22
38635,0.00026,0.00044,0.00014,0.00013,-0.00011,-5e-05,-0.00018,-2e-05,2,22
38636,0.00026,0.00044,0.00014,0.00013,-0.00011,-5e-05,-0.00018,-2e-05,2,22
38638,0.00026,0.00044,0.00014,0.00013,-0.00011,-5e-05,-0.00018,-2e-05,2,22
38639,0.00026,0.00044,0.00014,0.00013,-0.00011,-5e-05,-0.00018,-2e-05,2,22
38640,0.00026,0.00044,0.00014,0.00013,-0.00011,-5e-05,-0.00018,-2e-05,2,22
38642,0.00026,0.00044,0.00014,0.00013,-0.00011,-5e-05,-0.00018,-2e-05,2,22
38643,0.00026,0.00044,0.00014,0.00013,-0.00011,-5e-05,-0.00018,-2e-05,2,22
38644,0.00026,0.00044,0.00014,0.00013,-0.00011,-5e-05,-0.00018,-2e-05,2,22
38645,0.00026,0.00044,0.00014,0.00013,-0.00011,-5e-05,-0.00018,-2e-05,2,22
38646,0.00026,0.00044,0.00014,0.00013,-0.00011,-5e-05,-0.00018,-2e-05,2,22
38647,-0.00023,-0.00038,-0.00013,-0.0002,-9e-05,-4e-05,5e-05,9e-05,2,22
38648,-0.00023,-0.00038,-0.00013,-0.0002,-9e-05,-4e-05,5e-05,9e-05,2,22
38649,-0.00023,-0.00038,-0.00013,-0.0002,-9e-05,-4e-05,5e-05,9e-05,2,22
38650,-0.00023,-0.00038,-0.00013,-0.0002,-9e-05,-4e-05,5e-05,9e-05,2,22
38651,-0.00023,-0.00038,-0.00013,-0.0002,-9e-05,-4e-05,5e-05,9e-05,2,22
38652,-0.00023,-0.00038,-0.00013,-0.0002,-9e-05,-4e-05,5e-05,9e-05,2,22
38653,-0.00023,-0.00038,-0.00013,-0.0002,-9e-05,-4e-05,5e-05,9e-05,2,22
38654,-4e-05,0.00019,6e-05,-5e-05,0.00013,6e-05,2e-05,5e-05,2,22
38655,-4e-05,0.00019,6e-05,-5e-05,0.00013,6e-05,2e-05,5e-05,2,22
38656,-4e-05,0.00019,6e-05,-5e-05,0.00013,6e-05,2e-05,5e-05,2,22
38657,-4e-05,0.00019,6e-05,-5e-05,0.00013,6e-05,2e-05,5e-05,2,22
38658,-4e-05,0.00019,6e-05,-5e-05,0.00013,6e-05,2e-05,5e-05,2,22
38659,-4e-05,0.00019,6e-05,-5e-05,0.00013,6e-05,2e-05,5e-05,2,22
38660,-4e-05,0.00019,6e-05,-5e-05,0.00013,6e-05,2e-05,5e-05,2,22
38661,-4e-05,0.00019,6e-05,-5e-05,0.00013,6e-05,2e-05,5e-05,2,22
38662,-4e-05,0.00019,6e-05,-5e-05,0.00013,6e-05,2e-05,5e-05,2,22
38663,-4e-05,0.00019,6e-05,-5e-05,0.00013,6e-05,2e-05,5e-05,2,22
38664,-4e-05,0.00019,6e-05,-5e-05,0.00013,6e-05,2e-05,5e-05,2,22
38665,-4e-05,0.00019,6e-05,-5e-05,0.00013,6e-05,2e-05,5e-05,2,22
38666,-4e-05,0.00019,6e-05,-5e-05,0.00013,6e-05,2e-05,5e-05,2,22
38667,-4e-05,0.00019,6e-05,-5e-05,0.00013,6e-05,2e-05,5e-05,2,22
38668,-4e-05,0.00019,6e-05,-5e-05,0.00013,6e-05,2e-05,5e-05,2,22
38669,-4e-05,0.00019,6e-05,-5e-05,0.00013,6e-05,2e-05,5e-05,2,22
38670,0.00029,0.00032,5e-05,-0.00012,-0.0002,-4e-05,0,1e-05,2,22
38671,0.00029,0.00032,5e-05,-0.00012,-0.0002,-4e-05,0,1e-05,2,22
38672,9e-05,-0.00028,-0.0002,-0.00035,0.00018,7e-05,0.00016,0.00014,2,22
38673,9e-05,-0.00028,-0.0002,-0.00035,0.00018,7e-05,0.00016,0.00014,2,22
38674,9e-05,-0.00028,-0.0002,-0.00035,0.00018,7e-05,0.00016,0.00014,2,22
38675,9e-05,-0.00028,-0.0002,-0.00035,0.00018,7e-05,0.00016,0.00014,2,22
38676,9e-05,-0.00028,-0.0002,-0.00035,0.00018,7e-05,0.00016,0.00014,2,22
38677,9e-05,-0.00028,-0.0002,-0.00035,0.00018,7e-05,0.00016,0.00014,2,22
38678,9e-05,-0.00028,-0.0002,-0.00035,0.00018,7e-05,0.00016,0.00014,2,22
38679,9e-05,-0.00028,-0.0002,-0.00035,0.00018,7e-05,0.00016,0.00014,2,22
38680,9e-05,-0.00028,-0.0002,-0.00035,0.00018,7e-05,0.00016,0.00014,2,22
38681,9e-05,-0.00028,-0.0002,-0.00035,0.00018,7e-05,0.00016,0.00014,2,22
38682,9e-05,-0.00028,-0.0002,-0.00035,0.00018,7e-05,0.00016,0.00014,2,22
38683,9e-05,-0.00028,-0.0002,-0.00035,0.00018,7e-05,0.00016,0.00014,2,22
38684,9e-05,-0.00028,-0.0002,-0.00035,0.00018,7e-05,0.00016,0.00014,2,22
38685,9e-05,-0.00028,-0.0002,-0.00035,0.00018,7e-05,0.00016,0.00014,2,22
38686,9e-05,-0.00028,-0.0002,-0.00035,0.00018,7e-05,0.00016,0.00014,2,22
38688,9e-05,-0.00028,-0.0002,-0.00035,0.00018,7e-05,0.00016,0.00014,2,22
38689,9e-05,-0.00028,-0.0002,-0.00035,0.00018,7e-05,0.00016,0.00014,2,22
38690,9e-05,-0.00028,-0.0002,-0.00035,0.00018,7e-05,0.00016,0.00014,2,22
38691,9e-05,-0.00028,-0.0002,-0.00035,0.00018,7e-05,0.00016,0.00014,2,22
38692,9e-05,-0.00028,-0.0002,-0.00035,0.00018,7e-05,0.00016,0.00014,2,22
38693,8e-05,0.00011,0,9e-05,1e-05,1e-05,3e-05,-3e-05,2,22
38694,8e-05,-6e-05,3e-05,-0.00029,-9e-05,1e-05,0.00012,0.00013,2,22
38695,0.00026,-7e-05,2e-05,0.00015,-6e-05,-2e-05,8e-05,0.00014,2,22
38696,0.00026,-7e-05,2e-05,0.00015,-6e-05,-2e-05,8e-05,0.00014,2,22
38697,0.00026,-7e-05,2e-05,0.00015,-6e-05,-2e-05,8e-05,0.00014,2,22
38698,0.00026,-7e-05,2e-05,0.00015,-6e-05,-2e-05,8e-05,0.00014,2,22
38699,0.00026,-7e-05,2e-05,0.00015,-6e-05,-2e-05,8e-05,0.00014,2,22
38700,0.00026,-7e-05,2e-05,0.00015,-6e-05,-2e-05,8e-05,0.00014,2,22
38701,0.00026,-7e-05,2e-05,0.00015,-6e-05,-2e-05,8e-05,0.00014,2,22
38702,0.00026,-7e-05,2e-05,0.00015,-6e-05,-2e-05,8e-05,0.00014,2,22
38703,0.00026,-7e-05,2e-05,0.00015,-6e-05,-2e-05,8e-05,0.00014,2,22
38704,0.00026,-7e-05,2e-05,0.00015,-6e-05,-2e-05,8e-05,0.00014,2,22
38705,0.00026,-7e-05,2e-05,0.00015,-6e-05,-2e-05,8e-05,0.00014,2,22
38706,0.00026,-7e-05,2e-05,0.00015,-6e-05,-2e-05,8e-05,0.00014,2,22
38707,9e-05,4e-05,-4e-05,-0.00038,-0.00014,-7e-05,-4e-05,-5e-05,2,22
38708,9e-05,4e-05,-4e-05,-0.00038,-0.00014,-7e-05,-4e-05,-5e-05,2,22
38709,9e-05,4e-05,-4e-05,-0.00038,-0.00014,-7e-05,-4e-05,-5e-05,2,22
38710,9e-05,4e-05,-4e-05,-0.00038,-0.00014,-7e-05,-4e-05,-5e-05,2,22
38711,9e-05,4e-05,-4e-05,-0.00038,-0.00014,-7e-05,-4e-05,-5e-05,2,22
38712,9e-05,4e-05,-4e-05,-0.00038,-0.00014,-7e-05,-4e-05,-5e-05,2,22
38713,9e-05,4e-05,-4e-05,-0.00038,-0.00014,-7e-05,-4e-05,-5e-05,2,22
38714,0.0003,0.00018,-0.00011,-5e-05,-3e-05,-5e-05,-0.00012,-9e-05,2,22
38715,0.0003,0.00018,-0.00011,-5e-05,-3e-05,-5e-05,-0.00012,-9e-05,2,22
38716,0.0003,0.00018,-0.00011,-5e-05,-3e-05,-5e-05,-0.00012,-9e-05,2,22
38717,0.0003,0.00018,-0.00011,-5e-05,-3e-05,-5e-05,-0.00012,-9e-05,2,22
38718,0.0003,0.00018,-0.00011,-5e-05,-3e-05,-5e-05,-0.00012,-9e-05,2,22
38719,0.0003,0.00018,-0.00011,-5e-05,-3e-05,-5e-05,-0.00012,-9e-05,2,22
38720,0.0003,0.00018,-0.00011,-5e-05,-3e-05,-5e-05,-0.00012,-9e-05,2,22
38721,0.0003,0.00018,-0.00011,-5e-05,-3e-05,-5e-05,-0.00012,-9e-05,2,22
38722,0.0003,0.00018,-0.00011,-5e-05,-3e-05,-5e-05,-0.00012,-9e-05,2,22
38723,0.0003,0.00018,-0.00011,-5e-05,-3e-05,-5e-05,-0.00012,-9e-05,2,22
38724,0.0003,0.00018,-0.00011,-5e-05,-3e-05,-5e-05,-0.00012,-9e-05,2,22
38725,0.0003,0.00018,-0.00011,-5e-05,-3e-05,-5e-05,-0.00012,-9e-05,2,22
38726,0.0003,0.00018,-0.00011,-5e-05,-3e-05,-5e-05,-0.00012,-9e-05,2,22
38727,0.0003,0.00018,-0.00011,-5e-05,-3e-05,-5e-05,-0.00012,-9e-05,2,22
38728,0.0003,0.00018,-0.00011,-5e-05,-3e-05,-5e-05,-0.00012,-9e-05,2,22
38729,0.0003,0.00018,-0.00011,-5e-05,-3e-05,-5e-05,-0.00012,-9e-05,2,22
