5414,-0.00015,-0.00018,-6e-05,-0.00102,-0.00073,-5e-05,-0.00098,-0.00054,2,23
5415,-0.00015,-0.00018,-6e-05,-0.00102,-0.00073,-5e-05,-0.00098,-0.00054,2,23
5416,-0.00015,-0.00018,-6e-05,-0.00102,-0.00073,-5e-05,-0.00098,-0.00054,2,23
5417,-0.00015,-0.00018,-6e-05,-0.00102,-0.00073,-5e-05,-0.00098,-0.00054,2,23
5418,-0.00015,-0.00018,-6e-05,-0.00102,-0.00073,-5e-05,-0.00098,-0.00054,2,23
5419,-8e-05,-4e-05,0.00016,0.00075,0.00098,0.00011,0.00034,0.00022,2,23
5420,-8e-05,-4e-05,0.00016,0.00075,0.00098,0.00011,0.00034,0.00022,2,23
5421,0.00013,-7e-05,-8e-05,-0.00049,-0.00054,2e-05,-0.00035,-9e-05,2,23
5422,0.00013,-7e-05,-8e-05,-0.00049,-0.00054,2e-05,-0.00035,-9e-05,2,23
5423,0.00013,-7e-05,-8e-05,-0.00049,-0.00054,2e-05,-0.00035,-9e-05,2,23
5424,0.00013,-7e-05,-8e-05,-0.00049,-0.00054,2e-05,-0.00035,-9e-05,2,23
5425,0.00013,-7e-05,-8e-05,-0.00049,-0.00054,2e-05,-0.00035,-9e-05,2,23
5426,0.00013,-7e-05,-8e-05,-0.00049,-0.00054,2e-05,-0.00035,-9e-05,2,23
5427,0.00013,-7e-05,-8e-05,-0.00049,-0.00054,2e-05,-0.00035,-9e-05,2,23
5428,0.00013,-7e-05,-8e-05,-0.00049,-0.00054,2e-05,-0.00035,-9e-05,2,23
5429,0.00013,-7e-05,-8e-05,-0.00049,-0.00054,2e-05,-0.00035,-9e-05,2,23
5430,0.00013,-7e-05,-8e-05,-0.00049,-0.00054,2e-05,-0.00035,-9e-05,2,23
5431,0.00013,-7e-05,-8e-05,-0.00049,-0.00054,2e-05,-0.00035,-9e-05,2,23
5432,0.00013,-7e-05,-8e-05,-0.00049,-0.00054,2e-05,-0.00035,-9e-05,2,23
5433,0.00013,-7e-05,-8e-05,-0.00049,-0.00054,2e-05,-0.00035,-9e-05,2,23
5434,-0.00028,0.00011,-0.0003,-0.00084,-0.00078,-0.0002,-0.00075,-0.00019,2,23
5435,-0.00028,0.00011,-0.0003,-0.00084,-0.00078,-0.0002,-0.00075,-0.00019,2,23
5436,-0.00028,0.00011,-0.0003,-0.00084,-0.00078,-0.0002,-0.00075,-0.00019,2,23
5438,-0.00028,0.00011,-0.0003,-0.00084,-0.00078,-0.0002,-0.00075,-0.00019,2,23
5439,-0.00028,0.00011,-0.0003,-0.00084,-0.00078,-0.0002,-0.00075,-0.00019,2,23
5440,9e-05,6e-05,0.00014,0.00033,0.00063,-8e-05,0.00072,0.00033,2,23
5441,9e-05,6e-05,0.00014,0.00033,0.00063,-8e-05,0.00072,0.00033,2,23
5442,9e-05,6e-05,0.00014,0.00033,0.00063,-8e-05,0.00072,0.00033,2,23
5443,9e-05,6e-05,0.00014,0.00033,0.00063,-8e-05,0.00072,0.00033,2,23
5444,9e-05,6e-05,0.00014,0.00033,0.00063,-8e-05,0.00072,0.00033,2,23
5445,9e-05,6e-05,0.00014,0.00033,0.00063,-8e-05,0.00072,0.00033,2,23
5446,9e-05,6e-05,0.00014,0.00033,0.00063,-8e-05,0.00072,0.00033,2,23
5447,9e-05,6e-05,0.00014,0.00033,0.00063,-8e-05,0.00072,0.00033,2,23
5448,9e-05,6e-05,0.00014,0.00033,0.00063,-8e-05,0.00072,0.00033,2,23
5449,9e-05,6e-05,0.00014,0.00033,0.00063,-8e-05,0.00072,0.00033,2,23
5450,9e-05,6e-05,0.00014,0.00033,0.00063,-8e-05,0.00072,0.00033,2,23
5451,9e-05,6e-05,0.00014,0.00033,0.00063,-8e-05,0.00072,0.00033,2,23
5452,9e-05,6e-05,0.00014,0.00033,0.00063,-8e-05,0.00072,0.00033,2,23
5453,9e-05,6e-05,0.00014,0.00033,0.00063,-8e-05,0.00072,0.00033,2,23
5454,9e-05,6e-05,0.00014,0.00033,0.00063,-8e-05,0.00072,0.00033,2,23
5455,9e-05,6e-05,0.00014,0.00033,0.00063,-8e-05,0.00072,0.00033,2,23
5456,9e-05,6e-05,0.00014,0.00033,0.00063,-8e-05,0.00072,0.00033,2,23
5457,9e-05,6e-05,0.00014,0.00033,0.00063,-8e-05,0.00072,0.00033,2,23
5458,-5e-05,-0.00018,-6e-05,-0.00095,-0.0006,-4e-05,-0.00054,-8e-05,2,23
5459,-5e-05,-0.00018,-6e-05,-0.00095,-0.0006,-4e-05,-0.00054,-8e-05,2,23
5460,0.00049,0.00025,-1e-05,0.00016,-0.00017,0,0.00023,-0.0001,2,23
5461,0.00049,0.00025,-1e-05,0.00016,-0.00017,0,0.00023,-0.0001,2,23
5462,0.00049,0.00025,-1e-05,0.00016,-0.00017,0,0.00023,-0.0001,2,23
5463,0.00049,0.00025,-1e-05,0.00016,-0.00017,0,0.00023,-0.0001,2,23
5464,0.00049,0.00025,-1e-05,0.00016,-0.00017,0,0.00023,-0.0001,2,23
5465,0.00049,0.00025,-1e-05,0.00016,-0.00017,0,0.00023,-0.0001,2,23
5466,0.00049,0.00025,-1e-05,0.00016,-0.00017,0,0.00023,-0.0001,2,23
5467,0.00049,0.00025,-1e-05,0.00016,-0.00017,0,0.00023,-0.0001,2,23
5468,0.00049,0.00025,-1e-05,0.00016,-0.00017,0,0.00023,-0.0001,2,23
5469,0.00049,0.00025,-1e-05,0.00016,-0.00017,0,0.00023,-0.0001,2,23
5470,0.00049,0.00025,-1e-05,0.00016,-0.00017,0,0.00023,-0.0001,2,23
5471,0.00049,0.00025,-1e-05,0.00016,-0.00017,0,0.00023,-0.0001,2,23
5472,0.00049,0.00025,-1e-05,0.00016,-0.00017,0,0.00023,-0.0001,2,23
5473,0.00049,0.00025,-1e-05,0.00016,-0.00017,0,0.00023,-0.0001,2,23
5474,0.00049,0.00025,-1e-05,0.00016,-0.00017,0,0.00023,-0.0001,2,23
5475,0.00049,0.00025,-1e-05,0.00016,-0.00017,0,0.00023,-0.0001,2,23
5476,0.00049,0.00025,-1e-05,0.00016,-0.00017,0,0.00023,-0.0001,2,23
5477,0.00049,0.00025,-1e-05,0.00016,-0.00017,0,0.00023,-0.0001,2,23
5478,0.00049,0.00025,-1e-05,0.00016,-0.00017,0,0.00023,-0.0001,2,23
5479,0.00049,0.00025,-1e-05,0.00016,-0.00017,0,0.00023,-0.0001,2,23
5480,0.00099,0.00026,0.00017,0.0007,0.0004,7e-05,0.00055,0.00045,2,23
5481,4e-05,-7e-05,-0.00028,-0.00052,-0.00012,9e-05,0.00077,0.00021,2,23
5482,4e-05,-7e-05,-0.00028,-0.00052,-0.00012,9e-05,0.00077,0.00021,2,23
5483,4e-05,-7e-05,-0.00028,-0.00052,-0.00012,9e-05,0.00077,0.00021,2,23
5484,4e-05,-7e-05,-0.00028,-0.00052,-0.00012,9e-05,0.00077,0.00021,2,23
5485,4e-05,-7e-05,-0.00028,-0.00052,-0.00012,9e-05,0.00077,0.00021,2,23
5486,4e-05,-7e-05,-0.00028,-0.00052,-0.00012,9e-05,0.00077,0.00021,2,23
5488,4e-05,-7e-05,-0.00028,-0.00052,-0.00012,9e-05,0.00077,0.00021,2,23
5489,4e-05,-7e-05,-0.00028,-0.00052,-0.00012,9e-05,0.00077,0.00021,2,23
5490,4e-05,-7e-05,-0.00028,-0.00052,-0.00012,9e-05,0.00077,0.00021,2,23
5491,4e-05,-7e-05,-0.00028,-0.00052,-0.00012,9e-05,0.00077,0.00021,2,23
5492,4e-05,-7e-05,-0.00028,-0.00052,-0.00012,9e-05,0.00077,0.00021,2,23
5493,4e-05,-7e-05,-0.00028,-0.00052,-0.00012,9e-05,0.00077,0.00021,2,23
5494,-0.00015,-0.00011,0,0.00011,-0.0003,-8e-05,5e-05,-0.00023,2,23
5495,-0.00015,-0.00011,0,0.00011,-0.0003,-8e-05,5e-05,-0.00023,2,23
5496,-0.00015,-0.00011,0,0.00011,-0.0003,-8e-05,5e-05,-0.00023,2,23
5497,-0.00015,-0.00011,0,0.00011,-0.0003,-8e-05,5e-05,-0.00023,2,23
5498,-0.00015,-0.00011,0,0.00011,-0.0003,-8e-05,5e-05,-0.00023,2,23
5499,-0.00015,-0.00011,0,0.00011,-0.0003,-8e-05,5e-05,-0.00023,2,23
5500,-0.00015,-0.00011,0,0.00011,-0.0003,-8e-05,5e-05,-0.00023,2,23
5501,-8e-05,2e-05,8e-05,-1e-05,-0.00018,-3e-05,-0.00017,0.0001,2,23
5502,-8e-05,2e-05,8e-05,-1e-05,-0.00018,-3e-05,-0.00017,0.0001,2,23
5503,-8e-05,2e-05,8e-05,-1e-05,-0.00018,-3e-05,-0.00017,0.0001,2,23
5504,-8e-05,2e-05,8e-05,-1e-05,-0.00018,-3e-05,-0.00017,0.0001,2,23
5505,-8e-05,2e-05,8e-05,-1e-05,-0.00018,-3e-05,-0.00017,0.0001,2,23
5506,-8e-05,2e-05,8e-05,-1e-05,-0.00018,-3e-05,-0.00017,0.0001,2,23
5507,-8e-05,2e-05,8e-05,-1e-05,-0.00018,-3e-05,-0.00017,0.0001,2,23
5508,-8e-05,2e-05,8e-05,-1e-05,-0.00018,-3e-05,-0.00017,0.0001,2,23
5509,-8e-05,2e-05,8e-05,-1e-05,-0.00018,-3e-05,-0.00017,0.0001,2,23
5510,-8e-05,2e-05,8e-05,-1e-05,-0.00018,-3e-05,-0.00017,0.0001,2,23
5511,-8e-05,2e-05,8e-05,-1e-05,-0.00018,-3e-05,-0.00017,0.0001,2,23
5512,-8e-05,2e-05,8e-05,-1e-05,-0.00018,-3e-05,-0.00017,0.0001,2,23
5513,-8e-05,2e-05,8e-05,-1e-05,-0.00018,-3e-05,-0.00017,0.0001,2,23
5514,-8e-05,2e-05,8e-05,-1e-05,-0.00018,-3e-05,-0.00017,0.0001,2,23
5515,-8e-05,2e-05,8e-05,-1e-05,-0.00018,-3e-05,-0.00017,0.0001,2,23
5516,-8e-05,2e-05,8e-05,-1e-05,-0.00018,-3e-05,-0.00017,0.0001,2,23
5517,-8e-05,-0.00051,-0.0002,8e-05,-6e-05,5e-05,0.00102,0.00039,2,23
5518,-8e-05,-0.00051,-0.0002,8e-05,-6e-05,5e-05,0.00102,0.00039,2,23
5519,-7e-05,-0.00019,-2e-05,-0.00029,-7e-05,0,0.00035,0.0002,2,23
5520,-7e-05,-0.00019,-2e-05,-0.00029,-7e-05,0,0.00035,0.0002,2,23
5521,-7e-05,-0.00019,-2e-05,-0.00029,-7e-05,0,0.00035,0.0002,2,23
5522,-7e-05,-0.00019,-2e-05,-0.00029,-7e-05,0,0.00035,0.0002,2,23
5523,-7e-05,-0.00019,-2e-05,-0.00029,-7e-05,0,0.00035,0.0002,2,23
5524,-7e-05,-0.00019,-2e-05,-0.00029,-7e-05,0,0.00035,0.0002,2,23
5525,-7e-05,-0.00019,-2e-05,-0.00029,-7e-05,0,0.00035,0.0002,2,23
5526,-7e-05,-0.00019,-2e-05,-0.00029,-7e-05,0,0.00035,0.0002,2,23
5527,-7e-05,-0.00019,-2e-05,-0.00029,-7e-05,0,0.00035,0.0002,2,23
5528,-7e-05,-0.00019,-2e-05,-0.00029,-7e-05,0,0.00035,0.0002,2,23
5529,-7e-05,-0.00019,-2e-05,-0.00029,-7e-05,0,0.00035,0.0002,2,23
5530,-7e-05,-0.00019,-2e-05,-0.00029,-7e-05,0,0.00035,0.0002,2,23
5531,-7e-05,-0.00019,-2e-05,-0.00029,-7e-05,0,0.00035,0.0002,2,23
5532,-7e-05,-0.00019,-2e-05,-0.00029,-7e-05,0,0.00035,0.0002,2,23
5533,-7e-05,-0.00019,-2e-05,-0.00029,-7e-05,0,0.00035,0.0002,2,23
5534,-7e-05,-0.00019,-2e-05,-0.00029,-7e-05,0,0.00035,0.0002,2,23
5535,-7e-05,-0.00019,-2e-05,-0.00029,-7e-05,0,0.00035,0.0002,2,23
5536,-7e-05,-0.00019,-2e-05,-0.00029,-7e-05,0,0.00035,0.0002,2,23
5538,-7e-05,-0.00019,-2e-05,-0.00029,-7e-05,0,0.00035,0.0002,2,23
5539,7e-05,0.00026,0.00034,0.00078,0.00053,-7e-05,0.00076,0.00077,2,23
5540,7e-05,0.00026,0.00034,0.00078,0.00053,-7e-05,0.00076,0.00077,2,23
5541,-0.00021,-0.00021,0.00035,0.00127,0.00125,0.00015,-4e-05,-5e-05,2,23
5542,-0.00021,-0.00021,0.00035,0.00127,0.00125,0.00015,-4e-05,-5e-05,2,23
5543,-0.00021,-0.00021,0.00035,0.00127,0.00125,0.00015,-4e-05,-5e-05,2,23
5544,-0.00021,-0.00021,0.00035,0.00127,0.00125,0.00015,-4e-05,-5e-05,2,23
5545,-0.00021,-0.00021,0.00035,0.00127,0.00125,0.00015,-4e-05,-5e-05,2,23
5546,-0.00021,-0.00021,0.00035,0.00127,0.00125,0.00015,-4e-05,-5e-05,2,23
5547,-0.00021,-0.00021,0.00035,0.00127,0.00125,0.00015,-4e-05,-5e-05,2,23
5548,-0.00021,-0.00021,0.00035,0.00127,0.00125,0.00015,-4e-05,-5e-05,2,23
5549,-0.00021,-0.00021,0.00035,0.00127,0.00125,0.00015,-4e-05,-5e-05,2,23
5550,-0.00021,-0.00021,0.00035,0.00127,0.00125,0.00015,-4e-05,-5e-05,2,23
5551,-0.00021,-0.00021,0.00035,0.00127,0.00125,0.00015,-4e-05,-5e-05,2,23
5552,-0.00021,-0.00021,0.00035,0.00127,0.00125,0.00015,-4e-05,-5e-05,2,23
5553,-0.00021,-0.00021,0.00035,0.00127,0.00125,0.00015,-4e-05,-5e-05,2,23
5554,-0.0002,-0.00011,-0.00016,-0.0009,-0.00025,0,-0.00047,0,2,23
5555,-0.0002,-0.00011,-0.00016,-0.0009,-0.00025,0,-0.00047,0,2,23
5556,-0.0002,-0.00011,-0.00016,-0.0009,-0.00025,0,-0.00047,0,2,23
5557,-0.0002,-0.00011,-0.00016,-0.0009,-0.00025,0,-0.00047,0,2,23
5558,-0.0002,-0.00011,-0.00016,-0.0009,-0.00025,0,-0.00047,0,2,23
5559,-0.0002,-0.00011,-0.00016,-0.0009,-0.00025,0,-0.00047,0,2,23
5560,-0.0002,-0.00011,-0.00016,-0.0009,-0.00025,0,-0.00047,0,2,23
5561,-0.0002,-0.00011,-0.00013,-0.00033,-0.00036,-9e-05,-0.00053,3e-05,2,23
5562,-0.0002,-0.00011,-0.00013,-0.00033,-0.00036,-9e-05,-0.00053,3e-05,2,23
5563,-0.0002,-0.00011,-0.00013,-0.00033,-0.00036,-9e-05,-0.00053,3e-05,2,23
5564,-0.0002,-0.00011,-0.00013,-0.00033,-0.00036,-9e-05,-0.00053,3e-05,2,23
5565,-0.0002,-0.00011,-0.00013,-0.00033,-0.00036,-9e-05,-0.00053,3e-05,2,23
5566,-0.0002,-0.00011,-0.00013,-0.00033,-0.00036,-9e-05,-0.00053,3e-05,2,23
5567,-0.0002,-0.00011,-0.00013,-0.00033,-0.00036,-9e-05,-0.00053,3e-05,2,23
5568,-0.0002,-0.00011,-0.00013,-0.00033,-0.00036,-9e-05,-0.00053,3e-05,2,23
5569,-0.0002,-0.00011,-0.00013,-0.00033,-0.00036,-9e-05,-0.00053,3e-05,2,23
5570,-0.0002,-0.00011,-0.00013,-0.00033,-0.00036,-9e-05,-0.00053,3e-05,2,23
5571,-0.0002,-0.00011,-0.00013,-0.00033,-0.00036,-9e-05,-0.00053,3e-05,2,23
5572,-0.0002,-0.00011,-0.00013,-0.00033,-0.00036,-9e-05,-0.00053,3e-05,2,23
5573,-0.0002,-0.00011,-0.00013,-0.00033,-0.00036,-9e-05,-0.00053,3e-05,2,23
5574,-0.0002,-0.00011,-0.00013,-0.00033,-0.00036,-9e-05,-0.00053,3e-05,2,23
5575,-0.0002,-0.00011,-0.00013,-0.00033,-0.00036,-9e-05,-0.00053,3e-05,2,23
5576,-0.0002,-0.00011,-0.00013,-0.00033,-0.00036,-9e-05,-0.00053,3e-05,2,23
5577,-0.00056,-0.00068,-2e-05,-0.00014,0.00023,-5e-05,9e-05,-0.00056,2,23
5578,-0.00056,-0.00068,-2e-05,-0.00014,0.00023,-5e-05,9e-05,-0.00056,2,23
5579,-5e-05,-0.00011,-5e-05,-0.00029,-8e-05,0.00023,0.00038,0.00061,2,23
5580,-5e-05,-0.00011,-5e-05,-0.00029,-8e-05,0.00023,0.00038,0.00061,2,23
5581,-5e-05,-0.00011,-5e-05,-0.00029,-8e-05,0.00023,0.00038,0.00061,2,23
5582,-5e-05,-0.00011,-5e-05,-0.00029,-8e-05,0.00023,0.00038,0.00061,2,23
5583,-5e-05,-0.00011,-5e-05,-0.00029,-8e-05,0.00023,0.00038,0.00061,2,23
5584,-5e-05,-0.00011,-5e-05,-0.00029,-8e-05,0.00023,0.00038,0.00061,2,23
5585,-5e-05,-0.00011,-5e-05,-0.00029,-8e-05,0.00023,0.00038,0.00061,2,23
5586,-5e-05,-0.00011,-5e-05,-0.00029,-8e-05,0.00023,0.00038,0.00061,2,23
5588,-5e-05,-0.00011,-5e-05,-0.00029,-8e-05,0.00023,0.00038,0.00061,2,23
5589,-5e-05,-0.00011,-5e-05,-0.00029,-8e-05,0.00023,0.00038,0.00061,2,23
5590,-5e-05,-0.00011,-5e-05,-0.00029,-8e-05,0.00023,0.00038,0.00061,2,23
5591,-5e-05,-0.00011,-5e-05,-0.00029,-8e-05,0.00023,0.00038,0.00061,2,23
5592,-5e-05,-0.00011,-5e-05,-0.00029,-8e-05,0.00023,0.00038,0.00061,2,23
5593,-5e-05,-0.00011,-5e-05,-0.00029,-8e-05,0.00023,0.00038,0.00061,2,23
5594,-5e-05,-0.00011,-5e-05,-0.00029,-8e-05,0.00023,0.00038,0.00061,2,23
5595,-5e-05,-0.00011,-5e-05,-0.00029,-8e-05,0.00023,0.00038,0.00061,2,23
5596,-5e-05,-0.00011,-5e-05,-0.00029,-8e-05,0.00023,0.00038,0.00061,2,23
5597,-5e-05,-0.00011,-5e-05,-0.00029,-8e-05,0.00023,0.00038,0.00061,2,23
5598,-5e-05,-0.00011,-5e-05,-0.00029,-8e-05,0.00023,0.00038,0.00061,2,23
5599,-0.00011,0.00022,-0.00014,-0.00038,-0.00017,0.0002,-0.00028,0,2,23
5600,-0.00011,0.00022,-0.00014,-0.00038,-0.00017,0.0002,-0.00028,0,2,23
5601,-0.00012,-0.00012,-0.00014,-8e-05,-0.00053,-0.0001,0,-0.00037,2,23
5602,-0.00012,-0.00012,-0.00014,-8e-05,-0.00053,-0.0001,0,-0.00037,2,23
5603,-0.00012,-0.00012,-0.00014,-8e-05,-0.00053,-0.0001,0,-0.00037,2,23
5604,-0.00012,-0.00012,-0.00014,-8e-05,-0.00053,-0.0001,0,-0.00037,2,23
5605,-0.00012,-0.00012,-0.00014,-8e-05,-0.00053,-0.0001,0,-0.00037,2,23
5606,-0.00012,-0.00012,-0.00014,-8e-05,-0.00053,-0.0001,0,-0.00037,2,23
5607,-0.00012,-0.00012,-0.00014,-8e-05,-0.00053,-0.0001,0,-0.00037,2,23
5608,-0.00012,-0.00012,-0.00014,-8e-05,-0.00053,-0.0001,0,-0.00037,2,23
5609,-0.00012,-0.00012,-0.00014,-8e-05,-0.00053,-0.0001,0,-0.00037,2,23
5610,-0.00012,-0.00012,-0.00014,-8e-05,-0.00053,-0.0001,0,-0.00037,2,23
5611,-0.00012,-0.00012,-0.00014,-8e-05,-0.00053,-0.0001,0,-0.00037,2,23
5612,-0.00012,-0.00012,-0.00014,-8e-05,-0.00053,-0.0001,0,-0.00037,2,23
5613,-0.00012,-0.00012,-0.00014,-8e-05,-0.00053,-0.0001,0,-0.00037,2,23
5614,-0.00011,0.0003,2e-05,-0.00101,-0.00059,-0.00014,-0.00055,-8e-05,2,23
5615,-0.00011,0.0003,2e-05,-0.00101,-0.00059,-0.00014,-0.00055,-8e-05,2,23
5616,-0.00011,0.0003,2e-05,-0.00101,-0.00059,-0.00014,-0.00055,-8e-05,2,23
5617,-0.00011,0.0003,2e-05,-0.00101,-0.00059,-0.00014,-0.00055,-8e-05,2,23
5618,-0.00011,0.0003,2e-05,-0.00101,-0.00059,-0.00014,-0.00055,-8e-05,2,23
5619,-0.00011,0.0003,2e-05,-0.00101,-0.00059,-0.00014,-0.00055,-8e-05,2,23
5620,0.00012,-0.00012,0.00012,0.00099,0.00111,0.00023,0.00077,0.00027,2,23
5621,0.00016,0.00024,-8e-05,-0.00096,-0.00022,3e-05,-0.00056,-5e-05,2,23
5622,0.00016,0.00024,-8e-05,-0.00096,-0.00022,3e-05,-0.00056,-5e-05,2,23
5623,0.00016,0.00024,-8e-05,-0.00096,-0.00022,3e-05,-0.00056,-5e-05,2,23
5624,0.00016,0.00024,-8e-05,-0.00096,-0.00022,3e-05,-0.00056,-5e-05,2,23
5625,0.00016,0.00024,-8e-05,-0.00096,-0.00022,3e-05,-0.00056,-5e-05,2,23
5626,0.00016,0.00024,-8e-05,-0.00096,-0.00022,3e-05,-0.00056,-5e-05,2,23
5627,0.00016,0.00024,-8e-05,-0.00096,-0.00022,3e-05,-0.00056,-5e-05,2,23
5628,0.00016,0.00024,-8e-05,-0.00096,-0.00022,3e-05,-0.00056,-5e-05,2,23
5629,0.00016,0.00024,-8e-05,-0.00096,-0.00022,3e-05,-0.00056,-5e-05,2,23
5630,0.00016,0.00024,-8e-05,-0.00096,-0.00022,3e-05,-0.00056,-5e-05,2,23
5631,0.00016,0.00024,-8e-05,-0.00096,-0.00022,3e-05,-0.00056,-5e-05,2,23
5632,0.00016,0.00024,-8e-05,-0.00096,-0.00022,3e-05,-0.00056,-5e-05,2,23
5633,0.00016,0.00024,-8e-05,-0.00096,-0.00022,3e-05,-0.00056,-5e-05,2,23
5634,0.00016,0.00024,-8e-05,-0.00096,-0.00022,3e-05,-0.00056,-5e-05,2,23
5635,0.00016,0.00024,-8e-05,-0.00096,-0.00022,3e-05,-0.00056,-5e-05,2,23
5636,0.00016,0.00024,-8e-05,-0.00096,-0.00022,3e-05,-0.00056,-5e-05,2,23
5639,0.0001,0.00011,5e-05,6e-05,-0.00043,-4e-05,0.00036,0.00019,2,23
5640,0.0001,0.00011,5e-05,6e-05,-0.00043,-4e-05,0.00036,0.00019,2,23
5641,0.0001,0.00011,5e-05,6e-05,-0.00043,-4e-05,0.00036,0.00019,2,23
5642,0.0001,0.00011,5e-05,6e-05,-0.00043,-4e-05,0.00036,0.00019,2,23
5644,0.0001,0.00011,5e-05,6e-05,-0.00043,-4e-05,0.00036,0.00019,2,23
5645,0.0001,0.00011,5e-05,6e-05,-0.00043,-4e-05,0.00036,0.00019,2,23
5646,0.0001,0.00011,5e-05,6e-05,-0.00043,-4e-05,0.00036,0.00019,2,23
5647,0.0001,0.00011,5e-05,6e-05,-0.00043,-4e-05,0.00036,0.00019,2,23
5648,0.0001,0.00011,5e-05,6e-05,-0.00043,-4e-05,0.00036,0.00019,2,23
5649,0.0001,0.00011,5e-05,6e-05,-0.00043,-4e-05,0.00036,0.00019,2,23
5650,0.0001,0.00011,5e-05,6e-05,-0.00043,-4e-05,0.00036,0.00019,2,23
5651,0.0001,0.00011,5e-05,6e-05,-0.00043,-4e-05,0.00036,0.00019,2,23
5652,0.0001,0.00011,5e-05,6e-05,-0.00043,-4e-05,0.00036,0.00019,2,23
5653,0.0001,0.00011,5e-05,6e-05,-0.00043,-4e-05,0.00036,0.00019,2,23
5654,0.0001,0.00011,5e-05,6e-05,-0.00043,-4e-05,0.00036,0.00019,2,23
5655,0.0001,0.00011,5e-05,6e-05,-0.00043,-4e-05,0.00036,0.00019,2,23
5656,0.0001,0.00011,5e-05,6e-05,-0.00043,-4e-05,0.00036,0.00019,2,23
5657,0.0001,0.00011,5e-05,6e-05,-0.00043,-4e-05,0.00036,0.00019,2,23
5658,0.0001,0.00011,5e-05,6e-05,-0.00043,-4e-05,0.00036,0.00019,2,23
5659,-0.0001,0.00038,-5e-05,0.00013,-8e-05,-1e-05,-0.00013,-0.00017,2,23
5660,-0.0001,0.00038,-5e-05,0.00013,-8e-05,-1e-05,-0.00013,-0.00017,2,23
5661,-0.00019,0.0002,5e-05,0.0001,0.00052,-8e-05,-0.0002,0.00018,2,23
5662,-0.00019,0.0002,5e-05,0.0001,0.00052,-8e-05,-0.0002,0.00018,2,23
5663,-0.00019,0.0002,5e-05,0.0001,0.00052,-8e-05,-0.0002,0.00018,2,23
5664,-0.00019,0.0002,5e-05,0.0001,0.00052,-8e-05,-0.0002,0.00018,2,23
5665,-0.00019,0.0002,5e-05,0.0001,0.00052,-8e-05,-0.0002,0.00018,2,23
5666,-0.00019,0.0002,5e-05,0.0001,0.00052,-8e-05,-0.0002,0.00018,2,23
5667,-0.00019,0.0002,5e-05,0.0001,0.00052,-8e-05,-0.0002,0.00018,2,23
5668,-0.00019,0.0002,5e-05,0.0001,0.00052,-8e-05,-0.0002,0.00018,2,23
5669,-0.00019,0.0002,5e-05,0.0001,0.00052,-8e-05,-0.0002,0.00018,2,23
5670,-0.00019,0.0002,5e-05,0.0001,0.00052,-8e-05,-0.0002,0.00018,2,23
5671,-0.00019,0.0002,5e-05,0.0001,0.00052,-8e-05,-0.0002,0.00018,2,23
5672,-0.00019,0.0002,5e-05,0.0001,0.00052,-8e-05,-0.0002,0.00018,2,23
5673,0.00014,2e-05,-0.00024,0.0001,0.00021,-3e-05,-0.00014,0.0001,2,23
5674,0.00014,2e-05,-0.00024,0.0001,0.00021,-3e-05,-0.00014,0.0001,2,23
5675,0.00014,2e-05,-0.00024,0.0001,0.00021,-3e-05,-0.00014,0.0001,2,23
5676,0.00014,2e-05,-0.00024,0.0001,0.00021,-3e-05,-0.00014,0.0001,2,23
5677,0.00014,2e-05,-0.00024,0.0001,0.00021,-3e-05,-0.00014,0.0001,2,23
5678,0.00014,2e-05,-0.00024,0.0001,0.00021,-3e-05,-0.00014,0.0001,2,23
5679,0.00014,2e-05,-0.00024,0.0001,0.00021,-3e-05,-0.00014,0.0001,2,23
5680,0.00014,2e-05,-0.00024,0.0001,0.00021,-3e-05,-0.00014,0.0001,2,23
5681,0.00014,2e-05,-0.00024,0.0001,0.00021,-3e-05,-0.00014,0.0001,2,23
5682,-0.00013,-0.0003,-0.00016,-0.00108,-0.00021,-0.00035,2e-05,-1e-05,2,23
5683,-0.00013,-0.0003,-0.00016,-0.00108,-0.00021,-0.00035,2e-05,-1e-05,2,23
5684,-0.00013,-0.0003,-0.00016,-0.00108,-0.00021,-0.00035,2e-05,-1e-05,2,23
5685,-0.00013,-0.0003,-0.00016,-0.00108,-0.00021,-0.00035,2e-05,-1e-05,2,23
5686,-0.00013,-0.0003,-0.00016,-0.00108,-0.00021,-0.00035,2e-05,-1e-05,2,23
5689,-0.00013,-0.0003,-0.00016,-0.00108,-0.00021,-0.00035,2e-05,-1e-05,2,23
5690,-0.00013,-0.0003,-0.00016,-0.00108,-0.00021,-0.00035,2e-05,-1e-05,2,23
5691,-0.00013,-0.0003,-0.00016,-0.00108,-0.00021,-0.00035,2e-05,-1e-05,2,23
5692,-0.00013,-0.0003,-0.00016,-0.00108,-0.00021,-0.00035,2e-05,-1e-05,2,23
5693,-0.00013,-0.0003,-0.00016,-0.00108,-0.00021,-0.00035,2e-05,-1e-05,2,23
5694,-0.00013,-0.0003,-0.00016,-0.00108,-0.00021,-0.00035,2e-05,-1e-05,2,23
5695,-0.00013,-0.0003,-0.00016,-0.00108,-0.00021,-0.00035,2e-05,-1e-05,2,23
5696,-0.00013,-0.0003,-0.00016,-0.00108,-0.00021,-0.00035,2e-05,-1e-05,2,23
5697,6e-05,3e-05,0.00013,0.00047,0.00097,-3e-05,-0.0011,-1e-05,2,23
5698,-0.00019,-0.00033,0.00012,0.00127,0.00055,0.00021,-0.00034,-0.00012,2,23
5700,-0.00019,-0.00033,0.00012,0.00127,0.00055,0.00021,-0.00034,-0.00012,2,23
5701,-0.00019,-0.00033,0.00012,0.00127,0.00055,0.00021,-0.00034,-0.00012,2,23
5702,-0.00019,-0.00033,0.00012,0.00127,0.00055,0.00021,-0.00034,-0.00012,2,23
5703,-0.00019,-0.00033,0.00012,0.00127,0.00055,0.00021,-0.00034,-0.00012,2,23
5704,-0.00019,-0.00033,0.00012,0.00127,0.00055,0.00021,-0.00034,-0.00012,2,23
5705,-0.00019,-0.00033,0.00012,0.00127,0.00055,0.00021,-0.00034,-0.00012,2,23
5706,-0.00019,-0.00033,0.00012,0.00127,0.00055,0.00021,-0.00034,-0.00012,2,23
5707,-0.00019,-0.00033,0.00012,0.00127,0.00055,0.00021,-0.00034,-0.00012,2,23
5708,-0.00019,-0.00033,0.00012,0.00127,0.00055,0.00021,-0.00034,-0.00012,2,23
5709,-0.00019,-0.00033,0.00012,0.00127,0.00055,0.00021,-0.00034,-0.00012,2,23
5710,-0.00019,-0.00033,0.00012,0.00127,0.00055,0.00021,-0.00034,-0.00012,2,23
5711,-0.00019,-0.00033,0.00012,0.00127,0.00055,0.00021,-0.00034,-0.00012,2,23
5712,-0.00019,-0.00033,0.00012,0.00127,0.00055,0.00021,-0.00034,-0.00012,2,23
5713,-0.00019,-0.00033,0.00012,0.00127,0.00055,0.00021,-0.00034,-0.00012,2,23
5714,-0.00019,-0.00033,0.00012,0.00127,0.00055,0.00021,-0.00034,-0.00012,2,23
5715,-0.00019,-0.00033,0.00012,0.00127,0.00055,0.00021,-0.00034,-0.00012,2,23
5716,-0.00019,-0.00033,0.00012,0.00127,0.00055,0.00021,-0.00034,-0.00012,2,23
5717,-0.00019,-0.00033,0.00012,0.00127,0.00055,0.00021,-0.00034,-0.00012,2,23
5718,-0.00019,-0.00033,0.00012,0.00127,0.00055,0.00021,-0.00034,-0.00012,2,23
5719,-9e-05,0.00024,3e-05,3e-05,-0.00024,-2e-05,-0.00031,8e-05,2,23
5720,-9e-05,0.00024,3e-05,3e-05,-0.00024,-2e-05,-0.00031,8e-05,2,23
5721,-1e-05,0.00018,5e-05,-7e-05,-5e-05,4e-05,-0.00056,-0.00033,2,23
5722,-1e-05,0.00018,5e-05,-7e-05,-5e-05,4e-05,-0.00056,-0.00033,2,23
5723,-1e-05,0.00018,5e-05,-7e-05,-5e-05,4e-05,-0.00056,-0.00033,2,23
5724,-1e-05,0.00018,5e-05,-7e-05,-5e-05,4e-05,-0.00056,-0.00033,2,23
5725,-1e-05,0.00018,5e-05,-7e-05,-5e-05,4e-05,-0.00056,-0.00033,2,23
5726,-1e-05,0.00018,5e-05,-7e-05,-5e-05,4e-05,-0.00056,-0.00033,2,23
5727,-1e-05,0.00018,5e-05,-7e-05,-5e-05,4e-05,-0.00056,-0.00033,2,23
5728,-1e-05,0.00018,5e-05,-7e-05,-5e-05,4e-05,-0.00056,-0.00033,2,23
5729,-1e-05,0.00018,5e-05,-7e-05,-5e-05,4e-05,-0.00056,-0.00033,2,23
5730,-1e-05,0.00018,5e-05,-7e-05,-5e-05,4e-05,-0.00056,-0.00033,2,23
5731,-1e-05,0.00018,5e-05,-7e-05,-5e-05,4e-05,-0.00056,-0.00033,2,23
5732,-1e-05,0.00018,5e-05,-7e-05,-5e-05,4e-05,-0.00056,-0.00033,2,23
5733,0.00049,0.00014,5e-05,0.00012,0.00031,6e-05,6e-05,0.00032,2,23
5734,0.00049,0.00014,5e-05,0.00012,0.00031,6e-05,6e-05,0.00032,2,23
5735,0.00049,0.00014,5e-05,0.00012,0.00031,6e-05,6e-05,0.00032,2,23
5736,0.00049,0.00014,5e-05,0.00012,0.00031,6e-05,6e-05,0.00032,2,23
5738,0.00049,0.00014,5e-05,0.00012,0.00031,6e-05,6e-05,0.00032,2,23
5739,0.00049,0.00014,5e-05,0.00012,0.00031,6e-05,6e-05,0.00032,2,23
5740,0.00049,0.00014,5e-05,0.00012,0.00031,6e-05,6e-05,0.00032,2,23
5741,0.00049,0.00014,5e-05,0.00012,0.00031,6e-05,6e-05,0.00032,2,23
5742,0.00045,0.0004,2e-05,0.00081,0.00077,0.0002,0.00049,-2e-05,2,23
5743,0.00045,0.0004,2e-05,0.00081,0.00077,0.0002,0.00049,-2e-05,2,23
5744,0.00045,0.0004,2e-05,0.00081,0.00077,0.0002,0.00049,-2e-05,2,23
5745,0.00045,0.0004,2e-05,0.00081,0.00077,0.0002,0.00049,-2e-05,2,23
5746,0.00045,0.0004,2e-05,0.00081,0.00077,0.0002,0.00049,-2e-05,2,23
5747,0.00045,0.0004,2e-05,0.00081,0.00077,0.0002,0.00049,-2e-05,2,23
5748,0.00045,0.0004,2e-05,0.00081,0.00077,0.0002,0.00049,-2e-05,2,23
5749,0.00045,0.0004,2e-05,0.00081,0.00077,0.0002,0.00049,-2e-05,2,23
5750,0.00045,0.0004,2e-05,0.00081,0.00077,0.0002,0.00049,-2e-05,2,23
5751,0.00045,0.0004,2e-05,0.00081,0.00077,0.0002,0.00049,-2e-05,2,23
5752,0.00045,0.0004,2e-05,0.00081,0.00077,0.0002,0.00049,-2e-05,2,23
5753,0.00045,0.0004,2e-05,0.00081,0.00077,0.0002,0.00049,-2e-05,2,23
5754,0.00045,0.0004,2e-05,0.00081,0.00077,0.0002,0.00049,-2e-05,2,23
5755,0.00045,0.0004,2e-05,0.00081,0.00077,0.0002,0.00049,-2e-05,2,23
5756,0.00045,0.0004,2e-05,0.00081,0.00077,0.0002,0.00049,-2e-05,2,23
5757,-0.00049,-0.0006,-0.00022,-0.00095,-0.00092,2e-05,-0.00048,-0.00055,2,23
5758,-0.00049,-0.0006,-0.00022,-0.00095,-0.00092,2e-05,-0.00048,-0.00055,2,23
5759,-0.00027,-9e-05,-0.00019,-0.00027,-0.0003,-0.00013,-0.00054,-0.00031,2,23
5760,-0.00027,-9e-05,-0.00019,-0.00027,-0.0003,-0.00013,-0.00054,-0.00031,2,23
5761,-0.00027,-9e-05,-0.00019,-0.00027,-0.0003,-0.00013,-0.00054,-0.00031,2,23
5762,-0.00027,-9e-05,-0.00019,-0.00027,-0.0003,-0.00013,-0.00054,-0.00031,2,23
5763,-0.00027,-9e-05,-0.00019,-0.00027,-0.0003,-0.00013,-0.00054,-0.00031,2,23
5764,-0.00027,-9e-05,-0.00019,-0.00027,-0.0003,-0.00013,-0.00054,-0.00031,2,23
5765,-0.00027,-9e-05,-0.00019,-0.00027,-0.0003,-0.00013,-0.00054,-0.00031,2,23
5766,-0.00027,-9e-05,-0.00019,-0.00027,-0.0003,-0.00013,-0.00054,-0.00031,2,23
5767,-0.00027,-9e-05,-0.00019,-0.00027,-0.0003,-0.00013,-0.00054,-0.00031,2,23
5768,-0.00027,-9e-05,-0.00019,-0.00027,-0.0003,-0.00013,-0.00054,-0.00031,2,23
5769,-0.00027,-9e-05,-0.00019,-0.00027,-0.0003,-0.00013,-0.00054,-0.00031,2,23
5770,-0.00027,-9e-05,-0.00019,-0.00027,-0.0003,-0.00013,-0.00054,-0.00031,2,23
5771,-0.00027,-9e-05,-0.00019,-0.00027,-0.0003,-0.00013,-0.00054,-0.00031,2,23
5772,-0.00027,-9e-05,-0.00019,-0.00027,-0.0003,-0.00013,-0.00054,-0.00031,2,23
5773,-0.00027,-9e-05,-0.00019,-0.00027,-0.0003,-0.00013,-0.00054,-0.00031,2,23
5774,-0.00027,-9e-05,-0.00019,-0.00027,-0.0003,-0.00013,-0.00054,-0.00031,2,23
5775,-0.00027,-9e-05,-0.00019,-0.00027,-0.0003,-0.00013,-0.00054,-0.00031,2,23
5776,-0.00027,-9e-05,-0.00019,-0.00027,-0.0003,-0.00013,-0.00054,-0.00031,2,23
5777,-0.00027,-9e-05,-0.00019,-0.00027,-0.0003,-0.00013,-0.00054,-0.00031,2,23
5778,-0.00027,-9e-05,-0.00019,-0.00027,-0.0003,-0.00013,-0.00054,-0.00031,2,23
5779,-0.00027,-0.00012,1e-05,-0.00018,0.00051,-5e-05,-0.00023,-0.00018,2,23
5780,-0.00027,-0.00012,1e-05,-0.00018,0.00051,-5e-05,-0.00023,-0.00018,2,23
5781,0.00019,-0.00012,-2e-05,-0.00038,0.00051,-0.00013,0.00024,0.00033,2,23
5782,0.00019,-0.00012,-2e-05,-0.00038,0.00051,-0.00013,0.00024,0.00033,2,23
5783,0.00019,-0.00012,-2e-05,-0.00038,0.00051,-0.00013,0.00024,0.00033,2,23
5784,0.00019,-0.00012,-2e-05,-0.00038,0.00051,-0.00013,0.00024,0.00033,2,23
5785,0.00019,-0.00012,-2e-05,-0.00038,0.00051,-0.00013,0.00024,0.00033,2,23
5786,0.00019,-0.00012,-2e-05,-0.00038,0.00051,-0.00013,0.00024,0.00033,2,23
5788,0.00019,-0.00012,-2e-05,-0.00038,0.00051,-0.00013,0.00024,0.00033,2,23
5789,0.00019,-0.00012,-2e-05,-0.00038,0.00051,-0.00013,0.00024,0.00033,2,23
5790,0.00019,-0.00012,-2e-05,-0.00038,0.00051,-0.00013,0.00024,0.00033,2,23
5791,0.00019,-0.00012,-2e-05,-0.00038,0.00051,-0.00013,0.00024,0.00033,2,23
5792,0.00019,-0.00012,-2e-05,-0.00038,0.00051,-0.00013,0.00024,0.00033,2,23
5793,0.00042,0.0001,0.0001,0.00042,-0.00017,-0.00022,0.00045,0.0003,2,23
5794,0.00042,0.0001,0.0001,0.00042,-0.00017,-0.00022,0.00045,0.0003,2,23
5795,0.00042,0.0001,0.0001,0.00042,-0.00017,-0.00022,0.00045,0.0003,2,23
5796,0.00042,0.0001,0.0001,0.00042,-0.00017,-0.00022,0.00045,0.0003,2,23
5797,0.00042,0.0001,0.0001,0.00042,-0.00017,-0.00022,0.00045,0.0003,2,23
5798,0.00042,0.0001,0.0001,0.00042,-0.00017,-0.00022,0.00045,0.0003,2,23
5799,0.00042,0.0001,0.0001,0.00042,-0.00017,-0.00022,0.00045,0.0003,2,23
5800,0.00042,0.0001,0.0001,0.00042,-0.00017,-0.00022,0.00045,0.0003,2,23
5801,-0.00035,-0.00047,-0.00028,-0.00038,-0.00035,-6e-05,-0.00066,-3e-05,2,23
5802,-0.00013,0.00043,0.00037,0.00068,0.00073,-1e-05,-0.00012,-0.00037,2,23
5803,-0.00013,0.00043,0.00037,0.00068,0.00073,-1e-05,-0.00012,-0.00037,2,23
5804,-0.00013,0.00043,0.00037,0.00068,0.00073,-1e-05,-0.00012,-0.00037,2,23
5805,-0.00013,0.00043,0.00037,0.00068,0.00073,-1e-05,-0.00012,-0.00037,2,23
5806,-0.00013,0.00043,0.00037,0.00068,0.00073,-1e-05,-0.00012,-0.00037,2,23
5807,-0.00013,0.00043,0.00037,0.00068,0.00073,-1e-05,-0.00012,-0.00037,2,23
5808,-0.00013,0.00043,0.00037,0.00068,0.00073,-1e-05,-0.00012,-0.00037,2,23
5809,-0.00013,0.00043,0.00037,0.00068,0.00073,-1e-05,-0.00012,-0.00037,2,23
5810,-0.00013,0.00043,0.00037,0.00068,0.00073,-1e-05,-0.00012,-0.00037,2,23
5811,-0.00013,0.00043,0.00037,0.00068,0.00073,-1e-05,-0.00012,-0.00037,2,23
5812,-0.00013,0.00043,0.00037,0.00068,0.00073,-1e-05,-0.00012,-0.00037,2,23
5813,-0.00013,0.00043,0.00037,0.00068,0.00073,-1e-05,-0.00012,-0.00037,2,23
5814,-0.00013,0.00043,0.00037,0.00068,0.00073,-1e-05,-0.00012,-0.00037,2,23
5815,-0.00013,0.00043,0.00037,0.00068,0.00073,-1e-05,-0.00012,-0.00037,2,23
5816,-0.00013,0.00043,0.00037,0.00068,0.00073,-1e-05,-0.00012,-0.00037,2,23
5817,0.00018,9e-05,-8e-05,0.00076,0.00039,0.0003,0.00019,9e-05,2,23
5818,-3e-05,0,1e-05,-0.00023,0.00023,3e-05,-0.00089,-0.00028,2,23
5819,6e-05,-0.00019,-0.00017,-0.00076,-0.00078,-0.0001,-0.00042,-0.00018,2,23
5820,6e-05,-0.00019,-0.00017,-0.00076,-0.00078,-0.0001,-0.00042,-0.00018,2,23
5821,6e-05,-0.00019,-0.00017,-0.00076,-0.00078,-0.0001,-0.00042,-0.00018,2,23
5822,6e-05,-0.00019,-0.00017,-0.00076,-0.00078,-0.0001,-0.00042,-0.00018,2,23
5823,6e-05,-0.00019,-0.00017,-0.00076,-0.00078,-0.0001,-0.00042,-0.00018,2,23
5824,6e-05,-0.00019,-0.00017,-0.00076,-0.00078,-0.0001,-0.00042,-0.00018,2,23
5825,6e-05,-0.00019,-0.00017,-0.00076,-0.00078,-0.0001,-0.00042,-0.00018,2,23
5826,6e-05,-0.00019,-0.00017,-0.00076,-0.00078,-0.0001,-0.00042,-0.00018,2,23
5827,6e-05,-0.00019,-0.00017,-0.00076,-0.00078,-0.0001,-0.00042,-0.00018,2,23
5828,6e-05,-0.00019,-0.00017,-0.00076,-0.00078,-0.0001,-0.00042,-0.00018,2,23
5829,6e-05,-0.00019,-0.00017,-0.00076,-0.00078,-0.0001,-0.00042,-0.00018,2,23
5830,6e-05,-0.00019,-0.00017,-0.00076,-0.00078,-0.0001,-0.00042,-0.00018,2,23
5831,6e-05,-0.00019,-0.00017,-0.00076,-0.00078,-0.0001,-0.00042,-0.00018,2,23
5832,6e-05,-0.00019,-0.00017,-0.00076,-0.00078,-0.0001,-0.00042,-0.00018,2,23
5833,6e-05,-0.00019,-0.00017,-0.00076,-0.00078,-0.0001,-0.00042,-0.00018,2,23
5834,6e-05,-0.00019,-0.00017,-0.00076,-0.00078,-0.0001,-0.00042,-0.00018,2,23
5835,6e-05,-0.00019,-0.00017,-0.00076,-0.00078,-0.0001,-0.00042,-0.00018,2,23
5836,6e-05,-0.00019,-0.00017,-0.00076,-0.00078,-0.0001,-0.00042,-0.00018,2,23
5838,6e-05,-0.00019,-0.00017,-0.00076,-0.00078,-0.0001,-0.00042,-0.00018,2,23
5839,0.00054,0.00015,0.00038,0.00092,0.00062,0.00047,0.00073,0.00095,2,23
5840,0.00054,0.00015,0.00038,0.00092,0.00062,0.00047,0.00073,0.00095,2,23
5841,-0.00011,-0.00016,0,-0.00084,-0.00077,-0.00013,-0.00067,-0.00032,2,23
5842,-0.00011,-0.00016,0,-0.00084,-0.00077,-0.00013,-0.00067,-0.00032,2,23
5843,-0.00011,-0.00016,0,-0.00084,-0.00077,-0.00013,-0.00067,-0.00032,2,23
5844,-0.00011,-0.00016,0,-0.00084,-0.00077,-0.00013,-0.00067,-0.00032,2,23
5845,-0.00011,-0.00016,0,-0.00084,-0.00077,-0.00013,-0.00067,-0.00032,2,23
5846,-0.00011,-0.00016,0,-0.00084,-0.00077,-0.00013,-0.00067,-0.00032,2,23
5847,-0.00011,-0.00016,0,-0.00084,-0.00077,-0.00013,-0.00067,-0.00032,2,23
5848,-0.00011,-0.00016,0,-0.00084,-0.00077,-0.00013,-0.00067,-0.00032,2,23
5849,-0.00011,-0.00016,0,-0.00084,-0.00077,-0.00013,-0.00067,-0.00032,2,23
5850,-0.00011,-0.00016,0,-0.00084,-0.00077,-0.00013,-0.00067,-0.00032,2,23
5851,-0.00011,-0.00016,0,-0.00084,-0.00077,-0.00013,-0.00067,-0.00032,2,23
5852,-0.00011,-0.00016,0,-0.00084,-0.00077,-0.00013,-0.00067,-0.00032,2,23
5853,-2e-05,-2e-05,-1e-05,-0.00062,-0.0012,-3e-05,-0.00074,-0.00048,2,23
5854,-2e-05,-2e-05,-1e-05,-0.00062,-0.0012,-3e-05,-0.00074,-0.00048,2,23
5855,-2e-05,-2e-05,-1e-05,-0.00062,-0.0012,-3e-05,-0.00074,-0.00048,2,23
5856,-2e-05,-2e-05,-1e-05,-0.00062,-0.0012,-3e-05,-0.00074,-0.00048,2,23
5857,-2e-05,-2e-05,-1e-05,-0.00062,-0.0012,-3e-05,-0.00074,-0.00048,2,23
5858,-2e-05,-2e-05,-1e-05,-0.00062,-0.0012,-3e-05,-0.00074,-0.00048,2,23
5859,-2e-05,-2e-05,-1e-05,-0.00062,-0.0012,-3e-05,-0.00074,-0.00048,2,23
5860,-2e-05,-2e-05,-1e-05,-0.00062,-0.0012,-3e-05,-0.00074,-0.00048,2,23
5861,-2e-05,-2e-05,-1e-05,-0.00062,-0.0012,-3e-05,-0.00074,-0.00048,2,23
5862,0.0001,-2e-05,-3e-05,0.00022,-1e-05,0,-7e-05,0.00045,2,23
5863,0.0001,-2e-05,-3e-05,0.00022,-1e-05,0,-7e-05,0.00045,2,23
5864,0.0001,-2e-05,-3e-05,0.00022,-1e-05,0,-7e-05,0.00045,2,23
5865,0.0001,-2e-05,-3e-05,0.00022,-1e-05,0,-7e-05,0.00045,2,23
5866,0.0001,-2e-05,-3e-05,0.00022,-1e-05,0,-7e-05,0.00045,2,23
5867,0.0001,-2e-05,-3e-05,0.00022,-1e-05,0,-7e-05,0.00045,2,23
5868,0.0001,-2e-05,-3e-05,0.00022,-1e-05,0,-7e-05,0.00045,2,23
5869,0.0001,-2e-05,-3e-05,0.00022,-1e-05,0,-7e-05,0.00045,2,23
5870,0.0001,-2e-05,-3e-05,0.00022,-1e-05,0,-7e-05,0.00045,2,23
5871,0.0001,-2e-05,-3e-05,0.00022,-1e-05,0,-7e-05,0.00045,2,23
5872,0.0001,-2e-05,-3e-05,0.00022,-1e-05,0,-7e-05,0.00045,2,23
5873,0.0001,-2e-05,-3e-05,0.00022,-1e-05,0,-7e-05,0.00045,2,23
5874,0.0001,-2e-05,-3e-05,0.00022,-1e-05,0,-7e-05,0.00045,2,23
5875,0.0001,-2e-05,-3e-05,0.00022,-1e-05,0,-7e-05,0.00045,2,23
5876,0.0001,-2e-05,-3e-05,0.00022,-1e-05,0,-7e-05,0.00045,2,23
5877,-0.0001,5e-05,8e-05,0.00041,0.00027,-2e-05,6e-05,-1e-05,2,23
5878,-0.0001,5e-05,8e-05,0.00041,0.00027,-2e-05,6e-05,-1e-05,2,23
5879,0.0001,2e-05,6e-05,-2e-05,0,-8e-05,-0.00102,-4e-05,2,23
5880,0.0001,2e-05,6e-05,-2e-05,0,-8e-05,-0.00102,-4e-05,2,23
5881,0.0001,2e-05,6e-05,-2e-05,0,-8e-05,-0.00102,-4e-05,2,23
5882,0.0001,2e-05,6e-05,-2e-05,0,-8e-05,-0.00102,-4e-05,2,23
5883,0.0001,2e-05,6e-05,-2e-05,0,-8e-05,-0.00102,-4e-05,2,23
5884,0.0001,2e-05,6e-05,-2e-05,0,-8e-05,-0.00102,-4e-05,2,23
5885,0.0001,2e-05,6e-05,-2e-05,0,-8e-05,-0.00102,-4e-05,2,23
5886,0.0001,2e-05,6e-05,-2e-05,0,-8e-05,-0.00102,-4e-05,2,23
5888,0.0001,2e-05,6e-05,-2e-05,0,-8e-05,-0.00102,-4e-05,2,23
5889,0.0001,2e-05,6e-05,-2e-05,0,-8e-05,-0.00102,-4e-05,2,23
5890,0.0001,2e-05,6e-05,-2e-05,0,-8e-05,-0.00102,-4e-05,2,23
5891,0.0001,2e-05,6e-05,-2e-05,0,-8e-05,-0.00102,-4e-05,2,23
5892,0.0001,2e-05,6e-05,-2e-05,0,-8e-05,-0.00102,-4e-05,2,23
5893,0.0001,2e-05,6e-05,-2e-05,0,-8e-05,-0.00102,-4e-05,2,23
5894,0.0001,2e-05,6e-05,-2e-05,0,-8e-05,-0.00102,-4e-05,2,23
5895,0.0001,2e-05,6e-05,-2e-05,0,-8e-05,-0.00102,-4e-05,2,23
5896,0.0001,2e-05,6e-05,-2e-05,0,-8e-05,-0.00102,-4e-05,2,23
5897,0.0001,2e-05,6e-05,-2e-05,0,-8e-05,-0.00102,-4e-05,2,23
5898,0.0001,2e-05,6e-05,-2e-05,0,-8e-05,-0.00102,-4e-05,2,23
5899,0.00049,0.00024,9e-05,-0.00041,-0.00013,6e-05,0.00058,0.00012,2,23
5900,0.00049,0.00024,9e-05,-0.00041,-0.00013,6e-05,0.00058,0.00012,2,23
5901,-5e-05,0.00015,4e-05,0.00055,0.00013,-9e-05,0.00025,5e-05,2,23
5902,-5e-05,0.00015,4e-05,0.00055,0.00013,-9e-05,0.00025,5e-05,2,23
5903,-5e-05,0.00015,4e-05,0.00055,0.00013,-9e-05,0.00025,5e-05,2,23
5904,-5e-05,0.00015,4e-05,0.00055,0.00013,-9e-05,0.00025,5e-05,2,23
5905,-5e-05,0.00015,4e-05,0.00055,0.00013,-9e-05,0.00025,5e-05,2,23
5906,-5e-05,0.00015,4e-05,0.00055,0.00013,-9e-05,0.00025,5e-05,2,23
5907,-5e-05,0.00015,4e-05,0.00055,0.00013,-9e-05,0.00025,5e-05,2,23
5908,-5e-05,0.00015,4e-05,0.00055,0.00013,-9e-05,0.00025,5e-05,2,23
5909,-5e-05,0.00015,4e-05,0.00055,0.00013,-9e-05,0.00025,5e-05,2,23
5910,-5e-05,0.00015,4e-05,0.00055,0.00013,-9e-05,0.00025,5e-05,2,23
5911,-5e-05,0.00015,4e-05,0.00055,0.00013,-9e-05,0.00025,5e-05,2,23
5912,-5e-05,0.00015,4e-05,0.00055,0.00013,-9e-05,0.00025,5e-05,2,23
5913,-0.00051,-0.00013,-0.00016,-0.00109,-7e-05,0.00023,0.00074,-0.00043,2,23
5914,-0.00051,-0.00013,-0.00016,-0.00109,-7e-05,0.00023,0.00074,-0.00043,2,23
5915,-0.00051,-0.00013,-0.00016,-0.00109,-7e-05,0.00023,0.00074,-0.00043,2,23
5916,-0.00051,-0.00013,-0.00016,-0.00109,-7e-05,0.00023,0.00074,-0.00043,2,23
5917,-0.00051,-0.00013,-0.00016,-0.00109,-7e-05,0.00023,0.00074,-0.00043,2,23
5918,-0.00051,-0.00013,-0.00016,-0.00109,-7e-05,0.00023,0.00074,-0.00043,2,23
5919,-0.00051,-0.00013,-0.00016,-0.00109,-7e-05,0.00023,0.00074,-0.00043,2,23
5920,-0.00051,-0.00013,-0.00016,-0.00109,-7e-05,0.00023,0.00074,-0.00043,2,23
5921,-0.00051,-0.00013,-0.00016,-0.00109,-7e-05,0.00023,0.00074,-0.00043,2,23
5922,0.00018,0,-4e-05,-0.00041,-0.00031,-0.00015,-0.00029,9e-05,2,23
5923,0.00018,0,-4e-05,-0.00041,-0.00031,-0.00015,-0.00029,9e-05,2,23
5924,0.00018,0,-4e-05,-0.00041,-0.00031,-0.00015,-0.00029,9e-05,2,23
5925,0.00018,0,-4e-05,-0.00041,-0.00031,-0.00015,-0.00029,9e-05,2,23
5926,0.00018,0,-4e-05,-0.00041,-0.00031,-0.00015,-0.00029,9e-05,2,23
5927,0.00018,0,-4e-05,-0.00041,-0.00031,-0.00015,-0.00029,9e-05,2,23
5928,0.00018,0,-4e-05,-0.00041,-0.00031,-0.00015,-0.00029,9e-05,2,23
5929,0.00018,0,-4e-05,-0.00041,-0.00031,-0.00015,-0.00029,9e-05,2,23
5930,0.00018,0,-4e-05,-0.00041,-0.00031,-0.00015,-0.00029,9e-05,2,23
5931,0.00018,0,-4e-05,-0.00041,-0.00031,-0.00015,-0.00029,9e-05,2,23
5932,0.00018,0,-4e-05,-0.00041,-0.00031,-0.00015,-0.00029,9e-05,2,23
5933,0.00018,0,-4e-05,-0.00041,-0.00031,-0.00015,-0.00029,9e-05,2,23
5934,0.00018,0,-4e-05,-0.00041,-0.00031,-0.00015,-0.00029,9e-05,2,23
5935,0.00018,0,-4e-05,-0.00041,-0.00031,-0.00015,-0.00029,9e-05,2,23
5936,0.00018,0,-4e-05,-0.00041,-0.00031,-0.00015,-0.00029,9e-05,2,23
5939,0.0001,-0.00011,-2e-05,-0.00032,8e-05,0.00019,0.00108,0.00036,2,23
5940,0.0001,-0.00011,-2e-05,-0.00032,8e-05,0.00019,0.00108,0.00036,2,23
5941,0.0001,-0.00011,-2e-05,-0.00032,8e-05,0.00019,0.00108,0.00036,2,23
5942,0.0001,-0.00011,-2e-05,-0.00032,8e-05,0.00019,0.00108,0.00036,2,23
5943,0.0001,-0.00011,-2e-05,-0.00032,8e-05,0.00019,0.00108,0.00036,2,23
5944,0.0001,-0.00011,-2e-05,-0.00032,8e-05,0.00019,0.00108,0.00036,2,23
5945,0.0001,-0.00011,-2e-05,-0.00032,8e-05,0.00019,0.00108,0.00036,2,23
5946,0.0001,-0.00011,-2e-05,-0.00032,8e-05,0.00019,0.00108,0.00036,2,23
5947,0.0001,-0.00011,-2e-05,-0.00032,8e-05,0.00019,0.00108,0.00036,2,23
5948,0.0001,-0.00011,-2e-05,-0.00032,8e-05,0.00019,0.00108,0.00036,2,23
5949,0.0001,-0.00011,-2e-05,-0.00032,8e-05,0.00019,0.00108,0.00036,2,23
5950,0.0001,-0.00011,-2e-05,-0.00032,8e-05,0.00019,0.00108,0.00036,2,23
5952,0.0001,-0.00011,-2e-05,-0.00032,8e-05,0.00019,0.00108,0.00036,2,23
5953,0.0001,-0.00011,-2e-05,-0.00032,8e-05,0.00019,0.00108,0.00036,2,23
5954,0.0001,-0.00011,-2e-05,-0.00032,8e-05,0.00019,0.00108,0.00036,2,23
5955,0.0001,-0.00011,-2e-05,-0.00032,8e-05,0.00019,0.00108,0.00036,2,23
5956,0.0001,-0.00011,-2e-05,-0.00032,8e-05,0.00019,0.00108,0.00036,2,23
5957,0.0001,-0.00011,-2e-05,-0.00032,8e-05,0.00019,0.00108,0.00036,2,23
5958,0.0001,-0.00011,-2e-05,-0.00032,8e-05,0.00019,0.00108,0.00036,2,23
5959,0.00048,4e-05,0.00016,0.00082,5e-05,-4e-05,0.001,0.0006,2,23
5960,0.00048,4e-05,0.00016,0.00082,5e-05,-4e-05,0.001,0.0006,2,23
5961,-0.00033,-0.0002,-0.00011,-3e-05,-0.00012,-2e-05,0.00025,-0.00014,2,23
5962,-0.00033,-0.0002,-0.00011,-3e-05,-0.00012,-2e-05,0.00025,-0.00014,2,23
5963,-0.00033,-0.0002,-0.00011,-3e-05,-0.00012,-2e-05,0.00025,-0.00014,2,23
5964,-0.00033,-0.0002,-0.00011,-3e-05,-0.00012,-2e-05,0.00025,-0.00014,2,23
5965,-0.00033,-0.0002,-0.00011,-3e-05,-0.00012,-2e-05,0.00025,-0.00014,2,23
5966,-0.00033,-0.0002,-0.00011,-3e-05,-0.00012,-2e-05,0.00025,-0.00014,2,23
5967,-0.00033,-0.0002,-0.00011,-3e-05,-0.00012,-2e-05,0.00025,-0.00014,2,23
5968,-0.00033,-0.0002,-0.00011,-3e-05,-0.00012,-2e-05,0.00025,-0.00014,2,23
5969,-0.00033,-0.0002,-0.00011,-3e-05,-0.00012,-2e-05,0.00025,-0.00014,2,23
5971,-0.00033,-0.0002,-0.00011,-3e-05,-0.00012,-2e-05,0.00025,-0.00014,2,23
5972,-0.00033,-0.0002,-0.00011,-3e-05,-0.00012,-2e-05,0.00025,-0.00014,2,23
5973,-0.00026,-2e-05,-3e-05,-0.00077,-0.0004,-0.00028,-0.0008,-0.0003,2,23
5974,-0.00026,-2e-05,-3e-05,-0.00077,-0.0004,-0.00028,-0.0008,-0.0003,2,23
5975,-0.00026,-2e-05,-3e-05,-0.00077,-0.0004,-0.00028,-0.0008,-0.0003,2,23
5976,-0.00026,-2e-05,-3e-05,-0.00077,-0.0004,-0.00028,-0.0008,-0.0003,2,23
5977,-0.00026,-2e-05,-3e-05,-0.00077,-0.0004,-0.00028,-0.0008,-0.0003,2,23
5978,-0.00026,-2e-05,-3e-05,-0.00077,-0.0004,-0.00028,-0.0008,-0.0003,2,23
5979,-0.00026,-2e-05,-3e-05,-0.00077,-0.0004,-0.00028,-0.0008,-0.0003,2,23
5980,-0.00026,-2e-05,-3e-05,-0.00077,-0.0004,-0.00028,-0.0008,-0.0003,2,23
5981,-0.00026,-2e-05,-3e-05,-0.00077,-0.0004,-0.00028,-0.0008,-0.0003,2,23
5982,-9e-05,-0.00014,-9e-05,-0.00016,-7e-05,2e-05,0.00043,-0.00029,2,23
5983,-9e-05,-0.00014,-9e-05,-0.00016,-7e-05,2e-05,0.00043,-0.00029,2,23
5984,-9e-05,-0.00014,-9e-05,-0.00016,-7e-05,2e-05,0.00043,-0.00029,2,23
5985,-9e-05,-0.00014,-9e-05,-0.00016,-7e-05,2e-05,0.00043,-0.00029,2,23
5986,-9e-05,-0.00014,-9e-05,-0.00016,-7e-05,2e-05,0.00043,-0.00029,2,23
5988,-9e-05,-0.00014,-9e-05,-0.00016,-7e-05,2e-05,0.00043,-0.00029,2,23
5989,-9e-05,-0.00014,-9e-05,-0.00016,-7e-05,2e-05,0.00043,-0.00029,2,23
5990,-9e-05,-0.00014,-9e-05,-0.00016,-7e-05,2e-05,0.00043,-0.00029,2,23
5991,-9e-05,-0.00014,-9e-05,-0.00016,-7e-05,2e-05,0.00043,-0.00029,2,23
5992,-9e-05,-0.00014,-9e-05,-0.00016,-7e-05,2e-05,0.00043,-0.00029,2,23
5993,-9e-05,-0.00014,-9e-05,-0.00016,-7e-05,2e-05,0.00043,-0.00029,2,23
5994,-9e-05,-0.00014,-9e-05,-0.00016,-7e-05,2e-05,0.00043,-0.00029,2,23
5995,-9e-05,-0.00014,-9e-05,-0.00016,-7e-05,2e-05,0.00043,-0.00029,2,23
5996,-9e-05,-0.00014,-9e-05,-0.00016,-7e-05,2e-05,0.00043,-0.00029,2,23
5997,-0.00023,-0.00032,-0.00013,-4e-05,0.00015,-7e-05,-0.00084,-0.00015,2,23
5998,-0.00023,-0.00032,-0.00013,-4e-05,0.00015,-7e-05,-0.00084,-0.00015,2,23
5999,0.00017,-0.0001,2e-05,-0.00062,-0.00012,5e-05,0.00048,0.00032,2,23
6000,0.00017,-0.0001,2e-05,-0.00062,-0.00012,5e-05,0.00048,0.00032,2,23
6001,0.00017,-0.0001,2e-05,-0.00062,-0.00012,5e-05,0.00048,0.00032,2,23
6002,0.00017,-0.0001,2e-05,-0.00062,-0.00012,5e-05,0.00048,0.00032,2,23
6003,0.00017,-0.0001,2e-05,-0.00062,-0.00012,5e-05,0.00048,0.00032,2,23
6004,0.00017,-0.0001,2e-05,-0.00062,-0.00012,5e-05,0.00048,0.00032,2,23
6005,0.00017,-0.0001,2e-05,-0.00062,-0.00012,5e-05,0.00048,0.00032,2,23
6006,0.00017,-0.0001,2e-05,-0.00062,-0.00012,5e-05,0.00048,0.00032,2,23
6007,0.00017,-0.0001,2e-05,-0.00062,-0.00012,5e-05,0.00048,0.00032,2,23
6008,0.00017,-0.0001,2e-05,-0.00062,-0.00012,5e-05,0.00048,0.00032,2,23
6009,0.00017,-0.0001,2e-05,-0.00062,-0.00012,5e-05,0.00048,0.00032,2,23
6010,0.00017,-0.0001,2e-05,-0.00062,-0.00012,5e-05,0.00048,0.00032,2,23
6011,0.00017,-0.0001,2e-05,-0.00062,-0.00012,5e-05,0.00048,0.00032,2,23
6012,0.00017,-0.0001,2e-05,-0.00062,-0.00012,5e-05,0.00048,0.00032,2,23
6013,0.00017,-0.0001,2e-05,-0.00062,-0.00012,5e-05,0.00048,0.00032,2,23
6014,0.00017,-0.0001,2e-05,-0.00062,-0.00012,5e-05,0.00048,0.00032,2,23
6015,0.00017,-0.0001,2e-05,-0.00062,-0.00012,5e-05,0.00048,0.00032,2,23
6017,0.00017,-0.0001,2e-05,-0.00062,-0.00012,5e-05,0.00048,0.00032,2,23
6018,0.00017,-0.0001,2e-05,-0.00062,-0.00012,5e-05,0.00048,0.00032,2,23
6019,0.00022,1e-05,0.0003,-6e-05,6e-05,-0.00016,-0.00095,-0.00041,2,23
6020,0.00022,1e-05,0.0003,-6e-05,6e-05,-0.00016,-0.00095,-0.00041,2,23
6021,0.00085,0.00029,0.00019,0.00127,0.0002,0.00021,-0.00018,0.00033,2,23
6022,0.00085,0.00029,0.00019,0.00127,0.0002,0.00021,-0.00018,0.00033,2,23
6023,0.00085,0.00029,0.00019,0.00127,0.0002,0.00021,-0.00018,0.00033,2,23
6024,0.00085,0.00029,0.00019,0.00127,0.0002,0.00021,-0.00018,0.00033,2,23
6025,0.00085,0.00029,0.00019,0.00127,0.0002,0.00021,-0.00018,0.00033,2,23
6026,0.00085,0.00029,0.00019,0.00127,0.0002,0.00021,-0.00018,0.00033,2,23
6027,0.00085,0.00029,0.00019,0.00127,0.0002,0.00021,-0.00018,0.00033,2,23
6028,0.00085,0.00029,0.00019,0.00127,0.0002,0.00021,-0.00018,0.00033,2,23
6029,0.00085,0.00029,0.00019,0.00127,0.0002,0.00021,-0.00018,0.00033,2,23
6030,0.00085,0.00029,0.00019,0.00127,0.0002,0.00021,-0.00018,0.00033,2,23
6031,0.00085,0.00029,0.00019,0.00127,0.0002,0.00021,-0.00018,0.00033,2,23
6032,0.00085,0.00029,0.00019,0.00127,0.0002,0.00021,-0.00018,0.00033,2,23
6033,-0.00043,-0.0001,-9e-05,-0.00076,-0.00043,-0.00024,-2e-05,2e-05,2,23
6034,-0.00043,-0.0001,-9e-05,-0.00076,-0.00043,-0.00024,-2e-05,2e-05,2,23
6035,-0.00043,-0.0001,-9e-05,-0.00076,-0.00043,-0.00024,-2e-05,2e-05,2,23
6036,-0.00043,-0.0001,-9e-05,-0.00076,-0.00043,-0.00024,-2e-05,2e-05,2,23
6038,-0.00043,-0.0001,-9e-05,-0.00076,-0.00043,-0.00024,-2e-05,2e-05,2,23
6039,-0.00043,-0.0001,-9e-05,-0.00076,-0.00043,-0.00024,-2e-05,2e-05,2,23
6040,-0.00043,-0.0001,-9e-05,-0.00076,-0.00043,-0.00024,-2e-05,2e-05,2,23
6041,-0.00043,-0.0001,-9e-05,-0.00076,-0.00043,-0.00024,-2e-05,2e-05,2,23
6042,-0.00047,-0.00012,0.00013,-0.0002,0.00039,-0.00014,-0.00106,-0.00034,2,23
6043,-0.00047,-0.00012,0.00013,-0.0002,0.00039,-0.00014,-0.00106,-0.00034,2,23
6044,-0.00047,-0.00012,0.00013,-0.0002,0.00039,-0.00014,-0.00106,-0.00034,2,23
6045,-0.00047,-0.00012,0.00013,-0.0002,0.00039,-0.00014,-0.00106,-0.00034,2,23
6046,-0.00047,-0.00012,0.00013,-0.0002,0.00039,-0.00014,-0.00106,-0.00034,2,23
6047,-0.00047,-0.00012,0.00013,-0.0002,0.00039,-0.00014,-0.00106,-0.00034,2,23
6048,-0.00047,-0.00012,0.00013,-0.0002,0.00039,-0.00014,-0.00106,-0.00034,2,23
6049,-0.00047,-0.00012,0.00013,-0.0002,0.00039,-0.00014,-0.00106,-0.00034,2,23
6050,-0.00047,-0.00012,0.00013,-0.0002,0.00039,-0.00014,-0.00106,-0.00034,2,23
6051,-0.00047,-0.00012,0.00013,-0.0002,0.00039,-0.00014,-0.00106,-0.00034,2,23
6052,-0.00047,-0.00012,0.00013,-0.0002,0.00039,-0.00014,-0.00106,-0.00034,2,23
6053,-0.00047,-0.00012,0.00013,-0.0002,0.00039,-0.00014,-0.00106,-0.00034,2,23
6054,-0.00047,-0.00012,0.00013,-0.0002,0.00039,-0.00014,-0.00106,-0.00034,2,23
6055,-0.00047,-0.00012,0.00013,-0.0002,0.00039,-0.00014,-0.00106,-0.00034,2,23
6056,-0.00047,-0.00012,0.00013,-0.0002,0.00039,-0.00014,-0.00106,-0.00034,2,23
6057,-0.00024,-0.00023,-0.00023,-0.00048,-0.00034,-7e-05,-0.00046,-2e-05,2,23
6058,-0.00024,-0.00023,-0.00023,-0.00048,-0.00034,-7e-05,-0.00046,-2e-05,2,23
6059,-0.00075,-0.00023,-0.00021,3e-05,-7e-05,-4e-05,-0.00023,-0.00094,2,23
6060,-0.00075,-0.00023,-0.00021,3e-05,-7e-05,-4e-05,-0.00023,-0.00094,2,23
6061,-0.00075,-0.00023,-0.00021,3e-05,-7e-05,-4e-05,-0.00023,-0.00094,2,23
6062,-0.00075,-0.00023,-0.00021,3e-05,-7e-05,-4e-05,-0.00023,-0.00094,2,23
6063,-0.00075,-0.00023,-0.00021,3e-05,-7e-05,-4e-05,-0.00023,-0.00094,2,23
6064,-0.00075,-0.00023,-0.00021,3e-05,-7e-05,-4e-05,-0.00023,-0.00094,2,23
6065,-0.00075,-0.00023,-0.00021,3e-05,-7e-05,-4e-05,-0.00023,-0.00094,2,23
6066,-0.00075,-0.00023,-0.00021,3e-05,-7e-05,-4e-05,-0.00023,-0.00094,2,23
6067,-0.00075,-0.00023,-0.00021,3e-05,-7e-05,-4e-05,-0.00023,-0.00094,2,23
6068,-0.00075,-0.00023,-0.00021,3e-05,-7e-05,-4e-05,-0.00023,-0.00094,2,23
6069,-0.00075,-0.00023,-0.00021,3e-05,-7e-05,-4e-05,-0.00023,-0.00094,2,23
6070,-0.00075,-0.00023,-0.00021,3e-05,-7e-05,-4e-05,-0.00023,-0.00094,2,23
6071,-0.00075,-0.00023,-0.00021,3e-05,-7e-05,-4e-05,-0.00023,-0.00094,2,23
6072,-0.00075,-0.00023,-0.00021,3e-05,-7e-05,-4e-05,-0.00023,-0.00094,2,23
6073,-0.00075,-0.00023,-0.00021,3e-05,-7e-05,-4e-05,-0.00023,-0.00094,2,23
6074,-0.00075,-0.00023,-0.00021,3e-05,-7e-05,-4e-05,-0.00023,-0.00094,2,23
6075,-0.00075,-0.00023,-0.00021,3e-05,-7e-05,-4e-05,-0.00023,-0.00094,2,23
6076,-0.00075,-0.00023,-0.00021,3e-05,-7e-05,-4e-05,-0.00023,-0.00094,2,23
6077,-0.00075,-0.00023,-0.00021,3e-05,-7e-05,-4e-05,-0.00023,-0.00094,2,23
6078,-0.00075,-0.00023,-0.00021,3e-05,-7e-05,-4e-05,-0.00023,-0.00094,2,23
6079,-8e-05,-9e-05,-0.00011,4e-05,-1e-05,-0.00011,-0.00047,-0.00013,2,23
6080,-8e-05,-9e-05,-0.00011,4e-05,-1e-05,-0.00011,-0.00047,-0.00013,2,23
6081,0.00106,0.00046,0.00019,0.00082,0.00093,-2e-05,0.00067,0.00104,2,23
6082,0.00106,0.00046,0.00019,0.00082,0.00093,-2e-05,0.00067,0.00104,2,23
6084,0.00106,0.00046,0.00019,0.00082,0.00093,-2e-05,0.00067,0.00104,2,23
6085,0.00106,0.00046,0.00019,0.00082,0.00093,-2e-05,0.00067,0.00104,2,23
6086,0.00106,0.00046,0.00019,0.00082,0.00093,-2e-05,0.00067,0.00104,2,23
6088,0.00106,0.00046,0.00019,0.00082,0.00093,-2e-05,0.00067,0.00104,2,23
6089,0.00106,0.00046,0.00019,0.00082,0.00093,-2e-05,0.00067,0.00104,2,23
6090,0.00106,0.00046,0.00019,0.00082,0.00093,-2e-05,0.00067,0.00104,2,23
6091,0.00106,0.00046,0.00019,0.00082,0.00093,-2e-05,0.00067,0.00104,2,23
6092,0.00106,0.00046,0.00019,0.00082,0.00093,-2e-05,0.00067,0.00104,2,23
6093,1e-05,-3e-05,-0.00015,-0.00069,-4e-05,5e-05,-3e-05,-5e-05,2,23
6094,1e-05,-3e-05,-0.00015,-0.00069,-4e-05,5e-05,-3e-05,-5e-05,2,23
6095,1e-05,-3e-05,-0.00015,-0.00069,-4e-05,5e-05,-3e-05,-5e-05,2,23
6096,1e-05,-3e-05,-0.00015,-0.00069,-4e-05,5e-05,-3e-05,-5e-05,2,23
6097,1e-05,-3e-05,-0.00015,-0.00069,-4e-05,5e-05,-3e-05,-5e-05,2,23
6098,1e-05,-3e-05,-0.00015,-0.00069,-4e-05,5e-05,-3e-05,-5e-05,2,23
6099,1e-05,-3e-05,-0.00015,-0.00069,-4e-05,5e-05,-3e-05,-5e-05,2,23
6100,1e-05,-3e-05,-0.00015,-0.00069,-4e-05,5e-05,-3e-05,-5e-05,2,23
6101,1e-05,-3e-05,-0.00015,-0.00069,-4e-05,5e-05,-3e-05,-5e-05,2,23
6102,-0.00032,-0.0001,-5e-05,-0.00128,-0.00068,-1e-05,0.00047,-6e-05,2,23
6103,-0.00032,-0.0001,-5e-05,-0.00128,-0.00068,-1e-05,0.00047,-6e-05,2,23
6104,-0.00032,-0.0001,-5e-05,-0.00128,-0.00068,-1e-05,0.00047,-6e-05,2,23
6105,-0.00032,-0.0001,-5e-05,-0.00128,-0.00068,-1e-05,0.00047,-6e-05,2,23
6106,-0.00032,-0.0001,-5e-05,-0.00128,-0.00068,-1e-05,0.00047,-6e-05,2,23
6107,-0.00032,-0.0001,-5e-05,-0.00128,-0.00068,-1e-05,0.00047,-6e-05,2,23
6108,-0.00032,-0.0001,-5e-05,-0.00128,-0.00068,-1e-05,0.00047,-6e-05,2,23
6109,-0.00032,-0.0001,-5e-05,-0.00128,-0.00068,-1e-05,0.00047,-6e-05,2,23
6110,-0.00032,-0.0001,-5e-05,-0.00128,-0.00068,-1e-05,0.00047,-6e-05,2,23
6111,-0.00032,-0.0001,-5e-05,-0.00128,-0.00068,-1e-05,0.00047,-6e-05,2,23
6112,-0.00032,-0.0001,-5e-05,-0.00128,-0.00068,-1e-05,0.00047,-6e-05,2,23
6113,-0.00032,-0.0001,-5e-05,-0.00128,-0.00068,-1e-05,0.00047,-6e-05,2,23
6114,-0.00032,-0.0001,-5e-05,-0.00128,-0.00068,-1e-05,0.00047,-6e-05,2,23
6115,-0.00032,-0.0001,-5e-05,-0.00128,-0.00068,-1e-05,0.00047,-6e-05,2,23
6116,-0.00032,-0.0001,-5e-05,-0.00128,-0.00068,-1e-05,0.00047,-6e-05,2,23
6117,0.00065,0.00035,0.0001,0.00102,0.00014,4e-05,0.00051,0.00063,2,23
6118,-0.00071,-0.001,-9e-05,-0.00016,-0.00014,0,-0.00112,-0.00056,2,23
6119,-0.00071,-0.001,-9e-05,-0.00016,-0.00014,0,-0.00112,-0.00056,2,23
6120,-0.00071,-0.001,-9e-05,-0.00016,-0.00014,0,-0.00112,-0.00056,2,23
6121,-0.00071,-0.001,-9e-05,-0.00016,-0.00014,0,-0.00112,-0.00056,2,23
6122,-0.00071,-0.001,-9e-05,-0.00016,-0.00014,0,-0.00112,-0.00056,2,23
6123,-0.00071,-0.001,-9e-05,-0.00016,-0.00014,0,-0.00112,-0.00056,2,23
6124,-0.00071,-0.001,-9e-05,-0.00016,-0.00014,0,-0.00112,-0.00056,2,23
6125,-0.00071,-0.001,-9e-05,-0.00016,-0.00014,0,-0.00112,-0.00056,2,23
6126,-0.00071,-0.001,-9e-05,-0.00016,-0.00014,0,-0.00112,-0.00056,2,23
6127,-0.00071,-0.001,-9e-05,-0.00016,-0.00014,0,-0.00112,-0.00056,2,23
6128,-0.00071,-0.001,-9e-05,-0.00016,-0.00014,0,-0.00112,-0.00056,2,23
6129,-0.00071,-0.001,-9e-05,-0.00016,-0.00014,0,-0.00112,-0.00056,2,23
6130,-0.00071,-0.001,-9e-05,-0.00016,-0.00014,0,-0.00112,-0.00056,2,23
6131,-0.00071,-0.001,-9e-05,-0.00016,-0.00014,0,-0.00112,-0.00056,2,23
6132,-0.00071,-0.001,-9e-05,-0.00016,-0.00014,0,-0.00112,-0.00056,2,23
6133,-0.00071,-0.001,-9e-05,-0.00016,-0.00014,0,-0.00112,-0.00056,2,23
6134,-0.00071,-0.001,-9e-05,-0.00016,-0.00014,0,-0.00112,-0.00056,2,23
6135,-0.00071,-0.001,-9e-05,-0.00016,-0.00014,0,-0.00112,-0.00056,2,23
6136,-0.00071,-0.001,-9e-05,-0.00016,-0.00014,0,-0.00112,-0.00056,2,23
6138,-0.00071,-0.001,-9e-05,-0.00016,-0.00014,0,-0.00112,-0.00056,2,23
6139,-0.0001,-4e-05,-0.0001,-0.00018,-0.0002,0,0.00043,-0.00015,2,23
6140,-0.0001,-4e-05,-0.0001,-0.00018,-0.0002,0,0.00043,-0.00015,2,23
6141,0.00034,0.0001,2e-05,0.00022,-0.00025,0.0001,0.00055,0.00035,2,23
6142,0.00034,0.0001,2e-05,0.00022,-0.00025,0.0001,0.00055,0.00035,2,23
6143,0.00034,0.0001,2e-05,0.00022,-0.00025,0.0001,0.00055,0.00035,2,23
6144,0.00034,0.0001,2e-05,0.00022,-0.00025,0.0001,0.00055,0.00035,2,23
6145,0.00034,0.0001,2e-05,0.00022,-0.00025,0.0001,0.00055,0.00035,2,23
6146,0.00034,0.0001,2e-05,0.00022,-0.00025,0.0001,0.00055,0.00035,2,23
6147,0.00034,0.0001,2e-05,0.00022,-0.00025,0.0001,0.00055,0.00035,2,23
6148,0.00034,0.0001,2e-05,0.00022,-0.00025,0.0001,0.00055,0.00035,2,23
6149,0.00034,0.0001,2e-05,0.00022,-0.00025,0.0001,0.00055,0.00035,2,23
6150,0.00034,0.0001,2e-05,0.00022,-0.00025,0.0001,0.00055,0.00035,2,23
6151,0.00034,0.0001,2e-05,0.00022,-0.00025,0.0001,0.00055,0.00035,2,23
6152,0.00034,0.0001,2e-05,0.00022,-0.00025,0.0001,0.00055,0.00035,2,23
6153,0.00034,0.0001,2e-05,0.00022,-0.00025,0.0001,0.00055,0.00035,2,23
6154,0.00034,0.0001,2e-05,0.00022,-0.00025,0.0001,0.00055,0.00035,2,23
6155,0.00034,0.0001,2e-05,0.00022,-0.00025,0.0001,0.00055,0.00035,2,23
6156,0.00034,0.0001,2e-05,0.00022,-0.00025,0.0001,0.00055,0.00035,2,23
6157,0.00034,0.0001,2e-05,0.00022,-0.00025,0.0001,0.00055,0.00035,2,23
6158,0.00034,0.0001,2e-05,0.00022,-0.00025,0.0001,0.00055,0.00035,2,23
6159,0.00034,0.0001,2e-05,0.00022,-0.00025,0.0001,0.00055,0.00035,2,23
6160,0.00034,0.0001,2e-05,0.00022,-0.00025,0.0001,0.00055,0.00035,2,23
6161,0.00034,0.0001,2e-05,0.00022,-0.00025,0.0001,0.00055,0.00035,2,23
6162,0.00092,0.00046,0.00044,0.00121,0.00072,0.00023,0.00108,0.00103,2,23
6163,-0.00042,-0.00024,-3e-05,-0.00056,-0.00019,-8e-05,-7e-05,-0.00032,2,23
6164,1e-05,0.00025,-0.00015,-0.00078,-0.0003,0.00011,-0.00018,-0.00025,2,23
6165,1e-05,0.00025,-0.00015,-0.00078,-0.0003,0.00011,-0.00018,-0.00025,2,23
6166,1e-05,0.00025,-0.00015,-0.00078,-0.0003,0.00011,-0.00018,-0.00025,2,23
6167,1e-05,0.00025,-0.00015,-0.00078,-0.0003,0.00011,-0.00018,-0.00025,2,23
6168,1e-05,0.00025,-0.00015,-0.00078,-0.0003,0.00011,-0.00018,-0.00025,2,23
6169,1e-05,0.00025,-0.00015,-0.00078,-0.0003,0.00011,-0.00018,-0.00025,2,23
6170,1e-05,0.00025,-0.00015,-0.00078,-0.0003,0.00011,-0.00018,-0.00025,2,23
6171,1e-05,0.00025,-0.00015,-0.00078,-0.0003,0.00011,-0.00018,-0.00025,2,23
6172,1e-05,0.00025,-0.00015,-0.00078,-0.0003,0.00011,-0.00018,-0.00025,2,23
6173,1e-05,0.00025,-0.00015,-0.00078,-0.0003,0.00011,-0.00018,-0.00025,2,23
6174,1e-05,0.00025,-0.00015,-0.00078,-0.0003,0.00011,-0.00018,-0.00025,2,23
6175,1e-05,0.00025,-0.00015,-0.00078,-0.0003,0.00011,-0.00018,-0.00025,2,23
6176,1e-05,0.00025,-0.00015,-0.00078,-0.0003,0.00011,-0.00018,-0.00025,2,23
6177,-0.00015,3e-05,0.00024,0.00057,0.001,-9e-05,-0.00093,-9e-05,2,23
6178,-0.00015,3e-05,0.00024,0.00057,0.001,-9e-05,-0.00093,-9e-05,2,23
6179,-0.00012,0.00012,5e-05,-0.00031,0.00013,-3e-05,-0.00054,-0.0001,2,23
6180,-0.00012,0.00012,5e-05,-0.00031,0.00013,-3e-05,-0.00054,-0.0001,2,23
6181,-0.00012,0.00012,5e-05,-0.00031,0.00013,-3e-05,-0.00054,-0.0001,2,23
6182,-0.00012,0.00012,5e-05,-0.00031,0.00013,-3e-05,-0.00054,-0.0001,2,23
6183,-0.00012,0.00012,5e-05,-0.00031,0.00013,-3e-05,-0.00054,-0.0001,2,23
6184,-0.00012,0.00012,5e-05,-0.00031,0.00013,-3e-05,-0.00054,-0.0001,2,23
6185,-0.00012,0.00012,5e-05,-0.00031,0.00013,-3e-05,-0.00054,-0.0001,2,23
6186,-0.00012,0.00012,5e-05,-0.00031,0.00013,-3e-05,-0.00054,-0.0001,2,23
6188,-0.00012,0.00012,5e-05,-0.00031,0.00013,-3e-05,-0.00054,-0.0001,2,23
6189,-0.00012,0.00012,5e-05,-0.00031,0.00013,-3e-05,-0.00054,-0.0001,2,23
6190,-0.00012,0.00012,5e-05,-0.00031,0.00013,-3e-05,-0.00054,-0.0001,2,23
6191,-0.00012,0.00012,5e-05,-0.00031,0.00013,-3e-05,-0.00054,-0.0001,2,23
6192,-0.00012,0.00012,5e-05,-0.00031,0.00013,-3e-05,-0.00054,-0.0001,2,23
6193,-0.00012,0.00012,5e-05,-0.00031,0.00013,-3e-05,-0.00054,-0.0001,2,23
6194,-0.00012,0.00012,5e-05,-0.00031,0.00013,-3e-05,-0.00054,-0.0001,2,23
6195,-0.00012,0.00012,5e-05,-0.00031,0.00013,-3e-05,-0.00054,-0.0001,2,23
6196,-0.00012,0.00012,5e-05,-0.00031,0.00013,-3e-05,-0.00054,-0.0001,2,23
6197,-0.00012,0.00012,5e-05,-0.00031,0.00013,-3e-05,-0.00054,-0.0001,2,23
6198,-0.00012,0.00012,5e-05,-0.00031,0.00013,-3e-05,-0.00054,-0.0001,2,23
6199,-0.00054,-0.00035,-0.00029,-0.00096,-0.00083,0,-0.00082,-0.00088,2,23
6200,-0.00054,-0.00035,-0.00029,-0.00096,-0.00083,0,-0.00082,-0.00088,2,23
6201,-0.00031,-7e-05,9e-05,0.00061,0.00036,-8e-05,-0.00019,-0.00031,2,23
6202,-0.00031,-7e-05,9e-05,0.00061,0.00036,-8e-05,-0.00019,-0.00031,2,23
6203,-0.00031,-7e-05,9e-05,0.00061,0.00036,-8e-05,-0.00019,-0.00031,2,23
6204,-0.00031,-7e-05,9e-05,0.00061,0.00036,-8e-05,-0.00019,-0.00031,2,23
6205,-0.00031,-7e-05,9e-05,0.00061,0.00036,-8e-05,-0.00019,-0.00031,2,23
6206,-0.00031,-7e-05,9e-05,0.00061,0.00036,-8e-05,-0.00019,-0.00031,2,23
6207,-0.00031,-7e-05,9e-05,0.00061,0.00036,-8e-05,-0.00019,-0.00031,2,23
6208,-0.00031,-7e-05,9e-05,0.00061,0.00036,-8e-05,-0.00019,-0.00031,2,23
6209,-0.00031,-7e-05,9e-05,0.00061,0.00036,-8e-05,-0.00019,-0.00031,2,23
6210,-0.00031,-7e-05,9e-05,0.00061,0.00036,-8e-05,-0.00019,-0.00031,2,23
6211,-0.00031,-7e-05,9e-05,0.00061,0.00036,-8e-05,-0.00019,-0.00031,2,23
6212,-0.00031,-7e-05,9e-05,0.00061,0.00036,-8e-05,-0.00019,-0.00031,2,23
6213,-0.00031,-7e-05,9e-05,0.00061,0.00036,-8e-05,-0.00019,-0.00031,2,23
6214,-0.00031,-7e-05,9e-05,0.00061,0.00036,-8e-05,-0.00019,-0.00031,2,23
6215,-0.00031,-7e-05,9e-05,0.00061,0.00036,-8e-05,-0.00019,-0.00031,2,23
6216,-0.00031,-7e-05,9e-05,0.00061,0.00036,-8e-05,-0.00019,-0.00031,2,23
6217,-0.00031,-7e-05,9e-05,0.00061,0.00036,-8e-05,-0.00019,-0.00031,2,23
6218,-0.00031,-7e-05,9e-05,0.00061,0.00036,-8e-05,-0.00019,-0.00031,2,23
6219,-0.00031,-7e-05,9e-05,0.00061,0.00036,-8e-05,-0.00019,-0.00031,2,23
6220,-0.00031,-7e-05,9e-05,0.00061,0.00036,-8e-05,-0.00019,-0.00031,2,23
6221,-0.00031,-7e-05,9e-05,0.00061,0.00036,-8e-05,-0.00019,-0.00031,2,23
6222,-0.00044,-0.00011,-0.00019,-0.0004,-0.00014,-5e-05,-0.00052,-0.00061,2,23
6223,0.00045,0.00019,5e-05,-0.00045,-0.00048,-7e-05,0.00096,0.00045,2,23
6224,-5e-05,-8e-05,-9e-05,-0.00022,-0.00026,1e-05,-1e-05,-0.0001,2,23
6225,-5e-05,-8e-05,-9e-05,-0.00022,-0.00026,1e-05,-1e-05,-0.0001,2,23
6226,-5e-05,-8e-05,-9e-05,-0.00022,-0.00026,1e-05,-1e-05,-0.0001,2,23
6227,-5e-05,-8e-05,-9e-05,-0.00022,-0.00026,1e-05,-1e-05,-0.0001,2,23
6228,-5e-05,-8e-05,-9e-05,-0.00022,-0.00026,1e-05,-1e-05,-0.0001,2,23
6229,-5e-05,-8e-05,-9e-05,-0.00022,-0.00026,1e-05,-1e-05,-0.0001,2,23
6230,-5e-05,-8e-05,-9e-05,-0.00022,-0.00026,1e-05,-1e-05,-0.0001,2,23
6231,-5e-05,-8e-05,-9e-05,-0.00022,-0.00026,1e-05,-1e-05,-0.0001,2,23
6232,-5e-05,-8e-05,-9e-05,-0.00022,-0.00026,1e-05,-1e-05,-0.0001,2,23
6233,-5e-05,-8e-05,-9e-05,-0.00022,-0.00026,1e-05,-1e-05,-0.0001,2,23
6234,-5e-05,-8e-05,-9e-05,-0.00022,-0.00026,1e-05,-1e-05,-0.0001,2,23
6235,-5e-05,-8e-05,-9e-05,-0.00022,-0.00026,1e-05,-1e-05,-0.0001,2,23
6236,-5e-05,-8e-05,-9e-05,-0.00022,-0.00026,1e-05,-1e-05,-0.0001,2,23
6238,-5e-05,-8e-05,-9e-05,-0.00022,-0.00026,1e-05,-1e-05,-0.0001,2,23
6239,-5e-05,-8e-05,-9e-05,-0.00022,-0.00026,1e-05,-1e-05,-0.0001,2,23
6240,-5e-05,-8e-05,-9e-05,-0.00022,-0.00026,1e-05,-1e-05,-0.0001,2,23
6241,-5e-05,-8e-05,-9e-05,-0.00022,-0.00026,1e-05,-1e-05,-0.0001,2,23
6242,-5e-05,-8e-05,-9e-05,-0.00022,-0.00026,1e-05,-1e-05,-0.0001,2,23
6243,-5e-05,-8e-05,-9e-05,-0.00022,-0.00026,1e-05,-1e-05,-0.0001,2,23
6244,-7e-05,0.00021,3e-05,-0.00012,-8e-05,7e-05,0.00073,9e-05,2,23
6245,-7e-05,0.00021,3e-05,-0.00012,-8e-05,7e-05,0.00073,9e-05,2,23
6246,0.00017,0.00014,7e-05,0.00086,0.0001,-0.0001,0.00049,0.00032,2,23
6247,0.00017,0.00014,7e-05,0.00086,0.0001,-0.0001,0.00049,0.00032,2,23
6248,0.00017,0.00014,7e-05,0.00086,0.0001,-0.0001,0.00049,0.00032,2,23
6249,0.00017,0.00014,7e-05,0.00086,0.0001,-0.0001,0.00049,0.00032,2,23
6251,0.00017,0.00014,7e-05,0.00086,0.0001,-0.0001,0.00049,0.00032,2,23
6252,0.00017,0.00014,7e-05,0.00086,0.0001,-0.0001,0.00049,0.00032,2,23
6253,0.00017,0.00014,7e-05,0.00086,0.0001,-0.0001,0.00049,0.00032,2,23
6254,0.00017,0.00014,7e-05,0.00086,0.0001,-0.0001,0.00049,0.00032,2,23
6255,0.00017,0.00014,7e-05,0.00086,0.0001,-0.0001,0.00049,0.00032,2,23
6256,0.00017,0.00014,7e-05,0.00086,0.0001,-0.0001,0.00049,0.00032,2,23
6257,0.00017,0.00014,7e-05,0.00086,0.0001,-0.0001,0.00049,0.00032,2,23
6258,0.00017,0.00014,7e-05,0.00086,0.0001,-0.0001,0.00049,0.00032,2,23
6259,4e-05,-6e-05,0.00014,0.00078,-0.00016,0.00011,0.00093,0.00051,2,23
6260,4e-05,-6e-05,0.00014,0.00078,-0.00016,0.00011,0.00093,0.00051,2,23
6261,0.00017,8e-05,1e-05,-0.00063,-0.00039,1e-05,-3e-05,0.00016,2,23
6262,0.00017,8e-05,1e-05,-0.00063,-0.00039,1e-05,-3e-05,0.00016,2,23
6263,0.00017,8e-05,1e-05,-0.00063,-0.00039,1e-05,-3e-05,0.00016,2,23
6264,0.00017,8e-05,1e-05,-0.00063,-0.00039,1e-05,-3e-05,0.00016,2,23
6265,0.00017,8e-05,1e-05,-0.00063,-0.00039,1e-05,-3e-05,0.00016,2,23
6266,0.00017,8e-05,1e-05,-0.00063,-0.00039,1e-05,-3e-05,0.00016,2,23
6267,0.00017,8e-05,1e-05,-0.00063,-0.00039,1e-05,-3e-05,0.00016,2,23
6268,0.00017,8e-05,1e-05,-0.00063,-0.00039,1e-05,-3e-05,0.00016,2,23
6269,0.00017,8e-05,1e-05,-0.00063,-0.00039,1e-05,-3e-05,0.00016,2,23
6270,0.00017,8e-05,1e-05,-0.00063,-0.00039,1e-05,-3e-05,0.00016,2,23
6271,0.00017,8e-05,1e-05,-0.00063,-0.00039,1e-05,-3e-05,0.00016,2,23
6272,0.00017,8e-05,1e-05,-0.00063,-0.00039,1e-05,-3e-05,0.00016,2,23
6273,0.00017,8e-05,1e-05,-0.00063,-0.00039,1e-05,-3e-05,0.00016,2,23
6274,0.00017,8e-05,1e-05,-0.00063,-0.00039,1e-05,-3e-05,0.00016,2,23
6275,0.00017,8e-05,1e-05,-0.00063,-0.00039,1e-05,-3e-05,0.00016,2,23
6276,0.00017,8e-05,1e-05,-0.00063,-0.00039,1e-05,-3e-05,0.00016,2,23
6277,0.00017,8e-05,1e-05,-0.00063,-0.00039,1e-05,-3e-05,0.00016,2,23
6278,0.00017,8e-05,1e-05,-0.00063,-0.00039,1e-05,-3e-05,0.00016,2,23
6279,0.00017,8e-05,1e-05,-0.00063,-0.00039,1e-05,-3e-05,0.00016,2,23
6280,0.00017,8e-05,1e-05,-0.00063,-0.00039,1e-05,-3e-05,0.00016,2,23
6281,0.00017,8e-05,1e-05,-0.00063,-0.00039,1e-05,-3e-05,0.00016,2,23
6282,-3e-05,-1e-05,-0.00013,-0.00021,-0.00024,8e-05,-0.00028,-3e-05,2,23
6283,-4e-05,-0.00019,8e-05,0.00016,0.00017,4e-05,-0.00099,-0.00011,2,23
6284,-5e-05,7e-05,-8e-05,-0.00019,-0.00012,-0.00012,-0.00093,-0.00035,2,23
6285,-5e-05,7e-05,-8e-05,-0.00019,-0.00012,-0.00012,-0.00093,-0.00035,2,23
6286,-5e-05,7e-05,-8e-05,-0.00019,-0.00012,-0.00012,-0.00093,-0.00035,2,23
6288,-5e-05,7e-05,-8e-05,-0.00019,-0.00012,-0.00012,-0.00093,-0.00035,2,23
6289,-5e-05,7e-05,-8e-05,-0.00019,-0.00012,-0.00012,-0.00093,-0.00035,2,23
6290,-5e-05,7e-05,-8e-05,-0.00019,-0.00012,-0.00012,-0.00093,-0.00035,2,23
6291,-5e-05,7e-05,-8e-05,-0.00019,-0.00012,-0.00012,-0.00093,-0.00035,2,23
6292,-5e-05,7e-05,-8e-05,-0.00019,-0.00012,-0.00012,-0.00093,-0.00035,2,23
6293,-5e-05,7e-05,-8e-05,-0.00019,-0.00012,-0.00012,-0.00093,-0.00035,2,23
6294,-5e-05,7e-05,-8e-05,-0.00019,-0.00012,-0.00012,-0.00093,-0.00035,2,23
6295,-5e-05,7e-05,-8e-05,-0.00019,-0.00012,-0.00012,-0.00093,-0.00035,2,23
6296,0.00035,8e-05,5e-05,-0.00021,-0.00023,2e-05,-0.00082,-0.0002,2,23
6297,0.00035,8e-05,5e-05,-0.00021,-0.00023,2e-05,-0.00082,-0.0002,2,23
6298,0.00035,8e-05,5e-05,-0.00021,-0.00023,2e-05,-0.00082,-0.0002,2,23
6299,0.00035,8e-05,5e-05,-0.00021,-0.00023,2e-05,-0.00082,-0.0002,2,23
6300,0.00035,8e-05,5e-05,-0.00021,-0.00023,2e-05,-0.00082,-0.0002,2,23
6301,0.00035,8e-05,5e-05,-0.00021,-0.00023,2e-05,-0.00082,-0.0002,2,23
6302,0.00035,8e-05,5e-05,-0.00021,-0.00023,2e-05,-0.00082,-0.0002,2,23
6303,-0.00031,-4e-05,-2e-05,-0.00011,4e-05,-1e-05,-0.00044,-0.00015,2,23
6304,-0.00031,-4e-05,-2e-05,-0.00011,4e-05,-1e-05,-0.00044,-0.00015,2,23
6305,-0.00031,-4e-05,-2e-05,-0.00011,4e-05,-1e-05,-0.00044,-0.00015,2,23
6306,-0.00031,-4e-05,-2e-05,-0.00011,4e-05,-1e-05,-0.00044,-0.00015,2,23
6307,-0.00031,-4e-05,-2e-05,-0.00011,4e-05,-1e-05,-0.00044,-0.00015,2,23
6308,-0.00031,-4e-05,-2e-05,-0.00011,4e-05,-1e-05,-0.00044,-0.00015,2,23
6309,-0.00031,-4e-05,-2e-05,-0.00011,4e-05,-1e-05,-0.00044,-0.00015,2,23
6310,-0.00031,-4e-05,-2e-05,-0.00011,4e-05,-1e-05,-0.00044,-0.00015,2,23
6311,-0.00031,-4e-05,-2e-05,-0.00011,4e-05,-1e-05,-0.00044,-0.00015,2,23
6312,-0.00031,-4e-05,-2e-05,-0.00011,4e-05,-1e-05,-0.00044,-0.00015,2,23
6313,-0.00031,-4e-05,-2e-05,-0.00011,4e-05,-1e-05,-0.00044,-0.00015,2,23
6314,-0.00031,-4e-05,-2e-05,-0.00011,4e-05,-1e-05,-0.00044,-0.00015,2,23
6315,-0.00031,-4e-05,-2e-05,-0.00011,4e-05,-1e-05,-0.00044,-0.00015,2,23
6316,-0.00031,-4e-05,-2e-05,-0.00011,4e-05,-1e-05,-0.00044,-0.00015,2,23
6317,-0.00031,-4e-05,-2e-05,-0.00011,4e-05,-1e-05,-0.00044,-0.00015,2,23
6318,-0.00031,-4e-05,-2e-05,-0.00011,4e-05,-1e-05,-0.00044,-0.00015,2,23
6319,-6e-05,-7e-05,-3e-05,-0.0005,0.00014,-7e-05,0.00012,0.00011,2,23
6320,-6e-05,-7e-05,-3e-05,-0.0005,0.00014,-7e-05,0.00012,0.00011,2,23
6321,3e-05,0.00013,1e-05,0.00068,1e-05,9e-05,-0.00073,-0.00039,2,23
6322,3e-05,0.00013,1e-05,0.00068,1e-05,9e-05,-0.00073,-0.00039,2,23
6323,3e-05,0.00013,1e-05,0.00068,1e-05,9e-05,-0.00073,-0.00039,2,23
6324,3e-05,0.00013,1e-05,0.00068,1e-05,9e-05,-0.00073,-0.00039,2,23
6325,3e-05,0.00013,1e-05,0.00068,1e-05,9e-05,-0.00073,-0.00039,2,23
6326,3e-05,0.00013,1e-05,0.00068,1e-05,9e-05,-0.00073,-0.00039,2,23
6327,3e-05,0.00013,1e-05,0.00068,1e-05,9e-05,-0.00073,-0.00039,2,23
6328,3e-05,0.00013,1e-05,0.00068,1e-05,9e-05,-0.00073,-0.00039,2,23
6329,3e-05,0.00013,1e-05,0.00068,1e-05,9e-05,-0.00073,-0.00039,2,23
6330,3e-05,0.00013,1e-05,0.00068,1e-05,9e-05,-0.00073,-0.00039,2,23
6331,3e-05,0.00013,1e-05,0.00068,1e-05,9e-05,-0.00073,-0.00039,2,23
6332,3e-05,0.00013,1e-05,0.00068,1e-05,9e-05,-0.00073,-0.00039,2,23
6333,3e-05,0.00013,1e-05,0.00068,1e-05,9e-05,-0.00073,-0.00039,2,23
6334,3e-05,0.00013,1e-05,0.00068,1e-05,9e-05,-0.00073,-0.00039,2,23
6335,3e-05,0.00013,1e-05,0.00068,1e-05,9e-05,-0.00073,-0.00039,2,23
6336,3e-05,0.00013,1e-05,0.00068,1e-05,9e-05,-0.00073,-0.00039,2,23
6338,3e-05,0.00013,1e-05,0.00068,1e-05,9e-05,-0.00073,-0.00039,2,23
6339,3e-05,0.00013,1e-05,0.00068,1e-05,9e-05,-0.00073,-0.00039,2,23
6340,3e-05,0.00013,1e-05,0.00068,1e-05,9e-05,-0.00073,-0.00039,2,23
6341,3e-05,0.00013,1e-05,0.00068,1e-05,9e-05,-0.00073,-0.00039,2,23
6342,-0.00031,-0.00023,-7e-05,-0.00027,-0.00012,-0.00014,-0.0006,-0.0005,2,23
6343,8e-05,9e-05,-0.00011,-0.00114,-0.0005,-5e-05,0.00088,0.00017,2,23
6344,8e-05,9e-05,-0.00011,-0.00114,-0.0005,-5e-05,0.00088,0.00017,2,23
6345,8e-05,9e-05,-0.00011,-0.00114,-0.0005,-5e-05,0.00088,0.00017,2,23
6346,8e-05,9e-05,-0.00011,-0.00114,-0.0005,-5e-05,0.00088,0.00017,2,23
6347,8e-05,9e-05,-0.00011,-0.00114,-0.0005,-5e-05,0.00088,0.00017,2,23
6348,8e-05,9e-05,-0.00011,-0.00114,-0.0005,-5e-05,0.00088,0.00017,2,23
6349,8e-05,9e-05,-0.00011,-0.00114,-0.0005,-5e-05,0.00088,0.00017,2,23
6350,8e-05,9e-05,-0.00011,-0.00114,-0.0005,-5e-05,0.00088,0.00017,2,23
6351,8e-05,9e-05,-0.00011,-0.00114,-0.0005,-5e-05,0.00088,0.00017,2,23
6352,8e-05,9e-05,-0.00011,-0.00114,-0.0005,-5e-05,0.00088,0.00017,2,23
6353,8e-05,9e-05,-0.00011,-0.00114,-0.0005,-5e-05,0.00088,0.00017,2,23
6354,8e-05,9e-05,-0.00011,-0.00114,-0.0005,-5e-05,0.00088,0.00017,2,23
6355,8e-05,9e-05,-0.00011,-0.00114,-0.0005,-5e-05,0.00088,0.00017,2,23
6356,-0.00034,-0.00039,1e-05,0.00045,1e-05,-5e-05,-0.0002,-0.00063,2,23
6357,-0.00034,-0.00039,1e-05,0.00045,1e-05,-5e-05,-0.0002,-0.00063,2,23
6358,-0.00034,-0.00039,1e-05,0.00045,1e-05,-5e-05,-0.0002,-0.00063,2,23
6359,-0.00034,-0.00039,1e-05,0.00045,1e-05,-5e-05,-0.0002,-0.00063,2,23
6360,-0.00034,-0.00039,1e-05,0.00045,1e-05,-5e-05,-0.0002,-0.00063,2,23
6361,-0.00034,-0.00039,1e-05,0.00045,1e-05,-5e-05,-0.0002,-0.00063,2,23
6362,-0.00034,-0.00039,1e-05,0.00045,1e-05,-5e-05,-0.0002,-0.00063,2,23
6363,0.00052,-8e-05,-3e-05,7e-05,4e-05,6e-05,-0.00033,6e-05,2,23
6364,0.00052,-8e-05,-3e-05,7e-05,4e-05,6e-05,-0.00033,6e-05,2,23
6365,0.00052,-8e-05,-3e-05,7e-05,4e-05,6e-05,-0.00033,6e-05,2,23
6366,0.00052,-8e-05,-3e-05,7e-05,4e-05,6e-05,-0.00033,6e-05,2,23
6367,0.00052,-8e-05,-3e-05,7e-05,4e-05,6e-05,-0.00033,6e-05,2,23
6368,0.00052,-8e-05,-3e-05,7e-05,4e-05,6e-05,-0.00033,6e-05,2,23
6369,0.00052,-8e-05,-3e-05,7e-05,4e-05,6e-05,-0.00033,6e-05,2,23
6370,0.00052,-8e-05,-3e-05,7e-05,4e-05,6e-05,-0.00033,6e-05,2,23
6371,0.00052,-8e-05,-3e-05,7e-05,4e-05,6e-05,-0.00033,6e-05,2,23
6372,0.00052,-8e-05,-3e-05,7e-05,4e-05,6e-05,-0.00033,6e-05,2,23
6373,0.00052,-8e-05,-3e-05,7e-05,4e-05,6e-05,-0.00033,6e-05,2,23
6374,0.00052,-8e-05,-3e-05,7e-05,4e-05,6e-05,-0.00033,6e-05,2,23
6375,0.00052,-8e-05,-3e-05,7e-05,4e-05,6e-05,-0.00033,6e-05,2,23
6376,0.00052,-8e-05,-3e-05,7e-05,4e-05,6e-05,-0.00033,6e-05,2,23
6377,0.00052,-8e-05,-3e-05,7e-05,4e-05,6e-05,-0.00033,6e-05,2,23
6378,0.00052,-8e-05,-3e-05,7e-05,4e-05,6e-05,-0.00033,6e-05,2,23
6379,-1e-05,0.00019,-7e-05,-0.00026,1e-05,-2e-05,8e-05,0.00014,2,23
6380,-1e-05,0.00019,-7e-05,-0.00026,1e-05,-2e-05,8e-05,0.00014,2,23
6381,0.00023,0.00022,0,-0.0006,5e-05,2e-05,0.00058,0.00032,2,23
6382,0.00023,0.00022,0,-0.0006,5e-05,2e-05,0.00058,0.00032,2,23
6383,0.00023,0.00022,0,-0.0006,5e-05,2e-05,0.00058,0.00032,2,23
6384,0.00023,0.00022,0,-0.0006,5e-05,2e-05,0.00058,0.00032,2,23
6385,0.00023,0.00022,0,-0.0006,5e-05,2e-05,0.00058,0.00032,2,23
6386,0.00023,0.00022,0,-0.0006,5e-05,2e-05,0.00058,0.00032,2,23
6388,0.00023,0.00022,0,-0.0006,5e-05,2e-05,0.00058,0.00032,2,23
6389,0.00023,0.00022,0,-0.0006,5e-05,2e-05,0.00058,0.00032,2,23
6390,0.00023,0.00022,0,-0.0006,5e-05,2e-05,0.00058,0.00032,2,23
6392,0.00023,0.00022,0,-0.0006,5e-05,2e-05,0.00058,0.00032,2,23
6393,0.00023,0.00022,0,-0.0006,5e-05,2e-05,0.00058,0.00032,2,23
6394,0.00023,0.00022,0,-0.0006,5e-05,2e-05,0.00058,0.00032,2,23
6395,0.00023,0.00022,0,-0.0006,5e-05,2e-05,0.00058,0.00032,2,23
6396,0.00023,0.00022,0,-0.0006,5e-05,2e-05,0.00058,0.00032,2,23
6397,0.00023,0.00022,0,-0.0006,5e-05,2e-05,0.00058,0.00032,2,23
6398,0.00023,0.00022,0,-0.0006,5e-05,2e-05,0.00058,0.00032,2,23
6399,0.00023,0.00022,0,-0.0006,5e-05,2e-05,0.00058,0.00032,2,23
6400,0.00023,0.00022,0,-0.0006,5e-05,2e-05,0.00058,0.00032,2,23
6401,0.00023,0.00022,0,-0.0006,5e-05,2e-05,0.00058,0.00032,2,23
6402,0.00033,7e-05,-0.00016,0.00057,0.0002,-7e-05,-0.00052,0.00013,2,23
6403,-4e-05,4e-05,8e-05,0.00127,0.00078,1e-05,9e-05,0.00021,2,23
6404,-0.0001,-2e-05,7e-05,1e-05,0.00027,1e-05,0.0004,0.00015,2,23
6405,-0.0001,-2e-05,7e-05,1e-05,0.00027,1e-05,0.0004,0.00015,2,23
6406,-0.0001,-2e-05,7e-05,1e-05,0.00027,1e-05,0.0004,0.00015,2,23
6407,-0.0001,-2e-05,7e-05,1e-05,0.00027,1e-05,0.0004,0.00015,2,23
6408,-0.0001,-2e-05,7e-05,1e-05,0.00027,1e-05,0.0004,0.00015,2,23
6409,-0.0001,-2e-05,7e-05,1e-05,0.00027,1e-05,0.0004,0.00015,2,23
6410,-0.0001,-2e-05,7e-05,1e-05,0.00027,1e-05,0.0004,0.00015,2,23
6411,-0.0001,-2e-05,7e-05,1e-05,0.00027,1e-05,0.0004,0.00015,2,23
6412,-0.0001,-2e-05,7e-05,1e-05,0.00027,1e-05,0.0004,0.00015,2,23
6413,-0.0001,-2e-05,7e-05,1e-05,0.00027,1e-05,0.0004,0.00015,2,23
6414,-0.0001,-2e-05,7e-05,1e-05,0.00027,1e-05,0.0004,0.00015,2,23
6415,-0.0001,-2e-05,7e-05,1e-05,0.00027,1e-05,0.0004,0.00015,2,23
6416,0.00035,3e-05,0.0002,0.00074,0.00033,-9e-05,0.00061,0.0007,2,23
6417,0.00035,3e-05,0.0002,0.00074,0.00033,-9e-05,0.00061,0.0007,2,23
6418,0.00035,3e-05,0.0002,0.00074,0.00033,-9e-05,0.00061,0.0007,2,23
6419,0.00035,3e-05,0.0002,0.00074,0.00033,-9e-05,0.00061,0.0007,2,23
6420,0.00035,3e-05,0.0002,0.00074,0.00033,-9e-05,0.00061,0.0007,2,23
6421,0.00035,3e-05,0.0002,0.00074,0.00033,-9e-05,0.00061,0.0007,2,23
6422,0.00035,3e-05,0.0002,0.00074,0.00033,-9e-05,0.00061,0.0007,2,23
6423,-9e-05,0.0001,3e-05,0.00027,2e-05,-1e-05,-0.00045,-0.00022,2,23
6424,-9e-05,0.0001,3e-05,0.00027,2e-05,-1e-05,-0.00045,-0.00022,2,23
6425,-9e-05,0.0001,3e-05,0.00027,2e-05,-1e-05,-0.00045,-0.00022,2,23
6426,-9e-05,0.0001,3e-05,0.00027,2e-05,-1e-05,-0.00045,-0.00022,2,23
6427,-9e-05,0.0001,3e-05,0.00027,2e-05,-1e-05,-0.00045,-0.00022,2,23
6428,-9e-05,0.0001,3e-05,0.00027,2e-05,-1e-05,-0.00045,-0.00022,2,23
6429,-9e-05,0.0001,3e-05,0.00027,2e-05,-1e-05,-0.00045,-0.00022,2,23
6430,-9e-05,0.0001,3e-05,0.00027,2e-05,-1e-05,-0.00045,-0.00022,2,23
6431,-9e-05,0.0001,3e-05,0.00027,2e-05,-1e-05,-0.00045,-0.00022,2,23
6432,-9e-05,0.0001,3e-05,0.00027,2e-05,-1e-05,-0.00045,-0.00022,2,23
6433,-9e-05,0.0001,3e-05,0.00027,2e-05,-1e-05,-0.00045,-0.00022,2,23
6434,-9e-05,0.0001,3e-05,0.00027,2e-05,-1e-05,-0.00045,-0.00022,2,23
6435,-9e-05,0.0001,3e-05,0.00027,2e-05,-1e-05,-0.00045,-0.00022,2,23
6436,-9e-05,0.0001,3e-05,0.00027,2e-05,-1e-05,-0.00045,-0.00022,2,23
6438,-9e-05,0.0001,3e-05,0.00027,2e-05,-1e-05,-0.00045,-0.00022,2,23
6439,0.00016,0.00048,2e-05,-0.00071,-0.00045,6e-05,-3e-05,7e-05,2,23
6440,0.00016,0.00048,2e-05,-0.00071,-0.00045,6e-05,-3e-05,7e-05,2,23
6441,-0.00017,0.00026,-4e-05,-0.0002,2e-05,-7e-05,-0.00058,-0.00022,2,23
6442,-0.00017,0.00026,-4e-05,-0.0002,2e-05,-7e-05,-0.00058,-0.00022,2,23
6443,-0.00017,0.00026,-4e-05,-0.0002,2e-05,-7e-05,-0.00058,-0.00022,2,23
6444,-0.00017,0.00026,-4e-05,-0.0002,2e-05,-7e-05,-0.00058,-0.00022,2,23
6445,-0.00017,0.00026,-4e-05,-0.0002,2e-05,-7e-05,-0.00058,-0.00022,2,23
6446,-0.00017,0.00026,-4e-05,-0.0002,2e-05,-7e-05,-0.00058,-0.00022,2,23
6447,-0.00017,0.00026,-4e-05,-0.0002,2e-05,-7e-05,-0.00058,-0.00022,2,23
6448,-0.00017,0.00026,-4e-05,-0.0002,2e-05,-7e-05,-0.00058,-0.00022,2,23
6449,-0.00017,0.00026,-4e-05,-0.0002,2e-05,-7e-05,-0.00058,-0.00022,2,23
6450,-0.00017,0.00026,-4e-05,-0.0002,2e-05,-7e-05,-0.00058,-0.00022,2,23
6451,-0.00017,0.00026,-4e-05,-0.0002,2e-05,-7e-05,-0.00058,-0.00022,2,23
6452,-0.00017,0.00026,-4e-05,-0.0002,2e-05,-7e-05,-0.00058,-0.00022,2,23
6453,-0.00017,0.00026,-4e-05,-0.0002,2e-05,-7e-05,-0.00058,-0.00022,2,23
6454,-0.00017,0.00026,-4e-05,-0.0002,2e-05,-7e-05,-0.00058,-0.00022,2,23
6455,-0.00017,0.00026,-4e-05,-0.0002,2e-05,-7e-05,-0.00058,-0.00022,2,23
6456,-0.00017,0.00026,-4e-05,-0.0002,2e-05,-7e-05,-0.00058,-0.00022,2,23
6457,-0.00017,0.00026,-4e-05,-0.0002,2e-05,-7e-05,-0.00058,-0.00022,2,23
6458,-0.00017,0.00026,-4e-05,-0.0002,2e-05,-7e-05,-0.00058,-0.00022,2,23
6459,-0.00017,0.00026,-4e-05,-0.0002,2e-05,-7e-05,-0.00058,-0.00022,2,23
6460,-0.00017,0.00026,-4e-05,-0.0002,2e-05,-7e-05,-0.00058,-0.00022,2,23
6461,-0.00017,0.00026,-4e-05,-0.0002,2e-05,-7e-05,-0.00058,-0.00022,2,23
6462,-0.00015,-0.00011,-6e-05,0.00024,0.00025,0,-0.00047,-0.00018,2,23
6463,-0.0003,-7e-05,-3e-05,-0.00031,-0.00044,-4e-05,-0.00057,-0.0002,2,23
6464,-0.0003,-7e-05,-3e-05,-0.00031,-0.00044,-4e-05,-0.00057,-0.0002,2,23
6465,-0.0003,-7e-05,-3e-05,-0.00031,-0.00044,-4e-05,-0.00057,-0.0002,2,23
6466,-0.0003,-7e-05,-3e-05,-0.00031,-0.00044,-4e-05,-0.00057,-0.0002,2,23
6467,-0.0003,-7e-05,-3e-05,-0.00031,-0.00044,-4e-05,-0.00057,-0.0002,2,23
6468,-0.0003,-7e-05,-3e-05,-0.00031,-0.00044,-4e-05,-0.00057,-0.0002,2,23
6469,-0.0003,-7e-05,-3e-05,-0.00031,-0.00044,-4e-05,-0.00057,-0.0002,2,23
6470,-0.0003,-7e-05,-3e-05,-0.00031,-0.00044,-4e-05,-0.00057,-0.0002,2,23
6471,-0.0003,-7e-05,-3e-05,-0.00031,-0.00044,-4e-05,-0.00057,-0.0002,2,23
6472,-0.0003,-7e-05,-3e-05,-0.00031,-0.00044,-4e-05,-0.00057,-0.0002,2,23
6473,-0.0003,-7e-05,-3e-05,-0.00031,-0.00044,-4e-05,-0.00057,-0.0002,2,23
6474,-0.0003,-7e-05,-3e-05,-0.00031,-0.00044,-4e-05,-0.00057,-0.0002,2,23
6475,-0.0003,-7e-05,-3e-05,-0.00031,-0.00044,-4e-05,-0.00057,-0.0002,2,23
6476,0.00025,-2e-05,0.00012,-0.00017,2e-05,0,0.00039,-7e-05,2,23
6477,0.00025,-2e-05,0.00012,-0.00017,2e-05,0,0.00039,-7e-05,2,23
6478,0.00025,-2e-05,0.00012,-0.00017,2e-05,0,0.00039,-7e-05,2,23
6479,0.00025,-2e-05,0.00012,-0.00017,2e-05,0,0.00039,-7e-05,2,23
6480,0.00025,-2e-05,0.00012,-0.00017,2e-05,0,0.00039,-7e-05,2,23
6481,0.00025,-2e-05,0.00012,-0.00017,2e-05,0,0.00039,-7e-05,2,23
6482,0.00025,-2e-05,0.00012,-0.00017,2e-05,0,0.00039,-7e-05,2,23
6483,0.00025,-2e-05,0.00012,-0.00017,2e-05,0,0.00039,-7e-05,2,23
6484,0.00025,-2e-05,0.00012,-0.00017,2e-05,0,0.00039,-7e-05,2,23
6485,0.00025,-2e-05,0.00012,-0.00017,2e-05,0,0.00039,-7e-05,2,23
6486,0.00025,-2e-05,0.00012,-0.00017,2e-05,0,0.00039,-7e-05,2,23
6488,0.00025,-2e-05,0.00012,-0.00017,2e-05,0,0.00039,-7e-05,2,23
6489,0.00025,-2e-05,0.00012,-0.00017,2e-05,0,0.00039,-7e-05,2,23
6490,0.00025,-2e-05,0.00012,-0.00017,2e-05,0,0.00039,-7e-05,2,23
6491,-0.00013,-0.00023,0,0.0006,0.00041,6e-05,-0.00062,-0.00019,2,23
6492,-0.00013,-0.00023,0,0.0006,0.00041,6e-05,-0.00062,-0.00019,2,23
6493,-0.00013,-0.00023,0,0.0006,0.00041,6e-05,-0.00062,-0.00019,2,23
6494,-0.00013,-0.00023,0,0.0006,0.00041,6e-05,-0.00062,-0.00019,2,23
6495,-0.00013,-0.00023,0,0.0006,0.00041,6e-05,-0.00062,-0.00019,2,23
6496,-0.00013,-0.00023,0,0.0006,0.00041,6e-05,-0.00062,-0.00019,2,23
6497,-0.00013,-0.00023,0,0.0006,0.00041,6e-05,-0.00062,-0.00019,2,23
6498,-0.00013,-0.00023,0,0.0006,0.00041,6e-05,-0.00062,-0.00019,2,23
6499,6e-05,0.00019,7e-05,0.00054,0.00026,-3e-05,5e-05,1e-05,2,23
6500,1e-05,1e-05,-3e-05,-0.00015,0.00014,1e-05,0.00053,5e-05,2,23
6501,0.00016,-8e-05,-3e-05,0.00038,0.00019,6e-05,0.00127,0.00032,2,23
6502,0.00016,-8e-05,-3e-05,0.00038,0.00019,6e-05,0.00127,0.00032,2,23
6503,0.00016,-8e-05,-3e-05,0.00038,0.00019,6e-05,0.00127,0.00032,2,23
6504,0.00016,-8e-05,-3e-05,0.00038,0.00019,6e-05,0.00127,0.00032,2,23
6505,0.00016,-8e-05,-3e-05,0.00038,0.00019,6e-05,0.00127,0.00032,2,23
6506,0.00016,-8e-05,-3e-05,0.00038,0.00019,6e-05,0.00127,0.00032,2,23
6507,0.00016,-8e-05,-3e-05,0.00038,0.00019,6e-05,0.00127,0.00032,2,23
6508,0.00016,-8e-05,-3e-05,0.00038,0.00019,6e-05,0.00127,0.00032,2,23
6509,0.00016,-8e-05,-3e-05,0.00038,0.00019,6e-05,0.00127,0.00032,2,23
6510,0.00016,-8e-05,-3e-05,0.00038,0.00019,6e-05,0.00127,0.00032,2,23
6511,0.00016,-8e-05,-3e-05,0.00038,0.00019,6e-05,0.00127,0.00032,2,23
6512,0.00016,-8e-05,-3e-05,0.00038,0.00019,6e-05,0.00127,0.00032,2,23
6513,0.00016,-8e-05,-3e-05,0.00038,0.00019,6e-05,0.00127,0.00032,2,23
6514,0.00016,-8e-05,-3e-05,0.00038,0.00019,6e-05,0.00127,0.00032,2,23
6515,0.00016,-8e-05,-3e-05,0.00038,0.00019,6e-05,0.00127,0.00032,2,23
6516,0.00016,-8e-05,-3e-05,0.00038,0.00019,6e-05,0.00127,0.00032,2,23
6517,0.00016,-8e-05,-3e-05,0.00038,0.00019,6e-05,0.00127,0.00032,2,23
6518,0.00016,-8e-05,-3e-05,0.00038,0.00019,6e-05,0.00127,0.00032,2,23
6519,0.00016,-8e-05,-3e-05,0.00038,0.00019,6e-05,0.00127,0.00032,2,23
6520,0.00016,-8e-05,-3e-05,0.00038,0.00019,6e-05,0.00127,0.00032,2,23
6521,0.00016,-8e-05,-3e-05,0.00038,0.00019,6e-05,0.00127,0.00032,2,23
6522,0.00036,-0.00034,-2e-05,-0.00016,6e-05,6e-05,-0.0003,0.00036,2,23
6523,-0.00013,0.00035,2e-05,-0.00027,-0.00017,-0.0002,-0.00053,-0.0003,2,23
6524,0.0002,4e-05,-1e-05,-2e-05,9e-05,7e-05,0.00116,0.00049,2,23
6525,0.0002,4e-05,-1e-05,-2e-05,9e-05,7e-05,0.00116,0.00049,2,23
6526,0.0002,4e-05,-1e-05,-2e-05,9e-05,7e-05,0.00116,0.00049,2,23
6527,0.0002,4e-05,-1e-05,-2e-05,9e-05,7e-05,0.00116,0.00049,2,23
6528,0.0002,4e-05,-1e-05,-2e-05,9e-05,7e-05,0.00116,0.00049,2,23
6529,0.0002,4e-05,-1e-05,-2e-05,9e-05,7e-05,0.00116,0.00049,2,23
6530,0.0002,4e-05,-1e-05,-2e-05,9e-05,7e-05,0.00116,0.00049,2,23
6531,0.0002,4e-05,-1e-05,-2e-05,9e-05,7e-05,0.00116,0.00049,2,23
6532,0.0002,4e-05,-1e-05,-2e-05,9e-05,7e-05,0.00116,0.00049,2,23
6533,0.0002,4e-05,-1e-05,-2e-05,9e-05,7e-05,0.00116,0.00049,2,23
6534,0.0002,4e-05,-1e-05,-2e-05,9e-05,7e-05,0.00116,0.00049,2,23
6535,0.0002,4e-05,-1e-05,-2e-05,9e-05,7e-05,0.00116,0.00049,2,23
6536,-0.00011,2e-05,-5e-05,-0.00023,0.00051,-0.00023,-0.00045,-0.00034,2,23
6538,-0.00011,2e-05,-5e-05,-0.00023,0.00051,-0.00023,-0.00045,-0.00034,2,23
6539,-0.00011,2e-05,-5e-05,-0.00023,0.00051,-0.00023,-0.00045,-0.00034,2,23
6540,-0.00011,2e-05,-5e-05,-0.00023,0.00051,-0.00023,-0.00045,-0.00034,2,23
6541,-0.00011,2e-05,-5e-05,-0.00023,0.00051,-0.00023,-0.00045,-0.00034,2,23
6542,-0.00011,2e-05,-5e-05,-0.00023,0.00051,-0.00023,-0.00045,-0.00034,2,23
6543,2e-05,-4e-05,6e-05,-0.00092,-0.00046,-4e-05,-0.00071,8e-05,2,23
6544,2e-05,-4e-05,6e-05,-0.00092,-0.00046,-4e-05,-0.00071,8e-05,2,23
6545,2e-05,-4e-05,6e-05,-0.00092,-0.00046,-4e-05,-0.00071,8e-05,2,23
6546,2e-05,-4e-05,6e-05,-0.00092,-0.00046,-4e-05,-0.00071,8e-05,2,23
6547,2e-05,-4e-05,6e-05,-0.00092,-0.00046,-4e-05,-0.00071,8e-05,2,23
6548,2e-05,-4e-05,6e-05,-0.00092,-0.00046,-4e-05,-0.00071,8e-05,2,23
6549,2e-05,-4e-05,6e-05,-0.00092,-0.00046,-4e-05,-0.00071,8e-05,2,23
6550,2e-05,-4e-05,6e-05,-0.00092,-0.00046,-4e-05,-0.00071,8e-05,2,23
6551,2e-05,-4e-05,6e-05,-0.00092,-0.00046,-4e-05,-0.00071,8e-05,2,23
6552,2e-05,-4e-05,6e-05,-0.00092,-0.00046,-4e-05,-0.00071,8e-05,2,23
6553,2e-05,-4e-05,6e-05,-0.00092,-0.00046,-4e-05,-0.00071,8e-05,2,23
6554,2e-05,-4e-05,6e-05,-0.00092,-0.00046,-4e-05,-0.00071,8e-05,2,23
6555,2e-05,-4e-05,6e-05,-0.00092,-0.00046,-4e-05,-0.00071,8e-05,2,23
6556,2e-05,-4e-05,6e-05,-0.00092,-0.00046,-4e-05,-0.00071,8e-05,2,23
6557,2e-05,-4e-05,6e-05,-0.00092,-0.00046,-4e-05,-0.00071,8e-05,2,23
6558,2e-05,-4e-05,6e-05,-0.00092,-0.00046,-4e-05,-0.00071,8e-05,2,23
6559,-0.00021,-0.00012,-0.00011,-0.00036,-0.00033,0,-0.00022,-4e-05,2,23
6560,-0.00021,-0.00012,-0.00011,-0.00036,-0.00033,0,-0.00022,-4e-05,2,23
6561,-0.00027,1e-05,0.00015,0.00087,0.00057,-4e-05,-3e-05,-0.00021,2,23
6562,-0.00027,1e-05,0.00015,0.00087,0.00057,-4e-05,-3e-05,-0.00021,2,23
6563,-0.00027,1e-05,0.00015,0.00087,0.00057,-4e-05,-3e-05,-0.00021,2,23
6564,-0.00027,1e-05,0.00015,0.00087,0.00057,-4e-05,-3e-05,-0.00021,2,23
6565,-0.00027,1e-05,0.00015,0.00087,0.00057,-4e-05,-3e-05,-0.00021,2,23
6566,-0.00027,1e-05,0.00015,0.00087,0.00057,-4e-05,-3e-05,-0.00021,2,23
6567,-0.00027,1e-05,0.00015,0.00087,0.00057,-4e-05,-3e-05,-0.00021,2,23
6568,-0.00027,1e-05,0.00015,0.00087,0.00057,-4e-05,-3e-05,-0.00021,2,23
6569,-0.00027,1e-05,0.00015,0.00087,0.00057,-4e-05,-3e-05,-0.00021,2,23
6570,-0.00027,1e-05,0.00015,0.00087,0.00057,-4e-05,-3e-05,-0.00021,2,23
6571,-0.00027,1e-05,0.00015,0.00087,0.00057,-4e-05,-3e-05,-0.00021,2,23
6572,-0.00027,1e-05,0.00015,0.00087,0.00057,-4e-05,-3e-05,-0.00021,2,23
6573,-0.00027,1e-05,0.00015,0.00087,0.00057,-4e-05,-3e-05,-0.00021,2,23
6574,-0.00027,1e-05,0.00015,0.00087,0.00057,-4e-05,-3e-05,-0.00021,2,23
6575,-0.00027,1e-05,0.00015,0.00087,0.00057,-4e-05,-3e-05,-0.00021,2,23
6576,-0.00027,1e-05,0.00015,0.00087,0.00057,-4e-05,-3e-05,-0.00021,2,23
6577,-0.00027,1e-05,0.00015,0.00087,0.00057,-4e-05,-3e-05,-0.00021,2,23
6578,-0.00027,1e-05,0.00015,0.00087,0.00057,-4e-05,-3e-05,-0.00021,2,23
6579,-0.00027,1e-05,0.00015,0.00087,0.00057,-4e-05,-3e-05,-0.00021,2,23
6580,-0.00027,1e-05,0.00015,0.00087,0.00057,-4e-05,-3e-05,-0.00021,2,23
6581,-0.00027,1e-05,0.00015,0.00087,0.00057,-4e-05,-3e-05,-0.00021,2,23
6582,-0.00047,-8e-05,0,0.00011,0.00037,-0.00014,-0.00038,-0.00017,2,23
6583,0.00031,-2e-05,-0.00016,-0.00052,-0.00065,-4e-05,-2e-05,0.00022,2,23
6584,0.00031,-2e-05,-0.00016,-0.00052,-0.00065,-4e-05,-2e-05,0.00022,2,23
6585,0.00031,-2e-05,-0.00016,-0.00052,-0.00065,-4e-05,-2e-05,0.00022,2,23
6586,0.00031,-2e-05,-0.00016,-0.00052,-0.00065,-4e-05,-2e-05,0.00022,2,23
6588,0.00031,-2e-05,-0.00016,-0.00052,-0.00065,-4e-05,-2e-05,0.00022,2,23
6589,0.00031,-2e-05,-0.00016,-0.00052,-0.00065,-4e-05,-2e-05,0.00022,2,23
6590,0.00031,-2e-05,-0.00016,-0.00052,-0.00065,-4e-05,-2e-05,0.00022,2,23
6591,0.00031,-2e-05,-0.00016,-0.00052,-0.00065,-4e-05,-2e-05,0.00022,2,23
6592,0.00031,-2e-05,-0.00016,-0.00052,-0.00065,-4e-05,-2e-05,0.00022,2,23
6593,0.00031,-2e-05,-0.00016,-0.00052,-0.00065,-4e-05,-2e-05,0.00022,2,23
6594,0.00031,-2e-05,-0.00016,-0.00052,-0.00065,-4e-05,-2e-05,0.00022,2,23
6595,0.00031,-2e-05,-0.00016,-0.00052,-0.00065,-4e-05,-2e-05,0.00022,2,23
6596,-0.00019,-0.00022,-0.0001,-0.00042,-0.0004,5e-05,6e-05,2e-05,2,23
6597,-0.00019,-0.00022,-0.0001,-0.00042,-0.0004,5e-05,6e-05,2e-05,2,23
6598,-0.00019,-0.00022,-0.0001,-0.00042,-0.0004,5e-05,6e-05,2e-05,2,23
6599,-0.00019,-0.00022,-0.0001,-0.00042,-0.0004,5e-05,6e-05,2e-05,2,23
6600,-0.00019,-0.00022,-0.0001,-0.00042,-0.0004,5e-05,6e-05,2e-05,2,23
6601,-0.00019,-0.00022,-0.0001,-0.00042,-0.0004,5e-05,6e-05,2e-05,2,23
6602,-0.00019,-0.00022,-0.0001,-0.00042,-0.0004,5e-05,6e-05,2e-05,2,23
6603,0.00028,0.00015,2e-05,-4e-05,0.0001,-2e-05,0.00024,0.00011,2,23
6604,0.00028,0.00015,2e-05,-4e-05,0.0001,-2e-05,0.00024,0.00011,2,23
6605,0.00028,0.00015,2e-05,-4e-05,0.0001,-2e-05,0.00024,0.00011,2,23
6606,0.00028,0.00015,2e-05,-4e-05,0.0001,-2e-05,0.00024,0.00011,2,23
6607,0.00028,0.00015,2e-05,-4e-05,0.0001,-2e-05,0.00024,0.00011,2,23
6608,0.00028,0.00015,2e-05,-4e-05,0.0001,-2e-05,0.00024,0.00011,2,23
6609,0.00028,0.00015,2e-05,-4e-05,0.0001,-2e-05,0.00024,0.00011,2,23
6610,0.00028,0.00015,2e-05,-4e-05,0.0001,-2e-05,0.00024,0.00011,2,23
6611,0.00028,0.00015,2e-05,-4e-05,0.0001,-2e-05,0.00024,0.00011,2,23
6612,0.00028,0.00015,2e-05,-4e-05,0.0001,-2e-05,0.00024,0.00011,2,23
6613,0.00028,0.00015,2e-05,-4e-05,0.0001,-2e-05,0.00024,0.00011,2,23
6614,0.00028,0.00015,2e-05,-4e-05,0.0001,-2e-05,0.00024,0.00011,2,23
6615,0.00028,0.00015,2e-05,-4e-05,0.0001,-2e-05,0.00024,0.00011,2,23
6616,0.00028,0.00015,2e-05,-4e-05,0.0001,-2e-05,0.00024,0.00011,2,23
6617,0.00028,0.00015,2e-05,-4e-05,0.0001,-2e-05,0.00024,0.00011,2,23
6618,0.00028,0.00015,2e-05,-4e-05,0.0001,-2e-05,0.00024,0.00011,2,23
6619,-0.00019,0,-7e-05,0.00018,2e-05,-3e-05,-0.00024,-0.00028,2,23
6620,-0.00019,0,-7e-05,0.00018,2e-05,-3e-05,-0.00024,-0.00028,2,23
6621,-0.00016,-0.00027,-8e-05,-0.00054,0.00046,-0.00021,-0.00128,-0.00013,2,23
6622,-0.00016,-0.00027,-8e-05,-0.00054,0.00046,-0.00021,-0.00128,-0.00013,2,23
6623,-0.00016,-0.00027,-8e-05,-0.00054,0.00046,-0.00021,-0.00128,-0.00013,2,23
6624,-0.00016,-0.00027,-8e-05,-0.00054,0.00046,-0.00021,-0.00128,-0.00013,2,23
6625,-0.00016,-0.00027,-8e-05,-0.00054,0.00046,-0.00021,-0.00128,-0.00013,2,23
6626,-0.00016,-0.00027,-8e-05,-0.00054,0.00046,-0.00021,-0.00128,-0.00013,2,23
6627,-0.00016,-0.00027,-8e-05,-0.00054,0.00046,-0.00021,-0.00128,-0.00013,2,23
6628,-0.00016,-0.00027,-8e-05,-0.00054,0.00046,-0.00021,-0.00128,-0.00013,2,23
6629,-0.00016,-0.00027,-8e-05,-0.00054,0.00046,-0.00021,-0.00128,-0.00013,2,23
6630,-0.00016,-0.00027,-8e-05,-0.00054,0.00046,-0.00021,-0.00128,-0.00013,2,23
6631,-0.00016,-0.00027,-8e-05,-0.00054,0.00046,-0.00021,-0.00128,-0.00013,2,23
6632,-0.00016,-0.00027,-8e-05,-0.00054,0.00046,-0.00021,-0.00128,-0.00013,2,23
6633,-0.00016,-0.00027,-8e-05,-0.00054,0.00046,-0.00021,-0.00128,-0.00013,2,23
6634,-0.00016,-0.00027,-8e-05,-0.00054,0.00046,-0.00021,-0.00128,-0.00013,2,23
6635,-0.00016,-0.00027,-8e-05,-0.00054,0.00046,-0.00021,-0.00128,-0.00013,2,23
6636,-0.00016,-0.00027,-8e-05,-0.00054,0.00046,-0.00021,-0.00128,-0.00013,2,23
6638,-0.00016,-0.00027,-8e-05,-0.00054,0.00046,-0.00021,-0.00128,-0.00013,2,23
6639,-0.00016,-0.00027,-8e-05,-0.00054,0.00046,-0.00021,-0.00128,-0.00013,2,23
6640,-0.00016,-0.00027,-8e-05,-0.00054,0.00046,-0.00021,-0.00128,-0.00013,2,23
6641,-0.00016,-0.00027,-8e-05,-0.00054,0.00046,-0.00021,-0.00128,-0.00013,2,23
6642,1e-05,0,0.00016,0.00089,1e-05,0,-1e-05,1e-05,2,23
6643,-7e-05,-0.0001,-0.0002,-0.00049,-0.00053,-4e-05,-2e-05,-6e-05,2,23
6644,0.0004,3e-05,-5e-05,-0.00033,-5e-05,-1e-05,-9e-05,8e-05,2,23
6645,0.0004,3e-05,-5e-05,-0.00033,-5e-05,-1e-05,-9e-05,8e-05,2,23
6646,0.0004,3e-05,-5e-05,-0.00033,-5e-05,-1e-05,-9e-05,8e-05,2,23
6647,0.0004,3e-05,-5e-05,-0.00033,-5e-05,-1e-05,-9e-05,8e-05,2,23
6648,0.0004,3e-05,-5e-05,-0.00033,-5e-05,-1e-05,-9e-05,8e-05,2,23
6649,0.0004,3e-05,-5e-05,-0.00033,-5e-05,-1e-05,-9e-05,8e-05,2,23
6650,0.0004,3e-05,-5e-05,-0.00033,-5e-05,-1e-05,-9e-05,8e-05,2,23
6651,0.0004,3e-05,-5e-05,-0.00033,-5e-05,-1e-05,-9e-05,8e-05,2,23
6652,0.0004,3e-05,-5e-05,-0.00033,-5e-05,-1e-05,-9e-05,8e-05,2,23
6653,0.0004,3e-05,-5e-05,-0.00033,-5e-05,-1e-05,-9e-05,8e-05,2,23
6654,0.0004,3e-05,-5e-05,-0.00033,-5e-05,-1e-05,-9e-05,8e-05,2,23
6655,0.00016,4e-05,2e-05,-4e-05,-0.00015,5e-05,0.00127,0.00036,2,23
6656,-0.00016,8e-05,-0.00013,-0.00043,-0.00037,-0.00014,5e-05,0,2,23
6657,-0.00016,8e-05,-0.00013,-0.00043,-0.00037,-0.00014,5e-05,0,2,23
6658,-0.00016,8e-05,-0.00013,-0.00043,-0.00037,-0.00014,5e-05,0,2,23
6659,-0.00016,8e-05,-0.00013,-0.00043,-0.00037,-0.00014,5e-05,0,2,23
6660,-0.00016,8e-05,-0.00013,-0.00043,-0.00037,-0.00014,5e-05,0,2,23
6661,-0.00016,8e-05,-0.00013,-0.00043,-0.00037,-0.00014,5e-05,0,2,23
6662,-0.00016,8e-05,-0.00013,-0.00043,-0.00037,-0.00014,5e-05,0,2,23
6663,-0.00016,8e-05,-0.00013,-0.00043,-0.00037,-0.00014,5e-05,0,2,23
6664,0,1e-05,8e-05,-6e-05,0.0003,0.00016,-0.00027,-0.0003,2,23
6665,1e-05,-0.00015,-1e-05,-0.00016,-0.00035,-1e-05,6e-05,-6e-05,2,23
6666,1e-05,-0.00015,-1e-05,-0.00016,-0.00035,-1e-05,6e-05,-6e-05,2,23
6667,1e-05,-0.00015,-1e-05,-0.00016,-0.00035,-1e-05,6e-05,-6e-05,2,23
6668,1e-05,-0.00015,-1e-05,-0.00016,-0.00035,-1e-05,6e-05,-6e-05,2,23
6669,1e-05,-0.00015,-1e-05,-0.00016,-0.00035,-1e-05,6e-05,-6e-05,2,23
6670,1e-05,-0.00015,-1e-05,-0.00016,-0.00035,-1e-05,6e-05,-6e-05,2,23
6671,1e-05,-0.00015,-1e-05,-0.00016,-0.00035,-1e-05,6e-05,-6e-05,2,23
6672,1e-05,-0.00015,-1e-05,-0.00016,-0.00035,-1e-05,6e-05,-6e-05,2,23
6673,1e-05,-0.00015,-1e-05,-0.00016,-0.00035,-1e-05,6e-05,-6e-05,2,23
6674,1e-05,-0.00015,-1e-05,-0.00016,-0.00035,-1e-05,6e-05,-6e-05,2,23
6675,1e-05,-0.00015,-1e-05,-0.00016,-0.00035,-1e-05,6e-05,-6e-05,2,23
6676,1e-05,-0.00015,-1e-05,-0.00016,-0.00035,-1e-05,6e-05,-6e-05,2,23
6677,1e-05,-0.00015,-1e-05,-0.00016,-0.00035,-1e-05,6e-05,-6e-05,2,23
6678,1e-05,-0.00015,-1e-05,-0.00016,-0.00035,-1e-05,6e-05,-6e-05,2,23
6679,0.00027,0.00013,6e-05,0.00056,0.00037,0.00011,-0.0001,-1e-05,2,23
6680,0.00027,0.00013,6e-05,0.00056,0.00037,0.00011,-0.0001,-1e-05,2,23
6681,-0.00023,-9e-05,-2e-05,-0.00014,0.0001,8e-05,0.0012,0.00021,2,23
6682,-0.00023,-9e-05,-2e-05,-0.00014,0.0001,8e-05,0.0012,0.00021,2,23
6683,-0.00023,-9e-05,-2e-05,-0.00014,0.0001,8e-05,0.0012,0.00021,2,23
6684,-0.00023,-9e-05,-2e-05,-0.00014,0.0001,8e-05,0.0012,0.00021,2,23
6685,-0.00023,-9e-05,-2e-05,-0.00014,0.0001,8e-05,0.0012,0.00021,2,23
6686,-0.00023,-9e-05,-2e-05,-0.00014,0.0001,8e-05,0.0012,0.00021,2,23
6688,-0.00023,-9e-05,-2e-05,-0.00014,0.0001,8e-05,0.0012,0.00021,2,23
6689,-0.00023,-9e-05,-2e-05,-0.00014,0.0001,8e-05,0.0012,0.00021,2,23
6690,-0.00023,-9e-05,-2e-05,-0.00014,0.0001,8e-05,0.0012,0.00021,2,23
6691,-0.00023,-9e-05,-2e-05,-0.00014,0.0001,8e-05,0.0012,0.00021,2,23
6692,-0.00023,-9e-05,-2e-05,-0.00014,0.0001,8e-05,0.0012,0.00021,2,23
6693,-0.00023,-9e-05,-2e-05,-0.00014,0.0001,8e-05,0.0012,0.00021,2,23
6694,-0.00023,-9e-05,-2e-05,-0.00014,0.0001,8e-05,0.0012,0.00021,2,23
6695,-0.00023,-9e-05,-2e-05,-0.00014,0.0001,8e-05,0.0012,0.00021,2,23
6696,-0.00023,-9e-05,-2e-05,-0.00014,0.0001,8e-05,0.0012,0.00021,2,23
6697,-0.00023,-9e-05,-2e-05,-0.00014,0.0001,8e-05,0.0012,0.00021,2,23
6698,-0.00023,-9e-05,-2e-05,-0.00014,0.0001,8e-05,0.0012,0.00021,2,23
6699,-0.00023,-9e-05,-2e-05,-0.00014,0.0001,8e-05,0.0012,0.00021,2,23
6700,-0.00023,-9e-05,-2e-05,-0.00014,0.0001,8e-05,0.0012,0.00021,2,23
6701,-0.00023,-9e-05,-2e-05,-0.00014,0.0001,8e-05,0.0012,0.00021,2,23
6702,-0.00019,-6e-05,7e-05,0.00068,0.00021,9e-05,7e-05,-6e-05,2,23
6703,0.00027,-0.00018,-4e-05,-0.00029,0.00041,-3e-05,-0.00041,8e-05,2,23
6704,-7e-05,0.00013,-2e-05,-0.00051,-0.00035,2e-05,0.00025,0.00011,2,23
6705,-7e-05,0.00013,-2e-05,-0.00051,-0.00035,2e-05,0.00025,0.00011,2,23
6706,-7e-05,0.00013,-2e-05,-0.00051,-0.00035,2e-05,0.00025,0.00011,2,23
6707,-7e-05,0.00013,-2e-05,-0.00051,-0.00035,2e-05,0.00025,0.00011,2,23
6708,-7e-05,0.00013,-2e-05,-0.00051,-0.00035,2e-05,0.00025,0.00011,2,23
6709,-7e-05,0.00013,-2e-05,-0.00051,-0.00035,2e-05,0.00025,0.00011,2,23
6710,-7e-05,0.00013,-2e-05,-0.00051,-0.00035,2e-05,0.00025,0.00011,2,23
6711,-7e-05,0.00013,-2e-05,-0.00051,-0.00035,2e-05,0.00025,0.00011,2,23
6712,-7e-05,0.00013,-2e-05,-0.00051,-0.00035,2e-05,0.00025,0.00011,2,23
6713,-7e-05,0.00013,-2e-05,-0.00051,-0.00035,2e-05,0.00025,0.00011,2,23
6714,-7e-05,0.00013,-2e-05,-0.00051,-0.00035,2e-05,0.00025,0.00011,2,23
6715,-4e-05,-0.00019,1e-05,0.00092,0.00077,4e-05,-0.00023,1e-05,2,23
6716,-7e-05,0.00024,-7e-05,-0.00102,-0.00077,-9e-05,-0.00041,6e-05,2,23
6717,-7e-05,0.00024,-7e-05,-0.00102,-0.00077,-9e-05,-0.00041,6e-05,2,23
6718,-7e-05,0.00024,-7e-05,-0.00102,-0.00077,-9e-05,-0.00041,6e-05,2,23
6719,-7e-05,0.00024,-7e-05,-0.00102,-0.00077,-9e-05,-0.00041,6e-05,2,23
6720,-7e-05,0.00024,-7e-05,-0.00102,-0.00077,-9e-05,-0.00041,6e-05,2,23
6721,-7e-05,0.00024,-7e-05,-0.00102,-0.00077,-9e-05,-0.00041,6e-05,2,23
6722,-7e-05,0.00024,-7e-05,-0.00102,-0.00077,-9e-05,-0.00041,6e-05,2,23
6723,-7e-05,0.00024,-7e-05,-0.00102,-0.00077,-9e-05,-0.00041,6e-05,2,23
6724,0.00028,-5e-05,6e-05,0.00029,0.00014,-9e-05,0.00042,0.00017,2,23
6725,6e-05,5e-05,-7e-05,4e-05,0.00012,6e-05,-0.00015,-4e-05,2,23
6726,6e-05,5e-05,-7e-05,4e-05,0.00012,6e-05,-0.00015,-4e-05,2,23
6727,6e-05,5e-05,-7e-05,4e-05,0.00012,6e-05,-0.00015,-4e-05,2,23
6728,6e-05,5e-05,-7e-05,4e-05,0.00012,6e-05,-0.00015,-4e-05,2,23
6729,6e-05,5e-05,-7e-05,4e-05,0.00012,6e-05,-0.00015,-4e-05,2,23
6730,6e-05,5e-05,-7e-05,4e-05,0.00012,6e-05,-0.00015,-4e-05,2,23
6731,6e-05,5e-05,-7e-05,4e-05,0.00012,6e-05,-0.00015,-4e-05,2,23
6732,6e-05,5e-05,-7e-05,4e-05,0.00012,6e-05,-0.00015,-4e-05,2,23
6733,6e-05,5e-05,-7e-05,4e-05,0.00012,6e-05,-0.00015,-4e-05,2,23
6734,6e-05,5e-05,-7e-05,4e-05,0.00012,6e-05,-0.00015,-4e-05,2,23
6735,6e-05,5e-05,-7e-05,4e-05,0.00012,6e-05,-0.00015,-4e-05,2,23
6736,6e-05,5e-05,-7e-05,4e-05,0.00012,6e-05,-0.00015,-4e-05,2,23
6738,6e-05,5e-05,-7e-05,4e-05,0.00012,6e-05,-0.00015,-4e-05,2,23
6739,0.00041,-2e-05,-1e-05,-0.00038,-1e-05,1e-05,0.0003,0.00021,2,23
6740,0.00041,-2e-05,-1e-05,-0.00038,-1e-05,1e-05,0.0003,0.00021,2,23
6741,0.00045,0.0002,0.00036,0.00114,0.00084,0.00031,-0.00013,0.00027,2,23
6742,0.00045,0.0002,0.00036,0.00114,0.00084,0.00031,-0.00013,0.00027,2,23
6743,0.00045,0.0002,0.00036,0.00114,0.00084,0.00031,-0.00013,0.00027,2,23
6744,0.00045,0.0002,0.00036,0.00114,0.00084,0.00031,-0.00013,0.00027,2,23
6745,0.00045,0.0002,0.00036,0.00114,0.00084,0.00031,-0.00013,0.00027,2,23
6746,0.00045,0.0002,0.00036,0.00114,0.00084,0.00031,-0.00013,0.00027,2,23
6747,0.00045,0.0002,0.00036,0.00114,0.00084,0.00031,-0.00013,0.00027,2,23
6748,0.00045,0.0002,0.00036,0.00114,0.00084,0.00031,-0.00013,0.00027,2,23
6749,0.00045,0.0002,0.00036,0.00114,0.00084,0.00031,-0.00013,0.00027,2,23
6750,0.00045,0.0002,0.00036,0.00114,0.00084,0.00031,-0.00013,0.00027,2,23
6751,0.00045,0.0002,0.00036,0.00114,0.00084,0.00031,-0.00013,0.00027,2,23
6752,0.00045,0.0002,0.00036,0.00114,0.00084,0.00031,-0.00013,0.00027,2,23
6753,0.00045,0.0002,0.00036,0.00114,0.00084,0.00031,-0.00013,0.00027,2,23
6754,0.00045,0.0002,0.00036,0.00114,0.00084,0.00031,-0.00013,0.00027,2,23
6755,0.00045,0.0002,0.00036,0.00114,0.00084,0.00031,-0.00013,0.00027,2,23
6756,0.00045,0.0002,0.00036,0.00114,0.00084,0.00031,-0.00013,0.00027,2,23
6757,0.00045,0.0002,0.00036,0.00114,0.00084,0.00031,-0.00013,0.00027,2,23
6758,0.00045,0.0002,0.00036,0.00114,0.00084,0.00031,-0.00013,0.00027,2,23
6759,0.00045,0.0002,0.00036,0.00114,0.00084,0.00031,-0.00013,0.00027,2,23
6760,0.00045,0.0002,0.00036,0.00114,0.00084,0.00031,-0.00013,0.00027,2,23
6761,0.00045,0.0002,0.00036,0.00114,0.00084,0.00031,-0.00013,0.00027,2,23
6762,-0.00026,-0.00018,-8e-05,-0.00035,0.00037,4e-05,-0.00033,-0.00019,2,23
6763,0.00022,0.00017,6e-05,-0.00059,6e-05,-3e-05,0.00026,0.00018,2,23
6764,-0.00035,-0.00014,-0.00024,-0.00065,-0.00071,-0.00031,-0.00106,-0.00039,2,23
6765,-0.00035,-0.00014,-0.00024,-0.00065,-0.00071,-0.00031,-0.00106,-0.00039,2,23
6766,-0.00035,-0.00014,-0.00024,-0.00065,-0.00071,-0.00031,-0.00106,-0.00039,2,23
6767,-0.00035,-0.00014,-0.00024,-0.00065,-0.00071,-0.00031,-0.00106,-0.00039,2,23
6768,-0.00035,-0.00014,-0.00024,-0.00065,-0.00071,-0.00031,-0.00106,-0.00039,2,23
6769,-0.00035,-0.00014,-0.00024,-0.00065,-0.00071,-0.00031,-0.00106,-0.00039,2,23
6770,-0.00035,-0.00014,-0.00024,-0.00065,-0.00071,-0.00031,-0.00106,-0.00039,2,23
6771,-0.00035,-0.00014,-0.00024,-0.00065,-0.00071,-0.00031,-0.00106,-0.00039,2,23
6772,-0.00035,-0.00014,-0.00024,-0.00065,-0.00071,-0.00031,-0.00106,-0.00039,2,23
6773,-0.00035,-0.00014,-0.00024,-0.00065,-0.00071,-0.00031,-0.00106,-0.00039,2,23
6774,-0.00035,-0.00014,-0.00024,-0.00065,-0.00071,-0.00031,-0.00106,-0.00039,2,23
6775,-0.00035,-0.00014,-0.00024,-0.00065,-0.00071,-0.00031,-0.00106,-0.00039,2,23
6776,-0.00019,-0.00017,0,-0.00027,0,-1e-05,0.00042,0.00013,2,23
6777,-0.00019,-0.00017,0,-0.00027,0,-1e-05,0.00042,0.00013,2,23
6778,-0.00019,-0.00017,0,-0.00027,0,-1e-05,0.00042,0.00013,2,23
6779,-0.00019,-0.00017,0,-0.00027,0,-1e-05,0.00042,0.00013,2,23
6780,-0.00019,-0.00017,0,-0.00027,0,-1e-05,0.00042,0.00013,2,23
6781,-0.00019,-0.00017,0,-0.00027,0,-1e-05,0.00042,0.00013,2,23
6782,-0.00019,-0.00017,0,-0.00027,0,-1e-05,0.00042,0.00013,2,23
6783,-0.00019,-0.00017,0,-0.00027,0,-1e-05,0.00042,0.00013,2,23
6784,-0.00019,-0.00017,0,-0.00027,0,-1e-05,0.00042,0.00013,2,23
6785,0.00017,0.00021,7e-05,0.00043,-0.00012,9e-05,0.00033,0.00034,2,23
6786,0.00017,0.00021,7e-05,0.00043,-0.00012,9e-05,0.00033,0.00034,2,23
6788,0.00017,0.00021,7e-05,0.00043,-0.00012,9e-05,0.00033,0.00034,2,23
6789,0.00017,0.00021,7e-05,0.00043,-0.00012,9e-05,0.00033,0.00034,2,23
6790,0.00017,0.00021,7e-05,0.00043,-0.00012,9e-05,0.00033,0.00034,2,23
6791,0.00017,0.00021,7e-05,0.00043,-0.00012,9e-05,0.00033,0.00034,2,23
6792,0.00017,0.00021,7e-05,0.00043,-0.00012,9e-05,0.00033,0.00034,2,23
6793,0.00017,0.00021,7e-05,0.00043,-0.00012,9e-05,0.00033,0.00034,2,23
6794,0.00017,0.00021,7e-05,0.00043,-0.00012,9e-05,0.00033,0.00034,2,23
6795,0.00017,0.00021,7e-05,0.00043,-0.00012,9e-05,0.00033,0.00034,2,23
6796,0.00017,0.00021,7e-05,0.00043,-0.00012,9e-05,0.00033,0.00034,2,23
6797,0.00017,0.00021,7e-05,0.00043,-0.00012,9e-05,0.00033,0.00034,2,23
6798,0.00017,0.00021,7e-05,0.00043,-0.00012,9e-05,0.00033,0.00034,2,23
6799,0.0001,4e-05,-9e-05,-0.00032,-0.00036,-0.00024,-0.00049,-5e-05,2,23
6800,0.0001,4e-05,-9e-05,-0.00032,-0.00036,-0.00024,-0.00049,-5e-05,2,23
6801,-0.00025,1e-05,-3e-05,6e-05,0.00046,-5e-05,0.0007,-0.00011,2,23
6802,-7e-05,-0.00036,-0.00016,-0.00059,-9e-05,-3e-05,-0.00085,-0.0003,2,23
6803,-7e-05,-0.00036,-0.00016,-0.00059,-9e-05,-3e-05,-0.00085,-0.0003,2,23
6804,-7e-05,-0.00036,-0.00016,-0.00059,-9e-05,-3e-05,-0.00085,-0.0003,2,23
6805,-7e-05,-0.00036,-0.00016,-0.00059,-9e-05,-3e-05,-0.00085,-0.0003,2,23
6806,-7e-05,-0.00036,-0.00016,-0.00059,-9e-05,-3e-05,-0.00085,-0.0003,2,23
6807,-7e-05,-0.00036,-0.00016,-0.00059,-9e-05,-3e-05,-0.00085,-0.0003,2,23
6808,-7e-05,-0.00036,-0.00016,-0.00059,-9e-05,-3e-05,-0.00085,-0.0003,2,23
6809,-7e-05,-0.00036,-0.00016,-0.00059,-9e-05,-3e-05,-0.00085,-0.0003,2,23
6810,-7e-05,-0.00036,-0.00016,-0.00059,-9e-05,-3e-05,-0.00085,-0.0003,2,23
6811,-7e-05,-0.00036,-0.00016,-0.00059,-9e-05,-3e-05,-0.00085,-0.0003,2,23
6812,-7e-05,-0.00036,-0.00016,-0.00059,-9e-05,-3e-05,-0.00085,-0.0003,2,23
6813,-7e-05,-0.00036,-0.00016,-0.00059,-9e-05,-3e-05,-0.00085,-0.0003,2,23
6814,-7e-05,-0.00036,-0.00016,-0.00059,-9e-05,-3e-05,-0.00085,-0.0003,2,23
6815,-7e-05,-0.00036,-0.00016,-0.00059,-9e-05,-3e-05,-0.00085,-0.0003,2,23
6816,-7e-05,-0.00036,-0.00016,-0.00059,-9e-05,-3e-05,-0.00085,-0.0003,2,23
6817,-7e-05,-0.00036,-0.00016,-0.00059,-9e-05,-3e-05,-0.00085,-0.0003,2,23
6818,-7e-05,-0.00036,-0.00016,-0.00059,-9e-05,-3e-05,-0.00085,-0.0003,2,23
6819,-7e-05,-0.00036,-0.00016,-0.00059,-9e-05,-3e-05,-0.00085,-0.0003,2,23
6820,-7e-05,-0.00036,-0.00016,-0.00059,-9e-05,-3e-05,-0.00085,-0.0003,2,23
6821,-7e-05,-0.00036,-0.00016,-0.00059,-9e-05,-3e-05,-0.00085,-0.0003,2,23
6822,-0.00012,-9e-05,-2e-05,-0.00073,-4e-05,4e-05,0.0003,5e-05,2,23
6823,0.00012,0.00013,-2e-05,-0.00058,-0.00023,7e-05,-0.00052,-0.00011,2,23
6824,-0.00015,-3e-05,-3e-05,0.00056,0.00076,0,0.00056,0.00011,2,23
6825,-0.00015,-3e-05,-3e-05,0.00056,0.00076,0,0.00056,0.00011,2,23
6826,-0.00015,-3e-05,-3e-05,0.00056,0.00076,0,0.00056,0.00011,2,23
6827,-0.00015,-3e-05,-3e-05,0.00056,0.00076,0,0.00056,0.00011,2,23
6828,-0.00015,-3e-05,-3e-05,0.00056,0.00076,0,0.00056,0.00011,2,23
6829,-0.00015,-3e-05,-3e-05,0.00056,0.00076,0,0.00056,0.00011,2,23
6830,-0.00015,-3e-05,-3e-05,0.00056,0.00076,0,0.00056,0.00011,2,23
6831,-0.00015,-3e-05,-3e-05,0.00056,0.00076,0,0.00056,0.00011,2,23
6832,-0.00015,-3e-05,-3e-05,0.00056,0.00076,0,0.00056,0.00011,2,23
6833,-0.00015,-3e-05,-3e-05,0.00056,0.00076,0,0.00056,0.00011,2,23
6834,-0.00015,-3e-05,-3e-05,0.00056,0.00076,0,0.00056,0.00011,2,23
6835,-0.00015,-3e-05,-3e-05,0.00056,0.00076,0,0.00056,0.00011,2,23
6836,-0.00061,-0.00067,-0.00014,0,-0.00032,-2e-05,0.0007,-0.00012,2,23
6838,-0.00061,-0.00067,-0.00014,0,-0.00032,-2e-05,0.0007,-0.00012,2,23
6839,-0.00061,-0.00067,-0.00014,0,-0.00032,-2e-05,0.0007,-0.00012,2,23
6840,-0.00061,-0.00067,-0.00014,0,-0.00032,-2e-05,0.0007,-0.00012,2,23
6841,-0.00061,-0.00067,-0.00014,0,-0.00032,-2e-05,0.0007,-0.00012,2,23
6842,-0.00061,-0.00067,-0.00014,0,-0.00032,-2e-05,0.0007,-0.00012,2,23
6843,-0.00061,-0.00067,-0.00014,0,-0.00032,-2e-05,0.0007,-0.00012,2,23
6844,0.00065,0.0005,0.00018,0.00014,0.00015,5e-05,-0.00016,0.00022,2,23
6845,-0.00019,-9e-05,-0.00012,-0.00026,-0.00014,1e-05,-0.00095,-0.00031,2,23
6846,-0.00019,-9e-05,-0.00012,-0.00026,-0.00014,1e-05,-0.00095,-0.00031,2,23
6847,-0.00019,-9e-05,-0.00012,-0.00026,-0.00014,1e-05,-0.00095,-0.00031,2,23
6848,-0.00019,-9e-05,-0.00012,-0.00026,-0.00014,1e-05,-0.00095,-0.00031,2,23
6849,-0.00019,-9e-05,-0.00012,-0.00026,-0.00014,1e-05,-0.00095,-0.00031,2,23
6850,-0.00019,-9e-05,-0.00012,-0.00026,-0.00014,1e-05,-0.00095,-0.00031,2,23
6851,-0.00019,-9e-05,-0.00012,-0.00026,-0.00014,1e-05,-0.00095,-0.00031,2,23
6852,-0.00019,-9e-05,-0.00012,-0.00026,-0.00014,1e-05,-0.00095,-0.00031,2,23
6853,-0.00019,-9e-05,-0.00012,-0.00026,-0.00014,1e-05,-0.00095,-0.00031,2,23
6854,-0.00019,-9e-05,-0.00012,-0.00026,-0.00014,1e-05,-0.00095,-0.00031,2,23
6855,-0.00019,-9e-05,-0.00012,-0.00026,-0.00014,1e-05,-0.00095,-0.00031,2,23
6856,-0.00019,-9e-05,-0.00012,-0.00026,-0.00014,1e-05,-0.00095,-0.00031,2,23
6857,-0.00019,-9e-05,-0.00012,-0.00026,-0.00014,1e-05,-0.00095,-0.00031,2,23
6858,-0.00019,-9e-05,-0.00012,-0.00026,-0.00014,1e-05,-0.00095,-0.00031,2,23
6859,0.00016,0.00037,0.00018,0.00089,0.00018,7e-05,-0.00018,-8e-05,2,23
6860,0.00016,0.00037,0.00018,0.00089,0.00018,7e-05,-0.00018,-8e-05,2,23
6861,-0.00026,2e-05,-2e-05,-0.00028,-0.0001,-3e-05,-0.00025,-0.00027,2,23
6862,-0.00026,2e-05,-2e-05,-0.00028,-0.0001,-3e-05,-0.00025,-0.00027,2,23
6863,-0.00026,2e-05,-2e-05,-0.00028,-0.0001,-3e-05,-0.00025,-0.00027,2,23
6864,-0.00026,2e-05,-2e-05,-0.00028,-0.0001,-3e-05,-0.00025,-0.00027,2,23
6865,-0.00026,2e-05,-2e-05,-0.00028,-0.0001,-3e-05,-0.00025,-0.00027,2,23
6866,-0.00026,2e-05,-2e-05,-0.00028,-0.0001,-3e-05,-0.00025,-0.00027,2,23
6867,-0.00026,2e-05,-2e-05,-0.00028,-0.0001,-3e-05,-0.00025,-0.00027,2,23
6868,-0.00026,2e-05,-2e-05,-0.00028,-0.0001,-3e-05,-0.00025,-0.00027,2,23
6869,-0.00026,2e-05,-2e-05,-0.00028,-0.0001,-3e-05,-0.00025,-0.00027,2,23
6870,-0.00026,2e-05,-2e-05,-0.00028,-0.0001,-3e-05,-0.00025,-0.00027,2,23
6871,-0.00026,2e-05,-2e-05,-0.00028,-0.0001,-3e-05,-0.00025,-0.00027,2,23
6872,-0.00026,2e-05,-2e-05,-0.00028,-0.0001,-3e-05,-0.00025,-0.00027,2,23
6873,-0.00026,2e-05,-2e-05,-0.00028,-0.0001,-3e-05,-0.00025,-0.00027,2,23
6874,-0.00026,2e-05,-2e-05,-0.00028,-0.0001,-3e-05,-0.00025,-0.00027,2,23
6875,-0.00026,2e-05,-2e-05,-0.00028,-0.0001,-3e-05,-0.00025,-0.00027,2,23
6876,-0.00026,2e-05,-2e-05,-0.00028,-0.0001,-3e-05,-0.00025,-0.00027,2,23
6877,-0.00026,2e-05,-2e-05,-0.00028,-0.0001,-3e-05,-0.00025,-0.00027,2,23
6878,-0.00026,2e-05,-2e-05,-0.00028,-0.0001,-3e-05,-0.00025,-0.00027,2,23
6879,-0.00026,2e-05,-2e-05,-0.00028,-0.0001,-3e-05,-0.00025,-0.00027,2,23
6880,-0.00026,2e-05,-2e-05,-0.00028,-0.0001,-3e-05,-0.00025,-0.00027,2,23
6881,-0.00026,2e-05,-2e-05,-0.00028,-0.0001,-3e-05,-0.00025,-0.00027,2,23
6882,0.00061,0.00036,6e-05,-0.0006,0.00025,2e-05,0.00066,0.00024,2,23
6883,-0.00069,-0.00028,-6e-05,0.00038,-3e-05,-0.00021,-0.00017,-0.00024,2,23
6884,0.00038,2e-05,1e-05,0.00027,-0.00028,2e-05,0.00066,0.00025,2,23
6885,0.00038,2e-05,1e-05,0.00027,-0.00028,2e-05,0.00066,0.00025,2,23
6886,0.00038,2e-05,1e-05,0.00027,-0.00028,2e-05,0.00066,0.00025,2,23
6888,0.00038,2e-05,1e-05,0.00027,-0.00028,2e-05,0.00066,0.00025,2,23
6889,0.00038,2e-05,1e-05,0.00027,-0.00028,2e-05,0.00066,0.00025,2,23
6890,0.00038,2e-05,1e-05,0.00027,-0.00028,2e-05,0.00066,0.00025,2,23
6891,0.00038,2e-05,1e-05,0.00027,-0.00028,2e-05,0.00066,0.00025,2,23
6892,0.00038,2e-05,1e-05,0.00027,-0.00028,2e-05,0.00066,0.00025,2,23
6893,0.00038,2e-05,1e-05,0.00027,-0.00028,2e-05,0.00066,0.00025,2,23
6894,0.00038,2e-05,1e-05,0.00027,-0.00028,2e-05,0.00066,0.00025,2,23
6895,0.00038,2e-05,1e-05,0.00027,-0.00028,2e-05,0.00066,0.00025,2,23
6896,-0.00042,-4e-05,-0.00012,-0.00067,0.00022,-0.00012,-0.00014,6e-05,2,23
6897,-0.00042,-4e-05,-0.00012,-0.00067,0.00022,-0.00012,-0.00014,6e-05,2,23
6898,-0.00042,-4e-05,-0.00012,-0.00067,0.00022,-0.00012,-0.00014,6e-05,2,23
6899,-0.00042,-4e-05,-0.00012,-0.00067,0.00022,-0.00012,-0.00014,6e-05,2,23
6900,-0.00042,-4e-05,-0.00012,-0.00067,0.00022,-0.00012,-0.00014,6e-05,2,23
6901,-0.00042,-4e-05,-0.00012,-0.00067,0.00022,-0.00012,-0.00014,6e-05,2,23
6902,-0.00042,-4e-05,-0.00012,-0.00067,0.00022,-0.00012,-0.00014,6e-05,2,23
6903,-0.00042,-4e-05,-0.00012,-0.00067,0.00022,-0.00012,-0.00014,6e-05,2,23
6904,0.00083,0.00022,4e-05,0.00035,-7e-05,0.0002,0.00046,0.00048,2,23
6905,-0.00042,-0.0001,0.00016,0.00022,0.00031,-0.00019,-0.00019,-0.00022,2,23
6906,-0.00042,-0.0001,0.00016,0.00022,0.00031,-0.00019,-0.00019,-0.00022,2,23
6907,-0.00042,-0.0001,0.00016,0.00022,0.00031,-0.00019,-0.00019,-0.00022,2,23
6908,-0.00042,-0.0001,0.00016,0.00022,0.00031,-0.00019,-0.00019,-0.00022,2,23
6909,-0.00042,-0.0001,0.00016,0.00022,0.00031,-0.00019,-0.00019,-0.00022,2,23
6910,-0.00042,-0.0001,0.00016,0.00022,0.00031,-0.00019,-0.00019,-0.00022,2,23
6911,-0.00042,-0.0001,0.00016,0.00022,0.00031,-0.00019,-0.00019,-0.00022,2,23
6912,-0.00042,-0.0001,0.00016,0.00022,0.00031,-0.00019,-0.00019,-0.00022,2,23
6913,-0.00042,-0.0001,0.00016,0.00022,0.00031,-0.00019,-0.00019,-0.00022,2,23
6914,-0.00042,-0.0001,0.00016,0.00022,0.00031,-0.00019,-0.00019,-0.00022,2,23
6915,-0.00042,-0.0001,0.00016,0.00022,0.00031,-0.00019,-0.00019,-0.00022,2,23
6916,-0.00042,-0.0001,0.00016,0.00022,0.00031,-0.00019,-0.00019,-0.00022,2,23
6917,-0.00042,-0.0001,0.00016,0.00022,0.00031,-0.00019,-0.00019,-0.00022,2,23
6918,-0.00042,-0.0001,0.00016,0.00022,0.00031,-0.00019,-0.00019,-0.00022,2,23
6919,-0.00042,-0.0001,0.00016,0.00022,0.00031,-0.00019,-0.00019,-0.00022,2,23
6920,-0.00042,-0.0001,0.00016,0.00022,0.00031,-0.00019,-0.00019,-0.00022,2,23
6921,-0.00042,-0.0001,0.00016,0.00022,0.00031,-0.00019,-0.00019,-0.00022,2,23
6922,-0.00042,-0.0001,0.00016,0.00022,0.00031,-0.00019,-0.00019,-0.00022,2,23
6923,-0.00042,-0.0001,0.00016,0.00022,0.00031,-0.00019,-0.00019,-0.00022,2,23
6924,-0.00042,-0.0001,0.00016,0.00022,0.00031,-0.00019,-0.00019,-0.00022,2,23
6925,-0.00042,-0.0001,0.00016,0.00022,0.00031,-0.00019,-0.00019,-0.00022,2,23
6926,-0.00042,-0.0001,0.00016,0.00022,0.00031,-0.00019,-0.00019,-0.00022,2,23
6927,0.00041,2e-05,4e-05,0.00011,-4e-05,0.0001,-0.00027,0.00022,2,23
6928,-0.0002,-7e-05,-0.0001,-0.00063,-0.00051,-2e-05,0,-0.00011,2,23
6929,-0.00035,-8e-05,-0.00016,-0.00045,-0.00018,8e-05,-0.00021,-0.00029,2,23
6930,-0.00035,-8e-05,-0.00016,-0.00045,-0.00018,8e-05,-0.00021,-0.00029,2,23
6931,-0.00035,-8e-05,-0.00016,-0.00045,-0.00018,8e-05,-0.00021,-0.00029,2,23
6932,-0.00035,-8e-05,-0.00016,-0.00045,-0.00018,8e-05,-0.00021,-0.00029,2,23
6933,-0.00035,-8e-05,-0.00016,-0.00045,-0.00018,8e-05,-0.00021,-0.00029,2,23
6934,-0.00035,-8e-05,-0.00016,-0.00045,-0.00018,8e-05,-0.00021,-0.00029,2,23
6935,-0.00035,-8e-05,-0.00016,-0.00045,-0.00018,8e-05,-0.00021,-0.00029,2,23
6936,-0.00035,-8e-05,-0.00016,-0.00045,-0.00018,8e-05,-0.00021,-0.00029,2,23
6938,-0.00035,-8e-05,-0.00016,-0.00045,-0.00018,8e-05,-0.00021,-0.00029,2,23
6939,-0.00035,-8e-05,-0.00016,-0.00045,-0.00018,8e-05,-0.00021,-0.00029,2,23
6940,-0.00035,-8e-05,-0.00016,-0.00045,-0.00018,8e-05,-0.00021,-0.00029,2,23
6941,-0.00035,-8e-05,-0.00016,-0.00045,-0.00018,8e-05,-0.00021,-0.00029,2,23
6942,0.00017,2e-05,-8e-05,-0.00063,-0.00051,-1e-05,0.00033,-3e-05,2,23
6943,0.0002,0.00014,1e-05,-1e-05,0.00014,0.00012,-0.00023,7e-05,2,23
6944,8e-05,7e-05,-0.00011,-0.00095,-0.00076,-0.00012,0.00076,0.00014,2,23
6945,8e-05,7e-05,-0.00011,-0.00095,-0.00076,-0.00012,0.00076,0.00014,2,23
6946,8e-05,7e-05,-0.00011,-0.00095,-0.00076,-0.00012,0.00076,0.00014,2,23
6947,8e-05,7e-05,-0.00011,-0.00095,-0.00076,-0.00012,0.00076,0.00014,2,23
6948,8e-05,7e-05,-0.00011,-0.00095,-0.00076,-0.00012,0.00076,0.00014,2,23
6949,8e-05,7e-05,-0.00011,-0.00095,-0.00076,-0.00012,0.00076,0.00014,2,23
6950,8e-05,7e-05,-0.00011,-0.00095,-0.00076,-0.00012,0.00076,0.00014,2,23
6951,8e-05,7e-05,-0.00011,-0.00095,-0.00076,-0.00012,0.00076,0.00014,2,23
6952,8e-05,7e-05,-0.00011,-0.00095,-0.00076,-0.00012,0.00076,0.00014,2,23
6953,8e-05,7e-05,-0.00011,-0.00095,-0.00076,-0.00012,0.00076,0.00014,2,23
6954,0.00028,0.00023,9e-05,-0.00013,1e-05,-9e-05,0,0.00014,2,23
6956,-0.00072,-0.00062,-4e-05,0.00067,-9e-05,3e-05,-0.00037,-0.00029,2,23
6957,-0.00072,-0.00062,-4e-05,0.00067,-9e-05,3e-05,-0.00037,-0.00029,2,23
6958,-0.00072,-0.00062,-4e-05,0.00067,-9e-05,3e-05,-0.00037,-0.00029,2,23
6959,-0.00072,-0.00062,-4e-05,0.00067,-9e-05,3e-05,-0.00037,-0.00029,2,23
6960,-0.00072,-0.00062,-4e-05,0.00067,-9e-05,3e-05,-0.00037,-0.00029,2,23
6961,-0.00072,-0.00062,-4e-05,0.00067,-9e-05,3e-05,-0.00037,-0.00029,2,23
6962,-0.00072,-0.00062,-4e-05,0.00067,-9e-05,3e-05,-0.00037,-0.00029,2,23
6963,-0.00072,-0.00062,-4e-05,0.00067,-9e-05,3e-05,-0.00037,-0.00029,2,23
6964,0.00013,-0.0001,-4e-05,0.00023,-8e-05,4e-05,0.00121,0.00052,2,23
6965,0.00013,-0.0001,-4e-05,0.00023,-8e-05,4e-05,0.00121,0.00052,2,23
6966,0.00013,-0.0001,-4e-05,0.00023,-8e-05,4e-05,0.00121,0.00052,2,23
6967,0.00013,-0.0001,-4e-05,0.00023,-8e-05,4e-05,0.00121,0.00052,2,23
6968,0.00013,-0.0001,-4e-05,0.00023,-8e-05,4e-05,0.00121,0.00052,2,23
6969,0.00013,-0.0001,-4e-05,0.00023,-8e-05,4e-05,0.00121,0.00052,2,23
6970,0.00013,-0.0001,-4e-05,0.00023,-8e-05,4e-05,0.00121,0.00052,2,23
6971,0.00013,-0.0001,-4e-05,0.00023,-8e-05,4e-05,0.00121,0.00052,2,23
6972,0.00013,-0.0001,-4e-05,0.00023,-8e-05,4e-05,0.00121,0.00052,2,23
6973,0.00013,-0.0001,-4e-05,0.00023,-8e-05,4e-05,0.00121,0.00052,2,23
6974,0.00013,-0.0001,-4e-05,0.00023,-8e-05,4e-05,0.00121,0.00052,2,23
6975,0.00013,-0.0001,-4e-05,0.00023,-8e-05,4e-05,0.00121,0.00052,2,23
6976,0.00013,-0.0001,-4e-05,0.00023,-8e-05,4e-05,0.00121,0.00052,2,23
6977,0.00013,-0.0001,-4e-05,0.00023,-8e-05,4e-05,0.00121,0.00052,2,23
6978,0.00013,-0.0001,-4e-05,0.00023,-8e-05,4e-05,0.00121,0.00052,2,23
6979,0,0.00033,0,-0.00036,-7e-05,0,-0.00037,-9e-05,2,23
6980,0,0.00033,0,-0.00036,-7e-05,0,-0.00037,-9e-05,2,23
6981,0.00056,6e-05,0.00024,0.00117,0.0008,3e-05,0.00026,0.00033,2,23
6982,0.00056,6e-05,0.00024,0.00117,0.0008,3e-05,0.00026,0.00033,2,23
6983,0.00056,6e-05,0.00024,0.00117,0.0008,3e-05,0.00026,0.00033,2,23
6984,0.00056,6e-05,0.00024,0.00117,0.0008,3e-05,0.00026,0.00033,2,23
6985,0.00056,6e-05,0.00024,0.00117,0.0008,3e-05,0.00026,0.00033,2,23
6986,0.00056,6e-05,0.00024,0.00117,0.0008,3e-05,0.00026,0.00033,2,23
6988,0.00056,6e-05,0.00024,0.00117,0.0008,3e-05,0.00026,0.00033,2,23
6989,0.00056,6e-05,0.00024,0.00117,0.0008,3e-05,0.00026,0.00033,2,23
6990,0.00056,6e-05,0.00024,0.00117,0.0008,3e-05,0.00026,0.00033,2,23
6991,0.00056,6e-05,0.00024,0.00117,0.0008,3e-05,0.00026,0.00033,2,23
6992,0.00056,6e-05,0.00024,0.00117,0.0008,3e-05,0.00026,0.00033,2,23
6993,0.00056,6e-05,0.00024,0.00117,0.0008,3e-05,0.00026,0.00033,2,23
6994,0.00056,6e-05,0.00024,0.00117,0.0008,3e-05,0.00026,0.00033,2,23
6995,0.00056,6e-05,0.00024,0.00117,0.0008,3e-05,0.00026,0.00033,2,23
6996,0.00056,6e-05,0.00024,0.00117,0.0008,3e-05,0.00026,0.00033,2,23
6997,0.00056,6e-05,0.00024,0.00117,0.0008,3e-05,0.00026,0.00033,2,23
6998,0.00056,6e-05,0.00024,0.00117,0.0008,3e-05,0.00026,0.00033,2,23
6999,0.00056,6e-05,0.00024,0.00117,0.0008,3e-05,0.00026,0.00033,2,23
7000,0.00056,6e-05,0.00024,0.00117,0.0008,3e-05,0.00026,0.00033,2,23
7001,0.00056,6e-05,0.00024,0.00117,0.0008,3e-05,0.00026,0.00033,2,23
7002,9e-05,6e-05,-5e-05,-0.00059,-0.00017,-1e-05,-8e-05,7e-05,2,23
7003,-6e-05,-0.0002,-5e-05,-0.00062,-0.0004,-0.00013,-0.00074,-0.00025,2,23
7004,-0.00043,4e-05,4e-05,-0.00012,-0.00016,-3e-05,6e-05,-0.00018,2,23
7005,-0.00043,4e-05,4e-05,-0.00012,-0.00016,-3e-05,6e-05,-0.00018,2,23
7006,-0.00043,4e-05,4e-05,-0.00012,-0.00016,-3e-05,6e-05,-0.00018,2,23
7007,-0.00043,4e-05,4e-05,-0.00012,-0.00016,-3e-05,6e-05,-0.00018,2,23
7008,-0.00043,4e-05,4e-05,-0.00012,-0.00016,-3e-05,6e-05,-0.00018,2,23
7009,-0.00043,4e-05,4e-05,-0.00012,-0.00016,-3e-05,6e-05,-0.00018,2,23
7010,-0.00043,4e-05,4e-05,-0.00012,-0.00016,-3e-05,6e-05,-0.00018,2,23
7011,-0.00043,4e-05,4e-05,-0.00012,-0.00016,-3e-05,6e-05,-0.00018,2,23
7012,-0.00043,4e-05,4e-05,-0.00012,-0.00016,-3e-05,6e-05,-0.00018,2,23
7013,-0.00043,4e-05,4e-05,-0.00012,-0.00016,-3e-05,6e-05,-0.00018,2,23
7014,-0.00043,4e-05,4e-05,-0.00012,-0.00016,-3e-05,6e-05,-0.00018,2,23
7015,0.00039,-4e-05,7e-05,0.001,0.00035,0.00023,0.00061,0.0002,2,23
7016,0.00045,0.00037,7e-05,0.00029,0.00017,-9e-05,-0.00094,-0.0001,2,23
7017,0.00045,0.00037,7e-05,0.00029,0.00017,-9e-05,-0.00094,-0.0001,2,23
7018,0.00045,0.00037,7e-05,0.00029,0.00017,-9e-05,-0.00094,-0.0001,2,23
7019,0.00045,0.00037,7e-05,0.00029,0.00017,-9e-05,-0.00094,-0.0001,2,23
7020,0.00045,0.00037,7e-05,0.00029,0.00017,-9e-05,-0.00094,-0.0001,2,23
7021,0.00045,0.00037,7e-05,0.00029,0.00017,-9e-05,-0.00094,-0.0001,2,23
7022,0.00045,0.00037,7e-05,0.00029,0.00017,-9e-05,-0.00094,-0.0001,2,23
7023,0.00045,0.00037,7e-05,0.00029,0.00017,-9e-05,-0.00094,-0.0001,2,23
7024,0.00045,0.00037,7e-05,0.00029,0.00017,-9e-05,-0.00094,-0.0001,2,23
7025,3e-05,-0.00019,6e-05,-7e-05,0.00038,-5e-05,-0.00074,-0.0002,2,23
7026,3e-05,-0.00019,6e-05,-7e-05,0.00038,-5e-05,-0.00074,-0.0002,2,23
7027,3e-05,-0.00019,6e-05,-7e-05,0.00038,-5e-05,-0.00074,-0.0002,2,23
7028,3e-05,-0.00019,6e-05,-7e-05,0.00038,-5e-05,-0.00074,-0.0002,2,23
7029,3e-05,-0.00019,6e-05,-7e-05,0.00038,-5e-05,-0.00074,-0.0002,2,23
7030,3e-05,-0.00019,6e-05,-7e-05,0.00038,-5e-05,-0.00074,-0.0002,2,23
7031,3e-05,-0.00019,6e-05,-7e-05,0.00038,-5e-05,-0.00074,-0.0002,2,23
7032,3e-05,-0.00019,6e-05,-7e-05,0.00038,-5e-05,-0.00074,-0.0002,2,23
7033,3e-05,-0.00019,6e-05,-7e-05,0.00038,-5e-05,-0.00074,-0.0002,2,23
7034,3e-05,-0.00019,6e-05,-7e-05,0.00038,-5e-05,-0.00074,-0.0002,2,23
7035,3e-05,-0.00019,6e-05,-7e-05,0.00038,-5e-05,-0.00074,-0.0002,2,23
7036,3e-05,-0.00019,6e-05,-7e-05,0.00038,-5e-05,-0.00074,-0.0002,2,23
7038,3e-05,-0.00019,6e-05,-7e-05,0.00038,-5e-05,-0.00074,-0.0002,2,23
7039,3e-05,-0.00019,6e-05,-7e-05,0.00038,-5e-05,-0.00074,-0.0002,2,23
7040,-0.00017,-0.00018,-6e-05,4e-05,-1e-05,7e-05,8e-05,3e-05,2,23
7041,-0.00017,-0.00018,-6e-05,4e-05,-1e-05,7e-05,8e-05,3e-05,2,23
7042,-7e-05,-4e-05,-3e-05,-0.00021,-0.00025,-1e-05,-0.00018,-5e-05,2,23
7043,-7e-05,-4e-05,-3e-05,-0.00021,-0.00025,-1e-05,-0.00018,-5e-05,2,23
7044,-7e-05,-4e-05,-3e-05,-0.00021,-0.00025,-1e-05,-0.00018,-5e-05,2,23
36158,-0.00047,-0.00015,0.00027,0.00051,0.00016,-0.00018,0.00041,-0.00024,2,23
36159,-0.00047,-0.00015,0.00027,0.00051,0.00016,-0.00018,0.00041,-0.00024,2,23
36160,-0.00047,-0.00015,0.00027,0.00051,0.00016,-0.00018,0.00041,-0.00024,2,23
36161,-0.00047,-0.00015,0.00027,0.00051,0.00016,-0.00018,0.00041,-0.00024,2,23
36162,-0.00047,-0.00015,0.00027,0.00051,0.00016,-0.00018,0.00041,-0.00024,2,23
36163,-0.00035,-0.0003,-2e-05,-0.00024,-0.00017,-0.00032,-0.00074,-0.00053,2,23
36164,-0.00035,-0.0003,-2e-05,-0.00024,-0.00017,-0.00032,-0.00074,-0.00053,2,23
36165,-0.00035,-0.0003,-2e-05,-0.00024,-0.00017,-0.00032,-0.00074,-0.00053,2,23
36166,-0.00035,-0.0003,-2e-05,-0.00024,-0.00017,-0.00032,-0.00074,-0.00053,2,23
36167,-0.00035,-0.0003,-2e-05,-0.00024,-0.00017,-0.00032,-0.00074,-0.00053,2,23
36168,-0.00035,-0.0003,-2e-05,-0.00024,-0.00017,-0.00032,-0.00074,-0.00053,2,23
36169,-0.00035,-0.0003,-2e-05,-0.00024,-0.00017,-0.00032,-0.00074,-0.00053,2,23
36170,-0.00035,-0.0003,-2e-05,-0.00024,-0.00017,-0.00032,-0.00074,-0.00053,2,23
36171,-0.00035,-0.0003,-2e-05,-0.00024,-0.00017,-0.00032,-0.00074,-0.00053,2,23
36172,-0.00035,-0.0003,-2e-05,-0.00024,-0.00017,-0.00032,-0.00074,-0.00053,2,23
36173,-0.00035,-0.0003,-2e-05,-0.00024,-0.00017,-0.00032,-0.00074,-0.00053,2,23
36174,-0.00035,-0.0003,-2e-05,-0.00024,-0.00017,-0.00032,-0.00074,-0.00053,2,23
36175,-0.00035,-0.0003,-2e-05,-0.00024,-0.00017,-0.00032,-0.00074,-0.00053,2,23
36176,-0.00035,-0.0003,-2e-05,-0.00024,-0.00017,-0.00032,-0.00074,-0.00053,2,23
36177,-0.00035,-0.0003,-2e-05,-0.00024,-0.00017,-0.00032,-0.00074,-0.00053,2,23
36178,0.0002,8e-05,6e-05,-0.00038,-0.00067,-0.00016,-0.0012,0.00024,2,23
36179,0.00071,0.00022,0.0001,0.00013,-0.00019,0.00029,0.0002,0.00037,2,23
36180,0.00071,0.00022,0.0001,0.00013,-0.00019,0.00029,0.0002,0.00037,2,23
36181,0.00071,0.00022,0.0001,0.00013,-0.00019,0.00029,0.0002,0.00037,2,23
36182,0.00071,0.00022,0.0001,0.00013,-0.00019,0.00029,0.0002,0.00037,2,23
36183,0.00071,0.00022,0.0001,0.00013,-0.00019,0.00029,0.0002,0.00037,2,23
36184,0.00071,0.00022,0.0001,0.00013,-0.00019,0.00029,0.0002,0.00037,2,23
36185,0.00071,0.00022,0.0001,0.00013,-0.00019,0.00029,0.0002,0.00037,2,23
36186,0.00071,0.00022,0.0001,0.00013,-0.00019,0.00029,0.0002,0.00037,2,23
36189,0.00071,0.00022,0.0001,0.00013,-0.00019,0.00029,0.0002,0.00037,2,23
36190,0.00071,0.00022,0.0001,0.00013,-0.00019,0.00029,0.0002,0.00037,2,23
36191,0.00071,0.00022,0.0001,0.00013,-0.00019,0.00029,0.0002,0.00037,2,23
36192,0.00071,0.00022,0.0001,0.00013,-0.00019,0.00029,0.0002,0.00037,2,23
36193,0.00071,0.00022,0.0001,0.00013,-0.00019,0.00029,0.0002,0.00037,2,23
36194,0.00071,0.00022,0.0001,0.00013,-0.00019,0.00029,0.0002,0.00037,2,23
36195,0.00071,0.00022,0.0001,0.00013,-0.00019,0.00029,0.0002,0.00037,2,23
36196,0.00071,0.00022,0.0001,0.00013,-0.00019,0.00029,0.0002,0.00037,2,23
36197,0.00071,0.00022,0.0001,0.00013,-0.00019,0.00029,0.0002,0.00037,2,23
36198,0.00071,0.00022,0.0001,0.00013,-0.00019,0.00029,0.0002,0.00037,2,23
36199,0.00071,0.00022,0.0001,0.00013,-0.00019,0.00029,0.0002,0.00037,2,23
36200,0.00011,-0.00017,-0.00034,-0.00012,-1e-05,-0.00024,0.00034,-9e-05,2,23
36201,0.00011,-0.00017,-0.00034,-0.00012,-1e-05,-0.00024,0.00034,-9e-05,2,23
36202,-0.00019,-0.00029,-0.00014,0.00048,0.00078,-0.00024,0.00118,0.00041,2,23
36203,-0.00019,-0.00029,-0.00014,0.00048,0.00078,-0.00024,0.00118,0.00041,2,23
36204,-0.00019,-0.00029,-0.00014,0.00048,0.00078,-0.00024,0.00118,0.00041,2,23
36205,-0.00019,-0.00029,-0.00014,0.00048,0.00078,-0.00024,0.00118,0.00041,2,23
36206,-0.00019,-0.00029,-0.00014,0.00048,0.00078,-0.00024,0.00118,0.00041,2,23
36207,-0.00019,-0.00029,-0.00014,0.00048,0.00078,-0.00024,0.00118,0.00041,2,23
36208,-0.00019,-0.00029,-0.00014,0.00048,0.00078,-0.00024,0.00118,0.00041,2,23
36209,-0.00019,-0.00029,-0.00014,0.00048,0.00078,-0.00024,0.00118,0.00041,2,23
36210,-0.00019,-0.00029,-0.00014,0.00048,0.00078,-0.00024,0.00118,0.00041,2,23
36212,-0.00019,-0.00029,-0.00014,0.00048,0.00078,-0.00024,0.00118,0.00041,2,23
36213,-0.00019,-0.00029,-0.00014,0.00048,0.00078,-0.00024,0.00118,0.00041,2,23
36214,0.00105,0.0003,0.00035,0.00127,0.00075,0.00108,0.00124,0.00105,2,23
36215,0.00105,0.0003,0.00035,0.00127,0.00075,0.00108,0.00124,0.00105,2,23
36216,0.00105,0.0003,0.00035,0.00127,0.00075,0.00108,0.00124,0.00105,2,23
36217,0.00105,0.0003,0.00035,0.00127,0.00075,0.00108,0.00124,0.00105,2,23
36218,0.00105,0.0003,0.00035,0.00127,0.00075,0.00108,0.00124,0.00105,2,23
36219,0.00105,0.0003,0.00035,0.00127,0.00075,0.00108,0.00124,0.00105,2,23
36220,0.00105,0.0003,0.00035,0.00127,0.00075,0.00108,0.00124,0.00105,2,23
36221,0.00105,0.0003,0.00035,0.00127,0.00075,0.00108,0.00124,0.00105,2,23
36222,0.00105,0.0003,0.00035,0.00127,0.00075,0.00108,0.00124,0.00105,2,23
