6119,0,1e-05,4e-05,0.00032,0.00056,-0.00063,-0.00055,-0.00014,2,26
6120,0,1e-05,4e-05,0.00032,0.00056,-0.00063,-0.00055,-0.00014,2,26
6121,0,1e-05,4e-05,0.00032,0.00056,-0.00063,-0.00055,-0.00014,2,26
6122,0,1e-05,4e-05,0.00032,0.00056,-0.00063,-0.00055,-0.00014,2,26
6123,0,1e-05,4e-05,0.00032,0.00056,-0.00063,-0.00055,-0.00014,2,26
6124,0,1e-05,4e-05,0.00032,0.00056,-0.00063,-0.00055,-0.00014,2,26
6125,0,1e-05,4e-05,0.00032,0.00056,-0.00063,-0.00055,-0.00014,2,26
6126,0,1e-05,4e-05,0.00032,0.00056,-0.00063,-0.00055,-0.00014,2,26
6127,0,1e-05,4e-05,0.00032,0.00056,-0.00063,-0.00055,-0.00014,2,26
6128,0,1e-05,4e-05,0.00032,0.00056,-0.00063,-0.00055,-0.00014,2,26
6129,0,1e-05,4e-05,0.00032,0.00056,-0.00063,-0.00055,-0.00014,2,26
6130,0,1e-05,4e-05,0.00032,0.00056,-0.00063,-0.00055,-0.00014,2,26
6131,0,1e-05,4e-05,0.00032,0.00056,-0.00063,-0.00055,-0.00014,2,26
6132,0,1e-05,4e-05,0.00032,0.00056,-0.00063,-0.00055,-0.00014,2,26
6133,0,1e-05,4e-05,0.00032,0.00056,-0.00063,-0.00055,-0.00014,2,26
6134,-0.00018,-0.00011,-0.00015,0.00019,0.00026,0.00016,0.00031,9e-05,2,26
6135,-0.00018,-0.00011,-0.00015,0.00019,0.00026,0.00016,0.00031,9e-05,2,26
6136,-0.00018,-0.00011,-0.00015,0.00019,0.00026,0.00016,0.00031,9e-05,2,26
6138,-0.00018,-0.00011,-0.00015,0.00019,0.00026,0.00016,0.00031,9e-05,2,26
6139,-0.00018,-0.00011,-0.00015,0.00019,0.00026,0.00016,0.00031,9e-05,2,26
6140,-0.00018,-0.00011,-0.00015,0.00019,0.00026,0.00016,0.00031,9e-05,2,26
6141,-0.00018,-0.00011,-0.00015,0.00019,0.00026,0.00016,0.00031,9e-05,2,26
6142,-0.00011,-0.00017,-0.00045,0.00023,0.00033,0,0.00012,-2e-05,2,26
6143,-0.00011,-0.00017,-0.00045,0.00023,0.00033,0,0.00012,-2e-05,2,26
6144,-0.00011,-0.00017,-0.00045,0.00023,0.00033,0,0.00012,-2e-05,2,26
6145,-0.00011,-0.00017,-0.00045,0.00023,0.00033,0,0.00012,-2e-05,2,26
6146,-0.00011,-0.00017,-0.00045,0.00023,0.00033,0,0.00012,-2e-05,2,26
6147,-0.00011,-0.00017,-0.00045,0.00023,0.00033,0,0.00012,-2e-05,2,26
6148,-0.00011,-0.00017,-0.00045,0.00023,0.00033,0,0.00012,-2e-05,2,26
6149,-0.00011,-0.00017,-0.00045,0.00023,0.00033,0,0.00012,-2e-05,2,26
6151,-0.00011,-0.00017,-0.00045,0.00023,0.00033,0,0.00012,-2e-05,2,26
6152,-0.00011,-0.00017,-0.00045,0.00023,0.00033,0,0.00012,-2e-05,2,26
6153,-0.00011,-0.00017,-0.00045,0.00023,0.00033,0,0.00012,-2e-05,2,26
6154,-0.00011,-0.00017,-0.00045,0.00023,0.00033,0,0.00012,-2e-05,2,26
6155,-0.00011,-0.00017,-0.00045,0.00023,0.00033,0,0.00012,-2e-05,2,26
6156,-0.00011,-0.00017,-0.00045,0.00023,0.00033,0,0.00012,-2e-05,2,26
6157,0.00012,7e-05,-7e-05,-0.00014,4e-05,0.0001,-5e-05,2e-05,2,26
6158,0.00012,7e-05,-7e-05,-0.00014,4e-05,0.0001,-5e-05,2e-05,2,26
6159,0.00012,7e-05,-7e-05,-0.00014,4e-05,0.0001,-5e-05,2e-05,2,26
6160,0.00012,7e-05,-7e-05,-0.00014,4e-05,0.0001,-5e-05,2e-05,2,26
6161,0.00012,7e-05,-7e-05,-0.00014,4e-05,0.0001,-5e-05,2e-05,2,26
6162,0.00012,7e-05,-7e-05,-0.00014,4e-05,0.0001,-5e-05,2e-05,2,26
6163,0.00012,7e-05,-7e-05,-0.00014,4e-05,0.0001,-5e-05,2e-05,2,26
6164,0.00012,7e-05,-7e-05,-0.00014,4e-05,0.0001,-5e-05,2e-05,2,26
6165,-4e-05,-1e-05,0.0001,-0.00023,-0.00031,-0.00052,-9e-05,-5e-05,2,26
6166,-4e-05,-1e-05,0.0001,-0.00023,-0.00031,-0.00052,-9e-05,-5e-05,2,26
6167,-4e-05,-1e-05,0.0001,-0.00023,-0.00031,-0.00052,-9e-05,-5e-05,2,26
6168,-4e-05,-1e-05,0.0001,-0.00023,-0.00031,-0.00052,-9e-05,-5e-05,2,26
6169,-4e-05,-1e-05,0.0001,-0.00023,-0.00031,-0.00052,-9e-05,-5e-05,2,26
6170,-4e-05,-1e-05,0.0001,-0.00023,-0.00031,-0.00052,-9e-05,-5e-05,2,26
6171,-4e-05,-1e-05,0.0001,-0.00023,-0.00031,-0.00052,-9e-05,-5e-05,2,26
6172,-4e-05,-1e-05,0.0001,-0.00023,-0.00031,-0.00052,-9e-05,-5e-05,2,26
6173,1e-05,-1e-05,8e-05,-0.00011,0.0001,0,-0.00025,7e-05,2,26
6174,1e-05,-1e-05,8e-05,-0.00011,0.0001,0,-0.00025,7e-05,2,26
6175,1e-05,-1e-05,8e-05,-0.00011,0.0001,0,-0.00025,7e-05,2,26
6176,1e-05,-1e-05,8e-05,-0.00011,0.0001,0,-0.00025,7e-05,2,26
6177,1e-05,-1e-05,8e-05,-0.00011,0.0001,0,-0.00025,7e-05,2,26
6178,1e-05,-1e-05,8e-05,-0.00011,0.0001,0,-0.00025,7e-05,2,26
6179,-0.00017,-4e-05,0,-0.00014,-0.00044,-0.00054,-0.00038,-0.00032,2,26
6180,-0.00027,4e-05,-7e-05,-0.00039,0.00014,0.00017,-0.00051,-0.00021,2,26
6181,-0.00027,4e-05,-7e-05,-0.00039,0.00014,0.00017,-0.00051,-0.00021,2,26
6182,-0.00027,4e-05,-7e-05,-0.00039,0.00014,0.00017,-0.00051,-0.00021,2,26
6183,-0.00027,4e-05,-7e-05,-0.00039,0.00014,0.00017,-0.00051,-0.00021,2,26
6184,-0.00027,4e-05,-7e-05,-0.00039,0.00014,0.00017,-0.00051,-0.00021,2,26
6185,-0.00027,4e-05,-7e-05,-0.00039,0.00014,0.00017,-0.00051,-0.00021,2,26
6186,-0.00027,4e-05,-7e-05,-0.00039,0.00014,0.00017,-0.00051,-0.00021,2,26
6188,-0.00027,4e-05,-7e-05,-0.00039,0.00014,0.00017,-0.00051,-0.00021,2,26
6189,-0.00027,4e-05,-7e-05,-0.00039,0.00014,0.00017,-0.00051,-0.00021,2,26
6190,-0.00027,4e-05,-7e-05,-0.00039,0.00014,0.00017,-0.00051,-0.00021,2,26
6191,-0.00027,4e-05,-7e-05,-0.00039,0.00014,0.00017,-0.00051,-0.00021,2,26
6192,-0.00027,4e-05,-7e-05,-0.00039,0.00014,0.00017,-0.00051,-0.00021,2,26
6193,-0.00027,4e-05,-7e-05,-0.00039,0.00014,0.00017,-0.00051,-0.00021,2,26
6194,-0.00036,-0.00024,-0.00016,-7e-05,0.0002,-0.00016,-0.00038,-0.00026,2,26
6195,-0.00036,-0.00024,-0.00016,-7e-05,0.0002,-0.00016,-0.00038,-0.00026,2,26
6196,-0.00036,-0.00024,-0.00016,-7e-05,0.0002,-0.00016,-0.00038,-0.00026,2,26
6197,-0.00036,-0.00024,-0.00016,-7e-05,0.0002,-0.00016,-0.00038,-0.00026,2,26
6198,-0.00036,-0.00024,-0.00016,-7e-05,0.0002,-0.00016,-0.00038,-0.00026,2,26
6199,-0.00036,-0.00024,-0.00016,-7e-05,0.0002,-0.00016,-0.00038,-0.00026,2,26
6200,-0.00036,-0.00024,-0.00016,-7e-05,0.0002,-0.00016,-0.00038,-0.00026,2,26
6201,-0.00036,-0.00024,-0.00016,-7e-05,0.0002,-0.00016,-0.00038,-0.00026,2,26
6202,0.00019,0.00013,0.0001,-1e-05,-0.00021,0.00038,0.00019,7e-05,2,26
6203,0.00019,0.00013,0.0001,-1e-05,-0.00021,0.00038,0.00019,7e-05,2,26
6204,0.00019,0.00013,0.0001,-1e-05,-0.00021,0.00038,0.00019,7e-05,2,26
6205,0.00019,0.00013,0.0001,-1e-05,-0.00021,0.00038,0.00019,7e-05,2,26
6206,0.00019,0.00013,0.0001,-1e-05,-0.00021,0.00038,0.00019,7e-05,2,26
6207,0.00019,0.00013,0.0001,-1e-05,-0.00021,0.00038,0.00019,7e-05,2,26
6208,0.00019,0.00013,0.0001,-1e-05,-0.00021,0.00038,0.00019,7e-05,2,26
6209,0.00019,0.00013,0.0001,-1e-05,-0.00021,0.00038,0.00019,7e-05,2,26
6210,0.00019,0.00013,0.0001,-1e-05,-0.00021,0.00038,0.00019,7e-05,2,26
6211,0.00019,0.00013,0.0001,-1e-05,-0.00021,0.00038,0.00019,7e-05,2,26
6212,0.00019,0.00013,0.0001,-1e-05,-0.00021,0.00038,0.00019,7e-05,2,26
6213,0.00019,0.00013,0.0001,-1e-05,-0.00021,0.00038,0.00019,7e-05,2,26
6214,0.00019,0.00013,0.0001,-1e-05,-0.00021,0.00038,0.00019,7e-05,2,26
6215,0.00019,0.00013,0.0001,-1e-05,-0.00021,0.00038,0.00019,7e-05,2,26
6216,0.00019,0.00013,0.0001,-1e-05,-0.00021,0.00038,0.00019,7e-05,2,26
6217,-0.00015,-7e-05,-0.00012,-0.00034,-0.00022,0.00034,0.00044,9e-05,2,26
6218,-0.00015,-7e-05,-0.00012,-0.00034,-0.00022,0.00034,0.00044,9e-05,2,26
6219,-0.00015,-7e-05,-0.00012,-0.00034,-0.00022,0.00034,0.00044,9e-05,2,26
6220,-0.00015,-7e-05,-0.00012,-0.00034,-0.00022,0.00034,0.00044,9e-05,2,26
6221,-0.00015,-7e-05,-0.00012,-0.00034,-0.00022,0.00034,0.00044,9e-05,2,26
6222,-0.00015,-7e-05,-0.00012,-0.00034,-0.00022,0.00034,0.00044,9e-05,2,26
6223,-0.00015,-7e-05,-0.00012,-0.00034,-0.00022,0.00034,0.00044,9e-05,2,26
6224,-0.00015,-7e-05,-0.00012,-0.00034,-0.00022,0.00034,0.00044,9e-05,2,26
6225,5e-05,-0.00012,-0.00015,1e-05,-0.0002,-0.00049,-3e-05,-0.0001,2,26
6226,5e-05,-0.00012,-0.00015,1e-05,-0.0002,-0.00049,-3e-05,-0.0001,2,26
6227,5e-05,-0.00012,-0.00015,1e-05,-0.0002,-0.00049,-3e-05,-0.0001,2,26
6228,5e-05,-0.00012,-0.00015,1e-05,-0.0002,-0.00049,-3e-05,-0.0001,2,26
6229,5e-05,-0.00012,-0.00015,1e-05,-0.0002,-0.00049,-3e-05,-0.0001,2,26
6230,5e-05,-0.00012,-0.00015,1e-05,-0.0002,-0.00049,-3e-05,-0.0001,2,26
6231,5e-05,-0.00012,-0.00015,1e-05,-0.0002,-0.00049,-3e-05,-0.0001,2,26
6232,5e-05,-0.00012,-0.00015,1e-05,-0.0002,-0.00049,-3e-05,-0.0001,2,26
6233,5e-05,-0.00012,-0.00015,1e-05,-0.0002,-0.00049,-3e-05,-0.0001,2,26
6234,5e-05,-0.00012,-0.00015,1e-05,-0.0002,-0.00049,-3e-05,-0.0001,2,26
6235,5e-05,-0.00012,-0.00015,1e-05,-0.0002,-0.00049,-3e-05,-0.0001,2,26
6236,5e-05,-0.00012,-0.00015,1e-05,-0.0002,-0.00049,-3e-05,-0.0001,2,26
6238,5e-05,-0.00012,-0.00015,1e-05,-0.0002,-0.00049,-3e-05,-0.0001,2,26
6239,5e-05,-0.00012,-0.00015,1e-05,-0.0002,-0.00049,-3e-05,-0.0001,2,26
6240,0.00042,-4e-05,-0.00017,-0.00023,3e-05,0.00023,-6e-05,0.00025,2,26
6241,-5e-05,-4e-05,0.00015,-0.00018,-0.00022,0.00011,-0.00014,-4e-05,2,26
6242,-5e-05,-4e-05,0.00015,-0.00018,-0.00022,0.00011,-0.00014,-4e-05,2,26
6243,-5e-05,-4e-05,0.00015,-0.00018,-0.00022,0.00011,-0.00014,-4e-05,2,26
6244,-5e-05,-4e-05,0.00015,-0.00018,-0.00022,0.00011,-0.00014,-4e-05,2,26
6245,-5e-05,-4e-05,0.00015,-0.00018,-0.00022,0.00011,-0.00014,-4e-05,2,26
6246,-5e-05,-4e-05,0.00015,-0.00018,-0.00022,0.00011,-0.00014,-4e-05,2,26
6247,-5e-05,-4e-05,0.00015,-0.00018,-0.00022,0.00011,-0.00014,-4e-05,2,26
6248,-5e-05,-4e-05,0.00015,-0.00018,-0.00022,0.00011,-0.00014,-4e-05,2,26
6249,-5e-05,-4e-05,0.00015,-0.00018,-0.00022,0.00011,-0.00014,-4e-05,2,26
6250,-5e-05,-4e-05,0.00015,-0.00018,-0.00022,0.00011,-0.00014,-4e-05,2,26
6251,-5e-05,-4e-05,0.00015,-0.00018,-0.00022,0.00011,-0.00014,-4e-05,2,26
6252,-5e-05,-4e-05,0.00015,-0.00018,-0.00022,0.00011,-0.00014,-4e-05,2,26
6253,-5e-05,-4e-05,0.00015,-0.00018,-0.00022,0.00011,-0.00014,-4e-05,2,26
6254,0.00024,0.0001,0.00035,0.00049,0.00022,-0.00018,-5e-05,2e-05,2,26
6255,0.00024,0.0001,0.00035,0.00049,0.00022,-0.00018,-5e-05,2e-05,2,26
6256,0.00024,0.0001,0.00035,0.00049,0.00022,-0.00018,-5e-05,2e-05,2,26
6257,0.00024,0.0001,0.00035,0.00049,0.00022,-0.00018,-5e-05,2e-05,2,26
6258,0.00024,0.0001,0.00035,0.00049,0.00022,-0.00018,-5e-05,2e-05,2,26
6259,0.00024,0.0001,0.00035,0.00049,0.00022,-0.00018,-5e-05,2e-05,2,26
6260,0.00024,0.0001,0.00035,0.00049,0.00022,-0.00018,-5e-05,2e-05,2,26
6261,0.00024,0.0001,0.00035,0.00049,0.00022,-0.00018,-5e-05,2e-05,2,26
6262,-4e-05,1e-05,0,9e-05,0.0006,0.0002,7e-05,-6e-05,2,26
6263,-4e-05,1e-05,0,9e-05,0.0006,0.0002,7e-05,-6e-05,2,26
6264,-4e-05,1e-05,0,9e-05,0.0006,0.0002,7e-05,-6e-05,2,26
6265,-4e-05,1e-05,0,9e-05,0.0006,0.0002,7e-05,-6e-05,2,26
6266,-4e-05,1e-05,0,9e-05,0.0006,0.0002,7e-05,-6e-05,2,26
6267,-4e-05,1e-05,0,9e-05,0.0006,0.0002,7e-05,-6e-05,2,26
6268,-4e-05,1e-05,0,9e-05,0.0006,0.0002,7e-05,-6e-05,2,26
6269,-4e-05,1e-05,0,9e-05,0.0006,0.0002,7e-05,-6e-05,2,26
6270,-4e-05,1e-05,0,9e-05,0.0006,0.0002,7e-05,-6e-05,2,26
6271,-4e-05,1e-05,0,9e-05,0.0006,0.0002,7e-05,-6e-05,2,26
6272,-4e-05,1e-05,0,9e-05,0.0006,0.0002,7e-05,-6e-05,2,26
6273,-4e-05,1e-05,0,9e-05,0.0006,0.0002,7e-05,-6e-05,2,26
6274,-4e-05,1e-05,0,9e-05,0.0006,0.0002,7e-05,-6e-05,2,26
6275,-4e-05,1e-05,0,9e-05,0.0006,0.0002,7e-05,-6e-05,2,26
6276,-4e-05,1e-05,0,9e-05,0.0006,0.0002,7e-05,-6e-05,2,26
6277,-7e-05,2e-05,-0.00019,0,6e-05,0.00025,0.00055,6e-05,2,26
6278,-7e-05,2e-05,-0.00019,0,6e-05,0.00025,0.00055,6e-05,2,26
6279,-7e-05,2e-05,-0.00019,0,6e-05,0.00025,0.00055,6e-05,2,26
6280,-7e-05,2e-05,-0.00019,0,6e-05,0.00025,0.00055,6e-05,2,26
6281,-7e-05,2e-05,-0.00019,0,6e-05,0.00025,0.00055,6e-05,2,26
6282,-7e-05,2e-05,-0.00019,0,6e-05,0.00025,0.00055,6e-05,2,26
6283,-7e-05,2e-05,-0.00019,0,6e-05,0.00025,0.00055,6e-05,2,26
6284,-7e-05,2e-05,-0.00019,0,6e-05,0.00025,0.00055,6e-05,2,26
6285,-0.00026,-0.00012,-0.00019,-0.00043,-0.00039,-0.0004,-0.00028,-0.00011,2,26
6286,-0.00026,-0.00012,-0.00019,-0.00043,-0.00039,-0.0004,-0.00028,-0.00011,2,26
6288,-0.00026,-0.00012,-0.00019,-0.00043,-0.00039,-0.0004,-0.00028,-0.00011,2,26
6289,-0.00026,-0.00012,-0.00019,-0.00043,-0.00039,-0.0004,-0.00028,-0.00011,2,26
6290,-0.00026,-0.00012,-0.00019,-0.00043,-0.00039,-0.0004,-0.00028,-0.00011,2,26
6291,-0.00026,-0.00012,-0.00019,-0.00043,-0.00039,-0.0004,-0.00028,-0.00011,2,26
6292,-0.00026,-0.00012,-0.00019,-0.00043,-0.00039,-0.0004,-0.00028,-0.00011,2,26
6294,-0.00026,-0.00012,-0.00019,-0.00043,-0.00039,-0.0004,-0.00028,-0.00011,2,26
6295,-0.00026,-0.00012,-0.00019,-0.00043,-0.00039,-0.0004,-0.00028,-0.00011,2,26
6296,-0.00026,-0.00012,-0.00019,-0.00043,-0.00039,-0.0004,-0.00028,-0.00011,2,26
6297,-0.00026,-0.00012,-0.00019,-0.00043,-0.00039,-0.0004,-0.00028,-0.00011,2,26
6298,-0.00026,-0.00012,-0.00019,-0.00043,-0.00039,-0.0004,-0.00028,-0.00011,2,26
6299,-0.00026,-0.00012,-0.00019,-0.00043,-0.00039,-0.0004,-0.00028,-0.00011,2,26
6300,6e-05,0.00016,0.00019,-5e-05,4e-05,-0.00019,0.00016,6e-05,2,26
6301,0.00035,0.00013,0.00036,0.00072,-1e-05,0.00011,0.0003,0.00031,2,26
6302,0.00035,0.00013,0.00036,0.00072,-1e-05,0.00011,0.0003,0.00031,2,26
6303,0.00035,0.00013,0.00036,0.00072,-1e-05,0.00011,0.0003,0.00031,2,26
6304,0.00035,0.00013,0.00036,0.00072,-1e-05,0.00011,0.0003,0.00031,2,26
6305,0.00035,0.00013,0.00036,0.00072,-1e-05,0.00011,0.0003,0.00031,2,26
6306,0.00035,0.00013,0.00036,0.00072,-1e-05,0.00011,0.0003,0.00031,2,26
6307,0.00035,0.00013,0.00036,0.00072,-1e-05,0.00011,0.0003,0.00031,2,26
6308,0.00035,0.00013,0.00036,0.00072,-1e-05,0.00011,0.0003,0.00031,2,26
6309,0.00035,0.00013,0.00036,0.00072,-1e-05,0.00011,0.0003,0.00031,2,26
6310,0.00035,0.00013,0.00036,0.00072,-1e-05,0.00011,0.0003,0.00031,2,26
6311,0.00035,0.00013,0.00036,0.00072,-1e-05,0.00011,0.0003,0.00031,2,26
6312,0.00035,0.00013,0.00036,0.00072,-1e-05,0.00011,0.0003,0.00031,2,26
6313,0.00035,0.00013,0.00036,0.00072,-1e-05,0.00011,0.0003,0.00031,2,26
6314,-0.00043,-2e-05,4e-05,2e-05,-0.00045,-0.00039,-0.00046,-0.00036,2,26
6315,-0.00043,-2e-05,4e-05,2e-05,-0.00045,-0.00039,-0.00046,-0.00036,2,26
6316,-0.00043,-2e-05,4e-05,2e-05,-0.00045,-0.00039,-0.00046,-0.00036,2,26
6317,-0.00043,-2e-05,4e-05,2e-05,-0.00045,-0.00039,-0.00046,-0.00036,2,26
6318,-0.00043,-2e-05,4e-05,2e-05,-0.00045,-0.00039,-0.00046,-0.00036,2,26
6319,-0.00043,-2e-05,4e-05,2e-05,-0.00045,-0.00039,-0.00046,-0.00036,2,26
6320,-0.00043,-2e-05,4e-05,2e-05,-0.00045,-0.00039,-0.00046,-0.00036,2,26
6321,-0.00043,-2e-05,4e-05,2e-05,-0.00045,-0.00039,-0.00046,-0.00036,2,26
6322,-0.00011,-0.00014,-0.00049,-0.00056,0.00062,-3e-05,-5e-05,-0.00015,2,26
6323,-0.00011,-0.00014,-0.00049,-0.00056,0.00062,-3e-05,-5e-05,-0.00015,2,26
6324,-0.00011,-0.00014,-0.00049,-0.00056,0.00062,-3e-05,-5e-05,-0.00015,2,26
6325,-0.00011,-0.00014,-0.00049,-0.00056,0.00062,-3e-05,-5e-05,-0.00015,2,26
6326,-0.00011,-0.00014,-0.00049,-0.00056,0.00062,-3e-05,-5e-05,-0.00015,2,26
6327,-0.00011,-0.00014,-0.00049,-0.00056,0.00062,-3e-05,-5e-05,-0.00015,2,26
6328,-0.00011,-0.00014,-0.00049,-0.00056,0.00062,-3e-05,-5e-05,-0.00015,2,26
6329,-0.00011,-0.00014,-0.00049,-0.00056,0.00062,-3e-05,-5e-05,-0.00015,2,26
6330,-0.00011,-0.00014,-0.00049,-0.00056,0.00062,-3e-05,-5e-05,-0.00015,2,26
6331,-0.00011,-0.00014,-0.00049,-0.00056,0.00062,-3e-05,-5e-05,-0.00015,2,26
6332,-0.00011,-0.00014,-0.00049,-0.00056,0.00062,-3e-05,-5e-05,-0.00015,2,26
6333,-0.00011,-0.00014,-0.00049,-0.00056,0.00062,-3e-05,-5e-05,-0.00015,2,26
6334,-0.00011,-0.00014,-0.00049,-0.00056,0.00062,-3e-05,-5e-05,-0.00015,2,26
6335,-0.00011,-0.00014,-0.00049,-0.00056,0.00062,-3e-05,-5e-05,-0.00015,2,26
6336,-0.00011,-0.00014,-0.00049,-0.00056,0.00062,-3e-05,-5e-05,-0.00015,2,26
6338,-0.00011,-0.00014,-0.00049,-0.00056,0.00062,-3e-05,-5e-05,-0.00015,2,26
6339,-0.00011,-0.00014,-0.00049,-0.00056,0.00062,-3e-05,-5e-05,-0.00015,2,26
6340,-0.00011,-0.00014,-0.00049,-0.00056,0.00062,-3e-05,-5e-05,-0.00015,2,26
6341,-0.00011,-0.00014,-0.00049,-0.00056,0.00062,-3e-05,-5e-05,-0.00015,2,26
6343,-0.00011,-0.00014,-0.00049,-0.00056,0.00062,-3e-05,-5e-05,-0.00015,2,26
6344,-0.00011,-0.00014,-0.00049,-0.00056,0.00062,-3e-05,-5e-05,-0.00015,2,26
6345,-0.00011,-0.00014,-0.00049,-0.00056,0.00062,-3e-05,-5e-05,-0.00015,2,26
6346,-1e-05,-4e-05,-0.0001,0.00019,-0.00049,-0.0002,0.00012,-5e-05,2,26
6347,-1e-05,-4e-05,-0.0001,0.00019,-0.00049,-0.0002,0.00012,-5e-05,2,26
6348,-1e-05,-4e-05,-0.0001,0.00019,-0.00049,-0.0002,0.00012,-5e-05,2,26
6349,-1e-05,-4e-05,-0.0001,0.00019,-0.00049,-0.0002,0.00012,-5e-05,2,26
6350,-1e-05,-4e-05,-0.0001,0.00019,-0.00049,-0.0002,0.00012,-5e-05,2,26
6351,-1e-05,-4e-05,-0.0001,0.00019,-0.00049,-0.0002,0.00012,-5e-05,2,26
6353,-1e-05,-4e-05,-0.0001,0.00019,-0.00049,-0.0002,0.00012,-5e-05,2,26
6354,-1e-05,-4e-05,-0.0001,0.00019,-0.00049,-0.0002,0.00012,-5e-05,2,26
6355,-1e-05,-4e-05,-0.0001,0.00019,-0.00049,-0.0002,0.00012,-5e-05,2,26
6356,-1e-05,-4e-05,-0.0001,0.00019,-0.00049,-0.0002,0.00012,-5e-05,2,26
6357,-1e-05,-4e-05,-0.0001,0.00019,-0.00049,-0.0002,0.00012,-5e-05,2,26
6358,-1e-05,-4e-05,-0.0001,0.00019,-0.00049,-0.0002,0.00012,-5e-05,2,26
6359,-1e-05,-4e-05,-0.0001,0.00019,-0.00049,-0.0002,0.00012,-5e-05,2,26
6360,-0.00023,-5e-05,-9e-05,8e-05,4e-05,-0.00022,-0.00015,-0.00013,2,26
6361,-1e-05,3e-05,-4e-05,-0.00056,-0.00037,-0.00038,-0.00038,1e-05,2,26
6362,-1e-05,3e-05,-4e-05,-0.00056,-0.00037,-0.00038,-0.00038,1e-05,2,26
6363,-1e-05,3e-05,-4e-05,-0.00056,-0.00037,-0.00038,-0.00038,1e-05,2,26
6364,-1e-05,3e-05,-4e-05,-0.00056,-0.00037,-0.00038,-0.00038,1e-05,2,26
6365,-1e-05,3e-05,-4e-05,-0.00056,-0.00037,-0.00038,-0.00038,1e-05,2,26
6366,-1e-05,3e-05,-4e-05,-0.00056,-0.00037,-0.00038,-0.00038,1e-05,2,26
6367,-1e-05,3e-05,-4e-05,-0.00056,-0.00037,-0.00038,-0.00038,1e-05,2,26
6368,-1e-05,3e-05,-4e-05,-0.00056,-0.00037,-0.00038,-0.00038,1e-05,2,26
6369,-1e-05,3e-05,-4e-05,-0.00056,-0.00037,-0.00038,-0.00038,1e-05,2,26
6370,-1e-05,3e-05,-4e-05,-0.00056,-0.00037,-0.00038,-0.00038,1e-05,2,26
6371,-1e-05,3e-05,-4e-05,-0.00056,-0.00037,-0.00038,-0.00038,1e-05,2,26
6373,-1e-05,3e-05,-4e-05,-0.00056,-0.00037,-0.00038,-0.00038,1e-05,2,26
6374,-6e-05,0,8e-05,0.00013,0.0005,0.00036,-0.00041,-0.00033,2,26
6375,-6e-05,0,8e-05,0.00013,0.0005,0.00036,-0.00041,-0.00033,2,26
6376,-6e-05,0,8e-05,0.00013,0.0005,0.00036,-0.00041,-0.00033,2,26
6377,-6e-05,0,8e-05,0.00013,0.0005,0.00036,-0.00041,-0.00033,2,26
6378,-6e-05,0,8e-05,0.00013,0.0005,0.00036,-0.00041,-0.00033,2,26
6379,-6e-05,0,8e-05,0.00013,0.0005,0.00036,-0.00041,-0.00033,2,26
6380,-6e-05,0,8e-05,0.00013,0.0005,0.00036,-0.00041,-0.00033,2,26
6381,-6e-05,0,8e-05,0.00013,0.0005,0.00036,-0.00041,-0.00033,2,26
6382,-0.00027,-0.00011,1e-05,5e-05,-0.00015,-0.00013,-8e-05,-0.00014,2,26
6383,-0.00027,-0.00011,1e-05,5e-05,-0.00015,-0.00013,-8e-05,-0.00014,2,26
6384,-0.00027,-0.00011,1e-05,5e-05,-0.00015,-0.00013,-8e-05,-0.00014,2,26
6385,-0.00027,-0.00011,1e-05,5e-05,-0.00015,-0.00013,-8e-05,-0.00014,2,26
6386,-0.00027,-0.00011,1e-05,5e-05,-0.00015,-0.00013,-8e-05,-0.00014,2,26
6388,-0.00027,-0.00011,1e-05,5e-05,-0.00015,-0.00013,-8e-05,-0.00014,2,26
6389,-0.00027,-0.00011,1e-05,5e-05,-0.00015,-0.00013,-8e-05,-0.00014,2,26
6390,-0.00027,-0.00011,1e-05,5e-05,-0.00015,-0.00013,-8e-05,-0.00014,2,26
6391,-0.00027,-0.00011,1e-05,5e-05,-0.00015,-0.00013,-8e-05,-0.00014,2,26
6392,-0.00027,-0.00011,1e-05,5e-05,-0.00015,-0.00013,-8e-05,-0.00014,2,26
6393,-0.00027,-0.00011,1e-05,5e-05,-0.00015,-0.00013,-8e-05,-0.00014,2,26
6394,-0.00027,-0.00011,1e-05,5e-05,-0.00015,-0.00013,-8e-05,-0.00014,2,26
6395,-0.00027,-0.00011,1e-05,5e-05,-0.00015,-0.00013,-8e-05,-0.00014,2,26
6396,-0.00027,-0.00011,1e-05,5e-05,-0.00015,-0.00013,-8e-05,-0.00014,2,26
6397,-0.00027,-0.00011,1e-05,5e-05,-0.00015,-0.00013,-8e-05,-0.00014,2,26
6398,0.00038,-3e-05,-0.00013,-0.00044,-0.00019,0.00064,0.00048,0.00029,2,26
6399,0.00038,-3e-05,-0.00013,-0.00044,-0.00019,0.00064,0.00048,0.00029,2,26
6400,0.00038,-3e-05,-0.00013,-0.00044,-0.00019,0.00064,0.00048,0.00029,2,26
6401,0.00038,-3e-05,-0.00013,-0.00044,-0.00019,0.00064,0.00048,0.00029,2,26
6402,0.00038,-3e-05,-0.00013,-0.00044,-0.00019,0.00064,0.00048,0.00029,2,26
6403,0.00038,-3e-05,-0.00013,-0.00044,-0.00019,0.00064,0.00048,0.00029,2,26
6404,0.00038,-3e-05,-0.00013,-0.00044,-0.00019,0.00064,0.00048,0.00029,2,26
6405,-0.00028,-5e-05,0.00011,0.00028,0.00036,0.00021,-5e-05,-7e-05,2,26
6406,-0.00028,-5e-05,0.00011,0.00028,0.00036,0.00021,-5e-05,-7e-05,2,26
6407,-0.00028,-5e-05,0.00011,0.00028,0.00036,0.00021,-5e-05,-7e-05,2,26
6408,-0.00028,-5e-05,0.00011,0.00028,0.00036,0.00021,-5e-05,-7e-05,2,26
6409,-0.00028,-5e-05,0.00011,0.00028,0.00036,0.00021,-5e-05,-7e-05,2,26
6410,-0.00028,-5e-05,0.00011,0.00028,0.00036,0.00021,-5e-05,-7e-05,2,26
6411,-0.00028,-5e-05,0.00011,0.00028,0.00036,0.00021,-5e-05,-7e-05,2,26
6412,-0.00028,-5e-05,0.00011,0.00028,0.00036,0.00021,-5e-05,-7e-05,2,26
6413,-0.00028,-5e-05,0.00011,0.00028,0.00036,0.00021,-5e-05,-7e-05,2,26
6414,-0.00028,-5e-05,0.00011,0.00028,0.00036,0.00021,-5e-05,-7e-05,2,26
6415,-0.00028,-5e-05,0.00011,0.00028,0.00036,0.00021,-5e-05,-7e-05,2,26
6416,-0.00028,-5e-05,0.00011,0.00028,0.00036,0.00021,-5e-05,-7e-05,2,26
6417,-0.00028,-5e-05,0.00011,0.00028,0.00036,0.00021,-5e-05,-7e-05,2,26
6418,-0.00028,-5e-05,0.00011,0.00028,0.00036,0.00021,-5e-05,-7e-05,2,26
6419,-0.00028,-5e-05,0.00011,0.00028,0.00036,0.00021,-5e-05,-7e-05,2,26
6420,-0.00011,-0.00023,-0.00046,-0.00035,0.00068,-0.00036,-0.00068,-0.00025,2,26
6421,-0.00022,-0.00013,9e-05,0.00029,-0.00014,0.00026,0.00011,7e-05,2,26
6422,-0.00022,-0.00013,9e-05,0.00029,-0.00014,0.00026,0.00011,7e-05,2,26
6423,-0.00022,-0.00013,9e-05,0.00029,-0.00014,0.00026,0.00011,7e-05,2,26
6424,-0.00022,-0.00013,9e-05,0.00029,-0.00014,0.00026,0.00011,7e-05,2,26
6425,-0.00022,-0.00013,9e-05,0.00029,-0.00014,0.00026,0.00011,7e-05,2,26
6426,-0.00022,-0.00013,9e-05,0.00029,-0.00014,0.00026,0.00011,7e-05,2,26
6427,-0.00022,-0.00013,9e-05,0.00029,-0.00014,0.00026,0.00011,7e-05,2,26
6428,-0.00022,-0.00013,9e-05,0.00029,-0.00014,0.00026,0.00011,7e-05,2,26
6429,-0.00022,-0.00013,9e-05,0.00029,-0.00014,0.00026,0.00011,7e-05,2,26
6430,-0.00022,-0.00013,9e-05,0.00029,-0.00014,0.00026,0.00011,7e-05,2,26
6432,-0.00022,-0.00013,9e-05,0.00029,-0.00014,0.00026,0.00011,7e-05,2,26
6433,-0.00022,-0.00013,9e-05,0.00029,-0.00014,0.00026,0.00011,7e-05,2,26
6434,0.00014,6e-05,0.00026,0.00068,-2e-05,0.00032,0.00028,0.0001,2,26
6436,0.00014,6e-05,0.00026,0.00068,-2e-05,0.00032,0.00028,0.0001,2,26
6437,0.00014,6e-05,0.00026,0.00068,-2e-05,0.00032,0.00028,0.0001,2,26
6438,0.00014,6e-05,0.00026,0.00068,-2e-05,0.00032,0.00028,0.0001,2,26
6439,0.00014,6e-05,0.00026,0.00068,-2e-05,0.00032,0.00028,0.0001,2,26
6440,0.00014,6e-05,0.00026,0.00068,-2e-05,0.00032,0.00028,0.0001,2,26
6441,0.00014,6e-05,0.00026,0.00068,-2e-05,0.00032,0.00028,0.0001,2,26
6442,0.00014,6e-05,0.00026,0.00068,-2e-05,0.00032,0.00028,0.0001,2,26
6443,0.00014,6e-05,0.00026,0.00068,-2e-05,0.00032,0.00028,0.0001,2,26
6444,0.00014,6e-05,0.00026,0.00068,-2e-05,0.00032,0.00028,0.0001,2,26
6445,0.00014,6e-05,0.00026,0.00068,-2e-05,0.00032,0.00028,0.0001,2,26
6446,0.00014,6e-05,0.00026,0.00068,-2e-05,0.00032,0.00028,0.0001,2,26
6447,0.00014,6e-05,0.00026,0.00068,-2e-05,0.00032,0.00028,0.0001,2,26
6448,0.00014,6e-05,0.00026,0.00068,-2e-05,0.00032,0.00028,0.0001,2,26
6449,0.00014,6e-05,0.00026,0.00068,-2e-05,0.00032,0.00028,0.0001,2,26
6450,0.00046,0.00016,0.00021,0.0003,0.00011,0.00021,0.0001,0.00021,2,26
6451,0.00046,0.00016,0.00021,0.0003,0.00011,0.00021,0.0001,0.00021,2,26
6452,0.00046,0.00016,0.00021,0.0003,0.00011,0.00021,0.0001,0.00021,2,26
6453,0.00046,0.00016,0.00021,0.0003,0.00011,0.00021,0.0001,0.00021,2,26
6454,0.00046,0.00016,0.00021,0.0003,0.00011,0.00021,0.0001,0.00021,2,26
6455,0.00046,0.00016,0.00021,0.0003,0.00011,0.00021,0.0001,0.00021,2,26
6456,0.00046,0.00016,0.00021,0.0003,0.00011,0.00021,0.0001,0.00021,2,26
6457,2e-05,2e-05,-0.00033,-0.00036,-4e-05,-0.00034,-0.00034,-4e-05,2,26
6458,2e-05,2e-05,-0.00033,-0.00036,-4e-05,-0.00034,-0.00034,-4e-05,2,26
6459,2e-05,2e-05,-0.00033,-0.00036,-4e-05,-0.00034,-0.00034,-4e-05,2,26
6460,2e-05,2e-05,-0.00033,-0.00036,-4e-05,-0.00034,-0.00034,-4e-05,2,26
6461,2e-05,2e-05,-0.00033,-0.00036,-4e-05,-0.00034,-0.00034,-4e-05,2,26
6462,2e-05,2e-05,-0.00033,-0.00036,-4e-05,-0.00034,-0.00034,-4e-05,2,26
6463,2e-05,2e-05,-0.00033,-0.00036,-4e-05,-0.00034,-0.00034,-4e-05,2,26
6464,2e-05,2e-05,-0.00033,-0.00036,-4e-05,-0.00034,-0.00034,-4e-05,2,26
6465,0.0001,3e-05,-3e-05,-0.00023,-0.00042,-0.00026,0.00012,4e-05,2,26
6466,0.0001,3e-05,-3e-05,-0.00023,-0.00042,-0.00026,0.00012,4e-05,2,26
6467,0.0001,3e-05,-3e-05,-0.00023,-0.00042,-0.00026,0.00012,4e-05,2,26
6468,0.0001,3e-05,-3e-05,-0.00023,-0.00042,-0.00026,0.00012,4e-05,2,26
6469,0.0001,3e-05,-3e-05,-0.00023,-0.00042,-0.00026,0.00012,4e-05,2,26
6470,0.0001,3e-05,-3e-05,-0.00023,-0.00042,-0.00026,0.00012,4e-05,2,26
6471,0.0001,3e-05,-3e-05,-0.00023,-0.00042,-0.00026,0.00012,4e-05,2,26
6472,0.0001,3e-05,-3e-05,-0.00023,-0.00042,-0.00026,0.00012,4e-05,2,26
6473,0.0001,3e-05,-3e-05,-0.00023,-0.00042,-0.00026,0.00012,4e-05,2,26
6474,0.0001,3e-05,-3e-05,-0.00023,-0.00042,-0.00026,0.00012,4e-05,2,26
6475,0.0001,3e-05,-3e-05,-0.00023,-0.00042,-0.00026,0.00012,4e-05,2,26
6476,0.0001,3e-05,-3e-05,-0.00023,-0.00042,-0.00026,0.00012,4e-05,2,26
6477,0.0001,3e-05,-3e-05,-0.00023,-0.00042,-0.00026,0.00012,4e-05,2,26
6478,0.0001,3e-05,-3e-05,-0.00023,-0.00042,-0.00026,0.00012,4e-05,2,26
6479,0.0001,3e-05,-3e-05,-0.00023,-0.00042,-0.00026,0.00012,4e-05,2,26
6480,0.00021,0.00011,0.00023,9e-05,-0.00017,-7e-05,0.00054,0.00024,2,26
6481,-0.00031,-0.00011,0.00024,0.00035,0.00022,-0.00032,-0.00048,-0.00031,2,26
6482,-0.00031,-0.00011,0.00024,0.00035,0.00022,-0.00032,-0.00048,-0.00031,2,26
6483,-0.00031,-0.00011,0.00024,0.00035,0.00022,-0.00032,-0.00048,-0.00031,2,26
6484,-0.00031,-0.00011,0.00024,0.00035,0.00022,-0.00032,-0.00048,-0.00031,2,26
6485,-0.00031,-0.00011,0.00024,0.00035,0.00022,-0.00032,-0.00048,-0.00031,2,26
6486,-0.00031,-0.00011,0.00024,0.00035,0.00022,-0.00032,-0.00048,-0.00031,2,26
6488,-0.00031,-0.00011,0.00024,0.00035,0.00022,-0.00032,-0.00048,-0.00031,2,26
6489,-0.00031,-0.00011,0.00024,0.00035,0.00022,-0.00032,-0.00048,-0.00031,2,26
6490,-0.00031,-0.00011,0.00024,0.00035,0.00022,-0.00032,-0.00048,-0.00031,2,26
6491,-0.00031,-0.00011,0.00024,0.00035,0.00022,-0.00032,-0.00048,-0.00031,2,26
6492,-0.00031,-0.00011,0.00024,0.00035,0.00022,-0.00032,-0.00048,-0.00031,2,26
6493,-0.00031,-0.00011,0.00024,0.00035,0.00022,-0.00032,-0.00048,-0.00031,2,26
6494,-7e-05,7e-05,2e-05,-2e-05,0.00016,6e-05,-8e-05,-1e-05,2,26
6495,-7e-05,7e-05,2e-05,-2e-05,0.00016,6e-05,-8e-05,-1e-05,2,26
6496,-7e-05,7e-05,2e-05,-2e-05,0.00016,6e-05,-8e-05,-1e-05,2,26
6497,-7e-05,7e-05,2e-05,-2e-05,0.00016,6e-05,-8e-05,-1e-05,2,26
6498,-7e-05,7e-05,2e-05,-2e-05,0.00016,6e-05,-8e-05,-1e-05,2,26
6499,-7e-05,7e-05,2e-05,-2e-05,0.00016,6e-05,-8e-05,-1e-05,2,26
6500,-7e-05,7e-05,2e-05,-2e-05,0.00016,6e-05,-8e-05,-1e-05,2,26
6501,-7e-05,7e-05,2e-05,-2e-05,0.00016,6e-05,-8e-05,-1e-05,2,26
6502,0.00038,0.00024,-0.00016,6e-05,0.00031,8e-05,0.00047,0.00034,2,26
6503,0.00038,0.00024,-0.00016,6e-05,0.00031,8e-05,0.00047,0.00034,2,26
6504,0.00038,0.00024,-0.00016,6e-05,0.00031,8e-05,0.00047,0.00034,2,26
6505,0.00038,0.00024,-0.00016,6e-05,0.00031,8e-05,0.00047,0.00034,2,26
6506,0.00038,0.00024,-0.00016,6e-05,0.00031,8e-05,0.00047,0.00034,2,26
6507,0.00038,0.00024,-0.00016,6e-05,0.00031,8e-05,0.00047,0.00034,2,26
6508,0.00038,0.00024,-0.00016,6e-05,0.00031,8e-05,0.00047,0.00034,2,26
6509,0.00038,0.00024,-0.00016,6e-05,0.00031,8e-05,0.00047,0.00034,2,26
6510,0.00038,0.00024,-0.00016,6e-05,0.00031,8e-05,0.00047,0.00034,2,26
6511,0.00038,0.00024,-0.00016,6e-05,0.00031,8e-05,0.00047,0.00034,2,26
6512,0.00038,0.00024,-0.00016,6e-05,0.00031,8e-05,0.00047,0.00034,2,26
6513,0.00038,0.00024,-0.00016,6e-05,0.00031,8e-05,0.00047,0.00034,2,26
6514,0.00038,0.00024,-0.00016,6e-05,0.00031,8e-05,0.00047,0.00034,2,26
6515,0.00038,0.00024,-0.00016,6e-05,0.00031,8e-05,0.00047,0.00034,2,26
6516,0.00038,0.00024,-0.00016,6e-05,0.00031,8e-05,0.00047,0.00034,2,26
6517,-3e-05,-2e-05,6e-05,0.00036,0.00016,-0.00031,-0.00032,0,2,26
6518,-3e-05,-2e-05,6e-05,0.00036,0.00016,-0.00031,-0.00032,0,2,26
6519,-3e-05,-2e-05,6e-05,0.00036,0.00016,-0.00031,-0.00032,0,2,26
6520,-3e-05,-2e-05,6e-05,0.00036,0.00016,-0.00031,-0.00032,0,2,26
6521,-3e-05,-2e-05,6e-05,0.00036,0.00016,-0.00031,-0.00032,0,2,26
6523,-3e-05,-2e-05,6e-05,0.00036,0.00016,-0.00031,-0.00032,0,2,26
6524,-3e-05,-2e-05,6e-05,0.00036,0.00016,-0.00031,-0.00032,0,2,26
6526,0.00049,0.00025,0.00028,-0.00024,-1e-05,0.00042,0.0003,0.0002,2,26
6527,0.00049,0.00025,0.00028,-0.00024,-1e-05,0.00042,0.0003,0.0002,2,26
6528,0.00049,0.00025,0.00028,-0.00024,-1e-05,0.00042,0.0003,0.0002,2,26
6529,0.00049,0.00025,0.00028,-0.00024,-1e-05,0.00042,0.0003,0.0002,2,26
6530,0.00049,0.00025,0.00028,-0.00024,-1e-05,0.00042,0.0003,0.0002,2,26
6531,0.00049,0.00025,0.00028,-0.00024,-1e-05,0.00042,0.0003,0.0002,2,26
6532,0.00049,0.00025,0.00028,-0.00024,-1e-05,0.00042,0.0003,0.0002,2,26
6533,0.00049,0.00025,0.00028,-0.00024,-1e-05,0.00042,0.0003,0.0002,2,26
6534,0.00049,0.00025,0.00028,-0.00024,-1e-05,0.00042,0.0003,0.0002,2,26
6535,0.00049,0.00025,0.00028,-0.00024,-1e-05,0.00042,0.0003,0.0002,2,26
6536,0.00049,0.00025,0.00028,-0.00024,-1e-05,0.00042,0.0003,0.0002,2,26
6538,0.00049,0.00025,0.00028,-0.00024,-1e-05,0.00042,0.0003,0.0002,2,26
6539,0.00049,0.00025,0.00028,-0.00024,-1e-05,0.00042,0.0003,0.0002,2,26
6540,-0.0001,0,6e-05,0.00012,-0.00057,-0.00018,0.00011,-2e-05,2,26
6541,-0.00022,-0.00025,-0.00039,-3e-05,0.00035,-0.00025,-0.00022,1e-05,2,26
6542,-0.00022,-0.00025,-0.00039,-3e-05,0.00035,-0.00025,-0.00022,1e-05,2,26
6543,-0.00022,-0.00025,-0.00039,-3e-05,0.00035,-0.00025,-0.00022,1e-05,2,26
6544,-0.00022,-0.00025,-0.00039,-3e-05,0.00035,-0.00025,-0.00022,1e-05,2,26
6545,-0.00022,-0.00025,-0.00039,-3e-05,0.00035,-0.00025,-0.00022,1e-05,2,26
6546,-0.00022,-0.00025,-0.00039,-3e-05,0.00035,-0.00025,-0.00022,1e-05,2,26
6547,-0.00022,-0.00025,-0.00039,-3e-05,0.00035,-0.00025,-0.00022,1e-05,2,26
6548,-0.00022,-0.00025,-0.00039,-3e-05,0.00035,-0.00025,-0.00022,1e-05,2,26
6549,-0.00022,-0.00025,-0.00039,-3e-05,0.00035,-0.00025,-0.00022,1e-05,2,26
6550,-0.00022,-0.00025,-0.00039,-3e-05,0.00035,-0.00025,-0.00022,1e-05,2,26
6551,-0.00022,-0.00025,-0.00039,-3e-05,0.00035,-0.00025,-0.00022,1e-05,2,26
6552,-0.00022,-0.00025,-0.00039,-3e-05,0.00035,-0.00025,-0.00022,1e-05,2,26
6553,-0.00022,-0.00025,-0.00039,-3e-05,0.00035,-0.00025,-0.00022,1e-05,2,26
6554,-4e-05,0.00011,0.00031,-0.00018,-0.00041,-0.00026,-0.00061,-0.00023,2,26
6555,-4e-05,0.00011,0.00031,-0.00018,-0.00041,-0.00026,-0.00061,-0.00023,2,26
6556,-4e-05,0.00011,0.00031,-0.00018,-0.00041,-0.00026,-0.00061,-0.00023,2,26
6557,-4e-05,0.00011,0.00031,-0.00018,-0.00041,-0.00026,-0.00061,-0.00023,2,26
6558,-4e-05,0.00011,0.00031,-0.00018,-0.00041,-0.00026,-0.00061,-0.00023,2,26
6559,-4e-05,0.00011,0.00031,-0.00018,-0.00041,-0.00026,-0.00061,-0.00023,2,26
6560,-4e-05,0.00011,0.00031,-0.00018,-0.00041,-0.00026,-0.00061,-0.00023,2,26
6561,-4e-05,0.00011,0.00031,-0.00018,-0.00041,-0.00026,-0.00061,-0.00023,2,26
6562,-0.00016,-2e-05,0.00012,-0.00034,-0.00069,0.00055,0.00053,4e-05,2,26
6563,-0.00016,-2e-05,0.00012,-0.00034,-0.00069,0.00055,0.00053,4e-05,2,26
6564,-0.00016,-2e-05,0.00012,-0.00034,-0.00069,0.00055,0.00053,4e-05,2,26
6565,-0.00016,-2e-05,0.00012,-0.00034,-0.00069,0.00055,0.00053,4e-05,2,26
6566,-0.00016,-2e-05,0.00012,-0.00034,-0.00069,0.00055,0.00053,4e-05,2,26
6567,-0.00016,-2e-05,0.00012,-0.00034,-0.00069,0.00055,0.00053,4e-05,2,26
6568,-0.00016,-2e-05,0.00012,-0.00034,-0.00069,0.00055,0.00053,4e-05,2,26
6569,-0.00016,-2e-05,0.00012,-0.00034,-0.00069,0.00055,0.00053,4e-05,2,26
6570,-0.00016,-2e-05,0.00012,-0.00034,-0.00069,0.00055,0.00053,4e-05,2,26
6571,-0.00016,-2e-05,0.00012,-0.00034,-0.00069,0.00055,0.00053,4e-05,2,26
6572,-0.00016,-2e-05,0.00012,-0.00034,-0.00069,0.00055,0.00053,4e-05,2,26
6573,-0.00016,-2e-05,0.00012,-0.00034,-0.00069,0.00055,0.00053,4e-05,2,26
6574,-0.00016,-2e-05,0.00012,-0.00034,-0.00069,0.00055,0.00053,4e-05,2,26
6575,-0.00016,-2e-05,0.00012,-0.00034,-0.00069,0.00055,0.00053,4e-05,2,26
6576,-0.00016,-2e-05,0.00012,-0.00034,-0.00069,0.00055,0.00053,4e-05,2,26
6577,0,6e-05,0.00032,0.00046,-0.00024,9e-05,-2e-05,0.0001,2,26
6578,0,6e-05,0.00032,0.00046,-0.00024,9e-05,-2e-05,0.0001,2,26
6579,0,6e-05,0.00032,0.00046,-0.00024,9e-05,-2e-05,0.0001,2,26
6580,0,6e-05,0.00032,0.00046,-0.00024,9e-05,-2e-05,0.0001,2,26
6581,0,6e-05,0.00032,0.00046,-0.00024,9e-05,-2e-05,0.0001,2,26
6582,0,6e-05,0.00032,0.00046,-0.00024,9e-05,-2e-05,0.0001,2,26
6583,0,6e-05,0.00032,0.00046,-0.00024,9e-05,-2e-05,0.0001,2,26
6584,0,6e-05,0.00032,0.00046,-0.00024,9e-05,-2e-05,0.0001,2,26
6585,-5e-05,-7e-05,-0.00015,-0.00071,-0.0003,-4e-05,-0.00042,-0.00011,2,26
6586,-5e-05,-7e-05,-0.00015,-0.00071,-0.0003,-4e-05,-0.00042,-0.00011,2,26
6588,-5e-05,-7e-05,-0.00015,-0.00071,-0.0003,-4e-05,-0.00042,-0.00011,2,26
6589,-5e-05,-7e-05,-0.00015,-0.00071,-0.0003,-4e-05,-0.00042,-0.00011,2,26
6590,-5e-05,-7e-05,-0.00015,-0.00071,-0.0003,-4e-05,-0.00042,-0.00011,2,26
6591,-5e-05,-7e-05,-0.00015,-0.00071,-0.0003,-4e-05,-0.00042,-0.00011,2,26
6592,-5e-05,-7e-05,-0.00015,-0.00071,-0.0003,-4e-05,-0.00042,-0.00011,2,26
6593,-5e-05,-7e-05,-0.00015,-0.00071,-0.0003,-4e-05,-0.00042,-0.00011,2,26
6594,-5e-05,-7e-05,-0.00015,-0.00071,-0.0003,-4e-05,-0.00042,-0.00011,2,26
6595,-5e-05,-7e-05,-0.00015,-0.00071,-0.0003,-4e-05,-0.00042,-0.00011,2,26
6596,-5e-05,-7e-05,-0.00015,-0.00071,-0.0003,-4e-05,-0.00042,-0.00011,2,26
6597,-5e-05,-7e-05,-0.00015,-0.00071,-0.0003,-4e-05,-0.00042,-0.00011,2,26
6598,-5e-05,-7e-05,-0.00015,-0.00071,-0.0003,-4e-05,-0.00042,-0.00011,2,26
6599,-5e-05,-7e-05,-0.00015,-0.00071,-0.0003,-4e-05,-0.00042,-0.00011,2,26
6600,0.00022,-5e-05,-8e-05,0.00013,0.00024,7e-05,8e-05,0.00019,2,26
6601,-0.00013,-0.00011,2e-05,0.00032,0.0001,5e-05,-0.00019,-0.00011,2,26
6602,-0.00013,-0.00011,2e-05,0.00032,0.0001,5e-05,-0.00019,-0.00011,2,26
6603,-0.00013,-0.00011,2e-05,0.00032,0.0001,5e-05,-0.00019,-0.00011,2,26
6604,-0.00013,-0.00011,2e-05,0.00032,0.0001,5e-05,-0.00019,-0.00011,2,26
6605,-0.00013,-0.00011,2e-05,0.00032,0.0001,5e-05,-0.00019,-0.00011,2,26
6606,-0.00013,-0.00011,2e-05,0.00032,0.0001,5e-05,-0.00019,-0.00011,2,26
6607,-0.00013,-0.00011,2e-05,0.00032,0.0001,5e-05,-0.00019,-0.00011,2,26
6608,-0.00013,-0.00011,2e-05,0.00032,0.0001,5e-05,-0.00019,-0.00011,2,26
6609,-0.00013,-0.00011,2e-05,0.00032,0.0001,5e-05,-0.00019,-0.00011,2,26
6610,-0.00013,-0.00011,2e-05,0.00032,0.0001,5e-05,-0.00019,-0.00011,2,26
6611,-0.00013,-0.00011,2e-05,0.00032,0.0001,5e-05,-0.00019,-0.00011,2,26
6612,-0.00013,-0.00011,2e-05,0.00032,0.0001,5e-05,-0.00019,-0.00011,2,26
6613,-0.00013,-0.00011,2e-05,0.00032,0.0001,5e-05,-0.00019,-0.00011,2,26
6614,-0.00013,-0.00011,2e-05,0.00032,0.0001,5e-05,-0.00019,-0.00011,2,26
6615,-0.00013,-0.00011,2e-05,0.00032,0.0001,5e-05,-0.00019,-0.00011,2,26
6616,-0.00013,-0.00011,2e-05,0.00032,0.0001,5e-05,-0.00019,-0.00011,2,26
6617,-0.00013,-0.00011,2e-05,0.00032,0.0001,5e-05,-0.00019,-0.00011,2,26
6618,-0.00013,-0.00011,2e-05,0.00032,0.0001,5e-05,-0.00019,-0.00011,2,26
6619,-0.00013,-0.00011,2e-05,0.00032,0.0001,5e-05,-0.00019,-0.00011,2,26
6620,-0.00013,-0.00011,2e-05,0.00032,0.0001,5e-05,-0.00019,-0.00011,2,26
6621,-0.00013,-0.00011,2e-05,0.00032,0.0001,5e-05,-0.00019,-0.00011,2,26
6622,-0.00013,-0.00011,2e-05,0.00032,0.0001,5e-05,-0.00019,-0.00011,2,26
6623,4e-05,-4e-05,-2e-05,0.00034,0.00019,0.00041,4e-05,-5e-05,2,26
6624,-9e-05,-7e-05,-0.0001,0.00015,0.00049,5e-05,0,-9e-05,2,26
6625,-9e-05,-7e-05,-0.0001,0.00015,0.00049,5e-05,0,-9e-05,2,26
6626,-9e-05,-7e-05,-0.0001,0.00015,0.00049,5e-05,0,-9e-05,2,26
6627,-9e-05,-7e-05,-0.0001,0.00015,0.00049,5e-05,0,-9e-05,2,26
6628,-9e-05,-7e-05,-0.0001,0.00015,0.00049,5e-05,0,-9e-05,2,26
6629,-9e-05,-7e-05,-0.0001,0.00015,0.00049,5e-05,0,-9e-05,2,26
6630,-9e-05,-7e-05,-0.0001,0.00015,0.00049,5e-05,0,-9e-05,2,26
6631,-9e-05,-7e-05,-0.0001,0.00015,0.00049,5e-05,0,-9e-05,2,26
6632,-9e-05,-7e-05,-0.0001,0.00015,0.00049,5e-05,0,-9e-05,2,26
6633,-9e-05,-7e-05,-0.0001,0.00015,0.00049,5e-05,0,-9e-05,2,26
6634,-9e-05,-7e-05,-0.0001,0.00015,0.00049,5e-05,0,-9e-05,2,26
6635,-9e-05,-7e-05,-0.0001,0.00015,0.00049,5e-05,0,-9e-05,2,26
6636,-9e-05,-7e-05,-0.0001,0.00015,0.00049,5e-05,0,-9e-05,2,26
6638,0.00021,0.0002,0.00011,-0.00021,-6e-05,-0.0001,0.00035,0.00013,2,26
6639,0.00021,0.0002,0.00011,-0.00021,-6e-05,-0.0001,0.00035,0.00013,2,26
6640,0.00021,0.0002,0.00011,-0.00021,-6e-05,-0.0001,0.00035,0.00013,2,26
6641,0.00021,0.0002,0.00011,-0.00021,-6e-05,-0.0001,0.00035,0.00013,2,26
6643,0.00021,0.0002,0.00011,-0.00021,-6e-05,-0.0001,0.00035,0.00013,2,26
6644,0.00021,0.0002,0.00011,-0.00021,-6e-05,-0.0001,0.00035,0.00013,2,26
6645,-0.00015,-0.00012,-0.00028,-0.00029,8e-05,-0.00012,-0.00024,-0.00013,2,26
6646,-0.00015,-0.00012,-0.00028,-0.00029,8e-05,-0.00012,-0.00024,-0.00013,2,26
6647,-0.00015,-0.00012,-0.00028,-0.00029,8e-05,-0.00012,-0.00024,-0.00013,2,26
6648,-0.00015,-0.00012,-0.00028,-0.00029,8e-05,-0.00012,-0.00024,-0.00013,2,26
6649,-0.00015,-0.00012,-0.00028,-0.00029,8e-05,-0.00012,-0.00024,-0.00013,2,26
6650,-0.00015,-0.00012,-0.00028,-0.00029,8e-05,-0.00012,-0.00024,-0.00013,2,26
6651,-0.00015,-0.00012,-0.00028,-0.00029,8e-05,-0.00012,-0.00024,-0.00013,2,26
6652,-0.00015,-0.00012,-0.00028,-0.00029,8e-05,-0.00012,-0.00024,-0.00013,2,26
6653,-0.00015,-0.00012,-0.00028,-0.00029,8e-05,-0.00012,-0.00024,-0.00013,2,26
6654,-0.00015,-0.00012,-0.00028,-0.00029,8e-05,-0.00012,-0.00024,-0.00013,2,26
6655,-0.00015,-0.00012,-0.00028,-0.00029,8e-05,-0.00012,-0.00024,-0.00013,2,26
6656,-0.00015,-0.00012,-0.00028,-0.00029,8e-05,-0.00012,-0.00024,-0.00013,2,26
6657,-0.00015,-0.00012,-0.00028,-0.00029,8e-05,-0.00012,-0.00024,-0.00013,2,26
6658,-0.00015,-0.00012,-0.00028,-0.00029,8e-05,-0.00012,-0.00024,-0.00013,2,26
6659,-0.00015,-0.00012,-0.00028,-0.00029,8e-05,-0.00012,-0.00024,-0.00013,2,26
6660,5e-05,-5e-05,3e-05,0.00042,0.00012,-0.00022,0.00023,0.0003,2,26
6661,0.00015,0.00011,-4e-05,-0.00041,-3e-05,0.00023,4e-05,-9e-05,2,26
6662,0.00015,0.00011,-4e-05,-0.00041,-3e-05,0.00023,4e-05,-9e-05,2,26
6663,0.00015,0.00011,-4e-05,-0.00041,-3e-05,0.00023,4e-05,-9e-05,2,26
6664,0.00015,0.00011,-4e-05,-0.00041,-3e-05,0.00023,4e-05,-9e-05,2,26
6665,0.00015,0.00011,-4e-05,-0.00041,-3e-05,0.00023,4e-05,-9e-05,2,26
6666,0.00015,0.00011,-4e-05,-0.00041,-3e-05,0.00023,4e-05,-9e-05,2,26
6667,0.00015,0.00011,-4e-05,-0.00041,-3e-05,0.00023,4e-05,-9e-05,2,26
6668,0.00015,0.00011,-4e-05,-0.00041,-3e-05,0.00023,4e-05,-9e-05,2,26
6669,0.00015,0.00011,-4e-05,-0.00041,-3e-05,0.00023,4e-05,-9e-05,2,26
6670,0.00015,0.00011,-4e-05,-0.00041,-3e-05,0.00023,4e-05,-9e-05,2,26
6671,0.00015,0.00011,-4e-05,-0.00041,-3e-05,0.00023,4e-05,-9e-05,2,26
6672,0.00015,0.00011,-4e-05,-0.00041,-3e-05,0.00023,4e-05,-9e-05,2,26
6673,0.00015,0.00011,-4e-05,-0.00041,-3e-05,0.00023,4e-05,-9e-05,2,26
6674,-2e-05,-4e-05,9e-05,0.00019,0.00016,-0.00027,-0.00022,-2e-05,2,26
6675,-2e-05,-4e-05,9e-05,0.00019,0.00016,-0.00027,-0.00022,-2e-05,2,26
6676,-2e-05,-4e-05,9e-05,0.00019,0.00016,-0.00027,-0.00022,-2e-05,2,26
6677,-2e-05,-4e-05,9e-05,0.00019,0.00016,-0.00027,-0.00022,-2e-05,2,26
6678,-2e-05,-4e-05,9e-05,0.00019,0.00016,-0.00027,-0.00022,-2e-05,2,26
6679,-2e-05,-4e-05,9e-05,0.00019,0.00016,-0.00027,-0.00022,-2e-05,2,26
6680,-2e-05,-4e-05,9e-05,0.00019,0.00016,-0.00027,-0.00022,-2e-05,2,26
6681,-2e-05,-4e-05,9e-05,0.00019,0.00016,-0.00027,-0.00022,-2e-05,2,26
6682,-3e-05,-5e-05,0.00016,0.00054,-0.00039,-0.00023,-2e-05,-3e-05,2,26
6683,-3e-05,-5e-05,0.00016,0.00054,-0.00039,-0.00023,-2e-05,-3e-05,2,26
6684,-3e-05,-5e-05,0.00016,0.00054,-0.00039,-0.00023,-2e-05,-3e-05,2,26
6685,-3e-05,-5e-05,0.00016,0.00054,-0.00039,-0.00023,-2e-05,-3e-05,2,26
6686,-3e-05,-5e-05,0.00016,0.00054,-0.00039,-0.00023,-2e-05,-3e-05,2,26
6688,-3e-05,-5e-05,0.00016,0.00054,-0.00039,-0.00023,-2e-05,-3e-05,2,26
6689,-3e-05,-5e-05,0.00016,0.00054,-0.00039,-0.00023,-2e-05,-3e-05,2,26
6690,-3e-05,-5e-05,0.00016,0.00054,-0.00039,-0.00023,-2e-05,-3e-05,2,26
6691,-3e-05,-5e-05,0.00016,0.00054,-0.00039,-0.00023,-2e-05,-3e-05,2,26
6692,-3e-05,-5e-05,0.00016,0.00054,-0.00039,-0.00023,-2e-05,-3e-05,2,26
6694,-3e-05,-5e-05,0.00016,0.00054,-0.00039,-0.00023,-2e-05,-3e-05,2,26
6695,-3e-05,-5e-05,0.00016,0.00054,-0.00039,-0.00023,-2e-05,-3e-05,2,26
6696,-3e-05,-5e-05,0.00016,0.00054,-0.00039,-0.00023,-2e-05,-3e-05,2,26
6697,0.00011,6e-05,0.0001,0.0004,0.00041,9e-05,-7e-05,3e-05,2,26
6698,0.00011,6e-05,0.0001,0.0004,0.00041,9e-05,-7e-05,3e-05,2,26
6699,0.00011,6e-05,0.0001,0.0004,0.00041,9e-05,-7e-05,3e-05,2,26
6700,0.00011,6e-05,0.0001,0.0004,0.00041,9e-05,-7e-05,3e-05,2,26
6701,0.00011,6e-05,0.0001,0.0004,0.00041,9e-05,-7e-05,3e-05,2,26
6702,0.00011,6e-05,0.0001,0.0004,0.00041,9e-05,-7e-05,3e-05,2,26
6703,0.00011,6e-05,0.0001,0.0004,0.00041,9e-05,-7e-05,3e-05,2,26
6704,0.00011,6e-05,0.0001,0.0004,0.00041,9e-05,-7e-05,3e-05,2,26
6705,0,6e-05,8e-05,2e-05,-0.0002,-7e-05,-0.0001,-0.00012,2,26
6706,0,6e-05,8e-05,2e-05,-0.0002,-7e-05,-0.0001,-0.00012,2,26
6707,0,6e-05,8e-05,2e-05,-0.0002,-7e-05,-0.0001,-0.00012,2,26
6708,0,6e-05,8e-05,2e-05,-0.0002,-7e-05,-0.0001,-0.00012,2,26
6709,0,6e-05,8e-05,2e-05,-0.0002,-7e-05,-0.0001,-0.00012,2,26
6710,0,6e-05,8e-05,2e-05,-0.0002,-7e-05,-0.0001,-0.00012,2,26
6711,0,6e-05,8e-05,2e-05,-0.0002,-7e-05,-0.0001,-0.00012,2,26
6712,0,6e-05,8e-05,2e-05,-0.0002,-7e-05,-0.0001,-0.00012,2,26
6713,0,6e-05,8e-05,2e-05,-0.0002,-7e-05,-0.0001,-0.00012,2,26
6714,0,6e-05,8e-05,2e-05,-0.0002,-7e-05,-0.0001,-0.00012,2,26
6715,0,6e-05,8e-05,2e-05,-0.0002,-7e-05,-0.0001,-0.00012,2,26
6716,0,6e-05,8e-05,2e-05,-0.0002,-7e-05,-0.0001,-0.00012,2,26
6717,0,6e-05,8e-05,2e-05,-0.0002,-7e-05,-0.0001,-0.00012,2,26
6718,0,6e-05,8e-05,2e-05,-0.0002,-7e-05,-0.0001,-0.00012,2,26
6719,0,6e-05,8e-05,2e-05,-0.0002,-7e-05,-0.0001,-0.00012,2,26
6720,7e-05,0.00011,9e-05,0.00042,0.00057,0.00032,3e-05,0.0002,2,26
6721,9e-05,-0.00011,-0.00021,-0.00011,-0.00025,-0.00047,-0.00031,-0.0002,2,26
6722,9e-05,-0.00011,-0.00021,-0.00011,-0.00025,-0.00047,-0.00031,-0.0002,2,26
6723,9e-05,-0.00011,-0.00021,-0.00011,-0.00025,-0.00047,-0.00031,-0.0002,2,26
6724,9e-05,-0.00011,-0.00021,-0.00011,-0.00025,-0.00047,-0.00031,-0.0002,2,26
6725,9e-05,-0.00011,-0.00021,-0.00011,-0.00025,-0.00047,-0.00031,-0.0002,2,26
6726,9e-05,-0.00011,-0.00021,-0.00011,-0.00025,-0.00047,-0.00031,-0.0002,2,26
6727,9e-05,-0.00011,-0.00021,-0.00011,-0.00025,-0.00047,-0.00031,-0.0002,2,26
6728,9e-05,-0.00011,-0.00021,-0.00011,-0.00025,-0.00047,-0.00031,-0.0002,2,26
6729,9e-05,-0.00011,-0.00021,-0.00011,-0.00025,-0.00047,-0.00031,-0.0002,2,26
6730,9e-05,-0.00011,-0.00021,-0.00011,-0.00025,-0.00047,-0.00031,-0.0002,2,26
6731,9e-05,-0.00011,-0.00021,-0.00011,-0.00025,-0.00047,-0.00031,-0.0002,2,26
6733,9e-05,-0.00011,-0.00021,-0.00011,-0.00025,-0.00047,-0.00031,-0.0002,2,26
6734,6e-05,-2e-05,1e-05,0.00022,-4e-05,0.00022,8e-05,6e-05,2,26
6735,6e-05,-2e-05,1e-05,0.00022,-4e-05,0.00022,8e-05,6e-05,2,26
6736,6e-05,-2e-05,1e-05,0.00022,-4e-05,0.00022,8e-05,6e-05,2,26
6738,6e-05,-2e-05,1e-05,0.00022,-4e-05,0.00022,8e-05,6e-05,2,26
6739,6e-05,-2e-05,1e-05,0.00022,-4e-05,0.00022,8e-05,6e-05,2,26
6740,6e-05,-2e-05,1e-05,0.00022,-4e-05,0.00022,8e-05,6e-05,2,26
6741,6e-05,-2e-05,1e-05,0.00022,-4e-05,0.00022,8e-05,6e-05,2,26
6742,4e-05,7e-05,2e-05,0.00032,0.0002,-0.00036,0.0002,8e-05,2,26
6743,4e-05,7e-05,2e-05,0.00032,0.0002,-0.00036,0.0002,8e-05,2,26
6744,4e-05,7e-05,2e-05,0.00032,0.0002,-0.00036,0.0002,8e-05,2,26
6745,4e-05,7e-05,2e-05,0.00032,0.0002,-0.00036,0.0002,8e-05,2,26
6746,4e-05,7e-05,2e-05,0.00032,0.0002,-0.00036,0.0002,8e-05,2,26
6747,4e-05,7e-05,2e-05,0.00032,0.0002,-0.00036,0.0002,8e-05,2,26
6748,4e-05,7e-05,2e-05,0.00032,0.0002,-0.00036,0.0002,8e-05,2,26
6749,4e-05,7e-05,2e-05,0.00032,0.0002,-0.00036,0.0002,8e-05,2,26
6750,4e-05,7e-05,2e-05,0.00032,0.0002,-0.00036,0.0002,8e-05,2,26
6751,4e-05,7e-05,2e-05,0.00032,0.0002,-0.00036,0.0002,8e-05,2,26
6752,4e-05,7e-05,2e-05,0.00032,0.0002,-0.00036,0.0002,8e-05,2,26
6753,4e-05,7e-05,2e-05,0.00032,0.0002,-0.00036,0.0002,8e-05,2,26
6754,4e-05,7e-05,2e-05,0.00032,0.0002,-0.00036,0.0002,8e-05,2,26
6755,4e-05,7e-05,2e-05,0.00032,0.0002,-0.00036,0.0002,8e-05,2,26
6756,4e-05,7e-05,2e-05,0.00032,0.0002,-0.00036,0.0002,8e-05,2,26
6757,0,4e-05,0.00017,0.00024,-2e-05,0.00011,-0.00012,-2e-05,2,26
6758,0,4e-05,0.00017,0.00024,-2e-05,0.00011,-0.00012,-2e-05,2,26
6759,0,4e-05,0.00017,0.00024,-2e-05,0.00011,-0.00012,-2e-05,2,26
6761,0,4e-05,0.00017,0.00024,-2e-05,0.00011,-0.00012,-2e-05,2,26
6762,0,4e-05,0.00017,0.00024,-2e-05,0.00011,-0.00012,-2e-05,2,26
6763,0,4e-05,0.00017,0.00024,-2e-05,0.00011,-0.00012,-2e-05,2,26
6764,0,4e-05,0.00017,0.00024,-2e-05,0.00011,-0.00012,-2e-05,2,26
6765,-0.00057,-0.00011,6e-05,0.0004,0.00014,8e-05,-0.0003,-0.0003,2,26
6766,-0.00057,-0.00011,6e-05,0.0004,0.00014,8e-05,-0.0003,-0.0003,2,26
6767,-0.00057,-0.00011,6e-05,0.0004,0.00014,8e-05,-0.0003,-0.0003,2,26
6768,-0.00057,-0.00011,6e-05,0.0004,0.00014,8e-05,-0.0003,-0.0003,2,26
6769,-0.00057,-0.00011,6e-05,0.0004,0.00014,8e-05,-0.0003,-0.0003,2,26
6770,-0.00057,-0.00011,6e-05,0.0004,0.00014,8e-05,-0.0003,-0.0003,2,26
6771,-0.00057,-0.00011,6e-05,0.0004,0.00014,8e-05,-0.0003,-0.0003,2,26
6772,-0.00057,-0.00011,6e-05,0.0004,0.00014,8e-05,-0.0003,-0.0003,2,26
6773,-0.00057,-0.00011,6e-05,0.0004,0.00014,8e-05,-0.0003,-0.0003,2,26
6774,-0.00057,-0.00011,6e-05,0.0004,0.00014,8e-05,-0.0003,-0.0003,2,26
6775,-0.00057,-0.00011,6e-05,0.0004,0.00014,8e-05,-0.0003,-0.0003,2,26
6776,-0.00057,-0.00011,6e-05,0.0004,0.00014,8e-05,-0.0003,-0.0003,2,26
6777,-0.00057,-0.00011,6e-05,0.0004,0.00014,8e-05,-0.0003,-0.0003,2,26
6778,-0.00057,-0.00011,6e-05,0.0004,0.00014,8e-05,-0.0003,-0.0003,2,26
6779,-0.00057,-0.00011,6e-05,0.0004,0.00014,8e-05,-0.0003,-0.0003,2,26
6780,0.00015,5e-05,0,2e-05,0.00018,-3e-05,-0.00016,0.00023,2,26
6781,4e-05,-0.00012,-8e-05,-0.00017,-0.00026,-0.00037,-0.00022,-5e-05,2,26
6782,4e-05,-0.00012,-8e-05,-0.00017,-0.00026,-0.00037,-0.00022,-5e-05,2,26
6783,4e-05,-0.00012,-8e-05,-0.00017,-0.00026,-0.00037,-0.00022,-5e-05,2,26
6784,4e-05,-0.00012,-8e-05,-0.00017,-0.00026,-0.00037,-0.00022,-5e-05,2,26
6785,4e-05,-0.00012,-8e-05,-0.00017,-0.00026,-0.00037,-0.00022,-5e-05,2,26
6786,4e-05,-0.00012,-8e-05,-0.00017,-0.00026,-0.00037,-0.00022,-5e-05,2,26
6788,4e-05,-0.00012,-8e-05,-0.00017,-0.00026,-0.00037,-0.00022,-5e-05,2,26
6789,4e-05,-0.00012,-8e-05,-0.00017,-0.00026,-0.00037,-0.00022,-5e-05,2,26
6790,4e-05,-0.00012,-8e-05,-0.00017,-0.00026,-0.00037,-0.00022,-5e-05,2,26
6791,4e-05,-0.00012,-8e-05,-0.00017,-0.00026,-0.00037,-0.00022,-5e-05,2,26
6793,4e-05,-0.00012,-8e-05,-0.00017,-0.00026,-0.00037,-0.00022,-5e-05,2,26
6794,-1e-05,-7e-05,-8e-05,0.00015,0.00044,0.00013,7e-05,4e-05,2,26
6795,-1e-05,-7e-05,-8e-05,0.00015,0.00044,0.00013,7e-05,4e-05,2,26
6796,-1e-05,-7e-05,-8e-05,0.00015,0.00044,0.00013,7e-05,4e-05,2,26
6797,-1e-05,-7e-05,-8e-05,0.00015,0.00044,0.00013,7e-05,4e-05,2,26
6798,-1e-05,-7e-05,-8e-05,0.00015,0.00044,0.00013,7e-05,4e-05,2,26
6799,-1e-05,-7e-05,-8e-05,0.00015,0.00044,0.00013,7e-05,4e-05,2,26
6800,-1e-05,-7e-05,-8e-05,0.00015,0.00044,0.00013,7e-05,4e-05,2,26
6801,-1e-05,-7e-05,-8e-05,0.00015,0.00044,0.00013,7e-05,4e-05,2,26
6802,9e-05,0.00013,0.00027,0.0001,-7e-05,-0.00023,-0.00022,0.00013,2,26
6803,9e-05,0.00013,0.00027,0.0001,-7e-05,-0.00023,-0.00022,0.00013,2,26
6804,9e-05,0.00013,0.00027,0.0001,-7e-05,-0.00023,-0.00022,0.00013,2,26
6805,9e-05,0.00013,0.00027,0.0001,-7e-05,-0.00023,-0.00022,0.00013,2,26
6806,9e-05,0.00013,0.00027,0.0001,-7e-05,-0.00023,-0.00022,0.00013,2,26
6807,9e-05,0.00013,0.00027,0.0001,-7e-05,-0.00023,-0.00022,0.00013,2,26
6808,9e-05,0.00013,0.00027,0.0001,-7e-05,-0.00023,-0.00022,0.00013,2,26
6809,9e-05,0.00013,0.00027,0.0001,-7e-05,-0.00023,-0.00022,0.00013,2,26
6810,9e-05,0.00013,0.00027,0.0001,-7e-05,-0.00023,-0.00022,0.00013,2,26
6811,9e-05,0.00013,0.00027,0.0001,-7e-05,-0.00023,-0.00022,0.00013,2,26
6812,9e-05,0.00013,0.00027,0.0001,-7e-05,-0.00023,-0.00022,0.00013,2,26
6813,9e-05,0.00013,0.00027,0.0001,-7e-05,-0.00023,-0.00022,0.00013,2,26
6814,9e-05,0.00013,0.00027,0.0001,-7e-05,-0.00023,-0.00022,0.00013,2,26
6815,9e-05,0.00013,0.00027,0.0001,-7e-05,-0.00023,-0.00022,0.00013,2,26
6816,9e-05,0.00013,0.00027,0.0001,-7e-05,-0.00023,-0.00022,0.00013,2,26
6817,-7e-05,-0.00028,-0.00035,-0.0002,-0.00014,-2e-05,0.00021,0.0002,2,26
6818,-7e-05,-0.00028,-0.00035,-0.0002,-0.00014,-2e-05,0.00021,0.0002,2,26
6819,-7e-05,-0.00028,-0.00035,-0.0002,-0.00014,-2e-05,0.00021,0.0002,2,26
6820,-7e-05,-0.00028,-0.00035,-0.0002,-0.00014,-2e-05,0.00021,0.0002,2,26
6821,-7e-05,-0.00028,-0.00035,-0.0002,-0.00014,-2e-05,0.00021,0.0002,2,26
6822,-7e-05,-0.00028,-0.00035,-0.0002,-0.00014,-2e-05,0.00021,0.0002,2,26
6823,-7e-05,-0.00028,-0.00035,-0.0002,-0.00014,-2e-05,0.00021,0.0002,2,26
6824,-7e-05,-0.00028,-0.00035,-0.0002,-0.00014,-2e-05,0.00021,0.0002,2,26
6825,0.00037,0.00019,0.00029,-0.00011,-1e-05,0.00028,8e-05,0.0002,2,26
6826,0.00037,0.00019,0.00029,-0.00011,-1e-05,0.00028,8e-05,0.0002,2,26
6827,0.00037,0.00019,0.00029,-0.00011,-1e-05,0.00028,8e-05,0.0002,2,26
6828,0.00037,0.00019,0.00029,-0.00011,-1e-05,0.00028,8e-05,0.0002,2,26
6829,0.00037,0.00019,0.00029,-0.00011,-1e-05,0.00028,8e-05,0.0002,2,26
6830,0.00037,0.00019,0.00029,-0.00011,-1e-05,0.00028,8e-05,0.0002,2,26
6831,0.00037,0.00019,0.00029,-0.00011,-1e-05,0.00028,8e-05,0.0002,2,26
6832,0.00037,0.00019,0.00029,-0.00011,-1e-05,0.00028,8e-05,0.0002,2,26
6833,0.00037,0.00019,0.00029,-0.00011,-1e-05,0.00028,8e-05,0.0002,2,26
6834,0.00037,0.00019,0.00029,-0.00011,-1e-05,0.00028,8e-05,0.0002,2,26
6835,0.00037,0.00019,0.00029,-0.00011,-1e-05,0.00028,8e-05,0.0002,2,26
6836,0.00037,0.00019,0.00029,-0.00011,-1e-05,0.00028,8e-05,0.0002,2,26
6838,0.00037,0.00019,0.00029,-0.00011,-1e-05,0.00028,8e-05,0.0002,2,26
6839,0.00037,0.00019,0.00029,-0.00011,-1e-05,0.00028,8e-05,0.0002,2,26
6840,-0.00022,-8e-05,-0.00011,3e-05,-7e-05,8e-05,0.00027,-0.0002,2,26
6841,-3e-05,-7e-05,-0.00078,-0.00079,0.00031,0.00054,0.00075,0.00013,2,26
6842,-3e-05,-7e-05,-0.00078,-0.00079,0.00031,0.00054,0.00075,0.00013,2,26
6843,-3e-05,-7e-05,-0.00078,-0.00079,0.00031,0.00054,0.00075,0.00013,2,26
6844,-3e-05,-7e-05,-0.00078,-0.00079,0.00031,0.00054,0.00075,0.00013,2,26
6845,-3e-05,-7e-05,-0.00078,-0.00079,0.00031,0.00054,0.00075,0.00013,2,26
6846,-3e-05,-7e-05,-0.00078,-0.00079,0.00031,0.00054,0.00075,0.00013,2,26
6847,-3e-05,-7e-05,-0.00078,-0.00079,0.00031,0.00054,0.00075,0.00013,2,26
6848,-3e-05,-7e-05,-0.00078,-0.00079,0.00031,0.00054,0.00075,0.00013,2,26
6849,-3e-05,-7e-05,-0.00078,-0.00079,0.00031,0.00054,0.00075,0.00013,2,26
6850,-3e-05,-7e-05,-0.00078,-0.00079,0.00031,0.00054,0.00075,0.00013,2,26
6851,-3e-05,-7e-05,-0.00078,-0.00079,0.00031,0.00054,0.00075,0.00013,2,26
6852,-3e-05,-7e-05,-0.00078,-0.00079,0.00031,0.00054,0.00075,0.00013,2,26
6853,-3e-05,-7e-05,-0.00078,-0.00079,0.00031,0.00054,0.00075,0.00013,2,26
6854,-5e-05,2e-05,0.00012,0,-0.00034,-9e-05,3e-05,-5e-05,2,26
6855,-5e-05,2e-05,0.00012,0,-0.00034,-9e-05,3e-05,-5e-05,2,26
6856,-5e-05,2e-05,0.00012,0,-0.00034,-9e-05,3e-05,-5e-05,2,26
6857,-5e-05,2e-05,0.00012,0,-0.00034,-9e-05,3e-05,-5e-05,2,26
6858,-5e-05,2e-05,0.00012,0,-0.00034,-9e-05,3e-05,-5e-05,2,26
6859,-5e-05,2e-05,0.00012,0,-0.00034,-9e-05,3e-05,-5e-05,2,26
6860,-5e-05,2e-05,0.00012,0,-0.00034,-9e-05,3e-05,-5e-05,2,26
6861,-5e-05,2e-05,0.00012,0,-0.00034,-9e-05,3e-05,-5e-05,2,26
6862,0.00024,0.00012,0.00036,0.00038,5e-05,0.00032,0.00018,0.00014,2,26
6863,0.00024,0.00012,0.00036,0.00038,5e-05,0.00032,0.00018,0.00014,2,26
6864,0.00024,0.00012,0.00036,0.00038,5e-05,0.00032,0.00018,0.00014,2,26
6865,0.00024,0.00012,0.00036,0.00038,5e-05,0.00032,0.00018,0.00014,2,26
6866,0.00024,0.00012,0.00036,0.00038,5e-05,0.00032,0.00018,0.00014,2,26
6867,0.00024,0.00012,0.00036,0.00038,5e-05,0.00032,0.00018,0.00014,2,26
6868,0.00024,0.00012,0.00036,0.00038,5e-05,0.00032,0.00018,0.00014,2,26
6869,0.00024,0.00012,0.00036,0.00038,5e-05,0.00032,0.00018,0.00014,2,26
6870,0.00024,0.00012,0.00036,0.00038,5e-05,0.00032,0.00018,0.00014,2,26
6871,0.00024,0.00012,0.00036,0.00038,5e-05,0.00032,0.00018,0.00014,2,26
6872,0.00024,0.00012,0.00036,0.00038,5e-05,0.00032,0.00018,0.00014,2,26
6873,0.00024,0.00012,0.00036,0.00038,5e-05,0.00032,0.00018,0.00014,2,26
6874,0.00024,0.00012,0.00036,0.00038,5e-05,0.00032,0.00018,0.00014,2,26
6875,0.00024,0.00012,0.00036,0.00038,5e-05,0.00032,0.00018,0.00014,2,26
6876,0.00024,0.00012,0.00036,0.00038,5e-05,0.00032,0.00018,0.00014,2,26
6877,-0.00016,-8e-05,-0.00018,-0.00016,-0.00016,-0.00039,-0.0002,-0.00022,2,26
6878,-0.00016,-8e-05,-0.00018,-0.00016,-0.00016,-0.00039,-0.0002,-0.00022,2,26
6879,-0.00016,-8e-05,-0.00018,-0.00016,-0.00016,-0.00039,-0.0002,-0.00022,2,26
6880,-0.00016,-8e-05,-0.00018,-0.00016,-0.00016,-0.00039,-0.0002,-0.00022,2,26
6881,-0.00016,-8e-05,-0.00018,-0.00016,-0.00016,-0.00039,-0.0002,-0.00022,2,26
6882,-0.00016,-8e-05,-0.00018,-0.00016,-0.00016,-0.00039,-0.0002,-0.00022,2,26
6883,-0.00016,-8e-05,-0.00018,-0.00016,-0.00016,-0.00039,-0.0002,-0.00022,2,26
6884,-0.00016,-8e-05,-0.00018,-0.00016,-0.00016,-0.00039,-0.0002,-0.00022,2,26
6885,1e-05,-3e-05,8e-05,0.00013,-0.00018,-3e-05,-6e-05,4e-05,2,26
6886,1e-05,-3e-05,8e-05,0.00013,-0.00018,-3e-05,-6e-05,4e-05,2,26
6888,1e-05,-3e-05,8e-05,0.00013,-0.00018,-3e-05,-6e-05,4e-05,2,26
6889,1e-05,-3e-05,8e-05,0.00013,-0.00018,-3e-05,-6e-05,4e-05,2,26
6890,1e-05,-3e-05,8e-05,0.00013,-0.00018,-3e-05,-6e-05,4e-05,2,26
6891,1e-05,-3e-05,8e-05,0.00013,-0.00018,-3e-05,-6e-05,4e-05,2,26
6893,1e-05,-3e-05,8e-05,0.00013,-0.00018,-3e-05,-6e-05,4e-05,2,26
6894,1e-05,-3e-05,8e-05,0.00013,-0.00018,-3e-05,-6e-05,4e-05,2,26
6895,1e-05,-3e-05,8e-05,0.00013,-0.00018,-3e-05,-6e-05,4e-05,2,26
6896,1e-05,-3e-05,8e-05,0.00013,-0.00018,-3e-05,-6e-05,4e-05,2,26
6897,1e-05,-3e-05,8e-05,0.00013,-0.00018,-3e-05,-6e-05,4e-05,2,26
6898,1e-05,-3e-05,8e-05,0.00013,-0.00018,-3e-05,-6e-05,4e-05,2,26
6899,1e-05,-3e-05,8e-05,0.00013,-0.00018,-3e-05,-6e-05,4e-05,2,26
6900,1e-05,-3e-05,8e-05,0.00013,-0.00018,-3e-05,-6e-05,4e-05,2,26
6901,1e-05,-3e-05,8e-05,0.00013,-0.00018,-3e-05,-6e-05,4e-05,2,26
6902,1e-05,-3e-05,8e-05,0.00013,-0.00018,-3e-05,-6e-05,4e-05,2,26
6903,1e-05,-3e-05,8e-05,0.00013,-0.00018,-3e-05,-6e-05,4e-05,2,26
6904,1e-05,-3e-05,8e-05,0.00013,-0.00018,-3e-05,-6e-05,4e-05,2,26
6905,1e-05,-3e-05,8e-05,0.00013,-0.00018,-3e-05,-6e-05,4e-05,2,26
6906,1e-05,-3e-05,8e-05,0.00013,-0.00018,-3e-05,-6e-05,4e-05,2,26
6907,1e-05,-3e-05,8e-05,0.00013,-0.00018,-3e-05,-6e-05,4e-05,2,26
6908,0.00019,0.00014,0.0003,0.00011,-0.00011,0.00016,-6e-05,0.00024,2,26
6909,0.00019,0.00014,0.0003,0.00011,-0.00011,0.00016,-6e-05,0.00024,2,26
6910,-0.00028,-0.0001,-0.00017,-0.00055,-0.00011,4e-05,-0.00036,-0.0001,2,26
6911,-0.00028,-0.0001,-0.00017,-0.00055,-0.00011,4e-05,-0.00036,-0.0001,2,26
6912,-0.00028,-0.0001,-0.00017,-0.00055,-0.00011,4e-05,-0.00036,-0.0001,2,26
6913,-0.00028,-0.0001,-0.00017,-0.00055,-0.00011,4e-05,-0.00036,-0.0001,2,26
6914,-0.00028,-0.0001,-0.00017,-0.00055,-0.00011,4e-05,-0.00036,-0.0001,2,26
6915,-0.00028,-0.0001,-0.00017,-0.00055,-0.00011,4e-05,-0.00036,-0.0001,2,26
6916,-0.00028,-0.0001,-0.00017,-0.00055,-0.00011,4e-05,-0.00036,-0.0001,2,26
6917,-0.00028,-0.0001,-0.00017,-0.00055,-0.00011,4e-05,-0.00036,-0.0001,2,26
6918,-0.00028,-0.0001,-0.00017,-0.00055,-0.00011,4e-05,-0.00036,-0.0001,2,26
6919,-0.00028,-0.0001,-0.00017,-0.00055,-0.00011,4e-05,-0.00036,-0.0001,2,26
6920,-0.00028,-0.0001,-0.00017,-0.00055,-0.00011,4e-05,-0.00036,-0.0001,2,26
6921,-0.00028,-0.0001,-0.00017,-0.00055,-0.00011,4e-05,-0.00036,-0.0001,2,26
6922,-0.00013,-1e-05,2e-05,-0.00019,9e-05,-7e-05,-0.00015,-0.00014,2,26
6923,-0.00013,-1e-05,2e-05,-0.00019,9e-05,-7e-05,-0.00015,-0.00014,2,26
6924,-0.00013,-1e-05,2e-05,-0.00019,9e-05,-7e-05,-0.00015,-0.00014,2,26
6925,-0.00013,-1e-05,2e-05,-0.00019,9e-05,-7e-05,-0.00015,-0.00014,2,26
6926,-0.00013,-1e-05,2e-05,-0.00019,9e-05,-7e-05,-0.00015,-0.00014,2,26
6927,-0.00013,-1e-05,2e-05,-0.00019,9e-05,-7e-05,-0.00015,-0.00014,2,26
6928,-0.00013,-1e-05,2e-05,-0.00019,9e-05,-7e-05,-0.00015,-0.00014,2,26
6929,-0.00013,-1e-05,2e-05,-0.00019,9e-05,-7e-05,-0.00015,-0.00014,2,26
6930,-0.00013,-1e-05,2e-05,-0.00019,9e-05,-7e-05,-0.00015,-0.00014,2,26
6931,0.00041,5e-05,6e-05,0.00026,3e-05,0.00028,0.00045,0.00052,2,26
6932,0.00041,5e-05,6e-05,0.00026,3e-05,0.00028,0.00045,0.00052,2,26
6933,0.00041,5e-05,6e-05,0.00026,3e-05,0.00028,0.00045,0.00052,2,26
6934,0.00041,5e-05,6e-05,0.00026,3e-05,0.00028,0.00045,0.00052,2,26
6935,0.00041,5e-05,6e-05,0.00026,3e-05,0.00028,0.00045,0.00052,2,26
6936,0.00041,5e-05,6e-05,0.00026,3e-05,0.00028,0.00045,0.00052,2,26
6938,0.00041,5e-05,6e-05,0.00026,3e-05,0.00028,0.00045,0.00052,2,26
6939,0.00041,5e-05,6e-05,0.00026,3e-05,0.00028,0.00045,0.00052,2,26
6940,0.00041,5e-05,6e-05,0.00026,3e-05,0.00028,0.00045,0.00052,2,26
6941,0.00041,5e-05,6e-05,0.00026,3e-05,0.00028,0.00045,0.00052,2,26
6942,0.00041,5e-05,6e-05,0.00026,3e-05,0.00028,0.00045,0.00052,2,26
6943,0.00041,5e-05,6e-05,0.00026,3e-05,0.00028,0.00045,0.00052,2,26
6944,0.00041,5e-05,6e-05,0.00026,3e-05,0.00028,0.00045,0.00052,2,26
6945,-3e-05,-1e-05,-0.00032,-0.00075,0.00017,0.00015,4e-05,-0.00012,2,26
6946,-3e-05,-1e-05,-0.00032,-0.00075,0.00017,0.00015,4e-05,-0.00012,2,26
6947,1e-05,2e-05,0.00013,0.00018,-0.00021,-0.00047,-5e-05,-6e-05,2,26
6948,1e-05,2e-05,0.00013,0.00018,-0.00021,-0.00047,-5e-05,-6e-05,2,26
6949,1e-05,2e-05,0.00013,0.00018,-0.00021,-0.00047,-5e-05,-6e-05,2,26
6950,1e-05,2e-05,0.00013,0.00018,-0.00021,-0.00047,-5e-05,-6e-05,2,26
6951,1e-05,2e-05,0.00013,0.00018,-0.00021,-0.00047,-5e-05,-6e-05,2,26
6952,1e-05,2e-05,0.00013,0.00018,-0.00021,-0.00047,-5e-05,-6e-05,2,26
6953,1e-05,2e-05,0.00013,0.00018,-0.00021,-0.00047,-5e-05,-6e-05,2,26
6954,1e-05,2e-05,0.00013,0.00018,-0.00021,-0.00047,-5e-05,-6e-05,2,26
6955,1e-05,2e-05,0.00013,0.00018,-0.00021,-0.00047,-5e-05,-6e-05,2,26
6956,1e-05,2e-05,0.00013,0.00018,-0.00021,-0.00047,-5e-05,-6e-05,2,26
6957,1e-05,2e-05,0.00013,0.00018,-0.00021,-0.00047,-5e-05,-6e-05,2,26
6958,1e-05,2e-05,0.00013,0.00018,-0.00021,-0.00047,-5e-05,-6e-05,2,26
6959,1e-05,2e-05,0.00013,0.00018,-0.00021,-0.00047,-5e-05,-6e-05,2,26
6960,1e-05,2e-05,0.00013,0.00018,-0.00021,-0.00047,-5e-05,-6e-05,2,26
6961,1e-05,2e-05,0.00013,0.00018,-0.00021,-0.00047,-5e-05,-6e-05,2,26
6962,1e-05,2e-05,0.00013,0.00018,-0.00021,-0.00047,-5e-05,-6e-05,2,26
6963,1e-05,2e-05,0.00013,0.00018,-0.00021,-0.00047,-5e-05,-6e-05,2,26
6964,1e-05,2e-05,0.00013,0.00018,-0.00021,-0.00047,-5e-05,-6e-05,2,26
6965,1e-05,2e-05,0.00013,0.00018,-0.00021,-0.00047,-5e-05,-6e-05,2,26
6966,1e-05,2e-05,0.00013,0.00018,-0.00021,-0.00047,-5e-05,-6e-05,2,26
6967,1e-05,2e-05,0.00013,0.00018,-0.00021,-0.00047,-5e-05,-6e-05,2,26
6968,-4e-05,-9e-05,-0.00033,-0.00025,-7e-05,-0.0003,-0.00024,-4e-05,2,26
6969,-4e-05,-9e-05,-0.00033,-0.00025,-7e-05,-0.0003,-0.00024,-4e-05,2,26
6970,-0.00011,-1e-05,-8e-05,-0.00023,-0.00016,-0.00029,-0.00016,-7e-05,2,26
6971,-0.00011,-1e-05,-8e-05,-0.00023,-0.00016,-0.00029,-0.00016,-7e-05,2,26
6973,-0.00011,-1e-05,-8e-05,-0.00023,-0.00016,-0.00029,-0.00016,-7e-05,2,26
6974,-0.00011,-1e-05,-8e-05,-0.00023,-0.00016,-0.00029,-0.00016,-7e-05,2,26
6975,-0.00011,-1e-05,-8e-05,-0.00023,-0.00016,-0.00029,-0.00016,-7e-05,2,26
6976,-0.00011,-1e-05,-8e-05,-0.00023,-0.00016,-0.00029,-0.00016,-7e-05,2,26
6977,-0.00011,-1e-05,-8e-05,-0.00023,-0.00016,-0.00029,-0.00016,-7e-05,2,26
6978,-0.00011,-1e-05,-8e-05,-0.00023,-0.00016,-0.00029,-0.00016,-7e-05,2,26
6979,-0.00011,-1e-05,-8e-05,-0.00023,-0.00016,-0.00029,-0.00016,-7e-05,2,26
6980,-0.00011,-1e-05,-8e-05,-0.00023,-0.00016,-0.00029,-0.00016,-7e-05,2,26
6981,-0.00011,-1e-05,-8e-05,-0.00023,-0.00016,-0.00029,-0.00016,-7e-05,2,26
6982,-0.00011,-1e-05,-8e-05,-0.00023,-0.00016,-0.00029,-0.00016,-7e-05,2,26
6983,-0.00011,-1e-05,-8e-05,-0.00023,-0.00016,-0.00029,-0.00016,-7e-05,2,26
6984,-0.00011,-1e-05,-8e-05,-0.00023,-0.00016,-0.00029,-0.00016,-7e-05,2,26
6985,-0.00011,-1e-05,-8e-05,-0.00023,-0.00016,-0.00029,-0.00016,-7e-05,2,26
6986,-0.00011,-1e-05,-8e-05,-0.00023,-0.00016,-0.00029,-0.00016,-7e-05,2,26
6988,-0.00011,-1e-05,-8e-05,-0.00023,-0.00016,-0.00029,-0.00016,-7e-05,2,26
6989,-0.00011,-1e-05,-8e-05,-0.00023,-0.00016,-0.00029,-0.00016,-7e-05,2,26
6990,-0.00011,-1e-05,-8e-05,-0.00023,-0.00016,-0.00029,-0.00016,-7e-05,2,26
6991,0.00015,7e-05,0.00015,0.0005,0.00049,0.00092,0.00071,0.00011,2,26
6992,0.00018,-9e-05,-0.00027,-0.0003,-5e-05,-0.00039,-0.00015,0.00014,2,26
6993,0.00018,-9e-05,-0.00027,-0.0003,-5e-05,-0.00039,-0.00015,0.00014,2,26
6994,0.00018,-9e-05,-0.00027,-0.0003,-5e-05,-0.00039,-0.00015,0.00014,2,26
6995,0.00018,-9e-05,-0.00027,-0.0003,-5e-05,-0.00039,-0.00015,0.00014,2,26
6996,0.00018,-9e-05,-0.00027,-0.0003,-5e-05,-0.00039,-0.00015,0.00014,2,26
6997,0.00018,-9e-05,-0.00027,-0.0003,-5e-05,-0.00039,-0.00015,0.00014,2,26
6998,0.00018,-9e-05,-0.00027,-0.0003,-5e-05,-0.00039,-0.00015,0.00014,2,26
6999,0.00018,-9e-05,-0.00027,-0.0003,-5e-05,-0.00039,-0.00015,0.00014,2,26
7000,0.00018,-9e-05,-0.00027,-0.0003,-5e-05,-0.00039,-0.00015,0.00014,2,26
7001,0.00018,-9e-05,-0.00027,-0.0003,-5e-05,-0.00039,-0.00015,0.00014,2,26
7002,0.00018,-9e-05,-0.00027,-0.0003,-5e-05,-0.00039,-0.00015,0.00014,2,26
7004,0.00018,-9e-05,-0.00027,-0.0003,-5e-05,-0.00039,-0.00015,0.00014,2,26
7005,-0.00011,7e-05,0.00022,0.00041,-0.00046,-0.00023,-0.00055,-2e-05,2,26
7006,-0.00011,7e-05,0.00022,0.00041,-0.00046,-0.00023,-0.00055,-2e-05,2,26
7007,-0.00011,7e-05,0.00022,0.00041,-0.00046,-0.00023,-0.00055,-2e-05,2,26
7008,-0.00011,7e-05,0.00022,0.00041,-0.00046,-0.00023,-0.00055,-2e-05,2,26
7009,-0.00011,7e-05,0.00022,0.00041,-0.00046,-0.00023,-0.00055,-2e-05,2,26
7010,-0.00011,7e-05,0.00022,0.00041,-0.00046,-0.00023,-0.00055,-2e-05,2,26
7011,-0.00011,7e-05,0.00022,0.00041,-0.00046,-0.00023,-0.00055,-2e-05,2,26
7012,-0.00011,-0.00013,-0.0002,1e-05,0.00015,0.0003,0.00036,-6e-05,2,26
7013,-0.00011,-0.00013,-0.0002,1e-05,0.00015,0.0003,0.00036,-6e-05,2,26
7014,-0.00011,-0.00013,-0.0002,1e-05,0.00015,0.0003,0.00036,-6e-05,2,26
7015,-0.00011,-0.00013,-0.0002,1e-05,0.00015,0.0003,0.00036,-6e-05,2,26
7016,-0.00011,-0.00013,-0.0002,1e-05,0.00015,0.0003,0.00036,-6e-05,2,26
7017,-0.00011,-0.00013,-0.0002,1e-05,0.00015,0.0003,0.00036,-6e-05,2,26
7018,-0.00011,-0.00013,-0.0002,1e-05,0.00015,0.0003,0.00036,-6e-05,2,26
7019,-0.00011,-0.00013,-0.0002,1e-05,0.00015,0.0003,0.00036,-6e-05,2,26
7020,-0.00011,-0.00013,-0.0002,1e-05,0.00015,0.0003,0.00036,-6e-05,2,26
7021,-0.00011,-0.00013,-0.0002,1e-05,0.00015,0.0003,0.00036,-6e-05,2,26
7022,-0.00011,-0.00013,-0.0002,1e-05,0.00015,0.0003,0.00036,-6e-05,2,26
7023,-0.00011,-0.00013,-0.0002,1e-05,0.00015,0.0003,0.00036,-6e-05,2,26
7024,-0.00011,-0.00013,-0.0002,1e-05,0.00015,0.0003,0.00036,-6e-05,2,26
7025,-0.00011,-0.00013,-0.0002,1e-05,0.00015,0.0003,0.00036,-6e-05,2,26
7026,-0.00011,-0.00013,-0.0002,1e-05,0.00015,0.0003,0.00036,-6e-05,2,26
7027,-0.00011,-0.00013,-0.0002,1e-05,0.00015,0.0003,0.00036,-6e-05,2,26
7028,-0.00022,-0.00017,3e-05,-9e-05,-0.00029,9e-05,0.00013,0.00017,2,26
7029,-0.00022,-0.00017,3e-05,-9e-05,-0.00029,9e-05,0.00013,0.00017,2,26
7030,-2e-05,0.00012,7e-05,0.00013,0.00038,-0.00025,-0.00038,-0.00015,2,26
7031,-2e-05,0.00012,7e-05,0.00013,0.00038,-0.00025,-0.00038,-0.00015,2,26
7033,-2e-05,0.00012,7e-05,0.00013,0.00038,-0.00025,-0.00038,-0.00015,2,26
7034,-2e-05,0.00012,7e-05,0.00013,0.00038,-0.00025,-0.00038,-0.00015,2,26
7035,-2e-05,0.00012,7e-05,0.00013,0.00038,-0.00025,-0.00038,-0.00015,2,26
7036,-2e-05,0.00012,7e-05,0.00013,0.00038,-0.00025,-0.00038,-0.00015,2,26
7038,-2e-05,0.00012,7e-05,0.00013,0.00038,-0.00025,-0.00038,-0.00015,2,26
7039,-2e-05,0.00012,7e-05,0.00013,0.00038,-0.00025,-0.00038,-0.00015,2,26
7040,-2e-05,0.00012,7e-05,0.00013,0.00038,-0.00025,-0.00038,-0.00015,2,26
7041,-2e-05,0.00012,7e-05,0.00013,0.00038,-0.00025,-0.00038,-0.00015,2,26
7043,-2e-05,0.00012,7e-05,0.00013,0.00038,-0.00025,-0.00038,-0.00015,2,26
7044,-2e-05,0.00012,7e-05,0.00013,0.00038,-0.00025,-0.00038,-0.00015,2,26
7045,-2e-05,0.00012,7e-05,0.00013,0.00038,-0.00025,-0.00038,-0.00015,2,26
7046,-2e-05,0.00012,7e-05,0.00013,0.00038,-0.00025,-0.00038,-0.00015,2,26
7047,-2e-05,0.00012,7e-05,0.00013,0.00038,-0.00025,-0.00038,-0.00015,2,26
7048,-2e-05,0.00012,7e-05,0.00013,0.00038,-0.00025,-0.00038,-0.00015,2,26
7049,-2e-05,0.00012,7e-05,0.00013,0.00038,-0.00025,-0.00038,-0.00015,2,26
7050,9e-05,2e-05,-7e-05,-0.00029,0.00023,-0.00023,-0.00013,0,2,26
7051,0.00029,4e-05,-4e-05,-8e-05,-0.00024,-6e-05,0.00018,0.00031,2,26
7052,-0.00051,-0.00017,0.00018,6e-05,-0.00041,-0.00028,-0.00019,-0.00034,2,26
7053,-0.00051,-0.00017,0.00018,6e-05,-0.00041,-0.00028,-0.00019,-0.00034,2,26
7054,-0.00051,-0.00017,0.00018,6e-05,-0.00041,-0.00028,-0.00019,-0.00034,2,26
7055,-0.00051,-0.00017,0.00018,6e-05,-0.00041,-0.00028,-0.00019,-0.00034,2,26
7056,-0.00051,-0.00017,0.00018,6e-05,-0.00041,-0.00028,-0.00019,-0.00034,2,26
7057,-0.00051,-0.00017,0.00018,6e-05,-0.00041,-0.00028,-0.00019,-0.00034,2,26
7058,-0.00051,-0.00017,0.00018,6e-05,-0.00041,-0.00028,-0.00019,-0.00034,2,26
7059,-0.00051,-0.00017,0.00018,6e-05,-0.00041,-0.00028,-0.00019,-0.00034,2,26
7060,-0.00051,-0.00017,0.00018,6e-05,-0.00041,-0.00028,-0.00019,-0.00034,2,26
7061,-0.00051,-0.00017,0.00018,6e-05,-0.00041,-0.00028,-0.00019,-0.00034,2,26
7063,-0.00051,-0.00017,0.00018,6e-05,-0.00041,-0.00028,-0.00019,-0.00034,2,26
7064,-0.00051,-0.00017,0.00018,6e-05,-0.00041,-0.00028,-0.00019,-0.00034,2,26
7065,-0.00051,-0.00017,0.00018,6e-05,-0.00041,-0.00028,-0.00019,-0.00034,2,26
7066,0.00017,3e-05,-3e-05,-1e-05,-2e-05,-9e-05,-0.00023,0.00026,2,26
7067,7e-05,8e-05,0.00011,-1e-05,4e-05,3e-05,-0.0001,-9e-05,2,26
7068,7e-05,8e-05,0.00011,-1e-05,4e-05,3e-05,-0.0001,-9e-05,2,26
7069,7e-05,8e-05,0.00011,-1e-05,4e-05,3e-05,-0.0001,-9e-05,2,26
7070,7e-05,8e-05,0.00011,-1e-05,4e-05,3e-05,-0.0001,-9e-05,2,26
7071,7e-05,8e-05,0.00011,-1e-05,4e-05,3e-05,-0.0001,-9e-05,2,26
7073,7e-05,8e-05,0.00011,-1e-05,4e-05,3e-05,-0.0001,-9e-05,2,26
7074,7e-05,8e-05,0.00011,-1e-05,4e-05,3e-05,-0.0001,-9e-05,2,26
7075,7e-05,8e-05,0.00011,-1e-05,4e-05,3e-05,-0.0001,-9e-05,2,26
7076,7e-05,8e-05,0.00011,-1e-05,4e-05,3e-05,-0.0001,-9e-05,2,26
7077,7e-05,8e-05,0.00011,-1e-05,4e-05,3e-05,-0.0001,-9e-05,2,26
7078,7e-05,8e-05,0.00011,-1e-05,4e-05,3e-05,-0.0001,-9e-05,2,26
7079,7e-05,8e-05,0.00011,-1e-05,4e-05,3e-05,-0.0001,-9e-05,2,26
7080,7e-05,8e-05,0.00011,-1e-05,4e-05,3e-05,-0.0001,-9e-05,2,26
7081,7e-05,8e-05,0.00011,-1e-05,4e-05,3e-05,-0.0001,-9e-05,2,26
7082,7e-05,8e-05,0.00011,-1e-05,4e-05,3e-05,-0.0001,-9e-05,2,26
7083,7e-05,8e-05,0.00011,-1e-05,4e-05,3e-05,-0.0001,-9e-05,2,26
7084,7e-05,8e-05,0.00011,-1e-05,4e-05,3e-05,-0.0001,-9e-05,2,26
7085,7e-05,8e-05,0.00011,-1e-05,4e-05,3e-05,-0.0001,-9e-05,2,26
7086,7e-05,8e-05,0.00011,-1e-05,4e-05,3e-05,-0.0001,-9e-05,2,26
7088,7e-05,8e-05,0.00011,-1e-05,4e-05,3e-05,-0.0001,-9e-05,2,26
7089,7e-05,8e-05,0.00011,-1e-05,4e-05,3e-05,-0.0001,-9e-05,2,26
7090,-0.00013,6e-05,0.00018,-4e-05,-0.00024,-0.00035,-9e-05,-9e-05,2,26
7091,8e-05,-2e-05,0.00018,0.00038,-4e-05,5e-05,-4e-05,-0.0001,2,26
7092,8e-05,-2e-05,0.00018,0.00038,-4e-05,5e-05,-4e-05,-0.0001,2,26
7093,8e-05,-2e-05,0.00018,0.00038,-4e-05,5e-05,-4e-05,-0.0001,2,26
7094,8e-05,-2e-05,0.00018,0.00038,-4e-05,5e-05,-4e-05,-0.0001,2,26
7095,8e-05,-2e-05,0.00018,0.00038,-4e-05,5e-05,-4e-05,-0.0001,2,26
7096,8e-05,-2e-05,0.00018,0.00038,-4e-05,5e-05,-4e-05,-0.0001,2,26
7097,8e-05,-2e-05,0.00018,0.00038,-4e-05,5e-05,-4e-05,-0.0001,2,26
7098,8e-05,-2e-05,0.00018,0.00038,-4e-05,5e-05,-4e-05,-0.0001,2,26
7099,8e-05,-2e-05,0.00018,0.00038,-4e-05,5e-05,-4e-05,-0.0001,2,26
7100,8e-05,-2e-05,0.00018,0.00038,-4e-05,5e-05,-4e-05,-0.0001,2,26
7101,8e-05,-2e-05,0.00018,0.00038,-4e-05,5e-05,-4e-05,-0.0001,2,26
7102,8e-05,-2e-05,0.00018,0.00038,-4e-05,5e-05,-4e-05,-0.0001,2,26
7104,8e-05,-2e-05,0.00018,0.00038,-4e-05,5e-05,-4e-05,-0.0001,2,26
7105,8e-05,-2e-05,0.00018,0.00038,-4e-05,5e-05,-4e-05,-0.0001,2,26
7106,8e-05,-2e-05,0.00018,0.00038,-4e-05,5e-05,-4e-05,-0.0001,2,26
7107,8e-05,-2e-05,0.00018,0.00038,-4e-05,5e-05,-4e-05,-0.0001,2,26
7108,8e-05,-2e-05,0.00018,0.00038,-4e-05,5e-05,-4e-05,-0.0001,2,26
7109,8e-05,-2e-05,0.00018,0.00038,-4e-05,5e-05,-4e-05,-0.0001,2,26
7110,-0.00011,-1e-05,-8e-05,-0.00012,-0.00025,-0.00017,0.00013,0.00012,2,26
7111,8e-05,8e-05,-6e-05,-0.00021,7e-05,-6e-05,5e-05,0,2,26
7112,-0.00016,0,4e-05,-0.00016,8e-05,0.00022,0.0003,-3e-05,2,26
7113,-0.00016,0,4e-05,-0.00016,8e-05,0.00022,0.0003,-3e-05,2,26
7114,-0.00016,0,4e-05,-0.00016,8e-05,0.00022,0.0003,-3e-05,2,26
7115,-0.00016,0,4e-05,-0.00016,8e-05,0.00022,0.0003,-3e-05,2,26
7116,-0.00016,0,4e-05,-0.00016,8e-05,0.00022,0.0003,-3e-05,2,26
7117,-0.00016,0,4e-05,-0.00016,8e-05,0.00022,0.0003,-3e-05,2,26
7118,-0.00016,0,4e-05,-0.00016,8e-05,0.00022,0.0003,-3e-05,2,26
7119,-0.00016,0,4e-05,-0.00016,8e-05,0.00022,0.0003,-3e-05,2,26
7120,-0.00016,0,4e-05,-0.00016,8e-05,0.00022,0.0003,-3e-05,2,26
7121,-0.00016,0,4e-05,-0.00016,8e-05,0.00022,0.0003,-3e-05,2,26
7122,-0.00016,0,4e-05,-0.00016,8e-05,0.00022,0.0003,-3e-05,2,26
7123,-0.00016,0,4e-05,-0.00016,8e-05,0.00022,0.0003,-3e-05,2,26
7124,-0.00016,0,4e-05,-0.00016,8e-05,0.00022,0.0003,-3e-05,2,26
7125,-5e-05,-7e-05,-0.00048,-0.00087,-0.00037,0.00046,0.00049,-0.0002,2,26
7126,-5e-05,-7e-05,-0.00048,-0.00087,-0.00037,0.00046,0.00049,-0.0002,2,26
7127,-5e-05,-7e-05,-0.00048,-0.00087,-0.00037,0.00046,0.00049,-0.0002,2,26
7128,-5e-05,-7e-05,-0.00048,-0.00087,-0.00037,0.00046,0.00049,-0.0002,2,26
7129,-5e-05,-7e-05,-0.00048,-0.00087,-0.00037,0.00046,0.00049,-0.0002,2,26
7130,-5e-05,-7e-05,-0.00048,-0.00087,-0.00037,0.00046,0.00049,-0.0002,2,26
7131,-5e-05,-7e-05,-0.00048,-0.00087,-0.00037,0.00046,0.00049,-0.0002,2,26
7132,0.00025,0.00012,6e-05,0.00019,-1e-05,0.00058,0.00032,0.00023,2,26
7133,0.00025,0.00012,6e-05,0.00019,-1e-05,0.00058,0.00032,0.00023,2,26
7134,0.00025,0.00012,6e-05,0.00019,-1e-05,0.00058,0.00032,0.00023,2,26
7135,0.00025,0.00012,6e-05,0.00019,-1e-05,0.00058,0.00032,0.00023,2,26
7136,0.00025,0.00012,6e-05,0.00019,-1e-05,0.00058,0.00032,0.00023,2,26
7138,0.00025,0.00012,6e-05,0.00019,-1e-05,0.00058,0.00032,0.00023,2,26
7139,0.00025,0.00012,6e-05,0.00019,-1e-05,0.00058,0.00032,0.00023,2,26
7140,0.00025,0.00012,6e-05,0.00019,-1e-05,0.00058,0.00032,0.00023,2,26
7141,0.00025,0.00012,6e-05,0.00019,-1e-05,0.00058,0.00032,0.00023,2,26
7142,0.00025,0.00012,6e-05,0.00019,-1e-05,0.00058,0.00032,0.00023,2,26
7143,0.00025,0.00012,6e-05,0.00019,-1e-05,0.00058,0.00032,0.00023,2,26
7144,0.00025,0.00012,6e-05,0.00019,-1e-05,0.00058,0.00032,0.00023,2,26
7145,0.00025,0.00012,6e-05,0.00019,-1e-05,0.00058,0.00032,0.00023,2,26
7146,0.00025,0.00012,6e-05,0.00019,-1e-05,0.00058,0.00032,0.00023,2,26
7147,0.00025,0.00012,6e-05,0.00019,-1e-05,0.00058,0.00032,0.00023,2,26
7148,0.00024,9e-05,0.00017,0.00017,0.00019,-0.00022,-0.00035,0.00012,2,26
7149,-9e-05,4e-05,0.00034,0.00044,0.00024,0.00053,0.00044,-6e-05,2,26
7150,-2e-05,-1e-05,-0.00019,-0.00017,3e-05,0.00022,0.00017,6e-05,2,26
7151,-2e-05,-1e-05,-0.00019,-0.00017,3e-05,0.00022,0.00017,6e-05,2,26
7153,-2e-05,-1e-05,-0.00019,-0.00017,3e-05,0.00022,0.00017,6e-05,2,26
7154,-2e-05,-1e-05,-0.00019,-0.00017,3e-05,0.00022,0.00017,6e-05,2,26
7155,-2e-05,-1e-05,-0.00019,-0.00017,3e-05,0.00022,0.00017,6e-05,2,26
7156,-2e-05,-1e-05,-0.00019,-0.00017,3e-05,0.00022,0.00017,6e-05,2,26
7157,-2e-05,-1e-05,-0.00019,-0.00017,3e-05,0.00022,0.00017,6e-05,2,26
7158,-2e-05,-1e-05,-0.00019,-0.00017,3e-05,0.00022,0.00017,6e-05,2,26
7159,-2e-05,-1e-05,-0.00019,-0.00017,3e-05,0.00022,0.00017,6e-05,2,26
7160,-2e-05,-1e-05,-0.00019,-0.00017,3e-05,0.00022,0.00017,6e-05,2,26
7161,-2e-05,-1e-05,-0.00019,-0.00017,3e-05,0.00022,0.00017,6e-05,2,26
7162,-2e-05,-1e-05,-0.00019,-0.00017,3e-05,0.00022,0.00017,6e-05,2,26
7163,-2e-05,-1e-05,-0.00019,-0.00017,3e-05,0.00022,0.00017,6e-05,2,26
7164,-2e-05,-1e-05,-0.00019,-0.00017,3e-05,0.00022,0.00017,6e-05,2,26
7165,-2e-05,-1e-05,-0.00019,-0.00017,3e-05,0.00022,0.00017,6e-05,2,26
7166,-2e-05,-1e-05,-0.00019,-0.00017,3e-05,0.00022,0.00017,6e-05,2,26
7167,-2e-05,-1e-05,-0.00019,-0.00017,3e-05,0.00022,0.00017,6e-05,2,26
7168,-2e-05,-1e-05,-0.00019,-0.00017,3e-05,0.00022,0.00017,6e-05,2,26
7169,-2e-05,-1e-05,-0.00019,-0.00017,3e-05,0.00022,0.00017,6e-05,2,26
7170,-2e-05,-1e-05,-0.00019,-0.00017,3e-05,0.00022,0.00017,6e-05,2,26
7171,0,-8e-05,6e-05,0.00017,0.00015,-0.0005,-0.00048,4e-05,2,26
7172,0,-3e-05,7e-05,0.00017,-5e-05,6e-05,1e-05,0.00018,2,26
7173,0,-3e-05,7e-05,0.00017,-5e-05,6e-05,1e-05,0.00018,2,26
7174,0,-3e-05,7e-05,0.00017,-5e-05,6e-05,1e-05,0.00018,2,26
7175,0,-3e-05,7e-05,0.00017,-5e-05,6e-05,1e-05,0.00018,2,26
7176,0,-3e-05,7e-05,0.00017,-5e-05,6e-05,1e-05,0.00018,2,26
7177,0,-3e-05,7e-05,0.00017,-5e-05,6e-05,1e-05,0.00018,2,26
7178,0,-3e-05,7e-05,0.00017,-5e-05,6e-05,1e-05,0.00018,2,26
7179,0,-3e-05,7e-05,0.00017,-5e-05,6e-05,1e-05,0.00018,2,26
7180,0,-3e-05,7e-05,0.00017,-5e-05,6e-05,1e-05,0.00018,2,26
7181,0,-3e-05,7e-05,0.00017,-5e-05,6e-05,1e-05,0.00018,2,26
7182,0,-3e-05,7e-05,0.00017,-5e-05,6e-05,1e-05,0.00018,2,26
7183,0,-3e-05,7e-05,0.00017,-5e-05,6e-05,1e-05,0.00018,2,26
7184,0,-3e-05,7e-05,0.00017,-5e-05,6e-05,1e-05,0.00018,2,26
7185,9e-05,9e-05,7e-05,0.00015,2e-05,0.00012,0.00012,-9e-05,2,26
7186,9e-05,9e-05,7e-05,0.00015,2e-05,0.00012,0.00012,-9e-05,2,26
7188,9e-05,9e-05,7e-05,0.00015,2e-05,0.00012,0.00012,-9e-05,2,26
7189,9e-05,9e-05,7e-05,0.00015,2e-05,0.00012,0.00012,-9e-05,2,26
7190,9e-05,9e-05,7e-05,0.00015,2e-05,0.00012,0.00012,-9e-05,2,26
7191,9e-05,9e-05,7e-05,0.00015,2e-05,0.00012,0.00012,-9e-05,2,26
7192,-0.00014,-0.00011,1e-05,0.00015,0.00032,0.00024,0.00036,1e-05,2,26
7193,-0.00014,-0.00011,1e-05,0.00015,0.00032,0.00024,0.00036,1e-05,2,26
7194,-0.00014,-0.00011,1e-05,0.00015,0.00032,0.00024,0.00036,1e-05,2,26
7195,-0.00014,-0.00011,1e-05,0.00015,0.00032,0.00024,0.00036,1e-05,2,26
7196,-0.00014,-0.00011,1e-05,0.00015,0.00032,0.00024,0.00036,1e-05,2,26
7197,-0.00014,-0.00011,1e-05,0.00015,0.00032,0.00024,0.00036,1e-05,2,26
7198,-0.00014,-0.00011,1e-05,0.00015,0.00032,0.00024,0.00036,1e-05,2,26
7199,-0.00014,-0.00011,1e-05,0.00015,0.00032,0.00024,0.00036,1e-05,2,26
7200,-0.00014,-0.00011,1e-05,0.00015,0.00032,0.00024,0.00036,1e-05,2,26
7201,-0.00014,-0.00011,1e-05,0.00015,0.00032,0.00024,0.00036,1e-05,2,26
7202,-0.00014,-0.00011,1e-05,0.00015,0.00032,0.00024,0.00036,1e-05,2,26
7203,-0.00014,-0.00011,1e-05,0.00015,0.00032,0.00024,0.00036,1e-05,2,26
7204,-0.00014,-0.00011,1e-05,0.00015,0.00032,0.00024,0.00036,1e-05,2,26
7205,-0.00014,-0.00011,1e-05,0.00015,0.00032,0.00024,0.00036,1e-05,2,26
7206,-0.00014,-0.00011,1e-05,0.00015,0.00032,0.00024,0.00036,1e-05,2,26
7207,-0.00014,-0.00011,1e-05,0.00015,0.00032,0.00024,0.00036,1e-05,2,26
7208,0.0001,0.00012,0.00024,0.00039,3e-05,-0.00015,-0.00012,-6e-05,2,26
7209,-9e-05,-9e-05,-0.00022,-0.00028,-2e-05,0.00011,0.00023,-6e-05,2,26
7210,-0.00012,-8e-05,-0.0002,-0.00015,-0.00013,-0.00034,-0.00048,-0.00021,2,26
7211,-0.00012,-8e-05,-0.0002,-0.00015,-0.00013,-0.00034,-0.00048,-0.00021,2,26
7212,-0.00012,-8e-05,-0.0002,-0.00015,-0.00013,-0.00034,-0.00048,-0.00021,2,26
7213,-0.00012,-8e-05,-0.0002,-0.00015,-0.00013,-0.00034,-0.00048,-0.00021,2,26
7214,-0.00012,-8e-05,-0.0002,-0.00015,-0.00013,-0.00034,-0.00048,-0.00021,2,26
7215,-0.00012,-8e-05,-0.0002,-0.00015,-0.00013,-0.00034,-0.00048,-0.00021,2,26
7216,-0.00012,-8e-05,-0.0002,-0.00015,-0.00013,-0.00034,-0.00048,-0.00021,2,26
7217,-0.00012,-8e-05,-0.0002,-0.00015,-0.00013,-0.00034,-0.00048,-0.00021,2,26
7218,-0.00012,-8e-05,-0.0002,-0.00015,-0.00013,-0.00034,-0.00048,-0.00021,2,26
7219,-0.00012,-8e-05,-0.0002,-0.00015,-0.00013,-0.00034,-0.00048,-0.00021,2,26
7220,-0.00012,-8e-05,-0.0002,-0.00015,-0.00013,-0.00034,-0.00048,-0.00021,2,26
7221,-0.00012,-8e-05,-0.0002,-0.00015,-0.00013,-0.00034,-0.00048,-0.00021,2,26
7222,-0.00012,-8e-05,-0.0002,-0.00015,-0.00013,-0.00034,-0.00048,-0.00021,2,26
7223,-0.00012,-8e-05,-0.0002,-0.00015,-0.00013,-0.00034,-0.00048,-0.00021,2,26
7224,-0.00012,-8e-05,-0.0002,-0.00015,-0.00013,-0.00034,-0.00048,-0.00021,2,26
7225,-0.00012,-8e-05,-0.0002,-0.00015,-0.00013,-0.00034,-0.00048,-0.00021,2,26
7226,-0.00012,-8e-05,-0.0002,-0.00015,-0.00013,-0.00034,-0.00048,-0.00021,2,26
7227,-0.00012,-8e-05,-0.0002,-0.00015,-0.00013,-0.00034,-0.00048,-0.00021,2,26
7228,-0.00012,-8e-05,-0.0002,-0.00015,-0.00013,-0.00034,-0.00048,-0.00021,2,26
7229,-0.00012,-8e-05,-0.0002,-0.00015,-0.00013,-0.00034,-0.00048,-0.00021,2,26
7230,-0.00012,-8e-05,-0.0002,-0.00015,-0.00013,-0.00034,-0.00048,-0.00021,2,26
7231,-9e-05,-2e-05,0.00019,0.00022,1e-05,-0.00055,-0.00034,-0.00024,2,26
7232,-0.00016,-6e-05,2e-05,-0.00016,-0.00012,-0.00015,-0.00024,-0.00013,2,26
7233,-0.00016,-6e-05,2e-05,-0.00016,-0.00012,-0.00015,-0.00024,-0.00013,2,26
7234,-0.00016,-6e-05,2e-05,-0.00016,-0.00012,-0.00015,-0.00024,-0.00013,2,26
7235,-0.00016,-6e-05,2e-05,-0.00016,-0.00012,-0.00015,-0.00024,-0.00013,2,26
7236,-0.00016,-6e-05,2e-05,-0.00016,-0.00012,-0.00015,-0.00024,-0.00013,2,26
7238,-0.00016,-6e-05,2e-05,-0.00016,-0.00012,-0.00015,-0.00024,-0.00013,2,26
7239,-0.00016,-6e-05,2e-05,-0.00016,-0.00012,-0.00015,-0.00024,-0.00013,2,26
7240,-0.00016,-6e-05,2e-05,-0.00016,-0.00012,-0.00015,-0.00024,-0.00013,2,26
7241,-0.00016,-6e-05,2e-05,-0.00016,-0.00012,-0.00015,-0.00024,-0.00013,2,26
7242,-0.00016,-6e-05,2e-05,-0.00016,-0.00012,-0.00015,-0.00024,-0.00013,2,26
7243,-0.00016,-6e-05,2e-05,-0.00016,-0.00012,-0.00015,-0.00024,-0.00013,2,26
7244,-0.00016,-6e-05,2e-05,-0.00016,-0.00012,-0.00015,-0.00024,-0.00013,2,26
7245,-0.0001,1e-05,0.00026,0.00046,-0.00029,0.0002,0.00047,-0.00013,2,26
7246,-0.0001,1e-05,0.00026,0.00046,-0.00029,0.0002,0.00047,-0.00013,2,26
7247,-0.0001,1e-05,0.00026,0.00046,-0.00029,0.0002,0.00047,-0.00013,2,26
7248,-0.0001,1e-05,0.00026,0.00046,-0.00029,0.0002,0.00047,-0.00013,2,26
7249,-0.0001,1e-05,0.00026,0.00046,-0.00029,0.0002,0.00047,-0.00013,2,26
7250,-0.0001,1e-05,0.00026,0.00046,-0.00029,0.0002,0.00047,-0.00013,2,26
7251,-0.0001,1e-05,0.00026,0.00046,-0.00029,0.0002,0.00047,-0.00013,2,26
7252,-0.0001,1e-05,0.00026,0.00046,-0.00029,0.0002,0.00047,-0.00013,2,26
7253,-4e-05,-3e-05,-0.00035,-0.00021,-8e-05,0.00024,0.00027,1e-05,2,26
7254,-4e-05,-3e-05,-0.00035,-0.00021,-8e-05,0.00024,0.00027,1e-05,2,26
7255,-4e-05,-3e-05,-0.00035,-0.00021,-8e-05,0.00024,0.00027,1e-05,2,26
7256,-4e-05,-3e-05,-0.00035,-0.00021,-8e-05,0.00024,0.00027,1e-05,2,26
7257,-4e-05,-3e-05,-0.00035,-0.00021,-8e-05,0.00024,0.00027,1e-05,2,26
7258,-4e-05,-3e-05,-0.00035,-0.00021,-8e-05,0.00024,0.00027,1e-05,2,26
7259,-4e-05,-3e-05,-0.00035,-0.00021,-8e-05,0.00024,0.00027,1e-05,2,26
7260,-4e-05,-3e-05,-0.00035,-0.00021,-8e-05,0.00024,0.00027,1e-05,2,26
7261,-4e-05,-3e-05,-0.00035,-0.00021,-8e-05,0.00024,0.00027,1e-05,2,26
7262,-4e-05,-3e-05,-0.00035,-0.00021,-8e-05,0.00024,0.00027,1e-05,2,26
7263,-4e-05,-3e-05,-0.00035,-0.00021,-8e-05,0.00024,0.00027,1e-05,2,26
7264,-4e-05,-3e-05,-0.00035,-0.00021,-8e-05,0.00024,0.00027,1e-05,2,26
7265,-4e-05,-3e-05,-0.00035,-0.00021,-8e-05,0.00024,0.00027,1e-05,2,26
7266,-4e-05,-3e-05,-0.00035,-0.00021,-8e-05,0.00024,0.00027,1e-05,2,26
7267,-4e-05,-3e-05,-0.00035,-0.00021,-8e-05,0.00024,0.00027,1e-05,2,26
7268,-3e-05,6e-05,3e-05,8e-05,6e-05,-1e-05,-0.00016,-5e-05,2,26
7269,-9e-05,-6e-05,0.00011,2e-05,-3e-05,-4e-05,0.00032,-3e-05,2,26
7270,-0.00017,2e-05,0.0001,0.00011,1e-05,-0.00017,-0.00017,-0.00018,2,26
7271,-0.00017,2e-05,0.0001,0.00011,1e-05,-0.00017,-0.00017,-0.00018,2,26
7272,-0.00017,2e-05,0.0001,0.00011,1e-05,-0.00017,-0.00017,-0.00018,2,26
7273,-0.00017,2e-05,0.0001,0.00011,1e-05,-0.00017,-0.00017,-0.00018,2,26
7274,-0.00017,2e-05,0.0001,0.00011,1e-05,-0.00017,-0.00017,-0.00018,2,26
7275,-0.00017,2e-05,0.0001,0.00011,1e-05,-0.00017,-0.00017,-0.00018,2,26
7276,-0.00017,2e-05,0.0001,0.00011,1e-05,-0.00017,-0.00017,-0.00018,2,26
7277,-0.00017,2e-05,0.0001,0.00011,1e-05,-0.00017,-0.00017,-0.00018,2,26
7278,-0.00017,2e-05,0.0001,0.00011,1e-05,-0.00017,-0.00017,-0.00018,2,26
7279,-0.00017,2e-05,0.0001,0.00011,1e-05,-0.00017,-0.00017,-0.00018,2,26
7280,-0.00017,2e-05,0.0001,0.00011,1e-05,-0.00017,-0.00017,-0.00018,2,26
7281,-0.00017,2e-05,0.0001,0.00011,1e-05,-0.00017,-0.00017,-0.00018,2,26
7282,-0.00017,2e-05,0.0001,0.00011,1e-05,-0.00017,-0.00017,-0.00018,2,26
7283,-0.00017,2e-05,0.0001,0.00011,1e-05,-0.00017,-0.00017,-0.00018,2,26
7284,-0.00017,2e-05,0.0001,0.00011,1e-05,-0.00017,-0.00017,-0.00018,2,26
7285,-0.00017,2e-05,0.0001,0.00011,1e-05,-0.00017,-0.00017,-0.00018,2,26
7286,-0.00017,2e-05,0.0001,0.00011,1e-05,-0.00017,-0.00017,-0.00018,2,26
7288,-0.00017,2e-05,0.0001,0.00011,1e-05,-0.00017,-0.00017,-0.00018,2,26
7289,-0.00017,2e-05,0.0001,0.00011,1e-05,-0.00017,-0.00017,-0.00018,2,26
7290,0.00014,6e-05,1e-05,7e-05,0.0002,0.00036,0.00043,0.0002,2,26
7291,-0.00015,-9e-05,5e-05,0.00022,-0.00024,-0.00026,-0.00026,-0.00023,2,26
7292,0.00014,-2e-05,-0.00026,-0.0006,0.00026,0.00017,1e-05,0.00011,2,26
7293,0.00014,-2e-05,-0.00026,-0.0006,0.00026,0.00017,1e-05,0.00011,2,26
7294,0.00014,-2e-05,-0.00026,-0.0006,0.00026,0.00017,1e-05,0.00011,2,26
7295,0.00014,-2e-05,-0.00026,-0.0006,0.00026,0.00017,1e-05,0.00011,2,26
7296,0.00014,-2e-05,-0.00026,-0.0006,0.00026,0.00017,1e-05,0.00011,2,26
7297,0.00014,-2e-05,-0.00026,-0.0006,0.00026,0.00017,1e-05,0.00011,2,26
7298,0.00014,-2e-05,-0.00026,-0.0006,0.00026,0.00017,1e-05,0.00011,2,26
7299,0.00014,-2e-05,-0.00026,-0.0006,0.00026,0.00017,1e-05,0.00011,2,26
7300,0.00014,-2e-05,-0.00026,-0.0006,0.00026,0.00017,1e-05,0.00011,2,26
7301,0.00014,-2e-05,-0.00026,-0.0006,0.00026,0.00017,1e-05,0.00011,2,26
7302,0.00014,-2e-05,-0.00026,-0.0006,0.00026,0.00017,1e-05,0.00011,2,26
7303,0.00014,-2e-05,-0.00026,-0.0006,0.00026,0.00017,1e-05,0.00011,2,26
7304,0.00014,-2e-05,-0.00026,-0.0006,0.00026,0.00017,1e-05,0.00011,2,26
7305,-3e-05,-0.00012,-0.00022,-0.00048,-0.00014,-0.00049,-0.00074,-8e-05,2,26
7306,-3e-05,-0.00012,-0.00022,-0.00048,-0.00014,-0.00049,-0.00074,-8e-05,2,26
7307,-3e-05,-0.00012,-0.00022,-0.00048,-0.00014,-0.00049,-0.00074,-8e-05,2,26
7308,-3e-05,-0.00012,-0.00022,-0.00048,-0.00014,-0.00049,-0.00074,-8e-05,2,26
7309,-3e-05,-0.00012,-0.00022,-0.00048,-0.00014,-0.00049,-0.00074,-8e-05,2,26
7310,-3e-05,-0.00012,-0.00022,-0.00048,-0.00014,-0.00049,-0.00074,-8e-05,2,26
7311,-3e-05,-0.00012,-0.00022,-0.00048,-0.00014,-0.00049,-0.00074,-8e-05,2,26
7312,8e-05,-3e-05,-9e-05,-3e-05,-9e-05,0.00026,-8e-05,-2e-05,2,26
7313,8e-05,-3e-05,-9e-05,-3e-05,-9e-05,0.00026,-8e-05,-2e-05,2,26
7314,8e-05,-3e-05,-9e-05,-3e-05,-9e-05,0.00026,-8e-05,-2e-05,2,26
7315,8e-05,-3e-05,-9e-05,-3e-05,-9e-05,0.00026,-8e-05,-2e-05,2,26
7316,8e-05,-3e-05,-9e-05,-3e-05,-9e-05,0.00026,-8e-05,-2e-05,2,26
7317,8e-05,-3e-05,-9e-05,-3e-05,-9e-05,0.00026,-8e-05,-2e-05,2,26
7318,8e-05,-3e-05,-9e-05,-3e-05,-9e-05,0.00026,-8e-05,-2e-05,2,26
7319,8e-05,-3e-05,-9e-05,-3e-05,-9e-05,0.00026,-8e-05,-2e-05,2,26
7320,8e-05,-3e-05,-9e-05,-3e-05,-9e-05,0.00026,-8e-05,-2e-05,2,26
7321,8e-05,-3e-05,-9e-05,-3e-05,-9e-05,0.00026,-8e-05,-2e-05,2,26
7322,8e-05,-3e-05,-9e-05,-3e-05,-9e-05,0.00026,-8e-05,-2e-05,2,26
7323,8e-05,-3e-05,-9e-05,-3e-05,-9e-05,0.00026,-8e-05,-2e-05,2,26
7324,8e-05,-3e-05,-9e-05,-3e-05,-9e-05,0.00026,-8e-05,-2e-05,2,26
7325,8e-05,-3e-05,-9e-05,-3e-05,-9e-05,0.00026,-8e-05,-2e-05,2,26
7326,8e-05,-3e-05,-9e-05,-3e-05,-9e-05,0.00026,-8e-05,-2e-05,2,26
7327,8e-05,-3e-05,-9e-05,-3e-05,-9e-05,0.00026,-8e-05,-2e-05,2,26
7328,-1e-05,-2e-05,5e-05,0.00047,-0.00021,-3e-05,-8e-05,0.00014,2,26
7329,-1e-05,-2e-05,5e-05,0.00047,-0.00021,-3e-05,-8e-05,0.00014,2,26
7330,0,2e-05,0.0001,0.00034,0.00028,-0.00012,2e-05,0.00017,2,26
7331,0,2e-05,0.0001,0.00034,0.00028,-0.00012,2e-05,0.00017,2,26
7332,0,2e-05,0.0001,0.00034,0.00028,-0.00012,2e-05,0.00017,2,26
7333,0,2e-05,0.0001,0.00034,0.00028,-0.00012,2e-05,0.00017,2,26
7334,0,2e-05,0.0001,0.00034,0.00028,-0.00012,2e-05,0.00017,2,26
7335,0,2e-05,0.0001,0.00034,0.00028,-0.00012,2e-05,0.00017,2,26
7336,0,2e-05,0.0001,0.00034,0.00028,-0.00012,2e-05,0.00017,2,26
7338,0,2e-05,0.0001,0.00034,0.00028,-0.00012,2e-05,0.00017,2,26
7339,0,2e-05,0.0001,0.00034,0.00028,-0.00012,2e-05,0.00017,2,26
7340,0,2e-05,0.0001,0.00034,0.00028,-0.00012,2e-05,0.00017,2,26
7341,0,2e-05,0.0001,0.00034,0.00028,-0.00012,2e-05,0.00017,2,26
7343,0,2e-05,0.0001,0.00034,0.00028,-0.00012,2e-05,0.00017,2,26
7344,0,2e-05,0.0001,0.00034,0.00028,-0.00012,2e-05,0.00017,2,26
7345,0,2e-05,0.0001,0.00034,0.00028,-0.00012,2e-05,0.00017,2,26
7346,0,2e-05,0.0001,0.00034,0.00028,-0.00012,2e-05,0.00017,2,26
7347,0,2e-05,0.0001,0.00034,0.00028,-0.00012,2e-05,0.00017,2,26
7348,0,2e-05,0.0001,0.00034,0.00028,-0.00012,2e-05,0.00017,2,26
7349,0,2e-05,0.0001,0.00034,0.00028,-0.00012,2e-05,0.00017,2,26
7350,0,2e-05,0.0001,0.00034,0.00028,-0.00012,2e-05,0.00017,2,26
7351,0.00023,0.00018,6e-05,-0.00039,-0.00015,-2e-05,-4e-05,0.00025,2,26
7352,-0.0002,4e-05,0.00018,0.0001,-0.00016,0.0001,-8e-05,-0.00016,2,26
7353,-0.0002,4e-05,0.00018,0.0001,-0.00016,0.0001,-8e-05,-0.00016,2,26
7354,-0.0002,4e-05,0.00018,0.0001,-0.00016,0.0001,-8e-05,-0.00016,2,26
7355,-0.0002,4e-05,0.00018,0.0001,-0.00016,0.0001,-8e-05,-0.00016,2,26
7356,-0.0002,4e-05,0.00018,0.0001,-0.00016,0.0001,-8e-05,-0.00016,2,26
7357,-0.0002,4e-05,0.00018,0.0001,-0.00016,0.0001,-8e-05,-0.00016,2,26
7358,-0.0002,4e-05,0.00018,0.0001,-0.00016,0.0001,-8e-05,-0.00016,2,26
7359,-0.0002,4e-05,0.00018,0.0001,-0.00016,0.0001,-8e-05,-0.00016,2,26
7360,-0.0002,4e-05,0.00018,0.0001,-0.00016,0.0001,-8e-05,-0.00016,2,26
7361,-0.0002,4e-05,0.00018,0.0001,-0.00016,0.0001,-8e-05,-0.00016,2,26
7362,-0.0002,4e-05,0.00018,0.0001,-0.00016,0.0001,-8e-05,-0.00016,2,26
7364,-0.0002,4e-05,0.00018,0.0001,-0.00016,0.0001,-8e-05,-0.00016,2,26
7365,-0.00012,0.0001,0.00018,0.00049,0.00028,-0.00018,4e-05,-0.00011,2,26
7366,-0.00012,0.0001,0.00018,0.00049,0.00028,-0.00018,4e-05,-0.00011,2,26
7367,-0.00012,0.0001,0.00018,0.00049,0.00028,-0.00018,4e-05,-0.00011,2,26
7368,-0.00012,0.0001,0.00018,0.00049,0.00028,-0.00018,4e-05,-0.00011,2,26
7369,-0.00012,0.0001,0.00018,0.00049,0.00028,-0.00018,4e-05,-0.00011,2,26
7370,-0.00012,0.0001,0.00018,0.00049,0.00028,-0.00018,4e-05,-0.00011,2,26
7371,0.00027,2e-05,8e-05,-3e-05,-0.00028,0.00022,0.00049,0.00018,2,26
7372,-9e-05,-0.00012,-0.0002,-5e-05,0.00016,-0.0003,-0.00059,-0.00033,2,26
7373,-9e-05,-0.00012,-0.0002,-5e-05,0.00016,-0.0003,-0.00059,-0.00033,2,26
7374,-9e-05,-0.00012,-0.0002,-5e-05,0.00016,-0.0003,-0.00059,-0.00033,2,26
7375,-9e-05,-0.00012,-0.0002,-5e-05,0.00016,-0.0003,-0.00059,-0.00033,2,26
7376,-9e-05,-0.00012,-0.0002,-5e-05,0.00016,-0.0003,-0.00059,-0.00033,2,26
7377,-9e-05,-0.00012,-0.0002,-5e-05,0.00016,-0.0003,-0.00059,-0.00033,2,26
7378,-9e-05,-0.00012,-0.0002,-5e-05,0.00016,-0.0003,-0.00059,-0.00033,2,26
7379,-9e-05,-0.00012,-0.0002,-5e-05,0.00016,-0.0003,-0.00059,-0.00033,2,26
7380,-9e-05,-0.00012,-0.0002,-5e-05,0.00016,-0.0003,-0.00059,-0.00033,2,26
7381,-9e-05,-0.00012,-0.0002,-5e-05,0.00016,-0.0003,-0.00059,-0.00033,2,26
7382,-9e-05,-0.00012,-0.0002,-5e-05,0.00016,-0.0003,-0.00059,-0.00033,2,26
7383,-9e-05,-0.00012,-0.0002,-5e-05,0.00016,-0.0003,-0.00059,-0.00033,2,26
7384,-9e-05,-0.00012,-0.0002,-5e-05,0.00016,-0.0003,-0.00059,-0.00033,2,26
7385,-9e-05,-0.00012,-0.0002,-5e-05,0.00016,-0.0003,-0.00059,-0.00033,2,26
7386,-9e-05,-0.00012,-0.0002,-5e-05,0.00016,-0.0003,-0.00059,-0.00033,2,26
7388,-4e-05,-5e-05,-3e-05,0.00018,-1e-05,7e-05,-5e-05,4e-05,2,26
7389,-0.00017,-5e-05,-0.00019,-0.0004,-8e-05,7e-05,0.00014,-8e-05,2,26
7390,-0.0001,-5e-05,-0.0001,-0.0001,-0.00014,-1e-05,6e-05,9e-05,2,26
7391,-0.0001,-5e-05,-0.0001,-0.0001,-0.00014,-1e-05,6e-05,9e-05,2,26
7392,-0.0001,-5e-05,-0.0001,-0.0001,-0.00014,-1e-05,6e-05,9e-05,2,26
7393,-0.0001,-5e-05,-0.0001,-0.0001,-0.00014,-1e-05,6e-05,9e-05,2,26
7394,-0.0001,-5e-05,-0.0001,-0.0001,-0.00014,-1e-05,6e-05,9e-05,2,26
7395,-0.0001,-5e-05,-0.0001,-0.0001,-0.00014,-1e-05,6e-05,9e-05,2,26
7396,-0.0001,-5e-05,-0.0001,-0.0001,-0.00014,-1e-05,6e-05,9e-05,2,26
7397,-0.0001,-5e-05,-0.0001,-0.0001,-0.00014,-1e-05,6e-05,9e-05,2,26
7398,-0.0001,-5e-05,-0.0001,-0.0001,-0.00014,-1e-05,6e-05,9e-05,2,26
7399,-0.0001,-5e-05,-0.0001,-0.0001,-0.00014,-1e-05,6e-05,9e-05,2,26
7400,-0.0001,-5e-05,-0.0001,-0.0001,-0.00014,-1e-05,6e-05,9e-05,2,26
7401,-0.0001,-5e-05,-0.0001,-0.0001,-0.00014,-1e-05,6e-05,9e-05,2,26
7402,-0.0001,-5e-05,-0.0001,-0.0001,-0.00014,-1e-05,6e-05,9e-05,2,26
7403,-0.0001,-5e-05,-0.0001,-0.0001,-0.00014,-1e-05,6e-05,9e-05,2,26
7404,-0.0001,-5e-05,-0.0001,-0.0001,-0.00014,-1e-05,6e-05,9e-05,2,26
7405,-0.0001,-5e-05,-0.0001,-0.0001,-0.00014,-1e-05,6e-05,9e-05,2,26
7406,-0.0001,-5e-05,-0.0001,-0.0001,-0.00014,-1e-05,6e-05,9e-05,2,26
7407,-0.0001,-5e-05,-0.0001,-0.0001,-0.00014,-1e-05,6e-05,9e-05,2,26
7408,-0.0001,-5e-05,-0.0001,-0.0001,-0.00014,-1e-05,6e-05,9e-05,2,26
7409,-0.0001,-5e-05,-0.0001,-0.0001,-0.00014,-1e-05,6e-05,9e-05,2,26
7410,-0.0001,-5e-05,-0.0001,-0.0001,-0.00014,-1e-05,6e-05,9e-05,2,26
7411,0.00029,7e-05,2e-05,1e-05,0.00026,0.00027,0.00061,0.00022,2,26
7412,-1e-05,9e-05,0.00022,0.00054,0.00016,4e-05,-2e-05,3e-05,2,26
7413,-1e-05,9e-05,0.00022,0.00054,0.00016,4e-05,-2e-05,3e-05,2,26
7414,-1e-05,9e-05,0.00022,0.00054,0.00016,4e-05,-2e-05,3e-05,2,26
7415,-1e-05,9e-05,0.00022,0.00054,0.00016,4e-05,-2e-05,3e-05,2,26
7416,-1e-05,9e-05,0.00022,0.00054,0.00016,4e-05,-2e-05,3e-05,2,26
7417,-1e-05,9e-05,0.00022,0.00054,0.00016,4e-05,-2e-05,3e-05,2,26
7418,-1e-05,9e-05,0.00022,0.00054,0.00016,4e-05,-2e-05,3e-05,2,26
7419,-1e-05,9e-05,0.00022,0.00054,0.00016,4e-05,-2e-05,3e-05,2,26
7420,-1e-05,9e-05,0.00022,0.00054,0.00016,4e-05,-2e-05,3e-05,2,26
7421,-1e-05,9e-05,0.00022,0.00054,0.00016,4e-05,-2e-05,3e-05,2,26
7423,-1e-05,9e-05,0.00022,0.00054,0.00016,4e-05,-2e-05,3e-05,2,26
7424,-1e-05,9e-05,0.00022,0.00054,0.00016,4e-05,-2e-05,3e-05,2,26
7425,0.00026,0.00013,-0.00013,-0.00029,8e-05,0.00027,0.00027,0.00012,2,26
7426,0.00026,0.00013,-0.00013,-0.00029,8e-05,0.00027,0.00027,0.00012,2,26
7427,0.00026,0.00013,-0.00013,-0.00029,8e-05,0.00027,0.00027,0.00012,2,26
7428,0.00026,0.00013,-0.00013,-0.00029,8e-05,0.00027,0.00027,0.00012,2,26
7429,0.00026,0.00013,-0.00013,-0.00029,8e-05,0.00027,0.00027,0.00012,2,26
7430,0.00026,0.00013,-0.00013,-0.00029,8e-05,0.00027,0.00027,0.00012,2,26
7431,0.00026,0.00013,-0.00013,-0.00029,8e-05,0.00027,0.00027,0.00012,2,26
7432,0,-2e-05,-4e-05,-0.00021,-0.00015,-0.0001,0.00034,8e-05,2,26
7433,0,-2e-05,-4e-05,-0.00021,-0.00015,-0.0001,0.00034,8e-05,2,26
7434,0,-2e-05,-4e-05,-0.00021,-0.00015,-0.0001,0.00034,8e-05,2,26
7435,0,-2e-05,-4e-05,-0.00021,-0.00015,-0.0001,0.00034,8e-05,2,26
7436,0,-2e-05,-4e-05,-0.00021,-0.00015,-0.0001,0.00034,8e-05,2,26
7438,0,-2e-05,-4e-05,-0.00021,-0.00015,-0.0001,0.00034,8e-05,2,26
7439,0,-2e-05,-4e-05,-0.00021,-0.00015,-0.0001,0.00034,8e-05,2,26
7440,0,-2e-05,-4e-05,-0.00021,-0.00015,-0.0001,0.00034,8e-05,2,26
7441,0,-2e-05,-4e-05,-0.00021,-0.00015,-0.0001,0.00034,8e-05,2,26
7442,0,-2e-05,-4e-05,-0.00021,-0.00015,-0.0001,0.00034,8e-05,2,26
7443,0,-2e-05,-4e-05,-0.00021,-0.00015,-0.0001,0.00034,8e-05,2,26
7444,0,-2e-05,-4e-05,-0.00021,-0.00015,-0.0001,0.00034,8e-05,2,26
7445,0,-2e-05,-4e-05,-0.00021,-0.00015,-0.0001,0.00034,8e-05,2,26
7446,0,-2e-05,-4e-05,-0.00021,-0.00015,-0.0001,0.00034,8e-05,2,26
7447,0,-2e-05,-4e-05,-0.00021,-0.00015,-0.0001,0.00034,8e-05,2,26
7448,0.00019,1e-05,-4e-05,9e-05,1e-05,-0.0003,-0.00025,0.00025,2,26
7449,0.00019,1e-05,-4e-05,9e-05,1e-05,-0.0003,-0.00025,0.00025,2,26
7450,-0.00023,-4e-05,-3e-05,-0.00029,-0.00011,-0.00019,-0.00026,-0.00023,2,26
7451,0.00015,2e-05,0.00017,0.00029,-4e-05,-0.00016,-0.00013,-0.0001,2,26
7452,0.00015,2e-05,0.00017,0.00029,-4e-05,-0.00016,-0.00013,-0.0001,2,26
7453,0.00015,2e-05,0.00017,0.00029,-4e-05,-0.00016,-0.00013,-0.0001,2,26
7454,0.00015,2e-05,0.00017,0.00029,-4e-05,-0.00016,-0.00013,-0.0001,2,26
7455,0.00015,2e-05,0.00017,0.00029,-4e-05,-0.00016,-0.00013,-0.0001,2,26
7456,0.00015,2e-05,0.00017,0.00029,-4e-05,-0.00016,-0.00013,-0.0001,2,26
7457,0.00015,2e-05,0.00017,0.00029,-4e-05,-0.00016,-0.00013,-0.0001,2,26
7458,0.00015,2e-05,0.00017,0.00029,-4e-05,-0.00016,-0.00013,-0.0001,2,26
7459,0.00015,2e-05,0.00017,0.00029,-4e-05,-0.00016,-0.00013,-0.0001,2,26
7460,0.00015,2e-05,0.00017,0.00029,-4e-05,-0.00016,-0.00013,-0.0001,2,26
7461,0.00015,2e-05,0.00017,0.00029,-4e-05,-0.00016,-0.00013,-0.0001,2,26
7462,0.00015,2e-05,0.00017,0.00029,-4e-05,-0.00016,-0.00013,-0.0001,2,26
7463,0.00015,2e-05,0.00017,0.00029,-4e-05,-0.00016,-0.00013,-0.0001,2,26
7464,0.00015,2e-05,0.00017,0.00029,-4e-05,-0.00016,-0.00013,-0.0001,2,26
7465,0.00015,2e-05,0.00017,0.00029,-4e-05,-0.00016,-0.00013,-0.0001,2,26
7466,0.00015,2e-05,0.00017,0.00029,-4e-05,-0.00016,-0.00013,-0.0001,2,26
7467,0.00015,2e-05,0.00017,0.00029,-4e-05,-0.00016,-0.00013,-0.0001,2,26
7468,0.00015,2e-05,0.00017,0.00029,-4e-05,-0.00016,-0.00013,-0.0001,2,26
7469,0.00015,2e-05,0.00017,0.00029,-4e-05,-0.00016,-0.00013,-0.0001,2,26
7470,0.00015,2e-05,0.00017,0.00029,-4e-05,-0.00016,-0.00013,-0.0001,2,26
7471,-0.00037,-0.00023,-0.00024,2e-05,-0.00024,-0.00016,-0.00027,-0.00013,2,26
7472,-0.0002,0,0.0001,5e-05,-0.00015,0.00032,0.00019,-0.00017,2,26
7473,-0.0002,0,0.0001,5e-05,-0.00015,0.00032,0.00019,-0.00017,2,26
7474,-0.0002,0,0.0001,5e-05,-0.00015,0.00032,0.00019,-0.00017,2,26
7475,-0.0002,0,0.0001,5e-05,-0.00015,0.00032,0.00019,-0.00017,2,26
7476,-0.0002,0,0.0001,5e-05,-0.00015,0.00032,0.00019,-0.00017,2,26
7477,-0.0002,0,0.0001,5e-05,-0.00015,0.00032,0.00019,-0.00017,2,26
7478,-0.0002,0,0.0001,5e-05,-0.00015,0.00032,0.00019,-0.00017,2,26
7479,-0.0002,0,0.0001,5e-05,-0.00015,0.00032,0.00019,-0.00017,2,26
7480,-0.0002,0,0.0001,5e-05,-0.00015,0.00032,0.00019,-0.00017,2,26
7481,-0.0002,0,0.0001,5e-05,-0.00015,0.00032,0.00019,-0.00017,2,26
7482,-0.0002,0,0.0001,5e-05,-0.00015,0.00032,0.00019,-0.00017,2,26
7483,-0.0002,0,0.0001,5e-05,-0.00015,0.00032,0.00019,-0.00017,2,26
7484,-8e-05,-0.00015,-0.00014,0.00011,-6e-05,-0.00018,-0.00046,-5e-05,2,26
7485,-8e-05,-0.00015,-0.00014,0.00011,-6e-05,-0.00018,-0.00046,-5e-05,2,26
7486,-8e-05,-0.00015,-0.00014,0.00011,-6e-05,-0.00018,-0.00046,-5e-05,2,26
7488,-8e-05,-0.00015,-0.00014,0.00011,-6e-05,-0.00018,-0.00046,-5e-05,2,26
7489,-8e-05,-0.00015,-0.00014,0.00011,-6e-05,-0.00018,-0.00046,-5e-05,2,26
7490,-8e-05,-0.00015,-0.00014,0.00011,-6e-05,-0.00018,-0.00046,-5e-05,2,26
7491,-8e-05,-0.00015,-0.00014,0.00011,-6e-05,-0.00018,-0.00046,-5e-05,2,26
7492,-8e-05,-0.00015,-0.00014,0.00011,-6e-05,-0.00018,-0.00046,-5e-05,2,26
7493,0,2e-05,0.00011,9e-05,0.00015,-0.0001,-0.0005,-7e-05,2,26
7494,0,2e-05,0.00011,9e-05,0.00015,-0.0001,-0.0005,-7e-05,2,26
7495,0,2e-05,0.00011,9e-05,0.00015,-0.0001,-0.0005,-7e-05,2,26
7496,0,2e-05,0.00011,9e-05,0.00015,-0.0001,-0.0005,-7e-05,2,26
7497,0,2e-05,0.00011,9e-05,0.00015,-0.0001,-0.0005,-7e-05,2,26
7498,0,2e-05,0.00011,9e-05,0.00015,-0.0001,-0.0005,-7e-05,2,26
7499,0,2e-05,0.00011,9e-05,0.00015,-0.0001,-0.0005,-7e-05,2,26
7500,0,2e-05,0.00011,9e-05,0.00015,-0.0001,-0.0005,-7e-05,2,26
7501,0,2e-05,0.00011,9e-05,0.00015,-0.0001,-0.0005,-7e-05,2,26
7503,0,2e-05,0.00011,9e-05,0.00015,-0.0001,-0.0005,-7e-05,2,26
7504,0,2e-05,0.00011,9e-05,0.00015,-0.0001,-0.0005,-7e-05,2,26
7505,0,2e-05,0.00011,9e-05,0.00015,-0.0001,-0.0005,-7e-05,2,26
7506,0,2e-05,0.00011,9e-05,0.00015,-0.0001,-0.0005,-7e-05,2,26
7507,0,2e-05,0.00011,9e-05,0.00015,-0.0001,-0.0005,-7e-05,2,26
7508,-0.00011,-4e-05,-6e-05,0,1e-05,4e-05,-0.00018,-0.00029,2,26
7509,-0.00011,-4e-05,-6e-05,0,1e-05,4e-05,-0.00018,-0.00029,2,26
7510,0.00015,0.00012,0.00014,9e-05,-0.00036,-0.00023,3e-05,0.00012,2,26
7511,0.00015,0.00012,0.00014,9e-05,-0.00036,-0.00023,3e-05,0.00012,2,26
7512,0.00015,0.00012,0.00014,9e-05,-0.00036,-0.00023,3e-05,0.00012,2,26
7513,0.00015,0.00012,0.00014,9e-05,-0.00036,-0.00023,3e-05,0.00012,2,26
7514,0.00015,0.00012,0.00014,9e-05,-0.00036,-0.00023,3e-05,0.00012,2,26
7515,0.00015,0.00012,0.00014,9e-05,-0.00036,-0.00023,3e-05,0.00012,2,26
7516,0.00015,0.00012,0.00014,9e-05,-0.00036,-0.00023,3e-05,0.00012,2,26
7517,0.00015,0.00012,0.00014,9e-05,-0.00036,-0.00023,3e-05,0.00012,2,26
7518,0.00015,0.00012,0.00014,9e-05,-0.00036,-0.00023,3e-05,0.00012,2,26
7519,0.00015,0.00012,0.00014,9e-05,-0.00036,-0.00023,3e-05,0.00012,2,26
7520,0.00015,0.00012,0.00014,9e-05,-0.00036,-0.00023,3e-05,0.00012,2,26
7521,0.00015,0.00012,0.00014,9e-05,-0.00036,-0.00023,3e-05,0.00012,2,26
7522,0.00015,0.00012,0.00014,9e-05,-0.00036,-0.00023,3e-05,0.00012,2,26
7523,0.00015,0.00012,0.00014,9e-05,-0.00036,-0.00023,3e-05,0.00012,2,26
7524,0.00015,0.00012,0.00014,9e-05,-0.00036,-0.00023,3e-05,0.00012,2,26
7525,0.00015,0.00012,0.00014,9e-05,-0.00036,-0.00023,3e-05,0.00012,2,26
7526,0.00015,0.00012,0.00014,9e-05,-0.00036,-0.00023,3e-05,0.00012,2,26
7527,0.00015,0.00012,0.00014,9e-05,-0.00036,-0.00023,3e-05,0.00012,2,26
7528,0.00015,0.00012,0.00014,9e-05,-0.00036,-0.00023,3e-05,0.00012,2,26
7529,0.00015,0.00012,0.00014,9e-05,-0.00036,-0.00023,3e-05,0.00012,2,26
7530,0.00017,1e-05,2e-05,-0.00031,7e-05,-1e-05,-0.00023,3e-05,2,26
7531,-0.00031,-0.0001,-0.00026,6e-05,0.00036,0.00024,0.00051,-0.0001,2,26
7532,0.00018,0,0,7e-05,-4e-05,-6e-05,0.00029,0.00021,2,26
7533,0.00018,0,0,7e-05,-4e-05,-6e-05,0.00029,0.00021,2,26
7534,0.00018,0,0,7e-05,-4e-05,-6e-05,0.00029,0.00021,2,26
7535,0.00018,0,0,7e-05,-4e-05,-6e-05,0.00029,0.00021,2,26
7536,0.00018,0,0,7e-05,-4e-05,-6e-05,0.00029,0.00021,2,26
7538,0.00018,0,0,7e-05,-4e-05,-6e-05,0.00029,0.00021,2,26
7539,0.00018,0,0,7e-05,-4e-05,-6e-05,0.00029,0.00021,2,26
7540,0.00018,0,0,7e-05,-4e-05,-6e-05,0.00029,0.00021,2,26
7541,0.00018,0,0,7e-05,-4e-05,-6e-05,0.00029,0.00021,2,26
7542,0.00018,0,0,7e-05,-4e-05,-6e-05,0.00029,0.00021,2,26
7543,0.00018,0,0,7e-05,-4e-05,-6e-05,0.00029,0.00021,2,26
7544,5e-05,0.00013,-7e-05,-0.00046,-0.00033,0,1e-05,1e-05,2,26
7545,5e-05,0.00013,-7e-05,-0.00046,-0.00033,0,1e-05,1e-05,2,26
7546,5e-05,0.00013,-7e-05,-0.00046,-0.00033,0,1e-05,1e-05,2,26
7547,5e-05,0.00013,-7e-05,-0.00046,-0.00033,0,1e-05,1e-05,2,26
7548,5e-05,0.00013,-7e-05,-0.00046,-0.00033,0,1e-05,1e-05,2,26
7549,5e-05,0.00013,-7e-05,-0.00046,-0.00033,0,1e-05,1e-05,2,26
7550,5e-05,0.00013,-7e-05,-0.00046,-0.00033,0,1e-05,1e-05,2,26
7551,5e-05,0.00013,-7e-05,-0.00046,-0.00033,0,1e-05,1e-05,2,26
7552,5e-05,0.00013,-7e-05,-0.00046,-0.00033,0,1e-05,1e-05,2,26
7553,-4e-05,-0.00013,-0.00013,-0.00022,2e-05,1e-05,-0.00012,0.00012,2,26
7554,-4e-05,-0.00013,-0.00013,-0.00022,2e-05,1e-05,-0.00012,0.00012,2,26
7555,-4e-05,-0.00013,-0.00013,-0.00022,2e-05,1e-05,-0.00012,0.00012,2,26
7556,-4e-05,-0.00013,-0.00013,-0.00022,2e-05,1e-05,-0.00012,0.00012,2,26
7557,-4e-05,-0.00013,-0.00013,-0.00022,2e-05,1e-05,-0.00012,0.00012,2,26
37041,-0.00027,-0.0002,-0.00019,-0.00033,-0.00031,-3e-05,0.00036,-0.00014,2,26
37042,-0.00027,-0.0002,-0.00019,-0.00033,-0.00031,-3e-05,0.00036,-0.00014,2,26
37043,-0.00027,-0.0002,-0.00019,-0.00033,-0.00031,-3e-05,0.00036,-0.00014,2,26
37044,-0.00027,-0.0002,-0.00019,-0.00033,-0.00031,-3e-05,0.00036,-0.00014,2,26
37045,-0.00027,-0.0002,-0.00019,-0.00033,-0.00031,-3e-05,0.00036,-0.00014,2,26
37046,-0.00027,-0.0002,-0.00019,-0.00033,-0.00031,-3e-05,0.00036,-0.00014,2,26
37047,-0.00027,-0.0002,-0.00019,-0.00033,-0.00031,-3e-05,0.00036,-0.00014,2,26
37048,-0.00027,-0.0002,-0.00019,-0.00033,-0.00031,-3e-05,0.00036,-0.00014,2,26
37049,-0.00027,-0.0002,-0.00019,-0.00033,-0.00031,-3e-05,0.00036,-0.00014,2,26
37050,-0.00027,-0.0002,-0.00019,-0.00033,-0.00031,-3e-05,0.00036,-0.00014,2,26
37051,-0.0003,4e-05,0.00036,0.00046,-0.00017,0.00037,-7e-05,-0.00029,2,26
37052,-0.0003,4e-05,0.00036,0.00046,-0.00017,0.00037,-7e-05,-0.00029,2,26
37053,-0.0003,4e-05,0.00036,0.00046,-0.00017,0.00037,-7e-05,-0.00029,2,26
37054,-0.0003,4e-05,0.00036,0.00046,-0.00017,0.00037,-7e-05,-0.00029,2,26
37055,-0.0003,4e-05,0.00036,0.00046,-0.00017,0.00037,-7e-05,-0.00029,2,26
37056,-0.0003,4e-05,0.00036,0.00046,-0.00017,0.00037,-7e-05,-0.00029,2,26
37057,-0.0003,4e-05,0.00036,0.00046,-0.00017,0.00037,-7e-05,-0.00029,2,26
37058,-0.0003,4e-05,0.00036,0.00046,-0.00017,0.00037,-7e-05,-0.00029,2,26
37059,-0.0003,4e-05,0.00036,0.00046,-0.00017,0.00037,-7e-05,-0.00029,2,26
37060,-0.0003,4e-05,0.00036,0.00046,-0.00017,0.00037,-7e-05,-0.00029,2,26
37061,-0.0003,4e-05,0.00036,0.00046,-0.00017,0.00037,-7e-05,-0.00029,2,26
37062,-0.0003,4e-05,0.00036,0.00046,-0.00017,0.00037,-7e-05,-0.00029,2,26
37063,-0.0003,4e-05,0.00036,0.00046,-0.00017,0.00037,-7e-05,-0.00029,2,26
37064,-0.0003,4e-05,0.00036,0.00046,-0.00017,0.00037,-7e-05,-0.00029,2,26
37065,-0.0003,4e-05,0.00036,0.00046,-0.00017,0.00037,-7e-05,-0.00029,2,26
37066,0.00027,-0.00015,-0.0001,-0.00069,-0.00026,-0.00051,-0.00088,0.00013,2,26
37067,0.00043,8e-05,-6e-05,5e-05,0.00046,0.00027,-0.00026,7e-05,2,26
37068,0.00043,8e-05,-6e-05,5e-05,0.00046,0.00027,-0.00026,7e-05,2,26
37069,0.00043,8e-05,-6e-05,5e-05,0.00046,0.00027,-0.00026,7e-05,2,26
37070,0.00043,8e-05,-6e-05,5e-05,0.00046,0.00027,-0.00026,7e-05,2,26
37071,0.00043,8e-05,-6e-05,5e-05,0.00046,0.00027,-0.00026,7e-05,2,26
37072,0.00043,8e-05,-6e-05,5e-05,0.00046,0.00027,-0.00026,7e-05,2,26
37073,0.00043,8e-05,-6e-05,5e-05,0.00046,0.00027,-0.00026,7e-05,2,26
37074,0.00043,8e-05,-6e-05,5e-05,0.00046,0.00027,-0.00026,7e-05,2,26
37075,0.00043,8e-05,-6e-05,5e-05,0.00046,0.00027,-0.00026,7e-05,2,26
37076,0.00043,8e-05,-6e-05,5e-05,0.00046,0.00027,-0.00026,7e-05,2,26
37077,0.00043,8e-05,-6e-05,5e-05,0.00046,0.00027,-0.00026,7e-05,2,26
37078,0.00043,8e-05,-6e-05,5e-05,0.00046,0.00027,-0.00026,7e-05,2,26
37079,0.00043,8e-05,-6e-05,5e-05,0.00046,0.00027,-0.00026,7e-05,2,26
37080,0.00043,8e-05,-6e-05,5e-05,0.00046,0.00027,-0.00026,7e-05,2,26
37081,0.00043,8e-05,-6e-05,5e-05,0.00046,0.00027,-0.00026,7e-05,2,26
37083,0.00043,8e-05,-6e-05,5e-05,0.00046,0.00027,-0.00026,7e-05,2,26
37084,0.00043,8e-05,-6e-05,5e-05,0.00046,0.00027,-0.00026,7e-05,2,26
37085,0.00043,8e-05,-6e-05,5e-05,0.00046,0.00027,-0.00026,7e-05,2,26
37086,0.00043,8e-05,-6e-05,5e-05,0.00046,0.00027,-0.00026,7e-05,2,26
37089,0.00036,1e-05,-0.0003,-0.00015,-0.00014,-0.00033,-0.00063,0.00022,2,26
37090,0.00036,1e-05,-0.0003,-0.00015,-0.00014,-0.00033,-0.00063,0.00022,2,26
37091,0.00036,1e-05,-0.0003,-0.00015,-0.00014,-0.00033,-0.00063,0.00022,2,26
37092,0.00036,1e-05,-0.0003,-0.00015,-0.00014,-0.00033,-0.00063,0.00022,2,26
37093,0.00036,1e-05,-0.0003,-0.00015,-0.00014,-0.00033,-0.00063,0.00022,2,26
37094,0.00036,1e-05,-0.0003,-0.00015,-0.00014,-0.00033,-0.00063,0.00022,2,26
37095,0.00036,1e-05,-0.0003,-0.00015,-0.00014,-0.00033,-0.00063,0.00022,2,26
37096,0.00036,1e-05,-0.0003,-0.00015,-0.00014,-0.00033,-0.00063,0.00022,2,26
37097,0.00036,1e-05,-0.0003,-0.00015,-0.00014,-0.00033,-0.00063,0.00022,2,26
37098,0.00036,1e-05,-0.0003,-0.00015,-0.00014,-0.00033,-0.00063,0.00022,2,26
37099,0.00036,1e-05,-0.0003,-0.00015,-0.00014,-0.00033,-0.00063,0.00022,2,26
37100,0.00036,1e-05,-0.0003,-0.00015,-0.00014,-0.00033,-0.00063,0.00022,2,26
37101,0.00036,1e-05,-0.0003,-0.00015,-0.00014,-0.00033,-0.00063,0.00022,2,26
37103,0.00036,1e-05,-0.0003,-0.00015,-0.00014,-0.00033,-0.00063,0.00022,2,26
37104,0.00036,1e-05,-0.0003,-0.00015,-0.00014,-0.00033,-0.00063,0.00022,2,26
37105,0.00036,1e-05,-0.0003,-0.00015,-0.00014,-0.00033,-0.00063,0.00022,2,26
37106,0.00036,1e-05,-0.0003,-0.00015,-0.00014,-0.00033,-0.00063,0.00022,2,26
37107,0.00036,1e-05,-0.0003,-0.00015,-0.00014,-0.00033,-0.00063,0.00022,2,26
37108,0.00036,1e-05,-0.0003,-0.00015,-0.00014,-0.00033,-0.00063,0.00022,2,26
37109,0.00036,1e-05,-0.0003,-0.00015,-0.00014,-0.00033,-0.00063,0.00022,2,26
37110,0.00036,1e-05,-0.0003,-0.00015,-0.00014,-0.00033,-0.00063,0.00022,2,26
37111,-0.00071,-0.00045,-0.00055,-0.00069,-0.00075,-0.00108,-0.00063,-0.00063,2,26
37112,-0.00034,-0.0001,0.00032,5e-05,0.00054,-0.00026,-0.00017,-7e-05,2,26
37113,-0.00034,-0.0001,0.00032,5e-05,0.00054,-0.00026,-0.00017,-7e-05,2,26
37114,-0.00034,-0.0001,0.00032,5e-05,0.00054,-0.00026,-0.00017,-7e-05,2,26
37115,-0.00034,-0.0001,0.00032,5e-05,0.00054,-0.00026,-0.00017,-7e-05,2,26
37116,-0.00034,-0.0001,0.00032,5e-05,0.00054,-0.00026,-0.00017,-7e-05,2,26
37117,-0.00034,-0.0001,0.00032,5e-05,0.00054,-0.00026,-0.00017,-7e-05,2,26
37118,-0.00034,-0.0001,0.00032,5e-05,0.00054,-0.00026,-0.00017,-7e-05,2,26
37119,-0.00034,-0.0001,0.00032,5e-05,0.00054,-0.00026,-0.00017,-7e-05,2,26
37120,-0.00034,-0.0001,0.00032,5e-05,0.00054,-0.00026,-0.00017,-7e-05,2,26
37121,-0.00034,-0.0001,0.00032,5e-05,0.00054,-0.00026,-0.00017,-7e-05,2,26
37123,-0.00034,-0.0001,0.00032,5e-05,0.00054,-0.00026,-0.00017,-7e-05,2,26
37124,-0.00034,-0.0001,0.00032,5e-05,0.00054,-0.00026,-0.00017,-7e-05,2,26
37125,-0.00034,-0.0001,0.00032,5e-05,0.00054,-0.00026,-0.00017,-7e-05,2,26
37126,0.0005,0.00013,-4e-05,0.00014,0.00033,-3e-05,0.00024,9e-05,2,26
37127,0.0005,0.00013,-4e-05,0.00014,0.00033,-3e-05,0.00024,9e-05,2,26
37128,0.0005,0.00013,-4e-05,0.00014,0.00033,-3e-05,0.00024,9e-05,2,26
37129,0.0005,0.00013,-4e-05,0.00014,0.00033,-3e-05,0.00024,9e-05,2,26
37130,0.0005,0.00013,-4e-05,0.00014,0.00033,-3e-05,0.00024,9e-05,2,26
37131,0.0005,0.00013,-4e-05,0.00014,0.00033,-3e-05,0.00024,9e-05,2,26
37132,0.0005,0.00013,-4e-05,0.00014,0.00033,-3e-05,0.00024,9e-05,2,26
37133,0.0005,0.00013,-4e-05,0.00014,0.00033,-3e-05,0.00024,9e-05,2,26
37134,0.0005,0.00013,-4e-05,0.00014,0.00033,-3e-05,0.00024,9e-05,2,26
37135,0.0005,0.00013,-4e-05,0.00014,0.00033,-3e-05,0.00024,9e-05,2,26
37137,0.0005,0.00013,-4e-05,0.00014,0.00033,-3e-05,0.00024,9e-05,2,26
37139,0.0005,0.00013,-4e-05,0.00014,0.00033,-3e-05,0.00024,9e-05,2,26
37140,0.0005,0.00013,-4e-05,0.00014,0.00033,-3e-05,0.00024,9e-05,2,26
37141,0.0005,0.00013,-4e-05,0.00014,0.00033,-3e-05,0.00024,9e-05,2,26
37142,0.0005,0.00013,-4e-05,0.00014,0.00033,-3e-05,0.00024,9e-05,2,26
37143,0.0005,0.00013,-4e-05,0.00014,0.00033,-3e-05,0.00024,9e-05,2,26
37144,0.0005,0.00013,-4e-05,0.00014,0.00033,-3e-05,0.00024,9e-05,2,26
37145,0.0005,0.00013,-4e-05,0.00014,0.00033,-3e-05,0.00024,9e-05,2,26
37146,0.0005,0.00013,-4e-05,0.00014,0.00033,-3e-05,0.00024,9e-05,2,26
37147,0.0005,0.00013,-4e-05,0.00014,0.00033,-3e-05,0.00024,9e-05,2,26
37148,0.00014,-0.0001,-0.00031,-0.00013,0.00048,0.00013,0.00022,0.00021,2,26
37149,0.00021,0.00016,-0.00044,-7e-05,0.00058,0.00087,0.00072,0.00027,2,26
37150,0.00021,0.00016,-0.00044,-7e-05,0.00058,0.00087,0.00072,0.00027,2,26
37151,0.00021,0.00016,-0.00044,-7e-05,0.00058,0.00087,0.00072,0.00027,2,26
37152,0.00021,0.00016,-0.00044,-7e-05,0.00058,0.00087,0.00072,0.00027,2,26
37153,0.00021,0.00016,-0.00044,-7e-05,0.00058,0.00087,0.00072,0.00027,2,26
37154,0.00021,0.00016,-0.00044,-7e-05,0.00058,0.00087,0.00072,0.00027,2,26
37155,0.00021,0.00016,-0.00044,-7e-05,0.00058,0.00087,0.00072,0.00027,2,26
37156,0.00021,0.00016,-0.00044,-7e-05,0.00058,0.00087,0.00072,0.00027,2,26
37157,0.00021,0.00016,-0.00044,-7e-05,0.00058,0.00087,0.00072,0.00027,2,26
37158,0.00021,0.00016,-0.00044,-7e-05,0.00058,0.00087,0.00072,0.00027,2,26
37159,0.00021,0.00016,-0.00044,-7e-05,0.00058,0.00087,0.00072,0.00027,2,26
37160,0.00021,0.00016,-0.00044,-7e-05,0.00058,0.00087,0.00072,0.00027,2,26
37161,0.00021,0.00016,-0.00044,-7e-05,0.00058,0.00087,0.00072,0.00027,2,26
37162,-3e-05,0,0.00019,0.00032,7e-05,0.00024,-0.0001,0.00014,2,26
37163,0.00025,-9e-05,-0.00024,-0.00021,-0.00052,-0.00068,0,0.00013,2,26
37164,0.00025,-9e-05,-0.00024,-0.00021,-0.00052,-0.00068,0,0.00013,2,26
37165,0.00025,-9e-05,-0.00024,-0.00021,-0.00052,-0.00068,0,0.00013,2,26
37166,0.00025,-9e-05,-0.00024,-0.00021,-0.00052,-0.00068,0,0.00013,2,26
37167,0.00025,-9e-05,-0.00024,-0.00021,-0.00052,-0.00068,0,0.00013,2,26
37168,0.00025,-9e-05,-0.00024,-0.00021,-0.00052,-0.00068,0,0.00013,2,26
37169,0.00025,-9e-05,-0.00024,-0.00021,-0.00052,-0.00068,0,0.00013,2,26
37170,0.00025,-9e-05,-0.00024,-0.00021,-0.00052,-0.00068,0,0.00013,2,26
37171,-0.00025,-7e-05,-0.00013,-0.00056,8e-05,-0.00069,-0.00028,-0.00022,2,26
37172,-0.00025,-7e-05,-0.00013,-0.00056,8e-05,-0.00069,-0.00028,-0.00022,2,26
37173,-0.00025,-7e-05,-0.00013,-0.00056,8e-05,-0.00069,-0.00028,-0.00022,2,26
37174,-0.00025,-7e-05,-0.00013,-0.00056,8e-05,-0.00069,-0.00028,-0.00022,2,26
37175,-0.00025,-7e-05,-0.00013,-0.00056,8e-05,-0.00069,-0.00028,-0.00022,2,26
37176,-0.00025,-7e-05,-0.00013,-0.00056,8e-05,-0.00069,-0.00028,-0.00022,2,26
37177,-0.00025,-7e-05,-0.00013,-0.00056,8e-05,-0.00069,-0.00028,-0.00022,2,26
37178,-0.00025,-7e-05,-0.00013,-0.00056,8e-05,-0.00069,-0.00028,-0.00022,2,26
37179,-0.00025,-7e-05,-0.00013,-0.00056,8e-05,-0.00069,-0.00028,-0.00022,2,26
37180,-0.00025,-7e-05,-0.00013,-0.00056,8e-05,-0.00069,-0.00028,-0.00022,2,26
37181,-0.00025,-7e-05,-0.00013,-0.00056,8e-05,-0.00069,-0.00028,-0.00022,2,26
37182,-0.00025,-7e-05,-0.00013,-0.00056,8e-05,-0.00069,-0.00028,-0.00022,2,26
37183,-0.00025,-7e-05,-0.00013,-0.00056,8e-05,-0.00069,-0.00028,-0.00022,2,26
37184,-0.00025,-7e-05,-0.00013,-0.00056,8e-05,-0.00069,-0.00028,-0.00022,2,26
37185,-0.00025,-7e-05,-0.00013,-0.00056,8e-05,-0.00069,-0.00028,-0.00022,2,26
37187,-0.00026,-2e-05,5e-05,-7e-05,-0.0001,-4e-05,-0.00056,-0.00046,2,26
37189,-0.00024,-0.00014,5e-05,-3e-05,-0.00031,0.00029,5e-05,-0.00038,2,26
37190,-0.00024,-0.00014,5e-05,-3e-05,-0.00031,0.00029,5e-05,-0.00038,2,26
37191,-0.00024,-0.00014,5e-05,-3e-05,-0.00031,0.00029,5e-05,-0.00038,2,26
37192,-0.00024,-0.00014,5e-05,-3e-05,-0.00031,0.00029,5e-05,-0.00038,2,26
37193,-0.00024,-0.00014,5e-05,-3e-05,-0.00031,0.00029,5e-05,-0.00038,2,26
37194,-0.00024,-0.00014,5e-05,-3e-05,-0.00031,0.00029,5e-05,-0.00038,2,26
37195,-0.00024,-0.00014,5e-05,-3e-05,-0.00031,0.00029,5e-05,-0.00038,2,26
37196,-0.00024,-0.00014,5e-05,-3e-05,-0.00031,0.00029,5e-05,-0.00038,2,26
37197,-0.00024,-0.00014,5e-05,-3e-05,-0.00031,0.00029,5e-05,-0.00038,2,26
37198,-0.00024,-0.00014,5e-05,-3e-05,-0.00031,0.00029,5e-05,-0.00038,2,26
37199,-0.00024,-0.00014,5e-05,-3e-05,-0.00031,0.00029,5e-05,-0.00038,2,26
37200,-0.00024,-0.00014,5e-05,-3e-05,-0.00031,0.00029,5e-05,-0.00038,2,26
37201,-0.00024,-0.00014,5e-05,-3e-05,-0.00031,0.00029,5e-05,-0.00038,2,26
37202,-0.00024,-0.00014,5e-05,-3e-05,-0.00031,0.00029,5e-05,-0.00038,2,26
37203,-0.00024,-0.00014,5e-05,-3e-05,-0.00031,0.00029,5e-05,-0.00038,2,26
37204,-0.00024,-0.00014,5e-05,-3e-05,-0.00031,0.00029,5e-05,-0.00038,2,26
37205,-0.00024,-0.00014,5e-05,-3e-05,-0.00031,0.00029,5e-05,-0.00038,2,26
37206,-0.00024,-0.00014,5e-05,-3e-05,-0.00031,0.00029,5e-05,-0.00038,2,26
37207,-0.00024,-0.00014,5e-05,-3e-05,-0.00031,0.00029,5e-05,-0.00038,2,26
37208,-0.00014,4e-05,-5e-05,0.00028,0.00017,-0.00025,-0.00102,-0.00046,2,26
37209,0.00024,0.00015,0.00052,0.00027,-0.00031,-0.00022,4e-05,0.00019,2,26
37210,0.00024,0.00015,0.00052,0.00027,-0.00031,-0.00022,4e-05,0.00019,2,26
37211,0.00024,0.00015,0.00052,0.00027,-0.00031,-0.00022,4e-05,0.00019,2,26
37212,0.00024,0.00015,0.00052,0.00027,-0.00031,-0.00022,4e-05,0.00019,2,26
37213,0.00024,0.00015,0.00052,0.00027,-0.00031,-0.00022,4e-05,0.00019,2,26
37214,0.00024,0.00015,0.00052,0.00027,-0.00031,-0.00022,4e-05,0.00019,2,26
37215,0.00024,0.00015,0.00052,0.00027,-0.00031,-0.00022,4e-05,0.00019,2,26
37216,0.00024,0.00015,0.00052,0.00027,-0.00031,-0.00022,4e-05,0.00019,2,26
37217,0.00024,0.00015,0.00052,0.00027,-0.00031,-0.00022,4e-05,0.00019,2,26
37218,0.00024,0.00015,0.00052,0.00027,-0.00031,-0.00022,4e-05,0.00019,2,26
37219,0.00024,0.00015,0.00052,0.00027,-0.00031,-0.00022,4e-05,0.00019,2,26
37220,0.00024,0.00015,0.00052,0.00027,-0.00031,-0.00022,4e-05,0.00019,2,26
37221,0.00024,0.00015,0.00052,0.00027,-0.00031,-0.00022,4e-05,0.00019,2,26
37222,0.00024,0.00015,0.00052,0.00027,-0.00031,-0.00022,4e-05,0.00019,2,26
37223,0.00024,0.00015,0.00052,0.00027,-0.00031,-0.00022,4e-05,0.00019,2,26
37224,0.00024,0.00015,0.00052,0.00027,-0.00031,-0.00022,4e-05,0.00019,2,26
37225,0.00024,0.00015,0.00052,0.00027,-0.00031,-0.00022,4e-05,0.00019,2,26
37226,0.00024,0.00015,0.00052,0.00027,-0.00031,-0.00022,4e-05,0.00019,2,26
37228,0.00024,0.00015,0.00052,0.00027,-0.00031,-0.00022,4e-05,0.00019,2,26
37229,0.00024,0.00015,0.00052,0.00027,-0.00031,-0.00022,4e-05,0.00019,2,26
37230,0.00024,0.00015,0.00052,0.00027,-0.00031,-0.00022,4e-05,0.00019,2,26
37231,0.00024,0.00015,0.00052,0.00027,-0.00031,-0.00022,4e-05,0.00019,2,26
37232,3e-05,-2e-05,-0.00022,-4e-05,-0.0001,-0.00012,0.0004,7e-05,2,26
37233,0.00017,2e-05,-0.0001,0.00042,0.00052,0.00024,0.00034,0.00018,2,26
37234,0.00017,2e-05,-0.0001,0.00042,0.00052,0.00024,0.00034,0.00018,2,26
37235,0.00017,2e-05,-0.0001,0.00042,0.00052,0.00024,0.00034,0.00018,2,26
37236,0.00017,2e-05,-0.0001,0.00042,0.00052,0.00024,0.00034,0.00018,2,26
37239,0.00017,2e-05,-0.0001,0.00042,0.00052,0.00024,0.00034,0.00018,2,26
37240,0.00017,2e-05,-0.0001,0.00042,0.00052,0.00024,0.00034,0.00018,2,26
37241,0.00017,2e-05,-0.0001,0.00042,0.00052,0.00024,0.00034,0.00018,2,26
37242,0.00017,2e-05,-0.0001,0.00042,0.00052,0.00024,0.00034,0.00018,2,26
37243,0.00017,2e-05,-0.0001,0.00042,0.00052,0.00024,0.00034,0.00018,2,26
37244,0.00017,2e-05,-0.0001,0.00042,0.00052,0.00024,0.00034,0.00018,2,26
37245,0.00017,2e-05,-0.0001,0.00042,0.00052,0.00024,0.00034,0.00018,2,26
37246,-0.00017,-0.00018,0.00023,0.00016,-0.00061,-0.00111,-0.00084,-0.00027,2,26
37247,-0.00017,-0.00018,0.00023,0.00016,-0.00061,-0.00111,-0.00084,-0.00027,2,26
37248,-0.00017,-0.00018,0.00023,0.00016,-0.00061,-0.00111,-0.00084,-0.00027,2,26
37249,-0.00017,-0.00018,0.00023,0.00016,-0.00061,-0.00111,-0.00084,-0.00027,2,26
37250,-0.00017,-0.00018,0.00023,0.00016,-0.00061,-0.00111,-0.00084,-0.00027,2,26
37251,-0.00017,-0.00018,0.00023,0.00016,-0.00061,-0.00111,-0.00084,-0.00027,2,26
37252,-0.00017,-0.00018,0.00023,0.00016,-0.00061,-0.00111,-0.00084,-0.00027,2,26
37253,-0.00017,-0.00018,0.00023,0.00016,-0.00061,-0.00111,-0.00084,-0.00027,2,26
37254,-0.00017,-0.00018,0.00023,0.00016,-0.00061,-0.00111,-0.00084,-0.00027,2,26
37255,-0.00017,-0.00018,0.00023,0.00016,-0.00061,-0.00111,-0.00084,-0.00027,2,26
37256,-0.00017,-0.00018,0.00023,0.00016,-0.00061,-0.00111,-0.00084,-0.00027,2,26
37257,-0.00017,-0.00018,0.00023,0.00016,-0.00061,-0.00111,-0.00084,-0.00027,2,26
37258,-0.00017,-0.00018,0.00023,0.00016,-0.00061,-0.00111,-0.00084,-0.00027,2,26
37259,-0.00017,-0.00018,0.00023,0.00016,-0.00061,-0.00111,-0.00084,-0.00027,2,26
37260,-0.00017,-0.00018,0.00023,0.00016,-0.00061,-0.00111,-0.00084,-0.00027,2,26
37261,-0.00017,-0.00018,0.00023,0.00016,-0.00061,-0.00111,-0.00084,-0.00027,2,26
37262,-0.00017,-0.00018,0.00023,0.00016,-0.00061,-0.00111,-0.00084,-0.00027,2,26
37263,-0.00017,-0.00018,0.00023,0.00016,-0.00061,-0.00111,-0.00084,-0.00027,2,26
37264,-0.00017,-0.00018,0.00023,0.00016,-0.00061,-0.00111,-0.00084,-0.00027,2,26
37265,-0.00017,-0.00018,0.00023,0.00016,-0.00061,-0.00111,-0.00084,-0.00027,2,26
37266,-0.00017,-0.00018,0.00023,0.00016,-0.00061,-0.00111,-0.00084,-0.00027,2,26
37267,-0.00017,-0.00018,0.00023,0.00016,-0.00061,-0.00111,-0.00084,-0.00027,2,26
37268,0.00016,-0.00012,-0.00025,-0.00016,0.00015,0.00056,-0.00039,0.00019,2,26
37269,0.00013,0.00013,0.00045,0.00035,0.00017,0.00065,0.00076,0.0005,2,26
37270,0.00013,0.00013,0.00045,0.00035,0.00017,0.00065,0.00076,0.0005,2,26
37271,0.00013,0.00013,0.00045,0.00035,0.00017,0.00065,0.00076,0.0005,2,26
37272,0.00013,0.00013,0.00045,0.00035,0.00017,0.00065,0.00076,0.0005,2,26
37273,0.00013,0.00013,0.00045,0.00035,0.00017,0.00065,0.00076,0.0005,2,26
37274,0.00013,0.00013,0.00045,0.00035,0.00017,0.00065,0.00076,0.0005,2,26
37275,0.00013,0.00013,0.00045,0.00035,0.00017,0.00065,0.00076,0.0005,2,26
37276,0.00013,0.00013,0.00045,0.00035,0.00017,0.00065,0.00076,0.0005,2,26
37277,0.00013,0.00013,0.00045,0.00035,0.00017,0.00065,0.00076,0.0005,2,26
37278,0.00013,0.00013,0.00045,0.00035,0.00017,0.00065,0.00076,0.0005,2,26
37279,0.00013,0.00013,0.00045,0.00035,0.00017,0.00065,0.00076,0.0005,2,26
37280,0.00013,0.00013,0.00045,0.00035,0.00017,0.00065,0.00076,0.0005,2,26
37281,0.00013,0.00013,0.00045,0.00035,0.00017,0.00065,0.00076,0.0005,2,26
37282,0.00034,0.00017,2e-05,4e-05,0.00019,0.00073,0.0008,0.00046,2,26
37283,0.00034,0.00017,2e-05,4e-05,0.00019,0.00073,0.0008,0.00046,2,26
37284,0.00034,0.00017,2e-05,4e-05,0.00019,0.00073,0.0008,0.00046,2,26
37285,0.00034,0.00017,2e-05,4e-05,0.00019,0.00073,0.0008,0.00046,2,26
37286,0.00034,0.00017,2e-05,4e-05,0.00019,0.00073,0.0008,0.00046,2,26
37288,0.00034,0.00017,2e-05,4e-05,0.00019,0.00073,0.0008,0.00046,2,26
37290,0.00034,0.00017,2e-05,4e-05,0.00019,0.00073,0.0008,0.00046,2,26
37291,0.00014,3e-05,-3e-05,0.00018,5e-05,-0.00011,-0.00067,-2e-05,2,26
37292,0.00014,3e-05,-3e-05,0.00018,5e-05,-0.00011,-0.00067,-2e-05,2,26
37293,0.00014,3e-05,-3e-05,0.00018,5e-05,-0.00011,-0.00067,-2e-05,2,26
37294,0.00014,3e-05,-3e-05,0.00018,5e-05,-0.00011,-0.00067,-2e-05,2,26
37295,0.00014,3e-05,-3e-05,0.00018,5e-05,-0.00011,-0.00067,-2e-05,2,26
37296,0.00014,3e-05,-3e-05,0.00018,5e-05,-0.00011,-0.00067,-2e-05,2,26
37297,0.00014,3e-05,-3e-05,0.00018,5e-05,-0.00011,-0.00067,-2e-05,2,26
37298,0.00014,3e-05,-3e-05,0.00018,5e-05,-0.00011,-0.00067,-2e-05,2,26
37299,0.00014,3e-05,-3e-05,0.00018,5e-05,-0.00011,-0.00067,-2e-05,2,26
37300,0.00014,3e-05,-3e-05,0.00018,5e-05,-0.00011,-0.00067,-2e-05,2,26
37301,0.00014,3e-05,-3e-05,0.00018,5e-05,-0.00011,-0.00067,-2e-05,2,26
37302,0.00014,3e-05,-3e-05,0.00018,5e-05,-0.00011,-0.00067,-2e-05,2,26
37303,0.00014,3e-05,-3e-05,0.00018,5e-05,-0.00011,-0.00067,-2e-05,2,26
37304,0.00014,3e-05,-3e-05,0.00018,5e-05,-0.00011,-0.00067,-2e-05,2,26
37305,0.00014,3e-05,-3e-05,0.00018,5e-05,-0.00011,-0.00067,-2e-05,2,26
37306,0.00021,3e-05,0.0001,-4e-05,0.00043,0.00015,0.00025,0.00035,2,26
37307,-8e-05,0,-1e-05,-0.00039,-0.00017,-0.00024,-0.00025,-0.00022,2,26
37308,-8e-05,0,-1e-05,-0.00039,-0.00017,-0.00024,-0.00025,-0.00022,2,26
37309,-8e-05,0,-1e-05,-0.00039,-0.00017,-0.00024,-0.00025,-0.00022,2,26
37310,-8e-05,0,-1e-05,-0.00039,-0.00017,-0.00024,-0.00025,-0.00022,2,26
37311,-8e-05,0,-1e-05,-0.00039,-0.00017,-0.00024,-0.00025,-0.00022,2,26
37312,-8e-05,0,-1e-05,-0.00039,-0.00017,-0.00024,-0.00025,-0.00022,2,26
37313,-8e-05,0,-1e-05,-0.00039,-0.00017,-0.00024,-0.00025,-0.00022,2,26
37314,-8e-05,0,-1e-05,-0.00039,-0.00017,-0.00024,-0.00025,-0.00022,2,26
37315,-8e-05,0,-1e-05,-0.00039,-0.00017,-0.00024,-0.00025,-0.00022,2,26
37316,-8e-05,0,-1e-05,-0.00039,-0.00017,-0.00024,-0.00025,-0.00022,2,26
37317,-8e-05,0,-1e-05,-0.00039,-0.00017,-0.00024,-0.00025,-0.00022,2,26
37318,-8e-05,0,-1e-05,-0.00039,-0.00017,-0.00024,-0.00025,-0.00022,2,26
37319,-8e-05,0,-1e-05,-0.00039,-0.00017,-0.00024,-0.00025,-0.00022,2,26
37320,-8e-05,0,-1e-05,-0.00039,-0.00017,-0.00024,-0.00025,-0.00022,2,26
37321,-8e-05,0,-1e-05,-0.00039,-0.00017,-0.00024,-0.00025,-0.00022,2,26
37323,-8e-05,0,-1e-05,-0.00039,-0.00017,-0.00024,-0.00025,-0.00022,2,26
37324,-8e-05,0,-1e-05,-0.00039,-0.00017,-0.00024,-0.00025,-0.00022,2,26
37325,-8e-05,0,-1e-05,-0.00039,-0.00017,-0.00024,-0.00025,-0.00022,2,26
37326,-8e-05,0,-1e-05,-0.00039,-0.00017,-0.00024,-0.00025,-0.00022,2,26
37327,-8e-05,0,-1e-05,-0.00039,-0.00017,-0.00024,-0.00025,-0.00022,2,26
37328,1e-05,5e-05,0.00019,0.00013,-0.00026,-0.00022,0.00022,3e-05,2,26
