5152,0.00027,0.00031,0.00045,0.0009,0.00042,3e-05,-0.00021,0.00016,2,27
5153,0.00027,0.00031,0.00045,0.0009,0.00042,3e-05,-0.00021,0.00016,2,27
5154,0.00027,0.00031,0.00045,0.0009,0.00042,3e-05,-0.00021,0.00016,2,27
5155,0.00027,0.00031,0.00045,0.0009,0.00042,3e-05,-0.00021,0.00016,2,27
5156,0.00027,0.00031,0.00045,0.0009,0.00042,3e-05,-0.00021,0.00016,2,27
5157,0.00027,0.00031,0.00045,0.0009,0.00042,3e-05,-0.00021,0.00016,2,27
5158,0.00027,0.00031,0.00045,0.0009,0.00042,3e-05,-0.00021,0.00016,2,27
5159,0.00027,0.00031,0.00045,0.0009,0.00042,3e-05,-0.00021,0.00016,2,27
5160,0.00027,0.00031,0.00045,0.0009,0.00042,3e-05,-0.00021,0.00016,2,27
5161,0.00027,0.00031,0.00045,0.0009,0.00042,3e-05,-0.00021,0.00016,2,27
5162,0.00027,0.00031,0.00045,0.0009,0.00042,3e-05,-0.00021,0.00016,2,27
5163,0.00027,0.00031,0.00045,0.0009,0.00042,3e-05,-0.00021,0.00016,2,27
5164,0.00027,0.00031,0.00045,0.0009,0.00042,3e-05,-0.00021,0.00016,2,27
5165,0.00027,0.00031,0.00045,0.0009,0.00042,3e-05,-0.00021,0.00016,2,27
5166,0.00027,0.00031,0.00045,0.0009,0.00042,3e-05,-0.00021,0.00016,2,27
5167,0.00027,0.00031,0.00045,0.0009,0.00042,3e-05,-0.00021,0.00016,2,27
5168,0.00027,0.00031,0.00045,0.0009,0.00042,3e-05,-0.00021,0.00016,2,27
5169,0.00027,0.00031,0.00045,0.0009,0.00042,3e-05,-0.00021,0.00016,2,27
5170,0.00027,0.00031,0.00045,0.0009,0.00042,3e-05,-0.00021,0.00016,2,27
5171,-6e-05,-3e-05,-0.0001,0.0001,-0.00036,-0.00013,-0.00128,2e-05,2,27
5172,-0.00027,-1e-05,0.0001,0.00077,0.00024,2e-05,-0.00019,-6e-05,2,27
5173,-0.00027,-1e-05,0.0001,0.00077,0.00024,2e-05,-0.00019,-6e-05,2,27
5174,-0.00027,-1e-05,0.0001,0.00077,0.00024,2e-05,-0.00019,-6e-05,2,27
5175,-0.00027,-1e-05,0.0001,0.00077,0.00024,2e-05,-0.00019,-6e-05,2,27
5176,-0.00027,-1e-05,0.0001,0.00077,0.00024,2e-05,-0.00019,-6e-05,2,27
5177,-0.00027,-1e-05,0.0001,0.00077,0.00024,2e-05,-0.00019,-6e-05,2,27
5178,-0.00027,-1e-05,0.0001,0.00077,0.00024,2e-05,-0.00019,-6e-05,2,27
5179,-0.00027,-1e-05,0.0001,0.00077,0.00024,2e-05,-0.00019,-6e-05,2,27
5180,-0.00027,-1e-05,0.0001,0.00077,0.00024,2e-05,-0.00019,-6e-05,2,27
5181,-0.00027,-1e-05,0.0001,0.00077,0.00024,2e-05,-0.00019,-6e-05,2,27
5182,-0.00027,-1e-05,0.0001,0.00077,0.00024,2e-05,-0.00019,-6e-05,2,27
5183,-0.00027,-1e-05,0.0001,0.00077,0.00024,2e-05,-0.00019,-6e-05,2,27
5184,-0.00027,-1e-05,0.0001,0.00077,0.00024,2e-05,-0.00019,-6e-05,2,27
5185,-0.00027,-1e-05,0.0001,0.00077,0.00024,2e-05,-0.00019,-6e-05,2,27
5186,-0.00027,-1e-05,0.0001,0.00077,0.00024,2e-05,-0.00019,-6e-05,2,27
5188,-0.00027,-1e-05,0.0001,0.00077,0.00024,2e-05,-0.00019,-6e-05,2,27
5189,-0.00027,-1e-05,0.0001,0.00077,0.00024,2e-05,-0.00019,-6e-05,2,27
5190,-0.00027,-1e-05,0.0001,0.00077,0.00024,2e-05,-0.00019,-6e-05,2,27
5191,-0.00027,-1e-05,0.0001,0.00077,0.00024,2e-05,-0.00019,-6e-05,2,27
5192,-0.00027,-1e-05,0.0001,0.00077,0.00024,2e-05,-0.00019,-6e-05,2,27
5193,-0.00027,-1e-05,0.0001,0.00077,0.00024,2e-05,-0.00019,-6e-05,2,27
5194,-0.00026,-0.0003,0.00016,0.00029,-4e-05,-0.00012,0.00066,-0.00023,2,27
5195,0.00027,-6e-05,-0.00014,-8e-05,0.00029,0.00017,0.00039,-0.00016,2,27
5196,0.00027,-6e-05,-0.00014,-8e-05,0.00029,0.00017,0.00039,-0.00016,2,27
5197,0.00027,-6e-05,-0.00014,-8e-05,0.00029,0.00017,0.00039,-0.00016,2,27
5198,0.00027,-6e-05,-0.00014,-8e-05,0.00029,0.00017,0.00039,-0.00016,2,27
5199,0.00027,-6e-05,-0.00014,-8e-05,0.00029,0.00017,0.00039,-0.00016,2,27
5200,0.00027,-6e-05,-0.00014,-8e-05,0.00029,0.00017,0.00039,-0.00016,2,27
5201,0.00027,-6e-05,-0.00014,-8e-05,0.00029,0.00017,0.00039,-0.00016,2,27
5202,0.00027,-6e-05,-0.00014,-8e-05,0.00029,0.00017,0.00039,-0.00016,2,27
5203,0.00027,-6e-05,-0.00014,-8e-05,0.00029,0.00017,0.00039,-0.00016,2,27
5204,0.00027,-6e-05,-0.00014,-8e-05,0.00029,0.00017,0.00039,-0.00016,2,27
5205,0.00027,-6e-05,-0.00014,-8e-05,0.00029,0.00017,0.00039,-0.00016,2,27
5206,0.00027,-6e-05,-0.00014,-8e-05,0.00029,0.00017,0.00039,-0.00016,2,27
5207,0.00027,-6e-05,-0.00014,-8e-05,0.00029,0.00017,0.00039,-0.00016,2,27
5208,0.00027,-6e-05,-0.00014,-8e-05,0.00029,0.00017,0.00039,-0.00016,2,27
5209,0.00027,-6e-05,-0.00014,-8e-05,0.00029,0.00017,0.00039,-0.00016,2,27
5210,0.00012,-8e-05,5e-05,0.00011,-0.00026,-3e-05,6e-05,-1e-05,2,27
5211,2e-05,9e-05,5e-05,0.00017,-0.0002,-0.00012,-0.00082,-4e-05,2,27
5212,2e-05,9e-05,5e-05,0.00017,-0.0002,-0.00012,-0.00082,-4e-05,2,27
5213,2e-05,9e-05,5e-05,0.00017,-0.0002,-0.00012,-0.00082,-4e-05,2,27
5214,2e-05,9e-05,5e-05,0.00017,-0.0002,-0.00012,-0.00082,-4e-05,2,27
5215,2e-05,9e-05,5e-05,0.00017,-0.0002,-0.00012,-0.00082,-4e-05,2,27
5217,2e-05,9e-05,5e-05,0.00017,-0.0002,-0.00012,-0.00082,-4e-05,2,27
5218,2e-05,9e-05,5e-05,0.00017,-0.0002,-0.00012,-0.00082,-4e-05,2,27
5219,2e-05,9e-05,5e-05,0.00017,-0.0002,-0.00012,-0.00082,-4e-05,2,27
5220,2e-05,9e-05,5e-05,0.00017,-0.0002,-0.00012,-0.00082,-4e-05,2,27
5221,2e-05,9e-05,5e-05,0.00017,-0.0002,-0.00012,-0.00082,-4e-05,2,27
5222,2e-05,9e-05,5e-05,0.00017,-0.0002,-0.00012,-0.00082,-4e-05,2,27
5223,2e-05,9e-05,5e-05,0.00017,-0.0002,-0.00012,-0.00082,-4e-05,2,27
5224,2e-05,9e-05,5e-05,0.00017,-0.0002,-0.00012,-0.00082,-4e-05,2,27
5225,2e-05,9e-05,5e-05,0.00017,-0.0002,-0.00012,-0.00082,-4e-05,2,27
5226,2e-05,9e-05,5e-05,0.00017,-0.0002,-0.00012,-0.00082,-4e-05,2,27
5227,2e-05,9e-05,5e-05,0.00017,-0.0002,-0.00012,-0.00082,-4e-05,2,27
5228,2e-05,9e-05,5e-05,0.00017,-0.0002,-0.00012,-0.00082,-4e-05,2,27
5229,2e-05,9e-05,5e-05,0.00017,-0.0002,-0.00012,-0.00082,-4e-05,2,27
5230,2e-05,9e-05,5e-05,0.00017,-0.0002,-0.00012,-0.00082,-4e-05,2,27
5231,-5e-05,2e-05,4e-05,-0.00056,-0.00014,-5e-05,-0.00097,-9e-05,2,27
5232,-0.00017,3e-05,0.00011,0.00048,-5e-05,0.00017,0.00032,2e-05,2,27
5233,-0.00017,3e-05,0.00011,0.00048,-5e-05,0.00017,0.00032,2e-05,2,27
5234,-0.00017,3e-05,0.00011,0.00048,-5e-05,0.00017,0.00032,2e-05,2,27
5235,-0.00017,3e-05,0.00011,0.00048,-5e-05,0.00017,0.00032,2e-05,2,27
5236,-0.00017,3e-05,0.00011,0.00048,-5e-05,0.00017,0.00032,2e-05,2,27
5239,-0.00017,3e-05,0.00011,0.00048,-5e-05,0.00017,0.00032,2e-05,2,27
5240,-0.00017,3e-05,0.00011,0.00048,-5e-05,0.00017,0.00032,2e-05,2,27
5241,-0.00017,3e-05,0.00011,0.00048,-5e-05,0.00017,0.00032,2e-05,2,27
5242,-0.00017,3e-05,0.00011,0.00048,-5e-05,0.00017,0.00032,2e-05,2,27
5243,-0.00017,3e-05,0.00011,0.00048,-5e-05,0.00017,0.00032,2e-05,2,27
5244,-0.00017,3e-05,0.00011,0.00048,-5e-05,0.00017,0.00032,2e-05,2,27
5245,-0.00017,3e-05,0.00011,0.00048,-5e-05,0.00017,0.00032,2e-05,2,27
5246,-0.00017,3e-05,0.00011,0.00048,-5e-05,0.00017,0.00032,2e-05,2,27
5247,-0.00017,3e-05,0.00011,0.00048,-5e-05,0.00017,0.00032,2e-05,2,27
5248,-0.00017,3e-05,0.00011,0.00048,-5e-05,0.00017,0.00032,2e-05,2,27
5249,-0.00017,3e-05,0.00011,0.00048,-5e-05,0.00017,0.00032,2e-05,2,27
5250,-0.00017,3e-05,0.00011,0.00048,-5e-05,0.00017,0.00032,2e-05,2,27
5251,-0.00017,3e-05,0.00011,0.00048,-5e-05,0.00017,0.00032,2e-05,2,27
5252,-0.00017,3e-05,0.00011,0.00048,-5e-05,0.00017,0.00032,2e-05,2,27
5253,-0.00017,3e-05,0.00011,0.00048,-5e-05,0.00017,0.00032,2e-05,2,27
5254,1e-05,-5e-05,-0.00034,-0.00098,1e-05,5e-05,0.00074,1e-05,2,27
5255,-0.00025,-5e-05,2e-05,0.00052,-9e-05,-0.00012,0.00023,0.00018,2,27
5256,-0.00025,-5e-05,2e-05,0.00052,-9e-05,-0.00012,0.00023,0.00018,2,27
5257,-0.00025,-5e-05,2e-05,0.00052,-9e-05,-0.00012,0.00023,0.00018,2,27
5258,-0.00025,-5e-05,2e-05,0.00052,-9e-05,-0.00012,0.00023,0.00018,2,27
5259,-0.00025,-5e-05,2e-05,0.00052,-9e-05,-0.00012,0.00023,0.00018,2,27
5260,-0.00025,-5e-05,2e-05,0.00052,-9e-05,-0.00012,0.00023,0.00018,2,27
5261,-0.00025,-5e-05,2e-05,0.00052,-9e-05,-0.00012,0.00023,0.00018,2,27
5262,-0.00025,-5e-05,2e-05,0.00052,-9e-05,-0.00012,0.00023,0.00018,2,27
5263,-0.00025,-5e-05,2e-05,0.00052,-9e-05,-0.00012,0.00023,0.00018,2,27
5264,-0.00025,-5e-05,2e-05,0.00052,-9e-05,-0.00012,0.00023,0.00018,2,27
5265,-0.00025,-5e-05,2e-05,0.00052,-9e-05,-0.00012,0.00023,0.00018,2,27
5266,-0.00025,-5e-05,2e-05,0.00052,-9e-05,-0.00012,0.00023,0.00018,2,27
5267,-0.00025,-5e-05,2e-05,0.00052,-9e-05,-0.00012,0.00023,0.00018,2,27
5268,0.00011,0.0001,6e-05,0.00036,2e-05,-0.00015,-0.00075,-8e-05,2,27
5269,-0.00092,-0.00026,-2e-05,-0.00012,-0.00018,-0.00015,0.0003,-0.00031,2,27
5270,-0.00092,-0.00026,-2e-05,-0.00012,-0.00018,-0.00015,0.0003,-0.00031,2,27
5271,-0.00092,-0.00026,-2e-05,-0.00012,-0.00018,-0.00015,0.0003,-0.00031,2,27
5272,-0.00092,-0.00026,-2e-05,-0.00012,-0.00018,-0.00015,0.0003,-0.00031,2,27
5273,-0.00092,-0.00026,-2e-05,-0.00012,-0.00018,-0.00015,0.0003,-0.00031,2,27
5274,-0.00092,-0.00026,-2e-05,-0.00012,-0.00018,-0.00015,0.0003,-0.00031,2,27
5275,-0.00092,-0.00026,-2e-05,-0.00012,-0.00018,-0.00015,0.0003,-0.00031,2,27
5276,-0.00092,-0.00026,-2e-05,-0.00012,-0.00018,-0.00015,0.0003,-0.00031,2,27
5277,-0.00092,-0.00026,-2e-05,-0.00012,-0.00018,-0.00015,0.0003,-0.00031,2,27
5278,-0.00092,-0.00026,-2e-05,-0.00012,-0.00018,-0.00015,0.0003,-0.00031,2,27
5279,-0.00092,-0.00026,-2e-05,-0.00012,-0.00018,-0.00015,0.0003,-0.00031,2,27
5280,-0.00092,-0.00026,-2e-05,-0.00012,-0.00018,-0.00015,0.0003,-0.00031,2,27
5281,-0.00092,-0.00026,-2e-05,-0.00012,-0.00018,-0.00015,0.0003,-0.00031,2,27
5282,-0.00092,-0.00026,-2e-05,-0.00012,-0.00018,-0.00015,0.0003,-0.00031,2,27
5283,-0.00092,-0.00026,-2e-05,-0.00012,-0.00018,-0.00015,0.0003,-0.00031,2,27
5284,-0.00092,-0.00026,-2e-05,-0.00012,-0.00018,-0.00015,0.0003,-0.00031,2,27
5285,-0.00092,-0.00026,-2e-05,-0.00012,-0.00018,-0.00015,0.0003,-0.00031,2,27
5286,-0.00092,-0.00026,-2e-05,-0.00012,-0.00018,-0.00015,0.0003,-0.00031,2,27
5288,-0.00092,-0.00026,-2e-05,-0.00012,-0.00018,-0.00015,0.0003,-0.00031,2,27
5290,-0.00092,-0.00026,-2e-05,-0.00012,-0.00018,-0.00015,0.0003,-0.00031,2,27
5291,0.0001,-3e-05,-0.00015,-4e-05,-0.00011,0.00018,0.00026,-0.00017,2,27
5292,0.0003,0.00015,8e-05,-0.00065,-0.00013,-3e-05,-0.00106,0.00013,2,27
5293,0.0003,0.00015,8e-05,-0.00065,-0.00013,-3e-05,-0.00106,0.00013,2,27
5294,0.0003,0.00015,8e-05,-0.00065,-0.00013,-3e-05,-0.00106,0.00013,2,27
5295,0.0003,0.00015,8e-05,-0.00065,-0.00013,-3e-05,-0.00106,0.00013,2,27
5296,0.0003,0.00015,8e-05,-0.00065,-0.00013,-3e-05,-0.00106,0.00013,2,27
5297,0.0003,0.00015,8e-05,-0.00065,-0.00013,-3e-05,-0.00106,0.00013,2,27
5298,0.0003,0.00015,8e-05,-0.00065,-0.00013,-3e-05,-0.00106,0.00013,2,27
5299,0.0003,0.00015,8e-05,-0.00065,-0.00013,-3e-05,-0.00106,0.00013,2,27
5300,0.0003,0.00015,8e-05,-0.00065,-0.00013,-3e-05,-0.00106,0.00013,2,27
5301,0.0003,0.00015,8e-05,-0.00065,-0.00013,-3e-05,-0.00106,0.00013,2,27
5302,0.0003,0.00015,8e-05,-0.00065,-0.00013,-3e-05,-0.00106,0.00013,2,27
5303,0.0003,0.00015,8e-05,-0.00065,-0.00013,-3e-05,-0.00106,0.00013,2,27
5304,0.0003,0.00015,8e-05,-0.00065,-0.00013,-3e-05,-0.00106,0.00013,2,27
5305,0.0003,0.00015,8e-05,-0.00065,-0.00013,-3e-05,-0.00106,0.00013,2,27
5306,0.0003,0.00015,8e-05,-0.00065,-0.00013,-3e-05,-0.00106,0.00013,2,27
5307,0.0003,0.00015,8e-05,-0.00065,-0.00013,-3e-05,-0.00106,0.00013,2,27
5308,0.0003,0.00015,8e-05,-0.00065,-0.00013,-3e-05,-0.00106,0.00013,2,27
5309,0.0003,0.00015,8e-05,-0.00065,-0.00013,-3e-05,-0.00106,0.00013,2,27
5310,0.0003,0.00015,8e-05,-0.00065,-0.00013,-3e-05,-0.00106,0.00013,2,27
5311,0.0003,0.00015,8e-05,-0.00065,-0.00013,-3e-05,-0.00106,0.00013,2,27
5312,0.0003,0.00015,8e-05,-0.00065,-0.00013,-3e-05,-0.00106,0.00013,2,27
5313,0.0003,0.00015,8e-05,-0.00065,-0.00013,-3e-05,-0.00106,0.00013,2,27
5314,-0.0004,-0.00016,-2e-05,5e-05,-0.00034,-5e-05,-0.00074,-0.00017,2,27
5315,9e-05,-9e-05,-0.00033,-0.00019,0.00026,7e-05,0.00097,9e-05,2,27
5316,9e-05,-9e-05,-0.00033,-0.00019,0.00026,7e-05,0.00097,9e-05,2,27
5317,9e-05,-9e-05,-0.00033,-0.00019,0.00026,7e-05,0.00097,9e-05,2,27
5318,9e-05,-9e-05,-0.00033,-0.00019,0.00026,7e-05,0.00097,9e-05,2,27
5319,9e-05,-9e-05,-0.00033,-0.00019,0.00026,7e-05,0.00097,9e-05,2,27
5321,9e-05,-9e-05,-0.00033,-0.00019,0.00026,7e-05,0.00097,9e-05,2,27
5322,9e-05,-9e-05,-0.00033,-0.00019,0.00026,7e-05,0.00097,9e-05,2,27
5323,9e-05,-9e-05,-0.00033,-0.00019,0.00026,7e-05,0.00097,9e-05,2,27
5324,9e-05,-9e-05,-0.00033,-0.00019,0.00026,7e-05,0.00097,9e-05,2,27
5325,9e-05,-9e-05,-0.00033,-0.00019,0.00026,7e-05,0.00097,9e-05,2,27
5326,9e-05,-9e-05,-0.00033,-0.00019,0.00026,7e-05,0.00097,9e-05,2,27
5327,9e-05,-9e-05,-0.00033,-0.00019,0.00026,7e-05,0.00097,9e-05,2,27
5328,-0.00015,-2e-05,-9e-05,-0.00043,-0.00034,0.00012,-7e-05,1e-05,2,27
5329,0.00014,-0.00017,-0.00033,-0.00064,-0.0002,0.0001,-0.00011,-0.00014,2,27
5330,0.00014,-0.00017,-0.00033,-0.00064,-0.0002,0.0001,-0.00011,-0.00014,2,27
5331,0.00014,-0.00017,-0.00033,-0.00064,-0.0002,0.0001,-0.00011,-0.00014,2,27
5332,0.00014,-0.00017,-0.00033,-0.00064,-0.0002,0.0001,-0.00011,-0.00014,2,27
5333,0.00014,-0.00017,-0.00033,-0.00064,-0.0002,0.0001,-0.00011,-0.00014,2,27
5334,0.00014,-0.00017,-0.00033,-0.00064,-0.0002,0.0001,-0.00011,-0.00014,2,27
5335,0.00014,-0.00017,-0.00033,-0.00064,-0.0002,0.0001,-0.00011,-0.00014,2,27
5336,0.00014,-0.00017,-0.00033,-0.00064,-0.0002,0.0001,-0.00011,-0.00014,2,27
5338,0.00014,-0.00017,-0.00033,-0.00064,-0.0002,0.0001,-0.00011,-0.00014,2,27
5339,0.00014,-0.00017,-0.00033,-0.00064,-0.0002,0.0001,-0.00011,-0.00014,2,27
5340,0.00014,-0.00017,-0.00033,-0.00064,-0.0002,0.0001,-0.00011,-0.00014,2,27
5341,0.00014,-0.00017,-0.00033,-0.00064,-0.0002,0.0001,-0.00011,-0.00014,2,27
5342,0.00014,-0.00017,-0.00033,-0.00064,-0.0002,0.0001,-0.00011,-0.00014,2,27
5343,0.00014,-0.00017,-0.00033,-0.00064,-0.0002,0.0001,-0.00011,-0.00014,2,27
5344,0.00014,-0.00017,-0.00033,-0.00064,-0.0002,0.0001,-0.00011,-0.00014,2,27
5345,0.00014,-0.00017,-0.00033,-0.00064,-0.0002,0.0001,-0.00011,-0.00014,2,27
5346,0.00014,-0.00017,-0.00033,-0.00064,-0.0002,0.0001,-0.00011,-0.00014,2,27
5347,0.00014,-0.00017,-0.00033,-0.00064,-0.0002,0.0001,-0.00011,-0.00014,2,27
5348,0.00014,-0.00017,-0.00033,-0.00064,-0.0002,0.0001,-0.00011,-0.00014,2,27
5349,0.00014,-0.00017,-0.00033,-0.00064,-0.0002,0.0001,-0.00011,-0.00014,2,27
5350,0.00014,-0.00017,-0.00033,-0.00064,-0.0002,0.0001,-0.00011,-0.00014,2,27
5351,-0.00022,-0.0001,-0.00018,-0.00039,-0.00021,0,0,6e-05,2,27
5352,0.00013,2e-05,3e-05,-2e-05,0.0001,9e-05,0.00054,6e-05,2,27
5353,0.00013,2e-05,3e-05,-2e-05,0.0001,9e-05,0.00054,6e-05,2,27
5354,0.00013,2e-05,3e-05,-2e-05,0.0001,9e-05,0.00054,6e-05,2,27
5355,0.00013,2e-05,3e-05,-2e-05,0.0001,9e-05,0.00054,6e-05,2,27
5356,0.00013,2e-05,3e-05,-2e-05,0.0001,9e-05,0.00054,6e-05,2,27
5357,0.00013,2e-05,3e-05,-2e-05,0.0001,9e-05,0.00054,6e-05,2,27
5358,0.00013,2e-05,3e-05,-2e-05,0.0001,9e-05,0.00054,6e-05,2,27
5359,0.00013,2e-05,3e-05,-2e-05,0.0001,9e-05,0.00054,6e-05,2,27
5360,0.00013,2e-05,3e-05,-2e-05,0.0001,9e-05,0.00054,6e-05,2,27
5361,0.00013,2e-05,3e-05,-2e-05,0.0001,9e-05,0.00054,6e-05,2,27
5362,0.00013,2e-05,3e-05,-2e-05,0.0001,9e-05,0.00054,6e-05,2,27
5363,0.00013,2e-05,3e-05,-2e-05,0.0001,9e-05,0.00054,6e-05,2,27
5364,0.00013,2e-05,3e-05,-2e-05,0.0001,9e-05,0.00054,6e-05,2,27
5365,0.00013,2e-05,3e-05,-2e-05,0.0001,9e-05,0.00054,6e-05,2,27
5366,0.00013,2e-05,3e-05,-2e-05,0.0001,9e-05,0.00054,6e-05,2,27
5367,0.00013,2e-05,3e-05,-2e-05,0.0001,9e-05,0.00054,6e-05,2,27
5368,0.00013,2e-05,3e-05,-2e-05,0.0001,9e-05,0.00054,6e-05,2,27
5369,0.00013,2e-05,3e-05,-2e-05,0.0001,9e-05,0.00054,6e-05,2,27
5370,0.00013,2e-05,3e-05,-2e-05,0.0001,9e-05,0.00054,6e-05,2,27
5371,0.00013,2e-05,3e-05,-2e-05,0.0001,9e-05,0.00054,6e-05,2,27
5372,0.00013,2e-05,3e-05,-2e-05,0.0001,9e-05,0.00054,6e-05,2,27
5373,0.00013,2e-05,3e-05,-2e-05,0.0001,9e-05,0.00054,6e-05,2,27
5374,0.00028,7e-05,0.00013,0.00028,0.00036,1e-05,0.00037,7e-05,2,27
5375,6e-05,0.00013,0.00022,-0.00016,-7e-05,2e-05,-0.00037,-0.0002,2,27
5376,6e-05,0.00013,0.00022,-0.00016,-7e-05,2e-05,-0.00037,-0.0002,2,27
5377,6e-05,0.00013,0.00022,-0.00016,-7e-05,2e-05,-0.00037,-0.0002,2,27
5378,6e-05,0.00013,0.00022,-0.00016,-7e-05,2e-05,-0.00037,-0.0002,2,27
5379,6e-05,0.00013,0.00022,-0.00016,-7e-05,2e-05,-0.00037,-0.0002,2,27
5380,6e-05,0.00013,0.00022,-0.00016,-7e-05,2e-05,-0.00037,-0.0002,2,27
5381,6e-05,0.00013,0.00022,-0.00016,-7e-05,2e-05,-0.00037,-0.0002,2,27
5382,6e-05,0.00013,0.00022,-0.00016,-7e-05,2e-05,-0.00037,-0.0002,2,27
5383,6e-05,0.00013,0.00022,-0.00016,-7e-05,2e-05,-0.00037,-0.0002,2,27
5384,6e-05,0.00013,0.00022,-0.00016,-7e-05,2e-05,-0.00037,-0.0002,2,27
5385,6e-05,0.00013,0.00022,-0.00016,-7e-05,2e-05,-0.00037,-0.0002,2,27
5386,6e-05,0.00013,0.00022,-0.00016,-7e-05,2e-05,-0.00037,-0.0002,2,27
5389,-0.00011,-1e-05,7e-05,0.00049,-1e-05,-2e-05,-0.00014,-1e-05,2,27
5390,-0.00011,-1e-05,7e-05,0.00049,-1e-05,-2e-05,-0.00014,-1e-05,2,27
5391,-0.00011,-1e-05,7e-05,0.00049,-1e-05,-2e-05,-0.00014,-1e-05,2,27
5392,-0.00011,-1e-05,7e-05,0.00049,-1e-05,-2e-05,-0.00014,-1e-05,2,27
5393,-0.00011,-1e-05,7e-05,0.00049,-1e-05,-2e-05,-0.00014,-1e-05,2,27
5394,-0.00011,-1e-05,7e-05,0.00049,-1e-05,-2e-05,-0.00014,-1e-05,2,27
5395,-0.00011,-1e-05,7e-05,0.00049,-1e-05,-2e-05,-0.00014,-1e-05,2,27
5396,-0.00011,-1e-05,7e-05,0.00049,-1e-05,-2e-05,-0.00014,-1e-05,2,27
5397,-0.00011,-1e-05,7e-05,0.00049,-1e-05,-2e-05,-0.00014,-1e-05,2,27
5398,-0.00011,-1e-05,7e-05,0.00049,-1e-05,-2e-05,-0.00014,-1e-05,2,27
5399,-0.00011,-1e-05,7e-05,0.00049,-1e-05,-2e-05,-0.00014,-1e-05,2,27
5400,-0.00011,-1e-05,7e-05,0.00049,-1e-05,-2e-05,-0.00014,-1e-05,2,27
5401,-0.00011,-1e-05,7e-05,0.00049,-1e-05,-2e-05,-0.00014,-1e-05,2,27
5402,-0.00011,-1e-05,7e-05,0.00049,-1e-05,-2e-05,-0.00014,-1e-05,2,27
5403,-0.00011,-1e-05,7e-05,0.00049,-1e-05,-2e-05,-0.00014,-1e-05,2,27
5404,-0.00011,-1e-05,7e-05,0.00049,-1e-05,-2e-05,-0.00014,-1e-05,2,27
5405,-0.00011,-1e-05,7e-05,0.00049,-1e-05,-2e-05,-0.00014,-1e-05,2,27
5406,-0.00011,-1e-05,7e-05,0.00049,-1e-05,-2e-05,-0.00014,-1e-05,2,27
5407,-0.00011,-1e-05,7e-05,0.00049,-1e-05,-2e-05,-0.00014,-1e-05,2,27
5408,-0.00011,-1e-05,7e-05,0.00049,-1e-05,-2e-05,-0.00014,-1e-05,2,27
5409,-0.00011,-1e-05,7e-05,0.00049,-1e-05,-2e-05,-0.00014,-1e-05,2,27
5410,-0.00011,-1e-05,7e-05,0.00049,-1e-05,-2e-05,-0.00014,-1e-05,2,27
5411,-5e-05,-0.00019,-0.00062,-0.00069,0.00022,-2e-05,0.00062,0,2,27
5412,0.00021,6e-05,0.0002,0.00032,-4e-05,1e-05,-0.00041,0.0001,2,27
5413,0.00021,6e-05,0.0002,0.00032,-4e-05,1e-05,-0.00041,0.0001,2,27
5414,0.00021,6e-05,0.0002,0.00032,-4e-05,1e-05,-0.00041,0.0001,2,27
5415,0.00021,6e-05,0.0002,0.00032,-4e-05,1e-05,-0.00041,0.0001,2,27
5416,0.00021,6e-05,0.0002,0.00032,-4e-05,1e-05,-0.00041,0.0001,2,27
5417,0.00021,6e-05,0.0002,0.00032,-4e-05,1e-05,-0.00041,0.0001,2,27
5418,0.00021,6e-05,0.0002,0.00032,-4e-05,1e-05,-0.00041,0.0001,2,27
5419,0.00021,6e-05,0.0002,0.00032,-4e-05,1e-05,-0.00041,0.0001,2,27
5420,0.00021,6e-05,0.0002,0.00032,-4e-05,1e-05,-0.00041,0.0001,2,27
5421,0.00021,6e-05,0.0002,0.00032,-4e-05,1e-05,-0.00041,0.0001,2,27
5422,0.00021,6e-05,0.0002,0.00032,-4e-05,1e-05,-0.00041,0.0001,2,27
5423,0.00021,6e-05,0.0002,0.00032,-4e-05,1e-05,-0.00041,0.0001,2,27
5424,0.00021,6e-05,0.0002,0.00032,-4e-05,1e-05,-0.00041,0.0001,2,27
5425,0.00021,6e-05,0.0002,0.00032,-4e-05,1e-05,-0.00041,0.0001,2,27
5426,0.00021,6e-05,0.0002,0.00032,-4e-05,1e-05,-0.00041,0.0001,2,27
5427,0.00021,6e-05,0.0002,0.00032,-4e-05,1e-05,-0.00041,0.0001,2,27
5428,0.00021,6e-05,0.0002,0.00032,-4e-05,1e-05,-0.00041,0.0001,2,27
5429,0.00021,6e-05,0.0002,0.00032,-4e-05,1e-05,-0.00041,0.0001,2,27
5430,0.00021,6e-05,0.0002,0.00032,-4e-05,1e-05,-0.00041,0.0001,2,27
5431,0.00021,6e-05,0.0002,0.00032,-4e-05,1e-05,-0.00041,0.0001,2,27
5432,0.00021,6e-05,0.0002,0.00032,-4e-05,1e-05,-0.00041,0.0001,2,27
5433,0.00021,6e-05,0.0002,0.00032,-4e-05,1e-05,-0.00041,0.0001,2,27
5434,-0.00012,-1e-05,0.00015,0.0004,6e-05,4e-05,5e-05,-0.00012,2,27
5435,0.00063,2e-05,0,0,0.00016,3e-05,0.00012,0.00011,2,27
5436,0.00063,2e-05,0,0,0.00016,3e-05,0.00012,0.00011,2,27
5439,0.00063,2e-05,0,0,0.00016,3e-05,0.00012,0.00011,2,27
5440,0.00063,2e-05,0,0,0.00016,3e-05,0.00012,0.00011,2,27
5441,0.00063,2e-05,0,0,0.00016,3e-05,0.00012,0.00011,2,27
5442,0.00063,2e-05,0,0,0.00016,3e-05,0.00012,0.00011,2,27
5443,0.00063,2e-05,0,0,0.00016,3e-05,0.00012,0.00011,2,27
5444,0.00063,2e-05,0,0,0.00016,3e-05,0.00012,0.00011,2,27
5445,0.00063,2e-05,0,0,0.00016,3e-05,0.00012,0.00011,2,27
5446,0.00063,2e-05,0,0,0.00016,3e-05,0.00012,0.00011,2,27
5447,0.00063,2e-05,0,0,0.00016,3e-05,0.00012,0.00011,2,27
5448,0.00028,-0.0002,0,0.00016,5e-05,-4e-05,0.00043,0.00023,2,27
5449,-0.00011,0,2e-05,-9e-05,-0.0001,7e-05,-0.00055,-1e-05,2,27
5450,-0.00011,0,2e-05,-9e-05,-0.0001,7e-05,-0.00055,-1e-05,2,27
5451,-0.00011,0,2e-05,-9e-05,-0.0001,7e-05,-0.00055,-1e-05,2,27
5452,-0.00011,0,2e-05,-9e-05,-0.0001,7e-05,-0.00055,-1e-05,2,27
5453,-0.00011,0,2e-05,-9e-05,-0.0001,7e-05,-0.00055,-1e-05,2,27
5454,-0.00011,0,2e-05,-9e-05,-0.0001,7e-05,-0.00055,-1e-05,2,27
5455,-0.00011,0,2e-05,-9e-05,-0.0001,7e-05,-0.00055,-1e-05,2,27
5456,-0.00011,0,2e-05,-9e-05,-0.0001,7e-05,-0.00055,-1e-05,2,27
5457,-0.00011,0,2e-05,-9e-05,-0.0001,7e-05,-0.00055,-1e-05,2,27
5458,-0.00011,0,2e-05,-9e-05,-0.0001,7e-05,-0.00055,-1e-05,2,27
5459,-0.00011,0,2e-05,-9e-05,-0.0001,7e-05,-0.00055,-1e-05,2,27
5460,-0.00011,0,2e-05,-9e-05,-0.0001,7e-05,-0.00055,-1e-05,2,27
5461,-0.00011,0,2e-05,-9e-05,-0.0001,7e-05,-0.00055,-1e-05,2,27
5462,-0.00011,0,2e-05,-9e-05,-0.0001,7e-05,-0.00055,-1e-05,2,27
5463,-0.00011,0,2e-05,-9e-05,-0.0001,7e-05,-0.00055,-1e-05,2,27
5464,-0.00011,0,2e-05,-9e-05,-0.0001,7e-05,-0.00055,-1e-05,2,27
5465,-0.00011,0,2e-05,-9e-05,-0.0001,7e-05,-0.00055,-1e-05,2,27
5466,-0.00011,0,2e-05,-9e-05,-0.0001,7e-05,-0.00055,-1e-05,2,27
5467,-0.00011,0,2e-05,-9e-05,-0.0001,7e-05,-0.00055,-1e-05,2,27
5468,-0.00011,0,2e-05,-9e-05,-0.0001,7e-05,-0.00055,-1e-05,2,27
5469,-0.00011,0,2e-05,-9e-05,-0.0001,7e-05,-0.00055,-1e-05,2,27
5470,-0.00011,0,2e-05,-9e-05,-0.0001,7e-05,-0.00055,-1e-05,2,27
5471,0.00021,0.00015,0.00022,0.00071,-0.00031,-1e-05,0.00033,0.0001,2,27
5472,0.0001,4e-05,-6e-05,0.0001,9e-05,-3e-05,0.0002,9e-05,2,27
5473,0.0001,4e-05,-6e-05,0.0001,9e-05,-3e-05,0.0002,9e-05,2,27
5474,0.0001,4e-05,-6e-05,0.0001,9e-05,-3e-05,0.0002,9e-05,2,27
5475,0.0001,4e-05,-6e-05,0.0001,9e-05,-3e-05,0.0002,9e-05,2,27
5476,0.0001,4e-05,-6e-05,0.0001,9e-05,-3e-05,0.0002,9e-05,2,27
5477,0.0001,4e-05,-6e-05,0.0001,9e-05,-3e-05,0.0002,9e-05,2,27
5478,0.0001,4e-05,-6e-05,0.0001,9e-05,-3e-05,0.0002,9e-05,2,27
5479,0.0001,4e-05,-6e-05,0.0001,9e-05,-3e-05,0.0002,9e-05,2,27
5480,0.0001,4e-05,-6e-05,0.0001,9e-05,-3e-05,0.0002,9e-05,2,27
5481,0.0001,4e-05,-6e-05,0.0001,9e-05,-3e-05,0.0002,9e-05,2,27
5482,0.0001,4e-05,-6e-05,0.0001,9e-05,-3e-05,0.0002,9e-05,2,27
5483,0.0001,4e-05,-6e-05,0.0001,9e-05,-3e-05,0.0002,9e-05,2,27
5484,0.0001,4e-05,-6e-05,0.0001,9e-05,-3e-05,0.0002,9e-05,2,27
5485,0.0001,4e-05,-6e-05,0.0001,9e-05,-3e-05,0.0002,9e-05,2,27
5486,0.0001,4e-05,-6e-05,0.0001,9e-05,-3e-05,0.0002,9e-05,2,27
5489,0.0001,4e-05,-6e-05,0.0001,9e-05,-3e-05,0.0002,9e-05,2,27
5490,0.0001,4e-05,-6e-05,0.0001,9e-05,-3e-05,0.0002,9e-05,2,27
5491,0.0001,4e-05,-6e-05,0.0001,9e-05,-3e-05,0.0002,9e-05,2,27
5492,0.0001,4e-05,-6e-05,0.0001,9e-05,-3e-05,0.0002,9e-05,2,27
5493,0.0001,4e-05,-6e-05,0.0001,9e-05,-3e-05,0.0002,9e-05,2,27
5494,-0.00012,3e-05,-0.0001,2e-05,0.0003,9e-05,-1e-05,-2e-05,2,27
5495,-0.00014,3e-05,0.00016,0.00084,0.00037,-9e-05,0.00089,-2e-05,2,27
5496,-0.00014,3e-05,0.00016,0.00084,0.00037,-9e-05,0.00089,-2e-05,2,27
5497,-0.00014,3e-05,0.00016,0.00084,0.00037,-9e-05,0.00089,-2e-05,2,27
5498,-0.00014,3e-05,0.00016,0.00084,0.00037,-9e-05,0.00089,-2e-05,2,27
5499,-0.00014,3e-05,0.00016,0.00084,0.00037,-9e-05,0.00089,-2e-05,2,27
5500,-0.00014,3e-05,0.00016,0.00084,0.00037,-9e-05,0.00089,-2e-05,2,27
5501,-0.00014,3e-05,0.00016,0.00084,0.00037,-9e-05,0.00089,-2e-05,2,27
5502,-0.00014,3e-05,0.00016,0.00084,0.00037,-9e-05,0.00089,-2e-05,2,27
5503,-0.00014,3e-05,0.00016,0.00084,0.00037,-9e-05,0.00089,-2e-05,2,27
5504,-0.00014,3e-05,0.00016,0.00084,0.00037,-9e-05,0.00089,-2e-05,2,27
5505,-0.00014,3e-05,0.00016,0.00084,0.00037,-9e-05,0.00089,-2e-05,2,27
5506,-0.00014,3e-05,0.00016,0.00084,0.00037,-9e-05,0.00089,-2e-05,2,27
5507,-0.00014,3e-05,0.00016,0.00084,0.00037,-9e-05,0.00089,-2e-05,2,27
5508,-0.00013,-9e-05,-0.00039,-0.00096,5e-05,5e-05,0.00071,0.00015,2,27
5509,-6e-05,-9e-05,-0.00014,-0.0001,1e-05,4e-05,0.00041,5e-05,2,27
5510,-6e-05,-9e-05,-0.00014,-0.0001,1e-05,4e-05,0.00041,5e-05,2,27
5511,-6e-05,-9e-05,-0.00014,-0.0001,1e-05,4e-05,0.00041,5e-05,2,27
5512,-6e-05,-9e-05,-0.00014,-0.0001,1e-05,4e-05,0.00041,5e-05,2,27
5513,-6e-05,-9e-05,-0.00014,-0.0001,1e-05,4e-05,0.00041,5e-05,2,27
5514,-6e-05,-9e-05,-0.00014,-0.0001,1e-05,4e-05,0.00041,5e-05,2,27
5515,-6e-05,-9e-05,-0.00014,-0.0001,1e-05,4e-05,0.00041,5e-05,2,27
5516,-6e-05,-9e-05,-0.00014,-0.0001,1e-05,4e-05,0.00041,5e-05,2,27
5517,-6e-05,-9e-05,-0.00014,-0.0001,1e-05,4e-05,0.00041,5e-05,2,27
5518,-6e-05,-9e-05,-0.00014,-0.0001,1e-05,4e-05,0.00041,5e-05,2,27
5519,-6e-05,-9e-05,-0.00014,-0.0001,1e-05,4e-05,0.00041,5e-05,2,27
5520,-6e-05,-9e-05,-0.00014,-0.0001,1e-05,4e-05,0.00041,5e-05,2,27
5521,-6e-05,-9e-05,-0.00014,-0.0001,1e-05,4e-05,0.00041,5e-05,2,27
5522,-6e-05,-9e-05,-0.00014,-0.0001,1e-05,4e-05,0.00041,5e-05,2,27
5523,-6e-05,-9e-05,-0.00014,-0.0001,1e-05,4e-05,0.00041,5e-05,2,27
5524,-6e-05,-9e-05,-0.00014,-0.0001,1e-05,4e-05,0.00041,5e-05,2,27
5525,-6e-05,-9e-05,-0.00014,-0.0001,1e-05,4e-05,0.00041,5e-05,2,27
5526,-6e-05,-9e-05,-0.00014,-0.0001,1e-05,4e-05,0.00041,5e-05,2,27
5527,-6e-05,-9e-05,-0.00014,-0.0001,1e-05,4e-05,0.00041,5e-05,2,27
5528,-6e-05,-9e-05,-0.00014,-0.0001,1e-05,4e-05,0.00041,5e-05,2,27
5529,-6e-05,-9e-05,-0.00014,-0.0001,1e-05,4e-05,0.00041,5e-05,2,27
5530,-6e-05,-9e-05,-0.00014,-0.0001,1e-05,4e-05,0.00041,5e-05,2,27
5531,5e-05,-7e-05,4e-05,-0.00015,0,-0.00014,-0.0005,-0.00014,2,27
5532,-1e-05,8e-05,-5e-05,-1e-05,-0.00033,-2e-05,-0.00015,0,2,27
5533,-1e-05,8e-05,-5e-05,-1e-05,-0.00033,-2e-05,-0.00015,0,2,27
5534,-1e-05,8e-05,-5e-05,-1e-05,-0.00033,-2e-05,-0.00015,0,2,27
5535,-1e-05,8e-05,-5e-05,-1e-05,-0.00033,-2e-05,-0.00015,0,2,27
5536,-1e-05,8e-05,-5e-05,-1e-05,-0.00033,-2e-05,-0.00015,0,2,27
5539,-1e-05,8e-05,-5e-05,-1e-05,-0.00033,-2e-05,-0.00015,0,2,27
5540,-1e-05,8e-05,-5e-05,-1e-05,-0.00033,-2e-05,-0.00015,0,2,27
5541,-1e-05,8e-05,-5e-05,-1e-05,-0.00033,-2e-05,-0.00015,0,2,27
5542,-1e-05,8e-05,-5e-05,-1e-05,-0.00033,-2e-05,-0.00015,0,2,27
5543,-1e-05,8e-05,-5e-05,-1e-05,-0.00033,-2e-05,-0.00015,0,2,27
5544,-1e-05,8e-05,-5e-05,-1e-05,-0.00033,-2e-05,-0.00015,0,2,27
5545,-1e-05,8e-05,-5e-05,-1e-05,-0.00033,-2e-05,-0.00015,0,2,27
5546,-1e-05,8e-05,-5e-05,-1e-05,-0.00033,-2e-05,-0.00015,0,2,27
5547,-1e-05,8e-05,-5e-05,-1e-05,-0.00033,-2e-05,-0.00015,0,2,27
5548,-1e-05,8e-05,-5e-05,-1e-05,-0.00033,-2e-05,-0.00015,0,2,27
5549,-1e-05,8e-05,-5e-05,-1e-05,-0.00033,-2e-05,-0.00015,0,2,27
5550,-1e-05,8e-05,-5e-05,-1e-05,-0.00033,-2e-05,-0.00015,0,2,27
5551,-1e-05,8e-05,-5e-05,-1e-05,-0.00033,-2e-05,-0.00015,0,2,27
5552,-1e-05,8e-05,-5e-05,-1e-05,-0.00033,-2e-05,-0.00015,0,2,27
5553,-1e-05,8e-05,-5e-05,-1e-05,-0.00033,-2e-05,-0.00015,0,2,27
5554,-0.0001,-0.00015,5e-05,0.00045,0.00014,-0.00013,-0.00019,5e-05,2,27
5555,-0.0001,-4e-05,0,-6e-05,7e-05,-6e-05,-0.00096,-0.00023,2,27
5556,-0.0001,-4e-05,0,-6e-05,7e-05,-6e-05,-0.00096,-0.00023,2,27
5557,-0.0001,-4e-05,0,-6e-05,7e-05,-6e-05,-0.00096,-0.00023,2,27
5558,-0.0001,-4e-05,0,-6e-05,7e-05,-6e-05,-0.00096,-0.00023,2,27
5559,-0.0001,-4e-05,0,-6e-05,7e-05,-6e-05,-0.00096,-0.00023,2,27
5560,-0.0001,-4e-05,0,-6e-05,7e-05,-6e-05,-0.00096,-0.00023,2,27
5561,-0.0001,-4e-05,0,-6e-05,7e-05,-6e-05,-0.00096,-0.00023,2,27
5562,-0.0001,-4e-05,0,-6e-05,7e-05,-6e-05,-0.00096,-0.00023,2,27
5563,-0.0001,-4e-05,0,-6e-05,7e-05,-6e-05,-0.00096,-0.00023,2,27
5564,-0.0001,-4e-05,0,-6e-05,7e-05,-6e-05,-0.00096,-0.00023,2,27
5565,-0.0001,-4e-05,0,-6e-05,7e-05,-6e-05,-0.00096,-0.00023,2,27
5566,-0.0001,-4e-05,0,-6e-05,7e-05,-6e-05,-0.00096,-0.00023,2,27
5567,-0.0001,-4e-05,0,-6e-05,7e-05,-6e-05,-0.00096,-0.00023,2,27
5568,7e-05,6e-05,0.00031,0.00085,0.00026,3e-05,0.00022,9e-05,2,27
5569,2e-05,-8e-05,-9e-05,-0.00034,-5e-05,-2e-05,-0.00036,0,2,27
5570,2e-05,-8e-05,-9e-05,-0.00034,-5e-05,-2e-05,-0.00036,0,2,27
5571,2e-05,-8e-05,-9e-05,-0.00034,-5e-05,-2e-05,-0.00036,0,2,27
5572,2e-05,-8e-05,-9e-05,-0.00034,-5e-05,-2e-05,-0.00036,0,2,27
5573,2e-05,-8e-05,-9e-05,-0.00034,-5e-05,-2e-05,-0.00036,0,2,27
5574,2e-05,-8e-05,-9e-05,-0.00034,-5e-05,-2e-05,-0.00036,0,2,27
5575,2e-05,-8e-05,-9e-05,-0.00034,-5e-05,-2e-05,-0.00036,0,2,27
5576,2e-05,-8e-05,-9e-05,-0.00034,-5e-05,-2e-05,-0.00036,0,2,27
5577,2e-05,-8e-05,-9e-05,-0.00034,-5e-05,-2e-05,-0.00036,0,2,27
5578,2e-05,-8e-05,-9e-05,-0.00034,-5e-05,-2e-05,-0.00036,0,2,27
5579,2e-05,-8e-05,-9e-05,-0.00034,-5e-05,-2e-05,-0.00036,0,2,27
5580,2e-05,-8e-05,-9e-05,-0.00034,-5e-05,-2e-05,-0.00036,0,2,27
5581,2e-05,-8e-05,-9e-05,-0.00034,-5e-05,-2e-05,-0.00036,0,2,27
5582,2e-05,-8e-05,-9e-05,-0.00034,-5e-05,-2e-05,-0.00036,0,2,27
5583,2e-05,-8e-05,-9e-05,-0.00034,-5e-05,-2e-05,-0.00036,0,2,27
5584,2e-05,-8e-05,-9e-05,-0.00034,-5e-05,-2e-05,-0.00036,0,2,27
5585,2e-05,-8e-05,-9e-05,-0.00034,-5e-05,-2e-05,-0.00036,0,2,27
5586,2e-05,-8e-05,-9e-05,-0.00034,-5e-05,-2e-05,-0.00036,0,2,27
5589,2e-05,-8e-05,-9e-05,-0.00034,-5e-05,-2e-05,-0.00036,0,2,27
5590,2e-05,-8e-05,-9e-05,-0.00034,-5e-05,-2e-05,-0.00036,0,2,27
5591,0.0001,-3e-05,-5e-05,-0.00052,0.00017,0.00016,0.00054,9e-05,2,27
5592,-0.00015,-4e-05,-0.00017,0.00045,-9e-05,-4e-05,0.00085,0.0001,2,27
5593,-0.00015,-4e-05,-0.00017,0.00045,-9e-05,-4e-05,0.00085,0.0001,2,27
5594,-0.00015,-4e-05,-0.00017,0.00045,-9e-05,-4e-05,0.00085,0.0001,2,27
5595,-0.00015,-4e-05,-0.00017,0.00045,-9e-05,-4e-05,0.00085,0.0001,2,27
5596,-0.00015,-4e-05,-0.00017,0.00045,-9e-05,-4e-05,0.00085,0.0001,2,27
5597,-0.00015,-4e-05,-0.00017,0.00045,-9e-05,-4e-05,0.00085,0.0001,2,27
5598,-0.00015,-4e-05,-0.00017,0.00045,-9e-05,-4e-05,0.00085,0.0001,2,27
5599,-0.00015,-4e-05,-0.00017,0.00045,-9e-05,-4e-05,0.00085,0.0001,2,27
5600,-0.00015,-4e-05,-0.00017,0.00045,-9e-05,-4e-05,0.00085,0.0001,2,27
5601,-0.00015,-4e-05,-0.00017,0.00045,-9e-05,-4e-05,0.00085,0.0001,2,27
5602,-0.00015,-4e-05,-0.00017,0.00045,-9e-05,-4e-05,0.00085,0.0001,2,27
5603,-0.00015,-4e-05,-0.00017,0.00045,-9e-05,-4e-05,0.00085,0.0001,2,27
5604,-0.00015,-4e-05,-0.00017,0.00045,-9e-05,-4e-05,0.00085,0.0001,2,27
5605,-0.00015,-4e-05,-0.00017,0.00045,-9e-05,-4e-05,0.00085,0.0001,2,27
5606,-0.00015,-4e-05,-0.00017,0.00045,-9e-05,-4e-05,0.00085,0.0001,2,27
5607,-0.00015,-4e-05,-0.00017,0.00045,-9e-05,-4e-05,0.00085,0.0001,2,27
5608,-0.00015,-4e-05,-0.00017,0.00045,-9e-05,-4e-05,0.00085,0.0001,2,27
5609,-0.00015,-4e-05,-0.00017,0.00045,-9e-05,-4e-05,0.00085,0.0001,2,27
5610,-0.00015,-4e-05,-0.00017,0.00045,-9e-05,-4e-05,0.00085,0.0001,2,27
5611,-0.00015,-4e-05,-0.00017,0.00045,-9e-05,-4e-05,0.00085,0.0001,2,27
5612,-0.00015,-4e-05,-0.00017,0.00045,-9e-05,-4e-05,0.00085,0.0001,2,27
5613,-0.00015,-4e-05,-0.00017,0.00045,-9e-05,-4e-05,0.00085,0.0001,2,27
5614,0.00016,-1e-05,4e-05,-0.00011,-0.00027,-1e-05,-0.00044,7e-05,2,27
5615,0,-4e-05,-0.00013,-0.00042,-0.00018,-8e-05,2e-05,0.00016,2,27
5616,0,-4e-05,-0.00013,-0.00042,-0.00018,-8e-05,2e-05,0.00016,2,27
5617,0,-4e-05,-0.00013,-0.00042,-0.00018,-8e-05,2e-05,0.00016,2,27
5618,0,-4e-05,-0.00013,-0.00042,-0.00018,-8e-05,2e-05,0.00016,2,27
5619,0,-4e-05,-0.00013,-0.00042,-0.00018,-8e-05,2e-05,0.00016,2,27
5620,0,-4e-05,-0.00013,-0.00042,-0.00018,-8e-05,2e-05,0.00016,2,27
5621,0,-4e-05,-0.00013,-0.00042,-0.00018,-8e-05,2e-05,0.00016,2,27
5622,0,-4e-05,-0.00013,-0.00042,-0.00018,-8e-05,2e-05,0.00016,2,27
5623,0,-4e-05,-0.00013,-0.00042,-0.00018,-8e-05,2e-05,0.00016,2,27
5624,0,-4e-05,-0.00013,-0.00042,-0.00018,-8e-05,2e-05,0.00016,2,27
5625,0,-4e-05,-0.00013,-0.00042,-0.00018,-8e-05,2e-05,0.00016,2,27
5626,0,-4e-05,-0.00013,-0.00042,-0.00018,-8e-05,2e-05,0.00016,2,27
5627,0,-4e-05,-0.00013,-0.00042,-0.00018,-8e-05,2e-05,0.00016,2,27
5628,0.00037,9e-05,0,0.00032,-8e-05,9e-05,-0.00016,5e-05,2,27
5629,0.00037,9e-05,0,0.00032,-8e-05,9e-05,-0.00016,5e-05,2,27
5630,0.00037,9e-05,0,0.00032,-8e-05,9e-05,-0.00016,5e-05,2,27
5631,0.00037,9e-05,0,0.00032,-8e-05,9e-05,-0.00016,5e-05,2,27
5632,0.00037,9e-05,0,0.00032,-8e-05,9e-05,-0.00016,5e-05,2,27
5633,0.00037,9e-05,0,0.00032,-8e-05,9e-05,-0.00016,5e-05,2,27
5634,0.00037,9e-05,0,0.00032,-8e-05,9e-05,-0.00016,5e-05,2,27
5635,0.00037,9e-05,0,0.00032,-8e-05,9e-05,-0.00016,5e-05,2,27
5636,-1e-05,-0.00016,6e-05,-8e-05,-0.00027,8e-05,7e-05,5e-05,2,27
5638,-1e-05,-0.00016,6e-05,-8e-05,-0.00027,8e-05,7e-05,5e-05,2,27
5639,-1e-05,-0.00016,6e-05,-8e-05,-0.00027,8e-05,7e-05,5e-05,2,27
5640,-1e-05,-0.00016,6e-05,-8e-05,-0.00027,8e-05,7e-05,5e-05,2,27
5641,-1e-05,-0.00016,6e-05,-8e-05,-0.00027,8e-05,7e-05,5e-05,2,27
5642,-1e-05,-0.00016,6e-05,-8e-05,-0.00027,8e-05,7e-05,5e-05,2,27
5643,-1e-05,-0.00016,6e-05,-8e-05,-0.00027,8e-05,7e-05,5e-05,2,27
5644,-1e-05,-0.00016,6e-05,-8e-05,-0.00027,8e-05,7e-05,5e-05,2,27
5645,-1e-05,-0.00016,6e-05,-8e-05,-0.00027,8e-05,7e-05,5e-05,2,27
5646,-1e-05,-0.00016,6e-05,-8e-05,-0.00027,8e-05,7e-05,5e-05,2,27
5647,-1e-05,-0.00016,6e-05,-8e-05,-0.00027,8e-05,7e-05,5e-05,2,27
5648,-1e-05,-0.00016,6e-05,-8e-05,-0.00027,8e-05,7e-05,5e-05,2,27
5649,-1e-05,-0.00016,6e-05,-8e-05,-0.00027,8e-05,7e-05,5e-05,2,27
5650,-1e-05,-0.00016,6e-05,-8e-05,-0.00027,8e-05,7e-05,5e-05,2,27
5651,0.00024,-5e-05,2e-05,0.00039,1e-05,0.00015,-0.00092,9e-05,2,27
5652,-7e-05,0.00011,0.0001,-0.00035,4e-05,-0.00023,-4e-05,-0.00011,2,27
5653,-7e-05,0.00011,0.0001,-0.00035,4e-05,-0.00023,-4e-05,-0.00011,2,27
5654,-7e-05,0.00011,0.0001,-0.00035,4e-05,-0.00023,-4e-05,-0.00011,2,27
5655,-7e-05,0.00011,0.0001,-0.00035,4e-05,-0.00023,-4e-05,-0.00011,2,27
5656,-7e-05,0.00011,0.0001,-0.00035,4e-05,-0.00023,-4e-05,-0.00011,2,27
5657,-7e-05,0.00011,0.0001,-0.00035,4e-05,-0.00023,-4e-05,-0.00011,2,27
5658,-7e-05,0.00011,0.0001,-0.00035,4e-05,-0.00023,-4e-05,-0.00011,2,27
5659,-7e-05,0.00011,0.0001,-0.00035,4e-05,-0.00023,-4e-05,-0.00011,2,27
5660,-7e-05,0.00011,0.0001,-0.00035,4e-05,-0.00023,-4e-05,-0.00011,2,27
5661,-7e-05,0.00011,0.0001,-0.00035,4e-05,-0.00023,-4e-05,-0.00011,2,27
5662,-7e-05,0.00011,0.0001,-0.00035,4e-05,-0.00023,-4e-05,-0.00011,2,27
5663,-7e-05,0.00011,0.0001,-0.00035,4e-05,-0.00023,-4e-05,-0.00011,2,27
5664,-7e-05,0.00011,0.0001,-0.00035,4e-05,-0.00023,-4e-05,-0.00011,2,27
5665,-7e-05,0.00011,0.0001,-0.00035,4e-05,-0.00023,-4e-05,-0.00011,2,27
5666,-7e-05,0.00011,0.0001,-0.00035,4e-05,-0.00023,-4e-05,-0.00011,2,27
5667,-7e-05,0.00011,0.0001,-0.00035,4e-05,-0.00023,-4e-05,-0.00011,2,27
5668,-7e-05,0.00011,0.0001,-0.00035,4e-05,-0.00023,-4e-05,-0.00011,2,27
5669,-7e-05,0.00011,0.0001,-0.00035,4e-05,-0.00023,-4e-05,-0.00011,2,27
5670,-7e-05,0.00011,0.0001,-0.00035,4e-05,-0.00023,-4e-05,-0.00011,2,27
5671,-7e-05,0.00011,0.0001,-0.00035,4e-05,-0.00023,-4e-05,-0.00011,2,27
5672,-7e-05,0.00011,0.0001,-0.00035,4e-05,-0.00023,-4e-05,-0.00011,2,27
5673,-7e-05,0.00011,0.0001,-0.00035,4e-05,-0.00023,-4e-05,-0.00011,2,27
5674,-2e-05,1e-05,0.00023,8e-05,-3e-05,0,-0.00017,-2e-05,2,27
5675,0,-4e-05,-2e-05,0.0003,-6e-05,-1e-05,-0.00056,0,2,27
5676,0,-4e-05,-2e-05,0.0003,-6e-05,-1e-05,-0.00056,0,2,27
5677,0,-4e-05,-2e-05,0.0003,-6e-05,-1e-05,-0.00056,0,2,27
5678,0,-4e-05,-2e-05,0.0003,-6e-05,-1e-05,-0.00056,0,2,27
5679,0,-4e-05,-2e-05,0.0003,-6e-05,-1e-05,-0.00056,0,2,27
5680,0,-4e-05,-2e-05,0.0003,-6e-05,-1e-05,-0.00056,0,2,27
5681,0,-4e-05,-2e-05,0.0003,-6e-05,-1e-05,-0.00056,0,2,27
5682,0,-4e-05,-2e-05,0.0003,-6e-05,-1e-05,-0.00056,0,2,27
5683,0,-4e-05,-2e-05,0.0003,-6e-05,-1e-05,-0.00056,0,2,27
5684,0,-4e-05,-2e-05,0.0003,-6e-05,-1e-05,-0.00056,0,2,27
5685,0,-4e-05,-2e-05,0.0003,-6e-05,-1e-05,-0.00056,0,2,27
5686,0,-4e-05,-2e-05,0.0003,-6e-05,-1e-05,-0.00056,0,2,27
5688,6e-05,2e-05,2e-05,-0.00024,0.00021,-2e-05,0.00014,5e-05,2,27
5689,-1e-05,1e-05,6e-05,1e-05,0.00015,4e-05,-0.00085,-0.00017,2,27
5690,-1e-05,1e-05,6e-05,1e-05,0.00015,4e-05,-0.00085,-0.00017,2,27
5691,-1e-05,1e-05,6e-05,1e-05,0.00015,4e-05,-0.00085,-0.00017,2,27
5692,-1e-05,1e-05,6e-05,1e-05,0.00015,4e-05,-0.00085,-0.00017,2,27
5693,-1e-05,1e-05,6e-05,1e-05,0.00015,4e-05,-0.00085,-0.00017,2,27
5694,-1e-05,1e-05,6e-05,1e-05,0.00015,4e-05,-0.00085,-0.00017,2,27
5695,-1e-05,1e-05,6e-05,1e-05,0.00015,4e-05,-0.00085,-0.00017,2,27
5696,-1e-05,1e-05,6e-05,1e-05,0.00015,4e-05,-0.00085,-0.00017,2,27
5697,-1e-05,1e-05,6e-05,1e-05,0.00015,4e-05,-0.00085,-0.00017,2,27
5698,-1e-05,1e-05,6e-05,1e-05,0.00015,4e-05,-0.00085,-0.00017,2,27
5699,-1e-05,1e-05,6e-05,1e-05,0.00015,4e-05,-0.00085,-0.00017,2,27
5700,-1e-05,1e-05,6e-05,1e-05,0.00015,4e-05,-0.00085,-0.00017,2,27
5701,-1e-05,1e-05,6e-05,1e-05,0.00015,4e-05,-0.00085,-0.00017,2,27
5702,-1e-05,1e-05,6e-05,1e-05,0.00015,4e-05,-0.00085,-0.00017,2,27
5703,-1e-05,1e-05,6e-05,1e-05,0.00015,4e-05,-0.00085,-0.00017,2,27
5704,-1e-05,1e-05,6e-05,1e-05,0.00015,4e-05,-0.00085,-0.00017,2,27
5705,-1e-05,1e-05,6e-05,1e-05,0.00015,4e-05,-0.00085,-0.00017,2,27
5706,-1e-05,1e-05,6e-05,1e-05,0.00015,4e-05,-0.00085,-0.00017,2,27
5707,-1e-05,1e-05,6e-05,1e-05,0.00015,4e-05,-0.00085,-0.00017,2,27
5708,-1e-05,1e-05,6e-05,1e-05,0.00015,4e-05,-0.00085,-0.00017,2,27
5709,-1e-05,1e-05,6e-05,1e-05,0.00015,4e-05,-0.00085,-0.00017,2,27
5710,-1e-05,1e-05,6e-05,1e-05,0.00015,4e-05,-0.00085,-0.00017,2,27
5711,-0.0001,3e-05,1e-05,6e-05,0.00041,-0.00012,0.00041,2e-05,2,27
5712,6e-05,0,3e-05,0.00027,0.00038,0.00012,-0.00083,-4e-05,2,27
5713,6e-05,0,3e-05,0.00027,0.00038,0.00012,-0.00083,-4e-05,2,27
5714,6e-05,0,3e-05,0.00027,0.00038,0.00012,-0.00083,-4e-05,2,27
5715,6e-05,0,3e-05,0.00027,0.00038,0.00012,-0.00083,-4e-05,2,27
5716,6e-05,0,3e-05,0.00027,0.00038,0.00012,-0.00083,-4e-05,2,27
5717,6e-05,0,3e-05,0.00027,0.00038,0.00012,-0.00083,-4e-05,2,27
5718,6e-05,0,3e-05,0.00027,0.00038,0.00012,-0.00083,-4e-05,2,27
5719,6e-05,0,3e-05,0.00027,0.00038,0.00012,-0.00083,-4e-05,2,27
5720,6e-05,0,3e-05,0.00027,0.00038,0.00012,-0.00083,-4e-05,2,27
5721,6e-05,0,3e-05,0.00027,0.00038,0.00012,-0.00083,-4e-05,2,27
5722,6e-05,0,3e-05,0.00027,0.00038,0.00012,-0.00083,-4e-05,2,27
5723,6e-05,0,3e-05,0.00027,0.00038,0.00012,-0.00083,-4e-05,2,27
5724,6e-05,0,3e-05,0.00027,0.00038,0.00012,-0.00083,-4e-05,2,27
5725,6e-05,0,3e-05,0.00027,0.00038,0.00012,-0.00083,-4e-05,2,27
5726,6e-05,0,3e-05,0.00027,0.00038,0.00012,-0.00083,-4e-05,2,27
5727,6e-05,0,3e-05,0.00027,0.00038,0.00012,-0.00083,-4e-05,2,27
5728,6e-05,0,3e-05,0.00027,0.00038,0.00012,-0.00083,-4e-05,2,27
5729,6e-05,0,3e-05,0.00027,0.00038,0.00012,-0.00083,-4e-05,2,27
5730,6e-05,0,3e-05,0.00027,0.00038,0.00012,-0.00083,-4e-05,2,27
5731,6e-05,0,3e-05,0.00027,0.00038,0.00012,-0.00083,-4e-05,2,27
5732,6e-05,0,3e-05,0.00027,0.00038,0.00012,-0.00083,-4e-05,2,27
5733,6e-05,0,3e-05,0.00027,0.00038,0.00012,-0.00083,-4e-05,2,27
5734,0.00027,9e-05,4e-05,0.00031,2e-05,0.00011,0.00078,0.0002,2,27
5735,0.00011,3e-05,-0.00018,-0.00054,0.00012,-8e-05,0.00046,0,2,27
5736,0.00011,3e-05,-0.00018,-0.00054,0.00012,-8e-05,0.00046,0,2,27
5738,0.00011,3e-05,-0.00018,-0.00054,0.00012,-8e-05,0.00046,0,2,27
5739,0.00011,3e-05,-0.00018,-0.00054,0.00012,-8e-05,0.00046,0,2,27
5740,0.00011,3e-05,-0.00018,-0.00054,0.00012,-8e-05,0.00046,0,2,27
5741,0.00011,3e-05,-0.00018,-0.00054,0.00012,-8e-05,0.00046,0,2,27
5742,0.00011,3e-05,-0.00018,-0.00054,0.00012,-8e-05,0.00046,0,2,27
5743,0.00011,3e-05,-0.00018,-0.00054,0.00012,-8e-05,0.00046,0,2,27
5744,0.00011,3e-05,-0.00018,-0.00054,0.00012,-8e-05,0.00046,0,2,27
5745,0.00011,3e-05,-0.00018,-0.00054,0.00012,-8e-05,0.00046,0,2,27
5746,0.00011,3e-05,-0.00018,-0.00054,0.00012,-8e-05,0.00046,0,2,27
5747,0.00011,3e-05,-0.00018,-0.00054,0.00012,-8e-05,0.00046,0,2,27
5748,-0.00028,-2e-05,1e-05,0.00027,-2e-05,0.00013,-0.00011,-0.00016,2,27
5749,-0.00028,-2e-05,1e-05,0.00027,-2e-05,0.00013,-0.00011,-0.00016,2,27
5750,-0.00028,-2e-05,1e-05,0.00027,-2e-05,0.00013,-0.00011,-0.00016,2,27
5751,-0.00028,-2e-05,1e-05,0.00027,-2e-05,0.00013,-0.00011,-0.00016,2,27
5752,-0.00028,-2e-05,1e-05,0.00027,-2e-05,0.00013,-0.00011,-0.00016,2,27
5753,-0.00028,-2e-05,1e-05,0.00027,-2e-05,0.00013,-0.00011,-0.00016,2,27
5754,-0.00028,-2e-05,1e-05,0.00027,-2e-05,0.00013,-0.00011,-0.00016,2,27
5755,-0.00028,-2e-05,1e-05,0.00027,-2e-05,0.00013,-0.00011,-0.00016,2,27
5756,1e-05,-3e-05,0.0002,0.00042,7e-05,3e-05,-9e-05,0,2,27
5757,1e-05,-3e-05,0.0002,0.00042,7e-05,3e-05,-9e-05,0,2,27
5758,1e-05,-3e-05,0.0002,0.00042,7e-05,3e-05,-9e-05,0,2,27
5759,1e-05,-3e-05,0.0002,0.00042,7e-05,3e-05,-9e-05,0,2,27
5760,1e-05,-3e-05,0.0002,0.00042,7e-05,3e-05,-9e-05,0,2,27
5761,1e-05,-3e-05,0.0002,0.00042,7e-05,3e-05,-9e-05,0,2,27
5762,1e-05,-3e-05,0.0002,0.00042,7e-05,3e-05,-9e-05,0,2,27
5763,1e-05,-3e-05,0.0002,0.00042,7e-05,3e-05,-9e-05,0,2,27
5764,1e-05,-3e-05,0.0002,0.00042,7e-05,3e-05,-9e-05,0,2,27
5765,1e-05,-3e-05,0.0002,0.00042,7e-05,3e-05,-9e-05,0,2,27
5766,1e-05,-3e-05,0.0002,0.00042,7e-05,3e-05,-9e-05,0,2,27
5767,1e-05,-3e-05,0.0002,0.00042,7e-05,3e-05,-9e-05,0,2,27
5768,1e-05,-3e-05,0.0002,0.00042,7e-05,3e-05,-9e-05,0,2,27
5769,1e-05,-3e-05,0.0002,0.00042,7e-05,3e-05,-9e-05,0,2,27
5770,1e-05,-3e-05,0.0002,0.00042,7e-05,3e-05,-9e-05,0,2,27
5771,2e-05,8e-05,0.0002,9e-05,-9e-05,4e-05,-0.00055,-3e-05,2,27
5772,-0.00021,-0.00014,-0.00032,-0.00063,-0.00025,-5e-05,0.00015,-4e-05,2,27
5773,-0.00021,-0.00014,-0.00032,-0.00063,-0.00025,-5e-05,0.00015,-4e-05,2,27
5774,-0.00021,-0.00014,-0.00032,-0.00063,-0.00025,-5e-05,0.00015,-4e-05,2,27
5775,-0.00021,-0.00014,-0.00032,-0.00063,-0.00025,-5e-05,0.00015,-4e-05,2,27
5776,-0.00021,-0.00014,-0.00032,-0.00063,-0.00025,-5e-05,0.00015,-4e-05,2,27
5777,-0.00021,-0.00014,-0.00032,-0.00063,-0.00025,-5e-05,0.00015,-4e-05,2,27
5778,-0.00021,-0.00014,-0.00032,-0.00063,-0.00025,-5e-05,0.00015,-4e-05,2,27
5779,-0.00021,-0.00014,-0.00032,-0.00063,-0.00025,-5e-05,0.00015,-4e-05,2,27
5780,-0.00021,-0.00014,-0.00032,-0.00063,-0.00025,-5e-05,0.00015,-4e-05,2,27
5781,-0.00021,-0.00014,-0.00032,-0.00063,-0.00025,-5e-05,0.00015,-4e-05,2,27
5782,-0.00021,-0.00014,-0.00032,-0.00063,-0.00025,-5e-05,0.00015,-4e-05,2,27
5783,-0.00021,-0.00014,-0.00032,-0.00063,-0.00025,-5e-05,0.00015,-4e-05,2,27
5784,-0.00021,-0.00014,-0.00032,-0.00063,-0.00025,-5e-05,0.00015,-4e-05,2,27
5785,-0.00021,-0.00014,-0.00032,-0.00063,-0.00025,-5e-05,0.00015,-4e-05,2,27
5786,-0.00021,-0.00014,-0.00032,-0.00063,-0.00025,-5e-05,0.00015,-4e-05,2,27
5788,-0.00021,-0.00014,-0.00032,-0.00063,-0.00025,-5e-05,0.00015,-4e-05,2,27
5789,-0.00021,-0.00014,-0.00032,-0.00063,-0.00025,-5e-05,0.00015,-4e-05,2,27
5790,-0.00021,-0.00014,-0.00032,-0.00063,-0.00025,-5e-05,0.00015,-4e-05,2,27
5791,-0.00021,-0.00014,-0.00032,-0.00063,-0.00025,-5e-05,0.00015,-4e-05,2,27
5792,-0.00021,-0.00014,-0.00032,-0.00063,-0.00025,-5e-05,0.00015,-4e-05,2,27
5793,-0.00021,-0.00014,-0.00032,-0.00063,-0.00025,-5e-05,0.00015,-4e-05,2,27
5794,-0.0001,0,0,0.00047,-0.00047,-2e-05,-0.00011,9e-05,2,27
5795,9e-05,2e-05,5e-05,-0.00027,-8e-05,3e-05,0.00046,0.0002,2,27
5796,9e-05,2e-05,5e-05,-0.00027,-8e-05,3e-05,0.00046,0.0002,2,27
5797,9e-05,2e-05,5e-05,-0.00027,-8e-05,3e-05,0.00046,0.0002,2,27
5798,9e-05,2e-05,5e-05,-0.00027,-8e-05,3e-05,0.00046,0.0002,2,27
5799,9e-05,2e-05,5e-05,-0.00027,-8e-05,3e-05,0.00046,0.0002,2,27
5800,9e-05,2e-05,5e-05,-0.00027,-8e-05,3e-05,0.00046,0.0002,2,27
5801,9e-05,2e-05,5e-05,-0.00027,-8e-05,3e-05,0.00046,0.0002,2,27
5802,9e-05,2e-05,5e-05,-0.00027,-8e-05,3e-05,0.00046,0.0002,2,27
5803,9e-05,2e-05,5e-05,-0.00027,-8e-05,3e-05,0.00046,0.0002,2,27
5804,9e-05,2e-05,5e-05,-0.00027,-8e-05,3e-05,0.00046,0.0002,2,27
5805,9e-05,2e-05,5e-05,-0.00027,-8e-05,3e-05,0.00046,0.0002,2,27
5806,9e-05,2e-05,5e-05,-0.00027,-8e-05,3e-05,0.00046,0.0002,2,27
5807,9e-05,2e-05,5e-05,-0.00027,-8e-05,3e-05,0.00046,0.0002,2,27
5808,0.00022,9e-05,3e-05,-0.00018,0.0001,-4e-05,0.00053,1e-05,2,27
5809,0.00022,9e-05,3e-05,-0.00018,0.0001,-4e-05,0.00053,1e-05,2,27
5810,0.00022,9e-05,3e-05,-0.00018,0.0001,-4e-05,0.00053,1e-05,2,27
5811,0.00022,9e-05,3e-05,-0.00018,0.0001,-4e-05,0.00053,1e-05,2,27
5812,0.00022,9e-05,3e-05,-0.00018,0.0001,-4e-05,0.00053,1e-05,2,27
5813,0.00022,9e-05,3e-05,-0.00018,0.0001,-4e-05,0.00053,1e-05,2,27
5814,0.00022,9e-05,3e-05,-0.00018,0.0001,-4e-05,0.00053,1e-05,2,27
5815,0.00022,9e-05,3e-05,-0.00018,0.0001,-4e-05,0.00053,1e-05,2,27
5816,5e-05,-8e-05,-0.00011,-0.00087,-0.00029,0.0001,0.00019,-1e-05,2,27
5817,5e-05,-8e-05,-0.00011,-0.00087,-0.00029,0.0001,0.00019,-1e-05,2,27
5818,5e-05,-8e-05,-0.00011,-0.00087,-0.00029,0.0001,0.00019,-1e-05,2,27
5819,5e-05,-8e-05,-0.00011,-0.00087,-0.00029,0.0001,0.00019,-1e-05,2,27
5820,5e-05,-8e-05,-0.00011,-0.00087,-0.00029,0.0001,0.00019,-1e-05,2,27
5821,5e-05,-8e-05,-0.00011,-0.00087,-0.00029,0.0001,0.00019,-1e-05,2,27
5822,5e-05,-8e-05,-0.00011,-0.00087,-0.00029,0.0001,0.00019,-1e-05,2,27
5823,5e-05,-8e-05,-0.00011,-0.00087,-0.00029,0.0001,0.00019,-1e-05,2,27
5824,5e-05,-8e-05,-0.00011,-0.00087,-0.00029,0.0001,0.00019,-1e-05,2,27
5825,5e-05,-8e-05,-0.00011,-0.00087,-0.00029,0.0001,0.00019,-1e-05,2,27
5826,5e-05,-8e-05,-0.00011,-0.00087,-0.00029,0.0001,0.00019,-1e-05,2,27
5827,5e-05,-8e-05,-0.00011,-0.00087,-0.00029,0.0001,0.00019,-1e-05,2,27
5828,5e-05,-8e-05,-0.00011,-0.00087,-0.00029,0.0001,0.00019,-1e-05,2,27
5829,5e-05,-8e-05,-0.00011,-0.00087,-0.00029,0.0001,0.00019,-1e-05,2,27
5830,5e-05,-8e-05,-0.00011,-0.00087,-0.00029,0.0001,0.00019,-1e-05,2,27
5831,-0.00017,4e-05,5e-05,3e-05,-0.00021,-0.0001,-0.00024,-0.00014,2,27
5832,3e-05,8e-05,4e-05,0.00048,0.0002,1e-05,-0.00044,6e-05,2,27
5833,3e-05,8e-05,4e-05,0.00048,0.0002,1e-05,-0.00044,6e-05,2,27
5834,3e-05,8e-05,4e-05,0.00048,0.0002,1e-05,-0.00044,6e-05,2,27
5835,3e-05,8e-05,4e-05,0.00048,0.0002,1e-05,-0.00044,6e-05,2,27
5836,3e-05,8e-05,4e-05,0.00048,0.0002,1e-05,-0.00044,6e-05,2,27
5839,3e-05,8e-05,4e-05,0.00048,0.0002,1e-05,-0.00044,6e-05,2,27
5840,3e-05,8e-05,4e-05,0.00048,0.0002,1e-05,-0.00044,6e-05,2,27
5841,3e-05,8e-05,4e-05,0.00048,0.0002,1e-05,-0.00044,6e-05,2,27
5842,3e-05,8e-05,4e-05,0.00048,0.0002,1e-05,-0.00044,6e-05,2,27
5843,3e-05,8e-05,4e-05,0.00048,0.0002,1e-05,-0.00044,6e-05,2,27
5844,3e-05,8e-05,4e-05,0.00048,0.0002,1e-05,-0.00044,6e-05,2,27
5845,3e-05,8e-05,4e-05,0.00048,0.0002,1e-05,-0.00044,6e-05,2,27
5846,3e-05,8e-05,4e-05,0.00048,0.0002,1e-05,-0.00044,6e-05,2,27
5847,3e-05,8e-05,4e-05,0.00048,0.0002,1e-05,-0.00044,6e-05,2,27
5848,3e-05,8e-05,4e-05,0.00048,0.0002,1e-05,-0.00044,6e-05,2,27
5849,3e-05,8e-05,4e-05,0.00048,0.0002,1e-05,-0.00044,6e-05,2,27
5850,3e-05,8e-05,4e-05,0.00048,0.0002,1e-05,-0.00044,6e-05,2,27
5851,3e-05,8e-05,4e-05,0.00048,0.0002,1e-05,-0.00044,6e-05,2,27
5852,3e-05,8e-05,4e-05,0.00048,0.0002,1e-05,-0.00044,6e-05,2,27
5853,3e-05,8e-05,4e-05,0.00048,0.0002,1e-05,-0.00044,6e-05,2,27
5854,-5e-05,-3e-05,-0.0001,-0.00031,-7e-05,-0.00013,-0.00053,-0.00021,2,27
5855,-0.00014,-5e-05,2e-05,0.00049,-6e-05,0,1e-05,-0.00011,2,27
5856,-0.00014,-5e-05,2e-05,0.00049,-6e-05,0,1e-05,-0.00011,2,27
5857,-0.00014,-5e-05,2e-05,0.00049,-6e-05,0,1e-05,-0.00011,2,27
5858,-0.00014,-5e-05,2e-05,0.00049,-6e-05,0,1e-05,-0.00011,2,27
5859,-0.00014,-5e-05,2e-05,0.00049,-6e-05,0,1e-05,-0.00011,2,27
5860,-0.00014,-5e-05,2e-05,0.00049,-6e-05,0,1e-05,-0.00011,2,27
5861,-0.00014,-5e-05,2e-05,0.00049,-6e-05,0,1e-05,-0.00011,2,27
5862,-0.00014,-5e-05,2e-05,0.00049,-6e-05,0,1e-05,-0.00011,2,27
5863,-0.00014,-5e-05,2e-05,0.00049,-6e-05,0,1e-05,-0.00011,2,27
5864,-0.00014,-5e-05,2e-05,0.00049,-6e-05,0,1e-05,-0.00011,2,27
5865,-0.00014,-5e-05,2e-05,0.00049,-6e-05,0,1e-05,-0.00011,2,27
5866,-0.00014,-5e-05,2e-05,0.00049,-6e-05,0,1e-05,-0.00011,2,27
5867,-0.00014,-5e-05,2e-05,0.00049,-6e-05,0,1e-05,-0.00011,2,27
5868,-9e-05,-8e-05,-0.00027,-0.00068,-0.0001,-7e-05,0.00035,0.0001,2,27
5869,-9e-05,-8e-05,-0.00027,-0.00068,-0.0001,-7e-05,0.00035,0.0001,2,27
5870,-9e-05,-8e-05,-0.00027,-0.00068,-0.0001,-7e-05,0.00035,0.0001,2,27
5871,-9e-05,-8e-05,-0.00027,-0.00068,-0.0001,-7e-05,0.00035,0.0001,2,27
5872,-9e-05,-8e-05,-0.00027,-0.00068,-0.0001,-7e-05,0.00035,0.0001,2,27
5873,-9e-05,-8e-05,-0.00027,-0.00068,-0.0001,-7e-05,0.00035,0.0001,2,27
5874,-9e-05,-8e-05,-0.00027,-0.00068,-0.0001,-7e-05,0.00035,0.0001,2,27
5875,-9e-05,-8e-05,-0.00027,-0.00068,-0.0001,-7e-05,0.00035,0.0001,2,27
5876,0,-4e-05,6e-05,8e-05,-0.00035,-0.00011,-0.00034,2e-05,2,27
5877,0,-4e-05,6e-05,8e-05,-0.00035,-0.00011,-0.00034,2e-05,2,27
5878,0,-4e-05,6e-05,8e-05,-0.00035,-0.00011,-0.00034,2e-05,2,27
5879,0,-4e-05,6e-05,8e-05,-0.00035,-0.00011,-0.00034,2e-05,2,27
5880,0,-4e-05,6e-05,8e-05,-0.00035,-0.00011,-0.00034,2e-05,2,27
5881,0,-4e-05,6e-05,8e-05,-0.00035,-0.00011,-0.00034,2e-05,2,27
5882,0,-4e-05,6e-05,8e-05,-0.00035,-0.00011,-0.00034,2e-05,2,27
5883,0,-4e-05,6e-05,8e-05,-0.00035,-0.00011,-0.00034,2e-05,2,27
5884,0,-4e-05,6e-05,8e-05,-0.00035,-0.00011,-0.00034,2e-05,2,27
5885,0,-4e-05,6e-05,8e-05,-0.00035,-0.00011,-0.00034,2e-05,2,27
5886,0,-4e-05,6e-05,8e-05,-0.00035,-0.00011,-0.00034,2e-05,2,27
5888,0,-4e-05,6e-05,8e-05,-0.00035,-0.00011,-0.00034,2e-05,2,27
5889,0,-4e-05,6e-05,8e-05,-0.00035,-0.00011,-0.00034,2e-05,2,27
5890,0,-4e-05,6e-05,8e-05,-0.00035,-0.00011,-0.00034,2e-05,2,27
5891,3e-05,-3e-05,-2e-05,4e-05,-0.00015,6e-05,0.00023,0.00011,2,27
5892,-0.0003,-1e-05,-5e-05,-0.00011,-7e-05,-0.0001,-0.00017,-0.00024,2,27
5893,-0.0003,-1e-05,-5e-05,-0.00011,-7e-05,-0.0001,-0.00017,-0.00024,2,27
5894,-0.0003,-1e-05,-5e-05,-0.00011,-7e-05,-0.0001,-0.00017,-0.00024,2,27
5895,-0.0003,-1e-05,-5e-05,-0.00011,-7e-05,-0.0001,-0.00017,-0.00024,2,27
5896,-0.0003,-1e-05,-5e-05,-0.00011,-7e-05,-0.0001,-0.00017,-0.00024,2,27
5897,-0.0003,-1e-05,-5e-05,-0.00011,-7e-05,-0.0001,-0.00017,-0.00024,2,27
5898,-0.0003,-1e-05,-5e-05,-0.00011,-7e-05,-0.0001,-0.00017,-0.00024,2,27
5899,-0.0003,-1e-05,-5e-05,-0.00011,-7e-05,-0.0001,-0.00017,-0.00024,2,27
5900,-0.0003,-1e-05,-5e-05,-0.00011,-7e-05,-0.0001,-0.00017,-0.00024,2,27
5901,-0.0003,-1e-05,-5e-05,-0.00011,-7e-05,-0.0001,-0.00017,-0.00024,2,27
5902,-0.0003,-1e-05,-5e-05,-0.00011,-7e-05,-0.0001,-0.00017,-0.00024,2,27
5903,-0.0003,-1e-05,-5e-05,-0.00011,-7e-05,-0.0001,-0.00017,-0.00024,2,27
5904,-0.0003,-1e-05,-5e-05,-0.00011,-7e-05,-0.0001,-0.00017,-0.00024,2,27
5905,-0.0003,-1e-05,-5e-05,-0.00011,-7e-05,-0.0001,-0.00017,-0.00024,2,27
5906,-0.0003,-1e-05,-5e-05,-0.00011,-7e-05,-0.0001,-0.00017,-0.00024,2,27
5907,-0.0003,-1e-05,-5e-05,-0.00011,-7e-05,-0.0001,-0.00017,-0.00024,2,27
5908,-0.0003,-1e-05,-5e-05,-0.00011,-7e-05,-0.0001,-0.00017,-0.00024,2,27
5909,-0.0003,-1e-05,-5e-05,-0.00011,-7e-05,-0.0001,-0.00017,-0.00024,2,27
5910,-0.0003,-1e-05,-5e-05,-0.00011,-7e-05,-0.0001,-0.00017,-0.00024,2,27
5911,-0.0003,-1e-05,-5e-05,-0.00011,-7e-05,-0.0001,-0.00017,-0.00024,2,27
5912,-0.0003,-1e-05,-5e-05,-0.00011,-7e-05,-0.0001,-0.00017,-0.00024,2,27
5913,-0.0003,-1e-05,-5e-05,-0.00011,-7e-05,-0.0001,-0.00017,-0.00024,2,27
5914,-0.00022,-5e-05,3e-05,-0.00047,-0.00024,-3e-05,-0.00061,-0.00013,2,27
5915,-6e-05,0.00015,0.00014,0.00053,4e-05,0.00016,0.00086,1e-05,2,27
5916,-6e-05,0.00015,0.00014,0.00053,4e-05,0.00016,0.00086,1e-05,2,27
5917,-6e-05,0.00015,0.00014,0.00053,4e-05,0.00016,0.00086,1e-05,2,27
5918,-6e-05,0.00015,0.00014,0.00053,4e-05,0.00016,0.00086,1e-05,2,27
5919,-6e-05,0.00015,0.00014,0.00053,4e-05,0.00016,0.00086,1e-05,2,27
5920,-6e-05,0.00015,0.00014,0.00053,4e-05,0.00016,0.00086,1e-05,2,27
5921,-6e-05,0.00015,0.00014,0.00053,4e-05,0.00016,0.00086,1e-05,2,27
5922,-6e-05,0.00015,0.00014,0.00053,4e-05,0.00016,0.00086,1e-05,2,27
5923,-6e-05,0.00015,0.00014,0.00053,4e-05,0.00016,0.00086,1e-05,2,27
5924,-6e-05,0.00015,0.00014,0.00053,4e-05,0.00016,0.00086,1e-05,2,27
5925,-6e-05,0.00015,0.00014,0.00053,4e-05,0.00016,0.00086,1e-05,2,27
5926,-6e-05,0.00015,0.00014,0.00053,4e-05,0.00016,0.00086,1e-05,2,27
5927,-0.00023,1e-05,2e-05,0.00093,0.00031,-5e-05,0.00048,-2e-05,2,27
5928,-0.00023,1e-05,2e-05,0.00093,0.00031,-5e-05,0.00048,-2e-05,2,27
5929,-0.00023,1e-05,2e-05,0.00093,0.00031,-5e-05,0.00048,-2e-05,2,27
5930,-0.00023,1e-05,2e-05,0.00093,0.00031,-5e-05,0.00048,-2e-05,2,27
5931,-0.00023,1e-05,2e-05,0.00093,0.00031,-5e-05,0.00048,-2e-05,2,27
5932,-0.00023,1e-05,2e-05,0.00093,0.00031,-5e-05,0.00048,-2e-05,2,27
5933,-0.00023,1e-05,2e-05,0.00093,0.00031,-5e-05,0.00048,-2e-05,2,27
5934,-0.00023,1e-05,2e-05,0.00093,0.00031,-5e-05,0.00048,-2e-05,2,27
5935,-0.00023,1e-05,2e-05,0.00093,0.00031,-5e-05,0.00048,-2e-05,2,27
5936,6e-05,9e-05,7e-05,8e-05,8e-05,0,-0.00069,-0.0001,2,27
5938,6e-05,9e-05,7e-05,8e-05,8e-05,0,-0.00069,-0.0001,2,27
5939,6e-05,9e-05,7e-05,8e-05,8e-05,0,-0.00069,-0.0001,2,27
5940,6e-05,9e-05,7e-05,8e-05,8e-05,0,-0.00069,-0.0001,2,27
5941,6e-05,9e-05,7e-05,8e-05,8e-05,0,-0.00069,-0.0001,2,27
5942,6e-05,9e-05,7e-05,8e-05,8e-05,0,-0.00069,-0.0001,2,27
5943,6e-05,9e-05,7e-05,8e-05,8e-05,0,-0.00069,-0.0001,2,27
5944,6e-05,9e-05,7e-05,8e-05,8e-05,0,-0.00069,-0.0001,2,27
5945,6e-05,9e-05,7e-05,8e-05,8e-05,0,-0.00069,-0.0001,2,27
5946,6e-05,9e-05,7e-05,8e-05,8e-05,0,-0.00069,-0.0001,2,27
5947,6e-05,9e-05,7e-05,8e-05,8e-05,0,-0.00069,-0.0001,2,27
5948,6e-05,9e-05,7e-05,8e-05,8e-05,0,-0.00069,-0.0001,2,27
5949,6e-05,9e-05,7e-05,8e-05,8e-05,0,-0.00069,-0.0001,2,27
5950,6e-05,9e-05,7e-05,8e-05,8e-05,0,-0.00069,-0.0001,2,27
5951,-8e-05,-2e-05,8e-05,5e-05,0.00037,0.00014,0.00035,-6e-05,2,27
5952,6e-05,-8e-05,-0.00041,-0.00072,0.00017,-0.0002,-0.00041,-4e-05,2,27
5953,6e-05,-8e-05,-0.00041,-0.00072,0.00017,-0.0002,-0.00041,-4e-05,2,27
5954,6e-05,-8e-05,-0.00041,-0.00072,0.00017,-0.0002,-0.00041,-4e-05,2,27
5955,6e-05,-8e-05,-0.00041,-0.00072,0.00017,-0.0002,-0.00041,-4e-05,2,27
5956,6e-05,-8e-05,-0.00041,-0.00072,0.00017,-0.0002,-0.00041,-4e-05,2,27
5957,6e-05,-8e-05,-0.00041,-0.00072,0.00017,-0.0002,-0.00041,-4e-05,2,27
5958,6e-05,-8e-05,-0.00041,-0.00072,0.00017,-0.0002,-0.00041,-4e-05,2,27
5959,6e-05,-8e-05,-0.00041,-0.00072,0.00017,-0.0002,-0.00041,-4e-05,2,27
5960,6e-05,-8e-05,-0.00041,-0.00072,0.00017,-0.0002,-0.00041,-4e-05,2,27
5961,6e-05,-8e-05,-0.00041,-0.00072,0.00017,-0.0002,-0.00041,-4e-05,2,27
5962,6e-05,-8e-05,-0.00041,-0.00072,0.00017,-0.0002,-0.00041,-4e-05,2,27
5963,6e-05,-8e-05,-0.00041,-0.00072,0.00017,-0.0002,-0.00041,-4e-05,2,27
5964,6e-05,-8e-05,-0.00041,-0.00072,0.00017,-0.0002,-0.00041,-4e-05,2,27
5965,6e-05,-8e-05,-0.00041,-0.00072,0.00017,-0.0002,-0.00041,-4e-05,2,27
5966,6e-05,-8e-05,-0.00041,-0.00072,0.00017,-0.0002,-0.00041,-4e-05,2,27
5967,6e-05,-8e-05,-0.00041,-0.00072,0.00017,-0.0002,-0.00041,-4e-05,2,27
5968,6e-05,-8e-05,-0.00041,-0.00072,0.00017,-0.0002,-0.00041,-4e-05,2,27
5969,6e-05,-8e-05,-0.00041,-0.00072,0.00017,-0.0002,-0.00041,-4e-05,2,27
5970,6e-05,-8e-05,-0.00041,-0.00072,0.00017,-0.0002,-0.00041,-4e-05,2,27
5971,6e-05,-8e-05,-0.00041,-0.00072,0.00017,-0.0002,-0.00041,-4e-05,2,27
5972,6e-05,-8e-05,-0.00041,-0.00072,0.00017,-0.0002,-0.00041,-4e-05,2,27
5973,6e-05,-8e-05,-0.00041,-0.00072,0.00017,-0.0002,-0.00041,-4e-05,2,27
5974,-0.00016,-9e-05,0,0.00034,0.00036,-3e-05,-0.00026,0,2,27
5975,6e-05,1e-05,0.00022,0.00026,0.0001,-7e-05,-0.00012,3e-05,2,27
5976,6e-05,1e-05,0.00022,0.00026,0.0001,-7e-05,-0.00012,3e-05,2,27
5977,6e-05,1e-05,0.00022,0.00026,0.0001,-7e-05,-0.00012,3e-05,2,27
5978,6e-05,1e-05,0.00022,0.00026,0.0001,-7e-05,-0.00012,3e-05,2,27
5979,6e-05,1e-05,0.00022,0.00026,0.0001,-7e-05,-0.00012,3e-05,2,27
5980,6e-05,1e-05,0.00022,0.00026,0.0001,-7e-05,-0.00012,3e-05,2,27
5981,6e-05,1e-05,0.00022,0.00026,0.0001,-7e-05,-0.00012,3e-05,2,27
5982,6e-05,1e-05,0.00022,0.00026,0.0001,-7e-05,-0.00012,3e-05,2,27
5983,6e-05,1e-05,0.00022,0.00026,0.0001,-7e-05,-0.00012,3e-05,2,27
5984,6e-05,1e-05,0.00022,0.00026,0.0001,-7e-05,-0.00012,3e-05,2,27
5985,6e-05,1e-05,0.00022,0.00026,0.0001,-7e-05,-0.00012,3e-05,2,27
5986,6e-05,1e-05,0.00022,0.00026,0.0001,-7e-05,-0.00012,3e-05,2,27
5988,6e-05,1e-05,0.00022,0.00026,0.0001,-7e-05,-0.00012,3e-05,2,27
5989,6e-05,1e-05,0.00022,0.00026,0.0001,-7e-05,-0.00012,3e-05,2,27
5990,6e-05,1e-05,0.00022,0.00026,0.0001,-7e-05,-0.00012,3e-05,2,27
5991,6e-05,1e-05,0.00022,0.00026,0.0001,-7e-05,-0.00012,3e-05,2,27
5992,6e-05,1e-05,0.00022,0.00026,0.0001,-7e-05,-0.00012,3e-05,2,27
5993,6e-05,1e-05,0.00022,0.00026,0.0001,-7e-05,-0.00012,3e-05,2,27
5994,6e-05,1e-05,0.00022,0.00026,0.0001,-7e-05,-0.00012,3e-05,2,27
5995,6e-05,1e-05,0.00022,0.00026,0.0001,-7e-05,-0.00012,3e-05,2,27
5996,6e-05,1e-05,0.00022,0.00026,0.0001,-7e-05,-0.00012,3e-05,2,27
5997,0,1e-05,0.00012,0.00042,-3e-05,0.0002,-0.00015,7e-05,2,27
5998,0,1e-05,0.00012,0.00042,-3e-05,0.0002,-0.00015,7e-05,2,27
5999,0,1e-05,0.00012,0.00042,-3e-05,0.0002,-0.00015,7e-05,2,27
6000,0,1e-05,0.00012,0.00042,-3e-05,0.0002,-0.00015,7e-05,2,27
6001,0,1e-05,0.00012,0.00042,-3e-05,0.0002,-0.00015,7e-05,2,27
6002,0,1e-05,0.00012,0.00042,-3e-05,0.0002,-0.00015,7e-05,2,27
6003,0,1e-05,0.00012,0.00042,-3e-05,0.0002,-0.00015,7e-05,2,27
6004,0,1e-05,0.00012,0.00042,-3e-05,0.0002,-0.00015,7e-05,2,27
6005,0,1e-05,0.00012,0.00042,-3e-05,0.0002,-0.00015,7e-05,2,27
6006,0,1e-05,0.00012,0.00042,-3e-05,0.0002,-0.00015,7e-05,2,27
6007,0,1e-05,0.00012,0.00042,-3e-05,0.0002,-0.00015,7e-05,2,27
6008,0,1e-05,0.00012,0.00042,-3e-05,0.0002,-0.00015,7e-05,2,27
6009,0,1e-05,0.00012,0.00042,-3e-05,0.0002,-0.00015,7e-05,2,27
6010,0,1e-05,0.00012,0.00042,-3e-05,0.0002,-0.00015,7e-05,2,27
6011,-0.00011,-0.00011,3e-05,-6e-05,0.00045,8e-05,0.00039,5e-05,2,27
6012,0.00029,5e-05,-2e-05,0.00019,-0.00039,-2e-05,-0.00015,7e-05,2,27
6013,0.00029,5e-05,-2e-05,0.00019,-0.00039,-2e-05,-0.00015,7e-05,2,27
6014,0.00029,5e-05,-2e-05,0.00019,-0.00039,-2e-05,-0.00015,7e-05,2,27
6015,0.00029,5e-05,-2e-05,0.00019,-0.00039,-2e-05,-0.00015,7e-05,2,27
6016,0.00029,5e-05,-2e-05,0.00019,-0.00039,-2e-05,-0.00015,7e-05,2,27
6017,0.00029,5e-05,-2e-05,0.00019,-0.00039,-2e-05,-0.00015,7e-05,2,27
6018,0.00029,5e-05,-2e-05,0.00019,-0.00039,-2e-05,-0.00015,7e-05,2,27
6019,0.00029,5e-05,-2e-05,0.00019,-0.00039,-2e-05,-0.00015,7e-05,2,27
6020,0.00029,5e-05,-2e-05,0.00019,-0.00039,-2e-05,-0.00015,7e-05,2,27
6021,0.00029,5e-05,-2e-05,0.00019,-0.00039,-2e-05,-0.00015,7e-05,2,27
6022,0.00029,5e-05,-2e-05,0.00019,-0.00039,-2e-05,-0.00015,7e-05,2,27
6023,0.00029,5e-05,-2e-05,0.00019,-0.00039,-2e-05,-0.00015,7e-05,2,27
6024,0.00029,5e-05,-2e-05,0.00019,-0.00039,-2e-05,-0.00015,7e-05,2,27
6025,0.00029,5e-05,-2e-05,0.00019,-0.00039,-2e-05,-0.00015,7e-05,2,27
6026,0.00029,5e-05,-2e-05,0.00019,-0.00039,-2e-05,-0.00015,7e-05,2,27
6027,0.00029,5e-05,-2e-05,0.00019,-0.00039,-2e-05,-0.00015,7e-05,2,27
6028,0.00029,5e-05,-2e-05,0.00019,-0.00039,-2e-05,-0.00015,7e-05,2,27
6029,0.00029,5e-05,-2e-05,0.00019,-0.00039,-2e-05,-0.00015,7e-05,2,27
6030,0.00029,5e-05,-2e-05,0.00019,-0.00039,-2e-05,-0.00015,7e-05,2,27
6031,0.00029,5e-05,-2e-05,0.00019,-0.00039,-2e-05,-0.00015,7e-05,2,27
6032,0.00029,5e-05,-2e-05,0.00019,-0.00039,-2e-05,-0.00015,7e-05,2,27
6033,0.00029,5e-05,-2e-05,0.00019,-0.00039,-2e-05,-0.00015,7e-05,2,27
6034,-6e-05,-8e-05,-0.00016,-0.00018,0.00028,-5e-05,-0.00072,2e-05,2,27
6035,0.00017,-9e-05,-0.00032,-0.00072,0.00024,-0.00011,-0.0003,-8e-05,2,27
6036,0.00017,-9e-05,-0.00032,-0.00072,0.00024,-0.00011,-0.0003,-8e-05,2,27
6038,0.00017,-9e-05,-0.00032,-0.00072,0.00024,-0.00011,-0.0003,-8e-05,2,27
6039,0.00017,-9e-05,-0.00032,-0.00072,0.00024,-0.00011,-0.0003,-8e-05,2,27
6040,0.00017,-9e-05,-0.00032,-0.00072,0.00024,-0.00011,-0.0003,-8e-05,2,27
6041,0.00017,-9e-05,-0.00032,-0.00072,0.00024,-0.00011,-0.0003,-8e-05,2,27
6042,0.00017,-9e-05,-0.00032,-0.00072,0.00024,-0.00011,-0.0003,-8e-05,2,27
6043,0.00017,-9e-05,-0.00032,-0.00072,0.00024,-0.00011,-0.0003,-8e-05,2,27
6044,0.00017,-9e-05,-0.00032,-0.00072,0.00024,-0.00011,-0.0003,-8e-05,2,27
6045,0.00017,-9e-05,-0.00032,-0.00072,0.00024,-0.00011,-0.0003,-8e-05,2,27
6046,0.00017,-9e-05,-0.00032,-0.00072,0.00024,-0.00011,-0.0003,-8e-05,2,27
6047,0.00017,-9e-05,-0.00032,-0.00072,0.00024,-0.00011,-0.0003,-8e-05,2,27
6048,1e-05,8e-05,3e-05,0.0001,-6e-05,0.00017,0.00065,0.00011,2,27
6049,1e-05,8e-05,3e-05,0.0001,-6e-05,0.00017,0.00065,0.00011,2,27
6050,1e-05,8e-05,3e-05,0.0001,-6e-05,0.00017,0.00065,0.00011,2,27
6051,1e-05,8e-05,3e-05,0.0001,-6e-05,0.00017,0.00065,0.00011,2,27
6052,1e-05,8e-05,3e-05,0.0001,-6e-05,0.00017,0.00065,0.00011,2,27
6053,1e-05,8e-05,3e-05,0.0001,-6e-05,0.00017,0.00065,0.00011,2,27
6054,1e-05,8e-05,3e-05,0.0001,-6e-05,0.00017,0.00065,0.00011,2,27
6055,1e-05,8e-05,3e-05,0.0001,-6e-05,0.00017,0.00065,0.00011,2,27
6056,-0.00016,3e-05,0.0002,0.00044,0.00013,5e-05,0.00071,0.0001,2,27
6057,-0.00016,3e-05,0.0002,0.00044,0.00013,5e-05,0.00071,0.0001,2,27
6058,-0.00016,3e-05,0.0002,0.00044,0.00013,5e-05,0.00071,0.0001,2,27
6059,-0.00016,3e-05,0.0002,0.00044,0.00013,5e-05,0.00071,0.0001,2,27
6060,-0.00016,3e-05,0.0002,0.00044,0.00013,5e-05,0.00071,0.0001,2,27
6061,-0.00016,3e-05,0.0002,0.00044,0.00013,5e-05,0.00071,0.0001,2,27
6062,-0.00016,3e-05,0.0002,0.00044,0.00013,5e-05,0.00071,0.0001,2,27
6063,-0.00016,3e-05,0.0002,0.00044,0.00013,5e-05,0.00071,0.0001,2,27
6064,-0.00016,3e-05,0.0002,0.00044,0.00013,5e-05,0.00071,0.0001,2,27
6065,-0.00016,3e-05,0.0002,0.00044,0.00013,5e-05,0.00071,0.0001,2,27
6066,-0.00016,3e-05,0.0002,0.00044,0.00013,5e-05,0.00071,0.0001,2,27
6067,-0.00016,3e-05,0.0002,0.00044,0.00013,5e-05,0.00071,0.0001,2,27
6068,-0.00016,3e-05,0.0002,0.00044,0.00013,5e-05,0.00071,0.0001,2,27
6069,-0.00016,3e-05,0.0002,0.00044,0.00013,5e-05,0.00071,0.0001,2,27
6070,-0.00016,3e-05,0.0002,0.00044,0.00013,5e-05,0.00071,0.0001,2,27
6071,-4e-05,0,6e-05,-0.0004,-0.00036,-0.00026,0.00127,5e-05,2,27
6072,7e-05,-5e-05,-8e-05,8e-05,0,-3e-05,-0.00056,0,2,27
6073,-0.00013,-1e-05,0.00015,-1e-05,8e-05,-1e-05,0.0002,-2e-05,2,27
6074,-0.00013,-1e-05,0.00015,-1e-05,8e-05,-1e-05,0.0002,-2e-05,2,27
6075,-0.00013,-1e-05,0.00015,-1e-05,8e-05,-1e-05,0.0002,-2e-05,2,27
6076,-0.00013,-1e-05,0.00015,-1e-05,8e-05,-1e-05,0.0002,-2e-05,2,27
6077,-0.00013,-1e-05,0.00015,-1e-05,8e-05,-1e-05,0.0002,-2e-05,2,27
6078,-0.00013,-1e-05,0.00015,-1e-05,8e-05,-1e-05,0.0002,-2e-05,2,27
6079,-0.00013,-1e-05,0.00015,-1e-05,8e-05,-1e-05,0.0002,-2e-05,2,27
6080,-0.00013,-1e-05,0.00015,-1e-05,8e-05,-1e-05,0.0002,-2e-05,2,27
6081,-0.00013,-1e-05,0.00015,-1e-05,8e-05,-1e-05,0.0002,-2e-05,2,27
6082,-0.00013,-1e-05,0.00015,-1e-05,8e-05,-1e-05,0.0002,-2e-05,2,27
6083,-0.00013,-1e-05,0.00015,-1e-05,8e-05,-1e-05,0.0002,-2e-05,2,27
6084,-0.00013,-1e-05,0.00015,-1e-05,8e-05,-1e-05,0.0002,-2e-05,2,27
6085,-0.00013,-1e-05,0.00015,-1e-05,8e-05,-1e-05,0.0002,-2e-05,2,27
6086,-0.00013,-1e-05,0.00015,-1e-05,8e-05,-1e-05,0.0002,-2e-05,2,27
6088,-0.00013,-1e-05,0.00015,-1e-05,8e-05,-1e-05,0.0002,-2e-05,2,27
6089,-0.00013,-1e-05,0.00015,-1e-05,8e-05,-1e-05,0.0002,-2e-05,2,27
6090,-0.00013,-1e-05,0.00015,-1e-05,8e-05,-1e-05,0.0002,-2e-05,2,27
6091,-0.00013,-1e-05,0.00015,-1e-05,8e-05,-1e-05,0.0002,-2e-05,2,27
6092,-0.00013,-1e-05,0.00015,-1e-05,8e-05,-1e-05,0.0002,-2e-05,2,27
6093,-0.00013,-1e-05,0.00015,-1e-05,8e-05,-1e-05,0.0002,-2e-05,2,27
6094,0.00034,2e-05,0.00011,0.00037,0.0001,7e-05,0.0011,0.00024,2,27
6095,-0.00018,-3e-05,-3e-05,-0.0001,1e-05,-3e-05,-0.00036,-8e-05,2,27
6096,-0.00018,-3e-05,-3e-05,-0.0001,1e-05,-3e-05,-0.00036,-8e-05,2,27
6097,-0.00018,-3e-05,-3e-05,-0.0001,1e-05,-3e-05,-0.00036,-8e-05,2,27
6098,-0.00018,-3e-05,-3e-05,-0.0001,1e-05,-3e-05,-0.00036,-8e-05,2,27
6099,-0.00018,-3e-05,-3e-05,-0.0001,1e-05,-3e-05,-0.00036,-8e-05,2,27
6100,-0.00018,-3e-05,-3e-05,-0.0001,1e-05,-3e-05,-0.00036,-8e-05,2,27
6101,-0.00018,-3e-05,-3e-05,-0.0001,1e-05,-3e-05,-0.00036,-8e-05,2,27
6102,-0.00018,-3e-05,-3e-05,-0.0001,1e-05,-3e-05,-0.00036,-8e-05,2,27
6103,-0.00018,-3e-05,-3e-05,-0.0001,1e-05,-3e-05,-0.00036,-8e-05,2,27
6104,-0.00018,-3e-05,-3e-05,-0.0001,1e-05,-3e-05,-0.00036,-8e-05,2,27
6105,-0.00018,-3e-05,-3e-05,-0.0001,1e-05,-3e-05,-0.00036,-8e-05,2,27
6106,-0.00018,-3e-05,-3e-05,-0.0001,1e-05,-3e-05,-0.00036,-8e-05,2,27
6107,-0.00018,-3e-05,-3e-05,-0.0001,1e-05,-3e-05,-0.00036,-8e-05,2,27
6108,-0.00018,-3e-05,-3e-05,-0.0001,1e-05,-3e-05,-0.00036,-8e-05,2,27
6109,-0.00018,-3e-05,-3e-05,-0.0001,1e-05,-3e-05,-0.00036,-8e-05,2,27
6110,-0.00018,-3e-05,-3e-05,-0.0001,1e-05,-3e-05,-0.00036,-8e-05,2,27
6111,-0.00018,-3e-05,-3e-05,-0.0001,1e-05,-3e-05,-0.00036,-8e-05,2,27
6112,-0.00018,-3e-05,-3e-05,-0.0001,1e-05,-3e-05,-0.00036,-8e-05,2,27
6113,-0.00018,-3e-05,-3e-05,-0.0001,1e-05,-3e-05,-0.00036,-8e-05,2,27
6114,-0.00018,-3e-05,-3e-05,-0.0001,1e-05,-3e-05,-0.00036,-8e-05,2,27
6115,-0.00018,-3e-05,-3e-05,-0.0001,1e-05,-3e-05,-0.00036,-8e-05,2,27
6116,-0.00018,-3e-05,-3e-05,-0.0001,1e-05,-3e-05,-0.00036,-8e-05,2,27
6117,-0.00011,-5e-05,-3e-05,0.00021,-5e-05,-2e-05,0.00059,3e-05,2,27
6118,-0.00011,-5e-05,-3e-05,0.00021,-5e-05,-2e-05,0.00059,3e-05,2,27
6119,-0.00011,-5e-05,-3e-05,0.00021,-5e-05,-2e-05,0.00059,3e-05,2,27
6120,-0.00011,-5e-05,-3e-05,0.00021,-5e-05,-2e-05,0.00059,3e-05,2,27
6121,-0.00011,-5e-05,-3e-05,0.00021,-5e-05,-2e-05,0.00059,3e-05,2,27
6122,-0.00011,-5e-05,-3e-05,0.00021,-5e-05,-2e-05,0.00059,3e-05,2,27
6123,-0.00011,-5e-05,-3e-05,0.00021,-5e-05,-2e-05,0.00059,3e-05,2,27
6124,-0.00011,-5e-05,-3e-05,0.00021,-5e-05,-2e-05,0.00059,3e-05,2,27
6125,-0.00011,-5e-05,-3e-05,0.00021,-5e-05,-2e-05,0.00059,3e-05,2,27
6126,-0.00011,-5e-05,-3e-05,0.00021,-5e-05,-2e-05,0.00059,3e-05,2,27
6127,-0.00011,-5e-05,-3e-05,0.00021,-5e-05,-2e-05,0.00059,3e-05,2,27
6128,-0.00011,-5e-05,-3e-05,0.00021,-5e-05,-2e-05,0.00059,3e-05,2,27
6129,-0.00011,-5e-05,-3e-05,0.00021,-5e-05,-2e-05,0.00059,3e-05,2,27
6130,-0.00011,-5e-05,-3e-05,0.00021,-5e-05,-2e-05,0.00059,3e-05,2,27
6131,5e-05,-7e-05,0.00015,0.0005,-0.00024,5e-05,-0.0005,1e-05,2,27
6132,-0.00017,-8e-05,-0.0001,-0.00034,0.0003,-0.00019,-0.0003,-0.00018,2,27
6133,-0.00017,-8e-05,-0.0001,-0.00034,0.0003,-0.00019,-0.0003,-0.00018,2,27
6134,-0.00017,-8e-05,-0.0001,-0.00034,0.0003,-0.00019,-0.0003,-0.00018,2,27
6135,-0.00017,-8e-05,-0.0001,-0.00034,0.0003,-0.00019,-0.0003,-0.00018,2,27
6136,-0.00017,-8e-05,-0.0001,-0.00034,0.0003,-0.00019,-0.0003,-0.00018,2,27
6138,-0.00017,-8e-05,-0.0001,-0.00034,0.0003,-0.00019,-0.0003,-0.00018,2,27
6139,-0.00017,-8e-05,-0.0001,-0.00034,0.0003,-0.00019,-0.0003,-0.00018,2,27
6140,-0.00017,-8e-05,-0.0001,-0.00034,0.0003,-0.00019,-0.0003,-0.00018,2,27
6141,-0.00017,-8e-05,-0.0001,-0.00034,0.0003,-0.00019,-0.0003,-0.00018,2,27
6142,-0.00017,-8e-05,-0.0001,-0.00034,0.0003,-0.00019,-0.0003,-0.00018,2,27
6143,-0.00017,-8e-05,-0.0001,-0.00034,0.0003,-0.00019,-0.0003,-0.00018,2,27
6144,-0.00017,-8e-05,-0.0001,-0.00034,0.0003,-0.00019,-0.0003,-0.00018,2,27
6145,-0.00017,-8e-05,-0.0001,-0.00034,0.0003,-0.00019,-0.0003,-0.00018,2,27
6146,-0.00017,-8e-05,-0.0001,-0.00034,0.0003,-0.00019,-0.0003,-0.00018,2,27
6147,-0.00017,-8e-05,-0.0001,-0.00034,0.0003,-0.00019,-0.0003,-0.00018,2,27
6148,-0.00017,-8e-05,-0.0001,-0.00034,0.0003,-0.00019,-0.0003,-0.00018,2,27
6149,-0.00017,-8e-05,-0.0001,-0.00034,0.0003,-0.00019,-0.0003,-0.00018,2,27
6150,-0.00017,-8e-05,-0.0001,-0.00034,0.0003,-0.00019,-0.0003,-0.00018,2,27
6151,-0.00017,-8e-05,-0.0001,-0.00034,0.0003,-0.00019,-0.0003,-0.00018,2,27
6152,-0.00017,-8e-05,-0.0001,-0.00034,0.0003,-0.00019,-0.0003,-0.00018,2,27
6153,-0.00017,-8e-05,-0.0001,-0.00034,0.0003,-0.00019,-0.0003,-0.00018,2,27
6154,3e-05,5e-05,0.00012,0.00025,-0.00018,-0.00018,-0.00047,-0.00011,2,27
6155,-0.00021,-0.0001,-5e-05,0.00013,-0.00015,5e-05,0.00061,-1e-05,2,27
6156,-0.00021,-0.0001,-5e-05,0.00013,-0.00015,5e-05,0.00061,-1e-05,2,27
6157,-0.00021,-0.0001,-5e-05,0.00013,-0.00015,5e-05,0.00061,-1e-05,2,27
6158,-0.00021,-0.0001,-5e-05,0.00013,-0.00015,5e-05,0.00061,-1e-05,2,27
6159,-0.00021,-0.0001,-5e-05,0.00013,-0.00015,5e-05,0.00061,-1e-05,2,27
6160,-0.00021,-0.0001,-5e-05,0.00013,-0.00015,5e-05,0.00061,-1e-05,2,27
6161,-0.00021,-0.0001,-5e-05,0.00013,-0.00015,5e-05,0.00061,-1e-05,2,27
6162,-0.00021,-0.0001,-5e-05,0.00013,-0.00015,5e-05,0.00061,-1e-05,2,27
6163,-0.00021,-0.0001,-5e-05,0.00013,-0.00015,5e-05,0.00061,-1e-05,2,27
6164,-0.00021,-0.0001,-5e-05,0.00013,-0.00015,5e-05,0.00061,-1e-05,2,27
6165,-0.00021,-0.0001,-5e-05,0.00013,-0.00015,5e-05,0.00061,-1e-05,2,27
6166,-0.00021,-0.0001,-5e-05,0.00013,-0.00015,5e-05,0.00061,-1e-05,2,27
6167,-0.00021,-0.0001,-5e-05,0.00013,-0.00015,5e-05,0.00061,-1e-05,2,27
6168,-0.00021,-0.0001,-5e-05,0.00013,-0.00015,5e-05,0.00061,-1e-05,2,27
6169,-0.00021,-0.0001,-5e-05,0.00013,-0.00015,5e-05,0.00061,-1e-05,2,27
6170,-0.00021,-0.0001,-5e-05,0.00013,-0.00015,5e-05,0.00061,-1e-05,2,27
6171,-0.00021,-0.0001,-5e-05,0.00013,-0.00015,5e-05,0.00061,-1e-05,2,27
6172,-0.00021,-0.0001,-5e-05,0.00013,-0.00015,5e-05,0.00061,-1e-05,2,27
6173,-0.00021,-0.0001,-5e-05,0.00013,-0.00015,5e-05,0.00061,-1e-05,2,27
6174,-0.00021,-0.0001,-5e-05,0.00013,-0.00015,5e-05,0.00061,-1e-05,2,27
6175,-0.00021,-0.0001,-5e-05,0.00013,-0.00015,5e-05,0.00061,-1e-05,2,27
6176,0.00046,7e-05,6e-05,0.00034,-1e-05,0.0001,2e-05,0.00015,2,27
6177,-0.0001,-0.00016,-1e-05,-0.00022,0.00027,-5e-05,-0.00108,-6e-05,2,27
6178,-0.0001,-0.00016,-1e-05,-0.00022,0.00027,-5e-05,-0.00108,-6e-05,2,27
6179,-0.0001,-0.00016,-1e-05,-0.00022,0.00027,-5e-05,-0.00108,-6e-05,2,27
6180,-0.0001,-0.00016,-1e-05,-0.00022,0.00027,-5e-05,-0.00108,-6e-05,2,27
6181,-0.0001,-0.00016,-1e-05,-0.00022,0.00027,-5e-05,-0.00108,-6e-05,2,27
6182,-0.0001,-0.00016,-1e-05,-0.00022,0.00027,-5e-05,-0.00108,-6e-05,2,27
6183,-0.0001,-0.00016,-1e-05,-0.00022,0.00027,-5e-05,-0.00108,-6e-05,2,27
6184,-0.0001,-0.00016,-1e-05,-0.00022,0.00027,-5e-05,-0.00108,-6e-05,2,27
6185,-0.0001,-0.00016,-1e-05,-0.00022,0.00027,-5e-05,-0.00108,-6e-05,2,27
6186,-0.0001,-0.00016,-1e-05,-0.00022,0.00027,-5e-05,-0.00108,-6e-05,2,27
6188,-0.0001,-0.00016,-1e-05,-0.00022,0.00027,-5e-05,-0.00108,-6e-05,2,27
6189,-0.0001,-0.00016,-1e-05,-0.00022,0.00027,-5e-05,-0.00108,-6e-05,2,27
6190,-0.0001,-0.00016,-1e-05,-0.00022,0.00027,-5e-05,-0.00108,-6e-05,2,27
6191,9e-05,0.00014,-8e-05,-0.00018,-0.00026,0.00019,-0.00089,-1e-05,2,27
6192,9e-05,0.00014,-8e-05,-0.00018,-0.00026,0.00019,-0.00089,-1e-05,2,27
6193,9e-05,0.00014,-8e-05,-0.00018,-0.00026,0.00019,-0.00089,-1e-05,2,27
6194,9e-05,0.00014,-8e-05,-0.00018,-0.00026,0.00019,-0.00089,-1e-05,2,27
6195,9e-05,0.00014,-8e-05,-0.00018,-0.00026,0.00019,-0.00089,-1e-05,2,27
6196,9e-05,0.00014,-8e-05,-0.00018,-0.00026,0.00019,-0.00089,-1e-05,2,27
6197,9e-05,0.00014,-8e-05,-0.00018,-0.00026,0.00019,-0.00089,-1e-05,2,27
6198,9e-05,0.00014,-8e-05,-0.00018,-0.00026,0.00019,-0.00089,-1e-05,2,27
6199,9e-05,0.00014,-8e-05,-0.00018,-0.00026,0.00019,-0.00089,-1e-05,2,27
6200,9e-05,0.00014,-8e-05,-0.00018,-0.00026,0.00019,-0.00089,-1e-05,2,27
6201,9e-05,0.00014,-8e-05,-0.00018,-0.00026,0.00019,-0.00089,-1e-05,2,27
6202,9e-05,0.00014,-8e-05,-0.00018,-0.00026,0.00019,-0.00089,-1e-05,2,27
6203,9e-05,0.00014,-8e-05,-0.00018,-0.00026,0.00019,-0.00089,-1e-05,2,27
6204,9e-05,0.00014,-8e-05,-0.00018,-0.00026,0.00019,-0.00089,-1e-05,2,27
6205,9e-05,0.00014,-8e-05,-0.00018,-0.00026,0.00019,-0.00089,-1e-05,2,27
6206,9e-05,0.00014,-8e-05,-0.00018,-0.00026,0.00019,-0.00089,-1e-05,2,27
6207,9e-05,0.00014,-8e-05,-0.00018,-0.00026,0.00019,-0.00089,-1e-05,2,27
6208,9e-05,0.00014,-8e-05,-0.00018,-0.00026,0.00019,-0.00089,-1e-05,2,27
6209,9e-05,0.00014,-8e-05,-0.00018,-0.00026,0.00019,-0.00089,-1e-05,2,27
6210,9e-05,0.00014,-8e-05,-0.00018,-0.00026,0.00019,-0.00089,-1e-05,2,27
6211,9e-05,0.00014,-8e-05,-0.00018,-0.00026,0.00019,-0.00089,-1e-05,2,27
6212,9e-05,0.00014,-8e-05,-0.00018,-0.00026,0.00019,-0.00089,-1e-05,2,27
6213,9e-05,0.00014,-8e-05,-0.00018,-0.00026,0.00019,-0.00089,-1e-05,2,27
6214,3e-05,-9e-05,8e-05,-0.00012,0.00013,1e-05,-0.00067,4e-05,2,27
6215,0.00013,1e-05,2e-05,0.00011,1e-05,6e-05,0.0003,0.00013,2,27
6216,0.00013,1e-05,2e-05,0.00011,1e-05,6e-05,0.0003,0.00013,2,27
6217,0.00013,1e-05,2e-05,0.00011,1e-05,6e-05,0.0003,0.00013,2,27
6218,0.00013,1e-05,2e-05,0.00011,1e-05,6e-05,0.0003,0.00013,2,27
6219,0.00013,1e-05,2e-05,0.00011,1e-05,6e-05,0.0003,0.00013,2,27
6220,0.00013,1e-05,2e-05,0.00011,1e-05,6e-05,0.0003,0.00013,2,27
6221,0.00013,1e-05,2e-05,0.00011,1e-05,6e-05,0.0003,0.00013,2,27
6222,0.00013,1e-05,2e-05,0.00011,1e-05,6e-05,0.0003,0.00013,2,27
6223,0.00013,1e-05,2e-05,0.00011,1e-05,6e-05,0.0003,0.00013,2,27
6224,0.00013,1e-05,2e-05,0.00011,1e-05,6e-05,0.0003,0.00013,2,27
6225,0.00013,1e-05,2e-05,0.00011,1e-05,6e-05,0.0003,0.00013,2,27
6226,0.00013,1e-05,2e-05,0.00011,1e-05,6e-05,0.0003,0.00013,2,27
6227,0.00013,1e-05,2e-05,0.00011,1e-05,6e-05,0.0003,0.00013,2,27
6228,0.00013,1e-05,2e-05,0.00011,1e-05,6e-05,0.0003,0.00013,2,27
6229,0.00013,1e-05,2e-05,0.00011,1e-05,6e-05,0.0003,0.00013,2,27
6230,0.00013,1e-05,2e-05,0.00011,1e-05,6e-05,0.0003,0.00013,2,27
6231,0.00013,1e-05,2e-05,0.00011,1e-05,6e-05,0.0003,0.00013,2,27
6232,0.00013,1e-05,2e-05,0.00011,1e-05,6e-05,0.0003,0.00013,2,27
6233,0.00013,1e-05,2e-05,0.00011,1e-05,6e-05,0.0003,0.00013,2,27
6234,0.00013,1e-05,2e-05,0.00011,1e-05,6e-05,0.0003,0.00013,2,27
6235,0.00013,1e-05,2e-05,0.00011,1e-05,6e-05,0.0003,0.00013,2,27
6236,1e-05,-1e-05,-6e-05,0.00021,8e-05,5e-05,-0.00017,-1e-05,2,27
6238,0.00019,3e-05,0.00011,0.00021,-0.00025,-3e-05,0.00019,-2e-05,2,27
6239,0.00019,3e-05,0.00011,0.00021,-0.00025,-3e-05,0.00019,-2e-05,2,27
6240,0.00019,3e-05,0.00011,0.00021,-0.00025,-3e-05,0.00019,-2e-05,2,27
6241,0.00019,3e-05,0.00011,0.00021,-0.00025,-3e-05,0.00019,-2e-05,2,27
6242,0.00019,3e-05,0.00011,0.00021,-0.00025,-3e-05,0.00019,-2e-05,2,27
6243,0.00019,3e-05,0.00011,0.00021,-0.00025,-3e-05,0.00019,-2e-05,2,27
6244,0.00019,3e-05,0.00011,0.00021,-0.00025,-3e-05,0.00019,-2e-05,2,27
6245,0.00019,3e-05,0.00011,0.00021,-0.00025,-3e-05,0.00019,-2e-05,2,27
6246,0.00019,3e-05,0.00011,0.00021,-0.00025,-3e-05,0.00019,-2e-05,2,27
6247,0.00019,3e-05,0.00011,0.00021,-0.00025,-3e-05,0.00019,-2e-05,2,27
6248,0.00019,3e-05,0.00011,0.00021,-0.00025,-3e-05,0.00019,-2e-05,2,27
6249,0.00019,3e-05,0.00011,0.00021,-0.00025,-3e-05,0.00019,-2e-05,2,27
6250,0.00019,3e-05,0.00011,0.00021,-0.00025,-3e-05,0.00019,-2e-05,2,27
6251,-0.00017,-0.00016,-0.00015,0.00015,-0.00017,-0.0002,-0.00045,-6e-05,2,27
6252,6e-05,-1e-05,1e-05,-7e-05,1e-05,-3e-05,0.00127,5e-05,2,27
6253,6e-05,-1e-05,1e-05,-7e-05,1e-05,-3e-05,0.00127,5e-05,2,27
6254,6e-05,-1e-05,1e-05,-7e-05,1e-05,-3e-05,0.00127,5e-05,2,27
6255,6e-05,-1e-05,1e-05,-7e-05,1e-05,-3e-05,0.00127,5e-05,2,27
6256,6e-05,-1e-05,1e-05,-7e-05,1e-05,-3e-05,0.00127,5e-05,2,27
6257,6e-05,-1e-05,1e-05,-7e-05,1e-05,-3e-05,0.00127,5e-05,2,27
6258,6e-05,-1e-05,1e-05,-7e-05,1e-05,-3e-05,0.00127,5e-05,2,27
6259,6e-05,-1e-05,1e-05,-7e-05,1e-05,-3e-05,0.00127,5e-05,2,27
6260,6e-05,-1e-05,1e-05,-7e-05,1e-05,-3e-05,0.00127,5e-05,2,27
6261,6e-05,-1e-05,1e-05,-7e-05,1e-05,-3e-05,0.00127,5e-05,2,27
6262,6e-05,-1e-05,1e-05,-7e-05,1e-05,-3e-05,0.00127,5e-05,2,27
6263,6e-05,-1e-05,1e-05,-7e-05,1e-05,-3e-05,0.00127,5e-05,2,27
6264,6e-05,-1e-05,1e-05,-7e-05,1e-05,-3e-05,0.00127,5e-05,2,27
6265,6e-05,-1e-05,1e-05,-7e-05,1e-05,-3e-05,0.00127,5e-05,2,27
6266,6e-05,-1e-05,1e-05,-7e-05,1e-05,-3e-05,0.00127,5e-05,2,27
6267,6e-05,-1e-05,1e-05,-7e-05,1e-05,-3e-05,0.00127,5e-05,2,27
6268,6e-05,-1e-05,1e-05,-7e-05,1e-05,-3e-05,0.00127,5e-05,2,27
6269,6e-05,-1e-05,1e-05,-7e-05,1e-05,-3e-05,0.00127,5e-05,2,27
6270,6e-05,-1e-05,1e-05,-7e-05,1e-05,-3e-05,0.00127,5e-05,2,27
6271,6e-05,-1e-05,1e-05,-7e-05,1e-05,-3e-05,0.00127,5e-05,2,27
6272,6e-05,-1e-05,1e-05,-7e-05,1e-05,-3e-05,0.00127,5e-05,2,27
6273,6e-05,-1e-05,1e-05,-7e-05,1e-05,-3e-05,0.00127,5e-05,2,27
6274,-0.00014,0,3e-05,0.00026,-3e-05,0.0001,-0.00078,-0.00014,2,27
6275,-7e-05,0.00015,0,-0.00012,-0.0001,0,-8e-05,-5e-05,2,27
6276,-7e-05,0.00015,0,-0.00012,-0.0001,0,-8e-05,-5e-05,2,27
6277,-7e-05,0.00015,0,-0.00012,-0.0001,0,-8e-05,-5e-05,2,27
6278,-7e-05,0.00015,0,-0.00012,-0.0001,0,-8e-05,-5e-05,2,27
6279,-7e-05,0.00015,0,-0.00012,-0.0001,0,-8e-05,-5e-05,2,27
6280,-7e-05,0.00015,0,-0.00012,-0.0001,0,-8e-05,-5e-05,2,27
6281,-7e-05,0.00015,0,-0.00012,-0.0001,0,-8e-05,-5e-05,2,27
6282,-7e-05,0.00015,0,-0.00012,-0.0001,0,-8e-05,-5e-05,2,27
6283,-7e-05,0.00015,0,-0.00012,-0.0001,0,-8e-05,-5e-05,2,27
6284,-7e-05,0.00015,0,-0.00012,-0.0001,0,-8e-05,-5e-05,2,27
6285,-7e-05,0.00015,0,-0.00012,-0.0001,0,-8e-05,-5e-05,2,27
6286,-7e-05,0.00015,0,-0.00012,-0.0001,0,-8e-05,-5e-05,2,27
6288,-7e-05,0.00015,0,-0.00012,-0.0001,0,-8e-05,-5e-05,2,27
6289,-7e-05,0.00015,0,-0.00012,-0.0001,0,-8e-05,-5e-05,2,27
6290,-7e-05,0.00015,0,-0.00012,-0.0001,0,-8e-05,-5e-05,2,27
6291,-7e-05,0.00015,0,-0.00012,-0.0001,0,-8e-05,-5e-05,2,27
6292,-7e-05,0.00015,0,-0.00012,-0.0001,0,-8e-05,-5e-05,2,27
6293,-7e-05,0.00015,0,-0.00012,-0.0001,0,-8e-05,-5e-05,2,27
6294,-7e-05,0.00015,0,-0.00012,-0.0001,0,-8e-05,-5e-05,2,27
6295,-7e-05,0.00015,0,-0.00012,-0.0001,0,-8e-05,-5e-05,2,27
6296,3e-05,-4e-05,-6e-05,1e-05,-0.00013,-3e-05,-0.00011,0,2,27
6297,0.00031,-1e-05,-0.00014,-0.00033,0,-0.00019,-0.00054,2e-05,2,27
6298,0.00031,-1e-05,-0.00014,-0.00033,0,-0.00019,-0.00054,2e-05,2,27
6299,0.00031,-1e-05,-0.00014,-0.00033,0,-0.00019,-0.00054,2e-05,2,27
6300,0.00031,-1e-05,-0.00014,-0.00033,0,-0.00019,-0.00054,2e-05,2,27
6301,0.00031,-1e-05,-0.00014,-0.00033,0,-0.00019,-0.00054,2e-05,2,27
6302,0.00031,-1e-05,-0.00014,-0.00033,0,-0.00019,-0.00054,2e-05,2,27
6303,0.00031,-1e-05,-0.00014,-0.00033,0,-0.00019,-0.00054,2e-05,2,27
6304,0.00031,-1e-05,-0.00014,-0.00033,0,-0.00019,-0.00054,2e-05,2,27
6305,0.00031,-1e-05,-0.00014,-0.00033,0,-0.00019,-0.00054,2e-05,2,27
6306,0.00031,-1e-05,-0.00014,-0.00033,0,-0.00019,-0.00054,2e-05,2,27
6307,0.00031,-1e-05,-0.00014,-0.00033,0,-0.00019,-0.00054,2e-05,2,27
6308,0.00031,-1e-05,-0.00014,-0.00033,0,-0.00019,-0.00054,2e-05,2,27
6309,0.00031,-1e-05,-0.00014,-0.00033,0,-0.00019,-0.00054,2e-05,2,27
6310,0.00031,-1e-05,-0.00014,-0.00033,0,-0.00019,-0.00054,2e-05,2,27
6311,-1e-05,-1e-05,2e-05,0.00014,0,-9e-05,0.00077,2e-05,2,27
6312,-0.00012,-3e-05,0.00017,0.00042,0.00043,3e-05,0.00013,3e-05,2,27
6313,-0.00012,-3e-05,0.00017,0.00042,0.00043,3e-05,0.00013,3e-05,2,27
6314,-0.00012,-3e-05,0.00017,0.00042,0.00043,3e-05,0.00013,3e-05,2,27
6315,-0.00012,-3e-05,0.00017,0.00042,0.00043,3e-05,0.00013,3e-05,2,27
6316,-0.00012,-3e-05,0.00017,0.00042,0.00043,3e-05,0.00013,3e-05,2,27
6317,-0.00012,-3e-05,0.00017,0.00042,0.00043,3e-05,0.00013,3e-05,2,27
6318,-0.00012,-3e-05,0.00017,0.00042,0.00043,3e-05,0.00013,3e-05,2,27
6319,-0.00012,-3e-05,0.00017,0.00042,0.00043,3e-05,0.00013,3e-05,2,27
6320,-0.00012,-3e-05,0.00017,0.00042,0.00043,3e-05,0.00013,3e-05,2,27
6321,-0.00012,-3e-05,0.00017,0.00042,0.00043,3e-05,0.00013,3e-05,2,27
6322,-0.00012,-3e-05,0.00017,0.00042,0.00043,3e-05,0.00013,3e-05,2,27
6323,-0.00012,-3e-05,0.00017,0.00042,0.00043,3e-05,0.00013,3e-05,2,27
6324,-0.00012,-3e-05,0.00017,0.00042,0.00043,3e-05,0.00013,3e-05,2,27
6325,-0.00012,-3e-05,0.00017,0.00042,0.00043,3e-05,0.00013,3e-05,2,27
6326,-0.00012,-3e-05,0.00017,0.00042,0.00043,3e-05,0.00013,3e-05,2,27
6327,-0.00012,-3e-05,0.00017,0.00042,0.00043,3e-05,0.00013,3e-05,2,27
6328,-0.00012,-3e-05,0.00017,0.00042,0.00043,3e-05,0.00013,3e-05,2,27
6329,-0.00012,-3e-05,0.00017,0.00042,0.00043,3e-05,0.00013,3e-05,2,27
6330,-0.00012,-3e-05,0.00017,0.00042,0.00043,3e-05,0.00013,3e-05,2,27
6331,-0.00012,-3e-05,0.00017,0.00042,0.00043,3e-05,0.00013,3e-05,2,27
6332,-0.00012,-3e-05,0.00017,0.00042,0.00043,3e-05,0.00013,3e-05,2,27
6333,-0.00012,-3e-05,0.00017,0.00042,0.00043,3e-05,0.00013,3e-05,2,27
6334,0.00023,1e-05,9e-05,2e-05,-0.00015,6e-05,-8e-05,1e-05,2,27
6335,4e-05,4e-05,0.0001,0.00028,0.0001,0.00011,0.00072,6e-05,2,27
6336,4e-05,4e-05,0.0001,0.00028,0.0001,0.00011,0.00072,6e-05,2,27
6338,4e-05,4e-05,0.0001,0.00028,0.0001,0.00011,0.00072,6e-05,2,27
6339,4e-05,4e-05,0.0001,0.00028,0.0001,0.00011,0.00072,6e-05,2,27
6340,4e-05,4e-05,0.0001,0.00028,0.0001,0.00011,0.00072,6e-05,2,27
6341,4e-05,4e-05,0.0001,0.00028,0.0001,0.00011,0.00072,6e-05,2,27
6342,4e-05,4e-05,0.0001,0.00028,0.0001,0.00011,0.00072,6e-05,2,27
6343,4e-05,4e-05,0.0001,0.00028,0.0001,0.00011,0.00072,6e-05,2,27
6344,4e-05,4e-05,0.0001,0.00028,0.0001,0.00011,0.00072,6e-05,2,27
6345,4e-05,4e-05,0.0001,0.00028,0.0001,0.00011,0.00072,6e-05,2,27
6346,4e-05,4e-05,0.0001,0.00028,0.0001,0.00011,0.00072,6e-05,2,27
6347,4e-05,4e-05,0.0001,0.00028,0.0001,0.00011,0.00072,6e-05,2,27
6348,4e-05,4e-05,0.0001,0.00028,0.0001,0.00011,0.00072,6e-05,2,27
6349,4e-05,4e-05,0.0001,0.00028,0.0001,0.00011,0.00072,6e-05,2,27
6350,4e-05,4e-05,0.0001,0.00028,0.0001,0.00011,0.00072,6e-05,2,27
6351,4e-05,4e-05,0.0001,0.00028,0.0001,0.00011,0.00072,6e-05,2,27
6352,4e-05,4e-05,0.0001,0.00028,0.0001,0.00011,0.00072,6e-05,2,27
6353,4e-05,4e-05,0.0001,0.00028,0.0001,0.00011,0.00072,6e-05,2,27
6354,4e-05,4e-05,0.0001,0.00028,0.0001,0.00011,0.00072,6e-05,2,27
6355,4e-05,4e-05,0.0001,0.00028,0.0001,0.00011,0.00072,6e-05,2,27
6356,-6e-05,-1e-05,-3e-05,0.00032,-0.00011,-0.0001,0.00023,6e-05,2,27
6357,-6e-05,-1e-05,-3e-05,0.00032,-0.00011,-0.0001,0.00023,6e-05,2,27
6358,-0.00036,-0.00014,0,5e-05,-0.00017,-0.00021,-0.00096,-0.00011,2,27
6359,-0.00036,-0.00014,0,5e-05,-0.00017,-0.00021,-0.00096,-0.00011,2,27
6360,-0.00036,-0.00014,0,5e-05,-0.00017,-0.00021,-0.00096,-0.00011,2,27
6361,-0.00036,-0.00014,0,5e-05,-0.00017,-0.00021,-0.00096,-0.00011,2,27
6362,-0.00036,-0.00014,0,5e-05,-0.00017,-0.00021,-0.00096,-0.00011,2,27
6363,-0.00036,-0.00014,0,5e-05,-0.00017,-0.00021,-0.00096,-0.00011,2,27
6364,-0.00036,-0.00014,0,5e-05,-0.00017,-0.00021,-0.00096,-0.00011,2,27
6365,-0.00036,-0.00014,0,5e-05,-0.00017,-0.00021,-0.00096,-0.00011,2,27
6366,-0.00036,-0.00014,0,5e-05,-0.00017,-0.00021,-0.00096,-0.00011,2,27
6367,-0.00036,-0.00014,0,5e-05,-0.00017,-0.00021,-0.00096,-0.00011,2,27
6368,-0.00036,-0.00014,0,5e-05,-0.00017,-0.00021,-0.00096,-0.00011,2,27
6369,-0.00036,-0.00014,0,5e-05,-0.00017,-0.00021,-0.00096,-0.00011,2,27
6370,-0.00036,-0.00014,0,5e-05,-0.00017,-0.00021,-0.00096,-0.00011,2,27
6371,0.00024,-3e-05,-0.00037,-0.00058,2e-05,4e-05,-0.0003,-2e-05,2,27
6372,0.00018,0.00014,4e-05,-3e-05,-0.00021,-0.00028,-1e-05,-3e-05,2,27
6373,0.00018,0.00014,4e-05,-3e-05,-0.00021,-0.00028,-1e-05,-3e-05,2,27
6374,0.00018,0.00014,4e-05,-3e-05,-0.00021,-0.00028,-1e-05,-3e-05,2,27
6375,0.00018,0.00014,4e-05,-3e-05,-0.00021,-0.00028,-1e-05,-3e-05,2,27
6376,0.00018,0.00014,4e-05,-3e-05,-0.00021,-0.00028,-1e-05,-3e-05,2,27
6377,0.00018,0.00014,4e-05,-3e-05,-0.00021,-0.00028,-1e-05,-3e-05,2,27
6378,0.00018,0.00014,4e-05,-3e-05,-0.00021,-0.00028,-1e-05,-3e-05,2,27
6379,0.00018,0.00014,4e-05,-3e-05,-0.00021,-0.00028,-1e-05,-3e-05,2,27
6380,0.00018,0.00014,4e-05,-3e-05,-0.00021,-0.00028,-1e-05,-3e-05,2,27
6381,0.00018,0.00014,4e-05,-3e-05,-0.00021,-0.00028,-1e-05,-3e-05,2,27
6382,0.00018,0.00014,4e-05,-3e-05,-0.00021,-0.00028,-1e-05,-3e-05,2,27
6383,0.00018,0.00014,4e-05,-3e-05,-0.00021,-0.00028,-1e-05,-3e-05,2,27
6384,0.00018,0.00014,4e-05,-3e-05,-0.00021,-0.00028,-1e-05,-3e-05,2,27
6385,0.00018,0.00014,4e-05,-3e-05,-0.00021,-0.00028,-1e-05,-3e-05,2,27
6386,0.00018,0.00014,4e-05,-3e-05,-0.00021,-0.00028,-1e-05,-3e-05,2,27
6388,0.00018,0.00014,4e-05,-3e-05,-0.00021,-0.00028,-1e-05,-3e-05,2,27
6389,0.00018,0.00014,4e-05,-3e-05,-0.00021,-0.00028,-1e-05,-3e-05,2,27
6390,0.00018,0.00014,4e-05,-3e-05,-0.00021,-0.00028,-1e-05,-3e-05,2,27
6391,0.00018,0.00014,4e-05,-3e-05,-0.00021,-0.00028,-1e-05,-3e-05,2,27
6392,0.00018,0.00014,4e-05,-3e-05,-0.00021,-0.00028,-1e-05,-3e-05,2,27
6393,0.00018,0.00014,4e-05,-3e-05,-0.00021,-0.00028,-1e-05,-3e-05,2,27
6394,-0.00017,1e-05,9e-05,0.00043,0.00078,2e-05,0.00028,-2e-05,2,27
6395,-7e-05,-3e-05,-6e-05,-0.00013,6e-05,6e-05,0.00018,5e-05,2,27
6396,-7e-05,-3e-05,-6e-05,-0.00013,6e-05,6e-05,0.00018,5e-05,2,27
6397,-7e-05,-3e-05,-6e-05,-0.00013,6e-05,6e-05,0.00018,5e-05,2,27
6398,-7e-05,-3e-05,-6e-05,-0.00013,6e-05,6e-05,0.00018,5e-05,2,27
6399,-7e-05,-3e-05,-6e-05,-0.00013,6e-05,6e-05,0.00018,5e-05,2,27
6400,-7e-05,-3e-05,-6e-05,-0.00013,6e-05,6e-05,0.00018,5e-05,2,27
6401,-7e-05,-3e-05,-6e-05,-0.00013,6e-05,6e-05,0.00018,5e-05,2,27
6402,-7e-05,-3e-05,-6e-05,-0.00013,6e-05,6e-05,0.00018,5e-05,2,27
6403,-7e-05,-3e-05,-6e-05,-0.00013,6e-05,6e-05,0.00018,5e-05,2,27
6404,-7e-05,-3e-05,-6e-05,-0.00013,6e-05,6e-05,0.00018,5e-05,2,27
6405,-7e-05,-3e-05,-6e-05,-0.00013,6e-05,6e-05,0.00018,5e-05,2,27
6406,-7e-05,-3e-05,-6e-05,-0.00013,6e-05,6e-05,0.00018,5e-05,2,27
6407,-7e-05,-3e-05,-6e-05,-0.00013,6e-05,6e-05,0.00018,5e-05,2,27
6408,-7e-05,-3e-05,-6e-05,-0.00013,6e-05,6e-05,0.00018,5e-05,2,27
6409,-7e-05,-3e-05,-6e-05,-0.00013,6e-05,6e-05,0.00018,5e-05,2,27
6410,-7e-05,-3e-05,-6e-05,-0.00013,6e-05,6e-05,0.00018,5e-05,2,27
6411,-7e-05,-3e-05,-6e-05,-0.00013,6e-05,6e-05,0.00018,5e-05,2,27
6412,-7e-05,-3e-05,-6e-05,-0.00013,6e-05,6e-05,0.00018,5e-05,2,27
6413,-7e-05,-3e-05,-6e-05,-0.00013,6e-05,6e-05,0.00018,5e-05,2,27
6414,-7e-05,-3e-05,-6e-05,-0.00013,6e-05,6e-05,0.00018,5e-05,2,27
6415,-7e-05,-3e-05,-6e-05,-0.00013,6e-05,6e-05,0.00018,5e-05,2,27
6416,0.00016,8e-05,6e-05,7e-05,-0.00012,0.00024,0.00081,-0.00011,2,27
6417,-3e-05,-7e-05,-0.00026,0.00058,0.00014,-0.00012,-0.00054,-0.00013,2,27
6418,-3e-05,-7e-05,-0.00026,0.00058,0.00014,-0.00012,-0.00054,-0.00013,2,27
6419,-3e-05,-7e-05,-0.00026,0.00058,0.00014,-0.00012,-0.00054,-0.00013,2,27
6420,-3e-05,-7e-05,-0.00026,0.00058,0.00014,-0.00012,-0.00054,-0.00013,2,27
6421,-3e-05,-7e-05,-0.00026,0.00058,0.00014,-0.00012,-0.00054,-0.00013,2,27
6422,-3e-05,-7e-05,-0.00026,0.00058,0.00014,-0.00012,-0.00054,-0.00013,2,27
6423,-3e-05,-7e-05,-0.00026,0.00058,0.00014,-0.00012,-0.00054,-0.00013,2,27
6424,-3e-05,-7e-05,-0.00026,0.00058,0.00014,-0.00012,-0.00054,-0.00013,2,27
6425,-3e-05,-7e-05,-0.00026,0.00058,0.00014,-0.00012,-0.00054,-0.00013,2,27
6426,-3e-05,-7e-05,-0.00026,0.00058,0.00014,-0.00012,-0.00054,-0.00013,2,27
6427,-3e-05,-7e-05,-0.00026,0.00058,0.00014,-0.00012,-0.00054,-0.00013,2,27
6428,-3e-05,-7e-05,-0.00026,0.00058,0.00014,-0.00012,-0.00054,-0.00013,2,27
6429,-3e-05,-7e-05,-0.00026,0.00058,0.00014,-0.00012,-0.00054,-0.00013,2,27
6430,-3e-05,-7e-05,-0.00026,0.00058,0.00014,-0.00012,-0.00054,-0.00013,2,27
6431,-0.0001,1e-05,9e-05,0.00055,0.00022,-0.00014,0.00035,1e-05,2,27
6432,-1e-05,-3e-05,-0.00016,-0.0012,-0.00064,0.00017,-0.00066,-7e-05,2,27
6433,-1e-05,-3e-05,-0.00016,-0.0012,-0.00064,0.00017,-0.00066,-7e-05,2,27
6434,-1e-05,-3e-05,-0.00016,-0.0012,-0.00064,0.00017,-0.00066,-7e-05,2,27
6435,-1e-05,-3e-05,-0.00016,-0.0012,-0.00064,0.00017,-0.00066,-7e-05,2,27
6436,-1e-05,-3e-05,-0.00016,-0.0012,-0.00064,0.00017,-0.00066,-7e-05,2,27
6438,-1e-05,-3e-05,-0.00016,-0.0012,-0.00064,0.00017,-0.00066,-7e-05,2,27
6439,-1e-05,-3e-05,-0.00016,-0.0012,-0.00064,0.00017,-0.00066,-7e-05,2,27
6440,-1e-05,-3e-05,-0.00016,-0.0012,-0.00064,0.00017,-0.00066,-7e-05,2,27
6441,-1e-05,-3e-05,-0.00016,-0.0012,-0.00064,0.00017,-0.00066,-7e-05,2,27
6442,-1e-05,-3e-05,-0.00016,-0.0012,-0.00064,0.00017,-0.00066,-7e-05,2,27
6443,-1e-05,-3e-05,-0.00016,-0.0012,-0.00064,0.00017,-0.00066,-7e-05,2,27
6444,-1e-05,-3e-05,-0.00016,-0.0012,-0.00064,0.00017,-0.00066,-7e-05,2,27
6445,-1e-05,-3e-05,-0.00016,-0.0012,-0.00064,0.00017,-0.00066,-7e-05,2,27
6446,-1e-05,-3e-05,-0.00016,-0.0012,-0.00064,0.00017,-0.00066,-7e-05,2,27
6447,-1e-05,-3e-05,-0.00016,-0.0012,-0.00064,0.00017,-0.00066,-7e-05,2,27
6448,-1e-05,-3e-05,-0.00016,-0.0012,-0.00064,0.00017,-0.00066,-7e-05,2,27
6449,-1e-05,-3e-05,-0.00016,-0.0012,-0.00064,0.00017,-0.00066,-7e-05,2,27
6450,-1e-05,-3e-05,-0.00016,-0.0012,-0.00064,0.00017,-0.00066,-7e-05,2,27
6451,-1e-05,-3e-05,-0.00016,-0.0012,-0.00064,0.00017,-0.00066,-7e-05,2,27
6452,-1e-05,-3e-05,-0.00016,-0.0012,-0.00064,0.00017,-0.00066,-7e-05,2,27
6453,-1e-05,-3e-05,-0.00016,-0.0012,-0.00064,0.00017,-0.00066,-7e-05,2,27
6454,0.00015,3e-05,-3e-05,0.00016,-0.00033,-0.00015,0.00038,6e-05,2,27
6455,-0.00015,-1e-05,0.00015,-0.00022,-0.00028,0.00014,0.00039,0,2,27
6456,-0.00015,-1e-05,0.00015,-0.00022,-0.00028,0.00014,0.00039,0,2,27
6457,-0.00015,-1e-05,0.00015,-0.00022,-0.00028,0.00014,0.00039,0,2,27
6458,-0.00015,-1e-05,0.00015,-0.00022,-0.00028,0.00014,0.00039,0,2,27
6459,-0.00015,-1e-05,0.00015,-0.00022,-0.00028,0.00014,0.00039,0,2,27
6460,-0.00015,-1e-05,0.00015,-0.00022,-0.00028,0.00014,0.00039,0,2,27
6461,-0.00015,-1e-05,0.00015,-0.00022,-0.00028,0.00014,0.00039,0,2,27
6462,-0.00015,-1e-05,0.00015,-0.00022,-0.00028,0.00014,0.00039,0,2,27
6463,-0.00015,-1e-05,0.00015,-0.00022,-0.00028,0.00014,0.00039,0,2,27
6464,-0.00015,-1e-05,0.00015,-0.00022,-0.00028,0.00014,0.00039,0,2,27
6465,-0.00015,-1e-05,0.00015,-0.00022,-0.00028,0.00014,0.00039,0,2,27
6466,-0.00015,-1e-05,0.00015,-0.00022,-0.00028,0.00014,0.00039,0,2,27
6467,-0.00015,-1e-05,0.00015,-0.00022,-0.00028,0.00014,0.00039,0,2,27
6468,-0.00015,-1e-05,0.00015,-0.00022,-0.00028,0.00014,0.00039,0,2,27
6469,-0.00015,-1e-05,0.00015,-0.00022,-0.00028,0.00014,0.00039,0,2,27
6470,-0.00015,-1e-05,0.00015,-0.00022,-0.00028,0.00014,0.00039,0,2,27
6471,-0.00015,-1e-05,0.00015,-0.00022,-0.00028,0.00014,0.00039,0,2,27
6472,-0.00015,-1e-05,0.00015,-0.00022,-0.00028,0.00014,0.00039,0,2,27
6473,-0.00015,-1e-05,0.00015,-0.00022,-0.00028,0.00014,0.00039,0,2,27
6474,-0.00015,-1e-05,0.00015,-0.00022,-0.00028,0.00014,0.00039,0,2,27
6475,-0.00015,-1e-05,0.00015,-0.00022,-0.00028,0.00014,0.00039,0,2,27
6476,-0.00015,-1e-05,0.00015,-0.00022,-0.00028,0.00014,0.00039,0,2,27
6477,0.00026,3e-05,5e-05,-0.0001,6e-05,-0.00016,-5e-05,-4e-05,2,27
6478,0.00026,3e-05,5e-05,-0.0001,6e-05,-0.00016,-5e-05,-4e-05,2,27
6479,0.00026,3e-05,5e-05,-0.0001,6e-05,-0.00016,-5e-05,-4e-05,2,27
6480,0.00026,3e-05,5e-05,-0.0001,6e-05,-0.00016,-5e-05,-4e-05,2,27
6481,0.00026,3e-05,5e-05,-0.0001,6e-05,-0.00016,-5e-05,-4e-05,2,27
6482,0.00026,3e-05,5e-05,-0.0001,6e-05,-0.00016,-5e-05,-4e-05,2,27
6483,0.00026,3e-05,5e-05,-0.0001,6e-05,-0.00016,-5e-05,-4e-05,2,27
6484,0.00026,3e-05,5e-05,-0.0001,6e-05,-0.00016,-5e-05,-4e-05,2,27
6485,0.00026,3e-05,5e-05,-0.0001,6e-05,-0.00016,-5e-05,-4e-05,2,27
6486,0.00026,3e-05,5e-05,-0.0001,6e-05,-0.00016,-5e-05,-4e-05,2,27
6488,0.00026,3e-05,5e-05,-0.0001,6e-05,-0.00016,-5e-05,-4e-05,2,27
6489,0.00026,3e-05,5e-05,-0.0001,6e-05,-0.00016,-5e-05,-4e-05,2,27
6490,0.00026,3e-05,5e-05,-0.0001,6e-05,-0.00016,-5e-05,-4e-05,2,27
6491,0.0001,1e-05,3e-05,-8e-05,-0.00017,-3e-05,-0.00082,-7e-05,2,27
6492,9e-05,4e-05,3e-05,0.00027,0.0001,1e-05,0.00019,2e-05,2,27
6493,9e-05,4e-05,3e-05,0.00027,0.0001,1e-05,0.00019,2e-05,2,27
6494,9e-05,4e-05,3e-05,0.00027,0.0001,1e-05,0.00019,2e-05,2,27
6495,9e-05,4e-05,3e-05,0.00027,0.0001,1e-05,0.00019,2e-05,2,27
6496,9e-05,4e-05,3e-05,0.00027,0.0001,1e-05,0.00019,2e-05,2,27
6497,9e-05,4e-05,3e-05,0.00027,0.0001,1e-05,0.00019,2e-05,2,27
6498,9e-05,4e-05,3e-05,0.00027,0.0001,1e-05,0.00019,2e-05,2,27
6499,9e-05,4e-05,3e-05,0.00027,0.0001,1e-05,0.00019,2e-05,2,27
6500,9e-05,4e-05,3e-05,0.00027,0.0001,1e-05,0.00019,2e-05,2,27
6501,9e-05,4e-05,3e-05,0.00027,0.0001,1e-05,0.00019,2e-05,2,27
6502,9e-05,4e-05,3e-05,0.00027,0.0001,1e-05,0.00019,2e-05,2,27
6503,9e-05,4e-05,3e-05,0.00027,0.0001,1e-05,0.00019,2e-05,2,27
6504,9e-05,4e-05,3e-05,0.00027,0.0001,1e-05,0.00019,2e-05,2,27
6505,9e-05,4e-05,3e-05,0.00027,0.0001,1e-05,0.00019,2e-05,2,27
6506,9e-05,4e-05,3e-05,0.00027,0.0001,1e-05,0.00019,2e-05,2,27
6507,9e-05,4e-05,3e-05,0.00027,0.0001,1e-05,0.00019,2e-05,2,27
6508,9e-05,4e-05,3e-05,0.00027,0.0001,1e-05,0.00019,2e-05,2,27
6509,9e-05,4e-05,3e-05,0.00027,0.0001,1e-05,0.00019,2e-05,2,27
6510,9e-05,4e-05,3e-05,0.00027,0.0001,1e-05,0.00019,2e-05,2,27
6511,9e-05,4e-05,3e-05,0.00027,0.0001,1e-05,0.00019,2e-05,2,27
6512,9e-05,4e-05,3e-05,0.00027,0.0001,1e-05,0.00019,2e-05,2,27
6513,9e-05,4e-05,3e-05,0.00027,0.0001,1e-05,0.00019,2e-05,2,27
6514,-0.00015,-4e-05,-6e-05,2e-05,0.00012,-0.00021,0.0004,0.0001,2,27
6515,-0.0001,-3e-05,0.00011,0.00021,0.00029,7e-05,0.00013,-5e-05,2,27
6516,-0.0001,-3e-05,0.00011,0.00021,0.00029,7e-05,0.00013,-5e-05,2,27
6517,-0.0001,-3e-05,0.00011,0.00021,0.00029,7e-05,0.00013,-5e-05,2,27
6518,-0.0001,-3e-05,0.00011,0.00021,0.00029,7e-05,0.00013,-5e-05,2,27
6519,-0.0001,-3e-05,0.00011,0.00021,0.00029,7e-05,0.00013,-5e-05,2,27
6520,-0.0001,-3e-05,0.00011,0.00021,0.00029,7e-05,0.00013,-5e-05,2,27
6521,-0.0001,-3e-05,0.00011,0.00021,0.00029,7e-05,0.00013,-5e-05,2,27
6522,-0.0001,-3e-05,0.00011,0.00021,0.00029,7e-05,0.00013,-5e-05,2,27
6523,-0.0001,-3e-05,0.00011,0.00021,0.00029,7e-05,0.00013,-5e-05,2,27
6524,-0.0001,-3e-05,0.00011,0.00021,0.00029,7e-05,0.00013,-5e-05,2,27
6525,-0.0001,-3e-05,0.00011,0.00021,0.00029,7e-05,0.00013,-5e-05,2,27
6526,-0.0001,-3e-05,0.00011,0.00021,0.00029,7e-05,0.00013,-5e-05,2,27
6527,-0.0001,-3e-05,0.00011,0.00021,0.00029,7e-05,0.00013,-5e-05,2,27
6528,-0.0001,-3e-05,0.00011,0.00021,0.00029,7e-05,0.00013,-5e-05,2,27
6529,-0.0001,-3e-05,0.00011,0.00021,0.00029,7e-05,0.00013,-5e-05,2,27
6530,-0.0001,-3e-05,0.00011,0.00021,0.00029,7e-05,0.00013,-5e-05,2,27
6531,-0.0001,-3e-05,0.00011,0.00021,0.00029,7e-05,0.00013,-5e-05,2,27
6532,-0.0001,-3e-05,0.00011,0.00021,0.00029,7e-05,0.00013,-5e-05,2,27
6533,-0.0001,-3e-05,0.00011,0.00021,0.00029,7e-05,0.00013,-5e-05,2,27
6534,-0.0001,-3e-05,0.00011,0.00021,0.00029,7e-05,0.00013,-5e-05,2,27
6535,-0.0001,-3e-05,0.00011,0.00021,0.00029,7e-05,0.00013,-5e-05,2,27
6536,-0.0001,-3e-05,0.00011,0.00021,0.00029,7e-05,0.00013,-5e-05,2,27
6538,-3e-05,-3e-05,-0.00012,0,-0.00014,-0.00013,0.00021,7e-05,2,27
6539,-3e-05,-3e-05,-0.00012,0,-0.00014,-0.00013,0.00021,7e-05,2,27
6540,-3e-05,-3e-05,-0.00012,0,-0.00014,-0.00013,0.00021,7e-05,2,27
6541,-3e-05,-3e-05,-0.00012,0,-0.00014,-0.00013,0.00021,7e-05,2,27
6542,-3e-05,-3e-05,-0.00012,0,-0.00014,-0.00013,0.00021,7e-05,2,27
6543,-3e-05,-3e-05,-0.00012,0,-0.00014,-0.00013,0.00021,7e-05,2,27
6544,-3e-05,-3e-05,-0.00012,0,-0.00014,-0.00013,0.00021,7e-05,2,27
6545,-3e-05,-3e-05,-0.00012,0,-0.00014,-0.00013,0.00021,7e-05,2,27
6546,-3e-05,-3e-05,-0.00012,0,-0.00014,-0.00013,0.00021,7e-05,2,27
6547,-3e-05,-3e-05,-0.00012,0,-0.00014,-0.00013,0.00021,7e-05,2,27
6548,-3e-05,-3e-05,-0.00012,0,-0.00014,-0.00013,0.00021,7e-05,2,27
6549,-3e-05,-3e-05,-0.00012,0,-0.00014,-0.00013,0.00021,7e-05,2,27
6550,-3e-05,-3e-05,-0.00012,0,-0.00014,-0.00013,0.00021,7e-05,2,27
6551,-1e-05,6e-05,4e-05,-0.00022,0.00074,8e-05,-0.0002,-2e-05,2,27
6552,0.00011,-1e-05,-6e-05,0.00037,0.00019,9e-05,0.0005,0.00019,2,27
6553,0.00011,-1e-05,-6e-05,0.00037,0.00019,9e-05,0.0005,0.00019,2,27
6554,0.00011,-1e-05,-6e-05,0.00037,0.00019,9e-05,0.0005,0.00019,2,27
6555,0.00011,-1e-05,-6e-05,0.00037,0.00019,9e-05,0.0005,0.00019,2,27
6556,0.00011,-1e-05,-6e-05,0.00037,0.00019,9e-05,0.0005,0.00019,2,27
6557,0.00011,-1e-05,-6e-05,0.00037,0.00019,9e-05,0.0005,0.00019,2,27
6558,0.00011,-1e-05,-6e-05,0.00037,0.00019,9e-05,0.0005,0.00019,2,27
6559,0.00011,-1e-05,-6e-05,0.00037,0.00019,9e-05,0.0005,0.00019,2,27
6560,0.00011,-1e-05,-6e-05,0.00037,0.00019,9e-05,0.0005,0.00019,2,27
6561,0.00011,-1e-05,-6e-05,0.00037,0.00019,9e-05,0.0005,0.00019,2,27
6562,0.00011,-1e-05,-6e-05,0.00037,0.00019,9e-05,0.0005,0.00019,2,27
6563,0.00011,-1e-05,-6e-05,0.00037,0.00019,9e-05,0.0005,0.00019,2,27
6564,0.00011,-1e-05,-6e-05,0.00037,0.00019,9e-05,0.0005,0.00019,2,27
6565,0.00011,-1e-05,-6e-05,0.00037,0.00019,9e-05,0.0005,0.00019,2,27
6566,0.00011,-1e-05,-6e-05,0.00037,0.00019,9e-05,0.0005,0.00019,2,27
6567,0.00011,-1e-05,-6e-05,0.00037,0.00019,9e-05,0.0005,0.00019,2,27
6568,0.00011,-1e-05,-6e-05,0.00037,0.00019,9e-05,0.0005,0.00019,2,27
6569,0.00011,-1e-05,-6e-05,0.00037,0.00019,9e-05,0.0005,0.00019,2,27
6570,0.00011,-1e-05,-6e-05,0.00037,0.00019,9e-05,0.0005,0.00019,2,27
6571,0.00011,-1e-05,-6e-05,0.00037,0.00019,9e-05,0.0005,0.00019,2,27
6572,0.00011,-1e-05,-6e-05,0.00037,0.00019,9e-05,0.0005,0.00019,2,27
6573,0.00011,-1e-05,-6e-05,0.00037,0.00019,9e-05,0.0005,0.00019,2,27
6574,9e-05,6e-05,1e-05,0.00015,-0.00038,-0.00016,0.00011,-1e-05,2,27
6575,9e-05,6e-05,1e-05,0.00015,-0.00038,-0.00016,0.00011,-1e-05,2,27
6576,-7e-05,-3e-05,2e-05,-0.00012,6e-05,-0.00013,-0.00048,0,2,27
6577,-7e-05,-3e-05,2e-05,-0.00012,6e-05,-0.00013,-0.00048,0,2,27
6578,-7e-05,-3e-05,2e-05,-0.00012,6e-05,-0.00013,-0.00048,0,2,27
6579,-7e-05,-3e-05,2e-05,-0.00012,6e-05,-0.00013,-0.00048,0,2,27
6580,-7e-05,-3e-05,2e-05,-0.00012,6e-05,-0.00013,-0.00048,0,2,27
6581,-7e-05,-3e-05,2e-05,-0.00012,6e-05,-0.00013,-0.00048,0,2,27
6582,-7e-05,-3e-05,2e-05,-0.00012,6e-05,-0.00013,-0.00048,0,2,27
6583,-7e-05,-3e-05,2e-05,-0.00012,6e-05,-0.00013,-0.00048,0,2,27
6584,-7e-05,-3e-05,2e-05,-0.00012,6e-05,-0.00013,-0.00048,0,2,27
6585,-7e-05,-3e-05,2e-05,-0.00012,6e-05,-0.00013,-0.00048,0,2,27
6586,-7e-05,-3e-05,2e-05,-0.00012,6e-05,-0.00013,-0.00048,0,2,27
6588,-7e-05,-3e-05,2e-05,-0.00012,6e-05,-0.00013,-0.00048,0,2,27
6589,-7e-05,-3e-05,2e-05,-0.00012,6e-05,-0.00013,-0.00048,0,2,27
6590,-7e-05,-3e-05,2e-05,-0.00012,6e-05,-0.00013,-0.00048,0,2,27
6591,-7e-05,-3e-05,2e-05,-0.00012,6e-05,-0.00013,-0.00048,0,2,27
6592,-7e-05,-3e-05,2e-05,-0.00012,6e-05,-0.00013,-0.00048,0,2,27
6593,-7e-05,-3e-05,2e-05,-0.00012,6e-05,-0.00013,-0.00048,0,2,27
6594,-7e-05,-3e-05,2e-05,-0.00012,6e-05,-0.00013,-0.00048,0,2,27
6595,-7e-05,-3e-05,2e-05,-0.00012,6e-05,-0.00013,-0.00048,0,2,27
6596,-0.00011,-3e-05,3e-05,0.00027,0.00039,0.00029,1e-05,-0.00012,2,27
6597,0.00011,-7e-05,3e-05,0,-0.00043,-0.00014,-0.0006,0.0001,2,27
6598,-0.00045,-0.00012,-0.00035,-0.00078,-0.00015,0.0003,-0.00041,-0.00018,2,27
6599,-0.00045,-0.00012,-0.00035,-0.00078,-0.00015,0.0003,-0.00041,-0.00018,2,27
6600,-0.00045,-0.00012,-0.00035,-0.00078,-0.00015,0.0003,-0.00041,-0.00018,2,27
6601,-0.00045,-0.00012,-0.00035,-0.00078,-0.00015,0.0003,-0.00041,-0.00018,2,27
6602,-0.00045,-0.00012,-0.00035,-0.00078,-0.00015,0.0003,-0.00041,-0.00018,2,27
6603,-0.00045,-0.00012,-0.00035,-0.00078,-0.00015,0.0003,-0.00041,-0.00018,2,27
6604,-0.00045,-0.00012,-0.00035,-0.00078,-0.00015,0.0003,-0.00041,-0.00018,2,27
6605,-0.00045,-0.00012,-0.00035,-0.00078,-0.00015,0.0003,-0.00041,-0.00018,2,27
6606,-0.00045,-0.00012,-0.00035,-0.00078,-0.00015,0.0003,-0.00041,-0.00018,2,27
6607,-0.00045,-0.00012,-0.00035,-0.00078,-0.00015,0.0003,-0.00041,-0.00018,2,27
6608,-0.00045,-0.00012,-0.00035,-0.00078,-0.00015,0.0003,-0.00041,-0.00018,2,27
6609,-0.00045,-0.00012,-0.00035,-0.00078,-0.00015,0.0003,-0.00041,-0.00018,2,27
6610,9e-05,3e-05,-1e-05,0.0005,0.00073,-0.00024,-0.00045,0,2,27
6611,9e-05,3e-05,-1e-05,0.0005,0.00073,-0.00024,-0.00045,0,2,27
6612,9e-05,3e-05,-1e-05,0.0005,0.00073,-0.00024,-0.00045,0,2,27
6613,9e-05,3e-05,-1e-05,0.0005,0.00073,-0.00024,-0.00045,0,2,27
6614,9e-05,3e-05,-1e-05,0.0005,0.00073,-0.00024,-0.00045,0,2,27
6615,9e-05,3e-05,-1e-05,0.0005,0.00073,-0.00024,-0.00045,0,2,27
6616,9e-05,3e-05,-1e-05,0.0005,0.00073,-0.00024,-0.00045,0,2,27
6617,9e-05,3e-05,-1e-05,0.0005,0.00073,-0.00024,-0.00045,0,2,27
6618,9e-05,3e-05,-1e-05,0.0005,0.00073,-0.00024,-0.00045,0,2,27
6619,-2e-05,-6e-05,7e-05,8e-05,-0.00017,-1e-05,-0.00019,-1e-05,2,27
6620,-2e-05,-6e-05,7e-05,8e-05,-0.00017,-1e-05,-0.00019,-1e-05,2,27
6621,-2e-05,-6e-05,7e-05,8e-05,-0.00017,-1e-05,-0.00019,-1e-05,2,27
6622,-2e-05,-6e-05,7e-05,8e-05,-0.00017,-1e-05,-0.00019,-1e-05,2,27
6623,-2e-05,-6e-05,7e-05,8e-05,-0.00017,-1e-05,-0.00019,-1e-05,2,27
6624,-2e-05,-6e-05,7e-05,8e-05,-0.00017,-1e-05,-0.00019,-1e-05,2,27
6625,-2e-05,-6e-05,7e-05,8e-05,-0.00017,-1e-05,-0.00019,-1e-05,2,27
6626,-2e-05,-6e-05,7e-05,8e-05,-0.00017,-1e-05,-0.00019,-1e-05,2,27
6627,-2e-05,-6e-05,7e-05,8e-05,-0.00017,-1e-05,-0.00019,-1e-05,2,27
6628,-2e-05,-6e-05,7e-05,8e-05,-0.00017,-1e-05,-0.00019,-1e-05,2,27
6629,-2e-05,-6e-05,7e-05,8e-05,-0.00017,-1e-05,-0.00019,-1e-05,2,27
6630,-2e-05,-6e-05,7e-05,8e-05,-0.00017,-1e-05,-0.00019,-1e-05,2,27
6631,-2e-05,-6e-05,7e-05,8e-05,-0.00017,-1e-05,-0.00019,-1e-05,2,27
6632,-2e-05,-6e-05,7e-05,8e-05,-0.00017,-1e-05,-0.00019,-1e-05,2,27
6633,-2e-05,-6e-05,7e-05,8e-05,-0.00017,-1e-05,-0.00019,-1e-05,2,27
6634,-1e-05,-1e-05,0,-0.0001,-6e-05,5e-05,4e-05,-0.00013,2,27
6635,-1e-05,-1e-05,0,-0.0001,-6e-05,5e-05,4e-05,-0.00013,2,27
6636,2e-05,-1e-05,0.0001,0.00024,0.00016,-9e-05,0.00067,5e-05,2,27
6638,2e-05,-1e-05,0.0001,0.00024,0.00016,-9e-05,0.00067,5e-05,2,27
6639,2e-05,-1e-05,0.0001,0.00024,0.00016,-9e-05,0.00067,5e-05,2,27
6640,2e-05,-1e-05,0.0001,0.00024,0.00016,-9e-05,0.00067,5e-05,2,27
6641,2e-05,-1e-05,0.0001,0.00024,0.00016,-9e-05,0.00067,5e-05,2,27
6642,2e-05,-1e-05,0.0001,0.00024,0.00016,-9e-05,0.00067,5e-05,2,27
6643,2e-05,-1e-05,0.0001,0.00024,0.00016,-9e-05,0.00067,5e-05,2,27
6644,2e-05,-1e-05,0.0001,0.00024,0.00016,-9e-05,0.00067,5e-05,2,27
6645,2e-05,-1e-05,0.0001,0.00024,0.00016,-9e-05,0.00067,5e-05,2,27
6646,2e-05,-1e-05,0.0001,0.00024,0.00016,-9e-05,0.00067,5e-05,2,27
6647,2e-05,-1e-05,0.0001,0.00024,0.00016,-9e-05,0.00067,5e-05,2,27
6648,2e-05,-1e-05,0.0001,0.00024,0.00016,-9e-05,0.00067,5e-05,2,27
6649,2e-05,-1e-05,0.0001,0.00024,0.00016,-9e-05,0.00067,5e-05,2,27
6650,2e-05,-1e-05,0.0001,0.00024,0.00016,-9e-05,0.00067,5e-05,2,27
6651,2e-05,-1e-05,0.0001,0.00024,0.00016,-9e-05,0.00067,5e-05,2,27
6652,2e-05,-1e-05,0.0001,0.00024,0.00016,-9e-05,0.00067,5e-05,2,27
6653,2e-05,-1e-05,0.0001,0.00024,0.00016,-9e-05,0.00067,5e-05,2,27
6654,2e-05,-1e-05,0.0001,0.00024,0.00016,-9e-05,0.00067,5e-05,2,27
6655,2e-05,-1e-05,0.0001,0.00024,0.00016,-9e-05,0.00067,5e-05,2,27
6656,0.00021,-2e-05,-0.00039,-0.00094,-0.00031,-0.0001,-0.00052,-5e-05,2,27
6657,0.00021,-2e-05,-0.00039,-0.00094,-0.00031,-0.0001,-0.00052,-5e-05,2,27
6658,-2e-05,3e-05,0.00015,0.00027,0.00012,0.00015,-7e-05,0,2,27
6659,0.0002,9e-05,0,-2e-05,0.0002,0,0.00012,6e-05,2,27
6660,0.0002,9e-05,0,-2e-05,0.0002,0,0.00012,6e-05,2,27
6661,0.0002,9e-05,0,-2e-05,0.0002,0,0.00012,6e-05,2,27
6662,0.0002,9e-05,0,-2e-05,0.0002,0,0.00012,6e-05,2,27
6663,0.0002,9e-05,0,-2e-05,0.0002,0,0.00012,6e-05,2,27
6664,0.0002,9e-05,0,-2e-05,0.0002,0,0.00012,6e-05,2,27
6665,0.0002,9e-05,0,-2e-05,0.0002,0,0.00012,6e-05,2,27
6666,0.0002,9e-05,0,-2e-05,0.0002,0,0.00012,6e-05,2,27
6667,0.0002,9e-05,0,-2e-05,0.0002,0,0.00012,6e-05,2,27
6668,0.0002,9e-05,0,-2e-05,0.0002,0,0.00012,6e-05,2,27
6669,0.0002,9e-05,0,-2e-05,0.0002,0,0.00012,6e-05,2,27
6670,-0.00019,-7e-05,5e-05,-8e-05,-0.00021,9e-05,-2e-05,-7e-05,2,27
6671,-0.00019,-7e-05,5e-05,-8e-05,-0.00021,9e-05,-2e-05,-7e-05,2,27
6672,-0.00019,-7e-05,5e-05,-8e-05,-0.00021,9e-05,-2e-05,-7e-05,2,27
6673,-0.00019,-7e-05,5e-05,-8e-05,-0.00021,9e-05,-2e-05,-7e-05,2,27
6674,-0.00019,-7e-05,5e-05,-8e-05,-0.00021,9e-05,-2e-05,-7e-05,2,27
6675,-0.00019,-7e-05,5e-05,-8e-05,-0.00021,9e-05,-2e-05,-7e-05,2,27
6676,-0.00019,-7e-05,5e-05,-8e-05,-0.00021,9e-05,-2e-05,-7e-05,2,27
6677,-0.00019,-7e-05,5e-05,-8e-05,-0.00021,9e-05,-2e-05,-7e-05,2,27
6678,-0.00019,-7e-05,5e-05,-8e-05,-0.00021,9e-05,-2e-05,-7e-05,2,27
6679,0.00023,2e-05,7e-05,-0.0003,-0.00029,-0.00036,-0.00062,-6e-05,2,27
6680,0.00023,2e-05,7e-05,-0.0003,-0.00029,-0.00036,-0.00062,-6e-05,2,27
6681,0.00023,2e-05,7e-05,-0.0003,-0.00029,-0.00036,-0.00062,-6e-05,2,27
6682,0.00023,2e-05,7e-05,-0.0003,-0.00029,-0.00036,-0.00062,-6e-05,2,27
6683,0.00023,2e-05,7e-05,-0.0003,-0.00029,-0.00036,-0.00062,-6e-05,2,27
6684,0.00023,2e-05,7e-05,-0.0003,-0.00029,-0.00036,-0.00062,-6e-05,2,27
6685,0.00023,2e-05,7e-05,-0.0003,-0.00029,-0.00036,-0.00062,-6e-05,2,27
6686,0.00023,2e-05,7e-05,-0.0003,-0.00029,-0.00036,-0.00062,-6e-05,2,27
6688,0.00023,2e-05,7e-05,-0.0003,-0.00029,-0.00036,-0.00062,-6e-05,2,27
6689,0.00023,2e-05,7e-05,-0.0003,-0.00029,-0.00036,-0.00062,-6e-05,2,27
6690,0.00023,2e-05,7e-05,-0.0003,-0.00029,-0.00036,-0.00062,-6e-05,2,27
6691,0.00023,2e-05,7e-05,-0.0003,-0.00029,-0.00036,-0.00062,-6e-05,2,27
6692,0.00023,2e-05,7e-05,-0.0003,-0.00029,-0.00036,-0.00062,-6e-05,2,27
6693,0.00023,2e-05,7e-05,-0.0003,-0.00029,-0.00036,-0.00062,-6e-05,2,27
6694,2e-05,7e-05,0.00012,8e-05,0.00011,2e-05,0.00018,-4e-05,2,27
6695,2e-05,7e-05,0.00012,8e-05,0.00011,2e-05,0.00018,-4e-05,2,27
6696,-0.00012,-5e-05,7e-05,0.00018,3e-05,-0.00021,-8e-05,-2e-05,2,27
6697,-0.00012,-5e-05,7e-05,0.00018,3e-05,-0.00021,-8e-05,-2e-05,2,27
6698,-0.00012,-5e-05,7e-05,0.00018,3e-05,-0.00021,-8e-05,-2e-05,2,27
6699,-0.00012,-5e-05,7e-05,0.00018,3e-05,-0.00021,-8e-05,-2e-05,2,27
6700,-0.00012,-5e-05,7e-05,0.00018,3e-05,-0.00021,-8e-05,-2e-05,2,27
6701,-0.00012,-5e-05,7e-05,0.00018,3e-05,-0.00021,-8e-05,-2e-05,2,27
6702,-0.00012,-5e-05,7e-05,0.00018,3e-05,-0.00021,-8e-05,-2e-05,2,27
6703,-0.00012,-5e-05,7e-05,0.00018,3e-05,-0.00021,-8e-05,-2e-05,2,27
6704,-0.00012,-5e-05,7e-05,0.00018,3e-05,-0.00021,-8e-05,-2e-05,2,27
6705,-0.00012,-5e-05,7e-05,0.00018,3e-05,-0.00021,-8e-05,-2e-05,2,27
6706,-0.00012,-5e-05,7e-05,0.00018,3e-05,-0.00021,-8e-05,-2e-05,2,27
6707,-0.00012,-5e-05,7e-05,0.00018,3e-05,-0.00021,-8e-05,-2e-05,2,27
6708,-0.00012,-5e-05,7e-05,0.00018,3e-05,-0.00021,-8e-05,-2e-05,2,27
6709,-0.00012,-5e-05,7e-05,0.00018,3e-05,-0.00021,-8e-05,-2e-05,2,27
6710,-0.00012,-5e-05,7e-05,0.00018,3e-05,-0.00021,-8e-05,-2e-05,2,27
6711,-0.00012,-5e-05,7e-05,0.00018,3e-05,-0.00021,-8e-05,-2e-05,2,27
6712,-0.00012,-5e-05,7e-05,0.00018,3e-05,-0.00021,-8e-05,-2e-05,2,27
6713,-0.00012,-5e-05,7e-05,0.00018,3e-05,-0.00021,-8e-05,-2e-05,2,27
6714,-0.00012,-5e-05,7e-05,0.00018,3e-05,-0.00021,-8e-05,-2e-05,2,27
6715,-0.00012,-5e-05,7e-05,0.00018,3e-05,-0.00021,-8e-05,-2e-05,2,27
6716,2e-05,2e-05,0,-0.0004,-0.0001,0.0001,-0.0002,-0.0001,2,27
6717,-0.00014,2e-05,0.00031,0.0007,-0.0002,6e-05,-0.00031,5e-05,2,27
6718,5e-05,5e-05,0.00016,0.00021,0.00061,5e-05,0.00033,-8e-05,2,27
6719,5e-05,5e-05,0.00016,0.00021,0.00061,5e-05,0.00033,-8e-05,2,27
6720,5e-05,5e-05,0.00016,0.00021,0.00061,5e-05,0.00033,-8e-05,2,27
6721,5e-05,5e-05,0.00016,0.00021,0.00061,5e-05,0.00033,-8e-05,2,27
6722,5e-05,5e-05,0.00016,0.00021,0.00061,5e-05,0.00033,-8e-05,2,27
6723,5e-05,5e-05,0.00016,0.00021,0.00061,5e-05,0.00033,-8e-05,2,27
6724,5e-05,5e-05,0.00016,0.00021,0.00061,5e-05,0.00033,-8e-05,2,27
6725,5e-05,5e-05,0.00016,0.00021,0.00061,5e-05,0.00033,-8e-05,2,27
6726,5e-05,5e-05,0.00016,0.00021,0.00061,5e-05,0.00033,-8e-05,2,27
6727,5e-05,5e-05,0.00016,0.00021,0.00061,5e-05,0.00033,-8e-05,2,27
6728,5e-05,5e-05,0.00016,0.00021,0.00061,5e-05,0.00033,-8e-05,2,27
6729,5e-05,5e-05,0.00016,0.00021,0.00061,5e-05,0.00033,-8e-05,2,27
6730,-0.00019,-8e-05,-0.00013,4e-05,0.00044,0.00023,0.00041,-2e-05,2,27
6731,-0.00019,-8e-05,-0.00013,4e-05,0.00044,0.00023,0.00041,-2e-05,2,27
6732,-0.00019,-8e-05,-0.00013,4e-05,0.00044,0.00023,0.00041,-2e-05,2,27
6733,-0.00019,-8e-05,-0.00013,4e-05,0.00044,0.00023,0.00041,-2e-05,2,27
6734,-0.00019,-8e-05,-0.00013,4e-05,0.00044,0.00023,0.00041,-2e-05,2,27
6735,-0.00019,-8e-05,-0.00013,4e-05,0.00044,0.00023,0.00041,-2e-05,2,27
6736,-0.00019,-8e-05,-0.00013,4e-05,0.00044,0.00023,0.00041,-2e-05,2,27
6738,-0.00019,-8e-05,-0.00013,4e-05,0.00044,0.00023,0.00041,-2e-05,2,27
6739,0.00011,6e-05,-0.0002,-0.00031,-0.00014,0.00011,-7e-05,-1e-05,2,27
6740,0.00011,6e-05,-0.0002,-0.00031,-0.00014,0.00011,-7e-05,-1e-05,2,27
6741,0.00011,6e-05,-0.0002,-0.00031,-0.00014,0.00011,-7e-05,-1e-05,2,27
6742,0.00011,6e-05,-0.0002,-0.00031,-0.00014,0.00011,-7e-05,-1e-05,2,27
6743,0.00011,6e-05,-0.0002,-0.00031,-0.00014,0.00011,-7e-05,-1e-05,2,27
6744,0.00011,6e-05,-0.0002,-0.00031,-0.00014,0.00011,-7e-05,-1e-05,2,27
6745,0.00011,6e-05,-0.0002,-0.00031,-0.00014,0.00011,-7e-05,-1e-05,2,27
6746,0.00011,6e-05,-0.0002,-0.00031,-0.00014,0.00011,-7e-05,-1e-05,2,27
6747,0.00011,6e-05,-0.0002,-0.00031,-0.00014,0.00011,-7e-05,-1e-05,2,27
6748,0.00011,6e-05,-0.0002,-0.00031,-0.00014,0.00011,-7e-05,-1e-05,2,27
6749,0.00011,6e-05,-0.0002,-0.00031,-0.00014,0.00011,-7e-05,-1e-05,2,27
6750,0.00011,6e-05,-0.0002,-0.00031,-0.00014,0.00011,-7e-05,-1e-05,2,27
6751,0.00011,6e-05,-0.0002,-0.00031,-0.00014,0.00011,-7e-05,-1e-05,2,27
6752,0.00011,6e-05,-0.0002,-0.00031,-0.00014,0.00011,-7e-05,-1e-05,2,27
6753,0.00011,6e-05,-0.0002,-0.00031,-0.00014,0.00011,-7e-05,-1e-05,2,27
6754,-2e-05,1e-05,6e-05,-0.0002,0.00028,7e-05,0.00034,1e-05,2,27
6755,-2e-05,1e-05,6e-05,-0.0002,0.00028,7e-05,0.00034,1e-05,2,27
6756,-4e-05,-0.00025,-3e-05,0.0002,-0.00032,-0.0001,-0.00022,0,2,27
6757,-4e-05,-0.00025,-3e-05,0.0002,-0.00032,-0.0001,-0.00022,0,2,27
6758,-4e-05,-0.00025,-3e-05,0.0002,-0.00032,-0.0001,-0.00022,0,2,27
6759,-4e-05,-0.00025,-3e-05,0.0002,-0.00032,-0.0001,-0.00022,0,2,27
6760,-4e-05,-0.00025,-3e-05,0.0002,-0.00032,-0.0001,-0.00022,0,2,27
6761,-4e-05,-0.00025,-3e-05,0.0002,-0.00032,-0.0001,-0.00022,0,2,27
6762,-4e-05,-0.00025,-3e-05,0.0002,-0.00032,-0.0001,-0.00022,0,2,27
6763,-4e-05,-0.00025,-3e-05,0.0002,-0.00032,-0.0001,-0.00022,0,2,27
6764,-4e-05,-0.00025,-3e-05,0.0002,-0.00032,-0.0001,-0.00022,0,2,27
6765,-4e-05,-0.00025,-3e-05,0.0002,-0.00032,-0.0001,-0.00022,0,2,27
6766,-4e-05,-0.00025,-3e-05,0.0002,-0.00032,-0.0001,-0.00022,0,2,27
6767,-4e-05,-0.00025,-3e-05,0.0002,-0.00032,-0.0001,-0.00022,0,2,27
6768,-4e-05,-0.00025,-3e-05,0.0002,-0.00032,-0.0001,-0.00022,0,2,27
6769,-4e-05,-0.00025,-3e-05,0.0002,-0.00032,-0.0001,-0.00022,0,2,27
6770,-4e-05,-0.00025,-3e-05,0.0002,-0.00032,-0.0001,-0.00022,0,2,27
6771,-4e-05,-0.00025,-3e-05,0.0002,-0.00032,-0.0001,-0.00022,0,2,27
6772,-4e-05,-0.00025,-3e-05,0.0002,-0.00032,-0.0001,-0.00022,0,2,27
6773,-4e-05,-0.00025,-3e-05,0.0002,-0.00032,-0.0001,-0.00022,0,2,27
6774,-4e-05,-0.00025,-3e-05,0.0002,-0.00032,-0.0001,-0.00022,0,2,27
6775,-4e-05,-0.00025,-3e-05,0.0002,-0.00032,-0.0001,-0.00022,0,2,27
6776,-5e-05,0.0001,7e-05,-2e-05,-4e-05,2e-05,-0.00013,7e-05,2,27
6777,0.0001,-5e-05,-0.00015,-0.00059,-0.00041,-0.00015,-0.00057,-4e-05,2,27
6778,-0.0002,4e-05,0.0001,-0.00012,0.0001,0,1e-05,-0.00025,2,27
6779,-0.0002,4e-05,0.0001,-0.00012,0.0001,0,1e-05,-0.00025,2,27
6780,-0.0002,4e-05,0.0001,-0.00012,0.0001,0,1e-05,-0.00025,2,27
6781,-0.0002,4e-05,0.0001,-0.00012,0.0001,0,1e-05,-0.00025,2,27
6782,-0.0002,4e-05,0.0001,-0.00012,0.0001,0,1e-05,-0.00025,2,27
6783,-0.0002,4e-05,0.0001,-0.00012,0.0001,0,1e-05,-0.00025,2,27
6784,-0.0002,4e-05,0.0001,-0.00012,0.0001,0,1e-05,-0.00025,2,27
6785,-0.0002,4e-05,0.0001,-0.00012,0.0001,0,1e-05,-0.00025,2,27
6786,-0.0002,4e-05,0.0001,-0.00012,0.0001,0,1e-05,-0.00025,2,27
6788,-0.0002,4e-05,0.0001,-0.00012,0.0001,0,1e-05,-0.00025,2,27
6789,-0.0002,4e-05,0.0001,-0.00012,0.0001,0,1e-05,-0.00025,2,27
6790,2e-05,3e-05,9e-05,0.00025,-0.0004,1e-05,-0.00022,-0.00012,2,27
36704,-0.00011,-0.00023,-0.00056,-0.00128,3e-05,0.00046,1e-05,-0.00013,2,27
36705,-0.00011,-0.00023,-0.00056,-0.00128,3e-05,0.00046,1e-05,-0.00013,2,27
36706,-0.00011,-0.00023,-0.00056,-0.00128,3e-05,0.00046,1e-05,-0.00013,2,27
36707,-0.00011,-0.00023,-0.00056,-0.00128,3e-05,0.00046,1e-05,-0.00013,2,27
36708,-0.00011,-0.00023,-0.00056,-0.00128,3e-05,0.00046,1e-05,-0.00013,2,27
36709,-0.00011,-0.00023,-0.00056,-0.00128,3e-05,0.00046,1e-05,-0.00013,2,27
36710,-0.00011,-0.00023,-0.00056,-0.00128,3e-05,0.00046,1e-05,-0.00013,2,27
36711,-0.00011,-0.00023,-0.00056,-0.00128,3e-05,0.00046,1e-05,-0.00013,2,27
36712,-0.00011,-0.00023,-0.00056,-0.00128,3e-05,0.00046,1e-05,-0.00013,2,27
36713,-0.00011,-0.00023,-0.00056,-0.00128,3e-05,0.00046,1e-05,-0.00013,2,27
36714,-0.00011,-0.00023,-0.00056,-0.00128,3e-05,0.00046,1e-05,-0.00013,2,27
36715,-0.00011,-0.00023,-0.00056,-0.00128,3e-05,0.00046,1e-05,-0.00013,2,27
36716,-0.00031,-8e-05,9e-05,0.00083,0.00018,-0.00041,0.0003,1e-05,2,27
36717,2e-05,-0.00014,-5e-05,0.0001,-4e-05,-2e-05,-0.00011,-8e-05,2,27
36718,2e-05,-0.00014,-5e-05,0.0001,-4e-05,-2e-05,-0.00011,-8e-05,2,27
36719,2e-05,-0.00014,-5e-05,0.0001,-4e-05,-2e-05,-0.00011,-8e-05,2,27
36720,2e-05,-0.00014,-5e-05,0.0001,-4e-05,-2e-05,-0.00011,-8e-05,2,27
36721,2e-05,-0.00014,-5e-05,0.0001,-4e-05,-2e-05,-0.00011,-8e-05,2,27
36722,2e-05,-0.00014,-5e-05,0.0001,-4e-05,-2e-05,-0.00011,-8e-05,2,27
36723,2e-05,-0.00014,-5e-05,0.0001,-4e-05,-2e-05,-0.00011,-8e-05,2,27
36725,2e-05,-0.00014,-5e-05,0.0001,-4e-05,-2e-05,-0.00011,-8e-05,2,27
36726,2e-05,-0.00014,-5e-05,0.0001,-4e-05,-2e-05,-0.00011,-8e-05,2,27
36727,2e-05,-0.00014,-5e-05,0.0001,-4e-05,-2e-05,-0.00011,-8e-05,2,27
36728,2e-05,-0.00014,-5e-05,0.0001,-4e-05,-2e-05,-0.00011,-8e-05,2,27
36729,2e-05,-0.00014,-5e-05,0.0001,-4e-05,-2e-05,-0.00011,-8e-05,2,27
36730,2e-05,-0.00014,-5e-05,0.0001,-4e-05,-2e-05,-0.00011,-8e-05,2,27
36731,-9e-05,4e-05,4e-05,-3e-05,-0.00021,-0.00068,-0.00012,-1e-05,2,27
36732,0.00011,-0.00011,-0.00035,-0.00096,0.00013,0.00012,-0.0001,-7e-05,2,27
36733,0.00011,-0.00011,-0.00035,-0.00096,0.00013,0.00012,-0.0001,-7e-05,2,27
36734,0.00011,-0.00011,-0.00035,-0.00096,0.00013,0.00012,-0.0001,-7e-05,2,27
36735,0.00011,-0.00011,-0.00035,-0.00096,0.00013,0.00012,-0.0001,-7e-05,2,27
36736,0.00011,-0.00011,-0.00035,-0.00096,0.00013,0.00012,-0.0001,-7e-05,2,27
36738,0.00011,-0.00011,-0.00035,-0.00096,0.00013,0.00012,-0.0001,-7e-05,2,27
36739,0.00011,-0.00011,-0.00035,-0.00096,0.00013,0.00012,-0.0001,-7e-05,2,27
36740,0.00011,-0.00011,-0.00035,-0.00096,0.00013,0.00012,-0.0001,-7e-05,2,27
36741,0.00011,-0.00011,-0.00035,-0.00096,0.00013,0.00012,-0.0001,-7e-05,2,27
36742,0.00011,-0.00011,-0.00035,-0.00096,0.00013,0.00012,-0.0001,-7e-05,2,27
36743,0.00011,-0.00011,-0.00035,-0.00096,0.00013,0.00012,-0.0001,-7e-05,2,27
36744,0.00011,-0.00011,-0.00035,-0.00096,0.00013,0.00012,-0.0001,-7e-05,2,27
36745,0.00011,-0.00011,-0.00035,-0.00096,0.00013,0.00012,-0.0001,-7e-05,2,27
36746,0.00011,-0.00011,-0.00035,-0.00096,0.00013,0.00012,-0.0001,-7e-05,2,27
36747,0.00011,-0.00011,-0.00035,-0.00096,0.00013,0.00012,-0.0001,-7e-05,2,27
36748,0.00011,-0.00011,-0.00035,-0.00096,0.00013,0.00012,-0.0001,-7e-05,2,27
36749,0.00011,-0.00011,-0.00035,-0.00096,0.00013,0.00012,-0.0001,-7e-05,2,27
36750,0.00011,-0.00011,-0.00035,-0.00096,0.00013,0.00012,-0.0001,-7e-05,2,27
36751,0.00011,-0.00011,-0.00035,-0.00096,0.00013,0.00012,-0.0001,-7e-05,2,27
36752,0.00011,-0.00011,-0.00035,-0.00096,0.00013,0.00012,-0.0001,-7e-05,2,27
36753,0.00011,-0.00011,-0.00035,-0.00096,0.00013,0.00012,-0.0001,-7e-05,2,27
36754,-0.00014,-7e-05,0.00029,-0.00059,-0.00012,0.00023,3e-05,-0.00023,2,27
36755,0.00033,6e-05,1e-05,0.00052,-0.0001,-0.00017,0.00016,-1e-05,2,27
36756,0.00033,6e-05,1e-05,0.00052,-0.0001,-0.00017,0.00016,-1e-05,2,27
36757,0.00033,6e-05,1e-05,0.00052,-0.0001,-0.00017,0.00016,-1e-05,2,27
36758,0.00033,6e-05,1e-05,0.00052,-0.0001,-0.00017,0.00016,-1e-05,2,27
36759,0.00033,6e-05,1e-05,0.00052,-0.0001,-0.00017,0.00016,-1e-05,2,27
36760,0.00033,6e-05,1e-05,0.00052,-0.0001,-0.00017,0.00016,-1e-05,2,27
36761,0.00033,6e-05,1e-05,0.00052,-0.0001,-0.00017,0.00016,-1e-05,2,27
36762,0.00033,6e-05,1e-05,0.00052,-0.0001,-0.00017,0.00016,-1e-05,2,27
36763,0.00033,6e-05,1e-05,0.00052,-0.0001,-0.00017,0.00016,-1e-05,2,27
36764,0.00033,6e-05,1e-05,0.00052,-0.0001,-0.00017,0.00016,-1e-05,2,27
36765,0.00033,6e-05,1e-05,0.00052,-0.0001,-0.00017,0.00016,-1e-05,2,27
36766,0.00033,6e-05,1e-05,0.00052,-0.0001,-0.00017,0.00016,-1e-05,2,27
36767,0.00033,6e-05,1e-05,0.00052,-0.0001,-0.00017,0.00016,-1e-05,2,27
36768,0.00033,6e-05,1e-05,0.00052,-0.0001,-0.00017,0.00016,-1e-05,2,27
36769,0.00033,6e-05,1e-05,0.00052,-0.0001,-0.00017,0.00016,-1e-05,2,27
36770,0.00033,6e-05,1e-05,0.00052,-0.0001,-0.00017,0.00016,-1e-05,2,27
36771,0.00033,6e-05,1e-05,0.00052,-0.0001,-0.00017,0.00016,-1e-05,2,27
36772,0.00033,6e-05,1e-05,0.00052,-0.0001,-0.00017,0.00016,-1e-05,2,27
36773,0.00033,6e-05,1e-05,0.00052,-0.0001,-0.00017,0.00016,-1e-05,2,27
36774,0.00033,6e-05,1e-05,0.00052,-0.0001,-0.00017,0.00016,-1e-05,2,27
36775,0.00033,6e-05,1e-05,0.00052,-0.0001,-0.00017,0.00016,-1e-05,2,27
36776,-0.00016,-0.00015,-0.00036,-0.00069,-5e-05,-7e-05,-0.00058,-9e-05,2,27
36777,0.0004,-2e-05,0.00022,0.00047,-3e-05,-0.00038,0.00103,0.00028,2,27
36778,0.0004,-2e-05,0.00022,0.00047,-3e-05,-0.00038,0.00103,0.00028,2,27
36779,0.0004,-2e-05,0.00022,0.00047,-3e-05,-0.00038,0.00103,0.00028,2,27
36780,0.0004,-2e-05,0.00022,0.00047,-3e-05,-0.00038,0.00103,0.00028,2,27
36781,0.0004,-2e-05,0.00022,0.00047,-3e-05,-0.00038,0.00103,0.00028,2,27
36782,0.0004,-2e-05,0.00022,0.00047,-3e-05,-0.00038,0.00103,0.00028,2,27
36783,0.0004,-2e-05,0.00022,0.00047,-3e-05,-0.00038,0.00103,0.00028,2,27
36784,0.0004,-2e-05,0.00022,0.00047,-3e-05,-0.00038,0.00103,0.00028,2,27
36786,0.0004,-2e-05,0.00022,0.00047,-3e-05,-0.00038,0.00103,0.00028,2,27
36787,0.0004,-2e-05,0.00022,0.00047,-3e-05,-0.00038,0.00103,0.00028,2,27
36788,0.0004,-2e-05,0.00022,0.00047,-3e-05,-0.00038,0.00103,0.00028,2,27
36789,0.0004,-2e-05,0.00022,0.00047,-3e-05,-0.00038,0.00103,0.00028,2,27
36790,0.0004,-2e-05,0.00022,0.00047,-3e-05,-0.00038,0.00103,0.00028,2,27
36791,-0.00011,1e-05,-7e-05,-0.00104,-0.0005,0.00018,-0.00068,-0.00022,2,27
36792,-0.00018,7e-05,0.0002,0.00042,-0.00025,0.00011,-0.00028,7e-05,2,27
36793,-0.00018,7e-05,0.0002,0.00042,-0.00025,0.00011,-0.00028,7e-05,2,27
36794,-0.00018,7e-05,0.0002,0.00042,-0.00025,0.00011,-0.00028,7e-05,2,27
36795,-0.00018,7e-05,0.0002,0.00042,-0.00025,0.00011,-0.00028,7e-05,2,27
36796,-0.00018,7e-05,0.0002,0.00042,-0.00025,0.00011,-0.00028,7e-05,2,27
36797,-0.00018,7e-05,0.0002,0.00042,-0.00025,0.00011,-0.00028,7e-05,2,27
36798,-0.00018,7e-05,0.0002,0.00042,-0.00025,0.00011,-0.00028,7e-05,2,27
36799,-0.00018,7e-05,0.0002,0.00042,-0.00025,0.00011,-0.00028,7e-05,2,27
36800,-0.00018,7e-05,0.0002,0.00042,-0.00025,0.00011,-0.00028,7e-05,2,27
36801,-0.00018,7e-05,0.0002,0.00042,-0.00025,0.00011,-0.00028,7e-05,2,27
36802,-0.00018,7e-05,0.0002,0.00042,-0.00025,0.00011,-0.00028,7e-05,2,27
36803,-0.00018,7e-05,0.0002,0.00042,-0.00025,0.00011,-0.00028,7e-05,2,27
36804,-0.00018,7e-05,0.0002,0.00042,-0.00025,0.00011,-0.00028,7e-05,2,27
36805,-0.00018,7e-05,0.0002,0.00042,-0.00025,0.00011,-0.00028,7e-05,2,27
36806,-0.00018,7e-05,0.0002,0.00042,-0.00025,0.00011,-0.00028,7e-05,2,27
36807,-0.00018,7e-05,0.0002,0.00042,-0.00025,0.00011,-0.00028,7e-05,2,27
36808,-0.00018,7e-05,0.0002,0.00042,-0.00025,0.00011,-0.00028,7e-05,2,27
36809,-0.00018,7e-05,0.0002,0.00042,-0.00025,0.00011,-0.00028,7e-05,2,27
36810,-0.00018,7e-05,0.0002,0.00042,-0.00025,0.00011,-0.00028,7e-05,2,27
36811,-0.00018,7e-05,0.0002,0.00042,-0.00025,0.00011,-0.00028,7e-05,2,27
36812,-0.00018,7e-05,0.0002,0.00042,-0.00025,0.00011,-0.00028,7e-05,2,27
36813,-0.00018,7e-05,0.0002,0.00042,-0.00025,0.00011,-0.00028,7e-05,2,27
36814,0.00036,0.00017,6e-05,-0.00043,0.0002,-0.00041,0.00019,-8e-05,2,27
36815,-4e-05,0.00017,0.00011,-0.00025,0.00017,0.00011,-0.00082,-0.00018,2,27
36816,-4e-05,0.00017,0.00011,-0.00025,0.00017,0.00011,-0.00082,-0.00018,2,27
36817,-4e-05,0.00017,0.00011,-0.00025,0.00017,0.00011,-0.00082,-0.00018,2,27
36818,-4e-05,0.00017,0.00011,-0.00025,0.00017,0.00011,-0.00082,-0.00018,2,27
36819,-4e-05,0.00017,0.00011,-0.00025,0.00017,0.00011,-0.00082,-0.00018,2,27
36820,-4e-05,0.00017,0.00011,-0.00025,0.00017,0.00011,-0.00082,-0.00018,2,27
36821,-4e-05,0.00017,0.00011,-0.00025,0.00017,0.00011,-0.00082,-0.00018,2,27
36822,-4e-05,0.00017,0.00011,-0.00025,0.00017,0.00011,-0.00082,-0.00018,2,27
36823,-4e-05,0.00017,0.00011,-0.00025,0.00017,0.00011,-0.00082,-0.00018,2,27
36824,-4e-05,0.00017,0.00011,-0.00025,0.00017,0.00011,-0.00082,-0.00018,2,27
36825,-4e-05,0.00017,0.00011,-0.00025,0.00017,0.00011,-0.00082,-0.00018,2,27
36826,-4e-05,0.00017,0.00011,-0.00025,0.00017,0.00011,-0.00082,-0.00018,2,27
