5528,0.00011,5e-05,5e-05,6e-05,-6e-05,-0.00027,7e-05,0.0002,2,29
5529,0.00011,5e-05,5e-05,6e-05,-6e-05,-0.00027,7e-05,0.0002,2,29
5530,0.00011,5e-05,5e-05,6e-05,-6e-05,-0.00027,7e-05,0.0002,2,29
5531,0.00011,5e-05,5e-05,6e-05,-6e-05,-0.00027,7e-05,0.0002,2,29
5532,0.00011,5e-05,5e-05,6e-05,-6e-05,-0.00027,7e-05,0.0002,2,29
5533,0.00011,5e-05,5e-05,6e-05,-6e-05,-0.00027,7e-05,0.0002,2,29
5534,0.00011,5e-05,5e-05,6e-05,-6e-05,-0.00027,7e-05,0.0002,2,29
5535,0.00011,5e-05,5e-05,6e-05,-6e-05,-0.00027,7e-05,0.0002,2,29
5536,0.00011,5e-05,5e-05,6e-05,-6e-05,-0.00027,7e-05,0.0002,2,29
5538,0.00011,5e-05,5e-05,6e-05,-6e-05,-0.00027,7e-05,0.0002,2,29
5539,0.00011,5e-05,5e-05,6e-05,-6e-05,-0.00027,7e-05,0.0002,2,29
5540,0.00011,5e-05,5e-05,6e-05,-6e-05,-0.00027,7e-05,0.0002,2,29
5541,-0.00019,-4e-05,-3e-05,2e-05,0.00026,-3e-05,-0.00033,-0.00013,2,29
5542,-0.00016,-0.0001,-7e-05,-2e-05,1e-05,0,-1e-05,-4e-05,2,29
5543,-0.00016,-0.0001,-7e-05,-2e-05,1e-05,0,-1e-05,-4e-05,2,29
5544,-0.00016,-0.0001,-7e-05,-2e-05,1e-05,0,-1e-05,-4e-05,2,29
5545,-0.00016,-0.0001,-7e-05,-2e-05,1e-05,0,-1e-05,-4e-05,2,29
5546,-0.00016,-0.0001,-7e-05,-2e-05,1e-05,0,-1e-05,-4e-05,2,29
5547,-0.00016,-0.0001,-7e-05,-2e-05,1e-05,0,-1e-05,-4e-05,2,29
5548,-0.00016,-0.0001,-7e-05,-2e-05,1e-05,0,-1e-05,-4e-05,2,29
5549,-0.00016,-0.0001,-7e-05,-2e-05,1e-05,0,-1e-05,-4e-05,2,29
5550,-0.00016,-0.0001,-7e-05,-2e-05,1e-05,0,-1e-05,-4e-05,2,29
5551,-0.00016,-0.0001,-7e-05,-2e-05,1e-05,0,-1e-05,-4e-05,2,29
5552,-0.00016,-0.0001,-7e-05,-2e-05,1e-05,0,-1e-05,-4e-05,2,29
5553,-0.00016,-0.0001,-7e-05,-2e-05,1e-05,0,-1e-05,-4e-05,2,29
5554,-0.00016,-0.0001,-7e-05,-2e-05,1e-05,0,-1e-05,-4e-05,2,29
5555,-0.00016,-0.0001,-7e-05,-2e-05,1e-05,0,-1e-05,-4e-05,2,29
5556,-0.00016,-0.0001,-7e-05,-2e-05,1e-05,0,-1e-05,-4e-05,2,29
5557,-0.00016,-0.0001,-7e-05,-2e-05,1e-05,0,-1e-05,-4e-05,2,29
5558,-0.00016,-0.0001,-7e-05,-2e-05,1e-05,0,-1e-05,-4e-05,2,29
5559,-0.00016,-0.0001,-7e-05,-2e-05,1e-05,0,-1e-05,-4e-05,2,29
5560,-0.00016,-0.0001,-7e-05,-2e-05,1e-05,0,-1e-05,-4e-05,2,29
5561,-0.00016,-0.0001,-7e-05,-2e-05,1e-05,0,-1e-05,-4e-05,2,29
5562,-0.00016,-0.0001,-7e-05,-2e-05,1e-05,0,-1e-05,-4e-05,2,29
5563,-0.00016,-0.0001,-7e-05,-2e-05,1e-05,0,-1e-05,-4e-05,2,29
5564,-0.00016,-0.0001,-7e-05,-2e-05,1e-05,0,-1e-05,-4e-05,2,29
5565,6e-05,2e-05,2e-05,5e-05,0.00017,-2e-05,-4e-05,0.00012,2,29
5566,6e-05,2e-05,2e-05,5e-05,0.00017,-2e-05,-4e-05,0.00012,2,29
5567,6e-05,2e-05,2e-05,5e-05,0.00017,-2e-05,-4e-05,0.00012,2,29
5568,6e-05,2e-05,2e-05,5e-05,0.00017,-2e-05,-4e-05,0.00012,2,29
5569,6e-05,2e-05,2e-05,5e-05,0.00017,-2e-05,-4e-05,0.00012,2,29
5570,6e-05,2e-05,2e-05,5e-05,0.00017,-2e-05,-4e-05,0.00012,2,29
5571,6e-05,2e-05,2e-05,5e-05,0.00017,-2e-05,-4e-05,0.00012,2,29
5572,6e-05,2e-05,2e-05,5e-05,0.00017,-2e-05,-4e-05,0.00012,2,29
5573,6e-05,2e-05,2e-05,5e-05,0.00017,-2e-05,-4e-05,0.00012,2,29
5574,6e-05,2e-05,2e-05,5e-05,0.00017,-2e-05,-4e-05,0.00012,2,29
5575,6e-05,2e-05,2e-05,5e-05,0.00017,-2e-05,-4e-05,0.00012,2,29
5576,6e-05,2e-05,2e-05,5e-05,0.00017,-2e-05,-4e-05,0.00012,2,29
5577,6e-05,2e-05,2e-05,5e-05,0.00017,-2e-05,-4e-05,0.00012,2,29
5579,6e-05,2e-05,2e-05,5e-05,0.00017,-2e-05,-4e-05,0.00012,2,29
5580,6e-05,2e-05,2e-05,5e-05,0.00017,-2e-05,-4e-05,0.00012,2,29
5581,6e-05,2e-05,2e-05,5e-05,0.00017,-2e-05,-4e-05,0.00012,2,29
5582,6e-05,2e-05,2e-05,5e-05,0.00017,-2e-05,-4e-05,0.00012,2,29
5583,6e-05,2e-05,2e-05,5e-05,0.00017,-2e-05,-4e-05,0.00012,2,29
5584,6e-05,2e-05,2e-05,5e-05,0.00017,-2e-05,-4e-05,0.00012,2,29
5585,6e-05,2e-05,2e-05,5e-05,0.00017,-2e-05,-4e-05,0.00012,2,29
5586,6e-05,2e-05,2e-05,5e-05,0.00017,-2e-05,-4e-05,0.00012,2,29
5589,-8e-05,-3e-05,2e-05,0.00014,0.00019,-9e-05,-9e-05,-8e-05,2,29
5590,-8e-05,-3e-05,2e-05,0.00014,0.00019,-9e-05,-9e-05,-8e-05,2,29
5591,-8e-05,-3e-05,2e-05,0.00014,0.00019,-9e-05,-9e-05,-8e-05,2,29
5592,-8e-05,-3e-05,2e-05,0.00014,0.00019,-9e-05,-9e-05,-8e-05,2,29
5593,-8e-05,-3e-05,2e-05,0.00014,0.00019,-9e-05,-9e-05,-8e-05,2,29
5594,-8e-05,-3e-05,2e-05,0.00014,0.00019,-9e-05,-9e-05,-8e-05,2,29
5595,-8e-05,-3e-05,2e-05,0.00014,0.00019,-9e-05,-9e-05,-8e-05,2,29
5596,-8e-05,-3e-05,2e-05,0.00014,0.00019,-9e-05,-9e-05,-8e-05,2,29
5597,-8e-05,-3e-05,2e-05,0.00014,0.00019,-9e-05,-9e-05,-8e-05,2,29
5598,-8e-05,-3e-05,2e-05,0.00014,0.00019,-9e-05,-9e-05,-8e-05,2,29
5599,-8e-05,-3e-05,2e-05,0.00014,0.00019,-9e-05,-9e-05,-8e-05,2,29
5600,-8e-05,-3e-05,2e-05,0.00014,0.00019,-9e-05,-9e-05,-8e-05,2,29
5601,-4e-05,2e-05,2e-05,-9e-05,-0.00012,-0.00011,-5e-05,-0.00012,2,29
5602,-7e-05,-5e-05,-3e-05,-0.00022,-0.00014,-6e-05,-0.00021,-0.00033,2,29
5603,-7e-05,-5e-05,-3e-05,-0.00022,-0.00014,-6e-05,-0.00021,-0.00033,2,29
5604,-7e-05,-5e-05,-3e-05,-0.00022,-0.00014,-6e-05,-0.00021,-0.00033,2,29
5605,-7e-05,-5e-05,-3e-05,-0.00022,-0.00014,-6e-05,-0.00021,-0.00033,2,29
5606,-7e-05,-5e-05,-3e-05,-0.00022,-0.00014,-6e-05,-0.00021,-0.00033,2,29
5607,-7e-05,-5e-05,-3e-05,-0.00022,-0.00014,-6e-05,-0.00021,-0.00033,2,29
5608,-7e-05,-5e-05,-3e-05,-0.00022,-0.00014,-6e-05,-0.00021,-0.00033,2,29
5609,-7e-05,-5e-05,-3e-05,-0.00022,-0.00014,-6e-05,-0.00021,-0.00033,2,29
5610,-7e-05,-5e-05,-3e-05,-0.00022,-0.00014,-6e-05,-0.00021,-0.00033,2,29
5611,-7e-05,-5e-05,-3e-05,-0.00022,-0.00014,-6e-05,-0.00021,-0.00033,2,29
5612,-7e-05,-5e-05,-3e-05,-0.00022,-0.00014,-6e-05,-0.00021,-0.00033,2,29
5613,-7e-05,-5e-05,-3e-05,-0.00022,-0.00014,-6e-05,-0.00021,-0.00033,2,29
5614,-7e-05,-5e-05,-3e-05,-0.00022,-0.00014,-6e-05,-0.00021,-0.00033,2,29
5615,-7e-05,-5e-05,-3e-05,-0.00022,-0.00014,-6e-05,-0.00021,-0.00033,2,29
5616,-7e-05,-5e-05,-3e-05,-0.00022,-0.00014,-6e-05,-0.00021,-0.00033,2,29
5617,-7e-05,-5e-05,-3e-05,-0.00022,-0.00014,-6e-05,-0.00021,-0.00033,2,29
5618,-7e-05,-5e-05,-3e-05,-0.00022,-0.00014,-6e-05,-0.00021,-0.00033,2,29
5619,-7e-05,-5e-05,-3e-05,-0.00022,-0.00014,-6e-05,-0.00021,-0.00033,2,29
5620,-7e-05,-5e-05,-3e-05,-0.00022,-0.00014,-6e-05,-0.00021,-0.00033,2,29
5621,-7e-05,-5e-05,-3e-05,-0.00022,-0.00014,-6e-05,-0.00021,-0.00033,2,29
5622,-7e-05,-5e-05,-3e-05,-0.00022,-0.00014,-6e-05,-0.00021,-0.00033,2,29
5623,-7e-05,-5e-05,-3e-05,-0.00022,-0.00014,-6e-05,-0.00021,-0.00033,2,29
5624,-0.00011,-7e-05,-0.00011,0.00029,5e-05,-0.00013,-9e-05,1e-05,2,29
5625,-3e-05,4e-05,9e-05,-8e-05,-0.00035,-0.00028,-1e-05,-0.00011,2,29
5626,-3e-05,4e-05,9e-05,-8e-05,-0.00035,-0.00028,-1e-05,-0.00011,2,29
5627,-3e-05,4e-05,9e-05,-8e-05,-0.00035,-0.00028,-1e-05,-0.00011,2,29
5628,-3e-05,4e-05,9e-05,-8e-05,-0.00035,-0.00028,-1e-05,-0.00011,2,29
5629,-3e-05,4e-05,9e-05,-8e-05,-0.00035,-0.00028,-1e-05,-0.00011,2,29
5630,-3e-05,4e-05,9e-05,-8e-05,-0.00035,-0.00028,-1e-05,-0.00011,2,29
5631,-3e-05,4e-05,9e-05,-8e-05,-0.00035,-0.00028,-1e-05,-0.00011,2,29
5632,-3e-05,4e-05,9e-05,-8e-05,-0.00035,-0.00028,-1e-05,-0.00011,2,29
5633,-3e-05,4e-05,9e-05,-8e-05,-0.00035,-0.00028,-1e-05,-0.00011,2,29
5634,-3e-05,4e-05,9e-05,-8e-05,-0.00035,-0.00028,-1e-05,-0.00011,2,29
5635,-3e-05,4e-05,9e-05,-8e-05,-0.00035,-0.00028,-1e-05,-0.00011,2,29
5636,-3e-05,4e-05,9e-05,-8e-05,-0.00035,-0.00028,-1e-05,-0.00011,2,29
5638,-3e-05,4e-05,9e-05,-8e-05,-0.00035,-0.00028,-1e-05,-0.00011,2,29
5639,-3e-05,4e-05,9e-05,-8e-05,-0.00035,-0.00028,-1e-05,-0.00011,2,29
5640,-3e-05,4e-05,9e-05,-8e-05,-0.00035,-0.00028,-1e-05,-0.00011,2,29
5641,-3e-05,4e-05,9e-05,-8e-05,-0.00035,-0.00028,-1e-05,-0.00011,2,29
5642,-3e-05,4e-05,9e-05,-8e-05,-0.00035,-0.00028,-1e-05,-0.00011,2,29
5643,-3e-05,4e-05,9e-05,-8e-05,-0.00035,-0.00028,-1e-05,-0.00011,2,29
5644,-3e-05,4e-05,9e-05,-8e-05,-0.00035,-0.00028,-1e-05,-0.00011,2,29
5645,-3e-05,4e-05,9e-05,-8e-05,-0.00035,-0.00028,-1e-05,-0.00011,2,29
5646,-3e-05,4e-05,9e-05,-8e-05,-0.00035,-0.00028,-1e-05,-0.00011,2,29
5647,-8e-05,-4e-05,-8e-05,9e-05,4e-05,-8e-05,-4e-05,-5e-05,2,29
5648,-0.00016,-2e-05,-1e-05,1e-05,0.00015,2e-05,4e-05,-0.00038,2,29
5649,-0.00016,-2e-05,-1e-05,1e-05,0.00015,2e-05,4e-05,-0.00038,2,29
5650,-0.00016,-2e-05,-1e-05,1e-05,0.00015,2e-05,4e-05,-0.00038,2,29
5651,-0.00016,-2e-05,-1e-05,1e-05,0.00015,2e-05,4e-05,-0.00038,2,29
5652,-0.00016,-2e-05,-1e-05,1e-05,0.00015,2e-05,4e-05,-0.00038,2,29
5653,-0.00016,-2e-05,-1e-05,1e-05,0.00015,2e-05,4e-05,-0.00038,2,29
5654,-0.00016,-2e-05,-1e-05,1e-05,0.00015,2e-05,4e-05,-0.00038,2,29
5655,-0.00016,-2e-05,-1e-05,1e-05,0.00015,2e-05,4e-05,-0.00038,2,29
5656,-0.00016,-2e-05,-1e-05,1e-05,0.00015,2e-05,4e-05,-0.00038,2,29
5657,-0.00016,-2e-05,-1e-05,1e-05,0.00015,2e-05,4e-05,-0.00038,2,29
5658,-0.00016,-2e-05,-1e-05,1e-05,0.00015,2e-05,4e-05,-0.00038,2,29
5659,-0.00016,-2e-05,-1e-05,1e-05,0.00015,2e-05,4e-05,-0.00038,2,29
5660,-0.00016,-2e-05,-1e-05,1e-05,0.00015,2e-05,4e-05,-0.00038,2,29
5661,3e-05,-2e-05,-5e-05,0.00029,0.00015,-4e-05,-3e-05,0,2,29
5662,6e-05,5e-05,3e-05,6e-05,-4e-05,0.0001,5e-05,9e-05,2,29
5663,6e-05,5e-05,3e-05,6e-05,-4e-05,0.0001,5e-05,9e-05,2,29
5664,6e-05,5e-05,3e-05,6e-05,-4e-05,0.0001,5e-05,9e-05,2,29
5665,6e-05,5e-05,3e-05,6e-05,-4e-05,0.0001,5e-05,9e-05,2,29
5666,6e-05,5e-05,3e-05,6e-05,-4e-05,0.0001,5e-05,9e-05,2,29
5667,6e-05,5e-05,3e-05,6e-05,-4e-05,0.0001,5e-05,9e-05,2,29
5668,6e-05,5e-05,3e-05,6e-05,-4e-05,0.0001,5e-05,9e-05,2,29
5669,6e-05,5e-05,3e-05,6e-05,-4e-05,0.0001,5e-05,9e-05,2,29
5670,6e-05,5e-05,3e-05,6e-05,-4e-05,0.0001,5e-05,9e-05,2,29
5671,6e-05,5e-05,3e-05,6e-05,-4e-05,0.0001,5e-05,9e-05,2,29
5672,6e-05,5e-05,3e-05,6e-05,-4e-05,0.0001,5e-05,9e-05,2,29
5673,6e-05,5e-05,3e-05,6e-05,-4e-05,0.0001,5e-05,9e-05,2,29
5674,6e-05,5e-05,3e-05,6e-05,-4e-05,0.0001,5e-05,9e-05,2,29
5675,6e-05,5e-05,3e-05,6e-05,-4e-05,0.0001,5e-05,9e-05,2,29
5676,6e-05,5e-05,3e-05,6e-05,-4e-05,0.0001,5e-05,9e-05,2,29
5677,6e-05,5e-05,3e-05,6e-05,-4e-05,0.0001,5e-05,9e-05,2,29
5678,6e-05,5e-05,3e-05,6e-05,-4e-05,0.0001,5e-05,9e-05,2,29
5679,6e-05,5e-05,3e-05,6e-05,-4e-05,0.0001,5e-05,9e-05,2,29
5680,6e-05,5e-05,3e-05,6e-05,-4e-05,0.0001,5e-05,9e-05,2,29
5681,6e-05,5e-05,3e-05,6e-05,-4e-05,0.0001,5e-05,9e-05,2,29
5682,6e-05,5e-05,3e-05,6e-05,-4e-05,0.0001,5e-05,9e-05,2,29
5683,6e-05,5e-05,3e-05,6e-05,-4e-05,0.0001,5e-05,9e-05,2,29
5684,6e-05,5e-05,3e-05,6e-05,-4e-05,0.0001,5e-05,9e-05,2,29
5685,-0.00013,-8e-05,-5e-05,-0.00024,-0.00018,-0.00014,-0.00019,-0.00028,2,29
5686,0.00022,3e-05,4e-05,-2e-05,-4e-05,-1e-05,0.00013,0.00045,2,29
5688,0.00022,3e-05,4e-05,-2e-05,-4e-05,-1e-05,0.00013,0.00045,2,29
5689,0.00022,3e-05,4e-05,-2e-05,-4e-05,-1e-05,0.00013,0.00045,2,29
5690,0.00022,3e-05,4e-05,-2e-05,-4e-05,-1e-05,0.00013,0.00045,2,29
5691,0.00022,3e-05,4e-05,-2e-05,-4e-05,-1e-05,0.00013,0.00045,2,29
5692,0.00022,3e-05,4e-05,-2e-05,-4e-05,-1e-05,0.00013,0.00045,2,29
5693,0.00022,3e-05,4e-05,-2e-05,-4e-05,-1e-05,0.00013,0.00045,2,29
5694,0.00022,3e-05,4e-05,-2e-05,-4e-05,-1e-05,0.00013,0.00045,2,29
5695,0.00022,3e-05,4e-05,-2e-05,-4e-05,-1e-05,0.00013,0.00045,2,29
5696,0.00022,3e-05,4e-05,-2e-05,-4e-05,-1e-05,0.00013,0.00045,2,29
5697,0.00022,3e-05,4e-05,-2e-05,-4e-05,-1e-05,0.00013,0.00045,2,29
5698,0.00022,3e-05,4e-05,-2e-05,-4e-05,-1e-05,0.00013,0.00045,2,29
5699,0.00022,3e-05,4e-05,-2e-05,-4e-05,-1e-05,0.00013,0.00045,2,29
5700,0.00022,3e-05,4e-05,-2e-05,-4e-05,-1e-05,0.00013,0.00045,2,29
5701,0.00022,3e-05,4e-05,-2e-05,-4e-05,-1e-05,0.00013,0.00045,2,29
5702,0.00022,3e-05,4e-05,-2e-05,-4e-05,-1e-05,0.00013,0.00045,2,29
5703,0.00022,3e-05,4e-05,-2e-05,-4e-05,-1e-05,0.00013,0.00045,2,29
5704,0.00022,3e-05,4e-05,-2e-05,-4e-05,-1e-05,0.00013,0.00045,2,29
5705,0.00022,3e-05,4e-05,-2e-05,-4e-05,-1e-05,0.00013,0.00045,2,29
5706,0.00022,3e-05,4e-05,-2e-05,-4e-05,-1e-05,0.00013,0.00045,2,29
5707,-7e-05,0,1e-05,0,3e-05,0.00027,-1e-05,-0.00016,2,29
5708,2e-05,0,-3e-05,-3e-05,-6e-05,-0.00011,-2e-05,7e-05,2,29
5709,1e-05,-2e-05,-6e-05,-6e-05,1e-05,2e-05,1e-05,-7e-05,2,29
5710,1e-05,-2e-05,-6e-05,-6e-05,1e-05,2e-05,1e-05,-7e-05,2,29
5711,1e-05,-2e-05,-6e-05,-6e-05,1e-05,2e-05,1e-05,-7e-05,2,29
5712,1e-05,-2e-05,-6e-05,-6e-05,1e-05,2e-05,1e-05,-7e-05,2,29
5713,1e-05,-2e-05,-6e-05,-6e-05,1e-05,2e-05,1e-05,-7e-05,2,29
5714,1e-05,-2e-05,-6e-05,-6e-05,1e-05,2e-05,1e-05,-7e-05,2,29
5715,1e-05,-2e-05,-6e-05,-6e-05,1e-05,2e-05,1e-05,-7e-05,2,29
5716,1e-05,-2e-05,-6e-05,-6e-05,1e-05,2e-05,1e-05,-7e-05,2,29
5717,1e-05,-2e-05,-6e-05,-6e-05,1e-05,2e-05,1e-05,-7e-05,2,29
5718,1e-05,-2e-05,-6e-05,-6e-05,1e-05,2e-05,1e-05,-7e-05,2,29
5719,1e-05,-2e-05,-6e-05,-6e-05,1e-05,2e-05,1e-05,-7e-05,2,29
5720,1e-05,-2e-05,-6e-05,-6e-05,1e-05,2e-05,1e-05,-7e-05,2,29
5721,-2e-05,-2e-05,-1e-05,0.0001,4e-05,0.00021,5e-05,4e-05,2,29
5722,-2e-05,-2e-05,-1e-05,0.0001,4e-05,0.00021,5e-05,4e-05,2,29
5723,-2e-05,-2e-05,-1e-05,0.0001,4e-05,0.00021,5e-05,4e-05,2,29
5724,-2e-05,-2e-05,-1e-05,0.0001,4e-05,0.00021,5e-05,4e-05,2,29
5725,-2e-05,-2e-05,-1e-05,0.0001,4e-05,0.00021,5e-05,4e-05,2,29
5726,-2e-05,-2e-05,-1e-05,0.0001,4e-05,0.00021,5e-05,4e-05,2,29
5727,-2e-05,-2e-05,-1e-05,0.0001,4e-05,0.00021,5e-05,4e-05,2,29
5728,-2e-05,-2e-05,-1e-05,0.0001,4e-05,0.00021,5e-05,4e-05,2,29
5729,-2e-05,-2e-05,-1e-05,0.0001,4e-05,0.00021,5e-05,4e-05,2,29
5730,6e-05,1e-05,1e-05,-2e-05,-3e-05,0.0003,0.00014,0.00013,2,29
5731,6e-05,1e-05,1e-05,-2e-05,-3e-05,0.0003,0.00014,0.00013,2,29
5732,6e-05,1e-05,1e-05,-2e-05,-3e-05,0.0003,0.00014,0.00013,2,29
5733,6e-05,1e-05,1e-05,-2e-05,-3e-05,0.0003,0.00014,0.00013,2,29
5734,6e-05,1e-05,1e-05,-2e-05,-3e-05,0.0003,0.00014,0.00013,2,29
5735,6e-05,1e-05,1e-05,-2e-05,-3e-05,0.0003,0.00014,0.00013,2,29
5736,6e-05,1e-05,1e-05,-2e-05,-3e-05,0.0003,0.00014,0.00013,2,29
5738,6e-05,1e-05,1e-05,-2e-05,-3e-05,0.0003,0.00014,0.00013,2,29
5739,6e-05,1e-05,1e-05,-2e-05,-3e-05,0.0003,0.00014,0.00013,2,29
5740,6e-05,1e-05,1e-05,-2e-05,-3e-05,0.0003,0.00014,0.00013,2,29
5741,6e-05,1e-05,1e-05,-2e-05,-3e-05,0.0003,0.00014,0.00013,2,29
5742,6e-05,1e-05,1e-05,-2e-05,-3e-05,0.0003,0.00014,0.00013,2,29
5743,6e-05,1e-05,1e-05,-2e-05,-3e-05,0.0003,0.00014,0.00013,2,29
5744,6e-05,1e-05,1e-05,-2e-05,-3e-05,0.0003,0.00014,0.00013,2,29
5745,-6e-05,-5e-05,1e-05,0,0.00014,2e-05,2e-05,6e-05,2,29
5746,7e-05,4e-05,1e-05,6e-05,0,-0.00024,-0.00011,4e-05,2,29
5747,7e-05,4e-05,1e-05,6e-05,0,-0.00024,-0.00011,4e-05,2,29
5748,7e-05,4e-05,1e-05,6e-05,0,-0.00024,-0.00011,4e-05,2,29
5749,7e-05,4e-05,1e-05,6e-05,0,-0.00024,-0.00011,4e-05,2,29
5750,7e-05,4e-05,1e-05,6e-05,0,-0.00024,-0.00011,4e-05,2,29
5751,7e-05,4e-05,1e-05,6e-05,0,-0.00024,-0.00011,4e-05,2,29
5752,7e-05,4e-05,1e-05,6e-05,0,-0.00024,-0.00011,4e-05,2,29
5753,7e-05,4e-05,1e-05,6e-05,0,-0.00024,-0.00011,4e-05,2,29
5754,7e-05,4e-05,1e-05,6e-05,0,-0.00024,-0.00011,4e-05,2,29
5755,7e-05,4e-05,1e-05,6e-05,0,-0.00024,-0.00011,4e-05,2,29
5756,7e-05,4e-05,1e-05,6e-05,0,-0.00024,-0.00011,4e-05,2,29
5757,7e-05,4e-05,1e-05,6e-05,0,-0.00024,-0.00011,4e-05,2,29
5758,7e-05,4e-05,1e-05,6e-05,0,-0.00024,-0.00011,4e-05,2,29
5759,7e-05,4e-05,1e-05,6e-05,0,-0.00024,-0.00011,4e-05,2,29
5760,7e-05,4e-05,1e-05,6e-05,0,-0.00024,-0.00011,4e-05,2,29
5761,7e-05,4e-05,1e-05,6e-05,0,-0.00024,-0.00011,4e-05,2,29
5762,7e-05,4e-05,1e-05,6e-05,0,-0.00024,-0.00011,4e-05,2,29
5763,7e-05,4e-05,1e-05,6e-05,0,-0.00024,-0.00011,4e-05,2,29
5764,7e-05,4e-05,1e-05,6e-05,0,-0.00024,-0.00011,4e-05,2,29
5765,7e-05,4e-05,1e-05,6e-05,0,-0.00024,-0.00011,4e-05,2,29
5766,7e-05,4e-05,1e-05,6e-05,0,-0.00024,-0.00011,4e-05,2,29
5767,-9e-05,-6e-05,0,-0.0001,9e-05,0.0001,-3e-05,0.00028,2,29
5768,-9e-05,-6e-05,0,-0.0001,9e-05,0.0001,-3e-05,0.00028,2,29
5769,-7e-05,1e-05,1e-05,0,-3e-05,0.00013,7e-05,-2e-05,2,29
5770,-7e-05,1e-05,1e-05,0,-3e-05,0.00013,7e-05,-2e-05,2,29
5771,-7e-05,1e-05,1e-05,0,-3e-05,0.00013,7e-05,-2e-05,2,29
5772,-7e-05,1e-05,1e-05,0,-3e-05,0.00013,7e-05,-2e-05,2,29
5773,-7e-05,1e-05,1e-05,0,-3e-05,0.00013,7e-05,-2e-05,2,29
5774,-7e-05,1e-05,1e-05,0,-3e-05,0.00013,7e-05,-2e-05,2,29
5775,-7e-05,1e-05,1e-05,0,-3e-05,0.00013,7e-05,-2e-05,2,29
5776,-7e-05,1e-05,1e-05,0,-3e-05,0.00013,7e-05,-2e-05,2,29
5777,-7e-05,1e-05,1e-05,0,-3e-05,0.00013,7e-05,-2e-05,2,29
5778,-7e-05,1e-05,1e-05,0,-3e-05,0.00013,7e-05,-2e-05,2,29
5779,-7e-05,1e-05,1e-05,0,-3e-05,0.00013,7e-05,-2e-05,2,29
5780,-7e-05,1e-05,1e-05,0,-3e-05,0.00013,7e-05,-2e-05,2,29
5781,-7e-05,1e-05,1e-05,0,-3e-05,0.00013,7e-05,-2e-05,2,29
5782,-7e-05,1e-05,1e-05,0,-3e-05,0.00013,7e-05,-2e-05,2,29
5783,-7e-05,1e-05,1e-05,0,-3e-05,0.00013,7e-05,-2e-05,2,29
5784,-7e-05,1e-05,1e-05,0,-3e-05,0.00013,7e-05,-2e-05,2,29
5785,-7e-05,1e-05,1e-05,0,-3e-05,0.00013,7e-05,-2e-05,2,29
5786,-7e-05,1e-05,1e-05,0,-3e-05,0.00013,7e-05,-2e-05,2,29
5788,-7e-05,1e-05,1e-05,0,-3e-05,0.00013,7e-05,-2e-05,2,29
5789,-7e-05,1e-05,1e-05,0,-3e-05,0.00013,7e-05,-2e-05,2,29
5790,0.00012,4e-05,-3e-05,-7e-05,-1e-05,6e-05,0.0001,-2e-05,2,29
5791,0.00012,4e-05,-3e-05,-7e-05,-1e-05,6e-05,0.0001,-2e-05,2,29
5792,-2e-05,-4e-05,-5e-05,-3e-05,-2e-05,-5e-05,2e-05,6e-05,2,29
5793,-2e-05,-4e-05,-5e-05,-3e-05,-2e-05,-5e-05,2e-05,6e-05,2,29
5794,-2e-05,-4e-05,-5e-05,-3e-05,-2e-05,-5e-05,2e-05,6e-05,2,29
5795,-2e-05,-4e-05,-5e-05,-3e-05,-2e-05,-5e-05,2e-05,6e-05,2,29
5796,-2e-05,-4e-05,-5e-05,-3e-05,-2e-05,-5e-05,2e-05,6e-05,2,29
5797,-2e-05,-4e-05,-5e-05,-3e-05,-2e-05,-5e-05,2e-05,6e-05,2,29
5798,-2e-05,-4e-05,-5e-05,-3e-05,-2e-05,-5e-05,2e-05,6e-05,2,29
5799,-2e-05,-4e-05,-5e-05,-3e-05,-2e-05,-5e-05,2e-05,6e-05,2,29
5800,-2e-05,-4e-05,-5e-05,-3e-05,-2e-05,-5e-05,2e-05,6e-05,2,29
5801,-2e-05,-4e-05,-5e-05,-3e-05,-2e-05,-5e-05,2e-05,6e-05,2,29
5802,-2e-05,-4e-05,-5e-05,-3e-05,-2e-05,-5e-05,2e-05,6e-05,2,29
5803,-2e-05,-4e-05,-5e-05,-3e-05,-2e-05,-5e-05,2e-05,6e-05,2,29
5804,-9e-05,-2e-05,3e-05,1e-05,6e-05,0.00014,-5e-05,-0.00012,2,29
5805,2e-05,1e-05,-2e-05,-5e-05,-0.00016,-0.00012,1e-05,-6e-05,2,29
5806,-6e-05,-2e-05,-2e-05,-7e-05,0.0001,0.00029,0.0001,-8e-05,2,29
5807,-6e-05,-2e-05,-2e-05,-7e-05,0.0001,0.00029,0.0001,-8e-05,2,29
5808,-6e-05,-2e-05,-2e-05,-7e-05,0.0001,0.00029,0.0001,-8e-05,2,29
5809,-6e-05,-2e-05,-2e-05,-7e-05,0.0001,0.00029,0.0001,-8e-05,2,29
5810,-6e-05,-2e-05,-2e-05,-7e-05,0.0001,0.00029,0.0001,-8e-05,2,29
5811,-6e-05,-2e-05,-2e-05,-7e-05,0.0001,0.00029,0.0001,-8e-05,2,29
5812,-6e-05,-2e-05,-2e-05,-7e-05,0.0001,0.00029,0.0001,-8e-05,2,29
5813,-6e-05,-2e-05,-2e-05,-7e-05,0.0001,0.00029,0.0001,-8e-05,2,29
5814,-6e-05,-2e-05,-2e-05,-7e-05,0.0001,0.00029,0.0001,-8e-05,2,29
5815,-6e-05,-2e-05,-2e-05,-7e-05,0.0001,0.00029,0.0001,-8e-05,2,29
5816,-6e-05,-2e-05,-2e-05,-7e-05,0.0001,0.00029,0.0001,-8e-05,2,29
5817,-6e-05,-2e-05,-2e-05,-7e-05,0.0001,0.00029,0.0001,-8e-05,2,29
5818,-6e-05,-2e-05,-2e-05,-7e-05,0.0001,0.00029,0.0001,-8e-05,2,29
5819,-6e-05,-2e-05,-2e-05,-7e-05,0.0001,0.00029,0.0001,-8e-05,2,29
5820,-6e-05,-2e-05,-2e-05,-7e-05,0.0001,0.00029,0.0001,-8e-05,2,29
5821,-6e-05,-2e-05,-2e-05,-7e-05,0.0001,0.00029,0.0001,-8e-05,2,29
5822,-6e-05,-2e-05,-2e-05,-7e-05,0.0001,0.00029,0.0001,-8e-05,2,29
5823,-6e-05,-2e-05,-2e-05,-7e-05,0.0001,0.00029,0.0001,-8e-05,2,29
5824,-6e-05,-2e-05,-2e-05,-7e-05,0.0001,0.00029,0.0001,-8e-05,2,29
5825,-6e-05,-2e-05,-2e-05,-7e-05,0.0001,0.00029,0.0001,-8e-05,2,29
5826,-6e-05,-2e-05,-2e-05,-7e-05,0.0001,0.00029,0.0001,-8e-05,2,29
5827,-6e-05,-2e-05,-2e-05,-7e-05,0.0001,0.00029,0.0001,-8e-05,2,29
5828,-6e-05,-2e-05,-2e-05,-7e-05,0.0001,0.00029,0.0001,-8e-05,2,29
5829,-6e-05,-2e-05,-2e-05,-7e-05,0.0001,0.00029,0.0001,-8e-05,2,29
5830,-6e-05,-2e-05,-2e-05,-7e-05,0.0001,0.00029,0.0001,-8e-05,2,29
5831,-6e-05,-2e-05,-2e-05,-7e-05,0.0001,0.00029,0.0001,-8e-05,2,29
5832,-6e-05,-2e-05,-2e-05,-7e-05,0.0001,0.00029,0.0001,-8e-05,2,29
5833,-6e-05,-2e-05,-2e-05,-7e-05,0.0001,0.00029,0.0001,-8e-05,2,29
5834,-6e-05,-2e-05,-2e-05,-7e-05,0.0001,0.00029,0.0001,-8e-05,2,29
5835,-3e-05,-2e-05,-5e-05,-4e-05,2e-05,0.00013,6e-05,-5e-05,2,29
5836,-8e-05,0,-1e-05,3e-05,4e-05,-3e-05,-0.0001,-0.00015,2,29
5838,-8e-05,0,-1e-05,3e-05,4e-05,-3e-05,-0.0001,-0.00015,2,29
5839,-8e-05,0,-1e-05,3e-05,4e-05,-3e-05,-0.0001,-0.00015,2,29
5840,-8e-05,0,-1e-05,3e-05,4e-05,-3e-05,-0.0001,-0.00015,2,29
5841,-7e-05,-5e-05,-8e-05,-0.00013,-0.00014,-0.00015,-2e-05,9e-05,2,29
5842,4e-05,2e-05,-1e-05,-6e-05,-7e-05,1e-05,-4e-05,-5e-05,2,29
5843,4e-05,2e-05,-1e-05,-6e-05,-7e-05,1e-05,-4e-05,-5e-05,2,29
5844,4e-05,2e-05,-1e-05,-6e-05,-7e-05,1e-05,-4e-05,-5e-05,2,29
5845,4e-05,2e-05,-1e-05,-6e-05,-7e-05,1e-05,-4e-05,-5e-05,2,29
5846,4e-05,2e-05,-1e-05,-6e-05,-7e-05,1e-05,-4e-05,-5e-05,2,29
5847,4e-05,2e-05,-1e-05,-6e-05,-7e-05,1e-05,-4e-05,-5e-05,2,29
5848,-0.00015,-0.00011,-5e-05,-1e-05,4e-05,-0.0001,-0.00013,-7e-05,2,29
5849,-0.00015,-0.00011,-5e-05,-1e-05,4e-05,-0.0001,-0.00013,-7e-05,2,29
5850,-0.00015,-0.00011,-5e-05,-1e-05,4e-05,-0.0001,-0.00013,-7e-05,2,29
5851,-0.00015,-0.00011,-5e-05,-1e-05,4e-05,-0.0001,-0.00013,-7e-05,2,29
5852,-0.00015,-0.00011,-5e-05,-1e-05,4e-05,-0.0001,-0.00013,-7e-05,2,29
5853,-0.00015,-0.00011,-5e-05,-1e-05,4e-05,-0.0001,-0.00013,-7e-05,2,29
5854,-0.00015,-0.00011,-5e-05,-1e-05,4e-05,-0.0001,-0.00013,-7e-05,2,29
5855,-0.00015,-0.00011,-5e-05,-1e-05,4e-05,-0.0001,-0.00013,-7e-05,2,29
5856,-0.00015,-0.00011,-5e-05,-1e-05,4e-05,-0.0001,-0.00013,-7e-05,2,29
5857,-0.00015,-0.00011,-5e-05,-1e-05,4e-05,-0.0001,-0.00013,-7e-05,2,29
5858,-0.00015,-0.00011,-5e-05,-1e-05,4e-05,-0.0001,-0.00013,-7e-05,2,29
5859,-0.00015,-0.00011,-5e-05,-1e-05,4e-05,-0.0001,-0.00013,-7e-05,2,29
5860,-0.00015,-0.00011,-5e-05,-1e-05,4e-05,-0.0001,-0.00013,-7e-05,2,29
5861,-0.00015,-0.00011,-5e-05,-1e-05,4e-05,-0.0001,-0.00013,-7e-05,2,29
5862,-0.00015,-0.00011,-5e-05,-1e-05,4e-05,-0.0001,-0.00013,-7e-05,2,29
5863,-0.00015,-0.00011,-5e-05,-1e-05,4e-05,-0.0001,-0.00013,-7e-05,2,29
5864,-0.00015,-0.00011,-5e-05,-1e-05,4e-05,-0.0001,-0.00013,-7e-05,2,29
5865,9e-05,5e-05,-1e-05,-1e-05,1e-05,0.00018,7e-05,0.0001,2,29
5866,9e-05,3e-05,1e-05,3e-05,-7e-05,-0.0001,-2e-05,8e-05,2,29
5867,9e-05,3e-05,1e-05,3e-05,-7e-05,-0.0001,-2e-05,8e-05,2,29
5868,9e-05,3e-05,1e-05,3e-05,-7e-05,-0.0001,-2e-05,8e-05,2,29
5869,9e-05,3e-05,1e-05,3e-05,-7e-05,-0.0001,-2e-05,8e-05,2,29
5870,9e-05,3e-05,1e-05,3e-05,-7e-05,-0.0001,-2e-05,8e-05,2,29
5871,9e-05,3e-05,1e-05,3e-05,-7e-05,-0.0001,-2e-05,8e-05,2,29
5872,9e-05,3e-05,1e-05,3e-05,-7e-05,-0.0001,-2e-05,8e-05,2,29
5873,9e-05,3e-05,1e-05,3e-05,-7e-05,-0.0001,-2e-05,8e-05,2,29
5874,9e-05,3e-05,1e-05,3e-05,-7e-05,-0.0001,-2e-05,8e-05,2,29
5875,9e-05,3e-05,1e-05,3e-05,-7e-05,-0.0001,-2e-05,8e-05,2,29
5876,9e-05,3e-05,1e-05,3e-05,-7e-05,-0.0001,-2e-05,8e-05,2,29
5877,9e-05,3e-05,1e-05,3e-05,-7e-05,-0.0001,-2e-05,8e-05,2,29
5878,9e-05,3e-05,1e-05,3e-05,-7e-05,-0.0001,-2e-05,8e-05,2,29
5879,9e-05,3e-05,1e-05,3e-05,-7e-05,-0.0001,-2e-05,8e-05,2,29
5880,9e-05,3e-05,1e-05,3e-05,-7e-05,-0.0001,-2e-05,8e-05,2,29
5881,9e-05,3e-05,1e-05,3e-05,-7e-05,-0.0001,-2e-05,8e-05,2,29
5882,9e-05,3e-05,1e-05,3e-05,-7e-05,-0.0001,-2e-05,8e-05,2,29
5883,9e-05,3e-05,1e-05,3e-05,-7e-05,-0.0001,-2e-05,8e-05,2,29
5884,9e-05,3e-05,1e-05,3e-05,-7e-05,-0.0001,-2e-05,8e-05,2,29
5885,9e-05,3e-05,1e-05,3e-05,-7e-05,-0.0001,-2e-05,8e-05,2,29
5886,9e-05,3e-05,1e-05,3e-05,-7e-05,-0.0001,-2e-05,8e-05,2,29
5888,0,2e-05,9e-05,3e-05,-3e-05,-2e-05,6e-05,-1e-05,2,29
5889,0.0001,0,-7e-05,-0.00013,-1e-05,0.00012,7e-05,2e-05,2,29
5890,0.0001,0,-7e-05,-0.00013,-1e-05,0.00012,7e-05,2e-05,2,29
5891,0.0001,0,-7e-05,-0.00013,-1e-05,0.00012,7e-05,2e-05,2,29
5892,0.0001,0,-7e-05,-0.00013,-1e-05,0.00012,7e-05,2e-05,2,29
5893,0.0001,0,-7e-05,-0.00013,-1e-05,0.00012,7e-05,2e-05,2,29
5894,0.0001,0,-7e-05,-0.00013,-1e-05,0.00012,7e-05,2e-05,2,29
5895,0.0001,0,-7e-05,-0.00013,-1e-05,0.00012,7e-05,2e-05,2,29
5896,0.0001,0,-7e-05,-0.00013,-1e-05,0.00012,7e-05,2e-05,2,29
5897,0.0001,0,-7e-05,-0.00013,-1e-05,0.00012,7e-05,2e-05,2,29
5898,0.0001,0,-7e-05,-0.00013,-1e-05,0.00012,7e-05,2e-05,2,29
5899,0.0001,0,-7e-05,-0.00013,-1e-05,0.00012,7e-05,2e-05,2,29
5900,0.0001,0,-7e-05,-0.00013,-1e-05,0.00012,7e-05,2e-05,2,29
5901,1e-05,3e-05,-1e-05,-1e-05,-0.00015,-6e-05,-7e-05,-2e-05,2,29
5902,1e-05,3e-05,-1e-05,-1e-05,-0.00015,-6e-05,-7e-05,-2e-05,2,29
5903,1e-05,3e-05,-1e-05,-1e-05,-0.00015,-6e-05,-7e-05,-2e-05,2,29
5904,1e-05,3e-05,-1e-05,-1e-05,-0.00015,-6e-05,-7e-05,-2e-05,2,29
5905,1e-05,3e-05,-1e-05,-1e-05,-0.00015,-6e-05,-7e-05,-2e-05,2,29
5906,1e-05,3e-05,-1e-05,-1e-05,-0.00015,-6e-05,-7e-05,-2e-05,2,29
5907,1e-05,3e-05,-1e-05,-1e-05,-0.00015,-6e-05,-7e-05,-2e-05,2,29
5908,1e-05,3e-05,-1e-05,-1e-05,-0.00015,-6e-05,-7e-05,-2e-05,2,29
5909,-5e-05,1e-05,3e-05,0.00011,0.00011,-6e-05,2e-05,0,2,29
5910,-5e-05,1e-05,3e-05,0.00011,0.00011,-6e-05,2e-05,0,2,29
5911,-5e-05,1e-05,3e-05,0.00011,0.00011,-6e-05,2e-05,0,2,29
5912,-5e-05,1e-05,3e-05,0.00011,0.00011,-6e-05,2e-05,0,2,29
5913,-5e-05,1e-05,3e-05,0.00011,0.00011,-6e-05,2e-05,0,2,29
5914,-5e-05,1e-05,3e-05,0.00011,0.00011,-6e-05,2e-05,0,2,29
5915,-5e-05,1e-05,3e-05,0.00011,0.00011,-6e-05,2e-05,0,2,29
5916,-5e-05,1e-05,3e-05,0.00011,0.00011,-6e-05,2e-05,0,2,29
5917,-5e-05,1e-05,3e-05,0.00011,0.00011,-6e-05,2e-05,0,2,29
5918,-5e-05,1e-05,3e-05,0.00011,0.00011,-6e-05,2e-05,0,2,29
5919,-5e-05,1e-05,3e-05,0.00011,0.00011,-6e-05,2e-05,0,2,29
5920,-5e-05,1e-05,3e-05,0.00011,0.00011,-6e-05,2e-05,0,2,29
5921,-5e-05,1e-05,3e-05,0.00011,0.00011,-6e-05,2e-05,0,2,29
5922,-5e-05,1e-05,3e-05,0.00011,0.00011,-6e-05,2e-05,0,2,29
5923,-5e-05,1e-05,3e-05,0.00011,0.00011,-6e-05,2e-05,0,2,29
5924,-5e-05,1e-05,3e-05,0.00011,0.00011,-6e-05,2e-05,0,2,29
5925,1e-05,-3e-05,-2e-05,-5e-05,0,-0.00013,-5e-05,8e-05,2,29
5926,-8e-05,1e-05,5e-05,6e-05,1e-05,3e-05,2e-05,-0.00028,2,29
5927,-8e-05,1e-05,5e-05,6e-05,1e-05,3e-05,2e-05,-0.00028,2,29
5928,-8e-05,1e-05,5e-05,6e-05,1e-05,3e-05,2e-05,-0.00028,2,29
5929,-8e-05,1e-05,5e-05,6e-05,1e-05,3e-05,2e-05,-0.00028,2,29
5930,-8e-05,1e-05,5e-05,6e-05,1e-05,3e-05,2e-05,-0.00028,2,29
5931,-8e-05,1e-05,5e-05,6e-05,1e-05,3e-05,2e-05,-0.00028,2,29
5932,-8e-05,1e-05,5e-05,6e-05,1e-05,3e-05,2e-05,-0.00028,2,29
5933,-8e-05,1e-05,5e-05,6e-05,1e-05,3e-05,2e-05,-0.00028,2,29
5934,-8e-05,1e-05,5e-05,6e-05,1e-05,3e-05,2e-05,-0.00028,2,29
5935,-8e-05,1e-05,5e-05,6e-05,1e-05,3e-05,2e-05,-0.00028,2,29
5936,-8e-05,1e-05,5e-05,6e-05,1e-05,3e-05,2e-05,-0.00028,2,29
5938,-8e-05,1e-05,5e-05,6e-05,1e-05,3e-05,2e-05,-0.00028,2,29
5939,-8e-05,1e-05,5e-05,6e-05,1e-05,3e-05,2e-05,-0.00028,2,29
5940,-8e-05,1e-05,5e-05,6e-05,1e-05,3e-05,2e-05,-0.00028,2,29
5941,-8e-05,1e-05,5e-05,6e-05,1e-05,3e-05,2e-05,-0.00028,2,29
5942,-8e-05,1e-05,5e-05,6e-05,1e-05,3e-05,2e-05,-0.00028,2,29
5943,-8e-05,1e-05,5e-05,6e-05,1e-05,3e-05,2e-05,-0.00028,2,29
5944,-8e-05,1e-05,5e-05,6e-05,1e-05,3e-05,2e-05,-0.00028,2,29
5945,-8e-05,1e-05,5e-05,6e-05,1e-05,3e-05,2e-05,-0.00028,2,29
5946,-8e-05,1e-05,5e-05,6e-05,1e-05,3e-05,2e-05,-0.00028,2,29
5947,-8e-05,1e-05,5e-05,6e-05,1e-05,3e-05,2e-05,-0.00028,2,29
5948,-8e-05,1e-05,5e-05,6e-05,1e-05,3e-05,2e-05,-0.00028,2,29
5949,-8e-05,1e-05,5e-05,6e-05,1e-05,3e-05,2e-05,-0.00028,2,29
5950,-8e-05,1e-05,5e-05,6e-05,1e-05,3e-05,2e-05,-0.00028,2,29
5951,-8e-05,1e-05,5e-05,6e-05,1e-05,3e-05,2e-05,-0.00028,2,29
5952,-8e-05,1e-05,5e-05,6e-05,1e-05,3e-05,2e-05,-0.00028,2,29
5953,-8e-05,1e-05,5e-05,6e-05,1e-05,3e-05,2e-05,-0.00028,2,29
5954,-8e-05,1e-05,5e-05,6e-05,1e-05,3e-05,2e-05,-0.00028,2,29
5955,-0.00013,-2e-05,0,-2e-05,-1e-05,-2e-05,-4e-05,-0.0002,2,29
5956,0.00021,-1e-05,-1e-05,-4e-05,-7e-05,4e-05,5e-05,0.0003,2,29
5957,0.00021,-1e-05,-1e-05,-4e-05,-7e-05,4e-05,5e-05,0.0003,2,29
5958,0.00021,-1e-05,-1e-05,-4e-05,-7e-05,4e-05,5e-05,0.0003,2,29
5959,0.00021,-1e-05,-1e-05,-4e-05,-7e-05,4e-05,5e-05,0.0003,2,29
5960,0.00021,-1e-05,-1e-05,-4e-05,-7e-05,4e-05,5e-05,0.0003,2,29
5961,-3e-05,-2e-05,-3e-05,-1e-05,9e-05,-0.00012,-5e-05,-0.00015,2,29
5962,-3e-05,-2e-05,-3e-05,-1e-05,9e-05,-0.00012,-5e-05,-0.00015,2,29
5963,-3e-05,-2e-05,-3e-05,-1e-05,9e-05,-0.00012,-5e-05,-0.00015,2,29
5964,-3e-05,-2e-05,-3e-05,-1e-05,9e-05,-0.00012,-5e-05,-0.00015,2,29
5965,-3e-05,-2e-05,-3e-05,-1e-05,9e-05,-0.00012,-5e-05,-0.00015,2,29
5966,-3e-05,-2e-05,-3e-05,-1e-05,9e-05,-0.00012,-5e-05,-0.00015,2,29
5967,-3e-05,-2e-05,-3e-05,-1e-05,9e-05,-0.00012,-5e-05,-0.00015,2,29
5968,7e-05,7e-05,5e-05,0.00033,0.00015,0.00027,0.00019,0.00021,2,29
5969,7e-05,7e-05,5e-05,0.00033,0.00015,0.00027,0.00019,0.00021,2,29
5970,7e-05,7e-05,5e-05,0.00033,0.00015,0.00027,0.00019,0.00021,2,29
5971,7e-05,7e-05,5e-05,0.00033,0.00015,0.00027,0.00019,0.00021,2,29
5972,7e-05,7e-05,5e-05,0.00033,0.00015,0.00027,0.00019,0.00021,2,29
5973,7e-05,7e-05,5e-05,0.00033,0.00015,0.00027,0.00019,0.00021,2,29
5974,7e-05,7e-05,5e-05,0.00033,0.00015,0.00027,0.00019,0.00021,2,29
5975,7e-05,7e-05,5e-05,0.00033,0.00015,0.00027,0.00019,0.00021,2,29
5976,7e-05,7e-05,5e-05,0.00033,0.00015,0.00027,0.00019,0.00021,2,29
5977,7e-05,7e-05,5e-05,0.00033,0.00015,0.00027,0.00019,0.00021,2,29
5978,7e-05,7e-05,5e-05,0.00033,0.00015,0.00027,0.00019,0.00021,2,29
5979,7e-05,7e-05,5e-05,0.00033,0.00015,0.00027,0.00019,0.00021,2,29
5980,7e-05,7e-05,5e-05,0.00033,0.00015,0.00027,0.00019,0.00021,2,29
5981,7e-05,7e-05,5e-05,0.00033,0.00015,0.00027,0.00019,0.00021,2,29
5982,7e-05,7e-05,5e-05,0.00033,0.00015,0.00027,0.00019,0.00021,2,29
5983,7e-05,7e-05,5e-05,0.00033,0.00015,0.00027,0.00019,0.00021,2,29
5984,0,3e-05,6e-05,-8e-05,-5e-05,-0.00014,-0.00018,-0.0001,2,29
5985,-3e-05,-6e-05,-2e-05,-2e-05,-3e-05,8e-05,8e-05,-7e-05,2,29
5986,-4e-05,1e-05,2e-05,1e-05,-3e-05,-0.00022,0,4e-05,2,29
5988,-4e-05,1e-05,2e-05,1e-05,-3e-05,-0.00022,0,4e-05,2,29
5989,-4e-05,1e-05,2e-05,1e-05,-3e-05,-0.00022,0,4e-05,2,29
5990,-4e-05,1e-05,2e-05,1e-05,-3e-05,-0.00022,0,4e-05,2,29
5991,-4e-05,1e-05,2e-05,1e-05,-3e-05,-0.00022,0,4e-05,2,29
5992,-4e-05,1e-05,2e-05,1e-05,-3e-05,-0.00022,0,4e-05,2,29
5993,-4e-05,1e-05,2e-05,1e-05,-3e-05,-0.00022,0,4e-05,2,29
5994,-4e-05,1e-05,2e-05,1e-05,-3e-05,-0.00022,0,4e-05,2,29
5995,-4e-05,1e-05,2e-05,1e-05,-3e-05,-0.00022,0,4e-05,2,29
5996,-4e-05,1e-05,2e-05,1e-05,-3e-05,-0.00022,0,4e-05,2,29
5997,-4e-05,1e-05,2e-05,1e-05,-3e-05,-0.00022,0,4e-05,2,29
5998,-4e-05,1e-05,2e-05,1e-05,-3e-05,-0.00022,0,4e-05,2,29
5999,-4e-05,1e-05,2e-05,1e-05,-3e-05,-0.00022,0,4e-05,2,29
6000,-4e-05,1e-05,2e-05,1e-05,-3e-05,-0.00022,0,4e-05,2,29
6001,-4e-05,1e-05,2e-05,1e-05,-3e-05,-0.00022,0,4e-05,2,29
6002,-4e-05,1e-05,2e-05,1e-05,-3e-05,-0.00022,0,4e-05,2,29
6003,-4e-05,1e-05,2e-05,1e-05,-3e-05,-0.00022,0,4e-05,2,29
6004,-4e-05,1e-05,2e-05,1e-05,-3e-05,-0.00022,0,4e-05,2,29
6005,-4e-05,1e-05,2e-05,1e-05,-3e-05,-0.00022,0,4e-05,2,29
6006,-4e-05,1e-05,2e-05,1e-05,-3e-05,-0.00022,0,4e-05,2,29
6007,-0.00018,-3e-05,2e-05,-4e-05,-2e-05,8e-05,-2e-05,-0.00017,2,29
6008,-0.00018,-3e-05,2e-05,-4e-05,-2e-05,8e-05,-2e-05,-0.00017,2,29
6009,-8e-05,-3e-05,-6e-05,-7e-05,-3e-05,6e-05,6e-05,-0.00014,2,29
6010,-8e-05,-3e-05,-6e-05,-7e-05,-3e-05,6e-05,6e-05,-0.00014,2,29
6011,-8e-05,-3e-05,-6e-05,-7e-05,-3e-05,6e-05,6e-05,-0.00014,2,29
6012,-8e-05,-3e-05,-6e-05,-7e-05,-3e-05,6e-05,6e-05,-0.00014,2,29
6013,-8e-05,-3e-05,-6e-05,-7e-05,-3e-05,6e-05,6e-05,-0.00014,2,29
6014,-8e-05,-3e-05,-6e-05,-7e-05,-3e-05,6e-05,6e-05,-0.00014,2,29
6015,-8e-05,-3e-05,-6e-05,-7e-05,-3e-05,6e-05,6e-05,-0.00014,2,29
6016,-8e-05,-3e-05,-6e-05,-7e-05,-3e-05,6e-05,6e-05,-0.00014,2,29
6017,-8e-05,-3e-05,-6e-05,-7e-05,-3e-05,6e-05,6e-05,-0.00014,2,29
6018,-8e-05,-3e-05,-6e-05,-7e-05,-3e-05,6e-05,6e-05,-0.00014,2,29
6019,-8e-05,-3e-05,-6e-05,-7e-05,-3e-05,6e-05,6e-05,-0.00014,2,29
6020,-8e-05,-3e-05,-6e-05,-7e-05,-3e-05,6e-05,6e-05,-0.00014,2,29
6021,-5e-05,0,1e-05,-4e-05,-1e-05,-0.00011,-0.00019,-5e-05,2,29
6022,-5e-05,0,1e-05,-4e-05,-1e-05,-0.00011,-0.00019,-5e-05,2,29
6023,-5e-05,0,1e-05,-4e-05,-1e-05,-0.00011,-0.00019,-5e-05,2,29
6024,-5e-05,0,1e-05,-4e-05,-1e-05,-0.00011,-0.00019,-5e-05,2,29
6025,-5e-05,0,1e-05,-4e-05,-1e-05,-0.00011,-0.00019,-5e-05,2,29
6026,-5e-05,0,1e-05,-4e-05,-1e-05,-0.00011,-0.00019,-5e-05,2,29
6027,-5e-05,0,1e-05,-4e-05,-1e-05,-0.00011,-0.00019,-5e-05,2,29
6028,-5e-05,0,1e-05,-4e-05,-1e-05,-0.00011,-0.00019,-5e-05,2,29
6029,-5e-05,0,1e-05,-4e-05,-1e-05,-0.00011,-0.00019,-5e-05,2,29
6030,-1e-05,-5e-05,-5e-05,-9e-05,-7e-05,-1e-05,-8e-05,7e-05,2,29
6031,-1e-05,-5e-05,-5e-05,-9e-05,-7e-05,-1e-05,-8e-05,7e-05,2,29
6032,-1e-05,-5e-05,-5e-05,-9e-05,-7e-05,-1e-05,-8e-05,7e-05,2,29
6033,-1e-05,-5e-05,-5e-05,-9e-05,-7e-05,-1e-05,-8e-05,7e-05,2,29
6034,-1e-05,-5e-05,-5e-05,-9e-05,-7e-05,-1e-05,-8e-05,7e-05,2,29
6035,-1e-05,-5e-05,-5e-05,-9e-05,-7e-05,-1e-05,-8e-05,7e-05,2,29
6036,-1e-05,-5e-05,-5e-05,-9e-05,-7e-05,-1e-05,-8e-05,7e-05,2,29
6038,-1e-05,-5e-05,-5e-05,-9e-05,-7e-05,-1e-05,-8e-05,7e-05,2,29
6039,-1e-05,-5e-05,-5e-05,-9e-05,-7e-05,-1e-05,-8e-05,7e-05,2,29
6040,-1e-05,-5e-05,-5e-05,-9e-05,-7e-05,-1e-05,-8e-05,7e-05,2,29
6041,-1e-05,-5e-05,-5e-05,-9e-05,-7e-05,-1e-05,-8e-05,7e-05,2,29
6042,-1e-05,-5e-05,-5e-05,-9e-05,-7e-05,-1e-05,-8e-05,7e-05,2,29
6043,-1e-05,-5e-05,-5e-05,-9e-05,-7e-05,-1e-05,-8e-05,7e-05,2,29
6044,8e-05,-3e-05,-6e-05,-2e-05,-0.00014,-7e-05,-5e-05,2e-05,2,29
6045,8e-05,-3e-05,-6e-05,-2e-05,-0.00014,-7e-05,-5e-05,2e-05,2,29
6046,-2e-05,2e-05,5e-05,-0.00012,-2e-05,-1e-05,1e-05,-6e-05,2,29
6047,-2e-05,2e-05,5e-05,-0.00012,-2e-05,-1e-05,1e-05,-6e-05,2,29
6048,-2e-05,2e-05,5e-05,-0.00012,-2e-05,-1e-05,1e-05,-6e-05,2,29
6049,-2e-05,2e-05,5e-05,-0.00012,-2e-05,-1e-05,1e-05,-6e-05,2,29
6050,-2e-05,2e-05,5e-05,-0.00012,-2e-05,-1e-05,1e-05,-6e-05,2,29
6051,-2e-05,2e-05,5e-05,-0.00012,-2e-05,-1e-05,1e-05,-6e-05,2,29
6052,-2e-05,2e-05,5e-05,-0.00012,-2e-05,-1e-05,1e-05,-6e-05,2,29
6053,-2e-05,2e-05,5e-05,-0.00012,-2e-05,-1e-05,1e-05,-6e-05,2,29
6054,-2e-05,2e-05,5e-05,-0.00012,-2e-05,-1e-05,1e-05,-6e-05,2,29
6055,-2e-05,2e-05,5e-05,-0.00012,-2e-05,-1e-05,1e-05,-6e-05,2,29
6056,-2e-05,2e-05,5e-05,-0.00012,-2e-05,-1e-05,1e-05,-6e-05,2,29
6057,-2e-05,2e-05,5e-05,-0.00012,-2e-05,-1e-05,1e-05,-6e-05,2,29
6058,-2e-05,2e-05,5e-05,-0.00012,-2e-05,-1e-05,1e-05,-6e-05,2,29
6059,-2e-05,2e-05,5e-05,-0.00012,-2e-05,-1e-05,1e-05,-6e-05,2,29
6060,-2e-05,2e-05,5e-05,-0.00012,-2e-05,-1e-05,1e-05,-6e-05,2,29
6061,-2e-05,2e-05,5e-05,-0.00012,-2e-05,-1e-05,1e-05,-6e-05,2,29
6062,-2e-05,2e-05,5e-05,-0.00012,-2e-05,-1e-05,1e-05,-6e-05,2,29
6063,-2e-05,2e-05,5e-05,-0.00012,-2e-05,-1e-05,1e-05,-6e-05,2,29
6064,-2e-05,2e-05,5e-05,-0.00012,-2e-05,-1e-05,1e-05,-6e-05,2,29
6065,-2e-05,2e-05,5e-05,-0.00012,-2e-05,-1e-05,1e-05,-6e-05,2,29
6066,-2e-05,2e-05,5e-05,-0.00012,-2e-05,-1e-05,1e-05,-6e-05,2,29
6067,-0.0001,-3e-05,-2e-05,0.00027,1e-05,0.00013,5e-05,-8e-05,2,29
6068,-1e-05,-1e-05,-7e-05,-6e-05,2e-05,3e-05,-2e-05,-0.00015,2,29
6069,0.0001,-4e-05,-8e-05,-9e-05,3e-05,0.00021,5e-05,1e-05,2,29
6070,0.0001,-4e-05,-8e-05,-9e-05,3e-05,0.00021,5e-05,1e-05,2,29
6071,0.0001,-4e-05,-8e-05,-9e-05,3e-05,0.00021,5e-05,1e-05,2,29
6072,0.0001,-4e-05,-8e-05,-9e-05,3e-05,0.00021,5e-05,1e-05,2,29
6073,0.0001,-4e-05,-8e-05,-9e-05,3e-05,0.00021,5e-05,1e-05,2,29
6074,0.0001,-4e-05,-8e-05,-9e-05,3e-05,0.00021,5e-05,1e-05,2,29
6075,0.0001,-4e-05,-8e-05,-9e-05,3e-05,0.00021,5e-05,1e-05,2,29
6076,0.0001,-4e-05,-8e-05,-9e-05,3e-05,0.00021,5e-05,1e-05,2,29
6077,0.0001,-4e-05,-8e-05,-9e-05,3e-05,0.00021,5e-05,1e-05,2,29
6078,0.0001,-4e-05,-8e-05,-9e-05,3e-05,0.00021,5e-05,1e-05,2,29
6079,0.0001,-4e-05,-8e-05,-9e-05,3e-05,0.00021,5e-05,1e-05,2,29
6080,0.0001,-4e-05,-8e-05,-9e-05,3e-05,0.00021,5e-05,1e-05,2,29
6081,0.00013,-3e-05,-1e-05,5e-05,5e-05,0.00015,0.0001,0.00025,2,29
6082,0.00013,-3e-05,-1e-05,5e-05,5e-05,0.00015,0.0001,0.00025,2,29
6083,0.00013,-3e-05,-1e-05,5e-05,5e-05,0.00015,0.0001,0.00025,2,29
6084,0.00013,-3e-05,-1e-05,5e-05,5e-05,0.00015,0.0001,0.00025,2,29
6085,0.00013,-3e-05,-1e-05,5e-05,5e-05,0.00015,0.0001,0.00025,2,29
6086,0.00013,-3e-05,-1e-05,5e-05,5e-05,0.00015,0.0001,0.00025,2,29
6088,0.00013,-3e-05,-1e-05,5e-05,5e-05,0.00015,0.0001,0.00025,2,29
6089,0.00013,-3e-05,-1e-05,5e-05,5e-05,0.00015,0.0001,0.00025,2,29
6090,-0.00011,0,-1e-05,-3e-05,-0.00011,-0.00019,-0.00011,-7e-05,2,29
6091,-0.00011,0,-1e-05,-3e-05,-0.00011,-0.00019,-0.00011,-7e-05,2,29
6092,-0.00011,0,-1e-05,-3e-05,-0.00011,-0.00019,-0.00011,-7e-05,2,29
6093,-0.00011,0,-1e-05,-3e-05,-0.00011,-0.00019,-0.00011,-7e-05,2,29
6094,-0.00011,0,-1e-05,-3e-05,-0.00011,-0.00019,-0.00011,-7e-05,2,29
6095,-0.00011,0,-1e-05,-3e-05,-0.00011,-0.00019,-0.00011,-7e-05,2,29
6096,-0.00011,0,-1e-05,-3e-05,-0.00011,-0.00019,-0.00011,-7e-05,2,29
6097,-0.00011,0,-1e-05,-3e-05,-0.00011,-0.00019,-0.00011,-7e-05,2,29
6098,-0.00011,0,-1e-05,-3e-05,-0.00011,-0.00019,-0.00011,-7e-05,2,29
6099,-0.00011,0,-1e-05,-3e-05,-0.00011,-0.00019,-0.00011,-7e-05,2,29
6100,-0.00011,0,-1e-05,-3e-05,-0.00011,-0.00019,-0.00011,-7e-05,2,29
6101,-0.00011,0,-1e-05,-3e-05,-0.00011,-0.00019,-0.00011,-7e-05,2,29
6102,-0.00011,0,-1e-05,-3e-05,-0.00011,-0.00019,-0.00011,-7e-05,2,29
6103,-0.00011,0,-1e-05,-3e-05,-0.00011,-0.00019,-0.00011,-7e-05,2,29
6104,2e-05,-4e-05,-3e-05,-4e-05,-2e-05,0,0,-0.00013,2,29
6105,-4e-05,-1e-05,1e-05,0,2e-05,5e-05,4e-05,-7e-05,2,29
6106,-4e-05,-5e-05,-1e-05,5e-05,1e-05,0.00025,-4e-05,-0.00015,2,29
6107,-4e-05,-5e-05,-1e-05,5e-05,1e-05,0.00025,-4e-05,-0.00015,2,29
6108,-4e-05,-5e-05,-1e-05,5e-05,1e-05,0.00025,-4e-05,-0.00015,2,29
6109,-4e-05,-5e-05,-1e-05,5e-05,1e-05,0.00025,-4e-05,-0.00015,2,29
6110,-4e-05,-5e-05,-1e-05,5e-05,1e-05,0.00025,-4e-05,-0.00015,2,29
6111,-4e-05,-5e-05,-1e-05,5e-05,1e-05,0.00025,-4e-05,-0.00015,2,29
6112,-4e-05,-5e-05,-1e-05,5e-05,1e-05,0.00025,-4e-05,-0.00015,2,29
6113,-4e-05,-5e-05,-1e-05,5e-05,1e-05,0.00025,-4e-05,-0.00015,2,29
6114,-4e-05,-5e-05,-1e-05,5e-05,1e-05,0.00025,-4e-05,-0.00015,2,29
6115,-4e-05,-5e-05,-1e-05,5e-05,1e-05,0.00025,-4e-05,-0.00015,2,29
6116,-4e-05,-5e-05,-1e-05,5e-05,1e-05,0.00025,-4e-05,-0.00015,2,29
6117,-4e-05,-5e-05,-1e-05,5e-05,1e-05,0.00025,-4e-05,-0.00015,2,29
6118,-4e-05,-5e-05,-1e-05,5e-05,1e-05,0.00025,-4e-05,-0.00015,2,29
6119,-4e-05,-5e-05,-1e-05,5e-05,1e-05,0.00025,-4e-05,-0.00015,2,29
6120,-4e-05,-5e-05,-1e-05,5e-05,1e-05,0.00025,-4e-05,-0.00015,2,29
6121,-4e-05,-5e-05,-1e-05,5e-05,1e-05,0.00025,-4e-05,-0.00015,2,29
6122,-4e-05,-5e-05,-1e-05,5e-05,1e-05,0.00025,-4e-05,-0.00015,2,29
6123,-4e-05,-5e-05,-1e-05,5e-05,1e-05,0.00025,-4e-05,-0.00015,2,29
6124,-4e-05,-5e-05,-1e-05,5e-05,1e-05,0.00025,-4e-05,-0.00015,2,29
6125,-4e-05,-5e-05,-1e-05,5e-05,1e-05,0.00025,-4e-05,-0.00015,2,29
6126,-4e-05,-5e-05,-1e-05,5e-05,1e-05,0.00025,-4e-05,-0.00015,2,29
6127,-3e-05,2e-05,-1e-05,4e-05,0.00011,-4e-05,8e-05,0.00011,2,29
6128,-4e-05,-4e-05,-5e-05,-3e-05,-0.00011,-8e-05,-0.00014,-4e-05,2,29
6129,-5e-05,0,-1e-05,0,8e-05,-5e-05,-2e-05,-0.00011,2,29
6130,-5e-05,0,-1e-05,0,8e-05,-5e-05,-2e-05,-0.00011,2,29
6131,-5e-05,0,-1e-05,0,8e-05,-5e-05,-2e-05,-0.00011,2,29
6132,-5e-05,0,-1e-05,0,8e-05,-5e-05,-2e-05,-0.00011,2,29
6133,-5e-05,0,-1e-05,0,8e-05,-5e-05,-2e-05,-0.00011,2,29
6134,-5e-05,0,-1e-05,0,8e-05,-5e-05,-2e-05,-0.00011,2,29
6135,-5e-05,0,-1e-05,0,8e-05,-5e-05,-2e-05,-0.00011,2,29
6136,-5e-05,0,-1e-05,0,8e-05,-5e-05,-2e-05,-0.00011,2,29
6138,-5e-05,0,-1e-05,0,8e-05,-5e-05,-2e-05,-0.00011,2,29
6139,-5e-05,0,-1e-05,0,8e-05,-5e-05,-2e-05,-0.00011,2,29
6140,-5e-05,0,-1e-05,0,8e-05,-5e-05,-2e-05,-0.00011,2,29
6141,2e-05,3e-05,0,-2e-05,1e-05,0.0001,3e-05,5e-05,2,29
6142,2e-05,3e-05,0,-2e-05,1e-05,0.0001,3e-05,5e-05,2,29
6143,2e-05,3e-05,0,-2e-05,1e-05,0.0001,3e-05,5e-05,2,29
6144,2e-05,3e-05,0,-2e-05,1e-05,0.0001,3e-05,5e-05,2,29
6145,2e-05,3e-05,0,-2e-05,1e-05,0.0001,3e-05,5e-05,2,29
6146,2e-05,3e-05,0,-2e-05,1e-05,0.0001,3e-05,5e-05,2,29
6147,2e-05,3e-05,0,-2e-05,1e-05,0.0001,3e-05,5e-05,2,29
6148,2e-05,3e-05,0,-2e-05,1e-05,0.0001,3e-05,5e-05,2,29
6149,-6e-05,2e-05,3e-05,-2e-05,-3e-05,-0.00012,-2e-05,-0.00013,2,29
6150,1e-05,-5e-05,-8e-05,0.00011,-8e-05,-0.0001,-0.00011,0.00014,2,29
6151,1e-05,-5e-05,-8e-05,0.00011,-8e-05,-0.0001,-0.00011,0.00014,2,29
6152,1e-05,-5e-05,-8e-05,0.00011,-8e-05,-0.0001,-0.00011,0.00014,2,29
6153,1e-05,-5e-05,-8e-05,0.00011,-8e-05,-0.0001,-0.00011,0.00014,2,29
6154,1e-05,-5e-05,-8e-05,0.00011,-8e-05,-0.0001,-0.00011,0.00014,2,29
6155,1e-05,-5e-05,-8e-05,0.00011,-8e-05,-0.0001,-0.00011,0.00014,2,29
6156,1e-05,-5e-05,-8e-05,0.00011,-8e-05,-0.0001,-0.00011,0.00014,2,29
6157,1e-05,-5e-05,-8e-05,0.00011,-8e-05,-0.0001,-0.00011,0.00014,2,29
6158,1e-05,-5e-05,-8e-05,0.00011,-8e-05,-0.0001,-0.00011,0.00014,2,29
6159,1e-05,-5e-05,-8e-05,0.00011,-8e-05,-0.0001,-0.00011,0.00014,2,29
6160,1e-05,-5e-05,-8e-05,0.00011,-8e-05,-0.0001,-0.00011,0.00014,2,29
6161,1e-05,-5e-05,-8e-05,0.00011,-8e-05,-0.0001,-0.00011,0.00014,2,29
6162,1e-05,-5e-05,-8e-05,0.00011,-8e-05,-0.0001,-0.00011,0.00014,2,29
6163,1e-05,-5e-05,-8e-05,0.00011,-8e-05,-0.0001,-0.00011,0.00014,2,29
6164,-5e-05,-3e-05,0,-5e-05,0.0001,4e-05,2e-05,-1e-05,2,29
6165,-4e-05,-1e-05,-1e-05,3e-05,-6e-05,-0.00019,-0.00012,-0.0001,2,29
6166,5e-05,-2e-05,6e-05,1e-05,-4e-05,-0.00016,-5e-05,-0.00021,2,29
6167,5e-05,-2e-05,6e-05,1e-05,-4e-05,-0.00016,-5e-05,-0.00021,2,29
6168,5e-05,-2e-05,6e-05,1e-05,-4e-05,-0.00016,-5e-05,-0.00021,2,29
6169,5e-05,-2e-05,6e-05,1e-05,-4e-05,-0.00016,-5e-05,-0.00021,2,29
6170,5e-05,-2e-05,6e-05,1e-05,-4e-05,-0.00016,-5e-05,-0.00021,2,29
6171,5e-05,-2e-05,6e-05,1e-05,-4e-05,-0.00016,-5e-05,-0.00021,2,29
6172,5e-05,-2e-05,6e-05,1e-05,-4e-05,-0.00016,-5e-05,-0.00021,2,29
6173,5e-05,-2e-05,6e-05,1e-05,-4e-05,-0.00016,-5e-05,-0.00021,2,29
6174,5e-05,-2e-05,6e-05,1e-05,-4e-05,-0.00016,-5e-05,-0.00021,2,29
6175,5e-05,-2e-05,6e-05,1e-05,-4e-05,-0.00016,-5e-05,-0.00021,2,29
6176,5e-05,-2e-05,6e-05,1e-05,-4e-05,-0.00016,-5e-05,-0.00021,2,29
6177,5e-05,-2e-05,6e-05,1e-05,-4e-05,-0.00016,-5e-05,-0.00021,2,29
6178,5e-05,-2e-05,6e-05,1e-05,-4e-05,-0.00016,-5e-05,-0.00021,2,29
6179,5e-05,-2e-05,6e-05,1e-05,-4e-05,-0.00016,-5e-05,-0.00021,2,29
6180,5e-05,-2e-05,6e-05,1e-05,-4e-05,-0.00016,-5e-05,-0.00021,2,29
6181,5e-05,-2e-05,6e-05,1e-05,-4e-05,-0.00016,-5e-05,-0.00021,2,29
6182,5e-05,-2e-05,6e-05,1e-05,-4e-05,-0.00016,-5e-05,-0.00021,2,29
6183,5e-05,-2e-05,6e-05,1e-05,-4e-05,-0.00016,-5e-05,-0.00021,2,29
6184,5e-05,-2e-05,6e-05,1e-05,-4e-05,-0.00016,-5e-05,-0.00021,2,29
6185,5e-05,-2e-05,6e-05,1e-05,-4e-05,-0.00016,-5e-05,-0.00021,2,29
6186,5e-05,-2e-05,6e-05,1e-05,-4e-05,-0.00016,-5e-05,-0.00021,2,29
6188,5e-05,-3e-05,0,-6e-05,-1e-05,-2e-05,-2e-05,3e-05,2,29
6189,0.0001,3e-05,1e-05,-2e-05,3e-05,5e-05,7e-05,0.00022,2,29
6190,0.0001,3e-05,1e-05,-2e-05,3e-05,5e-05,7e-05,0.00022,2,29
6191,0.0001,3e-05,1e-05,-2e-05,3e-05,5e-05,7e-05,0.00022,2,29
6192,0.0001,3e-05,1e-05,-2e-05,3e-05,5e-05,7e-05,0.00022,2,29
6193,0.0001,3e-05,1e-05,-2e-05,3e-05,5e-05,7e-05,0.00022,2,29
6194,0.0001,3e-05,1e-05,-2e-05,3e-05,5e-05,7e-05,0.00022,2,29
6195,0.0001,3e-05,1e-05,-2e-05,3e-05,5e-05,7e-05,0.00022,2,29
6196,0.0001,3e-05,1e-05,-2e-05,3e-05,5e-05,7e-05,0.00022,2,29
6197,0.0001,3e-05,1e-05,-2e-05,3e-05,5e-05,7e-05,0.00022,2,29
6198,0.0001,3e-05,1e-05,-2e-05,3e-05,5e-05,7e-05,0.00022,2,29
6199,0.0001,3e-05,1e-05,-2e-05,3e-05,5e-05,7e-05,0.00022,2,29
6200,0.0001,3e-05,1e-05,-2e-05,3e-05,5e-05,7e-05,0.00022,2,29
6201,-2e-05,-2e-05,-1e-05,-7e-05,-0.00014,-0.00018,-6e-05,-1e-05,2,29
6202,-2e-05,-2e-05,-1e-05,-7e-05,-0.00014,-0.00018,-6e-05,-1e-05,2,29
6203,-2e-05,-2e-05,-1e-05,-7e-05,-0.00014,-0.00018,-6e-05,-1e-05,2,29
6204,-2e-05,-2e-05,-1e-05,-7e-05,-0.00014,-0.00018,-6e-05,-1e-05,2,29
6205,-2e-05,-2e-05,-1e-05,-7e-05,-0.00014,-0.00018,-6e-05,-1e-05,2,29
6206,-2e-05,-2e-05,-1e-05,-7e-05,-0.00014,-0.00018,-6e-05,-1e-05,2,29
6207,-2e-05,-2e-05,-1e-05,-7e-05,-0.00014,-0.00018,-6e-05,-1e-05,2,29
6208,-2e-05,-2e-05,-1e-05,-7e-05,-0.00014,-0.00018,-6e-05,-1e-05,2,29
6209,-2e-05,-2e-05,-1e-05,-7e-05,-0.00014,-0.00018,-6e-05,-1e-05,2,29
6210,2e-05,-1e-05,-3e-05,-2e-05,9e-05,-7e-05,3e-05,-4e-05,2,29
6211,2e-05,-1e-05,-3e-05,-2e-05,9e-05,-7e-05,3e-05,-4e-05,2,29
6212,2e-05,-1e-05,-3e-05,-2e-05,9e-05,-7e-05,3e-05,-4e-05,2,29
6213,2e-05,-1e-05,-3e-05,-2e-05,9e-05,-7e-05,3e-05,-4e-05,2,29
6214,2e-05,-1e-05,-3e-05,-2e-05,9e-05,-7e-05,3e-05,-4e-05,2,29
6215,2e-05,-1e-05,-3e-05,-2e-05,9e-05,-7e-05,3e-05,-4e-05,2,29
6216,2e-05,-1e-05,-3e-05,-2e-05,9e-05,-7e-05,3e-05,-4e-05,2,29
6217,2e-05,-1e-05,-3e-05,-2e-05,9e-05,-7e-05,3e-05,-4e-05,2,29
6218,2e-05,-1e-05,-3e-05,-2e-05,9e-05,-7e-05,3e-05,-4e-05,2,29
6219,2e-05,-1e-05,-3e-05,-2e-05,9e-05,-7e-05,3e-05,-4e-05,2,29
6220,2e-05,-1e-05,-3e-05,-2e-05,9e-05,-7e-05,3e-05,-4e-05,2,29
6221,2e-05,-1e-05,-3e-05,-2e-05,9e-05,-7e-05,3e-05,-4e-05,2,29
6222,2e-05,-1e-05,-3e-05,-2e-05,9e-05,-7e-05,3e-05,-4e-05,2,29
6223,2e-05,-1e-05,-3e-05,-2e-05,9e-05,-7e-05,3e-05,-4e-05,2,29
6224,-3e-05,2e-05,2e-05,-1e-05,-3e-05,7e-05,1e-05,1e-05,2,29
6225,0,0,3e-05,4e-05,-5e-05,8e-05,1e-05,-8e-05,2,29
6226,-5e-05,-3e-05,-5e-05,-0.00018,0.00011,3e-05,4e-05,-3e-05,2,29
6227,-5e-05,-3e-05,-5e-05,-0.00018,0.00011,3e-05,4e-05,-3e-05,2,29
6228,-5e-05,-3e-05,-5e-05,-0.00018,0.00011,3e-05,4e-05,-3e-05,2,29
6229,-5e-05,-3e-05,-5e-05,-0.00018,0.00011,3e-05,4e-05,-3e-05,2,29
6230,-5e-05,-3e-05,-5e-05,-0.00018,0.00011,3e-05,4e-05,-3e-05,2,29
6231,-5e-05,-3e-05,-5e-05,-0.00018,0.00011,3e-05,4e-05,-3e-05,2,29
6232,-5e-05,-3e-05,-5e-05,-0.00018,0.00011,3e-05,4e-05,-3e-05,2,29
6233,-5e-05,-3e-05,-5e-05,-0.00018,0.00011,3e-05,4e-05,-3e-05,2,29
6234,-5e-05,-3e-05,-5e-05,-0.00018,0.00011,3e-05,4e-05,-3e-05,2,29
6235,-5e-05,-3e-05,-5e-05,-0.00018,0.00011,3e-05,4e-05,-3e-05,2,29
6236,-5e-05,-3e-05,-5e-05,-0.00018,0.00011,3e-05,4e-05,-3e-05,2,29
6238,-5e-05,-3e-05,-5e-05,-0.00018,0.00011,3e-05,4e-05,-3e-05,2,29
6239,-5e-05,-3e-05,-5e-05,-0.00018,0.00011,3e-05,4e-05,-3e-05,2,29
6240,-5e-05,-3e-05,-5e-05,-0.00018,0.00011,3e-05,4e-05,-3e-05,2,29
6241,-5e-05,-3e-05,-5e-05,-0.00018,0.00011,3e-05,4e-05,-3e-05,2,29
6242,-5e-05,-3e-05,-5e-05,-0.00018,0.00011,3e-05,4e-05,-3e-05,2,29
6243,-5e-05,-3e-05,-5e-05,-0.00018,0.00011,3e-05,4e-05,-3e-05,2,29
6244,-5e-05,-3e-05,-5e-05,-0.00018,0.00011,3e-05,4e-05,-3e-05,2,29
6245,-5e-05,-3e-05,-5e-05,-0.00018,0.00011,3e-05,4e-05,-3e-05,2,29
6246,-5e-05,-3e-05,-5e-05,-0.00018,0.00011,3e-05,4e-05,-3e-05,2,29
6247,3e-05,0,2e-05,0,0.00012,5e-05,0.00022,0,2,29
6248,3e-05,0,2e-05,0,0.00012,5e-05,0.00022,0,2,29
6249,-0.00021,-3e-05,-1e-05,-4e-05,-5e-05,-5e-05,2e-05,-4e-05,2,29
6250,-0.00021,-3e-05,-1e-05,-4e-05,-5e-05,-5e-05,2e-05,-4e-05,2,29
6251,-0.00021,-3e-05,-1e-05,-4e-05,-5e-05,-5e-05,2e-05,-4e-05,2,29
6252,-0.00021,-3e-05,-1e-05,-4e-05,-5e-05,-5e-05,2e-05,-4e-05,2,29
6253,-0.00021,-3e-05,-1e-05,-4e-05,-5e-05,-5e-05,2e-05,-4e-05,2,29
6254,-0.00021,-3e-05,-1e-05,-4e-05,-5e-05,-5e-05,2e-05,-4e-05,2,29
6255,-0.00021,-3e-05,-1e-05,-4e-05,-5e-05,-5e-05,2e-05,-4e-05,2,29
6256,-0.00021,-3e-05,-1e-05,-4e-05,-5e-05,-5e-05,2e-05,-4e-05,2,29
6257,-0.00021,-3e-05,-1e-05,-4e-05,-5e-05,-5e-05,2e-05,-4e-05,2,29
6258,-0.00021,-3e-05,-1e-05,-4e-05,-5e-05,-5e-05,2e-05,-4e-05,2,29
6259,-0.00021,-3e-05,-1e-05,-4e-05,-5e-05,-5e-05,2e-05,-4e-05,2,29
6260,-0.00021,-3e-05,-1e-05,-4e-05,-5e-05,-5e-05,2e-05,-4e-05,2,29
6261,0,4e-05,-2e-05,7e-05,0.00023,0.00016,-5e-05,8e-05,2,29
6262,0,4e-05,-2e-05,7e-05,0.00023,0.00016,-5e-05,8e-05,2,29
6263,0,4e-05,-2e-05,7e-05,0.00023,0.00016,-5e-05,8e-05,2,29
6264,0,4e-05,-2e-05,7e-05,0.00023,0.00016,-5e-05,8e-05,2,29
6265,0,4e-05,-2e-05,7e-05,0.00023,0.00016,-5e-05,8e-05,2,29
6266,0,4e-05,-2e-05,7e-05,0.00023,0.00016,-5e-05,8e-05,2,29
6267,0,4e-05,-2e-05,7e-05,0.00023,0.00016,-5e-05,8e-05,2,29
6268,0,4e-05,-2e-05,7e-05,0.00023,0.00016,-5e-05,8e-05,2,29
6269,0,4e-05,-2e-05,7e-05,0.00023,0.00016,-5e-05,8e-05,2,29
6270,0.00015,1e-05,5e-05,-5e-05,-5e-05,5e-05,3e-05,0.00027,2,29
6271,0.00015,1e-05,5e-05,-5e-05,-5e-05,5e-05,3e-05,0.00027,2,29
6272,0.00015,1e-05,5e-05,-5e-05,-5e-05,5e-05,3e-05,0.00027,2,29
6273,0.00015,1e-05,5e-05,-5e-05,-5e-05,5e-05,3e-05,0.00027,2,29
6274,0.00015,1e-05,5e-05,-5e-05,-5e-05,5e-05,3e-05,0.00027,2,29
6275,0.00015,1e-05,5e-05,-5e-05,-5e-05,5e-05,3e-05,0.00027,2,29
6276,0.00015,1e-05,5e-05,-5e-05,-5e-05,5e-05,3e-05,0.00027,2,29
6277,0.00015,1e-05,5e-05,-5e-05,-5e-05,5e-05,3e-05,0.00027,2,29
6278,0.00015,1e-05,5e-05,-5e-05,-5e-05,5e-05,3e-05,0.00027,2,29
6279,0.00015,1e-05,5e-05,-5e-05,-5e-05,5e-05,3e-05,0.00027,2,29
6280,0.00015,1e-05,5e-05,-5e-05,-5e-05,5e-05,3e-05,0.00027,2,29
6281,0.00015,1e-05,5e-05,-5e-05,-5e-05,5e-05,3e-05,0.00027,2,29
6282,0.00015,1e-05,5e-05,-5e-05,-5e-05,5e-05,3e-05,0.00027,2,29
6283,0.00015,1e-05,5e-05,-5e-05,-5e-05,5e-05,3e-05,0.00027,2,29
6284,-0.0002,-6e-05,-0.00011,-0.0001,-0.0001,-0.00029,-0.00017,-0.00017,2,29
6285,6e-05,0,-1e-05,4e-05,-2e-05,0.0003,0.00013,0.00017,2,29
6286,-6e-05,-4e-05,6e-05,5e-05,-5e-05,0,-8e-05,-6e-05,2,29
6288,-6e-05,-4e-05,6e-05,5e-05,-5e-05,0,-8e-05,-6e-05,2,29
6289,-6e-05,-4e-05,6e-05,5e-05,-5e-05,0,-8e-05,-6e-05,2,29
6290,-6e-05,-4e-05,6e-05,5e-05,-5e-05,0,-8e-05,-6e-05,2,29
6291,-6e-05,-4e-05,6e-05,5e-05,-5e-05,0,-8e-05,-6e-05,2,29
6292,-6e-05,-4e-05,6e-05,5e-05,-5e-05,0,-8e-05,-6e-05,2,29
6293,-6e-05,-4e-05,6e-05,5e-05,-5e-05,0,-8e-05,-6e-05,2,29
6294,-6e-05,-4e-05,6e-05,5e-05,-5e-05,0,-8e-05,-6e-05,2,29
6295,-6e-05,-4e-05,6e-05,5e-05,-5e-05,0,-8e-05,-6e-05,2,29
6296,-6e-05,-4e-05,6e-05,5e-05,-5e-05,0,-8e-05,-6e-05,2,29
6297,-6e-05,-4e-05,6e-05,5e-05,-5e-05,0,-8e-05,-6e-05,2,29
6298,-6e-05,-4e-05,6e-05,5e-05,-5e-05,0,-8e-05,-6e-05,2,29
6299,-6e-05,-4e-05,6e-05,5e-05,-5e-05,0,-8e-05,-6e-05,2,29
6300,-6e-05,-4e-05,6e-05,5e-05,-5e-05,0,-8e-05,-6e-05,2,29
6301,-6e-05,-4e-05,6e-05,5e-05,-5e-05,0,-8e-05,-6e-05,2,29
6302,-6e-05,-4e-05,6e-05,5e-05,-5e-05,0,-8e-05,-6e-05,2,29
6303,-6e-05,-4e-05,6e-05,5e-05,-5e-05,0,-8e-05,-6e-05,2,29
6304,-6e-05,-4e-05,6e-05,5e-05,-5e-05,0,-8e-05,-6e-05,2,29
6305,-6e-05,-4e-05,6e-05,5e-05,-5e-05,0,-8e-05,-6e-05,2,29
6306,-6e-05,-4e-05,6e-05,5e-05,-5e-05,0,-8e-05,-6e-05,2,29
6307,-6e-05,-4e-05,-6e-05,-0.00011,-0.00016,-0.0002,-0.0002,-0.00022,2,29
6308,-6e-05,-4e-05,-6e-05,-0.00011,-0.00016,-0.0002,-0.0002,-0.00022,2,29
6309,-1e-05,-1e-05,-5e-05,-0.0001,-6e-05,-5e-05,-1e-05,-1e-05,2,29
6310,-1e-05,-1e-05,-5e-05,-0.0001,-6e-05,-5e-05,-1e-05,-1e-05,2,29
6311,-1e-05,-1e-05,-5e-05,-0.0001,-6e-05,-5e-05,-1e-05,-1e-05,2,29
6312,-1e-05,-1e-05,-5e-05,-0.0001,-6e-05,-5e-05,-1e-05,-1e-05,2,29
6313,-1e-05,-1e-05,-5e-05,-0.0001,-6e-05,-5e-05,-1e-05,-1e-05,2,29
6314,-1e-05,-1e-05,-5e-05,-0.0001,-6e-05,-5e-05,-1e-05,-1e-05,2,29
6315,-1e-05,-1e-05,-5e-05,-0.0001,-6e-05,-5e-05,-1e-05,-1e-05,2,29
6316,-1e-05,-1e-05,-5e-05,-0.0001,-6e-05,-5e-05,-1e-05,-1e-05,2,29
6317,-1e-05,-1e-05,-5e-05,-0.0001,-6e-05,-5e-05,-1e-05,-1e-05,2,29
6318,-1e-05,-1e-05,-5e-05,-0.0001,-6e-05,-5e-05,-1e-05,-1e-05,2,29
6319,-1e-05,-1e-05,-5e-05,-0.0001,-6e-05,-5e-05,-1e-05,-1e-05,2,29
6320,-1e-05,-1e-05,-5e-05,-0.0001,-6e-05,-5e-05,-1e-05,-1e-05,2,29
6321,-5e-05,-4e-05,2e-05,-3e-05,-6e-05,-4e-05,-3e-05,-5e-05,2,29
6322,-5e-05,-4e-05,2e-05,-3e-05,-6e-05,-4e-05,-3e-05,-5e-05,2,29
6323,-5e-05,-4e-05,2e-05,-3e-05,-6e-05,-4e-05,-3e-05,-5e-05,2,29
6324,-5e-05,-4e-05,2e-05,-3e-05,-6e-05,-4e-05,-3e-05,-5e-05,2,29
6325,-5e-05,-4e-05,2e-05,-3e-05,-6e-05,-4e-05,-3e-05,-5e-05,2,29
6326,-5e-05,-4e-05,2e-05,-3e-05,-6e-05,-4e-05,-3e-05,-5e-05,2,29
6327,-5e-05,-4e-05,2e-05,-3e-05,-6e-05,-4e-05,-3e-05,-5e-05,2,29
6328,-5e-05,-4e-05,2e-05,-3e-05,-6e-05,-4e-05,-3e-05,-5e-05,2,29
6329,-5e-05,-4e-05,2e-05,-3e-05,-6e-05,-4e-05,-3e-05,-5e-05,2,29
6330,-2e-05,2e-05,1e-05,8e-05,-0.00014,-0.00017,-0.00014,-0.00015,2,29
6331,-2e-05,2e-05,1e-05,8e-05,-0.00014,-0.00017,-0.00014,-0.00015,2,29
6332,-2e-05,2e-05,1e-05,8e-05,-0.00014,-0.00017,-0.00014,-0.00015,2,29
6333,-2e-05,2e-05,1e-05,8e-05,-0.00014,-0.00017,-0.00014,-0.00015,2,29
6334,-2e-05,2e-05,1e-05,8e-05,-0.00014,-0.00017,-0.00014,-0.00015,2,29
6335,-2e-05,2e-05,1e-05,8e-05,-0.00014,-0.00017,-0.00014,-0.00015,2,29
6336,-2e-05,2e-05,1e-05,8e-05,-0.00014,-0.00017,-0.00014,-0.00015,2,29
6338,-2e-05,2e-05,1e-05,8e-05,-0.00014,-0.00017,-0.00014,-0.00015,2,29
6339,-2e-05,2e-05,1e-05,8e-05,-0.00014,-0.00017,-0.00014,-0.00015,2,29
6340,-2e-05,2e-05,1e-05,8e-05,-0.00014,-0.00017,-0.00014,-0.00015,2,29
6341,-2e-05,2e-05,1e-05,8e-05,-0.00014,-0.00017,-0.00014,-0.00015,2,29
6342,-2e-05,2e-05,1e-05,8e-05,-0.00014,-0.00017,-0.00014,-0.00015,2,29
6343,-2e-05,2e-05,1e-05,8e-05,-0.00014,-0.00017,-0.00014,-0.00015,2,29
6344,-2e-05,2e-05,1e-05,8e-05,-0.00014,-0.00017,-0.00014,-0.00015,2,29
6345,-9e-05,0,4e-05,-3e-05,6e-05,-0.00014,-6e-05,-0.0001,2,29
6346,-3e-05,-5e-05,-9e-05,0,5e-05,-4e-05,-3e-05,-0.00018,2,29
6347,-3e-05,-5e-05,-9e-05,0,5e-05,-4e-05,-3e-05,-0.00018,2,29
6348,-3e-05,-5e-05,-9e-05,0,5e-05,-4e-05,-3e-05,-0.00018,2,29
6349,-3e-05,-5e-05,-9e-05,0,5e-05,-4e-05,-3e-05,-0.00018,2,29
6350,-3e-05,-5e-05,-9e-05,0,5e-05,-4e-05,-3e-05,-0.00018,2,29
6351,-3e-05,-5e-05,-9e-05,0,5e-05,-4e-05,-3e-05,-0.00018,2,29
6352,-3e-05,-5e-05,-9e-05,0,5e-05,-4e-05,-3e-05,-0.00018,2,29
6353,-3e-05,-5e-05,-9e-05,0,5e-05,-4e-05,-3e-05,-0.00018,2,29
6354,-3e-05,-5e-05,-9e-05,0,5e-05,-4e-05,-3e-05,-0.00018,2,29
6355,-3e-05,-5e-05,-9e-05,0,5e-05,-4e-05,-3e-05,-0.00018,2,29
6356,-3e-05,-5e-05,-9e-05,0,5e-05,-4e-05,-3e-05,-0.00018,2,29
6357,-3e-05,-5e-05,-9e-05,0,5e-05,-4e-05,-3e-05,-0.00018,2,29
6358,-3e-05,-5e-05,-9e-05,0,5e-05,-4e-05,-3e-05,-0.00018,2,29
6359,-3e-05,-5e-05,-9e-05,0,5e-05,-4e-05,-3e-05,-0.00018,2,29
6360,-3e-05,-5e-05,-9e-05,0,5e-05,-4e-05,-3e-05,-0.00018,2,29
6361,-3e-05,-5e-05,-9e-05,0,5e-05,-4e-05,-3e-05,-0.00018,2,29
6362,-3e-05,-5e-05,-9e-05,0,5e-05,-4e-05,-3e-05,-0.00018,2,29
6363,-3e-05,-5e-05,-9e-05,0,5e-05,-4e-05,-3e-05,-0.00018,2,29
6364,-3e-05,-5e-05,-9e-05,0,5e-05,-4e-05,-3e-05,-0.00018,2,29
6365,-3e-05,-5e-05,-9e-05,0,5e-05,-4e-05,-3e-05,-0.00018,2,29
6366,-3e-05,-5e-05,-9e-05,0,5e-05,-4e-05,-3e-05,-0.00018,2,29
6367,-7e-05,1e-05,2e-05,-3e-05,-5e-05,-0.00011,-1e-05,-0.00019,2,29
6368,-2e-05,-4e-05,-7e-05,-6e-05,2e-05,-0.00015,-0.00013,2e-05,2,29
6369,-5e-05,-4e-05,-6e-05,3e-05,-2e-05,6e-05,0.00013,-4e-05,2,29
6370,-5e-05,-4e-05,-6e-05,3e-05,-2e-05,6e-05,0.00013,-4e-05,2,29
6371,-5e-05,-4e-05,-6e-05,3e-05,-2e-05,6e-05,0.00013,-4e-05,2,29
6372,-5e-05,-4e-05,-6e-05,3e-05,-2e-05,6e-05,0.00013,-4e-05,2,29
6373,-5e-05,-4e-05,-6e-05,3e-05,-2e-05,6e-05,0.00013,-4e-05,2,29
6374,-5e-05,-4e-05,-6e-05,3e-05,-2e-05,6e-05,0.00013,-4e-05,2,29
6375,-5e-05,-4e-05,-6e-05,3e-05,-2e-05,6e-05,0.00013,-4e-05,2,29
6376,-5e-05,-4e-05,-6e-05,3e-05,-2e-05,6e-05,0.00013,-4e-05,2,29
6377,-5e-05,-4e-05,-6e-05,3e-05,-2e-05,6e-05,0.00013,-4e-05,2,29
6378,-5e-05,-4e-05,-6e-05,3e-05,-2e-05,6e-05,0.00013,-4e-05,2,29
6379,-5e-05,-4e-05,-6e-05,3e-05,-2e-05,6e-05,0.00013,-4e-05,2,29
6380,-5e-05,-4e-05,-6e-05,3e-05,-2e-05,6e-05,0.00013,-4e-05,2,29
6381,-3e-05,1e-05,0,-0.0001,1e-05,6e-05,6e-05,0.00013,2,29
6382,-3e-05,1e-05,0,-0.0001,1e-05,6e-05,6e-05,0.00013,2,29
6383,-3e-05,1e-05,0,-0.0001,1e-05,6e-05,6e-05,0.00013,2,29
6384,-3e-05,1e-05,0,-0.0001,1e-05,6e-05,6e-05,0.00013,2,29
6385,-3e-05,1e-05,0,-0.0001,1e-05,6e-05,6e-05,0.00013,2,29
6386,-3e-05,1e-05,0,-0.0001,1e-05,6e-05,6e-05,0.00013,2,29
6388,-3e-05,1e-05,0,-0.0001,1e-05,6e-05,6e-05,0.00013,2,29
6389,-3e-05,1e-05,0,-0.0001,1e-05,6e-05,6e-05,0.00013,2,29
6390,4e-05,2e-05,0,-8e-05,3e-05,-2e-05,-8e-05,0,2,29
6391,4e-05,2e-05,0,-8e-05,3e-05,-2e-05,-8e-05,0,2,29
6392,4e-05,2e-05,0,-8e-05,3e-05,-2e-05,-8e-05,0,2,29
6393,4e-05,2e-05,0,-8e-05,3e-05,-2e-05,-8e-05,0,2,29
6394,4e-05,2e-05,0,-8e-05,3e-05,-2e-05,-8e-05,0,2,29
6395,4e-05,2e-05,0,-8e-05,3e-05,-2e-05,-8e-05,0,2,29
6396,4e-05,2e-05,0,-8e-05,3e-05,-2e-05,-8e-05,0,2,29
6397,4e-05,2e-05,0,-8e-05,3e-05,-2e-05,-8e-05,0,2,29
6398,4e-05,2e-05,0,-8e-05,3e-05,-2e-05,-8e-05,0,2,29
6399,4e-05,2e-05,0,-8e-05,3e-05,-2e-05,-8e-05,0,2,29
6400,4e-05,2e-05,0,-8e-05,3e-05,-2e-05,-8e-05,0,2,29
6401,4e-05,2e-05,0,-8e-05,3e-05,-2e-05,-8e-05,0,2,29
6402,4e-05,2e-05,0,-8e-05,3e-05,-2e-05,-8e-05,0,2,29
6403,4e-05,2e-05,0,-8e-05,3e-05,-2e-05,-8e-05,0,2,29
6404,-4e-05,-5e-05,-0.0001,-0.00018,-0.00013,-2e-05,2e-05,5e-05,2,29
6405,-4e-05,-4e-05,1e-05,0.00022,3e-05,4e-05,-2e-05,-9e-05,2,29
6406,0.00017,5e-05,2e-05,8e-05,2e-05,0.00011,3e-05,0.00019,2,29
6407,0.00017,5e-05,2e-05,8e-05,2e-05,0.00011,3e-05,0.00019,2,29
6408,0.00017,5e-05,2e-05,8e-05,2e-05,0.00011,3e-05,0.00019,2,29
6409,0.00017,5e-05,2e-05,8e-05,2e-05,0.00011,3e-05,0.00019,2,29
6410,0.00017,5e-05,2e-05,8e-05,2e-05,0.00011,3e-05,0.00019,2,29
6411,0.00017,5e-05,2e-05,8e-05,2e-05,0.00011,3e-05,0.00019,2,29
6412,0.00017,5e-05,2e-05,8e-05,2e-05,0.00011,3e-05,0.00019,2,29
6413,0.00017,5e-05,2e-05,8e-05,2e-05,0.00011,3e-05,0.00019,2,29
6414,0.00017,5e-05,2e-05,8e-05,2e-05,0.00011,3e-05,0.00019,2,29
6415,0.00017,5e-05,2e-05,8e-05,2e-05,0.00011,3e-05,0.00019,2,29
6416,0.00017,5e-05,2e-05,8e-05,2e-05,0.00011,3e-05,0.00019,2,29
6417,0.00017,5e-05,2e-05,8e-05,2e-05,0.00011,3e-05,0.00019,2,29
6418,0.00017,5e-05,2e-05,8e-05,2e-05,0.00011,3e-05,0.00019,2,29
6419,0.00017,5e-05,2e-05,8e-05,2e-05,0.00011,3e-05,0.00019,2,29
6420,0.00017,5e-05,2e-05,8e-05,2e-05,0.00011,3e-05,0.00019,2,29
6421,0.00017,5e-05,2e-05,8e-05,2e-05,0.00011,3e-05,0.00019,2,29
6422,0.00017,5e-05,2e-05,8e-05,2e-05,0.00011,3e-05,0.00019,2,29
6423,0.00017,5e-05,2e-05,8e-05,2e-05,0.00011,3e-05,0.00019,2,29
6424,0.00017,5e-05,2e-05,8e-05,2e-05,0.00011,3e-05,0.00019,2,29
6425,0.00017,5e-05,2e-05,8e-05,2e-05,0.00011,3e-05,0.00019,2,29
6426,0.00017,5e-05,2e-05,8e-05,2e-05,0.00011,3e-05,0.00019,2,29
6427,0.00017,5e-05,2e-05,8e-05,2e-05,0.00011,3e-05,0.00019,2,29
6428,0.00017,5e-05,2e-05,8e-05,2e-05,0.00011,3e-05,0.00019,2,29
6429,0.00017,5e-05,2e-05,8e-05,2e-05,0.00011,3e-05,0.00019,2,29
6430,0.00017,5e-05,2e-05,8e-05,2e-05,0.00011,3e-05,0.00019,2,29
6431,0.00017,5e-05,2e-05,8e-05,2e-05,0.00011,3e-05,0.00019,2,29
6432,0.00017,5e-05,2e-05,8e-05,2e-05,0.00011,3e-05,0.00019,2,29
6433,0.00017,5e-05,2e-05,8e-05,2e-05,0.00011,3e-05,0.00019,2,29
6434,-9e-05,2e-05,3e-05,-1e-05,0,5e-05,-2e-05,-0.00033,2,29
6435,2e-05,-3e-05,0,-5e-05,-6e-05,-3e-05,-3e-05,9e-05,2,29
6436,-0.00018,-4e-05,-3e-05,3e-05,1e-05,1e-05,-0.0001,2e-05,2,29
6438,-0.00018,-4e-05,-3e-05,3e-05,1e-05,1e-05,-0.0001,2e-05,2,29
6439,-0.00018,-4e-05,-3e-05,3e-05,1e-05,1e-05,-0.0001,2e-05,2,29
6440,-0.00018,-4e-05,-3e-05,3e-05,1e-05,1e-05,-0.0001,2e-05,2,29
6441,-0.00018,-4e-05,-3e-05,3e-05,1e-05,1e-05,-0.0001,2e-05,2,29
6442,-0.00018,-4e-05,-3e-05,3e-05,1e-05,1e-05,-0.0001,2e-05,2,29
6443,-0.00018,-4e-05,-3e-05,3e-05,1e-05,1e-05,-0.0001,2e-05,2,29
6444,-0.00018,-4e-05,-3e-05,3e-05,1e-05,1e-05,-0.0001,2e-05,2,29
6445,-0.00018,-4e-05,-3e-05,3e-05,1e-05,1e-05,-0.0001,2e-05,2,29
6446,-0.00018,-4e-05,-3e-05,3e-05,1e-05,1e-05,-0.0001,2e-05,2,29
6447,-0.00018,-4e-05,-3e-05,3e-05,1e-05,1e-05,-0.0001,2e-05,2,29
6448,-0.00018,-4e-05,-3e-05,3e-05,1e-05,1e-05,-0.0001,2e-05,2,29
6449,-2e-05,0,2e-05,2e-05,4e-05,-0.0002,-5e-05,1e-05,2,29
6450,-3e-05,-1e-05,-3e-05,-2e-05,-6e-05,0.00017,1e-05,6e-05,2,29
6451,0.00014,3e-05,-4e-05,-1e-05,0,2e-05,-3e-05,0.00012,2,29
6452,0.00014,3e-05,-4e-05,-1e-05,0,2e-05,-3e-05,0.00012,2,29
6453,0.00014,3e-05,-4e-05,-1e-05,0,2e-05,-3e-05,0.00012,2,29
6454,0.00014,3e-05,-4e-05,-1e-05,0,2e-05,-3e-05,0.00012,2,29
6455,0.00014,3e-05,-4e-05,-1e-05,0,2e-05,-3e-05,0.00012,2,29
6456,0.00014,3e-05,-4e-05,-1e-05,0,2e-05,-3e-05,0.00012,2,29
6457,0.00014,3e-05,-4e-05,-1e-05,0,2e-05,-3e-05,0.00012,2,29
6458,0.00014,3e-05,-4e-05,-1e-05,0,2e-05,-3e-05,0.00012,2,29
6459,0.00014,3e-05,-4e-05,-1e-05,0,2e-05,-3e-05,0.00012,2,29
6460,0.00014,3e-05,-4e-05,-1e-05,0,2e-05,-3e-05,0.00012,2,29
6461,0.00014,3e-05,-4e-05,-1e-05,0,2e-05,-3e-05,0.00012,2,29
6462,0.00014,3e-05,-4e-05,-1e-05,0,2e-05,-3e-05,0.00012,2,29
6463,0.00014,3e-05,-4e-05,-1e-05,0,2e-05,-3e-05,0.00012,2,29
6464,-1e-05,-5e-05,-6e-05,4e-05,0,-3e-05,-7e-05,-0.0001,2,29
6465,-1e-05,-5e-05,-6e-05,4e-05,0,-3e-05,-7e-05,-0.0001,2,29
6466,-1e-05,-5e-05,-6e-05,4e-05,0,-3e-05,-7e-05,-0.0001,2,29
6467,-1e-05,-5e-05,-6e-05,4e-05,0,-3e-05,-7e-05,-0.0001,2,29
6468,-1e-05,-5e-05,-6e-05,4e-05,0,-3e-05,-7e-05,-0.0001,2,29
6469,-1e-05,-5e-05,-6e-05,4e-05,0,-3e-05,-7e-05,-0.0001,2,29
6470,-1e-05,-5e-05,-6e-05,4e-05,0,-3e-05,-7e-05,-0.0001,2,29
6471,-0.00012,-1e-05,4e-05,-0.00011,-5e-05,1e-05,1e-05,-0.00012,2,29
6472,-0.00012,-1e-05,4e-05,-0.00011,-5e-05,1e-05,1e-05,-0.00012,2,29
6473,-0.00012,-1e-05,4e-05,-0.00011,-5e-05,1e-05,1e-05,-0.00012,2,29
6474,-0.00012,-1e-05,4e-05,-0.00011,-5e-05,1e-05,1e-05,-0.00012,2,29
6475,-0.00012,-1e-05,4e-05,-0.00011,-5e-05,1e-05,1e-05,-0.00012,2,29
6476,-0.00012,-1e-05,4e-05,-0.00011,-5e-05,1e-05,1e-05,-0.00012,2,29
6477,-0.00012,-1e-05,4e-05,-0.00011,-5e-05,1e-05,1e-05,-0.00012,2,29
6478,-0.00012,-1e-05,4e-05,-0.00011,-5e-05,1e-05,1e-05,-0.00012,2,29
6479,-0.00012,-1e-05,4e-05,-0.00011,-5e-05,1e-05,1e-05,-0.00012,2,29
6480,-0.00012,-1e-05,4e-05,-0.00011,-5e-05,1e-05,1e-05,-0.00012,2,29
6481,-0.00012,-1e-05,4e-05,-0.00011,-5e-05,1e-05,1e-05,-0.00012,2,29
6482,-0.00012,-1e-05,4e-05,-0.00011,-5e-05,1e-05,1e-05,-0.00012,2,29
6483,-0.00012,-1e-05,4e-05,-0.00011,-5e-05,1e-05,1e-05,-0.00012,2,29
6484,-0.00012,-1e-05,4e-05,-0.00011,-5e-05,1e-05,1e-05,-0.00012,2,29
6485,-0.00012,-1e-05,4e-05,-0.00011,-5e-05,1e-05,1e-05,-0.00012,2,29
6486,-0.00012,-1e-05,4e-05,-0.00011,-5e-05,1e-05,1e-05,-0.00012,2,29
6489,-2e-05,1e-05,1e-05,2e-05,-8e-05,-9e-05,-7e-05,-0.00013,2,29
6490,-2e-05,1e-05,1e-05,2e-05,-8e-05,-9e-05,-7e-05,-0.00013,2,29
6491,-2e-05,1e-05,1e-05,2e-05,-8e-05,-9e-05,-7e-05,-0.00013,2,29
6492,-2e-05,1e-05,1e-05,2e-05,-8e-05,-9e-05,-7e-05,-0.00013,2,29
6493,-2e-05,1e-05,1e-05,2e-05,-8e-05,-9e-05,-7e-05,-0.00013,2,29
6494,-2e-05,1e-05,1e-05,2e-05,-8e-05,-9e-05,-7e-05,-0.00013,2,29
6495,-2e-05,1e-05,1e-05,2e-05,-8e-05,-9e-05,-7e-05,-0.00013,2,29
6496,-2e-05,1e-05,1e-05,2e-05,-8e-05,-9e-05,-7e-05,-0.00013,2,29
6497,-2e-05,1e-05,1e-05,2e-05,-8e-05,-9e-05,-7e-05,-0.00013,2,29
6498,-2e-05,1e-05,1e-05,2e-05,-8e-05,-9e-05,-7e-05,-0.00013,2,29
6499,-2e-05,1e-05,1e-05,2e-05,-8e-05,-9e-05,-7e-05,-0.00013,2,29
6500,-2e-05,1e-05,1e-05,2e-05,-8e-05,-9e-05,-7e-05,-0.00013,2,29
6501,-2e-05,1e-05,1e-05,2e-05,-8e-05,-9e-05,-7e-05,-0.00013,2,29
6502,-2e-05,1e-05,1e-05,2e-05,-8e-05,-9e-05,-7e-05,-0.00013,2,29
6503,-2e-05,1e-05,1e-05,2e-05,-8e-05,-9e-05,-7e-05,-0.00013,2,29
6504,-2e-05,1e-05,1e-05,2e-05,-8e-05,-9e-05,-7e-05,-0.00013,2,29
6505,-2e-05,1e-05,1e-05,2e-05,-8e-05,-9e-05,-7e-05,-0.00013,2,29
6506,-2e-05,1e-05,1e-05,2e-05,-8e-05,-9e-05,-7e-05,-0.00013,2,29
6507,-2e-05,1e-05,1e-05,2e-05,-8e-05,-9e-05,-7e-05,-0.00013,2,29
6508,-2e-05,1e-05,1e-05,2e-05,-8e-05,-9e-05,-7e-05,-0.00013,2,29
6509,-2e-05,1e-05,1e-05,2e-05,-8e-05,-9e-05,-7e-05,-0.00013,2,29
6510,-5e-05,-2e-05,-5e-05,-1e-05,-6e-05,-8e-05,-5e-05,-0.0001,2,29
6511,-2e-05,2e-05,-2e-05,6e-05,1e-05,-3e-05,-0.00011,-1e-05,2,29
6512,-0.00012,-5e-05,-2e-05,-9e-05,2e-05,0.00025,2e-05,4e-05,2,29
6513,-0.00012,-5e-05,-2e-05,-9e-05,2e-05,0.00025,2e-05,4e-05,2,29
6514,-0.00012,-5e-05,-2e-05,-9e-05,2e-05,0.00025,2e-05,4e-05,2,29
6515,-0.00012,-5e-05,-2e-05,-9e-05,2e-05,0.00025,2e-05,4e-05,2,29
6516,-0.00012,-5e-05,-2e-05,-9e-05,2e-05,0.00025,2e-05,4e-05,2,29
6517,-0.00012,-5e-05,-2e-05,-9e-05,2e-05,0.00025,2e-05,4e-05,2,29
6518,-0.00012,-5e-05,-2e-05,-9e-05,2e-05,0.00025,2e-05,4e-05,2,29
6519,-0.00012,-5e-05,-2e-05,-9e-05,2e-05,0.00025,2e-05,4e-05,2,29
6520,-0.00012,-5e-05,-2e-05,-9e-05,2e-05,0.00025,2e-05,4e-05,2,29
6521,-0.00012,-5e-05,-2e-05,-9e-05,2e-05,0.00025,2e-05,4e-05,2,29
6522,-0.00012,-5e-05,-2e-05,-9e-05,2e-05,0.00025,2e-05,4e-05,2,29
6523,-0.00012,-5e-05,-2e-05,-9e-05,2e-05,0.00025,2e-05,4e-05,2,29
6524,0.00016,2e-05,2e-05,0.0001,-4e-05,-0.00017,1e-05,6e-05,2,29
6525,8e-05,2e-05,1e-05,-6e-05,2e-05,6e-05,-5e-05,9e-05,2,29
6526,-1e-05,-3e-05,-6e-05,6e-05,2e-05,-0.00024,-4e-05,-0.00012,2,29
6527,-1e-05,-3e-05,-6e-05,6e-05,2e-05,-0.00024,-4e-05,-0.00012,2,29
6528,-1e-05,-3e-05,-6e-05,6e-05,2e-05,-0.00024,-4e-05,-0.00012,2,29
6529,-1e-05,-3e-05,-6e-05,6e-05,2e-05,-0.00024,-4e-05,-0.00012,2,29
6530,-1e-05,-3e-05,-6e-05,6e-05,2e-05,-0.00024,-4e-05,-0.00012,2,29
6531,-1e-05,-3e-05,-6e-05,6e-05,2e-05,-0.00024,-4e-05,-0.00012,2,29
6532,-1e-05,-3e-05,-6e-05,6e-05,2e-05,-0.00024,-4e-05,-0.00012,2,29
6533,-1e-05,-3e-05,-6e-05,6e-05,2e-05,-0.00024,-4e-05,-0.00012,2,29
6534,-1e-05,-3e-05,-6e-05,6e-05,2e-05,-0.00024,-4e-05,-0.00012,2,29
6535,-1e-05,-3e-05,-6e-05,6e-05,2e-05,-0.00024,-4e-05,-0.00012,2,29
6536,-1e-05,-3e-05,-6e-05,6e-05,2e-05,-0.00024,-4e-05,-0.00012,2,29
6538,-1e-05,-3e-05,-6e-05,6e-05,2e-05,-0.00024,-4e-05,-0.00012,2,29
6539,-1e-05,-3e-05,-6e-05,6e-05,2e-05,-0.00024,-4e-05,-0.00012,2,29
6540,-1e-05,-3e-05,-6e-05,6e-05,2e-05,-0.00024,-4e-05,-0.00012,2,29
6541,-1e-05,-3e-05,-6e-05,6e-05,2e-05,-0.00024,-4e-05,-0.00012,2,29
6542,-1e-05,-3e-05,-6e-05,6e-05,2e-05,-0.00024,-4e-05,-0.00012,2,29
6543,-1e-05,-3e-05,-6e-05,6e-05,2e-05,-0.00024,-4e-05,-0.00012,2,29
6544,-1e-05,-3e-05,-6e-05,6e-05,2e-05,-0.00024,-4e-05,-0.00012,2,29
6545,-1e-05,-3e-05,-6e-05,6e-05,2e-05,-0.00024,-4e-05,-0.00012,2,29
6546,-1e-05,-3e-05,-6e-05,6e-05,2e-05,-0.00024,-4e-05,-0.00012,2,29
6547,8e-05,-1e-05,-2e-05,6e-05,-5e-05,6e-05,-4e-05,8e-05,2,29
6548,8e-05,-1e-05,-2e-05,6e-05,-5e-05,6e-05,-4e-05,8e-05,2,29
6549,-0.0001,-4e-05,1e-05,2e-05,0.00027,-2e-05,-2e-05,-0.00014,2,29
6550,-0.0001,-4e-05,1e-05,2e-05,0.00027,-2e-05,-2e-05,-0.00014,2,29
6551,-0.0001,-4e-05,1e-05,2e-05,0.00027,-2e-05,-2e-05,-0.00014,2,29
6552,-0.0001,-4e-05,1e-05,2e-05,0.00027,-2e-05,-2e-05,-0.00014,2,29
6553,-0.0001,-4e-05,1e-05,2e-05,0.00027,-2e-05,-2e-05,-0.00014,2,29
6554,-0.0001,-4e-05,1e-05,2e-05,0.00027,-2e-05,-2e-05,-0.00014,2,29
6555,-0.0001,-4e-05,1e-05,2e-05,0.00027,-2e-05,-2e-05,-0.00014,2,29
6556,-0.0001,-4e-05,1e-05,2e-05,0.00027,-2e-05,-2e-05,-0.00014,2,29
6557,-0.0001,-4e-05,1e-05,2e-05,0.00027,-2e-05,-2e-05,-0.00014,2,29
6558,-0.0001,-4e-05,1e-05,2e-05,0.00027,-2e-05,-2e-05,-0.00014,2,29
6559,-0.0001,-4e-05,1e-05,2e-05,0.00027,-2e-05,-2e-05,-0.00014,2,29
6560,-0.0001,-4e-05,1e-05,2e-05,0.00027,-2e-05,-2e-05,-0.00014,2,29
6561,-0.0001,-4e-05,1e-05,2e-05,0.00027,-2e-05,-2e-05,-0.00014,2,29
6562,-0.0001,-4e-05,1e-05,2e-05,0.00027,-2e-05,-2e-05,-0.00014,2,29
6563,-0.0001,-4e-05,1e-05,2e-05,0.00027,-2e-05,-2e-05,-0.00014,2,29
6564,-0.0001,-4e-05,1e-05,2e-05,0.00027,-2e-05,-2e-05,-0.00014,2,29
6565,-0.0001,-4e-05,1e-05,2e-05,0.00027,-2e-05,-2e-05,-0.00014,2,29
6566,-0.0001,-4e-05,1e-05,2e-05,0.00027,-2e-05,-2e-05,-0.00014,2,29
6567,-0.0001,-4e-05,1e-05,2e-05,0.00027,-2e-05,-2e-05,-0.00014,2,29
6568,-0.0001,-4e-05,1e-05,2e-05,0.00027,-2e-05,-2e-05,-0.00014,2,29
6569,-0.0001,-4e-05,1e-05,2e-05,0.00027,-2e-05,-2e-05,-0.00014,2,29
6570,-2e-05,0,2e-05,-1e-05,-6e-05,-0.00019,1e-05,-2e-05,2,29
6571,-2e-05,0,2e-05,-1e-05,-6e-05,-0.00019,1e-05,-2e-05,2,29
6572,3e-05,-5e-05,-4e-05,-6e-05,-0.00011,0.00019,0.0002,0.0002,2,29
6573,3e-05,-5e-05,-4e-05,-6e-05,-0.00011,0.00019,0.0002,0.0002,2,29
6574,3e-05,-5e-05,-4e-05,-6e-05,-0.00011,0.00019,0.0002,0.0002,2,29
6575,3e-05,-5e-05,-4e-05,-6e-05,-0.00011,0.00019,0.0002,0.0002,2,29
6576,3e-05,-5e-05,-4e-05,-6e-05,-0.00011,0.00019,0.0002,0.0002,2,29
6577,3e-05,-5e-05,-4e-05,-6e-05,-0.00011,0.00019,0.0002,0.0002,2,29
6578,3e-05,-5e-05,-4e-05,-6e-05,-0.00011,0.00019,0.0002,0.0002,2,29
6579,3e-05,-5e-05,-4e-05,-6e-05,-0.00011,0.00019,0.0002,0.0002,2,29
6580,3e-05,-5e-05,-4e-05,-6e-05,-0.00011,0.00019,0.0002,0.0002,2,29
6581,3e-05,-5e-05,-4e-05,-6e-05,-0.00011,0.00019,0.0002,0.0002,2,29
6582,3e-05,-5e-05,-4e-05,-6e-05,-0.00011,0.00019,0.0002,0.0002,2,29
6583,3e-05,-5e-05,-4e-05,-6e-05,-0.00011,0.00019,0.0002,0.0002,2,29
6584,-4e-05,1e-05,2e-05,3e-05,-3e-05,-0.00021,-5e-05,-8e-05,2,29
6585,-4e-05,1e-05,2e-05,3e-05,-3e-05,-0.00021,-5e-05,-8e-05,2,29
6586,-4e-05,1e-05,2e-05,3e-05,-3e-05,-0.00021,-5e-05,-8e-05,2,29
6588,-4e-05,1e-05,2e-05,3e-05,-3e-05,-0.00021,-5e-05,-8e-05,2,29
6589,-4e-05,1e-05,2e-05,3e-05,-3e-05,-0.00021,-5e-05,-8e-05,2,29
6590,-4e-05,1e-05,2e-05,3e-05,-3e-05,-0.00021,-5e-05,-8e-05,2,29
6591,4e-05,1e-05,6e-05,-3e-05,1e-05,-8e-05,-2e-05,0.00013,2,29
6592,4e-05,1e-05,6e-05,-3e-05,1e-05,-8e-05,-2e-05,0.00013,2,29
6593,4e-05,1e-05,6e-05,-3e-05,1e-05,-8e-05,-2e-05,0.00013,2,29
6594,4e-05,1e-05,6e-05,-3e-05,1e-05,-8e-05,-2e-05,0.00013,2,29
6595,4e-05,1e-05,6e-05,-3e-05,1e-05,-8e-05,-2e-05,0.00013,2,29
6596,4e-05,1e-05,6e-05,-3e-05,1e-05,-8e-05,-2e-05,0.00013,2,29
6597,4e-05,1e-05,6e-05,-3e-05,1e-05,-8e-05,-2e-05,0.00013,2,29
6598,4e-05,1e-05,6e-05,-3e-05,1e-05,-8e-05,-2e-05,0.00013,2,29
6599,4e-05,1e-05,6e-05,-3e-05,1e-05,-8e-05,-2e-05,0.00013,2,29
6600,4e-05,1e-05,6e-05,-3e-05,1e-05,-8e-05,-2e-05,0.00013,2,29
6601,4e-05,1e-05,6e-05,-3e-05,1e-05,-8e-05,-2e-05,0.00013,2,29
6602,4e-05,1e-05,6e-05,-3e-05,1e-05,-8e-05,-2e-05,0.00013,2,29
6603,4e-05,1e-05,6e-05,-3e-05,1e-05,-8e-05,-2e-05,0.00013,2,29
6604,4e-05,1e-05,6e-05,-3e-05,1e-05,-8e-05,-2e-05,0.00013,2,29
6605,4e-05,1e-05,6e-05,-3e-05,1e-05,-8e-05,-2e-05,0.00013,2,29
6606,4e-05,1e-05,6e-05,-3e-05,1e-05,-8e-05,-2e-05,0.00013,2,29
6607,-2e-05,0,3e-05,-8e-05,-9e-05,-8e-05,1e-05,-8e-05,2,29
6608,-2e-05,0,3e-05,-8e-05,-9e-05,-8e-05,1e-05,-8e-05,2,29
6609,4e-05,0,-3e-05,-3e-05,-4e-05,2e-05,-1e-05,-3e-05,2,29
6610,4e-05,0,-3e-05,-3e-05,-4e-05,2e-05,-1e-05,-3e-05,2,29
6611,4e-05,0,-3e-05,-3e-05,-4e-05,2e-05,-1e-05,-3e-05,2,29
6612,4e-05,0,-3e-05,-3e-05,-4e-05,2e-05,-1e-05,-3e-05,2,29
6613,4e-05,0,-3e-05,-3e-05,-4e-05,2e-05,-1e-05,-3e-05,2,29
6614,4e-05,0,-3e-05,-3e-05,-4e-05,2e-05,-1e-05,-3e-05,2,29
6615,4e-05,0,-3e-05,-3e-05,-4e-05,2e-05,-1e-05,-3e-05,2,29
6616,4e-05,0,-3e-05,-3e-05,-4e-05,2e-05,-1e-05,-3e-05,2,29
6617,4e-05,0,-3e-05,-3e-05,-4e-05,2e-05,-1e-05,-3e-05,2,29
6618,4e-05,0,-3e-05,-3e-05,-4e-05,2e-05,-1e-05,-3e-05,2,29
6619,4e-05,0,-3e-05,-3e-05,-4e-05,2e-05,-1e-05,-3e-05,2,29
6620,4e-05,0,-3e-05,-3e-05,-4e-05,2e-05,-1e-05,-3e-05,2,29
6621,4e-05,0,-3e-05,-3e-05,-4e-05,2e-05,-1e-05,-3e-05,2,29
6622,4e-05,0,-3e-05,-3e-05,-4e-05,2e-05,-1e-05,-3e-05,2,29
6623,4e-05,0,-3e-05,-3e-05,-4e-05,2e-05,-1e-05,-3e-05,2,29
6624,4e-05,0,-3e-05,-3e-05,-4e-05,2e-05,-1e-05,-3e-05,2,29
6625,4e-05,0,-3e-05,-3e-05,-4e-05,2e-05,-1e-05,-3e-05,2,29
6626,4e-05,0,-3e-05,-3e-05,-4e-05,2e-05,-1e-05,-3e-05,2,29
6627,4e-05,0,-3e-05,-3e-05,-4e-05,2e-05,-1e-05,-3e-05,2,29
6628,4e-05,0,-3e-05,-3e-05,-4e-05,2e-05,-1e-05,-3e-05,2,29
6629,1e-05,0,2e-05,-6e-05,1e-05,0.00012,4e-05,0.00012,2,29
6630,-9e-05,1e-05,0,5e-05,1e-05,-9e-05,-7e-05,-0.00017,2,29
6631,4e-05,0,-6e-05,0,-0.00015,-0.0001,-6e-05,0,2,29
6632,4e-05,0,-6e-05,0,-0.00015,-0.0001,-6e-05,0,2,29
6633,4e-05,0,-6e-05,0,-0.00015,-0.0001,-6e-05,0,2,29
6634,4e-05,0,-6e-05,0,-0.00015,-0.0001,-6e-05,0,2,29
6635,4e-05,0,-6e-05,0,-0.00015,-0.0001,-6e-05,0,2,29
6636,4e-05,0,-6e-05,0,-0.00015,-0.0001,-6e-05,0,2,29
6638,4e-05,0,-6e-05,0,-0.00015,-0.0001,-6e-05,0,2,29
6639,4e-05,0,-6e-05,0,-0.00015,-0.0001,-6e-05,0,2,29
6640,4e-05,0,-6e-05,0,-0.00015,-0.0001,-6e-05,0,2,29
6641,4e-05,0,-6e-05,0,-0.00015,-0.0001,-6e-05,0,2,29
6642,4e-05,0,-6e-05,0,-0.00015,-0.0001,-6e-05,0,2,29
6643,4e-05,0,-6e-05,0,-0.00015,-0.0001,-6e-05,0,2,29
6644,-9e-05,-5e-05,-2e-05,-4e-05,0,0,-5e-05,-0.00031,2,29
6645,-9e-05,-5e-05,-2e-05,-4e-05,0,0,-5e-05,-0.00031,2,29
6646,-9e-05,-5e-05,-2e-05,-4e-05,0,0,-5e-05,-0.00031,2,29
6647,-9e-05,-5e-05,-2e-05,-4e-05,0,0,-5e-05,-0.00031,2,29
6648,-9e-05,-5e-05,-2e-05,-4e-05,0,0,-5e-05,-0.00031,2,29
6649,-9e-05,-5e-05,-2e-05,-4e-05,0,0,-5e-05,-0.00031,2,29
6650,-9e-05,-5e-05,-2e-05,-4e-05,0,0,-5e-05,-0.00031,2,29
6651,-4e-05,-4e-05,-1e-05,0,-3e-05,-1e-05,-1e-05,-0.0001,2,29
6652,-4e-05,-4e-05,-1e-05,0,-3e-05,-1e-05,-1e-05,-0.0001,2,29
6653,-4e-05,-4e-05,-1e-05,0,-3e-05,-1e-05,-1e-05,-0.0001,2,29
6654,-4e-05,-4e-05,-1e-05,0,-3e-05,-1e-05,-1e-05,-0.0001,2,29
6655,-4e-05,-4e-05,-1e-05,0,-3e-05,-1e-05,-1e-05,-0.0001,2,29
6656,-4e-05,-4e-05,-1e-05,0,-3e-05,-1e-05,-1e-05,-0.0001,2,29
6657,-4e-05,-4e-05,-1e-05,0,-3e-05,-1e-05,-1e-05,-0.0001,2,29
6658,-4e-05,-4e-05,-1e-05,0,-3e-05,-1e-05,-1e-05,-0.0001,2,29
6659,-4e-05,-4e-05,-1e-05,0,-3e-05,-1e-05,-1e-05,-0.0001,2,29
6660,-4e-05,-4e-05,-1e-05,0,-3e-05,-1e-05,-1e-05,-0.0001,2,29
6661,-4e-05,-4e-05,-1e-05,0,-3e-05,-1e-05,-1e-05,-0.0001,2,29
6662,-4e-05,-4e-05,-1e-05,0,-3e-05,-1e-05,-1e-05,-0.0001,2,29
6663,-4e-05,-4e-05,-1e-05,0,-3e-05,-1e-05,-1e-05,-0.0001,2,29
6664,-4e-05,-4e-05,-1e-05,0,-3e-05,-1e-05,-1e-05,-0.0001,2,29
6665,-4e-05,-4e-05,-1e-05,0,-3e-05,-1e-05,-1e-05,-0.0001,2,29
6666,-4e-05,-4e-05,-1e-05,0,-3e-05,-1e-05,-1e-05,-0.0001,2,29
6667,2e-05,-5e-05,-4e-05,-6e-05,-1e-05,-8e-05,0,3e-05,2,29
6668,2e-05,2e-05,0,-5e-05,6e-05,3e-05,4e-05,7e-05,2,29
6669,6e-05,-1e-05,-4e-05,-2e-05,-6e-05,-0.0001,-2e-05,6e-05,2,29
6670,6e-05,-1e-05,-4e-05,-2e-05,-6e-05,-0.0001,-2e-05,6e-05,2,29
6671,6e-05,-1e-05,-4e-05,-2e-05,-6e-05,-0.0001,-2e-05,6e-05,2,29
6672,6e-05,-1e-05,-4e-05,-2e-05,-6e-05,-0.0001,-2e-05,6e-05,2,29
6673,6e-05,-1e-05,-4e-05,-2e-05,-6e-05,-0.0001,-2e-05,6e-05,2,29
6674,6e-05,-1e-05,-4e-05,-2e-05,-6e-05,-0.0001,-2e-05,6e-05,2,29
6675,6e-05,-1e-05,-4e-05,-2e-05,-6e-05,-0.0001,-2e-05,6e-05,2,29
6676,6e-05,-1e-05,-4e-05,-2e-05,-6e-05,-0.0001,-2e-05,6e-05,2,29
6677,6e-05,-1e-05,-4e-05,-2e-05,-6e-05,-0.0001,-2e-05,6e-05,2,29
6678,6e-05,-1e-05,-4e-05,-2e-05,-6e-05,-0.0001,-2e-05,6e-05,2,29
6679,6e-05,-1e-05,-4e-05,-2e-05,-6e-05,-0.0001,-2e-05,6e-05,2,29
6680,6e-05,-1e-05,-4e-05,-2e-05,-6e-05,-0.0001,-2e-05,6e-05,2,29
6681,6e-05,-1e-05,-4e-05,-2e-05,-6e-05,-0.0001,-2e-05,6e-05,2,29
6682,6e-05,-1e-05,-4e-05,-2e-05,-6e-05,-0.0001,-2e-05,6e-05,2,29
6683,6e-05,-1e-05,-4e-05,-2e-05,-6e-05,-0.0001,-2e-05,6e-05,2,29
6684,6e-05,-1e-05,-4e-05,-2e-05,-6e-05,-0.0001,-2e-05,6e-05,2,29
6685,6e-05,-1e-05,-4e-05,-2e-05,-6e-05,-0.0001,-2e-05,6e-05,2,29
6686,6e-05,-1e-05,-4e-05,-2e-05,-6e-05,-0.0001,-2e-05,6e-05,2,29
6688,6e-05,-1e-05,-4e-05,-2e-05,-6e-05,-0.0001,-2e-05,6e-05,2,29
6689,6e-05,-1e-05,-4e-05,-2e-05,-6e-05,-0.0001,-2e-05,6e-05,2,29
6690,3e-05,1e-05,4e-05,3e-05,2e-05,0.00016,2e-05,5e-05,2,29
6691,3e-05,1e-05,4e-05,3e-05,2e-05,0.00016,2e-05,5e-05,2,29
6692,-8e-05,3e-05,1e-05,0,4e-05,9e-05,1e-05,4e-05,2,29
6693,-8e-05,3e-05,1e-05,0,4e-05,9e-05,1e-05,4e-05,2,29
6694,-8e-05,3e-05,1e-05,0,4e-05,9e-05,1e-05,4e-05,2,29
6695,-8e-05,3e-05,1e-05,0,4e-05,9e-05,1e-05,4e-05,2,29
6696,-8e-05,3e-05,1e-05,0,4e-05,9e-05,1e-05,4e-05,2,29
6697,-8e-05,3e-05,1e-05,0,4e-05,9e-05,1e-05,4e-05,2,29
6698,-8e-05,3e-05,1e-05,0,4e-05,9e-05,1e-05,4e-05,2,29
6699,-8e-05,3e-05,1e-05,0,4e-05,9e-05,1e-05,4e-05,2,29
6700,-8e-05,3e-05,1e-05,0,4e-05,9e-05,1e-05,4e-05,2,29
6701,-8e-05,3e-05,1e-05,0,4e-05,9e-05,1e-05,4e-05,2,29
6702,-8e-05,3e-05,1e-05,0,4e-05,9e-05,1e-05,4e-05,2,29
6703,-8e-05,3e-05,1e-05,0,4e-05,9e-05,1e-05,4e-05,2,29
6704,-8e-05,3e-05,1e-05,0,4e-05,9e-05,1e-05,4e-05,2,29
6705,-8e-05,3e-05,1e-05,0,4e-05,9e-05,1e-05,4e-05,2,29
6706,-8e-05,3e-05,1e-05,0,4e-05,9e-05,1e-05,4e-05,2,29
6707,-8e-05,3e-05,1e-05,0,4e-05,9e-05,1e-05,4e-05,2,29
6708,-8e-05,3e-05,1e-05,0,4e-05,9e-05,1e-05,4e-05,2,29
6709,-8e-05,3e-05,1e-05,0,4e-05,9e-05,1e-05,4e-05,2,29
6710,-8e-05,3e-05,1e-05,0,4e-05,9e-05,1e-05,4e-05,2,29
6711,-8e-05,3e-05,1e-05,0,4e-05,9e-05,1e-05,4e-05,2,29
6712,0.00012,-1e-05,-4e-05,4e-05,5e-05,1e-05,5e-05,0.00017,2,29
6713,0.00012,-1e-05,-4e-05,4e-05,5e-05,1e-05,5e-05,0.00017,2,29
6714,-3e-05,3e-05,3e-05,0.00012,0,-5e-05,-0.00011,-0.00015,2,29
6715,-3e-05,3e-05,3e-05,0.00012,0,-5e-05,-0.00011,-0.00015,2,29
6716,-3e-05,3e-05,3e-05,0.00012,0,-5e-05,-0.00011,-0.00015,2,29
6717,-3e-05,3e-05,3e-05,0.00012,0,-5e-05,-0.00011,-0.00015,2,29
6718,-3e-05,3e-05,3e-05,0.00012,0,-5e-05,-0.00011,-0.00015,2,29
6719,-3e-05,3e-05,3e-05,0.00012,0,-5e-05,-0.00011,-0.00015,2,29
6720,-3e-05,3e-05,3e-05,0.00012,0,-5e-05,-0.00011,-0.00015,2,29
6721,-3e-05,3e-05,3e-05,0.00012,0,-5e-05,-0.00011,-0.00015,2,29
6722,-3e-05,3e-05,3e-05,0.00012,0,-5e-05,-0.00011,-0.00015,2,29
6723,-3e-05,3e-05,3e-05,0.00012,0,-5e-05,-0.00011,-0.00015,2,29
6724,-3e-05,3e-05,3e-05,0.00012,0,-5e-05,-0.00011,-0.00015,2,29
6725,-3e-05,3e-05,3e-05,0.00012,0,-5e-05,-0.00011,-0.00015,2,29
6726,-3e-05,3e-05,3e-05,0.00012,0,-5e-05,-0.00011,-0.00015,2,29
6727,-0.00017,-6e-05,-5e-05,-0.00013,-1e-05,-0.00014,-0.00018,-0.00028,2,29
6728,-0.00017,-6e-05,-5e-05,-0.00013,-1e-05,-0.00014,-0.00018,-0.00028,2,29
6729,8e-05,-2e-05,-5e-05,-2e-05,-8e-05,-2e-05,-1e-05,0.0001,2,29
6730,8e-05,-2e-05,-5e-05,-2e-05,-8e-05,-2e-05,-1e-05,0.0001,2,29
6731,8e-05,-2e-05,-5e-05,-2e-05,-8e-05,-2e-05,-1e-05,0.0001,2,29
6732,8e-05,-2e-05,-5e-05,-2e-05,-8e-05,-2e-05,-1e-05,0.0001,2,29
6733,8e-05,-2e-05,-5e-05,-2e-05,-8e-05,-2e-05,-1e-05,0.0001,2,29
6734,8e-05,-2e-05,-5e-05,-2e-05,-8e-05,-2e-05,-1e-05,0.0001,2,29
6735,8e-05,-2e-05,-5e-05,-2e-05,-8e-05,-2e-05,-1e-05,0.0001,2,29
6736,8e-05,-2e-05,-5e-05,-2e-05,-8e-05,-2e-05,-1e-05,0.0001,2,29
6738,8e-05,-2e-05,-5e-05,-2e-05,-8e-05,-2e-05,-1e-05,0.0001,2,29
6739,8e-05,-2e-05,-5e-05,-2e-05,-8e-05,-2e-05,-1e-05,0.0001,2,29
6740,8e-05,-2e-05,-5e-05,-2e-05,-8e-05,-2e-05,-1e-05,0.0001,2,29
6741,8e-05,-2e-05,-5e-05,-2e-05,-8e-05,-2e-05,-1e-05,0.0001,2,29
6742,8e-05,-2e-05,-5e-05,-2e-05,-8e-05,-2e-05,-1e-05,0.0001,2,29
6743,8e-05,-2e-05,-5e-05,-2e-05,-8e-05,-2e-05,-1e-05,0.0001,2,29
6744,8e-05,-2e-05,-5e-05,-2e-05,-8e-05,-2e-05,-1e-05,0.0001,2,29
6745,8e-05,-2e-05,-5e-05,-2e-05,-8e-05,-2e-05,-1e-05,0.0001,2,29
6746,8e-05,-2e-05,-5e-05,-2e-05,-8e-05,-2e-05,-1e-05,0.0001,2,29
6747,8e-05,-2e-05,-5e-05,-2e-05,-8e-05,-2e-05,-1e-05,0.0001,2,29
6748,8e-05,-2e-05,-5e-05,-2e-05,-8e-05,-2e-05,-1e-05,0.0001,2,29
6749,8e-05,-2e-05,-5e-05,-2e-05,-8e-05,-2e-05,-1e-05,0.0001,2,29
6750,8e-05,-2e-05,-5e-05,-2e-05,-8e-05,-2e-05,-1e-05,0.0001,2,29
6751,8e-05,-2e-05,-5e-05,-2e-05,-8e-05,-2e-05,-1e-05,0.0001,2,29
6752,8e-05,-2e-05,-5e-05,-2e-05,-8e-05,-2e-05,-1e-05,0.0001,2,29
6753,8e-05,-2e-05,-5e-05,-2e-05,-8e-05,-2e-05,-1e-05,0.0001,2,29
6754,8e-05,-2e-05,-5e-05,-2e-05,-8e-05,-2e-05,-1e-05,0.0001,2,29
6755,8e-05,-2e-05,-5e-05,-2e-05,-8e-05,-2e-05,-1e-05,0.0001,2,29
6756,8e-05,-2e-05,-5e-05,-2e-05,-8e-05,-2e-05,-1e-05,0.0001,2,29
6757,1e-05,3e-05,2e-05,5e-05,4e-05,0,-2e-05,0.00011,2,29
6758,4e-05,4e-05,5e-05,-2e-05,0,0.00013,2e-05,2e-05,2,29
6759,-0.00011,-6e-05,0,-5e-05,-2e-05,-0.00013,1e-05,0,2,29
6760,-0.00011,-6e-05,0,-5e-05,-2e-05,-0.00013,1e-05,0,2,29
6761,-0.00011,-6e-05,0,-5e-05,-2e-05,-0.00013,1e-05,0,2,29
6762,-0.00011,-6e-05,0,-5e-05,-2e-05,-0.00013,1e-05,0,2,29
6763,-0.00011,-6e-05,0,-5e-05,-2e-05,-0.00013,1e-05,0,2,29
6764,-2e-05,-4e-05,2e-05,-5e-05,-9e-05,-1e-05,-2e-05,0,2,29
6765,-2e-05,-4e-05,2e-05,-5e-05,-9e-05,-1e-05,-2e-05,0,2,29
6766,-2e-05,-4e-05,2e-05,-5e-05,-9e-05,-1e-05,-2e-05,0,2,29
6767,-2e-05,-4e-05,2e-05,-5e-05,-9e-05,-1e-05,-2e-05,0,2,29
6768,-2e-05,-4e-05,2e-05,-5e-05,-9e-05,-1e-05,-2e-05,0,2,29
6769,-2e-05,-4e-05,2e-05,-5e-05,-9e-05,-1e-05,-2e-05,0,2,29
6770,-2e-05,-4e-05,2e-05,-5e-05,-9e-05,-1e-05,-2e-05,0,2,29
6771,-3e-05,2e-05,1e-05,7e-05,0.00014,0,1e-05,-6e-05,2,29
6772,-3e-05,2e-05,1e-05,7e-05,0.00014,0,1e-05,-6e-05,2,29
6773,-3e-05,2e-05,1e-05,7e-05,0.00014,0,1e-05,-6e-05,2,29
6774,-3e-05,2e-05,1e-05,7e-05,0.00014,0,1e-05,-6e-05,2,29
6775,-3e-05,2e-05,1e-05,7e-05,0.00014,0,1e-05,-6e-05,2,29
6776,-3e-05,2e-05,1e-05,7e-05,0.00014,0,1e-05,-6e-05,2,29
6777,-3e-05,2e-05,1e-05,7e-05,0.00014,0,1e-05,-6e-05,2,29
6778,-3e-05,2e-05,1e-05,7e-05,0.00014,0,1e-05,-6e-05,2,29
6779,-3e-05,2e-05,1e-05,7e-05,0.00014,0,1e-05,-6e-05,2,29
6780,-3e-05,2e-05,1e-05,7e-05,0.00014,0,1e-05,-6e-05,2,29
6781,-3e-05,2e-05,1e-05,7e-05,0.00014,0,1e-05,-6e-05,2,29
6782,-3e-05,2e-05,1e-05,7e-05,0.00014,0,1e-05,-6e-05,2,29
6783,-3e-05,2e-05,1e-05,7e-05,0.00014,0,1e-05,-6e-05,2,29
6784,-3e-05,2e-05,1e-05,7e-05,0.00014,0,1e-05,-6e-05,2,29
6785,-3e-05,2e-05,1e-05,7e-05,0.00014,0,1e-05,-6e-05,2,29
6786,-3e-05,2e-05,1e-05,7e-05,0.00014,0,1e-05,-6e-05,2,29
6789,0,-5e-05,-2e-05,-7e-05,-5e-05,6e-05,1e-05,-0.0002,2,29
6790,0,-5e-05,-2e-05,-7e-05,-5e-05,6e-05,1e-05,-0.0002,2,29
6791,0,-5e-05,-2e-05,-7e-05,-5e-05,6e-05,1e-05,-0.0002,2,29
6792,0,-5e-05,-2e-05,-7e-05,-5e-05,6e-05,1e-05,-0.0002,2,29
6793,0,-5e-05,-2e-05,-7e-05,-5e-05,6e-05,1e-05,-0.0002,2,29
6794,0,-5e-05,-2e-05,-7e-05,-5e-05,6e-05,1e-05,-0.0002,2,29
6795,0,-5e-05,-2e-05,-7e-05,-5e-05,6e-05,1e-05,-0.0002,2,29
6796,0,-5e-05,-2e-05,-7e-05,-5e-05,6e-05,1e-05,-0.0002,2,29
6797,0,-5e-05,-2e-05,-7e-05,-5e-05,6e-05,1e-05,-0.0002,2,29
6798,0,-5e-05,-2e-05,-7e-05,-5e-05,6e-05,1e-05,-0.0002,2,29
6799,0,-5e-05,-2e-05,-7e-05,-5e-05,6e-05,1e-05,-0.0002,2,29
6800,0,-5e-05,-2e-05,-7e-05,-5e-05,6e-05,1e-05,-0.0002,2,29
6801,0,-5e-05,-2e-05,-7e-05,-5e-05,6e-05,1e-05,-0.0002,2,29
6802,0,-5e-05,-2e-05,-7e-05,-5e-05,6e-05,1e-05,-0.0002,2,29
6803,0,-5e-05,-2e-05,-7e-05,-5e-05,6e-05,1e-05,-0.0002,2,29
6804,0,-5e-05,-2e-05,-7e-05,-5e-05,6e-05,1e-05,-0.0002,2,29
6805,0,-5e-05,-2e-05,-7e-05,-5e-05,6e-05,1e-05,-0.0002,2,29
6806,0,-5e-05,-2e-05,-7e-05,-5e-05,6e-05,1e-05,-0.0002,2,29
6807,0,-5e-05,-2e-05,-7e-05,-5e-05,6e-05,1e-05,-0.0002,2,29
6808,0,-5e-05,-2e-05,-7e-05,-5e-05,6e-05,1e-05,-0.0002,2,29
6809,-6e-05,-5e-05,1e-05,-9e-05,-0.0001,-9e-05,-7e-05,-3e-05,2,29
6810,-1e-05,-1e-05,1e-05,0.00013,0.00017,3e-05,0,1e-05,2,29
6811,2e-05,8e-05,2e-05,1e-05,8e-05,4e-05,0.00011,9e-05,2,29
6812,4e-05,0,2e-05,-5e-05,-0.0001,-4e-05,-2e-05,7e-05,2,29
6813,4e-05,0,2e-05,-5e-05,-0.0001,-4e-05,-2e-05,7e-05,2,29
6814,4e-05,0,2e-05,-5e-05,-0.0001,-4e-05,-2e-05,7e-05,2,29
6815,4e-05,0,2e-05,-5e-05,-0.0001,-4e-05,-2e-05,7e-05,2,29
6816,4e-05,0,2e-05,-5e-05,-0.0001,-4e-05,-2e-05,7e-05,2,29
6817,4e-05,0,2e-05,-5e-05,-0.0001,-4e-05,-2e-05,7e-05,2,29
6818,4e-05,0,2e-05,-5e-05,-0.0001,-4e-05,-2e-05,7e-05,2,29
6819,4e-05,0,2e-05,-5e-05,-0.0001,-4e-05,-2e-05,7e-05,2,29
6820,4e-05,0,2e-05,-5e-05,-0.0001,-4e-05,-2e-05,7e-05,2,29
6821,4e-05,0,2e-05,-5e-05,-0.0001,-4e-05,-2e-05,7e-05,2,29
6822,4e-05,0,2e-05,-5e-05,-0.0001,-4e-05,-2e-05,7e-05,2,29
6823,4e-05,0,2e-05,-5e-05,-0.0001,-4e-05,-2e-05,7e-05,2,29
6824,-0.00027,2e-05,-1e-05,-5e-05,-0.00012,-0.00014,-5e-05,-0.00029,2,29
6825,-0.00027,2e-05,-1e-05,-5e-05,-0.00012,-0.00014,-5e-05,-0.00029,2,29
6826,-0.00027,2e-05,-1e-05,-5e-05,-0.00012,-0.00014,-5e-05,-0.00029,2,29
6827,-0.00027,2e-05,-1e-05,-5e-05,-0.00012,-0.00014,-5e-05,-0.00029,2,29
6828,-0.00027,2e-05,-1e-05,-5e-05,-0.00012,-0.00014,-5e-05,-0.00029,2,29
6829,-0.00027,2e-05,-1e-05,-5e-05,-0.00012,-0.00014,-5e-05,-0.00029,2,29
6830,4e-05,-7e-05,-1e-05,2e-05,1e-05,7e-05,4e-05,0.0003,2,29
6831,-1e-05,-7e-05,-9e-05,-1e-05,4e-05,-0.0001,-3e-05,-3e-05,2,29
6832,-1e-05,-7e-05,-9e-05,-1e-05,4e-05,-0.0001,-3e-05,-3e-05,2,29
6833,-1e-05,-7e-05,-9e-05,-1e-05,4e-05,-0.0001,-3e-05,-3e-05,2,29
6834,-1e-05,-7e-05,-9e-05,-1e-05,4e-05,-0.0001,-3e-05,-3e-05,2,29
6835,-1e-05,-7e-05,-9e-05,-1e-05,4e-05,-0.0001,-3e-05,-3e-05,2,29
6836,-1e-05,-7e-05,-9e-05,-1e-05,4e-05,-0.0001,-3e-05,-3e-05,2,29
6838,-1e-05,-7e-05,-9e-05,-1e-05,4e-05,-0.0001,-3e-05,-3e-05,2,29
6839,-1e-05,-7e-05,-9e-05,-1e-05,4e-05,-0.0001,-3e-05,-3e-05,2,29
6840,-1e-05,-7e-05,-9e-05,-1e-05,4e-05,-0.0001,-3e-05,-3e-05,2,29
6841,-1e-05,-7e-05,-9e-05,-1e-05,4e-05,-0.0001,-3e-05,-3e-05,2,29
6842,-1e-05,-7e-05,-9e-05,-1e-05,4e-05,-0.0001,-3e-05,-3e-05,2,29
6843,-1e-05,-7e-05,-9e-05,-1e-05,4e-05,-0.0001,-3e-05,-3e-05,2,29
6844,-1e-05,-7e-05,-9e-05,-1e-05,4e-05,-0.0001,-3e-05,-3e-05,2,29
6845,-1e-05,-7e-05,-9e-05,-1e-05,4e-05,-0.0001,-3e-05,-3e-05,2,29
6846,-1e-05,-7e-05,-9e-05,-1e-05,4e-05,-0.0001,-3e-05,-3e-05,2,29
6847,-1e-05,-7e-05,-9e-05,-1e-05,4e-05,-0.0001,-3e-05,-3e-05,2,29
6848,-1e-05,-7e-05,-9e-05,-1e-05,4e-05,-0.0001,-3e-05,-3e-05,2,29
6849,-1e-05,-7e-05,-9e-05,-1e-05,4e-05,-0.0001,-3e-05,-3e-05,2,29
6850,-1e-05,-7e-05,-9e-05,-1e-05,4e-05,-0.0001,-3e-05,-3e-05,2,29
6851,-1e-05,-7e-05,-9e-05,-1e-05,4e-05,-0.0001,-3e-05,-3e-05,2,29
6852,-1e-05,-7e-05,-9e-05,-1e-05,4e-05,-0.0001,-3e-05,-3e-05,2,29
6853,-1e-05,-7e-05,-9e-05,-1e-05,4e-05,-0.0001,-3e-05,-3e-05,2,29
6854,6e-05,0,1e-05,0,-4e-05,3e-05,1e-05,5e-05,2,29
6855,6e-05,0,1e-05,0,-4e-05,3e-05,1e-05,5e-05,2,29
6856,-6e-05,3e-05,6e-05,4e-05,9e-05,2e-05,2e-05,-6e-05,2,29
6857,-6e-05,3e-05,6e-05,4e-05,9e-05,2e-05,2e-05,-6e-05,2,29
6858,-6e-05,3e-05,6e-05,4e-05,9e-05,2e-05,2e-05,-6e-05,2,29
6859,-6e-05,3e-05,6e-05,4e-05,9e-05,2e-05,2e-05,-6e-05,2,29
6860,-6e-05,3e-05,6e-05,4e-05,9e-05,2e-05,2e-05,-6e-05,2,29
6861,-6e-05,3e-05,6e-05,4e-05,9e-05,2e-05,2e-05,-6e-05,2,29
6862,-6e-05,3e-05,6e-05,4e-05,9e-05,2e-05,2e-05,-6e-05,2,29
6863,-6e-05,3e-05,6e-05,4e-05,9e-05,2e-05,2e-05,-6e-05,2,29
6864,-6e-05,3e-05,6e-05,4e-05,9e-05,2e-05,2e-05,-6e-05,2,29
6865,-6e-05,3e-05,6e-05,4e-05,9e-05,2e-05,2e-05,-6e-05,2,29
6866,-6e-05,3e-05,6e-05,4e-05,9e-05,2e-05,2e-05,-6e-05,2,29
6867,-6e-05,3e-05,6e-05,4e-05,9e-05,2e-05,2e-05,-6e-05,2,29
6868,-6e-05,3e-05,6e-05,4e-05,9e-05,2e-05,2e-05,-6e-05,2,29
6869,4e-05,1e-05,-4e-05,-3e-05,0,6e-05,3e-05,-4e-05,2,29
6870,4e-05,1e-05,-4e-05,-3e-05,0,6e-05,3e-05,-4e-05,2,29
6871,1e-05,-4e-05,-3e-05,0,-4e-05,1e-05,3e-05,2e-05,2,29
6872,1e-05,-4e-05,-3e-05,0,-4e-05,1e-05,3e-05,2e-05,2,29
6873,1e-05,-4e-05,-3e-05,0,-4e-05,1e-05,3e-05,2e-05,2,29
6874,1e-05,-4e-05,-3e-05,0,-4e-05,1e-05,3e-05,2e-05,2,29
6875,1e-05,-4e-05,-3e-05,0,-4e-05,1e-05,3e-05,2e-05,2,29
6876,1e-05,-4e-05,-3e-05,0,-4e-05,1e-05,3e-05,2e-05,2,29
6877,1e-05,-4e-05,-3e-05,0,-4e-05,1e-05,3e-05,2e-05,2,29
6878,1e-05,-4e-05,-3e-05,0,-4e-05,1e-05,3e-05,2e-05,2,29
6879,1e-05,-4e-05,-3e-05,0,-4e-05,1e-05,3e-05,2e-05,2,29
6880,1e-05,-4e-05,-3e-05,0,-4e-05,1e-05,3e-05,2e-05,2,29
6881,1e-05,-4e-05,-3e-05,0,-4e-05,1e-05,3e-05,2e-05,2,29
6882,1e-05,-4e-05,-3e-05,0,-4e-05,1e-05,3e-05,2e-05,2,29
6883,1e-05,-4e-05,-3e-05,0,-4e-05,1e-05,3e-05,2e-05,2,29
6884,1e-05,-2e-05,-8e-05,-5e-05,-5e-05,-0.00011,-3e-05,4e-05,2,29
6885,1e-05,-2e-05,-8e-05,-5e-05,-5e-05,-0.00011,-3e-05,4e-05,2,29
6886,1e-05,-2e-05,-8e-05,-5e-05,-5e-05,-0.00011,-3e-05,4e-05,2,29
6888,1e-05,-2e-05,-8e-05,-5e-05,-5e-05,-0.00011,-3e-05,4e-05,2,29
6889,1e-05,-2e-05,-8e-05,-5e-05,-5e-05,-0.00011,-3e-05,4e-05,2,29
6890,1e-05,-2e-05,-8e-05,-5e-05,-5e-05,-0.00011,-3e-05,4e-05,2,29
6891,1e-05,-2e-05,-8e-05,-5e-05,-5e-05,-0.00011,-3e-05,4e-05,2,29
6892,1e-05,-2e-05,-8e-05,-5e-05,-5e-05,-0.00011,-3e-05,4e-05,2,29
6893,1e-05,-2e-05,-8e-05,-5e-05,-5e-05,-0.00011,-3e-05,4e-05,2,29
6894,1e-05,-2e-05,-8e-05,-5e-05,-5e-05,-0.00011,-3e-05,4e-05,2,29
6895,1e-05,-2e-05,-8e-05,-5e-05,-5e-05,-0.00011,-3e-05,4e-05,2,29
6896,1e-05,-2e-05,-8e-05,-5e-05,-5e-05,-0.00011,-3e-05,4e-05,2,29
6897,1e-05,-2e-05,-8e-05,-5e-05,-5e-05,-0.00011,-3e-05,4e-05,2,29
6898,2e-05,4e-05,4e-05,3e-05,3e-05,3e-05,-5e-05,9e-05,2,29
6899,2e-05,4e-05,4e-05,3e-05,3e-05,3e-05,-5e-05,9e-05,2,29
6900,2e-05,4e-05,4e-05,3e-05,3e-05,3e-05,-5e-05,9e-05,2,29
6901,2e-05,4e-05,4e-05,3e-05,3e-05,3e-05,-5e-05,9e-05,2,29
6902,2e-05,4e-05,4e-05,3e-05,3e-05,3e-05,-5e-05,9e-05,2,29
6903,2e-05,4e-05,4e-05,3e-05,3e-05,3e-05,-5e-05,9e-05,2,29
6904,2e-05,4e-05,4e-05,3e-05,3e-05,3e-05,-5e-05,9e-05,2,29
6905,2e-05,4e-05,4e-05,3e-05,3e-05,3e-05,-5e-05,9e-05,2,29
6906,2e-05,4e-05,4e-05,3e-05,3e-05,3e-05,-5e-05,9e-05,2,29
6907,2e-05,4e-05,4e-05,3e-05,3e-05,3e-05,-5e-05,9e-05,2,29
6908,0.00022,0,-5e-05,-8e-05,-5e-05,0.00021,0.0001,0.00028,2,29
6909,-5e-05,-4e-05,-6e-05,-6e-05,-0.00015,-0.0002,-0.00014,-1e-05,2,29
6910,-5e-05,-4e-05,-6e-05,-6e-05,-0.00015,-0.0002,-0.00014,-1e-05,2,29
6911,-5e-05,-4e-05,-6e-05,-6e-05,-0.00015,-0.0002,-0.00014,-1e-05,2,29
6912,-5e-05,-4e-05,-6e-05,-6e-05,-0.00015,-0.0002,-0.00014,-1e-05,2,29
6913,-5e-05,-4e-05,-6e-05,-6e-05,-0.00015,-0.0002,-0.00014,-1e-05,2,29
6914,-5e-05,-4e-05,-6e-05,-6e-05,-0.00015,-0.0002,-0.00014,-1e-05,2,29
6915,-5e-05,-4e-05,-6e-05,-6e-05,-0.00015,-0.0002,-0.00014,-1e-05,2,29
6916,-5e-05,-4e-05,-6e-05,-6e-05,-0.00015,-0.0002,-0.00014,-1e-05,2,29
6917,-5e-05,-4e-05,-6e-05,-6e-05,-0.00015,-0.0002,-0.00014,-1e-05,2,29
6918,-5e-05,-4e-05,-6e-05,-6e-05,-0.00015,-0.0002,-0.00014,-1e-05,2,29
6919,-5e-05,-4e-05,-6e-05,-6e-05,-0.00015,-0.0002,-0.00014,-1e-05,2,29
6920,-5e-05,-4e-05,-6e-05,-6e-05,-0.00015,-0.0002,-0.00014,-1e-05,2,29
6921,-5e-05,-4e-05,-6e-05,-6e-05,-0.00015,-0.0002,-0.00014,-1e-05,2,29
6922,-5e-05,-4e-05,-6e-05,-6e-05,-0.00015,-0.0002,-0.00014,-1e-05,2,29
6923,-5e-05,-4e-05,-6e-05,-6e-05,-0.00015,-0.0002,-0.00014,-1e-05,2,29
6924,-5e-05,-4e-05,-6e-05,-6e-05,-0.00015,-0.0002,-0.00014,-1e-05,2,29
6925,-5e-05,-4e-05,-6e-05,-6e-05,-0.00015,-0.0002,-0.00014,-1e-05,2,29
6926,-5e-05,-4e-05,-6e-05,-6e-05,-0.00015,-0.0002,-0.00014,-1e-05,2,29
6927,-5e-05,-4e-05,-6e-05,-6e-05,-0.00015,-0.0002,-0.00014,-1e-05,2,29
6928,-5e-05,-4e-05,-6e-05,-6e-05,-0.00015,-0.0002,-0.00014,-1e-05,2,29
6929,0.00015,3e-05,0,5e-05,0.0001,0.00026,0.00014,1e-05,2,29
6930,-0.00014,-1e-05,2e-05,-1e-05,0,0,1e-05,-2e-05,2,29
6931,-1e-05,1e-05,2e-05,4e-05,5e-05,-4e-05,-5e-05,-6e-05,2,29
6932,-1e-05,1e-05,2e-05,4e-05,5e-05,-4e-05,-5e-05,-6e-05,2,29
6933,-1e-05,1e-05,2e-05,4e-05,5e-05,-4e-05,-5e-05,-6e-05,2,29
6934,-1e-05,1e-05,2e-05,4e-05,5e-05,-4e-05,-5e-05,-6e-05,2,29
6935,-1e-05,1e-05,2e-05,4e-05,5e-05,-4e-05,-5e-05,-6e-05,2,29
6936,-1e-05,1e-05,2e-05,4e-05,5e-05,-4e-05,-5e-05,-6e-05,2,29
6938,-1e-05,1e-05,2e-05,4e-05,5e-05,-4e-05,-5e-05,-6e-05,2,29
6939,-1e-05,1e-05,2e-05,4e-05,5e-05,-4e-05,-5e-05,-6e-05,2,29
6940,-1e-05,1e-05,2e-05,4e-05,5e-05,-4e-05,-5e-05,-6e-05,2,29
6941,-1e-05,1e-05,2e-05,4e-05,5e-05,-4e-05,-5e-05,-6e-05,2,29
6942,-1e-05,1e-05,2e-05,4e-05,5e-05,-4e-05,-5e-05,-6e-05,2,29
6943,8e-05,-2e-05,-7e-05,-8e-05,-5e-05,-0.00013,-0.00012,-0.00014,2,29
6944,8e-05,-2e-05,-7e-05,-8e-05,-5e-05,-0.00013,-0.00012,-0.00014,2,29
6945,8e-05,-2e-05,-7e-05,-8e-05,-5e-05,-0.00013,-0.00012,-0.00014,2,29
6946,8e-05,-2e-05,-7e-05,-8e-05,-5e-05,-0.00013,-0.00012,-0.00014,2,29
6947,8e-05,-2e-05,-7e-05,-8e-05,-5e-05,-0.00013,-0.00012,-0.00014,2,29
6948,8e-05,-2e-05,-7e-05,-8e-05,-5e-05,-0.00013,-0.00012,-0.00014,2,29
6949,8e-05,-2e-05,-7e-05,-8e-05,-5e-05,-0.00013,-0.00012,-0.00014,2,29
6950,8e-05,-2e-05,-7e-05,-8e-05,-5e-05,-0.00013,-0.00012,-0.00014,2,29
6951,8e-05,-2e-05,-7e-05,-8e-05,-5e-05,-0.00013,-0.00012,-0.00014,2,29
6952,1e-05,2e-05,3e-05,-9e-05,-9e-05,0.0001,4e-05,5e-05,2,29
6953,1e-05,2e-05,3e-05,-9e-05,-9e-05,0.0001,4e-05,5e-05,2,29
6954,1e-05,2e-05,3e-05,-9e-05,-9e-05,0.0001,4e-05,5e-05,2,29
6955,1e-05,2e-05,3e-05,-9e-05,-9e-05,0.0001,4e-05,5e-05,2,29
6956,1e-05,2e-05,3e-05,-9e-05,-9e-05,0.0001,4e-05,5e-05,2,29
6957,1e-05,2e-05,3e-05,-9e-05,-9e-05,0.0001,4e-05,5e-05,2,29
6958,1e-05,2e-05,3e-05,-9e-05,-9e-05,0.0001,4e-05,5e-05,2,29
6959,1e-05,2e-05,3e-05,-9e-05,-9e-05,0.0001,4e-05,5e-05,2,29
6960,1e-05,2e-05,3e-05,-9e-05,-9e-05,0.0001,4e-05,5e-05,2,29
6961,1e-05,2e-05,3e-05,-9e-05,-9e-05,0.0001,4e-05,5e-05,2,29
6962,1e-05,2e-05,3e-05,-9e-05,-9e-05,0.0001,4e-05,5e-05,2,29
6963,1e-05,2e-05,3e-05,-9e-05,-9e-05,0.0001,4e-05,5e-05,2,29
6964,1e-05,2e-05,3e-05,-9e-05,-9e-05,0.0001,4e-05,5e-05,2,29
6965,1e-05,2e-05,3e-05,-9e-05,-9e-05,0.0001,4e-05,5e-05,2,29
6966,1e-05,2e-05,3e-05,-9e-05,-9e-05,0.0001,4e-05,5e-05,2,29
6967,1e-05,2e-05,3e-05,-9e-05,-9e-05,0.0001,4e-05,5e-05,2,29
6968,1e-05,-1e-05,7e-05,5e-05,-5e-05,1e-05,-2e-05,-7e-05,2,29
6969,4e-05,0,-5e-05,1e-05,-6e-05,6e-05,6e-05,0.00013,2,29
6970,4e-05,0,-5e-05,1e-05,-6e-05,6e-05,6e-05,0.00013,2,29
6971,4e-05,0,-5e-05,1e-05,-6e-05,6e-05,6e-05,0.00013,2,29
6972,4e-05,0,-5e-05,1e-05,-6e-05,6e-05,6e-05,0.00013,2,29
6973,4e-05,0,-5e-05,1e-05,-6e-05,6e-05,6e-05,0.00013,2,29
6974,4e-05,0,-5e-05,1e-05,-6e-05,6e-05,6e-05,0.00013,2,29
6975,4e-05,0,-5e-05,1e-05,-6e-05,6e-05,6e-05,0.00013,2,29
6976,4e-05,0,-5e-05,1e-05,-6e-05,6e-05,6e-05,0.00013,2,29
6977,4e-05,0,-5e-05,1e-05,-6e-05,6e-05,6e-05,0.00013,2,29
6978,4e-05,0,-5e-05,1e-05,-6e-05,6e-05,6e-05,0.00013,2,29
6979,4e-05,0,-5e-05,1e-05,-6e-05,6e-05,6e-05,0.00013,2,29
6980,4e-05,0,-5e-05,1e-05,-6e-05,6e-05,6e-05,0.00013,2,29
6981,4e-05,0,-5e-05,1e-05,-6e-05,6e-05,6e-05,0.00013,2,29
6982,4e-05,0,-5e-05,1e-05,-6e-05,6e-05,6e-05,0.00013,2,29
6983,4e-05,0,-5e-05,1e-05,-6e-05,6e-05,6e-05,0.00013,2,29
6984,4e-05,0,-5e-05,1e-05,-6e-05,6e-05,6e-05,0.00013,2,29
6985,4e-05,0,-5e-05,1e-05,-6e-05,6e-05,6e-05,0.00013,2,29
6986,4e-05,0,-5e-05,1e-05,-6e-05,6e-05,6e-05,0.00013,2,29
6988,4e-05,0,-5e-05,1e-05,-6e-05,6e-05,6e-05,0.00013,2,29
6989,0.00019,2e-05,-4e-05,5e-05,0.00013,0.00034,0.00024,0.00065,2,29
6990,0.00019,2e-05,-4e-05,5e-05,0.00013,0.00034,0.00024,0.00065,2,29
6991,-1e-05,-2e-05,2e-05,-2e-05,5e-05,0,-2e-05,-7e-05,2,29
6992,-1e-05,-2e-05,2e-05,-2e-05,5e-05,0,-2e-05,-7e-05,2,29
6993,-1e-05,-2e-05,2e-05,-2e-05,5e-05,0,-2e-05,-7e-05,2,29
6994,-1e-05,-2e-05,2e-05,-2e-05,5e-05,0,-2e-05,-7e-05,2,29
6995,-1e-05,-2e-05,2e-05,-2e-05,5e-05,0,-2e-05,-7e-05,2,29
6996,-1e-05,-2e-05,2e-05,-2e-05,5e-05,0,-2e-05,-7e-05,2,29
6997,-1e-05,-2e-05,2e-05,-2e-05,5e-05,0,-2e-05,-7e-05,2,29
6998,-1e-05,-2e-05,2e-05,-2e-05,5e-05,0,-2e-05,-7e-05,2,29
6999,-1e-05,-2e-05,2e-05,-2e-05,5e-05,0,-2e-05,-7e-05,2,29
7000,-1e-05,-2e-05,2e-05,-2e-05,5e-05,0,-2e-05,-7e-05,2,29
7001,-1e-05,-2e-05,2e-05,-2e-05,5e-05,0,-2e-05,-7e-05,2,29
7002,-1e-05,-2e-05,2e-05,-2e-05,5e-05,0,-2e-05,-7e-05,2,29
7003,-8e-05,-3e-05,-1e-05,3e-05,-2e-05,-0.00028,-0.0001,-0.00022,2,29
7004,-8e-05,-3e-05,-1e-05,3e-05,-2e-05,-0.00028,-0.0001,-0.00022,2,29
7005,-8e-05,-3e-05,-1e-05,3e-05,-2e-05,-0.00028,-0.0001,-0.00022,2,29
7006,-8e-05,-3e-05,-1e-05,3e-05,-2e-05,-0.00028,-0.0001,-0.00022,2,29
7007,-8e-05,-3e-05,-1e-05,3e-05,-2e-05,-0.00028,-0.0001,-0.00022,2,29
7008,-8e-05,-3e-05,-1e-05,3e-05,-2e-05,-0.00028,-0.0001,-0.00022,2,29
7009,-8e-05,-3e-05,-1e-05,3e-05,-2e-05,-0.00028,-0.0001,-0.00022,2,29
7010,-8e-05,-3e-05,-1e-05,3e-05,-2e-05,-0.00028,-0.0001,-0.00022,2,29
7011,-8e-05,-3e-05,-1e-05,3e-05,-2e-05,-0.00028,-0.0001,-0.00022,2,29
7012,4e-05,4e-05,3e-05,2e-05,7e-05,2e-05,0,0.00016,2,29
7013,4e-05,4e-05,3e-05,2e-05,7e-05,2e-05,0,0.00016,2,29
7014,4e-05,4e-05,3e-05,2e-05,7e-05,2e-05,0,0.00016,2,29
7015,4e-05,4e-05,3e-05,2e-05,7e-05,2e-05,0,0.00016,2,29
7016,4e-05,4e-05,3e-05,2e-05,7e-05,2e-05,0,0.00016,2,29
7017,4e-05,4e-05,3e-05,2e-05,7e-05,2e-05,0,0.00016,2,29
7018,4e-05,4e-05,3e-05,2e-05,7e-05,2e-05,0,0.00016,2,29
7019,4e-05,4e-05,3e-05,2e-05,7e-05,2e-05,0,0.00016,2,29
7020,4e-05,4e-05,3e-05,2e-05,7e-05,2e-05,0,0.00016,2,29
7021,4e-05,4e-05,3e-05,2e-05,7e-05,2e-05,0,0.00016,2,29
7022,4e-05,4e-05,3e-05,2e-05,7e-05,2e-05,0,0.00016,2,29
33241,-3e-05,-4e-05,-5e-05,-7e-05,-0.00016,0.00018,8e-05,3e-05,2,29
33242,-0.0001,-7e-05,-2e-05,4e-05,-9e-05,-0.00015,-1e-05,-0.00011,2,29
33243,-0.0001,-7e-05,-2e-05,4e-05,-9e-05,-0.00015,-1e-05,-0.00011,2,29
33244,-0.0001,-7e-05,-2e-05,4e-05,-9e-05,-0.00015,-1e-05,-0.00011,2,29
33245,-0.0001,-7e-05,-2e-05,4e-05,-9e-05,-0.00015,-1e-05,-0.00011,2,29
33246,-0.0001,-7e-05,-2e-05,4e-05,-9e-05,-0.00015,-1e-05,-0.00011,2,29
33247,-0.0001,-7e-05,-2e-05,4e-05,-9e-05,-0.00015,-1e-05,-0.00011,2,29
33248,-0.0001,-7e-05,-2e-05,4e-05,-9e-05,-0.00015,-1e-05,-0.00011,2,29
33249,-0.0001,-7e-05,-2e-05,4e-05,-9e-05,-0.00015,-1e-05,-0.00011,2,29
33250,-0.0001,-7e-05,-2e-05,4e-05,-9e-05,-0.00015,-1e-05,-0.00011,2,29
33251,-0.0001,-7e-05,-2e-05,4e-05,-9e-05,-0.00015,-1e-05,-0.00011,2,29
33252,-0.0001,-7e-05,-2e-05,4e-05,-9e-05,-0.00015,-1e-05,-0.00011,2,29
33253,-0.0001,-7e-05,-2e-05,4e-05,-9e-05,-0.00015,-1e-05,-0.00011,2,29
33254,-2e-05,-3e-05,0,0.00021,0.00019,4e-05,3e-05,-1e-05,2,29
33255,-2e-05,-3e-05,0,0.00021,0.00019,4e-05,3e-05,-1e-05,2,29
33256,-2e-05,-3e-05,0,0.00021,0.00019,4e-05,3e-05,-1e-05,2,29
33257,-2e-05,-3e-05,0,0.00021,0.00019,4e-05,3e-05,-1e-05,2,29
33258,-2e-05,-3e-05,0,0.00021,0.00019,4e-05,3e-05,-1e-05,2,29
33259,-2e-05,-3e-05,0,0.00021,0.00019,4e-05,3e-05,-1e-05,2,29
33260,-2e-05,-3e-05,0,0.00021,0.00019,4e-05,3e-05,-1e-05,2,29
33261,6e-05,1e-05,4e-05,8e-05,-3e-05,3e-05,-5e-05,0.00014,2,29
33262,6e-05,1e-05,4e-05,8e-05,-3e-05,3e-05,-5e-05,0.00014,2,29
33263,6e-05,1e-05,4e-05,8e-05,-3e-05,3e-05,-5e-05,0.00014,2,29
33264,6e-05,1e-05,4e-05,8e-05,-3e-05,3e-05,-5e-05,0.00014,2,29
33265,6e-05,1e-05,4e-05,8e-05,-3e-05,3e-05,-5e-05,0.00014,2,29
33266,6e-05,1e-05,4e-05,8e-05,-3e-05,3e-05,-5e-05,0.00014,2,29
33267,6e-05,1e-05,4e-05,8e-05,-3e-05,3e-05,-5e-05,0.00014,2,29
33268,6e-05,1e-05,4e-05,8e-05,-3e-05,3e-05,-5e-05,0.00014,2,29
33269,6e-05,1e-05,4e-05,8e-05,-3e-05,3e-05,-5e-05,0.00014,2,29
33270,6e-05,1e-05,4e-05,8e-05,-3e-05,3e-05,-5e-05,0.00014,2,29
33271,6e-05,1e-05,4e-05,8e-05,-3e-05,3e-05,-5e-05,0.00014,2,29
33272,6e-05,1e-05,4e-05,8e-05,-3e-05,3e-05,-5e-05,0.00014,2,29
33273,6e-05,1e-05,4e-05,8e-05,-3e-05,3e-05,-5e-05,0.00014,2,29
33274,6e-05,1e-05,4e-05,8e-05,-3e-05,3e-05,-5e-05,0.00014,2,29
33275,6e-05,1e-05,4e-05,8e-05,-3e-05,3e-05,-5e-05,0.00014,2,29
33276,6e-05,1e-05,4e-05,8e-05,-3e-05,3e-05,-5e-05,0.00014,2,29
33277,0.0001,2e-05,-2e-05,0,1e-05,-0.00016,0.00016,0.00021,2,29
33278,3e-05,-1e-05,-2e-05,-5e-05,-2e-05,-8e-05,-1e-05,1e-05,2,29
33279,3e-05,-1e-05,-2e-05,-5e-05,-2e-05,-8e-05,-1e-05,1e-05,2,29
33280,3e-05,-1e-05,-2e-05,-5e-05,-2e-05,-8e-05,-1e-05,1e-05,2,29
33281,3e-05,-1e-05,-2e-05,-5e-05,-2e-05,-8e-05,-1e-05,1e-05,2,29
33282,3e-05,-1e-05,-2e-05,-5e-05,-2e-05,-8e-05,-1e-05,1e-05,2,29
33283,3e-05,-1e-05,-2e-05,-5e-05,-2e-05,-8e-05,-1e-05,1e-05,2,29
33284,3e-05,-1e-05,-2e-05,-5e-05,-2e-05,-8e-05,-1e-05,1e-05,2,29
33285,3e-05,-1e-05,-2e-05,-5e-05,-2e-05,-8e-05,-1e-05,1e-05,2,29
33286,3e-05,-1e-05,-2e-05,-5e-05,-2e-05,-8e-05,-1e-05,1e-05,2,29
33288,3e-05,-1e-05,-2e-05,-5e-05,-2e-05,-8e-05,-1e-05,1e-05,2,29
33289,3e-05,-1e-05,-2e-05,-5e-05,-2e-05,-8e-05,-1e-05,1e-05,2,29
33290,3e-05,-1e-05,-2e-05,-5e-05,-2e-05,-8e-05,-1e-05,1e-05,2,29
33291,3e-05,-1e-05,-2e-05,-5e-05,-2e-05,-8e-05,-1e-05,1e-05,2,29
33292,3e-05,-1e-05,-2e-05,-5e-05,-2e-05,-8e-05,-1e-05,1e-05,2,29
33293,3e-05,-1e-05,-2e-05,-5e-05,-2e-05,-8e-05,-1e-05,1e-05,2,29
33294,3e-05,-1e-05,-2e-05,-5e-05,-2e-05,-8e-05,-1e-05,1e-05,2,29
33295,3e-05,-1e-05,-2e-05,-5e-05,-2e-05,-8e-05,-1e-05,1e-05,2,29
33296,3e-05,-1e-05,-2e-05,-5e-05,-2e-05,-8e-05,-1e-05,1e-05,2,29
33297,3e-05,-1e-05,-2e-05,-5e-05,-2e-05,-8e-05,-1e-05,1e-05,2,29
33298,3e-05,-1e-05,-2e-05,-5e-05,-2e-05,-8e-05,-1e-05,1e-05,2,29
33299,-8e-05,2e-05,1e-05,-0.00012,-9e-05,-7e-05,8e-05,-3e-05,2,29
33300,-8e-05,2e-05,1e-05,-0.00012,-9e-05,-7e-05,8e-05,-3e-05,2,29
33301,0.00022,4e-05,-2e-05,-1e-05,0.00027,0.00078,0.00045,0.00027,2,29
33302,0.00022,4e-05,-2e-05,-1e-05,0.00027,0.00078,0.00045,0.00027,2,29
33303,0.00022,4e-05,-2e-05,-1e-05,0.00027,0.00078,0.00045,0.00027,2,29
33304,0.00022,4e-05,-2e-05,-1e-05,0.00027,0.00078,0.00045,0.00027,2,29
33305,0.00022,4e-05,-2e-05,-1e-05,0.00027,0.00078,0.00045,0.00027,2,29
33306,0.00022,4e-05,-2e-05,-1e-05,0.00027,0.00078,0.00045,0.00027,2,29
33307,0.00022,4e-05,-2e-05,-1e-05,0.00027,0.00078,0.00045,0.00027,2,29
33308,0.00022,4e-05,-2e-05,-1e-05,0.00027,0.00078,0.00045,0.00027,2,29
33309,0.00022,4e-05,-2e-05,-1e-05,0.00027,0.00078,0.00045,0.00027,2,29
33310,0.00022,4e-05,-2e-05,-1e-05,0.00027,0.00078,0.00045,0.00027,2,29
33311,0.00022,4e-05,-2e-05,-1e-05,0.00027,0.00078,0.00045,0.00027,2,29
33312,0.00022,4e-05,-2e-05,-1e-05,0.00027,0.00078,0.00045,0.00027,2,29
33313,0.00022,4e-05,-2e-05,-1e-05,0.00027,0.00078,0.00045,0.00027,2,29
33314,0.0001,1e-05,0,-2e-05,-0.0001,-0.0001,-9e-05,-7e-05,2,29
33315,0.0001,1e-05,0,-2e-05,-0.0001,-0.0001,-9e-05,-7e-05,2,29
33316,0.0001,1e-05,0,-2e-05,-0.0001,-0.0001,-9e-05,-7e-05,2,29
33317,0.0001,1e-05,0,-2e-05,-0.0001,-0.0001,-9e-05,-7e-05,2,29
33318,0.0001,1e-05,0,-2e-05,-0.0001,-0.0001,-9e-05,-7e-05,2,29
33319,0.0001,1e-05,0,-2e-05,-0.0001,-0.0001,-9e-05,-7e-05,2,29
33320,0.0001,1e-05,0,-2e-05,-0.0001,-0.0001,-9e-05,-7e-05,2,29
33321,8e-05,5e-05,0.00012,0.00011,8e-05,0.00022,0.0001,5e-05,2,29
33322,8e-05,5e-05,0.00012,0.00011,8e-05,0.00022,0.0001,5e-05,2,29
33323,8e-05,5e-05,0.00012,0.00011,8e-05,0.00022,0.0001,5e-05,2,29
33324,8e-05,5e-05,0.00012,0.00011,8e-05,0.00022,0.0001,5e-05,2,29
33325,8e-05,5e-05,0.00012,0.00011,8e-05,0.00022,0.0001,5e-05,2,29
33326,8e-05,5e-05,0.00012,0.00011,8e-05,0.00022,0.0001,5e-05,2,29
33327,8e-05,5e-05,0.00012,0.00011,8e-05,0.00022,0.0001,5e-05,2,29
33328,8e-05,5e-05,0.00012,0.00011,8e-05,0.00022,0.0001,5e-05,2,29
33329,8e-05,5e-05,0.00012,0.00011,8e-05,0.00022,0.0001,5e-05,2,29
33330,8e-05,5e-05,0.00012,0.00011,8e-05,0.00022,0.0001,5e-05,2,29
33331,8e-05,5e-05,0.00012,0.00011,8e-05,0.00022,0.0001,5e-05,2,29
33332,8e-05,5e-05,0.00012,0.00011,8e-05,0.00022,0.0001,5e-05,2,29
33333,8e-05,5e-05,0.00012,0.00011,8e-05,0.00022,0.0001,5e-05,2,29
33334,8e-05,5e-05,0.00012,0.00011,8e-05,0.00022,0.0001,5e-05,2,29
33335,8e-05,5e-05,0.00012,0.00011,8e-05,0.00022,0.0001,5e-05,2,29
33336,0.0001,-2e-05,-6e-05,0,3e-05,2e-05,2e-05,0.0002,2,29
33339,-6e-05,-4e-05,-6e-05,-6e-05,-0.00022,-0.00036,-0.00021,-6e-05,2,29
33340,-6e-05,-4e-05,-6e-05,-6e-05,-0.00022,-0.00036,-0.00021,-6e-05,2,29
33341,-6e-05,-4e-05,-6e-05,-6e-05,-0.00022,-0.00036,-0.00021,-6e-05,2,29
33342,-6e-05,-4e-05,-6e-05,-6e-05,-0.00022,-0.00036,-0.00021,-6e-05,2,29
33343,-6e-05,-4e-05,-6e-05,-6e-05,-0.00022,-0.00036,-0.00021,-6e-05,2,29
33344,-6e-05,-4e-05,-6e-05,-6e-05,-0.00022,-0.00036,-0.00021,-6e-05,2,29
33345,-6e-05,-4e-05,-6e-05,-6e-05,-0.00022,-0.00036,-0.00021,-6e-05,2,29
33346,-6e-05,-4e-05,-6e-05,-6e-05,-0.00022,-0.00036,-0.00021,-6e-05,2,29
33347,-6e-05,-4e-05,-6e-05,-6e-05,-0.00022,-0.00036,-0.00021,-6e-05,2,29
33348,-6e-05,-4e-05,-6e-05,-6e-05,-0.00022,-0.00036,-0.00021,-6e-05,2,29
33349,-6e-05,-4e-05,-6e-05,-6e-05,-0.00022,-0.00036,-0.00021,-6e-05,2,29
33350,-6e-05,-4e-05,-6e-05,-6e-05,-0.00022,-0.00036,-0.00021,-6e-05,2,29
33351,-6e-05,-4e-05,-6e-05,-6e-05,-0.00022,-0.00036,-0.00021,-6e-05,2,29
33352,-6e-05,-4e-05,-6e-05,-6e-05,-0.00022,-0.00036,-0.00021,-6e-05,2,29
33353,-6e-05,-4e-05,-6e-05,-6e-05,-0.00022,-0.00036,-0.00021,-6e-05,2,29
33354,-6e-05,-4e-05,-6e-05,-6e-05,-0.00022,-0.00036,-0.00021,-6e-05,2,29
33355,-6e-05,-4e-05,-6e-05,-6e-05,-0.00022,-0.00036,-0.00021,-6e-05,2,29
33356,-6e-05,-4e-05,-6e-05,-6e-05,-0.00022,-0.00036,-0.00021,-6e-05,2,29
33357,-6e-05,-4e-05,-6e-05,-6e-05,-0.00022,-0.00036,-0.00021,-6e-05,2,29
33358,-6e-05,-4e-05,-6e-05,-6e-05,-0.00022,-0.00036,-0.00021,-6e-05,2,29
33359,1e-05,-2e-05,1e-05,-5e-05,0.00011,3e-05,-4e-05,7e-05,2,29
33360,-4e-05,-3e-05,-5e-05,-2e-05,-2e-05,-0.00028,-0.00014,-5e-05,2,29
33361,-1e-05,2e-05,0,5e-05,6e-05,-7e-05,-0.00011,0,2,29
33362,-1e-05,2e-05,0,5e-05,6e-05,-7e-05,-0.00011,0,2,29
33363,-1e-05,2e-05,0,5e-05,6e-05,-7e-05,-0.00011,0,2,29
33364,-1e-05,2e-05,0,5e-05,6e-05,-7e-05,-0.00011,0,2,29
33365,-1e-05,2e-05,0,5e-05,6e-05,-7e-05,-0.00011,0,2,29
33366,-1e-05,2e-05,0,5e-05,6e-05,-7e-05,-0.00011,0,2,29
33367,-1e-05,2e-05,0,5e-05,6e-05,-7e-05,-0.00011,0,2,29
33368,-1e-05,2e-05,0,5e-05,6e-05,-7e-05,-0.00011,0,2,29
33369,-1e-05,2e-05,0,5e-05,6e-05,-7e-05,-0.00011,0,2,29
33370,-1e-05,2e-05,0,5e-05,6e-05,-7e-05,-0.00011,0,2,29
33371,-1e-05,2e-05,0,5e-05,6e-05,-7e-05,-0.00011,0,2,29
33372,-1e-05,2e-05,0,5e-05,6e-05,-7e-05,-0.00011,0,2,29
33373,-1e-05,2e-05,0,5e-05,6e-05,-7e-05,-0.00011,0,2,29
33374,-3e-05,-2e-05,-1e-05,-0.0001,-7e-05,1e-05,-0.0001,-0.0001,2,29
33375,-3e-05,-2e-05,-1e-05,-0.0001,-7e-05,1e-05,-0.0001,-0.0001,2,29
33376,-3e-05,-2e-05,-1e-05,-0.0001,-7e-05,1e-05,-0.0001,-0.0001,2,29
33377,-3e-05,-2e-05,-1e-05,-0.0001,-7e-05,1e-05,-0.0001,-0.0001,2,29
33378,-3e-05,-2e-05,-1e-05,-0.0001,-7e-05,1e-05,-0.0001,-0.0001,2,29
33379,-3e-05,-2e-05,-1e-05,-0.0001,-7e-05,1e-05,-0.0001,-0.0001,2,29
33380,-3e-05,-2e-05,-1e-05,-0.0001,-7e-05,1e-05,-0.0001,-0.0001,2,29
33381,1e-05,-2e-05,-1e-05,0,0.00014,3e-05,-1e-05,1e-05,2,29
33382,1e-05,-2e-05,-1e-05,0,0.00014,3e-05,-1e-05,1e-05,2,29
33383,1e-05,-2e-05,-1e-05,0,0.00014,3e-05,-1e-05,1e-05,2,29
33384,1e-05,-2e-05,-1e-05,0,0.00014,3e-05,-1e-05,1e-05,2,29
33385,1e-05,-2e-05,-1e-05,0,0.00014,3e-05,-1e-05,1e-05,2,29
33386,1e-05,-2e-05,-1e-05,0,0.00014,3e-05,-1e-05,1e-05,2,29
33388,1e-05,-2e-05,-1e-05,0,0.00014,3e-05,-1e-05,1e-05,2,29
33389,1e-05,-2e-05,-1e-05,0,0.00014,3e-05,-1e-05,1e-05,2,29
33390,1e-05,-2e-05,-1e-05,0,0.00014,3e-05,-1e-05,1e-05,2,29
33391,1e-05,-2e-05,-1e-05,0,0.00014,3e-05,-1e-05,1e-05,2,29
33392,1e-05,-2e-05,-1e-05,0,0.00014,3e-05,-1e-05,1e-05,2,29
33393,1e-05,-2e-05,-1e-05,0,0.00014,3e-05,-1e-05,1e-05,2,29
33394,1e-05,-2e-05,-1e-05,0,0.00014,3e-05,-1e-05,1e-05,2,29
33395,1e-05,-2e-05,-1e-05,0,0.00014,3e-05,-1e-05,1e-05,2,29
33396,1e-05,-2e-05,-1e-05,0,0.00014,3e-05,-1e-05,1e-05,2,29
33397,-4e-05,-4e-05,3e-05,0.00035,0.00011,0.00021,-0.0001,-3e-05,2,29
33398,3e-05,-1e-05,0,1e-05,-4e-05,7e-05,7e-05,8e-05,2,29
33399,3e-05,-1e-05,0,1e-05,-4e-05,7e-05,7e-05,8e-05,2,29
33400,3e-05,-1e-05,0,1e-05,-4e-05,7e-05,7e-05,8e-05,2,29
33401,3e-05,-1e-05,0,1e-05,-4e-05,7e-05,7e-05,8e-05,2,29
33402,3e-05,-1e-05,0,1e-05,-4e-05,7e-05,7e-05,8e-05,2,29
33403,3e-05,-1e-05,0,1e-05,-4e-05,7e-05,7e-05,8e-05,2,29
33404,3e-05,-1e-05,0,1e-05,-4e-05,7e-05,7e-05,8e-05,2,29
33405,3e-05,-1e-05,0,1e-05,-4e-05,7e-05,7e-05,8e-05,2,29
33406,3e-05,-1e-05,0,1e-05,-4e-05,7e-05,7e-05,8e-05,2,29
33407,3e-05,-1e-05,0,1e-05,-4e-05,7e-05,7e-05,8e-05,2,29
33408,3e-05,-1e-05,0,1e-05,-4e-05,7e-05,7e-05,8e-05,2,29
33409,3e-05,-1e-05,0,1e-05,-4e-05,7e-05,7e-05,8e-05,2,29
33410,3e-05,-1e-05,0,1e-05,-4e-05,7e-05,7e-05,8e-05,2,29
33411,3e-05,-1e-05,0,1e-05,-4e-05,7e-05,7e-05,8e-05,2,29
33412,3e-05,-1e-05,0,1e-05,-4e-05,7e-05,7e-05,8e-05,2,29
33413,3e-05,-1e-05,0,1e-05,-4e-05,7e-05,7e-05,8e-05,2,29
33414,3e-05,-1e-05,0,1e-05,-4e-05,7e-05,7e-05,8e-05,2,29
33415,3e-05,-1e-05,0,1e-05,-4e-05,7e-05,7e-05,8e-05,2,29
33416,3e-05,-1e-05,0,1e-05,-4e-05,7e-05,7e-05,8e-05,2,29
33417,3e-05,-1e-05,0,1e-05,-4e-05,7e-05,7e-05,8e-05,2,29
33418,3e-05,-1e-05,0,1e-05,-4e-05,7e-05,7e-05,8e-05,2,29
33419,3e-05,-1e-05,0,1e-05,-4e-05,7e-05,7e-05,8e-05,2,29
33420,3e-05,-1e-05,0,1e-05,-4e-05,7e-05,7e-05,8e-05,2,29
33421,3e-05,-1e-05,0,1e-05,-4e-05,7e-05,7e-05,8e-05,2,29
33422,3e-05,-1e-05,0,1e-05,-4e-05,7e-05,7e-05,8e-05,2,29
33423,3e-05,-1e-05,0,1e-05,-4e-05,7e-05,7e-05,8e-05,2,29
33424,3e-05,-1e-05,0,1e-05,-4e-05,7e-05,7e-05,8e-05,2,29
33425,3e-05,-1e-05,0,1e-05,-4e-05,7e-05,7e-05,8e-05,2,29
33426,3e-05,-1e-05,0,1e-05,-4e-05,7e-05,7e-05,8e-05,2,29
33427,-0.0002,-3e-05,-4e-05,-0.00015,-0.00016,-0.00011,-0.00013,-0.00014,2,29
33428,-0.0002,-3e-05,-4e-05,-0.00015,-0.00016,-0.00011,-0.00013,-0.00014,2,29
33429,-0.0002,-3e-05,-4e-05,-0.00015,-0.00016,-0.00011,-0.00013,-0.00014,2,29
33430,-0.0002,-3e-05,-4e-05,-0.00015,-0.00016,-0.00011,-0.00013,-0.00014,2,29
33431,-0.0002,-3e-05,-4e-05,-0.00015,-0.00016,-0.00011,-0.00013,-0.00014,2,29
33432,-0.0002,-3e-05,-4e-05,-0.00015,-0.00016,-0.00011,-0.00013,-0.00014,2,29
33433,-0.0002,-3e-05,-4e-05,-0.00015,-0.00016,-0.00011,-0.00013,-0.00014,2,29
33434,3e-05,1e-05,3e-05,0.00015,1e-05,-3e-05,5e-05,0.0001,2,29
33435,8e-05,0,0,3e-05,-8e-05,-0.00022,-7e-05,0.0001,2,29
33436,8e-05,0,0,3e-05,-8e-05,-0.00022,-7e-05,0.0001,2,29
33439,8e-05,0,0,3e-05,-8e-05,-0.00022,-7e-05,0.0001,2,29
33440,8e-05,0,0,3e-05,-8e-05,-0.00022,-7e-05,0.0001,2,29
33441,3e-05,2e-05,-2e-05,-4e-05,1e-05,-0.00019,-4e-05,0.00014,2,29
33442,3e-05,2e-05,-2e-05,-4e-05,1e-05,-0.00019,-4e-05,0.00014,2,29
33443,3e-05,2e-05,-2e-05,-4e-05,1e-05,-0.00019,-4e-05,0.00014,2,29
33444,3e-05,2e-05,-2e-05,-4e-05,1e-05,-0.00019,-4e-05,0.00014,2,29
33445,3e-05,2e-05,-2e-05,-4e-05,1e-05,-0.00019,-4e-05,0.00014,2,29
33446,3e-05,2e-05,-2e-05,-4e-05,1e-05,-0.00019,-4e-05,0.00014,2,29
33447,3e-05,2e-05,-2e-05,-4e-05,1e-05,-0.00019,-4e-05,0.00014,2,29
33448,3e-05,2e-05,-2e-05,-4e-05,1e-05,-0.00019,-4e-05,0.00014,2,29
33449,3e-05,2e-05,-2e-05,-4e-05,1e-05,-0.00019,-4e-05,0.00014,2,29
33450,3e-05,2e-05,-2e-05,-4e-05,1e-05,-0.00019,-4e-05,0.00014,2,29
33451,3e-05,2e-05,-2e-05,-4e-05,1e-05,-0.00019,-4e-05,0.00014,2,29
33452,3e-05,2e-05,-2e-05,-4e-05,1e-05,-0.00019,-4e-05,0.00014,2,29
33453,3e-05,2e-05,-2e-05,-4e-05,1e-05,-0.00019,-4e-05,0.00014,2,29
33454,3e-05,2e-05,-2e-05,-4e-05,1e-05,-0.00019,-4e-05,0.00014,2,29
33455,3e-05,2e-05,-2e-05,-4e-05,1e-05,-0.00019,-4e-05,0.00014,2,29
33456,3e-05,2e-05,-2e-05,-4e-05,1e-05,-0.00019,-4e-05,0.00014,2,29
33457,5e-05,0,-2e-05,-3e-05,5e-05,0.00021,0.0003,0.00012,2,29
33458,-8e-05,-1e-05,5e-05,3e-05,2e-05,7e-05,-3e-05,-0.00043,2,29
33459,4e-05,0,-1e-05,-9e-05,-3e-05,4e-05,0,3e-05,2,29
33460,4e-05,0,-1e-05,-9e-05,-3e-05,4e-05,0,3e-05,2,29
33461,4e-05,0,-1e-05,-9e-05,-3e-05,4e-05,0,3e-05,2,29
33462,4e-05,0,-1e-05,-9e-05,-3e-05,4e-05,0,3e-05,2,29
33463,4e-05,0,-1e-05,-9e-05,-3e-05,4e-05,0,3e-05,2,29
33464,4e-05,0,-1e-05,-9e-05,-3e-05,4e-05,0,3e-05,2,29
33465,4e-05,0,-1e-05,-9e-05,-3e-05,4e-05,0,3e-05,2,29
33466,4e-05,0,-1e-05,-9e-05,-3e-05,4e-05,0,3e-05,2,29
33467,4e-05,0,-1e-05,-9e-05,-3e-05,4e-05,0,3e-05,2,29
33468,4e-05,0,-1e-05,-9e-05,-3e-05,4e-05,0,3e-05,2,29
33469,4e-05,0,-1e-05,-9e-05,-3e-05,4e-05,0,3e-05,2,29
33470,4e-05,0,-1e-05,-9e-05,-3e-05,4e-05,0,3e-05,2,29
33471,4e-05,0,-1e-05,-9e-05,-3e-05,4e-05,0,3e-05,2,29
33472,4e-05,0,-1e-05,-9e-05,-3e-05,4e-05,0,3e-05,2,29
33473,4e-05,0,-1e-05,-9e-05,-3e-05,4e-05,0,3e-05,2,29
33474,4e-05,0,-1e-05,-9e-05,-3e-05,4e-05,0,3e-05,2,29
33475,4e-05,0,-1e-05,-9e-05,-3e-05,4e-05,0,3e-05,2,29
33476,4e-05,0,-1e-05,-9e-05,-3e-05,4e-05,0,3e-05,2,29
33477,4e-05,0,-1e-05,-9e-05,-3e-05,4e-05,0,3e-05,2,29
33478,4e-05,0,-1e-05,-9e-05,-3e-05,4e-05,0,3e-05,2,29
33479,4e-05,0,-1e-05,-9e-05,-3e-05,4e-05,0,3e-05,2,29
33480,-1e-05,-1e-05,-3e-05,3e-05,-9e-05,-0.00012,-6e-05,5e-05,2,29
33481,-0.00011,-3e-05,-4e-05,-5e-05,-0.00011,-3e-05,3e-05,-7e-05,2,29
33482,-0.00011,-3e-05,-4e-05,-5e-05,-0.00011,-3e-05,3e-05,-7e-05,2,29
33483,-0.00011,-3e-05,-4e-05,-5e-05,-0.00011,-3e-05,3e-05,-7e-05,2,29
33484,-0.00011,-3e-05,-4e-05,-5e-05,-0.00011,-3e-05,3e-05,-7e-05,2,29
33485,-0.00011,-3e-05,-4e-05,-5e-05,-0.00011,-3e-05,3e-05,-7e-05,2,29
33486,-0.00011,-3e-05,-4e-05,-5e-05,-0.00011,-3e-05,3e-05,-7e-05,2,29
33489,-0.00011,-3e-05,-4e-05,-5e-05,-0.00011,-3e-05,3e-05,-7e-05,2,29
33490,-0.00011,-3e-05,-4e-05,-5e-05,-0.00011,-3e-05,3e-05,-7e-05,2,29
33491,-0.00011,-3e-05,-4e-05,-5e-05,-0.00011,-3e-05,3e-05,-7e-05,2,29
33492,-0.00011,-3e-05,-4e-05,-5e-05,-0.00011,-3e-05,3e-05,-7e-05,2,29
33493,-0.00011,-3e-05,-4e-05,-5e-05,-0.00011,-3e-05,3e-05,-7e-05,2,29
33494,3e-05,-1e-05,3e-05,-3e-05,0.00017,1e-05,-9e-05,-3e-05,2,29
33495,3e-05,-1e-05,3e-05,-3e-05,0.00017,1e-05,-9e-05,-3e-05,2,29
33496,3e-05,-1e-05,3e-05,-3e-05,0.00017,1e-05,-9e-05,-3e-05,2,29
33497,3e-05,-1e-05,3e-05,-3e-05,0.00017,1e-05,-9e-05,-3e-05,2,29
33498,3e-05,-1e-05,3e-05,-3e-05,0.00017,1e-05,-9e-05,-3e-05,2,29
33499,3e-05,-1e-05,3e-05,-3e-05,0.00017,1e-05,-9e-05,-3e-05,2,29
33500,6e-05,2e-05,7e-05,-5e-05,-0.00014,-3e-05,0.00032,0.00019,2,29
33501,-4e-05,-4e-05,-6e-05,0,-0.00014,-0.00014,-6e-05,-0.00011,2,29
33502,-4e-05,-4e-05,-6e-05,0,-0.00014,-0.00014,-6e-05,-0.00011,2,29
33503,-4e-05,-4e-05,-6e-05,0,-0.00014,-0.00014,-6e-05,-0.00011,2,29
33504,-4e-05,-4e-05,-6e-05,0,-0.00014,-0.00014,-6e-05,-0.00011,2,29
33505,-4e-05,-4e-05,-6e-05,0,-0.00014,-0.00014,-6e-05,-0.00011,2,29
33506,-4e-05,-4e-05,-6e-05,0,-0.00014,-0.00014,-6e-05,-0.00011,2,29
33507,-4e-05,-4e-05,-6e-05,0,-0.00014,-0.00014,-6e-05,-0.00011,2,29
33508,-4e-05,-4e-05,-6e-05,0,-0.00014,-0.00014,-6e-05,-0.00011,2,29
33509,-4e-05,-4e-05,-6e-05,0,-0.00014,-0.00014,-6e-05,-0.00011,2,29
33510,-4e-05,-4e-05,-6e-05,0,-0.00014,-0.00014,-6e-05,-0.00011,2,29
33511,-4e-05,-4e-05,-6e-05,0,-0.00014,-0.00014,-6e-05,-0.00011,2,29
33512,-4e-05,-4e-05,-6e-05,0,-0.00014,-0.00014,-6e-05,-0.00011,2,29
33513,-4e-05,-4e-05,-6e-05,0,-0.00014,-0.00014,-6e-05,-0.00011,2,29
33514,-4e-05,-4e-05,-6e-05,0,-0.00014,-0.00014,-6e-05,-0.00011,2,29
33515,-4e-05,-4e-05,-6e-05,0,-0.00014,-0.00014,-6e-05,-0.00011,2,29
33516,-4e-05,-4e-05,-6e-05,0,-0.00014,-0.00014,-6e-05,-0.00011,2,29
33517,0,2e-05,-1e-05,0.00019,0.00028,0.00023,-2e-05,-9e-05,2,29
33518,-0.00011,-2e-05,-1e-05,-3e-05,-8e-05,-0.00022,-9e-05,8e-05,2,29
33519,9e-05,1e-05,-2e-05,-2e-05,-3e-05,0.00012,0.0001,8e-05,2,29
33520,9e-05,1e-05,-2e-05,-2e-05,-3e-05,0.00012,0.0001,8e-05,2,29
33521,9e-05,1e-05,-2e-05,-2e-05,-3e-05,0.00012,0.0001,8e-05,2,29
33522,9e-05,1e-05,-2e-05,-2e-05,-3e-05,0.00012,0.0001,8e-05,2,29
33523,9e-05,1e-05,-2e-05,-2e-05,-3e-05,0.00012,0.0001,8e-05,2,29
33524,9e-05,1e-05,-2e-05,-2e-05,-3e-05,0.00012,0.0001,8e-05,2,29
33525,9e-05,1e-05,-2e-05,-2e-05,-3e-05,0.00012,0.0001,8e-05,2,29
33526,9e-05,1e-05,-2e-05,-2e-05,-3e-05,0.00012,0.0001,8e-05,2,29
33527,9e-05,1e-05,-2e-05,-2e-05,-3e-05,0.00012,0.0001,8e-05,2,29
33528,9e-05,1e-05,-2e-05,-2e-05,-3e-05,0.00012,0.0001,8e-05,2,29
33529,9e-05,1e-05,-2e-05,-2e-05,-3e-05,0.00012,0.0001,8e-05,2,29
33530,9e-05,1e-05,-2e-05,-2e-05,-3e-05,0.00012,0.0001,8e-05,2,29
33531,9e-05,1e-05,-2e-05,-2e-05,-3e-05,0.00012,0.0001,8e-05,2,29
33532,9e-05,1e-05,-2e-05,-2e-05,-3e-05,0.00012,0.0001,8e-05,2,29
33533,9e-05,1e-05,-2e-05,-2e-05,-3e-05,0.00012,0.0001,8e-05,2,29
33534,9e-05,1e-05,-2e-05,-2e-05,-3e-05,0.00012,0.0001,8e-05,2,29
33535,9e-05,1e-05,-2e-05,-2e-05,-3e-05,0.00012,0.0001,8e-05,2,29
33536,9e-05,1e-05,-2e-05,-2e-05,-3e-05,0.00012,0.0001,8e-05,2,29
33538,9e-05,1e-05,-2e-05,-2e-05,-3e-05,0.00012,0.0001,8e-05,2,29
33539,1e-05,-3e-05,-3e-05,-0.0001,-2e-05,0.00013,9e-05,4e-05,2,29
33540,-0.00011,-5e-05,-1e-05,-2e-05,-5e-05,-0.00022,-0.00018,-0.00014,2,29
33541,-8e-05,-5e-05,1e-05,-0.0001,1e-05,5e-05,-8e-05,-0.00019,2,29
33542,-8e-05,-5e-05,1e-05,-0.0001,1e-05,5e-05,-8e-05,-0.00019,2,29
33543,-8e-05,-5e-05,1e-05,-0.0001,1e-05,5e-05,-8e-05,-0.00019,2,29
33544,-8e-05,-5e-05,1e-05,-0.0001,1e-05,5e-05,-8e-05,-0.00019,2,29
33545,-8e-05,-5e-05,1e-05,-0.0001,1e-05,5e-05,-8e-05,-0.00019,2,29
33546,-8e-05,-5e-05,1e-05,-0.0001,1e-05,5e-05,-8e-05,-0.00019,2,29
33547,-8e-05,-5e-05,1e-05,-0.0001,1e-05,5e-05,-8e-05,-0.00019,2,29
33548,-8e-05,-5e-05,1e-05,-0.0001,1e-05,5e-05,-8e-05,-0.00019,2,29
33549,-8e-05,-5e-05,1e-05,-0.0001,1e-05,5e-05,-8e-05,-0.00019,2,29
33550,-8e-05,-5e-05,1e-05,-0.0001,1e-05,5e-05,-8e-05,-0.00019,2,29
33551,-8e-05,-5e-05,1e-05,-0.0001,1e-05,5e-05,-8e-05,-0.00019,2,29
33552,-8e-05,-5e-05,1e-05,-0.0001,1e-05,5e-05,-8e-05,-0.00019,2,29
33553,0,0,-2e-05,-3e-05,1e-05,-4e-05,-5e-05,5e-05,2,29
33554,0,0,-2e-05,-3e-05,1e-05,-4e-05,-5e-05,5e-05,2,29
33555,0,0,-2e-05,-3e-05,1e-05,-4e-05,-5e-05,5e-05,2,29
33556,0,0,-2e-05,-3e-05,1e-05,-4e-05,-5e-05,5e-05,2,29
33557,0,0,-2e-05,-3e-05,1e-05,-4e-05,-5e-05,5e-05,2,29
33558,0,0,-2e-05,-3e-05,1e-05,-4e-05,-5e-05,5e-05,2,29
33559,0,0,-2e-05,-3e-05,1e-05,-4e-05,-5e-05,5e-05,2,29
33560,0,0,-2e-05,-3e-05,1e-05,-4e-05,-5e-05,5e-05,2,29
33561,0,0,-2e-05,-3e-05,1e-05,-4e-05,-5e-05,5e-05,2,29
33562,-4e-05,0,-3e-05,1e-05,1e-05,0.00015,-2e-05,-0.00025,2,29
33563,-4e-05,0,-3e-05,1e-05,1e-05,0.00015,-2e-05,-0.00025,2,29
33564,-4e-05,0,-3e-05,1e-05,1e-05,0.00015,-2e-05,-0.00025,2,29
33565,-4e-05,0,-3e-05,1e-05,1e-05,0.00015,-2e-05,-0.00025,2,29
33566,-4e-05,0,-3e-05,1e-05,1e-05,0.00015,-2e-05,-0.00025,2,29
33567,-4e-05,0,-3e-05,1e-05,1e-05,0.00015,-2e-05,-0.00025,2,29
33568,-4e-05,0,-3e-05,1e-05,1e-05,0.00015,-2e-05,-0.00025,2,29
33569,-4e-05,0,-3e-05,1e-05,1e-05,0.00015,-2e-05,-0.00025,2,29
33570,-4e-05,0,-3e-05,1e-05,1e-05,0.00015,-2e-05,-0.00025,2,29
33571,-4e-05,0,-3e-05,1e-05,1e-05,0.00015,-2e-05,-0.00025,2,29
33572,-4e-05,0,-3e-05,1e-05,1e-05,0.00015,-2e-05,-0.00025,2,29
33573,-4e-05,0,-3e-05,1e-05,1e-05,0.00015,-2e-05,-0.00025,2,29
33574,-4e-05,0,-3e-05,1e-05,1e-05,0.00015,-2e-05,-0.00025,2,29
33575,-4e-05,0,-3e-05,1e-05,1e-05,0.00015,-2e-05,-0.00025,2,29
33576,-4e-05,0,-3e-05,1e-05,1e-05,0.00015,-2e-05,-0.00025,2,29
33577,2e-05,-1e-05,3e-05,-0.0001,-3e-05,-6e-05,-0.00022,-2e-05,2,29
33578,2e-05,-1e-05,3e-05,-0.0001,-3e-05,-6e-05,-0.00022,-2e-05,2,29
33580,2e-05,-1e-05,3e-05,-0.0001,-3e-05,-6e-05,-0.00022,-2e-05,2,29
33581,-3e-05,-2e-05,-7e-05,3e-05,9e-05,0.00014,6e-05,0.00016,2,29
33582,-3e-05,-2e-05,-7e-05,3e-05,9e-05,0.00014,6e-05,0.00016,2,29
33583,-3e-05,-2e-05,-7e-05,3e-05,9e-05,0.00014,6e-05,0.00016,2,29
33584,-3e-05,-2e-05,-7e-05,3e-05,9e-05,0.00014,6e-05,0.00016,2,29
33585,-3e-05,-2e-05,-7e-05,3e-05,9e-05,0.00014,6e-05,0.00016,2,29
33586,-3e-05,-2e-05,-7e-05,3e-05,9e-05,0.00014,6e-05,0.00016,2,29
33589,-3e-05,-2e-05,-7e-05,3e-05,9e-05,0.00014,6e-05,0.00016,2,29
33590,-3e-05,-2e-05,-7e-05,3e-05,9e-05,0.00014,6e-05,0.00016,2,29
33591,-3e-05,-2e-05,-7e-05,3e-05,9e-05,0.00014,6e-05,0.00016,2,29
33592,-3e-05,-2e-05,-7e-05,3e-05,9e-05,0.00014,6e-05,0.00016,2,29
33593,-3e-05,-2e-05,-7e-05,3e-05,9e-05,0.00014,6e-05,0.00016,2,29
33594,-3e-05,-2e-05,-7e-05,3e-05,9e-05,0.00014,6e-05,0.00016,2,29
33595,-3e-05,-2e-05,-7e-05,3e-05,9e-05,0.00014,6e-05,0.00016,2,29
33596,-3e-05,-2e-05,-7e-05,3e-05,9e-05,0.00014,6e-05,0.00016,2,29
33597,-3e-05,-2e-05,-7e-05,3e-05,9e-05,0.00014,6e-05,0.00016,2,29
33598,-3e-05,-2e-05,-7e-05,3e-05,9e-05,0.00014,6e-05,0.00016,2,29
33599,0.0001,3e-05,2e-05,2e-05,-4e-05,-4e-05,-1e-05,0,2,29
33600,-5e-05,-1e-05,3e-05,8e-05,2e-05,1e-05,5e-05,4e-05,2,29
33601,-5e-05,1e-05,1e-05,3e-05,-3e-05,-0.00027,-0.00014,-9e-05,2,29
33602,-5e-05,1e-05,1e-05,3e-05,-3e-05,-0.00027,-0.00014,-9e-05,2,29
33603,-5e-05,1e-05,1e-05,3e-05,-3e-05,-0.00027,-0.00014,-9e-05,2,29
33604,-5e-05,1e-05,1e-05,3e-05,-3e-05,-0.00027,-0.00014,-9e-05,2,29
33605,-5e-05,1e-05,1e-05,3e-05,-3e-05,-0.00027,-0.00014,-9e-05,2,29
33606,-5e-05,1e-05,1e-05,3e-05,-3e-05,-0.00027,-0.00014,-9e-05,2,29
33607,-5e-05,1e-05,1e-05,3e-05,-3e-05,-0.00027,-0.00014,-9e-05,2,29
33608,-5e-05,1e-05,1e-05,3e-05,-3e-05,-0.00027,-0.00014,-9e-05,2,29
33609,-5e-05,1e-05,1e-05,3e-05,-3e-05,-0.00027,-0.00014,-9e-05,2,29
33610,-5e-05,1e-05,1e-05,3e-05,-3e-05,-0.00027,-0.00014,-9e-05,2,29
33611,-5e-05,1e-05,1e-05,3e-05,-3e-05,-0.00027,-0.00014,-9e-05,2,29
33612,-5e-05,1e-05,1e-05,3e-05,-3e-05,-0.00027,-0.00014,-9e-05,2,29
33613,-3e-05,-2e-05,-7e-05,-5e-05,9e-05,-9e-05,0.00011,0,2,29
33614,-3e-05,-2e-05,-7e-05,-5e-05,9e-05,-9e-05,0.00011,0,2,29
33615,-3e-05,-2e-05,-7e-05,-5e-05,9e-05,-9e-05,0.00011,0,2,29
33616,-3e-05,-2e-05,-7e-05,-5e-05,9e-05,-9e-05,0.00011,0,2,29
33617,-3e-05,-2e-05,-7e-05,-5e-05,9e-05,-9e-05,0.00011,0,2,29
33618,-3e-05,-2e-05,-7e-05,-5e-05,9e-05,-9e-05,0.00011,0,2,29
33619,-3e-05,-2e-05,-7e-05,-5e-05,9e-05,-9e-05,0.00011,0,2,29
33620,-3e-05,-2e-05,-7e-05,-5e-05,9e-05,-9e-05,0.00011,0,2,29
33621,-3e-05,-2e-05,-7e-05,-5e-05,9e-05,-9e-05,0.00011,0,2,29
33622,7e-05,-2e-05,-2e-05,-1e-05,-0.00018,-0.00037,-1e-05,8e-05,2,29
33623,7e-05,-2e-05,-2e-05,-1e-05,-0.00018,-0.00037,-1e-05,8e-05,2,29
33624,7e-05,-2e-05,-2e-05,-1e-05,-0.00018,-0.00037,-1e-05,8e-05,2,29
33625,7e-05,-2e-05,-2e-05,-1e-05,-0.00018,-0.00037,-1e-05,8e-05,2,29
33626,7e-05,-2e-05,-2e-05,-1e-05,-0.00018,-0.00037,-1e-05,8e-05,2,29
33627,7e-05,-2e-05,-2e-05,-1e-05,-0.00018,-0.00037,-1e-05,8e-05,2,29
33628,7e-05,-2e-05,-2e-05,-1e-05,-0.00018,-0.00037,-1e-05,8e-05,2,29
33629,7e-05,-2e-05,-2e-05,-1e-05,-0.00018,-0.00037,-1e-05,8e-05,2,29
33630,7e-05,-2e-05,-2e-05,-1e-05,-0.00018,-0.00037,-1e-05,8e-05,2,29
33631,7e-05,-2e-05,-2e-05,-1e-05,-0.00018,-0.00037,-1e-05,8e-05,2,29
33632,7e-05,-2e-05,-2e-05,-1e-05,-0.00018,-0.00037,-1e-05,8e-05,2,29
33633,7e-05,-2e-05,-2e-05,-1e-05,-0.00018,-0.00037,-1e-05,8e-05,2,29
33634,7e-05,-2e-05,-2e-05,-1e-05,-0.00018,-0.00037,-1e-05,8e-05,2,29
33635,7e-05,-2e-05,-2e-05,-1e-05,-0.00018,-0.00037,-1e-05,8e-05,2,29
33636,7e-05,-2e-05,-2e-05,-1e-05,-0.00018,-0.00037,-1e-05,8e-05,2,29
33639,-6e-05,2e-05,4e-05,0.0001,0.00011,-3e-05,-0.00013,-9e-05,2,29
33640,-6e-05,2e-05,4e-05,0.0001,0.00011,-3e-05,-0.00013,-9e-05,2,29
