6470,-5e-05,-4e-05,-0.00013,-0.00031,-0.00018,0.00016,-0.00051,-0.00016,2,30
6471,-5e-05,-4e-05,-0.00013,-0.00031,-0.00018,0.00016,-0.00051,-0.00016,2,30
6472,-5e-05,-4e-05,-0.00013,-0.00031,-0.00018,0.00016,-0.00051,-0.00016,2,30
6473,-5e-05,-4e-05,-0.00013,-0.00031,-0.00018,0.00016,-0.00051,-0.00016,2,30
6474,-5e-05,-4e-05,-0.00013,-0.00031,-0.00018,0.00016,-0.00051,-0.00016,2,30
6475,-5e-05,-4e-05,-0.00013,-0.00031,-0.00018,0.00016,-0.00051,-0.00016,2,30
6476,-5e-05,-4e-05,-0.00013,-0.00031,-0.00018,0.00016,-0.00051,-0.00016,2,30
6477,-5e-05,-4e-05,-0.00013,-0.00031,-0.00018,0.00016,-0.00051,-0.00016,2,30
6478,-5e-05,-4e-05,-0.00013,-0.00031,-0.00018,0.00016,-0.00051,-0.00016,2,30
6479,-5e-05,-4e-05,-0.00013,-0.00031,-0.00018,0.00016,-0.00051,-0.00016,2,30
6480,-5e-05,-4e-05,-0.00013,-0.00031,-0.00018,0.00016,-0.00051,-0.00016,2,30
6481,1e-05,-7e-05,-0.00024,-0.00057,-0.00031,0.00075,-0.00033,1e-05,2,30
6482,1e-05,-7e-05,-0.00024,-0.00057,-0.00031,0.00075,-0.00033,1e-05,2,30
6483,0.00011,5e-05,8e-05,0.0004,0.00016,-8e-05,5e-05,0.00012,2,30
6484,0.00011,5e-05,8e-05,0.0004,0.00016,-8e-05,5e-05,0.00012,2,30
6485,0.00011,5e-05,8e-05,0.0004,0.00016,-8e-05,5e-05,0.00012,2,30
6486,0.00011,5e-05,8e-05,0.0004,0.00016,-8e-05,5e-05,0.00012,2,30
6488,0.00011,5e-05,8e-05,0.0004,0.00016,-8e-05,5e-05,0.00012,2,30
6489,0.00011,5e-05,8e-05,0.0004,0.00016,-8e-05,5e-05,0.00012,2,30
6490,0.00011,5e-05,8e-05,0.0004,0.00016,-8e-05,5e-05,0.00012,2,30
6491,0.00011,5e-05,8e-05,0.0004,0.00016,-8e-05,5e-05,0.00012,2,30
6492,0.00011,5e-05,8e-05,0.0004,0.00016,-8e-05,5e-05,0.00012,2,30
6493,0.00011,5e-05,8e-05,0.0004,0.00016,-8e-05,5e-05,0.00012,2,30
6494,0.00011,5e-05,8e-05,0.0004,0.00016,-8e-05,5e-05,0.00012,2,30
6495,0.00011,5e-05,8e-05,0.0004,0.00016,-8e-05,5e-05,0.00012,2,30
6496,0.00011,5e-05,8e-05,0.0004,0.00016,-8e-05,5e-05,0.00012,2,30
6497,0.00011,5e-05,8e-05,0.0004,0.00016,-8e-05,5e-05,0.00012,2,30
6498,0.00011,5e-05,8e-05,0.0004,0.00016,-8e-05,5e-05,0.00012,2,30
6499,0.00011,5e-05,8e-05,0.0004,0.00016,-8e-05,5e-05,0.00012,2,30
6500,0.00011,5e-05,8e-05,0.0004,0.00016,-8e-05,5e-05,0.00012,2,30
6501,0.00011,5e-05,8e-05,0.0004,0.00016,-8e-05,5e-05,0.00012,2,30
6502,0.00011,5e-05,8e-05,0.0004,0.00016,-8e-05,5e-05,0.00012,2,30
6503,0.00011,5e-05,8e-05,0.0004,0.00016,-8e-05,5e-05,0.00012,2,30
6504,-1e-05,1e-05,0.00012,1e-05,-1e-05,-9e-05,0.0001,-2e-05,2,30
6505,2e-05,-5e-05,-9e-05,0.00028,0.00018,-0.00014,-0.00012,5e-05,2,30
6506,2e-05,-5e-05,-9e-05,0.00028,0.00018,-0.00014,-0.00012,5e-05,2,30
6507,2e-05,-5e-05,-9e-05,0.00028,0.00018,-0.00014,-0.00012,5e-05,2,30
6508,2e-05,-5e-05,-9e-05,0.00028,0.00018,-0.00014,-0.00012,5e-05,2,30
6509,2e-05,-5e-05,-9e-05,0.00028,0.00018,-0.00014,-0.00012,5e-05,2,30
6510,2e-05,-5e-05,-9e-05,0.00028,0.00018,-0.00014,-0.00012,5e-05,2,30
6511,2e-05,-5e-05,-9e-05,0.00028,0.00018,-0.00014,-0.00012,5e-05,2,30
6512,2e-05,-5e-05,-9e-05,0.00028,0.00018,-0.00014,-0.00012,5e-05,2,30
6513,2e-05,-5e-05,-9e-05,0.00028,0.00018,-0.00014,-0.00012,5e-05,2,30
6514,2e-05,-5e-05,-9e-05,0.00028,0.00018,-0.00014,-0.00012,5e-05,2,30
6515,2e-05,-5e-05,-9e-05,0.00028,0.00018,-0.00014,-0.00012,5e-05,2,30
6516,2e-05,-5e-05,-9e-05,0.00028,0.00018,-0.00014,-0.00012,5e-05,2,30
6517,-1e-05,-1e-05,-5e-05,0.00013,-0.00014,-0.00057,0.00016,-3e-05,2,30
6518,-1e-05,-1e-05,-5e-05,0.00013,-0.00014,-0.00057,0.00016,-3e-05,2,30
6519,-1e-05,-1e-05,-5e-05,0.00013,-0.00014,-0.00057,0.00016,-3e-05,2,30
6520,-1e-05,-1e-05,-5e-05,0.00013,-0.00014,-0.00057,0.00016,-3e-05,2,30
6521,-1e-05,-1e-05,-5e-05,0.00013,-0.00014,-0.00057,0.00016,-3e-05,2,30
6522,-1e-05,-1e-05,-5e-05,0.00013,-0.00014,-0.00057,0.00016,-3e-05,2,30
6523,-1e-05,-1e-05,-5e-05,0.00013,-0.00014,-0.00057,0.00016,-3e-05,2,30
6524,-1e-05,-1e-05,-5e-05,0.00013,-0.00014,-0.00057,0.00016,-3e-05,2,30
6525,-1e-05,-1e-05,-5e-05,0.00013,-0.00014,-0.00057,0.00016,-3e-05,2,30
6526,1e-05,-1e-05,-2e-05,-0.00037,7e-05,-0.00015,0.00026,9e-05,2,30
6527,1e-05,-1e-05,-2e-05,-0.00037,7e-05,-0.00015,0.00026,9e-05,2,30
6528,1e-05,-1e-05,-2e-05,-0.00037,7e-05,-0.00015,0.00026,9e-05,2,30
6529,1e-05,-1e-05,-2e-05,-0.00037,7e-05,-0.00015,0.00026,9e-05,2,30
6530,1e-05,-1e-05,-2e-05,-0.00037,7e-05,-0.00015,0.00026,9e-05,2,30
6531,1e-05,-1e-05,-2e-05,-0.00037,7e-05,-0.00015,0.00026,9e-05,2,30
6532,1e-05,-1e-05,-2e-05,-0.00037,7e-05,-0.00015,0.00026,9e-05,2,30
6533,1e-05,-1e-05,-2e-05,-0.00037,7e-05,-0.00015,0.00026,9e-05,2,30
6534,1e-05,-1e-05,-2e-05,-0.00037,7e-05,-0.00015,0.00026,9e-05,2,30
6535,1e-05,-1e-05,-2e-05,-0.00037,7e-05,-0.00015,0.00026,9e-05,2,30
6536,1e-05,-1e-05,-2e-05,-0.00037,7e-05,-0.00015,0.00026,9e-05,2,30
6538,1e-05,-1e-05,-2e-05,-0.00037,7e-05,-0.00015,0.00026,9e-05,2,30
6539,1e-05,-1e-05,-2e-05,-0.00037,7e-05,-0.00015,0.00026,9e-05,2,30
6540,1e-05,-1e-05,-2e-05,-0.00037,7e-05,-0.00015,0.00026,9e-05,2,30
6541,-1e-05,2e-05,0.00015,0.00048,0.00018,0.00049,0.00012,1e-05,2,30
6542,-1e-05,2e-05,0.00015,0.00048,0.00018,0.00049,0.00012,1e-05,2,30
6543,4e-05,5e-05,5e-05,0.00021,-0.00033,-0.00048,-0.0003,0,2,30
6544,4e-05,5e-05,5e-05,0.00021,-0.00033,-0.00048,-0.0003,0,2,30
6545,4e-05,5e-05,5e-05,0.00021,-0.00033,-0.00048,-0.0003,0,2,30
6546,4e-05,5e-05,5e-05,0.00021,-0.00033,-0.00048,-0.0003,0,2,30
6547,4e-05,5e-05,5e-05,0.00021,-0.00033,-0.00048,-0.0003,0,2,30
6548,4e-05,5e-05,5e-05,0.00021,-0.00033,-0.00048,-0.0003,0,2,30
6549,4e-05,5e-05,5e-05,0.00021,-0.00033,-0.00048,-0.0003,0,2,30
6550,4e-05,5e-05,5e-05,0.00021,-0.00033,-0.00048,-0.0003,0,2,30
6551,4e-05,5e-05,5e-05,0.00021,-0.00033,-0.00048,-0.0003,0,2,30
6552,4e-05,5e-05,5e-05,0.00021,-0.00033,-0.00048,-0.0003,0,2,30
6553,4e-05,5e-05,5e-05,0.00021,-0.00033,-0.00048,-0.0003,0,2,30
6554,4e-05,5e-05,5e-05,0.00021,-0.00033,-0.00048,-0.0003,0,2,30
6555,4e-05,5e-05,5e-05,0.00021,-0.00033,-0.00048,-0.0003,0,2,30
6556,4e-05,5e-05,5e-05,0.00021,-0.00033,-0.00048,-0.0003,0,2,30
6557,4e-05,5e-05,5e-05,0.00021,-0.00033,-0.00048,-0.0003,0,2,30
6558,4e-05,5e-05,5e-05,0.00021,-0.00033,-0.00048,-0.0003,0,2,30
6559,4e-05,5e-05,5e-05,0.00021,-0.00033,-0.00048,-0.0003,0,2,30
6560,4e-05,5e-05,5e-05,0.00021,-0.00033,-0.00048,-0.0003,0,2,30
6561,4e-05,5e-05,5e-05,0.00021,-0.00033,-0.00048,-0.0003,0,2,30
6562,4e-05,5e-05,5e-05,0.00021,-0.00033,-0.00048,-0.0003,0,2,30
6563,4e-05,5e-05,5e-05,0.00021,-0.00033,-0.00048,-0.0003,0,2,30
6564,0.00015,0.00011,0.00011,3e-05,-0.00011,0.00018,-8e-05,0.00016,2,30
6565,-1e-05,-3e-05,-0.00013,-0.00023,0.00015,0.00064,0.00077,0.00012,2,30
6566,-1e-05,-3e-05,-0.00013,-0.00023,0.00015,0.00064,0.00077,0.00012,2,30
6567,-1e-05,-3e-05,-0.00013,-0.00023,0.00015,0.00064,0.00077,0.00012,2,30
6568,-1e-05,-3e-05,-0.00013,-0.00023,0.00015,0.00064,0.00077,0.00012,2,30
6569,-1e-05,-3e-05,-0.00013,-0.00023,0.00015,0.00064,0.00077,0.00012,2,30
6570,-1e-05,-3e-05,-0.00013,-0.00023,0.00015,0.00064,0.00077,0.00012,2,30
6571,-1e-05,-3e-05,-0.00013,-0.00023,0.00015,0.00064,0.00077,0.00012,2,30
6572,-1e-05,-3e-05,-0.00013,-0.00023,0.00015,0.00064,0.00077,0.00012,2,30
6573,-1e-05,-3e-05,-0.00013,-0.00023,0.00015,0.00064,0.00077,0.00012,2,30
6574,-1e-05,-3e-05,-0.00013,-0.00023,0.00015,0.00064,0.00077,0.00012,2,30
6575,-1e-05,-3e-05,-0.00013,-0.00023,0.00015,0.00064,0.00077,0.00012,2,30
6576,-1e-05,-3e-05,-0.00013,-0.00023,0.00015,0.00064,0.00077,0.00012,2,30
6577,-7e-05,-8e-05,-0.00023,-0.00079,6e-05,-0.00026,-0.00025,-5e-05,2,30
6578,-7e-05,-8e-05,-0.00023,-0.00079,6e-05,-0.00026,-0.00025,-5e-05,2,30
6579,-7e-05,-8e-05,-0.00023,-0.00079,6e-05,-0.00026,-0.00025,-5e-05,2,30
6580,-7e-05,-8e-05,-0.00023,-0.00079,6e-05,-0.00026,-0.00025,-5e-05,2,30
6581,-7e-05,-8e-05,-0.00023,-0.00079,6e-05,-0.00026,-0.00025,-5e-05,2,30
6582,-7e-05,-8e-05,-0.00023,-0.00079,6e-05,-0.00026,-0.00025,-5e-05,2,30
6583,-7e-05,-8e-05,-0.00023,-0.00079,6e-05,-0.00026,-0.00025,-5e-05,2,30
6584,-7e-05,-8e-05,-0.00023,-0.00079,6e-05,-0.00026,-0.00025,-5e-05,2,30
6585,-7e-05,-8e-05,-0.00023,-0.00079,6e-05,-0.00026,-0.00025,-5e-05,2,30
6587,2e-05,1e-05,0.0001,0.00042,0,-0.0003,-0.0002,6e-05,2,30
6589,2e-05,1e-05,0.0001,0.00042,0,-0.0003,-0.0002,6e-05,2,30
6590,2e-05,1e-05,0.0001,0.00042,0,-0.0003,-0.0002,6e-05,2,30
6591,2e-05,1e-05,0.0001,0.00042,0,-0.0003,-0.0002,6e-05,2,30
6592,2e-05,1e-05,0.0001,0.00042,0,-0.0003,-0.0002,6e-05,2,30
6593,2e-05,1e-05,0.0001,0.00042,0,-0.0003,-0.0002,6e-05,2,30
6594,2e-05,1e-05,0.0001,0.00042,0,-0.0003,-0.0002,6e-05,2,30
6595,2e-05,1e-05,0.0001,0.00042,0,-0.0003,-0.0002,6e-05,2,30
6596,2e-05,1e-05,0.0001,0.00042,0,-0.0003,-0.0002,6e-05,2,30
6597,2e-05,1e-05,0.0001,0.00042,0,-0.0003,-0.0002,6e-05,2,30
6598,2e-05,1e-05,0.0001,0.00042,0,-0.0003,-0.0002,6e-05,2,30
6599,2e-05,1e-05,0.0001,0.00042,0,-0.0003,-0.0002,6e-05,2,30
6600,2e-05,1e-05,0.0001,0.00042,0,-0.0003,-0.0002,6e-05,2,30
6601,5e-05,1e-05,4e-05,-1e-05,-2e-05,-0.00015,0.00047,8e-05,2,30
6602,1e-05,4e-05,0.0001,0.0002,-8e-05,0.00069,1e-05,9e-05,2,30
6603,-7e-05,-7e-05,-0.00015,-0.00051,0.00013,-0.00039,-2e-05,-0.0001,2,30
6604,-7e-05,-7e-05,-0.00015,-0.00051,0.00013,-0.00039,-2e-05,-0.0001,2,30
6605,-7e-05,-7e-05,-0.00015,-0.00051,0.00013,-0.00039,-2e-05,-0.0001,2,30
6606,-7e-05,-7e-05,-0.00015,-0.00051,0.00013,-0.00039,-2e-05,-0.0001,2,30
6607,-7e-05,-7e-05,-0.00015,-0.00051,0.00013,-0.00039,-2e-05,-0.0001,2,30
6608,-7e-05,-7e-05,-0.00015,-0.00051,0.00013,-0.00039,-2e-05,-0.0001,2,30
6609,-7e-05,-7e-05,-0.00015,-0.00051,0.00013,-0.00039,-2e-05,-0.0001,2,30
6610,-7e-05,-7e-05,-0.00015,-0.00051,0.00013,-0.00039,-2e-05,-0.0001,2,30
6611,-7e-05,-7e-05,-0.00015,-0.00051,0.00013,-0.00039,-2e-05,-0.0001,2,30
6612,-7e-05,-7e-05,-0.00015,-0.00051,0.00013,-0.00039,-2e-05,-0.0001,2,30
6613,-7e-05,-7e-05,-0.00015,-0.00051,0.00013,-0.00039,-2e-05,-0.0001,2,30
6614,-7e-05,-7e-05,-0.00015,-0.00051,0.00013,-0.00039,-2e-05,-0.0001,2,30
6615,-7e-05,-7e-05,-0.00015,-0.00051,0.00013,-0.00039,-2e-05,-0.0001,2,30
6616,-7e-05,-7e-05,-0.00015,-0.00051,0.00013,-0.00039,-2e-05,-0.0001,2,30
6617,-7e-05,-7e-05,-0.00015,-0.00051,0.00013,-0.00039,-2e-05,-0.0001,2,30
6618,-7e-05,-7e-05,-0.00015,-0.00051,0.00013,-0.00039,-2e-05,-0.0001,2,30
6619,-7e-05,-7e-05,-0.00015,-0.00051,0.00013,-0.00039,-2e-05,-0.0001,2,30
6620,-7e-05,-7e-05,-0.00015,-0.00051,0.00013,-0.00039,-2e-05,-0.0001,2,30
6621,-7e-05,-7e-05,-0.00015,-0.00051,0.00013,-0.00039,-2e-05,-0.0001,2,30
6622,-7e-05,-7e-05,-0.00015,-0.00051,0.00013,-0.00039,-2e-05,-0.0001,2,30
6623,-7e-05,-7e-05,-0.00015,-0.00051,0.00013,-0.00039,-2e-05,-0.0001,2,30
6624,9e-05,1e-05,2e-05,-2e-05,0.00021,0.00049,-5e-05,7e-05,2,30
6625,4e-05,4e-05,0.00027,0.00047,8e-05,0.00036,0.00013,0.00012,2,30
6626,4e-05,4e-05,0.00027,0.00047,8e-05,0.00036,0.00013,0.00012,2,30
6627,4e-05,4e-05,0.00027,0.00047,8e-05,0.00036,0.00013,0.00012,2,30
6628,4e-05,4e-05,0.00027,0.00047,8e-05,0.00036,0.00013,0.00012,2,30
6629,4e-05,4e-05,0.00027,0.00047,8e-05,0.00036,0.00013,0.00012,2,30
6630,4e-05,4e-05,0.00027,0.00047,8e-05,0.00036,0.00013,0.00012,2,30
6631,4e-05,4e-05,0.00027,0.00047,8e-05,0.00036,0.00013,0.00012,2,30
6632,4e-05,4e-05,0.00027,0.00047,8e-05,0.00036,0.00013,0.00012,2,30
6633,4e-05,4e-05,0.00027,0.00047,8e-05,0.00036,0.00013,0.00012,2,30
6634,4e-05,4e-05,0.00027,0.00047,8e-05,0.00036,0.00013,0.00012,2,30
6635,4e-05,4e-05,0.00027,0.00047,8e-05,0.00036,0.00013,0.00012,2,30
6636,4e-05,4e-05,0.00027,0.00047,8e-05,0.00036,0.00013,0.00012,2,30
6638,-0.00011,-4e-05,-0.0001,-0.00015,-0.00036,0.00024,6e-05,-7e-05,2,30
6639,-0.00011,-4e-05,-0.0001,-0.00015,-0.00036,0.00024,6e-05,-7e-05,2,30
6640,-0.00011,-4e-05,-0.0001,-0.00015,-0.00036,0.00024,6e-05,-7e-05,2,30
6641,-0.00011,-4e-05,-0.0001,-0.00015,-0.00036,0.00024,6e-05,-7e-05,2,30
6642,-0.00011,-4e-05,-0.0001,-0.00015,-0.00036,0.00024,6e-05,-7e-05,2,30
6643,-0.00011,-4e-05,-0.0001,-0.00015,-0.00036,0.00024,6e-05,-7e-05,2,30
6644,-0.00011,-4e-05,-0.0001,-0.00015,-0.00036,0.00024,6e-05,-7e-05,2,30
6645,-0.00011,-4e-05,-0.0001,-0.00015,-0.00036,0.00024,6e-05,-7e-05,2,30
6646,2e-05,3e-05,0.00013,0.00046,-0.00031,-0.00026,0.00013,1e-05,2,30
6647,2e-05,3e-05,0.00013,0.00046,-0.00031,-0.00026,0.00013,1e-05,2,30
6648,2e-05,3e-05,0.00013,0.00046,-0.00031,-0.00026,0.00013,1e-05,2,30
6649,2e-05,3e-05,0.00013,0.00046,-0.00031,-0.00026,0.00013,1e-05,2,30
6650,2e-05,3e-05,0.00013,0.00046,-0.00031,-0.00026,0.00013,1e-05,2,30
6651,2e-05,3e-05,0.00013,0.00046,-0.00031,-0.00026,0.00013,1e-05,2,30
6652,2e-05,3e-05,0.00013,0.00046,-0.00031,-0.00026,0.00013,1e-05,2,30
6653,2e-05,3e-05,0.00013,0.00046,-0.00031,-0.00026,0.00013,1e-05,2,30
6654,2e-05,3e-05,0.00013,0.00046,-0.00031,-0.00026,0.00013,1e-05,2,30
6655,2e-05,3e-05,0.00013,0.00046,-0.00031,-0.00026,0.00013,1e-05,2,30
6656,2e-05,3e-05,0.00013,0.00046,-0.00031,-0.00026,0.00013,1e-05,2,30
6657,2e-05,3e-05,0.00013,0.00046,-0.00031,-0.00026,0.00013,1e-05,2,30
6658,2e-05,3e-05,0.00013,0.00046,-0.00031,-0.00026,0.00013,1e-05,2,30
6659,2e-05,3e-05,0.00013,0.00046,-0.00031,-0.00026,0.00013,1e-05,2,30
6660,2e-05,3e-05,0.00013,0.00046,-0.00031,-0.00026,0.00013,1e-05,2,30
6661,5e-05,-1e-05,-0.00011,5e-05,-0.00036,-0.00024,-0.00033,-3e-05,2,30
6662,5e-05,-1e-05,-0.00011,5e-05,-0.00036,-0.00024,-0.00033,-3e-05,2,30
6663,9e-05,4e-05,-4e-05,-3e-05,-8e-05,0.0007,0.0004,0.00018,2,30
6664,9e-05,4e-05,-4e-05,-3e-05,-8e-05,0.0007,0.0004,0.00018,2,30
6665,9e-05,4e-05,-4e-05,-3e-05,-8e-05,0.0007,0.0004,0.00018,2,30
6666,9e-05,4e-05,-4e-05,-3e-05,-8e-05,0.0007,0.0004,0.00018,2,30
6667,9e-05,4e-05,-4e-05,-3e-05,-8e-05,0.0007,0.0004,0.00018,2,30
6668,9e-05,4e-05,-4e-05,-3e-05,-8e-05,0.0007,0.0004,0.00018,2,30
6669,9e-05,4e-05,-4e-05,-3e-05,-8e-05,0.0007,0.0004,0.00018,2,30
6670,9e-05,4e-05,-4e-05,-3e-05,-8e-05,0.0007,0.0004,0.00018,2,30
6671,9e-05,4e-05,-4e-05,-3e-05,-8e-05,0.0007,0.0004,0.00018,2,30
6672,9e-05,4e-05,-4e-05,-3e-05,-8e-05,0.0007,0.0004,0.00018,2,30
6673,9e-05,4e-05,-4e-05,-3e-05,-8e-05,0.0007,0.0004,0.00018,2,30
6674,9e-05,4e-05,-4e-05,-3e-05,-8e-05,0.0007,0.0004,0.00018,2,30
6675,9e-05,4e-05,-4e-05,-3e-05,-8e-05,0.0007,0.0004,0.00018,2,30
6676,9e-05,4e-05,-4e-05,-3e-05,-8e-05,0.0007,0.0004,0.00018,2,30
6677,9e-05,4e-05,-4e-05,-3e-05,-8e-05,0.0007,0.0004,0.00018,2,30
6678,9e-05,4e-05,-4e-05,-3e-05,-8e-05,0.0007,0.0004,0.00018,2,30
6679,9e-05,4e-05,-4e-05,-3e-05,-8e-05,0.0007,0.0004,0.00018,2,30
6680,9e-05,4e-05,-4e-05,-3e-05,-8e-05,0.0007,0.0004,0.00018,2,30
6681,9e-05,4e-05,-4e-05,-3e-05,-8e-05,0.0007,0.0004,0.00018,2,30
6682,9e-05,4e-05,-4e-05,-3e-05,-8e-05,0.0007,0.0004,0.00018,2,30
6683,9e-05,4e-05,-4e-05,-3e-05,-8e-05,0.0007,0.0004,0.00018,2,30
6684,5e-05,6e-05,0.00019,0.00081,0.00062,-0.00059,0.00021,1e-05,2,30
6685,-0.00014,-7e-05,-6e-05,0.00024,0.00023,-1e-05,-0.00049,-0.00023,2,30
6687,-0.00014,-7e-05,-6e-05,0.00024,0.00023,-1e-05,-0.00049,-0.00023,2,30
6689,-0.00014,-7e-05,-6e-05,0.00024,0.00023,-1e-05,-0.00049,-0.00023,2,30
6690,-0.00014,-7e-05,-6e-05,0.00024,0.00023,-1e-05,-0.00049,-0.00023,2,30
6691,-0.00014,-7e-05,-6e-05,0.00024,0.00023,-1e-05,-0.00049,-0.00023,2,30
6692,-0.00014,-7e-05,-6e-05,0.00024,0.00023,-1e-05,-0.00049,-0.00023,2,30
6693,-0.00014,-7e-05,-6e-05,0.00024,0.00023,-1e-05,-0.00049,-0.00023,2,30
6694,-0.00014,-7e-05,-6e-05,0.00024,0.00023,-1e-05,-0.00049,-0.00023,2,30
6695,-0.00014,-7e-05,-6e-05,0.00024,0.00023,-1e-05,-0.00049,-0.00023,2,30
6696,-0.00014,-7e-05,-6e-05,0.00024,0.00023,-1e-05,-0.00049,-0.00023,2,30
6697,-0.00014,-7e-05,-6e-05,0.00024,0.00023,-1e-05,-0.00049,-0.00023,2,30
6698,-0.00014,-7e-05,-6e-05,0.00024,0.00023,-1e-05,-0.00049,-0.00023,2,30
6699,-0.00014,-7e-05,-6e-05,0.00024,0.00023,-1e-05,-0.00049,-0.00023,2,30
6700,-0.00014,-7e-05,-6e-05,0.00024,0.00023,-1e-05,-0.00049,-0.00023,2,30
6701,-0.00014,-7e-05,-6e-05,0.00024,0.00023,-1e-05,-0.00049,-0.00023,2,30
6702,-0.00014,-7e-05,-6e-05,0.00024,0.00023,-1e-05,-0.00049,-0.00023,2,30
6703,-0.00014,-7e-05,-6e-05,0.00024,0.00023,-1e-05,-0.00049,-0.00023,2,30
6704,-0.00014,-7e-05,-6e-05,0.00024,0.00023,-1e-05,-0.00049,-0.00023,2,30
6705,-0.00014,-7e-05,-6e-05,0.00024,0.00023,-1e-05,-0.00049,-0.00023,2,30
6706,-4e-05,-5e-05,-0.00016,-0.00067,-0.00025,-0.00013,-0.00054,-2e-05,2,30
6707,-4e-05,-5e-05,-0.00016,-0.00067,-0.00025,-0.00013,-0.00054,-2e-05,2,30
6708,0,2e-05,-3e-05,-0.00018,-0.00028,-0.0009,-0.00029,-5e-05,2,30
6709,0,2e-05,-3e-05,-0.00018,-0.00028,-0.0009,-0.00029,-5e-05,2,30
6710,0,2e-05,-3e-05,-0.00018,-0.00028,-0.0009,-0.00029,-5e-05,2,30
6711,0,2e-05,-3e-05,-0.00018,-0.00028,-0.0009,-0.00029,-5e-05,2,30
6712,0,2e-05,-3e-05,-0.00018,-0.00028,-0.0009,-0.00029,-5e-05,2,30
6713,0,2e-05,-3e-05,-0.00018,-0.00028,-0.0009,-0.00029,-5e-05,2,30
6714,0,2e-05,-3e-05,-0.00018,-0.00028,-0.0009,-0.00029,-5e-05,2,30
6715,0,2e-05,-3e-05,-0.00018,-0.00028,-0.0009,-0.00029,-5e-05,2,30
6716,0,2e-05,-3e-05,-0.00018,-0.00028,-0.0009,-0.00029,-5e-05,2,30
6717,0,2e-05,-3e-05,-0.00018,-0.00028,-0.0009,-0.00029,-5e-05,2,30
6718,0,2e-05,-3e-05,-0.00018,-0.00028,-0.0009,-0.00029,-5e-05,2,30
6719,0,2e-05,-3e-05,-0.00018,-0.00028,-0.0009,-0.00029,-5e-05,2,30
6720,0,2e-05,-3e-05,-0.00018,-0.00028,-0.0009,-0.00029,-5e-05,2,30
6721,-5e-05,-5e-05,-5e-05,-0.00019,-0.00023,-0.00024,-0.00047,-0.00014,2,30
6722,-5e-05,-5e-05,-5e-05,-0.00019,-0.00023,-0.00024,-0.00047,-0.00014,2,30
6723,-1e-05,8e-05,0.00019,-0.00016,-2e-05,0.00063,0.00022,1e-05,2,30
6724,-1e-05,8e-05,0.00019,-0.00016,-2e-05,0.00063,0.00022,1e-05,2,30
6725,-1e-05,8e-05,0.00019,-0.00016,-2e-05,0.00063,0.00022,1e-05,2,30
6726,-1e-05,8e-05,0.00019,-0.00016,-2e-05,0.00063,0.00022,1e-05,2,30
6727,-1e-05,8e-05,0.00019,-0.00016,-2e-05,0.00063,0.00022,1e-05,2,30
6728,-1e-05,8e-05,0.00019,-0.00016,-2e-05,0.00063,0.00022,1e-05,2,30
6729,-1e-05,8e-05,0.00019,-0.00016,-2e-05,0.00063,0.00022,1e-05,2,30
6730,-1e-05,8e-05,0.00019,-0.00016,-2e-05,0.00063,0.00022,1e-05,2,30
6731,-1e-05,8e-05,0.00019,-0.00016,-2e-05,0.00063,0.00022,1e-05,2,30
6732,-1e-05,8e-05,0.00019,-0.00016,-2e-05,0.00063,0.00022,1e-05,2,30
6733,-1e-05,8e-05,0.00019,-0.00016,-2e-05,0.00063,0.00022,1e-05,2,30
6734,-1e-05,8e-05,0.00019,-0.00016,-2e-05,0.00063,0.00022,1e-05,2,30
6735,-1e-05,8e-05,0.00019,-0.00016,-2e-05,0.00063,0.00022,1e-05,2,30
6736,-1e-05,8e-05,0.00019,-0.00016,-2e-05,0.00063,0.00022,1e-05,2,30
6738,-1e-05,8e-05,0.00019,-0.00016,-2e-05,0.00063,0.00022,1e-05,2,30
6739,-1e-05,8e-05,0.00019,-0.00016,-2e-05,0.00063,0.00022,1e-05,2,30
6740,-1e-05,8e-05,0.00019,-0.00016,-2e-05,0.00063,0.00022,1e-05,2,30
6741,-1e-05,8e-05,0.00019,-0.00016,-2e-05,0.00063,0.00022,1e-05,2,30
6742,-1e-05,8e-05,0.00019,-0.00016,-2e-05,0.00063,0.00022,1e-05,2,30
6743,-1e-05,8e-05,0.00019,-0.00016,-2e-05,0.00063,0.00022,1e-05,2,30
6744,-9e-05,-9e-05,-8e-05,-0.00029,-2e-05,-0.00013,0.00021,-1e-05,2,30
6745,-1e-05,-4e-05,-5e-05,-0.00046,0.00011,-0.00062,-4e-05,-0.00012,2,30
6746,-1e-05,-4e-05,-5e-05,-0.00046,0.00011,-0.00062,-4e-05,-0.00012,2,30
6747,-1e-05,-4e-05,-5e-05,-0.00046,0.00011,-0.00062,-4e-05,-0.00012,2,30
6748,-1e-05,-4e-05,-5e-05,-0.00046,0.00011,-0.00062,-4e-05,-0.00012,2,30
6749,-1e-05,-4e-05,-5e-05,-0.00046,0.00011,-0.00062,-4e-05,-0.00012,2,30
6750,-1e-05,-4e-05,-5e-05,-0.00046,0.00011,-0.00062,-4e-05,-0.00012,2,30
6751,-1e-05,-4e-05,-5e-05,-0.00046,0.00011,-0.00062,-4e-05,-0.00012,2,30
6752,-1e-05,-4e-05,-5e-05,-0.00046,0.00011,-0.00062,-4e-05,-0.00012,2,30
6753,-1e-05,-4e-05,-5e-05,-0.00046,0.00011,-0.00062,-4e-05,-0.00012,2,30
6754,-1e-05,-4e-05,-5e-05,-0.00046,0.00011,-0.00062,-4e-05,-0.00012,2,30
6755,-1e-05,-4e-05,-5e-05,-0.00046,0.00011,-0.00062,-4e-05,-0.00012,2,30
6756,-1e-05,-4e-05,-5e-05,-0.00046,0.00011,-0.00062,-4e-05,-0.00012,2,30
6757,-1e-05,-4e-05,-5e-05,-0.00046,0.00011,-0.00062,-4e-05,-0.00012,2,30
6758,-1e-05,-4e-05,-5e-05,-0.00046,0.00011,-0.00062,-4e-05,-0.00012,2,30
6759,-1e-05,-4e-05,-5e-05,-0.00046,0.00011,-0.00062,-4e-05,-0.00012,2,30
6760,-1e-05,-4e-05,-5e-05,-0.00046,0.00011,-0.00062,-4e-05,-0.00012,2,30
6761,-1e-05,-4e-05,-5e-05,-0.00046,0.00011,-0.00062,-4e-05,-0.00012,2,30
6762,-1e-05,-4e-05,-5e-05,-0.00046,0.00011,-0.00062,-4e-05,-0.00012,2,30
6763,-1e-05,-4e-05,-5e-05,-0.00046,0.00011,-0.00062,-4e-05,-0.00012,2,30
6764,-1e-05,-4e-05,-5e-05,-0.00046,0.00011,-0.00062,-4e-05,-0.00012,2,30
6765,-1e-05,-4e-05,-5e-05,-0.00046,0.00011,-0.00062,-4e-05,-0.00012,2,30
6766,-0.00017,-0.00012,-3e-05,1e-05,-8e-05,0.00076,-0.00016,-0.00027,2,30
6767,-0.00017,-0.00012,-3e-05,1e-05,-8e-05,0.00076,-0.00016,-0.00027,2,30
6768,0.0001,0,-3e-05,0.00024,0.00013,7e-05,-4e-05,0.00013,2,30
6769,0.0001,0,-3e-05,0.00024,0.00013,7e-05,-4e-05,0.00013,2,30
6770,0.0001,0,-3e-05,0.00024,0.00013,7e-05,-4e-05,0.00013,2,30
6771,0.0001,0,-3e-05,0.00024,0.00013,7e-05,-4e-05,0.00013,2,30
6772,0.0001,0,-3e-05,0.00024,0.00013,7e-05,-4e-05,0.00013,2,30
6773,0.0001,0,-3e-05,0.00024,0.00013,7e-05,-4e-05,0.00013,2,30
6774,0.0001,0,-3e-05,0.00024,0.00013,7e-05,-4e-05,0.00013,2,30
6775,0.0001,0,-3e-05,0.00024,0.00013,7e-05,-4e-05,0.00013,2,30
6776,0.0001,0,-3e-05,0.00024,0.00013,7e-05,-4e-05,0.00013,2,30
6777,0.0001,0,-3e-05,0.00024,0.00013,7e-05,-4e-05,0.00013,2,30
6778,0.0001,0,-3e-05,0.00024,0.00013,7e-05,-4e-05,0.00013,2,30
6779,0.0001,0,-3e-05,0.00024,0.00013,7e-05,-4e-05,0.00013,2,30
6780,0.0001,0,-3e-05,0.00024,0.00013,7e-05,-4e-05,0.00013,2,30
6781,0.00012,9e-05,5e-05,0.00038,0.00065,0.00087,0.00058,0.00017,2,30
6782,0.00012,9e-05,5e-05,0.00038,0.00065,0.00087,0.00058,0.00017,2,30
6783,1e-05,-3e-05,-2e-05,0.00035,9e-05,-0.00038,-0.0002,-3e-05,2,30
6784,1e-05,-3e-05,-2e-05,0.00035,9e-05,-0.00038,-0.0002,-3e-05,2,30
6785,1e-05,-3e-05,-2e-05,0.00035,9e-05,-0.00038,-0.0002,-3e-05,2,30
6786,1e-05,-3e-05,-2e-05,0.00035,9e-05,-0.00038,-0.0002,-3e-05,2,30
6788,1e-05,-3e-05,-2e-05,0.00035,9e-05,-0.00038,-0.0002,-3e-05,2,30
6789,1e-05,-3e-05,-2e-05,0.00035,9e-05,-0.00038,-0.0002,-3e-05,2,30
6790,1e-05,-3e-05,-2e-05,0.00035,9e-05,-0.00038,-0.0002,-3e-05,2,30
6791,1e-05,-3e-05,-2e-05,0.00035,9e-05,-0.00038,-0.0002,-3e-05,2,30
6792,1e-05,-3e-05,-2e-05,0.00035,9e-05,-0.00038,-0.0002,-3e-05,2,30
6793,1e-05,-3e-05,-2e-05,0.00035,9e-05,-0.00038,-0.0002,-3e-05,2,30
6794,1e-05,-3e-05,-2e-05,0.00035,9e-05,-0.00038,-0.0002,-3e-05,2,30
6795,1e-05,-3e-05,-2e-05,0.00035,9e-05,-0.00038,-0.0002,-3e-05,2,30
6796,1e-05,-3e-05,-2e-05,0.00035,9e-05,-0.00038,-0.0002,-3e-05,2,30
6797,1e-05,-3e-05,-2e-05,0.00035,9e-05,-0.00038,-0.0002,-3e-05,2,30
6798,1e-05,-3e-05,-2e-05,0.00035,9e-05,-0.00038,-0.0002,-3e-05,2,30
6799,1e-05,-3e-05,-2e-05,0.00035,9e-05,-0.00038,-0.0002,-3e-05,2,30
6800,1e-05,-3e-05,-2e-05,0.00035,9e-05,-0.00038,-0.0002,-3e-05,2,30
6801,1e-05,-3e-05,-2e-05,0.00035,9e-05,-0.00038,-0.0002,-3e-05,2,30
6802,1e-05,-3e-05,-2e-05,0.00035,9e-05,-0.00038,-0.0002,-3e-05,2,30
6803,1e-05,-3e-05,-2e-05,0.00035,9e-05,-0.00038,-0.0002,-3e-05,2,30
6804,-3e-05,4e-05,6e-05,0.00039,0.00012,4e-05,0.00027,7e-05,2,30
6805,-6e-05,-5e-05,-7e-05,-0.0001,8e-05,0.00111,-0.00048,-0.00015,2,30
6806,-6e-05,-5e-05,-7e-05,-0.0001,8e-05,0.00111,-0.00048,-0.00015,2,30
6807,-6e-05,-5e-05,-7e-05,-0.0001,8e-05,0.00111,-0.00048,-0.00015,2,30
6808,-6e-05,-5e-05,-7e-05,-0.0001,8e-05,0.00111,-0.00048,-0.00015,2,30
6809,-6e-05,-5e-05,-7e-05,-0.0001,8e-05,0.00111,-0.00048,-0.00015,2,30
6810,-6e-05,-5e-05,-7e-05,-0.0001,8e-05,0.00111,-0.00048,-0.00015,2,30
6811,-6e-05,-5e-05,-7e-05,-0.0001,8e-05,0.00111,-0.00048,-0.00015,2,30
6812,-6e-05,-5e-05,-7e-05,-0.0001,8e-05,0.00111,-0.00048,-0.00015,2,30
6813,-6e-05,-5e-05,-7e-05,-0.0001,8e-05,0.00111,-0.00048,-0.00015,2,30
6814,-6e-05,-5e-05,-7e-05,-0.0001,8e-05,0.00111,-0.00048,-0.00015,2,30
6815,-6e-05,-5e-05,-7e-05,-0.0001,8e-05,0.00111,-0.00048,-0.00015,2,30
6816,-6e-05,-5e-05,-7e-05,-0.0001,8e-05,0.00111,-0.00048,-0.00015,2,30
6817,-6e-05,-5e-05,-7e-05,-0.0001,8e-05,0.00111,-0.00048,-0.00015,2,30
6818,-6e-05,-5e-05,-7e-05,-0.0001,8e-05,0.00111,-0.00048,-0.00015,2,30
6819,-6e-05,-5e-05,-7e-05,-0.0001,8e-05,0.00111,-0.00048,-0.00015,2,30
6820,-6e-05,-5e-05,-7e-05,-0.0001,8e-05,0.00111,-0.00048,-0.00015,2,30
6821,-6e-05,-5e-05,-7e-05,-0.0001,8e-05,0.00111,-0.00048,-0.00015,2,30
6822,-6e-05,-5e-05,-7e-05,-0.0001,8e-05,0.00111,-0.00048,-0.00015,2,30
6823,-6e-05,-5e-05,-7e-05,-0.0001,8e-05,0.00111,-0.00048,-0.00015,2,30
6824,-6e-05,-5e-05,-7e-05,-0.0001,8e-05,0.00111,-0.00048,-0.00015,2,30
6825,-6e-05,-5e-05,-7e-05,-0.0001,8e-05,0.00111,-0.00048,-0.00015,2,30
6826,5e-05,-1e-05,4e-05,-0.0001,-0.00022,-0.00042,0.00023,6e-05,2,30
6827,5e-05,-1e-05,4e-05,-0.0001,-0.00022,-0.00042,0.00023,6e-05,2,30
6828,-7e-05,-8e-05,-0.0001,-0.00029,-0.00012,-0.00071,3e-05,4e-05,2,30
6829,-7e-05,-8e-05,-0.0001,-0.00029,-0.00012,-0.00071,3e-05,4e-05,2,30
6830,-7e-05,-8e-05,-0.0001,-0.00029,-0.00012,-0.00071,3e-05,4e-05,2,30
6831,-7e-05,-8e-05,-0.0001,-0.00029,-0.00012,-0.00071,3e-05,4e-05,2,30
6832,-7e-05,-8e-05,-0.0001,-0.00029,-0.00012,-0.00071,3e-05,4e-05,2,30
6833,-7e-05,-8e-05,-0.0001,-0.00029,-0.00012,-0.00071,3e-05,4e-05,2,30
6834,-7e-05,-8e-05,-0.0001,-0.00029,-0.00012,-0.00071,3e-05,4e-05,2,30
6835,-7e-05,-8e-05,-0.0001,-0.00029,-0.00012,-0.00071,3e-05,4e-05,2,30
6836,-7e-05,-8e-05,-0.0001,-0.00029,-0.00012,-0.00071,3e-05,4e-05,2,30
6839,-7e-05,-8e-05,-0.0001,-0.00029,-0.00012,-0.00071,3e-05,4e-05,2,30
6840,-7e-05,-8e-05,-0.0001,-0.00029,-0.00012,-0.00071,3e-05,4e-05,2,30
6841,7e-05,3e-05,5e-05,0.00015,0.00027,-0.00086,0.00016,5e-05,2,30
6842,7e-05,3e-05,5e-05,0.00015,0.00027,-0.00086,0.00016,5e-05,2,30
6843,8e-05,2e-05,-6e-05,0.00012,-3e-05,0.00106,0.0001,-1e-05,2,30
6844,8e-05,2e-05,-6e-05,0.00012,-3e-05,0.00106,0.0001,-1e-05,2,30
6845,8e-05,2e-05,-6e-05,0.00012,-3e-05,0.00106,0.0001,-1e-05,2,30
6846,8e-05,2e-05,-6e-05,0.00012,-3e-05,0.00106,0.0001,-1e-05,2,30
6847,8e-05,2e-05,-6e-05,0.00012,-3e-05,0.00106,0.0001,-1e-05,2,30
6848,8e-05,2e-05,-6e-05,0.00012,-3e-05,0.00106,0.0001,-1e-05,2,30
6849,8e-05,2e-05,-6e-05,0.00012,-3e-05,0.00106,0.0001,-1e-05,2,30
6850,8e-05,2e-05,-6e-05,0.00012,-3e-05,0.00106,0.0001,-1e-05,2,30
6851,8e-05,2e-05,-6e-05,0.00012,-3e-05,0.00106,0.0001,-1e-05,2,30
6852,8e-05,2e-05,-6e-05,0.00012,-3e-05,0.00106,0.0001,-1e-05,2,30
6853,8e-05,2e-05,-6e-05,0.00012,-3e-05,0.00106,0.0001,-1e-05,2,30
6854,8e-05,2e-05,-6e-05,0.00012,-3e-05,0.00106,0.0001,-1e-05,2,30
6855,8e-05,2e-05,-6e-05,0.00012,-3e-05,0.00106,0.0001,-1e-05,2,30
6856,8e-05,2e-05,-6e-05,0.00012,-3e-05,0.00106,0.0001,-1e-05,2,30
6857,8e-05,2e-05,-6e-05,0.00012,-3e-05,0.00106,0.0001,-1e-05,2,30
6858,8e-05,2e-05,-6e-05,0.00012,-3e-05,0.00106,0.0001,-1e-05,2,30
6859,8e-05,2e-05,-6e-05,0.00012,-3e-05,0.00106,0.0001,-1e-05,2,30
6860,8e-05,2e-05,-6e-05,0.00012,-3e-05,0.00106,0.0001,-1e-05,2,30
6861,8e-05,2e-05,-6e-05,0.00012,-3e-05,0.00106,0.0001,-1e-05,2,30
6863,8e-05,2e-05,-6e-05,0.00012,-3e-05,0.00106,0.0001,-1e-05,2,30
6864,0,3e-05,6e-05,8e-05,-7e-05,-0.00029,-0.00059,-0.00012,2,30
6865,3e-05,4e-05,6e-05,-3e-05,1e-05,-0.00046,-3e-05,1e-05,2,30
6866,3e-05,4e-05,6e-05,-3e-05,1e-05,-0.00046,-3e-05,1e-05,2,30
6867,3e-05,4e-05,6e-05,-3e-05,1e-05,-0.00046,-3e-05,1e-05,2,30
6868,3e-05,4e-05,6e-05,-3e-05,1e-05,-0.00046,-3e-05,1e-05,2,30
6869,3e-05,4e-05,6e-05,-3e-05,1e-05,-0.00046,-3e-05,1e-05,2,30
6870,3e-05,4e-05,6e-05,-3e-05,1e-05,-0.00046,-3e-05,1e-05,2,30
6871,3e-05,4e-05,6e-05,-3e-05,1e-05,-0.00046,-3e-05,1e-05,2,30
6872,3e-05,4e-05,6e-05,-3e-05,1e-05,-0.00046,-3e-05,1e-05,2,30
6873,3e-05,4e-05,6e-05,-3e-05,1e-05,-0.00046,-3e-05,1e-05,2,30
6874,3e-05,4e-05,6e-05,-3e-05,1e-05,-0.00046,-3e-05,1e-05,2,30
6875,3e-05,4e-05,6e-05,-3e-05,1e-05,-0.00046,-3e-05,1e-05,2,30
6876,3e-05,4e-05,6e-05,-3e-05,1e-05,-0.00046,-3e-05,1e-05,2,30
6877,3e-05,4e-05,6e-05,-3e-05,1e-05,-0.00046,-3e-05,1e-05,2,30
6878,3e-05,4e-05,6e-05,-3e-05,1e-05,-0.00046,-3e-05,1e-05,2,30
6879,3e-05,4e-05,6e-05,-3e-05,1e-05,-0.00046,-3e-05,1e-05,2,30
6880,3e-05,4e-05,6e-05,-3e-05,1e-05,-0.00046,-3e-05,1e-05,2,30
6881,3e-05,4e-05,6e-05,-3e-05,1e-05,-0.00046,-3e-05,1e-05,2,30
6882,3e-05,4e-05,6e-05,-3e-05,1e-05,-0.00046,-3e-05,1e-05,2,30
6883,3e-05,4e-05,6e-05,-3e-05,1e-05,-0.00046,-3e-05,1e-05,2,30
6884,3e-05,4e-05,6e-05,-3e-05,1e-05,-0.00046,-3e-05,1e-05,2,30
6885,3e-05,4e-05,6e-05,-3e-05,1e-05,-0.00046,-3e-05,1e-05,2,30
6886,5e-05,-4e-05,-8e-05,-0.00016,-8e-05,0.00067,0.00024,0.00012,2,30
6889,-4e-05,-4e-05,-8e-05,-0.00028,-5e-05,-0.00018,0.00016,-2e-05,2,30
6890,-4e-05,-4e-05,-8e-05,-0.00028,-5e-05,-0.00018,0.00016,-2e-05,2,30
6891,-4e-05,-4e-05,-8e-05,-0.00028,-5e-05,-0.00018,0.00016,-2e-05,2,30
6892,-4e-05,-4e-05,-8e-05,-0.00028,-5e-05,-0.00018,0.00016,-2e-05,2,30
6893,-4e-05,-4e-05,-8e-05,-0.00028,-5e-05,-0.00018,0.00016,-2e-05,2,30
6894,-4e-05,-4e-05,-8e-05,-0.00028,-5e-05,-0.00018,0.00016,-2e-05,2,30
6895,-4e-05,-4e-05,-8e-05,-0.00028,-5e-05,-0.00018,0.00016,-2e-05,2,30
6896,-4e-05,-4e-05,-8e-05,-0.00028,-5e-05,-0.00018,0.00016,-2e-05,2,30
6897,-4e-05,-4e-05,-8e-05,-0.00028,-5e-05,-0.00018,0.00016,-2e-05,2,30
6898,-4e-05,-4e-05,-8e-05,-0.00028,-5e-05,-0.00018,0.00016,-2e-05,2,30
6899,-4e-05,-4e-05,-8e-05,-0.00028,-5e-05,-0.00018,0.00016,-2e-05,2,30
6900,2e-05,0,2e-05,-2e-05,4e-05,0.00049,-0.00035,-4e-05,2,30
6901,0,-4e-05,-1e-05,-0.00017,-0.00015,-1e-05,0.00025,2e-05,2,30
6902,0,-4e-05,-1e-05,-0.00017,-0.00015,-1e-05,0.00025,2e-05,2,30
6903,0,-4e-05,-1e-05,-0.00017,-0.00015,-1e-05,0.00025,2e-05,2,30
6904,0,-4e-05,-1e-05,-0.00017,-0.00015,-1e-05,0.00025,2e-05,2,30
6905,0,-4e-05,-1e-05,-0.00017,-0.00015,-1e-05,0.00025,2e-05,2,30
6906,0,-4e-05,-1e-05,-0.00017,-0.00015,-1e-05,0.00025,2e-05,2,30
6907,-8e-05,-2e-05,0,0.00022,0.00047,-0.00045,-0.00041,-0.00015,2,30
6908,-8e-05,-2e-05,0,0.00022,0.00047,-0.00045,-0.00041,-0.00015,2,30
6909,-8e-05,-2e-05,0,0.00022,0.00047,-0.00045,-0.00041,-0.00015,2,30
6910,-8e-05,-2e-05,0,0.00022,0.00047,-0.00045,-0.00041,-0.00015,2,30
6911,-8e-05,-2e-05,0,0.00022,0.00047,-0.00045,-0.00041,-0.00015,2,30
6912,-8e-05,-2e-05,0,0.00022,0.00047,-0.00045,-0.00041,-0.00015,2,30
6913,-8e-05,-2e-05,0,0.00022,0.00047,-0.00045,-0.00041,-0.00015,2,30
6914,-8e-05,-2e-05,0,0.00022,0.00047,-0.00045,-0.00041,-0.00015,2,30
6915,-8e-05,-2e-05,0,0.00022,0.00047,-0.00045,-0.00041,-0.00015,2,30
6916,-8e-05,-2e-05,0,0.00022,0.00047,-0.00045,-0.00041,-0.00015,2,30
6917,-8e-05,-2e-05,0,0.00022,0.00047,-0.00045,-0.00041,-0.00015,2,30
6918,-8e-05,-2e-05,0,0.00022,0.00047,-0.00045,-0.00041,-0.00015,2,30
6919,-8e-05,-2e-05,0,0.00022,0.00047,-0.00045,-0.00041,-0.00015,2,30
6920,-8e-05,-2e-05,0,0.00022,0.00047,-0.00045,-0.00041,-0.00015,2,30
6921,-8e-05,-2e-05,0,0.00022,0.00047,-0.00045,-0.00041,-0.00015,2,30
6922,-8e-05,-2e-05,0,0.00022,0.00047,-0.00045,-0.00041,-0.00015,2,30
6923,-8e-05,-2e-05,0,0.00022,0.00047,-0.00045,-0.00041,-0.00015,2,30
6924,-6e-05,0,5e-05,-0.00012,-4e-05,-0.00072,-0.00118,-0.00014,2,30
6925,-2e-05,-7e-05,-1e-05,0.00032,-2e-05,0.00034,-0.00013,-6e-05,2,30
6926,-9e-05,-0.0001,-0.00035,-0.00081,-0.00043,-4e-05,-0.00011,-1e-05,2,30
6927,-9e-05,-0.0001,-0.00035,-0.00081,-0.00043,-4e-05,-0.00011,-1e-05,2,30
6928,-9e-05,-0.0001,-0.00035,-0.00081,-0.00043,-4e-05,-0.00011,-1e-05,2,30
6929,-9e-05,-0.0001,-0.00035,-0.00081,-0.00043,-4e-05,-0.00011,-1e-05,2,30
6930,-9e-05,-0.0001,-0.00035,-0.00081,-0.00043,-4e-05,-0.00011,-1e-05,2,30
6931,-9e-05,-0.0001,-0.00035,-0.00081,-0.00043,-4e-05,-0.00011,-1e-05,2,30
6932,-9e-05,-0.0001,-0.00035,-0.00081,-0.00043,-4e-05,-0.00011,-1e-05,2,30
6933,-9e-05,-0.0001,-0.00035,-0.00081,-0.00043,-4e-05,-0.00011,-1e-05,2,30
6934,-9e-05,-0.0001,-0.00035,-0.00081,-0.00043,-4e-05,-0.00011,-1e-05,2,30
6935,-9e-05,-0.0001,-0.00035,-0.00081,-0.00043,-4e-05,-0.00011,-1e-05,2,30
6936,-9e-05,-0.0001,-0.00035,-0.00081,-0.00043,-4e-05,-0.00011,-1e-05,2,30
6938,-9e-05,-0.0001,-0.00035,-0.00081,-0.00043,-4e-05,-0.00011,-1e-05,2,30
6940,-9e-05,-0.0001,-0.00035,-0.00081,-0.00043,-4e-05,-0.00011,-1e-05,2,30
6941,-9e-05,-0.0001,-0.00035,-0.00081,-0.00043,-4e-05,-0.00011,-1e-05,2,30
6942,-9e-05,-0.0001,-0.00035,-0.00081,-0.00043,-4e-05,-0.00011,-1e-05,2,30
6943,-9e-05,-0.0001,-0.00035,-0.00081,-0.00043,-4e-05,-0.00011,-1e-05,2,30
6944,-9e-05,-0.0001,-0.00035,-0.00081,-0.00043,-4e-05,-0.00011,-1e-05,2,30
6945,-9e-05,-0.0001,-0.00035,-0.00081,-0.00043,-4e-05,-0.00011,-1e-05,2,30
6946,-4e-05,-3e-05,-5e-05,-5e-05,-0.00014,0.00032,0.00032,-7e-05,2,30
6947,-4e-05,-3e-05,-5e-05,-5e-05,-0.00014,0.00032,0.00032,-7e-05,2,30
6948,-9e-05,-8e-05,7e-05,0.00033,-0.00043,3e-05,0.00015,3e-05,2,30
6949,-9e-05,-8e-05,7e-05,0.00033,-0.00043,3e-05,0.00015,3e-05,2,30
6950,-9e-05,-8e-05,7e-05,0.00033,-0.00043,3e-05,0.00015,3e-05,2,30
6951,-9e-05,-8e-05,7e-05,0.00033,-0.00043,3e-05,0.00015,3e-05,2,30
6952,-9e-05,-8e-05,7e-05,0.00033,-0.00043,3e-05,0.00015,3e-05,2,30
6953,-9e-05,-8e-05,7e-05,0.00033,-0.00043,3e-05,0.00015,3e-05,2,30
6954,-9e-05,-8e-05,7e-05,0.00033,-0.00043,3e-05,0.00015,3e-05,2,30
6955,-9e-05,-8e-05,7e-05,0.00033,-0.00043,3e-05,0.00015,3e-05,2,30
6956,-9e-05,-8e-05,7e-05,0.00033,-0.00043,3e-05,0.00015,3e-05,2,30
6957,-9e-05,-8e-05,7e-05,0.00033,-0.00043,3e-05,0.00015,3e-05,2,30
6958,-9e-05,-8e-05,7e-05,0.00033,-0.00043,3e-05,0.00015,3e-05,2,30
6959,-9e-05,-8e-05,7e-05,0.00033,-0.00043,3e-05,0.00015,3e-05,2,30
6960,-5e-05,-0.0001,-0.00018,-0.00059,-0.00033,-0.00058,-0.00016,-5e-05,2,30
6961,-0.00011,-8e-05,-0.00014,0.00039,0.00031,0.0002,-0.0003,-0.00022,2,30
6962,-0.00011,-8e-05,-0.00014,0.00039,0.00031,0.0002,-0.0003,-0.00022,2,30
6963,-0.00011,-8e-05,-0.00014,0.00039,0.00031,0.0002,-0.0003,-0.00022,2,30
6964,-0.00011,-8e-05,-0.00014,0.00039,0.00031,0.0002,-0.0003,-0.00022,2,30
6965,-0.00011,-8e-05,-0.00014,0.00039,0.00031,0.0002,-0.0003,-0.00022,2,30
6966,-0.00011,-8e-05,-0.00014,0.00039,0.00031,0.0002,-0.0003,-0.00022,2,30
6967,-2e-05,-2e-05,-8e-05,0.0001,-6e-05,-0.00042,0.0002,-0.0001,2,30
6968,-2e-05,-2e-05,-8e-05,0.0001,-6e-05,-0.00042,0.0002,-0.0001,2,30
6969,-2e-05,-2e-05,-8e-05,0.0001,-6e-05,-0.00042,0.0002,-0.0001,2,30
6970,-2e-05,-2e-05,-8e-05,0.0001,-6e-05,-0.00042,0.0002,-0.0001,2,30
6971,-2e-05,-2e-05,-8e-05,0.0001,-6e-05,-0.00042,0.0002,-0.0001,2,30
6972,-2e-05,-2e-05,-8e-05,0.0001,-6e-05,-0.00042,0.0002,-0.0001,2,30
6973,-2e-05,-2e-05,-8e-05,0.0001,-6e-05,-0.00042,0.0002,-0.0001,2,30
6974,-2e-05,-2e-05,-8e-05,0.0001,-6e-05,-0.00042,0.0002,-0.0001,2,30
6975,-2e-05,-2e-05,-8e-05,0.0001,-6e-05,-0.00042,0.0002,-0.0001,2,30
6976,-2e-05,-2e-05,-8e-05,0.0001,-6e-05,-0.00042,0.0002,-0.0001,2,30
6977,-2e-05,-2e-05,-8e-05,0.0001,-6e-05,-0.00042,0.0002,-0.0001,2,30
6978,-2e-05,-2e-05,-8e-05,0.0001,-6e-05,-0.00042,0.0002,-0.0001,2,30
6979,-2e-05,-2e-05,-8e-05,0.0001,-6e-05,-0.00042,0.0002,-0.0001,2,30
6980,-2e-05,-2e-05,-8e-05,0.0001,-6e-05,-0.00042,0.0002,-0.0001,2,30
6981,-2e-05,-2e-05,-8e-05,0.0001,-6e-05,-0.00042,0.0002,-0.0001,2,30
6982,-2e-05,-2e-05,-8e-05,0.0001,-6e-05,-0.00042,0.0002,-0.0001,2,30
6983,-2e-05,-2e-05,-8e-05,0.0001,-6e-05,-0.00042,0.0002,-0.0001,2,30
6984,-5e-05,-6e-05,-2e-05,-6e-05,-5e-05,0.00017,0.00011,0,2,30
6985,3e-05,5e-05,-1e-05,-9e-05,0.0001,-0.00025,2e-05,4e-05,2,30
6986,3e-05,5e-05,-1e-05,-9e-05,0.0001,-0.00025,2e-05,4e-05,2,30
6988,3e-05,5e-05,-1e-05,-9e-05,0.0001,-0.00025,2e-05,4e-05,2,30
6989,3e-05,5e-05,-1e-05,-9e-05,0.0001,-0.00025,2e-05,4e-05,2,30
6990,3e-05,5e-05,-1e-05,-9e-05,0.0001,-0.00025,2e-05,4e-05,2,30
6991,3e-05,5e-05,-1e-05,-9e-05,0.0001,-0.00025,2e-05,4e-05,2,30
6992,3e-05,5e-05,-1e-05,-9e-05,0.0001,-0.00025,2e-05,4e-05,2,30
6993,3e-05,5e-05,-1e-05,-9e-05,0.0001,-0.00025,2e-05,4e-05,2,30
6994,3e-05,5e-05,-1e-05,-9e-05,0.0001,-0.00025,2e-05,4e-05,2,30
6995,3e-05,5e-05,-1e-05,-9e-05,0.0001,-0.00025,2e-05,4e-05,2,30
6996,3e-05,5e-05,-1e-05,-9e-05,0.0001,-0.00025,2e-05,4e-05,2,30
6997,3e-05,5e-05,-1e-05,-9e-05,0.0001,-0.00025,2e-05,4e-05,2,30
6998,3e-05,5e-05,-1e-05,-9e-05,0.0001,-0.00025,2e-05,4e-05,2,30
6999,3e-05,5e-05,-1e-05,-9e-05,0.0001,-0.00025,2e-05,4e-05,2,30
7000,3e-05,5e-05,-1e-05,-9e-05,0.0001,-0.00025,2e-05,4e-05,2,30
7001,3e-05,5e-05,-1e-05,-9e-05,0.0001,-0.00025,2e-05,4e-05,2,30
7002,3e-05,5e-05,-1e-05,-9e-05,0.0001,-0.00025,2e-05,4e-05,2,30
7003,3e-05,5e-05,-1e-05,-9e-05,0.0001,-0.00025,2e-05,4e-05,2,30
7004,3e-05,5e-05,-1e-05,-9e-05,0.0001,-0.00025,2e-05,4e-05,2,30
7005,3e-05,5e-05,-1e-05,-9e-05,0.0001,-0.00025,2e-05,4e-05,2,30
7006,7e-05,3e-05,-0.00016,-0.00018,0.00023,7e-05,0.00038,0.00014,2,30
7007,7e-05,3e-05,-0.00016,-0.00018,0.00023,7e-05,0.00038,0.00014,2,30
7008,7e-05,3e-05,7e-05,-0.00015,-0.00029,-0.00057,0.00031,3e-05,2,30
7009,7e-05,3e-05,7e-05,-0.00015,-0.00029,-0.00057,0.00031,3e-05,2,30
7010,7e-05,3e-05,7e-05,-0.00015,-0.00029,-0.00057,0.00031,3e-05,2,30
7011,7e-05,3e-05,7e-05,-0.00015,-0.00029,-0.00057,0.00031,3e-05,2,30
7012,7e-05,3e-05,7e-05,-0.00015,-0.00029,-0.00057,0.00031,3e-05,2,30
7013,7e-05,3e-05,7e-05,-0.00015,-0.00029,-0.00057,0.00031,3e-05,2,30
7014,7e-05,3e-05,7e-05,-0.00015,-0.00029,-0.00057,0.00031,3e-05,2,30
7015,7e-05,3e-05,7e-05,-0.00015,-0.00029,-0.00057,0.00031,3e-05,2,30
7016,7e-05,3e-05,7e-05,-0.00015,-0.00029,-0.00057,0.00031,3e-05,2,30
7017,7e-05,3e-05,7e-05,-0.00015,-0.00029,-0.00057,0.00031,3e-05,2,30
7018,7e-05,3e-05,7e-05,-0.00015,-0.00029,-0.00057,0.00031,3e-05,2,30
7019,7e-05,3e-05,7e-05,-0.00015,-0.00029,-0.00057,0.00031,3e-05,2,30
7020,-0.0001,-5e-05,-3e-05,-0.00024,-0.00022,0.00058,0.00024,-7e-05,2,30
7021,-0.0001,-5e-05,-3e-05,-0.00024,-0.00022,0.00058,0.00024,-7e-05,2,30
7022,-0.0001,-5e-05,-3e-05,-0.00024,-0.00022,0.00058,0.00024,-7e-05,2,30
7023,-0.0001,-5e-05,-3e-05,-0.00024,-0.00022,0.00058,0.00024,-7e-05,2,30
7024,-0.0001,-5e-05,-3e-05,-0.00024,-0.00022,0.00058,0.00024,-7e-05,2,30
7025,-0.0001,-5e-05,-3e-05,-0.00024,-0.00022,0.00058,0.00024,-7e-05,2,30
7026,-0.0001,-5e-05,-3e-05,-0.00024,-0.00022,0.00058,0.00024,-7e-05,2,30
7027,-7e-05,-2e-05,3e-05,-0.00022,-0.00013,0.0001,-0.0001,-1e-05,2,30
7028,-7e-05,-2e-05,3e-05,-0.00022,-0.00013,0.0001,-0.0001,-1e-05,2,30
7029,-7e-05,-2e-05,3e-05,-0.00022,-0.00013,0.0001,-0.0001,-1e-05,2,30
7030,-7e-05,-2e-05,3e-05,-0.00022,-0.00013,0.0001,-0.0001,-1e-05,2,30
7031,-7e-05,-2e-05,3e-05,-0.00022,-0.00013,0.0001,-0.0001,-1e-05,2,30
7032,-7e-05,-2e-05,3e-05,-0.00022,-0.00013,0.0001,-0.0001,-1e-05,2,30
7033,-7e-05,-2e-05,3e-05,-0.00022,-0.00013,0.0001,-0.0001,-1e-05,2,30
7034,-7e-05,-2e-05,3e-05,-0.00022,-0.00013,0.0001,-0.0001,-1e-05,2,30
7035,-7e-05,-2e-05,3e-05,-0.00022,-0.00013,0.0001,-0.0001,-1e-05,2,30
7036,-7e-05,-2e-05,3e-05,-0.00022,-0.00013,0.0001,-0.0001,-1e-05,2,30
7038,-7e-05,-2e-05,3e-05,-0.00022,-0.00013,0.0001,-0.0001,-1e-05,2,30
7039,-7e-05,-2e-05,3e-05,-0.00022,-0.00013,0.0001,-0.0001,-1e-05,2,30
7040,-7e-05,-2e-05,3e-05,-0.00022,-0.00013,0.0001,-0.0001,-1e-05,2,30
7041,-7e-05,-2e-05,3e-05,-0.00022,-0.00013,0.0001,-0.0001,-1e-05,2,30
7042,-7e-05,-2e-05,3e-05,-0.00022,-0.00013,0.0001,-0.0001,-1e-05,2,30
7043,-7e-05,-2e-05,3e-05,-0.00022,-0.00013,0.0001,-0.0001,-1e-05,2,30
7044,-5e-05,-3e-05,5e-05,2e-05,-0.00018,-0.00064,-0.00046,-3e-05,2,30
7045,2e-05,0,7e-05,4e-05,-0.00015,6e-05,-0.0005,-0.00012,2,30
7047,2e-05,0,7e-05,4e-05,-0.00015,6e-05,-0.0005,-0.00012,2,30
7048,2e-05,0,7e-05,4e-05,-0.00015,6e-05,-0.0005,-0.00012,2,30
7049,2e-05,0,7e-05,4e-05,-0.00015,6e-05,-0.0005,-0.00012,2,30
7050,2e-05,0,7e-05,4e-05,-0.00015,6e-05,-0.0005,-0.00012,2,30
7051,2e-05,0,7e-05,4e-05,-0.00015,6e-05,-0.0005,-0.00012,2,30
7052,2e-05,0,7e-05,4e-05,-0.00015,6e-05,-0.0005,-0.00012,2,30
7053,2e-05,0,7e-05,4e-05,-0.00015,6e-05,-0.0005,-0.00012,2,30
7054,2e-05,0,7e-05,4e-05,-0.00015,6e-05,-0.0005,-0.00012,2,30
7055,2e-05,0,7e-05,4e-05,-0.00015,6e-05,-0.0005,-0.00012,2,30
7056,2e-05,0,7e-05,4e-05,-0.00015,6e-05,-0.0005,-0.00012,2,30
7057,2e-05,0,7e-05,4e-05,-0.00015,6e-05,-0.0005,-0.00012,2,30
7058,2e-05,0,7e-05,4e-05,-0.00015,6e-05,-0.0005,-0.00012,2,30
7059,2e-05,0,7e-05,4e-05,-0.00015,6e-05,-0.0005,-0.00012,2,30
7060,2e-05,0,7e-05,4e-05,-0.00015,6e-05,-0.0005,-0.00012,2,30
7061,2e-05,0,7e-05,4e-05,-0.00015,6e-05,-0.0005,-0.00012,2,30
7062,2e-05,0,7e-05,4e-05,-0.00015,6e-05,-0.0005,-0.00012,2,30
7063,2e-05,0,7e-05,4e-05,-0.00015,6e-05,-0.0005,-0.00012,2,30
7064,2e-05,0,7e-05,4e-05,-0.00015,6e-05,-0.0005,-0.00012,2,30
7065,2e-05,0,7e-05,4e-05,-0.00015,6e-05,-0.0005,-0.00012,2,30
7066,1e-05,3e-05,0.00012,0.00027,0.00015,0,-4e-05,2e-05,2,30
7067,1e-05,3e-05,0.00012,0.00027,0.00015,0,-4e-05,2e-05,2,30
7068,6e-05,3e-05,-0.00011,-0.00012,2e-05,0.00033,0.00076,0.00012,2,30
7069,6e-05,3e-05,-0.00011,-0.00012,2e-05,0.00033,0.00076,0.00012,2,30
7070,6e-05,3e-05,-0.00011,-0.00012,2e-05,0.00033,0.00076,0.00012,2,30
7071,6e-05,3e-05,-0.00011,-0.00012,2e-05,0.00033,0.00076,0.00012,2,30
7072,6e-05,3e-05,-0.00011,-0.00012,2e-05,0.00033,0.00076,0.00012,2,30
7073,6e-05,3e-05,-0.00011,-0.00012,2e-05,0.00033,0.00076,0.00012,2,30
7074,6e-05,3e-05,-0.00011,-0.00012,2e-05,0.00033,0.00076,0.00012,2,30
7075,6e-05,3e-05,-0.00011,-0.00012,2e-05,0.00033,0.00076,0.00012,2,30
7076,6e-05,3e-05,-0.00011,-0.00012,2e-05,0.00033,0.00076,0.00012,2,30
7077,6e-05,3e-05,-0.00011,-0.00012,2e-05,0.00033,0.00076,0.00012,2,30
7078,6e-05,3e-05,-0.00011,-0.00012,2e-05,0.00033,0.00076,0.00012,2,30
7079,6e-05,3e-05,-0.00011,-0.00012,2e-05,0.00033,0.00076,0.00012,2,30
7080,2e-05,0,-1e-05,-5e-05,0.00021,0,-0.00032,0,2,30
7081,1e-05,4e-05,5e-05,-0.00012,-0.00026,-0.00021,0.00029,0.00011,2,30
7082,1e-05,4e-05,5e-05,-0.00012,-0.00026,-0.00021,0.00029,0.00011,2,30
7083,1e-05,4e-05,5e-05,-0.00012,-0.00026,-0.00021,0.00029,0.00011,2,30
7084,1e-05,4e-05,5e-05,-0.00012,-0.00026,-0.00021,0.00029,0.00011,2,30
7085,1e-05,4e-05,5e-05,-0.00012,-0.00026,-0.00021,0.00029,0.00011,2,30
7086,1e-05,4e-05,5e-05,-0.00012,-0.00026,-0.00021,0.00029,0.00011,2,30
7089,-5e-05,-3e-05,-0.00011,-0.00037,6e-05,6e-05,-6e-05,-6e-05,2,30
7090,-5e-05,-3e-05,-0.00011,-0.00037,6e-05,6e-05,-6e-05,-6e-05,2,30
7091,-5e-05,-3e-05,-0.00011,-0.00037,6e-05,6e-05,-6e-05,-6e-05,2,30
7092,-5e-05,-3e-05,-0.00011,-0.00037,6e-05,6e-05,-6e-05,-6e-05,2,30
7093,-5e-05,-3e-05,-0.00011,-0.00037,6e-05,6e-05,-6e-05,-6e-05,2,30
7094,-5e-05,-3e-05,-0.00011,-0.00037,6e-05,6e-05,-6e-05,-6e-05,2,30
7095,-5e-05,-3e-05,-0.00011,-0.00037,6e-05,6e-05,-6e-05,-6e-05,2,30
7096,-5e-05,-3e-05,-0.00011,-0.00037,6e-05,6e-05,-6e-05,-6e-05,2,30
7097,-5e-05,-3e-05,-0.00011,-0.00037,6e-05,6e-05,-6e-05,-6e-05,2,30
7098,-5e-05,-3e-05,-0.00011,-0.00037,6e-05,6e-05,-6e-05,-6e-05,2,30
7099,-5e-05,-3e-05,-0.00011,-0.00037,6e-05,6e-05,-6e-05,-6e-05,2,30
7100,-5e-05,-3e-05,-0.00011,-0.00037,6e-05,6e-05,-6e-05,-6e-05,2,30
7101,-5e-05,-3e-05,-0.00011,-0.00037,6e-05,6e-05,-6e-05,-6e-05,2,30
7102,-5e-05,-3e-05,-0.00011,-0.00037,6e-05,6e-05,-6e-05,-6e-05,2,30
7103,-5e-05,-3e-05,-0.00011,-0.00037,6e-05,6e-05,-6e-05,-6e-05,2,30
7104,-0.00013,-7e-05,-0.00011,-0.00022,-3e-05,0.0005,0.00015,-0.00022,2,30
7105,0.00012,1e-05,-3e-05,-8e-05,-0.0001,0,0.0001,0.0001,2,30
7106,-0.00021,-9e-05,-1e-05,0.00027,-6e-05,-0.00018,-0.00066,-0.00022,2,30
7107,-0.00021,-9e-05,-1e-05,0.00027,-6e-05,-0.00018,-0.00066,-0.00022,2,30
7108,-0.00021,-9e-05,-1e-05,0.00027,-6e-05,-0.00018,-0.00066,-0.00022,2,30
7109,-0.00021,-9e-05,-1e-05,0.00027,-6e-05,-0.00018,-0.00066,-0.00022,2,30
7110,-0.00021,-9e-05,-1e-05,0.00027,-6e-05,-0.00018,-0.00066,-0.00022,2,30
7111,-0.00021,-9e-05,-1e-05,0.00027,-6e-05,-0.00018,-0.00066,-0.00022,2,30
7112,-0.00021,-9e-05,-1e-05,0.00027,-6e-05,-0.00018,-0.00066,-0.00022,2,30
7113,-0.00021,-9e-05,-1e-05,0.00027,-6e-05,-0.00018,-0.00066,-0.00022,2,30
7114,-0.00021,-9e-05,-1e-05,0.00027,-6e-05,-0.00018,-0.00066,-0.00022,2,30
7115,-0.00021,-9e-05,-1e-05,0.00027,-6e-05,-0.00018,-0.00066,-0.00022,2,30
7116,-0.00021,-9e-05,-1e-05,0.00027,-6e-05,-0.00018,-0.00066,-0.00022,2,30
7117,-0.00021,-9e-05,-1e-05,0.00027,-6e-05,-0.00018,-0.00066,-0.00022,2,30
7118,-0.00021,-9e-05,-1e-05,0.00027,-6e-05,-0.00018,-0.00066,-0.00022,2,30
7119,-0.00021,-9e-05,-1e-05,0.00027,-6e-05,-0.00018,-0.00066,-0.00022,2,30
7120,-0.00021,-9e-05,-1e-05,0.00027,-6e-05,-0.00018,-0.00066,-0.00022,2,30
7121,-0.00021,-9e-05,-1e-05,0.00027,-6e-05,-0.00018,-0.00066,-0.00022,2,30
7122,-0.00021,-9e-05,-1e-05,0.00027,-6e-05,-0.00018,-0.00066,-0.00022,2,30
7123,-0.00021,-9e-05,-1e-05,0.00027,-6e-05,-0.00018,-0.00066,-0.00022,2,30
7124,-0.00021,-9e-05,-1e-05,0.00027,-6e-05,-0.00018,-0.00066,-0.00022,2,30
7125,-0.00021,-9e-05,-1e-05,0.00027,-6e-05,-0.00018,-0.00066,-0.00022,2,30
7126,-2e-05,-7e-05,-6e-05,-6e-05,-0.00011,0.00018,6e-05,-2e-05,2,30
7127,-2e-05,-7e-05,-6e-05,-6e-05,-0.00011,0.00018,6e-05,-2e-05,2,30
7128,0.0001,7e-05,0.00019,0.00044,0.00016,0.00111,0.00055,0.00013,2,30
7129,0.0001,7e-05,0.00019,0.00044,0.00016,0.00111,0.00055,0.00013,2,30
7130,0.0001,7e-05,0.00019,0.00044,0.00016,0.00111,0.00055,0.00013,2,30
7131,0.0001,7e-05,0.00019,0.00044,0.00016,0.00111,0.00055,0.00013,2,30
7132,0.0001,7e-05,0.00019,0.00044,0.00016,0.00111,0.00055,0.00013,2,30
7133,0.0001,7e-05,0.00019,0.00044,0.00016,0.00111,0.00055,0.00013,2,30
7134,0.0001,7e-05,0.00019,0.00044,0.00016,0.00111,0.00055,0.00013,2,30
7135,0.0001,7e-05,0.00019,0.00044,0.00016,0.00111,0.00055,0.00013,2,30
7136,0.0001,7e-05,0.00019,0.00044,0.00016,0.00111,0.00055,0.00013,2,30
7139,0.0001,7e-05,0.00019,0.00044,0.00016,0.00111,0.00055,0.00013,2,30
7140,0,-7e-05,-0.0002,-0.00091,-0.00024,-0.00028,-0.00013,-5e-05,2,30
7141,0,-7e-05,-0.0002,-0.00091,-0.00024,-0.00028,-0.00013,-5e-05,2,30
7142,0,-7e-05,-0.0002,-0.00091,-0.00024,-0.00028,-0.00013,-5e-05,2,30
7143,0,-7e-05,-0.0002,-0.00091,-0.00024,-0.00028,-0.00013,-5e-05,2,30
7144,0,-7e-05,-0.0002,-0.00091,-0.00024,-0.00028,-0.00013,-5e-05,2,30
7145,0,-7e-05,-0.0002,-0.00091,-0.00024,-0.00028,-0.00013,-5e-05,2,30
7146,0,-7e-05,-0.0002,-0.00091,-0.00024,-0.00028,-0.00013,-5e-05,2,30
7147,0,-7e-05,-0.0002,-0.00091,-0.00024,-0.00028,-0.00013,-5e-05,2,30
7148,0,-7e-05,-0.0002,-0.00091,-0.00024,-0.00028,-0.00013,-5e-05,2,30
7149,0,2e-05,-2e-05,-5e-05,0.00061,-0.0001,-1e-05,5e-05,2,30
7150,0,2e-05,-2e-05,-5e-05,0.00061,-0.0001,-1e-05,5e-05,2,30
7151,0,2e-05,-2e-05,-5e-05,0.00061,-0.0001,-1e-05,5e-05,2,30
7152,0,2e-05,-2e-05,-5e-05,0.00061,-0.0001,-1e-05,5e-05,2,30
7153,0,2e-05,-2e-05,-5e-05,0.00061,-0.0001,-1e-05,5e-05,2,30
7154,0,2e-05,-2e-05,-5e-05,0.00061,-0.0001,-1e-05,5e-05,2,30
7155,0,2e-05,-2e-05,-5e-05,0.00061,-0.0001,-1e-05,5e-05,2,30
7156,0,2e-05,-2e-05,-5e-05,0.00061,-0.0001,-1e-05,5e-05,2,30
7157,0,2e-05,-2e-05,-5e-05,0.00061,-0.0001,-1e-05,5e-05,2,30
7158,0,2e-05,-2e-05,-5e-05,0.00061,-0.0001,-1e-05,5e-05,2,30
7159,0,2e-05,-2e-05,-5e-05,0.00061,-0.0001,-1e-05,5e-05,2,30
7160,0,2e-05,-2e-05,-5e-05,0.00061,-0.0001,-1e-05,5e-05,2,30
7161,0,2e-05,-2e-05,-5e-05,0.00061,-0.0001,-1e-05,5e-05,2,30
7162,0,2e-05,-2e-05,-5e-05,0.00061,-0.0001,-1e-05,5e-05,2,30
7163,0,2e-05,-2e-05,-5e-05,0.00061,-0.0001,-1e-05,5e-05,2,30
7164,-2e-05,-1e-05,-1e-05,0.00012,0.00017,0.00048,0.00023,4e-05,2,30
7165,4e-05,1e-05,4e-05,-1e-05,-0.00021,-0.00036,0.00012,0.00011,2,30
7166,4e-05,1e-05,4e-05,-1e-05,-0.00021,-0.00036,0.00012,0.00011,2,30
7167,4e-05,1e-05,4e-05,-1e-05,-0.00021,-0.00036,0.00012,0.00011,2,30
7168,4e-05,1e-05,4e-05,-1e-05,-0.00021,-0.00036,0.00012,0.00011,2,30
7169,4e-05,1e-05,4e-05,-1e-05,-0.00021,-0.00036,0.00012,0.00011,2,30
7170,4e-05,1e-05,4e-05,-1e-05,-0.00021,-0.00036,0.00012,0.00011,2,30
7171,4e-05,1e-05,4e-05,-1e-05,-0.00021,-0.00036,0.00012,0.00011,2,30
7172,4e-05,1e-05,4e-05,-1e-05,-0.00021,-0.00036,0.00012,0.00011,2,30
7173,4e-05,1e-05,4e-05,-1e-05,-0.00021,-0.00036,0.00012,0.00011,2,30
7174,4e-05,1e-05,4e-05,-1e-05,-0.00021,-0.00036,0.00012,0.00011,2,30
7175,4e-05,1e-05,4e-05,-1e-05,-0.00021,-0.00036,0.00012,0.00011,2,30
7176,4e-05,1e-05,4e-05,-1e-05,-0.00021,-0.00036,0.00012,0.00011,2,30
7177,4e-05,1e-05,4e-05,-1e-05,-0.00021,-0.00036,0.00012,0.00011,2,30
7178,4e-05,1e-05,4e-05,-1e-05,-0.00021,-0.00036,0.00012,0.00011,2,30
7179,4e-05,1e-05,4e-05,-1e-05,-0.00021,-0.00036,0.00012,0.00011,2,30
7180,4e-05,1e-05,4e-05,-1e-05,-0.00021,-0.00036,0.00012,0.00011,2,30
7181,4e-05,1e-05,4e-05,-1e-05,-0.00021,-0.00036,0.00012,0.00011,2,30
7182,4e-05,1e-05,4e-05,-1e-05,-0.00021,-0.00036,0.00012,0.00011,2,30
7183,4e-05,1e-05,4e-05,-1e-05,-0.00021,-0.00036,0.00012,0.00011,2,30
7184,4e-05,1e-05,4e-05,-1e-05,-0.00021,-0.00036,0.00012,0.00011,2,30
7185,4e-05,1e-05,4e-05,-1e-05,-0.00021,-0.00036,0.00012,0.00011,2,30
7186,0.00013,5e-05,0.0001,0.00023,0.00024,-0.00039,-0.00015,0.00011,2,30
7189,6e-05,-1e-05,-6e-05,0.00022,-7e-05,0.00024,0.00018,3e-05,2,30
7190,6e-05,-1e-05,-6e-05,0.00022,-7e-05,0.00024,0.00018,3e-05,2,30
7191,6e-05,-1e-05,-6e-05,0.00022,-7e-05,0.00024,0.00018,3e-05,2,30
7192,6e-05,-1e-05,-6e-05,0.00022,-7e-05,0.00024,0.00018,3e-05,2,30
7193,6e-05,-1e-05,-6e-05,0.00022,-7e-05,0.00024,0.00018,3e-05,2,30
7194,6e-05,-1e-05,-6e-05,0.00022,-7e-05,0.00024,0.00018,3e-05,2,30
7195,6e-05,-1e-05,-6e-05,0.00022,-7e-05,0.00024,0.00018,3e-05,2,30
7196,6e-05,-1e-05,-6e-05,0.00022,-7e-05,0.00024,0.00018,3e-05,2,30
7197,6e-05,-1e-05,-6e-05,0.00022,-7e-05,0.00024,0.00018,3e-05,2,30
7198,6e-05,-1e-05,-6e-05,0.00022,-7e-05,0.00024,0.00018,3e-05,2,30
7199,6e-05,-1e-05,-6e-05,0.00022,-7e-05,0.00024,0.00018,3e-05,2,30
7200,-9e-05,-4e-05,-1e-05,0.00028,-0.00033,9e-05,-0.00052,-0.00014,2,30
7201,-9e-05,-4e-05,-1e-05,0.00028,-0.00033,9e-05,-0.00052,-0.00014,2,30
7202,-9e-05,-4e-05,-1e-05,0.00028,-0.00033,9e-05,-0.00052,-0.00014,2,30
7203,-9e-05,-4e-05,-1e-05,0.00028,-0.00033,9e-05,-0.00052,-0.00014,2,30
7204,-9e-05,-4e-05,-1e-05,0.00028,-0.00033,9e-05,-0.00052,-0.00014,2,30
7205,-9e-05,-4e-05,-1e-05,0.00028,-0.00033,9e-05,-0.00052,-0.00014,2,30
7206,-9e-05,-4e-05,-1e-05,0.00028,-0.00033,9e-05,-0.00052,-0.00014,2,30
7207,-9e-05,-4e-05,-1e-05,0.00028,-0.00033,9e-05,-0.00052,-0.00014,2,30
7208,-9e-05,-4e-05,-1e-05,0.00028,-0.00033,9e-05,-0.00052,-0.00014,2,30
7209,-6e-05,-8e-05,-1e-05,0.00036,-0.00011,-0.00064,-2e-05,-3e-05,2,30
7210,-6e-05,-8e-05,-1e-05,0.00036,-0.00011,-0.00064,-2e-05,-3e-05,2,30
7211,-6e-05,-8e-05,-1e-05,0.00036,-0.00011,-0.00064,-2e-05,-3e-05,2,30
7212,-6e-05,-8e-05,-1e-05,0.00036,-0.00011,-0.00064,-2e-05,-3e-05,2,30
7213,-6e-05,-8e-05,-1e-05,0.00036,-0.00011,-0.00064,-2e-05,-3e-05,2,30
7214,-6e-05,-8e-05,-1e-05,0.00036,-0.00011,-0.00064,-2e-05,-3e-05,2,30
7215,-6e-05,-8e-05,-1e-05,0.00036,-0.00011,-0.00064,-2e-05,-3e-05,2,30
7216,-6e-05,-8e-05,-1e-05,0.00036,-0.00011,-0.00064,-2e-05,-3e-05,2,30
7217,-6e-05,-8e-05,-1e-05,0.00036,-0.00011,-0.00064,-2e-05,-3e-05,2,30
7218,-6e-05,-8e-05,-1e-05,0.00036,-0.00011,-0.00064,-2e-05,-3e-05,2,30
7219,-6e-05,-8e-05,-1e-05,0.00036,-0.00011,-0.00064,-2e-05,-3e-05,2,30
7220,-6e-05,-8e-05,-1e-05,0.00036,-0.00011,-0.00064,-2e-05,-3e-05,2,30
7221,-6e-05,-8e-05,-1e-05,0.00036,-0.00011,-0.00064,-2e-05,-3e-05,2,30
7222,-6e-05,-8e-05,-1e-05,0.00036,-0.00011,-0.00064,-2e-05,-3e-05,2,30
7223,-6e-05,-8e-05,-1e-05,0.00036,-0.00011,-0.00064,-2e-05,-3e-05,2,30
7224,0.00011,0.00011,0.00012,0.00023,9e-05,0.00045,0.00027,0.00011,2,30
7225,5e-05,-2e-05,-0.00018,-0.0005,3e-05,0.00062,-0.00014,0.00011,2,30
7226,5e-05,-2e-05,-0.00018,-0.0005,3e-05,0.00062,-0.00014,0.00011,2,30
7227,5e-05,-2e-05,-0.00018,-0.0005,3e-05,0.00062,-0.00014,0.00011,2,30
7228,5e-05,-2e-05,-0.00018,-0.0005,3e-05,0.00062,-0.00014,0.00011,2,30
7229,5e-05,-2e-05,-0.00018,-0.0005,3e-05,0.00062,-0.00014,0.00011,2,30
7230,5e-05,-2e-05,-0.00018,-0.0005,3e-05,0.00062,-0.00014,0.00011,2,30
7231,5e-05,-2e-05,-0.00018,-0.0005,3e-05,0.00062,-0.00014,0.00011,2,30
7232,5e-05,-2e-05,-0.00018,-0.0005,3e-05,0.00062,-0.00014,0.00011,2,30
7233,5e-05,-2e-05,-0.00018,-0.0005,3e-05,0.00062,-0.00014,0.00011,2,30
7234,5e-05,-2e-05,-0.00018,-0.0005,3e-05,0.00062,-0.00014,0.00011,2,30
7235,5e-05,-2e-05,-0.00018,-0.0005,3e-05,0.00062,-0.00014,0.00011,2,30
7236,5e-05,-2e-05,-0.00018,-0.0005,3e-05,0.00062,-0.00014,0.00011,2,30
7238,5e-05,-2e-05,-0.00018,-0.0005,3e-05,0.00062,-0.00014,0.00011,2,30
7239,5e-05,-2e-05,-0.00018,-0.0005,3e-05,0.00062,-0.00014,0.00011,2,30
7240,5e-05,-2e-05,-0.00018,-0.0005,3e-05,0.00062,-0.00014,0.00011,2,30
7241,5e-05,-2e-05,-0.00018,-0.0005,3e-05,0.00062,-0.00014,0.00011,2,30
7242,5e-05,-2e-05,-0.00018,-0.0005,3e-05,0.00062,-0.00014,0.00011,2,30
7243,5e-05,-2e-05,-0.00018,-0.0005,3e-05,0.00062,-0.00014,0.00011,2,30
7244,5e-05,-2e-05,-0.00018,-0.0005,3e-05,0.00062,-0.00014,0.00011,2,30
7245,5e-05,-2e-05,-0.00018,-0.0005,3e-05,0.00062,-0.00014,0.00011,2,30
7246,-7e-05,-2e-05,0,0.00019,-7e-05,-0.00079,-0.0005,-0.00015,2,30
7247,-7e-05,-2e-05,0,0.00019,-7e-05,-0.00079,-0.0005,-0.00015,2,30
7248,0,0,0.00014,-0.00042,-0.00033,-0.00016,0.00025,1e-05,2,30
7249,0,0,0.00014,-0.00042,-0.00033,-0.00016,0.00025,1e-05,2,30
7250,0,0,0.00014,-0.00042,-0.00033,-0.00016,0.00025,1e-05,2,30
7251,0,0,0.00014,-0.00042,-0.00033,-0.00016,0.00025,1e-05,2,30
7252,0,0,0.00014,-0.00042,-0.00033,-0.00016,0.00025,1e-05,2,30
7253,0,0,0.00014,-0.00042,-0.00033,-0.00016,0.00025,1e-05,2,30
7254,0,0,0.00014,-0.00042,-0.00033,-0.00016,0.00025,1e-05,2,30
7255,0,0,0.00014,-0.00042,-0.00033,-0.00016,0.00025,1e-05,2,30
7256,0,0,0.00014,-0.00042,-0.00033,-0.00016,0.00025,1e-05,2,30
7257,0,0,0.00014,-0.00042,-0.00033,-0.00016,0.00025,1e-05,2,30
7258,0,0,0.00014,-0.00042,-0.00033,-0.00016,0.00025,1e-05,2,30
7259,0,0,0.00014,-0.00042,-0.00033,-0.00016,0.00025,1e-05,2,30
7260,0.00011,1e-05,1e-05,-0.00023,-7e-05,0,0.00054,0.00023,2,30
7261,0.00011,1e-05,1e-05,-0.00023,-7e-05,0,0.00054,0.00023,2,30
7262,0.00011,1e-05,1e-05,-0.00023,-7e-05,0,0.00054,0.00023,2,30
7263,0.00011,1e-05,1e-05,-0.00023,-7e-05,0,0.00054,0.00023,2,30
7264,0.00011,1e-05,1e-05,-0.00023,-7e-05,0,0.00054,0.00023,2,30
7265,0.00011,1e-05,1e-05,-0.00023,-7e-05,0,0.00054,0.00023,2,30
7266,0.00011,1e-05,1e-05,-0.00023,-7e-05,0,0.00054,0.00023,2,30
7267,0.00011,1e-05,1e-05,-0.00023,-7e-05,0,0.00054,0.00023,2,30
7268,0.00011,1e-05,1e-05,-0.00023,-7e-05,0,0.00054,0.00023,2,30
7269,5e-05,4e-05,0.0001,0.00034,0.00042,-0.00019,-0.00063,-9e-05,2,30
7270,5e-05,4e-05,0.0001,0.00034,0.00042,-0.00019,-0.00063,-9e-05,2,30
7271,5e-05,4e-05,0.0001,0.00034,0.00042,-0.00019,-0.00063,-9e-05,2,30
7272,5e-05,4e-05,0.0001,0.00034,0.00042,-0.00019,-0.00063,-9e-05,2,30
7273,5e-05,4e-05,0.0001,0.00034,0.00042,-0.00019,-0.00063,-9e-05,2,30
7274,5e-05,4e-05,0.0001,0.00034,0.00042,-0.00019,-0.00063,-9e-05,2,30
7275,5e-05,4e-05,0.0001,0.00034,0.00042,-0.00019,-0.00063,-9e-05,2,30
7276,5e-05,4e-05,0.0001,0.00034,0.00042,-0.00019,-0.00063,-9e-05,2,30
7277,5e-05,4e-05,0.0001,0.00034,0.00042,-0.00019,-0.00063,-9e-05,2,30
7278,5e-05,4e-05,0.0001,0.00034,0.00042,-0.00019,-0.00063,-9e-05,2,30
7279,5e-05,4e-05,0.0001,0.00034,0.00042,-0.00019,-0.00063,-9e-05,2,30
7280,5e-05,4e-05,0.0001,0.00034,0.00042,-0.00019,-0.00063,-9e-05,2,30
7281,5e-05,4e-05,0.0001,0.00034,0.00042,-0.00019,-0.00063,-9e-05,2,30
7282,5e-05,4e-05,0.0001,0.00034,0.00042,-0.00019,-0.00063,-9e-05,2,30
7283,5e-05,4e-05,0.0001,0.00034,0.00042,-0.00019,-0.00063,-9e-05,2,30
7284,-0.00015,-8e-05,-3e-05,-9e-05,0.0001,-0.00013,0.00017,-2e-05,2,30
7285,-1e-05,-2e-05,-5e-05,9e-05,-4e-05,0.00036,-0.00034,-0.0001,2,30
7286,-1e-05,-2e-05,-5e-05,9e-05,-4e-05,0.00036,-0.00034,-0.0001,2,30
7288,-1e-05,-2e-05,-5e-05,9e-05,-4e-05,0.00036,-0.00034,-0.0001,2,30
7289,-1e-05,-2e-05,-5e-05,9e-05,-4e-05,0.00036,-0.00034,-0.0001,2,30
7290,-1e-05,-2e-05,-5e-05,9e-05,-4e-05,0.00036,-0.00034,-0.0001,2,30
7291,-1e-05,-2e-05,-5e-05,9e-05,-4e-05,0.00036,-0.00034,-0.0001,2,30
7292,-1e-05,-2e-05,-5e-05,9e-05,-4e-05,0.00036,-0.00034,-0.0001,2,30
7293,-1e-05,-2e-05,-5e-05,9e-05,-4e-05,0.00036,-0.00034,-0.0001,2,30
7294,-1e-05,-2e-05,-5e-05,9e-05,-4e-05,0.00036,-0.00034,-0.0001,2,30
7295,-1e-05,-2e-05,-5e-05,9e-05,-4e-05,0.00036,-0.00034,-0.0001,2,30
7296,-1e-05,-2e-05,-5e-05,9e-05,-4e-05,0.00036,-0.00034,-0.0001,2,30
7297,-1e-05,-2e-05,-5e-05,9e-05,-4e-05,0.00036,-0.00034,-0.0001,2,30
7298,-1e-05,-2e-05,-5e-05,9e-05,-4e-05,0.00036,-0.00034,-0.0001,2,30
7299,-1e-05,-2e-05,-5e-05,9e-05,-4e-05,0.00036,-0.00034,-0.0001,2,30
7300,-1e-05,-2e-05,-5e-05,9e-05,-4e-05,0.00036,-0.00034,-0.0001,2,30
7301,-1e-05,-2e-05,-5e-05,9e-05,-4e-05,0.00036,-0.00034,-0.0001,2,30
7302,-1e-05,-2e-05,-5e-05,9e-05,-4e-05,0.00036,-0.00034,-0.0001,2,30
7303,-1e-05,-2e-05,-5e-05,9e-05,-4e-05,0.00036,-0.00034,-0.0001,2,30
7304,-1e-05,-2e-05,-5e-05,9e-05,-4e-05,0.00036,-0.00034,-0.0001,2,30
7305,-1e-05,-2e-05,-5e-05,9e-05,-4e-05,0.00036,-0.00034,-0.0001,2,30
7306,3e-05,4e-05,4e-05,5e-05,0.0002,-0.00024,8e-05,3e-05,2,30
7307,3e-05,4e-05,4e-05,5e-05,0.0002,-0.00024,8e-05,3e-05,2,30
7308,-8e-05,-5e-05,-0.00017,-0.0007,0,2e-05,-0.00015,-4e-05,2,30
7309,-8e-05,-5e-05,-0.00017,-0.0007,0,2e-05,-0.00015,-4e-05,2,30
7310,-8e-05,-5e-05,-0.00017,-0.0007,0,2e-05,-0.00015,-4e-05,2,30
7311,-8e-05,-5e-05,-0.00017,-0.0007,0,2e-05,-0.00015,-4e-05,2,30
7312,-8e-05,-5e-05,-0.00017,-0.0007,0,2e-05,-0.00015,-4e-05,2,30
7313,-8e-05,-5e-05,-0.00017,-0.0007,0,2e-05,-0.00015,-4e-05,2,30
7314,-8e-05,-5e-05,-0.00017,-0.0007,0,2e-05,-0.00015,-4e-05,2,30
7315,-8e-05,-5e-05,-0.00017,-0.0007,0,2e-05,-0.00015,-4e-05,2,30
7316,-8e-05,-5e-05,-0.00017,-0.0007,0,2e-05,-0.00015,-4e-05,2,30
7317,-8e-05,-5e-05,-0.00017,-0.0007,0,2e-05,-0.00015,-4e-05,2,30
7318,-8e-05,-5e-05,-0.00017,-0.0007,0,2e-05,-0.00015,-4e-05,2,30
7319,-8e-05,-5e-05,-0.00017,-0.0007,0,2e-05,-0.00015,-4e-05,2,30
7320,-2e-05,-2e-05,-6e-05,0.0001,-5e-05,-0.00045,-9e-05,-7e-05,2,30
7321,-2e-05,-2e-05,-6e-05,0.0001,-5e-05,-0.00045,-9e-05,-7e-05,2,30
7322,-2e-05,-2e-05,-6e-05,0.0001,-5e-05,-0.00045,-9e-05,-7e-05,2,30
7323,-2e-05,-2e-05,-6e-05,0.0001,-5e-05,-0.00045,-9e-05,-7e-05,2,30
7324,-2e-05,-2e-05,-6e-05,0.0001,-5e-05,-0.00045,-9e-05,-7e-05,2,30
7325,-2e-05,-2e-05,-6e-05,0.0001,-5e-05,-0.00045,-9e-05,-7e-05,2,30
7326,-2e-05,-2e-05,-6e-05,0.0001,-5e-05,-0.00045,-9e-05,-7e-05,2,30
7327,-2e-05,-2e-05,-6e-05,0.0001,-5e-05,-0.00045,-9e-05,-7e-05,2,30
7328,-2e-05,-2e-05,-6e-05,0.0001,-5e-05,-0.00045,-9e-05,-7e-05,2,30
7329,-3e-05,7e-05,0.00015,0.00047,9e-05,7e-05,-5e-05,-4e-05,2,30
7330,-3e-05,7e-05,0.00015,0.00047,9e-05,7e-05,-5e-05,-4e-05,2,30
7331,-3e-05,7e-05,0.00015,0.00047,9e-05,7e-05,-5e-05,-4e-05,2,30
7332,-3e-05,7e-05,0.00015,0.00047,9e-05,7e-05,-5e-05,-4e-05,2,30
7333,-3e-05,7e-05,0.00015,0.00047,9e-05,7e-05,-5e-05,-4e-05,2,30
7334,-3e-05,7e-05,0.00015,0.00047,9e-05,7e-05,-5e-05,-4e-05,2,30
7335,-3e-05,7e-05,0.00015,0.00047,9e-05,7e-05,-5e-05,-4e-05,2,30
7336,-3e-05,7e-05,0.00015,0.00047,9e-05,7e-05,-5e-05,-4e-05,2,30
7338,-3e-05,7e-05,0.00015,0.00047,9e-05,7e-05,-5e-05,-4e-05,2,30
7339,-3e-05,7e-05,0.00015,0.00047,9e-05,7e-05,-5e-05,-4e-05,2,30
7340,-3e-05,7e-05,0.00015,0.00047,9e-05,7e-05,-5e-05,-4e-05,2,30
7341,-3e-05,7e-05,0.00015,0.00047,9e-05,7e-05,-5e-05,-4e-05,2,30
7342,-3e-05,7e-05,0.00015,0.00047,9e-05,7e-05,-5e-05,-4e-05,2,30
7343,-3e-05,7e-05,0.00015,0.00047,9e-05,7e-05,-5e-05,-4e-05,2,30
7344,0,2e-05,0.00013,0.00055,-0.00026,0.0001,-0.00032,-3e-05,2,30
7345,-3e-05,-1e-05,7e-05,0.00045,-0.00014,-0.00065,-0.00015,1e-05,2,30
7346,-3e-05,-1e-05,7e-05,0.00045,-0.00014,-0.00065,-0.00015,1e-05,2,30
7347,-3e-05,-1e-05,7e-05,0.00045,-0.00014,-0.00065,-0.00015,1e-05,2,30
7348,-3e-05,-1e-05,7e-05,0.00045,-0.00014,-0.00065,-0.00015,1e-05,2,30
7349,-3e-05,-1e-05,7e-05,0.00045,-0.00014,-0.00065,-0.00015,1e-05,2,30
7350,-3e-05,-1e-05,7e-05,0.00045,-0.00014,-0.00065,-0.00015,1e-05,2,30
7351,-3e-05,-1e-05,7e-05,0.00045,-0.00014,-0.00065,-0.00015,1e-05,2,30
7352,-3e-05,-1e-05,7e-05,0.00045,-0.00014,-0.00065,-0.00015,1e-05,2,30
7353,-3e-05,-1e-05,7e-05,0.00045,-0.00014,-0.00065,-0.00015,1e-05,2,30
7354,-3e-05,-1e-05,7e-05,0.00045,-0.00014,-0.00065,-0.00015,1e-05,2,30
7355,-3e-05,-1e-05,7e-05,0.00045,-0.00014,-0.00065,-0.00015,1e-05,2,30
7356,-3e-05,-1e-05,7e-05,0.00045,-0.00014,-0.00065,-0.00015,1e-05,2,30
7357,-3e-05,-1e-05,7e-05,0.00045,-0.00014,-0.00065,-0.00015,1e-05,2,30
7358,-3e-05,-1e-05,7e-05,0.00045,-0.00014,-0.00065,-0.00015,1e-05,2,30
7359,-3e-05,-1e-05,7e-05,0.00045,-0.00014,-0.00065,-0.00015,1e-05,2,30
7360,-3e-05,-1e-05,7e-05,0.00045,-0.00014,-0.00065,-0.00015,1e-05,2,30
7361,-3e-05,-1e-05,7e-05,0.00045,-0.00014,-0.00065,-0.00015,1e-05,2,30
7362,-3e-05,-1e-05,7e-05,0.00045,-0.00014,-0.00065,-0.00015,1e-05,2,30
7363,-3e-05,-1e-05,7e-05,0.00045,-0.00014,-0.00065,-0.00015,1e-05,2,30
7364,-3e-05,-1e-05,7e-05,0.00045,-0.00014,-0.00065,-0.00015,1e-05,2,30
7365,-3e-05,-1e-05,7e-05,0.00045,-0.00014,-0.00065,-0.00015,1e-05,2,30
7366,-2e-05,-6e-05,5e-05,0.00024,-3e-05,-0.00011,-1e-05,-2e-05,2,30
7367,-2e-05,-6e-05,5e-05,0.00024,-3e-05,-0.00011,-1e-05,-2e-05,2,30
7368,0,-2e-05,-8e-05,0.0002,-0.00034,0.00018,-0.0001,-8e-05,2,30
7369,0,-2e-05,-8e-05,0.0002,-0.00034,0.00018,-0.0001,-8e-05,2,30
7370,0,-2e-05,-8e-05,0.0002,-0.00034,0.00018,-0.0001,-8e-05,2,30
7371,0,-2e-05,-8e-05,0.0002,-0.00034,0.00018,-0.0001,-8e-05,2,30
7372,0,-2e-05,-8e-05,0.0002,-0.00034,0.00018,-0.0001,-8e-05,2,30
7373,0,-2e-05,-8e-05,0.0002,-0.00034,0.00018,-0.0001,-8e-05,2,30
7374,0,-2e-05,-8e-05,0.0002,-0.00034,0.00018,-0.0001,-8e-05,2,30
7375,0,-2e-05,-8e-05,0.0002,-0.00034,0.00018,-0.0001,-8e-05,2,30
7376,0,-2e-05,-8e-05,0.0002,-0.00034,0.00018,-0.0001,-8e-05,2,30
7377,0,-2e-05,-8e-05,0.0002,-0.00034,0.00018,-0.0001,-8e-05,2,30
7378,0,-2e-05,-8e-05,0.0002,-0.00034,0.00018,-0.0001,-8e-05,2,30
7379,0,-2e-05,-8e-05,0.0002,-0.00034,0.00018,-0.0001,-8e-05,2,30
7380,0,-1e-05,-0.00011,-0.00044,-0.00026,-0.00015,6e-05,0,2,30
7381,0,-1e-05,-0.00011,-0.00044,-0.00026,-0.00015,6e-05,0,2,30
7382,0,-1e-05,-0.00011,-0.00044,-0.00026,-0.00015,6e-05,0,2,30
7383,0,-1e-05,-0.00011,-0.00044,-0.00026,-0.00015,6e-05,0,2,30
7384,0,-1e-05,-0.00011,-0.00044,-0.00026,-0.00015,6e-05,0,2,30
7385,0,-1e-05,-0.00011,-0.00044,-0.00026,-0.00015,6e-05,0,2,30
7386,0,-1e-05,-0.00011,-0.00044,-0.00026,-0.00015,6e-05,0,2,30
7389,1e-05,3e-05,2e-05,-8e-05,-3e-05,0.00012,0.00014,9e-05,2,30
7390,1e-05,3e-05,2e-05,-8e-05,-3e-05,0.00012,0.00014,9e-05,2,30
7391,1e-05,3e-05,2e-05,-8e-05,-3e-05,0.00012,0.00014,9e-05,2,30
7392,1e-05,3e-05,2e-05,-8e-05,-3e-05,0.00012,0.00014,9e-05,2,30
7393,1e-05,3e-05,2e-05,-8e-05,-3e-05,0.00012,0.00014,9e-05,2,30
7394,1e-05,3e-05,2e-05,-8e-05,-3e-05,0.00012,0.00014,9e-05,2,30
7395,1e-05,3e-05,2e-05,-8e-05,-3e-05,0.00012,0.00014,9e-05,2,30
7396,1e-05,3e-05,2e-05,-8e-05,-3e-05,0.00012,0.00014,9e-05,2,30
7397,1e-05,3e-05,2e-05,-8e-05,-3e-05,0.00012,0.00014,9e-05,2,30
7398,1e-05,3e-05,2e-05,-8e-05,-3e-05,0.00012,0.00014,9e-05,2,30
7399,1e-05,3e-05,2e-05,-8e-05,-3e-05,0.00012,0.00014,9e-05,2,30
7400,1e-05,3e-05,2e-05,-8e-05,-3e-05,0.00012,0.00014,9e-05,2,30
7401,1e-05,3e-05,2e-05,-8e-05,-3e-05,0.00012,0.00014,9e-05,2,30
7402,1e-05,3e-05,2e-05,-8e-05,-3e-05,0.00012,0.00014,9e-05,2,30
7403,1e-05,3e-05,2e-05,-8e-05,-3e-05,0.00012,0.00014,9e-05,2,30
7404,4e-05,-5e-05,-0.00015,-0.00032,0,0.00023,-0.00024,-9e-05,2,30
7405,0,2e-05,7e-05,3e-05,1e-05,9e-05,0.00024,4e-05,2,30
7406,0,2e-05,7e-05,3e-05,1e-05,9e-05,0.00024,4e-05,2,30
7407,0,2e-05,7e-05,3e-05,1e-05,9e-05,0.00024,4e-05,2,30
7408,0,2e-05,7e-05,3e-05,1e-05,9e-05,0.00024,4e-05,2,30
7409,0,2e-05,7e-05,3e-05,1e-05,9e-05,0.00024,4e-05,2,30
7410,0,2e-05,7e-05,3e-05,1e-05,9e-05,0.00024,4e-05,2,30
7411,0,2e-05,7e-05,3e-05,1e-05,9e-05,0.00024,4e-05,2,30
7412,0,2e-05,7e-05,3e-05,1e-05,9e-05,0.00024,4e-05,2,30
7413,0,2e-05,7e-05,3e-05,1e-05,9e-05,0.00024,4e-05,2,30
7414,0,2e-05,7e-05,3e-05,1e-05,9e-05,0.00024,4e-05,2,30
7415,0,2e-05,7e-05,3e-05,1e-05,9e-05,0.00024,4e-05,2,30
7416,0,2e-05,7e-05,3e-05,1e-05,9e-05,0.00024,4e-05,2,30
7417,0,2e-05,7e-05,3e-05,1e-05,9e-05,0.00024,4e-05,2,30
7418,0,2e-05,7e-05,3e-05,1e-05,9e-05,0.00024,4e-05,2,30
7419,0,2e-05,7e-05,3e-05,1e-05,9e-05,0.00024,4e-05,2,30
7420,0,2e-05,7e-05,3e-05,1e-05,9e-05,0.00024,4e-05,2,30
7421,0,2e-05,7e-05,3e-05,1e-05,9e-05,0.00024,4e-05,2,30
7422,0,2e-05,7e-05,3e-05,1e-05,9e-05,0.00024,4e-05,2,30
7423,0,2e-05,7e-05,3e-05,1e-05,9e-05,0.00024,4e-05,2,30
7424,0,2e-05,7e-05,3e-05,1e-05,9e-05,0.00024,4e-05,2,30
7425,0,2e-05,7e-05,3e-05,1e-05,9e-05,0.00024,4e-05,2,30
7426,-3e-05,-1e-05,-4e-05,0.00022,0.00023,0.00086,0.00018,-1e-05,2,30
7427,-3e-05,-1e-05,-4e-05,0.00022,0.00023,0.00086,0.00018,-1e-05,2,30
7428,-1e-05,-3e-05,3e-05,0.00028,0.00032,-0.00018,0.00031,-1e-05,2,30
7429,-1e-05,-3e-05,3e-05,0.00028,0.00032,-0.00018,0.00031,-1e-05,2,30
7430,-1e-05,-3e-05,3e-05,0.00028,0.00032,-0.00018,0.00031,-1e-05,2,30
7431,-1e-05,-3e-05,3e-05,0.00028,0.00032,-0.00018,0.00031,-1e-05,2,30
7432,-1e-05,-3e-05,3e-05,0.00028,0.00032,-0.00018,0.00031,-1e-05,2,30
7433,-1e-05,-3e-05,3e-05,0.00028,0.00032,-0.00018,0.00031,-1e-05,2,30
7434,-1e-05,-3e-05,3e-05,0.00028,0.00032,-0.00018,0.00031,-1e-05,2,30
7435,-1e-05,-3e-05,3e-05,0.00028,0.00032,-0.00018,0.00031,-1e-05,2,30
7436,-1e-05,-3e-05,3e-05,0.00028,0.00032,-0.00018,0.00031,-1e-05,2,30
7438,-1e-05,-3e-05,3e-05,0.00028,0.00032,-0.00018,0.00031,-1e-05,2,30
7439,-1e-05,-3e-05,3e-05,0.00028,0.00032,-0.00018,0.00031,-1e-05,2,30
7440,-1e-05,-3e-05,3e-05,0.00028,0.00032,-0.00018,0.00031,-1e-05,2,30
7441,-1e-05,-3e-05,3e-05,0.00028,0.00032,-0.00018,0.00031,-1e-05,2,30
7442,-1e-05,-3e-05,3e-05,0.00028,0.00032,-0.00018,0.00031,-1e-05,2,30
7443,-1e-05,-3e-05,3e-05,0.00028,0.00032,-0.00018,0.00031,-1e-05,2,30
7444,-1e-05,-3e-05,3e-05,0.00028,0.00032,-0.00018,0.00031,-1e-05,2,30
7445,-1e-05,-3e-05,3e-05,0.00028,0.00032,-0.00018,0.00031,-1e-05,2,30
7446,-1e-05,-3e-05,3e-05,0.00028,0.00032,-0.00018,0.00031,-1e-05,2,30
7447,-1e-05,-3e-05,3e-05,0.00028,0.00032,-0.00018,0.00031,-1e-05,2,30
7448,-1e-05,-3e-05,3e-05,0.00028,0.00032,-0.00018,0.00031,-1e-05,2,30
7449,-2e-05,4e-05,9e-05,0.0001,0.00048,0.00037,6e-05,8e-05,2,30
7450,-0.00011,-0.0001,-0.00015,-0.00048,-0.00026,-0.00017,4e-05,-0.00014,2,30
7451,-0.00011,-0.0001,-0.00015,-0.00048,-0.00026,-0.00017,4e-05,-0.00014,2,30
7452,-0.00011,-0.0001,-0.00015,-0.00048,-0.00026,-0.00017,4e-05,-0.00014,2,30
7453,-0.00011,-0.0001,-0.00015,-0.00048,-0.00026,-0.00017,4e-05,-0.00014,2,30
7454,-0.00011,-0.0001,-0.00015,-0.00048,-0.00026,-0.00017,4e-05,-0.00014,2,30
7455,-0.00011,-0.0001,-0.00015,-0.00048,-0.00026,-0.00017,4e-05,-0.00014,2,30
7456,-0.00011,-0.0001,-0.00015,-0.00048,-0.00026,-0.00017,4e-05,-0.00014,2,30
7457,-0.00011,-0.0001,-0.00015,-0.00048,-0.00026,-0.00017,4e-05,-0.00014,2,30
7458,-0.00011,-0.0001,-0.00015,-0.00048,-0.00026,-0.00017,4e-05,-0.00014,2,30
7459,-0.00011,-0.0001,-0.00015,-0.00048,-0.00026,-0.00017,4e-05,-0.00014,2,30
7460,-0.00011,-0.0001,-0.00015,-0.00048,-0.00026,-0.00017,4e-05,-0.00014,2,30
7461,-0.00011,-0.0001,-0.00015,-0.00048,-0.00026,-0.00017,4e-05,-0.00014,2,30
7462,-0.00011,-0.0001,-0.00015,-0.00048,-0.00026,-0.00017,4e-05,-0.00014,2,30
7463,-0.00011,-0.0001,-0.00015,-0.00048,-0.00026,-0.00017,4e-05,-0.00014,2,30
7464,-2e-05,-1e-05,0,-2e-05,-8e-05,9e-05,-0.00018,-1e-05,2,30
7465,0.0001,2e-05,1e-05,-1e-05,-0.00017,-0.0004,-0.00012,-5e-05,2,30
7466,0.0001,2e-05,1e-05,-1e-05,-0.00017,-0.0004,-0.00012,-5e-05,2,30
7467,0.0001,2e-05,1e-05,-1e-05,-0.00017,-0.0004,-0.00012,-5e-05,2,30
7468,0.0001,2e-05,1e-05,-1e-05,-0.00017,-0.0004,-0.00012,-5e-05,2,30
7469,0.0001,2e-05,1e-05,-1e-05,-0.00017,-0.0004,-0.00012,-5e-05,2,30
7470,0.0001,2e-05,1e-05,-1e-05,-0.00017,-0.0004,-0.00012,-5e-05,2,30
7471,0.0001,2e-05,1e-05,-1e-05,-0.00017,-0.0004,-0.00012,-5e-05,2,30
7472,0.0001,2e-05,1e-05,-1e-05,-0.00017,-0.0004,-0.00012,-5e-05,2,30
7473,0.0001,2e-05,1e-05,-1e-05,-0.00017,-0.0004,-0.00012,-5e-05,2,30
7474,0.0001,2e-05,1e-05,-1e-05,-0.00017,-0.0004,-0.00012,-5e-05,2,30
7475,0.0001,2e-05,1e-05,-1e-05,-0.00017,-0.0004,-0.00012,-5e-05,2,30
7476,0.0001,2e-05,1e-05,-1e-05,-0.00017,-0.0004,-0.00012,-5e-05,2,30
7477,0.0001,2e-05,1e-05,-1e-05,-0.00017,-0.0004,-0.00012,-5e-05,2,30
7478,0.0001,2e-05,1e-05,-1e-05,-0.00017,-0.0004,-0.00012,-5e-05,2,30
7479,0.0001,2e-05,1e-05,-1e-05,-0.00017,-0.0004,-0.00012,-5e-05,2,30
7480,0.0001,2e-05,1e-05,-1e-05,-0.00017,-0.0004,-0.00012,-5e-05,2,30
7481,0.0001,2e-05,1e-05,-1e-05,-0.00017,-0.0004,-0.00012,-5e-05,2,30
7482,0.0001,2e-05,1e-05,-1e-05,-0.00017,-0.0004,-0.00012,-5e-05,2,30
7483,0.0001,2e-05,1e-05,-1e-05,-0.00017,-0.0004,-0.00012,-5e-05,2,30
7484,0.0001,2e-05,1e-05,-1e-05,-0.00017,-0.0004,-0.00012,-5e-05,2,30
7485,0.0001,2e-05,1e-05,-1e-05,-0.00017,-0.0004,-0.00012,-5e-05,2,30
7486,-0.00015,-4e-05,-6e-05,-0.00018,-7e-05,-4e-05,-0.0001,-0.0002,2,30
7489,-8e-05,-3e-05,-3e-05,-0.00032,-0.00022,-2e-05,0.00011,-0.00011,2,30
7490,-8e-05,-3e-05,-3e-05,-0.00032,-0.00022,-2e-05,0.00011,-0.00011,2,30
7491,-8e-05,-3e-05,-3e-05,-0.00032,-0.00022,-2e-05,0.00011,-0.00011,2,30
7492,-8e-05,-3e-05,-3e-05,-0.00032,-0.00022,-2e-05,0.00011,-0.00011,2,30
7493,-8e-05,-3e-05,-3e-05,-0.00032,-0.00022,-2e-05,0.00011,-0.00011,2,30
7494,-8e-05,-3e-05,-3e-05,-0.00032,-0.00022,-2e-05,0.00011,-0.00011,2,30
7495,-8e-05,-3e-05,-3e-05,-0.00032,-0.00022,-2e-05,0.00011,-0.00011,2,30
7496,-8e-05,-3e-05,-3e-05,-0.00032,-0.00022,-2e-05,0.00011,-0.00011,2,30
7497,-8e-05,-3e-05,-3e-05,-0.00032,-0.00022,-2e-05,0.00011,-0.00011,2,30
7498,-8e-05,-3e-05,-3e-05,-0.00032,-0.00022,-2e-05,0.00011,-0.00011,2,30
7499,-8e-05,-3e-05,-3e-05,-0.00032,-0.00022,-2e-05,0.00011,-0.00011,2,30
7500,0,2e-05,3e-05,7e-05,0.00011,-6e-05,0.00011,9e-05,2,30
7501,0,2e-05,3e-05,7e-05,0.00011,-6e-05,0.00011,9e-05,2,30
7502,0,2e-05,3e-05,7e-05,0.00011,-6e-05,0.00011,9e-05,2,30
7503,0,2e-05,3e-05,7e-05,0.00011,-6e-05,0.00011,9e-05,2,30
7504,0,2e-05,3e-05,7e-05,0.00011,-6e-05,0.00011,9e-05,2,30
7505,0,2e-05,3e-05,7e-05,0.00011,-6e-05,0.00011,9e-05,2,30
7506,0,2e-05,3e-05,7e-05,0.00011,-6e-05,0.00011,9e-05,2,30
7507,0,2e-05,3e-05,7e-05,0.00011,-6e-05,0.00011,9e-05,2,30
7508,0,2e-05,3e-05,7e-05,0.00011,-6e-05,0.00011,9e-05,2,30
7509,0,2e-05,3e-05,7e-05,0.00011,-6e-05,0.00011,9e-05,2,30
7510,0,2e-05,3e-05,7e-05,0.00011,-6e-05,0.00011,9e-05,2,30
7511,0,2e-05,3e-05,7e-05,0.00011,-6e-05,0.00011,9e-05,2,30
7512,0,2e-05,3e-05,7e-05,0.00011,-6e-05,0.00011,9e-05,2,30
7513,0,2e-05,3e-05,7e-05,0.00011,-6e-05,0.00011,9e-05,2,30
7514,0,2e-05,3e-05,7e-05,0.00011,-6e-05,0.00011,9e-05,2,30
7515,0,2e-05,3e-05,7e-05,0.00011,-6e-05,0.00011,9e-05,2,30
7516,2e-05,1e-05,-2e-05,0.00015,0.0003,0.00077,-0.00074,-0.00013,2,30
7517,2e-05,1e-05,-2e-05,0.00015,0.0003,0.00077,-0.00074,-0.00013,2,30
7518,2e-05,1e-05,-2e-05,0.00015,0.0003,0.00077,-0.00074,-0.00013,2,30
7519,2e-05,1e-05,-2e-05,0.00015,0.0003,0.00077,-0.00074,-0.00013,2,30
7520,2e-05,1e-05,-2e-05,0.00015,0.0003,0.00077,-0.00074,-0.00013,2,30
7521,2e-05,1e-05,-2e-05,0.00015,0.0003,0.00077,-0.00074,-0.00013,2,30
7522,2e-05,1e-05,-2e-05,0.00015,0.0003,0.00077,-0.00074,-0.00013,2,30
7523,2e-05,1e-05,-2e-05,0.00015,0.0003,0.00077,-0.00074,-0.00013,2,30
7524,0,-4e-05,-0.0001,-0.00028,-1e-05,0.00033,-0.00036,3e-05,2,30
7525,1e-05,-2e-05,-8e-05,-0.00029,-1e-05,4e-05,-0.00032,0,2,30
7526,1e-05,-2e-05,-8e-05,-0.00029,-1e-05,4e-05,-0.00032,0,2,30
7528,1e-05,-2e-05,-8e-05,-0.00029,-1e-05,4e-05,-0.00032,0,2,30
7529,1e-05,-2e-05,-8e-05,-0.00029,-1e-05,4e-05,-0.00032,0,2,30
7530,1e-05,-2e-05,-8e-05,-0.00029,-1e-05,4e-05,-0.00032,0,2,30
7531,1e-05,-2e-05,-8e-05,-0.00029,-1e-05,4e-05,-0.00032,0,2,30
7532,1e-05,-2e-05,-8e-05,-0.00029,-1e-05,4e-05,-0.00032,0,2,30
7533,1e-05,-2e-05,-8e-05,-0.00029,-1e-05,4e-05,-0.00032,0,2,30
7534,1e-05,-2e-05,-8e-05,-0.00029,-1e-05,4e-05,-0.00032,0,2,30
7535,1e-05,-2e-05,-8e-05,-0.00029,-1e-05,4e-05,-0.00032,0,2,30
7536,1e-05,-2e-05,-8e-05,-0.00029,-1e-05,4e-05,-0.00032,0,2,30
7538,1e-05,-2e-05,-8e-05,-0.00029,-1e-05,4e-05,-0.00032,0,2,30
7539,1e-05,-2e-05,-8e-05,-0.00029,-1e-05,4e-05,-0.00032,0,2,30
7540,1e-05,-2e-05,-8e-05,-0.00029,-1e-05,4e-05,-0.00032,0,2,30
7541,1e-05,-2e-05,-8e-05,-0.00029,-1e-05,4e-05,-0.00032,0,2,30
7542,1e-05,-2e-05,-8e-05,-0.00029,-1e-05,4e-05,-0.00032,0,2,30
7543,1e-05,-2e-05,-8e-05,-0.00029,-1e-05,4e-05,-0.00032,0,2,30
7544,1e-05,-2e-05,-8e-05,-0.00029,-1e-05,4e-05,-0.00032,0,2,30
7545,1e-05,-2e-05,-8e-05,-0.00029,-1e-05,4e-05,-0.00032,0,2,30
7546,1e-05,-4e-05,-9e-05,-0.00016,-9e-05,-0.00068,2e-05,1e-05,2,30
7547,1e-05,-4e-05,-9e-05,-0.00016,-9e-05,-0.00068,2e-05,1e-05,2,30
7548,0,-4e-05,8e-05,0.0002,-0.00011,-0.00034,0.00021,5e-05,2,30
7549,0,-4e-05,8e-05,0.0002,-0.00011,-0.00034,0.00021,5e-05,2,30
7550,0,-4e-05,8e-05,0.0002,-0.00011,-0.00034,0.00021,5e-05,2,30
7551,0,-4e-05,8e-05,0.0002,-0.00011,-0.00034,0.00021,5e-05,2,30
7552,0,-4e-05,8e-05,0.0002,-0.00011,-0.00034,0.00021,5e-05,2,30
7553,0,-4e-05,8e-05,0.0002,-0.00011,-0.00034,0.00021,5e-05,2,30
7554,0,-4e-05,8e-05,0.0002,-0.00011,-0.00034,0.00021,5e-05,2,30
7555,0,-4e-05,8e-05,0.0002,-0.00011,-0.00034,0.00021,5e-05,2,30
7556,0,-4e-05,8e-05,0.0002,-0.00011,-0.00034,0.00021,5e-05,2,30
7557,0,-4e-05,8e-05,0.0002,-0.00011,-0.00034,0.00021,5e-05,2,30
7558,0,-4e-05,8e-05,0.0002,-0.00011,-0.00034,0.00021,5e-05,2,30
7559,0,-4e-05,8e-05,0.0002,-0.00011,-0.00034,0.00021,5e-05,2,30
7560,7e-05,4e-05,4e-05,0.00025,0.00023,0.00017,0.00089,0.00018,2,30
7561,7e-05,4e-05,4e-05,0.00025,0.00023,0.00017,0.00089,0.00018,2,30
7562,7e-05,4e-05,4e-05,0.00025,0.00023,0.00017,0.00089,0.00018,2,30
7563,7e-05,4e-05,4e-05,0.00025,0.00023,0.00017,0.00089,0.00018,2,30
7564,7e-05,4e-05,4e-05,0.00025,0.00023,0.00017,0.00089,0.00018,2,30
7565,7e-05,4e-05,4e-05,0.00025,0.00023,0.00017,0.00089,0.00018,2,30
7566,7e-05,4e-05,4e-05,0.00025,0.00023,0.00017,0.00089,0.00018,2,30
7567,7e-05,4e-05,4e-05,0.00025,0.00023,0.00017,0.00089,0.00018,2,30
7568,7e-05,4e-05,4e-05,0.00025,0.00023,0.00017,0.00089,0.00018,2,30
7569,-0.00015,-2e-05,-2e-05,-9e-05,-9e-05,3e-05,-4e-05,-8e-05,2,30
7570,-0.00015,-2e-05,-2e-05,-9e-05,-9e-05,3e-05,-4e-05,-8e-05,2,30
7571,-0.00015,-2e-05,-2e-05,-9e-05,-9e-05,3e-05,-4e-05,-8e-05,2,30
7572,-0.00015,-2e-05,-2e-05,-9e-05,-9e-05,3e-05,-4e-05,-8e-05,2,30
7573,-0.00015,-2e-05,-2e-05,-9e-05,-9e-05,3e-05,-4e-05,-8e-05,2,30
7574,-0.00015,-2e-05,-2e-05,-9e-05,-9e-05,3e-05,-4e-05,-8e-05,2,30
7575,-0.00015,-2e-05,-2e-05,-9e-05,-9e-05,3e-05,-4e-05,-8e-05,2,30
7576,-0.00015,-2e-05,-2e-05,-9e-05,-9e-05,3e-05,-4e-05,-8e-05,2,30
7577,-0.00015,-2e-05,-2e-05,-9e-05,-9e-05,3e-05,-4e-05,-8e-05,2,30
7578,-0.00015,-2e-05,-2e-05,-9e-05,-9e-05,3e-05,-4e-05,-8e-05,2,30
7579,-0.00015,-2e-05,-2e-05,-9e-05,-9e-05,3e-05,-4e-05,-8e-05,2,30
7580,-0.00015,-2e-05,-2e-05,-9e-05,-9e-05,3e-05,-4e-05,-8e-05,2,30
7581,-0.00015,-2e-05,-2e-05,-9e-05,-9e-05,3e-05,-4e-05,-8e-05,2,30
7582,-0.00015,-2e-05,-2e-05,-9e-05,-9e-05,3e-05,-4e-05,-8e-05,2,30
7583,-0.00015,-2e-05,-2e-05,-9e-05,-9e-05,3e-05,-4e-05,-8e-05,2,30
7584,-0.00015,-2e-05,-2e-05,-9e-05,-9e-05,3e-05,-4e-05,-8e-05,2,30
7585,-0.00015,-2e-05,-2e-05,-9e-05,-9e-05,3e-05,-4e-05,-8e-05,2,30
7586,-0.00015,-2e-05,-2e-05,-9e-05,-9e-05,3e-05,-4e-05,-8e-05,2,30
7588,-0.00015,-2e-05,-2e-05,-9e-05,-9e-05,3e-05,-4e-05,-8e-05,2,30
7589,-0.00015,-2e-05,-2e-05,-9e-05,-9e-05,3e-05,-4e-05,-8e-05,2,30
7590,-0.00015,-2e-05,-2e-05,-9e-05,-9e-05,3e-05,-4e-05,-8e-05,2,30
7591,0.00013,5e-05,0.0001,2e-05,-0.00012,5e-05,-0.0001,8e-05,2,30
7592,0.00013,5e-05,0.0001,2e-05,-0.00012,5e-05,-0.0001,8e-05,2,30
7593,0.00013,2e-05,-3e-05,5e-05,0.00015,7e-05,-0.00016,0.00012,2,30
7594,0.00013,2e-05,-3e-05,5e-05,0.00015,7e-05,-0.00016,0.00012,2,30
7595,0.00013,2e-05,-3e-05,5e-05,0.00015,7e-05,-0.00016,0.00012,2,30
7596,0.00013,2e-05,-3e-05,5e-05,0.00015,7e-05,-0.00016,0.00012,2,30
7597,0.00013,2e-05,-3e-05,5e-05,0.00015,7e-05,-0.00016,0.00012,2,30
7598,0.00013,2e-05,-3e-05,5e-05,0.00015,7e-05,-0.00016,0.00012,2,30
7599,0.00013,2e-05,-3e-05,5e-05,0.00015,7e-05,-0.00016,0.00012,2,30
7600,0.00013,2e-05,-3e-05,5e-05,0.00015,7e-05,-0.00016,0.00012,2,30
7601,0.00013,2e-05,-3e-05,5e-05,0.00015,7e-05,-0.00016,0.00012,2,30
7602,0.00013,2e-05,-3e-05,5e-05,0.00015,7e-05,-0.00016,0.00012,2,30
7603,0.00013,2e-05,-3e-05,5e-05,0.00015,7e-05,-0.00016,0.00012,2,30
7604,0.00013,2e-05,-3e-05,5e-05,0.00015,7e-05,-0.00016,0.00012,2,30
7605,0.00013,2e-05,-3e-05,5e-05,0.00015,7e-05,-0.00016,0.00012,2,30
7606,5e-05,5e-05,5e-05,-5e-05,-0.00017,-0.001,-2e-05,1e-05,2,30
7607,5e-05,5e-05,5e-05,-5e-05,-0.00017,-0.001,-2e-05,1e-05,2,30
7608,0.00012,5e-05,9e-05,2e-05,0.00016,-9e-05,0.00028,0.00013,2,30
7609,0.00012,5e-05,9e-05,2e-05,0.00016,-9e-05,0.00028,0.00013,2,30
7610,0.00012,5e-05,9e-05,2e-05,0.00016,-9e-05,0.00028,0.00013,2,30
7611,0.00012,5e-05,9e-05,2e-05,0.00016,-9e-05,0.00028,0.00013,2,30
7612,0.00012,5e-05,9e-05,2e-05,0.00016,-9e-05,0.00028,0.00013,2,30
7613,0.00012,5e-05,9e-05,2e-05,0.00016,-9e-05,0.00028,0.00013,2,30
7614,0.00012,5e-05,9e-05,2e-05,0.00016,-9e-05,0.00028,0.00013,2,30
7615,0.00012,5e-05,9e-05,2e-05,0.00016,-9e-05,0.00028,0.00013,2,30
7616,0.00012,5e-05,9e-05,2e-05,0.00016,-9e-05,0.00028,0.00013,2,30
7617,0.00012,5e-05,9e-05,2e-05,0.00016,-9e-05,0.00028,0.00013,2,30
7618,0.00012,5e-05,9e-05,2e-05,0.00016,-9e-05,0.00028,0.00013,2,30
7619,0.00012,5e-05,9e-05,2e-05,0.00016,-9e-05,0.00028,0.00013,2,30
7620,-3e-05,-6e-05,-3e-05,-0.00021,-7e-05,2e-05,-0.00033,-3e-05,2,30
7621,-3e-05,-6e-05,-3e-05,-0.00021,-7e-05,2e-05,-0.00033,-3e-05,2,30
7622,-3e-05,-6e-05,-3e-05,-0.00021,-7e-05,2e-05,-0.00033,-3e-05,2,30
7623,-3e-05,-6e-05,-3e-05,-0.00021,-7e-05,2e-05,-0.00033,-3e-05,2,30
7624,-3e-05,-6e-05,-3e-05,-0.00021,-7e-05,2e-05,-0.00033,-3e-05,2,30
7625,-3e-05,-6e-05,-3e-05,-0.00021,-7e-05,2e-05,-0.00033,-3e-05,2,30
7626,-3e-05,-6e-05,-3e-05,-0.00021,-7e-05,2e-05,-0.00033,-3e-05,2,30
7627,-3e-05,-6e-05,-3e-05,-0.00021,-7e-05,2e-05,-0.00033,-3e-05,2,30
7628,-3e-05,-6e-05,-3e-05,-0.00021,-7e-05,2e-05,-0.00033,-3e-05,2,30
7629,-6e-05,-4e-05,-4e-05,-1e-05,0.00021,0.00043,0.00015,-1e-05,2,30
7630,-6e-05,-4e-05,-4e-05,-1e-05,0.00021,0.00043,0.00015,-1e-05,2,30
7631,-6e-05,-4e-05,-4e-05,-1e-05,0.00021,0.00043,0.00015,-1e-05,2,30
7632,-6e-05,-4e-05,-4e-05,-1e-05,0.00021,0.00043,0.00015,-1e-05,2,30
7633,-6e-05,-4e-05,-4e-05,-1e-05,0.00021,0.00043,0.00015,-1e-05,2,30
7634,-6e-05,-4e-05,-4e-05,-1e-05,0.00021,0.00043,0.00015,-1e-05,2,30
7635,-6e-05,-4e-05,-4e-05,-1e-05,0.00021,0.00043,0.00015,-1e-05,2,30
7636,-6e-05,-4e-05,-4e-05,-1e-05,0.00021,0.00043,0.00015,-1e-05,2,30
7638,-6e-05,-4e-05,-4e-05,-1e-05,0.00021,0.00043,0.00015,-1e-05,2,30
7639,-6e-05,-4e-05,-4e-05,-1e-05,0.00021,0.00043,0.00015,-1e-05,2,30
7640,-6e-05,-4e-05,-4e-05,-1e-05,0.00021,0.00043,0.00015,-1e-05,2,30
7641,-6e-05,-4e-05,-4e-05,-1e-05,0.00021,0.00043,0.00015,-1e-05,2,30
7642,-6e-05,-4e-05,-4e-05,-1e-05,0.00021,0.00043,0.00015,-1e-05,2,30
7643,-9e-05,-2e-05,-1e-05,-2e-05,-1e-05,0.00041,0.00015,-0.00011,2,30
7644,-9e-05,-2e-05,-1e-05,-2e-05,-1e-05,0.00041,0.00015,-0.00011,2,30
7645,-9e-05,-2e-05,-1e-05,-2e-05,-1e-05,0.00041,0.00015,-0.00011,2,30
7646,-9e-05,-2e-05,-1e-05,-2e-05,-1e-05,0.00041,0.00015,-0.00011,2,30
7647,-9e-05,-2e-05,-1e-05,-2e-05,-1e-05,0.00041,0.00015,-0.00011,2,30
7648,-9e-05,-2e-05,-1e-05,-2e-05,-1e-05,0.00041,0.00015,-0.00011,2,30
7649,-9e-05,-2e-05,-1e-05,-2e-05,-1e-05,0.00041,0.00015,-0.00011,2,30
7650,-1e-05,0,2e-05,3e-05,2e-05,1e-05,0.00049,9e-05,2,30
7651,-1e-05,0,2e-05,3e-05,2e-05,1e-05,0.00049,9e-05,2,30
7652,-1e-05,0,2e-05,3e-05,2e-05,1e-05,0.00049,9e-05,2,30
7653,-1e-05,0,2e-05,3e-05,2e-05,1e-05,0.00049,9e-05,2,30
7654,-1e-05,0,2e-05,3e-05,2e-05,1e-05,0.00049,9e-05,2,30
7655,-1e-05,0,2e-05,3e-05,2e-05,1e-05,0.00049,9e-05,2,30
7656,-1e-05,0,2e-05,3e-05,2e-05,1e-05,0.00049,9e-05,2,30
7657,-1e-05,0,2e-05,3e-05,2e-05,1e-05,0.00049,9e-05,2,30
7658,-1e-05,0,2e-05,3e-05,2e-05,1e-05,0.00049,9e-05,2,30
7659,-1e-05,0,2e-05,3e-05,2e-05,1e-05,0.00049,9e-05,2,30
7660,-1e-05,0,2e-05,3e-05,2e-05,1e-05,0.00049,9e-05,2,30
7661,-1e-05,0,2e-05,3e-05,2e-05,1e-05,0.00049,9e-05,2,30
7662,-1e-05,0,2e-05,3e-05,2e-05,1e-05,0.00049,9e-05,2,30
7663,-1e-05,0,2e-05,3e-05,2e-05,1e-05,0.00049,9e-05,2,30
7664,-1e-05,0,2e-05,3e-05,2e-05,1e-05,0.00049,9e-05,2,30
7665,-1e-05,0,2e-05,3e-05,2e-05,1e-05,0.00049,9e-05,2,30
7666,8e-05,3e-05,-2e-05,7e-05,0.00027,0.00029,0.00024,5e-05,2,30
7667,8e-05,3e-05,-2e-05,7e-05,0.00027,0.00029,0.00024,5e-05,2,30
7668,2e-05,-4e-05,-7e-05,0.00011,-0.00033,0.00042,-0.00046,-7e-05,2,30
7669,2e-05,-4e-05,-7e-05,0.00011,-0.00033,0.00042,-0.00046,-7e-05,2,30
7670,2e-05,-4e-05,-7e-05,0.00011,-0.00033,0.00042,-0.00046,-7e-05,2,30
7671,2e-05,-4e-05,-7e-05,0.00011,-0.00033,0.00042,-0.00046,-7e-05,2,30
7672,2e-05,-4e-05,-7e-05,0.00011,-0.00033,0.00042,-0.00046,-7e-05,2,30
7673,2e-05,-4e-05,-7e-05,0.00011,-0.00033,0.00042,-0.00046,-7e-05,2,30
7674,2e-05,-4e-05,-7e-05,0.00011,-0.00033,0.00042,-0.00046,-7e-05,2,30
7675,2e-05,-4e-05,-7e-05,0.00011,-0.00033,0.00042,-0.00046,-7e-05,2,30
7676,2e-05,-4e-05,-7e-05,0.00011,-0.00033,0.00042,-0.00046,-7e-05,2,30
7677,2e-05,-4e-05,-7e-05,0.00011,-0.00033,0.00042,-0.00046,-7e-05,2,30
7678,2e-05,-4e-05,-7e-05,0.00011,-0.00033,0.00042,-0.00046,-7e-05,2,30
7679,2e-05,-4e-05,-7e-05,0.00011,-0.00033,0.00042,-0.00046,-7e-05,2,30
7680,2e-05,-4e-05,-7e-05,0.00011,-0.00033,0.00042,-0.00046,-7e-05,2,30
7681,2e-05,-4e-05,-7e-05,0.00011,-0.00033,0.00042,-0.00046,-7e-05,2,30
7682,2e-05,-4e-05,-7e-05,0.00011,-0.00033,0.00042,-0.00046,-7e-05,2,30
7683,2e-05,-4e-05,-7e-05,0.00011,-0.00033,0.00042,-0.00046,-7e-05,2,30
7684,2e-05,-4e-05,-7e-05,0.00011,-0.00033,0.00042,-0.00046,-7e-05,2,30
7685,2e-05,-4e-05,-7e-05,0.00011,-0.00033,0.00042,-0.00046,-7e-05,2,30
7686,2e-05,-4e-05,-7e-05,0.00011,-0.00033,0.00042,-0.00046,-7e-05,2,30
7688,2e-05,-4e-05,-7e-05,0.00011,-0.00033,0.00042,-0.00046,-7e-05,2,30
7689,-7e-05,-3e-05,-3e-05,-0.00027,-0.00024,-0.00048,6e-05,-8e-05,2,30
7690,-0.00015,-5e-05,-9e-05,-2e-05,5e-05,-0.00016,-6e-05,-7e-05,2,30
7691,-0.00015,-5e-05,-9e-05,-2e-05,5e-05,-0.00016,-6e-05,-7e-05,2,30
7692,-0.00015,-5e-05,-9e-05,-2e-05,5e-05,-0.00016,-6e-05,-7e-05,2,30
7693,-0.00015,-5e-05,-9e-05,-2e-05,5e-05,-0.00016,-6e-05,-7e-05,2,30
7694,-0.00015,-5e-05,-9e-05,-2e-05,5e-05,-0.00016,-6e-05,-7e-05,2,30
7695,-0.00015,-5e-05,-9e-05,-2e-05,5e-05,-0.00016,-6e-05,-7e-05,2,30
7696,-0.00015,-5e-05,-9e-05,-2e-05,5e-05,-0.00016,-6e-05,-7e-05,2,30
7697,-0.00015,-5e-05,-9e-05,-2e-05,5e-05,-0.00016,-6e-05,-7e-05,2,30
7698,-0.00015,-5e-05,-9e-05,-2e-05,5e-05,-0.00016,-6e-05,-7e-05,2,30
7699,-0.00015,-5e-05,-9e-05,-2e-05,5e-05,-0.00016,-6e-05,-7e-05,2,30
7700,-0.00015,-5e-05,-9e-05,-2e-05,5e-05,-0.00016,-6e-05,-7e-05,2,30
7701,-0.00015,-5e-05,-9e-05,-2e-05,5e-05,-0.00016,-6e-05,-7e-05,2,30
7702,-0.00015,-5e-05,-9e-05,-2e-05,5e-05,-0.00016,-6e-05,-7e-05,2,30
7703,-0.00015,-5e-05,-9e-05,-2e-05,5e-05,-0.00016,-6e-05,-7e-05,2,30
7704,-5e-05,-1e-05,0,0.00034,0.00046,0.00036,-3e-05,-9e-05,2,30
7705,-5e-05,-1e-05,0,0.00034,0.00046,0.00036,-3e-05,-9e-05,2,30
7706,-5e-05,-1e-05,0,0.00034,0.00046,0.00036,-3e-05,-9e-05,2,30
7707,-5e-05,-1e-05,0,0.00034,0.00046,0.00036,-3e-05,-9e-05,2,30
7708,-5e-05,-1e-05,0,0.00034,0.00046,0.00036,-3e-05,-9e-05,2,30
7709,-5e-05,-1e-05,0,0.00034,0.00046,0.00036,-3e-05,-9e-05,2,30
7710,4e-05,4e-05,8e-05,-8e-05,-7e-05,-0.00041,1e-05,2e-05,2,30
7711,4e-05,4e-05,8e-05,-8e-05,-7e-05,-0.00041,1e-05,2e-05,2,30
7712,4e-05,4e-05,8e-05,-8e-05,-7e-05,-0.00041,1e-05,2e-05,2,30
7713,4e-05,4e-05,8e-05,-8e-05,-7e-05,-0.00041,1e-05,2e-05,2,30
7714,4e-05,4e-05,8e-05,-8e-05,-7e-05,-0.00041,1e-05,2e-05,2,30
7715,4e-05,4e-05,8e-05,-8e-05,-7e-05,-0.00041,1e-05,2e-05,2,30
7716,4e-05,4e-05,8e-05,-8e-05,-7e-05,-0.00041,1e-05,2e-05,2,30
7717,4e-05,4e-05,8e-05,-8e-05,-7e-05,-0.00041,1e-05,2e-05,2,30
7718,4e-05,4e-05,8e-05,-8e-05,-7e-05,-0.00041,1e-05,2e-05,2,30
7719,4e-05,4e-05,8e-05,-8e-05,-7e-05,-0.00041,1e-05,2e-05,2,30
7720,4e-05,4e-05,8e-05,-8e-05,-7e-05,-0.00041,1e-05,2e-05,2,30
7721,4e-05,4e-05,8e-05,-8e-05,-7e-05,-0.00041,1e-05,2e-05,2,30
7722,4e-05,4e-05,8e-05,-8e-05,-7e-05,-0.00041,1e-05,2e-05,2,30
7723,4e-05,4e-05,8e-05,-8e-05,-7e-05,-0.00041,1e-05,2e-05,2,30
7724,4e-05,4e-05,8e-05,-8e-05,-7e-05,-0.00041,1e-05,2e-05,2,30
7725,4e-05,4e-05,8e-05,-8e-05,-7e-05,-0.00041,1e-05,2e-05,2,30
7726,-3e-05,1e-05,9e-05,0.00064,-0.00024,0.00062,0.00011,-2e-05,2,30
7727,-3e-05,1e-05,9e-05,0.00064,-0.00024,0.00062,0.00011,-2e-05,2,30
7728,-5e-05,-4e-05,-0.00012,-0.00026,0.00015,-0.00034,2e-05,-7e-05,2,30
7729,-5e-05,-4e-05,-0.00012,-0.00026,0.00015,-0.00034,2e-05,-7e-05,2,30
7730,-5e-05,-4e-05,-0.00012,-0.00026,0.00015,-0.00034,2e-05,-7e-05,2,30
7731,-5e-05,-4e-05,-0.00012,-0.00026,0.00015,-0.00034,2e-05,-7e-05,2,30
7732,-5e-05,-4e-05,-0.00012,-0.00026,0.00015,-0.00034,2e-05,-7e-05,2,30
7733,-5e-05,-4e-05,-0.00012,-0.00026,0.00015,-0.00034,2e-05,-7e-05,2,30
7734,-5e-05,-4e-05,-0.00012,-0.00026,0.00015,-0.00034,2e-05,-7e-05,2,30
7735,-5e-05,-4e-05,-0.00012,-0.00026,0.00015,-0.00034,2e-05,-7e-05,2,30
7736,-5e-05,-4e-05,-0.00012,-0.00026,0.00015,-0.00034,2e-05,-7e-05,2,30
7738,-5e-05,-4e-05,-0.00012,-0.00026,0.00015,-0.00034,2e-05,-7e-05,2,30
7739,-5e-05,-4e-05,-0.00012,-0.00026,0.00015,-0.00034,2e-05,-7e-05,2,30
7740,-5e-05,-4e-05,-0.00012,-0.00026,0.00015,-0.00034,2e-05,-7e-05,2,30
7742,-5e-05,-4e-05,-0.00012,-0.00026,0.00015,-0.00034,2e-05,-7e-05,2,30
7743,-5e-05,-4e-05,-0.00012,-0.00026,0.00015,-0.00034,2e-05,-7e-05,2,30
7744,-5e-05,-4e-05,-0.00012,-0.00026,0.00015,-0.00034,2e-05,-7e-05,2,30
7745,-5e-05,-4e-05,-0.00012,-0.00026,0.00015,-0.00034,2e-05,-7e-05,2,30
7746,-5e-05,-4e-05,-0.00012,-0.00026,0.00015,-0.00034,2e-05,-7e-05,2,30
7747,-5e-05,-4e-05,-0.00012,-0.00026,0.00015,-0.00034,2e-05,-7e-05,2,30
7748,-5e-05,-4e-05,-0.00012,-0.00026,0.00015,-0.00034,2e-05,-7e-05,2,30
7749,0,1e-05,9e-05,0.00021,-0.00018,1e-05,-0.00026,-3e-05,2,30
7750,4e-05,-5e-05,-0.00018,-0.00035,2e-05,8e-05,1e-05,-5e-05,2,30
7751,4e-05,-5e-05,-0.00018,-0.00035,2e-05,8e-05,1e-05,-5e-05,2,30
7752,4e-05,-5e-05,-0.00018,-0.00035,2e-05,8e-05,1e-05,-5e-05,2,30
7753,4e-05,-5e-05,-0.00018,-0.00035,2e-05,8e-05,1e-05,-5e-05,2,30
7754,4e-05,-5e-05,-0.00018,-0.00035,2e-05,8e-05,1e-05,-5e-05,2,30
7755,4e-05,-5e-05,-0.00018,-0.00035,2e-05,8e-05,1e-05,-5e-05,2,30
7756,4e-05,-5e-05,-0.00018,-0.00035,2e-05,8e-05,1e-05,-5e-05,2,30
7757,4e-05,-5e-05,-0.00018,-0.00035,2e-05,8e-05,1e-05,-5e-05,2,30
7758,4e-05,-5e-05,-0.00018,-0.00035,2e-05,8e-05,1e-05,-5e-05,2,30
7759,4e-05,-5e-05,-0.00018,-0.00035,2e-05,8e-05,1e-05,-5e-05,2,30
7760,4e-05,-5e-05,-0.00018,-0.00035,2e-05,8e-05,1e-05,-5e-05,2,30
7761,4e-05,-5e-05,-0.00018,-0.00035,2e-05,8e-05,1e-05,-5e-05,2,30
7762,4e-05,-5e-05,-0.00018,-0.00035,2e-05,8e-05,1e-05,-5e-05,2,30
7763,4e-05,-5e-05,-0.00018,-0.00035,2e-05,8e-05,1e-05,-5e-05,2,30
7764,-0.0001,-8e-05,-0.00012,-9e-05,-9e-05,-0.00018,-0.00022,-1e-05,2,30
7765,-9e-05,-1e-05,0.0001,9e-05,0.00029,-0.0003,4e-05,1e-05,2,30
7766,-9e-05,-1e-05,0.0001,9e-05,0.00029,-0.0003,4e-05,1e-05,2,30
7767,-9e-05,-1e-05,0.0001,9e-05,0.00029,-0.0003,4e-05,1e-05,2,30
7768,-9e-05,-1e-05,0.0001,9e-05,0.00029,-0.0003,4e-05,1e-05,2,30
7769,-9e-05,-1e-05,0.0001,9e-05,0.00029,-0.0003,4e-05,1e-05,2,30
7770,-9e-05,-1e-05,0.0001,9e-05,0.00029,-0.0003,4e-05,1e-05,2,30
7771,-9e-05,-1e-05,0.0001,9e-05,0.00029,-0.0003,4e-05,1e-05,2,30
7772,-9e-05,-1e-05,0.0001,9e-05,0.00029,-0.0003,4e-05,1e-05,2,30
7773,-9e-05,-1e-05,0.0001,9e-05,0.00029,-0.0003,4e-05,1e-05,2,30
7774,-9e-05,-1e-05,0.0001,9e-05,0.00029,-0.0003,4e-05,1e-05,2,30
7775,-9e-05,-1e-05,0.0001,9e-05,0.00029,-0.0003,4e-05,1e-05,2,30
7776,-9e-05,-1e-05,0.0001,9e-05,0.00029,-0.0003,4e-05,1e-05,2,30
7777,-9e-05,-1e-05,0.0001,9e-05,0.00029,-0.0003,4e-05,1e-05,2,30
7778,-9e-05,-1e-05,0.0001,9e-05,0.00029,-0.0003,4e-05,1e-05,2,30
7779,-9e-05,-1e-05,0.0001,9e-05,0.00029,-0.0003,4e-05,1e-05,2,30
7780,-9e-05,-1e-05,0.0001,9e-05,0.00029,-0.0003,4e-05,1e-05,2,30
7781,-9e-05,-1e-05,0.0001,9e-05,0.00029,-0.0003,4e-05,1e-05,2,30
7782,-9e-05,-1e-05,0.0001,9e-05,0.00029,-0.0003,4e-05,1e-05,2,30
7783,-9e-05,-1e-05,0.0001,9e-05,0.00029,-0.0003,4e-05,1e-05,2,30
7784,-9e-05,-1e-05,0.0001,9e-05,0.00029,-0.0003,4e-05,1e-05,2,30
7785,-9e-05,-1e-05,0.0001,9e-05,0.00029,-0.0003,4e-05,1e-05,2,30
7786,0.00023,5e-05,1e-05,-8e-05,-0.00016,0.00017,4e-05,4e-05,2,30
7788,0,1e-05,1e-05,1e-05,-0.00023,0.00023,0.00036,0,2,30
7789,0,1e-05,1e-05,1e-05,-0.00023,0.00023,0.00036,0,2,30
7790,0,1e-05,1e-05,1e-05,-0.00023,0.00023,0.00036,0,2,30
7791,0,1e-05,1e-05,1e-05,-0.00023,0.00023,0.00036,0,2,30
7792,0,1e-05,1e-05,1e-05,-0.00023,0.00023,0.00036,0,2,30
7793,0,1e-05,1e-05,1e-05,-0.00023,0.00023,0.00036,0,2,30
7794,0,1e-05,1e-05,1e-05,-0.00023,0.00023,0.00036,0,2,30
7795,0,1e-05,1e-05,1e-05,-0.00023,0.00023,0.00036,0,2,30
7796,0,1e-05,1e-05,1e-05,-0.00023,0.00023,0.00036,0,2,30
7797,0,1e-05,1e-05,1e-05,-0.00023,0.00023,0.00036,0,2,30
7798,0,1e-05,1e-05,1e-05,-0.00023,0.00023,0.00036,0,2,30
7799,0,1e-05,1e-05,1e-05,-0.00023,0.00023,0.00036,0,2,30
7800,0,1e-05,1e-05,1e-05,-0.00023,0.00023,0.00036,0,2,30
7801,0,1e-05,1e-05,1e-05,-0.00023,0.00023,0.00036,0,2,30
7802,0,1e-05,1e-05,1e-05,-0.00023,0.00023,0.00036,0,2,30
7803,0,1e-05,1e-05,1e-05,-0.00023,0.00023,0.00036,0,2,30
7804,0,1e-05,1e-05,1e-05,-0.00023,0.00023,0.00036,0,2,30
7805,0,1e-05,1e-05,1e-05,-0.00023,0.00023,0.00036,0,2,30
7806,0,1e-05,1e-05,1e-05,-0.00023,0.00023,0.00036,0,2,30
7807,0,1e-05,1e-05,1e-05,-0.00023,0.00023,0.00036,0,2,30
7808,-0.00011,-2e-05,0,0.00015,-5e-05,-0.00025,-0.00011,-7e-05,2,30
7809,3e-05,3e-05,-2e-05,-0.00016,-0.00013,0.00016,-0.0002,-5e-05,2,30
7810,-4e-05,-1e-05,-7e-05,0.00012,-2e-05,0.0002,-0.0001,-5e-05,2,30
7811,-4e-05,-1e-05,-7e-05,0.00012,-2e-05,0.0002,-0.0001,-5e-05,2,30
7812,-4e-05,-1e-05,-7e-05,0.00012,-2e-05,0.0002,-0.0001,-5e-05,2,30
7813,-4e-05,-1e-05,-7e-05,0.00012,-2e-05,0.0002,-0.0001,-5e-05,2,30
7814,-4e-05,-1e-05,-7e-05,0.00012,-2e-05,0.0002,-0.0001,-5e-05,2,30
7815,-4e-05,-1e-05,-7e-05,0.00012,-2e-05,0.0002,-0.0001,-5e-05,2,30
7816,-4e-05,-1e-05,-7e-05,0.00012,-2e-05,0.0002,-0.0001,-5e-05,2,30
7817,-4e-05,-1e-05,-7e-05,0.00012,-2e-05,0.0002,-0.0001,-5e-05,2,30
7818,-4e-05,-1e-05,-7e-05,0.00012,-2e-05,0.0002,-0.0001,-5e-05,2,30
7819,-4e-05,-1e-05,-7e-05,0.00012,-2e-05,0.0002,-0.0001,-5e-05,2,30
7820,-4e-05,-1e-05,-7e-05,0.00012,-2e-05,0.0002,-0.0001,-5e-05,2,30
7821,-4e-05,-1e-05,-7e-05,0.00012,-2e-05,0.0002,-0.0001,-5e-05,2,30
7822,-4e-05,-1e-05,-7e-05,0.00012,-2e-05,0.0002,-0.0001,-5e-05,2,30
7823,0,-3e-05,-3e-05,2e-05,-0.00017,-0.00011,2e-05,3e-05,2,30
7824,0,-3e-05,-3e-05,2e-05,-0.00017,-0.00011,2e-05,3e-05,2,30
7825,0,-3e-05,-3e-05,2e-05,-0.00017,-0.00011,2e-05,3e-05,2,30
7826,0,-3e-05,-3e-05,2e-05,-0.00017,-0.00011,2e-05,3e-05,2,30
7827,0,-3e-05,-3e-05,2e-05,-0.00017,-0.00011,2e-05,3e-05,2,30
7828,0,-3e-05,-3e-05,2e-05,-0.00017,-0.00011,2e-05,3e-05,2,30
7829,0,-3e-05,-3e-05,2e-05,-0.00017,-0.00011,2e-05,3e-05,2,30
7830,5e-05,1e-05,0.00013,0.00028,9e-05,-0.0002,1e-05,1e-05,2,30
7831,5e-05,1e-05,0.00013,0.00028,9e-05,-0.0002,1e-05,1e-05,2,30
7832,5e-05,1e-05,0.00013,0.00028,9e-05,-0.0002,1e-05,1e-05,2,30
7833,5e-05,1e-05,0.00013,0.00028,9e-05,-0.0002,1e-05,1e-05,2,30
7834,5e-05,1e-05,0.00013,0.00028,9e-05,-0.0002,1e-05,1e-05,2,30
7835,5e-05,1e-05,0.00013,0.00028,9e-05,-0.0002,1e-05,1e-05,2,30
7836,5e-05,1e-05,0.00013,0.00028,9e-05,-0.0002,1e-05,1e-05,2,30
7838,5e-05,1e-05,0.00013,0.00028,9e-05,-0.0002,1e-05,1e-05,2,30
7839,5e-05,1e-05,0.00013,0.00028,9e-05,-0.0002,1e-05,1e-05,2,30
7840,5e-05,1e-05,0.00013,0.00028,9e-05,-0.0002,1e-05,1e-05,2,30
7841,5e-05,1e-05,0.00013,0.00028,9e-05,-0.0002,1e-05,1e-05,2,30
7842,5e-05,1e-05,0.00013,0.00028,9e-05,-0.0002,1e-05,1e-05,2,30
7843,5e-05,1e-05,0.00013,0.00028,9e-05,-0.0002,1e-05,1e-05,2,30
7844,5e-05,1e-05,0.00013,0.00028,9e-05,-0.0002,1e-05,1e-05,2,30
7845,5e-05,1e-05,0.00013,0.00028,9e-05,-0.0002,1e-05,1e-05,2,30
7846,-0.00013,-7e-05,-0.00012,2e-05,-8e-05,1e-05,-0.00029,-0.0001,2,30
7847,-0.00013,-7e-05,-0.00012,2e-05,-8e-05,1e-05,-0.00029,-0.0001,2,30
7848,-8e-05,3e-05,1e-05,-4e-05,-0.00025,-5e-05,-0.00023,0,2,30
7849,-8e-05,3e-05,1e-05,-4e-05,-0.00025,-5e-05,-0.00023,0,2,30
7850,-8e-05,3e-05,1e-05,-4e-05,-0.00025,-5e-05,-0.00023,0,2,30
7851,-8e-05,3e-05,1e-05,-4e-05,-0.00025,-5e-05,-0.00023,0,2,30
7852,-8e-05,3e-05,1e-05,-4e-05,-0.00025,-5e-05,-0.00023,0,2,30
7853,-8e-05,3e-05,1e-05,-4e-05,-0.00025,-5e-05,-0.00023,0,2,30
7854,-8e-05,3e-05,1e-05,-4e-05,-0.00025,-5e-05,-0.00023,0,2,30
7855,-8e-05,3e-05,1e-05,-4e-05,-0.00025,-5e-05,-0.00023,0,2,30
7856,-8e-05,3e-05,1e-05,-4e-05,-0.00025,-5e-05,-0.00023,0,2,30
7857,-8e-05,3e-05,1e-05,-4e-05,-0.00025,-5e-05,-0.00023,0,2,30
7858,-8e-05,3e-05,1e-05,-4e-05,-0.00025,-5e-05,-0.00023,0,2,30
7859,-8e-05,3e-05,1e-05,-4e-05,-0.00025,-5e-05,-0.00023,0,2,30
7860,-8e-05,3e-05,1e-05,-4e-05,-0.00025,-5e-05,-0.00023,0,2,30
7861,-8e-05,3e-05,1e-05,-4e-05,-0.00025,-5e-05,-0.00023,0,2,30
7862,-8e-05,3e-05,1e-05,-4e-05,-0.00025,-5e-05,-0.00023,0,2,30
7863,-8e-05,3e-05,1e-05,-4e-05,-0.00025,-5e-05,-0.00023,0,2,30
7864,-8e-05,3e-05,1e-05,-4e-05,-0.00025,-5e-05,-0.00023,0,2,30
7865,-8e-05,3e-05,1e-05,-4e-05,-0.00025,-5e-05,-0.00023,0,2,30
7866,-8e-05,3e-05,1e-05,-4e-05,-0.00025,-5e-05,-0.00023,0,2,30
7867,-8e-05,3e-05,1e-05,-4e-05,-0.00025,-5e-05,-0.00023,0,2,30
7868,-8e-05,3e-05,1e-05,-4e-05,-0.00025,-5e-05,-0.00023,0,2,30
7869,-1e-05,-1e-05,0,1e-05,0.00013,0.00021,0.00044,5e-05,2,30
7870,3e-05,-1e-05,0.0001,0.00023,-0.00035,-0.00056,-0.00016,-5e-05,2,30
7871,3e-05,-1e-05,0.0001,0.00023,-0.00035,-0.00056,-0.00016,-5e-05,2,30
7872,3e-05,-1e-05,0.0001,0.00023,-0.00035,-0.00056,-0.00016,-5e-05,2,30
7873,3e-05,-1e-05,0.0001,0.00023,-0.00035,-0.00056,-0.00016,-5e-05,2,30
7874,3e-05,-1e-05,0.0001,0.00023,-0.00035,-0.00056,-0.00016,-5e-05,2,30
7875,3e-05,-1e-05,0.0001,0.00023,-0.00035,-0.00056,-0.00016,-5e-05,2,30
7876,3e-05,-1e-05,0.0001,0.00023,-0.00035,-0.00056,-0.00016,-5e-05,2,30
7877,3e-05,-1e-05,0.0001,0.00023,-0.00035,-0.00056,-0.00016,-5e-05,2,30
7878,3e-05,-1e-05,0.0001,0.00023,-0.00035,-0.00056,-0.00016,-5e-05,2,30
7879,3e-05,-1e-05,0.0001,0.00023,-0.00035,-0.00056,-0.00016,-5e-05,2,30
7880,3e-05,-1e-05,0.0001,0.00023,-0.00035,-0.00056,-0.00016,-5e-05,2,30
7881,3e-05,-1e-05,0.0001,0.00023,-0.00035,-0.00056,-0.00016,-5e-05,2,30
7882,3e-05,-1e-05,0.0001,0.00023,-0.00035,-0.00056,-0.00016,-5e-05,2,30
7883,-6e-05,-3e-05,-7e-05,-0.00012,0.00011,2e-05,-0.00017,-4e-05,2,30
7884,-6e-05,-3e-05,-7e-05,-0.00012,0.00011,2e-05,-0.00017,-4e-05,2,30
7885,-6e-05,-3e-05,-7e-05,-0.00012,0.00011,2e-05,-0.00017,-4e-05,2,30
7886,-6e-05,-3e-05,-7e-05,-0.00012,0.00011,2e-05,-0.00017,-4e-05,2,30
7888,-6e-05,-3e-05,-7e-05,-0.00012,0.00011,2e-05,-0.00017,-4e-05,2,30
7889,-6e-05,-3e-05,-7e-05,-0.00012,0.00011,2e-05,-0.00017,-4e-05,2,30
7890,8e-05,-5e-05,-0.00017,5e-05,0.00036,0.00027,0.00019,0.00015,2,30
7891,8e-05,-5e-05,-0.00017,5e-05,0.00036,0.00027,0.00019,0.00015,2,30
7892,8e-05,-5e-05,-0.00017,5e-05,0.00036,0.00027,0.00019,0.00015,2,30
7893,8e-05,-5e-05,-0.00017,5e-05,0.00036,0.00027,0.00019,0.00015,2,30
7894,8e-05,-5e-05,-0.00017,5e-05,0.00036,0.00027,0.00019,0.00015,2,30
7895,8e-05,-5e-05,-0.00017,5e-05,0.00036,0.00027,0.00019,0.00015,2,30
7896,8e-05,-5e-05,-0.00017,5e-05,0.00036,0.00027,0.00019,0.00015,2,30
7897,8e-05,-5e-05,-0.00017,5e-05,0.00036,0.00027,0.00019,0.00015,2,30
7898,8e-05,-5e-05,-0.00017,5e-05,0.00036,0.00027,0.00019,0.00015,2,30
7899,8e-05,-5e-05,-0.00017,5e-05,0.00036,0.00027,0.00019,0.00015,2,30
7900,8e-05,-5e-05,-0.00017,5e-05,0.00036,0.00027,0.00019,0.00015,2,30
7901,8e-05,-5e-05,-0.00017,5e-05,0.00036,0.00027,0.00019,0.00015,2,30
7902,8e-05,-5e-05,-0.00017,5e-05,0.00036,0.00027,0.00019,0.00015,2,30
7903,8e-05,-5e-05,-0.00017,5e-05,0.00036,0.00027,0.00019,0.00015,2,30
7904,8e-05,-5e-05,-0.00017,5e-05,0.00036,0.00027,0.00019,0.00015,2,30
7905,8e-05,-5e-05,-0.00017,5e-05,0.00036,0.00027,0.00019,0.00015,2,30
7906,-3e-05,-1e-05,0,0.00022,0.00028,-0.00011,-0.00069,-0.00014,2,30
7907,-4e-05,-4e-05,0,-0.00017,-0.0002,-0.00046,7e-05,-6e-05,2,30
7908,1e-05,1e-05,6e-05,-0.00011,-8e-05,0.00023,-0.00014,-1e-05,2,30
7909,1e-05,1e-05,6e-05,-0.00011,-8e-05,0.00023,-0.00014,-1e-05,2,30
7910,1e-05,1e-05,6e-05,-0.00011,-8e-05,0.00023,-0.00014,-1e-05,2,30
7911,1e-05,1e-05,6e-05,-0.00011,-8e-05,0.00023,-0.00014,-1e-05,2,30
7912,1e-05,1e-05,6e-05,-0.00011,-8e-05,0.00023,-0.00014,-1e-05,2,30
7913,1e-05,1e-05,6e-05,-0.00011,-8e-05,0.00023,-0.00014,-1e-05,2,30
7914,1e-05,1e-05,6e-05,-0.00011,-8e-05,0.00023,-0.00014,-1e-05,2,30
7915,1e-05,1e-05,6e-05,-0.00011,-8e-05,0.00023,-0.00014,-1e-05,2,30
7916,1e-05,1e-05,6e-05,-0.00011,-8e-05,0.00023,-0.00014,-1e-05,2,30
7917,1e-05,1e-05,6e-05,-0.00011,-8e-05,0.00023,-0.00014,-1e-05,2,30
7918,1e-05,1e-05,6e-05,-0.00011,-8e-05,0.00023,-0.00014,-1e-05,2,30
7919,1e-05,1e-05,6e-05,-0.00011,-8e-05,0.00023,-0.00014,-1e-05,2,30
7920,1e-05,1e-05,6e-05,-0.00011,-8e-05,0.00023,-0.00014,-1e-05,2,30
7921,1e-05,1e-05,6e-05,-0.00011,-8e-05,0.00023,-0.00014,-1e-05,2,30
7922,1e-05,1e-05,6e-05,-0.00011,-8e-05,0.00023,-0.00014,-1e-05,2,30
7923,1e-05,1e-05,6e-05,-0.00011,-8e-05,0.00023,-0.00014,-1e-05,2,30
7924,1e-05,1e-05,6e-05,-0.00011,-8e-05,0.00023,-0.00014,-1e-05,2,30
7925,1e-05,1e-05,6e-05,-0.00011,-8e-05,0.00023,-0.00014,-1e-05,2,30
7926,1e-05,1e-05,6e-05,-0.00011,-8e-05,0.00023,-0.00014,-1e-05,2,30
7927,1e-05,1e-05,6e-05,-0.00011,-8e-05,0.00023,-0.00014,-1e-05,2,30
7928,-3e-05,-1e-05,-1e-05,0.00027,-0.00015,0.00054,-0.00023,-0.0001,2,30
7929,0,-2e-05,-6e-05,-0.00017,0.00024,-0.00016,6e-05,1e-05,2,30
7930,2e-05,-1e-05,4e-05,0.0001,0.00029,3e-05,6e-05,4e-05,2,30
7931,2e-05,-1e-05,4e-05,0.0001,0.00029,3e-05,6e-05,4e-05,2,30
7932,2e-05,-1e-05,4e-05,0.0001,0.00029,3e-05,6e-05,4e-05,2,30
7933,2e-05,-1e-05,4e-05,0.0001,0.00029,3e-05,6e-05,4e-05,2,30
7934,2e-05,-1e-05,4e-05,0.0001,0.00029,3e-05,6e-05,4e-05,2,30
7935,2e-05,-1e-05,4e-05,0.0001,0.00029,3e-05,6e-05,4e-05,2,30
7936,2e-05,-1e-05,4e-05,0.0001,0.00029,3e-05,6e-05,4e-05,2,30
7938,2e-05,-1e-05,4e-05,0.0001,0.00029,3e-05,6e-05,4e-05,2,30
7939,2e-05,-1e-05,4e-05,0.0001,0.00029,3e-05,6e-05,4e-05,2,30
7940,2e-05,-1e-05,4e-05,0.0001,0.00029,3e-05,6e-05,4e-05,2,30
7941,2e-05,-1e-05,4e-05,0.0001,0.00029,3e-05,6e-05,4e-05,2,30
7942,2e-05,-1e-05,4e-05,0.0001,0.00029,3e-05,6e-05,4e-05,2,30
7943,3e-05,-4e-05,-6e-05,-0.00049,0.0002,-7e-05,-0.00013,-7e-05,2,30
7944,3e-05,-4e-05,-6e-05,-0.00049,0.0002,-7e-05,-0.00013,-7e-05,2,30
7945,3e-05,-4e-05,-6e-05,-0.00049,0.0002,-7e-05,-0.00013,-7e-05,2,30
7946,3e-05,-4e-05,-6e-05,-0.00049,0.0002,-7e-05,-0.00013,-7e-05,2,30
7947,3e-05,-4e-05,-6e-05,-0.00049,0.0002,-7e-05,-0.00013,-7e-05,2,30
7948,3e-05,-4e-05,-6e-05,-0.00049,0.0002,-7e-05,-0.00013,-7e-05,2,30
7949,3e-05,-4e-05,-6e-05,-0.00049,0.0002,-7e-05,-0.00013,-7e-05,2,30
7950,-1e-05,3e-05,-0.00016,-0.00054,-0.0002,0.00065,0.00032,6e-05,2,30
7951,-1e-05,3e-05,-0.00016,-0.00054,-0.0002,0.00065,0.00032,6e-05,2,30
7952,-1e-05,3e-05,-0.00016,-0.00054,-0.0002,0.00065,0.00032,6e-05,2,30
7953,-1e-05,3e-05,-0.00016,-0.00054,-0.0002,0.00065,0.00032,6e-05,2,30
7954,-1e-05,3e-05,-0.00016,-0.00054,-0.0002,0.00065,0.00032,6e-05,2,30
7955,-1e-05,3e-05,-0.00016,-0.00054,-0.0002,0.00065,0.00032,6e-05,2,30
7956,-1e-05,3e-05,-0.00016,-0.00054,-0.0002,0.00065,0.00032,6e-05,2,30
7957,-1e-05,3e-05,-0.00016,-0.00054,-0.0002,0.00065,0.00032,6e-05,2,30
7958,-1e-05,3e-05,-0.00016,-0.00054,-0.0002,0.00065,0.00032,6e-05,2,30
7959,-1e-05,3e-05,-0.00016,-0.00054,-0.0002,0.00065,0.00032,6e-05,2,30
7960,-1e-05,3e-05,-0.00016,-0.00054,-0.0002,0.00065,0.00032,6e-05,2,30
7961,-1e-05,3e-05,-0.00016,-0.00054,-0.0002,0.00065,0.00032,6e-05,2,30
7962,-1e-05,3e-05,-0.00016,-0.00054,-0.0002,0.00065,0.00032,6e-05,2,30
7963,-1e-05,3e-05,-0.00016,-0.00054,-0.0002,0.00065,0.00032,6e-05,2,30
7964,-1e-05,3e-05,-0.00016,-0.00054,-0.0002,0.00065,0.00032,6e-05,2,30
7965,-1e-05,3e-05,-0.00016,-0.00054,-0.0002,0.00065,0.00032,6e-05,2,30
7966,-0.00021,-8e-05,8e-05,0.00014,0.00033,0.00033,-0.00013,-0.00011,2,30
7967,-0.00021,-8e-05,8e-05,0.00014,0.00033,0.00033,-0.00013,-0.00011,2,30
7968,0.0002,8e-05,0.0002,0.00038,0.00019,-8e-05,0.00031,0.00011,2,30
7969,0.0002,8e-05,0.0002,0.00038,0.00019,-8e-05,0.00031,0.00011,2,30
7970,0.0002,8e-05,0.0002,0.00038,0.00019,-8e-05,0.00031,0.00011,2,30
7971,0.0002,8e-05,0.0002,0.00038,0.00019,-8e-05,0.00031,0.00011,2,30
7972,0.0002,8e-05,0.0002,0.00038,0.00019,-8e-05,0.00031,0.00011,2,30
7973,0.0002,8e-05,0.0002,0.00038,0.00019,-8e-05,0.00031,0.00011,2,30
7974,0.0002,8e-05,0.0002,0.00038,0.00019,-8e-05,0.00031,0.00011,2,30
7975,0.0002,8e-05,0.0002,0.00038,0.00019,-8e-05,0.00031,0.00011,2,30
7976,0.0002,8e-05,0.0002,0.00038,0.00019,-8e-05,0.00031,0.00011,2,30
7977,0.0002,8e-05,0.0002,0.00038,0.00019,-8e-05,0.00031,0.00011,2,30
7978,0.0002,8e-05,0.0002,0.00038,0.00019,-8e-05,0.00031,0.00011,2,30
7979,0.0002,8e-05,0.0002,0.00038,0.00019,-8e-05,0.00031,0.00011,2,30
7980,0.0002,8e-05,0.0002,0.00038,0.00019,-8e-05,0.00031,0.00011,2,30
7981,0.0002,8e-05,0.0002,0.00038,0.00019,-8e-05,0.00031,0.00011,2,30
7982,0.0002,8e-05,0.0002,0.00038,0.00019,-8e-05,0.00031,0.00011,2,30
7983,0.0002,8e-05,0.0002,0.00038,0.00019,-8e-05,0.00031,0.00011,2,30
7984,0.0002,8e-05,0.0002,0.00038,0.00019,-8e-05,0.00031,0.00011,2,30
7985,0.0002,8e-05,0.0002,0.00038,0.00019,-8e-05,0.00031,0.00011,2,30
7986,0.0002,8e-05,0.0002,0.00038,0.00019,-8e-05,0.00031,0.00011,2,30
7988,0.0002,8e-05,0.0002,0.00038,0.00019,-8e-05,0.00031,0.00011,2,30
7989,0,0,-3e-05,-7e-05,-0.00037,-0.00022,7e-05,4e-05,2,30
7990,2e-05,4e-05,4e-05,-7e-05,3e-05,0.00063,0.00043,0.0001,2,30
7991,-7e-05,-3e-05,0,-0.00013,1e-05,-9e-05,-0.0001,-4e-05,2,30
7992,-7e-05,-3e-05,0,-0.00013,1e-05,-9e-05,-0.0001,-4e-05,2,30
7993,-7e-05,-3e-05,0,-0.00013,1e-05,-9e-05,-0.0001,-4e-05,2,30
7994,-7e-05,-3e-05,0,-0.00013,1e-05,-9e-05,-0.0001,-4e-05,2,30
7995,-7e-05,-3e-05,0,-0.00013,1e-05,-9e-05,-0.0001,-4e-05,2,30
7996,-7e-05,-3e-05,0,-0.00013,1e-05,-9e-05,-0.0001,-4e-05,2,30
7997,-7e-05,-3e-05,0,-0.00013,1e-05,-9e-05,-0.0001,-4e-05,2,30
7998,-7e-05,-3e-05,0,-0.00013,1e-05,-9e-05,-0.0001,-4e-05,2,30
7999,-7e-05,-3e-05,0,-0.00013,1e-05,-9e-05,-0.0001,-4e-05,2,30
8000,-7e-05,-3e-05,0,-0.00013,1e-05,-9e-05,-0.0001,-4e-05,2,30
8001,-7e-05,-3e-05,0,-0.00013,1e-05,-9e-05,-0.0001,-4e-05,2,30
8002,-7e-05,-3e-05,0,-0.00013,1e-05,-9e-05,-0.0001,-4e-05,2,30
8003,3e-05,-4e-05,-7e-05,-3e-05,-0.00013,0.00014,0.00022,6e-05,2,30
8004,3e-05,-4e-05,-7e-05,-3e-05,-0.00013,0.00014,0.00022,6e-05,2,30
8005,3e-05,-4e-05,-7e-05,-3e-05,-0.00013,0.00014,0.00022,6e-05,2,30
8006,3e-05,-4e-05,-7e-05,-3e-05,-0.00013,0.00014,0.00022,6e-05,2,30
8007,3e-05,-4e-05,-7e-05,-3e-05,-0.00013,0.00014,0.00022,6e-05,2,30
8008,3e-05,-4e-05,-7e-05,-3e-05,-0.00013,0.00014,0.00022,6e-05,2,30
8009,3e-05,-4e-05,-7e-05,-3e-05,-0.00013,0.00014,0.00022,6e-05,2,30
8010,-5e-05,0,5e-05,0.00025,-0.00012,-0.00017,0.00014,-0.00014,2,30
8011,-5e-05,0,5e-05,0.00025,-0.00012,-0.00017,0.00014,-0.00014,2,30
8012,-5e-05,0,5e-05,0.00025,-0.00012,-0.00017,0.00014,-0.00014,2,30
8013,-5e-05,0,5e-05,0.00025,-0.00012,-0.00017,0.00014,-0.00014,2,30
8014,-5e-05,0,5e-05,0.00025,-0.00012,-0.00017,0.00014,-0.00014,2,30
8015,-5e-05,0,5e-05,0.00025,-0.00012,-0.00017,0.00014,-0.00014,2,30
8016,-5e-05,0,5e-05,0.00025,-0.00012,-0.00017,0.00014,-0.00014,2,30
8017,-5e-05,0,5e-05,0.00025,-0.00012,-0.00017,0.00014,-0.00014,2,30
8018,-5e-05,0,5e-05,0.00025,-0.00012,-0.00017,0.00014,-0.00014,2,30
8019,-5e-05,0,5e-05,0.00025,-0.00012,-0.00017,0.00014,-0.00014,2,30
8020,-5e-05,0,5e-05,0.00025,-0.00012,-0.00017,0.00014,-0.00014,2,30
8021,-5e-05,0,5e-05,0.00025,-0.00012,-0.00017,0.00014,-0.00014,2,30
8022,-5e-05,0,5e-05,0.00025,-0.00012,-0.00017,0.00014,-0.00014,2,30
8023,-5e-05,0,5e-05,0.00025,-0.00012,-0.00017,0.00014,-0.00014,2,30
8024,-5e-05,0,5e-05,0.00025,-0.00012,-0.00017,0.00014,-0.00014,2,30
8025,-5e-05,0,5e-05,0.00025,-0.00012,-0.00017,0.00014,-0.00014,2,30
8026,-8e-05,-6e-05,-0.00019,-0.00034,-4e-05,2e-05,-0.00015,2e-05,2,30
8027,-8e-05,-6e-05,-0.00019,-0.00034,-4e-05,2e-05,-0.00015,2e-05,2,30
8028,-0.00021,-0.00011,-8e-05,-1e-05,0.00033,-0.00024,-0.00039,-0.0002,2,30
8029,-0.00021,-0.00011,-8e-05,-1e-05,0.00033,-0.00024,-0.00039,-0.0002,2,30
8030,-0.00021,-0.00011,-8e-05,-1e-05,0.00033,-0.00024,-0.00039,-0.0002,2,30
8031,-0.00021,-0.00011,-8e-05,-1e-05,0.00033,-0.00024,-0.00039,-0.0002,2,30
8032,-0.00021,-0.00011,-8e-05,-1e-05,0.00033,-0.00024,-0.00039,-0.0002,2,30
8033,-0.00021,-0.00011,-8e-05,-1e-05,0.00033,-0.00024,-0.00039,-0.0002,2,30
8034,-0.00021,-0.00011,-8e-05,-1e-05,0.00033,-0.00024,-0.00039,-0.0002,2,30
8035,-0.00021,-0.00011,-8e-05,-1e-05,0.00033,-0.00024,-0.00039,-0.0002,2,30
8036,-0.00021,-0.00011,-8e-05,-1e-05,0.00033,-0.00024,-0.00039,-0.0002,2,30
8038,-0.00021,-0.00011,-8e-05,-1e-05,0.00033,-0.00024,-0.00039,-0.0002,2,30
8039,-0.00021,-0.00011,-8e-05,-1e-05,0.00033,-0.00024,-0.00039,-0.0002,2,30
8040,-0.00021,-0.00011,-8e-05,-1e-05,0.00033,-0.00024,-0.00039,-0.0002,2,30
8041,-0.00021,-0.00011,-8e-05,-1e-05,0.00033,-0.00024,-0.00039,-0.0002,2,30
8042,-0.00021,-0.00011,-8e-05,-1e-05,0.00033,-0.00024,-0.00039,-0.0002,2,30
8043,-0.00021,-0.00011,-8e-05,-1e-05,0.00033,-0.00024,-0.00039,-0.0002,2,30
8044,-0.00021,-0.00011,-8e-05,-1e-05,0.00033,-0.00024,-0.00039,-0.0002,2,30
8045,-0.00021,-0.00011,-8e-05,-1e-05,0.00033,-0.00024,-0.00039,-0.0002,2,30
8046,-0.00021,-0.00011,-8e-05,-1e-05,0.00033,-0.00024,-0.00039,-0.0002,2,30
8047,-0.00021,-0.00011,-8e-05,-1e-05,0.00033,-0.00024,-0.00039,-0.0002,2,30
8048,-0.00021,-0.00011,-8e-05,-1e-05,0.00033,-0.00024,-0.00039,-0.0002,2,30
8049,1e-05,4e-05,0,-0.0003,-0.00014,-0.00068,2e-05,-3e-05,2,30
8050,-2e-05,-4e-05,-9e-05,0.00018,-2e-05,0.00041,9e-05,-1e-05,2,30
8051,-2e-05,-4e-05,-9e-05,0.00018,-2e-05,0.00041,9e-05,-1e-05,2,30
8052,-2e-05,-4e-05,-9e-05,0.00018,-2e-05,0.00041,9e-05,-1e-05,2,30
8053,-2e-05,-4e-05,-9e-05,0.00018,-2e-05,0.00041,9e-05,-1e-05,2,30
8054,-2e-05,-4e-05,-9e-05,0.00018,-2e-05,0.00041,9e-05,-1e-05,2,30
8055,-2e-05,-4e-05,-9e-05,0.00018,-2e-05,0.00041,9e-05,-1e-05,2,30
8056,-2e-05,-4e-05,-9e-05,0.00018,-2e-05,0.00041,9e-05,-1e-05,2,30
8057,-2e-05,-4e-05,-9e-05,0.00018,-2e-05,0.00041,9e-05,-1e-05,2,30
8058,-2e-05,-4e-05,-9e-05,0.00018,-2e-05,0.00041,9e-05,-1e-05,2,30
8059,-2e-05,-4e-05,-9e-05,0.00018,-2e-05,0.00041,9e-05,-1e-05,2,30
8060,-2e-05,-4e-05,-9e-05,0.00018,-2e-05,0.00041,9e-05,-1e-05,2,30
8061,-2e-05,-4e-05,-9e-05,0.00018,-2e-05,0.00041,9e-05,-1e-05,2,30
8062,-2e-05,-4e-05,-9e-05,0.00018,-2e-05,0.00041,9e-05,-1e-05,2,30
8063,-2e-05,-4e-05,-9e-05,0.00018,-2e-05,0.00041,9e-05,-1e-05,2,30
8064,-2e-05,-4e-05,-9e-05,0.00018,-2e-05,0.00041,9e-05,-1e-05,2,30
8065,-2e-05,-4e-05,-9e-05,0.00018,-2e-05,0.00041,9e-05,-1e-05,2,30
8066,-2e-05,-4e-05,-9e-05,0.00018,-2e-05,0.00041,9e-05,-1e-05,2,30
8067,-2e-05,-4e-05,-9e-05,0.00018,-2e-05,0.00041,9e-05,-1e-05,2,30
8068,-2e-05,-4e-05,-9e-05,0.00018,-2e-05,0.00041,9e-05,-1e-05,2,30
8069,-2e-05,-4e-05,-9e-05,0.00018,-2e-05,0.00041,9e-05,-1e-05,2,30
8070,-2e-05,-4e-05,-9e-05,0.00018,-2e-05,0.00041,9e-05,-1e-05,2,30
8071,1e-05,3e-05,0.00011,-4e-05,-0.00024,-5e-05,-0.00026,-4e-05,2,30
8072,1e-05,3e-05,0.00011,-4e-05,-0.00024,-5e-05,-0.00026,-4e-05,2,30
8073,-4e-05,-4e-05,-9e-05,-5e-05,-0.00032,-0.00026,3e-05,-3e-05,2,30
8074,-4e-05,-4e-05,-9e-05,-5e-05,-0.00032,-0.00026,3e-05,-3e-05,2,30
8075,-4e-05,-4e-05,-9e-05,-5e-05,-0.00032,-0.00026,3e-05,-3e-05,2,30
8076,-4e-05,-4e-05,-9e-05,-5e-05,-0.00032,-0.00026,3e-05,-3e-05,2,30
8077,-4e-05,-4e-05,-9e-05,-5e-05,-0.00032,-0.00026,3e-05,-3e-05,2,30
8078,-4e-05,-4e-05,-9e-05,-5e-05,-0.00032,-0.00026,3e-05,-3e-05,2,30
8079,-4e-05,-4e-05,-9e-05,-5e-05,-0.00032,-0.00026,3e-05,-3e-05,2,30
8080,-4e-05,-4e-05,-9e-05,-5e-05,-0.00032,-0.00026,3e-05,-3e-05,2,30
8081,-4e-05,-4e-05,-9e-05,-5e-05,-0.00032,-0.00026,3e-05,-3e-05,2,30
8082,-4e-05,-4e-05,-9e-05,-5e-05,-0.00032,-0.00026,3e-05,-3e-05,2,30
8083,-4e-05,-4e-05,-9e-05,-5e-05,-0.00032,-0.00026,3e-05,-3e-05,2,30
8084,-4e-05,-4e-05,-9e-05,-5e-05,-0.00032,-0.00026,3e-05,-3e-05,2,30
8085,-4e-05,-4e-05,-9e-05,-5e-05,-0.00032,-0.00026,3e-05,-3e-05,2,30
8086,-7e-05,-1e-05,3e-05,0.00036,-4e-05,2e-05,0.00011,-6e-05,2,30
8088,4e-05,4e-05,8e-05,5e-05,0.00013,0.00061,-2e-05,0.00016,2,30
8089,4e-05,4e-05,8e-05,5e-05,0.00013,0.00061,-2e-05,0.00016,2,30
8090,4e-05,4e-05,8e-05,5e-05,0.00013,0.00061,-2e-05,0.00016,2,30
8091,4e-05,4e-05,8e-05,5e-05,0.00013,0.00061,-2e-05,0.00016,2,30
8092,4e-05,4e-05,8e-05,5e-05,0.00013,0.00061,-2e-05,0.00016,2,30
8093,4e-05,4e-05,8e-05,5e-05,0.00013,0.00061,-2e-05,0.00016,2,30
8094,4e-05,4e-05,8e-05,5e-05,0.00013,0.00061,-2e-05,0.00016,2,30
8095,4e-05,4e-05,8e-05,5e-05,0.00013,0.00061,-2e-05,0.00016,2,30
8096,4e-05,4e-05,8e-05,5e-05,0.00013,0.00061,-2e-05,0.00016,2,30
8097,4e-05,4e-05,8e-05,5e-05,0.00013,0.00061,-2e-05,0.00016,2,30
8098,4e-05,4e-05,8e-05,5e-05,0.00013,0.00061,-2e-05,0.00016,2,30
8099,4e-05,4e-05,8e-05,5e-05,0.00013,0.00061,-2e-05,0.00016,2,30
8100,4e-05,4e-05,8e-05,5e-05,0.00013,0.00061,-2e-05,0.00016,2,30
8101,4e-05,4e-05,8e-05,5e-05,0.00013,0.00061,-2e-05,0.00016,2,30
8102,4e-05,4e-05,8e-05,5e-05,0.00013,0.00061,-2e-05,0.00016,2,30
8103,4e-05,4e-05,8e-05,5e-05,0.00013,0.00061,-2e-05,0.00016,2,30
8104,4e-05,4e-05,8e-05,5e-05,0.00013,0.00061,-2e-05,0.00016,2,30
8105,4e-05,4e-05,8e-05,5e-05,0.00013,0.00061,-2e-05,0.00016,2,30
8106,4e-05,4e-05,8e-05,5e-05,0.00013,0.00061,-2e-05,0.00016,2,30
8107,4e-05,4e-05,8e-05,5e-05,0.00013,0.00061,-2e-05,0.00016,2,30
8108,4e-05,4e-05,8e-05,5e-05,0.00013,0.00061,-2e-05,0.00016,2,30
8109,1e-05,0,2e-05,0.00027,-6e-05,0.00069,-0.00017,-3e-05,2,30
8110,2e-05,1e-05,1e-05,-4e-05,-0.00012,-0.00012,-0.00021,-4e-05,2,30
8111,2e-05,1e-05,1e-05,-4e-05,-0.00012,-0.00012,-0.00021,-4e-05,2,30
8112,2e-05,1e-05,1e-05,-4e-05,-0.00012,-0.00012,-0.00021,-4e-05,2,30
8113,2e-05,1e-05,1e-05,-4e-05,-0.00012,-0.00012,-0.00021,-4e-05,2,30
8114,2e-05,1e-05,1e-05,-4e-05,-0.00012,-0.00012,-0.00021,-4e-05,2,30
8115,2e-05,1e-05,1e-05,-4e-05,-0.00012,-0.00012,-0.00021,-4e-05,2,30
8116,2e-05,1e-05,1e-05,-4e-05,-0.00012,-0.00012,-0.00021,-4e-05,2,30
8117,2e-05,1e-05,1e-05,-4e-05,-0.00012,-0.00012,-0.00021,-4e-05,2,30
8118,2e-05,1e-05,1e-05,-4e-05,-0.00012,-0.00012,-0.00021,-4e-05,2,30
8119,2e-05,1e-05,1e-05,-4e-05,-0.00012,-0.00012,-0.00021,-4e-05,2,30
8120,2e-05,1e-05,1e-05,-4e-05,-0.00012,-0.00012,-0.00021,-4e-05,2,30
8121,2e-05,1e-05,1e-05,-4e-05,-0.00012,-0.00012,-0.00021,-4e-05,2,30
8122,2e-05,1e-05,1e-05,-4e-05,-0.00012,-0.00012,-0.00021,-4e-05,2,30
8123,-5e-05,-4e-05,1e-05,0.0001,0.00028,-0.00067,-0.00051,-0.00011,2,30
8124,-5e-05,-4e-05,1e-05,0.0001,0.00028,-0.00067,-0.00051,-0.00011,2,30
8125,-5e-05,-4e-05,1e-05,0.0001,0.00028,-0.00067,-0.00051,-0.00011,2,30
8126,-5e-05,-4e-05,1e-05,0.0001,0.00028,-0.00067,-0.00051,-0.00011,2,30
8127,-5e-05,-4e-05,1e-05,0.0001,0.00028,-0.00067,-0.00051,-0.00011,2,30
8128,-5e-05,-4e-05,1e-05,0.0001,0.00028,-0.00067,-0.00051,-0.00011,2,30
8129,-5e-05,-4e-05,1e-05,0.0001,0.00028,-0.00067,-0.00051,-0.00011,2,30
8130,0.00011,4e-05,4e-05,0.00011,-0.0001,0.00014,7e-05,5e-05,2,30
8131,0.00011,4e-05,4e-05,0.00011,-0.0001,0.00014,7e-05,5e-05,2,30
8132,0.00011,4e-05,4e-05,0.00011,-0.0001,0.00014,7e-05,5e-05,2,30
8133,0.00011,4e-05,4e-05,0.00011,-0.0001,0.00014,7e-05,5e-05,2,30
8134,0.00011,4e-05,4e-05,0.00011,-0.0001,0.00014,7e-05,5e-05,2,30
8135,0.00011,4e-05,4e-05,0.00011,-0.0001,0.00014,7e-05,5e-05,2,30
8136,0.00011,4e-05,4e-05,0.00011,-0.0001,0.00014,7e-05,5e-05,2,30
8138,0.00011,4e-05,4e-05,0.00011,-0.0001,0.00014,7e-05,5e-05,2,30
8139,0.00011,4e-05,4e-05,0.00011,-0.0001,0.00014,7e-05,5e-05,2,30
8140,0.00011,4e-05,4e-05,0.00011,-0.0001,0.00014,7e-05,5e-05,2,30
8141,0.00011,4e-05,4e-05,0.00011,-0.0001,0.00014,7e-05,5e-05,2,30
8142,0.00011,4e-05,4e-05,0.00011,-0.0001,0.00014,7e-05,5e-05,2,30
8143,0.00011,4e-05,4e-05,0.00011,-0.0001,0.00014,7e-05,5e-05,2,30
8144,0.00011,4e-05,4e-05,0.00011,-0.0001,0.00014,7e-05,5e-05,2,30
8145,0.00011,4e-05,4e-05,0.00011,-0.0001,0.00014,7e-05,5e-05,2,30
8146,-6e-05,-6e-05,-2e-05,-0.00023,-5e-05,0.00022,-6e-05,-4e-05,2,30
8147,-6e-05,-6e-05,-2e-05,-0.00023,-5e-05,0.00022,-6e-05,-4e-05,2,30
8148,-0.0001,-2e-05,-5e-05,-0.00016,0.00018,-0.00044,-0.00017,-7e-05,2,30
8149,-0.0001,-2e-05,-5e-05,-0.00016,0.00018,-0.00044,-0.00017,-7e-05,2,30
8150,-0.0001,-2e-05,-5e-05,-0.00016,0.00018,-0.00044,-0.00017,-7e-05,2,30
8151,-0.0001,-2e-05,-5e-05,-0.00016,0.00018,-0.00044,-0.00017,-7e-05,2,30
8152,-0.0001,-2e-05,-5e-05,-0.00016,0.00018,-0.00044,-0.00017,-7e-05,2,30
8153,-0.0001,-2e-05,-5e-05,-0.00016,0.00018,-0.00044,-0.00017,-7e-05,2,30
8154,-0.0001,-2e-05,-5e-05,-0.00016,0.00018,-0.00044,-0.00017,-7e-05,2,30
8155,-0.0001,-2e-05,-5e-05,-0.00016,0.00018,-0.00044,-0.00017,-7e-05,2,30
8156,-0.0001,-2e-05,-5e-05,-0.00016,0.00018,-0.00044,-0.00017,-7e-05,2,30
8157,-0.0001,-2e-05,-5e-05,-0.00016,0.00018,-0.00044,-0.00017,-7e-05,2,30
8158,-0.0001,-2e-05,-5e-05,-0.00016,0.00018,-0.00044,-0.00017,-7e-05,2,30
8159,-0.0001,-2e-05,-5e-05,-0.00016,0.00018,-0.00044,-0.00017,-7e-05,2,30
8160,-0.0001,-2e-05,-5e-05,-0.00016,0.00018,-0.00044,-0.00017,-7e-05,2,30
8162,-0.0001,-2e-05,-5e-05,-0.00016,0.00018,-0.00044,-0.00017,-7e-05,2,30
8163,-0.0001,-2e-05,-5e-05,-0.00016,0.00018,-0.00044,-0.00017,-7e-05,2,30
8164,-0.0001,-2e-05,-5e-05,-0.00016,0.00018,-0.00044,-0.00017,-7e-05,2,30
8165,-0.0001,-2e-05,-5e-05,-0.00016,0.00018,-0.00044,-0.00017,-7e-05,2,30
8166,-0.0001,-2e-05,-5e-05,-0.00016,0.00018,-0.00044,-0.00017,-7e-05,2,30
8167,-0.0001,-2e-05,-5e-05,-0.00016,0.00018,-0.00044,-0.00017,-7e-05,2,30
8168,-0.0001,-2e-05,-5e-05,-0.00016,0.00018,-0.00044,-0.00017,-7e-05,2,30
8169,4e-05,0,-4e-05,0.00013,0.00016,-7e-05,9e-05,4e-05,2,30
8170,-6e-05,-6e-05,-4e-05,-0.0003,-0.00019,0.00027,-2e-05,-0.0001,2,30
8171,-6e-05,-6e-05,-4e-05,-0.0003,-0.00019,0.00027,-2e-05,-0.0001,2,30
8172,-6e-05,-6e-05,-4e-05,-0.0003,-0.00019,0.00027,-2e-05,-0.0001,2,30
8173,-6e-05,-6e-05,-4e-05,-0.0003,-0.00019,0.00027,-2e-05,-0.0001,2,30
8174,-6e-05,-6e-05,-4e-05,-0.0003,-0.00019,0.00027,-2e-05,-0.0001,2,30
8175,-6e-05,-6e-05,-4e-05,-0.0003,-0.00019,0.00027,-2e-05,-0.0001,2,30
8176,-6e-05,-6e-05,-4e-05,-0.0003,-0.00019,0.00027,-2e-05,-0.0001,2,30
8177,-6e-05,-6e-05,-4e-05,-0.0003,-0.00019,0.00027,-2e-05,-0.0001,2,30
8178,-6e-05,-6e-05,-4e-05,-0.0003,-0.00019,0.00027,-2e-05,-0.0001,2,30
8179,-6e-05,-6e-05,-4e-05,-0.0003,-0.00019,0.00027,-2e-05,-0.0001,2,30
8180,-6e-05,-6e-05,-4e-05,-0.0003,-0.00019,0.00027,-2e-05,-0.0001,2,30
8181,-6e-05,-6e-05,-4e-05,-0.0003,-0.00019,0.00027,-2e-05,-0.0001,2,30
8182,4e-05,4e-05,-3e-05,-2e-05,-9e-05,0.00017,0.00016,6e-05,2,30
8183,4e-05,4e-05,-3e-05,-2e-05,-9e-05,0.00017,0.00016,6e-05,2,30
8184,4e-05,4e-05,-3e-05,-2e-05,-9e-05,0.00017,0.00016,6e-05,2,30
8185,4e-05,4e-05,-3e-05,-2e-05,-9e-05,0.00017,0.00016,6e-05,2,30
8186,4e-05,4e-05,-3e-05,-2e-05,-9e-05,0.00017,0.00016,6e-05,2,30
8188,4e-05,4e-05,-3e-05,-2e-05,-9e-05,0.00017,0.00016,6e-05,2,30
8189,4e-05,4e-05,-3e-05,-2e-05,-9e-05,0.00017,0.00016,6e-05,2,30
8190,4e-05,4e-05,-3e-05,-2e-05,-9e-05,0.00017,0.00016,6e-05,2,30
8191,4e-05,4e-05,-3e-05,-2e-05,-9e-05,0.00017,0.00016,6e-05,2,30
8192,-8e-05,-5e-05,-5e-05,-1e-05,-5e-05,-0.00031,-0.00029,-0.00016,2,30
8193,-8e-05,-5e-05,-5e-05,-1e-05,-5e-05,-0.00031,-0.00029,-0.00016,2,30
8194,-8e-05,-5e-05,-5e-05,-1e-05,-5e-05,-0.00031,-0.00029,-0.00016,2,30
8195,-8e-05,-5e-05,-5e-05,-1e-05,-5e-05,-0.00031,-0.00029,-0.00016,2,30
8196,-8e-05,-5e-05,-5e-05,-1e-05,-5e-05,-0.00031,-0.00029,-0.00016,2,30
8197,-8e-05,-5e-05,-5e-05,-1e-05,-5e-05,-0.00031,-0.00029,-0.00016,2,30
8198,-8e-05,-5e-05,-5e-05,-1e-05,-5e-05,-0.00031,-0.00029,-0.00016,2,30
8199,-8e-05,-5e-05,-5e-05,-1e-05,-5e-05,-0.00031,-0.00029,-0.00016,2,30
8200,-8e-05,-5e-05,-5e-05,-1e-05,-5e-05,-0.00031,-0.00029,-0.00016,2,30
8201,-8e-05,-5e-05,-5e-05,-1e-05,-5e-05,-0.00031,-0.00029,-0.00016,2,30
8202,-8e-05,-5e-05,-5e-05,-1e-05,-5e-05,-0.00031,-0.00029,-0.00016,2,30
8203,-8e-05,-5e-05,-5e-05,-1e-05,-5e-05,-0.00031,-0.00029,-0.00016,2,30
8204,-8e-05,-5e-05,-5e-05,-1e-05,-5e-05,-0.00031,-0.00029,-0.00016,2,30
8205,-8e-05,-5e-05,-5e-05,-1e-05,-5e-05,-0.00031,-0.00029,-0.00016,2,30
8206,0.0001,3e-05,9e-05,0.00022,-5e-05,-0.00072,0.00023,6e-05,2,30
8207,0.0001,3e-05,9e-05,0.00022,-5e-05,-0.00072,0.00023,6e-05,2,30
8208,-1e-05,-3e-05,3e-05,9e-05,0,8e-05,-0.00034,-6e-05,2,30
8209,-1e-05,-3e-05,3e-05,9e-05,0,8e-05,-0.00034,-6e-05,2,30
8210,-1e-05,-3e-05,3e-05,9e-05,0,8e-05,-0.00034,-6e-05,2,30
8211,-1e-05,-3e-05,3e-05,9e-05,0,8e-05,-0.00034,-6e-05,2,30
8212,-1e-05,-3e-05,3e-05,9e-05,0,8e-05,-0.00034,-6e-05,2,30
8213,-1e-05,-3e-05,3e-05,9e-05,0,8e-05,-0.00034,-6e-05,2,30
8214,-1e-05,-3e-05,3e-05,9e-05,0,8e-05,-0.00034,-6e-05,2,30
8215,-1e-05,-3e-05,3e-05,9e-05,0,8e-05,-0.00034,-6e-05,2,30
8216,-1e-05,-3e-05,3e-05,9e-05,0,8e-05,-0.00034,-6e-05,2,30
8217,-1e-05,-3e-05,3e-05,9e-05,0,8e-05,-0.00034,-6e-05,2,30
8218,-1e-05,-3e-05,3e-05,9e-05,0,8e-05,-0.00034,-6e-05,2,30
8219,-1e-05,-3e-05,3e-05,9e-05,0,8e-05,-0.00034,-6e-05,2,30
8220,-1e-05,-3e-05,3e-05,9e-05,0,8e-05,-0.00034,-6e-05,2,30
8221,-1e-05,-3e-05,3e-05,9e-05,0,8e-05,-0.00034,-6e-05,2,30
8222,-1e-05,-3e-05,3e-05,9e-05,0,8e-05,-0.00034,-6e-05,2,30
8223,-1e-05,-3e-05,3e-05,9e-05,0,8e-05,-0.00034,-6e-05,2,30
8224,-1e-05,-3e-05,3e-05,9e-05,0,8e-05,-0.00034,-6e-05,2,30
8225,-1e-05,-3e-05,3e-05,9e-05,0,8e-05,-0.00034,-6e-05,2,30
8226,-1e-05,-3e-05,3e-05,9e-05,0,8e-05,-0.00034,-6e-05,2,30
8227,-1e-05,-3e-05,3e-05,9e-05,0,8e-05,-0.00034,-6e-05,2,30
8228,-1e-05,-3e-05,3e-05,9e-05,0,8e-05,-0.00034,-6e-05,2,30
8229,0,-1e-05,-3e-05,-0.00019,0.00015,1e-05,-0.00016,2e-05,2,30
8230,-6e-05,-4e-05,-0.00015,-3e-05,-0.00034,-0.00026,0,0,2,30
8231,-6e-05,-4e-05,-0.00015,-3e-05,-0.00034,-0.00026,0,0,2,30
8232,-6e-05,-4e-05,-0.00015,-3e-05,-0.00034,-0.00026,0,0,2,30
8233,-6e-05,-4e-05,-0.00015,-3e-05,-0.00034,-0.00026,0,0,2,30
8234,-6e-05,-4e-05,-0.00015,-3e-05,-0.00034,-0.00026,0,0,2,30
8235,-6e-05,-4e-05,-0.00015,-3e-05,-0.00034,-0.00026,0,0,2,30
8236,-6e-05,-4e-05,-0.00015,-3e-05,-0.00034,-0.00026,0,0,2,30
8238,-6e-05,-4e-05,-0.00015,-3e-05,-0.00034,-0.00026,0,0,2,30
8239,-6e-05,-4e-05,-0.00015,-3e-05,-0.00034,-0.00026,0,0,2,30
8240,-6e-05,-4e-05,-0.00015,-3e-05,-0.00034,-0.00026,0,0,2,30
8241,-6e-05,-4e-05,-0.00015,-3e-05,-0.00034,-0.00026,0,0,2,30
8242,-6e-05,-4e-05,-0.00015,-3e-05,-0.00034,-0.00026,0,0,2,30
8243,1e-05,-1e-05,-1e-05,3e-05,-0.00021,0.00048,0.00044,0.0001,2,30
8244,1e-05,-1e-05,-1e-05,3e-05,-0.00021,0.00048,0.00044,0.0001,2,30
8245,1e-05,-1e-05,-1e-05,3e-05,-0.00021,0.00048,0.00044,0.0001,2,30
8246,1e-05,-1e-05,-1e-05,3e-05,-0.00021,0.00048,0.00044,0.0001,2,30
8247,1e-05,-1e-05,-1e-05,3e-05,-0.00021,0.00048,0.00044,0.0001,2,30
8248,1e-05,-1e-05,-1e-05,3e-05,-0.00021,0.00048,0.00044,0.0001,2,30
8249,1e-05,-1e-05,-1e-05,3e-05,-0.00021,0.00048,0.00044,0.0001,2,30
8250,1e-05,-1e-05,-1e-05,3e-05,-0.00021,0.00048,0.00044,0.0001,2,30
8251,-2e-05,-5e-05,-4e-05,-2e-05,-5e-05,-5e-05,-0.00013,-3e-05,2,30
8252,-2e-05,-5e-05,-4e-05,-2e-05,-5e-05,-5e-05,-0.00013,-3e-05,2,30
8253,-2e-05,-5e-05,-4e-05,-2e-05,-5e-05,-5e-05,-0.00013,-3e-05,2,30
8254,-2e-05,-5e-05,-4e-05,-2e-05,-5e-05,-5e-05,-0.00013,-3e-05,2,30
8255,-2e-05,-5e-05,-4e-05,-2e-05,-5e-05,-5e-05,-0.00013,-3e-05,2,30
8256,-2e-05,-5e-05,-4e-05,-2e-05,-5e-05,-5e-05,-0.00013,-3e-05,2,30
8257,-2e-05,-5e-05,-4e-05,-2e-05,-5e-05,-5e-05,-0.00013,-3e-05,2,30
8258,-2e-05,-5e-05,-4e-05,-2e-05,-5e-05,-5e-05,-0.00013,-3e-05,2,30
8259,-2e-05,-5e-05,-4e-05,-2e-05,-5e-05,-5e-05,-0.00013,-3e-05,2,30
8260,-2e-05,-5e-05,-4e-05,-2e-05,-5e-05,-5e-05,-0.00013,-3e-05,2,30
8261,-2e-05,-5e-05,-4e-05,-2e-05,-5e-05,-5e-05,-0.00013,-3e-05,2,30
8262,-2e-05,-5e-05,-4e-05,-2e-05,-5e-05,-5e-05,-0.00013,-3e-05,2,30
8263,-2e-05,-5e-05,-4e-05,-2e-05,-5e-05,-5e-05,-0.00013,-3e-05,2,30
8264,-2e-05,-5e-05,-4e-05,-2e-05,-5e-05,-5e-05,-0.00013,-3e-05,2,30
