3867,-0.00036,-5e-05,0.0001,0.0001,-0.00028,-0.00088,-0.00035,-0.00035,2,31
3868,-0.00036,-5e-05,0.0001,0.0001,-0.00028,-0.00088,-0.00035,-0.00035,2,31
3869,-0.00036,-5e-05,0.0001,0.0001,-0.00028,-0.00088,-0.00035,-0.00035,2,31
3870,-0.00036,-5e-05,0.0001,0.0001,-0.00028,-0.00088,-0.00035,-0.00035,2,31
3871,-0.00036,-5e-05,0.0001,0.0001,-0.00028,-0.00088,-0.00035,-0.00035,2,31
3872,-0.00036,-5e-05,0.0001,0.0001,-0.00028,-0.00088,-0.00035,-0.00035,2,31
3873,-0.00036,-5e-05,0.0001,0.0001,-0.00028,-0.00088,-0.00035,-0.00035,2,31
3874,-0.00036,-5e-05,0.0001,0.0001,-0.00028,-0.00088,-0.00035,-0.00035,2,31
3875,-0.00036,-5e-05,0.0001,0.0001,-0.00028,-0.00088,-0.00035,-0.00035,2,31
3876,-0.00036,-5e-05,0.0001,0.0001,-0.00028,-0.00088,-0.00035,-0.00035,2,31
3877,-0.00036,-5e-05,0.0001,0.0001,-0.00028,-0.00088,-0.00035,-0.00035,2,31
3878,-0.00036,-5e-05,0.0001,0.0001,-0.00028,-0.00088,-0.00035,-0.00035,2,31
3879,-0.00036,-5e-05,0.0001,0.0001,-0.00028,-0.00088,-0.00035,-0.00035,2,31
3880,-0.00036,-5e-05,0.0001,0.0001,-0.00028,-0.00088,-0.00035,-0.00035,2,31
3881,-0.00036,-5e-05,0.0001,0.0001,-0.00028,-0.00088,-0.00035,-0.00035,2,31
3882,-0.00036,-5e-05,0.0001,0.0001,-0.00028,-0.00088,-0.00035,-0.00035,2,31
3883,0.00024,0.0001,5e-05,0.00039,0.00061,0.00042,-6e-05,3e-05,2,31
3884,-2e-05,-1e-05,-5e-05,-2e-05,-0.00018,-0.00016,-0.00022,-0.00016,2,31
3885,-2e-05,-1e-05,-5e-05,-2e-05,-0.00018,-0.00016,-0.00022,-0.00016,2,31
3886,-2e-05,-1e-05,-5e-05,-2e-05,-0.00018,-0.00016,-0.00022,-0.00016,2,31
3888,-2e-05,-1e-05,-5e-05,-2e-05,-0.00018,-0.00016,-0.00022,-0.00016,2,31
3889,-2e-05,-1e-05,-5e-05,-2e-05,-0.00018,-0.00016,-0.00022,-0.00016,2,31
3890,-2e-05,-1e-05,-5e-05,-2e-05,-0.00018,-0.00016,-0.00022,-0.00016,2,31
3891,-2e-05,-1e-05,-5e-05,-2e-05,-0.00018,-0.00016,-0.00022,-0.00016,2,31
3892,-2e-05,-1e-05,-5e-05,-2e-05,-0.00018,-0.00016,-0.00022,-0.00016,2,31
3893,-2e-05,-1e-05,-5e-05,-2e-05,-0.00018,-0.00016,-0.00022,-0.00016,2,31
3894,-2e-05,-1e-05,-5e-05,-2e-05,-0.00018,-0.00016,-0.00022,-0.00016,2,31
3895,-2e-05,-1e-05,-5e-05,-2e-05,-0.00018,-0.00016,-0.00022,-0.00016,2,31
3896,-2e-05,-1e-05,-5e-05,-2e-05,-0.00018,-0.00016,-0.00022,-0.00016,2,31
3897,-2e-05,-1e-05,-5e-05,-2e-05,-0.00018,-0.00016,-0.00022,-0.00016,2,31
3898,-2e-05,-1e-05,-5e-05,-2e-05,-0.00018,-0.00016,-0.00022,-0.00016,2,31
3899,-2e-05,-1e-05,-5e-05,-2e-05,-0.00018,-0.00016,-0.00022,-0.00016,2,31
3900,-2e-05,-1e-05,-5e-05,-2e-05,-0.00018,-0.00016,-0.00022,-0.00016,2,31
3901,-2e-05,-1e-05,-5e-05,-2e-05,-0.00018,-0.00016,-0.00022,-0.00016,2,31
3902,-2e-05,-1e-05,-5e-05,-2e-05,-0.00018,-0.00016,-0.00022,-0.00016,2,31
3903,-2e-05,-1e-05,-5e-05,-2e-05,-0.00018,-0.00016,-0.00022,-0.00016,2,31
3904,-2e-05,-1e-05,-5e-05,-2e-05,-0.00018,-0.00016,-0.00022,-0.00016,2,31
3905,-0.0002,-9e-05,-7e-05,-2e-05,-0.00013,-0.00032,-6e-05,-0.00047,2,31
3906,-0.00073,-9e-05,-2e-05,-0.00027,-0.00013,0.00033,2e-05,-0.00074,2,31
3907,-0.00073,-9e-05,-2e-05,-0.00027,-0.00013,0.00033,2e-05,-0.00074,2,31
3908,-0.00073,-9e-05,-2e-05,-0.00027,-0.00013,0.00033,2e-05,-0.00074,2,31
3909,-0.00073,-9e-05,-2e-05,-0.00027,-0.00013,0.00033,2e-05,-0.00074,2,31
3910,-0.00073,-9e-05,-2e-05,-0.00027,-0.00013,0.00033,2e-05,-0.00074,2,31
3911,-0.00073,-9e-05,-2e-05,-0.00027,-0.00013,0.00033,2e-05,-0.00074,2,31
3912,-0.00073,-9e-05,-2e-05,-0.00027,-0.00013,0.00033,2e-05,-0.00074,2,31
3913,-0.00073,-9e-05,-2e-05,-0.00027,-0.00013,0.00033,2e-05,-0.00074,2,31
3914,-0.00073,-9e-05,-2e-05,-0.00027,-0.00013,0.00033,2e-05,-0.00074,2,31
3915,-0.00073,-9e-05,-2e-05,-0.00027,-0.00013,0.00033,2e-05,-0.00074,2,31
3916,-0.00073,-9e-05,-2e-05,-0.00027,-0.00013,0.00033,2e-05,-0.00074,2,31
3917,-0.00073,-9e-05,-2e-05,-0.00027,-0.00013,0.00033,2e-05,-0.00074,2,31
3918,-0.00073,-9e-05,-2e-05,-0.00027,-0.00013,0.00033,2e-05,-0.00074,2,31
3919,-0.00073,-9e-05,-2e-05,-0.00027,-0.00013,0.00033,2e-05,-0.00074,2,31
3920,-0.00073,-9e-05,-2e-05,-0.00027,-0.00013,0.00033,2e-05,-0.00074,2,31
3921,-0.00073,-9e-05,-2e-05,-0.00027,-0.00013,0.00033,2e-05,-0.00074,2,31
3922,-0.00073,-9e-05,-2e-05,-0.00027,-0.00013,0.00033,2e-05,-0.00074,2,31
3923,-0.00073,-9e-05,-2e-05,-0.00027,-0.00013,0.00033,2e-05,-0.00074,2,31
3924,-0.00073,-9e-05,-2e-05,-0.00027,-0.00013,0.00033,2e-05,-0.00074,2,31
3925,-0.00073,-9e-05,-2e-05,-0.00027,-0.00013,0.00033,2e-05,-0.00074,2,31
3926,-0.00073,-9e-05,-2e-05,-0.00027,-0.00013,0.00033,2e-05,-0.00074,2,31
3927,-0.00073,-9e-05,-2e-05,-0.00027,-0.00013,0.00033,2e-05,-0.00074,2,31
3928,-5e-05,-1e-05,0,0.00014,0.00019,2e-05,6e-05,-0.00011,2,31
3929,0.00017,9e-05,0.00014,0.00041,0.00017,-5e-05,4e-05,-1e-05,2,31
3930,0.00017,9e-05,0.00014,0.00041,0.00017,-5e-05,4e-05,-1e-05,2,31
3931,0.00017,9e-05,0.00014,0.00041,0.00017,-5e-05,4e-05,-1e-05,2,31
3932,0.00017,9e-05,0.00014,0.00041,0.00017,-5e-05,4e-05,-1e-05,2,31
3933,0.00017,9e-05,0.00014,0.00041,0.00017,-5e-05,4e-05,-1e-05,2,31
3934,0.00017,9e-05,0.00014,0.00041,0.00017,-5e-05,4e-05,-1e-05,2,31
3935,0.00017,9e-05,0.00014,0.00041,0.00017,-5e-05,4e-05,-1e-05,2,31
3936,0.00017,9e-05,0.00014,0.00041,0.00017,-5e-05,4e-05,-1e-05,2,31
3938,0.00017,9e-05,0.00014,0.00041,0.00017,-5e-05,4e-05,-1e-05,2,31
3939,0.00017,9e-05,0.00014,0.00041,0.00017,-5e-05,4e-05,-1e-05,2,31
3940,0.00017,9e-05,0.00014,0.00041,0.00017,-5e-05,4e-05,-1e-05,2,31
3941,0.00017,9e-05,0.00014,0.00041,0.00017,-5e-05,4e-05,-1e-05,2,31
3942,0.00017,9e-05,0.00014,0.00041,0.00017,-5e-05,4e-05,-1e-05,2,31
3943,0.00017,9e-05,0.00014,0.00041,0.00017,-5e-05,4e-05,-1e-05,2,31
3944,0.00017,9e-05,0.00014,0.00041,0.00017,-5e-05,4e-05,-1e-05,2,31
3945,0.00017,9e-05,0.00014,0.00041,0.00017,-5e-05,4e-05,-1e-05,2,31
3946,0.00017,9e-05,0.00014,0.00041,0.00017,-5e-05,4e-05,-1e-05,2,31
3947,0.00017,9e-05,0.00014,0.00041,0.00017,-5e-05,4e-05,-1e-05,2,31
3948,0.00017,9e-05,0.00014,0.00041,0.00017,-5e-05,4e-05,-1e-05,2,31
3949,0.00017,9e-05,0.00014,0.00041,0.00017,-5e-05,4e-05,-1e-05,2,31
3950,-0.00016,-7e-05,-7e-05,0.00027,0.00018,0.0005,5e-05,0.00018,2,31
3951,0.00033,0.0001,6e-05,-0.00036,-9e-05,0.00013,0.00022,0.00029,2,31
3952,0.00033,0.0001,6e-05,-0.00036,-9e-05,0.00013,0.00022,0.00029,2,31
3953,0.00033,0.0001,6e-05,-0.00036,-9e-05,0.00013,0.00022,0.00029,2,31
3954,0.00033,0.0001,6e-05,-0.00036,-9e-05,0.00013,0.00022,0.00029,2,31
3955,0.00033,0.0001,6e-05,-0.00036,-9e-05,0.00013,0.00022,0.00029,2,31
3956,0.00033,0.0001,6e-05,-0.00036,-9e-05,0.00013,0.00022,0.00029,2,31
3957,-0.00031,-2e-05,2e-05,-5e-05,-1e-05,-0.0005,-0.00013,-0.00044,2,31
3958,-0.00031,-2e-05,2e-05,-5e-05,-1e-05,-0.0005,-0.00013,-0.00044,2,31
3959,-0.00031,-2e-05,2e-05,-5e-05,-1e-05,-0.0005,-0.00013,-0.00044,2,31
3960,-0.00031,-2e-05,2e-05,-5e-05,-1e-05,-0.0005,-0.00013,-0.00044,2,31
3961,-0.00031,-2e-05,2e-05,-5e-05,-1e-05,-0.0005,-0.00013,-0.00044,2,31
3962,-0.00031,-2e-05,2e-05,-5e-05,-1e-05,-0.0005,-0.00013,-0.00044,2,31
3963,-0.00031,-2e-05,2e-05,-5e-05,-1e-05,-0.0005,-0.00013,-0.00044,2,31
3964,-0.00031,-2e-05,2e-05,-5e-05,-1e-05,-0.0005,-0.00013,-0.00044,2,31
3965,-0.00031,-2e-05,2e-05,-5e-05,-1e-05,-0.0005,-0.00013,-0.00044,2,31
3966,-0.00031,-2e-05,2e-05,-5e-05,-1e-05,-0.0005,-0.00013,-0.00044,2,31
3967,-0.00031,-2e-05,2e-05,-5e-05,-1e-05,-0.0005,-0.00013,-0.00044,2,31
3968,-0.00031,-2e-05,2e-05,-5e-05,-1e-05,-0.0005,-0.00013,-0.00044,2,31
3969,-0.00031,-2e-05,2e-05,-5e-05,-1e-05,-0.0005,-0.00013,-0.00044,2,31
3970,-0.00031,-2e-05,2e-05,-5e-05,-1e-05,-0.0005,-0.00013,-0.00044,2,31
3971,-0.00031,-2e-05,2e-05,-5e-05,-1e-05,-0.0005,-0.00013,-0.00044,2,31
3972,-0.00031,-2e-05,2e-05,-5e-05,-1e-05,-0.0005,-0.00013,-0.00044,2,31
3973,0.00021,5e-05,4e-05,4e-05,1e-05,0.00022,-1e-05,0.00015,2,31
3974,0.00021,5e-05,4e-05,4e-05,1e-05,0.00022,-1e-05,0.00015,2,31
3975,0.00021,5e-05,4e-05,4e-05,1e-05,0.00022,-1e-05,0.00015,2,31
3976,0.00021,5e-05,4e-05,4e-05,1e-05,0.00022,-1e-05,0.00015,2,31
3977,0.00021,5e-05,4e-05,4e-05,1e-05,0.00022,-1e-05,0.00015,2,31
3978,0.00021,5e-05,4e-05,4e-05,1e-05,0.00022,-1e-05,0.00015,2,31
3979,0.00021,5e-05,4e-05,4e-05,1e-05,0.00022,-1e-05,0.00015,2,31
3980,0.00021,5e-05,4e-05,4e-05,1e-05,0.00022,-1e-05,0.00015,2,31
3981,0.00021,5e-05,4e-05,4e-05,1e-05,0.00022,-1e-05,0.00015,2,31
3982,0.00021,5e-05,4e-05,4e-05,1e-05,0.00022,-1e-05,0.00015,2,31
3983,0.00021,5e-05,4e-05,4e-05,1e-05,0.00022,-1e-05,0.00015,2,31
3984,0.00021,5e-05,4e-05,4e-05,1e-05,0.00022,-1e-05,0.00015,2,31
3985,0.00021,5e-05,4e-05,4e-05,1e-05,0.00022,-1e-05,0.00015,2,31
3986,0.00021,5e-05,4e-05,4e-05,1e-05,0.00022,-1e-05,0.00015,2,31
3988,0.00021,5e-05,4e-05,4e-05,1e-05,0.00022,-1e-05,0.00015,2,31
3989,0.00021,5e-05,4e-05,4e-05,1e-05,0.00022,-1e-05,0.00015,2,31
3990,0.00021,5e-05,4e-05,4e-05,1e-05,0.00022,-1e-05,0.00015,2,31
3991,0.00021,5e-05,4e-05,4e-05,1e-05,0.00022,-1e-05,0.00015,2,31
3992,0.00021,5e-05,4e-05,4e-05,1e-05,0.00022,-1e-05,0.00015,2,31
3993,0.00021,5e-05,4e-05,4e-05,1e-05,0.00022,-1e-05,0.00015,2,31
3994,0.00021,5e-05,4e-05,4e-05,1e-05,0.00022,-1e-05,0.00015,2,31
3995,0.00021,5e-05,4e-05,4e-05,1e-05,0.00022,-1e-05,0.00015,2,31
3996,-7e-05,-1e-05,-0.00012,-0.0001,-0.00034,-0.00057,-9e-05,0.00016,2,31
3997,-7e-05,-1e-05,-0.00012,-0.0001,-0.00034,-0.00057,-9e-05,0.00016,2,31
3998,-7e-05,-1e-05,-0.00012,-0.0001,-0.00034,-0.00057,-9e-05,0.00016,2,31
3999,-7e-05,-1e-05,-0.00012,-0.0001,-0.00034,-0.00057,-9e-05,0.00016,2,31
4000,-7e-05,-1e-05,-0.00012,-0.0001,-0.00034,-0.00057,-9e-05,0.00016,2,31
4001,-7e-05,-1e-05,-0.00012,-0.0001,-0.00034,-0.00057,-9e-05,0.00016,2,31
4002,-7e-05,-1e-05,-0.00012,-0.0001,-0.00034,-0.00057,-9e-05,0.00016,2,31
4003,-7e-05,-1e-05,-0.00012,-0.0001,-0.00034,-0.00057,-9e-05,0.00016,2,31
4004,-7e-05,-1e-05,-0.00012,-0.0001,-0.00034,-0.00057,-9e-05,0.00016,2,31
4005,-7e-05,-1e-05,-0.00012,-0.0001,-0.00034,-0.00057,-9e-05,0.00016,2,31
4006,-7e-05,-1e-05,-0.00012,-0.0001,-0.00034,-0.00057,-9e-05,0.00016,2,31
4007,-7e-05,-1e-05,-0.00012,-0.0001,-0.00034,-0.00057,-9e-05,0.00016,2,31
4008,-7e-05,-1e-05,-0.00012,-0.0001,-0.00034,-0.00057,-9e-05,0.00016,2,31
4009,-7e-05,-1e-05,-0.00012,-0.0001,-0.00034,-0.00057,-9e-05,0.00016,2,31
4010,0.00034,1e-05,-9e-05,-0.00024,-0.00022,-0.00011,-3e-05,0.00017,2,31
4011,-0.00018,-1e-05,0.0001,-9e-05,0.00029,0.00019,2e-05,0.00011,2,31
4012,-3e-05,-7e-05,-0.00011,-0.00027,1e-05,0.00032,0.00031,0.00056,2,31
4013,-3e-05,-7e-05,-0.00011,-0.00027,1e-05,0.00032,0.00031,0.00056,2,31
4014,-3e-05,-7e-05,-0.00011,-0.00027,1e-05,0.00032,0.00031,0.00056,2,31
4015,-3e-05,-7e-05,-0.00011,-0.00027,1e-05,0.00032,0.00031,0.00056,2,31
4016,-3e-05,-7e-05,-0.00011,-0.00027,1e-05,0.00032,0.00031,0.00056,2,31
4017,-3e-05,-7e-05,-0.00011,-0.00027,1e-05,0.00032,0.00031,0.00056,2,31
4018,-3e-05,-7e-05,-0.00011,-0.00027,1e-05,0.00032,0.00031,0.00056,2,31
4019,-3e-05,-7e-05,-0.00011,-0.00027,1e-05,0.00032,0.00031,0.00056,2,31
4020,-3e-05,-7e-05,-0.00011,-0.00027,1e-05,0.00032,0.00031,0.00056,2,31
4021,-3e-05,-7e-05,-0.00011,-0.00027,1e-05,0.00032,0.00031,0.00056,2,31
4022,-3e-05,-7e-05,-0.00011,-0.00027,1e-05,0.00032,0.00031,0.00056,2,31
4023,-3e-05,-7e-05,-0.00011,-0.00027,1e-05,0.00032,0.00031,0.00056,2,31
4024,-3e-05,-7e-05,-0.00011,-0.00027,1e-05,0.00032,0.00031,0.00056,2,31
4025,-3e-05,-7e-05,-0.00011,-0.00027,1e-05,0.00032,0.00031,0.00056,2,31
4026,-3e-05,-7e-05,-0.00011,-0.00027,1e-05,0.00032,0.00031,0.00056,2,31
4027,-3e-05,-7e-05,-0.00011,-0.00027,1e-05,0.00032,0.00031,0.00056,2,31
4028,-3e-05,-7e-05,-0.00011,-0.00027,1e-05,0.00032,0.00031,0.00056,2,31
4029,-3e-05,-7e-05,-0.00011,-0.00027,1e-05,0.00032,0.00031,0.00056,2,31
4030,-3e-05,-7e-05,-0.00011,-0.00027,1e-05,0.00032,0.00031,0.00056,2,31
4031,-3e-05,-7e-05,-0.00011,-0.00027,1e-05,0.00032,0.00031,0.00056,2,31
4032,-3e-05,-7e-05,-0.00011,-0.00027,1e-05,0.00032,0.00031,0.00056,2,31
4033,0.00015,-2e-05,3e-05,0.00045,0.00025,9e-05,0.00023,0.00031,2,31
4034,-0.00083,-6e-05,1e-05,-0.00016,-0.00024,-0.00039,-0.00014,-0.00075,2,31
4035,0.00068,-1e-05,5e-05,5e-05,-8e-05,0.00023,-3e-05,0.00073,2,31
4036,0.00068,-1e-05,5e-05,5e-05,-8e-05,0.00023,-3e-05,0.00073,2,31
4038,0.00068,-1e-05,5e-05,5e-05,-8e-05,0.00023,-3e-05,0.00073,2,31
4039,0.00068,-1e-05,5e-05,5e-05,-8e-05,0.00023,-3e-05,0.00073,2,31
4040,0.00068,-1e-05,5e-05,5e-05,-8e-05,0.00023,-3e-05,0.00073,2,31
4041,0.00068,-1e-05,5e-05,5e-05,-8e-05,0.00023,-3e-05,0.00073,2,31
4042,0.00068,-1e-05,5e-05,5e-05,-8e-05,0.00023,-3e-05,0.00073,2,31
4043,0.00068,-1e-05,5e-05,5e-05,-8e-05,0.00023,-3e-05,0.00073,2,31
4044,0.00068,-1e-05,5e-05,5e-05,-8e-05,0.00023,-3e-05,0.00073,2,31
4045,0.00068,-1e-05,5e-05,5e-05,-8e-05,0.00023,-3e-05,0.00073,2,31
4046,0.00068,-1e-05,5e-05,5e-05,-8e-05,0.00023,-3e-05,0.00073,2,31
4047,0.00068,-1e-05,5e-05,5e-05,-8e-05,0.00023,-3e-05,0.00073,2,31
4048,0.00068,-1e-05,5e-05,5e-05,-8e-05,0.00023,-3e-05,0.00073,2,31
4049,0.00068,-1e-05,5e-05,5e-05,-8e-05,0.00023,-3e-05,0.00073,2,31
4050,0.00068,-1e-05,5e-05,5e-05,-8e-05,0.00023,-3e-05,0.00073,2,31
4051,0.00068,-1e-05,5e-05,5e-05,-8e-05,0.00023,-3e-05,0.00073,2,31
4052,0.00068,-1e-05,5e-05,5e-05,-8e-05,0.00023,-3e-05,0.00073,2,31
4053,0.00068,-1e-05,5e-05,5e-05,-8e-05,0.00023,-3e-05,0.00073,2,31
4054,0.00068,-1e-05,5e-05,5e-05,-8e-05,0.00023,-3e-05,0.00073,2,31
4055,0.00068,-1e-05,5e-05,5e-05,-8e-05,0.00023,-3e-05,0.00073,2,31
4056,0.00073,9e-05,-1e-05,0.00021,0.00012,4e-05,0.00012,0.00098,2,31
4057,-0.00046,-8e-05,-0.00014,4e-05,-0.00012,-7e-05,-6e-05,-0.00058,2,31
4058,-0.00046,-8e-05,-0.00014,4e-05,-0.00012,-7e-05,-6e-05,-0.00058,2,31
4059,-0.00046,-8e-05,-0.00014,4e-05,-0.00012,-7e-05,-6e-05,-0.00058,2,31
4060,-0.00046,-8e-05,-0.00014,4e-05,-0.00012,-7e-05,-6e-05,-0.00058,2,31
4061,-0.00046,-8e-05,-0.00014,4e-05,-0.00012,-7e-05,-6e-05,-0.00058,2,31
4062,-0.00046,-8e-05,-0.00014,4e-05,-0.00012,-7e-05,-6e-05,-0.00058,2,31
4063,0.00014,0,-9e-05,-0.00019,-0.00017,6e-05,0.00013,0.00054,2,31
4064,0.00014,0,-9e-05,-0.00019,-0.00017,6e-05,0.00013,0.00054,2,31
4065,0.00042,0.0002,0.0002,-8e-05,0,0.00051,0.00039,0.00046,2,31
4066,0.00042,0.0002,0.0002,-8e-05,0,0.00051,0.00039,0.00046,2,31
4067,0.00042,0.0002,0.0002,-8e-05,0,0.00051,0.00039,0.00046,2,31
4068,0.00042,0.0002,0.0002,-8e-05,0,0.00051,0.00039,0.00046,2,31
4069,0.00042,0.0002,0.0002,-8e-05,0,0.00051,0.00039,0.00046,2,31
4070,0.00042,0.0002,0.0002,-8e-05,0,0.00051,0.00039,0.00046,2,31
4071,0.00042,0.0002,0.0002,-8e-05,0,0.00051,0.00039,0.00046,2,31
4072,0.00042,0.0002,0.0002,-8e-05,0,0.00051,0.00039,0.00046,2,31
4073,0.00042,0.0002,0.0002,-8e-05,0,0.00051,0.00039,0.00046,2,31
4074,0.00042,0.0002,0.0002,-8e-05,0,0.00051,0.00039,0.00046,2,31
4075,0.00042,0.0002,0.0002,-8e-05,0,0.00051,0.00039,0.00046,2,31
4076,0.00042,0.0002,0.0002,-8e-05,0,0.00051,0.00039,0.00046,2,31
4077,0.00042,0.0002,0.0002,-8e-05,0,0.00051,0.00039,0.00046,2,31
4078,0.00042,0.0002,0.0002,-8e-05,0,0.00051,0.00039,0.00046,2,31
4079,0.00042,0.0002,0.0002,-8e-05,0,0.00051,0.00039,0.00046,2,31
4080,0.00042,0.0002,0.0002,-8e-05,0,0.00051,0.00039,0.00046,2,31
4081,0.00042,0.0002,0.0002,-8e-05,0,0.00051,0.00039,0.00046,2,31
4082,0.00042,0.0002,0.0002,-8e-05,0,0.00051,0.00039,0.00046,2,31
4083,0.00042,0.0002,0.0002,-8e-05,0,0.00051,0.00039,0.00046,2,31
4084,0.00042,0.0002,0.0002,-8e-05,0,0.00051,0.00039,0.00046,2,31
4085,-0.00015,-1e-05,3e-05,0.00015,0.00025,0,-0.0001,-0.00034,2,31
4086,-0.00021,-4e-05,0,9e-05,-4e-05,-0.0002,-0.00017,-0.00039,2,31
4088,-9e-05,0,-9e-05,-0.00031,-8e-05,-0.00025,-0.00019,-0.00022,2,31
4089,-9e-05,0,-9e-05,-0.00031,-8e-05,-0.00025,-0.00019,-0.00022,2,31
4090,-9e-05,0,-9e-05,-0.00031,-8e-05,-0.00025,-0.00019,-0.00022,2,31
4091,-9e-05,0,-9e-05,-0.00031,-8e-05,-0.00025,-0.00019,-0.00022,2,31
4092,-9e-05,0,-9e-05,-0.00031,-8e-05,-0.00025,-0.00019,-0.00022,2,31
4093,-9e-05,0,-9e-05,-0.00031,-8e-05,-0.00025,-0.00019,-0.00022,2,31
4094,-9e-05,0,-9e-05,-0.00031,-8e-05,-0.00025,-0.00019,-0.00022,2,31
4095,-9e-05,0,-9e-05,-0.00031,-8e-05,-0.00025,-0.00019,-0.00022,2,31
4096,-9e-05,0,-9e-05,-0.00031,-8e-05,-0.00025,-0.00019,-0.00022,2,31
4097,-9e-05,0,-9e-05,-0.00031,-8e-05,-0.00025,-0.00019,-0.00022,2,31
4098,-9e-05,0,-9e-05,-0.00031,-8e-05,-0.00025,-0.00019,-0.00022,2,31
4099,-9e-05,0,-9e-05,-0.00031,-8e-05,-0.00025,-0.00019,-0.00022,2,31
4100,0.0003,0.00013,1e-05,-5e-05,6e-05,0.00017,0.00021,0.00058,2,31
4101,0.0003,0.00013,1e-05,-5e-05,6e-05,0.00017,0.00021,0.00058,2,31
4102,0.0003,0.00013,1e-05,-5e-05,6e-05,0.00017,0.00021,0.00058,2,31
4103,0.0003,0.00013,1e-05,-5e-05,6e-05,0.00017,0.00021,0.00058,2,31
4104,0.0003,0.00013,1e-05,-5e-05,6e-05,0.00017,0.00021,0.00058,2,31
4105,0.0003,0.00013,1e-05,-5e-05,6e-05,0.00017,0.00021,0.00058,2,31
4106,0.0003,0.00013,1e-05,-5e-05,6e-05,0.00017,0.00021,0.00058,2,31
4107,2e-05,5e-05,3e-05,0.0001,0.00012,-0.00024,-0.00033,-0.00045,2,31
4108,2e-05,5e-05,3e-05,0.0001,0.00012,-0.00024,-0.00033,-0.00045,2,31
4109,2e-05,5e-05,3e-05,0.0001,0.00012,-0.00024,-0.00033,-0.00045,2,31
4110,2e-05,5e-05,3e-05,0.0001,0.00012,-0.00024,-0.00033,-0.00045,2,31
4111,2e-05,5e-05,3e-05,0.0001,0.00012,-0.00024,-0.00033,-0.00045,2,31
4112,2e-05,5e-05,3e-05,0.0001,0.00012,-0.00024,-0.00033,-0.00045,2,31
4113,2e-05,5e-05,3e-05,0.0001,0.00012,-0.00024,-0.00033,-0.00045,2,31
4114,2e-05,5e-05,3e-05,0.0001,0.00012,-0.00024,-0.00033,-0.00045,2,31
4115,2e-05,5e-05,3e-05,0.0001,0.00012,-0.00024,-0.00033,-0.00045,2,31
4116,2e-05,5e-05,3e-05,0.0001,0.00012,-0.00024,-0.00033,-0.00045,2,31
4117,2e-05,5e-05,3e-05,0.0001,0.00012,-0.00024,-0.00033,-0.00045,2,31
4118,2e-05,5e-05,3e-05,0.0001,0.00012,-0.00024,-0.00033,-0.00045,2,31
4119,2e-05,5e-05,3e-05,0.0001,0.00012,-0.00024,-0.00033,-0.00045,2,31
4120,2e-05,5e-05,3e-05,0.0001,0.00012,-0.00024,-0.00033,-0.00045,2,31
4121,2e-05,5e-05,3e-05,0.0001,0.00012,-0.00024,-0.00033,-0.00045,2,31
4122,2e-05,5e-05,3e-05,0.0001,0.00012,-0.00024,-0.00033,-0.00045,2,31
4123,-4e-05,2e-05,0,-8e-05,0.00016,-1e-05,1e-05,-0.00035,2,31
4124,4e-05,7e-05,2e-05,-0.00012,-0.00014,-0.0001,-7e-05,2e-05,2,31
4125,-0.00022,-4e-05,4e-05,0.00061,0.00018,-0.00023,-0.00018,-8e-05,2,31
4126,-0.00022,-4e-05,4e-05,0.00061,0.00018,-0.00023,-0.00018,-8e-05,2,31
4127,-0.00022,-4e-05,4e-05,0.00061,0.00018,-0.00023,-0.00018,-8e-05,2,31
4128,-0.00022,-4e-05,4e-05,0.00061,0.00018,-0.00023,-0.00018,-8e-05,2,31
4129,-0.00022,-4e-05,4e-05,0.00061,0.00018,-0.00023,-0.00018,-8e-05,2,31
4130,-0.00022,-4e-05,4e-05,0.00061,0.00018,-0.00023,-0.00018,-8e-05,2,31
4131,-0.00022,-4e-05,4e-05,0.00061,0.00018,-0.00023,-0.00018,-8e-05,2,31
4132,-0.00022,-4e-05,4e-05,0.00061,0.00018,-0.00023,-0.00018,-8e-05,2,31
4133,-0.00022,-4e-05,4e-05,0.00061,0.00018,-0.00023,-0.00018,-8e-05,2,31
4135,-0.00022,-4e-05,4e-05,0.00061,0.00018,-0.00023,-0.00018,-8e-05,2,31
4136,-0.00022,-4e-05,4e-05,0.00061,0.00018,-0.00023,-0.00018,-8e-05,2,31
4138,-0.00022,-4e-05,4e-05,0.00061,0.00018,-0.00023,-0.00018,-8e-05,2,31
4139,-0.00022,-4e-05,4e-05,0.00061,0.00018,-0.00023,-0.00018,-8e-05,2,31
4140,-0.00022,-4e-05,4e-05,0.00061,0.00018,-0.00023,-0.00018,-8e-05,2,31
4141,-0.00022,-4e-05,4e-05,0.00061,0.00018,-0.00023,-0.00018,-8e-05,2,31
4142,-0.00022,-4e-05,4e-05,0.00061,0.00018,-0.00023,-0.00018,-8e-05,2,31
4143,-0.00022,-4e-05,4e-05,0.00061,0.00018,-0.00023,-0.00018,-8e-05,2,31
4144,-0.00022,-4e-05,4e-05,0.00061,0.00018,-0.00023,-0.00018,-8e-05,2,31
4145,4e-05,-6e-05,-0.0001,-0.00043,-0.00023,-0.00043,-0.00011,-0.00018,2,31
4146,1e-05,-5e-05,-7e-05,-0.00016,0.00017,4e-05,2e-05,0.00014,2,31
4147,-0.00026,-7e-05,5e-05,-7e-05,-1e-05,0.00013,-0.00027,-0.00041,2,31
4148,-0.00026,-7e-05,5e-05,-7e-05,-1e-05,0.00013,-0.00027,-0.00041,2,31
4149,-0.00026,-7e-05,5e-05,-7e-05,-1e-05,0.00013,-0.00027,-0.00041,2,31
4150,-0.00026,-7e-05,5e-05,-7e-05,-1e-05,0.00013,-0.00027,-0.00041,2,31
4151,-0.00026,-7e-05,5e-05,-7e-05,-1e-05,0.00013,-0.00027,-0.00041,2,31
4152,-0.00026,-7e-05,5e-05,-7e-05,-1e-05,0.00013,-0.00027,-0.00041,2,31
4153,-0.00026,-7e-05,5e-05,-7e-05,-1e-05,0.00013,-0.00027,-0.00041,2,31
4154,-0.00026,-7e-05,5e-05,-7e-05,-1e-05,0.00013,-0.00027,-0.00041,2,31
4155,-0.00026,-7e-05,5e-05,-7e-05,-1e-05,0.00013,-0.00027,-0.00041,2,31
4156,-0.00026,-7e-05,5e-05,-7e-05,-1e-05,0.00013,-0.00027,-0.00041,2,31
4157,-0.00026,-7e-05,5e-05,-7e-05,-1e-05,0.00013,-0.00027,-0.00041,2,31
4158,-0.00026,-7e-05,5e-05,-7e-05,-1e-05,0.00013,-0.00027,-0.00041,2,31
4159,-0.00026,-7e-05,5e-05,-7e-05,-1e-05,0.00013,-0.00027,-0.00041,2,31
4160,-0.00026,-7e-05,5e-05,-7e-05,-1e-05,0.00013,-0.00027,-0.00041,2,31
4161,8e-05,-6e-05,-0.00011,-0.00048,-0.00029,-4e-05,-0.00015,0.00013,2,31
4162,8e-05,-6e-05,-0.00011,-0.00048,-0.00029,-4e-05,-0.00015,0.00013,2,31
4163,8e-05,-6e-05,-0.00011,-0.00048,-0.00029,-4e-05,-0.00015,0.00013,2,31
4164,8e-05,-6e-05,-0.00011,-0.00048,-0.00029,-4e-05,-0.00015,0.00013,2,31
4165,8e-05,-6e-05,-0.00011,-0.00048,-0.00029,-4e-05,-0.00015,0.00013,2,31
4166,8e-05,-6e-05,-0.00011,-0.00048,-0.00029,-4e-05,-0.00015,0.00013,2,31
4167,0.00049,0.00011,4e-05,0.00042,0.00046,0.00029,0.00041,0.00091,2,31
4168,0.00049,0.00011,4e-05,0.00042,0.00046,0.00029,0.00041,0.00091,2,31
4169,0.00049,0.00011,4e-05,0.00042,0.00046,0.00029,0.00041,0.00091,2,31
4170,0.00049,0.00011,4e-05,0.00042,0.00046,0.00029,0.00041,0.00091,2,31
4171,0.00049,0.00011,4e-05,0.00042,0.00046,0.00029,0.00041,0.00091,2,31
4172,0.00049,0.00011,4e-05,0.00042,0.00046,0.00029,0.00041,0.00091,2,31
4173,0.00049,0.00011,4e-05,0.00042,0.00046,0.00029,0.00041,0.00091,2,31
4174,0.00049,0.00011,4e-05,0.00042,0.00046,0.00029,0.00041,0.00091,2,31
4175,0.00049,0.00011,4e-05,0.00042,0.00046,0.00029,0.00041,0.00091,2,31
4176,0.00049,0.00011,4e-05,0.00042,0.00046,0.00029,0.00041,0.00091,2,31
4177,0.00049,0.00011,4e-05,0.00042,0.00046,0.00029,0.00041,0.00091,2,31
4178,0.00049,0.00011,4e-05,0.00042,0.00046,0.00029,0.00041,0.00091,2,31
4179,0.00049,0.00011,4e-05,0.00042,0.00046,0.00029,0.00041,0.00091,2,31
4180,0.00049,0.00011,4e-05,0.00042,0.00046,0.00029,0.00041,0.00091,2,31
4181,0.00049,0.00011,4e-05,0.00042,0.00046,0.00029,0.00041,0.00091,2,31
4182,0.00049,0.00011,4e-05,0.00042,0.00046,0.00029,0.00041,0.00091,2,31
4183,-0.00031,-5e-05,4e-05,-0.00013,-0.00027,-3e-05,-6e-05,-0.00022,2,31
4184,0.00036,5e-05,0,0.00026,-2e-05,0.00016,0,0.00053,2,31
4185,-0.00012,-5e-05,-3e-05,-2e-05,0.00023,0.00042,-0.0002,-0.00018,2,31
4186,-0.00012,-5e-05,-3e-05,-2e-05,0.00023,0.00042,-0.0002,-0.00018,2,31
4188,-0.00012,-5e-05,-3e-05,-2e-05,0.00023,0.00042,-0.0002,-0.00018,2,31
4189,-0.00012,-5e-05,-3e-05,-2e-05,0.00023,0.00042,-0.0002,-0.00018,2,31
4190,-0.00012,-5e-05,-3e-05,-2e-05,0.00023,0.00042,-0.0002,-0.00018,2,31
4191,-0.00012,-5e-05,-3e-05,-2e-05,0.00023,0.00042,-0.0002,-0.00018,2,31
4192,-0.00012,-5e-05,-3e-05,-2e-05,0.00023,0.00042,-0.0002,-0.00018,2,31
4193,-0.00012,-5e-05,-3e-05,-2e-05,0.00023,0.00042,-0.0002,-0.00018,2,31
4194,-0.00012,-5e-05,-3e-05,-2e-05,0.00023,0.00042,-0.0002,-0.00018,2,31
4195,-0.00012,-5e-05,-3e-05,-2e-05,0.00023,0.00042,-0.0002,-0.00018,2,31
4196,-0.00012,-5e-05,-3e-05,-2e-05,0.00023,0.00042,-0.0002,-0.00018,2,31
4197,-0.00012,-5e-05,-3e-05,-2e-05,0.00023,0.00042,-0.0002,-0.00018,2,31
4198,-0.00012,-5e-05,-3e-05,-2e-05,0.00023,0.00042,-0.0002,-0.00018,2,31
4199,-0.00012,-5e-05,-3e-05,-2e-05,0.00023,0.00042,-0.0002,-0.00018,2,31
4200,-0.00012,-5e-05,-3e-05,-2e-05,0.00023,0.00042,-0.0002,-0.00018,2,31
4201,-0.00012,-5e-05,-3e-05,-2e-05,0.00023,0.00042,-0.0002,-0.00018,2,31
4202,-0.00012,-5e-05,-3e-05,-2e-05,0.00023,0.00042,-0.0002,-0.00018,2,31
4203,-0.00012,-5e-05,-3e-05,-2e-05,0.00023,0.00042,-0.0002,-0.00018,2,31
4204,-0.00012,-5e-05,-3e-05,-2e-05,0.00023,0.00042,-0.0002,-0.00018,2,31
4205,-0.00012,-5e-05,-3e-05,-2e-05,0.00023,0.00042,-0.0002,-0.00018,2,31
4206,-0.00014,0,-1e-05,-4e-05,3e-05,-0.00014,0.00014,-9e-05,2,31
4207,-0.00014,0,-1e-05,-4e-05,3e-05,-0.00014,0.00014,-9e-05,2,31
4208,-0.00011,-0.00014,-0.00012,2e-05,-3e-05,-0.00028,1e-05,-0.00021,2,31
4209,-0.00011,-0.00014,-0.00012,2e-05,-3e-05,-0.00028,1e-05,-0.00021,2,31
4210,-0.00011,-0.00014,-0.00012,2e-05,-3e-05,-0.00028,1e-05,-0.00021,2,31
4211,-0.00011,-0.00014,-0.00012,2e-05,-3e-05,-0.00028,1e-05,-0.00021,2,31
4212,-0.00011,-0.00014,-0.00012,2e-05,-3e-05,-0.00028,1e-05,-0.00021,2,31
4213,-0.00011,-0.00014,-0.00012,2e-05,-3e-05,-0.00028,1e-05,-0.00021,2,31
4214,-0.00011,-0.00014,-0.00012,2e-05,-3e-05,-0.00028,1e-05,-0.00021,2,31
4215,-0.00011,-0.00014,-0.00012,2e-05,-3e-05,-0.00028,1e-05,-0.00021,2,31
4216,-0.00011,-0.00014,-0.00012,2e-05,-3e-05,-0.00028,1e-05,-0.00021,2,31
4217,-0.00011,-0.00014,-0.00012,2e-05,-3e-05,-0.00028,1e-05,-0.00021,2,31
4218,-0.00011,-0.00014,-0.00012,2e-05,-3e-05,-0.00028,1e-05,-0.00021,2,31
4219,-0.00011,-0.00014,-0.00012,2e-05,-3e-05,-0.00028,1e-05,-0.00021,2,31
4220,-0.00011,-0.00014,-0.00012,2e-05,-3e-05,-0.00028,1e-05,-0.00021,2,31
4221,-0.00011,-0.00014,-0.00012,2e-05,-3e-05,-0.00028,1e-05,-0.00021,2,31
4222,-0.00011,-0.00014,-0.00012,2e-05,-3e-05,-0.00028,1e-05,-0.00021,2,31
4223,-0.00011,-0.00014,-0.00012,2e-05,-3e-05,-0.00028,1e-05,-0.00021,2,31
4224,-0.00011,-0.00014,-0.00012,2e-05,-3e-05,-0.00028,1e-05,-0.00021,2,31
4225,-0.00011,-0.00014,-0.00012,2e-05,-3e-05,-0.00028,1e-05,-0.00021,2,31
4226,-0.00011,-0.00014,-0.00012,2e-05,-3e-05,-0.00028,1e-05,-0.00021,2,31
4227,-0.00011,-0.00014,-0.00012,2e-05,-3e-05,-0.00028,1e-05,-0.00021,2,31
4228,0.00035,8e-05,-4e-05,-0.00023,-0.00012,6e-05,0.00027,7e-05,2,31
4229,0.00035,8e-05,-4e-05,-0.00023,-0.00012,6e-05,0.00027,7e-05,2,31
4230,-0.00018,-0.00019,-0.00029,-0.00059,-0.00029,-0.00023,-0.00018,-0.00019,2,31
4231,-0.00018,-0.00019,-0.00029,-0.00059,-0.00029,-0.00023,-0.00018,-0.00019,2,31
4232,-0.00018,-0.00019,-0.00029,-0.00059,-0.00029,-0.00023,-0.00018,-0.00019,2,31
4233,-0.00018,-0.00019,-0.00029,-0.00059,-0.00029,-0.00023,-0.00018,-0.00019,2,31
4234,-0.00018,-0.00019,-0.00029,-0.00059,-0.00029,-0.00023,-0.00018,-0.00019,2,31
4235,-0.00018,-0.00019,-0.00029,-0.00059,-0.00029,-0.00023,-0.00018,-0.00019,2,31
4236,-0.00018,-0.00019,-0.00029,-0.00059,-0.00029,-0.00023,-0.00018,-0.00019,2,31
4238,-0.00018,-0.00019,-0.00029,-0.00059,-0.00029,-0.00023,-0.00018,-0.00019,2,31
4239,-0.00018,-0.00019,-0.00029,-0.00059,-0.00029,-0.00023,-0.00018,-0.00019,2,31
4240,-0.00018,-0.00019,-0.00029,-0.00059,-0.00029,-0.00023,-0.00018,-0.00019,2,31
4241,-0.00018,-0.00019,-0.00029,-0.00059,-0.00029,-0.00023,-0.00018,-0.00019,2,31
4242,-0.00018,-0.00019,-0.00029,-0.00059,-0.00029,-0.00023,-0.00018,-0.00019,2,31
4243,-0.00018,-0.00019,-0.00029,-0.00059,-0.00029,-0.00023,-0.00018,-0.00019,2,31
4244,-0.00041,-0.00015,-0.00011,0,2e-05,-0.00014,-8e-05,-0.0006,2,31
4245,-0.00041,-0.00015,-0.00011,0,2e-05,-0.00014,-8e-05,-0.0006,2,31
4246,-0.00041,-0.00015,-0.00011,0,2e-05,-0.00014,-8e-05,-0.0006,2,31
4247,-0.00041,-0.00015,-0.00011,0,2e-05,-0.00014,-8e-05,-0.0006,2,31
4248,-0.00041,-0.00015,-0.00011,0,2e-05,-0.00014,-8e-05,-0.0006,2,31
4249,7e-05,2e-05,-0.00013,-5e-05,0.00018,0.00017,0.00012,0.00019,2,31
4250,7e-05,2e-05,-0.00013,-5e-05,0.00018,0.00017,0.00012,0.00019,2,31
4251,7e-05,2e-05,-0.00013,-5e-05,0.00018,0.00017,0.00012,0.00019,2,31
4252,7e-05,2e-05,-0.00013,-5e-05,0.00018,0.00017,0.00012,0.00019,2,31
4253,7e-05,2e-05,-0.00013,-5e-05,0.00018,0.00017,0.00012,0.00019,2,31
4254,7e-05,2e-05,-0.00013,-5e-05,0.00018,0.00017,0.00012,0.00019,2,31
4255,7e-05,2e-05,-0.00013,-5e-05,0.00018,0.00017,0.00012,0.00019,2,31
4256,7e-05,2e-05,-0.00013,-5e-05,0.00018,0.00017,0.00012,0.00019,2,31
4257,7e-05,2e-05,-0.00013,-5e-05,0.00018,0.00017,0.00012,0.00019,2,31
4258,7e-05,2e-05,-0.00013,-5e-05,0.00018,0.00017,0.00012,0.00019,2,31
4259,7e-05,2e-05,-0.00013,-5e-05,0.00018,0.00017,0.00012,0.00019,2,31
4260,7e-05,2e-05,-0.00013,-5e-05,0.00018,0.00017,0.00012,0.00019,2,31
4261,7e-05,2e-05,-0.00013,-5e-05,0.00018,0.00017,0.00012,0.00019,2,31
4262,7e-05,2e-05,-0.00013,-5e-05,0.00018,0.00017,0.00012,0.00019,2,31
4263,7e-05,2e-05,-0.00013,-5e-05,0.00018,0.00017,0.00012,0.00019,2,31
4264,7e-05,2e-05,-0.00013,-5e-05,0.00018,0.00017,0.00012,0.00019,2,31
4265,7e-05,2e-05,-0.00013,-5e-05,0.00018,0.00017,0.00012,0.00019,2,31
4266,7e-05,2e-05,-0.00013,-5e-05,0.00018,0.00017,0.00012,0.00019,2,31
4267,7e-05,2e-05,-0.00013,-5e-05,0.00018,0.00017,0.00012,0.00019,2,31
4268,7e-05,2e-05,-0.00013,-5e-05,0.00018,0.00017,0.00012,0.00019,2,31
4269,7e-05,2e-05,-0.00013,-5e-05,0.00018,0.00017,0.00012,0.00019,2,31
4270,7e-05,2e-05,-0.00013,-5e-05,0.00018,0.00017,0.00012,0.00019,2,31
4271,7e-05,2e-05,-0.00013,-5e-05,0.00018,0.00017,0.00012,0.00019,2,31
4272,7e-05,2e-05,-0.00013,-5e-05,0.00018,0.00017,0.00012,0.00019,2,31
4273,0.0005,0.00013,0.00015,0.00033,0.0003,8e-05,9e-05,0.00071,2,31
4274,5e-05,-4e-05,-7e-05,-0.00015,-8e-05,0.00036,0.00013,-0.00017,2,31
4275,-0.00033,2e-05,0.00019,0.00024,-1e-05,-0.00034,0.00022,-4e-05,2,31
4276,-0.00033,2e-05,0.00019,0.00024,-1e-05,-0.00034,0.00022,-4e-05,2,31
4277,-0.00033,2e-05,0.00019,0.00024,-1e-05,-0.00034,0.00022,-4e-05,2,31
4278,-0.00033,2e-05,0.00019,0.00024,-1e-05,-0.00034,0.00022,-4e-05,2,31
4279,-0.00033,2e-05,0.00019,0.00024,-1e-05,-0.00034,0.00022,-4e-05,2,31
4280,-0.00033,2e-05,0.00019,0.00024,-1e-05,-0.00034,0.00022,-4e-05,2,31
4281,-0.00033,2e-05,0.00019,0.00024,-1e-05,-0.00034,0.00022,-4e-05,2,31
4282,-0.00033,2e-05,0.00019,0.00024,-1e-05,-0.00034,0.00022,-4e-05,2,31
4283,-0.00033,2e-05,0.00019,0.00024,-1e-05,-0.00034,0.00022,-4e-05,2,31
4285,-0.00033,2e-05,0.00019,0.00024,-1e-05,-0.00034,0.00022,-4e-05,2,31
4286,-0.00033,2e-05,0.00019,0.00024,-1e-05,-0.00034,0.00022,-4e-05,2,31
4288,-0.00015,-7e-05,0,0.00033,-0.00019,-0.00029,-6e-05,-0.0002,2,31
4289,-0.00015,-7e-05,0,0.00033,-0.00019,-0.00029,-6e-05,-0.0002,2,31
4290,7e-05,9e-05,0.00012,0,2e-05,8e-05,5e-05,0.00028,2,31
4291,7e-05,9e-05,0.00012,0,2e-05,8e-05,5e-05,0.00028,2,31
4292,7e-05,9e-05,0.00012,0,2e-05,8e-05,5e-05,0.00028,2,31
4293,7e-05,9e-05,0.00012,0,2e-05,8e-05,5e-05,0.00028,2,31
4294,7e-05,9e-05,0.00012,0,2e-05,8e-05,5e-05,0.00028,2,31
4295,7e-05,9e-05,0.00012,0,2e-05,8e-05,5e-05,0.00028,2,31
4296,7e-05,9e-05,0.00012,0,2e-05,8e-05,5e-05,0.00028,2,31
4297,7e-05,9e-05,0.00012,0,2e-05,8e-05,5e-05,0.00028,2,31
4298,7e-05,9e-05,0.00012,0,2e-05,8e-05,5e-05,0.00028,2,31
4299,7e-05,9e-05,0.00012,0,2e-05,8e-05,5e-05,0.00028,2,31
4300,7e-05,9e-05,0.00012,0,2e-05,8e-05,5e-05,0.00028,2,31
4301,7e-05,9e-05,0.00012,0,2e-05,8e-05,5e-05,0.00028,2,31
4302,7e-05,9e-05,0.00012,0,2e-05,8e-05,5e-05,0.00028,2,31
4303,3e-05,1e-05,-6e-05,-0.00031,0.00013,-0.00017,-0.00011,8e-05,2,31
4304,-0.0002,-3e-05,1e-05,8e-05,0.0003,0.00019,0.00013,-4e-05,2,31
4305,-0.00016,-4e-05,-0.00011,0.00013,-4e-05,-0.00028,-0.00033,-0.00057,2,31
4306,-0.00016,-4e-05,-0.00011,0.00013,-4e-05,-0.00028,-0.00033,-0.00057,2,31
4307,-0.00016,-4e-05,-0.00011,0.00013,-4e-05,-0.00028,-0.00033,-0.00057,2,31
4308,-0.00016,-4e-05,-0.00011,0.00013,-4e-05,-0.00028,-0.00033,-0.00057,2,31
4309,-0.00016,-4e-05,-0.00011,0.00013,-4e-05,-0.00028,-0.00033,-0.00057,2,31
4310,-0.00016,-4e-05,-0.00011,0.00013,-4e-05,-0.00028,-0.00033,-0.00057,2,31
4311,-0.00016,-4e-05,-0.00011,0.00013,-4e-05,-0.00028,-0.00033,-0.00057,2,31
4312,-0.00016,-4e-05,-0.00011,0.00013,-4e-05,-0.00028,-0.00033,-0.00057,2,31
4313,-0.00016,-4e-05,-0.00011,0.00013,-4e-05,-0.00028,-0.00033,-0.00057,2,31
4314,-0.00016,-4e-05,-0.00011,0.00013,-4e-05,-0.00028,-0.00033,-0.00057,2,31
4315,-0.00016,-4e-05,-0.00011,0.00013,-4e-05,-0.00028,-0.00033,-0.00057,2,31
4316,-0.00016,-4e-05,-0.00011,0.00013,-4e-05,-0.00028,-0.00033,-0.00057,2,31
4317,-0.00016,-4e-05,-0.00011,0.00013,-4e-05,-0.00028,-0.00033,-0.00057,2,31
4318,-0.00016,-4e-05,-0.00011,0.00013,-4e-05,-0.00028,-0.00033,-0.00057,2,31
4319,-0.00016,-4e-05,-0.00011,0.00013,-4e-05,-0.00028,-0.00033,-0.00057,2,31
4320,-0.00016,-4e-05,-0.00011,0.00013,-4e-05,-0.00028,-0.00033,-0.00057,2,31
4321,-0.00016,-4e-05,-0.00011,0.00013,-4e-05,-0.00028,-0.00033,-0.00057,2,31
4322,-0.00016,-4e-05,-0.00011,0.00013,-4e-05,-0.00028,-0.00033,-0.00057,2,31
4323,-0.00016,-4e-05,-0.00011,0.00013,-4e-05,-0.00028,-0.00033,-0.00057,2,31
4324,-0.00016,-4e-05,-0.00011,0.00013,-4e-05,-0.00028,-0.00033,-0.00057,2,31
4325,-5e-05,0,-2e-05,-0.00016,-0.00013,0.00018,7e-05,4e-05,2,31
4326,-7e-05,-7e-05,-4e-05,-0.00013,3e-05,-0.00012,-0.00011,-0.00027,2,31
4327,-7e-05,-7e-05,-4e-05,-0.00013,3e-05,-0.00012,-0.00011,-0.00027,2,31
4328,0.00047,0.0002,0.00018,-6e-05,0.00038,0.00022,0.00043,0.0003,2,31
4329,0.00047,0.0002,0.00018,-6e-05,0.00038,0.00022,0.00043,0.0003,2,31
4330,0.00047,0.0002,0.00018,-6e-05,0.00038,0.00022,0.00043,0.0003,2,31
4331,0.00047,0.0002,0.00018,-6e-05,0.00038,0.00022,0.00043,0.0003,2,31
4332,0.00047,0.0002,0.00018,-6e-05,0.00038,0.00022,0.00043,0.0003,2,31
4333,0.00047,0.0002,0.00018,-6e-05,0.00038,0.00022,0.00043,0.0003,2,31
4334,0.00047,0.0002,0.00018,-6e-05,0.00038,0.00022,0.00043,0.0003,2,31
4335,0.00047,0.0002,0.00018,-6e-05,0.00038,0.00022,0.00043,0.0003,2,31
4336,0.00047,0.0002,0.00018,-6e-05,0.00038,0.00022,0.00043,0.0003,2,31
4338,0.00047,0.0002,0.00018,-6e-05,0.00038,0.00022,0.00043,0.0003,2,31
4339,0.00047,0.0002,0.00018,-6e-05,0.00038,0.00022,0.00043,0.0003,2,31
4340,0.00022,-4e-05,-2e-05,1e-05,5e-05,0.00013,-3e-05,6e-05,2,31
4341,0.00022,-4e-05,-2e-05,1e-05,5e-05,0.00013,-3e-05,6e-05,2,31
4342,0.00022,-4e-05,-2e-05,1e-05,5e-05,0.00013,-3e-05,6e-05,2,31
4343,0.00022,-4e-05,-2e-05,1e-05,5e-05,0.00013,-3e-05,6e-05,2,31
4344,0.00022,-4e-05,-2e-05,1e-05,5e-05,0.00013,-3e-05,6e-05,2,31
4345,0.00022,-4e-05,-2e-05,1e-05,5e-05,0.00013,-3e-05,6e-05,2,31
4346,0.00022,-4e-05,-2e-05,1e-05,5e-05,0.00013,-3e-05,6e-05,2,31
4347,0.00022,-4e-05,-2e-05,1e-05,5e-05,0.00013,-3e-05,6e-05,2,31
4348,0.00022,-4e-05,-5e-05,-0.0002,-0.00026,-0.0003,-2e-05,0.00015,2,31
4349,0.00022,-4e-05,-5e-05,-0.0002,-0.00026,-0.0003,-2e-05,0.00015,2,31
4350,0.00022,-4e-05,-5e-05,-0.0002,-0.00026,-0.0003,-2e-05,0.00015,2,31
4351,0.00022,-4e-05,-5e-05,-0.0002,-0.00026,-0.0003,-2e-05,0.00015,2,31
4352,0.00022,-4e-05,-5e-05,-0.0002,-0.00026,-0.0003,-2e-05,0.00015,2,31
4353,0.00022,-4e-05,-5e-05,-0.0002,-0.00026,-0.0003,-2e-05,0.00015,2,31
4354,0.00022,-4e-05,-5e-05,-0.0002,-0.00026,-0.0003,-2e-05,0.00015,2,31
4355,0.00022,-4e-05,-5e-05,-0.0002,-0.00026,-0.0003,-2e-05,0.00015,2,31
4356,0.00022,-4e-05,-5e-05,-0.0002,-0.00026,-0.0003,-2e-05,0.00015,2,31
4357,0.00022,-4e-05,-5e-05,-0.0002,-0.00026,-0.0003,-2e-05,0.00015,2,31
4358,0.00022,-4e-05,-5e-05,-0.0002,-0.00026,-0.0003,-2e-05,0.00015,2,31
4359,0.00022,-4e-05,-5e-05,-0.0002,-0.00026,-0.0003,-2e-05,0.00015,2,31
4360,0.00022,-4e-05,-5e-05,-0.0002,-0.00026,-0.0003,-2e-05,0.00015,2,31
4361,0.00022,-4e-05,-5e-05,-0.0002,-0.00026,-0.0003,-2e-05,0.00015,2,31
4362,0.00022,-4e-05,-5e-05,-0.0002,-0.00026,-0.0003,-2e-05,0.00015,2,31
4363,0.00022,-4e-05,-5e-05,-0.0002,-0.00026,-0.0003,-2e-05,0.00015,2,31
4364,-0.00027,6e-05,0.00012,0.00026,-0.00017,7e-05,-5e-05,3e-05,2,31
4365,0.00027,-6e-05,0,0.00033,-0.00027,-0.00011,-0.00016,0.00018,2,31
4366,0.00027,-6e-05,0,0.00033,-0.00027,-0.00011,-0.00016,0.00018,2,31
4367,0.00027,-6e-05,0,0.00033,-0.00027,-0.00011,-0.00016,0.00018,2,31
4368,0.00027,-6e-05,0,0.00033,-0.00027,-0.00011,-0.00016,0.00018,2,31
4369,0.00027,-6e-05,0,0.00033,-0.00027,-0.00011,-0.00016,0.00018,2,31
4370,0.00027,-6e-05,0,0.00033,-0.00027,-0.00011,-0.00016,0.00018,2,31
4371,0.00027,-6e-05,0,0.00033,-0.00027,-0.00011,-0.00016,0.00018,2,31
4372,0.00027,-6e-05,0,0.00033,-0.00027,-0.00011,-0.00016,0.00018,2,31
4373,0.00027,-6e-05,0,0.00033,-0.00027,-0.00011,-0.00016,0.00018,2,31
4374,0.00027,-6e-05,0,0.00033,-0.00027,-0.00011,-0.00016,0.00018,2,31
4375,0.00027,-6e-05,0,0.00033,-0.00027,-0.00011,-0.00016,0.00018,2,31
4376,0.00027,-6e-05,0,0.00033,-0.00027,-0.00011,-0.00016,0.00018,2,31
4377,0.00027,-6e-05,0,0.00033,-0.00027,-0.00011,-0.00016,0.00018,2,31
4378,0.00027,-6e-05,0,0.00033,-0.00027,-0.00011,-0.00016,0.00018,2,31
4379,0.00027,-6e-05,0,0.00033,-0.00027,-0.00011,-0.00016,0.00018,2,31
4380,0.00027,-6e-05,0,0.00033,-0.00027,-0.00011,-0.00016,0.00018,2,31
4381,0.00027,-6e-05,0,0.00033,-0.00027,-0.00011,-0.00016,0.00018,2,31
4382,0.00027,-6e-05,0,0.00033,-0.00027,-0.00011,-0.00016,0.00018,2,31
4383,0.00027,-6e-05,0,0.00033,-0.00027,-0.00011,-0.00016,0.00018,2,31
4384,0.00027,-6e-05,0,0.00033,-0.00027,-0.00011,-0.00016,0.00018,2,31
4385,-5e-05,-2e-05,6e-05,-8e-05,0.00022,-0.00029,2e-05,4e-05,2,31
4386,-0.00024,-4e-05,-0.00017,-0.00026,-0.00031,3e-05,5e-05,-0.00024,2,31
4388,0.00011,4e-05,-6e-05,-0.0002,-4e-05,4e-05,1e-05,-6e-05,2,31
4389,0.00011,4e-05,-6e-05,-0.0002,-4e-05,4e-05,1e-05,-6e-05,2,31
4390,0.00011,4e-05,-6e-05,-0.0002,-4e-05,4e-05,1e-05,-6e-05,2,31
4391,0.00011,4e-05,-6e-05,-0.0002,-4e-05,4e-05,1e-05,-6e-05,2,31
4392,0.00011,4e-05,-6e-05,-0.0002,-4e-05,4e-05,1e-05,-6e-05,2,31
4393,0.00011,4e-05,-6e-05,-0.0002,-4e-05,4e-05,1e-05,-6e-05,2,31
4394,0.00011,4e-05,-6e-05,-0.0002,-4e-05,4e-05,1e-05,-6e-05,2,31
4396,0.00011,4e-05,-6e-05,-0.0002,-4e-05,4e-05,1e-05,-6e-05,2,31
4397,0.00011,4e-05,-6e-05,-0.0002,-4e-05,4e-05,1e-05,-6e-05,2,31
4398,0.00011,4e-05,-6e-05,-0.0002,-4e-05,4e-05,1e-05,-6e-05,2,31
4399,0.00011,4e-05,-6e-05,-0.0002,-4e-05,4e-05,1e-05,-6e-05,2,31
4400,-0.00028,-5e-05,0,5e-05,0.0004,0.00047,0.00028,-0.00016,2,31
4401,-0.00028,-5e-05,0,5e-05,0.0004,0.00047,0.00028,-0.00016,2,31
4402,-0.00028,-5e-05,0,5e-05,0.0004,0.00047,0.00028,-0.00016,2,31
4403,-0.00028,-5e-05,0,5e-05,0.0004,0.00047,0.00028,-0.00016,2,31
4404,-0.00028,-5e-05,0,5e-05,0.0004,0.00047,0.00028,-0.00016,2,31
4405,-0.00028,-5e-05,0,5e-05,0.0004,0.00047,0.00028,-0.00016,2,31
4406,-0.00028,-5e-05,0,5e-05,0.0004,0.00047,0.00028,-0.00016,2,31
4407,-9e-05,-5e-05,-4e-05,0.00016,0.0003,-7e-05,-0.00052,-7e-05,2,31
4408,-9e-05,-5e-05,-4e-05,0.00016,0.0003,-7e-05,-0.00052,-7e-05,2,31
4409,-9e-05,-5e-05,-4e-05,0.00016,0.0003,-7e-05,-0.00052,-7e-05,2,31
4410,-9e-05,-5e-05,-4e-05,0.00016,0.0003,-7e-05,-0.00052,-7e-05,2,31
4411,-9e-05,-5e-05,-4e-05,0.00016,0.0003,-7e-05,-0.00052,-7e-05,2,31
4412,-9e-05,-5e-05,-4e-05,0.00016,0.0003,-7e-05,-0.00052,-7e-05,2,31
4413,-9e-05,-5e-05,-4e-05,0.00016,0.0003,-7e-05,-0.00052,-7e-05,2,31
4414,-9e-05,-5e-05,-4e-05,0.00016,0.0003,-7e-05,-0.00052,-7e-05,2,31
4415,-9e-05,-5e-05,-4e-05,0.00016,0.0003,-7e-05,-0.00052,-7e-05,2,31
4416,-9e-05,-5e-05,-4e-05,0.00016,0.0003,-7e-05,-0.00052,-7e-05,2,31
4417,-9e-05,-5e-05,-4e-05,0.00016,0.0003,-7e-05,-0.00052,-7e-05,2,31
4418,-9e-05,-5e-05,-4e-05,0.00016,0.0003,-7e-05,-0.00052,-7e-05,2,31
4419,-9e-05,-5e-05,-4e-05,0.00016,0.0003,-7e-05,-0.00052,-7e-05,2,31
4420,-9e-05,-5e-05,-4e-05,0.00016,0.0003,-7e-05,-0.00052,-7e-05,2,31
4421,-9e-05,-5e-05,-4e-05,0.00016,0.0003,-7e-05,-0.00052,-7e-05,2,31
4422,-9e-05,-5e-05,-4e-05,0.00016,0.0003,-7e-05,-0.00052,-7e-05,2,31
4423,0.0003,0,5e-05,0.00012,5e-05,-0.0001,-0.00015,0.00028,2,31
4424,0.0001,3e-05,-0.00013,-0.00027,-7e-05,0.00023,4e-05,0.0001,2,31
4425,-0.00011,-6e-05,6e-05,-9e-05,-0.00021,-3e-05,-8e-05,-0.00015,2,31
4426,-0.00011,-6e-05,6e-05,-9e-05,-0.00021,-3e-05,-8e-05,-0.00015,2,31
4427,-0.00011,-6e-05,6e-05,-9e-05,-0.00021,-3e-05,-8e-05,-0.00015,2,31
4428,-0.00011,-6e-05,6e-05,-9e-05,-0.00021,-3e-05,-8e-05,-0.00015,2,31
4429,-0.00011,-6e-05,6e-05,-9e-05,-0.00021,-3e-05,-8e-05,-0.00015,2,31
4430,-0.00011,-6e-05,6e-05,-9e-05,-0.00021,-3e-05,-8e-05,-0.00015,2,31
4431,-0.00011,-6e-05,6e-05,-9e-05,-0.00021,-3e-05,-8e-05,-0.00015,2,31
4432,-0.00011,-6e-05,6e-05,-9e-05,-0.00021,-3e-05,-8e-05,-0.00015,2,31
4433,-0.00011,-6e-05,6e-05,-9e-05,-0.00021,-3e-05,-8e-05,-0.00015,2,31
4434,-0.00011,-6e-05,6e-05,-9e-05,-0.00021,-3e-05,-8e-05,-0.00015,2,31
4435,-0.00011,-6e-05,6e-05,-9e-05,-0.00021,-3e-05,-8e-05,-0.00015,2,31
4436,-0.00011,-6e-05,6e-05,-9e-05,-0.00021,-3e-05,-8e-05,-0.00015,2,31
4438,-0.00011,-6e-05,6e-05,-9e-05,-0.00021,-3e-05,-8e-05,-0.00015,2,31
4439,-0.00011,-6e-05,6e-05,-9e-05,-0.00021,-3e-05,-8e-05,-0.00015,2,31
4440,-0.00011,-6e-05,6e-05,-9e-05,-0.00021,-3e-05,-8e-05,-0.00015,2,31
4441,-0.00011,-6e-05,6e-05,-9e-05,-0.00021,-3e-05,-8e-05,-0.00015,2,31
4442,-0.00011,-6e-05,6e-05,-9e-05,-0.00021,-3e-05,-8e-05,-0.00015,2,31
4443,-0.00011,-6e-05,6e-05,-9e-05,-0.00021,-3e-05,-8e-05,-0.00015,2,31
4444,-0.00011,-6e-05,6e-05,-9e-05,-0.00021,-3e-05,-8e-05,-0.00015,2,31
4445,-0.00011,-6e-05,6e-05,-9e-05,-0.00021,-3e-05,-8e-05,-0.00015,2,31
4446,-0.00017,3e-05,-0.0001,-0.00023,-0.0003,-0.0001,-0.00022,-0.00051,2,31
4447,-0.00017,3e-05,-0.0001,-0.00023,-0.0003,-0.0001,-0.00022,-0.00051,2,31
4448,0.0002,0,-4e-05,-0.00017,-8e-05,-1e-05,0.00018,0.00046,2,31
4449,0.0002,0,-4e-05,-0.00017,-8e-05,-1e-05,0.00018,0.00046,2,31
4450,0.0002,0,-4e-05,-0.00017,-8e-05,-1e-05,0.00018,0.00046,2,31
4451,0.0002,0,-4e-05,-0.00017,-8e-05,-1e-05,0.00018,0.00046,2,31
4452,0.0002,0,-4e-05,-0.00017,-8e-05,-1e-05,0.00018,0.00046,2,31
4453,0.0002,0,-4e-05,-0.00017,-8e-05,-1e-05,0.00018,0.00046,2,31
4454,0.0002,0,-4e-05,-0.00017,-8e-05,-1e-05,0.00018,0.00046,2,31
4455,0.0002,0,-4e-05,-0.00017,-8e-05,-1e-05,0.00018,0.00046,2,31
4456,0.0002,0,-4e-05,-0.00017,-8e-05,-1e-05,0.00018,0.00046,2,31
4457,0.0002,0,-4e-05,-0.00017,-8e-05,-1e-05,0.00018,0.00046,2,31
4458,0.0002,0,-4e-05,-0.00017,-8e-05,-1e-05,0.00018,0.00046,2,31
4459,0.0002,0,-4e-05,-0.00017,-8e-05,-1e-05,0.00018,0.00046,2,31
4460,0.00043,1e-05,-0.00014,-0.00035,-0.00027,0.00032,0.00034,0.00058,2,31
4461,0.00043,1e-05,-0.00014,-0.00035,-0.00027,0.00032,0.00034,0.00058,2,31
4463,0.00043,1e-05,-0.00014,-0.00035,-0.00027,0.00032,0.00034,0.00058,2,31
4464,0.00043,1e-05,-0.00014,-0.00035,-0.00027,0.00032,0.00034,0.00058,2,31
4465,0.00043,1e-05,-0.00014,-0.00035,-0.00027,0.00032,0.00034,0.00058,2,31
4466,0.00043,1e-05,-0.00014,-0.00035,-0.00027,0.00032,0.00034,0.00058,2,31
4467,-0.00042,-0.00017,-3e-05,7e-05,-0.00015,-3e-05,-1e-05,-2e-05,2,31
4468,-0.00042,-0.00017,-3e-05,7e-05,-0.00015,-3e-05,-1e-05,-2e-05,2,31
4469,-0.00042,-0.00017,-3e-05,7e-05,-0.00015,-3e-05,-1e-05,-2e-05,2,31
4470,-0.00042,-0.00017,-3e-05,7e-05,-0.00015,-3e-05,-1e-05,-2e-05,2,31
4471,-0.00042,-0.00017,-3e-05,7e-05,-0.00015,-3e-05,-1e-05,-2e-05,2,31
4472,-0.00042,-0.00017,-3e-05,7e-05,-0.00015,-3e-05,-1e-05,-2e-05,2,31
4473,-0.00042,-0.00017,-3e-05,7e-05,-0.00015,-3e-05,-1e-05,-2e-05,2,31
4474,-0.00042,-0.00017,-3e-05,7e-05,-0.00015,-3e-05,-1e-05,-2e-05,2,31
4475,-0.00042,-0.00017,-3e-05,7e-05,-0.00015,-3e-05,-1e-05,-2e-05,2,31
4476,-0.00042,-0.00017,-3e-05,7e-05,-0.00015,-3e-05,-1e-05,-2e-05,2,31
4477,-0.00042,-0.00017,-3e-05,7e-05,-0.00015,-3e-05,-1e-05,-2e-05,2,31
4478,-0.00042,-0.00017,-3e-05,7e-05,-0.00015,-3e-05,-1e-05,-2e-05,2,31
4479,-0.00042,-0.00017,-3e-05,7e-05,-0.00015,-3e-05,-1e-05,-2e-05,2,31
4480,-0.00042,-0.00017,-3e-05,7e-05,-0.00015,-3e-05,-1e-05,-2e-05,2,31
4481,-0.00042,-0.00017,-3e-05,7e-05,-0.00015,-3e-05,-1e-05,-2e-05,2,31
4482,-0.00042,-0.00017,-3e-05,7e-05,-0.00015,-3e-05,-1e-05,-2e-05,2,31
4483,-0.00039,-0.0001,-4e-05,-1e-05,-0.00013,-0.00035,-0.00039,-0.00035,2,31
4484,-0.00039,-0.0001,-4e-05,-1e-05,-0.00013,-0.00035,-0.00039,-0.00035,2,31
4485,-0.0001,4e-05,3e-05,-0.0001,8e-05,-2e-05,7e-05,-0.00022,2,31
4486,-0.0001,4e-05,3e-05,-0.0001,8e-05,-2e-05,7e-05,-0.00022,2,31
4488,-0.0001,4e-05,3e-05,-0.0001,8e-05,-2e-05,7e-05,-0.00022,2,31
4489,-0.0001,4e-05,3e-05,-0.0001,8e-05,-2e-05,7e-05,-0.00022,2,31
4490,-0.0001,4e-05,3e-05,-0.0001,8e-05,-2e-05,7e-05,-0.00022,2,31
4491,-0.0001,4e-05,3e-05,-0.0001,8e-05,-2e-05,7e-05,-0.00022,2,31
4492,-0.0001,4e-05,3e-05,-0.0001,8e-05,-2e-05,7e-05,-0.00022,2,31
4493,-0.0001,4e-05,3e-05,-0.0001,8e-05,-2e-05,7e-05,-0.00022,2,31
4494,-0.0001,4e-05,3e-05,-0.0001,8e-05,-2e-05,7e-05,-0.00022,2,31
4495,-0.0001,4e-05,3e-05,-0.0001,8e-05,-2e-05,7e-05,-0.00022,2,31
4496,-0.0001,4e-05,3e-05,-0.0001,8e-05,-2e-05,7e-05,-0.00022,2,31
4497,-0.0001,4e-05,3e-05,-0.0001,8e-05,-2e-05,7e-05,-0.00022,2,31
4498,-0.0001,4e-05,3e-05,-0.0001,8e-05,-2e-05,7e-05,-0.00022,2,31
4499,-0.0001,4e-05,3e-05,-0.0001,8e-05,-2e-05,7e-05,-0.00022,2,31
4500,-0.0001,4e-05,3e-05,-0.0001,8e-05,-2e-05,7e-05,-0.00022,2,31
4501,-0.0001,4e-05,3e-05,-0.0001,8e-05,-2e-05,7e-05,-0.00022,2,31
4502,-0.0001,4e-05,3e-05,-0.0001,8e-05,-2e-05,7e-05,-0.00022,2,31
4503,-0.0001,4e-05,3e-05,-0.0001,8e-05,-2e-05,7e-05,-0.00022,2,31
4504,-0.0001,4e-05,3e-05,-0.0001,8e-05,-2e-05,7e-05,-0.00022,2,31
4505,-0.0001,4e-05,3e-05,-0.0001,8e-05,-2e-05,7e-05,-0.00022,2,31
4506,0,6e-05,5e-05,0.00048,1e-05,7e-05,3e-05,-0.0001,2,31
4507,0,6e-05,5e-05,0.00048,1e-05,7e-05,3e-05,-0.0001,2,31
4508,-0.00031,-3e-05,5e-05,7e-05,1e-05,3e-05,-5e-05,-0.00021,2,31
4509,-0.00031,-3e-05,5e-05,7e-05,1e-05,3e-05,-5e-05,-0.00021,2,31
4510,-0.00031,-3e-05,5e-05,7e-05,1e-05,3e-05,-5e-05,-0.00021,2,31
4511,-0.00031,-3e-05,5e-05,7e-05,1e-05,3e-05,-5e-05,-0.00021,2,31
4512,-0.00031,-3e-05,5e-05,7e-05,1e-05,3e-05,-5e-05,-0.00021,2,31
4513,-0.00031,-3e-05,5e-05,7e-05,1e-05,3e-05,-5e-05,-0.00021,2,31
4514,-0.00031,-3e-05,5e-05,7e-05,1e-05,3e-05,-5e-05,-0.00021,2,31
4515,-0.00031,-3e-05,5e-05,7e-05,1e-05,3e-05,-5e-05,-0.00021,2,31
4516,-0.00031,-3e-05,5e-05,7e-05,1e-05,3e-05,-5e-05,-0.00021,2,31
4517,-0.00031,-3e-05,5e-05,7e-05,1e-05,3e-05,-5e-05,-0.00021,2,31
4518,-0.00031,-3e-05,5e-05,7e-05,1e-05,3e-05,-5e-05,-0.00021,2,31
4519,-0.00033,-9e-05,-7e-05,1e-05,3e-05,-0.00022,-0.00057,-0.00048,2,31
4520,-0.00033,-9e-05,-7e-05,1e-05,3e-05,-0.00022,-0.00057,-0.00048,2,31
4521,-0.00033,-9e-05,-7e-05,1e-05,3e-05,-0.00022,-0.00057,-0.00048,2,31
4522,-0.00033,-9e-05,-7e-05,1e-05,3e-05,-0.00022,-0.00057,-0.00048,2,31
4523,-0.00033,-9e-05,-7e-05,1e-05,3e-05,-0.00022,-0.00057,-0.00048,2,31
4524,-0.00033,-9e-05,-7e-05,1e-05,3e-05,-0.00022,-0.00057,-0.00048,2,31
4525,-0.00033,-9e-05,-7e-05,1e-05,3e-05,-0.00022,-0.00057,-0.00048,2,31
4526,-0.00033,-9e-05,-7e-05,1e-05,3e-05,-0.00022,-0.00057,-0.00048,2,31
4527,-0.00033,-9e-05,-7e-05,1e-05,3e-05,-0.00022,-0.00057,-0.00048,2,31
4528,-0.00027,-5e-05,8e-05,0.00025,7e-05,-3e-05,5e-05,-0.00037,2,31
4529,-0.00027,-5e-05,8e-05,0.00025,7e-05,-3e-05,5e-05,-0.00037,2,31
4530,-0.00027,-5e-05,8e-05,0.00025,7e-05,-3e-05,5e-05,-0.00037,2,31
4531,-0.00027,-5e-05,8e-05,0.00025,7e-05,-3e-05,5e-05,-0.00037,2,31
4532,-0.00027,-5e-05,8e-05,0.00025,7e-05,-3e-05,5e-05,-0.00037,2,31
4533,-0.00027,-5e-05,8e-05,0.00025,7e-05,-3e-05,5e-05,-0.00037,2,31
4534,-0.00027,-5e-05,8e-05,0.00025,7e-05,-3e-05,5e-05,-0.00037,2,31
4535,-0.00027,-5e-05,8e-05,0.00025,7e-05,-3e-05,5e-05,-0.00037,2,31
4536,-0.00027,-5e-05,8e-05,0.00025,7e-05,-3e-05,5e-05,-0.00037,2,31
4538,-0.00027,-5e-05,8e-05,0.00025,7e-05,-3e-05,5e-05,-0.00037,2,31
4539,-0.00027,-5e-05,8e-05,0.00025,7e-05,-3e-05,5e-05,-0.00037,2,31
4540,-0.00027,-5e-05,8e-05,0.00025,7e-05,-3e-05,5e-05,-0.00037,2,31
4541,-0.00027,-5e-05,8e-05,0.00025,7e-05,-3e-05,5e-05,-0.00037,2,31
4542,-0.00027,-5e-05,8e-05,0.00025,7e-05,-3e-05,5e-05,-0.00037,2,31
4543,-0.00027,-5e-05,8e-05,0.00025,7e-05,-3e-05,5e-05,-0.00037,2,31
4544,0.00023,0,-1e-05,-0.00011,-0.00011,-1e-05,4e-05,2e-05,2,31
4545,0.00023,0,-1e-05,-0.00011,-0.00011,-1e-05,4e-05,2e-05,2,31
4547,0.00023,0,-1e-05,-0.00011,-0.00011,-1e-05,4e-05,2e-05,2,31
4548,0.00023,0,-1e-05,-0.00011,-0.00011,-1e-05,4e-05,2e-05,2,31
4549,0.00018,-1e-05,-0.00012,-0.00046,3e-05,0.00047,0.00018,9e-05,2,31
4550,0.00018,-1e-05,-0.00012,-0.00046,3e-05,0.00047,0.00018,9e-05,2,31
4551,0.00018,-1e-05,-0.00012,-0.00046,3e-05,0.00047,0.00018,9e-05,2,31
4552,0.00018,-1e-05,-0.00012,-0.00046,3e-05,0.00047,0.00018,9e-05,2,31
4553,0.00018,-1e-05,-0.00012,-0.00046,3e-05,0.00047,0.00018,9e-05,2,31
4554,0.00018,-1e-05,-0.00012,-0.00046,3e-05,0.00047,0.00018,9e-05,2,31
4555,0.00018,-1e-05,-0.00012,-0.00046,3e-05,0.00047,0.00018,9e-05,2,31
4556,0.00018,-1e-05,-0.00012,-0.00046,3e-05,0.00047,0.00018,9e-05,2,31
4557,0.00018,-1e-05,-0.00012,-0.00046,3e-05,0.00047,0.00018,9e-05,2,31
4558,0.00018,-1e-05,-0.00012,-0.00046,3e-05,0.00047,0.00018,9e-05,2,31
4559,0.00018,-1e-05,-0.00012,-0.00046,3e-05,0.00047,0.00018,9e-05,2,31
4560,0.00018,-1e-05,-0.00012,-0.00046,3e-05,0.00047,0.00018,9e-05,2,31
4561,0.00018,-1e-05,-0.00012,-0.00046,3e-05,0.00047,0.00018,9e-05,2,31
4562,0.00018,-1e-05,-0.00012,-0.00046,3e-05,0.00047,0.00018,9e-05,2,31
4563,0.00018,-1e-05,-0.00012,-0.00046,3e-05,0.00047,0.00018,9e-05,2,31
4564,0.00018,-1e-05,-0.00012,-0.00046,3e-05,0.00047,0.00018,9e-05,2,31
4565,-0.0003,-6e-05,-0.00012,0.00018,-8e-05,-7e-05,-7e-05,-8e-05,2,31
4566,0.00014,0.00014,0.00029,0.00033,9e-05,6e-05,0.00011,0.00022,2,31
4567,-0.00045,-0.0001,-0.00019,-0.00038,-1e-05,-5e-05,-0.00023,-0.00073,2,31
4568,-0.00045,-0.0001,-0.00019,-0.00038,-1e-05,-5e-05,-0.00023,-0.00073,2,31
4569,-0.00045,-0.0001,-0.00019,-0.00038,-1e-05,-5e-05,-0.00023,-0.00073,2,31
4570,-0.00045,-0.0001,-0.00019,-0.00038,-1e-05,-5e-05,-0.00023,-0.00073,2,31
4571,-0.00045,-0.0001,-0.00019,-0.00038,-1e-05,-5e-05,-0.00023,-0.00073,2,31
4572,-0.00045,-0.0001,-0.00019,-0.00038,-1e-05,-5e-05,-0.00023,-0.00073,2,31
4573,-0.00045,-0.0001,-0.00019,-0.00038,-1e-05,-5e-05,-0.00023,-0.00073,2,31
4574,-0.00045,-0.0001,-0.00019,-0.00038,-1e-05,-5e-05,-0.00023,-0.00073,2,31
4575,-0.00045,-0.0001,-0.00019,-0.00038,-1e-05,-5e-05,-0.00023,-0.00073,2,31
4576,-0.00045,-0.0001,-0.00019,-0.00038,-1e-05,-5e-05,-0.00023,-0.00073,2,31
4577,-0.00045,-0.0001,-0.00019,-0.00038,-1e-05,-5e-05,-0.00023,-0.00073,2,31
4578,-0.00045,-0.0001,-0.00019,-0.00038,-1e-05,-5e-05,-0.00023,-0.00073,2,31
4579,-0.00045,-0.0001,-0.00019,-0.00038,-1e-05,-5e-05,-0.00023,-0.00073,2,31
4580,-0.00045,-0.0001,-0.00019,-0.00038,-1e-05,-5e-05,-0.00023,-0.00073,2,31
4581,-0.00045,-0.0001,-0.00019,-0.00038,-1e-05,-5e-05,-0.00023,-0.00073,2,31
4582,-0.00045,-0.0001,-0.00019,-0.00038,-1e-05,-5e-05,-0.00023,-0.00073,2,31
4583,-0.00045,-0.0001,-0.00019,-0.00038,-1e-05,-5e-05,-0.00023,-0.00073,2,31
4584,-0.00045,-0.0001,-0.00019,-0.00038,-1e-05,-5e-05,-0.00023,-0.00073,2,31
4585,-0.00045,-0.0001,-0.00019,-0.00038,-1e-05,-5e-05,-0.00023,-0.00073,2,31
4586,-0.00045,-0.0001,-0.00019,-0.00038,-1e-05,-5e-05,-0.00023,-0.00073,2,31
4588,-0.00045,-0.0001,-0.00019,-0.00038,-1e-05,-5e-05,-0.00023,-0.00073,2,31
4589,-0.00072,-5e-05,-0.00012,-0.00045,-4e-05,0.00031,0.00032,0.00024,2,31
4590,0.00049,8e-05,-6e-05,-0.00025,-7e-05,-0.00011,0.00027,0.00043,2,31
4591,0.00049,8e-05,-6e-05,-0.00025,-7e-05,-0.00011,0.00027,0.00043,2,31
4592,0.00049,8e-05,-6e-05,-0.00025,-7e-05,-0.00011,0.00027,0.00043,2,31
4593,0.00049,8e-05,-6e-05,-0.00025,-7e-05,-0.00011,0.00027,0.00043,2,31
4594,0.00049,8e-05,-6e-05,-0.00025,-7e-05,-0.00011,0.00027,0.00043,2,31
4595,0.00049,8e-05,-6e-05,-0.00025,-7e-05,-0.00011,0.00027,0.00043,2,31
4596,0.00049,8e-05,-6e-05,-0.00025,-7e-05,-0.00011,0.00027,0.00043,2,31
4597,0.00049,8e-05,-6e-05,-0.00025,-7e-05,-0.00011,0.00027,0.00043,2,31
4598,0.00049,8e-05,-6e-05,-0.00025,-7e-05,-0.00011,0.00027,0.00043,2,31
4599,0.00049,8e-05,-6e-05,-0.00025,-7e-05,-0.00011,0.00027,0.00043,2,31
4600,0.00049,8e-05,-6e-05,-0.00025,-7e-05,-0.00011,0.00027,0.00043,2,31
4601,0.00049,8e-05,-6e-05,-0.00025,-7e-05,-0.00011,0.00027,0.00043,2,31
4602,0.00049,8e-05,-6e-05,-0.00025,-7e-05,-0.00011,0.00027,0.00043,2,31
4603,0.00079,3e-05,5e-05,9e-05,-0.00027,-0.0002,0.00021,0.00099,2,31
4604,0.00079,3e-05,5e-05,9e-05,-0.00027,-0.0002,0.00021,0.00099,2,31
4605,0.00053,0.00021,0.00014,0.00035,0.00034,1e-05,0.00013,-6e-05,2,31
4606,0.00053,0.00021,0.00014,0.00035,0.00034,1e-05,0.00013,-6e-05,2,31
4607,0.00053,0.00021,0.00014,0.00035,0.00034,1e-05,0.00013,-6e-05,2,31
4608,0.00053,0.00021,0.00014,0.00035,0.00034,1e-05,0.00013,-6e-05,2,31
4609,0.00053,0.00021,0.00014,0.00035,0.00034,1e-05,0.00013,-6e-05,2,31
4610,0.00053,0.00021,0.00014,0.00035,0.00034,1e-05,0.00013,-6e-05,2,31
4611,0.00053,0.00021,0.00014,0.00035,0.00034,1e-05,0.00013,-6e-05,2,31
4612,0.00053,0.00021,0.00014,0.00035,0.00034,1e-05,0.00013,-6e-05,2,31
4613,0.00053,0.00021,0.00014,0.00035,0.00034,1e-05,0.00013,-6e-05,2,31
4614,0.00053,0.00021,0.00014,0.00035,0.00034,1e-05,0.00013,-6e-05,2,31
4615,0.00053,0.00021,0.00014,0.00035,0.00034,1e-05,0.00013,-6e-05,2,31
4616,0.00053,0.00021,0.00014,0.00035,0.00034,1e-05,0.00013,-6e-05,2,31
4617,0.00053,0.00021,0.00014,0.00035,0.00034,1e-05,0.00013,-6e-05,2,31
4618,0.00053,0.00021,0.00014,0.00035,0.00034,1e-05,0.00013,-6e-05,2,31
4619,0.00053,0.00021,0.00014,0.00035,0.00034,1e-05,0.00013,-6e-05,2,31
4620,0.00053,0.00021,0.00014,0.00035,0.00034,1e-05,0.00013,-6e-05,2,31
4621,0.00053,0.00021,0.00014,0.00035,0.00034,1e-05,0.00013,-6e-05,2,31
4622,0.00053,0.00021,0.00014,0.00035,0.00034,1e-05,0.00013,-6e-05,2,31
4623,0.00053,0.00021,0.00014,0.00035,0.00034,1e-05,0.00013,-6e-05,2,31
4624,0.00053,0.00021,0.00014,0.00035,0.00034,1e-05,0.00013,-6e-05,2,31
4625,-0.00026,-0.00012,-9e-05,-0.0003,-2e-05,-9e-05,0.00015,-0.00024,2,31
4626,-0.00072,-0.00011,-6e-05,0.00018,0.00019,-0.00022,-0.00024,-0.00128,2,31
4627,0.00013,-3e-05,0.00011,0.00045,-6e-05,-0.00017,6e-05,0.00011,2,31
4628,0.00013,-3e-05,0.00011,0.00045,-6e-05,-0.00017,6e-05,0.00011,2,31
4629,0.00013,-3e-05,0.00011,0.00045,-6e-05,-0.00017,6e-05,0.00011,2,31
4630,0.00013,-3e-05,0.00011,0.00045,-6e-05,-0.00017,6e-05,0.00011,2,31
4631,0.00013,-3e-05,0.00011,0.00045,-6e-05,-0.00017,6e-05,0.00011,2,31
4632,0.00013,-3e-05,0.00011,0.00045,-6e-05,-0.00017,6e-05,0.00011,2,31
4633,0.00013,-3e-05,0.00011,0.00045,-6e-05,-0.00017,6e-05,0.00011,2,31
4634,0.00013,-3e-05,0.00011,0.00045,-6e-05,-0.00017,6e-05,0.00011,2,31
4635,0.00013,-3e-05,0.00011,0.00045,-6e-05,-0.00017,6e-05,0.00011,2,31
4636,0.00013,-3e-05,0.00011,0.00045,-6e-05,-0.00017,6e-05,0.00011,2,31
4638,0.00013,-3e-05,0.00011,0.00045,-6e-05,-0.00017,6e-05,0.00011,2,31
4639,0.00013,-3e-05,0.00011,0.00045,-6e-05,-0.00017,6e-05,0.00011,2,31
4640,0.00013,-3e-05,0.00011,0.00045,-6e-05,-0.00017,6e-05,0.00011,2,31
4641,0.00013,-3e-05,0.00011,0.00045,-6e-05,-0.00017,6e-05,0.00011,2,31
4642,0.00013,-3e-05,0.00011,0.00045,-6e-05,-0.00017,6e-05,0.00011,2,31
4643,0.00013,-3e-05,0.00011,0.00045,-6e-05,-0.00017,6e-05,0.00011,2,31
4644,0.00013,-3e-05,0.00011,0.00045,-6e-05,-0.00017,6e-05,0.00011,2,31
4645,0.00013,-3e-05,0.00011,0.00045,-6e-05,-0.00017,6e-05,0.00011,2,31
4646,0.00013,-3e-05,0.00011,0.00045,-6e-05,-0.00017,6e-05,0.00011,2,31
4647,0.00013,-3e-05,0.00011,0.00045,-6e-05,-0.00017,6e-05,0.00011,2,31
4648,-0.00023,-9e-05,-6e-05,-0.00013,0.0003,-9e-05,-8e-05,-0.00028,2,31
4649,-0.00023,-9e-05,-6e-05,-0.00013,0.0003,-9e-05,-8e-05,-0.00028,2,31
4650,-0.00014,1e-05,0.00011,0.00016,-0.00033,-0.00015,6e-05,0.00031,2,31
4651,-0.00014,1e-05,0.00011,0.00016,-0.00033,-0.00015,6e-05,0.00031,2,31
4652,-0.00014,1e-05,0.00011,0.00016,-0.00033,-0.00015,6e-05,0.00031,2,31
4653,-0.00014,1e-05,0.00011,0.00016,-0.00033,-0.00015,6e-05,0.00031,2,31
4654,-0.00014,1e-05,0.00011,0.00016,-0.00033,-0.00015,6e-05,0.00031,2,31
4655,-0.00014,1e-05,0.00011,0.00016,-0.00033,-0.00015,6e-05,0.00031,2,31
4656,-0.00014,1e-05,0.00011,0.00016,-0.00033,-0.00015,6e-05,0.00031,2,31
4657,-0.00014,1e-05,0.00011,0.00016,-0.00033,-0.00015,6e-05,0.00031,2,31
4658,-0.00014,1e-05,0.00011,0.00016,-0.00033,-0.00015,6e-05,0.00031,2,31
4659,-0.00014,1e-05,0.00011,0.00016,-0.00033,-0.00015,6e-05,0.00031,2,31
4660,-0.00014,1e-05,0.00011,0.00016,-0.00033,-0.00015,6e-05,0.00031,2,31
4661,-0.00014,1e-05,0.00011,0.00016,-0.00033,-0.00015,6e-05,0.00031,2,31
4662,-0.00014,1e-05,0.00011,0.00016,-0.00033,-0.00015,6e-05,0.00031,2,31
4663,0.00042,5e-05,-0.00014,-0.00041,-0.00038,-0.00023,0.00021,0.0006,2,31
4664,-1e-05,1e-05,7e-05,0.00035,0.00022,4e-05,9e-05,-4e-05,2,31
4665,-0.00017,5e-05,0.0001,6e-05,0.00035,8e-05,7e-05,-0.00027,2,31
4666,-0.00017,5e-05,0.0001,6e-05,0.00035,8e-05,7e-05,-0.00027,2,31
4667,-0.00017,5e-05,0.0001,6e-05,0.00035,8e-05,7e-05,-0.00027,2,31
4668,-0.00017,5e-05,0.0001,6e-05,0.00035,8e-05,7e-05,-0.00027,2,31
4669,-0.00017,5e-05,0.0001,6e-05,0.00035,8e-05,7e-05,-0.00027,2,31
4670,-0.00017,5e-05,0.0001,6e-05,0.00035,8e-05,7e-05,-0.00027,2,31
4671,-0.00017,5e-05,0.0001,6e-05,0.00035,8e-05,7e-05,-0.00027,2,31
4672,-0.00017,5e-05,0.0001,6e-05,0.00035,8e-05,7e-05,-0.00027,2,31
4673,-0.00017,5e-05,0.0001,6e-05,0.00035,8e-05,7e-05,-0.00027,2,31
4674,-0.00017,5e-05,0.0001,6e-05,0.00035,8e-05,7e-05,-0.00027,2,31
4675,-0.00017,5e-05,0.0001,6e-05,0.00035,8e-05,7e-05,-0.00027,2,31
4676,-0.00017,5e-05,0.0001,6e-05,0.00035,8e-05,7e-05,-0.00027,2,31
4677,-0.00017,5e-05,0.0001,6e-05,0.00035,8e-05,7e-05,-0.00027,2,31
4678,-0.00017,5e-05,0.0001,6e-05,0.00035,8e-05,7e-05,-0.00027,2,31
4679,-0.00017,5e-05,0.0001,6e-05,0.00035,8e-05,7e-05,-0.00027,2,31
4680,-0.00017,5e-05,0.0001,6e-05,0.00035,8e-05,7e-05,-0.00027,2,31
4681,-0.00017,5e-05,0.0001,6e-05,0.00035,8e-05,7e-05,-0.00027,2,31
4682,-0.00017,5e-05,0.0001,6e-05,0.00035,8e-05,7e-05,-0.00027,2,31
4683,-0.00017,5e-05,0.0001,6e-05,0.00035,8e-05,7e-05,-0.00027,2,31
4684,-0.00017,5e-05,0.0001,6e-05,0.00035,8e-05,7e-05,-0.00027,2,31
4685,9e-05,-8e-05,-5e-05,-0.00018,-0.00025,-0.00023,-0.00032,-5e-05,2,31
4687,-0.00053,-0.00012,-0.00013,-8e-05,-0.00031,-0.00018,-0.00039,-0.00055,2,31
4689,-0.00053,-0.00012,-0.00013,-8e-05,-0.00031,-0.00018,-0.00039,-0.00055,2,31
4690,-0.00053,-0.00012,-0.00013,-8e-05,-0.00031,-0.00018,-0.00039,-0.00055,2,31
4691,-0.00053,-0.00012,-0.00013,-8e-05,-0.00031,-0.00018,-0.00039,-0.00055,2,31
4692,-0.00053,-0.00012,-0.00013,-8e-05,-0.00031,-0.00018,-0.00039,-0.00055,2,31
4693,-0.00053,-0.00012,-0.00013,-8e-05,-0.00031,-0.00018,-0.00039,-0.00055,2,31
4694,-0.00053,-0.00012,-0.00013,-8e-05,-0.00031,-0.00018,-0.00039,-0.00055,2,31
4695,-0.00053,-0.00012,-0.00013,-8e-05,-0.00031,-0.00018,-0.00039,-0.00055,2,31
4696,-0.00053,-0.00012,-0.00013,-8e-05,-0.00031,-0.00018,-0.00039,-0.00055,2,31
4697,-0.00053,-0.00012,-0.00013,-8e-05,-0.00031,-0.00018,-0.00039,-0.00055,2,31
4698,-0.00053,-0.00012,-0.00013,-8e-05,-0.00031,-0.00018,-0.00039,-0.00055,2,31
4699,-0.00026,-5e-05,2e-05,-2e-05,6e-05,-0.00011,-0.00021,-0.00024,2,31
4701,-0.00026,-5e-05,2e-05,-2e-05,6e-05,-0.00011,-0.00021,-0.00024,2,31
4702,-0.00026,-5e-05,2e-05,-2e-05,6e-05,-0.00011,-0.00021,-0.00024,2,31
4703,-0.00026,-5e-05,2e-05,-2e-05,6e-05,-0.00011,-0.00021,-0.00024,2,31
4705,-0.00026,-5e-05,2e-05,-2e-05,6e-05,-0.00011,-0.00021,-0.00024,2,31
4706,-0.00026,-5e-05,2e-05,-2e-05,6e-05,-0.00011,-0.00021,-0.00024,2,31
4707,-0.00026,-5e-05,2e-05,-2e-05,6e-05,-0.00011,-0.00021,-0.00024,2,31
4708,-3e-05,6e-05,0,0.00018,0.00029,0.00035,0.00034,0.00035,2,31
4709,-3e-05,6e-05,0,0.00018,0.00029,0.00035,0.00034,0.00035,2,31
4710,-3e-05,6e-05,0,0.00018,0.00029,0.00035,0.00034,0.00035,2,31
4711,-3e-05,6e-05,0,0.00018,0.00029,0.00035,0.00034,0.00035,2,31
4712,-3e-05,6e-05,0,0.00018,0.00029,0.00035,0.00034,0.00035,2,31
4713,-3e-05,6e-05,0,0.00018,0.00029,0.00035,0.00034,0.00035,2,31
4714,-3e-05,6e-05,0,0.00018,0.00029,0.00035,0.00034,0.00035,2,31
4715,-3e-05,6e-05,0,0.00018,0.00029,0.00035,0.00034,0.00035,2,31
4716,-3e-05,6e-05,0,0.00018,0.00029,0.00035,0.00034,0.00035,2,31
4717,-3e-05,6e-05,0,0.00018,0.00029,0.00035,0.00034,0.00035,2,31
4718,-3e-05,6e-05,0,0.00018,0.00029,0.00035,0.00034,0.00035,2,31
4719,-3e-05,6e-05,0,0.00018,0.00029,0.00035,0.00034,0.00035,2,31
4720,-3e-05,6e-05,0,0.00018,0.00029,0.00035,0.00034,0.00035,2,31
4721,-3e-05,6e-05,0,0.00018,0.00029,0.00035,0.00034,0.00035,2,31
4722,-3e-05,6e-05,0,0.00018,0.00029,0.00035,0.00034,0.00035,2,31
4723,5e-05,8e-05,9e-05,0.00015,6e-05,0.0006,-2e-05,-0.0005,2,31
4724,0.00021,3e-05,-2e-05,-0.00038,-8e-05,-0.00015,0.00032,0.00063,2,31
4725,-5e-05,-3e-05,-9e-05,-0.00022,-0.00026,6e-05,3e-05,-4e-05,2,31
4726,-5e-05,-3e-05,-9e-05,-0.00022,-0.00026,6e-05,3e-05,-4e-05,2,31
4727,-5e-05,-3e-05,-9e-05,-0.00022,-0.00026,6e-05,3e-05,-4e-05,2,31
4728,-5e-05,-3e-05,-9e-05,-0.00022,-0.00026,6e-05,3e-05,-4e-05,2,31
4729,-5e-05,-3e-05,-9e-05,-0.00022,-0.00026,6e-05,3e-05,-4e-05,2,31
4730,-5e-05,-3e-05,-9e-05,-0.00022,-0.00026,6e-05,3e-05,-4e-05,2,31
4731,-5e-05,-3e-05,-9e-05,-0.00022,-0.00026,6e-05,3e-05,-4e-05,2,31
4732,-5e-05,-3e-05,-9e-05,-0.00022,-0.00026,6e-05,3e-05,-4e-05,2,31
4733,-5e-05,-3e-05,-9e-05,-0.00022,-0.00026,6e-05,3e-05,-4e-05,2,31
4734,-5e-05,-3e-05,-9e-05,-0.00022,-0.00026,6e-05,3e-05,-4e-05,2,31
4735,-5e-05,-3e-05,-9e-05,-0.00022,-0.00026,6e-05,3e-05,-4e-05,2,31
4736,-5e-05,-3e-05,-9e-05,-0.00022,-0.00026,6e-05,3e-05,-4e-05,2,31
4738,-5e-05,-3e-05,-9e-05,-0.00022,-0.00026,6e-05,3e-05,-4e-05,2,31
4739,-5e-05,-3e-05,-9e-05,-0.00022,-0.00026,6e-05,3e-05,-4e-05,2,31
4740,-5e-05,-3e-05,-9e-05,-0.00022,-0.00026,6e-05,3e-05,-4e-05,2,31
4741,-5e-05,-3e-05,-9e-05,-0.00022,-0.00026,6e-05,3e-05,-4e-05,2,31
4742,-5e-05,-3e-05,-9e-05,-0.00022,-0.00026,6e-05,3e-05,-4e-05,2,31
4743,-5e-05,-3e-05,-9e-05,-0.00022,-0.00026,6e-05,3e-05,-4e-05,2,31
4744,-5e-05,-3e-05,-9e-05,-0.00022,-0.00026,6e-05,3e-05,-4e-05,2,31
4745,-5e-05,-3e-05,-9e-05,-0.00022,-0.00026,6e-05,3e-05,-4e-05,2,31
4746,0.00014,-8e-05,-0.0001,-0.00021,-4e-05,-4e-05,-0.00016,0.00028,2,31
4747,-1e-05,-1e-05,-0.00011,-0.0003,-0.00028,-0.00017,-3e-05,8e-05,2,31
4748,-1e-05,-1e-05,-0.00011,-0.0003,-0.00028,-0.00017,-3e-05,8e-05,2,31
4749,-1e-05,-1e-05,-0.00011,-0.0003,-0.00028,-0.00017,-3e-05,8e-05,2,31
4750,-1e-05,-1e-05,-0.00011,-0.0003,-0.00028,-0.00017,-3e-05,8e-05,2,31
4751,-1e-05,-1e-05,-0.00011,-0.0003,-0.00028,-0.00017,-3e-05,8e-05,2,31
4752,-1e-05,-1e-05,-0.00011,-0.0003,-0.00028,-0.00017,-3e-05,8e-05,2,31
4753,-1e-05,-1e-05,-0.00011,-0.0003,-0.00028,-0.00017,-3e-05,8e-05,2,31
4754,-1e-05,-1e-05,-0.00011,-0.0003,-0.00028,-0.00017,-3e-05,8e-05,2,31
4755,-1e-05,-1e-05,-0.00011,-0.0003,-0.00028,-0.00017,-3e-05,8e-05,2,31
4756,-1e-05,-1e-05,-0.00011,-0.0003,-0.00028,-0.00017,-3e-05,8e-05,2,31
4757,-1e-05,-1e-05,-0.00011,-0.0003,-0.00028,-0.00017,-3e-05,8e-05,2,31
4758,-1e-05,-1e-05,-0.00011,-0.0003,-0.00028,-0.00017,-3e-05,8e-05,2,31
4759,-1e-05,-1e-05,-0.00011,-0.0003,-0.00028,-0.00017,-3e-05,8e-05,2,31
4760,3e-05,-4e-05,-0.0001,-0.00018,-0.00017,1e-05,0.00016,4e-05,2,31
4761,3e-05,-4e-05,-0.0001,-0.00018,-0.00017,1e-05,0.00016,4e-05,2,31
4762,3e-05,-4e-05,-0.0001,-0.00018,-0.00017,1e-05,0.00016,4e-05,2,31
4763,3e-05,-4e-05,-0.0001,-0.00018,-0.00017,1e-05,0.00016,4e-05,2,31
4764,3e-05,-4e-05,-0.0001,-0.00018,-0.00017,1e-05,0.00016,4e-05,2,31
4765,3e-05,-4e-05,-0.0001,-0.00018,-0.00017,1e-05,0.00016,4e-05,2,31
4766,3e-05,-4e-05,-0.0001,-0.00018,-0.00017,1e-05,0.00016,4e-05,2,31
4767,3e-05,-4e-05,-0.0001,-0.00018,-0.00017,1e-05,0.00016,4e-05,2,31
4768,3e-05,-4e-05,-0.0001,-0.00018,-0.00017,1e-05,0.00016,4e-05,2,31
4769,3e-05,-4e-05,-0.0001,-0.00018,-0.00017,1e-05,0.00016,4e-05,2,31
4770,3e-05,-4e-05,-0.0001,-0.00018,-0.00017,1e-05,0.00016,4e-05,2,31
4771,3e-05,-4e-05,-0.0001,-0.00018,-0.00017,1e-05,0.00016,4e-05,2,31
4772,3e-05,-4e-05,-0.0001,-0.00018,-0.00017,1e-05,0.00016,4e-05,2,31
4773,3e-05,-4e-05,-0.0001,-0.00018,-0.00017,1e-05,0.00016,4e-05,2,31
4774,3e-05,-4e-05,-0.0001,-0.00018,-0.00017,1e-05,0.00016,4e-05,2,31
4775,3e-05,-4e-05,-0.0001,-0.00018,-0.00017,1e-05,0.00016,4e-05,2,31
4776,3e-05,-4e-05,-0.0001,-0.00018,-0.00017,1e-05,0.00016,4e-05,2,31
4777,3e-05,-4e-05,-0.0001,-0.00018,-0.00017,1e-05,0.00016,4e-05,2,31
4778,3e-05,-4e-05,-0.0001,-0.00018,-0.00017,1e-05,0.00016,4e-05,2,31
4779,3e-05,-4e-05,-0.0001,-0.00018,-0.00017,1e-05,0.00016,4e-05,2,31
4780,3e-05,-4e-05,-0.0001,-0.00018,-0.00017,1e-05,0.00016,4e-05,2,31
4781,3e-05,-4e-05,-0.0001,-0.00018,-0.00017,1e-05,0.00016,4e-05,2,31
4782,3e-05,-4e-05,-0.0001,-0.00018,-0.00017,1e-05,0.00016,4e-05,2,31
4783,3e-05,-4e-05,-0.0001,-0.00018,-0.00017,1e-05,0.00016,4e-05,2,31
4784,3e-05,-4e-05,-0.0001,-0.00018,-0.00017,1e-05,0.00016,4e-05,2,31
4785,0.00049,8e-05,9e-05,3e-05,0.00011,-6e-05,-0.00011,0.00065,2,31
4786,-0.00011,-0.00012,-9e-05,0.00013,-0.00018,-0.00035,0.00021,9e-05,2,31
4788,-0.00011,-0.00012,-9e-05,0.00013,-0.00018,-0.00035,0.00021,9e-05,2,31
4789,-0.00011,-0.00012,-9e-05,0.00013,-0.00018,-0.00035,0.00021,9e-05,2,31
4790,-0.00011,-0.00012,-9e-05,0.00013,-0.00018,-0.00035,0.00021,9e-05,2,31
4791,-0.00011,-0.00012,-9e-05,0.00013,-0.00018,-0.00035,0.00021,9e-05,2,31
4792,-0.00011,-0.00012,-9e-05,0.00013,-0.00018,-0.00035,0.00021,9e-05,2,31
4793,-0.00011,-0.00012,-9e-05,0.00013,-0.00018,-0.00035,0.00021,9e-05,2,31
4794,-0.00011,-0.00012,-9e-05,0.00013,-0.00018,-0.00035,0.00021,9e-05,2,31
4795,-0.00011,-0.00012,-9e-05,0.00013,-0.00018,-0.00035,0.00021,9e-05,2,31
4796,-0.00011,-0.00012,-9e-05,0.00013,-0.00018,-0.00035,0.00021,9e-05,2,31
4797,-0.00011,-0.00012,-9e-05,0.00013,-0.00018,-0.00035,0.00021,9e-05,2,31
4798,-0.00011,-0.00012,-9e-05,0.00013,-0.00018,-0.00035,0.00021,9e-05,2,31
4799,-0.00011,-0.00012,-9e-05,0.00013,-0.00018,-0.00035,0.00021,9e-05,2,31
4800,-0.00011,-0.00012,-9e-05,0.00013,-0.00018,-0.00035,0.00021,9e-05,2,31
4801,-0.00011,-0.00012,-9e-05,0.00013,-0.00018,-0.00035,0.00021,9e-05,2,31
4802,-0.00011,-0.00012,-9e-05,0.00013,-0.00018,-0.00035,0.00021,9e-05,2,31
4803,-0.00011,-0.00012,-9e-05,0.00013,-0.00018,-0.00035,0.00021,9e-05,2,31
4804,-0.00011,-0.00012,-9e-05,0.00013,-0.00018,-0.00035,0.00021,9e-05,2,31
4805,-0.00011,-0.00012,-9e-05,0.00013,-0.00018,-0.00035,0.00021,9e-05,2,31
4806,-0.00011,-0.00012,-9e-05,0.00013,-0.00018,-0.00035,0.00021,9e-05,2,31
4807,-0.00071,-0.00013,1e-05,0.00019,2e-05,-0.00014,-0.00013,-0.00085,2,31
4808,-7e-05,-3e-05,-2e-05,0.00014,2e-05,-6e-05,-4e-05,-0.00033,2,31
4809,0.00024,-2e-05,-0.00012,-0.00032,2e-05,-0.00021,-9e-05,-2e-05,2,31
4810,0.00024,-2e-05,-0.00012,-0.00032,2e-05,-0.00021,-9e-05,-2e-05,2,31
4811,0.00024,-2e-05,-0.00012,-0.00032,2e-05,-0.00021,-9e-05,-2e-05,2,31
4812,0.00024,-2e-05,-0.00012,-0.00032,2e-05,-0.00021,-9e-05,-2e-05,2,31
4813,0.00024,-2e-05,-0.00012,-0.00032,2e-05,-0.00021,-9e-05,-2e-05,2,31
4814,0.00024,-2e-05,-0.00012,-0.00032,2e-05,-0.00021,-9e-05,-2e-05,2,31
4815,0.00024,-2e-05,-0.00012,-0.00032,2e-05,-0.00021,-9e-05,-2e-05,2,31
4816,0.00024,-2e-05,-0.00012,-0.00032,2e-05,-0.00021,-9e-05,-2e-05,2,31
4817,0.00024,-2e-05,-0.00012,-0.00032,2e-05,-0.00021,-9e-05,-2e-05,2,31
4818,0.00024,-2e-05,-0.00012,-0.00032,2e-05,-0.00021,-9e-05,-2e-05,2,31
4819,0.00024,-2e-05,-0.00012,-0.00032,2e-05,-0.00021,-9e-05,-2e-05,2,31
4820,0.00024,-2e-05,-0.00012,-0.00032,2e-05,-0.00021,-9e-05,-2e-05,2,31
4821,0.00024,-2e-05,-0.00012,-0.00032,2e-05,-0.00021,-9e-05,-2e-05,2,31
4822,0.00024,-2e-05,-0.00012,-0.00032,2e-05,-0.00021,-9e-05,-2e-05,2,31
4823,0.00024,-2e-05,-0.00012,-0.00032,2e-05,-0.00021,-9e-05,-2e-05,2,31
4824,0.00024,-2e-05,-0.00012,-0.00032,2e-05,-0.00021,-9e-05,-2e-05,2,31
4825,0.00024,-2e-05,-0.00012,-0.00032,2e-05,-0.00021,-9e-05,-2e-05,2,31
4826,0.00024,-2e-05,-0.00012,-0.00032,2e-05,-0.00021,-9e-05,-2e-05,2,31
4827,0.00024,-2e-05,-0.00012,-0.00032,2e-05,-0.00021,-9e-05,-2e-05,2,31
4828,0.00024,-2e-05,-0.00012,-0.00032,2e-05,-0.00021,-9e-05,-2e-05,2,31
4829,0.00041,0,4e-05,-0.00029,-0.00016,-0.00037,-0.00032,-0.00038,2,31
4830,0.00041,0,4e-05,-0.00029,-0.00016,-0.00037,-0.00032,-0.00038,2,31
4831,0.00041,0,4e-05,-0.00029,-0.00016,-0.00037,-0.00032,-0.00038,2,31
4832,0.00041,0,4e-05,-0.00029,-0.00016,-0.00037,-0.00032,-0.00038,2,31
4833,0.00041,0,4e-05,-0.00029,-0.00016,-0.00037,-0.00032,-0.00038,2,31
4834,0.00041,0,4e-05,-0.00029,-0.00016,-0.00037,-0.00032,-0.00038,2,31
4835,0.00041,0,4e-05,-0.00029,-0.00016,-0.00037,-0.00032,-0.00038,2,31
4836,0.00041,0,4e-05,-0.00029,-0.00016,-0.00037,-0.00032,-0.00038,2,31
4838,0.00041,0,4e-05,-0.00029,-0.00016,-0.00037,-0.00032,-0.00038,2,31
4839,0.00041,0,4e-05,-0.00029,-0.00016,-0.00037,-0.00032,-0.00038,2,31
4840,0.00041,0,4e-05,-0.00029,-0.00016,-0.00037,-0.00032,-0.00038,2,31
4841,0.00041,0,4e-05,-0.00029,-0.00016,-0.00037,-0.00032,-0.00038,2,31
4842,0.00041,0,4e-05,-0.00029,-0.00016,-0.00037,-0.00032,-0.00038,2,31
4843,-0.00014,-5e-05,-0.0001,-0.00024,-0.00036,-4e-05,2e-05,-9e-05,2,31
4844,-0.00077,-0.00015,-0.0001,-0.00017,-6e-05,0.00019,0,-0.0008,2,31
4845,-0.00077,-0.00015,-0.0001,-0.00017,-6e-05,0.00019,0,-0.0008,2,31
4846,-0.00077,-0.00015,-0.0001,-0.00017,-6e-05,0.00019,0,-0.0008,2,31
4847,-0.00077,-0.00015,-0.0001,-0.00017,-6e-05,0.00019,0,-0.0008,2,31
4848,-0.00077,-0.00015,-0.0001,-0.00017,-6e-05,0.00019,0,-0.0008,2,31
4849,-0.00077,-0.00015,-0.0001,-0.00017,-6e-05,0.00019,0,-0.0008,2,31
4850,-0.00077,-0.00015,-0.0001,-0.00017,-6e-05,0.00019,0,-0.0008,2,31
4851,-0.00011,-3e-05,0.00011,1e-05,-0.00055,-8e-05,-0.00013,0,2,31
4852,-0.00011,-3e-05,0.00011,1e-05,-0.00055,-8e-05,-0.00013,0,2,31
4853,-0.00011,-3e-05,0.00011,1e-05,-0.00055,-8e-05,-0.00013,0,2,31
4854,-0.00011,-3e-05,0.00011,1e-05,-0.00055,-8e-05,-0.00013,0,2,31
4855,-0.00011,-3e-05,0.00011,1e-05,-0.00055,-8e-05,-0.00013,0,2,31
4856,-0.00011,-3e-05,0.00011,1e-05,-0.00055,-8e-05,-0.00013,0,2,31
4857,-0.00011,-3e-05,0.00011,1e-05,-0.00055,-8e-05,-0.00013,0,2,31
4858,-0.00011,-3e-05,0.00011,1e-05,-0.00055,-8e-05,-0.00013,0,2,31
4859,-0.00011,-3e-05,0.00011,1e-05,-0.00055,-8e-05,-0.00013,0,2,31
4860,-0.00011,-3e-05,0.00011,1e-05,-0.00055,-8e-05,-0.00013,0,2,31
4861,-0.00011,-3e-05,0.00011,1e-05,-0.00055,-8e-05,-0.00013,0,2,31
4862,-0.00011,-3e-05,0.00011,1e-05,-0.00055,-8e-05,-0.00013,0,2,31
4863,-0.00011,-3e-05,0.00011,1e-05,-0.00055,-8e-05,-0.00013,0,2,31
4864,-0.00011,-3e-05,0.00011,1e-05,-0.00055,-8e-05,-0.00013,0,2,31
4865,-0.00011,-3e-05,0.00011,1e-05,-0.00055,-8e-05,-0.00013,0,2,31
4866,0.00017,3e-05,7e-05,2e-05,0.00037,0.00053,0.00026,0.0009,2,31
4867,0.00017,3e-05,7e-05,2e-05,0.00037,0.00053,0.00026,0.0009,2,31
4868,-0.00016,3e-05,-4e-05,-4e-05,0.00027,0.0002,1e-05,-0.00013,2,31
4869,-0.00016,3e-05,-4e-05,-4e-05,0.00027,0.0002,1e-05,-0.00013,2,31
4870,-0.00016,3e-05,-4e-05,-4e-05,0.00027,0.0002,1e-05,-0.00013,2,31
4871,-0.00016,3e-05,-4e-05,-4e-05,0.00027,0.0002,1e-05,-0.00013,2,31
4872,-0.00016,3e-05,-4e-05,-4e-05,0.00027,0.0002,1e-05,-0.00013,2,31
4873,-0.00016,3e-05,-4e-05,-4e-05,0.00027,0.0002,1e-05,-0.00013,2,31
4874,-0.00016,3e-05,-4e-05,-4e-05,0.00027,0.0002,1e-05,-0.00013,2,31
4875,-0.00016,3e-05,-4e-05,-4e-05,0.00027,0.0002,1e-05,-0.00013,2,31
4876,-0.00016,3e-05,-4e-05,-4e-05,0.00027,0.0002,1e-05,-0.00013,2,31
4877,-0.00016,3e-05,-4e-05,-4e-05,0.00027,0.0002,1e-05,-0.00013,2,31
4878,-0.00016,3e-05,-4e-05,-4e-05,0.00027,0.0002,1e-05,-0.00013,2,31
4879,-0.00016,3e-05,-4e-05,-4e-05,0.00027,0.0002,1e-05,-0.00013,2,31
4880,-0.00016,3e-05,-4e-05,-4e-05,0.00027,0.0002,1e-05,-0.00013,2,31
4881,-0.00016,3e-05,-4e-05,-4e-05,0.00027,0.0002,1e-05,-0.00013,2,31
4882,-0.00016,3e-05,-4e-05,-4e-05,0.00027,0.0002,1e-05,-0.00013,2,31
4883,-0.00016,3e-05,-4e-05,-4e-05,0.00027,0.0002,1e-05,-0.00013,2,31
4884,-0.00016,3e-05,-4e-05,-4e-05,0.00027,0.0002,1e-05,-0.00013,2,31
4885,-0.00016,3e-05,-4e-05,-4e-05,0.00027,0.0002,1e-05,-0.00013,2,31
4886,-0.00016,3e-05,-4e-05,-4e-05,0.00027,0.0002,1e-05,-0.00013,2,31
4888,-0.00074,-0.00018,1e-05,0.0004,0.00018,0.0001,2e-05,-0.00085,2,31
4889,0.00053,0.00014,-1e-05,-0.0004,-0.00039,0.00019,9e-05,0.0002,2,31
4890,0.00031,6e-05,0,-0.0001,8e-05,0.0001,-9e-05,0.00046,2,31
4891,0.00031,6e-05,0,-0.0001,8e-05,0.0001,-9e-05,0.00046,2,31
4892,0.00031,6e-05,0,-0.0001,8e-05,0.0001,-9e-05,0.00046,2,31
4893,0.00031,6e-05,0,-0.0001,8e-05,0.0001,-9e-05,0.00046,2,31
4894,0.00031,6e-05,0,-0.0001,8e-05,0.0001,-9e-05,0.00046,2,31
4895,0.00031,6e-05,0,-0.0001,8e-05,0.0001,-9e-05,0.00046,2,31
4896,0.00031,6e-05,0,-0.0001,8e-05,0.0001,-9e-05,0.00046,2,31
4897,0.00031,6e-05,0,-0.0001,8e-05,0.0001,-9e-05,0.00046,2,31
4898,0.00031,6e-05,0,-0.0001,8e-05,0.0001,-9e-05,0.00046,2,31
4899,0.00031,6e-05,0,-0.0001,8e-05,0.0001,-9e-05,0.00046,2,31
4900,0.00031,6e-05,0,-0.0001,8e-05,0.0001,-9e-05,0.00046,2,31
4901,0.00031,6e-05,0,-0.0001,8e-05,0.0001,-9e-05,0.00046,2,31
4902,0.00031,6e-05,0,-0.0001,8e-05,0.0001,-9e-05,0.00046,2,31
4903,0.00031,6e-05,0,-0.0001,8e-05,0.0001,-9e-05,0.00046,2,31
4904,0.00031,6e-05,0,-0.0001,8e-05,0.0001,-9e-05,0.00046,2,31
4905,0.00031,6e-05,0,-0.0001,8e-05,0.0001,-9e-05,0.00046,2,31
4906,0.00031,6e-05,0,-0.0001,8e-05,0.0001,-9e-05,0.00046,2,31
4907,0.00031,6e-05,0,-0.0001,8e-05,0.0001,-9e-05,0.00046,2,31
4908,0.00031,6e-05,0,-0.0001,8e-05,0.0001,-9e-05,0.00046,2,31
4909,0.00031,6e-05,0,-0.0001,8e-05,0.0001,-9e-05,0.00046,2,31
4910,0.00033,1e-05,-5e-05,2e-05,3e-05,9e-05,-7e-05,0.00011,2,31
4911,-0.00038,0,5e-05,-9e-05,1e-05,1e-05,3e-05,-0.00017,2,31
4912,-0.00038,0,5e-05,-9e-05,1e-05,1e-05,3e-05,-0.00017,2,31
4913,0.0001,-7e-05,-7e-05,0,-0.00015,-3e-05,-3e-05,-0.00012,2,31
4914,0.0001,-7e-05,-7e-05,0,-0.00015,-3e-05,-3e-05,-0.00012,2,31
4915,0.0001,-7e-05,-7e-05,0,-0.00015,-3e-05,-3e-05,-0.00012,2,31
4916,0.0001,-7e-05,-7e-05,0,-0.00015,-3e-05,-3e-05,-0.00012,2,31
4917,0.0001,-7e-05,-7e-05,0,-0.00015,-3e-05,-3e-05,-0.00012,2,31
4918,0.0001,-7e-05,-7e-05,0,-0.00015,-3e-05,-3e-05,-0.00012,2,31
4919,0.0001,-7e-05,-7e-05,0,-0.00015,-3e-05,-3e-05,-0.00012,2,31
4920,0.0001,-7e-05,-7e-05,0,-0.00015,-3e-05,-3e-05,-0.00012,2,31
4921,0.0001,-7e-05,-7e-05,0,-0.00015,-3e-05,-3e-05,-0.00012,2,31
4922,0.0001,-7e-05,-7e-05,0,-0.00015,-3e-05,-3e-05,-0.00012,2,31
4923,0.0001,-7e-05,-7e-05,0,-0.00015,-3e-05,-3e-05,-0.00012,2,31
4924,0.0001,-7e-05,-7e-05,0,-0.00015,-3e-05,-3e-05,-0.00012,2,31
4925,-0.00026,-5e-05,2e-05,-0.00031,-0.00016,-1e-05,-0.0001,-6e-05,2,31
4926,-0.0003,-7e-05,0.00011,-3e-05,-0.00014,0.0001,-0.00012,-0.00059,2,31
4927,0.0005,7e-05,0,8e-05,0.00018,2e-05,0.00018,0.00084,2,31
4928,0.0005,7e-05,0,8e-05,0.00018,2e-05,0.00018,0.00084,2,31
4929,0.0005,7e-05,0,8e-05,0.00018,2e-05,0.00018,0.00084,2,31
4930,0.0005,7e-05,0,8e-05,0.00018,2e-05,0.00018,0.00084,2,31
4931,0.0005,7e-05,0,8e-05,0.00018,2e-05,0.00018,0.00084,2,31
4932,0.0005,7e-05,0,8e-05,0.00018,2e-05,0.00018,0.00084,2,31
4933,0.0005,7e-05,0,8e-05,0.00018,2e-05,0.00018,0.00084,2,31
4934,0.0005,7e-05,0,8e-05,0.00018,2e-05,0.00018,0.00084,2,31
4935,0.0005,7e-05,0,8e-05,0.00018,2e-05,0.00018,0.00084,2,31
4936,0.0005,7e-05,0,8e-05,0.00018,2e-05,0.00018,0.00084,2,31
4938,0.0005,7e-05,0,8e-05,0.00018,2e-05,0.00018,0.00084,2,31
4939,0.0005,7e-05,0,8e-05,0.00018,2e-05,0.00018,0.00084,2,31
4940,0.0005,7e-05,0,8e-05,0.00018,2e-05,0.00018,0.00084,2,31
4941,0.0005,7e-05,0,8e-05,0.00018,2e-05,0.00018,0.00084,2,31
4942,0.0005,7e-05,0,8e-05,0.00018,2e-05,0.00018,0.00084,2,31
4943,0.0005,7e-05,0,8e-05,0.00018,2e-05,0.00018,0.00084,2,31
4944,0.0005,7e-05,0,8e-05,0.00018,2e-05,0.00018,0.00084,2,31
4945,0.0005,7e-05,0,8e-05,0.00018,2e-05,0.00018,0.00084,2,31
4946,0.0005,7e-05,0,8e-05,0.00018,2e-05,0.00018,0.00084,2,31
4947,0.0005,7e-05,0,8e-05,0.00018,2e-05,0.00018,0.00084,2,31
4948,-6e-05,-9e-05,3e-05,0.0003,0.00019,-0.00028,-0.00026,0.00031,2,31
4949,-6e-05,-9e-05,3e-05,0.0003,0.00019,-0.00028,-0.00026,0.00031,2,31
4950,-5e-05,5e-05,0.00014,0.00026,0.00011,0.0001,4e-05,-0.00016,2,31
4951,-5e-05,5e-05,0.00014,0.00026,0.00011,0.0001,4e-05,-0.00016,2,31
4952,-5e-05,5e-05,0.00014,0.00026,0.00011,0.0001,4e-05,-0.00016,2,31
4953,-5e-05,5e-05,0.00014,0.00026,0.00011,0.0001,4e-05,-0.00016,2,31
4954,-5e-05,5e-05,0.00014,0.00026,0.00011,0.0001,4e-05,-0.00016,2,31
4955,-5e-05,5e-05,0.00014,0.00026,0.00011,0.0001,4e-05,-0.00016,2,31
4956,-5e-05,5e-05,0.00014,0.00026,0.00011,0.0001,4e-05,-0.00016,2,31
4957,-5e-05,5e-05,0.00014,0.00026,0.00011,0.0001,4e-05,-0.00016,2,31
4958,-5e-05,5e-05,0.00014,0.00026,0.00011,0.0001,4e-05,-0.00016,2,31
4959,-5e-05,5e-05,0.00014,0.00026,0.00011,0.0001,4e-05,-0.00016,2,31
4960,-5e-05,5e-05,0.00014,0.00026,0.00011,0.0001,4e-05,-0.00016,2,31
4961,-5e-05,5e-05,0.00014,0.00026,0.00011,0.0001,4e-05,-0.00016,2,31
4962,-5e-05,5e-05,0.00014,0.00026,0.00011,0.0001,4e-05,-0.00016,2,31
4963,0.00013,6e-05,4e-05,0.00014,0.00011,0.00013,0.00014,-6e-05,2,31
4964,0.00013,6e-05,4e-05,0.00014,0.00011,0.00013,0.00014,-6e-05,2,31
4965,-0.00012,5e-05,0.0001,0.00033,0.00034,0.00011,0.0002,-0.00038,2,31
4966,-0.00012,5e-05,0.0001,0.00033,0.00034,0.00011,0.0002,-0.00038,2,31
4967,-0.00012,5e-05,0.0001,0.00033,0.00034,0.00011,0.0002,-0.00038,2,31
4968,-0.00012,5e-05,0.0001,0.00033,0.00034,0.00011,0.0002,-0.00038,2,31
4969,-0.00012,5e-05,0.0001,0.00033,0.00034,0.00011,0.0002,-0.00038,2,31
4970,-0.00012,5e-05,0.0001,0.00033,0.00034,0.00011,0.0002,-0.00038,2,31
4971,-0.00012,5e-05,0.0001,0.00033,0.00034,0.00011,0.0002,-0.00038,2,31
4972,-0.00012,5e-05,0.0001,0.00033,0.00034,0.00011,0.0002,-0.00038,2,31
4973,-0.00012,5e-05,0.0001,0.00033,0.00034,0.00011,0.0002,-0.00038,2,31
4974,-0.00012,5e-05,0.0001,0.00033,0.00034,0.00011,0.0002,-0.00038,2,31
4975,-0.00012,5e-05,0.0001,0.00033,0.00034,0.00011,0.0002,-0.00038,2,31
4976,-0.00012,5e-05,0.0001,0.00033,0.00034,0.00011,0.0002,-0.00038,2,31
4977,-0.00012,5e-05,0.0001,0.00033,0.00034,0.00011,0.0002,-0.00038,2,31
4978,-0.00012,5e-05,0.0001,0.00033,0.00034,0.00011,0.0002,-0.00038,2,31
4979,-0.00012,5e-05,0.0001,0.00033,0.00034,0.00011,0.0002,-0.00038,2,31
4980,-0.00012,5e-05,0.0001,0.00033,0.00034,0.00011,0.0002,-0.00038,2,31
4981,-0.00012,5e-05,0.0001,0.00033,0.00034,0.00011,0.0002,-0.00038,2,31
4982,-0.00012,5e-05,0.0001,0.00033,0.00034,0.00011,0.0002,-0.00038,2,31
4983,-0.00012,5e-05,0.0001,0.00033,0.00034,0.00011,0.0002,-0.00038,2,31
4984,-0.00012,5e-05,0.0001,0.00033,0.00034,0.00011,0.0002,-0.00038,2,31
4985,-0.00054,-4e-05,7e-05,0.00044,0.00044,-0.00012,8e-05,-0.00057,2,31
4986,-0.00054,-4e-05,7e-05,0.00044,0.00044,-0.00012,8e-05,-0.00057,2,31
4988,-0.00054,-4e-05,7e-05,0.00044,0.00044,-0.00012,8e-05,-0.00057,2,31
4989,-0.00054,-4e-05,7e-05,0.00044,0.00044,-0.00012,8e-05,-0.00057,2,31
4990,-0.00054,-4e-05,7e-05,0.00044,0.00044,-0.00012,8e-05,-0.00057,2,31
4991,-0.00054,-4e-05,7e-05,0.00044,0.00044,-0.00012,8e-05,-0.00057,2,31
4992,-0.00054,-4e-05,7e-05,0.00044,0.00044,-0.00012,8e-05,-0.00057,2,31
4993,-0.00054,-4e-05,7e-05,0.00044,0.00044,-0.00012,8e-05,-0.00057,2,31
4994,-0.00054,-4e-05,7e-05,0.00044,0.00044,-0.00012,8e-05,-0.00057,2,31
4995,-0.00054,-4e-05,7e-05,0.00044,0.00044,-0.00012,8e-05,-0.00057,2,31
4996,-0.00054,-4e-05,7e-05,0.00044,0.00044,-0.00012,8e-05,-0.00057,2,31
4997,-0.00054,-4e-05,7e-05,0.00044,0.00044,-0.00012,8e-05,-0.00057,2,31
4998,-0.00054,-4e-05,7e-05,0.00044,0.00044,-0.00012,8e-05,-0.00057,2,31
4999,-0.00054,-4e-05,7e-05,0.00044,0.00044,-0.00012,8e-05,-0.00057,2,31
5000,-0.00023,-7e-05,-4e-05,-0.00031,-0.00031,-0.00018,1e-05,-0.00021,2,31
5001,-0.00023,-7e-05,-4e-05,-0.00031,-0.00031,-0.00018,1e-05,-0.00021,2,31
5002,-0.00023,-7e-05,-4e-05,-0.00031,-0.00031,-0.00018,1e-05,-0.00021,2,31
5003,-0.00023,-7e-05,-4e-05,-0.00031,-0.00031,-0.00018,1e-05,-0.00021,2,31
5004,-0.00023,-7e-05,-4e-05,-0.00031,-0.00031,-0.00018,1e-05,-0.00021,2,31
5005,-0.00023,-7e-05,-4e-05,-0.00031,-0.00031,-0.00018,1e-05,-0.00021,2,31
5006,-0.00023,-7e-05,-4e-05,-0.00031,-0.00031,-0.00018,1e-05,-0.00021,2,31
5007,-0.00023,-7e-05,-4e-05,-0.00031,-0.00031,-0.00018,1e-05,-0.00021,2,31
5008,-0.00023,-7e-05,-4e-05,-0.00031,-0.00031,-0.00018,1e-05,-0.00021,2,31
5009,-0.00023,-7e-05,-4e-05,-0.00031,-0.00031,-0.00018,1e-05,-0.00021,2,31
5010,-0.00023,-7e-05,-4e-05,-0.00031,-0.00031,-0.00018,1e-05,-0.00021,2,31
5011,-0.00023,-7e-05,-4e-05,-0.00031,-0.00031,-0.00018,1e-05,-0.00021,2,31
5012,-0.00023,-7e-05,-4e-05,-0.00031,-0.00031,-0.00018,1e-05,-0.00021,2,31
5013,-0.00023,-7e-05,-4e-05,-0.00031,-0.00031,-0.00018,1e-05,-0.00021,2,31
5014,-0.00023,-7e-05,-4e-05,-0.00031,-0.00031,-0.00018,1e-05,-0.00021,2,31
5015,-0.00023,-7e-05,-4e-05,-0.00031,-0.00031,-0.00018,1e-05,-0.00021,2,31
5016,-0.00013,-9e-05,-0.00014,-0.00014,0.00011,-2e-05,9e-05,-9e-05,2,31
5017,-0.00017,-1e-05,-0.00011,-0.00024,-2e-05,9e-05,-0.00018,-0.0003,2,31
5018,-0.00017,-1e-05,-0.00011,-0.00024,-2e-05,9e-05,-0.00018,-0.0003,2,31
5019,-0.00017,-1e-05,-0.00011,-0.00024,-2e-05,9e-05,-0.00018,-0.0003,2,31
5020,-0.00017,-1e-05,-0.00011,-0.00024,-2e-05,9e-05,-0.00018,-0.0003,2,31
5021,-0.00017,-1e-05,-0.00011,-0.00024,-2e-05,9e-05,-0.00018,-0.0003,2,31
5022,-0.00017,-1e-05,-0.00011,-0.00024,-2e-05,9e-05,-0.00018,-0.0003,2,31
5023,0.00026,7e-05,0.0001,6e-05,0.00017,-0.00012,-0.00016,0.00033,2,31
5024,-0.00041,-3e-05,4e-05,9e-05,0.00016,-0.00029,-6e-05,-0.00048,2,31
5025,0.00028,-7e-05,-4e-05,-0.00021,-0.00022,0.00027,3e-05,0.00056,2,31
5026,0.00028,-7e-05,-4e-05,-0.00021,-0.00022,0.00027,3e-05,0.00056,2,31
5027,0.00028,-7e-05,-4e-05,-0.00021,-0.00022,0.00027,3e-05,0.00056,2,31
5028,0.00028,-7e-05,-4e-05,-0.00021,-0.00022,0.00027,3e-05,0.00056,2,31
5029,0.00028,-7e-05,-4e-05,-0.00021,-0.00022,0.00027,3e-05,0.00056,2,31
5030,0.00028,-7e-05,-4e-05,-0.00021,-0.00022,0.00027,3e-05,0.00056,2,31
5031,0.00028,-7e-05,-4e-05,-0.00021,-0.00022,0.00027,3e-05,0.00056,2,31
5033,0.00028,-7e-05,-4e-05,-0.00021,-0.00022,0.00027,3e-05,0.00056,2,31
5034,0.00028,-7e-05,-4e-05,-0.00021,-0.00022,0.00027,3e-05,0.00056,2,31
5035,0.00028,-7e-05,-4e-05,-0.00021,-0.00022,0.00027,3e-05,0.00056,2,31
5036,0.00028,-7e-05,-4e-05,-0.00021,-0.00022,0.00027,3e-05,0.00056,2,31
5038,0.00028,-7e-05,-4e-05,-0.00021,-0.00022,0.00027,3e-05,0.00056,2,31
5039,0.00028,-7e-05,-4e-05,-0.00021,-0.00022,0.00027,3e-05,0.00056,2,31
5040,0.00028,-7e-05,-4e-05,-0.00021,-0.00022,0.00027,3e-05,0.00056,2,31
5041,0.00028,-7e-05,-4e-05,-0.00021,-0.00022,0.00027,3e-05,0.00056,2,31
5042,0.00028,-7e-05,-4e-05,-0.00021,-0.00022,0.00027,3e-05,0.00056,2,31
5043,0.00028,-7e-05,-4e-05,-0.00021,-0.00022,0.00027,3e-05,0.00056,2,31
5044,0.00028,-7e-05,-4e-05,-0.00021,-0.00022,0.00027,3e-05,0.00056,2,31
5045,0.00028,-7e-05,-4e-05,-0.00021,-0.00022,0.00027,3e-05,0.00056,2,31
5046,0.00028,-7e-05,-4e-05,-0.00021,-0.00022,0.00027,3e-05,0.00056,2,31
5047,-5e-05,8e-05,0.00012,0.00012,-0.00028,-4e-05,6e-05,-0.00042,2,31
5048,-5e-05,8e-05,0.00012,0.00012,-0.00028,-4e-05,6e-05,-0.00042,2,31
5049,-5e-05,8e-05,0.00012,0.00012,-0.00028,-4e-05,6e-05,-0.00042,2,31
5050,-5e-05,8e-05,0.00012,0.00012,-0.00028,-4e-05,6e-05,-0.00042,2,31
5051,-5e-05,8e-05,0.00012,0.00012,-0.00028,-4e-05,6e-05,-0.00042,2,31
5052,-5e-05,8e-05,0.00012,0.00012,-0.00028,-4e-05,6e-05,-0.00042,2,31
5053,-5e-05,8e-05,0.00012,0.00012,-0.00028,-4e-05,6e-05,-0.00042,2,31
5054,-5e-05,8e-05,0.00012,0.00012,-0.00028,-4e-05,6e-05,-0.00042,2,31
5055,-5e-05,8e-05,0.00012,0.00012,-0.00028,-4e-05,6e-05,-0.00042,2,31
5056,-5e-05,8e-05,0.00012,0.00012,-0.00028,-4e-05,6e-05,-0.00042,2,31
5057,-5e-05,8e-05,0.00012,0.00012,-0.00028,-4e-05,6e-05,-0.00042,2,31
5058,-5e-05,8e-05,0.00012,0.00012,-0.00028,-4e-05,6e-05,-0.00042,2,31
5059,0.0004,3e-05,3e-05,0.00036,-0.00013,-0.00024,-0.0001,0.00017,2,31
5060,0.0004,3e-05,3e-05,0.00036,-0.00013,-0.00024,-0.0001,0.00017,2,31
5061,0.0004,3e-05,3e-05,0.00036,-0.00013,-0.00024,-0.0001,0.00017,2,31
5062,0.0004,3e-05,3e-05,0.00036,-0.00013,-0.00024,-0.0001,0.00017,2,31
5063,0.0004,3e-05,3e-05,0.00036,-0.00013,-0.00024,-0.0001,0.00017,2,31
5064,0.0004,3e-05,3e-05,0.00036,-0.00013,-0.00024,-0.0001,0.00017,2,31
5065,0.0004,3e-05,3e-05,0.00036,-0.00013,-0.00024,-0.0001,0.00017,2,31
5066,0.0004,3e-05,3e-05,0.00036,-0.00013,-0.00024,-0.0001,0.00017,2,31
5067,0.0004,3e-05,3e-05,0.00036,-0.00013,-0.00024,-0.0001,0.00017,2,31
5068,0.0004,3e-05,3e-05,0.00036,-0.00013,-0.00024,-0.0001,0.00017,2,31
5069,0.0004,3e-05,3e-05,0.00036,-0.00013,-0.00024,-0.0001,0.00017,2,31
5070,0.0004,3e-05,3e-05,0.00036,-0.00013,-0.00024,-0.0001,0.00017,2,31
5071,0.0004,3e-05,3e-05,0.00036,-0.00013,-0.00024,-0.0001,0.00017,2,31
5072,0.0004,3e-05,3e-05,0.00036,-0.00013,-0.00024,-0.0001,0.00017,2,31
5073,0.0004,3e-05,3e-05,0.00036,-0.00013,-0.00024,-0.0001,0.00017,2,31
5074,0.0004,3e-05,3e-05,0.00036,-0.00013,-0.00024,-0.0001,0.00017,2,31
5075,0.0004,3e-05,3e-05,0.00036,-0.00013,-0.00024,-0.0001,0.00017,2,31
5076,0.0004,3e-05,3e-05,0.00036,-0.00013,-0.00024,-0.0001,0.00017,2,31
5077,0.0004,3e-05,3e-05,0.00036,-0.00013,-0.00024,-0.0001,0.00017,2,31
5078,0.0004,3e-05,3e-05,0.00036,-0.00013,-0.00024,-0.0001,0.00017,2,31
5079,0.0004,3e-05,3e-05,0.00036,-0.00013,-0.00024,-0.0001,0.00017,2,31
5080,0.0004,3e-05,3e-05,0.00036,-0.00013,-0.00024,-0.0001,0.00017,2,31
5081,0.0004,3e-05,3e-05,0.00036,-0.00013,-0.00024,-0.0001,0.00017,2,31
5082,0.0004,3e-05,3e-05,0.00036,-0.00013,-0.00024,-0.0001,0.00017,2,31
5083,0.0004,3e-05,3e-05,0.00036,-0.00013,-0.00024,-0.0001,0.00017,2,31
5084,0.00026,4e-05,-4e-05,-0.00024,1e-05,0.0001,-4e-05,0.00031,2,31
5085,0.00026,4e-05,-4e-05,-0.00024,1e-05,0.0001,-4e-05,0.00031,2,31
5086,-0.00015,1e-05,9e-05,-7e-05,-0.00043,6e-05,-0.0002,-0.0002,2,31
5088,0.00041,6e-05,5e-05,0.00038,0.00045,0.00033,0.0002,0.00046,2,31
5090,0.00041,6e-05,5e-05,0.00038,0.00045,0.00033,0.0002,0.00046,2,31
5091,0.00041,6e-05,5e-05,0.00038,0.00045,0.00033,0.0002,0.00046,2,31
5092,0.00041,6e-05,5e-05,0.00038,0.00045,0.00033,0.0002,0.00046,2,31
5093,0.00041,6e-05,5e-05,0.00038,0.00045,0.00033,0.0002,0.00046,2,31
5094,0.00041,6e-05,5e-05,0.00038,0.00045,0.00033,0.0002,0.00046,2,31
5095,0.00041,6e-05,5e-05,0.00038,0.00045,0.00033,0.0002,0.00046,2,31
5096,0.00041,6e-05,5e-05,0.00038,0.00045,0.00033,0.0002,0.00046,2,31
5097,0.00041,6e-05,5e-05,0.00038,0.00045,0.00033,0.0002,0.00046,2,31
5098,0.00041,6e-05,5e-05,0.00038,0.00045,0.00033,0.0002,0.00046,2,31
5099,0.00041,6e-05,5e-05,0.00038,0.00045,0.00033,0.0002,0.00046,2,31
5100,0.00041,6e-05,5e-05,0.00038,0.00045,0.00033,0.0002,0.00046,2,31
5101,0.00041,6e-05,5e-05,0.00038,0.00045,0.00033,0.0002,0.00046,2,31
5102,0.00041,6e-05,5e-05,0.00038,0.00045,0.00033,0.0002,0.00046,2,31
5103,0.00041,6e-05,5e-05,0.00038,0.00045,0.00033,0.0002,0.00046,2,31
5104,0.00041,6e-05,5e-05,0.00038,0.00045,0.00033,0.0002,0.00046,2,31
5105,0.00041,6e-05,5e-05,0.00038,0.00045,0.00033,0.0002,0.00046,2,31
5106,0.00041,6e-05,5e-05,0.00038,0.00045,0.00033,0.0002,0.00046,2,31
5107,0.00041,6e-05,5e-05,0.00038,0.00045,0.00033,0.0002,0.00046,2,31
5108,0.00024,4e-05,6e-05,0.00026,0.0003,-0.00029,-0.00017,0.00023,2,31
5109,-0.00023,-9e-05,-0.00014,-0.00031,-0.00037,-0.00012,-7e-05,-6e-05,2,31
5110,-0.00023,-9e-05,-0.00014,-0.00031,-0.00037,-0.00012,-7e-05,-6e-05,2,31
5111,-0.00023,-9e-05,-0.00014,-0.00031,-0.00037,-0.00012,-7e-05,-6e-05,2,31
5112,-0.00023,-9e-05,-0.00014,-0.00031,-0.00037,-0.00012,-7e-05,-6e-05,2,31
5113,-0.00023,-9e-05,-0.00014,-0.00031,-0.00037,-0.00012,-7e-05,-6e-05,2,31
5114,-0.00023,-9e-05,-0.00014,-0.00031,-0.00037,-0.00012,-7e-05,-6e-05,2,31
5115,-0.00023,-9e-05,-0.00014,-0.00031,-0.00037,-0.00012,-7e-05,-6e-05,2,31
5116,-0.00023,-9e-05,-0.00014,-0.00031,-0.00037,-0.00012,-7e-05,-6e-05,2,31
5117,-0.00023,-9e-05,-0.00014,-0.00031,-0.00037,-0.00012,-7e-05,-6e-05,2,31
5118,-0.00023,-9e-05,-0.00014,-0.00031,-0.00037,-0.00012,-7e-05,-6e-05,2,31
5119,-0.00042,1e-05,9e-05,0.00027,-3e-05,0.00035,0.00011,-0.00044,2,31
5120,-0.00042,1e-05,9e-05,0.00027,-3e-05,0.00035,0.00011,-0.00044,2,31
5121,-0.00042,1e-05,9e-05,0.00027,-3e-05,0.00035,0.00011,-0.00044,2,31
5122,-0.00042,1e-05,9e-05,0.00027,-3e-05,0.00035,0.00011,-0.00044,2,31
5123,-0.00042,1e-05,9e-05,0.00027,-3e-05,0.00035,0.00011,-0.00044,2,31
5124,-0.00042,1e-05,9e-05,0.00027,-3e-05,0.00035,0.00011,-0.00044,2,31
5125,-0.00042,1e-05,9e-05,0.00027,-3e-05,0.00035,0.00011,-0.00044,2,31
5126,-0.00042,1e-05,9e-05,0.00027,-3e-05,0.00035,0.00011,-0.00044,2,31
5127,-0.00042,1e-05,9e-05,0.00027,-3e-05,0.00035,0.00011,-0.00044,2,31
5128,-0.00062,-5e-05,-0.00012,-0.00058,-0.0004,-0.0002,-4e-05,-0.00088,2,31
5129,-0.00062,-5e-05,-0.00012,-0.00058,-0.0004,-0.0002,-4e-05,-0.00088,2,31
5130,0.00012,7e-05,0,0.00024,0.00024,4e-05,0.00022,-0.00034,2,31
5131,0.00012,7e-05,0,0.00024,0.00024,4e-05,0.00022,-0.00034,2,31
5132,0.00012,7e-05,0,0.00024,0.00024,4e-05,0.00022,-0.00034,2,31
5133,0.00012,7e-05,0,0.00024,0.00024,4e-05,0.00022,-0.00034,2,31
5134,0.00012,7e-05,0,0.00024,0.00024,4e-05,0.00022,-0.00034,2,31
5135,0.00012,7e-05,0,0.00024,0.00024,4e-05,0.00022,-0.00034,2,31
5136,0.00012,7e-05,0,0.00024,0.00024,4e-05,0.00022,-0.00034,2,31
5138,0.00012,7e-05,0,0.00024,0.00024,4e-05,0.00022,-0.00034,2,31
5139,0.00012,7e-05,0,0.00024,0.00024,4e-05,0.00022,-0.00034,2,31
5140,0.00012,7e-05,0,0.00024,0.00024,4e-05,0.00022,-0.00034,2,31
5141,0.00012,7e-05,0,0.00024,0.00024,4e-05,0.00022,-0.00034,2,31
5142,0.00012,7e-05,0,0.00024,0.00024,4e-05,0.00022,-0.00034,2,31
5143,-3e-05,-1e-05,-5e-05,-4e-05,-6e-05,-0.00027,-0.00021,-5e-05,2,31
5144,-3e-05,-1e-05,-5e-05,-4e-05,-6e-05,-0.00027,-0.00021,-5e-05,2,31
5145,-3e-05,-1e-05,-5e-05,-4e-05,-6e-05,-0.00027,-0.00021,-5e-05,2,31
5146,-3e-05,-1e-05,-5e-05,-4e-05,-6e-05,-0.00027,-0.00021,-5e-05,2,31
5147,-3e-05,-1e-05,-5e-05,-4e-05,-6e-05,-0.00027,-0.00021,-5e-05,2,31
5148,-3e-05,-1e-05,-5e-05,-4e-05,-6e-05,-0.00027,-0.00021,-5e-05,2,31
5149,-3e-05,-1e-05,-5e-05,-4e-05,-6e-05,-0.00027,-0.00021,-5e-05,2,31
5150,-3e-05,-1e-05,-5e-05,-4e-05,-6e-05,-0.00027,-0.00021,-5e-05,2,31
5151,0.00031,0.00012,0.00013,-0.00023,-0.00014,0.00011,3e-05,0.00064,2,31
5152,0.00031,0.00012,0.00013,-0.00023,-0.00014,0.00011,3e-05,0.00064,2,31
5153,0.00031,0.00012,0.00013,-0.00023,-0.00014,0.00011,3e-05,0.00064,2,31
5155,0.00031,0.00012,0.00013,-0.00023,-0.00014,0.00011,3e-05,0.00064,2,31
5156,0.00031,0.00012,0.00013,-0.00023,-0.00014,0.00011,3e-05,0.00064,2,31
5157,0.00031,0.00012,0.00013,-0.00023,-0.00014,0.00011,3e-05,0.00064,2,31
5158,0.00031,0.00012,0.00013,-0.00023,-0.00014,0.00011,3e-05,0.00064,2,31
5159,0.00031,0.00012,0.00013,-0.00023,-0.00014,0.00011,3e-05,0.00064,2,31
5160,0.00031,0.00012,0.00013,-0.00023,-0.00014,0.00011,3e-05,0.00064,2,31
5161,0.00031,0.00012,0.00013,-0.00023,-0.00014,0.00011,3e-05,0.00064,2,31
5162,0.00031,0.00012,0.00013,-0.00023,-0.00014,0.00011,3e-05,0.00064,2,31
5163,0.00031,0.00012,0.00013,-0.00023,-0.00014,0.00011,3e-05,0.00064,2,31
5164,0.00031,0.00012,0.00013,-0.00023,-0.00014,0.00011,3e-05,0.00064,2,31
5165,0.00031,0.00012,0.00013,-0.00023,-0.00014,0.00011,3e-05,0.00064,2,31
5166,7e-05,1e-05,1e-05,0.00022,-3e-05,0.00016,0.0003,0.00024,2,31
5167,9e-05,2e-05,-1e-05,0,-0.0001,1e-05,-1e-05,3e-05,2,31
5168,-2e-05,-0.00013,-9e-05,-0.00021,-2e-05,-0.00024,-0.00013,-0.00016,2,31
5169,-2e-05,-0.00013,-9e-05,-0.00021,-2e-05,-0.00024,-0.00013,-0.00016,2,31
5170,-2e-05,-0.00013,-9e-05,-0.00021,-2e-05,-0.00024,-0.00013,-0.00016,2,31
5171,-2e-05,-0.00013,-9e-05,-0.00021,-2e-05,-0.00024,-0.00013,-0.00016,2,31
5172,-2e-05,-0.00013,-9e-05,-0.00021,-2e-05,-0.00024,-0.00013,-0.00016,2,31
5173,-2e-05,-0.00013,-9e-05,-0.00021,-2e-05,-0.00024,-0.00013,-0.00016,2,31
5174,-2e-05,-0.00013,-9e-05,-0.00021,-2e-05,-0.00024,-0.00013,-0.00016,2,31
5175,-2e-05,-0.00013,-9e-05,-0.00021,-2e-05,-0.00024,-0.00013,-0.00016,2,31
5176,-2e-05,-0.00013,-9e-05,-0.00021,-2e-05,-0.00024,-0.00013,-0.00016,2,31
5177,-2e-05,-0.00013,-9e-05,-0.00021,-2e-05,-0.00024,-0.00013,-0.00016,2,31
5178,-2e-05,-0.00013,-9e-05,-0.00021,-2e-05,-0.00024,-0.00013,-0.00016,2,31
5179,-2e-05,-0.00013,-9e-05,-0.00021,-2e-05,-0.00024,-0.00013,-0.00016,2,31
5180,-2e-05,-0.00013,-9e-05,-0.00021,-2e-05,-0.00024,-0.00013,-0.00016,2,31
5181,-2e-05,-0.00013,-9e-05,-0.00021,-2e-05,-0.00024,-0.00013,-0.00016,2,31
5182,-2e-05,-0.00013,-9e-05,-0.00021,-2e-05,-0.00024,-0.00013,-0.00016,2,31
5183,-2e-05,-0.00013,-9e-05,-0.00021,-2e-05,-0.00024,-0.00013,-0.00016,2,31
5184,-2e-05,-0.00013,-9e-05,-0.00021,-2e-05,-0.00024,-0.00013,-0.00016,2,31
5185,-2e-05,-0.00013,-9e-05,-0.00021,-2e-05,-0.00024,-0.00013,-0.00016,2,31
5186,-2e-05,-0.00013,-9e-05,-0.00021,-2e-05,-0.00024,-0.00013,-0.00016,2,31
5188,-2e-05,-0.00013,-9e-05,-0.00021,-2e-05,-0.00024,-0.00013,-0.00016,2,31
5189,0.00027,8e-05,0.0001,6e-05,-0.00011,0.0003,0.00016,0.00079,2,31
5190,0.00027,8e-05,0.0001,6e-05,-0.00011,0.0003,0.00016,0.00079,2,31
5191,0.00027,8e-05,0.0001,6e-05,-0.00011,0.0003,0.00016,0.00079,2,31
5192,0.00027,8e-05,0.0001,6e-05,-0.00011,0.0003,0.00016,0.00079,2,31
5193,0.00027,8e-05,0.0001,6e-05,-0.00011,0.0003,0.00016,0.00079,2,31
5194,0.00027,8e-05,0.0001,6e-05,-0.00011,0.0003,0.00016,0.00079,2,31
5195,0.00027,8e-05,0.0001,6e-05,-0.00011,0.0003,0.00016,0.00079,2,31
5196,0.00027,8e-05,0.0001,6e-05,-0.00011,0.0003,0.00016,0.00079,2,31
5197,0.00027,8e-05,0.0001,6e-05,-0.00011,0.0003,0.00016,0.00079,2,31
5198,0.00027,8e-05,0.0001,6e-05,-0.00011,0.0003,0.00016,0.00079,2,31
5199,0.00027,8e-05,0.0001,6e-05,-0.00011,0.0003,0.00016,0.00079,2,31
5200,0.00027,8e-05,0.0001,6e-05,-0.00011,0.0003,0.00016,0.00079,2,31
5201,0.00027,8e-05,0.0001,6e-05,-0.00011,0.0003,0.00016,0.00079,2,31
5202,0.00027,8e-05,0.0001,6e-05,-0.00011,0.0003,0.00016,0.00079,2,31
5203,0.00027,8e-05,0.0001,6e-05,-0.00011,0.0003,0.00016,0.00079,2,31
5204,-2e-05,-0.0001,-0.00014,-0.00032,-0.00034,0.00017,0.00017,8e-05,2,31
5205,6e-05,2e-05,1e-05,-0.00035,-0.00014,-0.00018,0.00011,-0.00021,2,31
5206,6e-05,2e-05,1e-05,-0.00035,-0.00014,-0.00018,0.00011,-0.00021,2,31
5207,6e-05,2e-05,1e-05,-0.00035,-0.00014,-0.00018,0.00011,-0.00021,2,31
5208,6e-05,2e-05,1e-05,-0.00035,-0.00014,-0.00018,0.00011,-0.00021,2,31
5209,-0.00017,-0.00011,-0.0001,0.0002,0.00026,8e-05,-2e-05,0.00013,2,31
5210,-0.00017,-0.00011,-0.0001,0.0002,0.00026,8e-05,-2e-05,0.00013,2,31
5211,-0.00017,-0.00011,-0.0001,0.0002,0.00026,8e-05,-2e-05,0.00013,2,31
5212,-0.00017,-0.00011,-0.0001,0.0002,0.00026,8e-05,-2e-05,0.00013,2,31
5213,-0.00017,-0.00011,-0.0001,0.0002,0.00026,8e-05,-2e-05,0.00013,2,31
5214,-0.00017,-0.00011,-0.0001,0.0002,0.00026,8e-05,-2e-05,0.00013,2,31
5215,-0.00017,-0.00011,-0.0001,0.0002,0.00026,8e-05,-2e-05,0.00013,2,31
5216,-0.00017,-0.00011,-0.0001,0.0002,0.00026,8e-05,-2e-05,0.00013,2,31
5217,-0.00017,-0.00011,-0.0001,0.0002,0.00026,8e-05,-2e-05,0.00013,2,31
5218,-0.00017,-0.00011,-0.0001,0.0002,0.00026,8e-05,-2e-05,0.00013,2,31
5219,-0.00017,-0.00011,-0.0001,0.0002,0.00026,8e-05,-2e-05,0.00013,2,31
5220,-0.00017,-0.00011,-0.0001,0.0002,0.00026,8e-05,-2e-05,0.00013,2,31
5221,-0.00017,-0.00011,-0.0001,0.0002,0.00026,8e-05,-2e-05,0.00013,2,31
5222,-0.00017,-0.00011,-0.0001,0.0002,0.00026,8e-05,-2e-05,0.00013,2,31
5223,-0.00017,-0.00011,-0.0001,0.0002,0.00026,8e-05,-2e-05,0.00013,2,31
5224,-0.00017,-0.00011,-0.0001,0.0002,0.00026,8e-05,-2e-05,0.00013,2,31
5225,-0.00018,-8e-05,-7e-05,-0.00015,-0.00022,-0.0002,-0.00036,-0.00033,2,31
5226,0.00034,0.00016,-3e-05,-0.00042,-7e-05,0.00016,7e-05,-2e-05,2,31
5227,0.00036,4e-05,-0.00013,-0.0002,0.00011,0.00013,0.00036,0.00063,2,31
5228,0.00036,4e-05,-0.00013,-0.0002,0.00011,0.00013,0.00036,0.00063,2,31
5229,0.00036,4e-05,-0.00013,-0.0002,0.00011,0.00013,0.00036,0.00063,2,31
5230,0.00036,4e-05,-0.00013,-0.0002,0.00011,0.00013,0.00036,0.00063,2,31
5231,0.00036,4e-05,-0.00013,-0.0002,0.00011,0.00013,0.00036,0.00063,2,31
5232,0.00036,4e-05,-0.00013,-0.0002,0.00011,0.00013,0.00036,0.00063,2,31
5233,0.00036,4e-05,-0.00013,-0.0002,0.00011,0.00013,0.00036,0.00063,2,31
5234,0.00036,4e-05,-0.00013,-0.0002,0.00011,0.00013,0.00036,0.00063,2,31
5235,0.00036,4e-05,-0.00013,-0.0002,0.00011,0.00013,0.00036,0.00063,2,31
5236,0.00036,4e-05,-0.00013,-0.0002,0.00011,0.00013,0.00036,0.00063,2,31
5238,0.00036,4e-05,-0.00013,-0.0002,0.00011,0.00013,0.00036,0.00063,2,31
5239,0.00036,4e-05,-0.00013,-0.0002,0.00011,0.00013,0.00036,0.00063,2,31
5240,0.00036,4e-05,-0.00013,-0.0002,0.00011,0.00013,0.00036,0.00063,2,31
5241,0.00036,4e-05,-0.00013,-0.0002,0.00011,0.00013,0.00036,0.00063,2,31
5242,0.00036,4e-05,-0.00013,-0.0002,0.00011,0.00013,0.00036,0.00063,2,31
5243,0.00036,4e-05,-0.00013,-0.0002,0.00011,0.00013,0.00036,0.00063,2,31
5244,0.00036,4e-05,-0.00013,-0.0002,0.00011,0.00013,0.00036,0.00063,2,31
5245,0.00036,4e-05,-0.00013,-0.0002,0.00011,0.00013,0.00036,0.00063,2,31
5246,0.00036,4e-05,-0.00013,-0.0002,0.00011,0.00013,0.00036,0.00063,2,31
5247,0.00036,4e-05,-0.00013,-0.0002,0.00011,0.00013,0.00036,0.00063,2,31
5248,-0.00016,0,1e-05,0.00012,-5e-05,-0.00013,-0.00014,-0.00013,2,31
5249,-0.00026,-4e-05,8e-05,0.00031,0.00046,0.00017,-9e-05,-0.00026,2,31
5250,-0.00026,-4e-05,8e-05,0.00031,0.00046,0.00017,-9e-05,-0.00026,2,31
5251,-0.00026,-4e-05,8e-05,0.00031,0.00046,0.00017,-9e-05,-0.00026,2,31
5252,-0.00026,-4e-05,8e-05,0.00031,0.00046,0.00017,-9e-05,-0.00026,2,31
5253,-0.00026,-4e-05,8e-05,0.00031,0.00046,0.00017,-9e-05,-0.00026,2,31
5254,-0.00034,-3e-05,0.00018,0.00024,-0.00011,2e-05,0.00017,-0.00048,2,31
5255,-0.00034,-3e-05,0.00018,0.00024,-0.00011,2e-05,0.00017,-0.00048,2,31
5256,-0.00034,-3e-05,0.00018,0.00024,-0.00011,2e-05,0.00017,-0.00048,2,31
5257,-0.00034,-3e-05,0.00018,0.00024,-0.00011,2e-05,0.00017,-0.00048,2,31
5258,-0.00034,-3e-05,0.00018,0.00024,-0.00011,2e-05,0.00017,-0.00048,2,31
5259,-0.00034,-3e-05,0.00018,0.00024,-0.00011,2e-05,0.00017,-0.00048,2,31
5260,-0.00034,-3e-05,0.00018,0.00024,-0.00011,2e-05,0.00017,-0.00048,2,31
5261,-0.00034,-3e-05,0.00018,0.00024,-0.00011,2e-05,0.00017,-0.00048,2,31
5262,0.00041,9e-05,-0.00017,0.00013,8e-05,7e-05,0.00026,0.00049,2,31
5263,0.00041,9e-05,-0.00017,0.00013,8e-05,7e-05,0.00026,0.00049,2,31
5264,0.00041,9e-05,-0.00017,0.00013,8e-05,7e-05,0.00026,0.00049,2,31
5265,0.00041,9e-05,-0.00017,0.00013,8e-05,7e-05,0.00026,0.00049,2,31
5266,0.00041,9e-05,-0.00017,0.00013,8e-05,7e-05,0.00026,0.00049,2,31
5267,0.00041,9e-05,-0.00017,0.00013,8e-05,7e-05,0.00026,0.00049,2,31
5268,0.00041,9e-05,-0.00017,0.00013,8e-05,7e-05,0.00026,0.00049,2,31
5269,0.00041,9e-05,-0.00017,0.00013,8e-05,7e-05,0.00026,0.00049,2,31
5270,0.00041,9e-05,-0.00017,0.00013,8e-05,7e-05,0.00026,0.00049,2,31
5271,0.00041,9e-05,-0.00017,0.00013,8e-05,7e-05,0.00026,0.00049,2,31
5272,0.00041,9e-05,-0.00017,0.00013,8e-05,7e-05,0.00026,0.00049,2,31
5273,0.00041,9e-05,-0.00017,0.00013,8e-05,7e-05,0.00026,0.00049,2,31
5274,0.00041,9e-05,-0.00017,0.00013,8e-05,7e-05,0.00026,0.00049,2,31
5275,0.00041,9e-05,-0.00017,0.00013,8e-05,7e-05,0.00026,0.00049,2,31
5276,-0.00022,-7e-05,-2e-05,8e-05,0.00026,4e-05,-4e-05,-0.00016,2,31
5277,-0.00018,1e-05,6e-05,-0.00021,-0.00036,-0.00012,-5e-05,-0.00034,2,31
5278,-0.00018,1e-05,6e-05,-0.00021,-0.00036,-0.00012,-5e-05,-0.00034,2,31
5279,-0.00018,1e-05,6e-05,-0.00021,-0.00036,-0.00012,-5e-05,-0.00034,2,31
5280,-0.00018,1e-05,6e-05,-0.00021,-0.00036,-0.00012,-5e-05,-0.00034,2,31
5281,-0.00018,1e-05,6e-05,-0.00021,-0.00036,-0.00012,-5e-05,-0.00034,2,31
5282,-0.00018,1e-05,6e-05,-0.00021,-0.00036,-0.00012,-5e-05,-0.00034,2,31
5283,-0.00018,1e-05,6e-05,-0.00021,-0.00036,-0.00012,-5e-05,-0.00034,2,31
5284,-0.00018,1e-05,6e-05,-0.00021,-0.00036,-0.00012,-5e-05,-0.00034,2,31
5285,-0.00018,1e-05,6e-05,-0.00021,-0.00036,-0.00012,-5e-05,-0.00034,2,31
5286,-0.00037,-9e-05,8e-05,1e-05,2e-05,-0.0003,-0.00045,-0.00042,2,31
5288,-0.00037,-9e-05,8e-05,1e-05,2e-05,-0.0003,-0.00045,-0.00042,2,31
5289,-0.00037,-9e-05,8e-05,1e-05,2e-05,-0.0003,-0.00045,-0.00042,2,31
5290,-0.00037,-9e-05,8e-05,1e-05,2e-05,-0.0003,-0.00045,-0.00042,2,31
5291,-0.00037,-9e-05,8e-05,1e-05,2e-05,-0.0003,-0.00045,-0.00042,2,31
5292,0,-9e-05,-6e-05,-0.0001,1e-05,7e-05,0.00015,0.00036,2,31
5293,0,-9e-05,-6e-05,-0.0001,1e-05,7e-05,0.00015,0.00036,2,31
5294,0,-9e-05,-6e-05,-0.0001,1e-05,7e-05,0.00015,0.00036,2,31
5295,0,-9e-05,-6e-05,-0.0001,1e-05,7e-05,0.00015,0.00036,2,31
5296,0,-9e-05,-6e-05,-0.0001,1e-05,7e-05,0.00015,0.00036,2,31
5297,0,-9e-05,-6e-05,-0.0001,1e-05,7e-05,0.00015,0.00036,2,31
5298,0,-9e-05,-6e-05,-0.0001,1e-05,7e-05,0.00015,0.00036,2,31
5299,0,-9e-05,-6e-05,-0.0001,1e-05,7e-05,0.00015,0.00036,2,31
5300,0,-9e-05,-6e-05,-0.0001,1e-05,7e-05,0.00015,0.00036,2,31
5301,0,-9e-05,-6e-05,-0.0001,1e-05,7e-05,0.00015,0.00036,2,31
5302,0,-9e-05,-6e-05,-0.0001,1e-05,7e-05,0.00015,0.00036,2,31
5303,0,-9e-05,-6e-05,-0.0001,1e-05,7e-05,0.00015,0.00036,2,31
5304,0,-9e-05,-6e-05,-0.0001,1e-05,7e-05,0.00015,0.00036,2,31
5305,0,-9e-05,-6e-05,-0.0001,1e-05,7e-05,0.00015,0.00036,2,31
5306,0,-9e-05,-6e-05,-0.0001,1e-05,7e-05,0.00015,0.00036,2,31
5307,0,-9e-05,-6e-05,-0.0001,1e-05,7e-05,0.00015,0.00036,2,31
5308,0,-9e-05,-6e-05,-0.0001,1e-05,7e-05,0.00015,0.00036,2,31
5309,0,-9e-05,-6e-05,-0.0001,1e-05,7e-05,0.00015,0.00036,2,31
5310,0,-9e-05,-6e-05,-0.0001,1e-05,7e-05,0.00015,0.00036,2,31
5311,0,-9e-05,-6e-05,-0.0001,1e-05,7e-05,0.00015,0.00036,2,31
5312,0,-9e-05,-6e-05,-0.0001,1e-05,7e-05,0.00015,0.00036,2,31
5313,0,-9e-05,-6e-05,-0.0001,1e-05,7e-05,0.00015,0.00036,2,31
5314,0,-9e-05,-6e-05,-0.0001,1e-05,7e-05,0.00015,0.00036,2,31
5315,0.00028,8e-05,-7e-05,-0.00036,-0.00041,-0.0002,-0.00018,-0.00016,2,31
5316,-0.0002,-7e-05,-1e-05,0.0004,0.00022,-0.00036,-0.00033,2e-05,2,31
5317,-0.00026,-0.0001,-0.00018,-0.00025,0.00011,1e-05,-0.00041,-0.00035,2,31
5318,-0.00026,-0.0001,-0.00018,-0.00025,0.00011,1e-05,-0.00041,-0.00035,2,31
5319,-0.00026,-0.0001,-0.00018,-0.00025,0.00011,1e-05,-0.00041,-0.00035,2,31
5320,-0.00026,-0.0001,-0.00018,-0.00025,0.00011,1e-05,-0.00041,-0.00035,2,31
5321,-0.00026,-0.0001,-0.00018,-0.00025,0.00011,1e-05,-0.00041,-0.00035,2,31
5322,0.00017,8e-05,0,-0.0004,-0.00041,0.00016,0.00025,3e-05,2,31
5323,0.00017,8e-05,0,-0.0004,-0.00041,0.00016,0.00025,3e-05,2,31
5324,0.00017,8e-05,0,-0.0004,-0.00041,0.00016,0.00025,3e-05,2,31
5325,0.00017,8e-05,0,-0.0004,-0.00041,0.00016,0.00025,3e-05,2,31
5326,0.00017,8e-05,0,-0.0004,-0.00041,0.00016,0.00025,3e-05,2,31
5327,0.00017,8e-05,0,-0.0004,-0.00041,0.00016,0.00025,3e-05,2,31
5328,0.00017,8e-05,0,-0.0004,-0.00041,0.00016,0.00025,3e-05,2,31
5329,0.00017,8e-05,0,-0.0004,-0.00041,0.00016,0.00025,3e-05,2,31
5330,0.00017,8e-05,0,-0.0004,-0.00041,0.00016,0.00025,3e-05,2,31
5331,0.00017,8e-05,0,-0.0004,-0.00041,0.00016,0.00025,3e-05,2,31
5332,0.00017,8e-05,0,-0.0004,-0.00041,0.00016,0.00025,3e-05,2,31
5333,0.00017,8e-05,0,-0.0004,-0.00041,0.00016,0.00025,3e-05,2,31
5334,0.00017,8e-05,0,-0.0004,-0.00041,0.00016,0.00025,3e-05,2,31
5335,0.00017,8e-05,0,-0.0004,-0.00041,0.00016,0.00025,3e-05,2,31
5336,0.00017,8e-05,0,-0.0004,-0.00041,0.00016,0.00025,3e-05,2,31
5338,-0.00018,-3e-05,-3e-05,0.00022,0.00025,6e-05,0.00017,0.00025,2,31
5339,-0.00018,-3e-05,-3e-05,0.00022,0.00025,6e-05,0.00017,0.00025,2,31
5340,-0.00018,-3e-05,-3e-05,0.00022,0.00025,6e-05,0.00017,0.00025,2,31
5341,-0.00018,-3e-05,-3e-05,0.00022,0.00025,6e-05,0.00017,0.00025,2,31
5342,-0.00018,-3e-05,-3e-05,0.00022,0.00025,6e-05,0.00017,0.00025,2,31
5343,-0.00018,-3e-05,-3e-05,0.00022,0.00025,6e-05,0.00017,0.00025,2,31
5344,-0.00018,-3e-05,-3e-05,0.00022,0.00025,6e-05,0.00017,0.00025,2,31
5345,6e-05,5e-05,-3e-05,-0.0002,-0.00016,0.00027,-8e-05,-0.00015,2,31
5346,-0.0004,-0.00015,-4e-05,-0.0001,-7e-05,-0.0001,0.00013,-0.0003,2,31
5347,-0.0004,-0.00015,-4e-05,-0.0001,-7e-05,-0.0001,0.00013,-0.0003,2,31
5348,0.00041,6e-05,-4e-05,-0.00026,-0.00028,-0.00021,-0.00015,0.00018,2,31
5349,0.00041,6e-05,-4e-05,-0.00026,-0.00028,-0.00021,-0.00015,0.00018,2,31
5350,0.00041,6e-05,-4e-05,-0.00026,-0.00028,-0.00021,-0.00015,0.00018,2,31
5351,0.00041,6e-05,-4e-05,-0.00026,-0.00028,-0.00021,-0.00015,0.00018,2,31
5352,0.00041,6e-05,-4e-05,-0.00026,-0.00028,-0.00021,-0.00015,0.00018,2,31
5353,0.00041,6e-05,-4e-05,-0.00026,-0.00028,-0.00021,-0.00015,0.00018,2,31
5354,0.00041,6e-05,-4e-05,-0.00026,-0.00028,-0.00021,-0.00015,0.00018,2,31
5355,0.00041,6e-05,-4e-05,-0.00026,-0.00028,-0.00021,-0.00015,0.00018,2,31
5356,0.00041,6e-05,-4e-05,-0.00026,-0.00028,-0.00021,-0.00015,0.00018,2,31
5357,0.00041,6e-05,-4e-05,-0.00026,-0.00028,-0.00021,-0.00015,0.00018,2,31
5358,0.00041,6e-05,-4e-05,-0.00026,-0.00028,-0.00021,-0.00015,0.00018,2,31
5359,0.00041,6e-05,-4e-05,-0.00026,-0.00028,-0.00021,-0.00015,0.00018,2,31
5360,0.00041,6e-05,-4e-05,-0.00026,-0.00028,-0.00021,-0.00015,0.00018,2,31
5361,0.00041,6e-05,-4e-05,-0.00026,-0.00028,-0.00021,-0.00015,0.00018,2,31
5362,0.00041,6e-05,-4e-05,-0.00026,-0.00028,-0.00021,-0.00015,0.00018,2,31
5363,0.00041,6e-05,-4e-05,-0.00026,-0.00028,-0.00021,-0.00015,0.00018,2,31
5364,0.00041,6e-05,-4e-05,-0.00026,-0.00028,-0.00021,-0.00015,0.00018,2,31
5365,0.00041,6e-05,-4e-05,-0.00026,-0.00028,-0.00021,-0.00015,0.00018,2,31
5366,0.00041,6e-05,-4e-05,-0.00026,-0.00028,-0.00021,-0.00015,0.00018,2,31
5367,0.00041,6e-05,-4e-05,-0.00026,-0.00028,-0.00021,-0.00015,0.00018,2,31
5368,0.00041,6e-05,-4e-05,-0.00026,-0.00028,-0.00021,-0.00015,0.00018,2,31
5369,0.00041,6e-05,-4e-05,-0.00026,-0.00028,-0.00021,-0.00015,0.00018,2,31
5370,0.00041,6e-05,-4e-05,-0.00026,-0.00028,-0.00021,-0.00015,0.00018,2,31
5371,0.00041,6e-05,-4e-05,-0.00026,-0.00028,-0.00021,-0.00015,0.00018,2,31
5372,0.00041,6e-05,-4e-05,-0.00026,-0.00028,-0.00021,-0.00015,0.00018,2,31
5373,0.00041,6e-05,-4e-05,-0.00026,-0.00028,-0.00021,-0.00015,0.00018,2,31
5374,0.00041,6e-05,-4e-05,-0.00026,-0.00028,-0.00021,-0.00015,0.00018,2,31
5376,3e-05,-2e-05,0.00011,0.00048,0.00011,0.00021,0.00017,3e-05,2,31
5377,3e-05,-2e-05,0.00011,0.00048,0.00011,0.00021,0.00017,3e-05,2,31
5378,3e-05,-2e-05,0.00011,0.00048,0.00011,0.00021,0.00017,3e-05,2,31
5379,3e-05,-2e-05,0.00011,0.00048,0.00011,0.00021,0.00017,3e-05,2,31
5380,3e-05,-2e-05,0.00011,0.00048,0.00011,0.00021,0.00017,3e-05,2,31
5381,3e-05,-2e-05,0.00011,0.00048,0.00011,0.00021,0.00017,3e-05,2,31
5382,3e-05,-2e-05,0.00011,0.00048,0.00011,0.00021,0.00017,3e-05,2,31
5383,-0.00037,1e-05,0.00011,0.00046,6e-05,-0.00025,9e-05,-0.00047,2,31
5384,6e-05,-6e-05,3e-05,-5e-05,-0.00015,-0.00025,-0.00021,-9e-05,2,31
5385,6e-05,-6e-05,3e-05,-5e-05,-0.00015,-0.00025,-0.00021,-9e-05,2,31
5386,6e-05,-6e-05,3e-05,-5e-05,-0.00015,-0.00025,-0.00021,-9e-05,2,31
5388,6e-05,-6e-05,3e-05,-5e-05,-0.00015,-0.00025,-0.00021,-9e-05,2,31
5389,6e-05,-6e-05,3e-05,-5e-05,-0.00015,-0.00025,-0.00021,-9e-05,2,31
5390,6e-05,-6e-05,3e-05,-5e-05,-0.00015,-0.00025,-0.00021,-9e-05,2,31
5391,6e-05,-6e-05,3e-05,-5e-05,-0.00015,-0.00025,-0.00021,-9e-05,2,31
5392,6e-05,-6e-05,3e-05,-5e-05,-0.00015,-0.00025,-0.00021,-9e-05,2,31
5393,6e-05,-6e-05,3e-05,-5e-05,-0.00015,-0.00025,-0.00021,-9e-05,2,31
5394,6e-05,-6e-05,3e-05,-5e-05,-0.00015,-0.00025,-0.00021,-9e-05,2,31
5395,6e-05,-6e-05,3e-05,-5e-05,-0.00015,-0.00025,-0.00021,-9e-05,2,31
5396,6e-05,-6e-05,3e-05,-5e-05,-0.00015,-0.00025,-0.00021,-9e-05,2,31
5397,-0.00025,0.00013,0.00013,-0.00018,-0.00036,0.00035,0.00048,-0.00023,2,31
5398,-0.00025,0.00013,0.00013,-0.00018,-0.00036,0.00035,0.00048,-0.00023,2,31
5399,-0.00025,0.00013,0.00013,-0.00018,-0.00036,0.00035,0.00048,-0.00023,2,31
5400,-0.00025,0.00013,0.00013,-0.00018,-0.00036,0.00035,0.00048,-0.00023,2,31
5401,-0.00025,0.00013,0.00013,-0.00018,-0.00036,0.00035,0.00048,-0.00023,2,31
5402,-0.00025,0.00013,0.00013,-0.00018,-0.00036,0.00035,0.00048,-0.00023,2,31
5403,-0.00025,0.00013,0.00013,-0.00018,-0.00036,0.00035,0.00048,-0.00023,2,31
5404,-0.00025,0.00013,0.00013,-0.00018,-0.00036,0.00035,0.00048,-0.00023,2,31
5405,-0.00025,0.00013,0.00013,-0.00018,-0.00036,0.00035,0.00048,-0.00023,2,31
5406,-0.0002,-3e-05,-2e-05,1e-05,-0.00013,0.00039,-4e-05,-0.00015,2,31
5407,0.00048,0,-2e-05,-0.0001,0.00011,-0.00047,-0.00035,0.00024,2,31
5408,0.00048,0,-2e-05,-0.0001,0.00011,-0.00047,-0.00035,0.00024,2,31
5409,0.00048,0,-2e-05,-0.0001,0.00011,-0.00047,-0.00035,0.00024,2,31
5410,0.00048,0,-2e-05,-0.0001,0.00011,-0.00047,-0.00035,0.00024,2,31
5411,0.00048,0,-2e-05,-0.0001,0.00011,-0.00047,-0.00035,0.00024,2,31
5412,0.00048,0,-2e-05,-0.0001,0.00011,-0.00047,-0.00035,0.00024,2,31
5413,0.00048,0,-2e-05,-0.0001,0.00011,-0.00047,-0.00035,0.00024,2,31
5414,0.00048,0,-2e-05,-0.0001,0.00011,-0.00047,-0.00035,0.00024,2,31
5415,0.00048,0,-2e-05,-0.0001,0.00011,-0.00047,-0.00035,0.00024,2,31
5416,0.00048,0,-2e-05,-0.0001,0.00011,-0.00047,-0.00035,0.00024,2,31
5417,0.00048,0,-2e-05,-0.0001,0.00011,-0.00047,-0.00035,0.00024,2,31
5418,0.00048,0,-2e-05,-0.0001,0.00011,-0.00047,-0.00035,0.00024,2,31
5419,0.00048,0,-2e-05,-0.0001,0.00011,-0.00047,-0.00035,0.00024,2,31
5420,0.00048,0,-2e-05,-0.0001,0.00011,-0.00047,-0.00035,0.00024,2,31
5421,0.00048,0,-2e-05,-0.0001,0.00011,-0.00047,-0.00035,0.00024,2,31
5423,0.00048,0,-2e-05,-0.0001,0.00011,-0.00047,-0.00035,0.00024,2,31
5424,0.00048,0,-2e-05,-0.0001,0.00011,-0.00047,-0.00035,0.00024,2,31
5425,0.00048,0,-2e-05,-0.0001,0.00011,-0.00047,-0.00035,0.00024,2,31
5426,0.00048,0,-2e-05,-0.0001,0.00011,-0.00047,-0.00035,0.00024,2,31
5427,0.00048,0,-2e-05,-0.0001,0.00011,-0.00047,-0.00035,0.00024,2,31
5428,-0.00012,-0.00011,-0.00013,9e-05,-0.00029,-0.00015,2e-05,-0.00014,2,31
5429,9e-05,5e-05,3e-05,-4e-05,0.00016,3e-05,-0.00016,7e-05,2,31
5430,-0.0001,-5e-05,-2e-05,-2e-05,0.00012,-0.00028,-0.00029,-0.00032,2,31
5431,-0.0001,-5e-05,-2e-05,-2e-05,0.00012,-0.00028,-0.00029,-0.00032,2,31
5432,-0.0001,-5e-05,-2e-05,-2e-05,0.00012,-0.00028,-0.00029,-0.00032,2,31
5433,-0.0001,-5e-05,-2e-05,-2e-05,0.00012,-0.00028,-0.00029,-0.00032,2,31
5434,-0.0001,-5e-05,-2e-05,-2e-05,0.00012,-0.00028,-0.00029,-0.00032,2,31
5435,-0.0001,-5e-05,-2e-05,-2e-05,0.00012,-0.00028,-0.00029,-0.00032,2,31
5436,-0.0001,-5e-05,-2e-05,-2e-05,0.00012,-0.00028,-0.00029,-0.00032,2,31
5438,-0.0001,-5e-05,-2e-05,-2e-05,0.00012,-0.00028,-0.00029,-0.00032,2,31
5439,-0.0001,-5e-05,-2e-05,-2e-05,0.00012,-0.00028,-0.00029,-0.00032,2,31
5440,-0.0001,-5e-05,-2e-05,-2e-05,0.00012,-0.00028,-0.00029,-0.00032,2,31
5441,-0.0001,-5e-05,-2e-05,-2e-05,0.00012,-0.00028,-0.00029,-0.00032,2,31
5442,-0.00019,-3e-05,6e-05,-0.00014,-0.00032,0.00029,0.00015,-0.00027,2,31
5443,-0.00026,-1e-05,-1e-05,0.00012,0.00019,0.00013,0,-0.00035,2,31
5444,-0.00026,-1e-05,-1e-05,0.00012,0.00019,0.00013,0,-0.00035,2,31
5445,-0.00026,-1e-05,-1e-05,0.00012,0.00019,0.00013,0,-0.00035,2,31
5446,-0.00026,-1e-05,-1e-05,0.00012,0.00019,0.00013,0,-0.00035,2,31
5447,-0.00026,-1e-05,-1e-05,0.00012,0.00019,0.00013,0,-0.00035,2,31
5448,-0.00026,-1e-05,-1e-05,0.00012,0.00019,0.00013,0,-0.00035,2,31
5449,0.00073,0.00026,0.00011,0.0001,-6e-05,-0.00013,0.0002,0.00051,2,31
5450,0.00073,0.00026,0.00011,0.0001,-6e-05,-0.00013,0.0002,0.00051,2,31
5451,0.00073,0.00026,0.00011,0.0001,-6e-05,-0.00013,0.0002,0.00051,2,31
5452,0.00073,0.00026,0.00011,0.0001,-6e-05,-0.00013,0.0002,0.00051,2,31
5453,0.00073,0.00026,0.00011,0.0001,-6e-05,-0.00013,0.0002,0.00051,2,31
5454,0.00073,0.00026,0.00011,0.0001,-6e-05,-0.00013,0.0002,0.00051,2,31
5455,0.00073,0.00026,0.00011,0.0001,-6e-05,-0.00013,0.0002,0.00051,2,31
5456,0.00073,0.00026,0.00011,0.0001,-6e-05,-0.00013,0.0002,0.00051,2,31
5457,0.00073,0.00026,0.00011,0.0001,-6e-05,-0.00013,0.0002,0.00051,2,31
5458,0.00073,0.00026,0.00011,0.0001,-6e-05,-0.00013,0.0002,0.00051,2,31
5459,0.00073,0.00026,0.00011,0.0001,-6e-05,-0.00013,0.0002,0.00051,2,31
5460,0.00073,0.00026,0.00011,0.0001,-6e-05,-0.00013,0.0002,0.00051,2,31
5461,0.00073,0.00026,0.00011,0.0001,-6e-05,-0.00013,0.0002,0.00051,2,31
5462,0.00073,0.00026,0.00011,0.0001,-6e-05,-0.00013,0.0002,0.00051,2,31
5463,0.00073,0.00026,0.00011,0.0001,-6e-05,-0.00013,0.0002,0.00051,2,31
5464,0.00073,0.00026,0.00011,0.0001,-6e-05,-0.00013,0.0002,0.00051,2,31
5465,0.00073,0.00026,0.00011,0.0001,-6e-05,-0.00013,0.0002,0.00051,2,31
5466,-0.00032,-3e-05,-2e-05,-0.00014,0.00012,-0.00015,-0.00036,-3e-05,2,31
5467,-0.00067,-0.00024,-8e-05,-0.00025,5e-05,0.00032,0.00011,-0.00055,2,31
5468,-0.00067,-0.00024,-8e-05,-0.00025,5e-05,0.00032,0.00011,-0.00055,2,31
5469,-0.00067,-0.00024,-8e-05,-0.00025,5e-05,0.00032,0.00011,-0.00055,2,31
5470,-0.00067,-0.00024,-8e-05,-0.00025,5e-05,0.00032,0.00011,-0.00055,2,31
5471,-0.00067,-0.00024,-8e-05,-0.00025,5e-05,0.00032,0.00011,-0.00055,2,31
5472,-0.00067,-0.00024,-8e-05,-0.00025,5e-05,0.00032,0.00011,-0.00055,2,31
5473,-0.00067,-0.00024,-8e-05,-0.00025,5e-05,0.00032,0.00011,-0.00055,2,31
28867,-0.00041,-0.00015,-2e-05,0.00032,-0.00034,-0.00052,-0.00023,-0.00092,2,31
28868,-0.00041,-0.00015,-2e-05,0.00032,-0.00034,-0.00052,-0.00023,-0.00092,2,31
28869,-0.00041,-0.00015,-2e-05,0.00032,-0.00034,-0.00052,-0.00023,-0.00092,2,31
28870,-0.00041,-0.00015,-2e-05,0.00032,-0.00034,-0.00052,-0.00023,-0.00092,2,31
28871,-0.00041,-0.00015,-2e-05,0.00032,-0.00034,-0.00052,-0.00023,-0.00092,2,31
28872,-0.00019,-0.00019,-0.00015,-0.00048,-0.00014,-0.0004,-0.00014,-0.0005,2,31
28873,-0.00019,-0.00019,-0.00015,-0.00048,-0.00014,-0.0004,-0.00014,-0.0005,2,31
28874,-0.00019,-0.00019,-0.00015,-0.00048,-0.00014,-0.0004,-0.00014,-0.0005,2,31
28875,-0.00019,-0.00019,-0.00015,-0.00048,-0.00014,-0.0004,-0.00014,-0.0005,2,31
28876,-0.00019,-0.00019,-0.00015,-0.00048,-0.00014,-0.0004,-0.00014,-0.0005,2,31
28877,-0.00019,-0.00019,-0.00015,-0.00048,-0.00014,-0.0004,-0.00014,-0.0005,2,31
28878,-0.00019,-0.00019,-0.00015,-0.00048,-0.00014,-0.0004,-0.00014,-0.0005,2,31
28879,-0.00019,-0.00019,-0.00015,-0.00048,-0.00014,-0.0004,-0.00014,-0.0005,2,31
28880,-0.00019,-0.00019,-0.00015,-0.00048,-0.00014,-0.0004,-0.00014,-0.0005,2,31
28881,-0.00019,-0.00019,-0.00015,-0.00048,-0.00014,-0.0004,-0.00014,-0.0005,2,31
28882,-0.00019,-0.00019,-0.00015,-0.00048,-0.00014,-0.0004,-0.00014,-0.0005,2,31
28883,-0.00019,-0.00019,-0.00015,-0.00048,-0.00014,-0.0004,-0.00014,-0.0005,2,31
28884,-0.00019,-0.00019,-0.00015,-0.00048,-0.00014,-0.0004,-0.00014,-0.0005,2,31
28885,-0.00019,-0.00019,-0.00015,-0.00048,-0.00014,-0.0004,-0.00014,-0.0005,2,31
28886,-0.00019,-0.00019,-0.00015,-0.00048,-0.00014,-0.0004,-0.00014,-0.0005,2,31
28889,-0.00035,-6e-05,-0.00022,-0.0004,-0.00013,-0.00015,-0.00028,-1e-05,2,31
28890,-0.00017,0.0001,3e-05,0.00054,8e-05,0.00022,-0.00015,-0.00066,2,31
28891,-0.00017,0.0001,3e-05,0.00054,8e-05,0.00022,-0.00015,-0.00066,2,31
28892,-0.00017,0.0001,3e-05,0.00054,8e-05,0.00022,-0.00015,-0.00066,2,31
28893,-0.00017,0.0001,3e-05,0.00054,8e-05,0.00022,-0.00015,-0.00066,2,31
28895,-0.00017,0.0001,3e-05,0.00054,8e-05,0.00022,-0.00015,-0.00066,2,31
28896,-0.00017,0.0001,3e-05,0.00054,8e-05,0.00022,-0.00015,-0.00066,2,31
28897,-0.00017,0.0001,3e-05,0.00054,8e-05,0.00022,-0.00015,-0.00066,2,31
28898,-0.00017,0.0001,3e-05,0.00054,8e-05,0.00022,-0.00015,-0.00066,2,31
28899,-0.00017,0.0001,3e-05,0.00054,8e-05,0.00022,-0.00015,-0.00066,2,31
28900,-0.00017,0.0001,3e-05,0.00054,8e-05,0.00022,-0.00015,-0.00066,2,31
28901,-0.00017,0.0001,3e-05,0.00054,8e-05,0.00022,-0.00015,-0.00066,2,31
28902,-0.00017,0.0001,3e-05,0.00054,8e-05,0.00022,-0.00015,-0.00066,2,31
28903,-0.00017,0.0001,3e-05,0.00054,8e-05,0.00022,-0.00015,-0.00066,2,31
28904,-0.00017,0.0001,3e-05,0.00054,8e-05,0.00022,-0.00015,-0.00066,2,31
28905,-0.00017,0.0001,3e-05,0.00054,8e-05,0.00022,-0.00015,-0.00066,2,31
28906,-0.00017,0.0001,3e-05,0.00054,8e-05,0.00022,-0.00015,-0.00066,2,31
28907,-0.00017,0.0001,3e-05,0.00054,8e-05,0.00022,-0.00015,-0.00066,2,31
28908,-0.00017,0.0001,3e-05,0.00054,8e-05,0.00022,-0.00015,-0.00066,2,31
28909,-0.00017,0.0001,3e-05,0.00054,8e-05,0.00022,-0.00015,-0.00066,2,31
28910,-0.00044,-0.00013,4e-05,-7e-05,9e-05,0.00018,0.00021,3e-05,2,31
28911,0.00014,-9e-05,-0.00012,-0.00015,-9e-05,-0.00049,-0.00059,-0.00062,2,31
28912,0.00014,-9e-05,-0.00012,-0.00015,-9e-05,-0.00049,-0.00059,-0.00062,2,31
28913,0.0005,0.00025,7e-05,0.0002,-8e-05,-8e-05,-5e-05,0.00012,2,31
28915,0.0005,0.00025,7e-05,0.0002,-8e-05,-8e-05,-5e-05,0.00012,2,31
28916,0.0005,0.00025,7e-05,0.0002,-8e-05,-8e-05,-5e-05,0.00012,2,31
28917,0.0005,0.00025,7e-05,0.0002,-8e-05,-8e-05,-5e-05,0.00012,2,31
28918,0.0005,0.00025,7e-05,0.0002,-8e-05,-8e-05,-5e-05,0.00012,2,31
28919,0.0005,0.00025,7e-05,0.0002,-8e-05,-8e-05,-5e-05,0.00012,2,31
28920,0.0005,0.00025,7e-05,0.0002,-8e-05,-8e-05,-5e-05,0.00012,2,31
28921,0.0005,0.00025,7e-05,0.0002,-8e-05,-8e-05,-5e-05,0.00012,2,31
28922,0.0005,0.00025,7e-05,0.0002,-8e-05,-8e-05,-5e-05,0.00012,2,31
28923,0.0005,0.00025,7e-05,0.0002,-8e-05,-8e-05,-5e-05,0.00012,2,31
28924,0.00094,0.0003,8e-05,0.0004,0.00014,0.00026,0.00052,0.0006,2,31
28925,0.00094,0.0003,8e-05,0.0004,0.00014,0.00026,0.00052,0.0006,2,31
28926,0.00094,0.0003,8e-05,0.0004,0.00014,0.00026,0.00052,0.0006,2,31
28927,0.00094,0.0003,8e-05,0.0004,0.00014,0.00026,0.00052,0.0006,2,31
28928,0.00094,0.0003,8e-05,0.0004,0.00014,0.00026,0.00052,0.0006,2,31
28929,0.00094,0.0003,8e-05,0.0004,0.00014,0.00026,0.00052,0.0006,2,31
28930,0.00094,0.0003,8e-05,0.0004,0.00014,0.00026,0.00052,0.0006,2,31
28931,0.00094,0.0003,8e-05,0.0004,0.00014,0.00026,0.00052,0.0006,2,31
28932,-0.00046,-0.00027,-1e-05,-0.00015,-4e-05,0.00022,-0.00016,-0.00076,2,31
28933,-0.00046,-0.00027,-1e-05,-0.00015,-4e-05,0.00022,-0.00016,-0.00076,2,31
28934,-0.00046,-0.00027,-1e-05,-0.00015,-4e-05,0.00022,-0.00016,-0.00076,2,31
28935,-0.00046,-0.00027,-1e-05,-0.00015,-4e-05,0.00022,-0.00016,-0.00076,2,31
28936,-0.00046,-0.00027,-1e-05,-0.00015,-4e-05,0.00022,-0.00016,-0.00076,2,31
28939,-0.00046,-0.00027,-1e-05,-0.00015,-4e-05,0.00022,-0.00016,-0.00076,2,31
28940,-0.00046,-0.00027,-1e-05,-0.00015,-4e-05,0.00022,-0.00016,-0.00076,2,31
28941,-0.00046,-0.00027,-1e-05,-0.00015,-4e-05,0.00022,-0.00016,-0.00076,2,31
28942,-0.00046,-0.00027,-1e-05,-0.00015,-4e-05,0.00022,-0.00016,-0.00076,2,31
28943,-0.00046,-0.00027,-1e-05,-0.00015,-4e-05,0.00022,-0.00016,-0.00076,2,31
28944,-0.00046,-0.00027,-1e-05,-0.00015,-4e-05,0.00022,-0.00016,-0.00076,2,31
28945,-0.00046,-0.00027,-1e-05,-0.00015,-4e-05,0.00022,-0.00016,-0.00076,2,31
28946,-0.00046,-0.00027,-1e-05,-0.00015,-4e-05,0.00022,-0.00016,-0.00076,2,31
28947,-0.00046,-0.00027,-1e-05,-0.00015,-4e-05,0.00022,-0.00016,-0.00076,2,31
28948,1e-05,1e-05,-0.00016,-0.00041,-4e-05,-0.0003,0.00014,0.00016,2,31
28949,-0.00081,-0.00032,0,-8e-05,2e-05,-0.00026,-0.00068,-0.00054,2,31
28950,-0.00081,-0.00032,0,-8e-05,2e-05,-0.00026,-0.00068,-0.00054,2,31
28951,-0.00081,-0.00032,0,-8e-05,2e-05,-0.00026,-0.00068,-0.00054,2,31
28952,-0.00081,-0.00032,0,-8e-05,2e-05,-0.00026,-0.00068,-0.00054,2,31
28953,-0.00081,-0.00032,0,-8e-05,2e-05,-0.00026,-0.00068,-0.00054,2,31
28954,-0.00081,-0.00032,0,-8e-05,2e-05,-0.00026,-0.00068,-0.00054,2,31
28955,-0.00034,-7e-05,-0.00011,4e-05,-0.00021,-0.00023,-2e-05,-8e-05,2,31
28956,-0.00034,-7e-05,-0.00011,4e-05,-0.00021,-0.00023,-2e-05,-8e-05,2,31
28957,-0.00034,-7e-05,-0.00011,4e-05,-0.00021,-0.00023,-2e-05,-8e-05,2,31
28958,-0.00034,-7e-05,-0.00011,4e-05,-0.00021,-0.00023,-2e-05,-8e-05,2,31
28959,-0.00034,-7e-05,-0.00011,4e-05,-0.00021,-0.00023,-2e-05,-8e-05,2,31
28960,-0.00034,-7e-05,-0.00011,4e-05,-0.00021,-0.00023,-2e-05,-8e-05,2,31
28961,-0.00034,-7e-05,-0.00011,4e-05,-0.00021,-0.00023,-2e-05,-8e-05,2,31
28962,-0.00034,-7e-05,-0.00011,4e-05,-0.00021,-0.00023,-2e-05,-8e-05,2,31
28963,-0.00034,-7e-05,-0.00011,4e-05,-0.00021,-0.00023,-2e-05,-8e-05,2,31
28964,-0.00034,-7e-05,-0.00011,4e-05,-0.00021,-0.00023,-2e-05,-8e-05,2,31
28965,-0.00034,-7e-05,-0.00011,4e-05,-0.00021,-0.00023,-2e-05,-8e-05,2,31
28966,-0.00034,-7e-05,-0.00011,4e-05,-0.00021,-0.00023,-2e-05,-8e-05,2,31
28967,-0.00034,-7e-05,-0.00011,4e-05,-0.00021,-0.00023,-2e-05,-8e-05,2,31
28968,-0.00034,-7e-05,-0.00011,4e-05,-0.00021,-0.00023,-2e-05,-8e-05,2,31
28969,-0.00034,-7e-05,-0.00011,4e-05,-0.00021,-0.00023,-2e-05,-8e-05,2,31
28970,-0.00034,-7e-05,-0.00011,4e-05,-0.00021,-0.00023,-2e-05,-8e-05,2,31
28971,-0.00034,-7e-05,-0.00011,4e-05,-0.00021,-0.00023,-2e-05,-8e-05,2,31
28972,-0.00034,-7e-05,-0.00011,4e-05,-0.00021,-0.00023,-2e-05,-8e-05,2,31
28973,-0.00034,-7e-05,-0.00011,4e-05,-0.00021,-0.00023,-2e-05,-8e-05,2,31
28974,-0.00034,-7e-05,-0.00011,4e-05,-0.00021,-0.00023,-2e-05,-8e-05,2,31
28975,-0.00034,-7e-05,-0.00011,4e-05,-0.00021,-0.00023,-2e-05,-8e-05,2,31
28976,-0.00034,-7e-05,-0.00011,4e-05,-0.00021,-0.00023,-2e-05,-8e-05,2,31
28977,-0.00034,-7e-05,-0.00011,4e-05,-0.00021,-0.00023,-2e-05,-8e-05,2,31
28978,-0.00034,-7e-05,-0.00011,4e-05,-0.00021,-0.00023,-2e-05,-8e-05,2,31
28979,-0.00034,-7e-05,-0.00011,4e-05,-0.00021,-0.00023,-2e-05,-8e-05,2,31
28980,0.00023,6e-05,-1e-05,0.00023,0.00022,0.00084,0.00108,0.00126,2,31
28981,0.00023,6e-05,-1e-05,0.00023,0.00022,0.00084,0.00108,0.00126,2,31
28982,0.00023,6e-05,-1e-05,0.00023,0.00022,0.00084,0.00108,0.00126,2,31
