4568,-0.0002,-7e-05,0.00016,6e-05,-2e-05,-0.00028,-6e-05,-0.00025,2,6
4569,-0.0002,-7e-05,0.00016,6e-05,-2e-05,-0.00028,-6e-05,-0.00025,2,6
4570,-0.0002,-7e-05,0.00016,6e-05,-2e-05,-0.00028,-6e-05,-0.00025,2,6
4571,-0.0002,-7e-05,0.00016,6e-05,-2e-05,-0.00028,-6e-05,-0.00025,2,6
4572,-0.0002,-7e-05,0.00016,6e-05,-2e-05,-0.00028,-6e-05,-0.00025,2,6
4573,-0.0002,-7e-05,0.00016,6e-05,-2e-05,-0.00028,-6e-05,-0.00025,2,6
4574,-0.0002,-7e-05,0.00016,6e-05,-2e-05,-0.00028,-6e-05,-0.00025,2,6
4575,-0.0002,-7e-05,0.00016,6e-05,-2e-05,-0.00028,-6e-05,-0.00025,2,6
4576,-0.0002,-7e-05,0.00016,6e-05,-2e-05,-0.00028,-6e-05,-0.00025,2,6
4577,-0.0002,-7e-05,0.00016,6e-05,-2e-05,-0.00028,-6e-05,-0.00025,2,6
4578,-0.0002,-7e-05,0.00016,6e-05,-2e-05,-0.00028,-6e-05,-0.00025,2,6
4579,-0.0002,-7e-05,0.00016,6e-05,-2e-05,-0.00028,-6e-05,-0.00025,2,6
4580,-0.0002,-7e-05,0.00016,6e-05,-2e-05,-0.00028,-6e-05,-0.00025,2,6
4581,-0.0002,-7e-05,0.00016,6e-05,-2e-05,-0.00028,-6e-05,-0.00025,2,6
4582,-0.0002,-7e-05,0.00016,6e-05,-2e-05,-0.00028,-6e-05,-0.00025,2,6
4583,-0.0002,-7e-05,0.00016,6e-05,-2e-05,-0.00028,-6e-05,-0.00025,2,6
4584,-0.0002,-7e-05,0.00016,6e-05,-2e-05,-0.00028,-6e-05,-0.00025,2,6
4585,-0.0002,-7e-05,0.00016,6e-05,-2e-05,-0.00028,-6e-05,-0.00025,2,6
4586,-0.0002,-7e-05,0.00016,6e-05,-2e-05,-0.00028,-6e-05,-0.00025,2,6
4588,-0.0002,-7e-05,0.00016,6e-05,-2e-05,-0.00028,-6e-05,-0.00025,2,6
4589,-0.0002,-7e-05,0.00016,6e-05,-2e-05,-0.00028,-6e-05,-0.00025,2,6
4590,-0.0002,-7e-05,0.00016,6e-05,-2e-05,-0.00028,-6e-05,-0.00025,2,6
4591,-0.0002,-7e-05,0.00016,6e-05,-2e-05,-0.00028,-6e-05,-0.00025,2,6
4592,-0.0002,-7e-05,0.00016,6e-05,-2e-05,-0.00028,-6e-05,-0.00025,2,6
4593,-0.0002,-7e-05,0.00016,6e-05,-2e-05,-0.00028,-6e-05,-0.00025,2,6
4594,-0.0001,-1e-05,0.00018,4e-05,-4e-05,-0.00026,-9e-05,-0.00024,2,6
4595,-0.0001,-1e-05,0.00018,4e-05,-4e-05,-0.00026,-9e-05,-0.00024,2,6
4596,-0.0001,-1e-05,0.00018,4e-05,-4e-05,-0.00026,-9e-05,-0.00024,2,6
4597,-0.0001,-1e-05,0.00018,4e-05,-4e-05,-0.00026,-9e-05,-0.00024,2,6
4598,-0.0001,-1e-05,0.00018,4e-05,-4e-05,-0.00026,-9e-05,-0.00024,2,6
4599,-0.0001,-1e-05,0.00018,4e-05,-4e-05,-0.00026,-9e-05,-0.00024,2,6
4600,-0.0001,-1e-05,0.00018,4e-05,-4e-05,-0.00026,-9e-05,-0.00024,2,6
4601,-0.0001,-1e-05,0.00018,4e-05,-4e-05,-0.00026,-9e-05,-0.00024,2,6
4602,-0.0001,-1e-05,0.00018,4e-05,-4e-05,-0.00026,-9e-05,-0.00024,2,6
4603,3e-05,4e-05,2e-05,4e-05,4e-05,8e-05,1e-05,-5e-05,2,6
4604,5e-05,6e-05,-5e-05,0.0003,-1e-05,-2e-05,-9e-05,1e-05,2,6
4605,5e-05,6e-05,-5e-05,0.0003,-1e-05,-2e-05,-9e-05,1e-05,2,6
4606,5e-05,6e-05,-5e-05,0.0003,-1e-05,-2e-05,-9e-05,1e-05,2,6
4607,5e-05,6e-05,-5e-05,0.0003,-1e-05,-2e-05,-9e-05,1e-05,2,6
4608,5e-05,6e-05,-5e-05,0.0003,-1e-05,-2e-05,-9e-05,1e-05,2,6
4609,0.0001,8e-05,0.00015,-5e-05,1e-05,-2e-05,-2e-05,0,2,6
4610,7e-05,4e-05,4e-05,-2e-05,-5e-05,0.00049,0.00011,8e-05,2,6
4611,0.0002,0.00012,0.00022,0.00029,-3e-05,0.00019,5e-05,0.00014,2,6
4612,0.0002,0.00012,0.00022,0.00029,-3e-05,0.00019,5e-05,0.00014,2,6
4613,0.0002,0.00012,0.00022,0.00029,-3e-05,0.00019,5e-05,0.00014,2,6
4614,0.0002,0.00012,0.00022,0.00029,-3e-05,0.00019,5e-05,0.00014,2,6
4615,0.0002,0.00012,0.00022,0.00029,-3e-05,0.00019,5e-05,0.00014,2,6
4616,0.0002,0.00012,0.00022,0.00029,-3e-05,0.00019,5e-05,0.00014,2,6
4617,0.0002,0.00012,0.00022,0.00029,-3e-05,0.00019,5e-05,0.00014,2,6
4618,0.0002,0.00012,0.00022,0.00029,-3e-05,0.00019,5e-05,0.00014,2,6
4619,0.0002,0.00012,0.00022,0.00029,-3e-05,0.00019,5e-05,0.00014,2,6
4620,0.0002,0.00012,0.00022,0.00029,-3e-05,0.00019,5e-05,0.00014,2,6
4621,0.0002,0.00012,0.00022,0.00029,-3e-05,0.00019,5e-05,0.00014,2,6
4622,0.0002,0.00012,0.00022,0.00029,-3e-05,0.00019,5e-05,0.00014,2,6
4623,0.0002,0.00012,0.00022,0.00029,-3e-05,0.00019,5e-05,0.00014,2,6
4624,0.0002,0.00012,0.00022,0.00029,-3e-05,0.00019,5e-05,0.00014,2,6
4625,0.0002,0.00012,0.00022,0.00029,-3e-05,0.00019,5e-05,0.00014,2,6
4626,0.0002,0.00012,0.00022,0.00029,-3e-05,0.00019,5e-05,0.00014,2,6
4627,0.0002,0.00012,0.00022,0.00029,-3e-05,0.00019,5e-05,0.00014,2,6
4628,0.0002,0.00012,0.00022,0.00029,-3e-05,0.00019,5e-05,0.00014,2,6
4629,0.0002,0.00012,0.00022,0.00029,-3e-05,0.00019,5e-05,0.00014,2,6
4630,0.0002,0.00012,0.00022,0.00029,-3e-05,0.00019,5e-05,0.00014,2,6
4631,0.0002,0.00012,0.00022,0.00029,-3e-05,0.00019,5e-05,0.00014,2,6
4632,0.0002,0.00012,0.00022,0.00029,-3e-05,0.00019,5e-05,0.00014,2,6
4633,0.0002,0.00012,0.00022,0.00029,-3e-05,0.00019,5e-05,0.00014,2,6
4634,0.0002,0.00012,0.00022,0.00029,-3e-05,0.00019,5e-05,0.00014,2,6
4635,0.0002,0.00012,0.00022,0.00029,-3e-05,0.00019,5e-05,0.00014,2,6
4636,0.0002,0.00012,0.00022,0.00029,-3e-05,0.00019,5e-05,0.00014,2,6
4638,0.0002,0.00012,0.00022,0.00029,-3e-05,0.00019,5e-05,0.00014,2,6
4639,0.0002,0.00012,0.00022,0.00029,-3e-05,0.00019,5e-05,0.00014,2,6
4640,0.0002,0.00012,0.00022,0.00029,-3e-05,0.00019,5e-05,0.00014,2,6
4641,0.0002,0.00012,0.00022,0.00029,-3e-05,0.00019,5e-05,0.00014,2,6
4642,0.0002,0.00012,0.00022,0.00029,-3e-05,0.00019,5e-05,0.00014,2,6
4643,0.0002,0.00012,0.00022,0.00029,-3e-05,0.00019,5e-05,0.00014,2,6
4644,0.0002,0.00012,0.00022,0.00029,-3e-05,0.00019,5e-05,0.00014,2,6
4645,0.0002,0.00012,0.00022,0.00029,-3e-05,0.00019,5e-05,0.00014,2,6
4646,0.0002,0.00012,0.00022,0.00029,-3e-05,0.00019,5e-05,0.00014,2,6
4647,0.0002,0.00012,0.00022,0.00029,-3e-05,0.00019,5e-05,0.00014,2,6
4648,0.0002,0.00012,0.00022,0.00029,-3e-05,0.00019,5e-05,0.00014,2,6
4649,0.0002,0.00012,0.00022,0.00029,-3e-05,0.00019,5e-05,0.00014,2,6
4650,0.0002,0.00012,0.00022,0.00029,-3e-05,0.00019,5e-05,0.00014,2,6
4651,0.0002,0.00012,0.00022,0.00029,-3e-05,0.00019,5e-05,0.00014,2,6
4652,0.0002,0.00012,0.00022,0.00029,-3e-05,0.00019,5e-05,0.00014,2,6
4653,0.0002,0.00012,0.00022,0.00029,-3e-05,0.00019,5e-05,0.00014,2,6
4654,0.0002,0.00012,0.00022,0.00029,-3e-05,0.00019,5e-05,0.00014,2,6
4655,-0.00015,-9e-05,-5e-05,0.00014,-1e-05,5e-05,2e-05,-0.00017,2,6
4656,0.00025,0,-3e-05,-9e-05,-9e-05,0.00016,6e-05,0.00016,2,6
4657,-0.00011,-2e-05,9e-05,0.00017,-3e-05,-0.00021,-0.00011,0.00029,2,6
4658,-0.00011,-2e-05,9e-05,0.00017,-3e-05,-0.00021,-0.00011,0.00029,2,6
4659,-0.00011,-2e-05,9e-05,0.00017,-3e-05,-0.00021,-0.00011,0.00029,2,6
4660,-0.00011,-2e-05,9e-05,0.00017,-3e-05,-0.00021,-0.00011,0.00029,2,6
4661,-0.0001,-5e-05,-0.00021,-7e-05,-1e-05,-5e-05,-0.00017,-8e-05,2,6
4662,-9e-05,-4e-05,-0.00021,-0.00017,0,-4e-05,-1e-05,-5e-05,2,6
4663,-9e-05,-4e-05,-0.00021,-0.00017,0,-4e-05,-1e-05,-5e-05,2,6
4664,-9e-05,-4e-05,-0.00021,-0.00017,0,-4e-05,-1e-05,-5e-05,2,6
4665,-9e-05,-4e-05,-0.00021,-0.00017,0,-4e-05,-1e-05,-5e-05,2,6
4666,-9e-05,-4e-05,-0.00021,-0.00017,0,-4e-05,-1e-05,-5e-05,2,6
4667,-9e-05,-4e-05,-0.00021,-0.00017,0,-4e-05,-1e-05,-5e-05,2,6
4668,-3e-05,3e-05,0,-0.00012,0,-0.00017,0.0001,-7e-05,2,6
4669,-3e-05,3e-05,0,-0.00012,0,-0.00017,0.0001,-7e-05,2,6
4670,-3e-05,3e-05,0,-0.00012,0,-0.00017,0.0001,-7e-05,2,6
4671,-3e-05,3e-05,0,-0.00012,0,-0.00017,0.0001,-7e-05,2,6
4672,-3e-05,3e-05,0,-0.00012,0,-0.00017,0.0001,-7e-05,2,6
4673,-3e-05,3e-05,0,-0.00012,0,-0.00017,0.0001,-7e-05,2,6
4674,-3e-05,3e-05,0,-0.00012,0,-0.00017,0.0001,-7e-05,2,6
4675,-3e-05,3e-05,0,-0.00012,0,-0.00017,0.0001,-7e-05,2,6
4676,-3e-05,3e-05,0,-0.00012,0,-0.00017,0.0001,-7e-05,2,6
4677,-3e-05,3e-05,0,-0.00012,0,-0.00017,0.0001,-7e-05,2,6
4678,-3e-05,3e-05,0,-0.00012,0,-0.00017,0.0001,-7e-05,2,6
4679,-3e-05,3e-05,0,-0.00012,0,-0.00017,0.0001,-7e-05,2,6
4680,-3e-05,3e-05,0,-0.00012,0,-0.00017,0.0001,-7e-05,2,6
4681,-3e-05,3e-05,0,-0.00012,0,-0.00017,0.0001,-7e-05,2,6
4682,-3e-05,3e-05,0,-0.00012,0,-0.00017,0.0001,-7e-05,2,6
4683,-3e-05,3e-05,0,-0.00012,0,-0.00017,0.0001,-7e-05,2,6
4684,-3e-05,3e-05,0,-0.00012,0,-0.00017,0.0001,-7e-05,2,6
4685,-3e-05,3e-05,0,-0.00012,0,-0.00017,0.0001,-7e-05,2,6
4686,-3e-05,3e-05,0,-0.00012,0,-0.00017,0.0001,-7e-05,2,6
4688,-3e-05,3e-05,0,-0.00012,0,-0.00017,0.0001,-7e-05,2,6
4689,-3e-05,3e-05,0,-0.00012,0,-0.00017,0.0001,-7e-05,2,6
4690,-3e-05,3e-05,0,-0.00012,0,-0.00017,0.0001,-7e-05,2,6
4691,-3e-05,3e-05,0,-0.00012,0,-0.00017,0.0001,-7e-05,2,6
4692,-3e-05,3e-05,0,-0.00012,0,-0.00017,0.0001,-7e-05,2,6
4693,-3e-05,3e-05,0,-0.00012,0,-0.00017,0.0001,-7e-05,2,6
4694,-3e-05,3e-05,0,-0.00012,0,-0.00017,0.0001,-7e-05,2,6
4695,-3e-05,3e-05,0,-0.00012,0,-0.00017,0.0001,-7e-05,2,6
4696,-3e-05,3e-05,0,-0.00012,0,-0.00017,0.0001,-7e-05,2,6
4697,-3e-05,3e-05,0,-0.00012,0,-0.00017,0.0001,-7e-05,2,6
4698,-3e-05,3e-05,0,-0.00012,0,-0.00017,0.0001,-7e-05,2,6
4699,-3e-05,3e-05,0,-0.00012,0,-0.00017,0.0001,-7e-05,2,6
4700,-3e-05,3e-05,0,-0.00012,0,-0.00017,0.0001,-7e-05,2,6
4701,-3e-05,3e-05,0,-0.00012,0,-0.00017,0.0001,-7e-05,2,6
4702,-3e-05,3e-05,0,-0.00012,0,-0.00017,0.0001,-7e-05,2,6
4703,-3e-05,3e-05,0,-0.00012,0,-0.00017,0.0001,-7e-05,2,6
4704,-3e-05,3e-05,0,-0.00012,0,-0.00017,0.0001,-7e-05,2,6
4705,-3e-05,3e-05,0,-0.00012,0,-0.00017,0.0001,-7e-05,2,6
4706,-3e-05,3e-05,0,-0.00012,0,-0.00017,0.0001,-7e-05,2,6
4707,-3e-05,3e-05,0,-0.00012,0,-0.00017,0.0001,-7e-05,2,6
4708,-3e-05,3e-05,0,-0.00012,0,-0.00017,0.0001,-7e-05,2,6
4709,-3e-05,3e-05,0,-0.00012,0,-0.00017,0.0001,-7e-05,2,6
4710,-3e-05,3e-05,0,-0.00012,0,-0.00017,0.0001,-7e-05,2,6
4711,-3e-05,3e-05,0,-0.00012,0,-0.00017,0.0001,-7e-05,2,6
4712,-3e-05,3e-05,0,-0.00012,0,-0.00017,0.0001,-7e-05,2,6
4713,-3e-05,3e-05,0,-0.00012,0,-0.00017,0.0001,-7e-05,2,6
4714,-3e-05,3e-05,0,-0.00012,0,-0.00017,0.0001,-7e-05,2,6
4715,-0.00018,-0.00017,-0.00011,-0.0001,3e-05,-7e-05,0,-0.00022,2,6
4716,-0.00018,-0.00017,-0.00011,-0.0001,3e-05,-7e-05,0,-0.00022,2,6
4717,0.00024,4e-05,0.00013,-0.00014,7e-05,0.0001,3e-05,0.0001,2,6
4718,0.00024,4e-05,0.00013,-0.00014,7e-05,0.0001,3e-05,0.0001,2,6
4719,0.00024,4e-05,0.00013,-0.00014,7e-05,0.0001,3e-05,0.0001,2,6
4720,0.00024,4e-05,0.00013,-0.00014,7e-05,0.0001,3e-05,0.0001,2,6
4721,-1e-05,4e-05,5e-05,0.00015,-0.00013,-8e-05,5e-05,3e-05,2,6
4722,-1e-05,-7e-05,-0.00012,0.00011,1e-05,0.00011,1e-05,1e-05,2,6
4723,-1e-05,-7e-05,-0.00012,0.00011,1e-05,0.00011,1e-05,1e-05,2,6
4724,-1e-05,-7e-05,-0.00012,0.00011,1e-05,0.00011,1e-05,1e-05,2,6
4725,-1e-05,-7e-05,-0.00012,0.00011,1e-05,0.00011,1e-05,1e-05,2,6
4726,-1e-05,-7e-05,-0.00012,0.00011,1e-05,0.00011,1e-05,1e-05,2,6
4727,-1e-05,-7e-05,-0.00012,0.00011,1e-05,0.00011,1e-05,1e-05,2,6
4728,-1e-05,-7e-05,-0.00012,0.00011,1e-05,0.00011,1e-05,1e-05,2,6
4729,-1e-05,-7e-05,-0.00012,0.00011,1e-05,0.00011,1e-05,1e-05,2,6
4730,-1e-05,-7e-05,-0.00012,0.00011,1e-05,0.00011,1e-05,1e-05,2,6
4731,-1e-05,-7e-05,-0.00012,0.00011,1e-05,0.00011,1e-05,1e-05,2,6
4732,-1e-05,-7e-05,-0.00012,0.00011,1e-05,0.00011,1e-05,1e-05,2,6
4733,-1e-05,-7e-05,-0.00012,0.00011,1e-05,0.00011,1e-05,1e-05,2,6
4734,-1e-05,-7e-05,-0.00012,0.00011,1e-05,0.00011,1e-05,1e-05,2,6
4735,-1e-05,-7e-05,-0.00012,0.00011,1e-05,0.00011,1e-05,1e-05,2,6
4736,-1e-05,-7e-05,-0.00012,0.00011,1e-05,0.00011,1e-05,1e-05,2,6
4738,-1e-05,-7e-05,-0.00012,0.00011,1e-05,0.00011,1e-05,1e-05,2,6
4739,-1e-05,-7e-05,-0.00012,0.00011,1e-05,0.00011,1e-05,1e-05,2,6
4740,-1e-05,-7e-05,-0.00012,0.00011,1e-05,0.00011,1e-05,1e-05,2,6
4741,-1e-05,-7e-05,-0.00012,0.00011,1e-05,0.00011,1e-05,1e-05,2,6
4742,-1e-05,-7e-05,-0.00012,0.00011,1e-05,0.00011,1e-05,1e-05,2,6
4743,-1e-05,-7e-05,-0.00012,0.00011,1e-05,0.00011,1e-05,1e-05,2,6
4744,-1e-05,-7e-05,-0.00012,0.00011,1e-05,0.00011,1e-05,1e-05,2,6
4745,-1e-05,-7e-05,-0.00012,0.00011,1e-05,0.00011,1e-05,1e-05,2,6
4746,-1e-05,-7e-05,-0.00012,0.00011,1e-05,0.00011,1e-05,1e-05,2,6
4747,-1e-05,-7e-05,-0.00012,0.00011,1e-05,0.00011,1e-05,1e-05,2,6
4748,-1e-05,-7e-05,-0.00012,0.00011,1e-05,0.00011,1e-05,1e-05,2,6
4749,-1e-05,-7e-05,-0.00012,0.00011,1e-05,0.00011,1e-05,1e-05,2,6
4750,-1e-05,-7e-05,-0.00012,0.00011,1e-05,0.00011,1e-05,1e-05,2,6
4751,-1e-05,-7e-05,-0.00012,0.00011,1e-05,0.00011,1e-05,1e-05,2,6
4752,-1e-05,-7e-05,-0.00012,0.00011,1e-05,0.00011,1e-05,1e-05,2,6
4753,-1e-05,-7e-05,-0.00012,0.00011,1e-05,0.00011,1e-05,1e-05,2,6
4754,-1e-05,-7e-05,-0.00012,0.00011,1e-05,0.00011,1e-05,1e-05,2,6
4755,-1e-05,-7e-05,-0.00012,0.00011,1e-05,0.00011,1e-05,1e-05,2,6
4756,-1e-05,-7e-05,-0.00012,0.00011,1e-05,0.00011,1e-05,1e-05,2,6
4757,-1e-05,-7e-05,-0.00012,0.00011,1e-05,0.00011,1e-05,1e-05,2,6
4758,-1e-05,-7e-05,-0.00012,0.00011,1e-05,0.00011,1e-05,1e-05,2,6
4759,-1e-05,-7e-05,-0.00012,0.00011,1e-05,0.00011,1e-05,1e-05,2,6
4760,-1e-05,-7e-05,-0.00012,0.00011,1e-05,0.00011,1e-05,1e-05,2,6
4761,-1e-05,-7e-05,-0.00012,0.00011,1e-05,0.00011,1e-05,1e-05,2,6
4762,-1e-05,-7e-05,-0.00012,0.00011,1e-05,0.00011,1e-05,1e-05,2,6
4763,-1e-05,-7e-05,-0.00012,0.00011,1e-05,0.00011,1e-05,1e-05,2,6
4764,-1e-05,-7e-05,-0.00012,0.00011,1e-05,0.00011,1e-05,1e-05,2,6
4765,-1e-05,-7e-05,-0.00012,0.00011,1e-05,0.00011,1e-05,1e-05,2,6
4766,-1e-05,-7e-05,-0.00012,0.00011,1e-05,0.00011,1e-05,1e-05,2,6
4767,-1e-05,-7e-05,-0.00012,0.00011,1e-05,0.00011,1e-05,1e-05,2,6
4768,-1e-05,-7e-05,-0.00012,0.00011,1e-05,0.00011,1e-05,1e-05,2,6
4769,-1e-05,-7e-05,-0.00012,0.00011,1e-05,0.00011,1e-05,1e-05,2,6
4770,-1e-05,-7e-05,-0.00012,0.00011,1e-05,0.00011,1e-05,1e-05,2,6
4771,-1e-05,-7e-05,-0.00012,0.00011,1e-05,0.00011,1e-05,1e-05,2,6
4772,-1e-05,-7e-05,-0.00012,0.00011,1e-05,0.00011,1e-05,1e-05,2,6
4773,-1e-05,-7e-05,-0.00012,0.00011,1e-05,0.00011,1e-05,1e-05,2,6
4774,3e-05,-0.00011,-0.00034,-0.00032,-6e-05,7e-05,0,-6e-05,2,6
4775,0.00012,0.00013,8e-05,-1e-05,-7e-05,-0.00017,4e-05,3e-05,2,6
4776,0.00012,0.00013,8e-05,-1e-05,-7e-05,-0.00017,4e-05,3e-05,2,6
4777,-0.00016,-0.00013,-0.00033,-0.00019,-2e-05,0,4e-05,-6e-05,2,6
4778,-0.00016,-0.00013,-0.00033,-0.00019,-2e-05,0,4e-05,-6e-05,2,6
4779,-0.00016,-0.00013,-0.00033,-0.00019,-2e-05,0,4e-05,-6e-05,2,6
4780,-0.00016,-0.00013,-0.00033,-0.00019,-2e-05,0,4e-05,-6e-05,2,6
4781,-7e-05,-5e-05,-0.00035,-0.00013,-6e-05,0.00013,-4e-05,-2e-05,2,6
4782,-2e-05,-2e-05,-9e-05,-2e-05,0,-0.00024,-0.00015,-0.00013,2,6
4784,-2e-05,-2e-05,-9e-05,-2e-05,0,-0.00024,-0.00015,-0.00013,2,6
4785,-2e-05,-2e-05,-9e-05,-2e-05,0,-0.00024,-0.00015,-0.00013,2,6
4786,-2e-05,-2e-05,-9e-05,-2e-05,0,-0.00024,-0.00015,-0.00013,2,6
4788,-2e-05,-2e-05,-9e-05,-2e-05,0,-0.00024,-0.00015,-0.00013,2,6
4789,-2e-05,-2e-05,-9e-05,-2e-05,0,-0.00024,-0.00015,-0.00013,2,6
4790,-2e-05,-2e-05,-9e-05,-2e-05,0,-0.00024,-0.00015,-0.00013,2,6
4791,-2e-05,-2e-05,-9e-05,-2e-05,0,-0.00024,-0.00015,-0.00013,2,6
4792,-2e-05,-2e-05,-9e-05,-2e-05,0,-0.00024,-0.00015,-0.00013,2,6
4793,-2e-05,-2e-05,-9e-05,-2e-05,0,-0.00024,-0.00015,-0.00013,2,6
4794,-2e-05,-2e-05,-9e-05,-2e-05,0,-0.00024,-0.00015,-0.00013,2,6
4795,-2e-05,-2e-05,-9e-05,-2e-05,0,-0.00024,-0.00015,-0.00013,2,6
4796,-2e-05,-2e-05,-9e-05,-2e-05,0,-0.00024,-0.00015,-0.00013,2,6
4797,-2e-05,-2e-05,-9e-05,-2e-05,0,-0.00024,-0.00015,-0.00013,2,6
4798,-2e-05,-2e-05,-9e-05,-2e-05,0,-0.00024,-0.00015,-0.00013,2,6
4799,-2e-05,-2e-05,-9e-05,-2e-05,0,-0.00024,-0.00015,-0.00013,2,6
4800,-2e-05,-2e-05,-9e-05,-2e-05,0,-0.00024,-0.00015,-0.00013,2,6
4801,-2e-05,-2e-05,-9e-05,-2e-05,0,-0.00024,-0.00015,-0.00013,2,6
4802,-2e-05,-2e-05,-9e-05,-2e-05,0,-0.00024,-0.00015,-0.00013,2,6
4803,-2e-05,-2e-05,-9e-05,-2e-05,0,-0.00024,-0.00015,-0.00013,2,6
4804,-2e-05,-2e-05,-9e-05,-2e-05,0,-0.00024,-0.00015,-0.00013,2,6
4805,-2e-05,-2e-05,-9e-05,-2e-05,0,-0.00024,-0.00015,-0.00013,2,6
4806,-2e-05,-2e-05,-9e-05,-2e-05,0,-0.00024,-0.00015,-0.00013,2,6
4807,-2e-05,-2e-05,-9e-05,-2e-05,0,-0.00024,-0.00015,-0.00013,2,6
4808,-2e-05,-2e-05,-9e-05,-2e-05,0,-0.00024,-0.00015,-0.00013,2,6
4809,-2e-05,-2e-05,-9e-05,-2e-05,0,-0.00024,-0.00015,-0.00013,2,6
4810,-2e-05,-2e-05,-9e-05,-2e-05,0,-0.00024,-0.00015,-0.00013,2,6
4811,-2e-05,-2e-05,-9e-05,-2e-05,0,-0.00024,-0.00015,-0.00013,2,6
4812,-2e-05,-2e-05,-9e-05,-2e-05,0,-0.00024,-0.00015,-0.00013,2,6
4813,-2e-05,-2e-05,-9e-05,-2e-05,0,-0.00024,-0.00015,-0.00013,2,6
4814,-2e-05,-2e-05,-9e-05,-2e-05,0,-0.00024,-0.00015,-0.00013,2,6
4815,-2e-05,-2e-05,-9e-05,-2e-05,0,-0.00024,-0.00015,-0.00013,2,6
4816,-2e-05,-2e-05,-9e-05,-2e-05,0,-0.00024,-0.00015,-0.00013,2,6
4817,-2e-05,-2e-05,-9e-05,-2e-05,0,-0.00024,-0.00015,-0.00013,2,6
4818,-2e-05,-2e-05,-9e-05,-2e-05,0,-0.00024,-0.00015,-0.00013,2,6
4819,-2e-05,-2e-05,-9e-05,-2e-05,0,-0.00024,-0.00015,-0.00013,2,6
4820,-2e-05,-2e-05,-9e-05,-2e-05,0,-0.00024,-0.00015,-0.00013,2,6
4821,-2e-05,-2e-05,-9e-05,-2e-05,0,-0.00024,-0.00015,-0.00013,2,6
4822,-2e-05,-2e-05,-9e-05,-2e-05,0,-0.00024,-0.00015,-0.00013,2,6
4823,-2e-05,-2e-05,-9e-05,-2e-05,0,-0.00024,-0.00015,-0.00013,2,6
4824,-2e-05,-2e-05,-9e-05,-2e-05,0,-0.00024,-0.00015,-0.00013,2,6
4825,-2e-05,-2e-05,-9e-05,-2e-05,0,-0.00024,-0.00015,-0.00013,2,6
4826,-2e-05,-2e-05,-9e-05,-2e-05,0,-0.00024,-0.00015,-0.00013,2,6
4827,-4e-05,-4e-05,5e-05,0.00011,-4e-05,-9e-05,-0.00011,4e-05,2,6
4828,-4e-05,2e-05,3e-05,0.00011,-2e-05,-0.00013,-6e-05,2e-05,2,6
4829,-6e-05,-1e-05,4e-05,0.00012,1e-05,-5e-05,-4e-05,-5e-05,2,6
4830,6e-05,2e-05,2e-05,-5e-05,0,-4e-05,0.00012,-3e-05,2,6
4831,6e-05,2e-05,2e-05,-5e-05,0,-4e-05,0.00012,-3e-05,2,6
4832,6e-05,2e-05,2e-05,-5e-05,0,-4e-05,0.00012,-3e-05,2,6
4833,-0.00015,-0.00019,-0.00017,-0.00016,-5e-05,-0.00021,-0.00011,-0.00014,2,6
4834,-0.00015,-0.00019,-0.00017,-0.00016,-5e-05,-0.00021,-0.00011,-0.00014,2,6
4835,0.00011,2e-05,-2e-05,-5e-05,-8e-05,-0.00019,-8e-05,0.0001,2,6
4836,0.00011,2e-05,-2e-05,-5e-05,-8e-05,-0.00019,-8e-05,0.0001,2,6
4838,0.00011,2e-05,-2e-05,-5e-05,-8e-05,-0.00019,-8e-05,0.0001,2,6
4839,0.00011,2e-05,-2e-05,-5e-05,-8e-05,-0.00019,-8e-05,0.0001,2,6
4840,0.00011,2e-05,-2e-05,-5e-05,-8e-05,-0.00019,-8e-05,0.0001,2,6
4841,0.00011,2e-05,-2e-05,-5e-05,-8e-05,-0.00019,-8e-05,0.0001,2,6
4842,0.00011,2e-05,-2e-05,-5e-05,-8e-05,-0.00019,-8e-05,0.0001,2,6
4843,0.00011,2e-05,-2e-05,-5e-05,-8e-05,-0.00019,-8e-05,0.0001,2,6
4844,0.00011,2e-05,-2e-05,-5e-05,-8e-05,-0.00019,-8e-05,0.0001,2,6
4845,0.00011,2e-05,-2e-05,-5e-05,-8e-05,-0.00019,-8e-05,0.0001,2,6
4846,0.00011,2e-05,-2e-05,-5e-05,-8e-05,-0.00019,-8e-05,0.0001,2,6
4847,0.00011,2e-05,-2e-05,-5e-05,-8e-05,-0.00019,-8e-05,0.0001,2,6
4848,0.00011,2e-05,-2e-05,-5e-05,-8e-05,-0.00019,-8e-05,0.0001,2,6
4849,0.00011,2e-05,-2e-05,-5e-05,-8e-05,-0.00019,-8e-05,0.0001,2,6
4850,0.00011,2e-05,-2e-05,-5e-05,-8e-05,-0.00019,-8e-05,0.0001,2,6
4851,0.00011,2e-05,-2e-05,-5e-05,-8e-05,-0.00019,-8e-05,0.0001,2,6
4852,0.00011,2e-05,-2e-05,-5e-05,-8e-05,-0.00019,-8e-05,0.0001,2,6
4853,0.00011,2e-05,-2e-05,-5e-05,-8e-05,-0.00019,-8e-05,0.0001,2,6
4854,0.00011,2e-05,-2e-05,-5e-05,-8e-05,-0.00019,-8e-05,0.0001,2,6
4855,0.00011,2e-05,-2e-05,-5e-05,-8e-05,-0.00019,-8e-05,0.0001,2,6
4856,0.00011,2e-05,-2e-05,-5e-05,-8e-05,-0.00019,-8e-05,0.0001,2,6
4857,0.00011,2e-05,-2e-05,-5e-05,-8e-05,-0.00019,-8e-05,0.0001,2,6
4858,0.00011,2e-05,-2e-05,-5e-05,-8e-05,-0.00019,-8e-05,0.0001,2,6
4859,0.00011,2e-05,-2e-05,-5e-05,-8e-05,-0.00019,-8e-05,0.0001,2,6
4860,0.00011,2e-05,-2e-05,-5e-05,-8e-05,-0.00019,-8e-05,0.0001,2,6
4861,0.00011,2e-05,-2e-05,-5e-05,-8e-05,-0.00019,-8e-05,0.0001,2,6
4862,0.00011,2e-05,-2e-05,-5e-05,-8e-05,-0.00019,-8e-05,0.0001,2,6
4863,0.00011,2e-05,-2e-05,-5e-05,-8e-05,-0.00019,-8e-05,0.0001,2,6
4864,0.00011,2e-05,-2e-05,-5e-05,-8e-05,-0.00019,-8e-05,0.0001,2,6
4865,0.00011,2e-05,-2e-05,-5e-05,-8e-05,-0.00019,-8e-05,0.0001,2,6
4866,0.00011,2e-05,-2e-05,-5e-05,-8e-05,-0.00019,-8e-05,0.0001,2,6
4867,0.00011,2e-05,-2e-05,-5e-05,-8e-05,-0.00019,-8e-05,0.0001,2,6
4868,0.00011,2e-05,-2e-05,-5e-05,-8e-05,-0.00019,-8e-05,0.0001,2,6
4869,0.00011,2e-05,-2e-05,-5e-05,-8e-05,-0.00019,-8e-05,0.0001,2,6
4870,0.00011,2e-05,-2e-05,-5e-05,-8e-05,-0.00019,-8e-05,0.0001,2,6
4871,0.00011,2e-05,-2e-05,-5e-05,-8e-05,-0.00019,-8e-05,0.0001,2,6
4872,0.00011,2e-05,-2e-05,-5e-05,-8e-05,-0.00019,-8e-05,0.0001,2,6
4873,0.00011,2e-05,-2e-05,-5e-05,-8e-05,-0.00019,-8e-05,0.0001,2,6
4874,0.00011,2e-05,-2e-05,-5e-05,-8e-05,-0.00019,-8e-05,0.0001,2,6
4875,0.00011,2e-05,-2e-05,-5e-05,-8e-05,-0.00019,-8e-05,0.0001,2,6
4876,0.00011,2e-05,-2e-05,-5e-05,-8e-05,-0.00019,-8e-05,0.0001,2,6
4877,0.00011,2e-05,-2e-05,-5e-05,-8e-05,-0.00019,-8e-05,0.0001,2,6
4878,0.00011,2e-05,-2e-05,-5e-05,-8e-05,-0.00019,-8e-05,0.0001,2,6
4879,0.00011,2e-05,-2e-05,-5e-05,-8e-05,-0.00019,-8e-05,0.0001,2,6
4880,0.0002,5e-05,-0.0001,-6e-05,-2e-05,0,2e-05,0.00012,2,6
4881,-2e-05,2e-05,9e-05,-1e-05,-1e-05,8e-05,2e-05,-8e-05,2,6
4882,-1e-05,7e-05,0.00029,1e-05,1e-05,2e-05,-8e-05,-4e-05,2,6
4883,-1e-05,7e-05,0.00029,1e-05,1e-05,2e-05,-8e-05,-4e-05,2,6
4884,-1e-05,7e-05,0.00029,1e-05,1e-05,2e-05,-8e-05,-4e-05,2,6
4885,-1e-05,7e-05,0.00029,1e-05,1e-05,2e-05,-8e-05,-4e-05,2,6
4886,-1e-05,7e-05,0.00029,1e-05,1e-05,2e-05,-8e-05,-4e-05,2,6
4889,-3e-05,0.00011,0.00023,0.00013,0,7e-05,0,-1e-05,2,6
4890,-3e-05,0.00011,0.00023,0.00013,0,7e-05,0,-1e-05,2,6
4891,-3e-05,0.00011,0.00023,0.00013,0,7e-05,0,-1e-05,2,6
4892,-3e-05,0.00011,0.00023,0.00013,0,7e-05,0,-1e-05,2,6
4893,-3e-05,0.00011,0.00023,0.00013,0,7e-05,0,-1e-05,2,6
4894,-3e-05,0.00011,0.00023,0.00013,0,7e-05,0,-1e-05,2,6
4895,-3e-05,0.00011,0.00023,0.00013,0,7e-05,0,-1e-05,2,6
4896,-3e-05,0.00011,0.00023,0.00013,0,7e-05,0,-1e-05,2,6
4897,-3e-05,0.00011,0.00023,0.00013,0,7e-05,0,-1e-05,2,6
4898,-3e-05,0.00011,0.00023,0.00013,0,7e-05,0,-1e-05,2,6
4899,-3e-05,0.00011,0.00023,0.00013,0,7e-05,0,-1e-05,2,6
4900,-3e-05,0.00011,0.00023,0.00013,0,7e-05,0,-1e-05,2,6
4901,-3e-05,0.00011,0.00023,0.00013,0,7e-05,0,-1e-05,2,6
4902,-3e-05,0.00011,0.00023,0.00013,0,7e-05,0,-1e-05,2,6
4903,-3e-05,0.00011,0.00023,0.00013,0,7e-05,0,-1e-05,2,6
4904,-3e-05,0.00011,0.00023,0.00013,0,7e-05,0,-1e-05,2,6
4905,-3e-05,0.00011,0.00023,0.00013,0,7e-05,0,-1e-05,2,6
4906,-3e-05,0.00011,0.00023,0.00013,0,7e-05,0,-1e-05,2,6
4907,-3e-05,0.00011,0.00023,0.00013,0,7e-05,0,-1e-05,2,6
4908,-3e-05,0.00011,0.00023,0.00013,0,7e-05,0,-1e-05,2,6
4909,-3e-05,0.00011,0.00023,0.00013,0,7e-05,0,-1e-05,2,6
4910,-3e-05,0.00011,0.00023,0.00013,0,7e-05,0,-1e-05,2,6
4911,-3e-05,0.00011,0.00023,0.00013,0,7e-05,0,-1e-05,2,6
4912,-3e-05,0.00011,0.00023,0.00013,0,7e-05,0,-1e-05,2,6
4913,-3e-05,0.00011,0.00023,0.00013,0,7e-05,0,-1e-05,2,6
4914,-3e-05,0.00011,0.00023,0.00013,0,7e-05,0,-1e-05,2,6
4915,-3e-05,0.00011,0.00023,0.00013,0,7e-05,0,-1e-05,2,6
4916,-3e-05,0.00011,0.00023,0.00013,0,7e-05,0,-1e-05,2,6
4917,-3e-05,0.00011,0.00023,0.00013,0,7e-05,0,-1e-05,2,6
4918,-3e-05,0.00011,0.00023,0.00013,0,7e-05,0,-1e-05,2,6
4919,-3e-05,0.00011,0.00023,0.00013,0,7e-05,0,-1e-05,2,6
4920,-3e-05,0.00011,0.00023,0.00013,0,7e-05,0,-1e-05,2,6
4921,-3e-05,0.00011,0.00023,0.00013,0,7e-05,0,-1e-05,2,6
4922,-3e-05,0.00011,0.00023,0.00013,0,7e-05,0,-1e-05,2,6
4923,-3e-05,0.00011,0.00023,0.00013,0,7e-05,0,-1e-05,2,6
4924,-3e-05,0.00011,0.00023,0.00013,0,7e-05,0,-1e-05,2,6
4925,-3e-05,0.00011,0.00023,0.00013,0,7e-05,0,-1e-05,2,6
4926,-3e-05,0.00011,0.00023,0.00013,0,7e-05,0,-1e-05,2,6
4927,-3e-05,0.00011,0.00023,0.00013,0,7e-05,0,-1e-05,2,6
4928,-3e-05,0.00011,0.00023,0.00013,0,7e-05,0,-1e-05,2,6
4929,-3e-05,0.00011,0.00023,0.00013,0,7e-05,0,-1e-05,2,6
4930,-3e-05,0.00011,0.00023,0.00013,0,7e-05,0,-1e-05,2,6
4931,-3e-05,0.00011,0.00023,0.00013,0,7e-05,0,-1e-05,2,6
4932,7e-05,-2e-05,-0.00016,-0.00011,-6e-05,-0.0001,-0.00011,4e-05,2,6
4933,7e-05,-2e-05,-0.00016,-0.00011,-6e-05,-0.0001,-0.00011,4e-05,2,6
4934,7e-05,-2e-05,-0.00016,-0.00011,-6e-05,-0.0001,-0.00011,4e-05,2,6
4935,7e-05,-2e-05,-0.00016,-0.00011,-6e-05,-0.0001,-0.00011,4e-05,2,6
4936,7e-05,-2e-05,-0.00016,-0.00011,-6e-05,-0.0001,-0.00011,4e-05,2,6
4938,7e-05,-2e-05,-0.00016,-0.00011,-6e-05,-0.0001,-0.00011,4e-05,2,6
4939,7e-05,-2e-05,-0.00016,-0.00011,-6e-05,-0.0001,-0.00011,4e-05,2,6
4940,-7e-05,-0.00011,1e-05,-5e-05,0.00015,-0.0001,-3e-05,-0.0001,2,6
4941,-6e-05,-3e-05,3e-05,-1e-05,-2e-05,-0.0002,-3e-05,-7e-05,2,6
4942,-6e-05,-3e-05,3e-05,-1e-05,-2e-05,-0.0002,-3e-05,-7e-05,2,6
4943,-6e-05,-3e-05,3e-05,-1e-05,-2e-05,-0.0002,-3e-05,-7e-05,2,6
4944,-6e-05,-3e-05,3e-05,-1e-05,-2e-05,-0.0002,-3e-05,-7e-05,2,6
4945,-6e-05,-3e-05,3e-05,-1e-05,-2e-05,-0.0002,-3e-05,-7e-05,2,6
4946,-5e-05,0,0.00011,-1e-05,-2e-05,0.00012,1e-05,1e-05,2,6
4947,5e-05,-1e-05,2e-05,4e-05,-1e-05,-0.00011,-7e-05,-0.00014,2,6
4948,-9e-05,-2e-05,7e-05,-1e-05,-2e-05,-0.00015,2e-05,-2e-05,2,6
4949,0,-1e-05,0.00013,0.00016,4e-05,6e-05,-7e-05,0.00015,2,6
4950,0,-1e-05,0.00013,0.00016,4e-05,6e-05,-7e-05,0.00015,2,6
4951,0,-1e-05,0.00013,0.00016,4e-05,6e-05,-7e-05,0.00015,2,6
4952,0,-1e-05,0.00013,0.00016,4e-05,6e-05,-7e-05,0.00015,2,6
4953,0,-1e-05,0.00013,0.00016,4e-05,6e-05,-7e-05,0.00015,2,6
4954,0,-1e-05,0.00013,0.00016,4e-05,6e-05,-7e-05,0.00015,2,6
4955,0,-1e-05,0.00013,0.00016,4e-05,6e-05,-7e-05,0.00015,2,6
4956,0,-1e-05,0.00013,0.00016,4e-05,6e-05,-7e-05,0.00015,2,6
4957,0,-1e-05,0.00013,0.00016,4e-05,6e-05,-7e-05,0.00015,2,6
4958,0,-1e-05,0.00013,0.00016,4e-05,6e-05,-7e-05,0.00015,2,6
4959,0,-1e-05,0.00013,0.00016,4e-05,6e-05,-7e-05,0.00015,2,6
4960,0,-1e-05,0.00013,0.00016,4e-05,6e-05,-7e-05,0.00015,2,6
4961,0,-1e-05,0.00013,0.00016,4e-05,6e-05,-7e-05,0.00015,2,6
4962,0,-1e-05,0.00013,0.00016,4e-05,6e-05,-7e-05,0.00015,2,6
4963,0,-1e-05,0.00013,0.00016,4e-05,6e-05,-7e-05,0.00015,2,6
4964,0,-1e-05,0.00013,0.00016,4e-05,6e-05,-7e-05,0.00015,2,6
4965,0,-1e-05,0.00013,0.00016,4e-05,6e-05,-7e-05,0.00015,2,6
4966,0,-1e-05,0.00013,0.00016,4e-05,6e-05,-7e-05,0.00015,2,6
4967,0,-1e-05,0.00013,0.00016,4e-05,6e-05,-7e-05,0.00015,2,6
4968,0,-1e-05,0.00013,0.00016,4e-05,6e-05,-7e-05,0.00015,2,6
4969,0,-1e-05,0.00013,0.00016,4e-05,6e-05,-7e-05,0.00015,2,6
4970,0,-1e-05,0.00013,0.00016,4e-05,6e-05,-7e-05,0.00015,2,6
4971,0,-1e-05,0.00013,0.00016,4e-05,6e-05,-7e-05,0.00015,2,6
4972,0,-1e-05,0.00013,0.00016,4e-05,6e-05,-7e-05,0.00015,2,6
4973,0,-1e-05,0.00013,0.00016,4e-05,6e-05,-7e-05,0.00015,2,6
4974,0,-1e-05,0.00013,0.00016,4e-05,6e-05,-7e-05,0.00015,2,6
4975,0,-1e-05,0.00013,0.00016,4e-05,6e-05,-7e-05,0.00015,2,6
4976,0,-1e-05,0.00013,0.00016,4e-05,6e-05,-7e-05,0.00015,2,6
4977,0,-1e-05,0.00013,0.00016,4e-05,6e-05,-7e-05,0.00015,2,6
4978,0,-1e-05,0.00013,0.00016,4e-05,6e-05,-7e-05,0.00015,2,6
4979,0,-1e-05,0.00013,0.00016,4e-05,6e-05,-7e-05,0.00015,2,6
4980,0,-1e-05,0.00013,0.00016,4e-05,6e-05,-7e-05,0.00015,2,6
4981,0,-1e-05,0.00013,0.00016,4e-05,6e-05,-7e-05,0.00015,2,6
4982,0,-1e-05,0.00013,0.00016,4e-05,6e-05,-7e-05,0.00015,2,6
4983,0,-1e-05,0.00013,0.00016,4e-05,6e-05,-7e-05,0.00015,2,6
4984,0,-1e-05,0.00013,0.00016,4e-05,6e-05,-7e-05,0.00015,2,6
4985,0,-1e-05,0.00013,0.00016,4e-05,6e-05,-7e-05,0.00015,2,6
4986,0,-1e-05,0.00013,0.00016,4e-05,6e-05,-7e-05,0.00015,2,6
4988,0,-1e-05,0.00013,0.00016,4e-05,6e-05,-7e-05,0.00015,2,6
4989,0,-1e-05,0.00013,0.00016,4e-05,6e-05,-7e-05,0.00015,2,6
4990,0,-1e-05,0.00013,0.00016,4e-05,6e-05,-7e-05,0.00015,2,6
4991,0,-1e-05,0.00013,0.00016,4e-05,6e-05,-7e-05,0.00015,2,6
4992,-4e-05,-7e-05,-9e-05,-7e-05,1e-05,0.00017,9e-05,1e-05,2,6
4993,-4e-05,-7e-05,-9e-05,-7e-05,1e-05,0.00017,9e-05,1e-05,2,6
4994,-2e-05,0.00018,0.00028,5e-05,-4e-05,-0.00018,-4e-05,-6e-05,2,6
4996,-2e-05,0.00018,0.00028,5e-05,-4e-05,-0.00018,-4e-05,-6e-05,2,6
4997,-2e-05,0.00018,0.00028,5e-05,-4e-05,-0.00018,-4e-05,-6e-05,2,6
4998,2e-05,-6e-05,-0.00012,-0.00015,0,0,5e-05,-1e-05,2,6
4999,0.00014,7e-05,-0.00026,-3e-05,-4e-05,0.00014,6e-05,0.00013,2,6
5000,0.00014,7e-05,-0.00026,-3e-05,-4e-05,0.00014,6e-05,0.00013,2,6
5001,0.00014,7e-05,-0.00026,-3e-05,-4e-05,0.00014,6e-05,0.00013,2,6
5002,0.00014,7e-05,-0.00026,-3e-05,-4e-05,0.00014,6e-05,0.00013,2,6
5003,0.00014,7e-05,-0.00026,-3e-05,-4e-05,0.00014,6e-05,0.00013,2,6
5004,0.00014,7e-05,-0.00026,-3e-05,-4e-05,0.00014,6e-05,0.00013,2,6
5005,0.00014,7e-05,-0.00026,-3e-05,-4e-05,0.00014,6e-05,0.00013,2,6
5006,0.00014,7e-05,-0.00026,-3e-05,-4e-05,0.00014,6e-05,0.00013,2,6
5007,0.00014,7e-05,-0.00026,-3e-05,-4e-05,0.00014,6e-05,0.00013,2,6
5008,0.00014,7e-05,-0.00026,-3e-05,-4e-05,0.00014,6e-05,0.00013,2,6
5009,0.00014,7e-05,-0.00026,-3e-05,-4e-05,0.00014,6e-05,0.00013,2,6
5010,0.00014,7e-05,-0.00026,-3e-05,-4e-05,0.00014,6e-05,0.00013,2,6
5011,0.00014,7e-05,-0.00026,-3e-05,-4e-05,0.00014,6e-05,0.00013,2,6
5012,0.00014,7e-05,-0.00026,-3e-05,-4e-05,0.00014,6e-05,0.00013,2,6
5013,0.00014,7e-05,-0.00026,-3e-05,-4e-05,0.00014,6e-05,0.00013,2,6
5014,0.00014,7e-05,-0.00026,-3e-05,-4e-05,0.00014,6e-05,0.00013,2,6
5015,0.00014,7e-05,-0.00026,-3e-05,-4e-05,0.00014,6e-05,0.00013,2,6
5016,0.00014,7e-05,-0.00026,-3e-05,-4e-05,0.00014,6e-05,0.00013,2,6
5017,0.00014,7e-05,-0.00026,-3e-05,-4e-05,0.00014,6e-05,0.00013,2,6
5018,0.00014,7e-05,-0.00026,-3e-05,-4e-05,0.00014,6e-05,0.00013,2,6
5019,0.00014,7e-05,-0.00026,-3e-05,-4e-05,0.00014,6e-05,0.00013,2,6
5020,0.00014,7e-05,-0.00026,-3e-05,-4e-05,0.00014,6e-05,0.00013,2,6
5021,0.00014,7e-05,-0.00026,-3e-05,-4e-05,0.00014,6e-05,0.00013,2,6
5022,0.00014,7e-05,-0.00026,-3e-05,-4e-05,0.00014,6e-05,0.00013,2,6
5023,0.00014,7e-05,-0.00026,-3e-05,-4e-05,0.00014,6e-05,0.00013,2,6
5024,0.00014,7e-05,-0.00026,-3e-05,-4e-05,0.00014,6e-05,0.00013,2,6
5025,0.00014,7e-05,-0.00026,-3e-05,-4e-05,0.00014,6e-05,0.00013,2,6
5026,0.00014,7e-05,-0.00026,-3e-05,-4e-05,0.00014,6e-05,0.00013,2,6
5027,0.00014,7e-05,-0.00026,-3e-05,-4e-05,0.00014,6e-05,0.00013,2,6
5028,0.00014,7e-05,-0.00026,-3e-05,-4e-05,0.00014,6e-05,0.00013,2,6
5029,0.00014,7e-05,-0.00026,-3e-05,-4e-05,0.00014,6e-05,0.00013,2,6
5030,0.00014,7e-05,-0.00026,-3e-05,-4e-05,0.00014,6e-05,0.00013,2,6
5031,0.00014,7e-05,-0.00026,-3e-05,-4e-05,0.00014,6e-05,0.00013,2,6
5033,0.00014,7e-05,-0.00026,-3e-05,-4e-05,0.00014,6e-05,0.00013,2,6
5034,0.00014,7e-05,-0.00026,-3e-05,-4e-05,0.00014,6e-05,0.00013,2,6
5035,0.00014,7e-05,-0.00026,-3e-05,-4e-05,0.00014,6e-05,0.00013,2,6
5036,0.00014,7e-05,-0.00026,-3e-05,-4e-05,0.00014,6e-05,0.00013,2,6
5038,0.00014,7e-05,-0.00026,-3e-05,-4e-05,0.00014,6e-05,0.00013,2,6
5039,0.00014,7e-05,-0.00026,-3e-05,-4e-05,0.00014,6e-05,0.00013,2,6
5040,0.00014,7e-05,-0.00026,-3e-05,-4e-05,0.00014,6e-05,0.00013,2,6
5041,0.00014,7e-05,-0.00026,-3e-05,-4e-05,0.00014,6e-05,0.00013,2,6
5042,0.00014,7e-05,-0.00026,-3e-05,-4e-05,0.00014,6e-05,0.00013,2,6
5043,0.00014,7e-05,-0.00026,-3e-05,-4e-05,0.00014,6e-05,0.00013,2,6
5044,0.00014,7e-05,-0.00026,-3e-05,-4e-05,0.00014,6e-05,0.00013,2,6
5045,-3e-05,-0.00012,-0.00011,-0.00011,5e-05,0.00013,-1e-05,-6e-05,2,6
5046,-3e-05,-0.00012,-0.00011,-0.00011,5e-05,0.00013,-1e-05,-6e-05,2,6
5047,-3e-05,-0.00012,-0.00011,-0.00011,5e-05,0.00013,-1e-05,-6e-05,2,6
5048,-9e-05,-1e-05,-4e-05,-7e-05,0,8e-05,-2e-05,-3e-05,2,6
5049,-9e-05,-1e-05,-4e-05,-7e-05,0,8e-05,-2e-05,-3e-05,2,6
5050,-9e-05,-1e-05,-4e-05,-7e-05,0,8e-05,-2e-05,-3e-05,2,6
5051,0.00011,1e-05,0.00014,-2e-05,5e-05,-8e-05,-1e-05,-3e-05,2,6
5052,-6e-05,-7e-05,-0.00022,-0.0001,-6e-05,-5e-05,0,-0.00024,2,6
5053,0.00013,0.00013,0.00018,5e-05,-1e-05,0.00014,6e-05,0.00016,2,6
5054,0.00013,0.00013,0.00018,5e-05,-1e-05,0.00014,6e-05,0.00016,2,6
5055,0.00013,0.00013,0.00018,5e-05,-1e-05,0.00014,6e-05,0.00016,2,6
5056,0.00013,0.00013,0.00018,5e-05,-1e-05,0.00014,6e-05,0.00016,2,6
5057,0.00013,0.00013,0.00018,5e-05,-1e-05,0.00014,6e-05,0.00016,2,6
5058,0.00013,0.00013,0.00018,5e-05,-1e-05,0.00014,6e-05,0.00016,2,6
5059,0.00013,0.00013,0.00018,5e-05,-1e-05,0.00014,6e-05,0.00016,2,6
5060,0.00013,0.00013,0.00018,5e-05,-1e-05,0.00014,6e-05,0.00016,2,6
5061,0.00013,0.00013,0.00018,5e-05,-1e-05,0.00014,6e-05,0.00016,2,6
5062,0.00013,0.00013,0.00018,5e-05,-1e-05,0.00014,6e-05,0.00016,2,6
5063,0.00013,0.00013,0.00018,5e-05,-1e-05,0.00014,6e-05,0.00016,2,6
5064,0.00013,0.00013,0.00018,5e-05,-1e-05,0.00014,6e-05,0.00016,2,6
5065,-2e-05,-3e-05,-3e-05,-3e-05,-3e-05,3e-05,-2e-05,2e-05,2,6
5066,4e-05,-2e-05,0.00022,0.0001,-7e-05,-5e-05,-5e-05,9e-05,2,6
5067,4e-05,-2e-05,0.00022,0.0001,-7e-05,-5e-05,-5e-05,9e-05,2,6
5068,4e-05,-2e-05,0.00022,0.0001,-7e-05,-5e-05,-5e-05,9e-05,2,6
5069,4e-05,-2e-05,0.00022,0.0001,-7e-05,-5e-05,-5e-05,9e-05,2,6
5070,4e-05,-2e-05,0.00022,0.0001,-7e-05,-5e-05,-5e-05,9e-05,2,6
5071,4e-05,-2e-05,0.00022,0.0001,-7e-05,-5e-05,-5e-05,9e-05,2,6
5072,4e-05,-2e-05,0.00022,0.0001,-7e-05,-5e-05,-5e-05,9e-05,2,6
5073,4e-05,-2e-05,0.00022,0.0001,-7e-05,-5e-05,-5e-05,9e-05,2,6
5074,4e-05,-2e-05,0.00022,0.0001,-7e-05,-5e-05,-5e-05,9e-05,2,6
5075,4e-05,-2e-05,0.00022,0.0001,-7e-05,-5e-05,-5e-05,9e-05,2,6
5076,4e-05,-2e-05,0.00022,0.0001,-7e-05,-5e-05,-5e-05,9e-05,2,6
5077,4e-05,-2e-05,0.00022,0.0001,-7e-05,-5e-05,-5e-05,9e-05,2,6
5078,4e-05,-2e-05,0.00022,0.0001,-7e-05,-5e-05,-5e-05,9e-05,2,6
5079,4e-05,-2e-05,0.00022,0.0001,-7e-05,-5e-05,-5e-05,9e-05,2,6
5080,4e-05,-2e-05,0.00022,0.0001,-7e-05,-5e-05,-5e-05,9e-05,2,6
5081,4e-05,-2e-05,0.00022,0.0001,-7e-05,-5e-05,-5e-05,9e-05,2,6
5082,4e-05,-2e-05,0.00022,0.0001,-7e-05,-5e-05,-5e-05,9e-05,2,6
5083,4e-05,-2e-05,0.00022,0.0001,-7e-05,-5e-05,-5e-05,9e-05,2,6
5084,4e-05,-2e-05,0.00022,0.0001,-7e-05,-5e-05,-5e-05,9e-05,2,6
5085,4e-05,-2e-05,0.00022,0.0001,-7e-05,-5e-05,-5e-05,9e-05,2,6
5086,4e-05,-2e-05,0.00022,0.0001,-7e-05,-5e-05,-5e-05,9e-05,2,6
5088,4e-05,-2e-05,0.00022,0.0001,-7e-05,-5e-05,-5e-05,9e-05,2,6
5089,4e-05,-2e-05,0.00022,0.0001,-7e-05,-5e-05,-5e-05,9e-05,2,6
5090,4e-05,-2e-05,0.00022,0.0001,-7e-05,-5e-05,-5e-05,9e-05,2,6
5091,4e-05,-2e-05,0.00022,0.0001,-7e-05,-5e-05,-5e-05,9e-05,2,6
5092,4e-05,-2e-05,0.00022,0.0001,-7e-05,-5e-05,-5e-05,9e-05,2,6
5093,4e-05,-2e-05,0.00022,0.0001,-7e-05,-5e-05,-5e-05,9e-05,2,6
5094,4e-05,-2e-05,0.00022,0.0001,-7e-05,-5e-05,-5e-05,9e-05,2,6
5095,4e-05,-2e-05,0.00022,0.0001,-7e-05,-5e-05,-5e-05,9e-05,2,6
5096,4e-05,-2e-05,0.00022,0.0001,-7e-05,-5e-05,-5e-05,9e-05,2,6
5099,4e-05,-2e-05,0.00022,0.0001,-7e-05,-5e-05,-5e-05,9e-05,2,6
5100,0.00014,0.00016,0.00023,0.00011,-1e-05,2e-05,-1e-05,3e-05,2,6
5103,-8e-05,-4e-05,-3e-05,-4e-05,-1e-05,-4e-05,-9e-05,-6e-05,2,6
5104,-0.00012,-8e-05,0.00012,-3e-05,3e-05,7e-05,8e-05,-3e-05,2,6
5105,8e-05,9e-05,9e-05,-3e-05,6e-05,4e-05,0.0001,0.00012,2,6
5106,8e-05,9e-05,9e-05,-3e-05,6e-05,4e-05,0.0001,0.00012,2,6
5107,8e-05,9e-05,9e-05,-3e-05,6e-05,4e-05,0.0001,0.00012,2,6
5108,8e-05,9e-05,9e-05,-3e-05,6e-05,4e-05,0.0001,0.00012,2,6
5109,8e-05,9e-05,9e-05,-3e-05,6e-05,4e-05,0.0001,0.00012,2,6
5110,8e-05,9e-05,9e-05,-3e-05,6e-05,4e-05,0.0001,0.00012,2,6
5111,8e-05,9e-05,9e-05,-3e-05,6e-05,4e-05,0.0001,0.00012,2,6
5112,8e-05,9e-05,9e-05,-3e-05,6e-05,4e-05,0.0001,0.00012,2,6
5113,8e-05,9e-05,9e-05,-3e-05,6e-05,4e-05,0.0001,0.00012,2,6
5114,8e-05,9e-05,9e-05,-3e-05,6e-05,4e-05,0.0001,0.00012,2,6
5115,8e-05,9e-05,9e-05,-3e-05,6e-05,4e-05,0.0001,0.00012,2,6
5116,8e-05,9e-05,9e-05,-3e-05,6e-05,4e-05,0.0001,0.00012,2,6
5117,8e-05,9e-05,9e-05,-3e-05,6e-05,4e-05,0.0001,0.00012,2,6
5118,8e-05,9e-05,9e-05,-3e-05,6e-05,4e-05,0.0001,0.00012,2,6
5119,8e-05,9e-05,9e-05,-3e-05,6e-05,4e-05,0.0001,0.00012,2,6
5120,8e-05,9e-05,9e-05,-3e-05,6e-05,4e-05,0.0001,0.00012,2,6
5121,8e-05,9e-05,9e-05,-3e-05,6e-05,4e-05,0.0001,0.00012,2,6
5122,8e-05,9e-05,9e-05,-3e-05,6e-05,4e-05,0.0001,0.00012,2,6
5123,8e-05,9e-05,9e-05,-3e-05,6e-05,4e-05,0.0001,0.00012,2,6
5124,8e-05,9e-05,9e-05,-3e-05,6e-05,4e-05,0.0001,0.00012,2,6
5125,8e-05,9e-05,9e-05,-3e-05,6e-05,4e-05,0.0001,0.00012,2,6
5126,8e-05,9e-05,9e-05,-3e-05,6e-05,4e-05,0.0001,0.00012,2,6
5127,8e-05,9e-05,9e-05,-3e-05,6e-05,4e-05,0.0001,0.00012,2,6
5128,8e-05,9e-05,9e-05,-3e-05,6e-05,4e-05,0.0001,0.00012,2,6
5129,8e-05,9e-05,9e-05,-3e-05,6e-05,4e-05,0.0001,0.00012,2,6
5130,8e-05,9e-05,9e-05,-3e-05,6e-05,4e-05,0.0001,0.00012,2,6
5131,8e-05,9e-05,9e-05,-3e-05,6e-05,4e-05,0.0001,0.00012,2,6
5132,8e-05,9e-05,9e-05,-3e-05,6e-05,4e-05,0.0001,0.00012,2,6
5133,8e-05,9e-05,9e-05,-3e-05,6e-05,4e-05,0.0001,0.00012,2,6
5134,8e-05,9e-05,9e-05,-3e-05,6e-05,4e-05,0.0001,0.00012,2,6
5135,8e-05,9e-05,9e-05,-3e-05,6e-05,4e-05,0.0001,0.00012,2,6
5136,8e-05,9e-05,9e-05,-3e-05,6e-05,4e-05,0.0001,0.00012,2,6
5138,8e-05,9e-05,9e-05,-3e-05,6e-05,4e-05,0.0001,0.00012,2,6
5139,8e-05,9e-05,9e-05,-3e-05,6e-05,4e-05,0.0001,0.00012,2,6
5140,8e-05,9e-05,9e-05,-3e-05,6e-05,4e-05,0.0001,0.00012,2,6
5141,8e-05,9e-05,9e-05,-3e-05,6e-05,4e-05,0.0001,0.00012,2,6
5142,8e-05,9e-05,9e-05,-3e-05,6e-05,4e-05,0.0001,0.00012,2,6
5143,8e-05,9e-05,9e-05,-3e-05,6e-05,4e-05,0.0001,0.00012,2,6
5144,8e-05,9e-05,9e-05,-3e-05,6e-05,4e-05,0.0001,0.00012,2,6
5145,8e-05,9e-05,9e-05,-3e-05,6e-05,4e-05,0.0001,0.00012,2,6
5146,8e-05,9e-05,9e-05,-3e-05,6e-05,4e-05,0.0001,0.00012,2,6
5147,8e-05,9e-05,9e-05,-3e-05,6e-05,4e-05,0.0001,0.00012,2,6
5148,8e-05,9e-05,9e-05,-3e-05,6e-05,4e-05,0.0001,0.00012,2,6
5149,8e-05,9e-05,9e-05,-3e-05,6e-05,4e-05,0.0001,0.00012,2,6
5150,8e-05,9e-05,9e-05,-3e-05,6e-05,4e-05,0.0001,0.00012,2,6
5151,8e-05,9e-05,9e-05,-3e-05,6e-05,4e-05,0.0001,0.00012,2,6
5152,8e-05,9e-05,9e-05,-3e-05,6e-05,4e-05,0.0001,0.00012,2,6
5153,8e-05,9e-05,9e-05,-3e-05,6e-05,4e-05,0.0001,0.00012,2,6
5154,8e-05,9e-05,9e-05,-3e-05,6e-05,4e-05,0.0001,0.00012,2,6
5155,8e-05,9e-05,9e-05,-3e-05,6e-05,4e-05,0.0001,0.00012,2,6
5156,8e-05,9e-05,9e-05,-3e-05,6e-05,4e-05,0.0001,0.00012,2,6
5157,-5e-05,-3e-05,5e-05,8e-05,-2e-05,-5e-05,-0.0001,-0.00024,2,6
5158,7e-05,7e-05,0,-0.00013,-2e-05,-0.0001,0,0.0001,2,6
5159,7e-05,7e-05,0,-0.00013,-2e-05,-0.0001,0,0.0001,2,6
5160,0,0,9e-05,0.00011,5e-05,9e-05,2e-05,3e-05,2,6
5161,0,0,9e-05,0.00011,5e-05,9e-05,2e-05,3e-05,2,6
5162,0,0,9e-05,0.00011,5e-05,9e-05,2e-05,3e-05,2,6
5163,0,0,9e-05,0.00011,5e-05,9e-05,2e-05,3e-05,2,6
5164,-3e-05,0,-1e-05,2e-05,0,0.00021,0.0001,9e-05,2,6
5165,-3e-05,0,-1e-05,2e-05,0,0.00021,0.0001,9e-05,2,6
5166,-1e-05,0,0.00011,6e-05,2e-05,-0.00014,-2e-05,-3e-05,2,6
5167,-9e-05,-2e-05,0.00027,0.00015,-1e-05,-0.00022,4e-05,0.00018,2,6
5168,-9e-05,-2e-05,0.00027,0.00015,-1e-05,-0.00022,4e-05,0.00018,2,6
5169,-9e-05,-2e-05,0.00027,0.00015,-1e-05,-0.00022,4e-05,0.00018,2,6
5170,-9e-05,-2e-05,0.00027,0.00015,-1e-05,-0.00022,4e-05,0.00018,2,6
5171,-9e-05,-2e-05,0.00027,0.00015,-1e-05,-0.00022,4e-05,0.00018,2,6
5172,-9e-05,-2e-05,0.00027,0.00015,-1e-05,-0.00022,4e-05,0.00018,2,6
5173,-9e-05,-2e-05,0.00027,0.00015,-1e-05,-0.00022,4e-05,0.00018,2,6
5174,-9e-05,-2e-05,0.00027,0.00015,-1e-05,-0.00022,4e-05,0.00018,2,6
5175,-9e-05,-2e-05,0.00027,0.00015,-1e-05,-0.00022,4e-05,0.00018,2,6
5176,-9e-05,-2e-05,0.00027,0.00015,-1e-05,-0.00022,4e-05,0.00018,2,6
5177,-9e-05,-2e-05,0.00027,0.00015,-1e-05,-0.00022,4e-05,0.00018,2,6
5178,-9e-05,-2e-05,0.00027,0.00015,-1e-05,-0.00022,4e-05,0.00018,2,6
5179,-9e-05,-2e-05,0.00027,0.00015,-1e-05,-0.00022,4e-05,0.00018,2,6
5180,-9e-05,-2e-05,0.00027,0.00015,-1e-05,-0.00022,4e-05,0.00018,2,6
5181,-9e-05,-2e-05,0.00027,0.00015,-1e-05,-0.00022,4e-05,0.00018,2,6
5182,-9e-05,-2e-05,0.00027,0.00015,-1e-05,-0.00022,4e-05,0.00018,2,6
5183,-9e-05,-2e-05,0.00027,0.00015,-1e-05,-0.00022,4e-05,0.00018,2,6
5184,-9e-05,-2e-05,0.00027,0.00015,-1e-05,-0.00022,4e-05,0.00018,2,6
5185,-9e-05,-2e-05,0.00027,0.00015,-1e-05,-0.00022,4e-05,0.00018,2,6
5186,-9e-05,-2e-05,0.00027,0.00015,-1e-05,-0.00022,4e-05,0.00018,2,6
5188,-9e-05,-2e-05,0.00027,0.00015,-1e-05,-0.00022,4e-05,0.00018,2,6
5189,-9e-05,-2e-05,0.00027,0.00015,-1e-05,-0.00022,4e-05,0.00018,2,6
5190,-9e-05,-2e-05,0.00027,0.00015,-1e-05,-0.00022,4e-05,0.00018,2,6
5191,-9e-05,-2e-05,0.00027,0.00015,-1e-05,-0.00022,4e-05,0.00018,2,6
5192,-9e-05,-2e-05,0.00027,0.00015,-1e-05,-0.00022,4e-05,0.00018,2,6
5193,-9e-05,-2e-05,0.00027,0.00015,-1e-05,-0.00022,4e-05,0.00018,2,6
5194,-9e-05,-2e-05,0.00027,0.00015,-1e-05,-0.00022,4e-05,0.00018,2,6
5195,-9e-05,-2e-05,0.00027,0.00015,-1e-05,-0.00022,4e-05,0.00018,2,6
5196,-9e-05,-2e-05,0.00027,0.00015,-1e-05,-0.00022,4e-05,0.00018,2,6
5197,-9e-05,-2e-05,0.00027,0.00015,-1e-05,-0.00022,4e-05,0.00018,2,6
5198,-9e-05,-2e-05,0.00027,0.00015,-1e-05,-0.00022,4e-05,0.00018,2,6
5199,-9e-05,-2e-05,0.00027,0.00015,-1e-05,-0.00022,4e-05,0.00018,2,6
5200,-9e-05,-2e-05,0.00027,0.00015,-1e-05,-0.00022,4e-05,0.00018,2,6
5201,-9e-05,-2e-05,0.00027,0.00015,-1e-05,-0.00022,4e-05,0.00018,2,6
5202,-9e-05,-2e-05,0.00027,0.00015,-1e-05,-0.00022,4e-05,0.00018,2,6
5203,-9e-05,-2e-05,0.00027,0.00015,-1e-05,-0.00022,4e-05,0.00018,2,6
5204,-9e-05,-2e-05,0.00027,0.00015,-1e-05,-0.00022,4e-05,0.00018,2,6
5205,-9e-05,-2e-05,0.00027,0.00015,-1e-05,-0.00022,4e-05,0.00018,2,6
5206,-9e-05,-2e-05,0.00027,0.00015,-1e-05,-0.00022,4e-05,0.00018,2,6
5207,-3e-05,-3e-05,2e-05,3e-05,-2e-05,-4e-05,-1e-05,-9e-05,2,6
5208,-3e-05,-3e-05,2e-05,3e-05,-2e-05,-4e-05,-1e-05,-9e-05,2,6
5209,-3e-05,-3e-05,2e-05,3e-05,-2e-05,-4e-05,-1e-05,-9e-05,2,6
5210,-3e-05,-3e-05,2e-05,3e-05,-2e-05,-4e-05,-1e-05,-9e-05,2,6
5211,-3e-05,-3e-05,2e-05,3e-05,-2e-05,-4e-05,-1e-05,-9e-05,2,6
5212,-3e-05,-3e-05,2e-05,3e-05,-2e-05,-4e-05,-1e-05,-9e-05,2,6
5213,-3e-05,-3e-05,2e-05,3e-05,-2e-05,-4e-05,-1e-05,-9e-05,2,6
5214,-3e-05,-3e-05,2e-05,3e-05,-2e-05,-4e-05,-1e-05,-9e-05,2,6
5215,-3e-05,-3e-05,2e-05,3e-05,-2e-05,-4e-05,-1e-05,-9e-05,2,6
5216,-3e-05,-3e-05,2e-05,3e-05,-2e-05,-4e-05,-1e-05,-9e-05,2,6
5217,-2e-05,-1e-05,7e-05,-1e-05,4e-05,-7e-05,3e-05,-8e-05,2,6
5218,-2e-05,-1e-05,7e-05,-1e-05,4e-05,-7e-05,3e-05,-8e-05,2,6
5219,-0.00015,-0.00014,-0.00013,-6e-05,-7e-05,-3e-05,-3e-05,-3e-05,2,6
5220,-0.00015,-0.00014,-0.00013,-6e-05,-7e-05,-3e-05,-3e-05,-3e-05,2,6
5221,-0.00015,-0.00014,-0.00013,-6e-05,-7e-05,-3e-05,-3e-05,-3e-05,2,6
5222,-0.00015,-0.00014,-0.00013,-6e-05,-7e-05,-3e-05,-3e-05,-3e-05,2,6
5223,-0.00015,-0.00014,-0.00013,-6e-05,-7e-05,-3e-05,-3e-05,-3e-05,2,6
5224,8e-05,0.00011,3e-05,0.00015,4e-05,-7e-05,-9e-05,4e-05,2,6
5225,-2e-05,1e-05,-0.00014,-5e-05,-2e-05,-0.00011,-7e-05,-5e-05,2,6
5226,-2e-05,1e-05,-0.00014,-5e-05,-2e-05,-0.00011,-7e-05,-5e-05,2,6
5227,-2e-05,1e-05,-0.00014,-5e-05,-2e-05,-0.00011,-7e-05,-5e-05,2,6
5228,-2e-05,1e-05,-0.00014,-5e-05,-2e-05,-0.00011,-7e-05,-5e-05,2,6
5229,-2e-05,1e-05,-0.00014,-5e-05,-2e-05,-0.00011,-7e-05,-5e-05,2,6
5230,-2e-05,1e-05,-0.00014,-5e-05,-2e-05,-0.00011,-7e-05,-5e-05,2,6
5231,-2e-05,1e-05,-0.00014,-5e-05,-2e-05,-0.00011,-7e-05,-5e-05,2,6
5232,-2e-05,1e-05,-0.00014,-5e-05,-2e-05,-0.00011,-7e-05,-5e-05,2,6
5233,-2e-05,1e-05,-0.00014,-5e-05,-2e-05,-0.00011,-7e-05,-5e-05,2,6
5234,-2e-05,1e-05,-0.00014,-5e-05,-2e-05,-0.00011,-7e-05,-5e-05,2,6
5235,-2e-05,1e-05,-0.00014,-5e-05,-2e-05,-0.00011,-7e-05,-5e-05,2,6
5236,-2e-05,1e-05,-0.00014,-5e-05,-2e-05,-0.00011,-7e-05,-5e-05,2,6
5239,-2e-05,1e-05,-0.00014,-5e-05,-2e-05,-0.00011,-7e-05,-5e-05,2,6
5240,-2e-05,1e-05,-0.00014,-5e-05,-2e-05,-0.00011,-7e-05,-5e-05,2,6
5241,-2e-05,1e-05,-0.00014,-5e-05,-2e-05,-0.00011,-7e-05,-5e-05,2,6
5242,-2e-05,1e-05,-0.00014,-5e-05,-2e-05,-0.00011,-7e-05,-5e-05,2,6
5243,-2e-05,1e-05,-0.00014,-5e-05,-2e-05,-0.00011,-7e-05,-5e-05,2,6
5244,-2e-05,1e-05,-0.00014,-5e-05,-2e-05,-0.00011,-7e-05,-5e-05,2,6
5245,-2e-05,1e-05,-0.00014,-5e-05,-2e-05,-0.00011,-7e-05,-5e-05,2,6
5246,-2e-05,1e-05,-0.00014,-5e-05,-2e-05,-0.00011,-7e-05,-5e-05,2,6
5247,-2e-05,1e-05,-0.00014,-5e-05,-2e-05,-0.00011,-7e-05,-5e-05,2,6
5248,-2e-05,1e-05,-0.00014,-5e-05,-2e-05,-0.00011,-7e-05,-5e-05,2,6
5249,-2e-05,1e-05,-0.00014,-5e-05,-2e-05,-0.00011,-7e-05,-5e-05,2,6
5250,-2e-05,1e-05,-0.00014,-5e-05,-2e-05,-0.00011,-7e-05,-5e-05,2,6
5251,-2e-05,1e-05,-0.00014,-5e-05,-2e-05,-0.00011,-7e-05,-5e-05,2,6
5252,-2e-05,1e-05,-0.00014,-5e-05,-2e-05,-0.00011,-7e-05,-5e-05,2,6
5253,-2e-05,1e-05,-0.00014,-5e-05,-2e-05,-0.00011,-7e-05,-5e-05,2,6
5254,-2e-05,1e-05,-0.00014,-5e-05,-2e-05,-0.00011,-7e-05,-5e-05,2,6
5255,-2e-05,1e-05,-0.00014,-5e-05,-2e-05,-0.00011,-7e-05,-5e-05,2,6
5256,-2e-05,1e-05,-0.00014,-5e-05,-2e-05,-0.00011,-7e-05,-5e-05,2,6
5257,-2e-05,1e-05,-0.00014,-5e-05,-2e-05,-0.00011,-7e-05,-5e-05,2,6
5258,-2e-05,1e-05,-0.00014,-5e-05,-2e-05,-0.00011,-7e-05,-5e-05,2,6
5259,-2e-05,1e-05,-0.00014,-5e-05,-2e-05,-0.00011,-7e-05,-5e-05,2,6
5260,-2e-05,1e-05,-0.00014,-5e-05,-2e-05,-0.00011,-7e-05,-5e-05,2,6
5261,-2e-05,1e-05,-0.00014,-5e-05,-2e-05,-0.00011,-7e-05,-5e-05,2,6
5263,-2e-05,1e-05,-0.00014,-5e-05,-2e-05,-0.00011,-7e-05,-5e-05,2,6
5264,-2e-05,1e-05,-0.00014,-5e-05,-2e-05,-0.00011,-7e-05,-5e-05,2,6
5265,-2e-05,1e-05,-0.00014,-5e-05,-2e-05,-0.00011,-7e-05,-5e-05,2,6
5266,-2e-05,1e-05,-0.00014,-5e-05,-2e-05,-0.00011,-7e-05,-5e-05,2,6
5267,-2e-05,1e-05,-0.00014,-5e-05,-2e-05,-0.00011,-7e-05,-5e-05,2,6
5268,-2e-05,1e-05,-0.00014,-5e-05,-2e-05,-0.00011,-7e-05,-5e-05,2,6
5269,-0.00018,-2e-05,0.00017,0.00011,-5e-05,-4e-05,-5e-05,-0.00013,2,6
5270,2e-05,-1e-05,7e-05,4e-05,2e-05,0.00018,3e-05,-0.00014,2,6
5271,2e-05,-1e-05,7e-05,4e-05,2e-05,0.00018,3e-05,-0.00014,2,6
5272,-3e-05,0,-4e-05,-6e-05,2e-05,0,-2e-05,-1e-05,2,6
5273,-3e-05,0,-4e-05,-6e-05,2e-05,0,-2e-05,-1e-05,2,6
5274,-3e-05,0,-4e-05,-6e-05,2e-05,0,-2e-05,-1e-05,2,6
5275,1e-05,4e-05,-0.00011,-0.00016,-5e-05,2e-05,4e-05,-3e-05,2,6
5276,1e-05,4e-05,-0.00011,-0.00016,-5e-05,2e-05,4e-05,-3e-05,2,6
5277,1e-05,4e-05,-0.00011,-0.00016,-5e-05,2e-05,4e-05,-3e-05,2,6
5278,1e-05,4e-05,-0.00011,-0.00016,-5e-05,2e-05,4e-05,-3e-05,2,6
5279,1e-05,4e-05,-0.00011,-0.00016,-5e-05,2e-05,4e-05,-3e-05,2,6
5280,1e-05,4e-05,-0.00011,-0.00016,-5e-05,2e-05,4e-05,-3e-05,2,6
5281,1e-05,4e-05,-0.00011,-0.00016,-5e-05,2e-05,4e-05,-3e-05,2,6
5282,1e-05,4e-05,-0.00011,-0.00016,-5e-05,2e-05,4e-05,-3e-05,2,6
5283,1e-05,4e-05,-0.00011,-0.00016,-5e-05,2e-05,4e-05,-3e-05,2,6
5284,1e-05,4e-05,-0.00011,-0.00016,-5e-05,2e-05,4e-05,-3e-05,2,6
5285,1e-05,4e-05,-0.00011,-0.00016,-5e-05,2e-05,4e-05,-3e-05,2,6
5286,1e-05,4e-05,-0.00011,-0.00016,-5e-05,2e-05,4e-05,-3e-05,2,6
5288,1e-05,4e-05,-0.00011,-0.00016,-5e-05,2e-05,4e-05,-3e-05,2,6
5289,1e-05,4e-05,-0.00011,-0.00016,-5e-05,2e-05,4e-05,-3e-05,2,6
5290,1e-05,4e-05,-0.00011,-0.00016,-5e-05,2e-05,4e-05,-3e-05,2,6
5291,1e-05,4e-05,-0.00011,-0.00016,-5e-05,2e-05,4e-05,-3e-05,2,6
5292,1e-05,4e-05,-0.00011,-0.00016,-5e-05,2e-05,4e-05,-3e-05,2,6
5293,1e-05,4e-05,-0.00011,-0.00016,-5e-05,2e-05,4e-05,-3e-05,2,6
5294,1e-05,4e-05,-0.00011,-0.00016,-5e-05,2e-05,4e-05,-3e-05,2,6
5295,1e-05,4e-05,-0.00011,-0.00016,-5e-05,2e-05,4e-05,-3e-05,2,6
5296,1e-05,4e-05,-0.00011,-0.00016,-5e-05,2e-05,4e-05,-3e-05,2,6
5297,1e-05,4e-05,-0.00011,-0.00016,-5e-05,2e-05,4e-05,-3e-05,2,6
5298,1e-05,4e-05,-0.00011,-0.00016,-5e-05,2e-05,4e-05,-3e-05,2,6
5299,1e-05,4e-05,-0.00011,-0.00016,-5e-05,2e-05,4e-05,-3e-05,2,6
5300,1e-05,4e-05,-0.00011,-0.00016,-5e-05,2e-05,4e-05,-3e-05,2,6
5301,1e-05,4e-05,-0.00011,-0.00016,-5e-05,2e-05,4e-05,-3e-05,2,6
5302,1e-05,4e-05,-0.00011,-0.00016,-5e-05,2e-05,4e-05,-3e-05,2,6
5303,1e-05,4e-05,-0.00011,-0.00016,-5e-05,2e-05,4e-05,-3e-05,2,6
5304,1e-05,4e-05,-0.00011,-0.00016,-5e-05,2e-05,4e-05,-3e-05,2,6
5305,1e-05,4e-05,-0.00011,-0.00016,-5e-05,2e-05,4e-05,-3e-05,2,6
5306,1e-05,4e-05,-0.00011,-0.00016,-5e-05,2e-05,4e-05,-3e-05,2,6
5307,1e-05,4e-05,-0.00011,-0.00016,-5e-05,2e-05,4e-05,-3e-05,2,6
5308,1e-05,4e-05,-0.00011,-0.00016,-5e-05,2e-05,4e-05,-3e-05,2,6
5309,1e-05,4e-05,-0.00011,-0.00016,-5e-05,2e-05,4e-05,-3e-05,2,6
5310,1e-05,4e-05,-0.00011,-0.00016,-5e-05,2e-05,4e-05,-3e-05,2,6
5311,1e-05,4e-05,-0.00011,-0.00016,-5e-05,2e-05,4e-05,-3e-05,2,6
5312,1e-05,4e-05,-0.00011,-0.00016,-5e-05,2e-05,4e-05,-3e-05,2,6
5313,0.00022,8e-05,2e-05,0.0001,0,0.00024,-3e-05,2e-05,2,6
5314,0.00022,8e-05,2e-05,0.0001,0,0.00024,-3e-05,2e-05,2,6
5315,0.00022,8e-05,2e-05,0.0001,0,0.00024,-3e-05,2e-05,2,6
5316,0.00022,8e-05,2e-05,0.0001,0,0.00024,-3e-05,2e-05,2,6
5317,0.00022,8e-05,2e-05,0.0001,0,0.00024,-3e-05,2e-05,2,6
5318,0.00022,8e-05,2e-05,0.0001,0,0.00024,-3e-05,2e-05,2,6
5319,0.00022,8e-05,2e-05,0.0001,0,0.00024,-3e-05,2e-05,2,6
5320,0.00022,8e-05,2e-05,0.0001,0,0.00024,-3e-05,2e-05,2,6
5321,0.00022,8e-05,2e-05,0.0001,0,0.00024,-3e-05,2e-05,2,6
5322,0,0.00012,0.00024,0.00012,4e-05,-8e-05,-2e-05,-7e-05,2,6
5323,0,0.00012,0.00024,0.00012,4e-05,-8e-05,-2e-05,-7e-05,2,6
5324,0.0001,2e-05,-3e-05,0,-5e-05,0.00021,-2e-05,1e-05,2,6
5325,0.0001,2e-05,-3e-05,0,-5e-05,0.00021,-2e-05,1e-05,2,6
5326,0.0001,2e-05,-3e-05,0,-5e-05,0.00021,-2e-05,1e-05,2,6
5327,0.0001,2e-05,-3e-05,0,-5e-05,0.00021,-2e-05,1e-05,2,6
5328,0.0001,2e-05,-3e-05,0,-5e-05,0.00021,-2e-05,1e-05,2,6
5329,-4e-05,-7e-05,-0.00015,-0.00016,4e-05,0,5e-05,0.00012,2,6
5330,-9e-05,-0.00015,-0.00028,-9e-05,-5e-05,-0.00025,1e-05,-7e-05,2,6
5331,-9e-05,-0.00015,-0.00028,-9e-05,-5e-05,-0.00025,1e-05,-7e-05,2,6
5332,-9e-05,-0.00015,-0.00028,-9e-05,-5e-05,-0.00025,1e-05,-7e-05,2,6
5333,-9e-05,-0.00015,-0.00028,-9e-05,-5e-05,-0.00025,1e-05,-7e-05,2,6
5334,-9e-05,-0.00015,-0.00028,-9e-05,-5e-05,-0.00025,1e-05,-7e-05,2,6
5335,-9e-05,-0.00015,-0.00028,-9e-05,-5e-05,-0.00025,1e-05,-7e-05,2,6
5336,-9e-05,-0.00015,-0.00028,-9e-05,-5e-05,-0.00025,1e-05,-7e-05,2,6
5338,-9e-05,-0.00015,-0.00028,-9e-05,-5e-05,-0.00025,1e-05,-7e-05,2,6
5339,-9e-05,-0.00015,-0.00028,-9e-05,-5e-05,-0.00025,1e-05,-7e-05,2,6
5340,-9e-05,-0.00015,-0.00028,-9e-05,-5e-05,-0.00025,1e-05,-7e-05,2,6
5341,-9e-05,-0.00015,-0.00028,-9e-05,-5e-05,-0.00025,1e-05,-7e-05,2,6
5342,-9e-05,-0.00015,-0.00028,-9e-05,-5e-05,-0.00025,1e-05,-7e-05,2,6
5343,-9e-05,-0.00015,-0.00028,-9e-05,-5e-05,-0.00025,1e-05,-7e-05,2,6
5344,-9e-05,-0.00015,-0.00028,-9e-05,-5e-05,-0.00025,1e-05,-7e-05,2,6
5345,-9e-05,-0.00015,-0.00028,-9e-05,-5e-05,-0.00025,1e-05,-7e-05,2,6
5346,-9e-05,-0.00015,-0.00028,-9e-05,-5e-05,-0.00025,1e-05,-7e-05,2,6
5347,-9e-05,-0.00015,-0.00028,-9e-05,-5e-05,-0.00025,1e-05,-7e-05,2,6
5348,-9e-05,-0.00015,-0.00028,-9e-05,-5e-05,-0.00025,1e-05,-7e-05,2,6
5349,-9e-05,-0.00015,-0.00028,-9e-05,-5e-05,-0.00025,1e-05,-7e-05,2,6
5350,-9e-05,-0.00015,-0.00028,-9e-05,-5e-05,-0.00025,1e-05,-7e-05,2,6
5351,-9e-05,-0.00015,-0.00028,-9e-05,-5e-05,-0.00025,1e-05,-7e-05,2,6
5352,-9e-05,-0.00015,-0.00028,-9e-05,-5e-05,-0.00025,1e-05,-7e-05,2,6
5353,-9e-05,-0.00015,-0.00028,-9e-05,-5e-05,-0.00025,1e-05,-7e-05,2,6
5354,-9e-05,-0.00015,-0.00028,-9e-05,-5e-05,-0.00025,1e-05,-7e-05,2,6
5355,-9e-05,-0.00015,-0.00028,-9e-05,-5e-05,-0.00025,1e-05,-7e-05,2,6
5356,-9e-05,-0.00015,-0.00028,-9e-05,-5e-05,-0.00025,1e-05,-7e-05,2,6
5357,-9e-05,-0.00015,-0.00028,-9e-05,-5e-05,-0.00025,1e-05,-7e-05,2,6
5358,-9e-05,-0.00015,-0.00028,-9e-05,-5e-05,-0.00025,1e-05,-7e-05,2,6
5359,-9e-05,-0.00015,-0.00028,-9e-05,-5e-05,-0.00025,1e-05,-7e-05,2,6
5360,-9e-05,-0.00015,-0.00028,-9e-05,-5e-05,-0.00025,1e-05,-7e-05,2,6
5361,-9e-05,-0.00015,-0.00028,-9e-05,-5e-05,-0.00025,1e-05,-7e-05,2,6
5362,-9e-05,-0.00015,-0.00028,-9e-05,-5e-05,-0.00025,1e-05,-7e-05,2,6
5363,-9e-05,-0.00015,-0.00028,-9e-05,-5e-05,-0.00025,1e-05,-7e-05,2,6
5364,-9e-05,-0.00015,-0.00028,-9e-05,-5e-05,-0.00025,1e-05,-7e-05,2,6
5365,-9e-05,-0.00015,-0.00028,-9e-05,-5e-05,-0.00025,1e-05,-7e-05,2,6
5366,-9e-05,-0.00015,-0.00028,-9e-05,-5e-05,-0.00025,1e-05,-7e-05,2,6
5367,-9e-05,-0.00015,-0.00028,-9e-05,-5e-05,-0.00025,1e-05,-7e-05,2,6
5368,-9e-05,-0.00015,-0.00028,-9e-05,-5e-05,-0.00025,1e-05,-7e-05,2,6
5369,-9e-05,-0.00015,-0.00028,-9e-05,-5e-05,-0.00025,1e-05,-7e-05,2,6
5370,-9e-05,-0.00015,-0.00028,-9e-05,-5e-05,-0.00025,1e-05,-7e-05,2,6
5371,-9e-05,-0.00015,-0.00028,-9e-05,-5e-05,-0.00025,1e-05,-7e-05,2,6
5372,-9e-05,-0.00015,-0.00028,-9e-05,-5e-05,-0.00025,1e-05,-7e-05,2,6
5373,7e-05,0.00015,0.00022,0.00014,1e-05,-4e-05,-0.00012,-4e-05,2,6
5374,-3e-05,-1e-05,0,-9e-05,2e-05,-2e-05,-5e-05,5e-05,2,6
5375,-3e-05,-1e-05,0,-9e-05,2e-05,-2e-05,-5e-05,5e-05,2,6
5376,-3e-05,-1e-05,0,-9e-05,2e-05,-2e-05,-5e-05,5e-05,2,6
5377,-3e-05,-1e-05,0,-9e-05,2e-05,-2e-05,-5e-05,5e-05,2,6
5378,-3e-05,-1e-05,0,-9e-05,2e-05,-2e-05,-5e-05,5e-05,2,6
5379,-3e-05,-1e-05,0,-9e-05,2e-05,-2e-05,-5e-05,5e-05,2,6
5380,-3e-05,-1e-05,0,-9e-05,2e-05,-2e-05,-5e-05,5e-05,2,6
5381,-3e-05,-1e-05,0,-9e-05,2e-05,-2e-05,-5e-05,5e-05,2,6
5382,-0.00012,-9e-05,-0.00015,-1e-05,-1e-05,-7e-05,-2e-05,-9e-05,2,6
5383,0.0001,0.00011,0,5e-05,1e-05,2e-05,-4e-05,6e-05,2,6
5384,0.0001,0.00011,0,5e-05,1e-05,2e-05,-4e-05,6e-05,2,6
5385,0.0001,0.00011,0,5e-05,1e-05,2e-05,-4e-05,6e-05,2,6
5386,0.0001,0.00011,0,5e-05,1e-05,2e-05,-4e-05,6e-05,2,6
5388,-0.0003,-3e-05,7e-05,-0.00011,-5e-05,-0.00011,-6e-05,-1e-05,2,6
5389,0.0001,8e-05,0.00017,0.00011,1e-05,0.00015,-4e-05,0.0001,2,6
5390,0.0001,8e-05,0.00017,0.00011,1e-05,0.00015,-4e-05,0.0001,2,6
5391,0.0001,8e-05,0.00017,0.00011,1e-05,0.00015,-4e-05,0.0001,2,6
5392,0.0001,8e-05,0.00017,0.00011,1e-05,0.00015,-4e-05,0.0001,2,6
5393,0.0001,8e-05,0.00017,0.00011,1e-05,0.00015,-4e-05,0.0001,2,6
5394,0.0001,8e-05,0.00017,0.00011,1e-05,0.00015,-4e-05,0.0001,2,6
5395,0.0001,8e-05,0.00017,0.00011,1e-05,0.00015,-4e-05,0.0001,2,6
5396,0.0001,8e-05,0.00017,0.00011,1e-05,0.00015,-4e-05,0.0001,2,6
5397,0.0001,8e-05,0.00017,0.00011,1e-05,0.00015,-4e-05,0.0001,2,6
5398,0.0001,8e-05,0.00017,0.00011,1e-05,0.00015,-4e-05,0.0001,2,6
5399,0.0001,8e-05,0.00017,0.00011,1e-05,0.00015,-4e-05,0.0001,2,6
5400,0.0001,8e-05,0.00017,0.00011,1e-05,0.00015,-4e-05,0.0001,2,6
5401,0.0001,8e-05,0.00017,0.00011,1e-05,0.00015,-4e-05,0.0001,2,6
5402,0.0001,8e-05,0.00017,0.00011,1e-05,0.00015,-4e-05,0.0001,2,6
5403,0.0001,8e-05,0.00017,0.00011,1e-05,0.00015,-4e-05,0.0001,2,6
5404,0.0001,8e-05,0.00017,0.00011,1e-05,0.00015,-4e-05,0.0001,2,6
5405,0.0001,8e-05,0.00017,0.00011,1e-05,0.00015,-4e-05,0.0001,2,6
5406,0.0001,8e-05,0.00017,0.00011,1e-05,0.00015,-4e-05,0.0001,2,6
5407,0.0001,8e-05,0.00017,0.00011,1e-05,0.00015,-4e-05,0.0001,2,6
5408,0.0001,8e-05,0.00017,0.00011,1e-05,0.00015,-4e-05,0.0001,2,6
5409,0.0001,8e-05,0.00017,0.00011,1e-05,0.00015,-4e-05,0.0001,2,6
5410,0.0001,8e-05,0.00017,0.00011,1e-05,0.00015,-4e-05,0.0001,2,6
5411,0.0001,8e-05,0.00017,0.00011,1e-05,0.00015,-4e-05,0.0001,2,6
5412,0.0001,8e-05,0.00017,0.00011,1e-05,0.00015,-4e-05,0.0001,2,6
5413,0.0001,8e-05,0.00017,0.00011,1e-05,0.00015,-4e-05,0.0001,2,6
5414,0.0001,8e-05,0.00017,0.00011,1e-05,0.00015,-4e-05,0.0001,2,6
5415,0.0001,8e-05,0.00017,0.00011,1e-05,0.00015,-4e-05,0.0001,2,6
5416,0.0001,8e-05,0.00017,0.00011,1e-05,0.00015,-4e-05,0.0001,2,6
5417,0.0001,8e-05,0.00017,0.00011,1e-05,0.00015,-4e-05,0.0001,2,6
5418,0.0001,8e-05,0.00017,0.00011,1e-05,0.00015,-4e-05,0.0001,2,6
5419,0.0001,8e-05,0.00017,0.00011,1e-05,0.00015,-4e-05,0.0001,2,6
5420,0.0001,8e-05,0.00017,0.00011,1e-05,0.00015,-4e-05,0.0001,2,6
5421,0.0001,8e-05,0.00017,0.00011,1e-05,0.00015,-4e-05,0.0001,2,6
5422,0.0001,8e-05,0.00017,0.00011,1e-05,0.00015,-4e-05,0.0001,2,6
5423,0.0001,8e-05,0.00017,0.00011,1e-05,0.00015,-4e-05,0.0001,2,6
5424,0.0001,8e-05,0.00017,0.00011,1e-05,0.00015,-4e-05,0.0001,2,6
5425,0.0001,8e-05,0.00017,0.00011,1e-05,0.00015,-4e-05,0.0001,2,6
5426,0.0001,8e-05,0.00017,0.00011,1e-05,0.00015,-4e-05,0.0001,2,6
5427,0.0001,8e-05,0.00017,0.00011,1e-05,0.00015,-4e-05,0.0001,2,6
5428,0.0001,8e-05,0.00017,0.00011,1e-05,0.00015,-4e-05,0.0001,2,6
5429,0.0001,8e-05,0.00017,0.00011,1e-05,0.00015,-4e-05,0.0001,2,6
5430,0.0001,8e-05,0.00017,0.00011,1e-05,0.00015,-4e-05,0.0001,2,6
5431,0.0001,8e-05,0.00017,0.00011,1e-05,0.00015,-4e-05,0.0001,2,6
5432,0.0001,8e-05,0.00017,0.00011,1e-05,0.00015,-4e-05,0.0001,2,6
5433,0.0001,8e-05,0.00017,0.00011,1e-05,0.00015,-4e-05,0.0001,2,6
5434,-0.0001,-4e-05,0.00011,-8e-05,-7e-05,-0.00037,-0.00013,-0.00014,2,6
5435,-0.00014,-0.00014,-0.00027,-0.00011,-1e-05,-8e-05,-0.00011,-0.00025,2,6
5437,-4e-05,-6e-05,-4e-05,-1e-05,-3e-05,-2e-05,0,0,2,6
5439,-4e-05,-6e-05,-4e-05,-1e-05,-3e-05,-2e-05,0,0,2,6
5440,6e-05,-8e-05,-0.00054,-0.00047,1e-05,0.00028,0.00022,0.00037,2,6
5441,6e-05,-8e-05,-0.00054,-0.00047,1e-05,0.00028,0.00022,0.00037,2,6
5442,6e-05,-8e-05,-0.00054,-0.00047,1e-05,0.00028,0.00022,0.00037,2,6
5443,6e-05,-8e-05,-0.00054,-0.00047,1e-05,0.00028,0.00022,0.00037,2,6
5444,6e-05,-8e-05,-0.00054,-0.00047,1e-05,0.00028,0.00022,0.00037,2,6
5445,6e-05,-8e-05,-0.00054,-0.00047,1e-05,0.00028,0.00022,0.00037,2,6
5446,6e-05,-8e-05,-0.00054,-0.00047,1e-05,0.00028,0.00022,0.00037,2,6
5447,3e-05,-2e-05,4e-05,-4e-05,-7e-05,-0.00013,-4e-05,0,2,6
5448,3e-05,-2e-05,4e-05,-4e-05,-7e-05,-0.00013,-4e-05,0,2,6
5449,3e-05,-2e-05,4e-05,-4e-05,-7e-05,-0.00013,-4e-05,0,2,6
5450,3e-05,-2e-05,4e-05,-4e-05,-7e-05,-0.00013,-4e-05,0,2,6
5451,3e-05,-2e-05,4e-05,-4e-05,-7e-05,-0.00013,-4e-05,0,2,6
5452,3e-05,-2e-05,4e-05,-4e-05,-7e-05,-0.00013,-4e-05,0,2,6
5453,3e-05,-2e-05,4e-05,-4e-05,-7e-05,-0.00013,-4e-05,0,2,6
5454,3e-05,-2e-05,4e-05,-4e-05,-7e-05,-0.00013,-4e-05,0,2,6
5455,3e-05,-2e-05,4e-05,-4e-05,-7e-05,-0.00013,-4e-05,0,2,6
5456,3e-05,-2e-05,4e-05,-4e-05,-7e-05,-0.00013,-4e-05,0,2,6
5457,3e-05,-2e-05,4e-05,-4e-05,-7e-05,-0.00013,-4e-05,0,2,6
5458,3e-05,-2e-05,4e-05,-4e-05,-7e-05,-0.00013,-4e-05,0,2,6
5459,3e-05,-2e-05,4e-05,-4e-05,-7e-05,-0.00013,-4e-05,0,2,6
5460,3e-05,-2e-05,4e-05,-4e-05,-7e-05,-0.00013,-4e-05,0,2,6
5461,3e-05,-2e-05,4e-05,-4e-05,-7e-05,-0.00013,-4e-05,0,2,6
5462,3e-05,-2e-05,4e-05,-4e-05,-7e-05,-0.00013,-4e-05,0,2,6
5463,3e-05,-2e-05,4e-05,-4e-05,-7e-05,-0.00013,-4e-05,0,2,6
5464,3e-05,-2e-05,4e-05,-4e-05,-7e-05,-0.00013,-4e-05,0,2,6
5465,3e-05,-2e-05,4e-05,-4e-05,-7e-05,-0.00013,-4e-05,0,2,6
5466,3e-05,-2e-05,4e-05,-4e-05,-7e-05,-0.00013,-4e-05,0,2,6
5467,3e-05,-2e-05,4e-05,-4e-05,-7e-05,-0.00013,-4e-05,0,2,6
5468,3e-05,-2e-05,4e-05,-4e-05,-7e-05,-0.00013,-4e-05,0,2,6
5469,3e-05,-2e-05,4e-05,-4e-05,-7e-05,-0.00013,-4e-05,0,2,6
5470,3e-05,-2e-05,4e-05,-4e-05,-7e-05,-0.00013,-4e-05,0,2,6
5471,3e-05,-2e-05,4e-05,-4e-05,-7e-05,-0.00013,-4e-05,0,2,6
5472,3e-05,-2e-05,4e-05,-4e-05,-7e-05,-0.00013,-4e-05,0,2,6
5473,3e-05,-2e-05,4e-05,-4e-05,-7e-05,-0.00013,-4e-05,0,2,6
5474,3e-05,-2e-05,4e-05,-4e-05,-7e-05,-0.00013,-4e-05,0,2,6
5475,3e-05,-2e-05,4e-05,-4e-05,-7e-05,-0.00013,-4e-05,0,2,6
5476,3e-05,-2e-05,4e-05,-4e-05,-7e-05,-0.00013,-4e-05,0,2,6
5477,3e-05,-2e-05,4e-05,-4e-05,-7e-05,-0.00013,-4e-05,0,2,6
5478,3e-05,-2e-05,4e-05,-4e-05,-7e-05,-0.00013,-4e-05,0,2,6
5479,3e-05,-2e-05,4e-05,-4e-05,-7e-05,-0.00013,-4e-05,0,2,6
5480,3e-05,-2e-05,4e-05,-4e-05,-7e-05,-0.00013,-4e-05,0,2,6
5481,3e-05,-2e-05,4e-05,-4e-05,-7e-05,-0.00013,-4e-05,0,2,6
5482,3e-05,-2e-05,4e-05,-4e-05,-7e-05,-0.00013,-4e-05,0,2,6
5483,3e-05,-2e-05,4e-05,-4e-05,-7e-05,-0.00013,-4e-05,0,2,6
5484,3e-05,-2e-05,4e-05,-4e-05,-7e-05,-0.00013,-4e-05,0,2,6
5485,3e-05,-2e-05,4e-05,-4e-05,-7e-05,-0.00013,-4e-05,0,2,6
5486,3e-05,-2e-05,4e-05,-4e-05,-7e-05,-0.00013,-4e-05,0,2,6
5489,7e-05,-6e-05,-0.00018,-6e-05,3e-05,5e-05,4e-05,0.00014,2,6
5490,7e-05,-6e-05,-0.00018,-6e-05,3e-05,5e-05,4e-05,0.00014,2,6
5491,7e-05,-6e-05,-0.00018,-6e-05,3e-05,5e-05,4e-05,0.00014,2,6
5492,7e-05,-6e-05,-0.00018,-6e-05,3e-05,5e-05,4e-05,0.00014,2,6
5493,7e-05,-6e-05,-0.00018,-6e-05,3e-05,5e-05,4e-05,0.00014,2,6
5494,7e-05,-6e-05,-0.00018,-6e-05,3e-05,5e-05,4e-05,0.00014,2,6
5495,-8e-05,-0.00011,-6e-05,-0.0001,0,0.00022,0.00014,0,2,6
5496,-4e-05,2e-05,5e-05,0.0001,-1e-05,-6e-05,-2e-05,-6e-05,2,6
5497,9e-05,0.0001,0.00024,0.00015,0,-0.00018,-3e-05,0.00017,2,6
5498,9e-05,0.0001,0.00024,0.00015,0,-0.00018,-3e-05,0.00017,2,6
5499,9e-05,0.0001,0.00024,0.00015,0,-0.00018,-3e-05,0.00017,2,6
5500,9e-05,0.0001,0.00024,0.00015,0,-0.00018,-3e-05,0.00017,2,6
5501,9e-05,0.0001,0.00024,0.00015,0,-0.00018,-3e-05,0.00017,2,6
5502,9e-05,0.0001,0.00024,0.00015,0,-0.00018,-3e-05,0.00017,2,6
5503,9e-05,0.0001,0.00024,0.00015,0,-0.00018,-3e-05,0.00017,2,6
5504,9e-05,0.0001,0.00024,0.00015,0,-0.00018,-3e-05,0.00017,2,6
5505,9e-05,0.0001,0.00024,0.00015,0,-0.00018,-3e-05,0.00017,2,6
5506,9e-05,0.0001,0.00024,0.00015,0,-0.00018,-3e-05,0.00017,2,6
5507,9e-05,0.0001,0.00024,0.00015,0,-0.00018,-3e-05,0.00017,2,6
5508,9e-05,0.0001,0.00024,0.00015,0,-0.00018,-3e-05,0.00017,2,6
5509,9e-05,0.0001,0.00024,0.00015,0,-0.00018,-3e-05,0.00017,2,6
5510,9e-05,0.0001,0.00024,0.00015,0,-0.00018,-3e-05,0.00017,2,6
5511,9e-05,0.0001,0.00024,0.00015,0,-0.00018,-3e-05,0.00017,2,6
5512,9e-05,0.0001,0.00024,0.00015,0,-0.00018,-3e-05,0.00017,2,6
5513,9e-05,0.0001,0.00024,0.00015,0,-0.00018,-3e-05,0.00017,2,6
5514,9e-05,0.0001,0.00024,0.00015,0,-0.00018,-3e-05,0.00017,2,6
5515,9e-05,0.0001,0.00024,0.00015,0,-0.00018,-3e-05,0.00017,2,6
5516,9e-05,0.0001,0.00024,0.00015,0,-0.00018,-3e-05,0.00017,2,6
5517,9e-05,0.0001,0.00024,0.00015,0,-0.00018,-3e-05,0.00017,2,6
5518,9e-05,0.0001,0.00024,0.00015,0,-0.00018,-3e-05,0.00017,2,6
5519,9e-05,0.0001,0.00024,0.00015,0,-0.00018,-3e-05,0.00017,2,6
5520,9e-05,0.0001,0.00024,0.00015,0,-0.00018,-3e-05,0.00017,2,6
5521,9e-05,0.0001,0.00024,0.00015,0,-0.00018,-3e-05,0.00017,2,6
5522,9e-05,0.0001,0.00024,0.00015,0,-0.00018,-3e-05,0.00017,2,6
5523,9e-05,0.0001,0.00024,0.00015,0,-0.00018,-3e-05,0.00017,2,6
5524,9e-05,0.0001,0.00024,0.00015,0,-0.00018,-3e-05,0.00017,2,6
5525,9e-05,0.0001,0.00024,0.00015,0,-0.00018,-3e-05,0.00017,2,6
5526,9e-05,0.0001,0.00024,0.00015,0,-0.00018,-3e-05,0.00017,2,6
5527,9e-05,0.0001,0.00024,0.00015,0,-0.00018,-3e-05,0.00017,2,6
5528,9e-05,0.0001,0.00024,0.00015,0,-0.00018,-3e-05,0.00017,2,6
5529,9e-05,0.0001,0.00024,0.00015,0,-0.00018,-3e-05,0.00017,2,6
5530,9e-05,0.0001,0.00024,0.00015,0,-0.00018,-3e-05,0.00017,2,6
5531,9e-05,0.0001,0.00024,0.00015,0,-0.00018,-3e-05,0.00017,2,6
5532,9e-05,0.0001,0.00024,0.00015,0,-0.00018,-3e-05,0.00017,2,6
5533,9e-05,0.0001,0.00024,0.00015,0,-0.00018,-3e-05,0.00017,2,6
5534,9e-05,0.0001,0.00024,0.00015,0,-0.00018,-3e-05,0.00017,2,6
5535,9e-05,0.0001,0.00024,0.00015,0,-0.00018,-3e-05,0.00017,2,6
5536,9e-05,0.0001,0.00024,0.00015,0,-0.00018,-3e-05,0.00017,2,6
5538,9e-05,0.0001,0.00024,0.00015,0,-0.00018,-3e-05,0.00017,2,6
5539,9e-05,0.0001,0.00024,0.00015,0,-0.00018,-3e-05,0.00017,2,6
5540,9e-05,0.0001,0.00024,0.00015,0,-0.00018,-3e-05,0.00017,2,6
5541,9e-05,0.0001,0.00024,0.00015,0,-0.00018,-3e-05,0.00017,2,6
5542,9e-05,0.0001,0.00024,0.00015,0,-0.00018,-3e-05,0.00017,2,6
5543,9e-05,0.0001,0.00024,0.00015,0,-0.00018,-3e-05,0.00017,2,6
5544,9e-05,0.0001,0.00024,0.00015,0,-0.00018,-3e-05,0.00017,2,6
5545,9e-05,0.0001,0.00024,0.00015,0,-0.00018,-3e-05,0.00017,2,6
5546,9e-05,0.0001,0.00024,0.00015,0,-0.00018,-3e-05,0.00017,2,6
5547,0.00012,-3e-05,-0.00021,-0.00022,-6e-05,0.00015,7e-05,-2e-05,2,6
5548,2e-05,3e-05,5e-05,7e-05,1e-05,-4e-05,-2e-05,4e-05,2,6
5549,2e-05,3e-05,5e-05,7e-05,1e-05,-4e-05,-2e-05,4e-05,2,6
5550,-7e-05,-7e-05,-0.00017,-6e-05,0,-0.00019,1e-05,3e-05,2,6
5551,-7e-05,-7e-05,-0.00017,-6e-05,0,-0.00019,1e-05,3e-05,2,6
5552,-7e-05,-7e-05,-0.00017,-6e-05,0,-0.00019,1e-05,3e-05,2,6
5553,-7e-05,-7e-05,-0.00017,-6e-05,0,-0.00019,1e-05,3e-05,2,6
5554,6e-05,-9e-05,3e-05,1e-05,-0.00014,-0.00017,-4e-05,2e-05,2,6
5555,2e-05,0.0001,-1e-05,-6e-05,2e-05,0.00016,3e-05,-6e-05,2,6
5556,-0.0001,-0.00012,-0.00023,-5e-05,-1e-05,3e-05,-7e-05,-5e-05,2,6
5557,-0.0001,-0.00012,-0.00023,-5e-05,-1e-05,3e-05,-7e-05,-5e-05,2,6
5558,-0.0001,-0.00012,-0.00023,-5e-05,-1e-05,3e-05,-7e-05,-5e-05,2,6
5559,-0.0001,-0.00012,-0.00023,-5e-05,-1e-05,3e-05,-7e-05,-5e-05,2,6
5560,-0.0001,-0.00012,-0.00023,-5e-05,-1e-05,3e-05,-7e-05,-5e-05,2,6
5561,-0.0001,-0.00012,-0.00023,-5e-05,-1e-05,3e-05,-7e-05,-5e-05,2,6
5562,-0.0001,-0.00012,-0.00023,-5e-05,-1e-05,3e-05,-7e-05,-5e-05,2,6
5563,-0.0001,-0.00012,-0.00023,-5e-05,-1e-05,3e-05,-7e-05,-5e-05,2,6
5564,-0.0001,-0.00012,-0.00023,-5e-05,-1e-05,3e-05,-7e-05,-5e-05,2,6
5565,-0.0001,-0.00012,-0.00023,-5e-05,-1e-05,3e-05,-7e-05,-5e-05,2,6
5566,-0.0001,-0.00012,-0.00023,-5e-05,-1e-05,3e-05,-7e-05,-5e-05,2,6
5567,-0.0001,-0.00012,-0.00023,-5e-05,-1e-05,3e-05,-7e-05,-5e-05,2,6
5568,-0.0001,-0.00012,-0.00023,-5e-05,-1e-05,3e-05,-7e-05,-5e-05,2,6
5569,-0.0001,-0.00012,-0.00023,-5e-05,-1e-05,3e-05,-7e-05,-5e-05,2,6
5570,-0.0001,-0.00012,-0.00023,-5e-05,-1e-05,3e-05,-7e-05,-5e-05,2,6
5571,-0.0001,-0.00012,-0.00023,-5e-05,-1e-05,3e-05,-7e-05,-5e-05,2,6
5572,-0.0001,-0.00012,-0.00023,-5e-05,-1e-05,3e-05,-7e-05,-5e-05,2,6
5573,-0.0001,-0.00012,-0.00023,-5e-05,-1e-05,3e-05,-7e-05,-5e-05,2,6
5574,-0.0001,-0.00012,-0.00023,-5e-05,-1e-05,3e-05,-7e-05,-5e-05,2,6
5575,-0.0001,-0.00012,-0.00023,-5e-05,-1e-05,3e-05,-7e-05,-5e-05,2,6
5576,-0.0001,-0.00012,-0.00023,-5e-05,-1e-05,3e-05,-7e-05,-5e-05,2,6
5577,-0.0001,-0.00012,-0.00023,-5e-05,-1e-05,3e-05,-7e-05,-5e-05,2,6
5578,-0.0001,-0.00012,-0.00023,-5e-05,-1e-05,3e-05,-7e-05,-5e-05,2,6
5579,-0.0001,-0.00012,-0.00023,-5e-05,-1e-05,3e-05,-7e-05,-5e-05,2,6
5580,-0.0001,-0.00012,-0.00023,-5e-05,-1e-05,3e-05,-7e-05,-5e-05,2,6
5581,-0.0001,-0.00012,-0.00023,-5e-05,-1e-05,3e-05,-7e-05,-5e-05,2,6
5582,-0.0001,-0.00012,-0.00023,-5e-05,-1e-05,3e-05,-7e-05,-5e-05,2,6
5583,-0.0001,-0.00012,-0.00023,-5e-05,-1e-05,3e-05,-7e-05,-5e-05,2,6
5584,-0.0001,-0.00012,-0.00023,-5e-05,-1e-05,3e-05,-7e-05,-5e-05,2,6
5585,-0.0001,-0.00012,-0.00023,-5e-05,-1e-05,3e-05,-7e-05,-5e-05,2,6
5586,-0.0001,-0.00012,-0.00023,-5e-05,-1e-05,3e-05,-7e-05,-5e-05,2,6
5588,-0.0001,-0.00012,-0.00023,-5e-05,-1e-05,3e-05,-7e-05,-5e-05,2,6
5589,-0.0001,-0.00012,-0.00023,-5e-05,-1e-05,3e-05,-7e-05,-5e-05,2,6
5590,-0.0001,-0.00012,-0.00023,-5e-05,-1e-05,3e-05,-7e-05,-5e-05,2,6
5591,-0.0001,-0.00012,-0.00023,-5e-05,-1e-05,3e-05,-7e-05,-5e-05,2,6
5592,-0.0001,-0.00012,-0.00023,-5e-05,-1e-05,3e-05,-7e-05,-5e-05,2,6
5593,-0.0001,-0.00012,-0.00023,-5e-05,-1e-05,3e-05,-7e-05,-5e-05,2,6
5594,-0.0001,-0.00012,-0.00023,-5e-05,-1e-05,3e-05,-7e-05,-5e-05,2,6
5595,-0.0001,-0.00012,-0.00023,-5e-05,-1e-05,3e-05,-7e-05,-5e-05,2,6
5596,-0.0001,-0.00012,-0.00023,-5e-05,-1e-05,3e-05,-7e-05,-5e-05,2,6
5597,-0.0001,-0.00012,-0.00023,-5e-05,-1e-05,3e-05,-7e-05,-5e-05,2,6
5598,-0.0001,-0.00012,-0.00023,-5e-05,-1e-05,3e-05,-7e-05,-5e-05,2,6
5599,-0.0001,-0.00012,-0.00023,-5e-05,-1e-05,3e-05,-7e-05,-5e-05,2,6
5600,-6e-05,-1e-05,0.00017,0.0001,-7e-05,-7e-05,-0.00015,-0.00019,2,6
5601,-6e-05,-1e-05,0.00017,0.0001,-7e-05,-7e-05,-0.00015,-0.00019,2,6
5602,-4e-05,1e-05,8e-05,-0.0001,5e-05,-0.00018,-0.00011,-2e-05,2,6
5603,-4e-05,1e-05,8e-05,-0.0001,5e-05,-0.00018,-0.00011,-2e-05,2,6
5604,-4e-05,1e-05,8e-05,-0.0001,5e-05,-0.00018,-0.00011,-2e-05,2,6
5605,-4e-05,1e-05,8e-05,-0.0001,5e-05,-0.00018,-0.00011,-2e-05,2,6
5606,-0.00012,0,-3e-05,-3e-05,-3e-05,5e-05,8e-05,-8e-05,2,6
5607,-0.00012,0,-3e-05,-3e-05,-3e-05,5e-05,8e-05,-8e-05,2,6
5608,8e-05,6e-05,0.00015,4e-05,3e-05,-0.00011,0.00012,-5e-05,2,6
5609,4e-05,9e-05,3e-05,-2e-05,-4e-05,-0.00018,2e-05,-7e-05,2,6
5610,4e-05,9e-05,3e-05,-2e-05,-4e-05,-0.00018,2e-05,-7e-05,2,6
5611,4e-05,9e-05,3e-05,-2e-05,-4e-05,-0.00018,2e-05,-7e-05,2,6
5612,4e-05,9e-05,3e-05,-2e-05,-4e-05,-0.00018,2e-05,-7e-05,2,6
5614,4e-05,9e-05,3e-05,-2e-05,-4e-05,-0.00018,2e-05,-7e-05,2,6
5615,4e-05,9e-05,3e-05,-2e-05,-4e-05,-0.00018,2e-05,-7e-05,2,6
5616,4e-05,9e-05,3e-05,-2e-05,-4e-05,-0.00018,2e-05,-7e-05,2,6
5617,4e-05,9e-05,3e-05,-2e-05,-4e-05,-0.00018,2e-05,-7e-05,2,6
5618,4e-05,9e-05,3e-05,-2e-05,-4e-05,-0.00018,2e-05,-7e-05,2,6
5619,4e-05,9e-05,3e-05,-2e-05,-4e-05,-0.00018,2e-05,-7e-05,2,6
5620,4e-05,9e-05,3e-05,-2e-05,-4e-05,-0.00018,2e-05,-7e-05,2,6
5621,4e-05,9e-05,3e-05,-2e-05,-4e-05,-0.00018,2e-05,-7e-05,2,6
5622,4e-05,9e-05,3e-05,-2e-05,-4e-05,-0.00018,2e-05,-7e-05,2,6
5623,4e-05,9e-05,3e-05,-2e-05,-4e-05,-0.00018,2e-05,-7e-05,2,6
5624,4e-05,9e-05,3e-05,-2e-05,-4e-05,-0.00018,2e-05,-7e-05,2,6
5625,4e-05,9e-05,3e-05,-2e-05,-4e-05,-0.00018,2e-05,-7e-05,2,6
5626,4e-05,9e-05,3e-05,-2e-05,-4e-05,-0.00018,2e-05,-7e-05,2,6
5627,4e-05,9e-05,3e-05,-2e-05,-4e-05,-0.00018,2e-05,-7e-05,2,6
5628,4e-05,9e-05,3e-05,-2e-05,-4e-05,-0.00018,2e-05,-7e-05,2,6
5629,4e-05,9e-05,3e-05,-2e-05,-4e-05,-0.00018,2e-05,-7e-05,2,6
5630,4e-05,9e-05,3e-05,-2e-05,-4e-05,-0.00018,2e-05,-7e-05,2,6
5631,4e-05,9e-05,3e-05,-2e-05,-4e-05,-0.00018,2e-05,-7e-05,2,6
5632,4e-05,9e-05,3e-05,-2e-05,-4e-05,-0.00018,2e-05,-7e-05,2,6
5633,4e-05,9e-05,3e-05,-2e-05,-4e-05,-0.00018,2e-05,-7e-05,2,6
5634,4e-05,9e-05,3e-05,-2e-05,-4e-05,-0.00018,2e-05,-7e-05,2,6
5635,4e-05,9e-05,3e-05,-2e-05,-4e-05,-0.00018,2e-05,-7e-05,2,6
5636,4e-05,9e-05,3e-05,-2e-05,-4e-05,-0.00018,2e-05,-7e-05,2,6
5638,4e-05,9e-05,3e-05,-2e-05,-4e-05,-0.00018,2e-05,-7e-05,2,6
5639,4e-05,9e-05,3e-05,-2e-05,-4e-05,-0.00018,2e-05,-7e-05,2,6
5640,4e-05,9e-05,3e-05,-2e-05,-4e-05,-0.00018,2e-05,-7e-05,2,6
5641,4e-05,9e-05,3e-05,-2e-05,-4e-05,-0.00018,2e-05,-7e-05,2,6
5642,4e-05,9e-05,3e-05,-2e-05,-4e-05,-0.00018,2e-05,-7e-05,2,6
5643,4e-05,9e-05,3e-05,-2e-05,-4e-05,-0.00018,2e-05,-7e-05,2,6
5644,0.0001,0.00013,0.00023,6e-05,-4e-05,0.00014,-0.0001,0.00013,2,6
5645,0.0001,0.00013,0.00023,6e-05,-4e-05,0.00014,-0.0001,0.00013,2,6
5646,0.0001,0.00013,0.00023,6e-05,-4e-05,0.00014,-0.0001,0.00013,2,6
5647,0.0001,0.00013,0.00023,6e-05,-4e-05,0.00014,-0.0001,0.00013,2,6
5648,0.0001,0.00013,0.00023,6e-05,-4e-05,0.00014,-0.0001,0.00013,2,6
5649,0.0001,0.00013,0.00023,6e-05,-4e-05,0.00014,-0.0001,0.00013,2,6
5650,0.0001,0.00013,0.00023,6e-05,-4e-05,0.00014,-0.0001,0.00013,2,6
5651,3e-05,-1e-05,0.00012,0.00017,5e-05,-0.00011,-0.00015,-0.00011,2,6
5652,3e-05,-1e-05,0.00012,0.00017,5e-05,-0.00011,-0.00015,-0.00011,2,6
5653,3e-05,-1e-05,0.00012,0.00017,5e-05,-0.00011,-0.00015,-0.00011,2,6
5654,3e-05,-1e-05,0.00012,0.00017,5e-05,-0.00011,-0.00015,-0.00011,2,6
5655,3e-05,-1e-05,0.00012,0.00017,5e-05,-0.00011,-0.00015,-0.00011,2,6
5656,3e-05,-1e-05,0.00012,0.00017,5e-05,-0.00011,-0.00015,-0.00011,2,6
5657,3e-05,-1e-05,0.00012,0.00017,5e-05,-0.00011,-0.00015,-0.00011,2,6
5658,3e-05,-1e-05,0.00012,0.00017,5e-05,-0.00011,-0.00015,-0.00011,2,6
5659,3e-05,-1e-05,0.00012,0.00017,5e-05,-0.00011,-0.00015,-0.00011,2,6
5660,-0.00018,-0.00025,-0.00052,-0.0003,4e-05,-0.00011,3e-05,-6e-05,2,6
5661,4e-05,7e-05,8e-05,-1e-05,-3e-05,-7e-05,-4e-05,7e-05,2,6
5662,4e-05,7e-05,8e-05,-1e-05,-3e-05,-7e-05,-4e-05,7e-05,2,6
5663,4e-05,7e-05,8e-05,-1e-05,-3e-05,-7e-05,-4e-05,7e-05,2,6
5664,4e-05,7e-05,8e-05,-1e-05,-3e-05,-7e-05,-4e-05,7e-05,2,6
5665,0.00015,6e-05,0.00026,0.00019,-3e-05,-5e-05,1e-05,3e-05,2,6
5666,0.00015,6e-05,0.00026,0.00019,-3e-05,-5e-05,1e-05,3e-05,2,6
5667,-0.00011,-0.00011,-0.00019,-7e-05,3e-05,-6e-05,8e-05,0.00015,2,6
5668,-0.00011,-0.00011,-0.00019,-7e-05,3e-05,-6e-05,8e-05,0.00015,2,6
5669,-0.00011,-0.00011,-0.00019,-7e-05,3e-05,-6e-05,8e-05,0.00015,2,6
5670,-0.00011,-0.00011,-0.00019,-7e-05,3e-05,-6e-05,8e-05,0.00015,2,6
5671,-0.00011,-0.00011,-0.00019,-7e-05,3e-05,-6e-05,8e-05,0.00015,2,6
5672,-0.00011,-0.00011,-0.00019,-7e-05,3e-05,-6e-05,8e-05,0.00015,2,6
5673,-0.00011,-0.00011,-0.00019,-7e-05,3e-05,-6e-05,8e-05,0.00015,2,6
5674,-0.00011,-0.00011,-0.00019,-7e-05,3e-05,-6e-05,8e-05,0.00015,2,6
5675,-0.00011,-0.00011,-0.00019,-7e-05,3e-05,-6e-05,8e-05,0.00015,2,6
5676,-0.00011,-0.00011,-0.00019,-7e-05,3e-05,-6e-05,8e-05,0.00015,2,6
5677,-0.00011,-0.00011,-0.00019,-7e-05,3e-05,-6e-05,8e-05,0.00015,2,6
5678,-0.00011,-0.00011,-0.00019,-7e-05,3e-05,-6e-05,8e-05,0.00015,2,6
5679,-0.00011,-0.00011,-0.00019,-7e-05,3e-05,-6e-05,8e-05,0.00015,2,6
5680,-0.00011,-0.00011,-0.00019,-7e-05,3e-05,-6e-05,8e-05,0.00015,2,6
5681,-0.00011,-0.00011,-0.00019,-7e-05,3e-05,-6e-05,8e-05,0.00015,2,6
5682,-0.00011,-0.00011,-0.00019,-7e-05,3e-05,-6e-05,8e-05,0.00015,2,6
5683,-0.00011,-0.00011,-0.00019,-7e-05,3e-05,-6e-05,8e-05,0.00015,2,6
5684,-0.00011,-0.00011,-0.00019,-7e-05,3e-05,-6e-05,8e-05,0.00015,2,6
5685,-0.00011,-0.00011,-0.00019,-7e-05,3e-05,-6e-05,8e-05,0.00015,2,6
5686,-0.00011,-0.00011,-0.00019,-7e-05,3e-05,-6e-05,8e-05,0.00015,2,6
5688,-0.00011,-0.00011,-0.00019,-7e-05,3e-05,-6e-05,8e-05,0.00015,2,6
5689,-0.00011,-0.00011,-0.00019,-7e-05,3e-05,-6e-05,8e-05,0.00015,2,6
5690,-0.00011,-0.00011,-0.00019,-7e-05,3e-05,-6e-05,8e-05,0.00015,2,6
5691,-0.00011,-0.00011,-0.00019,-7e-05,3e-05,-6e-05,8e-05,0.00015,2,6
5692,-0.00011,-0.00011,-0.00019,-7e-05,3e-05,-6e-05,8e-05,0.00015,2,6
5693,-0.00011,-0.00011,-0.00019,-7e-05,3e-05,-6e-05,8e-05,0.00015,2,6
5694,-0.00011,-0.00011,-0.00019,-7e-05,3e-05,-6e-05,8e-05,0.00015,2,6
5695,-0.00011,-0.00011,-0.00019,-7e-05,3e-05,-6e-05,8e-05,0.00015,2,6
5696,-0.00011,-0.00011,-0.00019,-7e-05,3e-05,-6e-05,8e-05,0.00015,2,6
5697,-0.00011,-0.00011,-0.00019,-7e-05,3e-05,-6e-05,8e-05,0.00015,2,6
5698,-0.00011,-0.00011,-0.00019,-7e-05,3e-05,-6e-05,8e-05,0.00015,2,6
5699,-0.00011,-0.00011,-0.00019,-7e-05,3e-05,-6e-05,8e-05,0.00015,2,6
5700,-0.00011,-0.00011,-0.00019,-7e-05,3e-05,-6e-05,8e-05,0.00015,2,6
5701,-0.00011,-0.00011,-0.00019,-7e-05,3e-05,-6e-05,8e-05,0.00015,2,6
5702,-0.00011,-0.00011,-0.00019,-7e-05,3e-05,-6e-05,8e-05,0.00015,2,6
5703,-0.00011,-0.00011,-0.00019,-7e-05,3e-05,-6e-05,8e-05,0.00015,2,6
5704,-1e-05,7e-05,-4e-05,-0.00014,-3e-05,-6e-05,-4e-05,-3e-05,2,6
5705,-1e-05,7e-05,-4e-05,-0.00014,-3e-05,-6e-05,-4e-05,-3e-05,2,6
5706,-1e-05,7e-05,-4e-05,-0.00014,-3e-05,-6e-05,-4e-05,-3e-05,2,6
5707,-1e-05,7e-05,-4e-05,-0.00014,-3e-05,-6e-05,-4e-05,-3e-05,2,6
5708,-1e-05,7e-05,-4e-05,-0.00014,-3e-05,-6e-05,-4e-05,-3e-05,2,6
5709,-1e-05,7e-05,-4e-05,-0.00014,-3e-05,-6e-05,-4e-05,-3e-05,2,6
5710,-1e-05,7e-05,-4e-05,-0.00014,-3e-05,-6e-05,-4e-05,-3e-05,2,6
5711,-1e-05,7e-05,-4e-05,-0.00014,-3e-05,-6e-05,-4e-05,-3e-05,2,6
5712,4e-05,1e-05,7e-05,0,-1e-05,-0.00017,-2e-05,0.00013,2,6
5713,4e-05,1e-05,7e-05,0,-1e-05,-0.00017,-2e-05,0.00013,2,6
5714,-3e-05,-2e-05,-2e-05,4e-05,-9e-05,-1e-05,-7e-05,-1e-05,2,6
5715,-3e-05,-2e-05,-2e-05,4e-05,-9e-05,-1e-05,-7e-05,-1e-05,2,6
5716,-3e-05,-2e-05,-2e-05,4e-05,-9e-05,-1e-05,-7e-05,-1e-05,2,6
5717,-3e-05,-2e-05,-2e-05,4e-05,-9e-05,-1e-05,-7e-05,-1e-05,2,6
5718,-3e-05,-2e-05,-2e-05,4e-05,-9e-05,-1e-05,-7e-05,-1e-05,2,6
5719,-3e-05,-2e-05,-2e-05,4e-05,-9e-05,-1e-05,-7e-05,-1e-05,2,6
5720,-3e-05,-2e-05,-2e-05,4e-05,-9e-05,-1e-05,-7e-05,-1e-05,2,6
5721,-3e-05,-2e-05,-2e-05,4e-05,-9e-05,-1e-05,-7e-05,-1e-05,2,6
5722,-3e-05,-2e-05,-2e-05,4e-05,-9e-05,-1e-05,-7e-05,-1e-05,2,6
5723,-3e-05,-2e-05,-2e-05,4e-05,-9e-05,-1e-05,-7e-05,-1e-05,2,6
5724,-3e-05,-2e-05,-2e-05,4e-05,-9e-05,-1e-05,-7e-05,-1e-05,2,6
5725,1e-05,6e-05,1e-05,6e-05,7e-05,8e-05,-1e-05,-3e-05,2,6
5726,-5e-05,-7e-05,-5e-05,4e-05,5e-05,-2e-05,-1e-05,-0.00015,2,6
5727,-5e-05,-7e-05,-5e-05,4e-05,5e-05,-2e-05,-1e-05,-0.00015,2,6
5728,-5e-05,-7e-05,-5e-05,4e-05,5e-05,-2e-05,-1e-05,-0.00015,2,6
5729,-5e-05,-7e-05,-5e-05,4e-05,5e-05,-2e-05,-1e-05,-0.00015,2,6
5730,-5e-05,-7e-05,-5e-05,4e-05,5e-05,-2e-05,-1e-05,-0.00015,2,6
5731,-5e-05,-7e-05,-5e-05,4e-05,5e-05,-2e-05,-1e-05,-0.00015,2,6
5732,-5e-05,-7e-05,-5e-05,4e-05,5e-05,-2e-05,-1e-05,-0.00015,2,6
5733,-5e-05,-7e-05,-5e-05,4e-05,5e-05,-2e-05,-1e-05,-0.00015,2,6
5734,-5e-05,-7e-05,-5e-05,4e-05,5e-05,-2e-05,-1e-05,-0.00015,2,6
5735,-5e-05,-7e-05,-5e-05,4e-05,5e-05,-2e-05,-1e-05,-0.00015,2,6
5736,-5e-05,-7e-05,-5e-05,4e-05,5e-05,-2e-05,-1e-05,-0.00015,2,6
5738,-5e-05,-7e-05,-5e-05,4e-05,5e-05,-2e-05,-1e-05,-0.00015,2,6
5739,-5e-05,-7e-05,-5e-05,4e-05,5e-05,-2e-05,-1e-05,-0.00015,2,6
5740,-5e-05,-7e-05,-5e-05,4e-05,5e-05,-2e-05,-1e-05,-0.00015,2,6
5741,-5e-05,-7e-05,-5e-05,4e-05,5e-05,-2e-05,-1e-05,-0.00015,2,6
5742,-5e-05,-7e-05,-5e-05,4e-05,5e-05,-2e-05,-1e-05,-0.00015,2,6
5743,-5e-05,-7e-05,-5e-05,4e-05,5e-05,-2e-05,-1e-05,-0.00015,2,6
5744,-5e-05,-7e-05,-5e-05,4e-05,5e-05,-2e-05,-1e-05,-0.00015,2,6
5745,-5e-05,-7e-05,-5e-05,4e-05,5e-05,-2e-05,-1e-05,-0.00015,2,6
5746,-5e-05,-7e-05,-5e-05,4e-05,5e-05,-2e-05,-1e-05,-0.00015,2,6
5747,-5e-05,-7e-05,-5e-05,4e-05,5e-05,-2e-05,-1e-05,-0.00015,2,6
5748,-5e-05,-7e-05,-5e-05,4e-05,5e-05,-2e-05,-1e-05,-0.00015,2,6
5749,-5e-05,-7e-05,-5e-05,4e-05,5e-05,-2e-05,-1e-05,-0.00015,2,6
5750,-5e-05,-7e-05,-5e-05,4e-05,5e-05,-2e-05,-1e-05,-0.00015,2,6
5751,-5e-05,-7e-05,-5e-05,4e-05,5e-05,-2e-05,-1e-05,-0.00015,2,6
5752,-5e-05,-7e-05,-5e-05,4e-05,5e-05,-2e-05,-1e-05,-0.00015,2,6
5753,-5e-05,-7e-05,-5e-05,4e-05,5e-05,-2e-05,-1e-05,-0.00015,2,6
5754,-5e-05,-7e-05,-5e-05,4e-05,5e-05,-2e-05,-1e-05,-0.00015,2,6
5755,-5e-05,-7e-05,-5e-05,4e-05,5e-05,-2e-05,-1e-05,-0.00015,2,6
5756,-5e-05,-7e-05,-5e-05,4e-05,5e-05,-2e-05,-1e-05,-0.00015,2,6
5757,-5e-05,-7e-05,-5e-05,4e-05,5e-05,-2e-05,-1e-05,-0.00015,2,6
5758,-5e-05,-7e-05,-5e-05,4e-05,5e-05,-2e-05,-1e-05,-0.00015,2,6
5759,-5e-05,-7e-05,-5e-05,4e-05,5e-05,-2e-05,-1e-05,-0.00015,2,6
5760,-5e-05,-7e-05,-5e-05,4e-05,5e-05,-2e-05,-1e-05,-0.00015,2,6
5761,-5e-05,-7e-05,-5e-05,4e-05,5e-05,-2e-05,-1e-05,-0.00015,2,6
5762,-5e-05,-7e-05,-5e-05,4e-05,5e-05,-2e-05,-1e-05,-0.00015,2,6
5763,-5e-05,-7e-05,-5e-05,4e-05,5e-05,-2e-05,-1e-05,-0.00015,2,6
5764,3e-05,0,-0.00026,-0.00034,2e-05,0.00017,1e-05,-4e-05,2,6
5765,3e-05,0,-0.00026,-0.00034,2e-05,0.00017,1e-05,-4e-05,2,6
5766,3e-05,0,-0.00026,-0.00034,2e-05,0.00017,1e-05,-4e-05,2,6
5767,3e-05,0,-0.00026,-0.00034,2e-05,0.00017,1e-05,-4e-05,2,6
5768,3e-05,0,-0.00026,-0.00034,2e-05,0.00017,1e-05,-4e-05,2,6
5769,3e-05,0,-0.00026,-0.00034,2e-05,0.00017,1e-05,-4e-05,2,6
5770,3e-05,0,-0.00026,-0.00034,2e-05,0.00017,1e-05,-4e-05,2,6
5771,1e-05,5e-05,6e-05,0.00014,1e-05,-0.00015,-8e-05,-1e-05,2,6
5772,-8e-05,-7e-05,1e-05,-1e-05,-2e-05,4e-05,-2e-05,-3e-05,2,6
5773,-8e-05,-7e-05,1e-05,-1e-05,-2e-05,4e-05,-2e-05,-3e-05,2,6
5774,-8e-05,-7e-05,1e-05,-1e-05,-2e-05,4e-05,-2e-05,-3e-05,2,6
5775,-8e-05,-7e-05,1e-05,-1e-05,-2e-05,4e-05,-2e-05,-3e-05,2,6
5776,-8e-05,-7e-05,1e-05,-1e-05,-2e-05,4e-05,-2e-05,-3e-05,2,6
5777,-8e-05,-7e-05,1e-05,-1e-05,-2e-05,4e-05,-2e-05,-3e-05,2,6
5778,-8e-05,-7e-05,1e-05,-1e-05,-2e-05,4e-05,-2e-05,-3e-05,2,6
5779,-8e-05,-7e-05,1e-05,-1e-05,-2e-05,4e-05,-2e-05,-3e-05,2,6
5780,-8e-05,-7e-05,1e-05,-1e-05,-2e-05,4e-05,-2e-05,-3e-05,2,6
5781,-8e-05,-7e-05,1e-05,-1e-05,-2e-05,4e-05,-2e-05,-3e-05,2,6
5782,-8e-05,-7e-05,1e-05,-1e-05,-2e-05,4e-05,-2e-05,-3e-05,2,6
5783,-8e-05,-7e-05,1e-05,-1e-05,-2e-05,4e-05,-2e-05,-3e-05,2,6
5784,-8e-05,-7e-05,1e-05,-1e-05,-2e-05,4e-05,-2e-05,-3e-05,2,6
5785,-4e-05,-9e-05,-0.00032,-0.00021,-2e-05,-1e-05,-3e-05,-4e-05,2,6
5786,-0.00012,-3e-05,-0.00014,1e-05,-3e-05,-2e-05,-1e-05,-0.00012,2,6
5788,-0.00012,-3e-05,-0.00014,1e-05,-3e-05,-2e-05,-1e-05,-0.00012,2,6
5789,-0.00012,-3e-05,-0.00014,1e-05,-3e-05,-2e-05,-1e-05,-0.00012,2,6
5790,-0.00012,-3e-05,-0.00014,1e-05,-3e-05,-2e-05,-1e-05,-0.00012,2,6
5791,-0.00012,-3e-05,-0.00014,1e-05,-3e-05,-2e-05,-1e-05,-0.00012,2,6
5792,-0.00012,-3e-05,-0.00014,1e-05,-3e-05,-2e-05,-1e-05,-0.00012,2,6
5793,-0.00012,-3e-05,-0.00014,1e-05,-3e-05,-2e-05,-1e-05,-0.00012,2,6
5794,-0.00012,-3e-05,-0.00014,1e-05,-3e-05,-2e-05,-1e-05,-0.00012,2,6
5795,-0.00012,-3e-05,-0.00014,1e-05,-3e-05,-2e-05,-1e-05,-0.00012,2,6
5796,-0.00012,-3e-05,-0.00014,1e-05,-3e-05,-2e-05,-1e-05,-0.00012,2,6
5797,-0.00012,-3e-05,-0.00014,1e-05,-3e-05,-2e-05,-1e-05,-0.00012,2,6
5798,-0.00012,-3e-05,-0.00014,1e-05,-3e-05,-2e-05,-1e-05,-0.00012,2,6
5799,-0.00012,-3e-05,-0.00014,1e-05,-3e-05,-2e-05,-1e-05,-0.00012,2,6
5800,-0.00012,-3e-05,-0.00014,1e-05,-3e-05,-2e-05,-1e-05,-0.00012,2,6
5801,-0.00012,-3e-05,-0.00014,1e-05,-3e-05,-2e-05,-1e-05,-0.00012,2,6
5802,-0.00012,-3e-05,-0.00014,1e-05,-3e-05,-2e-05,-1e-05,-0.00012,2,6
5803,-0.00012,-3e-05,-0.00014,1e-05,-3e-05,-2e-05,-1e-05,-0.00012,2,6
5804,-0.00012,-3e-05,-0.00014,1e-05,-3e-05,-2e-05,-1e-05,-0.00012,2,6
5805,-0.00012,-3e-05,-0.00014,1e-05,-3e-05,-2e-05,-1e-05,-0.00012,2,6
5806,-0.00012,-3e-05,-0.00014,1e-05,-3e-05,-2e-05,-1e-05,-0.00012,2,6
5807,-0.00012,-3e-05,-0.00014,1e-05,-3e-05,-2e-05,-1e-05,-0.00012,2,6
5808,-0.00012,-3e-05,-0.00014,1e-05,-3e-05,-2e-05,-1e-05,-0.00012,2,6
5809,-0.00012,-3e-05,-0.00014,1e-05,-3e-05,-2e-05,-1e-05,-0.00012,2,6
5810,-0.00012,-3e-05,-0.00014,1e-05,-3e-05,-2e-05,-1e-05,-0.00012,2,6
5811,-0.00012,-3e-05,-0.00014,1e-05,-3e-05,-2e-05,-1e-05,-0.00012,2,6
5812,-0.00012,-3e-05,-0.00014,1e-05,-3e-05,-2e-05,-1e-05,-0.00012,2,6
5813,-0.00012,-3e-05,-0.00014,1e-05,-3e-05,-2e-05,-1e-05,-0.00012,2,6
5814,-0.00012,-3e-05,-0.00014,1e-05,-3e-05,-2e-05,-1e-05,-0.00012,2,6
5815,-0.00012,-3e-05,-0.00014,1e-05,-3e-05,-2e-05,-1e-05,-0.00012,2,6
5816,-0.00012,-3e-05,-0.00014,1e-05,-3e-05,-2e-05,-1e-05,-0.00012,2,6
5817,-0.00012,-3e-05,-0.00014,1e-05,-3e-05,-2e-05,-1e-05,-0.00012,2,6
5818,-0.00012,-3e-05,-0.00014,1e-05,-3e-05,-2e-05,-1e-05,-0.00012,2,6
5819,-0.00012,-3e-05,-0.00014,1e-05,-3e-05,-2e-05,-1e-05,-0.00012,2,6
5820,-0.00012,-3e-05,-0.00014,1e-05,-3e-05,-2e-05,-1e-05,-0.00012,2,6
5821,-0.00012,-3e-05,-0.00014,1e-05,-3e-05,-2e-05,-1e-05,-0.00012,2,6
5822,-0.00012,-3e-05,-0.00014,1e-05,-3e-05,-2e-05,-1e-05,-0.00012,2,6
5823,-1e-05,-8e-05,-0.00011,-2e-05,1e-05,5e-05,7e-05,4e-05,2,6
5824,5e-05,-4e-05,3e-05,0.00015,5e-05,3e-05,-5e-05,-2e-05,2,6
5825,5e-05,-4e-05,3e-05,0.00015,5e-05,3e-05,-5e-05,-2e-05,2,6
5826,5e-05,-4e-05,3e-05,0.00015,5e-05,3e-05,-5e-05,-2e-05,2,6
5827,5e-05,-4e-05,3e-05,0.00015,5e-05,3e-05,-5e-05,-2e-05,2,6
5828,5e-05,-4e-05,3e-05,0.00015,5e-05,3e-05,-5e-05,-2e-05,2,6
5829,5e-05,-4e-05,3e-05,0.00015,5e-05,3e-05,-5e-05,-2e-05,2,6
5830,5e-05,-4e-05,3e-05,0.00015,5e-05,3e-05,-5e-05,-2e-05,2,6
5831,-0.0001,3e-05,0,-0.00016,1e-05,0.00012,9e-05,-9e-05,2,6
5832,2e-05,1e-05,-0.00023,0.00017,3e-05,4e-05,5e-05,6e-05,2,6
5833,2e-05,1e-05,-0.00023,0.00017,3e-05,4e-05,5e-05,6e-05,2,6
5834,2e-05,1e-05,-0.00023,0.00017,3e-05,4e-05,5e-05,6e-05,2,6
5835,2e-05,1e-05,-0.00023,0.00017,3e-05,4e-05,5e-05,6e-05,2,6
5836,2e-05,1e-05,-0.00023,0.00017,3e-05,4e-05,5e-05,6e-05,2,6
5838,2e-05,1e-05,-0.00023,0.00017,3e-05,4e-05,5e-05,6e-05,2,6
5839,2e-05,1e-05,-0.00023,0.00017,3e-05,4e-05,5e-05,6e-05,2,6
5840,2e-05,1e-05,-0.00023,0.00017,3e-05,4e-05,5e-05,6e-05,2,6
5841,2e-05,1e-05,-0.00023,0.00017,3e-05,4e-05,5e-05,6e-05,2,6
5842,2e-05,1e-05,-0.00023,0.00017,3e-05,4e-05,5e-05,6e-05,2,6
5843,2e-05,1e-05,-0.00023,0.00017,3e-05,4e-05,5e-05,6e-05,2,6
5844,2e-05,1e-05,-0.00023,0.00017,3e-05,4e-05,5e-05,6e-05,2,6
5845,6e-05,-2e-05,-0.0001,-2e-05,-1e-05,-3e-05,1e-05,2e-05,2,6
5846,-6e-05,2e-05,7e-05,2e-05,-5e-05,6e-05,-2e-05,-1e-05,2,6
5847,0,6e-05,0.00027,0.00011,1e-05,-4e-05,3e-05,3e-05,2,6
5848,0,6e-05,0.00027,0.00011,1e-05,-4e-05,3e-05,3e-05,2,6
5849,0,6e-05,0.00027,0.00011,1e-05,-4e-05,3e-05,3e-05,2,6
5850,0,6e-05,0.00027,0.00011,1e-05,-4e-05,3e-05,3e-05,2,6
5851,0,6e-05,0.00027,0.00011,1e-05,-4e-05,3e-05,3e-05,2,6
5852,0,6e-05,0.00027,0.00011,1e-05,-4e-05,3e-05,3e-05,2,6
5853,0,6e-05,0.00027,0.00011,1e-05,-4e-05,3e-05,3e-05,2,6
5854,0,6e-05,0.00027,0.00011,1e-05,-4e-05,3e-05,3e-05,2,6
5855,0,6e-05,0.00027,0.00011,1e-05,-4e-05,3e-05,3e-05,2,6
5856,0,6e-05,0.00027,0.00011,1e-05,-4e-05,3e-05,3e-05,2,6
5857,0,6e-05,0.00027,0.00011,1e-05,-4e-05,3e-05,3e-05,2,6
5858,0,6e-05,0.00027,0.00011,1e-05,-4e-05,3e-05,3e-05,2,6
5859,0,6e-05,0.00027,0.00011,1e-05,-4e-05,3e-05,3e-05,2,6
5860,0,6e-05,0.00027,0.00011,1e-05,-4e-05,3e-05,3e-05,2,6
5861,0,6e-05,0.00027,0.00011,1e-05,-4e-05,3e-05,3e-05,2,6
5862,0,6e-05,0.00027,0.00011,1e-05,-4e-05,3e-05,3e-05,2,6
5863,0,6e-05,0.00027,0.00011,1e-05,-4e-05,3e-05,3e-05,2,6
5864,0,6e-05,0.00027,0.00011,1e-05,-4e-05,3e-05,3e-05,2,6
5865,0,6e-05,0.00027,0.00011,1e-05,-4e-05,3e-05,3e-05,2,6
5866,0,6e-05,0.00027,0.00011,1e-05,-4e-05,3e-05,3e-05,2,6
5867,0,6e-05,0.00027,0.00011,1e-05,-4e-05,3e-05,3e-05,2,6
5868,0,6e-05,0.00027,0.00011,1e-05,-4e-05,3e-05,3e-05,2,6
5869,-2e-05,-9e-05,-9e-05,-4e-05,-3e-05,-8e-05,-6e-05,2e-05,2,6
5870,7e-05,-1e-05,-5e-05,2e-05,1e-05,3e-05,-5e-05,-4e-05,2,6
5871,7e-05,-1e-05,-5e-05,2e-05,1e-05,3e-05,-5e-05,-4e-05,2,6
5872,7e-05,-1e-05,-5e-05,2e-05,1e-05,3e-05,-5e-05,-4e-05,2,6
5873,7e-05,-1e-05,-5e-05,2e-05,1e-05,3e-05,-5e-05,-4e-05,2,6
5874,7e-05,-1e-05,-5e-05,2e-05,1e-05,3e-05,-5e-05,-4e-05,2,6
5875,7e-05,-1e-05,-5e-05,2e-05,1e-05,3e-05,-5e-05,-4e-05,2,6
5876,7e-05,-1e-05,-5e-05,2e-05,1e-05,3e-05,-5e-05,-4e-05,2,6
5877,7e-05,-1e-05,-5e-05,2e-05,1e-05,3e-05,-5e-05,-4e-05,2,6
5878,7e-05,-1e-05,-5e-05,2e-05,1e-05,3e-05,-5e-05,-4e-05,2,6
5879,7e-05,-1e-05,-5e-05,2e-05,1e-05,3e-05,-5e-05,-4e-05,2,6
5880,7e-05,-1e-05,-5e-05,2e-05,1e-05,3e-05,-5e-05,-4e-05,2,6
5881,7e-05,-1e-05,-5e-05,2e-05,1e-05,3e-05,-5e-05,-4e-05,2,6
5882,7e-05,-1e-05,-5e-05,2e-05,1e-05,3e-05,-5e-05,-4e-05,2,6
5883,7e-05,-1e-05,-5e-05,2e-05,1e-05,3e-05,-5e-05,-4e-05,2,6
5884,7e-05,-1e-05,-5e-05,2e-05,1e-05,3e-05,-5e-05,-4e-05,2,6
5885,7e-05,-1e-05,-5e-05,2e-05,1e-05,3e-05,-5e-05,-4e-05,2,6
5886,7e-05,-1e-05,-5e-05,2e-05,1e-05,3e-05,-5e-05,-4e-05,2,6
5888,7e-05,-1e-05,-5e-05,2e-05,1e-05,3e-05,-5e-05,-4e-05,2,6
5889,7e-05,-1e-05,-5e-05,2e-05,1e-05,3e-05,-5e-05,-4e-05,2,6
5890,7e-05,-1e-05,-5e-05,2e-05,1e-05,3e-05,-5e-05,-4e-05,2,6
5891,-0.00013,-3e-05,-0.0003,-0.00021,5e-05,0.00014,-5e-05,-0.00011,2,6
5892,0.00019,-3e-05,-0.00016,-7e-05,-9e-05,-6e-05,3e-05,0.00019,2,6
5893,0.00019,-3e-05,-0.00016,-7e-05,-9e-05,-6e-05,3e-05,0.00019,2,6
5894,0.00019,-3e-05,-0.00016,-7e-05,-9e-05,-6e-05,3e-05,0.00019,2,6
5895,0.00019,-3e-05,-0.00016,-7e-05,-9e-05,-6e-05,3e-05,0.00019,2,6
5896,0.00019,-3e-05,-0.00016,-7e-05,-9e-05,-6e-05,3e-05,0.00019,2,6
5897,0.00019,-3e-05,-0.00016,-7e-05,-9e-05,-6e-05,3e-05,0.00019,2,6
5898,0.00019,-3e-05,-0.00016,-7e-05,-9e-05,-6e-05,3e-05,0.00019,2,6
5899,0.00019,-3e-05,-0.00016,-7e-05,-9e-05,-6e-05,3e-05,0.00019,2,6
5900,0.00019,-3e-05,-0.00016,-7e-05,-9e-05,-6e-05,3e-05,0.00019,2,6
5901,0.00019,-3e-05,-0.00016,-7e-05,-9e-05,-6e-05,3e-05,0.00019,2,6
5902,0.00019,-3e-05,-0.00016,-7e-05,-9e-05,-6e-05,3e-05,0.00019,2,6
5903,0.00019,-3e-05,-0.00016,-7e-05,-9e-05,-6e-05,3e-05,0.00019,2,6
5904,0.00019,-3e-05,-0.00016,-7e-05,-9e-05,-6e-05,3e-05,0.00019,2,6
5905,0.00019,-3e-05,-0.00016,-7e-05,-9e-05,-6e-05,3e-05,0.00019,2,6
5906,0.00019,-3e-05,-0.00016,-7e-05,-9e-05,-6e-05,3e-05,0.00019,2,6
5907,0.00019,-3e-05,-0.00016,-7e-05,-9e-05,-6e-05,3e-05,0.00019,2,6
5908,0.00019,-3e-05,-0.00016,-7e-05,-9e-05,-6e-05,3e-05,0.00019,2,6
5909,0.00019,-3e-05,-0.00016,-7e-05,-9e-05,-6e-05,3e-05,0.00019,2,6
5910,0.00019,-3e-05,-0.00016,-7e-05,-9e-05,-6e-05,3e-05,0.00019,2,6
5911,0.00019,-3e-05,-0.00016,-7e-05,-9e-05,-6e-05,3e-05,0.00019,2,6
5912,0.00019,-3e-05,-0.00016,-7e-05,-9e-05,-6e-05,3e-05,0.00019,2,6
5913,1e-05,2e-05,-5e-05,2e-05,-0.00011,8e-05,-5e-05,0,2,6
5914,-0.0001,-8e-05,-0.00015,-0.00022,4e-05,6e-05,3e-05,-7e-05,2,6
5915,-0.0001,-8e-05,-0.00015,-0.00022,4e-05,6e-05,3e-05,-7e-05,2,6
5916,-0.0001,-8e-05,-0.00015,-0.00022,4e-05,6e-05,3e-05,-7e-05,2,6
5917,-0.0001,-8e-05,-0.00015,-0.00022,4e-05,6e-05,3e-05,-7e-05,2,6
5918,-0.0001,-8e-05,-0.00015,-0.00022,4e-05,6e-05,3e-05,-7e-05,2,6
5919,-0.0001,-8e-05,-0.00015,-0.00022,4e-05,6e-05,3e-05,-7e-05,2,6
5920,-0.0001,-8e-05,-0.00015,-0.00022,4e-05,6e-05,3e-05,-7e-05,2,6
5921,-0.0001,-8e-05,-0.00015,-0.00022,4e-05,6e-05,3e-05,-7e-05,2,6
5922,-0.0001,-8e-05,-0.00015,-0.00022,4e-05,6e-05,3e-05,-7e-05,2,6
5923,-0.0001,-8e-05,-0.00015,-0.00022,4e-05,6e-05,3e-05,-7e-05,2,6
5924,-0.0001,-8e-05,-0.00015,-0.00022,4e-05,6e-05,3e-05,-7e-05,2,6
5925,-0.0001,-8e-05,-0.00015,-0.00022,4e-05,6e-05,3e-05,-7e-05,2,6
5926,-0.0001,-8e-05,-0.00015,-0.00022,4e-05,6e-05,3e-05,-7e-05,2,6
5927,-0.0001,-8e-05,-0.00015,-0.00022,4e-05,6e-05,3e-05,-7e-05,2,6
5928,-0.0001,-8e-05,-0.00015,-0.00022,4e-05,6e-05,3e-05,-7e-05,2,6
5929,-5e-05,-2e-05,5e-05,-8e-05,-3e-05,2e-05,-1e-05,-4e-05,2,6
5930,-5e-05,-2e-05,5e-05,-8e-05,-3e-05,2e-05,-1e-05,-4e-05,2,6
5931,-5e-05,-2e-05,5e-05,-8e-05,-3e-05,2e-05,-1e-05,-4e-05,2,6
5932,-5e-05,-2e-05,5e-05,-8e-05,-3e-05,2e-05,-1e-05,-4e-05,2,6
5933,-5e-05,-2e-05,5e-05,-8e-05,-3e-05,2e-05,-1e-05,-4e-05,2,6
5934,-5e-05,-2e-05,5e-05,-8e-05,-3e-05,2e-05,-1e-05,-4e-05,2,6
5935,-5e-05,-2e-05,5e-05,-8e-05,-3e-05,2e-05,-1e-05,-4e-05,2,6
5936,-5e-05,-2e-05,5e-05,-8e-05,-3e-05,2e-05,-1e-05,-4e-05,2,6
5938,-5e-05,-2e-05,5e-05,-8e-05,-3e-05,2e-05,-1e-05,-4e-05,2,6
5939,-5e-05,-2e-05,5e-05,-8e-05,-3e-05,2e-05,-1e-05,-4e-05,2,6
5940,-5e-05,-2e-05,5e-05,-8e-05,-3e-05,2e-05,-1e-05,-4e-05,2,6
5941,-5e-05,-2e-05,5e-05,-8e-05,-3e-05,2e-05,-1e-05,-4e-05,2,6
5942,-5e-05,-2e-05,5e-05,-8e-05,-3e-05,2e-05,-1e-05,-4e-05,2,6
5943,-5e-05,-2e-05,5e-05,-8e-05,-3e-05,2e-05,-1e-05,-4e-05,2,6
5944,-5e-05,-2e-05,5e-05,-8e-05,-3e-05,2e-05,-1e-05,-4e-05,2,6
5945,-5e-05,-2e-05,5e-05,-8e-05,-3e-05,2e-05,-1e-05,-4e-05,2,6
5946,-5e-05,-2e-05,5e-05,-8e-05,-3e-05,2e-05,-1e-05,-4e-05,2,6
5947,-5e-05,-2e-05,5e-05,-8e-05,-3e-05,2e-05,-1e-05,-4e-05,2,6
5948,-5e-05,-2e-05,5e-05,-8e-05,-3e-05,2e-05,-1e-05,-4e-05,2,6
5949,-5e-05,-2e-05,5e-05,-8e-05,-3e-05,2e-05,-1e-05,-4e-05,2,6
5950,-5e-05,-2e-05,5e-05,-8e-05,-3e-05,2e-05,-1e-05,-4e-05,2,6
5951,-0.00013,7e-05,0.00019,-1e-05,1e-05,-0.00018,-0.00012,-0.0001,2,6
5952,1e-05,4e-05,0.00015,1e-05,-2e-05,-3e-05,-3e-05,-3e-05,2,6
5953,1e-05,4e-05,0.00015,1e-05,-2e-05,-3e-05,-3e-05,-3e-05,2,6
5954,1e-05,4e-05,0.00015,1e-05,-2e-05,-3e-05,-3e-05,-3e-05,2,6
5955,1e-05,4e-05,0.00015,1e-05,-2e-05,-3e-05,-3e-05,-3e-05,2,6
5956,1e-05,4e-05,0.00015,1e-05,-2e-05,-3e-05,-3e-05,-3e-05,2,6
5957,1e-05,4e-05,0.00015,1e-05,-2e-05,-3e-05,-3e-05,-3e-05,2,6
5958,1e-05,4e-05,0.00015,1e-05,-2e-05,-3e-05,-3e-05,-3e-05,2,6
5959,1e-05,4e-05,0.00015,1e-05,-2e-05,-3e-05,-3e-05,-3e-05,2,6
5960,1e-05,4e-05,0.00015,1e-05,-2e-05,-3e-05,-3e-05,-3e-05,2,6
5961,1e-05,4e-05,0.00015,1e-05,-2e-05,-3e-05,-3e-05,-3e-05,2,6
5962,1e-05,4e-05,0.00015,1e-05,-2e-05,-3e-05,-3e-05,-3e-05,2,6
5963,1e-05,4e-05,0.00015,1e-05,-2e-05,-3e-05,-3e-05,-3e-05,2,6
5964,1e-05,4e-05,0.00015,1e-05,-2e-05,-3e-05,-3e-05,-3e-05,2,6
5965,2e-05,6e-05,7e-05,-2e-05,2e-05,-0.00025,-1e-05,2e-05,2,6
5966,2e-05,6e-05,7e-05,-2e-05,2e-05,-0.00025,-1e-05,2e-05,2,6
5967,2e-05,6e-05,7e-05,-2e-05,2e-05,-0.00025,-1e-05,2e-05,2,6
5968,2e-05,6e-05,7e-05,-2e-05,2e-05,-0.00025,-1e-05,2e-05,2,6
5969,2e-05,6e-05,7e-05,-2e-05,2e-05,-0.00025,-1e-05,2e-05,2,6
5970,2e-05,6e-05,7e-05,-2e-05,2e-05,-0.00025,-1e-05,2e-05,2,6
5971,2e-05,6e-05,7e-05,-2e-05,2e-05,-0.00025,-1e-05,2e-05,2,6
5972,-6e-05,-3e-05,5e-05,0.00013,4e-05,0.00013,8e-05,4e-05,2,6
5973,-4e-05,-8e-05,-6e-05,-4e-05,-6e-05,-3e-05,-5e-05,-2e-05,2,6
5974,-4e-05,-8e-05,-6e-05,-4e-05,-6e-05,-3e-05,-5e-05,-2e-05,2,6
5975,-4e-05,-8e-05,-6e-05,-4e-05,-6e-05,-3e-05,-5e-05,-2e-05,2,6
5976,-4e-05,-8e-05,-6e-05,-4e-05,-6e-05,-3e-05,-5e-05,-2e-05,2,6
5977,-4e-05,-8e-05,-6e-05,-4e-05,-6e-05,-3e-05,-5e-05,-2e-05,2,6
5978,-4e-05,-8e-05,-6e-05,-4e-05,-6e-05,-3e-05,-5e-05,-2e-05,2,6
5979,-4e-05,-8e-05,-6e-05,-4e-05,-6e-05,-3e-05,-5e-05,-2e-05,2,6
5980,-4e-05,-8e-05,-6e-05,-4e-05,-6e-05,-3e-05,-5e-05,-2e-05,2,6
5981,-4e-05,-8e-05,-6e-05,-4e-05,-6e-05,-3e-05,-5e-05,-2e-05,2,6
5982,-4e-05,-8e-05,-6e-05,-4e-05,-6e-05,-3e-05,-5e-05,-2e-05,2,6
5983,-4e-05,-8e-05,-6e-05,-4e-05,-6e-05,-3e-05,-5e-05,-2e-05,2,6
5984,-4e-05,-8e-05,-6e-05,-4e-05,-6e-05,-3e-05,-5e-05,-2e-05,2,6
5985,-4e-05,-8e-05,-6e-05,-4e-05,-6e-05,-3e-05,-5e-05,-2e-05,2,6
5986,-4e-05,-8e-05,-6e-05,-4e-05,-6e-05,-3e-05,-5e-05,-2e-05,2,6
5989,-6e-05,5e-05,7e-05,-2e-05,-1e-05,-3e-05,-0.00011,-0.0001,2,6
5990,-6e-05,5e-05,7e-05,-2e-05,-1e-05,-3e-05,-0.00011,-0.0001,2,6
5991,-6e-05,5e-05,7e-05,-2e-05,-1e-05,-3e-05,-0.00011,-0.0001,2,6
5992,-6e-05,5e-05,7e-05,-2e-05,-1e-05,-3e-05,-0.00011,-0.0001,2,6
5993,-6e-05,5e-05,7e-05,-2e-05,-1e-05,-3e-05,-0.00011,-0.0001,2,6
5994,-6e-05,5e-05,7e-05,-2e-05,-1e-05,-3e-05,-0.00011,-0.0001,2,6
5995,-6e-05,5e-05,7e-05,-2e-05,-1e-05,-3e-05,-0.00011,-0.0001,2,6
5996,-6e-05,5e-05,7e-05,-2e-05,-1e-05,-3e-05,-0.00011,-0.0001,2,6
5997,-6e-05,5e-05,7e-05,-2e-05,-1e-05,-3e-05,-0.00011,-0.0001,2,6
5998,-6e-05,5e-05,7e-05,-2e-05,-1e-05,-3e-05,-0.00011,-0.0001,2,6
5999,-6e-05,5e-05,7e-05,-2e-05,-1e-05,-3e-05,-0.00011,-0.0001,2,6
6000,-6e-05,5e-05,7e-05,-2e-05,-1e-05,-3e-05,-0.00011,-0.0001,2,6
6001,-6e-05,5e-05,7e-05,-2e-05,-1e-05,-3e-05,-0.00011,-0.0001,2,6
6002,-6e-05,5e-05,7e-05,-2e-05,-1e-05,-3e-05,-0.00011,-0.0001,2,6
6003,-6e-05,5e-05,7e-05,-2e-05,-1e-05,-3e-05,-0.00011,-0.0001,2,6
6004,-6e-05,5e-05,7e-05,-2e-05,-1e-05,-3e-05,-0.00011,-0.0001,2,6
6005,-6e-05,5e-05,7e-05,-2e-05,-1e-05,-3e-05,-0.00011,-0.0001,2,6
6006,-6e-05,5e-05,7e-05,-2e-05,-1e-05,-3e-05,-0.00011,-0.0001,2,6
6007,-6e-05,5e-05,7e-05,-2e-05,-1e-05,-3e-05,-0.00011,-0.0001,2,6
6008,-6e-05,5e-05,7e-05,-2e-05,-1e-05,-3e-05,-0.00011,-0.0001,2,6
6009,-6e-05,5e-05,7e-05,-2e-05,-1e-05,-3e-05,-0.00011,-0.0001,2,6
6010,-6e-05,5e-05,7e-05,-2e-05,-1e-05,-3e-05,-0.00011,-0.0001,2,6
6011,2e-05,-4e-05,-8e-05,-5e-05,3e-05,7e-05,2e-05,7e-05,2,6
6012,-0.00013,-6e-05,-5e-05,2e-05,1e-05,-1e-05,-4e-05,-5e-05,2,6
6013,-0.00013,-6e-05,-5e-05,2e-05,1e-05,-1e-05,-4e-05,-5e-05,2,6
6014,-0.00013,-6e-05,-5e-05,2e-05,1e-05,-1e-05,-4e-05,-5e-05,2,6
6015,-0.00013,-6e-05,-5e-05,2e-05,1e-05,-1e-05,-4e-05,-5e-05,2,6
6016,-0.00013,-6e-05,-5e-05,2e-05,1e-05,-1e-05,-4e-05,-5e-05,2,6
6017,-0.00013,-6e-05,-5e-05,2e-05,1e-05,-1e-05,-4e-05,-5e-05,2,6
6018,-0.00013,-6e-05,-5e-05,2e-05,1e-05,-1e-05,-4e-05,-5e-05,2,6
6019,-0.00013,-6e-05,-5e-05,2e-05,1e-05,-1e-05,-4e-05,-5e-05,2,6
6020,-0.00013,-6e-05,-5e-05,2e-05,1e-05,-1e-05,-4e-05,-5e-05,2,6
6021,-0.00013,-6e-05,-5e-05,2e-05,1e-05,-1e-05,-4e-05,-5e-05,2,6
6022,-0.00013,-6e-05,-5e-05,2e-05,1e-05,-1e-05,-4e-05,-5e-05,2,6
6023,-0.00013,-6e-05,-5e-05,2e-05,1e-05,-1e-05,-4e-05,-5e-05,2,6
6024,-0.00013,-6e-05,-5e-05,2e-05,1e-05,-1e-05,-4e-05,-5e-05,2,6
6025,-0.00013,-6e-05,-5e-05,2e-05,1e-05,-1e-05,-4e-05,-5e-05,2,6
6026,-0.00013,-6e-05,-5e-05,2e-05,1e-05,-1e-05,-4e-05,-5e-05,2,6
6027,-0.00013,-6e-05,-5e-05,2e-05,1e-05,-1e-05,-4e-05,-5e-05,2,6
6028,-0.00013,-6e-05,-5e-05,2e-05,1e-05,-1e-05,-4e-05,-5e-05,2,6
6029,-0.00013,-6e-05,-5e-05,2e-05,1e-05,-1e-05,-4e-05,-5e-05,2,6
6030,-0.00013,-6e-05,-5e-05,2e-05,1e-05,-1e-05,-4e-05,-5e-05,2,6
6031,-0.00013,-6e-05,-5e-05,2e-05,1e-05,-1e-05,-4e-05,-5e-05,2,6
6032,-0.00013,-6e-05,-5e-05,2e-05,1e-05,-1e-05,-4e-05,-5e-05,2,6
6033,-0.00012,-2e-05,7e-05,5e-05,-3e-05,4e-05,-2e-05,-0.00025,2,6
6034,-0.00012,-2e-05,7e-05,5e-05,-3e-05,4e-05,-2e-05,-0.00025,2,6
6035,-0.00012,-2e-05,7e-05,5e-05,-3e-05,4e-05,-2e-05,-0.00025,2,6
6036,-0.00012,-2e-05,7e-05,5e-05,-3e-05,4e-05,-2e-05,-0.00025,2,6
6038,-0.00012,-2e-05,7e-05,5e-05,-3e-05,4e-05,-2e-05,-0.00025,2,6
6039,-0.00012,-2e-05,7e-05,5e-05,-3e-05,4e-05,-2e-05,-0.00025,2,6
6040,3e-05,2e-05,0.00011,-9e-05,-2e-05,7e-05,3e-05,0.00014,2,6
6041,3e-05,2e-05,0.00011,-9e-05,-2e-05,7e-05,3e-05,0.00014,2,6
6042,3e-05,2e-05,0.00011,-9e-05,-2e-05,7e-05,3e-05,0.00014,2,6
6043,3e-05,2e-05,0.00011,-9e-05,-2e-05,7e-05,3e-05,0.00014,2,6
6044,3e-05,2e-05,0.00011,-9e-05,-2e-05,7e-05,3e-05,0.00014,2,6
6045,3e-05,2e-05,0.00011,-9e-05,-2e-05,7e-05,3e-05,0.00014,2,6
6046,3e-05,2e-05,0.00011,-9e-05,-2e-05,7e-05,3e-05,0.00014,2,6
6047,3e-05,2e-05,0.00011,-9e-05,-2e-05,7e-05,3e-05,0.00014,2,6
6048,-8e-05,-0.00017,-0.00038,-0.00034,-5e-05,0,8e-05,-7e-05,2,6
6049,1e-05,8e-05,3e-05,7e-05,3e-05,0.00013,4e-05,0,2,6
6050,1e-05,8e-05,3e-05,7e-05,3e-05,0.00013,4e-05,0,2,6
6051,1e-05,8e-05,3e-05,7e-05,3e-05,0.00013,4e-05,0,2,6
6052,1e-05,8e-05,3e-05,7e-05,3e-05,0.00013,4e-05,0,2,6
6053,1e-05,8e-05,3e-05,7e-05,3e-05,0.00013,4e-05,0,2,6
6054,1e-05,8e-05,3e-05,7e-05,3e-05,0.00013,4e-05,0,2,6
6055,1e-05,8e-05,3e-05,7e-05,3e-05,0.00013,4e-05,0,2,6
6056,1e-05,8e-05,3e-05,7e-05,3e-05,0.00013,4e-05,0,2,6
6057,1e-05,8e-05,3e-05,7e-05,3e-05,0.00013,4e-05,0,2,6
6058,1e-05,8e-05,3e-05,7e-05,3e-05,0.00013,4e-05,0,2,6
6059,1e-05,8e-05,3e-05,7e-05,3e-05,0.00013,4e-05,0,2,6
6060,1e-05,8e-05,3e-05,7e-05,3e-05,0.00013,4e-05,0,2,6
6061,1e-05,8e-05,3e-05,7e-05,3e-05,0.00013,4e-05,0,2,6
6062,1e-05,8e-05,3e-05,7e-05,3e-05,0.00013,4e-05,0,2,6
6063,1e-05,8e-05,3e-05,7e-05,3e-05,0.00013,4e-05,0,2,6
6064,1e-05,8e-05,3e-05,7e-05,3e-05,0.00013,4e-05,0,2,6
6065,1e-05,8e-05,3e-05,7e-05,3e-05,0.00013,4e-05,0,2,6
6066,1e-05,8e-05,3e-05,7e-05,3e-05,0.00013,4e-05,0,2,6
6067,1e-05,8e-05,3e-05,7e-05,3e-05,0.00013,4e-05,0,2,6
6068,1e-05,8e-05,3e-05,7e-05,3e-05,0.00013,4e-05,0,2,6
6069,1e-05,8e-05,3e-05,7e-05,3e-05,0.00013,4e-05,0,2,6
6070,1e-05,8e-05,3e-05,7e-05,3e-05,0.00013,4e-05,0,2,6
6071,1e-05,8e-05,3e-05,7e-05,3e-05,0.00013,4e-05,0,2,6
6072,1e-05,8e-05,3e-05,7e-05,3e-05,0.00013,4e-05,0,2,6
6073,1e-05,8e-05,3e-05,7e-05,3e-05,0.00013,4e-05,0,2,6
6074,1e-05,8e-05,3e-05,7e-05,3e-05,0.00013,4e-05,0,2,6
6075,1e-05,8e-05,3e-05,7e-05,3e-05,0.00013,4e-05,0,2,6
6076,1e-05,8e-05,3e-05,7e-05,3e-05,0.00013,4e-05,0,2,6
6077,1e-05,8e-05,3e-05,7e-05,3e-05,0.00013,4e-05,0,2,6
6078,3e-05,5e-05,4e-05,-1e-05,-3e-05,-0.0001,-3e-05,2e-05,2,6
6079,3e-05,5e-05,4e-05,-1e-05,-3e-05,-0.0001,-3e-05,2e-05,2,6
6080,3e-05,5e-05,4e-05,-1e-05,-3e-05,-0.0001,-3e-05,2e-05,2,6
6081,6e-05,-4e-05,-0.00018,-3e-05,2e-05,3e-05,4e-05,1e-05,2,6
6082,6e-05,-4e-05,-0.00018,-3e-05,2e-05,3e-05,4e-05,1e-05,2,6
6083,6e-05,-4e-05,-0.00018,-3e-05,2e-05,3e-05,4e-05,1e-05,2,6
6084,6e-05,-4e-05,-0.00018,-3e-05,2e-05,3e-05,4e-05,1e-05,2,6
6085,6e-05,-4e-05,-0.00018,-3e-05,2e-05,3e-05,4e-05,1e-05,2,6
6086,6e-05,-4e-05,-0.00018,-3e-05,2e-05,3e-05,4e-05,1e-05,2,6
6088,6e-05,-4e-05,-0.00018,-3e-05,2e-05,3e-05,4e-05,1e-05,2,6
6089,6e-05,-4e-05,-0.00018,-3e-05,2e-05,3e-05,4e-05,1e-05,2,6
6090,6e-05,-4e-05,-0.00018,-3e-05,2e-05,3e-05,4e-05,1e-05,2,6
6091,6e-05,-4e-05,-0.00018,-3e-05,2e-05,3e-05,4e-05,1e-05,2,6
6092,6e-05,-4e-05,-0.00018,-3e-05,2e-05,3e-05,4e-05,1e-05,2,6
6093,6e-05,-4e-05,-0.00018,-3e-05,2e-05,3e-05,4e-05,1e-05,2,6
6094,6e-05,-4e-05,-0.00018,-3e-05,2e-05,3e-05,4e-05,1e-05,2,6
6095,6e-05,-4e-05,-0.00018,-3e-05,2e-05,3e-05,4e-05,1e-05,2,6
6096,7e-05,4e-05,4e-05,-0.00011,-4e-05,5e-05,-4e-05,-0.00012,2,6
6097,7e-05,4e-05,4e-05,-0.00011,-4e-05,5e-05,-4e-05,-0.00012,2,6
6098,7e-05,4e-05,4e-05,-0.00011,-4e-05,5e-05,-4e-05,-0.00012,2,6
6099,7e-05,4e-05,4e-05,-0.00011,-4e-05,5e-05,-4e-05,-0.00012,2,6
6100,7e-05,4e-05,4e-05,-0.00011,-4e-05,5e-05,-4e-05,-0.00012,2,6
6101,7e-05,4e-05,4e-05,-0.00011,-4e-05,5e-05,-4e-05,-0.00012,2,6
6102,7e-05,4e-05,4e-05,-0.00011,-4e-05,5e-05,-4e-05,-0.00012,2,6
6103,7e-05,4e-05,4e-05,-0.00011,-4e-05,5e-05,-4e-05,-0.00012,2,6
6104,7e-05,4e-05,4e-05,-0.00011,-4e-05,5e-05,-4e-05,-0.00012,2,6
6105,7e-05,4e-05,4e-05,-0.00011,-4e-05,5e-05,-4e-05,-0.00012,2,6
6106,7e-05,4e-05,4e-05,-0.00011,-4e-05,5e-05,-4e-05,-0.00012,2,6
6107,7e-05,4e-05,4e-05,-0.00011,-4e-05,5e-05,-4e-05,-0.00012,2,6
6108,0.0001,6e-05,6e-05,6e-05,0,-6e-05,-4e-05,7e-05,2,6
6109,-6e-05,-9e-05,-0.00026,-0.00017,-3e-05,-0.00013,-2e-05,0.00012,2,6
6110,-6e-05,-9e-05,-0.00026,-0.00017,-3e-05,-0.00013,-2e-05,0.00012,2,6
6111,-6e-05,-9e-05,-0.00026,-0.00017,-3e-05,-0.00013,-2e-05,0.00012,2,6
6112,-6e-05,-9e-05,-0.00026,-0.00017,-3e-05,-0.00013,-2e-05,0.00012,2,6
6113,-6e-05,-9e-05,-0.00026,-0.00017,-3e-05,-0.00013,-2e-05,0.00012,2,6
6114,-6e-05,-9e-05,-0.00026,-0.00017,-3e-05,-0.00013,-2e-05,0.00012,2,6
6115,-6e-05,-9e-05,-0.00026,-0.00017,-3e-05,-0.00013,-2e-05,0.00012,2,6
6116,-6e-05,-9e-05,-0.00026,-0.00017,-3e-05,-0.00013,-2e-05,0.00012,2,6
6117,-6e-05,-9e-05,-0.00026,-0.00017,-3e-05,-0.00013,-2e-05,0.00012,2,6
33167,0.00018,6e-05,3e-05,5e-05,0.00015,0.00043,-1e-05,0.00037,2,6
33168,0.00018,6e-05,3e-05,5e-05,0.00015,0.00043,-1e-05,0.00037,2,6
33169,0.00018,6e-05,3e-05,5e-05,0.00015,0.00043,-1e-05,0.00037,2,6
33170,0.00018,6e-05,3e-05,5e-05,0.00015,0.00043,-1e-05,0.00037,2,6
33171,0.00018,6e-05,3e-05,5e-05,0.00015,0.00043,-1e-05,0.00037,2,6
33172,0.00018,6e-05,3e-05,5e-05,0.00015,0.00043,-1e-05,0.00037,2,6
33173,0.00018,6e-05,3e-05,5e-05,0.00015,0.00043,-1e-05,0.00037,2,6
33174,0.00018,6e-05,3e-05,5e-05,0.00015,0.00043,-1e-05,0.00037,2,6
33175,0.00018,6e-05,3e-05,5e-05,0.00015,0.00043,-1e-05,0.00037,2,6
33176,0.00018,6e-05,3e-05,5e-05,0.00015,0.00043,-1e-05,0.00037,2,6
33177,0.00018,6e-05,3e-05,5e-05,0.00015,0.00043,-1e-05,0.00037,2,6
33178,0.00018,6e-05,3e-05,5e-05,0.00015,0.00043,-1e-05,0.00037,2,6
33179,0.00018,6e-05,3e-05,5e-05,0.00015,0.00043,-1e-05,0.00037,2,6
33180,0.00018,6e-05,3e-05,5e-05,0.00015,0.00043,-1e-05,0.00037,2,6
33181,0.00018,6e-05,3e-05,5e-05,0.00015,0.00043,-1e-05,0.00037,2,6
33182,0.00018,6e-05,3e-05,5e-05,0.00015,0.00043,-1e-05,0.00037,2,6
33183,-0.00028,-7e-05,0.00011,7e-05,2e-05,1e-05,-0.00043,-0.00056,2,6
33184,-0.00028,-7e-05,0.00011,7e-05,2e-05,1e-05,-0.00043,-0.00056,2,6
33185,-2e-05,0.00011,0.00047,0.00024,-0.00015,-0.00029,-0.00032,-2e-05,2,6
33186,-2e-05,0.00011,0.00047,0.00024,-0.00015,-0.00029,-0.00032,-2e-05,2,6
33188,-2e-05,0.00011,0.00047,0.00024,-0.00015,-0.00029,-0.00032,-2e-05,2,6
33189,-2e-05,0.00011,0.00047,0.00024,-0.00015,-0.00029,-0.00032,-2e-05,2,6
33190,-2e-05,0.00011,0.00047,0.00024,-0.00015,-0.00029,-0.00032,-2e-05,2,6
33191,-2e-05,0.00011,0.00047,0.00024,-0.00015,-0.00029,-0.00032,-2e-05,2,6
33192,-2e-05,0.00011,0.00047,0.00024,-0.00015,-0.00029,-0.00032,-2e-05,2,6
33193,-2e-05,0.00011,0.00047,0.00024,-0.00015,-0.00029,-0.00032,-2e-05,2,6
33194,-2e-05,0.00011,0.00047,0.00024,-0.00015,-0.00029,-0.00032,-2e-05,2,6
33195,-2e-05,0.00011,0.00047,0.00024,-0.00015,-0.00029,-0.00032,-2e-05,2,6
33196,-2e-05,0.00011,0.00047,0.00024,-0.00015,-0.00029,-0.00032,-2e-05,2,6
33197,-2e-05,0.00011,0.00047,0.00024,-0.00015,-0.00029,-0.00032,-2e-05,2,6
33198,0.0001,2e-05,-0.0003,-0.00027,-3e-05,-5e-05,-6e-05,3e-05,2,6
33199,0.0001,2e-05,-0.0003,-0.00027,-3e-05,-5e-05,-6e-05,3e-05,2,6
33200,0.0001,-4e-05,-0.00015,-0.00012,5e-05,-0.0001,-9e-05,8e-05,2,6
33201,0.0001,-4e-05,-0.00015,-0.00012,5e-05,-0.0001,-9e-05,8e-05,2,6
33202,0.0001,-4e-05,-0.00015,-0.00012,5e-05,-0.0001,-9e-05,8e-05,2,6
33203,0.0001,-4e-05,-0.00015,-0.00012,5e-05,-0.0001,-9e-05,8e-05,2,6
33204,0.0001,-4e-05,-0.00015,-0.00012,5e-05,-0.0001,-9e-05,8e-05,2,6
33205,0.0001,-4e-05,-0.00015,-0.00012,5e-05,-0.0001,-9e-05,8e-05,2,6
33206,0.0001,-4e-05,-0.00015,-0.00012,5e-05,-0.0001,-9e-05,8e-05,2,6
33207,0.0001,-4e-05,-0.00015,-0.00012,5e-05,-0.0001,-9e-05,8e-05,2,6
33208,0.0001,-4e-05,-0.00015,-0.00012,5e-05,-0.0001,-9e-05,8e-05,2,6
33209,0.0001,-4e-05,-0.00015,-0.00012,5e-05,-0.0001,-9e-05,8e-05,2,6
33210,0.0001,-4e-05,-0.00015,-0.00012,5e-05,-0.0001,-9e-05,8e-05,2,6
33211,0.0001,-4e-05,-0.00015,-0.00012,5e-05,-0.0001,-9e-05,8e-05,2,6
33212,0.0001,-4e-05,-0.00015,-0.00012,5e-05,-0.0001,-9e-05,8e-05,2,6
33213,0.0001,-4e-05,-0.00015,-0.00012,5e-05,-0.0001,-9e-05,8e-05,2,6
33214,0.0001,-4e-05,-0.00015,-0.00012,5e-05,-0.0001,-9e-05,8e-05,2,6
33215,0.0001,-4e-05,-0.00015,-0.00012,5e-05,-0.0001,-9e-05,8e-05,2,6
33216,0.0001,-4e-05,-0.00015,-0.00012,5e-05,-0.0001,-9e-05,8e-05,2,6
33217,0.0001,-4e-05,-0.00015,-0.00012,5e-05,-0.0001,-9e-05,8e-05,2,6
33218,0.0001,-4e-05,-0.00015,-0.00012,5e-05,-0.0001,-9e-05,8e-05,2,6
33219,0.0001,-4e-05,-0.00015,-0.00012,5e-05,-0.0001,-9e-05,8e-05,2,6
33220,-0.00016,-0.00013,0.00011,2e-05,-0.00011,-0.00024,-7e-05,-0.00026,2,6
33221,-0.00018,-0.00015,4e-05,-0.0003,-0.00019,-0.00022,-5e-05,-0.00011,2,6
33222,-1e-05,-0.00014,-0.0004,2e-05,-7e-05,0.00037,0.00015,0.00015,2,6
33223,-1e-05,-0.00014,-0.0004,2e-05,-7e-05,0.00037,0.00015,0.00015,2,6
33224,-1e-05,-0.00014,-0.0004,2e-05,-7e-05,0.00037,0.00015,0.00015,2,6
33225,-1e-05,-0.00014,-0.0004,2e-05,-7e-05,0.00037,0.00015,0.00015,2,6
33226,-1e-05,-0.00014,-0.0004,2e-05,-7e-05,0.00037,0.00015,0.00015,2,6
33227,-1e-05,-0.00014,-0.0004,2e-05,-7e-05,0.00037,0.00015,0.00015,2,6
33228,-1e-05,-0.00014,-0.0004,2e-05,-7e-05,0.00037,0.00015,0.00015,2,6
33229,-1e-05,-0.00014,-0.0004,2e-05,-7e-05,0.00037,0.00015,0.00015,2,6
33230,-1e-05,-0.00014,-0.0004,2e-05,-7e-05,0.00037,0.00015,0.00015,2,6
33231,-1e-05,-0.00014,-0.0004,2e-05,-7e-05,0.00037,0.00015,0.00015,2,6
33232,-1e-05,-0.00014,-0.0004,2e-05,-7e-05,0.00037,0.00015,0.00015,2,6
33233,-1e-05,-0.00014,-0.0004,2e-05,-7e-05,0.00037,0.00015,0.00015,2,6
33234,-1e-05,-0.00014,-0.0004,2e-05,-7e-05,0.00037,0.00015,0.00015,2,6
33235,-1e-05,-0.00014,-0.0004,2e-05,-7e-05,0.00037,0.00015,0.00015,2,6
33236,-1e-05,-0.00014,-0.0004,2e-05,-7e-05,0.00037,0.00015,0.00015,2,6
33238,-1e-05,-0.00014,-0.0004,2e-05,-7e-05,0.00037,0.00015,0.00015,2,6
33239,-1e-05,-0.00014,-0.0004,2e-05,-7e-05,0.00037,0.00015,0.00015,2,6
33240,-1e-05,-0.00014,-0.0004,2e-05,-7e-05,0.00037,0.00015,0.00015,2,6
33241,-1e-05,-0.00014,-0.0004,2e-05,-7e-05,0.00037,0.00015,0.00015,2,6
33242,-1e-05,-0.00014,-0.0004,2e-05,-7e-05,0.00037,0.00015,0.00015,2,6
33243,-1e-05,-0.00014,-0.0004,2e-05,-7e-05,0.00037,0.00015,0.00015,2,6
33244,0.00025,9e-05,2e-05,-2e-05,5e-05,9e-05,-0.00019,-0.00017,2,6
33245,6e-05,0,3e-05,-8e-05,-5e-05,-3e-05,0.00019,0.00025,2,6
33246,0.00027,8e-05,-5e-05,-6e-05,3e-05,-6e-05,0.00011,7e-05,2,6
33247,0.00027,8e-05,-5e-05,-6e-05,3e-05,-6e-05,0.00011,7e-05,2,6
33248,0.00027,8e-05,-5e-05,-6e-05,3e-05,-6e-05,0.00011,7e-05,2,6
33249,0.00027,8e-05,-5e-05,-6e-05,3e-05,-6e-05,0.00011,7e-05,2,6
33250,0.00027,8e-05,-5e-05,-6e-05,3e-05,-6e-05,0.00011,7e-05,2,6
33251,0.00027,8e-05,-5e-05,-6e-05,3e-05,-6e-05,0.00011,7e-05,2,6
33252,0.00027,8e-05,-5e-05,-6e-05,3e-05,-6e-05,0.00011,7e-05,2,6
33253,0.00027,8e-05,-5e-05,-6e-05,3e-05,-6e-05,0.00011,7e-05,2,6
33254,0.00027,8e-05,-5e-05,-6e-05,3e-05,-6e-05,0.00011,7e-05,2,6
33255,0.00027,8e-05,-5e-05,-6e-05,3e-05,-6e-05,0.00011,7e-05,2,6
33256,0.00027,8e-05,-5e-05,-6e-05,3e-05,-6e-05,0.00011,7e-05,2,6
33257,0.00027,8e-05,-5e-05,-6e-05,3e-05,-6e-05,0.00011,7e-05,2,6
33258,0.00012,0.00017,9e-05,0.00014,0.00019,-2e-05,0.00018,0.00024,2,6
33259,3e-05,-8e-05,-0.00041,-0.0002,-2e-05,0.00023,0.00011,-0.00014,2,6
33260,-4e-05,0.00013,0.00043,0.00014,4e-05,-0.00014,-1e-05,0.00017,2,6
33261,-4e-05,0.00013,0.00043,0.00014,4e-05,-0.00014,-1e-05,0.00017,2,6
33262,-4e-05,0.00013,0.00043,0.00014,4e-05,-0.00014,-1e-05,0.00017,2,6
33263,-4e-05,0.00013,0.00043,0.00014,4e-05,-0.00014,-1e-05,0.00017,2,6
33264,-4e-05,0.00013,0.00043,0.00014,4e-05,-0.00014,-1e-05,0.00017,2,6
33265,-4e-05,0.00013,0.00043,0.00014,4e-05,-0.00014,-1e-05,0.00017,2,6
33266,-4e-05,0.00013,0.00043,0.00014,4e-05,-0.00014,-1e-05,0.00017,2,6
33267,-4e-05,0.00013,0.00043,0.00014,4e-05,-0.00014,-1e-05,0.00017,2,6
33268,-4e-05,0.00013,0.00043,0.00014,4e-05,-0.00014,-1e-05,0.00017,2,6
33269,-4e-05,0.00013,0.00043,0.00014,4e-05,-0.00014,-1e-05,0.00017,2,6
33270,-4e-05,0.00013,0.00043,0.00014,4e-05,-0.00014,-1e-05,0.00017,2,6
33271,-4e-05,0.00013,0.00043,0.00014,4e-05,-0.00014,-1e-05,0.00017,2,6
33272,-4e-05,0.00013,0.00043,0.00014,4e-05,-0.00014,-1e-05,0.00017,2,6
33273,-4e-05,0.00013,0.00043,0.00014,4e-05,-0.00014,-1e-05,0.00017,2,6
33274,-4e-05,0.00013,0.00043,0.00014,4e-05,-0.00014,-1e-05,0.00017,2,6
33275,-4e-05,0.00013,0.00043,0.00014,4e-05,-0.00014,-1e-05,0.00017,2,6
33276,-4e-05,0.00013,0.00043,0.00014,4e-05,-0.00014,-1e-05,0.00017,2,6
33277,-4e-05,0.00013,0.00043,0.00014,4e-05,-0.00014,-1e-05,0.00017,2,6
33278,-4e-05,0.00013,0.00043,0.00014,4e-05,-0.00014,-1e-05,0.00017,2,6
33279,-4e-05,0.00013,0.00043,0.00014,4e-05,-0.00014,-1e-05,0.00017,2,6
33280,0,-3e-05,-0.00039,-0.00028,-1e-05,0.00013,6e-05,-5e-05,2,6
33281,1e-05,3e-05,0.00026,0.00023,7e-05,0.00017,1e-05,-0.00012,2,6
33282,1e-05,3e-05,0.00026,0.00023,7e-05,0.00017,1e-05,-0.00012,2,6
33283,1e-05,3e-05,0.00026,0.00023,7e-05,0.00017,1e-05,-0.00012,2,6
33284,1e-05,3e-05,0.00026,0.00023,7e-05,0.00017,1e-05,-0.00012,2,6
33285,1e-05,3e-05,0.00026,0.00023,7e-05,0.00017,1e-05,-0.00012,2,6
33286,1e-05,3e-05,0.00026,0.00023,7e-05,0.00017,1e-05,-0.00012,2,6
33288,1e-05,-2e-05,-0.00013,-0.00023,2e-05,-8e-05,-2e-05,-0.00011,2,6
33289,1e-05,-2e-05,-0.00013,-0.00023,2e-05,-8e-05,-2e-05,-0.00011,2,6
33290,1e-05,-2e-05,-0.00013,-0.00023,2e-05,-8e-05,-2e-05,-0.00011,2,6
33291,1e-05,-2e-05,-0.00013,-0.00023,2e-05,-8e-05,-2e-05,-0.00011,2,6
33292,1e-05,-2e-05,-0.00013,-0.00023,2e-05,-8e-05,-2e-05,-0.00011,2,6
33293,1e-05,-2e-05,-0.00013,-0.00023,2e-05,-8e-05,-2e-05,-0.00011,2,6
33294,-3e-05,-5e-05,-0.00015,4e-05,6e-05,7e-05,0.00023,-1e-05,2,6
33295,-3e-05,-5e-05,-0.00015,4e-05,6e-05,7e-05,0.00023,-1e-05,2,6
33296,-3e-05,-5e-05,-0.00015,4e-05,6e-05,7e-05,0.00023,-1e-05,2,6
33297,-3e-05,-5e-05,-0.00015,4e-05,6e-05,7e-05,0.00023,-1e-05,2,6
33298,-3e-05,-5e-05,-0.00015,4e-05,6e-05,7e-05,0.00023,-1e-05,2,6
33299,-3e-05,-5e-05,-0.00015,4e-05,6e-05,7e-05,0.00023,-1e-05,2,6
33300,-3e-05,-5e-05,-0.00015,4e-05,6e-05,7e-05,0.00023,-1e-05,2,6
33301,-3e-05,-5e-05,-0.00015,4e-05,6e-05,7e-05,0.00023,-1e-05,2,6
33302,-3e-05,-5e-05,-0.00015,4e-05,6e-05,7e-05,0.00023,-1e-05,2,6
33303,-4e-05,-9e-05,-0.00054,-0.00023,-0.00019,-0.00035,-0.00023,-0.00024,2,6
33304,-4e-05,-9e-05,-0.00054,-0.00023,-0.00019,-0.00035,-0.00023,-0.00024,2,6
33305,-4e-05,-9e-05,-0.00054,-0.00023,-0.00019,-0.00035,-0.00023,-0.00024,2,6
33306,-4e-05,-9e-05,-0.00054,-0.00023,-0.00019,-0.00035,-0.00023,-0.00024,2,6
33307,-4e-05,-9e-05,-0.00054,-0.00023,-0.00019,-0.00035,-0.00023,-0.00024,2,6
33308,-4e-05,-9e-05,-0.00054,-0.00023,-0.00019,-0.00035,-0.00023,-0.00024,2,6
33309,-4e-05,-9e-05,-0.00054,-0.00023,-0.00019,-0.00035,-0.00023,-0.00024,2,6
33310,-4e-05,-9e-05,-0.00054,-0.00023,-0.00019,-0.00035,-0.00023,-0.00024,2,6
33311,-4e-05,-9e-05,-0.00054,-0.00023,-0.00019,-0.00035,-0.00023,-0.00024,2,6
33312,-4e-05,-9e-05,-0.00054,-0.00023,-0.00019,-0.00035,-0.00023,-0.00024,2,6
33313,-4e-05,-9e-05,-0.00054,-0.00023,-0.00019,-0.00035,-0.00023,-0.00024,2,6
33314,-4e-05,-9e-05,-0.00054,-0.00023,-0.00019,-0.00035,-0.00023,-0.00024,2,6
33315,-4e-05,-9e-05,-0.00054,-0.00023,-0.00019,-0.00035,-0.00023,-0.00024,2,6
33316,-4e-05,-9e-05,-0.00054,-0.00023,-0.00019,-0.00035,-0.00023,-0.00024,2,6
33317,-4e-05,-9e-05,-0.00054,-0.00023,-0.00019,-0.00035,-0.00023,-0.00024,2,6
33318,0.00013,5e-05,8e-05,-9e-05,0.00032,0.00034,0,1e-05,2,6
33319,9e-05,0,-0.0001,0.0001,-1e-05,-0.00016,-0.00011,7e-05,2,6
33320,-0.00015,1e-05,0.00044,-2e-05,-0.00013,-8e-05,-0.00018,-0.00017,2,6
33321,-0.00015,1e-05,0.00044,-2e-05,-0.00013,-8e-05,-0.00018,-0.00017,2,6
33322,-0.00015,1e-05,0.00044,-2e-05,-0.00013,-8e-05,-0.00018,-0.00017,2,6
33323,-0.00015,1e-05,0.00044,-2e-05,-0.00013,-8e-05,-0.00018,-0.00017,2,6
33324,-0.00015,1e-05,0.00044,-2e-05,-0.00013,-8e-05,-0.00018,-0.00017,2,6
33325,-0.00015,1e-05,0.00044,-2e-05,-0.00013,-8e-05,-0.00018,-0.00017,2,6
33326,-0.00015,1e-05,0.00044,-2e-05,-0.00013,-8e-05,-0.00018,-0.00017,2,6
33327,-0.00015,1e-05,0.00044,-2e-05,-0.00013,-8e-05,-0.00018,-0.00017,2,6
33328,-0.00015,1e-05,0.00044,-2e-05,-0.00013,-8e-05,-0.00018,-0.00017,2,6
33329,-0.00015,1e-05,0.00044,-2e-05,-0.00013,-8e-05,-0.00018,-0.00017,2,6
33330,-0.00015,1e-05,0.00044,-2e-05,-0.00013,-8e-05,-0.00018,-0.00017,2,6
33331,-0.00015,1e-05,0.00044,-2e-05,-0.00013,-8e-05,-0.00018,-0.00017,2,6
33332,-0.00015,1e-05,0.00044,-2e-05,-0.00013,-8e-05,-0.00018,-0.00017,2,6
33333,-0.00015,1e-05,0.00044,-2e-05,-0.00013,-8e-05,-0.00018,-0.00017,2,6
33334,-0.00015,1e-05,0.00044,-2e-05,-0.00013,-8e-05,-0.00018,-0.00017,2,6
33335,-0.00015,1e-05,0.00044,-2e-05,-0.00013,-8e-05,-0.00018,-0.00017,2,6
33336,-0.00015,1e-05,0.00044,-2e-05,-0.00013,-8e-05,-0.00018,-0.00017,2,6
33338,-0.00015,1e-05,0.00044,-2e-05,-0.00013,-8e-05,-0.00018,-0.00017,2,6
33339,-0.00015,1e-05,0.00044,-2e-05,-0.00013,-8e-05,-0.00018,-0.00017,2,6
33340,-0.00015,1e-05,0.00044,-2e-05,-0.00013,-8e-05,-0.00018,-0.00017,2,6
33341,-0.00015,1e-05,0.00044,-2e-05,-0.00013,-8e-05,-0.00018,-0.00017,2,6
33342,5e-05,-0.00011,-0.00018,3e-05,-0.00011,-1e-05,-3e-05,-3e-05,2,6
33343,-0.00014,3e-05,2e-05,-5e-05,7e-05,0.00018,-0.00037,-0.00014,2,6
33344,-0.00014,3e-05,2e-05,-5e-05,7e-05,0.00018,-0.00037,-0.00014,2,6
33345,-0.00014,3e-05,2e-05,-5e-05,7e-05,0.00018,-0.00037,-0.00014,2,6
33346,-0.00014,3e-05,2e-05,-5e-05,7e-05,0.00018,-0.00037,-0.00014,2,6
33347,-0.00014,3e-05,2e-05,-5e-05,7e-05,0.00018,-0.00037,-0.00014,2,6
33348,-0.00014,3e-05,2e-05,-5e-05,7e-05,0.00018,-0.00037,-0.00014,2,6
33349,-0.00014,3e-05,2e-05,-5e-05,7e-05,0.00018,-0.00037,-0.00014,2,6
33350,-0.00014,3e-05,2e-05,-5e-05,7e-05,0.00018,-0.00037,-0.00014,2,6
33351,-0.00014,3e-05,2e-05,-5e-05,7e-05,0.00018,-0.00037,-0.00014,2,6
33352,-0.00014,3e-05,2e-05,-5e-05,7e-05,0.00018,-0.00037,-0.00014,2,6
33353,-0.00014,3e-05,2e-05,-5e-05,7e-05,0.00018,-0.00037,-0.00014,2,6
33354,-0.00014,3e-05,2e-05,-5e-05,7e-05,0.00018,-0.00037,-0.00014,2,6
33355,-0.00014,3e-05,2e-05,-5e-05,7e-05,0.00018,-0.00037,-0.00014,2,6
33356,-0.00014,3e-05,2e-05,-5e-05,7e-05,0.00018,-0.00037,-0.00014,2,6
33357,-0.00014,3e-05,2e-05,-5e-05,7e-05,0.00018,-0.00037,-0.00014,2,6
33358,-0.00014,3e-05,2e-05,-5e-05,7e-05,0.00018,-0.00037,-0.00014,2,6
33359,-0.00014,3e-05,2e-05,-5e-05,7e-05,0.00018,-0.00037,-0.00014,2,6
33360,-0.00014,3e-05,2e-05,-5e-05,7e-05,0.00018,-0.00037,-0.00014,2,6
33361,-0.00014,3e-05,2e-05,-5e-05,7e-05,0.00018,-0.00037,-0.00014,2,6
33362,-0.00014,3e-05,2e-05,-5e-05,7e-05,0.00018,-0.00037,-0.00014,2,6
33363,8e-05,0.00017,0.00045,0.0002,-0.00011,3e-05,0.00046,-1e-05,2,6
33364,-0.00033,-0.00032,-0.00085,-0.00086,0.00014,-0.00021,-0.00016,-0.00044,2,6
33365,0.00038,0.0001,0.00034,0.00022,1e-05,1e-05,-6e-05,0.00054,2,6
33366,0.00038,0.0001,0.00034,0.00022,1e-05,1e-05,-6e-05,0.00054,2,6
33367,0.00038,0.0001,0.00034,0.00022,1e-05,1e-05,-6e-05,0.00054,2,6
33368,0.00038,0.0001,0.00034,0.00022,1e-05,1e-05,-6e-05,0.00054,2,6
33369,0.00038,0.0001,0.00034,0.00022,1e-05,1e-05,-6e-05,0.00054,2,6
33370,0.00038,0.0001,0.00034,0.00022,1e-05,1e-05,-6e-05,0.00054,2,6
33371,0.00038,0.0001,0.00034,0.00022,1e-05,1e-05,-6e-05,0.00054,2,6
33372,0.00038,0.0001,0.00034,0.00022,1e-05,1e-05,-6e-05,0.00054,2,6
33373,0.00038,0.0001,0.00034,0.00022,1e-05,1e-05,-6e-05,0.00054,2,6
33374,0.00038,0.0001,0.00034,0.00022,1e-05,1e-05,-6e-05,0.00054,2,6
33375,0.00038,0.0001,0.00034,0.00022,1e-05,1e-05,-6e-05,0.00054,2,6
33376,0.00038,0.0001,0.00034,0.00022,1e-05,1e-05,-6e-05,0.00054,2,6
33377,0.00038,0.0001,0.00034,0.00022,1e-05,1e-05,-6e-05,0.00054,2,6
33378,-0.00021,-0.0001,-0.00016,-9e-05,-6e-05,-5e-05,-0.00025,-0.00033,2,6
33379,-0.00021,-0.0001,-0.00016,-9e-05,-6e-05,-5e-05,-0.00025,-0.00033,2,6
33380,-0.00017,-0.00022,-0.0006,0.0002,7e-05,-0.0001,0.0001,-0.0002,2,6
33381,-0.00017,-0.00022,-0.0006,0.0002,7e-05,-0.0001,0.0001,-0.0002,2,6
33382,-0.00017,-0.00022,-0.0006,0.0002,7e-05,-0.0001,0.0001,-0.0002,2,6
33383,-0.00017,-0.00022,-0.0006,0.0002,7e-05,-0.0001,0.0001,-0.0002,2,6
33384,-0.00017,-0.00022,-0.0006,0.0002,7e-05,-0.0001,0.0001,-0.0002,2,6
33385,-0.00017,-0.00022,-0.0006,0.0002,7e-05,-0.0001,0.0001,-0.0002,2,6
33386,-0.00017,-0.00022,-0.0006,0.0002,7e-05,-0.0001,0.0001,-0.0002,2,6
33388,-0.00017,-0.00022,-0.0006,0.0002,7e-05,-0.0001,0.0001,-0.0002,2,6
33389,-0.00017,-0.00022,-0.0006,0.0002,7e-05,-0.0001,0.0001,-0.0002,2,6
33390,-0.00017,-0.00022,-0.0006,0.0002,7e-05,-0.0001,0.0001,-0.0002,2,6
33391,-0.00017,-0.00022,-0.0006,0.0002,7e-05,-0.0001,0.0001,-0.0002,2,6
33392,-0.00017,-0.00022,-0.0006,0.0002,7e-05,-0.0001,0.0001,-0.0002,2,6
33393,-0.00017,-0.00022,-0.0006,0.0002,7e-05,-0.0001,0.0001,-0.0002,2,6
33394,-0.00017,-0.00022,-0.0006,0.0002,7e-05,-0.0001,0.0001,-0.0002,2,6
33395,-0.00017,-0.00022,-0.0006,0.0002,7e-05,-0.0001,0.0001,-0.0002,2,6
33396,-0.00017,-0.00022,-0.0006,0.0002,7e-05,-0.0001,0.0001,-0.0002,2,6
33397,-0.00017,-0.00022,-0.0006,0.0002,7e-05,-0.0001,0.0001,-0.0002,2,6
33398,-0.00017,-0.00022,-0.0006,0.0002,7e-05,-0.0001,0.0001,-0.0002,2,6
33399,-0.00017,-0.00022,-0.0006,0.0002,7e-05,-0.0001,0.0001,-0.0002,2,6
33400,-0.00017,-0.00022,-0.0006,0.0002,7e-05,-0.0001,0.0001,-0.0002,2,6
33401,-0.00017,-0.00022,-0.0006,0.0002,7e-05,-0.0001,0.0001,-0.0002,2,6
33402,-0.00017,-0.00022,-0.0006,0.0002,7e-05,-0.0001,0.0001,-0.0002,2,6
33403,-0.00017,-0.00022,-0.0006,0.0002,7e-05,-0.0001,0.0001,-0.0002,2,6
33404,-0.00017,-0.00022,-0.0006,0.0002,7e-05,-0.0001,0.0001,-0.0002,2,6
33405,-0.00017,-0.00022,-0.0006,0.0002,7e-05,-0.0001,0.0001,-0.0002,2,6
33406,-0.00017,-0.00022,-0.0006,0.0002,7e-05,-0.0001,0.0001,-0.0002,2,6
33407,-0.00017,-0.00022,-0.0006,0.0002,7e-05,-0.0001,0.0001,-0.0002,2,6
33408,0.00018,5e-05,0.0001,0.0002,-2e-05,0.00023,-4e-05,0,2,6
33409,0.00018,5e-05,0.0001,0.0002,-2e-05,0.00023,-4e-05,0,2,6
33410,-0.00031,-2e-05,0.00032,4e-05,-8e-05,-0.00013,8e-05,-0.00012,2,6
33411,-0.00031,-2e-05,0.00032,4e-05,-8e-05,-0.00013,8e-05,-0.00012,2,6
33412,-0.00031,-2e-05,0.00032,4e-05,-8e-05,-0.00013,8e-05,-0.00012,2,6
33413,-0.00031,-2e-05,0.00032,4e-05,-8e-05,-0.00013,8e-05,-0.00012,2,6
33414,-0.00031,-2e-05,0.00032,4e-05,-8e-05,-0.00013,8e-05,-0.00012,2,6
33415,-0.00031,-2e-05,0.00032,4e-05,-8e-05,-0.00013,8e-05,-0.00012,2,6
33416,-0.00031,-2e-05,0.00032,4e-05,-8e-05,-0.00013,8e-05,-0.00012,2,6
33417,-0.00031,-2e-05,0.00032,4e-05,-8e-05,-0.00013,8e-05,-0.00012,2,6
33418,-0.00031,-2e-05,0.00032,4e-05,-8e-05,-0.00013,8e-05,-0.00012,2,6
33419,-0.00031,-2e-05,0.00032,4e-05,-8e-05,-0.00013,8e-05,-0.00012,2,6
33420,-0.00031,-2e-05,0.00032,4e-05,-8e-05,-0.00013,8e-05,-0.00012,2,6
33421,-0.00031,-2e-05,0.00032,4e-05,-8e-05,-0.00013,8e-05,-0.00012,2,6
33422,-0.00031,-2e-05,0.00032,4e-05,-8e-05,-0.00013,8e-05,-0.00012,2,6
33423,-0.00012,-3e-05,-7e-05,-4e-05,-4e-05,0.00026,6e-05,-6e-05,2,6
33424,-0.00012,-3e-05,-7e-05,-4e-05,-4e-05,0.00026,6e-05,-6e-05,2,6
33425,-0.00012,-3e-05,-7e-05,-4e-05,-4e-05,0.00026,6e-05,-6e-05,2,6
33426,-0.00012,-3e-05,-7e-05,-4e-05,-4e-05,0.00026,6e-05,-6e-05,2,6
33427,-0.00012,-3e-05,-7e-05,-4e-05,-4e-05,0.00026,6e-05,-6e-05,2,6
33428,-0.00012,-3e-05,-7e-05,-4e-05,-4e-05,0.00026,6e-05,-6e-05,2,6
33429,-0.00012,-3e-05,-7e-05,-4e-05,-4e-05,0.00026,6e-05,-6e-05,2,6
33430,-0.00012,-3e-05,-7e-05,-4e-05,-4e-05,0.00026,6e-05,-6e-05,2,6
33431,-1e-05,1e-05,-0.00012,-0.00044,-0.00012,0.00012,0,-0.00023,2,6
33432,-1e-05,1e-05,-0.00012,-0.00044,-0.00012,0.00012,0,-0.00023,2,6
33433,-1e-05,1e-05,-0.00012,-0.00044,-0.00012,0.00012,0,-0.00023,2,6
33434,-1e-05,1e-05,-0.00012,-0.00044,-0.00012,0.00012,0,-0.00023,2,6
33435,-1e-05,1e-05,-0.00012,-0.00044,-0.00012,0.00012,0,-0.00023,2,6
33436,-1e-05,1e-05,-0.00012,-0.00044,-0.00012,0.00012,0,-0.00023,2,6
33438,0.00023,0.00012,0.00014,-0.00015,-7e-05,0.00018,0,0.00014,2,6
33439,0.00023,0.00012,0.00014,-0.00015,-7e-05,0.00018,0,0.00014,2,6
33440,-3e-05,9e-05,0.00026,0.0001,4e-05,0.00015,0.00018,3e-05,2,6
33441,-3e-05,9e-05,0.00026,0.0001,4e-05,0.00015,0.00018,3e-05,2,6
33442,-3e-05,9e-05,0.00026,0.0001,4e-05,0.00015,0.00018,3e-05,2,6
33443,-3e-05,9e-05,0.00026,0.0001,4e-05,0.00015,0.00018,3e-05,2,6
33444,-3e-05,9e-05,0.00026,0.0001,4e-05,0.00015,0.00018,3e-05,2,6
33445,-3e-05,9e-05,0.00026,0.0001,4e-05,0.00015,0.00018,3e-05,2,6
33446,-3e-05,9e-05,0.00026,0.0001,4e-05,0.00015,0.00018,3e-05,2,6
33447,-3e-05,9e-05,0.00026,0.0001,4e-05,0.00015,0.00018,3e-05,2,6
33448,-3e-05,9e-05,0.00026,0.0001,4e-05,0.00015,0.00018,3e-05,2,6
33449,-3e-05,9e-05,0.00026,0.0001,4e-05,0.00015,0.00018,3e-05,2,6
33450,-3e-05,9e-05,0.00026,0.0001,4e-05,0.00015,0.00018,3e-05,2,6
33451,-3e-05,9e-05,0.00026,0.0001,4e-05,0.00015,0.00018,3e-05,2,6
33452,-3e-05,9e-05,0.00026,0.0001,4e-05,0.00015,0.00018,3e-05,2,6
33453,-3e-05,9e-05,0.00026,0.0001,4e-05,0.00015,0.00018,3e-05,2,6
33454,-3e-05,9e-05,0.00026,0.0001,4e-05,0.00015,0.00018,3e-05,2,6
33455,-3e-05,9e-05,0.00026,0.0001,4e-05,0.00015,0.00018,3e-05,2,6
33456,-3e-05,9e-05,0.00026,0.0001,4e-05,0.00015,0.00018,3e-05,2,6
33457,-3e-05,9e-05,0.00026,0.0001,4e-05,0.00015,0.00018,3e-05,2,6
33458,-3e-05,9e-05,0.00026,0.0001,4e-05,0.00015,0.00018,3e-05,2,6
33459,-3e-05,9e-05,0.00026,0.0001,4e-05,0.00015,0.00018,3e-05,2,6
33460,-3e-05,-0.00013,8e-05,-0.00021,-7e-05,-0.00015,-0.00043,-0.00014,2,6
33461,-0.00017,-0.00013,-0.0003,0,1e-05,-0.00014,-0.00021,-0.00027,2,6
33462,-2e-05,-6e-05,-0.00015,-0.00011,-9e-05,-0.00059,-0.00037,-0.00017,2,6
33463,-2e-05,-6e-05,-0.00015,-0.00011,-9e-05,-0.00059,-0.00037,-0.00017,2,6
33464,-2e-05,-6e-05,-0.00015,-0.00011,-9e-05,-0.00059,-0.00037,-0.00017,2,6
33465,-2e-05,-6e-05,-0.00015,-0.00011,-9e-05,-0.00059,-0.00037,-0.00017,2,6
33466,-2e-05,-6e-05,-0.00015,-0.00011,-9e-05,-0.00059,-0.00037,-0.00017,2,6
33467,-2e-05,-6e-05,-0.00015,-0.00011,-9e-05,-0.00059,-0.00037,-0.00017,2,6
33468,-2e-05,-6e-05,-0.00015,-0.00011,-9e-05,-0.00059,-0.00037,-0.00017,2,6
