12967,-0.00012,-0.00014,8e-05,5e-05,0.00012,8e-05,6e-05,-7e-05,3,1
12968,-0.00012,-0.00014,8e-05,5e-05,0.00012,8e-05,6e-05,-7e-05,3,1
12970,-0.00012,-0.00014,8e-05,5e-05,0.00012,8e-05,6e-05,-7e-05,3,1
12971,-0.00012,-0.00014,8e-05,5e-05,0.00012,8e-05,6e-05,-7e-05,3,1
12972,-0.00012,-0.00014,8e-05,5e-05,0.00012,8e-05,6e-05,-7e-05,3,1
12973,0,-6e-05,-4e-05,-1e-05,-0.0001,-6e-05,-7e-05,-1e-05,3,1
12974,0,-6e-05,-4e-05,-1e-05,-0.0001,-6e-05,-7e-05,-1e-05,3,1
12975,0,-6e-05,-4e-05,-1e-05,-0.0001,-6e-05,-7e-05,-1e-05,3,1
12976,0,-6e-05,-4e-05,-1e-05,-0.0001,-6e-05,-7e-05,-1e-05,3,1
12977,0,-6e-05,-4e-05,-1e-05,-0.0001,-6e-05,-7e-05,-1e-05,3,1
12978,0,-6e-05,-4e-05,-1e-05,-0.0001,-6e-05,-7e-05,-1e-05,3,1
12979,0,-6e-05,-4e-05,-1e-05,-0.0001,-6e-05,-7e-05,-1e-05,3,1
12980,0,-6e-05,-4e-05,-1e-05,-0.0001,-6e-05,-7e-05,-1e-05,3,1
12981,0,-6e-05,-4e-05,-1e-05,-0.0001,-6e-05,-7e-05,-1e-05,3,1
12982,0,-6e-05,-4e-05,-1e-05,-0.0001,-6e-05,-7e-05,-1e-05,3,1
12983,0,-6e-05,-4e-05,-1e-05,-0.0001,-6e-05,-7e-05,-1e-05,3,1
12984,0,-6e-05,-4e-05,-1e-05,-0.0001,-6e-05,-7e-05,-1e-05,3,1
12985,0,-6e-05,-4e-05,-1e-05,-0.0001,-6e-05,-7e-05,-1e-05,3,1
12986,0,-6e-05,-4e-05,-1e-05,-0.0001,-6e-05,-7e-05,-1e-05,3,1
12989,0,-6e-05,-4e-05,-1e-05,-0.0001,-6e-05,-7e-05,-1e-05,3,1
12990,0,-6e-05,-4e-05,-1e-05,-0.0001,-6e-05,-7e-05,-1e-05,3,1
12991,0,-6e-05,-4e-05,-1e-05,-0.0001,-6e-05,-7e-05,-1e-05,3,1
12992,0,-6e-05,-4e-05,-1e-05,-0.0001,-6e-05,-7e-05,-1e-05,3,1
12993,0.00015,-0.00022,-0.00011,-4e-05,-0.00013,4e-05,-3e-05,-2e-05,3,1
12994,0.00015,-0.00022,-0.00011,-4e-05,-0.00013,4e-05,-3e-05,-2e-05,3,1
12995,0.00033,0.00014,5e-05,2e-05,0.00011,0.00017,0.00013,0.00025,3,1
12996,0.00033,0.00014,5e-05,2e-05,0.00011,0.00017,0.00013,0.00025,3,1
12997,0.00033,0.00014,5e-05,2e-05,0.00011,0.00017,0.00013,0.00025,3,1
12998,0.00033,0.00014,5e-05,2e-05,0.00011,0.00017,0.00013,0.00025,3,1
12999,0.00033,0.00014,5e-05,2e-05,0.00011,0.00017,0.00013,0.00025,3,1
13000,0.00033,0.00014,5e-05,2e-05,0.00011,0.00017,0.00013,0.00025,3,1
13001,0.00033,0.00014,5e-05,2e-05,0.00011,0.00017,0.00013,0.00025,3,1
13002,0.00033,0.00014,5e-05,2e-05,0.00011,0.00017,0.00013,0.00025,3,1
13003,0.00033,0.00014,5e-05,2e-05,0.00011,0.00017,0.00013,0.00025,3,1
13004,0.00033,0.00014,5e-05,2e-05,0.00011,0.00017,0.00013,0.00025,3,1
13005,0.00033,0.00014,5e-05,2e-05,0.00011,0.00017,0.00013,0.00025,3,1
13006,0.00033,0.00014,5e-05,2e-05,0.00011,0.00017,0.00013,0.00025,3,1
13007,0.00033,0.00014,5e-05,2e-05,0.00011,0.00017,0.00013,0.00025,3,1
13008,0.00033,0.00014,5e-05,2e-05,0.00011,0.00017,0.00013,0.00025,3,1
13009,0.00033,0.00014,5e-05,2e-05,0.00011,0.00017,0.00013,0.00025,3,1
13010,0.00033,0.00014,5e-05,2e-05,0.00011,0.00017,0.00013,0.00025,3,1
13011,0.00033,0.00014,5e-05,2e-05,0.00011,0.00017,0.00013,0.00025,3,1
13012,0.00033,0.00014,5e-05,2e-05,0.00011,0.00017,0.00013,0.00025,3,1
13013,0.00033,0.00014,5e-05,2e-05,0.00011,0.00017,0.00013,0.00025,3,1
13014,0.00033,0.00014,5e-05,2e-05,0.00011,0.00017,0.00013,0.00025,3,1
13015,0.00033,0.00014,5e-05,2e-05,0.00011,0.00017,0.00013,0.00025,3,1
13016,1e-05,-0.00015,-9e-05,0,-2e-05,-3e-05,-0.00011,-6e-05,3,1
13017,7e-05,9e-05,0,0.0001,0.00025,0.0001,5e-05,0.00012,3,1
13019,7e-05,9e-05,0,0.0001,0.00025,0.0001,5e-05,0.00012,3,1
13020,7e-05,9e-05,0,0.0001,0.00025,0.0001,5e-05,0.00012,3,1
13021,7e-05,9e-05,0,0.0001,0.00025,0.0001,5e-05,0.00012,3,1
13022,7e-05,9e-05,0,0.0001,0.00025,0.0001,5e-05,0.00012,3,1
13023,7e-05,9e-05,0,0.0001,0.00025,0.0001,5e-05,0.00012,3,1
13024,7e-05,9e-05,0,0.0001,0.00025,0.0001,5e-05,0.00012,3,1
13025,7e-05,9e-05,0,0.0001,0.00025,0.0001,5e-05,0.00012,3,1
13026,7e-05,9e-05,0,0.0001,0.00025,0.0001,5e-05,0.00012,3,1
13027,7e-05,9e-05,0,0.0001,0.00025,0.0001,5e-05,0.00012,3,1
13028,7e-05,9e-05,0,0.0001,0.00025,0.0001,5e-05,0.00012,3,1
13029,1e-05,0.00015,2e-05,-2e-05,0,-1e-05,4e-05,-9e-05,3,1
13030,1e-05,0.00015,2e-05,-2e-05,0,-1e-05,4e-05,-9e-05,3,1
13031,1e-05,0.00015,2e-05,-2e-05,0,-1e-05,4e-05,-9e-05,3,1
13032,1e-05,0.00015,2e-05,-2e-05,0,-1e-05,4e-05,-9e-05,3,1
13033,1e-05,0.00015,2e-05,-2e-05,0,-1e-05,4e-05,-9e-05,3,1
13034,1e-05,0.00015,2e-05,-2e-05,0,-1e-05,4e-05,-9e-05,3,1
13035,1e-05,0.00015,2e-05,-2e-05,0,-1e-05,4e-05,-9e-05,3,1
13036,1e-05,0.00015,2e-05,-2e-05,0,-1e-05,4e-05,-9e-05,3,1
13038,1e-05,0.00015,2e-05,-2e-05,0,-1e-05,4e-05,-9e-05,3,1
13039,1e-05,0.00015,2e-05,-2e-05,0,-1e-05,4e-05,-9e-05,3,1
13040,1e-05,0.00015,2e-05,-2e-05,0,-1e-05,4e-05,-9e-05,3,1
13041,1e-05,0.00015,2e-05,-2e-05,0,-1e-05,4e-05,-9e-05,3,1
13042,1e-05,0.00015,2e-05,-2e-05,0,-1e-05,4e-05,-9e-05,3,1
13043,1e-05,0.00015,2e-05,-2e-05,0,-1e-05,4e-05,-9e-05,3,1
13044,1e-05,0.00015,2e-05,-2e-05,0,-1e-05,4e-05,-9e-05,3,1
13045,1e-05,0.00015,2e-05,-2e-05,0,-1e-05,4e-05,-9e-05,3,1
13046,-4e-05,-0.00014,-3e-05,-4e-05,-0.00017,-0.00015,-6e-05,-0.00011,3,1
13047,-4e-05,-0.00014,-3e-05,-4e-05,-0.00017,-0.00015,-6e-05,-0.00011,3,1
13048,-4e-05,-0.00014,-3e-05,-4e-05,-0.00017,-0.00015,-6e-05,-0.00011,3,1
13049,-4e-05,-0.00014,-3e-05,-4e-05,-0.00017,-0.00015,-6e-05,-0.00011,3,1
13050,-4e-05,-0.00014,-3e-05,-4e-05,-0.00017,-0.00015,-6e-05,-0.00011,3,1
13051,-4e-05,-0.00014,-3e-05,-4e-05,-0.00017,-0.00015,-6e-05,-0.00011,3,1
13052,-4e-05,-0.00014,-3e-05,-4e-05,-0.00017,-0.00015,-6e-05,-0.00011,3,1
13053,-4e-05,-0.00014,-3e-05,-4e-05,-0.00017,-0.00015,-6e-05,-0.00011,3,1
13054,-4e-05,-0.00014,-3e-05,-4e-05,-0.00017,-0.00015,-6e-05,-0.00011,3,1
13055,-4e-05,-0.00014,-3e-05,-4e-05,-0.00017,-0.00015,-6e-05,-0.00011,3,1
13056,-4e-05,-0.00014,-3e-05,-4e-05,-0.00017,-0.00015,-6e-05,-0.00011,3,1
13057,-4e-05,-0.00014,-3e-05,-4e-05,-0.00017,-0.00015,-6e-05,-0.00011,3,1
13058,-4e-05,-0.00014,-3e-05,-4e-05,-0.00017,-0.00015,-6e-05,-0.00011,3,1
13059,-4e-05,-0.00014,-3e-05,-4e-05,-0.00017,-0.00015,-6e-05,-0.00011,3,1
13060,-4e-05,-0.00014,-3e-05,-4e-05,-0.00017,-0.00015,-6e-05,-0.00011,3,1
13061,-4e-05,-0.00014,-3e-05,-4e-05,-0.00017,-0.00015,-6e-05,-0.00011,3,1
13062,-4e-05,-0.00014,-3e-05,-4e-05,-0.00017,-0.00015,-6e-05,-0.00011,3,1
13063,-4e-05,-0.00014,-3e-05,-4e-05,-0.00017,-0.00015,-6e-05,-0.00011,3,1
13064,-4e-05,-0.00014,-3e-05,-4e-05,-0.00017,-0.00015,-6e-05,-0.00011,3,1
13065,-4e-05,-0.00014,-3e-05,-4e-05,-0.00017,-0.00015,-6e-05,-0.00011,3,1
13066,-4e-05,-0.00014,-3e-05,-4e-05,-0.00017,-0.00015,-6e-05,-0.00011,3,1
13068,-0.00032,-0.00047,-9e-05,-6e-05,-7e-05,6e-05,-1e-05,0.00022,3,1
13069,-0.00032,-0.00047,-9e-05,-6e-05,-7e-05,6e-05,-1e-05,0.00022,3,1
13070,0.00032,3e-05,3e-05,-8e-05,-0.00021,-4e-05,3e-05,0.00019,3,1
13071,0.00032,3e-05,3e-05,-8e-05,-0.00021,-4e-05,3e-05,0.00019,3,1
13072,0.00032,3e-05,3e-05,-8e-05,-0.00021,-4e-05,3e-05,0.00019,3,1
13073,0.00032,3e-05,3e-05,-8e-05,-0.00021,-4e-05,3e-05,0.00019,3,1
13074,0.00032,3e-05,3e-05,-8e-05,-0.00021,-4e-05,3e-05,0.00019,3,1
13075,0.00032,3e-05,3e-05,-8e-05,-0.00021,-4e-05,3e-05,0.00019,3,1
13076,0.00032,3e-05,3e-05,-8e-05,-0.00021,-4e-05,3e-05,0.00019,3,1
13077,0.00032,3e-05,3e-05,-8e-05,-0.00021,-4e-05,3e-05,0.00019,3,1
13078,0.00032,3e-05,3e-05,-8e-05,-0.00021,-4e-05,3e-05,0.00019,3,1
13079,0.00032,3e-05,3e-05,-8e-05,-0.00021,-4e-05,3e-05,0.00019,3,1
13080,0.00032,3e-05,3e-05,-8e-05,-0.00021,-4e-05,3e-05,0.00019,3,1
13081,0.00032,3e-05,3e-05,-8e-05,-0.00021,-4e-05,3e-05,0.00019,3,1
13082,0.00032,3e-05,3e-05,-8e-05,-0.00021,-4e-05,3e-05,0.00019,3,1
13083,0.00032,3e-05,3e-05,-8e-05,-0.00021,-4e-05,3e-05,0.00019,3,1
13084,0.00016,0.00044,4e-05,-5e-05,-0.00016,-0.00019,-4e-05,7e-05,3,1
13085,0.00016,0.00044,4e-05,-5e-05,-0.00016,-0.00019,-4e-05,7e-05,3,1
13086,-0.00045,-0.00011,-1e-05,9e-05,0.00017,0.0002,0.00011,0.0001,3,1
13089,-0.00045,-0.00011,-1e-05,9e-05,0.00017,0.0002,0.00011,0.0001,3,1
13090,-0.00045,-0.00011,-1e-05,9e-05,0.00017,0.0002,0.00011,0.0001,3,1
13091,-0.00045,-0.00011,-1e-05,9e-05,0.00017,0.0002,0.00011,0.0001,3,1
13092,-0.00045,-0.00011,-1e-05,9e-05,0.00017,0.0002,0.00011,0.0001,3,1
13093,-0.00045,-0.00011,-1e-05,9e-05,0.00017,0.0002,0.00011,0.0001,3,1
13094,-0.00045,-0.00011,-1e-05,9e-05,0.00017,0.0002,0.00011,0.0001,3,1
13095,-0.00045,-0.00011,-1e-05,9e-05,0.00017,0.0002,0.00011,0.0001,3,1
13096,-0.00045,-0.00011,-1e-05,9e-05,0.00017,0.0002,0.00011,0.0001,3,1
13097,-0.00045,-0.00011,-1e-05,9e-05,0.00017,0.0002,0.00011,0.0001,3,1
13098,-0.00045,-0.00011,-1e-05,9e-05,0.00017,0.0002,0.00011,0.0001,3,1
13099,-0.00045,-0.00011,-1e-05,9e-05,0.00017,0.0002,0.00011,0.0001,3,1
13100,-0.00045,-0.00011,-1e-05,9e-05,0.00017,0.0002,0.00011,0.0001,3,1
13101,-0.00045,-0.00011,-1e-05,9e-05,0.00017,0.0002,0.00011,0.0001,3,1
13102,-0.00045,-0.00011,-1e-05,9e-05,0.00017,0.0002,0.00011,0.0001,3,1
13103,-0.00045,-0.00011,-1e-05,9e-05,0.00017,0.0002,0.00011,0.0001,3,1
13104,-0.00045,-0.00011,-1e-05,9e-05,0.00017,0.0002,0.00011,0.0001,3,1
13105,0.00015,0.00021,0,-6e-05,-0.00017,-7e-05,4e-05,1e-05,3,1
13106,0.00015,0.00021,0,-6e-05,-0.00017,-7e-05,4e-05,1e-05,3,1
13107,0.00015,0.00021,0,-6e-05,-0.00017,-7e-05,4e-05,1e-05,3,1
13108,0.00015,0.00021,0,-6e-05,-0.00017,-7e-05,4e-05,1e-05,3,1
13109,0.00015,0.00021,0,-6e-05,-0.00017,-7e-05,4e-05,1e-05,3,1
13110,0.00015,0.00021,0,-6e-05,-0.00017,-7e-05,4e-05,1e-05,3,1
13111,0.00015,0.00021,0,-6e-05,-0.00017,-7e-05,4e-05,1e-05,3,1
13112,-0.00032,-0.00057,-9e-05,0.00014,0.00047,0.00021,-1e-05,-0.00038,3,1
13113,-0.00032,-0.00057,-9e-05,0.00014,0.00047,0.00021,-1e-05,-0.00038,3,1
13114,-0.00032,-0.00057,-9e-05,0.00014,0.00047,0.00021,-1e-05,-0.00038,3,1
13115,-0.00032,-0.00057,-9e-05,0.00014,0.00047,0.00021,-1e-05,-0.00038,3,1
13116,-0.00032,-0.00057,-9e-05,0.00014,0.00047,0.00021,-1e-05,-0.00038,3,1
13117,-0.00032,-0.00057,-9e-05,0.00014,0.00047,0.00021,-1e-05,-0.00038,3,1
13118,-0.00032,-0.00057,-9e-05,0.00014,0.00047,0.00021,-1e-05,-0.00038,3,1
13119,-0.00032,-0.00057,-9e-05,0.00014,0.00047,0.00021,-1e-05,-0.00038,3,1
13120,-0.00032,-0.00057,-9e-05,0.00014,0.00047,0.00021,-1e-05,-0.00038,3,1
13121,-0.00032,-0.00057,-9e-05,0.00014,0.00047,0.00021,-1e-05,-0.00038,3,1
13122,-0.00032,-0.00057,-9e-05,0.00014,0.00047,0.00021,-1e-05,-0.00038,3,1
13123,-0.00032,-0.00057,-9e-05,0.00014,0.00047,0.00021,-1e-05,-0.00038,3,1
13124,-0.00032,-0.00057,-9e-05,0.00014,0.00047,0.00021,-1e-05,-0.00038,3,1
13125,-0.00032,-0.00057,-9e-05,0.00014,0.00047,0.00021,-1e-05,-0.00038,3,1
13126,-0.00032,-0.00057,-9e-05,0.00014,0.00047,0.00021,-1e-05,-0.00038,3,1
13127,-0.00032,-0.00057,-9e-05,0.00014,0.00047,0.00021,-1e-05,-0.00038,3,1
13128,-0.00032,-0.00057,-9e-05,0.00014,0.00047,0.00021,-1e-05,-0.00038,3,1
13129,-0.00032,-0.00057,-9e-05,0.00014,0.00047,0.00021,-1e-05,-0.00038,3,1
13130,-0.00032,-0.00057,-9e-05,0.00014,0.00047,0.00021,-1e-05,-0.00038,3,1
13131,-0.00032,-0.00057,-9e-05,0.00014,0.00047,0.00021,-1e-05,-0.00038,3,1
13132,-0.00032,-0.00057,-9e-05,0.00014,0.00047,0.00021,-1e-05,-0.00038,3,1
13133,-0.00032,-0.00057,-9e-05,0.00014,0.00047,0.00021,-1e-05,-0.00038,3,1
13134,-0.00032,-0.00057,-9e-05,0.00014,0.00047,0.00021,-1e-05,-0.00038,3,1
13135,-0.00032,-0.00057,-9e-05,0.00014,0.00047,0.00021,-1e-05,-0.00038,3,1
13136,-0.00032,-0.00057,-9e-05,0.00014,0.00047,0.00021,-1e-05,-0.00038,3,1
13139,-0.00032,-0.00057,-9e-05,0.00014,0.00047,0.00021,-1e-05,-0.00038,3,1
13140,-0.00032,-0.00057,-9e-05,0.00014,0.00047,0.00021,-1e-05,-0.00038,3,1
13141,-0.00032,-0.00057,-9e-05,0.00014,0.00047,0.00021,-1e-05,-0.00038,3,1
13142,-0.00032,-0.00057,-9e-05,0.00014,0.00047,0.00021,-1e-05,-0.00038,3,1
13143,0.00024,-0.0001,1e-05,0,-5e-05,3e-05,9e-05,-0.00013,3,1
13144,0.00024,-0.0001,1e-05,0,-5e-05,3e-05,9e-05,-0.00013,3,1
13145,0.0001,0.00012,0,-2e-05,-5e-05,2e-05,0,6e-05,3,1
13146,0.0001,0.00012,0,-2e-05,-5e-05,2e-05,0,6e-05,3,1
13147,0.0001,0.00012,0,-2e-05,-5e-05,2e-05,0,6e-05,3,1
13148,0.0001,0.00012,0,-2e-05,-5e-05,2e-05,0,6e-05,3,1
13149,0.0001,0.00012,0,-2e-05,-5e-05,2e-05,0,6e-05,3,1
13150,0.0001,0.00012,0,-2e-05,-5e-05,2e-05,0,6e-05,3,1
13151,0.0001,0.00012,0,-2e-05,-5e-05,2e-05,0,6e-05,3,1
13152,0.0001,0.00012,0,-2e-05,-5e-05,2e-05,0,6e-05,3,1
13153,0.0001,0.00012,0,-2e-05,-5e-05,2e-05,0,6e-05,3,1
13154,0.0001,0.00012,0,-2e-05,-5e-05,2e-05,0,6e-05,3,1
13155,0.0001,0.00012,0,-2e-05,-5e-05,2e-05,0,6e-05,3,1
13156,0.0001,0.00012,0,-2e-05,-5e-05,2e-05,0,6e-05,3,1
13157,0.0001,0.00012,0,-2e-05,-5e-05,2e-05,0,6e-05,3,1
13158,0.0001,0.00012,0,-2e-05,-5e-05,2e-05,0,6e-05,3,1
13159,-0.00016,-0.00013,-9e-05,4e-05,0.00018,-2e-05,-3e-05,0.00013,3,1
13160,2e-05,-1e-05,-5e-05,-0.00018,-0.00036,-0.00021,-0.00016,-0.00027,3,1
13161,2e-05,-1e-05,-5e-05,-0.00018,-0.00036,-0.00021,-0.00016,-0.00027,3,1
13162,2e-05,-1e-05,-5e-05,-0.00018,-0.00036,-0.00021,-0.00016,-0.00027,3,1
13163,2e-05,-1e-05,-5e-05,-0.00018,-0.00036,-0.00021,-0.00016,-0.00027,3,1
13164,2e-05,-1e-05,-5e-05,-0.00018,-0.00036,-0.00021,-0.00016,-0.00027,3,1
13165,2e-05,-1e-05,-5e-05,-0.00018,-0.00036,-0.00021,-0.00016,-0.00027,3,1
13166,2e-05,-1e-05,-5e-05,-0.00018,-0.00036,-0.00021,-0.00016,-0.00027,3,1
13167,2e-05,-1e-05,-5e-05,-0.00018,-0.00036,-0.00021,-0.00016,-0.00027,3,1
13168,2e-05,-1e-05,-5e-05,-0.00018,-0.00036,-0.00021,-0.00016,-0.00027,3,1
13169,2e-05,-1e-05,-5e-05,-0.00018,-0.00036,-0.00021,-0.00016,-0.00027,3,1
13170,2e-05,-1e-05,-5e-05,-0.00018,-0.00036,-0.00021,-0.00016,-0.00027,3,1
13171,2e-05,-1e-05,-5e-05,-0.00018,-0.00036,-0.00021,-0.00016,-0.00027,3,1
13172,2e-05,-1e-05,-5e-05,-0.00018,-0.00036,-0.00021,-0.00016,-0.00027,3,1
13173,2e-05,-1e-05,-5e-05,-0.00018,-0.00036,-0.00021,-0.00016,-0.00027,3,1
13174,2e-05,-1e-05,-5e-05,-0.00018,-0.00036,-0.00021,-0.00016,-0.00027,3,1
13175,2e-05,-1e-05,-5e-05,-0.00018,-0.00036,-0.00021,-0.00016,-0.00027,3,1
13176,2e-05,-1e-05,-5e-05,-0.00018,-0.00036,-0.00021,-0.00016,-0.00027,3,1
13177,2e-05,-1e-05,-5e-05,-0.00018,-0.00036,-0.00021,-0.00016,-0.00027,3,1
13178,2e-05,-1e-05,-5e-05,-0.00018,-0.00036,-0.00021,-0.00016,-0.00027,3,1
13179,2e-05,-1e-05,-5e-05,-0.00018,-0.00036,-0.00021,-0.00016,-0.00027,3,1
13180,2e-05,-1e-05,-5e-05,-0.00018,-0.00036,-0.00021,-0.00016,-0.00027,3,1
13181,-0.00013,4e-05,3e-05,3e-05,0.00012,-3e-05,-7e-05,-0.00014,3,1
13182,-7e-05,-0.00039,-4e-05,-6e-05,-0.00014,2e-05,6e-05,-5e-05,3,1
13183,-7e-05,-0.00039,-4e-05,-6e-05,-0.00014,2e-05,6e-05,-5e-05,3,1
13184,-7e-05,-0.00039,-4e-05,-6e-05,-0.00014,2e-05,6e-05,-5e-05,3,1
13185,-7e-05,-0.00039,-4e-05,-6e-05,-0.00014,2e-05,6e-05,-5e-05,3,1
13186,-7e-05,-0.00039,-4e-05,-6e-05,-0.00014,2e-05,6e-05,-5e-05,3,1
13189,-7e-05,-0.00039,-4e-05,-6e-05,-0.00014,2e-05,6e-05,-5e-05,3,1
13190,-7e-05,-0.00039,-4e-05,-6e-05,-0.00014,2e-05,6e-05,-5e-05,3,1
13191,-7e-05,-0.00039,-4e-05,-6e-05,-0.00014,2e-05,6e-05,-5e-05,3,1
13192,-7e-05,-0.00039,-4e-05,-6e-05,-0.00014,2e-05,6e-05,-5e-05,3,1
13193,-7e-05,-0.00039,-4e-05,-6e-05,-0.00014,2e-05,6e-05,-5e-05,3,1
13194,-7e-05,-0.00039,-4e-05,-6e-05,-0.00014,2e-05,6e-05,-5e-05,3,1
13195,-7e-05,-0.00039,-4e-05,-6e-05,-0.00014,2e-05,6e-05,-5e-05,3,1
13196,-7e-05,-0.00039,-4e-05,-6e-05,-0.00014,2e-05,6e-05,-5e-05,3,1
13197,-7e-05,-0.00039,-4e-05,-6e-05,-0.00014,2e-05,6e-05,-5e-05,3,1
13198,-7e-05,-0.00039,-4e-05,-6e-05,-0.00014,2e-05,6e-05,-5e-05,3,1
13199,-7e-05,-0.00039,-4e-05,-6e-05,-0.00014,2e-05,6e-05,-5e-05,3,1
13200,-7e-05,-0.00039,-4e-05,-6e-05,-0.00014,2e-05,6e-05,-5e-05,3,1
13201,-7e-05,-0.00039,-4e-05,-6e-05,-0.00014,2e-05,6e-05,-5e-05,3,1
13202,-7e-05,-0.00039,-4e-05,-6e-05,-0.00014,2e-05,6e-05,-5e-05,3,1
13203,-7e-05,-0.00039,-4e-05,-6e-05,-0.00014,2e-05,6e-05,-5e-05,3,1
13204,-7e-05,-0.00039,-4e-05,-6e-05,-0.00014,2e-05,6e-05,-5e-05,3,1
13205,-7e-05,-0.00039,-4e-05,-6e-05,-0.00014,2e-05,6e-05,-5e-05,3,1
13206,-7e-05,-0.00039,-4e-05,-6e-05,-0.00014,2e-05,6e-05,-5e-05,3,1
13207,-7e-05,-0.00039,-4e-05,-6e-05,-0.00014,2e-05,6e-05,-5e-05,3,1
13208,-7e-05,-0.00039,-4e-05,-6e-05,-0.00014,2e-05,6e-05,-5e-05,3,1
13209,-7e-05,-0.00039,-4e-05,-6e-05,-0.00014,2e-05,6e-05,-5e-05,3,1
13210,-7e-05,-0.00039,-4e-05,-6e-05,-0.00014,2e-05,6e-05,-5e-05,3,1
13211,-7e-05,-0.00039,-4e-05,-6e-05,-0.00014,2e-05,6e-05,-5e-05,3,1
13212,-7e-05,-0.00039,-4e-05,-6e-05,-0.00014,2e-05,6e-05,-5e-05,3,1
13213,-7e-05,-0.00039,-4e-05,-6e-05,-0.00014,2e-05,6e-05,-5e-05,3,1
13214,-7e-05,-0.00039,-4e-05,-6e-05,-0.00014,2e-05,6e-05,-5e-05,3,1
13215,-7e-05,-0.00039,-4e-05,-6e-05,-0.00014,2e-05,6e-05,-5e-05,3,1
13216,-7e-05,-0.00039,-4e-05,-6e-05,-0.00014,2e-05,6e-05,-5e-05,3,1
13217,-7e-05,-0.00039,-4e-05,-6e-05,-0.00014,2e-05,6e-05,-5e-05,3,1
13218,-0.0005,0.00014,3e-05,0,1e-05,-4e-05,-7e-05,-0.00022,3,1
13219,-0.0005,0.00014,3e-05,0,1e-05,-4e-05,-7e-05,-0.00022,3,1
13220,-6e-05,0.00019,1e-05,-0.00019,-0.00055,-0.00027,-0.00017,-4e-05,3,1
13221,-6e-05,0.00019,1e-05,-0.00019,-0.00055,-0.00027,-0.00017,-4e-05,3,1
13222,-6e-05,0.00019,1e-05,-0.00019,-0.00055,-0.00027,-0.00017,-4e-05,3,1
13223,-6e-05,0.00019,1e-05,-0.00019,-0.00055,-0.00027,-0.00017,-4e-05,3,1
13224,-6e-05,0.00019,1e-05,-0.00019,-0.00055,-0.00027,-0.00017,-4e-05,3,1
13225,-6e-05,0.00019,1e-05,-0.00019,-0.00055,-0.00027,-0.00017,-4e-05,3,1
13226,-6e-05,0.00019,1e-05,-0.00019,-0.00055,-0.00027,-0.00017,-4e-05,3,1
13227,-6e-05,0.00019,1e-05,-0.00019,-0.00055,-0.00027,-0.00017,-4e-05,3,1
13228,-6e-05,0.00019,1e-05,-0.00019,-0.00055,-0.00027,-0.00017,-4e-05,3,1
13229,-6e-05,0.00019,1e-05,-0.00019,-0.00055,-0.00027,-0.00017,-4e-05,3,1
13230,-6e-05,0.00019,1e-05,-0.00019,-0.00055,-0.00027,-0.00017,-4e-05,3,1
13231,-6e-05,0.00019,1e-05,-0.00019,-0.00055,-0.00027,-0.00017,-4e-05,3,1
13232,-6e-05,0.00019,1e-05,-0.00019,-0.00055,-0.00027,-0.00017,-4e-05,3,1
13233,-6e-05,0.00019,1e-05,-0.00019,-0.00055,-0.00027,-0.00017,-4e-05,3,1
13234,0.00012,0.00014,7e-05,9e-05,0.00015,1e-05,-1e-05,8e-05,3,1
13235,-1e-05,0.00018,0,0,0,-5e-05,0,-5e-05,3,1
13236,-1e-05,0.00018,0,0,0,-5e-05,0,-5e-05,3,1
13239,-1e-05,0.00018,0,0,0,-5e-05,0,-5e-05,3,1
13240,-1e-05,0.00018,0,0,0,-5e-05,0,-5e-05,3,1
13241,-1e-05,0.00018,0,0,0,-5e-05,0,-5e-05,3,1
13242,-1e-05,0.00018,0,0,0,-5e-05,0,-5e-05,3,1
13243,-1e-05,0.00018,0,0,0,-5e-05,0,-5e-05,3,1
13244,-1e-05,0.00018,0,0,0,-5e-05,0,-5e-05,3,1
13245,-1e-05,0.00018,0,0,0,-5e-05,0,-5e-05,3,1
13246,-1e-05,0.00018,0,0,0,-5e-05,0,-5e-05,3,1
13247,-1e-05,0.00018,0,0,0,-5e-05,0,-5e-05,3,1
13248,-1e-05,0.00018,0,0,0,-5e-05,0,-5e-05,3,1
13249,-1e-05,0.00018,0,0,0,-5e-05,0,-5e-05,3,1
13250,-1e-05,0.00018,0,0,0,-5e-05,0,-5e-05,3,1
13251,-1e-05,0.00018,0,0,0,-5e-05,0,-5e-05,3,1
13252,-1e-05,0.00018,0,0,0,-5e-05,0,-5e-05,3,1
13253,-1e-05,0.00018,0,0,0,-5e-05,0,-5e-05,3,1
13254,-1e-05,0.00018,0,0,0,-5e-05,0,-5e-05,3,1
13255,-1e-05,0.00018,0,0,0,-5e-05,0,-5e-05,3,1
13256,-1e-05,0.00018,0,0,0,-5e-05,0,-5e-05,3,1
13257,-1e-05,0.00018,0,0,0,-5e-05,0,-5e-05,3,1
13258,-1e-05,0.00018,0,0,0,-5e-05,0,-5e-05,3,1
13259,-1e-05,0.00018,0,0,0,-5e-05,0,-5e-05,3,1
13260,-1e-05,0.00018,0,0,0,-5e-05,0,-5e-05,3,1
13261,-1e-05,0.00018,0,0,0,-5e-05,0,-5e-05,3,1
13262,-1e-05,0.00018,0,0,0,-5e-05,0,-5e-05,3,1
13263,-1e-05,0.00018,0,0,0,-5e-05,0,-5e-05,3,1
13264,-1e-05,0.00018,0,0,0,-5e-05,0,-5e-05,3,1
13265,-1e-05,0.00018,0,0,0,-5e-05,0,-5e-05,3,1
13266,-1e-05,0.00018,0,0,0,-5e-05,0,-5e-05,3,1
13267,-1e-05,0.00018,0,0,0,-5e-05,0,-5e-05,3,1
13268,-1e-05,0.00018,0,0,0,-5e-05,0,-5e-05,3,1
13269,-1e-05,0.00018,0,0,0,-5e-05,0,-5e-05,3,1
13270,-1e-05,0.00018,0,0,0,-5e-05,0,-5e-05,3,1
13271,-1e-05,0.00018,0,0,0,-5e-05,0,-5e-05,3,1
13272,-2e-05,6e-05,-2e-05,4e-05,0.00021,1e-05,1e-05,3e-05,3,1
13273,-2e-05,6e-05,-2e-05,4e-05,0.00021,1e-05,1e-05,3e-05,3,1
13274,-2e-05,6e-05,-2e-05,4e-05,0.00021,1e-05,1e-05,3e-05,3,1
13275,-2e-05,6e-05,-2e-05,4e-05,0.00021,1e-05,1e-05,3e-05,3,1
13276,-2e-05,6e-05,-2e-05,4e-05,0.00021,1e-05,1e-05,3e-05,3,1
13277,-2e-05,6e-05,-2e-05,4e-05,0.00021,1e-05,1e-05,3e-05,3,1
13278,-2e-05,6e-05,-2e-05,4e-05,0.00021,1e-05,1e-05,3e-05,3,1
13279,-2e-05,6e-05,-2e-05,4e-05,0.00021,1e-05,1e-05,3e-05,3,1
13280,-2e-05,6e-05,-2e-05,4e-05,0.00021,1e-05,1e-05,3e-05,3,1
13281,-2e-05,6e-05,-2e-05,4e-05,0.00021,1e-05,1e-05,3e-05,3,1
13282,-2e-05,6e-05,-2e-05,4e-05,0.00021,1e-05,1e-05,3e-05,3,1
13283,-2e-05,6e-05,-2e-05,4e-05,0.00021,1e-05,1e-05,3e-05,3,1
13284,-2e-05,6e-05,-2e-05,4e-05,0.00021,1e-05,1e-05,3e-05,3,1
13285,-2e-05,6e-05,-2e-05,4e-05,0.00021,1e-05,1e-05,3e-05,3,1
13286,-2e-05,6e-05,-2e-05,4e-05,0.00021,1e-05,1e-05,3e-05,3,1
13289,-2e-05,6e-05,-2e-05,4e-05,0.00021,1e-05,1e-05,3e-05,3,1
13290,-2e-05,6e-05,-2e-05,4e-05,0.00021,1e-05,1e-05,3e-05,3,1
13291,-2e-05,6e-05,-2e-05,4e-05,0.00021,1e-05,1e-05,3e-05,3,1
13292,-2e-05,6e-05,-2e-05,4e-05,0.00021,1e-05,1e-05,3e-05,3,1
13293,-2e-05,6e-05,-2e-05,4e-05,0.00021,1e-05,1e-05,3e-05,3,1
13294,-0.00011,-0.0002,-2e-05,7e-05,0.00013,-4e-05,-0.00012,-0.00017,3,1
13295,-0.00011,-0.0002,-2e-05,7e-05,0.00013,-4e-05,-0.00012,-0.00017,3,1
13296,0.00033,0.0001,-6e-05,-2e-05,4e-05,7e-05,2e-05,0.00025,3,1
13297,0.00033,0.0001,-6e-05,-2e-05,4e-05,7e-05,2e-05,0.00025,3,1
13298,0.00033,0.0001,-6e-05,-2e-05,4e-05,7e-05,2e-05,0.00025,3,1
13300,0.00033,0.0001,-6e-05,-2e-05,4e-05,7e-05,2e-05,0.00025,3,1
13301,0.00033,0.0001,-6e-05,-2e-05,4e-05,7e-05,2e-05,0.00025,3,1
13302,0.00033,0.0001,-6e-05,-2e-05,4e-05,7e-05,2e-05,0.00025,3,1
13303,0.00033,0.0001,-6e-05,-2e-05,4e-05,7e-05,2e-05,0.00025,3,1
13304,0.00033,0.0001,-6e-05,-2e-05,4e-05,7e-05,2e-05,0.00025,3,1
13305,0.00033,0.0001,-6e-05,-2e-05,4e-05,7e-05,2e-05,0.00025,3,1
13306,0.00033,0.0001,-6e-05,-2e-05,4e-05,7e-05,2e-05,0.00025,3,1
13307,0.00033,0.0001,-6e-05,-2e-05,4e-05,7e-05,2e-05,0.00025,3,1
13308,0.00033,0.0001,-6e-05,-2e-05,4e-05,7e-05,2e-05,0.00025,3,1
13309,9e-05,3e-05,0,-7e-05,-0.00017,1e-05,-4e-05,-0.00011,3,1
13310,9e-05,3e-05,0,-7e-05,-0.00017,1e-05,-4e-05,-0.00011,3,1
13311,9e-05,3e-05,0,-7e-05,-0.00017,1e-05,-4e-05,-0.00011,3,1
13312,9e-05,3e-05,0,-7e-05,-0.00017,1e-05,-4e-05,-0.00011,3,1
13313,9e-05,3e-05,0,-7e-05,-0.00017,1e-05,-4e-05,-0.00011,3,1
13314,9e-05,3e-05,0,-7e-05,-0.00017,1e-05,-4e-05,-0.00011,3,1
13315,9e-05,3e-05,0,-7e-05,-0.00017,1e-05,-4e-05,-0.00011,3,1
13316,9e-05,3e-05,0,-7e-05,-0.00017,1e-05,-4e-05,-0.00011,3,1
13317,9e-05,3e-05,0,-7e-05,-0.00017,1e-05,-4e-05,-0.00011,3,1
13318,9e-05,3e-05,0,-7e-05,-0.00017,1e-05,-4e-05,-0.00011,3,1
13319,9e-05,3e-05,0,-7e-05,-0.00017,1e-05,-4e-05,-0.00011,3,1
13320,9e-05,3e-05,0,-7e-05,-0.00017,1e-05,-4e-05,-0.00011,3,1
13321,9e-05,3e-05,0,-7e-05,-0.00017,1e-05,-4e-05,-0.00011,3,1
13322,-0.00021,-0.00018,-0.00012,-2e-05,3e-05,-5e-05,-8e-05,-7e-05,3,1
13323,-0.00021,-0.00018,-0.00012,-2e-05,3e-05,-5e-05,-8e-05,-7e-05,3,1
13324,-0.00021,-0.00018,-0.00012,-2e-05,3e-05,-5e-05,-8e-05,-7e-05,3,1
13325,-0.00021,-0.00018,-0.00012,-2e-05,3e-05,-5e-05,-8e-05,-7e-05,3,1
13326,-0.00021,-0.00018,-0.00012,-2e-05,3e-05,-5e-05,-8e-05,-7e-05,3,1
13327,-0.00021,-0.00018,-0.00012,-2e-05,3e-05,-5e-05,-8e-05,-7e-05,3,1
13328,-0.00021,-0.00018,-0.00012,-2e-05,3e-05,-5e-05,-8e-05,-7e-05,3,1
13329,-0.00021,-0.00018,-0.00012,-2e-05,3e-05,-5e-05,-8e-05,-7e-05,3,1
13330,-0.00021,-0.00018,-0.00012,-2e-05,3e-05,-5e-05,-8e-05,-7e-05,3,1
13331,-0.00021,-0.00018,-0.00012,-2e-05,3e-05,-5e-05,-8e-05,-7e-05,3,1
13332,-0.00021,-0.00018,-0.00012,-2e-05,3e-05,-5e-05,-8e-05,-7e-05,3,1
13333,-0.00021,-0.00018,-0.00012,-2e-05,3e-05,-5e-05,-8e-05,-7e-05,3,1
13334,-0.00021,-0.00018,-0.00012,-2e-05,3e-05,-5e-05,-8e-05,-7e-05,3,1
13335,-0.00021,-0.00018,-0.00012,-2e-05,3e-05,-5e-05,-8e-05,-7e-05,3,1
13336,-0.00021,-0.00018,-0.00012,-2e-05,3e-05,-5e-05,-8e-05,-7e-05,3,1
13338,-0.00021,-0.00018,-0.00012,-2e-05,3e-05,-5e-05,-8e-05,-7e-05,3,1
13339,-0.00021,-0.00018,-0.00012,-2e-05,3e-05,-5e-05,-8e-05,-7e-05,3,1
13340,-0.00021,-0.00018,-0.00012,-2e-05,3e-05,-5e-05,-8e-05,-7e-05,3,1
13341,-0.00021,-0.00018,-0.00012,-2e-05,3e-05,-5e-05,-8e-05,-7e-05,3,1
13342,-0.00021,-0.00018,-0.00012,-2e-05,3e-05,-5e-05,-8e-05,-7e-05,3,1
13343,-0.00021,-0.00018,-0.00012,-2e-05,3e-05,-5e-05,-8e-05,-7e-05,3,1
13344,-0.00021,-0.00018,-0.00012,-2e-05,3e-05,-5e-05,-8e-05,-7e-05,3,1
13345,-0.00021,-0.00018,-0.00012,-2e-05,3e-05,-5e-05,-8e-05,-7e-05,3,1
13346,0.00021,0.00013,-5e-05,-0.00015,-0.00033,-0.0002,-8e-05,2e-05,3,1
13347,0.00017,9e-05,4e-05,5e-05,7e-05,4e-05,0,-3e-05,3,1
13348,0.00017,9e-05,4e-05,5e-05,7e-05,4e-05,0,-3e-05,3,1
13349,0.00017,9e-05,4e-05,5e-05,7e-05,4e-05,0,-3e-05,3,1
13350,0.00017,9e-05,4e-05,5e-05,7e-05,4e-05,0,-3e-05,3,1
13351,0.00017,9e-05,4e-05,5e-05,7e-05,4e-05,0,-3e-05,3,1
13352,0.00017,9e-05,4e-05,5e-05,7e-05,4e-05,0,-3e-05,3,1
13353,5e-05,8e-05,-2e-05,-7e-05,-0.00011,-0.0002,0.00014,1e-05,3,1
13354,5e-05,8e-05,-2e-05,-7e-05,-0.00011,-0.0002,0.00014,1e-05,3,1
13355,5e-05,8e-05,-2e-05,-7e-05,-0.00011,-0.0002,0.00014,1e-05,3,1
13356,5e-05,8e-05,-2e-05,-7e-05,-0.00011,-0.0002,0.00014,1e-05,3,1
13357,5e-05,8e-05,-2e-05,-7e-05,-0.00011,-0.0002,0.00014,1e-05,3,1
13358,5e-05,8e-05,-2e-05,-7e-05,-0.00011,-0.0002,0.00014,1e-05,3,1
13359,5e-05,8e-05,-2e-05,-7e-05,-0.00011,-0.0002,0.00014,1e-05,3,1
13360,5e-05,8e-05,-2e-05,-7e-05,-0.00011,-0.0002,0.00014,1e-05,3,1
13361,-6e-05,8e-05,4e-05,-5e-05,-6e-05,-6e-05,-7e-05,-7e-05,3,1
13362,-6e-05,8e-05,4e-05,-5e-05,-6e-05,-6e-05,-7e-05,-7e-05,3,1
13363,-6e-05,8e-05,4e-05,-5e-05,-6e-05,-6e-05,-7e-05,-7e-05,3,1
13364,-6e-05,8e-05,4e-05,-5e-05,-6e-05,-6e-05,-7e-05,-7e-05,3,1
13365,-6e-05,8e-05,4e-05,-5e-05,-6e-05,-6e-05,-7e-05,-7e-05,3,1
13366,-6e-05,8e-05,4e-05,-5e-05,-6e-05,-6e-05,-7e-05,-7e-05,3,1
13367,-6e-05,8e-05,4e-05,-5e-05,-6e-05,-6e-05,-7e-05,-7e-05,3,1
13368,-6e-05,8e-05,4e-05,-5e-05,-6e-05,-6e-05,-7e-05,-7e-05,3,1
13369,-6e-05,8e-05,4e-05,-5e-05,-6e-05,-6e-05,-7e-05,-7e-05,3,1
13370,-6e-05,8e-05,4e-05,-5e-05,-6e-05,-6e-05,-7e-05,-7e-05,3,1
13371,-6e-05,8e-05,4e-05,-5e-05,-6e-05,-6e-05,-7e-05,-7e-05,3,1
13372,-6e-05,8e-05,4e-05,-5e-05,-6e-05,-6e-05,-7e-05,-7e-05,3,1
13373,-6e-05,8e-05,4e-05,-5e-05,-6e-05,-6e-05,-7e-05,-7e-05,3,1
13374,0.00012,-2e-05,1e-05,8e-05,0.00019,0.00011,1e-05,0.00024,3,1
13375,0.00012,-2e-05,1e-05,8e-05,0.00019,0.00011,1e-05,0.00024,3,1
13376,0.00012,-2e-05,1e-05,8e-05,0.00019,0.00011,1e-05,0.00024,3,1
13377,0.00012,-2e-05,1e-05,8e-05,0.00019,0.00011,1e-05,0.00024,3,1
13378,0.00012,-2e-05,1e-05,8e-05,0.00019,0.00011,1e-05,0.00024,3,1
13379,0.00012,-2e-05,1e-05,8e-05,0.00019,0.00011,1e-05,0.00024,3,1
13380,0.00012,-2e-05,1e-05,8e-05,0.00019,0.00011,1e-05,0.00024,3,1
13381,0.00012,-2e-05,1e-05,8e-05,0.00019,0.00011,1e-05,0.00024,3,1
13382,0.00012,-2e-05,1e-05,8e-05,0.00019,0.00011,1e-05,0.00024,3,1
13383,0.00012,-2e-05,1e-05,8e-05,0.00019,0.00011,1e-05,0.00024,3,1
13384,0.00012,-2e-05,1e-05,8e-05,0.00019,0.00011,1e-05,0.00024,3,1
13385,0.00012,-2e-05,1e-05,8e-05,0.00019,0.00011,1e-05,0.00024,3,1
13386,0.00012,-2e-05,1e-05,8e-05,0.00019,0.00011,1e-05,0.00024,3,1
13388,0.00012,-2e-05,1e-05,8e-05,0.00019,0.00011,1e-05,0.00024,3,1
13389,0.00012,-2e-05,1e-05,8e-05,0.00019,0.00011,1e-05,0.00024,3,1
13390,0.00012,-2e-05,1e-05,8e-05,0.00019,0.00011,1e-05,0.00024,3,1
13391,0.00012,-2e-05,1e-05,8e-05,0.00019,0.00011,1e-05,0.00024,3,1
13392,0.00012,-2e-05,1e-05,8e-05,0.00019,0.00011,1e-05,0.00024,3,1
13393,0.00012,-2e-05,1e-05,8e-05,0.00019,0.00011,1e-05,0.00024,3,1
13394,0.00012,-2e-05,1e-05,8e-05,0.00019,0.00011,1e-05,0.00024,3,1
13395,0.00012,-2e-05,1e-05,8e-05,0.00019,0.00011,1e-05,0.00024,3,1
13396,0.00012,-2e-05,1e-05,8e-05,0.00019,0.00011,1e-05,0.00024,3,1
13397,0.00012,-2e-05,1e-05,8e-05,0.00019,0.00011,1e-05,0.00024,3,1
13398,0.00012,-2e-05,1e-05,8e-05,0.00019,0.00011,1e-05,0.00024,3,1
13399,0.00012,-2e-05,1e-05,8e-05,0.00019,0.00011,1e-05,0.00024,3,1
13400,0.0003,0.00032,0.00016,0.00011,9e-05,2e-05,0.00022,4e-05,3,1
13401,0.0003,0.00032,0.00016,0.00011,9e-05,2e-05,0.00022,4e-05,3,1
13402,0.0003,0.00032,0.00016,0.00011,9e-05,2e-05,0.00022,4e-05,3,1
13403,0.0003,0.00032,0.00016,0.00011,9e-05,2e-05,0.00022,4e-05,3,1
13404,0.0003,0.00032,0.00016,0.00011,9e-05,2e-05,0.00022,4e-05,3,1
13405,0.0003,0.00032,0.00016,0.00011,9e-05,2e-05,0.00022,4e-05,3,1
13406,0.0003,0.00032,0.00016,0.00011,9e-05,2e-05,0.00022,4e-05,3,1
13407,0.0003,0.00032,0.00016,0.00011,9e-05,2e-05,0.00022,4e-05,3,1
13408,0.0003,0.00032,0.00016,0.00011,9e-05,2e-05,0.00022,4e-05,3,1
13409,0.0003,0.00032,0.00016,0.00011,9e-05,2e-05,0.00022,4e-05,3,1
13410,0.0003,0.00032,0.00016,0.00011,9e-05,2e-05,0.00022,4e-05,3,1
13411,0.0003,0.00032,0.00016,0.00011,9e-05,2e-05,0.00022,4e-05,3,1
13412,0.0003,0.00032,0.00016,0.00011,9e-05,2e-05,0.00022,4e-05,3,1
13413,0.0003,0.00032,0.00016,0.00011,9e-05,2e-05,0.00022,4e-05,3,1
13414,0.0003,0.00032,0.00016,0.00011,9e-05,2e-05,0.00022,4e-05,3,1
13415,0.0003,0.00032,0.00016,0.00011,9e-05,2e-05,0.00022,4e-05,3,1
13416,0.0003,0.00032,0.00016,0.00011,9e-05,2e-05,0.00022,4e-05,3,1
13417,0.0003,0.00032,0.00016,0.00011,9e-05,2e-05,0.00022,4e-05,3,1
13418,0.0003,0.00032,0.00016,0.00011,9e-05,2e-05,0.00022,4e-05,3,1
13419,0.0003,0.00032,0.00016,0.00011,9e-05,2e-05,0.00022,4e-05,3,1
13420,0.0003,0.00032,0.00016,0.00011,9e-05,2e-05,0.00022,4e-05,3,1
13421,2e-05,2e-05,-0.0001,-7e-05,-3e-05,-1e-05,2e-05,0.00011,3,1
13422,-0.00032,-0.00018,2e-05,5e-05,8e-05,0.0002,6e-05,-4e-05,3,1
13423,-0.00032,-0.00018,2e-05,5e-05,8e-05,0.0002,6e-05,-4e-05,3,1
13424,-0.00032,-0.00018,2e-05,5e-05,8e-05,0.0002,6e-05,-4e-05,3,1
13425,-0.00032,-0.00018,2e-05,5e-05,8e-05,0.0002,6e-05,-4e-05,3,1
13426,-0.00032,-0.00018,2e-05,5e-05,8e-05,0.0002,6e-05,-4e-05,3,1
13427,-0.00032,-0.00018,2e-05,5e-05,8e-05,0.0002,6e-05,-4e-05,3,1
13428,0.00023,0.00013,2e-05,-5e-05,-0.00023,-9e-05,-3e-05,-1e-05,3,1
13429,0.00023,0.00013,2e-05,-5e-05,-0.00023,-9e-05,-3e-05,-1e-05,3,1
13430,-4e-05,-1e-05,-1e-05,3e-05,0.00023,4e-05,-9e-05,3e-05,3,1
13431,-4e-05,-1e-05,-1e-05,3e-05,0.00023,4e-05,-9e-05,3e-05,3,1
13432,-4e-05,-1e-05,-1e-05,3e-05,0.00023,4e-05,-9e-05,3e-05,3,1
13433,-4e-05,-1e-05,-1e-05,3e-05,0.00023,4e-05,-9e-05,3e-05,3,1
13434,-4e-05,-1e-05,-1e-05,3e-05,0.00023,4e-05,-9e-05,3e-05,3,1
13435,-4e-05,-1e-05,-1e-05,3e-05,0.00023,4e-05,-9e-05,3e-05,3,1
13436,-4e-05,-1e-05,-1e-05,3e-05,0.00023,4e-05,-9e-05,3e-05,3,1
13438,-4e-05,-1e-05,-1e-05,3e-05,0.00023,4e-05,-9e-05,3e-05,3,1
13439,-4e-05,-1e-05,-1e-05,3e-05,0.00023,4e-05,-9e-05,3e-05,3,1
13440,-4e-05,-1e-05,-1e-05,3e-05,0.00023,4e-05,-9e-05,3e-05,3,1
13441,-4e-05,-1e-05,-1e-05,3e-05,0.00023,4e-05,-9e-05,3e-05,3,1
13442,-4e-05,-1e-05,-1e-05,3e-05,0.00023,4e-05,-9e-05,3e-05,3,1
13443,-4e-05,-1e-05,-1e-05,3e-05,0.00023,4e-05,-9e-05,3e-05,3,1
13444,-4e-05,-1e-05,-1e-05,3e-05,0.00023,4e-05,-9e-05,3e-05,3,1
13445,-4e-05,-1e-05,-1e-05,3e-05,0.00023,4e-05,-9e-05,3e-05,3,1
13446,-4e-05,-1e-05,-1e-05,3e-05,0.00023,4e-05,-9e-05,3e-05,3,1
13447,-4e-05,-1e-05,-1e-05,3e-05,0.00023,4e-05,-9e-05,3e-05,3,1
13448,-4e-05,-1e-05,-1e-05,3e-05,0.00023,4e-05,-9e-05,3e-05,3,1
13449,-4e-05,-1e-05,-1e-05,3e-05,0.00023,4e-05,-9e-05,3e-05,3,1
13450,1e-05,-0.0003,-9e-05,0,0,7e-05,-2e-05,0.00026,3,1
13451,1e-05,-0.0003,-9e-05,0,0,7e-05,-2e-05,0.00026,3,1
13452,1e-05,-0.0003,-9e-05,0,0,7e-05,-2e-05,0.00026,3,1
13453,1e-05,-0.0003,-9e-05,0,0,7e-05,-2e-05,0.00026,3,1
13454,1e-05,-0.0003,-9e-05,0,0,7e-05,-2e-05,0.00026,3,1
13455,1e-05,-0.0003,-9e-05,0,0,7e-05,-2e-05,0.00026,3,1
13456,1e-05,-0.0003,-9e-05,0,0,7e-05,-2e-05,0.00026,3,1
13457,1e-05,-0.0003,-9e-05,0,0,7e-05,-2e-05,0.00026,3,1
13458,1e-05,-0.0003,-9e-05,0,0,7e-05,-2e-05,0.00026,3,1
13459,1e-05,-0.0003,-9e-05,0,0,7e-05,-2e-05,0.00026,3,1
13460,1e-05,-0.0003,-9e-05,0,0,7e-05,-2e-05,0.00026,3,1
13461,1e-05,-0.0003,-9e-05,0,0,7e-05,-2e-05,0.00026,3,1
13462,1e-05,-0.0003,-9e-05,0,0,7e-05,-2e-05,0.00026,3,1
13463,1e-05,-0.0003,-9e-05,0,0,7e-05,-2e-05,0.00026,3,1
13464,1e-05,-0.0003,-9e-05,0,0,7e-05,-2e-05,0.00026,3,1
13465,1e-05,-0.0003,-9e-05,0,0,7e-05,-2e-05,0.00026,3,1
13466,1e-05,-0.0003,-9e-05,0,0,7e-05,-2e-05,0.00026,3,1
13467,1e-05,-0.0003,-9e-05,0,0,7e-05,-2e-05,0.00026,3,1
13468,1e-05,-0.0003,-9e-05,0,0,7e-05,-2e-05,0.00026,3,1
13469,1e-05,-0.0003,-9e-05,0,0,7e-05,-2e-05,0.00026,3,1
13470,1e-05,-0.0003,-9e-05,0,0,7e-05,-2e-05,0.00026,3,1
13471,1e-05,-0.0003,-9e-05,0,0,7e-05,-2e-05,0.00026,3,1
13472,0.00028,3e-05,-0.00015,-0.00013,-0.0003,-0.00019,1e-05,0.00016,3,1
13473,0.00028,3e-05,-0.00015,-0.00013,-0.0003,-0.00019,1e-05,0.00016,3,1
13474,0.00028,3e-05,-0.00015,-0.00013,-0.0003,-0.00019,1e-05,0.00016,3,1
13475,0.00028,3e-05,-0.00015,-0.00013,-0.0003,-0.00019,1e-05,0.00016,3,1
13476,0.00028,3e-05,-0.00015,-0.00013,-0.0003,-0.00019,1e-05,0.00016,3,1
13477,0.00028,3e-05,-0.00015,-0.00013,-0.0003,-0.00019,1e-05,0.00016,3,1
13478,0.00028,3e-05,-0.00015,-0.00013,-0.0003,-0.00019,1e-05,0.00016,3,1
13479,0.00028,3e-05,-0.00015,-0.00013,-0.0003,-0.00019,1e-05,0.00016,3,1
13480,0.00028,3e-05,-0.00015,-0.00013,-0.0003,-0.00019,1e-05,0.00016,3,1
13481,0.00028,3e-05,-0.00015,-0.00013,-0.0003,-0.00019,1e-05,0.00016,3,1
13482,0.00028,3e-05,-0.00015,-0.00013,-0.0003,-0.00019,1e-05,0.00016,3,1
13483,0.00028,3e-05,-0.00015,-0.00013,-0.0003,-0.00019,1e-05,0.00016,3,1
13484,0.00028,3e-05,-0.00015,-0.00013,-0.0003,-0.00019,1e-05,0.00016,3,1
13485,0.00028,3e-05,-0.00015,-0.00013,-0.0003,-0.00019,1e-05,0.00016,3,1
13486,0.00028,3e-05,-0.00015,-0.00013,-0.0003,-0.00019,1e-05,0.00016,3,1
13489,0.00028,3e-05,-0.00015,-0.00013,-0.0003,-0.00019,1e-05,0.00016,3,1
13490,0.00028,3e-05,-0.00015,-0.00013,-0.0003,-0.00019,1e-05,0.00016,3,1
13491,0.00028,3e-05,-0.00015,-0.00013,-0.0003,-0.00019,1e-05,0.00016,3,1
13492,0.00028,3e-05,-0.00015,-0.00013,-0.0003,-0.00019,1e-05,0.00016,3,1
13493,0.00028,3e-05,-0.00015,-0.00013,-0.0003,-0.00019,1e-05,0.00016,3,1
13494,0.00028,3e-05,-0.00015,-0.00013,-0.0003,-0.00019,1e-05,0.00016,3,1
13495,0.00028,3e-05,-0.00015,-0.00013,-0.0003,-0.00019,1e-05,0.00016,3,1
13496,-0.00053,-0.00041,-5e-05,-1e-05,2e-05,6e-05,-2e-05,-0.00018,3,1
13497,-0.00053,-0.00041,-5e-05,-1e-05,2e-05,6e-05,-2e-05,-0.00018,3,1
13498,-0.00053,-0.00041,-5e-05,-1e-05,2e-05,6e-05,-2e-05,-0.00018,3,1
13499,-8e-05,3e-05,-4e-05,-0.00012,-0.00027,-0.00024,-9e-05,-0.00017,3,1
13500,-8e-05,3e-05,-4e-05,-0.00012,-0.00027,-0.00024,-9e-05,-0.00017,3,1
13501,-8e-05,3e-05,-4e-05,-0.00012,-0.00027,-0.00024,-9e-05,-0.00017,3,1
13502,-8e-05,3e-05,-4e-05,-0.00012,-0.00027,-0.00024,-9e-05,-0.00017,3,1
13503,1e-05,0.00035,5e-05,-2e-05,-0.00011,-5e-05,-7e-05,-0.00022,3,1
13504,1e-05,0.00035,5e-05,-2e-05,-0.00011,-5e-05,-7e-05,-0.00022,3,1
13505,-0.0002,-0.00022,-0.0001,-0.0001,-9e-05,-1e-05,-5e-05,-0.00019,3,1
13506,-0.0002,-0.00022,-0.0001,-0.0001,-9e-05,-1e-05,-5e-05,-0.00019,3,1
13507,-0.0002,-0.00022,-0.0001,-0.0001,-9e-05,-1e-05,-5e-05,-0.00019,3,1
13508,-0.0002,-0.00022,-0.0001,-0.0001,-9e-05,-1e-05,-5e-05,-0.00019,3,1
13509,-0.0002,-0.00022,-0.0001,-0.0001,-9e-05,-1e-05,-5e-05,-0.00019,3,1
13510,-0.0002,-0.00022,-0.0001,-0.0001,-9e-05,-1e-05,-5e-05,-0.00019,3,1
13511,-0.0002,-0.00022,-0.0001,-0.0001,-9e-05,-1e-05,-5e-05,-0.00019,3,1
13512,-0.0002,-0.00022,-0.0001,-0.0001,-9e-05,-1e-05,-5e-05,-0.00019,3,1
13513,-0.0002,-0.00022,-0.0001,-0.0001,-9e-05,-1e-05,-5e-05,-0.00019,3,1
13514,-0.0002,-0.00022,-0.0001,-0.0001,-9e-05,-1e-05,-5e-05,-0.00019,3,1
13515,-0.0002,-0.00022,-0.0001,-0.0001,-9e-05,-1e-05,-5e-05,-0.00019,3,1
13516,-0.0002,-0.00022,-0.0001,-0.0001,-9e-05,-1e-05,-5e-05,-0.00019,3,1
13517,-0.0002,-0.00022,-0.0001,-0.0001,-9e-05,-1e-05,-5e-05,-0.00019,3,1
13518,-0.0002,-0.00022,-0.0001,-0.0001,-9e-05,-1e-05,-5e-05,-0.00019,3,1
13519,-0.0002,-0.00022,-0.0001,-0.0001,-9e-05,-1e-05,-5e-05,-0.00019,3,1
13520,-0.0002,-0.00022,-0.0001,-0.0001,-9e-05,-1e-05,-5e-05,-0.00019,3,1
13521,-0.0002,-0.00022,-0.0001,-0.0001,-9e-05,-1e-05,-5e-05,-0.00019,3,1
13522,-0.0002,-0.00022,-0.0001,-0.0001,-9e-05,-1e-05,-5e-05,-0.00019,3,1
13523,-0.0002,-0.00022,-0.0001,-0.0001,-9e-05,-1e-05,-5e-05,-0.00019,3,1
13524,-0.0002,-0.00022,-0.0001,-0.0001,-9e-05,-1e-05,-5e-05,-0.00019,3,1
13525,2e-05,-6e-05,8e-05,0,-7e-05,-1e-05,3e-05,0,3,1
13526,2e-05,-6e-05,8e-05,0,-7e-05,-1e-05,3e-05,0,3,1
13527,2e-05,-6e-05,8e-05,0,-7e-05,-1e-05,3e-05,0,3,1
13528,2e-05,-6e-05,8e-05,0,-7e-05,-1e-05,3e-05,0,3,1
13529,2e-05,-6e-05,8e-05,0,-7e-05,-1e-05,3e-05,0,3,1
13530,2e-05,-6e-05,8e-05,0,-7e-05,-1e-05,3e-05,0,3,1
13531,2e-05,-6e-05,8e-05,0,-7e-05,-1e-05,3e-05,0,3,1
13532,2e-05,-6e-05,8e-05,0,-7e-05,-1e-05,3e-05,0,3,1
13533,2e-05,-6e-05,8e-05,0,-7e-05,-1e-05,3e-05,0,3,1
13535,2e-05,-6e-05,8e-05,0,-7e-05,-1e-05,3e-05,0,3,1
13536,2e-05,-6e-05,8e-05,0,-7e-05,-1e-05,3e-05,0,3,1
13538,2e-05,-6e-05,8e-05,0,-7e-05,-1e-05,3e-05,0,3,1
13540,2e-05,-6e-05,8e-05,0,-7e-05,-1e-05,3e-05,0,3,1
13541,2e-05,-6e-05,8e-05,0,-7e-05,-1e-05,3e-05,0,3,1
13542,2e-05,-6e-05,8e-05,0,-7e-05,-1e-05,3e-05,0,3,1
13543,2e-05,-6e-05,8e-05,0,-7e-05,-1e-05,3e-05,0,3,1
13544,2e-05,-6e-05,8e-05,0,-7e-05,-1e-05,3e-05,0,3,1
13545,2e-05,-6e-05,8e-05,0,-7e-05,-1e-05,3e-05,0,3,1
13546,2e-05,-6e-05,8e-05,0,-7e-05,-1e-05,3e-05,0,3,1
13547,-0.00013,8e-05,4e-05,8e-05,0.0001,9e-05,-1e-05,2e-05,3,1
13548,-0.0002,-0.00021,-2e-05,3e-05,0.00014,-0.00015,6e-05,-9e-05,3,1
13549,-0.0002,-0.00021,-2e-05,3e-05,0.00014,-0.00015,6e-05,-9e-05,3,1
13550,-0.0002,-0.00021,-2e-05,3e-05,0.00014,-0.00015,6e-05,-9e-05,3,1
13551,-0.0002,-0.00021,-2e-05,3e-05,0.00014,-0.00015,6e-05,-9e-05,3,1
13552,-0.0002,-0.00021,-2e-05,3e-05,0.00014,-0.00015,6e-05,-9e-05,3,1
13553,-0.0002,-0.00021,-2e-05,3e-05,0.00014,-0.00015,6e-05,-9e-05,3,1
13554,-0.0002,-0.00021,-2e-05,3e-05,0.00014,-0.00015,6e-05,-9e-05,3,1
13555,-0.0002,-0.00021,-2e-05,3e-05,0.00014,-0.00015,6e-05,-9e-05,3,1
13556,-0.0002,-0.00021,-2e-05,3e-05,0.00014,-0.00015,6e-05,-9e-05,3,1
13557,-0.0002,-0.00021,-2e-05,3e-05,0.00014,-0.00015,6e-05,-9e-05,3,1
13558,-0.0002,-0.00021,-2e-05,3e-05,0.00014,-0.00015,6e-05,-9e-05,3,1
13559,-0.0002,-0.00021,-2e-05,3e-05,0.00014,-0.00015,6e-05,-9e-05,3,1
13560,-0.0002,-0.00021,-2e-05,3e-05,0.00014,-0.00015,6e-05,-9e-05,3,1
13561,-0.0002,-0.00021,-2e-05,3e-05,0.00014,-0.00015,6e-05,-9e-05,3,1
13562,-0.0002,-0.00021,-2e-05,3e-05,0.00014,-0.00015,6e-05,-9e-05,3,1
13563,-0.0002,-0.00021,-2e-05,3e-05,0.00014,-0.00015,6e-05,-9e-05,3,1
13564,-0.0002,-0.00021,-2e-05,3e-05,0.00014,-0.00015,6e-05,-9e-05,3,1
13565,-0.0002,-0.00021,-2e-05,3e-05,0.00014,-0.00015,6e-05,-9e-05,3,1
13566,-0.0002,-0.00021,-2e-05,3e-05,0.00014,-0.00015,6e-05,-9e-05,3,1
13567,-0.0002,-0.00021,-2e-05,3e-05,0.00014,-0.00015,6e-05,-9e-05,3,1
13568,-0.0002,-0.00021,-2e-05,3e-05,0.00014,-0.00015,6e-05,-9e-05,3,1
13569,-0.0002,-0.00021,-2e-05,3e-05,0.00014,-0.00015,6e-05,-9e-05,3,1
13570,-0.0002,-0.00021,-2e-05,3e-05,0.00014,-0.00015,6e-05,-9e-05,3,1
13571,-0.00027,-0.00017,-9e-05,2e-05,0.00023,4e-05,0.0001,0.00029,3,1
13572,-0.00027,-0.00017,-9e-05,2e-05,0.00023,4e-05,0.0001,0.00029,3,1
13573,-0.00027,-0.00017,-9e-05,2e-05,0.00023,4e-05,0.0001,0.00029,3,1
13574,-0.00027,-0.00017,-9e-05,2e-05,0.00023,4e-05,0.0001,0.00029,3,1
13575,-0.00027,-0.00017,-9e-05,2e-05,0.00023,4e-05,0.0001,0.00029,3,1
13576,-0.00027,-0.00017,-9e-05,2e-05,0.00023,4e-05,0.0001,0.00029,3,1
13577,-0.00027,-0.00017,-9e-05,2e-05,0.00023,4e-05,0.0001,0.00029,3,1
13578,-0.00027,-0.00017,-9e-05,2e-05,0.00023,4e-05,0.0001,0.00029,3,1
13579,0.0001,-3e-05,-4e-05,0,-7e-05,-9e-05,-4e-05,0.00024,3,1
13580,0.0001,-3e-05,-4e-05,0,-7e-05,-9e-05,-4e-05,0.00024,3,1
13581,7e-05,0.00017,4e-05,4e-05,9e-05,3e-05,2e-05,0.00011,3,1
13583,7e-05,0.00017,4e-05,4e-05,9e-05,3e-05,2e-05,0.00011,3,1
13584,7e-05,0.00017,4e-05,4e-05,9e-05,3e-05,2e-05,0.00011,3,1
13585,7e-05,0.00017,4e-05,4e-05,9e-05,3e-05,2e-05,0.00011,3,1
13586,7e-05,0.00017,4e-05,4e-05,9e-05,3e-05,2e-05,0.00011,3,1
13589,7e-05,0.00017,4e-05,4e-05,9e-05,3e-05,2e-05,0.00011,3,1
13590,7e-05,0.00017,4e-05,4e-05,9e-05,3e-05,2e-05,0.00011,3,1
13591,7e-05,0.00017,4e-05,4e-05,9e-05,3e-05,2e-05,0.00011,3,1
13592,7e-05,0.00017,4e-05,4e-05,9e-05,3e-05,2e-05,0.00011,3,1
13593,7e-05,0.00017,4e-05,4e-05,9e-05,3e-05,2e-05,0.00011,3,1
13594,7e-05,0.00017,4e-05,4e-05,9e-05,3e-05,2e-05,0.00011,3,1
13595,7e-05,0.00017,4e-05,4e-05,9e-05,3e-05,2e-05,0.00011,3,1
13596,7e-05,0.00017,4e-05,4e-05,9e-05,3e-05,2e-05,0.00011,3,1
13597,7e-05,0.00017,4e-05,4e-05,9e-05,3e-05,2e-05,0.00011,3,1
13598,7e-05,0.00017,4e-05,4e-05,9e-05,3e-05,2e-05,0.00011,3,1
13599,7e-05,0.00017,4e-05,4e-05,9e-05,3e-05,2e-05,0.00011,3,1
13600,-6e-05,0.0003,0.00015,7e-05,0.00015,6e-05,-8e-05,7e-05,3,1
13601,-6e-05,0.0003,0.00015,7e-05,0.00015,6e-05,-8e-05,7e-05,3,1
13602,-6e-05,0.0003,0.00015,7e-05,0.00015,6e-05,-8e-05,7e-05,3,1
13603,-6e-05,0.0003,0.00015,7e-05,0.00015,6e-05,-8e-05,7e-05,3,1
13604,-6e-05,0.0003,0.00015,7e-05,0.00015,6e-05,-8e-05,7e-05,3,1
13605,-6e-05,0.0003,0.00015,7e-05,0.00015,6e-05,-8e-05,7e-05,3,1
13606,-6e-05,0.0003,0.00015,7e-05,0.00015,6e-05,-8e-05,7e-05,3,1
13607,-6e-05,0.0003,0.00015,7e-05,0.00015,6e-05,-8e-05,7e-05,3,1
13608,-6e-05,0.0003,0.00015,7e-05,0.00015,6e-05,-8e-05,7e-05,3,1
13609,-6e-05,0.0003,0.00015,7e-05,0.00015,6e-05,-8e-05,7e-05,3,1
13610,-6e-05,0.0003,0.00015,7e-05,0.00015,6e-05,-8e-05,7e-05,3,1
13611,-6e-05,0.0003,0.00015,7e-05,0.00015,6e-05,-8e-05,7e-05,3,1
13612,-6e-05,0.0003,0.00015,7e-05,0.00015,6e-05,-8e-05,7e-05,3,1
13613,-6e-05,0.0003,0.00015,7e-05,0.00015,6e-05,-8e-05,7e-05,3,1
13614,-6e-05,0.0003,0.00015,7e-05,0.00015,6e-05,-8e-05,7e-05,3,1
13615,-6e-05,0.0003,0.00015,7e-05,0.00015,6e-05,-8e-05,7e-05,3,1
13616,-6e-05,0.0003,0.00015,7e-05,0.00015,6e-05,-8e-05,7e-05,3,1
13617,-6e-05,0.0003,0.00015,7e-05,0.00015,6e-05,-8e-05,7e-05,3,1
13618,-6e-05,0.0003,0.00015,7e-05,0.00015,6e-05,-8e-05,7e-05,3,1
13619,-6e-05,0.0003,0.00015,7e-05,0.00015,6e-05,-8e-05,7e-05,3,1
13620,-6e-05,0.0003,0.00015,7e-05,0.00015,6e-05,-8e-05,7e-05,3,1
13621,-6e-05,0.0003,0.00015,7e-05,0.00015,6e-05,-8e-05,7e-05,3,1
13622,0.00013,7e-05,4e-05,3e-05,6e-05,0.0001,6e-05,0.00018,3,1
13623,3e-05,0,-7e-05,3e-05,9e-05,0.00011,1e-05,3e-05,3,1
13624,3e-05,0,-7e-05,3e-05,9e-05,0.00011,1e-05,3e-05,3,1
13625,3e-05,0,-7e-05,3e-05,9e-05,0.00011,1e-05,3e-05,3,1
13626,3e-05,0,-7e-05,3e-05,9e-05,0.00011,1e-05,3e-05,3,1
13627,3e-05,0,-7e-05,3e-05,9e-05,0.00011,1e-05,3e-05,3,1
13628,3e-05,0,-7e-05,3e-05,9e-05,0.00011,1e-05,3e-05,3,1
13629,3e-05,0,-7e-05,3e-05,9e-05,0.00011,1e-05,3e-05,3,1
13630,3e-05,0,-7e-05,3e-05,9e-05,0.00011,1e-05,3e-05,3,1
13631,1e-05,-8e-05,-2e-05,-6e-05,-3e-05,1e-05,-9e-05,-0.00023,3,1
13632,1e-05,-8e-05,-2e-05,-6e-05,-3e-05,1e-05,-9e-05,-0.00023,3,1
13633,1e-05,-8e-05,-2e-05,-6e-05,-3e-05,1e-05,-9e-05,-0.00023,3,1
13634,1e-05,-8e-05,-2e-05,-6e-05,-3e-05,1e-05,-9e-05,-0.00023,3,1
13635,1e-05,-8e-05,-2e-05,-6e-05,-3e-05,1e-05,-9e-05,-0.00023,3,1
13636,1e-05,-8e-05,-2e-05,-6e-05,-3e-05,1e-05,-9e-05,-0.00023,3,1
13638,1e-05,-8e-05,-2e-05,-6e-05,-3e-05,1e-05,-9e-05,-0.00023,3,1
13639,1e-05,-8e-05,-2e-05,-6e-05,-3e-05,1e-05,-9e-05,-0.00023,3,1
13640,1e-05,-8e-05,-2e-05,-6e-05,-3e-05,1e-05,-9e-05,-0.00023,3,1
13641,1e-05,-8e-05,-2e-05,-6e-05,-3e-05,1e-05,-9e-05,-0.00023,3,1
13642,1e-05,-8e-05,-2e-05,-6e-05,-3e-05,1e-05,-9e-05,-0.00023,3,1
13643,1e-05,-8e-05,-2e-05,-6e-05,-3e-05,1e-05,-9e-05,-0.00023,3,1
13644,1e-05,-8e-05,-2e-05,-6e-05,-3e-05,1e-05,-9e-05,-0.00023,3,1
13645,1e-05,-8e-05,-2e-05,-6e-05,-3e-05,1e-05,-9e-05,-0.00023,3,1
13646,1e-05,-8e-05,-2e-05,-6e-05,-3e-05,1e-05,-9e-05,-0.00023,3,1
13647,1e-05,-8e-05,-2e-05,-6e-05,-3e-05,1e-05,-9e-05,-0.00023,3,1
13648,1e-05,-8e-05,-2e-05,-6e-05,-3e-05,1e-05,-9e-05,-0.00023,3,1
13649,1e-05,-8e-05,-2e-05,-6e-05,-3e-05,1e-05,-9e-05,-0.00023,3,1
13650,1e-05,-8e-05,-2e-05,-6e-05,-3e-05,1e-05,-9e-05,-0.00023,3,1
13651,1e-05,-8e-05,-2e-05,-6e-05,-3e-05,1e-05,-9e-05,-0.00023,3,1
13652,1e-05,-8e-05,-2e-05,-6e-05,-3e-05,1e-05,-9e-05,-0.00023,3,1
13653,-4e-05,-0.00013,-2e-05,-1e-05,0.00011,4e-05,5e-05,-0.00032,3,1
13654,-4e-05,-0.00013,-2e-05,-1e-05,0.00011,4e-05,5e-05,-0.00032,3,1
13655,7e-05,-4e-05,-5e-05,-8e-05,-0.0002,-0.00016,0,8e-05,3,1
13656,7e-05,-4e-05,-5e-05,-8e-05,-0.0002,-0.00016,0,8e-05,3,1
13657,7e-05,-4e-05,-5e-05,-8e-05,-0.0002,-0.00016,0,8e-05,3,1
13658,7e-05,-4e-05,-5e-05,-8e-05,-0.0002,-0.00016,0,8e-05,3,1
13659,7e-05,-4e-05,-5e-05,-8e-05,-0.0002,-0.00016,0,8e-05,3,1
13660,7e-05,-4e-05,-5e-05,-8e-05,-0.0002,-0.00016,0,8e-05,3,1
13661,7e-05,-4e-05,-5e-05,-8e-05,-0.0002,-0.00016,0,8e-05,3,1
13662,7e-05,-4e-05,-5e-05,-8e-05,-0.0002,-0.00016,0,8e-05,3,1
13663,7e-05,-4e-05,-5e-05,-8e-05,-0.0002,-0.00016,0,8e-05,3,1
13664,7e-05,-4e-05,-5e-05,-8e-05,-0.0002,-0.00016,0,8e-05,3,1
13665,7e-05,-4e-05,-5e-05,-8e-05,-0.0002,-0.00016,0,8e-05,3,1
13666,7e-05,-4e-05,-5e-05,-8e-05,-0.0002,-0.00016,0,8e-05,3,1
13667,7e-05,-4e-05,-5e-05,-8e-05,-0.0002,-0.00016,0,8e-05,3,1
13668,7e-05,-4e-05,-5e-05,-8e-05,-0.0002,-0.00016,0,8e-05,3,1
13669,7e-05,-4e-05,-5e-05,-8e-05,-0.0002,-0.00016,0,8e-05,3,1
13670,7e-05,-4e-05,-5e-05,-8e-05,-0.0002,-0.00016,0,8e-05,3,1
13671,7e-05,-4e-05,-5e-05,-8e-05,-0.0002,-0.00016,0,8e-05,3,1
13672,7e-05,-4e-05,-5e-05,-8e-05,-0.0002,-0.00016,0,8e-05,3,1
13673,7e-05,-4e-05,-5e-05,-8e-05,-0.0002,-0.00016,0,8e-05,3,1
13674,7e-05,-4e-05,-5e-05,-8e-05,-0.0002,-0.00016,0,8e-05,3,1
13675,7e-05,-4e-05,-5e-05,-8e-05,-0.0002,-0.00016,0,8e-05,3,1
13676,7e-05,-4e-05,-5e-05,-8e-05,-0.0002,-0.00016,0,8e-05,3,1
13677,6e-05,0.0003,0.0002,8e-05,4e-05,0.00013,-4e-05,-0.00016,3,1
13678,-8e-05,2e-05,3e-05,-2e-05,-9e-05,0,-1e-05,-0.00012,3,1
13679,-8e-05,2e-05,3e-05,-2e-05,-9e-05,0,-1e-05,-0.00012,3,1
13680,-8e-05,2e-05,3e-05,-2e-05,-9e-05,0,-1e-05,-0.00012,3,1
13681,-8e-05,2e-05,3e-05,-2e-05,-9e-05,0,-1e-05,-0.00012,3,1
13682,-8e-05,2e-05,3e-05,-2e-05,-9e-05,0,-1e-05,-0.00012,3,1
13683,-8e-05,2e-05,3e-05,-2e-05,-9e-05,0,-1e-05,-0.00012,3,1
13684,-8e-05,2e-05,3e-05,-2e-05,-9e-05,0,-1e-05,-0.00012,3,1
13685,-8e-05,2e-05,3e-05,-2e-05,-9e-05,0,-1e-05,-0.00012,3,1
13686,-8e-05,2e-05,3e-05,-2e-05,-9e-05,0,-1e-05,-0.00012,3,1
13688,-8e-05,2e-05,3e-05,-2e-05,-9e-05,0,-1e-05,-0.00012,3,1
13690,-8e-05,2e-05,3e-05,-2e-05,-9e-05,0,-1e-05,-0.00012,3,1
13691,-8e-05,2e-05,3e-05,-2e-05,-9e-05,0,-1e-05,-0.00012,3,1
13692,-8e-05,2e-05,3e-05,-2e-05,-9e-05,0,-1e-05,-0.00012,3,1
13693,-8e-05,2e-05,3e-05,-2e-05,-9e-05,0,-1e-05,-0.00012,3,1
13694,-8e-05,2e-05,3e-05,-2e-05,-9e-05,0,-1e-05,-0.00012,3,1
13695,-8e-05,2e-05,3e-05,-2e-05,-9e-05,0,-1e-05,-0.00012,3,1
13696,-8e-05,2e-05,3e-05,-2e-05,-9e-05,0,-1e-05,-0.00012,3,1
13697,0.00027,-0.00013,-7e-05,5e-05,0.00012,0,1e-05,0.00013,3,1
13698,0.00027,-0.00013,-7e-05,5e-05,0.00012,0,1e-05,0.00013,3,1
13699,0.00027,-0.00013,-7e-05,5e-05,0.00012,0,1e-05,0.00013,3,1
13700,0.00027,-0.00013,-7e-05,5e-05,0.00012,0,1e-05,0.00013,3,1
13701,0.00027,-0.00013,-7e-05,5e-05,0.00012,0,1e-05,0.00013,3,1
13702,0.00027,-0.00013,-7e-05,5e-05,0.00012,0,1e-05,0.00013,3,1
13703,0.00027,-0.00013,-7e-05,5e-05,0.00012,0,1e-05,0.00013,3,1
13704,0.00027,-0.00013,-7e-05,5e-05,0.00012,0,1e-05,0.00013,3,1
13705,0.00027,-0.00013,-7e-05,5e-05,0.00012,0,1e-05,0.00013,3,1
13706,0.00016,7e-05,0,5e-05,0.00011,-2e-05,-5e-05,0.00011,3,1
13707,0.00016,7e-05,0,5e-05,0.00011,-2e-05,-5e-05,0.00011,3,1
13708,0.00016,7e-05,0,5e-05,0.00011,-2e-05,-5e-05,0.00011,3,1
13709,0.00016,7e-05,0,5e-05,0.00011,-2e-05,-5e-05,0.00011,3,1
13710,0.00016,7e-05,0,5e-05,0.00011,-2e-05,-5e-05,0.00011,3,1
13711,0.00016,7e-05,0,5e-05,0.00011,-2e-05,-5e-05,0.00011,3,1
13712,0.00016,7e-05,0,5e-05,0.00011,-2e-05,-5e-05,0.00011,3,1
13713,0.00016,7e-05,0,5e-05,0.00011,-2e-05,-5e-05,0.00011,3,1
13714,0.00016,7e-05,0,5e-05,0.00011,-2e-05,-5e-05,0.00011,3,1
13715,0.00016,7e-05,0,5e-05,0.00011,-2e-05,-5e-05,0.00011,3,1
13716,0.00016,7e-05,0,5e-05,0.00011,-2e-05,-5e-05,0.00011,3,1
13717,0.00016,7e-05,0,5e-05,0.00011,-2e-05,-5e-05,0.00011,3,1
13718,0.00016,7e-05,0,5e-05,0.00011,-2e-05,-5e-05,0.00011,3,1
13719,0.00016,7e-05,0,5e-05,0.00011,-2e-05,-5e-05,0.00011,3,1
13720,0.00016,7e-05,0,5e-05,0.00011,-2e-05,-5e-05,0.00011,3,1
13721,0.00016,7e-05,0,5e-05,0.00011,-2e-05,-5e-05,0.00011,3,1
13722,0.00016,7e-05,0,5e-05,0.00011,-2e-05,-5e-05,0.00011,3,1
13723,0.00016,7e-05,0,5e-05,0.00011,-2e-05,-5e-05,0.00011,3,1
13724,0.00016,7e-05,0,5e-05,0.00011,-2e-05,-5e-05,0.00011,3,1
13725,0.00016,7e-05,0,5e-05,0.00011,-2e-05,-5e-05,0.00011,3,1
13726,0.00016,7e-05,0,5e-05,0.00011,-2e-05,-5e-05,0.00011,3,1
13727,0.00016,7e-05,0,5e-05,0.00011,-2e-05,-5e-05,0.00011,3,1
13728,0.00021,-0.00023,-0.00016,-0.00018,-0.0003,-0.00011,-7e-05,7e-05,3,1
13729,0.00021,-0.00023,-0.00016,-0.00018,-0.0003,-0.00011,-7e-05,7e-05,3,1
13730,4e-05,-8e-05,-5e-05,1e-05,0.00011,7e-05,8e-05,-2e-05,3,1
13731,4e-05,-8e-05,-5e-05,1e-05,0.00011,7e-05,8e-05,-2e-05,3,1
13732,4e-05,-8e-05,-5e-05,1e-05,0.00011,7e-05,8e-05,-2e-05,3,1
13733,4e-05,-8e-05,-5e-05,1e-05,0.00011,7e-05,8e-05,-2e-05,3,1
13734,4e-05,-8e-05,-5e-05,1e-05,0.00011,7e-05,8e-05,-2e-05,3,1
13735,4e-05,-8e-05,-5e-05,1e-05,0.00011,7e-05,8e-05,-2e-05,3,1
13736,4e-05,-8e-05,-5e-05,1e-05,0.00011,7e-05,8e-05,-2e-05,3,1
13738,4e-05,-8e-05,-5e-05,1e-05,0.00011,7e-05,8e-05,-2e-05,3,1
13739,4e-05,-8e-05,-5e-05,1e-05,0.00011,7e-05,8e-05,-2e-05,3,1
13740,4e-05,-8e-05,-5e-05,1e-05,0.00011,7e-05,8e-05,-2e-05,3,1
13741,4e-05,-8e-05,-5e-05,1e-05,0.00011,7e-05,8e-05,-2e-05,3,1
13742,4e-05,-8e-05,-5e-05,1e-05,0.00011,7e-05,8e-05,-2e-05,3,1
13743,4e-05,-8e-05,-5e-05,1e-05,0.00011,7e-05,8e-05,-2e-05,3,1
13744,4e-05,-8e-05,-5e-05,1e-05,0.00011,7e-05,8e-05,-2e-05,3,1
13745,4e-05,-8e-05,-5e-05,1e-05,0.00011,7e-05,8e-05,-2e-05,3,1
13746,4e-05,-8e-05,-5e-05,1e-05,0.00011,7e-05,8e-05,-2e-05,3,1
13747,4e-05,-8e-05,-5e-05,1e-05,0.00011,7e-05,8e-05,-2e-05,3,1
13748,4e-05,-8e-05,-5e-05,1e-05,0.00011,7e-05,8e-05,-2e-05,3,1
13749,4e-05,-8e-05,-5e-05,1e-05,0.00011,7e-05,8e-05,-2e-05,3,1
13750,4e-05,-8e-05,-5e-05,1e-05,0.00011,7e-05,8e-05,-2e-05,3,1
13751,-2e-05,0.00014,3e-05,-7e-05,-0.00024,-9e-05,-4e-05,-0.00013,3,1
13752,0.00021,0.00029,2e-05,0.00014,0.00032,2e-05,-8e-05,1e-05,3,1
13753,-0.00041,-0.00035,-4e-05,-0.00011,-0.00021,-0.00011,-0.00016,-0.00017,3,1
13754,-0.00041,-0.00035,-4e-05,-0.00011,-0.00021,-0.00011,-0.00016,-0.00017,3,1
13755,-0.00041,-0.00035,-4e-05,-0.00011,-0.00021,-0.00011,-0.00016,-0.00017,3,1
13756,-0.00041,-0.00035,-4e-05,-0.00011,-0.00021,-0.00011,-0.00016,-0.00017,3,1
13757,-0.00041,-0.00035,-4e-05,-0.00011,-0.00021,-0.00011,-0.00016,-0.00017,3,1
13758,-0.00041,-0.00035,-4e-05,-0.00011,-0.00021,-0.00011,-0.00016,-0.00017,3,1
13759,-0.00041,-0.00035,-4e-05,-0.00011,-0.00021,-0.00011,-0.00016,-0.00017,3,1
13760,-0.00041,-0.00035,-4e-05,-0.00011,-0.00021,-0.00011,-0.00016,-0.00017,3,1
13761,-0.00041,-0.00035,-4e-05,-0.00011,-0.00021,-0.00011,-0.00016,-0.00017,3,1
13762,-0.00041,-0.00035,-4e-05,-0.00011,-0.00021,-0.00011,-0.00016,-0.00017,3,1
13763,-0.00041,-0.00035,-4e-05,-0.00011,-0.00021,-0.00011,-0.00016,-0.00017,3,1
13764,-0.00041,-0.00035,-4e-05,-0.00011,-0.00021,-0.00011,-0.00016,-0.00017,3,1
13765,-0.00041,-0.00035,-4e-05,-0.00011,-0.00021,-0.00011,-0.00016,-0.00017,3,1
13766,-0.00041,-0.00035,-4e-05,-0.00011,-0.00021,-0.00011,-0.00016,-0.00017,3,1
13767,-0.00041,-0.00035,-4e-05,-0.00011,-0.00021,-0.00011,-0.00016,-0.00017,3,1
13768,-0.00041,-0.00035,-4e-05,-0.00011,-0.00021,-0.00011,-0.00016,-0.00017,3,1
13769,-0.00041,-0.00035,-4e-05,-0.00011,-0.00021,-0.00011,-0.00016,-0.00017,3,1
13770,-0.00041,-0.00035,-4e-05,-0.00011,-0.00021,-0.00011,-0.00016,-0.00017,3,1
13771,-0.00041,-0.00035,-4e-05,-0.00011,-0.00021,-0.00011,-0.00016,-0.00017,3,1
13772,-0.00041,-0.00035,-4e-05,-0.00011,-0.00021,-0.00011,-0.00016,-0.00017,3,1
13773,-0.00011,-5e-05,-5e-05,-1e-05,3e-05,7e-05,9e-05,0.00025,3,1
13774,-0.00011,-5e-05,-5e-05,-1e-05,3e-05,7e-05,9e-05,0.00025,3,1
13775,-0.00011,-5e-05,-5e-05,-1e-05,3e-05,7e-05,9e-05,0.00025,3,1
13776,-0.00011,-5e-05,-5e-05,-1e-05,3e-05,7e-05,9e-05,0.00025,3,1
13777,-0.00011,-5e-05,-5e-05,-1e-05,3e-05,7e-05,9e-05,0.00025,3,1
13778,-0.00011,-5e-05,-5e-05,-1e-05,3e-05,7e-05,9e-05,0.00025,3,1
13779,0,0.00013,7e-05,1e-05,-2e-05,2e-05,1e-05,-5e-05,3,1
13780,0,0.00013,7e-05,1e-05,-2e-05,2e-05,1e-05,-5e-05,3,1
13781,0,0.00013,7e-05,1e-05,-2e-05,2e-05,1e-05,-5e-05,3,1
13782,0,0.00013,7e-05,1e-05,-2e-05,2e-05,1e-05,-5e-05,3,1
13783,0,0.00013,7e-05,1e-05,-2e-05,2e-05,1e-05,-5e-05,3,1
13784,0,0.00013,7e-05,1e-05,-2e-05,2e-05,1e-05,-5e-05,3,1
13785,0,0.00013,7e-05,1e-05,-2e-05,2e-05,1e-05,-5e-05,3,1
13786,0,0.00013,7e-05,1e-05,-2e-05,2e-05,1e-05,-5e-05,3,1
13788,0,0.00013,7e-05,1e-05,-2e-05,2e-05,1e-05,-5e-05,3,1
13789,0,0.00013,7e-05,1e-05,-2e-05,2e-05,1e-05,-5e-05,3,1
13790,0,0.00013,7e-05,1e-05,-2e-05,2e-05,1e-05,-5e-05,3,1
13791,0,0.00013,7e-05,1e-05,-2e-05,2e-05,1e-05,-5e-05,3,1
13792,0,0.00013,7e-05,1e-05,-2e-05,2e-05,1e-05,-5e-05,3,1
13793,0,0.00013,7e-05,1e-05,-2e-05,2e-05,1e-05,-5e-05,3,1
13794,-0.00033,-0.00033,-9e-05,0,3e-05,-2e-05,-2e-05,-0.00015,3,1
13795,-0.00033,-0.00033,-9e-05,0,3e-05,-2e-05,-2e-05,-0.00015,3,1
13796,-0.00033,-0.00033,-9e-05,0,3e-05,-2e-05,-2e-05,-0.00015,3,1
13797,-0.00033,-0.00033,-9e-05,0,3e-05,-2e-05,-2e-05,-0.00015,3,1
13798,-0.00033,-0.00033,-9e-05,0,3e-05,-2e-05,-2e-05,-0.00015,3,1
13799,-0.00033,-0.00033,-9e-05,0,3e-05,-2e-05,-2e-05,-0.00015,3,1
13800,-0.00033,-0.00033,-9e-05,0,3e-05,-2e-05,-2e-05,-0.00015,3,1
13801,-0.00033,-0.00033,-9e-05,0,3e-05,-2e-05,-2e-05,-0.00015,3,1
13802,-0.00033,-0.00033,-9e-05,0,3e-05,-2e-05,-2e-05,-0.00015,3,1
13803,-0.00033,-0.00033,-9e-05,0,3e-05,-2e-05,-2e-05,-0.00015,3,1
13804,-0.00033,-0.00033,-9e-05,0,3e-05,-2e-05,-2e-05,-0.00015,3,1
13805,0.00018,0.0001,9e-05,2e-05,0,5e-05,0.00015,7e-05,3,1
13806,0.00018,0.0001,9e-05,2e-05,0,5e-05,0.00015,7e-05,3,1
13807,0.00018,0.0001,9e-05,2e-05,0,5e-05,0.00015,7e-05,3,1
13808,0.00018,0.0001,9e-05,2e-05,0,5e-05,0.00015,7e-05,3,1
13809,0.00018,0.0001,9e-05,2e-05,0,5e-05,0.00015,7e-05,3,1
13810,0.00018,0.0001,9e-05,2e-05,0,5e-05,0.00015,7e-05,3,1
13811,0.00018,0.0001,9e-05,2e-05,0,5e-05,0.00015,7e-05,3,1
13812,0.00018,0.0001,9e-05,2e-05,0,5e-05,0.00015,7e-05,3,1
13813,0.00018,0.0001,9e-05,2e-05,0,5e-05,0.00015,7e-05,3,1
13814,0.00018,0.0001,9e-05,2e-05,0,5e-05,0.00015,7e-05,3,1
13816,0.00018,0.0001,9e-05,2e-05,0,5e-05,0.00015,7e-05,3,1
13817,0.00018,0.0001,9e-05,2e-05,0,5e-05,0.00015,7e-05,3,1
13818,0.00018,0.0001,9e-05,2e-05,0,5e-05,0.00015,7e-05,3,1
13819,0.00018,0.0001,9e-05,2e-05,0,5e-05,0.00015,7e-05,3,1
13820,0.00018,0.0001,9e-05,2e-05,0,5e-05,0.00015,7e-05,3,1
13821,0.00018,0.0001,9e-05,2e-05,0,5e-05,0.00015,7e-05,3,1
13822,0.00018,0.0001,9e-05,2e-05,0,5e-05,0.00015,7e-05,3,1
13823,0.00018,0.0001,9e-05,2e-05,0,5e-05,0.00015,7e-05,3,1
13824,0.00018,0.0001,9e-05,2e-05,0,5e-05,0.00015,7e-05,3,1
13825,0.00018,0.0001,9e-05,2e-05,0,5e-05,0.00015,7e-05,3,1
13826,2e-05,3e-05,-3e-05,-1e-05,7e-05,5e-05,-2e-05,1e-05,3,1
13827,-0.0001,0.00012,-4e-05,-8e-05,-0.00016,-2e-05,-5e-05,-0.00014,3,1
13828,-5e-05,-6e-05,-4e-05,-4e-05,-9e-05,-9e-05,9e-05,0.00025,3,1
13829,-5e-05,-6e-05,-4e-05,-4e-05,-9e-05,-9e-05,9e-05,0.00025,3,1
13830,-5e-05,-6e-05,-4e-05,-4e-05,-9e-05,-9e-05,9e-05,0.00025,3,1
13831,-5e-05,-6e-05,-4e-05,-4e-05,-9e-05,-9e-05,9e-05,0.00025,3,1
13832,-5e-05,-6e-05,-4e-05,-4e-05,-9e-05,-9e-05,9e-05,0.00025,3,1
13833,-5e-05,-6e-05,-4e-05,-4e-05,-9e-05,-9e-05,9e-05,0.00025,3,1
13834,-5e-05,-6e-05,-4e-05,-4e-05,-9e-05,-9e-05,9e-05,0.00025,3,1
13835,-5e-05,-6e-05,-4e-05,-4e-05,-9e-05,-9e-05,9e-05,0.00025,3,1
13836,-5e-05,-6e-05,-4e-05,-4e-05,-9e-05,-9e-05,9e-05,0.00025,3,1
13838,-5e-05,-6e-05,-4e-05,-4e-05,-9e-05,-9e-05,9e-05,0.00025,3,1
13839,-5e-05,-6e-05,-4e-05,-4e-05,-9e-05,-9e-05,9e-05,0.00025,3,1
13840,-5e-05,-6e-05,-4e-05,-4e-05,-9e-05,-9e-05,9e-05,0.00025,3,1
13841,-5e-05,-6e-05,-4e-05,-4e-05,-9e-05,-9e-05,9e-05,0.00025,3,1
13842,-5e-05,-6e-05,-4e-05,-4e-05,-9e-05,-9e-05,9e-05,0.00025,3,1
13843,-5e-05,-6e-05,-4e-05,-4e-05,-9e-05,-9e-05,9e-05,0.00025,3,1
13844,-5e-05,-6e-05,-4e-05,-4e-05,-9e-05,-9e-05,9e-05,0.00025,3,1
13845,-5e-05,-6e-05,-4e-05,-4e-05,-9e-05,-9e-05,9e-05,0.00025,3,1
13846,-5e-05,-6e-05,-4e-05,-4e-05,-9e-05,-9e-05,9e-05,0.00025,3,1
13847,-5e-05,-6e-05,-4e-05,-4e-05,-9e-05,-9e-05,9e-05,0.00025,3,1
13848,0.00011,6e-05,8e-05,3e-05,9e-05,7e-05,-3e-05,-0.00014,3,1
13849,3e-05,0.00012,3e-05,2e-05,-3e-05,-6e-05,-0.00017,-0.00024,3,1
13850,0.00036,0.00018,-6e-05,-2e-05,-3e-05,-5e-05,-2e-05,0.00022,3,1
13851,0.00036,0.00018,-6e-05,-2e-05,-3e-05,-5e-05,-2e-05,0.00022,3,1
13852,0.00036,0.00018,-6e-05,-2e-05,-3e-05,-5e-05,-2e-05,0.00022,3,1
13853,0.00036,0.00018,-6e-05,-2e-05,-3e-05,-5e-05,-2e-05,0.00022,3,1
13854,0.00036,0.00018,-6e-05,-2e-05,-3e-05,-5e-05,-2e-05,0.00022,3,1
13855,0.00036,0.00018,-6e-05,-2e-05,-3e-05,-5e-05,-2e-05,0.00022,3,1
13856,0.00036,0.00018,-6e-05,-2e-05,-3e-05,-5e-05,-2e-05,0.00022,3,1
13857,0.00036,0.00018,-6e-05,-2e-05,-3e-05,-5e-05,-2e-05,0.00022,3,1
13858,0.00036,0.00018,-6e-05,-2e-05,-3e-05,-5e-05,-2e-05,0.00022,3,1
13859,0.00036,0.00018,-6e-05,-2e-05,-3e-05,-5e-05,-2e-05,0.00022,3,1
13860,0.00036,0.00018,-6e-05,-2e-05,-3e-05,-5e-05,-2e-05,0.00022,3,1
13861,0.00036,0.00018,-6e-05,-2e-05,-3e-05,-5e-05,-2e-05,0.00022,3,1
13862,0.00036,0.00018,-6e-05,-2e-05,-3e-05,-5e-05,-2e-05,0.00022,3,1
13864,0.00036,0.00018,-6e-05,-2e-05,-3e-05,-5e-05,-2e-05,0.00022,3,1
13865,0.00036,0.00018,-6e-05,-2e-05,-3e-05,-5e-05,-2e-05,0.00022,3,1
13866,0.00036,0.00018,-6e-05,-2e-05,-3e-05,-5e-05,-2e-05,0.00022,3,1
13867,0.00036,0.00018,-6e-05,-2e-05,-3e-05,-5e-05,-2e-05,0.00022,3,1
13868,0.00036,0.00018,-6e-05,-2e-05,-3e-05,-5e-05,-2e-05,0.00022,3,1
13869,0.00036,0.00018,-6e-05,-2e-05,-3e-05,-5e-05,-2e-05,0.00022,3,1
13870,-7e-05,0.00021,6e-05,-7e-05,-0.0001,-8e-05,7e-05,0.00014,3,1
13871,-7e-05,0.00021,6e-05,-7e-05,-0.0001,-8e-05,7e-05,0.00014,3,1
13872,-7e-05,0.00021,6e-05,-7e-05,-0.0001,-8e-05,7e-05,0.00014,3,1
13873,-7e-05,0.00021,6e-05,-7e-05,-0.0001,-8e-05,7e-05,0.00014,3,1
13874,-7e-05,0.00021,6e-05,-7e-05,-0.0001,-8e-05,7e-05,0.00014,3,1
13875,-7e-05,0.00021,6e-05,-7e-05,-0.0001,-8e-05,7e-05,0.00014,3,1
13876,-7e-05,0.00021,6e-05,-7e-05,-0.0001,-8e-05,7e-05,0.00014,3,1
13877,-7e-05,0.00021,6e-05,-7e-05,-0.0001,-8e-05,7e-05,0.00014,3,1
13878,-6e-05,-6e-05,-6e-05,9e-05,0.00025,0.00014,-3e-05,-0.00013,3,1
13879,-6e-05,-6e-05,-6e-05,9e-05,0.00025,0.00014,-3e-05,-0.00013,3,1
13880,-6e-05,-6e-05,-6e-05,9e-05,0.00025,0.00014,-3e-05,-0.00013,3,1
13881,-6e-05,-6e-05,-6e-05,9e-05,0.00025,0.00014,-3e-05,-0.00013,3,1
13882,-6e-05,-6e-05,-6e-05,9e-05,0.00025,0.00014,-3e-05,-0.00013,3,1
13883,-6e-05,-6e-05,-6e-05,9e-05,0.00025,0.00014,-3e-05,-0.00013,3,1
13884,-6e-05,-6e-05,-6e-05,9e-05,0.00025,0.00014,-3e-05,-0.00013,3,1
13885,-6e-05,-6e-05,-6e-05,9e-05,0.00025,0.00014,-3e-05,-0.00013,3,1
13886,-6e-05,-6e-05,-6e-05,9e-05,0.00025,0.00014,-3e-05,-0.00013,3,1
13888,-6e-05,-6e-05,-6e-05,9e-05,0.00025,0.00014,-3e-05,-0.00013,3,1
13889,-6e-05,-6e-05,-6e-05,9e-05,0.00025,0.00014,-3e-05,-0.00013,3,1
13890,-6e-05,-6e-05,-6e-05,9e-05,0.00025,0.00014,-3e-05,-0.00013,3,1
13891,-6e-05,-6e-05,-6e-05,9e-05,0.00025,0.00014,-3e-05,-0.00013,3,1
13892,-6e-05,-6e-05,-6e-05,9e-05,0.00025,0.00014,-3e-05,-0.00013,3,1
13893,-6e-05,-6e-05,-6e-05,9e-05,0.00025,0.00014,-3e-05,-0.00013,3,1
13894,-6e-05,-6e-05,-6e-05,9e-05,0.00025,0.00014,-3e-05,-0.00013,3,1
13895,-6e-05,-6e-05,-6e-05,9e-05,0.00025,0.00014,-3e-05,-0.00013,3,1
13896,-6e-05,-6e-05,-6e-05,9e-05,0.00025,0.00014,-3e-05,-0.00013,3,1
13897,-6e-05,-6e-05,-6e-05,9e-05,0.00025,0.00014,-3e-05,-0.00013,3,1
13898,-6e-05,-6e-05,-6e-05,9e-05,0.00025,0.00014,-3e-05,-0.00013,3,1
13899,-6e-05,-6e-05,-6e-05,9e-05,0.00025,0.00014,-3e-05,-0.00013,3,1
13900,-6e-05,-6e-05,-6e-05,9e-05,0.00025,0.00014,-3e-05,-0.00013,3,1
13901,0,-0.0001,0,-8e-05,-0.00021,-6e-05,5e-05,-0.00022,3,1
13902,0,-0.0001,0,-8e-05,-0.00021,-6e-05,5e-05,-0.00022,3,1
13903,-5e-05,-1e-05,1e-05,2e-05,4e-05,-4e-05,1e-05,-0.00012,3,1
13904,-5e-05,-1e-05,1e-05,2e-05,4e-05,-4e-05,1e-05,-0.00012,3,1
13905,-5e-05,-1e-05,1e-05,2e-05,4e-05,-4e-05,1e-05,-0.00012,3,1
13906,-5e-05,-1e-05,1e-05,2e-05,4e-05,-4e-05,1e-05,-0.00012,3,1
13907,-5e-05,-1e-05,1e-05,2e-05,4e-05,-4e-05,1e-05,-0.00012,3,1
13908,-5e-05,-1e-05,1e-05,2e-05,4e-05,-4e-05,1e-05,-0.00012,3,1
13909,-5e-05,-1e-05,1e-05,2e-05,4e-05,-4e-05,1e-05,-0.00012,3,1
13910,-5e-05,-1e-05,1e-05,2e-05,4e-05,-4e-05,1e-05,-0.00012,3,1
13911,-5e-05,-1e-05,1e-05,2e-05,4e-05,-4e-05,1e-05,-0.00012,3,1
13912,-5e-05,-1e-05,1e-05,2e-05,4e-05,-4e-05,1e-05,-0.00012,3,1
13913,-5e-05,-1e-05,1e-05,2e-05,4e-05,-4e-05,1e-05,-0.00012,3,1
13914,-5e-05,-1e-05,1e-05,2e-05,4e-05,-4e-05,1e-05,-0.00012,3,1
13915,-5e-05,-1e-05,1e-05,2e-05,4e-05,-4e-05,1e-05,-0.00012,3,1
13916,-5e-05,-1e-05,1e-05,2e-05,4e-05,-4e-05,1e-05,-0.00012,3,1
13917,-5e-05,-1e-05,1e-05,2e-05,4e-05,-4e-05,1e-05,-0.00012,3,1
13918,-5e-05,-1e-05,1e-05,2e-05,4e-05,-4e-05,1e-05,-0.00012,3,1
13919,-5e-05,-1e-05,1e-05,2e-05,4e-05,-4e-05,1e-05,-0.00012,3,1
13920,-5e-05,-1e-05,1e-05,2e-05,4e-05,-4e-05,1e-05,-0.00012,3,1
13921,-5e-05,-1e-05,1e-05,2e-05,4e-05,-4e-05,1e-05,-0.00012,3,1
13922,-5e-05,-1e-05,1e-05,2e-05,4e-05,-4e-05,1e-05,-0.00012,3,1
13923,-5e-05,-1e-05,1e-05,2e-05,4e-05,-4e-05,1e-05,-0.00012,3,1
13924,-2e-05,4e-05,6e-05,3e-05,7e-05,2e-05,0,0.00011,3,1
13925,-2e-05,4e-05,6e-05,3e-05,7e-05,2e-05,0,0.00011,3,1
13926,-0.00028,-8e-05,3e-05,1e-05,-5e-05,0,-5e-05,-0.00022,3,1
13927,-0.00028,-8e-05,3e-05,1e-05,-5e-05,0,-5e-05,-0.00022,3,1
13928,-0.00028,-8e-05,3e-05,1e-05,-5e-05,0,-5e-05,-0.00022,3,1
13929,-0.00028,-8e-05,3e-05,1e-05,-5e-05,0,-5e-05,-0.00022,3,1
13930,-0.00028,-8e-05,3e-05,1e-05,-5e-05,0,-5e-05,-0.00022,3,1
13931,-0.00028,-8e-05,3e-05,1e-05,-5e-05,0,-5e-05,-0.00022,3,1
13932,-0.00028,-8e-05,3e-05,1e-05,-5e-05,0,-5e-05,-0.00022,3,1
13933,-0.00028,-8e-05,3e-05,1e-05,-5e-05,0,-5e-05,-0.00022,3,1
13934,-0.00028,-8e-05,3e-05,1e-05,-5e-05,0,-5e-05,-0.00022,3,1
13935,-0.00028,-8e-05,3e-05,1e-05,-5e-05,0,-5e-05,-0.00022,3,1
13936,-0.00028,-8e-05,3e-05,1e-05,-5e-05,0,-5e-05,-0.00022,3,1
13938,-0.00028,-8e-05,3e-05,1e-05,-5e-05,0,-5e-05,-0.00022,3,1
13939,-0.00028,-8e-05,3e-05,1e-05,-5e-05,0,-5e-05,-0.00022,3,1
13940,-0.00028,-8e-05,3e-05,1e-05,-5e-05,0,-5e-05,-0.00022,3,1
13941,-0.00028,-8e-05,3e-05,1e-05,-5e-05,0,-5e-05,-0.00022,3,1
13942,-0.00028,-8e-05,3e-05,1e-05,-5e-05,0,-5e-05,-0.00022,3,1
13943,-0.00028,-8e-05,3e-05,1e-05,-5e-05,0,-5e-05,-0.00022,3,1
13944,-0.00028,-8e-05,3e-05,1e-05,-5e-05,0,-5e-05,-0.00022,3,1
13945,-0.00028,-8e-05,3e-05,1e-05,-5e-05,0,-5e-05,-0.00022,3,1
13946,-0.00028,-8e-05,3e-05,1e-05,-5e-05,0,-5e-05,-0.00022,3,1
13947,-0.00028,-8e-05,3e-05,1e-05,-5e-05,0,-5e-05,-0.00022,3,1
13948,-0.00028,-8e-05,3e-05,1e-05,-5e-05,0,-5e-05,-0.00022,3,1
13949,-0.00028,-8e-05,3e-05,1e-05,-5e-05,0,-5e-05,-0.00022,3,1
13950,-0.00028,-8e-05,3e-05,1e-05,-5e-05,0,-5e-05,-0.00022,3,1
13951,-0.00028,-8e-05,3e-05,1e-05,-5e-05,0,-5e-05,-0.00022,3,1
13952,-0.00028,-8e-05,3e-05,1e-05,-5e-05,0,-5e-05,-0.00022,3,1
13953,-4e-05,-0.00015,-0.0001,-2e-05,2e-05,0.0001,7e-05,3e-05,3,1
13954,-4e-05,-0.00015,-0.0001,-2e-05,2e-05,0.0001,7e-05,3e-05,3,1
13955,0.00017,0.0002,6e-05,-4e-05,-0.00013,-8e-05,-1e-05,0.0001,3,1
13956,0.00017,0.0002,6e-05,-4e-05,-0.00013,-8e-05,-1e-05,0.0001,3,1
13957,0.00017,0.0002,6e-05,-4e-05,-0.00013,-8e-05,-1e-05,0.0001,3,1
13958,0.00017,0.0002,6e-05,-4e-05,-0.00013,-8e-05,-1e-05,0.0001,3,1
13959,0.00017,0.0002,6e-05,-4e-05,-0.00013,-8e-05,-1e-05,0.0001,3,1
13960,0.00017,0.0002,6e-05,-4e-05,-0.00013,-8e-05,-1e-05,0.0001,3,1
13961,0.00017,0.0002,6e-05,-4e-05,-0.00013,-8e-05,-1e-05,0.0001,3,1
13962,0.00017,0.0002,6e-05,-4e-05,-0.00013,-8e-05,-1e-05,0.0001,3,1
13963,0.00017,0.0002,6e-05,-4e-05,-0.00013,-8e-05,-1e-05,0.0001,3,1
13964,0.00017,0.0002,6e-05,-4e-05,-0.00013,-8e-05,-1e-05,0.0001,3,1
13965,0.00017,0.0002,6e-05,-4e-05,-0.00013,-8e-05,-1e-05,0.0001,3,1
13966,0.00017,0.0002,6e-05,-4e-05,-0.00013,-8e-05,-1e-05,0.0001,3,1
13967,0.00017,0.0002,6e-05,-4e-05,-0.00013,-8e-05,-1e-05,0.0001,3,1
13968,0.00017,0.0002,6e-05,-4e-05,-0.00013,-8e-05,-1e-05,0.0001,3,1
13969,0.00017,0.0002,6e-05,-4e-05,-0.00013,-8e-05,-1e-05,0.0001,3,1
13970,0.00017,0.0002,6e-05,-4e-05,-0.00013,-8e-05,-1e-05,0.0001,3,1
13971,0.00017,0.0002,6e-05,-4e-05,-0.00013,-8e-05,-1e-05,0.0001,3,1
13972,0.00017,0.0002,6e-05,-4e-05,-0.00013,-8e-05,-1e-05,0.0001,3,1
13973,0.00017,0.0002,6e-05,-4e-05,-0.00013,-8e-05,-1e-05,0.0001,3,1
13974,0.00017,0.0002,6e-05,-4e-05,-0.00013,-8e-05,-1e-05,0.0001,3,1
13975,0.00017,0.0002,6e-05,-4e-05,-0.00013,-8e-05,-1e-05,0.0001,3,1
13976,2e-05,-0.00011,-0.00013,-4e-05,-0.00015,-6e-05,0,1e-05,3,1
13977,4e-05,7e-05,-0.0001,-1e-05,-4e-05,-4e-05,-6e-05,-7e-05,3,1
13978,4e-05,7e-05,-0.0001,-1e-05,-4e-05,-4e-05,-6e-05,-7e-05,3,1
13979,4e-05,7e-05,-0.0001,-1e-05,-4e-05,-4e-05,-6e-05,-7e-05,3,1
13980,4e-05,7e-05,-0.0001,-1e-05,-4e-05,-4e-05,-6e-05,-7e-05,3,1
13981,4e-05,7e-05,-0.0001,-1e-05,-4e-05,-4e-05,-6e-05,-7e-05,3,1
13982,4e-05,7e-05,-0.0001,-1e-05,-4e-05,-4e-05,-6e-05,-7e-05,3,1
13983,4e-05,7e-05,-0.0001,-1e-05,-4e-05,-4e-05,-6e-05,-7e-05,3,1
13984,4e-05,7e-05,-0.0001,-1e-05,-4e-05,-4e-05,-6e-05,-7e-05,3,1
13985,4e-05,7e-05,-0.0001,-1e-05,-4e-05,-4e-05,-6e-05,-7e-05,3,1
13986,4e-05,7e-05,-0.0001,-1e-05,-4e-05,-4e-05,-6e-05,-7e-05,3,1
13988,4e-05,7e-05,-0.0001,-1e-05,-4e-05,-4e-05,-6e-05,-7e-05,3,1
13989,4e-05,7e-05,-0.0001,-1e-05,-4e-05,-4e-05,-6e-05,-7e-05,3,1
13990,4e-05,7e-05,-0.0001,-1e-05,-4e-05,-4e-05,-6e-05,-7e-05,3,1
13991,4e-05,7e-05,-0.0001,-1e-05,-4e-05,-4e-05,-6e-05,-7e-05,3,1
13992,4e-05,7e-05,-0.0001,-1e-05,-4e-05,-4e-05,-6e-05,-7e-05,3,1
13993,4e-05,7e-05,-0.0001,-1e-05,-4e-05,-4e-05,-6e-05,-7e-05,3,1
13994,4e-05,7e-05,-0.0001,-1e-05,-4e-05,-4e-05,-6e-05,-7e-05,3,1
13995,4e-05,7e-05,-0.0001,-1e-05,-4e-05,-4e-05,-6e-05,-7e-05,3,1
13996,4e-05,7e-05,-0.0001,-1e-05,-4e-05,-4e-05,-6e-05,-7e-05,3,1
13997,4e-05,7e-05,-0.0001,-1e-05,-4e-05,-4e-05,-6e-05,-7e-05,3,1
13998,4e-05,7e-05,-0.0001,-1e-05,-4e-05,-4e-05,-6e-05,-7e-05,3,1
13999,-0.00017,-2e-05,2e-05,3e-05,7e-05,-1e-05,-8e-05,-0.00014,3,1
14000,0.00026,0.00016,1e-05,1e-05,-6e-05,-6e-05,-5e-05,0.00017,3,1
14001,0.00026,0.00016,1e-05,1e-05,-6e-05,-6e-05,-5e-05,0.00017,3,1
14002,1e-05,-0.00011,-9e-05,-5e-05,1e-05,0.00018,-5e-05,-1e-05,3,1
14003,1e-05,-0.00011,-9e-05,-5e-05,1e-05,0.00018,-5e-05,-1e-05,3,1
14004,1e-05,-0.00011,-9e-05,-5e-05,1e-05,0.00018,-5e-05,-1e-05,3,1
14005,1e-05,-0.00011,-9e-05,-5e-05,1e-05,0.00018,-5e-05,-1e-05,3,1
14006,1e-05,-0.00011,-9e-05,-5e-05,1e-05,0.00018,-5e-05,-1e-05,3,1
14007,1e-05,-0.00011,-9e-05,-5e-05,1e-05,0.00018,-5e-05,-1e-05,3,1
14008,1e-05,-0.00011,-9e-05,-5e-05,1e-05,0.00018,-5e-05,-1e-05,3,1
14009,1e-05,-0.00011,-9e-05,-5e-05,1e-05,0.00018,-5e-05,-1e-05,3,1
14010,1e-05,-0.00011,-9e-05,-5e-05,1e-05,0.00018,-5e-05,-1e-05,3,1
14011,1e-05,-0.00011,-9e-05,-5e-05,1e-05,0.00018,-5e-05,-1e-05,3,1
14012,1e-05,-0.00011,-9e-05,-5e-05,1e-05,0.00018,-5e-05,-1e-05,3,1
14013,1e-05,-0.00011,-9e-05,-5e-05,1e-05,0.00018,-5e-05,-1e-05,3,1
14014,1e-05,-0.00011,-9e-05,-5e-05,1e-05,0.00018,-5e-05,-1e-05,3,1
14015,1e-05,-0.00011,-9e-05,-5e-05,1e-05,0.00018,-5e-05,-1e-05,3,1
14016,1e-05,-0.00011,-9e-05,-5e-05,1e-05,0.00018,-5e-05,-1e-05,3,1
14017,1e-05,-0.00011,-9e-05,-5e-05,1e-05,0.00018,-5e-05,-1e-05,3,1
14018,1e-05,-0.00011,-9e-05,-5e-05,1e-05,0.00018,-5e-05,-1e-05,3,1
14019,1e-05,-0.00011,-9e-05,-5e-05,1e-05,0.00018,-5e-05,-1e-05,3,1
14020,1e-05,-0.00011,-9e-05,-5e-05,1e-05,0.00018,-5e-05,-1e-05,3,1
14021,1e-05,-0.00011,-9e-05,-5e-05,1e-05,0.00018,-5e-05,-1e-05,3,1
14022,1e-05,-0.00011,-9e-05,-5e-05,1e-05,0.00018,-5e-05,-1e-05,3,1
14023,1e-05,-0.00011,-9e-05,-5e-05,1e-05,0.00018,-5e-05,-1e-05,3,1
14024,1e-05,-0.00011,-9e-05,-5e-05,1e-05,0.00018,-5e-05,-1e-05,3,1
14025,1e-05,-0.00011,-9e-05,-5e-05,1e-05,0.00018,-5e-05,-1e-05,3,1
14026,1e-05,-0.00011,-9e-05,-5e-05,1e-05,0.00018,-5e-05,-1e-05,3,1
14027,1e-05,-0.00011,-9e-05,-5e-05,1e-05,0.00018,-5e-05,-1e-05,3,1
14028,-0.00016,-1e-05,-2e-05,-2e-05,1e-05,-8e-05,1e-05,-8e-05,3,1
14029,-0.00016,-1e-05,-2e-05,-2e-05,1e-05,-8e-05,1e-05,-8e-05,3,1
14030,1e-05,0.00012,0.0001,0,-3e-05,5e-05,-4e-05,-0.00021,3,1
14031,1e-05,0.00012,0.0001,0,-3e-05,5e-05,-4e-05,-0.00021,3,1
14032,1e-05,0.00012,0.0001,0,-3e-05,5e-05,-4e-05,-0.00021,3,1
14033,1e-05,0.00012,0.0001,0,-3e-05,5e-05,-4e-05,-0.00021,3,1
14034,1e-05,0.00012,0.0001,0,-3e-05,5e-05,-4e-05,-0.00021,3,1
14035,1e-05,0.00012,0.0001,0,-3e-05,5e-05,-4e-05,-0.00021,3,1
14036,1e-05,0.00012,0.0001,0,-3e-05,5e-05,-4e-05,-0.00021,3,1
14038,1e-05,0.00012,0.0001,0,-3e-05,5e-05,-4e-05,-0.00021,3,1
14039,1e-05,0.00012,0.0001,0,-3e-05,5e-05,-4e-05,-0.00021,3,1
14040,1e-05,0.00012,0.0001,0,-3e-05,5e-05,-4e-05,-0.00021,3,1
14041,1e-05,0.00012,0.0001,0,-3e-05,5e-05,-4e-05,-0.00021,3,1
14042,1e-05,0.00012,0.0001,0,-3e-05,5e-05,-4e-05,-0.00021,3,1
14043,1e-05,0.00012,0.0001,0,-3e-05,5e-05,-4e-05,-0.00021,3,1
14044,1e-05,0.00012,0.0001,0,-3e-05,5e-05,-4e-05,-0.00021,3,1
14045,1e-05,0.00012,0.0001,0,-3e-05,5e-05,-4e-05,-0.00021,3,1
14046,1e-05,0.00012,0.0001,0,-3e-05,5e-05,-4e-05,-0.00021,3,1
14047,1e-05,0.00012,0.0001,0,-3e-05,5e-05,-4e-05,-0.00021,3,1
14048,1e-05,0.00012,0.0001,0,-3e-05,5e-05,-4e-05,-0.00021,3,1
14050,1e-05,0.00012,0.0001,0,-3e-05,5e-05,-4e-05,-0.00021,3,1
14051,-3e-05,-6e-05,-2e-05,3e-05,9e-05,9e-05,6e-05,6e-05,3,1
14052,-6e-05,8e-05,5e-05,-7e-05,-0.00025,-9e-05,-0.00013,-0.00021,3,1
14053,-6e-05,8e-05,5e-05,-7e-05,-0.00025,-9e-05,-0.00013,-0.00021,3,1
14054,-6e-05,8e-05,5e-05,-7e-05,-0.00025,-9e-05,-0.00013,-0.00021,3,1
14055,-6e-05,8e-05,5e-05,-7e-05,-0.00025,-9e-05,-0.00013,-0.00021,3,1
14056,-6e-05,8e-05,5e-05,-7e-05,-0.00025,-9e-05,-0.00013,-0.00021,3,1
14057,-6e-05,8e-05,5e-05,-7e-05,-0.00025,-9e-05,-0.00013,-0.00021,3,1
14058,-6e-05,8e-05,5e-05,-7e-05,-0.00025,-9e-05,-0.00013,-0.00021,3,1
14059,-6e-05,8e-05,5e-05,-7e-05,-0.00025,-9e-05,-0.00013,-0.00021,3,1
14060,-6e-05,8e-05,5e-05,-7e-05,-0.00025,-9e-05,-0.00013,-0.00021,3,1
14061,-6e-05,8e-05,5e-05,-7e-05,-0.00025,-9e-05,-0.00013,-0.00021,3,1
14062,-6e-05,8e-05,5e-05,-7e-05,-0.00025,-9e-05,-0.00013,-0.00021,3,1
14063,-6e-05,8e-05,5e-05,-7e-05,-0.00025,-9e-05,-0.00013,-0.00021,3,1
14064,-6e-05,8e-05,5e-05,-7e-05,-0.00025,-9e-05,-0.00013,-0.00021,3,1
14065,-6e-05,8e-05,5e-05,-7e-05,-0.00025,-9e-05,-0.00013,-0.00021,3,1
14066,-6e-05,8e-05,5e-05,-7e-05,-0.00025,-9e-05,-0.00013,-0.00021,3,1
14067,-6e-05,8e-05,5e-05,-7e-05,-0.00025,-9e-05,-0.00013,-0.00021,3,1
14068,-6e-05,8e-05,5e-05,-7e-05,-0.00025,-9e-05,-0.00013,-0.00021,3,1
14069,-6e-05,8e-05,5e-05,-7e-05,-0.00025,-9e-05,-0.00013,-0.00021,3,1
14070,-6e-05,8e-05,5e-05,-7e-05,-0.00025,-9e-05,-0.00013,-0.00021,3,1
14071,-6e-05,8e-05,5e-05,-7e-05,-0.00025,-9e-05,-0.00013,-0.00021,3,1
14072,-6e-05,8e-05,5e-05,-7e-05,-0.00025,-9e-05,-0.00013,-0.00021,3,1
14073,-6e-05,8e-05,5e-05,-7e-05,-0.00025,-9e-05,-0.00013,-0.00021,3,1
14074,-6e-05,8e-05,5e-05,-7e-05,-0.00025,-9e-05,-0.00013,-0.00021,3,1
14075,-6e-05,8e-05,5e-05,-7e-05,-0.00025,-9e-05,-0.00013,-0.00021,3,1
14076,-6e-05,8e-05,5e-05,-7e-05,-0.00025,-9e-05,-0.00013,-0.00021,3,1
14077,-6e-05,8e-05,5e-05,-7e-05,-0.00025,-9e-05,-0.00013,-0.00021,3,1
14078,-6e-05,8e-05,5e-05,-7e-05,-0.00025,-9e-05,-0.00013,-0.00021,3,1
14079,-6e-05,8e-05,5e-05,-7e-05,-0.00025,-9e-05,-0.00013,-0.00021,3,1
14080,-6e-05,8e-05,5e-05,-7e-05,-0.00025,-9e-05,-0.00013,-0.00021,3,1
14081,-0.0001,-2e-05,2e-05,0,-3e-05,-0.00012,-9e-05,-5e-05,3,1
14082,0.00023,-6e-05,-1e-05,7e-05,0.00016,-4e-05,7e-05,0.0002,3,1
14083,0.00023,-6e-05,-1e-05,7e-05,0.00016,-4e-05,7e-05,0.0002,3,1
14084,0.00023,-6e-05,-1e-05,7e-05,0.00016,-4e-05,7e-05,0.0002,3,1
14085,0.00023,-6e-05,-1e-05,7e-05,0.00016,-4e-05,7e-05,0.0002,3,1
14086,0.00023,-6e-05,-1e-05,7e-05,0.00016,-4e-05,7e-05,0.0002,3,1
14088,0.00023,-6e-05,-1e-05,7e-05,0.00016,-4e-05,7e-05,0.0002,3,1
14089,0.00023,-6e-05,-1e-05,7e-05,0.00016,-4e-05,7e-05,0.0002,3,1
14090,0.00023,-6e-05,-1e-05,7e-05,0.00016,-4e-05,7e-05,0.0002,3,1
14091,0.00023,-6e-05,-1e-05,7e-05,0.00016,-4e-05,7e-05,0.0002,3,1
14092,0.00023,-6e-05,-1e-05,7e-05,0.00016,-4e-05,7e-05,0.0002,3,1
14093,0.00023,-6e-05,-1e-05,7e-05,0.00016,-4e-05,7e-05,0.0002,3,1
14094,0.00023,-6e-05,-1e-05,7e-05,0.00016,-4e-05,7e-05,0.0002,3,1
14095,0.00023,-6e-05,-1e-05,7e-05,0.00016,-4e-05,7e-05,0.0002,3,1
14096,0.00023,-6e-05,-1e-05,7e-05,0.00016,-4e-05,7e-05,0.0002,3,1
14097,0.00023,-6e-05,-1e-05,7e-05,0.00016,-4e-05,7e-05,0.0002,3,1
14098,0.00023,-6e-05,-1e-05,7e-05,0.00016,-4e-05,7e-05,0.0002,3,1
14099,0.00023,-6e-05,-1e-05,7e-05,0.00016,-4e-05,7e-05,0.0002,3,1
14100,0.00023,-6e-05,-1e-05,7e-05,0.00016,-4e-05,7e-05,0.0002,3,1
14101,0.00023,-6e-05,-1e-05,7e-05,0.00016,-4e-05,7e-05,0.0002,3,1
14102,0.00023,-6e-05,-1e-05,7e-05,0.00016,-4e-05,7e-05,0.0002,3,1
14103,0.00022,0.00022,6e-05,1e-05,5e-05,2e-05,-1e-05,0.00022,3,1
14104,0.00022,0.00022,6e-05,1e-05,5e-05,2e-05,-1e-05,0.00022,3,1
14105,-0.00029,-0.00022,-7e-05,6e-05,0.00024,7e-05,7e-05,-0.00012,3,1
14106,-0.00029,-0.00022,-7e-05,6e-05,0.00024,7e-05,7e-05,-0.00012,3,1
14107,-0.00029,-0.00022,-7e-05,6e-05,0.00024,7e-05,7e-05,-0.00012,3,1
14108,-0.00029,-0.00022,-7e-05,6e-05,0.00024,7e-05,7e-05,-0.00012,3,1
14109,-0.00029,-0.00022,-7e-05,6e-05,0.00024,7e-05,7e-05,-0.00012,3,1
14110,-0.00029,-0.00022,-7e-05,6e-05,0.00024,7e-05,7e-05,-0.00012,3,1
14111,-0.00029,-0.00022,-7e-05,6e-05,0.00024,7e-05,7e-05,-0.00012,3,1
14112,-0.00029,-0.00022,-7e-05,6e-05,0.00024,7e-05,7e-05,-0.00012,3,1
14113,-0.00029,-0.00022,-7e-05,6e-05,0.00024,7e-05,7e-05,-0.00012,3,1
14114,-0.00029,-0.00022,-7e-05,6e-05,0.00024,7e-05,7e-05,-0.00012,3,1
14115,-0.00029,-0.00022,-7e-05,6e-05,0.00024,7e-05,7e-05,-0.00012,3,1
14116,-0.00029,-0.00022,-7e-05,6e-05,0.00024,7e-05,7e-05,-0.00012,3,1
14117,-0.00029,-0.00022,-7e-05,6e-05,0.00024,7e-05,7e-05,-0.00012,3,1
14118,-0.00029,-0.00022,-7e-05,6e-05,0.00024,7e-05,7e-05,-0.00012,3,1
14119,-0.00029,-0.00022,-7e-05,6e-05,0.00024,7e-05,7e-05,-0.00012,3,1
14120,-0.00029,-0.00022,-7e-05,6e-05,0.00024,7e-05,7e-05,-0.00012,3,1
14121,-0.00029,-0.00022,-7e-05,6e-05,0.00024,7e-05,7e-05,-0.00012,3,1
14122,-0.00029,-0.00022,-7e-05,6e-05,0.00024,7e-05,7e-05,-0.00012,3,1
14123,-0.00029,-0.00022,-7e-05,6e-05,0.00024,7e-05,7e-05,-0.00012,3,1
14124,-0.00029,-0.00022,-7e-05,6e-05,0.00024,7e-05,7e-05,-0.00012,3,1
14125,-0.00029,-0.00022,-7e-05,6e-05,0.00024,7e-05,7e-05,-0.00012,3,1
14126,-0.00017,-2e-05,1e-05,2e-05,4e-05,9e-05,-5e-05,-0.00038,3,1
14127,-0.00017,-2e-05,1e-05,2e-05,4e-05,9e-05,-5e-05,-0.00038,3,1
14128,-0.00017,-2e-05,1e-05,2e-05,4e-05,9e-05,-5e-05,-0.00038,3,1
14129,-0.00027,-0.00031,-1e-05,-5e-05,-0.00016,-0.00014,-2e-05,-0.00017,3,1
14130,-0.00027,-0.00031,-1e-05,-5e-05,-0.00016,-0.00014,-2e-05,-0.00017,3,1
14131,-0.00027,-0.00031,-1e-05,-5e-05,-0.00016,-0.00014,-2e-05,-0.00017,3,1
14132,-0.00027,-0.00031,-1e-05,-5e-05,-0.00016,-0.00014,-2e-05,-0.00017,3,1
14133,-0.00027,-0.00031,-1e-05,-5e-05,-0.00016,-0.00014,-2e-05,-0.00017,3,1
14134,-0.00027,-0.00031,-1e-05,-5e-05,-0.00016,-0.00014,-2e-05,-0.00017,3,1
14135,-0.00027,-0.00031,-1e-05,-5e-05,-0.00016,-0.00014,-2e-05,-0.00017,3,1
14136,-0.00027,-0.00031,-1e-05,-5e-05,-0.00016,-0.00014,-2e-05,-0.00017,3,1
14138,-0.00027,-0.00031,-1e-05,-5e-05,-0.00016,-0.00014,-2e-05,-0.00017,3,1
14139,-0.00014,-0.00012,-8e-05,-5e-05,-2e-05,-9e-05,-1e-05,7e-05,3,1
14140,-0.00014,-0.00012,-8e-05,-5e-05,-2e-05,-9e-05,-1e-05,7e-05,3,1
14141,-0.00014,-0.00012,-8e-05,-5e-05,-2e-05,-9e-05,-1e-05,7e-05,3,1
14142,-0.00014,-0.00012,-8e-05,-5e-05,-2e-05,-9e-05,-1e-05,7e-05,3,1
14143,-0.00014,-0.00012,-8e-05,-5e-05,-2e-05,-9e-05,-1e-05,7e-05,3,1
14144,-0.00014,-0.00012,-8e-05,-5e-05,-2e-05,-9e-05,-1e-05,7e-05,3,1
14145,-0.00014,-0.00012,-8e-05,-5e-05,-2e-05,-9e-05,-1e-05,7e-05,3,1
14146,-0.00014,-0.00012,-8e-05,-5e-05,-2e-05,-9e-05,-1e-05,7e-05,3,1
14147,-0.00014,-0.00012,-8e-05,-5e-05,-2e-05,-9e-05,-1e-05,7e-05,3,1
14148,-0.00014,-0.00012,-8e-05,-5e-05,-2e-05,-9e-05,-1e-05,7e-05,3,1
14149,-0.00014,-0.00012,-8e-05,-5e-05,-2e-05,-9e-05,-1e-05,7e-05,3,1
14150,-0.00014,-0.00012,-8e-05,-5e-05,-2e-05,-9e-05,-1e-05,7e-05,3,1
14151,-0.00014,-0.00012,-8e-05,-5e-05,-2e-05,-9e-05,-1e-05,7e-05,3,1
14152,-0.00014,-0.00012,-8e-05,-5e-05,-2e-05,-9e-05,-1e-05,7e-05,3,1
14153,-0.00014,-0.00012,-8e-05,-5e-05,-2e-05,-9e-05,-1e-05,7e-05,3,1
14154,-0.00014,-0.00012,-8e-05,-5e-05,-2e-05,-9e-05,-1e-05,7e-05,3,1
14155,-0.00014,-0.00012,-8e-05,-5e-05,-2e-05,-9e-05,-1e-05,7e-05,3,1
14156,6e-05,-4e-05,-4e-05,1e-05,7e-05,6e-05,1e-05,7e-05,3,1
14157,6e-05,-4e-05,-4e-05,1e-05,7e-05,6e-05,1e-05,7e-05,3,1
14158,6e-05,-4e-05,-4e-05,1e-05,7e-05,6e-05,1e-05,7e-05,3,1
14160,6e-05,-4e-05,-4e-05,1e-05,7e-05,6e-05,1e-05,7e-05,3,1
14161,6e-05,-4e-05,-4e-05,1e-05,7e-05,6e-05,1e-05,7e-05,3,1
14162,6e-05,-4e-05,-4e-05,1e-05,7e-05,6e-05,1e-05,7e-05,3,1
14163,6e-05,-4e-05,-4e-05,1e-05,7e-05,6e-05,1e-05,7e-05,3,1
14164,6e-05,-4e-05,-4e-05,1e-05,7e-05,6e-05,1e-05,7e-05,3,1
14165,6e-05,-4e-05,-4e-05,1e-05,7e-05,6e-05,1e-05,7e-05,3,1
14166,6e-05,-4e-05,-4e-05,1e-05,7e-05,6e-05,1e-05,7e-05,3,1
14167,6e-05,-4e-05,-4e-05,1e-05,7e-05,6e-05,1e-05,7e-05,3,1
14168,6e-05,-4e-05,-4e-05,1e-05,7e-05,6e-05,1e-05,7e-05,3,1
14169,6e-05,-4e-05,-4e-05,1e-05,7e-05,6e-05,1e-05,7e-05,3,1
14170,6e-05,-4e-05,-4e-05,1e-05,7e-05,6e-05,1e-05,7e-05,3,1
14171,6e-05,-4e-05,-4e-05,1e-05,7e-05,6e-05,1e-05,7e-05,3,1
14172,6e-05,-4e-05,-4e-05,1e-05,7e-05,6e-05,1e-05,7e-05,3,1
14173,6e-05,-4e-05,-4e-05,1e-05,7e-05,6e-05,1e-05,7e-05,3,1
14174,6e-05,-4e-05,-4e-05,1e-05,7e-05,6e-05,1e-05,7e-05,3,1
14175,6e-05,-4e-05,-4e-05,1e-05,7e-05,6e-05,1e-05,7e-05,3,1
14176,6e-05,-4e-05,-4e-05,1e-05,7e-05,6e-05,1e-05,7e-05,3,1
14177,6e-05,-4e-05,-4e-05,1e-05,7e-05,6e-05,1e-05,7e-05,3,1
14178,-0.00013,-0.00012,-6e-05,-8e-05,-0.00017,-0.00013,8e-05,-2e-05,3,1
14179,-0.00013,-0.00012,-6e-05,-8e-05,-0.00017,-0.00013,8e-05,-2e-05,3,1
14180,0.00012,0.00022,0,-2e-05,2e-05,3e-05,-2e-05,9e-05,3,1
14181,0.00012,0.00022,0,-2e-05,2e-05,3e-05,-2e-05,9e-05,3,1
14182,0.00012,0.00022,0,-2e-05,2e-05,3e-05,-2e-05,9e-05,3,1
14183,0.00012,0.00022,0,-2e-05,2e-05,3e-05,-2e-05,9e-05,3,1
14184,0.00012,0.00022,0,-2e-05,2e-05,3e-05,-2e-05,9e-05,3,1
14185,0.00012,0.00022,0,-2e-05,2e-05,3e-05,-2e-05,9e-05,3,1
14186,0.00012,0.00022,0,-2e-05,2e-05,3e-05,-2e-05,9e-05,3,1
14188,0.00012,0.00022,0,-2e-05,2e-05,3e-05,-2e-05,9e-05,3,1
14189,0.00012,0.00022,0,-2e-05,2e-05,3e-05,-2e-05,9e-05,3,1
14190,0.00012,0.00022,0,-2e-05,2e-05,3e-05,-2e-05,9e-05,3,1
14191,0.00012,0.00022,0,-2e-05,2e-05,3e-05,-2e-05,9e-05,3,1
14192,0.00012,0.00022,0,-2e-05,2e-05,3e-05,-2e-05,9e-05,3,1
14193,0.00011,-4e-05,2e-05,-1e-05,-4e-05,-2e-05,-0.00012,-5e-05,3,1
14194,0.00011,-4e-05,2e-05,-1e-05,-4e-05,-2e-05,-0.00012,-5e-05,3,1
14195,-0.00015,-0.00017,0,-3e-05,-2e-05,-7e-05,-2e-05,-8e-05,3,1
14196,-0.00015,-0.00017,0,-3e-05,-2e-05,-7e-05,-2e-05,-8e-05,3,1
14197,-0.00015,-0.00017,0,-3e-05,-2e-05,-7e-05,-2e-05,-8e-05,3,1
14198,-0.00015,-0.00017,0,-3e-05,-2e-05,-7e-05,-2e-05,-8e-05,3,1
14199,-0.00015,-0.00017,0,-3e-05,-2e-05,-7e-05,-2e-05,-8e-05,3,1
14200,-0.00015,-0.00017,0,-3e-05,-2e-05,-7e-05,-2e-05,-8e-05,3,1
14201,-0.00015,-0.00017,0,-3e-05,-2e-05,-7e-05,-2e-05,-8e-05,3,1
14202,-0.00015,-0.00017,0,-3e-05,-2e-05,-7e-05,-2e-05,-8e-05,3,1
14203,-0.00015,-0.00017,0,-3e-05,-2e-05,-7e-05,-2e-05,-8e-05,3,1
14204,-0.00015,-0.00017,0,-3e-05,-2e-05,-7e-05,-2e-05,-8e-05,3,1
14205,-0.00015,-0.00017,0,-3e-05,-2e-05,-7e-05,-2e-05,-8e-05,3,1
14206,-0.00015,-0.00017,0,-3e-05,-2e-05,-7e-05,-2e-05,-8e-05,3,1
14207,-0.00015,-0.00017,0,-3e-05,-2e-05,-7e-05,-2e-05,-8e-05,3,1
14208,-0.00015,-0.00017,0,-3e-05,-2e-05,-7e-05,-2e-05,-8e-05,3,1
14209,-0.00015,-0.00017,0,-3e-05,-2e-05,-7e-05,-2e-05,-8e-05,3,1
14210,-0.00015,-0.00017,0,-3e-05,-2e-05,-7e-05,-2e-05,-8e-05,3,1
14211,-0.00015,-0.00017,0,-3e-05,-2e-05,-7e-05,-2e-05,-8e-05,3,1
14212,-0.00015,-0.00017,0,-3e-05,-2e-05,-7e-05,-2e-05,-8e-05,3,1
14213,-0.00015,-0.00017,0,-3e-05,-2e-05,-7e-05,-2e-05,-8e-05,3,1
14214,-0.00015,-0.00017,0,-3e-05,-2e-05,-7e-05,-2e-05,-8e-05,3,1
14215,-0.00015,5e-05,2e-05,3e-05,6e-05,-3e-05,3e-05,-0.00023,3,1
14216,-0.00015,5e-05,2e-05,3e-05,6e-05,-3e-05,3e-05,-0.00023,3,1
14217,-0.00015,5e-05,2e-05,3e-05,6e-05,-3e-05,3e-05,-0.00023,3,1
14218,-0.00015,5e-05,2e-05,3e-05,6e-05,-3e-05,3e-05,-0.00023,3,1
14219,-0.00015,5e-05,2e-05,3e-05,6e-05,-3e-05,3e-05,-0.00023,3,1
14220,-0.00015,5e-05,2e-05,3e-05,6e-05,-3e-05,3e-05,-0.00023,3,1
14221,-0.00015,5e-05,2e-05,3e-05,6e-05,-3e-05,3e-05,-0.00023,3,1
14222,-0.00015,5e-05,2e-05,3e-05,6e-05,-3e-05,3e-05,-0.00023,3,1
14223,-0.00015,5e-05,2e-05,3e-05,6e-05,-3e-05,3e-05,-0.00023,3,1
14224,-0.00015,5e-05,2e-05,3e-05,6e-05,-3e-05,3e-05,-0.00023,3,1
14225,-0.00015,5e-05,2e-05,3e-05,6e-05,-3e-05,3e-05,-0.00023,3,1
14226,-0.00015,5e-05,2e-05,3e-05,6e-05,-3e-05,3e-05,-0.00023,3,1
14227,-0.00015,5e-05,2e-05,3e-05,6e-05,-3e-05,3e-05,-0.00023,3,1
14228,-0.00015,5e-05,2e-05,3e-05,6e-05,-3e-05,3e-05,-0.00023,3,1
14229,-0.00015,5e-05,2e-05,3e-05,6e-05,-3e-05,3e-05,-0.00023,3,1
14230,-0.00015,5e-05,2e-05,3e-05,6e-05,-3e-05,3e-05,-0.00023,3,1
14231,-0.00012,-0.00029,-4e-05,-1e-05,2e-05,2e-05,-4e-05,-2e-05,3,1
14232,-0.00012,-0.00029,-4e-05,-1e-05,2e-05,2e-05,-4e-05,-2e-05,3,1
14233,-0.00012,-0.00029,-4e-05,-1e-05,2e-05,2e-05,-4e-05,-2e-05,3,1
14234,-0.00012,-0.00029,-4e-05,-1e-05,2e-05,2e-05,-4e-05,-2e-05,3,1
14235,-0.00012,-0.00029,-4e-05,-1e-05,2e-05,2e-05,-4e-05,-2e-05,3,1
14236,-0.00012,-0.00029,-4e-05,-1e-05,2e-05,2e-05,-4e-05,-2e-05,3,1
14238,-0.00012,-0.00029,-4e-05,-1e-05,2e-05,2e-05,-4e-05,-2e-05,3,1
14239,-0.00012,-0.00029,-4e-05,-1e-05,2e-05,2e-05,-4e-05,-2e-05,3,1
14240,-0.00012,-0.00029,-4e-05,-1e-05,2e-05,2e-05,-4e-05,-2e-05,3,1
14241,-0.00012,-0.00029,-4e-05,-1e-05,2e-05,2e-05,-4e-05,-2e-05,3,1
14242,-0.00012,-0.00029,-4e-05,-1e-05,2e-05,2e-05,-4e-05,-2e-05,3,1
14243,-0.00012,-0.00029,-4e-05,-1e-05,2e-05,2e-05,-4e-05,-2e-05,3,1
14244,-0.00012,-0.00029,-4e-05,-1e-05,2e-05,2e-05,-4e-05,-2e-05,3,1
14245,-0.00012,-0.00029,-4e-05,-1e-05,2e-05,2e-05,-4e-05,-2e-05,3,1
14246,-0.00012,-0.00029,-4e-05,-1e-05,2e-05,2e-05,-4e-05,-2e-05,3,1
14247,-0.00012,-0.00029,-4e-05,-1e-05,2e-05,2e-05,-4e-05,-2e-05,3,1
14248,-0.00012,-0.00029,-4e-05,-1e-05,2e-05,2e-05,-4e-05,-2e-05,3,1
14249,-0.00012,-0.00029,-4e-05,-1e-05,2e-05,2e-05,-4e-05,-2e-05,3,1
14250,-0.00012,-0.00029,-4e-05,-1e-05,2e-05,2e-05,-4e-05,-2e-05,3,1
14251,-0.00012,-0.00029,-4e-05,-1e-05,2e-05,2e-05,-4e-05,-2e-05,3,1
14252,-0.00012,-0.00029,-4e-05,-1e-05,2e-05,2e-05,-4e-05,-2e-05,3,1
14253,-7e-05,-5e-05,5e-05,2e-05,7e-05,6e-05,3e-05,0,3,1
14254,-7e-05,-5e-05,5e-05,2e-05,7e-05,6e-05,3e-05,0,3,1
14255,-5e-05,-1e-05,3e-05,1e-05,2e-05,0,-6e-05,-9e-05,3,1
14256,-5e-05,-1e-05,3e-05,1e-05,2e-05,0,-6e-05,-9e-05,3,1
14257,-5e-05,-1e-05,3e-05,1e-05,2e-05,0,-6e-05,-9e-05,3,1
14258,-5e-05,-1e-05,3e-05,1e-05,2e-05,0,-6e-05,-9e-05,3,1
14259,-5e-05,-1e-05,3e-05,1e-05,2e-05,0,-6e-05,-9e-05,3,1
14260,-5e-05,-1e-05,3e-05,1e-05,2e-05,0,-6e-05,-9e-05,3,1
14261,-5e-05,-1e-05,3e-05,1e-05,2e-05,0,-6e-05,-9e-05,3,1
14262,-5e-05,-1e-05,3e-05,1e-05,2e-05,0,-6e-05,-9e-05,3,1
14263,-5e-05,-1e-05,3e-05,1e-05,2e-05,0,-6e-05,-9e-05,3,1
14264,-5e-05,-1e-05,3e-05,1e-05,2e-05,0,-6e-05,-9e-05,3,1
14265,-5e-05,-1e-05,3e-05,1e-05,2e-05,0,-6e-05,-9e-05,3,1
14266,-5e-05,-1e-05,3e-05,1e-05,2e-05,0,-6e-05,-9e-05,3,1
14267,-5e-05,-1e-05,3e-05,1e-05,2e-05,0,-6e-05,-9e-05,3,1
14268,-0.0001,4e-05,-3e-05,-1e-05,-1e-05,3e-05,-2e-05,9e-05,3,1
14269,-0.0001,4e-05,-3e-05,-1e-05,-1e-05,3e-05,-2e-05,9e-05,3,1
14270,-0.00022,-0.0002,-9e-05,-9e-05,-0.00012,-8e-05,-2e-05,5e-05,3,1
14271,-0.00022,-0.0002,-9e-05,-9e-05,-0.00012,-8e-05,-2e-05,5e-05,3,1
14272,-0.00022,-0.0002,-9e-05,-9e-05,-0.00012,-8e-05,-2e-05,5e-05,3,1
14273,-0.00022,-0.0002,-9e-05,-9e-05,-0.00012,-8e-05,-2e-05,5e-05,3,1
14274,-0.00022,-0.0002,-9e-05,-9e-05,-0.00012,-8e-05,-2e-05,5e-05,3,1
14275,-0.00022,-0.0002,-9e-05,-9e-05,-0.00012,-8e-05,-2e-05,5e-05,3,1
14276,-0.00022,-0.0002,-9e-05,-9e-05,-0.00012,-8e-05,-2e-05,5e-05,3,1
14277,-0.00022,-0.0002,-9e-05,-9e-05,-0.00012,-8e-05,-2e-05,5e-05,3,1
14278,-0.00022,-0.0002,-9e-05,-9e-05,-0.00012,-8e-05,-2e-05,5e-05,3,1
14279,-0.00022,-0.0002,-9e-05,-9e-05,-0.00012,-8e-05,-2e-05,5e-05,3,1
14280,-0.00022,-0.0002,-9e-05,-9e-05,-0.00012,-8e-05,-2e-05,5e-05,3,1
14281,-0.00022,-0.0002,-9e-05,-9e-05,-0.00012,-8e-05,-2e-05,5e-05,3,1
14282,-0.00022,-0.0002,-9e-05,-9e-05,-0.00012,-8e-05,-2e-05,5e-05,3,1
14283,-0.00022,-0.0002,-9e-05,-9e-05,-0.00012,-8e-05,-2e-05,5e-05,3,1
14284,-0.00022,-0.0002,-9e-05,-9e-05,-0.00012,-8e-05,-2e-05,5e-05,3,1
14285,-0.00022,-0.0002,-9e-05,-9e-05,-0.00012,-8e-05,-2e-05,5e-05,3,1
14286,-0.00022,-0.0002,-9e-05,-9e-05,-0.00012,-8e-05,-2e-05,5e-05,3,1
14288,-0.00022,-0.0002,-9e-05,-9e-05,-0.00012,-8e-05,-2e-05,5e-05,3,1
14289,-0.00022,-0.0002,-9e-05,-9e-05,-0.00012,-8e-05,-2e-05,5e-05,3,1
14290,-9e-05,6e-05,4e-05,3e-05,4e-05,-2e-05,-4e-05,-3e-05,3,1
14291,-9e-05,6e-05,4e-05,3e-05,4e-05,-2e-05,-4e-05,-3e-05,3,1
14292,-9e-05,6e-05,4e-05,3e-05,4e-05,-2e-05,-4e-05,-3e-05,3,1
14293,-9e-05,6e-05,4e-05,3e-05,4e-05,-2e-05,-4e-05,-3e-05,3,1
14294,-9e-05,6e-05,4e-05,3e-05,4e-05,-2e-05,-4e-05,-3e-05,3,1
14295,-9e-05,6e-05,4e-05,3e-05,4e-05,-2e-05,-4e-05,-3e-05,3,1
14296,-9e-05,6e-05,4e-05,3e-05,4e-05,-2e-05,-4e-05,-3e-05,3,1
14297,-9e-05,6e-05,4e-05,3e-05,4e-05,-2e-05,-4e-05,-3e-05,3,1
14298,-9e-05,6e-05,4e-05,3e-05,4e-05,-2e-05,-4e-05,-3e-05,3,1
14299,-9e-05,6e-05,4e-05,3e-05,4e-05,-2e-05,-4e-05,-3e-05,3,1
14300,-9e-05,6e-05,4e-05,3e-05,4e-05,-2e-05,-4e-05,-3e-05,3,1
14301,-9e-05,6e-05,4e-05,3e-05,4e-05,-2e-05,-4e-05,-3e-05,3,1
14302,-9e-05,6e-05,4e-05,3e-05,4e-05,-2e-05,-4e-05,-3e-05,3,1
14303,-9e-05,6e-05,4e-05,3e-05,4e-05,-2e-05,-4e-05,-3e-05,3,1
14304,5e-05,5e-05,0,-2e-05,-0.00011,-4e-05,0,-2e-05,3,1
14305,5e-05,5e-05,0,-2e-05,-0.00011,-4e-05,0,-2e-05,3,1
14306,5e-05,5e-05,0,-2e-05,-0.00011,-4e-05,0,-2e-05,3,1
14307,5e-05,5e-05,0,-2e-05,-0.00011,-4e-05,0,-2e-05,3,1
14308,5e-05,5e-05,0,-2e-05,-0.00011,-4e-05,0,-2e-05,3,1
14309,5e-05,5e-05,0,-2e-05,-0.00011,-4e-05,0,-2e-05,3,1
14310,5e-05,5e-05,0,-2e-05,-0.00011,-4e-05,0,-2e-05,3,1
14311,5e-05,5e-05,0,-2e-05,-0.00011,-4e-05,0,-2e-05,3,1
14312,5e-05,5e-05,0,-2e-05,-0.00011,-4e-05,0,-2e-05,3,1
14313,5e-05,5e-05,0,-2e-05,-0.00011,-4e-05,0,-2e-05,3,1
14314,5e-05,5e-05,0,-2e-05,-0.00011,-4e-05,0,-2e-05,3,1
14315,5e-05,5e-05,0,-2e-05,-0.00011,-4e-05,0,-2e-05,3,1
14316,5e-05,5e-05,0,-2e-05,-0.00011,-4e-05,0,-2e-05,3,1
14317,5e-05,5e-05,0,-2e-05,-0.00011,-4e-05,0,-2e-05,3,1
14318,5e-05,5e-05,0,-2e-05,-0.00011,-4e-05,0,-2e-05,3,1
14319,5e-05,5e-05,0,-2e-05,-0.00011,-4e-05,0,-2e-05,3,1
14320,5e-05,5e-05,0,-2e-05,-0.00011,-4e-05,0,-2e-05,3,1
14321,5e-05,5e-05,0,-2e-05,-0.00011,-4e-05,0,-2e-05,3,1
14322,5e-05,5e-05,0,-2e-05,-0.00011,-4e-05,0,-2e-05,3,1
14323,5e-05,5e-05,0,-2e-05,-0.00011,-4e-05,0,-2e-05,3,1
14324,5e-05,5e-05,0,-2e-05,-0.00011,-4e-05,0,-2e-05,3,1
14325,5e-05,5e-05,0,-2e-05,-0.00011,-4e-05,0,-2e-05,3,1
14326,5e-05,5e-05,0,-2e-05,-0.00011,-4e-05,0,-2e-05,3,1
14327,5e-05,5e-05,0,-2e-05,-0.00011,-4e-05,0,-2e-05,3,1
14328,0.00032,1e-05,-4e-05,3e-05,8e-05,4e-05,7e-05,0.00016,3,1
14329,0.00032,1e-05,-4e-05,3e-05,8e-05,4e-05,7e-05,0.00016,3,1
14330,9e-05,0.00039,0.0001,0.00014,0.00026,1e-05,0,1e-05,3,1
14331,9e-05,0.00039,0.0001,0.00014,0.00026,1e-05,0,1e-05,3,1
14332,9e-05,0.00039,0.0001,0.00014,0.00026,1e-05,0,1e-05,3,1
14333,9e-05,0.00039,0.0001,0.00014,0.00026,1e-05,0,1e-05,3,1
14334,9e-05,0.00039,0.0001,0.00014,0.00026,1e-05,0,1e-05,3,1
14335,9e-05,0.00039,0.0001,0.00014,0.00026,1e-05,0,1e-05,3,1
14336,9e-05,0.00039,0.0001,0.00014,0.00026,1e-05,0,1e-05,3,1
14338,9e-05,0.00039,0.0001,0.00014,0.00026,1e-05,0,1e-05,3,1
14339,9e-05,0.00039,0.0001,0.00014,0.00026,1e-05,0,1e-05,3,1
14340,9e-05,0.00039,0.0001,0.00014,0.00026,1e-05,0,1e-05,3,1
14341,9e-05,0.00039,0.0001,0.00014,0.00026,1e-05,0,1e-05,3,1
14342,9e-05,0.00039,0.0001,0.00014,0.00026,1e-05,0,1e-05,3,1
14343,9e-05,0.00039,0.0001,0.00014,0.00026,1e-05,0,1e-05,3,1
14344,-3e-05,-2e-05,0,-6e-05,-0.00016,-1e-05,-8e-05,0.00011,3,1
14345,0.00021,0.00015,4e-05,3e-05,4e-05,0.00012,4e-05,5e-05,3,1
14346,0.00021,0.00015,4e-05,3e-05,4e-05,0.00012,4e-05,5e-05,3,1
14347,0.00021,0.00015,4e-05,3e-05,4e-05,0.00012,4e-05,5e-05,3,1
14348,0.00021,0.00015,4e-05,3e-05,4e-05,0.00012,4e-05,5e-05,3,1
14349,0.00021,0.00015,4e-05,3e-05,4e-05,0.00012,4e-05,5e-05,3,1
14350,0.00021,0.00015,4e-05,3e-05,4e-05,0.00012,4e-05,5e-05,3,1
14351,0.00021,0.00015,4e-05,3e-05,4e-05,0.00012,4e-05,5e-05,3,1
14352,0.00021,0.00015,4e-05,3e-05,4e-05,0.00012,4e-05,5e-05,3,1
14353,0.00021,0.00015,4e-05,3e-05,4e-05,0.00012,4e-05,5e-05,3,1
14354,0.00021,0.00015,4e-05,3e-05,4e-05,0.00012,4e-05,5e-05,3,1
14355,0.00021,0.00015,4e-05,3e-05,4e-05,0.00012,4e-05,5e-05,3,1
14356,0.00021,0.00015,4e-05,3e-05,4e-05,0.00012,4e-05,5e-05,3,1
14357,0.00021,0.00015,4e-05,3e-05,4e-05,0.00012,4e-05,5e-05,3,1
14358,0.00021,0.00015,4e-05,3e-05,4e-05,0.00012,4e-05,5e-05,3,1
14359,0.00021,0.00015,4e-05,3e-05,4e-05,0.00012,4e-05,5e-05,3,1
14360,0.00021,0.00015,4e-05,3e-05,4e-05,0.00012,4e-05,5e-05,3,1
14361,0.00021,0.00015,4e-05,3e-05,4e-05,0.00012,4e-05,5e-05,3,1
14362,0.00021,0.00015,4e-05,3e-05,4e-05,0.00012,4e-05,5e-05,3,1
14363,0.00021,0.00015,4e-05,3e-05,4e-05,0.00012,4e-05,5e-05,3,1
14364,0.00021,0.00015,4e-05,3e-05,4e-05,0.00012,4e-05,5e-05,3,1
14365,-0.00011,-5e-05,0,-3e-05,-3e-05,-4e-05,-2e-05,-9e-05,3,1
14366,0.00017,-2e-05,-0.00014,-5e-05,-1e-05,-1e-05,7e-05,0.0002,3,1
14367,-2e-05,4e-05,-0.00011,6e-05,0.0002,7e-05,1e-05,-0.00013,3,1
14368,-2e-05,4e-05,-0.00011,6e-05,0.0002,7e-05,1e-05,-0.00013,3,1
14369,-2e-05,4e-05,-0.00011,6e-05,0.0002,7e-05,1e-05,-0.00013,3,1
14370,-2e-05,4e-05,-0.00011,6e-05,0.0002,7e-05,1e-05,-0.00013,3,1
14371,-2e-05,4e-05,-0.00011,6e-05,0.0002,7e-05,1e-05,-0.00013,3,1
14372,-2e-05,4e-05,-0.00011,6e-05,0.0002,7e-05,1e-05,-0.00013,3,1
14373,-2e-05,4e-05,-0.00011,6e-05,0.0002,7e-05,1e-05,-0.00013,3,1
14374,-2e-05,4e-05,-0.00011,6e-05,0.0002,7e-05,1e-05,-0.00013,3,1
14375,-2e-05,4e-05,-0.00011,6e-05,0.0002,7e-05,1e-05,-0.00013,3,1
14376,-2e-05,4e-05,-0.00011,6e-05,0.0002,7e-05,1e-05,-0.00013,3,1
14377,-2e-05,4e-05,-0.00011,6e-05,0.0002,7e-05,1e-05,-0.00013,3,1
14378,-2e-05,4e-05,-0.00011,6e-05,0.0002,7e-05,1e-05,-0.00013,3,1
14379,-2e-05,4e-05,-0.00011,6e-05,0.0002,7e-05,1e-05,-0.00013,3,1
14380,-2e-05,4e-05,-0.00011,6e-05,0.0002,7e-05,1e-05,-0.00013,3,1
14381,-2e-05,4e-05,-0.00011,6e-05,0.0002,7e-05,1e-05,-0.00013,3,1
14382,-2e-05,4e-05,-0.00011,6e-05,0.0002,7e-05,1e-05,-0.00013,3,1
14383,-2e-05,4e-05,-0.00011,6e-05,0.0002,7e-05,1e-05,-0.00013,3,1
14384,-2e-05,4e-05,-0.00011,6e-05,0.0002,7e-05,1e-05,-0.00013,3,1
14385,-2e-05,4e-05,-0.00011,6e-05,0.0002,7e-05,1e-05,-0.00013,3,1
14386,-2e-05,4e-05,-0.00011,6e-05,0.0002,7e-05,1e-05,-0.00013,3,1
14388,0.00023,-4e-05,-1e-05,3e-05,8e-05,4e-05,-2e-05,7e-05,3,1
14389,0.00023,-4e-05,-1e-05,3e-05,8e-05,4e-05,-2e-05,7e-05,3,1
14390,0.00023,-4e-05,-1e-05,3e-05,8e-05,4e-05,-2e-05,7e-05,3,1
14391,0.00023,-4e-05,-1e-05,3e-05,8e-05,4e-05,-2e-05,7e-05,3,1
14392,0.00023,-4e-05,-1e-05,3e-05,8e-05,4e-05,-2e-05,7e-05,3,1
14393,0.00023,-4e-05,-1e-05,3e-05,8e-05,4e-05,-2e-05,7e-05,3,1
14394,0.00023,-4e-05,-1e-05,3e-05,8e-05,4e-05,-2e-05,7e-05,3,1
14395,0.00023,-4e-05,-1e-05,3e-05,8e-05,4e-05,-2e-05,7e-05,3,1
14396,0.00023,-4e-05,-1e-05,3e-05,8e-05,4e-05,-2e-05,7e-05,3,1
14397,0.00023,-4e-05,-1e-05,3e-05,8e-05,4e-05,-2e-05,7e-05,3,1
14398,0.00023,-4e-05,-1e-05,3e-05,8e-05,4e-05,-2e-05,7e-05,3,1
14399,0.00023,-4e-05,-1e-05,3e-05,8e-05,4e-05,-2e-05,7e-05,3,1
14400,0.00023,-4e-05,-1e-05,3e-05,8e-05,4e-05,-2e-05,7e-05,3,1
14401,0.00023,-4e-05,-1e-05,3e-05,8e-05,4e-05,-2e-05,7e-05,3,1
14402,0.00023,-4e-05,-1e-05,3e-05,8e-05,4e-05,-2e-05,7e-05,3,1
14403,0.00014,0.0001,-4e-05,-5e-05,-0.00012,-0.00016,-8e-05,0.00016,3,1
14404,0.00014,0.0001,-4e-05,-5e-05,-0.00012,-0.00016,-8e-05,0.00016,3,1
14405,0.00014,0.0001,-4e-05,-5e-05,-0.00012,-0.00016,-8e-05,0.00016,3,1
14406,0.00014,0.0001,-4e-05,-5e-05,-0.00012,-0.00016,-8e-05,0.00016,3,1
14407,0.00014,0.0001,-4e-05,-5e-05,-0.00012,-0.00016,-8e-05,0.00016,3,1
14408,0.00014,0.0001,-4e-05,-5e-05,-0.00012,-0.00016,-8e-05,0.00016,3,1
14409,0.00014,0.0001,-4e-05,-5e-05,-0.00012,-0.00016,-8e-05,0.00016,3,1
14410,0.00014,0.0001,-4e-05,-5e-05,-0.00012,-0.00016,-8e-05,0.00016,3,1
14411,0.00014,0.0001,-4e-05,-5e-05,-0.00012,-0.00016,-8e-05,0.00016,3,1
14412,0.00014,0.0001,-4e-05,-5e-05,-0.00012,-0.00016,-8e-05,0.00016,3,1
14413,0.00014,0.0001,-4e-05,-5e-05,-0.00012,-0.00016,-8e-05,0.00016,3,1
14414,0.00014,0.0001,-4e-05,-5e-05,-0.00012,-0.00016,-8e-05,0.00016,3,1
14415,0.00014,0.0001,-4e-05,-5e-05,-0.00012,-0.00016,-8e-05,0.00016,3,1
14416,0.00014,0.0001,-4e-05,-5e-05,-0.00012,-0.00016,-8e-05,0.00016,3,1
14417,0.00014,0.0001,-4e-05,-5e-05,-0.00012,-0.00016,-8e-05,0.00016,3,1
14418,0.00014,0.0001,-4e-05,-5e-05,-0.00012,-0.00016,-8e-05,0.00016,3,1
14419,0,-0.00019,1e-05,1e-05,0.0001,0.00019,3e-05,-2e-05,3,1
14420,0,-0.00019,1e-05,1e-05,0.0001,0.00019,3e-05,-2e-05,3,1
14421,6e-05,0.00029,9e-05,-1e-05,-0.0001,-6e-05,-3e-05,-5e-05,3,1
14422,6e-05,0.00029,9e-05,-1e-05,-0.0001,-6e-05,-3e-05,-5e-05,3,1
14423,6e-05,0.00029,9e-05,-1e-05,-0.0001,-6e-05,-3e-05,-5e-05,3,1
14424,6e-05,0.00029,9e-05,-1e-05,-0.0001,-6e-05,-3e-05,-5e-05,3,1
14425,6e-05,0.00029,9e-05,-1e-05,-0.0001,-6e-05,-3e-05,-5e-05,3,1
14426,6e-05,0.00029,9e-05,-1e-05,-0.0001,-6e-05,-3e-05,-5e-05,3,1
14427,6e-05,0.00029,9e-05,-1e-05,-0.0001,-6e-05,-3e-05,-5e-05,3,1
14428,6e-05,0.00029,9e-05,-1e-05,-0.0001,-6e-05,-3e-05,-5e-05,3,1
14429,6e-05,0.00029,9e-05,-1e-05,-0.0001,-6e-05,-3e-05,-5e-05,3,1
14430,6e-05,0.00029,9e-05,-1e-05,-0.0001,-6e-05,-3e-05,-5e-05,3,1
14431,6e-05,0.00029,9e-05,-1e-05,-0.0001,-6e-05,-3e-05,-5e-05,3,1
14432,6e-05,0.00029,9e-05,-1e-05,-0.0001,-6e-05,-3e-05,-5e-05,3,1
14433,6e-05,0.00029,9e-05,-1e-05,-0.0001,-6e-05,-3e-05,-5e-05,3,1
14434,6e-05,0.00029,9e-05,-1e-05,-0.0001,-6e-05,-3e-05,-5e-05,3,1
14435,6e-05,0.00029,9e-05,-1e-05,-0.0001,-6e-05,-3e-05,-5e-05,3,1
14436,6e-05,0.00029,9e-05,-1e-05,-0.0001,-6e-05,-3e-05,-5e-05,3,1
14438,6e-05,0.00029,9e-05,-1e-05,-0.0001,-6e-05,-3e-05,-5e-05,3,1
14439,6e-05,0.00029,9e-05,-1e-05,-0.0001,-6e-05,-3e-05,-5e-05,3,1
14440,6e-05,0.00029,9e-05,-1e-05,-0.0001,-6e-05,-3e-05,-5e-05,3,1
14441,6e-05,0.00029,9e-05,-1e-05,-0.0001,-6e-05,-3e-05,-5e-05,3,1
14442,6e-05,0.00029,9e-05,-1e-05,-0.0001,-6e-05,-3e-05,-5e-05,3,1
14443,6e-05,0.00029,9e-05,-1e-05,-0.0001,-6e-05,-3e-05,-5e-05,3,1
14444,6e-05,0.00029,9e-05,-1e-05,-0.0001,-6e-05,-3e-05,-5e-05,3,1
14445,6e-05,0.00029,9e-05,-1e-05,-0.0001,-6e-05,-3e-05,-5e-05,3,1
14446,6e-05,0.00029,9e-05,-1e-05,-0.0001,-6e-05,-3e-05,-5e-05,3,1
14447,6e-05,0.00029,9e-05,-1e-05,-0.0001,-6e-05,-3e-05,-5e-05,3,1
14448,6e-05,0.00029,9e-05,-1e-05,-0.0001,-6e-05,-3e-05,-5e-05,3,1
14449,6e-05,0.00029,9e-05,-1e-05,-0.0001,-6e-05,-3e-05,-5e-05,3,1
14450,6e-05,0.00029,9e-05,-1e-05,-0.0001,-6e-05,-3e-05,-5e-05,3,1
14451,6e-05,0.00029,9e-05,-1e-05,-0.0001,-6e-05,-3e-05,-5e-05,3,1
14452,6e-05,0.00029,9e-05,-1e-05,-0.0001,-6e-05,-3e-05,-5e-05,3,1
14453,6e-05,0.00029,9e-05,-1e-05,-0.0001,-6e-05,-3e-05,-5e-05,3,1
14454,6e-05,0.00029,9e-05,-1e-05,-0.0001,-6e-05,-3e-05,-5e-05,3,1
14455,-0.00011,-0.00026,-0.00016,-9e-05,-0.00016,-0.00016,-5e-05,-0.00014,3,1
14456,-6e-05,8e-05,9e-05,0.0001,0.00024,2e-05,-8e-05,-0.00013,3,1
14457,0,7e-05,-2e-05,-8e-05,-8e-05,1e-05,-2e-05,0.0001,3,1
14458,0,7e-05,-2e-05,-8e-05,-8e-05,1e-05,-2e-05,0.0001,3,1
14459,0,7e-05,-2e-05,-8e-05,-8e-05,1e-05,-2e-05,0.0001,3,1
14460,0,7e-05,-2e-05,-8e-05,-8e-05,1e-05,-2e-05,0.0001,3,1
14461,0,7e-05,-2e-05,-8e-05,-8e-05,1e-05,-2e-05,0.0001,3,1
14462,-6e-05,0,0,3e-05,2e-05,-1e-05,-5e-05,-0.00016,3,1
14463,-6e-05,0,0,3e-05,2e-05,-1e-05,-5e-05,-0.00016,3,1
14464,-6e-05,0,0,3e-05,2e-05,-1e-05,-5e-05,-0.00016,3,1
14465,-6e-05,0,0,3e-05,2e-05,-1e-05,-5e-05,-0.00016,3,1
14466,-6e-05,0,0,3e-05,2e-05,-1e-05,-5e-05,-0.00016,3,1
14467,-6e-05,0,0,3e-05,2e-05,-1e-05,-5e-05,-0.00016,3,1
14468,-6e-05,0,0,3e-05,2e-05,-1e-05,-5e-05,-0.00016,3,1
14469,-0.00011,-0.00039,-3e-05,-6e-05,-0.00014,1e-05,0.00011,-3e-05,3,1
14470,-0.00011,-0.00039,-3e-05,-6e-05,-0.00014,1e-05,0.00011,-3e-05,3,1
14471,-0.00011,-0.00039,-3e-05,-6e-05,-0.00014,1e-05,0.00011,-3e-05,3,1
14472,-0.00011,-0.00039,-3e-05,-6e-05,-0.00014,1e-05,0.00011,-3e-05,3,1
14473,-0.00011,-0.00039,-3e-05,-6e-05,-0.00014,1e-05,0.00011,-3e-05,3,1
14474,-0.00011,-0.00039,-3e-05,-6e-05,-0.00014,1e-05,0.00011,-3e-05,3,1
14475,-0.00011,-0.00039,-3e-05,-6e-05,-0.00014,1e-05,0.00011,-3e-05,3,1
14476,-0.00011,-0.00039,-3e-05,-6e-05,-0.00014,1e-05,0.00011,-3e-05,3,1
14477,-0.00011,-0.00039,-3e-05,-6e-05,-0.00014,1e-05,0.00011,-3e-05,3,1
14478,-0.00011,-0.00039,-3e-05,-6e-05,-0.00014,1e-05,0.00011,-3e-05,3,1
14479,-0.00011,-0.00039,-3e-05,-6e-05,-0.00014,1e-05,0.00011,-3e-05,3,1
14480,-0.00011,-0.00039,-3e-05,-6e-05,-0.00014,1e-05,0.00011,-3e-05,3,1
14481,-0.00011,-0.00039,-3e-05,-6e-05,-0.00014,1e-05,0.00011,-3e-05,3,1
14482,-0.00011,-0.00039,-3e-05,-6e-05,-0.00014,1e-05,0.00011,-3e-05,3,1
14483,-0.00011,-0.00039,-3e-05,-6e-05,-0.00014,1e-05,0.00011,-3e-05,3,1
14484,0.0001,0.00021,3e-05,4e-05,2e-05,0.00012,0.00013,0.0001,3,1
14485,0.0001,0.00021,3e-05,4e-05,2e-05,0.00012,0.00013,0.0001,3,1
14487,0.0001,0.00021,3e-05,4e-05,2e-05,0.00012,0.00013,0.0001,3,1
14489,0.0001,0.00021,3e-05,4e-05,2e-05,0.00012,0.00013,0.0001,3,1
14490,0.0001,0.00021,3e-05,4e-05,2e-05,0.00012,0.00013,0.0001,3,1
14491,0.0001,0.00021,3e-05,4e-05,2e-05,0.00012,0.00013,0.0001,3,1
14492,0.0001,0.00021,3e-05,4e-05,2e-05,0.00012,0.00013,0.0001,3,1
14493,-7e-05,-0.00011,-0.00011,-0.00012,-0.0002,-0.0001,-4e-05,0.00013,3,1
14494,-7e-05,-0.00011,-0.00011,-0.00012,-0.0002,-0.0001,-4e-05,0.00013,3,1
14495,-7e-05,-0.00011,-0.00011,-0.00012,-0.0002,-0.0001,-4e-05,0.00013,3,1
14496,-7e-05,-0.00011,-0.00011,-0.00012,-0.0002,-0.0001,-4e-05,0.00013,3,1
14497,-7e-05,-0.00011,-0.00011,-0.00012,-0.0002,-0.0001,-4e-05,0.00013,3,1
14498,-7e-05,-0.00011,-0.00011,-0.00012,-0.0002,-0.0001,-4e-05,0.00013,3,1
14499,-7e-05,-0.00011,-0.00011,-0.00012,-0.0002,-0.0001,-4e-05,0.00013,3,1
14500,-7e-05,-0.00011,-0.00011,-0.00012,-0.0002,-0.0001,-4e-05,0.00013,3,1
14501,-7e-05,-0.00011,-0.00011,-0.00012,-0.0002,-0.0001,-4e-05,0.00013,3,1
14502,-7e-05,-0.00011,-0.00011,-0.00012,-0.0002,-0.0001,-4e-05,0.00013,3,1
14503,-7e-05,-0.00011,-0.00011,-0.00012,-0.0002,-0.0001,-4e-05,0.00013,3,1
14504,-7e-05,-0.00011,-0.00011,-0.00012,-0.0002,-0.0001,-4e-05,0.00013,3,1
14505,-7e-05,-0.00011,-0.00011,-0.00012,-0.0002,-0.0001,-4e-05,0.00013,3,1
14506,-7e-05,-0.00011,-0.00011,-0.00012,-0.0002,-0.0001,-4e-05,0.00013,3,1
14507,-7e-05,-0.00011,-0.00011,-0.00012,-0.0002,-0.0001,-4e-05,0.00013,3,1
14508,-7e-05,-0.00011,-0.00011,-0.00012,-0.0002,-0.0001,-4e-05,0.00013,3,1
14509,-7e-05,-0.00011,-0.00011,-0.00012,-0.0002,-0.0001,-4e-05,0.00013,3,1
14510,-7e-05,-0.00011,-0.00011,-0.00012,-0.0002,-0.0001,-4e-05,0.00013,3,1
14511,-7e-05,-0.00011,-0.00011,-0.00012,-0.0002,-0.0001,-4e-05,0.00013,3,1
14512,-7e-05,-0.00011,-0.00011,-0.00012,-0.0002,-0.0001,-4e-05,0.00013,3,1
14513,-7e-05,-0.00011,-0.00011,-0.00012,-0.0002,-0.0001,-4e-05,0.00013,3,1
14514,-7e-05,-0.00011,-0.00011,-0.00012,-0.0002,-0.0001,-4e-05,0.00013,3,1
14515,9e-05,0.00014,3e-05,0.00011,0.00015,8e-05,-6e-05,-0.00025,3,1
14516,1e-05,-5e-05,0,-1e-05,5e-05,7e-05,0,8e-05,3,1
14517,0.0004,7e-05,6e-05,4e-05,8e-05,4e-05,1e-05,2e-05,3,1
14518,0.0004,7e-05,6e-05,4e-05,8e-05,4e-05,1e-05,2e-05,3,1
14519,0.0004,7e-05,6e-05,4e-05,8e-05,4e-05,1e-05,2e-05,3,1
14520,0.0004,7e-05,6e-05,4e-05,8e-05,4e-05,1e-05,2e-05,3,1
14521,0.0004,7e-05,6e-05,4e-05,8e-05,4e-05,1e-05,2e-05,3,1
14522,0.0004,7e-05,6e-05,4e-05,8e-05,4e-05,1e-05,2e-05,3,1
14523,0.0004,7e-05,6e-05,4e-05,8e-05,4e-05,1e-05,2e-05,3,1
14524,0.0004,7e-05,6e-05,4e-05,8e-05,4e-05,1e-05,2e-05,3,1
14525,0.0004,7e-05,6e-05,4e-05,8e-05,4e-05,1e-05,2e-05,3,1
14526,0.0004,7e-05,6e-05,4e-05,8e-05,4e-05,1e-05,2e-05,3,1
14527,0.0004,7e-05,6e-05,4e-05,8e-05,4e-05,1e-05,2e-05,3,1
14528,0.0004,7e-05,6e-05,4e-05,8e-05,4e-05,1e-05,2e-05,3,1
14529,0.0004,7e-05,6e-05,4e-05,8e-05,4e-05,1e-05,2e-05,3,1
14530,0.0004,7e-05,6e-05,4e-05,8e-05,4e-05,1e-05,2e-05,3,1
14531,0.0004,7e-05,6e-05,4e-05,8e-05,4e-05,1e-05,2e-05,3,1
14532,0.0004,7e-05,6e-05,4e-05,8e-05,4e-05,1e-05,2e-05,3,1
14533,0.0004,7e-05,6e-05,4e-05,8e-05,4e-05,1e-05,2e-05,3,1
14534,0.0004,7e-05,6e-05,4e-05,8e-05,4e-05,1e-05,2e-05,3,1
14535,0.0004,7e-05,6e-05,4e-05,8e-05,4e-05,1e-05,2e-05,3,1
14536,0.0004,7e-05,6e-05,4e-05,8e-05,4e-05,1e-05,2e-05,3,1
14539,1e-05,0.00014,1e-05,0,3e-05,1e-05,-7e-05,0.00017,3,1
14540,1e-05,0.00014,1e-05,0,3e-05,1e-05,-7e-05,0.00017,3,1
14541,-2e-05,-8e-05,-3e-05,-3e-05,-3e-05,0,-6e-05,-0.00015,3,1
14542,-2e-05,-8e-05,-3e-05,-3e-05,-3e-05,0,-6e-05,-0.00015,3,1
14543,-2e-05,-8e-05,-3e-05,-3e-05,-3e-05,0,-6e-05,-0.00015,3,1
14544,-2e-05,-8e-05,-3e-05,-3e-05,-3e-05,0,-6e-05,-0.00015,3,1
14545,-2e-05,-8e-05,-3e-05,-3e-05,-3e-05,0,-6e-05,-0.00015,3,1
14546,-2e-05,-8e-05,-3e-05,-3e-05,-3e-05,0,-6e-05,-0.00015,3,1
14547,-2e-05,-8e-05,-3e-05,-3e-05,-3e-05,0,-6e-05,-0.00015,3,1
14548,-2e-05,-8e-05,-3e-05,-3e-05,-3e-05,0,-6e-05,-0.00015,3,1
14549,-2e-05,-8e-05,-3e-05,-3e-05,-3e-05,0,-6e-05,-0.00015,3,1
14550,-2e-05,-8e-05,-3e-05,-3e-05,-3e-05,0,-6e-05,-0.00015,3,1
14551,-2e-05,-8e-05,-3e-05,-3e-05,-3e-05,0,-6e-05,-0.00015,3,1
14552,-2e-05,-8e-05,-3e-05,-3e-05,-3e-05,0,-6e-05,-0.00015,3,1
14553,-2e-05,-8e-05,-3e-05,-3e-05,-3e-05,0,-6e-05,-0.00015,3,1
14554,-2e-05,-8e-05,-3e-05,-3e-05,-3e-05,0,-6e-05,-0.00015,3,1
14555,-2e-05,-8e-05,-3e-05,-3e-05,-3e-05,0,-6e-05,-0.00015,3,1
14556,-2e-05,-8e-05,-3e-05,-3e-05,-3e-05,0,-6e-05,-0.00015,3,1
14557,-2e-05,-8e-05,-3e-05,-3e-05,-3e-05,0,-6e-05,-0.00015,3,1
14558,-2e-05,-8e-05,-3e-05,-3e-05,-3e-05,0,-6e-05,-0.00015,3,1
14559,-3e-05,0.00019,-2e-05,3e-05,4e-05,-1e-05,7e-05,3e-05,3,1
14560,-9e-05,-0.00027,2e-05,-1e-05,-7e-05,-9e-05,-0.00011,-0.00018,3,1
14561,-9e-05,-0.00027,2e-05,-1e-05,-7e-05,-9e-05,-0.00011,-0.00018,3,1
14562,-9e-05,-0.00027,2e-05,-1e-05,-7e-05,-9e-05,-0.00011,-0.00018,3,1
14563,-9e-05,-0.00027,2e-05,-1e-05,-7e-05,-9e-05,-0.00011,-0.00018,3,1
14564,-9e-05,-0.00027,2e-05,-1e-05,-7e-05,-9e-05,-0.00011,-0.00018,3,1
14565,-9e-05,-0.00027,2e-05,-1e-05,-7e-05,-9e-05,-0.00011,-0.00018,3,1
14566,-9e-05,-0.00027,2e-05,-1e-05,-7e-05,-9e-05,-0.00011,-0.00018,3,1
14567,-9e-05,-0.00027,2e-05,-1e-05,-7e-05,-9e-05,-0.00011,-0.00018,3,1
14568,-0.00015,-3e-05,-2e-05,-5e-05,-0.00016,-3e-05,1e-05,-3e-05,3,1
14569,-0.00015,-3e-05,-2e-05,-5e-05,-0.00016,-3e-05,1e-05,-3e-05,3,1
14570,-0.00015,-3e-05,-2e-05,-5e-05,-0.00016,-3e-05,1e-05,-3e-05,3,1
14571,-0.00015,-3e-05,-2e-05,-5e-05,-0.00016,-3e-05,1e-05,-3e-05,3,1
14572,-0.00015,-3e-05,-2e-05,-5e-05,-0.00016,-3e-05,1e-05,-3e-05,3,1
14573,-0.00015,-3e-05,-2e-05,-5e-05,-0.00016,-3e-05,1e-05,-3e-05,3,1
14574,-0.00015,-3e-05,-2e-05,-5e-05,-0.00016,-3e-05,1e-05,-3e-05,3,1
14575,-0.00015,-3e-05,-2e-05,-5e-05,-0.00016,-3e-05,1e-05,-3e-05,3,1
14576,-0.00015,-3e-05,-2e-05,-5e-05,-0.00016,-3e-05,1e-05,-3e-05,3,1
14577,-0.00015,-3e-05,-2e-05,-5e-05,-0.00016,-3e-05,1e-05,-3e-05,3,1
14578,-0.00015,-3e-05,-2e-05,-5e-05,-0.00016,-3e-05,1e-05,-3e-05,3,1
14579,-0.00015,-3e-05,-2e-05,-5e-05,-0.00016,-3e-05,1e-05,-3e-05,3,1
14580,-0.00015,-3e-05,-2e-05,-5e-05,-0.00016,-3e-05,1e-05,-3e-05,3,1
14581,-0.00015,-3e-05,-2e-05,-5e-05,-0.00016,-3e-05,1e-05,-3e-05,3,1
14582,-0.00015,-3e-05,-2e-05,-5e-05,-0.00016,-3e-05,1e-05,-3e-05,3,1
14583,-0.00015,-3e-05,-2e-05,-5e-05,-0.00016,-3e-05,1e-05,-3e-05,3,1
14584,-0.00015,-3e-05,-2e-05,-5e-05,-0.00016,-3e-05,1e-05,-3e-05,3,1
14585,-0.00015,-3e-05,-2e-05,-5e-05,-0.00016,-3e-05,1e-05,-3e-05,3,1
14586,-0.00015,-3e-05,-2e-05,-5e-05,-0.00016,-3e-05,1e-05,-3e-05,3,1
14588,-0.00015,-3e-05,-2e-05,-5e-05,-0.00016,-3e-05,1e-05,-3e-05,3,1
14589,-0.00015,-3e-05,-2e-05,-5e-05,-0.00016,-3e-05,1e-05,-3e-05,3,1
14590,-0.00015,-3e-05,-2e-05,-5e-05,-0.00016,-3e-05,1e-05,-3e-05,3,1
14591,-1e-05,-4e-05,-0.00013,-9e-05,-0.00017,-0.00012,2e-05,-2e-05,3,1
14592,-1e-05,-4e-05,-0.00013,-9e-05,-0.00017,-0.00012,2e-05,-2e-05,3,1
14593,9e-05,6e-05,3e-05,-2e-05,-5e-05,-0.00013,1e-05,0.00022,3,1
14594,9e-05,6e-05,3e-05,-2e-05,-5e-05,-0.00013,1e-05,0.00022,3,1
14595,9e-05,6e-05,3e-05,-2e-05,-5e-05,-0.00013,1e-05,0.00022,3,1
14596,9e-05,6e-05,3e-05,-2e-05,-5e-05,-0.00013,1e-05,0.00022,3,1
14597,9e-05,6e-05,3e-05,-2e-05,-5e-05,-0.00013,1e-05,0.00022,3,1
14598,9e-05,6e-05,3e-05,-2e-05,-5e-05,-0.00013,1e-05,0.00022,3,1
14599,9e-05,6e-05,3e-05,-2e-05,-5e-05,-0.00013,1e-05,0.00022,3,1
14600,9e-05,6e-05,3e-05,-2e-05,-5e-05,-0.00013,1e-05,0.00022,3,1
14601,9e-05,6e-05,3e-05,-2e-05,-5e-05,-0.00013,1e-05,0.00022,3,1
14602,9e-05,6e-05,3e-05,-2e-05,-5e-05,-0.00013,1e-05,0.00022,3,1
14603,9e-05,6e-05,3e-05,-2e-05,-5e-05,-0.00013,1e-05,0.00022,3,1
14604,9e-05,6e-05,3e-05,-2e-05,-5e-05,-0.00013,1e-05,0.00022,3,1
14605,9e-05,6e-05,3e-05,-2e-05,-5e-05,-0.00013,1e-05,0.00022,3,1
14606,9e-05,6e-05,3e-05,-2e-05,-5e-05,-0.00013,1e-05,0.00022,3,1
14607,9e-05,6e-05,3e-05,-2e-05,-5e-05,-0.00013,1e-05,0.00022,3,1
14608,9e-05,6e-05,3e-05,-2e-05,-5e-05,-0.00013,1e-05,0.00022,3,1
14609,9e-05,6e-05,3e-05,-2e-05,-5e-05,-0.00013,1e-05,0.00022,3,1
14610,9e-05,6e-05,3e-05,-2e-05,-5e-05,-0.00013,1e-05,0.00022,3,1
14611,9e-05,6e-05,3e-05,-2e-05,-5e-05,-0.00013,1e-05,0.00022,3,1
14612,9e-05,6e-05,3e-05,-2e-05,-5e-05,-0.00013,1e-05,0.00022,3,1
14613,-0.00026,0,9e-05,0,-9e-05,0,5e-05,-0.00017,3,1
14614,-0.00026,0,9e-05,0,-9e-05,0,5e-05,-0.00017,3,1
14615,-0.00011,-5e-05,-8e-05,-5e-05,-5e-05,5e-05,0,-8e-05,3,1
14616,-0.00011,-5e-05,-8e-05,-5e-05,-5e-05,5e-05,0,-8e-05,3,1
14617,-0.00011,-5e-05,-8e-05,-5e-05,-5e-05,5e-05,0,-8e-05,3,1
14618,-0.00011,-5e-05,-8e-05,-5e-05,-5e-05,5e-05,0,-8e-05,3,1
14619,-0.00011,-5e-05,-8e-05,-5e-05,-5e-05,5e-05,0,-8e-05,3,1
14620,-0.00011,-5e-05,-8e-05,-5e-05,-5e-05,5e-05,0,-8e-05,3,1
14621,-0.00011,-5e-05,-8e-05,-5e-05,-5e-05,5e-05,0,-8e-05,3,1
14622,-0.00011,-5e-05,-8e-05,-5e-05,-5e-05,5e-05,0,-8e-05,3,1
14623,-0.00011,-5e-05,-8e-05,-5e-05,-5e-05,5e-05,0,-8e-05,3,1
14624,-0.00011,-5e-05,-8e-05,-5e-05,-5e-05,5e-05,0,-8e-05,3,1
14625,-0.00011,-5e-05,-8e-05,-5e-05,-5e-05,5e-05,0,-8e-05,3,1
14626,-0.00011,-5e-05,-8e-05,-5e-05,-5e-05,5e-05,0,-8e-05,3,1
14627,-0.00011,-5e-05,-8e-05,-5e-05,-5e-05,5e-05,0,-8e-05,3,1
14628,-0.00011,-5e-05,-8e-05,-5e-05,-5e-05,5e-05,0,-8e-05,3,1
14629,-0.00011,-5e-05,-8e-05,-5e-05,-5e-05,5e-05,0,-8e-05,3,1
14630,-0.00011,-5e-05,-8e-05,-5e-05,-5e-05,5e-05,0,-8e-05,3,1
14631,-0.00011,-5e-05,-8e-05,-5e-05,-5e-05,5e-05,0,-8e-05,3,1
14632,-0.00011,-5e-05,-8e-05,-5e-05,-5e-05,5e-05,0,-8e-05,3,1
14633,-0.00011,-5e-05,-8e-05,-5e-05,-5e-05,5e-05,0,-8e-05,3,1
14634,-0.00011,-5e-05,-8e-05,-5e-05,-5e-05,5e-05,0,-8e-05,3,1
14635,3e-05,6e-05,4e-05,0,0,3e-05,3e-05,3e-05,3,1
14636,-0.00014,-6e-05,-3e-05,-5e-05,-2e-05,2e-05,7e-05,-3e-05,3,1
14638,-0.00014,-6e-05,-3e-05,-5e-05,-2e-05,2e-05,7e-05,-3e-05,3,1
14639,-0.00014,-6e-05,-3e-05,-5e-05,-2e-05,2e-05,7e-05,-3e-05,3,1
14640,-0.00014,-6e-05,-3e-05,-5e-05,-2e-05,2e-05,7e-05,-3e-05,3,1
14641,-0.00014,-6e-05,-3e-05,-5e-05,-2e-05,2e-05,7e-05,-3e-05,3,1
14642,-4e-05,-0.0002,-1e-05,2e-05,8e-05,-6e-05,-5e-05,-0.00023,3,1
14643,-4e-05,-0.0002,-1e-05,2e-05,8e-05,-6e-05,-5e-05,-0.00023,3,1
14644,-4e-05,-0.0002,-1e-05,2e-05,8e-05,-6e-05,-5e-05,-0.00023,3,1
14645,-4e-05,-0.0002,-1e-05,2e-05,8e-05,-6e-05,-5e-05,-0.00023,3,1
14646,-4e-05,-0.0002,-1e-05,2e-05,8e-05,-6e-05,-5e-05,-0.00023,3,1
14647,-4e-05,-0.0002,-1e-05,2e-05,8e-05,-6e-05,-5e-05,-0.00023,3,1
14648,-4e-05,-0.0002,-1e-05,2e-05,8e-05,-6e-05,-5e-05,-0.00023,3,1
14649,-4e-05,-0.0002,-1e-05,2e-05,8e-05,-6e-05,-5e-05,-0.00023,3,1
14650,-4e-05,-0.0002,-1e-05,2e-05,8e-05,-6e-05,-5e-05,-0.00023,3,1
14651,-4e-05,-0.0002,-1e-05,2e-05,8e-05,-6e-05,-5e-05,-0.00023,3,1
14652,-4e-05,-0.0002,-1e-05,2e-05,8e-05,-6e-05,-5e-05,-0.00023,3,1
14653,-4e-05,-0.0002,-1e-05,2e-05,8e-05,-6e-05,-5e-05,-0.00023,3,1
14654,-4e-05,-0.0002,-1e-05,2e-05,8e-05,-6e-05,-5e-05,-0.00023,3,1
14655,-4e-05,-0.0002,-1e-05,2e-05,8e-05,-6e-05,-5e-05,-0.00023,3,1
14656,-4e-05,-0.0002,-1e-05,2e-05,8e-05,-6e-05,-5e-05,-0.00023,3,1
14657,-4e-05,-0.0002,-1e-05,2e-05,8e-05,-6e-05,-5e-05,-0.00023,3,1
14658,-4e-05,-0.0002,-1e-05,2e-05,8e-05,-6e-05,-5e-05,-0.00023,3,1
14659,-4e-05,-0.0002,-1e-05,2e-05,8e-05,-6e-05,-5e-05,-0.00023,3,1
14660,-4e-05,-0.0002,-1e-05,2e-05,8e-05,-6e-05,-5e-05,-0.00023,3,1
14661,-4e-05,-0.0002,-1e-05,2e-05,8e-05,-6e-05,-5e-05,-0.00023,3,1
14662,-4e-05,-0.0002,-1e-05,2e-05,8e-05,-6e-05,-5e-05,-0.00023,3,1
14663,-4e-05,-0.0002,-1e-05,2e-05,8e-05,-6e-05,-5e-05,-0.00023,3,1
14664,-4e-05,-0.0002,-1e-05,2e-05,8e-05,-6e-05,-5e-05,-0.00023,3,1
14665,-0.0001,4e-05,-1e-05,-3e-05,-8e-05,-2e-05,0.0002,0.00019,3,1
14666,7e-05,-3e-05,2e-05,3e-05,0.00012,2e-05,0,2e-05,3,1
14667,-0.00015,-0.00011,-6e-05,0,5e-05,2e-05,-0.00011,-0.00013,3,1
14668,-0.00015,-0.00011,-6e-05,0,5e-05,2e-05,-0.00011,-0.00013,3,1
14669,-0.00015,-0.00011,-6e-05,0,5e-05,2e-05,-0.00011,-0.00013,3,1
14670,-0.00015,-0.00011,-6e-05,0,5e-05,2e-05,-0.00011,-0.00013,3,1
14671,-0.00015,-0.00011,-6e-05,0,5e-05,2e-05,-0.00011,-0.00013,3,1
14672,-0.00015,-0.00011,-6e-05,0,5e-05,2e-05,-0.00011,-0.00013,3,1
14673,-0.00015,-0.00011,-6e-05,0,5e-05,2e-05,-0.00011,-0.00013,3,1
14674,-0.00015,-0.00011,-6e-05,0,5e-05,2e-05,-0.00011,-0.00013,3,1
14675,-0.00015,-0.00011,-6e-05,0,5e-05,2e-05,-0.00011,-0.00013,3,1
14676,-0.00015,-0.00011,-6e-05,0,5e-05,2e-05,-0.00011,-0.00013,3,1
14677,-0.00015,-0.00011,-6e-05,0,5e-05,2e-05,-0.00011,-0.00013,3,1
14678,-0.00015,-0.00011,-6e-05,0,5e-05,2e-05,-0.00011,-0.00013,3,1
14679,-0.00015,-0.00011,-6e-05,0,5e-05,2e-05,-0.00011,-0.00013,3,1
14680,-0.00015,-0.00011,-6e-05,0,5e-05,2e-05,-0.00011,-0.00013,3,1
14681,-0.00015,-0.00011,-6e-05,0,5e-05,2e-05,-0.00011,-0.00013,3,1
14682,-0.00015,-0.00011,-6e-05,0,5e-05,2e-05,-0.00011,-0.00013,3,1
14683,-0.00015,-0.00011,-6e-05,0,5e-05,2e-05,-0.00011,-0.00013,3,1
14684,-0.00015,-0.00011,-6e-05,0,5e-05,2e-05,-0.00011,-0.00013,3,1
14685,-0.00015,-0.00011,-6e-05,0,5e-05,2e-05,-0.00011,-0.00013,3,1
14686,-0.00015,-0.00011,-6e-05,0,5e-05,2e-05,-0.00011,-0.00013,3,1
14688,7e-05,5e-05,-1e-05,-6e-05,-0.00018,-0.00011,-6e-05,4e-05,3,1
14689,0.00013,7e-05,-5e-05,5e-05,0.00014,6e-05,-8e-05,-7e-05,3,1
14690,0,-1e-05,-4e-05,-7e-05,-4e-05,4e-05,-2e-05,1e-05,3,1
14691,0,-1e-05,-4e-05,-7e-05,-4e-05,4e-05,-2e-05,1e-05,3,1
14692,0,-1e-05,-4e-05,-7e-05,-4e-05,4e-05,-2e-05,1e-05,3,1
14693,0,-1e-05,-4e-05,-7e-05,-4e-05,4e-05,-2e-05,1e-05,3,1
14694,0,-1e-05,-4e-05,-7e-05,-4e-05,4e-05,-2e-05,1e-05,3,1
14695,0,-1e-05,-4e-05,-7e-05,-4e-05,4e-05,-2e-05,1e-05,3,1
14696,0,-1e-05,-4e-05,-7e-05,-4e-05,4e-05,-2e-05,1e-05,3,1
14697,0,-1e-05,-4e-05,-7e-05,-4e-05,4e-05,-2e-05,1e-05,3,1
14698,0,-1e-05,-4e-05,-7e-05,-4e-05,4e-05,-2e-05,1e-05,3,1
14699,0,-1e-05,-4e-05,-7e-05,-4e-05,4e-05,-2e-05,1e-05,3,1
14700,0,-1e-05,-4e-05,-7e-05,-4e-05,4e-05,-2e-05,1e-05,3,1
14701,0,-1e-05,-4e-05,-7e-05,-4e-05,4e-05,-2e-05,1e-05,3,1
14702,0,-1e-05,-4e-05,-7e-05,-4e-05,4e-05,-2e-05,1e-05,3,1
14703,0,-1e-05,-4e-05,-7e-05,-4e-05,4e-05,-2e-05,1e-05,3,1
14704,0,-1e-05,-4e-05,-7e-05,-4e-05,4e-05,-2e-05,1e-05,3,1
14705,0,-1e-05,-4e-05,-7e-05,-4e-05,4e-05,-2e-05,1e-05,3,1
14706,0,-1e-05,-4e-05,-7e-05,-4e-05,4e-05,-2e-05,1e-05,3,1
14707,0,-1e-05,-4e-05,-7e-05,-4e-05,4e-05,-2e-05,1e-05,3,1
14708,0,-1e-05,-4e-05,-7e-05,-4e-05,4e-05,-2e-05,1e-05,3,1
14709,0,-1e-05,-4e-05,-7e-05,-4e-05,4e-05,-2e-05,1e-05,3,1
14710,0,-1e-05,-4e-05,-7e-05,-4e-05,4e-05,-2e-05,1e-05,3,1
14711,0.00018,0.00029,3e-05,2e-05,0.0001,-1e-05,1e-05,-9e-05,3,1
14712,7e-05,0.00011,-0.0001,-4e-05,-3e-05,-2e-05,5e-05,0.00019,3,1
14713,7e-05,0.00011,-0.0001,-4e-05,-3e-05,-2e-05,5e-05,0.00019,3,1
14714,7e-05,0.00011,-0.0001,-4e-05,-3e-05,-2e-05,5e-05,0.00019,3,1
14715,7e-05,0.00011,-0.0001,-4e-05,-3e-05,-2e-05,5e-05,0.00019,3,1
14716,7e-05,0.00011,-0.0001,-4e-05,-3e-05,-2e-05,5e-05,0.00019,3,1
14717,7e-05,0.00011,-0.0001,-4e-05,-3e-05,-2e-05,5e-05,0.00019,3,1
14718,7e-05,0.00011,-0.0001,-4e-05,-3e-05,-2e-05,5e-05,0.00019,3,1
14719,7e-05,0.00011,-0.0001,-4e-05,-3e-05,-2e-05,5e-05,0.00019,3,1
14720,7e-05,0.00011,-0.0001,-4e-05,-3e-05,-2e-05,5e-05,0.00019,3,1
14721,7e-05,0.00011,-0.0001,-4e-05,-3e-05,-2e-05,5e-05,0.00019,3,1
14722,7e-05,0.00011,-0.0001,-4e-05,-3e-05,-2e-05,5e-05,0.00019,3,1
14723,7e-05,0.00011,-0.0001,-4e-05,-3e-05,-2e-05,5e-05,0.00019,3,1
14724,7e-05,0.00011,-0.0001,-4e-05,-3e-05,-2e-05,5e-05,0.00019,3,1
14725,7e-05,0.00011,-0.0001,-4e-05,-3e-05,-2e-05,5e-05,0.00019,3,1
14726,7e-05,0.00011,-0.0001,-4e-05,-3e-05,-2e-05,5e-05,0.00019,3,1
14727,7e-05,0.00011,-0.0001,-4e-05,-3e-05,-2e-05,5e-05,0.00019,3,1
14728,7e-05,0.00011,-0.0001,-4e-05,-3e-05,-2e-05,5e-05,0.00019,3,1
14729,7e-05,0.00011,-0.0001,-4e-05,-3e-05,-2e-05,5e-05,0.00019,3,1
14730,7e-05,0.00011,-0.0001,-4e-05,-3e-05,-2e-05,5e-05,0.00019,3,1
14731,7e-05,0.00011,-0.0001,-4e-05,-3e-05,-2e-05,5e-05,0.00019,3,1
14732,7e-05,0.00011,-0.0001,-4e-05,-3e-05,-2e-05,5e-05,0.00019,3,1
14733,-4e-05,-5e-05,-4e-05,1e-05,-4e-05,-5e-05,0,2e-05,3,1
14734,-4e-05,-5e-05,-4e-05,1e-05,-4e-05,-5e-05,0,2e-05,3,1
14735,-4e-05,-5e-05,-4e-05,1e-05,-4e-05,-5e-05,0,2e-05,3,1
14736,-4e-05,-5e-05,-4e-05,1e-05,-4e-05,-5e-05,0,2e-05,3,1
14738,-4e-05,-5e-05,-4e-05,1e-05,-4e-05,-5e-05,0,2e-05,3,1
14739,-4e-05,-5e-05,-4e-05,1e-05,-4e-05,-5e-05,0,2e-05,3,1
14740,-1e-05,0.00023,0.0001,5e-05,7e-05,4e-05,1e-05,-0.00012,3,1
14741,1e-05,0,1e-05,-2e-05,-5e-05,0,3e-05,-0.00012,3,1
14742,1e-05,0,1e-05,-2e-05,-5e-05,0,3e-05,-0.00012,3,1
14743,1e-05,0,1e-05,-2e-05,-5e-05,0,3e-05,-0.00012,3,1
14744,1e-05,0,1e-05,-2e-05,-5e-05,0,3e-05,-0.00012,3,1
14745,1e-05,0,1e-05,-2e-05,-5e-05,0,3e-05,-0.00012,3,1
14746,1e-05,0,1e-05,-2e-05,-5e-05,0,3e-05,-0.00012,3,1
14747,1e-05,0,1e-05,-2e-05,-5e-05,0,3e-05,-0.00012,3,1
14748,1e-05,0,1e-05,-2e-05,-5e-05,0,3e-05,-0.00012,3,1
14749,1e-05,0,1e-05,-2e-05,-5e-05,0,3e-05,-0.00012,3,1
14750,1e-05,0,1e-05,-2e-05,-5e-05,0,3e-05,-0.00012,3,1
14751,1e-05,0,1e-05,-2e-05,-5e-05,0,3e-05,-0.00012,3,1
14752,1e-05,0,1e-05,-2e-05,-5e-05,0,3e-05,-0.00012,3,1
14753,1e-05,0,1e-05,-2e-05,-5e-05,0,3e-05,-0.00012,3,1
14754,1e-05,0,1e-05,-2e-05,-5e-05,0,3e-05,-0.00012,3,1
14755,1e-05,0,1e-05,-2e-05,-5e-05,0,3e-05,-0.00012,3,1
14756,1e-05,0,1e-05,-2e-05,-5e-05,0,3e-05,-0.00012,3,1
14757,1e-05,0,1e-05,-2e-05,-5e-05,0,3e-05,-0.00012,3,1
14758,1e-05,0,1e-05,-2e-05,-5e-05,0,3e-05,-0.00012,3,1
14759,1e-05,0,1e-05,-2e-05,-5e-05,0,3e-05,-0.00012,3,1
14760,1e-05,0,1e-05,-2e-05,-5e-05,0,3e-05,-0.00012,3,1
14761,1e-05,0,1e-05,-2e-05,-5e-05,0,3e-05,-0.00012,3,1
14762,1e-05,0,1e-05,-2e-05,-5e-05,0,3e-05,-0.00012,3,1
14763,-6e-05,-3e-05,-2e-05,8e-05,0.00017,0.00013,-3e-05,5e-05,3,1
14764,-6e-05,-3e-05,-2e-05,8e-05,0.00017,0.00013,-3e-05,5e-05,3,1
14765,0.00018,0.00013,0.00011,3e-05,-1e-05,1e-05,-5e-05,6e-05,3,1
14766,0.00018,0.00013,0.00011,3e-05,-1e-05,1e-05,-5e-05,6e-05,3,1
14767,0.00018,0.00013,0.00011,3e-05,-1e-05,1e-05,-5e-05,6e-05,3,1
14769,0.00018,0.00013,0.00011,3e-05,-1e-05,1e-05,-5e-05,6e-05,3,1
14770,0.00018,0.00013,0.00011,3e-05,-1e-05,1e-05,-5e-05,6e-05,3,1
14771,0.00018,0.00013,0.00011,3e-05,-1e-05,1e-05,-5e-05,6e-05,3,1
14772,0.00018,0.00013,0.00011,3e-05,-1e-05,1e-05,-5e-05,6e-05,3,1
14773,0.00018,0.00013,0.00011,3e-05,-1e-05,1e-05,-5e-05,6e-05,3,1
14774,0.00018,0.00013,0.00011,3e-05,-1e-05,1e-05,-5e-05,6e-05,3,1
14775,0.00018,0.00013,0.00011,3e-05,-1e-05,1e-05,-5e-05,6e-05,3,1
14776,0.00018,0.00013,0.00011,3e-05,-1e-05,1e-05,-5e-05,6e-05,3,1
14777,0.00018,0.00013,0.00011,3e-05,-1e-05,1e-05,-5e-05,6e-05,3,1
14778,0.00018,0.00013,0.00011,3e-05,-1e-05,1e-05,-5e-05,6e-05,3,1
14779,0.00018,0.00013,0.00011,3e-05,-1e-05,1e-05,-5e-05,6e-05,3,1
14780,0.00018,0.00013,0.00011,3e-05,-1e-05,1e-05,-5e-05,6e-05,3,1
14781,0.00018,0.00013,0.00011,3e-05,-1e-05,1e-05,-5e-05,6e-05,3,1
14782,0.00018,0.00013,0.00011,3e-05,-1e-05,1e-05,-5e-05,6e-05,3,1
14783,0.00018,0.00013,0.00011,3e-05,-1e-05,1e-05,-5e-05,6e-05,3,1
14784,0.00018,0.00013,0.00011,3e-05,-1e-05,1e-05,-5e-05,6e-05,3,1
14785,-8e-05,-0.00022,-0.00017,-0.0001,-0.00016,-8e-05,-0.0001,-0.00017,3,1
14786,-8e-05,-0.00022,-0.00017,-0.0001,-0.00016,-8e-05,-0.0001,-0.00017,3,1
14788,-1e-05,0.00024,9e-05,1e-05,1e-05,-5e-05,-7e-05,-0.00018,3,1
14789,-1e-05,0.00024,9e-05,1e-05,1e-05,-5e-05,-7e-05,-0.00018,3,1
14790,-1e-05,0.00024,9e-05,1e-05,1e-05,-5e-05,-7e-05,-0.00018,3,1
14791,-1e-05,0.00024,9e-05,1e-05,1e-05,-5e-05,-7e-05,-0.00018,3,1
14792,-1e-05,0.00024,9e-05,1e-05,1e-05,-5e-05,-7e-05,-0.00018,3,1
14793,-1e-05,0.00024,9e-05,1e-05,1e-05,-5e-05,-7e-05,-0.00018,3,1
14794,-1e-05,0.00024,9e-05,1e-05,1e-05,-5e-05,-7e-05,-0.00018,3,1
14795,-1e-05,0.00024,9e-05,1e-05,1e-05,-5e-05,-7e-05,-0.00018,3,1
14796,-1e-05,0.00024,9e-05,1e-05,1e-05,-5e-05,-7e-05,-0.00018,3,1
14797,-1e-05,0.00024,9e-05,1e-05,1e-05,-5e-05,-7e-05,-0.00018,3,1
14798,-1e-05,0.00024,9e-05,1e-05,1e-05,-5e-05,-7e-05,-0.00018,3,1
14799,-1e-05,0.00024,9e-05,1e-05,1e-05,-5e-05,-7e-05,-0.00018,3,1
14800,-1e-05,0.00024,9e-05,1e-05,1e-05,-5e-05,-7e-05,-0.00018,3,1
14801,-1e-05,0.00024,9e-05,1e-05,1e-05,-5e-05,-7e-05,-0.00018,3,1
14802,-1e-05,0.00024,9e-05,1e-05,1e-05,-5e-05,-7e-05,-0.00018,3,1
14803,-1e-05,0.00024,9e-05,1e-05,1e-05,-5e-05,-7e-05,-0.00018,3,1
14804,-1e-05,0.00024,9e-05,1e-05,1e-05,-5e-05,-7e-05,-0.00018,3,1
14805,-1e-05,0.00024,9e-05,1e-05,1e-05,-5e-05,-7e-05,-0.00018,3,1
14806,-1e-05,0.00024,9e-05,1e-05,1e-05,-5e-05,-7e-05,-0.00018,3,1
14807,-0.00024,-0.00029,0,0.0002,0.00056,0.00031,9e-05,-0.00018,3,1
14808,-0.00024,-0.00029,0,0.0002,0.00056,0.00031,9e-05,-0.00018,3,1
14809,-0.00024,-0.00029,0,0.0002,0.00056,0.00031,9e-05,-0.00018,3,1
14810,-0.00024,-0.00029,0,0.0002,0.00056,0.00031,9e-05,-0.00018,3,1
14811,-0.00024,-0.00029,0,0.0002,0.00056,0.00031,9e-05,-0.00018,3,1
14812,-0.00024,-0.00029,0,0.0002,0.00056,0.00031,9e-05,-0.00018,3,1
14813,-0.00024,-0.00029,0,0.0002,0.00056,0.00031,9e-05,-0.00018,3,1
14814,-0.00024,-0.00029,0,0.0002,0.00056,0.00031,9e-05,-0.00018,3,1
14815,-0.00024,-0.00029,0,0.0002,0.00056,0.00031,9e-05,-0.00018,3,1
14816,-4e-05,6e-05,2e-05,-1e-05,0,-4e-05,6e-05,4e-05,3,1
14817,-4e-05,6e-05,2e-05,-1e-05,0,-4e-05,6e-05,4e-05,3,1
14818,-4e-05,6e-05,2e-05,-1e-05,0,-4e-05,6e-05,4e-05,3,1
14819,-4e-05,6e-05,2e-05,-1e-05,0,-4e-05,6e-05,4e-05,3,1
14820,-4e-05,6e-05,2e-05,-1e-05,0,-4e-05,6e-05,4e-05,3,1
14821,-4e-05,6e-05,2e-05,-1e-05,0,-4e-05,6e-05,4e-05,3,1
14822,-4e-05,6e-05,2e-05,-1e-05,0,-4e-05,6e-05,4e-05,3,1
14823,-4e-05,6e-05,2e-05,-1e-05,0,-4e-05,6e-05,4e-05,3,1
14824,-4e-05,6e-05,2e-05,-1e-05,0,-4e-05,6e-05,4e-05,3,1
14825,-4e-05,6e-05,2e-05,-1e-05,0,-4e-05,6e-05,4e-05,3,1
14826,-4e-05,6e-05,2e-05,-1e-05,0,-4e-05,6e-05,4e-05,3,1
14827,-4e-05,6e-05,2e-05,-1e-05,0,-4e-05,6e-05,4e-05,3,1
14828,-4e-05,6e-05,2e-05,-1e-05,0,-4e-05,6e-05,4e-05,3,1
14829,-4e-05,6e-05,2e-05,-1e-05,0,-4e-05,6e-05,4e-05,3,1
14830,-4e-05,6e-05,2e-05,-1e-05,0,-4e-05,6e-05,4e-05,3,1
14831,-4e-05,6e-05,2e-05,-1e-05,0,-4e-05,6e-05,4e-05,3,1
14832,-4e-05,6e-05,2e-05,-1e-05,0,-4e-05,6e-05,4e-05,3,1
14833,-4e-05,6e-05,2e-05,-1e-05,0,-4e-05,6e-05,4e-05,3,1
14834,-4e-05,6e-05,2e-05,-1e-05,0,-4e-05,6e-05,4e-05,3,1
14835,-4e-05,6e-05,2e-05,-1e-05,0,-4e-05,6e-05,4e-05,3,1
14836,-4e-05,6e-05,2e-05,-1e-05,0,-4e-05,6e-05,4e-05,3,1
14838,-4e-05,6e-05,2e-05,-1e-05,0,-4e-05,6e-05,4e-05,3,1
14839,-7e-05,-0.00012,-9e-05,-0.00015,-0.0002,-0.00014,-0.00011,-8e-05,3,1
14840,-7e-05,-0.00012,-9e-05,-0.00015,-0.0002,-0.00014,-0.00011,-8e-05,3,1
