10351,-0.00013,-1e-05,-2e-05,-3e-05,-4e-05,-0.00034,-0.00014,-0.00012,3,10
10353,-0.00013,-1e-05,-2e-05,-3e-05,-4e-05,-0.00034,-0.00014,-0.00012,3,10
10354,-0.00013,-1e-05,-2e-05,-3e-05,-4e-05,-0.00034,-0.00014,-0.00012,3,10
10355,-0.00013,-1e-05,-2e-05,-3e-05,-4e-05,-0.00034,-0.00014,-0.00012,3,10
10356,-0.00013,-1e-05,-2e-05,-3e-05,-4e-05,-0.00034,-0.00014,-0.00012,3,10
10357,-0.00013,-1e-05,-2e-05,-3e-05,-4e-05,-0.00034,-0.00014,-0.00012,3,10
10358,-0.00013,-1e-05,-2e-05,-3e-05,-4e-05,-0.00034,-0.00014,-0.00012,3,10
10359,-0.00013,-1e-05,-2e-05,-3e-05,-4e-05,-0.00034,-0.00014,-0.00012,3,10
10360,-0.00013,-1e-05,-2e-05,-3e-05,-4e-05,-0.00034,-0.00014,-0.00012,3,10
10361,-0.00013,-1e-05,-2e-05,-3e-05,-4e-05,-0.00034,-0.00014,-0.00012,3,10
10362,-0.00013,-1e-05,-2e-05,-3e-05,-4e-05,-0.00034,-0.00014,-0.00012,3,10
10363,-0.00013,-1e-05,-2e-05,-3e-05,-4e-05,-0.00034,-0.00014,-0.00012,3,10
10364,-1e-05,7e-05,6e-05,0.00011,0.00014,0.00025,2e-05,-4e-05,3,10
10365,-3e-05,1e-05,-2e-05,-0.00011,-0.00015,-0.0003,-4e-05,-8e-05,3,10
10366,-3e-05,1e-05,-2e-05,-0.00011,-0.00015,-0.0003,-4e-05,-8e-05,3,10
10367,-3e-05,1e-05,-2e-05,-0.00011,-0.00015,-0.0003,-4e-05,-8e-05,3,10
10368,-3e-05,1e-05,-2e-05,-0.00011,-0.00015,-0.0003,-4e-05,-8e-05,3,10
10369,-3e-05,1e-05,-2e-05,-0.00011,-0.00015,-0.0003,-4e-05,-8e-05,3,10
10370,-3e-05,1e-05,-2e-05,-0.00011,-0.00015,-0.0003,-4e-05,-8e-05,3,10
10371,-3e-05,1e-05,-2e-05,-0.00011,-0.00015,-0.0003,-4e-05,-8e-05,3,10
10372,-3e-05,1e-05,-2e-05,-0.00011,-0.00015,-0.0003,-4e-05,-8e-05,3,10
10373,-3e-05,1e-05,-2e-05,-0.00011,-0.00015,-0.0003,-4e-05,-8e-05,3,10
10374,-3e-05,1e-05,-2e-05,-0.00011,-0.00015,-0.0003,-4e-05,-8e-05,3,10
10375,-3e-05,1e-05,-2e-05,-0.00011,-0.00015,-0.0003,-4e-05,-8e-05,3,10
10376,-3e-05,1e-05,-2e-05,-0.00011,-0.00015,-0.0003,-4e-05,-8e-05,3,10
10377,-3e-05,1e-05,-2e-05,-0.00011,-0.00015,-0.0003,-4e-05,-8e-05,3,10
10378,3e-05,-4e-05,7e-05,0.00015,0.00013,0.00012,0.00014,5e-05,3,10
10379,3e-05,-4e-05,7e-05,0.00015,0.00013,0.00012,0.00014,5e-05,3,10
10380,3e-05,-4e-05,7e-05,0.00015,0.00013,0.00012,0.00014,5e-05,3,10
10381,3e-05,-4e-05,7e-05,0.00015,0.00013,0.00012,0.00014,5e-05,3,10
10382,3e-05,-4e-05,7e-05,0.00015,0.00013,0.00012,0.00014,5e-05,3,10
10383,3e-05,-4e-05,7e-05,0.00015,0.00013,0.00012,0.00014,5e-05,3,10
10384,3e-05,-4e-05,7e-05,0.00015,0.00013,0.00012,0.00014,5e-05,3,10
10385,3e-05,-4e-05,7e-05,0.00015,0.00013,0.00012,0.00014,5e-05,3,10
10386,2e-05,-0.00024,-2e-05,-0.0001,-0.0003,1e-05,-2e-05,-3e-05,3,10
10388,2e-05,-0.00024,-2e-05,-0.0001,-0.0003,1e-05,-2e-05,-3e-05,3,10
10389,2e-05,-0.00024,-2e-05,-0.0001,-0.0003,1e-05,-2e-05,-3e-05,3,10
10390,2e-05,-0.00024,-2e-05,-0.0001,-0.0003,1e-05,-2e-05,-3e-05,3,10
10391,2e-05,-0.00024,-2e-05,-0.0001,-0.0003,1e-05,-2e-05,-3e-05,3,10
10392,2e-05,-0.00024,-2e-05,-0.0001,-0.0003,1e-05,-2e-05,-3e-05,3,10
10393,2e-05,-0.00024,-2e-05,-0.0001,-0.0003,1e-05,-2e-05,-3e-05,3,10
10394,2e-05,-0.00024,-2e-05,-0.0001,-0.0003,1e-05,-2e-05,-3e-05,3,10
10395,2e-05,-0.00024,-2e-05,-0.0001,-0.0003,1e-05,-2e-05,-3e-05,3,10
10396,2e-05,-0.00024,-2e-05,-0.0001,-0.0003,1e-05,-2e-05,-3e-05,3,10
10397,2e-05,-0.00024,-2e-05,-0.0001,-0.0003,1e-05,-2e-05,-3e-05,3,10
10398,2e-05,-0.00024,-2e-05,-0.0001,-0.0003,1e-05,-2e-05,-3e-05,3,10
10399,2e-05,-0.00024,-2e-05,-0.0001,-0.0003,1e-05,-2e-05,-3e-05,3,10
10400,2e-05,-0.00024,-2e-05,-0.0001,-0.0003,1e-05,-2e-05,-3e-05,3,10
10401,0.00026,-7e-05,2e-05,5e-05,-6e-05,0.0002,2e-05,5e-05,3,10
10402,-0.00021,5e-05,1e-05,-5e-05,-5e-05,-0.00013,-3e-05,-6e-05,3,10
10403,-0.00021,5e-05,1e-05,-5e-05,-5e-05,-0.00013,-3e-05,-6e-05,3,10
10404,-0.00021,5e-05,1e-05,-5e-05,-5e-05,-0.00013,-3e-05,-6e-05,3,10
10405,-0.00021,5e-05,1e-05,-5e-05,-5e-05,-0.00013,-3e-05,-6e-05,3,10
10406,-0.00021,5e-05,1e-05,-5e-05,-5e-05,-0.00013,-3e-05,-6e-05,3,10
10407,-0.00021,5e-05,1e-05,-5e-05,-5e-05,-0.00013,-3e-05,-6e-05,3,10
10408,-0.00021,5e-05,1e-05,-5e-05,-5e-05,-0.00013,-3e-05,-6e-05,3,10
10409,-0.00021,5e-05,1e-05,-5e-05,-5e-05,-0.00013,-3e-05,-6e-05,3,10
10410,-0.00021,5e-05,1e-05,-5e-05,-5e-05,-0.00013,-3e-05,-6e-05,3,10
10411,-0.00021,5e-05,1e-05,-5e-05,-5e-05,-0.00013,-3e-05,-6e-05,3,10
10412,-0.00021,5e-05,1e-05,-5e-05,-5e-05,-0.00013,-3e-05,-6e-05,3,10
10413,-0.00021,5e-05,1e-05,-5e-05,-5e-05,-0.00013,-3e-05,-6e-05,3,10
10414,-0.00021,5e-05,1e-05,-5e-05,-5e-05,-0.00013,-3e-05,-6e-05,3,10
10415,-0.00021,5e-05,1e-05,-5e-05,-5e-05,-0.00013,-3e-05,-6e-05,3,10
10416,-0.00021,5e-05,1e-05,-5e-05,-5e-05,-0.00013,-3e-05,-6e-05,3,10
10417,-0.00021,5e-05,1e-05,-5e-05,-5e-05,-0.00013,-3e-05,-6e-05,3,10
10418,-0.00021,5e-05,1e-05,-5e-05,-5e-05,-0.00013,-3e-05,-6e-05,3,10
10419,-0.00021,5e-05,1e-05,-5e-05,-5e-05,-0.00013,-3e-05,-6e-05,3,10
10420,-0.00021,5e-05,1e-05,-5e-05,-5e-05,-0.00013,-3e-05,-6e-05,3,10
10421,-0.00021,5e-05,1e-05,-5e-05,-5e-05,-0.00013,-3e-05,-6e-05,3,10
10422,-0.00021,5e-05,1e-05,-5e-05,-5e-05,-0.00013,-3e-05,-6e-05,3,10
10423,-0.00021,5e-05,1e-05,-5e-05,-5e-05,-0.00013,-3e-05,-6e-05,3,10
10424,7e-05,-0.00018,-6e-05,-1e-05,-0.00012,1e-05,-6e-05,8e-05,3,10
10425,2e-05,-4e-05,0,-4e-05,2e-05,8e-05,-0.00012,-7e-05,3,10
10426,2e-05,-4e-05,0,-4e-05,2e-05,8e-05,-0.00012,-7e-05,3,10
10427,2e-05,-4e-05,0,-4e-05,2e-05,8e-05,-0.00012,-7e-05,3,10
10428,2e-05,-4e-05,0,-4e-05,2e-05,8e-05,-0.00012,-7e-05,3,10
10429,2e-05,-4e-05,0,-4e-05,2e-05,8e-05,-0.00012,-7e-05,3,10
10430,2e-05,-4e-05,0,-4e-05,2e-05,8e-05,-0.00012,-7e-05,3,10
10431,2e-05,-4e-05,0,-4e-05,2e-05,8e-05,-0.00012,-7e-05,3,10
10432,2e-05,-4e-05,0,-4e-05,2e-05,8e-05,-0.00012,-7e-05,3,10
10433,2e-05,-4e-05,0,-4e-05,2e-05,8e-05,-0.00012,-7e-05,3,10
10434,2e-05,-4e-05,0,-4e-05,2e-05,8e-05,-0.00012,-7e-05,3,10
10435,2e-05,-4e-05,0,-4e-05,2e-05,8e-05,-0.00012,-7e-05,3,10
10436,2e-05,-4e-05,0,-4e-05,2e-05,8e-05,-0.00012,-7e-05,3,10
10438,2e-05,-4e-05,0,-4e-05,2e-05,8e-05,-0.00012,-7e-05,3,10
10439,-4e-05,-0.0001,2e-05,6e-05,0,0.00019,-3e-05,-1e-05,3,10
10440,0.0002,7e-05,-3e-05,-8e-05,-0.00015,-0.00025,4e-05,3e-05,3,10
10441,0.0002,7e-05,-3e-05,-8e-05,-0.00015,-0.00025,4e-05,3e-05,3,10
10442,0.0002,7e-05,-3e-05,-8e-05,-0.00015,-0.00025,4e-05,3e-05,3,10
10443,0.0002,7e-05,-3e-05,-8e-05,-0.00015,-0.00025,4e-05,3e-05,3,10
10444,0.0002,7e-05,-3e-05,-8e-05,-0.00015,-0.00025,4e-05,3e-05,3,10
10445,0.0002,7e-05,-3e-05,-8e-05,-0.00015,-0.00025,4e-05,3e-05,3,10
10446,0.0002,7e-05,-3e-05,-8e-05,-0.00015,-0.00025,4e-05,3e-05,3,10
10447,0.0002,7e-05,-3e-05,-8e-05,-0.00015,-0.00025,4e-05,3e-05,3,10
10448,0.0002,7e-05,-3e-05,-8e-05,-0.00015,-0.00025,4e-05,3e-05,3,10
10449,0.0002,7e-05,-3e-05,-8e-05,-0.00015,-0.00025,4e-05,3e-05,3,10
10450,0.0002,7e-05,-3e-05,-8e-05,-0.00015,-0.00025,4e-05,3e-05,3,10
10451,0.0002,7e-05,-3e-05,-8e-05,-0.00015,-0.00025,4e-05,3e-05,3,10
10452,0.0002,7e-05,-3e-05,-8e-05,-0.00015,-0.00025,4e-05,3e-05,3,10
10453,0.0002,7e-05,-3e-05,-8e-05,-0.00015,-0.00025,4e-05,3e-05,3,10
10454,0.0002,7e-05,-3e-05,-8e-05,-0.00015,-0.00025,4e-05,3e-05,3,10
10455,0.0002,7e-05,-3e-05,-8e-05,-0.00015,-0.00025,4e-05,3e-05,3,10
10456,0.0002,7e-05,-3e-05,-8e-05,-0.00015,-0.00025,4e-05,3e-05,3,10
10457,0.0002,7e-05,-3e-05,-8e-05,-0.00015,-0.00025,4e-05,3e-05,3,10
10458,0.0002,7e-05,-3e-05,-8e-05,-0.00015,-0.00025,4e-05,3e-05,3,10
10459,0.0002,7e-05,-3e-05,-8e-05,-0.00015,-0.00025,4e-05,3e-05,3,10
10460,0.0002,7e-05,-3e-05,-8e-05,-0.00015,-0.00025,4e-05,3e-05,3,10
10461,-0.00023,9e-05,-8e-05,-0.00027,-0.00017,-0.0002,2e-05,-9e-05,3,10
10462,-8e-05,8e-05,1e-05,4e-05,0.0001,-3e-05,-6e-05,-2e-05,3,10
10463,-8e-05,8e-05,1e-05,4e-05,0.0001,-3e-05,-6e-05,-2e-05,3,10
10464,-8e-05,8e-05,1e-05,4e-05,0.0001,-3e-05,-6e-05,-2e-05,3,10
10465,-8e-05,8e-05,1e-05,4e-05,0.0001,-3e-05,-6e-05,-2e-05,3,10
10466,-8e-05,8e-05,1e-05,4e-05,0.0001,-3e-05,-6e-05,-2e-05,3,10
10467,-8e-05,8e-05,1e-05,4e-05,0.0001,-3e-05,-6e-05,-2e-05,3,10
10468,-8e-05,8e-05,1e-05,4e-05,0.0001,-3e-05,-6e-05,-2e-05,3,10
10469,-8e-05,8e-05,1e-05,4e-05,0.0001,-3e-05,-6e-05,-2e-05,3,10
10470,-8e-05,8e-05,1e-05,4e-05,0.0001,-3e-05,-6e-05,-2e-05,3,10
10471,-8e-05,8e-05,1e-05,4e-05,0.0001,-3e-05,-6e-05,-2e-05,3,10
10472,-8e-05,8e-05,1e-05,4e-05,0.0001,-3e-05,-6e-05,-2e-05,3,10
10473,-8e-05,8e-05,1e-05,4e-05,0.0001,-3e-05,-6e-05,-2e-05,3,10
10474,-8e-05,8e-05,1e-05,4e-05,0.0001,-3e-05,-6e-05,-2e-05,3,10
10475,-8e-05,8e-05,1e-05,4e-05,0.0001,-3e-05,-6e-05,-2e-05,3,10
10476,-8e-05,8e-05,1e-05,4e-05,0.0001,-3e-05,-6e-05,-2e-05,3,10
10477,-8e-05,8e-05,1e-05,4e-05,0.0001,-3e-05,-6e-05,-2e-05,3,10
10478,-8e-05,8e-05,1e-05,4e-05,0.0001,-3e-05,-6e-05,-2e-05,3,10
10479,-8e-05,8e-05,1e-05,4e-05,0.0001,-3e-05,-6e-05,-2e-05,3,10
10480,-8e-05,8e-05,1e-05,4e-05,0.0001,-3e-05,-6e-05,-2e-05,3,10
10481,-8e-05,8e-05,1e-05,4e-05,0.0001,-3e-05,-6e-05,-2e-05,3,10
10482,-8e-05,8e-05,1e-05,4e-05,0.0001,-3e-05,-6e-05,-2e-05,3,10
10483,-8e-05,8e-05,1e-05,4e-05,0.0001,-3e-05,-6e-05,-2e-05,3,10
10484,-8e-05,8e-05,1e-05,4e-05,0.0001,-3e-05,-6e-05,-2e-05,3,10
10485,-8e-05,8e-05,1e-05,4e-05,0.0001,-3e-05,-6e-05,-2e-05,3,10
10486,-8e-05,8e-05,1e-05,4e-05,0.0001,-3e-05,-6e-05,-2e-05,3,10
10488,-8e-05,8e-05,1e-05,4e-05,0.0001,-3e-05,-6e-05,-2e-05,3,10
10489,-8e-05,8e-05,1e-05,4e-05,0.0001,-3e-05,-6e-05,-2e-05,3,10
10490,-8e-05,8e-05,1e-05,4e-05,0.0001,-3e-05,-6e-05,-2e-05,3,10
10491,-8e-05,8e-05,1e-05,4e-05,0.0001,-3e-05,-6e-05,-2e-05,3,10
10492,-0.00017,0.0002,-1e-05,-4e-05,0.00019,-0.00028,-5e-05,-0.00014,3,10
10493,0,0.00028,3e-05,6e-05,8e-05,0.00022,-1e-05,2e-05,3,10
10494,0,0.00028,3e-05,6e-05,8e-05,0.00022,-1e-05,2e-05,3,10
10495,0,0.00028,3e-05,6e-05,8e-05,0.00022,-1e-05,2e-05,3,10
10496,0,0.00028,3e-05,6e-05,8e-05,0.00022,-1e-05,2e-05,3,10
10497,0,0.00028,3e-05,6e-05,8e-05,0.00022,-1e-05,2e-05,3,10
10498,-0.00018,5e-05,3e-05,0.00016,9e-05,0.00017,3e-05,-0.00011,3,10
10499,5e-05,1e-05,0,0.00036,0.00015,0.00026,1e-05,-5e-05,3,10
10500,5e-05,1e-05,0,0.00036,0.00015,0.00026,1e-05,-5e-05,3,10
10501,5e-05,1e-05,0,0.00036,0.00015,0.00026,1e-05,-5e-05,3,10
10502,5e-05,1e-05,0,0.00036,0.00015,0.00026,1e-05,-5e-05,3,10
10504,5e-05,1e-05,0,0.00036,0.00015,0.00026,1e-05,-5e-05,3,10
10505,5e-05,1e-05,0,0.00036,0.00015,0.00026,1e-05,-5e-05,3,10
10506,5e-05,1e-05,0,0.00036,0.00015,0.00026,1e-05,-5e-05,3,10
10507,5e-05,1e-05,0,0.00036,0.00015,0.00026,1e-05,-5e-05,3,10
10508,5e-05,1e-05,0,0.00036,0.00015,0.00026,1e-05,-5e-05,3,10
10509,5e-05,1e-05,0,0.00036,0.00015,0.00026,1e-05,-5e-05,3,10
10510,5e-05,1e-05,0,0.00036,0.00015,0.00026,1e-05,-5e-05,3,10
10511,5e-05,1e-05,0,0.00036,0.00015,0.00026,1e-05,-5e-05,3,10
10512,5e-05,1e-05,0,0.00036,0.00015,0.00026,1e-05,-5e-05,3,10
10513,5e-05,1e-05,0,0.00036,0.00015,0.00026,1e-05,-5e-05,3,10
10514,5e-05,1e-05,0,0.00036,0.00015,0.00026,1e-05,-5e-05,3,10
10515,5e-05,1e-05,0,0.00036,0.00015,0.00026,1e-05,-5e-05,3,10
10516,5e-05,1e-05,0,0.00036,0.00015,0.00026,1e-05,-5e-05,3,10
10517,5e-05,1e-05,0,0.00036,0.00015,0.00026,1e-05,-5e-05,3,10
10518,5e-05,1e-05,0,0.00036,0.00015,0.00026,1e-05,-5e-05,3,10
10519,5e-05,1e-05,0,0.00036,0.00015,0.00026,1e-05,-5e-05,3,10
10520,5e-05,1e-05,0,0.00036,0.00015,0.00026,1e-05,-5e-05,3,10
10521,-3e-05,-6e-05,-5e-05,-0.00013,-0.0002,6e-05,-5e-05,3e-05,3,10
10522,0.00016,-0.00017,-7e-05,-0.00022,-0.00015,0.00021,-1e-05,3e-05,3,10
10523,0.00016,-0.00017,-7e-05,-0.00022,-0.00015,0.00021,-1e-05,3e-05,3,10
10524,0.00016,-0.00017,-7e-05,-0.00022,-0.00015,0.00021,-1e-05,3e-05,3,10
10525,0.00016,-0.00017,-7e-05,-0.00022,-0.00015,0.00021,-1e-05,3e-05,3,10
10526,0.00016,-0.00017,-7e-05,-0.00022,-0.00015,0.00021,-1e-05,3e-05,3,10
10527,0.00016,-0.00017,-7e-05,-0.00022,-0.00015,0.00021,-1e-05,3e-05,3,10
10528,0.00016,-0.00017,-7e-05,-0.00022,-0.00015,0.00021,-1e-05,3e-05,3,10
10529,0.00016,-0.00017,-7e-05,-0.00022,-0.00015,0.00021,-1e-05,3e-05,3,10
10530,0.00016,-0.00017,-7e-05,-0.00022,-0.00015,0.00021,-1e-05,3e-05,3,10
10531,0.00016,-0.00017,-7e-05,-0.00022,-0.00015,0.00021,-1e-05,3e-05,3,10
10532,0.00016,-0.00017,-7e-05,-0.00022,-0.00015,0.00021,-1e-05,3e-05,3,10
10533,0.00016,-0.00017,-7e-05,-0.00022,-0.00015,0.00021,-1e-05,3e-05,3,10
10534,0.00016,-0.00017,-7e-05,-0.00022,-0.00015,0.00021,-1e-05,3e-05,3,10
10535,0.00016,-0.00017,-7e-05,-0.00022,-0.00015,0.00021,-1e-05,3e-05,3,10
10536,0.00016,-0.00017,-7e-05,-0.00022,-0.00015,0.00021,-1e-05,3e-05,3,10
10538,0.00016,-0.00017,-7e-05,-0.00022,-0.00015,0.00021,-1e-05,3e-05,3,10
10539,0.00016,-0.00017,-7e-05,-0.00022,-0.00015,0.00021,-1e-05,3e-05,3,10
10540,0.00016,-0.00017,-7e-05,-0.00022,-0.00015,0.00021,-1e-05,3e-05,3,10
10541,0.00016,-0.00017,-7e-05,-0.00022,-0.00015,0.00021,-1e-05,3e-05,3,10
10542,0.00016,-0.00017,-7e-05,-0.00022,-0.00015,0.00021,-1e-05,3e-05,3,10
10543,0.00016,-0.00017,-7e-05,-0.00022,-0.00015,0.00021,-1e-05,3e-05,3,10
10544,-0.0001,-0.00014,-5e-05,-4e-05,-5e-05,-8e-05,-3e-05,9e-05,3,10
10545,-0.00031,-0.00027,4e-05,1e-05,0,8e-05,-7e-05,-3e-05,3,10
10546,-0.00031,-0.00027,4e-05,1e-05,0,8e-05,-7e-05,-3e-05,3,10
10547,-0.00031,-0.00027,4e-05,1e-05,0,8e-05,-7e-05,-3e-05,3,10
10548,-0.00031,-0.00027,4e-05,1e-05,0,8e-05,-7e-05,-3e-05,3,10
10549,-0.00031,-0.00027,4e-05,1e-05,0,8e-05,-7e-05,-3e-05,3,10
10550,-0.00031,-0.00027,4e-05,1e-05,0,8e-05,-7e-05,-3e-05,3,10
10551,-0.00031,-0.00027,4e-05,1e-05,0,8e-05,-7e-05,-3e-05,3,10
10552,-0.00031,-0.00027,4e-05,1e-05,0,8e-05,-7e-05,-3e-05,3,10
10553,-0.00031,-0.00027,4e-05,1e-05,0,8e-05,-7e-05,-3e-05,3,10
10555,-0.00031,-0.00027,4e-05,1e-05,0,8e-05,-7e-05,-3e-05,3,10
10556,-0.00031,-0.00027,4e-05,1e-05,0,8e-05,-7e-05,-3e-05,3,10
10557,-0.00031,-0.00027,4e-05,1e-05,0,8e-05,-7e-05,-3e-05,3,10
10558,-0.00045,0.00014,5e-05,-7e-05,7e-05,8e-05,0.00011,7e-05,3,10
10559,-9e-05,4e-05,0,-2e-05,-8e-05,-8e-05,-4e-05,4e-05,3,10
10560,-9e-05,4e-05,0,-2e-05,-8e-05,-8e-05,-4e-05,4e-05,3,10
10561,-9e-05,4e-05,0,-2e-05,-8e-05,-8e-05,-4e-05,4e-05,3,10
10562,-9e-05,4e-05,0,-2e-05,-8e-05,-8e-05,-4e-05,4e-05,3,10
10563,-9e-05,4e-05,0,-2e-05,-8e-05,-8e-05,-4e-05,4e-05,3,10
10564,-9e-05,4e-05,0,-2e-05,-8e-05,-8e-05,-4e-05,4e-05,3,10
10565,-9e-05,4e-05,0,-2e-05,-8e-05,-8e-05,-4e-05,4e-05,3,10
10566,-9e-05,4e-05,0,-2e-05,-8e-05,-8e-05,-4e-05,4e-05,3,10
10567,-9e-05,4e-05,0,-2e-05,-8e-05,-8e-05,-4e-05,4e-05,3,10
10568,-9e-05,4e-05,0,-2e-05,-8e-05,-8e-05,-4e-05,4e-05,3,10
10569,-9e-05,4e-05,0,-2e-05,-8e-05,-8e-05,-4e-05,4e-05,3,10
10570,-9e-05,4e-05,0,-2e-05,-8e-05,-8e-05,-4e-05,4e-05,3,10
10571,-9e-05,4e-05,0,-2e-05,-8e-05,-8e-05,-4e-05,4e-05,3,10
10572,-9e-05,4e-05,0,-2e-05,-8e-05,-8e-05,-4e-05,4e-05,3,10
10573,-9e-05,4e-05,0,-2e-05,-8e-05,-8e-05,-4e-05,4e-05,3,10
10574,-9e-05,4e-05,0,-2e-05,-8e-05,-8e-05,-4e-05,4e-05,3,10
10575,-9e-05,4e-05,0,-2e-05,-8e-05,-8e-05,-4e-05,4e-05,3,10
10576,-9e-05,4e-05,0,-2e-05,-8e-05,-8e-05,-4e-05,4e-05,3,10
10577,-9e-05,4e-05,0,-2e-05,-8e-05,-8e-05,-4e-05,4e-05,3,10
10578,-9e-05,4e-05,0,-2e-05,-8e-05,-8e-05,-4e-05,4e-05,3,10
10579,-9e-05,4e-05,0,-2e-05,-8e-05,-8e-05,-4e-05,4e-05,3,10
10580,-9e-05,4e-05,0,-2e-05,-8e-05,-8e-05,-4e-05,4e-05,3,10
10581,0.00021,5e-05,-8e-05,-5e-05,-0.00016,-4e-05,-0.00014,1e-05,3,10
10582,0.00039,0.00024,4e-05,2e-05,-5e-05,0.00037,0.00013,7e-05,3,10
10583,0.00039,0.00024,4e-05,2e-05,-5e-05,0.00037,0.00013,7e-05,3,10
10584,0.00039,0.00024,4e-05,2e-05,-5e-05,0.00037,0.00013,7e-05,3,10
10585,0.00039,0.00024,4e-05,2e-05,-5e-05,0.00037,0.00013,7e-05,3,10
10586,0.00039,0.00024,4e-05,2e-05,-5e-05,0.00037,0.00013,7e-05,3,10
10588,0.00039,0.00024,4e-05,2e-05,-5e-05,0.00037,0.00013,7e-05,3,10
10589,0.00039,0.00024,4e-05,2e-05,-5e-05,0.00037,0.00013,7e-05,3,10
10590,0.00039,0.00024,4e-05,2e-05,-5e-05,0.00037,0.00013,7e-05,3,10
10591,0.00039,0.00024,4e-05,2e-05,-5e-05,0.00037,0.00013,7e-05,3,10
10592,0.00039,0.00024,4e-05,2e-05,-5e-05,0.00037,0.00013,7e-05,3,10
10593,0.00039,0.00024,4e-05,2e-05,-5e-05,0.00037,0.00013,7e-05,3,10
10594,0.00039,0.00024,4e-05,2e-05,-5e-05,0.00037,0.00013,7e-05,3,10
10595,0.00039,0.00024,4e-05,2e-05,-5e-05,0.00037,0.00013,7e-05,3,10
10596,0.00039,0.00024,4e-05,2e-05,-5e-05,0.00037,0.00013,7e-05,3,10
10597,0.00039,0.00024,4e-05,2e-05,-5e-05,0.00037,0.00013,7e-05,3,10
10598,0.00039,0.00024,4e-05,2e-05,-5e-05,0.00037,0.00013,7e-05,3,10
10599,0.00039,0.00024,4e-05,2e-05,-5e-05,0.00037,0.00013,7e-05,3,10
10600,0.00039,0.00024,4e-05,2e-05,-5e-05,0.00037,0.00013,7e-05,3,10
10601,0.00039,0.00024,4e-05,2e-05,-5e-05,0.00037,0.00013,7e-05,3,10
10602,0.00039,0.00024,4e-05,2e-05,-5e-05,0.00037,0.00013,7e-05,3,10
10603,0.00039,0.00024,4e-05,2e-05,-5e-05,0.00037,0.00013,7e-05,3,10
10604,0.00039,0.00024,4e-05,2e-05,-5e-05,0.00037,0.00013,7e-05,3,10
10605,0.00039,0.00024,4e-05,2e-05,-5e-05,0.00037,0.00013,7e-05,3,10
10606,0.00039,0.00024,4e-05,2e-05,-5e-05,0.00037,0.00013,7e-05,3,10
10607,0.00039,0.00024,4e-05,2e-05,-5e-05,0.00037,0.00013,7e-05,3,10
10608,0.00039,0.00024,4e-05,2e-05,-5e-05,0.00037,0.00013,7e-05,3,10
10609,0.00039,0.00024,4e-05,2e-05,-5e-05,0.00037,0.00013,7e-05,3,10
10610,0.00039,0.00024,4e-05,2e-05,-5e-05,0.00037,0.00013,7e-05,3,10
10611,-0.00032,-0.0001,-1e-05,-5e-05,-0.00012,0.00011,-6e-05,5e-05,3,10
10612,0.00022,-3e-05,1e-05,3e-05,-3e-05,1e-05,-0.0001,-1e-05,3,10
10613,7e-05,8e-05,-1e-05,4e-05,0.00015,5e-05,3e-05,0,3,10
10614,7e-05,8e-05,-1e-05,4e-05,0.00015,5e-05,3e-05,0,3,10
10615,7e-05,8e-05,-1e-05,4e-05,0.00015,5e-05,3e-05,0,3,10
10616,7e-05,8e-05,-1e-05,4e-05,0.00015,5e-05,3e-05,0,3,10
10617,7e-05,8e-05,-1e-05,4e-05,0.00015,5e-05,3e-05,0,3,10
10618,-0.00036,-0.00032,2e-05,4e-05,6e-05,-0.00015,-1e-05,3e-05,3,10
10619,-0.00036,-0.00032,2e-05,4e-05,6e-05,-0.00015,-1e-05,3e-05,3,10
10620,-0.00036,-0.00032,2e-05,4e-05,6e-05,-0.00015,-1e-05,3e-05,3,10
10621,-0.00036,-0.00032,2e-05,4e-05,6e-05,-0.00015,-1e-05,3e-05,3,10
10622,-0.00036,-0.00032,2e-05,4e-05,6e-05,-0.00015,-1e-05,3e-05,3,10
10623,-0.00036,-0.00032,2e-05,4e-05,6e-05,-0.00015,-1e-05,3e-05,3,10
10624,-0.00036,-0.00032,2e-05,4e-05,6e-05,-0.00015,-1e-05,3e-05,3,10
10625,-0.00036,-0.00032,2e-05,4e-05,6e-05,-0.00015,-1e-05,3e-05,3,10
10626,-0.0001,-4e-05,-3e-05,6e-05,0.00027,0.00028,5e-05,-2e-05,3,10
10627,-0.0001,-4e-05,-3e-05,6e-05,0.00027,0.00028,5e-05,-2e-05,3,10
10628,-0.0001,-4e-05,-3e-05,6e-05,0.00027,0.00028,5e-05,-2e-05,3,10
10629,-0.0001,-4e-05,-3e-05,6e-05,0.00027,0.00028,5e-05,-2e-05,3,10
10630,-0.0001,-4e-05,-3e-05,6e-05,0.00027,0.00028,5e-05,-2e-05,3,10
10631,-0.0001,-4e-05,-3e-05,6e-05,0.00027,0.00028,5e-05,-2e-05,3,10
10632,-0.0001,-4e-05,-3e-05,6e-05,0.00027,0.00028,5e-05,-2e-05,3,10
10633,-0.0001,-4e-05,-3e-05,6e-05,0.00027,0.00028,5e-05,-2e-05,3,10
10634,-0.0001,-4e-05,-3e-05,6e-05,0.00027,0.00028,5e-05,-2e-05,3,10
10635,-0.0001,-4e-05,-3e-05,6e-05,0.00027,0.00028,5e-05,-2e-05,3,10
10636,-0.0001,-4e-05,-3e-05,6e-05,0.00027,0.00028,5e-05,-2e-05,3,10
10638,-0.0001,-4e-05,-3e-05,6e-05,0.00027,0.00028,5e-05,-2e-05,3,10
10639,-0.0001,-4e-05,-3e-05,6e-05,0.00027,0.00028,5e-05,-2e-05,3,10
10640,-0.0001,-4e-05,-3e-05,6e-05,0.00027,0.00028,5e-05,-2e-05,3,10
10641,-0.00038,0,0,-9e-05,-8e-05,-0.00011,-2e-05,-0.00014,3,10
10642,-0.00038,0,0,-9e-05,-8e-05,-0.00011,-2e-05,-0.00014,3,10
10643,-0.00038,0,0,-9e-05,-8e-05,-0.00011,-2e-05,-0.00014,3,10
10644,-0.00038,0,0,-9e-05,-8e-05,-0.00011,-2e-05,-0.00014,3,10
10645,-0.00038,0,0,-9e-05,-8e-05,-0.00011,-2e-05,-0.00014,3,10
10646,-0.00038,0,0,-9e-05,-8e-05,-0.00011,-2e-05,-0.00014,3,10
10647,-0.00038,0,0,-9e-05,-8e-05,-0.00011,-2e-05,-0.00014,3,10
10648,3e-05,0,-2e-05,-5e-05,-7e-05,-7e-05,4e-05,1e-05,3,10
10649,3e-05,0,-2e-05,-5e-05,-7e-05,-7e-05,4e-05,1e-05,3,10
10650,3e-05,0,-2e-05,-5e-05,-7e-05,-7e-05,4e-05,1e-05,3,10
10651,3e-05,0,-2e-05,-5e-05,-7e-05,-7e-05,4e-05,1e-05,3,10
10652,3e-05,0,-2e-05,-5e-05,-7e-05,-7e-05,4e-05,1e-05,3,10
10653,3e-05,0,-2e-05,-5e-05,-7e-05,-7e-05,4e-05,1e-05,3,10
10654,3e-05,0,-2e-05,-5e-05,-7e-05,-7e-05,4e-05,1e-05,3,10
10655,3e-05,0,-2e-05,-5e-05,-7e-05,-7e-05,4e-05,1e-05,3,10
10656,3e-05,0,-2e-05,-5e-05,-7e-05,-7e-05,4e-05,1e-05,3,10
10657,3e-05,0,-2e-05,-5e-05,-7e-05,-7e-05,4e-05,1e-05,3,10
10658,3e-05,0,-2e-05,-5e-05,-7e-05,-7e-05,4e-05,1e-05,3,10
10659,3e-05,0,-2e-05,-5e-05,-7e-05,-7e-05,4e-05,1e-05,3,10
10660,3e-05,0,-2e-05,-5e-05,-7e-05,-7e-05,4e-05,1e-05,3,10
10661,3e-05,0,-2e-05,-5e-05,-7e-05,-7e-05,4e-05,1e-05,3,10
10662,3e-05,0,-2e-05,-5e-05,-7e-05,-7e-05,4e-05,1e-05,3,10
10663,3e-05,0,-2e-05,-5e-05,-7e-05,-7e-05,4e-05,1e-05,3,10
10664,0.00042,1e-05,2e-05,-7e-05,-7e-05,-6e-05,3e-05,2e-05,3,10
10665,-3e-05,-3e-05,-5e-05,2e-05,0.00013,-0.00023,7e-05,-2e-05,3,10
10666,-3e-05,-3e-05,-5e-05,2e-05,0.00013,-0.00023,7e-05,-2e-05,3,10
10667,-3e-05,-3e-05,-5e-05,2e-05,0.00013,-0.00023,7e-05,-2e-05,3,10
10668,-3e-05,-3e-05,-5e-05,2e-05,0.00013,-0.00023,7e-05,-2e-05,3,10
10669,-3e-05,-3e-05,-5e-05,2e-05,0.00013,-0.00023,7e-05,-2e-05,3,10
10670,-3e-05,-3e-05,-5e-05,2e-05,0.00013,-0.00023,7e-05,-2e-05,3,10
10671,-3e-05,-3e-05,-5e-05,2e-05,0.00013,-0.00023,7e-05,-2e-05,3,10
10672,-3e-05,-3e-05,-5e-05,2e-05,0.00013,-0.00023,7e-05,-2e-05,3,10
10673,-3e-05,-3e-05,-5e-05,2e-05,0.00013,-0.00023,7e-05,-2e-05,3,10
10674,-3e-05,-3e-05,-5e-05,2e-05,0.00013,-0.00023,7e-05,-2e-05,3,10
10675,-3e-05,-3e-05,-5e-05,2e-05,0.00013,-0.00023,7e-05,-2e-05,3,10
10676,-3e-05,-3e-05,-5e-05,2e-05,0.00013,-0.00023,7e-05,-2e-05,3,10
10677,-3e-05,-3e-05,-5e-05,2e-05,0.00013,-0.00023,7e-05,-2e-05,3,10
10678,0.00046,0.0001,0,7e-05,0.00012,0.00032,0.00016,8e-05,3,10
10679,0.00046,0.0001,0,7e-05,0.00012,0.00032,0.00016,8e-05,3,10
10680,0.00046,0.0001,0,7e-05,0.00012,0.00032,0.00016,8e-05,3,10
10681,0.00046,0.0001,0,7e-05,0.00012,0.00032,0.00016,8e-05,3,10
10682,0.00046,0.0001,0,7e-05,0.00012,0.00032,0.00016,8e-05,3,10
10683,0.00046,0.0001,0,7e-05,0.00012,0.00032,0.00016,8e-05,3,10
10684,0.00046,0.0001,0,7e-05,0.00012,0.00032,0.00016,8e-05,3,10
10685,0.00046,0.0001,0,7e-05,0.00012,0.00032,0.00016,8e-05,3,10
10686,0.00046,0.0001,0,7e-05,0.00012,0.00032,0.00016,8e-05,3,10
10688,0.00046,0.0001,0,7e-05,0.00012,0.00032,0.00016,8e-05,3,10
10689,0.00046,0.0001,0,7e-05,0.00012,0.00032,0.00016,8e-05,3,10
10690,0.00046,0.0001,0,7e-05,0.00012,0.00032,0.00016,8e-05,3,10
10691,0.00046,0.0001,0,7e-05,0.00012,0.00032,0.00016,8e-05,3,10
10692,0.00046,0.0001,0,7e-05,0.00012,0.00032,0.00016,8e-05,3,10
10693,-0.00015,-0.00011,-6e-05,-0.0001,5e-05,0.00011,2e-05,-2e-05,3,10
10694,-0.00015,-0.00011,-6e-05,-0.0001,5e-05,0.00011,2e-05,-2e-05,3,10
10695,-0.00015,-0.00011,-6e-05,-0.0001,5e-05,0.00011,2e-05,-2e-05,3,10
10696,-0.00015,-0.00011,-6e-05,-0.0001,5e-05,0.00011,2e-05,-2e-05,3,10
10697,-0.00015,-0.00011,-6e-05,-0.0001,5e-05,0.00011,2e-05,-2e-05,3,10
10698,-0.00015,-0.00011,-6e-05,-0.0001,5e-05,0.00011,2e-05,-2e-05,3,10
10699,-0.00015,-0.00011,-6e-05,-0.0001,5e-05,0.00011,2e-05,-2e-05,3,10
10700,-0.00015,-0.00011,-6e-05,-0.0001,5e-05,0.00011,2e-05,-2e-05,3,10
10701,0.0001,3e-05,-1e-05,5e-05,-9e-05,-0.00013,-0.00014,2e-05,3,10
10702,0.00014,9e-05,-1e-05,-5e-05,-0.00015,-6e-05,-7e-05,-1e-05,3,10
10704,0.00014,9e-05,-1e-05,-5e-05,-0.00015,-6e-05,-7e-05,-1e-05,3,10
10705,0.00014,9e-05,-1e-05,-5e-05,-0.00015,-6e-05,-7e-05,-1e-05,3,10
10706,0.00014,9e-05,-1e-05,-5e-05,-0.00015,-6e-05,-7e-05,-1e-05,3,10
10707,0.00014,9e-05,-1e-05,-5e-05,-0.00015,-6e-05,-7e-05,-1e-05,3,10
10708,0.00014,9e-05,-1e-05,-5e-05,-0.00015,-6e-05,-7e-05,-1e-05,3,10
10709,0.00014,9e-05,-1e-05,-5e-05,-0.00015,-6e-05,-7e-05,-1e-05,3,10
10710,0.00014,9e-05,-1e-05,-5e-05,-0.00015,-6e-05,-7e-05,-1e-05,3,10
10711,0.00014,9e-05,-1e-05,-5e-05,-0.00015,-6e-05,-7e-05,-1e-05,3,10
10712,0.00014,9e-05,-1e-05,-5e-05,-0.00015,-6e-05,-7e-05,-1e-05,3,10
10713,0.00014,9e-05,-1e-05,-5e-05,-0.00015,-6e-05,-7e-05,-1e-05,3,10
10714,0.00014,9e-05,-1e-05,-5e-05,-0.00015,-6e-05,-7e-05,-1e-05,3,10
10715,0.00014,9e-05,-1e-05,-5e-05,-0.00015,-6e-05,-7e-05,-1e-05,3,10
10716,0.00014,9e-05,-1e-05,-5e-05,-0.00015,-6e-05,-7e-05,-1e-05,3,10
10717,0.00014,9e-05,-1e-05,-5e-05,-0.00015,-6e-05,-7e-05,-1e-05,3,10
10718,0.00014,9e-05,-1e-05,-5e-05,-0.00015,-6e-05,-7e-05,-1e-05,3,10
10719,0.00014,9e-05,-1e-05,-5e-05,-0.00015,-6e-05,-7e-05,-1e-05,3,10
10720,0.00014,9e-05,-1e-05,-5e-05,-0.00015,-6e-05,-7e-05,-1e-05,3,10
10721,0.00014,9e-05,-1e-05,-5e-05,-0.00015,-6e-05,-7e-05,-1e-05,3,10
10722,0.00014,9e-05,-1e-05,-5e-05,-0.00015,-6e-05,-7e-05,-1e-05,3,10
10723,0.00014,9e-05,-1e-05,-5e-05,-0.00015,-6e-05,-7e-05,-1e-05,3,10
10724,0.00014,9e-05,-1e-05,-5e-05,-0.00015,-6e-05,-7e-05,-1e-05,3,10
10725,0.00014,9e-05,-1e-05,-5e-05,-0.00015,-6e-05,-7e-05,-1e-05,3,10
10726,0.00014,9e-05,-1e-05,-5e-05,-0.00015,-6e-05,-7e-05,-1e-05,3,10
10727,0.00014,9e-05,-1e-05,-5e-05,-0.00015,-6e-05,-7e-05,-1e-05,3,10
10728,0.00014,9e-05,-1e-05,-5e-05,-0.00015,-6e-05,-7e-05,-1e-05,3,10
10729,0.00014,9e-05,-1e-05,-5e-05,-0.00015,-6e-05,-7e-05,-1e-05,3,10
10730,0.00014,9e-05,-1e-05,-5e-05,-0.00015,-6e-05,-7e-05,-1e-05,3,10
10731,0.00014,9e-05,-1e-05,-5e-05,-0.00015,-6e-05,-7e-05,-1e-05,3,10
10732,-8e-05,-7e-05,-1e-05,-4e-05,-0.00013,-0.00024,-7e-05,-3e-05,3,10
10733,-8e-05,-7e-05,-1e-05,-4e-05,-0.00013,-0.00024,-7e-05,-3e-05,3,10
10734,-8e-05,-7e-05,-1e-05,-4e-05,-0.00013,-0.00024,-7e-05,-3e-05,3,10
10735,-8e-05,-7e-05,-1e-05,-4e-05,-0.00013,-0.00024,-7e-05,-3e-05,3,10
10736,-8e-05,-7e-05,-1e-05,-4e-05,-0.00013,-0.00024,-7e-05,-3e-05,3,10
10738,0.00012,-6e-05,-2e-05,0.00012,0.00018,-0.00017,-9e-05,0,3,10
10739,0.00012,-6e-05,-2e-05,0.00012,0.00018,-0.00017,-9e-05,0,3,10
10740,0.00012,-6e-05,-2e-05,0.00012,0.00018,-0.00017,-9e-05,0,3,10
10741,0.00012,-6e-05,-2e-05,0.00012,0.00018,-0.00017,-9e-05,0,3,10
10742,0.00012,-6e-05,-2e-05,0.00012,0.00018,-0.00017,-9e-05,0,3,10
10743,0.00012,-6e-05,-2e-05,0.00012,0.00018,-0.00017,-9e-05,0,3,10
10744,0.00012,-6e-05,-2e-05,0.00012,0.00018,-0.00017,-9e-05,0,3,10
10745,0.00012,-6e-05,-2e-05,0.00012,0.00018,-0.00017,-9e-05,0,3,10
10746,-9e-05,-8e-05,0,-4e-05,-0.00029,-0.00029,-7e-05,-5e-05,3,10
10747,-9e-05,-8e-05,0,-4e-05,-0.00029,-0.00029,-7e-05,-5e-05,3,10
10748,-9e-05,-8e-05,0,-4e-05,-0.00029,-0.00029,-7e-05,-5e-05,3,10
10749,-9e-05,-8e-05,0,-4e-05,-0.00029,-0.00029,-7e-05,-5e-05,3,10
10750,-9e-05,-8e-05,0,-4e-05,-0.00029,-0.00029,-7e-05,-5e-05,3,10
10751,-9e-05,-8e-05,0,-4e-05,-0.00029,-0.00029,-7e-05,-5e-05,3,10
10752,-9e-05,-8e-05,0,-4e-05,-0.00029,-0.00029,-7e-05,-5e-05,3,10
10753,-9e-05,-8e-05,0,-4e-05,-0.00029,-0.00029,-7e-05,-5e-05,3,10
10754,-9e-05,-8e-05,0,-4e-05,-0.00029,-0.00029,-7e-05,-5e-05,3,10
10755,-9e-05,-8e-05,0,-4e-05,-0.00029,-0.00029,-7e-05,-5e-05,3,10
10756,-9e-05,-8e-05,0,-4e-05,-0.00029,-0.00029,-7e-05,-5e-05,3,10
10757,-9e-05,-8e-05,0,-4e-05,-0.00029,-0.00029,-7e-05,-5e-05,3,10
10758,-9e-05,-8e-05,0,-4e-05,-0.00029,-0.00029,-7e-05,-5e-05,3,10
10759,-9e-05,-8e-05,0,-4e-05,-0.00029,-0.00029,-7e-05,-5e-05,3,10
10760,-9e-05,-8e-05,0,-4e-05,-0.00029,-0.00029,-7e-05,-5e-05,3,10
10761,-0.00015,-4e-05,0,-5e-05,2e-05,5e-05,4e-05,-4e-05,3,10
10762,-0.00015,-4e-05,0,-5e-05,2e-05,5e-05,4e-05,-4e-05,3,10
10763,-0.00015,-4e-05,0,-5e-05,2e-05,5e-05,4e-05,-4e-05,3,10
10764,-0.00015,-4e-05,0,-5e-05,2e-05,5e-05,4e-05,-4e-05,3,10
10765,-0.00015,-4e-05,0,-5e-05,2e-05,5e-05,4e-05,-4e-05,3,10
10766,-0.00015,-4e-05,0,-5e-05,2e-05,5e-05,4e-05,-4e-05,3,10
10767,-0.00015,-4e-05,0,-5e-05,2e-05,5e-05,4e-05,-4e-05,3,10
10768,-2e-05,7e-05,2e-05,2e-05,-7e-05,-0.00017,-1e-05,-8e-05,3,10
10769,-2e-05,7e-05,2e-05,2e-05,-7e-05,-0.00017,-1e-05,-8e-05,3,10
10770,-2e-05,7e-05,2e-05,2e-05,-7e-05,-0.00017,-1e-05,-8e-05,3,10
10771,-2e-05,7e-05,2e-05,2e-05,-7e-05,-0.00017,-1e-05,-8e-05,3,10
10772,-2e-05,7e-05,2e-05,2e-05,-7e-05,-0.00017,-1e-05,-8e-05,3,10
10773,-2e-05,7e-05,2e-05,2e-05,-7e-05,-0.00017,-1e-05,-8e-05,3,10
10774,-2e-05,7e-05,2e-05,2e-05,-7e-05,-0.00017,-1e-05,-8e-05,3,10
10775,-2e-05,7e-05,2e-05,2e-05,-7e-05,-0.00017,-1e-05,-8e-05,3,10
10776,-2e-05,7e-05,2e-05,2e-05,-7e-05,-0.00017,-1e-05,-8e-05,3,10
10777,-2e-05,7e-05,2e-05,2e-05,-7e-05,-0.00017,-1e-05,-8e-05,3,10
10778,-2e-05,7e-05,2e-05,2e-05,-7e-05,-0.00017,-1e-05,-8e-05,3,10
10779,-2e-05,7e-05,2e-05,2e-05,-7e-05,-0.00017,-1e-05,-8e-05,3,10
10780,-2e-05,7e-05,2e-05,2e-05,-7e-05,-0.00017,-1e-05,-8e-05,3,10
10781,-2e-05,7e-05,2e-05,2e-05,-7e-05,-0.00017,-1e-05,-8e-05,3,10
10782,-2e-05,7e-05,2e-05,2e-05,-7e-05,-0.00017,-1e-05,-8e-05,3,10
10783,-2e-05,7e-05,2e-05,2e-05,-7e-05,-0.00017,-1e-05,-8e-05,3,10
10784,9e-05,-8e-05,5e-05,4e-05,-1e-05,-7e-05,-8e-05,-2e-05,3,10
10785,-0.00016,-0.00021,-6e-05,-7e-05,-1e-05,-0.00025,-4e-05,-3e-05,3,10
10786,-0.00016,-0.00021,-6e-05,-7e-05,-1e-05,-0.00025,-4e-05,-3e-05,3,10
10788,-0.00016,-0.00021,-6e-05,-7e-05,-1e-05,-0.00025,-4e-05,-3e-05,3,10
10789,-0.00016,-0.00021,-6e-05,-7e-05,-1e-05,-0.00025,-4e-05,-3e-05,3,10
10790,-0.00016,-0.00021,-6e-05,-7e-05,-1e-05,-0.00025,-4e-05,-3e-05,3,10
10791,-0.00016,-0.00021,-6e-05,-7e-05,-1e-05,-0.00025,-4e-05,-3e-05,3,10
10792,-0.00016,-0.00021,-6e-05,-7e-05,-1e-05,-0.00025,-4e-05,-3e-05,3,10
10793,-0.00016,-0.00021,-6e-05,-7e-05,-1e-05,-0.00025,-4e-05,-3e-05,3,10
10794,-0.00016,-0.00021,-6e-05,-7e-05,-1e-05,-0.00025,-4e-05,-3e-05,3,10
10795,-0.00016,-0.00021,-6e-05,-7e-05,-1e-05,-0.00025,-4e-05,-3e-05,3,10
10796,-0.00016,-0.00021,-6e-05,-7e-05,-1e-05,-0.00025,-4e-05,-3e-05,3,10
10797,-0.00016,-0.00021,-6e-05,-7e-05,-1e-05,-0.00025,-4e-05,-3e-05,3,10
10798,-0.00024,-0.00021,-1e-05,-4e-05,-7e-05,7e-05,0.0001,0,3,10
10799,-0.00024,-0.00021,-1e-05,-4e-05,-7e-05,7e-05,0.0001,0,3,10
10800,-0.00024,-0.00021,-1e-05,-4e-05,-7e-05,7e-05,0.0001,0,3,10
10801,-0.00024,-0.00021,-1e-05,-4e-05,-7e-05,7e-05,0.0001,0,3,10
10802,-0.00024,-0.00021,-1e-05,-4e-05,-7e-05,7e-05,0.0001,0,3,10
10804,-0.00024,-0.00021,-1e-05,-4e-05,-7e-05,7e-05,0.0001,0,3,10
10805,-0.00024,-0.00021,-1e-05,-4e-05,-7e-05,7e-05,0.0001,0,3,10
10806,-0.00021,4e-05,2e-05,-4e-05,-8e-05,-8e-05,0,0,3,10
10807,-0.00021,4e-05,2e-05,-4e-05,-8e-05,-8e-05,0,0,3,10
10808,-0.00021,4e-05,2e-05,-4e-05,-8e-05,-8e-05,0,0,3,10
10809,-0.00021,4e-05,2e-05,-4e-05,-8e-05,-8e-05,0,0,3,10
10810,-0.00021,4e-05,2e-05,-4e-05,-8e-05,-8e-05,0,0,3,10
10811,-0.00021,4e-05,2e-05,-4e-05,-8e-05,-8e-05,0,0,3,10
10812,-0.00021,4e-05,2e-05,-4e-05,-8e-05,-8e-05,0,0,3,10
10813,-0.00021,4e-05,2e-05,-4e-05,-8e-05,-8e-05,0,0,3,10
10814,-0.00021,4e-05,2e-05,-4e-05,-8e-05,-8e-05,0,0,3,10
10815,-0.00021,4e-05,2e-05,-4e-05,-8e-05,-8e-05,0,0,3,10
10816,-0.00021,4e-05,2e-05,-4e-05,-8e-05,-8e-05,0,0,3,10
10817,-0.00021,4e-05,2e-05,-4e-05,-8e-05,-8e-05,0,0,3,10
10818,-0.00021,4e-05,2e-05,-4e-05,-8e-05,-8e-05,0,0,3,10
10819,-0.00021,4e-05,2e-05,-4e-05,-8e-05,-8e-05,0,0,3,10
10820,-0.00021,4e-05,2e-05,-4e-05,-8e-05,-8e-05,0,0,3,10
10821,0.00058,0.00012,-6e-05,-9e-05,-0.00016,-0.00018,4e-05,1e-05,3,10
10822,0.0003,-3e-05,-7e-05,-4e-05,-1e-05,0.00013,8e-05,2e-05,3,10
10823,0.0003,-3e-05,-7e-05,-4e-05,-1e-05,0.00013,8e-05,2e-05,3,10
10824,0.0003,-3e-05,-7e-05,-4e-05,-1e-05,0.00013,8e-05,2e-05,3,10
10825,0.0003,-3e-05,-7e-05,-4e-05,-1e-05,0.00013,8e-05,2e-05,3,10
10826,0.0003,-3e-05,-7e-05,-4e-05,-1e-05,0.00013,8e-05,2e-05,3,10
10827,0.0003,-3e-05,-7e-05,-4e-05,-1e-05,0.00013,8e-05,2e-05,3,10
10828,0.0003,-3e-05,-7e-05,-4e-05,-1e-05,0.00013,8e-05,2e-05,3,10
10829,0.0003,-3e-05,-7e-05,-4e-05,-1e-05,0.00013,8e-05,2e-05,3,10
10830,0.0003,-3e-05,-7e-05,-4e-05,-1e-05,0.00013,8e-05,2e-05,3,10
10831,0.0003,-3e-05,-7e-05,-4e-05,-1e-05,0.00013,8e-05,2e-05,3,10
10832,0.0003,-3e-05,-7e-05,-4e-05,-1e-05,0.00013,8e-05,2e-05,3,10
10833,0.0003,-3e-05,-7e-05,-4e-05,-1e-05,0.00013,8e-05,2e-05,3,10
10834,0.0003,-3e-05,-7e-05,-4e-05,-1e-05,0.00013,8e-05,2e-05,3,10
10835,0.0003,-3e-05,-7e-05,-4e-05,-1e-05,0.00013,8e-05,2e-05,3,10
10836,0.0003,-3e-05,-7e-05,-4e-05,-1e-05,0.00013,8e-05,2e-05,3,10
10838,0.0003,-3e-05,-7e-05,-4e-05,-1e-05,0.00013,8e-05,2e-05,3,10
10839,0.0003,-3e-05,-7e-05,-4e-05,-1e-05,0.00013,8e-05,2e-05,3,10
10840,0.0003,-3e-05,-7e-05,-4e-05,-1e-05,0.00013,8e-05,2e-05,3,10
10841,0.0003,-3e-05,-7e-05,-4e-05,-1e-05,0.00013,8e-05,2e-05,3,10
10842,0.0003,-3e-05,-7e-05,-4e-05,-1e-05,0.00013,8e-05,2e-05,3,10
10843,0.0003,-3e-05,-7e-05,-4e-05,-1e-05,0.00013,8e-05,2e-05,3,10
10844,0.0003,-3e-05,-7e-05,-4e-05,-1e-05,0.00013,8e-05,2e-05,3,10
10845,0.0003,-3e-05,-7e-05,-4e-05,-1e-05,0.00013,8e-05,2e-05,3,10
10846,0.0003,-3e-05,-7e-05,-4e-05,-1e-05,0.00013,8e-05,2e-05,3,10
10847,0.0003,-3e-05,-7e-05,-4e-05,-1e-05,0.00013,8e-05,2e-05,3,10
10848,0.0003,-3e-05,-7e-05,-4e-05,-1e-05,0.00013,8e-05,2e-05,3,10
10849,0.0003,-3e-05,-7e-05,-4e-05,-1e-05,0.00013,8e-05,2e-05,3,10
10850,0.0003,-3e-05,-7e-05,-4e-05,-1e-05,0.00013,8e-05,2e-05,3,10
10851,0.00026,5e-05,-2e-05,-0.0001,-0.00011,-0.00026,-0.0001,3e-05,3,10
10852,2e-05,-0.00013,-1e-05,2e-05,1e-05,0.00018,6e-05,4e-05,3,10
10854,2e-05,-0.00013,-1e-05,2e-05,1e-05,0.00018,6e-05,4e-05,3,10
10855,2e-05,-0.00013,-1e-05,2e-05,1e-05,0.00018,6e-05,4e-05,3,10
10856,2e-05,-0.00013,-1e-05,2e-05,1e-05,0.00018,6e-05,4e-05,3,10
10857,2e-05,-0.00013,-1e-05,2e-05,1e-05,0.00018,6e-05,4e-05,3,10
10858,-0.0001,-2e-05,-3e-05,-4e-05,-6e-05,-0.00017,-9e-05,-3e-05,3,10
10859,-0.0001,-2e-05,-3e-05,-4e-05,-6e-05,-0.00017,-9e-05,-3e-05,3,10
10860,-0.0001,-2e-05,-3e-05,-4e-05,-6e-05,-0.00017,-9e-05,-3e-05,3,10
10861,-0.0001,-2e-05,-3e-05,-4e-05,-6e-05,-0.00017,-9e-05,-3e-05,3,10
10862,-0.0001,-2e-05,-3e-05,-4e-05,-6e-05,-0.00017,-9e-05,-3e-05,3,10
10863,-0.0001,-2e-05,-3e-05,-4e-05,-6e-05,-0.00017,-9e-05,-3e-05,3,10
10864,-0.0001,-2e-05,-3e-05,-4e-05,-6e-05,-0.00017,-9e-05,-3e-05,3,10
10865,-0.0001,-2e-05,-3e-05,-4e-05,-6e-05,-0.00017,-9e-05,-3e-05,3,10
10866,-0.00048,0,4e-05,4e-05,0,0.00047,-8e-05,-3e-05,3,10
10867,-0.00048,0,4e-05,4e-05,0,0.00047,-8e-05,-3e-05,3,10
10868,-0.00048,0,4e-05,4e-05,0,0.00047,-8e-05,-3e-05,3,10
10869,-0.00048,0,4e-05,4e-05,0,0.00047,-8e-05,-3e-05,3,10
10870,-0.00048,0,4e-05,4e-05,0,0.00047,-8e-05,-3e-05,3,10
10871,-0.00048,0,4e-05,4e-05,0,0.00047,-8e-05,-3e-05,3,10
10872,-0.00048,0,4e-05,4e-05,0,0.00047,-8e-05,-3e-05,3,10
10873,-0.00048,0,4e-05,4e-05,0,0.00047,-8e-05,-3e-05,3,10
10874,-0.00048,0,4e-05,4e-05,0,0.00047,-8e-05,-3e-05,3,10
10875,-0.00048,0,4e-05,4e-05,0,0.00047,-8e-05,-3e-05,3,10
10876,-0.00048,0,4e-05,4e-05,0,0.00047,-8e-05,-3e-05,3,10
10877,-0.00048,0,4e-05,4e-05,0,0.00047,-8e-05,-3e-05,3,10
10878,-0.00048,0,4e-05,4e-05,0,0.00047,-8e-05,-3e-05,3,10
10879,-0.00048,0,4e-05,4e-05,0,0.00047,-8e-05,-3e-05,3,10
10880,-0.00048,0,4e-05,4e-05,0,0.00047,-8e-05,-3e-05,3,10
10881,-4e-05,2e-05,3e-05,4e-05,0.00033,0.00034,6e-05,-4e-05,3,10
10882,-0.00041,0.0001,-4e-05,-2e-05,4e-05,-0.00031,-6e-05,-0.00011,3,10
10883,-0.00041,0.0001,-4e-05,-2e-05,4e-05,-0.00031,-6e-05,-0.00011,3,10
10884,-0.00041,0.0001,-4e-05,-2e-05,4e-05,-0.00031,-6e-05,-0.00011,3,10
10885,-0.00041,0.0001,-4e-05,-2e-05,4e-05,-0.00031,-6e-05,-0.00011,3,10
10886,-0.00041,0.0001,-4e-05,-2e-05,4e-05,-0.00031,-6e-05,-0.00011,3,10
10888,-0.00041,0.0001,-4e-05,-2e-05,4e-05,-0.00031,-6e-05,-0.00011,3,10
10889,-0.00041,0.0001,-4e-05,-2e-05,4e-05,-0.00031,-6e-05,-0.00011,3,10
10890,-0.00041,0.0001,-4e-05,-2e-05,4e-05,-0.00031,-6e-05,-0.00011,3,10
10891,-0.00041,0.0001,-4e-05,-2e-05,4e-05,-0.00031,-6e-05,-0.00011,3,10
10892,-0.00041,0.0001,-4e-05,-2e-05,4e-05,-0.00031,-6e-05,-0.00011,3,10
10893,-0.00041,0.0001,-4e-05,-2e-05,4e-05,-0.00031,-6e-05,-0.00011,3,10
10894,-0.00041,0.0001,-4e-05,-2e-05,4e-05,-0.00031,-6e-05,-0.00011,3,10
10895,-0.00041,0.0001,-4e-05,-2e-05,4e-05,-0.00031,-6e-05,-0.00011,3,10
10896,-0.00041,0.0001,-4e-05,-2e-05,4e-05,-0.00031,-6e-05,-0.00011,3,10
10897,-0.00041,0.0001,-4e-05,-2e-05,4e-05,-0.00031,-6e-05,-0.00011,3,10
10898,-0.00041,0.0001,-4e-05,-2e-05,4e-05,-0.00031,-6e-05,-0.00011,3,10
10899,-0.00041,0.0001,-4e-05,-2e-05,4e-05,-0.00031,-6e-05,-0.00011,3,10
10900,-0.00041,0.0001,-4e-05,-2e-05,4e-05,-0.00031,-6e-05,-0.00011,3,10
10901,-0.00041,0.0001,-4e-05,-2e-05,4e-05,-0.00031,-6e-05,-0.00011,3,10
10902,-0.00041,0.0001,-4e-05,-2e-05,4e-05,-0.00031,-6e-05,-0.00011,3,10
10904,5e-05,-2e-05,0,-7e-05,-0.00022,-2e-05,5e-05,8e-05,3,10
10905,0.00028,4e-05,3e-05,-7e-05,-0.00035,-0.00065,-7e-05,5e-05,3,10
10906,0.00028,4e-05,3e-05,-7e-05,-0.00035,-0.00065,-7e-05,5e-05,3,10
10907,0.00028,4e-05,3e-05,-7e-05,-0.00035,-0.00065,-7e-05,5e-05,3,10
10908,0.00028,4e-05,3e-05,-7e-05,-0.00035,-0.00065,-7e-05,5e-05,3,10
10909,0.00028,4e-05,3e-05,-7e-05,-0.00035,-0.00065,-7e-05,5e-05,3,10
10910,0.00028,4e-05,3e-05,-7e-05,-0.00035,-0.00065,-7e-05,5e-05,3,10
10911,0.00028,4e-05,3e-05,-7e-05,-0.00035,-0.00065,-7e-05,5e-05,3,10
10912,0.00028,4e-05,3e-05,-7e-05,-0.00035,-0.00065,-7e-05,5e-05,3,10
10913,0.00028,4e-05,3e-05,-7e-05,-0.00035,-0.00065,-7e-05,5e-05,3,10
10914,0.00028,4e-05,3e-05,-7e-05,-0.00035,-0.00065,-7e-05,5e-05,3,10
10915,0.00028,4e-05,3e-05,-7e-05,-0.00035,-0.00065,-7e-05,5e-05,3,10
10916,0.00028,4e-05,3e-05,-7e-05,-0.00035,-0.00065,-7e-05,5e-05,3,10
10917,0.00028,4e-05,3e-05,-7e-05,-0.00035,-0.00065,-7e-05,5e-05,3,10
10918,0.00013,-5e-05,-7e-05,-5e-05,-9e-05,-0.00052,-4e-05,-3e-05,3,10
10919,0.00013,-5e-05,-7e-05,-5e-05,-9e-05,-0.00052,-4e-05,-3e-05,3,10
10920,0.00013,-5e-05,-7e-05,-5e-05,-9e-05,-0.00052,-4e-05,-3e-05,3,10
10921,0.00013,-5e-05,-7e-05,-5e-05,-9e-05,-0.00052,-4e-05,-3e-05,3,10
10922,0.00013,-5e-05,-7e-05,-5e-05,-9e-05,-0.00052,-4e-05,-3e-05,3,10
10923,0.00013,-5e-05,-7e-05,-5e-05,-9e-05,-0.00052,-4e-05,-3e-05,3,10
10924,0.00013,-5e-05,-7e-05,-5e-05,-9e-05,-0.00052,-4e-05,-3e-05,3,10
10925,0.00013,-5e-05,-7e-05,-5e-05,-9e-05,-0.00052,-4e-05,-3e-05,3,10
10926,7e-05,0,1e-05,1e-05,0.00015,-5e-05,-3e-05,-4e-05,3,10
10927,7e-05,0,1e-05,1e-05,0.00015,-5e-05,-3e-05,-4e-05,3,10
10928,7e-05,0,1e-05,1e-05,0.00015,-5e-05,-3e-05,-4e-05,3,10
10929,7e-05,0,1e-05,1e-05,0.00015,-5e-05,-3e-05,-4e-05,3,10
10930,7e-05,0,1e-05,1e-05,0.00015,-5e-05,-3e-05,-4e-05,3,10
10931,7e-05,0,1e-05,1e-05,0.00015,-5e-05,-3e-05,-4e-05,3,10
10932,7e-05,0,1e-05,1e-05,0.00015,-5e-05,-3e-05,-4e-05,3,10
10933,7e-05,0,1e-05,1e-05,0.00015,-5e-05,-3e-05,-4e-05,3,10
10934,7e-05,0,1e-05,1e-05,0.00015,-5e-05,-3e-05,-4e-05,3,10
10935,7e-05,0,1e-05,1e-05,0.00015,-5e-05,-3e-05,-4e-05,3,10
10936,7e-05,0,1e-05,1e-05,0.00015,-5e-05,-3e-05,-4e-05,3,10
10938,7e-05,0,1e-05,1e-05,0.00015,-5e-05,-3e-05,-4e-05,3,10
10939,7e-05,0,1e-05,1e-05,0.00015,-5e-05,-3e-05,-4e-05,3,10
10940,7e-05,0,1e-05,1e-05,0.00015,-5e-05,-3e-05,-4e-05,3,10
10941,-0.00021,-2e-05,2e-05,1e-05,0.00015,-0.00028,-0.00013,-4e-05,3,10
10942,0.00015,-6e-05,-7e-05,-6e-05,-2e-05,-1e-05,3e-05,1e-05,3,10
10943,0.00015,-6e-05,-7e-05,-6e-05,-2e-05,-1e-05,3e-05,1e-05,3,10
10944,0.00015,-6e-05,-7e-05,-6e-05,-2e-05,-1e-05,3e-05,1e-05,3,10
10945,0.00015,-6e-05,-7e-05,-6e-05,-2e-05,-1e-05,3e-05,1e-05,3,10
10946,0.00015,-6e-05,-7e-05,-6e-05,-2e-05,-1e-05,3e-05,1e-05,3,10
10947,0.00015,-6e-05,-7e-05,-6e-05,-2e-05,-1e-05,3e-05,1e-05,3,10
10948,0.00015,-6e-05,-7e-05,-6e-05,-2e-05,-1e-05,3e-05,1e-05,3,10
10949,0.00015,-6e-05,-7e-05,-6e-05,-2e-05,-1e-05,3e-05,1e-05,3,10
10950,0.00015,-6e-05,-7e-05,-6e-05,-2e-05,-1e-05,3e-05,1e-05,3,10
10951,0.00015,-6e-05,-7e-05,-6e-05,-2e-05,-1e-05,3e-05,1e-05,3,10
10952,0.00015,-6e-05,-7e-05,-6e-05,-2e-05,-1e-05,3e-05,1e-05,3,10
10953,0.00015,-6e-05,-7e-05,-6e-05,-2e-05,-1e-05,3e-05,1e-05,3,10
10954,0.00015,-6e-05,-7e-05,-6e-05,-2e-05,-1e-05,3e-05,1e-05,3,10
10955,0.00015,-6e-05,-7e-05,-6e-05,-2e-05,-1e-05,3e-05,1e-05,3,10
10956,0.00015,-6e-05,-7e-05,-6e-05,-2e-05,-1e-05,3e-05,1e-05,3,10
10957,0.00015,-6e-05,-7e-05,-6e-05,-2e-05,-1e-05,3e-05,1e-05,3,10
10958,0.00015,-6e-05,-7e-05,-6e-05,-2e-05,-1e-05,3e-05,1e-05,3,10
10959,0.00015,-6e-05,-7e-05,-6e-05,-2e-05,-1e-05,3e-05,1e-05,3,10
10960,0.00015,-6e-05,-7e-05,-6e-05,-2e-05,-1e-05,3e-05,1e-05,3,10
10961,0.00015,-6e-05,-7e-05,-6e-05,-2e-05,-1e-05,3e-05,1e-05,3,10
10962,0.00015,-6e-05,-7e-05,-6e-05,-2e-05,-1e-05,3e-05,1e-05,3,10
10963,0.00015,-6e-05,-7e-05,-6e-05,-2e-05,-1e-05,3e-05,1e-05,3,10
10964,0.00015,-6e-05,-7e-05,-6e-05,-2e-05,-1e-05,3e-05,1e-05,3,10
10965,0.00015,-6e-05,-7e-05,-6e-05,-2e-05,-1e-05,3e-05,1e-05,3,10
10966,0.00015,-6e-05,-7e-05,-6e-05,-2e-05,-1e-05,3e-05,1e-05,3,10
10967,0.00015,-6e-05,-7e-05,-6e-05,-2e-05,-1e-05,3e-05,1e-05,3,10
10968,0.00015,-6e-05,-7e-05,-6e-05,-2e-05,-1e-05,3e-05,1e-05,3,10
10969,0.00015,-6e-05,-7e-05,-6e-05,-2e-05,-1e-05,3e-05,1e-05,3,10
10970,0.00015,-6e-05,-7e-05,-6e-05,-2e-05,-1e-05,3e-05,1e-05,3,10
10971,-2e-05,-4e-05,-2e-05,-7e-05,-0.00017,-6e-05,-0.0001,1e-05,3,10
10972,-5e-05,-1e-05,1e-05,6e-05,8e-05,0.00025,7e-05,2e-05,3,10
10973,-5e-05,-1e-05,1e-05,6e-05,8e-05,0.00025,7e-05,2e-05,3,10
10974,-5e-05,-1e-05,1e-05,6e-05,8e-05,0.00025,7e-05,2e-05,3,10
10975,-5e-05,-1e-05,1e-05,6e-05,8e-05,0.00025,7e-05,2e-05,3,10
10976,-5e-05,-1e-05,1e-05,6e-05,8e-05,0.00025,7e-05,2e-05,3,10
10977,-5e-05,-1e-05,1e-05,6e-05,8e-05,0.00025,7e-05,2e-05,3,10
10978,-5e-05,-1e-05,1e-05,6e-05,8e-05,0.00025,7e-05,2e-05,3,10
10979,-5e-05,-1e-05,1e-05,6e-05,8e-05,0.00025,7e-05,2e-05,3,10
10980,-5e-05,-1e-05,1e-05,6e-05,8e-05,0.00025,7e-05,2e-05,3,10
10981,-5e-05,-1e-05,1e-05,6e-05,8e-05,0.00025,7e-05,2e-05,3,10
10982,-5e-05,-1e-05,1e-05,6e-05,8e-05,0.00025,7e-05,2e-05,3,10
10983,-5e-05,-1e-05,1e-05,6e-05,8e-05,0.00025,7e-05,2e-05,3,10
10984,-5e-05,-1e-05,1e-05,6e-05,8e-05,0.00025,7e-05,2e-05,3,10
10985,-5e-05,-1e-05,1e-05,6e-05,8e-05,0.00025,7e-05,2e-05,3,10
10986,-0.00013,0,-4e-05,-5e-05,-0.00024,0.00028,1e-05,-4e-05,3,10
10988,0.00021,6e-05,4e-05,1e-05,-0.00015,-2e-05,1e-05,5e-05,3,10
10989,0.00021,6e-05,4e-05,1e-05,-0.00015,-2e-05,1e-05,5e-05,3,10
10990,0.00021,6e-05,4e-05,1e-05,-0.00015,-2e-05,1e-05,5e-05,3,10
10991,0.00021,6e-05,4e-05,1e-05,-0.00015,-2e-05,1e-05,5e-05,3,10
10992,0.00021,6e-05,4e-05,1e-05,-0.00015,-2e-05,1e-05,5e-05,3,10
10993,0.00021,6e-05,4e-05,1e-05,-0.00015,-2e-05,1e-05,5e-05,3,10
10994,0.00021,6e-05,4e-05,1e-05,-0.00015,-2e-05,1e-05,5e-05,3,10
10995,0.00021,6e-05,4e-05,1e-05,-0.00015,-2e-05,1e-05,5e-05,3,10
10996,0.00021,6e-05,4e-05,1e-05,-0.00015,-2e-05,1e-05,5e-05,3,10
10997,0.00021,6e-05,4e-05,1e-05,-0.00015,-2e-05,1e-05,5e-05,3,10
10998,0.00021,6e-05,4e-05,1e-05,-0.00015,-2e-05,1e-05,5e-05,3,10
10999,0.00021,6e-05,4e-05,1e-05,-0.00015,-2e-05,1e-05,5e-05,3,10
11000,0.00021,6e-05,4e-05,1e-05,-0.00015,-2e-05,1e-05,5e-05,3,10
11001,0.00012,-4e-05,-3e-05,-7e-05,-0.00015,0.00025,-2e-05,-4e-05,3,10
11002,9e-05,-1e-05,-1e-05,0.00014,0.00027,0.00045,-2e-05,1e-05,3,10
11003,9e-05,-1e-05,-1e-05,0.00014,0.00027,0.00045,-2e-05,1e-05,3,10
11004,9e-05,-1e-05,-1e-05,0.00014,0.00027,0.00045,-2e-05,1e-05,3,10
11005,9e-05,-1e-05,-1e-05,0.00014,0.00027,0.00045,-2e-05,1e-05,3,10
11006,9e-05,-1e-05,-1e-05,0.00014,0.00027,0.00045,-2e-05,1e-05,3,10
11007,9e-05,-1e-05,-1e-05,0.00014,0.00027,0.00045,-2e-05,1e-05,3,10
11008,9e-05,-1e-05,-1e-05,0.00014,0.00027,0.00045,-2e-05,1e-05,3,10
11009,9e-05,-1e-05,-1e-05,0.00014,0.00027,0.00045,-2e-05,1e-05,3,10
11010,9e-05,-1e-05,-1e-05,0.00014,0.00027,0.00045,-2e-05,1e-05,3,10
11011,9e-05,-1e-05,-1e-05,0.00014,0.00027,0.00045,-2e-05,1e-05,3,10
11012,9e-05,-1e-05,-1e-05,0.00014,0.00027,0.00045,-2e-05,1e-05,3,10
11013,9e-05,-1e-05,-1e-05,0.00014,0.00027,0.00045,-2e-05,1e-05,3,10
11014,9e-05,-1e-05,-1e-05,0.00014,0.00027,0.00045,-2e-05,1e-05,3,10
11015,9e-05,-1e-05,-1e-05,0.00014,0.00027,0.00045,-2e-05,1e-05,3,10
11016,9e-05,-1e-05,-1e-05,0.00014,0.00027,0.00045,-2e-05,1e-05,3,10
11017,9e-05,-1e-05,-1e-05,0.00014,0.00027,0.00045,-2e-05,1e-05,3,10
11018,9e-05,-1e-05,-1e-05,0.00014,0.00027,0.00045,-2e-05,1e-05,3,10
11019,9e-05,-1e-05,-1e-05,0.00014,0.00027,0.00045,-2e-05,1e-05,3,10
11020,9e-05,-1e-05,-1e-05,0.00014,0.00027,0.00045,-2e-05,1e-05,3,10
11021,9e-05,-1e-05,-1e-05,0.00014,0.00027,0.00045,-2e-05,1e-05,3,10
11022,9e-05,-1e-05,-1e-05,0.00014,0.00027,0.00045,-2e-05,1e-05,3,10
11023,9e-05,-1e-05,-1e-05,0.00014,0.00027,0.00045,-2e-05,1e-05,3,10
11024,-2e-05,-1e-05,2e-05,4e-05,0.0002,0.0001,-4e-05,-6e-05,3,10
11025,-5e-05,-4e-05,-4e-05,0,-0.00016,-0.00027,2e-05,2e-05,3,10
11026,-5e-05,-4e-05,-4e-05,0,-0.00016,-0.00027,2e-05,2e-05,3,10
11027,-5e-05,-4e-05,-4e-05,0,-0.00016,-0.00027,2e-05,2e-05,3,10
11028,-5e-05,-4e-05,-4e-05,0,-0.00016,-0.00027,2e-05,2e-05,3,10
11029,-5e-05,-4e-05,-4e-05,0,-0.00016,-0.00027,2e-05,2e-05,3,10
11030,-5e-05,-4e-05,-4e-05,0,-0.00016,-0.00027,2e-05,2e-05,3,10
11031,-5e-05,-4e-05,-4e-05,0,-0.00016,-0.00027,2e-05,2e-05,3,10
11032,-5e-05,-4e-05,-4e-05,0,-0.00016,-0.00027,2e-05,2e-05,3,10
11033,-5e-05,-4e-05,-4e-05,0,-0.00016,-0.00027,2e-05,2e-05,3,10
11034,-5e-05,-4e-05,-4e-05,0,-0.00016,-0.00027,2e-05,2e-05,3,10
11035,-5e-05,-4e-05,-4e-05,0,-0.00016,-0.00027,2e-05,2e-05,3,10
11036,-5e-05,-4e-05,-4e-05,0,-0.00016,-0.00027,2e-05,2e-05,3,10
11038,-5e-05,-4e-05,-4e-05,0,-0.00016,-0.00027,2e-05,2e-05,3,10
11039,-5e-05,-4e-05,-4e-05,0,-0.00016,-0.00027,2e-05,2e-05,3,10
11040,-5e-05,-4e-05,-4e-05,0,-0.00016,-0.00027,2e-05,2e-05,3,10
11041,-5e-05,-4e-05,-4e-05,0,-0.00016,-0.00027,2e-05,2e-05,3,10
11042,-5e-05,-4e-05,-4e-05,0,-0.00016,-0.00027,2e-05,2e-05,3,10
11043,-5e-05,-4e-05,-4e-05,0,-0.00016,-0.00027,2e-05,2e-05,3,10
11044,-5e-05,-4e-05,-4e-05,0,-0.00016,-0.00027,2e-05,2e-05,3,10
11045,-5e-05,-4e-05,-4e-05,0,-0.00016,-0.00027,2e-05,2e-05,3,10
11046,3e-05,-1e-05,-2e-05,1e-05,1e-05,7e-05,-4e-05,-4e-05,3,10
11047,-5e-05,-4e-05,-1e-05,4e-05,0.00019,7e-05,-4e-05,-3e-05,3,10
11048,-5e-05,-4e-05,-1e-05,4e-05,0.00019,7e-05,-4e-05,-3e-05,3,10
11049,-5e-05,-4e-05,-1e-05,4e-05,0.00019,7e-05,-4e-05,-3e-05,3,10
11050,-5e-05,-4e-05,-1e-05,4e-05,0.00019,7e-05,-4e-05,-3e-05,3,10
11051,-5e-05,-4e-05,-1e-05,4e-05,0.00019,7e-05,-4e-05,-3e-05,3,10
11052,-5e-05,-4e-05,-1e-05,4e-05,0.00019,7e-05,-4e-05,-3e-05,3,10
11053,-5e-05,-4e-05,-1e-05,4e-05,0.00019,7e-05,-4e-05,-3e-05,3,10
11054,-5e-05,-4e-05,-1e-05,4e-05,0.00019,7e-05,-4e-05,-3e-05,3,10
11055,-5e-05,-4e-05,-1e-05,4e-05,0.00019,7e-05,-4e-05,-3e-05,3,10
11056,-5e-05,-4e-05,-1e-05,4e-05,0.00019,7e-05,-4e-05,-3e-05,3,10
11057,-5e-05,-4e-05,-1e-05,4e-05,0.00019,7e-05,-4e-05,-3e-05,3,10
11058,-5e-05,-4e-05,-1e-05,4e-05,0.00019,7e-05,-4e-05,-3e-05,3,10
11059,-5e-05,-4e-05,-1e-05,4e-05,0.00019,7e-05,-4e-05,-3e-05,3,10
11060,-5e-05,-4e-05,-1e-05,4e-05,0.00019,7e-05,-4e-05,-3e-05,3,10
11061,-6e-05,-4e-05,-5e-05,-7e-05,-0.00022,-0.00019,-0.00016,-5e-05,3,10
11062,0.00015,1e-05,5e-05,1e-05,8e-05,-0.00039,3e-05,5e-05,3,10
11063,0.00015,1e-05,5e-05,1e-05,8e-05,-0.00039,3e-05,5e-05,3,10
11064,0.00015,1e-05,5e-05,1e-05,8e-05,-0.00039,3e-05,5e-05,3,10
11065,0.00015,1e-05,5e-05,1e-05,8e-05,-0.00039,3e-05,5e-05,3,10
11066,0.00015,1e-05,5e-05,1e-05,8e-05,-0.00039,3e-05,5e-05,3,10
11067,0.00015,1e-05,5e-05,1e-05,8e-05,-0.00039,3e-05,5e-05,3,10
11068,0.00015,1e-05,5e-05,1e-05,8e-05,-0.00039,3e-05,5e-05,3,10
11069,0.00015,1e-05,5e-05,1e-05,8e-05,-0.00039,3e-05,5e-05,3,10
11070,0.00015,1e-05,5e-05,1e-05,8e-05,-0.00039,3e-05,5e-05,3,10
11071,0.00015,1e-05,5e-05,1e-05,8e-05,-0.00039,3e-05,5e-05,3,10
11072,0.00015,1e-05,5e-05,1e-05,8e-05,-0.00039,3e-05,5e-05,3,10
11073,0.00015,1e-05,5e-05,1e-05,8e-05,-0.00039,3e-05,5e-05,3,10
11074,0.00015,1e-05,5e-05,1e-05,8e-05,-0.00039,3e-05,5e-05,3,10
11075,0.00015,1e-05,5e-05,1e-05,8e-05,-0.00039,3e-05,5e-05,3,10
11076,0.00015,1e-05,5e-05,1e-05,8e-05,-0.00039,3e-05,5e-05,3,10
11077,0.00015,1e-05,5e-05,1e-05,8e-05,-0.00039,3e-05,5e-05,3,10
11078,0.00015,1e-05,5e-05,1e-05,8e-05,-0.00039,3e-05,5e-05,3,10
11079,0.00015,1e-05,5e-05,1e-05,8e-05,-0.00039,3e-05,5e-05,3,10
11080,0.00015,1e-05,5e-05,1e-05,8e-05,-0.00039,3e-05,5e-05,3,10
11081,0.00015,1e-05,5e-05,1e-05,8e-05,-0.00039,3e-05,5e-05,3,10
11082,0.00015,1e-05,5e-05,1e-05,8e-05,-0.00039,3e-05,5e-05,3,10
11083,0.00015,1e-05,5e-05,1e-05,8e-05,-0.00039,3e-05,5e-05,3,10
11084,-3e-05,-3e-05,-3e-05,1e-05,-3e-05,4e-05,2e-05,4e-05,3,10
11085,4e-05,0,-1e-05,-2e-05,0.00022,0,-0.00015,-9e-05,3,10
11086,4e-05,0,-1e-05,-2e-05,0.00022,0,-0.00015,-9e-05,3,10
11088,4e-05,0,-1e-05,-2e-05,0.00022,0,-0.00015,-9e-05,3,10
11089,4e-05,0,-1e-05,-2e-05,0.00022,0,-0.00015,-9e-05,3,10
11090,4e-05,0,-1e-05,-2e-05,0.00022,0,-0.00015,-9e-05,3,10
11091,4e-05,0,-1e-05,-2e-05,0.00022,0,-0.00015,-9e-05,3,10
11092,4e-05,0,-1e-05,-2e-05,0.00022,0,-0.00015,-9e-05,3,10
11093,4e-05,0,-1e-05,-2e-05,0.00022,0,-0.00015,-9e-05,3,10
11094,4e-05,0,-1e-05,-2e-05,0.00022,0,-0.00015,-9e-05,3,10
11095,4e-05,0,-1e-05,-2e-05,0.00022,0,-0.00015,-9e-05,3,10
11096,4e-05,0,-1e-05,-2e-05,0.00022,0,-0.00015,-9e-05,3,10
11097,4e-05,0,-1e-05,-2e-05,0.00022,0,-0.00015,-9e-05,3,10
11098,4e-05,0,-1e-05,-2e-05,0.00022,0,-0.00015,-9e-05,3,10
11099,4e-05,0,-1e-05,-2e-05,0.00022,0,-0.00015,-9e-05,3,10
11100,4e-05,0,-1e-05,-2e-05,0.00022,0,-0.00015,-9e-05,3,10
11101,4e-05,0,-1e-05,-2e-05,0.00022,0,-0.00015,-9e-05,3,10
11102,4e-05,0,-1e-05,-2e-05,0.00022,0,-0.00015,-9e-05,3,10
11104,4e-05,0,-1e-05,-2e-05,0.00022,0,-0.00015,-9e-05,3,10
11105,4e-05,0,-1e-05,-2e-05,0.00022,0,-0.00015,-9e-05,3,10
11106,-3e-05,3e-05,5e-05,0.00012,9e-05,0.00015,0.00017,-1e-05,3,10
11107,-7e-05,-1e-05,-6e-05,-9e-05,-0.0001,-0.00012,-1e-05,1e-05,3,10
11108,3e-05,1e-05,0,-1e-05,4e-05,0.00043,4e-05,0,3,10
11109,3e-05,1e-05,0,-1e-05,4e-05,0.00043,4e-05,0,3,10
11110,3e-05,1e-05,0,-1e-05,4e-05,0.00043,4e-05,0,3,10
11111,3e-05,1e-05,0,-1e-05,4e-05,0.00043,4e-05,0,3,10
11112,3e-05,1e-05,0,-1e-05,4e-05,0.00043,4e-05,0,3,10
11113,3e-05,1e-05,0,-1e-05,4e-05,0.00043,4e-05,0,3,10
11114,3e-05,1e-05,0,-1e-05,4e-05,0.00043,4e-05,0,3,10
11115,3e-05,1e-05,0,-1e-05,4e-05,0.00043,4e-05,0,3,10
11116,3e-05,1e-05,0,-1e-05,4e-05,0.00043,4e-05,0,3,10
11117,3e-05,1e-05,0,-1e-05,4e-05,0.00043,4e-05,0,3,10
11118,3e-05,1e-05,0,-1e-05,4e-05,0.00043,4e-05,0,3,10
11119,3e-05,1e-05,0,-1e-05,4e-05,0.00043,4e-05,0,3,10
11120,3e-05,1e-05,0,-1e-05,4e-05,0.00043,4e-05,0,3,10
11121,3e-05,1e-05,0,-1e-05,4e-05,0.00043,4e-05,0,3,10
11122,-0.00011,0,-1e-05,2e-05,-1e-05,0.00032,0.00015,-7e-05,3,10
11123,-0.00011,0,-1e-05,2e-05,-1e-05,0.00032,0.00015,-7e-05,3,10
11124,-0.00011,0,-1e-05,2e-05,-1e-05,0.00032,0.00015,-7e-05,3,10
11125,-0.00011,0,-1e-05,2e-05,-1e-05,0.00032,0.00015,-7e-05,3,10
11126,-0.00011,0,-1e-05,2e-05,-1e-05,0.00032,0.00015,-7e-05,3,10
11127,-0.00011,0,-1e-05,2e-05,-1e-05,0.00032,0.00015,-7e-05,3,10
11128,-5e-05,-3e-05,-4e-05,1e-05,-0.00013,-0.00039,-6e-05,-6e-05,3,10
11129,-5e-05,-3e-05,-4e-05,1e-05,-0.00013,-0.00039,-6e-05,-6e-05,3,10
11130,-5e-05,-3e-05,-4e-05,1e-05,-0.00013,-0.00039,-6e-05,-6e-05,3,10
11131,-5e-05,-3e-05,-4e-05,1e-05,-0.00013,-0.00039,-6e-05,-6e-05,3,10
11132,-5e-05,-3e-05,-4e-05,1e-05,-0.00013,-0.00039,-6e-05,-6e-05,3,10
11133,-5e-05,-3e-05,-4e-05,1e-05,-0.00013,-0.00039,-6e-05,-6e-05,3,10
11134,-5e-05,-3e-05,-4e-05,1e-05,-0.00013,-0.00039,-6e-05,-6e-05,3,10
11135,-5e-05,-3e-05,-4e-05,1e-05,-0.00013,-0.00039,-6e-05,-6e-05,3,10
11136,-5e-05,-3e-05,-4e-05,1e-05,-0.00013,-0.00039,-6e-05,-6e-05,3,10
11138,-5e-05,-3e-05,-4e-05,1e-05,-0.00013,-0.00039,-6e-05,-6e-05,3,10
11139,-5e-05,-3e-05,-4e-05,1e-05,-0.00013,-0.00039,-6e-05,-6e-05,3,10
11140,-5e-05,-3e-05,-4e-05,1e-05,-0.00013,-0.00039,-6e-05,-6e-05,3,10
11141,-5e-05,-3e-05,-4e-05,1e-05,-0.00013,-0.00039,-6e-05,-6e-05,3,10
11142,-5e-05,-3e-05,-4e-05,1e-05,-0.00013,-0.00039,-6e-05,-6e-05,3,10
11143,-5e-05,-3e-05,-4e-05,1e-05,-0.00013,-0.00039,-6e-05,-6e-05,3,10
11144,-4e-05,-1e-05,-1e-05,0,-0.00012,-3e-05,4e-05,-2e-05,3,10
11145,-4e-05,-1e-05,-1e-05,0,-0.00012,-3e-05,4e-05,-2e-05,3,10
11146,-2e-05,-4e-05,-2e-05,-9e-05,-0.00012,-0.00028,-2e-05,-3e-05,3,10
11147,-2e-05,-4e-05,-2e-05,-9e-05,-0.00012,-0.00028,-2e-05,-3e-05,3,10
11148,-2e-05,-4e-05,-2e-05,-9e-05,-0.00012,-0.00028,-2e-05,-3e-05,3,10
11149,-2e-05,-4e-05,-2e-05,-9e-05,-0.00012,-0.00028,-2e-05,-3e-05,3,10
11150,-2e-05,-4e-05,-2e-05,-9e-05,-0.00012,-0.00028,-2e-05,-3e-05,3,10
11151,-2e-05,-4e-05,-2e-05,-9e-05,-0.00012,-0.00028,-2e-05,-3e-05,3,10
11152,-2e-05,-4e-05,-2e-05,-9e-05,-0.00012,-0.00028,-2e-05,-3e-05,3,10
11153,-2e-05,-4e-05,-2e-05,-9e-05,-0.00012,-0.00028,-2e-05,-3e-05,3,10
11154,-2e-05,-4e-05,-2e-05,-9e-05,-0.00012,-0.00028,-2e-05,-3e-05,3,10
11155,-2e-05,-4e-05,-2e-05,-9e-05,-0.00012,-0.00028,-2e-05,-3e-05,3,10
11156,-2e-05,-4e-05,-2e-05,-9e-05,-0.00012,-0.00028,-2e-05,-3e-05,3,10
11157,-2e-05,-4e-05,-2e-05,-9e-05,-0.00012,-0.00028,-2e-05,-3e-05,3,10
11158,-2e-05,-4e-05,-2e-05,-9e-05,-0.00012,-0.00028,-2e-05,-3e-05,3,10
11159,-2e-05,-4e-05,-2e-05,-9e-05,-0.00012,-0.00028,-2e-05,-3e-05,3,10
11160,-2e-05,-4e-05,-2e-05,-9e-05,-0.00012,-0.00028,-2e-05,-3e-05,3,10
11161,-2e-05,-4e-05,-2e-05,-9e-05,-0.00012,-0.00028,-2e-05,-3e-05,3,10
11162,-2e-05,-4e-05,-2e-05,-9e-05,-0.00012,-0.00028,-2e-05,-3e-05,3,10
11163,-2e-05,-4e-05,-2e-05,-9e-05,-0.00012,-0.00028,-2e-05,-3e-05,3,10
11164,-2e-05,-4e-05,-2e-05,-9e-05,-0.00012,-0.00028,-2e-05,-3e-05,3,10
11165,-2e-05,-4e-05,-2e-05,-9e-05,-0.00012,-0.00028,-2e-05,-3e-05,3,10
11166,2e-05,-2e-05,0,0.0001,9e-05,0.00019,3e-05,3e-05,3,10
11167,0.00039,0,-4e-05,1e-05,-3e-05,0.00026,5e-05,5e-05,3,10
11168,0.00039,0,-4e-05,1e-05,-3e-05,0.00026,5e-05,5e-05,3,10
11169,0.00039,0,-4e-05,1e-05,-3e-05,0.00026,5e-05,5e-05,3,10
11170,0.00039,0,-4e-05,1e-05,-3e-05,0.00026,5e-05,5e-05,3,10
11171,0.00039,0,-4e-05,1e-05,-3e-05,0.00026,5e-05,5e-05,3,10
11172,0.00039,0,-4e-05,1e-05,-3e-05,0.00026,5e-05,5e-05,3,10
11173,0.00039,0,-4e-05,1e-05,-3e-05,0.00026,5e-05,5e-05,3,10
11174,0.00039,0,-4e-05,1e-05,-3e-05,0.00026,5e-05,5e-05,3,10
11175,0.00039,0,-4e-05,1e-05,-3e-05,0.00026,5e-05,5e-05,3,10
11176,0.00039,0,-4e-05,1e-05,-3e-05,0.00026,5e-05,5e-05,3,10
11177,0.00039,0,-4e-05,1e-05,-3e-05,0.00026,5e-05,5e-05,3,10
11178,0.00039,0,-4e-05,1e-05,-3e-05,0.00026,5e-05,5e-05,3,10
11179,0.00039,0,-4e-05,1e-05,-3e-05,0.00026,5e-05,5e-05,3,10
11180,0.00039,0,-4e-05,1e-05,-3e-05,0.00026,5e-05,5e-05,3,10
11181,9e-05,-1e-05,1e-05,5e-05,5e-05,-0.00039,7e-05,4e-05,3,10
11182,-3e-05,-2e-05,0,1e-05,-2e-05,0.00028,7e-05,1e-05,3,10
11183,-3e-05,-2e-05,0,1e-05,-2e-05,0.00028,7e-05,1e-05,3,10
11184,-3e-05,-2e-05,0,1e-05,-2e-05,0.00028,7e-05,1e-05,3,10
11185,-3e-05,-2e-05,0,1e-05,-2e-05,0.00028,7e-05,1e-05,3,10
11186,-3e-05,-2e-05,0,1e-05,-2e-05,0.00028,7e-05,1e-05,3,10
11188,-3e-05,-2e-05,0,1e-05,-2e-05,0.00028,7e-05,1e-05,3,10
11189,-3e-05,-2e-05,0,1e-05,-2e-05,0.00028,7e-05,1e-05,3,10
11190,-3e-05,-2e-05,0,1e-05,-2e-05,0.00028,7e-05,1e-05,3,10
11191,-3e-05,-2e-05,0,1e-05,-2e-05,0.00028,7e-05,1e-05,3,10
11192,-3e-05,-2e-05,0,1e-05,-2e-05,0.00028,7e-05,1e-05,3,10
11193,-3e-05,-2e-05,0,1e-05,-2e-05,0.00028,7e-05,1e-05,3,10
11194,-3e-05,-2e-05,0,1e-05,-2e-05,0.00028,7e-05,1e-05,3,10
11195,-3e-05,-2e-05,0,1e-05,-2e-05,0.00028,7e-05,1e-05,3,10
11196,-3e-05,-2e-05,0,1e-05,-2e-05,0.00028,7e-05,1e-05,3,10
11197,-3e-05,-2e-05,0,1e-05,-2e-05,0.00028,7e-05,1e-05,3,10
11198,-3e-05,-2e-05,0,1e-05,-2e-05,0.00028,7e-05,1e-05,3,10
11199,-3e-05,-2e-05,0,1e-05,-2e-05,0.00028,7e-05,1e-05,3,10
11200,-3e-05,-2e-05,0,1e-05,-2e-05,0.00028,7e-05,1e-05,3,10
11201,-3e-05,-2e-05,0,1e-05,-2e-05,0.00028,7e-05,1e-05,3,10
11202,-3e-05,-2e-05,0,1e-05,-2e-05,0.00028,7e-05,1e-05,3,10
11203,0,5e-05,2e-05,-4e-05,-3e-05,-6e-05,9e-05,2e-05,3,10
11204,-0.00021,-5e-05,-2e-05,6e-05,0.00011,0,-0.00017,-3e-05,3,10
11205,-0.00015,-3e-05,0,0.00012,6e-05,0.00024,-6e-05,-4e-05,3,10
11206,-0.00015,-3e-05,0,0.00012,6e-05,0.00024,-6e-05,-4e-05,3,10
11207,-0.00015,-3e-05,0,0.00012,6e-05,0.00024,-6e-05,-4e-05,3,10
11208,-0.00015,-3e-05,0,0.00012,6e-05,0.00024,-6e-05,-4e-05,3,10
11209,-0.00015,-3e-05,0,0.00012,6e-05,0.00024,-6e-05,-4e-05,3,10
11210,-0.00015,-3e-05,0,0.00012,6e-05,0.00024,-6e-05,-4e-05,3,10
11211,-0.00015,-3e-05,0,0.00012,6e-05,0.00024,-6e-05,-4e-05,3,10
11212,-0.00015,-3e-05,0,0.00012,6e-05,0.00024,-6e-05,-4e-05,3,10
11213,-0.00015,-3e-05,0,0.00012,6e-05,0.00024,-6e-05,-4e-05,3,10
11214,-0.00015,-3e-05,0,0.00012,6e-05,0.00024,-6e-05,-4e-05,3,10
11215,-0.00015,-3e-05,0,0.00012,6e-05,0.00024,-6e-05,-4e-05,3,10
11216,-0.00015,-3e-05,0,0.00012,6e-05,0.00024,-6e-05,-4e-05,3,10
11217,-0.00015,-3e-05,0,0.00012,6e-05,0.00024,-6e-05,-4e-05,3,10
11218,-0.00015,-3e-05,0,0.00012,6e-05,0.00024,-6e-05,-4e-05,3,10
11219,-0.00015,-3e-05,0,0.00012,6e-05,0.00024,-6e-05,-4e-05,3,10
11220,-0.00015,-3e-05,0,0.00012,6e-05,0.00024,-6e-05,-4e-05,3,10
11221,-0.00015,-3e-05,0,0.00012,6e-05,0.00024,-6e-05,-4e-05,3,10
11222,-0.00015,-3e-05,0,0.00012,6e-05,0.00024,-6e-05,-4e-05,3,10
11223,-0.00015,-3e-05,0,0.00012,6e-05,0.00024,-6e-05,-4e-05,3,10
11224,-0.00015,-3e-05,0,0.00012,6e-05,0.00024,-6e-05,-4e-05,3,10
11225,-0.00015,-3e-05,0,0.00012,6e-05,0.00024,-6e-05,-4e-05,3,10
11226,-0.00015,-3e-05,0,0.00012,6e-05,0.00024,-6e-05,-4e-05,3,10
11227,-2e-05,1e-05,0,2e-05,-2e-05,1e-05,0,1e-05,3,10
11228,9e-05,-2e-05,-5e-05,-0.00015,-0.00013,-0.0001,6e-05,7e-05,3,10
11229,9e-05,-2e-05,-5e-05,-0.00015,-0.00013,-0.0001,6e-05,7e-05,3,10
11230,9e-05,-2e-05,-5e-05,-0.00015,-0.00013,-0.0001,6e-05,7e-05,3,10
11231,9e-05,-2e-05,-5e-05,-0.00015,-0.00013,-0.0001,6e-05,7e-05,3,10
11232,9e-05,-2e-05,-5e-05,-0.00015,-0.00013,-0.0001,6e-05,7e-05,3,10
11233,9e-05,-2e-05,-5e-05,-0.00015,-0.00013,-0.0001,6e-05,7e-05,3,10
11234,9e-05,-2e-05,-5e-05,-0.00015,-0.00013,-0.0001,6e-05,7e-05,3,10
11235,9e-05,-2e-05,-5e-05,-0.00015,-0.00013,-0.0001,6e-05,7e-05,3,10
11237,9e-05,-2e-05,-5e-05,-0.00015,-0.00013,-0.0001,6e-05,7e-05,3,10
11240,9e-05,-2e-05,-5e-05,-0.00015,-0.00013,-0.0001,6e-05,7e-05,3,10
11241,9e-05,-2e-05,-5e-05,-0.00015,-0.00013,-0.0001,6e-05,7e-05,3,10
11242,9e-05,-2e-05,-5e-05,-0.00015,-0.00013,-0.0001,6e-05,7e-05,3,10
11243,9e-05,-2e-05,-5e-05,-0.00015,-0.00013,-0.0001,6e-05,7e-05,3,10
11244,9e-05,-2e-05,-5e-05,-0.00015,-0.00013,-0.0001,6e-05,7e-05,3,10
11245,9e-05,-2e-05,-5e-05,-0.00015,-0.00013,-0.0001,6e-05,7e-05,3,10
11246,9e-05,-2e-05,-5e-05,-0.00015,-0.00013,-0.0001,6e-05,7e-05,3,10
11247,9e-05,-2e-05,-5e-05,-0.00015,-0.00013,-0.0001,6e-05,7e-05,3,10
11248,9e-05,-2e-05,-5e-05,-0.00015,-0.00013,-0.0001,6e-05,7e-05,3,10
11249,0.00011,-6e-05,-7e-05,-8e-05,-0.00024,-0.00028,0.00014,-3e-05,3,10
11250,0.00011,-6e-05,-7e-05,-8e-05,-0.00024,-0.00028,0.00014,-3e-05,3,10
11251,-3e-05,0,4e-05,4e-05,-1e-05,-5e-05,3e-05,-2e-05,3,10
11252,-3e-05,0,4e-05,4e-05,-1e-05,-5e-05,3e-05,-2e-05,3,10
11254,-3e-05,0,4e-05,4e-05,-1e-05,-5e-05,3e-05,-2e-05,3,10
11255,-3e-05,0,4e-05,4e-05,-1e-05,-5e-05,3e-05,-2e-05,3,10
11256,-3e-05,0,4e-05,4e-05,-1e-05,-5e-05,3e-05,-2e-05,3,10
11257,-3e-05,0,4e-05,4e-05,-1e-05,-5e-05,3e-05,-2e-05,3,10
11258,-3e-05,0,4e-05,4e-05,-1e-05,-5e-05,3e-05,-2e-05,3,10
11259,-3e-05,0,4e-05,4e-05,-1e-05,-5e-05,3e-05,-2e-05,3,10
11260,-3e-05,0,4e-05,4e-05,-1e-05,-5e-05,3e-05,-2e-05,3,10
11261,-3e-05,0,4e-05,4e-05,-1e-05,-5e-05,3e-05,-2e-05,3,10
11262,-3e-05,0,4e-05,4e-05,-1e-05,-5e-05,3e-05,-2e-05,3,10
11263,-3e-05,0,4e-05,4e-05,-1e-05,-5e-05,3e-05,-2e-05,3,10
11264,7e-05,-2e-05,-6e-05,-0.0001,-0.00011,-0.0003,-0.00016,-2e-05,3,10
11265,7e-05,-2e-05,-6e-05,-0.0001,-0.00011,-0.0003,-0.00016,-2e-05,3,10
11266,-0.00013,-2e-05,-4e-05,-0.00016,0.00032,0.00017,1e-05,-2e-05,3,10
11267,-0.00013,-2e-05,-4e-05,-0.00016,0.00032,0.00017,1e-05,-2e-05,3,10
11268,-0.00013,-2e-05,-4e-05,-0.00016,0.00032,0.00017,1e-05,-2e-05,3,10
11269,-0.00013,-2e-05,-4e-05,-0.00016,0.00032,0.00017,1e-05,-2e-05,3,10
11270,-0.00013,-2e-05,-4e-05,-0.00016,0.00032,0.00017,1e-05,-2e-05,3,10
11271,-0.00013,-2e-05,-4e-05,-0.00016,0.00032,0.00017,1e-05,-2e-05,3,10
11272,-0.00013,-2e-05,-4e-05,-0.00016,0.00032,0.00017,1e-05,-2e-05,3,10
11273,-0.00013,-2e-05,-4e-05,-0.00016,0.00032,0.00017,1e-05,-2e-05,3,10
11274,-0.00013,-2e-05,-4e-05,-0.00016,0.00032,0.00017,1e-05,-2e-05,3,10
11275,-0.00013,-2e-05,-4e-05,-0.00016,0.00032,0.00017,1e-05,-2e-05,3,10
11276,-0.00013,-2e-05,-4e-05,-0.00016,0.00032,0.00017,1e-05,-2e-05,3,10
11277,-0.00013,-2e-05,-4e-05,-0.00016,0.00032,0.00017,1e-05,-2e-05,3,10
11278,-0.00013,-2e-05,-4e-05,-0.00016,0.00032,0.00017,1e-05,-2e-05,3,10
11279,-0.00013,-2e-05,-4e-05,-0.00016,0.00032,0.00017,1e-05,-2e-05,3,10
11280,-0.00013,-2e-05,-4e-05,-0.00016,0.00032,0.00017,1e-05,-2e-05,3,10
11281,-0.00013,-2e-05,-4e-05,-0.00016,0.00032,0.00017,1e-05,-2e-05,3,10
11282,-0.00013,-2e-05,-4e-05,-0.00016,0.00032,0.00017,1e-05,-2e-05,3,10
11283,-0.00013,-2e-05,-4e-05,-0.00016,0.00032,0.00017,1e-05,-2e-05,3,10
11284,-0.00013,-2e-05,-4e-05,-0.00016,0.00032,0.00017,1e-05,-2e-05,3,10
11285,-0.00013,-2e-05,-4e-05,-0.00016,0.00032,0.00017,1e-05,-2e-05,3,10
11287,2e-05,3e-05,5e-05,-0.00013,6e-05,0.00043,1e-05,-1e-05,3,10
11290,-0.00015,-1e-05,-6e-05,-0.00016,-0.00016,0.00051,4e-05,-7e-05,3,10
11291,-0.00015,-1e-05,-6e-05,-0.00016,-0.00016,0.00051,4e-05,-7e-05,3,10
11292,-0.00015,-1e-05,-6e-05,-0.00016,-0.00016,0.00051,4e-05,-7e-05,3,10
11293,-0.00015,-1e-05,-6e-05,-0.00016,-0.00016,0.00051,4e-05,-7e-05,3,10
11294,-0.00015,-1e-05,-6e-05,-0.00016,-0.00016,0.00051,4e-05,-7e-05,3,10
11295,-0.00015,-1e-05,-6e-05,-0.00016,-0.00016,0.00051,4e-05,-7e-05,3,10
11296,-0.00015,-1e-05,-6e-05,-0.00016,-0.00016,0.00051,4e-05,-7e-05,3,10
11297,-0.00015,-1e-05,-6e-05,-0.00016,-0.00016,0.00051,4e-05,-7e-05,3,10
11298,-0.00015,-1e-05,-6e-05,-0.00016,-0.00016,0.00051,4e-05,-7e-05,3,10
11299,-0.00015,-1e-05,-6e-05,-0.00016,-0.00016,0.00051,4e-05,-7e-05,3,10
11300,3e-05,-2e-05,-3e-05,-0.00012,-1e-05,7e-05,5e-05,1e-05,3,10
11301,3e-05,-2e-05,-3e-05,-0.00012,-1e-05,7e-05,5e-05,1e-05,3,10
11302,3e-05,-2e-05,-3e-05,-0.00012,-1e-05,7e-05,5e-05,1e-05,3,10
11304,3e-05,-2e-05,-3e-05,-0.00012,-1e-05,7e-05,5e-05,1e-05,3,10
11305,3e-05,-2e-05,-3e-05,-0.00012,-1e-05,7e-05,5e-05,1e-05,3,10
11306,3e-05,-2e-05,-3e-05,-0.00012,-1e-05,7e-05,5e-05,1e-05,3,10
11307,3e-05,-2e-05,-3e-05,-0.00012,-1e-05,7e-05,5e-05,1e-05,3,10
11308,3e-05,-2e-05,-3e-05,-0.00012,-1e-05,7e-05,5e-05,1e-05,3,10
11309,0.00015,3e-05,6e-05,0.00016,0.0001,0.00024,-6e-05,0.00011,3,10
11310,-5e-05,-5e-05,-0.00029,-7e-05,-0.00015,-2e-05,5e-05,1e-05,3,10
11311,-5e-05,-5e-05,-0.00029,-7e-05,-0.00015,-2e-05,5e-05,1e-05,3,10
11312,-5e-05,-5e-05,-0.00029,-7e-05,-0.00015,-2e-05,5e-05,1e-05,3,10
11313,-5e-05,-5e-05,-0.00029,-7e-05,-0.00015,-2e-05,5e-05,1e-05,3,10
11314,-5e-05,-5e-05,-0.00029,-7e-05,-0.00015,-2e-05,5e-05,1e-05,3,10
11315,-5e-05,-5e-05,-0.00029,-7e-05,-0.00015,-2e-05,5e-05,1e-05,3,10
11316,-5e-05,-5e-05,-0.00029,-7e-05,-0.00015,-2e-05,5e-05,1e-05,3,10
11317,-5e-05,-5e-05,-0.00029,-7e-05,-0.00015,-2e-05,5e-05,1e-05,3,10
11318,-5e-05,-5e-05,-0.00029,-7e-05,-0.00015,-2e-05,5e-05,1e-05,3,10
11319,-5e-05,-5e-05,-0.00029,-7e-05,-0.00015,-2e-05,5e-05,1e-05,3,10
11320,-5e-05,-5e-05,-0.00029,-7e-05,-0.00015,-2e-05,5e-05,1e-05,3,10
11321,-5e-05,-5e-05,-0.00029,-7e-05,-0.00015,-2e-05,5e-05,1e-05,3,10
11322,-5e-05,-5e-05,-0.00029,-7e-05,-0.00015,-2e-05,5e-05,1e-05,3,10
11323,-5e-05,-5e-05,-0.00029,-7e-05,-0.00015,-2e-05,5e-05,1e-05,3,10
11324,0.00011,6e-05,5e-05,-0.00012,-0.00018,1e-05,2e-05,0,3,10
11325,-0.00013,-6e-05,-1e-05,6e-05,0,1e-05,3e-05,0,3,10
11326,-4e-05,1e-05,5e-05,0.0001,0.0002,-0.00022,-0.00013,-4e-05,3,10
11327,-4e-05,1e-05,5e-05,0.0001,0.0002,-0.00022,-0.00013,-4e-05,3,10
11328,-4e-05,1e-05,5e-05,0.0001,0.0002,-0.00022,-0.00013,-4e-05,3,10
11329,-4e-05,1e-05,5e-05,0.0001,0.0002,-0.00022,-0.00013,-4e-05,3,10
11330,-4e-05,1e-05,5e-05,0.0001,0.0002,-0.00022,-0.00013,-4e-05,3,10
11331,-4e-05,1e-05,5e-05,0.0001,0.0002,-0.00022,-0.00013,-4e-05,3,10
11332,-4e-05,1e-05,5e-05,0.0001,0.0002,-0.00022,-0.00013,-4e-05,3,10
11333,-4e-05,1e-05,5e-05,0.0001,0.0002,-0.00022,-0.00013,-4e-05,3,10
11334,-4e-05,1e-05,5e-05,0.0001,0.0002,-0.00022,-0.00013,-4e-05,3,10
11335,-4e-05,1e-05,5e-05,0.0001,0.0002,-0.00022,-0.00013,-4e-05,3,10
11336,-4e-05,1e-05,5e-05,0.0001,0.0002,-0.00022,-0.00013,-4e-05,3,10
11339,-4e-05,1e-05,5e-05,0.0001,0.0002,-0.00022,-0.00013,-4e-05,3,10
11340,-4e-05,1e-05,5e-05,0.0001,0.0002,-0.00022,-0.00013,-4e-05,3,10
11341,-4e-05,1e-05,5e-05,0.0001,0.0002,-0.00022,-0.00013,-4e-05,3,10
11342,-4e-05,1e-05,5e-05,0.0001,0.0002,-0.00022,-0.00013,-4e-05,3,10
11343,-4e-05,1e-05,5e-05,0.0001,0.0002,-0.00022,-0.00013,-4e-05,3,10
11344,-4e-05,1e-05,5e-05,0.0001,0.0002,-0.00022,-0.00013,-4e-05,3,10
11345,-4e-05,1e-05,5e-05,0.0001,0.0002,-0.00022,-0.00013,-4e-05,3,10
11346,-4e-05,1e-05,5e-05,0.0001,0.0002,-0.00022,-0.00013,-4e-05,3,10
11347,2e-05,-6e-05,-5e-05,0.00017,0.00028,6e-05,-7e-05,2e-05,3,10
11348,1e-05,5e-05,0.00014,0.0001,0.0001,-0.00031,-4e-05,2e-05,3,10
11349,1e-05,5e-05,0.00014,0.0001,0.0001,-0.00031,-4e-05,2e-05,3,10
11350,1e-05,5e-05,0.00014,0.0001,0.0001,-0.00031,-4e-05,2e-05,3,10
11351,1e-05,5e-05,0.00014,0.0001,0.0001,-0.00031,-4e-05,2e-05,3,10
11352,1e-05,5e-05,0.00014,0.0001,0.0001,-0.00031,-4e-05,2e-05,3,10
11353,1e-05,5e-05,0.00014,0.0001,0.0001,-0.00031,-4e-05,2e-05,3,10
11354,1e-05,5e-05,0.00014,0.0001,0.0001,-0.00031,-4e-05,2e-05,3,10
11355,1e-05,5e-05,0.00014,0.0001,0.0001,-0.00031,-4e-05,2e-05,3,10
11356,1e-05,5e-05,0.00014,0.0001,0.0001,-0.00031,-4e-05,2e-05,3,10
11357,1e-05,5e-05,0.00014,0.0001,0.0001,-0.00031,-4e-05,2e-05,3,10
11358,1e-05,5e-05,0.00014,0.0001,0.0001,-0.00031,-4e-05,2e-05,3,10
11359,1e-05,5e-05,0.00014,0.0001,0.0001,-0.00031,-4e-05,2e-05,3,10
11360,1e-05,5e-05,0.00014,0.0001,0.0001,-0.00031,-4e-05,2e-05,3,10
11361,1e-05,5e-05,0.00014,0.0001,0.0001,-0.00031,-4e-05,2e-05,3,10
11362,1e-05,5e-05,0.00014,0.0001,0.0001,-0.00031,-4e-05,2e-05,3,10
11363,1e-05,5e-05,0.00014,0.0001,0.0001,-0.00031,-4e-05,2e-05,3,10
11364,1e-05,5e-05,0.00014,0.0001,0.0001,-0.00031,-4e-05,2e-05,3,10
11365,1e-05,5e-05,0.00014,0.0001,0.0001,-0.00031,-4e-05,2e-05,3,10
11366,1e-05,5e-05,0.00014,0.0001,0.0001,-0.00031,-4e-05,2e-05,3,10
11367,1e-05,5e-05,0.00014,0.0001,0.0001,-0.00031,-4e-05,2e-05,3,10
11368,1e-05,5e-05,0.00014,0.0001,0.0001,-0.00031,-4e-05,2e-05,3,10
11369,-9e-05,0,1e-05,-7e-05,0.00024,0.00054,0.00027,-2e-05,3,10
11370,-9e-05,0,1e-05,-7e-05,0.00024,0.00054,0.00027,-2e-05,3,10
11371,-2e-05,-6e-05,-5e-05,-2e-05,-0.00012,-0.0001,-2e-05,-5e-05,3,10
11372,-2e-05,-6e-05,-5e-05,-2e-05,-0.00012,-0.0001,-2e-05,-5e-05,3,10
11373,-2e-05,-6e-05,-5e-05,-2e-05,-0.00012,-0.0001,-2e-05,-5e-05,3,10
11375,-2e-05,-6e-05,-5e-05,-2e-05,-0.00012,-0.0001,-2e-05,-5e-05,3,10
11376,-2e-05,-6e-05,-5e-05,-2e-05,-0.00012,-0.0001,-2e-05,-5e-05,3,10
11377,-2e-05,-6e-05,-5e-05,-2e-05,-0.00012,-0.0001,-2e-05,-5e-05,3,10
11378,-2e-05,-6e-05,-5e-05,-2e-05,-0.00012,-0.0001,-2e-05,-5e-05,3,10
11379,-2e-05,-6e-05,-5e-05,-2e-05,-0.00012,-0.0001,-2e-05,-5e-05,3,10
11380,-2e-05,-6e-05,-5e-05,-2e-05,-0.00012,-0.0001,-2e-05,-5e-05,3,10
11381,-2e-05,-6e-05,-5e-05,-2e-05,-0.00012,-0.0001,-2e-05,-5e-05,3,10
11382,-2e-05,-6e-05,-5e-05,-2e-05,-0.00012,-0.0001,-2e-05,-5e-05,3,10
11383,-2e-05,-6e-05,-5e-05,-2e-05,-0.00012,-0.0001,-2e-05,-5e-05,3,10
11384,9e-05,0,0,0.00011,5e-05,0.00044,0.00013,7e-05,3,10
11385,9e-05,0,0,0.00011,5e-05,0.00044,0.00013,7e-05,3,10
11386,3e-05,3e-05,5e-05,0.00023,-7e-05,-0.00027,-3e-05,0,3,10
11389,3e-05,3e-05,5e-05,0.00023,-7e-05,-0.00027,-3e-05,0,3,10
11390,3e-05,3e-05,5e-05,0.00023,-7e-05,-0.00027,-3e-05,0,3,10
11391,3e-05,3e-05,5e-05,0.00023,-7e-05,-0.00027,-3e-05,0,3,10
11392,3e-05,3e-05,5e-05,0.00023,-7e-05,-0.00027,-3e-05,0,3,10
11393,3e-05,3e-05,5e-05,0.00023,-7e-05,-0.00027,-3e-05,0,3,10
11394,3e-05,3e-05,5e-05,0.00023,-7e-05,-0.00027,-3e-05,0,3,10
11395,3e-05,3e-05,5e-05,0.00023,-7e-05,-0.00027,-3e-05,0,3,10
11396,3e-05,3e-05,5e-05,0.00023,-7e-05,-0.00027,-3e-05,0,3,10
11397,3e-05,3e-05,5e-05,0.00023,-7e-05,-0.00027,-3e-05,0,3,10
11398,3e-05,3e-05,5e-05,0.00023,-7e-05,-0.00027,-3e-05,0,3,10
11399,3e-05,3e-05,5e-05,0.00023,-7e-05,-0.00027,-3e-05,0,3,10
11400,3e-05,3e-05,5e-05,0.00023,-7e-05,-0.00027,-3e-05,0,3,10
11401,3e-05,3e-05,5e-05,0.00023,-7e-05,-0.00027,-3e-05,0,3,10
11402,3e-05,3e-05,5e-05,0.00023,-7e-05,-0.00027,-3e-05,0,3,10
11403,3e-05,3e-05,5e-05,0.00023,-7e-05,-0.00027,-3e-05,0,3,10
11404,3e-05,3e-05,5e-05,0.00023,-7e-05,-0.00027,-3e-05,0,3,10
11405,3e-05,3e-05,5e-05,0.00023,-7e-05,-0.00027,-3e-05,0,3,10
11406,3e-05,3e-05,5e-05,0.00023,-7e-05,-0.00027,-3e-05,0,3,10
11407,3e-05,3e-05,5e-05,0.00023,-7e-05,-0.00027,-3e-05,0,3,10
11408,3e-05,3e-05,5e-05,0.00023,-7e-05,-0.00027,-3e-05,0,3,10
11409,3e-05,3e-05,5e-05,0.00023,-7e-05,-0.00027,-3e-05,0,3,10
11410,3e-05,3e-05,5e-05,0.00023,-7e-05,-0.00027,-3e-05,0,3,10
11411,3e-05,3e-05,5e-05,0.00023,-7e-05,-0.00027,-3e-05,0,3,10
11412,3e-05,3e-05,5e-05,0.00023,-7e-05,-0.00027,-3e-05,0,3,10
11413,3e-05,3e-05,5e-05,0.00023,-7e-05,-0.00027,-3e-05,0,3,10
11414,1e-05,0,-1e-05,0,-3e-05,-0.00026,0.00011,-3e-05,3,10
11415,-7e-05,-4e-05,-8e-05,-7e-05,-7e-05,0.00052,0,-2e-05,3,10
11416,1e-05,-4e-05,-8e-05,-0.00026,-0.00013,-0.00047,-6e-05,-5e-05,3,10
11417,1e-05,-4e-05,-8e-05,-0.00026,-0.00013,-0.00047,-6e-05,-5e-05,3,10
11418,1e-05,-4e-05,-8e-05,-0.00026,-0.00013,-0.00047,-6e-05,-5e-05,3,10
11419,1e-05,-4e-05,-8e-05,-0.00026,-0.00013,-0.00047,-6e-05,-5e-05,3,10
11420,1e-05,-4e-05,-8e-05,-0.00026,-0.00013,-0.00047,-6e-05,-5e-05,3,10
11421,-0.00027,2e-05,2e-05,0.00022,0.00013,0.00019,-8e-05,-5e-05,3,10
11422,-0.00027,2e-05,2e-05,0.00022,0.00013,0.00019,-8e-05,-5e-05,3,10
11423,-0.00027,2e-05,2e-05,0.00022,0.00013,0.00019,-8e-05,-5e-05,3,10
11424,-0.00027,2e-05,2e-05,0.00022,0.00013,0.00019,-8e-05,-5e-05,3,10
11425,-0.00027,2e-05,2e-05,0.00022,0.00013,0.00019,-8e-05,-5e-05,3,10
11426,-0.00027,2e-05,2e-05,0.00022,0.00013,0.00019,-8e-05,-5e-05,3,10
11427,-0.00027,2e-05,2e-05,0.00022,0.00013,0.00019,-8e-05,-5e-05,3,10
11428,2e-05,-5e-05,-4e-05,-0.00012,-1e-05,0.00023,0.0001,1e-05,3,10
11429,2e-05,-5e-05,-4e-05,-0.00012,-1e-05,0.00023,0.0001,1e-05,3,10
11430,2e-05,-5e-05,-4e-05,-0.00012,-1e-05,0.00023,0.0001,1e-05,3,10
11431,2e-05,-5e-05,-4e-05,-0.00012,-1e-05,0.00023,0.0001,1e-05,3,10
11432,2e-05,-5e-05,-4e-05,-0.00012,-1e-05,0.00023,0.0001,1e-05,3,10
11433,2e-05,-5e-05,-4e-05,-0.00012,-1e-05,0.00023,0.0001,1e-05,3,10
11434,2e-05,-5e-05,-4e-05,-0.00012,-1e-05,0.00023,0.0001,1e-05,3,10
11435,2e-05,-5e-05,-4e-05,-0.00012,-1e-05,0.00023,0.0001,1e-05,3,10
11436,2e-05,-5e-05,-4e-05,-0.00012,-1e-05,0.00023,0.0001,1e-05,3,10
11439,2e-05,-5e-05,-4e-05,-0.00012,-1e-05,0.00023,0.0001,1e-05,3,10
11440,2e-05,-5e-05,-4e-05,-0.00012,-1e-05,0.00023,0.0001,1e-05,3,10
11441,2e-05,-5e-05,-4e-05,-0.00012,-1e-05,0.00023,0.0001,1e-05,3,10
11442,2e-05,-5e-05,-4e-05,-0.00012,-1e-05,0.00023,0.0001,1e-05,3,10
11443,2e-05,-5e-05,-4e-05,-0.00012,-1e-05,0.00023,0.0001,1e-05,3,10
11444,-4e-05,-7e-05,-5e-05,-8e-05,9e-05,-8e-05,-0.00011,0,3,10
11445,-4e-05,-7e-05,-5e-05,-8e-05,9e-05,-8e-05,-0.00011,0,3,10
11446,-4e-05,-1e-05,0,-8e-05,3e-05,3e-05,-6e-05,-6e-05,3,10
11447,-4e-05,-1e-05,0,-8e-05,3e-05,3e-05,-6e-05,-6e-05,3,10
11448,-4e-05,-1e-05,0,-8e-05,3e-05,3e-05,-6e-05,-6e-05,3,10
11449,-4e-05,-1e-05,0,-8e-05,3e-05,3e-05,-6e-05,-6e-05,3,10
11450,-4e-05,-1e-05,0,-8e-05,3e-05,3e-05,-6e-05,-6e-05,3,10
11451,-4e-05,-1e-05,0,-8e-05,3e-05,3e-05,-6e-05,-6e-05,3,10
11452,-4e-05,-1e-05,0,-8e-05,3e-05,3e-05,-6e-05,-6e-05,3,10
11453,-4e-05,-1e-05,0,-8e-05,3e-05,3e-05,-6e-05,-6e-05,3,10
11454,-4e-05,-1e-05,0,-8e-05,3e-05,3e-05,-6e-05,-6e-05,3,10
11455,-4e-05,-1e-05,0,-8e-05,3e-05,3e-05,-6e-05,-6e-05,3,10
11456,-4e-05,-1e-05,0,-8e-05,3e-05,3e-05,-6e-05,-6e-05,3,10
11457,-4e-05,-1e-05,0,-8e-05,3e-05,3e-05,-6e-05,-6e-05,3,10
11458,-4e-05,-1e-05,0,-8e-05,3e-05,3e-05,-6e-05,-6e-05,3,10
11459,-4e-05,-1e-05,0,-8e-05,3e-05,3e-05,-6e-05,-6e-05,3,10
11460,-4e-05,-1e-05,0,-8e-05,3e-05,3e-05,-6e-05,-6e-05,3,10
11461,-4e-05,-1e-05,0,-8e-05,3e-05,3e-05,-6e-05,-6e-05,3,10
11462,-4e-05,-1e-05,0,-8e-05,3e-05,3e-05,-6e-05,-6e-05,3,10
11463,-4e-05,-1e-05,0,-8e-05,3e-05,3e-05,-6e-05,-6e-05,3,10
11464,-4e-05,-1e-05,0,-8e-05,3e-05,3e-05,-6e-05,-6e-05,3,10
11465,-4e-05,-1e-05,0,-8e-05,3e-05,3e-05,-6e-05,-6e-05,3,10
11466,-4e-05,-1e-05,0,-8e-05,3e-05,3e-05,-6e-05,-6e-05,3,10
11467,3e-05,-2e-05,-1e-05,1e-05,-0.00032,-0.00036,-4e-05,1e-05,3,10
11468,4e-05,-3e-05,-1e-05,-6e-05,0.00027,0.00025,8e-05,0,3,10
11469,4e-05,-3e-05,-1e-05,-6e-05,0.00027,0.00025,8e-05,0,3,10
11470,4e-05,-3e-05,-1e-05,-6e-05,0.00027,0.00025,8e-05,0,3,10
11471,4e-05,-3e-05,-1e-05,-6e-05,0.00027,0.00025,8e-05,0,3,10
11472,4e-05,-3e-05,-1e-05,-6e-05,0.00027,0.00025,8e-05,0,3,10
11473,4e-05,-3e-05,-1e-05,-6e-05,0.00027,0.00025,8e-05,0,3,10
11474,4e-05,-3e-05,-1e-05,-6e-05,0.00027,0.00025,8e-05,0,3,10
11475,4e-05,-3e-05,-1e-05,-6e-05,0.00027,0.00025,8e-05,0,3,10
11476,4e-05,-3e-05,-1e-05,-6e-05,0.00027,0.00025,8e-05,0,3,10
11477,4e-05,-3e-05,-1e-05,-6e-05,0.00027,0.00025,8e-05,0,3,10
11478,4e-05,-3e-05,-1e-05,-6e-05,0.00027,0.00025,8e-05,0,3,10
11479,4e-05,-3e-05,-1e-05,-6e-05,0.00027,0.00025,8e-05,0,3,10
11480,4e-05,-3e-05,-1e-05,-6e-05,0.00027,0.00025,8e-05,0,3,10
11481,4e-05,-3e-05,-1e-05,-6e-05,0.00027,0.00025,8e-05,0,3,10
11482,-0.00027,-5e-05,-6e-05,-0.00011,8e-05,-0.0002,0.0001,-5e-05,3,10
11483,-0.00027,-5e-05,-6e-05,-0.00011,8e-05,-0.0002,0.0001,-5e-05,3,10
11484,-0.00027,-5e-05,-6e-05,-0.00011,8e-05,-0.0002,0.0001,-5e-05,3,10
11485,-0.00027,-5e-05,-6e-05,-0.00011,8e-05,-0.0002,0.0001,-5e-05,3,10
11486,-0.00027,-5e-05,-6e-05,-0.00011,8e-05,-0.0002,0.0001,-5e-05,3,10
11489,-0.00027,-5e-05,-6e-05,-0.00011,8e-05,-0.0002,0.0001,-5e-05,3,10
11490,-4e-05,2e-05,1e-05,0.00012,5e-05,0.00035,-2e-05,-3e-05,3,10
11492,-4e-05,2e-05,1e-05,0.00012,5e-05,0.00035,-2e-05,-3e-05,3,10
11493,-4e-05,2e-05,1e-05,0.00012,5e-05,0.00035,-2e-05,-3e-05,3,10
11494,-4e-05,2e-05,1e-05,0.00012,5e-05,0.00035,-2e-05,-3e-05,3,10
11495,-4e-05,2e-05,1e-05,0.00012,5e-05,0.00035,-2e-05,-3e-05,3,10
11496,-4e-05,2e-05,1e-05,0.00012,5e-05,0.00035,-2e-05,-3e-05,3,10
11497,-4e-05,2e-05,1e-05,0.00012,5e-05,0.00035,-2e-05,-3e-05,3,10
11498,-4e-05,2e-05,1e-05,0.00012,5e-05,0.00035,-2e-05,-3e-05,3,10
11499,-4e-05,2e-05,1e-05,0.00012,5e-05,0.00035,-2e-05,-3e-05,3,10
11500,-4e-05,2e-05,1e-05,0.00012,5e-05,0.00035,-2e-05,-3e-05,3,10
11501,-4e-05,2e-05,1e-05,0.00012,5e-05,0.00035,-2e-05,-3e-05,3,10
11502,-4e-05,2e-05,1e-05,0.00012,5e-05,0.00035,-2e-05,-3e-05,3,10
11505,0.00024,2e-05,1e-05,0.00018,4e-05,8e-05,-0.00023,-2e-05,3,10
11506,-9e-05,-4e-05,-6e-05,0.0003,-0.00027,-0.00015,0.0001,1e-05,3,10
11507,-9e-05,-4e-05,-6e-05,0.0003,-0.00027,-0.00015,0.0001,1e-05,3,10
11508,-9e-05,-4e-05,-6e-05,0.0003,-0.00027,-0.00015,0.0001,1e-05,3,10
11509,-9e-05,-4e-05,-6e-05,0.0003,-0.00027,-0.00015,0.0001,1e-05,3,10
11510,-9e-05,-4e-05,-6e-05,0.0003,-0.00027,-0.00015,0.0001,1e-05,3,10
11511,-9e-05,-4e-05,-6e-05,0.0003,-0.00027,-0.00015,0.0001,1e-05,3,10
11512,-9e-05,-4e-05,-6e-05,0.0003,-0.00027,-0.00015,0.0001,1e-05,3,10
11513,-9e-05,-4e-05,-6e-05,0.0003,-0.00027,-0.00015,0.0001,1e-05,3,10
11514,-9e-05,-4e-05,-6e-05,0.0003,-0.00027,-0.00015,0.0001,1e-05,3,10
11515,-9e-05,-4e-05,-6e-05,0.0003,-0.00027,-0.00015,0.0001,1e-05,3,10
11516,-9e-05,-4e-05,-6e-05,0.0003,-0.00027,-0.00015,0.0001,1e-05,3,10
11517,-9e-05,-4e-05,-6e-05,0.0003,-0.00027,-0.00015,0.0001,1e-05,3,10
11518,-9e-05,-4e-05,-6e-05,0.0003,-0.00027,-0.00015,0.0001,1e-05,3,10
11519,-9e-05,-4e-05,-6e-05,0.0003,-0.00027,-0.00015,0.0001,1e-05,3,10
11520,-9e-05,-4e-05,-6e-05,0.0003,-0.00027,-0.00015,0.0001,1e-05,3,10
11521,-9e-05,-4e-05,-6e-05,0.0003,-0.00027,-0.00015,0.0001,1e-05,3,10
11522,-9e-05,-4e-05,-6e-05,0.0003,-0.00027,-0.00015,0.0001,1e-05,3,10
11523,-9e-05,-4e-05,-6e-05,0.0003,-0.00027,-0.00015,0.0001,1e-05,3,10
11524,-9e-05,-4e-05,-6e-05,0.0003,-0.00027,-0.00015,0.0001,1e-05,3,10
11525,-9e-05,-4e-05,-6e-05,0.0003,-0.00027,-0.00015,0.0001,1e-05,3,10
11526,-9e-05,-4e-05,-6e-05,0.0003,-0.00027,-0.00015,0.0001,1e-05,3,10
11527,-9e-05,-4e-05,-6e-05,0.0003,-0.00027,-0.00015,0.0001,1e-05,3,10
11528,0.00013,-1e-05,-5e-05,-0.00012,0.00011,0.00042,-0.0001,-5e-05,3,10
11529,0.00013,-1e-05,-5e-05,-0.00012,0.00011,0.00042,-0.0001,-5e-05,3,10
11530,0.00013,-1e-05,-5e-05,-0.00012,0.00011,0.00042,-0.0001,-5e-05,3,10
11531,0.00013,-1e-05,-5e-05,-0.00012,0.00011,0.00042,-0.0001,-5e-05,3,10
11532,0.00013,-1e-05,-5e-05,-0.00012,0.00011,0.00042,-0.0001,-5e-05,3,10
11533,0.00013,-1e-05,-5e-05,-0.00012,0.00011,0.00042,-0.0001,-5e-05,3,10
11534,0.00013,-1e-05,-5e-05,-0.00012,0.00011,0.00042,-0.0001,-5e-05,3,10
11535,0.00013,-1e-05,-5e-05,-0.00012,0.00011,0.00042,-0.0001,-5e-05,3,10
11536,0.00013,-1e-05,-5e-05,-0.00012,0.00011,0.00042,-0.0001,-5e-05,3,10
11539,0.00013,-1e-05,-5e-05,-0.00012,0.00011,0.00042,-0.0001,-5e-05,3,10
11540,0.00013,-1e-05,-5e-05,-0.00012,0.00011,0.00042,-0.0001,-5e-05,3,10
11541,0.00013,-1e-05,-5e-05,-0.00012,0.00011,0.00042,-0.0001,-5e-05,3,10
11542,0.00013,-1e-05,-5e-05,-0.00012,0.00011,0.00042,-0.0001,-5e-05,3,10
11543,0.00013,-1e-05,-5e-05,-0.00012,0.00011,0.00042,-0.0001,-5e-05,3,10
11544,4e-05,3e-05,6e-05,0.00073,0.00025,-4e-05,2e-05,1e-05,3,10
11545,4e-05,3e-05,6e-05,0.00073,0.00025,-4e-05,2e-05,1e-05,3,10
11546,4e-05,3e-05,6e-05,0.00073,0.00025,-4e-05,2e-05,1e-05,3,10
11547,4e-05,3e-05,6e-05,0.00073,0.00025,-4e-05,2e-05,1e-05,3,10
11548,4e-05,3e-05,6e-05,0.00073,0.00025,-4e-05,2e-05,1e-05,3,10
11549,0.0001,4e-05,5e-05,6e-05,-0.00012,-0.00015,-9e-05,5e-05,3,10
11550,0.0001,4e-05,5e-05,6e-05,-0.00012,-0.00015,-9e-05,5e-05,3,10
11551,0.0001,4e-05,5e-05,6e-05,-0.00012,-0.00015,-9e-05,5e-05,3,10
11552,0.0001,4e-05,5e-05,6e-05,-0.00012,-0.00015,-9e-05,5e-05,3,10
11554,0.0001,4e-05,5e-05,6e-05,-0.00012,-0.00015,-9e-05,5e-05,3,10
11555,0.0001,4e-05,5e-05,6e-05,-0.00012,-0.00015,-9e-05,5e-05,3,10
11556,0.0001,4e-05,5e-05,6e-05,-0.00012,-0.00015,-9e-05,5e-05,3,10
11557,0.0001,4e-05,5e-05,6e-05,-0.00012,-0.00015,-9e-05,5e-05,3,10
11558,0.0001,4e-05,5e-05,6e-05,-0.00012,-0.00015,-9e-05,5e-05,3,10
11559,0.0001,4e-05,5e-05,6e-05,-0.00012,-0.00015,-9e-05,5e-05,3,10
11560,0.0001,4e-05,5e-05,6e-05,-0.00012,-0.00015,-9e-05,5e-05,3,10
11561,0.0001,4e-05,5e-05,6e-05,-0.00012,-0.00015,-9e-05,5e-05,3,10
11562,0.0001,4e-05,5e-05,6e-05,-0.00012,-0.00015,-9e-05,5e-05,3,10
11563,0.0001,4e-05,5e-05,6e-05,-0.00012,-0.00015,-9e-05,5e-05,3,10
11564,0.0001,4e-05,5e-05,6e-05,-0.00012,-0.00015,-9e-05,5e-05,3,10
11565,9e-05,2e-05,0,-0.00029,-0.00021,0.00021,0.00013,-2e-05,3,10
11566,3e-05,1e-05,-2e-05,0.00012,0.00023,-0.00014,-7e-05,1e-05,3,10
11567,3e-05,1e-05,-2e-05,0.00012,0.00023,-0.00014,-7e-05,1e-05,3,10
11568,3e-05,1e-05,-2e-05,0.00012,0.00023,-0.00014,-7e-05,1e-05,3,10
11569,3e-05,1e-05,-2e-05,0.00012,0.00023,-0.00014,-7e-05,1e-05,3,10
11570,3e-05,1e-05,-2e-05,0.00012,0.00023,-0.00014,-7e-05,1e-05,3,10
11571,3e-05,1e-05,-2e-05,0.00012,0.00023,-0.00014,-7e-05,1e-05,3,10
11572,3e-05,1e-05,-2e-05,0.00012,0.00023,-0.00014,-7e-05,1e-05,3,10
11573,3e-05,1e-05,-2e-05,0.00012,0.00023,-0.00014,-7e-05,1e-05,3,10
11574,3e-05,1e-05,-2e-05,0.00012,0.00023,-0.00014,-7e-05,1e-05,3,10
11575,3e-05,1e-05,-2e-05,0.00012,0.00023,-0.00014,-7e-05,1e-05,3,10
11576,3e-05,1e-05,-2e-05,0.00012,0.00023,-0.00014,-7e-05,1e-05,3,10
11577,3e-05,1e-05,-2e-05,0.00012,0.00023,-0.00014,-7e-05,1e-05,3,10
11578,3e-05,1e-05,-2e-05,0.00012,0.00023,-0.00014,-7e-05,1e-05,3,10
11579,3e-05,1e-05,-2e-05,0.00012,0.00023,-0.00014,-7e-05,1e-05,3,10
11580,3e-05,1e-05,-2e-05,0.00012,0.00023,-0.00014,-7e-05,1e-05,3,10
11581,3e-05,1e-05,-2e-05,0.00012,0.00023,-0.00014,-7e-05,1e-05,3,10
11582,3e-05,1e-05,-2e-05,0.00012,0.00023,-0.00014,-7e-05,1e-05,3,10
11583,3e-05,1e-05,-2e-05,0.00012,0.00023,-0.00014,-7e-05,1e-05,3,10
11584,3e-05,1e-05,-2e-05,0.00012,0.00023,-0.00014,-7e-05,1e-05,3,10
11585,3e-05,1e-05,-2e-05,0.00012,0.00023,-0.00014,-7e-05,1e-05,3,10
11587,-2e-05,-0.0001,-2e-05,5e-05,-0.00017,-0.00033,-0.00013,-4e-05,3,10
11590,-5e-05,-7e-05,-5e-05,-0.00018,-2e-05,3e-05,-2e-05,-1e-05,3,10
11591,-5e-05,-7e-05,-5e-05,-0.00018,-2e-05,3e-05,-2e-05,-1e-05,3,10
11592,-5e-05,-7e-05,-5e-05,-0.00018,-2e-05,3e-05,-2e-05,-1e-05,3,10
11593,-5e-05,-7e-05,-5e-05,-0.00018,-2e-05,3e-05,-2e-05,-1e-05,3,10
11594,-5e-05,-7e-05,-5e-05,-0.00018,-2e-05,3e-05,-2e-05,-1e-05,3,10
11595,-5e-05,-7e-05,-5e-05,-0.00018,-2e-05,3e-05,-2e-05,-1e-05,3,10
11596,-5e-05,-7e-05,-5e-05,-0.00018,-2e-05,3e-05,-2e-05,-1e-05,3,10
11597,-5e-05,-7e-05,-5e-05,-0.00018,-2e-05,3e-05,-2e-05,-1e-05,3,10
11598,-5e-05,-7e-05,-5e-05,-0.00018,-2e-05,3e-05,-2e-05,-1e-05,3,10
11599,-5e-05,-7e-05,-5e-05,-0.00018,-2e-05,3e-05,-2e-05,-1e-05,3,10
11600,0.00011,1e-05,-4e-05,-0.00012,4e-05,-0.00031,-9e-05,-1e-05,3,10
11601,0.00011,1e-05,-4e-05,-0.00012,4e-05,-0.00031,-9e-05,-1e-05,3,10
11602,0.00011,1e-05,-4e-05,-0.00012,4e-05,-0.00031,-9e-05,-1e-05,3,10
11604,0.00011,1e-05,-4e-05,-0.00012,4e-05,-0.00031,-9e-05,-1e-05,3,10
11605,0.00011,1e-05,-4e-05,-0.00012,4e-05,-0.00031,-9e-05,-1e-05,3,10
11606,0.00011,1e-05,-4e-05,-0.00012,4e-05,-0.00031,-9e-05,-1e-05,3,10
11607,0.00011,1e-05,-4e-05,-0.00012,4e-05,-0.00031,-9e-05,-1e-05,3,10
11608,0.00011,1e-05,-4e-05,-0.00012,4e-05,-0.00031,-9e-05,-1e-05,3,10
11609,0.00011,1e-05,-4e-05,-0.00012,4e-05,-0.00031,-9e-05,-1e-05,3,10
11610,0.00011,3e-05,1e-05,2e-05,0.00023,0.00019,-3e-05,1e-05,3,10
11611,-4e-05,-3e-05,-5e-05,0.0001,4e-05,-0.00024,-3e-05,-3e-05,3,10
11612,-4e-05,-3e-05,-5e-05,0.0001,4e-05,-0.00024,-3e-05,-3e-05,3,10
11613,-4e-05,-3e-05,-5e-05,0.0001,4e-05,-0.00024,-3e-05,-3e-05,3,10
11614,-4e-05,-3e-05,-5e-05,0.0001,4e-05,-0.00024,-3e-05,-3e-05,3,10
11615,-4e-05,-3e-05,-5e-05,0.0001,4e-05,-0.00024,-3e-05,-3e-05,3,10
11616,-4e-05,-3e-05,-5e-05,0.0001,4e-05,-0.00024,-3e-05,-3e-05,3,10
11617,-4e-05,-3e-05,-5e-05,0.0001,4e-05,-0.00024,-3e-05,-3e-05,3,10
11618,-4e-05,-3e-05,-5e-05,0.0001,4e-05,-0.00024,-3e-05,-3e-05,3,10
11619,-4e-05,-3e-05,-5e-05,0.0001,4e-05,-0.00024,-3e-05,-3e-05,3,10
11620,-4e-05,-3e-05,-5e-05,0.0001,4e-05,-0.00024,-3e-05,-3e-05,3,10
11621,-4e-05,-3e-05,-5e-05,0.0001,4e-05,-0.00024,-3e-05,-3e-05,3,10
11622,-4e-05,-3e-05,-5e-05,0.0001,4e-05,-0.00024,-3e-05,-3e-05,3,10
11623,-4e-05,-3e-05,-5e-05,0.0001,4e-05,-0.00024,-3e-05,-3e-05,3,10
11624,-7e-05,1e-05,-4e-05,-0.00019,-0.00034,-0.00054,-5e-05,-3e-05,3,10
11625,-7e-05,1e-05,-4e-05,-0.00019,-0.00034,-0.00054,-5e-05,-3e-05,3,10
11626,-7e-05,1e-05,-4e-05,-0.00019,-0.00034,-0.00054,-5e-05,-3e-05,3,10
11627,0.00036,7e-05,4e-05,0.00032,6e-05,0.00043,0.00016,2e-05,3,10
11628,0.00036,7e-05,4e-05,0.00032,6e-05,0.00043,0.00016,2e-05,3,10
11629,0.00036,7e-05,4e-05,0.00032,6e-05,0.00043,0.00016,2e-05,3,10
11630,0.00036,7e-05,4e-05,0.00032,6e-05,0.00043,0.00016,2e-05,3,10
11631,0.00036,7e-05,4e-05,0.00032,6e-05,0.00043,0.00016,2e-05,3,10
11632,0.00036,7e-05,4e-05,0.00032,6e-05,0.00043,0.00016,2e-05,3,10
11633,0.00036,7e-05,4e-05,0.00032,6e-05,0.00043,0.00016,2e-05,3,10
11634,0.00036,7e-05,4e-05,0.00032,6e-05,0.00043,0.00016,2e-05,3,10
11635,0.00036,7e-05,4e-05,0.00032,6e-05,0.00043,0.00016,2e-05,3,10
11636,0.00036,7e-05,4e-05,0.00032,6e-05,0.00043,0.00016,2e-05,3,10
11639,0.00036,7e-05,4e-05,0.00032,6e-05,0.00043,0.00016,2e-05,3,10
11640,0.00036,7e-05,4e-05,0.00032,6e-05,0.00043,0.00016,2e-05,3,10
11641,0.00036,7e-05,4e-05,0.00032,6e-05,0.00043,0.00016,2e-05,3,10
11642,0.00036,7e-05,4e-05,0.00032,6e-05,0.00043,0.00016,2e-05,3,10
11643,0.00036,7e-05,4e-05,0.00032,6e-05,0.00043,0.00016,2e-05,3,10
11644,0.00036,7e-05,4e-05,0.00032,6e-05,0.00043,0.00016,2e-05,3,10
11645,0.00036,7e-05,4e-05,0.00032,6e-05,0.00043,0.00016,2e-05,3,10
11646,0.00036,7e-05,4e-05,0.00032,6e-05,0.00043,0.00016,2e-05,3,10
11647,-0.00037,2e-05,3e-05,-0.00016,2e-05,5e-05,-6e-05,3e-05,3,10
11648,-0.00037,2e-05,3e-05,-0.00016,2e-05,5e-05,-6e-05,3e-05,3,10
11649,-0.00052,-3e-05,3e-05,1e-05,1e-05,1e-05,-4e-05,-0.00025,3,10
11650,-0.00052,-3e-05,3e-05,1e-05,1e-05,1e-05,-4e-05,-0.00025,3,10
11651,-0.00052,-3e-05,3e-05,1e-05,1e-05,1e-05,-4e-05,-0.00025,3,10
11652,-0.00052,-3e-05,3e-05,1e-05,1e-05,1e-05,-4e-05,-0.00025,3,10
11654,-0.00052,-3e-05,3e-05,1e-05,1e-05,1e-05,-4e-05,-0.00025,3,10
11655,-0.00052,-3e-05,3e-05,1e-05,1e-05,1e-05,-4e-05,-0.00025,3,10
11656,-0.00052,-3e-05,3e-05,1e-05,1e-05,1e-05,-4e-05,-0.00025,3,10
11657,-0.00052,-3e-05,3e-05,1e-05,1e-05,1e-05,-4e-05,-0.00025,3,10
11658,-0.00052,-3e-05,3e-05,1e-05,1e-05,1e-05,-4e-05,-0.00025,3,10
11659,-0.00052,-3e-05,3e-05,1e-05,1e-05,1e-05,-4e-05,-0.00025,3,10
11660,0.00021,0,-1e-05,-0.00012,-6e-05,-5e-05,-0.00016,-9e-05,3,10
11661,0.00021,0,-1e-05,-0.00012,-6e-05,-5e-05,-0.00016,-9e-05,3,10
11662,0.00021,0,-1e-05,-0.00012,-6e-05,-5e-05,-0.00016,-9e-05,3,10
11663,0.00021,0,-1e-05,-0.00012,-6e-05,-5e-05,-0.00016,-9e-05,3,10
11664,0.00021,0,-1e-05,-0.00012,-6e-05,-5e-05,-0.00016,-9e-05,3,10
11665,0.00021,0,-1e-05,-0.00012,-6e-05,-5e-05,-0.00016,-9e-05,3,10
11666,0.00021,0,-1e-05,-0.00012,-6e-05,-5e-05,-0.00016,-9e-05,3,10
11667,0.00021,0,-1e-05,-0.00012,-6e-05,-5e-05,-0.00016,-9e-05,3,10
11668,0.00021,0,-1e-05,-0.00012,-6e-05,-5e-05,-0.00016,-9e-05,3,10
11669,0.0002,-6e-05,-3e-05,-0.00011,6e-05,-0.00016,-3e-05,8e-05,3,10
11670,0.0002,-6e-05,-3e-05,-0.00011,6e-05,-0.00016,-3e-05,8e-05,3,10
11671,0.0002,-6e-05,-3e-05,-0.00011,6e-05,-0.00016,-3e-05,8e-05,3,10
11672,0.0002,-6e-05,-3e-05,-0.00011,6e-05,-0.00016,-3e-05,8e-05,3,10
11673,0.0002,-6e-05,-3e-05,-0.00011,6e-05,-0.00016,-3e-05,8e-05,3,10
11674,0.0002,-6e-05,-3e-05,-0.00011,6e-05,-0.00016,-3e-05,8e-05,3,10
11675,0.0002,-6e-05,-3e-05,-0.00011,6e-05,-0.00016,-3e-05,8e-05,3,10
11676,0.0002,-6e-05,-3e-05,-0.00011,6e-05,-0.00016,-3e-05,8e-05,3,10
11677,0.0002,-6e-05,-3e-05,-0.00011,6e-05,-0.00016,-3e-05,8e-05,3,10
11678,0.0002,-6e-05,-3e-05,-0.00011,6e-05,-0.00016,-3e-05,8e-05,3,10
11679,0.0002,-6e-05,-3e-05,-0.00011,6e-05,-0.00016,-3e-05,8e-05,3,10
11680,0.0002,-6e-05,-3e-05,-0.00011,6e-05,-0.00016,-3e-05,8e-05,3,10
11681,0.0002,-6e-05,-3e-05,-0.00011,6e-05,-0.00016,-3e-05,8e-05,3,10
11682,0.0002,-6e-05,-3e-05,-0.00011,6e-05,-0.00016,-3e-05,8e-05,3,10
11683,0.0002,-6e-05,-3e-05,-0.00011,6e-05,-0.00016,-3e-05,8e-05,3,10
11684,0.0002,-6e-05,-3e-05,-0.00011,6e-05,-0.00016,-3e-05,8e-05,3,10
11685,0.00012,0.0001,0,-0.0001,7e-05,0.00024,0.0002,1e-05,3,10
11686,0.00017,1e-05,-2e-05,-4e-05,2e-05,-0.00014,0.00013,2e-05,3,10
11689,0.00017,1e-05,-2e-05,-4e-05,2e-05,-0.00014,0.00013,2e-05,3,10
11690,0.00017,1e-05,-2e-05,-4e-05,2e-05,-0.00014,0.00013,2e-05,3,10
11691,0.00017,1e-05,-2e-05,-4e-05,2e-05,-0.00014,0.00013,2e-05,3,10
11692,0.00017,1e-05,-2e-05,-4e-05,2e-05,-0.00014,0.00013,2e-05,3,10
11693,0.00017,1e-05,-2e-05,-4e-05,2e-05,-0.00014,0.00013,2e-05,3,10
11694,0.00017,1e-05,-2e-05,-4e-05,2e-05,-0.00014,0.00013,2e-05,3,10
11695,0.00017,1e-05,-2e-05,-4e-05,2e-05,-0.00014,0.00013,2e-05,3,10
11696,0.00017,1e-05,-2e-05,-4e-05,2e-05,-0.00014,0.00013,2e-05,3,10
11697,0.00017,1e-05,-2e-05,-4e-05,2e-05,-0.00014,0.00013,2e-05,3,10
11698,0.00017,1e-05,-2e-05,-4e-05,2e-05,-0.00014,0.00013,2e-05,3,10
11699,0.00017,1e-05,-2e-05,-4e-05,2e-05,-0.00014,0.00013,2e-05,3,10
11700,0.00017,1e-05,-2e-05,-4e-05,2e-05,-0.00014,0.00013,2e-05,3,10
11701,0.00017,1e-05,-2e-05,-4e-05,2e-05,-0.00014,0.00013,2e-05,3,10
11702,0.00017,1e-05,-2e-05,-4e-05,2e-05,-0.00014,0.00013,2e-05,3,10
11704,0.00017,1e-05,-2e-05,-4e-05,2e-05,-0.00014,0.00013,2e-05,3,10
11705,0.00017,1e-05,-2e-05,-4e-05,2e-05,-0.00014,0.00013,2e-05,3,10
11706,0.00017,1e-05,-2e-05,-4e-05,2e-05,-0.00014,0.00013,2e-05,3,10
11707,0,-7e-05,-2e-05,0.00023,3e-05,-0.00039,-0.00011,-4e-05,3,10
11708,-3e-05,3e-05,2e-05,-0.00013,-3e-05,-0.00013,-5e-05,0,3,10
11710,-3e-05,3e-05,2e-05,-0.00013,-3e-05,-0.00013,-5e-05,0,3,10
11711,-3e-05,3e-05,2e-05,-0.00013,-3e-05,-0.00013,-5e-05,0,3,10
11712,-3e-05,3e-05,2e-05,-0.00013,-3e-05,-0.00013,-5e-05,0,3,10
11713,-3e-05,3e-05,2e-05,-0.00013,-3e-05,-0.00013,-5e-05,0,3,10
11714,-3e-05,3e-05,2e-05,-0.00013,-3e-05,-0.00013,-5e-05,0,3,10
11715,-3e-05,3e-05,2e-05,-0.00013,-3e-05,-0.00013,-5e-05,0,3,10
11716,-3e-05,3e-05,2e-05,-0.00013,-3e-05,-0.00013,-5e-05,0,3,10
11717,-3e-05,3e-05,2e-05,-0.00013,-3e-05,-0.00013,-5e-05,0,3,10
11718,-3e-05,3e-05,2e-05,-0.00013,-3e-05,-0.00013,-5e-05,0,3,10
11719,-3e-05,3e-05,2e-05,-0.00013,-3e-05,-0.00013,-5e-05,0,3,10
11720,-0.00052,-8e-05,-1e-05,0.00015,0.00012,0.00051,0.0002,-9e-05,3,10
11721,-0.00052,-8e-05,-1e-05,0.00015,0.00012,0.00051,0.0002,-9e-05,3,10
11722,-0.00052,-8e-05,-1e-05,0.00015,0.00012,0.00051,0.0002,-9e-05,3,10
11723,-0.00052,-8e-05,-1e-05,0.00015,0.00012,0.00051,0.0002,-9e-05,3,10
11724,-0.00052,-8e-05,-1e-05,0.00015,0.00012,0.00051,0.0002,-9e-05,3,10
11725,-0.00052,-8e-05,-1e-05,0.00015,0.00012,0.00051,0.0002,-9e-05,3,10
11726,-0.00052,-8e-05,-1e-05,0.00015,0.00012,0.00051,0.0002,-9e-05,3,10
11727,-0.00052,-8e-05,-1e-05,0.00015,0.00012,0.00051,0.0002,-9e-05,3,10
11728,-0.00052,-8e-05,-1e-05,0.00015,0.00012,0.00051,0.0002,-9e-05,3,10
11729,-0.00052,-8e-05,-1e-05,0.00015,0.00012,0.00051,0.0002,-9e-05,3,10
11730,-0.00052,-8e-05,-1e-05,0.00015,0.00012,0.00051,0.0002,-9e-05,3,10
11731,-0.00052,-8e-05,-1e-05,0.00015,0.00012,0.00051,0.0002,-9e-05,3,10
11732,-0.00052,-8e-05,-1e-05,0.00015,0.00012,0.00051,0.0002,-9e-05,3,10
11733,-0.00052,-8e-05,-1e-05,0.00015,0.00012,0.00051,0.0002,-9e-05,3,10
11734,-0.00052,-8e-05,-1e-05,0.00015,0.00012,0.00051,0.0002,-9e-05,3,10
11735,-0.00052,-8e-05,-1e-05,0.00015,0.00012,0.00051,0.0002,-9e-05,3,10
11736,-0.00052,-8e-05,-1e-05,0.00015,0.00012,0.00051,0.0002,-9e-05,3,10
11739,4e-05,-1e-05,-3e-05,3e-05,7e-05,-0.0001,4e-05,-0.00014,3,10
11740,4e-05,-1e-05,-3e-05,3e-05,7e-05,-0.0001,4e-05,-0.00014,3,10
11741,4e-05,-1e-05,-3e-05,3e-05,7e-05,-0.0001,4e-05,-0.00014,3,10
11742,4e-05,-1e-05,-3e-05,3e-05,7e-05,-0.0001,4e-05,-0.00014,3,10
11743,4e-05,-1e-05,-3e-05,3e-05,7e-05,-0.0001,4e-05,-0.00014,3,10
11744,0,3e-05,3e-05,6e-05,0.00016,0.0001,2e-05,0,3,10
11745,-7e-05,-5e-05,-6e-05,-0.00025,-6e-05,-0.00016,-5e-05,-1e-05,3,10
11746,0.00033,6e-05,7e-05,0.0002,-7e-05,-0.00013,-0.00015,2e-05,3,10
11747,0.00033,6e-05,7e-05,0.0002,-7e-05,-0.00013,-0.00015,2e-05,3,10
11748,0.00033,6e-05,7e-05,0.0002,-7e-05,-0.00013,-0.00015,2e-05,3,10
11749,0.00033,6e-05,7e-05,0.0002,-7e-05,-0.00013,-0.00015,2e-05,3,10
11750,0.00033,6e-05,7e-05,0.0002,-7e-05,-0.00013,-0.00015,2e-05,3,10
11751,0.00033,6e-05,7e-05,0.0002,-7e-05,-0.00013,-0.00015,2e-05,3,10
11752,0.00033,6e-05,7e-05,0.0002,-7e-05,-0.00013,-0.00015,2e-05,3,10
11754,0.00033,6e-05,7e-05,0.0002,-7e-05,-0.00013,-0.00015,2e-05,3,10
11755,0.00033,6e-05,7e-05,0.0002,-7e-05,-0.00013,-0.00015,2e-05,3,10
11756,0.00033,6e-05,7e-05,0.0002,-7e-05,-0.00013,-0.00015,2e-05,3,10
11757,0.00033,6e-05,7e-05,0.0002,-7e-05,-0.00013,-0.00015,2e-05,3,10
11758,0.00033,6e-05,7e-05,0.0002,-7e-05,-0.00013,-0.00015,2e-05,3,10
11759,0.00033,6e-05,7e-05,0.0002,-7e-05,-0.00013,-0.00015,2e-05,3,10
11760,0.00033,6e-05,7e-05,0.0002,-7e-05,-0.00013,-0.00015,2e-05,3,10
11761,0.00033,6e-05,7e-05,0.0002,-7e-05,-0.00013,-0.00015,2e-05,3,10
11762,0.00033,6e-05,7e-05,0.0002,-7e-05,-0.00013,-0.00015,2e-05,3,10
11763,0.00033,6e-05,7e-05,0.0002,-7e-05,-0.00013,-0.00015,2e-05,3,10
11764,0.00033,6e-05,7e-05,0.0002,-7e-05,-0.00013,-0.00015,2e-05,3,10
11765,0.00033,6e-05,7e-05,0.0002,-7e-05,-0.00013,-0.00015,2e-05,3,10
11766,0.00033,6e-05,7e-05,0.0002,-7e-05,-0.00013,-0.00015,2e-05,3,10
11767,0.00019,-3e-05,-9e-05,-0.00022,-5e-05,-0.00011,-5e-05,0.00015,3,10
11768,-0.00023,3e-05,3e-05,-0.00011,4e-05,0.00037,1e-05,0,3,10
11769,-0.00023,3e-05,3e-05,-0.00011,4e-05,0.00037,1e-05,0,3,10
11770,-0.00023,3e-05,3e-05,-0.00011,4e-05,0.00037,1e-05,0,3,10
11771,-0.00023,3e-05,3e-05,-0.00011,4e-05,0.00037,1e-05,0,3,10
11772,-0.00023,3e-05,3e-05,-0.00011,4e-05,0.00037,1e-05,0,3,10
11773,-0.00023,3e-05,3e-05,-0.00011,4e-05,0.00037,1e-05,0,3,10
11774,-0.00023,3e-05,3e-05,-0.00011,4e-05,0.00037,1e-05,0,3,10
11775,-0.00023,3e-05,3e-05,-0.00011,4e-05,0.00037,1e-05,0,3,10
11776,-0.00023,3e-05,3e-05,-0.00011,4e-05,0.00037,1e-05,0,3,10
11777,-0.00023,3e-05,3e-05,-0.00011,4e-05,0.00037,1e-05,0,3,10
11778,-0.00023,3e-05,3e-05,-0.00011,4e-05,0.00037,1e-05,0,3,10
11779,-0.00023,3e-05,3e-05,-0.00011,4e-05,0.00037,1e-05,0,3,10
11780,0.00036,4e-05,3e-05,-2e-05,0,0.00035,0.00011,9e-05,3,10
11781,0.00036,4e-05,3e-05,-2e-05,0,0.00035,0.00011,9e-05,3,10
11782,0.00036,4e-05,3e-05,-2e-05,0,0.00035,0.00011,9e-05,3,10
11783,0.00036,4e-05,3e-05,-2e-05,0,0.00035,0.00011,9e-05,3,10
11784,0.00036,4e-05,3e-05,-2e-05,0,0.00035,0.00011,9e-05,3,10
11785,0.00036,4e-05,3e-05,-2e-05,0,0.00035,0.00011,9e-05,3,10
11786,0.00036,4e-05,3e-05,-2e-05,0,0.00035,0.00011,9e-05,3,10
11789,-0.00045,-6e-05,0,-8e-05,-0.00013,-0.00024,-3e-05,-1e-05,3,10
11791,-0.00045,-6e-05,0,-8e-05,-0.00013,-0.00024,-3e-05,-1e-05,3,10
11792,-0.00045,-6e-05,0,-8e-05,-0.00013,-0.00024,-3e-05,-1e-05,3,10
11793,-0.00045,-6e-05,0,-8e-05,-0.00013,-0.00024,-3e-05,-1e-05,3,10
11794,-0.00045,-6e-05,0,-8e-05,-0.00013,-0.00024,-3e-05,-1e-05,3,10
11795,-0.00045,-6e-05,0,-8e-05,-0.00013,-0.00024,-3e-05,-1e-05,3,10
11796,-0.00045,-6e-05,0,-8e-05,-0.00013,-0.00024,-3e-05,-1e-05,3,10
11797,-0.00045,-6e-05,0,-8e-05,-0.00013,-0.00024,-3e-05,-1e-05,3,10
11798,-0.00045,-6e-05,0,-8e-05,-0.00013,-0.00024,-3e-05,-1e-05,3,10
11799,-0.00045,-6e-05,0,-8e-05,-0.00013,-0.00024,-3e-05,-1e-05,3,10
11800,-0.00045,-6e-05,0,-8e-05,-0.00013,-0.00024,-3e-05,-1e-05,3,10
11801,-0.00045,-6e-05,0,-8e-05,-0.00013,-0.00024,-3e-05,-1e-05,3,10
11802,-0.00045,-6e-05,0,-8e-05,-0.00013,-0.00024,-3e-05,-1e-05,3,10
11804,-0.00045,-6e-05,0,-8e-05,-0.00013,-0.00024,-3e-05,-1e-05,3,10
11805,-6e-05,-1e-05,-4e-05,-5e-05,0.00026,3e-05,-3e-05,-6e-05,3,10
11806,-6e-05,-1e-05,-4e-05,-5e-05,0.00026,3e-05,-3e-05,-6e-05,3,10
11807,-2e-05,-8e-05,-4e-05,-0.00013,6e-05,-6e-05,-1e-05,3e-05,3,10
11808,-2e-05,-8e-05,-4e-05,-0.00013,6e-05,-6e-05,-1e-05,3e-05,3,10
11809,-2e-05,-8e-05,-4e-05,-0.00013,6e-05,-6e-05,-1e-05,3e-05,3,10
11810,-2e-05,-8e-05,-4e-05,-0.00013,6e-05,-6e-05,-1e-05,3e-05,3,10
11811,-2e-05,-8e-05,-4e-05,-0.00013,6e-05,-6e-05,-1e-05,3e-05,3,10
11812,-2e-05,-8e-05,-4e-05,-0.00013,6e-05,-6e-05,-1e-05,3e-05,3,10
11813,-2e-05,-8e-05,-4e-05,-0.00013,6e-05,-6e-05,-1e-05,3e-05,3,10
11814,-2e-05,-8e-05,-4e-05,-0.00013,6e-05,-6e-05,-1e-05,3e-05,3,10
11815,-2e-05,-8e-05,-4e-05,-0.00013,6e-05,-6e-05,-1e-05,3e-05,3,10
11816,-2e-05,-8e-05,-4e-05,-0.00013,6e-05,-6e-05,-1e-05,3e-05,3,10
11817,-2e-05,-8e-05,-4e-05,-0.00013,6e-05,-6e-05,-1e-05,3e-05,3,10
11818,-2e-05,-8e-05,-4e-05,-0.00013,6e-05,-6e-05,-1e-05,3e-05,3,10
11819,-2e-05,-8e-05,-4e-05,-0.00013,6e-05,-6e-05,-1e-05,3e-05,3,10
11820,-2e-05,-8e-05,-4e-05,-0.00013,6e-05,-6e-05,-1e-05,3e-05,3,10
11821,-2e-05,-8e-05,-4e-05,-0.00013,6e-05,-6e-05,-1e-05,3e-05,3,10
11822,-2e-05,-8e-05,-4e-05,-0.00013,6e-05,-6e-05,-1e-05,3e-05,3,10
11823,-2e-05,-8e-05,-4e-05,-0.00013,6e-05,-6e-05,-1e-05,3e-05,3,10
11824,-2e-05,-8e-05,-4e-05,-0.00013,6e-05,-6e-05,-1e-05,3e-05,3,10
11825,-2e-05,-8e-05,-4e-05,-0.00013,6e-05,-6e-05,-1e-05,3e-05,3,10
11826,-2e-05,-8e-05,-4e-05,-0.00013,6e-05,-6e-05,-1e-05,3e-05,3,10
11827,1e-05,3e-05,4e-05,-1e-05,-9e-05,-9e-05,-7e-05,-1e-05,3,10
11828,-0.0001,-5e-05,-6e-05,-0.00014,-0.00017,-0.00014,-0.00017,-4e-05,3,10
11829,-0.0001,-5e-05,-6e-05,-0.00014,-0.00017,-0.00014,-0.00017,-4e-05,3,10
11830,-0.0001,-5e-05,-6e-05,-0.00014,-0.00017,-0.00014,-0.00017,-4e-05,3,10
11831,-0.0001,-5e-05,-6e-05,-0.00014,-0.00017,-0.00014,-0.00017,-4e-05,3,10
11832,-0.0001,-5e-05,-6e-05,-0.00014,-0.00017,-0.00014,-0.00017,-4e-05,3,10
11833,-0.0001,-5e-05,-6e-05,-0.00014,-0.00017,-0.00014,-0.00017,-4e-05,3,10
11834,-0.0001,-5e-05,-6e-05,-0.00014,-0.00017,-0.00014,-0.00017,-4e-05,3,10
11835,-0.0001,-5e-05,-6e-05,-0.00014,-0.00017,-0.00014,-0.00017,-4e-05,3,10
11836,-0.0001,-5e-05,-6e-05,-0.00014,-0.00017,-0.00014,-0.00017,-4e-05,3,10
11838,-0.0001,-5e-05,-6e-05,-0.00014,-0.00017,-0.00014,-0.00017,-4e-05,3,10
11840,0,-1e-05,-9e-05,-0.00012,-0.00035,7e-05,4e-05,-2e-05,3,10
11841,0,-1e-05,-9e-05,-0.00012,-0.00035,7e-05,4e-05,-2e-05,3,10
11842,0,-1e-05,-9e-05,-0.00012,-0.00035,7e-05,4e-05,-2e-05,3,10
11843,0,-1e-05,-9e-05,-0.00012,-0.00035,7e-05,4e-05,-2e-05,3,10
11844,0,-1e-05,-9e-05,-0.00012,-0.00035,7e-05,4e-05,-2e-05,3,10
11845,0,-1e-05,-9e-05,-0.00012,-0.00035,7e-05,4e-05,-2e-05,3,10
11846,0,-1e-05,-9e-05,-0.00012,-0.00035,7e-05,4e-05,-2e-05,3,10
11847,0,-1e-05,-9e-05,-0.00012,-0.00035,7e-05,4e-05,-2e-05,3,10
11848,0,-1e-05,-9e-05,-0.00012,-0.00035,7e-05,4e-05,-2e-05,3,10
11849,0.00011,0,-9e-05,-0.00016,-0.00013,0.00013,4e-05,7e-05,3,10
11850,0.00011,0,-9e-05,-0.00016,-0.00013,0.00013,4e-05,7e-05,3,10
11851,0.00011,0,-9e-05,-0.00016,-0.00013,0.00013,4e-05,7e-05,3,10
11852,0.00011,0,-9e-05,-0.00016,-0.00013,0.00013,4e-05,7e-05,3,10
11854,0.00011,0,-9e-05,-0.00016,-0.00013,0.00013,4e-05,7e-05,3,10
11855,0.00011,0,-9e-05,-0.00016,-0.00013,0.00013,4e-05,7e-05,3,10
11856,0.00011,0,-9e-05,-0.00016,-0.00013,0.00013,4e-05,7e-05,3,10
11857,0.00011,0,-9e-05,-0.00016,-0.00013,0.00013,4e-05,7e-05,3,10
11858,0.00011,0,-9e-05,-0.00016,-0.00013,0.00013,4e-05,7e-05,3,10
11859,0.00011,0,-9e-05,-0.00016,-0.00013,0.00013,4e-05,7e-05,3,10
11860,0.00011,0,-9e-05,-0.00016,-0.00013,0.00013,4e-05,7e-05,3,10
11861,0.00011,0,-9e-05,-0.00016,-0.00013,0.00013,4e-05,7e-05,3,10
11862,0.00011,0,-9e-05,-0.00016,-0.00013,0.00013,4e-05,7e-05,3,10
11863,0.00011,0,-9e-05,-0.00016,-0.00013,0.00013,4e-05,7e-05,3,10
11864,-1e-05,1e-05,1e-05,-8e-05,3e-05,0,-2e-05,-1e-05,3,10
11865,-1e-05,1e-05,1e-05,-8e-05,3e-05,0,-2e-05,-1e-05,3,10
11866,0.00031,-1e-05,-1e-05,0.00021,-7e-05,-0.00027,0.00019,0.00018,3,10
11867,0.00031,-1e-05,-1e-05,0.00021,-7e-05,-0.00027,0.00019,0.00018,3,10
11868,0.00031,-1e-05,-1e-05,0.00021,-7e-05,-0.00027,0.00019,0.00018,3,10
11869,0.00031,-1e-05,-1e-05,0.00021,-7e-05,-0.00027,0.00019,0.00018,3,10
11870,0.00031,-1e-05,-1e-05,0.00021,-7e-05,-0.00027,0.00019,0.00018,3,10
11871,0.00031,-1e-05,-1e-05,0.00021,-7e-05,-0.00027,0.00019,0.00018,3,10
11872,0.00031,-1e-05,-1e-05,0.00021,-7e-05,-0.00027,0.00019,0.00018,3,10
11873,0.00031,-1e-05,-1e-05,0.00021,-7e-05,-0.00027,0.00019,0.00018,3,10
11874,0.00031,-1e-05,-1e-05,0.00021,-7e-05,-0.00027,0.00019,0.00018,3,10
11875,0.00031,-1e-05,-1e-05,0.00021,-7e-05,-0.00027,0.00019,0.00018,3,10
11876,0.00031,-1e-05,-1e-05,0.00021,-7e-05,-0.00027,0.00019,0.00018,3,10
11877,0.00031,-1e-05,-1e-05,0.00021,-7e-05,-0.00027,0.00019,0.00018,3,10
11878,0.00031,-1e-05,-1e-05,0.00021,-7e-05,-0.00027,0.00019,0.00018,3,10
11879,0.00031,-1e-05,-1e-05,0.00021,-7e-05,-0.00027,0.00019,0.00018,3,10
11880,0.00031,-1e-05,-1e-05,0.00021,-7e-05,-0.00027,0.00019,0.00018,3,10
11881,0.00031,-1e-05,-1e-05,0.00021,-7e-05,-0.00027,0.00019,0.00018,3,10
11882,0.00031,-1e-05,-1e-05,0.00021,-7e-05,-0.00027,0.00019,0.00018,3,10
11883,0.00031,-1e-05,-1e-05,0.00021,-7e-05,-0.00027,0.00019,0.00018,3,10
11884,0.00031,-1e-05,-1e-05,0.00021,-7e-05,-0.00027,0.00019,0.00018,3,10
11885,0.00031,-1e-05,-1e-05,0.00021,-7e-05,-0.00027,0.00019,0.00018,3,10
11886,0.00041,-1e-05,-1e-05,0.0001,-2e-05,-0.00019,-9e-05,0,3,10
11889,0.00023,0,3e-05,-0.0001,-5e-05,-0.0001,6e-05,4e-05,3,10
11890,0.00023,0,3e-05,-0.0001,-5e-05,-0.0001,6e-05,4e-05,3,10
11891,0.00023,0,3e-05,-0.0001,-5e-05,-0.0001,6e-05,4e-05,3,10
11892,0.00023,0,3e-05,-0.0001,-5e-05,-0.0001,6e-05,4e-05,3,10
11893,0.00023,0,3e-05,-0.0001,-5e-05,-0.0001,6e-05,4e-05,3,10
11894,0.00023,0,3e-05,-0.0001,-5e-05,-0.0001,6e-05,4e-05,3,10
11895,0.00023,0,3e-05,-0.0001,-5e-05,-0.0001,6e-05,4e-05,3,10
11896,0.00023,0,3e-05,-0.0001,-5e-05,-0.0001,6e-05,4e-05,3,10
11897,0.00023,0,3e-05,-0.0001,-5e-05,-0.0001,6e-05,4e-05,3,10
11898,0.00023,0,3e-05,-0.0001,-5e-05,-0.0001,6e-05,4e-05,3,10
11899,0.00023,0,3e-05,-0.0001,-5e-05,-0.0001,6e-05,4e-05,3,10
11900,-0.0005,-0.00012,3e-05,9e-05,-7e-05,-0.00049,4e-05,-0.0001,3,10
11901,-0.0005,-0.00012,3e-05,9e-05,-7e-05,-0.00049,4e-05,-0.0001,3,10
11902,-0.0005,-0.00012,3e-05,9e-05,-7e-05,-0.00049,4e-05,-0.0001,3,10
11904,-0.0005,-0.00012,3e-05,9e-05,-7e-05,-0.00049,4e-05,-0.0001,3,10
11905,-0.0005,-0.00012,3e-05,9e-05,-7e-05,-0.00049,4e-05,-0.0001,3,10
11906,-0.0005,-0.00012,3e-05,9e-05,-7e-05,-0.00049,4e-05,-0.0001,3,10
11907,-0.0005,-0.00012,3e-05,9e-05,-7e-05,-0.00049,4e-05,-0.0001,3,10
11908,-0.0005,-0.00012,3e-05,9e-05,-7e-05,-0.00049,4e-05,-0.0001,3,10
11909,-5e-05,3e-05,-1e-05,-8e-05,0,-0.00031,0,-1e-05,3,10
11910,-5e-05,3e-05,-1e-05,-8e-05,0,-0.00031,0,-1e-05,3,10
11911,-5e-05,3e-05,-1e-05,-8e-05,0,-0.00031,0,-1e-05,3,10
11912,-5e-05,3e-05,-1e-05,-8e-05,0,-0.00031,0,-1e-05,3,10
11913,-5e-05,3e-05,-1e-05,-8e-05,0,-0.00031,0,-1e-05,3,10
11914,-5e-05,3e-05,-1e-05,-8e-05,0,-0.00031,0,-1e-05,3,10
11915,-5e-05,3e-05,-1e-05,-8e-05,0,-0.00031,0,-1e-05,3,10
11916,-5e-05,3e-05,-1e-05,-8e-05,0,-0.00031,0,-1e-05,3,10
11917,-5e-05,3e-05,-1e-05,-8e-05,0,-0.00031,0,-1e-05,3,10
11918,-5e-05,3e-05,-1e-05,-8e-05,0,-0.00031,0,-1e-05,3,10
11919,-5e-05,3e-05,-1e-05,-8e-05,0,-0.00031,0,-1e-05,3,10
11920,-5e-05,3e-05,-1e-05,-8e-05,0,-0.00031,0,-1e-05,3,10
11921,-5e-05,3e-05,-1e-05,-8e-05,0,-0.00031,0,-1e-05,3,10
11922,-5e-05,3e-05,-1e-05,-8e-05,0,-0.00031,0,-1e-05,3,10
11923,-5e-05,3e-05,-1e-05,-8e-05,0,-0.00031,0,-1e-05,3,10
11924,-0.00034,-4e-05,-4e-05,2e-05,-8e-05,-6e-05,-4e-05,-0.00017,3,10
11925,-0.00034,-4e-05,-4e-05,2e-05,-8e-05,-6e-05,-4e-05,-0.00017,3,10
11926,-0.00023,-3e-05,-1e-05,-0.00015,-0.00022,-0.00012,-5e-05,-5e-05,3,10
11927,-0.00023,-3e-05,-1e-05,-0.00015,-0.00022,-0.00012,-5e-05,-5e-05,3,10
11928,-0.00023,-3e-05,-1e-05,-0.00015,-0.00022,-0.00012,-5e-05,-5e-05,3,10
11929,-0.00023,-3e-05,-1e-05,-0.00015,-0.00022,-0.00012,-5e-05,-5e-05,3,10
11930,-0.00023,-3e-05,-1e-05,-0.00015,-0.00022,-0.00012,-5e-05,-5e-05,3,10
11931,-0.00023,-3e-05,-1e-05,-0.00015,-0.00022,-0.00012,-5e-05,-5e-05,3,10
11932,-0.00023,-3e-05,-1e-05,-0.00015,-0.00022,-0.00012,-5e-05,-5e-05,3,10
11933,-0.00023,-3e-05,-1e-05,-0.00015,-0.00022,-0.00012,-5e-05,-5e-05,3,10
11934,-0.00023,-3e-05,-1e-05,-0.00015,-0.00022,-0.00012,-5e-05,-5e-05,3,10
11935,-0.00023,-3e-05,-1e-05,-0.00015,-0.00022,-0.00012,-5e-05,-5e-05,3,10
11936,-0.00023,-3e-05,-1e-05,-0.00015,-0.00022,-0.00012,-5e-05,-5e-05,3,10
11938,-0.00023,-3e-05,-1e-05,-0.00015,-0.00022,-0.00012,-5e-05,-5e-05,3,10
11939,-0.00023,-3e-05,-1e-05,-0.00015,-0.00022,-0.00012,-5e-05,-5e-05,3,10
11940,-0.00023,-3e-05,-1e-05,-0.00015,-0.00022,-0.00012,-5e-05,-5e-05,3,10
11941,-0.00023,-3e-05,-1e-05,-0.00015,-0.00022,-0.00012,-5e-05,-5e-05,3,10
11942,-0.00023,-3e-05,-1e-05,-0.00015,-0.00022,-0.00012,-5e-05,-5e-05,3,10
11943,-0.00023,-3e-05,-1e-05,-0.00015,-0.00022,-0.00012,-5e-05,-5e-05,3,10
11944,-0.00023,-3e-05,-1e-05,-0.00015,-0.00022,-0.00012,-5e-05,-5e-05,3,10
11945,-0.00023,-3e-05,-1e-05,-0.00015,-0.00022,-0.00012,-5e-05,-5e-05,3,10
11946,-0.00023,-3e-05,-1e-05,-0.00015,-0.00022,-0.00012,-5e-05,-5e-05,3,10
11947,0.00016,1e-05,3e-05,0.00028,-0.00011,0.00033,6e-05,0.00011,3,10
11948,0.00033,3e-05,3e-05,0.00054,-0.00011,0.00012,0,-3e-05,3,10
11950,0.00033,3e-05,3e-05,0.00054,-0.00011,0.00012,0,-3e-05,3,10
11951,0.00033,3e-05,3e-05,0.00054,-0.00011,0.00012,0,-3e-05,3,10
11952,0.00033,3e-05,3e-05,0.00054,-0.00011,0.00012,0,-3e-05,3,10
11953,0.00033,3e-05,3e-05,0.00054,-0.00011,0.00012,0,-3e-05,3,10
11954,0.00033,3e-05,3e-05,0.00054,-0.00011,0.00012,0,-3e-05,3,10
11955,0.00033,3e-05,3e-05,0.00054,-0.00011,0.00012,0,-3e-05,3,10
11956,0.00033,3e-05,3e-05,0.00054,-0.00011,0.00012,0,-3e-05,3,10
11957,0.00033,3e-05,3e-05,0.00054,-0.00011,0.00012,0,-3e-05,3,10
11958,0.00033,3e-05,3e-05,0.00054,-0.00011,0.00012,0,-3e-05,3,10
11959,0.00033,3e-05,3e-05,0.00054,-0.00011,0.00012,0,-3e-05,3,10
11960,0.00033,3e-05,3e-05,0.00054,-0.00011,0.00012,0,-3e-05,3,10
11961,0.00033,3e-05,3e-05,0.00054,-0.00011,0.00012,0,-3e-05,3,10
11962,0.00033,3e-05,3e-05,0.00054,-0.00011,0.00012,0,-3e-05,3,10
11963,0.00033,3e-05,3e-05,0.00054,-0.00011,0.00012,0,-3e-05,3,10
11964,0.00033,3e-05,3e-05,0.00054,-0.00011,0.00012,0,-3e-05,3,10
11965,0.00033,3e-05,3e-05,0.00054,-0.00011,0.00012,0,-3e-05,3,10
11966,0.00033,3e-05,3e-05,0.00054,-0.00011,0.00012,0,-3e-05,3,10
11967,0.00033,3e-05,3e-05,0.00054,-0.00011,0.00012,0,-3e-05,3,10
11968,0.00033,3e-05,3e-05,0.00054,-0.00011,0.00012,0,-3e-05,3,10
11969,0.00037,0,-1e-05,-0.00011,0.00029,-5e-05,-3e-05,0.00011,3,10
11970,0.00037,0,-1e-05,-0.00011,0.00029,-5e-05,-3e-05,0.00011,3,10
11971,0.00014,-5e-05,-5e-05,-0.00018,0.0002,0.00031,-0.00021,1e-05,3,10
11972,0.00014,-5e-05,-5e-05,-0.00018,0.0002,0.00031,-0.00021,1e-05,3,10
11973,0.00014,-5e-05,-5e-05,-0.00018,0.0002,0.00031,-0.00021,1e-05,3,10
11974,0.00014,-5e-05,-5e-05,-0.00018,0.0002,0.00031,-0.00021,1e-05,3,10
11975,0.00014,-5e-05,-5e-05,-0.00018,0.0002,0.00031,-0.00021,1e-05,3,10
11976,0.00014,-5e-05,-5e-05,-0.00018,0.0002,0.00031,-0.00021,1e-05,3,10
11977,0.00014,-5e-05,-5e-05,-0.00018,0.0002,0.00031,-0.00021,1e-05,3,10
11978,0.00014,-5e-05,-5e-05,-0.00018,0.0002,0.00031,-0.00021,1e-05,3,10
11979,0.00014,-5e-05,-5e-05,-0.00018,0.0002,0.00031,-0.00021,1e-05,3,10
11980,0.00014,-5e-05,-5e-05,-0.00018,0.0002,0.00031,-0.00021,1e-05,3,10
11981,0.00014,-5e-05,-5e-05,-0.00018,0.0002,0.00031,-0.00021,1e-05,3,10
11982,0.00014,-5e-05,-5e-05,-0.00018,0.0002,0.00031,-0.00021,1e-05,3,10
11983,0.00014,-5e-05,-5e-05,-0.00018,0.0002,0.00031,-0.00021,1e-05,3,10
11984,2e-05,3e-05,0,-2e-05,-0.00013,-0.00022,1e-05,1e-05,3,10
11985,2e-05,3e-05,0,-2e-05,-0.00013,-0.00022,1e-05,1e-05,3,10
11986,3e-05,2e-05,-3e-05,-7e-05,3e-05,0.00023,7e-05,1e-05,3,10
11988,3e-05,2e-05,-3e-05,-7e-05,3e-05,0.00023,7e-05,1e-05,3,10
11989,3e-05,2e-05,-3e-05,-7e-05,3e-05,0.00023,7e-05,1e-05,3,10
11990,3e-05,2e-05,-3e-05,-7e-05,3e-05,0.00023,7e-05,1e-05,3,10
11991,3e-05,2e-05,-3e-05,-7e-05,3e-05,0.00023,7e-05,1e-05,3,10
11992,3e-05,2e-05,-3e-05,-7e-05,3e-05,0.00023,7e-05,1e-05,3,10
11993,3e-05,2e-05,-3e-05,-7e-05,3e-05,0.00023,7e-05,1e-05,3,10
11994,3e-05,2e-05,-3e-05,-7e-05,3e-05,0.00023,7e-05,1e-05,3,10
11995,3e-05,2e-05,-3e-05,-7e-05,3e-05,0.00023,7e-05,1e-05,3,10
11996,3e-05,2e-05,-3e-05,-7e-05,3e-05,0.00023,7e-05,1e-05,3,10
11997,3e-05,2e-05,-3e-05,-7e-05,3e-05,0.00023,7e-05,1e-05,3,10
11998,3e-05,2e-05,-3e-05,-7e-05,3e-05,0.00023,7e-05,1e-05,3,10
11999,3e-05,2e-05,-3e-05,-7e-05,3e-05,0.00023,7e-05,1e-05,3,10
12000,3e-05,2e-05,-3e-05,-7e-05,3e-05,0.00023,7e-05,1e-05,3,10
12001,3e-05,2e-05,-3e-05,-7e-05,3e-05,0.00023,7e-05,1e-05,3,10
12002,3e-05,2e-05,-3e-05,-7e-05,3e-05,0.00023,7e-05,1e-05,3,10
12004,3e-05,2e-05,-3e-05,-7e-05,3e-05,0.00023,7e-05,1e-05,3,10
12005,3e-05,2e-05,-3e-05,-7e-05,3e-05,0.00023,7e-05,1e-05,3,10
12006,3e-05,2e-05,-3e-05,-7e-05,3e-05,0.00023,7e-05,1e-05,3,10
12007,0.00021,4e-05,-1e-05,-0.00016,-0.00012,5e-05,-6e-05,0,3,10
12008,-0.00045,-0.00014,-4e-05,9e-05,0.00014,8e-05,-1e-05,-0.0001,3,10
12009,-0.00045,-0.00014,-4e-05,9e-05,0.00014,8e-05,-1e-05,-0.0001,3,10
12010,-0.00045,-0.00014,-4e-05,9e-05,0.00014,8e-05,-1e-05,-0.0001,3,10
12011,-0.00045,-0.00014,-4e-05,9e-05,0.00014,8e-05,-1e-05,-0.0001,3,10
12012,-0.00045,-0.00014,-4e-05,9e-05,0.00014,8e-05,-1e-05,-0.0001,3,10
12013,-0.00045,-0.00014,-4e-05,9e-05,0.00014,8e-05,-1e-05,-0.0001,3,10
12014,-0.00045,-0.00014,-4e-05,9e-05,0.00014,8e-05,-1e-05,-0.0001,3,10
12015,-0.00045,-0.00014,-4e-05,9e-05,0.00014,8e-05,-1e-05,-0.0001,3,10
12016,-0.00045,-0.00014,-4e-05,9e-05,0.00014,8e-05,-1e-05,-0.0001,3,10
12017,-0.00045,-0.00014,-4e-05,9e-05,0.00014,8e-05,-1e-05,-0.0001,3,10
12018,-0.00045,-0.00014,-4e-05,9e-05,0.00014,8e-05,-1e-05,-0.0001,3,10
12019,-0.00045,-0.00014,-4e-05,9e-05,0.00014,8e-05,-1e-05,-0.0001,3,10
12020,-0.00045,-0.00014,-4e-05,9e-05,0.00014,8e-05,-1e-05,-0.0001,3,10
12021,-0.00045,-0.00014,-4e-05,9e-05,0.00014,8e-05,-1e-05,-0.0001,3,10
12022,-0.00045,-0.00014,-4e-05,9e-05,0.00014,8e-05,-1e-05,-0.0001,3,10
12023,-0.00045,-0.00014,-4e-05,9e-05,0.00014,8e-05,-1e-05,-0.0001,3,10
12024,-0.00045,-0.00014,-4e-05,9e-05,0.00014,8e-05,-1e-05,-0.0001,3,10
12025,-0.00045,-0.00014,-4e-05,9e-05,0.00014,8e-05,-1e-05,-0.0001,3,10
12026,-0.00045,-0.00014,-4e-05,9e-05,0.00014,8e-05,-1e-05,-0.0001,3,10
12027,-0.00045,-0.00014,-4e-05,9e-05,0.00014,8e-05,-1e-05,-0.0001,3,10
12028,-0.00045,-0.00014,-4e-05,9e-05,0.00014,8e-05,-1e-05,-0.0001,3,10
12029,-0.0002,-1e-05,1e-05,8e-05,0.00023,0.00028,1e-05,-4e-05,3,10
12030,-0.0002,-1e-05,1e-05,8e-05,0.00023,0.00028,1e-05,-4e-05,3,10
12031,-0.0002,-1e-05,1e-05,8e-05,0.00023,0.00028,1e-05,-4e-05,3,10
12032,-0.0002,-1e-05,1e-05,8e-05,0.00023,0.00028,1e-05,-4e-05,3,10
12033,-0.0002,-1e-05,1e-05,8e-05,0.00023,0.00028,1e-05,-4e-05,3,10
12034,-0.0002,-1e-05,1e-05,8e-05,0.00023,0.00028,1e-05,-4e-05,3,10
12035,-0.0002,-1e-05,1e-05,8e-05,0.00023,0.00028,1e-05,-4e-05,3,10
12036,-0.0002,-1e-05,1e-05,8e-05,0.00023,0.00028,1e-05,-4e-05,3,10
12038,-6e-05,0,-1e-05,0.00018,9e-05,0.00025,3e-05,0,3,10
12039,-6e-05,0,-1e-05,0.00018,9e-05,0.00025,3e-05,0,3,10
12040,-6e-05,0,-1e-05,0.00018,9e-05,0.00025,3e-05,0,3,10
12041,-6e-05,0,-1e-05,0.00018,9e-05,0.00025,3e-05,0,3,10
12042,-6e-05,0,-1e-05,0.00018,9e-05,0.00025,3e-05,0,3,10
12043,-6e-05,0,-1e-05,0.00018,9e-05,0.00025,3e-05,0,3,10
12044,-6e-05,0,-1e-05,0.00018,9e-05,0.00025,3e-05,0,3,10
12045,-0.00014,-6e-05,-0.0001,-0.00013,-6e-05,-0.00015,-0.00014,-5e-05,3,10
12046,-0.00013,2e-05,5e-05,4e-05,0,-8e-05,7e-05,-6e-05,3,10
12047,-0.00013,2e-05,5e-05,4e-05,0,-8e-05,7e-05,-6e-05,3,10
12048,-0.00013,2e-05,5e-05,4e-05,0,-8e-05,7e-05,-6e-05,3,10
12049,-0.00013,2e-05,5e-05,4e-05,0,-8e-05,7e-05,-6e-05,3,10
12050,-0.00013,2e-05,5e-05,4e-05,0,-8e-05,7e-05,-6e-05,3,10
12051,-0.00013,2e-05,5e-05,4e-05,0,-8e-05,7e-05,-6e-05,3,10
12052,-0.00013,2e-05,5e-05,4e-05,0,-8e-05,7e-05,-6e-05,3,10
12053,-0.00013,2e-05,5e-05,4e-05,0,-8e-05,7e-05,-6e-05,3,10
12054,-0.00013,2e-05,5e-05,4e-05,0,-8e-05,7e-05,-6e-05,3,10
12055,-0.00013,2e-05,5e-05,4e-05,0,-8e-05,7e-05,-6e-05,3,10
12056,-0.00013,2e-05,5e-05,4e-05,0,-8e-05,7e-05,-6e-05,3,10
12057,-0.00013,2e-05,5e-05,4e-05,0,-8e-05,7e-05,-6e-05,3,10
12058,-0.00013,2e-05,5e-05,4e-05,0,-8e-05,7e-05,-6e-05,3,10
12059,-0.00013,2e-05,5e-05,4e-05,0,-8e-05,7e-05,-6e-05,3,10
12060,-0.00013,2e-05,5e-05,4e-05,0,-8e-05,7e-05,-6e-05,3,10
12061,-0.00013,2e-05,5e-05,4e-05,0,-8e-05,7e-05,-6e-05,3,10
12062,-0.00013,2e-05,5e-05,4e-05,0,-8e-05,7e-05,-6e-05,3,10
12063,-0.00013,2e-05,5e-05,4e-05,0,-8e-05,7e-05,-6e-05,3,10
12064,-0.00013,2e-05,5e-05,4e-05,0,-8e-05,7e-05,-6e-05,3,10
12065,-0.00013,2e-05,5e-05,4e-05,0,-8e-05,7e-05,-6e-05,3,10
12066,-0.00013,2e-05,5e-05,4e-05,0,-8e-05,7e-05,-6e-05,3,10
12067,3e-05,1e-05,3e-05,4e-05,-9e-05,-0.00017,3e-05,1e-05,3,10
12068,1e-05,-3e-05,-0.00016,-0.0005,-0.00019,0.00013,-7e-05,-2e-05,3,10
12069,1e-05,-3e-05,-0.00016,-0.0005,-0.00019,0.00013,-7e-05,-2e-05,3,10
12070,1e-05,-3e-05,-0.00016,-0.0005,-0.00019,0.00013,-7e-05,-2e-05,3,10
12071,1e-05,-3e-05,-0.00016,-0.0005,-0.00019,0.00013,-7e-05,-2e-05,3,10
12072,1e-05,-3e-05,-0.00016,-0.0005,-0.00019,0.00013,-7e-05,-2e-05,3,10
12073,1e-05,-3e-05,-0.00016,-0.0005,-0.00019,0.00013,-7e-05,-2e-05,3,10
12074,1e-05,-3e-05,-0.00016,-0.0005,-0.00019,0.00013,-7e-05,-2e-05,3,10
12075,1e-05,-3e-05,-0.00016,-0.0005,-0.00019,0.00013,-7e-05,-2e-05,3,10
12076,1e-05,-3e-05,-0.00016,-0.0005,-0.00019,0.00013,-7e-05,-2e-05,3,10
12077,1e-05,-3e-05,-0.00016,-0.0005,-0.00019,0.00013,-7e-05,-2e-05,3,10
12078,1e-05,-3e-05,-0.00016,-0.0005,-0.00019,0.00013,-7e-05,-2e-05,3,10
12079,1e-05,-3e-05,-0.00016,-0.0005,-0.00019,0.00013,-7e-05,-2e-05,3,10
12080,1e-05,-3e-05,-0.00016,-0.0005,-0.00019,0.00013,-7e-05,-2e-05,3,10
12081,1e-05,-3e-05,-0.00016,-0.0005,-0.00019,0.00013,-7e-05,-2e-05,3,10
12082,1e-05,-3e-05,-0.00016,-0.0005,-0.00019,0.00013,-7e-05,-2e-05,3,10
12083,1e-05,-3e-05,-0.00016,-0.0005,-0.00019,0.00013,-7e-05,-2e-05,3,10
12084,1e-05,-3e-05,-0.00016,-0.0005,-0.00019,0.00013,-7e-05,-2e-05,3,10
12085,1e-05,-3e-05,-0.00016,-0.0005,-0.00019,0.00013,-7e-05,-2e-05,3,10
12086,1e-05,-3e-05,-0.00016,-0.0005,-0.00019,0.00013,-7e-05,-2e-05,3,10
12089,0.00022,7e-05,4e-05,-8e-05,-0.00016,-0.00041,7e-05,-1e-05,3,10
12090,0.00022,7e-05,4e-05,-8e-05,-0.00016,-0.00041,7e-05,-1e-05,3,10
12091,-5e-05,-5e-05,-5e-05,-7e-05,-4e-05,2e-05,-6e-05,-2e-05,3,10
12092,-5e-05,-5e-05,-5e-05,-7e-05,-4e-05,2e-05,-6e-05,-2e-05,3,10
12093,-5e-05,-5e-05,-5e-05,-7e-05,-4e-05,2e-05,-6e-05,-2e-05,3,10
12094,-5e-05,-5e-05,-5e-05,-7e-05,-4e-05,2e-05,-6e-05,-2e-05,3,10
12095,-5e-05,-5e-05,-5e-05,-7e-05,-4e-05,2e-05,-6e-05,-2e-05,3,10
12096,-5e-05,-5e-05,-5e-05,-7e-05,-4e-05,2e-05,-6e-05,-2e-05,3,10
12097,-5e-05,-5e-05,-5e-05,-7e-05,-4e-05,2e-05,-6e-05,-2e-05,3,10
12098,-5e-05,-5e-05,-5e-05,-7e-05,-4e-05,2e-05,-6e-05,-2e-05,3,10
12099,-5e-05,-5e-05,-5e-05,-7e-05,-4e-05,2e-05,-6e-05,-2e-05,3,10
12100,-5e-05,-5e-05,-5e-05,-7e-05,-4e-05,2e-05,-6e-05,-2e-05,3,10
12101,-5e-05,-5e-05,-5e-05,-7e-05,-4e-05,2e-05,-6e-05,-2e-05,3,10
12102,-5e-05,-5e-05,-5e-05,-7e-05,-4e-05,2e-05,-6e-05,-2e-05,3,10
12104,-0.0001,-5e-05,-7e-05,-6e-05,8e-05,0.00018,1e-05,-1e-05,3,10
12105,-0.0001,-5e-05,-7e-05,-6e-05,8e-05,0.00018,1e-05,-1e-05,3,10
12106,-0.0001,-5e-05,-7e-05,-6e-05,8e-05,0.00018,1e-05,-1e-05,3,10
12107,-0.0001,-5e-05,-7e-05,-6e-05,8e-05,0.00018,1e-05,-1e-05,3,10
12108,-0.0001,-5e-05,-7e-05,-6e-05,8e-05,0.00018,1e-05,-1e-05,3,10
12109,-0.0001,-5e-05,-7e-05,-6e-05,8e-05,0.00018,1e-05,-1e-05,3,10
12110,-0.0001,-5e-05,-7e-05,-6e-05,8e-05,0.00018,1e-05,-1e-05,3,10
12111,-0.0001,-5e-05,-7e-05,-6e-05,8e-05,0.00018,1e-05,-1e-05,3,10
12112,-0.0001,-5e-05,-7e-05,-6e-05,8e-05,0.00018,1e-05,-1e-05,3,10
12113,-0.0001,-5e-05,-7e-05,-6e-05,8e-05,0.00018,1e-05,-1e-05,3,10
12114,-0.0001,-5e-05,-7e-05,-6e-05,8e-05,0.00018,1e-05,-1e-05,3,10
12115,-0.0001,-5e-05,-7e-05,-6e-05,8e-05,0.00018,1e-05,-1e-05,3,10
12116,-0.0001,-5e-05,-7e-05,-6e-05,8e-05,0.00018,1e-05,-1e-05,3,10
12117,-0.0001,-5e-05,-7e-05,-6e-05,8e-05,0.00018,1e-05,-1e-05,3,10
12118,1e-05,2e-05,2e-05,0,-9e-05,-0.00021,-0.00021,-2e-05,3,10
12119,1e-05,2e-05,2e-05,0,-9e-05,-0.00021,-0.00021,-2e-05,3,10
12120,1e-05,2e-05,2e-05,0,-9e-05,-0.00021,-0.00021,-2e-05,3,10
12121,1e-05,2e-05,2e-05,0,-9e-05,-0.00021,-0.00021,-2e-05,3,10
12122,1e-05,2e-05,2e-05,0,-9e-05,-0.00021,-0.00021,-2e-05,3,10
12123,1e-05,2e-05,2e-05,0,-9e-05,-0.00021,-0.00021,-2e-05,3,10
12124,1e-05,2e-05,2e-05,0,-9e-05,-0.00021,-0.00021,-2e-05,3,10
12125,1e-05,2e-05,2e-05,0,-9e-05,-0.00021,-0.00021,-2e-05,3,10
12126,0.00054,1e-05,-2e-05,4e-05,4e-05,0.00043,0.00016,0.00016,3,10
12127,-2e-05,-6e-05,-6e-05,-0.0001,-0.00011,-0.00025,-7e-05,1e-05,3,10
12128,4e-05,1e-05,-1e-05,6e-05,0.00027,0.00031,6e-05,0,3,10
12129,-0.00032,3e-05,2e-05,-2e-05,-0.00013,-0.00046,-5e-05,-2e-05,3,10
12130,-0.00032,3e-05,2e-05,-2e-05,-0.00013,-0.00046,-5e-05,-2e-05,3,10
12131,-0.00032,3e-05,2e-05,-2e-05,-0.00013,-0.00046,-5e-05,-2e-05,3,10
12132,-0.00032,3e-05,2e-05,-2e-05,-0.00013,-0.00046,-5e-05,-2e-05,3,10
12133,-0.00032,3e-05,2e-05,-2e-05,-0.00013,-0.00046,-5e-05,-2e-05,3,10
12134,-0.00032,3e-05,2e-05,-2e-05,-0.00013,-0.00046,-5e-05,-2e-05,3,10
12135,-0.00032,3e-05,2e-05,-2e-05,-0.00013,-0.00046,-5e-05,-2e-05,3,10
12136,-0.00032,3e-05,2e-05,-2e-05,-0.00013,-0.00046,-5e-05,-2e-05,3,10
12138,-0.00032,3e-05,2e-05,-2e-05,-0.00013,-0.00046,-5e-05,-2e-05,3,10
12139,-0.00032,3e-05,2e-05,-2e-05,-0.00013,-0.00046,-5e-05,-2e-05,3,10
12140,-0.00032,3e-05,2e-05,-2e-05,-0.00013,-0.00046,-5e-05,-2e-05,3,10
12141,-0.00032,3e-05,2e-05,-2e-05,-0.00013,-0.00046,-5e-05,-2e-05,3,10
12142,-0.00032,3e-05,2e-05,-2e-05,-0.00013,-0.00046,-5e-05,-2e-05,3,10
12144,-0.00032,3e-05,2e-05,-2e-05,-0.00013,-0.00046,-5e-05,-2e-05,3,10
12145,-0.00032,3e-05,2e-05,-2e-05,-0.00013,-0.00046,-5e-05,-2e-05,3,10
12146,-0.00032,3e-05,2e-05,-2e-05,-0.00013,-0.00046,-5e-05,-2e-05,3,10
12147,-0.00032,3e-05,2e-05,-2e-05,-0.00013,-0.00046,-5e-05,-2e-05,3,10
12148,-0.00032,3e-05,2e-05,-2e-05,-0.00013,-0.00046,-5e-05,-2e-05,3,10
12149,-0.00032,3e-05,2e-05,-2e-05,-0.00013,-0.00046,-5e-05,-2e-05,3,10
12150,-0.00032,3e-05,2e-05,-2e-05,-0.00013,-0.00046,-5e-05,-2e-05,3,10
12151,-0.00032,3e-05,2e-05,-2e-05,-0.00013,-0.00046,-5e-05,-2e-05,3,10
12152,-0.00032,3e-05,2e-05,-2e-05,-0.00013,-0.00046,-5e-05,-2e-05,3,10
12153,-0.00032,3e-05,2e-05,-2e-05,-0.00013,-0.00046,-5e-05,-2e-05,3,10
12154,-0.00032,3e-05,2e-05,-2e-05,-0.00013,-0.00046,-5e-05,-2e-05,3,10
12156,-0.00032,3e-05,2e-05,-2e-05,-0.00013,-0.00046,-5e-05,-2e-05,3,10
12157,-0.00018,-4e-05,-6e-05,-0.00024,-5e-05,0.00017,-4e-05,1e-05,3,10
12158,6e-05,5e-05,-1e-05,-0.00015,0,0.00035,9e-05,2e-05,3,10
12159,6e-05,5e-05,-1e-05,-0.00015,0,0.00035,9e-05,2e-05,3,10
12160,6e-05,5e-05,-1e-05,-0.00015,0,0.00035,9e-05,2e-05,3,10
12161,6e-05,5e-05,-1e-05,-0.00015,0,0.00035,9e-05,2e-05,3,10
12162,6e-05,5e-05,-1e-05,-0.00015,0,0.00035,9e-05,2e-05,3,10
12163,-0.00021,8e-05,0,-9e-05,-0.00013,-0.00065,-0.00016,-7e-05,3,10
12164,-6e-05,-3e-05,3e-05,2e-05,6e-05,-5e-05,1e-05,0,3,10
12165,-6e-05,-3e-05,3e-05,2e-05,6e-05,-5e-05,1e-05,0,3,10
12166,-6e-05,-3e-05,3e-05,2e-05,6e-05,-5e-05,1e-05,0,3,10
12167,-6e-05,-3e-05,3e-05,2e-05,6e-05,-5e-05,1e-05,0,3,10
12168,-6e-05,-3e-05,3e-05,2e-05,6e-05,-5e-05,1e-05,0,3,10
12169,-6e-05,-3e-05,3e-05,2e-05,6e-05,-5e-05,1e-05,0,3,10
12170,-4e-05,-4e-05,-8e-05,-8e-05,1e-05,0.00018,2e-05,-3e-05,3,10
12171,8e-05,1e-05,-3e-05,-5e-05,-0.00011,-0.00031,8e-05,0,3,10
12172,8e-05,1e-05,-3e-05,-5e-05,-0.00011,-0.00031,8e-05,0,3,10
12173,8e-05,1e-05,-3e-05,-5e-05,-0.00011,-0.00031,8e-05,0,3,10
12174,8e-05,1e-05,-3e-05,-5e-05,-0.00011,-0.00031,8e-05,0,3,10
12175,8e-05,1e-05,-3e-05,-5e-05,-0.00011,-0.00031,8e-05,0,3,10
12176,8e-05,1e-05,-3e-05,-5e-05,-0.00011,-0.00031,8e-05,0,3,10
12177,8e-05,1e-05,-3e-05,-5e-05,-0.00011,-0.00031,8e-05,0,3,10
12178,8e-05,1e-05,-3e-05,-5e-05,-0.00011,-0.00031,8e-05,0,3,10
12179,8e-05,1e-05,-3e-05,-5e-05,-0.00011,-0.00031,8e-05,0,3,10
12180,8e-05,1e-05,-3e-05,-5e-05,-0.00011,-0.00031,8e-05,0,3,10
12181,8e-05,1e-05,-3e-05,-5e-05,-0.00011,-0.00031,8e-05,0,3,10
12182,8e-05,1e-05,-3e-05,-5e-05,-0.00011,-0.00031,8e-05,0,3,10
12183,8e-05,1e-05,-3e-05,-5e-05,-0.00011,-0.00031,8e-05,0,3,10
12184,8e-05,1e-05,-3e-05,-5e-05,-0.00011,-0.00031,8e-05,0,3,10
12185,8e-05,1e-05,-3e-05,-5e-05,-0.00011,-0.00031,8e-05,0,3,10
12186,8e-05,1e-05,-3e-05,-5e-05,-0.00011,-0.00031,8e-05,0,3,10
12189,-1e-05,1e-05,7e-05,0.00027,0.0002,0.00045,0.00012,6e-05,3,10
12190,-1e-05,1e-05,7e-05,0.00027,0.0002,0.00045,0.00012,6e-05,3,10
12191,-1e-05,1e-05,7e-05,0.00027,0.0002,0.00045,0.00012,6e-05,3,10
12192,-1e-05,1e-05,7e-05,0.00027,0.0002,0.00045,0.00012,6e-05,3,10
12193,-1e-05,1e-05,7e-05,0.00027,0.0002,0.00045,0.00012,6e-05,3,10
12194,-1e-05,1e-05,7e-05,0.00027,0.0002,0.00045,0.00012,6e-05,3,10
12195,-1e-05,1e-05,7e-05,0.00027,0.0002,0.00045,0.00012,6e-05,3,10
12196,-1e-05,1e-05,7e-05,0.00027,0.0002,0.00045,0.00012,6e-05,3,10
12197,-1e-05,1e-05,7e-05,0.00027,0.0002,0.00045,0.00012,6e-05,3,10
12198,-1e-05,1e-05,7e-05,0.00027,0.0002,0.00045,0.00012,6e-05,3,10
12199,-1e-05,1e-05,7e-05,0.00027,0.0002,0.00045,0.00012,6e-05,3,10
12200,-1e-05,1e-05,7e-05,0.00027,0.0002,0.00045,0.00012,6e-05,3,10
12201,-1e-05,1e-05,7e-05,0.00027,0.0002,0.00045,0.00012,6e-05,3,10
12202,-1e-05,1e-05,7e-05,0.00027,0.0002,0.00045,0.00012,6e-05,3,10
12204,-1e-05,1e-05,7e-05,0.00027,0.0002,0.00045,0.00012,6e-05,3,10
12205,-1e-05,1e-05,7e-05,0.00027,0.0002,0.00045,0.00012,6e-05,3,10
12206,-1e-05,1e-05,7e-05,0.00027,0.0002,0.00045,0.00012,6e-05,3,10
12207,-1e-05,1e-05,7e-05,0.00027,0.0002,0.00045,0.00012,6e-05,3,10
12208,-1e-05,1e-05,7e-05,0.00027,0.0002,0.00045,0.00012,6e-05,3,10
12209,-0.00011,-9e-05,-0.00017,1e-05,-4e-05,-0.00016,8e-05,-1e-05,3,10
12210,-0.00011,-9e-05,-0.00017,1e-05,-4e-05,-0.00016,8e-05,-1e-05,3,10
12211,-0.00011,-9e-05,-0.00017,1e-05,-4e-05,-0.00016,8e-05,-1e-05,3,10
12212,3e-05,1e-05,2e-05,0,0.00022,-0.00032,0.00018,-1e-05,3,10
12213,3e-05,1e-05,2e-05,0,0.00022,-0.00032,0.00018,-1e-05,3,10
12214,3e-05,1e-05,2e-05,0,0.00022,-0.00032,0.00018,-1e-05,3,10
12215,3e-05,1e-05,2e-05,0,0.00022,-0.00032,0.00018,-1e-05,3,10
12216,3e-05,1e-05,2e-05,0,0.00022,-0.00032,0.00018,-1e-05,3,10
