11871,-0.00076,0.00046,0,-8e-05,-0.00024,-0.00035,-6e-05,-3e-05,3,11
11872,-0.00076,0.00046,0,-8e-05,-0.00024,-0.00035,-6e-05,-3e-05,3,11
11873,-3e-05,6e-05,4e-05,1e-05,0.00015,-8e-05,2e-05,0.0003,3,11
11874,-0.00033,-0.00076,1e-05,-6e-05,0.00027,0.00071,0.00022,4e-05,3,11
11875,-0.00033,-0.00076,1e-05,-6e-05,0.00027,0.00071,0.00022,4e-05,3,11
11876,-0.00033,-0.00076,1e-05,-6e-05,0.00027,0.00071,0.00022,4e-05,3,11
11877,-0.00033,-0.00076,1e-05,-6e-05,0.00027,0.00071,0.00022,4e-05,3,11
11878,-0.00033,-0.00076,1e-05,-6e-05,0.00027,0.00071,0.00022,4e-05,3,11
11879,-0.00033,-0.00076,1e-05,-6e-05,0.00027,0.00071,0.00022,4e-05,3,11
11880,-0.00033,-0.00076,1e-05,-6e-05,0.00027,0.00071,0.00022,4e-05,3,11
11881,-0.00033,-0.00076,1e-05,-6e-05,0.00027,0.00071,0.00022,4e-05,3,11
11882,-0.00033,-0.00076,1e-05,-6e-05,0.00027,0.00071,0.00022,4e-05,3,11
11883,-0.00033,-0.00076,1e-05,-6e-05,0.00027,0.00071,0.00022,4e-05,3,11
11884,-0.00033,-0.00076,1e-05,-6e-05,0.00027,0.00071,0.00022,4e-05,3,11
11885,-0.00033,-0.00076,1e-05,-6e-05,0.00027,0.00071,0.00022,4e-05,3,11
11886,-0.00033,-0.00076,1e-05,-6e-05,0.00027,0.00071,0.00022,4e-05,3,11
11888,-0.00033,-0.00076,1e-05,-6e-05,0.00027,0.00071,0.00022,4e-05,3,11
11889,-0.00033,-0.00076,1e-05,-6e-05,0.00027,0.00071,0.00022,4e-05,3,11
11890,-0.00033,-0.00076,1e-05,-6e-05,0.00027,0.00071,0.00022,4e-05,3,11
11891,-0.00033,-0.00076,1e-05,-6e-05,0.00027,0.00071,0.00022,4e-05,3,11
11892,-0.00033,-0.00076,1e-05,-6e-05,0.00027,0.00071,0.00022,4e-05,3,11
11893,-0.00033,-0.00076,1e-05,-6e-05,0.00027,0.00071,0.00022,4e-05,3,11
11894,-0.00033,-0.00076,1e-05,-6e-05,0.00027,0.00071,0.00022,4e-05,3,11
11895,0.00025,-0.00061,-0.00019,-5e-05,-7e-05,-0.00013,2e-05,-0.00064,3,11
11896,0.00025,-0.00061,-0.00019,-5e-05,-7e-05,-0.00013,2e-05,-0.00064,3,11
11897,0.00043,0.00063,7e-05,-2e-05,-0.0004,0.00105,7e-05,-0.00024,3,11
11898,0.00043,0.00063,7e-05,-2e-05,-0.0004,0.00105,7e-05,-0.00024,3,11
11899,0.00043,0.00063,7e-05,-2e-05,-0.0004,0.00105,7e-05,-0.00024,3,11
11900,0.00043,0.00063,7e-05,-2e-05,-0.0004,0.00105,7e-05,-0.00024,3,11
11901,0.00043,0.00063,7e-05,-2e-05,-0.0004,0.00105,7e-05,-0.00024,3,11
11902,0.00043,0.00063,7e-05,-2e-05,-0.0004,0.00105,7e-05,-0.00024,3,11
11903,0.00043,0.00063,7e-05,-2e-05,-0.0004,0.00105,7e-05,-0.00024,3,11
11904,0.00043,0.00063,7e-05,-2e-05,-0.0004,0.00105,7e-05,-0.00024,3,11
11905,0.00043,0.00063,7e-05,-2e-05,-0.0004,0.00105,7e-05,-0.00024,3,11
11906,0.00043,0.00063,7e-05,-2e-05,-0.0004,0.00105,7e-05,-0.00024,3,11
11907,0.00043,0.00063,7e-05,-2e-05,-0.0004,0.00105,7e-05,-0.00024,3,11
11908,0.00043,0.00063,7e-05,-2e-05,-0.0004,0.00105,7e-05,-0.00024,3,11
11909,0.0007,0.00077,3e-05,5e-05,-8e-05,-0.00042,-0.0001,0.0004,3,11
11910,0.0007,0.00077,3e-05,5e-05,-8e-05,-0.00042,-0.0001,0.0004,3,11
11911,0.0007,0.00077,3e-05,5e-05,-8e-05,-0.00042,-0.0001,0.0004,3,11
11912,0.0007,0.00077,3e-05,5e-05,-8e-05,-0.00042,-0.0001,0.0004,3,11
11913,0.0007,0.00077,3e-05,5e-05,-8e-05,-0.00042,-0.0001,0.0004,3,11
11914,0.0007,0.00077,3e-05,5e-05,-8e-05,-0.00042,-0.0001,0.0004,3,11
11915,0.0007,0.00077,3e-05,5e-05,-8e-05,-0.00042,-0.0001,0.0004,3,11
11916,0.0007,0.00077,3e-05,5e-05,-8e-05,-0.00042,-0.0001,0.0004,3,11
11917,0.0007,0.00077,3e-05,5e-05,-8e-05,-0.00042,-0.0001,0.0004,3,11
11918,0.00029,0.00059,6e-05,2e-05,-0.0003,-0.00035,6e-05,-0.00074,3,11
11919,0.00029,0.00059,6e-05,2e-05,-0.0003,-0.00035,6e-05,-0.00074,3,11
11920,0.00029,0.00059,6e-05,2e-05,-0.0003,-0.00035,6e-05,-0.00074,3,11
11921,0.00029,0.00059,6e-05,2e-05,-0.0003,-0.00035,6e-05,-0.00074,3,11
11922,0.00029,0.00059,6e-05,2e-05,-0.0003,-0.00035,6e-05,-0.00074,3,11
11923,0.00029,0.00059,6e-05,2e-05,-0.0003,-0.00035,6e-05,-0.00074,3,11
11924,0.00029,0.00059,6e-05,2e-05,-0.0003,-0.00035,6e-05,-0.00074,3,11
11925,0.00029,0.00059,6e-05,2e-05,-0.0003,-0.00035,6e-05,-0.00074,3,11
11926,0.00029,0.00059,6e-05,2e-05,-0.0003,-0.00035,6e-05,-0.00074,3,11
11927,0.00029,0.00059,6e-05,2e-05,-0.0003,-0.00035,6e-05,-0.00074,3,11
11928,0.00029,0.00059,6e-05,2e-05,-0.0003,-0.00035,6e-05,-0.00074,3,11
11929,0.00029,0.00059,6e-05,2e-05,-0.0003,-0.00035,6e-05,-0.00074,3,11
11930,0.00029,0.00059,6e-05,2e-05,-0.0003,-0.00035,6e-05,-0.00074,3,11
11931,0.00029,0.00059,6e-05,2e-05,-0.0003,-0.00035,6e-05,-0.00074,3,11
11932,0.00029,0.00059,6e-05,2e-05,-0.0003,-0.00035,6e-05,-0.00074,3,11
11933,0.00035,0.00127,0.00023,4e-05,0.00049,0,8e-05,-0.0004,3,11
11934,-0.00089,0.00057,2e-05,6e-05,0.00023,-0.00029,-0.00026,-0.00012,3,11
11935,-0.00089,0.00057,2e-05,6e-05,0.00023,-0.00029,-0.00026,-0.00012,3,11
11936,-0.00089,0.00057,2e-05,6e-05,0.00023,-0.00029,-0.00026,-0.00012,3,11
11938,-0.00089,0.00057,2e-05,6e-05,0.00023,-0.00029,-0.00026,-0.00012,3,11
11939,-0.00089,0.00057,2e-05,6e-05,0.00023,-0.00029,-0.00026,-0.00012,3,11
11940,-0.00089,0.00057,2e-05,6e-05,0.00023,-0.00029,-0.00026,-0.00012,3,11
11941,-0.00089,0.00057,2e-05,6e-05,0.00023,-0.00029,-0.00026,-0.00012,3,11
11942,-0.00089,0.00057,2e-05,6e-05,0.00023,-0.00029,-0.00026,-0.00012,3,11
11943,-0.00089,0.00057,2e-05,6e-05,0.00023,-0.00029,-0.00026,-0.00012,3,11
11944,-0.00089,0.00057,2e-05,6e-05,0.00023,-0.00029,-0.00026,-0.00012,3,11
11945,-0.00089,0.00057,2e-05,6e-05,0.00023,-0.00029,-0.00026,-0.00012,3,11
11946,-0.00089,0.00057,2e-05,6e-05,0.00023,-0.00029,-0.00026,-0.00012,3,11
11947,-0.00089,0.00057,2e-05,6e-05,0.00023,-0.00029,-0.00026,-0.00012,3,11
11948,-0.00089,0.00057,2e-05,6e-05,0.00023,-0.00029,-0.00026,-0.00012,3,11
11949,-0.00089,0.00057,2e-05,6e-05,0.00023,-0.00029,-0.00026,-0.00012,3,11
11950,-0.00089,0.00057,2e-05,6e-05,0.00023,-0.00029,-0.00026,-0.00012,3,11
11951,-0.00089,0.00057,2e-05,6e-05,0.00023,-0.00029,-0.00026,-0.00012,3,11
11952,-0.00089,0.00057,2e-05,6e-05,0.00023,-0.00029,-0.00026,-0.00012,3,11
11953,-0.00089,0.00057,2e-05,6e-05,0.00023,-0.00029,-0.00026,-0.00012,3,11
11954,-0.00089,0.00057,2e-05,6e-05,0.00023,-0.00029,-0.00026,-0.00012,3,11
11955,-0.00014,0.00063,0.00017,9e-05,0.00072,0.00093,0.00035,8e-05,3,11
11956,-0.00014,0.00063,0.00017,9e-05,0.00072,0.00093,0.00035,8e-05,3,11
11957,-0.00021,0.00021,0.0001,6e-05,-0.00049,-0.00109,4e-05,0.00121,3,11
11958,-0.00021,0.00021,0.0001,6e-05,-0.00049,-0.00109,4e-05,0.00121,3,11
11959,-0.00021,0.00021,0.0001,6e-05,-0.00049,-0.00109,4e-05,0.00121,3,11
11960,-0.00021,0.00021,0.0001,6e-05,-0.00049,-0.00109,4e-05,0.00121,3,11
11961,-0.00021,0.00021,0.0001,6e-05,-0.00049,-0.00109,4e-05,0.00121,3,11
11962,-0.00021,0.00021,0.0001,6e-05,-0.00049,-0.00109,4e-05,0.00121,3,11
11963,-0.00021,0.00021,0.0001,6e-05,-0.00049,-0.00109,4e-05,0.00121,3,11
11964,-0.00021,0.00021,0.0001,6e-05,-0.00049,-0.00109,4e-05,0.00121,3,11
11965,-0.00021,0.00021,0.0001,6e-05,-0.00049,-0.00109,4e-05,0.00121,3,11
11966,-0.00021,0.00021,0.0001,6e-05,-0.00049,-0.00109,4e-05,0.00121,3,11
11967,-0.00021,0.00021,0.0001,6e-05,-0.00049,-0.00109,4e-05,0.00121,3,11
11968,-0.00021,0.00021,0.0001,6e-05,-0.00049,-0.00109,4e-05,0.00121,3,11
11969,0,0.00089,6e-05,-4e-05,-0.00075,-0.00098,-3e-05,-0.00066,3,11
11970,0,0.00089,6e-05,-4e-05,-0.00075,-0.00098,-3e-05,-0.00066,3,11
11971,0,0.00089,6e-05,-4e-05,-0.00075,-0.00098,-3e-05,-0.00066,3,11
11972,0,0.00089,6e-05,-4e-05,-0.00075,-0.00098,-3e-05,-0.00066,3,11
11973,0,0.00089,6e-05,-4e-05,-0.00075,-0.00098,-3e-05,-0.00066,3,11
11974,0,0.00089,6e-05,-4e-05,-0.00075,-0.00098,-3e-05,-0.00066,3,11
11975,0,0.00089,6e-05,-4e-05,-0.00075,-0.00098,-3e-05,-0.00066,3,11
11976,0,0.00089,6e-05,-4e-05,-0.00075,-0.00098,-3e-05,-0.00066,3,11
11978,0,0.00089,6e-05,-4e-05,-0.00075,-0.00098,-3e-05,-0.00066,3,11
11979,0.00085,0.00051,-9e-05,-1e-05,0.00029,-0.00063,-0.00021,0.0005,3,11
11980,0.00085,0.00051,-9e-05,-1e-05,0.00029,-0.00063,-0.00021,0.0005,3,11
11981,0.00085,0.00051,-9e-05,-1e-05,0.00029,-0.00063,-0.00021,0.0005,3,11
11982,0.00085,0.00051,-9e-05,-1e-05,0.00029,-0.00063,-0.00021,0.0005,3,11
11983,0.00085,0.00051,-9e-05,-1e-05,0.00029,-0.00063,-0.00021,0.0005,3,11
11984,0.00085,0.00051,-9e-05,-1e-05,0.00029,-0.00063,-0.00021,0.0005,3,11
11985,0.00085,0.00051,-9e-05,-1e-05,0.00029,-0.00063,-0.00021,0.0005,3,11
11986,0.00085,0.00051,-9e-05,-1e-05,0.00029,-0.00063,-0.00021,0.0005,3,11
11988,0.00085,0.00051,-9e-05,-1e-05,0.00029,-0.00063,-0.00021,0.0005,3,11
11989,0.00085,0.00051,-9e-05,-1e-05,0.00029,-0.00063,-0.00021,0.0005,3,11
11990,0.00085,0.00051,-9e-05,-1e-05,0.00029,-0.00063,-0.00021,0.0005,3,11
11991,0.00085,0.00051,-9e-05,-1e-05,0.00029,-0.00063,-0.00021,0.0005,3,11
11992,0.00085,0.00051,-9e-05,-1e-05,0.00029,-0.00063,-0.00021,0.0005,3,11
11993,-0.00047,-0.00084,-0.00012,-5e-05,0.00017,0.0001,-9e-05,0.00019,3,11
11994,0.00031,-0.00127,-0.00033,-0.00017,4e-05,-0.00042,-0.00014,-0.00066,3,11
11995,0.00031,-0.00127,-0.00033,-0.00017,4e-05,-0.00042,-0.00014,-0.00066,3,11
11996,0.00031,-0.00127,-0.00033,-0.00017,4e-05,-0.00042,-0.00014,-0.00066,3,11
11997,0.00031,-0.00127,-0.00033,-0.00017,4e-05,-0.00042,-0.00014,-0.00066,3,11
11998,0.00031,-0.00127,-0.00033,-0.00017,4e-05,-0.00042,-0.00014,-0.00066,3,11
11999,0.00031,-0.00127,-0.00033,-0.00017,4e-05,-0.00042,-0.00014,-0.00066,3,11
12000,0.00031,-0.00127,-0.00033,-0.00017,4e-05,-0.00042,-0.00014,-0.00066,3,11
12001,0.00031,-0.00127,-0.00033,-0.00017,4e-05,-0.00042,-0.00014,-0.00066,3,11
12002,0.00031,-0.00127,-0.00033,-0.00017,4e-05,-0.00042,-0.00014,-0.00066,3,11
12003,0.00031,-0.00127,-0.00033,-0.00017,4e-05,-0.00042,-0.00014,-0.00066,3,11
12004,0.00031,-0.00127,-0.00033,-0.00017,4e-05,-0.00042,-0.00014,-0.00066,3,11
12005,0.00031,-0.00127,-0.00033,-0.00017,4e-05,-0.00042,-0.00014,-0.00066,3,11
12006,0.00031,-0.00127,-0.00033,-0.00017,4e-05,-0.00042,-0.00014,-0.00066,3,11
12007,0.00031,-0.00127,-0.00033,-0.00017,4e-05,-0.00042,-0.00014,-0.00066,3,11
12008,0.00031,-0.00127,-0.00033,-0.00017,4e-05,-0.00042,-0.00014,-0.00066,3,11
12009,0.00031,-0.00127,-0.00033,-0.00017,4e-05,-0.00042,-0.00014,-0.00066,3,11
12010,0.00031,-0.00127,-0.00033,-0.00017,4e-05,-0.00042,-0.00014,-0.00066,3,11
12011,0.00031,-0.00127,-0.00033,-0.00017,4e-05,-0.00042,-0.00014,-0.00066,3,11
12012,0.00031,-0.00127,-0.00033,-0.00017,4e-05,-0.00042,-0.00014,-0.00066,3,11
12013,0.00031,-0.00127,-0.00033,-0.00017,4e-05,-0.00042,-0.00014,-0.00066,3,11
12014,0.00031,-0.00127,-0.00033,-0.00017,4e-05,-0.00042,-0.00014,-0.00066,3,11
12015,0.00023,-0.00091,-0.00018,-8e-05,-0.00025,-0.00021,-0.00023,8e-05,3,11
12016,0.00023,-0.00091,-0.00018,-8e-05,-0.00025,-0.00021,-0.00023,8e-05,3,11
12017,0.00064,0.00031,6e-05,-4e-05,-0.00029,-0.00028,0.00018,-2e-05,3,11
12018,0.00064,0.00031,6e-05,-4e-05,-0.00029,-0.00028,0.00018,-2e-05,3,11
12019,0.00064,0.00031,6e-05,-4e-05,-0.00029,-0.00028,0.00018,-2e-05,3,11
12020,0.00064,0.00031,6e-05,-4e-05,-0.00029,-0.00028,0.00018,-2e-05,3,11
12021,0.00064,0.00031,6e-05,-4e-05,-0.00029,-0.00028,0.00018,-2e-05,3,11
12022,0.00064,0.00031,6e-05,-4e-05,-0.00029,-0.00028,0.00018,-2e-05,3,11
12023,0.00064,0.00031,6e-05,-4e-05,-0.00029,-0.00028,0.00018,-2e-05,3,11
12024,0.00064,0.00031,6e-05,-4e-05,-0.00029,-0.00028,0.00018,-2e-05,3,11
12025,0.00064,0.00031,6e-05,-4e-05,-0.00029,-0.00028,0.00018,-2e-05,3,11
12026,0.00064,0.00031,6e-05,-4e-05,-0.00029,-0.00028,0.00018,-2e-05,3,11
12027,0.00064,0.00031,6e-05,-4e-05,-0.00029,-0.00028,0.00018,-2e-05,3,11
12028,0.00064,0.00031,6e-05,-4e-05,-0.00029,-0.00028,0.00018,-2e-05,3,11
12029,0.00021,-0.00056,-7e-05,-8e-05,-0.00011,-2e-05,-0.00012,0.00108,3,11
12030,0.00021,-0.00056,-7e-05,-8e-05,-0.00011,-2e-05,-0.00012,0.00108,3,11
12031,0.00021,-0.00056,-7e-05,-8e-05,-0.00011,-2e-05,-0.00012,0.00108,3,11
12032,0.00021,-0.00056,-7e-05,-8e-05,-0.00011,-2e-05,-0.00012,0.00108,3,11
12033,0.00021,-0.00056,-7e-05,-8e-05,-0.00011,-2e-05,-0.00012,0.00108,3,11
12034,0.00021,-0.00056,-7e-05,-8e-05,-0.00011,-2e-05,-0.00012,0.00108,3,11
12035,0.00021,-0.00056,-7e-05,-8e-05,-0.00011,-2e-05,-0.00012,0.00108,3,11
12036,0.00021,-0.00056,-7e-05,-8e-05,-0.00011,-2e-05,-0.00012,0.00108,3,11
12038,0.00048,0.00021,8e-05,-1e-05,0.00041,0.00095,-0.00016,0.00072,3,11
12039,0.00048,0.00021,8e-05,-1e-05,0.00041,0.00095,-0.00016,0.00072,3,11
12040,0.00048,0.00021,8e-05,-1e-05,0.00041,0.00095,-0.00016,0.00072,3,11
12041,0.00048,0.00021,8e-05,-1e-05,0.00041,0.00095,-0.00016,0.00072,3,11
12042,0.00048,0.00021,8e-05,-1e-05,0.00041,0.00095,-0.00016,0.00072,3,11
12043,0.00048,0.00021,8e-05,-1e-05,0.00041,0.00095,-0.00016,0.00072,3,11
12044,0.00048,0.00021,8e-05,-1e-05,0.00041,0.00095,-0.00016,0.00072,3,11
12045,0.00048,0.00021,8e-05,-1e-05,0.00041,0.00095,-0.00016,0.00072,3,11
12046,0.00048,0.00021,8e-05,-1e-05,0.00041,0.00095,-0.00016,0.00072,3,11
12047,0.00048,0.00021,8e-05,-1e-05,0.00041,0.00095,-0.00016,0.00072,3,11
12048,0.00048,0.00021,8e-05,-1e-05,0.00041,0.00095,-0.00016,0.00072,3,11
12049,0.00048,0.00021,8e-05,-1e-05,0.00041,0.00095,-0.00016,0.00072,3,11
12050,0.00048,0.00021,8e-05,-1e-05,0.00041,0.00095,-0.00016,0.00072,3,11
12051,0.00048,0.00021,8e-05,-1e-05,0.00041,0.00095,-0.00016,0.00072,3,11
12052,0.00048,0.00021,8e-05,-1e-05,0.00041,0.00095,-0.00016,0.00072,3,11
12053,7e-05,0.00027,8e-05,-7e-05,-0.00041,-0.00087,-9e-05,-0.0007,3,11
12054,-0.00093,-0.0007,-5e-05,-2e-05,0.00024,0.00025,-7e-05,-0.0009,3,11
12055,-0.00093,-0.0007,-5e-05,-2e-05,0.00024,0.00025,-7e-05,-0.0009,3,11
12056,-0.00093,-0.0007,-5e-05,-2e-05,0.00024,0.00025,-7e-05,-0.0009,3,11
12057,-0.00093,-0.0007,-5e-05,-2e-05,0.00024,0.00025,-7e-05,-0.0009,3,11
12058,-0.00093,-0.0007,-5e-05,-2e-05,0.00024,0.00025,-7e-05,-0.0009,3,11
12059,-0.00093,-0.0007,-5e-05,-2e-05,0.00024,0.00025,-7e-05,-0.0009,3,11
12060,-0.00093,-0.0007,-5e-05,-2e-05,0.00024,0.00025,-7e-05,-0.0009,3,11
12061,-0.00093,-0.0007,-5e-05,-2e-05,0.00024,0.00025,-7e-05,-0.0009,3,11
12062,-0.00093,-0.0007,-5e-05,-2e-05,0.00024,0.00025,-7e-05,-0.0009,3,11
12063,-0.00093,-0.0007,-5e-05,-2e-05,0.00024,0.00025,-7e-05,-0.0009,3,11
12064,-0.00093,-0.0007,-5e-05,-2e-05,0.00024,0.00025,-7e-05,-0.0009,3,11
12065,-0.00093,-0.0007,-5e-05,-2e-05,0.00024,0.00025,-7e-05,-0.0009,3,11
12066,-0.00093,-0.0007,-5e-05,-2e-05,0.00024,0.00025,-7e-05,-0.0009,3,11
12067,-0.00093,-0.0007,-5e-05,-2e-05,0.00024,0.00025,-7e-05,-0.0009,3,11
12068,-0.00093,-0.0007,-5e-05,-2e-05,0.00024,0.00025,-7e-05,-0.0009,3,11
12069,-0.00093,-0.0007,-5e-05,-2e-05,0.00024,0.00025,-7e-05,-0.0009,3,11
12070,-0.00093,-0.0007,-5e-05,-2e-05,0.00024,0.00025,-7e-05,-0.0009,3,11
12071,-0.00093,-0.0007,-5e-05,-2e-05,0.00024,0.00025,-7e-05,-0.0009,3,11
12072,-0.00093,-0.0007,-5e-05,-2e-05,0.00024,0.00025,-7e-05,-0.0009,3,11
12073,-0.00093,-0.0007,-5e-05,-2e-05,0.00024,0.00025,-7e-05,-0.0009,3,11
12074,-0.00093,-0.0007,-5e-05,-2e-05,0.00024,0.00025,-7e-05,-0.0009,3,11
12075,-0.00011,0.00033,-2e-05,0.00017,0.00039,0.00059,-0.00015,-0.00067,3,11
12076,-0.00011,0.00033,-2e-05,0.00017,0.00039,0.00059,-0.00015,-0.00067,3,11
12077,0.00034,0.00073,3e-05,3e-05,-0.00022,-0.00032,-0.0001,0.00069,3,11
12078,0.00034,0.00073,3e-05,3e-05,-0.00022,-0.00032,-0.0001,0.00069,3,11
12079,0.00034,0.00073,3e-05,3e-05,-0.00022,-0.00032,-0.0001,0.00069,3,11
12080,0.00034,0.00073,3e-05,3e-05,-0.00022,-0.00032,-0.0001,0.00069,3,11
12081,0.00034,0.00073,3e-05,3e-05,-0.00022,-0.00032,-0.0001,0.00069,3,11
12082,0.00034,0.00073,3e-05,3e-05,-0.00022,-0.00032,-0.0001,0.00069,3,11
12083,0.00034,0.00073,3e-05,3e-05,-0.00022,-0.00032,-0.0001,0.00069,3,11
12084,0.00034,0.00073,3e-05,3e-05,-0.00022,-0.00032,-0.0001,0.00069,3,11
12085,0.00034,0.00073,3e-05,3e-05,-0.00022,-0.00032,-0.0001,0.00069,3,11
12086,0.00034,0.00073,3e-05,3e-05,-0.00022,-0.00032,-0.0001,0.00069,3,11
12088,0.00034,0.00073,3e-05,3e-05,-0.00022,-0.00032,-0.0001,0.00069,3,11
12089,-0.00061,-0.00097,-0.00021,-0.0001,0.00075,0.00052,0.00015,-0.00083,3,11
12090,-0.00061,-0.00097,-0.00021,-0.0001,0.00075,0.00052,0.00015,-0.00083,3,11
12091,-0.00061,-0.00097,-0.00021,-0.0001,0.00075,0.00052,0.00015,-0.00083,3,11
12092,-0.00061,-0.00097,-0.00021,-0.0001,0.00075,0.00052,0.00015,-0.00083,3,11
12093,-0.00061,-0.00097,-0.00021,-0.0001,0.00075,0.00052,0.00015,-0.00083,3,11
12094,-0.00061,-0.00097,-0.00021,-0.0001,0.00075,0.00052,0.00015,-0.00083,3,11
12095,-0.00061,-0.00097,-0.00021,-0.0001,0.00075,0.00052,0.00015,-0.00083,3,11
12096,-0.00061,-0.00097,-0.00021,-0.0001,0.00075,0.00052,0.00015,-0.00083,3,11
12097,-0.00061,-0.00097,-0.00021,-0.0001,0.00075,0.00052,0.00015,-0.00083,3,11
12098,-0.00021,0.00052,-9e-05,-1e-05,0.0002,1e-05,0.00011,-0.00035,3,11
12099,-0.00021,0.00052,-9e-05,-1e-05,0.0002,1e-05,0.00011,-0.00035,3,11
12100,-0.00021,0.00052,-9e-05,-1e-05,0.0002,1e-05,0.00011,-0.00035,3,11
12101,-0.00021,0.00052,-9e-05,-1e-05,0.0002,1e-05,0.00011,-0.00035,3,11
12102,-0.00021,0.00052,-9e-05,-1e-05,0.0002,1e-05,0.00011,-0.00035,3,11
12103,-0.00021,0.00052,-9e-05,-1e-05,0.0002,1e-05,0.00011,-0.00035,3,11
12104,-0.00021,0.00052,-9e-05,-1e-05,0.0002,1e-05,0.00011,-0.00035,3,11
12105,-0.00021,0.00052,-9e-05,-1e-05,0.0002,1e-05,0.00011,-0.00035,3,11
12106,-0.00021,0.00052,-9e-05,-1e-05,0.0002,1e-05,0.00011,-0.00035,3,11
12107,-0.00021,0.00052,-9e-05,-1e-05,0.0002,1e-05,0.00011,-0.00035,3,11
12108,-0.00021,0.00052,-9e-05,-1e-05,0.0002,1e-05,0.00011,-0.00035,3,11
12109,-0.00021,0.00052,-9e-05,-1e-05,0.0002,1e-05,0.00011,-0.00035,3,11
12110,-0.00021,0.00052,-9e-05,-1e-05,0.0002,1e-05,0.00011,-0.00035,3,11
12111,-0.00021,0.00052,-9e-05,-1e-05,0.0002,1e-05,0.00011,-0.00035,3,11
12112,-0.00021,0.00052,-9e-05,-1e-05,0.0002,1e-05,0.00011,-0.00035,3,11
12113,0.00051,0.00033,8e-05,-6e-05,-0.0004,-0.00071,-4e-05,0.00019,3,11
12114,0.00029,0.00051,0.00016,0.00011,-0.00041,0.00071,-1e-05,-0.00093,3,11
12115,0.00029,0.00051,0.00016,0.00011,-0.00041,0.00071,-1e-05,-0.00093,3,11
12116,0.00029,0.00051,0.00016,0.00011,-0.00041,0.00071,-1e-05,-0.00093,3,11
12117,0.00029,0.00051,0.00016,0.00011,-0.00041,0.00071,-1e-05,-0.00093,3,11
12119,0.00029,0.00051,0.00016,0.00011,-0.00041,0.00071,-1e-05,-0.00093,3,11
12120,0.00029,0.00051,0.00016,0.00011,-0.00041,0.00071,-1e-05,-0.00093,3,11
12121,0.00029,0.00051,0.00016,0.00011,-0.00041,0.00071,-1e-05,-0.00093,3,11
12122,0.00029,0.00051,0.00016,0.00011,-0.00041,0.00071,-1e-05,-0.00093,3,11
12123,0.00029,0.00051,0.00016,0.00011,-0.00041,0.00071,-1e-05,-0.00093,3,11
12124,0.00029,0.00051,0.00016,0.00011,-0.00041,0.00071,-1e-05,-0.00093,3,11
12125,0.00029,0.00051,0.00016,0.00011,-0.00041,0.00071,-1e-05,-0.00093,3,11
12126,0.00029,0.00051,0.00016,0.00011,-0.00041,0.00071,-1e-05,-0.00093,3,11
12127,0.00029,0.00051,0.00016,0.00011,-0.00041,0.00071,-1e-05,-0.00093,3,11
12128,0.00029,0.00051,0.00016,0.00011,-0.00041,0.00071,-1e-05,-0.00093,3,11
12129,0.00029,0.00051,0.00016,0.00011,-0.00041,0.00071,-1e-05,-0.00093,3,11
12130,0.00029,0.00051,0.00016,0.00011,-0.00041,0.00071,-1e-05,-0.00093,3,11
12131,0.00029,0.00051,0.00016,0.00011,-0.00041,0.00071,-1e-05,-0.00093,3,11
12132,0.00029,0.00051,0.00016,0.00011,-0.00041,0.00071,-1e-05,-0.00093,3,11
12133,0.00029,0.00051,0.00016,0.00011,-0.00041,0.00071,-1e-05,-0.00093,3,11
12134,0.00029,0.00051,0.00016,0.00011,-0.00041,0.00071,-1e-05,-0.00093,3,11
12135,0.0001,0.00057,0.00012,-1e-05,-0.00018,0.0007,-0.00025,-0.00029,3,11
12136,0.0001,0.00057,0.00012,-1e-05,-0.00018,0.0007,-0.00025,-0.00029,3,11
12138,4e-05,-0.00051,-0.00011,2e-05,0.00013,-0.00084,0,-0.00021,3,11
12139,4e-05,-0.00051,-0.00011,2e-05,0.00013,-0.00084,0,-0.00021,3,11
12140,4e-05,-0.00051,-0.00011,2e-05,0.00013,-0.00084,0,-0.00021,3,11
12141,4e-05,-0.00051,-0.00011,2e-05,0.00013,-0.00084,0,-0.00021,3,11
12142,4e-05,-0.00051,-0.00011,2e-05,0.00013,-0.00084,0,-0.00021,3,11
12143,4e-05,-0.00051,-0.00011,2e-05,0.00013,-0.00084,0,-0.00021,3,11
12144,4e-05,-0.00051,-0.00011,2e-05,0.00013,-0.00084,0,-0.00021,3,11
12145,4e-05,-0.00051,-0.00011,2e-05,0.00013,-0.00084,0,-0.00021,3,11
12146,4e-05,-0.00051,-0.00011,2e-05,0.00013,-0.00084,0,-0.00021,3,11
12147,4e-05,-0.00051,-0.00011,2e-05,0.00013,-0.00084,0,-0.00021,3,11
12148,4e-05,-0.00051,-0.00011,2e-05,0.00013,-0.00084,0,-0.00021,3,11
12149,-0.00108,0.00017,6e-05,0.00016,-0.00019,-0.00016,-7e-05,0.00077,3,11
12150,-0.00108,0.00017,6e-05,0.00016,-0.00019,-0.00016,-7e-05,0.00077,3,11
12151,-0.00108,0.00017,6e-05,0.00016,-0.00019,-0.00016,-7e-05,0.00077,3,11
12152,-0.00108,0.00017,6e-05,0.00016,-0.00019,-0.00016,-7e-05,0.00077,3,11
12153,-0.00108,0.00017,6e-05,0.00016,-0.00019,-0.00016,-7e-05,0.00077,3,11
12154,-0.00108,0.00017,6e-05,0.00016,-0.00019,-0.00016,-7e-05,0.00077,3,11
12155,-0.00108,0.00017,6e-05,0.00016,-0.00019,-0.00016,-7e-05,0.00077,3,11
12156,-0.00108,0.00017,6e-05,0.00016,-0.00019,-0.00016,-7e-05,0.00077,3,11
12157,-0.00108,0.00017,6e-05,0.00016,-0.00019,-0.00016,-7e-05,0.00077,3,11
12158,-0.00039,-0.00105,-0.0002,-3e-05,0.00039,0.00016,2e-05,-0.00063,3,11
12159,-0.00039,-0.00105,-0.0002,-3e-05,0.00039,0.00016,2e-05,-0.00063,3,11
12160,-0.00039,-0.00105,-0.0002,-3e-05,0.00039,0.00016,2e-05,-0.00063,3,11
12161,-0.00039,-0.00105,-0.0002,-3e-05,0.00039,0.00016,2e-05,-0.00063,3,11
12162,-0.00039,-0.00105,-0.0002,-3e-05,0.00039,0.00016,2e-05,-0.00063,3,11
12163,-0.00039,-0.00105,-0.0002,-3e-05,0.00039,0.00016,2e-05,-0.00063,3,11
12164,-0.00039,-0.00105,-0.0002,-3e-05,0.00039,0.00016,2e-05,-0.00063,3,11
12165,-0.00039,-0.00105,-0.0002,-3e-05,0.00039,0.00016,2e-05,-0.00063,3,11
12166,-0.00039,-0.00105,-0.0002,-3e-05,0.00039,0.00016,2e-05,-0.00063,3,11
12167,-0.00039,-0.00105,-0.0002,-3e-05,0.00039,0.00016,2e-05,-0.00063,3,11
12168,-0.00039,-0.00105,-0.0002,-3e-05,0.00039,0.00016,2e-05,-0.00063,3,11
12169,-0.00039,-0.00105,-0.0002,-3e-05,0.00039,0.00016,2e-05,-0.00063,3,11
12170,-0.00039,-0.00105,-0.0002,-3e-05,0.00039,0.00016,2e-05,-0.00063,3,11
12171,-0.00039,-0.00105,-0.0002,-3e-05,0.00039,0.00016,2e-05,-0.00063,3,11
12172,-0.00039,-0.00105,-0.0002,-3e-05,0.00039,0.00016,2e-05,-0.00063,3,11
12173,0.00033,-0.00044,-0.00013,-6e-05,0.00026,2e-05,0.00022,0.00067,3,11
12174,-0.0001,-2e-05,0.00013,6e-05,-0.00018,0.00054,0.00018,-0.00026,3,11
12175,-0.0001,-2e-05,0.00013,6e-05,-0.00018,0.00054,0.00018,-0.00026,3,11
12176,-0.0001,-2e-05,0.00013,6e-05,-0.00018,0.00054,0.00018,-0.00026,3,11
12177,-0.0001,-2e-05,0.00013,6e-05,-0.00018,0.00054,0.00018,-0.00026,3,11
12178,-0.0001,-2e-05,0.00013,6e-05,-0.00018,0.00054,0.00018,-0.00026,3,11
12179,-0.0001,-2e-05,0.00013,6e-05,-0.00018,0.00054,0.00018,-0.00026,3,11
12180,-0.0001,-2e-05,0.00013,6e-05,-0.00018,0.00054,0.00018,-0.00026,3,11
12181,-0.0001,-2e-05,0.00013,6e-05,-0.00018,0.00054,0.00018,-0.00026,3,11
12182,-0.0001,-2e-05,0.00013,6e-05,-0.00018,0.00054,0.00018,-0.00026,3,11
12183,-0.0001,-2e-05,0.00013,6e-05,-0.00018,0.00054,0.00018,-0.00026,3,11
12184,-0.0001,-2e-05,0.00013,6e-05,-0.00018,0.00054,0.00018,-0.00026,3,11
12185,-0.0001,-2e-05,0.00013,6e-05,-0.00018,0.00054,0.00018,-0.00026,3,11
12186,-0.0001,-2e-05,0.00013,6e-05,-0.00018,0.00054,0.00018,-0.00026,3,11
12188,-0.0001,-2e-05,0.00013,6e-05,-0.00018,0.00054,0.00018,-0.00026,3,11
12189,-0.0001,-2e-05,0.00013,6e-05,-0.00018,0.00054,0.00018,-0.00026,3,11
12190,-0.0001,-2e-05,0.00013,6e-05,-0.00018,0.00054,0.00018,-0.00026,3,11
12191,-0.0001,-2e-05,0.00013,6e-05,-0.00018,0.00054,0.00018,-0.00026,3,11
12192,-0.0001,-2e-05,0.00013,6e-05,-0.00018,0.00054,0.00018,-0.00026,3,11
12193,-0.0001,-2e-05,0.00013,6e-05,-0.00018,0.00054,0.00018,-0.00026,3,11
12194,-0.0001,-2e-05,0.00013,6e-05,-0.00018,0.00054,0.00018,-0.00026,3,11
12195,-0.0001,0.00035,-5e-05,-8e-05,-4e-05,2e-05,-0.00017,-7e-05,3,11
12196,-0.0001,0.00035,-5e-05,-8e-05,-4e-05,2e-05,-0.00017,-7e-05,3,11
12197,-0.0006,0.00065,0,3e-05,-0.00025,0.00032,0,0.00051,3,11
12198,-0.0006,0.00065,0,3e-05,-0.00025,0.00032,0,0.00051,3,11
12199,-0.0006,0.00065,0,3e-05,-0.00025,0.00032,0,0.00051,3,11
12200,-0.0006,0.00065,0,3e-05,-0.00025,0.00032,0,0.00051,3,11
12201,-0.0006,0.00065,0,3e-05,-0.00025,0.00032,0,0.00051,3,11
12202,-0.0006,0.00065,0,3e-05,-0.00025,0.00032,0,0.00051,3,11
12203,-0.0006,0.00065,0,3e-05,-0.00025,0.00032,0,0.00051,3,11
12204,-0.0006,0.00065,0,3e-05,-0.00025,0.00032,0,0.00051,3,11
12205,-0.0006,0.00065,0,3e-05,-0.00025,0.00032,0,0.00051,3,11
12206,-0.0006,0.00065,0,3e-05,-0.00025,0.00032,0,0.00051,3,11
12207,-0.0006,0.00065,0,3e-05,-0.00025,0.00032,0,0.00051,3,11
12208,-0.0006,0.00065,0,3e-05,-0.00025,0.00032,0,0.00051,3,11
12209,-0.0002,-8e-05,-6e-05,-3e-05,0.00062,-0.00031,4e-05,0.00036,3,11
12210,-0.0002,-8e-05,-6e-05,-3e-05,0.00062,-0.00031,4e-05,0.00036,3,11
12211,-0.0002,-8e-05,-6e-05,-3e-05,0.00062,-0.00031,4e-05,0.00036,3,11
12212,-0.0002,-8e-05,-6e-05,-3e-05,0.00062,-0.00031,4e-05,0.00036,3,11
12213,-0.0002,-8e-05,-6e-05,-3e-05,0.00062,-0.00031,4e-05,0.00036,3,11
12214,-0.0002,-8e-05,-6e-05,-3e-05,0.00062,-0.00031,4e-05,0.00036,3,11
12215,-0.0002,-8e-05,-6e-05,-3e-05,0.00062,-0.00031,4e-05,0.00036,3,11
12216,-0.0002,-8e-05,-6e-05,-3e-05,0.00062,-0.00031,4e-05,0.00036,3,11
12217,-0.0002,-8e-05,-6e-05,-3e-05,0.00062,-0.00031,4e-05,0.00036,3,11
12218,0.00026,-0.00022,-1e-05,-4e-05,0.00018,-0.00025,-0.00025,-0.00057,3,11
12219,0.00026,-0.00022,-1e-05,-4e-05,0.00018,-0.00025,-0.00025,-0.00057,3,11
12220,0.00026,-0.00022,-1e-05,-4e-05,0.00018,-0.00025,-0.00025,-0.00057,3,11
12221,0.00026,-0.00022,-1e-05,-4e-05,0.00018,-0.00025,-0.00025,-0.00057,3,11
12222,0.00026,-0.00022,-1e-05,-4e-05,0.00018,-0.00025,-0.00025,-0.00057,3,11
12223,0.00026,-0.00022,-1e-05,-4e-05,0.00018,-0.00025,-0.00025,-0.00057,3,11
12224,0.00026,-0.00022,-1e-05,-4e-05,0.00018,-0.00025,-0.00025,-0.00057,3,11
12225,0.00026,-0.00022,-1e-05,-4e-05,0.00018,-0.00025,-0.00025,-0.00057,3,11
12226,0.00026,-0.00022,-1e-05,-4e-05,0.00018,-0.00025,-0.00025,-0.00057,3,11
12227,0.00026,-0.00022,-1e-05,-4e-05,0.00018,-0.00025,-0.00025,-0.00057,3,11
12228,0.00026,-0.00022,-1e-05,-4e-05,0.00018,-0.00025,-0.00025,-0.00057,3,11
12229,0.00026,-0.00022,-1e-05,-4e-05,0.00018,-0.00025,-0.00025,-0.00057,3,11
12230,0.00026,-0.00022,-1e-05,-4e-05,0.00018,-0.00025,-0.00025,-0.00057,3,11
12231,0.00026,-0.00022,-1e-05,-4e-05,0.00018,-0.00025,-0.00025,-0.00057,3,11
12232,0.00026,-0.00022,-1e-05,-4e-05,0.00018,-0.00025,-0.00025,-0.00057,3,11
12233,0.00026,-0.00022,-1e-05,-4e-05,0.00018,-0.00025,-0.00025,-0.00057,3,11
12234,0.00026,-0.00022,-1e-05,-4e-05,0.00018,-0.00025,-0.00025,-0.00057,3,11
12235,0.00026,-0.00022,-1e-05,-4e-05,0.00018,-0.00025,-0.00025,-0.00057,3,11
12236,0.00026,-0.00022,-1e-05,-4e-05,0.00018,-0.00025,-0.00025,-0.00057,3,11
12238,0.00026,-0.00022,-1e-05,-4e-05,0.00018,-0.00025,-0.00025,-0.00057,3,11
12239,0.00026,-0.00022,-1e-05,-4e-05,0.00018,-0.00025,-0.00025,-0.00057,3,11
12240,-0.00016,-0.00033,-0.00011,-3e-05,-6e-05,0.00056,0.0004,-8e-05,3,11
12241,-0.00016,-0.00033,-0.00011,-3e-05,-6e-05,0.00056,0.0004,-8e-05,3,11
12242,-0.00045,7e-05,-3e-05,-3e-05,-0.00015,-0.00055,-0.00026,0.00029,3,11
12243,-0.00045,7e-05,-3e-05,-3e-05,-0.00015,-0.00055,-0.00026,0.00029,3,11
12244,-0.00045,7e-05,-3e-05,-3e-05,-0.00015,-0.00055,-0.00026,0.00029,3,11
12245,-0.00045,7e-05,-3e-05,-3e-05,-0.00015,-0.00055,-0.00026,0.00029,3,11
12246,-0.00045,7e-05,-3e-05,-3e-05,-0.00015,-0.00055,-0.00026,0.00029,3,11
12247,-0.00045,7e-05,-3e-05,-3e-05,-0.00015,-0.00055,-0.00026,0.00029,3,11
12248,-0.00045,7e-05,-3e-05,-3e-05,-0.00015,-0.00055,-0.00026,0.00029,3,11
12249,-0.00045,7e-05,-3e-05,-3e-05,-0.00015,-0.00055,-0.00026,0.00029,3,11
12250,-0.00045,7e-05,-3e-05,-3e-05,-0.00015,-0.00055,-0.00026,0.00029,3,11
12251,-0.00045,7e-05,-3e-05,-3e-05,-0.00015,-0.00055,-0.00026,0.00029,3,11
12252,-0.00045,7e-05,-3e-05,-3e-05,-0.00015,-0.00055,-0.00026,0.00029,3,11
12253,-0.00045,7e-05,-3e-05,-3e-05,-0.00015,-0.00055,-0.00026,0.00029,3,11
12254,-0.00045,7e-05,-3e-05,-3e-05,-0.00015,-0.00055,-0.00026,0.00029,3,11
12255,0.00066,0.00049,3e-05,-6e-05,-0.00063,8e-05,2e-05,0,3,11
12256,0.00066,0.00049,3e-05,-6e-05,-0.00063,8e-05,2e-05,0,3,11
12257,0.00027,0.00037,0.00013,-2e-05,-0.00021,-0.00016,0.00032,0.00034,3,11
12258,0.00027,0.00037,0.00013,-2e-05,-0.00021,-0.00016,0.00032,0.00034,3,11
12259,0.00027,0.00037,0.00013,-2e-05,-0.00021,-0.00016,0.00032,0.00034,3,11
12260,0.00027,0.00037,0.00013,-2e-05,-0.00021,-0.00016,0.00032,0.00034,3,11
12261,0.00027,0.00037,0.00013,-2e-05,-0.00021,-0.00016,0.00032,0.00034,3,11
12262,0.00027,0.00037,0.00013,-2e-05,-0.00021,-0.00016,0.00032,0.00034,3,11
12263,0.00027,0.00037,0.00013,-2e-05,-0.00021,-0.00016,0.00032,0.00034,3,11
12264,0.00027,0.00037,0.00013,-2e-05,-0.00021,-0.00016,0.00032,0.00034,3,11
12265,0.00027,0.00037,0.00013,-2e-05,-0.00021,-0.00016,0.00032,0.00034,3,11
12266,0.00027,0.00037,0.00013,-2e-05,-0.00021,-0.00016,0.00032,0.00034,3,11
12267,0.00027,0.00037,0.00013,-2e-05,-0.00021,-0.00016,0.00032,0.00034,3,11
12268,0.00027,0.00037,0.00013,-2e-05,-0.00021,-0.00016,0.00032,0.00034,3,11
12269,-1e-05,-0.0003,5e-05,0,-5e-05,0.00013,-3e-05,-0.00073,3,11
12270,-1e-05,-0.0003,5e-05,0,-5e-05,0.00013,-3e-05,-0.00073,3,11
12271,-1e-05,-0.0003,5e-05,0,-5e-05,0.00013,-3e-05,-0.00073,3,11
12272,-1e-05,-0.0003,5e-05,0,-5e-05,0.00013,-3e-05,-0.00073,3,11
12273,-1e-05,-0.0003,5e-05,0,-5e-05,0.00013,-3e-05,-0.00073,3,11
12274,-1e-05,-0.0003,5e-05,0,-5e-05,0.00013,-3e-05,-0.00073,3,11
12275,-1e-05,-0.0003,5e-05,0,-5e-05,0.00013,-3e-05,-0.00073,3,11
12276,-1e-05,-0.0003,5e-05,0,-5e-05,0.00013,-3e-05,-0.00073,3,11
12277,-1e-05,-0.0003,5e-05,0,-5e-05,0.00013,-3e-05,-0.00073,3,11
12278,-1e-05,-0.0003,5e-05,0,-5e-05,0.00013,-3e-05,-0.00073,3,11
12279,-1e-05,-0.0003,5e-05,0,-5e-05,0.00013,-3e-05,-0.00073,3,11
12280,-1e-05,-0.0003,5e-05,0,-5e-05,0.00013,-3e-05,-0.00073,3,11
12281,-1e-05,-0.0003,5e-05,0,-5e-05,0.00013,-3e-05,-0.00073,3,11
12282,-1e-05,-0.0003,5e-05,0,-5e-05,0.00013,-3e-05,-0.00073,3,11
12283,-1e-05,-0.0003,5e-05,0,-5e-05,0.00013,-3e-05,-0.00073,3,11
12284,0.00021,-0.0001,7e-05,0.00012,0.00054,0.00058,0.0002,-0.00098,3,11
12285,0.00021,-0.0001,7e-05,0.00012,0.00054,0.00058,0.0002,-0.00098,3,11
12286,0.00021,-0.0001,7e-05,0.00012,0.00054,0.00058,0.0002,-0.00098,3,11
12288,0.00021,-0.0001,7e-05,0.00012,0.00054,0.00058,0.0002,-0.00098,3,11
12289,0.00021,-0.0001,7e-05,0.00012,0.00054,0.00058,0.0002,-0.00098,3,11
12290,0.00021,-0.0001,7e-05,0.00012,0.00054,0.00058,0.0002,-0.00098,3,11
12291,0.00021,-0.0001,7e-05,0.00012,0.00054,0.00058,0.0002,-0.00098,3,11
12292,0.00021,-0.0001,7e-05,0.00012,0.00054,0.00058,0.0002,-0.00098,3,11
12293,0.00053,0.00042,5e-05,7e-05,0.00041,5e-05,7e-05,-0.00024,3,11
12294,-0.00028,-0.00077,-0.00016,-0.0002,-0.00016,-5e-05,8e-05,9e-05,3,11
12295,-0.00028,-0.00077,-0.00016,-0.0002,-0.00016,-5e-05,8e-05,9e-05,3,11
12296,-0.00028,-0.00077,-0.00016,-0.0002,-0.00016,-5e-05,8e-05,9e-05,3,11
12297,-0.00028,-0.00077,-0.00016,-0.0002,-0.00016,-5e-05,8e-05,9e-05,3,11
12298,-0.00028,-0.00077,-0.00016,-0.0002,-0.00016,-5e-05,8e-05,9e-05,3,11
12299,-0.00028,-0.00077,-0.00016,-0.0002,-0.00016,-5e-05,8e-05,9e-05,3,11
12300,-0.00028,-0.00077,-0.00016,-0.0002,-0.00016,-5e-05,8e-05,9e-05,3,11
12301,-0.00028,-0.00077,-0.00016,-0.0002,-0.00016,-5e-05,8e-05,9e-05,3,11
12302,-0.00028,-0.00077,-0.00016,-0.0002,-0.00016,-5e-05,8e-05,9e-05,3,11
12303,-0.00028,-0.00077,-0.00016,-0.0002,-0.00016,-5e-05,8e-05,9e-05,3,11
12304,-0.00028,-0.00077,-0.00016,-0.0002,-0.00016,-5e-05,8e-05,9e-05,3,11
12305,-0.00028,-0.00077,-0.00016,-0.0002,-0.00016,-5e-05,8e-05,9e-05,3,11
12306,-0.00028,-0.00077,-0.00016,-0.0002,-0.00016,-5e-05,8e-05,9e-05,3,11
12307,-0.00028,-0.00077,-0.00016,-0.0002,-0.00016,-5e-05,8e-05,9e-05,3,11
12308,-0.00028,-0.00077,-0.00016,-0.0002,-0.00016,-5e-05,8e-05,9e-05,3,11
12309,-0.00028,-0.00077,-0.00016,-0.0002,-0.00016,-5e-05,8e-05,9e-05,3,11
12310,-0.00028,-0.00077,-0.00016,-0.0002,-0.00016,-5e-05,8e-05,9e-05,3,11
12311,-0.00028,-0.00077,-0.00016,-0.0002,-0.00016,-5e-05,8e-05,9e-05,3,11
12312,-0.00028,-0.00077,-0.00016,-0.0002,-0.00016,-5e-05,8e-05,9e-05,3,11
12313,-0.00028,-0.00077,-0.00016,-0.0002,-0.00016,-5e-05,8e-05,9e-05,3,11
12314,-0.00028,-0.00077,-0.00016,-0.0002,-0.00016,-5e-05,8e-05,9e-05,3,11
12315,0.0002,0.00011,-5e-05,0,0,-0.00047,-0.00024,0.00014,3,11
12316,0.0002,0.00011,-5e-05,0,0,-0.00047,-0.00024,0.00014,3,11
12317,9e-05,7e-05,-5e-05,-1e-05,0.00026,-0.00026,0.00012,0.001,3,11
12318,9e-05,7e-05,-5e-05,-1e-05,0.00026,-0.00026,0.00012,0.001,3,11
12319,9e-05,7e-05,-5e-05,-1e-05,0.00026,-0.00026,0.00012,0.001,3,11
12320,9e-05,7e-05,-5e-05,-1e-05,0.00026,-0.00026,0.00012,0.001,3,11
12321,9e-05,7e-05,-5e-05,-1e-05,0.00026,-0.00026,0.00012,0.001,3,11
12322,9e-05,7e-05,-5e-05,-1e-05,0.00026,-0.00026,0.00012,0.001,3,11
12323,9e-05,7e-05,-5e-05,-1e-05,0.00026,-0.00026,0.00012,0.001,3,11
12324,9e-05,7e-05,-5e-05,-1e-05,0.00026,-0.00026,0.00012,0.001,3,11
12325,9e-05,7e-05,-5e-05,-1e-05,0.00026,-0.00026,0.00012,0.001,3,11
12326,9e-05,7e-05,-5e-05,-1e-05,0.00026,-0.00026,0.00012,0.001,3,11
12327,9e-05,7e-05,-5e-05,-1e-05,0.00026,-0.00026,0.00012,0.001,3,11
12328,9e-05,7e-05,-5e-05,-1e-05,0.00026,-0.00026,0.00012,0.001,3,11
12329,-7e-05,-0.00047,0,2e-05,-0.00037,-0.0004,7e-05,0.00068,3,11
12330,-7e-05,-0.00047,0,2e-05,-0.00037,-0.0004,7e-05,0.00068,3,11
12331,-7e-05,-0.00047,0,2e-05,-0.00037,-0.0004,7e-05,0.00068,3,11
12332,-7e-05,-0.00047,0,2e-05,-0.00037,-0.0004,7e-05,0.00068,3,11
12333,-7e-05,-0.00047,0,2e-05,-0.00037,-0.0004,7e-05,0.00068,3,11
12334,-7e-05,-0.00047,0,2e-05,-0.00037,-0.0004,7e-05,0.00068,3,11
12335,-7e-05,-0.00047,0,2e-05,-0.00037,-0.0004,7e-05,0.00068,3,11
12336,-7e-05,-0.00047,0,2e-05,-0.00037,-0.0004,7e-05,0.00068,3,11
12338,0.00025,-2e-05,-1e-05,-7e-05,-3e-05,-0.00049,-8e-05,-0.00032,3,11
12339,0.00025,-2e-05,-1e-05,-7e-05,-3e-05,-0.00049,-8e-05,-0.00032,3,11
12340,0.00025,-2e-05,-1e-05,-7e-05,-3e-05,-0.00049,-8e-05,-0.00032,3,11
12341,0.00025,-2e-05,-1e-05,-7e-05,-3e-05,-0.00049,-8e-05,-0.00032,3,11
12342,0.00025,-2e-05,-1e-05,-7e-05,-3e-05,-0.00049,-8e-05,-0.00032,3,11
12343,0.00025,-2e-05,-1e-05,-7e-05,-3e-05,-0.00049,-8e-05,-0.00032,3,11
12344,0.00025,-2e-05,-1e-05,-7e-05,-3e-05,-0.00049,-8e-05,-0.00032,3,11
12345,0.00025,-2e-05,-1e-05,-7e-05,-3e-05,-0.00049,-8e-05,-0.00032,3,11
12346,0.00025,-2e-05,-1e-05,-7e-05,-3e-05,-0.00049,-8e-05,-0.00032,3,11
12347,0.00025,-2e-05,-1e-05,-7e-05,-3e-05,-0.00049,-8e-05,-0.00032,3,11
12348,0.00025,-2e-05,-1e-05,-7e-05,-3e-05,-0.00049,-8e-05,-0.00032,3,11
12349,0.00025,-2e-05,-1e-05,-7e-05,-3e-05,-0.00049,-8e-05,-0.00032,3,11
12350,0.00025,-2e-05,-1e-05,-7e-05,-3e-05,-0.00049,-8e-05,-0.00032,3,11
12351,0.00025,-2e-05,-1e-05,-7e-05,-3e-05,-0.00049,-8e-05,-0.00032,3,11
12352,0.00047,0.00038,-2e-05,-3e-05,0.0001,-0.00016,0.00016,-0.00035,3,11
12353,-7e-05,0.00039,0.0001,4e-05,0.00043,0.0001,-0.00011,-0.00016,3,11
12354,-0.00037,0.00011,-1e-05,7e-05,-7e-05,0.00025,-0.00026,-0.00038,3,11
12355,-0.00037,0.00011,-1e-05,7e-05,-7e-05,0.00025,-0.00026,-0.00038,3,11
12356,-0.00037,0.00011,-1e-05,7e-05,-7e-05,0.00025,-0.00026,-0.00038,3,11
12357,-0.00037,0.00011,-1e-05,7e-05,-7e-05,0.00025,-0.00026,-0.00038,3,11
12358,-0.00037,0.00011,-1e-05,7e-05,-7e-05,0.00025,-0.00026,-0.00038,3,11
12359,-0.00037,0.00011,-1e-05,7e-05,-7e-05,0.00025,-0.00026,-0.00038,3,11
12360,-0.00037,0.00011,-1e-05,7e-05,-7e-05,0.00025,-0.00026,-0.00038,3,11
12361,-0.00037,0.00011,-1e-05,7e-05,-7e-05,0.00025,-0.00026,-0.00038,3,11
12362,-0.00037,0.00011,-1e-05,7e-05,-7e-05,0.00025,-0.00026,-0.00038,3,11
12363,-0.00037,0.00011,-1e-05,7e-05,-7e-05,0.00025,-0.00026,-0.00038,3,11
12364,-0.00037,0.00011,-1e-05,7e-05,-7e-05,0.00025,-0.00026,-0.00038,3,11
12365,-0.00037,0.00011,-1e-05,7e-05,-7e-05,0.00025,-0.00026,-0.00038,3,11
12366,-0.00037,0.00011,-1e-05,7e-05,-7e-05,0.00025,-0.00026,-0.00038,3,11
12367,-0.00037,0.00011,-1e-05,7e-05,-7e-05,0.00025,-0.00026,-0.00038,3,11
12368,-0.00037,0.00011,-1e-05,7e-05,-7e-05,0.00025,-0.00026,-0.00038,3,11
12369,-0.00037,0.00011,-1e-05,7e-05,-7e-05,0.00025,-0.00026,-0.00038,3,11
12370,-0.00037,0.00011,-1e-05,7e-05,-7e-05,0.00025,-0.00026,-0.00038,3,11
12371,-0.00037,0.00011,-1e-05,7e-05,-7e-05,0.00025,-0.00026,-0.00038,3,11
12372,-0.00037,0.00011,-1e-05,7e-05,-7e-05,0.00025,-0.00026,-0.00038,3,11
12373,-0.00037,0.00011,-1e-05,7e-05,-7e-05,0.00025,-0.00026,-0.00038,3,11
12374,-0.00037,0.00011,-1e-05,7e-05,-7e-05,0.00025,-0.00026,-0.00038,3,11
12375,0.00013,-3e-05,1e-05,-8e-05,0.00014,-0.00028,-0.00022,-5e-05,3,11
12376,0.00013,-3e-05,1e-05,-8e-05,0.00014,-0.00028,-0.00022,-5e-05,3,11
12377,0.00012,-0.00014,-0.0001,0,0.00038,0.00026,-0.0001,-0.00054,3,11
12378,0.00012,-0.00014,-0.0001,0,0.00038,0.00026,-0.0001,-0.00054,3,11
12379,0.00012,-0.00014,-0.0001,0,0.00038,0.00026,-0.0001,-0.00054,3,11
12380,0.00012,-0.00014,-0.0001,0,0.00038,0.00026,-0.0001,-0.00054,3,11
12381,0.00012,-0.00014,-0.0001,0,0.00038,0.00026,-0.0001,-0.00054,3,11
12382,0.00012,-0.00014,-0.0001,0,0.00038,0.00026,-0.0001,-0.00054,3,11
12383,0.00012,-0.00014,-0.0001,0,0.00038,0.00026,-0.0001,-0.00054,3,11
12384,0.00012,-0.00014,-0.0001,0,0.00038,0.00026,-0.0001,-0.00054,3,11
12385,0.00012,-0.00014,-0.0001,0,0.00038,0.00026,-0.0001,-0.00054,3,11
12386,0.00012,-0.00014,-0.0001,0,0.00038,0.00026,-0.0001,-0.00054,3,11
12388,0.00012,-0.00014,-0.0001,0,0.00038,0.00026,-0.0001,-0.00054,3,11
12389,-0.0003,-0.00022,-7e-05,-0.00011,-0.00081,0.00012,0.00013,-0.00046,3,11
12390,-0.0003,-0.00022,-7e-05,-0.00011,-0.00081,0.00012,0.00013,-0.00046,3,11
12391,-0.0003,-0.00022,-7e-05,-0.00011,-0.00081,0.00012,0.00013,-0.00046,3,11
12392,-0.0003,-0.00022,-7e-05,-0.00011,-0.00081,0.00012,0.00013,-0.00046,3,11
12393,-0.0003,-0.00022,-7e-05,-0.00011,-0.00081,0.00012,0.00013,-0.00046,3,11
12394,-0.0003,-0.00022,-7e-05,-0.00011,-0.00081,0.00012,0.00013,-0.00046,3,11
12395,-0.0003,-0.00022,-7e-05,-0.00011,-0.00081,0.00012,0.00013,-0.00046,3,11
12396,-0.0003,-0.00022,-7e-05,-0.00011,-0.00081,0.00012,0.00013,-0.00046,3,11
12397,-0.0003,-0.00022,-7e-05,-0.00011,-0.00081,0.00012,0.00013,-0.00046,3,11
12398,-0.00041,-0.00055,-0.00019,-3e-05,4e-05,0.00011,0,0.0002,3,11
12399,-0.00041,-0.00055,-0.00019,-3e-05,4e-05,0.00011,0,0.0002,3,11
12400,-0.00041,-0.00055,-0.00019,-3e-05,4e-05,0.00011,0,0.0002,3,11
12401,-0.00041,-0.00055,-0.00019,-3e-05,4e-05,0.00011,0,0.0002,3,11
12402,-0.00041,-0.00055,-0.00019,-3e-05,4e-05,0.00011,0,0.0002,3,11
12403,-0.00041,-0.00055,-0.00019,-3e-05,4e-05,0.00011,0,0.0002,3,11
12404,-0.00041,-0.00055,-0.00019,-3e-05,4e-05,0.00011,0,0.0002,3,11
12405,-0.00041,-0.00055,-0.00019,-3e-05,4e-05,0.00011,0,0.0002,3,11
12406,-0.00041,-0.00055,-0.00019,-3e-05,4e-05,0.00011,0,0.0002,3,11
12407,-0.00041,-0.00055,-0.00019,-3e-05,4e-05,0.00011,0,0.0002,3,11
12408,-0.00041,-0.00055,-0.00019,-3e-05,4e-05,0.00011,0,0.0002,3,11
12409,-0.00041,-0.00055,-0.00019,-3e-05,4e-05,0.00011,0,0.0002,3,11
12410,-0.00041,-0.00055,-0.00019,-3e-05,4e-05,0.00011,0,0.0002,3,11
12411,-0.00041,-0.00055,-0.00019,-3e-05,4e-05,0.00011,0,0.0002,3,11
12412,-0.00041,-0.00055,-0.00019,-3e-05,4e-05,0.00011,0,0.0002,3,11
12413,0.00061,0.0001,3e-05,-3e-05,-0.0001,0.00013,0.00011,-0.00076,3,11
12414,0,-0.00038,2e-05,3e-05,0.0002,0.0008,-3e-05,-0.00039,3,11
12415,0,-0.00038,2e-05,3e-05,0.0002,0.0008,-3e-05,-0.00039,3,11
12416,0,-0.00038,2e-05,3e-05,0.0002,0.0008,-3e-05,-0.00039,3,11
12417,0,-0.00038,2e-05,3e-05,0.0002,0.0008,-3e-05,-0.00039,3,11
12418,0,-0.00038,2e-05,3e-05,0.0002,0.0008,-3e-05,-0.00039,3,11
12419,0,-0.00038,2e-05,3e-05,0.0002,0.0008,-3e-05,-0.00039,3,11
12420,0,-0.00038,2e-05,3e-05,0.0002,0.0008,-3e-05,-0.00039,3,11
12421,0,-0.00038,2e-05,3e-05,0.0002,0.0008,-3e-05,-0.00039,3,11
12422,0,-0.00038,2e-05,3e-05,0.0002,0.0008,-3e-05,-0.00039,3,11
12423,0,-0.00038,2e-05,3e-05,0.0002,0.0008,-3e-05,-0.00039,3,11
12424,0,-0.00038,2e-05,3e-05,0.0002,0.0008,-3e-05,-0.00039,3,11
12425,0,-0.00038,2e-05,3e-05,0.0002,0.0008,-3e-05,-0.00039,3,11
12426,0,-0.00038,2e-05,3e-05,0.0002,0.0008,-3e-05,-0.00039,3,11
12427,0,-0.00038,2e-05,3e-05,0.0002,0.0008,-3e-05,-0.00039,3,11
12428,0,-0.00038,2e-05,3e-05,0.0002,0.0008,-3e-05,-0.00039,3,11
12429,0,-0.00038,2e-05,3e-05,0.0002,0.0008,-3e-05,-0.00039,3,11
12430,0,-0.00038,2e-05,3e-05,0.0002,0.0008,-3e-05,-0.00039,3,11
12431,0,-0.00038,2e-05,3e-05,0.0002,0.0008,-3e-05,-0.00039,3,11
12432,0,-0.00038,2e-05,3e-05,0.0002,0.0008,-3e-05,-0.00039,3,11
12433,0,-0.00038,2e-05,3e-05,0.0002,0.0008,-3e-05,-0.00039,3,11
12434,0,-0.00038,2e-05,3e-05,0.0002,0.0008,-3e-05,-0.00039,3,11
12435,-0.00047,0.00024,-6e-05,-4e-05,-0.00079,8e-05,4e-05,0.00064,3,11
12436,-0.00047,0.00024,-6e-05,-4e-05,-0.00079,8e-05,4e-05,0.00064,3,11
12438,0.00016,-0.00016,-4e-05,-6e-05,-0.00022,-0.00025,0.00014,0.00028,3,11
12439,0.00016,-0.00016,-4e-05,-6e-05,-0.00022,-0.00025,0.00014,0.00028,3,11
12440,0.00016,-0.00016,-4e-05,-6e-05,-0.00022,-0.00025,0.00014,0.00028,3,11
12441,0.00016,-0.00016,-4e-05,-6e-05,-0.00022,-0.00025,0.00014,0.00028,3,11
12442,0.00016,-0.00016,-4e-05,-6e-05,-0.00022,-0.00025,0.00014,0.00028,3,11
12443,0.00016,-0.00016,-4e-05,-6e-05,-0.00022,-0.00025,0.00014,0.00028,3,11
12444,0.00016,-0.00016,-4e-05,-6e-05,-0.00022,-0.00025,0.00014,0.00028,3,11
12445,0.00016,-0.00016,-4e-05,-6e-05,-0.00022,-0.00025,0.00014,0.00028,3,11
12446,0.00016,-0.00016,-4e-05,-6e-05,-0.00022,-0.00025,0.00014,0.00028,3,11
12447,0.00016,-0.00016,-4e-05,-6e-05,-0.00022,-0.00025,0.00014,0.00028,3,11
12448,0.00016,-0.00016,-4e-05,-6e-05,-0.00022,-0.00025,0.00014,0.00028,3,11
12449,0.00016,-0.00016,-4e-05,-6e-05,-0.00022,-0.00025,0.00014,0.00028,3,11
12450,0.00016,-0.00016,-4e-05,-6e-05,-0.00022,-0.00025,0.00014,0.00028,3,11
12451,0.00016,-0.00016,-4e-05,-6e-05,-0.00022,-0.00025,0.00014,0.00028,3,11
12452,0.00016,-0.00016,-4e-05,-6e-05,-0.00022,-0.00025,0.00014,0.00028,3,11
12453,0.00016,-0.00016,-4e-05,-6e-05,-0.00022,-0.00025,0.00014,0.00028,3,11
12454,0.00016,-0.00016,-4e-05,-6e-05,-0.00022,-0.00025,0.00014,0.00028,3,11
12455,0.00016,-0.00016,-4e-05,-6e-05,-0.00022,-0.00025,0.00014,0.00028,3,11
12456,0.00016,-0.00016,-4e-05,-6e-05,-0.00022,-0.00025,0.00014,0.00028,3,11
12457,0.00016,-0.00016,-4e-05,-6e-05,-0.00022,-0.00025,0.00014,0.00028,3,11
12458,9e-05,-0.00021,-6e-05,6e-05,6e-05,-0.00083,-9e-05,0.00031,3,11
12459,-0.0004,-0.00036,-6e-05,-0.0001,-7e-05,0.00061,-0.00021,0.00068,3,11
12460,-0.0004,-0.00036,-6e-05,-0.0001,-7e-05,0.00061,-0.00021,0.00068,3,11
12461,-0.0004,-0.00036,-6e-05,-0.0001,-7e-05,0.00061,-0.00021,0.00068,3,11
12462,-0.0004,-0.00036,-6e-05,-0.0001,-7e-05,0.00061,-0.00021,0.00068,3,11
12463,-0.0004,-0.00036,-6e-05,-0.0001,-7e-05,0.00061,-0.00021,0.00068,3,11
12464,-0.0004,-0.00036,-6e-05,-0.0001,-7e-05,0.00061,-0.00021,0.00068,3,11
12465,-0.0004,-0.00036,-6e-05,-0.0001,-7e-05,0.00061,-0.00021,0.00068,3,11
12466,-0.0004,-0.00036,-6e-05,-0.0001,-7e-05,0.00061,-0.00021,0.00068,3,11
12467,-0.0004,-0.00036,-6e-05,-0.0001,-7e-05,0.00061,-0.00021,0.00068,3,11
12468,-0.0004,-0.00036,-6e-05,-0.0001,-7e-05,0.00061,-0.00021,0.00068,3,11
12469,-0.0004,-0.00036,-6e-05,-0.0001,-7e-05,0.00061,-0.00021,0.00068,3,11
12470,-0.0004,-0.00036,-6e-05,-0.0001,-7e-05,0.00061,-0.00021,0.00068,3,11
12471,-0.0004,-0.00036,-6e-05,-0.0001,-7e-05,0.00061,-0.00021,0.00068,3,11
12472,-0.0004,-0.00036,-6e-05,-0.0001,-7e-05,0.00061,-0.00021,0.00068,3,11
12473,0.00013,-5e-05,-7e-05,3e-05,0.00037,0.00047,0.0001,-1e-05,3,11
12474,0.00038,0.00019,9e-05,0,0.00028,-0.00034,-2e-05,0.00054,3,11
12475,0.00038,0.00019,9e-05,0,0.00028,-0.00034,-2e-05,0.00054,3,11
12476,0.00038,0.00019,9e-05,0,0.00028,-0.00034,-2e-05,0.00054,3,11
12477,0.00038,0.00019,9e-05,0,0.00028,-0.00034,-2e-05,0.00054,3,11
12478,0.00038,0.00019,9e-05,0,0.00028,-0.00034,-2e-05,0.00054,3,11
12479,0.00038,0.00019,9e-05,0,0.00028,-0.00034,-2e-05,0.00054,3,11
12480,0.00038,0.00019,9e-05,0,0.00028,-0.00034,-2e-05,0.00054,3,11
12481,0.00038,0.00019,9e-05,0,0.00028,-0.00034,-2e-05,0.00054,3,11
12482,0.00038,0.00019,9e-05,0,0.00028,-0.00034,-2e-05,0.00054,3,11
12483,0.00038,0.00019,9e-05,0,0.00028,-0.00034,-2e-05,0.00054,3,11
12484,0.00038,0.00019,9e-05,0,0.00028,-0.00034,-2e-05,0.00054,3,11
12485,0.00038,0.00019,9e-05,0,0.00028,-0.00034,-2e-05,0.00054,3,11
12486,0.00038,0.00019,9e-05,0,0.00028,-0.00034,-2e-05,0.00054,3,11
12488,0.00038,0.00019,9e-05,0,0.00028,-0.00034,-2e-05,0.00054,3,11
12489,0.00038,0.00019,9e-05,0,0.00028,-0.00034,-2e-05,0.00054,3,11
12490,0.00038,0.00019,9e-05,0,0.00028,-0.00034,-2e-05,0.00054,3,11
12491,0.00038,0.00019,9e-05,0,0.00028,-0.00034,-2e-05,0.00054,3,11
12492,0.00038,0.00019,9e-05,0,0.00028,-0.00034,-2e-05,0.00054,3,11
12493,0.00038,0.00019,9e-05,0,0.00028,-0.00034,-2e-05,0.00054,3,11
12494,0.00038,0.00019,9e-05,0,0.00028,-0.00034,-2e-05,0.00054,3,11
12495,-0.00017,4e-05,3e-05,2e-05,0.00049,-0.00023,-0.0001,-0.00051,3,11
12496,-0.00017,4e-05,3e-05,2e-05,0.00049,-0.00023,-0.0001,-0.00051,3,11
12497,-6e-05,0.0001,8e-05,4e-05,-0.0002,-0.00085,-2e-05,-0.00031,3,11
12498,-6e-05,0.0001,8e-05,4e-05,-0.0002,-0.00085,-2e-05,-0.00031,3,11
12499,-6e-05,0.0001,8e-05,4e-05,-0.0002,-0.00085,-2e-05,-0.00031,3,11
12500,-6e-05,0.0001,8e-05,4e-05,-0.0002,-0.00085,-2e-05,-0.00031,3,11
12501,-6e-05,0.0001,8e-05,4e-05,-0.0002,-0.00085,-2e-05,-0.00031,3,11
12502,-6e-05,0.0001,8e-05,4e-05,-0.0002,-0.00085,-2e-05,-0.00031,3,11
12503,-6e-05,0.0001,8e-05,4e-05,-0.0002,-0.00085,-2e-05,-0.00031,3,11
12504,-6e-05,0.0001,8e-05,4e-05,-0.0002,-0.00085,-2e-05,-0.00031,3,11
12505,-6e-05,0.0001,8e-05,4e-05,-0.0002,-0.00085,-2e-05,-0.00031,3,11
12506,-6e-05,0.0001,8e-05,4e-05,-0.0002,-0.00085,-2e-05,-0.00031,3,11
12507,-6e-05,0.0001,8e-05,4e-05,-0.0002,-0.00085,-2e-05,-0.00031,3,11
12508,-6e-05,0.0001,8e-05,4e-05,-0.0002,-0.00085,-2e-05,-0.00031,3,11
12509,-6e-05,0.0001,8e-05,4e-05,-0.0002,-0.00085,-2e-05,-0.00031,3,11
12510,-6e-05,0.0001,8e-05,4e-05,-0.0002,-0.00085,-2e-05,-0.00031,3,11
12511,-6e-05,0.0001,8e-05,4e-05,-0.0002,-0.00085,-2e-05,-0.00031,3,11
12512,-6e-05,0.0001,8e-05,4e-05,-0.0002,-0.00085,-2e-05,-0.00031,3,11
12513,-6e-05,0.0001,8e-05,4e-05,-0.0002,-0.00085,-2e-05,-0.00031,3,11
12514,-6e-05,0.0001,8e-05,4e-05,-0.0002,-0.00085,-2e-05,-0.00031,3,11
12515,-6e-05,0.0001,8e-05,4e-05,-0.0002,-0.00085,-2e-05,-0.00031,3,11
12516,-6e-05,0.0001,8e-05,4e-05,-0.0002,-0.00085,-2e-05,-0.00031,3,11
12517,-6e-05,0.0001,8e-05,4e-05,-0.0002,-0.00085,-2e-05,-0.00031,3,11
12518,-0.00025,-0.00022,-8e-05,-5e-05,0.00048,0.00064,0.00022,0.00037,3,11
12519,0.00014,-0.00014,4e-05,6e-05,0.00034,0.00021,5e-05,0.0004,3,11
12520,0.00014,-0.00014,4e-05,6e-05,0.00034,0.00021,5e-05,0.0004,3,11
12521,0.00014,-0.00014,4e-05,6e-05,0.00034,0.00021,5e-05,0.0004,3,11
12522,0.00014,-0.00014,4e-05,6e-05,0.00034,0.00021,5e-05,0.0004,3,11
12523,0.00014,-0.00014,4e-05,6e-05,0.00034,0.00021,5e-05,0.0004,3,11
12524,0.00014,-0.00014,4e-05,6e-05,0.00034,0.00021,5e-05,0.0004,3,11
12525,0.00014,-0.00014,4e-05,6e-05,0.00034,0.00021,5e-05,0.0004,3,11
12526,0.00014,-0.00014,4e-05,6e-05,0.00034,0.00021,5e-05,0.0004,3,11
12527,0.00014,-0.00014,4e-05,6e-05,0.00034,0.00021,5e-05,0.0004,3,11
12528,0.00014,-0.00014,4e-05,6e-05,0.00034,0.00021,5e-05,0.0004,3,11
12529,0.00014,-0.00014,4e-05,6e-05,0.00034,0.00021,5e-05,0.0004,3,11
12530,0.00014,-0.00014,4e-05,6e-05,0.00034,0.00021,5e-05,0.0004,3,11
12531,0.00014,-0.00014,4e-05,6e-05,0.00034,0.00021,5e-05,0.0004,3,11
12532,0.00014,-0.00014,4e-05,6e-05,0.00034,0.00021,5e-05,0.0004,3,11
12533,0.00014,-0.00014,4e-05,6e-05,0.00034,0.00021,5e-05,0.0004,3,11
12534,0.00014,-0.00014,4e-05,6e-05,0.00034,0.00021,5e-05,0.0004,3,11
12535,0.00014,-0.00014,4e-05,6e-05,0.00034,0.00021,5e-05,0.0004,3,11
12536,0.00014,-0.00014,4e-05,6e-05,0.00034,0.00021,5e-05,0.0004,3,11
12538,0.00014,-0.00014,4e-05,6e-05,0.00034,0.00021,5e-05,0.0004,3,11
12539,0.00014,-0.00014,4e-05,6e-05,0.00034,0.00021,5e-05,0.0004,3,11
12540,0.00019,-0.00029,-8e-05,-3e-05,-0.00023,-0.00056,-0.0002,0.00097,3,11
12541,0.00019,-0.00029,-8e-05,-3e-05,-0.00023,-0.00056,-0.0002,0.00097,3,11
12542,0.00032,0.00095,0.0001,-1e-05,-8e-05,0.00036,-7e-05,-0.00086,3,11
12543,0.00032,0.00095,0.0001,-1e-05,-8e-05,0.00036,-7e-05,-0.00086,3,11
12544,0.00032,0.00095,0.0001,-1e-05,-8e-05,0.00036,-7e-05,-0.00086,3,11
12545,0.00032,0.00095,0.0001,-1e-05,-8e-05,0.00036,-7e-05,-0.00086,3,11
12546,0.00032,0.00095,0.0001,-1e-05,-8e-05,0.00036,-7e-05,-0.00086,3,11
12547,0.00032,0.00095,0.0001,-1e-05,-8e-05,0.00036,-7e-05,-0.00086,3,11
12548,0.00032,0.00095,0.0001,-1e-05,-8e-05,0.00036,-7e-05,-0.00086,3,11
12549,0.00032,0.00095,0.0001,-1e-05,-8e-05,0.00036,-7e-05,-0.00086,3,11
12550,0.00032,0.00095,0.0001,-1e-05,-8e-05,0.00036,-7e-05,-0.00086,3,11
12551,0.00032,0.00095,0.0001,-1e-05,-8e-05,0.00036,-7e-05,-0.00086,3,11
12552,0.00032,0.00095,0.0001,-1e-05,-8e-05,0.00036,-7e-05,-0.00086,3,11
12553,0.00032,0.00095,0.0001,-1e-05,-8e-05,0.00036,-7e-05,-0.00086,3,11
12554,0.00032,0.00095,0.0001,-1e-05,-8e-05,0.00036,-7e-05,-0.00086,3,11
12555,-0.0002,-0.00058,-9e-05,-6e-05,-0.00011,0.00011,0.00024,0.00044,3,11
12556,-0.0002,-0.00058,-9e-05,-6e-05,-0.00011,0.00011,0.00024,0.00044,3,11
12557,-4e-05,-0.00014,0,-4e-05,-0.00089,0,-0.00013,0.00035,3,11
12558,-4e-05,-0.00014,0,-4e-05,-0.00089,0,-0.00013,0.00035,3,11
12559,-4e-05,-0.00014,0,-4e-05,-0.00089,0,-0.00013,0.00035,3,11
12560,-4e-05,-0.00014,0,-4e-05,-0.00089,0,-0.00013,0.00035,3,11
12561,-4e-05,-0.00014,0,-4e-05,-0.00089,0,-0.00013,0.00035,3,11
12562,-4e-05,-0.00014,0,-4e-05,-0.00089,0,-0.00013,0.00035,3,11
12563,-4e-05,-0.00014,0,-4e-05,-0.00089,0,-0.00013,0.00035,3,11
12564,-4e-05,-0.00014,0,-4e-05,-0.00089,0,-0.00013,0.00035,3,11
12565,-4e-05,-0.00014,0,-4e-05,-0.00089,0,-0.00013,0.00035,3,11
12566,-4e-05,-0.00014,0,-4e-05,-0.00089,0,-0.00013,0.00035,3,11
12567,-4e-05,-0.00014,0,-4e-05,-0.00089,0,-0.00013,0.00035,3,11
12568,-4e-05,-0.00014,0,-4e-05,-0.00089,0,-0.00013,0.00035,3,11
12569,-4e-05,-0.00014,0,-4e-05,-0.00089,0,-0.00013,0.00035,3,11
12570,-4e-05,-0.00014,0,-4e-05,-0.00089,0,-0.00013,0.00035,3,11
12571,-4e-05,-0.00014,0,-4e-05,-0.00089,0,-0.00013,0.00035,3,11
12572,-4e-05,-0.00014,0,-4e-05,-0.00089,0,-0.00013,0.00035,3,11
12573,-4e-05,-0.00014,0,-4e-05,-0.00089,0,-0.00013,0.00035,3,11
12574,-4e-05,-0.00014,0,-4e-05,-0.00089,0,-0.00013,0.00035,3,11
12575,-4e-05,-0.00014,0,-4e-05,-0.00089,0,-0.00013,0.00035,3,11
12576,-4e-05,-0.00014,0,-4e-05,-0.00089,0,-0.00013,0.00035,3,11
12577,8e-05,1e-05,2e-05,-8e-05,-0.00032,-4e-05,-0.00013,-0.0008,3,11
12578,8e-05,1e-05,2e-05,-8e-05,-0.00032,-4e-05,-0.00013,-0.0008,3,11
12579,8e-05,1e-05,2e-05,-8e-05,-0.00032,-4e-05,-0.00013,-0.0008,3,11
12580,8e-05,1e-05,2e-05,-8e-05,-0.00032,-4e-05,-0.00013,-0.0008,3,11
12581,8e-05,1e-05,2e-05,-8e-05,-0.00032,-4e-05,-0.00013,-0.0008,3,11
12582,8e-05,1e-05,2e-05,-8e-05,-0.00032,-4e-05,-0.00013,-0.0008,3,11
12583,8e-05,1e-05,2e-05,-8e-05,-0.00032,-4e-05,-0.00013,-0.0008,3,11
12584,8e-05,1e-05,2e-05,-8e-05,-0.00032,-4e-05,-0.00013,-0.0008,3,11
12585,-0.00032,-0.00079,-0.00011,4e-05,0.00066,0.00037,0.00012,-0.00051,3,11
12586,-0.00032,-0.00079,-0.00011,4e-05,0.00066,0.00037,0.00012,-0.00051,3,11
12588,-0.00032,-0.00079,-0.00011,4e-05,0.00066,0.00037,0.00012,-0.00051,3,11
12589,-0.00032,-0.00079,-0.00011,4e-05,0.00066,0.00037,0.00012,-0.00051,3,11
12590,-0.00032,-0.00079,-0.00011,4e-05,0.00066,0.00037,0.00012,-0.00051,3,11
12591,-0.00032,-0.00079,-0.00011,4e-05,0.00066,0.00037,0.00012,-0.00051,3,11
12592,0.00016,-2e-05,-4e-05,0,6e-05,0.00061,-4e-05,0.00026,3,11
12593,0.00016,-2e-05,-4e-05,0,6e-05,0.00061,-4e-05,0.00026,3,11
12594,0.00016,-2e-05,-4e-05,0,6e-05,0.00061,-4e-05,0.00026,3,11
12595,0.00016,-2e-05,-4e-05,0,6e-05,0.00061,-4e-05,0.00026,3,11
12596,0.00016,-2e-05,-4e-05,0,6e-05,0.00061,-4e-05,0.00026,3,11
12597,0.00016,-2e-05,-4e-05,0,6e-05,0.00061,-4e-05,0.00026,3,11
12598,0.00016,-2e-05,-4e-05,0,6e-05,0.00061,-4e-05,0.00026,3,11
12599,0.00016,-2e-05,-4e-05,0,6e-05,0.00061,-4e-05,0.00026,3,11
12600,0.00016,-2e-05,-4e-05,0,6e-05,0.00061,-4e-05,0.00026,3,11
12601,0.00016,-2e-05,-4e-05,0,6e-05,0.00061,-4e-05,0.00026,3,11
12602,0.00016,-2e-05,-4e-05,0,6e-05,0.00061,-4e-05,0.00026,3,11
12603,0.00016,-2e-05,-4e-05,0,6e-05,0.00061,-4e-05,0.00026,3,11
12604,0.00016,-2e-05,-4e-05,0,6e-05,0.00061,-4e-05,0.00026,3,11
12605,0.00016,-2e-05,-4e-05,0,6e-05,0.00061,-4e-05,0.00026,3,11
12606,0.00034,0.00019,-1e-05,-1e-05,-8e-05,0.0001,-0.00024,-0.00083,3,11
12607,0.00034,0.00019,-1e-05,-1e-05,-8e-05,0.0001,-0.00024,-0.00083,3,11
12608,0.00034,0.00019,-1e-05,-1e-05,-8e-05,0.0001,-0.00024,-0.00083,3,11
12609,0.00034,0.00019,-1e-05,-1e-05,-8e-05,0.0001,-0.00024,-0.00083,3,11
12610,0.00034,0.00019,-1e-05,-1e-05,-8e-05,0.0001,-0.00024,-0.00083,3,11
12611,0.00034,0.00019,-1e-05,-1e-05,-8e-05,0.0001,-0.00024,-0.00083,3,11
12612,0.00034,0.00019,-1e-05,-1e-05,-8e-05,0.0001,-0.00024,-0.00083,3,11
12613,0.00034,0.00019,-1e-05,-1e-05,-8e-05,0.0001,-0.00024,-0.00083,3,11
12614,0.00034,0.00019,-1e-05,-1e-05,-8e-05,0.0001,-0.00024,-0.00083,3,11
12615,9e-05,0.00104,0.00014,5e-05,1e-05,-0.00064,-0.00017,-0.00073,3,11
12616,9e-05,0.00104,0.00014,5e-05,1e-05,-0.00064,-0.00017,-0.00073,3,11
12617,-2e-05,0,-5e-05,-9e-05,-0.00015,-0.00018,7e-05,0.00021,3,11
12618,-2e-05,0,-5e-05,-9e-05,-0.00015,-0.00018,7e-05,0.00021,3,11
12619,-2e-05,0,-5e-05,-9e-05,-0.00015,-0.00018,7e-05,0.00021,3,11
12620,-2e-05,0,-5e-05,-9e-05,-0.00015,-0.00018,7e-05,0.00021,3,11
12621,-2e-05,0,-5e-05,-9e-05,-0.00015,-0.00018,7e-05,0.00021,3,11
12622,-2e-05,0,-5e-05,-9e-05,-0.00015,-0.00018,7e-05,0.00021,3,11
12623,-2e-05,0,-5e-05,-9e-05,-0.00015,-0.00018,7e-05,0.00021,3,11
12624,-2e-05,0,-5e-05,-9e-05,-0.00015,-0.00018,7e-05,0.00021,3,11
12625,-2e-05,0,-5e-05,-9e-05,-0.00015,-0.00018,7e-05,0.00021,3,11
12626,-2e-05,0,-5e-05,-9e-05,-0.00015,-0.00018,7e-05,0.00021,3,11
12627,-2e-05,0,-5e-05,-9e-05,-0.00015,-0.00018,7e-05,0.00021,3,11
12628,-2e-05,0,-5e-05,-9e-05,-0.00015,-0.00018,7e-05,0.00021,3,11
12629,-2e-05,0,-5e-05,-9e-05,-0.00015,-0.00018,7e-05,0.00021,3,11
12630,-2e-05,0,-5e-05,-9e-05,-0.00015,-0.00018,7e-05,0.00021,3,11
12631,-2e-05,0,-5e-05,-9e-05,-0.00015,-0.00018,7e-05,0.00021,3,11
12632,-2e-05,0,-5e-05,-9e-05,-0.00015,-0.00018,7e-05,0.00021,3,11
12633,-2e-05,0,-5e-05,-9e-05,-0.00015,-0.00018,7e-05,0.00021,3,11
12634,-2e-05,0,-5e-05,-9e-05,-0.00015,-0.00018,7e-05,0.00021,3,11
12635,-2e-05,0,-5e-05,-9e-05,-0.00015,-0.00018,7e-05,0.00021,3,11
12636,-2e-05,0,-5e-05,-9e-05,-0.00015,-0.00018,7e-05,0.00021,3,11
12639,-0.00018,0.00024,-3e-05,2e-05,0.00055,-7e-05,-5e-05,0.00018,3,11
12640,-0.00018,0.00024,-3e-05,2e-05,0.00055,-7e-05,-5e-05,0.00018,3,11
12641,-0.00018,0.00024,-3e-05,2e-05,0.00055,-7e-05,-5e-05,0.00018,3,11
12642,-0.00018,0.00024,-3e-05,2e-05,0.00055,-7e-05,-5e-05,0.00018,3,11
12643,-0.00018,0.00024,-3e-05,2e-05,0.00055,-7e-05,-5e-05,0.00018,3,11
12644,-0.00018,0.00024,-3e-05,2e-05,0.00055,-7e-05,-5e-05,0.00018,3,11
12645,-0.00018,0.00024,-3e-05,2e-05,0.00055,-7e-05,-5e-05,0.00018,3,11
12646,-0.00018,0.00024,-3e-05,2e-05,0.00055,-7e-05,-5e-05,0.00018,3,11
12647,-0.00018,0.00024,-3e-05,2e-05,0.00055,-7e-05,-5e-05,0.00018,3,11
12648,-0.00018,0.00024,-3e-05,2e-05,0.00055,-7e-05,-5e-05,0.00018,3,11
12649,-0.00018,0.00024,-3e-05,2e-05,0.00055,-7e-05,-5e-05,0.00018,3,11
12650,-0.00018,0.00024,-3e-05,2e-05,0.00055,-7e-05,-5e-05,0.00018,3,11
12651,-0.00018,0.00024,-3e-05,2e-05,0.00055,-7e-05,-5e-05,0.00018,3,11
12652,-0.00041,1e-05,4e-05,3e-05,0.00028,0.00014,0.0001,-0.00044,3,11
12653,-0.00041,1e-05,4e-05,3e-05,0.00028,0.00014,0.0001,-0.00044,3,11
12654,-0.00041,1e-05,4e-05,3e-05,0.00028,0.00014,0.0001,-0.00044,3,11
12655,-0.00041,1e-05,4e-05,3e-05,0.00028,0.00014,0.0001,-0.00044,3,11
12656,-0.00041,1e-05,4e-05,3e-05,0.00028,0.00014,0.0001,-0.00044,3,11
12657,-0.00041,1e-05,4e-05,3e-05,0.00028,0.00014,0.0001,-0.00044,3,11
12658,-0.00041,1e-05,4e-05,3e-05,0.00028,0.00014,0.0001,-0.00044,3,11
12659,-0.00041,1e-05,4e-05,3e-05,0.00028,0.00014,0.0001,-0.00044,3,11
12660,-0.0001,-0.00044,-0.00013,-5e-05,-0.00011,-0.00058,-3e-05,-0.00059,3,11
12661,-0.0001,-0.00044,-0.00013,-5e-05,-0.00011,-0.00058,-3e-05,-0.00059,3,11
12662,-0.0001,-0.00044,-0.00013,-5e-05,-0.00011,-0.00058,-3e-05,-0.00059,3,11
12663,-0.0001,-0.00044,-0.00013,-5e-05,-0.00011,-0.00058,-3e-05,-0.00059,3,11
12664,-0.0001,-0.00044,-0.00013,-5e-05,-0.00011,-0.00058,-3e-05,-0.00059,3,11
12665,-0.0001,-0.00044,-0.00013,-5e-05,-0.00011,-0.00058,-3e-05,-0.00059,3,11
12666,-0.0001,-0.00044,-0.00013,-5e-05,-0.00011,-0.00058,-3e-05,-0.00059,3,11
12667,-0.0001,-0.00044,-0.00013,-5e-05,-0.00011,-0.00058,-3e-05,-0.00059,3,11
12668,-0.0001,-0.00044,-0.00013,-5e-05,-0.00011,-0.00058,-3e-05,-0.00059,3,11
12669,-0.0001,-0.00044,-0.00013,-5e-05,-0.00011,-0.00058,-3e-05,-0.00059,3,11
12670,-0.0001,-0.00044,-0.00013,-5e-05,-0.00011,-0.00058,-3e-05,-0.00059,3,11
12671,-0.0001,-0.00044,-0.00013,-5e-05,-0.00011,-0.00058,-3e-05,-0.00059,3,11
12672,-0.0001,-0.00044,-0.00013,-5e-05,-0.00011,-0.00058,-3e-05,-0.00059,3,11
12673,-0.0001,-0.00044,-0.00013,-5e-05,-0.00011,-0.00058,-3e-05,-0.00059,3,11
12674,-0.0001,-0.00044,-0.00013,-5e-05,-0.00011,-0.00058,-3e-05,-0.00059,3,11
12675,-0.0001,-7e-05,5e-05,1e-05,6e-05,0.00042,5e-05,0.00039,3,11
12676,-0.0001,-7e-05,5e-05,1e-05,6e-05,0.00042,5e-05,0.00039,3,11
12677,8e-05,0.00069,4e-05,7e-05,0.00077,-7e-05,0,-0.00014,3,11
12678,8e-05,0.00069,4e-05,7e-05,0.00077,-7e-05,0,-0.00014,3,11
12679,8e-05,0.00069,4e-05,7e-05,0.00077,-7e-05,0,-0.00014,3,11
12680,8e-05,0.00069,4e-05,7e-05,0.00077,-7e-05,0,-0.00014,3,11
12681,8e-05,0.00069,4e-05,7e-05,0.00077,-7e-05,0,-0.00014,3,11
12682,8e-05,0.00069,4e-05,7e-05,0.00077,-7e-05,0,-0.00014,3,11
12683,8e-05,0.00069,4e-05,7e-05,0.00077,-7e-05,0,-0.00014,3,11
12684,8e-05,0.00069,4e-05,7e-05,0.00077,-7e-05,0,-0.00014,3,11
12685,8e-05,0.00069,4e-05,7e-05,0.00077,-7e-05,0,-0.00014,3,11
12686,8e-05,0.00069,4e-05,7e-05,0.00077,-7e-05,0,-0.00014,3,11
12688,8e-05,0.00069,4e-05,7e-05,0.00077,-7e-05,0,-0.00014,3,11
12689,8e-05,0.00069,4e-05,7e-05,0.00077,-7e-05,0,-0.00014,3,11
12690,8e-05,0.00069,4e-05,7e-05,0.00077,-7e-05,0,-0.00014,3,11
12691,8e-05,0.00069,4e-05,7e-05,0.00077,-7e-05,0,-0.00014,3,11
12692,8e-05,0.00069,4e-05,7e-05,0.00077,-7e-05,0,-0.00014,3,11
12693,8e-05,0.00069,4e-05,7e-05,0.00077,-7e-05,0,-0.00014,3,11
12694,8e-05,0.00069,4e-05,7e-05,0.00077,-7e-05,0,-0.00014,3,11
12695,8e-05,0.00069,4e-05,7e-05,0.00077,-7e-05,0,-0.00014,3,11
12696,8e-05,0.00069,4e-05,7e-05,0.00077,-7e-05,0,-0.00014,3,11
12697,8e-05,0.00069,4e-05,7e-05,0.00077,-7e-05,0,-0.00014,3,11
12698,-1e-05,0.00023,6e-05,3e-05,0.00044,0.00061,-0.00016,-0.00059,3,11
12699,0.00018,4e-05,5e-05,-3e-05,-0.00065,0.00027,0.00027,0.00076,3,11
12700,0.00018,4e-05,5e-05,-3e-05,-0.00065,0.00027,0.00027,0.00076,3,11
12701,0.00018,4e-05,5e-05,-3e-05,-0.00065,0.00027,0.00027,0.00076,3,11
12702,0.00018,4e-05,5e-05,-3e-05,-0.00065,0.00027,0.00027,0.00076,3,11
12703,0.00018,4e-05,5e-05,-3e-05,-0.00065,0.00027,0.00027,0.00076,3,11
12704,0.00018,4e-05,5e-05,-3e-05,-0.00065,0.00027,0.00027,0.00076,3,11
12705,0.00018,4e-05,5e-05,-3e-05,-0.00065,0.00027,0.00027,0.00076,3,11
12706,0.00018,4e-05,5e-05,-3e-05,-0.00065,0.00027,0.00027,0.00076,3,11
12707,0.00018,4e-05,5e-05,-3e-05,-0.00065,0.00027,0.00027,0.00076,3,11
12708,0.00018,4e-05,5e-05,-3e-05,-0.00065,0.00027,0.00027,0.00076,3,11
12709,0.00018,4e-05,5e-05,-3e-05,-0.00065,0.00027,0.00027,0.00076,3,11
12710,0.00018,4e-05,5e-05,-3e-05,-0.00065,0.00027,0.00027,0.00076,3,11
12711,0.00018,4e-05,5e-05,-3e-05,-0.00065,0.00027,0.00027,0.00076,3,11
12712,-2e-05,0.00052,4e-05,-3e-05,3e-05,0.00059,4e-05,-0.00079,3,11
12713,3e-05,-0.00018,-2e-05,1e-05,-1e-05,0.00013,4e-05,4e-05,3,11
12714,3e-05,-0.00018,-2e-05,1e-05,-1e-05,0.00013,4e-05,4e-05,3,11
12715,3e-05,-0.00018,-2e-05,1e-05,-1e-05,0.00013,4e-05,4e-05,3,11
12716,3e-05,-0.00018,-2e-05,1e-05,-1e-05,0.00013,4e-05,4e-05,3,11
12717,3e-05,-0.00018,-2e-05,1e-05,-1e-05,0.00013,4e-05,4e-05,3,11
12718,3e-05,-0.00018,-2e-05,1e-05,-1e-05,0.00013,4e-05,4e-05,3,11
12719,-0.00032,-0.00027,-9e-05,-1e-05,-0.00015,0.00056,5e-05,4e-05,3,11
12720,-0.00032,-0.00027,-9e-05,-1e-05,-0.00015,0.00056,5e-05,4e-05,3,11
12721,-0.00032,-0.00027,-9e-05,-1e-05,-0.00015,0.00056,5e-05,4e-05,3,11
12722,-0.00032,-0.00027,-9e-05,-1e-05,-0.00015,0.00056,5e-05,4e-05,3,11
12723,-0.00032,-0.00027,-9e-05,-1e-05,-0.00015,0.00056,5e-05,4e-05,3,11
12724,-0.00032,-0.00027,-9e-05,-1e-05,-0.00015,0.00056,5e-05,4e-05,3,11
12725,-0.00032,-0.00027,-9e-05,-1e-05,-0.00015,0.00056,5e-05,4e-05,3,11
12726,-0.00032,-0.00027,-9e-05,-1e-05,-0.00015,0.00056,5e-05,4e-05,3,11
12727,-0.00032,-0.00027,-9e-05,-1e-05,-0.00015,0.00056,5e-05,4e-05,3,11
12728,-0.00032,-0.00027,-9e-05,-1e-05,-0.00015,0.00056,5e-05,4e-05,3,11
12729,-0.00032,-0.00027,-9e-05,-1e-05,-0.00015,0.00056,5e-05,4e-05,3,11
12730,-0.00032,-0.00027,-9e-05,-1e-05,-0.00015,0.00056,5e-05,4e-05,3,11
12731,-0.00032,-0.00027,-9e-05,-1e-05,-0.00015,0.00056,5e-05,4e-05,3,11
12732,-0.00032,-0.00027,-9e-05,-1e-05,-0.00015,0.00056,5e-05,4e-05,3,11
12733,-0.00032,-0.00027,-9e-05,-1e-05,-0.00015,0.00056,5e-05,4e-05,3,11
12734,-0.00032,-0.00027,-9e-05,-1e-05,-0.00015,0.00056,5e-05,4e-05,3,11
12735,0.00031,0.0006,7e-05,-6e-05,-0.00036,-0.00069,-0.00017,0.00058,3,11
12736,0.00031,0.0006,7e-05,-6e-05,-0.00036,-0.00069,-0.00017,0.00058,3,11
12738,-0.00018,1e-05,-4e-05,5e-05,0.0002,0.00041,5e-05,-0.00103,3,11
12739,-0.00018,1e-05,-4e-05,5e-05,0.0002,0.00041,5e-05,-0.00103,3,11
12740,-0.00018,1e-05,-4e-05,5e-05,0.0002,0.00041,5e-05,-0.00103,3,11
12741,-0.00018,1e-05,-4e-05,5e-05,0.0002,0.00041,5e-05,-0.00103,3,11
12742,-0.00018,1e-05,-4e-05,5e-05,0.0002,0.00041,5e-05,-0.00103,3,11
12743,-0.00018,1e-05,-4e-05,5e-05,0.0002,0.00041,5e-05,-0.00103,3,11
12744,-0.00018,1e-05,-4e-05,5e-05,0.0002,0.00041,5e-05,-0.00103,3,11
12745,-0.00018,1e-05,-4e-05,5e-05,0.0002,0.00041,5e-05,-0.00103,3,11
12746,-0.00018,1e-05,-4e-05,5e-05,0.0002,0.00041,5e-05,-0.00103,3,11
12747,-0.00018,1e-05,-4e-05,5e-05,0.0002,0.00041,5e-05,-0.00103,3,11
12748,-0.00018,1e-05,-4e-05,5e-05,0.0002,0.00041,5e-05,-0.00103,3,11
12749,-0.00018,1e-05,-4e-05,5e-05,0.0002,0.00041,5e-05,-0.00103,3,11
12750,-0.00018,1e-05,-4e-05,5e-05,0.0002,0.00041,5e-05,-0.00103,3,11
12751,-0.00018,1e-05,-4e-05,5e-05,0.0002,0.00041,5e-05,-0.00103,3,11
12752,-0.00018,1e-05,-4e-05,5e-05,0.0002,0.00041,5e-05,-0.00103,3,11
12753,-0.00018,1e-05,-4e-05,5e-05,0.0002,0.00041,5e-05,-0.00103,3,11
12754,-0.00018,1e-05,-4e-05,5e-05,0.0002,0.00041,5e-05,-0.00103,3,11
12755,-0.00018,1e-05,-4e-05,5e-05,0.0002,0.00041,5e-05,-0.00103,3,11
12756,-0.00018,1e-05,-4e-05,5e-05,0.0002,0.00041,5e-05,-0.00103,3,11
12757,-0.00018,1e-05,-4e-05,5e-05,0.0002,0.00041,5e-05,-0.00103,3,11
12758,0.00013,-0.00061,-0.00012,-6e-05,-0.0001,2e-05,-5e-05,0.00016,3,11
12759,0.00025,0.00073,0.0001,0,-0.00011,-0.00092,-8e-05,3e-05,3,11
12760,0.00025,0.00073,0.0001,0,-0.00011,-0.00092,-8e-05,3e-05,3,11
12761,0.00025,0.00073,0.0001,0,-0.00011,-0.00092,-8e-05,3e-05,3,11
12762,0.00025,0.00073,0.0001,0,-0.00011,-0.00092,-8e-05,3e-05,3,11
12763,0.00025,0.00073,0.0001,0,-0.00011,-0.00092,-8e-05,3e-05,3,11
12764,0.00025,0.00073,0.0001,0,-0.00011,-0.00092,-8e-05,3e-05,3,11
12765,0.00025,0.00073,0.0001,0,-0.00011,-0.00092,-8e-05,3e-05,3,11
12766,0.00025,0.00073,0.0001,0,-0.00011,-0.00092,-8e-05,3e-05,3,11
12767,0.00025,0.00073,0.0001,0,-0.00011,-0.00092,-8e-05,3e-05,3,11
12768,0.00025,0.00073,0.0001,0,-0.00011,-0.00092,-8e-05,3e-05,3,11
12769,0.00025,0.00073,0.0001,0,-0.00011,-0.00092,-8e-05,3e-05,3,11
12770,0.00025,0.00073,0.0001,0,-0.00011,-0.00092,-8e-05,3e-05,3,11
12771,0.00025,0.00073,0.0001,0,-0.00011,-0.00092,-8e-05,3e-05,3,11
12772,-0.00016,-0.00033,-4e-05,3e-05,0,5e-05,0.00027,-0.00092,3,11
12773,-0.00016,-0.00033,-4e-05,3e-05,0,5e-05,0.00027,-0.00092,3,11
12774,-0.00016,-0.00033,-4e-05,3e-05,0,5e-05,0.00027,-0.00092,3,11
12775,-0.00016,-0.00033,-4e-05,3e-05,0,5e-05,0.00027,-0.00092,3,11
12776,-0.00016,-0.00033,-4e-05,3e-05,0,5e-05,0.00027,-0.00092,3,11
12777,-0.00016,-0.00033,-4e-05,3e-05,0,5e-05,0.00027,-0.00092,3,11
12778,-0.00016,-0.00033,-4e-05,3e-05,0,5e-05,0.00027,-0.00092,3,11
12779,0.00013,5e-05,9e-05,-1e-05,-0.00026,0.00028,3e-05,-2e-05,3,11
12780,0.00013,5e-05,9e-05,-1e-05,-0.00026,0.00028,3e-05,-2e-05,3,11
12781,0.00013,5e-05,9e-05,-1e-05,-0.00026,0.00028,3e-05,-2e-05,3,11
12782,0.00013,5e-05,9e-05,-1e-05,-0.00026,0.00028,3e-05,-2e-05,3,11
12783,0.00013,5e-05,9e-05,-1e-05,-0.00026,0.00028,3e-05,-2e-05,3,11
12784,0.00013,5e-05,9e-05,-1e-05,-0.00026,0.00028,3e-05,-2e-05,3,11
12785,0.00013,5e-05,9e-05,-1e-05,-0.00026,0.00028,3e-05,-2e-05,3,11
12786,0.00013,5e-05,9e-05,-1e-05,-0.00026,0.00028,3e-05,-2e-05,3,11
12788,0.00013,5e-05,9e-05,-1e-05,-0.00026,0.00028,3e-05,-2e-05,3,11
12789,0.00013,5e-05,9e-05,-1e-05,-0.00026,0.00028,3e-05,-2e-05,3,11
12790,0.00013,5e-05,9e-05,-1e-05,-0.00026,0.00028,3e-05,-2e-05,3,11
12791,0.00013,5e-05,9e-05,-1e-05,-0.00026,0.00028,3e-05,-2e-05,3,11
12792,0.00013,5e-05,9e-05,-1e-05,-0.00026,0.00028,3e-05,-2e-05,3,11
12793,0.00013,5e-05,9e-05,-1e-05,-0.00026,0.00028,3e-05,-2e-05,3,11
12794,0.00013,5e-05,9e-05,-1e-05,-0.00026,0.00028,3e-05,-2e-05,3,11
12795,-0.00023,-0.0001,0,-2e-05,0.00027,-0.00021,-8e-05,-0.00042,3,11
12796,-0.00023,-0.0001,0,-2e-05,0.00027,-0.00021,-8e-05,-0.00042,3,11
12797,0.00022,-0.00017,-4e-05,-5e-05,-0.00039,0.00014,-6e-05,0.00082,3,11
12798,0.00022,-0.00017,-4e-05,-5e-05,-0.00039,0.00014,-6e-05,0.00082,3,11
12799,0.00022,-0.00017,-4e-05,-5e-05,-0.00039,0.00014,-6e-05,0.00082,3,11
12800,0.00022,-0.00017,-4e-05,-5e-05,-0.00039,0.00014,-6e-05,0.00082,3,11
12801,0.00022,-0.00017,-4e-05,-5e-05,-0.00039,0.00014,-6e-05,0.00082,3,11
12802,0.00022,-0.00017,-4e-05,-5e-05,-0.00039,0.00014,-6e-05,0.00082,3,11
12803,0.00022,-0.00017,-4e-05,-5e-05,-0.00039,0.00014,-6e-05,0.00082,3,11
12804,0.00022,-0.00017,-4e-05,-5e-05,-0.00039,0.00014,-6e-05,0.00082,3,11
12805,0.00022,-0.00017,-4e-05,-5e-05,-0.00039,0.00014,-6e-05,0.00082,3,11
12806,0.00022,-0.00017,-4e-05,-5e-05,-0.00039,0.00014,-6e-05,0.00082,3,11
12807,0.00022,-0.00017,-4e-05,-5e-05,-0.00039,0.00014,-6e-05,0.00082,3,11
12808,0.00022,-0.00017,-4e-05,-5e-05,-0.00039,0.00014,-6e-05,0.00082,3,11
12809,0.00022,-0.00017,-4e-05,-5e-05,-0.00039,0.00014,-6e-05,0.00082,3,11
12810,0.00022,-0.00017,-4e-05,-5e-05,-0.00039,0.00014,-6e-05,0.00082,3,11
12811,0.00022,-0.00017,-4e-05,-5e-05,-0.00039,0.00014,-6e-05,0.00082,3,11
12812,0.00022,-0.00017,-4e-05,-5e-05,-0.00039,0.00014,-6e-05,0.00082,3,11
12813,0.00022,-0.00017,-4e-05,-5e-05,-0.00039,0.00014,-6e-05,0.00082,3,11
12814,0.00022,-0.00017,-4e-05,-5e-05,-0.00039,0.00014,-6e-05,0.00082,3,11
12815,0.00022,-0.00017,-4e-05,-5e-05,-0.00039,0.00014,-6e-05,0.00082,3,11
12816,0.00022,-0.00017,-4e-05,-5e-05,-0.00039,0.00014,-6e-05,0.00082,3,11
12817,0.00022,-0.00017,-4e-05,-5e-05,-0.00039,0.00014,-6e-05,0.00082,3,11
12818,-6e-05,0.00037,-1e-05,3e-05,0.00014,-0.00019,-0.0001,0.00032,3,11
12819,-2e-05,-7e-05,-1e-05,-5e-05,-0.00032,-4e-05,0.00011,0.0002,3,11
12820,-2e-05,-7e-05,-1e-05,-5e-05,-0.00032,-4e-05,0.00011,0.0002,3,11
12821,-2e-05,-7e-05,-1e-05,-5e-05,-0.00032,-4e-05,0.00011,0.0002,3,11
12822,-2e-05,-7e-05,-1e-05,-5e-05,-0.00032,-4e-05,0.00011,0.0002,3,11
12823,-2e-05,-7e-05,-1e-05,-5e-05,-0.00032,-4e-05,0.00011,0.0002,3,11
12824,-2e-05,-7e-05,-1e-05,-5e-05,-0.00032,-4e-05,0.00011,0.0002,3,11
12825,-2e-05,-7e-05,-1e-05,-5e-05,-0.00032,-4e-05,0.00011,0.0002,3,11
12826,-2e-05,-7e-05,-1e-05,-5e-05,-0.00032,-4e-05,0.00011,0.0002,3,11
12827,-2e-05,-7e-05,-1e-05,-5e-05,-0.00032,-4e-05,0.00011,0.0002,3,11
12828,-2e-05,-7e-05,-1e-05,-5e-05,-0.00032,-4e-05,0.00011,0.0002,3,11
12829,-2e-05,-7e-05,-1e-05,-5e-05,-0.00032,-4e-05,0.00011,0.0002,3,11
12830,-2e-05,-7e-05,-1e-05,-5e-05,-0.00032,-4e-05,0.00011,0.0002,3,11
12831,-2e-05,-7e-05,-1e-05,-5e-05,-0.00032,-4e-05,0.00011,0.0002,3,11
12832,0.00025,-0.00048,-4e-05,2e-05,-9e-05,-0.0003,-0.00045,0.00024,3,11
12833,0.00025,-0.00048,-4e-05,2e-05,-9e-05,-0.0003,-0.00045,0.00024,3,11
12834,0.00025,-0.00048,-4e-05,2e-05,-9e-05,-0.0003,-0.00045,0.00024,3,11
12835,0.00025,-0.00048,-4e-05,2e-05,-9e-05,-0.0003,-0.00045,0.00024,3,11
12836,0.00025,-0.00048,-4e-05,2e-05,-9e-05,-0.0003,-0.00045,0.00024,3,11
12838,0.00025,-0.00048,-4e-05,2e-05,-9e-05,-0.0003,-0.00045,0.00024,3,11
12839,3e-05,0.00031,2e-05,3e-05,-0.00056,-0.00067,-1e-05,6e-05,3,11
12840,3e-05,0.00031,2e-05,3e-05,-0.00056,-0.00067,-1e-05,6e-05,3,11
12841,3e-05,0.00031,2e-05,3e-05,-0.00056,-0.00067,-1e-05,6e-05,3,11
12842,3e-05,0.00031,2e-05,3e-05,-0.00056,-0.00067,-1e-05,6e-05,3,11
12843,3e-05,0.00031,2e-05,3e-05,-0.00056,-0.00067,-1e-05,6e-05,3,11
12844,3e-05,0.00031,2e-05,3e-05,-0.00056,-0.00067,-1e-05,6e-05,3,11
12845,3e-05,0.00031,2e-05,3e-05,-0.00056,-0.00067,-1e-05,6e-05,3,11
12846,3e-05,0.00031,2e-05,3e-05,-0.00056,-0.00067,-1e-05,6e-05,3,11
12847,3e-05,0.00031,2e-05,3e-05,-0.00056,-0.00067,-1e-05,6e-05,3,11
12848,3e-05,0.00031,2e-05,3e-05,-0.00056,-0.00067,-1e-05,6e-05,3,11
12849,3e-05,0.00031,2e-05,3e-05,-0.00056,-0.00067,-1e-05,6e-05,3,11
12850,3e-05,0.00031,2e-05,3e-05,-0.00056,-0.00067,-1e-05,6e-05,3,11
12851,3e-05,0.00031,2e-05,3e-05,-0.00056,-0.00067,-1e-05,6e-05,3,11
12852,3e-05,0.00031,2e-05,3e-05,-0.00056,-0.00067,-1e-05,6e-05,3,11
12853,3e-05,0.00031,2e-05,3e-05,-0.00056,-0.00067,-1e-05,6e-05,3,11
12854,3e-05,0.00031,2e-05,3e-05,-0.00056,-0.00067,-1e-05,6e-05,3,11
12855,0.0001,0.00022,6e-05,-2e-05,-0.00016,-0.00044,-0.00011,-0.00128,3,11
12856,0.0001,0.00022,6e-05,-2e-05,-0.00016,-0.00044,-0.00011,-0.00128,3,11
12857,-0.00032,-0.00056,-0.0001,-1e-05,3e-05,-0.00025,-9e-05,-0.00016,3,11
12858,-0.00032,-0.00056,-0.0001,-1e-05,3e-05,-0.00025,-9e-05,-0.00016,3,11
12859,-0.00032,-0.00056,-0.0001,-1e-05,3e-05,-0.00025,-9e-05,-0.00016,3,11
12860,-0.00032,-0.00056,-0.0001,-1e-05,3e-05,-0.00025,-9e-05,-0.00016,3,11
12861,-0.00032,-0.00056,-0.0001,-1e-05,3e-05,-0.00025,-9e-05,-0.00016,3,11
12862,-0.00032,-0.00056,-0.0001,-1e-05,3e-05,-0.00025,-9e-05,-0.00016,3,11
12863,-0.00032,-0.00056,-0.0001,-1e-05,3e-05,-0.00025,-9e-05,-0.00016,3,11
12864,-0.00032,-0.00056,-0.0001,-1e-05,3e-05,-0.00025,-9e-05,-0.00016,3,11
12865,-0.00032,-0.00056,-0.0001,-1e-05,3e-05,-0.00025,-9e-05,-0.00016,3,11
12866,-0.00032,-0.00056,-0.0001,-1e-05,3e-05,-0.00025,-9e-05,-0.00016,3,11
12867,-0.00032,-0.00056,-0.0001,-1e-05,3e-05,-0.00025,-9e-05,-0.00016,3,11
12868,-0.00032,-0.00056,-0.0001,-1e-05,3e-05,-0.00025,-9e-05,-0.00016,3,11
12869,-0.00032,-0.00056,-0.0001,-1e-05,3e-05,-0.00025,-9e-05,-0.00016,3,11
12870,-0.00032,-0.00056,-0.0001,-1e-05,3e-05,-0.00025,-9e-05,-0.00016,3,11
12871,-0.00032,-0.00056,-0.0001,-1e-05,3e-05,-0.00025,-9e-05,-0.00016,3,11
12872,-0.00032,-0.00056,-0.0001,-1e-05,3e-05,-0.00025,-9e-05,-0.00016,3,11
12873,-0.00032,-0.00056,-0.0001,-1e-05,3e-05,-0.00025,-9e-05,-0.00016,3,11
12874,-0.00032,-0.00056,-0.0001,-1e-05,3e-05,-0.00025,-9e-05,-0.00016,3,11
12875,-0.00032,-0.00056,-0.0001,-1e-05,3e-05,-0.00025,-9e-05,-0.00016,3,11
12876,-0.00032,-0.00056,-0.0001,-1e-05,3e-05,-0.00025,-9e-05,-0.00016,3,11
12877,-0.00032,-0.00056,-0.0001,-1e-05,3e-05,-0.00025,-9e-05,-0.00016,3,11
12878,-1e-05,-9e-05,-4e-05,-8e-05,2e-05,-0.00052,-4e-05,-4e-05,3,11
12879,7e-05,0.00064,6e-05,-5e-05,-0.00019,0.00024,0.00015,-0.00039,3,11
12880,-0.00019,-0.00016,-0.00012,-7e-05,0,-0.00012,-0.00016,0.0002,3,11
12881,-0.00019,-0.00016,-0.00012,-7e-05,0,-0.00012,-0.00016,0.0002,3,11
12882,-0.00019,-0.00016,-0.00012,-7e-05,0,-0.00012,-0.00016,0.0002,3,11
12883,-0.00019,-0.00016,-0.00012,-7e-05,0,-0.00012,-0.00016,0.0002,3,11
12884,-0.00019,-0.00016,-0.00012,-7e-05,0,-0.00012,-0.00016,0.0002,3,11
12885,-0.00019,-0.00016,-0.00012,-7e-05,0,-0.00012,-0.00016,0.0002,3,11
12886,-0.00019,-0.00016,-0.00012,-7e-05,0,-0.00012,-0.00016,0.0002,3,11
12888,-0.00019,-0.00016,-0.00012,-7e-05,0,-0.00012,-0.00016,0.0002,3,11
12889,-0.00019,-0.00016,-0.00012,-7e-05,0,-0.00012,-0.00016,0.0002,3,11
12890,-0.00019,-0.00016,-0.00012,-7e-05,0,-0.00012,-0.00016,0.0002,3,11
12891,-0.00019,-0.00016,-0.00012,-7e-05,0,-0.00012,-0.00016,0.0002,3,11
12892,-4e-05,0.00032,5e-05,3e-05,-0.0001,1e-05,0.00028,0.00021,3,11
12893,-4e-05,0.00032,5e-05,3e-05,-0.0001,1e-05,0.00028,0.00021,3,11
12894,-4e-05,0.00032,5e-05,3e-05,-0.0001,1e-05,0.00028,0.00021,3,11
12895,-4e-05,0.00032,5e-05,3e-05,-0.0001,1e-05,0.00028,0.00021,3,11
12896,-4e-05,0.00032,5e-05,3e-05,-0.0001,1e-05,0.00028,0.00021,3,11
12897,-4e-05,0.00032,5e-05,3e-05,-0.0001,1e-05,0.00028,0.00021,3,11
12898,-4e-05,0.00032,5e-05,3e-05,-0.0001,1e-05,0.00028,0.00021,3,11
12899,0.00017,0.00022,4e-05,5e-05,0.00022,0.00019,0.00031,-0.00027,3,11
12900,0.00017,0.00022,4e-05,5e-05,0.00022,0.00019,0.00031,-0.00027,3,11
12901,0.00017,0.00022,4e-05,5e-05,0.00022,0.00019,0.00031,-0.00027,3,11
12902,0.00017,0.00022,4e-05,5e-05,0.00022,0.00019,0.00031,-0.00027,3,11
12903,0.00017,0.00022,4e-05,5e-05,0.00022,0.00019,0.00031,-0.00027,3,11
12904,0.00017,0.00022,4e-05,5e-05,0.00022,0.00019,0.00031,-0.00027,3,11
12905,0.00017,0.00022,4e-05,5e-05,0.00022,0.00019,0.00031,-0.00027,3,11
12906,0.00017,0.00022,4e-05,5e-05,0.00022,0.00019,0.00031,-0.00027,3,11
12907,0.00017,0.00022,4e-05,5e-05,0.00022,0.00019,0.00031,-0.00027,3,11
12908,0.00017,0.00022,4e-05,5e-05,0.00022,0.00019,0.00031,-0.00027,3,11
12909,0.00017,0.00022,4e-05,5e-05,0.00022,0.00019,0.00031,-0.00027,3,11
12910,0.00017,0.00022,4e-05,5e-05,0.00022,0.00019,0.00031,-0.00027,3,11
12911,0.00017,0.00022,4e-05,5e-05,0.00022,0.00019,0.00031,-0.00027,3,11
12912,0.00017,0.00022,4e-05,5e-05,0.00022,0.00019,0.00031,-0.00027,3,11
12913,0.00017,0.00022,4e-05,5e-05,0.00022,0.00019,0.00031,-0.00027,3,11
12914,0.00017,0.00022,4e-05,5e-05,0.00022,0.00019,0.00031,-0.00027,3,11
12915,0.00019,0.00036,-3e-05,-9e-05,-0.00062,-0.00019,-9e-05,0.00054,3,11
12916,0.00019,0.00036,-3e-05,-9e-05,-0.00062,-0.00019,-9e-05,0.00054,3,11
12917,0.0002,0.00051,0.00012,0,-0.0004,6e-05,0,0.00044,3,11
12918,0.0002,0.00051,0.00012,0,-0.0004,6e-05,0,0.00044,3,11
12919,0.0002,0.00051,0.00012,0,-0.0004,6e-05,0,0.00044,3,11
12920,0.0002,0.00051,0.00012,0,-0.0004,6e-05,0,0.00044,3,11
12921,0.0002,0.00051,0.00012,0,-0.0004,6e-05,0,0.00044,3,11
12922,0.0002,0.00051,0.00012,0,-0.0004,6e-05,0,0.00044,3,11
12923,0.0002,0.00051,0.00012,0,-0.0004,6e-05,0,0.00044,3,11
12924,0.0002,0.00051,0.00012,0,-0.0004,6e-05,0,0.00044,3,11
12925,0.0002,0.00051,0.00012,0,-0.0004,6e-05,0,0.00044,3,11
12926,0.0002,0.00051,0.00012,0,-0.0004,6e-05,0,0.00044,3,11
12927,0.0002,0.00051,0.00012,0,-0.0004,6e-05,0,0.00044,3,11
12928,0.0002,0.00051,0.00012,0,-0.0004,6e-05,0,0.00044,3,11
12929,0.0002,0.00051,0.00012,0,-0.0004,6e-05,0,0.00044,3,11
12930,0.0002,0.00051,0.00012,0,-0.0004,6e-05,0,0.00044,3,11
12931,0.0002,0.00051,0.00012,0,-0.0004,6e-05,0,0.00044,3,11
12932,0.0002,0.00051,0.00012,0,-0.0004,6e-05,0,0.00044,3,11
12933,0.0002,0.00051,0.00012,0,-0.0004,6e-05,0,0.00044,3,11
12934,0.0002,0.00051,0.00012,0,-0.0004,6e-05,0,0.00044,3,11
12935,0.0002,0.00051,0.00012,0,-0.0004,6e-05,0,0.00044,3,11
12936,0.0002,0.00051,0.00012,0,-0.0004,6e-05,0,0.00044,3,11
12939,-0.00018,0.00015,3e-05,4e-05,0.00044,0.00042,0.00027,-0.00011,3,11
12940,-0.00018,0.00015,3e-05,4e-05,0.00044,0.00042,0.00027,-0.00011,3,11
12941,-0.00018,0.00015,3e-05,4e-05,0.00044,0.00042,0.00027,-0.00011,3,11
12942,-0.00018,0.00015,3e-05,4e-05,0.00044,0.00042,0.00027,-0.00011,3,11
12943,-0.00018,0.00015,3e-05,4e-05,0.00044,0.00042,0.00027,-0.00011,3,11
12944,-0.00018,0.00015,3e-05,4e-05,0.00044,0.00042,0.00027,-0.00011,3,11
12945,-0.00018,0.00015,3e-05,4e-05,0.00044,0.00042,0.00027,-0.00011,3,11
12946,-0.00018,0.00015,3e-05,4e-05,0.00044,0.00042,0.00027,-0.00011,3,11
12947,-0.00018,0.00015,3e-05,4e-05,0.00044,0.00042,0.00027,-0.00011,3,11
12948,-0.00018,0.00015,3e-05,4e-05,0.00044,0.00042,0.00027,-0.00011,3,11
12949,-0.00018,0.00015,3e-05,4e-05,0.00044,0.00042,0.00027,-0.00011,3,11
12950,-0.00018,0.00015,3e-05,4e-05,0.00044,0.00042,0.00027,-0.00011,3,11
12951,-0.00044,-0.0008,-0.00017,-7e-05,0.00049,0.00051,7e-05,-0.00013,3,11
12952,-0.00044,-0.0008,-0.00017,-7e-05,0.00049,0.00051,7e-05,-0.00013,3,11
12953,-0.00044,-0.0008,-0.00017,-7e-05,0.00049,0.00051,7e-05,-0.00013,3,11
12954,-0.00044,-0.0008,-0.00017,-7e-05,0.00049,0.00051,7e-05,-0.00013,3,11
12955,-0.00044,-0.0008,-0.00017,-7e-05,0.00049,0.00051,7e-05,-0.00013,3,11
12956,-0.00044,-0.0008,-0.00017,-7e-05,0.00049,0.00051,7e-05,-0.00013,3,11
12957,-0.00044,-0.0008,-0.00017,-7e-05,0.00049,0.00051,7e-05,-0.00013,3,11
12958,-0.00044,-0.0008,-0.00017,-7e-05,0.00049,0.00051,7e-05,-0.00013,3,11
12959,-0.00044,-0.0008,-0.00017,-7e-05,0.00049,0.00051,7e-05,-0.00013,3,11
12960,-9e-05,8e-05,5e-05,9e-05,0.00034,-0.00043,7e-05,0.00018,3,11
12962,-9e-05,8e-05,5e-05,9e-05,0.00034,-0.00043,7e-05,0.00018,3,11
12963,-9e-05,8e-05,5e-05,9e-05,0.00034,-0.00043,7e-05,0.00018,3,11
12964,-9e-05,8e-05,5e-05,9e-05,0.00034,-0.00043,7e-05,0.00018,3,11
12965,-9e-05,8e-05,5e-05,9e-05,0.00034,-0.00043,7e-05,0.00018,3,11
12966,-9e-05,8e-05,5e-05,9e-05,0.00034,-0.00043,7e-05,0.00018,3,11
12967,-9e-05,8e-05,5e-05,9e-05,0.00034,-0.00043,7e-05,0.00018,3,11
12968,-9e-05,8e-05,5e-05,9e-05,0.00034,-0.00043,7e-05,0.00018,3,11
12969,-9e-05,8e-05,5e-05,9e-05,0.00034,-0.00043,7e-05,0.00018,3,11
12970,-9e-05,8e-05,5e-05,9e-05,0.00034,-0.00043,7e-05,0.00018,3,11
12972,-9e-05,8e-05,5e-05,9e-05,0.00034,-0.00043,7e-05,0.00018,3,11
12973,-9e-05,8e-05,5e-05,9e-05,0.00034,-0.00043,7e-05,0.00018,3,11
12974,-9e-05,8e-05,5e-05,9e-05,0.00034,-0.00043,7e-05,0.00018,3,11
12975,-9e-05,-0.00044,-5e-05,1e-05,-5e-05,-0.00033,0.00013,0.00029,3,11
12976,-9e-05,-0.00044,-5e-05,1e-05,-5e-05,-0.00033,0.00013,0.00029,3,11
12977,4e-05,-0.00032,-4e-05,-4e-05,-0.00011,0.0002,3e-05,-0.00016,3,11
12978,4e-05,-0.00032,-4e-05,-4e-05,-0.00011,0.0002,3e-05,-0.00016,3,11
12979,4e-05,-0.00032,-4e-05,-4e-05,-0.00011,0.0002,3e-05,-0.00016,3,11
12980,4e-05,-0.00032,-4e-05,-4e-05,-0.00011,0.0002,3e-05,-0.00016,3,11
12981,4e-05,-0.00032,-4e-05,-4e-05,-0.00011,0.0002,3e-05,-0.00016,3,11
12982,4e-05,-0.00032,-4e-05,-4e-05,-0.00011,0.0002,3e-05,-0.00016,3,11
12983,4e-05,-0.00032,-4e-05,-4e-05,-0.00011,0.0002,3e-05,-0.00016,3,11
12984,4e-05,-0.00032,-4e-05,-4e-05,-0.00011,0.0002,3e-05,-0.00016,3,11
12985,4e-05,-0.00032,-4e-05,-4e-05,-0.00011,0.0002,3e-05,-0.00016,3,11
12986,4e-05,-0.00032,-4e-05,-4e-05,-0.00011,0.0002,3e-05,-0.00016,3,11
12988,4e-05,-0.00032,-4e-05,-4e-05,-0.00011,0.0002,3e-05,-0.00016,3,11
12989,4e-05,-0.00032,-4e-05,-4e-05,-0.00011,0.0002,3e-05,-0.00016,3,11
12990,4e-05,-0.00032,-4e-05,-4e-05,-0.00011,0.0002,3e-05,-0.00016,3,11
12991,4e-05,-0.00032,-4e-05,-4e-05,-0.00011,0.0002,3e-05,-0.00016,3,11
12992,4e-05,-0.00032,-4e-05,-4e-05,-0.00011,0.0002,3e-05,-0.00016,3,11
12993,4e-05,-0.00032,-4e-05,-4e-05,-0.00011,0.0002,3e-05,-0.00016,3,11
12994,4e-05,-0.00032,-4e-05,-4e-05,-0.00011,0.0002,3e-05,-0.00016,3,11
12995,4e-05,-0.00032,-4e-05,-4e-05,-0.00011,0.0002,3e-05,-0.00016,3,11
12996,4e-05,-0.00032,-4e-05,-4e-05,-0.00011,0.0002,3e-05,-0.00016,3,11
12997,4e-05,-0.00032,-4e-05,-4e-05,-0.00011,0.0002,3e-05,-0.00016,3,11
12998,0.00017,1e-05,0,-8e-05,-0.00034,-0.00013,-0.0002,-0.00034,3,11
12999,0.00015,0.00017,-5e-05,-5e-05,-0.00031,0.00016,-0.00025,-0.00012,3,11
13000,0.00015,0.00017,-5e-05,-5e-05,-0.00031,0.00016,-0.00025,-0.00012,3,11
13001,0.00015,0.00017,-5e-05,-5e-05,-0.00031,0.00016,-0.00025,-0.00012,3,11
13002,0.00015,0.00017,-5e-05,-5e-05,-0.00031,0.00016,-0.00025,-0.00012,3,11
13003,0.00015,0.00017,-5e-05,-5e-05,-0.00031,0.00016,-0.00025,-0.00012,3,11
13004,0.00015,0.00017,-5e-05,-5e-05,-0.00031,0.00016,-0.00025,-0.00012,3,11
13005,0.00015,0.00017,-5e-05,-5e-05,-0.00031,0.00016,-0.00025,-0.00012,3,11
13006,0.00015,0.00017,-5e-05,-5e-05,-0.00031,0.00016,-0.00025,-0.00012,3,11
13007,0.00015,0.00017,-5e-05,-5e-05,-0.00031,0.00016,-0.00025,-0.00012,3,11
13008,0.00015,0.00017,-5e-05,-5e-05,-0.00031,0.00016,-0.00025,-0.00012,3,11
13009,0.00015,0.00017,-5e-05,-5e-05,-0.00031,0.00016,-0.00025,-0.00012,3,11
13010,0.00015,0.00017,-5e-05,-5e-05,-0.00031,0.00016,-0.00025,-0.00012,3,11
13011,0.00048,0.00103,0.00013,0.00011,-0.00061,0.00127,0.00034,0.00099,3,11
13012,0.00048,0.00103,0.00013,0.00011,-0.00061,0.00127,0.00034,0.00099,3,11
13013,0.00048,0.00103,0.00013,0.00011,-0.00061,0.00127,0.00034,0.00099,3,11
13014,0.00048,0.00103,0.00013,0.00011,-0.00061,0.00127,0.00034,0.00099,3,11
13015,0.00048,0.00103,0.00013,0.00011,-0.00061,0.00127,0.00034,0.00099,3,11
13016,0.00048,0.00103,0.00013,0.00011,-0.00061,0.00127,0.00034,0.00099,3,11
13017,0.00048,0.00103,0.00013,0.00011,-0.00061,0.00127,0.00034,0.00099,3,11
13018,0.00048,0.00103,0.00013,0.00011,-0.00061,0.00127,0.00034,0.00099,3,11
13019,0.00048,0.00103,0.00013,0.00011,-0.00061,0.00127,0.00034,0.00099,3,11
13020,-0.0001,-0.00031,-8e-05,4e-05,0.00065,-0.00017,-0.00017,-0.00066,3,11
13021,-0.0001,-0.00031,-8e-05,4e-05,0.00065,-0.00017,-0.00017,-0.00066,3,11
13022,-0.0001,-0.00031,-8e-05,4e-05,0.00065,-0.00017,-0.00017,-0.00066,3,11
13023,-0.0001,-0.00031,-8e-05,4e-05,0.00065,-0.00017,-0.00017,-0.00066,3,11
13024,-0.0001,-0.00031,-8e-05,4e-05,0.00065,-0.00017,-0.00017,-0.00066,3,11
13025,-0.0001,-0.00031,-8e-05,4e-05,0.00065,-0.00017,-0.00017,-0.00066,3,11
13026,-0.0001,-0.00031,-8e-05,4e-05,0.00065,-0.00017,-0.00017,-0.00066,3,11
13027,-0.0001,-0.00031,-8e-05,4e-05,0.00065,-0.00017,-0.00017,-0.00066,3,11
13028,-0.0001,-0.00031,-8e-05,4e-05,0.00065,-0.00017,-0.00017,-0.00066,3,11
13029,-0.0001,-0.00031,-8e-05,4e-05,0.00065,-0.00017,-0.00017,-0.00066,3,11
13030,-0.0001,-0.00031,-8e-05,4e-05,0.00065,-0.00017,-0.00017,-0.00066,3,11
13031,-0.0001,-0.00031,-8e-05,4e-05,0.00065,-0.00017,-0.00017,-0.00066,3,11
13032,-0.0001,-0.00031,-8e-05,4e-05,0.00065,-0.00017,-0.00017,-0.00066,3,11
13033,-0.0001,-0.00031,-8e-05,4e-05,0.00065,-0.00017,-0.00017,-0.00066,3,11
13034,-0.0001,-0.00031,-8e-05,4e-05,0.00065,-0.00017,-0.00017,-0.00066,3,11
13035,-0.00011,-0.00045,-1e-05,4e-05,0.00049,-0.00085,-2e-05,0.00075,3,11
13036,-0.00011,-0.00045,-1e-05,4e-05,0.00049,-0.00085,-2e-05,0.00075,3,11
13038,7e-05,0.0003,6e-05,-2e-05,-7e-05,-0.00031,-9e-05,-0.00035,3,11
13039,7e-05,0.0003,6e-05,-2e-05,-7e-05,-0.00031,-9e-05,-0.00035,3,11
13040,7e-05,0.0003,6e-05,-2e-05,-7e-05,-0.00031,-9e-05,-0.00035,3,11
13041,7e-05,0.0003,6e-05,-2e-05,-7e-05,-0.00031,-9e-05,-0.00035,3,11
13042,7e-05,0.0003,6e-05,-2e-05,-7e-05,-0.00031,-9e-05,-0.00035,3,11
13043,7e-05,0.0003,6e-05,-2e-05,-7e-05,-0.00031,-9e-05,-0.00035,3,11
13044,7e-05,0.0003,6e-05,-2e-05,-7e-05,-0.00031,-9e-05,-0.00035,3,11
13045,7e-05,0.0003,6e-05,-2e-05,-7e-05,-0.00031,-9e-05,-0.00035,3,11
13046,7e-05,0.0003,6e-05,-2e-05,-7e-05,-0.00031,-9e-05,-0.00035,3,11
13047,7e-05,0.0003,6e-05,-2e-05,-7e-05,-0.00031,-9e-05,-0.00035,3,11
13048,7e-05,0.0003,6e-05,-2e-05,-7e-05,-0.00031,-9e-05,-0.00035,3,11
13049,7e-05,0.0003,6e-05,-2e-05,-7e-05,-0.00031,-9e-05,-0.00035,3,11
13050,7e-05,0.0003,6e-05,-2e-05,-7e-05,-0.00031,-9e-05,-0.00035,3,11
13051,7e-05,0.0003,6e-05,-2e-05,-7e-05,-0.00031,-9e-05,-0.00035,3,11
13052,7e-05,0.0003,6e-05,-2e-05,-7e-05,-0.00031,-9e-05,-0.00035,3,11
13053,7e-05,0.0003,6e-05,-2e-05,-7e-05,-0.00031,-9e-05,-0.00035,3,11
13054,7e-05,0.0003,6e-05,-2e-05,-7e-05,-0.00031,-9e-05,-0.00035,3,11
13055,7e-05,0.0003,6e-05,-2e-05,-7e-05,-0.00031,-9e-05,-0.00035,3,11
13056,7e-05,0.0003,6e-05,-2e-05,-7e-05,-0.00031,-9e-05,-0.00035,3,11
13057,7e-05,0.0003,6e-05,-2e-05,-7e-05,-0.00031,-9e-05,-0.00035,3,11
13058,-0.00031,-0.00013,-7e-05,4e-05,0.00015,-0.00036,-0.0001,-0.00049,3,11
13059,0.00031,6e-05,3e-05,-1e-05,-0.0002,9e-05,-1e-05,0.00019,3,11
13060,0.00031,6e-05,3e-05,-1e-05,-0.0002,9e-05,-1e-05,0.00019,3,11
13061,0.00031,6e-05,3e-05,-1e-05,-0.0002,9e-05,-1e-05,0.00019,3,11
13062,0.00031,6e-05,3e-05,-1e-05,-0.0002,9e-05,-1e-05,0.00019,3,11
13063,0.00031,6e-05,3e-05,-1e-05,-0.0002,9e-05,-1e-05,0.00019,3,11
13064,0.00031,6e-05,3e-05,-1e-05,-0.0002,9e-05,-1e-05,0.00019,3,11
13065,0.00031,6e-05,3e-05,-1e-05,-0.0002,9e-05,-1e-05,0.00019,3,11
13066,0.00031,6e-05,3e-05,-1e-05,-0.0002,9e-05,-1e-05,0.00019,3,11
13067,0.00031,6e-05,3e-05,-1e-05,-0.0002,9e-05,-1e-05,0.00019,3,11
13068,0.00031,6e-05,3e-05,-1e-05,-0.0002,9e-05,-1e-05,0.00019,3,11
13069,0.00031,6e-05,3e-05,-1e-05,-0.0002,9e-05,-1e-05,0.00019,3,11
13070,0.00031,6e-05,3e-05,-1e-05,-0.0002,9e-05,-1e-05,0.00019,3,11
13071,-0.00014,-0.00046,-2e-05,1e-05,0.00064,0.0003,3e-05,0.00023,3,11
13072,0.00011,0.00024,0,-2e-05,-0.00036,0.0002,-0.00012,-0.00038,3,11
13073,0.00011,0.00024,0,-2e-05,-0.00036,0.0002,-0.00012,-0.00038,3,11
13074,0.00011,0.00024,0,-2e-05,-0.00036,0.0002,-0.00012,-0.00038,3,11
13075,0.00011,0.00024,0,-2e-05,-0.00036,0.0002,-0.00012,-0.00038,3,11
13076,0.00011,0.00024,0,-2e-05,-0.00036,0.0002,-0.00012,-0.00038,3,11
13077,0.00011,0.00024,0,-2e-05,-0.00036,0.0002,-0.00012,-0.00038,3,11
13078,0.00011,0.00024,0,-2e-05,-0.00036,0.0002,-0.00012,-0.00038,3,11
13079,0.00011,0.00024,0,-2e-05,-0.00036,0.0002,-0.00012,-0.00038,3,11
13080,-0.0001,-0.00036,-5e-05,0,8e-05,-0.00057,-0.00013,5e-05,3,11
13081,-6e-05,-0.00037,-0.00011,-8e-05,-0.00029,0.00026,8e-05,0.00026,3,11
13082,-6e-05,-0.00037,-0.00011,-8e-05,-0.00029,0.00026,8e-05,0.00026,3,11
13083,-6e-05,-0.00037,-0.00011,-8e-05,-0.00029,0.00026,8e-05,0.00026,3,11
13084,-6e-05,-0.00037,-0.00011,-8e-05,-0.00029,0.00026,8e-05,0.00026,3,11
13085,-6e-05,-0.00037,-0.00011,-8e-05,-0.00029,0.00026,8e-05,0.00026,3,11
13086,-6e-05,-0.00037,-0.00011,-8e-05,-0.00029,0.00026,8e-05,0.00026,3,11
13088,-6e-05,-0.00037,-0.00011,-8e-05,-0.00029,0.00026,8e-05,0.00026,3,11
13089,-6e-05,-0.00037,-0.00011,-8e-05,-0.00029,0.00026,8e-05,0.00026,3,11
13090,-6e-05,-0.00037,-0.00011,-8e-05,-0.00029,0.00026,8e-05,0.00026,3,11
13091,-6e-05,-0.00037,-0.00011,-8e-05,-0.00029,0.00026,8e-05,0.00026,3,11
13092,-6e-05,-0.00037,-0.00011,-8e-05,-0.00029,0.00026,8e-05,0.00026,3,11
13093,-6e-05,-0.00037,-0.00011,-8e-05,-0.00029,0.00026,8e-05,0.00026,3,11
13094,-6e-05,-0.00037,-0.00011,-8e-05,-0.00029,0.00026,8e-05,0.00026,3,11
13095,-6e-05,-0.00037,-0.00011,-8e-05,-0.00029,0.00026,8e-05,0.00026,3,11
13096,0.00037,0.00066,5e-05,0.00014,0.00078,0.00045,3e-05,2e-05,3,11
13097,-1e-05,-6e-05,-6e-05,-4e-05,2e-05,-0.0005,-2e-05,-0.00015,3,11
13098,-1e-05,-6e-05,-6e-05,-4e-05,2e-05,-0.0005,-2e-05,-0.00015,3,11
13099,-1e-05,-6e-05,-6e-05,-4e-05,2e-05,-0.0005,-2e-05,-0.00015,3,11
13100,-1e-05,-6e-05,-6e-05,-4e-05,2e-05,-0.0005,-2e-05,-0.00015,3,11
13101,-1e-05,-6e-05,-6e-05,-4e-05,2e-05,-0.0005,-2e-05,-0.00015,3,11
13102,-1e-05,-6e-05,-6e-05,-4e-05,2e-05,-0.0005,-2e-05,-0.00015,3,11
13103,-1e-05,-6e-05,-6e-05,-4e-05,2e-05,-0.0005,-2e-05,-0.00015,3,11
13104,-1e-05,-6e-05,-6e-05,-4e-05,2e-05,-0.0005,-2e-05,-0.00015,3,11
13105,-1e-05,-6e-05,-6e-05,-4e-05,2e-05,-0.0005,-2e-05,-0.00015,3,11
13106,-1e-05,-6e-05,-6e-05,-4e-05,2e-05,-0.0005,-2e-05,-0.00015,3,11
13107,-1e-05,-6e-05,-6e-05,-4e-05,2e-05,-0.0005,-2e-05,-0.00015,3,11
13108,-1e-05,-6e-05,-6e-05,-4e-05,2e-05,-0.0005,-2e-05,-0.00015,3,11
13109,-1e-05,-6e-05,-6e-05,-4e-05,2e-05,-0.0005,-2e-05,-0.00015,3,11
13110,-1e-05,-6e-05,-6e-05,-4e-05,2e-05,-0.0005,-2e-05,-0.00015,3,11
13111,-1e-05,-6e-05,-6e-05,-4e-05,2e-05,-0.0005,-2e-05,-0.00015,3,11
13112,-1e-05,-6e-05,-6e-05,-4e-05,2e-05,-0.0005,-2e-05,-0.00015,3,11
13113,-1e-05,-6e-05,-6e-05,-4e-05,2e-05,-0.0005,-2e-05,-0.00015,3,11
13114,-1e-05,-6e-05,-6e-05,-4e-05,2e-05,-0.0005,-2e-05,-0.00015,3,11
13115,-1e-05,-6e-05,-6e-05,-4e-05,2e-05,-0.0005,-2e-05,-0.00015,3,11
13116,-1e-05,-6e-05,-6e-05,-4e-05,2e-05,-0.0005,-2e-05,-0.00015,3,11
13117,-1e-05,-6e-05,-6e-05,-4e-05,2e-05,-0.0005,-2e-05,-0.00015,3,11
13118,-2e-05,0.0003,3e-05,0,-0.00021,-0.0004,2e-05,-0.00037,3,11
13120,-0.00017,0.0001,2e-05,0.00014,-0.00015,8e-05,-0.00023,-0.00047,3,11
13121,-0.00017,0.0001,2e-05,0.00014,-0.00015,8e-05,-0.00023,-0.00047,3,11
13122,-0.00017,0.0001,2e-05,0.00014,-0.00015,8e-05,-0.00023,-0.00047,3,11
13123,-0.00017,0.0001,2e-05,0.00014,-0.00015,8e-05,-0.00023,-0.00047,3,11
13124,-0.00017,0.0001,2e-05,0.00014,-0.00015,8e-05,-0.00023,-0.00047,3,11
13125,-0.00017,0.0001,2e-05,0.00014,-0.00015,8e-05,-0.00023,-0.00047,3,11
13126,-0.00017,0.0001,2e-05,0.00014,-0.00015,8e-05,-0.00023,-0.00047,3,11
13127,-0.00017,0.0001,2e-05,0.00014,-0.00015,8e-05,-0.00023,-0.00047,3,11
13128,-0.00017,0.0001,2e-05,0.00014,-0.00015,8e-05,-0.00023,-0.00047,3,11
13129,-0.00017,0.0001,2e-05,0.00014,-0.00015,8e-05,-0.00023,-0.00047,3,11
13130,-0.00017,0.0001,2e-05,0.00014,-0.00015,8e-05,-0.00023,-0.00047,3,11
13131,-0.00023,0.00014,-2e-05,-5e-05,-0.00014,0,-0.00012,-0.00048,3,11
13132,-0.00023,0.00014,-2e-05,-5e-05,-0.00014,0,-0.00012,-0.00048,3,11
13133,-0.00023,0.00014,-2e-05,-5e-05,-0.00014,0,-0.00012,-0.00048,3,11
13134,-0.00023,0.00014,-2e-05,-5e-05,-0.00014,0,-0.00012,-0.00048,3,11
13135,-0.00023,0.00014,-2e-05,-5e-05,-0.00014,0,-0.00012,-0.00048,3,11
13136,-0.00023,0.00014,-2e-05,-5e-05,-0.00014,0,-0.00012,-0.00048,3,11
13138,-0.00023,0.00014,-2e-05,-5e-05,-0.00014,0,-0.00012,-0.00048,3,11
13139,-0.00023,0.00014,-2e-05,-5e-05,-0.00014,0,-0.00012,-0.00048,3,11
13140,-0.00023,-0.00078,-9e-05,-0.00012,7e-05,3e-05,0,0,3,11
13142,-0.00023,-0.00078,-9e-05,-0.00012,7e-05,3e-05,0,0,3,11
13143,-0.00023,-0.00078,-9e-05,-0.00012,7e-05,3e-05,0,0,3,11
13144,-0.00023,-0.00078,-9e-05,-0.00012,7e-05,3e-05,0,0,3,11
13145,-0.00023,-0.00078,-9e-05,-0.00012,7e-05,3e-05,0,0,3,11
13146,-0.00023,-0.00078,-9e-05,-0.00012,7e-05,3e-05,0,0,3,11
13147,-0.00023,-0.00078,-9e-05,-0.00012,7e-05,3e-05,0,0,3,11
13148,-0.00023,-0.00078,-9e-05,-0.00012,7e-05,3e-05,0,0,3,11
13149,-0.00023,-0.00078,-9e-05,-0.00012,7e-05,3e-05,0,0,3,11
13150,-0.00023,-0.00078,-9e-05,-0.00012,7e-05,3e-05,0,0,3,11
13151,-0.00023,-0.00078,-9e-05,-0.00012,7e-05,3e-05,0,0,3,11
13152,-0.00023,-0.00078,-9e-05,-0.00012,7e-05,3e-05,0,0,3,11
13153,-0.00023,-0.00078,-9e-05,-0.00012,7e-05,3e-05,0,0,3,11
13154,-0.00023,-0.00078,-9e-05,-0.00012,7e-05,3e-05,0,0,3,11
13155,-0.00029,-0.00031,-8e-05,-4e-05,-0.00048,-0.00021,-0.00016,0.00088,3,11
13156,-0.00029,-0.00031,-8e-05,-4e-05,-0.00048,-0.00021,-0.00016,0.00088,3,11
13157,0,0.00109,0.00013,2e-05,8e-05,-4e-05,2e-05,6e-05,3,11
13158,0,0.00109,0.00013,2e-05,8e-05,-4e-05,2e-05,6e-05,3,11
13159,0,0.00109,0.00013,2e-05,8e-05,-4e-05,2e-05,6e-05,3,11
13160,0,0.00109,0.00013,2e-05,8e-05,-4e-05,2e-05,6e-05,3,11
13161,0,0.00109,0.00013,2e-05,8e-05,-4e-05,2e-05,6e-05,3,11
13162,0,0.00109,0.00013,2e-05,8e-05,-4e-05,2e-05,6e-05,3,11
13163,0,0.00109,0.00013,2e-05,8e-05,-4e-05,2e-05,6e-05,3,11
13164,0,0.00109,0.00013,2e-05,8e-05,-4e-05,2e-05,6e-05,3,11
13165,0,0.00109,0.00013,2e-05,8e-05,-4e-05,2e-05,6e-05,3,11
13166,0,0.00109,0.00013,2e-05,8e-05,-4e-05,2e-05,6e-05,3,11
13167,0,0.00109,0.00013,2e-05,8e-05,-4e-05,2e-05,6e-05,3,11
13168,0,0.00109,0.00013,2e-05,8e-05,-4e-05,2e-05,6e-05,3,11
13169,0,0.00109,0.00013,2e-05,8e-05,-4e-05,2e-05,6e-05,3,11
13170,0,0.00109,0.00013,2e-05,8e-05,-4e-05,2e-05,6e-05,3,11
13171,0,0.00109,0.00013,2e-05,8e-05,-4e-05,2e-05,6e-05,3,11
13172,0,0.00109,0.00013,2e-05,8e-05,-4e-05,2e-05,6e-05,3,11
13173,0,0.00109,0.00013,2e-05,8e-05,-4e-05,2e-05,6e-05,3,11
13174,0,0.00109,0.00013,2e-05,8e-05,-4e-05,2e-05,6e-05,3,11
13175,0,0.00109,0.00013,2e-05,8e-05,-4e-05,2e-05,6e-05,3,11
13176,0,0.00109,0.00013,2e-05,8e-05,-4e-05,2e-05,6e-05,3,11
13177,0,0.00109,0.00013,2e-05,8e-05,-4e-05,2e-05,6e-05,3,11
13178,3e-05,1e-05,-0.00013,-7e-05,4e-05,-0.00047,-2e-05,-0.00042,3,11
13179,-0.00015,0.00017,3e-05,1e-05,-0.00031,-0.00034,-1e-05,7e-05,3,11
13180,-0.00015,0.00017,3e-05,1e-05,-0.00031,-0.00034,-1e-05,7e-05,3,11
13181,-0.00015,0.00017,3e-05,1e-05,-0.00031,-0.00034,-1e-05,7e-05,3,11
13182,-0.00015,0.00017,3e-05,1e-05,-0.00031,-0.00034,-1e-05,7e-05,3,11
13183,-0.00015,0.00017,3e-05,1e-05,-0.00031,-0.00034,-1e-05,7e-05,3,11
13184,-0.00015,0.00017,3e-05,1e-05,-0.00031,-0.00034,-1e-05,7e-05,3,11
13185,-0.00015,0.00017,3e-05,1e-05,-0.00031,-0.00034,-1e-05,7e-05,3,11
13186,-0.00015,0.00017,3e-05,1e-05,-0.00031,-0.00034,-1e-05,7e-05,3,11
13188,-0.00015,0.00017,3e-05,1e-05,-0.00031,-0.00034,-1e-05,7e-05,3,11
13189,-0.00015,0.00017,3e-05,1e-05,-0.00031,-0.00034,-1e-05,7e-05,3,11
13190,-0.00015,0.00017,3e-05,1e-05,-0.00031,-0.00034,-1e-05,7e-05,3,11
13191,0.00011,9e-05,1e-05,-1e-05,-0.00042,7e-05,-1e-05,-0.0004,3,11
13192,0.00011,9e-05,1e-05,-1e-05,-0.00042,7e-05,-1e-05,-0.0004,3,11
13193,0.00011,9e-05,1e-05,-1e-05,-0.00042,7e-05,-1e-05,-0.0004,3,11
13194,0.00011,9e-05,1e-05,-1e-05,-0.00042,7e-05,-1e-05,-0.0004,3,11
13195,0.00011,9e-05,1e-05,-1e-05,-0.00042,7e-05,-1e-05,-0.0004,3,11
13196,0.00011,9e-05,1e-05,-1e-05,-0.00042,7e-05,-1e-05,-0.0004,3,11
13197,0.00011,9e-05,1e-05,-1e-05,-0.00042,7e-05,-1e-05,-0.0004,3,11
13198,0.00011,9e-05,1e-05,-1e-05,-0.00042,7e-05,-1e-05,-0.0004,3,11
13199,0.00011,9e-05,1e-05,-1e-05,-0.00042,7e-05,-1e-05,-0.0004,3,11
13200,-0.00017,-0.0001,-0.00011,-7e-05,0.00025,0.00048,0.00015,-0.0009,3,11
13201,-0.00017,-0.0001,-0.00011,-7e-05,0.00025,0.00048,0.00015,-0.0009,3,11
13202,-0.00017,-0.0001,-0.00011,-7e-05,0.00025,0.00048,0.00015,-0.0009,3,11
13203,-0.00017,-0.0001,-0.00011,-7e-05,0.00025,0.00048,0.00015,-0.0009,3,11
13204,-0.00017,-0.0001,-0.00011,-7e-05,0.00025,0.00048,0.00015,-0.0009,3,11
13205,-0.00017,-0.0001,-0.00011,-7e-05,0.00025,0.00048,0.00015,-0.0009,3,11
13206,-0.00017,-0.0001,-0.00011,-7e-05,0.00025,0.00048,0.00015,-0.0009,3,11
13207,-0.00017,-0.0001,-0.00011,-7e-05,0.00025,0.00048,0.00015,-0.0009,3,11
13208,-0.00017,-0.0001,-0.00011,-7e-05,0.00025,0.00048,0.00015,-0.0009,3,11
13209,-0.00017,-0.0001,-0.00011,-7e-05,0.00025,0.00048,0.00015,-0.0009,3,11
13210,-0.00017,-0.0001,-0.00011,-7e-05,0.00025,0.00048,0.00015,-0.0009,3,11
13212,-0.00017,-0.0001,-0.00011,-7e-05,0.00025,0.00048,0.00015,-0.0009,3,11
13213,-0.00017,-0.0001,-0.00011,-7e-05,0.00025,0.00048,0.00015,-0.0009,3,11
13214,-0.00017,-0.0001,-0.00011,-7e-05,0.00025,0.00048,0.00015,-0.0009,3,11
13215,2e-05,-0.00041,-1e-05,0,0.00017,-0.00047,2e-05,-0.00011,3,11
13216,2e-05,-0.00041,-1e-05,0,0.00017,-0.00047,2e-05,-0.00011,3,11
13217,7e-05,-0.00011,3e-05,-3e-05,0.00013,-0.00015,-0.00014,-0.00022,3,11
13218,7e-05,-0.00011,3e-05,-3e-05,0.00013,-0.00015,-0.00014,-0.00022,3,11
13219,7e-05,-0.00011,3e-05,-3e-05,0.00013,-0.00015,-0.00014,-0.00022,3,11
13220,7e-05,-0.00011,3e-05,-3e-05,0.00013,-0.00015,-0.00014,-0.00022,3,11
13221,7e-05,-0.00011,3e-05,-3e-05,0.00013,-0.00015,-0.00014,-0.00022,3,11
13222,7e-05,-0.00011,3e-05,-3e-05,0.00013,-0.00015,-0.00014,-0.00022,3,11
13223,7e-05,-0.00011,3e-05,-3e-05,0.00013,-0.00015,-0.00014,-0.00022,3,11
13224,7e-05,-0.00011,3e-05,-3e-05,0.00013,-0.00015,-0.00014,-0.00022,3,11
13225,7e-05,-0.00011,3e-05,-3e-05,0.00013,-0.00015,-0.00014,-0.00022,3,11
13226,7e-05,-0.00011,3e-05,-3e-05,0.00013,-0.00015,-0.00014,-0.00022,3,11
13227,7e-05,-0.00011,3e-05,-3e-05,0.00013,-0.00015,-0.00014,-0.00022,3,11
13228,7e-05,-0.00011,3e-05,-3e-05,0.00013,-0.00015,-0.00014,-0.00022,3,11
13229,7e-05,-0.00011,3e-05,-3e-05,0.00013,-0.00015,-0.00014,-0.00022,3,11
13230,7e-05,-0.00011,3e-05,-3e-05,0.00013,-0.00015,-0.00014,-0.00022,3,11
13231,7e-05,-0.00011,3e-05,-3e-05,0.00013,-0.00015,-0.00014,-0.00022,3,11
13232,7e-05,-0.00011,3e-05,-3e-05,0.00013,-0.00015,-0.00014,-0.00022,3,11
13233,7e-05,-0.00011,3e-05,-3e-05,0.00013,-0.00015,-0.00014,-0.00022,3,11
13234,7e-05,-0.00011,3e-05,-3e-05,0.00013,-0.00015,-0.00014,-0.00022,3,11
13235,7e-05,-0.00011,3e-05,-3e-05,0.00013,-0.00015,-0.00014,-0.00022,3,11
13236,7e-05,-0.00011,3e-05,-3e-05,0.00013,-0.00015,-0.00014,-0.00022,3,11
13239,-2e-05,4e-05,4e-05,-3e-05,-3e-05,0.00017,2e-05,-1e-05,3,11
13240,-2e-05,4e-05,4e-05,-3e-05,-3e-05,0.00017,2e-05,-1e-05,3,11
13241,-2e-05,4e-05,4e-05,-3e-05,-3e-05,0.00017,2e-05,-1e-05,3,11
13242,-2e-05,4e-05,4e-05,-3e-05,-3e-05,0.00017,2e-05,-1e-05,3,11
13243,-2e-05,4e-05,4e-05,-3e-05,-3e-05,0.00017,2e-05,-1e-05,3,11
13244,-2e-05,4e-05,4e-05,-3e-05,-3e-05,0.00017,2e-05,-1e-05,3,11
13245,-2e-05,4e-05,4e-05,-3e-05,-3e-05,0.00017,2e-05,-1e-05,3,11
13246,-2e-05,4e-05,4e-05,-3e-05,-3e-05,0.00017,2e-05,-1e-05,3,11
13247,-2e-05,4e-05,4e-05,-3e-05,-3e-05,0.00017,2e-05,-1e-05,3,11
13248,-2e-05,4e-05,4e-05,-3e-05,-3e-05,0.00017,2e-05,-1e-05,3,11
13249,-2e-05,4e-05,4e-05,-3e-05,-3e-05,0.00017,2e-05,-1e-05,3,11
13250,-2e-05,4e-05,4e-05,-3e-05,-3e-05,0.00017,2e-05,-1e-05,3,11
13251,-2e-05,4e-05,4e-05,-3e-05,-3e-05,0.00017,2e-05,-1e-05,3,11
13252,-2e-05,4e-05,4e-05,-3e-05,-3e-05,0.00017,2e-05,-1e-05,3,11
13253,-2e-05,4e-05,4e-05,-3e-05,-3e-05,0.00017,2e-05,-1e-05,3,11
13254,-2e-05,4e-05,4e-05,-3e-05,-3e-05,0.00017,2e-05,-1e-05,3,11
13255,-2e-05,4e-05,4e-05,-3e-05,-3e-05,0.00017,2e-05,-1e-05,3,11
13256,-2e-05,4e-05,4e-05,-3e-05,-3e-05,0.00017,2e-05,-1e-05,3,11
13257,-2e-05,4e-05,4e-05,-3e-05,-3e-05,0.00017,2e-05,-1e-05,3,11
13258,-2e-05,4e-05,4e-05,-3e-05,-3e-05,0.00017,2e-05,-1e-05,3,11
13259,-2e-05,4e-05,4e-05,-3e-05,-3e-05,0.00017,2e-05,-1e-05,3,11
13260,0.00019,0.00061,8e-05,0.0001,0.0004,0.00057,0.00018,-0.00016,3,11
13261,0.00019,0.00061,8e-05,0.0001,0.0004,0.00057,0.00018,-0.00016,3,11
13262,0.0002,7e-05,0.00011,0,4e-05,0.00024,0.00014,0.0012,3,11
13263,0.0002,7e-05,0.00011,0,4e-05,0.00024,0.00014,0.0012,3,11
13264,0.0002,7e-05,0.00011,0,4e-05,0.00024,0.00014,0.0012,3,11
13265,0.0002,7e-05,0.00011,0,4e-05,0.00024,0.00014,0.0012,3,11
13266,0.0002,7e-05,0.00011,0,4e-05,0.00024,0.00014,0.0012,3,11
13267,0.0002,7e-05,0.00011,0,4e-05,0.00024,0.00014,0.0012,3,11
13268,0.0002,7e-05,0.00011,0,4e-05,0.00024,0.00014,0.0012,3,11
13269,0.0002,7e-05,0.00011,0,4e-05,0.00024,0.00014,0.0012,3,11
13270,0.0002,7e-05,0.00011,0,4e-05,0.00024,0.00014,0.0012,3,11
13271,0.0002,7e-05,0.00011,0,4e-05,0.00024,0.00014,0.0012,3,11
13272,0.0002,7e-05,0.00011,0,4e-05,0.00024,0.00014,0.0012,3,11
13273,0.0002,7e-05,0.00011,0,4e-05,0.00024,0.00014,0.0012,3,11
13274,0.0002,7e-05,0.00011,0,4e-05,0.00024,0.00014,0.0012,3,11
13275,3e-05,-0.00039,-6e-05,-9e-05,-0.00048,-0.00048,-4e-05,-0.00038,3,11
13276,3e-05,-0.00039,-6e-05,-9e-05,-0.00048,-0.00048,-4e-05,-0.00038,3,11
13277,-0.00027,-0.00014,-7e-05,-1e-05,-9e-05,4e-05,-3e-05,-0.00067,3,11
13278,-0.00027,-0.00014,-7e-05,-1e-05,-9e-05,4e-05,-3e-05,-0.00067,3,11
13279,-0.00027,-0.00014,-7e-05,-1e-05,-9e-05,4e-05,-3e-05,-0.00067,3,11
13280,-0.00027,-0.00014,-7e-05,-1e-05,-9e-05,4e-05,-3e-05,-0.00067,3,11
13281,-0.00027,-0.00014,-7e-05,-1e-05,-9e-05,4e-05,-3e-05,-0.00067,3,11
13282,-0.00027,-0.00014,-7e-05,-1e-05,-9e-05,4e-05,-3e-05,-0.00067,3,11
13283,-0.00027,-0.00014,-7e-05,-1e-05,-9e-05,4e-05,-3e-05,-0.00067,3,11
13284,-0.00027,-0.00014,-7e-05,-1e-05,-9e-05,4e-05,-3e-05,-0.00067,3,11
13285,-0.00027,-0.00014,-7e-05,-1e-05,-9e-05,4e-05,-3e-05,-0.00067,3,11
13286,-0.00027,-0.00014,-7e-05,-1e-05,-9e-05,4e-05,-3e-05,-0.00067,3,11
13288,-0.00027,-0.00014,-7e-05,-1e-05,-9e-05,4e-05,-3e-05,-0.00067,3,11
13289,-0.00027,-0.00014,-7e-05,-1e-05,-9e-05,4e-05,-3e-05,-0.00067,3,11
13290,-0.00027,-0.00014,-7e-05,-1e-05,-9e-05,4e-05,-3e-05,-0.00067,3,11
13291,-0.00027,-0.00014,-7e-05,-1e-05,-9e-05,4e-05,-3e-05,-0.00067,3,11
13292,-0.00027,-0.00014,-7e-05,-1e-05,-9e-05,4e-05,-3e-05,-0.00067,3,11
13293,-0.00027,-0.00014,-7e-05,-1e-05,-9e-05,4e-05,-3e-05,-0.00067,3,11
13294,-0.00027,-0.00014,-7e-05,-1e-05,-9e-05,4e-05,-3e-05,-0.00067,3,11
13295,-0.00027,-0.00014,-7e-05,-1e-05,-9e-05,4e-05,-3e-05,-0.00067,3,11
13296,-0.00027,-0.00014,-7e-05,-1e-05,-9e-05,4e-05,-3e-05,-0.00067,3,11
13297,-0.00027,-0.00014,-7e-05,-1e-05,-9e-05,4e-05,-3e-05,-0.00067,3,11
13298,-0.00012,-0.00058,-1e-05,1e-05,2e-05,0,5e-05,-0.00031,3,11
13299,5e-05,-0.00031,-5e-05,-2e-05,0.00017,-0.00012,-1e-05,-3e-05,3,11
13300,5e-05,-0.00031,-5e-05,-2e-05,0.00017,-0.00012,-1e-05,-3e-05,3,11
13301,5e-05,-0.00031,-5e-05,-2e-05,0.00017,-0.00012,-1e-05,-3e-05,3,11
13302,5e-05,-0.00031,-5e-05,-2e-05,0.00017,-0.00012,-1e-05,-3e-05,3,11
13303,5e-05,-0.00031,-5e-05,-2e-05,0.00017,-0.00012,-1e-05,-3e-05,3,11
13304,5e-05,-0.00031,-5e-05,-2e-05,0.00017,-0.00012,-1e-05,-3e-05,3,11
13305,5e-05,-0.00031,-5e-05,-2e-05,0.00017,-0.00012,-1e-05,-3e-05,3,11
13306,5e-05,-0.00031,-5e-05,-2e-05,0.00017,-0.00012,-1e-05,-3e-05,3,11
13307,5e-05,-0.00031,-5e-05,-2e-05,0.00017,-0.00012,-1e-05,-3e-05,3,11
13308,5e-05,-0.00031,-5e-05,-2e-05,0.00017,-0.00012,-1e-05,-3e-05,3,11
13309,5e-05,-0.00031,-5e-05,-2e-05,0.00017,-0.00012,-1e-05,-3e-05,3,11
13310,5e-05,-0.00031,-5e-05,-2e-05,0.00017,-0.00012,-1e-05,-3e-05,3,11
13311,-1e-05,0.00065,4e-05,-5e-05,-2e-05,-9e-05,-6e-05,-0.00022,3,11
13312,-1e-05,0.00065,4e-05,-5e-05,-2e-05,-9e-05,-6e-05,-0.00022,3,11
13313,-1e-05,0.00065,4e-05,-5e-05,-2e-05,-9e-05,-6e-05,-0.00022,3,11
13314,-1e-05,0.00065,4e-05,-5e-05,-2e-05,-9e-05,-6e-05,-0.00022,3,11
13315,-1e-05,0.00065,4e-05,-5e-05,-2e-05,-9e-05,-6e-05,-0.00022,3,11
13316,-1e-05,0.00065,4e-05,-5e-05,-2e-05,-9e-05,-6e-05,-0.00022,3,11
13317,-1e-05,0.00065,4e-05,-5e-05,-2e-05,-9e-05,-6e-05,-0.00022,3,11
13318,-1e-05,0.00065,4e-05,-5e-05,-2e-05,-9e-05,-6e-05,-0.00022,3,11
13319,-1e-05,0.00065,4e-05,-5e-05,-2e-05,-9e-05,-6e-05,-0.00022,3,11
13320,0.00017,-1e-05,-2e-05,-1e-05,-0.00024,-0.00018,7e-05,0.00073,3,11
13321,0.00017,-1e-05,-2e-05,-1e-05,-0.00024,-0.00018,7e-05,0.00073,3,11
13322,0.00017,-1e-05,-2e-05,-1e-05,-0.00024,-0.00018,7e-05,0.00073,3,11
13323,0.00017,-1e-05,-2e-05,-1e-05,-0.00024,-0.00018,7e-05,0.00073,3,11
13324,0.00017,-1e-05,-2e-05,-1e-05,-0.00024,-0.00018,7e-05,0.00073,3,11
13325,0.00017,-1e-05,-2e-05,-1e-05,-0.00024,-0.00018,7e-05,0.00073,3,11
13326,0.00017,-1e-05,-2e-05,-1e-05,-0.00024,-0.00018,7e-05,0.00073,3,11
13327,0.00017,-1e-05,-2e-05,-1e-05,-0.00024,-0.00018,7e-05,0.00073,3,11
13328,0.00017,-1e-05,-2e-05,-1e-05,-0.00024,-0.00018,7e-05,0.00073,3,11
13329,0.00017,-1e-05,-2e-05,-1e-05,-0.00024,-0.00018,7e-05,0.00073,3,11
13330,0.00017,-1e-05,-2e-05,-1e-05,-0.00024,-0.00018,7e-05,0.00073,3,11
13331,0.00017,-1e-05,-2e-05,-1e-05,-0.00024,-0.00018,7e-05,0.00073,3,11
13332,0.00017,-1e-05,-2e-05,-1e-05,-0.00024,-0.00018,7e-05,0.00073,3,11
13333,0.00017,-1e-05,-2e-05,-1e-05,-0.00024,-0.00018,7e-05,0.00073,3,11
13334,0.00017,-1e-05,-2e-05,-1e-05,-0.00024,-0.00018,7e-05,0.00073,3,11
13335,9e-05,-0.00015,-4e-05,-5e-05,-5e-05,0.00077,-5e-05,0.00088,3,11
13337,4e-05,-0.00015,-0.00011,-3e-05,0.00053,-0.00063,-0.00011,0.00012,3,11
13339,4e-05,-0.00015,-0.00011,-3e-05,0.00053,-0.00063,-0.00011,0.00012,3,11
13340,4e-05,-0.00015,-0.00011,-3e-05,0.00053,-0.00063,-0.00011,0.00012,3,11
13341,4e-05,-0.00015,-0.00011,-3e-05,0.00053,-0.00063,-0.00011,0.00012,3,11
13342,4e-05,-0.00015,-0.00011,-3e-05,0.00053,-0.00063,-0.00011,0.00012,3,11
13343,4e-05,-0.00015,-0.00011,-3e-05,0.00053,-0.00063,-0.00011,0.00012,3,11
13344,4e-05,-0.00015,-0.00011,-3e-05,0.00053,-0.00063,-0.00011,0.00012,3,11
13345,4e-05,-0.00015,-0.00011,-3e-05,0.00053,-0.00063,-0.00011,0.00012,3,11
13346,4e-05,-0.00015,-0.00011,-3e-05,0.00053,-0.00063,-0.00011,0.00012,3,11
13347,4e-05,-0.00015,-0.00011,-3e-05,0.00053,-0.00063,-0.00011,0.00012,3,11
13348,4e-05,-0.00015,-0.00011,-3e-05,0.00053,-0.00063,-0.00011,0.00012,3,11
13349,4e-05,-0.00015,-0.00011,-3e-05,0.00053,-0.00063,-0.00011,0.00012,3,11
13350,4e-05,-0.00015,-0.00011,-3e-05,0.00053,-0.00063,-0.00011,0.00012,3,11
13351,4e-05,-0.00015,-0.00011,-3e-05,0.00053,-0.00063,-0.00011,0.00012,3,11
13352,4e-05,-0.00015,-0.00011,-3e-05,0.00053,-0.00063,-0.00011,0.00012,3,11
13353,4e-05,-0.00015,-0.00011,-3e-05,0.00053,-0.00063,-0.00011,0.00012,3,11
13354,4e-05,-0.00015,-0.00011,-3e-05,0.00053,-0.00063,-0.00011,0.00012,3,11
13355,4e-05,-0.00015,-0.00011,-3e-05,0.00053,-0.00063,-0.00011,0.00012,3,11
13356,4e-05,-0.00015,-0.00011,-3e-05,0.00053,-0.00063,-0.00011,0.00012,3,11
13357,4e-05,-0.00015,-0.00011,-3e-05,0.00053,-0.00063,-0.00011,0.00012,3,11
13358,-7e-05,0.00015,2e-05,2e-05,0.00012,-0.00043,5e-05,-0.00017,3,11
13359,-0.00021,0.00047,-4e-05,0,-0.00013,-0.00048,-0.00018,0.00053,3,11
13360,-0.00021,0.00047,-4e-05,0,-0.00013,-0.00048,-0.00018,0.00053,3,11
13361,-0.00021,0.00047,-4e-05,0,-0.00013,-0.00048,-0.00018,0.00053,3,11
13362,-0.00021,0.00047,-4e-05,0,-0.00013,-0.00048,-0.00018,0.00053,3,11
13363,-0.00021,0.00047,-4e-05,0,-0.00013,-0.00048,-0.00018,0.00053,3,11
13364,-0.00021,0.00047,-4e-05,0,-0.00013,-0.00048,-0.00018,0.00053,3,11
13365,-0.00021,0.00047,-4e-05,0,-0.00013,-0.00048,-0.00018,0.00053,3,11
13366,-0.00021,0.00047,-4e-05,0,-0.00013,-0.00048,-0.00018,0.00053,3,11
13367,-0.00021,0.00047,-4e-05,0,-0.00013,-0.00048,-0.00018,0.00053,3,11
13368,-0.00021,0.00047,-4e-05,0,-0.00013,-0.00048,-0.00018,0.00053,3,11
13369,-0.00021,0.00047,-4e-05,0,-0.00013,-0.00048,-0.00018,0.00053,3,11
13370,-0.00021,0.00047,-4e-05,0,-0.00013,-0.00048,-0.00018,0.00053,3,11
13371,2e-05,0.0002,1e-05,-2e-05,-0.00016,4e-05,-3e-05,8e-05,3,11
13372,2e-05,0.0002,1e-05,-2e-05,-0.00016,4e-05,-3e-05,8e-05,3,11
13373,2e-05,0.0002,1e-05,-2e-05,-0.00016,4e-05,-3e-05,8e-05,3,11
13374,2e-05,0.0002,1e-05,-2e-05,-0.00016,4e-05,-3e-05,8e-05,3,11
13375,2e-05,0.0002,1e-05,-2e-05,-0.00016,4e-05,-3e-05,8e-05,3,11
13376,2e-05,0.0002,1e-05,-2e-05,-0.00016,4e-05,-3e-05,8e-05,3,11
13377,2e-05,0.0002,1e-05,-2e-05,-0.00016,4e-05,-3e-05,8e-05,3,11
13378,2e-05,0.0002,1e-05,-2e-05,-0.00016,4e-05,-3e-05,8e-05,3,11
13379,2e-05,0.0002,1e-05,-2e-05,-0.00016,4e-05,-3e-05,8e-05,3,11
13380,2e-05,0.0002,1e-05,-2e-05,-0.00016,4e-05,-3e-05,8e-05,3,11
13381,-0.00016,0.0003,5e-05,5e-05,-9e-05,0.0004,0.0001,0.00018,3,11
13382,-0.00016,0.0003,5e-05,5e-05,-9e-05,0.0004,0.0001,0.00018,3,11
13383,-0.00016,0.0003,5e-05,5e-05,-9e-05,0.0004,0.0001,0.00018,3,11
13384,-0.00016,0.0003,5e-05,5e-05,-9e-05,0.0004,0.0001,0.00018,3,11
13385,-0.00016,0.0003,5e-05,5e-05,-9e-05,0.0004,0.0001,0.00018,3,11
13386,-0.00016,0.0003,5e-05,5e-05,-9e-05,0.0004,0.0001,0.00018,3,11
13388,-0.00016,0.0003,5e-05,5e-05,-9e-05,0.0004,0.0001,0.00018,3,11
13389,-0.00016,0.0003,5e-05,5e-05,-9e-05,0.0004,0.0001,0.00018,3,11
13390,-0.00016,0.0003,5e-05,5e-05,-9e-05,0.0004,0.0001,0.00018,3,11
13391,-0.00016,0.0003,5e-05,5e-05,-9e-05,0.0004,0.0001,0.00018,3,11
13392,-0.00016,0.0003,5e-05,5e-05,-9e-05,0.0004,0.0001,0.00018,3,11
13393,-0.00016,0.0003,5e-05,5e-05,-9e-05,0.0004,0.0001,0.00018,3,11
13394,-0.00016,0.0003,5e-05,5e-05,-9e-05,0.0004,0.0001,0.00018,3,11
13395,0.00016,0.00065,2e-05,-8e-05,-0.00034,-0.00085,-7e-05,0.00015,3,11
13396,0.00016,0.00065,2e-05,-8e-05,-0.00034,-0.00085,-7e-05,0.00015,3,11
13397,0.00023,0.00024,0,-8e-05,-3e-05,-0.00036,1e-05,-0.00013,3,11
13398,0.00023,0.00024,0,-8e-05,-3e-05,-0.00036,1e-05,-0.00013,3,11
13399,0.00023,0.00024,0,-8e-05,-3e-05,-0.00036,1e-05,-0.00013,3,11
13400,0.00023,0.00024,0,-8e-05,-3e-05,-0.00036,1e-05,-0.00013,3,11
13401,0.00023,0.00024,0,-8e-05,-3e-05,-0.00036,1e-05,-0.00013,3,11
13402,0.00023,0.00024,0,-8e-05,-3e-05,-0.00036,1e-05,-0.00013,3,11
13403,0.00023,0.00024,0,-8e-05,-3e-05,-0.00036,1e-05,-0.00013,3,11
13404,0.00023,0.00024,0,-8e-05,-3e-05,-0.00036,1e-05,-0.00013,3,11
13405,0.00023,0.00024,0,-8e-05,-3e-05,-0.00036,1e-05,-0.00013,3,11
13406,0.00023,0.00024,0,-8e-05,-3e-05,-0.00036,1e-05,-0.00013,3,11
13407,0.00023,0.00024,0,-8e-05,-3e-05,-0.00036,1e-05,-0.00013,3,11
13408,0.00023,0.00024,0,-8e-05,-3e-05,-0.00036,1e-05,-0.00013,3,11
13409,0.00023,0.00024,0,-8e-05,-3e-05,-0.00036,1e-05,-0.00013,3,11
13410,0.00023,0.00024,0,-8e-05,-3e-05,-0.00036,1e-05,-0.00013,3,11
13412,0.00023,0.00024,0,-8e-05,-3e-05,-0.00036,1e-05,-0.00013,3,11
13413,0.00023,0.00024,0,-8e-05,-3e-05,-0.00036,1e-05,-0.00013,3,11
13414,0.00023,0.00024,0,-8e-05,-3e-05,-0.00036,1e-05,-0.00013,3,11
13415,0.00023,0.00024,0,-8e-05,-3e-05,-0.00036,1e-05,-0.00013,3,11
13416,0.00023,0.00024,0,-8e-05,-3e-05,-0.00036,1e-05,-0.00013,3,11
13417,0.00023,0.00024,0,-8e-05,-3e-05,-0.00036,1e-05,-0.00013,3,11
13418,6e-05,0.00025,0,3e-05,0.00024,4e-05,-0.00013,0.00045,3,11
13419,-0.00019,0.00015,4e-05,0,6e-05,-0.00015,1e-05,-0.00027,3,11
13420,-0.00019,0.00015,4e-05,0,6e-05,-0.00015,1e-05,-0.00027,3,11
13421,-0.00019,0.00015,4e-05,0,6e-05,-0.00015,1e-05,-0.00027,3,11
13422,-0.00019,0.00015,4e-05,0,6e-05,-0.00015,1e-05,-0.00027,3,11
13423,-0.00019,0.00015,4e-05,0,6e-05,-0.00015,1e-05,-0.00027,3,11
13424,-0.00019,0.00015,4e-05,0,6e-05,-0.00015,1e-05,-0.00027,3,11
13425,-0.00019,0.00015,4e-05,0,6e-05,-0.00015,1e-05,-0.00027,3,11
13426,-0.00019,0.00015,4e-05,0,6e-05,-0.00015,1e-05,-0.00027,3,11
13427,-0.00019,0.00015,4e-05,0,6e-05,-0.00015,1e-05,-0.00027,3,11
13428,-0.00019,0.00015,4e-05,0,6e-05,-0.00015,1e-05,-0.00027,3,11
13429,-0.00019,0.00015,4e-05,0,6e-05,-0.00015,1e-05,-0.00027,3,11
13430,-0.00019,0.00015,4e-05,0,6e-05,-0.00015,1e-05,-0.00027,3,11
13431,-0.00019,0.00015,4e-05,0,6e-05,-0.00015,1e-05,-0.00027,3,11
13432,-0.00019,0.00015,4e-05,0,6e-05,-0.00015,1e-05,-0.00027,3,11
13433,-0.00019,0.00015,4e-05,0,6e-05,-0.00015,1e-05,-0.00027,3,11
13434,-0.00019,0.00015,4e-05,0,6e-05,-0.00015,1e-05,-0.00027,3,11
13435,-0.00019,0.00015,4e-05,0,6e-05,-0.00015,1e-05,-0.00027,3,11
13436,-0.00019,0.00015,4e-05,0,6e-05,-0.00015,1e-05,-0.00027,3,11
13438,-0.00019,0.00015,4e-05,0,6e-05,-0.00015,1e-05,-0.00027,3,11
13439,-0.00019,0.00015,4e-05,0,6e-05,-0.00015,1e-05,-0.00027,3,11
13440,-0.00019,0.00015,4e-05,0,6e-05,-0.00015,1e-05,-0.00027,3,11
13441,-0.00019,0.00015,4e-05,0,6e-05,-0.00015,1e-05,-0.00027,3,11
13442,-0.00019,0.00015,4e-05,0,6e-05,-0.00015,1e-05,-0.00027,3,11
13443,-0.00019,0.00015,4e-05,0,6e-05,-0.00015,1e-05,-0.00027,3,11
13444,-0.00019,0.00015,4e-05,0,6e-05,-0.00015,1e-05,-0.00027,3,11
13445,-0.00019,0.00015,4e-05,0,6e-05,-0.00015,1e-05,-0.00027,3,11
13446,-0.00019,0.00015,4e-05,0,6e-05,-0.00015,1e-05,-0.00027,3,11
13447,-0.00019,0.00015,4e-05,0,6e-05,-0.00015,1e-05,-0.00027,3,11
13448,-0.00016,-0.00077,-5e-05,-5e-05,9e-05,0.00052,5e-05,-0.00016,3,11
13449,7e-05,-0.0002,-0.00012,-0.00012,-0.00043,-0.00022,1e-05,-0.0009,3,11
13450,7e-05,-0.0002,-0.00012,-0.00012,-0.00043,-0.00022,1e-05,-0.0009,3,11
13451,7e-05,-0.0002,-0.00012,-0.00012,-0.00043,-0.00022,1e-05,-0.0009,3,11
13452,7e-05,-0.0002,-0.00012,-0.00012,-0.00043,-0.00022,1e-05,-0.0009,3,11
13453,7e-05,-0.0002,-0.00012,-0.00012,-0.00043,-0.00022,1e-05,-0.0009,3,11
13454,7e-05,-0.0002,-0.00012,-0.00012,-0.00043,-0.00022,1e-05,-0.0009,3,11
13455,4e-05,0.00034,6e-05,0.00012,0.0002,-0.00031,5e-05,2e-05,3,11
13456,4e-05,0.00034,6e-05,0.00012,0.0002,-0.00031,5e-05,2e-05,3,11
13457,0.00013,-0.00011,1e-05,0,0.00017,-0.00031,0.00028,0.00082,3,11
13458,0.00013,-0.00011,1e-05,0,0.00017,-0.00031,0.00028,0.00082,3,11
13459,0.00013,-0.00011,1e-05,0,0.00017,-0.00031,0.00028,0.00082,3,11
13460,0.00013,-0.00011,1e-05,0,0.00017,-0.00031,0.00028,0.00082,3,11
13461,0.00013,-0.00011,1e-05,0,0.00017,-0.00031,0.00028,0.00082,3,11
13462,0.00013,-0.00011,1e-05,0,0.00017,-0.00031,0.00028,0.00082,3,11
13463,0.00013,-0.00011,1e-05,0,0.00017,-0.00031,0.00028,0.00082,3,11
13464,0.00013,-0.00011,1e-05,0,0.00017,-0.00031,0.00028,0.00082,3,11
13465,0.00013,-0.00011,1e-05,0,0.00017,-0.00031,0.00028,0.00082,3,11
13466,0.00013,-0.00011,1e-05,0,0.00017,-0.00031,0.00028,0.00082,3,11
13467,0.00013,-0.00011,1e-05,0,0.00017,-0.00031,0.00028,0.00082,3,11
13468,0.00013,-0.00011,1e-05,0,0.00017,-0.00031,0.00028,0.00082,3,11
13469,0.00013,-0.00011,1e-05,0,0.00017,-0.00031,0.00028,0.00082,3,11
13470,0.00013,-0.00011,1e-05,0,0.00017,-0.00031,0.00028,0.00082,3,11
13471,0.00013,-0.00011,1e-05,0,0.00017,-0.00031,0.00028,0.00082,3,11
13472,0.00013,-0.00011,1e-05,0,0.00017,-0.00031,0.00028,0.00082,3,11
13473,0.00013,-0.00011,1e-05,0,0.00017,-0.00031,0.00028,0.00082,3,11
13474,0.00013,-0.00011,1e-05,0,0.00017,-0.00031,0.00028,0.00082,3,11
13475,0.00013,-0.00011,1e-05,0,0.00017,-0.00031,0.00028,0.00082,3,11
13476,0.00013,-0.00011,1e-05,0,0.00017,-0.00031,0.00028,0.00082,3,11
13477,0.00013,-0.00011,1e-05,0,0.00017,-0.00031,0.00028,0.00082,3,11
13478,3e-05,-0.00068,-0.00012,-5e-05,-0.00017,-0.00042,7e-05,-0.00022,3,11
13479,0.00017,-0.00032,-3e-05,4e-05,0.0005,0.00014,-6e-05,4e-05,3,11
13480,0.00017,-0.00032,-3e-05,4e-05,0.0005,0.00014,-6e-05,4e-05,3,11
13481,0.00017,-0.00032,-3e-05,4e-05,0.0005,0.00014,-6e-05,4e-05,3,11
13482,0.00017,-0.00032,-3e-05,4e-05,0.0005,0.00014,-6e-05,4e-05,3,11
13483,0.00017,-0.00032,-3e-05,4e-05,0.0005,0.00014,-6e-05,4e-05,3,11
13484,0.00017,-0.00032,-3e-05,4e-05,0.0005,0.00014,-6e-05,4e-05,3,11
13485,0.00017,-0.00032,-3e-05,4e-05,0.0005,0.00014,-6e-05,4e-05,3,11
13486,0.00017,-0.00032,-3e-05,4e-05,0.0005,0.00014,-6e-05,4e-05,3,11
13488,0.00017,-0.00032,-3e-05,4e-05,0.0005,0.00014,-6e-05,4e-05,3,11
13489,0.00017,-0.00032,-3e-05,4e-05,0.0005,0.00014,-6e-05,4e-05,3,11
13490,0.00017,-0.00032,-3e-05,4e-05,0.0005,0.00014,-6e-05,4e-05,3,11
13492,0.00017,-0.00032,-3e-05,4e-05,0.0005,0.00014,-6e-05,4e-05,3,11
13493,0.00017,-0.00032,-3e-05,4e-05,0.0005,0.00014,-6e-05,4e-05,3,11
13494,0.00017,-0.00032,-3e-05,4e-05,0.0005,0.00014,-6e-05,4e-05,3,11
13495,0.00017,-0.00032,-3e-05,4e-05,0.0005,0.00014,-6e-05,4e-05,3,11
13496,0.00017,-0.00032,-3e-05,4e-05,0.0005,0.00014,-6e-05,4e-05,3,11
13497,0.00017,-0.00032,-3e-05,4e-05,0.0005,0.00014,-6e-05,4e-05,3,11
13498,0.00017,-0.00032,-3e-05,4e-05,0.0005,0.00014,-6e-05,4e-05,3,11
13499,0.00017,-0.00032,-3e-05,4e-05,0.0005,0.00014,-6e-05,4e-05,3,11
13500,-1e-05,0.00031,6e-05,4e-05,5e-05,-0.00012,-1e-05,1e-05,3,11
13501,-1e-05,0.00031,6e-05,4e-05,5e-05,-0.00012,-1e-05,1e-05,3,11
13502,-0.00043,-0.00023,0,-1e-05,-0.00026,0.00047,-0.00031,-0.00026,3,11
13503,-0.00043,-0.00023,0,-1e-05,-0.00026,0.00047,-0.00031,-0.00026,3,11
13504,-0.00043,-0.00023,0,-1e-05,-0.00026,0.00047,-0.00031,-0.00026,3,11
13505,-0.00043,-0.00023,0,-1e-05,-0.00026,0.00047,-0.00031,-0.00026,3,11
13506,-0.00043,-0.00023,0,-1e-05,-0.00026,0.00047,-0.00031,-0.00026,3,11
13507,-0.00043,-0.00023,0,-1e-05,-0.00026,0.00047,-0.00031,-0.00026,3,11
13508,-0.00043,-0.00023,0,-1e-05,-0.00026,0.00047,-0.00031,-0.00026,3,11
13509,-0.00043,-0.00023,0,-1e-05,-0.00026,0.00047,-0.00031,-0.00026,3,11
13510,-0.00043,-0.00023,0,-1e-05,-0.00026,0.00047,-0.00031,-0.00026,3,11
13511,-0.00043,-0.00023,0,-1e-05,-0.00026,0.00047,-0.00031,-0.00026,3,11
13512,-0.00043,-0.00023,0,-1e-05,-0.00026,0.00047,-0.00031,-0.00026,3,11
13513,-0.00043,-0.00023,0,-1e-05,-0.00026,0.00047,-0.00031,-0.00026,3,11
13514,-0.00043,-0.00023,0,-1e-05,-0.00026,0.00047,-0.00031,-0.00026,3,11
13515,7e-05,-3e-05,-0.00011,-8e-05,-0.00016,0.0005,-0.00011,0.00039,3,11
13516,-0.00011,-5e-05,-1e-05,5e-05,8e-05,0.00048,0.00014,-0.00042,3,11
13517,-0.00016,0.00022,-7e-05,0,0.00016,-7e-05,-9e-05,-0.00025,3,11
13518,-0.00016,0.00022,-7e-05,0,0.00016,-7e-05,-9e-05,-0.00025,3,11
13519,-0.00016,0.00022,-7e-05,0,0.00016,-7e-05,-9e-05,-0.00025,3,11
13520,-0.00016,0.00022,-7e-05,0,0.00016,-7e-05,-9e-05,-0.00025,3,11
13521,-0.00016,0.00022,-7e-05,0,0.00016,-7e-05,-9e-05,-0.00025,3,11
13522,-0.00016,0.00022,-7e-05,0,0.00016,-7e-05,-9e-05,-0.00025,3,11
13523,-0.00016,0.00022,-7e-05,0,0.00016,-7e-05,-9e-05,-0.00025,3,11
13524,-0.00016,0.00022,-7e-05,0,0.00016,-7e-05,-9e-05,-0.00025,3,11
13525,-0.00016,0.00022,-7e-05,0,0.00016,-7e-05,-9e-05,-0.00025,3,11
13526,-0.00016,0.00022,-7e-05,0,0.00016,-7e-05,-9e-05,-0.00025,3,11
13527,-0.00016,0.00022,-7e-05,0,0.00016,-7e-05,-9e-05,-0.00025,3,11
13528,-0.00016,0.00022,-7e-05,0,0.00016,-7e-05,-9e-05,-0.00025,3,11
13529,-0.00016,0.00022,-7e-05,0,0.00016,-7e-05,-9e-05,-0.00025,3,11
13530,-0.00016,0.00022,-7e-05,0,0.00016,-7e-05,-9e-05,-0.00025,3,11
13531,-0.00016,0.00022,-7e-05,0,0.00016,-7e-05,-9e-05,-0.00025,3,11
13532,-0.00016,0.00022,-7e-05,0,0.00016,-7e-05,-9e-05,-0.00025,3,11
13533,-0.00016,0.00022,-7e-05,0,0.00016,-7e-05,-9e-05,-0.00025,3,11
13534,-0.00016,0.00022,-7e-05,0,0.00016,-7e-05,-9e-05,-0.00025,3,11
13535,-0.00016,0.00022,-7e-05,0,0.00016,-7e-05,-9e-05,-0.00025,3,11
13536,-0.00016,0.00022,-7e-05,0,0.00016,-7e-05,-9e-05,-0.00025,3,11
13539,-7e-05,8e-05,-1e-05,-2e-05,0.00014,0.0002,6e-05,0.00073,3,11
13540,7e-05,-0.0002,-3e-05,-2e-05,-0.00012,0.00012,5e-05,-2e-05,3,11
13541,7e-05,-0.0002,-3e-05,-2e-05,-0.00012,0.00012,5e-05,-2e-05,3,11
13542,7e-05,-0.0002,-3e-05,-2e-05,-0.00012,0.00012,5e-05,-2e-05,3,11
13543,7e-05,-0.0002,-3e-05,-2e-05,-0.00012,0.00012,5e-05,-2e-05,3,11
13544,7e-05,-0.0002,-3e-05,-2e-05,-0.00012,0.00012,5e-05,-2e-05,3,11
13545,7e-05,-0.0002,-3e-05,-2e-05,-0.00012,0.00012,5e-05,-2e-05,3,11
13546,7e-05,-0.0002,-3e-05,-2e-05,-0.00012,0.00012,5e-05,-2e-05,3,11
13547,7e-05,-0.0002,-3e-05,-2e-05,-0.00012,0.00012,5e-05,-2e-05,3,11
13548,7e-05,-0.0002,-3e-05,-2e-05,-0.00012,0.00012,5e-05,-2e-05,3,11
13549,7e-05,-0.0002,-3e-05,-2e-05,-0.00012,0.00012,5e-05,-2e-05,3,11
13550,7e-05,-0.0002,-3e-05,-2e-05,-0.00012,0.00012,5e-05,-2e-05,3,11
13551,7e-05,-0.0002,-3e-05,-2e-05,-0.00012,0.00012,5e-05,-2e-05,3,11
13552,7e-05,-0.0002,-3e-05,-2e-05,-0.00012,0.00012,5e-05,-2e-05,3,11
13553,7e-05,-0.0002,-3e-05,-2e-05,-0.00012,0.00012,5e-05,-2e-05,3,11
13554,7e-05,-0.0002,-3e-05,-2e-05,-0.00012,0.00012,5e-05,-2e-05,3,11
13555,7e-05,-0.0002,-3e-05,-2e-05,-0.00012,0.00012,5e-05,-2e-05,3,11
13556,7e-05,-0.0002,-3e-05,-2e-05,-0.00012,0.00012,5e-05,-2e-05,3,11
13557,7e-05,-0.0002,-3e-05,-2e-05,-0.00012,0.00012,5e-05,-2e-05,3,11
13558,7e-05,-0.0002,-3e-05,-2e-05,-0.00012,0.00012,5e-05,-2e-05,3,11
13559,7e-05,-0.0002,-3e-05,-2e-05,-0.00012,0.00012,5e-05,-2e-05,3,11
13560,0.00027,0.00058,9e-05,-2e-05,0.00026,0.00039,-5e-05,-0.00011,3,11
13561,0.00027,0.00058,9e-05,-2e-05,0.00026,0.00039,-5e-05,-0.00011,3,11
13562,5e-05,-0.00029,-3e-05,4e-05,0,0.00011,2e-05,-0.00052,3,11
13563,5e-05,-0.00029,-3e-05,4e-05,0,0.00011,2e-05,-0.00052,3,11
13564,5e-05,-0.00029,-3e-05,4e-05,0,0.00011,2e-05,-0.00052,3,11
13565,5e-05,-0.00029,-3e-05,4e-05,0,0.00011,2e-05,-0.00052,3,11
13566,5e-05,-0.00029,-3e-05,4e-05,0,0.00011,2e-05,-0.00052,3,11
13567,5e-05,-0.00029,-3e-05,4e-05,0,0.00011,2e-05,-0.00052,3,11
13568,5e-05,-0.00029,-3e-05,4e-05,0,0.00011,2e-05,-0.00052,3,11
13569,5e-05,-0.00029,-3e-05,4e-05,0,0.00011,2e-05,-0.00052,3,11
13570,5e-05,-0.00029,-3e-05,4e-05,0,0.00011,2e-05,-0.00052,3,11
13571,5e-05,-0.00029,-3e-05,4e-05,0,0.00011,2e-05,-0.00052,3,11
13572,5e-05,-0.00029,-3e-05,4e-05,0,0.00011,2e-05,-0.00052,3,11
13573,5e-05,-0.00029,-3e-05,4e-05,0,0.00011,2e-05,-0.00052,3,11
13574,5e-05,-0.00029,-3e-05,4e-05,0,0.00011,2e-05,-0.00052,3,11
13575,5e-05,-0.00029,-3e-05,4e-05,0,0.00011,2e-05,-0.00052,3,11
13576,5e-05,-0.00029,-3e-05,4e-05,0,0.00011,2e-05,-0.00052,3,11
13577,5e-05,-0.00029,-3e-05,4e-05,0,0.00011,2e-05,-0.00052,3,11
13578,5e-05,-0.00029,-3e-05,4e-05,0,0.00011,2e-05,-0.00052,3,11
13579,5e-05,-0.00029,-3e-05,4e-05,0,0.00011,2e-05,-0.00052,3,11
13580,5e-05,-0.00029,-3e-05,4e-05,0,0.00011,2e-05,-0.00052,3,11
13581,5e-05,-0.00029,-3e-05,4e-05,0,0.00011,2e-05,-0.00052,3,11
13582,5e-05,-0.00029,-3e-05,4e-05,0,0.00011,2e-05,-0.00052,3,11
13583,-6e-05,-0.0002,7e-05,8e-05,0.00043,0.00081,-5e-05,0.00044,3,11
13584,3e-05,-0.00044,-0.0001,-2e-05,-0.00042,0.00022,0.00026,2e-05,3,11
13585,3e-05,-0.00044,-0.0001,-2e-05,-0.00042,0.00022,0.00026,2e-05,3,11
13586,3e-05,-0.00044,-0.0001,-2e-05,-0.00042,0.00022,0.00026,2e-05,3,11
13588,3e-05,-0.00044,-0.0001,-2e-05,-0.00042,0.00022,0.00026,2e-05,3,11
13589,3e-05,-0.00044,-0.0001,-2e-05,-0.00042,0.00022,0.00026,2e-05,3,11
13590,3e-05,-0.00044,-0.0001,-2e-05,-0.00042,0.00022,0.00026,2e-05,3,11
13591,3e-05,-0.00044,-0.0001,-2e-05,-0.00042,0.00022,0.00026,2e-05,3,11
13592,3e-05,-0.00044,-0.0001,-2e-05,-0.00042,0.00022,0.00026,2e-05,3,11
13593,3e-05,-0.00044,-0.0001,-2e-05,-0.00042,0.00022,0.00026,2e-05,3,11
13594,3e-05,-0.00044,-0.0001,-2e-05,-0.00042,0.00022,0.00026,2e-05,3,11
13595,3e-05,-0.00044,-0.0001,-2e-05,-0.00042,0.00022,0.00026,2e-05,3,11
