13254,0.00073,1e-05,-2e-05,-0.00019,0.00023,0.00019,0.00026,0.00107,3,13
13255,0.00073,1e-05,-2e-05,-0.00019,0.00023,0.00019,0.00026,0.00107,3,13
13256,0.00073,1e-05,-2e-05,-0.00019,0.00023,0.00019,0.00026,0.00107,3,13
13257,0.00073,1e-05,-2e-05,-0.00019,0.00023,0.00019,0.00026,0.00107,3,13
13258,0.00073,1e-05,-2e-05,-0.00019,0.00023,0.00019,0.00026,0.00107,3,13
13259,0.00073,1e-05,-2e-05,-0.00019,0.00023,0.00019,0.00026,0.00107,3,13
13260,0.00073,1e-05,-2e-05,-0.00019,0.00023,0.00019,0.00026,0.00107,3,13
13261,6e-05,-2e-05,-7e-05,-7e-05,-0.00011,-5e-05,-6e-05,-0.00011,3,13
13262,-0.00016,-0.0001,4e-05,6e-05,-1e-05,3e-05,0.00014,-0.00026,3,13
13263,-0.00016,-0.0001,4e-05,6e-05,-1e-05,3e-05,0.00014,-0.00026,3,13
13264,-0.00016,-0.0001,4e-05,6e-05,-1e-05,3e-05,0.00014,-0.00026,3,13
13265,-0.00016,-0.0001,4e-05,6e-05,-1e-05,3e-05,0.00014,-0.00026,3,13
13266,-0.00016,-0.0001,4e-05,6e-05,-1e-05,3e-05,0.00014,-0.00026,3,13
13267,-0.00016,-0.0001,4e-05,6e-05,-1e-05,3e-05,0.00014,-0.00026,3,13
13268,-0.00016,-0.0001,4e-05,6e-05,-1e-05,3e-05,0.00014,-0.00026,3,13
13269,-0.00016,-0.0001,4e-05,6e-05,-1e-05,3e-05,0.00014,-0.00026,3,13
13270,-0.00016,-0.0001,4e-05,6e-05,-1e-05,3e-05,0.00014,-0.00026,3,13
13271,-0.00016,-0.0001,4e-05,6e-05,-1e-05,3e-05,0.00014,-0.00026,3,13
13272,-0.00016,-0.0001,4e-05,6e-05,-1e-05,3e-05,0.00014,-0.00026,3,13
13273,-0.00016,-0.0001,4e-05,6e-05,-1e-05,3e-05,0.00014,-0.00026,3,13
13274,-0.00016,-0.0001,4e-05,6e-05,-1e-05,3e-05,0.00014,-0.00026,3,13
13275,-0.00016,-0.0001,4e-05,6e-05,-1e-05,3e-05,0.00014,-0.00026,3,13
13276,-0.00016,-0.0001,4e-05,6e-05,-1e-05,3e-05,0.00014,-0.00026,3,13
13277,-0.00016,-0.0001,4e-05,6e-05,-1e-05,3e-05,0.00014,-0.00026,3,13
13278,-0.00016,-0.0001,4e-05,6e-05,-1e-05,3e-05,0.00014,-0.00026,3,13
13279,-0.00016,-0.0001,4e-05,6e-05,-1e-05,3e-05,0.00014,-0.00026,3,13
13280,-0.00016,-0.0001,4e-05,6e-05,-1e-05,3e-05,0.00014,-0.00026,3,13
13281,-0.00016,-0.0001,4e-05,6e-05,-1e-05,3e-05,0.00014,-0.00026,3,13
13282,-0.00016,-0.0001,4e-05,6e-05,-1e-05,3e-05,0.00014,-0.00026,3,13
13283,-0.00016,-0.0001,4e-05,6e-05,-1e-05,3e-05,0.00014,-0.00026,3,13
13284,-0.00016,-0.0001,4e-05,6e-05,-1e-05,3e-05,0.00014,-0.00026,3,13
13285,-0.00016,-0.0001,4e-05,6e-05,-1e-05,3e-05,0.00014,-0.00026,3,13
13286,-0.00016,-0.0001,4e-05,6e-05,-1e-05,3e-05,0.00014,-0.00026,3,13
13288,-0.00016,-0.0001,4e-05,6e-05,-1e-05,3e-05,0.00014,-0.00026,3,13
13290,-0.00016,-0.0001,4e-05,6e-05,-1e-05,3e-05,0.00014,-0.00026,3,13
13291,0.00031,-0.0001,-0.00014,-0.00021,-0.00045,3e-05,0.0001,7e-05,3,13
13292,0.00033,7e-05,3e-05,0.0002,0.0005,0.0002,-0.0001,3e-05,3,13
13293,0.00033,7e-05,3e-05,0.0002,0.0005,0.0002,-0.0001,3e-05,3,13
13294,0.00033,7e-05,3e-05,0.0002,0.0005,0.0002,-0.0001,3e-05,3,13
13295,0.00033,7e-05,3e-05,0.0002,0.0005,0.0002,-0.0001,3e-05,3,13
13296,0.00033,7e-05,3e-05,0.0002,0.0005,0.0002,-0.0001,3e-05,3,13
13297,0.00033,7e-05,3e-05,0.0002,0.0005,0.0002,-0.0001,3e-05,3,13
13298,0.00033,7e-05,3e-05,0.0002,0.0005,0.0002,-0.0001,3e-05,3,13
13299,0.00033,7e-05,3e-05,0.0002,0.0005,0.0002,-0.0001,3e-05,3,13
13300,0.00033,7e-05,3e-05,0.0002,0.0005,0.0002,-0.0001,3e-05,3,13
13301,0.00033,7e-05,3e-05,0.0002,0.0005,0.0002,-0.0001,3e-05,3,13
13302,0.00033,7e-05,3e-05,0.0002,0.0005,0.0002,-0.0001,3e-05,3,13
13303,0.00033,7e-05,3e-05,0.0002,0.0005,0.0002,-0.0001,3e-05,3,13
13304,0.00033,7e-05,3e-05,0.0002,0.0005,0.0002,-0.0001,3e-05,3,13
13305,0.00033,7e-05,3e-05,0.0002,0.0005,0.0002,-0.0001,3e-05,3,13
13306,4e-05,3e-05,0,-7e-05,-0.00029,-0.00036,-9e-05,6e-05,3,13
13307,-0.00021,6e-05,9e-05,0.0002,0.00039,0.00011,0.00026,-4e-05,3,13
13308,-0.00021,6e-05,9e-05,0.0002,0.00039,0.00011,0.00026,-4e-05,3,13
13309,-0.00021,6e-05,9e-05,0.0002,0.00039,0.00011,0.00026,-4e-05,3,13
13310,-0.00021,6e-05,9e-05,0.0002,0.00039,0.00011,0.00026,-4e-05,3,13
13311,-0.00021,6e-05,9e-05,0.0002,0.00039,0.00011,0.00026,-4e-05,3,13
13312,-0.00021,6e-05,9e-05,0.0002,0.00039,0.00011,0.00026,-4e-05,3,13
13313,-0.00021,6e-05,9e-05,0.0002,0.00039,0.00011,0.00026,-4e-05,3,13
13314,-0.00021,6e-05,9e-05,0.0002,0.00039,0.00011,0.00026,-4e-05,3,13
13315,-0.00021,6e-05,9e-05,0.0002,0.00039,0.00011,0.00026,-4e-05,3,13
13316,-0.00021,6e-05,9e-05,0.0002,0.00039,0.00011,0.00026,-4e-05,3,13
13317,-0.00021,6e-05,9e-05,0.0002,0.00039,0.00011,0.00026,-4e-05,3,13
13318,-0.00021,6e-05,9e-05,0.0002,0.00039,0.00011,0.00026,-4e-05,3,13
13319,-0.00021,6e-05,9e-05,0.0002,0.00039,0.00011,0.00026,-4e-05,3,13
13320,-0.00021,6e-05,9e-05,0.0002,0.00039,0.00011,0.00026,-4e-05,3,13
13321,-0.00038,0,-3e-05,-0.00016,-0.00032,-0.00025,6e-05,-0.00023,3,13
13322,-0.00038,0,-3e-05,-0.00016,-0.00032,-0.00025,6e-05,-0.00023,3,13
13323,-0.00038,0,-3e-05,-0.00016,-0.00032,-0.00025,6e-05,-0.00023,3,13
13324,-0.00038,0,-3e-05,-0.00016,-0.00032,-0.00025,6e-05,-0.00023,3,13
13325,-0.00038,0,-3e-05,-0.00016,-0.00032,-0.00025,6e-05,-0.00023,3,13
13326,-0.00038,0,-3e-05,-0.00016,-0.00032,-0.00025,6e-05,-0.00023,3,13
13327,-0.00038,0,-3e-05,-0.00016,-0.00032,-0.00025,6e-05,-0.00023,3,13
13329,-0.00038,0,-3e-05,-0.00016,-0.00032,-0.00025,6e-05,-0.00023,3,13
13330,-0.00038,0,-3e-05,-0.00016,-0.00032,-0.00025,6e-05,-0.00023,3,13
13331,-0.00038,0,-3e-05,-0.00016,-0.00032,-0.00025,6e-05,-0.00023,3,13
13332,-0.00038,0,-3e-05,-0.00016,-0.00032,-0.00025,6e-05,-0.00023,3,13
13333,-0.00038,0,-3e-05,-0.00016,-0.00032,-0.00025,6e-05,-0.00023,3,13
13334,-0.00038,0,-3e-05,-0.00016,-0.00032,-0.00025,6e-05,-0.00023,3,13
13335,-0.00038,0,-3e-05,-0.00016,-0.00032,-0.00025,6e-05,-0.00023,3,13
13336,-0.00038,0,-3e-05,-0.00016,-0.00032,-0.00025,6e-05,-0.00023,3,13
13338,-0.00038,0,-3e-05,-0.00016,-0.00032,-0.00025,6e-05,-0.00023,3,13
13339,-0.00038,0,-3e-05,-0.00016,-0.00032,-0.00025,6e-05,-0.00023,3,13
13340,-0.00038,0,-3e-05,-0.00016,-0.00032,-0.00025,6e-05,-0.00023,3,13
13341,-0.00038,0,-3e-05,-0.00016,-0.00032,-0.00025,6e-05,-0.00023,3,13
13342,-0.00038,0,-3e-05,-0.00016,-0.00032,-0.00025,6e-05,-0.00023,3,13
13343,-0.00038,0,-3e-05,-0.00016,-0.00032,-0.00025,6e-05,-0.00023,3,13
13344,0.00035,3e-05,3e-05,-0.0001,7e-05,1e-05,-6e-05,0.00033,3,13
13345,0.00035,3e-05,3e-05,-0.0001,7e-05,1e-05,-6e-05,0.00033,3,13
13346,0.00035,3e-05,3e-05,-0.0001,7e-05,1e-05,-6e-05,0.00033,3,13
13347,0.00035,3e-05,3e-05,-0.0001,7e-05,1e-05,-6e-05,0.00033,3,13
13348,0.00035,3e-05,3e-05,-0.0001,7e-05,1e-05,-6e-05,0.00033,3,13
13349,0.00035,3e-05,3e-05,-0.0001,7e-05,1e-05,-6e-05,0.00033,3,13
13350,0.00035,3e-05,3e-05,-0.0001,7e-05,1e-05,-6e-05,0.00033,3,13
13351,0.00035,3e-05,3e-05,-0.0001,7e-05,1e-05,-6e-05,0.00033,3,13
13352,0.00035,3e-05,3e-05,-0.0001,7e-05,1e-05,-6e-05,0.00033,3,13
13353,0.00035,3e-05,3e-05,-0.0001,7e-05,1e-05,-6e-05,0.00033,3,13
13354,0.00035,3e-05,3e-05,-0.0001,7e-05,1e-05,-6e-05,0.00033,3,13
13355,0.00035,3e-05,3e-05,-0.0001,7e-05,1e-05,-6e-05,0.00033,3,13
13356,0.00035,3e-05,3e-05,-0.0001,7e-05,1e-05,-6e-05,0.00033,3,13
13357,0.00035,3e-05,3e-05,-0.0001,7e-05,1e-05,-6e-05,0.00033,3,13
13358,0.00035,3e-05,3e-05,-0.0001,7e-05,1e-05,-6e-05,0.00033,3,13
13359,0.00035,3e-05,3e-05,-0.0001,7e-05,1e-05,-6e-05,0.00033,3,13
13360,0.00035,3e-05,3e-05,-0.0001,7e-05,1e-05,-6e-05,0.00033,3,13
13361,0.00035,3e-05,3e-05,-0.0001,7e-05,1e-05,-6e-05,0.00033,3,13
13362,0.00035,3e-05,3e-05,-0.0001,7e-05,1e-05,-6e-05,0.00033,3,13
13363,0.00035,3e-05,3e-05,-0.0001,7e-05,1e-05,-6e-05,0.00033,3,13
13364,0.00035,3e-05,3e-05,-0.0001,7e-05,1e-05,-6e-05,0.00033,3,13
13365,0.00035,3e-05,3e-05,-0.0001,7e-05,1e-05,-6e-05,0.00033,3,13
13366,0.00013,-1e-05,-2e-05,4e-05,-0.00038,-0.00023,0.0002,-0.00011,3,13
13367,-0.0003,7e-05,4e-05,0.00025,0.00094,0.00044,3e-05,-0.00024,3,13
13368,-0.0003,7e-05,4e-05,0.00025,0.00094,0.00044,3e-05,-0.00024,3,13
13369,-0.0003,7e-05,4e-05,0.00025,0.00094,0.00044,3e-05,-0.00024,3,13
13370,-0.0003,7e-05,4e-05,0.00025,0.00094,0.00044,3e-05,-0.00024,3,13
13371,-0.0003,7e-05,4e-05,0.00025,0.00094,0.00044,3e-05,-0.00024,3,13
13372,-0.0003,7e-05,4e-05,0.00025,0.00094,0.00044,3e-05,-0.00024,3,13
13373,-0.0003,7e-05,4e-05,0.00025,0.00094,0.00044,3e-05,-0.00024,3,13
13374,-0.0003,7e-05,4e-05,0.00025,0.00094,0.00044,3e-05,-0.00024,3,13
13375,-0.0003,7e-05,4e-05,0.00025,0.00094,0.00044,3e-05,-0.00024,3,13
13376,-0.0003,7e-05,4e-05,0.00025,0.00094,0.00044,3e-05,-0.00024,3,13
13377,-0.0003,7e-05,4e-05,0.00025,0.00094,0.00044,3e-05,-0.00024,3,13
13378,-0.0003,7e-05,4e-05,0.00025,0.00094,0.00044,3e-05,-0.00024,3,13
13379,-0.0003,7e-05,4e-05,0.00025,0.00094,0.00044,3e-05,-0.00024,3,13
13380,0.0008,5e-05,3e-05,-0.00017,-0.00035,3e-05,-5e-05,0.00034,3,13
13381,0.00028,3e-05,-1e-05,-0.00017,-8e-05,1e-05,2e-05,-3e-05,3,13
13382,0.00028,3e-05,-1e-05,-0.00017,-8e-05,1e-05,2e-05,-3e-05,3,13
13383,0.00028,3e-05,-1e-05,-0.00017,-8e-05,1e-05,2e-05,-3e-05,3,13
13384,0.00028,3e-05,-1e-05,-0.00017,-8e-05,1e-05,2e-05,-3e-05,3,13
13385,0.00028,3e-05,-1e-05,-0.00017,-8e-05,1e-05,2e-05,-3e-05,3,13
13386,0.00028,3e-05,-1e-05,-0.00017,-8e-05,1e-05,2e-05,-3e-05,3,13
13389,0.00028,3e-05,-1e-05,-0.00017,-8e-05,1e-05,2e-05,-3e-05,3,13
13390,0.00028,3e-05,-1e-05,-0.00017,-8e-05,1e-05,2e-05,-3e-05,3,13
13391,0.00028,3e-05,-1e-05,-0.00017,-8e-05,1e-05,2e-05,-3e-05,3,13
13392,0.00028,3e-05,-1e-05,-0.00017,-8e-05,1e-05,2e-05,-3e-05,3,13
13393,0.00028,3e-05,-1e-05,-0.00017,-8e-05,1e-05,2e-05,-3e-05,3,13
13394,0.00028,3e-05,-1e-05,-0.00017,-8e-05,1e-05,2e-05,-3e-05,3,13
13395,0.00028,3e-05,-1e-05,-0.00017,-8e-05,1e-05,2e-05,-3e-05,3,13
13396,0.00028,3e-05,-1e-05,-0.00017,-8e-05,1e-05,2e-05,-3e-05,3,13
13397,0.00028,3e-05,-1e-05,-0.00017,-8e-05,1e-05,2e-05,-3e-05,3,13
13398,0.00028,3e-05,-1e-05,-0.00017,-8e-05,1e-05,2e-05,-3e-05,3,13
13399,0.00028,3e-05,-1e-05,-0.00017,-8e-05,1e-05,2e-05,-3e-05,3,13
13400,0.00028,3e-05,-1e-05,-0.00017,-8e-05,1e-05,2e-05,-3e-05,3,13
13401,0.00028,3e-05,-1e-05,-0.00017,-8e-05,1e-05,2e-05,-3e-05,3,13
13402,0.00028,3e-05,-1e-05,-0.00017,-8e-05,1e-05,2e-05,-3e-05,3,13
13403,0.00028,3e-05,-1e-05,-0.00017,-8e-05,1e-05,2e-05,-3e-05,3,13
13404,0.00044,5e-05,-3e-05,-0.00037,-0.00058,7e-05,-0.00019,0.00013,3,13
13405,0.00044,5e-05,-3e-05,-0.00037,-0.00058,7e-05,-0.00019,0.00013,3,13
13407,0.00044,5e-05,-3e-05,-0.00037,-0.00058,7e-05,-0.00019,0.00013,3,13
13408,0.00044,5e-05,-3e-05,-0.00037,-0.00058,7e-05,-0.00019,0.00013,3,13
13409,0.00044,5e-05,-3e-05,-0.00037,-0.00058,7e-05,-0.00019,0.00013,3,13
13410,0.00044,5e-05,-3e-05,-0.00037,-0.00058,7e-05,-0.00019,0.00013,3,13
13411,0.00044,5e-05,-3e-05,-0.00037,-0.00058,7e-05,-0.00019,0.00013,3,13
13412,0.00044,5e-05,-3e-05,-0.00037,-0.00058,7e-05,-0.00019,0.00013,3,13
13413,0.00044,5e-05,-3e-05,-0.00037,-0.00058,7e-05,-0.00019,0.00013,3,13
13414,0.00044,5e-05,-3e-05,-0.00037,-0.00058,7e-05,-0.00019,0.00013,3,13
13415,0.00044,5e-05,-3e-05,-0.00037,-0.00058,7e-05,-0.00019,0.00013,3,13
13416,0.00044,5e-05,-3e-05,-0.00037,-0.00058,7e-05,-0.00019,0.00013,3,13
13417,0.00044,5e-05,-3e-05,-0.00037,-0.00058,7e-05,-0.00019,0.00013,3,13
13418,0.00044,5e-05,-3e-05,-0.00037,-0.00058,7e-05,-0.00019,0.00013,3,13
13419,0.00044,5e-05,-3e-05,-0.00037,-0.00058,7e-05,-0.00019,0.00013,3,13
13420,0.00044,5e-05,-3e-05,-0.00037,-0.00058,7e-05,-0.00019,0.00013,3,13
13421,0.00044,5e-05,-3e-05,-0.00037,-0.00058,7e-05,-0.00019,0.00013,3,13
13422,0.00044,5e-05,-3e-05,-0.00037,-0.00058,7e-05,-0.00019,0.00013,3,13
13423,0.00044,5e-05,-3e-05,-0.00037,-0.00058,7e-05,-0.00019,0.00013,3,13
13424,0.00044,5e-05,-3e-05,-0.00037,-0.00058,7e-05,-0.00019,0.00013,3,13
13425,0.00044,5e-05,-3e-05,-0.00037,-0.00058,7e-05,-0.00019,0.00013,3,13
13426,-0.00015,5e-05,9e-05,9e-05,-1e-05,0.00015,4e-05,0,3,13
13427,-0.00021,-0.00011,-7e-05,-0.00012,-0.0004,-6e-05,-0.00011,-0.00032,3,13
13428,-0.00021,-0.00011,-7e-05,-0.00012,-0.0004,-6e-05,-0.00011,-0.00032,3,13
13429,-0.00021,-0.00011,-7e-05,-0.00012,-0.0004,-6e-05,-0.00011,-0.00032,3,13
13430,-0.00021,-0.00011,-7e-05,-0.00012,-0.0004,-6e-05,-0.00011,-0.00032,3,13
13431,-0.00021,-0.00011,-7e-05,-0.00012,-0.0004,-6e-05,-0.00011,-0.00032,3,13
13432,-0.00021,-0.00011,-7e-05,-0.00012,-0.0004,-6e-05,-0.00011,-0.00032,3,13
13433,-0.00021,-0.00011,-7e-05,-0.00012,-0.0004,-6e-05,-0.00011,-0.00032,3,13
13434,-0.00021,-0.00011,-7e-05,-0.00012,-0.0004,-6e-05,-0.00011,-0.00032,3,13
13435,-0.00021,-0.00011,-7e-05,-0.00012,-0.0004,-6e-05,-0.00011,-0.00032,3,13
13436,-0.00021,-0.00011,-7e-05,-0.00012,-0.0004,-6e-05,-0.00011,-0.00032,3,13
13438,-0.00021,-0.00011,-7e-05,-0.00012,-0.0004,-6e-05,-0.00011,-0.00032,3,13
13439,-0.00021,-0.00011,-7e-05,-0.00012,-0.0004,-6e-05,-0.00011,-0.00032,3,13
13440,-0.00074,-0.00015,0,0.00014,0.00036,-8e-05,8e-05,-0.00045,3,13
13441,-0.00074,-0.00015,0,0.00014,0.00036,-8e-05,8e-05,-0.00045,3,13
13442,-0.00074,-0.00015,0,0.00014,0.00036,-8e-05,8e-05,-0.00045,3,13
13443,-0.00074,-0.00015,0,0.00014,0.00036,-8e-05,8e-05,-0.00045,3,13
13444,-0.00074,-0.00015,0,0.00014,0.00036,-8e-05,8e-05,-0.00045,3,13
13445,-0.00074,-0.00015,0,0.00014,0.00036,-8e-05,8e-05,-0.00045,3,13
13446,-0.00074,-0.00015,0,0.00014,0.00036,-8e-05,8e-05,-0.00045,3,13
13447,-0.00074,-0.00015,0,0.00014,0.00036,-8e-05,8e-05,-0.00045,3,13
13448,-0.00116,-0.00017,-6e-05,0.00012,5e-05,-0.00013,-0.00025,-0.00117,3,13
13449,-0.00116,-0.00017,-6e-05,0.00012,5e-05,-0.00013,-0.00025,-0.00117,3,13
13450,-0.00116,-0.00017,-6e-05,0.00012,5e-05,-0.00013,-0.00025,-0.00117,3,13
13451,-0.00116,-0.00017,-6e-05,0.00012,5e-05,-0.00013,-0.00025,-0.00117,3,13
13452,-0.00116,-0.00017,-6e-05,0.00012,5e-05,-0.00013,-0.00025,-0.00117,3,13
13453,-0.00116,-0.00017,-6e-05,0.00012,5e-05,-0.00013,-0.00025,-0.00117,3,13
13454,-0.00116,-0.00017,-6e-05,0.00012,5e-05,-0.00013,-0.00025,-0.00117,3,13
13455,-0.00116,-0.00017,-6e-05,0.00012,5e-05,-0.00013,-0.00025,-0.00117,3,13
13456,-0.00116,-0.00017,-6e-05,0.00012,5e-05,-0.00013,-0.00025,-0.00117,3,13
13457,-0.00116,-0.00017,-6e-05,0.00012,5e-05,-0.00013,-0.00025,-0.00117,3,13
13458,-0.00116,-0.00017,-6e-05,0.00012,5e-05,-0.00013,-0.00025,-0.00117,3,13
13459,-0.00116,-0.00017,-6e-05,0.00012,5e-05,-0.00013,-0.00025,-0.00117,3,13
13460,-0.00116,-0.00017,-6e-05,0.00012,5e-05,-0.00013,-0.00025,-0.00117,3,13
13461,-0.00116,-0.00017,-6e-05,0.00012,5e-05,-0.00013,-0.00025,-0.00117,3,13
13462,-0.00116,-0.00017,-6e-05,0.00012,5e-05,-0.00013,-0.00025,-0.00117,3,13
13463,-0.00116,-0.00017,-6e-05,0.00012,5e-05,-0.00013,-0.00025,-0.00117,3,13
13464,-0.00031,-2e-05,1e-05,0.00017,0.00016,-0.00015,5e-05,4e-05,3,13
13465,-0.00031,-2e-05,1e-05,0.00017,0.00016,-0.00015,5e-05,4e-05,3,13
13466,-0.00031,-2e-05,1e-05,0.00017,0.00016,-0.00015,5e-05,4e-05,3,13
13467,-0.00031,-2e-05,1e-05,0.00017,0.00016,-0.00015,5e-05,4e-05,3,13
13468,-0.00031,-2e-05,1e-05,0.00017,0.00016,-0.00015,5e-05,4e-05,3,13
13469,-0.00031,-2e-05,1e-05,0.00017,0.00016,-0.00015,5e-05,4e-05,3,13
13470,-0.00031,-2e-05,1e-05,0.00017,0.00016,-0.00015,5e-05,4e-05,3,13
13471,-0.00031,-2e-05,1e-05,0.00017,0.00016,-0.00015,5e-05,4e-05,3,13
13472,-0.00031,-2e-05,1e-05,0.00017,0.00016,-0.00015,5e-05,4e-05,3,13
13473,-0.00031,-2e-05,1e-05,0.00017,0.00016,-0.00015,5e-05,4e-05,3,13
13474,-0.00031,-2e-05,1e-05,0.00017,0.00016,-0.00015,5e-05,4e-05,3,13
13475,-0.00031,-2e-05,1e-05,0.00017,0.00016,-0.00015,5e-05,4e-05,3,13
13477,-0.00031,-2e-05,1e-05,0.00017,0.00016,-0.00015,5e-05,4e-05,3,13
13478,-0.00031,-2e-05,1e-05,0.00017,0.00016,-0.00015,5e-05,4e-05,3,13
13479,-0.00031,-2e-05,1e-05,0.00017,0.00016,-0.00015,5e-05,4e-05,3,13
13480,-0.00031,-2e-05,1e-05,0.00017,0.00016,-0.00015,5e-05,4e-05,3,13
13481,-0.00031,-2e-05,1e-05,0.00017,0.00016,-0.00015,5e-05,4e-05,3,13
13482,-0.00031,-2e-05,1e-05,0.00017,0.00016,-0.00015,5e-05,4e-05,3,13
13483,-0.00031,-2e-05,1e-05,0.00017,0.00016,-0.00015,5e-05,4e-05,3,13
13484,-0.00031,-2e-05,1e-05,0.00017,0.00016,-0.00015,5e-05,4e-05,3,13
13485,-0.00031,-2e-05,1e-05,0.00017,0.00016,-0.00015,5e-05,4e-05,3,13
13486,0.00015,-1e-05,3e-05,0.00018,0.00087,0.0003,-9e-05,-0.00011,3,13
13488,0.00071,-0.00014,-0.00011,-9e-05,-0.00025,-0.00023,0.00025,0.00054,3,13
13489,0.00071,-0.00014,-0.00011,-9e-05,-0.00025,-0.00023,0.00025,0.00054,3,13
13490,0.00071,-0.00014,-0.00011,-9e-05,-0.00025,-0.00023,0.00025,0.00054,3,13
13491,0.00071,-0.00014,-0.00011,-9e-05,-0.00025,-0.00023,0.00025,0.00054,3,13
13492,0.00071,-0.00014,-0.00011,-9e-05,-0.00025,-0.00023,0.00025,0.00054,3,13
13493,0.00071,-0.00014,-0.00011,-9e-05,-0.00025,-0.00023,0.00025,0.00054,3,13
13494,0.00071,-0.00014,-0.00011,-9e-05,-0.00025,-0.00023,0.00025,0.00054,3,13
13495,0.00071,-0.00014,-0.00011,-9e-05,-0.00025,-0.00023,0.00025,0.00054,3,13
13496,0.00071,-0.00014,-0.00011,-9e-05,-0.00025,-0.00023,0.00025,0.00054,3,13
13497,0.00071,-0.00014,-0.00011,-9e-05,-0.00025,-0.00023,0.00025,0.00054,3,13
13498,0.00071,-0.00014,-0.00011,-9e-05,-0.00025,-0.00023,0.00025,0.00054,3,13
13499,0.00071,-0.00014,-0.00011,-9e-05,-0.00025,-0.00023,0.00025,0.00054,3,13
13500,0.00071,-0.00014,-0.00011,-9e-05,-0.00025,-0.00023,0.00025,0.00054,3,13
13501,0.00071,-0.00014,-0.00011,-9e-05,-0.00025,-0.00023,0.00025,0.00054,3,13
13502,0.00071,-0.00014,-0.00011,-9e-05,-0.00025,-0.00023,0.00025,0.00054,3,13
13503,0.00071,-0.00014,-0.00011,-9e-05,-0.00025,-0.00023,0.00025,0.00054,3,13
13504,0.00071,-0.00014,-0.00011,-9e-05,-0.00025,-0.00023,0.00025,0.00054,3,13
13505,0.00071,-0.00014,-0.00011,-9e-05,-0.00025,-0.00023,0.00025,0.00054,3,13
13506,0.00071,-0.00014,-0.00011,-9e-05,-0.00025,-0.00023,0.00025,0.00054,3,13
13507,0.00071,-0.00014,-0.00011,-9e-05,-0.00025,-0.00023,0.00025,0.00054,3,13
13508,0.00071,-0.00014,-0.00011,-9e-05,-0.00025,-0.00023,0.00025,0.00054,3,13
13509,-0.00022,1e-05,6e-05,0,0.00037,0.00027,0.00014,0.00011,3,13
13510,-0.00022,1e-05,6e-05,0,0.00037,0.00027,0.00014,0.00011,3,13
13511,-0.00022,1e-05,6e-05,0,0.00037,0.00027,0.00014,0.00011,3,13
13512,-0.00022,1e-05,6e-05,0,0.00037,0.00027,0.00014,0.00011,3,13
13513,-0.00022,1e-05,6e-05,0,0.00037,0.00027,0.00014,0.00011,3,13
13514,-0.00022,1e-05,6e-05,0,0.00037,0.00027,0.00014,0.00011,3,13
13515,-0.00022,1e-05,6e-05,0,0.00037,0.00027,0.00014,0.00011,3,13
13516,-0.00022,1e-05,6e-05,0,0.00037,0.00027,0.00014,0.00011,3,13
13517,-0.00022,1e-05,6e-05,0,0.00037,0.00027,0.00014,0.00011,3,13
13518,-0.00022,1e-05,6e-05,0,0.00037,0.00027,0.00014,0.00011,3,13
13519,-0.00022,1e-05,6e-05,0,0.00037,0.00027,0.00014,0.00011,3,13
13520,-0.00022,1e-05,6e-05,0,0.00037,0.00027,0.00014,0.00011,3,13
13521,-0.00022,1e-05,6e-05,0,0.00037,0.00027,0.00014,0.00011,3,13
13522,-0.00022,1e-05,6e-05,0,0.00037,0.00027,0.00014,0.00011,3,13
13523,-0.00022,1e-05,6e-05,0,0.00037,0.00027,0.00014,0.00011,3,13
13524,0.00026,5e-05,3e-05,0.00025,5e-05,0.00015,0.00028,0.00041,3,13
13525,-0.00023,9e-05,7e-05,0.00011,0.00022,-0.00013,-0.00034,-0.00057,3,13
13527,-0.00023,9e-05,7e-05,0.00011,0.00022,-0.00013,-0.00034,-0.00057,3,13
13528,-0.00023,9e-05,7e-05,0.00011,0.00022,-0.00013,-0.00034,-0.00057,3,13
13529,-0.00023,9e-05,7e-05,0.00011,0.00022,-0.00013,-0.00034,-0.00057,3,13
13530,-0.00023,9e-05,7e-05,0.00011,0.00022,-0.00013,-0.00034,-0.00057,3,13
13531,-0.00023,9e-05,7e-05,0.00011,0.00022,-0.00013,-0.00034,-0.00057,3,13
13532,-0.00023,9e-05,7e-05,0.00011,0.00022,-0.00013,-0.00034,-0.00057,3,13
13533,-0.00023,9e-05,7e-05,0.00011,0.00022,-0.00013,-0.00034,-0.00057,3,13
13534,-0.00023,9e-05,7e-05,0.00011,0.00022,-0.00013,-0.00034,-0.00057,3,13
13535,-0.00023,9e-05,7e-05,0.00011,0.00022,-0.00013,-0.00034,-0.00057,3,13
13536,-0.00023,9e-05,7e-05,0.00011,0.00022,-0.00013,-0.00034,-0.00057,3,13
13538,-0.00023,9e-05,7e-05,0.00011,0.00022,-0.00013,-0.00034,-0.00057,3,13
13539,-0.00023,9e-05,7e-05,0.00011,0.00022,-0.00013,-0.00034,-0.00057,3,13
13540,-0.00023,9e-05,7e-05,0.00011,0.00022,-0.00013,-0.00034,-0.00057,3,13
13541,-0.00023,9e-05,7e-05,0.00011,0.00022,-0.00013,-0.00034,-0.00057,3,13
13542,-0.00023,9e-05,7e-05,0.00011,0.00022,-0.00013,-0.00034,-0.00057,3,13
13543,-0.00023,9e-05,7e-05,0.00011,0.00022,-0.00013,-0.00034,-0.00057,3,13
13544,-0.00023,9e-05,7e-05,0.00011,0.00022,-0.00013,-0.00034,-0.00057,3,13
13545,-0.00023,9e-05,7e-05,0.00011,0.00022,-0.00013,-0.00034,-0.00057,3,13
13546,-0.00024,3e-05,7e-05,-7e-05,-0.0003,0.00013,1e-05,-0.0001,3,13
13547,0.00028,3e-05,2e-05,0.00012,0.00066,0.00025,0.0003,0.00014,3,13
13548,0.00028,3e-05,2e-05,0.00012,0.00066,0.00025,0.0003,0.00014,3,13
13549,0.00028,3e-05,2e-05,0.00012,0.00066,0.00025,0.0003,0.00014,3,13
13550,0.00028,3e-05,2e-05,0.00012,0.00066,0.00025,0.0003,0.00014,3,13
13551,0.00028,3e-05,2e-05,0.00012,0.00066,0.00025,0.0003,0.00014,3,13
13552,0.00028,3e-05,2e-05,0.00012,0.00066,0.00025,0.0003,0.00014,3,13
13553,0.00028,3e-05,2e-05,0.00012,0.00066,0.00025,0.0003,0.00014,3,13
13554,0.00028,3e-05,2e-05,0.00012,0.00066,0.00025,0.0003,0.00014,3,13
13555,0.00028,3e-05,2e-05,0.00012,0.00066,0.00025,0.0003,0.00014,3,13
13556,0.00028,3e-05,2e-05,0.00012,0.00066,0.00025,0.0003,0.00014,3,13
13557,0.00028,3e-05,2e-05,0.00012,0.00066,0.00025,0.0003,0.00014,3,13
13558,0.00028,3e-05,2e-05,0.00012,0.00066,0.00025,0.0003,0.00014,3,13
13559,0.00028,3e-05,2e-05,0.00012,0.00066,0.00025,0.0003,0.00014,3,13
13560,-0.00055,1e-05,8e-05,7e-05,-0.00028,0.00018,3e-05,-7e-05,3,13
13561,-0.00015,1e-05,0,-3e-05,5e-05,7e-05,0.00047,0.00055,3,13
13562,-0.00015,1e-05,0,-3e-05,5e-05,7e-05,0.00047,0.00055,3,13
13563,-0.00015,1e-05,0,-3e-05,5e-05,7e-05,0.00047,0.00055,3,13
13564,-0.00015,1e-05,0,-3e-05,5e-05,7e-05,0.00047,0.00055,3,13
13565,-0.00015,1e-05,0,-3e-05,5e-05,7e-05,0.00047,0.00055,3,13
13566,-0.00015,1e-05,0,-3e-05,5e-05,7e-05,0.00047,0.00055,3,13
13567,-0.00015,1e-05,0,-3e-05,5e-05,7e-05,0.00047,0.00055,3,13
13568,-0.00015,1e-05,0,-3e-05,5e-05,7e-05,0.00047,0.00055,3,13
13569,-0.00015,1e-05,0,-3e-05,5e-05,7e-05,0.00047,0.00055,3,13
13570,-0.00015,1e-05,0,-3e-05,5e-05,7e-05,0.00047,0.00055,3,13
13571,-0.00015,1e-05,0,-3e-05,5e-05,7e-05,0.00047,0.00055,3,13
13572,-0.00015,1e-05,0,-3e-05,5e-05,7e-05,0.00047,0.00055,3,13
13573,-0.00015,1e-05,0,-3e-05,5e-05,7e-05,0.00047,0.00055,3,13
13574,-0.00015,1e-05,0,-3e-05,5e-05,7e-05,0.00047,0.00055,3,13
13575,-0.00015,1e-05,0,-3e-05,5e-05,7e-05,0.00047,0.00055,3,13
13576,-0.00015,1e-05,0,-3e-05,5e-05,7e-05,0.00047,0.00055,3,13
13577,-0.00015,1e-05,0,-3e-05,5e-05,7e-05,0.00047,0.00055,3,13
13578,-0.00015,1e-05,0,-3e-05,5e-05,7e-05,0.00047,0.00055,3,13
13579,-0.00015,1e-05,0,-3e-05,5e-05,7e-05,0.00047,0.00055,3,13
13580,-0.00015,1e-05,0,-3e-05,5e-05,7e-05,0.00047,0.00055,3,13
13581,-0.00015,1e-05,0,-3e-05,5e-05,7e-05,0.00047,0.00055,3,13
13582,-0.00015,1e-05,0,-3e-05,5e-05,7e-05,0.00047,0.00055,3,13
13583,-0.00015,1e-05,0,-3e-05,5e-05,7e-05,0.00047,0.00055,3,13
13584,0.00052,-2e-05,-4e-05,-0.00042,-0.00028,4e-05,0.00024,-6e-05,3,13
13585,0.00024,9e-05,6e-05,6e-05,-0.00027,-4e-05,-0.00024,0.00043,3,13
13586,0.00024,9e-05,6e-05,6e-05,-0.00027,-4e-05,-0.00024,0.00043,3,13
13588,0.00024,9e-05,6e-05,6e-05,-0.00027,-4e-05,-0.00024,0.00043,3,13
13589,0.00024,9e-05,6e-05,6e-05,-0.00027,-4e-05,-0.00024,0.00043,3,13
13590,0.00024,9e-05,6e-05,6e-05,-0.00027,-4e-05,-0.00024,0.00043,3,13
13591,0.00024,9e-05,6e-05,6e-05,-0.00027,-4e-05,-0.00024,0.00043,3,13
13592,0.00024,9e-05,6e-05,6e-05,-0.00027,-4e-05,-0.00024,0.00043,3,13
13593,0.00024,9e-05,6e-05,6e-05,-0.00027,-4e-05,-0.00024,0.00043,3,13
13594,0.00024,9e-05,6e-05,6e-05,-0.00027,-4e-05,-0.00024,0.00043,3,13
13595,0.00024,9e-05,6e-05,6e-05,-0.00027,-4e-05,-0.00024,0.00043,3,13
13596,0.00024,9e-05,6e-05,6e-05,-0.00027,-4e-05,-0.00024,0.00043,3,13
13597,0.00024,9e-05,6e-05,6e-05,-0.00027,-4e-05,-0.00024,0.00043,3,13
13598,0.00024,9e-05,6e-05,6e-05,-0.00027,-4e-05,-0.00024,0.00043,3,13
13599,0.00024,9e-05,6e-05,6e-05,-0.00027,-4e-05,-0.00024,0.00043,3,13
13600,0.00024,9e-05,6e-05,6e-05,-0.00027,-4e-05,-0.00024,0.00043,3,13
13601,0.00024,9e-05,6e-05,6e-05,-0.00027,-4e-05,-0.00024,0.00043,3,13
13602,0.00024,9e-05,6e-05,6e-05,-0.00027,-4e-05,-0.00024,0.00043,3,13
13603,0.00024,9e-05,6e-05,6e-05,-0.00027,-4e-05,-0.00024,0.00043,3,13
13604,0.00024,9e-05,6e-05,6e-05,-0.00027,-4e-05,-0.00024,0.00043,3,13
13605,0.00024,9e-05,6e-05,6e-05,-0.00027,-4e-05,-0.00024,0.00043,3,13
13606,1e-05,6e-05,5e-05,-9e-05,-0.00037,-0.00014,-0.00046,-0.00028,3,13
13607,-0.00022,-0.0001,-0.00015,-0.00014,-0.0001,-0.00021,8e-05,-0.0002,3,13
13608,-0.00022,-0.0001,-0.00015,-0.00014,-0.0001,-0.00021,8e-05,-0.0002,3,13
13609,-0.00022,-0.0001,-0.00015,-0.00014,-0.0001,-0.00021,8e-05,-0.0002,3,13
13610,-0.00022,-0.0001,-0.00015,-0.00014,-0.0001,-0.00021,8e-05,-0.0002,3,13
13611,-0.00022,-0.0001,-0.00015,-0.00014,-0.0001,-0.00021,8e-05,-0.0002,3,13
13612,-0.00022,-0.0001,-0.00015,-0.00014,-0.0001,-0.00021,8e-05,-0.0002,3,13
13613,-0.00022,-0.0001,-0.00015,-0.00014,-0.0001,-0.00021,8e-05,-0.0002,3,13
13614,-0.00022,-0.0001,-0.00015,-0.00014,-0.0001,-0.00021,8e-05,-0.0002,3,13
13615,-0.00022,-0.0001,-0.00015,-0.00014,-0.0001,-0.00021,8e-05,-0.0002,3,13
13616,-0.00022,-0.0001,-0.00015,-0.00014,-0.0001,-0.00021,8e-05,-0.0002,3,13
13617,-0.00022,-0.0001,-0.00015,-0.00014,-0.0001,-0.00021,8e-05,-0.0002,3,13
13618,-0.00022,-0.0001,-0.00015,-0.00014,-0.0001,-0.00021,8e-05,-0.0002,3,13
13619,-0.00022,-0.0001,-0.00015,-0.00014,-0.0001,-0.00021,8e-05,-0.0002,3,13
13620,0.00015,4e-05,9e-05,0.00035,0.00017,-7e-05,7e-05,0.00026,3,13
13621,0.00015,4e-05,9e-05,0.00035,0.00017,-7e-05,7e-05,0.00026,3,13
13622,0.00015,4e-05,9e-05,0.00035,0.00017,-7e-05,7e-05,0.00026,3,13
13623,0.00015,4e-05,9e-05,0.00035,0.00017,-7e-05,7e-05,0.00026,3,13
13624,0.00015,4e-05,9e-05,0.00035,0.00017,-7e-05,7e-05,0.00026,3,13
13625,0.00015,4e-05,9e-05,0.00035,0.00017,-7e-05,7e-05,0.00026,3,13
13626,0.00015,4e-05,9e-05,0.00035,0.00017,-7e-05,7e-05,0.00026,3,13
13627,0.00015,4e-05,9e-05,0.00035,0.00017,-7e-05,7e-05,0.00026,3,13
13628,0.0001,-5e-05,-0.0001,-0.00019,-0.00068,-0.00022,-0.00016,-5e-05,3,13
13629,0.0001,-5e-05,-0.0001,-0.00019,-0.00068,-0.00022,-0.00016,-5e-05,3,13
13630,0.0001,-5e-05,-0.0001,-0.00019,-0.00068,-0.00022,-0.00016,-5e-05,3,13
13631,0.0001,-5e-05,-0.0001,-0.00019,-0.00068,-0.00022,-0.00016,-5e-05,3,13
13632,0.0001,-5e-05,-0.0001,-0.00019,-0.00068,-0.00022,-0.00016,-5e-05,3,13
13633,0.0001,-5e-05,-0.0001,-0.00019,-0.00068,-0.00022,-0.00016,-5e-05,3,13
13634,0.0001,-5e-05,-0.0001,-0.00019,-0.00068,-0.00022,-0.00016,-5e-05,3,13
13635,0.0001,-5e-05,-0.0001,-0.00019,-0.00068,-0.00022,-0.00016,-5e-05,3,13
13636,0.0001,-5e-05,-0.0001,-0.00019,-0.00068,-0.00022,-0.00016,-5e-05,3,13
13638,0.0001,-5e-05,-0.0001,-0.00019,-0.00068,-0.00022,-0.00016,-5e-05,3,13
13639,0.0001,-5e-05,-0.0001,-0.00019,-0.00068,-0.00022,-0.00016,-5e-05,3,13
13640,0.0001,-5e-05,-0.0001,-0.00019,-0.00068,-0.00022,-0.00016,-5e-05,3,13
13641,0.0001,-5e-05,-0.0001,-0.00019,-0.00068,-0.00022,-0.00016,-5e-05,3,13
13642,0.0001,-5e-05,-0.0001,-0.00019,-0.00068,-0.00022,-0.00016,-5e-05,3,13
13643,0.0001,-5e-05,-0.0001,-0.00019,-0.00068,-0.00022,-0.00016,-5e-05,3,13
13644,0.00012,3e-05,2e-05,7e-05,-3e-05,-0.00022,-5e-05,0.00022,3,13
13645,-0.00039,7e-05,7e-05,-0.00042,-0.00065,7e-05,0.00018,-0.00047,3,13
13646,-0.00039,7e-05,7e-05,-0.00042,-0.00065,7e-05,0.00018,-0.00047,3,13
13647,-0.00039,7e-05,7e-05,-0.00042,-0.00065,7e-05,0.00018,-0.00047,3,13
13648,-0.00039,7e-05,7e-05,-0.00042,-0.00065,7e-05,0.00018,-0.00047,3,13
13649,-0.00039,7e-05,7e-05,-0.00042,-0.00065,7e-05,0.00018,-0.00047,3,13
13650,-0.00039,7e-05,7e-05,-0.00042,-0.00065,7e-05,0.00018,-0.00047,3,13
13651,-0.00039,7e-05,7e-05,-0.00042,-0.00065,7e-05,0.00018,-0.00047,3,13
13652,-0.00039,7e-05,7e-05,-0.00042,-0.00065,7e-05,0.00018,-0.00047,3,13
13653,-0.00039,7e-05,7e-05,-0.00042,-0.00065,7e-05,0.00018,-0.00047,3,13
13654,-0.00039,7e-05,7e-05,-0.00042,-0.00065,7e-05,0.00018,-0.00047,3,13
13655,-0.00039,7e-05,7e-05,-0.00042,-0.00065,7e-05,0.00018,-0.00047,3,13
13656,-0.00039,7e-05,7e-05,-0.00042,-0.00065,7e-05,0.00018,-0.00047,3,13
13657,-0.00039,7e-05,7e-05,-0.00042,-0.00065,7e-05,0.00018,-0.00047,3,13
13658,-0.00039,7e-05,7e-05,-0.00042,-0.00065,7e-05,0.00018,-0.00047,3,13
13659,-0.00039,7e-05,7e-05,-0.00042,-0.00065,7e-05,0.00018,-0.00047,3,13
13660,-0.00039,7e-05,7e-05,-0.00042,-0.00065,7e-05,0.00018,-0.00047,3,13
13661,-0.00039,7e-05,7e-05,-0.00042,-0.00065,7e-05,0.00018,-0.00047,3,13
13662,-0.00039,7e-05,7e-05,-0.00042,-0.00065,7e-05,0.00018,-0.00047,3,13
13663,-0.00039,7e-05,7e-05,-0.00042,-0.00065,7e-05,0.00018,-0.00047,3,13
13664,-0.00039,7e-05,7e-05,-0.00042,-0.00065,7e-05,0.00018,-0.00047,3,13
13665,-0.00039,7e-05,7e-05,-0.00042,-0.00065,7e-05,0.00018,-0.00047,3,13
13666,-0.00041,-0.0001,-3e-05,-0.00022,0.00039,0.00035,-4e-05,-0.00049,3,13
13667,0.00014,-6e-05,-3e-05,0.00026,0.0008,5e-05,0.00019,0.00026,3,13
13668,0.00014,-6e-05,-3e-05,0.00026,0.0008,5e-05,0.00019,0.00026,3,13
13669,0.00014,-6e-05,-3e-05,0.00026,0.0008,5e-05,0.00019,0.00026,3,13
13670,0.00014,-6e-05,-3e-05,0.00026,0.0008,5e-05,0.00019,0.00026,3,13
13671,0.00014,-6e-05,-3e-05,0.00026,0.0008,5e-05,0.00019,0.00026,3,13
13672,0.00014,-6e-05,-3e-05,0.00026,0.0008,5e-05,0.00019,0.00026,3,13
13673,0.00014,-6e-05,-3e-05,0.00026,0.0008,5e-05,0.00019,0.00026,3,13
13674,0.00014,-6e-05,-3e-05,0.00026,0.0008,5e-05,0.00019,0.00026,3,13
13675,0.00014,-6e-05,-3e-05,0.00026,0.0008,5e-05,0.00019,0.00026,3,13
13676,0.00014,-6e-05,-3e-05,0.00026,0.0008,5e-05,0.00019,0.00026,3,13
13677,0.00014,-6e-05,-3e-05,0.00026,0.0008,5e-05,0.00019,0.00026,3,13
13678,0.00014,-6e-05,-3e-05,0.00026,0.0008,5e-05,0.00019,0.00026,3,13
13679,0.00014,-6e-05,-3e-05,0.00026,0.0008,5e-05,0.00019,0.00026,3,13
13680,-3e-05,5e-05,0.00015,0.00037,0.00027,4e-05,0,0.00021,3,13
13681,-3e-05,5e-05,0.00015,0.00037,0.00027,4e-05,0,0.00021,3,13
13682,-3e-05,5e-05,0.00015,0.00037,0.00027,4e-05,0,0.00021,3,13
13683,-3e-05,5e-05,0.00015,0.00037,0.00027,4e-05,0,0.00021,3,13
13684,-3e-05,5e-05,0.00015,0.00037,0.00027,4e-05,0,0.00021,3,13
13685,-3e-05,5e-05,0.00015,0.00037,0.00027,4e-05,0,0.00021,3,13
13687,-3e-05,5e-05,0.00015,0.00037,0.00027,4e-05,0,0.00021,3,13
13689,0.00017,-8e-05,-0.00017,-6e-05,0.0001,7e-05,-6e-05,-0.00018,3,13
13690,0.00017,-8e-05,-0.00017,-6e-05,0.0001,7e-05,-6e-05,-0.00018,3,13
13691,0.00017,-8e-05,-0.00017,-6e-05,0.0001,7e-05,-6e-05,-0.00018,3,13
13692,0.00017,-8e-05,-0.00017,-6e-05,0.0001,7e-05,-6e-05,-0.00018,3,13
13693,0.00017,-8e-05,-0.00017,-6e-05,0.0001,7e-05,-6e-05,-0.00018,3,13
13694,0.00017,-8e-05,-0.00017,-6e-05,0.0001,7e-05,-6e-05,-0.00018,3,13
13695,0.00017,-8e-05,-0.00017,-6e-05,0.0001,7e-05,-6e-05,-0.00018,3,13
13696,0.00017,-8e-05,-0.00017,-6e-05,0.0001,7e-05,-6e-05,-0.00018,3,13
13697,0.00017,-8e-05,-0.00017,-6e-05,0.0001,7e-05,-6e-05,-0.00018,3,13
13698,0.00017,-8e-05,-0.00017,-6e-05,0.0001,7e-05,-6e-05,-0.00018,3,13
13699,0.00017,-8e-05,-0.00017,-6e-05,0.0001,7e-05,-6e-05,-0.00018,3,13
13700,0.00017,-8e-05,-0.00017,-6e-05,0.0001,7e-05,-6e-05,-0.00018,3,13
13701,0.00017,-8e-05,-0.00017,-6e-05,0.0001,7e-05,-6e-05,-0.00018,3,13
13702,0.00017,-8e-05,-0.00017,-6e-05,0.0001,7e-05,-6e-05,-0.00018,3,13
13703,0.00017,-8e-05,-0.00017,-6e-05,0.0001,7e-05,-6e-05,-0.00018,3,13
13704,0.00011,2e-05,8e-05,0.00022,0.0002,-0.00036,-3e-05,0.00015,3,13
13705,0.00011,2e-05,8e-05,0.00022,0.0002,-0.00036,-3e-05,0.00015,3,13
13706,0.00011,2e-05,8e-05,0.00022,0.0002,-0.00036,-3e-05,0.00015,3,13
13707,0.00011,2e-05,8e-05,0.00022,0.0002,-0.00036,-3e-05,0.00015,3,13
13708,0.00011,2e-05,8e-05,0.00022,0.0002,-0.00036,-3e-05,0.00015,3,13
13709,0.00011,2e-05,8e-05,0.00022,0.0002,-0.00036,-3e-05,0.00015,3,13
13710,0.00011,2e-05,8e-05,0.00022,0.0002,-0.00036,-3e-05,0.00015,3,13
13711,0.00011,2e-05,8e-05,0.00022,0.0002,-0.00036,-3e-05,0.00015,3,13
13712,0.00011,2e-05,8e-05,0.00022,0.0002,-0.00036,-3e-05,0.00015,3,13
13713,0.00011,2e-05,8e-05,0.00022,0.0002,-0.00036,-3e-05,0.00015,3,13
13714,0.00011,2e-05,8e-05,0.00022,0.0002,-0.00036,-3e-05,0.00015,3,13
13715,0.00011,2e-05,8e-05,0.00022,0.0002,-0.00036,-3e-05,0.00015,3,13
13716,0.00011,2e-05,8e-05,0.00022,0.0002,-0.00036,-3e-05,0.00015,3,13
13717,0.00011,2e-05,8e-05,0.00022,0.0002,-0.00036,-3e-05,0.00015,3,13
13718,0.00011,2e-05,8e-05,0.00022,0.0002,-0.00036,-3e-05,0.00015,3,13
13719,0.00011,2e-05,8e-05,0.00022,0.0002,-0.00036,-3e-05,0.00015,3,13
13720,0.00011,2e-05,8e-05,0.00022,0.0002,-0.00036,-3e-05,0.00015,3,13
13721,0.00011,2e-05,8e-05,0.00022,0.0002,-0.00036,-3e-05,0.00015,3,13
13722,0.00011,2e-05,8e-05,0.00022,0.0002,-0.00036,-3e-05,0.00015,3,13
13723,0.00011,2e-05,8e-05,0.00022,0.0002,-0.00036,-3e-05,0.00015,3,13
13724,0.00011,2e-05,8e-05,0.00022,0.0002,-0.00036,-3e-05,0.00015,3,13
13725,0.00011,2e-05,8e-05,0.00022,0.0002,-0.00036,-3e-05,0.00015,3,13
13726,-0.00031,-0.00011,-7e-05,-0.00046,-0.00092,-0.00018,-0.00013,-0.00015,3,13
13727,-0.00011,3e-05,2e-05,0.00019,0.00056,0.00024,9e-05,-0.0001,3,13
13728,-0.00011,3e-05,2e-05,0.00019,0.00056,0.00024,9e-05,-0.0001,3,13
13729,-0.00011,3e-05,2e-05,0.00019,0.00056,0.00024,9e-05,-0.0001,3,13
13730,-0.00011,3e-05,2e-05,0.00019,0.00056,0.00024,9e-05,-0.0001,3,13
13731,-0.00011,3e-05,2e-05,0.00019,0.00056,0.00024,9e-05,-0.0001,3,13
13732,-0.00011,3e-05,2e-05,0.00019,0.00056,0.00024,9e-05,-0.0001,3,13
13733,-0.00011,3e-05,2e-05,0.00019,0.00056,0.00024,9e-05,-0.0001,3,13
13734,-0.00011,3e-05,2e-05,0.00019,0.00056,0.00024,9e-05,-0.0001,3,13
13735,-0.00011,3e-05,2e-05,0.00019,0.00056,0.00024,9e-05,-0.0001,3,13
13737,-0.00011,3e-05,2e-05,0.00019,0.00056,0.00024,9e-05,-0.0001,3,13
13739,-0.00011,3e-05,2e-05,0.00019,0.00056,0.00024,9e-05,-0.0001,3,13
13740,-0.00061,-3e-05,0,-0.00029,-0.00041,-3e-05,-0.00016,-0.00032,3,13
13741,-0.00061,-3e-05,0,-0.00029,-0.00041,-3e-05,-0.00016,-0.00032,3,13
13742,-0.00061,-3e-05,0,-0.00029,-0.00041,-3e-05,-0.00016,-0.00032,3,13
13743,-0.00061,-3e-05,0,-0.00029,-0.00041,-3e-05,-0.00016,-0.00032,3,13
13744,-0.00061,-3e-05,0,-0.00029,-0.00041,-3e-05,-0.00016,-0.00032,3,13
13745,-0.00061,-3e-05,0,-0.00029,-0.00041,-3e-05,-0.00016,-0.00032,3,13
13746,-0.00061,-3e-05,0,-0.00029,-0.00041,-3e-05,-0.00016,-0.00032,3,13
13747,-0.00061,-3e-05,0,-0.00029,-0.00041,-3e-05,-0.00016,-0.00032,3,13
13748,-0.00061,-3e-05,0,-0.00029,-0.00041,-3e-05,-0.00016,-0.00032,3,13
13749,-0.00061,-3e-05,0,-0.00029,-0.00041,-3e-05,-0.00016,-0.00032,3,13
13750,-0.00061,-3e-05,0,-0.00029,-0.00041,-3e-05,-0.00016,-0.00032,3,13
13751,-0.00061,-3e-05,0,-0.00029,-0.00041,-3e-05,-0.00016,-0.00032,3,13
13752,-0.00061,-3e-05,0,-0.00029,-0.00041,-3e-05,-0.00016,-0.00032,3,13
13753,-0.00061,-3e-05,0,-0.00029,-0.00041,-3e-05,-0.00016,-0.00032,3,13
13754,-0.00061,-3e-05,0,-0.00029,-0.00041,-3e-05,-0.00016,-0.00032,3,13
13755,-0.00086,-1e-05,6e-05,0.00017,0.00038,0.0001,4e-05,-0.00075,3,13
13756,0.00048,-4e-05,-7e-05,1e-05,-0.00021,-0.00012,5e-05,0.0002,3,13
13757,0.00048,-4e-05,-7e-05,1e-05,-0.00021,-0.00012,5e-05,0.0002,3,13
13758,0.00048,-4e-05,-7e-05,1e-05,-0.00021,-0.00012,5e-05,0.0002,3,13
13759,0.00048,-4e-05,-7e-05,1e-05,-0.00021,-0.00012,5e-05,0.0002,3,13
13760,0.00048,-4e-05,-7e-05,1e-05,-0.00021,-0.00012,5e-05,0.0002,3,13
13761,0.00048,-4e-05,-7e-05,1e-05,-0.00021,-0.00012,5e-05,0.0002,3,13
13762,0.00048,-4e-05,-7e-05,1e-05,-0.00021,-0.00012,5e-05,0.0002,3,13
13763,0.00048,-4e-05,-7e-05,1e-05,-0.00021,-0.00012,5e-05,0.0002,3,13
13764,-0.00021,0,5e-05,7e-05,0.00027,0.00012,0.00048,0.00032,3,13
13765,-0.00052,4e-05,5e-05,-5e-05,-0.00066,-0.00013,-0.00032,0,3,13
13766,-0.00052,4e-05,5e-05,-5e-05,-0.00066,-0.00013,-0.00032,0,3,13
13767,-0.00052,4e-05,5e-05,-5e-05,-0.00066,-0.00013,-0.00032,0,3,13
13768,-0.00052,4e-05,5e-05,-5e-05,-0.00066,-0.00013,-0.00032,0,3,13
13769,-0.00052,4e-05,5e-05,-5e-05,-0.00066,-0.00013,-0.00032,0,3,13
13770,-0.00052,4e-05,5e-05,-5e-05,-0.00066,-0.00013,-0.00032,0,3,13
13771,-0.00052,4e-05,5e-05,-5e-05,-0.00066,-0.00013,-0.00032,0,3,13
13772,-0.00052,4e-05,5e-05,-5e-05,-0.00066,-0.00013,-0.00032,0,3,13
13773,-0.00052,4e-05,5e-05,-5e-05,-0.00066,-0.00013,-0.00032,0,3,13
13774,-0.00052,4e-05,5e-05,-5e-05,-0.00066,-0.00013,-0.00032,0,3,13
13775,-0.00052,4e-05,5e-05,-5e-05,-0.00066,-0.00013,-0.00032,0,3,13
13776,-0.00052,4e-05,5e-05,-5e-05,-0.00066,-0.00013,-0.00032,0,3,13
13777,-0.00052,4e-05,5e-05,-5e-05,-0.00066,-0.00013,-0.00032,0,3,13
13778,-0.00052,4e-05,5e-05,-5e-05,-0.00066,-0.00013,-0.00032,0,3,13
13779,-0.00052,4e-05,5e-05,-5e-05,-0.00066,-0.00013,-0.00032,0,3,13
13780,-0.00052,4e-05,5e-05,-5e-05,-0.00066,-0.00013,-0.00032,0,3,13
13781,-0.00052,4e-05,5e-05,-5e-05,-0.00066,-0.00013,-0.00032,0,3,13
13782,-0.00052,4e-05,5e-05,-5e-05,-0.00066,-0.00013,-0.00032,0,3,13
13783,-0.00052,4e-05,5e-05,-5e-05,-0.00066,-0.00013,-0.00032,0,3,13
13784,-0.00052,4e-05,5e-05,-5e-05,-0.00066,-0.00013,-0.00032,0,3,13
13785,-0.00052,4e-05,5e-05,-5e-05,-0.00066,-0.00013,-0.00032,0,3,13
13787,0.00042,-2e-05,-0.00011,8e-05,0.00019,-8e-05,-0.00038,0.0003,3,13
13789,-0.00049,-9e-05,5e-05,-0.00021,-0.00054,5e-05,-2e-05,-0.00036,3,13
13790,-0.00049,-9e-05,5e-05,-0.00021,-0.00054,5e-05,-2e-05,-0.00036,3,13
13791,-0.00049,-9e-05,5e-05,-0.00021,-0.00054,5e-05,-2e-05,-0.00036,3,13
13792,-0.00049,-9e-05,5e-05,-0.00021,-0.00054,5e-05,-2e-05,-0.00036,3,13
13793,-0.00049,-9e-05,5e-05,-0.00021,-0.00054,5e-05,-2e-05,-0.00036,3,13
13794,-0.00049,-9e-05,5e-05,-0.00021,-0.00054,5e-05,-2e-05,-0.00036,3,13
13795,-0.00049,-9e-05,5e-05,-0.00021,-0.00054,5e-05,-2e-05,-0.00036,3,13
13796,-0.00049,-9e-05,5e-05,-0.00021,-0.00054,5e-05,-2e-05,-0.00036,3,13
13797,-0.00049,-9e-05,5e-05,-0.00021,-0.00054,5e-05,-2e-05,-0.00036,3,13
13798,-0.00049,-9e-05,5e-05,-0.00021,-0.00054,5e-05,-2e-05,-0.00036,3,13
13799,-0.00049,-9e-05,5e-05,-0.00021,-0.00054,5e-05,-2e-05,-0.00036,3,13
13800,0.00067,0.00011,-1e-05,-0.00014,-0.00016,1e-05,-6e-05,0.00077,3,13
13801,0.00067,0.00011,-1e-05,-0.00014,-0.00016,1e-05,-6e-05,0.00077,3,13
13802,0.00067,0.00011,-1e-05,-0.00014,-0.00016,1e-05,-6e-05,0.00077,3,13
13803,0.00067,0.00011,-1e-05,-0.00014,-0.00016,1e-05,-6e-05,0.00077,3,13
13804,0.00067,0.00011,-1e-05,-0.00014,-0.00016,1e-05,-6e-05,0.00077,3,13
13805,0.00067,0.00011,-1e-05,-0.00014,-0.00016,1e-05,-6e-05,0.00077,3,13
13806,0.00067,0.00011,-1e-05,-0.00014,-0.00016,1e-05,-6e-05,0.00077,3,13
13807,0.00067,0.00011,-1e-05,-0.00014,-0.00016,1e-05,-6e-05,0.00077,3,13
13808,0.00067,0.00011,-1e-05,-0.00014,-0.00016,1e-05,-6e-05,0.00077,3,13
13809,0.00067,0.00011,-1e-05,-0.00014,-0.00016,1e-05,-6e-05,0.00077,3,13
13810,0.00067,0.00011,-1e-05,-0.00014,-0.00016,1e-05,-6e-05,0.00077,3,13
13811,0.00067,0.00011,-1e-05,-0.00014,-0.00016,1e-05,-6e-05,0.00077,3,13
13812,0.00067,0.00011,-1e-05,-0.00014,-0.00016,1e-05,-6e-05,0.00077,3,13
13813,0.00067,0.00011,-1e-05,-0.00014,-0.00016,1e-05,-6e-05,0.00077,3,13
13814,0.00067,0.00011,-1e-05,-0.00014,-0.00016,1e-05,-6e-05,0.00077,3,13
13815,0.00067,0.00011,-1e-05,-0.00014,-0.00016,1e-05,-6e-05,0.00077,3,13
13816,0.00017,-3e-05,-2e-05,2e-05,-0.00045,-4e-05,-0.00015,0.00047,3,13
13817,0.00017,-3e-05,-2e-05,2e-05,-0.00045,-4e-05,-0.00015,0.00047,3,13
13818,0.00017,-3e-05,-2e-05,2e-05,-0.00045,-4e-05,-0.00015,0.00047,3,13
13819,0.00017,-3e-05,-2e-05,2e-05,-0.00045,-4e-05,-0.00015,0.00047,3,13
13820,0.00017,-3e-05,-2e-05,2e-05,-0.00045,-4e-05,-0.00015,0.00047,3,13
13821,0.00017,-3e-05,-2e-05,2e-05,-0.00045,-4e-05,-0.00015,0.00047,3,13
13822,0.00017,-3e-05,-2e-05,2e-05,-0.00045,-4e-05,-0.00015,0.00047,3,13
13823,0.00017,-3e-05,-2e-05,2e-05,-0.00045,-4e-05,-0.00015,0.00047,3,13
13824,-0.00043,-1e-05,0.0001,0.00019,0.00064,7e-05,0.00026,-0.00052,3,13
13825,0.00031,7e-05,2e-05,0.00015,5e-05,-6e-05,7e-05,0.00029,3,13
13827,0.00031,7e-05,2e-05,0.00015,5e-05,-6e-05,7e-05,0.00029,3,13
13828,0.00031,7e-05,2e-05,0.00015,5e-05,-6e-05,7e-05,0.00029,3,13
13829,0.00031,7e-05,2e-05,0.00015,5e-05,-6e-05,7e-05,0.00029,3,13
13830,0.00031,7e-05,2e-05,0.00015,5e-05,-6e-05,7e-05,0.00029,3,13
13831,0.00031,7e-05,2e-05,0.00015,5e-05,-6e-05,7e-05,0.00029,3,13
13832,0.00031,7e-05,2e-05,0.00015,5e-05,-6e-05,7e-05,0.00029,3,13
13833,0.00031,7e-05,2e-05,0.00015,5e-05,-6e-05,7e-05,0.00029,3,13
13834,0.00031,7e-05,2e-05,0.00015,5e-05,-6e-05,7e-05,0.00029,3,13
13835,0.00031,7e-05,2e-05,0.00015,5e-05,-6e-05,7e-05,0.00029,3,13
13837,0.00031,7e-05,2e-05,0.00015,5e-05,-6e-05,7e-05,0.00029,3,13
13839,0.00031,7e-05,2e-05,0.00015,5e-05,-6e-05,7e-05,0.00029,3,13
13840,0.00031,7e-05,2e-05,0.00015,5e-05,-6e-05,7e-05,0.00029,3,13
13841,0.00031,7e-05,2e-05,0.00015,5e-05,-6e-05,7e-05,0.00029,3,13
13842,0.00031,7e-05,2e-05,0.00015,5e-05,-6e-05,7e-05,0.00029,3,13
13843,0.00031,7e-05,2e-05,0.00015,5e-05,-6e-05,7e-05,0.00029,3,13
13844,0.00031,7e-05,2e-05,0.00015,5e-05,-6e-05,7e-05,0.00029,3,13
13845,0.00031,7e-05,2e-05,0.00015,5e-05,-6e-05,7e-05,0.00029,3,13
13846,-0.00081,0,0,-0.00018,-0.00046,3e-05,-0.00029,-0.00097,3,13
13847,-0.00081,0,0,-0.00018,-0.00046,3e-05,-0.00029,-0.00097,3,13
13848,0.00021,5e-05,1e-05,0.0002,0.00042,9e-05,0.00034,-0.00023,3,13
13849,0.00021,5e-05,1e-05,0.0002,0.00042,9e-05,0.00034,-0.00023,3,13
13850,0.00021,5e-05,1e-05,0.0002,0.00042,9e-05,0.00034,-0.00023,3,13
13851,0.00021,5e-05,1e-05,0.0002,0.00042,9e-05,0.00034,-0.00023,3,13
13852,0.00021,5e-05,1e-05,0.0002,0.00042,9e-05,0.00034,-0.00023,3,13
13853,0.00021,5e-05,1e-05,0.0002,0.00042,9e-05,0.00034,-0.00023,3,13
13854,0.00021,5e-05,1e-05,0.0002,0.00042,9e-05,0.00034,-0.00023,3,13
13855,0.00021,5e-05,1e-05,0.0002,0.00042,9e-05,0.00034,-0.00023,3,13
13856,0.00021,5e-05,1e-05,0.0002,0.00042,9e-05,0.00034,-0.00023,3,13
13857,0.00021,5e-05,1e-05,0.0002,0.00042,9e-05,0.00034,-0.00023,3,13
13858,0.00021,5e-05,1e-05,0.0002,0.00042,9e-05,0.00034,-0.00023,3,13
13859,0.00021,5e-05,1e-05,0.0002,0.00042,9e-05,0.00034,-0.00023,3,13
13860,9e-05,-5e-05,-0.00011,-1e-05,0.00023,-2e-05,7e-05,0.00041,3,13
13861,9e-05,-5e-05,-0.00011,-1e-05,0.00023,-2e-05,7e-05,0.00041,3,13
13862,9e-05,-5e-05,-0.00011,-1e-05,0.00023,-2e-05,7e-05,0.00041,3,13
13863,9e-05,-5e-05,-0.00011,-1e-05,0.00023,-2e-05,7e-05,0.00041,3,13
13864,9e-05,-5e-05,-0.00011,-1e-05,0.00023,-2e-05,7e-05,0.00041,3,13
13865,9e-05,-5e-05,-0.00011,-1e-05,0.00023,-2e-05,7e-05,0.00041,3,13
13866,9e-05,-5e-05,-0.00011,-1e-05,0.00023,-2e-05,7e-05,0.00041,3,13
13867,9e-05,-5e-05,-0.00011,-1e-05,0.00023,-2e-05,7e-05,0.00041,3,13
13868,9e-05,-5e-05,-0.00011,-1e-05,0.00023,-2e-05,7e-05,0.00041,3,13
13869,-0.00015,-6e-05,-5e-05,-0.00012,-0.00011,-6e-05,-0.00031,-9e-05,3,13
13870,-0.00015,-6e-05,-5e-05,-0.00012,-0.00011,-6e-05,-0.00031,-9e-05,3,13
13871,-0.00015,-6e-05,-5e-05,-0.00012,-0.00011,-6e-05,-0.00031,-9e-05,3,13
13872,-0.00015,-6e-05,-5e-05,-0.00012,-0.00011,-6e-05,-0.00031,-9e-05,3,13
13873,-0.00015,-6e-05,-5e-05,-0.00012,-0.00011,-6e-05,-0.00031,-9e-05,3,13
13874,-0.00015,-6e-05,-5e-05,-0.00012,-0.00011,-6e-05,-0.00031,-9e-05,3,13
13875,-0.00015,-6e-05,-5e-05,-0.00012,-0.00011,-6e-05,-0.00031,-9e-05,3,13
13876,-0.00015,-6e-05,-5e-05,-0.00012,-0.00011,-6e-05,-0.00031,-9e-05,3,13
13877,-0.00015,-6e-05,-5e-05,-0.00012,-0.00011,-6e-05,-0.00031,-9e-05,3,13
13878,-0.00015,-6e-05,-5e-05,-0.00012,-0.00011,-6e-05,-0.00031,-9e-05,3,13
13879,-0.00015,-6e-05,-5e-05,-0.00012,-0.00011,-6e-05,-0.00031,-9e-05,3,13
13880,-0.00015,-6e-05,-5e-05,-0.00012,-0.00011,-6e-05,-0.00031,-9e-05,3,13
13881,-0.00015,-6e-05,-5e-05,-0.00012,-0.00011,-6e-05,-0.00031,-9e-05,3,13
13882,-0.00015,-6e-05,-5e-05,-0.00012,-0.00011,-6e-05,-0.00031,-9e-05,3,13
13883,0.00034,3e-05,-6e-05,-0.00024,-0.00045,-0.0001,0.00016,0.00029,3,13
13884,-0.00018,-6e-05,-6e-05,-2e-05,0.00015,-4e-05,0.00016,-0.0003,3,13
13885,0.00065,2e-05,-4e-05,-8e-05,-4e-05,1e-05,-0.00023,0.00048,3,13
13886,0.00065,2e-05,-4e-05,-8e-05,-4e-05,1e-05,-0.00023,0.00048,3,13
13888,0.00065,2e-05,-4e-05,-8e-05,-4e-05,1e-05,-0.00023,0.00048,3,13
13889,0.00065,2e-05,-4e-05,-8e-05,-4e-05,1e-05,-0.00023,0.00048,3,13
13890,0.00065,2e-05,-4e-05,-8e-05,-4e-05,1e-05,-0.00023,0.00048,3,13
13891,0.00065,2e-05,-4e-05,-8e-05,-4e-05,1e-05,-0.00023,0.00048,3,13
13892,0.00065,2e-05,-4e-05,-8e-05,-4e-05,1e-05,-0.00023,0.00048,3,13
13893,0.00065,2e-05,-4e-05,-8e-05,-4e-05,1e-05,-0.00023,0.00048,3,13
13894,0.00065,2e-05,-4e-05,-8e-05,-4e-05,1e-05,-0.00023,0.00048,3,13
13895,0.00065,2e-05,-4e-05,-8e-05,-4e-05,1e-05,-0.00023,0.00048,3,13
13896,0.00065,2e-05,-4e-05,-8e-05,-4e-05,1e-05,-0.00023,0.00048,3,13
13897,0.00065,2e-05,-4e-05,-8e-05,-4e-05,1e-05,-0.00023,0.00048,3,13
13898,0.00065,2e-05,-4e-05,-8e-05,-4e-05,1e-05,-0.00023,0.00048,3,13
13900,0.00065,2e-05,-4e-05,-8e-05,-4e-05,1e-05,-0.00023,0.00048,3,13
13901,0.00065,2e-05,-4e-05,-8e-05,-4e-05,1e-05,-0.00023,0.00048,3,13
13902,0.00065,2e-05,-4e-05,-8e-05,-4e-05,1e-05,-0.00023,0.00048,3,13
13903,0.00065,2e-05,-4e-05,-8e-05,-4e-05,1e-05,-0.00023,0.00048,3,13
13904,0.00065,2e-05,-4e-05,-8e-05,-4e-05,1e-05,-0.00023,0.00048,3,13
13905,0.00065,2e-05,-4e-05,-8e-05,-4e-05,1e-05,-0.00023,0.00048,3,13
13906,-1e-05,-2e-05,2e-05,8e-05,0.00064,6e-05,-6e-05,6e-05,3,13
13907,-1e-05,-2e-05,2e-05,8e-05,0.00064,6e-05,-6e-05,6e-05,3,13
13908,-0.00058,-3e-05,3e-05,0.00013,0.00039,0.00011,0.00039,-0.00087,3,13
13909,-0.00058,-3e-05,3e-05,0.00013,0.00039,0.00011,0.00039,-0.00087,3,13
13910,-0.00058,-3e-05,3e-05,0.00013,0.00039,0.00011,0.00039,-0.00087,3,13
13911,-0.00058,-3e-05,3e-05,0.00013,0.00039,0.00011,0.00039,-0.00087,3,13
13912,-0.00058,-3e-05,3e-05,0.00013,0.00039,0.00011,0.00039,-0.00087,3,13
13913,-0.00058,-3e-05,3e-05,0.00013,0.00039,0.00011,0.00039,-0.00087,3,13
13914,-0.00058,-3e-05,3e-05,0.00013,0.00039,0.00011,0.00039,-0.00087,3,13
13915,-0.00058,-3e-05,3e-05,0.00013,0.00039,0.00011,0.00039,-0.00087,3,13
13916,-0.00058,-3e-05,3e-05,0.00013,0.00039,0.00011,0.00039,-0.00087,3,13
13917,-0.00058,-3e-05,3e-05,0.00013,0.00039,0.00011,0.00039,-0.00087,3,13
13918,-0.00058,-3e-05,3e-05,0.00013,0.00039,0.00011,0.00039,-0.00087,3,13
13919,-0.00058,-3e-05,3e-05,0.00013,0.00039,0.00011,0.00039,-0.00087,3,13
13920,0,-6e-05,-6e-05,1e-05,-0.00032,2e-05,0.00013,-0.00041,3,13
13921,0,-6e-05,-6e-05,1e-05,-0.00032,2e-05,0.00013,-0.00041,3,13
13922,0,-6e-05,-6e-05,1e-05,-0.00032,2e-05,0.00013,-0.00041,3,13
13923,0,-6e-05,-6e-05,1e-05,-0.00032,2e-05,0.00013,-0.00041,3,13
13924,0,-6e-05,-6e-05,1e-05,-0.00032,2e-05,0.00013,-0.00041,3,13
13925,0,-6e-05,-6e-05,1e-05,-0.00032,2e-05,0.00013,-0.00041,3,13
13926,0,-6e-05,-6e-05,1e-05,-0.00032,2e-05,0.00013,-0.00041,3,13
13927,0,-6e-05,-6e-05,1e-05,-0.00032,2e-05,0.00013,-0.00041,3,13
13928,0,-6e-05,-6e-05,1e-05,-0.00032,2e-05,0.00013,-0.00041,3,13
13929,-2e-05,8e-05,2e-05,0.00014,0.00062,6e-05,-0.00014,-4e-05,3,13
13930,-2e-05,8e-05,2e-05,0.00014,0.00062,6e-05,-0.00014,-4e-05,3,13
13931,-2e-05,8e-05,2e-05,0.00014,0.00062,6e-05,-0.00014,-4e-05,3,13
13932,-2e-05,8e-05,2e-05,0.00014,0.00062,6e-05,-0.00014,-4e-05,3,13
13933,-2e-05,8e-05,2e-05,0.00014,0.00062,6e-05,-0.00014,-4e-05,3,13
13934,-2e-05,8e-05,2e-05,0.00014,0.00062,6e-05,-0.00014,-4e-05,3,13
13935,-2e-05,8e-05,2e-05,0.00014,0.00062,6e-05,-0.00014,-4e-05,3,13
13936,-2e-05,8e-05,2e-05,0.00014,0.00062,6e-05,-0.00014,-4e-05,3,13
13938,-2e-05,8e-05,2e-05,0.00014,0.00062,6e-05,-0.00014,-4e-05,3,13
13939,-2e-05,8e-05,2e-05,0.00014,0.00062,6e-05,-0.00014,-4e-05,3,13
13940,-2e-05,8e-05,2e-05,0.00014,0.00062,6e-05,-0.00014,-4e-05,3,13
13941,-2e-05,8e-05,2e-05,0.00014,0.00062,6e-05,-0.00014,-4e-05,3,13
13942,-2e-05,8e-05,2e-05,0.00014,0.00062,6e-05,-0.00014,-4e-05,3,13
13943,-2e-05,8e-05,2e-05,0.00014,0.00062,6e-05,-0.00014,-4e-05,3,13
13944,-0.00017,3e-05,2e-05,-2e-05,0.00024,2e-05,0.00015,0.00038,3,13
13945,0.00025,-9e-05,-0.00016,-0.00025,-0.00026,-0.00026,0.00024,0.00041,3,13
13946,0.00025,-9e-05,-0.00016,-0.00025,-0.00026,-0.00026,0.00024,0.00041,3,13
13947,0.00025,-9e-05,-0.00016,-0.00025,-0.00026,-0.00026,0.00024,0.00041,3,13
13948,0.00025,-9e-05,-0.00016,-0.00025,-0.00026,-0.00026,0.00024,0.00041,3,13
13949,0.00025,-9e-05,-0.00016,-0.00025,-0.00026,-0.00026,0.00024,0.00041,3,13
13950,0.00025,-9e-05,-0.00016,-0.00025,-0.00026,-0.00026,0.00024,0.00041,3,13
13951,0.00025,-9e-05,-0.00016,-0.00025,-0.00026,-0.00026,0.00024,0.00041,3,13
13952,0.00025,-9e-05,-0.00016,-0.00025,-0.00026,-0.00026,0.00024,0.00041,3,13
13953,0.00025,-9e-05,-0.00016,-0.00025,-0.00026,-0.00026,0.00024,0.00041,3,13
13954,0.00025,-9e-05,-0.00016,-0.00025,-0.00026,-0.00026,0.00024,0.00041,3,13
13955,0.00025,-9e-05,-0.00016,-0.00025,-0.00026,-0.00026,0.00024,0.00041,3,13
13956,0.00025,-9e-05,-0.00016,-0.00025,-0.00026,-0.00026,0.00024,0.00041,3,13
13957,0.00025,-9e-05,-0.00016,-0.00025,-0.00026,-0.00026,0.00024,0.00041,3,13
13958,0.00025,-9e-05,-0.00016,-0.00025,-0.00026,-0.00026,0.00024,0.00041,3,13
13959,0.00025,-9e-05,-0.00016,-0.00025,-0.00026,-0.00026,0.00024,0.00041,3,13
13960,0.00025,-9e-05,-0.00016,-0.00025,-0.00026,-0.00026,0.00024,0.00041,3,13
13961,0.00025,-9e-05,-0.00016,-0.00025,-0.00026,-0.00026,0.00024,0.00041,3,13
13962,0.00025,-9e-05,-0.00016,-0.00025,-0.00026,-0.00026,0.00024,0.00041,3,13
13963,0.00025,-9e-05,-0.00016,-0.00025,-0.00026,-0.00026,0.00024,0.00041,3,13
13964,0.00025,-9e-05,-0.00016,-0.00025,-0.00026,-0.00026,0.00024,0.00041,3,13
13965,0.00025,-9e-05,-0.00016,-0.00025,-0.00026,-0.00026,0.00024,0.00041,3,13
13966,0.00039,2e-05,0,0.00025,-8e-05,-5e-05,-0.00037,8e-05,3,13
13967,0.00039,2e-05,0,0.00025,-8e-05,-5e-05,-0.00037,8e-05,3,13
13968,-0.0002,-6e-05,-2e-05,3e-05,-0.00017,2e-05,2e-05,-0.00019,3,13
13969,-0.0002,-6e-05,-2e-05,3e-05,-0.00017,2e-05,2e-05,-0.00019,3,13
13970,-0.0002,-6e-05,-2e-05,3e-05,-0.00017,2e-05,2e-05,-0.00019,3,13
13971,-0.0002,-6e-05,-2e-05,3e-05,-0.00017,2e-05,2e-05,-0.00019,3,13
13972,-0.0002,-6e-05,-2e-05,3e-05,-0.00017,2e-05,2e-05,-0.00019,3,13
13973,-0.0002,-6e-05,-2e-05,3e-05,-0.00017,2e-05,2e-05,-0.00019,3,13
13974,-0.0002,-6e-05,-2e-05,3e-05,-0.00017,2e-05,2e-05,-0.00019,3,13
13975,-0.0002,-6e-05,-2e-05,3e-05,-0.00017,2e-05,2e-05,-0.00019,3,13
13976,-0.0002,-6e-05,-2e-05,3e-05,-0.00017,2e-05,2e-05,-0.00019,3,13
13977,-0.0002,-6e-05,-2e-05,3e-05,-0.00017,2e-05,2e-05,-0.00019,3,13
13978,-0.0002,-6e-05,-2e-05,3e-05,-0.00017,2e-05,2e-05,-0.00019,3,13
13979,-0.0002,-6e-05,-2e-05,3e-05,-0.00017,2e-05,2e-05,-0.00019,3,13
13980,-0.00109,-0.00019,-6e-05,-0.00013,-0.00026,-6e-05,-0.00023,-0.00117,3,13
13981,-0.00109,-0.00019,-6e-05,-0.00013,-0.00026,-6e-05,-0.00023,-0.00117,3,13
13982,-0.00109,-0.00019,-6e-05,-0.00013,-0.00026,-6e-05,-0.00023,-0.00117,3,13
13983,-0.00109,-0.00019,-6e-05,-0.00013,-0.00026,-6e-05,-0.00023,-0.00117,3,13
13984,-0.00109,-0.00019,-6e-05,-0.00013,-0.00026,-6e-05,-0.00023,-0.00117,3,13
13985,-0.00109,-0.00019,-6e-05,-0.00013,-0.00026,-6e-05,-0.00023,-0.00117,3,13
13986,-0.00109,-0.00019,-6e-05,-0.00013,-0.00026,-6e-05,-0.00023,-0.00117,3,13
13989,-7e-05,9e-05,0.0001,0.00033,-0.00042,-6e-05,-0.00011,-0.0001,3,13
13990,-7e-05,9e-05,0.0001,0.00033,-0.00042,-6e-05,-0.00011,-0.0001,3,13
13992,-7e-05,9e-05,0.0001,0.00033,-0.00042,-6e-05,-0.00011,-0.0001,3,13
13993,-7e-05,9e-05,0.0001,0.00033,-0.00042,-6e-05,-0.00011,-0.0001,3,13
13994,-7e-05,9e-05,0.0001,0.00033,-0.00042,-6e-05,-0.00011,-0.0001,3,13
13995,-7e-05,9e-05,0.0001,0.00033,-0.00042,-6e-05,-0.00011,-0.0001,3,13
13996,-7e-05,9e-05,0.0001,0.00033,-0.00042,-6e-05,-0.00011,-0.0001,3,13
13997,-7e-05,9e-05,0.0001,0.00033,-0.00042,-6e-05,-0.00011,-0.0001,3,13
13998,-7e-05,9e-05,0.0001,0.00033,-0.00042,-6e-05,-0.00011,-0.0001,3,13
13999,-7e-05,9e-05,0.0001,0.00033,-0.00042,-6e-05,-0.00011,-0.0001,3,13
14000,-7e-05,9e-05,0.0001,0.00033,-0.00042,-6e-05,-0.00011,-0.0001,3,13
14001,-7e-05,9e-05,0.0001,0.00033,-0.00042,-6e-05,-0.00011,-0.0001,3,13
14002,-7e-05,9e-05,0.0001,0.00033,-0.00042,-6e-05,-0.00011,-0.0001,3,13
14003,-7e-05,9e-05,0.0001,0.00033,-0.00042,-6e-05,-0.00011,-0.0001,3,13
14004,-0.00031,7e-05,-6e-05,-0.00021,-8e-05,1e-05,-0.00052,-0.00061,3,13
14005,-6e-05,-7e-05,-1e-05,-0.0002,-0.00057,-6e-05,-0.00018,0.00028,3,13
14007,-6e-05,-7e-05,-1e-05,-0.0002,-0.00057,-6e-05,-0.00018,0.00028,3,13
14008,-6e-05,-7e-05,-1e-05,-0.0002,-0.00057,-6e-05,-0.00018,0.00028,3,13
14009,-6e-05,-7e-05,-1e-05,-0.0002,-0.00057,-6e-05,-0.00018,0.00028,3,13
14010,-6e-05,-7e-05,-1e-05,-0.0002,-0.00057,-6e-05,-0.00018,0.00028,3,13
14011,-6e-05,-7e-05,-1e-05,-0.0002,-0.00057,-6e-05,-0.00018,0.00028,3,13
14012,-6e-05,-7e-05,-1e-05,-0.0002,-0.00057,-6e-05,-0.00018,0.00028,3,13
14013,-6e-05,-7e-05,-1e-05,-0.0002,-0.00057,-6e-05,-0.00018,0.00028,3,13
14014,-6e-05,-7e-05,-1e-05,-0.0002,-0.00057,-6e-05,-0.00018,0.00028,3,13
14015,-6e-05,-7e-05,-1e-05,-0.0002,-0.00057,-6e-05,-0.00018,0.00028,3,13
14016,-6e-05,-7e-05,-1e-05,-0.0002,-0.00057,-6e-05,-0.00018,0.00028,3,13
14017,-6e-05,-7e-05,-1e-05,-0.0002,-0.00057,-6e-05,-0.00018,0.00028,3,13
14018,-6e-05,-7e-05,-1e-05,-0.0002,-0.00057,-6e-05,-0.00018,0.00028,3,13
14019,-6e-05,-7e-05,-1e-05,-0.0002,-0.00057,-6e-05,-0.00018,0.00028,3,13
14021,-6e-05,-7e-05,-1e-05,-0.0002,-0.00057,-6e-05,-0.00018,0.00028,3,13
14022,-6e-05,-7e-05,-1e-05,-0.0002,-0.00057,-6e-05,-0.00018,0.00028,3,13
14023,-6e-05,-7e-05,-1e-05,-0.0002,-0.00057,-6e-05,-0.00018,0.00028,3,13
14024,-6e-05,-7e-05,-1e-05,-0.0002,-0.00057,-6e-05,-0.00018,0.00028,3,13
14025,-6e-05,-7e-05,-1e-05,-0.0002,-0.00057,-6e-05,-0.00018,0.00028,3,13
14026,-6e-05,-7e-05,-1e-05,-0.0002,-0.00057,-6e-05,-0.00018,0.00028,3,13
14027,-6e-05,-7e-05,-1e-05,-0.0002,-0.00057,-6e-05,-0.00018,0.00028,3,13
14028,-6e-05,-7e-05,-1e-05,-0.0002,-0.00057,-6e-05,-0.00018,0.00028,3,13
14029,-6e-05,-7e-05,-1e-05,-0.0002,-0.00057,-6e-05,-0.00018,0.00028,3,13
14030,-6e-05,-7e-05,-1e-05,-0.0002,-0.00057,-6e-05,-0.00018,0.00028,3,13
14031,-6e-05,-7e-05,-1e-05,-0.0002,-0.00057,-6e-05,-0.00018,0.00028,3,13
14032,-6e-05,-7e-05,-1e-05,-0.0002,-0.00057,-6e-05,-0.00018,0.00028,3,13
14033,-6e-05,-7e-05,-1e-05,-0.0002,-0.00057,-6e-05,-0.00018,0.00028,3,13
14034,-0.00032,6e-05,9e-05,9e-05,0.00012,-6e-05,0.00016,5e-05,3,13
14035,0.00026,-5e-05,-4e-05,-0.00012,-0.00028,-0.00016,-0.00018,0.00083,3,13
14038,0.00026,-5e-05,-4e-05,-0.00012,-0.00028,-0.00016,-0.00018,0.00083,3,13
14040,0.00026,-5e-05,-4e-05,-0.00012,-0.00028,-0.00016,-0.00018,0.00083,3,13
14041,0.00026,-5e-05,-4e-05,-0.00012,-0.00028,-0.00016,-0.00018,0.00083,3,13
14042,0.00026,-5e-05,-4e-05,-0.00012,-0.00028,-0.00016,-0.00018,0.00083,3,13
14043,0.00026,-5e-05,-4e-05,-0.00012,-0.00028,-0.00016,-0.00018,0.00083,3,13
14044,0.00026,-5e-05,-4e-05,-0.00012,-0.00028,-0.00016,-0.00018,0.00083,3,13
14045,0.00026,-5e-05,-4e-05,-0.00012,-0.00028,-0.00016,-0.00018,0.00083,3,13
14046,0.00026,-5e-05,-4e-05,-0.00012,-0.00028,-0.00016,-0.00018,0.00083,3,13
14047,0.00026,-5e-05,-4e-05,-0.00012,-0.00028,-0.00016,-0.00018,0.00083,3,13
14048,0.00026,-5e-05,-4e-05,-0.00012,-0.00028,-0.00016,-0.00018,0.00083,3,13
14049,0.00064,-3e-05,-6e-05,-0.00014,0.00015,0.00015,0.00035,0.00083,3,13
14050,-0.00026,-2e-05,2e-05,9e-05,6e-05,-0.00013,-0.00024,-0.00028,3,13
14051,-0.00026,-2e-05,2e-05,9e-05,6e-05,-0.00013,-0.00024,-0.00028,3,13
14052,-0.00026,-2e-05,2e-05,9e-05,6e-05,-0.00013,-0.00024,-0.00028,3,13
14053,-0.00026,-2e-05,2e-05,9e-05,6e-05,-0.00013,-0.00024,-0.00028,3,13
14054,-0.00026,-2e-05,2e-05,9e-05,6e-05,-0.00013,-0.00024,-0.00028,3,13
14055,-0.00026,-2e-05,2e-05,9e-05,6e-05,-0.00013,-0.00024,-0.00028,3,13
14056,-0.00026,-2e-05,2e-05,9e-05,6e-05,-0.00013,-0.00024,-0.00028,3,13
14057,-0.00026,-2e-05,2e-05,9e-05,6e-05,-0.00013,-0.00024,-0.00028,3,13
14058,-0.00026,-2e-05,2e-05,9e-05,6e-05,-0.00013,-0.00024,-0.00028,3,13
14059,-0.00026,-2e-05,2e-05,9e-05,6e-05,-0.00013,-0.00024,-0.00028,3,13
14060,-0.00026,-2e-05,2e-05,9e-05,6e-05,-0.00013,-0.00024,-0.00028,3,13
14061,-0.00026,-2e-05,2e-05,9e-05,6e-05,-0.00013,-0.00024,-0.00028,3,13
14062,-0.00026,-2e-05,2e-05,9e-05,6e-05,-0.00013,-0.00024,-0.00028,3,13
14063,-0.00026,-2e-05,2e-05,9e-05,6e-05,-0.00013,-0.00024,-0.00028,3,13
14064,0.00075,0.00013,0.00014,0.00047,0.00053,2e-05,-9e-05,0.0002,3,13
14065,3e-05,5e-05,0.00012,0.00036,0.00119,0.00045,-0.00019,-0.00053,3,13
14067,3e-05,5e-05,0.00012,0.00036,0.00119,0.00045,-0.00019,-0.00053,3,13
14068,3e-05,5e-05,0.00012,0.00036,0.00119,0.00045,-0.00019,-0.00053,3,13
14069,3e-05,5e-05,0.00012,0.00036,0.00119,0.00045,-0.00019,-0.00053,3,13
14070,3e-05,5e-05,0.00012,0.00036,0.00119,0.00045,-0.00019,-0.00053,3,13
14071,3e-05,5e-05,0.00012,0.00036,0.00119,0.00045,-0.00019,-0.00053,3,13
14072,3e-05,5e-05,0.00012,0.00036,0.00119,0.00045,-0.00019,-0.00053,3,13
14073,3e-05,5e-05,0.00012,0.00036,0.00119,0.00045,-0.00019,-0.00053,3,13
14074,3e-05,5e-05,0.00012,0.00036,0.00119,0.00045,-0.00019,-0.00053,3,13
14075,3e-05,5e-05,0.00012,0.00036,0.00119,0.00045,-0.00019,-0.00053,3,13
14076,3e-05,5e-05,0.00012,0.00036,0.00119,0.00045,-0.00019,-0.00053,3,13
14077,3e-05,5e-05,0.00012,0.00036,0.00119,0.00045,-0.00019,-0.00053,3,13
14078,3e-05,5e-05,0.00012,0.00036,0.00119,0.00045,-0.00019,-0.00053,3,13
14079,3e-05,5e-05,0.00012,0.00036,0.00119,0.00045,-0.00019,-0.00053,3,13
14080,3e-05,5e-05,0.00012,0.00036,0.00119,0.00045,-0.00019,-0.00053,3,13
14081,3e-05,5e-05,0.00012,0.00036,0.00119,0.00045,-0.00019,-0.00053,3,13
14082,3e-05,5e-05,0.00012,0.00036,0.00119,0.00045,-0.00019,-0.00053,3,13
14083,3e-05,5e-05,0.00012,0.00036,0.00119,0.00045,-0.00019,-0.00053,3,13
14084,3e-05,5e-05,0.00012,0.00036,0.00119,0.00045,-0.00019,-0.00053,3,13
14085,3e-05,5e-05,0.00012,0.00036,0.00119,0.00045,-0.00019,-0.00053,3,13
14086,3e-05,5e-05,0.00012,0.00036,0.00119,0.00045,-0.00019,-0.00053,3,13
14088,3e-05,5e-05,0.00012,0.00036,0.00119,0.00045,-0.00019,-0.00053,3,13
14089,3e-05,5e-05,0.00012,0.00036,0.00119,0.00045,-0.00019,-0.00053,3,13
14090,3e-05,5e-05,0.00012,0.00036,0.00119,0.00045,-0.00019,-0.00053,3,13
14091,3e-05,5e-05,0.00012,0.00036,0.00119,0.00045,-0.00019,-0.00053,3,13
14092,3e-05,5e-05,0.00012,0.00036,0.00119,0.00045,-0.00019,-0.00053,3,13
14093,3e-05,5e-05,0.00012,0.00036,0.00119,0.00045,-0.00019,-0.00053,3,13
14094,0.00062,-2e-05,-2e-05,-0.00023,-0.00057,-9e-05,8e-05,0.00055,3,13
14095,-0.00071,2e-05,6e-05,2e-05,0.00026,-0.00024,6e-05,-0.00085,3,13
14096,-0.00071,2e-05,6e-05,2e-05,0.00026,-0.00024,6e-05,-0.00085,3,13
14097,-0.00071,2e-05,6e-05,2e-05,0.00026,-0.00024,6e-05,-0.00085,3,13
14098,-0.00071,2e-05,6e-05,2e-05,0.00026,-0.00024,6e-05,-0.00085,3,13
14099,-0.00071,2e-05,6e-05,2e-05,0.00026,-0.00024,6e-05,-0.00085,3,13
14100,-0.00071,2e-05,6e-05,2e-05,0.00026,-0.00024,6e-05,-0.00085,3,13
14101,-0.00071,2e-05,6e-05,2e-05,0.00026,-0.00024,6e-05,-0.00085,3,13
14102,-0.00071,2e-05,6e-05,2e-05,0.00026,-0.00024,6e-05,-0.00085,3,13
14103,-0.00071,2e-05,6e-05,2e-05,0.00026,-0.00024,6e-05,-0.00085,3,13
14104,-0.00071,2e-05,6e-05,2e-05,0.00026,-0.00024,6e-05,-0.00085,3,13
14105,-0.00071,2e-05,6e-05,2e-05,0.00026,-0.00024,6e-05,-0.00085,3,13
14106,-0.00071,2e-05,6e-05,2e-05,0.00026,-0.00024,6e-05,-0.00085,3,13
14107,-0.00071,2e-05,6e-05,2e-05,0.00026,-0.00024,6e-05,-0.00085,3,13
14108,-0.00071,2e-05,6e-05,2e-05,0.00026,-0.00024,6e-05,-0.00085,3,13
14109,-0.00086,-4e-05,-1e-05,-0.00021,-0.00068,-0.0002,-0.00048,-0.00091,3,13
14110,0.00025,0,2e-05,0.00028,0.00078,9e-05,9e-05,0.00069,3,13
14111,0.00056,-4e-05,-6e-05,-8e-05,-0.0005,-0.00015,-0.00026,-8e-05,3,13
14112,0.00056,-4e-05,-6e-05,-8e-05,-0.0005,-0.00015,-0.00026,-8e-05,3,13
14113,0.00056,-4e-05,-6e-05,-8e-05,-0.0005,-0.00015,-0.00026,-8e-05,3,13
14114,0.00056,-4e-05,-6e-05,-8e-05,-0.0005,-0.00015,-0.00026,-8e-05,3,13
14115,0.00056,-4e-05,-6e-05,-8e-05,-0.0005,-0.00015,-0.00026,-8e-05,3,13
14116,0.00056,-4e-05,-6e-05,-8e-05,-0.0005,-0.00015,-0.00026,-8e-05,3,13
14117,0.00056,-4e-05,-6e-05,-8e-05,-0.0005,-0.00015,-0.00026,-8e-05,3,13
14118,0.00056,-4e-05,-6e-05,-8e-05,-0.0005,-0.00015,-0.00026,-8e-05,3,13
14119,0.00056,-4e-05,-6e-05,-8e-05,-0.0005,-0.00015,-0.00026,-8e-05,3,13
14120,0.00056,-4e-05,-6e-05,-8e-05,-0.0005,-0.00015,-0.00026,-8e-05,3,13
14121,0.00056,-4e-05,-6e-05,-8e-05,-0.0005,-0.00015,-0.00026,-8e-05,3,13
14122,0.00056,-4e-05,-6e-05,-8e-05,-0.0005,-0.00015,-0.00026,-8e-05,3,13
14123,2e-05,-5e-05,-0.00011,-0.00039,-0.00046,0,0.00011,-2e-05,3,13
14124,0.00047,8e-05,5e-05,-0.00021,-7e-05,2e-05,0.00085,0.00049,3,13
14125,0.00047,8e-05,5e-05,-0.00021,-7e-05,2e-05,0.00085,0.00049,3,13
14126,0.00047,8e-05,5e-05,-0.00021,-7e-05,2e-05,0.00085,0.00049,3,13
14127,0.00047,8e-05,5e-05,-0.00021,-7e-05,2e-05,0.00085,0.00049,3,13
14128,0.00047,8e-05,5e-05,-0.00021,-7e-05,2e-05,0.00085,0.00049,3,13
14129,0.00047,8e-05,5e-05,-0.00021,-7e-05,2e-05,0.00085,0.00049,3,13
14130,3e-05,0,-8e-05,0.00016,0.00042,9e-05,-0.00011,0.00013,3,13
14131,3e-05,0,-8e-05,0.00016,0.00042,9e-05,-0.00011,0.00013,3,13
14132,3e-05,0,-8e-05,0.00016,0.00042,9e-05,-0.00011,0.00013,3,13
14133,3e-05,0,-8e-05,0.00016,0.00042,9e-05,-0.00011,0.00013,3,13
14134,3e-05,0,-8e-05,0.00016,0.00042,9e-05,-0.00011,0.00013,3,13
14135,3e-05,0,-8e-05,0.00016,0.00042,9e-05,-0.00011,0.00013,3,13
14136,3e-05,0,-8e-05,0.00016,0.00042,9e-05,-0.00011,0.00013,3,13
14139,3e-05,0,-8e-05,0.00016,0.00042,9e-05,-0.00011,0.00013,3,13
14140,3e-05,0,-8e-05,0.00016,0.00042,9e-05,-0.00011,0.00013,3,13
14141,3e-05,0,-8e-05,0.00016,0.00042,9e-05,-0.00011,0.00013,3,13
14142,3e-05,0,-8e-05,0.00016,0.00042,9e-05,-0.00011,0.00013,3,13
14143,3e-05,0,-8e-05,0.00016,0.00042,9e-05,-0.00011,0.00013,3,13
14144,3e-05,0,-8e-05,0.00016,0.00042,9e-05,-0.00011,0.00013,3,13
14145,3e-05,0,-8e-05,0.00016,0.00042,9e-05,-0.00011,0.00013,3,13
14146,0.00017,-2e-05,-0.00011,-0.00021,-4e-05,-0.00012,-0.0001,-4e-05,3,13
14147,0.00017,-2e-05,-0.00011,-0.00021,-4e-05,-0.00012,-0.0001,-4e-05,3,13
14148,0.00041,-3e-05,-7e-05,-0.00035,-0.00065,-2e-05,0.00024,0.00065,3,13
14149,0.00041,-3e-05,-7e-05,-0.00035,-0.00065,-2e-05,0.00024,0.00065,3,13
14150,0.00041,-3e-05,-7e-05,-0.00035,-0.00065,-2e-05,0.00024,0.00065,3,13
14151,0.00041,-3e-05,-7e-05,-0.00035,-0.00065,-2e-05,0.00024,0.00065,3,13
14152,0.00041,-3e-05,-7e-05,-0.00035,-0.00065,-2e-05,0.00024,0.00065,3,13
14153,0.00041,-3e-05,-7e-05,-0.00035,-0.00065,-2e-05,0.00024,0.00065,3,13
14154,0.00041,-3e-05,-7e-05,-0.00035,-0.00065,-2e-05,0.00024,0.00065,3,13
14155,0.00041,-3e-05,-7e-05,-0.00035,-0.00065,-2e-05,0.00024,0.00065,3,13
14156,0.00041,-3e-05,-7e-05,-0.00035,-0.00065,-2e-05,0.00024,0.00065,3,13
14157,0.00041,-3e-05,-7e-05,-0.00035,-0.00065,-2e-05,0.00024,0.00065,3,13
14158,0.00041,-3e-05,-7e-05,-0.00035,-0.00065,-2e-05,0.00024,0.00065,3,13
14159,0.00041,-3e-05,-7e-05,-0.00035,-0.00065,-2e-05,0.00024,0.00065,3,13
14160,0.00041,-3e-05,-7e-05,-0.00035,-0.00065,-2e-05,0.00024,0.00065,3,13
14161,0.00041,-3e-05,-7e-05,-0.00035,-0.00065,-2e-05,0.00024,0.00065,3,13
14162,0.00041,-3e-05,-7e-05,-0.00035,-0.00065,-2e-05,0.00024,0.00065,3,13
14163,0.00041,-3e-05,-7e-05,-0.00035,-0.00065,-2e-05,0.00024,0.00065,3,13
14164,0.00041,-3e-05,-7e-05,-0.00035,-0.00065,-2e-05,0.00024,0.00065,3,13
14165,0.00041,-3e-05,-7e-05,-0.00035,-0.00065,-2e-05,0.00024,0.00065,3,13
14166,0.00041,-3e-05,-7e-05,-0.00035,-0.00065,-2e-05,0.00024,0.00065,3,13
14167,0.00041,-3e-05,-7e-05,-0.00035,-0.00065,-2e-05,0.00024,0.00065,3,13
14168,0.00041,-3e-05,-7e-05,-0.00035,-0.00065,-2e-05,0.00024,0.00065,3,13
14169,-0.00014,-5e-05,-9e-05,-0.00017,-0.00017,0,0.00027,0.0001,3,13
14170,-0.00014,-5e-05,-9e-05,-0.00017,-0.00017,0,0.00027,0.0001,3,13
14171,-0.00032,-0.0001,1e-05,0.00019,0.00048,0.00021,-3e-05,-0.00046,3,13
14172,-0.00032,-0.0001,1e-05,0.00019,0.00048,0.00021,-3e-05,-0.00046,3,13
14173,-0.00032,-0.0001,1e-05,0.00019,0.00048,0.00021,-3e-05,-0.00046,3,13
14174,-0.00032,-0.0001,1e-05,0.00019,0.00048,0.00021,-3e-05,-0.00046,3,13
14175,-0.00032,-0.0001,1e-05,0.00019,0.00048,0.00021,-3e-05,-0.00046,3,13
14176,-0.00032,-0.0001,1e-05,0.00019,0.00048,0.00021,-3e-05,-0.00046,3,13
14177,-0.00032,-0.0001,1e-05,0.00019,0.00048,0.00021,-3e-05,-0.00046,3,13
14178,-0.00032,-0.0001,1e-05,0.00019,0.00048,0.00021,-3e-05,-0.00046,3,13
14179,-0.00032,-0.0001,1e-05,0.00019,0.00048,0.00021,-3e-05,-0.00046,3,13
14180,-0.00032,-0.0001,1e-05,0.00019,0.00048,0.00021,-3e-05,-0.00046,3,13
14181,-0.00032,-0.0001,1e-05,0.00019,0.00048,0.00021,-3e-05,-0.00046,3,13
14182,-0.00032,-0.0001,1e-05,0.00019,0.00048,0.00021,-3e-05,-0.00046,3,13
14183,6e-05,4e-05,-3e-05,0.00023,0.00091,0.00015,-0.00027,9e-05,3,13
14184,6e-05,4e-05,-3e-05,0.00023,0.00091,0.00015,-0.00027,9e-05,3,13
14185,6e-05,4e-05,-3e-05,0.00023,0.00091,0.00015,-0.00027,9e-05,3,13
14186,6e-05,4e-05,-3e-05,0.00023,0.00091,0.00015,-0.00027,9e-05,3,13
14189,6e-05,4e-05,-3e-05,0.00023,0.00091,0.00015,-0.00027,9e-05,3,13
14190,-1e-05,-0.00015,-0.00015,-0.00047,-0.00062,-0.0002,-5e-05,3e-05,3,13
14191,-1e-05,-0.00015,-0.00015,-0.00047,-0.00062,-0.0002,-5e-05,3e-05,3,13
14192,-1e-05,-0.00015,-0.00015,-0.00047,-0.00062,-0.0002,-5e-05,3e-05,3,13
14193,-1e-05,-0.00015,-0.00015,-0.00047,-0.00062,-0.0002,-5e-05,3e-05,3,13
14194,-1e-05,-0.00015,-0.00015,-0.00047,-0.00062,-0.0002,-5e-05,3e-05,3,13
14195,-1e-05,-0.00015,-0.00015,-0.00047,-0.00062,-0.0002,-5e-05,3e-05,3,13
14196,-1e-05,-0.00015,-0.00015,-0.00047,-0.00062,-0.0002,-5e-05,3e-05,3,13
14197,-1e-05,-0.00015,-0.00015,-0.00047,-0.00062,-0.0002,-5e-05,3e-05,3,13
14198,-1e-05,-0.00015,-0.00015,-0.00047,-0.00062,-0.0002,-5e-05,3e-05,3,13
14199,-1e-05,-0.00015,-0.00015,-0.00047,-0.00062,-0.0002,-5e-05,3e-05,3,13
14200,-1e-05,-0.00015,-0.00015,-0.00047,-0.00062,-0.0002,-5e-05,3e-05,3,13
14201,-1e-05,-0.00015,-0.00015,-0.00047,-0.00062,-0.0002,-5e-05,3e-05,3,13
14202,-1e-05,-0.00015,-0.00015,-0.00047,-0.00062,-0.0002,-5e-05,3e-05,3,13
14203,-1e-05,-0.00015,-0.00015,-0.00047,-0.00062,-0.0002,-5e-05,3e-05,3,13
14204,-1e-05,-0.00015,-0.00015,-0.00047,-0.00062,-0.0002,-5e-05,3e-05,3,13
14205,-1e-05,-0.00015,-0.00015,-0.00047,-0.00062,-0.0002,-5e-05,3e-05,3,13
14206,-0.00028,-7e-05,9e-05,0.00038,7e-05,-2e-05,-0.00011,0.00017,3,13
14207,-0.00028,-7e-05,9e-05,0.00038,7e-05,-2e-05,-0.00011,0.00017,3,13
14208,-0.00074,2e-05,7e-05,2e-05,3e-05,6e-05,7e-05,-0.00037,3,13
14209,-0.00074,2e-05,7e-05,2e-05,3e-05,6e-05,7e-05,-0.00037,3,13
14210,-0.00074,2e-05,7e-05,2e-05,3e-05,6e-05,7e-05,-0.00037,3,13
14211,-0.00074,2e-05,7e-05,2e-05,3e-05,6e-05,7e-05,-0.00037,3,13
14212,-0.00074,2e-05,7e-05,2e-05,3e-05,6e-05,7e-05,-0.00037,3,13
14213,-0.00074,2e-05,7e-05,2e-05,3e-05,6e-05,7e-05,-0.00037,3,13
14214,-0.00074,2e-05,7e-05,2e-05,3e-05,6e-05,7e-05,-0.00037,3,13
14215,-0.00074,2e-05,7e-05,2e-05,3e-05,6e-05,7e-05,-0.00037,3,13
14216,-0.00074,2e-05,7e-05,2e-05,3e-05,6e-05,7e-05,-0.00037,3,13
14217,-0.00074,2e-05,7e-05,2e-05,3e-05,6e-05,7e-05,-0.00037,3,13
14218,-0.00074,2e-05,7e-05,2e-05,3e-05,6e-05,7e-05,-0.00037,3,13
14219,-0.00074,2e-05,7e-05,2e-05,3e-05,6e-05,7e-05,-0.00037,3,13
14220,-0.00074,2e-05,7e-05,2e-05,3e-05,6e-05,7e-05,-0.00037,3,13
14221,-0.00074,2e-05,7e-05,2e-05,3e-05,6e-05,7e-05,-0.00037,3,13
14222,-0.00074,2e-05,7e-05,2e-05,3e-05,6e-05,7e-05,-0.00037,3,13
14223,-0.00074,2e-05,7e-05,2e-05,3e-05,6e-05,7e-05,-0.00037,3,13
14224,-0.00074,2e-05,7e-05,2e-05,3e-05,6e-05,7e-05,-0.00037,3,13
14225,-0.00074,2e-05,7e-05,2e-05,3e-05,6e-05,7e-05,-0.00037,3,13
14226,-0.00074,2e-05,7e-05,2e-05,3e-05,6e-05,7e-05,-0.00037,3,13
14227,-0.00074,2e-05,7e-05,2e-05,3e-05,6e-05,7e-05,-0.00037,3,13
14228,-0.00074,2e-05,7e-05,2e-05,3e-05,6e-05,7e-05,-0.00037,3,13
14229,0.00052,4e-05,6e-05,3e-05,0.00032,2e-05,-0.00013,-0.00057,3,13
14230,0.00025,3e-05,4e-05,0.00013,-0.00011,7e-05,0.00036,0.00065,3,13
14231,0.00025,3e-05,4e-05,0.00013,-0.00011,7e-05,0.00036,0.00065,3,13
14232,0.00025,3e-05,4e-05,0.00013,-0.00011,7e-05,0.00036,0.00065,3,13
14233,0.00025,3e-05,4e-05,0.00013,-0.00011,7e-05,0.00036,0.00065,3,13
14234,0.00025,3e-05,4e-05,0.00013,-0.00011,7e-05,0.00036,0.00065,3,13
14235,0.00025,3e-05,4e-05,0.00013,-0.00011,7e-05,0.00036,0.00065,3,13
14236,0.00025,3e-05,4e-05,0.00013,-0.00011,7e-05,0.00036,0.00065,3,13
14239,0.00025,3e-05,4e-05,0.00013,-0.00011,7e-05,0.00036,0.00065,3,13
14240,0.00025,3e-05,4e-05,0.00013,-0.00011,7e-05,0.00036,0.00065,3,13
14241,0.00025,3e-05,4e-05,0.00013,-0.00011,7e-05,0.00036,0.00065,3,13
14242,0.00025,3e-05,4e-05,0.00013,-0.00011,7e-05,0.00036,0.00065,3,13
14243,0.00019,-3e-05,-4e-05,0.00034,0.00041,0.00024,-0.00018,0.00032,3,13
14244,0.00019,-3e-05,-4e-05,0.00034,0.00041,0.00024,-0.00018,0.00032,3,13
14245,0.00019,-3e-05,-4e-05,0.00034,0.00041,0.00024,-0.00018,0.00032,3,13
14246,0.00019,-3e-05,-4e-05,0.00034,0.00041,0.00024,-0.00018,0.00032,3,13
14247,0.00019,-3e-05,-4e-05,0.00034,0.00041,0.00024,-0.00018,0.00032,3,13
14248,0.00019,-3e-05,-4e-05,0.00034,0.00041,0.00024,-0.00018,0.00032,3,13
14249,0.00019,-3e-05,-4e-05,0.00034,0.00041,0.00024,-0.00018,0.00032,3,13
14250,0.00036,7e-05,-3e-05,-0.00013,-0.0004,-0.00013,-0.0001,-0.00015,3,13
14251,0.00036,7e-05,-3e-05,-0.00013,-0.0004,-0.00013,-0.0001,-0.00015,3,13
14252,0.00036,7e-05,-3e-05,-0.00013,-0.0004,-0.00013,-0.0001,-0.00015,3,13
14253,0.00036,7e-05,-3e-05,-0.00013,-0.0004,-0.00013,-0.0001,-0.00015,3,13
14254,0.00036,7e-05,-3e-05,-0.00013,-0.0004,-0.00013,-0.0001,-0.00015,3,13
14255,0.00036,7e-05,-3e-05,-0.00013,-0.0004,-0.00013,-0.0001,-0.00015,3,13
14256,0.00036,7e-05,-3e-05,-0.00013,-0.0004,-0.00013,-0.0001,-0.00015,3,13
14257,0.00036,7e-05,-3e-05,-0.00013,-0.0004,-0.00013,-0.0001,-0.00015,3,13
14258,0.00036,7e-05,-3e-05,-0.00013,-0.0004,-0.00013,-0.0001,-0.00015,3,13
14259,0.00036,7e-05,-3e-05,-0.00013,-0.0004,-0.00013,-0.0001,-0.00015,3,13
14260,0.00036,7e-05,-3e-05,-0.00013,-0.0004,-0.00013,-0.0001,-0.00015,3,13
14261,0.00036,7e-05,-3e-05,-0.00013,-0.0004,-0.00013,-0.0001,-0.00015,3,13
14262,0.00036,7e-05,-3e-05,-0.00013,-0.0004,-0.00013,-0.0001,-0.00015,3,13
14263,0.00036,7e-05,-3e-05,-0.00013,-0.0004,-0.00013,-0.0001,-0.00015,3,13
14264,0.00036,7e-05,-3e-05,-0.00013,-0.0004,-0.00013,-0.0001,-0.00015,3,13
14265,0.00036,7e-05,-3e-05,-0.00013,-0.0004,-0.00013,-0.0001,-0.00015,3,13
14266,-0.00046,-6e-05,-6e-05,-0.00035,-0.00046,-0.00014,-0.00028,-2e-05,3,13
14267,-0.00046,-6e-05,-6e-05,-0.00035,-0.00046,-0.00014,-0.00028,-2e-05,3,13
14268,6e-05,2e-05,8e-05,0.00043,0.00081,0.00019,0.00013,0.00016,3,13
14269,6e-05,2e-05,8e-05,0.00043,0.00081,0.00019,0.00013,0.00016,3,13
14270,6e-05,2e-05,8e-05,0.00043,0.00081,0.00019,0.00013,0.00016,3,13
14271,6e-05,2e-05,8e-05,0.00043,0.00081,0.00019,0.00013,0.00016,3,13
14272,6e-05,2e-05,8e-05,0.00043,0.00081,0.00019,0.00013,0.00016,3,13
14273,6e-05,2e-05,8e-05,0.00043,0.00081,0.00019,0.00013,0.00016,3,13
14274,6e-05,2e-05,8e-05,0.00043,0.00081,0.00019,0.00013,0.00016,3,13
14275,6e-05,2e-05,8e-05,0.00043,0.00081,0.00019,0.00013,0.00016,3,13
14276,6e-05,2e-05,8e-05,0.00043,0.00081,0.00019,0.00013,0.00016,3,13
14277,6e-05,2e-05,8e-05,0.00043,0.00081,0.00019,0.00013,0.00016,3,13
14278,6e-05,2e-05,8e-05,0.00043,0.00081,0.00019,0.00013,0.00016,3,13
14279,6e-05,2e-05,8e-05,0.00043,0.00081,0.00019,0.00013,0.00016,3,13
14280,6e-05,2e-05,8e-05,0.00043,0.00081,0.00019,0.00013,0.00016,3,13
14281,6e-05,2e-05,8e-05,0.00043,0.00081,0.00019,0.00013,0.00016,3,13
14282,6e-05,2e-05,8e-05,0.00043,0.00081,0.00019,0.00013,0.00016,3,13
14283,6e-05,2e-05,8e-05,0.00043,0.00081,0.00019,0.00013,0.00016,3,13
14284,6e-05,2e-05,8e-05,0.00043,0.00081,0.00019,0.00013,0.00016,3,13
14285,6e-05,2e-05,8e-05,0.00043,0.00081,0.00019,0.00013,0.00016,3,13
14286,6e-05,2e-05,8e-05,0.00043,0.00081,0.00019,0.00013,0.00016,3,13
14289,0.00062,2e-05,3e-05,-0.00012,-0.00047,4e-05,2e-05,0.00072,3,13
14290,-0.00018,6e-05,0,-4e-05,-0.00036,-7e-05,-0.00021,-0.00016,3,13
14291,-0.00018,6e-05,0,-4e-05,-0.00036,-7e-05,-0.00021,-0.00016,3,13
14292,-0.00018,6e-05,0,-4e-05,-0.00036,-7e-05,-0.00021,-0.00016,3,13
14293,-0.00018,6e-05,0,-4e-05,-0.00036,-7e-05,-0.00021,-0.00016,3,13
14294,-0.00018,6e-05,0,-4e-05,-0.00036,-7e-05,-0.00021,-0.00016,3,13
14295,-0.00018,6e-05,0,-4e-05,-0.00036,-7e-05,-0.00021,-0.00016,3,13
14296,-0.00018,6e-05,0,-4e-05,-0.00036,-7e-05,-0.00021,-0.00016,3,13
14297,-0.00018,6e-05,0,-4e-05,-0.00036,-7e-05,-0.00021,-0.00016,3,13
14298,-0.00018,6e-05,0,-4e-05,-0.00036,-7e-05,-0.00021,-0.00016,3,13
14299,-0.00018,6e-05,0,-4e-05,-0.00036,-7e-05,-0.00021,-0.00016,3,13
14300,-0.00018,6e-05,0,-4e-05,-0.00036,-7e-05,-0.00021,-0.00016,3,13
14301,-0.00018,6e-05,0,-4e-05,-0.00036,-7e-05,-0.00021,-0.00016,3,13
14303,0.0001,2e-05,-3e-05,-0.0003,-0.00042,-9e-05,0.00033,-0.00016,3,13
14304,0.0001,2e-05,-3e-05,-0.0003,-0.00042,-9e-05,0.00033,-0.00016,3,13
14305,0.0001,2e-05,-3e-05,-0.0003,-0.00042,-9e-05,0.00033,-0.00016,3,13
14306,0.0001,2e-05,-3e-05,-0.0003,-0.00042,-9e-05,0.00033,-0.00016,3,13
14307,0.0001,2e-05,-3e-05,-0.0003,-0.00042,-9e-05,0.00033,-0.00016,3,13
14308,0.0001,2e-05,-3e-05,-0.0003,-0.00042,-9e-05,0.00033,-0.00016,3,13
14309,0.0001,2e-05,-3e-05,-0.0003,-0.00042,-9e-05,0.00033,-0.00016,3,13
14310,0.0004,2e-05,-4e-05,-3e-05,-1e-05,0.00013,0.0002,0.0002,3,13
14311,0.0004,2e-05,-4e-05,-3e-05,-1e-05,0.00013,0.0002,0.0002,3,13
14312,0.0004,2e-05,-4e-05,-3e-05,-1e-05,0.00013,0.0002,0.0002,3,13
14313,0.0004,2e-05,-4e-05,-3e-05,-1e-05,0.00013,0.0002,0.0002,3,13
14314,0.0004,2e-05,-4e-05,-3e-05,-1e-05,0.00013,0.0002,0.0002,3,13
14315,0.0004,2e-05,-4e-05,-3e-05,-1e-05,0.00013,0.0002,0.0002,3,13
14316,0.0004,2e-05,-4e-05,-3e-05,-1e-05,0.00013,0.0002,0.0002,3,13
14317,0.0004,2e-05,-4e-05,-3e-05,-1e-05,0.00013,0.0002,0.0002,3,13
14318,0.0004,2e-05,-4e-05,-3e-05,-1e-05,0.00013,0.0002,0.0002,3,13
14319,0.0004,2e-05,-4e-05,-3e-05,-1e-05,0.00013,0.0002,0.0002,3,13
14320,0.0004,2e-05,-4e-05,-3e-05,-1e-05,0.00013,0.0002,0.0002,3,13
14321,0.0004,2e-05,-4e-05,-3e-05,-1e-05,0.00013,0.0002,0.0002,3,13
14322,0.0004,2e-05,-4e-05,-3e-05,-1e-05,0.00013,0.0002,0.0002,3,13
14323,0.0004,2e-05,-4e-05,-3e-05,-1e-05,0.00013,0.0002,0.0002,3,13
14324,0.0004,2e-05,-4e-05,-3e-05,-1e-05,0.00013,0.0002,0.0002,3,13
14325,0.0004,2e-05,-4e-05,-3e-05,-1e-05,0.00013,0.0002,0.0002,3,13
14326,0.00014,-2e-05,-1e-05,0.00017,-5e-05,-7e-05,-0.00024,-0.0004,3,13
14327,0.00014,-2e-05,-1e-05,0.00017,-5e-05,-7e-05,-0.00024,-0.0004,3,13
14328,-0.00066,-0.00015,-7e-05,-0.00012,-0.00015,-0.00025,-9e-05,-0.00044,3,13
14329,-0.00066,-0.00015,-7e-05,-0.00012,-0.00015,-0.00025,-9e-05,-0.00044,3,13
14330,-0.00066,-0.00015,-7e-05,-0.00012,-0.00015,-0.00025,-9e-05,-0.00044,3,13
14331,-0.00066,-0.00015,-7e-05,-0.00012,-0.00015,-0.00025,-9e-05,-0.00044,3,13
14332,-0.00066,-0.00015,-7e-05,-0.00012,-0.00015,-0.00025,-9e-05,-0.00044,3,13
14333,-0.00066,-0.00015,-7e-05,-0.00012,-0.00015,-0.00025,-9e-05,-0.00044,3,13
14334,-0.00066,-0.00015,-7e-05,-0.00012,-0.00015,-0.00025,-9e-05,-0.00044,3,13
14335,-0.00066,-0.00015,-7e-05,-0.00012,-0.00015,-0.00025,-9e-05,-0.00044,3,13
14336,-0.00066,-0.00015,-7e-05,-0.00012,-0.00015,-0.00025,-9e-05,-0.00044,3,13
14339,-0.00066,-0.00015,-7e-05,-0.00012,-0.00015,-0.00025,-9e-05,-0.00044,3,13
14340,-0.00066,-0.00015,-7e-05,-0.00012,-0.00015,-0.00025,-9e-05,-0.00044,3,13
14341,-0.00066,-0.00015,-7e-05,-0.00012,-0.00015,-0.00025,-9e-05,-0.00044,3,13
14342,-0.00066,-0.00015,-7e-05,-0.00012,-0.00015,-0.00025,-9e-05,-0.00044,3,13
14343,-0.00066,-0.00015,-7e-05,-0.00012,-0.00015,-0.00025,-9e-05,-0.00044,3,13
14344,-0.00066,-0.00015,-7e-05,-0.00012,-0.00015,-0.00025,-9e-05,-0.00044,3,13
14345,-0.00066,-0.00015,-7e-05,-0.00012,-0.00015,-0.00025,-9e-05,-0.00044,3,13
14346,-0.00066,-0.00015,-7e-05,-0.00012,-0.00015,-0.00025,-9e-05,-0.00044,3,13
14347,-0.00066,-0.00015,-7e-05,-0.00012,-0.00015,-0.00025,-9e-05,-0.00044,3,13
14348,0.00048,4e-05,5e-05,-1e-05,-0.00038,-1e-05,-0.00036,0.00044,3,13
14349,-0.00038,1e-05,-2e-05,0.00022,3e-05,4e-05,0.00013,0.0001,3,13
14350,0.00059,9e-05,5e-05,0.00025,9e-05,0,-3e-05,0.00102,3,13
14351,0.00059,9e-05,5e-05,0.00025,9e-05,0,-3e-05,0.00102,3,13
14352,0.00059,9e-05,5e-05,0.00025,9e-05,0,-3e-05,0.00102,3,13
14353,0.00059,9e-05,5e-05,0.00025,9e-05,0,-3e-05,0.00102,3,13
14354,0.00059,9e-05,5e-05,0.00025,9e-05,0,-3e-05,0.00102,3,13
14355,0.00059,9e-05,5e-05,0.00025,9e-05,0,-3e-05,0.00102,3,13
14356,0.00059,9e-05,5e-05,0.00025,9e-05,0,-3e-05,0.00102,3,13
14357,0.00059,9e-05,5e-05,0.00025,9e-05,0,-3e-05,0.00102,3,13
14358,0.00059,9e-05,5e-05,0.00025,9e-05,0,-3e-05,0.00102,3,13
14359,0.00059,9e-05,5e-05,0.00025,9e-05,0,-3e-05,0.00102,3,13
14360,0.00059,9e-05,5e-05,0.00025,9e-05,0,-3e-05,0.00102,3,13
14361,0.00059,9e-05,5e-05,0.00025,9e-05,0,-3e-05,0.00102,3,13
14362,0.00059,9e-05,5e-05,0.00025,9e-05,0,-3e-05,0.00102,3,13
14363,0.00059,9e-05,5e-05,0.00025,9e-05,0,-3e-05,0.00102,3,13
14364,0.00065,-4e-05,-6e-05,-0.00014,-0.0002,-0.00011,0.00013,0.00035,3,13
14365,0.00065,-4e-05,-6e-05,-0.00014,-0.0002,-0.00011,0.00013,0.00035,3,13
14366,0.00065,-4e-05,-6e-05,-0.00014,-0.0002,-0.00011,0.00013,0.00035,3,13
14367,0.00065,-4e-05,-6e-05,-0.00014,-0.0002,-0.00011,0.00013,0.00035,3,13
14368,0.00065,-4e-05,-6e-05,-0.00014,-0.0002,-0.00011,0.00013,0.00035,3,13
14369,0.00065,-4e-05,-6e-05,-0.00014,-0.0002,-0.00011,0.00013,0.00035,3,13
14370,0.00021,-5e-05,-5e-05,-0.00041,-0.00067,-0.00017,-0.00039,-0.00012,3,13
14371,0.00021,-5e-05,-5e-05,-0.00041,-0.00067,-0.00017,-0.00039,-0.00012,3,13
14372,0.00021,-5e-05,-5e-05,-0.00041,-0.00067,-0.00017,-0.00039,-0.00012,3,13
14373,0.00021,-5e-05,-5e-05,-0.00041,-0.00067,-0.00017,-0.00039,-0.00012,3,13
14374,0.00021,-5e-05,-5e-05,-0.00041,-0.00067,-0.00017,-0.00039,-0.00012,3,13
14375,0.00021,-5e-05,-5e-05,-0.00041,-0.00067,-0.00017,-0.00039,-0.00012,3,13
14376,0.00021,-5e-05,-5e-05,-0.00041,-0.00067,-0.00017,-0.00039,-0.00012,3,13
14377,0.00021,-5e-05,-5e-05,-0.00041,-0.00067,-0.00017,-0.00039,-0.00012,3,13
14378,0.00021,-5e-05,-5e-05,-0.00041,-0.00067,-0.00017,-0.00039,-0.00012,3,13
14379,0.00021,-5e-05,-5e-05,-0.00041,-0.00067,-0.00017,-0.00039,-0.00012,3,13
14380,0.00021,-5e-05,-5e-05,-0.00041,-0.00067,-0.00017,-0.00039,-0.00012,3,13
14381,0.00021,-5e-05,-5e-05,-0.00041,-0.00067,-0.00017,-0.00039,-0.00012,3,13
14382,0.00021,-5e-05,-5e-05,-0.00041,-0.00067,-0.00017,-0.00039,-0.00012,3,13
14383,0.00021,-5e-05,-5e-05,-0.00041,-0.00067,-0.00017,-0.00039,-0.00012,3,13
14384,0.00021,-5e-05,-5e-05,-0.00041,-0.00067,-0.00017,-0.00039,-0.00012,3,13
14385,0.00021,-5e-05,-5e-05,-0.00041,-0.00067,-0.00017,-0.00039,-0.00012,3,13
14386,-0.00039,-1e-05,-7e-05,-0.00031,3e-05,0.0001,0,-0.00051,3,13
14389,-9e-05,-8e-05,-2e-05,-6e-05,-0.00023,-0.00015,-5e-05,-0.00014,3,13
14390,-9e-05,-8e-05,-2e-05,-6e-05,-0.00023,-0.00015,-5e-05,-0.00014,3,13
14391,-9e-05,-8e-05,-2e-05,-6e-05,-0.00023,-0.00015,-5e-05,-0.00014,3,13
14392,-9e-05,-8e-05,-2e-05,-6e-05,-0.00023,-0.00015,-5e-05,-0.00014,3,13
14393,-9e-05,-8e-05,-2e-05,-6e-05,-0.00023,-0.00015,-5e-05,-0.00014,3,13
14394,-9e-05,-8e-05,-2e-05,-6e-05,-0.00023,-0.00015,-5e-05,-0.00014,3,13
14395,-9e-05,-8e-05,-2e-05,-6e-05,-0.00023,-0.00015,-5e-05,-0.00014,3,13
14396,-9e-05,-8e-05,-2e-05,-6e-05,-0.00023,-0.00015,-5e-05,-0.00014,3,13
14397,-9e-05,-8e-05,-2e-05,-6e-05,-0.00023,-0.00015,-5e-05,-0.00014,3,13
14398,-9e-05,-8e-05,-2e-05,-6e-05,-0.00023,-0.00015,-5e-05,-0.00014,3,13
14399,-9e-05,-8e-05,-2e-05,-6e-05,-0.00023,-0.00015,-5e-05,-0.00014,3,13
14400,-9e-05,-8e-05,-2e-05,-6e-05,-0.00023,-0.00015,-5e-05,-0.00014,3,13
14401,-9e-05,-8e-05,-2e-05,-6e-05,-0.00023,-0.00015,-5e-05,-0.00014,3,13
14402,-9e-05,-8e-05,-2e-05,-6e-05,-0.00023,-0.00015,-5e-05,-0.00014,3,13
14403,-9e-05,-8e-05,-2e-05,-6e-05,-0.00023,-0.00015,-5e-05,-0.00014,3,13
14404,-9e-05,-8e-05,-2e-05,-6e-05,-0.00023,-0.00015,-5e-05,-0.00014,3,13
14405,-9e-05,-8e-05,-2e-05,-6e-05,-0.00023,-0.00015,-5e-05,-0.00014,3,13
14406,-9e-05,-8e-05,-2e-05,-6e-05,-0.00023,-0.00015,-5e-05,-0.00014,3,13
14407,-9e-05,-8e-05,-2e-05,-6e-05,-0.00023,-0.00015,-5e-05,-0.00014,3,13
14408,-9e-05,-8e-05,-2e-05,-6e-05,-0.00023,-0.00015,-5e-05,-0.00014,3,13
14409,9e-05,-1e-05,-1e-05,0.00012,0.00059,0.00018,-0.00023,-0.00072,3,13
14410,-0.0001,6e-05,4e-05,8e-05,0.00064,0.00011,-4e-05,0.0003,3,13
14411,-0.0001,6e-05,4e-05,8e-05,0.00064,0.00011,-4e-05,0.0003,3,13
14412,-0.0001,6e-05,4e-05,8e-05,0.00064,0.00011,-4e-05,0.0003,3,13
14413,-0.0001,6e-05,4e-05,8e-05,0.00064,0.00011,-4e-05,0.0003,3,13
14414,-0.0001,6e-05,4e-05,8e-05,0.00064,0.00011,-4e-05,0.0003,3,13
14415,-0.0001,6e-05,4e-05,8e-05,0.00064,0.00011,-4e-05,0.0003,3,13
14416,-0.0001,6e-05,4e-05,8e-05,0.00064,0.00011,-4e-05,0.0003,3,13
14417,-0.0001,6e-05,4e-05,8e-05,0.00064,0.00011,-4e-05,0.0003,3,13
14418,-0.0001,6e-05,4e-05,8e-05,0.00064,0.00011,-4e-05,0.0003,3,13
14419,-0.0001,6e-05,4e-05,8e-05,0.00064,0.00011,-4e-05,0.0003,3,13
14420,-0.0001,6e-05,4e-05,8e-05,0.00064,0.00011,-4e-05,0.0003,3,13
14421,-0.0001,6e-05,4e-05,8e-05,0.00064,0.00011,-4e-05,0.0003,3,13
14422,-0.0001,6e-05,4e-05,8e-05,0.00064,0.00011,-4e-05,0.0003,3,13
14423,0.00038,4e-05,-3e-05,-0.00021,-0.0003,-3e-05,0.00029,-0.00017,3,13
14424,-0.00045,-6e-05,-3e-05,-5e-05,-0.00024,-0.00018,-0.00019,-0.00032,3,13
14425,-0.00045,-6e-05,-3e-05,-5e-05,-0.00024,-0.00018,-0.00019,-0.00032,3,13
14426,-0.00045,-6e-05,-3e-05,-5e-05,-0.00024,-0.00018,-0.00019,-0.00032,3,13
14427,-0.00045,-6e-05,-3e-05,-5e-05,-0.00024,-0.00018,-0.00019,-0.00032,3,13
14428,-0.00045,-6e-05,-3e-05,-5e-05,-0.00024,-0.00018,-0.00019,-0.00032,3,13
14429,-0.00045,-6e-05,-3e-05,-5e-05,-0.00024,-0.00018,-0.00019,-0.00032,3,13
14430,-0.00045,-6e-05,-3e-05,-5e-05,-0.00024,-0.00018,-0.00019,-0.00032,3,13
14431,0,-4e-05,-2e-05,-3e-05,-0.00037,-5e-05,0.00017,0.00038,3,13
14432,0,-4e-05,-2e-05,-3e-05,-0.00037,-5e-05,0.00017,0.00038,3,13
14433,0,-4e-05,-2e-05,-3e-05,-0.00037,-5e-05,0.00017,0.00038,3,13
14434,0,-4e-05,-2e-05,-3e-05,-0.00037,-5e-05,0.00017,0.00038,3,13
14435,0,-4e-05,-2e-05,-3e-05,-0.00037,-5e-05,0.00017,0.00038,3,13
14436,0,-4e-05,-2e-05,-3e-05,-0.00037,-5e-05,0.00017,0.00038,3,13
14439,0,-4e-05,-2e-05,-3e-05,-0.00037,-5e-05,0.00017,0.00038,3,13
14440,0,-4e-05,-2e-05,-3e-05,-0.00037,-5e-05,0.00017,0.00038,3,13
14441,0,-4e-05,-2e-05,-3e-05,-0.00037,-5e-05,0.00017,0.00038,3,13
14442,0,-4e-05,-2e-05,-3e-05,-0.00037,-5e-05,0.00017,0.00038,3,13
14443,0,-4e-05,-2e-05,-3e-05,-0.00037,-5e-05,0.00017,0.00038,3,13
14444,0,-4e-05,-2e-05,-3e-05,-0.00037,-5e-05,0.00017,0.00038,3,13
14445,0,-4e-05,-2e-05,-3e-05,-0.00037,-5e-05,0.00017,0.00038,3,13
14446,0.00035,-8e-05,-5e-05,-0.00018,-0.00033,-7e-05,4e-05,0.00043,3,13
14447,0.00035,-8e-05,-5e-05,-0.00018,-0.00033,-7e-05,4e-05,0.00043,3,13
14448,0.0002,-2e-05,-1e-05,-0.00029,-0.00072,-0.00012,0.00015,-0.00021,3,13
14449,0.0002,-2e-05,-1e-05,-0.00029,-0.00072,-0.00012,0.00015,-0.00021,3,13
14450,0.0002,-2e-05,-1e-05,-0.00029,-0.00072,-0.00012,0.00015,-0.00021,3,13
14451,0.0002,-2e-05,-1e-05,-0.00029,-0.00072,-0.00012,0.00015,-0.00021,3,13
14452,0.0002,-2e-05,-1e-05,-0.00029,-0.00072,-0.00012,0.00015,-0.00021,3,13
14453,0.0002,-2e-05,-1e-05,-0.00029,-0.00072,-0.00012,0.00015,-0.00021,3,13
14454,0.0002,-2e-05,-1e-05,-0.00029,-0.00072,-0.00012,0.00015,-0.00021,3,13
14455,0.0002,-2e-05,-1e-05,-0.00029,-0.00072,-0.00012,0.00015,-0.00021,3,13
14456,0.0002,-2e-05,-1e-05,-0.00029,-0.00072,-0.00012,0.00015,-0.00021,3,13
14457,0.0002,-2e-05,-1e-05,-0.00029,-0.00072,-0.00012,0.00015,-0.00021,3,13
14458,0.0002,-2e-05,-1e-05,-0.00029,-0.00072,-0.00012,0.00015,-0.00021,3,13
14459,0.0002,-2e-05,-1e-05,-0.00029,-0.00072,-0.00012,0.00015,-0.00021,3,13
14460,0.0002,-2e-05,-1e-05,-0.00029,-0.00072,-0.00012,0.00015,-0.00021,3,13
14461,0.0002,-2e-05,-1e-05,-0.00029,-0.00072,-0.00012,0.00015,-0.00021,3,13
14462,0.0002,-2e-05,-1e-05,-0.00029,-0.00072,-0.00012,0.00015,-0.00021,3,13
14463,0.0002,-2e-05,-1e-05,-0.00029,-0.00072,-0.00012,0.00015,-0.00021,3,13
14464,0.0002,-2e-05,-1e-05,-0.00029,-0.00072,-0.00012,0.00015,-0.00021,3,13
14465,0.0002,-2e-05,-1e-05,-0.00029,-0.00072,-0.00012,0.00015,-0.00021,3,13
14466,0.0002,-2e-05,-1e-05,-0.00029,-0.00072,-0.00012,0.00015,-0.00021,3,13
14467,0.0002,-2e-05,-1e-05,-0.00029,-0.00072,-0.00012,0.00015,-0.00021,3,13
14468,0.0002,-2e-05,-1e-05,-0.00029,-0.00072,-0.00012,0.00015,-0.00021,3,13
14469,0.00032,5e-05,-4e-05,0.00033,0.0007,8e-05,8e-05,0.0005,3,13
14470,0.00044,0.00014,-4e-05,-0.0001,4e-05,-7e-05,-0.00014,-0.0001,3,13
14471,0.00044,0.00014,-4e-05,-0.0001,4e-05,-7e-05,-0.00014,-0.0001,3,13
14472,0.00044,0.00014,-4e-05,-0.0001,4e-05,-7e-05,-0.00014,-0.0001,3,13
14473,0.00044,0.00014,-4e-05,-0.0001,4e-05,-7e-05,-0.00014,-0.0001,3,13
14474,0.00044,0.00014,-4e-05,-0.0001,4e-05,-7e-05,-0.00014,-0.0001,3,13
14475,0.00044,0.00014,-4e-05,-0.0001,4e-05,-7e-05,-0.00014,-0.0001,3,13
14476,0.00044,0.00014,-4e-05,-0.0001,4e-05,-7e-05,-0.00014,-0.0001,3,13
14477,0.00044,0.00014,-4e-05,-0.0001,4e-05,-7e-05,-0.00014,-0.0001,3,13
14478,0.00044,0.00014,-4e-05,-0.0001,4e-05,-7e-05,-0.00014,-0.0001,3,13
14479,0.00044,0.00014,-4e-05,-0.0001,4e-05,-7e-05,-0.00014,-0.0001,3,13
14480,0.00044,0.00014,-4e-05,-0.0001,4e-05,-7e-05,-0.00014,-0.0001,3,13
14481,0.00044,0.00014,-4e-05,-0.0001,4e-05,-7e-05,-0.00014,-0.0001,3,13
14482,0.00044,0.00014,-4e-05,-0.0001,4e-05,-7e-05,-0.00014,-0.0001,3,13
14483,0.00076,0.00017,0.00012,0.00013,0.00045,0.00015,0.00025,0.00084,3,13
14484,0.00076,0.00017,0.00012,0.00013,0.00045,0.00015,0.00025,0.00084,3,13
14485,0.00076,0.00017,0.00012,0.00013,0.00045,0.00015,0.00025,0.00084,3,13
14486,0.00076,0.00017,0.00012,0.00013,0.00045,0.00015,0.00025,0.00084,3,13
14488,0.00076,0.00017,0.00012,0.00013,0.00045,0.00015,0.00025,0.00084,3,13
14489,0.00076,0.00017,0.00012,0.00013,0.00045,0.00015,0.00025,0.00084,3,13
14490,-0.00013,-6e-05,-0.0001,-0.00044,-0.00058,-0.0001,0.00016,-0.00018,3,13
14491,4e-05,9e-05,6e-05,0.00031,0.00072,0.0001,-0.0002,-0.00051,3,13
14492,4e-05,9e-05,6e-05,0.00031,0.00072,0.0001,-0.0002,-0.00051,3,13
14493,4e-05,9e-05,6e-05,0.00031,0.00072,0.0001,-0.0002,-0.00051,3,13
14494,4e-05,9e-05,6e-05,0.00031,0.00072,0.0001,-0.0002,-0.00051,3,13
14495,4e-05,9e-05,6e-05,0.00031,0.00072,0.0001,-0.0002,-0.00051,3,13
14496,4e-05,9e-05,6e-05,0.00031,0.00072,0.0001,-0.0002,-0.00051,3,13
14497,4e-05,9e-05,6e-05,0.00031,0.00072,0.0001,-0.0002,-0.00051,3,13
14498,4e-05,9e-05,6e-05,0.00031,0.00072,0.0001,-0.0002,-0.00051,3,13
14499,4e-05,9e-05,6e-05,0.00031,0.00072,0.0001,-0.0002,-0.00051,3,13
14500,4e-05,9e-05,6e-05,0.00031,0.00072,0.0001,-0.0002,-0.00051,3,13
14501,4e-05,9e-05,6e-05,0.00031,0.00072,0.0001,-0.0002,-0.00051,3,13
14502,4e-05,9e-05,6e-05,0.00031,0.00072,0.0001,-0.0002,-0.00051,3,13
14503,4e-05,9e-05,6e-05,0.00031,0.00072,0.0001,-0.0002,-0.00051,3,13
14504,4e-05,9e-05,6e-05,0.00031,0.00072,0.0001,-0.0002,-0.00051,3,13
14505,4e-05,9e-05,6e-05,0.00031,0.00072,0.0001,-0.0002,-0.00051,3,13
14506,-0.00027,-9e-05,2e-05,-0.00012,-0.00021,-0.00012,0.00013,-0.00013,3,13
14507,-0.00027,-9e-05,2e-05,-0.00012,-0.00021,-0.00012,0.00013,-0.00013,3,13
14508,-0.00056,-0.00011,-7e-05,-0.00013,-9e-05,0.0002,0,-0.00086,3,13
14509,-0.00056,-0.00011,-7e-05,-0.00013,-9e-05,0.0002,0,-0.00086,3,13
14510,-0.00056,-0.00011,-7e-05,-0.00013,-9e-05,0.0002,0,-0.00086,3,13
14511,-0.00056,-0.00011,-7e-05,-0.00013,-9e-05,0.0002,0,-0.00086,3,13
14512,-0.00056,-0.00011,-7e-05,-0.00013,-9e-05,0.0002,0,-0.00086,3,13
14513,-0.00056,-0.00011,-7e-05,-0.00013,-9e-05,0.0002,0,-0.00086,3,13
14514,-0.00056,-0.00011,-7e-05,-0.00013,-9e-05,0.0002,0,-0.00086,3,13
14515,-0.00056,-0.00011,-7e-05,-0.00013,-9e-05,0.0002,0,-0.00086,3,13
14516,-0.00056,-0.00011,-7e-05,-0.00013,-9e-05,0.0002,0,-0.00086,3,13
14517,-0.00056,-0.00011,-7e-05,-0.00013,-9e-05,0.0002,0,-0.00086,3,13
14518,-0.00056,-0.00011,-7e-05,-0.00013,-9e-05,0.0002,0,-0.00086,3,13
14519,-0.00056,-0.00011,-7e-05,-0.00013,-9e-05,0.0002,0,-0.00086,3,13
14520,-0.00056,-0.00011,-7e-05,-0.00013,-9e-05,0.0002,0,-0.00086,3,13
14521,-0.00056,-0.00011,-7e-05,-0.00013,-9e-05,0.0002,0,-0.00086,3,13
14522,-0.00056,-0.00011,-7e-05,-0.00013,-9e-05,0.0002,0,-0.00086,3,13
14523,-0.00056,-0.00011,-7e-05,-0.00013,-9e-05,0.0002,0,-0.00086,3,13
14524,-0.00056,-0.00011,-7e-05,-0.00013,-9e-05,0.0002,0,-0.00086,3,13
14525,-0.00056,-0.00011,-7e-05,-0.00013,-9e-05,0.0002,0,-0.00086,3,13
14526,-0.00056,-0.00011,-7e-05,-0.00013,-9e-05,0.0002,0,-0.00086,3,13
14527,-0.00056,-0.00011,-7e-05,-0.00013,-9e-05,0.0002,0,-0.00086,3,13
14528,-0.00056,-0.00011,-7e-05,-0.00013,-9e-05,0.0002,0,-0.00086,3,13
14529,-0.00065,-0.00013,-0.0001,-0.00013,-0.00041,-0.00013,-6e-05,-0.00083,3,13
14530,0.00011,1e-05,4e-05,1e-05,4e-05,-4e-05,-0.00014,3e-05,3,13
14531,0.00011,1e-05,4e-05,1e-05,4e-05,-4e-05,-0.00014,3e-05,3,13
14532,0.00011,1e-05,4e-05,1e-05,4e-05,-4e-05,-0.00014,3e-05,3,13
14533,0.00011,1e-05,4e-05,1e-05,4e-05,-4e-05,-0.00014,3e-05,3,13
14534,0.00011,1e-05,4e-05,1e-05,4e-05,-4e-05,-0.00014,3e-05,3,13
14535,0.00011,1e-05,4e-05,1e-05,4e-05,-4e-05,-0.00014,3e-05,3,13
14536,0.00011,1e-05,4e-05,1e-05,4e-05,-4e-05,-0.00014,3e-05,3,13
14539,0.00011,1e-05,4e-05,1e-05,4e-05,-4e-05,-0.00014,3e-05,3,13
14540,0.00011,1e-05,4e-05,1e-05,4e-05,-4e-05,-0.00014,3e-05,3,13
14541,0.00011,1e-05,4e-05,1e-05,4e-05,-4e-05,-0.00014,3e-05,3,13
14542,-0.00016,-2e-05,3e-05,0.0003,7e-05,2e-05,0.0002,0.00013,3,13
14543,-0.00016,-2e-05,3e-05,0.0003,7e-05,2e-05,0.0002,0.00013,3,13
14544,-0.00016,-2e-05,3e-05,0.0003,7e-05,2e-05,0.0002,0.00013,3,13
14545,-0.00016,-2e-05,3e-05,0.0003,7e-05,2e-05,0.0002,0.00013,3,13
14546,-0.00016,-2e-05,3e-05,0.0003,7e-05,2e-05,0.0002,0.00013,3,13
14547,-0.00016,-2e-05,3e-05,0.0003,7e-05,2e-05,0.0002,0.00013,3,13
14548,-0.00016,-2e-05,3e-05,0.0003,7e-05,2e-05,0.0002,0.00013,3,13
14549,-0.00016,-2e-05,3e-05,0.0003,7e-05,2e-05,0.0002,0.00013,3,13
14550,-0.00016,-2e-05,3e-05,0.0003,7e-05,2e-05,0.0002,0.00013,3,13
14551,-0.00022,-6e-05,-1e-05,3e-05,0.00024,7e-05,0.0003,-0.00021,3,13
14552,-0.00022,-6e-05,-1e-05,3e-05,0.00024,7e-05,0.0003,-0.00021,3,13
14553,-0.00022,-6e-05,-1e-05,3e-05,0.00024,7e-05,0.0003,-0.00021,3,13
14554,-0.00022,-6e-05,-1e-05,3e-05,0.00024,7e-05,0.0003,-0.00021,3,13
14555,-0.00022,-6e-05,-1e-05,3e-05,0.00024,7e-05,0.0003,-0.00021,3,13
14556,-0.00022,-6e-05,-1e-05,3e-05,0.00024,7e-05,0.0003,-0.00021,3,13
14557,-0.00022,-6e-05,-1e-05,3e-05,0.00024,7e-05,0.0003,-0.00021,3,13
14558,-0.00022,-6e-05,-1e-05,3e-05,0.00024,7e-05,0.0003,-0.00021,3,13
14559,-0.00022,-6e-05,-1e-05,3e-05,0.00024,7e-05,0.0003,-0.00021,3,13
14560,-0.00022,-6e-05,-1e-05,3e-05,0.00024,7e-05,0.0003,-0.00021,3,13
14561,-0.00022,-6e-05,-1e-05,3e-05,0.00024,7e-05,0.0003,-0.00021,3,13
14562,-0.00022,-6e-05,-1e-05,3e-05,0.00024,7e-05,0.0003,-0.00021,3,13
14563,-0.00022,-6e-05,-1e-05,3e-05,0.00024,7e-05,0.0003,-0.00021,3,13
14564,-0.00022,-6e-05,-1e-05,3e-05,0.00024,7e-05,0.0003,-0.00021,3,13
14565,-0.00022,-6e-05,-1e-05,3e-05,0.00024,7e-05,0.0003,-0.00021,3,13
14566,-7e-05,0,0,-8e-05,-0.00022,-7e-05,-0.0001,-0.00033,3,13
14567,-7e-05,0,0,-8e-05,-0.00022,-7e-05,-0.0001,-0.00033,3,13
14568,-8e-05,-5e-05,-1e-05,-2e-05,0.00016,0.00043,0.0003,0.00039,3,13
14569,-8e-05,-5e-05,-1e-05,-2e-05,0.00016,0.00043,0.0003,0.00039,3,13
14570,-8e-05,-5e-05,-1e-05,-2e-05,0.00016,0.00043,0.0003,0.00039,3,13
14571,-8e-05,-5e-05,-1e-05,-2e-05,0.00016,0.00043,0.0003,0.00039,3,13
14572,-8e-05,-5e-05,-1e-05,-2e-05,0.00016,0.00043,0.0003,0.00039,3,13
14573,-8e-05,-5e-05,-1e-05,-2e-05,0.00016,0.00043,0.0003,0.00039,3,13
14574,-8e-05,-5e-05,-1e-05,-2e-05,0.00016,0.00043,0.0003,0.00039,3,13
14575,-8e-05,-5e-05,-1e-05,-2e-05,0.00016,0.00043,0.0003,0.00039,3,13
14576,-8e-05,-5e-05,-1e-05,-2e-05,0.00016,0.00043,0.0003,0.00039,3,13
14577,-8e-05,-5e-05,-1e-05,-2e-05,0.00016,0.00043,0.0003,0.00039,3,13
14578,-8e-05,-5e-05,-1e-05,-2e-05,0.00016,0.00043,0.0003,0.00039,3,13
14579,-8e-05,-5e-05,-1e-05,-2e-05,0.00016,0.00043,0.0003,0.00039,3,13
14580,-8e-05,-5e-05,-1e-05,-2e-05,0.00016,0.00043,0.0003,0.00039,3,13
14581,-8e-05,-5e-05,-1e-05,-2e-05,0.00016,0.00043,0.0003,0.00039,3,13
14582,-8e-05,-5e-05,-1e-05,-2e-05,0.00016,0.00043,0.0003,0.00039,3,13
14583,-8e-05,-5e-05,-1e-05,-2e-05,0.00016,0.00043,0.0003,0.00039,3,13
14584,-8e-05,-5e-05,-1e-05,-2e-05,0.00016,0.00043,0.0003,0.00039,3,13
14585,-8e-05,-5e-05,-1e-05,-2e-05,0.00016,0.00043,0.0003,0.00039,3,13
14586,-8e-05,-5e-05,-1e-05,-2e-05,0.00016,0.00043,0.0003,0.00039,3,13
14588,0.00028,5e-05,-1e-05,-0.00018,-0.00041,-0.00022,-0.00032,-0.00029,3,13
14590,0.00034,8e-05,7e-05,0.00015,-0.00025,-1e-05,7e-05,0.00014,3,13
14591,-0.00059,-6e-05,-4e-05,-0.00012,-0.00031,-0.00012,5e-05,-0.00056,3,13
14592,-0.00059,-6e-05,-4e-05,-0.00012,-0.00031,-0.00012,5e-05,-0.00056,3,13
14593,-0.00059,-6e-05,-4e-05,-0.00012,-0.00031,-0.00012,5e-05,-0.00056,3,13
14594,-0.00059,-6e-05,-4e-05,-0.00012,-0.00031,-0.00012,5e-05,-0.00056,3,13
14595,-0.00059,-6e-05,-4e-05,-0.00012,-0.00031,-0.00012,5e-05,-0.00056,3,13
14596,-0.00059,-6e-05,-4e-05,-0.00012,-0.00031,-0.00012,5e-05,-0.00056,3,13
14597,-0.00059,-6e-05,-4e-05,-0.00012,-0.00031,-0.00012,5e-05,-0.00056,3,13
14598,-0.00059,-6e-05,-4e-05,-0.00012,-0.00031,-0.00012,5e-05,-0.00056,3,13
14599,-0.00059,-6e-05,-4e-05,-0.00012,-0.00031,-0.00012,5e-05,-0.00056,3,13
14600,-0.00059,-6e-05,-4e-05,-0.00012,-0.00031,-0.00012,5e-05,-0.00056,3,13
14601,-0.00059,-6e-05,-4e-05,-0.00012,-0.00031,-0.00012,5e-05,-0.00056,3,13
14602,-0.00011,0,2e-05,-0.00028,-6e-05,0.00016,-0.00012,0.00025,3,13
14603,-0.00011,0,2e-05,-0.00028,-6e-05,0.00016,-0.00012,0.00025,3,13
14604,-0.00011,0,2e-05,-0.00028,-6e-05,0.00016,-0.00012,0.00025,3,13
14605,-0.00011,0,2e-05,-0.00028,-6e-05,0.00016,-0.00012,0.00025,3,13
14606,-0.00011,0,2e-05,-0.00028,-6e-05,0.00016,-0.00012,0.00025,3,13
14607,-0.00011,0,2e-05,-0.00028,-6e-05,0.00016,-0.00012,0.00025,3,13
14608,-0.00011,0,2e-05,-0.00028,-6e-05,0.00016,-0.00012,0.00025,3,13
14609,-0.00011,0,2e-05,-0.00028,-6e-05,0.00016,-0.00012,0.00025,3,13
14610,-0.00011,0,2e-05,-0.00028,-6e-05,0.00016,-0.00012,0.00025,3,13
14611,0.00029,-1e-05,-8e-05,-0.00018,-0.00033,-8e-05,5e-05,0.0002,3,13
14612,0.00029,-1e-05,-8e-05,-0.00018,-0.00033,-8e-05,5e-05,0.0002,3,13
14613,0.00029,-1e-05,-8e-05,-0.00018,-0.00033,-8e-05,5e-05,0.0002,3,13
14614,0.00029,-1e-05,-8e-05,-0.00018,-0.00033,-8e-05,5e-05,0.0002,3,13
14615,0.00029,-1e-05,-8e-05,-0.00018,-0.00033,-8e-05,5e-05,0.0002,3,13
14616,0.00029,-1e-05,-8e-05,-0.00018,-0.00033,-8e-05,5e-05,0.0002,3,13
14617,0.00029,-1e-05,-8e-05,-0.00018,-0.00033,-8e-05,5e-05,0.0002,3,13
14618,0.00029,-1e-05,-8e-05,-0.00018,-0.00033,-8e-05,5e-05,0.0002,3,13
14619,0.00029,-1e-05,-8e-05,-0.00018,-0.00033,-8e-05,5e-05,0.0002,3,13
14620,0.00029,-1e-05,-8e-05,-0.00018,-0.00033,-8e-05,5e-05,0.0002,3,13
14621,0.00029,-1e-05,-8e-05,-0.00018,-0.00033,-8e-05,5e-05,0.0002,3,13
14622,0.00029,-1e-05,-8e-05,-0.00018,-0.00033,-8e-05,5e-05,0.0002,3,13
14623,0.00029,-1e-05,-8e-05,-0.00018,-0.00033,-8e-05,5e-05,0.0002,3,13
14624,0.00029,-1e-05,-8e-05,-0.00018,-0.00033,-8e-05,5e-05,0.0002,3,13
14625,0.00029,-1e-05,-8e-05,-0.00018,-0.00033,-8e-05,5e-05,0.0002,3,13
14626,-0.0001,5e-05,0,7e-05,8e-05,-3e-05,0.00012,0.00011,3,13
14627,-0.0001,5e-05,0,7e-05,8e-05,-3e-05,0.00012,0.00011,3,13
14628,6e-05,-5e-05,1e-05,0,-0.00012,-4e-05,-0.00015,0.00042,3,13
14629,6e-05,-5e-05,1e-05,0,-0.00012,-4e-05,-0.00015,0.00042,3,13
14630,6e-05,-5e-05,1e-05,0,-0.00012,-4e-05,-0.00015,0.00042,3,13
14631,6e-05,-5e-05,1e-05,0,-0.00012,-4e-05,-0.00015,0.00042,3,13
14632,6e-05,-5e-05,1e-05,0,-0.00012,-4e-05,-0.00015,0.00042,3,13
14633,6e-05,-5e-05,1e-05,0,-0.00012,-4e-05,-0.00015,0.00042,3,13
14634,6e-05,-5e-05,1e-05,0,-0.00012,-4e-05,-0.00015,0.00042,3,13
14635,6e-05,-5e-05,1e-05,0,-0.00012,-4e-05,-0.00015,0.00042,3,13
14636,6e-05,-5e-05,1e-05,0,-0.00012,-4e-05,-0.00015,0.00042,3,13
14639,6e-05,-5e-05,1e-05,0,-0.00012,-4e-05,-0.00015,0.00042,3,13
14640,6e-05,-5e-05,1e-05,0,-0.00012,-4e-05,-0.00015,0.00042,3,13
14641,6e-05,-5e-05,1e-05,0,-0.00012,-4e-05,-0.00015,0.00042,3,13
14642,6e-05,-5e-05,1e-05,0,-0.00012,-4e-05,-0.00015,0.00042,3,13
14643,6e-05,-5e-05,1e-05,0,-0.00012,-4e-05,-0.00015,0.00042,3,13
14644,6e-05,-5e-05,1e-05,0,-0.00012,-4e-05,-0.00015,0.00042,3,13
14645,6e-05,-5e-05,1e-05,0,-0.00012,-4e-05,-0.00015,0.00042,3,13
14646,6e-05,-5e-05,1e-05,0,-0.00012,-4e-05,-0.00015,0.00042,3,13
14647,6e-05,-5e-05,1e-05,0,-0.00012,-4e-05,-0.00015,0.00042,3,13
14648,6e-05,-5e-05,1e-05,0,-0.00012,-4e-05,-0.00015,0.00042,3,13
14649,0,-0.00014,-0.00018,-0.00063,-0.00077,-0.00024,-0.00012,-0.00034,3,13
14650,-0.00023,2e-05,4e-05,0.00012,0.00054,8e-05,-5e-05,-1e-05,3,13
14651,-0.00023,2e-05,4e-05,0.00012,0.00054,8e-05,-5e-05,-1e-05,3,13
14652,-0.00023,2e-05,4e-05,0.00012,0.00054,8e-05,-5e-05,-1e-05,3,13
14653,-0.00023,2e-05,4e-05,0.00012,0.00054,8e-05,-5e-05,-1e-05,3,13
14654,-0.00023,2e-05,4e-05,0.00012,0.00054,8e-05,-5e-05,-1e-05,3,13
14655,-0.00023,2e-05,4e-05,0.00012,0.00054,8e-05,-5e-05,-1e-05,3,13
14656,-0.00023,2e-05,4e-05,0.00012,0.00054,8e-05,-5e-05,-1e-05,3,13
14657,-0.00023,2e-05,4e-05,0.00012,0.00054,8e-05,-5e-05,-1e-05,3,13
14658,-0.00023,2e-05,4e-05,0.00012,0.00054,8e-05,-5e-05,-1e-05,3,13
14659,-0.00023,2e-05,4e-05,0.00012,0.00054,8e-05,-5e-05,-1e-05,3,13
14660,-0.00023,2e-05,4e-05,0.00012,0.00054,8e-05,-5e-05,-1e-05,3,13
14661,-0.00023,2e-05,4e-05,0.00012,0.00054,8e-05,-5e-05,-1e-05,3,13
14662,0.00018,0,-3e-05,0,-0.00021,0.0001,0.00012,0.00014,3,13
14663,0.00018,0,-3e-05,0,-0.00021,0.0001,0.00012,0.00014,3,13
14664,0.00018,0,-3e-05,0,-0.00021,0.0001,0.00012,0.00014,3,13
14665,0.00018,0,-3e-05,0,-0.00021,0.0001,0.00012,0.00014,3,13
14666,0.00018,0,-3e-05,0,-0.00021,0.0001,0.00012,0.00014,3,13
14667,0.00018,0,-3e-05,0,-0.00021,0.0001,0.00012,0.00014,3,13
14668,0.00018,0,-3e-05,0,-0.00021,0.0001,0.00012,0.00014,3,13
14669,0.00018,0,-3e-05,0,-0.00021,0.0001,0.00012,0.00014,3,13
14670,0.00017,-5e-05,-6e-05,-0.00017,-7e-05,-0.00018,-7e-05,-4e-05,3,13
14671,0.00018,3e-05,-2e-05,-2e-05,-3e-05,-8e-05,-0.0002,-0.00014,3,13
14672,0.00018,3e-05,-2e-05,-2e-05,-3e-05,-8e-05,-0.0002,-0.00014,3,13
14673,0.00018,3e-05,-2e-05,-2e-05,-3e-05,-8e-05,-0.0002,-0.00014,3,13
14674,0.00018,3e-05,-2e-05,-2e-05,-3e-05,-8e-05,-0.0002,-0.00014,3,13
14675,0.00018,3e-05,-2e-05,-2e-05,-3e-05,-8e-05,-0.0002,-0.00014,3,13
14676,0.00018,3e-05,-2e-05,-2e-05,-3e-05,-8e-05,-0.0002,-0.00014,3,13
14677,0.00018,3e-05,-2e-05,-2e-05,-3e-05,-8e-05,-0.0002,-0.00014,3,13
14678,0.00018,3e-05,-2e-05,-2e-05,-3e-05,-8e-05,-0.0002,-0.00014,3,13
14679,0.00018,3e-05,-2e-05,-2e-05,-3e-05,-8e-05,-0.0002,-0.00014,3,13
14680,0.00018,3e-05,-2e-05,-2e-05,-3e-05,-8e-05,-0.0002,-0.00014,3,13
14681,0.00018,3e-05,-2e-05,-2e-05,-3e-05,-8e-05,-0.0002,-0.00014,3,13
14682,0.00018,3e-05,-2e-05,-2e-05,-3e-05,-8e-05,-0.0002,-0.00014,3,13
14683,0.00018,3e-05,-2e-05,-2e-05,-3e-05,-8e-05,-0.0002,-0.00014,3,13
14684,0.00018,3e-05,-2e-05,-2e-05,-3e-05,-8e-05,-0.0002,-0.00014,3,13
14685,0.00018,3e-05,-2e-05,-2e-05,-3e-05,-8e-05,-0.0002,-0.00014,3,13
14686,-1e-05,2e-05,0,-3e-05,-0.00018,-3e-05,8e-05,0.00024,3,13
14689,0.00068,8e-05,0,2e-05,0.00023,1e-05,0.00012,0.00083,3,13
14690,0.00068,8e-05,0,2e-05,0.00023,1e-05,0.00012,0.00083,3,13
14691,0.00068,8e-05,0,2e-05,0.00023,1e-05,0.00012,0.00083,3,13
14692,0.00068,8e-05,0,2e-05,0.00023,1e-05,0.00012,0.00083,3,13
14693,0.00068,8e-05,0,2e-05,0.00023,1e-05,0.00012,0.00083,3,13
14694,0.00068,8e-05,0,2e-05,0.00023,1e-05,0.00012,0.00083,3,13
14695,0.00068,8e-05,0,2e-05,0.00023,1e-05,0.00012,0.00083,3,13
14696,0.00068,8e-05,0,2e-05,0.00023,1e-05,0.00012,0.00083,3,13
14697,0.00068,8e-05,0,2e-05,0.00023,1e-05,0.00012,0.00083,3,13
14698,0.00068,8e-05,0,2e-05,0.00023,1e-05,0.00012,0.00083,3,13
14699,0.00068,8e-05,0,2e-05,0.00023,1e-05,0.00012,0.00083,3,13
14700,0.00068,8e-05,0,2e-05,0.00023,1e-05,0.00012,0.00083,3,13
14701,0.00068,8e-05,0,2e-05,0.00023,1e-05,0.00012,0.00083,3,13
14702,0.00068,8e-05,0,2e-05,0.00023,1e-05,0.00012,0.00083,3,13
14703,0.00068,8e-05,0,2e-05,0.00023,1e-05,0.00012,0.00083,3,13
14704,0.00068,8e-05,0,2e-05,0.00023,1e-05,0.00012,0.00083,3,13
14705,0.00068,8e-05,0,2e-05,0.00023,1e-05,0.00012,0.00083,3,13
14706,0.00068,8e-05,0,2e-05,0.00023,1e-05,0.00012,0.00083,3,13
14707,0.00068,8e-05,0,2e-05,0.00023,1e-05,0.00012,0.00083,3,13
14708,0.00068,8e-05,0,2e-05,0.00023,1e-05,0.00012,0.00083,3,13
14709,-0.00039,-6e-05,3e-05,8e-05,0,8e-05,-0.0002,-0.00026,3,13
14710,-0.00013,-2e-05,1e-05,7e-05,0.00039,2e-05,-0.00018,-9e-05,3,13
14711,-0.00013,-2e-05,1e-05,7e-05,0.00039,2e-05,-0.00018,-9e-05,3,13
14712,-0.00013,-2e-05,1e-05,7e-05,0.00039,2e-05,-0.00018,-9e-05,3,13
14713,-0.00013,-2e-05,1e-05,7e-05,0.00039,2e-05,-0.00018,-9e-05,3,13
14714,-0.00013,-2e-05,1e-05,7e-05,0.00039,2e-05,-0.00018,-9e-05,3,13
14715,-0.00013,-2e-05,1e-05,7e-05,0.00039,2e-05,-0.00018,-9e-05,3,13
14716,-0.00013,-2e-05,1e-05,7e-05,0.00039,2e-05,-0.00018,-9e-05,3,13
14717,-0.00013,-2e-05,1e-05,7e-05,0.00039,2e-05,-0.00018,-9e-05,3,13
14718,-0.00013,-2e-05,1e-05,7e-05,0.00039,2e-05,-0.00018,-9e-05,3,13
14719,-0.00013,-2e-05,1e-05,7e-05,0.00039,2e-05,-0.00018,-9e-05,3,13
14720,-0.00013,-2e-05,1e-05,7e-05,0.00039,2e-05,-0.00018,-9e-05,3,13
14721,-0.00013,-2e-05,1e-05,7e-05,0.00039,2e-05,-0.00018,-9e-05,3,13
14722,4e-05,7e-05,3e-05,0.00034,0.00099,0.00021,0.00049,-0.00013,3,13
14724,4e-05,7e-05,3e-05,0.00034,0.00099,0.00021,0.00049,-0.00013,3,13
14725,4e-05,7e-05,3e-05,0.00034,0.00099,0.00021,0.00049,-0.00013,3,13
14726,4e-05,7e-05,3e-05,0.00034,0.00099,0.00021,0.00049,-0.00013,3,13
14727,4e-05,7e-05,3e-05,0.00034,0.00099,0.00021,0.00049,-0.00013,3,13
14728,4e-05,7e-05,3e-05,0.00034,0.00099,0.00021,0.00049,-0.00013,3,13
14729,4e-05,7e-05,3e-05,0.00034,0.00099,0.00021,0.00049,-0.00013,3,13
14730,4e-05,7e-05,3e-05,0.00034,0.00099,0.00021,0.00049,-0.00013,3,13
14731,-0.00022,-7e-05,-8e-05,-9e-05,-0.00068,-0.00018,0,-0.0007,3,13
14732,-0.00022,-7e-05,-8e-05,-9e-05,-0.00068,-0.00018,0,-0.0007,3,13
14733,-0.00022,-7e-05,-8e-05,-9e-05,-0.00068,-0.00018,0,-0.0007,3,13
14734,-0.00022,-7e-05,-8e-05,-9e-05,-0.00068,-0.00018,0,-0.0007,3,13
14735,-0.00022,-7e-05,-8e-05,-9e-05,-0.00068,-0.00018,0,-0.0007,3,13
14736,-0.00022,-7e-05,-8e-05,-9e-05,-0.00068,-0.00018,0,-0.0007,3,13
14739,-0.00022,-7e-05,-8e-05,-9e-05,-0.00068,-0.00018,0,-0.0007,3,13
14740,-0.00022,-7e-05,-8e-05,-9e-05,-0.00068,-0.00018,0,-0.0007,3,13
14741,-0.00022,-7e-05,-8e-05,-9e-05,-0.00068,-0.00018,0,-0.0007,3,13
14742,-0.00022,-7e-05,-8e-05,-9e-05,-0.00068,-0.00018,0,-0.0007,3,13
14743,-0.00022,-7e-05,-8e-05,-9e-05,-0.00068,-0.00018,0,-0.0007,3,13
14744,-0.00022,-7e-05,-8e-05,-9e-05,-0.00068,-0.00018,0,-0.0007,3,13
14745,-0.00022,-7e-05,-8e-05,-9e-05,-0.00068,-0.00018,0,-0.0007,3,13
14746,0.00041,-2e-05,0,0.00018,0.00024,4e-05,-0.00016,-8e-05,3,13
14747,0.00041,-2e-05,0,0.00018,0.00024,4e-05,-0.00016,-8e-05,3,13
14748,8e-05,0,-3e-05,-0.00023,-0.00043,-0.00014,0.0002,-0.00034,3,13
14749,8e-05,0,-3e-05,-0.00023,-0.00043,-0.00014,0.0002,-0.00034,3,13
14750,8e-05,0,-3e-05,-0.00023,-0.00043,-0.00014,0.0002,-0.00034,3,13
14751,8e-05,0,-3e-05,-0.00023,-0.00043,-0.00014,0.0002,-0.00034,3,13
14752,8e-05,0,-3e-05,-0.00023,-0.00043,-0.00014,0.0002,-0.00034,3,13
14753,8e-05,0,-3e-05,-0.00023,-0.00043,-0.00014,0.0002,-0.00034,3,13
14754,8e-05,0,-3e-05,-0.00023,-0.00043,-0.00014,0.0002,-0.00034,3,13
14755,8e-05,0,-3e-05,-0.00023,-0.00043,-0.00014,0.0002,-0.00034,3,13
14756,8e-05,0,-3e-05,-0.00023,-0.00043,-0.00014,0.0002,-0.00034,3,13
14757,8e-05,0,-3e-05,-0.00023,-0.00043,-0.00014,0.0002,-0.00034,3,13
14758,8e-05,0,-3e-05,-0.00023,-0.00043,-0.00014,0.0002,-0.00034,3,13
14759,8e-05,0,-3e-05,-0.00023,-0.00043,-0.00014,0.0002,-0.00034,3,13
14760,8e-05,0,-3e-05,-0.00023,-0.00043,-0.00014,0.0002,-0.00034,3,13
14761,8e-05,0,-3e-05,-0.00023,-0.00043,-0.00014,0.0002,-0.00034,3,13
14762,8e-05,0,-3e-05,-0.00023,-0.00043,-0.00014,0.0002,-0.00034,3,13
14763,8e-05,0,-3e-05,-0.00023,-0.00043,-0.00014,0.0002,-0.00034,3,13
14764,8e-05,0,-3e-05,-0.00023,-0.00043,-0.00014,0.0002,-0.00034,3,13
14765,8e-05,0,-3e-05,-0.00023,-0.00043,-0.00014,0.0002,-0.00034,3,13
14766,8e-05,0,-3e-05,-0.00023,-0.00043,-0.00014,0.0002,-0.00034,3,13
14767,8e-05,0,-3e-05,-0.00023,-0.00043,-0.00014,0.0002,-0.00034,3,13
14768,8e-05,0,-3e-05,-0.00023,-0.00043,-0.00014,0.0002,-0.00034,3,13
14769,0.00037,0,-3e-05,0.00013,-4e-05,-0.00017,-0.00029,9e-05,3,13
14770,9e-05,2e-05,6e-05,-0.00035,-0.00042,-3e-05,-0.00011,0.00037,3,13
14771,9e-05,2e-05,6e-05,-0.00035,-0.00042,-3e-05,-0.00011,0.00037,3,13
14772,9e-05,2e-05,6e-05,-0.00035,-0.00042,-3e-05,-0.00011,0.00037,3,13
14773,9e-05,2e-05,6e-05,-0.00035,-0.00042,-3e-05,-0.00011,0.00037,3,13
14774,9e-05,2e-05,6e-05,-0.00035,-0.00042,-3e-05,-0.00011,0.00037,3,13
14775,9e-05,2e-05,6e-05,-0.00035,-0.00042,-3e-05,-0.00011,0.00037,3,13
14776,9e-05,2e-05,6e-05,-0.00035,-0.00042,-3e-05,-0.00011,0.00037,3,13
14777,9e-05,2e-05,6e-05,-0.00035,-0.00042,-3e-05,-0.00011,0.00037,3,13
14778,9e-05,2e-05,6e-05,-0.00035,-0.00042,-3e-05,-0.00011,0.00037,3,13
14779,9e-05,2e-05,6e-05,-0.00035,-0.00042,-3e-05,-0.00011,0.00037,3,13
14780,9e-05,2e-05,6e-05,-0.00035,-0.00042,-3e-05,-0.00011,0.00037,3,13
14781,9e-05,2e-05,6e-05,-0.00035,-0.00042,-3e-05,-0.00011,0.00037,3,13
14782,0.00064,-2e-05,-2e-05,-0.00017,-0.00027,-9e-05,5e-05,0.00047,3,13
14783,0.00064,-2e-05,-2e-05,-0.00017,-0.00027,-9e-05,5e-05,0.00047,3,13
14784,0.00064,-2e-05,-2e-05,-0.00017,-0.00027,-9e-05,5e-05,0.00047,3,13
14785,0.00064,-2e-05,-2e-05,-0.00017,-0.00027,-9e-05,5e-05,0.00047,3,13
14786,0.00064,-2e-05,-2e-05,-0.00017,-0.00027,-9e-05,5e-05,0.00047,3,13
14788,0.00064,-2e-05,-2e-05,-0.00017,-0.00027,-9e-05,5e-05,0.00047,3,13
14789,0.00064,-2e-05,-2e-05,-0.00017,-0.00027,-9e-05,5e-05,0.00047,3,13
14790,0.00064,-2e-05,-2e-05,-0.00017,-0.00027,-9e-05,5e-05,0.00047,3,13
14791,0.00068,3e-05,-2e-05,0.00024,0.00028,6e-05,-0.00017,0.00065,3,13
14792,0.00068,3e-05,-2e-05,0.00024,0.00028,6e-05,-0.00017,0.00065,3,13
14793,0.00068,3e-05,-2e-05,0.00024,0.00028,6e-05,-0.00017,0.00065,3,13
14794,0.00068,3e-05,-2e-05,0.00024,0.00028,6e-05,-0.00017,0.00065,3,13
14795,0.00068,3e-05,-2e-05,0.00024,0.00028,6e-05,-0.00017,0.00065,3,13
14796,0.00068,3e-05,-2e-05,0.00024,0.00028,6e-05,-0.00017,0.00065,3,13
14797,0.00068,3e-05,-2e-05,0.00024,0.00028,6e-05,-0.00017,0.00065,3,13
14798,0.00068,3e-05,-2e-05,0.00024,0.00028,6e-05,-0.00017,0.00065,3,13
14799,0.00068,3e-05,-2e-05,0.00024,0.00028,6e-05,-0.00017,0.00065,3,13
14800,0.00068,3e-05,-2e-05,0.00024,0.00028,6e-05,-0.00017,0.00065,3,13
14801,0.00068,3e-05,-2e-05,0.00024,0.00028,6e-05,-0.00017,0.00065,3,13
14802,0.00068,3e-05,-2e-05,0.00024,0.00028,6e-05,-0.00017,0.00065,3,13
14803,0.00068,3e-05,-2e-05,0.00024,0.00028,6e-05,-0.00017,0.00065,3,13
14804,0.00068,3e-05,-2e-05,0.00024,0.00028,6e-05,-0.00017,0.00065,3,13
14805,0.00068,3e-05,-2e-05,0.00024,0.00028,6e-05,-0.00017,0.00065,3,13
14806,-0.00033,-8e-05,0,0,-0.00014,0.00016,6e-05,-0.00011,3,13
14807,6e-05,-2e-05,1e-05,3e-05,0.00018,6e-05,0.00011,0.00018,3,13
14808,0.00017,4e-05,-3e-05,-0.00011,-0.00036,-3e-05,0.00034,0.00015,3,13
14809,0.00017,4e-05,-3e-05,-0.00011,-0.00036,-3e-05,0.00034,0.00015,3,13
14810,0.00017,4e-05,-3e-05,-0.00011,-0.00036,-3e-05,0.00034,0.00015,3,13
14811,0.00017,4e-05,-3e-05,-0.00011,-0.00036,-3e-05,0.00034,0.00015,3,13
14812,0.00017,4e-05,-3e-05,-0.00011,-0.00036,-3e-05,0.00034,0.00015,3,13
14813,0.00017,4e-05,-3e-05,-0.00011,-0.00036,-3e-05,0.00034,0.00015,3,13
14814,0.00017,4e-05,-3e-05,-0.00011,-0.00036,-3e-05,0.00034,0.00015,3,13
14815,0.00017,4e-05,-3e-05,-0.00011,-0.00036,-3e-05,0.00034,0.00015,3,13
14816,0.00017,4e-05,-3e-05,-0.00011,-0.00036,-3e-05,0.00034,0.00015,3,13
14817,0.00017,4e-05,-3e-05,-0.00011,-0.00036,-3e-05,0.00034,0.00015,3,13
14818,0.00017,4e-05,-3e-05,-0.00011,-0.00036,-3e-05,0.00034,0.00015,3,13
14819,0.00017,4e-05,-3e-05,-0.00011,-0.00036,-3e-05,0.00034,0.00015,3,13
14820,0.00017,4e-05,-3e-05,-0.00011,-0.00036,-3e-05,0.00034,0.00015,3,13
14821,0.00017,4e-05,-3e-05,-0.00011,-0.00036,-3e-05,0.00034,0.00015,3,13
14822,0.00017,4e-05,-3e-05,-0.00011,-0.00036,-3e-05,0.00034,0.00015,3,13
14823,0.00017,4e-05,-3e-05,-0.00011,-0.00036,-3e-05,0.00034,0.00015,3,13
14824,0.00017,4e-05,-3e-05,-0.00011,-0.00036,-3e-05,0.00034,0.00015,3,13
14825,0.00017,4e-05,-3e-05,-0.00011,-0.00036,-3e-05,0.00034,0.00015,3,13
14826,0.00017,4e-05,-3e-05,-0.00011,-0.00036,-3e-05,0.00034,0.00015,3,13
14827,0.00017,4e-05,-3e-05,-0.00011,-0.00036,-3e-05,0.00034,0.00015,3,13
14828,0.00017,4e-05,-3e-05,-0.00011,-0.00036,-3e-05,0.00034,0.00015,3,13
14829,-0.00089,-5e-05,2e-05,-2e-05,-0.00056,4e-05,0,-0.00036,3,13
14830,-0.00014,-1e-05,-3e-05,3e-05,0.00013,-1e-05,0.00012,0.00028,3,13
14831,-0.00014,-1e-05,-3e-05,3e-05,0.00013,-1e-05,0.00012,0.00028,3,13
14832,-0.00014,-1e-05,-3e-05,3e-05,0.00013,-1e-05,0.00012,0.00028,3,13
14833,-0.00014,-1e-05,-3e-05,3e-05,0.00013,-1e-05,0.00012,0.00028,3,13
14834,-0.00014,-1e-05,-3e-05,3e-05,0.00013,-1e-05,0.00012,0.00028,3,13
14835,-0.00014,-1e-05,-3e-05,3e-05,0.00013,-1e-05,0.00012,0.00028,3,13
14836,-0.00014,-1e-05,-3e-05,3e-05,0.00013,-1e-05,0.00012,0.00028,3,13
14838,-0.00014,-1e-05,-3e-05,3e-05,0.00013,-1e-05,0.00012,0.00028,3,13
14839,-0.00014,-1e-05,-3e-05,3e-05,0.00013,-1e-05,0.00012,0.00028,3,13
14840,-0.00014,-1e-05,-3e-05,3e-05,0.00013,-1e-05,0.00012,0.00028,3,13
14841,-0.00014,-1e-05,-3e-05,3e-05,0.00013,-1e-05,0.00012,0.00028,3,13
14842,-0.00028,2e-05,1e-05,-2e-05,0.00059,0,1e-05,-2e-05,3,13
14843,-0.00028,2e-05,1e-05,-2e-05,0.00059,0,1e-05,-2e-05,3,13
14844,-0.00028,2e-05,1e-05,-2e-05,0.00059,0,1e-05,-2e-05,3,13
14845,-0.00028,2e-05,1e-05,-2e-05,0.00059,0,1e-05,-2e-05,3,13
14846,-0.00028,2e-05,1e-05,-2e-05,0.00059,0,1e-05,-2e-05,3,13
14847,-0.00028,2e-05,1e-05,-2e-05,0.00059,0,1e-05,-2e-05,3,13
14848,-0.00028,2e-05,1e-05,-2e-05,0.00059,0,1e-05,-2e-05,3,13
14849,-0.00028,2e-05,1e-05,-2e-05,0.00059,0,1e-05,-2e-05,3,13
14850,-0.00028,2e-05,1e-05,-2e-05,0.00059,0,1e-05,-2e-05,3,13
14851,9e-05,1e-05,0,3e-05,-0.00011,-0.00021,-0.0002,-0.00026,3,13
14853,9e-05,1e-05,0,3e-05,-0.00011,-0.00021,-0.0002,-0.00026,3,13
14854,9e-05,1e-05,0,3e-05,-0.00011,-0.00021,-0.0002,-0.00026,3,13
14855,9e-05,1e-05,0,3e-05,-0.00011,-0.00021,-0.0002,-0.00026,3,13
14856,9e-05,1e-05,0,3e-05,-0.00011,-0.00021,-0.0002,-0.00026,3,13
14857,9e-05,1e-05,0,3e-05,-0.00011,-0.00021,-0.0002,-0.00026,3,13
14858,9e-05,1e-05,0,3e-05,-0.00011,-0.00021,-0.0002,-0.00026,3,13
14859,9e-05,1e-05,0,3e-05,-0.00011,-0.00021,-0.0002,-0.00026,3,13
14860,9e-05,1e-05,0,3e-05,-0.00011,-0.00021,-0.0002,-0.00026,3,13
14861,9e-05,1e-05,0,3e-05,-0.00011,-0.00021,-0.0002,-0.00026,3,13
14862,9e-05,1e-05,0,3e-05,-0.00011,-0.00021,-0.0002,-0.00026,3,13
14863,9e-05,1e-05,0,3e-05,-0.00011,-0.00021,-0.0002,-0.00026,3,13
14864,9e-05,1e-05,0,3e-05,-0.00011,-0.00021,-0.0002,-0.00026,3,13
14865,9e-05,1e-05,0,3e-05,-0.00011,-0.00021,-0.0002,-0.00026,3,13
14866,9e-05,1e-05,0,3e-05,-0.00011,-0.00021,-0.0002,-0.00026,3,13
14867,0.00035,1e-05,-6e-05,-1e-05,-0.00032,-0.00011,-0.00042,0.00037,3,13
14868,-0.00031,-0.0001,-5e-05,0.00014,0.00024,-5e-05,-5e-05,-0.00068,3,13
14869,-0.00031,-0.0001,-5e-05,0.00014,0.00024,-5e-05,-5e-05,-0.00068,3,13
14870,-0.00031,-0.0001,-5e-05,0.00014,0.00024,-5e-05,-5e-05,-0.00068,3,13
14871,-0.00031,-0.0001,-5e-05,0.00014,0.00024,-5e-05,-5e-05,-0.00068,3,13
14872,-0.00031,-0.0001,-5e-05,0.00014,0.00024,-5e-05,-5e-05,-0.00068,3,13
14873,-0.00031,-0.0001,-5e-05,0.00014,0.00024,-5e-05,-5e-05,-0.00068,3,13
14874,-0.00031,-0.0001,-5e-05,0.00014,0.00024,-5e-05,-5e-05,-0.00068,3,13
14875,-0.00031,-0.0001,-5e-05,0.00014,0.00024,-5e-05,-5e-05,-0.00068,3,13
14876,-0.00031,-0.0001,-5e-05,0.00014,0.00024,-5e-05,-5e-05,-0.00068,3,13
14877,-0.00031,-0.0001,-5e-05,0.00014,0.00024,-5e-05,-5e-05,-0.00068,3,13
14878,-0.00031,-0.0001,-5e-05,0.00014,0.00024,-5e-05,-5e-05,-0.00068,3,13
14879,-0.00031,-0.0001,-5e-05,0.00014,0.00024,-5e-05,-5e-05,-0.00068,3,13
14880,-0.00031,-0.0001,-5e-05,0.00014,0.00024,-5e-05,-5e-05,-0.00068,3,13
14881,-0.00031,-0.0001,-5e-05,0.00014,0.00024,-5e-05,-5e-05,-0.00068,3,13
14882,-0.00031,-0.0001,-5e-05,0.00014,0.00024,-5e-05,-5e-05,-0.00068,3,13
14883,-0.00031,-0.0001,-5e-05,0.00014,0.00024,-5e-05,-5e-05,-0.00068,3,13
14884,-0.00031,-0.0001,-5e-05,0.00014,0.00024,-5e-05,-5e-05,-0.00068,3,13
14885,-0.00031,-0.0001,-5e-05,0.00014,0.00024,-5e-05,-5e-05,-0.00068,3,13
14886,-0.00031,-0.0001,-5e-05,0.00014,0.00024,-5e-05,-5e-05,-0.00068,3,13
14888,0.00015,-2e-05,-3e-05,-0.00015,-0.00016,5e-05,-2e-05,6e-05,3,13
14890,0.00015,-2e-05,-3e-05,-0.00015,-0.00016,5e-05,-2e-05,6e-05,3,13
14891,0.00015,-2e-05,-3e-05,-0.00015,-0.00016,5e-05,-2e-05,6e-05,3,13
14892,0.00015,-2e-05,-3e-05,-0.00015,-0.00016,5e-05,-2e-05,6e-05,3,13
14893,0.00015,-2e-05,-3e-05,-0.00015,-0.00016,5e-05,-2e-05,6e-05,3,13
14894,0.00015,-2e-05,-3e-05,-0.00015,-0.00016,5e-05,-2e-05,6e-05,3,13
14895,0.00015,-2e-05,-3e-05,-0.00015,-0.00016,5e-05,-2e-05,6e-05,3,13
14896,-0.00037,-1e-05,1e-05,0.00011,3e-05,0.0001,0.00029,-0.00043,3,13
14897,-0.00037,-1e-05,1e-05,0.00011,3e-05,0.0001,0.00029,-0.00043,3,13
14898,-0.00037,-1e-05,1e-05,0.00011,3e-05,0.0001,0.00029,-0.00043,3,13
14899,-0.00037,-1e-05,1e-05,0.00011,3e-05,0.0001,0.00029,-0.00043,3,13
14900,-0.00037,-1e-05,1e-05,0.00011,3e-05,0.0001,0.00029,-0.00043,3,13
14901,-0.00037,-1e-05,1e-05,0.00011,3e-05,0.0001,0.00029,-0.00043,3,13
14902,-7e-05,-2e-05,-4e-05,-0.0001,0.00011,-0.00015,-0.0001,-0.00012,3,13
14903,-7e-05,-2e-05,-4e-05,-0.0001,0.00011,-0.00015,-0.0001,-0.00012,3,13
14904,-7e-05,-2e-05,-4e-05,-0.0001,0.00011,-0.00015,-0.0001,-0.00012,3,13
14905,-7e-05,-2e-05,-4e-05,-0.0001,0.00011,-0.00015,-0.0001,-0.00012,3,13
14906,-7e-05,-2e-05,-4e-05,-0.0001,0.00011,-0.00015,-0.0001,-0.00012,3,13
14907,-7e-05,-2e-05,-4e-05,-0.0001,0.00011,-0.00015,-0.0001,-0.00012,3,13
14908,-7e-05,-2e-05,-4e-05,-0.0001,0.00011,-0.00015,-0.0001,-0.00012,3,13
14909,-7e-05,-2e-05,-4e-05,-0.0001,0.00011,-0.00015,-0.0001,-0.00012,3,13
14910,-7e-05,-2e-05,-4e-05,-0.0001,0.00011,-0.00015,-0.0001,-0.00012,3,13
14911,6e-05,-4e-05,-4e-05,4e-05,0.00035,-9e-05,-0.00024,0.00021,3,13
14912,6e-05,-4e-05,-4e-05,4e-05,0.00035,-9e-05,-0.00024,0.00021,3,13
14913,6e-05,-4e-05,-4e-05,4e-05,0.00035,-9e-05,-0.00024,0.00021,3,13
14914,6e-05,-4e-05,-4e-05,4e-05,0.00035,-9e-05,-0.00024,0.00021,3,13
14915,6e-05,-4e-05,-4e-05,4e-05,0.00035,-9e-05,-0.00024,0.00021,3,13
14916,6e-05,-4e-05,-4e-05,4e-05,0.00035,-9e-05,-0.00024,0.00021,3,13
14917,6e-05,-4e-05,-4e-05,4e-05,0.00035,-9e-05,-0.00024,0.00021,3,13
14918,6e-05,-4e-05,-4e-05,4e-05,0.00035,-9e-05,-0.00024,0.00021,3,13
14919,6e-05,-4e-05,-4e-05,4e-05,0.00035,-9e-05,-0.00024,0.00021,3,13
14920,6e-05,-4e-05,-4e-05,4e-05,0.00035,-9e-05,-0.00024,0.00021,3,13
14921,6e-05,-4e-05,-4e-05,4e-05,0.00035,-9e-05,-0.00024,0.00021,3,13
14922,6e-05,-4e-05,-4e-05,4e-05,0.00035,-9e-05,-0.00024,0.00021,3,13
14923,6e-05,-4e-05,-4e-05,4e-05,0.00035,-9e-05,-0.00024,0.00021,3,13
14924,6e-05,-4e-05,-4e-05,4e-05,0.00035,-9e-05,-0.00024,0.00021,3,13
14925,6e-05,-4e-05,-4e-05,4e-05,0.00035,-9e-05,-0.00024,0.00021,3,13
14926,-0.00052,1e-05,3e-05,4e-05,-0.00027,5e-05,7e-05,-0.0005,3,13
14927,-0.00052,1e-05,3e-05,4e-05,-0.00027,5e-05,7e-05,-0.0005,3,13
14928,-1e-05,3e-05,5e-05,-0.00015,-0.00052,-6e-05,4e-05,0.00021,3,13
14929,-1e-05,3e-05,5e-05,-0.00015,-0.00052,-6e-05,4e-05,0.00021,3,13
14930,-1e-05,3e-05,5e-05,-0.00015,-0.00052,-6e-05,4e-05,0.00021,3,13
14931,-1e-05,3e-05,5e-05,-0.00015,-0.00052,-6e-05,4e-05,0.00021,3,13
14932,-1e-05,3e-05,5e-05,-0.00015,-0.00052,-6e-05,4e-05,0.00021,3,13
14933,-1e-05,3e-05,5e-05,-0.00015,-0.00052,-6e-05,4e-05,0.00021,3,13
14934,-1e-05,3e-05,5e-05,-0.00015,-0.00052,-6e-05,4e-05,0.00021,3,13
14935,-1e-05,3e-05,5e-05,-0.00015,-0.00052,-6e-05,4e-05,0.00021,3,13
14936,-1e-05,3e-05,5e-05,-0.00015,-0.00052,-6e-05,4e-05,0.00021,3,13
14938,-1e-05,3e-05,5e-05,-0.00015,-0.00052,-6e-05,4e-05,0.00021,3,13
14939,-1e-05,3e-05,5e-05,-0.00015,-0.00052,-6e-05,4e-05,0.00021,3,13
14940,-1e-05,3e-05,5e-05,-0.00015,-0.00052,-6e-05,4e-05,0.00021,3,13
14941,-1e-05,3e-05,5e-05,-0.00015,-0.00052,-6e-05,4e-05,0.00021,3,13
14942,-1e-05,3e-05,5e-05,-0.00015,-0.00052,-6e-05,4e-05,0.00021,3,13
14943,-1e-05,3e-05,5e-05,-0.00015,-0.00052,-6e-05,4e-05,0.00021,3,13
14944,-1e-05,3e-05,5e-05,-0.00015,-0.00052,-6e-05,4e-05,0.00021,3,13
14945,-1e-05,3e-05,5e-05,-0.00015,-0.00052,-6e-05,4e-05,0.00021,3,13
14946,-1e-05,3e-05,5e-05,-0.00015,-0.00052,-6e-05,4e-05,0.00021,3,13
14947,-1e-05,3e-05,5e-05,-0.00015,-0.00052,-6e-05,4e-05,0.00021,3,13
14948,-1e-05,3e-05,5e-05,-0.00015,-0.00052,-6e-05,4e-05,0.00021,3,13
14949,-0.0002,-2e-05,-2e-05,0.00011,0.00036,3e-05,-0.00025,-0.00018,3,13
14950,-0.00068,-5e-05,-1e-05,7e-05,0.00039,0.00014,4e-05,-0.00036,3,13
14951,-0.00068,-5e-05,-1e-05,7e-05,0.00039,0.00014,4e-05,-0.00036,3,13
14952,-0.00068,-5e-05,-1e-05,7e-05,0.00039,0.00014,4e-05,-0.00036,3,13
14953,-0.00068,-5e-05,-1e-05,7e-05,0.00039,0.00014,4e-05,-0.00036,3,13
14954,-0.00068,-5e-05,-1e-05,7e-05,0.00039,0.00014,4e-05,-0.00036,3,13
14955,-0.00068,-5e-05,-1e-05,7e-05,0.00039,0.00014,4e-05,-0.00036,3,13
14956,-0.00068,-5e-05,-1e-05,7e-05,0.00039,0.00014,4e-05,-0.00036,3,13
14957,-0.00068,-5e-05,-1e-05,7e-05,0.00039,0.00014,4e-05,-0.00036,3,13
14959,-0.00068,-5e-05,-1e-05,7e-05,0.00039,0.00014,4e-05,-0.00036,3,13
14960,-0.00068,-5e-05,-1e-05,7e-05,0.00039,0.00014,4e-05,-0.00036,3,13
14961,-0.00068,-5e-05,-1e-05,7e-05,0.00039,0.00014,4e-05,-0.00036,3,13
14962,-0.00068,-5e-05,-1e-05,7e-05,0.00039,0.00014,4e-05,-0.00036,3,13
14963,-0.00068,-5e-05,-1e-05,7e-05,0.00039,0.00014,4e-05,-0.00036,3,13
14964,-0.00068,-5e-05,-1e-05,7e-05,0.00039,0.00014,4e-05,-0.00036,3,13
14965,-0.00068,-5e-05,-1e-05,7e-05,0.00039,0.00014,4e-05,-0.00036,3,13
14966,-0.00068,-5e-05,-1e-05,7e-05,0.00039,0.00014,4e-05,-0.00036,3,13
14967,-0.00068,-5e-05,-1e-05,7e-05,0.00039,0.00014,4e-05,-0.00036,3,13
14968,-0.00068,-5e-05,-1e-05,7e-05,0.00039,0.00014,4e-05,-0.00036,3,13
14969,-0.00068,-5e-05,-1e-05,7e-05,0.00039,0.00014,4e-05,-0.00036,3,13
14970,-0.00068,-5e-05,-1e-05,7e-05,0.00039,0.00014,4e-05,-0.00036,3,13
14971,-2e-05,-2e-05,0,2e-05,0.00062,7e-05,0.00037,-6e-05,3,13
14972,-2e-05,-2e-05,0,2e-05,0.00062,7e-05,0.00037,-6e-05,3,13
14973,-6e-05,-2e-05,-2e-05,-6e-05,4e-05,6e-05,-0.00016,-0.00012,3,13
14974,-6e-05,-2e-05,-2e-05,-6e-05,4e-05,6e-05,-0.00016,-0.00012,3,13
14975,-6e-05,-2e-05,-2e-05,-6e-05,4e-05,6e-05,-0.00016,-0.00012,3,13
14976,-6e-05,-2e-05,-2e-05,-6e-05,4e-05,6e-05,-0.00016,-0.00012,3,13
14977,-6e-05,-2e-05,-2e-05,-6e-05,4e-05,6e-05,-0.00016,-0.00012,3,13
14978,-6e-05,-2e-05,-2e-05,-6e-05,4e-05,6e-05,-0.00016,-0.00012,3,13
14979,-6e-05,-2e-05,-2e-05,-6e-05,4e-05,6e-05,-0.00016,-0.00012,3,13
14980,-6e-05,-2e-05,-2e-05,-6e-05,4e-05,6e-05,-0.00016,-0.00012,3,13
14981,-6e-05,-2e-05,-2e-05,-6e-05,4e-05,6e-05,-0.00016,-0.00012,3,13
14982,-6e-05,-2e-05,-2e-05,-6e-05,4e-05,6e-05,-0.00016,-0.00012,3,13
14983,-6e-05,-2e-05,-2e-05,-6e-05,4e-05,6e-05,-0.00016,-0.00012,3,13
14984,-6e-05,-2e-05,-2e-05,-6e-05,4e-05,6e-05,-0.00016,-0.00012,3,13
14985,0.00053,-1e-05,-2e-05,2e-05,-3e-05,4e-05,1e-05,0.00055,3,13
14986,0.00053,-1e-05,-2e-05,2e-05,-3e-05,4e-05,1e-05,0.00055,3,13
14988,0.00053,-1e-05,-2e-05,2e-05,-3e-05,4e-05,1e-05,0.00055,3,13
14989,0.00053,-1e-05,-2e-05,2e-05,-3e-05,4e-05,1e-05,0.00055,3,13
14990,0.00053,-1e-05,-2e-05,2e-05,-3e-05,4e-05,1e-05,0.00055,3,13
14991,0.00053,-1e-05,-2e-05,2e-05,-3e-05,4e-05,1e-05,0.00055,3,13
14992,-0.00017,5e-05,4e-05,-1e-05,-0.00037,-0.00021,-0.00011,-3e-05,3,13
14993,-0.00017,5e-05,4e-05,-1e-05,-0.00037,-0.00021,-0.00011,-3e-05,3,13
14994,-0.00017,5e-05,4e-05,-1e-05,-0.00037,-0.00021,-0.00011,-3e-05,3,13
14995,-0.00017,5e-05,4e-05,-1e-05,-0.00037,-0.00021,-0.00011,-3e-05,3,13
14996,-0.00017,5e-05,4e-05,-1e-05,-0.00037,-0.00021,-0.00011,-3e-05,3,13
14997,-0.00017,5e-05,4e-05,-1e-05,-0.00037,-0.00021,-0.00011,-3e-05,3,13
14998,-0.00017,5e-05,4e-05,-1e-05,-0.00037,-0.00021,-0.00011,-3e-05,3,13
14999,-0.00017,5e-05,4e-05,-1e-05,-0.00037,-0.00021,-0.00011,-3e-05,3,13
