11774,-0.0001,2e-05,1e-05,2e-05,-1e-05,-6e-05,-2e-05,-0.00011,3,14
11775,-0.0001,2e-05,1e-05,2e-05,-1e-05,-6e-05,-2e-05,-0.00011,3,14
11776,-0.0001,2e-05,1e-05,2e-05,-1e-05,-6e-05,-2e-05,-0.00011,3,14
11777,-0.0001,2e-05,1e-05,2e-05,-1e-05,-6e-05,-2e-05,-0.00011,3,14
11778,-0.0001,2e-05,1e-05,2e-05,-1e-05,-6e-05,-2e-05,-0.00011,3,14
11779,-0.0001,2e-05,1e-05,2e-05,-1e-05,-6e-05,-2e-05,-0.00011,3,14
11780,-0.0001,2e-05,1e-05,2e-05,-1e-05,-6e-05,-2e-05,-0.00011,3,14
11781,-0.0001,2e-05,1e-05,2e-05,-1e-05,-6e-05,-2e-05,-0.00011,3,14
11782,-0.0001,2e-05,1e-05,2e-05,-1e-05,-6e-05,-2e-05,-0.00011,3,14
11783,-0.0001,2e-05,1e-05,2e-05,-1e-05,-6e-05,-2e-05,-0.00011,3,14
11784,-0.0001,2e-05,1e-05,2e-05,-1e-05,-6e-05,-2e-05,-0.00011,3,14
11785,3e-05,5e-05,4e-05,3e-05,-2e-05,0.0001,5e-05,-2e-05,3,14
11786,5e-05,4e-05,-1e-05,-6e-05,-6e-05,-3e-05,-6e-05,0.00011,3,14
11788,5e-05,4e-05,-1e-05,-6e-05,-6e-05,-3e-05,-6e-05,0.00011,3,14
11789,5e-05,4e-05,-1e-05,-6e-05,-6e-05,-3e-05,-6e-05,0.00011,3,14
11790,5e-05,4e-05,-1e-05,-6e-05,-6e-05,-3e-05,-6e-05,0.00011,3,14
11791,5e-05,4e-05,-1e-05,-6e-05,-6e-05,-3e-05,-6e-05,0.00011,3,14
11792,5e-05,4e-05,-1e-05,-6e-05,-6e-05,-3e-05,-6e-05,0.00011,3,14
11793,5e-05,4e-05,-1e-05,-6e-05,-6e-05,-3e-05,-6e-05,0.00011,3,14
11794,-4e-05,-7e-05,-2e-05,-2e-05,-0.00012,-7e-05,-0.0002,4e-05,3,14
11795,-4e-05,-7e-05,-2e-05,-2e-05,-0.00012,-7e-05,-0.0002,4e-05,3,14
11796,-4e-05,-7e-05,-2e-05,-2e-05,-0.00012,-7e-05,-0.0002,4e-05,3,14
11797,-4e-05,-7e-05,-2e-05,-2e-05,-0.00012,-7e-05,-0.0002,4e-05,3,14
11798,-4e-05,-7e-05,-2e-05,-2e-05,-0.00012,-7e-05,-0.0002,4e-05,3,14
11799,-4e-05,-7e-05,-2e-05,-2e-05,-0.00012,-7e-05,-0.0002,4e-05,3,14
11800,-7e-05,-6e-05,-2e-05,1e-05,-0.00017,-1e-05,2e-05,-0.00028,3,14
11801,2e-05,-7e-05,-2e-05,-2e-05,-4e-05,-8e-05,-0.00014,3e-05,3,14
11802,2e-05,-7e-05,-2e-05,-2e-05,-4e-05,-8e-05,-0.00014,3e-05,3,14
11803,2e-05,-7e-05,-2e-05,-2e-05,-4e-05,-8e-05,-0.00014,3e-05,3,14
11804,2e-05,-7e-05,-2e-05,-2e-05,-4e-05,-8e-05,-0.00014,3e-05,3,14
11805,2e-05,-7e-05,-2e-05,-2e-05,-4e-05,-8e-05,-0.00014,3e-05,3,14
11806,2e-05,-7e-05,-2e-05,-2e-05,-4e-05,-8e-05,-0.00014,3e-05,3,14
11807,2e-05,-7e-05,-2e-05,-2e-05,-4e-05,-8e-05,-0.00014,3e-05,3,14
11808,2e-05,-7e-05,-2e-05,-2e-05,-4e-05,-8e-05,-0.00014,3e-05,3,14
11809,2e-05,-7e-05,-2e-05,-2e-05,-4e-05,-8e-05,-0.00014,3e-05,3,14
11810,2e-05,-7e-05,-2e-05,-2e-05,-4e-05,-8e-05,-0.00014,3e-05,3,14
11811,2e-05,-7e-05,-2e-05,-2e-05,-4e-05,-8e-05,-0.00014,3e-05,3,14
11812,2e-05,-7e-05,-2e-05,-2e-05,-4e-05,-8e-05,-0.00014,3e-05,3,14
11813,2e-05,-7e-05,-2e-05,-2e-05,-4e-05,-8e-05,-0.00014,3e-05,3,14
11814,2e-05,-7e-05,-2e-05,-2e-05,-4e-05,-8e-05,-0.00014,3e-05,3,14
11815,2e-05,-7e-05,-2e-05,-2e-05,-4e-05,-8e-05,-0.00014,3e-05,3,14
11816,2e-05,-7e-05,-2e-05,-2e-05,-4e-05,-8e-05,-0.00014,3e-05,3,14
11817,8e-05,-3e-05,-1e-05,-4e-05,-9e-05,-7e-05,-0.00013,0.00037,3,14
11818,-2e-05,-4e-05,-2e-05,-3e-05,-5e-05,-4e-05,-0.00019,-4e-05,3,14
11819,-2e-05,-4e-05,-2e-05,-3e-05,-5e-05,-4e-05,-0.00019,-4e-05,3,14
11820,-2e-05,-4e-05,-2e-05,-3e-05,-5e-05,-4e-05,-0.00019,-4e-05,3,14
11821,-2e-05,-4e-05,-2e-05,-3e-05,-5e-05,-4e-05,-0.00019,-4e-05,3,14
11822,-2e-05,-4e-05,-2e-05,-3e-05,-5e-05,-4e-05,-0.00019,-4e-05,3,14
11823,-2e-05,-4e-05,-2e-05,-3e-05,-5e-05,-4e-05,-0.00019,-4e-05,3,14
11824,-2e-05,-4e-05,-2e-05,-3e-05,-5e-05,-4e-05,-0.00019,-4e-05,3,14
11825,-2e-05,-4e-05,-2e-05,-3e-05,-5e-05,-4e-05,-0.00019,-4e-05,3,14
11826,-2e-05,-4e-05,-2e-05,-3e-05,-5e-05,-4e-05,-0.00019,-4e-05,3,14
11827,-2e-05,-4e-05,-2e-05,-3e-05,-5e-05,-4e-05,-0.00019,-4e-05,3,14
11828,-2e-05,-4e-05,-2e-05,-3e-05,-5e-05,-4e-05,-0.00019,-4e-05,3,14
11829,-2e-05,-4e-05,-2e-05,-3e-05,-5e-05,-4e-05,-0.00019,-4e-05,3,14
11830,-2e-05,-4e-05,-2e-05,-3e-05,-5e-05,-4e-05,-0.00019,-4e-05,3,14
11831,-8e-05,-3e-05,1e-05,0,-5e-05,1e-05,0.00017,-0.00018,3,14
11832,-8e-05,-3e-05,1e-05,0,-5e-05,1e-05,0.00017,-0.00018,3,14
11833,-8e-05,-3e-05,1e-05,0,-5e-05,1e-05,0.00017,-0.00018,3,14
11834,-8e-05,-3e-05,1e-05,0,-5e-05,1e-05,0.00017,-0.00018,3,14
11835,-8e-05,-3e-05,1e-05,0,-5e-05,1e-05,0.00017,-0.00018,3,14
11836,-8e-05,-3e-05,1e-05,0,-5e-05,1e-05,0.00017,-0.00018,3,14
11838,-3e-05,-7e-05,-2e-05,-6e-05,-7e-05,-9e-05,9e-05,0.00013,3,14
11839,-0.0001,1e-05,-1e-05,-2e-05,2e-05,-7e-05,-1e-05,-0.00013,3,14
11840,-0.0001,1e-05,-1e-05,-2e-05,2e-05,-7e-05,-1e-05,-0.00013,3,14
11841,-0.0001,1e-05,-1e-05,-2e-05,2e-05,-7e-05,-1e-05,-0.00013,3,14
11842,-0.0001,1e-05,-1e-05,-2e-05,2e-05,-7e-05,-1e-05,-0.00013,3,14
11843,-0.0001,1e-05,-1e-05,-2e-05,2e-05,-7e-05,-1e-05,-0.00013,3,14
11844,-0.0001,1e-05,-1e-05,-2e-05,2e-05,-7e-05,-1e-05,-0.00013,3,14
11845,-0.0001,1e-05,-1e-05,-2e-05,2e-05,-7e-05,-1e-05,-0.00013,3,14
11846,-0.0001,1e-05,-1e-05,-2e-05,2e-05,-7e-05,-1e-05,-0.00013,3,14
11847,-0.0001,1e-05,-1e-05,-2e-05,2e-05,-7e-05,-1e-05,-0.00013,3,14
11848,-0.0001,1e-05,-1e-05,-2e-05,2e-05,-7e-05,-1e-05,-0.00013,3,14
11849,-0.0001,1e-05,-1e-05,-2e-05,2e-05,-7e-05,-1e-05,-0.00013,3,14
11850,-0.0001,1e-05,-1e-05,-2e-05,2e-05,-7e-05,-1e-05,-0.00013,3,14
11851,-0.0001,1e-05,-1e-05,-2e-05,2e-05,-7e-05,-1e-05,-0.00013,3,14
11852,-0.0001,1e-05,-1e-05,-2e-05,2e-05,-7e-05,-1e-05,-0.00013,3,14
11853,-0.0001,1e-05,-1e-05,-2e-05,2e-05,-7e-05,-1e-05,-0.00013,3,14
11854,-9e-05,-0.00011,0,0,-0.0001,-3e-05,-0.00037,-0.0006,3,14
11855,-9e-05,-0.00011,0,0,-0.0001,-3e-05,-0.00037,-0.0006,3,14
11856,-9e-05,-0.00011,0,0,-0.0001,-3e-05,-0.00037,-0.0006,3,14
11857,-9e-05,-0.00011,0,0,-0.0001,-3e-05,-0.00037,-0.0006,3,14
11858,-9e-05,-0.00011,0,0,-0.0001,-3e-05,-0.00037,-0.0006,3,14
11859,-9e-05,-0.00011,0,0,-0.0001,-3e-05,-0.00037,-0.0006,3,14
11860,-9e-05,-0.00011,0,0,-0.0001,-3e-05,-0.00037,-0.0006,3,14
11861,-1e-05,0,0.00012,0,-0.0002,2e-05,0.00019,-1e-05,3,14
11862,-1e-05,0,0.00012,0,-0.0002,2e-05,0.00019,-1e-05,3,14
11863,-1e-05,0,0.00012,0,-0.0002,2e-05,0.00019,-1e-05,3,14
11864,-1e-05,0,0.00012,0,-0.0002,2e-05,0.00019,-1e-05,3,14
11865,-1e-05,0,0.00012,0,-0.0002,2e-05,0.00019,-1e-05,3,14
11866,-1e-05,0,0.00012,0,-0.0002,2e-05,0.00019,-1e-05,3,14
11867,-1e-05,0,0.00012,0,-0.0002,2e-05,0.00019,-1e-05,3,14
11868,-1e-05,0,0.00012,0,-0.0002,2e-05,0.00019,-1e-05,3,14
11869,-1e-05,0,0.00012,0,-0.0002,2e-05,0.00019,-1e-05,3,14
11870,-1e-05,0,0.00012,0,-0.0002,2e-05,0.00019,-1e-05,3,14
11871,-1e-05,0,0.00012,0,-0.0002,2e-05,0.00019,-1e-05,3,14
11872,-1e-05,0,0.00012,0,-0.0002,2e-05,0.00019,-1e-05,3,14
11873,-1e-05,0,0.00012,0,-0.0002,2e-05,0.00019,-1e-05,3,14
11874,-1e-05,0,0.00012,0,-0.0002,2e-05,0.00019,-1e-05,3,14
11875,-1e-05,0,0.00012,0,-0.0002,2e-05,0.00019,-1e-05,3,14
11876,-1e-05,0,0.00012,0,-0.0002,2e-05,0.00019,-1e-05,3,14
11877,1e-05,2e-05,0,-1e-05,-1e-05,-5e-05,-0.00018,0.00055,3,14
11878,2e-05,1e-05,4e-05,-2e-05,4e-05,-5e-05,-0.00019,0.00034,3,14
11879,-1e-05,-8e-05,-6e-05,-4e-05,-5e-05,-3e-05,8e-05,0.00021,3,14
11880,-1e-05,-8e-05,-6e-05,-4e-05,-5e-05,-3e-05,8e-05,0.00021,3,14
11881,-1e-05,-8e-05,-6e-05,-4e-05,-5e-05,-3e-05,8e-05,0.00021,3,14
11882,-1e-05,-8e-05,-6e-05,-4e-05,-5e-05,-3e-05,8e-05,0.00021,3,14
11883,-1e-05,-8e-05,-6e-05,-4e-05,-5e-05,-3e-05,8e-05,0.00021,3,14
11884,-1e-05,-8e-05,-6e-05,-4e-05,-5e-05,-3e-05,8e-05,0.00021,3,14
11885,-1e-05,-8e-05,-6e-05,-4e-05,-5e-05,-3e-05,8e-05,0.00021,3,14
11886,-1e-05,-8e-05,-6e-05,-4e-05,-5e-05,-3e-05,8e-05,0.00021,3,14
11888,-1e-05,-8e-05,-6e-05,-4e-05,-5e-05,-3e-05,8e-05,0.00021,3,14
11889,-1e-05,-8e-05,-6e-05,-4e-05,-5e-05,-3e-05,8e-05,0.00021,3,14
11890,-1e-05,-8e-05,-6e-05,-4e-05,-5e-05,-3e-05,8e-05,0.00021,3,14
11891,-2e-05,0,-4e-05,1e-05,0,3e-05,-0.0001,3e-05,3,14
11892,-2e-05,0,-4e-05,1e-05,0,3e-05,-0.0001,3e-05,3,14
11893,-2e-05,0,-4e-05,1e-05,0,3e-05,-0.0001,3e-05,3,14
11894,-2e-05,0,-4e-05,1e-05,0,3e-05,-0.0001,3e-05,3,14
11895,-2e-05,0,-4e-05,1e-05,0,3e-05,-0.0001,3e-05,3,14
11896,-2e-05,0,-4e-05,1e-05,0,3e-05,-0.0001,3e-05,3,14
11897,-2e-05,0,-4e-05,1e-05,0,3e-05,-0.0001,3e-05,3,14
11898,-2e-05,0,-4e-05,1e-05,0,3e-05,-0.0001,3e-05,3,14
11899,-2e-05,0,-4e-05,1e-05,0,3e-05,-0.0001,3e-05,3,14
11900,9e-05,5e-05,2e-05,3e-05,0.00016,5e-05,8e-05,0.00032,3,14
11901,9e-05,5e-05,2e-05,3e-05,0.00016,5e-05,8e-05,0.00032,3,14
11902,9e-05,5e-05,2e-05,3e-05,0.00016,5e-05,8e-05,0.00032,3,14
11903,9e-05,5e-05,2e-05,3e-05,0.00016,5e-05,8e-05,0.00032,3,14
11904,9e-05,5e-05,2e-05,3e-05,0.00016,5e-05,8e-05,0.00032,3,14
11905,9e-05,5e-05,2e-05,3e-05,0.00016,5e-05,8e-05,0.00032,3,14
11906,9e-05,5e-05,2e-05,3e-05,0.00016,5e-05,8e-05,0.00032,3,14
11907,9e-05,5e-05,2e-05,3e-05,0.00016,5e-05,8e-05,0.00032,3,14
11908,9e-05,5e-05,2e-05,3e-05,0.00016,5e-05,8e-05,0.00032,3,14
11909,9e-05,5e-05,2e-05,3e-05,0.00016,5e-05,8e-05,0.00032,3,14
11910,9e-05,5e-05,2e-05,3e-05,0.00016,5e-05,8e-05,0.00032,3,14
11911,9e-05,5e-05,2e-05,3e-05,0.00016,5e-05,8e-05,0.00032,3,14
11912,9e-05,5e-05,2e-05,3e-05,0.00016,5e-05,8e-05,0.00032,3,14
11913,9e-05,5e-05,2e-05,3e-05,0.00016,5e-05,8e-05,0.00032,3,14
11914,-4e-05,-1e-05,-3e-05,1e-05,1e-05,0.00012,0.00018,-0.00037,3,14
11915,-4e-05,-1e-05,-3e-05,1e-05,1e-05,0.00012,0.00018,-0.00037,3,14
11916,-4e-05,-1e-05,-3e-05,1e-05,1e-05,0.00012,0.00018,-0.00037,3,14
11917,-4e-05,-1e-05,-3e-05,1e-05,1e-05,0.00012,0.00018,-0.00037,3,14
11918,-4e-05,-1e-05,-3e-05,1e-05,1e-05,0.00012,0.00018,-0.00037,3,14
11919,-4e-05,-1e-05,-3e-05,1e-05,1e-05,0.00012,0.00018,-0.00037,3,14
11920,-2e-05,-1e-05,2e-05,1e-05,6e-05,4e-05,-5e-05,2e-05,3,14
11921,1e-05,-5e-05,-5e-05,1e-05,1e-05,7e-05,-0.00014,-0.0001,3,14
11922,1e-05,-5e-05,-5e-05,1e-05,1e-05,7e-05,-0.00014,-0.0001,3,14
11923,1e-05,-5e-05,-5e-05,1e-05,1e-05,7e-05,-0.00014,-0.0001,3,14
11924,1e-05,-5e-05,-5e-05,1e-05,1e-05,7e-05,-0.00014,-0.0001,3,14
11925,1e-05,-5e-05,-5e-05,1e-05,1e-05,7e-05,-0.00014,-0.0001,3,14
11926,1e-05,-5e-05,-5e-05,1e-05,1e-05,7e-05,-0.00014,-0.0001,3,14
11927,1e-05,-5e-05,-5e-05,1e-05,1e-05,7e-05,-0.00014,-0.0001,3,14
11928,1e-05,-5e-05,-5e-05,1e-05,1e-05,7e-05,-0.00014,-0.0001,3,14
11929,1e-05,-5e-05,-5e-05,1e-05,1e-05,7e-05,-0.00014,-0.0001,3,14
11930,1e-05,-5e-05,-5e-05,1e-05,1e-05,7e-05,-0.00014,-0.0001,3,14
11931,1e-05,-5e-05,-5e-05,1e-05,1e-05,7e-05,-0.00014,-0.0001,3,14
11932,1e-05,-5e-05,-5e-05,1e-05,1e-05,7e-05,-0.00014,-0.0001,3,14
11933,1e-05,-5e-05,-5e-05,1e-05,1e-05,7e-05,-0.00014,-0.0001,3,14
11934,1e-05,-5e-05,-5e-05,1e-05,1e-05,7e-05,-0.00014,-0.0001,3,14
11935,1e-05,-5e-05,-5e-05,1e-05,1e-05,7e-05,-0.00014,-0.0001,3,14
11936,1e-05,-5e-05,-5e-05,1e-05,1e-05,7e-05,-0.00014,-0.0001,3,14
11939,3e-05,-2e-05,-5e-05,-5e-05,0,-6e-05,-0.00022,2e-05,3,14
11940,3e-05,-2e-05,-5e-05,-5e-05,0,-6e-05,-0.00022,2e-05,3,14
11941,3e-05,-2e-05,-5e-05,-5e-05,0,-6e-05,-0.00022,2e-05,3,14
11942,3e-05,-2e-05,-5e-05,-5e-05,0,-6e-05,-0.00022,2e-05,3,14
11943,3e-05,-2e-05,-5e-05,-5e-05,0,-6e-05,-0.00022,2e-05,3,14
11944,3e-05,-2e-05,-5e-05,-5e-05,0,-6e-05,-0.00022,2e-05,3,14
11945,3e-05,-2e-05,-5e-05,-5e-05,0,-6e-05,-0.00022,2e-05,3,14
11946,3e-05,-2e-05,-5e-05,-5e-05,0,-6e-05,-0.00022,2e-05,3,14
11947,3e-05,-2e-05,-5e-05,-5e-05,0,-6e-05,-0.00022,2e-05,3,14
11948,3e-05,-2e-05,-5e-05,-5e-05,0,-6e-05,-0.00022,2e-05,3,14
11949,3e-05,-2e-05,-5e-05,-5e-05,0,-6e-05,-0.00022,2e-05,3,14
11950,3e-05,-2e-05,-5e-05,-5e-05,0,-6e-05,-0.00022,2e-05,3,14
11951,6e-05,1e-05,1e-05,-5e-05,-3e-05,0,0.00027,4e-05,3,14
11952,6e-05,1e-05,1e-05,-5e-05,-3e-05,0,0.00027,4e-05,3,14
11953,6e-05,1e-05,1e-05,-5e-05,-3e-05,0,0.00027,4e-05,3,14
11954,6e-05,1e-05,1e-05,-5e-05,-3e-05,0,0.00027,4e-05,3,14
11955,6e-05,1e-05,1e-05,-5e-05,-3e-05,0,0.00027,4e-05,3,14
11956,6e-05,1e-05,1e-05,-5e-05,-3e-05,0,0.00027,4e-05,3,14
11957,6e-05,1e-05,1e-05,-5e-05,-3e-05,0,0.00027,4e-05,3,14
11958,6e-05,1e-05,1e-05,-5e-05,-3e-05,0,0.00027,4e-05,3,14
11959,6e-05,1e-05,1e-05,-5e-05,-3e-05,0,0.00027,4e-05,3,14
11960,7e-05,0,-2e-05,0,-0.00011,-6e-05,-3e-05,-0.00019,3,14
11961,7e-05,0,-2e-05,0,-0.00011,-6e-05,-3e-05,-0.00019,3,14
11962,7e-05,0,-2e-05,0,-0.00011,-6e-05,-3e-05,-0.00019,3,14
11963,7e-05,0,-2e-05,0,-0.00011,-6e-05,-3e-05,-0.00019,3,14
11964,7e-05,0,-2e-05,0,-0.00011,-6e-05,-3e-05,-0.00019,3,14
11965,7e-05,0,-2e-05,0,-0.00011,-6e-05,-3e-05,-0.00019,3,14
11966,7e-05,0,-2e-05,0,-0.00011,-6e-05,-3e-05,-0.00019,3,14
11967,7e-05,0,-2e-05,0,-0.00011,-6e-05,-3e-05,-0.00019,3,14
11968,7e-05,0,-2e-05,0,-0.00011,-6e-05,-3e-05,-0.00019,3,14
11969,7e-05,0,-2e-05,0,-0.00011,-6e-05,-3e-05,-0.00019,3,14
11970,7e-05,0,-2e-05,0,-0.00011,-6e-05,-3e-05,-0.00019,3,14
11971,7e-05,0,-2e-05,0,-0.00011,-6e-05,-3e-05,-0.00019,3,14
11972,7e-05,0,-2e-05,0,-0.00011,-6e-05,-3e-05,-0.00019,3,14
11973,7e-05,0,-2e-05,0,-0.00011,-6e-05,-3e-05,-0.00019,3,14
11975,-6e-05,0,-2e-05,-8e-05,-9e-05,0,-7e-05,-6e-05,3,14
11976,-6e-05,0,-2e-05,-8e-05,-9e-05,0,-7e-05,-6e-05,3,14
11977,-6e-05,0,-2e-05,-8e-05,-9e-05,0,-7e-05,-6e-05,3,14
11978,-6e-05,0,-2e-05,-8e-05,-9e-05,0,-7e-05,-6e-05,3,14
11979,-6e-05,0,-2e-05,-8e-05,-9e-05,0,-7e-05,-6e-05,3,14
11980,6e-05,-6e-05,-5e-05,0,-1e-05,4e-05,-9e-05,8e-05,3,14
11981,-1e-05,-1e-05,2e-05,8e-05,0.00014,8e-05,0.00043,0.00017,3,14
11982,-1e-05,-1e-05,2e-05,8e-05,0.00014,8e-05,0.00043,0.00017,3,14
11983,-1e-05,-1e-05,2e-05,8e-05,0.00014,8e-05,0.00043,0.00017,3,14
11984,-1e-05,-1e-05,2e-05,8e-05,0.00014,8e-05,0.00043,0.00017,3,14
11985,-1e-05,-1e-05,2e-05,8e-05,0.00014,8e-05,0.00043,0.00017,3,14
11986,-1e-05,-1e-05,2e-05,8e-05,0.00014,8e-05,0.00043,0.00017,3,14
11988,-1e-05,-1e-05,2e-05,8e-05,0.00014,8e-05,0.00043,0.00017,3,14
11989,-1e-05,-1e-05,2e-05,8e-05,0.00014,8e-05,0.00043,0.00017,3,14
11990,-1e-05,-1e-05,2e-05,8e-05,0.00014,8e-05,0.00043,0.00017,3,14
11991,-1e-05,-1e-05,2e-05,8e-05,0.00014,8e-05,0.00043,0.00017,3,14
11992,-1e-05,-1e-05,2e-05,8e-05,0.00014,8e-05,0.00043,0.00017,3,14
11993,-1e-05,-1e-05,2e-05,8e-05,0.00014,8e-05,0.00043,0.00017,3,14
11994,-1e-05,-1e-05,2e-05,8e-05,0.00014,8e-05,0.00043,0.00017,3,14
11995,-1e-05,-1e-05,2e-05,8e-05,0.00014,8e-05,0.00043,0.00017,3,14
11996,-1e-05,-1e-05,2e-05,8e-05,0.00014,8e-05,0.00043,0.00017,3,14
11997,3e-05,0,5e-05,7e-05,6e-05,0.0001,3e-05,-0.00021,3,14
11998,3e-05,0,0.00014,-1e-05,0.00017,-0.00011,0.00012,0.00058,3,14
11999,-9e-05,-4e-05,-0.00017,0,-0.00011,0.00014,-8e-05,0.00015,3,14
12000,-9e-05,-4e-05,-0.00017,0,-0.00011,0.00014,-8e-05,0.00015,3,14
12001,-9e-05,-4e-05,-0.00017,0,-0.00011,0.00014,-8e-05,0.00015,3,14
12002,-9e-05,-4e-05,-0.00017,0,-0.00011,0.00014,-8e-05,0.00015,3,14
12003,-9e-05,-4e-05,-0.00017,0,-0.00011,0.00014,-8e-05,0.00015,3,14
12004,-9e-05,-4e-05,-0.00017,0,-0.00011,0.00014,-8e-05,0.00015,3,14
12005,-9e-05,-4e-05,-0.00017,0,-0.00011,0.00014,-8e-05,0.00015,3,14
12006,-9e-05,-4e-05,-0.00017,0,-0.00011,0.00014,-8e-05,0.00015,3,14
12007,-9e-05,-4e-05,-0.00017,0,-0.00011,0.00014,-8e-05,0.00015,3,14
12008,-9e-05,-4e-05,-0.00017,0,-0.00011,0.00014,-8e-05,0.00015,3,14
12009,-9e-05,-4e-05,-0.00017,0,-0.00011,0.00014,-8e-05,0.00015,3,14
12010,3e-05,-3e-05,2e-05,-4e-05,-1e-05,-0.00016,0.00011,0.00011,3,14
12011,3e-05,-3e-05,2e-05,-4e-05,-1e-05,-0.00016,0.00011,0.00011,3,14
12012,3e-05,-3e-05,2e-05,-4e-05,-1e-05,-0.00016,0.00011,0.00011,3,14
12013,3e-05,-3e-05,2e-05,-4e-05,-1e-05,-0.00016,0.00011,0.00011,3,14
12014,3e-05,-3e-05,2e-05,-4e-05,-1e-05,-0.00016,0.00011,0.00011,3,14
12015,3e-05,-3e-05,2e-05,-4e-05,-1e-05,-0.00016,0.00011,0.00011,3,14
12016,3e-05,-3e-05,2e-05,-4e-05,-1e-05,-0.00016,0.00011,0.00011,3,14
12017,3e-05,-3e-05,2e-05,-4e-05,-1e-05,-0.00016,0.00011,0.00011,3,14
12018,3e-05,-3e-05,2e-05,-4e-05,-1e-05,-0.00016,0.00011,0.00011,3,14
12019,-5e-05,-1e-05,8e-05,1e-05,-9e-05,-3e-05,-6e-05,-0.00014,3,14
12020,-5e-05,-1e-05,8e-05,1e-05,-9e-05,-3e-05,-6e-05,-0.00014,3,14
12021,-5e-05,-1e-05,8e-05,1e-05,-9e-05,-3e-05,-6e-05,-0.00014,3,14
12022,-5e-05,-1e-05,8e-05,1e-05,-9e-05,-3e-05,-6e-05,-0.00014,3,14
12023,-5e-05,-1e-05,8e-05,1e-05,-9e-05,-3e-05,-6e-05,-0.00014,3,14
12024,-5e-05,-1e-05,8e-05,1e-05,-9e-05,-3e-05,-6e-05,-0.00014,3,14
12025,-5e-05,-1e-05,8e-05,1e-05,-9e-05,-3e-05,-6e-05,-0.00014,3,14
12026,-5e-05,-1e-05,8e-05,1e-05,-9e-05,-3e-05,-6e-05,-0.00014,3,14
12027,-5e-05,-1e-05,8e-05,1e-05,-9e-05,-3e-05,-6e-05,-0.00014,3,14
12028,-5e-05,-1e-05,8e-05,1e-05,-9e-05,-3e-05,-6e-05,-0.00014,3,14
12029,-5e-05,-1e-05,8e-05,1e-05,-9e-05,-3e-05,-6e-05,-0.00014,3,14
12030,-5e-05,-1e-05,8e-05,1e-05,-9e-05,-3e-05,-6e-05,-0.00014,3,14
12031,-5e-05,-1e-05,8e-05,1e-05,-9e-05,-3e-05,-6e-05,-0.00014,3,14
12032,-5e-05,-1e-05,8e-05,1e-05,-9e-05,-3e-05,-6e-05,-0.00014,3,14
12033,-5e-05,-1e-05,8e-05,1e-05,-9e-05,-3e-05,-6e-05,-0.00014,3,14
12034,-4e-05,-2e-05,-7e-05,-3e-05,2e-05,2e-05,-0.00015,4e-05,3,14
12035,-4e-05,-2e-05,-7e-05,-3e-05,2e-05,2e-05,-0.00015,4e-05,3,14
12036,-4e-05,-2e-05,-7e-05,-3e-05,2e-05,2e-05,-0.00015,4e-05,3,14
12038,-4e-05,-2e-05,-7e-05,-3e-05,2e-05,2e-05,-0.00015,4e-05,3,14
12039,-4e-05,-2e-05,-7e-05,-3e-05,2e-05,2e-05,-0.00015,4e-05,3,14
12040,-4e-05,-2e-05,-7e-05,-3e-05,2e-05,2e-05,-0.00015,4e-05,3,14
12041,-3e-05,-2e-05,-3e-05,-3e-05,-2e-05,4e-05,0.00014,-0.00012,3,14
12042,-3e-05,-2e-05,-3e-05,-3e-05,-2e-05,4e-05,0.00014,-0.00012,3,14
12043,-3e-05,-2e-05,-3e-05,-3e-05,-2e-05,4e-05,0.00014,-0.00012,3,14
12044,-3e-05,-2e-05,-3e-05,-3e-05,-2e-05,4e-05,0.00014,-0.00012,3,14
12045,-3e-05,-2e-05,-3e-05,-3e-05,-2e-05,4e-05,0.00014,-0.00012,3,14
12046,-3e-05,-2e-05,-3e-05,-3e-05,-2e-05,4e-05,0.00014,-0.00012,3,14
12047,-3e-05,-2e-05,-3e-05,-3e-05,-2e-05,4e-05,0.00014,-0.00012,3,14
12048,-3e-05,-2e-05,-3e-05,-3e-05,-2e-05,4e-05,0.00014,-0.00012,3,14
12049,-3e-05,-2e-05,-3e-05,-3e-05,-2e-05,4e-05,0.00014,-0.00012,3,14
12050,-3e-05,-2e-05,-3e-05,-3e-05,-2e-05,4e-05,0.00014,-0.00012,3,14
12051,-3e-05,-2e-05,-3e-05,-3e-05,-2e-05,4e-05,0.00014,-0.00012,3,14
12052,-3e-05,-2e-05,-3e-05,-3e-05,-2e-05,4e-05,0.00014,-0.00012,3,14
12053,-3e-05,-2e-05,-3e-05,-3e-05,-2e-05,4e-05,0.00014,-0.00012,3,14
12054,-3e-05,-2e-05,-3e-05,-3e-05,-2e-05,4e-05,0.00014,-0.00012,3,14
12055,-3e-05,-2e-05,-3e-05,-3e-05,-2e-05,4e-05,0.00014,-0.00012,3,14
12056,-3e-05,-2e-05,-3e-05,-3e-05,-2e-05,4e-05,0.00014,-0.00012,3,14
12057,-3e-05,-2e-05,-3e-05,-3e-05,-2e-05,4e-05,0.00014,-0.00012,3,14
12058,-3e-05,-2e-05,-3e-05,-3e-05,-2e-05,4e-05,0.00014,-0.00012,3,14
12059,-3e-05,-2e-05,-3e-05,-3e-05,-2e-05,4e-05,0.00014,-0.00012,3,14
12060,-3e-05,-2e-05,-3e-05,-3e-05,-2e-05,4e-05,0.00014,-0.00012,3,14
12061,-3e-05,-2e-05,-3e-05,-3e-05,-2e-05,4e-05,0.00014,-0.00012,3,14
12062,-3e-05,-2e-05,-3e-05,-3e-05,-2e-05,4e-05,0.00014,-0.00012,3,14
12063,-3e-05,-2e-05,-3e-05,-3e-05,-2e-05,4e-05,0.00014,-0.00012,3,14
12064,-3e-05,-2e-05,-3e-05,-3e-05,-2e-05,4e-05,0.00014,-0.00012,3,14
12065,-3e-05,-2e-05,-3e-05,-3e-05,-2e-05,4e-05,0.00014,-0.00012,3,14
12066,-3e-05,-2e-05,-3e-05,-3e-05,-2e-05,4e-05,0.00014,-0.00012,3,14
12067,-3e-05,-2e-05,-3e-05,-3e-05,-2e-05,4e-05,0.00014,-0.00012,3,14
12068,-3e-05,-2e-05,-3e-05,-3e-05,-2e-05,4e-05,0.00014,-0.00012,3,14
12069,-3e-05,-2e-05,-3e-05,-3e-05,-2e-05,4e-05,0.00014,-0.00012,3,14
12070,-3e-05,-2e-05,-3e-05,-3e-05,-2e-05,4e-05,0.00014,-0.00012,3,14
12071,-3e-05,-2e-05,-3e-05,-3e-05,-2e-05,4e-05,0.00014,-0.00012,3,14
12072,-3e-05,-2e-05,-3e-05,-3e-05,-2e-05,4e-05,0.00014,-0.00012,3,14
12073,-3e-05,-2e-05,-3e-05,-3e-05,-2e-05,4e-05,0.00014,-0.00012,3,14
12074,-3e-05,-2e-05,-3e-05,-3e-05,-2e-05,4e-05,0.00014,-0.00012,3,14
12075,-3e-05,-2e-05,-3e-05,-3e-05,-2e-05,4e-05,0.00014,-0.00012,3,14
12076,-3e-05,-2e-05,-3e-05,-3e-05,-2e-05,4e-05,0.00014,-0.00012,3,14
12077,-3e-05,-2e-05,-3e-05,-3e-05,-2e-05,4e-05,0.00014,-0.00012,3,14
12078,-3e-05,-2e-05,-3e-05,-3e-05,-2e-05,4e-05,0.00014,-0.00012,3,14
12079,1e-05,3e-05,1e-05,3e-05,2e-05,4e-05,5e-05,7e-05,3,14
12080,1e-05,3e-05,1e-05,3e-05,2e-05,4e-05,5e-05,7e-05,3,14
12081,1e-05,3e-05,1e-05,3e-05,2e-05,4e-05,5e-05,7e-05,3,14
12082,1e-05,3e-05,1e-05,3e-05,2e-05,4e-05,5e-05,7e-05,3,14
12083,1e-05,3e-05,1e-05,3e-05,2e-05,4e-05,5e-05,7e-05,3,14
12084,1e-05,3e-05,1e-05,3e-05,2e-05,4e-05,5e-05,7e-05,3,14
12085,1e-05,3e-05,1e-05,3e-05,2e-05,4e-05,5e-05,7e-05,3,14
12086,1e-05,3e-05,1e-05,3e-05,2e-05,4e-05,5e-05,7e-05,3,14
12088,0.00023,5e-05,3e-05,-3e-05,1e-05,7e-05,-0.00052,0,3,14
12089,0.00023,5e-05,3e-05,-3e-05,1e-05,7e-05,-0.00052,0,3,14
12090,0.00023,5e-05,3e-05,-3e-05,1e-05,7e-05,-0.00052,0,3,14
12091,0.00023,5e-05,3e-05,-3e-05,1e-05,7e-05,-0.00052,0,3,14
12092,0.00023,5e-05,3e-05,-3e-05,1e-05,7e-05,-0.00052,0,3,14
12093,0.00023,5e-05,3e-05,-3e-05,1e-05,7e-05,-0.00052,0,3,14
12094,0.00023,5e-05,3e-05,-3e-05,1e-05,7e-05,-0.00052,0,3,14
12095,0.00023,5e-05,3e-05,-3e-05,1e-05,7e-05,-0.00052,0,3,14
12096,0.00023,5e-05,3e-05,-3e-05,1e-05,7e-05,-0.00052,0,3,14
12097,0.00023,5e-05,3e-05,-3e-05,1e-05,7e-05,-0.00052,0,3,14
12098,0.00023,5e-05,3e-05,-3e-05,1e-05,7e-05,-0.00052,0,3,14
12099,0.00023,5e-05,3e-05,-3e-05,1e-05,7e-05,-0.00052,0,3,14
12100,0.00023,5e-05,3e-05,-3e-05,1e-05,7e-05,-0.00052,0,3,14
12101,0.00023,5e-05,3e-05,-3e-05,1e-05,7e-05,-0.00052,0,3,14
12102,-4e-05,2e-05,-1e-05,-3e-05,4e-05,7e-05,4e-05,-0.00026,3,14
12103,-4e-05,2e-05,-1e-05,-3e-05,4e-05,7e-05,4e-05,-0.00026,3,14
12104,-5e-05,-3e-05,-4e-05,-5e-05,-9e-05,-0.00021,-0.0003,-0.00011,3,14
12105,-5e-05,-3e-05,-4e-05,-5e-05,-9e-05,-0.00021,-0.0003,-0.00011,3,14
12106,-5e-05,-3e-05,-4e-05,-5e-05,-9e-05,-0.00021,-0.0003,-0.00011,3,14
12107,-5e-05,-3e-05,-4e-05,-5e-05,-9e-05,-0.00021,-0.0003,-0.00011,3,14
12108,-5e-05,-3e-05,-4e-05,-5e-05,-9e-05,-0.00021,-0.0003,-0.00011,3,14
12109,-5e-05,-3e-05,-4e-05,-5e-05,-9e-05,-0.00021,-0.0003,-0.00011,3,14
12110,-5e-05,-3e-05,-4e-05,-5e-05,-9e-05,-0.00021,-0.0003,-0.00011,3,14
12111,-5e-05,-3e-05,-4e-05,-5e-05,-9e-05,-0.00021,-0.0003,-0.00011,3,14
12112,-5e-05,-3e-05,-4e-05,-5e-05,-9e-05,-0.00021,-0.0003,-0.00011,3,14
12113,-5e-05,-3e-05,-4e-05,-5e-05,-9e-05,-0.00021,-0.0003,-0.00011,3,14
12114,-5e-05,-3e-05,-4e-05,-5e-05,-9e-05,-0.00021,-0.0003,-0.00011,3,14
12115,-5e-05,-3e-05,-4e-05,-5e-05,-9e-05,-0.00021,-0.0003,-0.00011,3,14
12116,-5e-05,-3e-05,-4e-05,-5e-05,-9e-05,-0.00021,-0.0003,-0.00011,3,14
12117,5e-05,-3e-05,-2e-05,0,0.00049,-1e-05,-2e-05,0.00038,3,14
12118,-0.00011,-3e-05,-4e-05,0,0.00038,0,-0.00014,-0.00048,3,14
12119,-6e-05,-6e-05,-3e-05,1e-05,0.00047,-7e-05,1e-05,0.00019,3,14
12120,-6e-05,-6e-05,-3e-05,1e-05,0.00047,-7e-05,1e-05,0.00019,3,14
12121,-6e-05,-6e-05,-3e-05,1e-05,0.00047,-7e-05,1e-05,0.00019,3,14
12122,-6e-05,-6e-05,-3e-05,1e-05,0.00047,-7e-05,1e-05,0.00019,3,14
12123,-6e-05,-6e-05,-3e-05,1e-05,0.00047,-7e-05,1e-05,0.00019,3,14
12124,-6e-05,0,-2e-05,3e-05,0.00041,-0.0001,1e-05,-3e-05,3,14
12125,-8e-05,0,0,-3e-05,0.00052,-0.00016,-2e-05,-2e-05,3,14
12126,-8e-05,0,0,-3e-05,0.00052,-0.00016,-2e-05,-2e-05,3,14
12127,-8e-05,0,0,-3e-05,0.00052,-0.00016,-2e-05,-2e-05,3,14
12128,-8e-05,0,0,-3e-05,0.00052,-0.00016,-2e-05,-2e-05,3,14
12129,-8e-05,0,0,-3e-05,0.00052,-0.00016,-2e-05,-2e-05,3,14
12130,-2e-05,1e-05,-0.00018,0,0.00046,-6e-05,-7e-05,-0.00022,3,14
12131,-2e-05,1e-05,-0.00018,0,0.00046,-6e-05,-7e-05,-0.00022,3,14
12132,-2e-05,1e-05,-0.00018,0,0.00046,-6e-05,-7e-05,-0.00022,3,14
12133,-2e-05,1e-05,-0.00018,0,0.00046,-6e-05,-7e-05,-0.00022,3,14
12134,-2e-05,1e-05,-0.00018,0,0.00046,-6e-05,-7e-05,-0.00022,3,14
12135,-2e-05,1e-05,-0.00018,0,0.00046,-6e-05,-7e-05,-0.00022,3,14
12136,-2e-05,1e-05,-0.00018,0,0.00046,-6e-05,-7e-05,-0.00022,3,14
12138,-2e-05,1e-05,-0.00018,0,0.00046,-6e-05,-7e-05,-0.00022,3,14
12139,0,0,5e-05,0,0.0004,-0.00016,-6e-05,0.00035,3,14
12140,-0.00011,-5e-05,0,-5e-05,0.00044,0.00015,-7e-05,-0.00026,3,14
12141,-0.00011,-5e-05,0,-5e-05,0.00044,0.00015,-7e-05,-0.00026,3,14
12142,-0.00011,-5e-05,0,-5e-05,0.00044,0.00015,-7e-05,-0.00026,3,14
12143,-0.00011,-5e-05,0,-5e-05,0.00044,0.00015,-7e-05,-0.00026,3,14
12144,-0.00011,-5e-05,0,-5e-05,0.00044,0.00015,-7e-05,-0.00026,3,14
12145,-0.00011,-5e-05,0,-5e-05,0.00044,0.00015,-7e-05,-0.00026,3,14
12146,-0.00011,-5e-05,0,-5e-05,0.00044,0.00015,-7e-05,-0.00026,3,14
12147,-0.00011,-5e-05,0,-5e-05,0.00044,0.00015,-7e-05,-0.00026,3,14
12148,-0.00011,-5e-05,0,-5e-05,0.00044,0.00015,-7e-05,-0.00026,3,14
12149,-0.00011,-5e-05,0,-5e-05,0.00044,0.00015,-7e-05,-0.00026,3,14
12150,-0.00011,-5e-05,0,-5e-05,0.00044,0.00015,-7e-05,-0.00026,3,14
12151,-0.00011,-5e-05,0,-5e-05,0.00044,0.00015,-7e-05,-0.00026,3,14
12152,-0.00011,-5e-05,0,-5e-05,0.00044,0.00015,-7e-05,-0.00026,3,14
12153,-0.00011,-5e-05,0,-5e-05,0.00044,0.00015,-7e-05,-0.00026,3,14
12154,0.0001,1e-05,0.0001,4e-05,-0.00022,7e-05,0.00012,0,3,14
12155,0.0001,1e-05,0.0001,4e-05,-0.00022,7e-05,0.00012,0,3,14
12156,0.0001,1e-05,0.0001,4e-05,-0.00022,7e-05,0.00012,0,3,14
12157,0.0001,1e-05,0.0001,4e-05,-0.00022,7e-05,0.00012,0,3,14
12158,0.0001,1e-05,0.0001,4e-05,-0.00022,7e-05,0.00012,0,3,14
12159,0.0001,1e-05,0.0001,4e-05,-0.00022,7e-05,0.00012,0,3,14
12160,-5e-05,-5e-05,-0.0001,-3e-05,-8e-05,-7e-05,-9e-05,1e-05,3,14
12161,-1e-05,-1e-05,-4e-05,-1e-05,-0.00023,-2e-05,-3e-05,0.00014,3,14
12162,-1e-05,-1e-05,-4e-05,-1e-05,-0.00023,-2e-05,-3e-05,0.00014,3,14
12163,-1e-05,-1e-05,-4e-05,-1e-05,-0.00023,-2e-05,-3e-05,0.00014,3,14
12164,-1e-05,-1e-05,-4e-05,-1e-05,-0.00023,-2e-05,-3e-05,0.00014,3,14
12165,-1e-05,-1e-05,-4e-05,-1e-05,-0.00023,-2e-05,-3e-05,0.00014,3,14
12166,-1e-05,-1e-05,-4e-05,-1e-05,-0.00023,-2e-05,-3e-05,0.00014,3,14
12167,-1e-05,-1e-05,-4e-05,-1e-05,-0.00023,-2e-05,-3e-05,0.00014,3,14
12168,-1e-05,-1e-05,-4e-05,-1e-05,-0.00023,-2e-05,-3e-05,0.00014,3,14
12169,-1e-05,-1e-05,-4e-05,-1e-05,-0.00023,-2e-05,-3e-05,0.00014,3,14
12170,-1e-05,-1e-05,-4e-05,-1e-05,-0.00023,-2e-05,-3e-05,0.00014,3,14
12171,-1e-05,-1e-05,-4e-05,-1e-05,-0.00023,-2e-05,-3e-05,0.00014,3,14
12172,-1e-05,-1e-05,-4e-05,-1e-05,-0.00023,-2e-05,-3e-05,0.00014,3,14
12173,-1e-05,-1e-05,-4e-05,-1e-05,-0.00023,-2e-05,-3e-05,0.00014,3,14
12174,-1e-05,-1e-05,-4e-05,-1e-05,-0.00023,-2e-05,-3e-05,0.00014,3,14
12175,-1e-05,-1e-05,-4e-05,-1e-05,-0.00023,-2e-05,-3e-05,0.00014,3,14
12176,3e-05,2e-05,0,-1e-05,2e-05,6e-05,8e-05,0.00069,3,14
12177,3e-05,2e-05,0,-1e-05,2e-05,6e-05,8e-05,0.00069,3,14
12178,3e-05,2e-05,0,-1e-05,2e-05,6e-05,8e-05,0.00069,3,14
12179,3e-05,2e-05,0,-1e-05,2e-05,6e-05,8e-05,0.00069,3,14
12180,3e-05,2e-05,0,-1e-05,2e-05,6e-05,8e-05,0.00069,3,14
12181,3e-05,2e-05,0,-1e-05,2e-05,6e-05,8e-05,0.00069,3,14
12182,3e-05,2e-05,0,-1e-05,2e-05,6e-05,8e-05,0.00069,3,14
12183,1e-05,-4e-05,1e-05,-2e-05,-4e-05,-5e-05,-3e-05,-7e-05,3,14
12184,1e-05,-4e-05,1e-05,-2e-05,-4e-05,-5e-05,-3e-05,-7e-05,3,14
12185,1e-05,-4e-05,1e-05,-2e-05,-4e-05,-5e-05,-3e-05,-7e-05,3,14
12186,1e-05,-4e-05,1e-05,-2e-05,-4e-05,-5e-05,-3e-05,-7e-05,3,14
12188,1e-05,-4e-05,1e-05,-2e-05,-4e-05,-5e-05,-3e-05,-7e-05,3,14
12189,1e-05,-4e-05,1e-05,-2e-05,-4e-05,-5e-05,-3e-05,-7e-05,3,14
12190,-8e-05,-5e-05,-8e-05,4e-05,0.00011,0.00023,0.00019,-9e-05,3,14
12191,-7e-05,-6e-05,-5e-05,-4e-05,-0.00021,-8e-05,-0.00046,-0.00051,3,14
12192,-7e-05,-6e-05,-5e-05,-4e-05,-0.00021,-8e-05,-0.00046,-0.00051,3,14
12193,-7e-05,-6e-05,-5e-05,-4e-05,-0.00021,-8e-05,-0.00046,-0.00051,3,14
12194,-7e-05,-6e-05,-5e-05,-4e-05,-0.00021,-8e-05,-0.00046,-0.00051,3,14
12195,-7e-05,-6e-05,-5e-05,-4e-05,-0.00021,-8e-05,-0.00046,-0.00051,3,14
12196,-7e-05,-6e-05,-5e-05,-4e-05,-0.00021,-8e-05,-0.00046,-0.00051,3,14
12197,-7e-05,-6e-05,-5e-05,-4e-05,-0.00021,-8e-05,-0.00046,-0.00051,3,14
12198,-7e-05,-6e-05,-5e-05,-4e-05,-0.00021,-8e-05,-0.00046,-0.00051,3,14
12199,-7e-05,-6e-05,-5e-05,-4e-05,-0.00021,-8e-05,-0.00046,-0.00051,3,14
12200,0,4e-05,3e-05,-2e-05,-2e-05,3e-05,0.00019,0.00022,3,14
12201,0,4e-05,3e-05,-2e-05,-2e-05,3e-05,0.00019,0.00022,3,14
12202,0,4e-05,3e-05,-2e-05,-2e-05,3e-05,0.00019,0.00022,3,14
12203,0,4e-05,3e-05,-2e-05,-2e-05,3e-05,0.00019,0.00022,3,14
12204,0,4e-05,3e-05,-2e-05,-2e-05,3e-05,0.00019,0.00022,3,14
12205,0,4e-05,3e-05,-2e-05,-2e-05,3e-05,0.00019,0.00022,3,14
12206,0,4e-05,3e-05,-2e-05,-2e-05,3e-05,0.00019,0.00022,3,14
12207,0,4e-05,3e-05,-2e-05,-2e-05,3e-05,0.00019,0.00022,3,14
12208,0,4e-05,3e-05,-2e-05,-2e-05,3e-05,0.00019,0.00022,3,14
12209,0,4e-05,3e-05,-2e-05,-2e-05,3e-05,0.00019,0.00022,3,14
12210,0,4e-05,3e-05,-2e-05,-2e-05,3e-05,0.00019,0.00022,3,14
12211,0,4e-05,3e-05,-2e-05,-2e-05,3e-05,0.00019,0.00022,3,14
12212,0,4e-05,3e-05,-2e-05,-2e-05,3e-05,0.00019,0.00022,3,14
12213,0,4e-05,3e-05,-2e-05,-2e-05,3e-05,0.00019,0.00022,3,14
12214,-3e-05,-2e-05,0,0,0.00014,0,0.00015,-0.00021,3,14
12215,-3e-05,-2e-05,0,0,0.00014,0,0.00015,-0.00021,3,14
12216,-3e-05,-2e-05,0,0,0.00014,0,0.00015,-0.00021,3,14
12217,-3e-05,-2e-05,0,0,0.00014,0,0.00015,-0.00021,3,14
12218,-3e-05,-2e-05,0,0,0.00014,0,0.00015,-0.00021,3,14
12219,-3e-05,-2e-05,0,0,0.00014,0,0.00015,-0.00021,3,14
12220,2e-05,3e-05,1e-05,5e-05,0.00011,0.00017,-1e-05,-4e-05,3,14
12221,2e-05,3e-05,1e-05,5e-05,0.00011,0.00017,-1e-05,-4e-05,3,14
12222,2e-05,3e-05,1e-05,5e-05,0.00011,0.00017,-1e-05,-4e-05,3,14
12223,2e-05,3e-05,1e-05,5e-05,0.00011,0.00017,-1e-05,-4e-05,3,14
12224,2e-05,3e-05,1e-05,5e-05,0.00011,0.00017,-1e-05,-4e-05,3,14
12225,2e-05,3e-05,1e-05,5e-05,0.00011,0.00017,-1e-05,-4e-05,3,14
12226,2e-05,3e-05,1e-05,5e-05,0.00011,0.00017,-1e-05,-4e-05,3,14
12227,2e-05,3e-05,1e-05,5e-05,0.00011,0.00017,-1e-05,-4e-05,3,14
12228,2e-05,3e-05,1e-05,5e-05,0.00011,0.00017,-1e-05,-4e-05,3,14
12229,2e-05,3e-05,1e-05,5e-05,0.00011,0.00017,-1e-05,-4e-05,3,14
12230,2e-05,3e-05,1e-05,5e-05,0.00011,0.00017,-1e-05,-4e-05,3,14
12231,2e-05,3e-05,1e-05,5e-05,0.00011,0.00017,-1e-05,-4e-05,3,14
12232,2e-05,3e-05,1e-05,5e-05,0.00011,0.00017,-1e-05,-4e-05,3,14
12233,2e-05,3e-05,1e-05,5e-05,0.00011,0.00017,-1e-05,-4e-05,3,14
12234,2e-05,3e-05,1e-05,5e-05,0.00011,0.00017,-1e-05,-4e-05,3,14
12235,2e-05,3e-05,1e-05,5e-05,0.00011,0.00017,-1e-05,-4e-05,3,14
12236,-2e-05,7e-05,4e-05,-1e-05,3e-05,-7e-05,-1e-05,4e-05,3,14
12238,-2e-05,7e-05,4e-05,-1e-05,3e-05,-7e-05,-1e-05,4e-05,3,14
12240,-2e-05,7e-05,4e-05,-1e-05,3e-05,-7e-05,-1e-05,4e-05,3,14
12241,-2e-05,7e-05,4e-05,-1e-05,3e-05,-7e-05,-1e-05,4e-05,3,14
12242,-2e-05,7e-05,4e-05,-1e-05,3e-05,-7e-05,-1e-05,4e-05,3,14
12243,5e-05,-1e-05,3e-05,6e-05,0.00026,8e-05,6e-05,0.00017,3,14
12244,5e-05,-1e-05,3e-05,6e-05,0.00026,8e-05,6e-05,0.00017,3,14
12245,5e-05,-1e-05,3e-05,6e-05,0.00026,8e-05,6e-05,0.00017,3,14
12246,5e-05,-1e-05,3e-05,6e-05,0.00026,8e-05,6e-05,0.00017,3,14
12247,5e-05,-1e-05,3e-05,6e-05,0.00026,8e-05,6e-05,0.00017,3,14
12248,5e-05,-1e-05,3e-05,6e-05,0.00026,8e-05,6e-05,0.00017,3,14
12249,5e-05,-1e-05,3e-05,6e-05,0.00026,8e-05,6e-05,0.00017,3,14
12250,-2e-05,-5e-05,-1e-05,3e-05,3e-05,1e-05,1e-05,0.0001,3,14
12251,-3e-05,-8e-05,0,-3e-05,-0.00012,6e-05,1e-05,0.00014,3,14
12252,-3e-05,-8e-05,0,-3e-05,-0.00012,6e-05,1e-05,0.00014,3,14
12253,-3e-05,-8e-05,0,-3e-05,-0.00012,6e-05,1e-05,0.00014,3,14
12254,-3e-05,-8e-05,0,-3e-05,-0.00012,6e-05,1e-05,0.00014,3,14
12255,-3e-05,-8e-05,0,-3e-05,-0.00012,6e-05,1e-05,0.00014,3,14
12256,-3e-05,-8e-05,0,-3e-05,-0.00012,6e-05,1e-05,0.00014,3,14
12257,-3e-05,-8e-05,0,-3e-05,-0.00012,6e-05,1e-05,0.00014,3,14
12258,-3e-05,-8e-05,0,-3e-05,-0.00012,6e-05,1e-05,0.00014,3,14
12259,-3e-05,-8e-05,0,-3e-05,-0.00012,6e-05,1e-05,0.00014,3,14
12260,3e-05,-5e-05,-1e-05,1e-05,0.00021,-2e-05,8e-05,-0.00019,3,14
12261,3e-05,-5e-05,-1e-05,1e-05,0.00021,-2e-05,8e-05,-0.00019,3,14
12262,3e-05,-5e-05,-1e-05,1e-05,0.00021,-2e-05,8e-05,-0.00019,3,14
12263,3e-05,-5e-05,-1e-05,1e-05,0.00021,-2e-05,8e-05,-0.00019,3,14
12264,3e-05,-5e-05,-1e-05,1e-05,0.00021,-2e-05,8e-05,-0.00019,3,14
12265,3e-05,-5e-05,-1e-05,1e-05,0.00021,-2e-05,8e-05,-0.00019,3,14
12266,3e-05,-5e-05,-1e-05,1e-05,0.00021,-2e-05,8e-05,-0.00019,3,14
12267,3e-05,-5e-05,-1e-05,1e-05,0.00021,-2e-05,8e-05,-0.00019,3,14
12268,3e-05,-5e-05,-1e-05,1e-05,0.00021,-2e-05,8e-05,-0.00019,3,14
12269,3e-05,-5e-05,-1e-05,1e-05,0.00021,-2e-05,8e-05,-0.00019,3,14
12270,3e-05,-5e-05,-1e-05,1e-05,0.00021,-2e-05,8e-05,-0.00019,3,14
12271,3e-05,-5e-05,-1e-05,1e-05,0.00021,-2e-05,8e-05,-0.00019,3,14
12272,3e-05,-5e-05,-1e-05,1e-05,0.00021,-2e-05,8e-05,-0.00019,3,14
12273,3e-05,-5e-05,-1e-05,1e-05,0.00021,-2e-05,8e-05,-0.00019,3,14
12274,1e-05,-0.0001,0,1e-05,-2e-05,-1e-05,-0.00025,-9e-05,3,14
12275,1e-05,-0.0001,0,1e-05,-2e-05,-1e-05,-0.00025,-9e-05,3,14
12276,1e-05,-0.0001,0,1e-05,-2e-05,-1e-05,-0.00025,-9e-05,3,14
12277,1e-05,-0.0001,0,1e-05,-2e-05,-1e-05,-0.00025,-9e-05,3,14
12278,1e-05,-0.0001,0,1e-05,-2e-05,-1e-05,-0.00025,-9e-05,3,14
12279,1e-05,-0.0001,0,1e-05,-2e-05,-1e-05,-0.00025,-9e-05,3,14
12280,-7e-05,1e-05,-2e-05,-4e-05,-2e-05,-2e-05,-1e-05,-0.0003,3,14
12281,-2e-05,-4e-05,-4e-05,-6e-05,-0.00014,-7e-05,3e-05,-7e-05,3,14
12282,-2e-05,-4e-05,-4e-05,-6e-05,-0.00014,-7e-05,3e-05,-7e-05,3,14
12283,-2e-05,-4e-05,-4e-05,-6e-05,-0.00014,-7e-05,3e-05,-7e-05,3,14
12284,-2e-05,-4e-05,-4e-05,-6e-05,-0.00014,-7e-05,3e-05,-7e-05,3,14
12285,-2e-05,-4e-05,-4e-05,-6e-05,-0.00014,-7e-05,3e-05,-7e-05,3,14
12286,-2e-05,-4e-05,-4e-05,-6e-05,-0.00014,-7e-05,3e-05,-7e-05,3,14
12288,-2e-05,-4e-05,-4e-05,-6e-05,-0.00014,-7e-05,3e-05,-7e-05,3,14
12289,-2e-05,-4e-05,-4e-05,-6e-05,-0.00014,-7e-05,3e-05,-7e-05,3,14
12290,-2e-05,-4e-05,-4e-05,-6e-05,-0.00014,-7e-05,3e-05,-7e-05,3,14
12291,-2e-05,-4e-05,-4e-05,-6e-05,-0.00014,-7e-05,3e-05,-7e-05,3,14
12292,-2e-05,-4e-05,-4e-05,-6e-05,-0.00014,-7e-05,3e-05,-7e-05,3,14
12293,-2e-05,-4e-05,-4e-05,-6e-05,-0.00014,-7e-05,3e-05,-7e-05,3,14
12294,-2e-05,-4e-05,-4e-05,-6e-05,-0.00014,-7e-05,3e-05,-7e-05,3,14
12295,-2e-05,-4e-05,-4e-05,-6e-05,-0.00014,-7e-05,3e-05,-7e-05,3,14
12296,1e-05,-1e-05,0,0,7e-05,-5e-05,0.00018,-4e-05,3,14
12297,1e-05,-1e-05,0,0,7e-05,-5e-05,0.00018,-4e-05,3,14
12298,1e-05,-1e-05,0,0,7e-05,-5e-05,0.00018,-4e-05,3,14
12299,1e-05,-1e-05,0,0,7e-05,-5e-05,0.00018,-4e-05,3,14
12300,1e-05,-1e-05,0,0,7e-05,-5e-05,0.00018,-4e-05,3,14
12301,1e-05,-1e-05,0,0,7e-05,-5e-05,0.00018,-4e-05,3,14
12302,1e-05,-1e-05,0,0,7e-05,-5e-05,0.00018,-4e-05,3,14
12303,-5e-05,-2e-05,0,-1e-05,4e-05,-9e-05,-4e-05,-0.00013,3,14
12304,-5e-05,-2e-05,0,-1e-05,4e-05,-9e-05,-4e-05,-0.00013,3,14
12305,-5e-05,-2e-05,0,-1e-05,4e-05,-9e-05,-4e-05,-0.00013,3,14
12306,-5e-05,-2e-05,0,-1e-05,4e-05,-9e-05,-4e-05,-0.00013,3,14
12307,-5e-05,-2e-05,0,-1e-05,4e-05,-9e-05,-4e-05,-0.00013,3,14
12308,-5e-05,-2e-05,0,-1e-05,4e-05,-9e-05,-4e-05,-0.00013,3,14
12309,-5e-05,-2e-05,0,-1e-05,4e-05,-9e-05,-4e-05,-0.00013,3,14
12310,-5e-05,-2e-05,0,-1e-05,4e-05,-9e-05,-4e-05,-0.00013,3,14
12311,-5e-05,-2e-05,0,-1e-05,4e-05,-9e-05,-4e-05,-0.00013,3,14
12312,-5e-05,-2e-05,0,-1e-05,4e-05,-9e-05,-4e-05,-0.00013,3,14
12313,-5e-05,-2e-05,0,-1e-05,4e-05,-9e-05,-4e-05,-0.00013,3,14
12314,-5e-05,-2e-05,0,-1e-05,4e-05,-9e-05,-4e-05,-0.00013,3,14
12315,-5e-05,-2e-05,0,-1e-05,4e-05,-9e-05,-4e-05,-0.00013,3,14
12316,-5e-05,-2e-05,0,-1e-05,4e-05,-9e-05,-4e-05,-0.00013,3,14
12317,-5e-05,-2e-05,0,-1e-05,4e-05,-9e-05,-4e-05,-0.00013,3,14
12318,-5e-05,-2e-05,0,-1e-05,4e-05,-9e-05,-4e-05,-0.00013,3,14
12319,-6e-05,2e-05,1e-05,2e-05,-2e-05,0.00011,9e-05,0,3,14
12320,-6e-05,2e-05,1e-05,2e-05,-2e-05,0.00011,9e-05,0,3,14
12321,-8e-05,-3e-05,-1e-05,0,-9e-05,-1e-05,0.00026,4e-05,3,14
12322,-8e-05,-3e-05,-1e-05,0,-9e-05,-1e-05,0.00026,4e-05,3,14
12323,-8e-05,-3e-05,-1e-05,0,-9e-05,-1e-05,0.00026,4e-05,3,14
12324,-8e-05,-3e-05,-1e-05,0,-9e-05,-1e-05,0.00026,4e-05,3,14
12325,-8e-05,-3e-05,-1e-05,0,-9e-05,-1e-05,0.00026,4e-05,3,14
12326,-8e-05,-3e-05,-1e-05,0,-9e-05,-1e-05,0.00026,4e-05,3,14
12327,-8e-05,-3e-05,-1e-05,0,-9e-05,-1e-05,0.00026,4e-05,3,14
12328,-8e-05,-3e-05,-1e-05,0,-9e-05,-1e-05,0.00026,4e-05,3,14
12329,-8e-05,-3e-05,-1e-05,0,-9e-05,-1e-05,0.00026,4e-05,3,14
12330,-8e-05,-3e-05,-1e-05,0,-9e-05,-1e-05,0.00026,4e-05,3,14
12331,-8e-05,-3e-05,-1e-05,0,-9e-05,-1e-05,0.00026,4e-05,3,14
12332,-8e-05,-3e-05,-1e-05,0,-9e-05,-1e-05,0.00026,4e-05,3,14
12333,-8e-05,-3e-05,-1e-05,0,-9e-05,-1e-05,0.00026,4e-05,3,14
12334,-6e-05,0,2e-05,2e-05,-0.00016,-3e-05,-0.00027,-0.00072,3,14
12335,-6e-05,0,2e-05,2e-05,-0.00016,-3e-05,-0.00027,-0.00072,3,14
12336,-6e-05,0,2e-05,2e-05,-0.00016,-3e-05,-0.00027,-0.00072,3,14
12338,-6e-05,0,2e-05,2e-05,-0.00016,-3e-05,-0.00027,-0.00072,3,14
12339,-6e-05,0,2e-05,2e-05,-0.00016,-3e-05,-0.00027,-0.00072,3,14
12340,-6e-05,0,2e-05,2e-05,-0.00016,-3e-05,-0.00027,-0.00072,3,14
12341,-1e-05,-5e-05,-5e-05,-5e-05,-0.00015,-0.0001,-0.0001,-3e-05,3,14
12342,-1e-05,-5e-05,-5e-05,-5e-05,-0.00015,-0.0001,-0.0001,-3e-05,3,14
12343,-1e-05,-5e-05,-5e-05,-5e-05,-0.00015,-0.0001,-0.0001,-3e-05,3,14
12344,-1e-05,-5e-05,-5e-05,-5e-05,-0.00015,-0.0001,-0.0001,-3e-05,3,14
12345,-1e-05,-5e-05,-5e-05,-5e-05,-0.00015,-0.0001,-0.0001,-3e-05,3,14
12346,-1e-05,-5e-05,-5e-05,-5e-05,-0.00015,-0.0001,-0.0001,-3e-05,3,14
12347,-1e-05,-5e-05,-5e-05,-5e-05,-0.00015,-0.0001,-0.0001,-3e-05,3,14
12348,-1e-05,-5e-05,-5e-05,-5e-05,-0.00015,-0.0001,-0.0001,-3e-05,3,14
12349,-1e-05,-5e-05,-5e-05,-5e-05,-0.00015,-0.0001,-0.0001,-3e-05,3,14
12350,-1e-05,-5e-05,-5e-05,-5e-05,-0.00015,-0.0001,-0.0001,-3e-05,3,14
12351,-1e-05,-5e-05,-5e-05,-5e-05,-0.00015,-0.0001,-0.0001,-3e-05,3,14
12352,-1e-05,-5e-05,-5e-05,-5e-05,-0.00015,-0.0001,-0.0001,-3e-05,3,14
12353,-1e-05,-5e-05,-5e-05,-5e-05,-0.00015,-0.0001,-0.0001,-3e-05,3,14
12354,-1e-05,-5e-05,-5e-05,-5e-05,-0.00015,-0.0001,-0.0001,-3e-05,3,14
12355,-1e-05,-5e-05,-5e-05,-5e-05,-0.00015,-0.0001,-0.0001,-3e-05,3,14
12356,-0.00015,3e-05,-3e-05,-4e-05,6e-05,-5e-05,8e-05,-0.00012,3,14
12357,-0.00015,3e-05,-3e-05,-4e-05,6e-05,-5e-05,8e-05,-0.00012,3,14
12358,-0.00015,3e-05,-3e-05,-4e-05,6e-05,-5e-05,8e-05,-0.00012,3,14
12359,-0.00015,3e-05,-3e-05,-4e-05,6e-05,-5e-05,8e-05,-0.00012,3,14
12360,-0.00015,3e-05,-3e-05,-4e-05,6e-05,-5e-05,8e-05,-0.00012,3,14
12361,-0.00015,3e-05,-3e-05,-4e-05,6e-05,-5e-05,8e-05,-0.00012,3,14
12362,-0.00015,3e-05,-3e-05,-4e-05,6e-05,-5e-05,8e-05,-0.00012,3,14
12363,0,-2e-05,1e-05,-1e-05,-4e-05,4e-05,0.00013,0.0002,3,14
12364,0,-2e-05,1e-05,-1e-05,-4e-05,4e-05,0.00013,0.0002,3,14
12365,0,-2e-05,1e-05,-1e-05,-4e-05,4e-05,0.00013,0.0002,3,14
12366,0,-2e-05,1e-05,-1e-05,-4e-05,4e-05,0.00013,0.0002,3,14
12367,0,-2e-05,1e-05,-1e-05,-4e-05,4e-05,0.00013,0.0002,3,14
12368,0,-2e-05,1e-05,-1e-05,-4e-05,4e-05,0.00013,0.0002,3,14
12369,0,-2e-05,1e-05,-1e-05,-4e-05,4e-05,0.00013,0.0002,3,14
12370,0,-2e-05,1e-05,-1e-05,-4e-05,4e-05,0.00013,0.0002,3,14
12371,0,-2e-05,1e-05,-1e-05,-4e-05,4e-05,0.00013,0.0002,3,14
12372,0,-2e-05,1e-05,-1e-05,-4e-05,4e-05,0.00013,0.0002,3,14
12373,0,-2e-05,1e-05,-1e-05,-4e-05,4e-05,0.00013,0.0002,3,14
12374,0,-2e-05,1e-05,-1e-05,-4e-05,4e-05,0.00013,0.0002,3,14
12375,0,-2e-05,1e-05,-1e-05,-4e-05,4e-05,0.00013,0.0002,3,14
12376,0,-2e-05,1e-05,-1e-05,-4e-05,4e-05,0.00013,0.0002,3,14
12377,0,-2e-05,1e-05,-1e-05,-4e-05,4e-05,0.00013,0.0002,3,14
12378,0,-2e-05,1e-05,-1e-05,-4e-05,4e-05,0.00013,0.0002,3,14
12379,5e-05,2e-05,9e-05,2e-05,-5e-05,1e-05,0.00011,0.00028,3,14
12380,5e-05,2e-05,9e-05,2e-05,-5e-05,1e-05,0.00011,0.00028,3,14
12381,7e-05,0,3e-05,-1e-05,-6e-05,0,0.00011,0.0007,3,14
12382,7e-05,0,3e-05,-1e-05,-6e-05,0,0.00011,0.0007,3,14
12383,7e-05,0,3e-05,-1e-05,-6e-05,0,0.00011,0.0007,3,14
12384,7e-05,0,3e-05,-1e-05,-6e-05,0,0.00011,0.0007,3,14
12385,7e-05,0,3e-05,-1e-05,-6e-05,0,0.00011,0.0007,3,14
12386,7e-05,0,3e-05,-1e-05,-6e-05,0,0.00011,0.0007,3,14
12388,7e-05,0,3e-05,-1e-05,-6e-05,0,0.00011,0.0007,3,14
12389,7e-05,0,3e-05,-1e-05,-6e-05,0,0.00011,0.0007,3,14
12390,7e-05,0,3e-05,-1e-05,-6e-05,0,0.00011,0.0007,3,14
12391,7e-05,0,3e-05,-1e-05,-6e-05,0,0.00011,0.0007,3,14
12392,7e-05,0,3e-05,-1e-05,-6e-05,0,0.00011,0.0007,3,14
12393,7e-05,0,3e-05,-1e-05,-6e-05,0,0.00011,0.0007,3,14
12394,-7e-05,-3e-05,-6e-05,-2e-05,3e-05,5e-05,-0.00036,8e-05,3,14
12395,-7e-05,-3e-05,-6e-05,-2e-05,3e-05,5e-05,-0.00036,8e-05,3,14
12396,-7e-05,-3e-05,-6e-05,-2e-05,3e-05,5e-05,-0.00036,8e-05,3,14
12397,-7e-05,-3e-05,-6e-05,-2e-05,3e-05,5e-05,-0.00036,8e-05,3,14
12398,-7e-05,-3e-05,-6e-05,-2e-05,3e-05,5e-05,-0.00036,8e-05,3,14
12399,-7e-05,-3e-05,-6e-05,-2e-05,3e-05,5e-05,-0.00036,8e-05,3,14
12400,-8e-05,1e-05,-1e-05,1e-05,4e-05,-1e-05,-0.00013,-0.00019,3,14
12401,-8e-05,1e-05,-1e-05,1e-05,4e-05,-1e-05,-0.00013,-0.00019,3,14
12402,-8e-05,1e-05,-1e-05,1e-05,4e-05,-1e-05,-0.00013,-0.00019,3,14
12403,-8e-05,1e-05,-1e-05,1e-05,4e-05,-1e-05,-0.00013,-0.00019,3,14
12404,-8e-05,1e-05,-1e-05,1e-05,4e-05,-1e-05,-0.00013,-0.00019,3,14
12405,-8e-05,1e-05,-1e-05,1e-05,4e-05,-1e-05,-0.00013,-0.00019,3,14
12406,-8e-05,1e-05,-1e-05,1e-05,4e-05,-1e-05,-0.00013,-0.00019,3,14
12407,-8e-05,1e-05,-1e-05,1e-05,4e-05,-1e-05,-0.00013,-0.00019,3,14
12408,-8e-05,1e-05,-1e-05,1e-05,4e-05,-1e-05,-0.00013,-0.00019,3,14
12409,-8e-05,1e-05,-1e-05,1e-05,4e-05,-1e-05,-0.00013,-0.00019,3,14
12410,-8e-05,1e-05,-1e-05,1e-05,4e-05,-1e-05,-0.00013,-0.00019,3,14
12411,-8e-05,1e-05,-1e-05,1e-05,4e-05,-1e-05,-0.00013,-0.00019,3,14
12412,-8e-05,1e-05,-1e-05,1e-05,4e-05,-1e-05,-0.00013,-0.00019,3,14
12413,-8e-05,1e-05,-1e-05,1e-05,4e-05,-1e-05,-0.00013,-0.00019,3,14
12414,-8e-05,1e-05,-1e-05,1e-05,4e-05,-1e-05,-0.00013,-0.00019,3,14
12415,-8e-05,1e-05,-1e-05,1e-05,4e-05,-1e-05,-0.00013,-0.00019,3,14
12416,-1e-05,-4e-05,-6e-05,-7e-05,0.0001,-3e-05,-0.0001,-6e-05,3,14
12417,-1e-05,-4e-05,-6e-05,-7e-05,0.0001,-3e-05,-0.0001,-6e-05,3,14
12418,-1e-05,-4e-05,-6e-05,-7e-05,0.0001,-3e-05,-0.0001,-6e-05,3,14
12419,-1e-05,-4e-05,-6e-05,-7e-05,0.0001,-3e-05,-0.0001,-6e-05,3,14
12420,-1e-05,-4e-05,-6e-05,-7e-05,0.0001,-3e-05,-0.0001,-6e-05,3,14
12421,-1e-05,-4e-05,-6e-05,-7e-05,0.0001,-3e-05,-0.0001,-6e-05,3,14
12422,-1e-05,-4e-05,-6e-05,-7e-05,0.0001,-3e-05,-0.0001,-6e-05,3,14
12423,0,-2e-05,-2e-05,0,-0.0001,4e-05,-0.00023,-0.00024,3,14
12424,0,-2e-05,-2e-05,0,-0.0001,4e-05,-0.00023,-0.00024,3,14
12425,0,-2e-05,-2e-05,0,-0.0001,4e-05,-0.00023,-0.00024,3,14
12426,0,-2e-05,-2e-05,0,-0.0001,4e-05,-0.00023,-0.00024,3,14
12427,0,-2e-05,-2e-05,0,-0.0001,4e-05,-0.00023,-0.00024,3,14
12428,0,-2e-05,-2e-05,0,-0.0001,4e-05,-0.00023,-0.00024,3,14
12429,0,-2e-05,-2e-05,0,-0.0001,4e-05,-0.00023,-0.00024,3,14
12430,0,-2e-05,-2e-05,0,-0.0001,4e-05,-0.00023,-0.00024,3,14
12431,0,-2e-05,-2e-05,0,-0.0001,4e-05,-0.00023,-0.00024,3,14
12432,0,-2e-05,-2e-05,0,-0.0001,4e-05,-0.00023,-0.00024,3,14
12433,0,-2e-05,-2e-05,0,-0.0001,4e-05,-0.00023,-0.00024,3,14
12434,0,-2e-05,-2e-05,0,-0.0001,4e-05,-0.00023,-0.00024,3,14
12435,0,-2e-05,-2e-05,0,-0.0001,4e-05,-0.00023,-0.00024,3,14
12436,0,-2e-05,-2e-05,0,-0.0001,4e-05,-0.00023,-0.00024,3,14
12438,0,-2e-05,-2e-05,0,-0.0001,4e-05,-0.00023,-0.00024,3,14
12439,1e-05,1e-05,4e-05,2e-05,1e-05,-2e-05,0.0002,0.00021,3,14
12440,1e-05,1e-05,4e-05,2e-05,1e-05,-2e-05,0.0002,0.00021,3,14
12441,2e-05,-2e-05,-3e-05,-2e-05,1e-05,-5e-05,-1e-05,-6e-05,3,14
12442,2e-05,-2e-05,-3e-05,-2e-05,1e-05,-5e-05,-1e-05,-6e-05,3,14
12443,2e-05,-2e-05,-3e-05,-2e-05,1e-05,-5e-05,-1e-05,-6e-05,3,14
12444,2e-05,-2e-05,-3e-05,-2e-05,1e-05,-5e-05,-1e-05,-6e-05,3,14
12445,2e-05,-2e-05,-3e-05,-2e-05,1e-05,-5e-05,-1e-05,-6e-05,3,14
12446,2e-05,-2e-05,-3e-05,-2e-05,1e-05,-5e-05,-1e-05,-6e-05,3,14
12447,2e-05,-2e-05,-3e-05,-2e-05,1e-05,-5e-05,-1e-05,-6e-05,3,14
12448,2e-05,-2e-05,-3e-05,-2e-05,1e-05,-5e-05,-1e-05,-6e-05,3,14
12449,2e-05,-2e-05,-3e-05,-2e-05,1e-05,-5e-05,-1e-05,-6e-05,3,14
12450,2e-05,-2e-05,-3e-05,-2e-05,1e-05,-5e-05,-1e-05,-6e-05,3,14
12451,2e-05,-2e-05,-3e-05,-2e-05,1e-05,-5e-05,-1e-05,-6e-05,3,14
12452,2e-05,-2e-05,-3e-05,-2e-05,1e-05,-5e-05,-1e-05,-6e-05,3,14
12453,2e-05,-2e-05,-3e-05,-2e-05,1e-05,-5e-05,-1e-05,-6e-05,3,14
12454,6e-05,0,-3e-05,-4e-05,-0.00013,-3e-05,7e-05,0.00024,3,14
12455,6e-05,0,-3e-05,-4e-05,-0.00013,-3e-05,7e-05,0.00024,3,14
12456,6e-05,0,-3e-05,-4e-05,-0.00013,-3e-05,7e-05,0.00024,3,14
12457,6e-05,0,-3e-05,-4e-05,-0.00013,-3e-05,7e-05,0.00024,3,14
12458,6e-05,0,-3e-05,-4e-05,-0.00013,-3e-05,7e-05,0.00024,3,14
12459,6e-05,0,-3e-05,-4e-05,-0.00013,-3e-05,7e-05,0.00024,3,14
12460,6e-05,0,-3e-05,-4e-05,-0.00013,-3e-05,7e-05,0.00024,3,14
12461,4e-05,4e-05,1e-05,6e-05,-3e-05,-2e-05,-3e-05,-0.0002,3,14
12462,4e-05,4e-05,1e-05,6e-05,-3e-05,-2e-05,-3e-05,-0.0002,3,14
12463,4e-05,4e-05,1e-05,6e-05,-3e-05,-2e-05,-3e-05,-0.0002,3,14
12464,4e-05,4e-05,1e-05,6e-05,-3e-05,-2e-05,-3e-05,-0.0002,3,14
12465,4e-05,4e-05,1e-05,6e-05,-3e-05,-2e-05,-3e-05,-0.0002,3,14
12466,4e-05,4e-05,1e-05,6e-05,-3e-05,-2e-05,-3e-05,-0.0002,3,14
12467,4e-05,4e-05,1e-05,6e-05,-3e-05,-2e-05,-3e-05,-0.0002,3,14
12468,4e-05,4e-05,1e-05,6e-05,-3e-05,-2e-05,-3e-05,-0.0002,3,14
12469,4e-05,4e-05,1e-05,6e-05,-3e-05,-2e-05,-3e-05,-0.0002,3,14
12470,4e-05,4e-05,1e-05,6e-05,-3e-05,-2e-05,-3e-05,-0.0002,3,14
12471,4e-05,4e-05,1e-05,6e-05,-3e-05,-2e-05,-3e-05,-0.0002,3,14
12472,4e-05,4e-05,1e-05,6e-05,-3e-05,-2e-05,-3e-05,-0.0002,3,14
12473,4e-05,4e-05,1e-05,6e-05,-3e-05,-2e-05,-3e-05,-0.0002,3,14
12474,4e-05,4e-05,1e-05,6e-05,-3e-05,-2e-05,-3e-05,-0.0002,3,14
12475,4e-05,4e-05,1e-05,6e-05,-3e-05,-2e-05,-3e-05,-0.0002,3,14
12476,-3e-05,-4e-05,-4e-05,-5e-05,0.0001,-8e-05,6e-05,-0.00023,3,14
12477,-3e-05,-4e-05,-4e-05,-5e-05,0.0001,-8e-05,6e-05,-0.00023,3,14
12478,-3e-05,-4e-05,-4e-05,-5e-05,0.0001,-8e-05,6e-05,-0.00023,3,14
12479,-3e-05,-4e-05,-4e-05,-5e-05,0.0001,-8e-05,6e-05,-0.00023,3,14
12480,-3e-05,-4e-05,-4e-05,-5e-05,0.0001,-8e-05,6e-05,-0.00023,3,14
12481,-3e-05,-4e-05,-4e-05,-5e-05,0.0001,-8e-05,6e-05,-0.00023,3,14
12482,-3e-05,-4e-05,-4e-05,-5e-05,0.0001,-8e-05,6e-05,-0.00023,3,14
12483,-0.0001,2e-05,3e-05,2e-05,4e-05,-1e-05,-8e-05,-0.00022,3,14
12484,-0.0001,2e-05,3e-05,2e-05,4e-05,-1e-05,-8e-05,-0.00022,3,14
12485,-0.0001,2e-05,3e-05,2e-05,4e-05,-1e-05,-8e-05,-0.00022,3,14
12486,-0.0001,2e-05,3e-05,2e-05,4e-05,-1e-05,-8e-05,-0.00022,3,14
12488,-0.0001,2e-05,3e-05,2e-05,4e-05,-1e-05,-8e-05,-0.00022,3,14
12489,-0.0001,2e-05,3e-05,2e-05,4e-05,-1e-05,-8e-05,-0.00022,3,14
12490,-0.0001,2e-05,3e-05,2e-05,4e-05,-1e-05,-8e-05,-0.00022,3,14
12491,-0.0001,2e-05,3e-05,2e-05,4e-05,-1e-05,-8e-05,-0.00022,3,14
12492,-0.0001,2e-05,3e-05,2e-05,4e-05,-1e-05,-8e-05,-0.00022,3,14
12493,-0.0001,2e-05,3e-05,2e-05,4e-05,-1e-05,-8e-05,-0.00022,3,14
12494,-0.0001,2e-05,3e-05,2e-05,4e-05,-1e-05,-8e-05,-0.00022,3,14
12495,-0.0001,2e-05,3e-05,2e-05,4e-05,-1e-05,-8e-05,-0.00022,3,14
12496,-0.0001,2e-05,3e-05,2e-05,4e-05,-1e-05,-8e-05,-0.00022,3,14
12497,-0.0001,2e-05,3e-05,2e-05,4e-05,-1e-05,-8e-05,-0.00022,3,14
12498,-0.0001,2e-05,3e-05,2e-05,4e-05,-1e-05,-8e-05,-0.00022,3,14
12499,-2e-05,0,0,4e-05,8e-05,-1e-05,0.00013,0.00019,3,14
12500,-2e-05,0,0,4e-05,8e-05,-1e-05,0.00013,0.00019,3,14
12501,-1e-05,-3e-05,-3e-05,-1e-05,-4e-05,4e-05,3e-05,-0.00028,3,14
12502,-1e-05,-3e-05,-3e-05,-1e-05,-4e-05,4e-05,3e-05,-0.00028,3,14
12503,-1e-05,-3e-05,-3e-05,-1e-05,-4e-05,4e-05,3e-05,-0.00028,3,14
12504,-1e-05,-3e-05,-3e-05,-1e-05,-4e-05,4e-05,3e-05,-0.00028,3,14
12505,-1e-05,-3e-05,-3e-05,-1e-05,-4e-05,4e-05,3e-05,-0.00028,3,14
12506,-1e-05,-3e-05,-3e-05,-1e-05,-4e-05,4e-05,3e-05,-0.00028,3,14
12507,-1e-05,-3e-05,-3e-05,-1e-05,-4e-05,4e-05,3e-05,-0.00028,3,14
12508,-1e-05,-3e-05,-3e-05,-1e-05,-4e-05,4e-05,3e-05,-0.00028,3,14
12509,-1e-05,-3e-05,-3e-05,-1e-05,-4e-05,4e-05,3e-05,-0.00028,3,14
12510,-1e-05,-3e-05,-3e-05,-1e-05,-4e-05,4e-05,3e-05,-0.00028,3,14
12511,-1e-05,-3e-05,-3e-05,-1e-05,-4e-05,4e-05,3e-05,-0.00028,3,14
12512,-1e-05,-3e-05,-3e-05,-1e-05,-4e-05,4e-05,3e-05,-0.00028,3,14
12513,-1e-05,-3e-05,-3e-05,-1e-05,-4e-05,4e-05,3e-05,-0.00028,3,14
12514,-5e-05,-2e-05,-1e-05,2e-05,-6e-05,8e-05,7e-05,-0.00051,3,14
12515,-5e-05,-2e-05,-1e-05,2e-05,-6e-05,8e-05,7e-05,-0.00051,3,14
12516,-5e-05,-2e-05,-1e-05,2e-05,-6e-05,8e-05,7e-05,-0.00051,3,14
12517,-5e-05,-2e-05,-1e-05,2e-05,-6e-05,8e-05,7e-05,-0.00051,3,14
12518,-5e-05,-2e-05,-1e-05,2e-05,-6e-05,8e-05,7e-05,-0.00051,3,14
12519,-5e-05,-2e-05,-1e-05,2e-05,-6e-05,8e-05,7e-05,-0.00051,3,14
12520,-2e-05,-4e-05,-4e-05,-6e-05,-6e-05,-8e-05,-4e-05,-8e-05,3,14
12521,-2e-05,-4e-05,-4e-05,-6e-05,-6e-05,-8e-05,-4e-05,-8e-05,3,14
12522,-2e-05,-4e-05,-4e-05,-6e-05,-6e-05,-8e-05,-4e-05,-8e-05,3,14
12523,-2e-05,-4e-05,-4e-05,-6e-05,-6e-05,-8e-05,-4e-05,-8e-05,3,14
12524,-2e-05,-4e-05,-4e-05,-6e-05,-6e-05,-8e-05,-4e-05,-8e-05,3,14
12525,-2e-05,-4e-05,-4e-05,-6e-05,-6e-05,-8e-05,-4e-05,-8e-05,3,14
12526,-2e-05,-4e-05,-4e-05,-6e-05,-6e-05,-8e-05,-4e-05,-8e-05,3,14
12527,-2e-05,-4e-05,-4e-05,-6e-05,-6e-05,-8e-05,-4e-05,-8e-05,3,14
12528,-2e-05,-4e-05,-4e-05,-6e-05,-6e-05,-8e-05,-4e-05,-8e-05,3,14
12529,-2e-05,-4e-05,-4e-05,-6e-05,-6e-05,-8e-05,-4e-05,-8e-05,3,14
12530,-2e-05,-4e-05,-4e-05,-6e-05,-6e-05,-8e-05,-4e-05,-8e-05,3,14
12531,-2e-05,-4e-05,-4e-05,-6e-05,-6e-05,-8e-05,-4e-05,-8e-05,3,14
12532,-2e-05,-4e-05,-4e-05,-6e-05,-6e-05,-8e-05,-4e-05,-8e-05,3,14
12533,-2e-05,-4e-05,-4e-05,-6e-05,-6e-05,-8e-05,-4e-05,-8e-05,3,14
12534,-2e-05,-4e-05,-4e-05,-6e-05,-6e-05,-8e-05,-4e-05,-8e-05,3,14
12535,-2e-05,-4e-05,-4e-05,-6e-05,-6e-05,-8e-05,-4e-05,-8e-05,3,14
12536,-2e-05,-4e-05,-4e-05,-6e-05,-6e-05,-8e-05,-4e-05,-8e-05,3,14
12538,-2e-05,-4e-05,-4e-05,-6e-05,-6e-05,-8e-05,-4e-05,-8e-05,3,14
12539,-2e-05,-4e-05,-4e-05,-6e-05,-6e-05,-8e-05,-4e-05,-8e-05,3,14
12540,-2e-05,-4e-05,-4e-05,-6e-05,-6e-05,-8e-05,-4e-05,-8e-05,3,14
12541,-2e-05,-4e-05,-4e-05,-6e-05,-6e-05,-8e-05,-4e-05,-8e-05,3,14
12542,-2e-05,-4e-05,-4e-05,-6e-05,-6e-05,-8e-05,-4e-05,-8e-05,3,14
12543,-2e-05,-4e-05,-4e-05,-6e-05,-6e-05,-8e-05,-4e-05,-8e-05,3,14
12544,-2e-05,-4e-05,-4e-05,-6e-05,-6e-05,-8e-05,-4e-05,-8e-05,3,14
12545,-2e-05,-4e-05,-4e-05,-6e-05,-6e-05,-8e-05,-4e-05,-8e-05,3,14
12546,-2e-05,-4e-05,-4e-05,-6e-05,-6e-05,-8e-05,-4e-05,-8e-05,3,14
12547,-2e-05,-4e-05,-4e-05,-6e-05,-6e-05,-8e-05,-4e-05,-8e-05,3,14
12548,-2e-05,-4e-05,-4e-05,-6e-05,-6e-05,-8e-05,-4e-05,-8e-05,3,14
12549,-2e-05,-4e-05,-4e-05,-6e-05,-6e-05,-8e-05,-4e-05,-8e-05,3,14
12550,-2e-05,-4e-05,-4e-05,-6e-05,-6e-05,-8e-05,-4e-05,-8e-05,3,14
12551,-2e-05,-4e-05,-4e-05,-6e-05,-6e-05,-8e-05,-4e-05,-8e-05,3,14
12552,-2e-05,-4e-05,-4e-05,-6e-05,-6e-05,-8e-05,-4e-05,-8e-05,3,14
12553,-2e-05,-4e-05,-4e-05,-6e-05,-6e-05,-8e-05,-4e-05,-8e-05,3,14
12554,-2e-05,-4e-05,-4e-05,-6e-05,-6e-05,-8e-05,-4e-05,-8e-05,3,14
12555,-2e-05,-4e-05,-4e-05,-6e-05,-6e-05,-8e-05,-4e-05,-8e-05,3,14
12556,-2e-05,-4e-05,-4e-05,-6e-05,-6e-05,-8e-05,-4e-05,-8e-05,3,14
12557,-2e-05,-4e-05,-4e-05,-6e-05,-6e-05,-8e-05,-4e-05,-8e-05,3,14
12558,5e-05,-2e-05,2e-05,-1e-05,0.0001,1e-05,6e-05,-0.00016,3,14
12559,5e-05,-2e-05,2e-05,-1e-05,0.0001,1e-05,6e-05,-0.00016,3,14
12560,5e-05,-2e-05,2e-05,-1e-05,0.0001,1e-05,6e-05,-0.00016,3,14
12561,5e-05,-2e-05,2e-05,-1e-05,0.0001,1e-05,6e-05,-0.00016,3,14
12562,5e-05,-2e-05,2e-05,-1e-05,0.0001,1e-05,6e-05,-0.00016,3,14
12563,5e-05,-2e-05,2e-05,-1e-05,0.0001,1e-05,6e-05,-0.00016,3,14
12564,5e-05,-2e-05,2e-05,-1e-05,0.0001,1e-05,6e-05,-0.00016,3,14
12565,5e-05,-2e-05,2e-05,-1e-05,0.0001,1e-05,6e-05,-0.00016,3,14
12566,5e-05,-2e-05,2e-05,-1e-05,0.0001,1e-05,6e-05,-0.00016,3,14
12567,5e-05,-2e-05,2e-05,-1e-05,0.0001,1e-05,6e-05,-0.00016,3,14
12568,-8e-05,4e-05,0,-1e-05,-8e-05,0.0001,6e-05,0.00015,3,14
12569,2e-05,-1e-05,1e-05,1e-05,0.00011,1e-05,0.0002,-0.00034,3,14
12570,2e-05,-1e-05,1e-05,1e-05,0.00011,1e-05,0.0002,-0.00034,3,14
12571,2e-05,-1e-05,1e-05,1e-05,0.00011,1e-05,0.0002,-0.00034,3,14
12572,2e-05,-1e-05,1e-05,1e-05,0.00011,1e-05,0.0002,-0.00034,3,14
12573,2e-05,-1e-05,1e-05,1e-05,0.00011,1e-05,0.0002,-0.00034,3,14
12574,2e-05,-1e-05,1e-05,1e-05,0.00011,1e-05,0.0002,-0.00034,3,14
12575,2e-05,-1e-05,1e-05,1e-05,0.00011,1e-05,0.0002,-0.00034,3,14
12576,2e-05,-1e-05,1e-05,1e-05,0.00011,1e-05,0.0002,-0.00034,3,14
12577,2e-05,-1e-05,1e-05,1e-05,0.00011,1e-05,0.0002,-0.00034,3,14
12578,2e-05,-1e-05,1e-05,1e-05,0.00011,1e-05,0.0002,-0.00034,3,14
12579,2e-05,-1e-05,1e-05,1e-05,0.00011,1e-05,0.0002,-0.00034,3,14
12580,2e-05,-1e-05,1e-05,1e-05,0.00011,1e-05,0.0002,-0.00034,3,14
12581,2e-05,-1e-05,1e-05,1e-05,0.00011,1e-05,0.0002,-0.00034,3,14
12582,-3e-05,-1e-05,-1e-05,-3e-05,-0.00019,-4e-05,3e-05,0.00017,3,14
12583,-1e-05,-3e-05,1e-05,-2e-05,-4e-05,5e-05,-5e-05,0.00033,3,14
12584,-1e-05,-3e-05,1e-05,-2e-05,-4e-05,5e-05,-5e-05,0.00033,3,14
12585,-1e-05,-3e-05,1e-05,-2e-05,-4e-05,5e-05,-5e-05,0.00033,3,14
12586,-1e-05,-3e-05,1e-05,-2e-05,-4e-05,5e-05,-5e-05,0.00033,3,14
12588,-1e-05,-3e-05,1e-05,-2e-05,-4e-05,5e-05,-5e-05,0.00033,3,14
12589,-1e-05,-3e-05,1e-05,-2e-05,-4e-05,5e-05,-5e-05,0.00033,3,14
12590,-1e-05,-3e-05,1e-05,-2e-05,-4e-05,5e-05,-5e-05,0.00033,3,14
12591,-1e-05,-3e-05,1e-05,-2e-05,-4e-05,5e-05,-5e-05,0.00033,3,14
12592,-1e-05,-3e-05,1e-05,-2e-05,-4e-05,5e-05,-5e-05,0.00033,3,14
12593,-1e-05,-3e-05,1e-05,-2e-05,-4e-05,5e-05,-5e-05,0.00033,3,14
12594,-1e-05,-3e-05,1e-05,-2e-05,-4e-05,5e-05,-5e-05,0.00033,3,14
12595,-1e-05,-3e-05,1e-05,-2e-05,-4e-05,5e-05,-5e-05,0.00033,3,14
12596,-1e-05,-3e-05,1e-05,-2e-05,-4e-05,5e-05,-5e-05,0.00033,3,14
12597,4e-05,0,-2e-05,0,-0.00018,3e-05,0.00013,0.00063,3,14
12598,0,-1e-05,-3e-05,-1e-05,0.00049,-0.00011,-0.00012,-3e-05,3,14
12599,-4e-05,2e-05,-2e-05,-1e-05,0.00033,0,-2e-05,-7e-05,3,14
12600,-4e-05,2e-05,-2e-05,-1e-05,0.00033,0,-2e-05,-7e-05,3,14
12601,-4e-05,2e-05,-2e-05,-1e-05,0.00033,0,-2e-05,-7e-05,3,14
12602,-4e-05,2e-05,-2e-05,-1e-05,0.00033,0,-2e-05,-7e-05,3,14
12603,-4e-05,2e-05,-2e-05,-1e-05,0.00033,0,-2e-05,-7e-05,3,14
12604,-4e-05,2e-05,-2e-05,-1e-05,0.00033,0,-2e-05,-7e-05,3,14
12605,-4e-05,2e-05,-2e-05,-1e-05,0.00033,0,-2e-05,-7e-05,3,14
12606,-4e-05,2e-05,-2e-05,-1e-05,0.00033,0,-2e-05,-7e-05,3,14
12607,-4e-05,2e-05,-2e-05,-1e-05,0.00033,0,-2e-05,-7e-05,3,14
12608,-4e-05,2e-05,-2e-05,-1e-05,0.00033,0,-2e-05,-7e-05,3,14
12609,-4e-05,2e-05,-2e-05,-1e-05,0.00033,0,-2e-05,-7e-05,3,14
12610,-4e-05,2e-05,-2e-05,-1e-05,0.00033,0,-2e-05,-7e-05,3,14
12611,3e-05,3e-05,0,1e-05,0.00044,-6e-05,-0.00012,-0.00018,3,14
12612,3e-05,3e-05,0,1e-05,0.00044,-6e-05,-0.00012,-0.00018,3,14
12613,3e-05,3e-05,0,1e-05,0.00044,-6e-05,-0.00012,-0.00018,3,14
12614,3e-05,3e-05,0,1e-05,0.00044,-6e-05,-0.00012,-0.00018,3,14
12615,3e-05,3e-05,0,1e-05,0.00044,-6e-05,-0.00012,-0.00018,3,14
12616,3e-05,3e-05,0,1e-05,0.00044,-6e-05,-0.00012,-0.00018,3,14
12617,3e-05,3e-05,0,1e-05,0.00044,-6e-05,-0.00012,-0.00018,3,14
12618,3e-05,3e-05,0,1e-05,0.00044,-6e-05,-0.00012,-0.00018,3,14
12619,-3e-05,-3e-05,-6e-05,-8e-05,0.00018,-0.00016,2e-05,0.00011,3,14
12620,-3e-05,-2e-05,-4e-05,-2e-05,0.00032,-3e-05,-5e-05,-0.00011,3,14
12621,3e-05,-3e-05,-2e-05,-2e-05,6e-05,-7e-05,-0.00022,-0.00019,3,14
12622,3e-05,-3e-05,-2e-05,-2e-05,6e-05,-7e-05,-0.00022,-0.00019,3,14
12623,3e-05,-3e-05,-2e-05,-2e-05,6e-05,-7e-05,-0.00022,-0.00019,3,14
12624,3e-05,-3e-05,-2e-05,-2e-05,6e-05,-7e-05,-0.00022,-0.00019,3,14
12625,3e-05,-3e-05,-2e-05,-2e-05,6e-05,-7e-05,-0.00022,-0.00019,3,14
12626,3e-05,-3e-05,-2e-05,-2e-05,6e-05,-7e-05,-0.00022,-0.00019,3,14
12627,3e-05,-3e-05,-2e-05,-2e-05,6e-05,-7e-05,-0.00022,-0.00019,3,14
12628,3e-05,-3e-05,-2e-05,-2e-05,6e-05,-7e-05,-0.00022,-0.00019,3,14
12629,3e-05,-3e-05,-2e-05,-2e-05,6e-05,-7e-05,-0.00022,-0.00019,3,14
12630,3e-05,-3e-05,-2e-05,-2e-05,6e-05,-7e-05,-0.00022,-0.00019,3,14
12631,3e-05,-3e-05,-2e-05,-2e-05,6e-05,-7e-05,-0.00022,-0.00019,3,14
12632,3e-05,-3e-05,-2e-05,-2e-05,6e-05,-7e-05,-0.00022,-0.00019,3,14
12633,5e-05,5e-05,-3e-05,1e-05,0.00043,-5e-05,0.00032,0.00082,3,14
12634,4e-05,4e-05,-1e-05,-1e-05,0.00016,-7e-05,6e-05,-5e-05,3,14
12635,4e-05,4e-05,-1e-05,-1e-05,0.00016,-7e-05,6e-05,-5e-05,3,14
12636,4e-05,4e-05,-1e-05,-1e-05,0.00016,-7e-05,6e-05,-5e-05,3,14
12638,4e-05,4e-05,-1e-05,-1e-05,0.00016,-7e-05,6e-05,-5e-05,3,14
12639,4e-05,4e-05,-1e-05,-1e-05,0.00016,-7e-05,6e-05,-5e-05,3,14
12640,4e-05,4e-05,-1e-05,-1e-05,0.00016,-7e-05,6e-05,-5e-05,3,14
12641,2e-05,-2e-05,1e-05,1e-05,-0.0001,1e-05,-0.00016,-0.00019,3,14
12642,2e-05,-2e-05,1e-05,1e-05,-0.0001,1e-05,-0.00016,-0.00019,3,14
12643,2e-05,-2e-05,1e-05,1e-05,-0.0001,1e-05,-0.00016,-0.00019,3,14
12644,2e-05,-2e-05,1e-05,1e-05,-0.0001,1e-05,-0.00016,-0.00019,3,14
12645,2e-05,-2e-05,1e-05,1e-05,-0.0001,1e-05,-0.00016,-0.00019,3,14
12646,2e-05,-2e-05,1e-05,1e-05,-0.0001,1e-05,-0.00016,-0.00019,3,14
12647,2e-05,-2e-05,1e-05,1e-05,-0.0001,1e-05,-0.00016,-0.00019,3,14
12648,2e-05,-2e-05,1e-05,1e-05,-0.0001,1e-05,-0.00016,-0.00019,3,14
12649,2e-05,-2e-05,1e-05,1e-05,-0.0001,1e-05,-0.00016,-0.00019,3,14
12650,2e-05,-2e-05,1e-05,1e-05,-0.0001,1e-05,-0.00016,-0.00019,3,14
12651,2e-05,-2e-05,1e-05,1e-05,-0.0001,1e-05,-0.00016,-0.00019,3,14
12652,2e-05,-2e-05,1e-05,1e-05,-0.0001,1e-05,-0.00016,-0.00019,3,14
12653,2e-05,-2e-05,1e-05,1e-05,-0.0001,1e-05,-0.00016,-0.00019,3,14
12654,2e-05,-2e-05,1e-05,1e-05,-0.0001,1e-05,-0.00016,-0.00019,3,14
12655,2e-05,-2e-05,1e-05,1e-05,-0.0001,1e-05,-0.00016,-0.00019,3,14
12656,-2e-05,1e-05,0,3e-05,9e-05,0,-4e-05,-8e-05,3,14
12657,-2e-05,1e-05,0,3e-05,9e-05,0,-4e-05,-8e-05,3,14
12658,-2e-05,1e-05,0,3e-05,9e-05,0,-4e-05,-8e-05,3,14
12659,-2e-05,1e-05,0,3e-05,9e-05,0,-4e-05,-8e-05,3,14
12660,-2e-05,1e-05,0,3e-05,9e-05,0,-4e-05,-8e-05,3,14
12661,-2e-05,1e-05,0,3e-05,9e-05,0,-4e-05,-8e-05,3,14
12662,-2e-05,1e-05,0,3e-05,9e-05,0,-4e-05,-8e-05,3,14
12663,3e-05,2e-05,2e-05,1e-05,8e-05,0,0.00017,0.00023,3,14
12664,3e-05,2e-05,2e-05,1e-05,8e-05,0,0.00017,0.00023,3,14
12665,3e-05,2e-05,2e-05,1e-05,8e-05,0,0.00017,0.00023,3,14
12666,3e-05,2e-05,2e-05,1e-05,8e-05,0,0.00017,0.00023,3,14
12667,3e-05,2e-05,2e-05,1e-05,8e-05,0,0.00017,0.00023,3,14
12668,3e-05,2e-05,2e-05,1e-05,8e-05,0,0.00017,0.00023,3,14
12669,3e-05,2e-05,2e-05,1e-05,8e-05,0,0.00017,0.00023,3,14
12670,3e-05,2e-05,2e-05,1e-05,8e-05,0,0.00017,0.00023,3,14
12671,3e-05,2e-05,2e-05,1e-05,8e-05,0,0.00017,0.00023,3,14
12672,3e-05,2e-05,2e-05,1e-05,8e-05,0,0.00017,0.00023,3,14
12673,3e-05,2e-05,2e-05,1e-05,8e-05,0,0.00017,0.00023,3,14
12674,3e-05,2e-05,2e-05,1e-05,8e-05,0,0.00017,0.00023,3,14
12675,3e-05,2e-05,2e-05,1e-05,8e-05,0,0.00017,0.00023,3,14
12676,3e-05,2e-05,2e-05,1e-05,8e-05,0,0.00017,0.00023,3,14
12677,3e-05,2e-05,2e-05,1e-05,8e-05,0,0.00017,0.00023,3,14
12678,3e-05,2e-05,2e-05,1e-05,8e-05,0,0.00017,0.00023,3,14
12679,-1e-05,1e-05,-2e-05,-2e-05,-0.00014,-8e-05,-6e-05,-5e-05,3,14
12680,-1e-05,1e-05,-2e-05,-2e-05,-0.00014,-8e-05,-6e-05,-5e-05,3,14
12681,-9e-05,-1e-05,-3e-05,1e-05,-3e-05,6e-05,1e-05,-0.00069,3,14
12682,-9e-05,-1e-05,-3e-05,1e-05,-3e-05,6e-05,1e-05,-0.00069,3,14
12683,-9e-05,-1e-05,-3e-05,1e-05,-3e-05,6e-05,1e-05,-0.00069,3,14
12684,-9e-05,-1e-05,-3e-05,1e-05,-3e-05,6e-05,1e-05,-0.00069,3,14
12685,-9e-05,-1e-05,-3e-05,1e-05,-3e-05,6e-05,1e-05,-0.00069,3,14
12686,-9e-05,-1e-05,-3e-05,1e-05,-3e-05,6e-05,1e-05,-0.00069,3,14
12688,-9e-05,-1e-05,-3e-05,1e-05,-3e-05,6e-05,1e-05,-0.00069,3,14
12689,-9e-05,-1e-05,-3e-05,1e-05,-3e-05,6e-05,1e-05,-0.00069,3,14
12690,-9e-05,-1e-05,-3e-05,1e-05,-3e-05,6e-05,1e-05,-0.00069,3,14
12691,-9e-05,-1e-05,-3e-05,1e-05,-3e-05,6e-05,1e-05,-0.00069,3,14
12692,-9e-05,-1e-05,-3e-05,1e-05,-3e-05,6e-05,1e-05,-0.00069,3,14
12693,-9e-05,-1e-05,-3e-05,1e-05,-3e-05,6e-05,1e-05,-0.00069,3,14
12694,-2e-05,-3e-05,-5e-05,-6e-05,-0.00012,-0.0001,-2e-05,-3e-05,3,14
12695,-2e-05,-3e-05,-5e-05,-6e-05,-0.00012,-0.0001,-2e-05,-3e-05,3,14
12696,-2e-05,-3e-05,-5e-05,-6e-05,-0.00012,-0.0001,-2e-05,-3e-05,3,14
12697,-2e-05,-3e-05,-5e-05,-6e-05,-0.00012,-0.0001,-2e-05,-3e-05,3,14
12698,-2e-05,-3e-05,-5e-05,-6e-05,-0.00012,-0.0001,-2e-05,-3e-05,3,14
12699,-2e-05,-3e-05,-5e-05,-6e-05,-0.00012,-0.0001,-2e-05,-3e-05,3,14
12700,-3e-05,-5e-05,-3e-05,-3e-05,-0.0001,-0.0001,-1e-05,-0.00014,3,14
12701,-5e-05,-1e-05,-1e-05,3e-05,0.00029,9e-05,-5e-05,0.0001,3,14
12702,-5e-05,-1e-05,-1e-05,3e-05,0.00029,9e-05,-5e-05,0.0001,3,14
12703,-5e-05,-1e-05,-1e-05,3e-05,0.00029,9e-05,-5e-05,0.0001,3,14
12704,-5e-05,-1e-05,-1e-05,3e-05,0.00029,9e-05,-5e-05,0.0001,3,14
12705,-5e-05,-1e-05,-1e-05,3e-05,0.00029,9e-05,-5e-05,0.0001,3,14
12706,-5e-05,-1e-05,-1e-05,3e-05,0.00029,9e-05,-5e-05,0.0001,3,14
12707,-5e-05,-1e-05,-1e-05,3e-05,0.00029,9e-05,-5e-05,0.0001,3,14
12708,-5e-05,-1e-05,-1e-05,3e-05,0.00029,9e-05,-5e-05,0.0001,3,14
12709,-5e-05,-1e-05,-1e-05,3e-05,0.00029,9e-05,-5e-05,0.0001,3,14
12710,-5e-05,-1e-05,-1e-05,3e-05,0.00029,9e-05,-5e-05,0.0001,3,14
12711,-5e-05,-1e-05,-1e-05,3e-05,0.00029,9e-05,-5e-05,0.0001,3,14
12712,-5e-05,-1e-05,-1e-05,3e-05,0.00029,9e-05,-5e-05,0.0001,3,14
12713,-5e-05,-1e-05,-1e-05,3e-05,0.00029,9e-05,-5e-05,0.0001,3,14
12714,-5e-05,-1e-05,-1e-05,3e-05,0.00029,9e-05,-5e-05,0.0001,3,14
12715,-5e-05,-1e-05,-1e-05,3e-05,0.00029,9e-05,-5e-05,0.0001,3,14
12716,3e-05,2e-05,-1e-05,-2e-05,0.00012,0,4e-05,0.00011,3,14
12717,3e-05,2e-05,-1e-05,-2e-05,0.00012,0,4e-05,0.00011,3,14
12718,3e-05,2e-05,-1e-05,-2e-05,0.00012,0,4e-05,0.00011,3,14
12719,3e-05,2e-05,-1e-05,-2e-05,0.00012,0,4e-05,0.00011,3,14
12720,3e-05,2e-05,-1e-05,-2e-05,0.00012,0,4e-05,0.00011,3,14
12721,3e-05,2e-05,-1e-05,-2e-05,0.00012,0,4e-05,0.00011,3,14
12722,3e-05,2e-05,-1e-05,-2e-05,0.00012,0,4e-05,0.00011,3,14
12723,-1e-05,-2e-05,0,-2e-05,-7e-05,0,-1e-05,0.00045,3,14
12724,-1e-05,-2e-05,0,-2e-05,-7e-05,0,-1e-05,0.00045,3,14
12725,-1e-05,-2e-05,0,-2e-05,-7e-05,0,-1e-05,0.00045,3,14
12726,-1e-05,-2e-05,0,-2e-05,-7e-05,0,-1e-05,0.00045,3,14
12727,-1e-05,-2e-05,0,-2e-05,-7e-05,0,-1e-05,0.00045,3,14
12728,-1e-05,-2e-05,0,-2e-05,-7e-05,0,-1e-05,0.00045,3,14
12729,-1e-05,-2e-05,0,-2e-05,-7e-05,0,-1e-05,0.00045,3,14
12730,-1e-05,-2e-05,0,-2e-05,-7e-05,0,-1e-05,0.00045,3,14
12731,-1e-05,-2e-05,0,-2e-05,-7e-05,0,-1e-05,0.00045,3,14
12732,-1e-05,-2e-05,0,-2e-05,-7e-05,0,-1e-05,0.00045,3,14
12733,-1e-05,-2e-05,0,-2e-05,-7e-05,0,-1e-05,0.00045,3,14
12734,-1e-05,-2e-05,0,-2e-05,-7e-05,0,-1e-05,0.00045,3,14
12735,-1e-05,-2e-05,0,-2e-05,-7e-05,0,-1e-05,0.00045,3,14
12736,-1e-05,-2e-05,0,-2e-05,-7e-05,0,-1e-05,0.00045,3,14
12738,-1e-05,-2e-05,0,-2e-05,-7e-05,0,-1e-05,0.00045,3,14
12739,-5e-05,5e-05,-2e-05,-5e-05,5e-05,-6e-05,-3e-05,-0.0005,3,14
12740,-5e-05,5e-05,-2e-05,-5e-05,5e-05,-6e-05,-3e-05,-0.0005,3,14
12741,-5e-05,5e-05,-2e-05,-5e-05,5e-05,-6e-05,-3e-05,-0.0005,3,14
12742,-5e-05,5e-05,-2e-05,-5e-05,5e-05,-6e-05,-3e-05,-0.0005,3,14
12743,-5e-05,5e-05,-2e-05,-5e-05,5e-05,-6e-05,-3e-05,-0.0005,3,14
12744,-5e-05,5e-05,-2e-05,-5e-05,5e-05,-6e-05,-3e-05,-0.0005,3,14
12745,-5e-05,5e-05,-2e-05,-5e-05,5e-05,-6e-05,-3e-05,-0.0005,3,14
12746,-5e-05,5e-05,-2e-05,-5e-05,5e-05,-6e-05,-3e-05,-0.0005,3,14
12747,-5e-05,5e-05,-2e-05,-5e-05,5e-05,-6e-05,-3e-05,-0.0005,3,14
12748,-5e-05,5e-05,-2e-05,-5e-05,5e-05,-6e-05,-3e-05,-0.0005,3,14
12749,-5e-05,5e-05,-2e-05,-5e-05,5e-05,-6e-05,-3e-05,-0.0005,3,14
12750,-5e-05,5e-05,-2e-05,-5e-05,5e-05,-6e-05,-3e-05,-0.0005,3,14
12751,-5e-05,5e-05,-2e-05,-5e-05,5e-05,-6e-05,-3e-05,-0.0005,3,14
12752,-5e-05,5e-05,-2e-05,-5e-05,5e-05,-6e-05,-3e-05,-0.0005,3,14
12753,-5e-05,5e-05,-2e-05,-5e-05,5e-05,-6e-05,-3e-05,-0.0005,3,14
12754,5e-05,-6e-05,-1e-05,-4e-05,3e-05,0.00024,-0.00015,9e-05,3,14
12755,-2e-05,-4e-05,-1e-05,1e-05,-8e-05,5e-05,-0.00011,-0.0001,3,14
12756,-2e-05,-4e-05,-1e-05,1e-05,-8e-05,5e-05,-0.00011,-0.0001,3,14
12757,-2e-05,-4e-05,-1e-05,1e-05,-8e-05,5e-05,-0.00011,-0.0001,3,14
12758,-2e-05,-4e-05,-1e-05,1e-05,-8e-05,5e-05,-0.00011,-0.0001,3,14
12759,-2e-05,-4e-05,-1e-05,1e-05,-8e-05,5e-05,-0.00011,-0.0001,3,14
12760,-2e-05,-4e-05,-1e-05,1e-05,-8e-05,5e-05,-0.00011,-0.0001,3,14
12761,6e-05,1e-05,0,5e-05,1e-05,0,-2e-05,2e-05,3,14
12762,6e-05,1e-05,0,5e-05,1e-05,0,-2e-05,2e-05,3,14
12763,6e-05,1e-05,0,5e-05,1e-05,0,-2e-05,2e-05,3,14
12764,6e-05,1e-05,0,5e-05,1e-05,0,-2e-05,2e-05,3,14
12765,6e-05,1e-05,0,5e-05,1e-05,0,-2e-05,2e-05,3,14
12766,6e-05,1e-05,0,5e-05,1e-05,0,-2e-05,2e-05,3,14
12767,6e-05,1e-05,0,5e-05,1e-05,0,-2e-05,2e-05,3,14
12768,6e-05,1e-05,0,5e-05,1e-05,0,-2e-05,2e-05,3,14
12769,6e-05,1e-05,0,5e-05,1e-05,0,-2e-05,2e-05,3,14
12770,6e-05,1e-05,0,5e-05,1e-05,0,-2e-05,2e-05,3,14
12771,6e-05,1e-05,0,5e-05,1e-05,0,-2e-05,2e-05,3,14
12772,6e-05,1e-05,0,5e-05,1e-05,0,-2e-05,2e-05,3,14
12773,6e-05,1e-05,0,5e-05,1e-05,0,-2e-05,2e-05,3,14
12774,6e-05,1e-05,0,5e-05,1e-05,0,-2e-05,2e-05,3,14
12775,-3e-05,-1e-05,-3e-05,2e-05,4e-05,1e-05,-0.00014,-0.00029,3,14
12776,2e-05,0,2e-05,1e-05,7e-05,6e-05,-0.00022,0.00017,3,14
12777,2e-05,0,2e-05,1e-05,7e-05,6e-05,-0.00022,0.00017,3,14
12778,2e-05,0,2e-05,1e-05,7e-05,6e-05,-0.00022,0.00017,3,14
12779,2e-05,0,2e-05,1e-05,7e-05,6e-05,-0.00022,0.00017,3,14
12780,2e-05,0,2e-05,1e-05,7e-05,6e-05,-0.00022,0.00017,3,14
12781,2e-05,0,2e-05,1e-05,7e-05,6e-05,-0.00022,0.00017,3,14
12782,2e-05,0,2e-05,1e-05,7e-05,6e-05,-0.00022,0.00017,3,14
12783,5e-05,1e-05,4e-05,4e-05,-0.00018,5e-05,-0.00021,0.00027,3,14
12784,5e-05,1e-05,4e-05,4e-05,-0.00018,5e-05,-0.00021,0.00027,3,14
12785,5e-05,1e-05,4e-05,4e-05,-0.00018,5e-05,-0.00021,0.00027,3,14
12786,5e-05,1e-05,4e-05,4e-05,-0.00018,5e-05,-0.00021,0.00027,3,14
12788,5e-05,1e-05,4e-05,4e-05,-0.00018,5e-05,-0.00021,0.00027,3,14
12789,5e-05,1e-05,4e-05,4e-05,-0.00018,5e-05,-0.00021,0.00027,3,14
12790,5e-05,1e-05,4e-05,4e-05,-0.00018,5e-05,-0.00021,0.00027,3,14
12791,5e-05,1e-05,4e-05,4e-05,-0.00018,5e-05,-0.00021,0.00027,3,14
12792,5e-05,1e-05,4e-05,4e-05,-0.00018,5e-05,-0.00021,0.00027,3,14
12793,5e-05,1e-05,4e-05,4e-05,-0.00018,5e-05,-0.00021,0.00027,3,14
12794,5e-05,1e-05,4e-05,4e-05,-0.00018,5e-05,-0.00021,0.00027,3,14
12795,5e-05,1e-05,4e-05,4e-05,-0.00018,5e-05,-0.00021,0.00027,3,14
12796,5e-05,1e-05,4e-05,4e-05,-0.00018,5e-05,-0.00021,0.00027,3,14
12797,5e-05,1e-05,4e-05,4e-05,-0.00018,5e-05,-0.00021,0.00027,3,14
12798,5e-05,1e-05,4e-05,4e-05,-0.00018,5e-05,-0.00021,0.00027,3,14
12799,2e-05,-8e-05,0,-3e-05,-2e-05,-0.00011,-1e-05,0,3,14
12800,2e-05,-8e-05,0,-3e-05,-2e-05,-0.00011,-1e-05,0,3,14
12801,2e-05,-8e-05,0,-3e-05,-2e-05,-0.00011,-1e-05,0,3,14
12802,2e-05,-8e-05,0,-3e-05,-2e-05,-0.00011,-1e-05,0,3,14
12803,2e-05,-8e-05,0,-3e-05,-2e-05,-0.00011,-1e-05,0,3,14
12804,2e-05,-8e-05,0,-3e-05,-2e-05,-0.00011,-1e-05,0,3,14
12805,2e-05,-8e-05,0,-3e-05,-2e-05,-0.00011,-1e-05,0,3,14
12806,2e-05,-8e-05,0,-3e-05,-2e-05,-0.00011,-1e-05,0,3,14
12807,2e-05,-8e-05,0,-3e-05,-2e-05,-0.00011,-1e-05,0,3,14
12808,2e-05,-8e-05,0,-3e-05,-2e-05,-0.00011,-1e-05,0,3,14
12809,2e-05,-8e-05,0,-3e-05,-2e-05,-0.00011,-1e-05,0,3,14
12810,2e-05,-8e-05,0,-3e-05,-2e-05,-0.00011,-1e-05,0,3,14
12811,2e-05,-8e-05,0,-3e-05,-2e-05,-0.00011,-1e-05,0,3,14
12812,2e-05,-8e-05,0,-3e-05,-2e-05,-0.00011,-1e-05,0,3,14
12813,2e-05,-8e-05,0,-3e-05,-2e-05,-0.00011,-1e-05,0,3,14
12814,1e-05,1e-05,-1e-05,1e-05,0.00013,8e-05,0.00035,-9e-05,3,14
12815,5e-05,6e-05,-2e-05,0,-0.0001,-5e-05,6e-05,1e-05,3,14
12816,5e-05,6e-05,-2e-05,0,-0.0001,-5e-05,6e-05,1e-05,3,14
12817,5e-05,6e-05,-2e-05,0,-0.0001,-5e-05,6e-05,1e-05,3,14
12818,5e-05,6e-05,-2e-05,0,-0.0001,-5e-05,6e-05,1e-05,3,14
12819,5e-05,6e-05,-2e-05,0,-0.0001,-5e-05,6e-05,1e-05,3,14
12820,4e-05,4e-05,-2e-05,-9e-05,-6e-05,-3e-05,-8e-05,0,3,14
12821,4e-05,4e-05,-2e-05,-9e-05,-6e-05,-3e-05,-8e-05,0,3,14
12822,4e-05,4e-05,-2e-05,-9e-05,-6e-05,-3e-05,-8e-05,0,3,14
12823,4e-05,4e-05,-2e-05,-9e-05,-6e-05,-3e-05,-8e-05,0,3,14
12824,4e-05,4e-05,-2e-05,-9e-05,-6e-05,-3e-05,-8e-05,0,3,14
12825,4e-05,4e-05,-2e-05,-9e-05,-6e-05,-3e-05,-8e-05,0,3,14
12826,4e-05,4e-05,-2e-05,-9e-05,-6e-05,-3e-05,-8e-05,0,3,14
12827,4e-05,4e-05,-2e-05,-9e-05,-6e-05,-3e-05,-8e-05,0,3,14
12828,4e-05,4e-05,-2e-05,-9e-05,-6e-05,-3e-05,-8e-05,0,3,14
12829,4e-05,4e-05,-2e-05,-9e-05,-6e-05,-3e-05,-8e-05,0,3,14
12830,4e-05,4e-05,-2e-05,-9e-05,-6e-05,-3e-05,-8e-05,0,3,14
12831,4e-05,4e-05,-2e-05,-9e-05,-6e-05,-3e-05,-8e-05,0,3,14
12832,4e-05,4e-05,-2e-05,-9e-05,-6e-05,-3e-05,-8e-05,0,3,14
12833,4e-05,4e-05,-2e-05,-9e-05,-6e-05,-3e-05,-8e-05,0,3,14
12834,4e-05,4e-05,-2e-05,-9e-05,-6e-05,-3e-05,-8e-05,0,3,14
12835,0.00012,3e-05,1e-05,3e-05,0.00027,0.00011,-1e-05,0.00055,3,14
12836,0.00012,3e-05,1e-05,3e-05,0.00027,0.00011,-1e-05,0.00055,3,14
12838,0.00012,3e-05,1e-05,3e-05,0.00027,0.00011,-1e-05,0.00055,3,14
12839,0.00012,3e-05,1e-05,3e-05,0.00027,0.00011,-1e-05,0.00055,3,14
12840,0.00012,3e-05,1e-05,3e-05,0.00027,0.00011,-1e-05,0.00055,3,14
12841,0.00012,3e-05,1e-05,3e-05,0.00027,0.00011,-1e-05,0.00055,3,14
12842,0.00012,3e-05,1e-05,3e-05,0.00027,0.00011,-1e-05,0.00055,3,14
12843,3e-05,6e-05,-1e-05,-2e-05,0.00021,-2e-05,4e-05,-0.00018,3,14
12844,2e-05,1e-05,-5e-05,-2e-05,5e-05,-7e-05,-0.00031,0.00055,3,14
12845,2e-05,1e-05,-5e-05,-2e-05,5e-05,-7e-05,-0.00031,0.00055,3,14
12846,2e-05,1e-05,-5e-05,-2e-05,5e-05,-7e-05,-0.00031,0.00055,3,14
12847,2e-05,1e-05,-5e-05,-2e-05,5e-05,-7e-05,-0.00031,0.00055,3,14
12848,2e-05,1e-05,-5e-05,-2e-05,5e-05,-7e-05,-0.00031,0.00055,3,14
12849,2e-05,1e-05,-5e-05,-2e-05,5e-05,-7e-05,-0.00031,0.00055,3,14
12850,2e-05,1e-05,-5e-05,-2e-05,5e-05,-7e-05,-0.00031,0.00055,3,14
12851,2e-05,1e-05,-5e-05,-2e-05,5e-05,-7e-05,-0.00031,0.00055,3,14
12852,2e-05,1e-05,-5e-05,-2e-05,5e-05,-7e-05,-0.00031,0.00055,3,14
12853,2e-05,1e-05,-5e-05,-2e-05,5e-05,-7e-05,-0.00031,0.00055,3,14
12854,2e-05,1e-05,-5e-05,-2e-05,5e-05,-7e-05,-0.00031,0.00055,3,14
12855,2e-05,1e-05,-5e-05,-2e-05,5e-05,-7e-05,-0.00031,0.00055,3,14
12856,2e-05,1e-05,-5e-05,-2e-05,5e-05,-7e-05,-0.00031,0.00055,3,14
12857,2e-05,1e-05,-5e-05,-2e-05,5e-05,-7e-05,-0.00031,0.00055,3,14
12858,2e-05,1e-05,-5e-05,-2e-05,5e-05,-7e-05,-0.00031,0.00055,3,14
12859,-2e-05,-3e-05,-3e-05,-3e-05,0.00011,-2e-05,0.00012,0.00028,3,14
12860,-2e-05,-3e-05,-3e-05,-3e-05,0.00011,-2e-05,0.00012,0.00028,3,14
12861,-2e-05,-3e-05,-3e-05,-3e-05,0.00011,-2e-05,0.00012,0.00028,3,14
12862,-2e-05,-3e-05,-3e-05,-3e-05,0.00011,-2e-05,0.00012,0.00028,3,14
12863,-2e-05,-3e-05,-3e-05,-3e-05,0.00011,-2e-05,0.00012,0.00028,3,14
12864,-2e-05,-3e-05,-3e-05,-3e-05,0.00011,-2e-05,0.00012,0.00028,3,14
12865,-2e-05,-3e-05,-3e-05,-3e-05,0.00011,-2e-05,0.00012,0.00028,3,14
12866,-2e-05,-3e-05,-3e-05,-3e-05,0.00011,-2e-05,0.00012,0.00028,3,14
12867,-2e-05,-3e-05,-3e-05,-3e-05,0.00011,-2e-05,0.00012,0.00028,3,14
12868,-2e-05,-3e-05,-3e-05,-3e-05,0.00011,-2e-05,0.00012,0.00028,3,14
12869,-2e-05,-3e-05,-3e-05,-3e-05,0.00011,-2e-05,0.00012,0.00028,3,14
12870,-2e-05,-3e-05,-3e-05,-3e-05,0.00011,-2e-05,0.00012,0.00028,3,14
12871,-2e-05,-3e-05,-3e-05,-3e-05,0.00011,-2e-05,0.00012,0.00028,3,14
12872,-2e-05,-3e-05,-3e-05,-3e-05,0.00011,-2e-05,0.00012,0.00028,3,14
12873,-2e-05,-3e-05,-3e-05,-3e-05,0.00011,-2e-05,0.00012,0.00028,3,14
12874,3e-05,-2e-05,-2e-05,-1e-05,-2e-05,0,3e-05,-0.00014,3,14
12875,-3e-05,-1e-05,1e-05,2e-05,-0.00015,-6e-05,4e-05,-0.00013,3,14
12876,-3e-05,-1e-05,1e-05,2e-05,-0.00015,-6e-05,4e-05,-0.00013,3,14
12877,-3e-05,-1e-05,1e-05,2e-05,-0.00015,-6e-05,4e-05,-0.00013,3,14
12878,-3e-05,-1e-05,1e-05,2e-05,-0.00015,-6e-05,4e-05,-0.00013,3,14
12879,-3e-05,-1e-05,1e-05,2e-05,-0.00015,-6e-05,4e-05,-0.00013,3,14
12880,-3e-05,-1e-05,1e-05,2e-05,-0.00015,-6e-05,4e-05,-0.00013,3,14
12881,-8e-05,-3e-05,-5e-05,-6e-05,1e-05,-9e-05,1e-05,0,3,14
12882,-8e-05,-3e-05,-5e-05,-6e-05,1e-05,-9e-05,1e-05,0,3,14
12883,-8e-05,-3e-05,-5e-05,-6e-05,1e-05,-9e-05,1e-05,0,3,14
12884,-8e-05,-3e-05,-5e-05,-6e-05,1e-05,-9e-05,1e-05,0,3,14
12885,-8e-05,-3e-05,-5e-05,-6e-05,1e-05,-9e-05,1e-05,0,3,14
12886,-8e-05,-3e-05,-5e-05,-6e-05,1e-05,-9e-05,1e-05,0,3,14
12888,-8e-05,-3e-05,-5e-05,-6e-05,1e-05,-9e-05,1e-05,0,3,14
12889,-8e-05,-3e-05,-5e-05,-6e-05,1e-05,-9e-05,1e-05,0,3,14
12890,-8e-05,-3e-05,-5e-05,-6e-05,1e-05,-9e-05,1e-05,0,3,14
12891,-8e-05,-3e-05,-5e-05,-6e-05,1e-05,-9e-05,1e-05,0,3,14
12892,-8e-05,-3e-05,-5e-05,-6e-05,1e-05,-9e-05,1e-05,0,3,14
12893,-8e-05,-3e-05,-5e-05,-6e-05,1e-05,-9e-05,1e-05,0,3,14
12894,-8e-05,-3e-05,-5e-05,-6e-05,1e-05,-9e-05,1e-05,0,3,14
12895,-8e-05,-3e-05,-5e-05,-6e-05,1e-05,-9e-05,1e-05,0,3,14
12896,-2e-05,0,2e-05,1e-05,6e-05,1e-05,5e-05,-0.00015,3,14
12897,-2e-05,0,2e-05,1e-05,6e-05,1e-05,5e-05,-0.00015,3,14
12898,-2e-05,0,2e-05,1e-05,6e-05,1e-05,5e-05,-0.00015,3,14
12899,-2e-05,0,2e-05,1e-05,6e-05,1e-05,5e-05,-0.00015,3,14
12900,-2e-05,0,2e-05,1e-05,6e-05,1e-05,5e-05,-0.00015,3,14
12901,-2e-05,0,2e-05,1e-05,6e-05,1e-05,5e-05,-0.00015,3,14
12902,-2e-05,0,2e-05,1e-05,6e-05,1e-05,5e-05,-0.00015,3,14
12903,-8e-05,-3e-05,-3e-05,2e-05,0.00023,2e-05,8e-05,-0.00016,3,14
12904,-8e-05,-3e-05,-3e-05,2e-05,0.00023,2e-05,8e-05,-0.00016,3,14
12905,-8e-05,-3e-05,-3e-05,2e-05,0.00023,2e-05,8e-05,-0.00016,3,14
12906,-8e-05,-3e-05,-3e-05,2e-05,0.00023,2e-05,8e-05,-0.00016,3,14
12907,-8e-05,-3e-05,-3e-05,2e-05,0.00023,2e-05,8e-05,-0.00016,3,14
12908,-8e-05,-3e-05,-3e-05,2e-05,0.00023,2e-05,8e-05,-0.00016,3,14
12909,-8e-05,-3e-05,-3e-05,2e-05,0.00023,2e-05,8e-05,-0.00016,3,14
12910,-8e-05,-3e-05,-3e-05,2e-05,0.00023,2e-05,8e-05,-0.00016,3,14
12911,-8e-05,-3e-05,-3e-05,2e-05,0.00023,2e-05,8e-05,-0.00016,3,14
12912,-8e-05,-3e-05,-3e-05,2e-05,0.00023,2e-05,8e-05,-0.00016,3,14
12913,-8e-05,-3e-05,-3e-05,2e-05,0.00023,2e-05,8e-05,-0.00016,3,14
12914,-8e-05,-3e-05,-3e-05,2e-05,0.00023,2e-05,8e-05,-0.00016,3,14
12915,-8e-05,-3e-05,-3e-05,2e-05,0.00023,2e-05,8e-05,-0.00016,3,14
12916,-8e-05,-3e-05,-3e-05,2e-05,0.00023,2e-05,8e-05,-0.00016,3,14
12917,-8e-05,-3e-05,-3e-05,2e-05,0.00023,2e-05,8e-05,-0.00016,3,14
12918,-8e-05,-3e-05,-3e-05,2e-05,0.00023,2e-05,8e-05,-0.00016,3,14
12919,-3e-05,-2e-05,0,3e-05,-0.0001,-5e-05,3e-05,-0.0002,3,14
12921,-3e-05,-2e-05,0,3e-05,-0.0001,-5e-05,3e-05,-0.0002,3,14
12922,-3e-05,-2e-05,0,3e-05,-0.0001,-5e-05,3e-05,-0.0002,3,14
12923,-3e-05,-2e-05,0,3e-05,-0.0001,-5e-05,3e-05,-0.0002,3,14
12924,-3e-05,-2e-05,0,3e-05,-0.0001,-5e-05,3e-05,-0.0002,3,14
12925,-3e-05,-2e-05,0,3e-05,-0.0001,-5e-05,3e-05,-0.0002,3,14
12926,-3e-05,-2e-05,0,3e-05,-0.0001,-5e-05,3e-05,-0.0002,3,14
12927,-3e-05,-2e-05,0,3e-05,-0.0001,-5e-05,3e-05,-0.0002,3,14
12928,-3e-05,-2e-05,0,3e-05,-0.0001,-5e-05,3e-05,-0.0002,3,14
12929,-3e-05,-2e-05,0,3e-05,-0.0001,-5e-05,3e-05,-0.0002,3,14
12930,-3e-05,-2e-05,0,3e-05,-0.0001,-5e-05,3e-05,-0.0002,3,14
12931,-3e-05,-2e-05,0,3e-05,-0.0001,-5e-05,3e-05,-0.0002,3,14
12932,-3e-05,-2e-05,0,3e-05,-0.0001,-5e-05,3e-05,-0.0002,3,14
12933,-3e-05,-2e-05,0,3e-05,-0.0001,-5e-05,3e-05,-0.0002,3,14
12934,8e-05,-5e-05,-6e-05,-6e-05,2e-05,-0.00014,-0.0001,0.00022,3,14
12935,8e-05,-5e-05,-6e-05,-6e-05,2e-05,-0.00014,-0.0001,0.00022,3,14
12936,8e-05,-5e-05,-6e-05,-6e-05,2e-05,-0.00014,-0.0001,0.00022,3,14
12938,8e-05,-5e-05,-6e-05,-6e-05,2e-05,-0.00014,-0.0001,0.00022,3,14
12939,8e-05,-5e-05,-6e-05,-6e-05,2e-05,-0.00014,-0.0001,0.00022,3,14
12940,8e-05,-5e-05,-6e-05,-6e-05,2e-05,-0.00014,-0.0001,0.00022,3,14
12941,-0.00023,0,3e-05,3e-05,-1e-05,0.00025,0.00023,0.00012,3,14
12942,-0.00023,0,3e-05,3e-05,-1e-05,0.00025,0.00023,0.00012,3,14
12943,-0.00023,0,3e-05,3e-05,-1e-05,0.00025,0.00023,0.00012,3,14
12944,-0.00023,0,3e-05,3e-05,-1e-05,0.00025,0.00023,0.00012,3,14
12945,-0.00023,0,3e-05,3e-05,-1e-05,0.00025,0.00023,0.00012,3,14
12946,-0.00023,0,3e-05,3e-05,-1e-05,0.00025,0.00023,0.00012,3,14
12947,-0.00023,0,3e-05,3e-05,-1e-05,0.00025,0.00023,0.00012,3,14
12948,-0.00023,0,3e-05,3e-05,-1e-05,0.00025,0.00023,0.00012,3,14
12949,-0.00023,0,3e-05,3e-05,-1e-05,0.00025,0.00023,0.00012,3,14
12950,-0.00023,0,3e-05,3e-05,-1e-05,0.00025,0.00023,0.00012,3,14
12951,-0.00023,0,3e-05,3e-05,-1e-05,0.00025,0.00023,0.00012,3,14
12952,-0.00023,0,3e-05,3e-05,-1e-05,0.00025,0.00023,0.00012,3,14
12953,-0.00023,0,3e-05,3e-05,-1e-05,0.00025,0.00023,0.00012,3,14
12954,-0.00023,0,3e-05,3e-05,-1e-05,0.00025,0.00023,0.00012,3,14
12955,0.00013,4e-05,-5e-05,-5e-05,0.00021,-0.0002,-0.00019,0.00072,3,14
12956,-8e-05,2e-05,2e-05,0,-0.0001,6e-05,-0.00013,-2e-05,3,14
12957,-8e-05,2e-05,2e-05,0,-0.0001,6e-05,-0.00013,-2e-05,3,14
12958,-8e-05,2e-05,2e-05,0,-0.0001,6e-05,-0.00013,-2e-05,3,14
12959,-8e-05,2e-05,2e-05,0,-0.0001,6e-05,-0.00013,-2e-05,3,14
12960,-8e-05,2e-05,2e-05,0,-0.0001,6e-05,-0.00013,-2e-05,3,14
12961,-8e-05,2e-05,2e-05,0,-0.0001,6e-05,-0.00013,-2e-05,3,14
12962,-8e-05,2e-05,2e-05,0,-0.0001,6e-05,-0.00013,-2e-05,3,14
12963,0.00016,-2e-05,-5e-05,-7e-05,-1e-05,-0.00014,0.00011,0.00023,3,14
12964,0.00016,-2e-05,-5e-05,-7e-05,-1e-05,-0.00014,0.00011,0.00023,3,14
12965,0.00016,-2e-05,-5e-05,-7e-05,-1e-05,-0.00014,0.00011,0.00023,3,14
12966,0.00016,-2e-05,-5e-05,-7e-05,-1e-05,-0.00014,0.00011,0.00023,3,14
12967,0.00016,-2e-05,-5e-05,-7e-05,-1e-05,-0.00014,0.00011,0.00023,3,14
12968,0.00016,-2e-05,-5e-05,-7e-05,-1e-05,-0.00014,0.00011,0.00023,3,14
12969,0.00016,-2e-05,-5e-05,-7e-05,-1e-05,-0.00014,0.00011,0.00023,3,14
12970,0.00016,-2e-05,-5e-05,-7e-05,-1e-05,-0.00014,0.00011,0.00023,3,14
12971,0.00016,-2e-05,-5e-05,-7e-05,-1e-05,-0.00014,0.00011,0.00023,3,14
12972,0.00016,-2e-05,-5e-05,-7e-05,-1e-05,-0.00014,0.00011,0.00023,3,14
12973,0.00016,-2e-05,-5e-05,-7e-05,-1e-05,-0.00014,0.00011,0.00023,3,14
12974,0.00016,-2e-05,-5e-05,-7e-05,-1e-05,-0.00014,0.00011,0.00023,3,14
12975,0.00016,-2e-05,-5e-05,-7e-05,-1e-05,-0.00014,0.00011,0.00023,3,14
12976,0.00016,-2e-05,-5e-05,-7e-05,-1e-05,-0.00014,0.00011,0.00023,3,14
12977,0.00016,-2e-05,-5e-05,-7e-05,-1e-05,-0.00014,0.00011,0.00023,3,14
12978,0.00016,-2e-05,-5e-05,-7e-05,-1e-05,-0.00014,0.00011,0.00023,3,14
12979,0.00016,-2e-05,-5e-05,-7e-05,-1e-05,-0.00014,0.00011,0.00023,3,14
12980,0.00016,-2e-05,-5e-05,-7e-05,-1e-05,-0.00014,0.00011,0.00023,3,14
12981,0.00016,-2e-05,-5e-05,-7e-05,-1e-05,-0.00014,0.00011,0.00023,3,14
12982,0.00016,-2e-05,-5e-05,-7e-05,-1e-05,-0.00014,0.00011,0.00023,3,14
12983,0.00016,-2e-05,-5e-05,-7e-05,-1e-05,-0.00014,0.00011,0.00023,3,14
12984,0.00016,-2e-05,-5e-05,-7e-05,-1e-05,-0.00014,0.00011,0.00023,3,14
12985,0.00016,-2e-05,-5e-05,-7e-05,-1e-05,-0.00014,0.00011,0.00023,3,14
12986,0.00016,-2e-05,-5e-05,-7e-05,-1e-05,-0.00014,0.00011,0.00023,3,14
12988,0.00016,-2e-05,-5e-05,-7e-05,-1e-05,-0.00014,0.00011,0.00023,3,14
12989,0.00016,-2e-05,-5e-05,-7e-05,-1e-05,-0.00014,0.00011,0.00023,3,14
12990,0.00016,-2e-05,-5e-05,-7e-05,-1e-05,-0.00014,0.00011,0.00023,3,14
12991,0.00016,-2e-05,-5e-05,-7e-05,-1e-05,-0.00014,0.00011,0.00023,3,14
12992,0.00016,-2e-05,-5e-05,-7e-05,-1e-05,-0.00014,0.00011,0.00023,3,14
12993,0.00016,-2e-05,-5e-05,-7e-05,-1e-05,-0.00014,0.00011,0.00023,3,14
12994,-1e-05,-4e-05,-1e-05,-4e-05,0.00011,-1e-05,0.00014,-2e-05,3,14
12995,-4e-05,1e-05,-1e-05,-1e-05,-2e-05,6e-05,3e-05,-6e-05,3,14
12996,-4e-05,1e-05,-1e-05,-1e-05,-2e-05,6e-05,3e-05,-6e-05,3,14
12997,-4e-05,-2e-05,0,1e-05,-0.00022,7e-05,-4e-05,-0.00025,3,14
12998,-4e-05,-2e-05,0,1e-05,-0.00022,7e-05,-4e-05,-0.00025,3,14
12999,-4e-05,-2e-05,0,1e-05,-0.00022,7e-05,-4e-05,-0.00025,3,14
13000,-4e-05,-2e-05,0,1e-05,-0.00022,7e-05,-4e-05,-0.00025,3,14
13001,-4e-05,-2e-05,0,1e-05,-0.00022,7e-05,-4e-05,-0.00025,3,14
13002,-4e-05,-2e-05,0,1e-05,-0.00022,7e-05,-4e-05,-0.00025,3,14
13003,-4e-05,-2e-05,0,1e-05,-0.00022,7e-05,-4e-05,-0.00025,3,14
13004,-4e-05,-2e-05,0,1e-05,-0.00022,7e-05,-4e-05,-0.00025,3,14
13005,-4e-05,-2e-05,0,1e-05,-0.00022,7e-05,-4e-05,-0.00025,3,14
13006,-4e-05,-2e-05,0,1e-05,-0.00022,7e-05,-4e-05,-0.00025,3,14
13007,-4e-05,-2e-05,0,1e-05,-0.00022,7e-05,-4e-05,-0.00025,3,14
13008,-4e-05,-2e-05,0,1e-05,-0.00022,7e-05,-4e-05,-0.00025,3,14
13009,-4e-05,-2e-05,0,1e-05,-0.00022,7e-05,-4e-05,-0.00025,3,14
13010,-4e-05,-2e-05,0,1e-05,-0.00022,7e-05,-4e-05,-0.00025,3,14
13011,-4e-05,-2e-05,0,1e-05,-0.00022,7e-05,-4e-05,-0.00025,3,14
13012,-4e-05,-2e-05,0,1e-05,-0.00022,7e-05,-4e-05,-0.00025,3,14
13013,-4e-05,-2e-05,0,1e-05,-0.00022,7e-05,-4e-05,-0.00025,3,14
13014,-4e-05,-2e-05,0,1e-05,-0.00022,7e-05,-4e-05,-0.00025,3,14
13015,-4e-05,-2e-05,0,1e-05,-0.00022,7e-05,-4e-05,-0.00025,3,14
13016,0,-3e-05,-1e-05,2e-05,-5e-05,-2e-05,-5e-05,-0.00016,3,14
13017,0,-3e-05,-1e-05,2e-05,-5e-05,-2e-05,-5e-05,-0.00016,3,14
13018,0,-3e-05,-1e-05,2e-05,-5e-05,-2e-05,-5e-05,-0.00016,3,14
13019,0,-3e-05,-1e-05,2e-05,-5e-05,-2e-05,-5e-05,-0.00016,3,14
13020,0,-3e-05,-1e-05,2e-05,-5e-05,-2e-05,-5e-05,-0.00016,3,14
13021,0,-3e-05,-1e-05,2e-05,-5e-05,-2e-05,-5e-05,-0.00016,3,14
13022,0,-3e-05,-1e-05,2e-05,-5e-05,-2e-05,-5e-05,-0.00016,3,14
13023,4e-05,-1e-05,-2e-05,-3e-05,8e-05,-2e-05,-9e-05,-0.00013,3,14
13024,4e-05,-1e-05,-2e-05,-3e-05,8e-05,-2e-05,-9e-05,-0.00013,3,14
13025,4e-05,-1e-05,-2e-05,-3e-05,8e-05,-2e-05,-9e-05,-0.00013,3,14
13026,4e-05,-1e-05,-2e-05,-3e-05,8e-05,-2e-05,-9e-05,-0.00013,3,14
13027,4e-05,-1e-05,-2e-05,-3e-05,8e-05,-2e-05,-9e-05,-0.00013,3,14
13028,4e-05,-1e-05,-2e-05,-3e-05,8e-05,-2e-05,-9e-05,-0.00013,3,14
13029,4e-05,-1e-05,-2e-05,-3e-05,8e-05,-2e-05,-9e-05,-0.00013,3,14
13030,4e-05,-1e-05,-2e-05,-3e-05,8e-05,-2e-05,-9e-05,-0.00013,3,14
13031,4e-05,-1e-05,-2e-05,-3e-05,8e-05,-2e-05,-9e-05,-0.00013,3,14
13032,4e-05,-1e-05,-2e-05,-3e-05,8e-05,-2e-05,-9e-05,-0.00013,3,14
13033,4e-05,-1e-05,-2e-05,-3e-05,8e-05,-2e-05,-9e-05,-0.00013,3,14
13034,4e-05,-1e-05,-2e-05,-3e-05,8e-05,-2e-05,-9e-05,-0.00013,3,14
13035,4e-05,-1e-05,-2e-05,-3e-05,8e-05,-2e-05,-9e-05,-0.00013,3,14
13036,4e-05,-1e-05,-2e-05,-3e-05,8e-05,-2e-05,-9e-05,-0.00013,3,14
13038,4e-05,-1e-05,-2e-05,-3e-05,8e-05,-2e-05,-9e-05,-0.00013,3,14
13039,4e-05,-1e-05,-2e-05,-3e-05,8e-05,-2e-05,-9e-05,-0.00013,3,14
13040,4e-05,-1e-05,-2e-05,-3e-05,8e-05,-2e-05,-9e-05,-0.00013,3,14
13041,4e-05,-1e-05,-2e-05,-3e-05,8e-05,-2e-05,-9e-05,-0.00013,3,14
13042,4e-05,-1e-05,-2e-05,-3e-05,8e-05,-2e-05,-9e-05,-0.00013,3,14
13043,4e-05,-1e-05,-2e-05,-3e-05,8e-05,-2e-05,-9e-05,-0.00013,3,14
13044,4e-05,-1e-05,-2e-05,-3e-05,8e-05,-2e-05,-9e-05,-0.00013,3,14
13045,4e-05,-1e-05,-2e-05,-3e-05,8e-05,-2e-05,-9e-05,-0.00013,3,14
13046,4e-05,-1e-05,-2e-05,-3e-05,8e-05,-2e-05,-9e-05,-0.00013,3,14
13047,4e-05,-1e-05,-2e-05,-3e-05,8e-05,-2e-05,-9e-05,-0.00013,3,14
13048,4e-05,-1e-05,-2e-05,-3e-05,8e-05,-2e-05,-9e-05,-0.00013,3,14
13049,4e-05,-1e-05,-2e-05,-3e-05,8e-05,-2e-05,-9e-05,-0.00013,3,14
13050,4e-05,-1e-05,-2e-05,-3e-05,8e-05,-2e-05,-9e-05,-0.00013,3,14
13051,4e-05,-1e-05,-2e-05,-3e-05,8e-05,-2e-05,-9e-05,-0.00013,3,14
13052,4e-05,-1e-05,-2e-05,-3e-05,8e-05,-2e-05,-9e-05,-0.00013,3,14
13053,4e-05,-1e-05,-2e-05,-3e-05,8e-05,-2e-05,-9e-05,-0.00013,3,14
13054,4e-05,-1e-05,-2e-05,-3e-05,8e-05,-2e-05,-9e-05,-0.00013,3,14
13055,3e-05,-2e-05,-3e-05,0,0.00015,2e-05,9e-05,0.00035,3,14
13056,3e-05,-2e-05,-3e-05,0,0.00015,2e-05,9e-05,0.00035,3,14
13057,-2e-05,3e-05,3e-05,2e-05,8e-05,8e-05,-9e-05,4e-05,3,14
13058,-2e-05,3e-05,3e-05,2e-05,8e-05,8e-05,-9e-05,4e-05,3,14
13059,-2e-05,3e-05,3e-05,2e-05,8e-05,8e-05,-9e-05,4e-05,3,14
13060,-2e-05,3e-05,3e-05,2e-05,8e-05,8e-05,-9e-05,4e-05,3,14
13061,-2e-05,3e-05,3e-05,2e-05,8e-05,8e-05,-9e-05,4e-05,3,14
13062,-2e-05,3e-05,3e-05,2e-05,8e-05,8e-05,-9e-05,4e-05,3,14
13063,-2e-05,3e-05,3e-05,2e-05,8e-05,8e-05,-9e-05,4e-05,3,14
13064,-2e-05,3e-05,3e-05,2e-05,8e-05,8e-05,-9e-05,4e-05,3,14
13065,-2e-05,3e-05,3e-05,2e-05,8e-05,8e-05,-9e-05,4e-05,3,14
13066,-2e-05,3e-05,3e-05,2e-05,8e-05,8e-05,-9e-05,4e-05,3,14
13067,-2e-05,3e-05,3e-05,2e-05,8e-05,8e-05,-9e-05,4e-05,3,14
13068,-2e-05,3e-05,3e-05,2e-05,8e-05,8e-05,-9e-05,4e-05,3,14
13069,0,-5e-05,-6e-05,-7e-05,-0.00012,-9e-05,8e-05,-1e-05,3,14
13070,0,-5e-05,-6e-05,-7e-05,-0.00012,-9e-05,8e-05,-1e-05,3,14
13071,0,-5e-05,-6e-05,-7e-05,-0.00012,-9e-05,8e-05,-1e-05,3,14
13072,0,-5e-05,-6e-05,-7e-05,-0.00012,-9e-05,8e-05,-1e-05,3,14
13073,0,-5e-05,-6e-05,-7e-05,-0.00012,-9e-05,8e-05,-1e-05,3,14
13074,0,-5e-05,-6e-05,-7e-05,-0.00012,-9e-05,8e-05,-1e-05,3,14
13075,-0.0002,-3e-05,0,2e-05,2e-05,7e-05,4e-05,-0.00011,3,14
13076,0.00013,1e-05,2e-05,7e-05,3e-05,-6e-05,-0.00038,-0.00019,3,14
13077,0.00013,1e-05,2e-05,7e-05,3e-05,-6e-05,-0.00038,-0.00019,3,14
13078,0.00013,1e-05,2e-05,7e-05,3e-05,-6e-05,-0.00038,-0.00019,3,14
13079,0.00013,1e-05,2e-05,7e-05,3e-05,-6e-05,-0.00038,-0.00019,3,14
13080,0.00013,1e-05,2e-05,7e-05,3e-05,-6e-05,-0.00038,-0.00019,3,14
13081,0.00013,1e-05,2e-05,7e-05,3e-05,-6e-05,-0.00038,-0.00019,3,14
13082,0.00013,1e-05,2e-05,7e-05,3e-05,-6e-05,-0.00038,-0.00019,3,14
13083,0.00013,1e-05,2e-05,7e-05,3e-05,-6e-05,-0.00038,-0.00019,3,14
13084,0.00013,1e-05,2e-05,7e-05,3e-05,-6e-05,-0.00038,-0.00019,3,14
13085,0.00013,1e-05,2e-05,7e-05,3e-05,-6e-05,-0.00038,-0.00019,3,14
13086,0.00013,1e-05,2e-05,7e-05,3e-05,-6e-05,-0.00038,-0.00019,3,14
13088,0.00013,1e-05,2e-05,7e-05,3e-05,-6e-05,-0.00038,-0.00019,3,14
13089,0.00013,1e-05,2e-05,7e-05,3e-05,-6e-05,-0.00038,-0.00019,3,14
13090,0.00013,1e-05,2e-05,7e-05,3e-05,-6e-05,-0.00038,-0.00019,3,14
13091,4e-05,1e-05,-2e-05,-6e-05,-4e-05,7e-05,-0.00046,0.00017,3,14
13092,-1e-05,-4e-05,-1e-05,-3e-05,-5e-05,-5e-05,-0.00012,-6e-05,3,14
13093,-1e-05,-4e-05,-1e-05,-3e-05,-5e-05,-5e-05,-0.00012,-6e-05,3,14
13094,-1e-05,-4e-05,-1e-05,-3e-05,-5e-05,-5e-05,-0.00012,-6e-05,3,14
13095,-1e-05,-4e-05,-1e-05,-3e-05,-5e-05,-5e-05,-0.00012,-6e-05,3,14
13096,-1e-05,-4e-05,-1e-05,-3e-05,-5e-05,-5e-05,-0.00012,-6e-05,3,14
13097,-1e-05,-4e-05,-1e-05,-3e-05,-5e-05,-5e-05,-0.00012,-6e-05,3,14
13098,-1e-05,-4e-05,-1e-05,-3e-05,-5e-05,-5e-05,-0.00012,-6e-05,3,14
13099,-1e-05,-4e-05,-1e-05,-3e-05,-5e-05,-5e-05,-0.00012,-6e-05,3,14
13100,-1e-05,-4e-05,-1e-05,-3e-05,-5e-05,-5e-05,-0.00012,-6e-05,3,14
13101,-1e-05,-4e-05,-1e-05,-3e-05,-5e-05,-5e-05,-0.00012,-6e-05,3,14
13102,-1e-05,-4e-05,-1e-05,-3e-05,-5e-05,-5e-05,-0.00012,-6e-05,3,14
13103,-1e-05,-4e-05,-1e-05,-3e-05,-5e-05,-5e-05,-0.00012,-6e-05,3,14
13104,-1e-05,-4e-05,-1e-05,-3e-05,-5e-05,-5e-05,-0.00012,-6e-05,3,14
13105,-1e-05,-4e-05,-1e-05,-3e-05,-5e-05,-5e-05,-0.00012,-6e-05,3,14
13106,-1e-05,-4e-05,-1e-05,-3e-05,-5e-05,-5e-05,-0.00012,-6e-05,3,14
13107,-8e-05,-3e-05,0,-3e-05,-0.00042,9e-05,0.00012,-0.00015,3,14
13108,1e-05,-4e-05,0,2e-05,-0.00054,0.00017,0.00019,0.00029,3,14
13109,1e-05,-4e-05,0,2e-05,-0.00054,0.00017,0.00019,0.00029,3,14
13110,1e-05,-4e-05,0,2e-05,-0.00054,0.00017,0.00019,0.00029,3,14
13111,1e-05,-4e-05,0,2e-05,-0.00054,0.00017,0.00019,0.00029,3,14
13112,1e-05,-4e-05,0,2e-05,-0.00054,0.00017,0.00019,0.00029,3,14
13113,1e-05,-4e-05,0,2e-05,-0.00054,0.00017,0.00019,0.00029,3,14
13114,-7e-05,-2e-05,1e-05,-3e-05,-0.00058,-8e-05,8e-05,0.00028,3,14
13115,-7e-05,-2e-05,1e-05,-3e-05,-0.00058,-8e-05,8e-05,0.00028,3,14
13116,-8e-05,-4e-05,-3e-05,-4e-05,-0.00057,-0.00011,0.00017,-9e-05,3,14
13117,-8e-05,-4e-05,-3e-05,-4e-05,-0.00057,-0.00011,0.00017,-9e-05,3,14
13118,-8e-05,-4e-05,-3e-05,-4e-05,-0.00057,-0.00011,0.00017,-9e-05,3,14
13119,-8e-05,-4e-05,-3e-05,-4e-05,-0.00057,-0.00011,0.00017,-9e-05,3,14
13120,-8e-05,-4e-05,-3e-05,-4e-05,-0.00057,-0.00011,0.00017,-9e-05,3,14
13121,-1e-05,-5e-05,-3e-05,-1e-05,-0.00058,-5e-05,0.0002,6e-05,3,14
13122,-1e-05,-3e-05,0,-6e-05,-0.00061,-4e-05,-0.00013,6e-05,3,14
13123,-1e-05,-3e-05,0,-6e-05,-0.00061,-4e-05,-0.00013,6e-05,3,14
13124,-1e-05,-3e-05,0,-6e-05,-0.00061,-4e-05,-0.00013,6e-05,3,14
13125,-1e-05,-3e-05,0,-6e-05,-0.00061,-4e-05,-0.00013,6e-05,3,14
13126,-1e-05,-3e-05,0,-6e-05,-0.00061,-4e-05,-0.00013,6e-05,3,14
13127,-1e-05,-3e-05,0,-6e-05,-0.00061,-4e-05,-0.00013,6e-05,3,14
13128,-1e-05,-3e-05,0,-6e-05,-0.00061,-4e-05,-0.00013,6e-05,3,14
13129,-1e-05,-3e-05,0,-6e-05,-0.00061,-4e-05,-0.00013,6e-05,3,14
13130,-1e-05,-3e-05,0,-6e-05,-0.00061,-4e-05,-0.00013,6e-05,3,14
13131,-1e-05,-3e-05,0,-6e-05,-0.00061,-4e-05,-0.00013,6e-05,3,14
13132,-1e-05,-3e-05,0,-6e-05,-0.00061,-4e-05,-0.00013,6e-05,3,14
13133,-1e-05,-3e-05,0,-6e-05,-0.00061,-4e-05,-0.00013,6e-05,3,14
13134,-1e-05,-3e-05,0,-6e-05,-0.00061,-4e-05,-0.00013,6e-05,3,14
13135,-3e-05,-1e-05,2e-05,-1e-05,-0.0004,0.00019,0.00015,-0.00018,3,14
13136,-3e-05,-1e-05,2e-05,-1e-05,-0.0004,0.00019,0.00015,-0.00018,3,14
13138,-3e-05,-1e-05,2e-05,-1e-05,-0.0004,0.00019,0.00015,-0.00018,3,14
13139,-3e-05,-1e-05,2e-05,-1e-05,-0.0004,0.00019,0.00015,-0.00018,3,14
13140,-3e-05,-1e-05,2e-05,-1e-05,-0.0004,0.00019,0.00015,-0.00018,3,14
13141,-3e-05,-1e-05,2e-05,-1e-05,-0.0004,0.00019,0.00015,-0.00018,3,14
13142,-3e-05,-1e-05,2e-05,-1e-05,-0.0004,0.00019,0.00015,-0.00018,3,14
13143,0,-3e-05,-4e-05,-6e-05,-0.00047,1e-05,9e-05,0,3,14
13144,0,-3e-05,-4e-05,-6e-05,-0.00047,1e-05,9e-05,0,3,14
13145,0,-3e-05,-4e-05,-6e-05,-0.00047,1e-05,9e-05,0,3,14
13146,0,-3e-05,-4e-05,-6e-05,-0.00047,1e-05,9e-05,0,3,14
13147,0,-3e-05,-4e-05,-6e-05,-0.00047,1e-05,9e-05,0,3,14
13148,0,-3e-05,-4e-05,-6e-05,-0.00047,1e-05,9e-05,0,3,14
13149,0,-3e-05,-4e-05,-6e-05,-0.00047,1e-05,9e-05,0,3,14
13150,0,-3e-05,-4e-05,-6e-05,-0.00047,1e-05,9e-05,0,3,14
13151,0,-3e-05,-4e-05,-6e-05,-0.00047,1e-05,9e-05,0,3,14
13152,0,-3e-05,-4e-05,-6e-05,-0.00047,1e-05,9e-05,0,3,14
13153,0,-3e-05,-4e-05,-6e-05,-0.00047,1e-05,9e-05,0,3,14
13154,0,-3e-05,-4e-05,-6e-05,-0.00047,1e-05,9e-05,0,3,14
13155,0,-3e-05,-4e-05,-6e-05,-0.00047,1e-05,9e-05,0,3,14
13156,0,-3e-05,-4e-05,-6e-05,-0.00047,1e-05,9e-05,0,3,14
13157,0,-3e-05,-4e-05,-6e-05,-0.00047,1e-05,9e-05,0,3,14
13158,-2e-05,0,-3e-05,0,3e-05,-5e-05,0.00015,-0.00021,3,14
13159,-2e-05,0,-3e-05,0,3e-05,-5e-05,0.00015,-0.00021,3,14
13160,-2e-05,0,-3e-05,0,3e-05,-5e-05,0.00015,-0.00021,3,14
13161,-2e-05,0,-3e-05,0,3e-05,-5e-05,0.00015,-0.00021,3,14
13162,-2e-05,0,-3e-05,0,3e-05,-5e-05,0.00015,-0.00021,3,14
13163,-2e-05,0,-3e-05,0,3e-05,-5e-05,0.00015,-0.00021,3,14
13164,-2e-05,0,-3e-05,0,3e-05,-5e-05,0.00015,-0.00021,3,14
13165,-0.0001,-1e-05,0,-2e-05,-0.00018,1e-05,2e-05,-0.00039,3,14
13166,0,2e-05,2e-05,4e-05,-0.0002,7e-05,-0.00035,4e-05,3,14
13167,0,2e-05,2e-05,4e-05,-0.0002,7e-05,-0.00035,4e-05,3,14
13168,0,2e-05,2e-05,4e-05,-0.0002,7e-05,-0.00035,4e-05,3,14
13169,0,2e-05,2e-05,4e-05,-0.0002,7e-05,-0.00035,4e-05,3,14
13170,0,2e-05,2e-05,4e-05,-0.0002,7e-05,-0.00035,4e-05,3,14
13171,0,2e-05,2e-05,4e-05,-0.0002,7e-05,-0.00035,4e-05,3,14
13172,0,2e-05,2e-05,4e-05,-0.0002,7e-05,-0.00035,4e-05,3,14
13173,0,2e-05,2e-05,4e-05,-0.0002,7e-05,-0.00035,4e-05,3,14
13174,-2e-05,-2e-05,1e-05,-1e-05,-0.00028,-7e-05,5e-05,-1e-05,3,14
13175,1e-05,2e-05,0,4e-05,-4e-05,-4e-05,-0.00022,-0.00019,3,14
13176,1e-05,2e-05,0,4e-05,-4e-05,-4e-05,-0.00022,-0.00019,3,14
13177,1e-05,2e-05,0,4e-05,-4e-05,-4e-05,-0.00022,-0.00019,3,14
13178,1e-05,2e-05,0,4e-05,-4e-05,-4e-05,-0.00022,-0.00019,3,14
13179,1e-05,2e-05,0,4e-05,-4e-05,-4e-05,-0.00022,-0.00019,3,14
13180,3e-05,0,-1e-05,-1e-05,3e-05,-9e-05,8e-05,-0.0003,3,14
13181,3e-05,0,-1e-05,-1e-05,3e-05,-9e-05,8e-05,-0.0003,3,14
13182,3e-05,0,-1e-05,-1e-05,3e-05,-9e-05,8e-05,-0.0003,3,14
13183,3e-05,0,-1e-05,-1e-05,3e-05,-9e-05,8e-05,-0.0003,3,14
13184,3e-05,0,-1e-05,-1e-05,3e-05,-9e-05,8e-05,-0.0003,3,14
13185,3e-05,0,-1e-05,-1e-05,3e-05,-9e-05,8e-05,-0.0003,3,14
13186,3e-05,0,-1e-05,-1e-05,3e-05,-9e-05,8e-05,-0.0003,3,14
13189,3e-05,0,-1e-05,-1e-05,3e-05,-9e-05,8e-05,-0.0003,3,14
13190,3e-05,0,-1e-05,-1e-05,3e-05,-9e-05,8e-05,-0.0003,3,14
13191,3e-05,0,-1e-05,-1e-05,3e-05,-9e-05,8e-05,-0.0003,3,14
13192,3e-05,0,-1e-05,-1e-05,3e-05,-9e-05,8e-05,-0.0003,3,14
13193,3e-05,0,-1e-05,-1e-05,3e-05,-9e-05,8e-05,-0.0003,3,14
13194,3e-05,0,-1e-05,-1e-05,3e-05,-9e-05,8e-05,-0.0003,3,14
13195,3e-05,0,-1e-05,-1e-05,3e-05,-9e-05,8e-05,-0.0003,3,14
13196,-9e-05,-3e-05,2e-05,5e-05,-6e-05,0.00013,-5e-05,-8e-05,3,14
13197,-9e-05,-3e-05,2e-05,5e-05,-6e-05,0.00013,-5e-05,-8e-05,3,14
13198,-9e-05,-3e-05,2e-05,5e-05,-6e-05,0.00013,-5e-05,-8e-05,3,14
13199,-9e-05,-3e-05,2e-05,5e-05,-6e-05,0.00013,-5e-05,-8e-05,3,14
13200,-9e-05,-3e-05,2e-05,5e-05,-6e-05,0.00013,-5e-05,-8e-05,3,14
13201,-9e-05,-3e-05,2e-05,5e-05,-6e-05,0.00013,-5e-05,-8e-05,3,14
13202,-9e-05,-3e-05,2e-05,5e-05,-6e-05,0.00013,-5e-05,-8e-05,3,14
13203,-6e-05,-2e-05,-3e-05,-2e-05,-5e-05,-9e-05,4e-05,0.00028,3,14
13204,-6e-05,-2e-05,-3e-05,-2e-05,-5e-05,-9e-05,4e-05,0.00028,3,14
13205,-6e-05,-2e-05,-3e-05,-2e-05,-5e-05,-9e-05,4e-05,0.00028,3,14
13206,-6e-05,-2e-05,-3e-05,-2e-05,-5e-05,-9e-05,4e-05,0.00028,3,14
13207,-6e-05,-2e-05,-3e-05,-2e-05,-5e-05,-9e-05,4e-05,0.00028,3,14
13208,-6e-05,-2e-05,-3e-05,-2e-05,-5e-05,-9e-05,4e-05,0.00028,3,14
13209,-6e-05,-2e-05,-3e-05,-2e-05,-5e-05,-9e-05,4e-05,0.00028,3,14
13210,-6e-05,-2e-05,-3e-05,-2e-05,-5e-05,-9e-05,4e-05,0.00028,3,14
13211,-6e-05,-2e-05,-3e-05,-2e-05,-5e-05,-9e-05,4e-05,0.00028,3,14
13212,-6e-05,-2e-05,-3e-05,-2e-05,-5e-05,-9e-05,4e-05,0.00028,3,14
13213,-6e-05,-2e-05,-3e-05,-2e-05,-5e-05,-9e-05,4e-05,0.00028,3,14
13214,-6e-05,-2e-05,-3e-05,-2e-05,-5e-05,-9e-05,4e-05,0.00028,3,14
13215,-6e-05,-2e-05,-3e-05,-2e-05,-5e-05,-9e-05,4e-05,0.00028,3,14
13216,-6e-05,-2e-05,-3e-05,-2e-05,-5e-05,-9e-05,4e-05,0.00028,3,14
13217,-6e-05,-2e-05,-3e-05,-2e-05,-5e-05,-9e-05,4e-05,0.00028,3,14
13218,-1e-05,-5e-05,-2e-05,-6e-05,-8e-05,-0.00012,-2e-05,-6e-05,3,14
13219,-1e-05,-5e-05,-2e-05,-6e-05,-8e-05,-0.00012,-2e-05,-6e-05,3,14
13220,-1e-05,-5e-05,-2e-05,-6e-05,-8e-05,-0.00012,-2e-05,-6e-05,3,14
13221,-1e-05,-5e-05,-2e-05,-6e-05,-8e-05,-0.00012,-2e-05,-6e-05,3,14
13222,-1e-05,-5e-05,-2e-05,-6e-05,-8e-05,-0.00012,-2e-05,-6e-05,3,14
13223,-1e-05,-5e-05,-2e-05,-6e-05,-8e-05,-0.00012,-2e-05,-6e-05,3,14
13224,-1e-05,-5e-05,-2e-05,-6e-05,-8e-05,-0.00012,-2e-05,-6e-05,3,14
13225,1e-05,-1e-05,-4e-05,-6e-05,2e-05,-0.00017,-1e-05,0.0001,3,14
13226,-2e-05,-3e-05,0,0,0,5e-05,5e-05,0.00012,3,14
13227,-2e-05,-3e-05,0,0,0,5e-05,5e-05,0.00012,3,14
13228,-2e-05,-3e-05,0,0,0,5e-05,5e-05,0.00012,3,14
13229,-2e-05,-3e-05,0,0,0,5e-05,5e-05,0.00012,3,14
13230,-2e-05,-3e-05,0,0,0,5e-05,5e-05,0.00012,3,14
13231,-2e-05,-3e-05,0,0,0,5e-05,5e-05,0.00012,3,14
13232,-2e-05,-3e-05,0,0,0,5e-05,5e-05,0.00012,3,14
13233,-2e-05,-3e-05,0,0,0,5e-05,5e-05,0.00012,3,14
13234,-4e-05,0,0,-1e-05,0.00018,-1e-05,1e-05,0,3,14
13235,7e-05,0,-1e-05,1e-05,-5e-05,-0.00013,2e-05,-0.00014,3,14
13236,7e-05,0,-1e-05,1e-05,-5e-05,-0.00013,2e-05,-0.00014,3,14
13238,7e-05,0,-1e-05,1e-05,-5e-05,-0.00013,2e-05,-0.00014,3,14
13239,7e-05,0,-1e-05,1e-05,-5e-05,-0.00013,2e-05,-0.00014,3,14
13240,-7e-05,0,-1e-05,-5e-05,8e-05,-0.00026,-5e-05,-0.00018,3,14
13241,0,-2e-05,-1e-05,0,9e-05,-6e-05,-5e-05,0.00016,3,14
13242,0,-2e-05,-1e-05,0,9e-05,-6e-05,-5e-05,0.00016,3,14
13243,0,-2e-05,-1e-05,0,9e-05,-6e-05,-5e-05,0.00016,3,14
13244,0,-2e-05,-1e-05,0,9e-05,-6e-05,-5e-05,0.00016,3,14
13245,0,-2e-05,-1e-05,0,9e-05,-6e-05,-5e-05,0.00016,3,14
13246,0,-2e-05,-1e-05,0,9e-05,-6e-05,-5e-05,0.00016,3,14
13247,0,-2e-05,-1e-05,0,9e-05,-6e-05,-5e-05,0.00016,3,14
13248,0,-2e-05,-1e-05,0,9e-05,-6e-05,-5e-05,0.00016,3,14
13249,0,-2e-05,-1e-05,0,9e-05,-6e-05,-5e-05,0.00016,3,14
13250,0,-2e-05,-1e-05,0,9e-05,-6e-05,-5e-05,0.00016,3,14
13251,0,-2e-05,-1e-05,0,9e-05,-6e-05,-5e-05,0.00016,3,14
13252,0,-2e-05,-1e-05,0,9e-05,-6e-05,-5e-05,0.00016,3,14
13253,0,-2e-05,-1e-05,0,9e-05,-6e-05,-5e-05,0.00016,3,14
13254,0,-2e-05,-1e-05,0,9e-05,-6e-05,-5e-05,0.00016,3,14
13255,-8e-05,5e-05,-1e-05,-3e-05,0,-0.00013,1e-05,0,3,14
13256,-8e-05,5e-05,-1e-05,-3e-05,0,-0.00013,1e-05,0,3,14
13257,-8e-05,5e-05,-1e-05,-3e-05,0,-0.00013,1e-05,0,3,14
13258,-8e-05,5e-05,-1e-05,-3e-05,0,-0.00013,1e-05,0,3,14
13259,-8e-05,5e-05,-1e-05,-3e-05,0,-0.00013,1e-05,0,3,14
13260,-8e-05,5e-05,-1e-05,-3e-05,0,-0.00013,1e-05,0,3,14
13261,-8e-05,5e-05,-1e-05,-3e-05,0,-0.00013,1e-05,0,3,14
13262,-8e-05,5e-05,-1e-05,-3e-05,0,-0.00013,1e-05,0,3,14
13263,7e-05,-6e-05,-3e-05,-2e-05,-0.00014,-3e-05,0.0001,0.00046,3,14
13264,7e-05,-6e-05,-3e-05,-2e-05,-0.00014,-3e-05,0.0001,0.00046,3,14
13265,7e-05,-6e-05,-3e-05,-2e-05,-0.00014,-3e-05,0.0001,0.00046,3,14
13266,7e-05,-6e-05,-3e-05,-2e-05,-0.00014,-3e-05,0.0001,0.00046,3,14
13267,7e-05,-6e-05,-3e-05,-2e-05,-0.00014,-3e-05,0.0001,0.00046,3,14
13268,7e-05,-6e-05,-3e-05,-2e-05,-0.00014,-3e-05,0.0001,0.00046,3,14
13269,7e-05,-6e-05,-3e-05,-2e-05,-0.00014,-3e-05,0.0001,0.00046,3,14
13270,7e-05,-6e-05,-3e-05,-2e-05,-0.00014,-3e-05,0.0001,0.00046,3,14
13271,7e-05,-6e-05,-3e-05,-2e-05,-0.00014,-3e-05,0.0001,0.00046,3,14
13272,7e-05,-6e-05,-3e-05,-2e-05,-0.00014,-3e-05,0.0001,0.00046,3,14
13273,7e-05,-6e-05,-3e-05,-2e-05,-0.00014,-3e-05,0.0001,0.00046,3,14
13274,7e-05,-6e-05,-3e-05,-2e-05,-0.00014,-3e-05,0.0001,0.00046,3,14
13275,7e-05,-6e-05,-3e-05,-2e-05,-0.00014,-3e-05,0.0001,0.00046,3,14
13276,7e-05,-6e-05,-3e-05,-2e-05,-0.00014,-3e-05,0.0001,0.00046,3,14
13277,7e-05,-6e-05,-3e-05,-2e-05,-0.00014,-3e-05,0.0001,0.00046,3,14
13278,-2e-05,-3e-05,-3e-05,-3e-05,4e-05,-0.00011,-0.0002,-0.00018,3,14
13279,-2e-05,-3e-05,-3e-05,-3e-05,4e-05,-0.00011,-0.0002,-0.00018,3,14
13280,-2e-05,-3e-05,-3e-05,-3e-05,4e-05,-0.00011,-0.0002,-0.00018,3,14
13281,-2e-05,-3e-05,-3e-05,-3e-05,4e-05,-0.00011,-0.0002,-0.00018,3,14
13282,-2e-05,-3e-05,-3e-05,-3e-05,4e-05,-0.00011,-0.0002,-0.00018,3,14
13283,-2e-05,-3e-05,-3e-05,-3e-05,4e-05,-0.00011,-0.0002,-0.00018,3,14
13284,-2e-05,-3e-05,-3e-05,-3e-05,4e-05,-0.00011,-0.0002,-0.00018,3,14
13285,7e-05,1e-05,-2e-05,3e-05,-2e-05,0.00011,0.00011,7e-05,3,14
13286,1e-05,3e-05,2e-05,2e-05,0,-7e-05,-0.00015,0.00025,3,14
13288,1e-05,3e-05,2e-05,2e-05,0,-7e-05,-0.00015,0.00025,3,14
13289,1e-05,3e-05,2e-05,2e-05,0,-7e-05,-0.00015,0.00025,3,14
13290,1e-05,3e-05,2e-05,2e-05,0,-7e-05,-0.00015,0.00025,3,14
13291,1e-05,3e-05,2e-05,2e-05,0,-7e-05,-0.00015,0.00025,3,14
13292,1e-05,3e-05,2e-05,2e-05,0,-7e-05,-0.00015,0.00025,3,14
13293,1e-05,3e-05,2e-05,2e-05,0,-7e-05,-0.00015,0.00025,3,14
13294,1e-05,3e-05,2e-05,2e-05,0,-7e-05,-0.00015,0.00025,3,14
13295,1e-05,3e-05,2e-05,2e-05,0,-7e-05,-0.00015,0.00025,3,14
13296,1e-05,3e-05,2e-05,2e-05,0,-7e-05,-0.00015,0.00025,3,14
13297,1e-05,3e-05,2e-05,2e-05,0,-7e-05,-0.00015,0.00025,3,14
13298,1e-05,3e-05,2e-05,2e-05,0,-7e-05,-0.00015,0.00025,3,14
13299,1e-05,3e-05,2e-05,2e-05,0,-7e-05,-0.00015,0.00025,3,14
13300,1e-05,3e-05,2e-05,2e-05,0,-7e-05,-0.00015,0.00025,3,14
13301,3e-05,-3e-05,-2e-05,3e-05,9e-05,4e-05,0.00019,0.00026,3,14
13302,-0.00013,0,-1e-05,-2e-05,6e-05,5e-05,5e-05,-0.00026,3,14
13303,-0.00013,0,-1e-05,-2e-05,6e-05,5e-05,5e-05,-0.00026,3,14
13304,-0.00013,0,-1e-05,-2e-05,6e-05,5e-05,5e-05,-0.00026,3,14
13305,-0.00013,0,-1e-05,-2e-05,6e-05,5e-05,5e-05,-0.00026,3,14
13306,-0.00013,0,-1e-05,-2e-05,6e-05,5e-05,5e-05,-0.00026,3,14
13307,-0.00013,0,-1e-05,-2e-05,6e-05,5e-05,5e-05,-0.00026,3,14
13308,-0.00013,0,-1e-05,-2e-05,6e-05,5e-05,5e-05,-0.00026,3,14
13309,-0.00013,0,-1e-05,-2e-05,6e-05,5e-05,5e-05,-0.00026,3,14
13310,-0.00013,0,-1e-05,-2e-05,6e-05,5e-05,5e-05,-0.00026,3,14
13311,-0.00013,0,-1e-05,-2e-05,6e-05,5e-05,5e-05,-0.00026,3,14
13312,-0.00013,0,-1e-05,-2e-05,6e-05,5e-05,5e-05,-0.00026,3,14
13313,-0.00013,0,-1e-05,-2e-05,6e-05,5e-05,5e-05,-0.00026,3,14
13314,-0.00013,0,-1e-05,-2e-05,6e-05,5e-05,5e-05,-0.00026,3,14
13315,-1e-05,-3e-05,0,-1e-05,7e-05,-8e-05,9e-05,8e-05,3,14
13316,-5e-05,-3e-05,-4e-05,-6e-05,3e-05,-3e-05,-5e-05,-0.00018,3,14
13317,-5e-05,-3e-05,-4e-05,-6e-05,3e-05,-3e-05,-5e-05,-0.00018,3,14
13318,-5e-05,-3e-05,-4e-05,-6e-05,3e-05,-3e-05,-5e-05,-0.00018,3,14
13319,-5e-05,-3e-05,-4e-05,-6e-05,3e-05,-3e-05,-5e-05,-0.00018,3,14
13320,-5e-05,-3e-05,-4e-05,-6e-05,3e-05,-3e-05,-5e-05,-0.00018,3,14
13321,-5e-05,-3e-05,-4e-05,-6e-05,3e-05,-3e-05,-5e-05,-0.00018,3,14
13322,-5e-05,-3e-05,-4e-05,-6e-05,3e-05,-3e-05,-5e-05,-0.00018,3,14
13323,2e-05,1e-05,0,3e-05,1e-05,0.0001,8e-05,0.00018,3,14
13324,2e-05,1e-05,0,3e-05,1e-05,0.0001,8e-05,0.00018,3,14
13325,2e-05,1e-05,0,3e-05,1e-05,0.0001,8e-05,0.00018,3,14
13326,2e-05,1e-05,0,3e-05,1e-05,0.0001,8e-05,0.00018,3,14
13327,2e-05,1e-05,0,3e-05,1e-05,0.0001,8e-05,0.00018,3,14
13328,2e-05,1e-05,0,3e-05,1e-05,0.0001,8e-05,0.00018,3,14
13329,2e-05,1e-05,0,3e-05,1e-05,0.0001,8e-05,0.00018,3,14
13330,2e-05,1e-05,0,3e-05,1e-05,0.0001,8e-05,0.00018,3,14
13331,2e-05,1e-05,0,3e-05,1e-05,0.0001,8e-05,0.00018,3,14
13332,2e-05,1e-05,0,3e-05,1e-05,0.0001,8e-05,0.00018,3,14
13333,2e-05,1e-05,0,3e-05,1e-05,0.0001,8e-05,0.00018,3,14
13334,2e-05,1e-05,0,3e-05,1e-05,0.0001,8e-05,0.00018,3,14
13335,2e-05,1e-05,0,3e-05,1e-05,0.0001,8e-05,0.00018,3,14
13336,2e-05,1e-05,0,3e-05,1e-05,0.0001,8e-05,0.00018,3,14
13338,-7e-05,2e-05,0,1e-05,0,8e-05,6e-05,-0.00014,3,14
13339,-7e-05,2e-05,0,1e-05,0,8e-05,6e-05,-0.00014,3,14
13340,-7e-05,2e-05,0,1e-05,0,8e-05,6e-05,-0.00014,3,14
13341,-7e-05,2e-05,0,1e-05,0,8e-05,6e-05,-0.00014,3,14
13342,-7e-05,2e-05,0,1e-05,0,8e-05,6e-05,-0.00014,3,14
13343,-7e-05,2e-05,0,1e-05,0,8e-05,6e-05,-0.00014,3,14
13344,-7e-05,2e-05,0,1e-05,0,8e-05,6e-05,-0.00014,3,14
13345,-7e-05,2e-05,0,1e-05,0,8e-05,6e-05,-0.00014,3,14
13346,-1e-05,-2e-05,-1e-05,-1e-05,-3e-05,-0.00018,-4e-05,-0.00036,3,14
13347,-1e-05,-2e-05,-1e-05,-1e-05,-3e-05,-0.00018,-4e-05,-0.00036,3,14
13348,-1e-05,-2e-05,-1e-05,-1e-05,-3e-05,-0.00018,-4e-05,-0.00036,3,14
13349,-1e-05,-2e-05,-1e-05,-1e-05,-3e-05,-0.00018,-4e-05,-0.00036,3,14
13350,-1e-05,-2e-05,-1e-05,-1e-05,-3e-05,-0.00018,-4e-05,-0.00036,3,14
13351,-1e-05,-2e-05,-1e-05,-1e-05,-3e-05,-0.00018,-4e-05,-0.00036,3,14
13352,-1e-05,-2e-05,-1e-05,-1e-05,-3e-05,-0.00018,-4e-05,-0.00036,3,14
13353,-1e-05,-2e-05,-1e-05,-1e-05,-3e-05,-0.00018,-4e-05,-0.00036,3,14
13354,-1e-05,-2e-05,-1e-05,-1e-05,-3e-05,-0.00018,-4e-05,-0.00036,3,14
13355,-1e-05,-2e-05,-1e-05,-1e-05,-3e-05,-0.00018,-4e-05,-0.00036,3,14
13356,-1e-05,-2e-05,-1e-05,-1e-05,-3e-05,-0.00018,-4e-05,-0.00036,3,14
13357,-1e-05,-2e-05,-1e-05,-1e-05,-3e-05,-0.00018,-4e-05,-0.00036,3,14
13358,-1e-05,-2e-05,-1e-05,-1e-05,-3e-05,-0.00018,-4e-05,-0.00036,3,14
13359,-1e-05,-2e-05,-1e-05,-1e-05,-3e-05,-0.00018,-4e-05,-0.00036,3,14
13360,-1e-05,-2e-05,-1e-05,-1e-05,-3e-05,-0.00018,-4e-05,-0.00036,3,14
13361,-1e-05,-2e-05,-1e-05,-1e-05,-3e-05,-0.00018,-4e-05,-0.00036,3,14
13362,-1e-05,-2e-05,-1e-05,-1e-05,-3e-05,-0.00018,-4e-05,-0.00036,3,14
13363,-1e-05,-2e-05,-1e-05,-1e-05,-3e-05,-0.00018,-4e-05,-0.00036,3,14
13364,-1e-05,-2e-05,-1e-05,-1e-05,-3e-05,-0.00018,-4e-05,-0.00036,3,14
13365,-1e-05,-2e-05,-1e-05,-1e-05,-3e-05,-0.00018,-4e-05,-0.00036,3,14
13366,-1e-05,-2e-05,-1e-05,-1e-05,-3e-05,-0.00018,-4e-05,-0.00036,3,14
13367,-1e-05,-2e-05,-1e-05,-1e-05,-3e-05,-0.00018,-4e-05,-0.00036,3,14
13368,-1e-05,-2e-05,-1e-05,-1e-05,-3e-05,-0.00018,-4e-05,-0.00036,3,14
13369,3e-05,0,1e-05,0,-0.00013,0.0001,0.00035,0.00017,3,14
13370,0,5e-05,3e-05,4e-05,0.00013,0.00022,0.00027,0.00011,3,14
13371,0,5e-05,3e-05,4e-05,0.00013,0.00022,0.00027,0.00011,3,14
13372,0,5e-05,3e-05,4e-05,0.00013,0.00022,0.00027,0.00011,3,14
13373,0,5e-05,3e-05,4e-05,0.00013,0.00022,0.00027,0.00011,3,14
13374,0,5e-05,3e-05,4e-05,0.00013,0.00022,0.00027,0.00011,3,14
13375,8e-05,1e-05,-1e-05,-1e-05,-3e-05,-3e-05,-0.00015,1e-05,3,14
13376,8e-05,1e-05,-1e-05,-1e-05,-3e-05,-3e-05,-0.00015,1e-05,3,14
13377,8e-05,1e-05,-1e-05,-1e-05,-3e-05,-3e-05,-0.00015,1e-05,3,14
13378,8e-05,1e-05,-1e-05,-1e-05,-3e-05,-3e-05,-0.00015,1e-05,3,14
13379,8e-05,1e-05,-1e-05,-1e-05,-3e-05,-3e-05,-0.00015,1e-05,3,14
13380,8e-05,1e-05,-1e-05,-1e-05,-3e-05,-3e-05,-0.00015,1e-05,3,14
13381,8e-05,1e-05,-1e-05,-1e-05,-3e-05,-3e-05,-0.00015,1e-05,3,14
13382,8e-05,1e-05,-1e-05,-1e-05,-3e-05,-3e-05,-0.00015,1e-05,3,14
13383,-4e-05,-5e-05,-4e-05,-3e-05,-0.0001,0,0.00037,-0.00016,3,14
13384,-4e-05,-5e-05,-4e-05,-3e-05,-0.0001,0,0.00037,-0.00016,3,14
13385,-4e-05,-5e-05,-4e-05,-3e-05,-0.0001,0,0.00037,-0.00016,3,14
13386,-4e-05,-5e-05,-4e-05,-3e-05,-0.0001,0,0.00037,-0.00016,3,14
13388,-4e-05,-5e-05,-4e-05,-3e-05,-0.0001,0,0.00037,-0.00016,3,14
13389,-4e-05,-5e-05,-4e-05,-3e-05,-0.0001,0,0.00037,-0.00016,3,14
13390,-4e-05,-5e-05,-4e-05,-3e-05,-0.0001,0,0.00037,-0.00016,3,14
13391,-4e-05,-5e-05,-4e-05,-3e-05,-0.0001,0,0.00037,-0.00016,3,14
13392,-4e-05,-5e-05,-4e-05,-3e-05,-0.0001,0,0.00037,-0.00016,3,14
13393,-4e-05,-5e-05,-4e-05,-3e-05,-0.0001,0,0.00037,-0.00016,3,14
13394,-4e-05,-5e-05,-4e-05,-3e-05,-0.0001,0,0.00037,-0.00016,3,14
13395,-4e-05,-5e-05,-4e-05,-3e-05,-0.0001,0,0.00037,-0.00016,3,14
13396,-4e-05,-5e-05,-4e-05,-3e-05,-0.0001,0,0.00037,-0.00016,3,14
13397,-4e-05,-5e-05,-4e-05,-3e-05,-0.0001,0,0.00037,-0.00016,3,14
13398,-2e-05,-2e-05,-1e-05,-3e-05,-0.00017,2e-05,-0.0001,2e-05,3,14
13399,-2e-05,-2e-05,-1e-05,-3e-05,-0.00017,2e-05,-0.0001,2e-05,3,14
13400,-2e-05,-2e-05,-1e-05,-3e-05,-0.00017,2e-05,-0.0001,2e-05,3,14
13401,-2e-05,-2e-05,-1e-05,-3e-05,-0.00017,2e-05,-0.0001,2e-05,3,14
13402,-2e-05,-2e-05,-1e-05,-3e-05,-0.00017,2e-05,-0.0001,2e-05,3,14
13403,-2e-05,-2e-05,-1e-05,-3e-05,-0.00017,2e-05,-0.0001,2e-05,3,14
13404,-2e-05,-2e-05,-1e-05,-3e-05,-0.00017,2e-05,-0.0001,2e-05,3,14
13405,2e-05,3e-05,-3e-05,-7e-05,-3e-05,-0.00015,-0.00015,-0.0001,3,14
13406,2e-05,3e-05,-3e-05,-7e-05,-3e-05,-0.00015,-0.00015,-0.0001,3,14
13407,2e-05,3e-05,-3e-05,-7e-05,-3e-05,-0.00015,-0.00015,-0.0001,3,14
13408,2e-05,3e-05,-3e-05,-7e-05,-3e-05,-0.00015,-0.00015,-0.0001,3,14
13409,2e-05,3e-05,-3e-05,-7e-05,-3e-05,-0.00015,-0.00015,-0.0001,3,14
13410,2e-05,3e-05,-3e-05,-7e-05,-3e-05,-0.00015,-0.00015,-0.0001,3,14
13411,2e-05,3e-05,-3e-05,-7e-05,-3e-05,-0.00015,-0.00015,-0.0001,3,14
13412,2e-05,3e-05,-3e-05,-7e-05,-3e-05,-0.00015,-0.00015,-0.0001,3,14
13413,2e-05,3e-05,-3e-05,-7e-05,-3e-05,-0.00015,-0.00015,-0.0001,3,14
13414,2e-05,3e-05,-3e-05,-7e-05,-3e-05,-0.00015,-0.00015,-0.0001,3,14
13415,2e-05,3e-05,-3e-05,-7e-05,-3e-05,-0.00015,-0.00015,-0.0001,3,14
13416,2e-05,3e-05,-3e-05,-7e-05,-3e-05,-0.00015,-0.00015,-0.0001,3,14
13417,2e-05,3e-05,-3e-05,-7e-05,-3e-05,-0.00015,-0.00015,-0.0001,3,14
13418,2e-05,3e-05,-3e-05,-7e-05,-3e-05,-0.00015,-0.00015,-0.0001,3,14
13419,2e-05,3e-05,-3e-05,-7e-05,-3e-05,-0.00015,-0.00015,-0.0001,3,14
13420,2e-05,3e-05,-3e-05,-7e-05,-3e-05,-0.00015,-0.00015,-0.0001,3,14
13421,-2e-05,1e-05,-2e-05,-6e-05,-0.00014,-0.0001,-0.00016,-0.0001,3,14
13422,6e-05,-4e-05,-2e-05,0,-0.00011,-3e-05,-0.00031,-0.00025,3,14
13423,6e-05,-4e-05,-2e-05,0,-0.00011,-3e-05,-0.00031,-0.00025,3,14
13424,6e-05,-4e-05,-2e-05,0,-0.00011,-3e-05,-0.00031,-0.00025,3,14
13425,6e-05,-4e-05,-2e-05,0,-0.00011,-3e-05,-0.00031,-0.00025,3,14
13426,6e-05,-4e-05,-2e-05,0,-0.00011,-3e-05,-0.00031,-0.00025,3,14
13427,6e-05,-4e-05,-2e-05,0,-0.00011,-3e-05,-0.00031,-0.00025,3,14
13428,6e-05,-4e-05,-2e-05,0,-0.00011,-3e-05,-0.00031,-0.00025,3,14
13429,6e-05,-4e-05,-2e-05,0,-0.00011,-3e-05,-0.00031,-0.00025,3,14
13430,6e-05,-4e-05,-2e-05,0,-0.00011,-3e-05,-0.00031,-0.00025,3,14
13431,6e-05,-4e-05,-2e-05,0,-0.00011,-3e-05,-0.00031,-0.00025,3,14
13432,6e-05,-4e-05,-2e-05,0,-0.00011,-3e-05,-0.00031,-0.00025,3,14
13433,6e-05,-4e-05,-2e-05,0,-0.00011,-3e-05,-0.00031,-0.00025,3,14
13434,6e-05,-4e-05,-2e-05,0,-0.00011,-3e-05,-0.00031,-0.00025,3,14
13435,-5e-05,-3e-05,-1e-05,-5e-05,-0.00014,-0.00012,-9e-05,-0.00011,3,14
13436,9e-05,0,0,-2e-05,0.00013,-2e-05,5e-05,0.00025,3,14
13438,9e-05,0,0,-2e-05,0.00013,-2e-05,5e-05,0.00025,3,14
13439,9e-05,0,0,-2e-05,0.00013,-2e-05,5e-05,0.00025,3,14
13440,9e-05,0,0,-2e-05,0.00013,-2e-05,5e-05,0.00025,3,14
13441,9e-05,0,0,-2e-05,0.00013,-2e-05,5e-05,0.00025,3,14
13442,9e-05,0,0,-2e-05,0.00013,-2e-05,5e-05,0.00025,3,14
13443,-2e-05,-3e-05,-1e-05,-3e-05,0.00016,1e-05,1e-05,-0.00015,3,14
13444,-2e-05,-3e-05,-1e-05,-3e-05,0.00016,1e-05,1e-05,-0.00015,3,14
13445,-2e-05,-3e-05,-1e-05,-3e-05,0.00016,1e-05,1e-05,-0.00015,3,14
13446,-2e-05,-3e-05,-1e-05,-3e-05,0.00016,1e-05,1e-05,-0.00015,3,14
13447,-2e-05,-3e-05,-1e-05,-3e-05,0.00016,1e-05,1e-05,-0.00015,3,14
13448,-2e-05,-3e-05,-1e-05,-3e-05,0.00016,1e-05,1e-05,-0.00015,3,14
13449,-2e-05,-3e-05,-1e-05,-3e-05,0.00016,1e-05,1e-05,-0.00015,3,14
13450,-2e-05,-3e-05,-1e-05,-3e-05,0.00016,1e-05,1e-05,-0.00015,3,14
13451,-2e-05,-3e-05,-1e-05,-3e-05,0.00016,1e-05,1e-05,-0.00015,3,14
13452,-2e-05,-3e-05,-1e-05,-3e-05,0.00016,1e-05,1e-05,-0.00015,3,14
13453,-2e-05,-3e-05,-1e-05,-3e-05,0.00016,1e-05,1e-05,-0.00015,3,14
13454,-2e-05,-3e-05,-1e-05,-3e-05,0.00016,1e-05,1e-05,-0.00015,3,14
13455,-2e-05,-3e-05,-1e-05,-3e-05,0.00016,1e-05,1e-05,-0.00015,3,14
13456,-2e-05,-3e-05,-1e-05,-3e-05,0.00016,1e-05,1e-05,-0.00015,3,14
13457,-2e-05,-3e-05,-1e-05,-3e-05,0.00016,1e-05,1e-05,-0.00015,3,14
13458,2e-05,-4e-05,-2e-05,-2e-05,-8e-05,-3e-05,-0.0001,-7e-05,3,14
13459,2e-05,-4e-05,-2e-05,-2e-05,-8e-05,-3e-05,-0.0001,-7e-05,3,14
13460,2e-05,-4e-05,-2e-05,-2e-05,-8e-05,-3e-05,-0.0001,-7e-05,3,14
13461,2e-05,-4e-05,-2e-05,-2e-05,-8e-05,-3e-05,-0.0001,-7e-05,3,14
13463,2e-05,-4e-05,-2e-05,-2e-05,-8e-05,-3e-05,-0.0001,-7e-05,3,14
13464,2e-05,-4e-05,-2e-05,-2e-05,-8e-05,-3e-05,-0.0001,-7e-05,3,14
13465,-7e-05,4e-05,0,-2e-05,0,-0.0001,-1e-05,1e-05,3,14
13466,0,-1e-05,2e-05,2e-05,4e-05,-2e-05,0.00024,-0.00026,3,14
13467,0,-1e-05,2e-05,2e-05,4e-05,-2e-05,0.00024,-0.00026,3,14
13468,0,-1e-05,2e-05,2e-05,4e-05,-2e-05,0.00024,-0.00026,3,14
13469,0,-1e-05,2e-05,2e-05,4e-05,-2e-05,0.00024,-0.00026,3,14
13470,0,-1e-05,2e-05,2e-05,4e-05,-2e-05,0.00024,-0.00026,3,14
13471,0,-1e-05,2e-05,2e-05,4e-05,-2e-05,0.00024,-0.00026,3,14
13472,0,-1e-05,2e-05,2e-05,4e-05,-2e-05,0.00024,-0.00026,3,14
13473,0,-1e-05,2e-05,2e-05,4e-05,-2e-05,0.00024,-0.00026,3,14
13474,0,-1e-05,2e-05,2e-05,4e-05,-2e-05,0.00024,-0.00026,3,14
13475,0,-1e-05,2e-05,2e-05,4e-05,-2e-05,0.00024,-0.00026,3,14
13476,0,-1e-05,2e-05,2e-05,4e-05,-2e-05,0.00024,-0.00026,3,14
13477,0,-1e-05,2e-05,2e-05,4e-05,-2e-05,0.00024,-0.00026,3,14
13478,0,-1e-05,2e-05,2e-05,4e-05,-2e-05,0.00024,-0.00026,3,14
13479,0,-1e-05,2e-05,2e-05,4e-05,-2e-05,0.00024,-0.00026,3,14
13480,0,-1e-05,2e-05,2e-05,4e-05,-2e-05,0.00024,-0.00026,3,14
13481,-0.00011,-7e-05,-2e-05,-2e-05,-5e-05,5e-05,0.00033,-0.00022,3,14
13482,-5e-05,-4e-05,-1e-05,-1e-05,-4e-05,5e-05,-6e-05,-0.00011,3,14
13483,-5e-05,-4e-05,-1e-05,-1e-05,-4e-05,5e-05,-6e-05,-0.00011,3,14
13484,-5e-05,-4e-05,-1e-05,-1e-05,-4e-05,5e-05,-6e-05,-0.00011,3,14
13485,-5e-05,-4e-05,-1e-05,-1e-05,-4e-05,5e-05,-6e-05,-0.00011,3,14
13486,-5e-05,-4e-05,-1e-05,-1e-05,-4e-05,5e-05,-6e-05,-0.00011,3,14
13488,-5e-05,-4e-05,-1e-05,-1e-05,-4e-05,5e-05,-6e-05,-0.00011,3,14
13489,-5e-05,-4e-05,-1e-05,-1e-05,-4e-05,5e-05,-6e-05,-0.00011,3,14
13490,-5e-05,-4e-05,-1e-05,-1e-05,-4e-05,5e-05,-6e-05,-0.00011,3,14
13491,-5e-05,-4e-05,-1e-05,-1e-05,-4e-05,5e-05,-6e-05,-0.00011,3,14
13492,-5e-05,-4e-05,-1e-05,-1e-05,-4e-05,5e-05,-6e-05,-0.00011,3,14
13493,-5e-05,-4e-05,-1e-05,-1e-05,-4e-05,5e-05,-6e-05,-0.00011,3,14
13494,-5e-05,-4e-05,-1e-05,-1e-05,-4e-05,5e-05,-6e-05,-0.00011,3,14
13495,-5e-05,-4e-05,-1e-05,-1e-05,-4e-05,5e-05,-6e-05,-0.00011,3,14
13496,-6e-05,-6e-05,-4e-05,-6e-05,-0.00019,-0.00013,-0.00015,-0.00014,3,14
13497,-6e-05,-6e-05,-4e-05,-6e-05,-0.00019,-0.00013,-0.00015,-0.00014,3,14
13498,-6e-05,-6e-05,-4e-05,-6e-05,-0.00019,-0.00013,-0.00015,-0.00014,3,14
13499,-6e-05,-6e-05,-4e-05,-6e-05,-0.00019,-0.00013,-0.00015,-0.00014,3,14
13500,-6e-05,-6e-05,-4e-05,-6e-05,-0.00019,-0.00013,-0.00015,-0.00014,3,14
13501,-6e-05,-6e-05,-4e-05,-6e-05,-0.00019,-0.00013,-0.00015,-0.00014,3,14
13502,-6e-05,-6e-05,-4e-05,-6e-05,-0.00019,-0.00013,-0.00015,-0.00014,3,14
13503,-8e-05,1e-05,-1e-05,1e-05,-0.00014,4e-05,-5e-05,6e-05,3,14
13504,-8e-05,1e-05,-1e-05,1e-05,-0.00014,4e-05,-5e-05,6e-05,3,14
13505,-8e-05,1e-05,-1e-05,1e-05,-0.00014,4e-05,-5e-05,6e-05,3,14
13506,-8e-05,1e-05,-1e-05,1e-05,-0.00014,4e-05,-5e-05,6e-05,3,14
13507,-8e-05,1e-05,-1e-05,1e-05,-0.00014,4e-05,-5e-05,6e-05,3,14
13508,-8e-05,1e-05,-1e-05,1e-05,-0.00014,4e-05,-5e-05,6e-05,3,14
13509,-8e-05,1e-05,-1e-05,1e-05,-0.00014,4e-05,-5e-05,6e-05,3,14
13510,-8e-05,1e-05,-1e-05,1e-05,-0.00014,4e-05,-5e-05,6e-05,3,14
13511,-8e-05,1e-05,-1e-05,1e-05,-0.00014,4e-05,-5e-05,6e-05,3,14
13512,-8e-05,1e-05,-1e-05,1e-05,-0.00014,4e-05,-5e-05,6e-05,3,14
13513,-8e-05,1e-05,-1e-05,1e-05,-0.00014,4e-05,-5e-05,6e-05,3,14
13514,-8e-05,1e-05,-1e-05,1e-05,-0.00014,4e-05,-5e-05,6e-05,3,14
13515,-8e-05,1e-05,-1e-05,1e-05,-0.00014,4e-05,-5e-05,6e-05,3,14
13516,-8e-05,1e-05,-1e-05,1e-05,-0.00014,4e-05,-5e-05,6e-05,3,14
13517,-8e-05,1e-05,-1e-05,1e-05,-0.00014,4e-05,-5e-05,6e-05,3,14
13518,6e-05,-3e-05,1e-05,2e-05,9e-05,5e-05,-0.00029,-0.00018,3,14
13519,6e-05,-3e-05,1e-05,2e-05,9e-05,5e-05,-0.00029,-0.00018,3,14
13520,6e-05,-3e-05,1e-05,2e-05,9e-05,5e-05,-0.00029,-0.00018,3,14
13521,6e-05,-3e-05,1e-05,2e-05,9e-05,5e-05,-0.00029,-0.00018,3,14
13522,6e-05,-3e-05,1e-05,2e-05,9e-05,5e-05,-0.00029,-0.00018,3,14
13523,6e-05,-3e-05,1e-05,2e-05,9e-05,5e-05,-0.00029,-0.00018,3,14
13524,6e-05,-3e-05,1e-05,2e-05,9e-05,5e-05,-0.00029,-0.00018,3,14
13525,1e-05,-2e-05,-5e-05,-5e-05,4e-05,-2e-05,-4e-05,0.00016,3,14
13526,1e-05,-2e-05,-5e-05,-5e-05,4e-05,-2e-05,-4e-05,0.00016,3,14
13527,1e-05,-2e-05,-5e-05,-5e-05,4e-05,-2e-05,-4e-05,0.00016,3,14
13528,1e-05,-2e-05,-5e-05,-5e-05,4e-05,-2e-05,-4e-05,0.00016,3,14
13529,1e-05,-2e-05,-5e-05,-5e-05,4e-05,-2e-05,-4e-05,0.00016,3,14
13530,1e-05,-2e-05,-5e-05,-5e-05,4e-05,-2e-05,-4e-05,0.00016,3,14
13531,1e-05,-2e-05,-5e-05,-5e-05,4e-05,-2e-05,-4e-05,0.00016,3,14
13532,1e-05,-2e-05,-5e-05,-5e-05,4e-05,-2e-05,-4e-05,0.00016,3,14
13533,1e-05,-2e-05,-5e-05,-5e-05,4e-05,-2e-05,-4e-05,0.00016,3,14
13534,1e-05,-2e-05,-5e-05,-5e-05,4e-05,-2e-05,-4e-05,0.00016,3,14
13535,1e-05,-2e-05,-5e-05,-5e-05,4e-05,-2e-05,-4e-05,0.00016,3,14
13536,1e-05,-2e-05,-5e-05,-5e-05,4e-05,-2e-05,-4e-05,0.00016,3,14
13538,1e-05,-2e-05,-5e-05,-5e-05,4e-05,-2e-05,-4e-05,0.00016,3,14
13539,1e-05,-2e-05,-5e-05,-5e-05,4e-05,-2e-05,-4e-05,0.00016,3,14
13540,1e-05,-2e-05,-5e-05,-5e-05,4e-05,-2e-05,-4e-05,0.00016,3,14
13541,1e-05,-2e-05,-5e-05,-5e-05,4e-05,-2e-05,-4e-05,0.00016,3,14
13542,1e-05,-2e-05,-5e-05,-5e-05,4e-05,-2e-05,-4e-05,0.00016,3,14
13543,1e-05,-2e-05,-5e-05,-5e-05,4e-05,-2e-05,-4e-05,0.00016,3,14
13544,1e-05,-2e-05,-5e-05,-5e-05,4e-05,-2e-05,-4e-05,0.00016,3,14
13545,1e-05,-2e-05,-5e-05,-5e-05,4e-05,-2e-05,-4e-05,0.00016,3,14
13546,1e-05,-2e-05,-5e-05,-5e-05,4e-05,-2e-05,-4e-05,0.00016,3,14
13547,1e-05,-2e-05,-5e-05,-5e-05,4e-05,-2e-05,-4e-05,0.00016,3,14
13548,1e-05,-2e-05,-5e-05,-5e-05,4e-05,-2e-05,-4e-05,0.00016,3,14
13549,1e-05,-2e-05,-5e-05,-5e-05,4e-05,-2e-05,-4e-05,0.00016,3,14
13550,1e-05,-2e-05,-5e-05,-5e-05,4e-05,-2e-05,-4e-05,0.00016,3,14
13551,1e-05,-2e-05,-5e-05,-5e-05,4e-05,-2e-05,-4e-05,0.00016,3,14
13552,1e-05,-2e-05,-5e-05,-5e-05,4e-05,-2e-05,-4e-05,0.00016,3,14
13553,1e-05,-2e-05,-5e-05,-5e-05,4e-05,-2e-05,-4e-05,0.00016,3,14
13554,1e-05,-2e-05,-5e-05,-5e-05,4e-05,-2e-05,-4e-05,0.00016,3,14
13555,1e-05,-2e-05,-5e-05,-5e-05,4e-05,-2e-05,-4e-05,0.00016,3,14
13556,1e-05,-2e-05,-5e-05,-5e-05,4e-05,-2e-05,-4e-05,0.00016,3,14
13557,1e-05,-2e-05,-5e-05,-5e-05,4e-05,-2e-05,-4e-05,0.00016,3,14
13558,1e-05,-2e-05,-5e-05,-5e-05,4e-05,-2e-05,-4e-05,0.00016,3,14
13559,1e-05,-2e-05,-5e-05,-5e-05,4e-05,-2e-05,-4e-05,0.00016,3,14
13560,1e-05,-2e-05,-5e-05,-5e-05,4e-05,-2e-05,-4e-05,0.00016,3,14
13561,1e-05,-2e-05,-5e-05,-5e-05,4e-05,-2e-05,-4e-05,0.00016,3,14
13562,1e-05,-2e-05,-5e-05,-5e-05,4e-05,-2e-05,-4e-05,0.00016,3,14
13563,1e-05,-2e-05,-5e-05,-5e-05,4e-05,-2e-05,-4e-05,0.00016,3,14
13564,1e-05,-2e-05,-5e-05,-5e-05,4e-05,-2e-05,-4e-05,0.00016,3,14
13565,2e-05,2e-05,1e-05,3e-05,1e-05,1e-05,3e-05,-0.00021,3,14
13566,3e-05,-3e-05,2e-05,-2e-05,-9e-05,1e-05,0,-4e-05,3,14
13567,-4e-05,-5e-05,-1e-05,-3e-05,-0.00016,2e-05,-9e-05,-0.00015,3,14
13568,-4e-05,-5e-05,-1e-05,-3e-05,-0.00016,2e-05,-9e-05,-0.00015,3,14
13569,-4e-05,-5e-05,-1e-05,-3e-05,-0.00016,2e-05,-9e-05,-0.00015,3,14
13570,-4e-05,-5e-05,-1e-05,-3e-05,-0.00016,2e-05,-9e-05,-0.00015,3,14
13571,-4e-05,-5e-05,-1e-05,-3e-05,-0.00016,2e-05,-9e-05,-0.00015,3,14
13572,-4e-05,-5e-05,-1e-05,-3e-05,-0.00016,2e-05,-9e-05,-0.00015,3,14
13573,-4e-05,-5e-05,-1e-05,-3e-05,-0.00016,2e-05,-9e-05,-0.00015,3,14
13574,-4e-05,-5e-05,-1e-05,-3e-05,-0.00016,2e-05,-9e-05,-0.00015,3,14
13575,-4e-05,-5e-05,-1e-05,-3e-05,-0.00016,2e-05,-9e-05,-0.00015,3,14
13576,-4e-05,-5e-05,-1e-05,-3e-05,-0.00016,2e-05,-9e-05,-0.00015,3,14
13577,-4e-05,-5e-05,-1e-05,-3e-05,-0.00016,2e-05,-9e-05,-0.00015,3,14
13578,5e-05,-1e-05,2e-05,6e-05,-1e-05,-7e-05,4e-05,4e-05,3,14
13579,5e-05,4e-05,0,-2e-05,0.00034,4e-05,-2e-05,-3e-05,3,14
13580,5e-05,4e-05,0,-2e-05,0.00034,4e-05,-2e-05,-3e-05,3,14
13581,5e-05,4e-05,0,-2e-05,0.00034,4e-05,-2e-05,-3e-05,3,14
13582,5e-05,4e-05,0,-2e-05,0.00034,4e-05,-2e-05,-3e-05,3,14
13583,5e-05,4e-05,0,-2e-05,0.00034,4e-05,-2e-05,-3e-05,3,14
13584,5e-05,4e-05,0,-2e-05,0.00034,4e-05,-2e-05,-3e-05,3,14
13585,-2e-05,-5e-05,-3e-05,0,0.0001,0.00016,7e-05,3e-05,3,14
13586,-4e-05,-4e-05,-2e-05,-4e-05,-6e-05,-6e-05,0.00014,-3e-05,3,14
13588,-4e-05,-4e-05,-2e-05,-4e-05,-6e-05,-6e-05,0.00014,-3e-05,3,14
13589,-4e-05,-4e-05,-2e-05,-4e-05,-6e-05,-6e-05,0.00014,-3e-05,3,14
13590,-4e-05,-4e-05,-2e-05,-4e-05,-6e-05,-6e-05,0.00014,-3e-05,3,14
13591,-4e-05,-4e-05,-2e-05,-4e-05,-6e-05,-6e-05,0.00014,-3e-05,3,14
13592,-4e-05,-4e-05,-2e-05,-4e-05,-6e-05,-6e-05,0.00014,-3e-05,3,14
13593,-4e-05,-4e-05,-2e-05,-4e-05,-6e-05,-6e-05,0.00014,-3e-05,3,14
13594,-4e-05,-4e-05,-2e-05,-4e-05,-6e-05,-6e-05,0.00014,-3e-05,3,14
13595,-4e-05,-4e-05,-2e-05,-4e-05,-6e-05,-6e-05,0.00014,-3e-05,3,14
13596,-4e-05,-4e-05,-2e-05,-4e-05,-6e-05,-6e-05,0.00014,-3e-05,3,14
13597,-4e-05,-4e-05,-2e-05,-4e-05,-6e-05,-6e-05,0.00014,-3e-05,3,14
13598,-4e-05,-4e-05,-2e-05,-4e-05,-6e-05,-6e-05,0.00014,-3e-05,3,14
13599,-4e-05,-4e-05,-2e-05,-4e-05,-6e-05,-6e-05,0.00014,-3e-05,3,14
13600,-4e-05,-4e-05,-2e-05,-4e-05,-6e-05,-6e-05,0.00014,-3e-05,3,14
13601,-4e-05,-4e-05,-2e-05,-4e-05,-6e-05,-6e-05,0.00014,-3e-05,3,14
13602,-9e-05,2e-05,3e-05,5e-05,1e-05,2e-05,3e-05,-5e-05,3,14
13603,7e-05,-1e-05,-3e-05,-1e-05,0.00013,0.00012,-3e-05,0.00012,3,14
13604,7e-05,-1e-05,-3e-05,-1e-05,0.00013,0.00012,-3e-05,0.00012,3,14
13605,7e-05,-1e-05,-3e-05,-1e-05,0.00013,0.00012,-3e-05,0.00012,3,14
13606,7e-05,-1e-05,-3e-05,-1e-05,0.00013,0.00012,-3e-05,0.00012,3,14
13607,7e-05,-1e-05,-3e-05,-1e-05,0.00013,0.00012,-3e-05,0.00012,3,14
13608,7e-05,-1e-05,-3e-05,-1e-05,0.00013,0.00012,-3e-05,0.00012,3,14
13609,7e-05,-1e-05,-3e-05,-1e-05,0.00013,0.00012,-3e-05,0.00012,3,14
13610,7e-05,-1e-05,-3e-05,-1e-05,0.00013,0.00012,-3e-05,0.00012,3,14
13611,7e-05,-1e-05,-3e-05,-1e-05,0.00013,0.00012,-3e-05,0.00012,3,14
13612,7e-05,-1e-05,-3e-05,-1e-05,0.00013,0.00012,-3e-05,0.00012,3,14
13613,7e-05,-1e-05,-3e-05,-1e-05,0.00013,0.00012,-3e-05,0.00012,3,14
13614,7e-05,-1e-05,-3e-05,-1e-05,0.00013,0.00012,-3e-05,0.00012,3,14
13615,7e-05,-1e-05,-3e-05,-1e-05,0.00013,0.00012,-3e-05,0.00012,3,14
13616,7e-05,-1e-05,-3e-05,-1e-05,0.00013,0.00012,-3e-05,0.00012,3,14
13617,-5e-05,-2e-05,-2e-05,2e-05,0.00019,0,-6e-05,-0.00018,3,14
13618,-5e-05,-2e-05,-2e-05,2e-05,0.00019,0,-6e-05,-0.00018,3,14
13619,0,-6e-05,-2e-05,-3e-05,0.00036,-2e-05,-4e-05,1e-05,3,14
13620,0,-6e-05,-2e-05,-3e-05,0.00036,-2e-05,-4e-05,1e-05,3,14
13621,0,-6e-05,-2e-05,-3e-05,0.00036,-2e-05,-4e-05,1e-05,3,14
13622,0,-6e-05,-2e-05,-3e-05,0.00036,-2e-05,-4e-05,1e-05,3,14
13623,0,-6e-05,-2e-05,-3e-05,0.00036,-2e-05,-4e-05,1e-05,3,14
13624,3e-05,-3e-05,-1e-05,-1e-05,0.00027,-1e-05,-7e-05,5e-05,3,14
13625,3e-05,-3e-05,-1e-05,-1e-05,0.00027,-1e-05,-7e-05,5e-05,3,14
13626,3e-05,-3e-05,-1e-05,-1e-05,0.00027,-1e-05,-7e-05,5e-05,3,14
13627,3e-05,-3e-05,-1e-05,-1e-05,0.00027,-1e-05,-7e-05,5e-05,3,14
13628,3e-05,-3e-05,-1e-05,-1e-05,0.00027,-1e-05,-7e-05,5e-05,3,14
39097,-7e-05,-6e-05,-6e-05,3e-05,-5e-05,0.00012,0,0.00042,3,14
39098,-7e-05,-6e-05,-6e-05,3e-05,-5e-05,0.00012,0,0.00042,3,14
39099,-7e-05,-6e-05,-6e-05,3e-05,-5e-05,0.00012,0,0.00042,3,14
39100,-7e-05,-6e-05,-6e-05,3e-05,-5e-05,0.00012,0,0.00042,3,14
39101,-7e-05,-6e-05,-6e-05,3e-05,-5e-05,0.00012,0,0.00042,3,14
39102,-7e-05,-6e-05,-6e-05,3e-05,-5e-05,0.00012,0,0.00042,3,14
39103,-7e-05,-6e-05,-6e-05,3e-05,-5e-05,0.00012,0,0.00042,3,14
39104,-7e-05,-6e-05,-6e-05,3e-05,-5e-05,0.00012,0,0.00042,3,14
39105,-7e-05,-6e-05,-6e-05,3e-05,-5e-05,0.00012,0,0.00042,3,14
39106,-7e-05,-6e-05,-6e-05,3e-05,-5e-05,0.00012,0,0.00042,3,14
39107,-7e-05,-6e-05,-6e-05,3e-05,-5e-05,0.00012,0,0.00042,3,14
