9728,1e-05,-0.00011,-1e-05,3e-05,7e-05,0,-8e-05,5e-05,3,16
9729,1e-05,-0.00011,-1e-05,3e-05,7e-05,0,-8e-05,5e-05,3,16
9730,1e-05,-0.00011,-1e-05,3e-05,7e-05,0,-8e-05,5e-05,3,16
9731,1e-05,-0.00011,-1e-05,3e-05,7e-05,0,-8e-05,5e-05,3,16
9732,1e-05,-0.00011,-1e-05,3e-05,7e-05,0,-8e-05,5e-05,3,16
9733,1e-05,-0.00011,-1e-05,3e-05,7e-05,0,-8e-05,5e-05,3,16
9734,1e-05,-0.00011,-1e-05,3e-05,7e-05,0,-8e-05,5e-05,3,16
9735,1e-05,-0.00011,-1e-05,3e-05,7e-05,0,-8e-05,5e-05,3,16
9736,1e-05,-0.00011,-1e-05,3e-05,7e-05,0,-8e-05,5e-05,3,16
9738,0.00014,0.00019,1e-05,0.00011,0.00011,8e-05,0.00021,-6e-05,3,16
9739,0.00014,0.00019,1e-05,0.00011,0.00011,8e-05,0.00021,-6e-05,3,16
9740,0.00014,0.00019,1e-05,0.00011,0.00011,8e-05,0.00021,-6e-05,3,16
9741,0.00014,0.00019,1e-05,0.00011,0.00011,8e-05,0.00021,-6e-05,3,16
9742,0.00014,0.00019,1e-05,0.00011,0.00011,8e-05,0.00021,-6e-05,3,16
9743,0.00014,0.00019,1e-05,0.00011,0.00011,8e-05,0.00021,-6e-05,3,16
9744,0.00014,0.00019,1e-05,0.00011,0.00011,8e-05,0.00021,-6e-05,3,16
9745,0.00014,0.00019,1e-05,0.00011,0.00011,8e-05,0.00021,-6e-05,3,16
9746,0.00014,0.00019,1e-05,0.00011,0.00011,8e-05,0.00021,-6e-05,3,16
9747,0.00014,0.00019,1e-05,0.00011,0.00011,8e-05,0.00021,-6e-05,3,16
9748,0.00014,0.00019,1e-05,0.00011,0.00011,8e-05,0.00021,-6e-05,3,16
9749,0.00014,0.00019,1e-05,0.00011,0.00011,8e-05,0.00021,-6e-05,3,16
9750,0.00014,0.00019,1e-05,0.00011,0.00011,8e-05,0.00021,-6e-05,3,16
9751,0.00014,0.00019,1e-05,0.00011,0.00011,8e-05,0.00021,-6e-05,3,16
9752,0.00014,0.00019,1e-05,0.00011,0.00011,8e-05,0.00021,-6e-05,3,16
9753,0.00014,0.00019,1e-05,0.00011,0.00011,8e-05,0.00021,-6e-05,3,16
9754,0.00014,0.00019,1e-05,0.00011,0.00011,8e-05,0.00021,-6e-05,3,16
9755,0.00014,0.00019,1e-05,0.00011,0.00011,8e-05,0.00021,-6e-05,3,16
9756,0.00014,0.00019,1e-05,0.00011,0.00011,8e-05,0.00021,-6e-05,3,16
9757,0.00014,0.00019,1e-05,0.00011,0.00011,8e-05,0.00021,-6e-05,3,16
9758,0.00014,0.00019,1e-05,0.00011,0.00011,8e-05,0.00021,-6e-05,3,16
9759,-1e-05,-0.00014,-4e-05,-0.0001,-3e-05,-3e-05,2e-05,0.00012,3,16
9760,-9e-05,-0.00014,-2e-05,2e-05,6e-05,-2e-05,-0.00019,-5e-05,3,16
9761,-9e-05,-0.00014,-2e-05,2e-05,6e-05,-2e-05,-0.00019,-5e-05,3,16
9762,-9e-05,-0.00014,-2e-05,2e-05,6e-05,-2e-05,-0.00019,-5e-05,3,16
9763,-9e-05,-0.00014,-2e-05,2e-05,6e-05,-2e-05,-0.00019,-5e-05,3,16
9764,-9e-05,-0.00014,-2e-05,2e-05,6e-05,-2e-05,-0.00019,-5e-05,3,16
9765,-9e-05,-0.00014,-2e-05,2e-05,6e-05,-2e-05,-0.00019,-5e-05,3,16
9766,-9e-05,-0.00014,-2e-05,2e-05,6e-05,-2e-05,-0.00019,-5e-05,3,16
9767,-9e-05,-0.00014,-2e-05,2e-05,6e-05,-2e-05,-0.00019,-5e-05,3,16
9768,-9e-05,-0.00014,-2e-05,2e-05,6e-05,-2e-05,-0.00019,-5e-05,3,16
9769,-9e-05,-0.00014,-2e-05,2e-05,6e-05,-2e-05,-0.00019,-5e-05,3,16
9770,-9e-05,-0.00014,-2e-05,2e-05,6e-05,-2e-05,-0.00019,-5e-05,3,16
9771,-9e-05,-0.00014,-2e-05,2e-05,6e-05,-2e-05,-0.00019,-5e-05,3,16
9772,-9e-05,-0.00014,-2e-05,2e-05,6e-05,-2e-05,-0.00019,-5e-05,3,16
9773,-9e-05,-0.00014,-2e-05,2e-05,6e-05,-2e-05,-0.00019,-5e-05,3,16
9774,-9e-05,-0.00014,-2e-05,2e-05,6e-05,-2e-05,-0.00019,-5e-05,3,16
9775,-9e-05,-0.00014,-2e-05,2e-05,6e-05,-2e-05,-0.00019,-5e-05,3,16
9776,-9e-05,-0.00014,-2e-05,2e-05,6e-05,-2e-05,-0.00019,-5e-05,3,16
9777,-9e-05,-0.00014,-2e-05,2e-05,6e-05,-2e-05,-0.00019,-5e-05,3,16
9778,-9e-05,-0.00014,-2e-05,2e-05,6e-05,-2e-05,-0.00019,-5e-05,3,16
9779,-9e-05,-0.00014,-2e-05,2e-05,6e-05,-2e-05,-0.00019,-5e-05,3,16
9780,-9e-05,-0.00014,-2e-05,2e-05,6e-05,-2e-05,-0.00019,-5e-05,3,16
9781,-9e-05,-0.00014,-2e-05,2e-05,6e-05,-2e-05,-0.00019,-5e-05,3,16
9782,-9e-05,-5e-05,-6e-05,-8e-05,-0.00015,-7e-05,-0.00012,-0.00014,3,16
9783,0,-7e-05,-9e-05,-0.00013,-0.00014,-0.00013,-0.00018,3e-05,3,16
9784,0,-7e-05,-9e-05,-0.00013,-0.00014,-0.00013,-0.00018,3e-05,3,16
9785,0,-7e-05,-9e-05,-0.00013,-0.00014,-0.00013,-0.00018,3e-05,3,16
9786,0,-7e-05,-9e-05,-0.00013,-0.00014,-0.00013,-0.00018,3e-05,3,16
9788,0,-7e-05,-9e-05,-0.00013,-0.00014,-0.00013,-0.00018,3e-05,3,16
9789,0,-7e-05,-9e-05,-0.00013,-0.00014,-0.00013,-0.00018,3e-05,3,16
9790,0,-7e-05,-9e-05,-0.00013,-0.00014,-0.00013,-0.00018,3e-05,3,16
9791,0,-7e-05,-9e-05,-0.00013,-0.00014,-0.00013,-0.00018,3e-05,3,16
9792,0,-7e-05,-9e-05,-0.00013,-0.00014,-0.00013,-0.00018,3e-05,3,16
9793,0,-7e-05,-9e-05,-0.00013,-0.00014,-0.00013,-0.00018,3e-05,3,16
9794,0,-7e-05,-9e-05,-0.00013,-0.00014,-0.00013,-0.00018,3e-05,3,16
9795,0,-7e-05,-9e-05,-0.00013,-0.00014,-0.00013,-0.00018,3e-05,3,16
9796,-7e-05,-4e-05,1e-05,-6e-05,-8e-05,-4e-05,4e-05,-0.00012,3,16
9797,0.0001,4e-05,-3e-05,-6e-05,0,-0.00012,-1e-05,-2e-05,3,16
9798,0.0001,4e-05,-3e-05,-6e-05,0,-0.00012,-1e-05,-2e-05,3,16
9799,0.0001,4e-05,-3e-05,-6e-05,0,-0.00012,-1e-05,-2e-05,3,16
9800,0.0001,4e-05,-3e-05,-6e-05,0,-0.00012,-1e-05,-2e-05,3,16
9801,0.0001,4e-05,-3e-05,-6e-05,0,-0.00012,-1e-05,-2e-05,3,16
9802,0.0001,4e-05,-3e-05,-6e-05,0,-0.00012,-1e-05,-2e-05,3,16
9803,0.0001,4e-05,-3e-05,-6e-05,0,-0.00012,-1e-05,-2e-05,3,16
9804,0.0001,4e-05,-3e-05,-6e-05,0,-0.00012,-1e-05,-2e-05,3,16
9805,0.0001,4e-05,-3e-05,-6e-05,0,-0.00012,-1e-05,-2e-05,3,16
9806,0.0001,4e-05,-3e-05,-6e-05,0,-0.00012,-1e-05,-2e-05,3,16
9807,0.0001,4e-05,-3e-05,-6e-05,0,-0.00012,-1e-05,-2e-05,3,16
9808,0.0001,4e-05,-3e-05,-6e-05,0,-0.00012,-1e-05,-2e-05,3,16
9809,0.0001,4e-05,-3e-05,-6e-05,0,-0.00012,-1e-05,-2e-05,3,16
9810,0.0001,4e-05,-3e-05,-6e-05,0,-0.00012,-1e-05,-2e-05,3,16
9811,0.0001,4e-05,-3e-05,-6e-05,0,-0.00012,-1e-05,-2e-05,3,16
9812,0.0001,4e-05,-3e-05,-6e-05,0,-0.00012,-1e-05,-2e-05,3,16
9813,0.0001,4e-05,-3e-05,-6e-05,0,-0.00012,-1e-05,-2e-05,3,16
9814,0.0001,4e-05,-3e-05,-6e-05,0,-0.00012,-1e-05,-2e-05,3,16
9815,0.0001,4e-05,-3e-05,-6e-05,0,-0.00012,-1e-05,-2e-05,3,16
9816,0.0001,4e-05,-3e-05,-6e-05,0,-0.00012,-1e-05,-2e-05,3,16
9817,0.0001,4e-05,-3e-05,-6e-05,0,-0.00012,-1e-05,-2e-05,3,16
9818,0.0001,4e-05,-3e-05,-6e-05,0,-0.00012,-1e-05,-2e-05,3,16
9819,-0.00012,-0.00017,-6e-05,-3e-05,0.00011,6e-05,7e-05,0.00019,3,16
9820,-0.00012,-0.00017,-6e-05,-3e-05,0.00011,6e-05,7e-05,0.00019,3,16
9822,-0.00012,-0.00017,-6e-05,-3e-05,0.00011,6e-05,7e-05,0.00019,3,16
9823,-0.00012,-0.00017,-6e-05,-3e-05,0.00011,6e-05,7e-05,0.00019,3,16
9824,-0.00012,-0.00017,-6e-05,-3e-05,0.00011,6e-05,7e-05,0.00019,3,16
9825,-0.00012,-0.00017,-6e-05,-3e-05,0.00011,6e-05,7e-05,0.00019,3,16
9826,-0.00012,-0.00017,-6e-05,-3e-05,0.00011,6e-05,7e-05,0.00019,3,16
9827,-0.00012,-0.00017,-6e-05,-3e-05,0.00011,6e-05,7e-05,0.00019,3,16
9828,-0.00012,-0.00017,-6e-05,-3e-05,0.00011,6e-05,7e-05,0.00019,3,16
9829,-0.00012,-0.00017,-6e-05,-3e-05,0.00011,6e-05,7e-05,0.00019,3,16
9830,-0.00012,-0.00017,-6e-05,-3e-05,0.00011,6e-05,7e-05,0.00019,3,16
9831,-0.00012,-0.00017,-6e-05,-3e-05,0.00011,6e-05,7e-05,0.00019,3,16
9832,-0.00012,-0.00017,-6e-05,-3e-05,0.00011,6e-05,7e-05,0.00019,3,16
9833,-0.00012,-0.00017,-6e-05,-3e-05,0.00011,6e-05,7e-05,0.00019,3,16
9834,-0.00012,-0.00017,-6e-05,-3e-05,0.00011,6e-05,7e-05,0.00019,3,16
9835,-0.00012,-0.00017,-6e-05,-3e-05,0.00011,6e-05,7e-05,0.00019,3,16
9836,-0.00012,-0.00017,-6e-05,-3e-05,0.00011,6e-05,7e-05,0.00019,3,16
9838,-0.00012,-0.00017,-6e-05,-3e-05,0.00011,6e-05,7e-05,0.00019,3,16
9839,-0.00012,-0.00017,-6e-05,-3e-05,0.00011,6e-05,7e-05,0.00019,3,16
9840,-0.00012,-0.00017,-6e-05,-3e-05,0.00011,6e-05,7e-05,0.00019,3,16
9841,-0.00012,-0.00017,-6e-05,-3e-05,0.00011,6e-05,7e-05,0.00019,3,16
9842,3e-05,9e-05,0,-4e-05,-0.00011,-4e-05,3e-05,0,3,16
9843,1e-05,-3e-05,-5e-05,-5e-05,-0.0001,-0.00014,4e-05,7e-05,3,16
9844,1e-05,-3e-05,-5e-05,-5e-05,-0.0001,-0.00014,4e-05,7e-05,3,16
9845,1e-05,-3e-05,-5e-05,-5e-05,-0.0001,-0.00014,4e-05,7e-05,3,16
9846,1e-05,-3e-05,-5e-05,-5e-05,-0.0001,-0.00014,4e-05,7e-05,3,16
9847,1e-05,-3e-05,-5e-05,-5e-05,-0.0001,-0.00014,4e-05,7e-05,3,16
9848,1e-05,-3e-05,-5e-05,-5e-05,-0.0001,-0.00014,4e-05,7e-05,3,16
9849,1e-05,-3e-05,-5e-05,-5e-05,-0.0001,-0.00014,4e-05,7e-05,3,16
9850,1e-05,-3e-05,-5e-05,-5e-05,-0.0001,-0.00014,4e-05,7e-05,3,16
9851,1e-05,-3e-05,-5e-05,-5e-05,-0.0001,-0.00014,4e-05,7e-05,3,16
9852,1e-05,-3e-05,-5e-05,-5e-05,-0.0001,-0.00014,4e-05,7e-05,3,16
9853,1e-05,-3e-05,-5e-05,-5e-05,-0.0001,-0.00014,4e-05,7e-05,3,16
9854,1e-05,-3e-05,-5e-05,-5e-05,-0.0001,-0.00014,4e-05,7e-05,3,16
9855,1e-05,-3e-05,-5e-05,-5e-05,-0.0001,-0.00014,4e-05,7e-05,3,16
9856,2e-05,-7e-05,-0.0001,-1e-05,6e-05,1e-05,5e-05,2e-05,3,16
9857,0.0001,0.00013,3e-05,5e-05,0.00012,0.00022,8e-05,0.0001,3,16
9858,0.0001,0.00013,3e-05,5e-05,0.00012,0.00022,8e-05,0.0001,3,16
9859,0.0001,0.00013,3e-05,5e-05,0.00012,0.00022,8e-05,0.0001,3,16
9860,0.0001,0.00013,3e-05,5e-05,0.00012,0.00022,8e-05,0.0001,3,16
9861,0.0001,0.00013,3e-05,5e-05,0.00012,0.00022,8e-05,0.0001,3,16
9862,0.0001,0.00013,3e-05,5e-05,0.00012,0.00022,8e-05,0.0001,3,16
9863,0.0001,0.00013,3e-05,5e-05,0.00012,0.00022,8e-05,0.0001,3,16
9864,0.0001,0.00013,3e-05,5e-05,0.00012,0.00022,8e-05,0.0001,3,16
9865,0.0001,0.00013,3e-05,5e-05,0.00012,0.00022,8e-05,0.0001,3,16
9866,0.0001,0.00013,3e-05,5e-05,0.00012,0.00022,8e-05,0.0001,3,16
9868,0.0001,0.00013,3e-05,5e-05,0.00012,0.00022,8e-05,0.0001,3,16
9869,0.0001,0.00013,3e-05,5e-05,0.00012,0.00022,8e-05,0.0001,3,16
9870,0.0001,0.00013,3e-05,5e-05,0.00012,0.00022,8e-05,0.0001,3,16
9871,0.0001,0.00013,3e-05,5e-05,0.00012,0.00022,8e-05,0.0001,3,16
9872,0.0001,0.00013,3e-05,5e-05,0.00012,0.00022,8e-05,0.0001,3,16
9873,0.0001,0.00013,3e-05,5e-05,0.00012,0.00022,8e-05,0.0001,3,16
9874,0.0001,0.00013,3e-05,5e-05,0.00012,0.00022,8e-05,0.0001,3,16
9875,0.0001,0.00013,3e-05,5e-05,0.00012,0.00022,8e-05,0.0001,3,16
9876,0.0001,0.00013,3e-05,5e-05,0.00012,0.00022,8e-05,0.0001,3,16
9877,0.0001,0.00013,3e-05,5e-05,0.00012,0.00022,8e-05,0.0001,3,16
9878,0.0001,0.00013,3e-05,5e-05,0.00012,0.00022,8e-05,0.0001,3,16
9879,0.00015,4e-05,-5e-05,-6e-05,-6e-05,-7e-05,2e-05,0,3,16
9880,-0.00027,-4e-05,2e-05,3e-05,3e-05,-5e-05,0,-0.00022,3,16
9881,-0.00027,-4e-05,2e-05,3e-05,3e-05,-5e-05,0,-0.00022,3,16
9882,-0.00027,-4e-05,2e-05,3e-05,3e-05,-5e-05,0,-0.00022,3,16
9883,-0.00027,-4e-05,2e-05,3e-05,3e-05,-5e-05,0,-0.00022,3,16
9884,-0.00027,-4e-05,2e-05,3e-05,3e-05,-5e-05,0,-0.00022,3,16
9885,-0.00027,-4e-05,2e-05,3e-05,3e-05,-5e-05,0,-0.00022,3,16
9886,-0.00027,-4e-05,2e-05,3e-05,3e-05,-5e-05,0,-0.00022,3,16
9888,-0.00027,-4e-05,2e-05,3e-05,3e-05,-5e-05,0,-0.00022,3,16
9889,-0.00027,-4e-05,2e-05,3e-05,3e-05,-5e-05,0,-0.00022,3,16
9890,-0.00027,-4e-05,2e-05,3e-05,3e-05,-5e-05,0,-0.00022,3,16
9891,-0.00027,-4e-05,2e-05,3e-05,3e-05,-5e-05,0,-0.00022,3,16
9892,-0.00027,-4e-05,2e-05,3e-05,3e-05,-5e-05,0,-0.00022,3,16
9893,-0.00027,-4e-05,2e-05,3e-05,3e-05,-5e-05,0,-0.00022,3,16
9894,-0.00027,-4e-05,2e-05,3e-05,3e-05,-5e-05,0,-0.00022,3,16
9895,-0.00027,-4e-05,2e-05,3e-05,3e-05,-5e-05,0,-0.00022,3,16
9896,-0.00027,-4e-05,2e-05,3e-05,3e-05,-5e-05,0,-0.00022,3,16
9897,-0.00027,-4e-05,2e-05,3e-05,3e-05,-5e-05,0,-0.00022,3,16
9898,-0.00027,-4e-05,2e-05,3e-05,3e-05,-5e-05,0,-0.00022,3,16
9899,-0.00027,-4e-05,2e-05,3e-05,3e-05,-5e-05,0,-0.00022,3,16
9900,-0.00027,-4e-05,2e-05,3e-05,3e-05,-5e-05,0,-0.00022,3,16
9901,-0.00027,-4e-05,2e-05,3e-05,3e-05,-5e-05,0,-0.00022,3,16
9902,-3e-05,2e-05,1e-05,-3e-05,-7e-05,-1e-05,7e-05,0,3,16
9903,1e-05,5e-05,-1e-05,-1e-05,1e-05,-0.00013,-0.00018,-0.0001,3,16
9904,1e-05,5e-05,-1e-05,-1e-05,1e-05,-0.00013,-0.00018,-0.0001,3,16
9905,1e-05,5e-05,-1e-05,-1e-05,1e-05,-0.00013,-0.00018,-0.0001,3,16
9906,1e-05,5e-05,-1e-05,-1e-05,1e-05,-0.00013,-0.00018,-0.0001,3,16
9907,1e-05,5e-05,-1e-05,-1e-05,1e-05,-0.00013,-0.00018,-0.0001,3,16
9908,1e-05,5e-05,-1e-05,-1e-05,1e-05,-0.00013,-0.00018,-0.0001,3,16
9909,1e-05,5e-05,-1e-05,-1e-05,1e-05,-0.00013,-0.00018,-0.0001,3,16
9910,1e-05,5e-05,-1e-05,-1e-05,1e-05,-0.00013,-0.00018,-0.0001,3,16
9911,1e-05,5e-05,-1e-05,-1e-05,1e-05,-0.00013,-0.00018,-0.0001,3,16
9912,1e-05,5e-05,-1e-05,-1e-05,1e-05,-0.00013,-0.00018,-0.0001,3,16
9913,1e-05,5e-05,-1e-05,-1e-05,1e-05,-0.00013,-0.00018,-0.0001,3,16
9914,1e-05,5e-05,-1e-05,-1e-05,1e-05,-0.00013,-0.00018,-0.0001,3,16
9915,1e-05,5e-05,-1e-05,-1e-05,1e-05,-0.00013,-0.00018,-0.0001,3,16
9916,1e-05,5e-05,-1e-05,-1e-05,1e-05,-0.00013,-0.00018,-0.0001,3,16
9917,0.0001,-2e-05,-3e-05,4e-05,6e-05,0,-8e-05,-9e-05,3,16
9918,0.0001,-2e-05,-3e-05,4e-05,6e-05,0,-8e-05,-9e-05,3,16
9919,0.0001,-2e-05,-3e-05,4e-05,6e-05,0,-8e-05,-9e-05,3,16
9920,0.0001,-2e-05,-3e-05,4e-05,6e-05,0,-8e-05,-9e-05,3,16
9921,0.0001,-2e-05,-3e-05,4e-05,6e-05,0,-8e-05,-9e-05,3,16
9922,0.0001,-2e-05,-3e-05,4e-05,6e-05,0,-8e-05,-9e-05,3,16
9923,0.0001,-2e-05,-3e-05,4e-05,6e-05,0,-8e-05,-9e-05,3,16
9924,0.0001,-2e-05,-3e-05,4e-05,6e-05,0,-8e-05,-9e-05,3,16
9925,0.0001,-2e-05,-3e-05,4e-05,6e-05,0,-8e-05,-9e-05,3,16
9926,0.0001,-2e-05,-3e-05,4e-05,6e-05,0,-8e-05,-9e-05,3,16
9927,0.0001,-2e-05,-3e-05,4e-05,6e-05,0,-8e-05,-9e-05,3,16
9928,0.0001,-2e-05,-3e-05,4e-05,6e-05,0,-8e-05,-9e-05,3,16
9929,0.0001,-2e-05,-3e-05,4e-05,6e-05,0,-8e-05,-9e-05,3,16
9930,0.0001,-2e-05,-3e-05,4e-05,6e-05,0,-8e-05,-9e-05,3,16
9931,0.0001,-2e-05,-3e-05,4e-05,6e-05,0,-8e-05,-9e-05,3,16
9932,0.0001,-2e-05,-3e-05,4e-05,6e-05,0,-8e-05,-9e-05,3,16
9933,0.0001,-2e-05,-3e-05,4e-05,6e-05,0,-8e-05,-9e-05,3,16
9934,0.0001,-2e-05,-3e-05,4e-05,6e-05,0,-8e-05,-9e-05,3,16
9935,0.0001,-2e-05,-3e-05,4e-05,6e-05,0,-8e-05,-9e-05,3,16
9936,0.0001,-2e-05,-3e-05,4e-05,6e-05,0,-8e-05,-9e-05,3,16
9938,0.0001,-2e-05,-3e-05,4e-05,6e-05,0,-8e-05,-9e-05,3,16
9939,0.00015,0.00011,-1e-05,-2e-05,-9e-05,-5e-05,0.00014,0.00025,3,16
9940,0.00015,0.00011,-1e-05,-2e-05,-9e-05,-5e-05,0.00014,0.00025,3,16
9941,0.00015,0.00011,-1e-05,-2e-05,-9e-05,-5e-05,0.00014,0.00025,3,16
9942,0.00015,0.00011,-1e-05,-2e-05,-9e-05,-5e-05,0.00014,0.00025,3,16
9943,0.00015,0.00011,-1e-05,-2e-05,-9e-05,-5e-05,0.00014,0.00025,3,16
9944,0.00015,0.00011,-1e-05,-2e-05,-9e-05,-5e-05,0.00014,0.00025,3,16
9945,0.00015,0.00011,-1e-05,-2e-05,-9e-05,-5e-05,0.00014,0.00025,3,16
9946,-5e-05,-5e-05,-2e-05,-1e-05,-9e-05,6e-05,0.00016,6e-05,3,16
9947,-5e-05,-5e-05,-2e-05,-1e-05,-9e-05,6e-05,0.00016,6e-05,3,16
9948,-5e-05,-5e-05,-2e-05,-1e-05,-9e-05,6e-05,0.00016,6e-05,3,16
9949,-5e-05,-5e-05,-2e-05,-1e-05,-9e-05,6e-05,0.00016,6e-05,3,16
9950,-5e-05,-5e-05,-2e-05,-1e-05,-9e-05,6e-05,0.00016,6e-05,3,16
9951,-5e-05,-5e-05,-2e-05,-1e-05,-9e-05,6e-05,0.00016,6e-05,3,16
9952,-5e-05,-5e-05,-2e-05,-1e-05,-9e-05,6e-05,0.00016,6e-05,3,16
9953,-5e-05,-5e-05,-2e-05,-1e-05,-9e-05,6e-05,0.00016,6e-05,3,16
9954,-5e-05,-5e-05,-2e-05,-1e-05,-9e-05,6e-05,0.00016,6e-05,3,16
9955,-5e-05,-5e-05,-2e-05,-1e-05,-9e-05,6e-05,0.00016,6e-05,3,16
9956,-5e-05,-5e-05,-2e-05,-1e-05,-9e-05,6e-05,0.00016,6e-05,3,16
9957,-5e-05,-5e-05,-2e-05,-1e-05,-9e-05,6e-05,0.00016,6e-05,3,16
9958,-5e-05,-5e-05,-2e-05,-1e-05,-9e-05,6e-05,0.00016,6e-05,3,16
9959,-5e-05,-5e-05,-2e-05,-1e-05,-9e-05,6e-05,0.00016,6e-05,3,16
9960,-5e-05,-5e-05,-2e-05,-1e-05,-9e-05,6e-05,0.00016,6e-05,3,16
9961,-5e-05,-5e-05,-2e-05,-1e-05,-9e-05,6e-05,0.00016,6e-05,3,16
9962,1e-05,-5e-05,-7e-05,-1e-05,0.00015,-5e-05,-0.00033,-4e-05,3,16
9963,6e-05,-0.00012,-0.00015,-0.0001,-5e-05,-8e-05,-6e-05,-6e-05,3,16
9964,6e-05,-0.00012,-0.00015,-0.0001,-5e-05,-8e-05,-6e-05,-6e-05,3,16
9965,6e-05,-0.00012,-0.00015,-0.0001,-5e-05,-8e-05,-6e-05,-6e-05,3,16
9966,6e-05,-0.00012,-0.00015,-0.0001,-5e-05,-8e-05,-6e-05,-6e-05,3,16
9967,6e-05,-0.00012,-0.00015,-0.0001,-5e-05,-8e-05,-6e-05,-6e-05,3,16
9968,6e-05,-0.00012,-0.00015,-0.0001,-5e-05,-8e-05,-6e-05,-6e-05,3,16
9969,6e-05,-0.00012,-0.00015,-0.0001,-5e-05,-8e-05,-6e-05,-6e-05,3,16
9970,6e-05,-0.00012,-0.00015,-0.0001,-5e-05,-8e-05,-6e-05,-6e-05,3,16
9971,6e-05,-0.00012,-0.00015,-0.0001,-5e-05,-8e-05,-6e-05,-6e-05,3,16
9972,6e-05,-0.00012,-0.00015,-0.0001,-5e-05,-8e-05,-6e-05,-6e-05,3,16
9973,6e-05,-0.00012,-0.00015,-0.0001,-5e-05,-8e-05,-6e-05,-6e-05,3,16
9974,6e-05,-0.00012,-0.00015,-0.0001,-5e-05,-8e-05,-6e-05,-6e-05,3,16
9975,6e-05,-0.00012,-0.00015,-0.0001,-5e-05,-8e-05,-6e-05,-6e-05,3,16
9976,9e-05,0,-4e-05,1e-05,9e-05,0.00017,0.00021,0.00029,3,16
9977,-2e-05,8e-05,8e-05,8e-05,9e-05,1e-05,-6e-05,-1e-05,3,16
9978,-2e-05,8e-05,8e-05,8e-05,9e-05,1e-05,-6e-05,-1e-05,3,16
9979,-2e-05,8e-05,8e-05,8e-05,9e-05,1e-05,-6e-05,-1e-05,3,16
9980,-2e-05,8e-05,8e-05,8e-05,9e-05,1e-05,-6e-05,-1e-05,3,16
9981,-2e-05,8e-05,8e-05,8e-05,9e-05,1e-05,-6e-05,-1e-05,3,16
9982,-2e-05,8e-05,8e-05,8e-05,9e-05,1e-05,-6e-05,-1e-05,3,16
9983,-2e-05,8e-05,8e-05,8e-05,9e-05,1e-05,-6e-05,-1e-05,3,16
9984,-2e-05,8e-05,8e-05,8e-05,9e-05,1e-05,-6e-05,-1e-05,3,16
9985,-2e-05,8e-05,8e-05,8e-05,9e-05,1e-05,-6e-05,-1e-05,3,16
9986,-2e-05,8e-05,8e-05,8e-05,9e-05,1e-05,-6e-05,-1e-05,3,16
9988,-2e-05,8e-05,8e-05,8e-05,9e-05,1e-05,-6e-05,-1e-05,3,16
9989,-2e-05,8e-05,8e-05,8e-05,9e-05,1e-05,-6e-05,-1e-05,3,16
9990,-2e-05,8e-05,8e-05,8e-05,9e-05,1e-05,-6e-05,-1e-05,3,16
9991,-2e-05,8e-05,8e-05,8e-05,9e-05,1e-05,-6e-05,-1e-05,3,16
9992,-2e-05,8e-05,8e-05,8e-05,9e-05,1e-05,-6e-05,-1e-05,3,16
9993,-2e-05,8e-05,8e-05,8e-05,9e-05,1e-05,-6e-05,-1e-05,3,16
9994,-2e-05,8e-05,8e-05,8e-05,9e-05,1e-05,-6e-05,-1e-05,3,16
9995,-2e-05,8e-05,8e-05,8e-05,9e-05,1e-05,-6e-05,-1e-05,3,16
9996,-2e-05,8e-05,8e-05,8e-05,9e-05,1e-05,-6e-05,-1e-05,3,16
9997,-2e-05,8e-05,8e-05,8e-05,9e-05,1e-05,-6e-05,-1e-05,3,16
9998,-2e-05,8e-05,8e-05,8e-05,9e-05,1e-05,-6e-05,-1e-05,3,16
9999,3e-05,-3e-05,3e-05,0,-6e-05,8e-05,-0.00014,-5e-05,3,16
10000,3e-05,3e-05,-4e-05,-6e-05,-9e-05,-2e-05,6e-05,-7e-05,3,16
10001,3e-05,3e-05,-4e-05,-6e-05,-9e-05,-2e-05,6e-05,-7e-05,3,16
10002,3e-05,3e-05,-4e-05,-6e-05,-9e-05,-2e-05,6e-05,-7e-05,3,16
10003,3e-05,3e-05,-4e-05,-6e-05,-9e-05,-2e-05,6e-05,-7e-05,3,16
10004,3e-05,3e-05,-4e-05,-6e-05,-9e-05,-2e-05,6e-05,-7e-05,3,16
10005,3e-05,3e-05,-4e-05,-6e-05,-9e-05,-2e-05,6e-05,-7e-05,3,16
10006,3e-05,3e-05,-4e-05,-6e-05,-9e-05,-2e-05,6e-05,-7e-05,3,16
10007,3e-05,3e-05,-4e-05,-6e-05,-9e-05,-2e-05,6e-05,-7e-05,3,16
10008,3e-05,3e-05,-4e-05,-6e-05,-9e-05,-2e-05,6e-05,-7e-05,3,16
10009,3e-05,3e-05,-4e-05,-6e-05,-9e-05,-2e-05,6e-05,-7e-05,3,16
10010,3e-05,3e-05,-4e-05,-6e-05,-9e-05,-2e-05,6e-05,-7e-05,3,16
10011,3e-05,3e-05,-4e-05,-6e-05,-9e-05,-2e-05,6e-05,-7e-05,3,16
10012,3e-05,3e-05,-4e-05,-6e-05,-9e-05,-2e-05,6e-05,-7e-05,3,16
10013,3e-05,3e-05,-4e-05,-6e-05,-9e-05,-2e-05,6e-05,-7e-05,3,16
10014,3e-05,3e-05,-4e-05,-6e-05,-9e-05,-2e-05,6e-05,-7e-05,3,16
10015,3e-05,3e-05,-4e-05,-6e-05,-9e-05,-2e-05,6e-05,-7e-05,3,16
10016,3e-05,3e-05,-4e-05,-6e-05,-9e-05,-2e-05,6e-05,-7e-05,3,16
10017,3e-05,3e-05,-4e-05,-6e-05,-9e-05,-2e-05,6e-05,-7e-05,3,16
10018,3e-05,3e-05,-4e-05,-6e-05,-9e-05,-2e-05,6e-05,-7e-05,3,16
10019,3e-05,3e-05,-4e-05,-6e-05,-9e-05,-2e-05,6e-05,-7e-05,3,16
10020,3e-05,3e-05,-4e-05,-6e-05,-9e-05,-2e-05,6e-05,-7e-05,3,16
10021,3e-05,3e-05,-4e-05,-6e-05,-9e-05,-2e-05,6e-05,-7e-05,3,16
10022,-7e-05,4e-05,2e-05,5e-05,0.00012,-3e-05,0.00015,0.00011,3,16
10023,0,-4e-05,-4e-05,-0.00013,-0.00022,-0.00021,-0.00013,-6e-05,3,16
10024,0,-4e-05,-4e-05,-0.00013,-0.00022,-0.00021,-0.00013,-6e-05,3,16
10025,0,-4e-05,-4e-05,-0.00013,-0.00022,-0.00021,-0.00013,-6e-05,3,16
10026,0,-4e-05,-4e-05,-0.00013,-0.00022,-0.00021,-0.00013,-6e-05,3,16
10027,0,-4e-05,-4e-05,-0.00013,-0.00022,-0.00021,-0.00013,-6e-05,3,16
10028,0,-4e-05,-4e-05,-0.00013,-0.00022,-0.00021,-0.00013,-6e-05,3,16
10029,0,-4e-05,-4e-05,-0.00013,-0.00022,-0.00021,-0.00013,-6e-05,3,16
10030,0,-4e-05,-4e-05,-0.00013,-0.00022,-0.00021,-0.00013,-6e-05,3,16
10031,0,-4e-05,-4e-05,-0.00013,-0.00022,-0.00021,-0.00013,-6e-05,3,16
10033,0,-4e-05,-4e-05,-0.00013,-0.00022,-0.00021,-0.00013,-6e-05,3,16
10034,0,-4e-05,-4e-05,-0.00013,-0.00022,-0.00021,-0.00013,-6e-05,3,16
10035,0,-4e-05,-4e-05,-0.00013,-0.00022,-0.00021,-0.00013,-6e-05,3,16
10042,-6e-05,-4e-05,2e-05,1e-05,2e-05,5e-05,8e-05,-0.00014,3,16
10043,-6e-05,-4e-05,2e-05,1e-05,2e-05,5e-05,8e-05,-0.00014,3,16
10044,-9e-05,-4e-05,-3e-05,-5e-05,-5e-05,-0.00013,0.00029,-7e-05,3,16
10045,1e-05,5e-05,3e-05,6e-05,9e-05,0.00027,0.00011,0,3,16
10046,1e-05,5e-05,3e-05,6e-05,9e-05,0.00027,0.00011,0,3,16
10047,1e-05,5e-05,3e-05,6e-05,9e-05,0.00027,0.00011,0,3,16
10048,1e-05,5e-05,3e-05,6e-05,9e-05,0.00027,0.00011,0,3,16
10049,1e-05,5e-05,3e-05,6e-05,9e-05,0.00027,0.00011,0,3,16
10050,1e-05,5e-05,3e-05,6e-05,9e-05,0.00027,0.00011,0,3,16
10051,1e-05,5e-05,3e-05,6e-05,9e-05,0.00027,0.00011,0,3,16
10052,1e-05,5e-05,3e-05,6e-05,9e-05,0.00027,0.00011,0,3,16
10053,1e-05,5e-05,3e-05,6e-05,9e-05,0.00027,0.00011,0,3,16
10054,1e-05,5e-05,3e-05,6e-05,9e-05,0.00027,0.00011,0,3,16
10055,1e-05,5e-05,3e-05,6e-05,9e-05,0.00027,0.00011,0,3,16
10056,1e-05,5e-05,3e-05,6e-05,9e-05,0.00027,0.00011,0,3,16
10057,1e-05,5e-05,3e-05,6e-05,9e-05,0.00027,0.00011,0,3,16
10058,1e-05,5e-05,3e-05,6e-05,9e-05,0.00027,0.00011,0,3,16
10059,1e-05,5e-05,3e-05,6e-05,9e-05,0.00027,0.00011,0,3,16
10060,-0.00027,-8e-05,0,-3e-05,-3e-05,-0.00016,-0.00014,-0.00025,3,16
10061,-0.00027,-8e-05,0,-3e-05,-3e-05,-0.00016,-0.00014,-0.00025,3,16
10062,-0.00027,-8e-05,0,-3e-05,-3e-05,-0.00016,-0.00014,-0.00025,3,16
10063,-0.00027,-8e-05,0,-3e-05,-3e-05,-0.00016,-0.00014,-0.00025,3,16
10064,-0.00027,-8e-05,0,-3e-05,-3e-05,-0.00016,-0.00014,-0.00025,3,16
10065,-0.00027,-8e-05,0,-3e-05,-3e-05,-0.00016,-0.00014,-0.00025,3,16
10066,-0.00027,-8e-05,0,-3e-05,-3e-05,-0.00016,-0.00014,-0.00025,3,16
10067,-0.00027,-8e-05,0,-3e-05,-3e-05,-0.00016,-0.00014,-0.00025,3,16
10068,-0.00027,-8e-05,0,-3e-05,-3e-05,-0.00016,-0.00014,-0.00025,3,16
10069,-0.00027,-8e-05,0,-3e-05,-3e-05,-0.00016,-0.00014,-0.00025,3,16
10070,-0.00027,-8e-05,0,-3e-05,-3e-05,-0.00016,-0.00014,-0.00025,3,16
10071,-0.00027,-8e-05,0,-3e-05,-3e-05,-0.00016,-0.00014,-0.00025,3,16
10072,-0.00027,-8e-05,0,-3e-05,-3e-05,-0.00016,-0.00014,-0.00025,3,16
10073,-0.00027,-8e-05,0,-3e-05,-3e-05,-0.00016,-0.00014,-0.00025,3,16
10074,-0.00027,-8e-05,0,-3e-05,-3e-05,-0.00016,-0.00014,-0.00025,3,16
10075,-0.00027,-8e-05,0,-3e-05,-3e-05,-0.00016,-0.00014,-0.00025,3,16
10076,-0.00027,-8e-05,0,-3e-05,-3e-05,-0.00016,-0.00014,-0.00025,3,16
10077,-0.00027,-8e-05,0,-3e-05,-3e-05,-0.00016,-0.00014,-0.00025,3,16
10078,-0.00027,-8e-05,0,-3e-05,-3e-05,-0.00016,-0.00014,-0.00025,3,16
10079,-0.00027,-8e-05,0,-3e-05,-3e-05,-0.00016,-0.00014,-0.00025,3,16
10080,-0.00027,-8e-05,0,-3e-05,-3e-05,-0.00016,-0.00014,-0.00025,3,16
10081,-0.00027,-8e-05,0,-3e-05,-3e-05,-0.00016,-0.00014,-0.00025,3,16
10082,-3e-05,-3e-05,-1e-05,1e-05,-1e-05,-3e-05,-0.00013,4e-05,3,16
10083,-9e-05,-2e-05,6e-05,1e-05,-6e-05,1e-05,6e-05,-4e-05,3,16
10084,-9e-05,-2e-05,6e-05,1e-05,-6e-05,1e-05,6e-05,-4e-05,3,16
10085,-9e-05,-2e-05,6e-05,1e-05,-6e-05,1e-05,6e-05,-4e-05,3,16
10086,-9e-05,-2e-05,6e-05,1e-05,-6e-05,1e-05,6e-05,-4e-05,3,16
10088,-9e-05,-2e-05,6e-05,1e-05,-6e-05,1e-05,6e-05,-4e-05,3,16
10089,-9e-05,-2e-05,6e-05,1e-05,-6e-05,1e-05,6e-05,-4e-05,3,16
10090,-9e-05,-2e-05,6e-05,1e-05,-6e-05,1e-05,6e-05,-4e-05,3,16
10091,-9e-05,-2e-05,6e-05,1e-05,-6e-05,1e-05,6e-05,-4e-05,3,16
10092,-9e-05,-2e-05,6e-05,1e-05,-6e-05,1e-05,6e-05,-4e-05,3,16
10093,-9e-05,-2e-05,6e-05,1e-05,-6e-05,1e-05,6e-05,-4e-05,3,16
10094,-9e-05,-2e-05,6e-05,1e-05,-6e-05,1e-05,6e-05,-4e-05,3,16
10095,-9e-05,-2e-05,6e-05,1e-05,-6e-05,1e-05,6e-05,-4e-05,3,16
10096,1e-05,-7e-05,-6e-05,-4e-05,-8e-05,-0.00018,-4e-05,7e-05,3,16
10097,0.00012,3e-05,4e-05,4e-05,-3e-05,3e-05,9e-05,0.00013,3,16
10098,0.00012,3e-05,4e-05,4e-05,-3e-05,3e-05,9e-05,0.00013,3,16
10099,0.00012,3e-05,4e-05,4e-05,-3e-05,3e-05,9e-05,0.00013,3,16
10100,0.00012,3e-05,4e-05,4e-05,-3e-05,3e-05,9e-05,0.00013,3,16
10101,0.00012,3e-05,4e-05,4e-05,-3e-05,3e-05,9e-05,0.00013,3,16
10102,0.00012,3e-05,4e-05,4e-05,-3e-05,3e-05,9e-05,0.00013,3,16
10103,0.00012,3e-05,4e-05,4e-05,-3e-05,3e-05,9e-05,0.00013,3,16
10105,0.00012,3e-05,4e-05,4e-05,-3e-05,3e-05,9e-05,0.00013,3,16
10106,0.00012,3e-05,4e-05,4e-05,-3e-05,3e-05,9e-05,0.00013,3,16
10107,0.00012,3e-05,4e-05,4e-05,-3e-05,3e-05,9e-05,0.00013,3,16
10108,0.00012,3e-05,4e-05,4e-05,-3e-05,3e-05,9e-05,0.00013,3,16
10109,0.00012,3e-05,4e-05,4e-05,-3e-05,3e-05,9e-05,0.00013,3,16
10110,0.00012,3e-05,4e-05,4e-05,-3e-05,3e-05,9e-05,0.00013,3,16
10111,0.00012,3e-05,4e-05,4e-05,-3e-05,3e-05,9e-05,0.00013,3,16
10112,0.00012,3e-05,4e-05,4e-05,-3e-05,3e-05,9e-05,0.00013,3,16
10113,0.00012,3e-05,4e-05,4e-05,-3e-05,3e-05,9e-05,0.00013,3,16
10114,0.00012,3e-05,4e-05,4e-05,-3e-05,3e-05,9e-05,0.00013,3,16
10115,0.00012,3e-05,4e-05,4e-05,-3e-05,3e-05,9e-05,0.00013,3,16
10116,0.00012,3e-05,4e-05,4e-05,-3e-05,3e-05,9e-05,0.00013,3,16
10117,0.00012,3e-05,4e-05,4e-05,-3e-05,3e-05,9e-05,0.00013,3,16
10118,0.00012,3e-05,4e-05,4e-05,-3e-05,3e-05,9e-05,0.00013,3,16
10119,0.00012,3e-05,4e-05,4e-05,-3e-05,3e-05,9e-05,0.00013,3,16
10120,0.0001,0.0001,3e-05,3e-05,-0.00018,-7e-05,-2e-05,5e-05,3,16
10121,-9e-05,-0.00016,5e-05,0.00011,0.00015,0.00013,0.00025,0.00014,3,16
10122,-9e-05,-0.00016,5e-05,0.00011,0.00015,0.00013,0.00025,0.00014,3,16
10123,-9e-05,-0.00016,5e-05,0.00011,0.00015,0.00013,0.00025,0.00014,3,16
10124,-9e-05,-0.00016,5e-05,0.00011,0.00015,0.00013,0.00025,0.00014,3,16
10125,-9e-05,-0.00016,5e-05,0.00011,0.00015,0.00013,0.00025,0.00014,3,16
10126,-9e-05,-0.00016,5e-05,0.00011,0.00015,0.00013,0.00025,0.00014,3,16
10127,-9e-05,-0.00016,5e-05,0.00011,0.00015,0.00013,0.00025,0.00014,3,16
10128,-9e-05,-0.00016,5e-05,0.00011,0.00015,0.00013,0.00025,0.00014,3,16
10129,-9e-05,-0.00016,5e-05,0.00011,0.00015,0.00013,0.00025,0.00014,3,16
10130,-9e-05,-0.00016,5e-05,0.00011,0.00015,0.00013,0.00025,0.00014,3,16
10131,-9e-05,-0.00016,5e-05,0.00011,0.00015,0.00013,0.00025,0.00014,3,16
10132,-9e-05,-0.00016,5e-05,0.00011,0.00015,0.00013,0.00025,0.00014,3,16
10133,-9e-05,-0.00016,5e-05,0.00011,0.00015,0.00013,0.00025,0.00014,3,16
10134,-9e-05,-0.00016,5e-05,0.00011,0.00015,0.00013,0.00025,0.00014,3,16
10135,-9e-05,-0.00016,5e-05,0.00011,0.00015,0.00013,0.00025,0.00014,3,16
10136,-9e-05,-0.00016,5e-05,0.00011,0.00015,0.00013,0.00025,0.00014,3,16
10138,-9e-05,-0.00016,5e-05,0.00011,0.00015,0.00013,0.00025,0.00014,3,16
10139,-9e-05,-0.00016,5e-05,0.00011,0.00015,0.00013,0.00025,0.00014,3,16
10140,-9e-05,-0.00016,5e-05,0.00011,0.00015,0.00013,0.00025,0.00014,3,16
10141,-9e-05,-0.00016,5e-05,0.00011,0.00015,0.00013,0.00025,0.00014,3,16
10142,-9e-05,-0.00016,5e-05,0.00011,0.00015,0.00013,0.00025,0.00014,3,16
10143,-9e-05,-0.00016,5e-05,0.00011,0.00015,0.00013,0.00025,0.00014,3,16
10144,-9e-05,-0.00016,5e-05,0.00011,0.00015,0.00013,0.00025,0.00014,3,16
10145,-9e-05,-0.00016,5e-05,0.00011,0.00015,0.00013,0.00025,0.00014,3,16
10146,-9e-05,-0.00016,5e-05,0.00011,0.00015,0.00013,0.00025,0.00014,3,16
10147,-9e-05,-0.00016,5e-05,0.00011,0.00015,0.00013,0.00025,0.00014,3,16
10148,-9e-05,-0.00016,5e-05,0.00011,0.00015,0.00013,0.00025,0.00014,3,16
10149,-9e-05,-0.00016,5e-05,0.00011,0.00015,0.00013,0.00025,0.00014,3,16
10150,-6e-05,8e-05,3e-05,3e-05,2e-05,1e-05,-0.0002,-0.0001,3,16
10151,-6e-05,8e-05,3e-05,3e-05,2e-05,1e-05,-0.0002,-0.0001,3,16
10152,-6e-05,8e-05,3e-05,3e-05,2e-05,1e-05,-0.0002,-0.0001,3,16
10153,-6e-05,8e-05,3e-05,3e-05,2e-05,1e-05,-0.0002,-0.0001,3,16
10154,-6e-05,8e-05,3e-05,3e-05,2e-05,1e-05,-0.0002,-0.0001,3,16
10155,-6e-05,8e-05,3e-05,3e-05,2e-05,1e-05,-0.0002,-0.0001,3,16
10156,0,-6e-05,0,-2e-05,1e-05,-1e-05,1e-05,6e-05,3,16
10157,0,-6e-05,-7e-05,-8e-05,-6e-05,-9e-05,7e-05,1e-05,3,16
10158,0,-6e-05,-7e-05,-8e-05,-6e-05,-9e-05,7e-05,1e-05,3,16
10159,0,-6e-05,-7e-05,-8e-05,-6e-05,-9e-05,7e-05,1e-05,3,16
10160,0,-6e-05,-7e-05,-8e-05,-6e-05,-9e-05,7e-05,1e-05,3,16
10161,0,-6e-05,-7e-05,-8e-05,-6e-05,-9e-05,7e-05,1e-05,3,16
10162,0,-6e-05,-7e-05,-8e-05,-6e-05,-9e-05,7e-05,1e-05,3,16
10163,0,-6e-05,-7e-05,-8e-05,-6e-05,-9e-05,7e-05,1e-05,3,16
10164,0,-6e-05,-7e-05,-8e-05,-6e-05,-9e-05,7e-05,1e-05,3,16
10165,0,-6e-05,-7e-05,-8e-05,-6e-05,-9e-05,7e-05,1e-05,3,16
10166,0,-6e-05,-7e-05,-8e-05,-6e-05,-9e-05,7e-05,1e-05,3,16
10167,0,-6e-05,-7e-05,-8e-05,-6e-05,-9e-05,7e-05,1e-05,3,16
10168,0,-6e-05,-7e-05,-8e-05,-6e-05,-9e-05,7e-05,1e-05,3,16
10169,0,-6e-05,-7e-05,-8e-05,-6e-05,-9e-05,7e-05,1e-05,3,16
10170,0,-6e-05,-7e-05,-8e-05,-6e-05,-9e-05,7e-05,1e-05,3,16
10171,0,-6e-05,-7e-05,-8e-05,-6e-05,-9e-05,7e-05,1e-05,3,16
10172,0,-6e-05,-7e-05,-8e-05,-6e-05,-9e-05,7e-05,1e-05,3,16
10173,0,-6e-05,-7e-05,-8e-05,-6e-05,-9e-05,7e-05,1e-05,3,16
10174,0,-6e-05,-7e-05,-8e-05,-6e-05,-9e-05,7e-05,1e-05,3,16
10175,0,-6e-05,-7e-05,-8e-05,-6e-05,-9e-05,7e-05,1e-05,3,16
10176,0,-6e-05,-7e-05,-8e-05,-6e-05,-9e-05,7e-05,1e-05,3,16
10177,0,-6e-05,-7e-05,-8e-05,-6e-05,-9e-05,7e-05,1e-05,3,16
10178,0,-6e-05,-7e-05,-8e-05,-6e-05,-9e-05,7e-05,1e-05,3,16
10179,0,-6e-05,-7e-05,-8e-05,-6e-05,-9e-05,7e-05,1e-05,3,16
10180,-6e-05,-0.00019,-0.00014,-5e-05,-6e-05,2e-05,-2e-05,-8e-05,3,16
10181,7e-05,9e-05,4e-05,-4e-05,-7e-05,4e-05,0.00012,9e-05,3,16
10182,7e-05,9e-05,4e-05,-4e-05,-7e-05,4e-05,0.00012,9e-05,3,16
10183,7e-05,9e-05,4e-05,-4e-05,-7e-05,4e-05,0.00012,9e-05,3,16
10184,7e-05,9e-05,4e-05,-4e-05,-7e-05,4e-05,0.00012,9e-05,3,16
10185,7e-05,9e-05,4e-05,-4e-05,-7e-05,4e-05,0.00012,9e-05,3,16
10186,7e-05,9e-05,4e-05,-4e-05,-7e-05,4e-05,0.00012,9e-05,3,16
10188,7e-05,9e-05,4e-05,-4e-05,-7e-05,4e-05,0.00012,9e-05,3,16
10189,7e-05,9e-05,4e-05,-4e-05,-7e-05,4e-05,0.00012,9e-05,3,16
10190,7e-05,9e-05,4e-05,-4e-05,-7e-05,4e-05,0.00012,9e-05,3,16
10191,7e-05,9e-05,4e-05,-4e-05,-7e-05,4e-05,0.00012,9e-05,3,16
10192,7e-05,9e-05,4e-05,-4e-05,-7e-05,4e-05,0.00012,9e-05,3,16
10193,7e-05,9e-05,4e-05,-4e-05,-7e-05,4e-05,0.00012,9e-05,3,16
10194,7e-05,9e-05,4e-05,-4e-05,-7e-05,4e-05,0.00012,9e-05,3,16
10195,7e-05,9e-05,4e-05,-4e-05,-7e-05,4e-05,0.00012,9e-05,3,16
10196,7e-05,9e-05,4e-05,-4e-05,-7e-05,4e-05,0.00012,9e-05,3,16
10197,7e-05,9e-05,4e-05,-4e-05,-7e-05,4e-05,0.00012,9e-05,3,16
10198,7e-05,9e-05,4e-05,-4e-05,-7e-05,4e-05,0.00012,9e-05,3,16
10199,7e-05,9e-05,4e-05,-4e-05,-7e-05,4e-05,0.00012,9e-05,3,16
10200,7e-05,9e-05,4e-05,-4e-05,-7e-05,4e-05,0.00012,9e-05,3,16
10201,7e-05,9e-05,4e-05,-4e-05,-7e-05,4e-05,0.00012,9e-05,3,16
10202,2e-05,0,-2e-05,-1e-05,-7e-05,4e-05,9e-05,4e-05,3,16
10203,-9e-05,-6e-05,-2e-05,-2e-05,-6e-05,-2e-05,-4e-05,-0.0001,3,16
10204,-9e-05,-6e-05,-2e-05,-2e-05,-6e-05,-2e-05,-4e-05,-0.0001,3,16
10205,-9e-05,-6e-05,-2e-05,-2e-05,-6e-05,-2e-05,-4e-05,-0.0001,3,16
10206,-9e-05,-6e-05,-2e-05,-2e-05,-6e-05,-2e-05,-4e-05,-0.0001,3,16
10207,-9e-05,-6e-05,-2e-05,-2e-05,-6e-05,-2e-05,-4e-05,-0.0001,3,16
10208,-9e-05,-6e-05,-2e-05,-2e-05,-6e-05,-2e-05,-4e-05,-0.0001,3,16
10209,-9e-05,-6e-05,-2e-05,-2e-05,-6e-05,-2e-05,-4e-05,-0.0001,3,16
10210,-9e-05,-6e-05,-2e-05,-2e-05,-6e-05,-2e-05,-4e-05,-0.0001,3,16
10211,-9e-05,-6e-05,-2e-05,-2e-05,-6e-05,-2e-05,-4e-05,-0.0001,3,16
10212,-9e-05,-6e-05,-2e-05,-2e-05,-6e-05,-2e-05,-4e-05,-0.0001,3,16
10213,-9e-05,-6e-05,-2e-05,-2e-05,-6e-05,-2e-05,-4e-05,-0.0001,3,16
10214,-9e-05,-6e-05,-2e-05,-2e-05,-6e-05,-2e-05,-4e-05,-0.0001,3,16
10215,-9e-05,-6e-05,-2e-05,-2e-05,-6e-05,-2e-05,-4e-05,-0.0001,3,16
10216,-9e-05,-6e-05,-2e-05,-2e-05,-6e-05,-2e-05,-4e-05,-0.0001,3,16
10217,-9e-05,-6e-05,-2e-05,-2e-05,-6e-05,-2e-05,-4e-05,-0.0001,3,16
10218,-9e-05,-6e-05,-2e-05,-2e-05,-6e-05,-2e-05,-4e-05,-0.0001,3,16
10219,-9e-05,-6e-05,-2e-05,-2e-05,-6e-05,-2e-05,-4e-05,-0.0001,3,16
10220,-9e-05,-6e-05,-2e-05,-2e-05,-6e-05,-2e-05,-4e-05,-0.0001,3,16
10221,-9e-05,-6e-05,-2e-05,-2e-05,-6e-05,-2e-05,-4e-05,-0.0001,3,16
10222,-9e-05,-6e-05,-2e-05,-2e-05,-6e-05,-2e-05,-4e-05,-0.0001,3,16
10223,-9e-05,-6e-05,-2e-05,-2e-05,-6e-05,-2e-05,-4e-05,-0.0001,3,16
10224,-9e-05,-6e-05,-2e-05,-2e-05,-6e-05,-2e-05,-4e-05,-0.0001,3,16
10225,-0.00016,-0.00014,-3e-05,-4e-05,2e-05,4e-05,-0.00014,-7e-05,3,16
10226,1e-05,-2e-05,-4e-05,-0.00021,-0.00033,-0.00046,-2e-05,8e-05,3,16
10227,0.0002,9e-05,-4e-05,9e-05,0.00014,0.00019,-6e-05,5e-05,3,16
10228,0.0002,9e-05,-4e-05,9e-05,0.00014,0.00019,-6e-05,5e-05,3,16
10229,0.0002,9e-05,-4e-05,9e-05,0.00014,0.00019,-6e-05,5e-05,3,16
10230,0.0002,9e-05,-4e-05,9e-05,0.00014,0.00019,-6e-05,5e-05,3,16
10231,0.0002,9e-05,-4e-05,9e-05,0.00014,0.00019,-6e-05,5e-05,3,16
10232,0.0002,9e-05,-4e-05,9e-05,0.00014,0.00019,-6e-05,5e-05,3,16
10233,0.0002,9e-05,-4e-05,9e-05,0.00014,0.00019,-6e-05,5e-05,3,16
10234,0.0002,9e-05,-4e-05,9e-05,0.00014,0.00019,-6e-05,5e-05,3,16
10235,0.0002,9e-05,-4e-05,9e-05,0.00014,0.00019,-6e-05,5e-05,3,16
10236,0.0002,9e-05,-4e-05,9e-05,0.00014,0.00019,-6e-05,5e-05,3,16
10238,0.0002,9e-05,-4e-05,9e-05,0.00014,0.00019,-6e-05,5e-05,3,16
10239,1e-05,-0.00012,-4e-05,-3e-05,-5e-05,-6e-05,4e-05,4e-05,3,16
10240,4e-05,4e-05,0,-3e-05,0,-2e-05,2e-05,1e-05,3,16
10241,4e-05,4e-05,0,-3e-05,0,-2e-05,2e-05,1e-05,3,16
10242,4e-05,4e-05,0,-3e-05,0,-2e-05,2e-05,1e-05,3,16
10243,4e-05,4e-05,0,-3e-05,0,-2e-05,2e-05,1e-05,3,16
10244,4e-05,4e-05,0,-3e-05,0,-2e-05,2e-05,1e-05,3,16
10245,4e-05,4e-05,0,-3e-05,0,-2e-05,2e-05,1e-05,3,16
10246,4e-05,4e-05,0,-3e-05,0,-2e-05,2e-05,1e-05,3,16
10247,4e-05,4e-05,0,-3e-05,0,-2e-05,2e-05,1e-05,3,16
10248,4e-05,4e-05,0,-3e-05,0,-2e-05,2e-05,1e-05,3,16
10249,4e-05,4e-05,0,-3e-05,0,-2e-05,2e-05,1e-05,3,16
10250,4e-05,4e-05,0,-3e-05,0,-2e-05,2e-05,1e-05,3,16
10251,4e-05,4e-05,0,-3e-05,0,-2e-05,2e-05,1e-05,3,16
10252,4e-05,4e-05,0,-3e-05,0,-2e-05,2e-05,1e-05,3,16
10253,4e-05,4e-05,0,-3e-05,0,-2e-05,2e-05,1e-05,3,16
10254,4e-05,4e-05,0,-3e-05,0,-2e-05,2e-05,1e-05,3,16
10255,4e-05,4e-05,0,-3e-05,0,-2e-05,2e-05,1e-05,3,16
10256,4e-05,4e-05,0,-3e-05,0,-2e-05,2e-05,1e-05,3,16
10257,4e-05,4e-05,0,-3e-05,0,-2e-05,2e-05,1e-05,3,16
10258,4e-05,4e-05,0,-3e-05,0,-2e-05,2e-05,1e-05,3,16
10259,4e-05,4e-05,0,-3e-05,0,-2e-05,2e-05,1e-05,3,16
10260,4e-05,4e-05,0,-3e-05,0,-2e-05,2e-05,1e-05,3,16
10261,4e-05,4e-05,0,-3e-05,0,-2e-05,2e-05,1e-05,3,16
10262,4e-05,4e-05,0,-3e-05,0,-2e-05,2e-05,1e-05,3,16
10263,4e-05,4e-05,0,-3e-05,0,-2e-05,2e-05,1e-05,3,16
10264,4e-05,4e-05,0,-3e-05,0,-2e-05,2e-05,1e-05,3,16
10265,4e-05,4e-05,0,-3e-05,0,-2e-05,2e-05,1e-05,3,16
10266,4e-05,4e-05,0,-3e-05,0,-2e-05,2e-05,1e-05,3,16
10267,4e-05,4e-05,0,-3e-05,0,-2e-05,2e-05,1e-05,3,16
10268,4e-05,4e-05,0,-3e-05,0,-2e-05,2e-05,1e-05,3,16
10269,4e-05,4e-05,0,-3e-05,0,-2e-05,2e-05,1e-05,3,16
10270,4e-05,4e-05,0,-3e-05,0,-2e-05,2e-05,1e-05,3,16
10271,4e-05,4e-05,0,-3e-05,0,-2e-05,2e-05,1e-05,3,16
10272,4e-05,4e-05,0,-3e-05,0,-2e-05,2e-05,1e-05,3,16
10273,4e-05,4e-05,0,-3e-05,0,-2e-05,2e-05,1e-05,3,16
10274,4e-05,4e-05,0,-3e-05,0,-2e-05,2e-05,1e-05,3,16
10275,4e-05,4e-05,0,-3e-05,0,-2e-05,2e-05,1e-05,3,16
10276,4e-05,4e-05,0,-3e-05,0,-2e-05,2e-05,1e-05,3,16
10277,4e-05,4e-05,0,-3e-05,0,-2e-05,2e-05,1e-05,3,16
10278,-1e-05,2e-05,3e-05,0.00011,9e-05,6e-05,9e-05,5e-05,3,16
10279,2e-05,-3e-05,-0.00011,-8e-05,-0.00013,-7e-05,-8e-05,2e-05,3,16
10280,2e-05,-3e-05,-0.00011,-8e-05,-0.00013,-7e-05,-8e-05,2e-05,3,16
10281,-4e-05,2e-05,4e-05,0.00011,0.00022,8e-05,0.00027,0.00024,3,16
10282,-4e-05,2e-05,4e-05,0.00011,0.00022,8e-05,0.00027,0.00024,3,16
10283,-4e-05,2e-05,4e-05,0.00011,0.00022,8e-05,0.00027,0.00024,3,16
10284,-1e-05,-9e-05,-0.0001,-0.00011,0,-0.00011,-1e-05,-8e-05,3,16
10285,-1e-05,-9e-05,-0.0001,-0.00011,0,-0.00011,-1e-05,-8e-05,3,16
10286,-1e-05,-9e-05,-0.0001,-0.00011,0,-0.00011,-1e-05,-8e-05,3,16
10289,-1e-05,-9e-05,-0.0001,-0.00011,0,-0.00011,-1e-05,-8e-05,3,16
10290,-1e-05,-9e-05,-0.0001,-0.00011,0,-0.00011,-1e-05,-8e-05,3,16
10291,-1e-05,-9e-05,-0.0001,-0.00011,0,-0.00011,-1e-05,-8e-05,3,16
10292,-1e-05,-9e-05,-0.0001,-0.00011,0,-0.00011,-1e-05,-8e-05,3,16
10293,-1e-05,-9e-05,-0.0001,-0.00011,0,-0.00011,-1e-05,-8e-05,3,16
10294,-1e-05,-9e-05,-0.0001,-0.00011,0,-0.00011,-1e-05,-8e-05,3,16
10295,-1e-05,-9e-05,-0.0001,-0.00011,0,-0.00011,-1e-05,-8e-05,3,16
10296,-1e-05,-9e-05,-0.0001,-0.00011,0,-0.00011,-1e-05,-8e-05,3,16
10297,-1e-05,-9e-05,-0.0001,-0.00011,0,-0.00011,-1e-05,-8e-05,3,16
10298,-1e-05,-9e-05,-0.0001,-0.00011,0,-0.00011,-1e-05,-8e-05,3,16
10299,-1e-05,-9e-05,-0.0001,-0.00011,0,-0.00011,-1e-05,-8e-05,3,16
10300,-4e-05,-5e-05,-2e-05,-7e-05,-0.0001,-0.00016,-0.00022,-0.00012,3,16
10301,-4e-05,-5e-05,-2e-05,-7e-05,-0.0001,-0.00016,-0.00022,-0.00012,3,16
10302,-4e-05,-5e-05,-2e-05,-7e-05,-0.0001,-0.00016,-0.00022,-0.00012,3,16
10303,-4e-05,-5e-05,-2e-05,-7e-05,-0.0001,-0.00016,-0.00022,-0.00012,3,16
10304,-4e-05,-5e-05,-2e-05,-7e-05,-0.0001,-0.00016,-0.00022,-0.00012,3,16
10305,-4e-05,-5e-05,-2e-05,-7e-05,-0.0001,-0.00016,-0.00022,-0.00012,3,16
10306,-4e-05,-5e-05,-2e-05,-7e-05,-0.0001,-0.00016,-0.00022,-0.00012,3,16
10307,-4e-05,-5e-05,-2e-05,-7e-05,-0.0001,-0.00016,-0.00022,-0.00012,3,16
10308,-4e-05,-5e-05,-2e-05,-7e-05,-0.0001,-0.00016,-0.00022,-0.00012,3,16
10309,-4e-05,-5e-05,-2e-05,-7e-05,-0.0001,-0.00016,-0.00022,-0.00012,3,16
10310,-4e-05,-5e-05,-2e-05,-7e-05,-0.0001,-0.00016,-0.00022,-0.00012,3,16
10311,-4e-05,-5e-05,-2e-05,-7e-05,-0.0001,-0.00016,-0.00022,-0.00012,3,16
10312,-4e-05,-5e-05,-2e-05,-7e-05,-0.0001,-0.00016,-0.00022,-0.00012,3,16
10313,-4e-05,-5e-05,-2e-05,-7e-05,-0.0001,-0.00016,-0.00022,-0.00012,3,16
10314,-4e-05,-5e-05,-2e-05,-7e-05,-0.0001,-0.00016,-0.00022,-0.00012,3,16
10315,-4e-05,-5e-05,-2e-05,-7e-05,-0.0001,-0.00016,-0.00022,-0.00012,3,16
10316,-4e-05,-5e-05,-2e-05,-7e-05,-0.0001,-0.00016,-0.00022,-0.00012,3,16
10317,-4e-05,-5e-05,-2e-05,-7e-05,-0.0001,-0.00016,-0.00022,-0.00012,3,16
10318,-4e-05,-5e-05,-2e-05,-7e-05,-0.0001,-0.00016,-0.00022,-0.00012,3,16
10319,-4e-05,-5e-05,-2e-05,-7e-05,-0.0001,-0.00016,-0.00022,-0.00012,3,16
10320,-4e-05,-5e-05,-2e-05,-7e-05,-0.0001,-0.00016,-0.00022,-0.00012,3,16
10321,-4e-05,-5e-05,-2e-05,-7e-05,-0.0001,-0.00016,-0.00022,-0.00012,3,16
10322,-4e-05,-5e-05,-2e-05,-7e-05,-0.0001,-0.00016,-0.00022,-0.00012,3,16
10323,-4e-05,-5e-05,-2e-05,-7e-05,-0.0001,-0.00016,-0.00022,-0.00012,3,16
10324,-4e-05,-5e-05,-2e-05,-7e-05,-0.0001,-0.00016,-0.00022,-0.00012,3,16
10325,-4e-05,-5e-05,-2e-05,-7e-05,-0.0001,-0.00016,-0.00022,-0.00012,3,16
10326,-4e-05,-5e-05,-2e-05,-7e-05,-0.0001,-0.00016,-0.00022,-0.00012,3,16
10327,-4e-05,-5e-05,-2e-05,-7e-05,-0.0001,-0.00016,-0.00022,-0.00012,3,16
10328,-4e-05,-5e-05,-2e-05,-7e-05,-0.0001,-0.00016,-0.00022,-0.00012,3,16
10329,0.0001,0.0001,-7e-05,-3e-05,4e-05,0.00014,-1e-05,-0.00014,3,16
10330,5e-05,3e-05,6e-05,8e-05,0.00013,4e-05,-0.0002,-4e-05,3,16
10331,5e-05,3e-05,6e-05,8e-05,0.00013,4e-05,-0.0002,-4e-05,3,16
10332,5e-05,3e-05,6e-05,8e-05,0.00013,4e-05,-0.0002,-4e-05,3,16
10333,5e-05,3e-05,6e-05,8e-05,0.00013,4e-05,-0.0002,-4e-05,3,16
10334,5e-05,3e-05,6e-05,8e-05,0.00013,4e-05,-0.0002,-4e-05,3,16
10335,5e-05,3e-05,6e-05,8e-05,0.00013,4e-05,-0.0002,-4e-05,3,16
10336,7e-05,-5e-05,-7e-05,2e-05,-4e-05,-5e-05,7e-05,-5e-05,3,16
10338,7e-05,-5e-05,-7e-05,2e-05,-4e-05,-5e-05,7e-05,-5e-05,3,16
10339,7e-05,-5e-05,-7e-05,2e-05,-4e-05,-5e-05,7e-05,-5e-05,3,16
10340,7e-05,-5e-05,-7e-05,2e-05,-4e-05,-5e-05,7e-05,-5e-05,3,16
10341,7e-05,-5e-05,-7e-05,2e-05,-4e-05,-5e-05,7e-05,-5e-05,3,16
10342,7e-05,-5e-05,-7e-05,2e-05,-4e-05,-5e-05,7e-05,-5e-05,3,16
10343,7e-05,-5e-05,-7e-05,2e-05,-4e-05,-5e-05,7e-05,-5e-05,3,16
10344,-2e-05,-3e-05,-2e-05,3e-05,9e-05,4e-05,9e-05,6e-05,3,16
10345,-2e-05,-3e-05,-2e-05,3e-05,9e-05,4e-05,9e-05,6e-05,3,16
10346,-2e-05,-3e-05,-2e-05,3e-05,9e-05,4e-05,9e-05,6e-05,3,16
10347,-2e-05,-3e-05,-2e-05,3e-05,9e-05,4e-05,9e-05,6e-05,3,16
10348,-2e-05,-3e-05,-2e-05,3e-05,9e-05,4e-05,9e-05,6e-05,3,16
10349,-2e-05,-3e-05,-2e-05,3e-05,9e-05,4e-05,9e-05,6e-05,3,16
10350,-2e-05,-3e-05,-2e-05,3e-05,9e-05,4e-05,9e-05,6e-05,3,16
10351,-2e-05,-3e-05,-2e-05,3e-05,9e-05,4e-05,9e-05,6e-05,3,16
10352,-2e-05,-3e-05,-2e-05,3e-05,9e-05,4e-05,9e-05,6e-05,3,16
10353,-2e-05,-3e-05,-2e-05,3e-05,9e-05,4e-05,9e-05,6e-05,3,16
10354,-2e-05,-3e-05,-2e-05,3e-05,9e-05,4e-05,9e-05,6e-05,3,16
10355,-2e-05,-3e-05,-2e-05,3e-05,9e-05,4e-05,9e-05,6e-05,3,16
10356,-2e-05,-3e-05,-2e-05,3e-05,9e-05,4e-05,9e-05,6e-05,3,16
10357,-2e-05,-3e-05,-2e-05,3e-05,9e-05,4e-05,9e-05,6e-05,3,16
10358,-2e-05,-3e-05,-2e-05,3e-05,9e-05,4e-05,9e-05,6e-05,3,16
10359,-2e-05,-3e-05,-2e-05,3e-05,9e-05,4e-05,9e-05,6e-05,3,16
10360,-2e-05,-3e-05,-2e-05,3e-05,9e-05,4e-05,9e-05,6e-05,3,16
10361,-2e-05,-3e-05,-2e-05,3e-05,9e-05,4e-05,9e-05,6e-05,3,16
10362,-2e-05,-3e-05,-2e-05,3e-05,9e-05,4e-05,9e-05,6e-05,3,16
10363,-2e-05,-3e-05,-2e-05,3e-05,9e-05,4e-05,9e-05,6e-05,3,16
10364,-2e-05,-3e-05,-2e-05,3e-05,9e-05,4e-05,9e-05,6e-05,3,16
10365,-2e-05,-3e-05,-2e-05,3e-05,9e-05,4e-05,9e-05,6e-05,3,16
10366,-2e-05,-3e-05,-2e-05,3e-05,9e-05,4e-05,9e-05,6e-05,3,16
10367,-2e-05,-3e-05,-2e-05,3e-05,9e-05,4e-05,9e-05,6e-05,3,16
10368,-2e-05,-3e-05,-2e-05,3e-05,9e-05,4e-05,9e-05,6e-05,3,16
10369,-2e-05,-3e-05,-2e-05,3e-05,9e-05,4e-05,9e-05,6e-05,3,16
10370,-2e-05,-3e-05,-2e-05,3e-05,9e-05,4e-05,9e-05,6e-05,3,16
10371,-2e-05,-3e-05,-2e-05,3e-05,9e-05,4e-05,9e-05,6e-05,3,16
10372,-2e-05,-3e-05,-2e-05,3e-05,9e-05,4e-05,9e-05,6e-05,3,16
10373,-2e-05,-3e-05,-2e-05,3e-05,9e-05,4e-05,9e-05,6e-05,3,16
10374,-2e-05,-3e-05,-2e-05,3e-05,9e-05,4e-05,9e-05,6e-05,3,16
10375,-0.00012,6e-05,3e-05,6e-05,6e-05,2e-05,0.00014,-9e-05,3,16
10376,-0.00012,6e-05,3e-05,6e-05,6e-05,2e-05,0.00014,-9e-05,3,16
10377,-0.00012,6e-05,3e-05,6e-05,6e-05,2e-05,0.00014,-9e-05,3,16
10378,-0.00012,6e-05,3e-05,6e-05,6e-05,2e-05,0.00014,-9e-05,3,16
10379,-0.00012,6e-05,3e-05,6e-05,6e-05,2e-05,0.00014,-9e-05,3,16
10380,-0.00012,6e-05,3e-05,6e-05,6e-05,2e-05,0.00014,-9e-05,3,16
10381,-0.00012,6e-05,3e-05,6e-05,6e-05,2e-05,0.00014,-9e-05,3,16
10382,-0.00012,6e-05,3e-05,6e-05,6e-05,2e-05,0.00014,-9e-05,3,16
10383,-7e-05,1e-05,0,-2e-05,-4e-05,2e-05,-3e-05,-7e-05,3,16
10384,-7e-05,1e-05,0,-2e-05,-4e-05,2e-05,-3e-05,-7e-05,3,16
10385,-7e-05,1e-05,0,-2e-05,-4e-05,2e-05,-3e-05,-7e-05,3,16
10386,-7e-05,1e-05,0,-2e-05,-4e-05,2e-05,-3e-05,-7e-05,3,16
10388,-7e-05,1e-05,0,-2e-05,-4e-05,2e-05,-3e-05,-7e-05,3,16
10389,-7e-05,1e-05,0,-2e-05,-4e-05,2e-05,-3e-05,-7e-05,3,16
10390,-7e-05,1e-05,0,-2e-05,-4e-05,2e-05,-3e-05,-7e-05,3,16
10391,-7e-05,1e-05,0,-2e-05,-4e-05,2e-05,-3e-05,-7e-05,3,16
10392,-7e-05,1e-05,0,-2e-05,-4e-05,2e-05,-3e-05,-7e-05,3,16
10393,-7e-05,1e-05,0,-2e-05,-4e-05,2e-05,-3e-05,-7e-05,3,16
10394,-7e-05,1e-05,0,-2e-05,-4e-05,2e-05,-3e-05,-7e-05,3,16
10395,-7e-05,1e-05,0,-2e-05,-4e-05,2e-05,-3e-05,-7e-05,3,16
10396,-3e-05,5e-05,2e-05,-6e-05,-0.00013,-5e-05,-4e-05,0.00012,3,16
10397,-3e-05,5e-05,2e-05,-6e-05,-0.00013,-5e-05,-4e-05,0.00012,3,16
10398,-3e-05,5e-05,2e-05,-6e-05,-0.00013,-5e-05,-4e-05,0.00012,3,16
10399,-3e-05,5e-05,2e-05,-6e-05,-0.00013,-5e-05,-4e-05,0.00012,3,16
10400,-3e-05,5e-05,2e-05,-6e-05,-0.00013,-5e-05,-4e-05,0.00012,3,16
10401,-3e-05,5e-05,2e-05,-6e-05,-0.00013,-5e-05,-4e-05,0.00012,3,16
10402,-3e-05,5e-05,2e-05,-6e-05,-0.00013,-5e-05,-4e-05,0.00012,3,16
10403,-3e-05,5e-05,2e-05,-6e-05,-0.00013,-5e-05,-4e-05,0.00012,3,16
10404,-3e-05,5e-05,2e-05,-6e-05,-0.00013,-5e-05,-4e-05,0.00012,3,16
10405,-3e-05,5e-05,2e-05,-6e-05,-0.00013,-5e-05,-4e-05,0.00012,3,16
10406,-3e-05,5e-05,2e-05,-6e-05,-0.00013,-5e-05,-4e-05,0.00012,3,16
10407,-3e-05,5e-05,2e-05,-6e-05,-0.00013,-5e-05,-4e-05,0.00012,3,16
10408,-3e-05,5e-05,2e-05,-6e-05,-0.00013,-5e-05,-4e-05,0.00012,3,16
10409,-3e-05,5e-05,2e-05,-6e-05,-0.00013,-5e-05,-4e-05,0.00012,3,16
10410,-3e-05,5e-05,2e-05,-6e-05,-0.00013,-5e-05,-4e-05,0.00012,3,16
10411,-3e-05,5e-05,2e-05,-6e-05,-0.00013,-5e-05,-4e-05,0.00012,3,16
10412,-3e-05,5e-05,2e-05,-6e-05,-0.00013,-5e-05,-4e-05,0.00012,3,16
10413,-3e-05,5e-05,2e-05,-6e-05,-0.00013,-5e-05,-4e-05,0.00012,3,16
10414,-3e-05,5e-05,2e-05,-6e-05,-0.00013,-5e-05,-4e-05,0.00012,3,16
10415,-3e-05,5e-05,2e-05,-6e-05,-0.00013,-5e-05,-4e-05,0.00012,3,16
10416,-3e-05,5e-05,2e-05,-6e-05,-0.00013,-5e-05,-4e-05,0.00012,3,16
10417,-3e-05,5e-05,2e-05,-6e-05,-0.00013,-5e-05,-4e-05,0.00012,3,16
10418,-3e-05,5e-05,2e-05,-6e-05,-0.00013,-5e-05,-4e-05,0.00012,3,16
10419,6e-05,0,0,-0.00018,-0.00034,-0.00021,-4e-05,9e-05,3,16
10420,6e-05,0,0,-0.00018,-0.00034,-0.00021,-4e-05,9e-05,3,16
10421,6e-05,0,0,-0.00018,-0.00034,-0.00021,-4e-05,9e-05,3,16
10422,6e-05,0,0,-0.00018,-0.00034,-0.00021,-4e-05,9e-05,3,16
10423,6e-05,0,0,-0.00018,-0.00034,-0.00021,-4e-05,9e-05,3,16
10424,6e-05,0,0,-0.00018,-0.00034,-0.00021,-4e-05,9e-05,3,16
10425,6e-05,0,0,-0.00018,-0.00034,-0.00021,-4e-05,9e-05,3,16
10426,6e-05,0,0,-0.00018,-0.00034,-0.00021,-4e-05,9e-05,3,16
10427,6e-05,0,0,-0.00018,-0.00034,-0.00021,-4e-05,9e-05,3,16
10428,-0.00013,-4e-05,-4e-05,1e-05,0,9e-05,-4e-05,-4e-05,3,16
10429,0,5e-05,0,-3e-05,-1e-05,5e-05,-0.00019,-0.0001,3,16
10430,0.00012,-1e-05,2e-05,9e-05,7e-05,0.00011,5e-05,0.00019,3,16
10431,0.00012,-1e-05,2e-05,9e-05,7e-05,0.00011,5e-05,0.00019,3,16
10432,0.00012,-1e-05,2e-05,9e-05,7e-05,0.00011,5e-05,0.00019,3,16
10433,0.00012,-1e-05,2e-05,9e-05,7e-05,0.00011,5e-05,0.00019,3,16
10434,0.00012,-1e-05,2e-05,9e-05,7e-05,0.00011,5e-05,0.00019,3,16
10435,0.00012,-1e-05,2e-05,9e-05,7e-05,0.00011,5e-05,0.00019,3,16
10436,0.00012,-1e-05,2e-05,9e-05,7e-05,0.00011,5e-05,0.00019,3,16
10438,0.00012,-1e-05,2e-05,9e-05,7e-05,0.00011,5e-05,0.00019,3,16
10439,0.00012,-1e-05,2e-05,9e-05,7e-05,0.00011,5e-05,0.00019,3,16
10440,0.00012,-1e-05,2e-05,9e-05,7e-05,0.00011,5e-05,0.00019,3,16
10441,0.00012,-1e-05,2e-05,9e-05,7e-05,0.00011,5e-05,0.00019,3,16
10442,1e-05,-5e-05,0,-2e-05,-7e-05,-0.00016,-6e-05,4e-05,3,16
10443,6e-05,2e-05,4e-05,8e-05,3e-05,1e-05,0.00013,0.00014,3,16
10444,6e-05,2e-05,4e-05,8e-05,3e-05,1e-05,0.00013,0.00014,3,16
10445,6e-05,2e-05,4e-05,8e-05,3e-05,1e-05,0.00013,0.00014,3,16
10446,6e-05,2e-05,4e-05,8e-05,3e-05,1e-05,0.00013,0.00014,3,16
10447,6e-05,2e-05,4e-05,8e-05,3e-05,1e-05,0.00013,0.00014,3,16
10448,6e-05,2e-05,4e-05,8e-05,3e-05,1e-05,0.00013,0.00014,3,16
10449,6e-05,2e-05,4e-05,8e-05,3e-05,1e-05,0.00013,0.00014,3,16
10450,6e-05,2e-05,4e-05,8e-05,3e-05,1e-05,0.00013,0.00014,3,16
10451,6e-05,2e-05,4e-05,8e-05,3e-05,1e-05,0.00013,0.00014,3,16
10452,6e-05,2e-05,4e-05,8e-05,3e-05,1e-05,0.00013,0.00014,3,16
10453,6e-05,2e-05,4e-05,8e-05,3e-05,1e-05,0.00013,0.00014,3,16
10454,6e-05,2e-05,4e-05,8e-05,3e-05,1e-05,0.00013,0.00014,3,16
10455,6e-05,2e-05,4e-05,8e-05,3e-05,1e-05,0.00013,0.00014,3,16
10456,6e-05,2e-05,4e-05,8e-05,3e-05,1e-05,0.00013,0.00014,3,16
10457,6e-05,2e-05,4e-05,8e-05,3e-05,1e-05,0.00013,0.00014,3,16
10458,6e-05,2e-05,4e-05,8e-05,3e-05,1e-05,0.00013,0.00014,3,16
10459,6e-05,2e-05,4e-05,8e-05,3e-05,1e-05,0.00013,0.00014,3,16
10460,6e-05,2e-05,4e-05,8e-05,3e-05,1e-05,0.00013,0.00014,3,16
10461,6e-05,2e-05,4e-05,8e-05,3e-05,1e-05,0.00013,0.00014,3,16
10462,6e-05,2e-05,4e-05,8e-05,3e-05,1e-05,0.00013,0.00014,3,16
10463,6e-05,2e-05,4e-05,8e-05,3e-05,1e-05,0.00013,0.00014,3,16
10464,6e-05,2e-05,4e-05,8e-05,3e-05,1e-05,0.00013,0.00014,3,16
10465,6e-05,2e-05,4e-05,8e-05,3e-05,1e-05,0.00013,0.00014,3,16
10466,6e-05,2e-05,4e-05,8e-05,3e-05,1e-05,0.00013,0.00014,3,16
10467,6e-05,2e-05,4e-05,8e-05,3e-05,1e-05,0.00013,0.00014,3,16
10468,6e-05,2e-05,4e-05,8e-05,3e-05,1e-05,0.00013,0.00014,3,16
10469,6e-05,2e-05,4e-05,8e-05,3e-05,1e-05,0.00013,0.00014,3,16
10470,6e-05,2e-05,4e-05,8e-05,3e-05,1e-05,0.00013,0.00014,3,16
10471,6e-05,2e-05,4e-05,8e-05,3e-05,1e-05,0.00013,0.00014,3,16
10472,-4e-05,3e-05,1e-05,4e-05,-2e-05,2e-05,-7e-05,-0.00017,3,16
10473,6e-05,-6e-05,4e-05,4e-05,0.00016,2e-05,0.00013,7e-05,3,16
10474,6e-05,-6e-05,4e-05,4e-05,0.00016,2e-05,0.00013,7e-05,3,16
10475,6e-05,-6e-05,4e-05,4e-05,0.00016,2e-05,0.00013,7e-05,3,16
10476,6e-05,-6e-05,4e-05,4e-05,0.00016,2e-05,0.00013,7e-05,3,16
10477,6e-05,-6e-05,4e-05,4e-05,0.00016,2e-05,0.00013,7e-05,3,16
10478,6e-05,-6e-05,4e-05,4e-05,0.00016,2e-05,0.00013,7e-05,3,16
10479,6e-05,-6e-05,4e-05,4e-05,0.00016,2e-05,0.00013,7e-05,3,16
10480,-5e-05,5e-05,-3e-05,-0.00013,-0.00016,-0.00012,-5e-05,6e-05,3,16
10481,-5e-05,5e-05,-3e-05,-0.00013,-0.00016,-0.00012,-5e-05,6e-05,3,16
10482,-5e-05,5e-05,-3e-05,-0.00013,-0.00016,-0.00012,-5e-05,6e-05,3,16
10483,-5e-05,5e-05,-3e-05,-0.00013,-0.00016,-0.00012,-5e-05,6e-05,3,16
10484,-5e-05,5e-05,-3e-05,-0.00013,-0.00016,-0.00012,-5e-05,6e-05,3,16
10485,-5e-05,5e-05,-3e-05,-0.00013,-0.00016,-0.00012,-5e-05,6e-05,3,16
10486,-5e-05,5e-05,-3e-05,-0.00013,-0.00016,-0.00012,-5e-05,6e-05,3,16
10488,-5e-05,5e-05,-3e-05,-0.00013,-0.00016,-0.00012,-5e-05,6e-05,3,16
10489,-5e-05,5e-05,-3e-05,-0.00013,-0.00016,-0.00012,-5e-05,6e-05,3,16
10490,-5e-05,5e-05,-3e-05,-0.00013,-0.00016,-0.00012,-5e-05,6e-05,3,16
10491,-5e-05,5e-05,-3e-05,-0.00013,-0.00016,-0.00012,-5e-05,6e-05,3,16
10492,-5e-05,5e-05,-3e-05,-0.00013,-0.00016,-0.00012,-5e-05,6e-05,3,16
10493,-5e-05,5e-05,-3e-05,-0.00013,-0.00016,-0.00012,-5e-05,6e-05,3,16
10494,-5e-05,5e-05,-3e-05,-0.00013,-0.00016,-0.00012,-5e-05,6e-05,3,16
10495,-5e-05,5e-05,-3e-05,-0.00013,-0.00016,-0.00012,-5e-05,6e-05,3,16
10496,-5e-05,5e-05,-3e-05,-0.00013,-0.00016,-0.00012,-5e-05,6e-05,3,16
10497,-5e-05,5e-05,-3e-05,-0.00013,-0.00016,-0.00012,-5e-05,6e-05,3,16
10498,-5e-05,5e-05,-3e-05,-0.00013,-0.00016,-0.00012,-5e-05,6e-05,3,16
10499,-5e-05,5e-05,-3e-05,-0.00013,-0.00016,-0.00012,-5e-05,6e-05,3,16
10500,-5e-05,5e-05,-3e-05,-0.00013,-0.00016,-0.00012,-5e-05,6e-05,3,16
10501,-5e-05,5e-05,-3e-05,-0.00013,-0.00016,-0.00012,-5e-05,6e-05,3,16
10502,-5e-05,5e-05,-3e-05,-0.00013,-0.00016,-0.00012,-5e-05,6e-05,3,16
10503,-5e-05,5e-05,-3e-05,-0.00013,-0.00016,-0.00012,-5e-05,6e-05,3,16
10504,-5e-05,5e-05,-3e-05,-0.00013,-0.00016,-0.00012,-5e-05,6e-05,3,16
10505,-5e-05,5e-05,-3e-05,-0.00013,-0.00016,-0.00012,-5e-05,6e-05,3,16
10506,-5e-05,5e-05,-3e-05,-0.00013,-0.00016,-0.00012,-5e-05,6e-05,3,16
10507,-5e-05,5e-05,-3e-05,-0.00013,-0.00016,-0.00012,-5e-05,6e-05,3,16
10508,-5e-05,5e-05,-3e-05,-0.00013,-0.00016,-0.00012,-5e-05,6e-05,3,16
10509,-5e-05,5e-05,-3e-05,-0.00013,-0.00016,-0.00012,-5e-05,6e-05,3,16
10510,-5e-05,5e-05,-3e-05,-0.00013,-0.00016,-0.00012,-5e-05,6e-05,3,16
10511,-5e-05,5e-05,-3e-05,-0.00013,-0.00016,-0.00012,-5e-05,6e-05,3,16
10512,-5e-05,5e-05,-3e-05,-0.00013,-0.00016,-0.00012,-5e-05,6e-05,3,16
10513,-5e-05,5e-05,-3e-05,-0.00013,-0.00016,-0.00012,-5e-05,6e-05,3,16
10514,-5e-05,5e-05,-3e-05,-0.00013,-0.00016,-0.00012,-5e-05,6e-05,3,16
10515,-5e-05,5e-05,-3e-05,-0.00013,-0.00016,-0.00012,-5e-05,6e-05,3,16
10516,-1e-05,-4e-05,-4e-05,7e-05,0.0001,2e-05,8e-05,-9e-05,3,16
10517,-1e-05,-4e-05,-4e-05,7e-05,0.0001,2e-05,8e-05,-9e-05,3,16
10518,-1e-05,-4e-05,-4e-05,7e-05,0.0001,2e-05,8e-05,-9e-05,3,16
10519,-1e-05,-4e-05,-4e-05,7e-05,0.0001,2e-05,8e-05,-9e-05,3,16
10520,-1e-05,-4e-05,-4e-05,7e-05,0.0001,2e-05,8e-05,-9e-05,3,16
10521,-1e-05,-4e-05,-4e-05,7e-05,0.0001,2e-05,8e-05,-9e-05,3,16
10522,-1e-05,-4e-05,-4e-05,7e-05,0.0001,2e-05,8e-05,-9e-05,3,16
10523,-1e-05,-4e-05,-4e-05,7e-05,0.0001,2e-05,8e-05,-9e-05,3,16
10524,-1e-05,-4e-05,-4e-05,7e-05,0.0001,2e-05,8e-05,-9e-05,3,16
10525,-1e-05,-4e-05,-4e-05,7e-05,0.0001,2e-05,8e-05,-9e-05,3,16
10526,-0.00013,2e-05,-1e-05,-9e-05,-0.00012,-1e-05,-0.0002,-0.00015,3,16
10527,-0.00014,-9e-05,-4e-05,-0.00014,-0.00024,-4e-05,-2e-05,-0.0001,3,16
10528,-7e-05,-6e-05,1e-05,5e-05,0.00015,9e-05,-5e-05,-0.0001,3,16
10529,-7e-05,-6e-05,1e-05,5e-05,0.00015,9e-05,-5e-05,-0.0001,3,16
10530,-7e-05,-6e-05,1e-05,5e-05,0.00015,9e-05,-5e-05,-0.0001,3,16
10531,-7e-05,-6e-05,1e-05,5e-05,0.00015,9e-05,-5e-05,-0.0001,3,16
10532,-7e-05,-6e-05,1e-05,5e-05,0.00015,9e-05,-5e-05,-0.0001,3,16
10533,-7e-05,-6e-05,1e-05,5e-05,0.00015,9e-05,-5e-05,-0.0001,3,16
10534,-7e-05,-6e-05,1e-05,5e-05,0.00015,9e-05,-5e-05,-0.0001,3,16
10535,-7e-05,-6e-05,1e-05,5e-05,0.00015,9e-05,-5e-05,-0.0001,3,16
10536,-7e-05,-6e-05,1e-05,5e-05,0.00015,9e-05,-5e-05,-0.0001,3,16
10538,-7e-05,-6e-05,1e-05,5e-05,0.00015,9e-05,-5e-05,-0.0001,3,16
10539,-7e-05,-6e-05,1e-05,5e-05,0.00015,9e-05,-5e-05,-0.0001,3,16
10540,0.0001,0,-4e-05,-1e-05,-6e-05,0,-7e-05,0,3,16
10541,-6e-05,-6e-05,-8e-05,-4e-05,-2e-05,0.00012,-5e-05,0,3,16
10542,-6e-05,-6e-05,-8e-05,-4e-05,-2e-05,0.00012,-5e-05,0,3,16
10543,-6e-05,-6e-05,-8e-05,-4e-05,-2e-05,0.00012,-5e-05,0,3,16
10544,-6e-05,-6e-05,-8e-05,-4e-05,-2e-05,0.00012,-5e-05,0,3,16
10545,-6e-05,-6e-05,-8e-05,-4e-05,-2e-05,0.00012,-5e-05,0,3,16
10546,-6e-05,-6e-05,-8e-05,-4e-05,-2e-05,0.00012,-5e-05,0,3,16
10547,-6e-05,-6e-05,-8e-05,-4e-05,-2e-05,0.00012,-5e-05,0,3,16
10548,-6e-05,-6e-05,-8e-05,-4e-05,-2e-05,0.00012,-5e-05,0,3,16
10549,-6e-05,-6e-05,-8e-05,-4e-05,-2e-05,0.00012,-5e-05,0,3,16
10550,-6e-05,-6e-05,-8e-05,-4e-05,-2e-05,0.00012,-5e-05,0,3,16
10552,-6e-05,-6e-05,-8e-05,-4e-05,-2e-05,0.00012,-5e-05,0,3,16
10553,-6e-05,-6e-05,-8e-05,-4e-05,-2e-05,0.00012,-5e-05,0,3,16
10554,-6e-05,-6e-05,-8e-05,-4e-05,-2e-05,0.00012,-5e-05,0,3,16
10555,-6e-05,-6e-05,-8e-05,-4e-05,-2e-05,0.00012,-5e-05,0,3,16
10556,-6e-05,-6e-05,-8e-05,-4e-05,-2e-05,0.00012,-5e-05,0,3,16
10557,-6e-05,-6e-05,-8e-05,-4e-05,-2e-05,0.00012,-5e-05,0,3,16
10558,-6e-05,-6e-05,-8e-05,-4e-05,-2e-05,0.00012,-5e-05,0,3,16
10559,-6e-05,-6e-05,-8e-05,-4e-05,-2e-05,0.00012,-5e-05,0,3,16
10560,-6e-05,-6e-05,-8e-05,-4e-05,-2e-05,0.00012,-5e-05,0,3,16
10561,-6e-05,-6e-05,-8e-05,-4e-05,-2e-05,0.00012,-5e-05,0,3,16
10562,-6e-05,-6e-05,-8e-05,-4e-05,-2e-05,0.00012,-5e-05,0,3,16
10563,-6e-05,-6e-05,-8e-05,-4e-05,-2e-05,0.00012,-5e-05,0,3,16
10564,-6e-05,-6e-05,-8e-05,-4e-05,-2e-05,0.00012,-5e-05,0,3,16
10565,-6e-05,-6e-05,-8e-05,-4e-05,-2e-05,0.00012,-5e-05,0,3,16
10566,-6e-05,-6e-05,-8e-05,-4e-05,-2e-05,0.00012,-5e-05,0,3,16
10567,-6e-05,-6e-05,-8e-05,-4e-05,-2e-05,0.00012,-5e-05,0,3,16
10568,-6e-05,-6e-05,-8e-05,-4e-05,-2e-05,0.00012,-5e-05,0,3,16
10569,-6e-05,-6e-05,-8e-05,-4e-05,-2e-05,0.00012,-5e-05,0,3,16
10570,8e-05,6e-05,4e-05,2e-05,4e-05,0,-6e-05,-3e-05,3,16
10571,3e-05,0,-2e-05,-2e-05,-5e-05,-4e-05,4e-05,2e-05,3,16
10572,3e-05,0,-2e-05,-2e-05,-5e-05,-4e-05,4e-05,2e-05,3,16
10573,3e-05,0,-2e-05,-2e-05,-5e-05,-4e-05,4e-05,2e-05,3,16
10574,3e-05,0,-2e-05,-2e-05,-5e-05,-4e-05,4e-05,2e-05,3,16
10575,3e-05,0,-2e-05,-2e-05,-5e-05,-4e-05,4e-05,2e-05,3,16
10576,0,1e-05,-7e-05,-5e-05,-9e-05,-0.00011,-7e-05,0,3,16
10577,1e-05,-3e-05,-4e-05,-7e-05,-9e-05,-5e-05,-7e-05,7e-05,3,16
10578,1e-05,-3e-05,-4e-05,-7e-05,-9e-05,-5e-05,-7e-05,7e-05,3,16
10579,1e-05,-3e-05,-4e-05,-7e-05,-9e-05,-5e-05,-7e-05,7e-05,3,16
10580,1e-05,-3e-05,-4e-05,-7e-05,-9e-05,-5e-05,-7e-05,7e-05,3,16
10581,1e-05,-3e-05,-4e-05,-7e-05,-9e-05,-5e-05,-7e-05,7e-05,3,16
10582,1e-05,-3e-05,-4e-05,-7e-05,-9e-05,-5e-05,-7e-05,7e-05,3,16
10583,1e-05,-3e-05,-4e-05,-7e-05,-9e-05,-5e-05,-7e-05,7e-05,3,16
10584,1e-05,-3e-05,-4e-05,-7e-05,-9e-05,-5e-05,-7e-05,7e-05,3,16
10585,4e-05,0,3e-05,7e-05,5e-05,5e-05,8e-05,1e-05,3,16
10586,4e-05,0,3e-05,7e-05,5e-05,5e-05,8e-05,1e-05,3,16
10588,4e-05,0,3e-05,7e-05,5e-05,5e-05,8e-05,1e-05,3,16
10589,4e-05,0,3e-05,7e-05,5e-05,5e-05,8e-05,1e-05,3,16
10590,4e-05,0,3e-05,7e-05,5e-05,5e-05,8e-05,1e-05,3,16
10591,4e-05,0,3e-05,7e-05,5e-05,5e-05,8e-05,1e-05,3,16
10592,4e-05,0,3e-05,7e-05,5e-05,5e-05,8e-05,1e-05,3,16
10593,4e-05,0,3e-05,7e-05,5e-05,5e-05,8e-05,1e-05,3,16
10594,4e-05,0,3e-05,7e-05,5e-05,5e-05,8e-05,1e-05,3,16
10595,4e-05,0,3e-05,7e-05,5e-05,5e-05,8e-05,1e-05,3,16
10596,4e-05,0,3e-05,7e-05,5e-05,5e-05,8e-05,1e-05,3,16
10597,4e-05,0,3e-05,7e-05,5e-05,5e-05,8e-05,1e-05,3,16
10598,4e-05,0,3e-05,7e-05,5e-05,5e-05,8e-05,1e-05,3,16
10599,4e-05,0,3e-05,7e-05,5e-05,5e-05,8e-05,1e-05,3,16
10600,-0.00016,-1e-05,-2e-05,-5e-05,-5e-05,-6e-05,-0.00038,-5e-05,3,16
10601,-0.00016,-1e-05,-2e-05,-5e-05,-5e-05,-6e-05,-0.00038,-5e-05,3,16
10602,-0.00011,-3e-05,-5e-05,0,1e-05,-5e-05,-8e-05,4e-05,3,16
10603,-0.00011,-3e-05,-5e-05,0,1e-05,-5e-05,-8e-05,4e-05,3,16
10604,-0.00011,-3e-05,-5e-05,0,1e-05,-5e-05,-8e-05,4e-05,3,16
10605,-0.00011,-3e-05,-5e-05,0,1e-05,-5e-05,-8e-05,4e-05,3,16
10606,-0.00011,-3e-05,-5e-05,0,1e-05,-5e-05,-8e-05,4e-05,3,16
10607,-0.00011,-3e-05,-5e-05,0,1e-05,-5e-05,-8e-05,4e-05,3,16
10608,-0.00011,-3e-05,-5e-05,0,1e-05,-5e-05,-8e-05,4e-05,3,16
10609,-0.00011,-3e-05,-5e-05,0,1e-05,-5e-05,-8e-05,4e-05,3,16
10610,-0.00011,-3e-05,-5e-05,0,1e-05,-5e-05,-8e-05,4e-05,3,16
10611,-0.00011,-3e-05,-5e-05,0,1e-05,-5e-05,-8e-05,4e-05,3,16
10612,-0.00011,-3e-05,-5e-05,0,1e-05,-5e-05,-8e-05,4e-05,3,16
10613,-0.00011,-3e-05,-5e-05,0,1e-05,-5e-05,-8e-05,4e-05,3,16
10614,-0.00011,-3e-05,-5e-05,0,1e-05,-5e-05,-8e-05,4e-05,3,16
10615,-0.00011,-3e-05,-5e-05,0,1e-05,-5e-05,-8e-05,4e-05,3,16
10616,-0.00011,-3e-05,-5e-05,0,1e-05,-5e-05,-8e-05,4e-05,3,16
10617,-0.00011,-3e-05,-5e-05,0,1e-05,-5e-05,-8e-05,4e-05,3,16
10618,-0.00011,-3e-05,-5e-05,0,1e-05,-5e-05,-8e-05,4e-05,3,16
10619,-0.00011,-3e-05,-5e-05,0,1e-05,-5e-05,-8e-05,4e-05,3,16
10620,-0.00011,-3e-05,-5e-05,0,1e-05,-5e-05,-8e-05,4e-05,3,16
10621,-0.00011,-3e-05,-5e-05,0,1e-05,-5e-05,-8e-05,4e-05,3,16
10622,0.00012,4e-05,-1e-05,-5e-05,2e-05,-4e-05,7e-05,5e-05,3,16
10623,-1e-05,-1e-05,-1e-05,-6e-05,-8e-05,-2e-05,0.00015,-5e-05,3,16
10624,-5e-05,0,0,6e-05,0.00025,0,-2e-05,-8e-05,3,16
10625,-5e-05,0,0,6e-05,0.00025,0,-2e-05,-8e-05,3,16
10626,-5e-05,0,0,6e-05,0.00025,0,-2e-05,-8e-05,3,16
10627,-5e-05,0,0,6e-05,0.00025,0,-2e-05,-8e-05,3,16
10628,-5e-05,0,0,6e-05,0.00025,0,-2e-05,-8e-05,3,16
10629,-5e-05,0,0,6e-05,0.00025,0,-2e-05,-8e-05,3,16
10630,-5e-05,0,0,6e-05,0.00025,0,-2e-05,-8e-05,3,16
10631,-5e-05,0,0,6e-05,0.00025,0,-2e-05,-8e-05,3,16
10632,-5e-05,0,0,6e-05,0.00025,0,-2e-05,-8e-05,3,16
10633,-5e-05,0,0,6e-05,0.00025,0,-2e-05,-8e-05,3,16
10634,-5e-05,0,0,6e-05,0.00025,0,-2e-05,-8e-05,3,16
10635,-5e-05,0,0,6e-05,0.00025,0,-2e-05,-8e-05,3,16
10636,-5e-05,0,0,6e-05,0.00025,0,-2e-05,-8e-05,3,16
10638,-5e-05,0,0,6e-05,0.00025,0,-2e-05,-8e-05,3,16
10639,-5e-05,0,0,6e-05,0.00025,0,-2e-05,-8e-05,3,16
10640,-5e-05,0,0,6e-05,0.00025,0,-2e-05,-8e-05,3,16
10641,-5e-05,0,0,6e-05,0.00025,0,-2e-05,-8e-05,3,16
10642,-5e-05,0,0,6e-05,0.00025,0,-2e-05,-8e-05,3,16
10643,-5e-05,0,0,6e-05,0.00025,0,-2e-05,-8e-05,3,16
10644,-5e-05,0,0,6e-05,0.00025,0,-2e-05,-8e-05,3,16
10645,-6e-05,-2e-05,-5e-05,0,-1e-05,7e-05,0.00012,9e-05,3,16
10646,3e-05,3e-05,6e-05,1e-05,-8e-05,-9e-05,0.00033,1e-05,3,16
10647,3e-05,3e-05,6e-05,1e-05,-8e-05,-9e-05,0.00033,1e-05,3,16
10648,3e-05,3e-05,6e-05,1e-05,-8e-05,-9e-05,0.00033,1e-05,3,16
10649,3e-05,3e-05,6e-05,1e-05,-8e-05,-9e-05,0.00033,1e-05,3,16
10650,3e-05,3e-05,6e-05,1e-05,-8e-05,-9e-05,0.00033,1e-05,3,16
10651,3e-05,3e-05,6e-05,1e-05,-8e-05,-9e-05,0.00033,1e-05,3,16
10652,3e-05,3e-05,6e-05,1e-05,-8e-05,-9e-05,0.00033,1e-05,3,16
10653,3e-05,3e-05,6e-05,1e-05,-8e-05,-9e-05,0.00033,1e-05,3,16
10654,3e-05,3e-05,6e-05,1e-05,-8e-05,-9e-05,0.00033,1e-05,3,16
10655,3e-05,3e-05,6e-05,1e-05,-8e-05,-9e-05,0.00033,1e-05,3,16
10656,3e-05,3e-05,6e-05,1e-05,-8e-05,-9e-05,0.00033,1e-05,3,16
10657,3e-05,3e-05,6e-05,1e-05,-8e-05,-9e-05,0.00033,1e-05,3,16
10658,3e-05,3e-05,6e-05,1e-05,-8e-05,-9e-05,0.00033,1e-05,3,16
10659,3e-05,3e-05,6e-05,1e-05,-8e-05,-9e-05,0.00033,1e-05,3,16
10660,3e-05,3e-05,6e-05,1e-05,-8e-05,-9e-05,0.00033,1e-05,3,16
10661,3e-05,3e-05,6e-05,1e-05,-8e-05,-9e-05,0.00033,1e-05,3,16
10662,3e-05,3e-05,6e-05,1e-05,-8e-05,-9e-05,0.00033,1e-05,3,16
10663,3e-05,3e-05,6e-05,1e-05,-8e-05,-9e-05,0.00033,1e-05,3,16
10664,3e-05,3e-05,6e-05,1e-05,-8e-05,-9e-05,0.00033,1e-05,3,16
10665,3e-05,3e-05,6e-05,1e-05,-8e-05,-9e-05,0.00033,1e-05,3,16
10666,3e-05,3e-05,6e-05,1e-05,-8e-05,-9e-05,0.00033,1e-05,3,16
10667,-8e-05,-0.00018,-0.00011,-0.00015,-4e-05,-3e-05,-8e-05,-4e-05,3,16
10668,-8e-05,-0.00018,-0.00011,-0.00015,-4e-05,-3e-05,-8e-05,-4e-05,3,16
10669,3e-05,3e-05,4e-05,2e-05,-1e-05,0,-3e-05,5e-05,3,16
10670,-3e-05,-1e-05,-3e-05,-4e-05,-7e-05,0,-3e-05,-4e-05,3,16
10671,-3e-05,-1e-05,-3e-05,-4e-05,-7e-05,0,-3e-05,-4e-05,3,16
10672,-3e-05,-1e-05,-3e-05,-4e-05,-7e-05,0,-3e-05,-4e-05,3,16
10673,-3e-05,-1e-05,-3e-05,-4e-05,-7e-05,0,-3e-05,-4e-05,3,16
10674,-3e-05,-1e-05,-3e-05,-4e-05,-7e-05,0,-3e-05,-4e-05,3,16
10675,-3e-05,-1e-05,-3e-05,-4e-05,-7e-05,0,-3e-05,-4e-05,3,16
10676,-3e-05,-1e-05,-3e-05,-4e-05,-7e-05,0,-3e-05,-4e-05,3,16
10677,-3e-05,-1e-05,-3e-05,-4e-05,-7e-05,0,-3e-05,-4e-05,3,16
10678,-3e-05,-1e-05,-3e-05,-4e-05,-7e-05,0,-3e-05,-4e-05,3,16
10679,-3e-05,-1e-05,-3e-05,-4e-05,-7e-05,0,-3e-05,-4e-05,3,16
10680,-3e-05,-1e-05,-3e-05,-4e-05,-7e-05,0,-3e-05,-4e-05,3,16
10681,-3e-05,-1e-05,-3e-05,-4e-05,-7e-05,0,-3e-05,-4e-05,3,16
10682,-3e-05,-1e-05,-3e-05,-4e-05,-7e-05,0,-3e-05,-4e-05,3,16
10683,-3e-05,-1e-05,-3e-05,-4e-05,-7e-05,0,-3e-05,-4e-05,3,16
10684,-3e-05,-1e-05,-3e-05,-4e-05,-7e-05,0,-3e-05,-4e-05,3,16
10685,-3e-05,-1e-05,-3e-05,-4e-05,-7e-05,0,-3e-05,-4e-05,3,16
10686,-3e-05,-1e-05,-3e-05,-4e-05,-7e-05,0,-3e-05,-4e-05,3,16
10688,-3e-05,-1e-05,-3e-05,-4e-05,-7e-05,0,-3e-05,-4e-05,3,16
10689,0.00011,0.00012,-1e-05,-5e-05,-0.00019,-0.0002,-6e-05,5e-05,3,16
10690,0.00011,0.00012,-1e-05,-5e-05,-0.00019,-0.0002,-6e-05,5e-05,3,16
10691,0.00011,0.00012,-1e-05,-5e-05,-0.00019,-0.0002,-6e-05,5e-05,3,16
10692,0.00011,0.00012,-1e-05,-5e-05,-0.00019,-0.0002,-6e-05,5e-05,3,16
10693,0.00011,0.00012,-1e-05,-5e-05,-0.00019,-0.0002,-6e-05,5e-05,3,16
10694,0.00011,0.00012,-1e-05,-5e-05,-0.00019,-0.0002,-6e-05,5e-05,3,16
10695,0.00011,0.00012,-1e-05,-5e-05,-0.00019,-0.0002,-6e-05,5e-05,3,16
10696,2e-05,-5e-05,2e-05,0.00014,0.00026,0.0001,-0.00029,-0.0001,3,16
10697,2e-05,-5e-05,2e-05,0.00014,0.00026,0.0001,-0.00029,-0.0001,3,16
10698,2e-05,-5e-05,2e-05,0.00014,0.00026,0.0001,-0.00029,-0.0001,3,16
10699,2e-05,-5e-05,2e-05,0.00014,0.00026,0.0001,-0.00029,-0.0001,3,16
10700,2e-05,-5e-05,2e-05,0.00014,0.00026,0.0001,-0.00029,-0.0001,3,16
10701,2e-05,-5e-05,2e-05,0.00014,0.00026,0.0001,-0.00029,-0.0001,3,16
10702,2e-05,-5e-05,2e-05,0.00014,0.00026,0.0001,-0.00029,-0.0001,3,16
10703,2e-05,-5e-05,2e-05,0.00014,0.00026,0.0001,-0.00029,-0.0001,3,16
10704,2e-05,-5e-05,2e-05,0.00014,0.00026,0.0001,-0.00029,-0.0001,3,16
10705,0.00018,6e-05,1e-05,-1e-05,-7e-05,2e-05,-5e-05,-3e-05,3,16
10706,6e-05,7e-05,2e-05,-7e-05,-0.0001,-7e-05,0.00012,0.00024,3,16
10707,6e-05,7e-05,2e-05,-7e-05,-0.0001,-7e-05,0.00012,0.00024,3,16
10708,6e-05,7e-05,2e-05,-7e-05,-0.0001,-7e-05,0.00012,0.00024,3,16
10709,6e-05,7e-05,2e-05,-7e-05,-0.0001,-7e-05,0.00012,0.00024,3,16
10710,6e-05,7e-05,2e-05,-7e-05,-0.0001,-7e-05,0.00012,0.00024,3,16
10711,6e-05,7e-05,2e-05,-7e-05,-0.0001,-7e-05,0.00012,0.00024,3,16
10712,6e-05,7e-05,2e-05,-7e-05,-0.0001,-7e-05,0.00012,0.00024,3,16
10713,6e-05,7e-05,2e-05,-7e-05,-0.0001,-7e-05,0.00012,0.00024,3,16
10714,6e-05,7e-05,2e-05,-7e-05,-0.0001,-7e-05,0.00012,0.00024,3,16
10715,6e-05,7e-05,2e-05,-7e-05,-0.0001,-7e-05,0.00012,0.00024,3,16
10716,6e-05,7e-05,2e-05,-7e-05,-0.0001,-7e-05,0.00012,0.00024,3,16
10717,6e-05,7e-05,2e-05,-7e-05,-0.0001,-7e-05,0.00012,0.00024,3,16
10718,6e-05,7e-05,2e-05,-7e-05,-0.0001,-7e-05,0.00012,0.00024,3,16
10719,6e-05,7e-05,2e-05,-7e-05,-0.0001,-7e-05,0.00012,0.00024,3,16
10720,0,5e-05,6e-05,6e-05,0.00014,-2e-05,-0.0002,-0.00015,3,16
10721,-1e-05,-6e-05,-0.0001,-9e-05,-0.00019,-2e-05,3e-05,-0.00011,3,16
10722,-1e-05,-6e-05,-0.0001,-9e-05,-0.00019,-2e-05,3e-05,-0.00011,3,16
10723,-1e-05,-6e-05,-0.0001,-9e-05,-0.00019,-2e-05,3e-05,-0.00011,3,16
10724,-1e-05,-6e-05,-0.0001,-9e-05,-0.00019,-2e-05,3e-05,-0.00011,3,16
10725,-1e-05,-6e-05,-0.0001,-9e-05,-0.00019,-2e-05,3e-05,-0.00011,3,16
10726,-1e-05,-6e-05,-0.0001,-9e-05,-0.00019,-2e-05,3e-05,-0.00011,3,16
10727,-1e-05,-6e-05,-0.0001,-9e-05,-0.00019,-2e-05,3e-05,-0.00011,3,16
10728,-1e-05,-6e-05,-0.0001,-9e-05,-0.00019,-2e-05,3e-05,-0.00011,3,16
10729,-1e-05,-6e-05,-0.0001,-9e-05,-0.00019,-2e-05,3e-05,-0.00011,3,16
10730,-1e-05,-6e-05,-0.0001,-9e-05,-0.00019,-2e-05,3e-05,-0.00011,3,16
10731,-1e-05,-6e-05,-0.0001,-9e-05,-0.00019,-2e-05,3e-05,-0.00011,3,16
10732,-1e-05,-6e-05,-0.0001,-9e-05,-0.00019,-2e-05,3e-05,-0.00011,3,16
10733,-1e-05,-6e-05,-0.0001,-9e-05,-0.00019,-2e-05,3e-05,-0.00011,3,16
10734,-1e-05,-6e-05,-0.0001,-9e-05,-0.00019,-2e-05,3e-05,-0.00011,3,16
10735,-1e-05,-6e-05,-0.0001,-9e-05,-0.00019,-2e-05,3e-05,-0.00011,3,16
10736,-1e-05,-6e-05,-0.0001,-9e-05,-0.00019,-2e-05,3e-05,-0.00011,3,16
10738,-1e-05,-6e-05,-0.0001,-9e-05,-0.00019,-2e-05,3e-05,-0.00011,3,16
10739,-1e-05,-6e-05,-0.0001,-9e-05,-0.00019,-2e-05,3e-05,-0.00011,3,16
10740,-1e-05,-6e-05,-0.0001,-9e-05,-0.00019,-2e-05,3e-05,-0.00011,3,16
10741,-1e-05,-6e-05,-0.0001,-9e-05,-0.00019,-2e-05,3e-05,-0.00011,3,16
10742,-0.00013,-6e-05,0,-4e-05,-3e-05,-1e-05,-3e-05,-5e-05,3,16
10743,-0.00013,-6e-05,0,-4e-05,-3e-05,-1e-05,-3e-05,-5e-05,3,16
10744,-3e-05,0,0,4e-05,0.00012,-0.0001,3e-05,-6e-05,3,16
10745,-3e-05,0,0,4e-05,0.00012,-0.0001,3e-05,-6e-05,3,16
10746,-3e-05,0,0,4e-05,0.00012,-0.0001,3e-05,-6e-05,3,16
10747,-3e-05,0,0,4e-05,0.00012,-0.0001,3e-05,-6e-05,3,16
10748,-3e-05,0,0,4e-05,0.00012,-0.0001,3e-05,-6e-05,3,16
10749,-3e-05,0,0,4e-05,0.00012,-0.0001,3e-05,-6e-05,3,16
10750,-3e-05,0,0,4e-05,0.00012,-0.0001,3e-05,-6e-05,3,16
10751,-3e-05,0,0,4e-05,0.00012,-0.0001,3e-05,-6e-05,3,16
10752,-3e-05,0,0,4e-05,0.00012,-0.0001,3e-05,-6e-05,3,16
10753,-3e-05,0,0,4e-05,0.00012,-0.0001,3e-05,-6e-05,3,16
10754,-3e-05,0,0,4e-05,0.00012,-0.0001,3e-05,-6e-05,3,16
10755,-3e-05,0,0,4e-05,0.00012,-0.0001,3e-05,-6e-05,3,16
10756,-3e-05,0,0,4e-05,0.00012,-0.0001,3e-05,-6e-05,3,16
10757,-3e-05,0,0,4e-05,0.00012,-0.0001,3e-05,-6e-05,3,16
10758,-3e-05,0,0,4e-05,0.00012,-0.0001,3e-05,-6e-05,3,16
10759,-3e-05,0,0,4e-05,0.00012,-0.0001,3e-05,-6e-05,3,16
10760,-3e-05,0,0,4e-05,0.00012,-0.0001,3e-05,-6e-05,3,16
10761,-3e-05,0,0,4e-05,0.00012,-0.0001,3e-05,-6e-05,3,16
10762,-3e-05,0,0,4e-05,0.00012,-0.0001,3e-05,-6e-05,3,16
10763,-3e-05,0,0,4e-05,0.00012,-0.0001,3e-05,-6e-05,3,16
10764,-3e-05,0,0,4e-05,0.00012,-0.0001,3e-05,-6e-05,3,16
10765,-1e-05,-6e-05,-2e-05,3e-05,0.00012,3e-05,0.0001,7e-05,3,16
10766,-6e-05,2e-05,3e-05,6e-05,6e-05,-3e-05,-6e-05,-5e-05,3,16
10767,-6e-05,2e-05,3e-05,6e-05,6e-05,-3e-05,-6e-05,-5e-05,3,16
10768,-6e-05,2e-05,3e-05,6e-05,6e-05,-3e-05,-6e-05,-5e-05,3,16
10769,-6e-05,2e-05,3e-05,6e-05,6e-05,-3e-05,-6e-05,-5e-05,3,16
10770,-6e-05,2e-05,3e-05,6e-05,6e-05,-3e-05,-6e-05,-5e-05,3,16
10771,-6e-05,2e-05,3e-05,6e-05,6e-05,-3e-05,-6e-05,-5e-05,3,16
10772,-6e-05,2e-05,3e-05,6e-05,6e-05,-3e-05,-6e-05,-5e-05,3,16
10773,-6e-05,2e-05,3e-05,6e-05,6e-05,-3e-05,-6e-05,-5e-05,3,16
10774,-6e-05,2e-05,3e-05,6e-05,6e-05,-3e-05,-6e-05,-5e-05,3,16
10775,-6e-05,2e-05,3e-05,6e-05,6e-05,-3e-05,-6e-05,-5e-05,3,16
10776,-6e-05,2e-05,3e-05,6e-05,6e-05,-3e-05,-6e-05,-5e-05,3,16
10777,-6e-05,2e-05,3e-05,6e-05,6e-05,-3e-05,-6e-05,-5e-05,3,16
10778,-6e-05,2e-05,3e-05,6e-05,6e-05,-3e-05,-6e-05,-5e-05,3,16
10779,-6e-05,2e-05,3e-05,6e-05,6e-05,-3e-05,-6e-05,-5e-05,3,16
10780,-1e-05,-3e-05,-2e-05,-5e-05,-0.00016,-9e-05,-6e-05,-6e-05,3,16
10781,7e-05,9e-05,5e-05,5e-05,0.00017,0.00013,0.00013,5e-05,3,16
10782,7e-05,9e-05,5e-05,5e-05,0.00017,0.00013,0.00013,5e-05,3,16
10783,7e-05,9e-05,5e-05,5e-05,0.00017,0.00013,0.00013,5e-05,3,16
10784,7e-05,9e-05,5e-05,5e-05,0.00017,0.00013,0.00013,5e-05,3,16
10785,7e-05,9e-05,5e-05,5e-05,0.00017,0.00013,0.00013,5e-05,3,16
10786,7e-05,9e-05,5e-05,5e-05,0.00017,0.00013,0.00013,5e-05,3,16
10788,7e-05,9e-05,5e-05,5e-05,0.00017,0.00013,0.00013,5e-05,3,16
10789,7e-05,9e-05,5e-05,5e-05,0.00017,0.00013,0.00013,5e-05,3,16
10790,7e-05,9e-05,5e-05,5e-05,0.00017,0.00013,0.00013,5e-05,3,16
10791,7e-05,9e-05,5e-05,5e-05,0.00017,0.00013,0.00013,5e-05,3,16
10792,7e-05,9e-05,5e-05,5e-05,0.00017,0.00013,0.00013,5e-05,3,16
10793,7e-05,9e-05,5e-05,5e-05,0.00017,0.00013,0.00013,5e-05,3,16
10794,7e-05,9e-05,5e-05,5e-05,0.00017,0.00013,0.00013,5e-05,3,16
10795,5e-05,-0.00012,-3e-05,-6e-05,-0.00016,7e-05,-0.0001,1e-05,3,16
10796,5e-05,-0.00012,-3e-05,-6e-05,-0.00016,7e-05,-0.0001,1e-05,3,16
10797,5e-05,-0.00012,-3e-05,-6e-05,-0.00016,7e-05,-0.0001,1e-05,3,16
10798,5e-05,-0.00012,-3e-05,-6e-05,-0.00016,7e-05,-0.0001,1e-05,3,16
10799,5e-05,-0.00012,-3e-05,-6e-05,-0.00016,7e-05,-0.0001,1e-05,3,16
10800,5e-05,-0.00012,-3e-05,-6e-05,-0.00016,7e-05,-0.0001,1e-05,3,16
10801,5e-05,-0.00012,-3e-05,-6e-05,-0.00016,7e-05,-0.0001,1e-05,3,16
10802,-5e-05,-1e-05,-1e-05,4e-05,0.00012,5e-05,-3e-05,-0.00015,3,16
10803,9e-05,8e-05,1e-05,-1e-05,-0.0001,-0.0001,-0.00014,-6e-05,3,16
10804,9e-05,8e-05,1e-05,-1e-05,-0.0001,-0.0001,-0.00014,-6e-05,3,16
10805,9e-05,8e-05,1e-05,-1e-05,-0.0001,-0.0001,-0.00014,-6e-05,3,16
10806,9e-05,8e-05,1e-05,-1e-05,-0.0001,-0.0001,-0.00014,-6e-05,3,16
10807,9e-05,8e-05,1e-05,-1e-05,-0.0001,-0.0001,-0.00014,-6e-05,3,16
10808,2e-05,-1e-05,-7e-05,-5e-05,-4e-05,-7e-05,4e-05,0,3,16
10809,2e-05,-1e-05,-7e-05,-5e-05,-4e-05,-7e-05,4e-05,0,3,16
10810,2e-05,-1e-05,-7e-05,-5e-05,-4e-05,-7e-05,4e-05,0,3,16
10811,2e-05,-1e-05,-7e-05,-5e-05,-4e-05,-7e-05,4e-05,0,3,16
10812,2e-05,-1e-05,-7e-05,-5e-05,-4e-05,-7e-05,4e-05,0,3,16
10813,2e-05,-1e-05,-7e-05,-5e-05,-4e-05,-7e-05,4e-05,0,3,16
10814,2e-05,-1e-05,-7e-05,-5e-05,-4e-05,-7e-05,4e-05,0,3,16
10815,2e-05,-1e-05,-7e-05,-5e-05,-4e-05,-7e-05,4e-05,0,3,16
10816,2e-05,-1e-05,-7e-05,-5e-05,-4e-05,-7e-05,4e-05,0,3,16
10817,2e-05,-1e-05,-7e-05,-5e-05,-4e-05,-7e-05,4e-05,0,3,16
10818,2e-05,-1e-05,-7e-05,-5e-05,-4e-05,-7e-05,4e-05,0,3,16
10819,2e-05,-1e-05,-7e-05,-5e-05,-4e-05,-7e-05,4e-05,0,3,16
10820,2e-05,-1e-05,-7e-05,-5e-05,-4e-05,-7e-05,4e-05,0,3,16
10821,2e-05,-1e-05,-7e-05,-5e-05,-4e-05,-7e-05,4e-05,0,3,16
10822,2e-05,-1e-05,-7e-05,-5e-05,-4e-05,-7e-05,4e-05,0,3,16
10823,2e-05,-1e-05,-7e-05,-5e-05,-4e-05,-7e-05,4e-05,0,3,16
10824,0,-4e-05,-5e-05,-5e-05,-8e-05,-3e-05,6e-05,3e-05,3,16
10825,-3e-05,-1e-05,-2e-05,4e-05,6e-05,-1e-05,-3e-05,-1e-05,3,16
10826,-1e-05,-2e-05,4e-05,-1e-05,-6e-05,-7e-05,0.0001,6e-05,3,16
10827,-1e-05,-2e-05,4e-05,-1e-05,-6e-05,-7e-05,0.0001,6e-05,3,16
10828,-1e-05,-2e-05,4e-05,-1e-05,-6e-05,-7e-05,0.0001,6e-05,3,16
10829,-1e-05,-2e-05,4e-05,-1e-05,-6e-05,-7e-05,0.0001,6e-05,3,16
10830,-1e-05,-2e-05,4e-05,-1e-05,-6e-05,-7e-05,0.0001,6e-05,3,16
10831,-1e-05,-2e-05,4e-05,-1e-05,-6e-05,-7e-05,0.0001,6e-05,3,16
10832,-1e-05,-2e-05,4e-05,-1e-05,-6e-05,-7e-05,0.0001,6e-05,3,16
10833,-1e-05,-2e-05,4e-05,-1e-05,-6e-05,-7e-05,0.0001,6e-05,3,16
10834,-1e-05,-2e-05,4e-05,-1e-05,-6e-05,-7e-05,0.0001,6e-05,3,16
10835,-1e-05,-2e-05,4e-05,-1e-05,-6e-05,-7e-05,0.0001,6e-05,3,16
10836,-1e-05,-2e-05,4e-05,-1e-05,-6e-05,-7e-05,0.0001,6e-05,3,16
10838,-1e-05,-2e-05,4e-05,-1e-05,-6e-05,-7e-05,0.0001,6e-05,3,16
10839,-1e-05,-2e-05,4e-05,-1e-05,-6e-05,-7e-05,0.0001,6e-05,3,16
10840,-1e-05,-2e-05,4e-05,-1e-05,-6e-05,-7e-05,0.0001,6e-05,3,16
10841,-1e-05,-2e-05,4e-05,-1e-05,-6e-05,-7e-05,0.0001,6e-05,3,16
10842,-1e-05,-2e-05,4e-05,-1e-05,-6e-05,-7e-05,0.0001,6e-05,3,16
10843,-1e-05,-2e-05,4e-05,-1e-05,-6e-05,-7e-05,0.0001,6e-05,3,16
10844,-1e-05,-2e-05,4e-05,-1e-05,-6e-05,-7e-05,0.0001,6e-05,3,16
10845,-1e-05,-2e-05,4e-05,-1e-05,-6e-05,-7e-05,0.0001,6e-05,3,16
10846,-1e-05,-2e-05,4e-05,-1e-05,-6e-05,-7e-05,0.0001,6e-05,3,16
10847,7e-05,3e-05,1e-05,-2e-05,-9e-05,-7e-05,0.00012,0.00017,3,16
10848,5e-05,3e-05,-9e-05,0.0001,0.00014,0.00012,0.00011,-6e-05,3,16
10849,-3e-05,0,-1e-05,4e-05,0.00018,8e-05,-0.00011,-8e-05,3,16
10850,-3e-05,0,-1e-05,4e-05,0.00018,8e-05,-0.00011,-8e-05,3,16
10851,-3e-05,0,-1e-05,4e-05,0.00018,8e-05,-0.00011,-8e-05,3,16
10852,-3e-05,0,-1e-05,4e-05,0.00018,8e-05,-0.00011,-8e-05,3,16
10853,-3e-05,0,-1e-05,4e-05,0.00018,8e-05,-0.00011,-8e-05,3,16
10854,-3e-05,0,-1e-05,4e-05,0.00018,8e-05,-0.00011,-8e-05,3,16
10855,-3e-05,0,-1e-05,4e-05,0.00018,8e-05,-0.00011,-8e-05,3,16
10856,-3e-05,0,-1e-05,4e-05,0.00018,8e-05,-0.00011,-8e-05,3,16
10857,-3e-05,0,-1e-05,4e-05,0.00018,8e-05,-0.00011,-8e-05,3,16
10858,-3e-05,0,-1e-05,4e-05,0.00018,8e-05,-0.00011,-8e-05,3,16
10859,-3e-05,0,-1e-05,4e-05,0.00018,8e-05,-0.00011,-8e-05,3,16
10860,-3e-05,0,-1e-05,4e-05,0.00018,8e-05,-0.00011,-8e-05,3,16
10861,-3e-05,0,-1e-05,4e-05,0.00018,8e-05,-0.00011,-8e-05,3,16
10862,-6e-05,-4e-05,5e-05,-2e-05,-1e-05,-3e-05,-7e-05,2e-05,3,16
10863,-6e-05,-4e-05,5e-05,-2e-05,-1e-05,-3e-05,-7e-05,2e-05,3,16
10864,-4e-05,-7e-05,0,-4e-05,-7e-05,6e-05,4e-05,1e-05,3,16
10865,-4e-05,-7e-05,0,-4e-05,-7e-05,6e-05,4e-05,1e-05,3,16
10866,-4e-05,-7e-05,0,-4e-05,-7e-05,6e-05,4e-05,1e-05,3,16
10867,-4e-05,-7e-05,0,-4e-05,-7e-05,6e-05,4e-05,1e-05,3,16
10868,-4e-05,-7e-05,0,-4e-05,-7e-05,6e-05,4e-05,1e-05,3,16
10869,-4e-05,-7e-05,0,-4e-05,-7e-05,6e-05,4e-05,1e-05,3,16
10870,-4e-05,-7e-05,0,-4e-05,-7e-05,6e-05,4e-05,1e-05,3,16
10871,-4e-05,-7e-05,0,-4e-05,-7e-05,6e-05,4e-05,1e-05,3,16
10872,-4e-05,-7e-05,0,-4e-05,-7e-05,6e-05,4e-05,1e-05,3,16
10873,-4e-05,-7e-05,0,-4e-05,-7e-05,6e-05,4e-05,1e-05,3,16
10874,-4e-05,-7e-05,0,-4e-05,-7e-05,6e-05,4e-05,1e-05,3,16
10875,-4e-05,-7e-05,0,-4e-05,-7e-05,6e-05,4e-05,1e-05,3,16
10876,-4e-05,-7e-05,0,-4e-05,-7e-05,6e-05,4e-05,1e-05,3,16
10877,-4e-05,-7e-05,0,-4e-05,-7e-05,6e-05,4e-05,1e-05,3,16
10878,-4e-05,-7e-05,0,-4e-05,-7e-05,6e-05,4e-05,1e-05,3,16
10879,-4e-05,-7e-05,0,-4e-05,-7e-05,6e-05,4e-05,1e-05,3,16
10880,-4e-05,-7e-05,0,-4e-05,-7e-05,6e-05,4e-05,1e-05,3,16
10881,-4e-05,-7e-05,0,-4e-05,-7e-05,6e-05,4e-05,1e-05,3,16
10882,-4e-05,-7e-05,0,-4e-05,-7e-05,6e-05,4e-05,1e-05,3,16
10883,-4e-05,-7e-05,0,-4e-05,-7e-05,6e-05,4e-05,1e-05,3,16
10884,-4e-05,-7e-05,0,-4e-05,-7e-05,6e-05,4e-05,1e-05,3,16
10885,2e-05,-2e-05,2e-05,0,-4e-05,0,-0.00013,-0.00012,3,16
10886,2e-05,-2e-05,2e-05,0,-4e-05,0,-0.00013,-0.00012,3,16
10888,7e-05,-1e-05,-3e-05,-1e-05,0,4e-05,0.0002,-3e-05,3,16
10889,7e-05,-1e-05,-3e-05,-1e-05,0,4e-05,0.0002,-3e-05,3,16
10890,7e-05,-1e-05,-3e-05,-1e-05,0,4e-05,0.0002,-3e-05,3,16
10891,7e-05,-1e-05,-3e-05,-1e-05,0,4e-05,0.0002,-3e-05,3,16
10892,7e-05,-1e-05,-3e-05,-1e-05,0,4e-05,0.0002,-3e-05,3,16
10893,7e-05,-1e-05,-3e-05,-1e-05,0,4e-05,0.0002,-3e-05,3,16
10894,7e-05,-1e-05,-3e-05,-1e-05,0,4e-05,0.0002,-3e-05,3,16
10895,7e-05,-1e-05,-3e-05,-1e-05,0,4e-05,0.0002,-3e-05,3,16
10896,7e-05,-1e-05,-3e-05,-1e-05,0,4e-05,0.0002,-3e-05,3,16
10898,7e-05,-1e-05,-3e-05,-1e-05,0,4e-05,0.0002,-3e-05,3,16
10899,1e-05,1e-05,0,4e-05,0.0001,5e-05,0.00023,8e-05,3,16
10900,-0.00016,-0.00012,-4e-05,-3e-05,4e-05,8e-05,0,-7e-05,3,16
10901,-0.00016,-0.00012,-4e-05,-3e-05,4e-05,8e-05,0,-7e-05,3,16
10902,-0.00016,-0.00012,-4e-05,-3e-05,4e-05,8e-05,0,-7e-05,3,16
10903,-0.00016,-0.00012,-4e-05,-3e-05,4e-05,8e-05,0,-7e-05,3,16
10904,-0.00016,-0.00012,-4e-05,-3e-05,4e-05,8e-05,0,-7e-05,3,16
10905,-0.00016,-0.00012,-4e-05,-3e-05,4e-05,8e-05,0,-7e-05,3,16
10906,-0.00016,-0.00012,-4e-05,-3e-05,4e-05,8e-05,0,-7e-05,3,16
10907,-0.00016,-0.00012,-4e-05,-3e-05,4e-05,8e-05,0,-7e-05,3,16
10908,-0.00016,-0.00012,-4e-05,-3e-05,4e-05,8e-05,0,-7e-05,3,16
10909,-0.00016,-0.00012,-4e-05,-3e-05,4e-05,8e-05,0,-7e-05,3,16
10910,-0.00016,-0.00012,-4e-05,-3e-05,4e-05,8e-05,0,-7e-05,3,16
10911,-0.00016,-0.00012,-4e-05,-3e-05,4e-05,8e-05,0,-7e-05,3,16
10912,-0.00016,-0.00012,-4e-05,-3e-05,4e-05,8e-05,0,-7e-05,3,16
10913,-0.00016,-0.00012,-4e-05,-3e-05,4e-05,8e-05,0,-7e-05,3,16
10914,-0.00016,-0.00012,-4e-05,-3e-05,4e-05,8e-05,0,-7e-05,3,16
10915,-0.00016,-0.00012,-4e-05,-3e-05,4e-05,8e-05,0,-7e-05,3,16
10916,-0.00016,-0.00012,-4e-05,-3e-05,4e-05,8e-05,0,-7e-05,3,16
10917,-0.00016,-0.00012,-4e-05,-3e-05,4e-05,8e-05,0,-7e-05,3,16
10918,-0.00016,-0.00012,-4e-05,-3e-05,4e-05,8e-05,0,-7e-05,3,16
10919,-0.00016,-0.00012,-4e-05,-3e-05,4e-05,8e-05,0,-7e-05,3,16
10920,-0.00016,-0.00012,-4e-05,-3e-05,4e-05,8e-05,0,-7e-05,3,16
10921,-0.00016,-0.00012,-4e-05,-3e-05,4e-05,8e-05,0,-7e-05,3,16
10922,-0.00016,-0.00012,-4e-05,-3e-05,4e-05,8e-05,0,-7e-05,3,16
10923,-0.00016,-0.00012,-4e-05,-3e-05,4e-05,8e-05,0,-7e-05,3,16
10924,-0.00016,-0.00012,-4e-05,-3e-05,4e-05,8e-05,0,-7e-05,3,16
10925,-0.00016,-0.00012,-4e-05,-3e-05,4e-05,8e-05,0,-7e-05,3,16
10926,-0.00016,-0.00012,-4e-05,-3e-05,4e-05,8e-05,0,-7e-05,3,16
10927,-0.00016,-0.00012,-4e-05,-3e-05,4e-05,8e-05,0,-7e-05,3,16
10928,-0.00016,-0.00012,-4e-05,-3e-05,4e-05,8e-05,0,-7e-05,3,16
10929,-0.00016,-0.00012,-4e-05,-3e-05,4e-05,8e-05,0,-7e-05,3,16
10930,-0.00016,-0.00012,-4e-05,-3e-05,4e-05,8e-05,0,-7e-05,3,16
10931,-0.00016,-0.00012,-4e-05,-3e-05,4e-05,8e-05,0,-7e-05,3,16
10932,-0.00016,-0.00012,-4e-05,-3e-05,4e-05,8e-05,0,-7e-05,3,16
10933,-0.00016,-0.00012,-4e-05,-3e-05,4e-05,8e-05,0,-7e-05,3,16
10934,-0.00016,-0.00012,-4e-05,-3e-05,4e-05,8e-05,0,-7e-05,3,16
10935,-0.00016,-0.00012,-4e-05,-3e-05,4e-05,8e-05,0,-7e-05,3,16
10936,-0.00016,-0.00012,-4e-05,-3e-05,4e-05,8e-05,0,-7e-05,3,16
10938,-0.00016,-0.00012,-4e-05,-3e-05,4e-05,8e-05,0,-7e-05,3,16
10939,-0.00016,-0.00012,-4e-05,-3e-05,4e-05,8e-05,0,-7e-05,3,16
10940,-0.00016,-0.00012,-4e-05,-3e-05,4e-05,8e-05,0,-7e-05,3,16
10941,-0.00016,-0.00012,-4e-05,-3e-05,4e-05,8e-05,0,-7e-05,3,16
10943,-0.00016,-0.00012,-4e-05,-3e-05,4e-05,8e-05,0,-7e-05,3,16
10944,-0.00016,-0.00012,-4e-05,-3e-05,4e-05,8e-05,0,-7e-05,3,16
10945,-0.00016,-0.00012,-4e-05,-3e-05,4e-05,8e-05,0,-7e-05,3,16
10946,0.0001,0.00014,9e-05,2e-05,-4e-05,2e-05,7e-05,2e-05,3,16
10947,1e-05,-2e-05,-9e-05,1e-05,0,0,8e-05,2e-05,3,16
10948,6e-05,-8e-05,-5e-05,-4e-05,-9e-05,-1e-05,1e-05,7e-05,3,16
10949,6e-05,-8e-05,-5e-05,-4e-05,-9e-05,-1e-05,1e-05,7e-05,3,16
10950,6e-05,-8e-05,-5e-05,-4e-05,-9e-05,-1e-05,1e-05,7e-05,3,16
10951,6e-05,-8e-05,-5e-05,-4e-05,-9e-05,-1e-05,1e-05,7e-05,3,16
10952,-5e-05,1e-05,-2e-05,-6e-05,-0.00013,-3e-05,-0.00017,-6e-05,3,16
10953,-5e-05,1e-05,-2e-05,-6e-05,-0.00013,-3e-05,-0.00017,-6e-05,3,16
10954,-0.0001,4e-05,3e-05,-1e-05,1e-05,0.0001,3e-05,-8e-05,3,16
10955,-0.0001,4e-05,3e-05,-1e-05,1e-05,0.0001,3e-05,-8e-05,3,16
10956,-0.0001,4e-05,3e-05,-1e-05,1e-05,0.0001,3e-05,-8e-05,3,16
10957,-0.0001,4e-05,3e-05,-1e-05,1e-05,0.0001,3e-05,-8e-05,3,16
10958,-0.0001,4e-05,3e-05,-1e-05,1e-05,0.0001,3e-05,-8e-05,3,16
10959,-0.0001,4e-05,3e-05,-1e-05,1e-05,0.0001,3e-05,-8e-05,3,16
10960,-0.0001,4e-05,3e-05,-1e-05,1e-05,0.0001,3e-05,-8e-05,3,16
10961,-0.0001,4e-05,3e-05,-1e-05,1e-05,0.0001,3e-05,-8e-05,3,16
10962,-0.0001,4e-05,3e-05,-1e-05,1e-05,0.0001,3e-05,-8e-05,3,16
10963,-0.0001,4e-05,3e-05,-1e-05,1e-05,0.0001,3e-05,-8e-05,3,16
10964,-0.0001,4e-05,3e-05,-1e-05,1e-05,0.0001,3e-05,-8e-05,3,16
10965,-0.0001,4e-05,3e-05,-1e-05,1e-05,0.0001,3e-05,-8e-05,3,16
10966,-0.0001,4e-05,3e-05,-1e-05,1e-05,0.0001,3e-05,-8e-05,3,16
10967,-0.0001,4e-05,3e-05,-1e-05,1e-05,0.0001,3e-05,-8e-05,3,16
10968,-0.0001,-0.00011,2e-05,0.00013,0.00027,0.00013,7e-05,-7e-05,3,16
10969,-0.0001,-0.00011,2e-05,0.00013,0.00027,0.00013,7e-05,-7e-05,3,16
10970,-1e-05,-1e-05,-7e-05,2e-05,2e-05,7e-05,-0.0001,-1e-05,3,16
10971,-1e-05,-1e-05,-7e-05,2e-05,2e-05,7e-05,-0.0001,-1e-05,3,16
10972,-1e-05,-1e-05,-7e-05,2e-05,2e-05,7e-05,-0.0001,-1e-05,3,16
10973,-1e-05,-1e-05,-7e-05,2e-05,2e-05,7e-05,-0.0001,-1e-05,3,16
10974,-1e-05,-1e-05,-7e-05,2e-05,2e-05,7e-05,-0.0001,-1e-05,3,16
10975,-1e-05,-1e-05,-7e-05,2e-05,2e-05,7e-05,-0.0001,-1e-05,3,16
10976,-1e-05,-1e-05,-7e-05,2e-05,2e-05,7e-05,-0.0001,-1e-05,3,16
10977,-1e-05,-1e-05,-7e-05,2e-05,2e-05,7e-05,-0.0001,-1e-05,3,16
10978,-1e-05,-1e-05,-7e-05,2e-05,2e-05,7e-05,-0.0001,-1e-05,3,16
10979,-1e-05,-1e-05,-7e-05,2e-05,2e-05,7e-05,-0.0001,-1e-05,3,16
10980,-1e-05,-1e-05,-7e-05,2e-05,2e-05,7e-05,-0.0001,-1e-05,3,16
10981,-1e-05,-1e-05,-7e-05,2e-05,2e-05,7e-05,-0.0001,-1e-05,3,16
10982,-4e-05,3e-05,0,-7e-05,-0.00013,-0.00012,-5e-05,-1e-05,3,16
10983,-4e-05,3e-05,0,-7e-05,-0.00013,-0.00012,-5e-05,-1e-05,3,16
10984,-4e-05,3e-05,0,-7e-05,-0.00013,-0.00012,-5e-05,-1e-05,3,16
10985,-4e-05,3e-05,0,-7e-05,-0.00013,-0.00012,-5e-05,-1e-05,3,16
10986,-4e-05,3e-05,0,-7e-05,-0.00013,-0.00012,-5e-05,-1e-05,3,16
10988,-4e-05,3e-05,0,-7e-05,-0.00013,-0.00012,-5e-05,-1e-05,3,16
10989,-4e-05,3e-05,0,-7e-05,-0.00013,-0.00012,-5e-05,-1e-05,3,16
10990,-4e-05,6e-05,-9e-05,-0.00011,-0.00021,-9e-05,-0.00032,0.0001,3,16
10991,-4e-05,6e-05,-9e-05,-0.00011,-0.00021,-9e-05,-0.00032,0.0001,3,16
10992,-4e-05,6e-05,-9e-05,-0.00011,-0.00021,-9e-05,-0.00032,0.0001,3,16
10993,-4e-05,6e-05,-9e-05,-0.00011,-0.00021,-9e-05,-0.00032,0.0001,3,16
10994,-4e-05,6e-05,-9e-05,-0.00011,-0.00021,-9e-05,-0.00032,0.0001,3,16
10995,-4e-05,6e-05,-9e-05,-0.00011,-0.00021,-9e-05,-0.00032,0.0001,3,16
10996,-4e-05,6e-05,-9e-05,-0.00011,-0.00021,-9e-05,-0.00032,0.0001,3,16
10997,-4e-05,6e-05,-9e-05,-0.00011,-0.00021,-9e-05,-0.00032,0.0001,3,16
10998,-4e-05,6e-05,-9e-05,-0.00011,-0.00021,-9e-05,-0.00032,0.0001,3,16
10999,-4e-05,6e-05,-9e-05,-0.00011,-0.00021,-9e-05,-0.00032,0.0001,3,16
11000,-4e-05,6e-05,-9e-05,-0.00011,-0.00021,-9e-05,-0.00032,0.0001,3,16
11001,-4e-05,6e-05,-9e-05,-0.00011,-0.00021,-9e-05,-0.00032,0.0001,3,16
11002,-4e-05,6e-05,-9e-05,-0.00011,-0.00021,-9e-05,-0.00032,0.0001,3,16
11003,-4e-05,6e-05,-9e-05,-0.00011,-0.00021,-9e-05,-0.00032,0.0001,3,16
11004,-4e-05,6e-05,-9e-05,-0.00011,-0.00021,-9e-05,-0.00032,0.0001,3,16
11005,-4e-05,6e-05,-9e-05,-0.00011,-0.00021,-9e-05,-0.00032,0.0001,3,16
11006,-4e-05,6e-05,-9e-05,-0.00011,-0.00021,-9e-05,-0.00032,0.0001,3,16
11007,-4e-05,6e-05,-9e-05,-0.00011,-0.00021,-9e-05,-0.00032,0.0001,3,16
11008,-4e-05,6e-05,-9e-05,-0.00011,-0.00021,-9e-05,-0.00032,0.0001,3,16
11009,-4e-05,6e-05,-9e-05,-0.00011,-0.00021,-9e-05,-0.00032,0.0001,3,16
11010,-4e-05,6e-05,-9e-05,-0.00011,-0.00021,-9e-05,-0.00032,0.0001,3,16
11011,-4e-05,6e-05,-9e-05,-0.00011,-0.00021,-9e-05,-0.00032,0.0001,3,16
11012,-4e-05,6e-05,-9e-05,-0.00011,-0.00021,-9e-05,-0.00032,0.0001,3,16
11013,8e-05,-2e-05,-4e-05,8e-05,0,0.0001,-5e-05,2e-05,3,16
11014,8e-05,-2e-05,-4e-05,8e-05,0,0.0001,-5e-05,2e-05,3,16
11015,8e-05,-2e-05,-4e-05,8e-05,0,0.0001,-5e-05,2e-05,3,16
11016,8e-05,-2e-05,-4e-05,8e-05,0,0.0001,-5e-05,2e-05,3,16
11017,8e-05,-2e-05,-4e-05,8e-05,0,0.0001,-5e-05,2e-05,3,16
11018,8e-05,-2e-05,-4e-05,8e-05,0,0.0001,-5e-05,2e-05,3,16
11019,8e-05,-2e-05,-4e-05,8e-05,0,0.0001,-5e-05,2e-05,3,16
11020,8e-05,-2e-05,-4e-05,8e-05,0,0.0001,-5e-05,2e-05,3,16
11021,8e-05,-2e-05,-4e-05,8e-05,0,0.0001,-5e-05,2e-05,3,16
11022,8e-05,-2e-05,-4e-05,8e-05,0,0.0001,-5e-05,2e-05,3,16
11023,8e-05,-2e-05,-4e-05,8e-05,0,0.0001,-5e-05,2e-05,3,16
11024,8e-05,-2e-05,-4e-05,8e-05,0,0.0001,-5e-05,2e-05,3,16
11025,8e-05,-2e-05,-4e-05,8e-05,0,0.0001,-5e-05,2e-05,3,16
11026,8e-05,-2e-05,-4e-05,8e-05,0,0.0001,-5e-05,2e-05,3,16
11027,8e-05,-2e-05,-4e-05,8e-05,0,0.0001,-5e-05,2e-05,3,16
11028,8e-05,9e-05,6e-05,3e-05,-3e-05,0,0.00019,0.00011,3,16
11029,8e-05,9e-05,6e-05,3e-05,-3e-05,0,0.00019,0.00011,3,16
11030,-4e-05,-5e-05,-3e-05,-5e-05,-7e-05,-8e-05,-7e-05,-0.00011,3,16
11031,-4e-05,-5e-05,-3e-05,-5e-05,-7e-05,-8e-05,-7e-05,-0.00011,3,16
11032,-4e-05,-5e-05,-3e-05,-5e-05,-7e-05,-8e-05,-7e-05,-0.00011,3,16
11033,-4e-05,-5e-05,-3e-05,-5e-05,-7e-05,-8e-05,-7e-05,-0.00011,3,16
11034,-4e-05,-5e-05,-3e-05,-5e-05,-7e-05,-8e-05,-7e-05,-0.00011,3,16
11035,-4e-05,-5e-05,-3e-05,-5e-05,-7e-05,-8e-05,-7e-05,-0.00011,3,16
11036,-4e-05,-5e-05,-3e-05,-5e-05,-7e-05,-8e-05,-7e-05,-0.00011,3,16
11038,-4e-05,-5e-05,-3e-05,-5e-05,-7e-05,-8e-05,-7e-05,-0.00011,3,16
11039,-4e-05,-5e-05,-3e-05,-5e-05,-7e-05,-8e-05,-7e-05,-0.00011,3,16
11040,-4e-05,-5e-05,-3e-05,-5e-05,-7e-05,-8e-05,-7e-05,-0.00011,3,16
11041,-4e-05,-5e-05,-3e-05,-5e-05,-7e-05,-8e-05,-7e-05,-0.00011,3,16
11042,7e-05,0,0,-3e-05,-7e-05,6e-05,0.00026,4e-05,3,16
11043,7e-05,0,0,-3e-05,-7e-05,6e-05,0.00026,4e-05,3,16
11044,-6e-05,-6e-05,-4e-05,-0.0001,-0.00015,-0.00018,-5e-05,-7e-05,3,16
11045,-6e-05,-6e-05,-4e-05,-0.0001,-0.00015,-0.00018,-5e-05,-7e-05,3,16
11046,-6e-05,-6e-05,-4e-05,-0.0001,-0.00015,-0.00018,-5e-05,-7e-05,3,16
11047,-6e-05,-6e-05,-4e-05,-0.0001,-0.00015,-0.00018,-5e-05,-7e-05,3,16
11048,-6e-05,-6e-05,-4e-05,-0.0001,-0.00015,-0.00018,-5e-05,-7e-05,3,16
11049,-6e-05,-6e-05,-4e-05,-0.0001,-0.00015,-0.00018,-5e-05,-7e-05,3,16
11050,-6e-05,-6e-05,-4e-05,-0.0001,-0.00015,-0.00018,-5e-05,-7e-05,3,16
11051,-6e-05,-6e-05,-4e-05,-0.0001,-0.00015,-0.00018,-5e-05,-7e-05,3,16
11052,-6e-05,-6e-05,-4e-05,-0.0001,-0.00015,-0.00018,-5e-05,-7e-05,3,16
11053,-6e-05,-6e-05,-4e-05,-0.0001,-0.00015,-0.00018,-5e-05,-7e-05,3,16
11054,-6e-05,-6e-05,-4e-05,-0.0001,-0.00015,-0.00018,-5e-05,-7e-05,3,16
11055,-6e-05,-6e-05,-4e-05,-0.0001,-0.00015,-0.00018,-5e-05,-7e-05,3,16
11056,-6e-05,-6e-05,-4e-05,-0.0001,-0.00015,-0.00018,-5e-05,-7e-05,3,16
11057,-6e-05,-6e-05,-4e-05,-0.0001,-0.00015,-0.00018,-5e-05,-7e-05,3,16
11058,-6e-05,-6e-05,-4e-05,-0.0001,-0.00015,-0.00018,-5e-05,-7e-05,3,16
11059,-6e-05,-6e-05,-4e-05,-0.0001,-0.00015,-0.00018,-5e-05,-7e-05,3,16
11060,-6e-05,-6e-05,-4e-05,-0.0001,-0.00015,-0.00018,-5e-05,-7e-05,3,16
11061,-6e-05,-6e-05,-4e-05,-0.0001,-0.00015,-0.00018,-5e-05,-7e-05,3,16
11062,-6e-05,-6e-05,-4e-05,-0.0001,-0.00015,-0.00018,-5e-05,-7e-05,3,16
11063,-6e-05,-6e-05,-4e-05,-0.0001,-0.00015,-0.00018,-5e-05,-7e-05,3,16
11064,-6e-05,-6e-05,-4e-05,-0.0001,-0.00015,-0.00018,-5e-05,-7e-05,3,16
11065,-5e-05,-2e-05,3e-05,1e-05,3e-05,0,0,8e-05,3,16
11066,-5e-05,-2e-05,3e-05,1e-05,3e-05,0,0,8e-05,3,16
11067,-5e-05,-2e-05,3e-05,1e-05,3e-05,0,0,8e-05,3,16
11068,-5e-05,-2e-05,3e-05,1e-05,3e-05,0,0,8e-05,3,16
11069,-5e-05,-2e-05,3e-05,1e-05,3e-05,0,0,8e-05,3,16
11070,-5e-05,-2e-05,3e-05,1e-05,3e-05,0,0,8e-05,3,16
11071,-3e-05,-9e-05,-4e-05,-2e-05,-3e-05,3e-05,7e-05,-7e-05,3,16
11072,-3e-05,-9e-05,-4e-05,-2e-05,-3e-05,3e-05,7e-05,-7e-05,3,16
11073,-3e-05,-9e-05,-4e-05,-2e-05,-3e-05,3e-05,7e-05,-7e-05,3,16
11074,-3e-05,-9e-05,-4e-05,-2e-05,-3e-05,3e-05,7e-05,-7e-05,3,16
11075,-3e-05,-9e-05,-4e-05,-2e-05,-3e-05,3e-05,7e-05,-7e-05,3,16
11076,-3e-05,-9e-05,-4e-05,-2e-05,-3e-05,3e-05,7e-05,-7e-05,3,16
11077,-3e-05,-9e-05,-4e-05,-2e-05,-3e-05,3e-05,7e-05,-7e-05,3,16
11078,-3e-05,-9e-05,-4e-05,-2e-05,-3e-05,3e-05,7e-05,-7e-05,3,16
11079,0.00013,1e-05,0,-1e-05,1e-05,-8e-05,-7e-05,0.00015,3,16
11080,0.00013,1e-05,0,-1e-05,1e-05,-8e-05,-7e-05,0.00015,3,16
11081,0.00013,1e-05,0,-1e-05,1e-05,-8e-05,-7e-05,0.00015,3,16
11082,0.00013,1e-05,0,-1e-05,1e-05,-8e-05,-7e-05,0.00015,3,16
11083,0.00013,1e-05,0,-1e-05,1e-05,-8e-05,-7e-05,0.00015,3,16
11084,0.00013,1e-05,0,-1e-05,1e-05,-8e-05,-7e-05,0.00015,3,16
11085,0.00013,1e-05,0,-1e-05,1e-05,-8e-05,-7e-05,0.00015,3,16
11086,4e-05,2e-05,-6e-05,2e-05,0.00013,4e-05,-7e-05,0.00011,3,16
11088,4e-05,2e-05,-6e-05,2e-05,0.00013,4e-05,-7e-05,0.00011,3,16
11089,4e-05,2e-05,-6e-05,2e-05,0.00013,4e-05,-7e-05,0.00011,3,16
11090,4e-05,2e-05,-6e-05,2e-05,0.00013,4e-05,-7e-05,0.00011,3,16
11091,4e-05,2e-05,-6e-05,2e-05,0.00013,4e-05,-7e-05,0.00011,3,16
11092,4e-05,2e-05,-6e-05,2e-05,0.00013,4e-05,-7e-05,0.00011,3,16
11093,4e-05,2e-05,-6e-05,2e-05,0.00013,4e-05,-7e-05,0.00011,3,16
11094,4e-05,2e-05,-6e-05,2e-05,0.00013,4e-05,-7e-05,0.00011,3,16
11095,4e-05,2e-05,-6e-05,2e-05,0.00013,4e-05,-7e-05,0.00011,3,16
11096,4e-05,2e-05,-6e-05,2e-05,0.00013,4e-05,-7e-05,0.00011,3,16
11097,4e-05,2e-05,-6e-05,2e-05,0.00013,4e-05,-7e-05,0.00011,3,16
11098,4e-05,2e-05,-6e-05,2e-05,0.00013,4e-05,-7e-05,0.00011,3,16
11099,4e-05,2e-05,-6e-05,2e-05,0.00013,4e-05,-7e-05,0.00011,3,16
11100,4e-05,2e-05,-6e-05,2e-05,0.00013,4e-05,-7e-05,0.00011,3,16
11101,4e-05,2e-05,-6e-05,2e-05,0.00013,4e-05,-7e-05,0.00011,3,16
11102,4e-05,2e-05,-6e-05,2e-05,0.00013,4e-05,-7e-05,0.00011,3,16
11103,4e-05,2e-05,-6e-05,2e-05,0.00013,4e-05,-7e-05,0.00011,3,16
11104,4e-05,2e-05,-6e-05,2e-05,0.00013,4e-05,-7e-05,0.00011,3,16
11105,4e-05,2e-05,-6e-05,2e-05,0.00013,4e-05,-7e-05,0.00011,3,16
11106,4e-05,2e-05,-6e-05,2e-05,0.00013,4e-05,-7e-05,0.00011,3,16
11107,4e-05,2e-05,-6e-05,2e-05,0.00013,4e-05,-7e-05,0.00011,3,16
11108,4e-05,2e-05,-6e-05,2e-05,0.00013,4e-05,-7e-05,0.00011,3,16
11109,4e-05,2e-05,-6e-05,2e-05,0.00013,4e-05,-7e-05,0.00011,3,16
11110,4e-05,2e-05,-6e-05,2e-05,0.00013,4e-05,-7e-05,0.00011,3,16
11111,4e-05,2e-05,-6e-05,2e-05,0.00013,4e-05,-7e-05,0.00011,3,16
11112,4e-05,2e-05,-6e-05,2e-05,0.00013,4e-05,-7e-05,0.00011,3,16
11113,4e-05,2e-05,-6e-05,2e-05,0.00013,4e-05,-7e-05,0.00011,3,16
11114,4e-05,2e-05,-6e-05,2e-05,0.00013,4e-05,-7e-05,0.00011,3,16
11115,4e-05,2e-05,-6e-05,2e-05,0.00013,4e-05,-7e-05,0.00011,3,16
11116,4e-05,2e-05,-6e-05,2e-05,0.00013,4e-05,-7e-05,0.00011,3,16
11117,0,0,-2e-05,-3e-05,-4e-05,5e-05,5e-05,-2e-05,3,16
11118,0,0,-2e-05,-3e-05,-4e-05,5e-05,5e-05,-2e-05,3,16
11119,-2e-05,-1e-05,2e-05,-9e-05,-7e-05,-9e-05,-1e-05,8e-05,3,16
11120,-2e-05,-1e-05,2e-05,-9e-05,-7e-05,-9e-05,-1e-05,8e-05,3,16
11121,-2e-05,-1e-05,2e-05,-9e-05,-7e-05,-9e-05,-1e-05,8e-05,3,16
11122,-2e-05,-1e-05,2e-05,-9e-05,-7e-05,-9e-05,-1e-05,8e-05,3,16
11123,-2e-05,-1e-05,2e-05,-9e-05,-7e-05,-9e-05,-1e-05,8e-05,3,16
11124,-2e-05,-1e-05,2e-05,-9e-05,-7e-05,-9e-05,-1e-05,8e-05,3,16
11125,0,-6e-05,-5e-05,-4e-05,0,-3e-05,-0.00012,-6e-05,3,16
11126,1e-05,-6e-05,-2e-05,-1e-05,-0.0001,-4e-05,1e-05,0,3,16
11127,1e-05,-6e-05,-2e-05,-1e-05,-0.0001,-4e-05,1e-05,0,3,16
11128,1e-05,-6e-05,-2e-05,-1e-05,-0.0001,-4e-05,1e-05,0,3,16
11129,1e-05,-6e-05,-2e-05,-1e-05,-0.0001,-4e-05,1e-05,0,3,16
11131,1e-05,-6e-05,-2e-05,-1e-05,-0.0001,-4e-05,1e-05,0,3,16
11132,1e-05,-6e-05,-2e-05,-1e-05,-0.0001,-4e-05,1e-05,0,3,16
11133,1e-05,-6e-05,-2e-05,-1e-05,-0.0001,-4e-05,1e-05,0,3,16
11134,1e-05,-6e-05,-2e-05,-1e-05,-0.0001,-4e-05,1e-05,0,3,16
11135,1e-05,-6e-05,-2e-05,-1e-05,-0.0001,-4e-05,1e-05,0,3,16
11136,1e-05,-6e-05,-2e-05,-1e-05,-0.0001,-4e-05,1e-05,0,3,16
11138,1e-05,-3e-05,-7e-05,-2e-05,5e-05,1e-05,0.0001,6e-05,3,16
11139,-0.00019,-8e-05,-1e-05,-4e-05,-0.0001,-0.00013,5e-05,1e-05,3,16
11140,-0.00019,-8e-05,-1e-05,-4e-05,-0.0001,-0.00013,5e-05,1e-05,3,16
11141,-0.00019,-8e-05,-1e-05,-4e-05,-0.0001,-0.00013,5e-05,1e-05,3,16
11142,-0.00019,-8e-05,-1e-05,-4e-05,-0.0001,-0.00013,5e-05,1e-05,3,16
11143,-0.00019,-8e-05,-1e-05,-4e-05,-0.0001,-0.00013,5e-05,1e-05,3,16
11144,-0.00019,-8e-05,-1e-05,-4e-05,-0.0001,-0.00013,5e-05,1e-05,3,16
11145,-0.00019,-8e-05,-1e-05,-4e-05,-0.0001,-0.00013,5e-05,1e-05,3,16
11146,-0.00019,-8e-05,-1e-05,-4e-05,-0.0001,-0.00013,5e-05,1e-05,3,16
11147,-0.00019,-8e-05,-1e-05,-4e-05,-0.0001,-0.00013,5e-05,1e-05,3,16
11148,-0.00019,-8e-05,-1e-05,-4e-05,-0.0001,-0.00013,5e-05,1e-05,3,16
11149,-0.00019,-8e-05,-1e-05,-4e-05,-0.0001,-0.00013,5e-05,1e-05,3,16
11150,-0.00019,-8e-05,-1e-05,-4e-05,-0.0001,-0.00013,5e-05,1e-05,3,16
11151,-0.00019,-8e-05,-1e-05,-4e-05,-0.0001,-0.00013,5e-05,1e-05,3,16
11152,-0.00019,-8e-05,-1e-05,-4e-05,-0.0001,-0.00013,5e-05,1e-05,3,16
11153,-0.00019,-8e-05,-1e-05,-4e-05,-0.0001,-0.00013,5e-05,1e-05,3,16
11154,-0.00019,-8e-05,-1e-05,-4e-05,-0.0001,-0.00013,5e-05,1e-05,3,16
11155,-0.00019,-8e-05,-1e-05,-4e-05,-0.0001,-0.00013,5e-05,1e-05,3,16
11156,-0.00019,-8e-05,-1e-05,-4e-05,-0.0001,-0.00013,5e-05,1e-05,3,16
11157,-0.00019,-8e-05,-1e-05,-4e-05,-0.0001,-0.00013,5e-05,1e-05,3,16
11158,-0.00019,-8e-05,-1e-05,-4e-05,-0.0001,-0.00013,5e-05,1e-05,3,16
11159,-0.00019,-8e-05,-1e-05,-4e-05,-0.0001,-0.00013,5e-05,1e-05,3,16
11160,-0.00019,-8e-05,-1e-05,-4e-05,-0.0001,-0.00013,5e-05,1e-05,3,16
11161,-0.00019,-8e-05,-1e-05,-4e-05,-0.0001,-0.00013,5e-05,1e-05,3,16
11162,-0.00019,-8e-05,-1e-05,-4e-05,-0.0001,-0.00013,5e-05,1e-05,3,16
11163,-0.00019,-8e-05,-1e-05,-4e-05,-0.0001,-0.00013,5e-05,1e-05,3,16
11164,-7e-05,-3e-05,7e-05,3e-05,8e-05,5e-05,2e-05,5e-05,3,16
11165,-4e-05,-4e-05,-9e-05,-0.00013,-0.00017,-0.0001,-8e-05,2e-05,3,16
11166,-4e-05,-4e-05,-9e-05,-0.00013,-0.00017,-0.0001,-8e-05,2e-05,3,16
11167,-4e-05,-4e-05,-9e-05,-0.00013,-0.00017,-0.0001,-8e-05,2e-05,3,16
11168,-0.00011,-4e-05,1e-05,-1e-05,3e-05,-5e-05,2e-05,-5e-05,3,16
11169,-0.00011,-4e-05,1e-05,-1e-05,3e-05,-5e-05,2e-05,-5e-05,3,16
11170,-0.00011,-4e-05,1e-05,-1e-05,3e-05,-5e-05,2e-05,-5e-05,3,16
11171,-0.00011,-4e-05,1e-05,-1e-05,3e-05,-5e-05,2e-05,-5e-05,3,16
11172,-0.00011,-4e-05,1e-05,-1e-05,3e-05,-5e-05,2e-05,-5e-05,3,16
11173,-0.00011,-4e-05,1e-05,-1e-05,3e-05,-5e-05,2e-05,-5e-05,3,16
11174,-0.00011,-4e-05,1e-05,-1e-05,3e-05,-5e-05,2e-05,-5e-05,3,16
11175,-0.00011,-4e-05,1e-05,-1e-05,3e-05,-5e-05,2e-05,-5e-05,3,16
11176,-0.00011,-4e-05,1e-05,-1e-05,3e-05,-5e-05,2e-05,-5e-05,3,16
11177,-0.00011,-4e-05,1e-05,-1e-05,3e-05,-5e-05,2e-05,-5e-05,3,16
11178,-0.00011,-4e-05,1e-05,-1e-05,3e-05,-5e-05,2e-05,-5e-05,3,16
11179,-0.00011,-4e-05,1e-05,-1e-05,3e-05,-5e-05,2e-05,-5e-05,3,16
11180,-0.00011,-4e-05,1e-05,-1e-05,3e-05,-5e-05,2e-05,-5e-05,3,16
11181,-0.00011,-4e-05,1e-05,-1e-05,3e-05,-5e-05,2e-05,-5e-05,3,16
11182,-0.00011,-4e-05,1e-05,-1e-05,3e-05,-5e-05,2e-05,-5e-05,3,16
11183,-0.00011,-4e-05,1e-05,-1e-05,3e-05,-5e-05,2e-05,-5e-05,3,16
11184,-0.00011,-4e-05,1e-05,-1e-05,3e-05,-5e-05,2e-05,-5e-05,3,16
11185,-3e-05,2e-05,3e-05,-4e-05,-0.00013,-2e-05,-6e-05,-7e-05,3,16
11186,-3e-05,2e-05,3e-05,-4e-05,-0.00013,-2e-05,-6e-05,-7e-05,3,16
11188,1e-05,-2e-05,-1e-05,6e-05,2e-05,8e-05,9e-05,0.00017,3,16
11189,1e-05,-2e-05,-1e-05,6e-05,2e-05,8e-05,9e-05,0.00017,3,16
11190,1e-05,-2e-05,-1e-05,6e-05,2e-05,8e-05,9e-05,0.00017,3,16
11191,1e-05,-2e-05,-1e-05,6e-05,2e-05,8e-05,9e-05,0.00017,3,16
11192,1e-05,-2e-05,-1e-05,6e-05,2e-05,8e-05,9e-05,0.00017,3,16
11193,1e-05,-2e-05,-1e-05,6e-05,2e-05,8e-05,9e-05,0.00017,3,16
11194,1e-05,-2e-05,-1e-05,6e-05,2e-05,8e-05,9e-05,0.00017,3,16
11195,1e-05,-2e-05,-1e-05,6e-05,2e-05,8e-05,9e-05,0.00017,3,16
11196,1e-05,-2e-05,-1e-05,6e-05,2e-05,8e-05,9e-05,0.00017,3,16
11197,1e-05,-2e-05,-1e-05,6e-05,2e-05,8e-05,9e-05,0.00017,3,16
11198,1e-05,-2e-05,-1e-05,6e-05,2e-05,8e-05,9e-05,0.00017,3,16
11199,1e-05,-2e-05,-1e-05,6e-05,2e-05,8e-05,9e-05,0.00017,3,16
11200,1e-05,-2e-05,-1e-05,6e-05,2e-05,8e-05,9e-05,0.00017,3,16
11201,1e-05,-2e-05,-1e-05,6e-05,2e-05,8e-05,9e-05,0.00017,3,16
11202,1e-05,-2e-05,-1e-05,6e-05,2e-05,8e-05,9e-05,0.00017,3,16
11203,1e-05,-2e-05,-1e-05,6e-05,2e-05,8e-05,9e-05,0.00017,3,16
11204,1e-05,-2e-05,-1e-05,6e-05,2e-05,8e-05,9e-05,0.00017,3,16
11205,1e-05,-2e-05,-1e-05,6e-05,2e-05,8e-05,9e-05,0.00017,3,16
11206,1e-05,-2e-05,-1e-05,6e-05,2e-05,8e-05,9e-05,0.00017,3,16
11207,7e-05,3e-05,-2e-05,0,2e-05,-3e-05,-2e-05,1e-05,3,16
11208,7e-05,3e-05,-2e-05,0,2e-05,-3e-05,-2e-05,1e-05,3,16
11209,7e-05,4e-05,1e-05,2e-05,-1e-05,3e-05,2e-05,-0.00011,3,16
11210,7e-05,4e-05,1e-05,2e-05,-1e-05,3e-05,2e-05,-0.00011,3,16
11211,7e-05,4e-05,1e-05,2e-05,-1e-05,3e-05,2e-05,-0.00011,3,16
11212,7e-05,4e-05,1e-05,2e-05,-1e-05,3e-05,2e-05,-0.00011,3,16
11213,7e-05,4e-05,1e-05,2e-05,-1e-05,3e-05,2e-05,-0.00011,3,16
11214,7e-05,4e-05,1e-05,2e-05,-1e-05,3e-05,2e-05,-0.00011,3,16
11215,7e-05,4e-05,1e-05,2e-05,-1e-05,3e-05,2e-05,-0.00011,3,16
11216,7e-05,4e-05,1e-05,2e-05,-1e-05,3e-05,2e-05,-0.00011,3,16
11217,7e-05,4e-05,1e-05,2e-05,-1e-05,3e-05,2e-05,-0.00011,3,16
11218,7e-05,4e-05,1e-05,2e-05,-1e-05,3e-05,2e-05,-0.00011,3,16
11219,7e-05,4e-05,1e-05,2e-05,-1e-05,3e-05,2e-05,-0.00011,3,16
11220,7e-05,4e-05,1e-05,2e-05,-1e-05,3e-05,2e-05,-0.00011,3,16
11221,7e-05,4e-05,1e-05,2e-05,-1e-05,3e-05,2e-05,-0.00011,3,16
11222,-0.0001,3e-05,4e-05,0,-1e-05,0.00012,0.00013,-5e-05,3,16
11223,-0.00016,-7e-05,-1e-05,-0.00012,-0.00013,-0.00014,-0.00016,-0.00013,3,16
11224,-0.00012,-8e-05,-0.00017,-3e-05,-3e-05,-5e-05,-6e-05,-8e-05,3,16
11225,-0.00012,-8e-05,-0.00017,-3e-05,-3e-05,-5e-05,-6e-05,-8e-05,3,16
11226,-0.00012,-8e-05,-0.00017,-3e-05,-3e-05,-5e-05,-6e-05,-8e-05,3,16
11227,-0.00012,-8e-05,-0.00017,-3e-05,-3e-05,-5e-05,-6e-05,-8e-05,3,16
11228,-0.00012,-8e-05,-0.00017,-3e-05,-3e-05,-5e-05,-6e-05,-8e-05,3,16
11229,-0.00012,-8e-05,-0.00017,-3e-05,-3e-05,-5e-05,-6e-05,-8e-05,3,16
11230,-0.00012,-8e-05,-0.00017,-3e-05,-3e-05,-5e-05,-6e-05,-8e-05,3,16
11231,-0.00012,-8e-05,-0.00017,-3e-05,-3e-05,-5e-05,-6e-05,-8e-05,3,16
11232,-0.00012,-8e-05,-0.00017,-3e-05,-3e-05,-5e-05,-6e-05,-8e-05,3,16
11233,-0.00012,-8e-05,-0.00017,-3e-05,-3e-05,-5e-05,-6e-05,-8e-05,3,16
11234,-0.00012,-8e-05,-0.00017,-3e-05,-3e-05,-5e-05,-6e-05,-8e-05,3,16
11235,-0.00012,-8e-05,-0.00017,-3e-05,-3e-05,-5e-05,-6e-05,-8e-05,3,16
11236,-0.00012,-8e-05,-0.00017,-3e-05,-3e-05,-5e-05,-6e-05,-8e-05,3,16
11239,-0.00012,-8e-05,-0.00017,-3e-05,-3e-05,-5e-05,-6e-05,-8e-05,3,16
11240,-0.00012,-8e-05,-0.00017,-3e-05,-3e-05,-5e-05,-6e-05,-8e-05,3,16
11241,-0.00012,-8e-05,-0.00017,-3e-05,-3e-05,-5e-05,-6e-05,-8e-05,3,16
11242,-0.00012,-8e-05,-0.00017,-3e-05,-3e-05,-5e-05,-6e-05,-8e-05,3,16
11243,-0.00012,-8e-05,-0.00017,-3e-05,-3e-05,-5e-05,-6e-05,-8e-05,3,16
11244,-0.00012,-8e-05,-0.00017,-3e-05,-3e-05,-5e-05,-6e-05,-8e-05,3,16
11245,-7e-05,-6e-05,-2e-05,7e-05,8e-05,-1e-05,-7e-05,-0.00018,3,16
11246,-7e-05,-6e-05,-2e-05,7e-05,8e-05,-1e-05,-7e-05,-0.00018,3,16
11247,-7e-05,-6e-05,-2e-05,7e-05,8e-05,-1e-05,-7e-05,-0.00018,3,16
11248,-7e-05,-6e-05,-2e-05,7e-05,8e-05,-1e-05,-7e-05,-0.00018,3,16
11249,-7e-05,-6e-05,-2e-05,7e-05,8e-05,-1e-05,-7e-05,-0.00018,3,16
11250,-7e-05,-6e-05,-2e-05,7e-05,8e-05,-1e-05,-7e-05,-0.00018,3,16
11251,-5e-05,2e-05,0.0001,8e-05,8e-05,0.00011,-0.00011,-0.0001,3,16
11252,-5e-05,2e-05,0.0001,8e-05,8e-05,0.00011,-0.00011,-0.0001,3,16
11253,-5e-05,2e-05,0.0001,8e-05,8e-05,0.00011,-0.00011,-0.0001,3,16
11254,-5e-05,2e-05,0.0001,8e-05,8e-05,0.00011,-0.00011,-0.0001,3,16
11255,-5e-05,2e-05,0.0001,8e-05,8e-05,0.00011,-0.00011,-0.0001,3,16
11256,-5e-05,2e-05,0.0001,8e-05,8e-05,0.00011,-0.00011,-0.0001,3,16
11257,-5e-05,2e-05,0.0001,8e-05,8e-05,0.00011,-0.00011,-0.0001,3,16
11258,4e-05,0,-7e-05,-1e-05,4e-05,5e-05,1e-05,-3e-05,3,16
11259,4e-05,0,-7e-05,-1e-05,4e-05,5e-05,1e-05,-3e-05,3,16
11260,4e-05,0,-7e-05,-1e-05,4e-05,5e-05,1e-05,-3e-05,3,16
11261,4e-05,0,-7e-05,-1e-05,4e-05,5e-05,1e-05,-3e-05,3,16
11262,4e-05,0,-7e-05,-1e-05,4e-05,5e-05,1e-05,-3e-05,3,16
11263,4e-05,0,-7e-05,-1e-05,4e-05,5e-05,1e-05,-3e-05,3,16
11264,4e-05,0,-7e-05,-1e-05,4e-05,5e-05,1e-05,-3e-05,3,16
11265,4e-05,0,-7e-05,-1e-05,4e-05,5e-05,1e-05,-3e-05,3,16
11266,4e-05,0,-7e-05,-1e-05,4e-05,5e-05,1e-05,-3e-05,3,16
11267,0.00011,6e-05,-3e-05,-9e-05,-0.00015,-0.00013,5e-05,3e-05,3,16
11268,0.00011,6e-05,-3e-05,-9e-05,-0.00015,-0.00013,5e-05,3e-05,3,16
11269,0.00011,6e-05,-3e-05,-9e-05,-0.00015,-0.00013,5e-05,3e-05,3,16
11270,0.00011,6e-05,-3e-05,-9e-05,-0.00015,-0.00013,5e-05,3e-05,3,16
11272,0.00011,6e-05,-3e-05,-9e-05,-0.00015,-0.00013,5e-05,3e-05,3,16
11273,0.00011,6e-05,-3e-05,-9e-05,-0.00015,-0.00013,5e-05,3e-05,3,16
11274,0.00011,6e-05,-3e-05,-9e-05,-0.00015,-0.00013,5e-05,3e-05,3,16
11275,0.00011,6e-05,-3e-05,-9e-05,-0.00015,-0.00013,5e-05,3e-05,3,16
11276,0.00011,6e-05,-3e-05,-9e-05,-0.00015,-0.00013,5e-05,3e-05,3,16
11277,0.00011,6e-05,-3e-05,-9e-05,-0.00015,-0.00013,5e-05,3e-05,3,16
11278,0.00011,6e-05,-3e-05,-9e-05,-0.00015,-0.00013,5e-05,3e-05,3,16
11279,0.00011,6e-05,-3e-05,-9e-05,-0.00015,-0.00013,5e-05,3e-05,3,16
11280,0.00011,6e-05,-3e-05,-9e-05,-0.00015,-0.00013,5e-05,3e-05,3,16
11281,0.00011,6e-05,-3e-05,-9e-05,-0.00015,-0.00013,5e-05,3e-05,3,16
11282,1e-05,4e-05,4e-05,8e-05,0.00017,-2e-05,3e-05,9e-05,3,16
11283,1e-05,4e-05,4e-05,8e-05,0.00017,-2e-05,3e-05,9e-05,3,16
11284,0.0001,3e-05,5e-05,5e-05,0.0001,-6e-05,6e-05,2e-05,3,16
11285,0.0001,3e-05,5e-05,5e-05,0.0001,-6e-05,6e-05,2e-05,3,16
11286,0.0001,3e-05,5e-05,5e-05,0.0001,-6e-05,6e-05,2e-05,3,16
11289,0.0001,3e-05,5e-05,5e-05,0.0001,-6e-05,6e-05,2e-05,3,16
11290,0.0001,3e-05,5e-05,5e-05,0.0001,-6e-05,6e-05,2e-05,3,16
11291,0.0001,3e-05,5e-05,5e-05,0.0001,-6e-05,6e-05,2e-05,3,16
11292,0.0001,3e-05,5e-05,5e-05,0.0001,-6e-05,6e-05,2e-05,3,16
11293,0.0001,3e-05,5e-05,5e-05,0.0001,-6e-05,6e-05,2e-05,3,16
11294,0.0001,3e-05,5e-05,5e-05,0.0001,-6e-05,6e-05,2e-05,3,16
11295,0.0001,3e-05,5e-05,5e-05,0.0001,-6e-05,6e-05,2e-05,3,16
11296,0.0001,3e-05,5e-05,5e-05,0.0001,-6e-05,6e-05,2e-05,3,16
11297,0.0001,3e-05,5e-05,5e-05,0.0001,-6e-05,6e-05,2e-05,3,16
11298,0.0001,3e-05,5e-05,5e-05,0.0001,-6e-05,6e-05,2e-05,3,16
11299,0.0001,3e-05,5e-05,5e-05,0.0001,-6e-05,6e-05,2e-05,3,16
11300,0.0001,3e-05,5e-05,5e-05,0.0001,-6e-05,6e-05,2e-05,3,16
11301,0.0001,3e-05,5e-05,5e-05,0.0001,-6e-05,6e-05,2e-05,3,16
11302,0.0001,3e-05,5e-05,5e-05,0.0001,-6e-05,6e-05,2e-05,3,16
11303,0.0001,3e-05,5e-05,5e-05,0.0001,-6e-05,6e-05,2e-05,3,16
11304,0.0001,3e-05,5e-05,5e-05,0.0001,-6e-05,6e-05,2e-05,3,16
11305,0.00014,-1e-05,-5e-05,1e-05,3e-05,3e-05,7e-05,5e-05,3,16
11306,0.00014,-1e-05,-5e-05,1e-05,3e-05,3e-05,7e-05,5e-05,3,16
11307,0.00014,-1e-05,-5e-05,1e-05,3e-05,3e-05,7e-05,5e-05,3,16
11308,0.00014,-1e-05,-5e-05,1e-05,3e-05,3e-05,7e-05,5e-05,3,16
11309,0.00014,-1e-05,-5e-05,1e-05,3e-05,3e-05,7e-05,5e-05,3,16
11310,0.00014,-1e-05,-5e-05,1e-05,3e-05,3e-05,7e-05,5e-05,3,16
11311,1e-05,2e-05,6e-05,-3e-05,-0.00014,-8e-05,-6e-05,3e-05,3,16
11312,1e-05,2e-05,6e-05,-3e-05,-0.00014,-8e-05,-6e-05,3e-05,3,16
11313,1e-05,2e-05,6e-05,-3e-05,-0.00014,-8e-05,-6e-05,3e-05,3,16
11314,1e-05,2e-05,6e-05,-3e-05,-0.00014,-8e-05,-6e-05,3e-05,3,16
11315,1e-05,2e-05,6e-05,-3e-05,-0.00014,-8e-05,-6e-05,3e-05,3,16
11316,1e-05,2e-05,6e-05,-3e-05,-0.00014,-8e-05,-6e-05,3e-05,3,16
11317,1e-05,2e-05,6e-05,-3e-05,-0.00014,-8e-05,-6e-05,3e-05,3,16
11318,-0.00016,-3e-05,-1e-05,-5e-05,-0.0001,-0.00011,-0.00032,-0.00015,3,16
11319,-0.00016,-3e-05,-1e-05,-5e-05,-0.0001,-0.00011,-0.00032,-0.00015,3,16
11320,-0.00016,-3e-05,-1e-05,-5e-05,-0.0001,-0.00011,-0.00032,-0.00015,3,16
11321,-0.00016,-3e-05,-1e-05,-5e-05,-0.0001,-0.00011,-0.00032,-0.00015,3,16
11322,-0.00016,-3e-05,-1e-05,-5e-05,-0.0001,-0.00011,-0.00032,-0.00015,3,16
11323,-0.00016,-3e-05,-1e-05,-5e-05,-0.0001,-0.00011,-0.00032,-0.00015,3,16
11324,-0.00016,-3e-05,-1e-05,-5e-05,-0.0001,-0.00011,-0.00032,-0.00015,3,16
11325,-0.00016,-3e-05,-1e-05,-5e-05,-0.0001,-0.00011,-0.00032,-0.00015,3,16
11326,-0.00016,-3e-05,-1e-05,-5e-05,-0.0001,-0.00011,-0.00032,-0.00015,3,16
11327,-1e-05,-3e-05,5e-05,6e-05,0.00023,0.00021,0,-6e-05,3,16
11328,-1e-05,-3e-05,5e-05,6e-05,0.00023,0.00021,0,-6e-05,3,16
11329,-1e-05,-3e-05,5e-05,6e-05,0.00023,0.00021,0,-6e-05,3,16
11330,-1e-05,-3e-05,5e-05,6e-05,0.00023,0.00021,0,-6e-05,3,16
11331,-1e-05,-3e-05,5e-05,6e-05,0.00023,0.00021,0,-6e-05,3,16
11332,-1e-05,-3e-05,5e-05,6e-05,0.00023,0.00021,0,-6e-05,3,16
11333,-1e-05,-3e-05,5e-05,6e-05,0.00023,0.00021,0,-6e-05,3,16
11334,-1e-05,-3e-05,5e-05,6e-05,0.00023,0.00021,0,-6e-05,3,16
11335,-1e-05,-3e-05,5e-05,6e-05,0.00023,0.00021,0,-6e-05,3,16
11336,-1e-05,-3e-05,5e-05,6e-05,0.00023,0.00021,0,-6e-05,3,16
11339,-1e-05,-3e-05,5e-05,6e-05,0.00023,0.00021,0,-6e-05,3,16
11340,-1e-05,-3e-05,5e-05,6e-05,0.00023,0.00021,0,-6e-05,3,16
11341,-1e-05,-3e-05,5e-05,6e-05,0.00023,0.00021,0,-6e-05,3,16
11342,-1e-05,-3e-05,5e-05,6e-05,0.00023,0.00021,0,-6e-05,3,16
11343,-1e-05,-3e-05,5e-05,6e-05,0.00023,0.00021,0,-6e-05,3,16
11344,-1e-05,-3e-05,5e-05,6e-05,0.00023,0.00021,0,-6e-05,3,16
11345,-1e-05,-3e-05,5e-05,6e-05,0.00023,0.00021,0,-6e-05,3,16
11346,-1e-05,-3e-05,5e-05,6e-05,0.00023,0.00021,0,-6e-05,3,16
11347,-1e-05,-3e-05,5e-05,6e-05,0.00023,0.00021,0,-6e-05,3,16
11348,-1e-05,-3e-05,5e-05,6e-05,0.00023,0.00021,0,-6e-05,3,16
11349,-1e-05,-3e-05,5e-05,6e-05,0.00023,0.00021,0,-6e-05,3,16
11350,-0.00011,-6e-05,-5e-05,-2e-05,-3e-05,-7e-05,0.0001,-0.00011,3,16
11351,-0.00011,-6e-05,-5e-05,-2e-05,-3e-05,-7e-05,0.0001,-0.00011,3,16
11352,-0.00011,-6e-05,-5e-05,-2e-05,-3e-05,-7e-05,0.0001,-0.00011,3,16
11353,-0.00011,-6e-05,-5e-05,-2e-05,-3e-05,-7e-05,0.0001,-0.00011,3,16
11354,-0.00011,-6e-05,-5e-05,-2e-05,-3e-05,-7e-05,0.0001,-0.00011,3,16
11355,-0.00011,-6e-05,-5e-05,-2e-05,-3e-05,-7e-05,0.0001,-0.00011,3,16
11356,-3e-05,-0.0001,-6e-05,-3e-05,0,4e-05,-4e-05,0.0001,3,16
11357,-3e-05,-0.0001,-6e-05,-3e-05,0,4e-05,-4e-05,0.0001,3,16
11358,-3e-05,-0.0001,-6e-05,-3e-05,0,4e-05,-4e-05,0.0001,3,16
11359,-3e-05,-0.0001,-6e-05,-3e-05,0,4e-05,-4e-05,0.0001,3,16
11360,-3e-05,-0.0001,-6e-05,-3e-05,0,4e-05,-4e-05,0.0001,3,16
11361,-3e-05,-0.0001,-6e-05,-3e-05,0,4e-05,-4e-05,0.0001,3,16
11362,-3e-05,-0.0001,-6e-05,-3e-05,0,4e-05,-4e-05,0.0001,3,16
11363,-3e-05,-0.0001,-6e-05,-3e-05,0,4e-05,-4e-05,0.0001,3,16
11364,1e-05,0,1e-05,-5e-05,-0.00012,-7e-05,-0.00015,-4e-05,3,16
11365,1e-05,0,1e-05,-5e-05,-0.00012,-7e-05,-0.00015,-4e-05,3,16
11366,-9e-05,4e-05,3e-05,3e-05,-5e-05,-5e-05,-2e-05,2e-05,3,16
11367,-9e-05,4e-05,3e-05,3e-05,-5e-05,-5e-05,-2e-05,2e-05,3,16
11368,-9e-05,4e-05,3e-05,3e-05,-5e-05,-5e-05,-2e-05,2e-05,3,16
11369,-9e-05,4e-05,3e-05,3e-05,-5e-05,-5e-05,-2e-05,2e-05,3,16
11370,-9e-05,4e-05,3e-05,3e-05,-5e-05,-5e-05,-2e-05,2e-05,3,16
11371,-9e-05,4e-05,3e-05,3e-05,-5e-05,-5e-05,-2e-05,2e-05,3,16
11372,-9e-05,4e-05,3e-05,3e-05,-5e-05,-5e-05,-2e-05,2e-05,3,16
11373,-9e-05,4e-05,3e-05,3e-05,-5e-05,-5e-05,-2e-05,2e-05,3,16
11374,-9e-05,4e-05,3e-05,3e-05,-5e-05,-5e-05,-2e-05,2e-05,3,16
11375,-9e-05,4e-05,3e-05,3e-05,-5e-05,-5e-05,-2e-05,2e-05,3,16
11376,-9e-05,4e-05,3e-05,3e-05,-5e-05,-5e-05,-2e-05,2e-05,3,16
11377,-9e-05,4e-05,3e-05,3e-05,-5e-05,-5e-05,-2e-05,2e-05,3,16
11378,9e-05,-2e-05,-0.00011,-8e-05,-3e-05,-2e-05,0.00012,0.00011,3,16
11379,9e-05,-2e-05,-0.00011,-8e-05,-3e-05,-2e-05,0.00012,0.00011,3,16
11380,9e-05,-2e-05,-0.00011,-8e-05,-3e-05,-2e-05,0.00012,0.00011,3,16
11381,9e-05,-2e-05,-0.00011,-8e-05,-3e-05,-2e-05,0.00012,0.00011,3,16
11382,9e-05,-2e-05,-0.00011,-8e-05,-3e-05,-2e-05,0.00012,0.00011,3,16
11383,9e-05,-2e-05,-0.00011,-8e-05,-3e-05,-2e-05,0.00012,0.00011,3,16
11384,9e-05,-2e-05,-0.00011,-8e-05,-3e-05,-2e-05,0.00012,0.00011,3,16
11385,9e-05,-2e-05,-0.00011,-8e-05,-3e-05,-2e-05,0.00012,0.00011,3,16
11386,9e-05,-2e-05,-0.00011,-8e-05,-3e-05,-2e-05,0.00012,0.00011,3,16
11389,9e-05,-2e-05,-0.00011,-8e-05,-3e-05,-2e-05,0.00012,0.00011,3,16
11390,9e-05,-2e-05,-0.00011,-8e-05,-3e-05,-2e-05,0.00012,0.00011,3,16
11391,9e-05,-2e-05,-0.00011,-8e-05,-3e-05,-2e-05,0.00012,0.00011,3,16
11392,9e-05,-2e-05,-0.00011,-8e-05,-3e-05,-2e-05,0.00012,0.00011,3,16
11393,9e-05,-2e-05,-0.00011,-8e-05,-3e-05,-2e-05,0.00012,0.00011,3,16
11394,9e-05,-2e-05,-0.00011,-8e-05,-3e-05,-2e-05,0.00012,0.00011,3,16
11395,-0.00015,-1e-05,-1e-05,-5e-05,-6e-05,1e-05,0.00012,-0.0001,3,16
11396,-0.00015,-1e-05,-1e-05,-5e-05,-6e-05,1e-05,0.00012,-0.0001,3,16
11397,-0.00015,-1e-05,-1e-05,-5e-05,-6e-05,1e-05,0.00012,-0.0001,3,16
11398,-0.00015,-1e-05,-1e-05,-5e-05,-6e-05,1e-05,0.00012,-0.0001,3,16
11399,-0.00015,-1e-05,-1e-05,-5e-05,-6e-05,1e-05,0.00012,-0.0001,3,16
11400,-0.00015,-1e-05,-1e-05,-5e-05,-6e-05,1e-05,0.00012,-0.0001,3,16
11401,-0.00015,-1e-05,-1e-05,-5e-05,-6e-05,1e-05,0.00012,-0.0001,3,16
11402,-7e-05,2e-05,-3e-05,0,-5e-05,0,3e-05,-1e-05,3,16
11403,-7e-05,2e-05,-3e-05,0,-5e-05,0,3e-05,-1e-05,3,16
11404,8e-05,-4e-05,-2e-05,0,1e-05,-9e-05,6e-05,2e-05,3,16
11405,8e-05,-4e-05,-2e-05,0,1e-05,-9e-05,6e-05,2e-05,3,16
11406,8e-05,-4e-05,-2e-05,0,1e-05,-9e-05,6e-05,2e-05,3,16
11407,8e-05,-4e-05,-2e-05,0,1e-05,-9e-05,6e-05,2e-05,3,16
11408,8e-05,-4e-05,-2e-05,0,1e-05,-9e-05,6e-05,2e-05,3,16
11409,8e-05,-4e-05,-2e-05,0,1e-05,-9e-05,6e-05,2e-05,3,16
11410,8e-05,-4e-05,-2e-05,0,1e-05,-9e-05,6e-05,2e-05,3,16
11411,8e-05,-4e-05,-2e-05,0,1e-05,-9e-05,6e-05,2e-05,3,16
11412,8e-05,-4e-05,-2e-05,0,1e-05,-9e-05,6e-05,2e-05,3,16
11413,8e-05,-4e-05,-2e-05,0,1e-05,-9e-05,6e-05,2e-05,3,16
11414,8e-05,-4e-05,-2e-05,0,1e-05,-9e-05,6e-05,2e-05,3,16
11415,8e-05,-4e-05,-2e-05,0,1e-05,-9e-05,6e-05,2e-05,3,16
11416,8e-05,-4e-05,-2e-05,0,1e-05,-9e-05,6e-05,2e-05,3,16
11417,8e-05,-4e-05,-2e-05,0,1e-05,-9e-05,6e-05,2e-05,3,16
11418,8e-05,-4e-05,-2e-05,0,1e-05,-9e-05,6e-05,2e-05,3,16
11419,8e-05,-4e-05,-2e-05,0,1e-05,-9e-05,6e-05,2e-05,3,16
11420,8e-05,-4e-05,-2e-05,0,1e-05,-9e-05,6e-05,2e-05,3,16
11421,8e-05,-4e-05,-2e-05,0,1e-05,-9e-05,6e-05,2e-05,3,16
11422,8e-05,-4e-05,-2e-05,0,1e-05,-9e-05,6e-05,2e-05,3,16
11423,8e-05,-4e-05,-2e-05,0,1e-05,-9e-05,6e-05,2e-05,3,16
11424,-0.00012,-0.00012,-1e-05,-9e-05,-0.00015,0,-9e-05,-0.00014,3,16
11425,4e-05,5e-05,2e-05,-2e-05,7e-05,8e-05,0.00017,0,3,16
11426,-7e-05,1e-05,-2e-05,4e-05,0,-5e-05,-2e-05,-8e-05,3,16
11427,-7e-05,1e-05,-2e-05,4e-05,0,-5e-05,-2e-05,-8e-05,3,16
11428,-7e-05,1e-05,-2e-05,4e-05,0,-5e-05,-2e-05,-8e-05,3,16
11429,-7e-05,1e-05,-2e-05,4e-05,0,-5e-05,-2e-05,-8e-05,3,16
11430,-7e-05,1e-05,-2e-05,4e-05,0,-5e-05,-2e-05,-8e-05,3,16
11431,-7e-05,1e-05,-2e-05,4e-05,0,-5e-05,-2e-05,-8e-05,3,16
11432,-7e-05,1e-05,-2e-05,4e-05,0,-5e-05,-2e-05,-8e-05,3,16
11433,-7e-05,1e-05,-2e-05,4e-05,0,-5e-05,-2e-05,-8e-05,3,16
11434,-7e-05,1e-05,-2e-05,4e-05,0,-5e-05,-2e-05,-8e-05,3,16
11435,-7e-05,1e-05,-2e-05,4e-05,0,-5e-05,-2e-05,-8e-05,3,16
11436,-7e-05,1e-05,-2e-05,4e-05,0,-5e-05,-2e-05,-8e-05,3,16
11439,-7e-05,1e-05,-2e-05,4e-05,0,-5e-05,-2e-05,-8e-05,3,16
11440,-7e-05,1e-05,-2e-05,4e-05,0,-5e-05,-2e-05,-8e-05,3,16
11441,-7e-05,1e-05,-2e-05,4e-05,0,-5e-05,-2e-05,-8e-05,3,16
11442,-7e-05,1e-05,-2e-05,4e-05,0,-5e-05,-2e-05,-8e-05,3,16
11443,-7e-05,1e-05,-2e-05,4e-05,0,-5e-05,-2e-05,-8e-05,3,16
11444,-7e-05,1e-05,-2e-05,4e-05,0,-5e-05,-2e-05,-8e-05,3,16
11445,-7e-05,1e-05,-2e-05,4e-05,0,-5e-05,-2e-05,-8e-05,3,16
11446,-7e-05,1e-05,-2e-05,4e-05,0,-5e-05,-2e-05,-8e-05,3,16
11447,2e-05,-3e-05,-6e-05,2e-05,5e-05,-1e-05,2e-05,1e-05,3,16
11448,2e-05,-3e-05,-6e-05,2e-05,5e-05,-1e-05,2e-05,1e-05,3,16
11449,5e-05,8e-05,3e-05,3e-05,-3e-05,0.00011,-4e-05,0,3,16
11450,5e-05,8e-05,3e-05,3e-05,-3e-05,0.00011,-4e-05,0,3,16
11451,5e-05,8e-05,3e-05,3e-05,-3e-05,0.00011,-4e-05,0,3,16
11452,5e-05,8e-05,3e-05,3e-05,-3e-05,0.00011,-4e-05,0,3,16
11453,5e-05,8e-05,3e-05,3e-05,-3e-05,0.00011,-4e-05,0,3,16
11454,5e-05,8e-05,3e-05,3e-05,-3e-05,0.00011,-4e-05,0,3,16
11455,5e-05,8e-05,3e-05,3e-05,-3e-05,0.00011,-4e-05,0,3,16
11456,5e-05,8e-05,3e-05,3e-05,-3e-05,0.00011,-4e-05,0,3,16
11457,5e-05,8e-05,3e-05,3e-05,-3e-05,0.00011,-4e-05,0,3,16
11458,5e-05,8e-05,3e-05,3e-05,-3e-05,0.00011,-4e-05,0,3,16
11459,5e-05,8e-05,3e-05,3e-05,-3e-05,0.00011,-4e-05,0,3,16
11460,5e-05,8e-05,3e-05,3e-05,-3e-05,0.00011,-4e-05,0,3,16
11461,5e-05,8e-05,3e-05,3e-05,-3e-05,0.00011,-4e-05,0,3,16
11462,0,0,7e-05,9e-05,0.00016,2e-05,-8e-05,1e-05,3,16
11463,0,0,7e-05,9e-05,0.00016,2e-05,-8e-05,1e-05,3,16
11464,-4e-05,-5e-05,-4e-05,-5e-05,-0.00015,-0.00011,-0.0001,0.0001,3,16
11465,-4e-05,-5e-05,-4e-05,-5e-05,-0.00015,-0.00011,-0.0001,0.0001,3,16
11466,-4e-05,-5e-05,-4e-05,-5e-05,-0.00015,-0.00011,-0.0001,0.0001,3,16
11467,-4e-05,-5e-05,-4e-05,-5e-05,-0.00015,-0.00011,-0.0001,0.0001,3,16
11468,-4e-05,-5e-05,-4e-05,-5e-05,-0.00015,-0.00011,-0.0001,0.0001,3,16
11469,-4e-05,-5e-05,-4e-05,-5e-05,-0.00015,-0.00011,-0.0001,0.0001,3,16
11470,-4e-05,-5e-05,-4e-05,-5e-05,-0.00015,-0.00011,-0.0001,0.0001,3,16
11471,-4e-05,-5e-05,-4e-05,-5e-05,-0.00015,-0.00011,-0.0001,0.0001,3,16
11472,-4e-05,-5e-05,-4e-05,-5e-05,-0.00015,-0.00011,-0.0001,0.0001,3,16
11473,-4e-05,-5e-05,-4e-05,-5e-05,-0.00015,-0.00011,-0.0001,0.0001,3,16
11474,-4e-05,-5e-05,-4e-05,-5e-05,-0.00015,-0.00011,-0.0001,0.0001,3,16
11475,-4e-05,-5e-05,-4e-05,-5e-05,-0.00015,-0.00011,-0.0001,0.0001,3,16
11476,-4e-05,-5e-05,-4e-05,-5e-05,-0.00015,-0.00011,-0.0001,0.0001,3,16
11477,-4e-05,-5e-05,-4e-05,-5e-05,-0.00015,-0.00011,-0.0001,0.0001,3,16
11478,-4e-05,-5e-05,-4e-05,-5e-05,-0.00015,-0.00011,-0.0001,0.0001,3,16
11479,-4e-05,-5e-05,-4e-05,-5e-05,-0.00015,-0.00011,-0.0001,0.0001,3,16
11480,-4e-05,-5e-05,-4e-05,-5e-05,-0.00015,-0.00011,-0.0001,0.0001,3,16
11481,-4e-05,-5e-05,-4e-05,-5e-05,-0.00015,-0.00011,-0.0001,0.0001,3,16
11482,-4e-05,-5e-05,-4e-05,-5e-05,-0.00015,-0.00011,-0.0001,0.0001,3,16
11483,-4e-05,-5e-05,-4e-05,-5e-05,-0.00015,-0.00011,-0.0001,0.0001,3,16
11484,-4e-05,-5e-05,-4e-05,-5e-05,-0.00015,-0.00011,-0.0001,0.0001,3,16
11485,-2e-05,-3e-05,4e-05,0.0001,0.00014,0.0001,0.00012,-6e-05,3,16
11486,-2e-05,-3e-05,4e-05,0.0001,0.00014,0.0001,0.00012,-6e-05,3,16
11489,-2e-05,-3e-05,4e-05,0.0001,0.00014,0.0001,0.00012,-6e-05,3,16
11490,-2e-05,-3e-05,4e-05,0.0001,0.00014,0.0001,0.00012,-6e-05,3,16
11491,3e-05,4e-05,-2e-05,-1e-05,0,-7e-05,-0.00023,-5e-05,3,16
11492,3e-05,4e-05,-2e-05,-1e-05,0,-7e-05,-0.00023,-5e-05,3,16
11493,3e-05,4e-05,-2e-05,-1e-05,0,-7e-05,-0.00023,-5e-05,3,16
11494,3e-05,4e-05,-2e-05,-1e-05,0,-7e-05,-0.00023,-5e-05,3,16
11495,3e-05,4e-05,-2e-05,-1e-05,0,-7e-05,-0.00023,-5e-05,3,16
11496,3e-05,4e-05,-2e-05,-1e-05,0,-7e-05,-0.00023,-5e-05,3,16
11497,3e-05,4e-05,-2e-05,-1e-05,0,-7e-05,-0.00023,-5e-05,3,16
11498,4e-05,-1e-05,-3e-05,0,0,-3e-05,-0.00014,1e-05,3,16
11499,4e-05,-1e-05,-3e-05,0,0,-3e-05,-0.00014,1e-05,3,16
11500,4e-05,-1e-05,-3e-05,0,0,-3e-05,-0.00014,1e-05,3,16
11501,4e-05,-1e-05,-3e-05,0,0,-3e-05,-0.00014,1e-05,3,16
11502,4e-05,-1e-05,-3e-05,0,0,-3e-05,-0.00014,1e-05,3,16
11503,4e-05,-1e-05,-3e-05,0,0,-3e-05,-0.00014,1e-05,3,16
11504,4e-05,-1e-05,-3e-05,0,0,-3e-05,-0.00014,1e-05,3,16
11505,4e-05,-1e-05,-3e-05,0,0,-3e-05,-0.00014,1e-05,3,16
11506,4e-05,-1e-05,-3e-05,0,0,-3e-05,-0.00014,1e-05,3,16
11507,-5e-05,0,-1e-05,-0.00011,-0.0001,0,3e-05,-0.0001,3,16
11508,-5e-05,0,-1e-05,-0.00011,-0.0001,0,3e-05,-0.0001,3,16
11509,-5e-05,0,-1e-05,-0.00011,-0.0001,0,3e-05,-0.0001,3,16
11510,-5e-05,0,-1e-05,-0.00011,-0.0001,0,3e-05,-0.0001,3,16
11511,-5e-05,0,-1e-05,-0.00011,-0.0001,0,3e-05,-0.0001,3,16
11512,-5e-05,0,-1e-05,-0.00011,-0.0001,0,3e-05,-0.0001,3,16
11513,-5e-05,0,-1e-05,-0.00011,-0.0001,0,3e-05,-0.0001,3,16
11514,-5e-05,0,-1e-05,-0.00011,-0.0001,0,3e-05,-0.0001,3,16
11515,-5e-05,0,-1e-05,-0.00011,-0.0001,0,3e-05,-0.0001,3,16
11516,-5e-05,0,-1e-05,-0.00011,-0.0001,0,3e-05,-0.0001,3,16
11517,-5e-05,0,-1e-05,-0.00011,-0.0001,0,3e-05,-0.0001,3,16
11518,-5e-05,0,-1e-05,-0.00011,-0.0001,0,3e-05,-0.0001,3,16
11519,-5e-05,0,-1e-05,-0.00011,-0.0001,0,3e-05,-0.0001,3,16
11520,-5e-05,0,-1e-05,-0.00011,-0.0001,0,3e-05,-0.0001,3,16
11521,-5e-05,0,-1e-05,-0.00011,-0.0001,0,3e-05,-0.0001,3,16
11522,-5e-05,0,-1e-05,-0.00011,-0.0001,0,3e-05,-0.0001,3,16
11523,0,-5e-05,-4e-05,-6e-05,-0.0001,-6e-05,-5e-05,-3e-05,3,16
11524,0.0001,-4e-05,-1e-05,-3e-05,8e-05,-2e-05,0.00017,0.00029,3,16
11525,0.0001,-4e-05,-1e-05,-3e-05,8e-05,-2e-05,0.00017,0.00029,3,16
11526,0.0001,-4e-05,-1e-05,-3e-05,8e-05,-2e-05,0.00017,0.00029,3,16
11527,0.0001,-4e-05,-1e-05,-3e-05,8e-05,-2e-05,0.00017,0.00029,3,16
11528,0.0001,-4e-05,-1e-05,-3e-05,8e-05,-2e-05,0.00017,0.00029,3,16
11529,0.0001,-4e-05,-1e-05,-3e-05,8e-05,-2e-05,0.00017,0.00029,3,16
11530,0.0001,-4e-05,-1e-05,-3e-05,8e-05,-2e-05,0.00017,0.00029,3,16
11531,0.0001,-4e-05,-1e-05,-3e-05,8e-05,-2e-05,0.00017,0.00029,3,16
11532,0.0001,-4e-05,-1e-05,-3e-05,8e-05,-2e-05,0.00017,0.00029,3,16
11533,0.0001,-4e-05,-1e-05,-3e-05,8e-05,-2e-05,0.00017,0.00029,3,16
11534,0.0001,-4e-05,-1e-05,-3e-05,8e-05,-2e-05,0.00017,0.00029,3,16
11535,0.0001,-4e-05,-1e-05,-3e-05,8e-05,-2e-05,0.00017,0.00029,3,16
11536,0.0001,-4e-05,-1e-05,-3e-05,8e-05,-2e-05,0.00017,0.00029,3,16
11539,0.0001,-4e-05,-1e-05,-3e-05,8e-05,-2e-05,0.00017,0.00029,3,16
11540,0.0001,-4e-05,-1e-05,-3e-05,8e-05,-2e-05,0.00017,0.00029,3,16
11541,0.0001,-4e-05,-1e-05,-3e-05,8e-05,-2e-05,0.00017,0.00029,3,16
11542,0.0001,-4e-05,-1e-05,-3e-05,8e-05,-2e-05,0.00017,0.00029,3,16
11543,0.0001,-4e-05,-1e-05,-3e-05,8e-05,-2e-05,0.00017,0.00029,3,16
11544,4e-05,-3e-05,-4e-05,1e-05,1e-05,-4e-05,-0.00013,-8e-05,3,16
11545,-1e-05,-6e-05,-1e-05,-3e-05,0,-7e-05,-5e-05,0,3,16
11546,-0.00013,-5e-05,-7e-05,-6e-05,-4e-05,-6e-05,-0.00021,-0.00022,3,16
11547,-0.00013,-5e-05,-7e-05,-6e-05,-4e-05,-6e-05,-0.00021,-0.00022,3,16
11548,-0.00013,-5e-05,-7e-05,-6e-05,-4e-05,-6e-05,-0.00021,-0.00022,3,16
11549,-0.00013,-5e-05,-7e-05,-6e-05,-4e-05,-6e-05,-0.00021,-0.00022,3,16
11550,-0.00013,-5e-05,-7e-05,-6e-05,-4e-05,-6e-05,-0.00021,-0.00022,3,16
11551,-0.00013,-5e-05,-7e-05,-6e-05,-4e-05,-6e-05,-0.00021,-0.00022,3,16
11552,-0.00013,-5e-05,-7e-05,-6e-05,-4e-05,-6e-05,-0.00021,-0.00022,3,16
11553,-0.00013,-5e-05,-7e-05,-6e-05,-4e-05,-6e-05,-0.00021,-0.00022,3,16
11554,-0.00013,-5e-05,-7e-05,-6e-05,-4e-05,-6e-05,-0.00021,-0.00022,3,16
11555,-0.00013,-5e-05,-7e-05,-6e-05,-4e-05,-6e-05,-0.00021,-0.00022,3,16
11556,-0.00013,-5e-05,-7e-05,-6e-05,-4e-05,-6e-05,-0.00021,-0.00022,3,16
11557,-0.00013,-5e-05,-7e-05,-6e-05,-4e-05,-6e-05,-0.00021,-0.00022,3,16
11558,-4e-05,-3e-05,-4e-05,-5e-05,-2e-05,2e-05,4e-05,-1e-05,3,16
11559,-4e-05,-3e-05,-4e-05,-5e-05,-2e-05,2e-05,4e-05,-1e-05,3,16
11560,-4e-05,-3e-05,-4e-05,-5e-05,-2e-05,2e-05,4e-05,-1e-05,3,16
11561,-4e-05,-3e-05,-4e-05,-5e-05,-2e-05,2e-05,4e-05,-1e-05,3,16
11562,-4e-05,-3e-05,-4e-05,-5e-05,-2e-05,2e-05,4e-05,-1e-05,3,16
11563,-4e-05,-3e-05,-4e-05,-5e-05,-2e-05,2e-05,4e-05,-1e-05,3,16
11564,-4e-05,-3e-05,-4e-05,-5e-05,-2e-05,2e-05,4e-05,-1e-05,3,16
11565,-4e-05,-3e-05,-4e-05,-5e-05,-2e-05,2e-05,4e-05,-1e-05,3,16
11566,-4e-05,-3e-05,-4e-05,-5e-05,-2e-05,2e-05,4e-05,-1e-05,3,16
11567,4e-05,9e-05,3e-05,9e-05,0.00014,7e-05,0.00015,-7e-05,3,16
11568,4e-05,9e-05,3e-05,9e-05,0.00014,7e-05,0.00015,-7e-05,3,16
11569,4e-05,9e-05,3e-05,9e-05,0.00014,7e-05,0.00015,-7e-05,3,16
11570,4e-05,9e-05,3e-05,9e-05,0.00014,7e-05,0.00015,-7e-05,3,16
11571,4e-05,9e-05,3e-05,9e-05,0.00014,7e-05,0.00015,-7e-05,3,16
11572,4e-05,9e-05,3e-05,9e-05,0.00014,7e-05,0.00015,-7e-05,3,16
11573,4e-05,9e-05,3e-05,9e-05,0.00014,7e-05,0.00015,-7e-05,3,16
11574,4e-05,9e-05,3e-05,9e-05,0.00014,7e-05,0.00015,-7e-05,3,16
11575,4e-05,9e-05,3e-05,9e-05,0.00014,7e-05,0.00015,-7e-05,3,16
11576,4e-05,9e-05,3e-05,9e-05,0.00014,7e-05,0.00015,-7e-05,3,16
11577,4e-05,9e-05,3e-05,9e-05,0.00014,7e-05,0.00015,-7e-05,3,16
11578,4e-05,9e-05,3e-05,9e-05,0.00014,7e-05,0.00015,-7e-05,3,16
11579,4e-05,9e-05,3e-05,9e-05,0.00014,7e-05,0.00015,-7e-05,3,16
11580,4e-05,9e-05,3e-05,9e-05,0.00014,7e-05,0.00015,-7e-05,3,16
11581,4e-05,9e-05,3e-05,9e-05,0.00014,7e-05,0.00015,-7e-05,3,16
11582,4e-05,9e-05,3e-05,9e-05,0.00014,7e-05,0.00015,-7e-05,3,16
11583,4e-05,9e-05,3e-05,9e-05,0.00014,7e-05,0.00015,-7e-05,3,16
11584,4e-05,9e-05,3e-05,9e-05,0.00014,7e-05,0.00015,-7e-05,3,16
11585,4e-05,9e-05,3e-05,9e-05,0.00014,7e-05,0.00015,-7e-05,3,16
11586,4e-05,9e-05,3e-05,9e-05,0.00014,7e-05,0.00015,-7e-05,3,16
11589,4e-05,9e-05,3e-05,9e-05,0.00014,7e-05,0.00015,-7e-05,3,16
11590,5e-05,6e-05,-2e-05,0,-2e-05,-2e-05,-4e-05,-3e-05,3,16
11591,-6e-05,-0.00012,1e-05,9e-05,0.0001,1e-05,-0.00011,-8e-05,3,16
11592,-6e-05,-0.00012,1e-05,9e-05,0.0001,1e-05,-0.00011,-8e-05,3,16
11593,-6e-05,-0.00012,1e-05,9e-05,0.0001,1e-05,-0.00011,-8e-05,3,16
11594,-6e-05,-0.00012,1e-05,9e-05,0.0001,1e-05,-0.00011,-8e-05,3,16
11595,-6e-05,-0.00012,1e-05,9e-05,0.0001,1e-05,-0.00011,-8e-05,3,16
11596,-6e-05,-0.00012,1e-05,9e-05,0.0001,1e-05,-0.00011,-8e-05,3,16
11597,-6e-05,-0.00012,1e-05,9e-05,0.0001,1e-05,-0.00011,-8e-05,3,16
11598,-6e-05,-0.00012,1e-05,9e-05,0.0001,1e-05,-0.00011,-8e-05,3,16
11599,-6e-05,-0.00012,1e-05,9e-05,0.0001,1e-05,-0.00011,-8e-05,3,16
11600,-6e-05,-0.00012,1e-05,9e-05,0.0001,1e-05,-0.00011,-8e-05,3,16
11601,-6e-05,-0.00012,1e-05,9e-05,0.0001,1e-05,-0.00011,-8e-05,3,16
11602,-6e-05,-0.00012,1e-05,9e-05,0.0001,1e-05,-0.00011,-8e-05,3,16
11603,-6e-05,-0.00012,1e-05,9e-05,0.0001,1e-05,-0.00011,-8e-05,3,16
11604,-6e-05,-0.00012,1e-05,9e-05,0.0001,1e-05,-0.00011,-8e-05,3,16
11605,3e-05,2e-05,3e-05,1e-05,6e-05,0.0001,4e-05,1e-05,3,16
11606,8e-05,3e-05,-7e-05,1e-05,-3e-05,-1e-05,1e-05,-3e-05,3,16
11607,8e-05,3e-05,-7e-05,1e-05,-3e-05,-1e-05,1e-05,-3e-05,3,16
11608,8e-05,3e-05,-7e-05,1e-05,-3e-05,-1e-05,1e-05,-3e-05,3,16
11609,8e-05,3e-05,-7e-05,1e-05,-3e-05,-1e-05,1e-05,-3e-05,3,16
11610,8e-05,3e-05,-7e-05,1e-05,-3e-05,-1e-05,1e-05,-3e-05,3,16
11611,8e-05,3e-05,-7e-05,1e-05,-3e-05,-1e-05,1e-05,-3e-05,3,16
11612,8e-05,3e-05,-7e-05,1e-05,-3e-05,-1e-05,1e-05,-3e-05,3,16
11613,8e-05,3e-05,-7e-05,1e-05,-3e-05,-1e-05,1e-05,-3e-05,3,16
11614,8e-05,3e-05,-7e-05,1e-05,-3e-05,-1e-05,1e-05,-3e-05,3,16
11615,8e-05,3e-05,-7e-05,1e-05,-3e-05,-1e-05,1e-05,-3e-05,3,16
11616,8e-05,3e-05,-7e-05,1e-05,-3e-05,-1e-05,1e-05,-3e-05,3,16
11617,8e-05,3e-05,-7e-05,1e-05,-3e-05,-1e-05,1e-05,-3e-05,3,16
