13054,-9e-05,0.00019,0.00021,0.00011,6e-05,2e-05,-5e-05,-0.00013,3,17
13055,-9e-05,0.00019,0.00021,0.00011,6e-05,2e-05,-5e-05,-0.00013,3,17
13056,-9e-05,0.00019,0.00021,0.00011,6e-05,2e-05,-5e-05,-0.00013,3,17
13057,-9e-05,0.00019,0.00021,0.00011,6e-05,2e-05,-5e-05,-0.00013,3,17
13058,-9e-05,0.00019,0.00021,0.00011,6e-05,2e-05,-5e-05,-0.00013,3,17
13059,-9e-05,0.00019,0.00021,0.00011,6e-05,2e-05,-5e-05,-0.00013,3,17
13060,-9e-05,0.00019,0.00021,0.00011,6e-05,2e-05,-5e-05,-0.00013,3,17
13061,-9e-05,0.00019,0.00021,0.00011,6e-05,2e-05,-5e-05,-0.00013,3,17
13062,-9e-05,0.00019,0.00021,0.00011,6e-05,2e-05,-5e-05,-0.00013,3,17
13063,3e-05,0,-0.00011,-0.0001,-9e-05,-0.0001,4e-05,0.00022,3,17
13064,3e-05,0,-0.00011,-0.0001,-9e-05,-0.0001,4e-05,0.00022,3,17
13065,3e-05,0,-0.00011,-0.0001,-9e-05,-0.0001,4e-05,0.00022,3,17
13066,3e-05,0,-0.00011,-0.0001,-9e-05,-0.0001,4e-05,0.00022,3,17
13067,3e-05,0,-0.00011,-0.0001,-9e-05,-0.0001,4e-05,0.00022,3,17
13068,3e-05,0,-0.00011,-0.0001,-9e-05,-0.0001,4e-05,0.00022,3,17
13069,3e-05,0,-0.00011,-0.0001,-9e-05,-0.0001,4e-05,0.00022,3,17
13070,3e-05,0,-0.00011,-0.0001,-9e-05,-0.0001,4e-05,0.00022,3,17
13071,-0.00045,-7e-05,0.00015,3e-05,0,-1e-05,-0.0001,-0.00027,3,17
13072,-0.00045,-7e-05,0.00015,3e-05,0,-1e-05,-0.0001,-0.00027,3,17
13073,-0.00045,-7e-05,0.00015,3e-05,0,-1e-05,-0.0001,-0.00027,3,17
13074,-0.00045,-7e-05,0.00015,3e-05,0,-1e-05,-0.0001,-0.00027,3,17
13075,-0.00045,-7e-05,0.00015,3e-05,0,-1e-05,-0.0001,-0.00027,3,17
13076,-0.00045,-7e-05,0.00015,3e-05,0,-1e-05,-0.0001,-0.00027,3,17
13077,-0.00021,-0.00013,6e-05,-5e-05,-0.00011,-0.00012,6e-05,2e-05,3,17
13078,-0.00021,-0.00013,6e-05,-5e-05,-0.00011,-0.00012,6e-05,2e-05,3,17
13079,-0.00021,-0.00013,6e-05,-5e-05,-0.00011,-0.00012,6e-05,2e-05,3,17
13080,-0.00021,-0.00013,6e-05,-5e-05,-0.00011,-0.00012,6e-05,2e-05,3,17
13081,-0.00021,-0.00013,6e-05,-5e-05,-0.00011,-0.00012,6e-05,2e-05,3,17
13082,-0.00021,-0.00013,6e-05,-5e-05,-0.00011,-0.00012,6e-05,2e-05,3,17
13083,-0.00021,-0.00013,6e-05,-5e-05,-0.00011,-0.00012,6e-05,2e-05,3,17
13084,-0.00021,-0.00013,6e-05,-5e-05,-0.00011,-0.00012,6e-05,2e-05,3,17
13085,-0.00021,-0.00013,6e-05,-5e-05,-0.00011,-0.00012,6e-05,2e-05,3,17
13086,-0.00021,-0.00013,6e-05,-5e-05,-0.00011,-0.00012,6e-05,2e-05,3,17
13088,-0.00021,-0.00013,6e-05,-5e-05,-0.00011,-0.00012,6e-05,2e-05,3,17
13089,-0.00021,-0.00013,6e-05,-5e-05,-0.00011,-0.00012,6e-05,2e-05,3,17
13090,-0.00021,-0.00013,6e-05,-5e-05,-0.00011,-0.00012,6e-05,2e-05,3,17
13091,0.00019,5e-05,4e-05,0,-2e-05,-9e-05,-1e-05,0.00047,3,17
13092,0.00019,5e-05,4e-05,0,-2e-05,-9e-05,-1e-05,0.00047,3,17
13094,0.00019,5e-05,4e-05,0,-2e-05,-9e-05,-1e-05,0.00047,3,17
13095,0.00019,5e-05,4e-05,0,-2e-05,-9e-05,-1e-05,0.00047,3,17
13096,0.00019,5e-05,4e-05,0,-2e-05,-9e-05,-1e-05,0.00047,3,17
13097,0.00019,5e-05,4e-05,0,-2e-05,-9e-05,-1e-05,0.00047,3,17
13098,0.00019,5e-05,4e-05,0,-2e-05,-9e-05,-1e-05,0.00047,3,17
13099,0.00019,5e-05,4e-05,0,-2e-05,-9e-05,-1e-05,0.00047,3,17
13100,-4e-05,-0.00014,-0.0001,-0.00011,-0.00027,-0.00019,-0.00014,-6e-05,3,17
13101,-4e-05,-0.00014,-0.0001,-0.00011,-0.00027,-0.00019,-0.00014,-6e-05,3,17
13102,0.00026,0.00025,8e-05,-1e-05,5e-05,-9e-05,-0.0001,-7e-05,3,17
13103,0.00026,0.00025,8e-05,-1e-05,5e-05,-9e-05,-0.0001,-7e-05,3,17
13104,0.00026,0.00025,8e-05,-1e-05,5e-05,-9e-05,-0.0001,-7e-05,3,17
13105,0.00026,0.00025,8e-05,-1e-05,5e-05,-9e-05,-0.0001,-7e-05,3,17
13106,0.00026,0.00025,8e-05,-1e-05,5e-05,-9e-05,-0.0001,-7e-05,3,17
13107,0.00026,0.00025,8e-05,-1e-05,5e-05,-9e-05,-0.0001,-7e-05,3,17
13108,0.00026,0.00025,8e-05,-1e-05,5e-05,-9e-05,-0.0001,-7e-05,3,17
13109,0.00026,0.00025,8e-05,-1e-05,5e-05,-9e-05,-0.0001,-7e-05,3,17
13110,0.00026,0.00025,8e-05,-1e-05,5e-05,-9e-05,-0.0001,-7e-05,3,17
13111,0.00026,0.00025,8e-05,-1e-05,5e-05,-9e-05,-0.0001,-7e-05,3,17
13112,0.00026,0.00025,8e-05,-1e-05,5e-05,-9e-05,-0.0001,-7e-05,3,17
13113,0.00026,0.00025,8e-05,-1e-05,5e-05,-9e-05,-0.0001,-7e-05,3,17
13114,0.00026,0.00025,8e-05,-1e-05,5e-05,-9e-05,-0.0001,-7e-05,3,17
13115,0.00026,0.00025,8e-05,-1e-05,5e-05,-9e-05,-0.0001,-7e-05,3,17
13116,0.00026,0.00025,8e-05,-1e-05,5e-05,-9e-05,-0.0001,-7e-05,3,17
13117,0.00026,0.00025,8e-05,-1e-05,5e-05,-9e-05,-0.0001,-7e-05,3,17
13118,0.00026,0.00025,8e-05,-1e-05,5e-05,-9e-05,-0.0001,-7e-05,3,17
13119,0.00026,0.00025,8e-05,-1e-05,5e-05,-9e-05,-0.0001,-7e-05,3,17
13120,0.00026,0.00025,8e-05,-1e-05,5e-05,-9e-05,-0.0001,-7e-05,3,17
13121,0.00026,0.00025,8e-05,-1e-05,5e-05,-9e-05,-0.0001,-7e-05,3,17
13122,0.00026,0.00025,8e-05,-1e-05,5e-05,-9e-05,-0.0001,-7e-05,3,17
13123,-9e-05,-0.00026,-0.00011,-0.00012,-7e-05,0,6e-05,0.00024,3,17
13124,0.00012,-1e-05,-6e-05,-3e-05,4e-05,0.00023,7e-05,0,3,17
13125,0.00012,-1e-05,-6e-05,-3e-05,4e-05,0.00023,7e-05,0,3,17
13126,0.00012,-1e-05,-6e-05,-3e-05,4e-05,0.00023,7e-05,0,3,17
13127,0.00012,-1e-05,-6e-05,-3e-05,4e-05,0.00023,7e-05,0,3,17
13128,0.00012,-1e-05,-6e-05,-3e-05,4e-05,0.00023,7e-05,0,3,17
13129,0.00012,-1e-05,-6e-05,-3e-05,4e-05,0.00023,7e-05,0,3,17
13130,0.00012,-1e-05,-6e-05,-3e-05,4e-05,0.00023,7e-05,0,3,17
13131,0.00012,-1e-05,-6e-05,-3e-05,4e-05,0.00023,7e-05,0,3,17
13132,0.00012,-1e-05,-6e-05,-3e-05,4e-05,0.00023,7e-05,0,3,17
13133,0.00012,-1e-05,-6e-05,-3e-05,4e-05,0.00023,7e-05,0,3,17
13134,0.00012,-1e-05,-6e-05,-3e-05,4e-05,0.00023,7e-05,0,3,17
13135,0.00012,-1e-05,-6e-05,-3e-05,4e-05,0.00023,7e-05,0,3,17
13136,0.00012,-1e-05,-6e-05,-3e-05,4e-05,0.00023,7e-05,0,3,17
13139,-0.00013,0.00011,0.00015,1e-05,9e-05,-4e-05,2e-05,-0.00047,3,17
13140,-0.00013,0.00011,0.00015,1e-05,9e-05,-4e-05,2e-05,-0.00047,3,17
13141,-0.00013,0.00011,0.00015,1e-05,9e-05,-4e-05,2e-05,-0.00047,3,17
13142,-0.00013,0.00011,0.00015,1e-05,9e-05,-4e-05,2e-05,-0.00047,3,17
13143,-0.00013,0.00011,0.00015,1e-05,9e-05,-4e-05,2e-05,-0.00047,3,17
13144,-6e-05,-0.0002,-0.00035,-0.00011,-5e-05,-7e-05,-0.00017,0.00022,3,17
13145,-6e-05,-0.0002,-0.00035,-0.00011,-5e-05,-7e-05,-0.00017,0.00022,3,17
13146,-6e-05,-0.0002,-0.00035,-0.00011,-5e-05,-7e-05,-0.00017,0.00022,3,17
13147,-6e-05,-0.0002,-0.00035,-0.00011,-5e-05,-7e-05,-0.00017,0.00022,3,17
13148,-6e-05,-0.0002,-0.00035,-0.00011,-5e-05,-7e-05,-0.00017,0.00022,3,17
13149,-6e-05,-0.0002,-0.00035,-0.00011,-5e-05,-7e-05,-0.00017,0.00022,3,17
13150,-6e-05,-0.0002,-0.00035,-0.00011,-5e-05,-7e-05,-0.00017,0.00022,3,17
13151,-6e-05,-0.0002,-0.00035,-0.00011,-5e-05,-7e-05,-0.00017,0.00022,3,17
13152,-6e-05,-0.0002,-0.00035,-0.00011,-5e-05,-7e-05,-0.00017,0.00022,3,17
13153,-6e-05,-0.0002,-0.00035,-0.00011,-5e-05,-7e-05,-0.00017,0.00022,3,17
13154,-6e-05,-0.0002,-0.00035,-0.00011,-5e-05,-7e-05,-0.00017,0.00022,3,17
13155,-6e-05,-0.0002,-0.00035,-0.00011,-5e-05,-7e-05,-0.00017,0.00022,3,17
13156,-6e-05,-0.0002,-0.00035,-0.00011,-5e-05,-7e-05,-0.00017,0.00022,3,17
13157,-6e-05,-0.0002,-0.00035,-0.00011,-5e-05,-7e-05,-0.00017,0.00022,3,17
13158,-6e-05,-0.0002,-0.00035,-0.00011,-5e-05,-7e-05,-0.00017,0.00022,3,17
13159,-6e-05,-0.0002,-0.00035,-0.00011,-5e-05,-7e-05,-0.00017,0.00022,3,17
13160,0.00011,0.00016,0.00014,-7e-05,-0.00015,-9e-05,0.00014,3e-05,3,17
13161,-4e-05,0.00028,0.00011,5e-05,1e-05,6e-05,6e-05,0.00018,3,17
13162,-0.00041,-0.00021,-1e-05,-5e-05,-0.00016,-0.00014,-0.0001,-0.00013,3,17
13163,-0.00041,-0.00021,-1e-05,-5e-05,-0.00016,-0.00014,-0.0001,-0.00013,3,17
13164,-0.00041,-0.00021,-1e-05,-5e-05,-0.00016,-0.00014,-0.0001,-0.00013,3,17
13165,-0.00041,-0.00021,-1e-05,-5e-05,-0.00016,-0.00014,-0.0001,-0.00013,3,17
13166,-0.00041,-0.00021,-1e-05,-5e-05,-0.00016,-0.00014,-0.0001,-0.00013,3,17
13167,-0.00041,-0.00021,-1e-05,-5e-05,-0.00016,-0.00014,-0.0001,-0.00013,3,17
13168,-0.00041,-0.00021,-1e-05,-5e-05,-0.00016,-0.00014,-0.0001,-0.00013,3,17
13169,-0.00041,-0.00021,-1e-05,-5e-05,-0.00016,-0.00014,-0.0001,-0.00013,3,17
13170,-0.00041,-0.00021,-1e-05,-5e-05,-0.00016,-0.00014,-0.0001,-0.00013,3,17
13171,-0.00041,-0.00021,-1e-05,-5e-05,-0.00016,-0.00014,-0.0001,-0.00013,3,17
13172,-0.00041,-0.00021,-1e-05,-5e-05,-0.00016,-0.00014,-0.0001,-0.00013,3,17
13173,-0.00041,-0.00021,-1e-05,-5e-05,-0.00016,-0.00014,-0.0001,-0.00013,3,17
13174,-0.00041,-0.00021,-1e-05,-5e-05,-0.00016,-0.00014,-0.0001,-0.00013,3,17
13175,-0.00041,-0.00021,-1e-05,-5e-05,-0.00016,-0.00014,-0.0001,-0.00013,3,17
13176,-0.00041,-0.00021,-1e-05,-5e-05,-0.00016,-0.00014,-0.0001,-0.00013,3,17
13177,-0.00041,-0.00021,-1e-05,-5e-05,-0.00016,-0.00014,-0.0001,-0.00013,3,17
13178,-0.00041,-0.00021,-1e-05,-5e-05,-0.00016,-0.00014,-0.0001,-0.00013,3,17
13179,-0.00041,-0.00021,-1e-05,-5e-05,-0.00016,-0.00014,-0.0001,-0.00013,3,17
13180,-0.00041,-0.00021,-1e-05,-5e-05,-0.00016,-0.00014,-0.0001,-0.00013,3,17
13181,-0.00041,-0.00021,-1e-05,-5e-05,-0.00016,-0.00014,-0.0001,-0.00013,3,17
13182,-0.00041,-0.00021,-1e-05,-5e-05,-0.00016,-0.00014,-0.0001,-0.00013,3,17
13183,0.00029,0.00025,5e-05,1e-05,-0.0001,-0.00024,0,0.00039,3,17
13184,-0.00035,-0.00028,-0.00017,-8e-05,-3e-05,0.0001,-2e-05,-0.00053,3,17
13185,-0.00035,-0.00028,-0.00017,-8e-05,-3e-05,0.0001,-2e-05,-0.00053,3,17
13186,-0.00035,-0.00028,-0.00017,-8e-05,-3e-05,0.0001,-2e-05,-0.00053,3,17
13188,-0.00035,-0.00028,-0.00017,-8e-05,-3e-05,0.0001,-2e-05,-0.00053,3,17
13189,-0.00035,-0.00028,-0.00017,-8e-05,-3e-05,0.0001,-2e-05,-0.00053,3,17
13190,-0.00035,-0.00028,-0.00017,-8e-05,-3e-05,0.0001,-2e-05,-0.00053,3,17
13191,-0.00035,-0.00028,-0.00017,-8e-05,-3e-05,0.0001,-2e-05,-0.00053,3,17
13192,-0.00035,-0.00028,-0.00017,-8e-05,-3e-05,0.0001,-2e-05,-0.00053,3,17
13193,-0.00035,-0.00028,-0.00017,-8e-05,-3e-05,0.0001,-2e-05,-0.00053,3,17
13194,-0.00035,-0.00028,-0.00017,-8e-05,-3e-05,0.0001,-2e-05,-0.00053,3,17
13195,-0.00035,-0.00028,-0.00017,-8e-05,-3e-05,0.0001,-2e-05,-0.00053,3,17
13196,-0.00035,-0.00028,-0.00017,-8e-05,-3e-05,0.0001,-2e-05,-0.00053,3,17
13197,-5e-05,1e-05,-8e-05,-3e-05,-0.00014,-0.00014,7e-05,5e-05,3,17
13198,-5e-05,1e-05,-8e-05,-3e-05,-0.00014,-0.00014,7e-05,5e-05,3,17
13199,-5e-05,1e-05,-8e-05,-3e-05,-0.00014,-0.00014,7e-05,5e-05,3,17
13200,-5e-05,1e-05,-8e-05,-3e-05,-0.00014,-0.00014,7e-05,5e-05,3,17
13201,-5e-05,1e-05,-8e-05,-3e-05,-0.00014,-0.00014,7e-05,5e-05,3,17
13202,-5e-05,1e-05,-8e-05,-3e-05,-0.00014,-0.00014,7e-05,5e-05,3,17
13203,-5e-05,1e-05,-8e-05,-3e-05,-0.00014,-0.00014,7e-05,5e-05,3,17
13204,4e-05,0.0001,8e-05,0.00013,4e-05,8e-05,4e-05,-0.00046,3,17
13205,4e-05,0.0001,8e-05,0.00013,4e-05,8e-05,4e-05,-0.00046,3,17
13206,4e-05,0.0001,8e-05,0.00013,4e-05,8e-05,4e-05,-0.00046,3,17
13207,4e-05,0.0001,8e-05,0.00013,4e-05,8e-05,4e-05,-0.00046,3,17
13208,4e-05,0.0001,8e-05,0.00013,4e-05,8e-05,4e-05,-0.00046,3,17
13209,4e-05,0.0001,8e-05,0.00013,4e-05,8e-05,4e-05,-0.00046,3,17
13210,4e-05,0.0001,8e-05,0.00013,4e-05,8e-05,4e-05,-0.00046,3,17
13211,4e-05,0.0001,8e-05,0.00013,4e-05,8e-05,4e-05,-0.00046,3,17
13212,4e-05,0.0001,8e-05,0.00013,4e-05,8e-05,4e-05,-0.00046,3,17
13213,4e-05,0.0001,8e-05,0.00013,4e-05,8e-05,4e-05,-0.00046,3,17
13214,4e-05,0.0001,8e-05,0.00013,4e-05,8e-05,4e-05,-0.00046,3,17
13215,4e-05,0.0001,8e-05,0.00013,4e-05,8e-05,4e-05,-0.00046,3,17
13216,4e-05,0.0001,8e-05,0.00013,4e-05,8e-05,4e-05,-0.00046,3,17
13217,4e-05,0.0001,8e-05,0.00013,4e-05,8e-05,4e-05,-0.00046,3,17
13218,4e-05,0.0001,8e-05,0.00013,4e-05,8e-05,4e-05,-0.00046,3,17
13219,4e-05,0.0001,8e-05,0.00013,4e-05,8e-05,4e-05,-0.00046,3,17
13220,-2e-05,9e-05,0.00015,0.00011,0.00018,-9e-05,0,1e-05,3,17
13221,-3e-05,-0.00022,-9e-05,-1e-05,-2e-05,3e-05,-0.00025,-9e-05,3,17
13222,9e-05,4e-05,-2e-05,-0.00013,-0.00021,-5e-05,0,-0.00042,3,17
13223,9e-05,4e-05,-2e-05,-0.00013,-0.00021,-5e-05,0,-0.00042,3,17
13224,9e-05,4e-05,-2e-05,-0.00013,-0.00021,-5e-05,0,-0.00042,3,17
13225,9e-05,4e-05,-2e-05,-0.00013,-0.00021,-5e-05,0,-0.00042,3,17
13226,9e-05,4e-05,-2e-05,-0.00013,-0.00021,-5e-05,0,-0.00042,3,17
13227,9e-05,4e-05,-2e-05,-0.00013,-0.00021,-5e-05,0,-0.00042,3,17
13228,9e-05,4e-05,-2e-05,-0.00013,-0.00021,-5e-05,0,-0.00042,3,17
13229,9e-05,4e-05,-2e-05,-0.00013,-0.00021,-5e-05,0,-0.00042,3,17
13230,9e-05,4e-05,-2e-05,-0.00013,-0.00021,-5e-05,0,-0.00042,3,17
13231,9e-05,4e-05,-2e-05,-0.00013,-0.00021,-5e-05,0,-0.00042,3,17
13232,9e-05,4e-05,-2e-05,-0.00013,-0.00021,-5e-05,0,-0.00042,3,17
13233,9e-05,4e-05,-2e-05,-0.00013,-0.00021,-5e-05,0,-0.00042,3,17
13234,9e-05,4e-05,-2e-05,-0.00013,-0.00021,-5e-05,0,-0.00042,3,17
13235,9e-05,4e-05,-2e-05,-0.00013,-0.00021,-5e-05,0,-0.00042,3,17
13236,9e-05,4e-05,-2e-05,-0.00013,-0.00021,-5e-05,0,-0.00042,3,17
13238,9e-05,4e-05,-2e-05,-0.00013,-0.00021,-5e-05,0,-0.00042,3,17
13239,9e-05,4e-05,-2e-05,-0.00013,-0.00021,-5e-05,0,-0.00042,3,17
13240,9e-05,4e-05,-2e-05,-0.00013,-0.00021,-5e-05,0,-0.00042,3,17
13241,9e-05,4e-05,-2e-05,-0.00013,-0.00021,-5e-05,0,-0.00042,3,17
13242,9e-05,4e-05,-2e-05,-0.00013,-0.00021,-5e-05,0,-0.00042,3,17
13243,0.0003,4e-05,-1e-05,0.00014,0.00025,6e-05,0.0001,0.00037,3,17
13244,0.00017,0.0001,-8e-05,-0.00011,-0.00025,-0.00016,-7e-05,-0.0001,3,17
13245,8e-05,-0.00013,0,-1e-05,7e-05,5e-05,-0.00012,0.00035,3,17
13246,8e-05,-0.00013,0,-1e-05,7e-05,5e-05,-0.00012,0.00035,3,17
13247,8e-05,-0.00013,0,-1e-05,7e-05,5e-05,-0.00012,0.00035,3,17
13248,8e-05,-0.00013,0,-1e-05,7e-05,5e-05,-0.00012,0.00035,3,17
13249,8e-05,-0.00013,0,-1e-05,7e-05,5e-05,-0.00012,0.00035,3,17
13250,8e-05,-0.00013,0,-1e-05,7e-05,5e-05,-0.00012,0.00035,3,17
13251,8e-05,-0.00013,0,-1e-05,7e-05,5e-05,-0.00012,0.00035,3,17
13252,8e-05,-0.00013,0,-1e-05,7e-05,5e-05,-0.00012,0.00035,3,17
13253,8e-05,-0.00013,0,-1e-05,7e-05,5e-05,-0.00012,0.00035,3,17
13254,8e-05,-0.00013,0,-1e-05,7e-05,5e-05,-0.00012,0.00035,3,17
13255,8e-05,-0.00013,0,-1e-05,7e-05,5e-05,-0.00012,0.00035,3,17
13256,8e-05,-0.00013,0,-1e-05,7e-05,5e-05,-0.00012,0.00035,3,17
13257,-0.00015,-0.00014,-9e-05,-0.00012,-0.00021,-0.00013,0.00012,0.00035,3,17
13258,-0.00015,-0.00014,-9e-05,-0.00012,-0.00021,-0.00013,0.00012,0.00035,3,17
13259,-0.00015,-0.00014,-9e-05,-0.00012,-0.00021,-0.00013,0.00012,0.00035,3,17
13260,-0.00015,-0.00014,-9e-05,-0.00012,-0.00021,-0.00013,0.00012,0.00035,3,17
13261,-0.00015,-0.00014,-9e-05,-0.00012,-0.00021,-0.00013,0.00012,0.00035,3,17
13262,-0.00015,-0.00014,-9e-05,-0.00012,-0.00021,-0.00013,0.00012,0.00035,3,17
13263,-0.00015,-0.00014,-9e-05,-0.00012,-0.00021,-0.00013,0.00012,0.00035,3,17
13264,-0.00016,0.00012,0.00013,3e-05,0.00011,4e-05,-0.00011,6e-05,3,17
13265,-0.00016,0.00012,0.00013,3e-05,0.00011,4e-05,-0.00011,6e-05,3,17
13266,-0.00016,0.00012,0.00013,3e-05,0.00011,4e-05,-0.00011,6e-05,3,17
13267,-0.00016,0.00012,0.00013,3e-05,0.00011,4e-05,-0.00011,6e-05,3,17
13268,-0.00016,0.00012,0.00013,3e-05,0.00011,4e-05,-0.00011,6e-05,3,17
13269,-0.00016,0.00012,0.00013,3e-05,0.00011,4e-05,-0.00011,6e-05,3,17
13270,-0.00016,0.00012,0.00013,3e-05,0.00011,4e-05,-0.00011,6e-05,3,17
13271,-0.00016,0.00012,0.00013,3e-05,0.00011,4e-05,-0.00011,6e-05,3,17
13272,-0.00016,0.00012,0.00013,3e-05,0.00011,4e-05,-0.00011,6e-05,3,17
13273,-0.00016,0.00012,0.00013,3e-05,0.00011,4e-05,-0.00011,6e-05,3,17
13274,-0.00016,0.00012,0.00013,3e-05,0.00011,4e-05,-0.00011,6e-05,3,17
13275,-0.00016,0.00012,0.00013,3e-05,0.00011,4e-05,-0.00011,6e-05,3,17
13276,-0.00016,0.00012,0.00013,3e-05,0.00011,4e-05,-0.00011,6e-05,3,17
13277,-0.00016,0.00012,0.00013,3e-05,0.00011,4e-05,-0.00011,6e-05,3,17
13278,-0.00016,0.00012,0.00013,3e-05,0.00011,4e-05,-0.00011,6e-05,3,17
13279,-0.00016,0.00012,0.00013,3e-05,0.00011,4e-05,-0.00011,6e-05,3,17
13280,-0.0002,-0.00029,-8e-05,6e-05,0,0.00012,2e-05,0.00021,3,17
13281,-0.0002,-0.00029,-8e-05,6e-05,0,0.00012,2e-05,0.00021,3,17
13282,7e-05,8e-05,5e-05,2e-05,-2e-05,-6e-05,7e-05,-7e-05,3,17
13283,7e-05,8e-05,5e-05,2e-05,-2e-05,-6e-05,7e-05,-7e-05,3,17
13284,7e-05,8e-05,5e-05,2e-05,-2e-05,-6e-05,7e-05,-7e-05,3,17
13285,7e-05,8e-05,5e-05,2e-05,-2e-05,-6e-05,7e-05,-7e-05,3,17
13286,7e-05,8e-05,5e-05,2e-05,-2e-05,-6e-05,7e-05,-7e-05,3,17
13288,7e-05,8e-05,5e-05,2e-05,-2e-05,-6e-05,7e-05,-7e-05,3,17
13289,7e-05,8e-05,5e-05,2e-05,-2e-05,-6e-05,7e-05,-7e-05,3,17
13290,7e-05,8e-05,5e-05,2e-05,-2e-05,-6e-05,7e-05,-7e-05,3,17
13291,7e-05,8e-05,5e-05,2e-05,-2e-05,-6e-05,7e-05,-7e-05,3,17
13292,7e-05,8e-05,5e-05,2e-05,-2e-05,-6e-05,7e-05,-7e-05,3,17
13293,7e-05,8e-05,5e-05,2e-05,-2e-05,-6e-05,7e-05,-7e-05,3,17
13294,7e-05,8e-05,5e-05,2e-05,-2e-05,-6e-05,7e-05,-7e-05,3,17
13295,7e-05,8e-05,5e-05,2e-05,-2e-05,-6e-05,7e-05,-7e-05,3,17
13296,7e-05,8e-05,5e-05,2e-05,-2e-05,-6e-05,7e-05,-7e-05,3,17
13297,7e-05,8e-05,5e-05,2e-05,-2e-05,-6e-05,7e-05,-7e-05,3,17
13298,7e-05,8e-05,5e-05,2e-05,-2e-05,-6e-05,7e-05,-7e-05,3,17
13299,7e-05,8e-05,5e-05,2e-05,-2e-05,-6e-05,7e-05,-7e-05,3,17
13300,7e-05,8e-05,5e-05,2e-05,-2e-05,-6e-05,7e-05,-7e-05,3,17
13301,7e-05,8e-05,5e-05,2e-05,-2e-05,-6e-05,7e-05,-7e-05,3,17
13302,7e-05,8e-05,5e-05,2e-05,-2e-05,-6e-05,7e-05,-7e-05,3,17
13303,-5e-05,4e-05,-9e-05,-5e-05,4e-05,8e-05,-0.0001,-0.00035,3,17
13304,-5e-05,4e-05,-9e-05,-5e-05,4e-05,8e-05,-0.0001,-0.00035,3,17
13305,-0.00023,-0.00032,-0.00011,-5e-05,-4e-05,-9e-05,-0.00011,-0.0002,3,17
13306,-0.00023,-0.00032,-0.00011,-5e-05,-4e-05,-9e-05,-0.00011,-0.0002,3,17
13307,-0.00023,-0.00032,-0.00011,-5e-05,-4e-05,-9e-05,-0.00011,-0.0002,3,17
13308,-0.00023,-0.00032,-0.00011,-5e-05,-4e-05,-9e-05,-0.00011,-0.0002,3,17
13309,-0.00023,-0.00032,-0.00011,-5e-05,-4e-05,-9e-05,-0.00011,-0.0002,3,17
13310,-0.00023,-0.00032,-0.00011,-5e-05,-4e-05,-9e-05,-0.00011,-0.0002,3,17
13311,-0.00023,-0.00032,-0.00011,-5e-05,-4e-05,-9e-05,-0.00011,-0.0002,3,17
13312,-0.00023,-0.00032,-0.00011,-5e-05,-4e-05,-9e-05,-0.00011,-0.0002,3,17
13313,-0.00023,-0.00032,-0.00011,-5e-05,-4e-05,-9e-05,-0.00011,-0.0002,3,17
13314,-0.00023,-0.00032,-0.00011,-5e-05,-4e-05,-9e-05,-0.00011,-0.0002,3,17
13315,-0.00023,-0.00032,-0.00011,-5e-05,-4e-05,-9e-05,-0.00011,-0.0002,3,17
13316,-0.00023,-0.00032,-0.00011,-5e-05,-4e-05,-9e-05,-0.00011,-0.0002,3,17
13317,-0.00023,-0.00032,-0.00011,-5e-05,-4e-05,-9e-05,-0.00011,-0.0002,3,17
13318,-0.00025,-0.00015,1e-05,1e-05,5e-05,0.00026,1e-05,-0.00036,3,17
13319,-0.00025,-0.00015,1e-05,1e-05,5e-05,0.00026,1e-05,-0.00036,3,17
13320,-0.00025,-0.00015,1e-05,1e-05,5e-05,0.00026,1e-05,-0.00036,3,17
13321,-0.00025,-0.00015,1e-05,1e-05,5e-05,0.00026,1e-05,-0.00036,3,17
13322,-0.00025,-0.00015,1e-05,1e-05,5e-05,0.00026,1e-05,-0.00036,3,17
13323,-0.00025,-0.00015,1e-05,1e-05,5e-05,0.00026,1e-05,-0.00036,3,17
13324,2e-05,6e-05,4e-05,4e-05,-6e-05,-6e-05,-4e-05,-0.00021,3,17
13325,2e-05,6e-05,4e-05,4e-05,-6e-05,-6e-05,-4e-05,-0.00021,3,17
13326,2e-05,6e-05,4e-05,4e-05,-6e-05,-6e-05,-4e-05,-0.00021,3,17
13327,2e-05,6e-05,4e-05,4e-05,-6e-05,-6e-05,-4e-05,-0.00021,3,17
13328,2e-05,6e-05,4e-05,4e-05,-6e-05,-6e-05,-4e-05,-0.00021,3,17
13329,2e-05,6e-05,4e-05,4e-05,-6e-05,-6e-05,-4e-05,-0.00021,3,17
13330,2e-05,6e-05,4e-05,4e-05,-6e-05,-6e-05,-4e-05,-0.00021,3,17
13331,2e-05,6e-05,4e-05,4e-05,-6e-05,-6e-05,-4e-05,-0.00021,3,17
13332,2e-05,6e-05,4e-05,4e-05,-6e-05,-6e-05,-4e-05,-0.00021,3,17
13333,2e-05,6e-05,4e-05,4e-05,-6e-05,-6e-05,-4e-05,-0.00021,3,17
13334,2e-05,6e-05,4e-05,4e-05,-6e-05,-6e-05,-4e-05,-0.00021,3,17
13335,2e-05,6e-05,4e-05,4e-05,-6e-05,-6e-05,-4e-05,-0.00021,3,17
13336,2e-05,6e-05,4e-05,4e-05,-6e-05,-6e-05,-4e-05,-0.00021,3,17
13338,2e-05,6e-05,4e-05,4e-05,-6e-05,-6e-05,-4e-05,-0.00021,3,17
13339,2e-05,6e-05,4e-05,4e-05,-6e-05,-6e-05,-4e-05,-0.00021,3,17
13340,2e-05,6e-05,4e-05,4e-05,-6e-05,-6e-05,-4e-05,-0.00021,3,17
13341,2e-05,6e-05,4e-05,4e-05,-6e-05,-6e-05,-4e-05,-0.00021,3,17
13342,2e-05,6e-05,4e-05,4e-05,-6e-05,-6e-05,-4e-05,-0.00021,3,17
13343,2e-05,6e-05,4e-05,4e-05,-6e-05,-6e-05,-4e-05,-0.00021,3,17
13344,2e-05,6e-05,4e-05,4e-05,-6e-05,-6e-05,-4e-05,-0.00021,3,17
13345,2e-05,6e-05,4e-05,4e-05,-6e-05,-6e-05,-4e-05,-0.00021,3,17
13346,2e-05,6e-05,4e-05,4e-05,-6e-05,-6e-05,-4e-05,-0.00021,3,17
13347,2e-05,6e-05,4e-05,4e-05,-6e-05,-6e-05,-4e-05,-0.00021,3,17
13348,-8e-05,1e-05,6e-05,-2e-05,-0.0001,-0.00012,-8e-05,6e-05,3,17
13349,-9e-05,5e-05,5e-05,0.00016,0.00025,0.00016,0.00019,6e-05,3,17
13350,0.0005,-0.00011,-0.00016,-8e-05,-4e-05,-0.00021,3e-05,0.00023,3,17
13351,0.0005,-0.00011,-0.00016,-8e-05,-4e-05,-0.00021,3e-05,0.00023,3,17
13352,0.0005,-0.00011,-0.00016,-8e-05,-4e-05,-0.00021,3e-05,0.00023,3,17
13353,0.0005,-0.00011,-0.00016,-8e-05,-4e-05,-0.00021,3e-05,0.00023,3,17
13354,0.0005,-0.00011,-0.00016,-8e-05,-4e-05,-0.00021,3e-05,0.00023,3,17
13355,0.0005,-0.00011,-0.00016,-8e-05,-4e-05,-0.00021,3e-05,0.00023,3,17
13356,0.0005,-0.00011,-0.00016,-8e-05,-4e-05,-0.00021,3e-05,0.00023,3,17
13357,0.0005,-0.00011,-0.00016,-8e-05,-4e-05,-0.00021,3e-05,0.00023,3,17
13358,0.0005,-0.00011,-0.00016,-8e-05,-4e-05,-0.00021,3e-05,0.00023,3,17
13359,0.0005,-0.00011,-0.00016,-8e-05,-4e-05,-0.00021,3e-05,0.00023,3,17
13360,0.0005,-0.00011,-0.00016,-8e-05,-4e-05,-0.00021,3e-05,0.00023,3,17
13361,0.0005,-0.00011,-0.00016,-8e-05,-4e-05,-0.00021,3e-05,0.00023,3,17
13362,0.0005,-0.00011,-0.00016,-8e-05,-4e-05,-0.00021,3e-05,0.00023,3,17
13363,0.0005,-0.00011,-0.00016,-8e-05,-4e-05,-0.00021,3e-05,0.00023,3,17
13364,0.0005,-0.00011,-0.00016,-8e-05,-4e-05,-0.00021,3e-05,0.00023,3,17
13365,0.0005,-0.00011,-0.00016,-8e-05,-4e-05,-0.00021,3e-05,0.00023,3,17
13366,0.0005,-0.00011,-0.00016,-8e-05,-4e-05,-0.00021,3e-05,0.00023,3,17
13367,0.0005,-0.00011,-0.00016,-8e-05,-4e-05,-0.00021,3e-05,0.00023,3,17
13368,0.0005,-0.00011,-0.00016,-8e-05,-4e-05,-0.00021,3e-05,0.00023,3,17
13369,0.0005,-0.00011,-0.00016,-8e-05,-4e-05,-0.00021,3e-05,0.00023,3,17
13370,0,0.00027,7e-05,-9e-05,-0.00012,-0.00016,-0.00014,-0.00049,3,17
13371,0,0.00027,7e-05,-9e-05,-0.00012,-0.00016,-0.00014,-0.00049,3,17
13372,-0.00016,3e-05,0,2e-05,-1e-05,-0.0002,-2e-05,-0.00029,3,17
13374,-0.00016,3e-05,0,2e-05,-1e-05,-0.0002,-2e-05,-0.00029,3,17
13375,-0.00016,3e-05,0,2e-05,-1e-05,-0.0002,-2e-05,-0.00029,3,17
13376,0.00025,0.00019,-2e-05,3e-05,0.00019,0.00027,0.00039,0.00025,3,17
13377,0,6e-05,4e-05,6e-05,0.00011,3e-05,-8e-05,3e-05,3,17
13378,0,6e-05,4e-05,6e-05,0.00011,3e-05,-8e-05,3e-05,3,17
13379,0,6e-05,4e-05,6e-05,0.00011,3e-05,-8e-05,3e-05,3,17
13380,0,6e-05,4e-05,6e-05,0.00011,3e-05,-8e-05,3e-05,3,17
13381,0,6e-05,4e-05,6e-05,0.00011,3e-05,-8e-05,3e-05,3,17
13382,0,6e-05,4e-05,6e-05,0.00011,3e-05,-8e-05,3e-05,3,17
13383,0,6e-05,4e-05,6e-05,0.00011,3e-05,-8e-05,3e-05,3,17
13384,0,6e-05,4e-05,6e-05,0.00011,3e-05,-8e-05,3e-05,3,17
13385,0,6e-05,4e-05,6e-05,0.00011,3e-05,-8e-05,3e-05,3,17
13386,0,6e-05,4e-05,6e-05,0.00011,3e-05,-8e-05,3e-05,3,17
13388,0,6e-05,4e-05,6e-05,0.00011,3e-05,-8e-05,3e-05,3,17
13389,0,6e-05,4e-05,6e-05,0.00011,3e-05,-8e-05,3e-05,3,17
13390,0,6e-05,4e-05,6e-05,0.00011,3e-05,-8e-05,3e-05,3,17
13391,0,6e-05,4e-05,6e-05,0.00011,3e-05,-8e-05,3e-05,3,17
13392,0,6e-05,4e-05,6e-05,0.00011,3e-05,-8e-05,3e-05,3,17
13393,0,7e-05,1e-05,3e-05,6e-05,9e-05,9e-05,0.00018,3,17
13394,0,7e-05,1e-05,3e-05,6e-05,9e-05,9e-05,0.00018,3,17
13395,0,7e-05,1e-05,3e-05,6e-05,9e-05,9e-05,0.00018,3,17
13396,0,7e-05,1e-05,3e-05,6e-05,9e-05,9e-05,0.00018,3,17
13397,0,7e-05,1e-05,3e-05,6e-05,9e-05,9e-05,0.00018,3,17
13398,0,7e-05,1e-05,3e-05,6e-05,9e-05,9e-05,0.00018,3,17
13399,0,7e-05,1e-05,3e-05,6e-05,9e-05,9e-05,0.00018,3,17
13400,-0.00021,-0.00019,0,-6e-05,-8e-05,-1e-05,-3e-05,-3e-05,3,17
13401,-0.00021,-0.00019,0,-6e-05,-8e-05,-1e-05,-3e-05,-3e-05,3,17
13402,-0.00012,1e-05,-3e-05,0.0001,0.00013,0.00012,8e-05,0.00018,3,17
13403,-0.00012,1e-05,-3e-05,0.0001,0.00013,0.00012,8e-05,0.00018,3,17
13404,-0.00012,1e-05,-3e-05,0.0001,0.00013,0.00012,8e-05,0.00018,3,17
13405,-0.00012,1e-05,-3e-05,0.0001,0.00013,0.00012,8e-05,0.00018,3,17
13406,-0.00012,1e-05,-3e-05,0.0001,0.00013,0.00012,8e-05,0.00018,3,17
13407,-0.00012,1e-05,-3e-05,0.0001,0.00013,0.00012,8e-05,0.00018,3,17
13408,-0.00012,1e-05,-3e-05,0.0001,0.00013,0.00012,8e-05,0.00018,3,17
13409,-0.00012,1e-05,-3e-05,0.0001,0.00013,0.00012,8e-05,0.00018,3,17
13410,-0.00012,1e-05,-3e-05,0.0001,0.00013,0.00012,8e-05,0.00018,3,17
13411,-0.00012,1e-05,-3e-05,0.0001,0.00013,0.00012,8e-05,0.00018,3,17
13412,-0.00012,1e-05,-3e-05,0.0001,0.00013,0.00012,8e-05,0.00018,3,17
13413,-0.00012,1e-05,-3e-05,0.0001,0.00013,0.00012,8e-05,0.00018,3,17
13414,-0.00012,1e-05,-3e-05,0.0001,0.00013,0.00012,8e-05,0.00018,3,17
13415,-0.00012,1e-05,-3e-05,0.0001,0.00013,0.00012,8e-05,0.00018,3,17
13416,-0.00012,1e-05,-3e-05,0.0001,0.00013,0.00012,8e-05,0.00018,3,17
13417,-0.00012,1e-05,-3e-05,0.0001,0.00013,0.00012,8e-05,0.00018,3,17
13418,-0.00012,1e-05,-3e-05,0.0001,0.00013,0.00012,8e-05,0.00018,3,17
13419,-0.00012,1e-05,-3e-05,0.0001,0.00013,0.00012,8e-05,0.00018,3,17
13420,-0.00012,1e-05,-3e-05,0.0001,0.00013,0.00012,8e-05,0.00018,3,17
13421,-0.00012,1e-05,-3e-05,0.0001,0.00013,0.00012,8e-05,0.00018,3,17
13422,-0.00012,1e-05,-3e-05,0.0001,0.00013,0.00012,8e-05,0.00018,3,17
13423,2e-05,-4e-05,-0.00013,-6e-05,-9e-05,-0.00014,1e-05,-4e-05,3,17
13424,9e-05,3e-05,-2e-05,2e-05,0.00011,0.00029,0.00013,0.00038,3,17
13425,9e-05,3e-05,-2e-05,2e-05,0.00011,0.00029,0.00013,0.00038,3,17
13426,9e-05,3e-05,-2e-05,2e-05,0.00011,0.00029,0.00013,0.00038,3,17
13427,9e-05,3e-05,-2e-05,2e-05,0.00011,0.00029,0.00013,0.00038,3,17
13428,9e-05,3e-05,-2e-05,2e-05,0.00011,0.00029,0.00013,0.00038,3,17
13429,9e-05,3e-05,-2e-05,2e-05,0.00011,0.00029,0.00013,0.00038,3,17
13430,9e-05,3e-05,-2e-05,2e-05,0.00011,0.00029,0.00013,0.00038,3,17
13431,9e-05,3e-05,-2e-05,2e-05,0.00011,0.00029,0.00013,0.00038,3,17
13432,9e-05,3e-05,-2e-05,2e-05,0.00011,0.00029,0.00013,0.00038,3,17
13433,9e-05,3e-05,-2e-05,2e-05,0.00011,0.00029,0.00013,0.00038,3,17
13434,9e-05,3e-05,-2e-05,2e-05,0.00011,0.00029,0.00013,0.00038,3,17
13435,9e-05,3e-05,-2e-05,2e-05,0.00011,0.00029,0.00013,0.00038,3,17
13436,9e-05,3e-05,-2e-05,2e-05,0.00011,0.00029,0.00013,0.00038,3,17
13438,-1e-05,8e-05,0.00011,4e-05,5e-05,5e-05,5e-05,-5e-05,3,17
13439,-1e-05,8e-05,0.00011,4e-05,5e-05,5e-05,5e-05,-5e-05,3,17
13440,-1e-05,8e-05,0.00011,4e-05,5e-05,5e-05,5e-05,-5e-05,3,17
13441,-1e-05,8e-05,0.00011,4e-05,5e-05,5e-05,5e-05,-5e-05,3,17
13442,-1e-05,8e-05,0.00011,4e-05,5e-05,5e-05,5e-05,-5e-05,3,17
13443,-1e-05,8e-05,0.00011,4e-05,5e-05,5e-05,5e-05,-5e-05,3,17
13444,-1e-05,8e-05,0.00011,4e-05,5e-05,5e-05,5e-05,-5e-05,3,17
13445,0.00066,0.00012,0,-1e-05,-0.00012,2e-05,2e-05,0.00037,3,17
13446,-0.0002,-0.00019,-8e-05,-4e-05,0.00016,0.00023,7e-05,-0.00014,3,17
13447,-0.0002,-0.00019,-8e-05,-4e-05,0.00016,0.00023,7e-05,-0.00014,3,17
13448,-0.0002,-0.00019,-8e-05,-4e-05,0.00016,0.00023,7e-05,-0.00014,3,17
13449,-0.0002,-0.00019,-8e-05,-4e-05,0.00016,0.00023,7e-05,-0.00014,3,17
13450,-0.0002,-0.00019,-8e-05,-4e-05,0.00016,0.00023,7e-05,-0.00014,3,17
13451,-0.0002,-0.00019,-8e-05,-4e-05,0.00016,0.00023,7e-05,-0.00014,3,17
13452,-0.0002,-0.00019,-8e-05,-4e-05,0.00016,0.00023,7e-05,-0.00014,3,17
13453,-0.0002,-0.00019,-8e-05,-4e-05,0.00016,0.00023,7e-05,-0.00014,3,17
13454,-0.0002,-0.00019,-8e-05,-4e-05,0.00016,0.00023,7e-05,-0.00014,3,17
13455,-0.0002,-0.00019,-8e-05,-4e-05,0.00016,0.00023,7e-05,-0.00014,3,17
13456,-0.0002,-0.00019,-8e-05,-4e-05,0.00016,0.00023,7e-05,-0.00014,3,17
13457,-0.0002,-0.00019,-8e-05,-4e-05,0.00016,0.00023,7e-05,-0.00014,3,17
13458,-0.0002,-0.00019,-8e-05,-4e-05,0.00016,0.00023,7e-05,-0.00014,3,17
13459,-0.0002,-0.00019,-8e-05,-4e-05,0.00016,0.00023,7e-05,-0.00014,3,17
13460,0.00013,-4e-05,-7e-05,4e-05,4e-05,-5e-05,-7e-05,-3e-05,3,17
13461,-2e-05,-5e-05,-5e-05,0,1e-05,4e-05,-0.00014,-0.00024,3,17
13462,-0.00011,-0.00017,2e-05,-4e-05,-0.00012,-9e-05,-3e-05,-0.00058,3,17
13463,-0.00011,-0.00017,2e-05,-4e-05,-0.00012,-9e-05,-3e-05,-0.00058,3,17
13464,-0.00011,-0.00017,2e-05,-4e-05,-0.00012,-9e-05,-3e-05,-0.00058,3,17
13465,-0.00011,-0.00017,2e-05,-4e-05,-0.00012,-9e-05,-3e-05,-0.00058,3,17
13466,-0.00011,-0.00017,2e-05,-4e-05,-0.00012,-9e-05,-3e-05,-0.00058,3,17
13467,-0.00011,-0.00017,2e-05,-4e-05,-0.00012,-9e-05,-3e-05,-0.00058,3,17
13468,-0.00011,-0.00017,2e-05,-4e-05,-0.00012,-9e-05,-3e-05,-0.00058,3,17
13469,-0.00011,-0.00017,2e-05,-4e-05,-0.00012,-9e-05,-3e-05,-0.00058,3,17
13470,-0.00011,-0.00017,2e-05,-4e-05,-0.00012,-9e-05,-3e-05,-0.00058,3,17
13471,-0.00011,-0.00017,2e-05,-4e-05,-0.00012,-9e-05,-3e-05,-0.00058,3,17
13472,-0.00011,-0.00017,2e-05,-4e-05,-0.00012,-9e-05,-3e-05,-0.00058,3,17
13473,-0.00011,-0.00017,2e-05,-4e-05,-0.00012,-9e-05,-3e-05,-0.00058,3,17
13474,-0.00011,-0.00017,2e-05,-4e-05,-0.00012,-9e-05,-3e-05,-0.00058,3,17
13475,-0.00011,-0.00017,2e-05,-4e-05,-0.00012,-9e-05,-3e-05,-0.00058,3,17
13476,-0.00011,-0.00017,2e-05,-4e-05,-0.00012,-9e-05,-3e-05,-0.00058,3,17
13477,-0.00011,-0.00017,2e-05,-4e-05,-0.00012,-9e-05,-3e-05,-0.00058,3,17
13478,-0.00011,-0.00017,2e-05,-4e-05,-0.00012,-9e-05,-3e-05,-0.00058,3,17
13479,-0.00011,-0.00017,2e-05,-4e-05,-0.00012,-9e-05,-3e-05,-0.00058,3,17
13480,-0.00011,-0.00017,2e-05,-4e-05,-0.00012,-9e-05,-3e-05,-0.00058,3,17
13481,-0.00011,-0.00017,2e-05,-4e-05,-0.00012,-9e-05,-3e-05,-0.00058,3,17
13482,-0.00011,-0.00017,2e-05,-4e-05,-0.00012,-9e-05,-3e-05,-0.00058,3,17
13483,-0.00015,-0.00045,-0.00014,-7e-05,-0.00011,-8e-05,-2e-05,-0.00012,3,17
13484,0.00011,0.00025,2e-05,-7e-05,-0.00022,-0.0002,-0.00011,-0.00015,3,17
13485,0.00011,0.00025,2e-05,-7e-05,-0.00022,-0.0002,-0.00011,-0.00015,3,17
13486,0.00011,0.00025,2e-05,-7e-05,-0.00022,-0.0002,-0.00011,-0.00015,3,17
13488,0.00011,0.00025,2e-05,-7e-05,-0.00022,-0.0002,-0.00011,-0.00015,3,17
13489,0.00011,0.00025,2e-05,-7e-05,-0.00022,-0.0002,-0.00011,-0.00015,3,17
13490,0.00011,0.00025,2e-05,-7e-05,-0.00022,-0.0002,-0.00011,-0.00015,3,17
13491,0.00011,0.00025,2e-05,-7e-05,-0.00022,-0.0002,-0.00011,-0.00015,3,17
13492,0.00011,0.00025,2e-05,-7e-05,-0.00022,-0.0002,-0.00011,-0.00015,3,17
13493,0.00011,0.00025,2e-05,-7e-05,-0.00022,-0.0002,-0.00011,-0.00015,3,17
13494,0.00011,0.00025,2e-05,-7e-05,-0.00022,-0.0002,-0.00011,-0.00015,3,17
13495,0.00011,0.00025,2e-05,-7e-05,-0.00022,-0.0002,-0.00011,-0.00015,3,17
13496,0.00011,0.00025,2e-05,-7e-05,-0.00022,-0.0002,-0.00011,-0.00015,3,17
13497,0.00011,0.00025,2e-05,-7e-05,-0.00022,-0.0002,-0.00011,-0.00015,3,17
13498,0.00014,0.00015,8e-05,3e-05,0.0001,0.00022,0.00012,0.00016,3,17
13499,0.00014,0.00015,8e-05,3e-05,0.0001,0.00022,0.00012,0.00016,3,17
13500,0.00014,0.00015,8e-05,3e-05,0.0001,0.00022,0.00012,0.00016,3,17
13501,0.00014,0.00015,8e-05,3e-05,0.0001,0.00022,0.00012,0.00016,3,17
13502,0.00014,0.00015,8e-05,3e-05,0.0001,0.00022,0.00012,0.00016,3,17
13503,0.00014,0.00015,8e-05,3e-05,0.0001,0.00022,0.00012,0.00016,3,17
13504,0.00014,0.00015,8e-05,3e-05,0.0001,0.00022,0.00012,0.00016,3,17
13505,0.00014,0.00015,8e-05,3e-05,0.0001,0.00022,0.00012,0.00016,3,17
13506,9e-05,4e-05,5e-05,4e-05,-0.00011,7e-05,0.0001,5e-05,3,17
13507,9e-05,4e-05,5e-05,4e-05,-0.00011,7e-05,0.0001,5e-05,3,17
13508,9e-05,4e-05,5e-05,4e-05,-0.00011,7e-05,0.0001,5e-05,3,17
13509,9e-05,4e-05,5e-05,4e-05,-0.00011,7e-05,0.0001,5e-05,3,17
13510,9e-05,4e-05,5e-05,4e-05,-0.00011,7e-05,0.0001,5e-05,3,17
13511,9e-05,4e-05,5e-05,4e-05,-0.00011,7e-05,0.0001,5e-05,3,17
13512,9e-05,4e-05,5e-05,4e-05,-0.00011,7e-05,0.0001,5e-05,3,17
13513,9e-05,4e-05,5e-05,4e-05,-0.00011,7e-05,0.0001,5e-05,3,17
13514,9e-05,4e-05,5e-05,4e-05,-0.00011,7e-05,0.0001,5e-05,3,17
13515,9e-05,4e-05,5e-05,4e-05,-0.00011,7e-05,0.0001,5e-05,3,17
13516,9e-05,4e-05,5e-05,4e-05,-0.00011,7e-05,0.0001,5e-05,3,17
13517,9e-05,4e-05,5e-05,4e-05,-0.00011,7e-05,0.0001,5e-05,3,17
13518,9e-05,4e-05,5e-05,4e-05,-0.00011,7e-05,0.0001,5e-05,3,17
13519,9e-05,4e-05,5e-05,4e-05,-0.00011,7e-05,0.0001,5e-05,3,17
13520,-0.00035,-0.00039,-2e-05,-5e-05,-8e-05,-0.00016,-0.0001,6e-05,3,17
13521,-0.00035,-0.00039,-2e-05,-5e-05,-8e-05,-0.00016,-0.0001,6e-05,3,17
13522,-0.00032,-0.00049,-9e-05,-4e-05,0,1e-05,5e-05,0.00049,3,17
13523,-0.00032,-0.00049,-9e-05,-4e-05,0,1e-05,5e-05,0.00049,3,17
13524,-0.00032,-0.00049,-9e-05,-4e-05,0,1e-05,5e-05,0.00049,3,17
13525,-0.00032,-0.00049,-9e-05,-4e-05,0,1e-05,5e-05,0.00049,3,17
13526,-0.00032,-0.00049,-9e-05,-4e-05,0,1e-05,5e-05,0.00049,3,17
13527,-0.00032,-0.00049,-9e-05,-4e-05,0,1e-05,5e-05,0.00049,3,17
13528,-0.00032,-0.00049,-9e-05,-4e-05,0,1e-05,5e-05,0.00049,3,17
13529,-0.00032,-0.00049,-9e-05,-4e-05,0,1e-05,5e-05,0.00049,3,17
13530,-0.00032,-0.00049,-9e-05,-4e-05,0,1e-05,5e-05,0.00049,3,17
13531,-0.00032,-0.00049,-9e-05,-4e-05,0,1e-05,5e-05,0.00049,3,17
13532,-0.00032,-0.00049,-9e-05,-4e-05,0,1e-05,5e-05,0.00049,3,17
13533,-0.00032,-0.00049,-9e-05,-4e-05,0,1e-05,5e-05,0.00049,3,17
13534,-0.00032,-0.00049,-9e-05,-4e-05,0,1e-05,5e-05,0.00049,3,17
13535,-0.00032,-0.00049,-9e-05,-4e-05,0,1e-05,5e-05,0.00049,3,17
13536,-0.00032,-0.00049,-9e-05,-4e-05,0,1e-05,5e-05,0.00049,3,17
13538,-0.00032,-0.00049,-9e-05,-4e-05,0,1e-05,5e-05,0.00049,3,17
13539,-0.00032,-0.00049,-9e-05,-4e-05,0,1e-05,5e-05,0.00049,3,17
13540,-0.00032,-0.00049,-9e-05,-4e-05,0,1e-05,5e-05,0.00049,3,17
13541,-0.00032,-0.00049,-9e-05,-4e-05,0,1e-05,5e-05,0.00049,3,17
13542,-0.00032,-0.00049,-9e-05,-4e-05,0,1e-05,5e-05,0.00049,3,17
13543,0.00036,0.00039,9e-05,-3e-05,-5e-05,-8e-05,0.00019,-0.00015,3,17
13544,2e-05,-0.00015,-0.00015,-0.00011,-0.00017,-0.00017,-1e-05,0.00018,3,17
13545,3e-05,2e-05,4e-05,-1e-05,4e-05,4e-05,7e-05,-0.00031,3,17
13546,3e-05,2e-05,4e-05,-1e-05,4e-05,4e-05,7e-05,-0.00031,3,17
13547,3e-05,2e-05,4e-05,-1e-05,4e-05,4e-05,7e-05,-0.00031,3,17
13548,3e-05,2e-05,4e-05,-1e-05,4e-05,4e-05,7e-05,-0.00031,3,17
13549,3e-05,2e-05,4e-05,-1e-05,4e-05,4e-05,7e-05,-0.00031,3,17
13550,3e-05,2e-05,4e-05,-1e-05,4e-05,4e-05,7e-05,-0.00031,3,17
13551,3e-05,2e-05,4e-05,-1e-05,4e-05,4e-05,7e-05,-0.00031,3,17
13552,3e-05,2e-05,4e-05,-1e-05,4e-05,4e-05,7e-05,-0.00031,3,17
13553,3e-05,2e-05,4e-05,-1e-05,4e-05,4e-05,7e-05,-0.00031,3,17
13554,3e-05,2e-05,4e-05,-1e-05,4e-05,4e-05,7e-05,-0.00031,3,17
13555,3e-05,2e-05,4e-05,-1e-05,4e-05,4e-05,7e-05,-0.00031,3,17
13556,-0.00017,0.00018,2e-05,3e-05,-1e-05,3e-05,8e-05,-8e-05,3,17
13557,-0.00013,-0.0001,-8e-05,-0.0001,-0.00021,-0.00021,-0.0002,-0.00012,3,17
13558,-0.00013,-0.0001,-8e-05,-0.0001,-0.00021,-0.00021,-0.0002,-0.00012,3,17
13559,-0.00013,-0.0001,-8e-05,-0.0001,-0.00021,-0.00021,-0.0002,-0.00012,3,17
13561,-0.00013,-0.0001,-8e-05,-0.0001,-0.00021,-0.00021,-0.0002,-0.00012,3,17
13562,-0.00013,-0.0001,-8e-05,-0.0001,-0.00021,-0.00021,-0.0002,-0.00012,3,17
13563,-0.00013,-0.0001,-8e-05,-0.0001,-0.00021,-0.00021,-0.0002,-0.00012,3,17
13564,-0.00013,-0.0001,-8e-05,-0.0001,-0.00021,-0.00021,-0.0002,-0.00012,3,17
13565,-0.00013,-0.0001,-8e-05,-0.0001,-0.00021,-0.00021,-0.0002,-0.00012,3,17
13566,0.00014,0.00027,-4e-05,-0.00013,-0.00021,-0.00016,5e-05,0.0004,3,17
13567,0.00014,0.00027,-4e-05,-0.00013,-0.00021,-0.00016,5e-05,0.0004,3,17
13568,0.00014,0.00027,-4e-05,-0.00013,-0.00021,-0.00016,5e-05,0.0004,3,17
13569,0.00014,0.00027,-4e-05,-0.00013,-0.00021,-0.00016,5e-05,0.0004,3,17
13570,0.00014,0.00027,-4e-05,-0.00013,-0.00021,-0.00016,5e-05,0.0004,3,17
13571,0.00014,0.00027,-4e-05,-0.00013,-0.00021,-0.00016,5e-05,0.0004,3,17
13572,0.00014,0.00027,-4e-05,-0.00013,-0.00021,-0.00016,5e-05,0.0004,3,17
13573,0.00014,0.00027,-4e-05,-0.00013,-0.00021,-0.00016,5e-05,0.0004,3,17
13574,0.00014,0.00027,-4e-05,-0.00013,-0.00021,-0.00016,5e-05,0.0004,3,17
13575,0.00014,0.00027,-4e-05,-0.00013,-0.00021,-0.00016,5e-05,0.0004,3,17
13576,0.00014,0.00027,-4e-05,-0.00013,-0.00021,-0.00016,5e-05,0.0004,3,17
13577,0.00014,0.00027,-4e-05,-0.00013,-0.00021,-0.00016,5e-05,0.0004,3,17
13578,0.00014,0.00027,-4e-05,-0.00013,-0.00021,-0.00016,5e-05,0.0004,3,17
13579,0.00014,0.00027,-4e-05,-0.00013,-0.00021,-0.00016,5e-05,0.0004,3,17
13580,0.00033,4e-05,0.00013,2e-05,-0.00014,6e-05,-2e-05,0.0005,3,17
13581,0.00016,0.00032,-3e-05,-2e-05,0,-0.0001,-0.0001,-0.0002,3,17
13582,0.00014,0.00015,-1e-05,1e-05,-3e-05,5e-05,-8e-05,0.00019,3,17
13583,0.00014,0.00015,-1e-05,1e-05,-3e-05,5e-05,-8e-05,0.00019,3,17
13584,0.00014,0.00015,-1e-05,1e-05,-3e-05,5e-05,-8e-05,0.00019,3,17
13585,0.00014,0.00015,-1e-05,1e-05,-3e-05,5e-05,-8e-05,0.00019,3,17
13586,0.00014,0.00015,-1e-05,1e-05,-3e-05,5e-05,-8e-05,0.00019,3,17
13588,0.00014,0.00015,-1e-05,1e-05,-3e-05,5e-05,-8e-05,0.00019,3,17
13589,0.00014,0.00015,-1e-05,1e-05,-3e-05,5e-05,-8e-05,0.00019,3,17
13590,0.00014,0.00015,-1e-05,1e-05,-3e-05,5e-05,-8e-05,0.00019,3,17
13591,0.00014,0.00015,-1e-05,1e-05,-3e-05,5e-05,-8e-05,0.00019,3,17
13592,0.00014,0.00015,-1e-05,1e-05,-3e-05,5e-05,-8e-05,0.00019,3,17
13593,0.00014,0.00015,-1e-05,1e-05,-3e-05,5e-05,-8e-05,0.00019,3,17
13594,0.00014,0.00015,-1e-05,1e-05,-3e-05,5e-05,-8e-05,0.00019,3,17
13595,0.00014,0.00015,-1e-05,1e-05,-3e-05,5e-05,-8e-05,0.00019,3,17
13596,0.00014,0.00015,-1e-05,1e-05,-3e-05,5e-05,-8e-05,0.00019,3,17
13597,0.00014,0.00015,-1e-05,1e-05,-3e-05,5e-05,-8e-05,0.00019,3,17
13598,0.00014,0.00015,-1e-05,1e-05,-3e-05,5e-05,-8e-05,0.00019,3,17
13599,0.00014,0.00015,-1e-05,1e-05,-3e-05,5e-05,-8e-05,0.00019,3,17
13600,0.00014,0.00015,-1e-05,1e-05,-3e-05,5e-05,-8e-05,0.00019,3,17
13601,0.00014,0.00015,-1e-05,1e-05,-3e-05,5e-05,-8e-05,0.00019,3,17
13602,0.00014,0.00015,-1e-05,1e-05,-3e-05,5e-05,-8e-05,0.00019,3,17
13603,0.00019,0.00015,-5e-05,0,7e-05,3e-05,-0.0001,0.0007,3,17
13604,0.00019,0.00015,-5e-05,0,7e-05,3e-05,-0.0001,0.0007,3,17
13605,0.00017,0.00033,5e-05,-2e-05,-2e-05,-9e-05,-0.00013,-0.0001,3,17
13606,0.00017,0.00033,5e-05,-2e-05,-2e-05,-9e-05,-0.00013,-0.0001,3,17
13607,0.00017,0.00033,5e-05,-2e-05,-2e-05,-9e-05,-0.00013,-0.0001,3,17
13608,0.00017,0.00033,5e-05,-2e-05,-2e-05,-9e-05,-0.00013,-0.0001,3,17
13609,0.00017,0.00033,5e-05,-2e-05,-2e-05,-9e-05,-0.00013,-0.0001,3,17
13610,0.00017,0.00033,5e-05,-2e-05,-2e-05,-9e-05,-0.00013,-0.0001,3,17
13611,0.00017,0.00033,5e-05,-2e-05,-2e-05,-9e-05,-0.00013,-0.0001,3,17
13612,0.00017,0.00033,5e-05,-2e-05,-2e-05,-9e-05,-0.00013,-0.0001,3,17
13613,0.00017,0.00033,5e-05,-2e-05,-2e-05,-9e-05,-0.00013,-0.0001,3,17
13614,0.00017,0.00033,5e-05,-2e-05,-2e-05,-9e-05,-0.00013,-0.0001,3,17
13615,0.00017,0.00033,5e-05,-2e-05,-2e-05,-9e-05,-0.00013,-0.0001,3,17
13616,6e-05,5e-05,2e-05,1e-05,-7e-05,-0.00014,-0.00013,1e-05,3,17
13617,-7e-05,-9e-05,0,2e-05,6e-05,0.00014,-1e-05,-0.00012,3,17
13618,-7e-05,-9e-05,0,2e-05,6e-05,0.00014,-1e-05,-0.00012,3,17
13619,-7e-05,-9e-05,0,2e-05,6e-05,0.00014,-1e-05,-0.00012,3,17
13620,-7e-05,-9e-05,0,2e-05,6e-05,0.00014,-1e-05,-0.00012,3,17
13621,-7e-05,-9e-05,0,2e-05,6e-05,0.00014,-1e-05,-0.00012,3,17
13622,-7e-05,-9e-05,0,2e-05,6e-05,0.00014,-1e-05,-0.00012,3,17
13623,-7e-05,-9e-05,0,2e-05,6e-05,0.00014,-1e-05,-0.00012,3,17
13624,-7e-05,-9e-05,0,2e-05,6e-05,0.00014,-1e-05,-0.00012,3,17
13625,-0.00011,-5e-05,-0.00011,-5e-05,-0.00013,-0.00011,-0.00012,-0.00027,3,17
13626,-3e-05,7e-05,4e-05,7e-05,0.00012,-5e-05,-4e-05,-0.00021,3,17
13627,-3e-05,7e-05,4e-05,7e-05,0.00012,-5e-05,-4e-05,-0.00021,3,17
13628,-3e-05,7e-05,4e-05,7e-05,0.00012,-5e-05,-4e-05,-0.00021,3,17
13629,-3e-05,7e-05,4e-05,7e-05,0.00012,-5e-05,-4e-05,-0.00021,3,17
13630,-3e-05,7e-05,4e-05,7e-05,0.00012,-5e-05,-4e-05,-0.00021,3,17
13631,-3e-05,7e-05,4e-05,7e-05,0.00012,-5e-05,-4e-05,-0.00021,3,17
13632,-3e-05,7e-05,4e-05,7e-05,0.00012,-5e-05,-4e-05,-0.00021,3,17
13633,-3e-05,7e-05,4e-05,7e-05,0.00012,-5e-05,-4e-05,-0.00021,3,17
13634,-3e-05,7e-05,4e-05,7e-05,0.00012,-5e-05,-4e-05,-0.00021,3,17
13635,-3e-05,7e-05,4e-05,7e-05,0.00012,-5e-05,-4e-05,-0.00021,3,17
13636,-3e-05,7e-05,4e-05,7e-05,0.00012,-5e-05,-4e-05,-0.00021,3,17
13638,-3e-05,7e-05,4e-05,7e-05,0.00012,-5e-05,-4e-05,-0.00021,3,17
13639,-3e-05,7e-05,4e-05,7e-05,0.00012,-5e-05,-4e-05,-0.00021,3,17
13640,-3e-05,7e-05,4e-05,7e-05,0.00012,-5e-05,-4e-05,-0.00021,3,17
13641,-3e-05,7e-05,4e-05,7e-05,0.00012,-5e-05,-4e-05,-0.00021,3,17
13642,-3e-05,7e-05,4e-05,7e-05,0.00012,-5e-05,-4e-05,-0.00021,3,17
13643,-3e-05,7e-05,4e-05,7e-05,0.00012,-5e-05,-4e-05,-0.00021,3,17
13644,-3e-05,7e-05,4e-05,7e-05,0.00012,-5e-05,-4e-05,-0.00021,3,17
13645,-3e-05,7e-05,4e-05,7e-05,0.00012,-5e-05,-4e-05,-0.00021,3,17
13646,-3e-05,7e-05,4e-05,7e-05,0.00012,-5e-05,-4e-05,-0.00021,3,17
13647,-3e-05,7e-05,4e-05,7e-05,0.00012,-5e-05,-4e-05,-0.00021,3,17
13648,-0.0003,-0.00016,1e-05,-9e-05,-0.00018,-0.0002,2e-05,0.00014,3,17
13649,-0.00026,-0.00029,-0.00012,0,1e-05,-8e-05,0,-0.00024,3,17
13650,-0.00026,-0.00029,-0.00012,0,1e-05,-8e-05,0,-0.00024,3,17
13651,-0.00026,-0.00029,-0.00012,0,1e-05,-8e-05,0,-0.00024,3,17
13652,-0.00026,-0.00029,-0.00012,0,1e-05,-8e-05,0,-0.00024,3,17
13653,-0.00026,-0.00029,-0.00012,0,1e-05,-8e-05,0,-0.00024,3,17
13654,-0.00026,-0.00029,-0.00012,0,1e-05,-8e-05,0,-0.00024,3,17
13655,-0.00026,-0.00029,-0.00012,0,1e-05,-8e-05,0,-0.00024,3,17
13656,-0.00026,-0.00029,-0.00012,0,1e-05,-8e-05,0,-0.00024,3,17
13657,-0.00026,-0.00029,-0.00012,0,1e-05,-8e-05,0,-0.00024,3,17
13658,-0.00026,-0.00029,-0.00012,0,1e-05,-8e-05,0,-0.00024,3,17
13659,-0.00026,-0.00029,-0.00012,0,1e-05,-8e-05,0,-0.00024,3,17
13660,-0.00026,-0.00029,-0.00012,0,1e-05,-8e-05,0,-0.00024,3,17
13661,-0.00026,-0.00029,-0.00012,0,1e-05,-8e-05,0,-0.00024,3,17
13662,-0.00026,-0.00029,-0.00012,0,1e-05,-8e-05,0,-0.00024,3,17
13663,-0.00026,-0.00029,-0.00012,0,1e-05,-8e-05,0,-0.00024,3,17
13664,0.00024,0.00023,5e-05,-3e-05,-0.0002,-0.00015,-6e-05,-0.00025,3,17
13665,0.00024,0.00023,5e-05,-3e-05,-0.0002,-0.00015,-6e-05,-0.00025,3,17
13666,0.00024,0.00023,5e-05,-3e-05,-0.0002,-0.00015,-6e-05,-0.00025,3,17
13667,0.00024,0.00023,5e-05,-3e-05,-0.0002,-0.00015,-6e-05,-0.00025,3,17
13668,0.00024,0.00023,5e-05,-3e-05,-0.0002,-0.00015,-6e-05,-0.00025,3,17
13669,0.00024,0.00023,5e-05,-3e-05,-0.0002,-0.00015,-6e-05,-0.00025,3,17
13670,-0.00025,-8e-05,6e-05,1e-05,0.00019,0.0002,0.00019,-3e-05,3,17
13671,0.00015,-0.00013,-0.00011,-5e-05,-9e-05,-9e-05,-1e-05,0.00029,3,17
13672,0.00015,-0.00013,-0.00011,-5e-05,-9e-05,-9e-05,-1e-05,0.00029,3,17
13673,0.00015,-0.00013,-0.00011,-5e-05,-9e-05,-9e-05,-1e-05,0.00029,3,17
13674,0.00015,-0.00013,-0.00011,-5e-05,-9e-05,-9e-05,-1e-05,0.00029,3,17
13675,0.00015,-0.00013,-0.00011,-5e-05,-9e-05,-9e-05,-1e-05,0.00029,3,17
13676,7e-05,0.00011,4e-05,9e-05,0.00029,0.00013,0.00011,-0.0001,3,17
13677,7e-05,0.00011,4e-05,9e-05,0.00029,0.00013,0.00011,-0.0001,3,17
13678,7e-05,0.00011,4e-05,9e-05,0.00029,0.00013,0.00011,-0.0001,3,17
13679,7e-05,0.00011,4e-05,9e-05,0.00029,0.00013,0.00011,-0.0001,3,17
13680,7e-05,0.00011,4e-05,9e-05,0.00029,0.00013,0.00011,-0.0001,3,17
13681,7e-05,0.00011,4e-05,9e-05,0.00029,0.00013,0.00011,-0.0001,3,17
13682,7e-05,0.00011,4e-05,9e-05,0.00029,0.00013,0.00011,-0.0001,3,17
13683,7e-05,0.00011,4e-05,9e-05,0.00029,0.00013,0.00011,-0.0001,3,17
13684,7e-05,0.00011,4e-05,9e-05,0.00029,0.00013,0.00011,-0.0001,3,17
13685,4e-05,3e-05,0,-3e-05,-0.00024,-0.00031,-1e-05,1e-05,3,17
13686,7e-05,0,1e-05,-3e-05,4e-05,7e-05,-9e-05,0.00028,3,17
13688,7e-05,0,1e-05,-3e-05,4e-05,7e-05,-9e-05,0.00028,3,17
13689,7e-05,0,1e-05,-3e-05,4e-05,7e-05,-9e-05,0.00028,3,17
13690,7e-05,0,1e-05,-3e-05,4e-05,7e-05,-9e-05,0.00028,3,17
13691,7e-05,0,1e-05,-3e-05,4e-05,7e-05,-9e-05,0.00028,3,17
13692,7e-05,0,1e-05,-3e-05,4e-05,7e-05,-9e-05,0.00028,3,17
13693,7e-05,0,1e-05,-3e-05,4e-05,7e-05,-9e-05,0.00028,3,17
13694,7e-05,0,1e-05,-3e-05,4e-05,7e-05,-9e-05,0.00028,3,17
13695,7e-05,0,1e-05,-3e-05,4e-05,7e-05,-9e-05,0.00028,3,17
13696,7e-05,0,1e-05,-3e-05,4e-05,7e-05,-9e-05,0.00028,3,17
13697,7e-05,0,1e-05,-3e-05,4e-05,7e-05,-9e-05,0.00028,3,17
13698,7e-05,0,1e-05,-3e-05,4e-05,7e-05,-9e-05,0.00028,3,17
13699,7e-05,0,1e-05,-3e-05,4e-05,7e-05,-9e-05,0.00028,3,17
13700,4e-05,0.00013,0.00014,0.00015,0.00014,6e-05,5e-05,-0.0001,3,17
13701,-8e-05,-9e-05,-0.00026,-0.00015,-0.00014,-0.00012,-0.00033,-0.0005,3,17
13702,-0.00015,-0.00016,-6e-05,-5e-05,-0.00019,-6e-05,2e-05,-0.00014,3,17
13703,-0.00015,-0.00016,-6e-05,-5e-05,-0.00019,-6e-05,2e-05,-0.00014,3,17
13704,-0.00015,-0.00016,-6e-05,-5e-05,-0.00019,-6e-05,2e-05,-0.00014,3,17
13705,-0.00015,-0.00016,-6e-05,-5e-05,-0.00019,-6e-05,2e-05,-0.00014,3,17
13706,-0.00015,-0.00016,-6e-05,-5e-05,-0.00019,-6e-05,2e-05,-0.00014,3,17
13707,-0.00015,-0.00016,-6e-05,-5e-05,-0.00019,-6e-05,2e-05,-0.00014,3,17
13708,-0.00015,-0.00016,-6e-05,-5e-05,-0.00019,-6e-05,2e-05,-0.00014,3,17
13709,-0.00015,-0.00016,-6e-05,-5e-05,-0.00019,-6e-05,2e-05,-0.00014,3,17
13710,-0.00015,-0.00016,-6e-05,-5e-05,-0.00019,-6e-05,2e-05,-0.00014,3,17
13711,-0.00015,-0.00016,-6e-05,-5e-05,-0.00019,-6e-05,2e-05,-0.00014,3,17
13712,-0.00015,-0.00016,-6e-05,-5e-05,-0.00019,-6e-05,2e-05,-0.00014,3,17
13713,-0.00015,-0.00016,-6e-05,-5e-05,-0.00019,-6e-05,2e-05,-0.00014,3,17
13714,-0.00015,-0.00016,-6e-05,-5e-05,-0.00019,-6e-05,2e-05,-0.00014,3,17
13715,-0.00015,-0.00016,-6e-05,-5e-05,-0.00019,-6e-05,2e-05,-0.00014,3,17
13716,-0.00015,-0.00016,-6e-05,-5e-05,-0.00019,-6e-05,2e-05,-0.00014,3,17
13717,-0.00015,-0.00016,-6e-05,-5e-05,-0.00019,-6e-05,2e-05,-0.00014,3,17
13718,-0.00015,-0.00016,-6e-05,-5e-05,-0.00019,-6e-05,2e-05,-0.00014,3,17
13719,-0.00015,-0.00016,-6e-05,-5e-05,-0.00019,-6e-05,2e-05,-0.00014,3,17
13720,-0.00015,-0.00016,-6e-05,-5e-05,-0.00019,-6e-05,2e-05,-0.00014,3,17
13721,-0.00015,-0.00016,-6e-05,-5e-05,-0.00019,-6e-05,2e-05,-0.00014,3,17
13722,-0.00015,-0.00016,-6e-05,-5e-05,-0.00019,-6e-05,2e-05,-0.00014,3,17
13723,9e-05,0.00016,0.00017,0.0001,6e-05,8e-05,4e-05,-0.00016,3,17
13724,-8e-05,9e-05,-4e-05,-4e-05,-0.00013,-3e-05,3e-05,0,3,17
13725,-0.00025,-0.00035,-0.0001,-6e-05,1e-05,0.00014,2e-05,-0.00028,3,17
13726,-0.00025,-0.00035,-0.0001,-6e-05,1e-05,0.00014,2e-05,-0.00028,3,17
13727,-0.00025,-0.00035,-0.0001,-6e-05,1e-05,0.00014,2e-05,-0.00028,3,17
13728,-0.00025,-0.00035,-0.0001,-6e-05,1e-05,0.00014,2e-05,-0.00028,3,17
13729,-0.00025,-0.00035,-0.0001,-6e-05,1e-05,0.00014,2e-05,-0.00028,3,17
13730,-0.00025,-0.00035,-0.0001,-6e-05,1e-05,0.00014,2e-05,-0.00028,3,17
13731,-0.00025,-0.00035,-0.0001,-6e-05,1e-05,0.00014,2e-05,-0.00028,3,17
13732,-0.00025,-0.00035,-0.0001,-6e-05,1e-05,0.00014,2e-05,-0.00028,3,17
13733,-0.00025,-0.00035,-0.0001,-6e-05,1e-05,0.00014,2e-05,-0.00028,3,17
13734,-0.00025,-0.00035,-0.0001,-6e-05,1e-05,0.00014,2e-05,-0.00028,3,17
13735,-0.00025,-0.00035,-0.0001,-6e-05,1e-05,0.00014,2e-05,-0.00028,3,17
13736,-0.00025,-0.00035,-0.0001,-6e-05,1e-05,0.00014,2e-05,-0.00028,3,17
13738,6e-05,0.0002,9e-05,4e-05,3e-05,-4e-05,0.00015,0.00021,3,17
13739,6e-05,0.0002,9e-05,4e-05,3e-05,-4e-05,0.00015,0.00021,3,17
13740,6e-05,0.0002,9e-05,4e-05,3e-05,-4e-05,0.00015,0.00021,3,17
13741,6e-05,0.0002,9e-05,4e-05,3e-05,-4e-05,0.00015,0.00021,3,17
13742,6e-05,0.0002,9e-05,4e-05,3e-05,-4e-05,0.00015,0.00021,3,17
13743,6e-05,0.0002,9e-05,4e-05,3e-05,-4e-05,0.00015,0.00021,3,17
13744,6e-05,0.0002,9e-05,4e-05,3e-05,-4e-05,0.00015,0.00021,3,17
13745,-5e-05,-0.00016,-2e-05,-3e-05,0.0001,0.00017,1e-05,-0.0002,3,17
13746,8e-05,0.00036,0.00014,0.0001,0.00017,0.00032,0.00026,0.00041,3,17
13747,8e-05,0.00036,0.00014,0.0001,0.00017,0.00032,0.00026,0.00041,3,17
13748,8e-05,0.00036,0.00014,0.0001,0.00017,0.00032,0.00026,0.00041,3,17
13749,8e-05,0.00036,0.00014,0.0001,0.00017,0.00032,0.00026,0.00041,3,17
13750,8e-05,0.00036,0.00014,0.0001,0.00017,0.00032,0.00026,0.00041,3,17
13751,8e-05,0.00036,0.00014,0.0001,0.00017,0.00032,0.00026,0.00041,3,17
13752,8e-05,0.00036,0.00014,0.0001,0.00017,0.00032,0.00026,0.00041,3,17
13753,8e-05,0.00036,0.00014,0.0001,0.00017,0.00032,0.00026,0.00041,3,17
13754,8e-05,0.00036,0.00014,0.0001,0.00017,0.00032,0.00026,0.00041,3,17
13755,8e-05,0.00036,0.00014,0.0001,0.00017,0.00032,0.00026,0.00041,3,17
13756,8e-05,0.00036,0.00014,0.0001,0.00017,0.00032,0.00026,0.00041,3,17
13757,8e-05,0.00036,0.00014,0.0001,0.00017,0.00032,0.00026,0.00041,3,17
13758,8e-05,0.00036,0.00014,0.0001,0.00017,0.00032,0.00026,0.00041,3,17
13759,8e-05,0.00036,0.00014,0.0001,0.00017,0.00032,0.00026,0.00041,3,17
13760,-0.00011,-0.00017,-4e-05,6e-05,0.00015,0.0002,2e-05,2e-05,3,17
13761,-0.00011,-0.00017,-4e-05,6e-05,0.00015,0.0002,2e-05,2e-05,3,17
13762,8e-05,-4e-05,9e-05,-2e-05,0,-7e-05,-9e-05,3e-05,3,17
13763,8e-05,-4e-05,9e-05,-2e-05,0,-7e-05,-9e-05,3e-05,3,17
13764,8e-05,-4e-05,9e-05,-2e-05,0,-7e-05,-9e-05,3e-05,3,17
13765,8e-05,-4e-05,9e-05,-2e-05,0,-7e-05,-9e-05,3e-05,3,17
13766,8e-05,-4e-05,9e-05,-2e-05,0,-7e-05,-9e-05,3e-05,3,17
13767,8e-05,-4e-05,9e-05,-2e-05,0,-7e-05,-9e-05,3e-05,3,17
13768,8e-05,-4e-05,9e-05,-2e-05,0,-7e-05,-9e-05,3e-05,3,17
13769,8e-05,-4e-05,9e-05,-2e-05,0,-7e-05,-9e-05,3e-05,3,17
13770,8e-05,-4e-05,9e-05,-2e-05,0,-7e-05,-9e-05,3e-05,3,17
13771,8e-05,-4e-05,9e-05,-2e-05,0,-7e-05,-9e-05,3e-05,3,17
13772,8e-05,-4e-05,9e-05,-2e-05,0,-7e-05,-9e-05,3e-05,3,17
13773,8e-05,-4e-05,9e-05,-2e-05,0,-7e-05,-9e-05,3e-05,3,17
13774,8e-05,-4e-05,9e-05,-2e-05,0,-7e-05,-9e-05,3e-05,3,17
13775,8e-05,-4e-05,9e-05,-2e-05,0,-7e-05,-9e-05,3e-05,3,17
13776,8e-05,-4e-05,9e-05,-2e-05,0,-7e-05,-9e-05,3e-05,3,17
13777,8e-05,-4e-05,9e-05,-2e-05,0,-7e-05,-9e-05,3e-05,3,17
13778,8e-05,-4e-05,9e-05,-2e-05,0,-7e-05,-9e-05,3e-05,3,17
13779,8e-05,-4e-05,9e-05,-2e-05,0,-7e-05,-9e-05,3e-05,3,17
13780,8e-05,-4e-05,9e-05,-2e-05,0,-7e-05,-9e-05,3e-05,3,17
13781,8e-05,-4e-05,9e-05,-2e-05,0,-7e-05,-9e-05,3e-05,3,17
13782,8e-05,-4e-05,9e-05,-2e-05,0,-7e-05,-9e-05,3e-05,3,17
13783,7e-05,-0.00011,-3e-05,-9e-05,-9e-05,8e-05,-1e-05,0.00021,3,17
13784,0.00023,7e-05,-5e-05,-4e-05,-0.00022,-0.00021,0,-7e-05,3,17
13785,0,7e-05,7e-05,2e-05,7e-05,1e-05,-8e-05,-4e-05,3,17
13786,0,7e-05,7e-05,2e-05,7e-05,1e-05,-8e-05,-4e-05,3,17
13788,0,7e-05,7e-05,2e-05,7e-05,1e-05,-8e-05,-4e-05,3,17
13789,0,7e-05,7e-05,2e-05,7e-05,1e-05,-8e-05,-4e-05,3,17
13790,0,7e-05,7e-05,2e-05,7e-05,1e-05,-8e-05,-4e-05,3,17
13791,0,7e-05,7e-05,2e-05,7e-05,1e-05,-8e-05,-4e-05,3,17
13792,0,7e-05,7e-05,2e-05,7e-05,1e-05,-8e-05,-4e-05,3,17
13793,0,7e-05,7e-05,2e-05,7e-05,1e-05,-8e-05,-4e-05,3,17
13794,0,7e-05,7e-05,2e-05,7e-05,1e-05,-8e-05,-4e-05,3,17
13796,0,7e-05,7e-05,2e-05,7e-05,1e-05,-8e-05,-4e-05,3,17
13797,0,7e-05,7e-05,2e-05,7e-05,1e-05,-8e-05,-4e-05,3,17
13798,0,7e-05,7e-05,2e-05,7e-05,1e-05,-8e-05,-4e-05,3,17
13799,0,7e-05,7e-05,2e-05,7e-05,1e-05,-8e-05,-4e-05,3,17
13800,0,7e-05,7e-05,2e-05,7e-05,1e-05,-8e-05,-4e-05,3,17
13801,0,7e-05,7e-05,2e-05,7e-05,1e-05,-8e-05,-4e-05,3,17
13802,0,7e-05,7e-05,2e-05,7e-05,1e-05,-8e-05,-4e-05,3,17
13803,0,7e-05,7e-05,2e-05,7e-05,1e-05,-8e-05,-4e-05,3,17
13804,0,7e-05,7e-05,2e-05,7e-05,1e-05,-8e-05,-4e-05,3,17
13805,0.00018,-0.00016,3e-05,-6e-05,-8e-05,-6e-05,0.00015,0.00044,3,17
13806,0.00018,-0.00016,3e-05,-6e-05,-8e-05,-6e-05,0.00015,0.00044,3,17
13807,-0.00019,-0.00024,-4e-05,-2e-05,-7e-05,-0.00013,-5e-05,-0.00011,3,17
13808,-0.00019,-0.00024,-4e-05,-2e-05,-7e-05,-0.00013,-5e-05,-0.00011,3,17
13809,-0.00019,-0.00024,-4e-05,-2e-05,-7e-05,-0.00013,-5e-05,-0.00011,3,17
13810,-0.00019,-0.00024,-4e-05,-2e-05,-7e-05,-0.00013,-5e-05,-0.00011,3,17
13811,-0.00019,-0.00024,-4e-05,-2e-05,-7e-05,-0.00013,-5e-05,-0.00011,3,17
13812,-0.00019,-0.00024,-4e-05,-2e-05,-7e-05,-0.00013,-5e-05,-0.00011,3,17
13813,-0.00019,-0.00024,-4e-05,-2e-05,-7e-05,-0.00013,-5e-05,-0.00011,3,17
13814,-0.00019,-0.00024,-4e-05,-2e-05,-7e-05,-0.00013,-5e-05,-0.00011,3,17
13815,-0.00019,-0.00024,-4e-05,-2e-05,-7e-05,-0.00013,-5e-05,-0.00011,3,17
13816,-0.00019,-0.00024,-4e-05,-2e-05,-7e-05,-0.00013,-5e-05,-0.00011,3,17
13817,-0.00019,-0.00024,-4e-05,-2e-05,-7e-05,-0.00013,-5e-05,-0.00011,3,17
13818,-0.00019,-0.00024,-4e-05,-2e-05,-7e-05,-0.00013,-5e-05,-0.00011,3,17
13819,-0.00019,-0.00024,-4e-05,-2e-05,-7e-05,-0.00013,-5e-05,-0.00011,3,17
13820,2e-05,0.0001,-1e-05,-1e-05,0.00022,2e-05,3e-05,-7e-05,3,17
13821,2e-05,0.0001,-1e-05,-1e-05,0.00022,2e-05,3e-05,-7e-05,3,17
13822,8e-05,3e-05,-0.00013,-4e-05,-0.00011,-0.00011,2e-05,-5e-05,3,17
13823,8e-05,3e-05,-0.00013,-4e-05,-0.00011,-0.00011,2e-05,-5e-05,3,17
13824,8e-05,3e-05,-0.00013,-4e-05,-0.00011,-0.00011,2e-05,-5e-05,3,17
13825,8e-05,3e-05,-0.00013,-4e-05,-0.00011,-0.00011,2e-05,-5e-05,3,17
13826,8e-05,3e-05,-0.00013,-4e-05,-0.00011,-0.00011,2e-05,-5e-05,3,17
13827,8e-05,3e-05,-0.00013,-4e-05,-0.00011,-0.00011,2e-05,-5e-05,3,17
13828,8e-05,3e-05,-0.00013,-4e-05,-0.00011,-0.00011,2e-05,-5e-05,3,17
13829,8e-05,3e-05,-0.00013,-4e-05,-0.00011,-0.00011,2e-05,-5e-05,3,17
13830,8e-05,3e-05,-0.00013,-4e-05,-0.00011,-0.00011,2e-05,-5e-05,3,17
13831,8e-05,3e-05,-0.00013,-4e-05,-0.00011,-0.00011,2e-05,-5e-05,3,17
13832,8e-05,3e-05,-0.00013,-4e-05,-0.00011,-0.00011,2e-05,-5e-05,3,17
13833,8e-05,3e-05,-0.00013,-4e-05,-0.00011,-0.00011,2e-05,-5e-05,3,17
13834,8e-05,3e-05,-0.00013,-4e-05,-0.00011,-0.00011,2e-05,-5e-05,3,17
13835,8e-05,3e-05,-0.00013,-4e-05,-0.00011,-0.00011,2e-05,-5e-05,3,17
13836,8e-05,3e-05,-0.00013,-4e-05,-0.00011,-0.00011,2e-05,-5e-05,3,17
13838,8e-05,3e-05,-0.00013,-4e-05,-0.00011,-0.00011,2e-05,-5e-05,3,17
13839,8e-05,3e-05,-0.00013,-4e-05,-0.00011,-0.00011,2e-05,-5e-05,3,17
13840,8e-05,3e-05,-0.00013,-4e-05,-0.00011,-0.00011,2e-05,-5e-05,3,17
13841,8e-05,3e-05,-0.00013,-4e-05,-0.00011,-0.00011,2e-05,-5e-05,3,17
13842,8e-05,3e-05,-0.00013,-4e-05,-0.00011,-0.00011,2e-05,-5e-05,3,17
13843,0.0002,0.00016,-1e-05,-3e-05,-0.00012,-0.00011,-6e-05,-0.00018,3,17
13844,-7e-05,-3e-05,2e-05,-1e-05,-0.00013,-0.00019,-2e-05,5e-05,3,17
13845,-0.00016,-0.00013,3e-05,-1e-05,-5e-05,0.0001,-0.0001,-0.00017,3,17
13846,-0.00016,-0.00013,3e-05,-1e-05,-5e-05,0.0001,-0.0001,-0.00017,3,17
13847,-0.00016,-0.00013,3e-05,-1e-05,-5e-05,0.0001,-0.0001,-0.00017,3,17
13848,-0.00016,-0.00013,3e-05,-1e-05,-5e-05,0.0001,-0.0001,-0.00017,3,17
13849,-0.00016,-0.00013,3e-05,-1e-05,-5e-05,0.0001,-0.0001,-0.00017,3,17
13850,-0.00016,-0.00013,3e-05,-1e-05,-5e-05,0.0001,-0.0001,-0.00017,3,17
13851,-0.00016,-0.00013,3e-05,-1e-05,-5e-05,0.0001,-0.0001,-0.00017,3,17
13852,-0.00016,-0.00013,3e-05,-1e-05,-5e-05,0.0001,-0.0001,-0.00017,3,17
13853,-0.00016,-0.00013,3e-05,-1e-05,-5e-05,0.0001,-0.0001,-0.00017,3,17
13854,-0.00016,-0.00013,3e-05,-1e-05,-5e-05,0.0001,-0.0001,-0.00017,3,17
13855,-0.00016,-0.00013,3e-05,-1e-05,-5e-05,0.0001,-0.0001,-0.00017,3,17
13856,-0.00016,-0.00013,3e-05,-1e-05,-5e-05,0.0001,-0.0001,-0.00017,3,17
13857,-0.00016,-0.00013,3e-05,-1e-05,-5e-05,0.0001,-0.0001,-0.00017,3,17
13858,-0.00016,-0.00013,3e-05,-1e-05,-5e-05,0.0001,-0.0001,-0.00017,3,17
13859,-0.00016,-0.00013,3e-05,-1e-05,-5e-05,0.0001,-0.0001,-0.00017,3,17
13860,-0.00016,-0.00013,3e-05,-1e-05,-5e-05,0.0001,-0.0001,-0.00017,3,17
13861,-0.00016,-0.00013,3e-05,-1e-05,-5e-05,0.0001,-0.0001,-0.00017,3,17
13862,-0.00016,-0.00013,3e-05,-1e-05,-5e-05,0.0001,-0.0001,-0.00017,3,17
13863,-0.00016,-0.00013,3e-05,-1e-05,-5e-05,0.0001,-0.0001,-0.00017,3,17
13864,-0.00016,-0.00013,3e-05,-1e-05,-5e-05,0.0001,-0.0001,-0.00017,3,17
13865,-0.00016,-0.00013,3e-05,-1e-05,-5e-05,0.0001,-0.0001,-0.00017,3,17
13866,-0.00056,-0.0005,-0.00011,-2e-05,-1e-05,-4e-05,-1e-05,-0.00018,3,17
13867,7e-05,1e-05,3e-05,2e-05,5e-05,4e-05,4e-05,0.00029,3,17
13868,7e-05,1e-05,3e-05,2e-05,5e-05,4e-05,4e-05,0.00029,3,17
13869,7e-05,1e-05,3e-05,2e-05,5e-05,4e-05,4e-05,0.00029,3,17
13870,7e-05,1e-05,3e-05,2e-05,5e-05,4e-05,4e-05,0.00029,3,17
13871,7e-05,1e-05,3e-05,2e-05,5e-05,4e-05,4e-05,0.00029,3,17
13872,7e-05,1e-05,3e-05,2e-05,5e-05,4e-05,4e-05,0.00029,3,17
13873,7e-05,1e-05,3e-05,2e-05,5e-05,4e-05,4e-05,0.00029,3,17
13874,7e-05,1e-05,3e-05,2e-05,5e-05,4e-05,4e-05,0.00029,3,17
13875,7e-05,1e-05,3e-05,2e-05,5e-05,4e-05,4e-05,0.00029,3,17
13876,7e-05,1e-05,3e-05,2e-05,5e-05,4e-05,4e-05,0.00029,3,17
13877,7e-05,1e-05,3e-05,2e-05,5e-05,4e-05,4e-05,0.00029,3,17
13878,7e-05,1e-05,3e-05,2e-05,5e-05,4e-05,4e-05,0.00029,3,17
13879,7e-05,1e-05,3e-05,2e-05,5e-05,4e-05,4e-05,0.00029,3,17
13880,0,8e-05,4e-05,3e-05,4e-05,0.00018,0.00012,2e-05,3,17
13881,-8e-05,-0.00021,2e-05,-2e-05,-0.00016,-0.00018,-5e-05,-0.00012,3,17
13882,6e-05,4e-05,-5e-05,-4e-05,-7e-05,8e-05,-4e-05,-0.00017,3,17
13883,6e-05,4e-05,-5e-05,-4e-05,-7e-05,8e-05,-4e-05,-0.00017,3,17
13884,6e-05,4e-05,-5e-05,-4e-05,-7e-05,8e-05,-4e-05,-0.00017,3,17
13885,6e-05,4e-05,-5e-05,-4e-05,-7e-05,8e-05,-4e-05,-0.00017,3,17
13886,6e-05,4e-05,-5e-05,-4e-05,-7e-05,8e-05,-4e-05,-0.00017,3,17
13888,6e-05,4e-05,-5e-05,-4e-05,-7e-05,8e-05,-4e-05,-0.00017,3,17
13889,6e-05,4e-05,-5e-05,-4e-05,-7e-05,8e-05,-4e-05,-0.00017,3,17
13890,6e-05,4e-05,-5e-05,-4e-05,-7e-05,8e-05,-4e-05,-0.00017,3,17
13891,6e-05,4e-05,-5e-05,-4e-05,-7e-05,8e-05,-4e-05,-0.00017,3,17
13892,6e-05,4e-05,-5e-05,-4e-05,-7e-05,8e-05,-4e-05,-0.00017,3,17
13893,6e-05,4e-05,-5e-05,-4e-05,-7e-05,8e-05,-4e-05,-0.00017,3,17
13894,6e-05,4e-05,-5e-05,-4e-05,-7e-05,8e-05,-4e-05,-0.00017,3,17
13895,6e-05,4e-05,-5e-05,-4e-05,-7e-05,8e-05,-4e-05,-0.00017,3,17
13896,6e-05,4e-05,-5e-05,-4e-05,-7e-05,8e-05,-4e-05,-0.00017,3,17
13897,6e-05,4e-05,-5e-05,-4e-05,-7e-05,8e-05,-4e-05,-0.00017,3,17
13898,6e-05,4e-05,-5e-05,-4e-05,-7e-05,8e-05,-4e-05,-0.00017,3,17
13899,6e-05,4e-05,-5e-05,-4e-05,-7e-05,8e-05,-4e-05,-0.00017,3,17
13900,6e-05,4e-05,-5e-05,-4e-05,-7e-05,8e-05,-4e-05,-0.00017,3,17
13901,6e-05,4e-05,-5e-05,-4e-05,-7e-05,8e-05,-4e-05,-0.00017,3,17
13902,6e-05,4e-05,-5e-05,-4e-05,-7e-05,8e-05,-4e-05,-0.00017,3,17
13903,3e-05,0.00016,1e-05,1e-05,1e-05,-1e-05,-1e-05,3e-05,3,17
13904,0.00018,0.0001,-6e-05,-7e-05,-7e-05,-3e-05,-0.0001,-0.00023,3,17
13905,0.00036,0.00045,3e-05,6e-05,6e-05,-0.00025,9e-05,3e-05,3,17
13906,0.00036,0.00045,3e-05,6e-05,6e-05,-0.00025,9e-05,3e-05,3,17
13907,0.00036,0.00045,3e-05,6e-05,6e-05,-0.00025,9e-05,3e-05,3,17
13908,0.00036,0.00045,3e-05,6e-05,6e-05,-0.00025,9e-05,3e-05,3,17
13909,0.00036,0.00045,3e-05,6e-05,6e-05,-0.00025,9e-05,3e-05,3,17
13910,0.00036,0.00045,3e-05,6e-05,6e-05,-0.00025,9e-05,3e-05,3,17
13911,0.00036,0.00045,3e-05,6e-05,6e-05,-0.00025,9e-05,3e-05,3,17
13912,0.00036,0.00045,3e-05,6e-05,6e-05,-0.00025,9e-05,3e-05,3,17
13913,0.00036,0.00045,3e-05,6e-05,6e-05,-0.00025,9e-05,3e-05,3,17
13914,0.00036,0.00045,3e-05,6e-05,6e-05,-0.00025,9e-05,3e-05,3,17
13915,0.00036,0.00045,3e-05,6e-05,6e-05,-0.00025,9e-05,3e-05,3,17
13916,0.00036,0.00045,3e-05,6e-05,6e-05,-0.00025,9e-05,3e-05,3,17
13917,0.00036,0.00045,3e-05,6e-05,6e-05,-0.00025,9e-05,3e-05,3,17
13918,0.00036,0.00045,3e-05,6e-05,6e-05,-0.00025,9e-05,3e-05,3,17
13919,0.00036,0.00045,3e-05,6e-05,6e-05,-0.00025,9e-05,3e-05,3,17
13920,0.00036,0.00045,3e-05,6e-05,6e-05,-0.00025,9e-05,3e-05,3,17
13921,0.00036,0.00045,3e-05,6e-05,6e-05,-0.00025,9e-05,3e-05,3,17
13922,0.00036,0.00045,3e-05,6e-05,6e-05,-0.00025,9e-05,3e-05,3,17
13923,0.00036,0.00045,3e-05,6e-05,6e-05,-0.00025,9e-05,3e-05,3,17
13924,0.00036,0.00045,3e-05,6e-05,6e-05,-0.00025,9e-05,3e-05,3,17
13925,-0.00012,-0.0001,-7e-05,-9e-05,-0.00011,-0.0001,-4e-05,-0.00013,3,17
13926,9e-05,0.00033,0.00011,0.00012,0.00023,0.00015,4e-05,-9e-05,3,17
13927,0.00027,0.00032,6e-05,0,4e-05,-9e-05,-7e-05,-0.0002,3,17
13928,0.00027,0.00032,6e-05,0,4e-05,-9e-05,-7e-05,-0.0002,3,17
13929,0.00027,0.00032,6e-05,0,4e-05,-9e-05,-7e-05,-0.0002,3,17
13930,0.00027,0.00032,6e-05,0,4e-05,-9e-05,-7e-05,-0.0002,3,17
13931,0.00027,0.00032,6e-05,0,4e-05,-9e-05,-7e-05,-0.0002,3,17
13932,0.00027,0.00032,6e-05,0,4e-05,-9e-05,-7e-05,-0.0002,3,17
13933,0.00027,0.00032,6e-05,0,4e-05,-9e-05,-7e-05,-0.0002,3,17
13935,0.00027,0.00032,6e-05,0,4e-05,-9e-05,-7e-05,-0.0002,3,17
13936,0.00027,0.00032,6e-05,0,4e-05,-9e-05,-7e-05,-0.0002,3,17
13938,0.00027,0.00032,6e-05,0,4e-05,-9e-05,-7e-05,-0.0002,3,17
13939,0.00027,0.00032,6e-05,0,4e-05,-9e-05,-7e-05,-0.0002,3,17
13940,0.00027,0.00032,6e-05,0,4e-05,-9e-05,-7e-05,-0.0002,3,17
13941,0.00027,0.00032,6e-05,0,4e-05,-9e-05,-7e-05,-0.0002,3,17
13942,0.00027,0.00032,6e-05,0,4e-05,-9e-05,-7e-05,-0.0002,3,17
13943,0.00027,0.00032,6e-05,0,4e-05,-9e-05,-7e-05,-0.0002,3,17
13944,0.00027,0.00032,6e-05,0,4e-05,-9e-05,-7e-05,-0.0002,3,17
13945,0.00027,0.00032,6e-05,0,4e-05,-9e-05,-7e-05,-0.0002,3,17
13946,0.00027,0.00032,6e-05,0,4e-05,-9e-05,-7e-05,-0.0002,3,17
13947,0.00027,0.00032,6e-05,0,4e-05,-9e-05,-7e-05,-0.0002,3,17
13948,0.00027,0.00032,6e-05,0,4e-05,-9e-05,-7e-05,-0.0002,3,17
13949,-0.0001,-0.00014,-6e-05,1e-05,-2e-05,-0.00013,-2e-05,1e-05,3,17
13950,-7e-05,-4e-05,0,-3e-05,-0.00012,-3e-05,-3e-05,0,3,17
13951,-7e-05,-4e-05,0,-3e-05,-0.00012,-3e-05,-3e-05,0,3,17
13952,-7e-05,-4e-05,0,-3e-05,-0.00012,-3e-05,-3e-05,0,3,17
13953,-7e-05,-4e-05,0,-3e-05,-0.00012,-3e-05,-3e-05,0,3,17
13954,-7e-05,-4e-05,0,-3e-05,-0.00012,-3e-05,-3e-05,0,3,17
13955,-7e-05,-4e-05,0,-3e-05,-0.00012,-3e-05,-3e-05,0,3,17
13956,-7e-05,-4e-05,0,-3e-05,-0.00012,-3e-05,-3e-05,0,3,17
13957,-7e-05,-4e-05,0,-3e-05,-0.00012,-3e-05,-3e-05,0,3,17
13958,-7e-05,-4e-05,0,-3e-05,-0.00012,-3e-05,-3e-05,0,3,17
13959,-7e-05,-4e-05,0,-3e-05,-0.00012,-3e-05,-3e-05,0,3,17
13960,-7e-05,-4e-05,0,-3e-05,-0.00012,-3e-05,-3e-05,0,3,17
13961,-7e-05,-4e-05,0,-3e-05,-0.00012,-3e-05,-3e-05,0,3,17
13962,-7e-05,-4e-05,0,-3e-05,-0.00012,-3e-05,-3e-05,0,3,17
13963,6e-05,-4e-05,-3e-05,-5e-05,-0.00012,-0.00012,-0.00031,0.00026,3,17
13964,6e-05,-4e-05,-3e-05,-5e-05,-0.00012,-0.00012,-0.00031,0.00026,3,17
13965,6e-05,-4e-05,-3e-05,-5e-05,-0.00012,-0.00012,-0.00031,0.00026,3,17
13967,6e-05,-4e-05,-3e-05,-5e-05,-0.00012,-0.00012,-0.00031,0.00026,3,17
13968,6e-05,-4e-05,-3e-05,-5e-05,-0.00012,-0.00012,-0.00031,0.00026,3,17
13969,6e-05,-4e-05,-3e-05,-5e-05,-0.00012,-0.00012,-0.00031,0.00026,3,17
13970,9e-05,0.00015,2e-05,4e-05,2e-05,0.00016,8e-05,0.00019,3,17
13971,0.00011,-0.00013,8e-05,4e-05,3e-05,7e-05,4e-05,0.00037,3,17
13972,0.00011,-0.00013,8e-05,4e-05,3e-05,7e-05,4e-05,0.00037,3,17
13973,0.00011,-0.00013,8e-05,4e-05,3e-05,7e-05,4e-05,0.00037,3,17
13974,0.00011,-0.00013,8e-05,4e-05,3e-05,7e-05,4e-05,0.00037,3,17
13975,0.00011,-0.00013,8e-05,4e-05,3e-05,7e-05,4e-05,0.00037,3,17
13976,0.00011,-0.00013,8e-05,4e-05,3e-05,7e-05,4e-05,0.00037,3,17
13977,0.00011,-0.00013,8e-05,4e-05,3e-05,7e-05,4e-05,0.00037,3,17
13978,0.00011,-0.00013,8e-05,4e-05,3e-05,7e-05,4e-05,0.00037,3,17
13979,0.00011,-0.00013,8e-05,4e-05,3e-05,7e-05,4e-05,0.00037,3,17
13980,0.00011,-0.00013,8e-05,4e-05,3e-05,7e-05,4e-05,0.00037,3,17
13981,0.00011,-0.00013,8e-05,4e-05,3e-05,7e-05,4e-05,0.00037,3,17
13982,0.00011,-0.00013,8e-05,4e-05,3e-05,7e-05,4e-05,0.00037,3,17
13983,0.00011,-0.00013,8e-05,4e-05,3e-05,7e-05,4e-05,0.00037,3,17
13984,0.00011,-0.00013,8e-05,4e-05,3e-05,7e-05,4e-05,0.00037,3,17
13985,0.00011,-0.00013,8e-05,4e-05,3e-05,7e-05,4e-05,0.00037,3,17
13986,0.00011,-0.00013,8e-05,4e-05,3e-05,7e-05,4e-05,0.00037,3,17
13988,0.00011,-0.00013,8e-05,4e-05,3e-05,7e-05,4e-05,0.00037,3,17
13989,0.00011,-0.00013,8e-05,4e-05,3e-05,7e-05,4e-05,0.00037,3,17
13990,0.00011,-0.00013,8e-05,4e-05,3e-05,7e-05,4e-05,0.00037,3,17
13991,0.00011,-0.00013,8e-05,4e-05,3e-05,7e-05,4e-05,0.00037,3,17
13992,0.00011,-0.00013,8e-05,4e-05,3e-05,7e-05,4e-05,0.00037,3,17
13993,0.00013,0.00021,2e-05,2e-05,2e-05,0.00035,8e-05,8e-05,3,17
13994,-0.00051,-0.00033,-7e-05,-2e-05,-0.00015,-0.00014,-4e-05,-6e-05,3,17
13995,0.00012,0.00011,-6e-05,-2e-05,0.00015,0.00014,1e-05,0.0003,3,17
13996,0.00012,0.00011,-6e-05,-2e-05,0.00015,0.00014,1e-05,0.0003,3,17
13997,0.00012,0.00011,-6e-05,-2e-05,0.00015,0.00014,1e-05,0.0003,3,17
13998,0.00012,0.00011,-6e-05,-2e-05,0.00015,0.00014,1e-05,0.0003,3,17
13999,0.00012,0.00011,-6e-05,-2e-05,0.00015,0.00014,1e-05,0.0003,3,17
14000,-3e-05,-5e-05,-4e-05,4e-05,4e-05,4e-05,6e-05,8e-05,3,17
14001,-3e-05,-5e-05,-4e-05,4e-05,4e-05,4e-05,6e-05,8e-05,3,17
14002,-3e-05,-5e-05,-4e-05,4e-05,4e-05,4e-05,6e-05,8e-05,3,17
14003,-3e-05,-5e-05,-4e-05,4e-05,4e-05,4e-05,6e-05,8e-05,3,17
14004,-3e-05,-5e-05,-4e-05,4e-05,4e-05,4e-05,6e-05,8e-05,3,17
14005,-3e-05,-5e-05,-4e-05,4e-05,4e-05,4e-05,6e-05,8e-05,3,17
14006,-3e-05,-5e-05,-4e-05,4e-05,4e-05,4e-05,6e-05,8e-05,3,17
14007,-3e-05,-5e-05,-4e-05,4e-05,4e-05,4e-05,6e-05,8e-05,3,17
14008,-3e-05,-5e-05,-4e-05,4e-05,4e-05,4e-05,6e-05,8e-05,3,17
14009,-3e-05,-5e-05,-4e-05,4e-05,4e-05,4e-05,6e-05,8e-05,3,17
14010,-3e-05,-5e-05,-4e-05,4e-05,4e-05,4e-05,6e-05,8e-05,3,17
14011,-3e-05,-5e-05,-4e-05,4e-05,4e-05,4e-05,6e-05,8e-05,3,17
14012,-3e-05,-5e-05,-4e-05,4e-05,4e-05,4e-05,6e-05,8e-05,3,17
14013,-3e-05,-5e-05,-4e-05,4e-05,4e-05,4e-05,6e-05,8e-05,3,17
14014,-1e-05,-0.00014,-6e-05,-8e-05,6e-05,-2e-05,-4e-05,-0.00011,3,17
14015,-1e-05,-0.00014,-6e-05,-8e-05,6e-05,-2e-05,-4e-05,-0.00011,3,17
14016,-1e-05,-0.00014,-6e-05,-8e-05,6e-05,-2e-05,-4e-05,-0.00011,3,17
14017,-1e-05,-0.00014,-6e-05,-8e-05,6e-05,-2e-05,-4e-05,-0.00011,3,17
14018,-1e-05,-0.00014,-6e-05,-8e-05,6e-05,-2e-05,-4e-05,-0.00011,3,17
14019,-1e-05,-0.00014,-6e-05,-8e-05,6e-05,-2e-05,-4e-05,-0.00011,3,17
14020,-1e-05,-0.00014,-6e-05,-8e-05,6e-05,-2e-05,-4e-05,-0.00011,3,17
14021,-1e-05,-0.00014,-6e-05,-8e-05,6e-05,-2e-05,-4e-05,-0.00011,3,17
14022,-1e-05,-0.00014,-6e-05,-8e-05,6e-05,-2e-05,-4e-05,-0.00011,3,17
14023,0.00026,5e-05,-0.00019,-0.00016,-0.00027,-0.00024,-0.00016,0.00036,3,17
14024,0.00026,5e-05,-0.00019,-0.00016,-0.00027,-0.00024,-0.00016,0.00036,3,17
14025,-0.00021,-0.00019,3e-05,6e-05,-7e-05,3e-05,5e-05,-0.00015,3,17
14026,-0.00021,-0.00019,3e-05,6e-05,-7e-05,3e-05,5e-05,-0.00015,3,17
14027,-0.00021,-0.00019,3e-05,6e-05,-7e-05,3e-05,5e-05,-0.00015,3,17
14028,-0.00021,-0.00019,3e-05,6e-05,-7e-05,3e-05,5e-05,-0.00015,3,17
14029,-0.00021,-0.00019,3e-05,6e-05,-7e-05,3e-05,5e-05,-0.00015,3,17
14030,-0.00021,-0.00019,3e-05,6e-05,-7e-05,3e-05,5e-05,-0.00015,3,17
14031,-0.00021,-0.00019,3e-05,6e-05,-7e-05,3e-05,5e-05,-0.00015,3,17
14032,-0.00021,-0.00019,3e-05,6e-05,-7e-05,3e-05,5e-05,-0.00015,3,17
14033,-0.00021,-0.00019,3e-05,6e-05,-7e-05,3e-05,5e-05,-0.00015,3,17
14034,-0.00021,-0.00019,3e-05,6e-05,-7e-05,3e-05,5e-05,-0.00015,3,17
14035,-0.00021,-0.00019,3e-05,6e-05,-7e-05,3e-05,5e-05,-0.00015,3,17
14036,-0.00021,-0.00019,3e-05,6e-05,-7e-05,3e-05,5e-05,-0.00015,3,17
14038,-0.00021,-0.00019,3e-05,6e-05,-7e-05,3e-05,5e-05,-0.00015,3,17
14039,-0.00021,-0.00019,3e-05,6e-05,-7e-05,3e-05,5e-05,-0.00015,3,17
14040,-0.00021,-0.00019,3e-05,6e-05,-7e-05,3e-05,5e-05,-0.00015,3,17
14041,-0.00021,-0.00019,3e-05,6e-05,-7e-05,3e-05,5e-05,-0.00015,3,17
14042,-0.00021,-0.00019,3e-05,6e-05,-7e-05,3e-05,5e-05,-0.00015,3,17
14043,-0.00021,-0.00019,3e-05,6e-05,-7e-05,3e-05,5e-05,-0.00015,3,17
14044,-0.00021,-0.00019,3e-05,6e-05,-7e-05,3e-05,5e-05,-0.00015,3,17
14045,-6e-05,-0.00022,3e-05,6e-05,-3e-05,-4e-05,6e-05,-0.00023,3,17
14046,-6e-05,-0.00022,3e-05,6e-05,-3e-05,-4e-05,6e-05,-0.00023,3,17
14047,-5e-05,-4e-05,-0.00013,-0.00012,-0.00014,-0.00023,-1e-05,-9e-05,3,17
14048,-5e-05,-4e-05,-0.00013,-0.00012,-0.00014,-0.00023,-1e-05,-9e-05,3,17
14049,-5e-05,-4e-05,-0.00013,-0.00012,-0.00014,-0.00023,-1e-05,-9e-05,3,17
14050,-5e-05,-4e-05,-0.00013,-0.00012,-0.00014,-0.00023,-1e-05,-9e-05,3,17
14051,-5e-05,-4e-05,-0.00013,-0.00012,-0.00014,-0.00023,-1e-05,-9e-05,3,17
14052,-5e-05,-4e-05,-0.00013,-0.00012,-0.00014,-0.00023,-1e-05,-9e-05,3,17
14053,-5e-05,-4e-05,-0.00013,-0.00012,-0.00014,-0.00023,-1e-05,-9e-05,3,17
14054,-5e-05,-4e-05,-0.00013,-0.00012,-0.00014,-0.00023,-1e-05,-9e-05,3,17
14055,-5e-05,-4e-05,-0.00013,-0.00012,-0.00014,-0.00023,-1e-05,-9e-05,3,17
14056,-5e-05,-4e-05,-0.00013,-0.00012,-0.00014,-0.00023,-1e-05,-9e-05,3,17
14057,-5e-05,-4e-05,-0.00013,-0.00012,-0.00014,-0.00023,-1e-05,-9e-05,3,17
14058,-5e-05,-4e-05,-0.00013,-0.00012,-0.00014,-0.00023,-1e-05,-9e-05,3,17
14059,-5e-05,-4e-05,-0.00013,-0.00012,-0.00014,-0.00023,-1e-05,-9e-05,3,17
14060,-5e-05,-4e-05,-0.00013,-0.00012,-0.00014,-0.00023,-1e-05,-9e-05,3,17
14061,-8e-05,1e-05,0,-1e-05,8e-05,8e-05,7e-05,-0.00011,3,17
14062,-8e-05,1e-05,0,-1e-05,8e-05,8e-05,7e-05,-0.00011,3,17
14063,-8e-05,1e-05,0,-1e-05,8e-05,8e-05,7e-05,-0.00011,3,17
14064,-8e-05,1e-05,0,-1e-05,8e-05,8e-05,7e-05,-0.00011,3,17
14065,-8e-05,1e-05,0,-1e-05,8e-05,8e-05,7e-05,-0.00011,3,17
14066,0.00015,0.00011,-6e-05,-0.00011,-0.00024,-0.00012,-4e-05,-5e-05,3,17
14067,-0.00021,3e-05,6e-05,7e-05,0.00015,-2e-05,-1e-05,-0.00012,3,17
14068,-0.00021,3e-05,6e-05,7e-05,0.00015,-2e-05,-1e-05,-0.00012,3,17
14069,-0.00021,3e-05,6e-05,7e-05,0.00015,-2e-05,-1e-05,-0.00012,3,17
14070,-0.00021,3e-05,6e-05,7e-05,0.00015,-2e-05,-1e-05,-0.00012,3,17
14071,-0.00021,3e-05,6e-05,7e-05,0.00015,-2e-05,-1e-05,-0.00012,3,17
14072,-0.00021,3e-05,6e-05,7e-05,0.00015,-2e-05,-1e-05,-0.00012,3,17
14073,-0.00021,3e-05,6e-05,7e-05,0.00015,-2e-05,-1e-05,-0.00012,3,17
14074,-0.00021,3e-05,6e-05,7e-05,0.00015,-2e-05,-1e-05,-0.00012,3,17
14075,-0.00021,3e-05,6e-05,7e-05,0.00015,-2e-05,-1e-05,-0.00012,3,17
14076,-0.00021,3e-05,6e-05,7e-05,0.00015,-2e-05,-1e-05,-0.00012,3,17
14077,-0.00021,3e-05,6e-05,7e-05,0.00015,-2e-05,-1e-05,-0.00012,3,17
14078,-0.00021,3e-05,6e-05,7e-05,0.00015,-2e-05,-1e-05,-0.00012,3,17
14079,-0.00021,3e-05,6e-05,7e-05,0.00015,-2e-05,-1e-05,-0.00012,3,17
14080,-0.00021,3e-05,6e-05,7e-05,0.00015,-2e-05,-1e-05,-0.00012,3,17
14081,-0.00021,3e-05,6e-05,7e-05,0.00015,-2e-05,-1e-05,-0.00012,3,17
14082,-0.00021,3e-05,6e-05,7e-05,0.00015,-2e-05,-1e-05,-0.00012,3,17
14083,-0.00016,-0.00014,-5e-05,6e-05,-1e-05,7e-05,-9e-05,-0.00014,3,17
14084,0.00026,0.00028,-4e-05,-1e-05,-1e-05,2e-05,-7e-05,-0.00036,3,17
14085,0.00026,0.00028,-4e-05,-1e-05,-1e-05,2e-05,-7e-05,-0.00036,3,17
14086,0.00026,0.00028,-4e-05,-1e-05,-1e-05,2e-05,-7e-05,-0.00036,3,17
14088,0.00026,0.00028,-4e-05,-1e-05,-1e-05,2e-05,-7e-05,-0.00036,3,17
14089,0.00026,0.00028,-4e-05,-1e-05,-1e-05,2e-05,-7e-05,-0.00036,3,17
14090,0.00026,0.00028,-4e-05,-1e-05,-1e-05,2e-05,-7e-05,-0.00036,3,17
14091,0.00026,0.00028,-4e-05,-1e-05,-1e-05,2e-05,-7e-05,-0.00036,3,17
14092,0.00026,0.00028,-4e-05,-1e-05,-1e-05,2e-05,-7e-05,-0.00036,3,17
14093,0.00026,0.00028,-4e-05,-1e-05,-1e-05,2e-05,-7e-05,-0.00036,3,17
14094,0.00026,0.00028,-4e-05,-1e-05,-1e-05,2e-05,-7e-05,-0.00036,3,17
14095,0.00026,0.00028,-4e-05,-1e-05,-1e-05,2e-05,-7e-05,-0.00036,3,17
14096,0.00026,0.00028,-4e-05,-1e-05,-1e-05,2e-05,-7e-05,-0.00036,3,17
14097,0.00026,0.00028,-4e-05,-1e-05,-1e-05,2e-05,-7e-05,-0.00036,3,17
14098,0.00026,0.00028,-4e-05,-1e-05,-1e-05,2e-05,-7e-05,-0.00036,3,17
14099,0.00026,0.00028,-4e-05,-1e-05,-1e-05,2e-05,-7e-05,-0.00036,3,17
14100,0.00026,0.00028,-4e-05,-1e-05,-1e-05,2e-05,-7e-05,-0.00036,3,17
14101,0.00026,0.00028,-4e-05,-1e-05,-1e-05,2e-05,-7e-05,-0.00036,3,17
14102,0.00026,0.00028,-4e-05,-1e-05,-1e-05,2e-05,-7e-05,-0.00036,3,17
14103,0.00026,0.00028,-4e-05,-1e-05,-1e-05,2e-05,-7e-05,-0.00036,3,17
14104,0.00026,0.00028,-4e-05,-1e-05,-1e-05,2e-05,-7e-05,-0.00036,3,17
14105,0.00026,0.00028,-4e-05,-1e-05,-1e-05,2e-05,-7e-05,-0.00036,3,17
14106,0.00026,0.00028,-4e-05,-1e-05,-1e-05,2e-05,-7e-05,-0.00036,3,17
14107,0.00026,0.00028,-4e-05,-1e-05,-1e-05,2e-05,-7e-05,-0.00036,3,17
14109,0.00026,0.00028,-4e-05,-1e-05,-1e-05,2e-05,-7e-05,-0.00036,3,17
14110,0.00026,0.00028,-4e-05,-1e-05,-1e-05,2e-05,-7e-05,-0.00036,3,17
14111,0.00026,0.00028,-4e-05,-1e-05,-1e-05,2e-05,-7e-05,-0.00036,3,17
14112,0.00026,0.00028,-4e-05,-1e-05,-1e-05,2e-05,-7e-05,-0.00036,3,17
14113,9e-05,0.00023,0.0001,5e-05,0.00013,0.0001,-7e-05,-0.0002,3,17
14114,-0.00033,-0.00017,-3e-05,-2e-05,-4e-05,0,-1e-05,9e-05,3,17
14115,-0.00033,-0.00017,-3e-05,-2e-05,-4e-05,0,-1e-05,9e-05,3,17
14116,-0.00033,-0.00017,-3e-05,-2e-05,-4e-05,0,-1e-05,9e-05,3,17
14117,-0.00033,-0.00017,-3e-05,-2e-05,-4e-05,0,-1e-05,9e-05,3,17
14118,-0.00033,-0.00017,-3e-05,-2e-05,-4e-05,0,-1e-05,9e-05,3,17
14119,-0.00033,-0.00017,-3e-05,-2e-05,-4e-05,0,-1e-05,9e-05,3,17
14120,-9e-05,-0.00013,0,2e-05,0.00018,6e-05,0.00016,0.00047,3,17
14121,-9e-05,-0.00013,0,2e-05,0.00018,6e-05,0.00016,0.00047,3,17
14122,-9e-05,-0.00013,0,2e-05,0.00018,6e-05,0.00016,0.00047,3,17
14123,-9e-05,-0.00013,0,2e-05,0.00018,6e-05,0.00016,0.00047,3,17
14124,-9e-05,-0.00013,0,2e-05,0.00018,6e-05,0.00016,0.00047,3,17
14125,-9e-05,-0.00013,0,2e-05,0.00018,6e-05,0.00016,0.00047,3,17
14126,-9e-05,-0.00013,0,2e-05,0.00018,6e-05,0.00016,0.00047,3,17
14127,-9e-05,-0.00013,0,2e-05,0.00018,6e-05,0.00016,0.00047,3,17
14128,-9e-05,-0.00013,0,2e-05,0.00018,6e-05,0.00016,0.00047,3,17
14129,-9e-05,-0.00013,0,2e-05,0.00018,6e-05,0.00016,0.00047,3,17
14130,-9e-05,-0.00013,0,2e-05,0.00018,6e-05,0.00016,0.00047,3,17
14131,-9e-05,-0.00013,0,2e-05,0.00018,6e-05,0.00016,0.00047,3,17
14132,-9e-05,-0.00013,0,2e-05,0.00018,6e-05,0.00016,0.00047,3,17
14133,-9e-05,-0.00013,0,2e-05,0.00018,6e-05,0.00016,0.00047,3,17
14134,3e-05,-2e-05,-2e-05,0,0.00013,8e-05,4e-05,0,3,17
14135,3e-05,-2e-05,-2e-05,0,0.00013,8e-05,4e-05,0,3,17
14136,3e-05,-2e-05,-2e-05,0,0.00013,8e-05,4e-05,0,3,17
14138,3e-05,-2e-05,-2e-05,0,0.00013,8e-05,4e-05,0,3,17
14139,3e-05,-2e-05,-2e-05,0,0.00013,8e-05,4e-05,0,3,17
14140,3e-05,-2e-05,-2e-05,0,0.00013,8e-05,4e-05,0,3,17
14141,3e-05,-2e-05,-2e-05,0,0.00013,8e-05,4e-05,0,3,17
14142,3e-05,-2e-05,-2e-05,0,0.00013,8e-05,4e-05,0,3,17
14143,3e-05,4e-05,-1e-05,-0.0001,-0.0001,-0.0001,-5e-05,-0.00011,3,17
14144,3e-05,4e-05,-1e-05,-0.0001,-0.0001,-0.0001,-5e-05,-0.00011,3,17
14145,3e-05,4e-05,-1e-05,-0.0001,-0.0001,-0.0001,-5e-05,-0.00011,3,17
14146,3e-05,4e-05,-1e-05,-0.0001,-0.0001,-0.0001,-5e-05,-0.00011,3,17
14147,3e-05,4e-05,-1e-05,-0.0001,-0.0001,-0.0001,-5e-05,-0.00011,3,17
14148,3e-05,4e-05,-1e-05,-0.0001,-0.0001,-0.0001,-5e-05,-0.00011,3,17
14149,3e-05,4e-05,-1e-05,-0.0001,-0.0001,-0.0001,-5e-05,-0.00011,3,17
14150,3e-05,4e-05,-1e-05,-0.0001,-0.0001,-0.0001,-5e-05,-0.00011,3,17
14151,3e-05,4e-05,-1e-05,-0.0001,-0.0001,-0.0001,-5e-05,-0.00011,3,17
14152,3e-05,4e-05,-1e-05,-0.0001,-0.0001,-0.0001,-5e-05,-0.00011,3,17
14153,3e-05,4e-05,-1e-05,-0.0001,-0.0001,-0.0001,-5e-05,-0.00011,3,17
14154,3e-05,4e-05,-1e-05,-0.0001,-0.0001,-0.0001,-5e-05,-0.00011,3,17
14155,3e-05,4e-05,-1e-05,-0.0001,-0.0001,-0.0001,-5e-05,-0.00011,3,17
14156,3e-05,4e-05,-1e-05,-0.0001,-0.0001,-0.0001,-5e-05,-0.00011,3,17
14157,-0.00035,-0.00023,-0.00018,-0.00015,-0.00014,-0.00011,-0.00014,-0.00021,3,17
14158,0.00034,0.00023,1e-05,-1e-05,-2e-05,-2e-05,-2e-05,0.00049,3,17
14159,0.00034,0.00023,1e-05,-1e-05,-2e-05,-2e-05,-2e-05,0.00049,3,17
14160,0.00034,0.00023,1e-05,-1e-05,-2e-05,-2e-05,-2e-05,0.00049,3,17
14161,0.00034,0.00023,1e-05,-1e-05,-2e-05,-2e-05,-2e-05,0.00049,3,17
14162,0.00034,0.00023,1e-05,-1e-05,-2e-05,-2e-05,-2e-05,0.00049,3,17
14163,0.00034,0.00023,1e-05,-1e-05,-2e-05,-2e-05,-2e-05,0.00049,3,17
14164,0.00034,0.00023,1e-05,-1e-05,-2e-05,-2e-05,-2e-05,0.00049,3,17
14165,0.00034,0.00023,1e-05,-1e-05,-2e-05,-2e-05,-2e-05,0.00049,3,17
14166,0.00016,0.00016,3e-05,3e-05,-4e-05,7e-05,0.00014,-6e-05,3,17
14167,-3e-05,0,-3e-05,-0.00012,-0.00023,-0.00014,-8e-05,-0.00011,3,17
14168,-3e-05,0,-3e-05,-0.00012,-0.00023,-0.00014,-8e-05,-0.00011,3,17
14169,-3e-05,0,-3e-05,-0.00012,-0.00023,-0.00014,-8e-05,-0.00011,3,17
14170,-3e-05,0,-3e-05,-0.00012,-0.00023,-0.00014,-8e-05,-0.00011,3,17
14171,-3e-05,0,-3e-05,-0.00012,-0.00023,-0.00014,-8e-05,-0.00011,3,17
14172,-3e-05,0,-3e-05,-0.00012,-0.00023,-0.00014,-8e-05,-0.00011,3,17
14173,-3e-05,0,-3e-05,-0.00012,-0.00023,-0.00014,-8e-05,-0.00011,3,17
14174,-3e-05,0,-3e-05,-0.00012,-0.00023,-0.00014,-8e-05,-0.00011,3,17
14175,-3e-05,0,-3e-05,-0.00012,-0.00023,-0.00014,-8e-05,-0.00011,3,17
14176,-3e-05,0,-3e-05,-0.00012,-0.00023,-0.00014,-8e-05,-0.00011,3,17
14177,-3e-05,0,-3e-05,-0.00012,-0.00023,-0.00014,-8e-05,-0.00011,3,17
14178,-3e-05,0,-3e-05,-0.00012,-0.00023,-0.00014,-8e-05,-0.00011,3,17
14179,-3e-05,0,-3e-05,-0.00012,-0.00023,-0.00014,-8e-05,-0.00011,3,17
14180,-5e-05,-2e-05,2e-05,0,-7e-05,2e-05,0,0.00046,3,17
14181,-5e-05,-2e-05,2e-05,0,-7e-05,2e-05,0,0.00046,3,17
14182,-5e-05,-2e-05,2e-05,0,-7e-05,2e-05,0,0.00046,3,17
14183,-5e-05,-2e-05,2e-05,0,-7e-05,2e-05,0,0.00046,3,17
14184,-5e-05,-2e-05,2e-05,0,-7e-05,2e-05,0,0.00046,3,17
14185,-5e-05,-2e-05,2e-05,0,-7e-05,2e-05,0,0.00046,3,17
14186,-5e-05,-2e-05,2e-05,0,-7e-05,2e-05,0,0.00046,3,17
14188,-0.00028,-0.00027,-6e-05,-2e-05,-1e-05,-0.00013,6e-05,-0.00012,3,17
14189,-0.00028,-0.00027,-6e-05,-2e-05,-1e-05,-0.00013,6e-05,-0.00012,3,17
14190,-0.00028,-0.00027,-6e-05,-2e-05,-1e-05,-0.00013,6e-05,-0.00012,3,17
14191,-0.00028,-0.00027,-6e-05,-2e-05,-1e-05,-0.00013,6e-05,-0.00012,3,17
14192,-0.00028,-0.00027,-6e-05,-2e-05,-1e-05,-0.00013,6e-05,-0.00012,3,17
14193,-0.00028,-0.00027,-6e-05,-2e-05,-1e-05,-0.00013,6e-05,-0.00012,3,17
14194,-0.00028,-0.00027,-6e-05,-2e-05,-1e-05,-0.00013,6e-05,-0.00012,3,17
14195,-0.00028,-0.00027,-6e-05,-2e-05,-1e-05,-0.00013,6e-05,-0.00012,3,17
14196,-0.00028,-0.00027,-6e-05,-2e-05,-1e-05,-0.00013,6e-05,-0.00012,3,17
14197,-0.00028,-0.00027,-6e-05,-2e-05,-1e-05,-0.00013,6e-05,-0.00012,3,17
14198,-0.00028,-0.00027,-6e-05,-2e-05,-1e-05,-0.00013,6e-05,-0.00012,3,17
14199,-0.00028,-0.00027,-6e-05,-2e-05,-1e-05,-0.00013,6e-05,-0.00012,3,17
14200,-0.00028,-0.00027,-6e-05,-2e-05,-1e-05,-0.00013,6e-05,-0.00012,3,17
14201,-0.00028,-0.00027,-6e-05,-2e-05,-1e-05,-0.00013,6e-05,-0.00012,3,17
14202,-0.00028,-0.00027,-6e-05,-2e-05,-1e-05,-0.00013,6e-05,-0.00012,3,17
14203,-0.0005,-0.00032,-2e-05,-2e-05,0.00011,3e-05,6e-05,-6e-05,3,17
14204,0.00021,0.00012,8e-05,3e-05,-8e-05,-1e-05,2e-05,0.00014,3,17
14205,-0.00015,-0.00025,-0.0001,-3e-05,9e-05,0,2e-05,8e-05,3,17
14206,-0.00015,-0.00025,-0.0001,-3e-05,9e-05,0,2e-05,8e-05,3,17
14207,-0.00015,-0.00025,-0.0001,-3e-05,9e-05,0,2e-05,8e-05,3,17
14208,-0.00015,-0.00025,-0.0001,-3e-05,9e-05,0,2e-05,8e-05,3,17
14209,-0.00015,-0.00025,-0.0001,-3e-05,9e-05,0,2e-05,8e-05,3,17
14210,-0.00015,-0.00025,-0.0001,-3e-05,9e-05,0,2e-05,8e-05,3,17
14211,-0.00015,-0.00025,-0.0001,-3e-05,9e-05,0,2e-05,8e-05,3,17
14212,-0.00015,-0.00025,-0.0001,-3e-05,9e-05,0,2e-05,8e-05,3,17
14213,-0.00015,-0.00025,-0.0001,-3e-05,9e-05,0,2e-05,8e-05,3,17
14214,-0.00015,-0.00025,-0.0001,-3e-05,9e-05,0,2e-05,8e-05,3,17
14215,-0.00015,-0.00025,-0.0001,-3e-05,9e-05,0,2e-05,8e-05,3,17
14216,-0.00015,-0.00025,-0.0001,-3e-05,9e-05,0,2e-05,8e-05,3,17
14218,-0.00015,-0.00025,-0.0001,-3e-05,9e-05,0,2e-05,8e-05,3,17
14219,-0.00015,-0.00025,-0.0001,-3e-05,9e-05,0,2e-05,8e-05,3,17
14220,-0.00015,-0.00025,-0.0001,-3e-05,9e-05,0,2e-05,8e-05,3,17
14221,-0.00015,-0.00025,-0.0001,-3e-05,9e-05,0,2e-05,8e-05,3,17
14222,-0.00015,-0.00025,-0.0001,-3e-05,9e-05,0,2e-05,8e-05,3,17
14223,-0.00015,-0.00025,-0.0001,-3e-05,9e-05,0,2e-05,8e-05,3,17
14224,-0.00015,-0.00025,-0.0001,-3e-05,9e-05,0,2e-05,8e-05,3,17
14225,-0.00015,-0.00025,-0.0001,-3e-05,9e-05,0,2e-05,8e-05,3,17
14226,0.00011,9e-05,-1e-05,-5e-05,-1e-05,8e-05,9e-05,-0.00038,3,17
14227,-0.00035,-0.00029,-5e-05,-2e-05,2e-05,0.0001,-1e-05,-0.00029,3,17
14228,-0.00035,-0.00029,-5e-05,-2e-05,2e-05,0.0001,-1e-05,-0.00029,3,17
14229,-0.00035,-0.00029,-5e-05,-2e-05,2e-05,0.0001,-1e-05,-0.00029,3,17
14230,-0.00035,-0.00029,-5e-05,-2e-05,2e-05,0.0001,-1e-05,-0.00029,3,17
14231,-0.00035,-0.00029,-5e-05,-2e-05,2e-05,0.0001,-1e-05,-0.00029,3,17
14232,-0.00035,-0.00029,-5e-05,-2e-05,2e-05,0.0001,-1e-05,-0.00029,3,17
14233,-0.00035,-0.00029,-5e-05,-2e-05,2e-05,0.0001,-1e-05,-0.00029,3,17
14234,-0.00035,-0.00029,-5e-05,-2e-05,2e-05,0.0001,-1e-05,-0.00029,3,17
14235,-0.00035,-0.00029,-5e-05,-2e-05,2e-05,0.0001,-1e-05,-0.00029,3,17
14236,-0.00035,-0.00029,-5e-05,-2e-05,2e-05,0.0001,-1e-05,-0.00029,3,17
14238,-0.00035,-0.00029,-5e-05,-2e-05,2e-05,0.0001,-1e-05,-0.00029,3,17
14239,-0.00035,-0.00029,-5e-05,-2e-05,2e-05,0.0001,-1e-05,-0.00029,3,17
14240,-0.00035,-0.00029,-5e-05,-2e-05,2e-05,0.0001,-1e-05,-0.00029,3,17
14241,-0.00017,-0.00023,-9e-05,-5e-05,-6e-05,-0.00017,-0.00016,-0.00027,3,17
14242,-0.00017,-0.00023,-9e-05,-5e-05,-6e-05,-0.00017,-0.00016,-0.00027,3,17
14243,-0.00017,-0.00023,-9e-05,-5e-05,-6e-05,-0.00017,-0.00016,-0.00027,3,17
14244,-0.00017,-0.00023,-9e-05,-5e-05,-6e-05,-0.00017,-0.00016,-0.00027,3,17
14245,-0.00017,-0.00023,-9e-05,-5e-05,-6e-05,-0.00017,-0.00016,-0.00027,3,17
14246,-0.00017,-0.00023,-9e-05,-5e-05,-6e-05,-0.00017,-0.00016,-0.00027,3,17
14247,-0.00017,-0.00023,-9e-05,-5e-05,-6e-05,-0.00017,-0.00016,-0.00027,3,17
14248,0.00017,0.00018,2e-05,9e-05,0.00012,0.00018,-3e-05,3e-05,3,17
14249,0.00017,0.00018,2e-05,9e-05,0.00012,0.00018,-3e-05,3e-05,3,17
14250,0.00017,0.00018,2e-05,9e-05,0.00012,0.00018,-3e-05,3e-05,3,17
14251,0.00017,0.00018,2e-05,9e-05,0.00012,0.00018,-3e-05,3e-05,3,17
14252,0.00017,0.00018,2e-05,9e-05,0.00012,0.00018,-3e-05,3e-05,3,17
14253,0.00017,0.00018,2e-05,9e-05,0.00012,0.00018,-3e-05,3e-05,3,17
14254,0.00017,0.00018,2e-05,9e-05,0.00012,0.00018,-3e-05,3e-05,3,17
14255,0.00017,0.00018,2e-05,9e-05,0.00012,0.00018,-3e-05,3e-05,3,17
14256,0.00017,0.00018,2e-05,9e-05,0.00012,0.00018,-3e-05,3e-05,3,17
14258,0.00017,0.00018,2e-05,9e-05,0.00012,0.00018,-3e-05,3e-05,3,17
14259,0.00017,0.00018,2e-05,9e-05,0.00012,0.00018,-3e-05,3e-05,3,17
14260,0.00017,0.00018,2e-05,9e-05,0.00012,0.00018,-3e-05,3e-05,3,17
14261,0.00017,0.00018,2e-05,9e-05,0.00012,0.00018,-3e-05,3e-05,3,17
14262,0.00017,0.00018,2e-05,9e-05,0.00012,0.00018,-3e-05,3e-05,3,17
14263,-9e-05,3e-05,-7e-05,-1e-05,0,-3e-05,5e-05,0.00018,3,17
14264,-3e-05,-3e-05,7e-05,7e-05,0.00014,-4e-05,-2e-05,7e-05,3,17
14265,0.00017,0.00018,8e-05,1e-05,-0.0002,-0.00014,-0.00018,-0.00036,3,17
14266,0.00017,0.00018,8e-05,1e-05,-0.0002,-0.00014,-0.00018,-0.00036,3,17
14267,0.00017,0.00018,8e-05,1e-05,-0.0002,-0.00014,-0.00018,-0.00036,3,17
14268,0.00017,0.00018,8e-05,1e-05,-0.0002,-0.00014,-0.00018,-0.00036,3,17
14269,0.00017,0.00018,8e-05,1e-05,-0.0002,-0.00014,-0.00018,-0.00036,3,17
14270,0.00017,0.00018,8e-05,1e-05,-0.0002,-0.00014,-0.00018,-0.00036,3,17
14271,0.00017,0.00018,8e-05,1e-05,-0.0002,-0.00014,-0.00018,-0.00036,3,17
14272,0.00017,0.00018,8e-05,1e-05,-0.0002,-0.00014,-0.00018,-0.00036,3,17
14273,0.00017,0.00018,8e-05,1e-05,-0.0002,-0.00014,-0.00018,-0.00036,3,17
14274,0.00017,0.00018,8e-05,1e-05,-0.0002,-0.00014,-0.00018,-0.00036,3,17
14275,0.00017,0.00018,8e-05,1e-05,-0.0002,-0.00014,-0.00018,-0.00036,3,17
14276,0.00017,0.00018,8e-05,1e-05,-0.0002,-0.00014,-0.00018,-0.00036,3,17
14277,0.00017,0.00018,8e-05,1e-05,-0.0002,-0.00014,-0.00018,-0.00036,3,17
14278,0.00017,0.00018,8e-05,1e-05,-0.0002,-0.00014,-0.00018,-0.00036,3,17
14279,0.00017,0.00018,8e-05,1e-05,-0.0002,-0.00014,-0.00018,-0.00036,3,17
14280,0.00017,0.00018,8e-05,1e-05,-0.0002,-0.00014,-0.00018,-0.00036,3,17
14281,0.00017,0.00018,8e-05,1e-05,-0.0002,-0.00014,-0.00018,-0.00036,3,17
14282,0.00017,0.00018,8e-05,1e-05,-0.0002,-0.00014,-0.00018,-0.00036,3,17
14283,0.00017,0.00018,8e-05,1e-05,-0.0002,-0.00014,-0.00018,-0.00036,3,17
14284,0.00017,0.00018,8e-05,1e-05,-0.0002,-0.00014,-0.00018,-0.00036,3,17
14285,0.00017,0.00018,8e-05,1e-05,-0.0002,-0.00014,-0.00018,-0.00036,3,17
14286,0.00017,0.00018,8e-05,1e-05,-0.0002,-0.00014,-0.00018,-0.00036,3,17
14288,0.00017,0.00018,8e-05,1e-05,-0.0002,-0.00014,-0.00018,-0.00036,3,17
14289,0.00017,0.00018,8e-05,1e-05,-0.0002,-0.00014,-0.00018,-0.00036,3,17
14290,0.00017,0.00018,8e-05,1e-05,-0.0002,-0.00014,-0.00018,-0.00036,3,17
14291,0.00017,0.00018,8e-05,1e-05,-0.0002,-0.00014,-0.00018,-0.00036,3,17
14292,0.00017,0.00018,8e-05,1e-05,-0.0002,-0.00014,-0.00018,-0.00036,3,17
14293,0.00013,0.00017,1e-05,-5e-05,-0.00018,-0.00017,-0.00011,-0.00021,3,17
14294,0.00013,0.00017,1e-05,-5e-05,-0.00018,-0.00017,-0.00011,-0.00021,3,17
14295,-8e-05,-2e-05,-5e-05,0,-3e-05,0.00012,0.00015,-2e-05,3,17
14296,-8e-05,-2e-05,-5e-05,0,-3e-05,0.00012,0.00015,-2e-05,3,17
14297,-8e-05,-2e-05,-5e-05,0,-3e-05,0.00012,0.00015,-2e-05,3,17
14298,-8e-05,-2e-05,-5e-05,0,-3e-05,0.00012,0.00015,-2e-05,3,17
14299,0.00013,0,2e-05,-2e-05,3e-05,9e-05,-0.00014,-0.00018,3,17
14300,0.00013,0,2e-05,-2e-05,3e-05,9e-05,-0.00014,-0.00018,3,17
14301,0.00013,0,2e-05,-2e-05,3e-05,9e-05,-0.00014,-0.00018,3,17
14302,0.00013,0,2e-05,-2e-05,3e-05,9e-05,-0.00014,-0.00018,3,17
14303,0.00013,0,2e-05,-2e-05,3e-05,9e-05,-0.00014,-0.00018,3,17
14304,0.00013,0,2e-05,-2e-05,3e-05,9e-05,-0.00014,-0.00018,3,17
14305,0.00013,0,2e-05,-2e-05,3e-05,9e-05,-0.00014,-0.00018,3,17
14306,0.00013,0,2e-05,-2e-05,3e-05,9e-05,-0.00014,-0.00018,3,17
14307,0.00013,0,2e-05,-2e-05,3e-05,9e-05,-0.00014,-0.00018,3,17
14308,-4e-05,-0.0002,-3e-05,-4e-05,-6e-05,2e-05,-0.00027,-0.00015,3,17
14309,-4e-05,-0.0002,-3e-05,-4e-05,-6e-05,2e-05,-0.00027,-0.00015,3,17
14310,-4e-05,-0.0002,-3e-05,-4e-05,-6e-05,2e-05,-0.00027,-0.00015,3,17
14311,-4e-05,-0.0002,-3e-05,-4e-05,-6e-05,2e-05,-0.00027,-0.00015,3,17
14312,-4e-05,-0.0002,-3e-05,-4e-05,-6e-05,2e-05,-0.00027,-0.00015,3,17
14313,-4e-05,-0.0002,-3e-05,-4e-05,-6e-05,2e-05,-0.00027,-0.00015,3,17
14314,-4e-05,-0.0002,-3e-05,-4e-05,-6e-05,2e-05,-0.00027,-0.00015,3,17
14315,-4e-05,-0.0002,-3e-05,-4e-05,-6e-05,2e-05,-0.00027,-0.00015,3,17
14316,-4e-05,-0.0002,-3e-05,-4e-05,-6e-05,2e-05,-0.00027,-0.00015,3,17
14317,-4e-05,-0.0002,-3e-05,-4e-05,-6e-05,2e-05,-0.00027,-0.00015,3,17
14318,-4e-05,-0.0002,-3e-05,-4e-05,-6e-05,2e-05,-0.00027,-0.00015,3,17
14319,-4e-05,-0.0002,-3e-05,-4e-05,-6e-05,2e-05,-0.00027,-0.00015,3,17
14320,-4e-05,-0.0002,-3e-05,-4e-05,-6e-05,2e-05,-0.00027,-0.00015,3,17
14321,-4e-05,-0.0002,-3e-05,-4e-05,-6e-05,2e-05,-0.00027,-0.00015,3,17
14322,-4e-05,-0.0002,-3e-05,-4e-05,-6e-05,2e-05,-0.00027,-0.00015,3,17
14323,-7e-05,-0.0001,0,1e-05,-7e-05,-0.00022,-1e-05,0.00013,3,17
14324,0.00011,4e-05,2e-05,1e-05,0.00022,4e-05,-8e-05,-0.00027,3,17
14325,0.00011,4e-05,2e-05,1e-05,0.00022,4e-05,-8e-05,-0.00027,3,17
14326,0.00011,4e-05,2e-05,1e-05,0.00022,4e-05,-8e-05,-0.00027,3,17
14327,0.00011,4e-05,2e-05,1e-05,0.00022,4e-05,-8e-05,-0.00027,3,17
14328,0.00011,4e-05,2e-05,1e-05,0.00022,4e-05,-8e-05,-0.00027,3,17
14329,0.00011,4e-05,2e-05,1e-05,0.00022,4e-05,-8e-05,-0.00027,3,17
14330,0.00011,4e-05,2e-05,1e-05,0.00022,4e-05,-8e-05,-0.00027,3,17
14331,0.00011,4e-05,2e-05,1e-05,0.00022,4e-05,-8e-05,-0.00027,3,17
14332,0.00011,4e-05,2e-05,1e-05,0.00022,4e-05,-8e-05,-0.00027,3,17
14333,0.00011,4e-05,2e-05,1e-05,0.00022,4e-05,-8e-05,-0.00027,3,17
14334,0.00011,4e-05,2e-05,1e-05,0.00022,4e-05,-8e-05,-0.00027,3,17
14335,0.00011,4e-05,2e-05,1e-05,0.00022,4e-05,-8e-05,-0.00027,3,17
14336,0.00011,4e-05,2e-05,1e-05,0.00022,4e-05,-8e-05,-0.00027,3,17
14338,0.00011,4e-05,2e-05,1e-05,0.00022,4e-05,-8e-05,-0.00027,3,17
14339,0.00011,4e-05,2e-05,1e-05,0.00022,4e-05,-8e-05,-0.00027,3,17
14340,0.00011,4e-05,2e-05,1e-05,0.00022,4e-05,-8e-05,-0.00027,3,17
14341,0.00011,4e-05,2e-05,1e-05,0.00022,4e-05,-8e-05,-0.00027,3,17
14342,0.00011,4e-05,2e-05,1e-05,0.00022,4e-05,-8e-05,-0.00027,3,17
14343,0.00011,4e-05,2e-05,1e-05,0.00022,4e-05,-8e-05,-0.00027,3,17
14344,0.00011,4e-05,2e-05,1e-05,0.00022,4e-05,-8e-05,-0.00027,3,17
14345,-5e-05,0.00012,3e-05,4e-05,-0.00016,-0.00011,-8e-05,0.00011,3,17
14346,5e-05,1e-05,4e-05,0.00013,0.0002,0.00034,0.0002,0.00017,3,17
14347,-7e-05,1e-05,-7e-05,0,3e-05,-9e-05,8e-05,2e-05,3,17
14348,-7e-05,1e-05,-7e-05,0,3e-05,-9e-05,8e-05,2e-05,3,17
14349,-7e-05,1e-05,-7e-05,0,3e-05,-9e-05,8e-05,2e-05,3,17
14350,-7e-05,1e-05,-7e-05,0,3e-05,-9e-05,8e-05,2e-05,3,17
14351,-7e-05,1e-05,-7e-05,0,3e-05,-9e-05,8e-05,2e-05,3,17
14352,-7e-05,1e-05,-7e-05,0,3e-05,-9e-05,8e-05,2e-05,3,17
14353,-7e-05,1e-05,-7e-05,0,3e-05,-9e-05,8e-05,2e-05,3,17
14354,-7e-05,1e-05,-7e-05,0,3e-05,-9e-05,8e-05,2e-05,3,17
14355,-7e-05,1e-05,-7e-05,0,3e-05,-9e-05,8e-05,2e-05,3,17
14356,-7e-05,1e-05,-7e-05,0,3e-05,-9e-05,8e-05,2e-05,3,17
14357,-7e-05,1e-05,-7e-05,0,3e-05,-9e-05,8e-05,2e-05,3,17
14358,-7e-05,1e-05,-7e-05,0,3e-05,-9e-05,8e-05,2e-05,3,17
14359,-2e-05,-0.0001,1e-05,-5e-05,-2e-05,-4e-05,-0.00012,-0.00035,3,17
14360,-2e-05,-0.0001,1e-05,-5e-05,-2e-05,-4e-05,-0.00012,-0.00035,3,17
14361,-2e-05,-0.0001,1e-05,-5e-05,-2e-05,-4e-05,-0.00012,-0.00035,3,17
14362,-2e-05,-0.0001,1e-05,-5e-05,-2e-05,-4e-05,-0.00012,-0.00035,3,17
14363,-2e-05,-0.0001,1e-05,-5e-05,-2e-05,-4e-05,-0.00012,-0.00035,3,17
14364,-2e-05,-0.0001,1e-05,-5e-05,-2e-05,-4e-05,-0.00012,-0.00035,3,17
14365,-2e-05,-0.0001,1e-05,-5e-05,-2e-05,-4e-05,-0.00012,-0.00035,3,17
14366,-2e-05,-0.0001,1e-05,-5e-05,-2e-05,-4e-05,-0.00012,-0.00035,3,17
14367,-2e-05,-0.0001,1e-05,-5e-05,-2e-05,-4e-05,-0.00012,-0.00035,3,17
14368,-8e-05,-1e-05,2e-05,-6e-05,-0.00015,7e-05,9e-05,0.00021,3,17
14369,-8e-05,-1e-05,2e-05,-6e-05,-0.00015,7e-05,9e-05,0.00021,3,17
14370,-8e-05,-1e-05,2e-05,-6e-05,-0.00015,7e-05,9e-05,0.00021,3,17
14371,-8e-05,-1e-05,2e-05,-6e-05,-0.00015,7e-05,9e-05,0.00021,3,17
14372,-8e-05,-1e-05,2e-05,-6e-05,-0.00015,7e-05,9e-05,0.00021,3,17
14373,-8e-05,-1e-05,2e-05,-6e-05,-0.00015,7e-05,9e-05,0.00021,3,17
14374,-8e-05,-1e-05,2e-05,-6e-05,-0.00015,7e-05,9e-05,0.00021,3,17
14375,-8e-05,-1e-05,2e-05,-6e-05,-0.00015,7e-05,9e-05,0.00021,3,17
14376,-8e-05,-1e-05,2e-05,-6e-05,-0.00015,7e-05,9e-05,0.00021,3,17
14377,-8e-05,-1e-05,2e-05,-6e-05,-0.00015,7e-05,9e-05,0.00021,3,17
14378,-8e-05,-1e-05,2e-05,-6e-05,-0.00015,7e-05,9e-05,0.00021,3,17
14379,-8e-05,-1e-05,2e-05,-6e-05,-0.00015,7e-05,9e-05,0.00021,3,17
14380,-8e-05,-1e-05,2e-05,-6e-05,-0.00015,7e-05,9e-05,0.00021,3,17
14381,-8e-05,-1e-05,2e-05,-6e-05,-0.00015,7e-05,9e-05,0.00021,3,17
14382,-8e-05,-1e-05,2e-05,-6e-05,-0.00015,7e-05,9e-05,0.00021,3,17
14383,-8e-05,-1e-05,2e-05,-6e-05,-0.00015,7e-05,9e-05,0.00021,3,17
14384,-8e-05,-1e-05,2e-05,-6e-05,-0.00015,7e-05,9e-05,0.00021,3,17
14385,-8e-05,-1e-05,2e-05,-6e-05,-0.00015,7e-05,9e-05,0.00021,3,17
14386,-8e-05,-1e-05,2e-05,-6e-05,-0.00015,7e-05,9e-05,0.00021,3,17
14388,-8e-05,-1e-05,2e-05,-6e-05,-0.00015,7e-05,9e-05,0.00021,3,17
14389,-8e-05,-1e-05,2e-05,-6e-05,-0.00015,7e-05,9e-05,0.00021,3,17
14390,-8e-05,-1e-05,2e-05,-6e-05,-0.00015,7e-05,9e-05,0.00021,3,17
14391,-0.0002,-8e-05,-6e-05,-3e-05,-7e-05,-6e-05,6e-05,4e-05,3,17
14392,4e-05,-2e-05,-2e-05,3e-05,6e-05,4e-05,4e-05,0.0002,3,17
14393,4e-05,-2e-05,-2e-05,3e-05,6e-05,4e-05,4e-05,0.0002,3,17
14394,4e-05,-2e-05,-2e-05,3e-05,6e-05,4e-05,4e-05,0.0002,3,17
14395,4e-05,-2e-05,-2e-05,3e-05,6e-05,4e-05,4e-05,0.0002,3,17
14396,4e-05,-2e-05,-2e-05,3e-05,6e-05,4e-05,4e-05,0.0002,3,17
14397,4e-05,-2e-05,-2e-05,3e-05,6e-05,4e-05,4e-05,0.0002,3,17
14398,4e-05,-2e-05,-2e-05,3e-05,6e-05,4e-05,4e-05,0.0002,3,17
14399,4e-05,-2e-05,-2e-05,3e-05,6e-05,4e-05,4e-05,0.0002,3,17
14400,4e-05,-2e-05,-2e-05,3e-05,6e-05,4e-05,4e-05,0.0002,3,17
14401,4e-05,-2e-05,-2e-05,3e-05,6e-05,4e-05,4e-05,0.0002,3,17
14402,4e-05,-2e-05,-2e-05,3e-05,6e-05,4e-05,4e-05,0.0002,3,17
14403,4e-05,-2e-05,-2e-05,3e-05,6e-05,4e-05,4e-05,0.0002,3,17
14404,4e-05,-2e-05,-2e-05,3e-05,6e-05,4e-05,4e-05,0.0002,3,17
14405,4e-05,-2e-05,-2e-05,3e-05,6e-05,4e-05,4e-05,0.0002,3,17
14406,4e-05,-2e-05,-2e-05,3e-05,6e-05,4e-05,4e-05,0.0002,3,17
14407,4e-05,-2e-05,-2e-05,3e-05,6e-05,4e-05,4e-05,0.0002,3,17
14408,4e-05,-2e-05,-2e-05,3e-05,6e-05,4e-05,4e-05,0.0002,3,17
14409,4e-05,-2e-05,-2e-05,3e-05,6e-05,4e-05,4e-05,0.0002,3,17
14410,4e-05,-2e-05,-2e-05,3e-05,6e-05,4e-05,4e-05,0.0002,3,17
14411,4e-05,-2e-05,-2e-05,3e-05,6e-05,4e-05,4e-05,0.0002,3,17
14412,4e-05,-2e-05,-2e-05,3e-05,6e-05,4e-05,4e-05,0.0002,3,17
14413,0,0.00012,6e-05,5e-05,5e-05,0.00011,-1e-05,-0.00015,3,17
14414,-0.00046,-0.00044,-0.00014,8e-05,0.00018,0.00016,-0.00012,-0.00011,3,17
14415,-0.00046,-0.00044,-0.00014,8e-05,0.00018,0.00016,-0.00012,-0.00011,3,17
14416,-0.00046,-0.00044,-0.00014,8e-05,0.00018,0.00016,-0.00012,-0.00011,3,17
14417,-0.00046,-0.00044,-0.00014,8e-05,0.00018,0.00016,-0.00012,-0.00011,3,17
14418,-0.00046,-0.00044,-0.00014,8e-05,0.00018,0.00016,-0.00012,-0.00011,3,17
14419,-0.00046,-0.00044,-0.00014,8e-05,0.00018,0.00016,-0.00012,-0.00011,3,17
14420,-0.00046,-0.00044,-0.00014,8e-05,0.00018,0.00016,-0.00012,-0.00011,3,17
14421,-0.00046,-0.00044,-0.00014,8e-05,0.00018,0.00016,-0.00012,-0.00011,3,17
14422,-0.00046,-0.00044,-0.00014,8e-05,0.00018,0.00016,-0.00012,-0.00011,3,17
14423,-0.00046,-0.00044,-0.00014,8e-05,0.00018,0.00016,-0.00012,-0.00011,3,17
14424,-0.00046,-0.00044,-0.00014,8e-05,0.00018,0.00016,-0.00012,-0.00011,3,17
14425,-0.00046,-0.00044,-0.00014,8e-05,0.00018,0.00016,-0.00012,-0.00011,3,17
14426,-0.00046,-0.00044,-0.00014,8e-05,0.00018,0.00016,-0.00012,-0.00011,3,17
14427,-0.00046,-0.00044,-0.00014,8e-05,0.00018,0.00016,-0.00012,-0.00011,3,17
14428,-0.00046,-0.00044,-0.00014,8e-05,0.00018,0.00016,-0.00012,-0.00011,3,17
14429,-0.00046,-0.00044,-0.00014,8e-05,0.00018,0.00016,-0.00012,-0.00011,3,17
14430,-0.00046,-0.00044,-0.00014,8e-05,0.00018,0.00016,-0.00012,-0.00011,3,17
14431,-0.00046,-0.00044,-0.00014,8e-05,0.00018,0.00016,-0.00012,-0.00011,3,17
14432,-0.00046,-0.00044,-0.00014,8e-05,0.00018,0.00016,-0.00012,-0.00011,3,17
14433,-0.00046,-0.00044,-0.00014,8e-05,0.00018,0.00016,-0.00012,-0.00011,3,17
14434,-0.00046,-0.00044,-0.00014,8e-05,0.00018,0.00016,-0.00012,-0.00011,3,17
14435,0.00011,0.00025,-2e-05,-7e-05,-0.00013,-0.00021,-6e-05,-0.00028,3,17
14436,-0.00019,-0.00031,-0.00013,3e-05,7e-05,0.0002,6e-05,-9e-05,3,17
14438,0.00034,0.00029,1e-05,-6e-05,-0.00019,-8e-05,-5e-05,2e-05,3,17
14439,0.00034,0.00029,1e-05,-6e-05,-0.00019,-8e-05,-5e-05,2e-05,3,17
14440,0.00034,0.00029,1e-05,-6e-05,-0.00019,-8e-05,-5e-05,2e-05,3,17
14441,0.00034,0.00029,1e-05,-6e-05,-0.00019,-8e-05,-5e-05,2e-05,3,17
14442,0.00034,0.00029,1e-05,-6e-05,-0.00019,-8e-05,-5e-05,2e-05,3,17
14443,6e-05,0.00012,0,-5e-05,7e-05,-0.00018,-7e-05,-9e-05,3,17
14444,6e-05,0.00012,0,-5e-05,7e-05,-0.00018,-7e-05,-9e-05,3,17
14445,0.00025,0.00029,5e-05,3e-05,-0.0001,-0.00024,-2e-05,-0.00014,3,17
14446,0.00025,0.00029,5e-05,3e-05,-0.0001,-0.00024,-2e-05,-0.00014,3,17
14447,0.00025,0.00029,5e-05,3e-05,-0.0001,-0.00024,-2e-05,-0.00014,3,17
14448,0.00025,0.00029,5e-05,3e-05,-0.0001,-0.00024,-2e-05,-0.00014,3,17
14449,0.00025,0.00029,5e-05,3e-05,-0.0001,-0.00024,-2e-05,-0.00014,3,17
14450,0.00025,0.00029,5e-05,3e-05,-0.0001,-0.00024,-2e-05,-0.00014,3,17
14451,0.00025,0.00029,5e-05,3e-05,-0.0001,-0.00024,-2e-05,-0.00014,3,17
14452,0.00025,0.00029,5e-05,3e-05,-0.0001,-0.00024,-2e-05,-0.00014,3,17
14453,0.00025,0.00029,5e-05,3e-05,-0.0001,-0.00024,-2e-05,-0.00014,3,17
14454,0.00025,0.00029,5e-05,3e-05,-0.0001,-0.00024,-2e-05,-0.00014,3,17
14455,0.00025,0.00029,5e-05,3e-05,-0.0001,-0.00024,-2e-05,-0.00014,3,17
14456,0.00025,0.00029,5e-05,3e-05,-0.0001,-0.00024,-2e-05,-0.00014,3,17
14457,0.00025,0.00029,5e-05,3e-05,-0.0001,-0.00024,-2e-05,-0.00014,3,17
14458,0.00025,0.00029,5e-05,3e-05,-0.0001,-0.00024,-2e-05,-0.00014,3,17
14459,0.00025,0.00029,5e-05,3e-05,-0.0001,-0.00024,-2e-05,-0.00014,3,17
14460,0.00025,0.00029,5e-05,3e-05,-0.0001,-0.00024,-2e-05,-0.00014,3,17
14461,0.00025,0.00029,5e-05,3e-05,-0.0001,-0.00024,-2e-05,-0.00014,3,17
14462,0.00025,0.00029,5e-05,3e-05,-0.0001,-0.00024,-2e-05,-0.00014,3,17
14463,0.00025,0.00029,5e-05,3e-05,-0.0001,-0.00024,-2e-05,-0.00014,3,17
14464,0.00025,0.00029,5e-05,3e-05,-0.0001,-0.00024,-2e-05,-0.00014,3,17
14465,6e-05,9e-05,8e-05,2e-05,-0.00011,-1e-05,0,9e-05,3,17
14466,6e-05,9e-05,8e-05,2e-05,-0.00011,-1e-05,0,9e-05,3,17
14467,-2e-05,2e-05,-2e-05,-7e-05,0,6e-05,0.00013,8e-05,3,17
14468,-2e-05,2e-05,-2e-05,-7e-05,0,6e-05,0.00013,8e-05,3,17
14469,-2e-05,2e-05,-2e-05,-7e-05,0,6e-05,0.00013,8e-05,3,17
14470,-2e-05,2e-05,-2e-05,-7e-05,0,6e-05,0.00013,8e-05,3,17
14471,-2e-05,2e-05,-2e-05,-7e-05,0,6e-05,0.00013,8e-05,3,17
14472,-2e-05,2e-05,-2e-05,-7e-05,0,6e-05,0.00013,8e-05,3,17
14473,-2e-05,2e-05,-2e-05,-7e-05,0,6e-05,0.00013,8e-05,3,17
14474,-2e-05,2e-05,-2e-05,-7e-05,0,6e-05,0.00013,8e-05,3,17
14475,-2e-05,2e-05,-2e-05,-7e-05,0,6e-05,0.00013,8e-05,3,17
14476,-2e-05,2e-05,-2e-05,-7e-05,0,6e-05,0.00013,8e-05,3,17
14477,-2e-05,2e-05,-2e-05,-7e-05,0,6e-05,0.00013,8e-05,3,17
14478,-2e-05,2e-05,-2e-05,-7e-05,0,6e-05,0.00013,8e-05,3,17
14479,0.0001,-5e-05,-5e-05,-5e-05,-5e-05,4e-05,7e-05,0.00011,3,17
14480,0.0001,-5e-05,-5e-05,-5e-05,-5e-05,4e-05,7e-05,0.00011,3,17
14481,0.0001,-5e-05,-5e-05,-5e-05,-5e-05,4e-05,7e-05,0.00011,3,17
14482,0.0001,-5e-05,-5e-05,-5e-05,-5e-05,4e-05,7e-05,0.00011,3,17
14483,0.0001,-5e-05,-5e-05,-5e-05,-5e-05,4e-05,7e-05,0.00011,3,17
14484,0.0001,-5e-05,-5e-05,-5e-05,-5e-05,4e-05,7e-05,0.00011,3,17
14485,0.0001,-5e-05,-5e-05,-5e-05,-5e-05,4e-05,7e-05,0.00011,3,17
14486,0.0001,-5e-05,-5e-05,-5e-05,-5e-05,4e-05,7e-05,0.00011,3,17
14489,0,0.00011,2e-05,1e-05,0.00016,-0.00015,-2e-05,-5e-05,3,17
14490,0,0.00011,2e-05,1e-05,0.00016,-0.00015,-2e-05,-5e-05,3,17
14491,0,0.00011,2e-05,1e-05,0.00016,-0.00015,-2e-05,-5e-05,3,17
14492,0,0.00011,2e-05,1e-05,0.00016,-0.00015,-2e-05,-5e-05,3,17
14493,0,0.00011,2e-05,1e-05,0.00016,-0.00015,-2e-05,-5e-05,3,17
14494,0,0.00011,2e-05,1e-05,0.00016,-0.00015,-2e-05,-5e-05,3,17
14495,0,0.00011,2e-05,1e-05,0.00016,-0.00015,-2e-05,-5e-05,3,17
14496,0,0.00011,2e-05,1e-05,0.00016,-0.00015,-2e-05,-5e-05,3,17
14497,0,0.00011,2e-05,1e-05,0.00016,-0.00015,-2e-05,-5e-05,3,17
14498,0,0.00011,2e-05,1e-05,0.00016,-0.00015,-2e-05,-5e-05,3,17
14499,0,0.00011,2e-05,1e-05,0.00016,-0.00015,-2e-05,-5e-05,3,17
14500,0,0.00011,2e-05,1e-05,0.00016,-0.00015,-2e-05,-5e-05,3,17
14501,0,0.00011,2e-05,1e-05,0.00016,-0.00015,-2e-05,-5e-05,3,17
14502,0,0.00011,2e-05,1e-05,0.00016,-0.00015,-2e-05,-5e-05,3,17
14503,-1e-05,-3e-05,-8e-05,3e-05,0.00011,-3e-05,4e-05,-1e-05,3,17
14504,0.00015,0.00013,6e-05,-5e-05,-0.00013,-0.00015,-7e-05,0.0001,3,17
14505,0.00015,0.00013,6e-05,-5e-05,-0.00013,-0.00015,-7e-05,0.0001,3,17
14506,0.00015,0.00013,6e-05,-5e-05,-0.00013,-0.00015,-7e-05,0.0001,3,17
14507,0.00015,0.00013,6e-05,-5e-05,-0.00013,-0.00015,-7e-05,0.0001,3,17
14508,0.00015,0.00013,6e-05,-5e-05,-0.00013,-0.00015,-7e-05,0.0001,3,17
14509,0.00015,0.00013,6e-05,-5e-05,-0.00013,-0.00015,-7e-05,0.0001,3,17
14510,0.00015,0.00013,6e-05,-5e-05,-0.00013,-0.00015,-7e-05,0.0001,3,17
14511,0.00015,0.00013,6e-05,-5e-05,-0.00013,-0.00015,-7e-05,0.0001,3,17
14512,0.00015,0.00013,6e-05,-5e-05,-0.00013,-0.00015,-7e-05,0.0001,3,17
14513,0.00015,0.00013,6e-05,-5e-05,-0.00013,-0.00015,-7e-05,0.0001,3,17
14514,0.00015,0.00013,6e-05,-5e-05,-0.00013,-0.00015,-7e-05,0.0001,3,17
14515,0.00015,0.00013,6e-05,-5e-05,-0.00013,-0.00015,-7e-05,0.0001,3,17
14516,0.00015,0.00013,6e-05,-5e-05,-0.00013,-0.00015,-7e-05,0.0001,3,17
14517,0.00015,0.00013,6e-05,-5e-05,-0.00013,-0.00015,-7e-05,0.0001,3,17
14518,0.00015,0.00013,6e-05,-5e-05,-0.00013,-0.00015,-7e-05,0.0001,3,17
14519,0.00015,0.00013,6e-05,-5e-05,-0.00013,-0.00015,-7e-05,0.0001,3,17
14520,0.00015,0.00013,6e-05,-5e-05,-0.00013,-0.00015,-7e-05,0.0001,3,17
14521,0.00015,0.00013,6e-05,-5e-05,-0.00013,-0.00015,-7e-05,0.0001,3,17
14522,0.00015,0.00013,6e-05,-5e-05,-0.00013,-0.00015,-7e-05,0.0001,3,17
14523,0.00015,0.00013,6e-05,-5e-05,-0.00013,-0.00015,-7e-05,0.0001,3,17
14524,0.00015,0.00013,6e-05,-5e-05,-0.00013,-0.00015,-7e-05,0.0001,3,17
14525,1e-05,-9e-05,-1e-05,0,-3e-05,-0.00017,-6e-05,6e-05,3,17
14526,1e-05,-9e-05,-1e-05,0,-3e-05,-0.00017,-6e-05,6e-05,3,17
14527,-7e-05,0,2e-05,4e-05,-4e-05,-4e-05,0.00012,0.00012,3,17
14528,-7e-05,0,2e-05,4e-05,-4e-05,-4e-05,0.00012,0.00012,3,17
14529,-7e-05,0,2e-05,4e-05,-4e-05,-4e-05,0.00012,0.00012,3,17
14530,-7e-05,0,2e-05,4e-05,-4e-05,-4e-05,0.00012,0.00012,3,17
14531,-7e-05,0,2e-05,4e-05,-4e-05,-4e-05,0.00012,0.00012,3,17
14532,-7e-05,0,2e-05,4e-05,-4e-05,-4e-05,0.00012,0.00012,3,17
14533,-7e-05,0,2e-05,4e-05,-4e-05,-4e-05,0.00012,0.00012,3,17
14534,-7e-05,0,2e-05,4e-05,-4e-05,-4e-05,0.00012,0.00012,3,17
14535,-7e-05,0,2e-05,4e-05,-4e-05,-4e-05,0.00012,0.00012,3,17
14536,-7e-05,0,2e-05,4e-05,-4e-05,-4e-05,0.00012,0.00012,3,17
14538,-7e-05,0,2e-05,4e-05,-4e-05,-4e-05,0.00012,0.00012,3,17
14539,7e-05,-3e-05,-0.00011,-5e-05,-0.00017,-0.0001,-6e-05,-5e-05,3,17
14540,7e-05,-3e-05,-0.00011,-5e-05,-0.00017,-0.0001,-6e-05,-5e-05,3,17
14541,7e-05,-3e-05,-0.00011,-5e-05,-0.00017,-0.0001,-6e-05,-5e-05,3,17
14542,7e-05,-3e-05,-0.00011,-5e-05,-0.00017,-0.0001,-6e-05,-5e-05,3,17
14543,7e-05,-3e-05,-0.00011,-5e-05,-0.00017,-0.0001,-6e-05,-5e-05,3,17
14544,7e-05,-3e-05,-0.00011,-5e-05,-0.00017,-0.0001,-6e-05,-5e-05,3,17
14545,7e-05,-3e-05,-0.00011,-5e-05,-0.00017,-0.0001,-6e-05,-5e-05,3,17
14546,7e-05,-3e-05,-0.00011,-5e-05,-0.00017,-0.0001,-6e-05,-5e-05,3,17
14547,7e-05,-3e-05,-0.00011,-5e-05,-0.00017,-0.0001,-6e-05,-5e-05,3,17
14548,-7e-05,-6e-05,4e-05,-1e-05,9e-05,1e-05,-7e-05,-9e-05,3,17
14549,-7e-05,-6e-05,4e-05,-1e-05,9e-05,1e-05,-7e-05,-9e-05,3,17
14550,-7e-05,-6e-05,4e-05,-1e-05,9e-05,1e-05,-7e-05,-9e-05,3,17
14551,-7e-05,-6e-05,4e-05,-1e-05,9e-05,1e-05,-7e-05,-9e-05,3,17
14552,-7e-05,-6e-05,4e-05,-1e-05,9e-05,1e-05,-7e-05,-9e-05,3,17
14553,-7e-05,-6e-05,4e-05,-1e-05,9e-05,1e-05,-7e-05,-9e-05,3,17
14554,-7e-05,-6e-05,4e-05,-1e-05,9e-05,1e-05,-7e-05,-9e-05,3,17
14555,-7e-05,-6e-05,4e-05,-1e-05,9e-05,1e-05,-7e-05,-9e-05,3,17
14556,-7e-05,-6e-05,4e-05,-1e-05,9e-05,1e-05,-7e-05,-9e-05,3,17
14557,-7e-05,-6e-05,4e-05,-1e-05,9e-05,1e-05,-7e-05,-9e-05,3,17
14558,-7e-05,-6e-05,4e-05,-1e-05,9e-05,1e-05,-7e-05,-9e-05,3,17
14559,-7e-05,-6e-05,4e-05,-1e-05,9e-05,1e-05,-7e-05,-9e-05,3,17
14560,-7e-05,-6e-05,4e-05,-1e-05,9e-05,1e-05,-7e-05,-9e-05,3,17
14561,-7e-05,-6e-05,4e-05,-1e-05,9e-05,1e-05,-7e-05,-9e-05,3,17
14562,-7e-05,-6e-05,4e-05,-1e-05,9e-05,1e-05,-7e-05,-9e-05,3,17
14563,-0.00013,1e-05,0.0001,8e-05,0.00022,0.00028,-3e-05,-4e-05,3,17
14564,-1e-05,-4e-05,-8e-05,-3e-05,-5e-05,8e-05,5e-05,0.00011,3,17
14565,-1e-05,-4e-05,-8e-05,-3e-05,-5e-05,8e-05,5e-05,0.00011,3,17
14566,-1e-05,-4e-05,-8e-05,-3e-05,-5e-05,8e-05,5e-05,0.00011,3,17
14567,-1e-05,-4e-05,-8e-05,-3e-05,-5e-05,8e-05,5e-05,0.00011,3,17
14568,-1e-05,-4e-05,-8e-05,-3e-05,-5e-05,8e-05,5e-05,0.00011,3,17
14569,-1e-05,-4e-05,-8e-05,-3e-05,-5e-05,8e-05,5e-05,0.00011,3,17
14570,-1e-05,-4e-05,-8e-05,-3e-05,-5e-05,8e-05,5e-05,0.00011,3,17
14571,-1e-05,-4e-05,-8e-05,-3e-05,-5e-05,8e-05,5e-05,0.00011,3,17
14572,-1e-05,-4e-05,-8e-05,-3e-05,-5e-05,8e-05,5e-05,0.00011,3,17
14573,-1e-05,-4e-05,-8e-05,-3e-05,-5e-05,8e-05,5e-05,0.00011,3,17
14574,-1e-05,-4e-05,-8e-05,-3e-05,-5e-05,8e-05,5e-05,0.00011,3,17
14575,-1e-05,-4e-05,-8e-05,-3e-05,-5e-05,8e-05,5e-05,0.00011,3,17
14576,-1e-05,-4e-05,-8e-05,-3e-05,-5e-05,8e-05,5e-05,0.00011,3,17
14577,-1e-05,-4e-05,-8e-05,-3e-05,-5e-05,8e-05,5e-05,0.00011,3,17
14578,-1e-05,-4e-05,-8e-05,-3e-05,-5e-05,8e-05,5e-05,0.00011,3,17
14579,-1e-05,-4e-05,-8e-05,-3e-05,-5e-05,8e-05,5e-05,0.00011,3,17
14580,-1e-05,-4e-05,-8e-05,-3e-05,-5e-05,8e-05,5e-05,0.00011,3,17
14581,-1e-05,-4e-05,-8e-05,-3e-05,-5e-05,8e-05,5e-05,0.00011,3,17
14582,-1e-05,-4e-05,-8e-05,-3e-05,-5e-05,8e-05,5e-05,0.00011,3,17
14583,-1e-05,-4e-05,-8e-05,-3e-05,-5e-05,8e-05,5e-05,0.00011,3,17
14584,-1e-05,-4e-05,-8e-05,-3e-05,-5e-05,8e-05,5e-05,0.00011,3,17
14585,-1e-05,-4e-05,-8e-05,-3e-05,-5e-05,8e-05,5e-05,0.00011,3,17
14586,-1e-05,-4e-05,-8e-05,-3e-05,-5e-05,8e-05,5e-05,0.00011,3,17
14588,-1e-05,-4e-05,-8e-05,-3e-05,-5e-05,8e-05,5e-05,0.00011,3,17
14589,-1e-05,-4e-05,-8e-05,-3e-05,-5e-05,8e-05,5e-05,0.00011,3,17
14590,-1e-05,-4e-05,-8e-05,-3e-05,-5e-05,8e-05,5e-05,0.00011,3,17
14591,-1e-05,-4e-05,-8e-05,-3e-05,-5e-05,8e-05,5e-05,0.00011,3,17
14592,-1e-05,-4e-05,-8e-05,-3e-05,-5e-05,8e-05,5e-05,0.00011,3,17
14593,-1e-05,-4e-05,-8e-05,-3e-05,-5e-05,8e-05,5e-05,0.00011,3,17
14594,-2e-05,-0.00018,5e-05,8e-05,0.00015,0.00029,3e-05,0.00012,3,17
14595,-1e-05,-3e-05,2e-05,1e-05,6e-05,5e-05,0.00016,-0.0001,3,17
14596,-1e-05,-3e-05,2e-05,1e-05,6e-05,5e-05,0.00016,-0.0001,3,17
14597,-1e-05,-3e-05,2e-05,1e-05,6e-05,5e-05,0.00016,-0.0001,3,17
14598,-1e-05,-3e-05,2e-05,1e-05,6e-05,5e-05,0.00016,-0.0001,3,17
14599,-1e-05,-3e-05,2e-05,1e-05,6e-05,5e-05,0.00016,-0.0001,3,17
14600,-1e-05,-3e-05,2e-05,1e-05,6e-05,5e-05,0.00016,-0.0001,3,17
14601,-1e-05,-3e-05,2e-05,1e-05,6e-05,5e-05,0.00016,-0.0001,3,17
14602,-1e-05,-3e-05,2e-05,1e-05,6e-05,5e-05,0.00016,-0.0001,3,17
14603,-1e-05,-3e-05,2e-05,1e-05,6e-05,5e-05,0.00016,-0.0001,3,17
14604,-1e-05,-3e-05,2e-05,1e-05,6e-05,5e-05,0.00016,-0.0001,3,17
14605,-1e-05,-3e-05,2e-05,1e-05,6e-05,5e-05,0.00016,-0.0001,3,17
14606,-1e-05,-3e-05,2e-05,1e-05,6e-05,5e-05,0.00016,-0.0001,3,17
14607,5e-05,-8e-05,-4e-05,-7e-05,-0.00011,-0.00011,0.00013,0.00073,3,17
14608,-5e-05,-2e-05,3e-05,6e-05,-6e-05,0,0,-1e-05,3,17
14609,-5e-05,-2e-05,3e-05,6e-05,-6e-05,0,0,-1e-05,3,17
14610,-5e-05,-2e-05,3e-05,6e-05,-6e-05,0,0,-1e-05,3,17
14611,-5e-05,-2e-05,3e-05,6e-05,-6e-05,0,0,-1e-05,3,17
14612,-5e-05,-2e-05,3e-05,6e-05,-6e-05,0,0,-1e-05,3,17
14613,-5e-05,-2e-05,3e-05,6e-05,-6e-05,0,0,-1e-05,3,17
14614,-5e-05,-2e-05,3e-05,6e-05,-6e-05,0,0,-1e-05,3,17
14615,-5e-05,-2e-05,3e-05,6e-05,-6e-05,0,0,-1e-05,3,17
14616,-5e-05,-2e-05,3e-05,6e-05,-6e-05,0,0,-1e-05,3,17
14617,-5e-05,-2e-05,3e-05,6e-05,-6e-05,0,0,-1e-05,3,17
14618,-5e-05,-2e-05,3e-05,6e-05,-6e-05,0,0,-1e-05,3,17
14619,-5e-05,-2e-05,3e-05,6e-05,-6e-05,0,0,-1e-05,3,17
14620,-5e-05,-2e-05,3e-05,6e-05,-6e-05,0,0,-1e-05,3,17
14622,3e-05,0,1e-05,1e-05,3e-05,-1e-05,-0.00011,-0.00023,3,17
14623,-0.00014,-0.00018,-4e-05,-3e-05,-5e-05,5e-05,-7e-05,0.0001,3,17
14624,-0.00014,-0.00018,-4e-05,-3e-05,-5e-05,5e-05,-7e-05,0.0001,3,17
14625,-0.00014,-0.00018,-4e-05,-3e-05,-5e-05,5e-05,-7e-05,0.0001,3,17
14626,-0.00014,-0.00018,-4e-05,-3e-05,-5e-05,5e-05,-7e-05,0.0001,3,17
14627,-0.00014,-0.00018,-4e-05,-3e-05,-5e-05,5e-05,-7e-05,0.0001,3,17
14628,-0.00014,-0.00018,-4e-05,-3e-05,-5e-05,5e-05,-7e-05,0.0001,3,17
14629,-0.00014,-0.00018,-4e-05,-3e-05,-5e-05,5e-05,-7e-05,0.0001,3,17
14631,-0.00014,-0.00018,-4e-05,-3e-05,-5e-05,5e-05,-7e-05,0.0001,3,17
14632,-0.00014,-0.00018,-4e-05,-3e-05,-5e-05,5e-05,-7e-05,0.0001,3,17
14633,-0.00014,-0.00018,-4e-05,-3e-05,-5e-05,5e-05,-7e-05,0.0001,3,17
14634,-0.00014,-0.00018,-4e-05,-3e-05,-5e-05,5e-05,-7e-05,0.0001,3,17
14635,-0.00014,-0.00018,-4e-05,-3e-05,-5e-05,5e-05,-7e-05,0.0001,3,17
14636,-0.00014,-0.00018,-4e-05,-3e-05,-5e-05,5e-05,-7e-05,0.0001,3,17
14638,-0.00014,-0.00018,-4e-05,-3e-05,-5e-05,5e-05,-7e-05,0.0001,3,17
14639,-0.00014,-0.00018,-4e-05,-3e-05,-5e-05,5e-05,-7e-05,0.0001,3,17
14640,-0.00014,-0.00018,-4e-05,-3e-05,-5e-05,5e-05,-7e-05,0.0001,3,17
14641,-0.00014,-0.00018,-4e-05,-3e-05,-5e-05,5e-05,-7e-05,0.0001,3,17
14642,-0.00014,-0.00018,-4e-05,-3e-05,-5e-05,5e-05,-7e-05,0.0001,3,17
14643,-0.00014,-0.00018,-4e-05,-3e-05,-5e-05,5e-05,-7e-05,0.0001,3,17
14644,-0.00014,-0.00018,-4e-05,-3e-05,-5e-05,5e-05,-7e-05,0.0001,3,17
14645,-7e-05,-0.00011,-5e-05,0,3e-05,3e-05,-1e-05,0.00018,3,17
14646,-7e-05,-0.00011,-5e-05,0,3e-05,3e-05,-1e-05,0.00018,3,17
14647,-7e-05,-0.00011,-5e-05,0,3e-05,3e-05,-1e-05,0.00018,3,17
14648,-7e-05,-0.00011,-5e-05,0,3e-05,3e-05,-1e-05,0.00018,3,17
14649,-7e-05,-0.00011,-5e-05,0,3e-05,3e-05,-1e-05,0.00018,3,17
14650,-7e-05,-0.00011,-5e-05,0,3e-05,3e-05,-1e-05,0.00018,3,17
14651,-7e-05,-0.00011,-5e-05,0,3e-05,3e-05,-1e-05,0.00018,3,17
14652,-7e-05,-0.00011,-5e-05,0,3e-05,3e-05,-1e-05,0.00018,3,17
14653,-7e-05,-0.00011,-5e-05,0,3e-05,3e-05,-1e-05,0.00018,3,17
14654,-7e-05,-0.00011,-5e-05,0,3e-05,3e-05,-1e-05,0.00018,3,17
14655,-7e-05,-0.00011,-5e-05,0,3e-05,3e-05,-1e-05,0.00018,3,17
14656,-7e-05,-0.00011,-5e-05,0,3e-05,3e-05,-1e-05,0.00018,3,17
14657,-7e-05,-0.00011,-5e-05,0,3e-05,3e-05,-1e-05,0.00018,3,17
14658,-7e-05,-0.00011,-5e-05,0,3e-05,3e-05,-1e-05,0.00018,3,17
14659,-7e-05,-0.00011,-5e-05,0,3e-05,3e-05,-1e-05,0.00018,3,17
14660,-7e-05,-0.00011,-5e-05,0,3e-05,3e-05,-1e-05,0.00018,3,17
14661,-7e-05,-0.00011,-5e-05,0,3e-05,3e-05,-1e-05,0.00018,3,17
14662,-7e-05,-0.00011,-5e-05,0,3e-05,3e-05,-1e-05,0.00018,3,17
14663,-7e-05,-0.00011,-5e-05,0,3e-05,3e-05,-1e-05,0.00018,3,17
14664,-7e-05,-0.00011,-5e-05,0,3e-05,3e-05,-1e-05,0.00018,3,17
14665,-7e-05,-0.00011,-5e-05,0,3e-05,3e-05,-1e-05,0.00018,3,17
14666,-7e-05,-0.00011,-5e-05,0,3e-05,3e-05,-1e-05,0.00018,3,17
14667,-7e-05,-0.00011,-5e-05,0,3e-05,3e-05,-1e-05,0.00018,3,17
14668,0.0001,0.00011,0,-7e-05,-9e-05,0,9e-05,4e-05,3,17
14669,0.00015,-0.00011,-5e-05,-8e-05,-0.00012,-4e-05,2e-05,1e-05,3,17
14670,0.00015,-0.00011,-5e-05,-8e-05,-0.00012,-4e-05,2e-05,1e-05,3,17
14671,0.00015,-0.00011,-5e-05,-8e-05,-0.00012,-4e-05,2e-05,1e-05,3,17
14672,0.00015,-0.00011,-5e-05,-8e-05,-0.00012,-4e-05,2e-05,1e-05,3,17
14673,0.00015,-0.00011,-5e-05,-8e-05,-0.00012,-4e-05,2e-05,1e-05,3,17
14674,0.00015,-0.00011,-5e-05,-8e-05,-0.00012,-4e-05,2e-05,1e-05,3,17
14675,0.00015,-0.00011,-5e-05,-8e-05,-0.00012,-4e-05,2e-05,1e-05,3,17
14676,0.00015,-0.00011,-5e-05,-8e-05,-0.00012,-4e-05,2e-05,1e-05,3,17
14677,0.00015,-0.00011,-5e-05,-8e-05,-0.00012,-4e-05,2e-05,1e-05,3,17
14678,0.00015,-0.00011,-5e-05,-8e-05,-0.00012,-4e-05,2e-05,1e-05,3,17
14679,0.00015,-0.00011,-5e-05,-8e-05,-0.00012,-4e-05,2e-05,1e-05,3,17
14680,0.00015,-0.00011,-5e-05,-8e-05,-0.00012,-4e-05,2e-05,1e-05,3,17
14681,0.00015,-0.00011,-5e-05,-8e-05,-0.00012,-4e-05,2e-05,1e-05,3,17
14682,0.00015,-0.00011,-5e-05,-8e-05,-0.00012,-4e-05,2e-05,1e-05,3,17
14683,0.00015,-0.00011,-5e-05,-8e-05,-0.00012,-4e-05,2e-05,1e-05,3,17
14684,0.00015,-0.00011,-5e-05,-8e-05,-0.00012,-4e-05,2e-05,1e-05,3,17
14685,0.00015,-0.00011,-5e-05,-8e-05,-0.00012,-4e-05,2e-05,1e-05,3,17
14686,0.00015,-0.00011,-5e-05,-8e-05,-0.00012,-4e-05,2e-05,1e-05,3,17
14688,0.00015,-0.00011,-5e-05,-8e-05,-0.00012,-4e-05,2e-05,1e-05,3,17
14689,0.00015,-0.00011,-5e-05,-8e-05,-0.00012,-4e-05,2e-05,1e-05,3,17
14690,0.00019,0.00023,7e-05,4e-05,0.00018,9e-05,2e-05,-0.0002,3,17
14691,6e-05,2e-05,-5e-05,-5e-05,-9e-05,-3e-05,-6e-05,7e-05,3,17
14692,6e-05,2e-05,-5e-05,-5e-05,-9e-05,-3e-05,-6e-05,7e-05,3,17
14693,6e-05,2e-05,-5e-05,-5e-05,-9e-05,-3e-05,-6e-05,7e-05,3,17
14694,6e-05,2e-05,-5e-05,-5e-05,-9e-05,-3e-05,-6e-05,7e-05,3,17
14695,6e-05,2e-05,-5e-05,-5e-05,-9e-05,-3e-05,-6e-05,7e-05,3,17
14696,6e-05,2e-05,-5e-05,-5e-05,-9e-05,-3e-05,-6e-05,7e-05,3,17
14698,6e-05,2e-05,-5e-05,-5e-05,-9e-05,-3e-05,-6e-05,7e-05,3,17
14699,6e-05,2e-05,-5e-05,-5e-05,-9e-05,-3e-05,-6e-05,7e-05,3,17
14700,6e-05,2e-05,-5e-05,-5e-05,-9e-05,-3e-05,-6e-05,7e-05,3,17
14701,6e-05,2e-05,-5e-05,-5e-05,-9e-05,-3e-05,-6e-05,7e-05,3,17
14702,6e-05,2e-05,-5e-05,-5e-05,-9e-05,-3e-05,-6e-05,7e-05,3,17
14703,6e-05,2e-05,-5e-05,-5e-05,-9e-05,-3e-05,-6e-05,7e-05,3,17
14704,6e-05,2e-05,-5e-05,-5e-05,-9e-05,-3e-05,-6e-05,7e-05,3,17
14705,6e-05,2e-05,-5e-05,-5e-05,-9e-05,-3e-05,-6e-05,7e-05,3,17
14706,6e-05,2e-05,-5e-05,-5e-05,-9e-05,-3e-05,-6e-05,7e-05,3,17
14707,6e-05,2e-05,-5e-05,-5e-05,-9e-05,-3e-05,-6e-05,7e-05,3,17
14708,6e-05,2e-05,-5e-05,-5e-05,-9e-05,-3e-05,-6e-05,7e-05,3,17
14709,6e-05,2e-05,-5e-05,-5e-05,-9e-05,-3e-05,-6e-05,7e-05,3,17
14710,6e-05,2e-05,-5e-05,-5e-05,-9e-05,-3e-05,-6e-05,7e-05,3,17
14711,6e-05,2e-05,-5e-05,-5e-05,-9e-05,-3e-05,-6e-05,7e-05,3,17
14712,6e-05,2e-05,-5e-05,-5e-05,-9e-05,-3e-05,-6e-05,7e-05,3,17
14713,9e-05,0.00013,7e-05,1e-05,0,-7e-05,0,0.00014,3,17
14714,-5e-05,-0.00019,-4e-05,-6e-05,-0.00014,1e-05,-6e-05,0.00011,3,17
14715,-7e-05,-6e-05,-7e-05,-5e-05,-4e-05,1e-05,-7e-05,-0.00011,3,17
14716,-7e-05,-6e-05,-7e-05,-5e-05,-4e-05,1e-05,-7e-05,-0.00011,3,17
14717,-7e-05,-6e-05,-7e-05,-5e-05,-4e-05,1e-05,-7e-05,-0.00011,3,17
14718,-7e-05,-6e-05,-7e-05,-5e-05,-4e-05,1e-05,-7e-05,-0.00011,3,17
14719,-7e-05,-6e-05,-7e-05,-5e-05,-4e-05,1e-05,-7e-05,-0.00011,3,17
14720,-7e-05,-6e-05,-7e-05,-5e-05,-4e-05,1e-05,-7e-05,-0.00011,3,17
14721,-7e-05,-6e-05,-7e-05,-5e-05,-4e-05,1e-05,-7e-05,-0.00011,3,17
14722,-7e-05,-6e-05,-7e-05,-5e-05,-4e-05,1e-05,-7e-05,-0.00011,3,17
14723,-7e-05,-6e-05,-7e-05,-5e-05,-4e-05,1e-05,-7e-05,-0.00011,3,17
14724,-7e-05,-6e-05,-7e-05,-5e-05,-4e-05,1e-05,-7e-05,-0.00011,3,17
14725,-7e-05,-6e-05,-7e-05,-5e-05,-4e-05,1e-05,-7e-05,-0.00011,3,17
14726,-7e-05,-6e-05,-7e-05,-5e-05,-4e-05,1e-05,-7e-05,-0.00011,3,17
14727,-7e-05,-6e-05,-7e-05,-5e-05,-4e-05,1e-05,-7e-05,-0.00011,3,17
14728,-7e-05,-6e-05,-7e-05,-5e-05,-4e-05,1e-05,-7e-05,-0.00011,3,17
14729,-7e-05,-6e-05,-7e-05,-5e-05,-4e-05,1e-05,-7e-05,-0.00011,3,17
14730,-7e-05,-6e-05,-7e-05,-5e-05,-4e-05,1e-05,-7e-05,-0.00011,3,17
14731,-7e-05,-6e-05,-7e-05,-5e-05,-4e-05,1e-05,-7e-05,-0.00011,3,17
14732,-7e-05,-6e-05,-7e-05,-5e-05,-4e-05,1e-05,-7e-05,-0.00011,3,17
14733,-7e-05,-6e-05,-7e-05,-5e-05,-4e-05,1e-05,-7e-05,-0.00011,3,17
14734,-7e-05,-6e-05,-7e-05,-5e-05,-4e-05,1e-05,-7e-05,-0.00011,3,17
14735,2e-05,0.00017,8e-05,4e-05,-4e-05,-1e-05,-0.00011,-0.00013,3,17
14736,-2e-05,2e-05,9e-05,-2e-05,-6e-05,-9e-05,-2e-05,6e-05,3,17
14738,-2e-05,2e-05,9e-05,-2e-05,-6e-05,-9e-05,-2e-05,6e-05,3,17
14739,-2e-05,2e-05,9e-05,-2e-05,-6e-05,-9e-05,-2e-05,6e-05,3,17
14740,-2e-05,2e-05,9e-05,-2e-05,-6e-05,-9e-05,-2e-05,6e-05,3,17
14741,-2e-05,2e-05,9e-05,-2e-05,-6e-05,-9e-05,-2e-05,6e-05,3,17
14742,-0.00045,-0.00034,-8e-05,2e-05,7e-05,-3e-05,-8e-05,-0.00021,3,17
14743,0.0001,7e-05,6e-05,0.00012,0.00025,6e-05,5e-05,0.00036,3,17
14744,0.0001,7e-05,6e-05,0.00012,0.00025,6e-05,5e-05,0.00036,3,17
14745,0.0001,7e-05,6e-05,0.00012,0.00025,6e-05,5e-05,0.00036,3,17
14746,0.0001,7e-05,6e-05,0.00012,0.00025,6e-05,5e-05,0.00036,3,17
14747,0.0001,7e-05,6e-05,0.00012,0.00025,6e-05,5e-05,0.00036,3,17
14748,0.0001,7e-05,6e-05,0.00012,0.00025,6e-05,5e-05,0.00036,3,17
14749,0.0001,7e-05,6e-05,0.00012,0.00025,6e-05,5e-05,0.00036,3,17
14750,0.0001,7e-05,6e-05,0.00012,0.00025,6e-05,5e-05,0.00036,3,17
14751,0.0001,7e-05,6e-05,0.00012,0.00025,6e-05,5e-05,0.00036,3,17
14752,0.0001,7e-05,6e-05,0.00012,0.00025,6e-05,5e-05,0.00036,3,17
14753,0.0001,7e-05,6e-05,0.00012,0.00025,6e-05,5e-05,0.00036,3,17
14754,0.0001,7e-05,6e-05,0.00012,0.00025,6e-05,5e-05,0.00036,3,17
14755,0.0001,7e-05,6e-05,0.00012,0.00025,6e-05,5e-05,0.00036,3,17
14756,0.0001,7e-05,6e-05,0.00012,0.00025,6e-05,5e-05,0.00036,3,17
14757,0.0001,7e-05,6e-05,0.00012,0.00025,6e-05,5e-05,0.00036,3,17
14758,0.0001,7e-05,6e-05,0.00012,0.00025,6e-05,5e-05,0.00036,3,17
14759,0.0001,7e-05,6e-05,0.00012,0.00025,6e-05,5e-05,0.00036,3,17
14760,0.0001,7e-05,6e-05,0.00012,0.00025,6e-05,5e-05,0.00036,3,17
14761,0.0001,7e-05,6e-05,0.00012,0.00025,6e-05,5e-05,0.00036,3,17
14762,0.0001,7e-05,6e-05,0.00012,0.00025,6e-05,5e-05,0.00036,3,17
14763,0.0001,7e-05,6e-05,0.00012,0.00025,6e-05,5e-05,0.00036,3,17
14764,0.0001,7e-05,6e-05,0.00012,0.00025,6e-05,5e-05,0.00036,3,17
14765,-1e-05,-2e-05,-2e-05,-3e-05,-9e-05,-5e-05,4e-05,0.0002,3,17
14766,-0.00012,5e-05,-4e-05,-0.00012,-0.00021,-0.00027,-0.00011,-0.00027,3,17
14767,-0.00012,5e-05,-4e-05,-0.00012,-0.00021,-0.00027,-0.00011,-0.00027,3,17
14768,-0.00012,5e-05,-4e-05,-0.00012,-0.00021,-0.00027,-0.00011,-0.00027,3,17
14769,-0.00012,5e-05,-4e-05,-0.00012,-0.00021,-0.00027,-0.00011,-0.00027,3,17
14770,-0.00012,5e-05,-4e-05,-0.00012,-0.00021,-0.00027,-0.00011,-0.00027,3,17
14771,-0.00012,5e-05,-4e-05,-0.00012,-0.00021,-0.00027,-0.00011,-0.00027,3,17
14772,-0.00012,5e-05,-4e-05,-0.00012,-0.00021,-0.00027,-0.00011,-0.00027,3,17
14773,-0.00012,5e-05,-4e-05,-0.00012,-0.00021,-0.00027,-0.00011,-0.00027,3,17
14774,-0.00012,5e-05,-4e-05,-0.00012,-0.00021,-0.00027,-0.00011,-0.00027,3,17
14775,-0.00012,5e-05,-4e-05,-0.00012,-0.00021,-0.00027,-0.00011,-0.00027,3,17
14776,-0.00012,5e-05,-4e-05,-0.00012,-0.00021,-0.00027,-0.00011,-0.00027,3,17
14778,-0.00012,5e-05,-4e-05,-0.00012,-0.00021,-0.00027,-0.00011,-0.00027,3,17
14779,-0.00012,5e-05,-4e-05,-0.00012,-0.00021,-0.00027,-0.00011,-0.00027,3,17
14780,-0.00012,5e-05,-4e-05,-0.00012,-0.00021,-0.00027,-0.00011,-0.00027,3,17
14781,-0.00012,5e-05,-4e-05,-0.00012,-0.00021,-0.00027,-0.00011,-0.00027,3,17
14782,-0.00012,5e-05,-4e-05,-0.00012,-0.00021,-0.00027,-0.00011,-0.00027,3,17
14783,-0.00012,5e-05,-4e-05,-0.00012,-0.00021,-0.00027,-0.00011,-0.00027,3,17
14784,-0.00012,5e-05,-4e-05,-0.00012,-0.00021,-0.00027,-0.00011,-0.00027,3,17
14785,-0.00012,5e-05,-4e-05,-0.00012,-0.00021,-0.00027,-0.00011,-0.00027,3,17
14786,-0.00012,5e-05,-4e-05,-0.00012,-0.00021,-0.00027,-0.00011,-0.00027,3,17
14788,0.00022,0.00023,-2e-05,-4e-05,-0.00022,-4e-05,-2e-05,2e-05,3,17
14789,0.00022,0.00023,-2e-05,-4e-05,-0.00022,-4e-05,-2e-05,2e-05,3,17
14790,0.00022,0.00023,-2e-05,-4e-05,-0.00022,-4e-05,-2e-05,2e-05,3,17
14791,0.00022,0.00023,-2e-05,-4e-05,-0.00022,-4e-05,-2e-05,2e-05,3,17
14792,0.00022,0.00023,-2e-05,-4e-05,-0.00022,-4e-05,-2e-05,2e-05,3,17
14793,0.00022,0.00023,-2e-05,-4e-05,-0.00022,-4e-05,-2e-05,2e-05,3,17
14794,0.00022,0.00023,-2e-05,-4e-05,-0.00022,-4e-05,-2e-05,2e-05,3,17
14795,0.00022,0.00023,-2e-05,-4e-05,-0.00022,-4e-05,-2e-05,2e-05,3,17
14796,0.00022,0.00023,-2e-05,-4e-05,-0.00022,-4e-05,-2e-05,2e-05,3,17
14797,0.00022,0.00023,-2e-05,-4e-05,-0.00022,-4e-05,-2e-05,2e-05,3,17
14798,0.00022,0.00023,-2e-05,-4e-05,-0.00022,-4e-05,-2e-05,2e-05,3,17
14799,0.00022,0.00023,-2e-05,-4e-05,-0.00022,-4e-05,-2e-05,2e-05,3,17
14800,0.00022,0.00023,-2e-05,-4e-05,-0.00022,-4e-05,-2e-05,2e-05,3,17
14801,0.00022,0.00023,-2e-05,-4e-05,-0.00022,-4e-05,-2e-05,2e-05,3,17
14802,0.00022,0.00023,-2e-05,-4e-05,-0.00022,-4e-05,-2e-05,2e-05,3,17
14803,-0.00037,-0.00031,-8e-05,-5e-05,4e-05,-0.00014,4e-05,2e-05,3,17
14804,0.00021,0.0002,3e-05,2e-05,0.0001,0.00011,5e-05,-0.00015,3,17
14805,-0.00025,-0.00014,0,5e-05,0.00015,4e-05,-0.00013,-0.00059,3,17
14806,-0.00025,-0.00014,0,5e-05,0.00015,4e-05,-0.00013,-0.00059,3,17
14807,-0.00025,-0.00014,0,5e-05,0.00015,4e-05,-0.00013,-0.00059,3,17
14808,-0.00025,-0.00014,0,5e-05,0.00015,4e-05,-0.00013,-0.00059,3,17
14809,-0.00025,-0.00014,0,5e-05,0.00015,4e-05,-0.00013,-0.00059,3,17
14810,-0.00025,-0.00014,0,5e-05,0.00015,4e-05,-0.00013,-0.00059,3,17
14811,-0.00025,-0.00014,0,5e-05,0.00015,4e-05,-0.00013,-0.00059,3,17
14812,-0.00025,-0.00014,0,5e-05,0.00015,4e-05,-0.00013,-0.00059,3,17
14813,-0.00025,-0.00014,0,5e-05,0.00015,4e-05,-0.00013,-0.00059,3,17
14814,-0.00025,-0.00014,0,5e-05,0.00015,4e-05,-0.00013,-0.00059,3,17
14815,-0.00025,-0.00014,0,5e-05,0.00015,4e-05,-0.00013,-0.00059,3,17
14816,-0.00025,-0.00014,0,5e-05,0.00015,4e-05,-0.00013,-0.00059,3,17
14817,-0.00025,-0.00014,0,5e-05,0.00015,4e-05,-0.00013,-0.00059,3,17
14818,-0.00025,-0.00014,0,5e-05,0.00015,4e-05,-0.00013,-0.00059,3,17
14819,-0.00025,-0.00014,0,5e-05,0.00015,4e-05,-0.00013,-0.00059,3,17
14820,-0.00025,-0.00014,0,5e-05,0.00015,4e-05,-0.00013,-0.00059,3,17
14821,-0.00025,-0.00014,0,5e-05,0.00015,4e-05,-0.00013,-0.00059,3,17
14822,-0.00025,-0.00014,0,5e-05,0.00015,4e-05,-0.00013,-0.00059,3,17
14823,-0.00025,-0.00014,0,5e-05,0.00015,4e-05,-0.00013,-0.00059,3,17
14824,-0.00025,-0.00014,0,5e-05,0.00015,4e-05,-0.00013,-0.00059,3,17
14825,9e-05,8e-05,8e-05,5e-05,7e-05,2e-05,-2e-05,5e-05,3,17
14826,9e-05,8e-05,8e-05,5e-05,7e-05,2e-05,-2e-05,5e-05,3,17
14827,9e-05,8e-05,8e-05,5e-05,7e-05,2e-05,-2e-05,5e-05,3,17
14828,9e-05,8e-05,8e-05,5e-05,7e-05,2e-05,-2e-05,5e-05,3,17
14829,9e-05,8e-05,8e-05,5e-05,7e-05,2e-05,-2e-05,5e-05,3,17
14830,9e-05,8e-05,8e-05,5e-05,7e-05,2e-05,-2e-05,5e-05,3,17
14831,9e-05,8e-05,8e-05,5e-05,7e-05,2e-05,-2e-05,5e-05,3,17
14832,9e-05,8e-05,8e-05,5e-05,7e-05,2e-05,-2e-05,5e-05,3,17
14833,9e-05,8e-05,8e-05,5e-05,7e-05,2e-05,-2e-05,5e-05,3,17
14834,9e-05,8e-05,8e-05,5e-05,7e-05,2e-05,-2e-05,5e-05,3,17
14835,9e-05,8e-05,8e-05,5e-05,7e-05,2e-05,-2e-05,5e-05,3,17
46558,0.00023,0.00015,9e-05,1e-05,-5e-05,-8e-05,5e-05,0.0001,3,17
46559,0.00023,0.00015,9e-05,1e-05,-5e-05,-8e-05,5e-05,0.0001,3,17
46560,0.00023,0.00015,9e-05,1e-05,-5e-05,-8e-05,5e-05,0.0001,3,17
46561,0.00023,0.00015,9e-05,1e-05,-5e-05,-8e-05,5e-05,0.0001,3,17
46562,0.00023,0.00015,9e-05,1e-05,-5e-05,-8e-05,5e-05,0.0001,3,17
46563,0.00023,0.00015,9e-05,1e-05,-5e-05,-8e-05,5e-05,0.0001,3,17
46564,0.00023,0.00015,9e-05,1e-05,-5e-05,-8e-05,5e-05,0.0001,3,17
46565,-0.00017,-0.00025,-0.00019,-4e-05,4e-05,3e-05,0.00014,0.00021,3,17
46566,-0.00016,-7e-05,-2e-05,4e-05,0,3e-05,-6e-05,-0.0001,3,17
46567,-0.00016,-7e-05,-2e-05,4e-05,0,3e-05,-6e-05,-0.0001,3,17
46568,-0.00016,-7e-05,-2e-05,4e-05,0,3e-05,-6e-05,-0.0001,3,17
