10798,-8e-05,-0.00061,-9e-05,-2e-05,-1e-05,2e-05,-2e-05,-0.00065,3,18
10799,-8e-05,-0.00061,-9e-05,-2e-05,-1e-05,2e-05,-2e-05,-0.00065,3,18
10800,-8e-05,-0.00061,-9e-05,-2e-05,-1e-05,2e-05,-2e-05,-0.00065,3,18
10801,-8e-05,-0.00061,-9e-05,-2e-05,-1e-05,2e-05,-2e-05,-0.00065,3,18
10802,-8e-05,-0.00061,-9e-05,-2e-05,-1e-05,2e-05,-2e-05,-0.00065,3,18
10803,-8e-05,-0.00061,-9e-05,-2e-05,-1e-05,2e-05,-2e-05,-0.00065,3,18
10804,-8e-05,-0.00061,-9e-05,-2e-05,-1e-05,2e-05,-2e-05,-0.00065,3,18
10805,-8e-05,-0.00061,-9e-05,-2e-05,-1e-05,2e-05,-2e-05,-0.00065,3,18
10806,-8e-05,-0.00061,-9e-05,-2e-05,-1e-05,2e-05,-2e-05,-0.00065,3,18
10807,-8e-05,-0.00061,-9e-05,-2e-05,-1e-05,2e-05,-2e-05,-0.00065,3,18
10808,0.00049,0.00081,2e-05,-4e-05,-2e-05,-3e-05,-3e-05,-0.00014,3,18
10809,0.00049,0.00081,2e-05,-4e-05,-2e-05,-3e-05,-3e-05,-0.00014,3,18
10810,0.00049,0.00081,2e-05,-4e-05,-2e-05,-3e-05,-3e-05,-0.00014,3,18
10811,0.00049,0.00081,2e-05,-4e-05,-2e-05,-3e-05,-3e-05,-0.00014,3,18
10812,0.00049,0.00081,2e-05,-4e-05,-2e-05,-3e-05,-3e-05,-0.00014,3,18
10813,0.00049,0.00081,2e-05,-4e-05,-2e-05,-3e-05,-3e-05,-0.00014,3,18
10814,0.00049,0.00081,2e-05,-4e-05,-2e-05,-3e-05,-3e-05,-0.00014,3,18
10815,0.00019,-0.00021,-5e-05,-5e-05,-5e-05,-0.0001,3e-05,0.0001,3,18
10816,0.00019,-0.00021,-5e-05,-5e-05,-5e-05,-0.0001,3e-05,0.0001,3,18
10817,0.00017,-0.00033,-0.00012,-6e-05,-2e-05,-0.00013,-0.00018,-0.00079,3,18
10819,0.00017,-0.00033,-0.00012,-6e-05,-2e-05,-0.00013,-0.00018,-0.00079,3,18
10820,0.00017,-0.00033,-0.00012,-6e-05,-2e-05,-0.00013,-0.00018,-0.00079,3,18
10821,0.00017,-0.00033,-0.00012,-6e-05,-2e-05,-0.00013,-0.00018,-0.00079,3,18
10822,0.00017,-0.00033,-0.00012,-6e-05,-2e-05,-0.00013,-0.00018,-0.00079,3,18
10823,0.00017,-0.00033,-0.00012,-6e-05,-2e-05,-0.00013,-0.00018,-0.00079,3,18
10824,0.00017,-0.00033,-0.00012,-6e-05,-2e-05,-0.00013,-0.00018,-0.00079,3,18
10825,0.00017,-0.00033,-0.00012,-6e-05,-2e-05,-0.00013,-0.00018,-0.00079,3,18
10826,0.00017,-0.00033,-0.00012,-6e-05,-2e-05,-0.00013,-0.00018,-0.00079,3,18
10827,0.00017,-0.00033,-0.00012,-6e-05,-2e-05,-0.00013,-0.00018,-0.00079,3,18
10828,0.00017,-0.00033,-0.00012,-6e-05,-2e-05,-0.00013,-0.00018,-0.00079,3,18
10829,0.00017,-0.00033,-0.00012,-6e-05,-2e-05,-0.00013,-0.00018,-0.00079,3,18
10830,0.00017,-0.00033,-0.00012,-6e-05,-2e-05,-0.00013,-0.00018,-0.00079,3,18
10831,0.00017,-0.00033,-0.00012,-6e-05,-2e-05,-0.00013,-0.00018,-0.00079,3,18
10832,0.00017,-0.00033,-0.00012,-6e-05,-2e-05,-0.00013,-0.00018,-0.00079,3,18
10833,0.00017,-0.00033,-0.00012,-6e-05,-2e-05,-0.00013,-0.00018,-0.00079,3,18
10834,0.00017,-0.00033,-0.00012,-6e-05,-2e-05,-0.00013,-0.00018,-0.00079,3,18
10835,0.00017,-0.00033,-0.00012,-6e-05,-2e-05,-0.00013,-0.00018,-0.00079,3,18
10836,0.00017,-0.00033,-0.00012,-6e-05,-2e-05,-0.00013,-0.00018,-0.00079,3,18
10838,0.00017,-3e-05,5e-05,5e-05,3e-05,2e-05,-6e-05,-0.00016,3,18
10839,0.00017,-3e-05,5e-05,5e-05,3e-05,2e-05,-6e-05,-0.00016,3,18
10840,-0.00023,-0.00015,0,3e-05,0,-0.00011,-2e-05,0.00029,3,18
10841,-0.00023,-0.00015,0,3e-05,0,-0.00011,-2e-05,0.00029,3,18
10842,-0.00023,-0.00015,0,3e-05,0,-0.00011,-2e-05,0.00029,3,18
10843,-0.00023,-0.00015,0,3e-05,0,-0.00011,-2e-05,0.00029,3,18
10844,-0.00023,-0.00015,0,3e-05,0,-0.00011,-2e-05,0.00029,3,18
10845,-0.00023,-0.00015,0,3e-05,0,-0.00011,-2e-05,0.00029,3,18
10846,-0.00023,-0.00015,0,3e-05,0,-0.00011,-2e-05,0.00029,3,18
10847,-0.00023,-0.00015,0,3e-05,0,-0.00011,-2e-05,0.00029,3,18
10848,-0.00023,-0.00015,0,3e-05,0,-0.00011,-2e-05,0.00029,3,18
10849,-0.00023,-0.00015,0,3e-05,0,-0.00011,-2e-05,0.00029,3,18
10850,-0.00023,-0.00015,0,3e-05,0,-0.00011,-2e-05,0.00029,3,18
10851,-3e-05,-0.0005,-3e-05,-1e-05,-5e-05,-1e-05,-8e-05,-0.0002,3,18
10852,-3e-05,-0.0005,-3e-05,-1e-05,-5e-05,-1e-05,-8e-05,-0.0002,3,18
10853,-3e-05,-0.0005,-3e-05,-1e-05,-5e-05,-1e-05,-8e-05,-0.0002,3,18
10854,-3e-05,-0.0005,-3e-05,-1e-05,-5e-05,-1e-05,-8e-05,-0.0002,3,18
10855,-3e-05,-0.0005,-3e-05,-1e-05,-5e-05,-1e-05,-8e-05,-0.0002,3,18
10856,-3e-05,-0.0005,-3e-05,-1e-05,-5e-05,-1e-05,-8e-05,-0.0002,3,18
10857,-3e-05,-0.0005,-3e-05,-1e-05,-5e-05,-1e-05,-8e-05,-0.0002,3,18
10858,-3e-05,-0.0005,-3e-05,-1e-05,-5e-05,-1e-05,-8e-05,-0.0002,3,18
10859,-3e-05,-0.0005,-3e-05,-1e-05,-5e-05,-1e-05,-8e-05,-0.0002,3,18
10860,-3e-05,-0.0005,-3e-05,-1e-05,-5e-05,-1e-05,-8e-05,-0.0002,3,18
10861,-3e-05,-0.0005,-3e-05,-1e-05,-5e-05,-1e-05,-8e-05,-0.0002,3,18
10862,-3e-05,-0.0005,-3e-05,-1e-05,-5e-05,-1e-05,-8e-05,-0.0002,3,18
10863,-3e-05,-0.0005,-3e-05,-1e-05,-5e-05,-1e-05,-8e-05,-0.0002,3,18
10864,-3e-05,-0.0005,-3e-05,-1e-05,-5e-05,-1e-05,-8e-05,-0.0002,3,18
10865,-3e-05,-0.0005,-3e-05,-1e-05,-5e-05,-1e-05,-8e-05,-0.0002,3,18
10866,-3e-05,-0.0005,-3e-05,-1e-05,-5e-05,-1e-05,-8e-05,-0.0002,3,18
10867,-3e-05,-0.0005,-3e-05,-1e-05,-5e-05,-1e-05,-8e-05,-0.0002,3,18
10868,-8e-05,-8e-05,1e-05,-2e-05,0,1e-05,7e-05,0.00029,3,18
10869,-8e-05,-8e-05,1e-05,-2e-05,0,1e-05,7e-05,0.00029,3,18
10870,-8e-05,-8e-05,1e-05,-2e-05,0,1e-05,7e-05,0.00029,3,18
10871,-8e-05,-8e-05,1e-05,-2e-05,0,1e-05,7e-05,0.00029,3,18
10872,-8e-05,-8e-05,1e-05,-2e-05,0,1e-05,7e-05,0.00029,3,18
10873,-8e-05,-8e-05,1e-05,-2e-05,0,1e-05,7e-05,0.00029,3,18
10874,-0.00034,-0.00011,-1e-05,0,4e-05,6e-05,3e-05,-0.00064,3,18
10875,-0.00014,0.00033,3e-05,-4e-05,-6e-05,-0.00014,-8e-05,0.0002,3,18
10876,-0.00014,0.00033,3e-05,-4e-05,-6e-05,-0.00014,-8e-05,0.0002,3,18
10877,-0.00014,0.00033,3e-05,-4e-05,-6e-05,-0.00014,-8e-05,0.0002,3,18
10878,-0.00014,0.00033,3e-05,-4e-05,-6e-05,-0.00014,-8e-05,0.0002,3,18
10879,-0.00014,0.00033,3e-05,-4e-05,-6e-05,-0.00014,-8e-05,0.0002,3,18
10880,-0.00014,0.00033,3e-05,-4e-05,-6e-05,-0.00014,-8e-05,0.0002,3,18
10881,4e-05,-0.00016,6e-05,6e-05,1e-05,-2e-05,8e-05,0.00073,3,18
10882,4e-05,-0.00016,6e-05,6e-05,1e-05,-2e-05,8e-05,0.00073,3,18
10883,4e-05,-0.00016,6e-05,6e-05,1e-05,-2e-05,8e-05,0.00073,3,18
10884,4e-05,-0.00016,6e-05,6e-05,1e-05,-2e-05,8e-05,0.00073,3,18
10885,4e-05,-0.00016,6e-05,6e-05,1e-05,-2e-05,8e-05,0.00073,3,18
10886,4e-05,-0.00016,6e-05,6e-05,1e-05,-2e-05,8e-05,0.00073,3,18
10888,4e-05,-0.00016,6e-05,6e-05,1e-05,-2e-05,8e-05,0.00073,3,18
10889,4e-05,-0.00016,6e-05,6e-05,1e-05,-2e-05,8e-05,0.00073,3,18
10890,4e-05,-0.00016,6e-05,6e-05,1e-05,-2e-05,8e-05,0.00073,3,18
10891,4e-05,-0.00016,6e-05,6e-05,1e-05,-2e-05,8e-05,0.00073,3,18
10892,4e-05,-0.00016,6e-05,6e-05,1e-05,-2e-05,8e-05,0.00073,3,18
10893,4e-05,-0.00016,6e-05,6e-05,1e-05,-2e-05,8e-05,0.00073,3,18
10894,4e-05,-0.00016,6e-05,6e-05,1e-05,-2e-05,8e-05,0.00073,3,18
10895,4e-05,-0.00016,6e-05,6e-05,1e-05,-2e-05,8e-05,0.00073,3,18
10896,4e-05,-0.00016,6e-05,6e-05,1e-05,-2e-05,8e-05,0.00073,3,18
10897,4e-05,-0.00016,6e-05,6e-05,1e-05,-2e-05,8e-05,0.00073,3,18
10898,0.00011,0.00026,-5e-05,-5e-05,3e-05,9e-05,5e-05,-0.00027,3,18
10899,0.00011,0.00026,-5e-05,-5e-05,3e-05,9e-05,5e-05,-0.00027,3,18
10900,0.00055,0.0007,0,-2e-05,0,-4e-05,-0.00014,-0.00071,3,18
10901,0.00055,0.0007,0,-2e-05,0,-4e-05,-0.00014,-0.00071,3,18
10902,0.00055,0.0007,0,-2e-05,0,-4e-05,-0.00014,-0.00071,3,18
10903,0.00055,0.0007,0,-2e-05,0,-4e-05,-0.00014,-0.00071,3,18
10904,0.00055,0.0007,0,-2e-05,0,-4e-05,-0.00014,-0.00071,3,18
10905,0.00055,0.0007,0,-2e-05,0,-4e-05,-0.00014,-0.00071,3,18
10906,0.00055,0.0007,0,-2e-05,0,-4e-05,-0.00014,-0.00071,3,18
10907,0.00055,0.0007,0,-2e-05,0,-4e-05,-0.00014,-0.00071,3,18
10908,0.00055,0.0007,0,-2e-05,0,-4e-05,-0.00014,-0.00071,3,18
10909,0.00055,0.0007,0,-2e-05,0,-4e-05,-0.00014,-0.00071,3,18
10910,0.00055,0.0007,0,-2e-05,0,-4e-05,-0.00014,-0.00071,3,18
10911,0.00055,0.0007,0,-2e-05,0,-4e-05,-0.00014,-0.00071,3,18
10913,0.00055,0.0007,0,-2e-05,0,-4e-05,-0.00014,-0.00071,3,18
10914,0.00055,0.0007,0,-2e-05,0,-4e-05,-0.00014,-0.00071,3,18
10915,0.00055,0.0007,0,-2e-05,0,-4e-05,-0.00014,-0.00071,3,18
10916,0.00055,0.0007,0,-2e-05,0,-4e-05,-0.00014,-0.00071,3,18
10917,0.00055,0.0007,0,-2e-05,0,-4e-05,-0.00014,-0.00071,3,18
10918,0.00055,0.0007,0,-2e-05,0,-4e-05,-0.00014,-0.00071,3,18
10919,-0.00015,-7e-05,1e-05,3e-05,-3e-05,-0.00021,-6e-05,-0.00012,3,18
10920,-0.00015,-7e-05,1e-05,3e-05,-3e-05,-0.00021,-6e-05,-0.00012,3,18
10921,-0.00015,-7e-05,1e-05,3e-05,-3e-05,-0.00021,-6e-05,-0.00012,3,18
10922,-0.00015,-7e-05,1e-05,3e-05,-3e-05,-0.00021,-6e-05,-0.00012,3,18
10923,-0.00015,-7e-05,1e-05,3e-05,-3e-05,-0.00021,-6e-05,-0.00012,3,18
10924,-0.00015,-7e-05,1e-05,3e-05,-3e-05,-0.00021,-6e-05,-0.00012,3,18
10925,-0.00015,-7e-05,1e-05,3e-05,-3e-05,-0.00021,-6e-05,-0.00012,3,18
10926,-0.00015,-7e-05,1e-05,3e-05,-3e-05,-0.00021,-6e-05,-0.00012,3,18
10927,-0.00015,-7e-05,1e-05,3e-05,-3e-05,-0.00021,-6e-05,-0.00012,3,18
10928,2e-05,0.00027,0,0,1e-05,2e-05,0.0001,-7e-05,3,18
10929,2e-05,0.00027,0,0,1e-05,2e-05,0.0001,-7e-05,3,18
10930,2e-05,0.00027,0,0,1e-05,2e-05,0.0001,-7e-05,3,18
10931,2e-05,0.00027,0,0,1e-05,2e-05,0.0001,-7e-05,3,18
10932,2e-05,0.00027,0,0,1e-05,2e-05,0.0001,-7e-05,3,18
10933,2e-05,0.00027,0,0,1e-05,2e-05,0.0001,-7e-05,3,18
10934,2e-05,0.00027,0,0,1e-05,2e-05,0.0001,-7e-05,3,18
10935,1e-05,-0.00039,-0.00011,-4e-05,-1e-05,7e-05,6e-05,0.00021,3,18
10936,1e-05,-0.00039,-0.00011,-4e-05,-1e-05,7e-05,6e-05,0.00021,3,18
10938,-0.00041,0,4e-05,-2e-05,1e-05,-6e-05,0,0.00018,3,18
10939,-0.00041,0,4e-05,-2e-05,1e-05,-6e-05,0,0.00018,3,18
10940,-0.00041,0,4e-05,-2e-05,1e-05,-6e-05,0,0.00018,3,18
10941,-0.00041,0,4e-05,-2e-05,1e-05,-6e-05,0,0.00018,3,18
10942,-0.00041,0,4e-05,-2e-05,1e-05,-6e-05,0,0.00018,3,18
10943,-0.00041,0,4e-05,-2e-05,1e-05,-6e-05,0,0.00018,3,18
10944,-0.00041,0,4e-05,-2e-05,1e-05,-6e-05,0,0.00018,3,18
10945,-0.00041,0,4e-05,-2e-05,1e-05,-6e-05,0,0.00018,3,18
10946,-0.00041,0,4e-05,-2e-05,1e-05,-6e-05,0,0.00018,3,18
10947,-0.00041,0,4e-05,-2e-05,1e-05,-6e-05,0,0.00018,3,18
10948,-0.00041,0,4e-05,-2e-05,1e-05,-6e-05,0,0.00018,3,18
10949,-0.00041,0,4e-05,-2e-05,1e-05,-6e-05,0,0.00018,3,18
10950,-0.00041,0,4e-05,-2e-05,1e-05,-6e-05,0,0.00018,3,18
10951,-0.00041,0,4e-05,-2e-05,1e-05,-6e-05,0,0.00018,3,18
10952,-0.00041,0,4e-05,-2e-05,1e-05,-6e-05,0,0.00018,3,18
10953,-0.00041,0,4e-05,-2e-05,1e-05,-6e-05,0,0.00018,3,18
10954,-0.00041,0,4e-05,-2e-05,1e-05,-6e-05,0,0.00018,3,18
10955,-0.00041,0,4e-05,-2e-05,1e-05,-6e-05,0,0.00018,3,18
10956,-0.00041,0,4e-05,-2e-05,1e-05,-6e-05,0,0.00018,3,18
10957,-0.00041,0,4e-05,-2e-05,1e-05,-6e-05,0,0.00018,3,18
10958,-0.00036,-0.001,-7e-05,0,-1e-05,7e-05,4e-05,-0.00035,3,18
10959,-0.00027,-0.00085,-0.00012,-1e-05,-5e-05,-1e-05,0,0.00034,3,18
10960,-0.00027,-0.00085,-0.00012,-1e-05,-5e-05,-1e-05,0,0.00034,3,18
10961,-0.00027,-0.00085,-0.00012,-1e-05,-5e-05,-1e-05,0,0.00034,3,18
10962,-0.00027,-0.00085,-0.00012,-1e-05,-5e-05,-1e-05,0,0.00034,3,18
10963,-0.00027,-0.00085,-0.00012,-1e-05,-5e-05,-1e-05,0,0.00034,3,18
10964,-0.00027,-0.00085,-0.00012,-1e-05,-5e-05,-1e-05,0,0.00034,3,18
10965,-0.00027,-0.00085,-0.00012,-1e-05,-5e-05,-1e-05,0,0.00034,3,18
10966,-0.00027,-0.00085,-0.00012,-1e-05,-5e-05,-1e-05,0,0.00034,3,18
10967,-0.00027,-0.00085,-0.00012,-1e-05,-5e-05,-1e-05,0,0.00034,3,18
10968,-0.00027,-0.00085,-0.00012,-1e-05,-5e-05,-1e-05,0,0.00034,3,18
10969,-0.00027,-0.00085,-0.00012,-1e-05,-5e-05,-1e-05,0,0.00034,3,18
10970,-0.00027,-0.00085,-0.00012,-1e-05,-5e-05,-1e-05,0,0.00034,3,18
10971,-0.00027,-0.00085,-0.00012,-1e-05,-5e-05,-1e-05,0,0.00034,3,18
10972,-0.00027,-0.00085,-0.00012,-1e-05,-5e-05,-1e-05,0,0.00034,3,18
10973,-0.00027,-0.00085,-0.00012,-1e-05,-5e-05,-1e-05,0,0.00034,3,18
10974,-0.00027,-0.00085,-0.00012,-1e-05,-5e-05,-1e-05,0,0.00034,3,18
10975,-0.00027,-0.00085,-0.00012,-1e-05,-5e-05,-1e-05,0,0.00034,3,18
10976,-0.00027,-0.00085,-0.00012,-1e-05,-5e-05,-1e-05,0,0.00034,3,18
10977,-0.00027,-0.00085,-0.00012,-1e-05,-5e-05,-1e-05,0,0.00034,3,18
10978,-0.00027,-0.00085,-0.00012,-1e-05,-5e-05,-1e-05,0,0.00034,3,18
10979,-0.00027,-0.00085,-0.00012,-1e-05,-5e-05,-1e-05,0,0.00034,3,18
10980,8e-05,-0.00011,-3e-05,-4e-05,-3e-05,-2e-05,0.00018,0.00034,3,18
10981,8e-05,-0.00011,-3e-05,-4e-05,-3e-05,-2e-05,0.00018,0.00034,3,18
10982,8e-05,-0.00011,-3e-05,-4e-05,-3e-05,-2e-05,0.00018,0.00034,3,18
10983,8e-05,-0.00011,-3e-05,-4e-05,-3e-05,-2e-05,0.00018,0.00034,3,18
10984,8e-05,-0.00011,-3e-05,-4e-05,-3e-05,-2e-05,0.00018,0.00034,3,18
10985,8e-05,-0.00011,-3e-05,-4e-05,-3e-05,-2e-05,0.00018,0.00034,3,18
10986,8e-05,-0.00011,-3e-05,-4e-05,-3e-05,-2e-05,0.00018,0.00034,3,18
10988,-0.0001,0.00051,-4e-05,-5e-05,2e-05,0.00013,7e-05,-0.00047,3,18
10989,-0.0001,0.00051,-4e-05,-5e-05,2e-05,0.00013,7e-05,-0.00047,3,18
10990,-0.0001,0.00051,-4e-05,-5e-05,2e-05,0.00013,7e-05,-0.00047,3,18
10991,-0.0001,0.00051,-4e-05,-5e-05,2e-05,0.00013,7e-05,-0.00047,3,18
10992,-0.0001,0.00051,-4e-05,-5e-05,2e-05,0.00013,7e-05,-0.00047,3,18
10993,-0.0001,0.00051,-4e-05,-5e-05,2e-05,0.00013,7e-05,-0.00047,3,18
10994,-0.0001,0.00051,-4e-05,-5e-05,2e-05,0.00013,7e-05,-0.00047,3,18
10995,3e-05,0.00011,5e-05,2e-05,2e-05,-0.00011,-3e-05,-0.00026,3,18
10996,-0.00032,0.00033,4e-05,1e-05,1e-05,3e-05,0,0.00017,3,18
10997,0,0.00055,3e-05,1e-05,1e-05,-0.0001,-2e-05,3e-05,3,18
10998,0,0.00055,3e-05,1e-05,1e-05,-0.0001,-2e-05,3e-05,3,18
10999,0,0.00055,3e-05,1e-05,1e-05,-0.0001,-2e-05,3e-05,3,18
11000,0,0.00055,3e-05,1e-05,1e-05,-0.0001,-2e-05,3e-05,3,18
11001,0,0.00055,3e-05,1e-05,1e-05,-0.0001,-2e-05,3e-05,3,18
11002,0,0.00055,3e-05,1e-05,1e-05,-0.0001,-2e-05,3e-05,3,18
11003,0,0.00055,3e-05,1e-05,1e-05,-0.0001,-2e-05,3e-05,3,18
11004,0,0.00055,3e-05,1e-05,1e-05,-0.0001,-2e-05,3e-05,3,18
11005,0,0.00055,3e-05,1e-05,1e-05,-0.0001,-2e-05,3e-05,3,18
11007,0,0.00055,3e-05,1e-05,1e-05,-0.0001,-2e-05,3e-05,3,18
11008,0,0.00055,3e-05,1e-05,1e-05,-0.0001,-2e-05,3e-05,3,18
11009,0,0.00055,3e-05,1e-05,1e-05,-0.0001,-2e-05,3e-05,3,18
11010,0,0.00055,3e-05,1e-05,1e-05,-0.0001,-2e-05,3e-05,3,18
11011,0,0.00055,3e-05,1e-05,1e-05,-0.0001,-2e-05,3e-05,3,18
11012,0,0.00055,3e-05,1e-05,1e-05,-0.0001,-2e-05,3e-05,3,18
11013,0,0.00055,3e-05,1e-05,1e-05,-0.0001,-2e-05,3e-05,3,18
11014,0,0.00055,3e-05,1e-05,1e-05,-0.0001,-2e-05,3e-05,3,18
11015,0,0.00055,3e-05,1e-05,1e-05,-0.0001,-2e-05,3e-05,3,18
11016,0,0.00055,3e-05,1e-05,1e-05,-0.0001,-2e-05,3e-05,3,18
11017,0,0.00055,3e-05,1e-05,1e-05,-0.0001,-2e-05,3e-05,3,18
11018,-0.00013,0.0001,-2e-05,-1e-05,3e-05,0.00011,-6e-05,-7e-05,3,18
11019,-0.00013,0.0001,-2e-05,-1e-05,3e-05,0.00011,-6e-05,-7e-05,3,18
11020,-0.00013,0.0001,-2e-05,-1e-05,3e-05,0.00011,-6e-05,-7e-05,3,18
11021,-0.00013,0.0001,-2e-05,-1e-05,3e-05,0.00011,-6e-05,-7e-05,3,18
11022,-0.00013,0.0001,-2e-05,-1e-05,3e-05,0.00011,-6e-05,-7e-05,3,18
11023,-0.00013,0.0001,-2e-05,-1e-05,3e-05,0.00011,-6e-05,-7e-05,3,18
11024,0.0001,-0.00034,-4e-05,0,3e-05,-4e-05,-7e-05,0.0003,3,18
11025,0.0001,-0.00034,-4e-05,0,3e-05,-4e-05,-7e-05,0.0003,3,18
11026,0.0001,-0.00034,-4e-05,0,3e-05,-4e-05,-7e-05,0.0003,3,18
11027,0.0001,-0.00034,-4e-05,0,3e-05,-4e-05,-7e-05,0.0003,3,18
11028,0.0001,-0.00034,-4e-05,0,3e-05,-4e-05,-7e-05,0.0003,3,18
11029,0.0001,-0.00034,-4e-05,0,3e-05,-4e-05,-7e-05,0.0003,3,18
11030,0.0001,-0.00034,-4e-05,0,3e-05,-4e-05,-7e-05,0.0003,3,18
11031,0.0001,-0.00034,-4e-05,0,3e-05,-4e-05,-7e-05,0.0003,3,18
11032,0.0001,-0.00034,-4e-05,0,3e-05,-4e-05,-7e-05,0.0003,3,18
11033,0.0001,-0.00034,-4e-05,0,3e-05,-4e-05,-7e-05,0.0003,3,18
11034,0.0001,-0.00034,-4e-05,0,3e-05,-4e-05,-7e-05,0.0003,3,18
11035,0.0001,-0.00034,-4e-05,0,3e-05,-4e-05,-7e-05,0.0003,3,18
11036,0.0001,-0.00034,-4e-05,0,3e-05,-4e-05,-7e-05,0.0003,3,18
11038,0.0001,-0.00034,-4e-05,0,3e-05,-4e-05,-7e-05,0.0003,3,18
11039,0.0001,-0.00034,-4e-05,0,3e-05,-4e-05,-7e-05,0.0003,3,18
11040,0.0001,-0.00034,-4e-05,0,3e-05,-4e-05,-7e-05,0.0003,3,18
11041,0.0001,-0.00034,-4e-05,0,3e-05,-4e-05,-7e-05,0.0003,3,18
11042,0.0001,-0.00034,-4e-05,0,3e-05,-4e-05,-7e-05,0.0003,3,18
11043,0.0001,-0.00034,-4e-05,0,3e-05,-4e-05,-7e-05,0.0003,3,18
11044,0.0001,-0.00034,-4e-05,0,3e-05,-4e-05,-7e-05,0.0003,3,18
11045,0.0001,-0.00034,-4e-05,0,3e-05,-4e-05,-7e-05,0.0003,3,18
11046,0.0001,-0.00034,-4e-05,0,3e-05,-4e-05,-7e-05,0.0003,3,18
11047,0.0001,-0.00034,-4e-05,0,3e-05,-4e-05,-7e-05,0.0003,3,18
11048,9e-05,-2e-05,-4e-05,-2e-05,-2e-05,-5e-05,3e-05,-0.0001,3,18
11049,0.0001,0.00036,1e-05,-2e-05,-2e-05,5e-05,2e-05,9e-05,3,18
11050,0.0001,0.00036,1e-05,-2e-05,-2e-05,5e-05,2e-05,9e-05,3,18
11052,0.0001,0.00036,1e-05,-2e-05,-2e-05,5e-05,2e-05,9e-05,3,18
11053,0.0001,0.00036,1e-05,-2e-05,-2e-05,5e-05,2e-05,9e-05,3,18
11054,0.0001,0.00036,1e-05,-2e-05,-2e-05,5e-05,2e-05,9e-05,3,18
11055,0.00028,0.0004,7e-05,7e-05,2e-05,4e-05,4e-05,-0.00018,3,18
11056,0.00028,0.0004,7e-05,7e-05,2e-05,4e-05,4e-05,-0.00018,3,18
11057,-2e-05,0.00017,1e-05,-1e-05,0,5e-05,-6e-05,-0.00024,3,18
11058,-2e-05,0.00017,1e-05,-1e-05,0,5e-05,-6e-05,-0.00024,3,18
11059,-2e-05,0.00017,1e-05,-1e-05,0,5e-05,-6e-05,-0.00024,3,18
11060,-2e-05,0.00017,1e-05,-1e-05,0,5e-05,-6e-05,-0.00024,3,18
11061,-2e-05,0.00017,1e-05,-1e-05,0,5e-05,-6e-05,-0.00024,3,18
11062,-2e-05,0.00017,1e-05,-1e-05,0,5e-05,-6e-05,-0.00024,3,18
11063,-2e-05,0.00017,1e-05,-1e-05,0,5e-05,-6e-05,-0.00024,3,18
11064,-2e-05,0.00017,1e-05,-1e-05,0,5e-05,-6e-05,-0.00024,3,18
11065,-2e-05,0.00017,1e-05,-1e-05,0,5e-05,-6e-05,-0.00024,3,18
11066,-2e-05,0.00017,1e-05,-1e-05,0,5e-05,-6e-05,-0.00024,3,18
11067,-2e-05,0.00017,1e-05,-1e-05,0,5e-05,-6e-05,-0.00024,3,18
11068,-2e-05,0.00017,1e-05,-1e-05,0,5e-05,-6e-05,-0.00024,3,18
11069,-2e-05,0.00017,1e-05,-1e-05,0,5e-05,-6e-05,-0.00024,3,18
11070,-2e-05,0.00017,1e-05,-1e-05,0,5e-05,-6e-05,-0.00024,3,18
11071,-2e-05,0.00017,1e-05,-1e-05,0,5e-05,-6e-05,-0.00024,3,18
11072,-2e-05,0.00017,1e-05,-1e-05,0,5e-05,-6e-05,-0.00024,3,18
11073,-2e-05,0.00017,1e-05,-1e-05,0,5e-05,-6e-05,-0.00024,3,18
11074,-2e-05,0.00017,1e-05,-1e-05,0,5e-05,-6e-05,-0.00024,3,18
11075,-2e-05,0.00017,1e-05,-1e-05,0,5e-05,-6e-05,-0.00024,3,18
11076,-2e-05,0.00017,1e-05,-1e-05,0,5e-05,-6e-05,-0.00024,3,18
11077,-2e-05,0.00017,1e-05,-1e-05,0,5e-05,-6e-05,-0.00024,3,18
11078,0,-0.00046,-4e-05,-5e-05,-7e-05,-0.00014,4e-05,0.00043,3,18
11079,0,-0.00046,-4e-05,-5e-05,-7e-05,-0.00014,4e-05,0.00043,3,18
11080,8e-05,-6e-05,-1e-05,-1e-05,-2e-05,-3e-05,2e-05,-0.00012,3,18
11081,8e-05,-6e-05,-1e-05,-1e-05,-2e-05,-3e-05,2e-05,-0.00012,3,18
11082,8e-05,-6e-05,-1e-05,-1e-05,-2e-05,-3e-05,2e-05,-0.00012,3,18
11083,8e-05,-6e-05,-1e-05,-1e-05,-2e-05,-3e-05,2e-05,-0.00012,3,18
11084,8e-05,-6e-05,-1e-05,-1e-05,-2e-05,-3e-05,2e-05,-0.00012,3,18
11085,8e-05,-6e-05,-1e-05,-1e-05,-2e-05,-3e-05,2e-05,-0.00012,3,18
11086,8e-05,-6e-05,-1e-05,-1e-05,-2e-05,-3e-05,2e-05,-0.00012,3,18
11088,8e-05,-6e-05,-1e-05,-1e-05,-2e-05,-3e-05,2e-05,-0.00012,3,18
11089,8e-05,-6e-05,-1e-05,-1e-05,-2e-05,-3e-05,2e-05,-0.00012,3,18
11090,8e-05,-6e-05,-1e-05,-1e-05,-2e-05,-3e-05,2e-05,-0.00012,3,18
11091,8e-05,-6e-05,-1e-05,-1e-05,-2e-05,-3e-05,2e-05,-0.00012,3,18
11092,8e-05,-6e-05,-1e-05,-1e-05,-2e-05,-3e-05,2e-05,-0.00012,3,18
11093,8e-05,-6e-05,-1e-05,-1e-05,-2e-05,-3e-05,2e-05,-0.00012,3,18
11094,8e-05,-6e-05,-1e-05,-1e-05,-2e-05,-3e-05,2e-05,-0.00012,3,18
11095,8e-05,-6e-05,-1e-05,-1e-05,-2e-05,-3e-05,2e-05,-0.00012,3,18
11096,8e-05,-6e-05,-1e-05,-1e-05,-2e-05,-3e-05,2e-05,-0.00012,3,18
11097,8e-05,-6e-05,-1e-05,-1e-05,-2e-05,-3e-05,2e-05,-0.00012,3,18
11098,8e-05,-6e-05,-1e-05,-1e-05,-2e-05,-3e-05,2e-05,-0.00012,3,18
11099,8e-05,-6e-05,-1e-05,-1e-05,-2e-05,-3e-05,2e-05,-0.00012,3,18
11100,-0.00041,0.0004,-0.00011,-3e-05,2e-05,-0.00011,-7e-05,0.00013,3,18
11101,-0.00041,0.0004,-0.00011,-3e-05,2e-05,-0.00011,-7e-05,0.00013,3,18
11102,0.00027,-0.00024,0,2e-05,5e-05,-2e-05,1e-05,4e-05,3,18
11103,0.00027,-0.00024,0,2e-05,5e-05,-2e-05,1e-05,4e-05,3,18
11104,0.00027,-0.00024,0,2e-05,5e-05,-2e-05,1e-05,4e-05,3,18
11105,0.00027,-0.00024,0,2e-05,5e-05,-2e-05,1e-05,4e-05,3,18
11106,0.00027,-0.00024,0,2e-05,5e-05,-2e-05,1e-05,4e-05,3,18
11107,0.00027,-0.00024,0,2e-05,5e-05,-2e-05,1e-05,4e-05,3,18
11108,0.00027,-0.00024,0,2e-05,5e-05,-2e-05,1e-05,4e-05,3,18
11109,0.00027,-0.00024,0,2e-05,5e-05,-2e-05,1e-05,4e-05,3,18
11110,0.00027,-0.00024,0,2e-05,5e-05,-2e-05,1e-05,4e-05,3,18
11111,0.00027,-0.00024,0,2e-05,5e-05,-2e-05,1e-05,4e-05,3,18
11112,0.00027,-0.00024,0,2e-05,5e-05,-2e-05,1e-05,4e-05,3,18
11113,0.00027,-0.00024,0,2e-05,5e-05,-2e-05,1e-05,4e-05,3,18
11114,0.00027,-0.00024,0,2e-05,5e-05,-2e-05,1e-05,4e-05,3,18
11115,0.00013,0.00036,1e-05,-6e-05,-3e-05,-0.00015,-0.00015,-0.0002,3,18
11116,0.00013,0.00036,1e-05,-6e-05,-3e-05,-0.00015,-0.00015,-0.0002,3,18
11117,0.00013,0.00036,1e-05,-6e-05,-3e-05,-0.00015,-0.00015,-0.0002,3,18
11118,0.00013,0.00036,1e-05,-6e-05,-3e-05,-0.00015,-0.00015,-0.0002,3,18
11119,0.00013,0.00036,1e-05,-6e-05,-3e-05,-0.00015,-0.00015,-0.0002,3,18
11120,0.00013,0.00036,1e-05,-6e-05,-3e-05,-0.00015,-0.00015,-0.0002,3,18
11121,7e-05,0.00014,4e-05,8e-05,7e-05,0.00039,0.0001,-0.00063,3,18
11123,7e-05,0.00014,4e-05,8e-05,7e-05,0.00039,0.0001,-0.00063,3,18
11124,7e-05,0.00014,4e-05,8e-05,7e-05,0.00039,0.0001,-0.00063,3,18
11125,7e-05,0.00014,4e-05,8e-05,7e-05,0.00039,0.0001,-0.00063,3,18
11126,7e-05,0.00014,4e-05,8e-05,7e-05,0.00039,0.0001,-0.00063,3,18
11127,7e-05,0.00014,4e-05,8e-05,7e-05,0.00039,0.0001,-0.00063,3,18
11128,7e-05,0.00014,4e-05,8e-05,7e-05,0.00039,0.0001,-0.00063,3,18
11129,7e-05,0.00014,4e-05,8e-05,7e-05,0.00039,0.0001,-0.00063,3,18
11130,7e-05,0.00014,4e-05,8e-05,7e-05,0.00039,0.0001,-0.00063,3,18
11131,7e-05,0.00014,4e-05,8e-05,7e-05,0.00039,0.0001,-0.00063,3,18
11132,7e-05,0.00014,4e-05,8e-05,7e-05,0.00039,0.0001,-0.00063,3,18
11133,7e-05,0.00014,4e-05,8e-05,7e-05,0.00039,0.0001,-0.00063,3,18
11134,7e-05,0.00014,4e-05,8e-05,7e-05,0.00039,0.0001,-0.00063,3,18
11135,7e-05,0.00014,4e-05,8e-05,7e-05,0.00039,0.0001,-0.00063,3,18
11136,7e-05,0.00014,4e-05,8e-05,7e-05,0.00039,0.0001,-0.00063,3,18
11138,-0.00022,-0.00028,2e-05,0,-2e-05,-1e-05,-0.00011,-0.00033,3,18
11139,-0.00022,-0.00028,2e-05,0,-2e-05,-1e-05,-0.00011,-0.00033,3,18
11140,4e-05,-4e-05,4e-05,2e-05,-5e-05,-0.00016,-1e-05,0.00041,3,18
11141,4e-05,-4e-05,4e-05,2e-05,-5e-05,-0.00016,-1e-05,0.00041,3,18
11142,4e-05,-4e-05,4e-05,2e-05,-5e-05,-0.00016,-1e-05,0.00041,3,18
11143,4e-05,-4e-05,4e-05,2e-05,-5e-05,-0.00016,-1e-05,0.00041,3,18
11144,4e-05,-4e-05,4e-05,2e-05,-5e-05,-0.00016,-1e-05,0.00041,3,18
11145,4e-05,-4e-05,4e-05,2e-05,-5e-05,-0.00016,-1e-05,0.00041,3,18
11147,4e-05,-4e-05,4e-05,2e-05,-5e-05,-0.00016,-1e-05,0.00041,3,18
11148,4e-05,-4e-05,4e-05,2e-05,-5e-05,-0.00016,-1e-05,0.00041,3,18
11149,4e-05,-4e-05,4e-05,2e-05,-5e-05,-0.00016,-1e-05,0.00041,3,18
11150,4e-05,-4e-05,4e-05,2e-05,-5e-05,-0.00016,-1e-05,0.00041,3,18
11151,4e-05,-4e-05,4e-05,2e-05,-5e-05,-0.00016,-1e-05,0.00041,3,18
11152,4e-05,-4e-05,4e-05,2e-05,-5e-05,-0.00016,-1e-05,0.00041,3,18
11153,4e-05,-4e-05,4e-05,2e-05,-5e-05,-0.00016,-1e-05,0.00041,3,18
11154,4e-05,-4e-05,4e-05,2e-05,-5e-05,-0.00016,-1e-05,0.00041,3,18
11155,4e-05,-4e-05,4e-05,2e-05,-5e-05,-0.00016,-1e-05,0.00041,3,18
11156,4e-05,-4e-05,4e-05,2e-05,-5e-05,-0.00016,-1e-05,0.00041,3,18
11157,4e-05,-4e-05,4e-05,2e-05,-5e-05,-0.00016,-1e-05,0.00041,3,18
11158,4e-05,-4e-05,4e-05,2e-05,-5e-05,-0.00016,-1e-05,0.00041,3,18
11159,-8e-05,0.00044,3e-05,3e-05,-2e-05,1e-05,-2e-05,1e-05,3,18
11160,-8e-05,0.00044,3e-05,3e-05,-2e-05,1e-05,-2e-05,1e-05,3,18
11161,-8e-05,0.00044,3e-05,3e-05,-2e-05,1e-05,-2e-05,1e-05,3,18
11162,-8e-05,0.00044,3e-05,3e-05,-2e-05,1e-05,-2e-05,1e-05,3,18
11163,-8e-05,0.00044,3e-05,3e-05,-2e-05,1e-05,-2e-05,1e-05,3,18
11164,-8e-05,0.00044,3e-05,3e-05,-2e-05,1e-05,-2e-05,1e-05,3,18
11165,-8e-05,0.00044,3e-05,3e-05,-2e-05,1e-05,-2e-05,1e-05,3,18
11166,-8e-05,0.00044,3e-05,3e-05,-2e-05,1e-05,-2e-05,1e-05,3,18
11167,-8e-05,0.00044,3e-05,3e-05,-2e-05,1e-05,-2e-05,1e-05,3,18
11168,-0.0001,6e-05,-4e-05,-4e-05,-1e-05,-7e-05,2e-05,-0.00012,3,18
11169,-0.0001,6e-05,-4e-05,-4e-05,-1e-05,-7e-05,2e-05,-0.00012,3,18
11170,-0.0001,6e-05,-4e-05,-4e-05,-1e-05,-7e-05,2e-05,-0.00012,3,18
11171,-0.0001,6e-05,-4e-05,-4e-05,-1e-05,-7e-05,2e-05,-0.00012,3,18
11172,-0.0001,6e-05,-4e-05,-4e-05,-1e-05,-7e-05,2e-05,-0.00012,3,18
11173,-0.0001,6e-05,-4e-05,-4e-05,-1e-05,-7e-05,2e-05,-0.00012,3,18
11174,-0.0001,6e-05,-4e-05,-4e-05,-1e-05,-7e-05,2e-05,-0.00012,3,18
11175,-0.0001,6e-05,-4e-05,-4e-05,-1e-05,-7e-05,2e-05,-0.00012,3,18
11176,-0.0001,6e-05,-4e-05,-4e-05,-1e-05,-7e-05,2e-05,-0.00012,3,18
11177,-0.0001,6e-05,-4e-05,-4e-05,-1e-05,-7e-05,2e-05,-0.00012,3,18
11178,-0.0001,6e-05,-4e-05,-4e-05,-1e-05,-7e-05,2e-05,-0.00012,3,18
11179,-0.0001,6e-05,-4e-05,-4e-05,-1e-05,-7e-05,2e-05,-0.00012,3,18
11180,-0.0001,6e-05,-4e-05,-4e-05,-1e-05,-7e-05,2e-05,-0.00012,3,18
11181,-0.0001,6e-05,-4e-05,-4e-05,-1e-05,-7e-05,2e-05,-0.00012,3,18
11182,-0.0001,6e-05,-4e-05,-4e-05,-1e-05,-7e-05,2e-05,-0.00012,3,18
11183,-0.0001,6e-05,-4e-05,-4e-05,-1e-05,-7e-05,2e-05,-0.00012,3,18
11184,-0.0001,6e-05,-4e-05,-4e-05,-1e-05,-7e-05,2e-05,-0.00012,3,18
11185,-0.0001,6e-05,-4e-05,-4e-05,-1e-05,-7e-05,2e-05,-0.00012,3,18
11186,-0.0001,6e-05,-4e-05,-4e-05,-1e-05,-7e-05,2e-05,-0.00012,3,18
11188,-0.0001,6e-05,-4e-05,-4e-05,-1e-05,-7e-05,2e-05,-0.00012,3,18
11189,-0.0001,6e-05,-4e-05,-4e-05,-1e-05,-7e-05,2e-05,-0.00012,3,18
11190,-0.0001,6e-05,-4e-05,-4e-05,-1e-05,-7e-05,2e-05,-0.00012,3,18
11191,-0.0001,6e-05,-4e-05,-4e-05,-1e-05,-7e-05,2e-05,-0.00012,3,18
11192,-0.0001,6e-05,-4e-05,-4e-05,-1e-05,-7e-05,2e-05,-0.00012,3,18
11193,-0.0001,6e-05,-4e-05,-4e-05,-1e-05,-7e-05,2e-05,-0.00012,3,18
11195,-0.0001,6e-05,-4e-05,-4e-05,-1e-05,-7e-05,2e-05,-0.00012,3,18
11196,-0.0001,6e-05,-4e-05,-4e-05,-1e-05,-7e-05,2e-05,-0.00012,3,18
11197,-0.0001,6e-05,-4e-05,-4e-05,-1e-05,-7e-05,2e-05,-0.00012,3,18
11198,-0.0001,6e-05,-4e-05,-4e-05,-1e-05,-7e-05,2e-05,-0.00012,3,18
11199,-0.00015,-0.00016,-2e-05,2e-05,9e-05,0.00022,1e-05,5e-05,3,18
11200,-0.00015,-0.00016,-2e-05,2e-05,9e-05,0.00022,1e-05,5e-05,3,18
11201,0.0003,0.00026,5e-05,1e-05,-5e-05,-6e-05,1e-05,-0.00046,3,18
11202,0.0003,0.00026,5e-05,1e-05,-5e-05,-6e-05,1e-05,-0.00046,3,18
11203,0.0003,0.00026,5e-05,1e-05,-5e-05,-6e-05,1e-05,-0.00046,3,18
11204,0.0003,0.00026,5e-05,1e-05,-5e-05,-6e-05,1e-05,-0.00046,3,18
11205,-2e-05,-7e-05,-8e-05,-6e-05,-3e-05,2e-05,-6e-05,-0.00044,3,18
11206,-2e-05,-7e-05,-8e-05,-6e-05,-3e-05,2e-05,-6e-05,-0.00044,3,18
11207,-2e-05,-7e-05,-8e-05,-6e-05,-3e-05,2e-05,-6e-05,-0.00044,3,18
11208,-2e-05,-7e-05,-8e-05,-6e-05,-3e-05,2e-05,-6e-05,-0.00044,3,18
11209,-2e-05,-7e-05,-8e-05,-6e-05,-3e-05,2e-05,-6e-05,-0.00044,3,18
11210,-2e-05,-7e-05,-8e-05,-6e-05,-3e-05,2e-05,-6e-05,-0.00044,3,18
11211,-2e-05,-7e-05,-8e-05,-6e-05,-3e-05,2e-05,-6e-05,-0.00044,3,18
11212,-2e-05,-7e-05,-8e-05,-6e-05,-3e-05,2e-05,-6e-05,-0.00044,3,18
11213,-2e-05,-7e-05,-8e-05,-6e-05,-3e-05,2e-05,-6e-05,-0.00044,3,18
11214,-2e-05,-7e-05,-8e-05,-6e-05,-3e-05,2e-05,-6e-05,-0.00044,3,18
11215,-2e-05,-7e-05,-8e-05,-6e-05,-3e-05,2e-05,-6e-05,-0.00044,3,18
11216,-2e-05,-7e-05,-8e-05,-6e-05,-3e-05,2e-05,-6e-05,-0.00044,3,18
11217,-2e-05,-7e-05,-8e-05,-6e-05,-3e-05,2e-05,-6e-05,-0.00044,3,18
11218,-2e-05,-7e-05,-8e-05,-6e-05,-3e-05,2e-05,-6e-05,-0.00044,3,18
11219,-2e-05,-7e-05,-8e-05,-6e-05,-3e-05,2e-05,-6e-05,-0.00044,3,18
11220,-2e-05,-7e-05,-8e-05,-6e-05,-3e-05,2e-05,-6e-05,-0.00044,3,18
11221,-2e-05,-7e-05,-8e-05,-6e-05,-3e-05,2e-05,-6e-05,-0.00044,3,18
11222,-2e-05,-7e-05,-8e-05,-6e-05,-3e-05,2e-05,-6e-05,-0.00044,3,18
11223,-2e-05,-7e-05,-8e-05,-6e-05,-3e-05,2e-05,-6e-05,-0.00044,3,18
11224,-2e-05,-7e-05,-8e-05,-6e-05,-3e-05,2e-05,-6e-05,-0.00044,3,18
11225,-2e-05,-7e-05,-8e-05,-6e-05,-3e-05,2e-05,-6e-05,-0.00044,3,18
11226,-2e-05,-7e-05,-8e-05,-6e-05,-3e-05,2e-05,-6e-05,-0.00044,3,18
11227,-2e-05,-7e-05,-8e-05,-6e-05,-3e-05,2e-05,-6e-05,-0.00044,3,18
11228,-2e-05,-7e-05,-8e-05,-6e-05,-3e-05,2e-05,-6e-05,-0.00044,3,18
11229,-2e-05,-7e-05,-8e-05,-6e-05,-3e-05,2e-05,-6e-05,-0.00044,3,18
11230,-2e-05,-7e-05,-8e-05,-6e-05,-3e-05,2e-05,-6e-05,-0.00044,3,18
11231,-2e-05,-7e-05,-8e-05,-6e-05,-3e-05,2e-05,-6e-05,-0.00044,3,18
11232,-2e-05,-7e-05,-8e-05,-6e-05,-3e-05,2e-05,-6e-05,-0.00044,3,18
11233,-2e-05,-7e-05,-8e-05,-6e-05,-3e-05,2e-05,-6e-05,-0.00044,3,18
11234,-2e-05,-7e-05,-8e-05,-6e-05,-3e-05,2e-05,-6e-05,-0.00044,3,18
11235,-2e-05,-7e-05,-8e-05,-6e-05,-3e-05,2e-05,-6e-05,-0.00044,3,18
11236,0.00012,-0.00015,-4e-05,1e-05,-1e-05,2e-05,4e-05,0.00025,3,18
11239,1e-05,-0.00027,-4e-05,-4e-05,-7e-05,-6e-05,-5e-05,0.00054,3,18
11240,1e-05,-0.00027,-4e-05,-4e-05,-7e-05,-6e-05,-5e-05,0.00054,3,18
11241,1e-05,-0.00027,-4e-05,-4e-05,-7e-05,-6e-05,-5e-05,0.00054,3,18
11242,1e-05,-0.00027,-4e-05,-4e-05,-7e-05,-6e-05,-5e-05,0.00054,3,18
11243,-0.00015,0.00037,1e-05,-3e-05,-4e-05,-2e-05,-1e-05,-0.00026,3,18
11244,-0.00015,0.00037,1e-05,-3e-05,-4e-05,-2e-05,-1e-05,-0.00026,3,18
11245,-0.00015,0.00037,1e-05,-3e-05,-4e-05,-2e-05,-1e-05,-0.00026,3,18
11246,-0.00015,0.00037,1e-05,-3e-05,-4e-05,-2e-05,-1e-05,-0.00026,3,18
11247,-0.00015,0.00037,1e-05,-3e-05,-4e-05,-2e-05,-1e-05,-0.00026,3,18
11248,-0.00015,0.00037,1e-05,-3e-05,-4e-05,-2e-05,-1e-05,-0.00026,3,18
11249,-0.00015,0.00037,1e-05,-3e-05,-4e-05,-2e-05,-1e-05,-0.00026,3,18
11250,-0.00015,0.00037,1e-05,-3e-05,-4e-05,-2e-05,-1e-05,-0.00026,3,18
11251,-0.00015,0.00037,1e-05,-3e-05,-4e-05,-2e-05,-1e-05,-0.00026,3,18
11252,-0.00015,0.00037,1e-05,-3e-05,-4e-05,-2e-05,-1e-05,-0.00026,3,18
11253,-0.00015,0.00037,1e-05,-3e-05,-4e-05,-2e-05,-1e-05,-0.00026,3,18
11254,-0.00015,0.00037,1e-05,-3e-05,-4e-05,-2e-05,-1e-05,-0.00026,3,18
11255,-0.00015,0.00037,1e-05,-3e-05,-4e-05,-2e-05,-1e-05,-0.00026,3,18
11256,-0.00015,0.00037,1e-05,-3e-05,-4e-05,-2e-05,-1e-05,-0.00026,3,18
11257,-7e-05,-0.00017,3e-05,1e-05,0,-5e-05,2e-05,0.00071,3,18
11258,-7e-05,-0.00017,3e-05,1e-05,0,-5e-05,2e-05,0.00071,3,18
11259,-7e-05,-0.00017,3e-05,1e-05,0,-5e-05,2e-05,0.00071,3,18
11260,-7e-05,-0.00017,3e-05,1e-05,0,-5e-05,2e-05,0.00071,3,18
11261,-7e-05,-0.00017,3e-05,1e-05,0,-5e-05,2e-05,0.00071,3,18
11262,-7e-05,-0.00017,3e-05,1e-05,0,-5e-05,2e-05,0.00071,3,18
11263,-7e-05,-0.00017,3e-05,1e-05,0,-5e-05,2e-05,0.00071,3,18
11264,-7e-05,-0.00017,3e-05,1e-05,0,-5e-05,2e-05,0.00071,3,18
11265,-7e-05,-0.00017,3e-05,1e-05,0,-5e-05,2e-05,0.00071,3,18
11266,1e-05,0.00034,4e-05,3e-05,0,-4e-05,8e-05,0.00065,3,18
11267,1e-05,0.00034,4e-05,3e-05,0,-4e-05,8e-05,0.00065,3,18
11268,1e-05,0.00034,4e-05,3e-05,0,-4e-05,8e-05,0.00065,3,18
11269,1e-05,0.00034,4e-05,3e-05,0,-4e-05,8e-05,0.00065,3,18
11270,1e-05,0.00034,4e-05,3e-05,0,-4e-05,8e-05,0.00065,3,18
11271,1e-05,0.00034,4e-05,3e-05,0,-4e-05,8e-05,0.00065,3,18
11272,1e-05,0.00034,4e-05,3e-05,0,-4e-05,8e-05,0.00065,3,18
11273,1e-05,0.00034,4e-05,3e-05,0,-4e-05,8e-05,0.00065,3,18
11274,1e-05,0.00034,4e-05,3e-05,0,-4e-05,8e-05,0.00065,3,18
11275,1e-05,0.00034,4e-05,3e-05,0,-4e-05,8e-05,0.00065,3,18
11276,1e-05,0.00034,4e-05,3e-05,0,-4e-05,8e-05,0.00065,3,18
11277,1e-05,0.00034,4e-05,3e-05,0,-4e-05,8e-05,0.00065,3,18
11278,1e-05,0.00034,4e-05,3e-05,0,-4e-05,8e-05,0.00065,3,18
11279,1e-05,0.00034,4e-05,3e-05,0,-4e-05,8e-05,0.00065,3,18
11280,0.0001,1e-05,1e-05,2e-05,2e-05,-1e-05,-2e-05,-0.00066,3,18
11281,0.0001,1e-05,1e-05,2e-05,2e-05,-1e-05,-2e-05,-0.00066,3,18
11282,-0.0002,0.00023,2e-05,0,1e-05,-4e-05,0.00017,0.00045,3,18
11283,-0.0002,0.00023,2e-05,0,1e-05,-4e-05,0.00017,0.00045,3,18
11284,-0.0002,0.00023,2e-05,0,1e-05,-4e-05,0.00017,0.00045,3,18
11285,-0.0002,0.00023,2e-05,0,1e-05,-4e-05,0.00017,0.00045,3,18
11287,-0.0002,0.00023,2e-05,0,1e-05,-4e-05,0.00017,0.00045,3,18
11289,-0.0002,0.00023,2e-05,0,1e-05,-4e-05,0.00017,0.00045,3,18
11290,-0.0002,0.00023,2e-05,0,1e-05,-4e-05,0.00017,0.00045,3,18
11291,-0.0002,0.00023,2e-05,0,1e-05,-4e-05,0.00017,0.00045,3,18
11292,-0.0002,0.00023,2e-05,0,1e-05,-4e-05,0.00017,0.00045,3,18
11293,-0.0002,0.00023,2e-05,0,1e-05,-4e-05,0.00017,0.00045,3,18
11294,-0.0002,0.00023,2e-05,0,1e-05,-4e-05,0.00017,0.00045,3,18
11295,0.00024,0.00014,-2e-05,-5e-05,-4e-05,3e-05,-5e-05,0.00024,3,18
11296,0.00024,0.00014,-2e-05,-5e-05,-4e-05,3e-05,-5e-05,0.00024,3,18
11297,0.00024,0.00014,-2e-05,-5e-05,-4e-05,3e-05,-5e-05,0.00024,3,18
11298,0.00024,0.00014,-2e-05,-5e-05,-4e-05,3e-05,-5e-05,0.00024,3,18
11299,0.00024,0.00014,-2e-05,-5e-05,-4e-05,3e-05,-5e-05,0.00024,3,18
11300,0.00024,0.00014,-2e-05,-5e-05,-4e-05,3e-05,-5e-05,0.00024,3,18
11301,5e-05,-0.00019,-4e-05,-2e-05,1e-05,-0.00014,6e-05,0.00064,3,18
11302,5e-05,-0.00019,-4e-05,-2e-05,1e-05,-0.00014,6e-05,0.00064,3,18
11303,5e-05,-0.00019,-4e-05,-2e-05,1e-05,-0.00014,6e-05,0.00064,3,18
11304,5e-05,-0.00019,-4e-05,-2e-05,1e-05,-0.00014,6e-05,0.00064,3,18
11305,5e-05,-0.00019,-4e-05,-2e-05,1e-05,-0.00014,6e-05,0.00064,3,18
11306,5e-05,-0.00019,-4e-05,-2e-05,1e-05,-0.00014,6e-05,0.00064,3,18
11307,5e-05,-0.00019,-4e-05,-2e-05,1e-05,-0.00014,6e-05,0.00064,3,18
11308,5e-05,-0.00019,-4e-05,-2e-05,1e-05,-0.00014,6e-05,0.00064,3,18
11309,5e-05,-0.00019,-4e-05,-2e-05,1e-05,-0.00014,6e-05,0.00064,3,18
11310,5e-05,-0.00019,-4e-05,-2e-05,1e-05,-0.00014,6e-05,0.00064,3,18
11311,5e-05,-0.00019,-4e-05,-2e-05,1e-05,-0.00014,6e-05,0.00064,3,18
11312,5e-05,-0.00019,-4e-05,-2e-05,1e-05,-0.00014,6e-05,0.00064,3,18
11313,5e-05,-0.00019,-4e-05,-2e-05,1e-05,-0.00014,6e-05,0.00064,3,18
11314,5e-05,-0.00019,-4e-05,-2e-05,1e-05,-0.00014,6e-05,0.00064,3,18
11315,5e-05,-0.00019,-4e-05,-2e-05,1e-05,-0.00014,6e-05,0.00064,3,18
11316,5e-05,-0.00019,-4e-05,-2e-05,1e-05,-0.00014,6e-05,0.00064,3,18
11317,5e-05,-0.00019,-4e-05,-2e-05,1e-05,-0.00014,6e-05,0.00064,3,18
11318,-6e-05,0.00022,-1e-05,0,-5e-05,2e-05,-2e-05,0.00017,3,18
11319,-4e-05,-0.00011,-4e-05,-3e-05,0,-0.00014,-0.00012,-0.00041,3,18
11320,9e-05,-8e-05,-3e-05,-2e-05,2e-05,6e-05,-3e-05,0.00011,3,18
11321,9e-05,-8e-05,-3e-05,-2e-05,2e-05,6e-05,-3e-05,0.00011,3,18
11322,9e-05,-8e-05,-3e-05,-2e-05,2e-05,6e-05,-3e-05,0.00011,3,18
11323,9e-05,-8e-05,-3e-05,-2e-05,2e-05,6e-05,-3e-05,0.00011,3,18
11324,9e-05,-8e-05,-3e-05,-2e-05,2e-05,6e-05,-3e-05,0.00011,3,18
11325,9e-05,-8e-05,-3e-05,-2e-05,2e-05,6e-05,-3e-05,0.00011,3,18
11326,9e-05,-8e-05,-3e-05,-2e-05,2e-05,6e-05,-3e-05,0.00011,3,18
11327,9e-05,-8e-05,-3e-05,-2e-05,2e-05,6e-05,-3e-05,0.00011,3,18
11328,9e-05,-8e-05,-3e-05,-2e-05,2e-05,6e-05,-3e-05,0.00011,3,18
11329,9e-05,-8e-05,-3e-05,-2e-05,2e-05,6e-05,-3e-05,0.00011,3,18
11330,9e-05,-8e-05,-3e-05,-2e-05,2e-05,6e-05,-3e-05,0.00011,3,18
11331,9e-05,-8e-05,-3e-05,-2e-05,2e-05,6e-05,-3e-05,0.00011,3,18
11332,9e-05,-8e-05,-3e-05,-2e-05,2e-05,6e-05,-3e-05,0.00011,3,18
11333,9e-05,-8e-05,-3e-05,-2e-05,2e-05,6e-05,-3e-05,0.00011,3,18
11334,9e-05,-8e-05,-3e-05,-2e-05,2e-05,6e-05,-3e-05,0.00011,3,18
11335,9e-05,-8e-05,-3e-05,-2e-05,2e-05,6e-05,-3e-05,0.00011,3,18
11336,9e-05,-8e-05,-3e-05,-2e-05,2e-05,6e-05,-3e-05,0.00011,3,18
11338,9e-05,-8e-05,-3e-05,-2e-05,2e-05,6e-05,-3e-05,0.00011,3,18
11339,9e-05,-8e-05,-3e-05,-2e-05,2e-05,6e-05,-3e-05,0.00011,3,18
11340,-1e-05,-0.00017,-7e-05,-3e-05,-4e-05,-0.00011,-5e-05,0.0003,3,18
11341,-1e-05,-0.00017,-7e-05,-3e-05,-4e-05,-0.00011,-5e-05,0.0003,3,18
11342,-6e-05,-0.00024,-3e-05,-1e-05,-4e-05,9e-05,-0.00015,-0.00052,3,18
11343,-6e-05,-0.00024,-3e-05,-1e-05,-4e-05,9e-05,-0.00015,-0.00052,3,18
11344,-6e-05,-0.00024,-3e-05,-1e-05,-4e-05,9e-05,-0.00015,-0.00052,3,18
11345,-6e-05,-0.00024,-3e-05,-1e-05,-4e-05,9e-05,-0.00015,-0.00052,3,18
11346,-6e-05,-0.00024,-3e-05,-1e-05,-4e-05,9e-05,-0.00015,-0.00052,3,18
11347,-6e-05,-0.00024,-3e-05,-1e-05,-4e-05,9e-05,-0.00015,-0.00052,3,18
11348,-6e-05,-0.00024,-3e-05,-1e-05,-4e-05,9e-05,-0.00015,-0.00052,3,18
11349,-6e-05,-0.00024,-3e-05,-1e-05,-4e-05,9e-05,-0.00015,-0.00052,3,18
11350,-6e-05,-0.00024,-3e-05,-1e-05,-4e-05,9e-05,-0.00015,-0.00052,3,18
11351,-6e-05,-0.00024,-3e-05,-1e-05,-4e-05,9e-05,-0.00015,-0.00052,3,18
11353,-6e-05,-0.00024,-3e-05,-1e-05,-4e-05,9e-05,-0.00015,-0.00052,3,18
11354,5e-05,0.00021,2e-05,-2e-05,-2e-05,-1e-05,-1e-05,3e-05,3,18
11355,5e-05,0.00021,2e-05,-2e-05,-2e-05,-1e-05,-1e-05,3e-05,3,18
11356,5e-05,0.00021,2e-05,-2e-05,-2e-05,-1e-05,-1e-05,3e-05,3,18
11357,5e-05,0.00021,2e-05,-2e-05,-2e-05,-1e-05,-1e-05,3e-05,3,18
11358,5e-05,0.00021,2e-05,-2e-05,-2e-05,-1e-05,-1e-05,3e-05,3,18
11359,5e-05,0.00021,2e-05,-2e-05,-2e-05,-1e-05,-1e-05,3e-05,3,18
11360,5e-05,0.00021,2e-05,-2e-05,-2e-05,-1e-05,-1e-05,3e-05,3,18
11361,0.00029,-0.00045,-6e-05,-1e-05,-6e-05,-0.00025,-0.00013,-0.00046,3,18
11362,0.00029,-0.00045,-6e-05,-1e-05,-6e-05,-0.00025,-0.00013,-0.00046,3,18
11363,0.00029,-0.00045,-6e-05,-1e-05,-6e-05,-0.00025,-0.00013,-0.00046,3,18
11364,0.00029,-0.00045,-6e-05,-1e-05,-6e-05,-0.00025,-0.00013,-0.00046,3,18
11365,0.00029,-0.00045,-6e-05,-1e-05,-6e-05,-0.00025,-0.00013,-0.00046,3,18
11366,0.00029,-0.00045,-6e-05,-1e-05,-6e-05,-0.00025,-0.00013,-0.00046,3,18
11367,0.00029,-0.00045,-6e-05,-1e-05,-6e-05,-0.00025,-0.00013,-0.00046,3,18
11368,0.00029,-0.00045,-6e-05,-1e-05,-6e-05,-0.00025,-0.00013,-0.00046,3,18
11369,0.00029,-0.00045,-6e-05,-1e-05,-6e-05,-0.00025,-0.00013,-0.00046,3,18
11370,0.00029,-0.00045,-6e-05,-1e-05,-6e-05,-0.00025,-0.00013,-0.00046,3,18
11371,0.00029,-0.00045,-6e-05,-1e-05,-6e-05,-0.00025,-0.00013,-0.00046,3,18
11372,0.00029,-0.00045,-6e-05,-1e-05,-6e-05,-0.00025,-0.00013,-0.00046,3,18
11373,0.00029,-0.00045,-6e-05,-1e-05,-6e-05,-0.00025,-0.00013,-0.00046,3,18
11374,0.00029,-0.00045,-6e-05,-1e-05,-6e-05,-0.00025,-0.00013,-0.00046,3,18
11375,0.00029,-0.00045,-6e-05,-1e-05,-6e-05,-0.00025,-0.00013,-0.00046,3,18
11376,0.00029,-0.00045,-6e-05,-1e-05,-6e-05,-0.00025,-0.00013,-0.00046,3,18
11377,0.00029,-0.00045,-6e-05,-1e-05,-6e-05,-0.00025,-0.00013,-0.00046,3,18
11378,0.00029,-0.00045,-6e-05,-1e-05,-6e-05,-0.00025,-0.00013,-0.00046,3,18
11380,0.00029,-0.00045,-6e-05,-1e-05,-6e-05,-0.00025,-0.00013,-0.00046,3,18
11381,0.00029,-0.00045,-6e-05,-1e-05,-6e-05,-0.00025,-0.00013,-0.00046,3,18
11382,0.00029,-0.00045,-6e-05,-1e-05,-6e-05,-0.00025,-0.00013,-0.00046,3,18
11383,0.00029,-0.00045,-6e-05,-1e-05,-6e-05,-0.00025,-0.00013,-0.00046,3,18
11384,0.00029,-0.00045,-6e-05,-1e-05,-6e-05,-0.00025,-0.00013,-0.00046,3,18
11385,0.0001,-0.00011,-4e-05,-6e-05,-3e-05,-9e-05,6e-05,0.00024,3,18
11386,0.0001,-0.00011,-4e-05,-6e-05,-3e-05,-9e-05,6e-05,0.00024,3,18
11388,9e-05,9e-05,1e-05,-1e-05,3e-05,0.00012,-1e-05,0.00057,3,18
11389,9e-05,9e-05,1e-05,-1e-05,3e-05,0.00012,-1e-05,0.00057,3,18
11390,9e-05,9e-05,1e-05,-1e-05,3e-05,0.00012,-1e-05,0.00057,3,18
11391,9e-05,9e-05,1e-05,-1e-05,3e-05,0.00012,-1e-05,0.00057,3,18
11392,9e-05,9e-05,1e-05,-1e-05,3e-05,0.00012,-1e-05,0.00057,3,18
11393,9e-05,9e-05,1e-05,-1e-05,3e-05,0.00012,-1e-05,0.00057,3,18
11394,9e-05,9e-05,1e-05,-1e-05,3e-05,0.00012,-1e-05,0.00057,3,18
11395,9e-05,9e-05,1e-05,-1e-05,3e-05,0.00012,-1e-05,0.00057,3,18
11396,9e-05,9e-05,1e-05,-1e-05,3e-05,0.00012,-1e-05,0.00057,3,18
11397,9e-05,9e-05,1e-05,-1e-05,3e-05,0.00012,-1e-05,0.00057,3,18
11398,9e-05,9e-05,1e-05,-1e-05,3e-05,0.00012,-1e-05,0.00057,3,18
11399,9e-05,9e-05,1e-05,-1e-05,3e-05,0.00012,-1e-05,0.00057,3,18
11400,-0.00019,0.00036,2e-05,3e-05,-2e-05,2e-05,-1e-05,-0.0002,3,18
11401,-0.00019,0.00036,2e-05,3e-05,-2e-05,2e-05,-1e-05,-0.0002,3,18
11402,2e-05,0.00013,1e-05,-2e-05,-5e-05,0.0005,0,-0.00027,3,18
11403,2e-05,0.00013,1e-05,-2e-05,-5e-05,0.0005,0,-0.00027,3,18
11404,2e-05,0.00013,1e-05,-2e-05,-5e-05,0.0005,0,-0.00027,3,18
11405,2e-05,0.00013,1e-05,-2e-05,-5e-05,0.0005,0,-0.00027,3,18
11406,2e-05,0.00013,1e-05,-2e-05,-5e-05,0.0005,0,-0.00027,3,18
11407,2e-05,0.00013,1e-05,-2e-05,-5e-05,0.0005,0,-0.00027,3,18
11408,2e-05,0.00013,1e-05,-2e-05,-5e-05,0.0005,0,-0.00027,3,18
11409,2e-05,0.00013,1e-05,-2e-05,-5e-05,0.0005,0,-0.00027,3,18
11410,2e-05,0.00013,1e-05,-2e-05,-5e-05,0.0005,0,-0.00027,3,18
11411,2e-05,0.00013,1e-05,-2e-05,-5e-05,0.0005,0,-0.00027,3,18
11412,2e-05,0.00013,1e-05,-2e-05,-5e-05,0.0005,0,-0.00027,3,18
11413,2e-05,0.00013,1e-05,-2e-05,-5e-05,0.0005,0,-0.00027,3,18
11414,-5e-05,1e-05,3e-05,2e-05,0,8e-05,7e-05,9e-05,3,18
11415,-5e-05,1e-05,3e-05,2e-05,0,8e-05,7e-05,9e-05,3,18
11416,-5e-05,1e-05,3e-05,2e-05,0,8e-05,7e-05,9e-05,3,18
11417,-5e-05,1e-05,3e-05,2e-05,0,8e-05,7e-05,9e-05,3,18
11418,-5e-05,1e-05,3e-05,2e-05,0,8e-05,7e-05,9e-05,3,18
11419,-5e-05,1e-05,3e-05,2e-05,0,8e-05,7e-05,9e-05,3,18
11420,-5e-05,1e-05,3e-05,2e-05,0,8e-05,7e-05,9e-05,3,18
11421,-5e-05,1e-05,3e-05,2e-05,0,8e-05,7e-05,9e-05,3,18
11422,-5e-05,1e-05,3e-05,2e-05,0,8e-05,7e-05,9e-05,3,18
11423,-0.00018,-0.00068,-8e-05,-2e-05,-1e-05,-5e-05,-2e-05,-5e-05,3,18
11424,-0.00018,-0.00068,-8e-05,-2e-05,-1e-05,-5e-05,-2e-05,-5e-05,3,18
11425,-0.00018,-0.00068,-8e-05,-2e-05,-1e-05,-5e-05,-2e-05,-5e-05,3,18
11426,-0.00018,-0.00068,-8e-05,-2e-05,-1e-05,-5e-05,-2e-05,-5e-05,3,18
11427,-0.00018,-0.00068,-8e-05,-2e-05,-1e-05,-5e-05,-2e-05,-5e-05,3,18
11428,-0.00018,-0.00068,-8e-05,-2e-05,-1e-05,-5e-05,-2e-05,-5e-05,3,18
11429,-0.00018,-0.00068,-8e-05,-2e-05,-1e-05,-5e-05,-2e-05,-5e-05,3,18
11430,-0.00018,-0.00068,-8e-05,-2e-05,-1e-05,-5e-05,-2e-05,-5e-05,3,18
11431,-0.00018,-0.00068,-8e-05,-2e-05,-1e-05,-5e-05,-2e-05,-5e-05,3,18
11432,-0.00018,-0.00068,-8e-05,-2e-05,-1e-05,-5e-05,-2e-05,-5e-05,3,18
11433,-0.00018,-0.00068,-8e-05,-2e-05,-1e-05,-5e-05,-2e-05,-5e-05,3,18
11434,-0.00018,-0.00068,-8e-05,-2e-05,-1e-05,-5e-05,-2e-05,-5e-05,3,18
11435,-0.00018,-0.00068,-8e-05,-2e-05,-1e-05,-5e-05,-2e-05,-5e-05,3,18
11436,-0.00018,-0.00068,-8e-05,-2e-05,-1e-05,-5e-05,-2e-05,-5e-05,3,18
11439,-2e-05,0.00031,0,-2e-05,1e-05,-0.00012,-4e-05,-0.00014,3,18
11440,-2e-05,0.00031,0,-2e-05,1e-05,-0.00012,-4e-05,-0.00014,3,18
11441,-2e-05,0.00031,0,-2e-05,1e-05,-0.00012,-4e-05,-0.00014,3,18
11442,-2e-05,0.00031,0,-2e-05,1e-05,-0.00012,-4e-05,-0.00014,3,18
11443,-2e-05,0.00031,0,-2e-05,1e-05,-0.00012,-4e-05,-0.00014,3,18
11444,-2e-05,0.00031,0,-2e-05,1e-05,-0.00012,-4e-05,-0.00014,3,18
11445,-2e-05,0.00031,0,-2e-05,1e-05,-0.00012,-4e-05,-0.00014,3,18
11446,-2e-05,0.00031,0,-2e-05,1e-05,-0.00012,-4e-05,-0.00014,3,18
11447,-2e-05,0.00031,0,-2e-05,1e-05,-0.00012,-4e-05,-0.00014,3,18
11448,-2e-05,0.00031,0,-2e-05,1e-05,-0.00012,-4e-05,-0.00014,3,18
11449,-2e-05,0.00031,0,-2e-05,1e-05,-0.00012,-4e-05,-0.00014,3,18
11450,-2e-05,0.00031,0,-2e-05,1e-05,-0.00012,-4e-05,-0.00014,3,18
11451,-2e-05,0.00031,0,-2e-05,1e-05,-0.00012,-4e-05,-0.00014,3,18
11452,-2e-05,0.00031,0,-2e-05,1e-05,-0.00012,-4e-05,-0.00014,3,18
11453,-2e-05,0.00031,0,-2e-05,1e-05,-0.00012,-4e-05,-0.00014,3,18
11454,-2e-05,0.00031,0,-2e-05,1e-05,-0.00012,-4e-05,-0.00014,3,18
11455,-2e-05,0.00031,0,-2e-05,1e-05,-0.00012,-4e-05,-0.00014,3,18
11456,-2e-05,0.00031,0,-2e-05,1e-05,-0.00012,-4e-05,-0.00014,3,18
11457,-2e-05,0.00031,0,-2e-05,1e-05,-0.00012,-4e-05,-0.00014,3,18
11458,-2e-05,0.00031,0,-2e-05,1e-05,-0.00012,-4e-05,-0.00014,3,18
11459,-2e-05,0.00031,0,-2e-05,1e-05,-0.00012,-4e-05,-0.00014,3,18
11460,-2e-05,0.00031,0,-2e-05,1e-05,-0.00012,-4e-05,-0.00014,3,18
11461,-2e-05,0.00031,0,-2e-05,1e-05,-0.00012,-4e-05,-0.00014,3,18
11462,-2e-05,0.00031,0,-2e-05,1e-05,-0.00012,-4e-05,-0.00014,3,18
11463,-2e-05,0.00031,0,-2e-05,1e-05,-0.00012,-4e-05,-0.00014,3,18
11464,-2e-05,0.00031,0,-2e-05,1e-05,-0.00012,-4e-05,-0.00014,3,18
11465,-2e-05,0.00031,0,-2e-05,1e-05,-0.00012,-4e-05,-0.00014,3,18
11466,-2e-05,0.00031,0,-2e-05,1e-05,-0.00012,-4e-05,-0.00014,3,18
11467,-0.00028,-4e-05,1e-05,-2e-05,3e-05,0,0.00012,0.00012,3,18
11468,0.00012,-9e-05,1e-05,4e-05,5e-05,0.00032,4e-05,0.00043,3,18
11469,8e-05,0.00026,-3e-05,-3e-05,-3e-05,4e-05,3e-05,-0.00056,3,18
11470,8e-05,0.00026,-3e-05,-3e-05,-3e-05,4e-05,3e-05,-0.00056,3,18
11471,8e-05,0.00026,-3e-05,-3e-05,-3e-05,4e-05,3e-05,-0.00056,3,18
11472,8e-05,0.00026,-3e-05,-3e-05,-3e-05,4e-05,3e-05,-0.00056,3,18
11473,8e-05,0.00026,-3e-05,-3e-05,-3e-05,4e-05,3e-05,-0.00056,3,18
11474,-0.00017,0.0001,-3e-05,-7e-05,-5e-05,-7e-05,-3e-05,-0.00011,3,18
11475,-0.00017,0.0001,-3e-05,-7e-05,-5e-05,-7e-05,-3e-05,-0.00011,3,18
11476,-0.00017,0.0001,-3e-05,-7e-05,-5e-05,-7e-05,-3e-05,-0.00011,3,18
11477,-0.00017,0.0001,-3e-05,-7e-05,-5e-05,-7e-05,-3e-05,-0.00011,3,18
11478,-0.00017,0.0001,-3e-05,-7e-05,-5e-05,-7e-05,-3e-05,-0.00011,3,18
11479,-0.00017,0.0001,-3e-05,-7e-05,-5e-05,-7e-05,-3e-05,-0.00011,3,18
11480,-0.00017,0.0001,-3e-05,-7e-05,-5e-05,-7e-05,-3e-05,-0.00011,3,18
11481,-0.00017,0.0001,-3e-05,-7e-05,-5e-05,-7e-05,-3e-05,-0.00011,3,18
11482,-0.00017,0.0001,-3e-05,-7e-05,-5e-05,-7e-05,-3e-05,-0.00011,3,18
11483,-8e-05,3e-05,2e-05,0,-2e-05,6e-05,0,0.00027,3,18
11484,-8e-05,3e-05,2e-05,0,-2e-05,6e-05,0,0.00027,3,18
11485,-8e-05,3e-05,2e-05,0,-2e-05,6e-05,0,0.00027,3,18
11486,-8e-05,3e-05,2e-05,0,-2e-05,6e-05,0,0.00027,3,18
11488,-8e-05,3e-05,2e-05,0,-2e-05,6e-05,0,0.00027,3,18
11489,-8e-05,3e-05,2e-05,0,-2e-05,6e-05,0,0.00027,3,18
11490,-8e-05,3e-05,2e-05,0,-2e-05,6e-05,0,0.00027,3,18
11491,-8e-05,3e-05,2e-05,0,-2e-05,6e-05,0,0.00027,3,18
11492,-8e-05,3e-05,2e-05,0,-2e-05,6e-05,0,0.00027,3,18
11493,-8e-05,3e-05,2e-05,0,-2e-05,6e-05,0,0.00027,3,18
11494,-8e-05,3e-05,2e-05,0,-2e-05,6e-05,0,0.00027,3,18
11495,-8e-05,3e-05,2e-05,0,-2e-05,6e-05,0,0.00027,3,18
11496,-8e-05,3e-05,2e-05,0,-2e-05,6e-05,0,0.00027,3,18
11497,-8e-05,3e-05,2e-05,0,-2e-05,6e-05,0,0.00027,3,18
11498,8e-05,-0.00065,-6e-05,-1e-05,-4e-05,-8e-05,-3e-05,-0.00019,3,18
11499,8e-05,-0.00065,-6e-05,-1e-05,-4e-05,-8e-05,-3e-05,-0.00019,3,18
11500,-5e-05,4e-05,-1e-05,-4e-05,5e-05,-0.00011,0,0.00019,3,18
11501,-5e-05,4e-05,-1e-05,-4e-05,5e-05,-0.00011,0,0.00019,3,18
11502,-5e-05,4e-05,-1e-05,-4e-05,5e-05,-0.00011,0,0.00019,3,18
11503,-5e-05,4e-05,-1e-05,-4e-05,5e-05,-0.00011,0,0.00019,3,18
11504,-5e-05,4e-05,-1e-05,-4e-05,5e-05,-0.00011,0,0.00019,3,18
11505,-5e-05,4e-05,-1e-05,-4e-05,5e-05,-0.00011,0,0.00019,3,18
11506,-5e-05,4e-05,-1e-05,-4e-05,5e-05,-0.00011,0,0.00019,3,18
11507,-5e-05,4e-05,-1e-05,-4e-05,5e-05,-0.00011,0,0.00019,3,18
11508,-5e-05,4e-05,-1e-05,-4e-05,5e-05,-0.00011,0,0.00019,3,18
11509,-5e-05,4e-05,-1e-05,-4e-05,5e-05,-0.00011,0,0.00019,3,18
11510,-5e-05,4e-05,-1e-05,-4e-05,5e-05,-0.00011,0,0.00019,3,18
11511,-5e-05,4e-05,-1e-05,-4e-05,5e-05,-0.00011,0,0.00019,3,18
11512,-5e-05,4e-05,-1e-05,-4e-05,5e-05,-0.00011,0,0.00019,3,18
11513,-5e-05,4e-05,-1e-05,-4e-05,5e-05,-0.00011,0,0.00019,3,18
11514,-5e-05,4e-05,-1e-05,-4e-05,5e-05,-0.00011,0,0.00019,3,18
11515,-5e-05,4e-05,-1e-05,-4e-05,5e-05,-0.00011,0,0.00019,3,18
11516,-5e-05,4e-05,-1e-05,-4e-05,5e-05,-0.00011,0,0.00019,3,18
11517,-5e-05,4e-05,-1e-05,-4e-05,5e-05,-0.00011,0,0.00019,3,18
11518,-5e-05,4e-05,-1e-05,-4e-05,5e-05,-0.00011,0,0.00019,3,18
11519,-5e-05,4e-05,-1e-05,-4e-05,5e-05,-0.00011,0,0.00019,3,18
11520,-5e-05,4e-05,-1e-05,-4e-05,5e-05,-0.00011,0,0.00019,3,18
11521,-5e-05,4e-05,-1e-05,-4e-05,5e-05,-0.00011,0,0.00019,3,18
11522,-5e-05,4e-05,-1e-05,-4e-05,5e-05,-0.00011,0,0.00019,3,18
11523,-5e-05,4e-05,-1e-05,-4e-05,5e-05,-0.00011,0,0.00019,3,18
11524,-5e-05,4e-05,-1e-05,-4e-05,5e-05,-0.00011,0,0.00019,3,18
11525,-5e-05,4e-05,-1e-05,-4e-05,5e-05,-0.00011,0,0.00019,3,18
11526,-5e-05,4e-05,-1e-05,-4e-05,5e-05,-0.00011,0,0.00019,3,18
11527,-5e-05,4e-05,-1e-05,-4e-05,5e-05,-0.00011,0,0.00019,3,18
11528,-8e-05,0.00018,-1e-05,3e-05,2e-05,-7e-05,-2e-05,7e-05,3,18
11529,-0.00023,2e-05,2e-05,1e-05,-2e-05,-3e-05,5e-05,-8e-05,3,18
11530,-0.00023,2e-05,2e-05,1e-05,-2e-05,-3e-05,5e-05,-8e-05,3,18
11531,-0.00023,2e-05,2e-05,1e-05,-2e-05,-3e-05,5e-05,-8e-05,3,18
11532,-0.00023,2e-05,2e-05,1e-05,-2e-05,-3e-05,5e-05,-8e-05,3,18
11533,-0.00023,2e-05,2e-05,1e-05,-2e-05,-3e-05,5e-05,-8e-05,3,18
11534,0.00021,8e-05,-1e-05,-4e-05,4e-05,0.00052,5e-05,-0.00024,3,18
11535,0.00021,8e-05,-1e-05,-4e-05,4e-05,0.00052,5e-05,-0.00024,3,18
11536,0.00021,8e-05,-1e-05,-4e-05,4e-05,0.00052,5e-05,-0.00024,3,18
11538,0.00021,8e-05,-1e-05,-4e-05,4e-05,0.00052,5e-05,-0.00024,3,18
11539,0.00021,8e-05,-1e-05,-4e-05,4e-05,0.00052,5e-05,-0.00024,3,18
11540,0.00021,8e-05,-1e-05,-4e-05,4e-05,0.00052,5e-05,-0.00024,3,18
11541,0.00021,8e-05,-1e-05,-4e-05,4e-05,0.00052,5e-05,-0.00024,3,18
11542,0.00021,8e-05,-1e-05,-4e-05,4e-05,0.00052,5e-05,-0.00024,3,18
11543,8e-05,0.00042,-2e-05,0,-2e-05,-0.0002,-7e-05,-0.00013,3,18
11544,8e-05,0.00042,-2e-05,0,-2e-05,-0.0002,-7e-05,-0.00013,3,18
11545,8e-05,0.00042,-2e-05,0,-2e-05,-0.0002,-7e-05,-0.00013,3,18
11546,8e-05,0.00042,-2e-05,0,-2e-05,-0.0002,-7e-05,-0.00013,3,18
11547,8e-05,0.00042,-2e-05,0,-2e-05,-0.0002,-7e-05,-0.00013,3,18
11548,8e-05,0.00042,-2e-05,0,-2e-05,-0.0002,-7e-05,-0.00013,3,18
11549,8e-05,0.00042,-2e-05,0,-2e-05,-0.0002,-7e-05,-0.00013,3,18
11550,8e-05,0.00042,-2e-05,0,-2e-05,-0.0002,-7e-05,-0.00013,3,18
11551,8e-05,0.00042,-2e-05,0,-2e-05,-0.0002,-7e-05,-0.00013,3,18
11552,8e-05,0.00042,-2e-05,0,-2e-05,-0.0002,-7e-05,-0.00013,3,18
11553,8e-05,0.00042,-2e-05,0,-2e-05,-0.0002,-7e-05,-0.00013,3,18
11554,8e-05,0.00042,-2e-05,0,-2e-05,-0.0002,-7e-05,-0.00013,3,18
11555,8e-05,0.00042,-2e-05,0,-2e-05,-0.0002,-7e-05,-0.00013,3,18
11556,8e-05,0.00042,-2e-05,0,-2e-05,-0.0002,-7e-05,-0.00013,3,18
11557,7e-05,-0.00014,3e-05,1e-05,-1e-05,1e-05,0,-0.00017,3,18
11558,-1e-05,4e-05,4e-05,5e-05,0.0001,0.00011,-2e-05,0.00015,3,18
11559,0.00011,-5e-05,1e-05,-3e-05,-4e-05,9e-05,5e-05,-0.00014,3,18
11560,0.00011,-5e-05,1e-05,-3e-05,-4e-05,9e-05,5e-05,-0.00014,3,18
11561,0.00011,-5e-05,1e-05,-3e-05,-4e-05,9e-05,5e-05,-0.00014,3,18
11562,0.00011,-5e-05,1e-05,-3e-05,-4e-05,9e-05,5e-05,-0.00014,3,18
11563,0.00011,-5e-05,1e-05,-3e-05,-4e-05,9e-05,5e-05,-0.00014,3,18
11564,0.00011,-5e-05,1e-05,-3e-05,-4e-05,9e-05,5e-05,-0.00014,3,18
11565,0.00011,-5e-05,1e-05,-3e-05,-4e-05,9e-05,5e-05,-0.00014,3,18
11566,0.00011,-5e-05,1e-05,-3e-05,-4e-05,9e-05,5e-05,-0.00014,3,18
11567,0.00011,-5e-05,1e-05,-3e-05,-4e-05,9e-05,5e-05,-0.00014,3,18
11568,0.00011,-5e-05,1e-05,-3e-05,-4e-05,9e-05,5e-05,-0.00014,3,18
11569,0.00011,-5e-05,1e-05,-3e-05,-4e-05,9e-05,5e-05,-0.00014,3,18
11570,0.00011,-5e-05,1e-05,-3e-05,-4e-05,9e-05,5e-05,-0.00014,3,18
11571,0.00011,-5e-05,1e-05,-3e-05,-4e-05,9e-05,5e-05,-0.00014,3,18
11572,0.00011,-5e-05,1e-05,-3e-05,-4e-05,9e-05,5e-05,-0.00014,3,18
11573,0.00011,-5e-05,1e-05,-3e-05,-4e-05,9e-05,5e-05,-0.00014,3,18
11574,0.00011,-5e-05,1e-05,-3e-05,-4e-05,9e-05,5e-05,-0.00014,3,18
11575,0.00011,-5e-05,1e-05,-3e-05,-4e-05,9e-05,5e-05,-0.00014,3,18
11576,0.00011,-5e-05,1e-05,-3e-05,-4e-05,9e-05,5e-05,-0.00014,3,18
11577,0.00011,-5e-05,1e-05,-3e-05,-4e-05,9e-05,5e-05,-0.00014,3,18
11578,0.00011,-5e-05,1e-05,-3e-05,-4e-05,9e-05,5e-05,-0.00014,3,18
11579,0.00011,-5e-05,1e-05,-3e-05,-4e-05,9e-05,5e-05,-0.00014,3,18
11580,-0.00013,-0.00038,-3e-05,0,2e-05,-2e-05,1e-05,-0.0004,3,18
11581,-0.00013,-0.00038,-3e-05,0,2e-05,-2e-05,1e-05,-0.0004,3,18
11582,-7e-05,0,6e-05,1e-05,1e-05,-8e-05,-2e-05,0.00013,3,18
11583,-7e-05,0,6e-05,1e-05,1e-05,-8e-05,-2e-05,0.00013,3,18
11584,-7e-05,0,6e-05,1e-05,1e-05,-8e-05,-2e-05,0.00013,3,18
11585,-7e-05,0,6e-05,1e-05,1e-05,-8e-05,-2e-05,0.00013,3,18
11586,-7e-05,0,6e-05,1e-05,1e-05,-8e-05,-2e-05,0.00013,3,18
11588,-7e-05,0,6e-05,1e-05,1e-05,-8e-05,-2e-05,0.00013,3,18
11589,-7e-05,0,6e-05,1e-05,1e-05,-8e-05,-2e-05,0.00013,3,18
11590,-7e-05,0,6e-05,1e-05,1e-05,-8e-05,-2e-05,0.00013,3,18
11591,-7e-05,0,6e-05,1e-05,1e-05,-8e-05,-2e-05,0.00013,3,18
11592,-7e-05,0,6e-05,1e-05,1e-05,-8e-05,-2e-05,0.00013,3,18
11593,-7e-05,0,6e-05,1e-05,1e-05,-8e-05,-2e-05,0.00013,3,18
11594,-7e-05,0,6e-05,1e-05,1e-05,-8e-05,-2e-05,0.00013,3,18
11595,-7e-05,0,6e-05,1e-05,1e-05,-8e-05,-2e-05,0.00013,3,18
11596,-7e-05,0,6e-05,1e-05,1e-05,-8e-05,-2e-05,0.00013,3,18
11597,-7e-05,0,6e-05,1e-05,1e-05,-8e-05,-2e-05,0.00013,3,18
11598,-7e-05,0,6e-05,1e-05,1e-05,-8e-05,-2e-05,0.00013,3,18
11599,-7e-05,0,6e-05,1e-05,1e-05,-8e-05,-2e-05,0.00013,3,18
11600,-7e-05,0,6e-05,1e-05,1e-05,-8e-05,-2e-05,0.00013,3,18
11601,-7e-05,0,6e-05,1e-05,1e-05,-8e-05,-2e-05,0.00013,3,18
11602,-7e-05,0,6e-05,1e-05,1e-05,-8e-05,-2e-05,0.00013,3,18
11603,-3e-05,5e-05,-5e-05,-4e-05,-7e-05,-0.00015,-4e-05,-0.00014,3,18
11604,-5e-05,-0.00016,-1e-05,2e-05,-1e-05,-1e-05,1e-05,5e-05,3,18
11605,-5e-05,-0.00016,-1e-05,2e-05,-1e-05,-1e-05,1e-05,5e-05,3,18
11606,-5e-05,-0.00016,-1e-05,2e-05,-1e-05,-1e-05,1e-05,5e-05,3,18
11607,-5e-05,-0.00016,-1e-05,2e-05,-1e-05,-1e-05,1e-05,5e-05,3,18
11608,-5e-05,-0.00016,-1e-05,2e-05,-1e-05,-1e-05,1e-05,5e-05,3,18
11609,-5e-05,-0.00016,-1e-05,2e-05,-1e-05,-1e-05,1e-05,5e-05,3,18
11610,-5e-05,-0.00016,-1e-05,2e-05,-1e-05,-1e-05,1e-05,5e-05,3,18
11611,-5e-05,-0.00016,-1e-05,2e-05,-1e-05,-1e-05,1e-05,5e-05,3,18
11612,-5e-05,-0.00016,-1e-05,2e-05,-1e-05,-1e-05,1e-05,5e-05,3,18
11613,-5e-05,-0.00016,-1e-05,2e-05,-1e-05,-1e-05,1e-05,5e-05,3,18
11614,-5e-05,-0.00016,-1e-05,2e-05,-1e-05,-1e-05,1e-05,5e-05,3,18
11615,-5e-05,-0.00016,-1e-05,2e-05,-1e-05,-1e-05,1e-05,5e-05,3,18
11616,-5e-05,-0.00016,-1e-05,2e-05,-1e-05,-1e-05,1e-05,5e-05,3,18
11617,0.0001,0,3e-05,2e-05,-2e-05,4e-05,3e-05,1e-05,3,18
11618,0.0001,0.00012,0,-8e-05,-0.00012,-0.00012,0.00013,-0.00018,3,18
11619,-5e-05,-0.0003,-1e-05,-2e-05,2e-05,7e-05,1e-05,-0.00014,3,18
11620,-5e-05,-0.0003,-1e-05,-2e-05,2e-05,7e-05,1e-05,-0.00014,3,18
11621,-5e-05,-0.0003,-1e-05,-2e-05,2e-05,7e-05,1e-05,-0.00014,3,18
11622,-5e-05,-0.0003,-1e-05,-2e-05,2e-05,7e-05,1e-05,-0.00014,3,18
11623,-5e-05,-0.0003,-1e-05,-2e-05,2e-05,7e-05,1e-05,-0.00014,3,18
11624,-5e-05,-0.0003,-1e-05,-2e-05,2e-05,7e-05,1e-05,-0.00014,3,18
11625,-5e-05,-0.0003,-1e-05,-2e-05,2e-05,7e-05,1e-05,-0.00014,3,18
11626,-5e-05,-0.0003,-1e-05,-2e-05,2e-05,7e-05,1e-05,-0.00014,3,18
11627,-5e-05,-0.0003,-1e-05,-2e-05,2e-05,7e-05,1e-05,-0.00014,3,18
11628,-5e-05,-0.0003,-1e-05,-2e-05,2e-05,7e-05,1e-05,-0.00014,3,18
11629,-5e-05,-0.0003,-1e-05,-2e-05,2e-05,7e-05,1e-05,-0.00014,3,18
11630,-5e-05,-0.0003,-1e-05,-2e-05,2e-05,7e-05,1e-05,-0.00014,3,18
11631,-5e-05,-0.0003,-1e-05,-2e-05,2e-05,7e-05,1e-05,-0.00014,3,18
11632,-5e-05,-0.0003,-1e-05,-2e-05,2e-05,7e-05,1e-05,-0.00014,3,18
11633,-5e-05,-0.0003,-1e-05,-2e-05,2e-05,7e-05,1e-05,-0.00014,3,18
11634,-5e-05,-0.0003,-1e-05,-2e-05,2e-05,7e-05,1e-05,-0.00014,3,18
11635,-5e-05,-0.0003,-1e-05,-2e-05,2e-05,7e-05,1e-05,-0.00014,3,18
11636,-5e-05,-0.0003,-1e-05,-2e-05,2e-05,7e-05,1e-05,-0.00014,3,18
11638,-5e-05,-0.0003,-1e-05,-2e-05,2e-05,7e-05,1e-05,-0.00014,3,18
11639,-5e-05,-0.0003,-1e-05,-2e-05,2e-05,7e-05,1e-05,-0.00014,3,18
11640,2e-05,-0.00034,-5e-05,-4e-05,-0.0001,-0.00019,-5e-05,-0.00055,3,18
11641,2e-05,-0.00034,-5e-05,-4e-05,-0.0001,-0.00019,-5e-05,-0.00055,3,18
11642,2e-05,0.00022,1e-05,2e-05,-2e-05,9e-05,-5e-05,0.00028,3,18
11643,2e-05,0.00022,1e-05,2e-05,-2e-05,9e-05,-5e-05,0.00028,3,18
11644,2e-05,0.00022,1e-05,2e-05,-2e-05,9e-05,-5e-05,0.00028,3,18
11645,2e-05,0.00022,1e-05,2e-05,-2e-05,9e-05,-5e-05,0.00028,3,18
11646,2e-05,0.00022,1e-05,2e-05,-2e-05,9e-05,-5e-05,0.00028,3,18
11647,2e-05,0.00022,1e-05,2e-05,-2e-05,9e-05,-5e-05,0.00028,3,18
11648,2e-05,0.00022,1e-05,2e-05,-2e-05,9e-05,-5e-05,0.00028,3,18
11649,2e-05,0.00022,1e-05,2e-05,-2e-05,9e-05,-5e-05,0.00028,3,18
11650,2e-05,0.00022,1e-05,2e-05,-2e-05,9e-05,-5e-05,0.00028,3,18
11651,2e-05,0.00022,1e-05,2e-05,-2e-05,9e-05,-5e-05,0.00028,3,18
11652,2e-05,0.00022,1e-05,2e-05,-2e-05,9e-05,-5e-05,0.00028,3,18
11653,2e-05,0.00022,1e-05,2e-05,-2e-05,9e-05,-5e-05,0.00028,3,18
11654,-0.00022,1e-05,4e-05,4e-05,-4e-05,4e-05,0,0.00044,3,18
11655,-0.00022,1e-05,4e-05,4e-05,-4e-05,4e-05,0,0.00044,3,18
11656,-0.00022,1e-05,4e-05,4e-05,-4e-05,4e-05,0,0.00044,3,18
11657,-0.00022,1e-05,4e-05,4e-05,-4e-05,4e-05,0,0.00044,3,18
11658,-0.00022,1e-05,4e-05,4e-05,-4e-05,4e-05,0,0.00044,3,18
11659,-0.00022,1e-05,4e-05,4e-05,-4e-05,4e-05,0,0.00044,3,18
11660,-0.00022,1e-05,4e-05,4e-05,-4e-05,4e-05,0,0.00044,3,18
11661,-0.00022,1e-05,4e-05,4e-05,-4e-05,4e-05,0,0.00044,3,18
11662,-0.00022,1e-05,4e-05,4e-05,-4e-05,4e-05,0,0.00044,3,18
11663,-0.00022,1e-05,4e-05,4e-05,-4e-05,4e-05,0,0.00044,3,18
11664,-0.00022,1e-05,4e-05,4e-05,-4e-05,4e-05,0,0.00044,3,18
11665,-0.00022,1e-05,4e-05,4e-05,-4e-05,4e-05,0,0.00044,3,18
11666,-0.00022,1e-05,4e-05,4e-05,-4e-05,4e-05,0,0.00044,3,18
11667,-0.00022,1e-05,4e-05,4e-05,-4e-05,4e-05,0,0.00044,3,18
11668,-0.00022,1e-05,4e-05,4e-05,-4e-05,4e-05,0,0.00044,3,18
11669,-0.00022,1e-05,4e-05,4e-05,-4e-05,4e-05,0,0.00044,3,18
11670,0.00011,-7e-05,-1e-05,-2e-05,0,-0.00012,-9e-05,0.00042,3,18
11671,0.00011,-7e-05,-1e-05,-2e-05,0,-0.00012,-9e-05,0.00042,3,18
11672,0.00011,-7e-05,-1e-05,-2e-05,0,-0.00012,-9e-05,0.00042,3,18
11673,0.00011,-7e-05,-1e-05,-2e-05,0,-0.00012,-9e-05,0.00042,3,18
11674,0.00011,-7e-05,-1e-05,-2e-05,0,-0.00012,-9e-05,0.00042,3,18
11675,0.00011,-7e-05,-1e-05,-2e-05,0,-0.00012,-9e-05,0.00042,3,18
11676,0.00011,-7e-05,-1e-05,-2e-05,0,-0.00012,-9e-05,0.00042,3,18
11677,0.00011,-7e-05,-1e-05,-2e-05,0,-0.00012,-9e-05,0.00042,3,18
11678,0,0.00014,-1e-05,-3e-05,-3e-05,-0.00017,-4e-05,3e-05,3,18
11679,-0.00013,-0.00024,-4e-05,1e-05,-2e-05,-0.0002,-2e-05,3e-05,3,18
11680,-0.00013,-0.00024,-4e-05,1e-05,-2e-05,-0.0002,-2e-05,3e-05,3,18
11681,-0.00013,-0.00024,-4e-05,1e-05,-2e-05,-0.0002,-2e-05,3e-05,3,18
11682,-0.00013,-0.00024,-4e-05,1e-05,-2e-05,-0.0002,-2e-05,3e-05,3,18
11683,-0.00013,-0.00024,-4e-05,1e-05,-2e-05,-0.0002,-2e-05,3e-05,3,18
11684,-0.00013,-0.00024,-4e-05,1e-05,-2e-05,-0.0002,-2e-05,3e-05,3,18
11685,-0.00013,-0.00024,-4e-05,1e-05,-2e-05,-0.0002,-2e-05,3e-05,3,18
11686,-0.00013,-0.00024,-4e-05,1e-05,-2e-05,-0.0002,-2e-05,3e-05,3,18
11688,-0.00013,-0.00024,-4e-05,1e-05,-2e-05,-0.0002,-2e-05,3e-05,3,18
11689,-0.00013,-0.00024,-4e-05,1e-05,-2e-05,-0.0002,-2e-05,3e-05,3,18
11690,-0.00013,-0.00024,-4e-05,1e-05,-2e-05,-0.0002,-2e-05,3e-05,3,18
11691,-0.00013,-0.00024,-4e-05,1e-05,-2e-05,-0.0002,-2e-05,3e-05,3,18
11692,-0.00013,-0.00024,-4e-05,1e-05,-2e-05,-0.0002,-2e-05,3e-05,3,18
11693,-0.00013,-0.00024,-4e-05,1e-05,-2e-05,-0.0002,-2e-05,3e-05,3,18
11694,-0.00013,-0.00024,-4e-05,1e-05,-2e-05,-0.0002,-2e-05,3e-05,3,18
11695,-0.00013,-0.00024,-4e-05,1e-05,-2e-05,-0.0002,-2e-05,3e-05,3,18
11696,-0.00013,-0.00024,-4e-05,1e-05,-2e-05,-0.0002,-2e-05,3e-05,3,18
11697,-0.00013,-0.00024,-4e-05,1e-05,-2e-05,-0.0002,-2e-05,3e-05,3,18
11698,-0.00013,-0.00024,-4e-05,1e-05,-2e-05,-0.0002,-2e-05,3e-05,3,18
11699,-0.00013,-0.00024,-4e-05,1e-05,-2e-05,-0.0002,-2e-05,3e-05,3,18
11700,-5e-05,0.00033,8e-05,-3e-05,7e-05,1e-05,-4e-05,-0.00027,3,18
11701,-5e-05,0.00033,8e-05,-3e-05,7e-05,1e-05,-4e-05,-0.00027,3,18
11702,4e-05,1e-05,-5e-05,-2e-05,0,0.00053,3e-05,-0.00023,3,18
11703,4e-05,1e-05,-5e-05,-2e-05,0,0.00053,3e-05,-0.00023,3,18
11704,4e-05,1e-05,-5e-05,-2e-05,0,0.00053,3e-05,-0.00023,3,18
11705,4e-05,1e-05,-5e-05,-2e-05,0,0.00053,3e-05,-0.00023,3,18
11706,4e-05,1e-05,-5e-05,-2e-05,0,0.00053,3e-05,-0.00023,3,18
11707,4e-05,1e-05,-5e-05,-2e-05,0,0.00053,3e-05,-0.00023,3,18
11708,4e-05,1e-05,-5e-05,-2e-05,0,0.00053,3e-05,-0.00023,3,18
11709,4e-05,1e-05,-5e-05,-2e-05,0,0.00053,3e-05,-0.00023,3,18
11710,4e-05,1e-05,-5e-05,-2e-05,0,0.00053,3e-05,-0.00023,3,18
11711,4e-05,1e-05,-5e-05,-2e-05,0,0.00053,3e-05,-0.00023,3,18
11712,4e-05,1e-05,-5e-05,-2e-05,0,0.00053,3e-05,-0.00023,3,18
11713,4e-05,1e-05,-5e-05,-2e-05,0,0.00053,3e-05,-0.00023,3,18
11714,-0.00035,0,-6e-05,-4e-05,-4e-05,0.00024,0,-0.00082,3,18
11715,-0.00035,0,-6e-05,-4e-05,-4e-05,0.00024,0,-0.00082,3,18
11716,-0.00035,0,-6e-05,-4e-05,-4e-05,0.00024,0,-0.00082,3,18
11717,-0.00035,0,-6e-05,-4e-05,-4e-05,0.00024,0,-0.00082,3,18
11718,-0.00035,0,-6e-05,-4e-05,-4e-05,0.00024,0,-0.00082,3,18
11719,-0.00035,0,-6e-05,-4e-05,-4e-05,0.00024,0,-0.00082,3,18
11720,-0.00035,0,-6e-05,-4e-05,-4e-05,0.00024,0,-0.00082,3,18
11721,-0.00035,0,-6e-05,-4e-05,-4e-05,0.00024,0,-0.00082,3,18
11722,-0.00035,0,-6e-05,-4e-05,-4e-05,0.00024,0,-0.00082,3,18
11723,-0.00035,0,-6e-05,-4e-05,-4e-05,0.00024,0,-0.00082,3,18
11724,-0.00035,0,-6e-05,-4e-05,-4e-05,0.00024,0,-0.00082,3,18
11725,-0.00035,0,-6e-05,-4e-05,-4e-05,0.00024,0,-0.00082,3,18
11726,-0.00035,0,-6e-05,-4e-05,-4e-05,0.00024,0,-0.00082,3,18
11727,-0.00035,0,-6e-05,-4e-05,-4e-05,0.00024,0,-0.00082,3,18
11728,-0.00035,0,-6e-05,-4e-05,-4e-05,0.00024,0,-0.00082,3,18
11729,-0.00035,0,-6e-05,-4e-05,-4e-05,0.00024,0,-0.00082,3,18
11730,-9e-05,-0.00018,-2e-05,-1e-05,-6e-05,-0.00016,6e-05,-0.00016,3,18
11731,-9e-05,-0.00018,-2e-05,-1e-05,-6e-05,-0.00016,6e-05,-0.00016,3,18
11732,-9e-05,-0.00018,-2e-05,-1e-05,-6e-05,-0.00016,6e-05,-0.00016,3,18
11733,-9e-05,-0.00018,-2e-05,-1e-05,-6e-05,-0.00016,6e-05,-0.00016,3,18
11734,-9e-05,-0.00018,-2e-05,-1e-05,-6e-05,-0.00016,6e-05,-0.00016,3,18
11735,-9e-05,-0.00018,-2e-05,-1e-05,-6e-05,-0.00016,6e-05,-0.00016,3,18
11736,-9e-05,-0.00018,-2e-05,-1e-05,-6e-05,-0.00016,6e-05,-0.00016,3,18
11738,-4e-05,4e-05,-1e-05,-1e-05,-6e-05,-3e-05,2e-05,-0.00066,3,18
11739,-9e-05,0.0002,2e-05,2e-05,6e-05,-7e-05,-0.0001,0.00016,3,18
11740,0.00012,7e-05,-2e-05,-2e-05,1e-05,-0.00039,7e-05,0.00029,3,18
11741,0.00012,7e-05,-2e-05,-2e-05,1e-05,-0.00039,7e-05,0.00029,3,18
11742,0.00012,7e-05,-2e-05,-2e-05,1e-05,-0.00039,7e-05,0.00029,3,18
11743,0.00012,7e-05,-2e-05,-2e-05,1e-05,-0.00039,7e-05,0.00029,3,18
11744,0.00012,7e-05,-2e-05,-2e-05,1e-05,-0.00039,7e-05,0.00029,3,18
11745,0.00012,7e-05,-2e-05,-2e-05,1e-05,-0.00039,7e-05,0.00029,3,18
11746,0.00012,7e-05,-2e-05,-2e-05,1e-05,-0.00039,7e-05,0.00029,3,18
11747,0.00012,7e-05,-2e-05,-2e-05,1e-05,-0.00039,7e-05,0.00029,3,18
11748,0.00012,7e-05,-2e-05,-2e-05,1e-05,-0.00039,7e-05,0.00029,3,18
11749,0.00012,7e-05,-2e-05,-2e-05,1e-05,-0.00039,7e-05,0.00029,3,18
11750,0.00012,7e-05,-2e-05,-2e-05,1e-05,-0.00039,7e-05,0.00029,3,18
11751,0.00012,7e-05,-2e-05,-2e-05,1e-05,-0.00039,7e-05,0.00029,3,18
11752,0.00012,7e-05,-2e-05,-2e-05,1e-05,-0.00039,7e-05,0.00029,3,18
11753,0.00012,7e-05,-2e-05,-2e-05,1e-05,-0.00039,7e-05,0.00029,3,18
11754,0.00012,7e-05,-2e-05,-2e-05,1e-05,-0.00039,7e-05,0.00029,3,18
11755,0.00012,7e-05,-2e-05,-2e-05,1e-05,-0.00039,7e-05,0.00029,3,18
11756,0.00012,7e-05,-2e-05,-2e-05,1e-05,-0.00039,7e-05,0.00029,3,18
11757,0.00012,7e-05,-2e-05,-2e-05,1e-05,-0.00039,7e-05,0.00029,3,18
11758,0.00012,7e-05,-2e-05,-2e-05,1e-05,-0.00039,7e-05,0.00029,3,18
11759,0.00012,7e-05,-2e-05,-2e-05,1e-05,-0.00039,7e-05,0.00029,3,18
11760,-1e-05,-0.00012,2e-05,2e-05,0,-0.00016,3e-05,0.00031,3,18
11761,-1e-05,-0.00012,2e-05,2e-05,0,-0.00016,3e-05,0.00031,3,18
11762,5e-05,0.00011,4e-05,2e-05,-4e-05,-0.00022,-8e-05,-9e-05,3,18
11763,5e-05,0.00011,4e-05,2e-05,-4e-05,-0.00022,-8e-05,-9e-05,3,18
11764,5e-05,0.00011,4e-05,2e-05,-4e-05,-0.00022,-8e-05,-9e-05,3,18
11765,5e-05,0.00011,4e-05,2e-05,-4e-05,-0.00022,-8e-05,-9e-05,3,18
11766,5e-05,0.00011,4e-05,2e-05,-4e-05,-0.00022,-8e-05,-9e-05,3,18
11767,5e-05,0.00011,4e-05,2e-05,-4e-05,-0.00022,-8e-05,-9e-05,3,18
11768,5e-05,0.00011,4e-05,2e-05,-4e-05,-0.00022,-8e-05,-9e-05,3,18
11769,5e-05,0.00011,4e-05,2e-05,-4e-05,-0.00022,-8e-05,-9e-05,3,18
11770,5e-05,0.00011,4e-05,2e-05,-4e-05,-0.00022,-8e-05,-9e-05,3,18
11771,5e-05,0.00011,4e-05,2e-05,-4e-05,-0.00022,-8e-05,-9e-05,3,18
11772,5e-05,0.00011,4e-05,2e-05,-4e-05,-0.00022,-8e-05,-9e-05,3,18
11773,0.00012,2e-05,-2e-05,0,0.00018,0.00016,1e-05,0.00018,3,18
11774,0.00012,2e-05,-2e-05,0,0.00018,0.00016,1e-05,0.00018,3,18
11775,0.00012,2e-05,-2e-05,0,0.00018,0.00016,1e-05,0.00018,3,18
11776,0.00012,2e-05,-2e-05,0,0.00018,0.00016,1e-05,0.00018,3,18
11777,0.00012,2e-05,-2e-05,0,0.00018,0.00016,1e-05,0.00018,3,18
11778,0.00012,2e-05,-2e-05,0,0.00018,0.00016,1e-05,0.00018,3,18
11779,0.00012,2e-05,-2e-05,0,0.00018,0.00016,1e-05,0.00018,3,18
11780,0.00012,2e-05,-2e-05,0,0.00018,0.00016,1e-05,0.00018,3,18
11781,0.00012,2e-05,-2e-05,0,0.00018,0.00016,1e-05,0.00018,3,18
11782,0.00012,2e-05,-2e-05,0,0.00018,0.00016,1e-05,0.00018,3,18
11783,0.00012,2e-05,-2e-05,0,0.00018,0.00016,1e-05,0.00018,3,18
11784,0.00012,2e-05,-2e-05,0,0.00018,0.00016,1e-05,0.00018,3,18
11785,0.00012,2e-05,-2e-05,0,0.00018,0.00016,1e-05,0.00018,3,18
11786,0.00012,2e-05,-2e-05,0,0.00018,0.00016,1e-05,0.00018,3,18
11788,0.00012,2e-05,-2e-05,0,0.00018,0.00016,1e-05,0.00018,3,18
11789,0.00012,2e-05,-2e-05,0,0.00018,0.00016,1e-05,0.00018,3,18
11790,-1e-05,-0.00024,-7e-05,-7e-05,-3e-05,-8e-05,-4e-05,0.00016,3,18
11791,-1e-05,-0.00024,-7e-05,-7e-05,-3e-05,-8e-05,-4e-05,0.00016,3,18
11792,-1e-05,-0.00024,-7e-05,-7e-05,-3e-05,-8e-05,-4e-05,0.00016,3,18
11793,-1e-05,-0.00024,-7e-05,-7e-05,-3e-05,-8e-05,-4e-05,0.00016,3,18
11794,-1e-05,-0.00024,-7e-05,-7e-05,-3e-05,-8e-05,-4e-05,0.00016,3,18
11795,-1e-05,-0.00024,-7e-05,-7e-05,-3e-05,-8e-05,-4e-05,0.00016,3,18
11796,-1e-05,-0.00024,-7e-05,-7e-05,-3e-05,-8e-05,-4e-05,0.00016,3,18
11797,0.00016,0.00012,0,0,-7e-05,8e-05,-5e-05,2e-05,3,18
11798,0.00018,8e-05,-2e-05,-3e-05,-8e-05,-0.00014,-8e-05,9e-05,3,18
11799,-0.00018,9e-05,8e-05,-1e-05,-3e-05,-6e-05,-4e-05,-9e-05,3,18
11800,-0.00018,9e-05,8e-05,-1e-05,-3e-05,-6e-05,-4e-05,-9e-05,3,18
11801,-0.00018,9e-05,8e-05,-1e-05,-3e-05,-6e-05,-4e-05,-9e-05,3,18
11802,-0.00018,9e-05,8e-05,-1e-05,-3e-05,-6e-05,-4e-05,-9e-05,3,18
11803,-0.00018,9e-05,8e-05,-1e-05,-3e-05,-6e-05,-4e-05,-9e-05,3,18
11804,-0.00018,9e-05,8e-05,-1e-05,-3e-05,-6e-05,-4e-05,-9e-05,3,18
11805,-0.00018,9e-05,8e-05,-1e-05,-3e-05,-6e-05,-4e-05,-9e-05,3,18
11806,-0.00018,9e-05,8e-05,-1e-05,-3e-05,-6e-05,-4e-05,-9e-05,3,18
11807,-0.00018,9e-05,8e-05,-1e-05,-3e-05,-6e-05,-4e-05,-9e-05,3,18
11808,-0.00018,9e-05,8e-05,-1e-05,-3e-05,-6e-05,-4e-05,-9e-05,3,18
11809,-0.00018,9e-05,8e-05,-1e-05,-3e-05,-6e-05,-4e-05,-9e-05,3,18
11810,-0.00018,9e-05,8e-05,-1e-05,-3e-05,-6e-05,-4e-05,-9e-05,3,18
11811,-0.00018,9e-05,8e-05,-1e-05,-3e-05,-6e-05,-4e-05,-9e-05,3,18
11812,-0.00018,9e-05,8e-05,-1e-05,-3e-05,-6e-05,-4e-05,-9e-05,3,18
11813,-0.00018,9e-05,8e-05,-1e-05,-3e-05,-6e-05,-4e-05,-9e-05,3,18
11814,-0.00018,9e-05,8e-05,-1e-05,-3e-05,-6e-05,-4e-05,-9e-05,3,18
11815,-0.00018,9e-05,8e-05,-1e-05,-3e-05,-6e-05,-4e-05,-9e-05,3,18
11816,-0.00018,9e-05,8e-05,-1e-05,-3e-05,-6e-05,-4e-05,-9e-05,3,18
11817,-0.00018,9e-05,8e-05,-1e-05,-3e-05,-6e-05,-4e-05,-9e-05,3,18
11818,-0.00018,9e-05,8e-05,-1e-05,-3e-05,-6e-05,-4e-05,-9e-05,3,18
11819,-0.00018,9e-05,8e-05,-1e-05,-3e-05,-6e-05,-4e-05,-9e-05,3,18
11820,-1e-05,1e-05,5e-05,5e-05,-1e-05,0.00021,6e-05,0.00021,3,18
11821,-1e-05,1e-05,5e-05,5e-05,-1e-05,0.00021,6e-05,0.00021,3,18
11822,-0.00011,-0.00024,-9e-05,-2e-05,-0.0001,-3e-05,-2e-05,-0.00056,3,18
11823,-0.00011,-0.00024,-9e-05,-2e-05,-0.0001,-3e-05,-2e-05,-0.00056,3,18
11824,-0.00011,-0.00024,-9e-05,-2e-05,-0.0001,-3e-05,-2e-05,-0.00056,3,18
11825,-0.00011,-0.00024,-9e-05,-2e-05,-0.0001,-3e-05,-2e-05,-0.00056,3,18
11826,-0.00011,-0.00024,-9e-05,-2e-05,-0.0001,-3e-05,-2e-05,-0.00056,3,18
11827,-0.00011,-0.00024,-9e-05,-2e-05,-0.0001,-3e-05,-2e-05,-0.00056,3,18
11828,-0.00011,-0.00024,-9e-05,-2e-05,-0.0001,-3e-05,-2e-05,-0.00056,3,18
11829,-0.00011,-0.00024,-9e-05,-2e-05,-0.0001,-3e-05,-2e-05,-0.00056,3,18
11830,-0.00011,-0.00024,-9e-05,-2e-05,-0.0001,-3e-05,-2e-05,-0.00056,3,18
11831,-0.00011,-0.00024,-9e-05,-2e-05,-0.0001,-3e-05,-2e-05,-0.00056,3,18
11832,-0.00011,-0.00024,-9e-05,-2e-05,-0.0001,-3e-05,-2e-05,-0.00056,3,18
11833,-0.00011,-0.00024,-9e-05,-2e-05,-0.0001,-3e-05,-2e-05,-0.00056,3,18
11834,-0.00013,-5e-05,-3e-05,-4e-05,-2e-05,-4e-05,-8e-05,-0.00024,3,18
11835,-0.00013,-5e-05,-3e-05,-4e-05,-2e-05,-4e-05,-8e-05,-0.00024,3,18
11836,-0.00013,-5e-05,-3e-05,-4e-05,-2e-05,-4e-05,-8e-05,-0.00024,3,18
11838,-0.00013,-5e-05,-3e-05,-4e-05,-2e-05,-4e-05,-8e-05,-0.00024,3,18
11839,-0.00013,-5e-05,-3e-05,-4e-05,-2e-05,-4e-05,-8e-05,-0.00024,3,18
11840,-0.00013,-5e-05,-3e-05,-4e-05,-2e-05,-4e-05,-8e-05,-0.00024,3,18
11841,-0.00013,-5e-05,-3e-05,-4e-05,-2e-05,-4e-05,-8e-05,-0.00024,3,18
11842,-0.00013,-5e-05,-3e-05,-4e-05,-2e-05,-4e-05,-8e-05,-0.00024,3,18
11843,-6e-05,0.00022,1e-05,0,1e-05,4e-05,1e-05,-6e-05,3,18
11844,-6e-05,0.00022,1e-05,0,1e-05,4e-05,1e-05,-6e-05,3,18
11845,-6e-05,0.00022,1e-05,0,1e-05,4e-05,1e-05,-6e-05,3,18
11846,-6e-05,0.00022,1e-05,0,1e-05,4e-05,1e-05,-6e-05,3,18
11847,-6e-05,0.00022,1e-05,0,1e-05,4e-05,1e-05,-6e-05,3,18
11848,-6e-05,0.00022,1e-05,0,1e-05,4e-05,1e-05,-6e-05,3,18
11849,-6e-05,0.00022,1e-05,0,1e-05,4e-05,1e-05,-6e-05,3,18
11850,-6e-05,0.00022,1e-05,0,1e-05,4e-05,1e-05,-6e-05,3,18
11851,-6e-05,0.00022,1e-05,0,1e-05,4e-05,1e-05,-6e-05,3,18
11852,-6e-05,0.00022,1e-05,0,1e-05,4e-05,1e-05,-6e-05,3,18
11853,-6e-05,0.00022,1e-05,0,1e-05,4e-05,1e-05,-6e-05,3,18
11854,-6e-05,0.00022,1e-05,0,1e-05,4e-05,1e-05,-6e-05,3,18
11855,-6e-05,0.00022,1e-05,0,1e-05,4e-05,1e-05,-6e-05,3,18
11856,-6e-05,0.00022,1e-05,0,1e-05,4e-05,1e-05,-6e-05,3,18
11857,-6e-05,0.00022,1e-05,0,1e-05,4e-05,1e-05,-6e-05,3,18
11858,-8e-05,-0.00011,-5e-05,-5e-05,-7e-05,-0.00017,0,0.00062,3,18
11859,7e-05,8e-05,1e-05,-3e-05,1e-05,0.00012,0.00011,0.00069,3,18
11860,7e-05,8e-05,1e-05,-3e-05,1e-05,0.00012,0.00011,0.00069,3,18
11861,7e-05,8e-05,1e-05,-3e-05,1e-05,0.00012,0.00011,0.00069,3,18
11862,7e-05,8e-05,1e-05,-3e-05,1e-05,0.00012,0.00011,0.00069,3,18
11863,7e-05,8e-05,1e-05,-3e-05,1e-05,0.00012,0.00011,0.00069,3,18
11864,7e-05,8e-05,1e-05,-3e-05,1e-05,0.00012,0.00011,0.00069,3,18
11865,7e-05,8e-05,1e-05,-3e-05,1e-05,0.00012,0.00011,0.00069,3,18
11866,7e-05,8e-05,1e-05,-3e-05,1e-05,0.00012,0.00011,0.00069,3,18
11867,7e-05,8e-05,1e-05,-3e-05,1e-05,0.00012,0.00011,0.00069,3,18
11868,7e-05,8e-05,1e-05,-3e-05,1e-05,0.00012,0.00011,0.00069,3,18
11869,7e-05,8e-05,1e-05,-3e-05,1e-05,0.00012,0.00011,0.00069,3,18
11870,7e-05,8e-05,1e-05,-3e-05,1e-05,0.00012,0.00011,0.00069,3,18
11871,7e-05,8e-05,1e-05,-3e-05,1e-05,0.00012,0.00011,0.00069,3,18
11872,7e-05,8e-05,1e-05,-3e-05,1e-05,0.00012,0.00011,0.00069,3,18
11873,7e-05,8e-05,1e-05,-3e-05,1e-05,0.00012,0.00011,0.00069,3,18
11874,7e-05,8e-05,1e-05,-3e-05,1e-05,0.00012,0.00011,0.00069,3,18
11875,7e-05,8e-05,1e-05,-3e-05,1e-05,0.00012,0.00011,0.00069,3,18
11876,7e-05,8e-05,1e-05,-3e-05,1e-05,0.00012,0.00011,0.00069,3,18
11877,7e-05,8e-05,1e-05,-3e-05,1e-05,0.00012,0.00011,0.00069,3,18
11878,7e-05,8e-05,1e-05,-3e-05,1e-05,0.00012,0.00011,0.00069,3,18
11879,7e-05,8e-05,1e-05,-3e-05,1e-05,0.00012,0.00011,0.00069,3,18
11880,7e-05,8e-05,1e-05,-3e-05,1e-05,0.00012,0.00011,0.00069,3,18
11881,7e-05,8e-05,1e-05,-3e-05,1e-05,0.00012,0.00011,0.00069,3,18
11882,7e-05,8e-05,1e-05,-3e-05,1e-05,0.00012,0.00011,0.00069,3,18
11883,7e-05,8e-05,1e-05,-3e-05,1e-05,0.00012,0.00011,0.00069,3,18
11884,7e-05,8e-05,1e-05,-3e-05,1e-05,0.00012,0.00011,0.00069,3,18
11885,7e-05,8e-05,1e-05,-3e-05,1e-05,0.00012,0.00011,0.00069,3,18
11886,7e-05,8e-05,1e-05,-3e-05,1e-05,0.00012,0.00011,0.00069,3,18
11888,0.0001,-9e-05,-3e-05,0,4e-05,0.00044,-5e-05,8e-05,3,18
11889,1e-05,0.00014,-3e-05,-4e-05,-9e-05,-0.00023,-6e-05,-6e-05,3,18
11890,1e-05,0.00014,-3e-05,-4e-05,-9e-05,-0.00023,-6e-05,-6e-05,3,18
11891,1e-05,0.00014,-3e-05,-4e-05,-9e-05,-0.00023,-6e-05,-6e-05,3,18
11892,1e-05,0.00014,-3e-05,-4e-05,-9e-05,-0.00023,-6e-05,-6e-05,3,18
11893,1e-05,0.00014,-3e-05,-4e-05,-9e-05,-0.00023,-6e-05,-6e-05,3,18
11894,1e-05,0.00014,-3e-05,-4e-05,-9e-05,-0.00023,-6e-05,-6e-05,3,18
11895,1e-05,0.00014,-3e-05,-4e-05,-9e-05,-0.00023,-6e-05,-6e-05,3,18
11896,1e-05,0.00014,-3e-05,-4e-05,-9e-05,-0.00023,-6e-05,-6e-05,3,18
11897,1e-05,0.00014,-3e-05,-4e-05,-9e-05,-0.00023,-6e-05,-6e-05,3,18
11898,1e-05,0.00014,-3e-05,-4e-05,-9e-05,-0.00023,-6e-05,-6e-05,3,18
11899,1e-05,0.00014,-3e-05,-4e-05,-9e-05,-0.00023,-6e-05,-6e-05,3,18
11900,1e-05,0.00014,-3e-05,-4e-05,-9e-05,-0.00023,-6e-05,-6e-05,3,18
11901,1e-05,0.00014,-3e-05,-4e-05,-9e-05,-0.00023,-6e-05,-6e-05,3,18
11902,1e-05,0.00014,-3e-05,-4e-05,-9e-05,-0.00023,-6e-05,-6e-05,3,18
11903,0.00028,-1e-05,0,2e-05,-0.00013,-7e-05,-1e-05,-0.00015,3,18
11904,0.00028,-1e-05,0,2e-05,-0.00013,-7e-05,-1e-05,-0.00015,3,18
11905,0.00028,-1e-05,0,2e-05,-0.00013,-7e-05,-1e-05,-0.00015,3,18
11906,0.00028,-1e-05,0,2e-05,-0.00013,-7e-05,-1e-05,-0.00015,3,18
11907,0.00028,-1e-05,0,2e-05,-0.00013,-7e-05,-1e-05,-0.00015,3,18
11908,0.00028,-1e-05,0,2e-05,-0.00013,-7e-05,-1e-05,-0.00015,3,18
11909,0.00028,-1e-05,0,2e-05,-0.00013,-7e-05,-1e-05,-0.00015,3,18
11910,0.00028,-1e-05,0,2e-05,-0.00013,-7e-05,-1e-05,-0.00015,3,18
11911,0.00028,-1e-05,0,2e-05,-0.00013,-7e-05,-1e-05,-0.00015,3,18
11912,0.00028,-1e-05,0,2e-05,-0.00013,-7e-05,-1e-05,-0.00015,3,18
11913,0.00028,-1e-05,0,2e-05,-0.00013,-7e-05,-1e-05,-0.00015,3,18
11914,0.00028,-1e-05,0,2e-05,-0.00013,-7e-05,-1e-05,-0.00015,3,18
11915,0.00028,-1e-05,0,2e-05,-0.00013,-7e-05,-1e-05,-0.00015,3,18
11916,0.00028,-1e-05,0,2e-05,-0.00013,-7e-05,-1e-05,-0.00015,3,18
11917,0.00028,-1e-05,0,2e-05,-0.00013,-7e-05,-1e-05,-0.00015,3,18
11918,2e-05,0.00018,-5e-05,-4e-05,-3e-05,-0.00011,-4e-05,-0.0001,3,18
11919,-8e-05,-0.00015,-7e-05,-2e-05,0,-0.00022,-3e-05,-0.00026,3,18
11920,0.0001,-9e-05,-1e-05,-1e-05,0,0.00019,2e-05,-3e-05,3,18
11921,-0.00025,0.00021,2e-05,1e-05,-8e-05,-9e-05,-7e-05,-0.00066,3,18
11922,-0.00025,0.00021,2e-05,1e-05,-8e-05,-9e-05,-7e-05,-0.00066,3,18
11923,-0.00025,0.00021,2e-05,1e-05,-8e-05,-9e-05,-7e-05,-0.00066,3,18
11924,-0.00025,0.00021,2e-05,1e-05,-8e-05,-9e-05,-7e-05,-0.00066,3,18
11925,-0.00025,0.00021,2e-05,1e-05,-8e-05,-9e-05,-7e-05,-0.00066,3,18
11926,-0.00025,0.00021,2e-05,1e-05,-8e-05,-9e-05,-7e-05,-0.00066,3,18
11927,-0.00025,0.00021,2e-05,1e-05,-8e-05,-9e-05,-7e-05,-0.00066,3,18
11928,-0.00025,0.00021,2e-05,1e-05,-8e-05,-9e-05,-7e-05,-0.00066,3,18
11929,-0.00025,0.00021,2e-05,1e-05,-8e-05,-9e-05,-7e-05,-0.00066,3,18
11930,-0.00025,0.00021,2e-05,1e-05,-8e-05,-9e-05,-7e-05,-0.00066,3,18
11931,-0.00025,0.00021,2e-05,1e-05,-8e-05,-9e-05,-7e-05,-0.00066,3,18
11932,-0.00025,0.00021,2e-05,1e-05,-8e-05,-9e-05,-7e-05,-0.00066,3,18
11933,-0.00025,0.00021,2e-05,1e-05,-8e-05,-9e-05,-7e-05,-0.00066,3,18
11934,-0.00025,0.00021,2e-05,1e-05,-8e-05,-9e-05,-7e-05,-0.00066,3,18
11935,-0.00025,0.00021,2e-05,1e-05,-8e-05,-9e-05,-7e-05,-0.00066,3,18
11936,-0.00025,0.00021,2e-05,1e-05,-8e-05,-9e-05,-7e-05,-0.00066,3,18
11938,-0.00025,0.00021,2e-05,1e-05,-8e-05,-9e-05,-7e-05,-0.00066,3,18
11939,-0.00025,0.00021,2e-05,1e-05,-8e-05,-9e-05,-7e-05,-0.00066,3,18
11940,-0.00025,0.00021,2e-05,1e-05,-8e-05,-9e-05,-7e-05,-0.00066,3,18
11941,-0.00025,0.00021,2e-05,1e-05,-8e-05,-9e-05,-7e-05,-0.00066,3,18
11942,-0.00025,0.00021,2e-05,1e-05,-8e-05,-9e-05,-7e-05,-0.00066,3,18
11943,-0.00025,0.00021,2e-05,1e-05,-8e-05,-9e-05,-7e-05,-0.00066,3,18
11944,-0.00025,0.00021,2e-05,1e-05,-8e-05,-9e-05,-7e-05,-0.00066,3,18
11945,-0.00025,0.00021,2e-05,1e-05,-8e-05,-9e-05,-7e-05,-0.00066,3,18
11946,-0.00025,0.00021,2e-05,1e-05,-8e-05,-9e-05,-7e-05,-0.00066,3,18
11947,-0.00025,0.00021,2e-05,1e-05,-8e-05,-9e-05,-7e-05,-0.00066,3,18
11948,-5e-05,-0.00023,-3e-05,-1e-05,1e-05,-4e-05,5e-05,-0.00021,3,18
11949,-8e-05,-0.00025,-6e-05,4e-05,0.00011,0.00066,4e-05,-0.00017,3,18
11951,-8e-05,-0.00025,-6e-05,4e-05,0.00011,0.00066,4e-05,-0.00017,3,18
11952,-8e-05,-0.00025,-6e-05,4e-05,0.00011,0.00066,4e-05,-0.00017,3,18
11953,-8e-05,-0.00025,-6e-05,4e-05,0.00011,0.00066,4e-05,-0.00017,3,18
11954,-8e-05,-0.00025,-6e-05,4e-05,0.00011,0.00066,4e-05,-0.00017,3,18
11955,-8e-05,-0.00025,-6e-05,4e-05,0.00011,0.00066,4e-05,-0.00017,3,18
11956,-8e-05,-0.00025,-6e-05,4e-05,0.00011,0.00066,4e-05,-0.00017,3,18
11957,-8e-05,-0.00025,-6e-05,4e-05,0.00011,0.00066,4e-05,-0.00017,3,18
11958,-8e-05,-0.00025,-6e-05,4e-05,0.00011,0.00066,4e-05,-0.00017,3,18
11959,-8e-05,-0.00025,-6e-05,4e-05,0.00011,0.00066,4e-05,-0.00017,3,18
11960,-8e-05,-0.00025,-6e-05,4e-05,0.00011,0.00066,4e-05,-0.00017,3,18
11961,-8e-05,-0.00025,-6e-05,4e-05,0.00011,0.00066,4e-05,-0.00017,3,18
11962,-8e-05,-0.00025,-6e-05,4e-05,0.00011,0.00066,4e-05,-0.00017,3,18
11963,-8e-05,-0.00025,-6e-05,4e-05,0.00011,0.00066,4e-05,-0.00017,3,18
11964,-8e-05,-0.00025,-6e-05,4e-05,0.00011,0.00066,4e-05,-0.00017,3,18
11965,-8e-05,-0.00025,-6e-05,4e-05,0.00011,0.00066,4e-05,-0.00017,3,18
11966,-8e-05,-0.00025,-6e-05,4e-05,0.00011,0.00066,4e-05,-0.00017,3,18
11967,-8e-05,-0.00025,-6e-05,4e-05,0.00011,0.00066,4e-05,-0.00017,3,18
11968,-8e-05,-0.00025,-6e-05,4e-05,0.00011,0.00066,4e-05,-0.00017,3,18
11969,-8e-05,-0.00025,-6e-05,4e-05,0.00011,0.00066,4e-05,-0.00017,3,18
11970,-8e-05,-0.00025,-6e-05,4e-05,0.00011,0.00066,4e-05,-0.00017,3,18
11971,-8e-05,-0.00025,-6e-05,4e-05,0.00011,0.00066,4e-05,-0.00017,3,18
11972,-8e-05,-0.00025,-6e-05,4e-05,0.00011,0.00066,4e-05,-0.00017,3,18
11973,-8e-05,-0.00025,-6e-05,4e-05,0.00011,0.00066,4e-05,-0.00017,3,18
11974,-8e-05,-0.00025,-6e-05,4e-05,0.00011,0.00066,4e-05,-0.00017,3,18
11975,-8e-05,-0.00025,-6e-05,4e-05,0.00011,0.00066,4e-05,-0.00017,3,18
11976,-8e-05,-0.00025,-6e-05,4e-05,0.00011,0.00066,4e-05,-0.00017,3,18
11977,-8e-05,-0.00025,-6e-05,4e-05,0.00011,0.00066,4e-05,-0.00017,3,18
11978,-8e-05,-0.00025,-6e-05,4e-05,0.00011,0.00066,4e-05,-0.00017,3,18
11979,-2e-05,0.00014,-4e-05,-2e-05,-1e-05,0.00015,-9e-05,0.00029,3,18
11980,-2e-05,0.00014,-4e-05,-2e-05,-1e-05,0.00015,-9e-05,0.00029,3,18
11981,-8e-05,-0.00019,-2e-05,-4e-05,-3e-05,-5e-05,6e-05,3e-05,3,18
11982,-8e-05,-0.00019,-2e-05,-4e-05,-3e-05,-5e-05,6e-05,3e-05,3,18
11983,-8e-05,-0.00019,-2e-05,-4e-05,-3e-05,-5e-05,6e-05,3e-05,3,18
11984,-8e-05,-0.00019,-2e-05,-4e-05,-3e-05,-5e-05,6e-05,3e-05,3,18
11985,-8e-05,-0.00019,-2e-05,-4e-05,-3e-05,-5e-05,6e-05,3e-05,3,18
11986,-8e-05,-0.00019,-2e-05,-4e-05,-3e-05,-5e-05,6e-05,3e-05,3,18
11988,-8e-05,-0.00019,-2e-05,-4e-05,-3e-05,-5e-05,6e-05,3e-05,3,18
11989,-8e-05,-0.00019,-2e-05,-4e-05,-3e-05,-5e-05,6e-05,3e-05,3,18
11990,-8e-05,-0.00019,-2e-05,-4e-05,-3e-05,-5e-05,6e-05,3e-05,3,18
11991,0.00033,0.00013,-4e-05,-1e-05,4e-05,0,9e-05,0.00053,3,18
11992,0.00033,0.00013,-4e-05,-1e-05,4e-05,0,9e-05,0.00053,3,18
11993,0.00033,0.00013,-4e-05,-1e-05,4e-05,0,9e-05,0.00053,3,18
11994,0.00033,0.00013,-4e-05,-1e-05,4e-05,0,9e-05,0.00053,3,18
11995,0.00033,0.00013,-4e-05,-1e-05,4e-05,0,9e-05,0.00053,3,18
11996,0.00033,0.00013,-4e-05,-1e-05,4e-05,0,9e-05,0.00053,3,18
11997,0.00033,0.00013,-4e-05,-1e-05,4e-05,0,9e-05,0.00053,3,18
11998,0.00033,0.00013,-4e-05,-1e-05,4e-05,0,9e-05,0.00053,3,18
11999,0.00033,0.00013,-4e-05,-1e-05,4e-05,0,9e-05,0.00053,3,18
12000,0.00033,0.00013,-4e-05,-1e-05,4e-05,0,9e-05,0.00053,3,18
12001,0.00033,0.00013,-4e-05,-1e-05,4e-05,0,9e-05,0.00053,3,18
12002,0.00033,0.00013,-4e-05,-1e-05,4e-05,0,9e-05,0.00053,3,18
12003,0.00033,0.00013,-4e-05,-1e-05,4e-05,0,9e-05,0.00053,3,18
12004,0.00033,0.00013,-4e-05,-1e-05,4e-05,0,9e-05,0.00053,3,18
12005,0.00033,0.00013,-4e-05,-1e-05,4e-05,0,9e-05,0.00053,3,18
12006,0.00033,0.00013,-4e-05,-1e-05,4e-05,0,9e-05,0.00053,3,18
12007,0.00033,0.00013,-4e-05,-1e-05,4e-05,0,9e-05,0.00053,3,18
12008,3e-05,-0.00021,5e-05,3e-05,0,-0.00016,3e-05,3e-05,3,18
12009,-6e-05,0.0001,3e-05,5e-05,2e-05,0,-1e-05,-0.0001,3,18
12010,-6e-05,0.0001,3e-05,5e-05,2e-05,0,-1e-05,-0.0001,3,18
12011,-6e-05,0.0001,3e-05,5e-05,2e-05,0,-1e-05,-0.0001,3,18
12012,-6e-05,0.0001,3e-05,5e-05,2e-05,0,-1e-05,-0.0001,3,18
12013,-6e-05,0.0001,3e-05,5e-05,2e-05,0,-1e-05,-0.0001,3,18
12014,-6e-05,0.0001,3e-05,5e-05,2e-05,0,-1e-05,-0.0001,3,18
12015,-6e-05,0.0001,3e-05,5e-05,2e-05,0,-1e-05,-0.0001,3,18
12016,-6e-05,0.0001,3e-05,5e-05,2e-05,0,-1e-05,-0.0001,3,18
12017,-6e-05,0.0001,3e-05,5e-05,2e-05,0,-1e-05,-0.0001,3,18
12018,-6e-05,0.0001,3e-05,5e-05,2e-05,0,-1e-05,-0.0001,3,18
12019,-6e-05,0.0001,3e-05,5e-05,2e-05,0,-1e-05,-0.0001,3,18
12020,-6e-05,0.0001,3e-05,5e-05,2e-05,0,-1e-05,-0.0001,3,18
12021,-6e-05,0.0001,3e-05,5e-05,2e-05,0,-1e-05,-0.0001,3,18
12022,-6e-05,0.0001,3e-05,5e-05,2e-05,0,-1e-05,-0.0001,3,18
12023,-6e-05,0.00031,-6e-05,-4e-05,-6e-05,-0.00014,-1e-05,-0.00021,3,18
12024,-6e-05,0.00031,-6e-05,-4e-05,-6e-05,-0.00014,-1e-05,-0.00021,3,18
12025,-1e-05,2e-05,-1e-05,0,8e-05,-0.00029,-6e-05,9e-05,3,18
12026,-1e-05,2e-05,-1e-05,0,8e-05,-0.00029,-6e-05,9e-05,3,18
12027,-1e-05,2e-05,-1e-05,0,8e-05,-0.00029,-6e-05,9e-05,3,18
12028,-1e-05,2e-05,-1e-05,0,8e-05,-0.00029,-6e-05,9e-05,3,18
12029,-1e-05,2e-05,-1e-05,0,8e-05,-0.00029,-6e-05,9e-05,3,18
12030,-1e-05,2e-05,-1e-05,0,8e-05,-0.00029,-6e-05,9e-05,3,18
12031,-1e-05,2e-05,-1e-05,0,8e-05,-0.00029,-6e-05,9e-05,3,18
12032,-1e-05,2e-05,-1e-05,0,8e-05,-0.00029,-6e-05,9e-05,3,18
12033,-1e-05,2e-05,-1e-05,0,8e-05,-0.00029,-6e-05,9e-05,3,18
12034,-1e-05,2e-05,-1e-05,0,8e-05,-0.00029,-6e-05,9e-05,3,18
12035,-1e-05,2e-05,-1e-05,0,8e-05,-0.00029,-6e-05,9e-05,3,18
12036,-1e-05,2e-05,-1e-05,0,8e-05,-0.00029,-6e-05,9e-05,3,18
12039,-4e-05,-0.00063,-2e-05,-6e-05,-2e-05,-0.00014,-3e-05,0.00012,3,18
12040,-4e-05,-0.00063,-2e-05,-6e-05,-2e-05,-0.00014,-3e-05,0.00012,3,18
12041,-4e-05,-0.00063,-2e-05,-6e-05,-2e-05,-0.00014,-3e-05,0.00012,3,18
12042,-4e-05,-0.00063,-2e-05,-6e-05,-2e-05,-0.00014,-3e-05,0.00012,3,18
12043,-4e-05,-0.00063,-2e-05,-6e-05,-2e-05,-0.00014,-3e-05,0.00012,3,18
12044,-4e-05,-0.00063,-2e-05,-6e-05,-2e-05,-0.00014,-3e-05,0.00012,3,18
12045,-4e-05,-0.00063,-2e-05,-6e-05,-2e-05,-0.00014,-3e-05,0.00012,3,18
12046,-4e-05,-0.00063,-2e-05,-6e-05,-2e-05,-0.00014,-3e-05,0.00012,3,18
12047,-4e-05,-0.00063,-2e-05,-6e-05,-2e-05,-0.00014,-3e-05,0.00012,3,18
12048,-4e-05,-0.00063,-2e-05,-6e-05,-2e-05,-0.00014,-3e-05,0.00012,3,18
12049,-4e-05,-0.00063,-2e-05,-6e-05,-2e-05,-0.00014,-3e-05,0.00012,3,18
12050,-4e-05,-0.00063,-2e-05,-6e-05,-2e-05,-0.00014,-3e-05,0.00012,3,18
12051,-5e-05,6e-05,-4e-05,0,-7e-05,-0.00017,-6e-05,-0.00039,3,18
12052,-5e-05,6e-05,-4e-05,0,-7e-05,-0.00017,-6e-05,-0.00039,3,18
12053,-5e-05,6e-05,-4e-05,0,-7e-05,-0.00017,-6e-05,-0.00039,3,18
12054,-5e-05,6e-05,-4e-05,0,-7e-05,-0.00017,-6e-05,-0.00039,3,18
12055,-5e-05,6e-05,-4e-05,0,-7e-05,-0.00017,-6e-05,-0.00039,3,18
12056,-5e-05,6e-05,-4e-05,0,-7e-05,-0.00017,-6e-05,-0.00039,3,18
12057,-5e-05,6e-05,-4e-05,0,-7e-05,-0.00017,-6e-05,-0.00039,3,18
12058,-5e-05,6e-05,-4e-05,0,-7e-05,-0.00017,-6e-05,-0.00039,3,18
12059,-5e-05,6e-05,-4e-05,0,-7e-05,-0.00017,-6e-05,-0.00039,3,18
12060,-5e-05,6e-05,-4e-05,0,-7e-05,-0.00017,-6e-05,-0.00039,3,18
12061,-5e-05,6e-05,-4e-05,0,-7e-05,-0.00017,-6e-05,-0.00039,3,18
12062,-5e-05,6e-05,-4e-05,0,-7e-05,-0.00017,-6e-05,-0.00039,3,18
12063,-5e-05,6e-05,-4e-05,0,-7e-05,-0.00017,-6e-05,-0.00039,3,18
12064,-5e-05,6e-05,-4e-05,0,-7e-05,-0.00017,-6e-05,-0.00039,3,18
12065,-5e-05,6e-05,-4e-05,0,-7e-05,-0.00017,-6e-05,-0.00039,3,18
12066,-5e-05,6e-05,-4e-05,0,-7e-05,-0.00017,-6e-05,-0.00039,3,18
12067,-5e-05,6e-05,-4e-05,0,-7e-05,-0.00017,-6e-05,-0.00039,3,18
12068,5e-05,0.00019,-1e-05,-1e-05,1e-05,8e-05,0,-0.00037,3,18
12069,0.00012,9e-05,4e-05,-3e-05,-5e-05,-0.00013,-1e-05,-8e-05,3,18
12070,0.00012,9e-05,4e-05,-3e-05,-5e-05,-0.00013,-1e-05,-8e-05,3,18
12071,0.00012,9e-05,4e-05,-3e-05,-5e-05,-0.00013,-1e-05,-8e-05,3,18
12072,0.00012,9e-05,4e-05,-3e-05,-5e-05,-0.00013,-1e-05,-8e-05,3,18
12073,0.00012,9e-05,4e-05,-3e-05,-5e-05,-0.00013,-1e-05,-8e-05,3,18
12074,0.00012,9e-05,4e-05,-3e-05,-5e-05,-0.00013,-1e-05,-8e-05,3,18
12075,0.00012,9e-05,4e-05,-3e-05,-5e-05,-0.00013,-1e-05,-8e-05,3,18
12076,0.00012,9e-05,4e-05,-3e-05,-5e-05,-0.00013,-1e-05,-8e-05,3,18
12077,0.00012,9e-05,4e-05,-3e-05,-5e-05,-0.00013,-1e-05,-8e-05,3,18
12078,0.00012,9e-05,4e-05,-3e-05,-5e-05,-0.00013,-1e-05,-8e-05,3,18
12079,0.00012,9e-05,4e-05,-3e-05,-5e-05,-0.00013,-1e-05,-8e-05,3,18
12080,0.00012,9e-05,4e-05,-3e-05,-5e-05,-0.00013,-1e-05,-8e-05,3,18
12081,0.00012,9e-05,4e-05,-3e-05,-5e-05,-0.00013,-1e-05,-8e-05,3,18
12082,0.00012,9e-05,4e-05,-3e-05,-5e-05,-0.00013,-1e-05,-8e-05,3,18
12083,-0.00013,-3e-05,-4e-05,-5e-05,-3e-05,-0.00013,-4e-05,1e-05,3,18
12084,0.00052,-9e-05,0,1e-05,-5e-05,-1e-05,2e-05,0.0002,3,18
12085,-0.00014,-5e-05,-6e-05,-4e-05,-2e-05,0.00015,2e-05,0.00047,3,18
12086,-0.00014,-5e-05,-6e-05,-4e-05,-2e-05,0.00015,2e-05,0.00047,3,18
12088,-0.00014,-5e-05,-6e-05,-4e-05,-2e-05,0.00015,2e-05,0.00047,3,18
12089,-0.00014,-5e-05,-6e-05,-4e-05,-2e-05,0.00015,2e-05,0.00047,3,18
12090,-0.00014,-5e-05,-6e-05,-4e-05,-2e-05,0.00015,2e-05,0.00047,3,18
12091,-0.00014,-5e-05,-6e-05,-4e-05,-2e-05,0.00015,2e-05,0.00047,3,18
12092,-0.00014,-5e-05,-6e-05,-4e-05,-2e-05,0.00015,2e-05,0.00047,3,18
12093,-0.00014,-5e-05,-6e-05,-4e-05,-2e-05,0.00015,2e-05,0.00047,3,18
12094,-0.00014,-5e-05,-6e-05,-4e-05,-2e-05,0.00015,2e-05,0.00047,3,18
12095,-0.00014,-5e-05,-6e-05,-4e-05,-2e-05,0.00015,2e-05,0.00047,3,18
12096,-0.00014,-5e-05,-6e-05,-4e-05,-2e-05,0.00015,2e-05,0.00047,3,18
12097,-7e-05,-4e-05,-2e-05,0,-4e-05,-8e-05,1e-05,-0.00011,3,18
12098,-0.00013,-6e-05,0,-1e-05,1e-05,-0.00016,2e-05,0.00027,3,18
12099,-0.00013,-6e-05,0,-1e-05,1e-05,-0.00016,2e-05,0.00027,3,18
12100,-0.00013,-6e-05,0,-1e-05,1e-05,-0.00016,2e-05,0.00027,3,18
12101,-0.00013,-6e-05,0,-1e-05,1e-05,-0.00016,2e-05,0.00027,3,18
12102,-0.00013,-6e-05,0,-1e-05,1e-05,-0.00016,2e-05,0.00027,3,18
12103,-0.00013,-6e-05,0,-1e-05,1e-05,-0.00016,2e-05,0.00027,3,18
12104,9e-05,3e-05,-3e-05,1e-05,2e-05,0.00056,-4e-05,-4e-05,3,18
12105,9e-05,3e-05,-3e-05,1e-05,2e-05,0.00056,-4e-05,-4e-05,3,18
12106,9e-05,3e-05,-3e-05,1e-05,2e-05,0.00056,-4e-05,-4e-05,3,18
12107,9e-05,3e-05,-3e-05,1e-05,2e-05,0.00056,-4e-05,-4e-05,3,18
12108,9e-05,3e-05,-3e-05,1e-05,2e-05,0.00056,-4e-05,-4e-05,3,18
12109,9e-05,3e-05,-3e-05,1e-05,2e-05,0.00056,-4e-05,-4e-05,3,18
12110,9e-05,3e-05,-3e-05,1e-05,2e-05,0.00056,-4e-05,-4e-05,3,18
12111,9e-05,3e-05,-3e-05,1e-05,2e-05,0.00056,-4e-05,-4e-05,3,18
12112,9e-05,3e-05,-3e-05,1e-05,2e-05,0.00056,-4e-05,-4e-05,3,18
12113,9e-05,3e-05,-3e-05,1e-05,2e-05,0.00056,-4e-05,-4e-05,3,18
12114,9e-05,3e-05,-3e-05,1e-05,2e-05,0.00056,-4e-05,-4e-05,3,18
12115,9e-05,3e-05,-3e-05,1e-05,2e-05,0.00056,-4e-05,-4e-05,3,18
12116,9e-05,3e-05,-3e-05,1e-05,2e-05,0.00056,-4e-05,-4e-05,3,18
12117,9e-05,3e-05,-3e-05,1e-05,2e-05,0.00056,-4e-05,-4e-05,3,18
12118,9e-05,3e-05,-3e-05,1e-05,2e-05,0.00056,-4e-05,-4e-05,3,18
12119,9e-05,3e-05,-3e-05,1e-05,2e-05,0.00056,-4e-05,-4e-05,3,18
12120,9e-05,3e-05,-3e-05,1e-05,2e-05,0.00056,-4e-05,-4e-05,3,18
12121,9e-05,3e-05,-3e-05,1e-05,2e-05,0.00056,-4e-05,-4e-05,3,18
12122,9e-05,3e-05,-3e-05,1e-05,2e-05,0.00056,-4e-05,-4e-05,3,18
12123,9e-05,3e-05,-3e-05,1e-05,2e-05,0.00056,-4e-05,-4e-05,3,18
12124,9e-05,3e-05,-3e-05,1e-05,2e-05,0.00056,-4e-05,-4e-05,3,18
12125,9e-05,3e-05,-3e-05,1e-05,2e-05,0.00056,-4e-05,-4e-05,3,18
12126,9e-05,3e-05,-3e-05,1e-05,2e-05,0.00056,-4e-05,-4e-05,3,18
12127,9e-05,3e-05,-3e-05,1e-05,2e-05,0.00056,-4e-05,-4e-05,3,18
12128,-8e-05,0.00015,-3e-05,-5e-05,1e-05,6e-05,-2e-05,0.00017,3,18
12129,-0.00017,-4e-05,1e-05,1e-05,-3e-05,-0.00036,-2e-05,-0.00017,3,18
12130,-0.00017,-4e-05,1e-05,1e-05,-3e-05,-0.00036,-2e-05,-0.00017,3,18
12131,-0.00017,-4e-05,1e-05,1e-05,-3e-05,-0.00036,-2e-05,-0.00017,3,18
12132,-0.00017,-4e-05,1e-05,1e-05,-3e-05,-0.00036,-2e-05,-0.00017,3,18
12133,-0.00017,-4e-05,1e-05,1e-05,-3e-05,-0.00036,-2e-05,-0.00017,3,18
12134,-0.00017,-4e-05,1e-05,1e-05,-3e-05,-0.00036,-2e-05,-0.00017,3,18
12135,-0.00017,-4e-05,1e-05,1e-05,-3e-05,-0.00036,-2e-05,-0.00017,3,18
12136,-0.00017,-4e-05,1e-05,1e-05,-3e-05,-0.00036,-2e-05,-0.00017,3,18
12138,-0.00017,-4e-05,1e-05,1e-05,-3e-05,-0.00036,-2e-05,-0.00017,3,18
12139,-0.00017,-4e-05,1e-05,1e-05,-3e-05,-0.00036,-2e-05,-0.00017,3,18
12140,-0.00017,-4e-05,1e-05,1e-05,-3e-05,-0.00036,-2e-05,-0.00017,3,18
12141,-0.00017,-4e-05,1e-05,1e-05,-3e-05,-0.00036,-2e-05,-0.00017,3,18
12142,-0.00017,-4e-05,1e-05,1e-05,-3e-05,-0.00036,-2e-05,-0.00017,3,18
12143,6e-05,0.0003,6e-05,3e-05,-4e-05,5e-05,-4e-05,-0.00029,3,18
12144,6e-05,0.0003,6e-05,3e-05,-4e-05,5e-05,-4e-05,-0.00029,3,18
12145,0.0001,-2e-05,-7e-05,-7e-05,-5e-05,-0.00016,1e-05,0.00012,3,18
12146,0.0001,-2e-05,-7e-05,-7e-05,-5e-05,-0.00016,1e-05,0.00012,3,18
12147,0.0001,-2e-05,-7e-05,-7e-05,-5e-05,-0.00016,1e-05,0.00012,3,18
12148,0.0001,-2e-05,-7e-05,-7e-05,-5e-05,-0.00016,1e-05,0.00012,3,18
12149,0.0001,-2e-05,-7e-05,-7e-05,-5e-05,-0.00016,1e-05,0.00012,3,18
12150,0.0001,-2e-05,-7e-05,-7e-05,-5e-05,-0.00016,1e-05,0.00012,3,18
12151,0.0001,-2e-05,-7e-05,-7e-05,-5e-05,-0.00016,1e-05,0.00012,3,18
12152,0.0001,-2e-05,-7e-05,-7e-05,-5e-05,-0.00016,1e-05,0.00012,3,18
12153,0.0001,-2e-05,-7e-05,-7e-05,-5e-05,-0.00016,1e-05,0.00012,3,18
12154,0.0001,-2e-05,-7e-05,-7e-05,-5e-05,-0.00016,1e-05,0.00012,3,18
12155,0.0001,-2e-05,-7e-05,-7e-05,-5e-05,-0.00016,1e-05,0.00012,3,18
12156,0.00012,0.00013,-3e-05,-2e-05,2e-05,9e-05,3e-05,0.00017,3,18
12157,0.00012,0.00013,-3e-05,-2e-05,2e-05,9e-05,3e-05,0.00017,3,18
12158,0.00012,0.00013,-3e-05,-2e-05,2e-05,9e-05,3e-05,0.00017,3,18
12159,0.00012,0.00013,-3e-05,-2e-05,2e-05,9e-05,3e-05,0.00017,3,18
12160,0.00012,0.00013,-3e-05,-2e-05,2e-05,9e-05,3e-05,0.00017,3,18
12161,0.00012,0.00013,-3e-05,-2e-05,2e-05,9e-05,3e-05,0.00017,3,18
12162,0.00012,0.00013,-3e-05,-2e-05,2e-05,9e-05,3e-05,0.00017,3,18
12163,0.00012,0.00013,-3e-05,-2e-05,2e-05,9e-05,3e-05,0.00017,3,18
12164,0.00012,0.00013,-3e-05,-2e-05,2e-05,9e-05,3e-05,0.00017,3,18
12165,-8e-05,0.00012,1e-05,0,4e-05,1e-05,1e-05,1e-05,3,18
12166,-8e-05,0.00012,1e-05,0,4e-05,1e-05,1e-05,1e-05,3,18
12167,-8e-05,0.00012,1e-05,0,4e-05,1e-05,1e-05,1e-05,3,18
12168,-8e-05,0.00012,1e-05,0,4e-05,1e-05,1e-05,1e-05,3,18
12169,-8e-05,0.00012,1e-05,0,4e-05,1e-05,1e-05,1e-05,3,18
12170,-8e-05,0.00012,1e-05,0,4e-05,1e-05,1e-05,1e-05,3,18
12171,-8e-05,0.00012,1e-05,0,4e-05,1e-05,1e-05,1e-05,3,18
12172,-8e-05,0.00012,1e-05,0,4e-05,1e-05,1e-05,1e-05,3,18
12173,-8e-05,0.00012,1e-05,0,4e-05,1e-05,1e-05,1e-05,3,18
12174,-8e-05,0.00012,1e-05,0,4e-05,1e-05,1e-05,1e-05,3,18
12175,-8e-05,0.00012,1e-05,0,4e-05,1e-05,1e-05,1e-05,3,18
12176,-8e-05,0.00012,1e-05,0,4e-05,1e-05,1e-05,1e-05,3,18
12177,-8e-05,0.00012,1e-05,0,4e-05,1e-05,1e-05,1e-05,3,18
12178,-8e-05,0.00012,1e-05,0,4e-05,1e-05,1e-05,1e-05,3,18
12179,-8e-05,0.00012,1e-05,0,4e-05,1e-05,1e-05,1e-05,3,18
12180,-8e-05,0.00012,1e-05,0,4e-05,1e-05,1e-05,1e-05,3,18
12181,-8e-05,0.00012,1e-05,0,4e-05,1e-05,1e-05,1e-05,3,18
12182,-8e-05,0.00012,1e-05,0,4e-05,1e-05,1e-05,1e-05,3,18
12183,-8e-05,0.00012,1e-05,0,4e-05,1e-05,1e-05,1e-05,3,18
12184,-8e-05,0.00012,1e-05,0,4e-05,1e-05,1e-05,1e-05,3,18
12185,-8e-05,0.00012,1e-05,0,4e-05,1e-05,1e-05,1e-05,3,18
12186,-8e-05,0.00012,1e-05,0,4e-05,1e-05,1e-05,1e-05,3,18
12189,-9e-05,3e-05,0,0,2e-05,-0.00013,-1e-05,1e-05,3,18
12190,-9e-05,3e-05,0,0,2e-05,-0.00013,-1e-05,1e-05,3,18
12192,-9e-05,3e-05,0,0,2e-05,-0.00013,-1e-05,1e-05,3,18
12193,-9e-05,3e-05,0,0,2e-05,-0.00013,-1e-05,1e-05,3,18
12194,-3e-05,0.00024,2e-05,-1e-05,-4e-05,-0.00021,-0.00011,-0.00039,3,18
12195,-3e-05,0.00024,2e-05,-1e-05,-4e-05,-0.00021,-0.00011,-0.00039,3,18
12196,-3e-05,0.00024,2e-05,-1e-05,-4e-05,-0.00021,-0.00011,-0.00039,3,18
12197,-3e-05,0.00024,2e-05,-1e-05,-4e-05,-0.00021,-0.00011,-0.00039,3,18
12198,-3e-05,0.00024,2e-05,-1e-05,-4e-05,-0.00021,-0.00011,-0.00039,3,18
12199,-3e-05,0.00024,2e-05,-1e-05,-4e-05,-0.00021,-0.00011,-0.00039,3,18
12200,-3e-05,0.00024,2e-05,-1e-05,-4e-05,-0.00021,-0.00011,-0.00039,3,18
12201,-3e-05,0.00024,2e-05,-1e-05,-4e-05,-0.00021,-0.00011,-0.00039,3,18
12202,-3e-05,0.00024,2e-05,-1e-05,-4e-05,-0.00021,-0.00011,-0.00039,3,18
12203,-6e-05,-0.00017,-3e-05,-4e-05,4e-05,0.00025,1e-05,0.00025,3,18
12204,-0.00012,-5e-05,-4e-05,-2e-05,-4e-05,5e-05,1e-05,-0.00043,3,18
12205,-0.00012,-5e-05,-4e-05,-2e-05,-4e-05,5e-05,1e-05,-0.00043,3,18
12206,-0.00012,-5e-05,-4e-05,-2e-05,-4e-05,5e-05,1e-05,-0.00043,3,18
12207,-0.00012,-5e-05,-4e-05,-2e-05,-4e-05,5e-05,1e-05,-0.00043,3,18
12208,-0.00012,-5e-05,-4e-05,-2e-05,-4e-05,5e-05,1e-05,-0.00043,3,18
12209,-0.00012,-5e-05,-4e-05,-2e-05,-4e-05,5e-05,1e-05,-0.00043,3,18
12210,-0.00012,-5e-05,-4e-05,-2e-05,-4e-05,5e-05,1e-05,-0.00043,3,18
12211,-0.00012,-5e-05,-4e-05,-2e-05,-4e-05,5e-05,1e-05,-0.00043,3,18
12212,-0.00012,-5e-05,-4e-05,-2e-05,-4e-05,5e-05,1e-05,-0.00043,3,18
12213,-0.00012,-5e-05,-4e-05,-2e-05,-4e-05,5e-05,1e-05,-0.00043,3,18
12214,-0.00012,-5e-05,-4e-05,-2e-05,-4e-05,5e-05,1e-05,-0.00043,3,18
12215,-0.00012,-5e-05,-4e-05,-2e-05,-4e-05,5e-05,1e-05,-0.00043,3,18
12216,-0.00012,-5e-05,-4e-05,-2e-05,-4e-05,5e-05,1e-05,-0.00043,3,18
12217,-0.00012,-5e-05,-4e-05,-2e-05,-4e-05,5e-05,1e-05,-0.00043,3,18
12218,1e-05,-2e-05,0,3e-05,0,-0.00012,0,-0.00018,3,18
12219,1e-05,-2e-05,0,3e-05,0,-0.00012,0,-0.00018,3,18
12220,1e-05,-2e-05,0,3e-05,0,-0.00012,0,-0.00018,3,18
12221,1e-05,-2e-05,0,3e-05,0,-0.00012,0,-0.00018,3,18
12222,1e-05,-2e-05,0,3e-05,0,-0.00012,0,-0.00018,3,18
12223,1e-05,-2e-05,0,3e-05,0,-0.00012,0,-0.00018,3,18
12224,-5e-05,-0.00023,-8e-05,-3e-05,4e-05,2e-05,0,2e-05,3,18
12225,-5e-05,-0.00023,-8e-05,-3e-05,4e-05,2e-05,0,2e-05,3,18
12226,-5e-05,-0.00023,-8e-05,-3e-05,4e-05,2e-05,0,2e-05,3,18
12227,-5e-05,-0.00023,-8e-05,-3e-05,4e-05,2e-05,0,2e-05,3,18
12228,-5e-05,-0.00023,-8e-05,-3e-05,4e-05,2e-05,0,2e-05,3,18
12229,-5e-05,-0.00023,-8e-05,-3e-05,4e-05,2e-05,0,2e-05,3,18
12230,-5e-05,-0.00023,-8e-05,-3e-05,4e-05,2e-05,0,2e-05,3,18
12231,-5e-05,-0.00023,-8e-05,-3e-05,4e-05,2e-05,0,2e-05,3,18
12232,-5e-05,-0.00023,-8e-05,-3e-05,4e-05,2e-05,0,2e-05,3,18
12233,-5e-05,-0.00023,-8e-05,-3e-05,4e-05,2e-05,0,2e-05,3,18
12234,-5e-05,-0.00023,-8e-05,-3e-05,4e-05,2e-05,0,2e-05,3,18
12235,-5e-05,-0.00023,-8e-05,-3e-05,4e-05,2e-05,0,2e-05,3,18
12236,-5e-05,-0.00023,-8e-05,-3e-05,4e-05,2e-05,0,2e-05,3,18
12239,-5e-05,-0.00023,-8e-05,-3e-05,4e-05,2e-05,0,2e-05,3,18
12240,-5e-05,-0.00023,-8e-05,-3e-05,4e-05,2e-05,0,2e-05,3,18
12241,-5e-05,-0.00023,-8e-05,-3e-05,4e-05,2e-05,0,2e-05,3,18
12242,-5e-05,-0.00023,-8e-05,-3e-05,4e-05,2e-05,0,2e-05,3,18
12243,-5e-05,-0.00023,-8e-05,-3e-05,4e-05,2e-05,0,2e-05,3,18
12244,-5e-05,-0.00023,-8e-05,-3e-05,4e-05,2e-05,0,2e-05,3,18
12245,-5e-05,-0.00023,-8e-05,-3e-05,4e-05,2e-05,0,2e-05,3,18
12246,-5e-05,-0.00023,-8e-05,-3e-05,4e-05,2e-05,0,2e-05,3,18
12247,-5e-05,-0.00023,-8e-05,-3e-05,4e-05,2e-05,0,2e-05,3,18
12248,4e-05,-7e-05,1e-05,1e-05,-2e-05,0.00027,-6e-05,9e-05,3,18
12249,4e-05,-7e-05,1e-05,1e-05,-2e-05,0.00027,-6e-05,9e-05,3,18
12251,4e-05,-7e-05,1e-05,1e-05,-2e-05,0.00027,-6e-05,9e-05,3,18
12252,4e-05,-7e-05,1e-05,1e-05,-2e-05,0.00027,-6e-05,9e-05,3,18
12253,4e-05,-7e-05,1e-05,1e-05,-2e-05,0.00027,-6e-05,9e-05,3,18
12254,4e-05,-7e-05,1e-05,1e-05,-2e-05,0.00027,-6e-05,9e-05,3,18
12255,4e-05,-7e-05,1e-05,1e-05,-2e-05,0.00027,-6e-05,9e-05,3,18
12256,4e-05,-7e-05,1e-05,1e-05,-2e-05,0.00027,-6e-05,9e-05,3,18
12257,4e-05,-7e-05,1e-05,1e-05,-2e-05,0.00027,-6e-05,9e-05,3,18
12258,4e-05,-7e-05,1e-05,1e-05,-2e-05,0.00027,-6e-05,9e-05,3,18
12259,4e-05,-7e-05,1e-05,1e-05,-2e-05,0.00027,-6e-05,9e-05,3,18
12260,4e-05,-7e-05,1e-05,1e-05,-2e-05,0.00027,-6e-05,9e-05,3,18
12261,4e-05,-7e-05,1e-05,1e-05,-2e-05,0.00027,-6e-05,9e-05,3,18
12262,-5e-05,2e-05,-2e-05,0,1e-05,-1e-05,0,3e-05,3,18
12263,-1e-05,3e-05,2e-05,-2e-05,-4e-05,-0.00019,7e-05,-0.00021,3,18
12264,-1e-05,3e-05,2e-05,-2e-05,-4e-05,-0.00019,7e-05,-0.00021,3,18
12265,-1e-05,3e-05,2e-05,-2e-05,-4e-05,-0.00019,7e-05,-0.00021,3,18
12266,-1e-05,3e-05,2e-05,-2e-05,-4e-05,-0.00019,7e-05,-0.00021,3,18
12268,-1e-05,3e-05,2e-05,-2e-05,-4e-05,-0.00019,7e-05,-0.00021,3,18
12269,-1e-05,3e-05,2e-05,-2e-05,-4e-05,-0.00019,7e-05,-0.00021,3,18
12270,-1e-05,3e-05,2e-05,-2e-05,-4e-05,-0.00019,7e-05,-0.00021,3,18
12271,-1e-05,3e-05,2e-05,-2e-05,-4e-05,-0.00019,7e-05,-0.00021,3,18
12272,-1e-05,3e-05,2e-05,-2e-05,-4e-05,-0.00019,7e-05,-0.00021,3,18
12273,-1e-05,3e-05,2e-05,-2e-05,-4e-05,-0.00019,7e-05,-0.00021,3,18
12274,-1e-05,3e-05,2e-05,-2e-05,-4e-05,-0.00019,7e-05,-0.00021,3,18
12275,-1e-05,3e-05,2e-05,-2e-05,-4e-05,-0.00019,7e-05,-0.00021,3,18
12276,-1e-05,3e-05,2e-05,-2e-05,-4e-05,-0.00019,7e-05,-0.00021,3,18
12277,-1e-05,3e-05,2e-05,-2e-05,-4e-05,-0.00019,7e-05,-0.00021,3,18
12278,-1e-05,3e-05,2e-05,-2e-05,-4e-05,-0.00019,7e-05,-0.00021,3,18
12279,-1e-05,3e-05,2e-05,-2e-05,-4e-05,-0.00019,7e-05,-0.00021,3,18
12280,-1e-05,3e-05,2e-05,-2e-05,-4e-05,-0.00019,7e-05,-0.00021,3,18
12281,-1e-05,3e-05,2e-05,-2e-05,-4e-05,-0.00019,7e-05,-0.00021,3,18
12282,-1e-05,3e-05,2e-05,-2e-05,-4e-05,-0.00019,7e-05,-0.00021,3,18
12283,-1e-05,3e-05,2e-05,-2e-05,-4e-05,-0.00019,7e-05,-0.00021,3,18
12284,-1e-05,3e-05,2e-05,-2e-05,-4e-05,-0.00019,7e-05,-0.00021,3,18
12285,0.00015,2e-05,0,-2e-05,-3e-05,2e-05,-1e-05,-6e-05,3,18
12286,5e-05,7e-05,3e-05,2e-05,0,-0.00013,0,-0.00027,3,18
12288,5e-05,7e-05,3e-05,2e-05,0,-0.00013,0,-0.00027,3,18
12289,5e-05,7e-05,3e-05,2e-05,0,-0.00013,0,-0.00027,3,18
12290,5e-05,7e-05,3e-05,2e-05,0,-0.00013,0,-0.00027,3,18
12291,5e-05,7e-05,3e-05,2e-05,0,-0.00013,0,-0.00027,3,18
12292,5e-05,7e-05,3e-05,2e-05,0,-0.00013,0,-0.00027,3,18
12293,5e-05,7e-05,3e-05,2e-05,0,-0.00013,0,-0.00027,3,18
12294,5e-05,7e-05,3e-05,2e-05,0,-0.00013,0,-0.00027,3,18
12295,5e-05,7e-05,3e-05,2e-05,0,-0.00013,0,-0.00027,3,18
12296,5e-05,7e-05,3e-05,2e-05,0,-0.00013,0,-0.00027,3,18
12297,5e-05,7e-05,3e-05,2e-05,0,-0.00013,0,-0.00027,3,18
12298,5e-05,7e-05,3e-05,2e-05,0,-0.00013,0,-0.00027,3,18
12299,5e-05,7e-05,3e-05,2e-05,0,-0.00013,0,-0.00027,3,18
12300,5e-05,7e-05,3e-05,2e-05,0,-0.00013,0,-0.00027,3,18
12301,0,-0.00023,2e-05,-1e-05,-3e-05,-2e-05,4e-05,-0.00038,3,18
12302,5e-05,2e-05,1e-05,0,-4e-05,-0.00023,-3e-05,9e-05,3,18
12303,5e-05,2e-05,1e-05,0,-4e-05,-0.00023,-3e-05,9e-05,3,18
12304,5e-05,2e-05,1e-05,0,-4e-05,-0.00023,-3e-05,9e-05,3,18
12305,5e-05,2e-05,1e-05,0,-4e-05,-0.00023,-3e-05,9e-05,3,18
12306,5e-05,2e-05,1e-05,0,-4e-05,-0.00023,-3e-05,9e-05,3,18
12307,5e-05,2e-05,1e-05,0,-4e-05,-0.00023,-3e-05,9e-05,3,18
12308,5e-05,2e-05,1e-05,0,-4e-05,-0.00023,-3e-05,9e-05,3,18
12309,5e-05,2e-05,1e-05,0,-4e-05,-0.00023,-3e-05,9e-05,3,18
12310,5e-05,2e-05,1e-05,0,-4e-05,-0.00023,-3e-05,9e-05,3,18
12311,5e-05,2e-05,1e-05,0,-4e-05,-0.00023,-3e-05,9e-05,3,18
12312,5e-05,2e-05,1e-05,0,-4e-05,-0.00023,-3e-05,9e-05,3,18
12313,5e-05,2e-05,1e-05,0,-4e-05,-0.00023,-3e-05,9e-05,3,18
12314,5e-05,2e-05,1e-05,0,-4e-05,-0.00023,-3e-05,9e-05,3,18
12315,5e-05,2e-05,1e-05,0,-4e-05,-0.00023,-3e-05,9e-05,3,18
12316,5e-05,2e-05,1e-05,0,-4e-05,-0.00023,-3e-05,9e-05,3,18
12317,5e-05,2e-05,1e-05,0,-4e-05,-0.00023,-3e-05,9e-05,3,18
12318,5e-05,2e-05,1e-05,0,-4e-05,-0.00023,-3e-05,9e-05,3,18
12319,5e-05,2e-05,1e-05,0,-4e-05,-0.00023,-3e-05,9e-05,3,18
12320,5e-05,2e-05,1e-05,0,-4e-05,-0.00023,-3e-05,9e-05,3,18
12321,5e-05,2e-05,1e-05,0,-4e-05,-0.00023,-3e-05,9e-05,3,18
12322,5e-05,2e-05,1e-05,0,-4e-05,-0.00023,-3e-05,9e-05,3,18
12323,5e-05,2e-05,1e-05,0,-4e-05,-0.00023,-3e-05,9e-05,3,18
12324,5e-05,2e-05,1e-05,0,-4e-05,-0.00023,-3e-05,9e-05,3,18
12325,5e-05,2e-05,1e-05,0,-4e-05,-0.00023,-3e-05,9e-05,3,18
12326,5e-05,2e-05,1e-05,0,-4e-05,-0.00023,-3e-05,9e-05,3,18
12327,5e-05,2e-05,1e-05,0,-4e-05,-0.00023,-3e-05,9e-05,3,18
12328,5e-05,2e-05,1e-05,0,-4e-05,-0.00023,-3e-05,9e-05,3,18
12329,5e-05,2e-05,1e-05,0,-4e-05,-0.00023,-3e-05,9e-05,3,18
12330,-0.00021,-0.00015,1e-05,1e-05,3e-05,5e-05,4e-05,-0.00018,3,18
12331,5e-05,-0.00012,0,0,0,-1e-05,3e-05,-6e-05,3,18
12332,5e-05,-0.00012,0,0,0,-1e-05,3e-05,-6e-05,3,18
12333,5e-05,-0.00012,0,0,0,-1e-05,3e-05,-6e-05,3,18
12334,5e-05,-0.00012,0,0,0,-1e-05,3e-05,-6e-05,3,18
12335,5e-05,-0.00012,0,0,0,-1e-05,3e-05,-6e-05,3,18
12336,2e-05,0.00022,8e-05,1e-05,-1e-05,0.00011,-7e-05,0.00012,3,18
12338,2e-05,0.00022,8e-05,1e-05,-1e-05,0.00011,-7e-05,0.00012,3,18
12339,2e-05,0.00022,8e-05,1e-05,-1e-05,0.00011,-7e-05,0.00012,3,18
12340,2e-05,0.00022,8e-05,1e-05,-1e-05,0.00011,-7e-05,0.00012,3,18
12341,2e-05,0.00022,8e-05,1e-05,-1e-05,0.00011,-7e-05,0.00012,3,18
12342,2e-05,0.00022,8e-05,1e-05,-1e-05,0.00011,-7e-05,0.00012,3,18
12343,2e-05,0.00022,8e-05,1e-05,-1e-05,0.00011,-7e-05,0.00012,3,18
12344,-3e-05,9e-05,-5e-05,-1e-05,-6e-05,-0.00023,-6e-05,0.00014,3,18
12345,-3e-05,9e-05,-5e-05,-1e-05,-6e-05,-0.00023,-6e-05,0.00014,3,18
12346,-3e-05,9e-05,-5e-05,-1e-05,-6e-05,-0.00023,-6e-05,0.00014,3,18
12347,-3e-05,9e-05,-5e-05,-1e-05,-6e-05,-0.00023,-6e-05,0.00014,3,18
12348,-3e-05,9e-05,-5e-05,-1e-05,-6e-05,-0.00023,-6e-05,0.00014,3,18
12349,-3e-05,9e-05,-5e-05,-1e-05,-6e-05,-0.00023,-6e-05,0.00014,3,18
12350,-3e-05,9e-05,-5e-05,-1e-05,-6e-05,-0.00023,-6e-05,0.00014,3,18
12351,-3e-05,9e-05,-5e-05,-1e-05,-6e-05,-0.00023,-6e-05,0.00014,3,18
12352,-3e-05,9e-05,-5e-05,-1e-05,-6e-05,-0.00023,-6e-05,0.00014,3,18
12353,-3e-05,9e-05,-5e-05,-1e-05,-6e-05,-0.00023,-6e-05,0.00014,3,18
12354,-3e-05,9e-05,-5e-05,-1e-05,-6e-05,-0.00023,-6e-05,0.00014,3,18
12355,-3e-05,9e-05,-5e-05,-1e-05,-6e-05,-0.00023,-6e-05,0.00014,3,18
12356,-3e-05,9e-05,-5e-05,-1e-05,-6e-05,-0.00023,-6e-05,0.00014,3,18
12357,-3e-05,9e-05,-5e-05,-1e-05,-6e-05,-0.00023,-6e-05,0.00014,3,18
12358,-3e-05,9e-05,-5e-05,-1e-05,-6e-05,-0.00023,-6e-05,0.00014,3,18
12359,-3e-05,9e-05,-5e-05,-1e-05,-6e-05,-0.00023,-6e-05,0.00014,3,18
12360,5e-05,0.00016,-2e-05,1e-05,1e-05,3e-05,0,-0.00012,3,18
12361,1e-05,2e-05,1e-05,4e-05,0,0,4e-05,0.00013,3,18
12362,1e-05,2e-05,1e-05,4e-05,0,0,4e-05,0.00013,3,18
12363,1e-05,2e-05,1e-05,4e-05,0,0,4e-05,0.00013,3,18
12364,1e-05,2e-05,1e-05,4e-05,0,0,4e-05,0.00013,3,18
12365,1e-05,2e-05,1e-05,4e-05,0,0,4e-05,0.00013,3,18
12366,1e-05,2e-05,1e-05,4e-05,0,0,4e-05,0.00013,3,18
12367,1e-05,2e-05,1e-05,4e-05,0,0,4e-05,0.00013,3,18
12368,1e-05,2e-05,1e-05,4e-05,0,0,4e-05,0.00013,3,18
12369,1e-05,2e-05,1e-05,4e-05,0,0,4e-05,0.00013,3,18
12370,1e-05,2e-05,1e-05,4e-05,0,0,4e-05,0.00013,3,18
12371,1e-05,2e-05,1e-05,4e-05,0,0,4e-05,0.00013,3,18
12372,1e-05,2e-05,1e-05,4e-05,0,0,4e-05,0.00013,3,18
12373,1e-05,2e-05,1e-05,4e-05,0,0,4e-05,0.00013,3,18
12374,1e-05,2e-05,1e-05,4e-05,0,0,4e-05,0.00013,3,18
12375,1e-05,2e-05,1e-05,4e-05,0,0,4e-05,0.00013,3,18
12376,1e-05,2e-05,1e-05,4e-05,0,0,4e-05,0.00013,3,18
12377,1e-05,2e-05,1e-05,4e-05,0,0,4e-05,0.00013,3,18
12378,1e-05,2e-05,1e-05,4e-05,0,0,4e-05,0.00013,3,18
12379,1e-05,2e-05,1e-05,4e-05,0,0,4e-05,0.00013,3,18
12380,1e-05,2e-05,1e-05,4e-05,0,0,4e-05,0.00013,3,18
12381,1e-05,2e-05,1e-05,4e-05,0,0,4e-05,0.00013,3,18
12382,-5e-05,-0.0003,-7e-05,-4e-05,-2e-05,-0.00033,-5e-05,-0.00015,3,18
12383,6e-05,-0.0001,-4e-05,-4e-05,3e-05,0.00027,-2e-05,0.00026,3,18
12384,6e-05,-0.0001,-4e-05,-4e-05,3e-05,0.00027,-2e-05,0.00026,3,18
12385,6e-05,-0.0001,-4e-05,-4e-05,3e-05,0.00027,-2e-05,0.00026,3,18
12386,6e-05,-0.0001,-4e-05,-4e-05,3e-05,0.00027,-2e-05,0.00026,3,18
12388,6e-05,-0.0001,-4e-05,-4e-05,3e-05,0.00027,-2e-05,0.00026,3,18
12389,-4e-05,-0.00016,-4e-05,-4e-05,0.00012,0.0011,-1e-05,-2e-05,3,18
12390,-4e-05,-0.00016,-4e-05,-4e-05,0.00012,0.0011,-1e-05,-2e-05,3,18
12391,-4e-05,-0.00016,-4e-05,-4e-05,0.00012,0.0011,-1e-05,-2e-05,3,18
12392,-4e-05,-0.00016,-4e-05,-4e-05,0.00012,0.0011,-1e-05,-2e-05,3,18
12393,-4e-05,-0.00016,-4e-05,-4e-05,0.00012,0.0011,-1e-05,-2e-05,3,18
12394,-4e-05,-0.00016,-4e-05,-4e-05,0.00012,0.0011,-1e-05,-2e-05,3,18
12395,-4e-05,-0.00016,-4e-05,-4e-05,0.00012,0.0011,-1e-05,-2e-05,3,18
12396,-0.0001,0,2e-05,2e-05,-4e-05,-0.00014,2e-05,-0.00053,3,18
12397,-0.0001,0,2e-05,2e-05,-4e-05,-0.00014,2e-05,-0.00053,3,18
12398,-0.0001,0,2e-05,2e-05,-4e-05,-0.00014,2e-05,-0.00053,3,18
12399,-0.0001,0,2e-05,2e-05,-4e-05,-0.00014,2e-05,-0.00053,3,18
12400,-0.0001,0,2e-05,2e-05,-4e-05,-0.00014,2e-05,-0.00053,3,18
12401,-0.0001,0,2e-05,2e-05,-4e-05,-0.00014,2e-05,-0.00053,3,18
12402,-0.0001,0,2e-05,2e-05,-4e-05,-0.00014,2e-05,-0.00053,3,18
12403,-0.0001,0,2e-05,2e-05,-4e-05,-0.00014,2e-05,-0.00053,3,18
12404,0,-3e-05,-1e-05,-5e-05,6e-05,-0.00026,-6e-05,2e-05,3,18
12405,0,-3e-05,-1e-05,-5e-05,6e-05,-0.00026,-6e-05,2e-05,3,18
12406,0,-3e-05,-1e-05,-5e-05,6e-05,-0.00026,-6e-05,2e-05,3,18
12407,0,-3e-05,-1e-05,-5e-05,6e-05,-0.00026,-6e-05,2e-05,3,18
12408,0,-3e-05,-1e-05,-5e-05,6e-05,-0.00026,-6e-05,2e-05,3,18
12409,0,-3e-05,-1e-05,-5e-05,6e-05,-0.00026,-6e-05,2e-05,3,18
12410,0,-3e-05,-1e-05,-5e-05,6e-05,-0.00026,-6e-05,2e-05,3,18
12411,0,-3e-05,-1e-05,-5e-05,6e-05,-0.00026,-6e-05,2e-05,3,18
12412,0,-3e-05,-1e-05,-5e-05,6e-05,-0.00026,-6e-05,2e-05,3,18
12413,0,-3e-05,-1e-05,-5e-05,6e-05,-0.00026,-6e-05,2e-05,3,18
12414,0,-3e-05,-1e-05,-5e-05,6e-05,-0.00026,-6e-05,2e-05,3,18
12415,0,-3e-05,-1e-05,-5e-05,6e-05,-0.00026,-6e-05,2e-05,3,18
12416,0,-3e-05,-1e-05,-5e-05,6e-05,-0.00026,-6e-05,2e-05,3,18
12417,0,-3e-05,-1e-05,-5e-05,6e-05,-0.00026,-6e-05,2e-05,3,18
12418,0,-3e-05,-1e-05,-5e-05,6e-05,-0.00026,-6e-05,2e-05,3,18
12419,0.0001,3e-05,0,1e-05,4e-05,0.00057,-4e-05,0.0002,3,18
12420,5e-05,0.00012,3e-05,4e-05,-7e-05,-0.00025,-1e-05,0.00012,3,18
12421,5e-05,0.00012,3e-05,4e-05,-7e-05,-0.00025,-1e-05,0.00012,3,18
12422,5e-05,0.00012,3e-05,4e-05,-7e-05,-0.00025,-1e-05,0.00012,3,18
12423,5e-05,0.00012,3e-05,4e-05,-7e-05,-0.00025,-1e-05,0.00012,3,18
12424,5e-05,0.00012,3e-05,4e-05,-7e-05,-0.00025,-1e-05,0.00012,3,18
12425,5e-05,0.00012,3e-05,4e-05,-7e-05,-0.00025,-1e-05,0.00012,3,18
12426,5e-05,0.00012,3e-05,4e-05,-7e-05,-0.00025,-1e-05,0.00012,3,18
12427,5e-05,0.00012,3e-05,4e-05,-7e-05,-0.00025,-1e-05,0.00012,3,18
12428,5e-05,0.00012,3e-05,4e-05,-7e-05,-0.00025,-1e-05,0.00012,3,18
12429,5e-05,0.00012,3e-05,4e-05,-7e-05,-0.00025,-1e-05,0.00012,3,18
12430,5e-05,0.00012,3e-05,4e-05,-7e-05,-0.00025,-1e-05,0.00012,3,18
12431,5e-05,0.00012,3e-05,4e-05,-7e-05,-0.00025,-1e-05,0.00012,3,18
12432,5e-05,0.00012,3e-05,4e-05,-7e-05,-0.00025,-1e-05,0.00012,3,18
12433,5e-05,0.00012,3e-05,4e-05,-7e-05,-0.00025,-1e-05,0.00012,3,18
12434,5e-05,0.00012,3e-05,4e-05,-7e-05,-0.00025,-1e-05,0.00012,3,18
12435,5e-05,0.00012,3e-05,4e-05,-7e-05,-0.00025,-1e-05,0.00012,3,18
12436,5e-05,0.00012,3e-05,4e-05,-7e-05,-0.00025,-1e-05,0.00012,3,18
12438,5e-05,0.00012,3e-05,4e-05,-7e-05,-0.00025,-1e-05,0.00012,3,18
12439,5e-05,0.00012,3e-05,4e-05,-7e-05,-0.00025,-1e-05,0.00012,3,18
12440,5e-05,0.00012,3e-05,4e-05,-7e-05,-0.00025,-1e-05,0.00012,3,18
12441,5e-05,0.00012,3e-05,4e-05,-7e-05,-0.00025,-1e-05,0.00012,3,18
12442,-0.00011,-0.00041,-3e-05,-4e-05,-4e-05,-0.00049,-7e-05,-0.00038,3,18
12443,-0.0001,-0.00015,-4e-05,-4e-05,-9e-05,-0.00022,0,0.00014,3,18
12444,-0.0001,-0.00015,-4e-05,-4e-05,-9e-05,-0.00022,0,0.00014,3,18
12445,-0.0001,-0.00015,-4e-05,-4e-05,-9e-05,-0.00022,0,0.00014,3,18
12446,-0.0001,-0.00015,-4e-05,-4e-05,-9e-05,-0.00022,0,0.00014,3,18
12447,-0.0001,-0.00015,-4e-05,-4e-05,-9e-05,-0.00022,0,0.00014,3,18
12448,-0.0001,-0.00015,-4e-05,-4e-05,-9e-05,-0.00022,0,0.00014,3,18
12449,-0.0001,-0.00015,-4e-05,-4e-05,-9e-05,-0.00022,0,0.00014,3,18
12450,-0.0001,-0.00015,-4e-05,-4e-05,-9e-05,-0.00022,0,0.00014,3,18
12451,-0.0001,-0.00015,-4e-05,-4e-05,-9e-05,-0.00022,0,0.00014,3,18
12452,-0.0001,-0.00015,-4e-05,-4e-05,-9e-05,-0.00022,0,0.00014,3,18
12453,-0.0001,-0.00015,-4e-05,-4e-05,-9e-05,-0.00022,0,0.00014,3,18
12454,-0.0001,-0.00015,-4e-05,-4e-05,-9e-05,-0.00022,0,0.00014,3,18
12455,-0.0001,-0.00015,-4e-05,-4e-05,-9e-05,-0.00022,0,0.00014,3,18
12456,2e-05,0.00012,-4e-05,-2e-05,-5e-05,-0.00013,-4e-05,0.0002,3,18
12457,2e-05,0.00012,-4e-05,-2e-05,-5e-05,-0.00013,-4e-05,0.0002,3,18
12458,2e-05,0.00012,-4e-05,-2e-05,-5e-05,-0.00013,-4e-05,0.0002,3,18
12459,2e-05,0.00012,-4e-05,-2e-05,-5e-05,-0.00013,-4e-05,0.0002,3,18
12460,2e-05,0.00012,-4e-05,-2e-05,-5e-05,-0.00013,-4e-05,0.0002,3,18
12461,2e-05,0.00012,-4e-05,-2e-05,-5e-05,-0.00013,-4e-05,0.0002,3,18
12462,2e-05,0.00012,-4e-05,-2e-05,-5e-05,-0.00013,-4e-05,0.0002,3,18
12463,2e-05,0.00012,-4e-05,-2e-05,-5e-05,-0.00013,-4e-05,0.0002,3,18
12464,0.00013,6e-05,-2e-05,-4e-05,-5e-05,-0.00011,-8e-05,0.00016,3,18
12465,0.00013,6e-05,-2e-05,-4e-05,-5e-05,-0.00011,-8e-05,0.00016,3,18
12466,0.00013,6e-05,-2e-05,-4e-05,-5e-05,-0.00011,-8e-05,0.00016,3,18
12467,0.00013,6e-05,-2e-05,-4e-05,-5e-05,-0.00011,-8e-05,0.00016,3,18
12468,0.00013,6e-05,-2e-05,-4e-05,-5e-05,-0.00011,-8e-05,0.00016,3,18
12469,0.00013,6e-05,-2e-05,-4e-05,-5e-05,-0.00011,-8e-05,0.00016,3,18
12470,0.00013,6e-05,-2e-05,-4e-05,-5e-05,-0.00011,-8e-05,0.00016,3,18
12471,0.00013,6e-05,-2e-05,-4e-05,-5e-05,-0.00011,-8e-05,0.00016,3,18
12472,0.00013,6e-05,-2e-05,-4e-05,-5e-05,-0.00011,-8e-05,0.00016,3,18
12473,0.00013,6e-05,-2e-05,-4e-05,-5e-05,-0.00011,-8e-05,0.00016,3,18
12474,0.00013,6e-05,-2e-05,-4e-05,-5e-05,-0.00011,-8e-05,0.00016,3,18
12475,0.00013,6e-05,-2e-05,-4e-05,-5e-05,-0.00011,-8e-05,0.00016,3,18
12476,0.00013,6e-05,-2e-05,-4e-05,-5e-05,-0.00011,-8e-05,0.00016,3,18
41390,0,2e-05,3e-05,0.00019,2e-05,-4e-05,-2e-05,-2e-05,3,18
41391,0,2e-05,3e-05,0.00019,2e-05,-4e-05,-2e-05,-2e-05,3,18
41392,0,2e-05,3e-05,0.00019,2e-05,-4e-05,-2e-05,-2e-05,3,18
41393,0,2e-05,3e-05,0.00019,2e-05,-4e-05,-2e-05,-2e-05,3,18
41394,0,2e-05,3e-05,0.00019,2e-05,-4e-05,-2e-05,-2e-05,3,18
41395,0,2e-05,3e-05,0.00019,2e-05,-4e-05,-2e-05,-2e-05,3,18
41396,0,2e-05,3e-05,0.00019,2e-05,-4e-05,-2e-05,-2e-05,3,18
41397,0,2e-05,3e-05,0.00019,2e-05,-4e-05,-2e-05,-2e-05,3,18
41398,0,2e-05,3e-05,0.00019,2e-05,-4e-05,-2e-05,-2e-05,3,18
41399,0,2e-05,3e-05,0.00019,2e-05,-4e-05,-2e-05,-2e-05,3,18
41400,0,2e-05,3e-05,0.00019,2e-05,-4e-05,-2e-05,-2e-05,3,18
41401,1e-05,-2e-05,-1e-05,6e-05,2e-05,-3e-05,0,0,3,18
41402,1e-05,-2e-05,-1e-05,6e-05,2e-05,-3e-05,0,0,3,18
41403,-1e-05,-1e-05,-3e-05,-4e-05,0,0.0001,-1e-05,-2e-05,3,18
41404,-1e-05,-1e-05,-3e-05,-4e-05,0,0.0001,-1e-05,-2e-05,3,18
41405,-1e-05,-1e-05,-3e-05,-4e-05,0,0.0001,-1e-05,-2e-05,3,18
41406,-1e-05,-1e-05,-3e-05,-4e-05,0,0.0001,-1e-05,-2e-05,3,18
41407,-1e-05,-1e-05,-3e-05,-4e-05,0,0.0001,-1e-05,-2e-05,3,18
41408,-1e-05,-1e-05,-3e-05,-4e-05,0,0.0001,-1e-05,-2e-05,3,18
41409,-1e-05,-1e-05,-3e-05,-4e-05,0,0.0001,-1e-05,-2e-05,3,18
41410,-1e-05,-1e-05,-3e-05,-4e-05,0,0.0001,-1e-05,-2e-05,3,18
41411,-1e-05,-1e-05,-3e-05,-4e-05,0,0.0001,-1e-05,-2e-05,3,18
41412,-1e-05,-1e-05,-3e-05,-4e-05,0,0.0001,-1e-05,-2e-05,3,18
41413,-1e-05,-1e-05,-3e-05,-4e-05,0,0.0001,-1e-05,-2e-05,3,18
41414,-1e-05,-1e-05,-3e-05,-4e-05,0,0.0001,-1e-05,-2e-05,3,18
41415,-1e-05,-2e-05,-1e-05,-2e-05,6e-05,6e-05,2e-05,2e-05,3,18
41416,-1e-05,-2e-05,-1e-05,-2e-05,6e-05,6e-05,2e-05,2e-05,3,18
41417,-1e-05,-2e-05,-1e-05,-2e-05,6e-05,6e-05,2e-05,2e-05,3,18
41418,-1e-05,-2e-05,-1e-05,-2e-05,6e-05,6e-05,2e-05,2e-05,3,18
41419,-1e-05,-2e-05,-1e-05,-2e-05,6e-05,6e-05,2e-05,2e-05,3,18
41420,-1e-05,-2e-05,-1e-05,-2e-05,6e-05,6e-05,2e-05,2e-05,3,18
41421,-1e-05,-2e-05,-1e-05,-2e-05,6e-05,6e-05,2e-05,2e-05,3,18
41422,0,-1e-05,-3e-05,-5e-05,-5e-05,-0.00053,-7e-05,-2e-05,3,18
41423,0,-1e-05,-3e-05,-5e-05,-5e-05,-0.00053,-7e-05,-2e-05,3,18
41424,0,-1e-05,-3e-05,-5e-05,-5e-05,-0.00053,-7e-05,-2e-05,3,18
41425,0,-1e-05,-3e-05,-5e-05,-5e-05,-0.00053,-7e-05,-2e-05,3,18
41426,0,-1e-05,-3e-05,-5e-05,-5e-05,-0.00053,-7e-05,-2e-05,3,18
41427,0,-1e-05,-3e-05,-5e-05,-5e-05,-0.00053,-7e-05,-2e-05,3,18
41428,0,-1e-05,-3e-05,-5e-05,-5e-05,-0.00053,-7e-05,-2e-05,3,18
41429,0,-1e-05,-3e-05,-5e-05,-5e-05,-0.00053,-7e-05,-2e-05,3,18
41430,0,-1e-05,-3e-05,-5e-05,-5e-05,-0.00053,-7e-05,-2e-05,3,18
41431,0,-1e-05,-3e-05,-5e-05,-5e-05,-0.00053,-7e-05,-2e-05,3,18
41432,0,-1e-05,-3e-05,-5e-05,-5e-05,-0.00053,-7e-05,-2e-05,3,18
41433,0,-1e-05,-3e-05,-5e-05,-5e-05,-0.00053,-7e-05,-2e-05,3,18
41434,0,-1e-05,-3e-05,-5e-05,-5e-05,-0.00053,-7e-05,-2e-05,3,18
41435,0,-1e-05,-3e-05,-5e-05,-5e-05,-0.00053,-7e-05,-2e-05,3,18
41436,0,-1e-05,-3e-05,-5e-05,-5e-05,-0.00053,-7e-05,-2e-05,3,18
41438,0,-1e-05,-3e-05,-5e-05,-5e-05,-0.00053,-7e-05,-2e-05,3,18
41439,-1e-05,0,-6e-05,-2e-05,-9e-05,-0.00023,-6e-05,-2e-05,3,18
41440,-1e-05,0,-6e-05,-2e-05,-9e-05,-0.00023,-6e-05,-2e-05,3,18
41441,-2e-05,-3e-05,1e-05,2e-05,-3e-05,-0.0001,-2e-05,0,3,18
41442,-2e-05,-3e-05,1e-05,2e-05,-3e-05,-0.0001,-2e-05,0,3,18
41443,-2e-05,-3e-05,1e-05,2e-05,-3e-05,-0.0001,-2e-05,0,3,18
41444,-2e-05,-3e-05,1e-05,2e-05,-3e-05,-0.0001,-2e-05,0,3,18
41445,-2e-05,-3e-05,1e-05,2e-05,-3e-05,-0.0001,-2e-05,0,3,18
41446,-2e-05,-3e-05,1e-05,2e-05,-3e-05,-0.0001,-2e-05,0,3,18
41447,-2e-05,-3e-05,1e-05,2e-05,-3e-05,-0.0001,-2e-05,0,3,18
41448,-2e-05,-3e-05,1e-05,2e-05,-3e-05,-0.0001,-2e-05,0,3,18
41449,-2e-05,-3e-05,1e-05,2e-05,-3e-05,-0.0001,-2e-05,0,3,18
41450,-2e-05,-3e-05,1e-05,2e-05,-3e-05,-0.0001,-2e-05,0,3,18
41451,-2e-05,-3e-05,1e-05,2e-05,-3e-05,-0.0001,-2e-05,0,3,18
41452,-2e-05,-3e-05,1e-05,2e-05,-3e-05,-0.0001,-2e-05,0,3,18
41453,-2e-05,-3e-05,1e-05,2e-05,-3e-05,-0.0001,-2e-05,0,3,18
41454,-2e-05,-3e-05,1e-05,2e-05,-3e-05,-0.0001,-2e-05,0,3,18
41455,-2e-05,-3e-05,1e-05,2e-05,-3e-05,-0.0001,-2e-05,0,3,18
41456,-2e-05,-3e-05,1e-05,2e-05,-3e-05,-0.0001,-2e-05,0,3,18
41457,-2e-05,-3e-05,1e-05,2e-05,-3e-05,-0.0001,-2e-05,0,3,18
41458,-2e-05,-3e-05,1e-05,2e-05,-3e-05,-0.0001,-2e-05,0,3,18
41459,-2e-05,-3e-05,1e-05,2e-05,-3e-05,-0.0001,-2e-05,0,3,18
41460,-2e-05,-3e-05,1e-05,2e-05,-3e-05,-0.0001,-2e-05,0,3,18
41461,-1e-05,1e-05,2e-05,-4e-05,-4e-05,1e-05,-2e-05,-1e-05,3,18
41462,-1e-05,1e-05,2e-05,-4e-05,-4e-05,1e-05,-2e-05,-1e-05,3,18
41463,-2e-05,-3e-05,-1e-05,0.0001,2e-05,3e-05,0,0,3,18
41464,-2e-05,-3e-05,-1e-05,0.0001,2e-05,3e-05,0,0,3,18
41465,-2e-05,-3e-05,-1e-05,0.0001,2e-05,3e-05,0,0,3,18
41466,-2e-05,-3e-05,-1e-05,0.0001,2e-05,3e-05,0,0,3,18
41467,-2e-05,-3e-05,-1e-05,0.0001,2e-05,3e-05,0,0,3,18
41468,-2e-05,-3e-05,-1e-05,0.0001,2e-05,3e-05,0,0,3,18
41469,-2e-05,-3e-05,-1e-05,0.0001,2e-05,3e-05,0,0,3,18
41470,-2e-05,-3e-05,-1e-05,0.0001,2e-05,3e-05,0,0,3,18
41471,-2e-05,-3e-05,-1e-05,0.0001,2e-05,3e-05,0,0,3,18
41472,-2e-05,-3e-05,-1e-05,0.0001,2e-05,3e-05,0,0,3,18
41473,-2e-05,-3e-05,-1e-05,0.0001,2e-05,3e-05,0,0,3,18
41474,-2e-05,-3e-05,-1e-05,0.0001,2e-05,3e-05,0,0,3,18
41475,-2e-05,-3e-05,-1e-05,0.0001,2e-05,3e-05,0,0,3,18
41476,-2e-05,-3e-05,-1e-05,0.0001,2e-05,3e-05,0,0,3,18
41477,-2e-05,-3e-05,-1e-05,0.0001,2e-05,3e-05,0,0,3,18
41478,-2e-05,-3e-05,-1e-05,0.0001,2e-05,3e-05,0,0,3,18
41479,-2e-05,-3e-05,-1e-05,0.0001,2e-05,3e-05,0,0,3,18
41480,-2e-05,-3e-05,-1e-05,0.0001,2e-05,3e-05,0,0,3,18
41481,-2e-05,-3e-05,-1e-05,0.0001,2e-05,3e-05,0,0,3,18
41482,-2e-05,-3e-05,-1e-05,0.0001,2e-05,3e-05,0,0,3,18
41483,-1e-05,0,1e-05,5e-05,-3e-05,5e-05,0,-2e-05,3,18
41484,-1e-05,0,1e-05,5e-05,-3e-05,5e-05,0,-2e-05,3,18
41485,0,2e-05,6e-05,2e-05,-2e-05,0.0001,3e-05,-1e-05,3,18
41486,0,2e-05,6e-05,2e-05,-2e-05,0.0001,3e-05,-1e-05,3,18
41489,0,2e-05,6e-05,2e-05,-2e-05,0.0001,3e-05,-1e-05,3,18
41490,0,2e-05,6e-05,2e-05,-2e-05,0.0001,3e-05,-1e-05,3,18
41491,0,2e-05,6e-05,2e-05,-2e-05,0.0001,3e-05,-1e-05,3,18
41492,0,2e-05,6e-05,2e-05,-2e-05,0.0001,3e-05,-1e-05,3,18
41493,0,2e-05,6e-05,2e-05,-2e-05,0.0001,3e-05,-1e-05,3,18
41494,0,2e-05,6e-05,2e-05,-2e-05,0.0001,3e-05,-1e-05,3,18
41495,0,2e-05,6e-05,2e-05,-2e-05,0.0001,3e-05,-1e-05,3,18
41496,0,2e-05,6e-05,2e-05,-2e-05,0.0001,3e-05,-1e-05,3,18
41497,0,2e-05,6e-05,2e-05,-2e-05,0.0001,3e-05,-1e-05,3,18
41498,-3e-05,-5e-05,-8e-05,-3e-05,-6e-05,-0.0001,0,0,3,18
41499,-3e-05,-5e-05,-8e-05,-3e-05,-6e-05,-0.0001,0,0,3,18
41500,0,1e-05,-4e-05,-4e-05,-1e-05,6e-05,0,-1e-05,3,18
41501,0,1e-05,-4e-05,-4e-05,-1e-05,6e-05,0,-1e-05,3,18
41502,0,1e-05,-4e-05,-4e-05,-1e-05,6e-05,0,-1e-05,3,18
41503,0,1e-05,-4e-05,-4e-05,-1e-05,6e-05,0,-1e-05,3,18
41504,0,1e-05,-4e-05,-4e-05,-1e-05,6e-05,0,-1e-05,3,18
41505,0,1e-05,-4e-05,-4e-05,-1e-05,6e-05,0,-1e-05,3,18
41506,0,1e-05,-4e-05,-4e-05,-1e-05,6e-05,0,-1e-05,3,18
41507,0,1e-05,-4e-05,-4e-05,-1e-05,6e-05,0,-1e-05,3,18
41508,0,1e-05,-4e-05,-4e-05,-1e-05,6e-05,0,-1e-05,3,18
41509,0,1e-05,-4e-05,-4e-05,-1e-05,6e-05,0,-1e-05,3,18
41510,0,1e-05,-4e-05,-4e-05,-1e-05,6e-05,0,-1e-05,3,18
41511,0,1e-05,-4e-05,-4e-05,-1e-05,6e-05,0,-1e-05,3,18
41512,0,1e-05,-4e-05,-4e-05,-1e-05,6e-05,0,-1e-05,3,18
41513,0,1e-05,-4e-05,-4e-05,-1e-05,6e-05,0,-1e-05,3,18
41514,0,1e-05,-4e-05,-4e-05,-1e-05,6e-05,0,-1e-05,3,18
41515,0,1e-05,-4e-05,-4e-05,-1e-05,6e-05,0,-1e-05,3,18
41516,0,1e-05,-4e-05,-4e-05,-1e-05,6e-05,0,-1e-05,3,18
41517,0,1e-05,-4e-05,-4e-05,-1e-05,6e-05,0,-1e-05,3,18
41518,0,1e-05,-4e-05,-4e-05,-1e-05,6e-05,0,-1e-05,3,18
41519,0,1e-05,-4e-05,-4e-05,-1e-05,6e-05,0,-1e-05,3,18
41520,0,1e-05,-4e-05,-4e-05,-1e-05,6e-05,0,-1e-05,3,18
41521,-1e-05,-1e-05,5e-05,5e-05,-3e-05,-6e-05,-5e-05,-2e-05,3,18
41522,2e-05,1e-05,-1e-05,-0.00011,-2e-05,-5e-05,2e-05,-1e-05,3,18
41523,-2e-05,-3e-05,1e-05,5e-05,-1e-05,0.00015,0,0,3,18
41524,-2e-05,-3e-05,1e-05,5e-05,-1e-05,0.00015,0,0,3,18
41525,-2e-05,-3e-05,1e-05,5e-05,-1e-05,0.00015,0,0,3,18
41526,-2e-05,-3e-05,1e-05,5e-05,-1e-05,0.00015,0,0,3,18
41527,-2e-05,-3e-05,1e-05,5e-05,-1e-05,0.00015,0,0,3,18
41528,-2e-05,-3e-05,1e-05,5e-05,-1e-05,0.00015,0,0,3,18
41529,-2e-05,-3e-05,1e-05,5e-05,-1e-05,0.00015,0,0,3,18
41530,-2e-05,-3e-05,1e-05,5e-05,-1e-05,0.00015,0,0,3,18
41531,-2e-05,-3e-05,1e-05,5e-05,-1e-05,0.00015,0,0,3,18
41532,-2e-05,-3e-05,1e-05,5e-05,-1e-05,0.00015,0,0,3,18
41533,-2e-05,-3e-05,1e-05,5e-05,-1e-05,0.00015,0,0,3,18
41534,-2e-05,-3e-05,1e-05,5e-05,-1e-05,0.00015,0,0,3,18
41535,-1e-05,-2e-05,-6e-05,-0.0002,0,5e-05,2e-05,0,3,18
41537,-1e-05,-2e-05,-6e-05,-0.0002,0,5e-05,2e-05,0,3,18
41539,-1e-05,-2e-05,-6e-05,-0.0002,0,5e-05,2e-05,0,3,18
41540,-1e-05,-2e-05,-6e-05,-0.0002,0,5e-05,2e-05,0,3,18
41541,-1e-05,-2e-05,-6e-05,-0.0002,0,5e-05,2e-05,0,3,18
41542,0,0,1e-05,4e-05,-2e-05,-0.0002,-2e-05,0,3,18
41543,0,0,1e-05,4e-05,-2e-05,-0.0002,-2e-05,0,3,18
41544,0,0,1e-05,4e-05,-2e-05,-0.0002,-2e-05,0,3,18
41545,0,0,1e-05,4e-05,-2e-05,-0.0002,-2e-05,0,3,18
41546,0,0,1e-05,4e-05,-2e-05,-0.0002,-2e-05,0,3,18
41547,0,0,1e-05,4e-05,-2e-05,-0.0002,-2e-05,0,3,18
41548,0,0,1e-05,4e-05,-2e-05,-0.0002,-2e-05,0,3,18
41549,0,0,1e-05,4e-05,-2e-05,-0.0002,-2e-05,0,3,18
41550,0,0,1e-05,4e-05,-2e-05,-0.0002,-2e-05,0,3,18
41551,0,0,1e-05,4e-05,-2e-05,-0.0002,-2e-05,0,3,18
41552,0,0,1e-05,4e-05,-2e-05,-0.0002,-2e-05,0,3,18
41553,0,0,1e-05,4e-05,-2e-05,-0.0002,-2e-05,0,3,18
41554,0,0,1e-05,4e-05,-2e-05,-0.0002,-2e-05,0,3,18
41555,0,0,1e-05,4e-05,-2e-05,-0.0002,-2e-05,0,3,18
41556,0,0,1e-05,4e-05,-2e-05,-0.0002,-2e-05,0,3,18
41557,0,0,1e-05,4e-05,-2e-05,-0.0002,-2e-05,0,3,18
41558,0,0,-2e-05,0.00011,-2e-05,0.00039,3e-05,-2e-05,3,18
41559,-1e-05,-1e-05,0,-4e-05,1e-05,-7e-05,0,-2e-05,3,18
41560,-1e-05,0,1e-05,1e-05,0,-0.00011,-1e-05,0,3,18
41561,-1e-05,0,1e-05,1e-05,0,-0.00011,-1e-05,0,3,18
41562,-1e-05,0,1e-05,1e-05,0,-0.00011,-1e-05,0,3,18
41563,-1e-05,0,1e-05,1e-05,0,-0.00011,-1e-05,0,3,18
41564,-1e-05,0,1e-05,1e-05,0,-0.00011,-1e-05,0,3,18
41565,-1e-05,0,1e-05,1e-05,0,-0.00011,-1e-05,0,3,18
41566,-1e-05,0,1e-05,1e-05,0,-0.00011,-1e-05,0,3,18
41567,-1e-05,0,1e-05,1e-05,0,-0.00011,-1e-05,0,3,18
41568,-1e-05,0,1e-05,1e-05,0,-0.00011,-1e-05,0,3,18
41570,-1e-05,0,1e-05,1e-05,0,-0.00011,-1e-05,0,3,18
41571,-1e-05,0,1e-05,1e-05,0,-0.00011,-1e-05,0,3,18
41572,-1e-05,0,1e-05,1e-05,0,-0.00011,-1e-05,0,3,18
41573,-1e-05,0,1e-05,1e-05,0,-0.00011,-1e-05,0,3,18
41574,-1e-05,0,1e-05,1e-05,0,-0.00011,-1e-05,0,3,18
41575,-1e-05,0,1e-05,1e-05,0,-0.00011,-1e-05,0,3,18
41576,-1e-05,0,1e-05,1e-05,0,-0.00011,-1e-05,0,3,18
41577,-1e-05,0,1e-05,1e-05,0,-0.00011,-1e-05,0,3,18
41578,-1e-05,0,1e-05,1e-05,0,-0.00011,-1e-05,0,3,18
41579,-1e-05,0,1e-05,1e-05,0,-0.00011,-1e-05,0,3,18
41580,-1e-05,0,1e-05,1e-05,0,-0.00011,-1e-05,0,3,18
41581,0,-1e-05,-1e-05,-0.00018,2e-05,2e-05,1e-05,-1e-05,3,18
41582,-2e-05,-1e-05,-2e-05,-3e-05,0,0.00018,0,-2e-05,3,18
41584,-2e-05,-1e-05,-2e-05,-3e-05,0,0.00018,0,-2e-05,3,18
41585,-2e-05,-1e-05,-2e-05,-3e-05,0,0.00018,0,-2e-05,3,18
41587,-2e-05,-1e-05,-2e-05,-3e-05,0,0.00018,0,-2e-05,3,18
41589,-2e-05,-1e-05,-2e-05,-3e-05,0,0.00018,0,-2e-05,3,18
41590,-2e-05,-1e-05,-2e-05,-3e-05,0,0.00018,0,-2e-05,3,18
41591,-2e-05,-1e-05,-2e-05,-3e-05,0,0.00018,0,-2e-05,3,18
41592,-2e-05,-1e-05,-2e-05,-3e-05,0,0.00018,0,-2e-05,3,18
41593,-2e-05,-1e-05,-2e-05,-3e-05,0,0.00018,0,-2e-05,3,18
