12798,0.00017,2e-05,-1e-05,-3e-05,1e-05,0.00014,3e-05,0.00027,3,2
12799,0.00017,2e-05,-1e-05,-3e-05,1e-05,0.00014,3e-05,0.00027,3,2
12800,0.00017,2e-05,-1e-05,-3e-05,1e-05,0.00014,3e-05,0.00027,3,2
12801,0.00017,2e-05,-1e-05,-3e-05,1e-05,0.00014,3e-05,0.00027,3,2
12802,0.00017,2e-05,-1e-05,-3e-05,1e-05,0.00014,3e-05,0.00027,3,2
12803,-0.00027,-7e-05,-5e-05,-3e-05,-8e-05,-2e-05,0.00017,-5e-05,3,2
12804,0.00013,4e-05,-2e-05,-4e-05,-6e-05,-7e-05,-0.00018,5e-05,3,2
12805,-6e-05,-3e-05,-1e-05,4e-05,4e-05,-3e-05,-0.00017,-7e-05,3,2
12806,-6e-05,-3e-05,-1e-05,4e-05,4e-05,-3e-05,-0.00017,-7e-05,3,2
12807,-6e-05,-3e-05,-1e-05,4e-05,4e-05,-3e-05,-0.00017,-7e-05,3,2
12808,-6e-05,-3e-05,-1e-05,4e-05,4e-05,-3e-05,-0.00017,-7e-05,3,2
12809,-6e-05,-3e-05,-1e-05,4e-05,4e-05,-3e-05,-0.00017,-7e-05,3,2
12810,-6e-05,-3e-05,-1e-05,4e-05,4e-05,-3e-05,-0.00017,-7e-05,3,2
12811,-6e-05,-3e-05,-1e-05,4e-05,4e-05,-3e-05,-0.00017,-7e-05,3,2
12812,-6e-05,-3e-05,-1e-05,4e-05,4e-05,-3e-05,-0.00017,-7e-05,3,2
12813,-6e-05,-3e-05,-1e-05,4e-05,4e-05,-3e-05,-0.00017,-7e-05,3,2
12814,-6e-05,-3e-05,-1e-05,4e-05,4e-05,-3e-05,-0.00017,-7e-05,3,2
12815,-6e-05,-3e-05,-1e-05,4e-05,4e-05,-3e-05,-0.00017,-7e-05,3,2
12816,-6e-05,-3e-05,-1e-05,4e-05,4e-05,-3e-05,-0.00017,-7e-05,3,2
12817,0.00015,0,-1e-05,2e-05,-1e-05,-1e-05,1e-05,-4e-05,3,2
12818,0.00015,0,-1e-05,2e-05,-1e-05,-1e-05,1e-05,-4e-05,3,2
12819,0.00015,0,-1e-05,2e-05,-1e-05,-1e-05,1e-05,-4e-05,3,2
12820,0.00015,0,-1e-05,2e-05,-1e-05,-1e-05,1e-05,-4e-05,3,2
12821,0.00015,0,-1e-05,2e-05,-1e-05,-1e-05,1e-05,-4e-05,3,2
12822,0.00015,0,-1e-05,2e-05,-1e-05,-1e-05,1e-05,-4e-05,3,2
12823,0.00015,0,-1e-05,2e-05,-1e-05,-1e-05,1e-05,-4e-05,3,2
12824,0.00015,0,-1e-05,2e-05,-1e-05,-1e-05,1e-05,-4e-05,3,2
12825,0.00015,0,-1e-05,2e-05,-1e-05,-1e-05,1e-05,-4e-05,3,2
12826,0.00015,0,-1e-05,2e-05,-1e-05,-1e-05,1e-05,-4e-05,3,2
12827,7e-05,2e-05,-2e-05,-3e-05,-6e-05,-5e-05,0.00011,4e-05,3,2
12828,7e-05,2e-05,-2e-05,-3e-05,-6e-05,-5e-05,0.00011,4e-05,3,2
12829,7e-05,2e-05,-2e-05,-3e-05,-6e-05,-5e-05,0.00011,4e-05,3,2
12830,7e-05,2e-05,-2e-05,-3e-05,-6e-05,-5e-05,0.00011,4e-05,3,2
12831,7e-05,2e-05,-2e-05,-3e-05,-6e-05,-5e-05,0.00011,4e-05,3,2
12832,7e-05,2e-05,-2e-05,-3e-05,-6e-05,-5e-05,0.00011,4e-05,3,2
12833,7e-05,2e-05,-2e-05,-3e-05,-6e-05,-5e-05,0.00011,4e-05,3,2
12834,7e-05,2e-05,-2e-05,-3e-05,-6e-05,-5e-05,0.00011,4e-05,3,2
12835,7e-05,2e-05,-2e-05,-3e-05,-6e-05,-5e-05,0.00011,4e-05,3,2
12836,7e-05,2e-05,-2e-05,-3e-05,-6e-05,-5e-05,0.00011,4e-05,3,2
12838,7e-05,2e-05,-2e-05,-3e-05,-6e-05,-5e-05,0.00011,4e-05,3,2
12839,7e-05,2e-05,-2e-05,-3e-05,-6e-05,-5e-05,0.00011,4e-05,3,2
12840,7e-05,2e-05,-2e-05,-3e-05,-6e-05,-5e-05,0.00011,4e-05,3,2
12841,-0.00033,-4e-05,-1e-05,-2e-05,-2e-05,-5e-05,-0.00028,2e-05,3,2
12842,0.00022,2e-05,3e-05,4e-05,1e-05,-0.0001,-4e-05,-8e-05,3,2
12843,0.00022,2e-05,3e-05,4e-05,1e-05,-0.0001,-4e-05,-8e-05,3,2
12844,1e-05,0,1e-05,3e-05,0.00015,6e-05,-0.00016,-0.00011,3,2
12845,1e-05,0,1e-05,3e-05,0.00015,6e-05,-0.00016,-0.00011,3,2
12846,1e-05,0,1e-05,3e-05,0.00015,6e-05,-0.00016,-0.00011,3,2
12847,1e-05,0,1e-05,3e-05,0.00015,6e-05,-0.00016,-0.00011,3,2
12848,1e-05,0,1e-05,3e-05,0.00015,6e-05,-0.00016,-0.00011,3,2
12849,1e-05,0,1e-05,3e-05,0.00015,6e-05,-0.00016,-0.00011,3,2
12850,1e-05,0,1e-05,3e-05,0.00015,6e-05,-0.00016,-0.00011,3,2
12851,1e-05,0,1e-05,3e-05,0.00015,6e-05,-0.00016,-0.00011,3,2
12852,1e-05,0,1e-05,3e-05,0.00015,6e-05,-0.00016,-0.00011,3,2
12853,1e-05,0,1e-05,3e-05,0.00015,6e-05,-0.00016,-0.00011,3,2
12854,1e-05,0,1e-05,3e-05,0.00015,6e-05,-0.00016,-0.00011,3,2
12855,1e-05,0,1e-05,3e-05,0.00015,6e-05,-0.00016,-0.00011,3,2
12856,1e-05,0,1e-05,3e-05,0.00015,6e-05,-0.00016,-0.00011,3,2
12857,1e-05,0,1e-05,3e-05,0.00015,6e-05,-0.00016,-0.00011,3,2
12858,1e-05,0,1e-05,3e-05,0.00015,6e-05,-0.00016,-0.00011,3,2
12859,1e-05,0,1e-05,3e-05,0.00015,6e-05,-0.00016,-0.00011,3,2
12860,1e-05,0,1e-05,3e-05,0.00015,6e-05,-0.00016,-0.00011,3,2
12861,1e-05,0,1e-05,3e-05,0.00015,6e-05,-0.00016,-0.00011,3,2
12862,1e-05,0,1e-05,3e-05,0.00015,6e-05,-0.00016,-0.00011,3,2
12863,1e-05,0,1e-05,3e-05,0.00015,6e-05,-0.00016,-0.00011,3,2
12864,9e-05,3e-05,0,-1e-05,-9e-05,-5e-05,3e-05,5e-05,3,2
12865,-7e-05,-4e-05,-3e-05,-2e-05,-4e-05,-3e-05,4e-05,6e-05,3,2
12866,-7e-05,-4e-05,-3e-05,-2e-05,-4e-05,-3e-05,4e-05,6e-05,3,2
12867,-7e-05,-4e-05,-3e-05,-2e-05,-4e-05,-3e-05,4e-05,6e-05,3,2
12868,-7e-05,-4e-05,-3e-05,-2e-05,-4e-05,-3e-05,4e-05,6e-05,3,2
12869,-7e-05,-4e-05,-3e-05,-2e-05,-4e-05,-3e-05,4e-05,6e-05,3,2
12870,-7e-05,-4e-05,-3e-05,-2e-05,-4e-05,-3e-05,4e-05,6e-05,3,2
12871,-7e-05,-4e-05,-3e-05,-2e-05,-4e-05,-3e-05,4e-05,6e-05,3,2
12872,-7e-05,-4e-05,-3e-05,-2e-05,-4e-05,-3e-05,4e-05,6e-05,3,2
12873,-7e-05,-4e-05,-3e-05,-2e-05,-4e-05,-3e-05,4e-05,6e-05,3,2
12874,-7e-05,-4e-05,-3e-05,-2e-05,-4e-05,-3e-05,4e-05,6e-05,3,2
12875,-7e-05,-4e-05,-3e-05,-2e-05,-4e-05,-3e-05,4e-05,6e-05,3,2
12876,-7e-05,-4e-05,-3e-05,-2e-05,-4e-05,-3e-05,4e-05,6e-05,3,2
12877,-3e-05,0,-1e-05,0,0.0001,-3e-05,-0.0001,-0.0001,3,2
12878,-3e-05,0,-1e-05,0,0.0001,-3e-05,-0.0001,-0.0001,3,2
12879,-3e-05,0,-1e-05,0,0.0001,-3e-05,-0.0001,-0.0001,3,2
12880,-3e-05,0,-1e-05,0,0.0001,-3e-05,-0.0001,-0.0001,3,2
12881,-3e-05,0,-1e-05,0,0.0001,-3e-05,-0.0001,-0.0001,3,2
12882,-3e-05,0,-1e-05,0,0.0001,-3e-05,-0.0001,-0.0001,3,2
12883,-3e-05,0,-1e-05,0,0.0001,-3e-05,-0.0001,-0.0001,3,2
12884,-3e-05,0,-1e-05,0,0.0001,-3e-05,-0.0001,-0.0001,3,2
12885,-3e-05,0,-1e-05,0,0.0001,-3e-05,-0.0001,-0.0001,3,2
12886,-0.00024,-0.0001,-5e-05,-4e-05,-8e-05,-6e-05,-0.00012,-0.00022,3,2
12888,-0.00024,-0.0001,-5e-05,-4e-05,-8e-05,-6e-05,-0.00012,-0.00022,3,2
12889,-0.00024,-0.0001,-5e-05,-4e-05,-8e-05,-6e-05,-0.00012,-0.00022,3,2
12891,-0.00024,-0.0001,-5e-05,-4e-05,-8e-05,-6e-05,-0.00012,-0.00022,3,2
12892,-0.00024,-0.0001,-5e-05,-4e-05,-8e-05,-6e-05,-0.00012,-0.00022,3,2
12893,-0.00024,-0.0001,-5e-05,-4e-05,-8e-05,-6e-05,-0.00012,-0.00022,3,2
12894,-0.00024,-0.0001,-5e-05,-4e-05,-8e-05,-6e-05,-0.00012,-0.00022,3,2
12895,-0.00024,-0.0001,-5e-05,-4e-05,-8e-05,-6e-05,-0.00012,-0.00022,3,2
12896,-0.00024,-0.0001,-5e-05,-4e-05,-8e-05,-6e-05,-0.00012,-0.00022,3,2
12897,-0.00024,-0.0001,-5e-05,-4e-05,-8e-05,-6e-05,-0.00012,-0.00022,3,2
12898,-0.00024,-0.0001,-5e-05,-4e-05,-8e-05,-6e-05,-0.00012,-0.00022,3,2
12899,-0.00024,-0.0001,-5e-05,-4e-05,-8e-05,-6e-05,-0.00012,-0.00022,3,2
12900,-0.00024,-0.0001,-5e-05,-4e-05,-8e-05,-6e-05,-0.00012,-0.00022,3,2
12901,-6e-05,-2e-05,0,-4e-05,-8e-05,-1e-05,0,3e-05,3,2
12902,-6e-05,-2e-05,0,-4e-05,-8e-05,-1e-05,0,3e-05,3,2
12903,0.00013,1e-05,3e-05,0,-2e-05,7e-05,0.00045,-2e-05,3,2
12904,0.00013,1e-05,3e-05,0,-2e-05,7e-05,0.00045,-2e-05,3,2
12905,0.00013,1e-05,3e-05,0,-2e-05,7e-05,0.00045,-2e-05,3,2
12906,0.00013,1e-05,3e-05,0,-2e-05,7e-05,0.00045,-2e-05,3,2
12907,0.00013,1e-05,3e-05,0,-2e-05,7e-05,0.00045,-2e-05,3,2
12908,0.00013,1e-05,3e-05,0,-2e-05,7e-05,0.00045,-2e-05,3,2
12909,0.00013,1e-05,3e-05,0,-2e-05,7e-05,0.00045,-2e-05,3,2
12910,0.00013,1e-05,3e-05,0,-2e-05,7e-05,0.00045,-2e-05,3,2
12911,0.00013,1e-05,3e-05,0,-2e-05,7e-05,0.00045,-2e-05,3,2
12912,0.00013,1e-05,3e-05,0,-2e-05,7e-05,0.00045,-2e-05,3,2
12913,0.00013,1e-05,3e-05,0,-2e-05,7e-05,0.00045,-2e-05,3,2
12914,0.00013,1e-05,3e-05,0,-2e-05,7e-05,0.00045,-2e-05,3,2
12915,0.00013,1e-05,3e-05,0,-2e-05,7e-05,0.00045,-2e-05,3,2
12916,0.00013,1e-05,3e-05,0,-2e-05,7e-05,0.00045,-2e-05,3,2
12917,0.00013,1e-05,3e-05,0,-2e-05,7e-05,0.00045,-2e-05,3,2
12918,0.00013,1e-05,3e-05,0,-2e-05,7e-05,0.00045,-2e-05,3,2
12919,0.00013,1e-05,3e-05,0,-2e-05,7e-05,0.00045,-2e-05,3,2
12920,0.00013,1e-05,3e-05,0,-2e-05,7e-05,0.00045,-2e-05,3,2
12921,0.00013,1e-05,3e-05,0,-2e-05,7e-05,0.00045,-2e-05,3,2
12922,0.00013,1e-05,3e-05,0,-2e-05,7e-05,0.00045,-2e-05,3,2
12923,0.00013,1e-05,3e-05,0,-2e-05,7e-05,0.00045,-2e-05,3,2
12924,0.00017,1e-05,-3e-05,-3e-05,0,3e-05,6e-05,1e-05,3,2
12925,0.0002,3e-05,0,0,4e-05,2e-05,3e-05,4e-05,3,2
12926,0.0002,3e-05,0,0,4e-05,2e-05,3e-05,4e-05,3,2
12927,0.0002,3e-05,0,0,4e-05,2e-05,3e-05,4e-05,3,2
12928,0.0002,3e-05,0,0,4e-05,2e-05,3e-05,4e-05,3,2
12929,0.0002,3e-05,0,0,4e-05,2e-05,3e-05,4e-05,3,2
12930,0.0002,3e-05,0,0,4e-05,2e-05,3e-05,4e-05,3,2
12931,0.0002,3e-05,0,0,4e-05,2e-05,3e-05,4e-05,3,2
12932,0.0002,3e-05,0,0,4e-05,2e-05,3e-05,4e-05,3,2
12933,0.0002,3e-05,0,0,4e-05,2e-05,3e-05,4e-05,3,2
12934,0.0002,3e-05,0,0,4e-05,2e-05,3e-05,4e-05,3,2
12935,0.0002,3e-05,0,0,4e-05,2e-05,3e-05,4e-05,3,2
12937,4e-05,0,0,4e-05,2e-05,-1e-05,-5e-05,-1e-05,3,2
12939,4e-05,0,0,4e-05,2e-05,-1e-05,-5e-05,-1e-05,3,2
12940,4e-05,0,0,4e-05,2e-05,-1e-05,-5e-05,-1e-05,3,2
12941,4e-05,0,0,4e-05,2e-05,-1e-05,-5e-05,-1e-05,3,2
12942,4e-05,0,0,4e-05,2e-05,-1e-05,-5e-05,-1e-05,3,2
12943,4e-05,0,0,4e-05,2e-05,-1e-05,-5e-05,-1e-05,3,2
12944,4e-05,0,0,4e-05,2e-05,-1e-05,-5e-05,-1e-05,3,2
12945,4e-05,0,0,4e-05,2e-05,-1e-05,-5e-05,-1e-05,3,2
12946,-5e-05,-1e-05,2e-05,-2e-05,2e-05,0.00016,-0.00021,0.00011,3,2
12947,-5e-05,-1e-05,2e-05,-2e-05,2e-05,0.00016,-0.00021,0.00011,3,2
12948,-5e-05,-1e-05,2e-05,-2e-05,2e-05,0.00016,-0.00021,0.00011,3,2
12949,-5e-05,-1e-05,2e-05,-2e-05,2e-05,0.00016,-0.00021,0.00011,3,2
12950,-5e-05,-1e-05,2e-05,-2e-05,2e-05,0.00016,-0.00021,0.00011,3,2
12951,-5e-05,-1e-05,2e-05,-2e-05,2e-05,0.00016,-0.00021,0.00011,3,2
12952,-5e-05,-1e-05,2e-05,-2e-05,2e-05,0.00016,-0.00021,0.00011,3,2
12953,-5e-05,-1e-05,2e-05,-2e-05,2e-05,0.00016,-0.00021,0.00011,3,2
12954,-5e-05,-1e-05,2e-05,-2e-05,2e-05,0.00016,-0.00021,0.00011,3,2
12955,-5e-05,-1e-05,2e-05,-2e-05,2e-05,0.00016,-0.00021,0.00011,3,2
12956,-5e-05,-1e-05,2e-05,-2e-05,2e-05,0.00016,-0.00021,0.00011,3,2
12957,-5e-05,-1e-05,2e-05,-2e-05,2e-05,0.00016,-0.00021,0.00011,3,2
12958,-5e-05,-1e-05,2e-05,-2e-05,2e-05,0.00016,-0.00021,0.00011,3,2
12959,-5e-05,-1e-05,2e-05,-2e-05,2e-05,0.00016,-0.00021,0.00011,3,2
12960,-5e-05,-1e-05,2e-05,-2e-05,2e-05,0.00016,-0.00021,0.00011,3,2
12961,-2e-05,0,-4e-05,-3e-05,-7e-05,-5e-05,-2e-05,0.00018,3,2
12962,-2e-05,0,-4e-05,-3e-05,-7e-05,-5e-05,-2e-05,0.00018,3,2
12963,7e-05,4e-05,-2e-05,-1e-05,-9e-05,-0.00011,4e-05,-1e-05,3,2
12964,7e-05,4e-05,-2e-05,-1e-05,-9e-05,-0.00011,4e-05,-1e-05,3,2
12965,7e-05,4e-05,-2e-05,-1e-05,-9e-05,-0.00011,4e-05,-1e-05,3,2
12966,7e-05,4e-05,-2e-05,-1e-05,-9e-05,-0.00011,4e-05,-1e-05,3,2
12967,7e-05,4e-05,-2e-05,-1e-05,-9e-05,-0.00011,4e-05,-1e-05,3,2
12968,7e-05,4e-05,-2e-05,-1e-05,-9e-05,-0.00011,4e-05,-1e-05,3,2
12969,7e-05,4e-05,-2e-05,-1e-05,-9e-05,-0.00011,4e-05,-1e-05,3,2
12970,7e-05,4e-05,-2e-05,-1e-05,-9e-05,-0.00011,4e-05,-1e-05,3,2
12971,7e-05,4e-05,-2e-05,-1e-05,-9e-05,-0.00011,4e-05,-1e-05,3,2
12972,7e-05,4e-05,-2e-05,-1e-05,-9e-05,-0.00011,4e-05,-1e-05,3,2
12973,7e-05,4e-05,-2e-05,-1e-05,-9e-05,-0.00011,4e-05,-1e-05,3,2
12974,7e-05,4e-05,-2e-05,-1e-05,-9e-05,-0.00011,4e-05,-1e-05,3,2
12975,7e-05,4e-05,-2e-05,-1e-05,-9e-05,-0.00011,4e-05,-1e-05,3,2
12976,7e-05,4e-05,-2e-05,-1e-05,-9e-05,-0.00011,4e-05,-1e-05,3,2
12977,7e-05,4e-05,-2e-05,-1e-05,-9e-05,-0.00011,4e-05,-1e-05,3,2
12978,7e-05,4e-05,-2e-05,-1e-05,-9e-05,-0.00011,4e-05,-1e-05,3,2
12979,7e-05,4e-05,-2e-05,-1e-05,-9e-05,-0.00011,4e-05,-1e-05,3,2
12980,7e-05,4e-05,-2e-05,-1e-05,-9e-05,-0.00011,4e-05,-1e-05,3,2
12981,7e-05,4e-05,-2e-05,-1e-05,-9e-05,-0.00011,4e-05,-1e-05,3,2
12982,7e-05,4e-05,-2e-05,-1e-05,-9e-05,-0.00011,4e-05,-1e-05,3,2
12983,-8e-05,-4e-05,-2e-05,-3e-05,-6e-05,0,-4e-05,-2e-05,3,2
12984,-8e-05,-4e-05,-2e-05,-3e-05,-6e-05,0,-4e-05,-2e-05,3,2
12985,0.00045,0.00011,1e-05,-3e-05,2e-05,-2e-05,-0.00015,0,3,2
12986,0.00045,0.00011,1e-05,-3e-05,2e-05,-2e-05,-0.00015,0,3,2
12988,0.00045,0.00011,1e-05,-3e-05,2e-05,-2e-05,-0.00015,0,3,2
12989,0.00045,0.00011,1e-05,-3e-05,2e-05,-2e-05,-0.00015,0,3,2
12990,0.00045,0.00011,1e-05,-3e-05,2e-05,-2e-05,-0.00015,0,3,2
12991,0.00045,0.00011,1e-05,-3e-05,2e-05,-2e-05,-0.00015,0,3,2
12992,0.00045,0.00011,1e-05,-3e-05,2e-05,-2e-05,-0.00015,0,3,2
12993,0.00045,0.00011,1e-05,-3e-05,2e-05,-2e-05,-0.00015,0,3,2
12994,0.00045,0.00011,1e-05,-3e-05,2e-05,-2e-05,-0.00015,0,3,2
12995,0.00045,0.00011,1e-05,-3e-05,2e-05,-2e-05,-0.00015,0,3,2
12996,0.00045,0.00011,1e-05,-3e-05,2e-05,-2e-05,-0.00015,0,3,2
12997,9e-05,9e-05,2e-05,5e-05,-3e-05,5e-05,9e-05,-4e-05,3,2
12998,9e-05,9e-05,2e-05,5e-05,-3e-05,5e-05,9e-05,-4e-05,3,2
12999,9e-05,9e-05,2e-05,5e-05,-3e-05,5e-05,9e-05,-4e-05,3,2
13000,9e-05,9e-05,2e-05,5e-05,-3e-05,5e-05,9e-05,-4e-05,3,2
13001,9e-05,9e-05,2e-05,5e-05,-3e-05,5e-05,9e-05,-4e-05,3,2
13002,9e-05,9e-05,2e-05,5e-05,-3e-05,5e-05,9e-05,-4e-05,3,2
13003,9e-05,9e-05,2e-05,5e-05,-3e-05,5e-05,9e-05,-4e-05,3,2
13004,9e-05,9e-05,2e-05,5e-05,-3e-05,5e-05,9e-05,-4e-05,3,2
13005,9e-05,9e-05,2e-05,5e-05,-3e-05,5e-05,9e-05,-4e-05,3,2
13006,-0.00013,-2e-05,-1e-05,4e-05,-5e-05,-8e-05,-0.00012,0.0001,3,2
13007,-0.00013,-2e-05,-1e-05,4e-05,-5e-05,-8e-05,-0.00012,0.0001,3,2
13008,-0.00013,-2e-05,-1e-05,4e-05,-5e-05,-8e-05,-0.00012,0.0001,3,2
13009,-0.00013,-2e-05,-1e-05,4e-05,-5e-05,-8e-05,-0.00012,0.0001,3,2
13010,-0.00013,-2e-05,-1e-05,4e-05,-5e-05,-8e-05,-0.00012,0.0001,3,2
13011,-0.00013,-2e-05,-1e-05,4e-05,-5e-05,-8e-05,-0.00012,0.0001,3,2
13012,-0.00013,-2e-05,-1e-05,4e-05,-5e-05,-8e-05,-0.00012,0.0001,3,2
13013,-0.00013,-2e-05,-1e-05,4e-05,-5e-05,-8e-05,-0.00012,0.0001,3,2
13014,-0.00013,-2e-05,-1e-05,4e-05,-5e-05,-8e-05,-0.00012,0.0001,3,2
13015,-0.00013,-2e-05,-1e-05,4e-05,-5e-05,-8e-05,-0.00012,0.0001,3,2
13016,-0.00013,-2e-05,-1e-05,4e-05,-5e-05,-8e-05,-0.00012,0.0001,3,2
13017,-0.00013,-2e-05,-1e-05,4e-05,-5e-05,-8e-05,-0.00012,0.0001,3,2
13018,-0.00013,-2e-05,-1e-05,4e-05,-5e-05,-8e-05,-0.00012,0.0001,3,2
13019,-0.00013,-2e-05,-1e-05,4e-05,-5e-05,-8e-05,-0.00012,0.0001,3,2
13020,-0.00013,-2e-05,-1e-05,4e-05,-5e-05,-8e-05,-0.00012,0.0001,3,2
13021,0.00028,0,-2e-05,-5e-05,-3e-05,-4e-05,-2e-05,1e-05,3,2
13022,0.00028,0,-2e-05,-5e-05,-3e-05,-4e-05,-2e-05,1e-05,3,2
13023,-5e-05,-8e-05,-5e-05,-9e-05,-0.00016,-2e-05,0.00016,-8e-05,3,2
13024,-5e-05,-8e-05,-5e-05,-9e-05,-0.00016,-2e-05,0.00016,-8e-05,3,2
13025,-5e-05,-8e-05,-5e-05,-9e-05,-0.00016,-2e-05,0.00016,-8e-05,3,2
13026,-5e-05,-8e-05,-5e-05,-9e-05,-0.00016,-2e-05,0.00016,-8e-05,3,2
13027,-5e-05,-8e-05,-5e-05,-9e-05,-0.00016,-2e-05,0.00016,-8e-05,3,2
13028,-5e-05,-8e-05,-5e-05,-9e-05,-0.00016,-2e-05,0.00016,-8e-05,3,2
13030,-5e-05,-8e-05,-5e-05,-9e-05,-0.00016,-2e-05,0.00016,-8e-05,3,2
13031,-5e-05,-8e-05,-5e-05,-9e-05,-0.00016,-2e-05,0.00016,-8e-05,3,2
13032,-5e-05,-8e-05,-5e-05,-9e-05,-0.00016,-2e-05,0.00016,-8e-05,3,2
13033,-5e-05,-8e-05,-5e-05,-9e-05,-0.00016,-2e-05,0.00016,-8e-05,3,2
13034,-5e-05,-8e-05,-5e-05,-9e-05,-0.00016,-2e-05,0.00016,-8e-05,3,2
13035,-5e-05,-8e-05,-5e-05,-9e-05,-0.00016,-2e-05,0.00016,-8e-05,3,2
13036,-5e-05,-8e-05,-5e-05,-9e-05,-0.00016,-2e-05,0.00016,-8e-05,3,2
13038,-5e-05,-8e-05,-5e-05,-9e-05,-0.00016,-2e-05,0.00016,-8e-05,3,2
13039,-5e-05,-8e-05,-5e-05,-9e-05,-0.00016,-2e-05,0.00016,-8e-05,3,2
13040,-5e-05,-8e-05,-5e-05,-9e-05,-0.00016,-2e-05,0.00016,-8e-05,3,2
13041,-5e-05,-8e-05,-5e-05,-9e-05,-0.00016,-2e-05,0.00016,-8e-05,3,2
13042,-5e-05,-8e-05,-5e-05,-9e-05,-0.00016,-2e-05,0.00016,-8e-05,3,2
13043,-0.00019,-3e-05,-2e-05,-3e-05,-4e-05,-6e-05,-0.00012,-0.0001,3,2
13044,-0.00019,-3e-05,-2e-05,-3e-05,-4e-05,-6e-05,-0.00012,-0.0001,3,2
13045,-0.00024,-6e-05,1e-05,1e-05,-3e-05,-4e-05,-7e-05,-6e-05,3,2
13046,-0.00024,-6e-05,1e-05,1e-05,-3e-05,-4e-05,-7e-05,-6e-05,3,2
13047,-0.00024,-6e-05,1e-05,1e-05,-3e-05,-4e-05,-7e-05,-6e-05,3,2
13048,-0.00024,-6e-05,1e-05,1e-05,-3e-05,-4e-05,-7e-05,-6e-05,3,2
13049,-0.00024,-6e-05,1e-05,1e-05,-3e-05,-4e-05,-7e-05,-6e-05,3,2
13050,-0.00024,-6e-05,1e-05,1e-05,-3e-05,-4e-05,-7e-05,-6e-05,3,2
13051,-0.00024,-6e-05,1e-05,1e-05,-3e-05,-4e-05,-7e-05,-6e-05,3,2
13052,-0.00024,-6e-05,1e-05,1e-05,-3e-05,-4e-05,-7e-05,-6e-05,3,2
13053,-0.00024,-6e-05,1e-05,1e-05,-3e-05,-4e-05,-7e-05,-6e-05,3,2
13054,-0.00024,-6e-05,1e-05,1e-05,-3e-05,-4e-05,-7e-05,-6e-05,3,2
13055,-0.00024,-6e-05,1e-05,1e-05,-3e-05,-4e-05,-7e-05,-6e-05,3,2
13056,-0.00024,-6e-05,1e-05,1e-05,-3e-05,-4e-05,-7e-05,-6e-05,3,2
13057,-3e-05,-1e-05,-3e-05,-3e-05,-1e-05,1e-05,-0.00011,0,3,2
13058,-3e-05,-1e-05,-3e-05,-3e-05,-1e-05,1e-05,-0.00011,0,3,2
13059,-3e-05,-1e-05,-3e-05,-3e-05,-1e-05,1e-05,-0.00011,0,3,2
13060,-3e-05,-1e-05,-3e-05,-3e-05,-1e-05,1e-05,-0.00011,0,3,2
13061,-3e-05,-1e-05,-3e-05,-3e-05,-1e-05,1e-05,-0.00011,0,3,2
13062,-3e-05,-1e-05,-3e-05,-3e-05,-1e-05,1e-05,-0.00011,0,3,2
13063,-3e-05,-1e-05,-3e-05,-3e-05,-1e-05,1e-05,-0.00011,0,3,2
13064,-3e-05,-1e-05,-3e-05,-3e-05,-1e-05,1e-05,-0.00011,0,3,2
13065,-3e-05,-1e-05,-3e-05,-3e-05,-1e-05,1e-05,-0.00011,0,3,2
13066,-0.00023,2e-05,2e-05,4e-05,6e-05,-4e-05,-4e-05,0.00026,3,2
13067,-0.00023,2e-05,2e-05,4e-05,6e-05,-4e-05,-4e-05,0.00026,3,2
13068,-0.00023,2e-05,2e-05,4e-05,6e-05,-4e-05,-4e-05,0.00026,3,2
13069,-0.00023,2e-05,2e-05,4e-05,6e-05,-4e-05,-4e-05,0.00026,3,2
13070,-0.00023,2e-05,2e-05,4e-05,6e-05,-4e-05,-4e-05,0.00026,3,2
13071,-0.00023,2e-05,2e-05,4e-05,6e-05,-4e-05,-4e-05,0.00026,3,2
13072,-0.00023,2e-05,2e-05,4e-05,6e-05,-4e-05,-4e-05,0.00026,3,2
13073,-0.00023,2e-05,2e-05,4e-05,6e-05,-4e-05,-4e-05,0.00026,3,2
13074,-0.00023,2e-05,2e-05,4e-05,6e-05,-4e-05,-4e-05,0.00026,3,2
13075,-0.00023,2e-05,2e-05,4e-05,6e-05,-4e-05,-4e-05,0.00026,3,2
13076,-0.00023,2e-05,2e-05,4e-05,6e-05,-4e-05,-4e-05,0.00026,3,2
13077,-0.00023,2e-05,2e-05,4e-05,6e-05,-4e-05,-4e-05,0.00026,3,2
13078,-0.00023,2e-05,2e-05,4e-05,6e-05,-4e-05,-4e-05,0.00026,3,2
13079,-0.00023,2e-05,2e-05,4e-05,6e-05,-4e-05,-4e-05,0.00026,3,2
13080,-0.00023,2e-05,2e-05,4e-05,6e-05,-4e-05,-4e-05,0.00026,3,2
13081,-4e-05,2e-05,0,1e-05,3e-05,-6e-05,0.00024,0.00014,3,2
13082,-0.00065,-0.00022,-9e-05,-0.00011,-7e-05,0.00015,-4e-05,-7e-05,3,2
13083,9e-05,2e-05,2e-05,5e-05,-2e-05,-4e-05,-1e-05,5e-05,3,2
13084,9e-05,2e-05,2e-05,5e-05,-2e-05,-4e-05,-1e-05,5e-05,3,2
13085,9e-05,2e-05,2e-05,5e-05,-2e-05,-4e-05,-1e-05,5e-05,3,2
13086,9e-05,2e-05,2e-05,5e-05,-2e-05,-4e-05,-1e-05,5e-05,3,2
13088,9e-05,2e-05,2e-05,5e-05,-2e-05,-4e-05,-1e-05,5e-05,3,2
13089,9e-05,2e-05,2e-05,5e-05,-2e-05,-4e-05,-1e-05,5e-05,3,2
13090,9e-05,2e-05,2e-05,5e-05,-2e-05,-4e-05,-1e-05,5e-05,3,2
13091,9e-05,2e-05,2e-05,5e-05,-2e-05,-4e-05,-1e-05,5e-05,3,2
13092,9e-05,2e-05,2e-05,5e-05,-2e-05,-4e-05,-1e-05,5e-05,3,2
13093,9e-05,2e-05,2e-05,5e-05,-2e-05,-4e-05,-1e-05,5e-05,3,2
13094,9e-05,2e-05,2e-05,5e-05,-2e-05,-4e-05,-1e-05,5e-05,3,2
13095,9e-05,2e-05,2e-05,5e-05,-2e-05,-4e-05,-1e-05,5e-05,3,2
13096,9e-05,2e-05,2e-05,5e-05,-2e-05,-4e-05,-1e-05,5e-05,3,2
13097,9e-05,2e-05,2e-05,5e-05,-2e-05,-4e-05,-1e-05,5e-05,3,2
13098,9e-05,2e-05,2e-05,5e-05,-2e-05,-4e-05,-1e-05,5e-05,3,2
13099,9e-05,2e-05,2e-05,5e-05,-2e-05,-4e-05,-1e-05,5e-05,3,2
13100,9e-05,2e-05,2e-05,5e-05,-2e-05,-4e-05,-1e-05,5e-05,3,2
13101,9e-05,2e-05,2e-05,5e-05,-2e-05,-4e-05,-1e-05,5e-05,3,2
13102,9e-05,2e-05,2e-05,5e-05,-2e-05,-4e-05,-1e-05,5e-05,3,2
13103,9e-05,2e-05,2e-05,5e-05,-2e-05,-4e-05,-1e-05,5e-05,3,2
13104,-0.00021,-5e-05,-5e-05,-5e-05,-5e-05,-0.00014,-0.00039,-0.00021,3,2
13105,-8e-05,-8e-05,-6e-05,-8e-05,-4e-05,-3e-05,-8e-05,-0.00014,3,2
13106,-8e-05,-8e-05,-6e-05,-8e-05,-4e-05,-3e-05,-8e-05,-0.00014,3,2
13107,-8e-05,-8e-05,-6e-05,-8e-05,-4e-05,-3e-05,-8e-05,-0.00014,3,2
13108,-8e-05,-8e-05,-6e-05,-8e-05,-4e-05,-3e-05,-8e-05,-0.00014,3,2
13109,-8e-05,-8e-05,-6e-05,-8e-05,-4e-05,-3e-05,-8e-05,-0.00014,3,2
13110,-8e-05,-8e-05,-6e-05,-8e-05,-4e-05,-3e-05,-8e-05,-0.00014,3,2
13111,-8e-05,-8e-05,-6e-05,-8e-05,-4e-05,-3e-05,-8e-05,-0.00014,3,2
13112,-8e-05,-8e-05,-6e-05,-8e-05,-4e-05,-3e-05,-8e-05,-0.00014,3,2
13113,-8e-05,-8e-05,-6e-05,-8e-05,-4e-05,-3e-05,-8e-05,-0.00014,3,2
13114,-8e-05,-8e-05,-6e-05,-8e-05,-4e-05,-3e-05,-8e-05,-0.00014,3,2
13115,-8e-05,-8e-05,-6e-05,-8e-05,-4e-05,-3e-05,-8e-05,-0.00014,3,2
13116,-8e-05,-8e-05,-6e-05,-8e-05,-4e-05,-3e-05,-8e-05,-0.00014,3,2
13117,-5e-05,-3e-05,-1e-05,-3e-05,2e-05,4e-05,1e-05,-2e-05,3,2
13118,-5e-05,-3e-05,-1e-05,-3e-05,2e-05,4e-05,1e-05,-2e-05,3,2
13119,-5e-05,-3e-05,-1e-05,-3e-05,2e-05,4e-05,1e-05,-2e-05,3,2
13120,-5e-05,-3e-05,-1e-05,-3e-05,2e-05,4e-05,1e-05,-2e-05,3,2
13121,-5e-05,-3e-05,-1e-05,-3e-05,2e-05,4e-05,1e-05,-2e-05,3,2
13122,-5e-05,-3e-05,-1e-05,-3e-05,2e-05,4e-05,1e-05,-2e-05,3,2
13123,-5e-05,-3e-05,-1e-05,-3e-05,2e-05,4e-05,1e-05,-2e-05,3,2
13124,-5e-05,-3e-05,-1e-05,-3e-05,2e-05,4e-05,1e-05,-2e-05,3,2
13125,-5e-05,-3e-05,-1e-05,-3e-05,2e-05,4e-05,1e-05,-2e-05,3,2
13126,-0.00011,0,1e-05,2e-05,6e-05,6e-05,4e-05,-0.00017,3,2
13127,-0.00011,0,1e-05,2e-05,6e-05,6e-05,4e-05,-0.00017,3,2
13128,-0.00011,0,1e-05,2e-05,6e-05,6e-05,4e-05,-0.00017,3,2
13129,-0.00011,0,1e-05,2e-05,6e-05,6e-05,4e-05,-0.00017,3,2
13130,-0.00011,0,1e-05,2e-05,6e-05,6e-05,4e-05,-0.00017,3,2
13131,-0.00011,0,1e-05,2e-05,6e-05,6e-05,4e-05,-0.00017,3,2
13132,-0.00011,0,1e-05,2e-05,6e-05,6e-05,4e-05,-0.00017,3,2
13133,-0.00011,0,1e-05,2e-05,6e-05,6e-05,4e-05,-0.00017,3,2
13134,-0.00011,0,1e-05,2e-05,6e-05,6e-05,4e-05,-0.00017,3,2
13135,-0.00011,0,1e-05,2e-05,6e-05,6e-05,4e-05,-0.00017,3,2
13136,-0.00011,0,1e-05,2e-05,6e-05,6e-05,4e-05,-0.00017,3,2
13138,-0.00011,0,1e-05,2e-05,6e-05,6e-05,4e-05,-0.00017,3,2
13139,-0.00011,0,1e-05,2e-05,6e-05,6e-05,4e-05,-0.00017,3,2
13140,-0.00011,0,1e-05,2e-05,6e-05,6e-05,4e-05,-0.00017,3,2
13141,-0.0001,-4e-05,-2e-05,-2e-05,4e-05,1e-05,-2e-05,-9e-05,3,2
13142,-0.0001,-4e-05,-2e-05,-2e-05,4e-05,1e-05,-2e-05,-9e-05,3,2
13143,0.00034,5e-05,0,1e-05,1e-05,7e-05,0,0.0002,3,2
13144,0.00034,5e-05,0,1e-05,1e-05,7e-05,0,0.0002,3,2
13145,0.00034,5e-05,0,1e-05,1e-05,7e-05,0,0.0002,3,2
13146,0.00034,5e-05,0,1e-05,1e-05,7e-05,0,0.0002,3,2
13147,0.00034,5e-05,0,1e-05,1e-05,7e-05,0,0.0002,3,2
13148,0.00034,5e-05,0,1e-05,1e-05,7e-05,0,0.0002,3,2
13149,0.00034,5e-05,0,1e-05,1e-05,7e-05,0,0.0002,3,2
13150,0.00034,5e-05,0,1e-05,1e-05,7e-05,0,0.0002,3,2
13151,0.00034,5e-05,0,1e-05,1e-05,7e-05,0,0.0002,3,2
13152,0.00034,5e-05,0,1e-05,1e-05,7e-05,0,0.0002,3,2
13153,0.00034,5e-05,0,1e-05,1e-05,7e-05,0,0.0002,3,2
13154,0.00034,5e-05,0,1e-05,1e-05,7e-05,0,0.0002,3,2
13155,0.00034,5e-05,0,1e-05,1e-05,7e-05,0,0.0002,3,2
13156,0.00034,5e-05,0,1e-05,1e-05,7e-05,0,0.0002,3,2
13157,0.00034,5e-05,0,1e-05,1e-05,7e-05,0,0.0002,3,2
13158,0.00034,5e-05,0,1e-05,1e-05,7e-05,0,0.0002,3,2
13159,0.00034,5e-05,0,1e-05,1e-05,7e-05,0,0.0002,3,2
13160,0.00034,5e-05,0,1e-05,1e-05,7e-05,0,0.0002,3,2
13161,0.00034,5e-05,0,1e-05,1e-05,7e-05,0,0.0002,3,2
13162,0.00034,5e-05,0,1e-05,1e-05,7e-05,0,0.0002,3,2
13163,0.00034,5e-05,0,1e-05,1e-05,7e-05,0,0.0002,3,2
13164,-5e-05,-8e-05,-2e-05,-2e-05,-7e-05,-3e-05,-0.00027,4e-05,3,2
13165,2e-05,0,-2e-05,-1e-05,-2e-05,7e-05,0.00025,-2e-05,3,2
13166,2e-05,0,-2e-05,-1e-05,-2e-05,7e-05,0.00025,-2e-05,3,2
13167,2e-05,0,-2e-05,-1e-05,-2e-05,7e-05,0.00025,-2e-05,3,2
13168,2e-05,0,-2e-05,-1e-05,-2e-05,7e-05,0.00025,-2e-05,3,2
13169,2e-05,0,-2e-05,-1e-05,-2e-05,7e-05,0.00025,-2e-05,3,2
13170,2e-05,0,-2e-05,-1e-05,-2e-05,7e-05,0.00025,-2e-05,3,2
13171,2e-05,0,-2e-05,-1e-05,-2e-05,7e-05,0.00025,-2e-05,3,2
13172,2e-05,0,-2e-05,-1e-05,-2e-05,7e-05,0.00025,-2e-05,3,2
13173,2e-05,0,-2e-05,-1e-05,-2e-05,7e-05,0.00025,-2e-05,3,2
13174,2e-05,0,-2e-05,-1e-05,-2e-05,7e-05,0.00025,-2e-05,3,2
13175,2e-05,0,-2e-05,-1e-05,-2e-05,7e-05,0.00025,-2e-05,3,2
13176,2e-05,0,-2e-05,-1e-05,-2e-05,7e-05,0.00025,-2e-05,3,2
13177,2e-05,0,-2e-05,-1e-05,-2e-05,7e-05,0.00025,-2e-05,3,2
13178,2e-05,0,-2e-05,-1e-05,-2e-05,7e-05,0.00025,-2e-05,3,2
13179,2e-05,0,-2e-05,-1e-05,-2e-05,7e-05,0.00025,-2e-05,3,2
13180,2e-05,0,-2e-05,-1e-05,-2e-05,7e-05,0.00025,-2e-05,3,2
13181,2e-05,0,-2e-05,-1e-05,-2e-05,7e-05,0.00025,-2e-05,3,2
13182,2e-05,0,-2e-05,-1e-05,-2e-05,7e-05,0.00025,-2e-05,3,2
13183,2e-05,0,-2e-05,-1e-05,-2e-05,7e-05,0.00025,-2e-05,3,2
13184,2e-05,0,-2e-05,-1e-05,-2e-05,7e-05,0.00025,-2e-05,3,2
13185,2e-05,0,-2e-05,-1e-05,-2e-05,7e-05,0.00025,-2e-05,3,2
13186,-0.00016,-1e-05,0,-4e-05,-6e-05,1e-05,-6e-05,-8e-05,3,2
13188,0.00014,3e-05,-1e-05,-1e-05,0,-3e-05,-1e-05,5e-05,3,2
13189,0.00014,3e-05,-1e-05,-1e-05,0,-3e-05,-1e-05,5e-05,3,2
13190,0.00014,3e-05,-1e-05,-1e-05,0,-3e-05,-1e-05,5e-05,3,2
13191,0.00014,3e-05,-1e-05,-1e-05,0,-3e-05,-1e-05,5e-05,3,2
13192,0.00014,3e-05,-1e-05,-1e-05,0,-3e-05,-1e-05,5e-05,3,2
13193,0.00014,3e-05,-1e-05,-1e-05,0,-3e-05,-1e-05,5e-05,3,2
13194,0.00014,3e-05,-1e-05,-1e-05,0,-3e-05,-1e-05,5e-05,3,2
13195,0.00014,3e-05,-1e-05,-1e-05,0,-3e-05,-1e-05,5e-05,3,2
13196,0.00014,3e-05,-1e-05,-1e-05,0,-3e-05,-1e-05,5e-05,3,2
13197,0.00014,3e-05,-1e-05,-1e-05,0,-3e-05,-1e-05,5e-05,3,2
13198,0.00014,3e-05,-1e-05,-1e-05,0,-3e-05,-1e-05,5e-05,3,2
13199,0.00014,3e-05,-1e-05,-1e-05,0,-3e-05,-1e-05,5e-05,3,2
13200,0.00014,3e-05,-1e-05,-1e-05,0,-3e-05,-1e-05,5e-05,3,2
13201,-0.0005,-0.00017,-7e-05,-7e-05,-1e-05,0.00017,0.0001,-5e-05,3,2
13202,0.00023,5e-05,4e-05,5e-05,6e-05,7e-05,2e-05,0.00012,3,2
13203,-0.00035,-8e-05,-2e-05,-1e-05,7e-05,6e-05,0.00014,-0.0001,3,2
13204,-0.00035,-8e-05,-2e-05,-1e-05,7e-05,6e-05,0.00014,-0.0001,3,2
13205,-0.00035,-8e-05,-2e-05,-1e-05,7e-05,6e-05,0.00014,-0.0001,3,2
13206,-0.00035,-8e-05,-2e-05,-1e-05,7e-05,6e-05,0.00014,-0.0001,3,2
13207,-0.00035,-8e-05,-2e-05,-1e-05,7e-05,6e-05,0.00014,-0.0001,3,2
13208,-0.00035,-8e-05,-2e-05,-1e-05,7e-05,6e-05,0.00014,-0.0001,3,2
13209,-0.00035,-8e-05,-2e-05,-1e-05,7e-05,6e-05,0.00014,-0.0001,3,2
13210,-0.00035,-8e-05,-2e-05,-1e-05,7e-05,6e-05,0.00014,-0.0001,3,2
13211,-0.00035,-8e-05,-2e-05,-1e-05,7e-05,6e-05,0.00014,-0.0001,3,2
13212,-0.00035,-8e-05,-2e-05,-1e-05,7e-05,6e-05,0.00014,-0.0001,3,2
13213,-0.00035,-8e-05,-2e-05,-1e-05,7e-05,6e-05,0.00014,-0.0001,3,2
13214,-0.00035,-8e-05,-2e-05,-1e-05,7e-05,6e-05,0.00014,-0.0001,3,2
13215,-0.00035,-8e-05,-2e-05,-1e-05,7e-05,6e-05,0.00014,-0.0001,3,2
13216,-0.00035,-8e-05,-2e-05,-1e-05,7e-05,6e-05,0.00014,-0.0001,3,2
13217,-0.00035,-8e-05,-2e-05,-1e-05,7e-05,6e-05,0.00014,-0.0001,3,2
13218,-0.00035,-8e-05,-2e-05,-1e-05,7e-05,6e-05,0.00014,-0.0001,3,2
13219,-0.00035,-8e-05,-2e-05,-1e-05,7e-05,6e-05,0.00014,-0.0001,3,2
13220,-0.00035,-8e-05,-2e-05,-1e-05,7e-05,6e-05,0.00014,-0.0001,3,2
13221,-0.00035,-8e-05,-2e-05,-1e-05,7e-05,6e-05,0.00014,-0.0001,3,2
13222,-0.00035,-8e-05,-2e-05,-1e-05,7e-05,6e-05,0.00014,-0.0001,3,2
13223,-0.00035,-8e-05,-2e-05,-1e-05,7e-05,6e-05,0.00014,-0.0001,3,2
13224,0.00012,1e-05,-3e-05,0,-7e-05,-4e-05,-5e-05,-9e-05,3,2
13225,-6e-05,-3e-05,-4e-05,-4e-05,-8e-05,-7e-05,-0.00019,-0.00011,3,2
13226,-6e-05,-3e-05,-4e-05,-4e-05,-8e-05,-7e-05,-0.00019,-0.00011,3,2
13227,-6e-05,-3e-05,-4e-05,-4e-05,-8e-05,-7e-05,-0.00019,-0.00011,3,2
13228,-6e-05,-3e-05,-4e-05,-4e-05,-8e-05,-7e-05,-0.00019,-0.00011,3,2
13229,-6e-05,-3e-05,-4e-05,-4e-05,-8e-05,-7e-05,-0.00019,-0.00011,3,2
13230,-6e-05,-3e-05,-4e-05,-4e-05,-8e-05,-7e-05,-0.00019,-0.00011,3,2
13231,-6e-05,-3e-05,-4e-05,-4e-05,-8e-05,-7e-05,-0.00019,-0.00011,3,2
13232,-6e-05,-3e-05,-4e-05,-4e-05,-8e-05,-7e-05,-0.00019,-0.00011,3,2
13233,-6e-05,-3e-05,-4e-05,-4e-05,-8e-05,-7e-05,-0.00019,-0.00011,3,2
13234,-6e-05,-3e-05,-4e-05,-4e-05,-8e-05,-7e-05,-0.00019,-0.00011,3,2
13235,-6e-05,-3e-05,-4e-05,-4e-05,-8e-05,-7e-05,-0.00019,-0.00011,3,2
13236,-6e-05,-3e-05,-4e-05,-4e-05,-8e-05,-7e-05,-0.00019,-0.00011,3,2
13238,-6e-05,-3e-05,-4e-05,-4e-05,-8e-05,-7e-05,-0.00019,-0.00011,3,2
13239,-6e-05,-3e-05,-4e-05,-4e-05,-8e-05,-7e-05,-0.00019,-0.00011,3,2
13240,-6e-05,-3e-05,-4e-05,-4e-05,-8e-05,-7e-05,-0.00019,-0.00011,3,2
13241,-6e-05,-3e-05,-4e-05,-4e-05,-8e-05,-7e-05,-0.00019,-0.00011,3,2
13242,-6e-05,-3e-05,-4e-05,-4e-05,-8e-05,-7e-05,-0.00019,-0.00011,3,2
13243,-6e-05,-3e-05,-4e-05,-4e-05,-8e-05,-7e-05,-0.00019,-0.00011,3,2
13244,-6e-05,-3e-05,-4e-05,-4e-05,-8e-05,-7e-05,-0.00019,-0.00011,3,2
13245,-6e-05,-3e-05,-4e-05,-4e-05,-8e-05,-7e-05,-0.00019,-0.00011,3,2
13246,0.00033,4e-05,2e-05,2e-05,1e-05,1e-05,7e-05,6e-05,3,2
13247,-0.00041,-3e-05,-7e-05,-8e-05,-0.00016,-0.00012,-0.00017,-0.00057,3,2
13248,-0.00016,-7e-05,-2e-05,-4e-05,2e-05,0,0.00027,9e-05,3,2
13249,-0.00016,-7e-05,-2e-05,-4e-05,2e-05,0,0.00027,9e-05,3,2
13250,-0.00016,-7e-05,-2e-05,-4e-05,2e-05,0,0.00027,9e-05,3,2
13251,-0.00016,-7e-05,-2e-05,-4e-05,2e-05,0,0.00027,9e-05,3,2
13252,-0.00016,-7e-05,-2e-05,-4e-05,2e-05,0,0.00027,9e-05,3,2
13253,-0.00016,-7e-05,-2e-05,-4e-05,2e-05,0,0.00027,9e-05,3,2
13254,-0.00016,-7e-05,-2e-05,-4e-05,2e-05,0,0.00027,9e-05,3,2
13255,-0.00016,-7e-05,-2e-05,-4e-05,2e-05,0,0.00027,9e-05,3,2
13256,-0.00016,-7e-05,-2e-05,-4e-05,2e-05,0,0.00027,9e-05,3,2
13257,-0.00016,-7e-05,-2e-05,-4e-05,2e-05,0,0.00027,9e-05,3,2
13258,-0.00016,-7e-05,-2e-05,-4e-05,2e-05,0,0.00027,9e-05,3,2
13259,-0.00016,-7e-05,-2e-05,-4e-05,2e-05,0,0.00027,9e-05,3,2
13260,-2e-05,4e-05,4e-05,5e-05,0.00014,-1e-05,0.00012,-0.0001,3,2
13261,-2e-05,4e-05,4e-05,5e-05,0.00014,-1e-05,0.00012,-0.0001,3,2
13262,-2e-05,4e-05,4e-05,5e-05,0.00014,-1e-05,0.00012,-0.0001,3,2
13263,-2e-05,4e-05,4e-05,5e-05,0.00014,-1e-05,0.00012,-0.0001,3,2
13264,-2e-05,4e-05,4e-05,5e-05,0.00014,-1e-05,0.00012,-0.0001,3,2
13265,-2e-05,4e-05,4e-05,5e-05,0.00014,-1e-05,0.00012,-0.0001,3,2
13266,-2e-05,4e-05,4e-05,5e-05,0.00014,-1e-05,0.00012,-0.0001,3,2
13267,-0.00024,-2e-05,0,-1e-05,1e-05,2e-05,-0.00035,-0.00016,3,2
13268,-0.00024,-2e-05,0,-1e-05,1e-05,2e-05,-0.00035,-0.00016,3,2
13269,-0.00024,-2e-05,0,-1e-05,1e-05,2e-05,-0.00035,-0.00016,3,2
13270,-0.00024,-2e-05,0,-1e-05,1e-05,2e-05,-0.00035,-0.00016,3,2
13271,-0.00024,-2e-05,0,-1e-05,1e-05,2e-05,-0.00035,-0.00016,3,2
13272,-0.00024,-2e-05,0,-1e-05,1e-05,2e-05,-0.00035,-0.00016,3,2
13273,-0.00024,-2e-05,0,-1e-05,1e-05,2e-05,-0.00035,-0.00016,3,2
13274,-0.00024,-2e-05,0,-1e-05,1e-05,2e-05,-0.00035,-0.00016,3,2
13275,-0.00024,-2e-05,0,-1e-05,1e-05,2e-05,-0.00035,-0.00016,3,2
13276,-0.00024,-2e-05,0,-1e-05,1e-05,2e-05,-0.00035,-0.00016,3,2
13277,-0.00024,-2e-05,0,-1e-05,1e-05,2e-05,-0.00035,-0.00016,3,2
13278,-0.00024,-2e-05,0,-1e-05,1e-05,2e-05,-0.00035,-0.00016,3,2
13279,-0.00024,-2e-05,0,-1e-05,1e-05,2e-05,-0.00035,-0.00016,3,2
13280,-0.00024,-2e-05,0,-1e-05,1e-05,2e-05,-0.00035,-0.00016,3,2
13281,-0.00024,-2e-05,0,-1e-05,1e-05,2e-05,-0.00035,-0.00016,3,2
13282,-0.00024,-2e-05,0,-1e-05,1e-05,2e-05,-0.00035,-0.00016,3,2
13283,-4e-05,2e-05,0,0,-4e-05,-4e-05,0.00032,8e-05,3,2
13284,0.00015,0,0,-1e-05,-3e-05,-3e-05,-1e-05,3e-05,3,2
13285,-0.00068,-0.00012,-2e-05,-3e-05,4e-05,-2e-05,-0.00011,-0.00012,3,2
13286,-0.00068,-0.00012,-2e-05,-3e-05,4e-05,-2e-05,-0.00011,-0.00012,3,2
13288,-0.00068,-0.00012,-2e-05,-3e-05,4e-05,-2e-05,-0.00011,-0.00012,3,2
13289,-0.00068,-0.00012,-2e-05,-3e-05,4e-05,-2e-05,-0.00011,-0.00012,3,2
13290,-0.00068,-0.00012,-2e-05,-3e-05,4e-05,-2e-05,-0.00011,-0.00012,3,2
13291,-0.00068,-0.00012,-2e-05,-3e-05,4e-05,-2e-05,-0.00011,-0.00012,3,2
13292,-0.00068,-0.00012,-2e-05,-3e-05,4e-05,-2e-05,-0.00011,-0.00012,3,2
13293,-0.00068,-0.00012,-2e-05,-3e-05,4e-05,-2e-05,-0.00011,-0.00012,3,2
13294,-0.00068,-0.00012,-2e-05,-3e-05,4e-05,-2e-05,-0.00011,-0.00012,3,2
13295,-0.00068,-0.00012,-2e-05,-3e-05,4e-05,-2e-05,-0.00011,-0.00012,3,2
13296,-0.00068,-0.00012,-2e-05,-3e-05,4e-05,-2e-05,-0.00011,-0.00012,3,2
13297,-0.00068,-0.00012,-2e-05,-3e-05,4e-05,-2e-05,-0.00011,-0.00012,3,2
13298,-0.00068,-0.00012,-2e-05,-3e-05,4e-05,-2e-05,-0.00011,-0.00012,3,2
13299,-0.00068,-0.00012,-2e-05,-3e-05,4e-05,-2e-05,-0.00011,-0.00012,3,2
13300,-0.00068,-0.00012,-2e-05,-3e-05,4e-05,-2e-05,-0.00011,-0.00012,3,2
13301,-0.00068,-0.00012,-2e-05,-3e-05,4e-05,-2e-05,-0.00011,-0.00012,3,2
13302,-0.00068,-0.00012,-2e-05,-3e-05,4e-05,-2e-05,-0.00011,-0.00012,3,2
13303,-0.00068,-0.00012,-2e-05,-3e-05,4e-05,-2e-05,-0.00011,-0.00012,3,2
13304,-0.00068,-0.00012,-2e-05,-3e-05,4e-05,-2e-05,-0.00011,-0.00012,3,2
13305,-0.00068,-0.00012,-2e-05,-3e-05,4e-05,-2e-05,-0.00011,-0.00012,3,2
13306,6e-05,1e-05,0,0,-4e-05,2e-05,0.0002,0.00011,3,2
13307,6e-05,1e-05,0,0,-4e-05,2e-05,0.0002,0.00011,3,2
13308,0.00045,6e-05,0,-1e-05,-5e-05,4e-05,-4e-05,4e-05,3,2
13309,0.00045,6e-05,0,-1e-05,-5e-05,4e-05,-4e-05,4e-05,3,2
13310,0.00045,6e-05,0,-1e-05,-5e-05,4e-05,-4e-05,4e-05,3,2
13311,0.00045,6e-05,0,-1e-05,-5e-05,4e-05,-4e-05,4e-05,3,2
13312,0.00045,6e-05,0,-1e-05,-5e-05,4e-05,-4e-05,4e-05,3,2
13313,0.00045,6e-05,0,-1e-05,-5e-05,4e-05,-4e-05,4e-05,3,2
13314,0.00045,6e-05,0,-1e-05,-5e-05,4e-05,-4e-05,4e-05,3,2
13315,0.00045,6e-05,0,-1e-05,-5e-05,4e-05,-4e-05,4e-05,3,2
13316,0.00045,6e-05,0,-1e-05,-5e-05,4e-05,-4e-05,4e-05,3,2
13317,0.00045,6e-05,0,-1e-05,-5e-05,4e-05,-4e-05,4e-05,3,2
13318,0.00045,6e-05,0,-1e-05,-5e-05,4e-05,-4e-05,4e-05,3,2
13319,0.00045,6e-05,0,-1e-05,-5e-05,4e-05,-4e-05,4e-05,3,2
13320,0.00045,6e-05,0,-1e-05,-5e-05,4e-05,-4e-05,4e-05,3,2
13321,-5e-05,1e-05,0,-3e-05,-3e-05,-5e-05,-0.00014,-6e-05,3,2
13322,-5e-05,1e-05,0,-3e-05,-3e-05,-5e-05,-0.00014,-6e-05,3,2
13323,-5e-05,1e-05,0,-3e-05,-3e-05,-5e-05,-0.00014,-6e-05,3,2
13324,-5e-05,1e-05,0,-3e-05,-3e-05,-5e-05,-0.00014,-6e-05,3,2
13325,-5e-05,1e-05,0,-3e-05,-3e-05,-5e-05,-0.00014,-6e-05,3,2
13326,-5e-05,1e-05,0,-3e-05,-3e-05,-5e-05,-0.00014,-6e-05,3,2
13327,-5e-05,1e-05,0,-3e-05,-3e-05,-5e-05,-0.00014,-6e-05,3,2
13328,-5e-05,1e-05,0,-3e-05,-3e-05,-5e-05,-0.00014,-6e-05,3,2
13329,-4e-05,1e-05,3e-05,6e-05,0.00013,-2e-05,0.0002,-0.00014,3,2
13330,-4e-05,1e-05,3e-05,6e-05,0.00013,-2e-05,0.0002,-0.00014,3,2
13331,-4e-05,1e-05,3e-05,6e-05,0.00013,-2e-05,0.0002,-0.00014,3,2
13332,-4e-05,1e-05,3e-05,6e-05,0.00013,-2e-05,0.0002,-0.00014,3,2
13333,-4e-05,1e-05,3e-05,6e-05,0.00013,-2e-05,0.0002,-0.00014,3,2
13334,-4e-05,1e-05,3e-05,6e-05,0.00013,-2e-05,0.0002,-0.00014,3,2
13335,-4e-05,1e-05,3e-05,6e-05,0.00013,-2e-05,0.0002,-0.00014,3,2
13336,-4e-05,1e-05,3e-05,6e-05,0.00013,-2e-05,0.0002,-0.00014,3,2
13338,-4e-05,1e-05,3e-05,6e-05,0.00013,-2e-05,0.0002,-0.00014,3,2
13339,-4e-05,1e-05,3e-05,6e-05,0.00013,-2e-05,0.0002,-0.00014,3,2
13340,-4e-05,1e-05,3e-05,6e-05,0.00013,-2e-05,0.0002,-0.00014,3,2
13341,-4e-05,1e-05,3e-05,6e-05,0.00013,-2e-05,0.0002,-0.00014,3,2
13342,-4e-05,1e-05,3e-05,6e-05,0.00013,-2e-05,0.0002,-0.00014,3,2
13343,5e-05,5e-05,1e-05,3e-05,-2e-05,2e-05,-0.0001,8e-05,3,2
13344,4e-05,1e-05,-3e-05,0,-1e-05,0,-1e-05,-0.00018,3,2
13345,4e-05,1e-05,-3e-05,0,-1e-05,0,-1e-05,-0.00018,3,2
13346,0.00017,3e-05,1e-05,-1e-05,-6e-05,-0.00012,-0.00012,-1e-05,3,2
13347,0.00017,3e-05,1e-05,-1e-05,-6e-05,-0.00012,-0.00012,-1e-05,3,2
13348,0.00017,3e-05,1e-05,-1e-05,-6e-05,-0.00012,-0.00012,-1e-05,3,2
13349,0.00017,3e-05,1e-05,-1e-05,-6e-05,-0.00012,-0.00012,-1e-05,3,2
13350,0.00017,3e-05,1e-05,-1e-05,-6e-05,-0.00012,-0.00012,-1e-05,3,2
13351,0.00017,3e-05,1e-05,-1e-05,-6e-05,-0.00012,-0.00012,-1e-05,3,2
13352,0.00017,3e-05,1e-05,-1e-05,-6e-05,-0.00012,-0.00012,-1e-05,3,2
13353,0.00017,3e-05,1e-05,-1e-05,-6e-05,-0.00012,-0.00012,-1e-05,3,2
13354,0.00017,3e-05,1e-05,-1e-05,-6e-05,-0.00012,-0.00012,-1e-05,3,2
13355,0.00017,3e-05,1e-05,-1e-05,-6e-05,-0.00012,-0.00012,-1e-05,3,2
13356,0.00017,3e-05,1e-05,-1e-05,-6e-05,-0.00012,-0.00012,-1e-05,3,2
13357,0.00017,3e-05,1e-05,-1e-05,-6e-05,-0.00012,-0.00012,-1e-05,3,2
13358,0.00017,3e-05,1e-05,-1e-05,-6e-05,-0.00012,-0.00012,-1e-05,3,2
13359,0.00017,3e-05,1e-05,-1e-05,-6e-05,-0.00012,-0.00012,-1e-05,3,2
13360,0.00017,3e-05,1e-05,-1e-05,-6e-05,-0.00012,-0.00012,-1e-05,3,2
13361,0.00017,3e-05,1e-05,-1e-05,-6e-05,-0.00012,-0.00012,-1e-05,3,2
13363,0.00017,3e-05,1e-05,-1e-05,-6e-05,-0.00012,-0.00012,-1e-05,3,2
13364,0.00017,3e-05,1e-05,-1e-05,-6e-05,-0.00012,-0.00012,-1e-05,3,2
13365,0.00017,3e-05,1e-05,-1e-05,-6e-05,-0.00012,-0.00012,-1e-05,3,2
13366,0.0002,6e-05,4e-05,3e-05,4e-05,-3e-05,0.00022,0.00012,3,2
13367,0.0002,6e-05,4e-05,3e-05,4e-05,-3e-05,0.00022,0.00012,3,2
13368,0.00027,3e-05,-4e-05,-3e-05,0,-5e-05,-9e-05,6e-05,3,2
13369,0.00027,3e-05,-4e-05,-3e-05,0,-5e-05,-9e-05,6e-05,3,2
13370,0.00027,3e-05,-4e-05,-3e-05,0,-5e-05,-9e-05,6e-05,3,2
13371,0.00027,3e-05,-4e-05,-3e-05,0,-5e-05,-9e-05,6e-05,3,2
13372,0.00027,3e-05,-4e-05,-3e-05,0,-5e-05,-9e-05,6e-05,3,2
13373,0.00027,3e-05,-4e-05,-3e-05,0,-5e-05,-9e-05,6e-05,3,2
13374,0.00027,3e-05,-4e-05,-3e-05,0,-5e-05,-9e-05,6e-05,3,2
13375,0.00027,3e-05,-4e-05,-3e-05,0,-5e-05,-9e-05,6e-05,3,2
13376,0.00027,3e-05,-4e-05,-3e-05,0,-5e-05,-9e-05,6e-05,3,2
13377,0.00027,3e-05,-4e-05,-3e-05,0,-5e-05,-9e-05,6e-05,3,2
13378,0.00027,3e-05,-4e-05,-3e-05,0,-5e-05,-9e-05,6e-05,3,2
13379,0.00027,3e-05,-4e-05,-3e-05,0,-5e-05,-9e-05,6e-05,3,2
13380,-4e-05,2e-05,-1e-05,0,2e-05,0.00011,-0.00018,-7e-05,3,2
13381,-4e-05,2e-05,-1e-05,0,2e-05,0.00011,-0.00018,-7e-05,3,2
13382,-4e-05,2e-05,-1e-05,0,2e-05,0.00011,-0.00018,-7e-05,3,2
13383,-4e-05,2e-05,-1e-05,0,2e-05,0.00011,-0.00018,-7e-05,3,2
13384,-4e-05,2e-05,-1e-05,0,2e-05,0.00011,-0.00018,-7e-05,3,2
13385,-4e-05,2e-05,-1e-05,0,2e-05,0.00011,-0.00018,-7e-05,3,2
13386,-4e-05,2e-05,-1e-05,0,2e-05,0.00011,-0.00018,-7e-05,3,2
13388,-0.0001,1e-05,-1e-05,-5e-05,-5e-05,1e-05,-0.00011,-9e-05,3,2
13389,-0.0001,1e-05,-1e-05,-5e-05,-5e-05,1e-05,-0.00011,-9e-05,3,2
13390,-0.0001,1e-05,-1e-05,-5e-05,-5e-05,1e-05,-0.00011,-9e-05,3,2
13391,-0.0001,1e-05,-1e-05,-5e-05,-5e-05,1e-05,-0.00011,-9e-05,3,2
13392,-0.0001,1e-05,-1e-05,-5e-05,-5e-05,1e-05,-0.00011,-9e-05,3,2
13393,-0.0001,1e-05,-1e-05,-5e-05,-5e-05,1e-05,-0.00011,-9e-05,3,2
13394,-0.0001,1e-05,-1e-05,-5e-05,-5e-05,1e-05,-0.00011,-9e-05,3,2
13395,-0.0001,1e-05,-1e-05,-5e-05,-5e-05,1e-05,-0.00011,-9e-05,3,2
13396,-0.0001,1e-05,-1e-05,-5e-05,-5e-05,1e-05,-0.00011,-9e-05,3,2
13397,-0.0001,1e-05,-1e-05,-5e-05,-5e-05,1e-05,-0.00011,-9e-05,3,2
13398,-0.0001,1e-05,-1e-05,-5e-05,-5e-05,1e-05,-0.00011,-9e-05,3,2
13399,-0.0001,1e-05,-1e-05,-5e-05,-5e-05,1e-05,-0.00011,-9e-05,3,2
13400,-0.0001,1e-05,-1e-05,-5e-05,-5e-05,1e-05,-0.00011,-9e-05,3,2
13401,-0.0001,1e-05,-1e-05,-5e-05,-5e-05,1e-05,-0.00011,-9e-05,3,2
13402,-0.0001,1e-05,-1e-05,-5e-05,-5e-05,1e-05,-0.00011,-9e-05,3,2
13403,-0.00025,-8e-05,-2e-05,-1e-05,4e-05,6e-05,0.0002,-2e-05,3,2
13404,-0.00018,0,4e-05,3e-05,0.0001,-1e-05,-6e-05,-7e-05,3,2
13405,0.00015,-4e-05,-3e-05,-2e-05,-0.00012,-0.0001,-3e-05,9e-05,3,2
13407,0.00015,-4e-05,-3e-05,-2e-05,-0.00012,-0.0001,-3e-05,9e-05,3,2
13408,0.00015,-4e-05,-3e-05,-2e-05,-0.00012,-0.0001,-3e-05,9e-05,3,2
13409,0.00015,-4e-05,-3e-05,-2e-05,-0.00012,-0.0001,-3e-05,9e-05,3,2
13410,0.00015,-4e-05,-3e-05,-2e-05,-0.00012,-0.0001,-3e-05,9e-05,3,2
13411,0.00015,-4e-05,-3e-05,-2e-05,-0.00012,-0.0001,-3e-05,9e-05,3,2
13412,0.00015,-4e-05,-3e-05,-2e-05,-0.00012,-0.0001,-3e-05,9e-05,3,2
13413,0.00015,-4e-05,-3e-05,-2e-05,-0.00012,-0.0001,-3e-05,9e-05,3,2
13414,0.00015,-4e-05,-3e-05,-2e-05,-0.00012,-0.0001,-3e-05,9e-05,3,2
13415,0.00015,-4e-05,-3e-05,-2e-05,-0.00012,-0.0001,-3e-05,9e-05,3,2
13416,0.00015,-4e-05,-3e-05,-2e-05,-0.00012,-0.0001,-3e-05,9e-05,3,2
13417,0.00015,-4e-05,-3e-05,-2e-05,-0.00012,-0.0001,-3e-05,9e-05,3,2
13418,0.00015,-4e-05,-3e-05,-2e-05,-0.00012,-0.0001,-3e-05,9e-05,3,2
13419,0.00015,-4e-05,-3e-05,-2e-05,-0.00012,-0.0001,-3e-05,9e-05,3,2
13420,0.00015,-4e-05,-3e-05,-2e-05,-0.00012,-0.0001,-3e-05,9e-05,3,2
13421,0.00015,-4e-05,-3e-05,-2e-05,-0.00012,-0.0001,-3e-05,9e-05,3,2
13422,0.00015,-4e-05,-3e-05,-2e-05,-0.00012,-0.0001,-3e-05,9e-05,3,2
13423,0.00015,-4e-05,-3e-05,-2e-05,-0.00012,-0.0001,-3e-05,9e-05,3,2
13424,0.00015,-4e-05,-3e-05,-2e-05,-0.00012,-0.0001,-3e-05,9e-05,3,2
13425,0.00015,-4e-05,-3e-05,-2e-05,-0.00012,-0.0001,-3e-05,9e-05,3,2
13426,-6e-05,-4e-05,-3e-05,0,5e-05,1e-05,4e-05,-0.00017,3,2
13427,-6e-05,-4e-05,-3e-05,0,5e-05,1e-05,4e-05,-0.00017,3,2
13428,-3e-05,-3e-05,-1e-05,-2e-05,9e-05,3e-05,-3e-05,-0.00011,3,2
13429,-3e-05,-3e-05,-1e-05,-2e-05,9e-05,3e-05,-3e-05,-0.00011,3,2
13430,-3e-05,-3e-05,-1e-05,-2e-05,9e-05,3e-05,-3e-05,-0.00011,3,2
13431,-3e-05,-3e-05,-1e-05,-2e-05,9e-05,3e-05,-3e-05,-0.00011,3,2
13432,-3e-05,-3e-05,-1e-05,-2e-05,9e-05,3e-05,-3e-05,-0.00011,3,2
13433,-3e-05,-3e-05,-1e-05,-2e-05,9e-05,3e-05,-3e-05,-0.00011,3,2
13434,-3e-05,-3e-05,-1e-05,-2e-05,9e-05,3e-05,-3e-05,-0.00011,3,2
13435,-3e-05,-3e-05,-1e-05,-2e-05,9e-05,3e-05,-3e-05,-0.00011,3,2
13436,-3e-05,-3e-05,-1e-05,-2e-05,9e-05,3e-05,-3e-05,-0.00011,3,2
13438,-3e-05,-3e-05,-1e-05,-2e-05,9e-05,3e-05,-3e-05,-0.00011,3,2
13439,-3e-05,-3e-05,-1e-05,-2e-05,9e-05,3e-05,-3e-05,-0.00011,3,2
13440,-3e-05,-3e-05,-1e-05,-2e-05,9e-05,3e-05,-3e-05,-0.00011,3,2
13441,-0.00011,-9e-05,-5e-05,-2e-05,-9e-05,-9e-05,-5e-05,0.00013,3,2
13442,-0.00011,-9e-05,-5e-05,-2e-05,-9e-05,-9e-05,-5e-05,0.00013,3,2
13443,-0.00011,-9e-05,-5e-05,-2e-05,-9e-05,-9e-05,-5e-05,0.00013,3,2
13444,-0.00011,-9e-05,-5e-05,-2e-05,-9e-05,-9e-05,-5e-05,0.00013,3,2
13445,-0.00011,-9e-05,-5e-05,-2e-05,-9e-05,-9e-05,-5e-05,0.00013,3,2
13446,-0.00011,-9e-05,-5e-05,-2e-05,-9e-05,-9e-05,-5e-05,0.00013,3,2
13447,7e-05,-3e-05,-7e-05,-4e-05,-6e-05,-8e-05,9e-05,-1e-05,3,2
13448,7e-05,-3e-05,-7e-05,-4e-05,-6e-05,-8e-05,9e-05,-1e-05,3,2
13449,7e-05,-3e-05,-7e-05,-4e-05,-6e-05,-8e-05,9e-05,-1e-05,3,2
13450,7e-05,-3e-05,-7e-05,-4e-05,-6e-05,-8e-05,9e-05,-1e-05,3,2
13451,7e-05,-3e-05,-7e-05,-4e-05,-6e-05,-8e-05,9e-05,-1e-05,3,2
13453,7e-05,-3e-05,-7e-05,-4e-05,-6e-05,-8e-05,9e-05,-1e-05,3,2
13454,7e-05,-3e-05,-7e-05,-4e-05,-6e-05,-8e-05,9e-05,-1e-05,3,2
13455,7e-05,-3e-05,-7e-05,-4e-05,-6e-05,-8e-05,9e-05,-1e-05,3,2
13456,7e-05,-3e-05,-7e-05,-4e-05,-6e-05,-8e-05,9e-05,-1e-05,3,2
13457,7e-05,-3e-05,-7e-05,-4e-05,-6e-05,-8e-05,9e-05,-1e-05,3,2
13458,7e-05,-3e-05,-7e-05,-4e-05,-6e-05,-8e-05,9e-05,-1e-05,3,2
13459,7e-05,-3e-05,-7e-05,-4e-05,-6e-05,-8e-05,9e-05,-1e-05,3,2
13460,7e-05,-3e-05,-7e-05,-4e-05,-6e-05,-8e-05,9e-05,-1e-05,3,2
13461,7e-05,-3e-05,-7e-05,-4e-05,-6e-05,-8e-05,9e-05,-1e-05,3,2
13462,7e-05,-3e-05,-7e-05,-4e-05,-6e-05,-8e-05,9e-05,-1e-05,3,2
13463,0.00016,2e-05,0,2e-05,8e-05,1e-05,-7e-05,9e-05,3,2
13464,9e-05,4e-05,2e-05,2e-05,0,-6e-05,3e-05,5e-05,3,2
13465,1e-05,1e-05,-2e-05,-1e-05,-0.00014,-4e-05,-5e-05,-2e-05,3,2
13466,1e-05,1e-05,-2e-05,-1e-05,-0.00014,-4e-05,-5e-05,-2e-05,3,2
13467,1e-05,1e-05,-2e-05,-1e-05,-0.00014,-4e-05,-5e-05,-2e-05,3,2
13468,1e-05,1e-05,-2e-05,-1e-05,-0.00014,-4e-05,-5e-05,-2e-05,3,2
13469,1e-05,1e-05,-2e-05,-1e-05,-0.00014,-4e-05,-5e-05,-2e-05,3,2
13470,1e-05,1e-05,-2e-05,-1e-05,-0.00014,-4e-05,-5e-05,-2e-05,3,2
13471,1e-05,1e-05,-2e-05,-1e-05,-0.00014,-4e-05,-5e-05,-2e-05,3,2
13472,1e-05,1e-05,-2e-05,-1e-05,-0.00014,-4e-05,-5e-05,-2e-05,3,2
13473,1e-05,1e-05,-2e-05,-1e-05,-0.00014,-4e-05,-5e-05,-2e-05,3,2
13474,1e-05,1e-05,-2e-05,-1e-05,-0.00014,-4e-05,-5e-05,-2e-05,3,2
13475,1e-05,1e-05,-2e-05,-1e-05,-0.00014,-4e-05,-5e-05,-2e-05,3,2
13476,1e-05,1e-05,-2e-05,-1e-05,-0.00014,-4e-05,-5e-05,-2e-05,3,2
13477,1e-05,1e-05,-2e-05,-1e-05,-0.00014,-4e-05,-5e-05,-2e-05,3,2
13478,1e-05,1e-05,-2e-05,-1e-05,-0.00014,-4e-05,-5e-05,-2e-05,3,2
13479,1e-05,1e-05,-2e-05,-1e-05,-0.00014,-4e-05,-5e-05,-2e-05,3,2
13480,1e-05,1e-05,-2e-05,-1e-05,-0.00014,-4e-05,-5e-05,-2e-05,3,2
13481,1e-05,1e-05,-2e-05,-1e-05,-0.00014,-4e-05,-5e-05,-2e-05,3,2
13482,1e-05,1e-05,-2e-05,-1e-05,-0.00014,-4e-05,-5e-05,-2e-05,3,2
13483,1e-05,1e-05,-2e-05,-1e-05,-0.00014,-4e-05,-5e-05,-2e-05,3,2
13484,1e-05,1e-05,-2e-05,-1e-05,-0.00014,-4e-05,-5e-05,-2e-05,3,2
13485,1e-05,1e-05,-2e-05,-1e-05,-0.00014,-4e-05,-5e-05,-2e-05,3,2
13486,0,4e-05,-2e-05,-2e-05,-2e-05,-8e-05,-9e-05,-1e-05,3,2
13488,-7e-05,-3e-05,-3e-05,0,-2e-05,2e-05,-6e-05,-1e-05,3,2
13489,-7e-05,-3e-05,-3e-05,0,-2e-05,2e-05,-6e-05,-1e-05,3,2
13490,-7e-05,-3e-05,-3e-05,0,-2e-05,2e-05,-6e-05,-1e-05,3,2
13491,-7e-05,-3e-05,-3e-05,0,-2e-05,2e-05,-6e-05,-1e-05,3,2
13492,-7e-05,-3e-05,-3e-05,0,-2e-05,2e-05,-6e-05,-1e-05,3,2
13493,-7e-05,-3e-05,-3e-05,0,-2e-05,2e-05,-6e-05,-1e-05,3,2
13494,-7e-05,-3e-05,-3e-05,0,-2e-05,2e-05,-6e-05,-1e-05,3,2
13495,-7e-05,-3e-05,-3e-05,0,-2e-05,2e-05,-6e-05,-1e-05,3,2
13496,-7e-05,-3e-05,-3e-05,0,-2e-05,2e-05,-6e-05,-1e-05,3,2
13497,-7e-05,-3e-05,-3e-05,0,-2e-05,2e-05,-6e-05,-1e-05,3,2
13498,-7e-05,-3e-05,-3e-05,0,-2e-05,2e-05,-6e-05,-1e-05,3,2
13499,-7e-05,-3e-05,-3e-05,0,-2e-05,2e-05,-6e-05,-1e-05,3,2
13500,4e-05,1e-05,1e-05,2e-05,3e-05,-3e-05,7e-05,0.00017,3,2
13501,8e-05,-3e-05,-2e-05,-3e-05,-7e-05,-0.00018,-0.00029,-0.00018,3,2
13502,8e-05,-3e-05,-2e-05,-3e-05,-7e-05,-0.00018,-0.00029,-0.00018,3,2
13503,8e-05,-3e-05,-2e-05,-3e-05,-7e-05,-0.00018,-0.00029,-0.00018,3,2
13504,8e-05,-3e-05,-2e-05,-3e-05,-7e-05,-0.00018,-0.00029,-0.00018,3,2
13505,8e-05,-3e-05,-2e-05,-3e-05,-7e-05,-0.00018,-0.00029,-0.00018,3,2
13506,8e-05,-3e-05,-2e-05,-3e-05,-7e-05,-0.00018,-0.00029,-0.00018,3,2
13507,-1e-05,3e-05,2e-05,1e-05,-1e-05,-1e-05,8e-05,9e-05,3,2
13508,-1e-05,3e-05,2e-05,1e-05,-1e-05,-1e-05,8e-05,9e-05,3,2
13509,-1e-05,3e-05,2e-05,1e-05,-1e-05,-1e-05,8e-05,9e-05,3,2
13510,-1e-05,3e-05,2e-05,1e-05,-1e-05,-1e-05,8e-05,9e-05,3,2
13511,-1e-05,3e-05,2e-05,1e-05,-1e-05,-1e-05,8e-05,9e-05,3,2
13512,-1e-05,3e-05,2e-05,1e-05,-1e-05,-1e-05,8e-05,9e-05,3,2
13513,-1e-05,3e-05,2e-05,1e-05,-1e-05,-1e-05,8e-05,9e-05,3,2
13514,-1e-05,3e-05,2e-05,1e-05,-1e-05,-1e-05,8e-05,9e-05,3,2
13515,-1e-05,3e-05,2e-05,1e-05,-1e-05,-1e-05,8e-05,9e-05,3,2
13516,-1e-05,3e-05,2e-05,1e-05,-1e-05,-1e-05,8e-05,9e-05,3,2
13517,-1e-05,3e-05,2e-05,1e-05,-1e-05,-1e-05,8e-05,9e-05,3,2
13518,-1e-05,3e-05,2e-05,1e-05,-1e-05,-1e-05,8e-05,9e-05,3,2
13519,-1e-05,3e-05,2e-05,1e-05,-1e-05,-1e-05,8e-05,9e-05,3,2
13520,-1e-05,3e-05,2e-05,1e-05,-1e-05,-1e-05,8e-05,9e-05,3,2
13521,-1e-05,3e-05,2e-05,1e-05,-1e-05,-1e-05,8e-05,9e-05,3,2
13522,-1e-05,3e-05,2e-05,1e-05,-1e-05,-1e-05,8e-05,9e-05,3,2
13523,-1e-05,3e-05,2e-05,1e-05,-1e-05,-1e-05,8e-05,9e-05,3,2
13524,-0.00014,-4e-05,3e-05,-2e-05,3e-05,7e-05,3e-05,0.00019,3,2
13525,4e-05,-6e-05,2e-05,2e-05,4e-05,-4e-05,-0.00043,-6e-05,3,2
13526,4e-05,-6e-05,2e-05,2e-05,4e-05,-4e-05,-0.00043,-6e-05,3,2
13527,4e-05,-6e-05,2e-05,2e-05,4e-05,-4e-05,-0.00043,-6e-05,3,2
13528,4e-05,-6e-05,2e-05,2e-05,4e-05,-4e-05,-0.00043,-6e-05,3,2
13529,4e-05,-6e-05,2e-05,2e-05,4e-05,-4e-05,-0.00043,-6e-05,3,2
13530,4e-05,-6e-05,2e-05,2e-05,4e-05,-4e-05,-0.00043,-6e-05,3,2
13531,4e-05,-6e-05,2e-05,2e-05,4e-05,-4e-05,-0.00043,-6e-05,3,2
13532,4e-05,-6e-05,2e-05,2e-05,4e-05,-4e-05,-0.00043,-6e-05,3,2
13533,4e-05,-6e-05,2e-05,2e-05,4e-05,-4e-05,-0.00043,-6e-05,3,2
13534,4e-05,-6e-05,2e-05,2e-05,4e-05,-4e-05,-0.00043,-6e-05,3,2
13535,4e-05,-6e-05,2e-05,2e-05,4e-05,-4e-05,-0.00043,-6e-05,3,2
13536,4e-05,-6e-05,2e-05,2e-05,4e-05,-4e-05,-0.00043,-6e-05,3,2
13538,4e-05,-6e-05,2e-05,2e-05,4e-05,-4e-05,-0.00043,-6e-05,3,2
13539,4e-05,-6e-05,2e-05,2e-05,4e-05,-4e-05,-0.00043,-6e-05,3,2
13540,4e-05,-6e-05,2e-05,2e-05,4e-05,-4e-05,-0.00043,-6e-05,3,2
13541,4e-05,-6e-05,2e-05,2e-05,4e-05,-4e-05,-0.00043,-6e-05,3,2
13542,4e-05,-6e-05,2e-05,2e-05,4e-05,-4e-05,-0.00043,-6e-05,3,2
13543,4e-05,-6e-05,2e-05,2e-05,4e-05,-4e-05,-0.00043,-6e-05,3,2
13545,4e-05,-6e-05,2e-05,2e-05,4e-05,-4e-05,-0.00043,-6e-05,3,2
13546,-0.0002,1e-05,1e-05,3e-05,5e-05,0.00017,0.00018,0.0003,3,2
13547,-0.0002,1e-05,1e-05,3e-05,5e-05,0.00017,0.00018,0.0003,3,2
13548,0.00014,0,-2e-05,-4e-05,-0.0001,3e-05,7e-05,0.0001,3,2
13549,0.00014,0,-2e-05,-4e-05,-0.0001,3e-05,7e-05,0.0001,3,2
13550,0.00014,0,-2e-05,-4e-05,-0.0001,3e-05,7e-05,0.0001,3,2
13551,0.00014,0,-2e-05,-4e-05,-0.0001,3e-05,7e-05,0.0001,3,2
13552,0.00014,0,-2e-05,-4e-05,-0.0001,3e-05,7e-05,0.0001,3,2
13553,0.00014,0,-2e-05,-4e-05,-0.0001,3e-05,7e-05,0.0001,3,2
13554,0.00014,0,-2e-05,-4e-05,-0.0001,3e-05,7e-05,0.0001,3,2
13555,0.00014,0,-2e-05,-4e-05,-0.0001,3e-05,7e-05,0.0001,3,2
13556,0.00014,0,-2e-05,-4e-05,-0.0001,3e-05,7e-05,0.0001,3,2
13557,0.00014,0,-2e-05,-4e-05,-0.0001,3e-05,7e-05,0.0001,3,2
13558,0.00014,0,-2e-05,-4e-05,-0.0001,3e-05,7e-05,0.0001,3,2
13559,0.00014,0,-2e-05,-4e-05,-0.0001,3e-05,7e-05,0.0001,3,2
13560,-0.00021,-6e-05,-3e-05,-4e-05,-8e-05,-1e-05,3e-05,-3e-05,3,2
13561,-0.00021,-6e-05,-3e-05,-4e-05,-8e-05,-1e-05,3e-05,-3e-05,3,2
13562,-0.00021,-6e-05,-3e-05,-4e-05,-8e-05,-1e-05,3e-05,-3e-05,3,2
13563,-0.00021,-6e-05,-3e-05,-4e-05,-8e-05,-1e-05,3e-05,-3e-05,3,2
13564,-0.00021,-6e-05,-3e-05,-4e-05,-8e-05,-1e-05,3e-05,-3e-05,3,2
13565,-0.00021,-6e-05,-3e-05,-4e-05,-8e-05,-1e-05,3e-05,-3e-05,3,2
13566,-0.00021,-6e-05,-3e-05,-4e-05,-8e-05,-1e-05,3e-05,-3e-05,3,2
13567,-1e-05,2e-05,-2e-05,-3e-05,-2e-05,-5e-05,-0.00025,-0.0001,3,2
13568,-1e-05,2e-05,-2e-05,-3e-05,-2e-05,-5e-05,-0.00025,-0.0001,3,2
13569,-1e-05,2e-05,-2e-05,-3e-05,-2e-05,-5e-05,-0.00025,-0.0001,3,2
13570,-1e-05,2e-05,-2e-05,-3e-05,-2e-05,-5e-05,-0.00025,-0.0001,3,2
13571,-1e-05,2e-05,-2e-05,-3e-05,-2e-05,-5e-05,-0.00025,-0.0001,3,2
13572,-1e-05,2e-05,-2e-05,-3e-05,-2e-05,-5e-05,-0.00025,-0.0001,3,2
13573,-1e-05,2e-05,-2e-05,-3e-05,-2e-05,-5e-05,-0.00025,-0.0001,3,2
13574,-1e-05,2e-05,-2e-05,-3e-05,-2e-05,-5e-05,-0.00025,-0.0001,3,2
13575,-1e-05,2e-05,-2e-05,-3e-05,-2e-05,-5e-05,-0.00025,-0.0001,3,2
13576,-1e-05,2e-05,-2e-05,-3e-05,-2e-05,-5e-05,-0.00025,-0.0001,3,2
13577,-1e-05,2e-05,-2e-05,-3e-05,-2e-05,-5e-05,-0.00025,-0.0001,3,2
13578,-1e-05,2e-05,-2e-05,-3e-05,-2e-05,-5e-05,-0.00025,-0.0001,3,2
13579,-1e-05,2e-05,-2e-05,-3e-05,-2e-05,-5e-05,-0.00025,-0.0001,3,2
13580,-1e-05,2e-05,-2e-05,-3e-05,-2e-05,-5e-05,-0.00025,-0.0001,3,2
13581,-1e-05,2e-05,-2e-05,-3e-05,-2e-05,-5e-05,-0.00025,-0.0001,3,2
13582,-1e-05,2e-05,-2e-05,-3e-05,-2e-05,-5e-05,-0.00025,-0.0001,3,2
13583,-7e-05,-7e-05,-2e-05,0,3e-05,0.0001,0.00017,-6e-05,3,2
13584,0,-2e-05,-6e-05,-6e-05,-0.00023,0.00012,-0.00015,-9e-05,3,2
13585,2e-05,5e-05,1e-05,-2e-05,3e-05,2e-05,3e-05,-4e-05,3,2
13586,2e-05,5e-05,1e-05,-2e-05,3e-05,2e-05,3e-05,-4e-05,3,2
13588,2e-05,5e-05,1e-05,-2e-05,3e-05,2e-05,3e-05,-4e-05,3,2
13589,2e-05,5e-05,1e-05,-2e-05,3e-05,2e-05,3e-05,-4e-05,3,2
13590,2e-05,5e-05,1e-05,-2e-05,3e-05,2e-05,3e-05,-4e-05,3,2
13591,2e-05,5e-05,1e-05,-2e-05,3e-05,2e-05,3e-05,-4e-05,3,2
13592,2e-05,5e-05,1e-05,-2e-05,3e-05,2e-05,3e-05,-4e-05,3,2
13593,2e-05,5e-05,1e-05,-2e-05,3e-05,2e-05,3e-05,-4e-05,3,2
13594,2e-05,5e-05,1e-05,-2e-05,3e-05,2e-05,3e-05,-4e-05,3,2
13595,2e-05,5e-05,1e-05,-2e-05,3e-05,2e-05,3e-05,-4e-05,3,2
13596,2e-05,5e-05,1e-05,-2e-05,3e-05,2e-05,3e-05,-4e-05,3,2
13597,2e-05,5e-05,1e-05,-2e-05,3e-05,2e-05,3e-05,-4e-05,3,2
13598,2e-05,5e-05,1e-05,-2e-05,3e-05,2e-05,3e-05,-4e-05,3,2
13599,2e-05,5e-05,1e-05,-2e-05,3e-05,2e-05,3e-05,-4e-05,3,2
13600,2e-05,5e-05,1e-05,-2e-05,3e-05,2e-05,3e-05,-4e-05,3,2
13601,2e-05,5e-05,1e-05,-2e-05,3e-05,2e-05,3e-05,-4e-05,3,2
13602,2e-05,5e-05,1e-05,-2e-05,3e-05,2e-05,3e-05,-4e-05,3,2
13603,2e-05,5e-05,1e-05,-2e-05,3e-05,2e-05,3e-05,-4e-05,3,2
13604,2e-05,5e-05,1e-05,-2e-05,3e-05,2e-05,3e-05,-4e-05,3,2
13605,2e-05,5e-05,1e-05,-2e-05,3e-05,2e-05,3e-05,-4e-05,3,2
13606,6e-05,-2e-05,-3e-05,0,-3e-05,-0.0001,-8e-05,-7e-05,3,2
13607,6e-05,-2e-05,-3e-05,0,-3e-05,-0.0001,-8e-05,-7e-05,3,2
13608,0.00027,5e-05,2e-05,0,0,-3e-05,-0.00014,1e-05,3,2
13609,0.00027,5e-05,2e-05,0,0,-3e-05,-0.00014,1e-05,3,2
13610,0.00027,5e-05,2e-05,0,0,-3e-05,-0.00014,1e-05,3,2
13611,0.00027,5e-05,2e-05,0,0,-3e-05,-0.00014,1e-05,3,2
13612,0.00027,5e-05,2e-05,0,0,-3e-05,-0.00014,1e-05,3,2
13613,0.00027,5e-05,2e-05,0,0,-3e-05,-0.00014,1e-05,3,2
13614,0.00027,5e-05,2e-05,0,0,-3e-05,-0.00014,1e-05,3,2
13615,0.00027,5e-05,2e-05,0,0,-3e-05,-0.00014,1e-05,3,2
13616,0.00027,5e-05,2e-05,0,0,-3e-05,-0.00014,1e-05,3,2
13617,0.00027,5e-05,2e-05,0,0,-3e-05,-0.00014,1e-05,3,2
13618,0.00027,5e-05,2e-05,0,0,-3e-05,-0.00014,1e-05,3,2
13619,0.00027,5e-05,2e-05,0,0,-3e-05,-0.00014,1e-05,3,2
13620,0.00011,1e-05,2e-05,3e-05,0.0001,-4e-05,0.00013,-4e-05,3,2
13621,0.00011,1e-05,2e-05,3e-05,0.0001,-4e-05,0.00013,-4e-05,3,2
13622,0.00011,1e-05,2e-05,3e-05,0.0001,-4e-05,0.00013,-4e-05,3,2
13623,0.00011,1e-05,2e-05,3e-05,0.0001,-4e-05,0.00013,-4e-05,3,2
13624,0.00011,1e-05,2e-05,3e-05,0.0001,-4e-05,0.00013,-4e-05,3,2
13625,0.00011,1e-05,2e-05,3e-05,0.0001,-4e-05,0.00013,-4e-05,3,2
13626,0.00011,1e-05,2e-05,3e-05,0.0001,-4e-05,0.00013,-4e-05,3,2
13627,1e-05,6e-05,-1e-05,2e-05,4e-05,-3e-05,0.00014,-1e-05,3,2
13628,1e-05,6e-05,-1e-05,2e-05,4e-05,-3e-05,0.00014,-1e-05,3,2
13629,1e-05,6e-05,-1e-05,2e-05,4e-05,-3e-05,0.00014,-1e-05,3,2
13630,1e-05,6e-05,-1e-05,2e-05,4e-05,-3e-05,0.00014,-1e-05,3,2
13631,1e-05,6e-05,-1e-05,2e-05,4e-05,-3e-05,0.00014,-1e-05,3,2
13632,1e-05,6e-05,-1e-05,2e-05,4e-05,-3e-05,0.00014,-1e-05,3,2
13633,1e-05,6e-05,-1e-05,2e-05,4e-05,-3e-05,0.00014,-1e-05,3,2
13634,1e-05,6e-05,-1e-05,2e-05,4e-05,-3e-05,0.00014,-1e-05,3,2
13635,1e-05,6e-05,-1e-05,2e-05,4e-05,-3e-05,0.00014,-1e-05,3,2
13636,1e-05,6e-05,-1e-05,2e-05,4e-05,-3e-05,0.00014,-1e-05,3,2
13638,1e-05,6e-05,-1e-05,2e-05,4e-05,-3e-05,0.00014,-1e-05,3,2
13639,1e-05,6e-05,-1e-05,2e-05,4e-05,-3e-05,0.00014,-1e-05,3,2
13640,1e-05,6e-05,-1e-05,2e-05,4e-05,-3e-05,0.00014,-1e-05,3,2
13641,1e-05,6e-05,-1e-05,2e-05,4e-05,-3e-05,0.00014,-1e-05,3,2
13642,1e-05,6e-05,-1e-05,2e-05,4e-05,-3e-05,0.00014,-1e-05,3,2
13643,-0.00011,-7e-05,-2e-05,-2e-05,3e-05,6e-05,8e-05,0.0001,3,2
13644,0.00019,2e-05,-1e-05,-1e-05,3e-05,-5e-05,0.00038,8e-05,3,2
13645,-0.00068,-0.00011,-3e-05,-3e-05,4e-05,1e-05,-0.00012,-2e-05,3,2
13646,-0.00068,-0.00011,-3e-05,-3e-05,4e-05,1e-05,-0.00012,-2e-05,3,2
13647,-0.00068,-0.00011,-3e-05,-3e-05,4e-05,1e-05,-0.00012,-2e-05,3,2
13648,-0.00068,-0.00011,-3e-05,-3e-05,4e-05,1e-05,-0.00012,-2e-05,3,2
13649,-0.00068,-0.00011,-3e-05,-3e-05,4e-05,1e-05,-0.00012,-2e-05,3,2
13650,-0.00068,-0.00011,-3e-05,-3e-05,4e-05,1e-05,-0.00012,-2e-05,3,2
13651,-0.00068,-0.00011,-3e-05,-3e-05,4e-05,1e-05,-0.00012,-2e-05,3,2
13652,-0.00068,-0.00011,-3e-05,-3e-05,4e-05,1e-05,-0.00012,-2e-05,3,2
13653,-0.00068,-0.00011,-3e-05,-3e-05,4e-05,1e-05,-0.00012,-2e-05,3,2
13654,-0.00068,-0.00011,-3e-05,-3e-05,4e-05,1e-05,-0.00012,-2e-05,3,2
13655,-0.00068,-0.00011,-3e-05,-3e-05,4e-05,1e-05,-0.00012,-2e-05,3,2
13656,-0.00068,-0.00011,-3e-05,-3e-05,4e-05,1e-05,-0.00012,-2e-05,3,2
13657,-0.00068,-0.00011,-3e-05,-3e-05,4e-05,1e-05,-0.00012,-2e-05,3,2
13658,-0.00068,-0.00011,-3e-05,-3e-05,4e-05,1e-05,-0.00012,-2e-05,3,2
13659,-0.00068,-0.00011,-3e-05,-3e-05,4e-05,1e-05,-0.00012,-2e-05,3,2
13660,-0.00068,-0.00011,-3e-05,-3e-05,4e-05,1e-05,-0.00012,-2e-05,3,2
13661,-0.00068,-0.00011,-3e-05,-3e-05,4e-05,1e-05,-0.00012,-2e-05,3,2
13662,-0.00068,-0.00011,-3e-05,-3e-05,4e-05,1e-05,-0.00012,-2e-05,3,2
13663,-0.00068,-0.00011,-3e-05,-3e-05,4e-05,1e-05,-0.00012,-2e-05,3,2
13664,-0.00068,-0.00011,-3e-05,-3e-05,4e-05,1e-05,-0.00012,-2e-05,3,2
13665,-0.00068,-0.00011,-3e-05,-3e-05,4e-05,1e-05,-0.00012,-2e-05,3,2
13666,-7e-05,-3e-05,-3e-05,-1e-05,-0.00011,-6e-05,-0.00013,-0.0001,3,2
13667,-7e-05,-3e-05,-3e-05,-1e-05,-0.00011,-6e-05,-0.00013,-0.0001,3,2
13668,-0.00014,-4e-05,-4e-05,-1e-05,-5e-05,0,0.00011,5e-05,3,2
13669,-0.00014,-4e-05,-4e-05,-1e-05,-5e-05,0,0.00011,5e-05,3,2
13670,-0.00014,-4e-05,-4e-05,-1e-05,-5e-05,0,0.00011,5e-05,3,2
13671,-0.00014,-4e-05,-4e-05,-1e-05,-5e-05,0,0.00011,5e-05,3,2
13672,-0.00014,-4e-05,-4e-05,-1e-05,-5e-05,0,0.00011,5e-05,3,2
13673,-0.00014,-4e-05,-4e-05,-1e-05,-5e-05,0,0.00011,5e-05,3,2
13674,-0.00014,-4e-05,-4e-05,-1e-05,-5e-05,0,0.00011,5e-05,3,2
13675,-0.00014,-4e-05,-4e-05,-1e-05,-5e-05,0,0.00011,5e-05,3,2
13676,-0.00014,-4e-05,-4e-05,-1e-05,-5e-05,0,0.00011,5e-05,3,2
13677,-0.00014,-4e-05,-4e-05,-1e-05,-5e-05,0,0.00011,5e-05,3,2
13678,-0.00014,-4e-05,-4e-05,-1e-05,-5e-05,0,0.00011,5e-05,3,2
13679,-0.00014,-4e-05,-4e-05,-1e-05,-5e-05,0,0.00011,5e-05,3,2
13680,-0.0001,-6e-05,-5e-05,-1e-05,-7e-05,-9e-05,-5e-05,5e-05,3,2
13681,-0.0001,-6e-05,-5e-05,-1e-05,-7e-05,-9e-05,-5e-05,5e-05,3,2
13682,-0.0001,-6e-05,-5e-05,-1e-05,-7e-05,-9e-05,-5e-05,5e-05,3,2
13683,-0.0001,-6e-05,-5e-05,-1e-05,-7e-05,-9e-05,-5e-05,5e-05,3,2
13684,-0.0001,-6e-05,-5e-05,-1e-05,-7e-05,-9e-05,-5e-05,5e-05,3,2
13686,-0.0001,-6e-05,-5e-05,-1e-05,-7e-05,-9e-05,-5e-05,5e-05,3,2
13687,-0.0001,-6e-05,-5e-05,-1e-05,-7e-05,-9e-05,-5e-05,5e-05,3,2
13688,-0.0001,-6e-05,-5e-05,-1e-05,-7e-05,-9e-05,-5e-05,5e-05,3,2
13689,-0.00024,-6e-05,-2e-05,0,-6e-05,-1e-05,2e-05,-0.00011,3,2
13690,-0.00024,-6e-05,-2e-05,0,-6e-05,-1e-05,2e-05,-0.00011,3,2
13691,-0.00024,-6e-05,-2e-05,0,-6e-05,-1e-05,2e-05,-0.00011,3,2
13692,-0.00024,-6e-05,-2e-05,0,-6e-05,-1e-05,2e-05,-0.00011,3,2
13693,-0.00024,-6e-05,-2e-05,0,-6e-05,-1e-05,2e-05,-0.00011,3,2
13694,-0.00024,-6e-05,-2e-05,0,-6e-05,-1e-05,2e-05,-0.00011,3,2
13695,-0.00024,-6e-05,-2e-05,0,-6e-05,-1e-05,2e-05,-0.00011,3,2
13696,-0.00024,-6e-05,-2e-05,0,-6e-05,-1e-05,2e-05,-0.00011,3,2
13697,-0.00024,-6e-05,-2e-05,0,-6e-05,-1e-05,2e-05,-0.00011,3,2
13698,-0.00024,-6e-05,-2e-05,0,-6e-05,-1e-05,2e-05,-0.00011,3,2
13699,-0.00024,-6e-05,-2e-05,0,-6e-05,-1e-05,2e-05,-0.00011,3,2
13700,-0.00024,-6e-05,-2e-05,0,-6e-05,-1e-05,2e-05,-0.00011,3,2
13701,-0.00024,-6e-05,-2e-05,0,-6e-05,-1e-05,2e-05,-0.00011,3,2
13702,-0.00024,-6e-05,-2e-05,0,-6e-05,-1e-05,2e-05,-0.00011,3,2
13703,1e-05,1e-05,2e-05,0,5e-05,6e-05,0.00012,-6e-05,3,2
13704,1e-05,1e-05,2e-05,0,5e-05,6e-05,0.00012,-6e-05,3,2
13705,0.00014,0,-1e-05,-2e-05,0,0.00012,0,-7e-05,3,2
13706,0.00014,0,-1e-05,-2e-05,0,0.00012,0,-7e-05,3,2
13707,0.00014,0,-1e-05,-2e-05,0,0.00012,0,-7e-05,3,2
13708,0.00014,0,-1e-05,-2e-05,0,0.00012,0,-7e-05,3,2
13709,0.00014,0,-1e-05,-2e-05,0,0.00012,0,-7e-05,3,2
13710,0.00014,0,-1e-05,-2e-05,0,0.00012,0,-7e-05,3,2
13711,0.00014,0,-1e-05,-2e-05,0,0.00012,0,-7e-05,3,2
13712,0.00014,0,-1e-05,-2e-05,0,0.00012,0,-7e-05,3,2
13713,0.00014,0,-1e-05,-2e-05,0,0.00012,0,-7e-05,3,2
13714,0.00014,0,-1e-05,-2e-05,0,0.00012,0,-7e-05,3,2
13715,0.00014,0,-1e-05,-2e-05,0,0.00012,0,-7e-05,3,2
13716,0.00014,0,-1e-05,-2e-05,0,0.00012,0,-7e-05,3,2
13717,0.00014,0,-1e-05,-2e-05,0,0.00012,0,-7e-05,3,2
13718,0.00014,0,-1e-05,-2e-05,0,0.00012,0,-7e-05,3,2
13719,0.00014,0,-1e-05,-2e-05,0,0.00012,0,-7e-05,3,2
13720,0.00014,0,-1e-05,-2e-05,0,0.00012,0,-7e-05,3,2
13721,0.00014,0,-1e-05,-2e-05,0,0.00012,0,-7e-05,3,2
13722,0.00014,0,-1e-05,-2e-05,0,0.00012,0,-7e-05,3,2
13723,0.00014,0,-1e-05,-2e-05,0,0.00012,0,-7e-05,3,2
13724,0.00014,0,-1e-05,-2e-05,0,0.00012,0,-7e-05,3,2
13725,0.00014,0,-1e-05,-2e-05,0,0.00012,0,-7e-05,3,2
13726,0.00037,3e-05,0,-2e-05,0,6e-05,-5e-05,0,3,2
13727,-0.00011,-2e-05,-5e-05,0,-2e-05,0,1e-05,9e-05,3,2
13728,4e-05,2e-05,2e-05,4e-05,7e-05,-2e-05,0.00011,0.0001,3,2
13729,4e-05,2e-05,2e-05,4e-05,7e-05,-2e-05,0.00011,0.0001,3,2
13730,4e-05,2e-05,2e-05,4e-05,7e-05,-2e-05,0.00011,0.0001,3,2
13731,4e-05,2e-05,2e-05,4e-05,7e-05,-2e-05,0.00011,0.0001,3,2
13732,4e-05,2e-05,2e-05,4e-05,7e-05,-2e-05,0.00011,0.0001,3,2
13733,4e-05,2e-05,2e-05,4e-05,7e-05,-2e-05,0.00011,0.0001,3,2
13734,4e-05,2e-05,2e-05,4e-05,7e-05,-2e-05,0.00011,0.0001,3,2
13735,4e-05,2e-05,2e-05,4e-05,7e-05,-2e-05,0.00011,0.0001,3,2
13736,4e-05,2e-05,2e-05,4e-05,7e-05,-2e-05,0.00011,0.0001,3,2
13738,4e-05,2e-05,2e-05,4e-05,7e-05,-2e-05,0.00011,0.0001,3,2
13739,4e-05,2e-05,2e-05,4e-05,7e-05,-2e-05,0.00011,0.0001,3,2
13740,0,-1e-05,-7e-05,-3e-05,-3e-05,-5e-05,-0.00017,2e-05,3,2
13741,0,-1e-05,-7e-05,-3e-05,-3e-05,-5e-05,-0.00017,2e-05,3,2
13742,0,-1e-05,-7e-05,-3e-05,-3e-05,-5e-05,-0.00017,2e-05,3,2
13743,0,-1e-05,-7e-05,-3e-05,-3e-05,-5e-05,-0.00017,2e-05,3,2
13744,0,-1e-05,-7e-05,-3e-05,-3e-05,-5e-05,-0.00017,2e-05,3,2
13745,0,-1e-05,-7e-05,-3e-05,-3e-05,-5e-05,-0.00017,2e-05,3,2
13746,0,-1e-05,-7e-05,-3e-05,-3e-05,-5e-05,-0.00017,2e-05,3,2
13747,0,-1e-05,-7e-05,-3e-05,-3e-05,-5e-05,-0.00017,2e-05,3,2
13748,0,-1e-05,-7e-05,-3e-05,-3e-05,-5e-05,-0.00017,2e-05,3,2
13749,-0.00013,-3e-05,2e-05,5e-05,9e-05,6e-05,0.00011,2e-05,3,2
13750,-0.00013,-3e-05,2e-05,5e-05,9e-05,6e-05,0.00011,2e-05,3,2
13751,-0.00013,-3e-05,2e-05,5e-05,9e-05,6e-05,0.00011,2e-05,3,2
13752,-0.00013,-3e-05,2e-05,5e-05,9e-05,6e-05,0.00011,2e-05,3,2
13753,-0.00013,-3e-05,2e-05,5e-05,9e-05,6e-05,0.00011,2e-05,3,2
13754,-0.00013,-3e-05,2e-05,5e-05,9e-05,6e-05,0.00011,2e-05,3,2
13755,-0.00013,-3e-05,2e-05,5e-05,9e-05,6e-05,0.00011,2e-05,3,2
13756,-0.00013,-3e-05,2e-05,5e-05,9e-05,6e-05,0.00011,2e-05,3,2
13757,-0.00013,-3e-05,2e-05,5e-05,9e-05,6e-05,0.00011,2e-05,3,2
13758,-0.00013,-3e-05,2e-05,5e-05,9e-05,6e-05,0.00011,2e-05,3,2
13759,-0.00013,-3e-05,2e-05,5e-05,9e-05,6e-05,0.00011,2e-05,3,2
13760,-0.00013,-3e-05,2e-05,5e-05,9e-05,6e-05,0.00011,2e-05,3,2
13761,-0.00013,-3e-05,2e-05,5e-05,9e-05,6e-05,0.00011,2e-05,3,2
13762,-0.00013,-3e-05,2e-05,5e-05,9e-05,6e-05,0.00011,2e-05,3,2
13763,-0.00015,-4e-05,-1e-05,2e-05,0,5e-05,0,-3e-05,3,2
13764,-0.00015,-4e-05,-1e-05,2e-05,0,5e-05,0,-3e-05,3,2
13765,-0.00015,-4e-05,-1e-05,2e-05,0,5e-05,0,-3e-05,3,2
13766,-0.00015,-4e-05,-1e-05,2e-05,0,5e-05,0,-3e-05,3,2
13767,-0.00015,-4e-05,-1e-05,2e-05,0,5e-05,0,-3e-05,3,2
13768,-0.00015,-4e-05,-1e-05,2e-05,0,5e-05,0,-3e-05,3,2
13769,-0.00015,-4e-05,-1e-05,2e-05,0,5e-05,0,-3e-05,3,2
13770,0.00019,2e-05,-1e-05,-2e-05,0.0001,-8e-05,-0.00012,0,3,2
13771,0.00019,2e-05,-1e-05,-2e-05,0.0001,-8e-05,-0.00012,0,3,2
13772,0.00019,2e-05,-1e-05,-2e-05,0.0001,-8e-05,-0.00012,0,3,2
13773,0.00019,2e-05,-1e-05,-2e-05,0.0001,-8e-05,-0.00012,0,3,2
13774,0.00019,2e-05,-1e-05,-2e-05,0.0001,-8e-05,-0.00012,0,3,2
13775,0.00019,2e-05,-1e-05,-2e-05,0.0001,-8e-05,-0.00012,0,3,2
13776,0.00019,2e-05,-1e-05,-2e-05,0.0001,-8e-05,-0.00012,0,3,2
13777,0.00019,2e-05,-1e-05,-2e-05,0.0001,-8e-05,-0.00012,0,3,2
13778,0.00019,2e-05,-1e-05,-2e-05,0.0001,-8e-05,-0.00012,0,3,2
13779,0.00019,2e-05,-1e-05,-2e-05,0.0001,-8e-05,-0.00012,0,3,2
13780,0.00019,2e-05,-1e-05,-2e-05,0.0001,-8e-05,-0.00012,0,3,2
13781,0.00019,2e-05,-1e-05,-2e-05,0.0001,-8e-05,-0.00012,0,3,2
13782,0.00019,2e-05,-1e-05,-2e-05,0.0001,-8e-05,-0.00012,0,3,2
13783,0.00019,2e-05,-1e-05,-2e-05,0.0001,-8e-05,-0.00012,0,3,2
13784,0.00019,2e-05,-1e-05,-2e-05,0.0001,-8e-05,-0.00012,0,3,2
13785,0.00019,2e-05,-1e-05,-2e-05,0.0001,-8e-05,-0.00012,0,3,2
13786,-0.00013,2e-05,2e-05,6e-05,9e-05,2e-05,-5e-05,-4e-05,3,2
13788,7e-05,-2e-05,-2e-05,-4e-05,-0.00011,-1e-05,5e-05,-0.00012,3,2
13789,7e-05,-2e-05,-2e-05,-4e-05,-0.00011,-1e-05,5e-05,-0.00012,3,2
13790,7e-05,-2e-05,-2e-05,-4e-05,-0.00011,-1e-05,5e-05,-0.00012,3,2
13791,7e-05,-2e-05,-2e-05,-4e-05,-0.00011,-1e-05,5e-05,-0.00012,3,2
13792,7e-05,-2e-05,-2e-05,-4e-05,-0.00011,-1e-05,5e-05,-0.00012,3,2
13793,7e-05,-2e-05,-2e-05,-4e-05,-0.00011,-1e-05,5e-05,-0.00012,3,2
13794,7e-05,-2e-05,-2e-05,-4e-05,-0.00011,-1e-05,5e-05,-0.00012,3,2
13795,7e-05,-2e-05,-2e-05,-4e-05,-0.00011,-1e-05,5e-05,-0.00012,3,2
13796,7e-05,-2e-05,-2e-05,-4e-05,-0.00011,-1e-05,5e-05,-0.00012,3,2
13797,7e-05,-2e-05,-2e-05,-4e-05,-0.00011,-1e-05,5e-05,-0.00012,3,2
13798,7e-05,-2e-05,-2e-05,-4e-05,-0.00011,-1e-05,5e-05,-0.00012,3,2
13799,7e-05,-2e-05,-2e-05,-4e-05,-0.00011,-1e-05,5e-05,-0.00012,3,2
13800,0.00011,1e-05,-1e-05,-3e-05,-2e-05,-5e-05,-3e-05,-0.00012,3,2
13801,0.00011,1e-05,-1e-05,-3e-05,-2e-05,-5e-05,-3e-05,-0.00012,3,2
13802,0.00011,1e-05,-1e-05,-3e-05,-2e-05,-5e-05,-3e-05,-0.00012,3,2
13803,0.00011,1e-05,-1e-05,-3e-05,-2e-05,-5e-05,-3e-05,-0.00012,3,2
13804,0.00011,1e-05,-1e-05,-3e-05,-2e-05,-5e-05,-3e-05,-0.00012,3,2
13805,0.00011,1e-05,-1e-05,-3e-05,-2e-05,-5e-05,-3e-05,-0.00012,3,2
13806,0.00011,1e-05,-1e-05,-3e-05,-2e-05,-5e-05,-3e-05,-0.00012,3,2
13807,0.00011,1e-05,-1e-05,-3e-05,-2e-05,-5e-05,-3e-05,-0.00012,3,2
13808,0.00011,1e-05,-1e-05,-3e-05,-2e-05,-5e-05,-3e-05,-0.00012,3,2
13809,0.00033,4e-05,4e-05,1e-05,0,-1e-05,-6e-05,4e-05,3,2
13810,0.00033,4e-05,4e-05,1e-05,0,-1e-05,-6e-05,4e-05,3,2
13811,0.00033,4e-05,4e-05,1e-05,0,-1e-05,-6e-05,4e-05,3,2
13812,0.00033,4e-05,4e-05,1e-05,0,-1e-05,-6e-05,4e-05,3,2
13813,0.00033,4e-05,4e-05,1e-05,0,-1e-05,-6e-05,4e-05,3,2
13814,0.00033,4e-05,4e-05,1e-05,0,-1e-05,-6e-05,4e-05,3,2
13815,0.00033,4e-05,4e-05,1e-05,0,-1e-05,-6e-05,4e-05,3,2
13816,0.00033,4e-05,4e-05,1e-05,0,-1e-05,-6e-05,4e-05,3,2
13817,0.00033,4e-05,4e-05,1e-05,0,-1e-05,-6e-05,4e-05,3,2
13818,0.00033,4e-05,4e-05,1e-05,0,-1e-05,-6e-05,4e-05,3,2
13819,0.00033,4e-05,4e-05,1e-05,0,-1e-05,-6e-05,4e-05,3,2
13820,0.00033,4e-05,4e-05,1e-05,0,-1e-05,-6e-05,4e-05,3,2
13821,0.00033,4e-05,4e-05,1e-05,0,-1e-05,-6e-05,4e-05,3,2
13822,0.00033,4e-05,4e-05,1e-05,0,-1e-05,-6e-05,4e-05,3,2
13823,-7e-05,-7e-05,-3e-05,-1e-05,-2e-05,-1e-05,9e-05,1e-05,3,2
13824,-7e-05,-7e-05,-3e-05,-1e-05,-2e-05,-1e-05,9e-05,1e-05,3,2
13825,5e-05,1e-05,-1e-05,-5e-05,-3e-05,0.00011,2e-05,-1e-05,3,2
13826,5e-05,1e-05,-1e-05,-5e-05,-3e-05,0.00011,2e-05,-1e-05,3,2
13827,5e-05,1e-05,-1e-05,-5e-05,-3e-05,0.00011,2e-05,-1e-05,3,2
13828,5e-05,1e-05,-1e-05,-5e-05,-3e-05,0.00011,2e-05,-1e-05,3,2
13829,5e-05,1e-05,-1e-05,-5e-05,-3e-05,0.00011,2e-05,-1e-05,3,2
13830,5e-05,1e-05,-1e-05,-5e-05,-3e-05,0.00011,2e-05,-1e-05,3,2
13831,5e-05,1e-05,-1e-05,-5e-05,-3e-05,0.00011,2e-05,-1e-05,3,2
13832,5e-05,1e-05,-1e-05,-5e-05,-3e-05,0.00011,2e-05,-1e-05,3,2
13833,5e-05,1e-05,-1e-05,-5e-05,-3e-05,0.00011,2e-05,-1e-05,3,2
13834,5e-05,1e-05,-1e-05,-5e-05,-3e-05,0.00011,2e-05,-1e-05,3,2
13835,5e-05,1e-05,-1e-05,-5e-05,-3e-05,0.00011,2e-05,-1e-05,3,2
13836,5e-05,1e-05,-1e-05,-5e-05,-3e-05,0.00011,2e-05,-1e-05,3,2
13838,5e-05,1e-05,-1e-05,-5e-05,-3e-05,0.00011,2e-05,-1e-05,3,2
13839,5e-05,1e-05,-1e-05,-5e-05,-3e-05,0.00011,2e-05,-1e-05,3,2
13840,5e-05,1e-05,-1e-05,-5e-05,-3e-05,0.00011,2e-05,-1e-05,3,2
13841,5e-05,1e-05,-1e-05,-5e-05,-3e-05,0.00011,2e-05,-1e-05,3,2
13842,5e-05,1e-05,-1e-05,-5e-05,-3e-05,0.00011,2e-05,-1e-05,3,2
13843,5e-05,1e-05,-1e-05,-5e-05,-3e-05,0.00011,2e-05,-1e-05,3,2
13844,5e-05,1e-05,-1e-05,-5e-05,-3e-05,0.00011,2e-05,-1e-05,3,2
13845,5e-05,1e-05,-1e-05,-5e-05,-3e-05,0.00011,2e-05,-1e-05,3,2
13846,5e-05,1e-05,-1e-05,-5e-05,-3e-05,0.00011,2e-05,-1e-05,3,2
13847,3e-05,0,-1e-05,-3e-05,-7e-05,1e-05,5e-05,0,3,2
13848,-0.00028,-8e-05,-2e-05,-3e-05,-1e-05,2e-05,4e-05,-5e-05,3,2
13849,-0.00028,-8e-05,-2e-05,-3e-05,-1e-05,2e-05,4e-05,-5e-05,3,2
13850,-0.00028,-8e-05,-2e-05,-3e-05,-1e-05,2e-05,4e-05,-5e-05,3,2
13851,-0.00028,-8e-05,-2e-05,-3e-05,-1e-05,2e-05,4e-05,-5e-05,3,2
13852,-0.00028,-8e-05,-2e-05,-3e-05,-1e-05,2e-05,4e-05,-5e-05,3,2
13853,-0.00028,-8e-05,-2e-05,-3e-05,-1e-05,2e-05,4e-05,-5e-05,3,2
13854,-0.00028,-8e-05,-2e-05,-3e-05,-1e-05,2e-05,4e-05,-5e-05,3,2
13855,-0.00028,-8e-05,-2e-05,-3e-05,-1e-05,2e-05,4e-05,-5e-05,3,2
13856,-0.00028,-8e-05,-2e-05,-3e-05,-1e-05,2e-05,4e-05,-5e-05,3,2
13857,-0.00028,-8e-05,-2e-05,-3e-05,-1e-05,2e-05,4e-05,-5e-05,3,2
13858,-0.00028,-8e-05,-2e-05,-3e-05,-1e-05,2e-05,4e-05,-5e-05,3,2
13859,-0.00028,-8e-05,-2e-05,-3e-05,-1e-05,2e-05,4e-05,-5e-05,3,2
13860,0.00017,4e-05,-1e-05,-3e-05,-7e-05,-5e-05,-2e-05,-1e-05,3,2
13861,0.00017,4e-05,-1e-05,-3e-05,-7e-05,-5e-05,-2e-05,-1e-05,3,2
13862,0.00017,4e-05,-1e-05,-3e-05,-7e-05,-5e-05,-2e-05,-1e-05,3,2
13863,0.00017,4e-05,-1e-05,-3e-05,-7e-05,-5e-05,-2e-05,-1e-05,3,2
13864,0.00017,4e-05,-1e-05,-3e-05,-7e-05,-5e-05,-2e-05,-1e-05,3,2
13865,0.00017,4e-05,-1e-05,-3e-05,-7e-05,-5e-05,-2e-05,-1e-05,3,2
13866,0.00017,4e-05,-1e-05,-3e-05,-7e-05,-5e-05,-2e-05,-1e-05,3,2
13867,0.00017,4e-05,-1e-05,-3e-05,-7e-05,-5e-05,-2e-05,-1e-05,3,2
13868,0.00017,4e-05,-1e-05,-3e-05,-7e-05,-5e-05,-2e-05,-1e-05,3,2
13869,0.00017,4e-05,-1e-05,-3e-05,-7e-05,-5e-05,-2e-05,-1e-05,3,2
13870,0.00017,4e-05,-1e-05,-3e-05,-7e-05,-5e-05,-2e-05,-1e-05,3,2
13871,0.00017,4e-05,-1e-05,-3e-05,-7e-05,-5e-05,-2e-05,-1e-05,3,2
13872,0.00017,4e-05,-1e-05,-3e-05,-7e-05,-5e-05,-2e-05,-1e-05,3,2
13873,0.00017,4e-05,-1e-05,-3e-05,-7e-05,-5e-05,-2e-05,-1e-05,3,2
13874,0.00017,4e-05,-1e-05,-3e-05,-7e-05,-5e-05,-2e-05,-1e-05,3,2
13875,-0.00018,-4e-05,-6e-05,0,-9e-05,-0.0001,-5e-05,-7e-05,3,2
13876,-0.00018,-4e-05,-6e-05,0,-9e-05,-0.0001,-5e-05,-7e-05,3,2
13877,-0.00018,-4e-05,-6e-05,0,-9e-05,-0.0001,-5e-05,-7e-05,3,2
13878,-0.00018,-4e-05,-6e-05,0,-9e-05,-0.0001,-5e-05,-7e-05,3,2
13879,-0.00018,-4e-05,-6e-05,0,-9e-05,-0.0001,-5e-05,-7e-05,3,2
13880,-0.00018,-4e-05,-6e-05,0,-9e-05,-0.0001,-5e-05,-7e-05,3,2
13881,-0.00018,-4e-05,-6e-05,0,-9e-05,-0.0001,-5e-05,-7e-05,3,2
13882,-0.00018,-4e-05,-6e-05,0,-9e-05,-0.0001,-5e-05,-7e-05,3,2
13883,-0.00018,-4e-05,-6e-05,0,-9e-05,-0.0001,-5e-05,-7e-05,3,2
13884,-4e-05,1e-05,0,-3e-05,-1e-05,-2e-05,0.00012,-3e-05,3,2
13885,1e-05,-2e-05,-3e-05,-3e-05,3e-05,3e-05,2e-05,-0.00011,3,2
13886,1e-05,-2e-05,-3e-05,-3e-05,3e-05,3e-05,2e-05,-0.00011,3,2
13888,1e-05,-2e-05,-3e-05,-3e-05,3e-05,3e-05,2e-05,-0.00011,3,2
13889,1e-05,-2e-05,-3e-05,-3e-05,3e-05,3e-05,2e-05,-0.00011,3,2
13890,1e-05,-2e-05,-3e-05,-3e-05,3e-05,3e-05,2e-05,-0.00011,3,2
13891,1e-05,-2e-05,-3e-05,-3e-05,3e-05,3e-05,2e-05,-0.00011,3,2
13892,1e-05,-2e-05,-3e-05,-3e-05,3e-05,3e-05,2e-05,-0.00011,3,2
13893,1e-05,-2e-05,-3e-05,-3e-05,3e-05,3e-05,2e-05,-0.00011,3,2
13894,1e-05,-2e-05,-3e-05,-3e-05,3e-05,3e-05,2e-05,-0.00011,3,2
13895,1e-05,-2e-05,-3e-05,-3e-05,3e-05,3e-05,2e-05,-0.00011,3,2
13896,1e-05,-2e-05,-3e-05,-3e-05,3e-05,3e-05,2e-05,-0.00011,3,2
13897,1e-05,-2e-05,-3e-05,-3e-05,3e-05,3e-05,2e-05,-0.00011,3,2
13898,1e-05,-2e-05,-3e-05,-3e-05,3e-05,3e-05,2e-05,-0.00011,3,2
13899,1e-05,-2e-05,-3e-05,-3e-05,3e-05,3e-05,2e-05,-0.00011,3,2
13900,1e-05,-2e-05,-3e-05,-3e-05,3e-05,3e-05,2e-05,-0.00011,3,2
13901,1e-05,-2e-05,-3e-05,-3e-05,3e-05,3e-05,2e-05,-0.00011,3,2
13902,1e-05,-2e-05,-3e-05,-3e-05,3e-05,3e-05,2e-05,-0.00011,3,2
13903,1e-05,-2e-05,-3e-05,-3e-05,3e-05,3e-05,2e-05,-0.00011,3,2
13904,1e-05,-2e-05,-3e-05,-3e-05,3e-05,3e-05,2e-05,-0.00011,3,2
13905,1e-05,-2e-05,-3e-05,-3e-05,3e-05,3e-05,2e-05,-0.00011,3,2
13906,-5e-05,-1e-05,0,-1e-05,4e-05,-9e-05,-0.00012,6e-05,3,2
13907,-5e-05,-1e-05,0,-1e-05,4e-05,-9e-05,-0.00012,6e-05,3,2
13908,9e-05,0,1e-05,4e-05,5e-05,-5e-05,0.00012,0.00015,3,2
13909,9e-05,0,1e-05,4e-05,5e-05,-5e-05,0.00012,0.00015,3,2
13910,9e-05,0,1e-05,4e-05,5e-05,-5e-05,0.00012,0.00015,3,2
13911,9e-05,0,1e-05,4e-05,5e-05,-5e-05,0.00012,0.00015,3,2
13912,9e-05,0,1e-05,4e-05,5e-05,-5e-05,0.00012,0.00015,3,2
13913,9e-05,0,1e-05,4e-05,5e-05,-5e-05,0.00012,0.00015,3,2
13914,9e-05,0,1e-05,4e-05,5e-05,-5e-05,0.00012,0.00015,3,2
13915,9e-05,0,1e-05,4e-05,5e-05,-5e-05,0.00012,0.00015,3,2
13916,9e-05,0,1e-05,4e-05,5e-05,-5e-05,0.00012,0.00015,3,2
13917,9e-05,0,1e-05,4e-05,5e-05,-5e-05,0.00012,0.00015,3,2
13918,9e-05,0,1e-05,4e-05,5e-05,-5e-05,0.00012,0.00015,3,2
13919,9e-05,0,1e-05,4e-05,5e-05,-5e-05,0.00012,0.00015,3,2
13920,0.00017,4e-05,2e-05,0,-1e-05,2e-05,-1e-05,3e-05,3,2
13921,0.00017,4e-05,2e-05,0,-1e-05,2e-05,-1e-05,3e-05,3,2
13922,0.00017,4e-05,2e-05,0,-1e-05,2e-05,-1e-05,3e-05,3,2
13923,0.00017,4e-05,2e-05,0,-1e-05,2e-05,-1e-05,3e-05,3,2
13924,0.00017,4e-05,2e-05,0,-1e-05,2e-05,-1e-05,3e-05,3,2
13925,0.00017,4e-05,2e-05,0,-1e-05,2e-05,-1e-05,3e-05,3,2
13926,0.00017,4e-05,2e-05,0,-1e-05,2e-05,-1e-05,3e-05,3,2
13927,0.00017,4e-05,2e-05,0,-1e-05,2e-05,-1e-05,3e-05,3,2
13928,0.00017,4e-05,2e-05,0,-1e-05,2e-05,-1e-05,3e-05,3,2
13929,-4e-05,0,-2e-05,-1e-05,-2e-05,-8e-05,-5e-05,0.0001,3,2
13930,-4e-05,0,-2e-05,-1e-05,-2e-05,-8e-05,-5e-05,0.0001,3,2
13931,-4e-05,0,-2e-05,-1e-05,-2e-05,-8e-05,-5e-05,0.0001,3,2
13932,-4e-05,0,-2e-05,-1e-05,-2e-05,-8e-05,-5e-05,0.0001,3,2
13933,-4e-05,0,-2e-05,-1e-05,-2e-05,-8e-05,-5e-05,0.0001,3,2
13934,-4e-05,0,-2e-05,-1e-05,-2e-05,-8e-05,-5e-05,0.0001,3,2
13935,-4e-05,0,-2e-05,-1e-05,-2e-05,-8e-05,-5e-05,0.0001,3,2
13936,-4e-05,0,-2e-05,-1e-05,-2e-05,-8e-05,-5e-05,0.0001,3,2
13938,-4e-05,0,-2e-05,-1e-05,-2e-05,-8e-05,-5e-05,0.0001,3,2
13939,-4e-05,0,-2e-05,-1e-05,-2e-05,-8e-05,-5e-05,0.0001,3,2
13940,-4e-05,0,-2e-05,-1e-05,-2e-05,-8e-05,-5e-05,0.0001,3,2
13941,-4e-05,0,-2e-05,-1e-05,-2e-05,-8e-05,-5e-05,0.0001,3,2
13942,-4e-05,0,-2e-05,-1e-05,-2e-05,-8e-05,-5e-05,0.0001,3,2
13943,-4e-05,0,-2e-05,-1e-05,-2e-05,-8e-05,-5e-05,0.0001,3,2
13944,-0.00018,-6e-05,-4e-05,-7e-05,3e-05,4e-05,0.00023,6e-05,3,2
13945,-0.00018,-6e-05,-4e-05,-7e-05,3e-05,4e-05,0.00023,6e-05,3,2
13946,-0.00058,-9e-05,-5e-05,-4e-05,-6e-05,-7e-05,-0.00012,-0.0002,3,2
13947,-0.00058,-9e-05,-5e-05,-4e-05,-6e-05,-7e-05,-0.00012,-0.0002,3,2
13948,-0.00058,-9e-05,-5e-05,-4e-05,-6e-05,-7e-05,-0.00012,-0.0002,3,2
13949,-0.00058,-9e-05,-5e-05,-4e-05,-6e-05,-7e-05,-0.00012,-0.0002,3,2
13950,-0.00058,-9e-05,-5e-05,-4e-05,-6e-05,-7e-05,-0.00012,-0.0002,3,2
13951,-0.00058,-9e-05,-5e-05,-4e-05,-6e-05,-7e-05,-0.00012,-0.0002,3,2
13952,-0.00058,-9e-05,-5e-05,-4e-05,-6e-05,-7e-05,-0.00012,-0.0002,3,2
13953,-0.00058,-9e-05,-5e-05,-4e-05,-6e-05,-7e-05,-0.00012,-0.0002,3,2
13954,-0.00058,-9e-05,-5e-05,-4e-05,-6e-05,-7e-05,-0.00012,-0.0002,3,2
13955,-0.00058,-9e-05,-5e-05,-4e-05,-6e-05,-7e-05,-0.00012,-0.0002,3,2
13956,-0.00058,-9e-05,-5e-05,-4e-05,-6e-05,-7e-05,-0.00012,-0.0002,3,2
13957,-0.00058,-9e-05,-5e-05,-4e-05,-6e-05,-7e-05,-0.00012,-0.0002,3,2
13958,-0.00058,-9e-05,-5e-05,-4e-05,-6e-05,-7e-05,-0.00012,-0.0002,3,2
13959,-0.00058,-9e-05,-5e-05,-4e-05,-6e-05,-7e-05,-0.00012,-0.0002,3,2
13960,-0.00058,-9e-05,-5e-05,-4e-05,-6e-05,-7e-05,-0.00012,-0.0002,3,2
13961,-0.00058,-9e-05,-5e-05,-4e-05,-6e-05,-7e-05,-0.00012,-0.0002,3,2
13962,-0.00058,-9e-05,-5e-05,-4e-05,-6e-05,-7e-05,-0.00012,-0.0002,3,2
13963,-0.00058,-9e-05,-5e-05,-4e-05,-6e-05,-7e-05,-0.00012,-0.0002,3,2
13964,-0.00058,-9e-05,-5e-05,-4e-05,-6e-05,-7e-05,-0.00012,-0.0002,3,2
13965,-0.00058,-9e-05,-5e-05,-4e-05,-6e-05,-7e-05,-0.00012,-0.0002,3,2
13966,-0.00058,-9e-05,-5e-05,-4e-05,-6e-05,-7e-05,-0.00012,-0.0002,3,2
13967,1e-05,0,-3e-05,1e-05,-1e-05,-1e-05,-0.00042,-0.00018,3,2
13968,0.00017,5e-05,-1e-05,0,5e-05,-4e-05,-0.00046,0,3,2
13969,0.00017,5e-05,-1e-05,0,5e-05,-4e-05,-0.00046,0,3,2
13970,0.00017,5e-05,-1e-05,0,5e-05,-4e-05,-0.00046,0,3,2
13971,0.00017,5e-05,-1e-05,0,5e-05,-4e-05,-0.00046,0,3,2
13972,0.00017,5e-05,-1e-05,0,5e-05,-4e-05,-0.00046,0,3,2
13973,0.00017,5e-05,-1e-05,0,5e-05,-4e-05,-0.00046,0,3,2
13974,0.00017,5e-05,-1e-05,0,5e-05,-4e-05,-0.00046,0,3,2
13975,0.00017,5e-05,-1e-05,0,5e-05,-4e-05,-0.00046,0,3,2
13976,0.00017,5e-05,-1e-05,0,5e-05,-4e-05,-0.00046,0,3,2
13977,0.00017,5e-05,-1e-05,0,5e-05,-4e-05,-0.00046,0,3,2
13978,0.00017,5e-05,-1e-05,0,5e-05,-4e-05,-0.00046,0,3,2
13979,0.00017,5e-05,-1e-05,0,5e-05,-4e-05,-0.00046,0,3,2
13980,-7e-05,-1e-05,1e-05,1e-05,3e-05,-4e-05,-0.00012,-4e-05,3,2
13981,-7e-05,-1e-05,1e-05,1e-05,3e-05,-4e-05,-0.00012,-4e-05,3,2
13982,-7e-05,-1e-05,1e-05,1e-05,3e-05,-4e-05,-0.00012,-4e-05,3,2
13983,-7e-05,-1e-05,1e-05,1e-05,3e-05,-4e-05,-0.00012,-4e-05,3,2
13984,-7e-05,-1e-05,1e-05,1e-05,3e-05,-4e-05,-0.00012,-4e-05,3,2
13985,-7e-05,-1e-05,1e-05,1e-05,3e-05,-4e-05,-0.00012,-4e-05,3,2
13986,-7e-05,-1e-05,1e-05,1e-05,3e-05,-4e-05,-0.00012,-4e-05,3,2
13988,-7e-05,-1e-05,1e-05,1e-05,3e-05,-4e-05,-0.00012,-4e-05,3,2
13989,0.00014,0,-2e-05,-1e-05,-5e-05,-8e-05,-0.00015,0.00016,3,2
13990,0.00014,0,-2e-05,-1e-05,-5e-05,-8e-05,-0.00015,0.00016,3,2
13991,0.00014,0,-2e-05,-1e-05,-5e-05,-8e-05,-0.00015,0.00016,3,2
13992,0.00014,0,-2e-05,-1e-05,-5e-05,-8e-05,-0.00015,0.00016,3,2
13993,0.00014,0,-2e-05,-1e-05,-5e-05,-8e-05,-0.00015,0.00016,3,2
13994,0.00014,0,-2e-05,-1e-05,-5e-05,-8e-05,-0.00015,0.00016,3,2
13995,0.00014,0,-2e-05,-1e-05,-5e-05,-8e-05,-0.00015,0.00016,3,2
13996,0.00014,0,-2e-05,-1e-05,-5e-05,-8e-05,-0.00015,0.00016,3,2
13997,0.00014,0,-2e-05,-1e-05,-5e-05,-8e-05,-0.00015,0.00016,3,2
13998,0.00014,0,-2e-05,-1e-05,-5e-05,-8e-05,-0.00015,0.00016,3,2
13999,0.00014,0,-2e-05,-1e-05,-5e-05,-8e-05,-0.00015,0.00016,3,2
14000,0.00014,0,-2e-05,-1e-05,-5e-05,-8e-05,-0.00015,0.00016,3,2
14001,0.00014,0,-2e-05,-1e-05,-5e-05,-8e-05,-0.00015,0.00016,3,2
14002,0.00014,0,-2e-05,-1e-05,-5e-05,-8e-05,-0.00015,0.00016,3,2
14003,-0.00025,-4e-05,0,-2e-05,0.00011,2e-05,0,-9e-05,3,2
14004,0.00017,5e-05,3e-05,3e-05,-5e-05,1e-05,9e-05,0.00014,3,2
14005,-6e-05,-1e-05,0,1e-05,3e-05,-0.0001,0.0001,-6e-05,3,2
14006,-6e-05,-1e-05,0,1e-05,3e-05,-0.0001,0.0001,-6e-05,3,2
14007,-6e-05,-1e-05,0,1e-05,3e-05,-0.0001,0.0001,-6e-05,3,2
14008,-6e-05,-1e-05,0,1e-05,3e-05,-0.0001,0.0001,-6e-05,3,2
14009,-6e-05,-1e-05,0,1e-05,3e-05,-0.0001,0.0001,-6e-05,3,2
14010,-6e-05,-1e-05,0,1e-05,3e-05,-0.0001,0.0001,-6e-05,3,2
14011,-6e-05,-1e-05,0,1e-05,3e-05,-0.0001,0.0001,-6e-05,3,2
14012,-6e-05,-1e-05,0,1e-05,3e-05,-0.0001,0.0001,-6e-05,3,2
14013,-6e-05,-1e-05,0,1e-05,3e-05,-0.0001,0.0001,-6e-05,3,2
14014,-6e-05,-1e-05,0,1e-05,3e-05,-0.0001,0.0001,-6e-05,3,2
14015,-6e-05,-1e-05,0,1e-05,3e-05,-0.0001,0.0001,-6e-05,3,2
14016,-6e-05,-1e-05,0,1e-05,3e-05,-0.0001,0.0001,-6e-05,3,2
14017,-6e-05,-1e-05,0,1e-05,3e-05,-0.0001,0.0001,-6e-05,3,2
14018,-6e-05,-1e-05,0,1e-05,3e-05,-0.0001,0.0001,-6e-05,3,2
14019,-6e-05,-1e-05,0,1e-05,3e-05,-0.0001,0.0001,-6e-05,3,2
14020,-6e-05,-1e-05,0,1e-05,3e-05,-0.0001,0.0001,-6e-05,3,2
14021,-6e-05,-1e-05,0,1e-05,3e-05,-0.0001,0.0001,-6e-05,3,2
14022,-6e-05,-1e-05,0,1e-05,3e-05,-0.0001,0.0001,-6e-05,3,2
14023,-6e-05,-1e-05,0,1e-05,3e-05,-0.0001,0.0001,-6e-05,3,2
14024,-6e-05,-1e-05,0,1e-05,3e-05,-0.0001,0.0001,-6e-05,3,2
14025,-6e-05,-1e-05,0,1e-05,3e-05,-0.0001,0.0001,-6e-05,3,2
14026,4e-05,-2e-05,-4e-05,1e-05,7e-05,4e-05,6e-05,0,3,2
14027,4e-05,-2e-05,-4e-05,1e-05,7e-05,4e-05,6e-05,0,3,2
14028,-0.00025,-0.00011,-4e-05,-4e-05,-8e-05,-5e-05,5e-05,-0.0001,3,2
14029,-0.00025,-0.00011,-4e-05,-4e-05,-8e-05,-5e-05,5e-05,-0.0001,3,2
14030,-0.00025,-0.00011,-4e-05,-4e-05,-8e-05,-5e-05,5e-05,-0.0001,3,2
14031,-0.00025,-0.00011,-4e-05,-4e-05,-8e-05,-5e-05,5e-05,-0.0001,3,2
14032,-0.00025,-0.00011,-4e-05,-4e-05,-8e-05,-5e-05,5e-05,-0.0001,3,2
14033,-0.00025,-0.00011,-4e-05,-4e-05,-8e-05,-5e-05,5e-05,-0.0001,3,2
14034,-0.00025,-0.00011,-4e-05,-4e-05,-8e-05,-5e-05,5e-05,-0.0001,3,2
14035,-0.00025,-0.00011,-4e-05,-4e-05,-8e-05,-5e-05,5e-05,-0.0001,3,2
14036,-0.00025,-0.00011,-4e-05,-4e-05,-8e-05,-5e-05,5e-05,-0.0001,3,2
14038,-0.00025,-0.00011,-4e-05,-4e-05,-8e-05,-5e-05,5e-05,-0.0001,3,2
14039,-0.00025,-0.00011,-4e-05,-4e-05,-8e-05,-5e-05,5e-05,-0.0001,3,2
14040,-0.0001,1e-05,-1e-05,-1e-05,0,-3e-05,2e-05,1e-05,3,2
14041,-0.0001,1e-05,-1e-05,-1e-05,0,-3e-05,2e-05,1e-05,3,2
14042,-0.0001,1e-05,-1e-05,-1e-05,0,-3e-05,2e-05,1e-05,3,2
14043,-0.0001,1e-05,-1e-05,-1e-05,0,-3e-05,2e-05,1e-05,3,2
14044,-0.0001,1e-05,-1e-05,-1e-05,0,-3e-05,2e-05,1e-05,3,2
14045,-0.0001,1e-05,-1e-05,-1e-05,0,-3e-05,2e-05,1e-05,3,2
14046,-0.0001,1e-05,-1e-05,-1e-05,0,-3e-05,2e-05,1e-05,3,2
14047,-0.0001,1e-05,-1e-05,-1e-05,0,-3e-05,2e-05,1e-05,3,2
14048,-0.0001,1e-05,-1e-05,-1e-05,0,-3e-05,2e-05,1e-05,3,2
14049,0.00023,1e-05,-1e-05,-4e-05,-8e-05,7e-05,0.0002,1e-05,3,2
14050,0.00023,1e-05,-1e-05,-4e-05,-8e-05,7e-05,0.0002,1e-05,3,2
14051,0.00023,1e-05,-1e-05,-4e-05,-8e-05,7e-05,0.0002,1e-05,3,2
14052,0.00023,1e-05,-1e-05,-4e-05,-8e-05,7e-05,0.0002,1e-05,3,2
14053,0.00023,1e-05,-1e-05,-4e-05,-8e-05,7e-05,0.0002,1e-05,3,2
14054,0.00023,1e-05,-1e-05,-4e-05,-8e-05,7e-05,0.0002,1e-05,3,2
14055,0.00023,1e-05,-1e-05,-4e-05,-8e-05,7e-05,0.0002,1e-05,3,2
14056,0.00023,1e-05,-1e-05,-4e-05,-8e-05,7e-05,0.0002,1e-05,3,2
14057,0.00023,1e-05,-1e-05,-4e-05,-8e-05,7e-05,0.0002,1e-05,3,2
14058,0.00023,1e-05,-1e-05,-4e-05,-8e-05,7e-05,0.0002,1e-05,3,2
14059,0.00023,1e-05,-1e-05,-4e-05,-8e-05,7e-05,0.0002,1e-05,3,2
14060,0.00023,1e-05,-1e-05,-4e-05,-8e-05,7e-05,0.0002,1e-05,3,2
14061,0.00023,1e-05,-1e-05,-4e-05,-8e-05,7e-05,0.0002,1e-05,3,2
14062,0.00023,1e-05,-1e-05,-4e-05,-8e-05,7e-05,0.0002,1e-05,3,2
14063,0.00023,1e-05,-1e-05,-4e-05,-8e-05,7e-05,0.0002,1e-05,3,2
14064,0.00023,1e-05,-1e-05,-4e-05,-8e-05,7e-05,0.0002,1e-05,3,2
14065,0.00023,1e-05,-1e-05,-4e-05,-8e-05,7e-05,0.0002,1e-05,3,2
14066,0.00023,1e-05,-1e-05,-4e-05,-8e-05,7e-05,0.0002,1e-05,3,2
14067,0.00023,1e-05,-1e-05,-4e-05,-8e-05,7e-05,0.0002,1e-05,3,2
14068,0.00023,1e-05,-1e-05,-4e-05,-8e-05,7e-05,0.0002,1e-05,3,2
14069,0.00023,1e-05,-1e-05,-4e-05,-8e-05,7e-05,0.0002,1e-05,3,2
14070,0.00023,1e-05,-1e-05,-4e-05,-8e-05,7e-05,0.0002,1e-05,3,2
14071,-0.00027,-3e-05,0,2e-05,0,0,0,0,3,2
14072,0.0004,6e-05,1e-05,0,-7e-05,0.00011,8e-05,-3e-05,3,2
14073,0.0004,6e-05,1e-05,0,-7e-05,0.00011,8e-05,-3e-05,3,2
14074,0.0004,6e-05,1e-05,0,-7e-05,0.00011,8e-05,-3e-05,3,2
14075,0.0004,6e-05,1e-05,0,-7e-05,0.00011,8e-05,-3e-05,3,2
14076,0.0004,6e-05,1e-05,0,-7e-05,0.00011,8e-05,-3e-05,3,2
14077,0.0004,6e-05,1e-05,0,-7e-05,0.00011,8e-05,-3e-05,3,2
14078,0.0004,6e-05,1e-05,0,-7e-05,0.00011,8e-05,-3e-05,3,2
14079,0.0004,6e-05,1e-05,0,-7e-05,0.00011,8e-05,-3e-05,3,2
14080,0.0004,6e-05,1e-05,0,-7e-05,0.00011,8e-05,-3e-05,3,2
14081,0.0004,6e-05,1e-05,0,-7e-05,0.00011,8e-05,-3e-05,3,2
14082,0.0004,6e-05,1e-05,0,-7e-05,0.00011,8e-05,-3e-05,3,2
14083,0.0004,6e-05,1e-05,0,-7e-05,0.00011,8e-05,-3e-05,3,2
14084,0.0004,6e-05,1e-05,0,-7e-05,0.00011,8e-05,-3e-05,3,2
14085,0.0004,6e-05,1e-05,0,-7e-05,0.00011,8e-05,-3e-05,3,2
14086,-0.00016,-6e-05,0,-5e-05,0,7e-05,0.00034,0,3,2
14088,0,-1e-05,1e-05,3e-05,1e-05,7e-05,0.00033,0.00015,3,2
14089,0,-1e-05,1e-05,3e-05,1e-05,7e-05,0.00033,0.00015,3,2
14090,0,-1e-05,1e-05,3e-05,1e-05,7e-05,0.00033,0.00015,3,2
14091,0,-1e-05,1e-05,3e-05,1e-05,7e-05,0.00033,0.00015,3,2
14092,0,-1e-05,1e-05,3e-05,1e-05,7e-05,0.00033,0.00015,3,2
14093,0,-1e-05,1e-05,3e-05,1e-05,7e-05,0.00033,0.00015,3,2
14094,0,-1e-05,1e-05,3e-05,1e-05,7e-05,0.00033,0.00015,3,2
14095,0,-1e-05,1e-05,3e-05,1e-05,7e-05,0.00033,0.00015,3,2
14096,0,-1e-05,1e-05,3e-05,1e-05,7e-05,0.00033,0.00015,3,2
14097,0,-1e-05,1e-05,3e-05,1e-05,7e-05,0.00033,0.00015,3,2
14098,0,-1e-05,1e-05,3e-05,1e-05,7e-05,0.00033,0.00015,3,2
14099,0,-1e-05,1e-05,3e-05,1e-05,7e-05,0.00033,0.00015,3,2
14100,0,-1e-05,1e-05,3e-05,1e-05,7e-05,0.00033,0.00015,3,2
14101,0,-1e-05,1e-05,3e-05,1e-05,7e-05,0.00033,0.00015,3,2
14102,0,-1e-05,1e-05,3e-05,1e-05,7e-05,0.00033,0.00015,3,2
14103,0,-1e-05,1e-05,3e-05,1e-05,7e-05,0.00033,0.00015,3,2
14104,0,-1e-05,1e-05,3e-05,1e-05,7e-05,0.00033,0.00015,3,2
14105,0,-1e-05,1e-05,3e-05,1e-05,7e-05,0.00033,0.00015,3,2
14106,0,-1e-05,1e-05,3e-05,1e-05,7e-05,0.00033,0.00015,3,2
14107,0,-1e-05,1e-05,3e-05,1e-05,7e-05,0.00033,0.00015,3,2
14108,-0.00037,-5e-05,-7e-05,-5e-05,-0.00012,-8e-05,-0.0001,-0.00014,3,2
14109,0,-5e-05,-2e-05,0,0,0,-0.00012,0,3,2
14110,-0.0001,1e-05,0,-1e-05,-1e-05,0,5e-05,2e-05,3,2
14111,-0.0001,1e-05,0,-1e-05,-1e-05,0,5e-05,2e-05,3,2
14112,-0.0001,1e-05,0,-1e-05,-1e-05,0,5e-05,2e-05,3,2
14113,-0.0001,1e-05,0,-1e-05,-1e-05,0,5e-05,2e-05,3,2
14114,-0.0001,1e-05,0,-1e-05,-1e-05,0,5e-05,2e-05,3,2
14115,-0.0001,1e-05,0,-1e-05,-1e-05,0,5e-05,2e-05,3,2
14116,-0.0001,1e-05,0,-1e-05,-1e-05,0,5e-05,2e-05,3,2
14117,-0.0001,1e-05,0,-1e-05,-1e-05,0,5e-05,2e-05,3,2
14118,-0.0001,1e-05,0,-1e-05,-1e-05,0,5e-05,2e-05,3,2
14119,-0.0001,1e-05,0,-1e-05,-1e-05,0,5e-05,2e-05,3,2
14120,-0.0001,1e-05,0,-1e-05,-1e-05,0,5e-05,2e-05,3,2
14121,-0.0001,1e-05,0,-1e-05,-1e-05,0,5e-05,2e-05,3,2
14122,-0.0001,1e-05,0,-1e-05,-1e-05,0,5e-05,2e-05,3,2
14123,-0.0001,1e-05,0,-1e-05,-1e-05,0,5e-05,2e-05,3,2
14124,-0.0001,1e-05,0,-1e-05,-1e-05,0,5e-05,2e-05,3,2
14125,-0.0001,1e-05,0,-1e-05,-1e-05,0,5e-05,2e-05,3,2
14126,-0.0001,1e-05,0,-1e-05,-1e-05,0,5e-05,2e-05,3,2
14127,-0.0001,1e-05,0,-1e-05,-1e-05,0,5e-05,2e-05,3,2
14128,-0.0001,1e-05,0,-1e-05,-1e-05,0,5e-05,2e-05,3,2
14129,-0.0001,1e-05,0,-1e-05,-1e-05,0,5e-05,2e-05,3,2
14130,-0.0001,1e-05,0,-1e-05,-1e-05,0,5e-05,2e-05,3,2
14131,-0.00015,-4e-05,-2e-05,-3e-05,-6e-05,-3e-05,-8e-05,-0.00011,3,2
14132,-0.00015,-4e-05,-2e-05,-3e-05,-6e-05,-3e-05,-8e-05,-0.00011,3,2
14133,-0.00032,-1e-05,-4e-05,-2e-05,2e-05,-4e-05,-0.00015,-8e-05,3,2
14134,-0.00032,-1e-05,-4e-05,-2e-05,2e-05,-4e-05,-0.00015,-8e-05,3,2
14135,-0.00032,-1e-05,-4e-05,-2e-05,2e-05,-4e-05,-0.00015,-8e-05,3,2
14136,-0.00032,-1e-05,-4e-05,-2e-05,2e-05,-4e-05,-0.00015,-8e-05,3,2
14138,-0.00032,-1e-05,-4e-05,-2e-05,2e-05,-4e-05,-0.00015,-8e-05,3,2
14139,-0.00032,-1e-05,-4e-05,-2e-05,2e-05,-4e-05,-0.00015,-8e-05,3,2
14140,-0.00032,-1e-05,-4e-05,-2e-05,2e-05,-4e-05,-0.00015,-8e-05,3,2
14141,-0.00032,-1e-05,-4e-05,-2e-05,2e-05,-4e-05,-0.00015,-8e-05,3,2
14142,-0.00032,-1e-05,-4e-05,-2e-05,2e-05,-4e-05,-0.00015,-8e-05,3,2
14143,-0.00032,-1e-05,-4e-05,-2e-05,2e-05,-4e-05,-0.00015,-8e-05,3,2
14144,-0.00032,-1e-05,-4e-05,-2e-05,2e-05,-4e-05,-0.00015,-8e-05,3,2
14145,-0.00032,-1e-05,-4e-05,-2e-05,2e-05,-4e-05,-0.00015,-8e-05,3,2
14146,5e-05,0,-3e-05,-1e-05,-2e-05,3e-05,-1e-05,0.00012,3,2
14147,5e-05,0,-3e-05,-1e-05,-2e-05,3e-05,-1e-05,0.00012,3,2
14148,5e-05,0,-3e-05,-1e-05,-2e-05,3e-05,-1e-05,0.00012,3,2
14149,5e-05,0,-3e-05,-1e-05,-2e-05,3e-05,-1e-05,0.00012,3,2
14150,5e-05,0,-3e-05,-1e-05,-2e-05,3e-05,-1e-05,0.00012,3,2
14151,5e-05,0,-3e-05,-1e-05,-2e-05,3e-05,-1e-05,0.00012,3,2
14152,0.00013,1e-05,-1e-05,1e-05,2e-05,8e-05,5e-05,0,3,2
14153,0.00013,1e-05,-1e-05,1e-05,2e-05,8e-05,5e-05,0,3,2
14154,0.00013,1e-05,-1e-05,1e-05,2e-05,8e-05,5e-05,0,3,2
14155,0.00013,1e-05,-1e-05,1e-05,2e-05,8e-05,5e-05,0,3,2
14156,0.00013,1e-05,-1e-05,1e-05,2e-05,8e-05,5e-05,0,3,2
14157,0.00013,1e-05,-1e-05,1e-05,2e-05,8e-05,5e-05,0,3,2
14158,0.00013,1e-05,-1e-05,1e-05,2e-05,8e-05,5e-05,0,3,2
14159,0.00013,1e-05,-1e-05,1e-05,2e-05,8e-05,5e-05,0,3,2
14160,0.00013,1e-05,-1e-05,1e-05,2e-05,8e-05,5e-05,0,3,2
14161,0.00013,1e-05,-1e-05,1e-05,2e-05,8e-05,5e-05,0,3,2
14162,0.00013,1e-05,-1e-05,1e-05,2e-05,8e-05,5e-05,0,3,2
14163,0.00013,1e-05,-1e-05,1e-05,2e-05,8e-05,5e-05,0,3,2
14164,0.00013,1e-05,-1e-05,1e-05,2e-05,8e-05,5e-05,0,3,2
14165,0.00013,1e-05,-1e-05,1e-05,2e-05,8e-05,5e-05,0,3,2
14166,0.00013,1e-05,-1e-05,1e-05,2e-05,8e-05,5e-05,0,3,2
14167,0.00013,1e-05,-1e-05,1e-05,2e-05,8e-05,5e-05,0,3,2
14168,0.00013,1e-05,-1e-05,1e-05,2e-05,8e-05,5e-05,0,3,2
14169,0,-3e-05,-2e-05,-3e-05,-9e-05,-4e-05,0,-6e-05,3,2
14170,-0.00074,-0.00017,-7e-05,-6e-05,-8e-05,-0.00011,0.00011,-0.00051,3,2
14171,-0.00074,-0.00017,-7e-05,-6e-05,-8e-05,-0.00011,0.00011,-0.00051,3,2
14172,-0.00074,-0.00017,-7e-05,-6e-05,-8e-05,-0.00011,0.00011,-0.00051,3,2
14173,-0.00074,-0.00017,-7e-05,-6e-05,-8e-05,-0.00011,0.00011,-0.00051,3,2
14174,-0.00074,-0.00017,-7e-05,-6e-05,-8e-05,-0.00011,0.00011,-0.00051,3,2
14175,-0.00074,-0.00017,-7e-05,-6e-05,-8e-05,-0.00011,0.00011,-0.00051,3,2
14176,-0.00074,-0.00017,-7e-05,-6e-05,-8e-05,-0.00011,0.00011,-0.00051,3,2
14177,-0.00074,-0.00017,-7e-05,-6e-05,-8e-05,-0.00011,0.00011,-0.00051,3,2
14178,-0.00074,-0.00017,-7e-05,-6e-05,-8e-05,-0.00011,0.00011,-0.00051,3,2
14179,-0.00074,-0.00017,-7e-05,-6e-05,-8e-05,-0.00011,0.00011,-0.00051,3,2
14180,-0.00074,-0.00017,-7e-05,-6e-05,-8e-05,-0.00011,0.00011,-0.00051,3,2
14181,-0.00074,-0.00017,-7e-05,-6e-05,-8e-05,-0.00011,0.00011,-0.00051,3,2
14182,-0.00074,-0.00017,-7e-05,-6e-05,-8e-05,-0.00011,0.00011,-0.00051,3,2
14183,-0.00074,-0.00017,-7e-05,-6e-05,-8e-05,-0.00011,0.00011,-0.00051,3,2
14184,-0.00074,-0.00017,-7e-05,-6e-05,-8e-05,-0.00011,0.00011,-0.00051,3,2
14185,0.00015,2e-05,0,-1e-05,2e-05,-9e-05,-0.00011,-8e-05,3,2
14186,0.00021,-1e-05,-2e-05,-1e-05,0,-1e-05,4e-05,0.0002,3,2
14188,0.00021,-1e-05,-2e-05,-1e-05,0,-1e-05,4e-05,0.0002,3,2
14189,0.00021,-1e-05,-2e-05,-1e-05,0,-1e-05,4e-05,0.0002,3,2
14190,0.00021,-1e-05,-2e-05,-1e-05,0,-1e-05,4e-05,0.0002,3,2
14191,0.00021,-1e-05,-2e-05,-1e-05,0,-1e-05,4e-05,0.0002,3,2
14192,0.00021,-1e-05,-2e-05,-1e-05,0,-1e-05,4e-05,0.0002,3,2
14193,0.00021,-1e-05,-2e-05,-1e-05,0,-1e-05,4e-05,0.0002,3,2
14194,0.00021,-1e-05,-2e-05,-1e-05,0,-1e-05,4e-05,0.0002,3,2
14195,0.00021,-1e-05,-2e-05,-1e-05,0,-1e-05,4e-05,0.0002,3,2
14196,0.00021,-1e-05,-2e-05,-1e-05,0,-1e-05,4e-05,0.0002,3,2
14197,0.00021,-1e-05,-2e-05,-1e-05,0,-1e-05,4e-05,0.0002,3,2
14198,0.00021,-1e-05,-2e-05,-1e-05,0,-1e-05,4e-05,0.0002,3,2
14199,0.00021,-1e-05,-2e-05,-1e-05,0,-1e-05,4e-05,0.0002,3,2
14200,0.00021,-1e-05,-2e-05,-1e-05,0,-1e-05,4e-05,0.0002,3,2
14201,0.00021,-1e-05,-2e-05,-1e-05,0,-1e-05,4e-05,0.0002,3,2
14202,0.00021,-1e-05,-2e-05,-1e-05,0,-1e-05,4e-05,0.0002,3,2
14203,0.00021,-1e-05,-2e-05,-1e-05,0,-1e-05,4e-05,0.0002,3,2
14204,0.00021,-1e-05,-2e-05,-1e-05,0,-1e-05,4e-05,0.0002,3,2
14205,0.00021,-1e-05,-2e-05,-1e-05,0,-1e-05,4e-05,0.0002,3,2
14206,-7e-05,-1e-05,-2e-05,-4e-05,-3e-05,-7e-05,-0.00017,-0.00019,3,2
14207,-7e-05,-1e-05,-2e-05,-4e-05,-3e-05,-7e-05,-0.00017,-0.00019,3,2
14208,0.00018,3e-05,0,-5e-05,-6e-05,-1e-05,5e-05,0.00013,3,2
14209,0.00018,3e-05,0,-5e-05,-6e-05,-1e-05,5e-05,0.00013,3,2
14210,0.00018,3e-05,0,-5e-05,-6e-05,-1e-05,5e-05,0.00013,3,2
14211,0.00018,3e-05,0,-5e-05,-6e-05,-1e-05,5e-05,0.00013,3,2
14212,0.00018,3e-05,0,-5e-05,-6e-05,-1e-05,5e-05,0.00013,3,2
14213,0.00018,3e-05,0,-5e-05,-6e-05,-1e-05,5e-05,0.00013,3,2
14214,0.00018,3e-05,0,-5e-05,-6e-05,-1e-05,5e-05,0.00013,3,2
14215,0.00018,3e-05,0,-5e-05,-6e-05,-1e-05,5e-05,0.00013,3,2
14216,0.00018,3e-05,0,-5e-05,-6e-05,-1e-05,5e-05,0.00013,3,2
14217,0.00018,3e-05,0,-5e-05,-6e-05,-1e-05,5e-05,0.00013,3,2
14218,0.00018,3e-05,0,-5e-05,-6e-05,-1e-05,5e-05,0.00013,3,2
14219,0.00018,3e-05,0,-5e-05,-6e-05,-1e-05,5e-05,0.00013,3,2
14220,0.00018,3e-05,0,-5e-05,-6e-05,-1e-05,5e-05,0.00013,3,2
14221,0.00018,3e-05,0,-5e-05,-6e-05,-1e-05,5e-05,0.00013,3,2
14222,0.00018,3e-05,0,-5e-05,-6e-05,-1e-05,5e-05,0.00013,3,2
14223,0.00018,3e-05,0,-5e-05,-6e-05,-1e-05,5e-05,0.00013,3,2
14224,0.00018,3e-05,0,-5e-05,-6e-05,-1e-05,5e-05,0.00013,3,2
14225,0.00018,3e-05,0,-5e-05,-6e-05,-1e-05,5e-05,0.00013,3,2
14226,0.00018,3e-05,0,-5e-05,-6e-05,-1e-05,5e-05,0.00013,3,2
14227,0.00018,3e-05,0,-5e-05,-6e-05,-1e-05,5e-05,0.00013,3,2
14228,0.00018,3e-05,0,-5e-05,-6e-05,-1e-05,5e-05,0.00013,3,2
14229,0.0001,0,0,1e-05,-1e-05,3e-05,-0.00014,9e-05,3,2
14230,0.0001,0,0,1e-05,-1e-05,3e-05,-0.00014,9e-05,3,2
14231,0.0001,0,0,1e-05,-1e-05,3e-05,-0.00014,9e-05,3,2
14232,0.0001,0,0,1e-05,-1e-05,3e-05,-0.00014,9e-05,3,2
14233,0.0001,0,0,1e-05,-1e-05,3e-05,-0.00014,9e-05,3,2
14234,0.0001,0,0,1e-05,-1e-05,3e-05,-0.00014,9e-05,3,2
14235,0.0001,0,0,1e-05,-1e-05,3e-05,-0.00014,9e-05,3,2
14236,0.0001,0,0,1e-05,-1e-05,3e-05,-0.00014,9e-05,3,2
14238,0.0001,0,0,1e-05,-1e-05,3e-05,-0.00014,9e-05,3,2
14239,0.0001,0,0,1e-05,-1e-05,3e-05,-0.00014,9e-05,3,2
14240,0.0001,0,0,1e-05,-1e-05,3e-05,-0.00014,9e-05,3,2
14241,0.0001,0,0,1e-05,-1e-05,3e-05,-0.00014,9e-05,3,2
14242,0.0001,0,0,1e-05,-1e-05,3e-05,-0.00014,9e-05,3,2
14243,0.0001,0,0,1e-05,-1e-05,3e-05,-0.00014,9e-05,3,2
14244,0.00013,0,2e-05,-1e-05,-6e-05,0,7e-05,0.00019,3,2
14245,0.00013,0,2e-05,-1e-05,-6e-05,0,7e-05,0.00019,3,2
14246,0.00013,0,2e-05,-1e-05,-6e-05,0,7e-05,0.00019,3,2
14247,0.00013,0,2e-05,-1e-05,-6e-05,0,7e-05,0.00019,3,2
14248,0.00013,0,2e-05,-1e-05,-6e-05,0,7e-05,0.00019,3,2
14249,0.00013,0,2e-05,-1e-05,-6e-05,0,7e-05,0.00019,3,2
14250,0.0001,-2e-05,0,-3e-05,-2e-05,0,0,0,3,2
14251,0.0001,-2e-05,0,-3e-05,-2e-05,0,0,0,3,2
14252,0.0001,-2e-05,0,-3e-05,-2e-05,0,0,0,3,2
14253,0.0001,-2e-05,0,-3e-05,-2e-05,0,0,0,3,2
14254,0.0001,-2e-05,0,-3e-05,-2e-05,0,0,0,3,2
14255,0.0001,-2e-05,0,-3e-05,-2e-05,0,0,0,3,2
14256,0.0001,-2e-05,0,-3e-05,-2e-05,0,0,0,3,2
14257,0.0001,-2e-05,0,-3e-05,-2e-05,0,0,0,3,2
14258,0.0001,-2e-05,0,-3e-05,-2e-05,0,0,0,3,2
14259,0.0001,-2e-05,0,-3e-05,-2e-05,0,0,0,3,2
14260,0.0001,-2e-05,0,-3e-05,-2e-05,0,0,0,3,2
14261,0.0001,-2e-05,0,-3e-05,-2e-05,0,0,0,3,2
14262,0.0001,-2e-05,0,-3e-05,-2e-05,0,0,0,3,2
14263,0.0001,-2e-05,0,-3e-05,-2e-05,0,0,0,3,2
14264,0.0001,-2e-05,0,-3e-05,-2e-05,0,0,0,3,2
14265,0.0001,-2e-05,0,-3e-05,-2e-05,0,0,0,3,2
14266,-0.00032,-9e-05,-3e-05,-1e-05,6e-05,0,5e-05,-2e-05,3,2
14267,-0.00032,-9e-05,-3e-05,-1e-05,6e-05,0,5e-05,-2e-05,3,2
14268,0.00013,2e-05,0,2e-05,1e-05,-0.0001,-0.00037,2e-05,3,2
14269,0.00013,2e-05,0,2e-05,1e-05,-0.0001,-0.00037,2e-05,3,2
14270,0.00013,2e-05,0,2e-05,1e-05,-0.0001,-0.00037,2e-05,3,2
14271,0.00013,2e-05,0,2e-05,1e-05,-0.0001,-0.00037,2e-05,3,2
14272,0.00013,2e-05,0,2e-05,1e-05,-0.0001,-0.00037,2e-05,3,2
14273,0.00013,2e-05,0,2e-05,1e-05,-0.0001,-0.00037,2e-05,3,2
14274,0.00013,2e-05,0,2e-05,1e-05,-0.0001,-0.00037,2e-05,3,2
14275,0.00013,2e-05,0,2e-05,1e-05,-0.0001,-0.00037,2e-05,3,2
14276,0.00013,2e-05,0,2e-05,1e-05,-0.0001,-0.00037,2e-05,3,2
14277,0.00013,2e-05,0,2e-05,1e-05,-0.0001,-0.00037,2e-05,3,2
14278,0.00013,2e-05,0,2e-05,1e-05,-0.0001,-0.00037,2e-05,3,2
14279,0.00013,2e-05,0,2e-05,1e-05,-0.0001,-0.00037,2e-05,3,2
14280,0.00013,2e-05,0,2e-05,1e-05,-0.0001,-0.00037,2e-05,3,2
14281,0.00013,2e-05,0,2e-05,1e-05,-0.0001,-0.00037,2e-05,3,2
14282,0.00013,2e-05,0,2e-05,1e-05,-0.0001,-0.00037,2e-05,3,2
14283,0.00013,2e-05,0,2e-05,1e-05,-0.0001,-0.00037,2e-05,3,2
14284,0.00013,2e-05,0,2e-05,1e-05,-0.0001,-0.00037,2e-05,3,2
14285,0.00013,2e-05,0,2e-05,1e-05,-0.0001,-0.00037,2e-05,3,2
14286,0.00013,2e-05,0,2e-05,1e-05,-0.0001,-0.00037,2e-05,3,2
14288,0.00021,5e-05,1e-05,4e-05,-3e-05,-5e-05,0.00014,-1e-05,3,2
14289,-0.00023,-3e-05,-1e-05,-4e-05,-3e-05,7e-05,9e-05,-9e-05,3,2
14290,9e-05,5e-05,0,0,-3e-05,6e-05,-1e-05,-9e-05,3,2
14291,9e-05,5e-05,0,0,-3e-05,6e-05,-1e-05,-9e-05,3,2
14292,9e-05,5e-05,0,0,-3e-05,6e-05,-1e-05,-9e-05,3,2
14293,9e-05,5e-05,0,0,-3e-05,6e-05,-1e-05,-9e-05,3,2
14294,9e-05,5e-05,0,0,-3e-05,6e-05,-1e-05,-9e-05,3,2
14295,9e-05,5e-05,0,0,-3e-05,6e-05,-1e-05,-9e-05,3,2
14296,9e-05,5e-05,0,0,-3e-05,6e-05,-1e-05,-9e-05,3,2
14297,9e-05,5e-05,0,0,-3e-05,6e-05,-1e-05,-9e-05,3,2
14298,9e-05,5e-05,0,0,-3e-05,6e-05,-1e-05,-9e-05,3,2
14299,9e-05,5e-05,0,0,-3e-05,6e-05,-1e-05,-9e-05,3,2
14300,9e-05,5e-05,0,0,-3e-05,6e-05,-1e-05,-9e-05,3,2
14301,9e-05,5e-05,0,0,-3e-05,6e-05,-1e-05,-9e-05,3,2
14302,9e-05,5e-05,0,0,-3e-05,6e-05,-1e-05,-9e-05,3,2
14303,-9e-05,-5e-05,2e-05,4e-05,7e-05,0,-2e-05,-3e-05,3,2
14304,-9e-05,-5e-05,2e-05,4e-05,7e-05,0,-2e-05,-3e-05,3,2
14305,-9e-05,-5e-05,2e-05,4e-05,7e-05,0,-2e-05,-3e-05,3,2
14306,-9e-05,-5e-05,2e-05,4e-05,7e-05,0,-2e-05,-3e-05,3,2
14307,-9e-05,-5e-05,2e-05,4e-05,7e-05,0,-2e-05,-3e-05,3,2
14308,-9e-05,-5e-05,2e-05,4e-05,7e-05,0,-2e-05,-3e-05,3,2
14309,-9e-05,-5e-05,2e-05,4e-05,7e-05,0,-2e-05,-3e-05,3,2
14310,0.00015,7e-05,5e-05,3e-05,0,-3e-05,-2e-05,1e-05,3,2
14311,0.00015,7e-05,5e-05,3e-05,0,-3e-05,-2e-05,1e-05,3,2
14312,0.00015,7e-05,5e-05,3e-05,0,-3e-05,-2e-05,1e-05,3,2
14313,0.00015,7e-05,5e-05,3e-05,0,-3e-05,-2e-05,1e-05,3,2
14314,0.00015,7e-05,5e-05,3e-05,0,-3e-05,-2e-05,1e-05,3,2
14315,0.00015,7e-05,5e-05,3e-05,0,-3e-05,-2e-05,1e-05,3,2
14316,0.00015,7e-05,5e-05,3e-05,0,-3e-05,-2e-05,1e-05,3,2
14317,0.00015,7e-05,5e-05,3e-05,0,-3e-05,-2e-05,1e-05,3,2
14318,0.00015,7e-05,5e-05,3e-05,0,-3e-05,-2e-05,1e-05,3,2
14319,0.00015,7e-05,5e-05,3e-05,0,-3e-05,-2e-05,1e-05,3,2
14320,0.00015,7e-05,5e-05,3e-05,0,-3e-05,-2e-05,1e-05,3,2
14321,0.00015,7e-05,5e-05,3e-05,0,-3e-05,-2e-05,1e-05,3,2
14322,0.00015,7e-05,5e-05,3e-05,0,-3e-05,-2e-05,1e-05,3,2
14323,0.00015,7e-05,5e-05,3e-05,0,-3e-05,-2e-05,1e-05,3,2
14324,0.00015,7e-05,5e-05,3e-05,0,-3e-05,-2e-05,1e-05,3,2
14325,0.00015,7e-05,5e-05,3e-05,0,-3e-05,-2e-05,1e-05,3,2
14326,0.00014,5e-05,0,3e-05,-3e-05,2e-05,6e-05,-5e-05,3,2
14327,0.00014,5e-05,0,3e-05,-3e-05,2e-05,6e-05,-5e-05,3,2
14328,-0.00021,-7e-05,-1e-05,0,1e-05,4e-05,8e-05,-0.00016,3,2
14329,-0.00021,-7e-05,-1e-05,0,1e-05,4e-05,8e-05,-0.00016,3,2
14330,-0.00021,-7e-05,-1e-05,0,1e-05,4e-05,8e-05,-0.00016,3,2
14331,-0.00021,-7e-05,-1e-05,0,1e-05,4e-05,8e-05,-0.00016,3,2
14332,-0.00021,-7e-05,-1e-05,0,1e-05,4e-05,8e-05,-0.00016,3,2
14333,-0.00021,-7e-05,-1e-05,0,1e-05,4e-05,8e-05,-0.00016,3,2
14334,-0.00021,-7e-05,-1e-05,0,1e-05,4e-05,8e-05,-0.00016,3,2
14335,-0.00021,-7e-05,-1e-05,0,1e-05,4e-05,8e-05,-0.00016,3,2
14336,-0.00021,-7e-05,-1e-05,0,1e-05,4e-05,8e-05,-0.00016,3,2
14338,-0.00021,-7e-05,-1e-05,0,1e-05,4e-05,8e-05,-0.00016,3,2
14339,-0.00021,-7e-05,-1e-05,0,1e-05,4e-05,8e-05,-0.00016,3,2
14340,-0.00021,-7e-05,-1e-05,0,1e-05,4e-05,8e-05,-0.00016,3,2
14341,-0.00021,-7e-05,-1e-05,0,1e-05,4e-05,8e-05,-0.00016,3,2
14342,-0.00021,-7e-05,-1e-05,0,1e-05,4e-05,8e-05,-0.00016,3,2
14343,-0.00021,-7e-05,-1e-05,0,1e-05,4e-05,8e-05,-0.00016,3,2
14344,-0.00021,-7e-05,-1e-05,0,1e-05,4e-05,8e-05,-0.00016,3,2
14345,-0.00021,-7e-05,-1e-05,0,1e-05,4e-05,8e-05,-0.00016,3,2
14346,-0.00021,-7e-05,-1e-05,0,1e-05,4e-05,8e-05,-0.00016,3,2
14347,-0.00021,-7e-05,-1e-05,0,1e-05,4e-05,8e-05,-0.00016,3,2
14348,-0.00021,-7e-05,-1e-05,0,1e-05,4e-05,8e-05,-0.00016,3,2
14349,-6e-05,-3e-05,-1e-05,-3e-05,-6e-05,-4e-05,-0.00011,6e-05,3,2
14350,-0.00016,-5e-05,-1e-05,-3e-05,2e-05,-2e-05,7e-05,0.0001,3,2
14351,-0.00016,-5e-05,-1e-05,-3e-05,2e-05,-2e-05,7e-05,0.0001,3,2
14352,-0.00016,-5e-05,-1e-05,-3e-05,2e-05,-2e-05,7e-05,0.0001,3,2
14353,-0.00016,-5e-05,-1e-05,-3e-05,2e-05,-2e-05,7e-05,0.0001,3,2
14354,-0.00016,-5e-05,-1e-05,-3e-05,2e-05,-2e-05,7e-05,0.0001,3,2
14355,-0.00016,-5e-05,-1e-05,-3e-05,2e-05,-2e-05,7e-05,0.0001,3,2
14356,-0.00016,-5e-05,-1e-05,-3e-05,2e-05,-2e-05,7e-05,0.0001,3,2
14357,-0.00016,-5e-05,-1e-05,-3e-05,2e-05,-2e-05,7e-05,0.0001,3,2
14358,-0.00016,-5e-05,-1e-05,-3e-05,2e-05,-2e-05,7e-05,0.0001,3,2
14359,-0.00016,-5e-05,-1e-05,-3e-05,2e-05,-2e-05,7e-05,0.0001,3,2
14360,-0.00016,-5e-05,-1e-05,-3e-05,2e-05,-2e-05,7e-05,0.0001,3,2
14361,-0.00016,-5e-05,-1e-05,-3e-05,2e-05,-2e-05,7e-05,0.0001,3,2
14362,-0.00016,-5e-05,-1e-05,-3e-05,2e-05,-2e-05,7e-05,0.0001,3,2
14363,0.00015,2e-05,-4e-05,-2e-05,-4e-05,-3e-05,0.00013,8e-05,3,2
14364,0.00015,2e-05,-4e-05,-2e-05,-4e-05,-3e-05,0.00013,8e-05,3,2
14365,0.00015,2e-05,-4e-05,-2e-05,-4e-05,-3e-05,0.00013,8e-05,3,2
14366,0.00015,2e-05,-4e-05,-2e-05,-4e-05,-3e-05,0.00013,8e-05,3,2
14367,0.00015,2e-05,-4e-05,-2e-05,-4e-05,-3e-05,0.00013,8e-05,3,2
14368,0.00015,2e-05,-4e-05,-2e-05,-4e-05,-3e-05,0.00013,8e-05,3,2
14369,0.00015,2e-05,-4e-05,-2e-05,-4e-05,-3e-05,0.00013,8e-05,3,2
14370,0.00012,1e-05,-1e-05,-1e-05,2e-05,-3e-05,-3e-05,3e-05,3,2
14371,0.00012,1e-05,-1e-05,-1e-05,2e-05,-3e-05,-3e-05,3e-05,3,2
14372,0.00012,1e-05,-1e-05,-1e-05,2e-05,-3e-05,-3e-05,3e-05,3,2
14373,0.00012,1e-05,-1e-05,-1e-05,2e-05,-3e-05,-3e-05,3e-05,3,2
14374,0.00012,1e-05,-1e-05,-1e-05,2e-05,-3e-05,-3e-05,3e-05,3,2
14375,0.00012,1e-05,-1e-05,-1e-05,2e-05,-3e-05,-3e-05,3e-05,3,2
14376,0.00012,1e-05,-1e-05,-1e-05,2e-05,-3e-05,-3e-05,3e-05,3,2
14377,0.00012,1e-05,-1e-05,-1e-05,2e-05,-3e-05,-3e-05,3e-05,3,2
14378,0.00012,1e-05,-1e-05,-1e-05,2e-05,-3e-05,-3e-05,3e-05,3,2
14379,0.00012,1e-05,-1e-05,-1e-05,2e-05,-3e-05,-3e-05,3e-05,3,2
14380,0.00012,1e-05,-1e-05,-1e-05,2e-05,-3e-05,-3e-05,3e-05,3,2
14381,0.00012,1e-05,-1e-05,-1e-05,2e-05,-3e-05,-3e-05,3e-05,3,2
14382,0.00012,1e-05,-1e-05,-1e-05,2e-05,-3e-05,-3e-05,3e-05,3,2
14383,0.00012,1e-05,-1e-05,-1e-05,2e-05,-3e-05,-3e-05,3e-05,3,2
14384,0.00012,1e-05,-1e-05,-1e-05,2e-05,-3e-05,-3e-05,3e-05,3,2
14385,0.00012,1e-05,-1e-05,-1e-05,2e-05,-3e-05,-3e-05,3e-05,3,2
14386,0.00027,5e-05,-2e-05,0,-7e-05,0,0.0001,0.00014,3,2
14388,5e-05,-4e-05,-2e-05,-4e-05,-6e-05,-9e-05,-8e-05,9e-05,3,2
14389,5e-05,-4e-05,-2e-05,-4e-05,-6e-05,-9e-05,-8e-05,9e-05,3,2
14390,5e-05,-4e-05,-2e-05,-4e-05,-6e-05,-9e-05,-8e-05,9e-05,3,2
14391,5e-05,-4e-05,-2e-05,-4e-05,-6e-05,-9e-05,-8e-05,9e-05,3,2
14392,5e-05,-4e-05,-2e-05,-4e-05,-6e-05,-9e-05,-8e-05,9e-05,3,2
14393,5e-05,-4e-05,-2e-05,-4e-05,-6e-05,-9e-05,-8e-05,9e-05,3,2
14394,5e-05,-4e-05,-2e-05,-4e-05,-6e-05,-9e-05,-8e-05,9e-05,3,2
14395,5e-05,-4e-05,-2e-05,-4e-05,-6e-05,-9e-05,-8e-05,9e-05,3,2
14396,5e-05,-4e-05,-2e-05,-4e-05,-6e-05,-9e-05,-8e-05,9e-05,3,2
14397,5e-05,-4e-05,-2e-05,-4e-05,-6e-05,-9e-05,-8e-05,9e-05,3,2
14398,5e-05,-4e-05,-2e-05,-4e-05,-6e-05,-9e-05,-8e-05,9e-05,3,2
14399,5e-05,-4e-05,-2e-05,-4e-05,-6e-05,-9e-05,-8e-05,9e-05,3,2
14400,5e-05,-4e-05,-2e-05,-4e-05,-6e-05,-9e-05,-8e-05,9e-05,3,2
14401,5e-05,-4e-05,-2e-05,-4e-05,-6e-05,-9e-05,-8e-05,9e-05,3,2
14402,5e-05,-4e-05,-2e-05,-4e-05,-6e-05,-9e-05,-8e-05,9e-05,3,2
14403,5e-05,-4e-05,-2e-05,-4e-05,-6e-05,-9e-05,-8e-05,9e-05,3,2
14404,5e-05,-4e-05,-2e-05,-4e-05,-6e-05,-9e-05,-8e-05,9e-05,3,2
14405,5e-05,-4e-05,-2e-05,-4e-05,-6e-05,-9e-05,-8e-05,9e-05,3,2
14406,5e-05,-4e-05,-2e-05,-4e-05,-6e-05,-9e-05,-8e-05,9e-05,3,2
14407,5e-05,-4e-05,-2e-05,-4e-05,-6e-05,-9e-05,-8e-05,9e-05,3,2
14408,-1e-05,1e-05,-2e-05,-1e-05,-3e-05,-5e-05,-8e-05,-6e-05,3,2
14409,-1e-05,1e-05,-2e-05,-1e-05,-3e-05,-5e-05,-8e-05,-6e-05,3,2
14410,-0.00026,-5e-05,-1e-05,3e-05,-0.00016,1e-05,-7e-05,-4e-05,3,2
14411,-0.00026,-5e-05,-1e-05,3e-05,-0.00016,1e-05,-7e-05,-4e-05,3,2
14412,-0.00026,-5e-05,-1e-05,3e-05,-0.00016,1e-05,-7e-05,-4e-05,3,2
14413,-0.00026,-5e-05,-1e-05,3e-05,-0.00016,1e-05,-7e-05,-4e-05,3,2
14414,-0.00026,-5e-05,-1e-05,3e-05,-0.00016,1e-05,-7e-05,-4e-05,3,2
14415,-0.00026,-5e-05,-1e-05,3e-05,-0.00016,1e-05,-7e-05,-4e-05,3,2
14416,-0.00026,-5e-05,-1e-05,3e-05,-0.00016,1e-05,-7e-05,-4e-05,3,2
14417,-0.00026,-5e-05,-1e-05,3e-05,-0.00016,1e-05,-7e-05,-4e-05,3,2
14418,-0.00026,-5e-05,-1e-05,3e-05,-0.00016,1e-05,-7e-05,-4e-05,3,2
14419,-0.00026,-5e-05,-1e-05,3e-05,-0.00016,1e-05,-7e-05,-4e-05,3,2
14420,-0.00026,-5e-05,-1e-05,3e-05,-0.00016,1e-05,-7e-05,-4e-05,3,2
14421,-0.00026,-5e-05,-1e-05,3e-05,-0.00016,1e-05,-7e-05,-4e-05,3,2
14422,-0.00026,-5e-05,-1e-05,3e-05,-0.00016,1e-05,-7e-05,-4e-05,3,2
14423,-9e-05,-6e-05,-1e-05,-1e-05,-1e-05,5e-05,3e-05,-0.00013,3,2
14424,-9e-05,-6e-05,-1e-05,-1e-05,-1e-05,5e-05,3e-05,-0.00013,3,2
14425,-9e-05,-6e-05,-1e-05,-1e-05,-1e-05,5e-05,3e-05,-0.00013,3,2
14426,-9e-05,-6e-05,-1e-05,-1e-05,-1e-05,5e-05,3e-05,-0.00013,3,2
14427,-9e-05,-6e-05,-1e-05,-1e-05,-1e-05,5e-05,3e-05,-0.00013,3,2
14428,-9e-05,-6e-05,-1e-05,-1e-05,-1e-05,5e-05,3e-05,-0.00013,3,2
14429,-9e-05,-6e-05,-1e-05,-1e-05,-1e-05,5e-05,3e-05,-0.00013,3,2
14430,0.00017,8e-05,0,-3e-05,9e-05,-4e-05,-2e-05,0.00022,3,2
14431,0.00017,8e-05,0,-3e-05,9e-05,-4e-05,-2e-05,0.00022,3,2
14432,0.00017,8e-05,0,-3e-05,9e-05,-4e-05,-2e-05,0.00022,3,2
14433,0.00017,8e-05,0,-3e-05,9e-05,-4e-05,-2e-05,0.00022,3,2
14434,0.00017,8e-05,0,-3e-05,9e-05,-4e-05,-2e-05,0.00022,3,2
14435,0.00017,8e-05,0,-3e-05,9e-05,-4e-05,-2e-05,0.00022,3,2
14436,0.00017,8e-05,0,-3e-05,9e-05,-4e-05,-2e-05,0.00022,3,2
14438,0.00017,8e-05,0,-3e-05,9e-05,-4e-05,-2e-05,0.00022,3,2
14439,0.00017,8e-05,0,-3e-05,9e-05,-4e-05,-2e-05,0.00022,3,2
14440,0.00017,8e-05,0,-3e-05,9e-05,-4e-05,-2e-05,0.00022,3,2
14441,0.00017,8e-05,0,-3e-05,9e-05,-4e-05,-2e-05,0.00022,3,2
14442,0.00017,8e-05,0,-3e-05,9e-05,-4e-05,-2e-05,0.00022,3,2
14443,0.00017,8e-05,0,-3e-05,9e-05,-4e-05,-2e-05,0.00022,3,2
14444,0.00017,8e-05,0,-3e-05,9e-05,-4e-05,-2e-05,0.00022,3,2
14445,0.00017,8e-05,0,-3e-05,9e-05,-4e-05,-2e-05,0.00022,3,2
14446,-0.00024,-8e-05,-1e-05,3e-05,9e-05,0,0,4e-05,3,2
14447,-0.00024,-8e-05,-1e-05,3e-05,9e-05,0,0,4e-05,3,2
14448,-2e-05,-2e-05,-2e-05,4e-05,5e-05,1e-05,0,-0.00013,3,2
14449,-2e-05,-2e-05,-2e-05,4e-05,5e-05,1e-05,0,-0.00013,3,2
14450,-2e-05,-2e-05,-2e-05,4e-05,5e-05,1e-05,0,-0.00013,3,2
14451,-2e-05,-2e-05,-2e-05,4e-05,5e-05,1e-05,0,-0.00013,3,2
14452,-2e-05,-2e-05,-2e-05,4e-05,5e-05,1e-05,0,-0.00013,3,2
14453,-2e-05,-2e-05,-2e-05,4e-05,5e-05,1e-05,0,-0.00013,3,2
14454,-2e-05,-2e-05,-2e-05,4e-05,5e-05,1e-05,0,-0.00013,3,2
14455,-2e-05,-2e-05,-2e-05,4e-05,5e-05,1e-05,0,-0.00013,3,2
14456,-2e-05,-2e-05,-2e-05,4e-05,5e-05,1e-05,0,-0.00013,3,2
14457,-2e-05,-2e-05,-2e-05,4e-05,5e-05,1e-05,0,-0.00013,3,2
14458,-2e-05,-2e-05,-2e-05,4e-05,5e-05,1e-05,0,-0.00013,3,2
14459,-2e-05,-2e-05,-2e-05,4e-05,5e-05,1e-05,0,-0.00013,3,2
14460,-2e-05,-2e-05,-2e-05,4e-05,5e-05,1e-05,0,-0.00013,3,2
14461,-2e-05,-2e-05,-2e-05,4e-05,5e-05,1e-05,0,-0.00013,3,2
14462,-2e-05,-2e-05,-2e-05,4e-05,5e-05,1e-05,0,-0.00013,3,2
14463,-2e-05,-2e-05,-2e-05,4e-05,5e-05,1e-05,0,-0.00013,3,2
14464,-2e-05,-2e-05,-2e-05,4e-05,5e-05,1e-05,0,-0.00013,3,2
14465,-2e-05,-2e-05,-2e-05,4e-05,5e-05,1e-05,0,-0.00013,3,2
14466,-2e-05,-2e-05,-2e-05,4e-05,5e-05,1e-05,0,-0.00013,3,2
14467,-2e-05,-2e-05,-2e-05,4e-05,5e-05,1e-05,0,-0.00013,3,2
14468,1e-05,-1e-05,1e-05,1e-05,-1e-05,2e-05,9e-05,7e-05,3,2
14469,0.00016,7e-05,1e-05,-2e-05,8e-05,6e-05,4e-05,6e-05,3,2
14470,-3e-05,0,-3e-05,-2e-05,0,1e-05,-6e-05,-8e-05,3,2
14471,-3e-05,0,-3e-05,-2e-05,0,1e-05,-6e-05,-8e-05,3,2
14472,-3e-05,0,-3e-05,-2e-05,0,1e-05,-6e-05,-8e-05,3,2
14473,-3e-05,0,-3e-05,-2e-05,0,1e-05,-6e-05,-8e-05,3,2
14474,-3e-05,0,-3e-05,-2e-05,0,1e-05,-6e-05,-8e-05,3,2
14475,-3e-05,0,-3e-05,-2e-05,0,1e-05,-6e-05,-8e-05,3,2
14476,-3e-05,0,-3e-05,-2e-05,0,1e-05,-6e-05,-8e-05,3,2
14477,-3e-05,0,-3e-05,-2e-05,0,1e-05,-6e-05,-8e-05,3,2
14478,-3e-05,0,-3e-05,-2e-05,0,1e-05,-6e-05,-8e-05,3,2
14479,-3e-05,0,-3e-05,-2e-05,0,1e-05,-6e-05,-8e-05,3,2
14480,-3e-05,0,-3e-05,-2e-05,0,1e-05,-6e-05,-8e-05,3,2
14481,-3e-05,0,-3e-05,-2e-05,0,1e-05,-6e-05,-8e-05,3,2
14482,-3e-05,0,-3e-05,-2e-05,0,1e-05,-6e-05,-8e-05,3,2
14483,-0.00016,-5e-05,-8e-05,-6e-05,-8e-05,-5e-05,6e-05,-0.00011,3,2
14484,-0.00016,-5e-05,-8e-05,-6e-05,-8e-05,-5e-05,6e-05,-0.00011,3,2
14485,-0.00016,-5e-05,-8e-05,-6e-05,-8e-05,-5e-05,6e-05,-0.00011,3,2
14486,-0.00016,-5e-05,-8e-05,-6e-05,-8e-05,-5e-05,6e-05,-0.00011,3,2
14488,-0.00016,-5e-05,-8e-05,-6e-05,-8e-05,-5e-05,6e-05,-0.00011,3,2
14489,-0.00016,-5e-05,-8e-05,-6e-05,-8e-05,-5e-05,6e-05,-0.00011,3,2
14490,0.00014,0,0,-1e-05,-2e-05,-2e-05,7e-05,1e-05,3,2
14491,0.00014,0,0,-1e-05,-2e-05,-2e-05,7e-05,1e-05,3,2
14492,0.00014,0,0,-1e-05,-2e-05,-2e-05,7e-05,1e-05,3,2
14493,0.00014,0,0,-1e-05,-2e-05,-2e-05,7e-05,1e-05,3,2
14494,0.00014,0,0,-1e-05,-2e-05,-2e-05,7e-05,1e-05,3,2
14495,0.00014,0,0,-1e-05,-2e-05,-2e-05,7e-05,1e-05,3,2
14496,0.00014,0,0,-1e-05,-2e-05,-2e-05,7e-05,1e-05,3,2
14497,0.00014,0,0,-1e-05,-2e-05,-2e-05,7e-05,1e-05,3,2
14498,0.00014,0,0,-1e-05,-2e-05,-2e-05,7e-05,1e-05,3,2
14499,0.00014,0,0,-1e-05,-2e-05,-2e-05,7e-05,1e-05,3,2
14500,0.00014,0,0,-1e-05,-2e-05,-2e-05,7e-05,1e-05,3,2
14501,0.00014,0,0,-1e-05,-2e-05,-2e-05,7e-05,1e-05,3,2
14502,0.00014,0,0,-1e-05,-2e-05,-2e-05,7e-05,1e-05,3,2
14503,0.00014,0,0,-1e-05,-2e-05,-2e-05,7e-05,1e-05,3,2
14504,0.00014,0,0,-1e-05,-2e-05,-2e-05,7e-05,1e-05,3,2
14505,0.00014,0,0,-1e-05,-2e-05,-2e-05,7e-05,1e-05,3,2
14506,-0.00046,-1e-05,-2e-05,-3e-05,-3e-05,-5e-05,-0.00012,-0.00023,3,2
14507,-0.00046,-1e-05,-2e-05,-3e-05,-3e-05,-5e-05,-0.00012,-0.00023,3,2
14508,-7e-05,-7e-05,-3e-05,-6e-05,-0.00011,-5e-05,0,3e-05,3,2
14509,-7e-05,-7e-05,-3e-05,-6e-05,-0.00011,-5e-05,0,3e-05,3,2
14510,-7e-05,-7e-05,-3e-05,-6e-05,-0.00011,-5e-05,0,3e-05,3,2
14511,-7e-05,-7e-05,-3e-05,-6e-05,-0.00011,-5e-05,0,3e-05,3,2
14512,-7e-05,-7e-05,-3e-05,-6e-05,-0.00011,-5e-05,0,3e-05,3,2
14513,-7e-05,-7e-05,-3e-05,-6e-05,-0.00011,-5e-05,0,3e-05,3,2
14514,-7e-05,-7e-05,-3e-05,-6e-05,-0.00011,-5e-05,0,3e-05,3,2
14515,-7e-05,-7e-05,-3e-05,-6e-05,-0.00011,-5e-05,0,3e-05,3,2
14516,-7e-05,-7e-05,-3e-05,-6e-05,-0.00011,-5e-05,0,3e-05,3,2
53247,0.00076,0.00019,8e-05,0.00023,6e-05,0.00013,0.00022,-0.0001,3,2
53248,0.00076,0.00019,8e-05,0.00023,6e-05,0.00013,0.00022,-0.0001,3,2
53249,0.00076,0.00019,8e-05,0.00023,6e-05,0.00013,0.00022,-0.0001,3,2
53250,0.00076,0.00019,8e-05,0.00023,6e-05,0.00013,0.00022,-0.0001,3,2
53251,0.00076,0.00019,8e-05,0.00023,6e-05,0.00013,0.00022,-0.0001,3,2
53252,-0.00082,-0.00024,-4e-05,5e-05,0,-7e-05,5e-05,-8e-05,3,2
53253,-0.00014,-3e-05,-1e-05,4e-05,4e-05,6e-05,0.00047,0.00038,3,2
53254,-0.00014,-3e-05,-1e-05,4e-05,4e-05,6e-05,0.00047,0.00038,3,2
53255,-0.00014,-3e-05,-1e-05,4e-05,4e-05,6e-05,0.00047,0.00038,3,2
53256,-0.00014,-3e-05,-1e-05,4e-05,4e-05,6e-05,0.00047,0.00038,3,2
53257,-0.00014,-3e-05,-1e-05,4e-05,4e-05,6e-05,0.00047,0.00038,3,2
53258,-0.00014,-3e-05,-1e-05,4e-05,4e-05,6e-05,0.00047,0.00038,3,2
53259,-0.00014,-3e-05,-1e-05,4e-05,4e-05,6e-05,0.00047,0.00038,3,2
53260,-0.00014,-3e-05,-1e-05,4e-05,4e-05,6e-05,0.00047,0.00038,3,2
53261,-0.00014,-3e-05,-1e-05,4e-05,4e-05,6e-05,0.00047,0.00038,3,2
53262,-0.00014,-3e-05,-1e-05,4e-05,4e-05,6e-05,0.00047,0.00038,3,2
53263,-0.00014,-3e-05,-1e-05,4e-05,4e-05,6e-05,0.00047,0.00038,3,2
53264,-0.00014,-3e-05,-1e-05,4e-05,4e-05,6e-05,0.00047,0.00038,3,2
53265,-0.00014,-3e-05,-1e-05,4e-05,4e-05,6e-05,0.00047,0.00038,3,2
53266,-0.00014,-3e-05,-1e-05,4e-05,4e-05,6e-05,0.00047,0.00038,3,2
53267,-0.00022,-2e-05,-3e-05,8e-05,9e-05,0.00026,9e-05,-0.0002,3,2
53268,-0.00042,-8e-05,-2e-05,-8e-05,0.00011,-1e-05,0.00041,0,3,2
53269,-0.00042,-8e-05,-2e-05,-8e-05,0.00011,-1e-05,0.00041,0,3,2
53270,-0.00042,-8e-05,-2e-05,-8e-05,0.00011,-1e-05,0.00041,0,3,2
53271,-0.00042,-8e-05,-2e-05,-8e-05,0.00011,-1e-05,0.00041,0,3,2
53272,-0.00042,-8e-05,-2e-05,-8e-05,0.00011,-1e-05,0.00041,0,3,2
53273,-0.00042,-8e-05,-2e-05,-8e-05,0.00011,-1e-05,0.00041,0,3,2
53274,-0.00042,-8e-05,-2e-05,-8e-05,0.00011,-1e-05,0.00041,0,3,2
53275,-0.00042,-8e-05,-2e-05,-8e-05,0.00011,-1e-05,0.00041,0,3,2
53276,-0.00042,-8e-05,-2e-05,-8e-05,0.00011,-1e-05,0.00041,0,3,2
53277,-0.00042,-8e-05,-2e-05,-8e-05,0.00011,-1e-05,0.00041,0,3,2
53278,-0.00042,-8e-05,-2e-05,-8e-05,0.00011,-1e-05,0.00041,0,3,2
53279,-0.00042,-8e-05,-2e-05,-8e-05,0.00011,-1e-05,0.00041,0,3,2
53280,-0.00042,-8e-05,-2e-05,-8e-05,0.00011,-1e-05,0.00041,0,3,2
53281,-0.00042,-8e-05,-2e-05,-8e-05,0.00011,-1e-05,0.00041,0,3,2
53282,-0.00042,-8e-05,-2e-05,-8e-05,0.00011,-1e-05,0.00041,0,3,2
53283,-0.00042,-8e-05,-2e-05,-8e-05,0.00011,-1e-05,0.00041,0,3,2
53284,-0.00042,-8e-05,-2e-05,-8e-05,0.00011,-1e-05,0.00041,0,3,2
53285,-0.00042,-8e-05,-2e-05,-8e-05,0.00011,-1e-05,0.00041,0,3,2
53286,-0.00042,-8e-05,-2e-05,-8e-05,0.00011,-1e-05,0.00041,0,3,2
53288,-0.00042,-8e-05,-2e-05,-8e-05,0.00011,-1e-05,0.00041,0,3,2
53289,-0.00042,-8e-05,-2e-05,-8e-05,0.00011,-1e-05,0.00041,0,3,2
53290,-0.00042,-8e-05,-2e-05,-8e-05,0.00011,-1e-05,0.00041,0,3,2
53291,-0.00042,-8e-05,-2e-05,-8e-05,0.00011,-1e-05,0.00041,0,3,2
53292,-0.00042,-8e-05,-2e-05,-8e-05,0.00011,-1e-05,0.00041,0,3,2
53293,-0.00042,-8e-05,-2e-05,-8e-05,0.00011,-1e-05,0.00041,0,3,2
53294,-0.00042,-8e-05,-2e-05,-8e-05,0.00011,-1e-05,0.00041,0,3,2
53295,-0.00042,-8e-05,-2e-05,-8e-05,0.00011,-1e-05,0.00041,0,3,2
53296,-0.00042,-8e-05,-2e-05,-8e-05,0.00011,-1e-05,0.00041,0,3,2
53297,-0.00109,-0.00035,-9e-05,-0.00012,-0.00018,-0.00025,0.00047,-0.00013,3,2
53298,-0.00122,-4e-05,2e-05,-8e-05,-6e-05,8e-05,-0.00069,-0.00082,3,2
53299,-0.00122,-4e-05,2e-05,-8e-05,-6e-05,8e-05,-0.00069,-0.00082,3,2
53300,-0.00122,-4e-05,2e-05,-8e-05,-6e-05,8e-05,-0.00069,-0.00082,3,2
53301,-0.00122,-4e-05,2e-05,-8e-05,-6e-05,8e-05,-0.00069,-0.00082,3,2
53302,-0.00122,-4e-05,2e-05,-8e-05,-6e-05,8e-05,-0.00069,-0.00082,3,2
53303,-0.00122,-4e-05,2e-05,-8e-05,-6e-05,8e-05,-0.00069,-0.00082,3,2
53304,-0.00122,-4e-05,2e-05,-8e-05,-6e-05,8e-05,-0.00069,-0.00082,3,2
53305,-0.00122,-4e-05,2e-05,-8e-05,-6e-05,8e-05,-0.00069,-0.00082,3,2
53306,-0.00122,-4e-05,2e-05,-8e-05,-6e-05,8e-05,-0.00069,-0.00082,3,2
53307,-0.00122,-4e-05,2e-05,-8e-05,-6e-05,8e-05,-0.00069,-0.00082,3,2
53308,-0.00122,-4e-05,2e-05,-8e-05,-6e-05,8e-05,-0.00069,-0.00082,3,2
53309,-0.00122,-4e-05,2e-05,-8e-05,-6e-05,8e-05,-0.00069,-0.00082,3,2
53310,-0.00122,-4e-05,2e-05,-8e-05,-6e-05,8e-05,-0.00069,-0.00082,3,2
53311,-0.00122,-4e-05,2e-05,-8e-05,-6e-05,8e-05,-0.00069,-0.00082,3,2
53312,0.00061,0.00011,6e-05,6e-05,0.00012,9e-05,0.00016,0.00031,3,2
53313,0.0007,7e-05,-2e-05,3e-05,4e-05,0.00016,0.00036,5e-05,3,2
53314,0.0007,7e-05,-2e-05,3e-05,4e-05,0.00016,0.00036,5e-05,3,2
53315,0.0007,7e-05,-2e-05,3e-05,4e-05,0.00016,0.00036,5e-05,3,2
53316,0.0007,7e-05,-2e-05,3e-05,4e-05,0.00016,0.00036,5e-05,3,2
53317,0.0007,7e-05,-2e-05,3e-05,4e-05,0.00016,0.00036,5e-05,3,2
53318,0.0007,7e-05,-2e-05,3e-05,4e-05,0.00016,0.00036,5e-05,3,2
53319,0.0007,7e-05,-2e-05,3e-05,4e-05,0.00016,0.00036,5e-05,3,2
53320,0.0007,7e-05,-2e-05,3e-05,4e-05,0.00016,0.00036,5e-05,3,2
53321,0.0007,7e-05,-2e-05,3e-05,4e-05,0.00016,0.00036,5e-05,3,2
53322,0.0007,7e-05,-2e-05,3e-05,4e-05,0.00016,0.00036,5e-05,3,2
53323,0.0007,7e-05,-2e-05,3e-05,4e-05,0.00016,0.00036,5e-05,3,2
53324,0.0007,7e-05,-2e-05,3e-05,4e-05,0.00016,0.00036,5e-05,3,2
53325,0.0007,7e-05,-2e-05,3e-05,4e-05,0.00016,0.00036,5e-05,3,2
53326,0.00033,-7e-05,-5e-05,-2e-05,-0.00011,-0.00013,-0.00037,-4e-05,3,2
53327,0.00056,0.00013,1e-05,2e-05,-2e-05,-5e-05,-8e-05,8e-05,3,2
53328,0.00056,0.00013,1e-05,2e-05,-2e-05,-5e-05,-8e-05,8e-05,3,2
53329,0.00056,0.00013,1e-05,2e-05,-2e-05,-5e-05,-8e-05,8e-05,3,2
53330,0.00056,0.00013,1e-05,2e-05,-2e-05,-5e-05,-8e-05,8e-05,3,2
53331,0.00056,0.00013,1e-05,2e-05,-2e-05,-5e-05,-8e-05,8e-05,3,2
53332,0.00056,0.00013,1e-05,2e-05,-2e-05,-5e-05,-8e-05,8e-05,3,2
53333,0.00056,0.00013,1e-05,2e-05,-2e-05,-5e-05,-8e-05,8e-05,3,2
53334,0.00056,0.00013,1e-05,2e-05,-2e-05,-5e-05,-8e-05,8e-05,3,2
53335,0.00056,0.00013,1e-05,2e-05,-2e-05,-5e-05,-8e-05,8e-05,3,2
53336,0.00056,0.00013,1e-05,2e-05,-2e-05,-5e-05,-8e-05,8e-05,3,2
53338,0.00056,0.00013,1e-05,2e-05,-2e-05,-5e-05,-8e-05,8e-05,3,2
53339,0.00056,0.00013,1e-05,2e-05,-2e-05,-5e-05,-8e-05,8e-05,3,2
53340,0.00056,0.00013,1e-05,2e-05,-2e-05,-5e-05,-8e-05,8e-05,3,2
53341,0.00056,0.00013,1e-05,2e-05,-2e-05,-5e-05,-8e-05,8e-05,3,2
53342,0.00056,0.00013,1e-05,2e-05,-2e-05,-5e-05,-8e-05,8e-05,3,2
53343,0.00056,0.00013,1e-05,2e-05,-2e-05,-5e-05,-8e-05,8e-05,3,2
53344,0.00056,0.00013,1e-05,2e-05,-2e-05,-5e-05,-8e-05,8e-05,3,2
53345,0.00056,0.00013,1e-05,2e-05,-2e-05,-5e-05,-8e-05,8e-05,3,2
53346,0.00056,0.00013,1e-05,2e-05,-2e-05,-5e-05,-8e-05,8e-05,3,2
53347,0.00056,0.00013,1e-05,2e-05,-2e-05,-5e-05,-8e-05,8e-05,3,2
53348,0.00056,0.00013,1e-05,2e-05,-2e-05,-5e-05,-8e-05,8e-05,3,2
53349,0.00056,0.00013,1e-05,2e-05,-2e-05,-5e-05,-8e-05,8e-05,3,2
53350,0.00119,0.00013,-5e-05,-2e-05,-0.0001,-0.00013,-0.00034,0.00047,3,2
53351,0.0002,-7e-05,-0.0001,-7e-05,-5e-05,-0.00013,0.00013,0.00025,3,2
53352,0.0002,-7e-05,-0.0001,-7e-05,-5e-05,-0.00013,0.00013,0.00025,3,2
53353,0.0002,-7e-05,-0.0001,-7e-05,-5e-05,-0.00013,0.00013,0.00025,3,2
53354,0.0002,-7e-05,-0.0001,-7e-05,-5e-05,-0.00013,0.00013,0.00025,3,2
53355,0.0002,-7e-05,-0.0001,-7e-05,-5e-05,-0.00013,0.00013,0.00025,3,2
53356,0.0002,-7e-05,-0.0001,-7e-05,-5e-05,-0.00013,0.00013,0.00025,3,2
53357,0.0002,-7e-05,-0.0001,-7e-05,-5e-05,-0.00013,0.00013,0.00025,3,2
53358,0.0002,-7e-05,-0.0001,-7e-05,-5e-05,-0.00013,0.00013,0.00025,3,2
53359,0.0002,-7e-05,-0.0001,-7e-05,-5e-05,-0.00013,0.00013,0.00025,3,2
53360,0.0002,-7e-05,-0.0001,-7e-05,-5e-05,-0.00013,0.00013,0.00025,3,2
53361,0.0002,-7e-05,-0.0001,-7e-05,-5e-05,-0.00013,0.00013,0.00025,3,2
53362,0.0002,-7e-05,-0.0001,-7e-05,-5e-05,-0.00013,0.00013,0.00025,3,2
53363,0.0002,-7e-05,-0.0001,-7e-05,-5e-05,-0.00013,0.00013,0.00025,3,2
53364,0.0002,-7e-05,-0.0001,-7e-05,-5e-05,-0.00013,0.00013,0.00025,3,2
53365,0.0002,-7e-05,-0.0001,-7e-05,-5e-05,-0.00013,0.00013,0.00025,3,2
53366,0.0002,-7e-05,-0.0001,-7e-05,-5e-05,-0.00013,0.00013,0.00025,3,2
53367,0.0002,-7e-05,-0.0001,-7e-05,-5e-05,-0.00013,0.00013,0.00025,3,2
53368,0.0002,-7e-05,-0.0001,-7e-05,-5e-05,-0.00013,0.00013,0.00025,3,2
53369,0.0002,-7e-05,-0.0001,-7e-05,-5e-05,-0.00013,0.00013,0.00025,3,2
53370,0.0002,-7e-05,-0.0001,-7e-05,-5e-05,-0.00013,0.00013,0.00025,3,2
53371,0.0002,-7e-05,-0.0001,-7e-05,-5e-05,-0.00013,0.00013,0.00025,3,2
53372,-0.00058,-0.0001,0,-1e-05,6e-05,-4e-05,0.00038,-5e-05,3,2
53373,-0.00018,1e-05,0,-5e-05,-0.00017,-0.00025,-1e-05,6e-05,3,2
53374,-0.00018,1e-05,0,-5e-05,-0.00017,-0.00025,-1e-05,6e-05,3,2
53375,-0.00018,1e-05,0,-5e-05,-0.00017,-0.00025,-1e-05,6e-05,3,2
53376,-0.00018,1e-05,0,-5e-05,-0.00017,-0.00025,-1e-05,6e-05,3,2
53377,-0.00018,1e-05,0,-5e-05,-0.00017,-0.00025,-1e-05,6e-05,3,2
53378,-0.00018,1e-05,0,-5e-05,-0.00017,-0.00025,-1e-05,6e-05,3,2
53379,-0.00018,1e-05,0,-5e-05,-0.00017,-0.00025,-1e-05,6e-05,3,2
53380,-0.00018,1e-05,0,-5e-05,-0.00017,-0.00025,-1e-05,6e-05,3,2
53381,-0.00018,1e-05,0,-5e-05,-0.00017,-0.00025,-1e-05,6e-05,3,2
53382,-0.00018,1e-05,0,-5e-05,-0.00017,-0.00025,-1e-05,6e-05,3,2
53383,-0.00018,1e-05,0,-5e-05,-0.00017,-0.00025,-1e-05,6e-05,3,2
53384,-0.00018,1e-05,0,-5e-05,-0.00017,-0.00025,-1e-05,6e-05,3,2
53385,-0.00018,1e-05,0,-5e-05,-0.00017,-0.00025,-1e-05,6e-05,3,2
53386,-0.00018,1e-05,0,-5e-05,-0.00017,-0.00025,-1e-05,6e-05,3,2
53388,0.0001,0.00014,0.00011,3e-05,3e-05,7e-05,0.00019,0.00058,3,2
53389,0.0001,0.00014,0.00011,3e-05,3e-05,7e-05,0.00019,0.00058,3,2
53390,0.0001,0.00014,0.00011,3e-05,3e-05,7e-05,0.00019,0.00058,3,2
53391,0.0001,0.00014,0.00011,3e-05,3e-05,7e-05,0.00019,0.00058,3,2
53392,0.0001,0.00014,0.00011,3e-05,3e-05,7e-05,0.00019,0.00058,3,2
53393,0.0001,0.00014,0.00011,3e-05,3e-05,7e-05,0.00019,0.00058,3,2
53394,3e-05,2e-05,7e-05,0.00013,6e-05,5e-05,-0.0003,-0.00022,3,2
53395,3e-05,2e-05,7e-05,0.00013,6e-05,5e-05,-0.0003,-0.00022,3,2
53396,3e-05,2e-05,7e-05,0.00013,6e-05,5e-05,-0.0003,-0.00022,3,2
53397,3e-05,2e-05,7e-05,0.00013,6e-05,5e-05,-0.0003,-0.00022,3,2
53398,3e-05,2e-05,7e-05,0.00013,6e-05,5e-05,-0.0003,-0.00022,3,2
53399,3e-05,2e-05,7e-05,0.00013,6e-05,5e-05,-0.0003,-0.00022,3,2
53400,3e-05,2e-05,7e-05,0.00013,6e-05,5e-05,-0.0003,-0.00022,3,2
53401,3e-05,2e-05,7e-05,0.00013,6e-05,5e-05,-0.0003,-0.00022,3,2
53402,3e-05,2e-05,7e-05,0.00013,6e-05,5e-05,-0.0003,-0.00022,3,2
53404,3e-05,2e-05,7e-05,0.00013,6e-05,5e-05,-0.0003,-0.00022,3,2
53405,3e-05,2e-05,7e-05,0.00013,6e-05,5e-05,-0.0003,-0.00022,3,2
53406,3e-05,2e-05,7e-05,0.00013,6e-05,5e-05,-0.0003,-0.00022,3,2
53407,3e-05,2e-05,7e-05,0.00013,6e-05,5e-05,-0.0003,-0.00022,3,2
53408,3e-05,2e-05,7e-05,0.00013,6e-05,5e-05,-0.0003,-0.00022,3,2
53409,3e-05,2e-05,7e-05,0.00013,6e-05,5e-05,-0.0003,-0.00022,3,2
53410,-0.00032,-2e-05,-1e-05,-4e-05,-2e-05,4e-05,0.00013,-0.00046,3,2
53411,-0.00034,-0.00022,-0.0001,-5e-05,-8e-05,-0.00027,-0.00027,-0.00033,3,2
53412,-0.00034,-0.00022,-0.0001,-5e-05,-8e-05,-0.00027,-0.00027,-0.00033,3,2
53413,-0.00034,-0.00022,-0.0001,-5e-05,-8e-05,-0.00027,-0.00027,-0.00033,3,2
53414,-0.00034,-0.00022,-0.0001,-5e-05,-8e-05,-0.00027,-0.00027,-0.00033,3,2
53415,-0.00034,-0.00022,-0.0001,-5e-05,-8e-05,-0.00027,-0.00027,-0.00033,3,2
53416,-0.00034,-0.00022,-0.0001,-5e-05,-8e-05,-0.00027,-0.00027,-0.00033,3,2
53417,-0.00034,-0.00022,-0.0001,-5e-05,-8e-05,-0.00027,-0.00027,-0.00033,3,2
53418,-0.00034,-0.00022,-0.0001,-5e-05,-8e-05,-0.00027,-0.00027,-0.00033,3,2
53419,-0.00034,-0.00022,-0.0001,-5e-05,-8e-05,-0.00027,-0.00027,-0.00033,3,2
53420,-0.00034,-0.00022,-0.0001,-5e-05,-8e-05,-0.00027,-0.00027,-0.00033,3,2
53421,-0.00034,-0.00022,-0.0001,-5e-05,-8e-05,-0.00027,-0.00027,-0.00033,3,2
53422,-0.00034,-0.00022,-0.0001,-5e-05,-8e-05,-0.00027,-0.00027,-0.00033,3,2
53423,-0.00034,-0.00022,-0.0001,-5e-05,-8e-05,-0.00027,-0.00027,-0.00033,3,2
53424,-0.00034,-0.00022,-0.0001,-5e-05,-8e-05,-0.00027,-0.00027,-0.00033,3,2
53425,-0.00034,-0.00022,-0.0001,-5e-05,-8e-05,-0.00027,-0.00027,-0.00033,3,2
53426,-0.00034,-0.00022,-0.0001,-5e-05,-8e-05,-0.00027,-0.00027,-0.00033,3,2
53427,-0.00034,-0.00022,-0.0001,-5e-05,-8e-05,-0.00027,-0.00027,-0.00033,3,2
53428,-0.00034,-0.00022,-0.0001,-5e-05,-8e-05,-0.00027,-0.00027,-0.00033,3,2
53429,-0.00034,-0.00022,-0.0001,-5e-05,-8e-05,-0.00027,-0.00027,-0.00033,3,2
53430,-0.00034,-0.00022,-0.0001,-5e-05,-8e-05,-0.00027,-0.00027,-0.00033,3,2
53431,-0.00034,-0.00022,-0.0001,-5e-05,-8e-05,-0.00027,-0.00027,-0.00033,3,2
53432,0.00064,5e-05,3e-05,0,-3e-05,-0.00011,-0.00037,-0.00028,3,2
53433,-0.00012,-1e-05,0,-5e-05,-4e-05,4e-05,0.00015,0.0001,3,2
53434,-0.00012,-1e-05,0,-5e-05,-4e-05,4e-05,0.00015,0.0001,3,2
53435,-0.00012,-1e-05,0,-5e-05,-4e-05,4e-05,0.00015,0.0001,3,2
53436,-0.00012,-1e-05,0,-5e-05,-4e-05,4e-05,0.00015,0.0001,3,2
53438,-0.00012,-1e-05,0,-5e-05,-4e-05,4e-05,0.00015,0.0001,3,2
53439,-0.00012,-1e-05,0,-5e-05,-4e-05,4e-05,0.00015,0.0001,3,2
53440,-0.00012,-1e-05,0,-5e-05,-4e-05,4e-05,0.00015,0.0001,3,2
