11786,0.00028,0.00014,6e-05,8e-05,0.00012,0.00035,-4e-05,1e-05,3,21
11787,0.00028,0.00014,6e-05,8e-05,0.00012,0.00035,-4e-05,1e-05,3,21
11788,0.00028,0.00014,6e-05,8e-05,0.00012,0.00035,-4e-05,1e-05,3,21
11789,0.00028,0.00014,6e-05,8e-05,0.00012,0.00035,-4e-05,1e-05,3,21
11790,0.00013,-5e-05,-1e-05,-2e-05,-5e-05,0.00045,-2e-05,9e-05,3,21
11791,0.00013,-5e-05,-1e-05,-2e-05,-5e-05,0.00045,-2e-05,9e-05,3,21
11792,0.00013,-5e-05,-1e-05,-2e-05,-5e-05,0.00045,-2e-05,9e-05,3,21
11793,0.00013,-5e-05,-1e-05,-2e-05,-5e-05,0.00045,-2e-05,9e-05,3,21
11794,0.00013,-5e-05,-1e-05,-2e-05,-5e-05,0.00045,-2e-05,9e-05,3,21
11795,0.00013,-5e-05,-1e-05,-2e-05,-5e-05,0.00045,-2e-05,9e-05,3,21
11796,0.00013,-5e-05,-1e-05,-2e-05,-5e-05,0.00045,-2e-05,9e-05,3,21
11797,0.00013,-5e-05,-1e-05,-2e-05,-5e-05,0.00045,-2e-05,9e-05,3,21
11798,0.00013,-5e-05,-1e-05,-2e-05,-5e-05,0.00045,-2e-05,9e-05,3,21
11799,0.00013,-5e-05,-1e-05,-2e-05,-5e-05,0.00045,-2e-05,9e-05,3,21
11800,0.00013,-5e-05,-1e-05,-2e-05,-5e-05,0.00045,-2e-05,9e-05,3,21
11801,0.00013,-5e-05,-1e-05,-2e-05,-5e-05,0.00045,-2e-05,9e-05,3,21
11802,0.00013,-5e-05,-1e-05,-2e-05,-5e-05,0.00045,-2e-05,9e-05,3,21
11803,0.00013,-5e-05,-1e-05,-2e-05,-5e-05,0.00045,-2e-05,9e-05,3,21
11804,0.00013,-5e-05,-1e-05,-2e-05,-5e-05,0.00045,-2e-05,9e-05,3,21
11805,-0.00013,-8e-05,-8e-05,0.0001,0.00018,0.00044,-9e-05,-1e-05,3,21
11806,-9e-05,0,-5e-05,-4e-05,-8e-05,-0.00011,-7e-05,-1e-05,3,21
11807,-9e-05,0,-5e-05,-4e-05,-8e-05,-0.00011,-7e-05,-1e-05,3,21
11808,-9e-05,0,-5e-05,-4e-05,-8e-05,-0.00011,-7e-05,-1e-05,3,21
11809,-9e-05,0,-5e-05,-4e-05,-8e-05,-0.00011,-7e-05,-1e-05,3,21
11810,-9e-05,0,-5e-05,-4e-05,-8e-05,-0.00011,-7e-05,-1e-05,3,21
11811,-9e-05,0,-5e-05,-4e-05,-8e-05,-0.00011,-7e-05,-1e-05,3,21
11812,-9e-05,0,-5e-05,-4e-05,-8e-05,-0.00011,-7e-05,-1e-05,3,21
11813,-9e-05,0,-5e-05,-4e-05,-8e-05,-0.00011,-7e-05,-1e-05,3,21
11814,-9e-05,0,-5e-05,-4e-05,-8e-05,-0.00011,-7e-05,-1e-05,3,21
11815,-9e-05,0,-5e-05,-4e-05,-8e-05,-0.00011,-7e-05,-1e-05,3,21
11816,-9e-05,0,-5e-05,-4e-05,-8e-05,-0.00011,-7e-05,-1e-05,3,21
11817,-9e-05,0,-5e-05,-4e-05,-8e-05,-0.00011,-7e-05,-1e-05,3,21
11818,-9e-05,0,-5e-05,-4e-05,-8e-05,-0.00011,-7e-05,-1e-05,3,21
11819,-9e-05,0,-5e-05,-4e-05,-8e-05,-0.00011,-7e-05,-1e-05,3,21
11820,-9e-05,0,-5e-05,-4e-05,-8e-05,-0.00011,-7e-05,-1e-05,3,21
11821,-9e-05,0,-5e-05,-4e-05,-8e-05,-0.00011,-7e-05,-1e-05,3,21
11822,-9e-05,0,-5e-05,-4e-05,-8e-05,-0.00011,-7e-05,-1e-05,3,21
11823,-9e-05,0,-5e-05,-4e-05,-8e-05,-0.00011,-7e-05,-1e-05,3,21
11824,-9e-05,0,-5e-05,-4e-05,-8e-05,-0.00011,-7e-05,-1e-05,3,21
11825,-9e-05,0,-5e-05,-4e-05,-8e-05,-0.00011,-7e-05,-1e-05,3,21
11826,-9e-05,0,-5e-05,-4e-05,-8e-05,-0.00011,-7e-05,-1e-05,3,21
11827,-0.00029,-3e-05,0,-0.00011,-0.00089,0.0002,-6e-05,-9e-05,3,21
11828,-0.00029,-3e-05,0,-0.00011,-0.00089,0.0002,-6e-05,-9e-05,3,21
11829,-0.00043,-9e-05,-4e-05,-8e-05,-0.00039,-0.0002,0.00011,1e-05,3,21
11830,-0.00043,-9e-05,-4e-05,-8e-05,-0.00039,-0.0002,0.00011,1e-05,3,21
11831,-0.00043,-9e-05,-4e-05,-8e-05,-0.00039,-0.0002,0.00011,1e-05,3,21
11832,-0.00043,-9e-05,-4e-05,-8e-05,-0.00039,-0.0002,0.00011,1e-05,3,21
11833,-0.00043,-9e-05,-4e-05,-8e-05,-0.00039,-0.0002,0.00011,1e-05,3,21
11834,-0.00043,-9e-05,-4e-05,-8e-05,-0.00039,-0.0002,0.00011,1e-05,3,21
11835,-0.00043,-9e-05,-4e-05,-8e-05,-0.00039,-0.0002,0.00011,1e-05,3,21
11837,-0.00043,-9e-05,-4e-05,-8e-05,-0.00039,-0.0002,0.00011,1e-05,3,21
11839,-0.00043,-9e-05,-4e-05,-8e-05,-0.00039,-0.0002,0.00011,1e-05,3,21
11840,-0.00043,-9e-05,-4e-05,-8e-05,-0.00039,-0.0002,0.00011,1e-05,3,21
11841,2e-05,-3e-05,-3e-05,-7e-05,-0.00011,-0.0002,-9e-05,-1e-05,3,21
11842,2e-05,-3e-05,-3e-05,-7e-05,-0.00011,-0.0002,-9e-05,-1e-05,3,21
11843,2e-05,-3e-05,-3e-05,-7e-05,-0.00011,-0.0002,-9e-05,-1e-05,3,21
11844,2e-05,-3e-05,-3e-05,-7e-05,-0.00011,-0.0002,-9e-05,-1e-05,3,21
11845,2e-05,-3e-05,-3e-05,-7e-05,-0.00011,-0.0002,-9e-05,-1e-05,3,21
11846,2e-05,-3e-05,-3e-05,-7e-05,-0.00011,-0.0002,-9e-05,-1e-05,3,21
11847,2e-05,-3e-05,-3e-05,-7e-05,-0.00011,-0.0002,-9e-05,-1e-05,3,21
11848,2e-05,-3e-05,-3e-05,-7e-05,-0.00011,-0.0002,-9e-05,-1e-05,3,21
11849,2e-05,-3e-05,-3e-05,-7e-05,-0.00011,-0.0002,-9e-05,-1e-05,3,21
11850,0.00023,1e-05,4e-05,-2e-05,-0.00049,-0.00013,-4e-05,2e-05,3,21
11851,0.00023,1e-05,4e-05,-2e-05,-0.00049,-0.00013,-4e-05,2e-05,3,21
11852,0.00023,1e-05,4e-05,-2e-05,-0.00049,-0.00013,-4e-05,2e-05,3,21
11853,0.00023,1e-05,4e-05,-2e-05,-0.00049,-0.00013,-4e-05,2e-05,3,21
11854,0.00023,1e-05,4e-05,-2e-05,-0.00049,-0.00013,-4e-05,2e-05,3,21
11855,0.00023,1e-05,4e-05,-2e-05,-0.00049,-0.00013,-4e-05,2e-05,3,21
11856,0.00023,1e-05,4e-05,-2e-05,-0.00049,-0.00013,-4e-05,2e-05,3,21
11857,0.00023,1e-05,4e-05,-2e-05,-0.00049,-0.00013,-4e-05,2e-05,3,21
11858,0.00023,1e-05,4e-05,-2e-05,-0.00049,-0.00013,-4e-05,2e-05,3,21
11859,0.00023,1e-05,4e-05,-2e-05,-0.00049,-0.00013,-4e-05,2e-05,3,21
11860,0.00023,1e-05,4e-05,-2e-05,-0.00049,-0.00013,-4e-05,2e-05,3,21
11861,0.00023,1e-05,4e-05,-2e-05,-0.00049,-0.00013,-4e-05,2e-05,3,21
11862,0.00023,1e-05,4e-05,-2e-05,-0.00049,-0.00013,-4e-05,2e-05,3,21
11863,0.00023,1e-05,4e-05,-2e-05,-0.00049,-0.00013,-4e-05,2e-05,3,21
11864,0.00023,1e-05,4e-05,-2e-05,-0.00049,-0.00013,-4e-05,2e-05,3,21
11865,-4e-05,-0.00014,2e-05,0.00011,0.00075,-1e-05,6e-05,3e-05,3,21
11866,0.00017,3e-05,-3e-05,-0.00019,-0.00042,-0.00077,-0.00011,-3e-05,3,21
11867,0.00017,3e-05,-3e-05,-0.00019,-0.00042,-0.00077,-0.00011,-3e-05,3,21
11868,0.00017,3e-05,-3e-05,-0.00019,-0.00042,-0.00077,-0.00011,-3e-05,3,21
11869,0.00017,3e-05,-3e-05,-0.00019,-0.00042,-0.00077,-0.00011,-3e-05,3,21
11870,0.00017,3e-05,-3e-05,-0.00019,-0.00042,-0.00077,-0.00011,-3e-05,3,21
11871,0.00017,3e-05,-3e-05,-0.00019,-0.00042,-0.00077,-0.00011,-3e-05,3,21
11872,0.00017,3e-05,-3e-05,-0.00019,-0.00042,-0.00077,-0.00011,-3e-05,3,21
11873,0.00017,3e-05,-3e-05,-0.00019,-0.00042,-0.00077,-0.00011,-3e-05,3,21
11874,0.00017,3e-05,-3e-05,-0.00019,-0.00042,-0.00077,-0.00011,-3e-05,3,21
11875,0.00017,3e-05,-3e-05,-0.00019,-0.00042,-0.00077,-0.00011,-3e-05,3,21
11876,0.00017,3e-05,-3e-05,-0.00019,-0.00042,-0.00077,-0.00011,-3e-05,3,21
11877,0.00017,3e-05,-3e-05,-0.00019,-0.00042,-0.00077,-0.00011,-3e-05,3,21
11878,0.00017,3e-05,-3e-05,-0.00019,-0.00042,-0.00077,-0.00011,-3e-05,3,21
11879,0.00017,3e-05,-3e-05,-0.00019,-0.00042,-0.00077,-0.00011,-3e-05,3,21
11880,0.00017,3e-05,-3e-05,-0.00019,-0.00042,-0.00077,-0.00011,-3e-05,3,21
11881,0.00017,3e-05,-3e-05,-0.00019,-0.00042,-0.00077,-0.00011,-3e-05,3,21
11882,0.00017,3e-05,-3e-05,-0.00019,-0.00042,-0.00077,-0.00011,-3e-05,3,21
11883,0.00017,3e-05,-3e-05,-0.00019,-0.00042,-0.00077,-0.00011,-3e-05,3,21
11884,0.00017,3e-05,-3e-05,-0.00019,-0.00042,-0.00077,-0.00011,-3e-05,3,21
11885,0.00017,3e-05,-3e-05,-0.00019,-0.00042,-0.00077,-0.00011,-3e-05,3,21
11887,-0.0001,5e-05,3e-05,-0.00011,-0.00033,-0.00019,-5e-05,0,3,21
11889,8e-05,-9e-05,-3e-05,2e-05,0.00021,2e-05,0,1e-05,3,21
11890,8e-05,-9e-05,-3e-05,2e-05,0.00021,2e-05,0,1e-05,3,21
11891,8e-05,-9e-05,-3e-05,2e-05,0.00021,2e-05,0,1e-05,3,21
11892,8e-05,-9e-05,-3e-05,2e-05,0.00021,2e-05,0,1e-05,3,21
11893,8e-05,-9e-05,-3e-05,2e-05,0.00021,2e-05,0,1e-05,3,21
11894,8e-05,-9e-05,-3e-05,2e-05,0.00021,2e-05,0,1e-05,3,21
11895,8e-05,-9e-05,-3e-05,2e-05,0.00021,2e-05,0,1e-05,3,21
11896,8e-05,-9e-05,-3e-05,2e-05,0.00021,2e-05,0,1e-05,3,21
11897,8e-05,-9e-05,-3e-05,2e-05,0.00021,2e-05,0,1e-05,3,21
11898,8e-05,-9e-05,-3e-05,2e-05,0.00021,2e-05,0,1e-05,3,21
11899,8e-05,-9e-05,-3e-05,2e-05,0.00021,2e-05,0,1e-05,3,21
11900,8e-05,-9e-05,-3e-05,2e-05,0.00021,2e-05,0,1e-05,3,21
11901,-0.00028,0,0,-7e-05,-0.00039,-0.00022,-5e-05,-8e-05,3,21
11902,-0.00028,0,0,-7e-05,-0.00039,-0.00022,-5e-05,-8e-05,3,21
11903,-0.00028,0,0,-7e-05,-0.00039,-0.00022,-5e-05,-8e-05,3,21
11904,-0.00028,0,0,-7e-05,-0.00039,-0.00022,-5e-05,-8e-05,3,21
11905,-0.00028,0,0,-7e-05,-0.00039,-0.00022,-5e-05,-8e-05,3,21
11906,-0.00028,0,0,-7e-05,-0.00039,-0.00022,-5e-05,-8e-05,3,21
11907,-0.00028,0,0,-7e-05,-0.00039,-0.00022,-5e-05,-8e-05,3,21
11908,-0.00028,0,0,-7e-05,-0.00039,-0.00022,-5e-05,-8e-05,3,21
11909,-0.00028,0,0,-7e-05,-0.00039,-0.00022,-5e-05,-8e-05,3,21
11910,-0.00046,3e-05,1e-05,-1e-05,-4e-05,0.00012,-2e-05,-0.00012,3,21
11911,-0.00046,3e-05,1e-05,-1e-05,-4e-05,0.00012,-2e-05,-0.00012,3,21
11912,-0.00046,3e-05,1e-05,-1e-05,-4e-05,0.00012,-2e-05,-0.00012,3,21
11913,-0.00046,3e-05,1e-05,-1e-05,-4e-05,0.00012,-2e-05,-0.00012,3,21
11914,-0.00046,3e-05,1e-05,-1e-05,-4e-05,0.00012,-2e-05,-0.00012,3,21
11915,-0.00046,3e-05,1e-05,-1e-05,-4e-05,0.00012,-2e-05,-0.00012,3,21
11916,-0.00046,3e-05,1e-05,-1e-05,-4e-05,0.00012,-2e-05,-0.00012,3,21
11917,-0.00046,3e-05,1e-05,-1e-05,-4e-05,0.00012,-2e-05,-0.00012,3,21
11918,-0.00046,3e-05,1e-05,-1e-05,-4e-05,0.00012,-2e-05,-0.00012,3,21
11919,-0.00046,3e-05,1e-05,-1e-05,-4e-05,0.00012,-2e-05,-0.00012,3,21
11920,-0.00046,3e-05,1e-05,-1e-05,-4e-05,0.00012,-2e-05,-0.00012,3,21
11921,-0.00046,3e-05,1e-05,-1e-05,-4e-05,0.00012,-2e-05,-0.00012,3,21
11922,-0.00046,3e-05,1e-05,-1e-05,-4e-05,0.00012,-2e-05,-0.00012,3,21
11923,-0.00046,3e-05,1e-05,-1e-05,-4e-05,0.00012,-2e-05,-0.00012,3,21
11924,-0.00046,3e-05,1e-05,-1e-05,-4e-05,0.00012,-2e-05,-0.00012,3,21
11925,-3e-05,-1e-05,-5e-05,-0.00014,-0.00019,0.00014,2e-05,-6e-05,3,21
11926,-0.00048,-9e-05,-4e-05,-3e-05,0.00025,0.00021,4e-05,-1e-05,3,21
11927,-0.00048,-9e-05,-4e-05,-3e-05,0.00025,0.00021,4e-05,-1e-05,3,21
11928,-0.00048,-9e-05,-4e-05,-3e-05,0.00025,0.00021,4e-05,-1e-05,3,21
11929,-0.00048,-9e-05,-4e-05,-3e-05,0.00025,0.00021,4e-05,-1e-05,3,21
11930,-0.00048,-9e-05,-4e-05,-3e-05,0.00025,0.00021,4e-05,-1e-05,3,21
11931,-0.00048,-9e-05,-4e-05,-3e-05,0.00025,0.00021,4e-05,-1e-05,3,21
11932,-0.00048,-9e-05,-4e-05,-3e-05,0.00025,0.00021,4e-05,-1e-05,3,21
11933,-0.00048,-9e-05,-4e-05,-3e-05,0.00025,0.00021,4e-05,-1e-05,3,21
11934,-0.00048,-9e-05,-4e-05,-3e-05,0.00025,0.00021,4e-05,-1e-05,3,21
11935,-0.00048,-9e-05,-4e-05,-3e-05,0.00025,0.00021,4e-05,-1e-05,3,21
11937,-0.00048,-9e-05,-4e-05,-3e-05,0.00025,0.00021,4e-05,-1e-05,3,21
11939,-0.00048,-9e-05,-4e-05,-3e-05,0.00025,0.00021,4e-05,-1e-05,3,21
11940,-0.00048,-9e-05,-4e-05,-3e-05,0.00025,0.00021,4e-05,-1e-05,3,21
11941,-0.00048,-9e-05,-4e-05,-3e-05,0.00025,0.00021,4e-05,-1e-05,3,21
11942,-0.00048,-9e-05,-4e-05,-3e-05,0.00025,0.00021,4e-05,-1e-05,3,21
11943,-0.00048,-9e-05,-4e-05,-3e-05,0.00025,0.00021,4e-05,-1e-05,3,21
11944,-0.00048,-9e-05,-4e-05,-3e-05,0.00025,0.00021,4e-05,-1e-05,3,21
11945,-0.00048,-9e-05,-4e-05,-3e-05,0.00025,0.00021,4e-05,-1e-05,3,21
11946,-0.00048,-9e-05,-4e-05,-3e-05,0.00025,0.00021,4e-05,-1e-05,3,21
11947,-3e-05,4e-05,3e-05,0.00013,0.00077,-7e-05,0.00016,2e-05,3,21
11948,-3e-05,4e-05,3e-05,0.00013,0.00077,-7e-05,0.00016,2e-05,3,21
11949,-1e-05,-4e-05,-0.00013,2e-05,0.00078,0.00078,7e-05,-1e-05,3,21
11950,-1e-05,-4e-05,-0.00013,2e-05,0.00078,0.00078,7e-05,-1e-05,3,21
11951,-1e-05,-4e-05,-0.00013,2e-05,0.00078,0.00078,7e-05,-1e-05,3,21
11952,-1e-05,-4e-05,-0.00013,2e-05,0.00078,0.00078,7e-05,-1e-05,3,21
11953,-1e-05,-4e-05,-0.00013,2e-05,0.00078,0.00078,7e-05,-1e-05,3,21
11954,-1e-05,-4e-05,-0.00013,2e-05,0.00078,0.00078,7e-05,-1e-05,3,21
11955,-1e-05,-4e-05,-0.00013,2e-05,0.00078,0.00078,7e-05,-1e-05,3,21
11956,-1e-05,-4e-05,-0.00013,2e-05,0.00078,0.00078,7e-05,-1e-05,3,21
11957,-1e-05,-4e-05,-0.00013,2e-05,0.00078,0.00078,7e-05,-1e-05,3,21
11958,-1e-05,-4e-05,-0.00013,2e-05,0.00078,0.00078,7e-05,-1e-05,3,21
11959,-1e-05,-4e-05,-0.00013,2e-05,0.00078,0.00078,7e-05,-1e-05,3,21
11960,-1e-05,-4e-05,-0.00013,2e-05,0.00078,0.00078,7e-05,-1e-05,3,21
11961,-0.0001,-5e-05,-2e-05,0,-0.00033,-1e-05,-8e-05,0,3,21
11962,-0.0001,-5e-05,-2e-05,0,-0.00033,-1e-05,-8e-05,0,3,21
11963,-0.0001,-5e-05,-2e-05,0,-0.00033,-1e-05,-8e-05,0,3,21
11964,-0.0001,-5e-05,-2e-05,0,-0.00033,-1e-05,-8e-05,0,3,21
11965,-0.0001,-5e-05,-2e-05,0,-0.00033,-1e-05,-8e-05,0,3,21
11966,-0.0001,-5e-05,-2e-05,0,-0.00033,-1e-05,-8e-05,0,3,21
11967,-0.0001,-5e-05,-2e-05,0,-0.00033,-1e-05,-8e-05,0,3,21
11968,-0.0001,-5e-05,-2e-05,0,-0.00033,-1e-05,-8e-05,0,3,21
11969,-0.0001,-5e-05,-2e-05,0,-0.00033,-1e-05,-8e-05,0,3,21
11970,-0.00016,0.00015,0.00033,0.00014,0.0001,-6e-05,5e-05,-0.00016,3,21
11971,-0.00016,0.00015,0.00033,0.00014,0.0001,-6e-05,5e-05,-0.00016,3,21
11972,-0.00016,0.00015,0.00033,0.00014,0.0001,-6e-05,5e-05,-0.00016,3,21
11973,-0.00016,0.00015,0.00033,0.00014,0.0001,-6e-05,5e-05,-0.00016,3,21
11974,-0.00016,0.00015,0.00033,0.00014,0.0001,-6e-05,5e-05,-0.00016,3,21
11975,-0.00016,0.00015,0.00033,0.00014,0.0001,-6e-05,5e-05,-0.00016,3,21
11976,-0.00016,0.00015,0.00033,0.00014,0.0001,-6e-05,5e-05,-0.00016,3,21
11977,-0.00016,0.00015,0.00033,0.00014,0.0001,-6e-05,5e-05,-0.00016,3,21
11978,-0.00016,0.00015,0.00033,0.00014,0.0001,-6e-05,5e-05,-0.00016,3,21
11979,-0.00016,0.00015,0.00033,0.00014,0.0001,-6e-05,5e-05,-0.00016,3,21
11980,-0.00016,0.00015,0.00033,0.00014,0.0001,-6e-05,5e-05,-0.00016,3,21
11981,-0.00016,0.00015,0.00033,0.00014,0.0001,-6e-05,5e-05,-0.00016,3,21
11982,-0.00016,0.00015,0.00033,0.00014,0.0001,-6e-05,5e-05,-0.00016,3,21
11983,-0.00016,0.00015,0.00033,0.00014,0.0001,-6e-05,5e-05,-0.00016,3,21
11984,-0.00016,0.00015,0.00033,0.00014,0.0001,-6e-05,5e-05,-0.00016,3,21
11985,0.00048,-2e-05,-0.00012,-7e-05,-8e-05,0.00017,-0.00012,-0.00014,3,21
11987,4e-05,-6e-05,-8e-05,-6e-05,0.0001,4e-05,-9e-05,-3e-05,3,21
11989,4e-05,-6e-05,-8e-05,-6e-05,0.0001,4e-05,-9e-05,-3e-05,3,21
11990,4e-05,-6e-05,-8e-05,-6e-05,0.0001,4e-05,-9e-05,-3e-05,3,21
11991,4e-05,-6e-05,-8e-05,-6e-05,0.0001,4e-05,-9e-05,-3e-05,3,21
11992,4e-05,-6e-05,-8e-05,-6e-05,0.0001,4e-05,-9e-05,-3e-05,3,21
11993,4e-05,-6e-05,-8e-05,-6e-05,0.0001,4e-05,-9e-05,-3e-05,3,21
11994,4e-05,-6e-05,-8e-05,-6e-05,0.0001,4e-05,-9e-05,-3e-05,3,21
11995,4e-05,-6e-05,-8e-05,-6e-05,0.0001,4e-05,-9e-05,-3e-05,3,21
11996,4e-05,-6e-05,-8e-05,-6e-05,0.0001,4e-05,-9e-05,-3e-05,3,21
11997,4e-05,-6e-05,-8e-05,-6e-05,0.0001,4e-05,-9e-05,-3e-05,3,21
11998,4e-05,-6e-05,-8e-05,-6e-05,0.0001,4e-05,-9e-05,-3e-05,3,21
11999,4e-05,-6e-05,-8e-05,-6e-05,0.0001,4e-05,-9e-05,-3e-05,3,21
12000,4e-05,-6e-05,-8e-05,-6e-05,0.0001,4e-05,-9e-05,-3e-05,3,21
12001,4e-05,-6e-05,-8e-05,-6e-05,0.0001,4e-05,-9e-05,-3e-05,3,21
12002,4e-05,-6e-05,-8e-05,-6e-05,0.0001,4e-05,-9e-05,-3e-05,3,21
12003,4e-05,-6e-05,-8e-05,-6e-05,0.0001,4e-05,-9e-05,-3e-05,3,21
12004,4e-05,-6e-05,-8e-05,-6e-05,0.0001,4e-05,-9e-05,-3e-05,3,21
12005,4e-05,-6e-05,-8e-05,-6e-05,0.0001,4e-05,-9e-05,-3e-05,3,21
12006,4e-05,-6e-05,-8e-05,-6e-05,0.0001,4e-05,-9e-05,-3e-05,3,21
12007,0.00037,-0.00017,-2e-05,1e-05,-0.00025,-0.00023,-3e-05,4e-05,3,21
12008,0.00037,-0.00017,-2e-05,1e-05,-0.00025,-0.00023,-3e-05,4e-05,3,21
12009,0.00021,-1e-05,1e-05,2e-05,-9e-05,-0.0001,4e-05,0.00011,3,21
12010,0.00021,-1e-05,1e-05,2e-05,-9e-05,-0.0001,4e-05,0.00011,3,21
12011,0.00021,-1e-05,1e-05,2e-05,-9e-05,-0.0001,4e-05,0.00011,3,21
12012,0.00021,-1e-05,1e-05,2e-05,-9e-05,-0.0001,4e-05,0.00011,3,21
12013,0.00021,-1e-05,1e-05,2e-05,-9e-05,-0.0001,4e-05,0.00011,3,21
12014,0.00021,-1e-05,1e-05,2e-05,-9e-05,-0.0001,4e-05,0.00011,3,21
12015,0.00021,-1e-05,1e-05,2e-05,-9e-05,-0.0001,4e-05,0.00011,3,21
12016,0.00021,-1e-05,1e-05,2e-05,-9e-05,-0.0001,4e-05,0.00011,3,21
12017,0.00021,-1e-05,1e-05,2e-05,-9e-05,-0.0001,4e-05,0.00011,3,21
12018,0.00021,-1e-05,1e-05,2e-05,-9e-05,-0.0001,4e-05,0.00011,3,21
12019,0.00021,-1e-05,1e-05,2e-05,-9e-05,-0.0001,4e-05,0.00011,3,21
12020,0.00021,-1e-05,1e-05,2e-05,-9e-05,-0.0001,4e-05,0.00011,3,21
12021,-0.00012,5e-05,-4e-05,4e-05,0.00028,9e-05,2e-05,6e-05,3,21
12022,-0.00012,5e-05,-4e-05,4e-05,0.00028,9e-05,2e-05,6e-05,3,21
12023,-0.00012,5e-05,-4e-05,4e-05,0.00028,9e-05,2e-05,6e-05,3,21
12024,-0.00012,5e-05,-4e-05,4e-05,0.00028,9e-05,2e-05,6e-05,3,21
12025,-0.00012,5e-05,-4e-05,4e-05,0.00028,9e-05,2e-05,6e-05,3,21
12026,-0.00012,5e-05,-4e-05,4e-05,0.00028,9e-05,2e-05,6e-05,3,21
12027,-0.00012,5e-05,-4e-05,4e-05,0.00028,9e-05,2e-05,6e-05,3,21
12028,-0.00012,5e-05,-4e-05,4e-05,0.00028,9e-05,2e-05,6e-05,3,21
12029,-0.00012,5e-05,-4e-05,4e-05,0.00028,9e-05,2e-05,6e-05,3,21
12030,-1e-05,3e-05,-7e-05,-0.00015,-8e-05,-0.00019,-0.00014,-0.00019,3,21
12031,-1e-05,3e-05,-7e-05,-0.00015,-8e-05,-0.00019,-0.00014,-0.00019,3,21
12032,-1e-05,3e-05,-7e-05,-0.00015,-8e-05,-0.00019,-0.00014,-0.00019,3,21
12033,-1e-05,3e-05,-7e-05,-0.00015,-8e-05,-0.00019,-0.00014,-0.00019,3,21
12034,-1e-05,3e-05,-7e-05,-0.00015,-8e-05,-0.00019,-0.00014,-0.00019,3,21
12035,-1e-05,3e-05,-7e-05,-0.00015,-8e-05,-0.00019,-0.00014,-0.00019,3,21
12037,-1e-05,3e-05,-7e-05,-0.00015,-8e-05,-0.00019,-0.00014,-0.00019,3,21
12039,-1e-05,3e-05,-7e-05,-0.00015,-8e-05,-0.00019,-0.00014,-0.00019,3,21
12040,-1e-05,3e-05,-7e-05,-0.00015,-8e-05,-0.00019,-0.00014,-0.00019,3,21
12041,-1e-05,3e-05,-7e-05,-0.00015,-8e-05,-0.00019,-0.00014,-0.00019,3,21
12042,-1e-05,3e-05,-7e-05,-0.00015,-8e-05,-0.00019,-0.00014,-0.00019,3,21
12043,-1e-05,3e-05,-7e-05,-0.00015,-8e-05,-0.00019,-0.00014,-0.00019,3,21
12044,-1e-05,3e-05,-7e-05,-0.00015,-8e-05,-0.00019,-0.00014,-0.00019,3,21
12045,-0.00038,5e-05,-0.00033,-6e-05,-0.0006,-0.00048,6e-05,-0.00012,3,21
12046,-2e-05,-0.00012,-3e-05,2e-05,-6e-05,-0.0003,-7e-05,-9e-05,3,21
12047,-2e-05,-0.00012,-3e-05,2e-05,-6e-05,-0.0003,-7e-05,-9e-05,3,21
12048,-2e-05,-0.00012,-3e-05,2e-05,-6e-05,-0.0003,-7e-05,-9e-05,3,21
12049,-2e-05,-0.00012,-3e-05,2e-05,-6e-05,-0.0003,-7e-05,-9e-05,3,21
12050,-2e-05,-0.00012,-3e-05,2e-05,-6e-05,-0.0003,-7e-05,-9e-05,3,21
12051,-2e-05,-0.00012,-3e-05,2e-05,-6e-05,-0.0003,-7e-05,-9e-05,3,21
12052,-2e-05,-0.00012,-3e-05,2e-05,-6e-05,-0.0003,-7e-05,-9e-05,3,21
12053,-2e-05,-0.00012,-3e-05,2e-05,-6e-05,-0.0003,-7e-05,-9e-05,3,21
12054,-2e-05,-0.00012,-3e-05,2e-05,-6e-05,-0.0003,-7e-05,-9e-05,3,21
12055,-2e-05,-0.00012,-3e-05,2e-05,-6e-05,-0.0003,-7e-05,-9e-05,3,21
12056,-2e-05,-0.00012,-3e-05,2e-05,-6e-05,-0.0003,-7e-05,-9e-05,3,21
12057,-2e-05,-0.00012,-3e-05,2e-05,-6e-05,-0.0003,-7e-05,-9e-05,3,21
12058,-2e-05,-0.00012,-3e-05,2e-05,-6e-05,-0.0003,-7e-05,-9e-05,3,21
12059,-2e-05,-0.00012,-3e-05,2e-05,-6e-05,-0.0003,-7e-05,-9e-05,3,21
12060,-2e-05,-0.00012,-3e-05,2e-05,-6e-05,-0.0003,-7e-05,-9e-05,3,21
12061,-2e-05,-0.00012,-3e-05,2e-05,-6e-05,-0.0003,-7e-05,-9e-05,3,21
12062,-2e-05,-0.00012,-3e-05,2e-05,-6e-05,-0.0003,-7e-05,-9e-05,3,21
12063,-2e-05,-0.00012,-3e-05,2e-05,-6e-05,-0.0003,-7e-05,-9e-05,3,21
12064,-2e-05,-0.00012,-3e-05,2e-05,-6e-05,-0.0003,-7e-05,-9e-05,3,21
12065,-2e-05,-0.00012,-3e-05,2e-05,-6e-05,-0.0003,-7e-05,-9e-05,3,21
12066,-2e-05,-0.00012,-3e-05,2e-05,-6e-05,-0.0003,-7e-05,-9e-05,3,21
12067,-0.00018,8e-05,0.00023,0.00015,0.0009,0.00033,1e-05,7e-05,3,21
12068,-0.00018,8e-05,0.00023,0.00015,0.0009,0.00033,1e-05,7e-05,3,21
12069,0.00031,-7e-05,-0.0001,-2e-05,0.00028,-8e-05,-5e-05,7e-05,3,21
12070,0.00031,-7e-05,-0.0001,-2e-05,0.00028,-8e-05,-5e-05,7e-05,3,21
12071,0.00031,-7e-05,-0.0001,-2e-05,0.00028,-8e-05,-5e-05,7e-05,3,21
12072,0.00031,-7e-05,-0.0001,-2e-05,0.00028,-8e-05,-5e-05,7e-05,3,21
12073,0.00031,-7e-05,-0.0001,-2e-05,0.00028,-8e-05,-5e-05,7e-05,3,21
12074,0.00031,-7e-05,-0.0001,-2e-05,0.00028,-8e-05,-5e-05,7e-05,3,21
12075,0.00031,-7e-05,-0.0001,-2e-05,0.00028,-8e-05,-5e-05,7e-05,3,21
12076,0.00031,-7e-05,-0.0001,-2e-05,0.00028,-8e-05,-5e-05,7e-05,3,21
12077,0.00031,-7e-05,-0.0001,-2e-05,0.00028,-8e-05,-5e-05,7e-05,3,21
12078,0.00031,-7e-05,-0.0001,-2e-05,0.00028,-8e-05,-5e-05,7e-05,3,21
12079,0.00031,-7e-05,-0.0001,-2e-05,0.00028,-8e-05,-5e-05,7e-05,3,21
12080,0.00031,-7e-05,-0.0001,-2e-05,0.00028,-8e-05,-5e-05,7e-05,3,21
12081,-2e-05,-4e-05,2e-05,4e-05,-0.00027,-6e-05,-1e-05,4e-05,3,21
12082,-2e-05,-4e-05,2e-05,4e-05,-0.00027,-6e-05,-1e-05,4e-05,3,21
12083,-2e-05,-4e-05,2e-05,4e-05,-0.00027,-6e-05,-1e-05,4e-05,3,21
12084,-2e-05,-4e-05,2e-05,4e-05,-0.00027,-6e-05,-1e-05,4e-05,3,21
12085,-2e-05,-4e-05,2e-05,4e-05,-0.00027,-6e-05,-1e-05,4e-05,3,21
12087,-2e-05,-4e-05,2e-05,4e-05,-0.00027,-6e-05,-1e-05,4e-05,3,21
12089,-2e-05,-4e-05,2e-05,4e-05,-0.00027,-6e-05,-1e-05,4e-05,3,21
12090,-0.00015,5e-05,7e-05,-9e-05,-0.00041,0,-1e-05,5e-05,3,21
12091,-0.00015,5e-05,7e-05,-9e-05,-0.00041,0,-1e-05,5e-05,3,21
12092,-0.00015,5e-05,7e-05,-9e-05,-0.00041,0,-1e-05,5e-05,3,21
12093,-0.00015,5e-05,7e-05,-9e-05,-0.00041,0,-1e-05,5e-05,3,21
12094,-0.00015,5e-05,7e-05,-9e-05,-0.00041,0,-1e-05,5e-05,3,21
12095,-0.00015,5e-05,7e-05,-9e-05,-0.00041,0,-1e-05,5e-05,3,21
12096,-0.00015,5e-05,7e-05,-9e-05,-0.00041,0,-1e-05,5e-05,3,21
12097,-0.00015,5e-05,7e-05,-9e-05,-0.00041,0,-1e-05,5e-05,3,21
12098,-0.00015,5e-05,7e-05,-9e-05,-0.00041,0,-1e-05,5e-05,3,21
12099,-0.00015,5e-05,7e-05,-9e-05,-0.00041,0,-1e-05,5e-05,3,21
12100,-0.00015,5e-05,7e-05,-9e-05,-0.00041,0,-1e-05,5e-05,3,21
12101,-0.00015,5e-05,7e-05,-9e-05,-0.00041,0,-1e-05,5e-05,3,21
12102,-0.00015,5e-05,7e-05,-9e-05,-0.00041,0,-1e-05,5e-05,3,21
12103,-0.00015,5e-05,7e-05,-9e-05,-0.00041,0,-1e-05,5e-05,3,21
12104,-0.00015,5e-05,7e-05,-9e-05,-0.00041,0,-1e-05,5e-05,3,21
12105,0.0001,8e-05,1e-05,-2e-05,0.00038,-0.00024,9e-05,5e-05,3,21
12106,0.0002,-4e-05,-8e-05,7e-05,0.00023,-0.00015,0,6e-05,3,21
12107,0.0002,-4e-05,-8e-05,7e-05,0.00023,-0.00015,0,6e-05,3,21
12108,0.0002,-4e-05,-8e-05,7e-05,0.00023,-0.00015,0,6e-05,3,21
12109,0.0002,-4e-05,-8e-05,7e-05,0.00023,-0.00015,0,6e-05,3,21
12110,0.0002,-4e-05,-8e-05,7e-05,0.00023,-0.00015,0,6e-05,3,21
12111,0.0002,-4e-05,-8e-05,7e-05,0.00023,-0.00015,0,6e-05,3,21
12112,0.0002,-4e-05,-8e-05,7e-05,0.00023,-0.00015,0,6e-05,3,21
12113,0.0002,-4e-05,-8e-05,7e-05,0.00023,-0.00015,0,6e-05,3,21
12114,0.0002,-4e-05,-8e-05,7e-05,0.00023,-0.00015,0,6e-05,3,21
12115,0.0002,-4e-05,-8e-05,7e-05,0.00023,-0.00015,0,6e-05,3,21
12116,0.0002,-4e-05,-8e-05,7e-05,0.00023,-0.00015,0,6e-05,3,21
12117,0.0002,-4e-05,-8e-05,7e-05,0.00023,-0.00015,0,6e-05,3,21
12118,0.0002,-4e-05,-8e-05,7e-05,0.00023,-0.00015,0,6e-05,3,21
12119,0.0002,-4e-05,-8e-05,7e-05,0.00023,-0.00015,0,6e-05,3,21
12120,0.0002,-4e-05,-8e-05,7e-05,0.00023,-0.00015,0,6e-05,3,21
12121,0.0002,-4e-05,-8e-05,7e-05,0.00023,-0.00015,0,6e-05,3,21
12122,0.0002,-4e-05,-8e-05,7e-05,0.00023,-0.00015,0,6e-05,3,21
12123,0.0002,-4e-05,-8e-05,7e-05,0.00023,-0.00015,0,6e-05,3,21
12124,0.0002,-4e-05,-8e-05,7e-05,0.00023,-0.00015,0,6e-05,3,21
12125,0.0002,-4e-05,-8e-05,7e-05,0.00023,-0.00015,0,6e-05,3,21
12126,0.0002,-4e-05,-8e-05,7e-05,0.00023,-0.00015,0,6e-05,3,21
12127,-0.00055,-9e-05,2e-05,-7e-05,-0.00027,-0.00022,-0.00011,-0.00011,3,21
12128,-0.00055,-9e-05,2e-05,-7e-05,-0.00027,-0.00022,-0.00011,-0.00011,3,21
12129,0,6e-05,-0.00013,-9e-05,-0.00059,-8e-05,-5e-05,0.00012,3,21
12130,0,6e-05,-0.00013,-9e-05,-0.00059,-8e-05,-5e-05,0.00012,3,21
12131,0,6e-05,-0.00013,-9e-05,-0.00059,-8e-05,-5e-05,0.00012,3,21
12132,0,6e-05,-0.00013,-9e-05,-0.00059,-8e-05,-5e-05,0.00012,3,21
12133,0,6e-05,-0.00013,-9e-05,-0.00059,-8e-05,-5e-05,0.00012,3,21
12134,0,6e-05,-0.00013,-9e-05,-0.00059,-8e-05,-5e-05,0.00012,3,21
12135,0,6e-05,-0.00013,-9e-05,-0.00059,-8e-05,-5e-05,0.00012,3,21
12137,0,6e-05,-0.00013,-9e-05,-0.00059,-8e-05,-5e-05,0.00012,3,21
12139,0,6e-05,-0.00013,-9e-05,-0.00059,-8e-05,-5e-05,0.00012,3,21
12140,0,6e-05,-0.00013,-9e-05,-0.00059,-8e-05,-5e-05,0.00012,3,21
12141,0.00021,-9e-05,7e-05,3e-05,0.00016,0.00048,-9e-05,-7e-05,3,21
12142,0.00021,-9e-05,7e-05,3e-05,0.00016,0.00048,-9e-05,-7e-05,3,21
12143,0.00021,-9e-05,7e-05,3e-05,0.00016,0.00048,-9e-05,-7e-05,3,21
12144,0.00021,-9e-05,7e-05,3e-05,0.00016,0.00048,-9e-05,-7e-05,3,21
12145,0.00021,-9e-05,7e-05,3e-05,0.00016,0.00048,-9e-05,-7e-05,3,21
12146,0.00021,-9e-05,7e-05,3e-05,0.00016,0.00048,-9e-05,-7e-05,3,21
12147,0.00021,-9e-05,7e-05,3e-05,0.00016,0.00048,-9e-05,-7e-05,3,21
12148,0.00021,-9e-05,7e-05,3e-05,0.00016,0.00048,-9e-05,-7e-05,3,21
12149,0.00021,-9e-05,7e-05,3e-05,0.00016,0.00048,-9e-05,-7e-05,3,21
12150,-9e-05,-3e-05,-5e-05,3e-05,-0.00011,-0.00018,-5e-05,-3e-05,3,21
12151,-9e-05,-3e-05,-5e-05,3e-05,-0.00011,-0.00018,-5e-05,-3e-05,3,21
12152,-9e-05,-3e-05,-5e-05,3e-05,-0.00011,-0.00018,-5e-05,-3e-05,3,21
12153,-9e-05,-3e-05,-5e-05,3e-05,-0.00011,-0.00018,-5e-05,-3e-05,3,21
12154,-9e-05,-3e-05,-5e-05,3e-05,-0.00011,-0.00018,-5e-05,-3e-05,3,21
12155,-9e-05,-3e-05,-5e-05,3e-05,-0.00011,-0.00018,-5e-05,-3e-05,3,21
12156,-9e-05,-3e-05,-5e-05,3e-05,-0.00011,-0.00018,-5e-05,-3e-05,3,21
12157,-9e-05,-3e-05,-5e-05,3e-05,-0.00011,-0.00018,-5e-05,-3e-05,3,21
12158,-9e-05,-3e-05,-5e-05,3e-05,-0.00011,-0.00018,-5e-05,-3e-05,3,21
12159,-9e-05,-3e-05,-5e-05,3e-05,-0.00011,-0.00018,-5e-05,-3e-05,3,21
12160,-9e-05,-3e-05,-5e-05,3e-05,-0.00011,-0.00018,-5e-05,-3e-05,3,21
12161,-9e-05,-3e-05,-5e-05,3e-05,-0.00011,-0.00018,-5e-05,-3e-05,3,21
12162,-9e-05,-3e-05,-5e-05,3e-05,-0.00011,-0.00018,-5e-05,-3e-05,3,21
12163,-9e-05,-3e-05,-5e-05,3e-05,-0.00011,-0.00018,-5e-05,-3e-05,3,21
12164,-9e-05,-3e-05,-5e-05,3e-05,-0.00011,-0.00018,-5e-05,-3e-05,3,21
12165,-4e-05,-0.00012,-1e-05,-5e-05,-0.00011,-8e-05,-1e-05,-5e-05,3,21
12166,0.00016,0.0001,-1e-05,-6e-05,-0.00022,-6e-05,5e-05,0.00017,3,21
12167,0.00016,0.0001,-1e-05,-6e-05,-0.00022,-6e-05,5e-05,0.00017,3,21
12168,0.00016,0.0001,-1e-05,-6e-05,-0.00022,-6e-05,5e-05,0.00017,3,21
12169,0.00016,0.0001,-1e-05,-6e-05,-0.00022,-6e-05,5e-05,0.00017,3,21
12170,0.00016,0.0001,-1e-05,-6e-05,-0.00022,-6e-05,5e-05,0.00017,3,21
12171,0.00016,0.0001,-1e-05,-6e-05,-0.00022,-6e-05,5e-05,0.00017,3,21
12172,0.00016,0.0001,-1e-05,-6e-05,-0.00022,-6e-05,5e-05,0.00017,3,21
12173,0.00016,0.0001,-1e-05,-6e-05,-0.00022,-6e-05,5e-05,0.00017,3,21
12174,0.00016,0.0001,-1e-05,-6e-05,-0.00022,-6e-05,5e-05,0.00017,3,21
12175,0.00016,0.0001,-1e-05,-6e-05,-0.00022,-6e-05,5e-05,0.00017,3,21
12176,0.00016,0.0001,-1e-05,-6e-05,-0.00022,-6e-05,5e-05,0.00017,3,21
12177,0.00016,0.0001,-1e-05,-6e-05,-0.00022,-6e-05,5e-05,0.00017,3,21
12178,0.00016,0.0001,-1e-05,-6e-05,-0.00022,-6e-05,5e-05,0.00017,3,21
12179,0.00016,0.0001,-1e-05,-6e-05,-0.00022,-6e-05,5e-05,0.00017,3,21
12180,0.00016,0.0001,-1e-05,-6e-05,-0.00022,-6e-05,5e-05,0.00017,3,21
12181,0.00016,0.0001,-1e-05,-6e-05,-0.00022,-6e-05,5e-05,0.00017,3,21
12182,0.00016,0.0001,-1e-05,-6e-05,-0.00022,-6e-05,5e-05,0.00017,3,21
12183,0.00016,0.0001,-1e-05,-6e-05,-0.00022,-6e-05,5e-05,0.00017,3,21
12184,0.00016,0.0001,-1e-05,-6e-05,-0.00022,-6e-05,5e-05,0.00017,3,21
12185,0.00016,0.0001,-1e-05,-6e-05,-0.00022,-6e-05,5e-05,0.00017,3,21
12187,0.00021,0.00012,7e-05,5e-05,0.00024,0.00018,-6e-05,-3e-05,3,21
12189,0.00025,0,-9e-05,-4e-05,-0.00013,-8e-05,0.00011,0.00011,3,21
12190,0.00025,0,-9e-05,-4e-05,-0.00013,-8e-05,0.00011,0.00011,3,21
12191,0.00025,0,-9e-05,-4e-05,-0.00013,-8e-05,0.00011,0.00011,3,21
12192,0.00025,0,-9e-05,-4e-05,-0.00013,-8e-05,0.00011,0.00011,3,21
12193,0.00025,0,-9e-05,-4e-05,-0.00013,-8e-05,0.00011,0.00011,3,21
12194,0.00025,0,-9e-05,-4e-05,-0.00013,-8e-05,0.00011,0.00011,3,21
12195,0.00025,0,-9e-05,-4e-05,-0.00013,-8e-05,0.00011,0.00011,3,21
12196,0.00025,0,-9e-05,-4e-05,-0.00013,-8e-05,0.00011,0.00011,3,21
12197,0.00025,0,-9e-05,-4e-05,-0.00013,-8e-05,0.00011,0.00011,3,21
12198,0.00025,0,-9e-05,-4e-05,-0.00013,-8e-05,0.00011,0.00011,3,21
12199,0.00025,0,-9e-05,-4e-05,-0.00013,-8e-05,0.00011,0.00011,3,21
12200,0.00025,0,-9e-05,-4e-05,-0.00013,-8e-05,0.00011,0.00011,3,21
12201,0.00025,0,-9e-05,-4e-05,-0.00013,-8e-05,0.00011,0.00011,3,21
12202,0.00025,0,-9e-05,-4e-05,-0.00013,-8e-05,0.00011,0.00011,3,21
12203,0.00025,0,-9e-05,-4e-05,-0.00013,-8e-05,0.00011,0.00011,3,21
12204,0.00025,0,-9e-05,-4e-05,-0.00013,-8e-05,0.00011,0.00011,3,21
12205,0.00025,0,-9e-05,-4e-05,-0.00013,-8e-05,0.00011,0.00011,3,21
12206,0.00025,0,-9e-05,-4e-05,-0.00013,-8e-05,0.00011,0.00011,3,21
12207,0.00025,0,-9e-05,-4e-05,-0.00013,-8e-05,0.00011,0.00011,3,21
12208,0.00025,0,-9e-05,-4e-05,-0.00013,-8e-05,0.00011,0.00011,3,21
12209,0.00025,0,-9e-05,-4e-05,-0.00013,-8e-05,0.00011,0.00011,3,21
12210,-8e-05,-2e-05,0,1e-05,-0.00037,-3e-05,2e-05,-4e-05,3,21
12211,3e-05,2e-05,7e-05,1e-05,0.00102,4e-05,-2e-05,-2e-05,3,21
12212,3e-05,2e-05,7e-05,1e-05,0.00102,4e-05,-2e-05,-2e-05,3,21
12213,3e-05,2e-05,7e-05,1e-05,0.00102,4e-05,-2e-05,-2e-05,3,21
12214,3e-05,2e-05,7e-05,1e-05,0.00102,4e-05,-2e-05,-2e-05,3,21
12215,3e-05,2e-05,7e-05,1e-05,0.00102,4e-05,-2e-05,-2e-05,3,21
12216,3e-05,2e-05,7e-05,1e-05,0.00102,4e-05,-2e-05,-2e-05,3,21
12217,3e-05,2e-05,7e-05,1e-05,0.00102,4e-05,-2e-05,-2e-05,3,21
12218,3e-05,2e-05,7e-05,1e-05,0.00102,4e-05,-2e-05,-2e-05,3,21
12219,3e-05,2e-05,7e-05,1e-05,0.00102,4e-05,-2e-05,-2e-05,3,21
12220,3e-05,2e-05,7e-05,1e-05,0.00102,4e-05,-2e-05,-2e-05,3,21
12221,3e-05,2e-05,7e-05,1e-05,0.00102,4e-05,-2e-05,-2e-05,3,21
12222,3e-05,2e-05,7e-05,1e-05,0.00102,4e-05,-2e-05,-2e-05,3,21
12223,3e-05,2e-05,7e-05,1e-05,0.00102,4e-05,-2e-05,-2e-05,3,21
12224,3e-05,2e-05,7e-05,1e-05,0.00102,4e-05,-2e-05,-2e-05,3,21
12225,0.00015,-0.00016,-0.00011,-8e-05,3e-05,-0.00029,-5e-05,0,3,21
12226,0.00042,3e-05,0.00011,0.00012,-0.00018,-0.00019,-0.00019,-0.00029,3,21
12227,0.00042,3e-05,0.00011,0.00012,-0.00018,-0.00019,-0.00019,-0.00029,3,21
12228,0.00042,3e-05,0.00011,0.00012,-0.00018,-0.00019,-0.00019,-0.00029,3,21
12229,0.00042,3e-05,0.00011,0.00012,-0.00018,-0.00019,-0.00019,-0.00029,3,21
12230,0.00042,3e-05,0.00011,0.00012,-0.00018,-0.00019,-0.00019,-0.00029,3,21
12231,0.00042,3e-05,0.00011,0.00012,-0.00018,-0.00019,-0.00019,-0.00029,3,21
12232,0.00042,3e-05,0.00011,0.00012,-0.00018,-0.00019,-0.00019,-0.00029,3,21
12233,0.00042,3e-05,0.00011,0.00012,-0.00018,-0.00019,-0.00019,-0.00029,3,21
12234,0.00042,3e-05,0.00011,0.00012,-0.00018,-0.00019,-0.00019,-0.00029,3,21
12235,0.00042,3e-05,0.00011,0.00012,-0.00018,-0.00019,-0.00019,-0.00029,3,21
12237,0.00042,3e-05,0.00011,0.00012,-0.00018,-0.00019,-0.00019,-0.00029,3,21
12239,0.00042,3e-05,0.00011,0.00012,-0.00018,-0.00019,-0.00019,-0.00029,3,21
12240,0.00042,3e-05,0.00011,0.00012,-0.00018,-0.00019,-0.00019,-0.00029,3,21
12241,0.00042,3e-05,0.00011,0.00012,-0.00018,-0.00019,-0.00019,-0.00029,3,21
12242,0.00042,3e-05,0.00011,0.00012,-0.00018,-0.00019,-0.00019,-0.00029,3,21
12243,0.00042,3e-05,0.00011,0.00012,-0.00018,-0.00019,-0.00019,-0.00029,3,21
12244,0.00042,3e-05,0.00011,0.00012,-0.00018,-0.00019,-0.00019,-0.00029,3,21
12245,0.00042,3e-05,0.00011,0.00012,-0.00018,-0.00019,-0.00019,-0.00029,3,21
12246,0.00042,3e-05,0.00011,0.00012,-0.00018,-0.00019,-0.00019,-0.00029,3,21
12247,-0.00021,-1e-05,-1e-05,-5e-05,0.00013,0.00014,3e-05,5e-05,3,21
12248,-0.00021,-1e-05,-1e-05,-5e-05,0.00013,0.00014,3e-05,5e-05,3,21
12249,-0.00067,-8e-05,-7e-05,-9e-05,-8e-05,-6e-05,5e-05,-5e-05,3,21
12250,-0.00067,-8e-05,-7e-05,-9e-05,-8e-05,-6e-05,5e-05,-5e-05,3,21
12251,-0.00067,-8e-05,-7e-05,-9e-05,-8e-05,-6e-05,5e-05,-5e-05,3,21
12252,-0.00067,-8e-05,-7e-05,-9e-05,-8e-05,-6e-05,5e-05,-5e-05,3,21
12253,-0.00067,-8e-05,-7e-05,-9e-05,-8e-05,-6e-05,5e-05,-5e-05,3,21
12254,-0.00067,-8e-05,-7e-05,-9e-05,-8e-05,-6e-05,5e-05,-5e-05,3,21
12255,-0.00067,-8e-05,-7e-05,-9e-05,-8e-05,-6e-05,5e-05,-5e-05,3,21
12256,-0.00067,-8e-05,-7e-05,-9e-05,-8e-05,-6e-05,5e-05,-5e-05,3,21
12257,-0.00067,-8e-05,-7e-05,-9e-05,-8e-05,-6e-05,5e-05,-5e-05,3,21
12258,-0.00067,-8e-05,-7e-05,-9e-05,-8e-05,-6e-05,5e-05,-5e-05,3,21
12259,-0.00067,-8e-05,-7e-05,-9e-05,-8e-05,-6e-05,5e-05,-5e-05,3,21
12260,-0.00067,-8e-05,-7e-05,-9e-05,-8e-05,-6e-05,5e-05,-5e-05,3,21
12261,-0.00067,-8e-05,-7e-05,-9e-05,-8e-05,-6e-05,5e-05,-5e-05,3,21
12262,-0.00067,-8e-05,-7e-05,-9e-05,-8e-05,-6e-05,5e-05,-5e-05,3,21
12263,-0.00067,-8e-05,-7e-05,-9e-05,-8e-05,-6e-05,5e-05,-5e-05,3,21
12264,-0.00067,-8e-05,-7e-05,-9e-05,-8e-05,-6e-05,5e-05,-5e-05,3,21
12265,-0.00067,-8e-05,-7e-05,-9e-05,-8e-05,-6e-05,5e-05,-5e-05,3,21
12266,-0.00067,-8e-05,-7e-05,-9e-05,-8e-05,-6e-05,5e-05,-5e-05,3,21
12267,-0.00067,-8e-05,-7e-05,-9e-05,-8e-05,-6e-05,5e-05,-5e-05,3,21
12269,5e-05,0.0001,6e-05,2e-05,-0.00015,-0.00014,-0.0001,6e-05,3,21
12270,5e-05,0.0001,6e-05,2e-05,-0.00015,-0.00014,-0.0001,6e-05,3,21
12271,-2e-05,-4e-05,-1e-05,-1e-05,-0.00046,-0.0002,-0.00011,-2e-05,3,21
12272,-2e-05,-4e-05,-1e-05,-1e-05,-0.00046,-0.0002,-0.00011,-2e-05,3,21
12273,-2e-05,-4e-05,-1e-05,-1e-05,-0.00046,-0.0002,-0.00011,-2e-05,3,21
12274,-2e-05,-4e-05,-1e-05,-1e-05,-0.00046,-0.0002,-0.00011,-2e-05,3,21
12275,-2e-05,-4e-05,-1e-05,-1e-05,-0.00046,-0.0002,-0.00011,-2e-05,3,21
12276,-2e-05,-4e-05,-1e-05,-1e-05,-0.00046,-0.0002,-0.00011,-2e-05,3,21
12277,-2e-05,-4e-05,-1e-05,-1e-05,-0.00046,-0.0002,-0.00011,-2e-05,3,21
12278,-2e-05,-4e-05,-1e-05,-1e-05,-0.00046,-0.0002,-0.00011,-2e-05,3,21
12279,-2e-05,-4e-05,-1e-05,-1e-05,-0.00046,-0.0002,-0.00011,-2e-05,3,21
12280,-2e-05,-4e-05,-1e-05,-1e-05,-0.00046,-0.0002,-0.00011,-2e-05,3,21
12281,-2e-05,-4e-05,-1e-05,-1e-05,-0.00046,-0.0002,-0.00011,-2e-05,3,21
12282,-2e-05,-4e-05,-1e-05,-1e-05,-0.00046,-0.0002,-0.00011,-2e-05,3,21
12283,-2e-05,-4e-05,-1e-05,-1e-05,-0.00046,-0.0002,-0.00011,-2e-05,3,21
12284,-0.00033,8e-05,-3e-05,-3e-05,9e-05,-0.00012,7e-05,7e-05,3,21
12285,-0.00033,8e-05,-3e-05,-3e-05,9e-05,-0.00012,7e-05,7e-05,3,21
12287,-0.00033,8e-05,-3e-05,-3e-05,9e-05,-0.00012,7e-05,7e-05,3,21
12289,-0.00033,8e-05,-3e-05,-3e-05,9e-05,-0.00012,7e-05,7e-05,3,21
12290,-0.00033,8e-05,-3e-05,-3e-05,9e-05,-0.00012,7e-05,7e-05,3,21
12291,-0.00031,-0.00014,-2e-05,-7e-05,-0.00026,-9e-05,-6e-05,-1e-05,3,21
12292,-0.00031,-0.00014,-2e-05,-7e-05,-0.00026,-9e-05,-6e-05,-1e-05,3,21
12293,-0.00031,-0.00014,-2e-05,-7e-05,-0.00026,-9e-05,-6e-05,-1e-05,3,21
12294,-0.00031,-0.00014,-2e-05,-7e-05,-0.00026,-9e-05,-6e-05,-1e-05,3,21
12295,-0.00031,-0.00014,-2e-05,-7e-05,-0.00026,-9e-05,-6e-05,-1e-05,3,21
12296,-0.00031,-0.00014,-2e-05,-7e-05,-0.00026,-9e-05,-6e-05,-1e-05,3,21
12297,-0.00031,-0.00014,-2e-05,-7e-05,-0.00026,-9e-05,-6e-05,-1e-05,3,21
12298,-0.00031,-0.00014,-2e-05,-7e-05,-0.00026,-9e-05,-6e-05,-1e-05,3,21
12299,-0.00031,-0.00014,-2e-05,-7e-05,-0.00026,-9e-05,-6e-05,-1e-05,3,21
12300,-0.00031,-0.00014,-2e-05,-7e-05,-0.00026,-9e-05,-6e-05,-1e-05,3,21
12301,-0.00031,-0.00014,-2e-05,-7e-05,-0.00026,-9e-05,-6e-05,-1e-05,3,21
12302,-0.00031,-0.00014,-2e-05,-7e-05,-0.00026,-9e-05,-6e-05,-1e-05,3,21
12303,-0.00031,-0.00014,-2e-05,-7e-05,-0.00026,-9e-05,-6e-05,-1e-05,3,21
12304,-0.00031,-0.00014,-2e-05,-7e-05,-0.00026,-9e-05,-6e-05,-1e-05,3,21
12305,-0.00031,-0.00014,-2e-05,-7e-05,-0.00026,-9e-05,-6e-05,-1e-05,3,21
12306,-0.00031,-0.00014,-2e-05,-7e-05,-0.00026,-9e-05,-6e-05,-1e-05,3,21
12307,-0.00047,-6e-05,-6e-05,-6e-05,-0.00022,-0.00026,-7e-05,-1e-05,3,21
12308,-0.00047,-6e-05,-6e-05,-6e-05,-0.00022,-0.00026,-7e-05,-1e-05,3,21
12309,0.00021,7e-05,4e-05,3e-05,-9e-05,0.0003,0,-3e-05,3,21
12310,0.00021,7e-05,4e-05,3e-05,-9e-05,0.0003,0,-3e-05,3,21
12311,0.00021,7e-05,4e-05,3e-05,-9e-05,0.0003,0,-3e-05,3,21
12312,0.00021,7e-05,4e-05,3e-05,-9e-05,0.0003,0,-3e-05,3,21
12313,0.00021,7e-05,4e-05,3e-05,-9e-05,0.0003,0,-3e-05,3,21
12314,0.00021,7e-05,4e-05,3e-05,-9e-05,0.0003,0,-3e-05,3,21
12315,0.00021,7e-05,4e-05,3e-05,-9e-05,0.0003,0,-3e-05,3,21
12316,0.00021,7e-05,4e-05,3e-05,-9e-05,0.0003,0,-3e-05,3,21
12317,0.00021,7e-05,4e-05,3e-05,-9e-05,0.0003,0,-3e-05,3,21
12318,0.00021,7e-05,4e-05,3e-05,-9e-05,0.0003,0,-3e-05,3,21
12319,0.00021,7e-05,4e-05,3e-05,-9e-05,0.0003,0,-3e-05,3,21
12320,0.00021,7e-05,4e-05,3e-05,-9e-05,0.0003,0,-3e-05,3,21
12321,0.00021,7e-05,4e-05,3e-05,-9e-05,0.0003,0,-3e-05,3,21
12322,0.00021,7e-05,4e-05,3e-05,-9e-05,0.0003,0,-3e-05,3,21
12323,0.00021,7e-05,4e-05,3e-05,-9e-05,0.0003,0,-3e-05,3,21
12324,0.00021,7e-05,4e-05,3e-05,-9e-05,0.0003,0,-3e-05,3,21
12325,0.00021,7e-05,4e-05,3e-05,-9e-05,0.0003,0,-3e-05,3,21
12326,0.00021,7e-05,4e-05,3e-05,-9e-05,0.0003,0,-3e-05,3,21
12327,0.00021,7e-05,4e-05,3e-05,-9e-05,0.0003,0,-3e-05,3,21
12328,0.00021,7e-05,4e-05,3e-05,-9e-05,0.0003,0,-3e-05,3,21
12329,0.00021,7e-05,4e-05,3e-05,-9e-05,0.0003,0,-3e-05,3,21
12330,-0.00052,-1e-05,-2e-05,-6e-05,-0.00043,5e-05,-4e-05,-0.00013,3,21
12331,-9e-05,3e-05,6e-05,0,0.00038,0.00018,9e-05,8e-05,3,21
12332,-9e-05,3e-05,6e-05,0,0.00038,0.00018,9e-05,8e-05,3,21
12333,-9e-05,3e-05,6e-05,0,0.00038,0.00018,9e-05,8e-05,3,21
12334,-9e-05,3e-05,6e-05,0,0.00038,0.00018,9e-05,8e-05,3,21
12335,-9e-05,3e-05,6e-05,0,0.00038,0.00018,9e-05,8e-05,3,21
12337,-9e-05,3e-05,6e-05,0,0.00038,0.00018,9e-05,8e-05,3,21
12340,-9e-05,3e-05,6e-05,0,0.00038,0.00018,9e-05,8e-05,3,21
12341,-9e-05,3e-05,6e-05,0,0.00038,0.00018,9e-05,8e-05,3,21
12342,-9e-05,3e-05,6e-05,0,0.00038,0.00018,9e-05,8e-05,3,21
12343,-9e-05,3e-05,6e-05,0,0.00038,0.00018,9e-05,8e-05,3,21
12344,0.00105,0.00017,1e-05,0.00019,0.00052,0.00043,0.00013,0.00011,3,21
12345,0.00105,0.00017,1e-05,0.00019,0.00052,0.00043,0.00013,0.00011,3,21
12346,0.00105,0.00017,1e-05,0.00019,0.00052,0.00043,0.00013,0.00011,3,21
12347,0.00105,0.00017,1e-05,0.00019,0.00052,0.00043,0.00013,0.00011,3,21
12348,0.00105,0.00017,1e-05,0.00019,0.00052,0.00043,0.00013,0.00011,3,21
12349,0.00105,0.00017,1e-05,0.00019,0.00052,0.00043,0.00013,0.00011,3,21
12350,0.00105,0.00017,1e-05,0.00019,0.00052,0.00043,0.00013,0.00011,3,21
12351,0.0001,-5e-05,-5e-05,9e-05,0.0001,0.00065,8e-05,7e-05,3,21
12352,0.0001,-5e-05,-5e-05,9e-05,0.0001,0.00065,8e-05,7e-05,3,21
12353,0.0001,-5e-05,-5e-05,9e-05,0.0001,0.00065,8e-05,7e-05,3,21
12354,0.0001,-5e-05,-5e-05,9e-05,0.0001,0.00065,8e-05,7e-05,3,21
12355,0.0001,-5e-05,-5e-05,9e-05,0.0001,0.00065,8e-05,7e-05,3,21
12356,0.0001,-5e-05,-5e-05,9e-05,0.0001,0.00065,8e-05,7e-05,3,21
12357,0.0001,-5e-05,-5e-05,9e-05,0.0001,0.00065,8e-05,7e-05,3,21
12358,0.0001,-5e-05,-5e-05,9e-05,0.0001,0.00065,8e-05,7e-05,3,21
12359,0.0001,-5e-05,-5e-05,9e-05,0.0001,0.00065,8e-05,7e-05,3,21
12360,0.0001,-5e-05,-5e-05,9e-05,0.0001,0.00065,8e-05,7e-05,3,21
12361,0.0001,-5e-05,-5e-05,9e-05,0.0001,0.00065,8e-05,7e-05,3,21
12362,0.0001,-5e-05,-5e-05,9e-05,0.0001,0.00065,8e-05,7e-05,3,21
12363,0.0001,-5e-05,-5e-05,9e-05,0.0001,0.00065,8e-05,7e-05,3,21
12364,0.0001,-5e-05,-5e-05,9e-05,0.0001,0.00065,8e-05,7e-05,3,21
12365,0.0001,-5e-05,-5e-05,9e-05,0.0001,0.00065,8e-05,7e-05,3,21
12366,0.0001,-5e-05,-5e-05,9e-05,0.0001,0.00065,8e-05,7e-05,3,21
12367,0.00024,0,3e-05,6e-05,0.00046,0.00041,-2e-05,1e-05,3,21
12368,0.00024,0,3e-05,6e-05,0.00046,0.00041,-2e-05,1e-05,3,21
12369,0.00012,4e-05,4e-05,5e-05,-0.00012,-0.00033,-0.0001,-6e-05,3,21
12370,0.00012,4e-05,4e-05,5e-05,-0.00012,-0.00033,-0.0001,-6e-05,3,21
12371,0.00012,4e-05,4e-05,5e-05,-0.00012,-0.00033,-0.0001,-6e-05,3,21
12372,0.00012,4e-05,4e-05,5e-05,-0.00012,-0.00033,-0.0001,-6e-05,3,21
12373,0.00012,4e-05,4e-05,5e-05,-0.00012,-0.00033,-0.0001,-6e-05,3,21
12374,0.00012,4e-05,4e-05,5e-05,-0.00012,-0.00033,-0.0001,-6e-05,3,21
12375,0.00012,4e-05,4e-05,5e-05,-0.00012,-0.00033,-0.0001,-6e-05,3,21
12376,0.00012,4e-05,4e-05,5e-05,-0.00012,-0.00033,-0.0001,-6e-05,3,21
12377,0.00012,4e-05,4e-05,5e-05,-0.00012,-0.00033,-0.0001,-6e-05,3,21
12378,0.00012,4e-05,4e-05,5e-05,-0.00012,-0.00033,-0.0001,-6e-05,3,21
12379,0.00012,4e-05,4e-05,5e-05,-0.00012,-0.00033,-0.0001,-6e-05,3,21
12380,0.00012,4e-05,4e-05,5e-05,-0.00012,-0.00033,-0.0001,-6e-05,3,21
12381,0.00012,4e-05,4e-05,5e-05,-0.00012,-0.00033,-0.0001,-6e-05,3,21
12382,0.00012,4e-05,4e-05,5e-05,-0.00012,-0.00033,-0.0001,-6e-05,3,21
12383,0.00012,4e-05,4e-05,5e-05,-0.00012,-0.00033,-0.0001,-6e-05,3,21
12384,0.00012,4e-05,4e-05,5e-05,-0.00012,-0.00033,-0.0001,-6e-05,3,21
12385,0.00012,4e-05,4e-05,5e-05,-0.00012,-0.00033,-0.0001,-6e-05,3,21
12387,0.00012,4e-05,4e-05,5e-05,-0.00012,-0.00033,-0.0001,-6e-05,3,21
12389,0.00012,4e-05,4e-05,5e-05,-0.00012,-0.00033,-0.0001,-6e-05,3,21
12390,-0.00032,-0.00024,-0.00018,-0.00015,-0.00041,-0.00027,-3e-05,1e-05,3,21
12391,-0.00019,-2e-05,4e-05,7e-05,0.00016,-7e-05,2e-05,-3e-05,3,21
12393,-0.00019,-2e-05,4e-05,7e-05,0.00016,-7e-05,2e-05,-3e-05,3,21
12394,-0.00019,-2e-05,4e-05,7e-05,0.00016,-7e-05,2e-05,-3e-05,3,21
12395,-0.00019,-2e-05,4e-05,7e-05,0.00016,-7e-05,2e-05,-3e-05,3,21
12396,-0.00019,-2e-05,4e-05,7e-05,0.00016,-7e-05,2e-05,-3e-05,3,21
12397,-0.00019,-2e-05,4e-05,7e-05,0.00016,-7e-05,2e-05,-3e-05,3,21
12398,-0.00019,-2e-05,4e-05,7e-05,0.00016,-7e-05,2e-05,-3e-05,3,21
12399,-0.00019,-2e-05,4e-05,7e-05,0.00016,-7e-05,2e-05,-3e-05,3,21
12400,-0.00019,-2e-05,4e-05,7e-05,0.00016,-7e-05,2e-05,-3e-05,3,21
12401,-0.00019,-2e-05,4e-05,7e-05,0.00016,-7e-05,2e-05,-3e-05,3,21
12402,-0.00019,-2e-05,4e-05,7e-05,0.00016,-7e-05,2e-05,-3e-05,3,21
12403,-0.00019,-2e-05,4e-05,7e-05,0.00016,-7e-05,2e-05,-3e-05,3,21
12404,5e-05,8e-05,0.00015,-4e-05,-0.00012,-0.00019,-6e-05,0,3,21
12405,5e-05,8e-05,0.00015,-4e-05,-0.00012,-0.00019,-6e-05,0,3,21
12406,5e-05,8e-05,0.00015,-4e-05,-0.00012,-0.00019,-6e-05,0,3,21
12407,5e-05,8e-05,0.00015,-4e-05,-0.00012,-0.00019,-6e-05,0,3,21
12408,5e-05,8e-05,0.00015,-4e-05,-0.00012,-0.00019,-6e-05,0,3,21
12409,5e-05,8e-05,0.00015,-4e-05,-0.00012,-0.00019,-6e-05,0,3,21
12410,5e-05,8e-05,0.00015,-4e-05,-0.00012,-0.00019,-6e-05,0,3,21
12411,-7e-05,-0.00013,-3e-05,-4e-05,-5e-05,-0.0001,-2e-05,-0.00017,3,21
12412,-7e-05,-0.00013,-3e-05,-4e-05,-5e-05,-0.0001,-2e-05,-0.00017,3,21
12413,-7e-05,-0.00013,-3e-05,-4e-05,-5e-05,-0.0001,-2e-05,-0.00017,3,21
12414,-7e-05,-0.00013,-3e-05,-4e-05,-5e-05,-0.0001,-2e-05,-0.00017,3,21
12415,-7e-05,-0.00013,-3e-05,-4e-05,-5e-05,-0.0001,-2e-05,-0.00017,3,21
12416,-7e-05,-0.00013,-3e-05,-4e-05,-5e-05,-0.0001,-2e-05,-0.00017,3,21
12417,-7e-05,-0.00013,-3e-05,-4e-05,-5e-05,-0.0001,-2e-05,-0.00017,3,21
12418,-7e-05,-0.00013,-3e-05,-4e-05,-5e-05,-0.0001,-2e-05,-0.00017,3,21
12419,-7e-05,-0.00013,-3e-05,-4e-05,-5e-05,-0.0001,-2e-05,-0.00017,3,21
12420,-7e-05,-0.00013,-3e-05,-4e-05,-5e-05,-0.0001,-2e-05,-0.00017,3,21
12421,-7e-05,-0.00013,-3e-05,-4e-05,-5e-05,-0.0001,-2e-05,-0.00017,3,21
12422,-7e-05,-0.00013,-3e-05,-4e-05,-5e-05,-0.0001,-2e-05,-0.00017,3,21
12423,-7e-05,-0.00013,-3e-05,-4e-05,-5e-05,-0.0001,-2e-05,-0.00017,3,21
12424,-7e-05,-0.00013,-3e-05,-4e-05,-5e-05,-0.0001,-2e-05,-0.00017,3,21
12425,-7e-05,-0.00013,-3e-05,-4e-05,-5e-05,-0.0001,-2e-05,-0.00017,3,21
12426,-7e-05,-0.00013,-3e-05,-4e-05,-5e-05,-0.0001,-2e-05,-0.00017,3,21
12427,5e-05,-4e-05,-0.00018,3e-05,0.00016,0.00012,6e-05,3e-05,3,21
12428,5e-05,-4e-05,-0.00018,3e-05,0.00016,0.00012,6e-05,3e-05,3,21
12429,0.00036,8e-05,3e-05,7e-05,0.00022,0.0002,4e-05,2e-05,3,21
12430,0.00036,8e-05,3e-05,7e-05,0.00022,0.0002,4e-05,2e-05,3,21
12431,0.00036,8e-05,3e-05,7e-05,0.00022,0.0002,4e-05,2e-05,3,21
12432,0.00036,8e-05,3e-05,7e-05,0.00022,0.0002,4e-05,2e-05,3,21
12433,0.00036,8e-05,3e-05,7e-05,0.00022,0.0002,4e-05,2e-05,3,21
12434,0.00036,8e-05,3e-05,7e-05,0.00022,0.0002,4e-05,2e-05,3,21
12435,0.00036,8e-05,3e-05,7e-05,0.00022,0.0002,4e-05,2e-05,3,21
12437,0.00036,8e-05,3e-05,7e-05,0.00022,0.0002,4e-05,2e-05,3,21
12439,0.00036,8e-05,3e-05,7e-05,0.00022,0.0002,4e-05,2e-05,3,21
12440,0.00036,8e-05,3e-05,7e-05,0.00022,0.0002,4e-05,2e-05,3,21
12441,0.00036,8e-05,3e-05,7e-05,0.00022,0.0002,4e-05,2e-05,3,21
12442,0.00036,8e-05,3e-05,7e-05,0.00022,0.0002,4e-05,2e-05,3,21
12443,0.00036,8e-05,3e-05,7e-05,0.00022,0.0002,4e-05,2e-05,3,21
12444,0.00036,8e-05,3e-05,7e-05,0.00022,0.0002,4e-05,2e-05,3,21
12445,0.00036,8e-05,3e-05,7e-05,0.00022,0.0002,4e-05,2e-05,3,21
12446,0.00036,8e-05,3e-05,7e-05,0.00022,0.0002,4e-05,2e-05,3,21
12447,0.00036,8e-05,3e-05,7e-05,0.00022,0.0002,4e-05,2e-05,3,21
12448,0.00036,8e-05,3e-05,7e-05,0.00022,0.0002,4e-05,2e-05,3,21
12449,0.00036,8e-05,3e-05,7e-05,0.00022,0.0002,4e-05,2e-05,3,21
12450,-1e-05,-7e-05,3e-05,-4e-05,-3e-05,-9e-05,-1e-05,-4e-05,3,21
12451,-1e-05,-7e-05,3e-05,-4e-05,-3e-05,-9e-05,-1e-05,-4e-05,3,21
12452,-2e-05,-2e-05,0,-1e-05,-0.00026,0.00043,0.00017,5e-05,3,21
12453,-2e-05,-2e-05,0,-1e-05,-0.00026,0.00043,0.00017,5e-05,3,21
12454,-2e-05,-2e-05,0,-1e-05,-0.00026,0.00043,0.00017,5e-05,3,21
12455,-2e-05,-2e-05,0,-1e-05,-0.00026,0.00043,0.00017,5e-05,3,21
12456,-2e-05,-2e-05,0,-1e-05,-0.00026,0.00043,0.00017,5e-05,3,21
12457,-2e-05,-2e-05,0,-1e-05,-0.00026,0.00043,0.00017,5e-05,3,21
12458,-2e-05,-2e-05,0,-1e-05,-0.00026,0.00043,0.00017,5e-05,3,21
12459,-2e-05,-2e-05,0,-1e-05,-0.00026,0.00043,0.00017,5e-05,3,21
12460,-2e-05,-2e-05,0,-1e-05,-0.00026,0.00043,0.00017,5e-05,3,21
12461,-2e-05,-2e-05,0,-1e-05,-0.00026,0.00043,0.00017,5e-05,3,21
12462,-2e-05,-2e-05,0,-1e-05,-0.00026,0.00043,0.00017,5e-05,3,21
12463,-2e-05,-2e-05,0,-1e-05,-0.00026,0.00043,0.00017,5e-05,3,21
12464,-1e-05,-1e-05,4e-05,-1e-05,0.00035,3e-05,2e-05,-7e-05,3,21
12465,-1e-05,-1e-05,4e-05,-1e-05,0.00035,3e-05,2e-05,-7e-05,3,21
12466,-1e-05,-1e-05,4e-05,-1e-05,0.00035,3e-05,2e-05,-7e-05,3,21
12467,-1e-05,-1e-05,4e-05,-1e-05,0.00035,3e-05,2e-05,-7e-05,3,21
12468,-1e-05,-1e-05,4e-05,-1e-05,0.00035,3e-05,2e-05,-7e-05,3,21
12469,-1e-05,-1e-05,4e-05,-1e-05,0.00035,3e-05,2e-05,-7e-05,3,21
12470,-1e-05,-1e-05,4e-05,-1e-05,0.00035,3e-05,2e-05,-7e-05,3,21
12471,-8e-05,8e-05,5e-05,3e-05,8e-05,-6e-05,-2e-05,2e-05,3,21
12472,-8e-05,8e-05,5e-05,3e-05,8e-05,-6e-05,-2e-05,2e-05,3,21
12473,-8e-05,8e-05,5e-05,3e-05,8e-05,-6e-05,-2e-05,2e-05,3,21
12474,-8e-05,8e-05,5e-05,3e-05,8e-05,-6e-05,-2e-05,2e-05,3,21
12475,-8e-05,8e-05,5e-05,3e-05,8e-05,-6e-05,-2e-05,2e-05,3,21
12476,-8e-05,8e-05,5e-05,3e-05,8e-05,-6e-05,-2e-05,2e-05,3,21
12477,-8e-05,8e-05,5e-05,3e-05,8e-05,-6e-05,-2e-05,2e-05,3,21
12478,-8e-05,8e-05,5e-05,3e-05,8e-05,-6e-05,-2e-05,2e-05,3,21
12479,-8e-05,8e-05,5e-05,3e-05,8e-05,-6e-05,-2e-05,2e-05,3,21
12480,-8e-05,8e-05,5e-05,3e-05,8e-05,-6e-05,-2e-05,2e-05,3,21
12481,-8e-05,8e-05,5e-05,3e-05,8e-05,-6e-05,-2e-05,2e-05,3,21
12482,-8e-05,8e-05,5e-05,3e-05,8e-05,-6e-05,-2e-05,2e-05,3,21
12483,-8e-05,8e-05,5e-05,3e-05,8e-05,-6e-05,-2e-05,2e-05,3,21
12484,-8e-05,8e-05,5e-05,3e-05,8e-05,-6e-05,-2e-05,2e-05,3,21
12485,-8e-05,8e-05,5e-05,3e-05,8e-05,-6e-05,-2e-05,2e-05,3,21
12487,7e-05,5e-05,3e-05,-0.0001,-0.00096,-8e-05,3e-05,2e-05,3,21
12489,8e-05,-6e-05,-0.00013,1e-05,0.00074,0.00047,0.00013,-0.0002,3,21
12490,8e-05,-6e-05,-0.00013,1e-05,0.00074,0.00047,0.00013,-0.0002,3,21
12491,8e-05,-6e-05,-0.00013,1e-05,0.00074,0.00047,0.00013,-0.0002,3,21
12492,8e-05,-6e-05,-0.00013,1e-05,0.00074,0.00047,0.00013,-0.0002,3,21
12493,8e-05,-6e-05,-0.00013,1e-05,0.00074,0.00047,0.00013,-0.0002,3,21
12494,8e-05,-6e-05,-0.00013,1e-05,0.00074,0.00047,0.00013,-0.0002,3,21
12495,8e-05,-6e-05,-0.00013,1e-05,0.00074,0.00047,0.00013,-0.0002,3,21
12496,8e-05,-6e-05,-0.00013,1e-05,0.00074,0.00047,0.00013,-0.0002,3,21
12497,8e-05,-6e-05,-0.00013,1e-05,0.00074,0.00047,0.00013,-0.0002,3,21
12498,8e-05,-6e-05,-0.00013,1e-05,0.00074,0.00047,0.00013,-0.0002,3,21
12499,8e-05,-6e-05,-0.00013,1e-05,0.00074,0.00047,0.00013,-0.0002,3,21
12500,8e-05,-6e-05,-0.00013,1e-05,0.00074,0.00047,0.00013,-0.0002,3,21
12501,8e-05,-6e-05,-0.00013,1e-05,0.00074,0.00047,0.00013,-0.0002,3,21
12502,8e-05,-6e-05,-0.00013,1e-05,0.00074,0.00047,0.00013,-0.0002,3,21
12503,8e-05,-6e-05,-0.00013,1e-05,0.00074,0.00047,0.00013,-0.0002,3,21
12504,8e-05,-6e-05,-0.00013,1e-05,0.00074,0.00047,0.00013,-0.0002,3,21
12505,8e-05,-6e-05,-0.00013,1e-05,0.00074,0.00047,0.00013,-0.0002,3,21
12506,8e-05,-6e-05,-0.00013,1e-05,0.00074,0.00047,0.00013,-0.0002,3,21
12507,8e-05,-6e-05,-0.00013,1e-05,0.00074,0.00047,0.00013,-0.0002,3,21
12508,8e-05,-6e-05,-0.00013,1e-05,0.00074,0.00047,0.00013,-0.0002,3,21
12509,8e-05,-6e-05,-0.00013,1e-05,0.00074,0.00047,0.00013,-0.0002,3,21
12510,-0.00013,-3e-05,9e-05,0.00011,0.00055,0.00023,4e-05,-7e-05,3,21
12511,-6e-05,-9e-05,-7e-05,-8e-05,-0.00035,-0.00023,-0.0001,-9e-05,3,21
12512,-6e-05,-9e-05,-7e-05,-8e-05,-0.00035,-0.00023,-0.0001,-9e-05,3,21
12513,-6e-05,-9e-05,-7e-05,-8e-05,-0.00035,-0.00023,-0.0001,-9e-05,3,21
12514,-6e-05,-9e-05,-7e-05,-8e-05,-0.00035,-0.00023,-0.0001,-9e-05,3,21
12515,-6e-05,-9e-05,-7e-05,-8e-05,-0.00035,-0.00023,-0.0001,-9e-05,3,21
12516,-6e-05,-9e-05,-7e-05,-8e-05,-0.00035,-0.00023,-0.0001,-9e-05,3,21
12517,-6e-05,-9e-05,-7e-05,-8e-05,-0.00035,-0.00023,-0.0001,-9e-05,3,21
12518,-6e-05,-9e-05,-7e-05,-8e-05,-0.00035,-0.00023,-0.0001,-9e-05,3,21
12519,-6e-05,-9e-05,-7e-05,-8e-05,-0.00035,-0.00023,-0.0001,-9e-05,3,21
12520,-6e-05,-9e-05,-7e-05,-8e-05,-0.00035,-0.00023,-0.0001,-9e-05,3,21
12521,-6e-05,-9e-05,-7e-05,-8e-05,-0.00035,-0.00023,-0.0001,-9e-05,3,21
12522,-6e-05,-9e-05,-7e-05,-8e-05,-0.00035,-0.00023,-0.0001,-9e-05,3,21
12523,-6e-05,-9e-05,-7e-05,-8e-05,-0.00035,-0.00023,-0.0001,-9e-05,3,21
12524,0.00011,4e-05,-5e-05,0,-0.0002,-0.00019,4e-05,4e-05,3,21
12525,0.00011,4e-05,-5e-05,0,-0.0002,-0.00019,4e-05,4e-05,3,21
12526,0.00011,4e-05,-5e-05,0,-0.0002,-0.00019,4e-05,4e-05,3,21
12527,0.00011,4e-05,-5e-05,0,-0.0002,-0.00019,4e-05,4e-05,3,21
12528,0.00011,4e-05,-5e-05,0,-0.0002,-0.00019,4e-05,4e-05,3,21
12529,0.00011,4e-05,-5e-05,0,-0.0002,-0.00019,4e-05,4e-05,3,21
12530,0.00011,4e-05,-5e-05,0,-0.0002,-0.00019,4e-05,4e-05,3,21
12531,0.00039,5e-05,4e-05,-8e-05,-0.00027,-0.00014,-2e-05,9e-05,3,21
12532,0.00039,5e-05,4e-05,-8e-05,-0.00027,-0.00014,-2e-05,9e-05,3,21
12533,0.00039,5e-05,4e-05,-8e-05,-0.00027,-0.00014,-2e-05,9e-05,3,21
12534,0.00039,5e-05,4e-05,-8e-05,-0.00027,-0.00014,-2e-05,9e-05,3,21
12535,0.00039,5e-05,4e-05,-8e-05,-0.00027,-0.00014,-2e-05,9e-05,3,21
12537,0.00039,5e-05,4e-05,-8e-05,-0.00027,-0.00014,-2e-05,9e-05,3,21
12539,0.00039,5e-05,4e-05,-8e-05,-0.00027,-0.00014,-2e-05,9e-05,3,21
12540,0.00039,5e-05,4e-05,-8e-05,-0.00027,-0.00014,-2e-05,9e-05,3,21
12541,0.00039,5e-05,4e-05,-8e-05,-0.00027,-0.00014,-2e-05,9e-05,3,21
12542,0.00039,5e-05,4e-05,-8e-05,-0.00027,-0.00014,-2e-05,9e-05,3,21
12543,0.00039,5e-05,4e-05,-8e-05,-0.00027,-0.00014,-2e-05,9e-05,3,21
12544,0.00039,5e-05,4e-05,-8e-05,-0.00027,-0.00014,-2e-05,9e-05,3,21
12546,0.00039,5e-05,4e-05,-8e-05,-0.00027,-0.00014,-2e-05,9e-05,3,21
12547,-6e-05,-9e-05,9e-05,-3e-05,-0.0001,-0.00021,-1e-05,-1e-05,3,21
12548,-6e-05,-9e-05,9e-05,-3e-05,-0.0001,-0.00021,-1e-05,-1e-05,3,21
12549,-0.00027,6e-05,5e-05,-4e-05,-7e-05,-0.00016,2e-05,3e-05,3,21
12550,-0.00027,6e-05,5e-05,-4e-05,-7e-05,-0.00016,2e-05,3e-05,3,21
12551,-0.00027,6e-05,5e-05,-4e-05,-7e-05,-0.00016,2e-05,3e-05,3,21
12552,-0.00027,6e-05,5e-05,-4e-05,-7e-05,-0.00016,2e-05,3e-05,3,21
12553,-0.00027,6e-05,5e-05,-4e-05,-7e-05,-0.00016,2e-05,3e-05,3,21
12554,-0.00027,6e-05,5e-05,-4e-05,-7e-05,-0.00016,2e-05,3e-05,3,21
12555,-0.00027,6e-05,5e-05,-4e-05,-7e-05,-0.00016,2e-05,3e-05,3,21
12556,-0.00027,6e-05,5e-05,-4e-05,-7e-05,-0.00016,2e-05,3e-05,3,21
12557,-0.00027,6e-05,5e-05,-4e-05,-7e-05,-0.00016,2e-05,3e-05,3,21
12558,-0.00027,6e-05,5e-05,-4e-05,-7e-05,-0.00016,2e-05,3e-05,3,21
12559,-0.00027,6e-05,5e-05,-4e-05,-7e-05,-0.00016,2e-05,3e-05,3,21
12560,-0.00027,6e-05,5e-05,-4e-05,-7e-05,-0.00016,2e-05,3e-05,3,21
12561,-0.00027,6e-05,5e-05,-4e-05,-7e-05,-0.00016,2e-05,3e-05,3,21
12562,-0.00027,6e-05,5e-05,-4e-05,-7e-05,-0.00016,2e-05,3e-05,3,21
12563,-0.00027,6e-05,5e-05,-4e-05,-7e-05,-0.00016,2e-05,3e-05,3,21
12564,-0.00027,6e-05,5e-05,-4e-05,-7e-05,-0.00016,2e-05,3e-05,3,21
12565,-0.00027,6e-05,5e-05,-4e-05,-7e-05,-0.00016,2e-05,3e-05,3,21
12566,-0.00027,6e-05,5e-05,-4e-05,-7e-05,-0.00016,2e-05,3e-05,3,21
12567,-0.00027,6e-05,5e-05,-4e-05,-7e-05,-0.00016,2e-05,3e-05,3,21
12568,-0.00027,6e-05,5e-05,-4e-05,-7e-05,-0.00016,2e-05,3e-05,3,21
12569,-0.00027,6e-05,5e-05,-4e-05,-7e-05,-0.00016,2e-05,3e-05,3,21
12570,2e-05,-6e-05,-5e-05,0,0.00039,-0.00014,-0.00013,-8e-05,3,21
12571,-9e-05,-7e-05,-4e-05,-1e-05,0.00034,5e-05,-0.00014,-6e-05,3,21
12572,-9e-05,-7e-05,-4e-05,-1e-05,0.00034,5e-05,-0.00014,-6e-05,3,21
12573,-9e-05,-7e-05,-4e-05,-1e-05,0.00034,5e-05,-0.00014,-6e-05,3,21
12574,-9e-05,-7e-05,-4e-05,-1e-05,0.00034,5e-05,-0.00014,-6e-05,3,21
12575,-9e-05,-7e-05,-4e-05,-1e-05,0.00034,5e-05,-0.00014,-6e-05,3,21
12576,-9e-05,-7e-05,-4e-05,-1e-05,0.00034,5e-05,-0.00014,-6e-05,3,21
12577,-9e-05,-7e-05,-4e-05,-1e-05,0.00034,5e-05,-0.00014,-6e-05,3,21
12578,-9e-05,-7e-05,-4e-05,-1e-05,0.00034,5e-05,-0.00014,-6e-05,3,21
12579,-9e-05,-7e-05,-4e-05,-1e-05,0.00034,5e-05,-0.00014,-6e-05,3,21
12580,-9e-05,-7e-05,-4e-05,-1e-05,0.00034,5e-05,-0.00014,-6e-05,3,21
12581,-9e-05,-7e-05,-4e-05,-1e-05,0.00034,5e-05,-0.00014,-6e-05,3,21
12582,-9e-05,-7e-05,-4e-05,-1e-05,0.00034,5e-05,-0.00014,-6e-05,3,21
12583,-9e-05,-7e-05,-4e-05,-1e-05,0.00034,5e-05,-0.00014,-6e-05,3,21
12584,-5e-05,3e-05,0,-4e-05,-0.00022,0.00014,-6e-05,4e-05,3,21
12585,-5e-05,3e-05,0,-4e-05,-0.00022,0.00014,-6e-05,4e-05,3,21
12587,-5e-05,3e-05,0,-4e-05,-0.00022,0.00014,-6e-05,4e-05,3,21
12589,-5e-05,3e-05,0,-4e-05,-0.00022,0.00014,-6e-05,4e-05,3,21
12590,-0.00071,-8e-05,-5e-05,-1e-05,-0.00035,-9e-05,-6e-05,3e-05,3,21
12591,-0.00071,-8e-05,-5e-05,-1e-05,-0.00035,-9e-05,-6e-05,3e-05,3,21
12592,-0.00071,-8e-05,-5e-05,-1e-05,-0.00035,-9e-05,-6e-05,3e-05,3,21
12593,-0.00071,-8e-05,-5e-05,-1e-05,-0.00035,-9e-05,-6e-05,3e-05,3,21
12594,-0.00071,-8e-05,-5e-05,-1e-05,-0.00035,-9e-05,-6e-05,3e-05,3,21
12595,-0.00071,-8e-05,-5e-05,-1e-05,-0.00035,-9e-05,-6e-05,3e-05,3,21
12596,-0.00071,-8e-05,-5e-05,-1e-05,-0.00035,-9e-05,-6e-05,3e-05,3,21
12597,-0.00071,-8e-05,-5e-05,-1e-05,-0.00035,-9e-05,-6e-05,3e-05,3,21
12598,-0.00071,-8e-05,-5e-05,-1e-05,-0.00035,-9e-05,-6e-05,3e-05,3,21
12599,-0.00071,-8e-05,-5e-05,-1e-05,-0.00035,-9e-05,-6e-05,3e-05,3,21
12600,-0.00071,-8e-05,-5e-05,-1e-05,-0.00035,-9e-05,-6e-05,3e-05,3,21
12601,-0.00071,-8e-05,-5e-05,-1e-05,-0.00035,-9e-05,-6e-05,3e-05,3,21
12602,-0.00071,-8e-05,-5e-05,-1e-05,-0.00035,-9e-05,-6e-05,3e-05,3,21
12603,-0.00071,-8e-05,-5e-05,-1e-05,-0.00035,-9e-05,-6e-05,3e-05,3,21
12604,-0.00071,-8e-05,-5e-05,-1e-05,-0.00035,-9e-05,-6e-05,3e-05,3,21
12605,-0.00071,-8e-05,-5e-05,-1e-05,-0.00035,-9e-05,-6e-05,3e-05,3,21
12606,-0.00071,-8e-05,-5e-05,-1e-05,-0.00035,-9e-05,-6e-05,3e-05,3,21
12607,0.00056,2e-05,-9e-05,-0.00012,-0.0006,-0.00042,6e-05,4e-05,3,21
12608,0.00056,2e-05,-9e-05,-0.00012,-0.0006,-0.00042,6e-05,4e-05,3,21
12609,0.00011,-1e-05,-1e-05,-0.00013,-0.00026,-0.00047,-3e-05,3e-05,3,21
12610,0.00011,-1e-05,-1e-05,-0.00013,-0.00026,-0.00047,-3e-05,3e-05,3,21
12611,0.00011,-1e-05,-1e-05,-0.00013,-0.00026,-0.00047,-3e-05,3e-05,3,21
12612,0.00011,-1e-05,-1e-05,-0.00013,-0.00026,-0.00047,-3e-05,3e-05,3,21
12613,0.00011,-1e-05,-1e-05,-0.00013,-0.00026,-0.00047,-3e-05,3e-05,3,21
12614,0.00011,-1e-05,-1e-05,-0.00013,-0.00026,-0.00047,-3e-05,3e-05,3,21
12615,0.00011,-1e-05,-1e-05,-0.00013,-0.00026,-0.00047,-3e-05,3e-05,3,21
12616,0.00011,-1e-05,-1e-05,-0.00013,-0.00026,-0.00047,-3e-05,3e-05,3,21
12617,0.00011,-1e-05,-1e-05,-0.00013,-0.00026,-0.00047,-3e-05,3e-05,3,21
12618,0.00011,-1e-05,-1e-05,-0.00013,-0.00026,-0.00047,-3e-05,3e-05,3,21
12619,0.00011,-1e-05,-1e-05,-0.00013,-0.00026,-0.00047,-3e-05,3e-05,3,21
12620,0.00011,-1e-05,-1e-05,-0.00013,-0.00026,-0.00047,-3e-05,3e-05,3,21
12621,0.00011,-1e-05,-1e-05,-0.00013,-0.00026,-0.00047,-3e-05,3e-05,3,21
12622,0.00011,-1e-05,-1e-05,-0.00013,-0.00026,-0.00047,-3e-05,3e-05,3,21
12623,0.00011,-1e-05,-1e-05,-0.00013,-0.00026,-0.00047,-3e-05,3e-05,3,21
12624,0.00011,-1e-05,-1e-05,-0.00013,-0.00026,-0.00047,-3e-05,3e-05,3,21
12625,0.00011,-1e-05,-1e-05,-0.00013,-0.00026,-0.00047,-3e-05,3e-05,3,21
12626,0.00011,-1e-05,-1e-05,-0.00013,-0.00026,-0.00047,-3e-05,3e-05,3,21
12627,0.00011,-1e-05,-1e-05,-0.00013,-0.00026,-0.00047,-3e-05,3e-05,3,21
12628,0.00011,-1e-05,-1e-05,-0.00013,-0.00026,-0.00047,-3e-05,3e-05,3,21
12629,0.00011,-1e-05,-1e-05,-0.00013,-0.00026,-0.00047,-3e-05,3e-05,3,21
12630,-1e-05,-8e-05,-4e-05,-2e-05,0.00023,4e-05,-6e-05,-2e-05,3,21
12631,0.00015,-5e-05,-3e-05,0.0001,-0.00019,0.00011,3e-05,6e-05,3,21
12632,0.00015,-5e-05,-3e-05,0.0001,-0.00019,0.00011,3e-05,6e-05,3,21
12633,0.00015,-5e-05,-3e-05,0.0001,-0.00019,0.00011,3e-05,6e-05,3,21
12634,0.00015,-5e-05,-3e-05,0.0001,-0.00019,0.00011,3e-05,6e-05,3,21
12635,0.00015,-5e-05,-3e-05,0.0001,-0.00019,0.00011,3e-05,6e-05,3,21
12637,0.00015,-5e-05,-3e-05,0.0001,-0.00019,0.00011,3e-05,6e-05,3,21
12639,0.00015,-5e-05,-3e-05,0.0001,-0.00019,0.00011,3e-05,6e-05,3,21
12640,0.00015,-5e-05,-3e-05,0.0001,-0.00019,0.00011,3e-05,6e-05,3,21
12641,0.00015,-5e-05,-3e-05,0.0001,-0.00019,0.00011,3e-05,6e-05,3,21
12642,0.00015,-5e-05,-3e-05,0.0001,-0.00019,0.00011,3e-05,6e-05,3,21
12643,0.00015,-5e-05,-3e-05,0.0001,-0.00019,0.00011,3e-05,6e-05,3,21
12644,-6e-05,5e-05,-2e-05,-7e-05,5e-05,-0.00014,-3e-05,-8e-05,3,21
12645,-6e-05,5e-05,-2e-05,-7e-05,5e-05,-0.00014,-3e-05,-8e-05,3,21
12646,-6e-05,5e-05,-2e-05,-7e-05,5e-05,-0.00014,-3e-05,-8e-05,3,21
12647,-6e-05,5e-05,-2e-05,-7e-05,5e-05,-0.00014,-3e-05,-8e-05,3,21
12648,-6e-05,5e-05,-2e-05,-7e-05,5e-05,-0.00014,-3e-05,-8e-05,3,21
12649,-6e-05,5e-05,-2e-05,-7e-05,5e-05,-0.00014,-3e-05,-8e-05,3,21
12650,-6e-05,5e-05,-2e-05,-7e-05,5e-05,-0.00014,-3e-05,-8e-05,3,21
12651,-5e-05,-5e-05,-2e-05,0.00011,0.00042,0.00028,0,0,3,21
12652,-5e-05,-5e-05,-2e-05,0.00011,0.00042,0.00028,0,0,3,21
12653,-5e-05,-5e-05,-2e-05,0.00011,0.00042,0.00028,0,0,3,21
12654,-5e-05,-5e-05,-2e-05,0.00011,0.00042,0.00028,0,0,3,21
12655,-5e-05,-5e-05,-2e-05,0.00011,0.00042,0.00028,0,0,3,21
12656,-5e-05,-5e-05,-2e-05,0.00011,0.00042,0.00028,0,0,3,21
12657,-5e-05,-5e-05,-2e-05,0.00011,0.00042,0.00028,0,0,3,21
12658,-5e-05,-5e-05,-2e-05,0.00011,0.00042,0.00028,0,0,3,21
12659,-5e-05,-5e-05,-2e-05,0.00011,0.00042,0.00028,0,0,3,21
12660,-5e-05,-5e-05,-2e-05,0.00011,0.00042,0.00028,0,0,3,21
12661,-5e-05,-5e-05,-2e-05,0.00011,0.00042,0.00028,0,0,3,21
12662,-5e-05,-5e-05,-2e-05,0.00011,0.00042,0.00028,0,0,3,21
12663,-5e-05,-5e-05,-2e-05,0.00011,0.00042,0.00028,0,0,3,21
12664,-5e-05,-5e-05,-2e-05,0.00011,0.00042,0.00028,0,0,3,21
12665,-5e-05,-5e-05,-2e-05,0.00011,0.00042,0.00028,0,0,3,21
12666,-5e-05,-5e-05,-2e-05,0.00011,0.00042,0.00028,0,0,3,21
12667,-0.00017,0,-2e-05,5e-05,0.0001,7e-05,-4e-05,9e-05,3,21
12668,-0.00017,0,-2e-05,5e-05,0.0001,7e-05,-4e-05,9e-05,3,21
12669,0.0001,-2e-05,-3e-05,-9e-05,-0.00046,-0.00037,2e-05,-1e-05,3,21
12670,0.0001,-2e-05,-3e-05,-9e-05,-0.00046,-0.00037,2e-05,-1e-05,3,21
12671,0.0001,-2e-05,-3e-05,-9e-05,-0.00046,-0.00037,2e-05,-1e-05,3,21
12672,0.0001,-2e-05,-3e-05,-9e-05,-0.00046,-0.00037,2e-05,-1e-05,3,21
12673,0.0001,-2e-05,-3e-05,-9e-05,-0.00046,-0.00037,2e-05,-1e-05,3,21
12674,0.0001,-2e-05,-3e-05,-9e-05,-0.00046,-0.00037,2e-05,-1e-05,3,21
12675,0.0001,-2e-05,-3e-05,-9e-05,-0.00046,-0.00037,2e-05,-1e-05,3,21
12676,0.0001,-2e-05,-3e-05,-9e-05,-0.00046,-0.00037,2e-05,-1e-05,3,21
12677,0.0001,-2e-05,-3e-05,-9e-05,-0.00046,-0.00037,2e-05,-1e-05,3,21
12678,0.0001,-2e-05,-3e-05,-9e-05,-0.00046,-0.00037,2e-05,-1e-05,3,21
12679,0.0001,-2e-05,-3e-05,-9e-05,-0.00046,-0.00037,2e-05,-1e-05,3,21
12680,0.0001,-2e-05,-3e-05,-9e-05,-0.00046,-0.00037,2e-05,-1e-05,3,21
12681,0.0001,-2e-05,-3e-05,-9e-05,-0.00046,-0.00037,2e-05,-1e-05,3,21
12682,0.0001,-2e-05,-3e-05,-9e-05,-0.00046,-0.00037,2e-05,-1e-05,3,21
12683,0.0001,-2e-05,-3e-05,-9e-05,-0.00046,-0.00037,2e-05,-1e-05,3,21
12684,0.0001,-2e-05,-3e-05,-9e-05,-0.00046,-0.00037,2e-05,-1e-05,3,21
12685,0.0001,-2e-05,-3e-05,-9e-05,-0.00046,-0.00037,2e-05,-1e-05,3,21
12687,0.0001,-2e-05,-3e-05,-9e-05,-0.00046,-0.00037,2e-05,-1e-05,3,21
12689,0.0001,-2e-05,-3e-05,-9e-05,-0.00046,-0.00037,2e-05,-1e-05,3,21
12690,-0.0002,0.0001,0.0001,1e-05,0,0.00031,0,-3e-05,3,21
12691,-0.00013,9e-05,-1e-05,-9e-05,0.0002,-6e-05,-0.00011,0,3,21
12693,-0.00013,9e-05,-1e-05,-9e-05,0.0002,-6e-05,-0.00011,0,3,21
12694,-0.00013,9e-05,-1e-05,-9e-05,0.0002,-6e-05,-0.00011,0,3,21
12695,-0.00013,9e-05,-1e-05,-9e-05,0.0002,-6e-05,-0.00011,0,3,21
12697,-0.00013,9e-05,-1e-05,-9e-05,0.0002,-6e-05,-0.00011,0,3,21
12698,-0.00013,9e-05,-1e-05,-9e-05,0.0002,-6e-05,-0.00011,0,3,21
12699,-0.00013,9e-05,-1e-05,-9e-05,0.0002,-6e-05,-0.00011,0,3,21
12700,-0.00013,9e-05,-1e-05,-9e-05,0.0002,-6e-05,-0.00011,0,3,21
12701,-0.00013,9e-05,-1e-05,-9e-05,0.0002,-6e-05,-0.00011,0,3,21
12702,-0.00013,9e-05,-1e-05,-9e-05,0.0002,-6e-05,-0.00011,0,3,21
12703,0.00012,3e-05,8e-05,6e-05,-0.00047,-1e-05,0,7e-05,3,21
12704,0.00012,3e-05,8e-05,6e-05,-0.00047,-1e-05,0,7e-05,3,21
12705,0.00012,3e-05,8e-05,6e-05,-0.00047,-1e-05,0,7e-05,3,21
12706,0.00012,3e-05,8e-05,6e-05,-0.00047,-1e-05,0,7e-05,3,21
12707,0.00012,3e-05,8e-05,6e-05,-0.00047,-1e-05,0,7e-05,3,21
12708,0.00012,3e-05,8e-05,6e-05,-0.00047,-1e-05,0,7e-05,3,21
12709,0.00012,3e-05,8e-05,6e-05,-0.00047,-1e-05,0,7e-05,3,21
12710,0.00012,3e-05,8e-05,6e-05,-0.00047,-1e-05,0,7e-05,3,21
12711,0.00012,3e-05,8e-05,6e-05,-0.00047,-1e-05,0,7e-05,3,21
12712,7e-05,2e-05,-8e-05,-3e-05,-0.00031,0.00034,7e-05,-5e-05,3,21
12713,7e-05,2e-05,-8e-05,-3e-05,-0.00031,0.00034,7e-05,-5e-05,3,21
12714,7e-05,2e-05,-8e-05,-3e-05,-0.00031,0.00034,7e-05,-5e-05,3,21
12715,7e-05,2e-05,-8e-05,-3e-05,-0.00031,0.00034,7e-05,-5e-05,3,21
12716,7e-05,2e-05,-8e-05,-3e-05,-0.00031,0.00034,7e-05,-5e-05,3,21
12717,7e-05,2e-05,-8e-05,-3e-05,-0.00031,0.00034,7e-05,-5e-05,3,21
12718,7e-05,2e-05,-8e-05,-3e-05,-0.00031,0.00034,7e-05,-5e-05,3,21
12719,7e-05,2e-05,-8e-05,-3e-05,-0.00031,0.00034,7e-05,-5e-05,3,21
12720,7e-05,2e-05,-8e-05,-3e-05,-0.00031,0.00034,7e-05,-5e-05,3,21
12721,7e-05,2e-05,-8e-05,-3e-05,-0.00031,0.00034,7e-05,-5e-05,3,21
12722,7e-05,2e-05,-8e-05,-3e-05,-0.00031,0.00034,7e-05,-5e-05,3,21
12723,7e-05,2e-05,-8e-05,-3e-05,-0.00031,0.00034,7e-05,-5e-05,3,21
12724,7e-05,2e-05,-8e-05,-3e-05,-0.00031,0.00034,7e-05,-5e-05,3,21
12725,7e-05,2e-05,-8e-05,-3e-05,-0.00031,0.00034,7e-05,-5e-05,3,21
12726,7e-05,2e-05,-8e-05,-3e-05,-0.00031,0.00034,7e-05,-5e-05,3,21
12727,-4e-05,-3e-05,-5e-05,-4e-05,-8e-05,1e-05,-9e-05,1e-05,3,21
12728,-4e-05,-3e-05,-5e-05,-4e-05,-8e-05,1e-05,-9e-05,1e-05,3,21
12729,-0.00058,-1e-05,0,3e-05,-0.00036,-2e-05,0,-2e-05,3,21
12730,-0.00058,-1e-05,0,3e-05,-0.00036,-2e-05,0,-2e-05,3,21
12731,-0.00058,-1e-05,0,3e-05,-0.00036,-2e-05,0,-2e-05,3,21
12732,-0.00058,-1e-05,0,3e-05,-0.00036,-2e-05,0,-2e-05,3,21
12733,-0.00058,-1e-05,0,3e-05,-0.00036,-2e-05,0,-2e-05,3,21
12734,-0.00058,-1e-05,0,3e-05,-0.00036,-2e-05,0,-2e-05,3,21
12735,-0.00058,-1e-05,0,3e-05,-0.00036,-2e-05,0,-2e-05,3,21
12737,-0.00058,-1e-05,0,3e-05,-0.00036,-2e-05,0,-2e-05,3,21
12739,-0.00058,-1e-05,0,3e-05,-0.00036,-2e-05,0,-2e-05,3,21
12740,-0.00058,-1e-05,0,3e-05,-0.00036,-2e-05,0,-2e-05,3,21
12741,-0.00058,-1e-05,0,3e-05,-0.00036,-2e-05,0,-2e-05,3,21
12742,-0.00058,-1e-05,0,3e-05,-0.00036,-2e-05,0,-2e-05,3,21
12743,-0.00058,-1e-05,0,3e-05,-0.00036,-2e-05,0,-2e-05,3,21
12744,-0.00058,-1e-05,0,3e-05,-0.00036,-2e-05,0,-2e-05,3,21
12745,-0.00058,-1e-05,0,3e-05,-0.00036,-2e-05,0,-2e-05,3,21
12746,-0.00058,-1e-05,0,3e-05,-0.00036,-2e-05,0,-2e-05,3,21
12747,-0.00058,-1e-05,0,3e-05,-0.00036,-2e-05,0,-2e-05,3,21
12748,-0.00058,-1e-05,0,3e-05,-0.00036,-2e-05,0,-2e-05,3,21
12749,-0.00058,-1e-05,0,3e-05,-0.00036,-2e-05,0,-2e-05,3,21
12750,-0.00035,0,-5e-05,7e-05,-0.0001,-0.00041,-0.0001,-9e-05,3,21
12751,0.00028,0.00015,7e-05,8e-05,0.00056,9e-05,6e-05,0.00023,3,21
12753,0.00028,0.00015,7e-05,8e-05,0.00056,9e-05,6e-05,0.00023,3,21
12754,0.00028,0.00015,7e-05,8e-05,0.00056,9e-05,6e-05,0.00023,3,21
12755,0.00028,0.00015,7e-05,8e-05,0.00056,9e-05,6e-05,0.00023,3,21
12756,0.00028,0.00015,7e-05,8e-05,0.00056,9e-05,6e-05,0.00023,3,21
12757,0.00028,0.00015,7e-05,8e-05,0.00056,9e-05,6e-05,0.00023,3,21
12758,0.00028,0.00015,7e-05,8e-05,0.00056,9e-05,6e-05,0.00023,3,21
12759,0.00028,0.00015,7e-05,8e-05,0.00056,9e-05,6e-05,0.00023,3,21
12760,0.00028,0.00015,7e-05,8e-05,0.00056,9e-05,6e-05,0.00023,3,21
12761,0.00028,0.00015,7e-05,8e-05,0.00056,9e-05,6e-05,0.00023,3,21
12762,0.00028,0.00015,7e-05,8e-05,0.00056,9e-05,6e-05,0.00023,3,21
12763,-9e-05,-0.00035,-2e-05,7e-05,0.00041,0.00017,8e-05,-5e-05,3,21
12764,-9e-05,-0.00035,-2e-05,7e-05,0.00041,0.00017,8e-05,-5e-05,3,21
12765,-9e-05,-0.00035,-2e-05,7e-05,0.00041,0.00017,8e-05,-5e-05,3,21
12766,-9e-05,-0.00035,-2e-05,7e-05,0.00041,0.00017,8e-05,-5e-05,3,21
12767,-9e-05,-0.00035,-2e-05,7e-05,0.00041,0.00017,8e-05,-5e-05,3,21
12768,-9e-05,-0.00035,-2e-05,7e-05,0.00041,0.00017,8e-05,-5e-05,3,21
12769,-9e-05,-0.00035,-2e-05,7e-05,0.00041,0.00017,8e-05,-5e-05,3,21
12770,-9e-05,-0.00035,-2e-05,7e-05,0.00041,0.00017,8e-05,-5e-05,3,21
12771,-9e-05,-0.00035,-2e-05,7e-05,0.00041,0.00017,8e-05,-5e-05,3,21
12772,-0.00071,-0.00011,1e-05,-9e-05,-0.00023,-0.00012,-3e-05,-0.00018,3,21
12773,-0.00071,-0.00011,1e-05,-9e-05,-0.00023,-0.00012,-3e-05,-0.00018,3,21
12774,-0.00071,-0.00011,1e-05,-9e-05,-0.00023,-0.00012,-3e-05,-0.00018,3,21
12775,-0.00071,-0.00011,1e-05,-9e-05,-0.00023,-0.00012,-3e-05,-0.00018,3,21
12776,-0.00071,-0.00011,1e-05,-9e-05,-0.00023,-0.00012,-3e-05,-0.00018,3,21
12777,-0.00071,-0.00011,1e-05,-9e-05,-0.00023,-0.00012,-3e-05,-0.00018,3,21
12778,-0.00071,-0.00011,1e-05,-9e-05,-0.00023,-0.00012,-3e-05,-0.00018,3,21
12779,-0.00071,-0.00011,1e-05,-9e-05,-0.00023,-0.00012,-3e-05,-0.00018,3,21
12780,-0.00071,-0.00011,1e-05,-9e-05,-0.00023,-0.00012,-3e-05,-0.00018,3,21
12781,-0.00071,-0.00011,1e-05,-9e-05,-0.00023,-0.00012,-3e-05,-0.00018,3,21
12782,-0.00071,-0.00011,1e-05,-9e-05,-0.00023,-0.00012,-3e-05,-0.00018,3,21
12783,-0.00071,-0.00011,1e-05,-9e-05,-0.00023,-0.00012,-3e-05,-0.00018,3,21
12784,-0.00071,-0.00011,1e-05,-9e-05,-0.00023,-0.00012,-3e-05,-0.00018,3,21
12785,-0.00071,-0.00011,1e-05,-9e-05,-0.00023,-0.00012,-3e-05,-0.00018,3,21
12787,-0.00015,6e-05,-6e-05,-0.00021,-0.0004,-0.00033,-4e-05,0,3,21
12789,0.00025,-0.00011,-8e-05,9e-05,0.00043,3e-05,0,-2e-05,3,21
12790,0.00025,-0.00011,-8e-05,9e-05,0.00043,3e-05,0,-2e-05,3,21
12791,0.00025,-0.00011,-8e-05,9e-05,0.00043,3e-05,0,-2e-05,3,21
12792,0.00025,-0.00011,-8e-05,9e-05,0.00043,3e-05,0,-2e-05,3,21
12793,0.00025,-0.00011,-8e-05,9e-05,0.00043,3e-05,0,-2e-05,3,21
12794,0.00025,-0.00011,-8e-05,9e-05,0.00043,3e-05,0,-2e-05,3,21
12795,0.00025,-0.00011,-8e-05,9e-05,0.00043,3e-05,0,-2e-05,3,21
12796,0.00025,-0.00011,-8e-05,9e-05,0.00043,3e-05,0,-2e-05,3,21
12797,0.00025,-0.00011,-8e-05,9e-05,0.00043,3e-05,0,-2e-05,3,21
12798,0.00025,-0.00011,-8e-05,9e-05,0.00043,3e-05,0,-2e-05,3,21
12799,0.00025,-0.00011,-8e-05,9e-05,0.00043,3e-05,0,-2e-05,3,21
12800,0.00025,-0.00011,-8e-05,9e-05,0.00043,3e-05,0,-2e-05,3,21
12801,0.00025,-0.00011,-8e-05,9e-05,0.00043,3e-05,0,-2e-05,3,21
12802,0.00025,-0.00011,-8e-05,9e-05,0.00043,3e-05,0,-2e-05,3,21
12803,0.00025,-0.00011,-8e-05,9e-05,0.00043,3e-05,0,-2e-05,3,21
12804,0.00025,-0.00011,-8e-05,9e-05,0.00043,3e-05,0,-2e-05,3,21
12805,0.00025,-0.00011,-8e-05,9e-05,0.00043,3e-05,0,-2e-05,3,21
12806,0.00025,-0.00011,-8e-05,9e-05,0.00043,3e-05,0,-2e-05,3,21
12807,0.00025,-0.00011,-8e-05,9e-05,0.00043,3e-05,0,-2e-05,3,21
12808,0.00025,-0.00011,-8e-05,9e-05,0.00043,3e-05,0,-2e-05,3,21
12809,0.00025,-0.00011,-8e-05,9e-05,0.00043,3e-05,0,-2e-05,3,21
12810,9e-05,-1e-05,-2e-05,-8e-05,-0.00028,-0.0001,-2e-05,-4e-05,3,21
12811,0.00051,6e-05,3e-05,7e-05,0.00013,0.00012,-1e-05,3e-05,3,21
12812,0.00051,6e-05,3e-05,7e-05,0.00013,0.00012,-1e-05,3e-05,3,21
12813,0.00051,6e-05,3e-05,7e-05,0.00013,0.00012,-1e-05,3e-05,3,21
12814,0.00051,6e-05,3e-05,7e-05,0.00013,0.00012,-1e-05,3e-05,3,21
12815,0.00051,6e-05,3e-05,7e-05,0.00013,0.00012,-1e-05,3e-05,3,21
12816,0.00051,6e-05,3e-05,7e-05,0.00013,0.00012,-1e-05,3e-05,3,21
12817,0.00051,6e-05,3e-05,7e-05,0.00013,0.00012,-1e-05,3e-05,3,21
12818,0.00051,6e-05,3e-05,7e-05,0.00013,0.00012,-1e-05,3e-05,3,21
12819,0.00051,6e-05,3e-05,7e-05,0.00013,0.00012,-1e-05,3e-05,3,21
12820,0.00051,6e-05,3e-05,7e-05,0.00013,0.00012,-1e-05,3e-05,3,21
12821,0.00051,6e-05,3e-05,7e-05,0.00013,0.00012,-1e-05,3e-05,3,21
12822,0.00051,6e-05,3e-05,7e-05,0.00013,0.00012,-1e-05,3e-05,3,21
12823,9e-05,3e-05,1e-05,0.00012,0.00049,0.00026,0,0,3,21
12824,9e-05,3e-05,1e-05,0.00012,0.00049,0.00026,0,0,3,21
12825,9e-05,3e-05,1e-05,0.00012,0.00049,0.00026,0,0,3,21
12826,9e-05,3e-05,1e-05,0.00012,0.00049,0.00026,0,0,3,21
12827,9e-05,3e-05,1e-05,0.00012,0.00049,0.00026,0,0,3,21
12828,9e-05,3e-05,1e-05,0.00012,0.00049,0.00026,0,0,3,21
12829,9e-05,3e-05,1e-05,0.00012,0.00049,0.00026,0,0,3,21
12830,9e-05,3e-05,1e-05,0.00012,0.00049,0.00026,0,0,3,21
12831,9e-05,3e-05,1e-05,0.00012,0.00049,0.00026,0,0,3,21
12832,0,6e-05,5e-05,0.00011,0.00075,4e-05,3e-05,4e-05,3,21
12833,0,6e-05,5e-05,0.00011,0.00075,4e-05,3e-05,4e-05,3,21
12834,0,6e-05,5e-05,0.00011,0.00075,4e-05,3e-05,4e-05,3,21
12835,0,6e-05,5e-05,0.00011,0.00075,4e-05,3e-05,4e-05,3,21
12837,0,6e-05,5e-05,0.00011,0.00075,4e-05,3e-05,4e-05,3,21
12839,0,6e-05,5e-05,0.00011,0.00075,4e-05,3e-05,4e-05,3,21
12840,0,6e-05,5e-05,0.00011,0.00075,4e-05,3e-05,4e-05,3,21
12841,0,6e-05,5e-05,0.00011,0.00075,4e-05,3e-05,4e-05,3,21
12842,0,6e-05,5e-05,0.00011,0.00075,4e-05,3e-05,4e-05,3,21
12843,0,6e-05,5e-05,0.00011,0.00075,4e-05,3e-05,4e-05,3,21
12844,0,6e-05,5e-05,0.00011,0.00075,4e-05,3e-05,4e-05,3,21
12845,0,6e-05,5e-05,0.00011,0.00075,4e-05,3e-05,4e-05,3,21
12846,0,6e-05,5e-05,0.00011,0.00075,4e-05,3e-05,4e-05,3,21
12847,-0.00066,-6e-05,-4e-05,0,4e-05,0.00022,1e-05,-0.00021,3,21
12848,-0.00066,-6e-05,-4e-05,0,4e-05,0.00022,1e-05,-0.00021,3,21
12849,-1e-05,-6e-05,-4e-05,-6e-05,-8e-05,0.00013,4e-05,0,3,21
12850,-1e-05,-6e-05,-4e-05,-6e-05,-8e-05,0.00013,4e-05,0,3,21
12851,-1e-05,-6e-05,-4e-05,-6e-05,-8e-05,0.00013,4e-05,0,3,21
12852,-1e-05,-6e-05,-4e-05,-6e-05,-8e-05,0.00013,4e-05,0,3,21
12853,-1e-05,-6e-05,-4e-05,-6e-05,-8e-05,0.00013,4e-05,0,3,21
12854,-1e-05,-6e-05,-4e-05,-6e-05,-8e-05,0.00013,4e-05,0,3,21
12855,-1e-05,-6e-05,-4e-05,-6e-05,-8e-05,0.00013,4e-05,0,3,21
12856,-1e-05,-6e-05,-4e-05,-6e-05,-8e-05,0.00013,4e-05,0,3,21
12857,-1e-05,-6e-05,-4e-05,-6e-05,-8e-05,0.00013,4e-05,0,3,21
12858,-1e-05,-6e-05,-4e-05,-6e-05,-8e-05,0.00013,4e-05,0,3,21
12859,-1e-05,-6e-05,-4e-05,-6e-05,-8e-05,0.00013,4e-05,0,3,21
12860,-1e-05,-6e-05,-4e-05,-6e-05,-8e-05,0.00013,4e-05,0,3,21
12861,-1e-05,-6e-05,-4e-05,-6e-05,-8e-05,0.00013,4e-05,0,3,21
12862,-1e-05,-6e-05,-4e-05,-6e-05,-8e-05,0.00013,4e-05,0,3,21
12863,-1e-05,-6e-05,-4e-05,-6e-05,-8e-05,0.00013,4e-05,0,3,21
12864,-1e-05,-6e-05,-4e-05,-6e-05,-8e-05,0.00013,4e-05,0,3,21
12865,-1e-05,-6e-05,-4e-05,-6e-05,-8e-05,0.00013,4e-05,0,3,21
12866,-1e-05,-6e-05,-4e-05,-6e-05,-8e-05,0.00013,4e-05,0,3,21
12867,-1e-05,-6e-05,-4e-05,-6e-05,-8e-05,0.00013,4e-05,0,3,21
12868,-1e-05,-6e-05,-4e-05,-6e-05,-8e-05,0.00013,4e-05,0,3,21
12869,-1e-05,-6e-05,-4e-05,-6e-05,-8e-05,0.00013,4e-05,0,3,21
12870,-0.00038,1e-05,0.00014,6e-05,6e-05,-3e-05,5e-05,-2e-05,3,21
12871,2e-05,-0.00015,-9e-05,-0.00015,-0.00046,-0.0003,8e-05,-0.00013,3,21
12872,2e-05,-0.00015,-9e-05,-0.00015,-0.00046,-0.0003,8e-05,-0.00013,3,21
12873,2e-05,-0.00015,-9e-05,-0.00015,-0.00046,-0.0003,8e-05,-0.00013,3,21
12874,2e-05,-0.00015,-9e-05,-0.00015,-0.00046,-0.0003,8e-05,-0.00013,3,21
12875,2e-05,-0.00015,-9e-05,-0.00015,-0.00046,-0.0003,8e-05,-0.00013,3,21
12876,2e-05,-0.00015,-9e-05,-0.00015,-0.00046,-0.0003,8e-05,-0.00013,3,21
12877,2e-05,-0.00015,-9e-05,-0.00015,-0.00046,-0.0003,8e-05,-0.00013,3,21
12878,2e-05,-0.00015,-9e-05,-0.00015,-0.00046,-0.0003,8e-05,-0.00013,3,21
12879,2e-05,-0.00015,-9e-05,-0.00015,-0.00046,-0.0003,8e-05,-0.00013,3,21
12880,2e-05,-0.00015,-9e-05,-0.00015,-0.00046,-0.0003,8e-05,-0.00013,3,21
12881,2e-05,-0.00015,-9e-05,-0.00015,-0.00046,-0.0003,8e-05,-0.00013,3,21
12882,2e-05,-0.00015,-9e-05,-0.00015,-0.00046,-0.0003,8e-05,-0.00013,3,21
12883,0.00084,-5e-05,-5e-05,-5e-05,-0.00044,-9e-05,-2e-05,0.00012,3,21
12884,0.00084,-5e-05,-5e-05,-5e-05,-0.00044,-9e-05,-2e-05,0.00012,3,21
12885,0.00084,-5e-05,-5e-05,-5e-05,-0.00044,-9e-05,-2e-05,0.00012,3,21
12887,0.00084,-5e-05,-5e-05,-5e-05,-0.00044,-9e-05,-2e-05,0.00012,3,21
12889,0.00084,-5e-05,-5e-05,-5e-05,-0.00044,-9e-05,-2e-05,0.00012,3,21
12890,0.00084,-5e-05,-5e-05,-5e-05,-0.00044,-9e-05,-2e-05,0.00012,3,21
12891,0.00084,-5e-05,-5e-05,-5e-05,-0.00044,-9e-05,-2e-05,0.00012,3,21
12892,3e-05,0.00013,0,1e-05,-0.00027,0.00023,4e-05,-2e-05,3,21
12893,3e-05,0.00013,0,1e-05,-0.00027,0.00023,4e-05,-2e-05,3,21
12894,3e-05,0.00013,0,1e-05,-0.00027,0.00023,4e-05,-2e-05,3,21
12895,3e-05,0.00013,0,1e-05,-0.00027,0.00023,4e-05,-2e-05,3,21
12896,3e-05,0.00013,0,1e-05,-0.00027,0.00023,4e-05,-2e-05,3,21
12897,3e-05,0.00013,0,1e-05,-0.00027,0.00023,4e-05,-2e-05,3,21
12898,3e-05,0.00013,0,1e-05,-0.00027,0.00023,4e-05,-2e-05,3,21
12899,3e-05,0.00013,0,1e-05,-0.00027,0.00023,4e-05,-2e-05,3,21
12900,3e-05,0.00013,0,1e-05,-0.00027,0.00023,4e-05,-2e-05,3,21
12901,3e-05,0.00013,0,1e-05,-0.00027,0.00023,4e-05,-2e-05,3,21
12902,3e-05,0.00013,0,1e-05,-0.00027,0.00023,4e-05,-2e-05,3,21
12903,3e-05,0.00013,0,1e-05,-0.00027,0.00023,4e-05,-2e-05,3,21
12904,3e-05,0.00013,0,1e-05,-0.00027,0.00023,4e-05,-2e-05,3,21
12905,3e-05,0.00013,0,1e-05,-0.00027,0.00023,4e-05,-2e-05,3,21
12906,3e-05,0.00013,0,1e-05,-0.00027,0.00023,4e-05,-2e-05,3,21
12907,0.00019,7e-05,-1e-05,-7e-05,-1e-05,-0.0002,9e-05,3e-05,3,21
12908,0.00019,7e-05,-1e-05,-7e-05,-1e-05,-0.0002,9e-05,3e-05,3,21
12909,-0.0002,0,-2e-05,0,0.00025,2e-05,-0.00012,-1e-05,3,21
12910,-0.0002,0,-2e-05,0,0.00025,2e-05,-0.00012,-1e-05,3,21
12911,-0.0002,0,-2e-05,0,0.00025,2e-05,-0.00012,-1e-05,3,21
12912,-0.0002,0,-2e-05,0,0.00025,2e-05,-0.00012,-1e-05,3,21
12913,-0.0002,0,-2e-05,0,0.00025,2e-05,-0.00012,-1e-05,3,21
12914,-0.0002,0,-2e-05,0,0.00025,2e-05,-0.00012,-1e-05,3,21
12915,-0.0002,0,-2e-05,0,0.00025,2e-05,-0.00012,-1e-05,3,21
12916,-0.0002,0,-2e-05,0,0.00025,2e-05,-0.00012,-1e-05,3,21
12917,-0.0002,0,-2e-05,0,0.00025,2e-05,-0.00012,-1e-05,3,21
12918,-0.0002,0,-2e-05,0,0.00025,2e-05,-0.00012,-1e-05,3,21
12919,-0.0002,0,-2e-05,0,0.00025,2e-05,-0.00012,-1e-05,3,21
12920,-0.0002,0,-2e-05,0,0.00025,2e-05,-0.00012,-1e-05,3,21
12921,-0.0002,0,-2e-05,0,0.00025,2e-05,-0.00012,-1e-05,3,21
12922,-0.0002,0,-2e-05,0,0.00025,2e-05,-0.00012,-1e-05,3,21
12923,-0.0002,0,-2e-05,0,0.00025,2e-05,-0.00012,-1e-05,3,21
12924,-0.0002,0,-2e-05,0,0.00025,2e-05,-0.00012,-1e-05,3,21
12925,-0.0002,0,-2e-05,0,0.00025,2e-05,-0.00012,-1e-05,3,21
12926,-0.0002,0,-2e-05,0,0.00025,2e-05,-0.00012,-1e-05,3,21
12927,-0.0002,0,-2e-05,0,0.00025,2e-05,-0.00012,-1e-05,3,21
12928,-0.0002,0,-2e-05,0,0.00025,2e-05,-0.00012,-1e-05,3,21
12929,-0.0002,0,-2e-05,0,0.00025,2e-05,-0.00012,-1e-05,3,21
12930,9e-05,6e-05,-1e-05,8e-05,-0.00023,-0.00018,1e-05,-1e-05,3,21
12931,-0.00036,1e-05,8e-05,0.0001,0.00077,0.00013,0.00011,6e-05,3,21
12932,-0.00036,1e-05,8e-05,0.0001,0.00077,0.00013,0.00011,6e-05,3,21
12933,-0.00036,1e-05,8e-05,0.0001,0.00077,0.00013,0.00011,6e-05,3,21
12934,-0.00036,1e-05,8e-05,0.0001,0.00077,0.00013,0.00011,6e-05,3,21
12935,-0.00036,1e-05,8e-05,0.0001,0.00077,0.00013,0.00011,6e-05,3,21
12937,-0.00036,1e-05,8e-05,0.0001,0.00077,0.00013,0.00011,6e-05,3,21
12939,-0.00036,1e-05,8e-05,0.0001,0.00077,0.00013,0.00011,6e-05,3,21
12940,-0.00036,1e-05,8e-05,0.0001,0.00077,0.00013,0.00011,6e-05,3,21
12941,-0.00036,1e-05,8e-05,0.0001,0.00077,0.00013,0.00011,6e-05,3,21
12942,-0.00036,1e-05,8e-05,0.0001,0.00077,0.00013,0.00011,6e-05,3,21
12943,-5e-05,1e-05,0,-1e-05,-0.00035,-0.00011,-0.00014,-8e-05,3,21
12944,-0.00022,-6e-05,-5e-05,0,-1e-05,7e-05,9e-05,3e-05,3,21
12945,-0.00022,-6e-05,-5e-05,0,-1e-05,7e-05,9e-05,3e-05,3,21
12946,-0.00022,-6e-05,-5e-05,0,-1e-05,7e-05,9e-05,3e-05,3,21
12947,-0.00022,-6e-05,-5e-05,0,-1e-05,7e-05,9e-05,3e-05,3,21
12948,-0.00022,-6e-05,-5e-05,0,-1e-05,7e-05,9e-05,3e-05,3,21
12949,-0.00022,-6e-05,-5e-05,0,-1e-05,7e-05,9e-05,3e-05,3,21
12950,-0.00022,-6e-05,-5e-05,0,-1e-05,7e-05,9e-05,3e-05,3,21
12951,-0.00022,-6e-05,-5e-05,0,-1e-05,7e-05,9e-05,3e-05,3,21
12952,4e-05,-4e-05,-4e-05,-0.0001,-0.00016,-0.00012,-8e-05,-5e-05,3,21
12953,4e-05,-4e-05,-4e-05,-0.0001,-0.00016,-0.00012,-8e-05,-5e-05,3,21
12954,4e-05,-4e-05,-4e-05,-0.0001,-0.00016,-0.00012,-8e-05,-5e-05,3,21
12955,4e-05,-4e-05,-4e-05,-0.0001,-0.00016,-0.00012,-8e-05,-5e-05,3,21
12956,4e-05,-4e-05,-4e-05,-0.0001,-0.00016,-0.00012,-8e-05,-5e-05,3,21
12957,4e-05,-4e-05,-4e-05,-0.0001,-0.00016,-0.00012,-8e-05,-5e-05,3,21
12958,4e-05,-4e-05,-4e-05,-0.0001,-0.00016,-0.00012,-8e-05,-5e-05,3,21
12959,4e-05,-4e-05,-4e-05,-0.0001,-0.00016,-0.00012,-8e-05,-5e-05,3,21
12960,4e-05,-4e-05,-4e-05,-0.0001,-0.00016,-0.00012,-8e-05,-5e-05,3,21
12961,4e-05,-4e-05,-4e-05,-0.0001,-0.00016,-0.00012,-8e-05,-5e-05,3,21
12962,4e-05,-4e-05,-4e-05,-0.0001,-0.00016,-0.00012,-8e-05,-5e-05,3,21
12963,4e-05,-4e-05,-4e-05,-0.0001,-0.00016,-0.00012,-8e-05,-5e-05,3,21
12964,4e-05,-4e-05,-4e-05,-0.0001,-0.00016,-0.00012,-8e-05,-5e-05,3,21
12965,4e-05,-4e-05,-4e-05,-0.0001,-0.00016,-0.00012,-8e-05,-5e-05,3,21
12966,4e-05,-4e-05,-4e-05,-0.0001,-0.00016,-0.00012,-8e-05,-5e-05,3,21
12967,-1e-05,-7e-05,-2e-05,0.00015,0.00028,0.00018,-6e-05,-2e-05,3,21
12968,-1e-05,-7e-05,-2e-05,0.00015,0.00028,0.00018,-6e-05,-2e-05,3,21
12969,-0.00022,-6e-05,-9e-05,-0.0001,-0.00059,-0.00032,-0.00019,1e-05,3,21
12970,-0.00022,-6e-05,-9e-05,-0.0001,-0.00059,-0.00032,-0.00019,1e-05,3,21
12971,-0.00022,-6e-05,-9e-05,-0.0001,-0.00059,-0.00032,-0.00019,1e-05,3,21
12972,-0.00022,-6e-05,-9e-05,-0.0001,-0.00059,-0.00032,-0.00019,1e-05,3,21
12973,-0.00022,-6e-05,-9e-05,-0.0001,-0.00059,-0.00032,-0.00019,1e-05,3,21
12974,-0.00022,-6e-05,-9e-05,-0.0001,-0.00059,-0.00032,-0.00019,1e-05,3,21
12975,-0.00022,-6e-05,-9e-05,-0.0001,-0.00059,-0.00032,-0.00019,1e-05,3,21
12976,-0.00022,-6e-05,-9e-05,-0.0001,-0.00059,-0.00032,-0.00019,1e-05,3,21
12977,-0.00022,-6e-05,-9e-05,-0.0001,-0.00059,-0.00032,-0.00019,1e-05,3,21
12978,-0.00022,-6e-05,-9e-05,-0.0001,-0.00059,-0.00032,-0.00019,1e-05,3,21
12979,-0.00022,-6e-05,-9e-05,-0.0001,-0.00059,-0.00032,-0.00019,1e-05,3,21
12980,-0.00022,-6e-05,-9e-05,-0.0001,-0.00059,-0.00032,-0.00019,1e-05,3,21
12981,-0.00022,-6e-05,-9e-05,-0.0001,-0.00059,-0.00032,-0.00019,1e-05,3,21
12982,-0.00022,-6e-05,-9e-05,-0.0001,-0.00059,-0.00032,-0.00019,1e-05,3,21
12983,-0.00022,-6e-05,-9e-05,-0.0001,-0.00059,-0.00032,-0.00019,1e-05,3,21
12984,-0.00022,-6e-05,-9e-05,-0.0001,-0.00059,-0.00032,-0.00019,1e-05,3,21
12985,-0.00022,-6e-05,-9e-05,-0.0001,-0.00059,-0.00032,-0.00019,1e-05,3,21
12987,-0.00022,-6e-05,-9e-05,-0.0001,-0.00059,-0.00032,-0.00019,1e-05,3,21
12989,-0.00022,-6e-05,-9e-05,-0.0001,-0.00059,-0.00032,-0.00019,1e-05,3,21
12990,0.00057,0.00012,6e-05,3e-05,8e-05,6e-05,0.00012,9e-05,3,21
12991,0.00024,-5e-05,-5e-05,-2e-05,-0.00023,-0.00022,1e-05,-6e-05,3,21
12992,0.00024,-5e-05,-5e-05,-2e-05,-0.00023,-0.00022,1e-05,-6e-05,3,21
12993,0.00024,-5e-05,-5e-05,-2e-05,-0.00023,-0.00022,1e-05,-6e-05,3,21
12994,0.00024,-5e-05,-5e-05,-2e-05,-0.00023,-0.00022,1e-05,-6e-05,3,21
12995,0.00024,-5e-05,-5e-05,-2e-05,-0.00023,-0.00022,1e-05,-6e-05,3,21
12996,0.00024,-5e-05,-5e-05,-2e-05,-0.00023,-0.00022,1e-05,-6e-05,3,21
12997,0.00024,-5e-05,-5e-05,-2e-05,-0.00023,-0.00022,1e-05,-6e-05,3,21
12998,0.00024,-5e-05,-5e-05,-2e-05,-0.00023,-0.00022,1e-05,-6e-05,3,21
12999,0.00024,-5e-05,-5e-05,-2e-05,-0.00023,-0.00022,1e-05,-6e-05,3,21
13000,0.00024,-5e-05,-5e-05,-2e-05,-0.00023,-0.00022,1e-05,-6e-05,3,21
13001,0.00024,-5e-05,-5e-05,-2e-05,-0.00023,-0.00022,1e-05,-6e-05,3,21
13002,0.00024,-5e-05,-5e-05,-2e-05,-0.00023,-0.00022,1e-05,-6e-05,3,21
13003,6e-05,1e-05,-1e-05,-6e-05,0.00026,0.00034,-5e-05,-2e-05,3,21
13004,6e-05,1e-05,-1e-05,-6e-05,0.00026,0.00034,-5e-05,-2e-05,3,21
13005,6e-05,1e-05,-1e-05,-6e-05,0.00026,0.00034,-5e-05,-2e-05,3,21
13006,6e-05,1e-05,-1e-05,-6e-05,0.00026,0.00034,-5e-05,-2e-05,3,21
13007,6e-05,1e-05,-1e-05,-6e-05,0.00026,0.00034,-5e-05,-2e-05,3,21
13008,6e-05,1e-05,-1e-05,-6e-05,0.00026,0.00034,-5e-05,-2e-05,3,21
13009,6e-05,1e-05,-1e-05,-6e-05,0.00026,0.00034,-5e-05,-2e-05,3,21
13010,6e-05,1e-05,-1e-05,-6e-05,0.00026,0.00034,-5e-05,-2e-05,3,21
13011,6e-05,1e-05,-1e-05,-6e-05,0.00026,0.00034,-5e-05,-2e-05,3,21
13012,6e-05,1e-05,-1e-05,-6e-05,0.00026,0.00034,-5e-05,-2e-05,3,21
13013,6e-05,1e-05,-1e-05,-6e-05,0.00026,0.00034,-5e-05,-2e-05,3,21
13014,6e-05,1e-05,-1e-05,-6e-05,0.00026,0.00034,-5e-05,-2e-05,3,21
13015,6e-05,1e-05,-1e-05,-6e-05,0.00026,0.00034,-5e-05,-2e-05,3,21
13016,6e-05,1e-05,-1e-05,-6e-05,0.00026,0.00034,-5e-05,-2e-05,3,21
13017,6e-05,1e-05,-1e-05,-6e-05,0.00026,0.00034,-5e-05,-2e-05,3,21
13018,0.00044,2e-05,-1e-05,-7e-05,-0.00014,-0.00039,-0.00017,2e-05,3,21
13019,0.00044,2e-05,-1e-05,-7e-05,-0.00014,-0.00039,-0.00017,2e-05,3,21
13020,0.00044,2e-05,-1e-05,-7e-05,-0.00014,-0.00039,-0.00017,2e-05,3,21
13021,0.00044,2e-05,-1e-05,-7e-05,-0.00014,-0.00039,-0.00017,2e-05,3,21
13022,0.00044,2e-05,-1e-05,-7e-05,-0.00014,-0.00039,-0.00017,2e-05,3,21
13023,0.00044,2e-05,-1e-05,-7e-05,-0.00014,-0.00039,-0.00017,2e-05,3,21
13024,0.00044,2e-05,-1e-05,-7e-05,-0.00014,-0.00039,-0.00017,2e-05,3,21
13025,0.00044,2e-05,-1e-05,-7e-05,-0.00014,-0.00039,-0.00017,2e-05,3,21
13026,0.00044,2e-05,-1e-05,-7e-05,-0.00014,-0.00039,-0.00017,2e-05,3,21
13027,-0.00037,-7e-05,-9e-05,-0.00025,-0.00067,4e-05,-3e-05,-8e-05,3,21
13028,-0.00037,-7e-05,-9e-05,-0.00025,-0.00067,4e-05,-3e-05,-8e-05,3,21
13029,-0.00042,-6e-05,-7e-05,0,8e-05,0.00021,3e-05,-1e-05,3,21
13030,-0.00042,-6e-05,-7e-05,0,8e-05,0.00021,3e-05,-1e-05,3,21
13031,-0.00042,-6e-05,-7e-05,0,8e-05,0.00021,3e-05,-1e-05,3,21
13032,-0.00042,-6e-05,-7e-05,0,8e-05,0.00021,3e-05,-1e-05,3,21
13033,-0.00042,-6e-05,-7e-05,0,8e-05,0.00021,3e-05,-1e-05,3,21
13034,-0.00042,-6e-05,-7e-05,0,8e-05,0.00021,3e-05,-1e-05,3,21
13035,-0.00042,-6e-05,-7e-05,0,8e-05,0.00021,3e-05,-1e-05,3,21
13037,-0.00042,-6e-05,-7e-05,0,8e-05,0.00021,3e-05,-1e-05,3,21
13039,-0.00042,-6e-05,-7e-05,0,8e-05,0.00021,3e-05,-1e-05,3,21
13040,-0.00042,-6e-05,-7e-05,0,8e-05,0.00021,3e-05,-1e-05,3,21
13041,-0.00042,-6e-05,-7e-05,0,8e-05,0.00021,3e-05,-1e-05,3,21
13042,-0.00042,-6e-05,-7e-05,0,8e-05,0.00021,3e-05,-1e-05,3,21
13043,-0.00042,-6e-05,-7e-05,0,8e-05,0.00021,3e-05,-1e-05,3,21
13044,-0.00042,-6e-05,-7e-05,0,8e-05,0.00021,3e-05,-1e-05,3,21
13045,-0.00042,-6e-05,-7e-05,0,8e-05,0.00021,3e-05,-1e-05,3,21
13046,-0.00042,-6e-05,-7e-05,0,8e-05,0.00021,3e-05,-1e-05,3,21
13047,-0.00042,-6e-05,-7e-05,0,8e-05,0.00021,3e-05,-1e-05,3,21
13048,-0.00042,-6e-05,-7e-05,0,8e-05,0.00021,3e-05,-1e-05,3,21
13049,-0.00042,-6e-05,-7e-05,0,8e-05,0.00021,3e-05,-1e-05,3,21
13050,0.00011,4e-05,0,-3e-05,5e-05,-0.00037,-0.00012,8e-05,3,21
13051,0.00031,5e-05,9e-05,6e-05,-0.00011,0.00014,-0.00011,-3e-05,3,21
13052,0.00031,5e-05,9e-05,6e-05,-0.00011,0.00014,-0.00011,-3e-05,3,21
13053,0.00031,5e-05,9e-05,6e-05,-0.00011,0.00014,-0.00011,-3e-05,3,21
13054,0.00031,5e-05,9e-05,6e-05,-0.00011,0.00014,-0.00011,-3e-05,3,21
13055,0.00031,5e-05,9e-05,6e-05,-0.00011,0.00014,-0.00011,-3e-05,3,21
13056,0.00031,5e-05,9e-05,6e-05,-0.00011,0.00014,-0.00011,-3e-05,3,21
13057,0.00031,5e-05,9e-05,6e-05,-0.00011,0.00014,-0.00011,-3e-05,3,21
13058,0.00031,5e-05,9e-05,6e-05,-0.00011,0.00014,-0.00011,-3e-05,3,21
13059,0.00031,5e-05,9e-05,6e-05,-0.00011,0.00014,-0.00011,-3e-05,3,21
13060,0.00031,5e-05,9e-05,6e-05,-0.00011,0.00014,-0.00011,-3e-05,3,21
13061,0.00031,5e-05,9e-05,6e-05,-0.00011,0.00014,-0.00011,-3e-05,3,21
13062,0.00031,5e-05,9e-05,6e-05,-0.00011,0.00014,-0.00011,-3e-05,3,21
13063,-0.00013,-5e-05,0,-2e-05,-0.00017,-0.00047,-7e-05,-6e-05,3,21
13064,-0.00013,-5e-05,0,-2e-05,-0.00017,-0.00047,-7e-05,-6e-05,3,21
13065,-0.00013,-5e-05,0,-2e-05,-0.00017,-0.00047,-7e-05,-6e-05,3,21
13066,-0.00013,-5e-05,0,-2e-05,-0.00017,-0.00047,-7e-05,-6e-05,3,21
13067,-0.00013,-5e-05,0,-2e-05,-0.00017,-0.00047,-7e-05,-6e-05,3,21
13068,-0.00013,-5e-05,0,-2e-05,-0.00017,-0.00047,-7e-05,-6e-05,3,21
13069,-0.00013,-5e-05,0,-2e-05,-0.00017,-0.00047,-7e-05,-6e-05,3,21
13070,-0.00013,-5e-05,0,-2e-05,-0.00017,-0.00047,-7e-05,-6e-05,3,21
13071,-0.00013,-5e-05,0,-2e-05,-0.00017,-0.00047,-7e-05,-6e-05,3,21
13072,-0.00011,0,2e-05,8e-05,0.00012,-0.00013,0.00011,0,3,21
13073,-0.00011,0,2e-05,8e-05,0.00012,-0.00013,0.00011,0,3,21
13074,-0.00011,0,2e-05,8e-05,0.00012,-0.00013,0.00011,0,3,21
13075,-0.00011,0,2e-05,8e-05,0.00012,-0.00013,0.00011,0,3,21
13076,-0.00011,0,2e-05,8e-05,0.00012,-0.00013,0.00011,0,3,21
13077,-0.00011,0,2e-05,8e-05,0.00012,-0.00013,0.00011,0,3,21
13078,-0.00011,0,2e-05,8e-05,0.00012,-0.00013,0.00011,0,3,21
13079,-0.00011,0,2e-05,8e-05,0.00012,-0.00013,0.00011,0,3,21
13080,-0.00011,0,2e-05,8e-05,0.00012,-0.00013,0.00011,0,3,21
13081,-0.00011,0,2e-05,8e-05,0.00012,-0.00013,0.00011,0,3,21
13082,-0.00011,0,2e-05,8e-05,0.00012,-0.00013,0.00011,0,3,21
13083,-0.00011,0,2e-05,8e-05,0.00012,-0.00013,0.00011,0,3,21
13084,-0.00011,0,2e-05,8e-05,0.00012,-0.00013,0.00011,0,3,21
13085,-0.00011,0,2e-05,8e-05,0.00012,-0.00013,0.00011,0,3,21
13087,-1e-05,-7e-05,-5e-05,2e-05,0.00011,0,-7e-05,-0.00012,3,21
13089,-0.00047,-6e-05,-3e-05,-9e-05,0.00036,9e-05,-6e-05,-5e-05,3,21
13090,-0.00047,-6e-05,-3e-05,-9e-05,0.00036,9e-05,-6e-05,-5e-05,3,21
13091,-0.00047,-6e-05,-3e-05,-9e-05,0.00036,9e-05,-6e-05,-5e-05,3,21
13092,-0.00047,-6e-05,-3e-05,-9e-05,0.00036,9e-05,-6e-05,-5e-05,3,21
13093,-0.00047,-6e-05,-3e-05,-9e-05,0.00036,9e-05,-6e-05,-5e-05,3,21
13094,-0.00047,-6e-05,-3e-05,-9e-05,0.00036,9e-05,-6e-05,-5e-05,3,21
13095,-0.00047,-6e-05,-3e-05,-9e-05,0.00036,9e-05,-6e-05,-5e-05,3,21
13096,-0.00047,-6e-05,-3e-05,-9e-05,0.00036,9e-05,-6e-05,-5e-05,3,21
13097,-0.00047,-6e-05,-3e-05,-9e-05,0.00036,9e-05,-6e-05,-5e-05,3,21
13098,-0.00047,-6e-05,-3e-05,-9e-05,0.00036,9e-05,-6e-05,-5e-05,3,21
13099,-0.00047,-6e-05,-3e-05,-9e-05,0.00036,9e-05,-6e-05,-5e-05,3,21
13100,-0.00047,-6e-05,-3e-05,-9e-05,0.00036,9e-05,-6e-05,-5e-05,3,21
13101,-0.00047,-6e-05,-3e-05,-9e-05,0.00036,9e-05,-6e-05,-5e-05,3,21
13102,-0.00047,-6e-05,-3e-05,-9e-05,0.00036,9e-05,-6e-05,-5e-05,3,21
13103,-0.00047,-6e-05,-3e-05,-9e-05,0.00036,9e-05,-6e-05,-5e-05,3,21
13104,-0.00047,-6e-05,-3e-05,-9e-05,0.00036,9e-05,-6e-05,-5e-05,3,21
13105,-0.00047,-6e-05,-3e-05,-9e-05,0.00036,9e-05,-6e-05,-5e-05,3,21
13106,-0.00047,-6e-05,-3e-05,-9e-05,0.00036,9e-05,-6e-05,-5e-05,3,21
13107,-0.00047,-6e-05,-3e-05,-9e-05,0.00036,9e-05,-6e-05,-5e-05,3,21
13108,-0.00047,-6e-05,-3e-05,-9e-05,0.00036,9e-05,-6e-05,-5e-05,3,21
13109,-0.00047,-6e-05,-3e-05,-9e-05,0.00036,9e-05,-6e-05,-5e-05,3,21
13110,-0.00045,-3e-05,-5e-05,-2e-05,0.00012,0.00012,-8e-05,-5e-05,3,21
13111,-0.00014,1e-05,4e-05,0.00017,0.00028,-0.00016,-1e-05,-4e-05,3,21
13112,0.00027,3e-05,-1e-05,-3e-05,-0.0002,0.00022,0.00015,-2e-05,3,21
13113,0.00027,3e-05,-1e-05,-3e-05,-0.0002,0.00022,0.00015,-2e-05,3,21
13114,0.00027,3e-05,-1e-05,-3e-05,-0.0002,0.00022,0.00015,-2e-05,3,21
13115,0.00027,3e-05,-1e-05,-3e-05,-0.0002,0.00022,0.00015,-2e-05,3,21
13116,0.00027,3e-05,-1e-05,-3e-05,-0.0002,0.00022,0.00015,-2e-05,3,21
13117,0.00027,3e-05,-1e-05,-3e-05,-0.0002,0.00022,0.00015,-2e-05,3,21
13118,0.00027,3e-05,-1e-05,-3e-05,-0.0002,0.00022,0.00015,-2e-05,3,21
13119,0.00027,3e-05,-1e-05,-3e-05,-0.0002,0.00022,0.00015,-2e-05,3,21
13120,0.00027,3e-05,-1e-05,-3e-05,-0.0002,0.00022,0.00015,-2e-05,3,21
13121,0.00027,3e-05,-1e-05,-3e-05,-0.0002,0.00022,0.00015,-2e-05,3,21
13122,0.00027,3e-05,-1e-05,-3e-05,-0.0002,0.00022,0.00015,-2e-05,3,21
13123,0.00027,3e-05,-1e-05,-3e-05,-0.0002,0.00022,0.00015,-2e-05,3,21
13124,0.00027,3e-05,-1e-05,-3e-05,-0.0002,0.00022,0.00015,-2e-05,3,21
13125,0.00027,3e-05,-1e-05,-3e-05,-0.0002,0.00022,0.00015,-2e-05,3,21
13126,0.00027,3e-05,-1e-05,-3e-05,-0.0002,0.00022,0.00015,-2e-05,3,21
13127,0.00027,3e-05,-1e-05,-3e-05,-0.0002,0.00022,0.00015,-2e-05,3,21
13128,0.00027,3e-05,-1e-05,-3e-05,-0.0002,0.00022,0.00015,-2e-05,3,21
13129,0.00027,3e-05,-1e-05,-3e-05,-0.0002,0.00022,0.00015,-2e-05,3,21
13130,0.00027,3e-05,-1e-05,-3e-05,-0.0002,0.00022,0.00015,-2e-05,3,21
13131,0.00027,3e-05,-1e-05,-3e-05,-0.0002,0.00022,0.00015,-2e-05,3,21
13132,9e-05,-2e-05,-1e-05,-4e-05,-8e-05,-8e-05,-5e-05,-7e-05,3,21
13133,9e-05,-2e-05,-1e-05,-4e-05,-8e-05,-8e-05,-5e-05,-7e-05,3,21
13134,0.0003,-1e-05,1e-05,-4e-05,-0.00018,0,9e-05,7e-05,3,21
13135,0.0003,-1e-05,1e-05,-4e-05,-0.00018,0,9e-05,7e-05,3,21
13137,0.0003,-1e-05,1e-05,-4e-05,-0.00018,0,9e-05,7e-05,3,21
13139,0.0003,-1e-05,1e-05,-4e-05,-0.00018,0,9e-05,7e-05,3,21
13140,0.0003,-1e-05,1e-05,-4e-05,-0.00018,0,9e-05,7e-05,3,21
13141,0.0003,-1e-05,1e-05,-4e-05,-0.00018,0,9e-05,7e-05,3,21
13142,0.0003,-1e-05,1e-05,-4e-05,-0.00018,0,9e-05,7e-05,3,21
13143,0.0003,-1e-05,1e-05,-4e-05,-0.00018,0,9e-05,7e-05,3,21
13144,0.0003,-1e-05,1e-05,-4e-05,-0.00018,0,9e-05,7e-05,3,21
13145,0.0003,-1e-05,1e-05,-4e-05,-0.00018,0,9e-05,7e-05,3,21
13146,0.0003,-1e-05,1e-05,-4e-05,-0.00018,0,9e-05,7e-05,3,21
13147,0.00038,5e-05,2e-05,4e-05,7e-05,0.0001,-2e-05,4e-05,3,21
13148,0.00038,5e-05,2e-05,4e-05,7e-05,0.0001,-2e-05,4e-05,3,21
13149,0.00018,-2e-05,-5e-05,-5e-05,-0.0005,-0.00031,-8e-05,1e-05,3,21
13150,0.00018,-2e-05,-5e-05,-5e-05,-0.0005,-0.00031,-8e-05,1e-05,3,21
13151,0.00018,-2e-05,-5e-05,-5e-05,-0.0005,-0.00031,-8e-05,1e-05,3,21
13152,0.00018,-2e-05,-5e-05,-5e-05,-0.0005,-0.00031,-8e-05,1e-05,3,21
13153,0.00018,-2e-05,-5e-05,-5e-05,-0.0005,-0.00031,-8e-05,1e-05,3,21
13154,0.00018,-2e-05,-5e-05,-5e-05,-0.0005,-0.00031,-8e-05,1e-05,3,21
13155,0.00018,-2e-05,-5e-05,-5e-05,-0.0005,-0.00031,-8e-05,1e-05,3,21
13156,0.00018,-2e-05,-5e-05,-5e-05,-0.0005,-0.00031,-8e-05,1e-05,3,21
13157,0.00018,-2e-05,-5e-05,-5e-05,-0.0005,-0.00031,-8e-05,1e-05,3,21
13158,0.00018,-2e-05,-5e-05,-5e-05,-0.0005,-0.00031,-8e-05,1e-05,3,21
13159,0.00018,-2e-05,-5e-05,-5e-05,-0.0005,-0.00031,-8e-05,1e-05,3,21
13160,0.00018,-2e-05,-5e-05,-5e-05,-0.0005,-0.00031,-8e-05,1e-05,3,21
13161,0.00018,-2e-05,-5e-05,-5e-05,-0.0005,-0.00031,-8e-05,1e-05,3,21
13162,0.00018,-2e-05,-5e-05,-5e-05,-0.0005,-0.00031,-8e-05,1e-05,3,21
13163,0.00018,-2e-05,-5e-05,-5e-05,-0.0005,-0.00031,-8e-05,1e-05,3,21
13164,0.00018,-2e-05,-5e-05,-5e-05,-0.0005,-0.00031,-8e-05,1e-05,3,21
13165,0.00018,-2e-05,-5e-05,-5e-05,-0.0005,-0.00031,-8e-05,1e-05,3,21
13166,0.00018,-2e-05,-5e-05,-5e-05,-0.0005,-0.00031,-8e-05,1e-05,3,21
13167,0.00018,-2e-05,-5e-05,-5e-05,-0.0005,-0.00031,-8e-05,1e-05,3,21
13168,0.00018,-2e-05,-5e-05,-5e-05,-0.0005,-0.00031,-8e-05,1e-05,3,21
13169,-8e-05,-2e-05,-3e-05,-0.00016,0.00012,0.00068,0.00011,-4e-05,3,21
13170,0.00045,6e-05,3e-05,7e-05,-0.00028,-0.00093,-4e-05,-4e-05,3,21
13171,7e-05,5e-05,1e-05,-0.00015,-0.00017,-0.00034,-4e-05,3e-05,3,21
13172,7e-05,5e-05,1e-05,-0.00015,-0.00017,-0.00034,-4e-05,3e-05,3,21
13173,7e-05,5e-05,1e-05,-0.00015,-0.00017,-0.00034,-4e-05,3e-05,3,21
13174,7e-05,5e-05,1e-05,-0.00015,-0.00017,-0.00034,-4e-05,3e-05,3,21
13175,7e-05,5e-05,1e-05,-0.00015,-0.00017,-0.00034,-4e-05,3e-05,3,21
13176,7e-05,5e-05,1e-05,-0.00015,-0.00017,-0.00034,-4e-05,3e-05,3,21
13177,7e-05,5e-05,1e-05,-0.00015,-0.00017,-0.00034,-4e-05,3e-05,3,21
13178,7e-05,5e-05,1e-05,-0.00015,-0.00017,-0.00034,-4e-05,3e-05,3,21
13179,7e-05,5e-05,1e-05,-0.00015,-0.00017,-0.00034,-4e-05,3e-05,3,21
13180,7e-05,5e-05,1e-05,-0.00015,-0.00017,-0.00034,-4e-05,3e-05,3,21
13181,7e-05,5e-05,1e-05,-0.00015,-0.00017,-0.00034,-4e-05,3e-05,3,21
13182,7e-05,5e-05,1e-05,-0.00015,-0.00017,-0.00034,-4e-05,3e-05,3,21
13183,7e-05,5e-05,1e-05,-0.00015,-0.00017,-0.00034,-4e-05,3e-05,3,21
13184,7e-05,5e-05,1e-05,-0.00015,-0.00017,-0.00034,-4e-05,3e-05,3,21
13185,7e-05,5e-05,1e-05,-0.00015,-0.00017,-0.00034,-4e-05,3e-05,3,21
13187,7e-05,5e-05,1e-05,-0.00015,-0.00017,-0.00034,-4e-05,3e-05,3,21
13189,7e-05,5e-05,1e-05,-0.00015,-0.00017,-0.00034,-4e-05,3e-05,3,21
13190,7e-05,5e-05,1e-05,-0.00015,-0.00017,-0.00034,-4e-05,3e-05,3,21
13191,7e-05,5e-05,1e-05,-0.00015,-0.00017,-0.00034,-4e-05,3e-05,3,21
13192,4e-05,-1e-05,-5e-05,-2e-05,0.00011,0.00014,4e-05,0.00013,3,21
13193,4e-05,-1e-05,-5e-05,-2e-05,0.00011,0.00014,4e-05,0.00013,3,21
13194,4e-05,2e-05,3e-05,0.00011,0.00045,-0.00016,1e-05,1e-05,3,21
13195,4e-05,2e-05,3e-05,0.00011,0.00045,-0.00016,1e-05,1e-05,3,21
13196,4e-05,2e-05,3e-05,0.00011,0.00045,-0.00016,1e-05,1e-05,3,21
13197,4e-05,2e-05,3e-05,0.00011,0.00045,-0.00016,1e-05,1e-05,3,21
13198,4e-05,2e-05,3e-05,0.00011,0.00045,-0.00016,1e-05,1e-05,3,21
13199,4e-05,2e-05,3e-05,0.00011,0.00045,-0.00016,1e-05,1e-05,3,21
13200,4e-05,2e-05,3e-05,0.00011,0.00045,-0.00016,1e-05,1e-05,3,21
13201,4e-05,2e-05,3e-05,0.00011,0.00045,-0.00016,1e-05,1e-05,3,21
13202,4e-05,2e-05,3e-05,0.00011,0.00045,-0.00016,1e-05,1e-05,3,21
13203,4e-05,2e-05,3e-05,0.00011,0.00045,-0.00016,1e-05,1e-05,3,21
13204,4e-05,2e-05,3e-05,0.00011,0.00045,-0.00016,1e-05,1e-05,3,21
13205,4e-05,2e-05,3e-05,0.00011,0.00045,-0.00016,1e-05,1e-05,3,21
13206,4e-05,2e-05,3e-05,0.00011,0.00045,-0.00016,1e-05,1e-05,3,21
13207,-0.00032,4e-05,2e-05,-5e-05,-1e-05,0.00067,0.00021,4e-05,3,21
13208,-0.00032,4e-05,2e-05,-5e-05,-1e-05,0.00067,0.00021,4e-05,3,21
13209,0.00043,-1e-05,-2e-05,4e-05,-9e-05,6e-05,-6e-05,3e-05,3,21
13210,0.00043,-1e-05,-2e-05,4e-05,-9e-05,6e-05,-6e-05,3e-05,3,21
13211,0.00043,-1e-05,-2e-05,4e-05,-9e-05,6e-05,-6e-05,3e-05,3,21
13212,0.00043,-1e-05,-2e-05,4e-05,-9e-05,6e-05,-6e-05,3e-05,3,21
13213,0.00043,-1e-05,-2e-05,4e-05,-9e-05,6e-05,-6e-05,3e-05,3,21
13214,0.00043,-1e-05,-2e-05,4e-05,-9e-05,6e-05,-6e-05,3e-05,3,21
13215,0.00043,-1e-05,-2e-05,4e-05,-9e-05,6e-05,-6e-05,3e-05,3,21
13216,0.00043,-1e-05,-2e-05,4e-05,-9e-05,6e-05,-6e-05,3e-05,3,21
13217,0.00043,-1e-05,-2e-05,4e-05,-9e-05,6e-05,-6e-05,3e-05,3,21
13218,0.00043,-1e-05,-2e-05,4e-05,-9e-05,6e-05,-6e-05,3e-05,3,21
13219,0.00043,-1e-05,-2e-05,4e-05,-9e-05,6e-05,-6e-05,3e-05,3,21
13220,0.00043,-1e-05,-2e-05,4e-05,-9e-05,6e-05,-6e-05,3e-05,3,21
13221,0.00043,-1e-05,-2e-05,4e-05,-9e-05,6e-05,-6e-05,3e-05,3,21
13222,0.00043,-1e-05,-2e-05,4e-05,-9e-05,6e-05,-6e-05,3e-05,3,21
13223,0.00043,-1e-05,-2e-05,4e-05,-9e-05,6e-05,-6e-05,3e-05,3,21
13224,0.00043,-1e-05,-2e-05,4e-05,-9e-05,6e-05,-6e-05,3e-05,3,21
13225,0.00043,-1e-05,-2e-05,4e-05,-9e-05,6e-05,-6e-05,3e-05,3,21
13226,0.00043,-1e-05,-2e-05,4e-05,-9e-05,6e-05,-6e-05,3e-05,3,21
13227,0.00043,-1e-05,-2e-05,4e-05,-9e-05,6e-05,-6e-05,3e-05,3,21
13228,0.00043,-1e-05,-2e-05,4e-05,-9e-05,6e-05,-6e-05,3e-05,3,21
13229,0.00043,-1e-05,-2e-05,4e-05,-9e-05,6e-05,-6e-05,3e-05,3,21
13230,0.00043,-1e-05,-2e-05,4e-05,-9e-05,6e-05,-6e-05,3e-05,3,21
13231,0.00033,1e-05,-2e-05,-7e-05,6e-05,-0.00036,-9e-05,-1e-05,3,21
13232,-0.00041,-5e-05,1e-05,5e-05,0.0008,0.00036,8e-05,-8e-05,3,21
13233,-0.00041,-5e-05,1e-05,5e-05,0.0008,0.00036,8e-05,-8e-05,3,21
13234,-0.00041,-5e-05,1e-05,5e-05,0.0008,0.00036,8e-05,-8e-05,3,21
13235,-0.00041,-5e-05,1e-05,5e-05,0.0008,0.00036,8e-05,-8e-05,3,21
13237,-0.00041,-5e-05,1e-05,5e-05,0.0008,0.00036,8e-05,-8e-05,3,21
13239,-0.00041,-5e-05,1e-05,5e-05,0.0008,0.00036,8e-05,-8e-05,3,21
13240,-0.00041,-5e-05,1e-05,5e-05,0.0008,0.00036,8e-05,-8e-05,3,21
13241,-0.00041,-5e-05,1e-05,5e-05,0.0008,0.00036,8e-05,-8e-05,3,21
13242,-0.00041,-5e-05,1e-05,5e-05,0.0008,0.00036,8e-05,-8e-05,3,21
13243,-0.00041,-5e-05,1e-05,5e-05,0.0008,0.00036,8e-05,-8e-05,3,21
13244,-0.00041,-5e-05,1e-05,5e-05,0.0008,0.00036,8e-05,-8e-05,3,21
13245,-0.00041,-5e-05,1e-05,5e-05,0.0008,0.00036,8e-05,-8e-05,3,21
13246,-0.00041,-5e-05,1e-05,5e-05,0.0008,0.00036,8e-05,-8e-05,3,21
13247,-0.00041,-5e-05,1e-05,5e-05,0.0008,0.00036,8e-05,-8e-05,3,21
13248,-0.00041,-5e-05,1e-05,5e-05,0.0008,0.00036,8e-05,-8e-05,3,21
13249,-0.00041,-5e-05,1e-05,5e-05,0.0008,0.00036,8e-05,-8e-05,3,21
13250,-0.00041,-5e-05,1e-05,5e-05,0.0008,0.00036,8e-05,-8e-05,3,21
13251,-0.00041,-5e-05,1e-05,5e-05,0.0008,0.00036,8e-05,-8e-05,3,21
13252,-9e-05,-4e-05,-3e-05,3e-05,8e-05,9e-05,2e-05,-4e-05,3,21
13253,-9e-05,-4e-05,-3e-05,3e-05,8e-05,9e-05,2e-05,-4e-05,3,21
13254,0.00023,0,2e-05,9e-05,5e-05,1e-05,-0.00016,1e-05,3,21
13255,0.00023,0,2e-05,9e-05,5e-05,1e-05,-0.00016,1e-05,3,21
13256,0.00023,0,2e-05,9e-05,5e-05,1e-05,-0.00016,1e-05,3,21
13257,0.00023,0,2e-05,9e-05,5e-05,1e-05,-0.00016,1e-05,3,21
13258,0.00023,0,2e-05,9e-05,5e-05,1e-05,-0.00016,1e-05,3,21
13259,0.00023,0,2e-05,9e-05,5e-05,1e-05,-0.00016,1e-05,3,21
13260,0.00023,0,2e-05,9e-05,5e-05,1e-05,-0.00016,1e-05,3,21
13261,0.00023,0,2e-05,9e-05,5e-05,1e-05,-0.00016,1e-05,3,21
13262,0.00023,0,2e-05,9e-05,5e-05,1e-05,-0.00016,1e-05,3,21
13263,0.00023,0,2e-05,9e-05,5e-05,1e-05,-0.00016,1e-05,3,21
13264,0.00023,0,2e-05,9e-05,5e-05,1e-05,-0.00016,1e-05,3,21
13265,0.00023,0,2e-05,9e-05,5e-05,1e-05,-0.00016,1e-05,3,21
13266,-0.00013,0,-2e-05,0.00013,0.00073,0.0002,-1e-05,9e-05,3,21
13267,-0.00013,0,-2e-05,0.00013,0.00073,0.0002,-1e-05,9e-05,3,21
13268,-0.00013,0,-2e-05,0.00013,0.00073,0.0002,-1e-05,9e-05,3,21
13271,-0.00013,0,-2e-05,0.00013,0.00073,0.0002,-1e-05,9e-05,3,21
13272,-0.00013,0,-2e-05,0.00013,0.00073,0.0002,-1e-05,9e-05,3,21
13273,2e-05,2e-05,3e-05,0,0.00011,7e-05,-2e-05,0,3,21
13274,2e-05,2e-05,3e-05,0,0.00011,7e-05,-2e-05,0,3,21
13275,2e-05,2e-05,3e-05,0,0.00011,7e-05,-2e-05,0,3,21
13276,2e-05,2e-05,3e-05,0,0.00011,7e-05,-2e-05,0,3,21
13277,2e-05,2e-05,3e-05,0,0.00011,7e-05,-2e-05,0,3,21
13278,2e-05,2e-05,3e-05,0,0.00011,7e-05,-2e-05,0,3,21
13279,2e-05,2e-05,3e-05,0,0.00011,7e-05,-2e-05,0,3,21
13280,2e-05,2e-05,3e-05,0,0.00011,7e-05,-2e-05,0,3,21
13281,2e-05,2e-05,3e-05,0,0.00011,7e-05,-2e-05,0,3,21
13282,2e-05,2e-05,3e-05,0,0.00011,7e-05,-2e-05,0,3,21
13283,2e-05,2e-05,3e-05,0,0.00011,7e-05,-2e-05,0,3,21
13284,2e-05,2e-05,3e-05,0,0.00011,7e-05,-2e-05,0,3,21
13285,2e-05,2e-05,3e-05,0,0.00011,7e-05,-2e-05,0,3,21
13286,2e-05,2e-05,3e-05,0,0.00011,7e-05,-2e-05,0,3,21
13288,2e-05,2e-05,3e-05,0,0.00011,7e-05,-2e-05,0,3,21
13289,2e-05,2e-05,3e-05,0,0.00011,7e-05,-2e-05,0,3,21
13290,-0.00015,-8e-05,0,9e-05,-5e-05,0.0004,0,-5e-05,3,21
13291,0.00035,-4e-05,1e-05,3e-05,-0.0002,-0.0002,-3e-05,-3e-05,3,21
13292,0.00035,-4e-05,1e-05,3e-05,-0.0002,-0.0002,-3e-05,-3e-05,3,21
13293,0.00035,-4e-05,1e-05,3e-05,-0.0002,-0.0002,-3e-05,-3e-05,3,21
13294,0.00035,-4e-05,1e-05,3e-05,-0.0002,-0.0002,-3e-05,-3e-05,3,21
13295,0.00035,-4e-05,1e-05,3e-05,-0.0002,-0.0002,-3e-05,-3e-05,3,21
13296,0.00035,-4e-05,1e-05,3e-05,-0.0002,-0.0002,-3e-05,-3e-05,3,21
13297,0.00035,-4e-05,1e-05,3e-05,-0.0002,-0.0002,-3e-05,-3e-05,3,21
13298,0.00035,-4e-05,1e-05,3e-05,-0.0002,-0.0002,-3e-05,-3e-05,3,21
13299,0.00035,-4e-05,1e-05,3e-05,-0.0002,-0.0002,-3e-05,-3e-05,3,21
13300,0.00035,-4e-05,1e-05,3e-05,-0.0002,-0.0002,-3e-05,-3e-05,3,21
13301,0.00035,-4e-05,1e-05,3e-05,-0.0002,-0.0002,-3e-05,-3e-05,3,21
13302,0.00035,-4e-05,1e-05,3e-05,-0.0002,-0.0002,-3e-05,-3e-05,3,21
13303,0.00035,-4e-05,1e-05,3e-05,-0.0002,-0.0002,-3e-05,-3e-05,3,21
13304,0.00035,-4e-05,1e-05,3e-05,-0.0002,-0.0002,-3e-05,-3e-05,3,21
13305,0.00035,-4e-05,1e-05,3e-05,-0.0002,-0.0002,-3e-05,-3e-05,3,21
13306,0.00035,-4e-05,1e-05,3e-05,-0.0002,-0.0002,-3e-05,-3e-05,3,21
13307,0.00035,-4e-05,1e-05,3e-05,-0.0002,-0.0002,-3e-05,-3e-05,3,21
13308,0.00035,-4e-05,1e-05,3e-05,-0.0002,-0.0002,-3e-05,-3e-05,3,21
13309,0.00035,-4e-05,1e-05,3e-05,-0.0002,-0.0002,-3e-05,-3e-05,3,21
13310,0.00035,-4e-05,1e-05,3e-05,-0.0002,-0.0002,-3e-05,-3e-05,3,21
13311,0.00035,-4e-05,1e-05,3e-05,-0.0002,-0.0002,-3e-05,-3e-05,3,21
13312,-0.00021,-3e-05,-2e-05,-0.0003,-0.00026,-0.0001,-3e-05,-7e-05,3,21
13313,-0.00021,-3e-05,-2e-05,-0.0003,-0.00026,-0.0001,-3e-05,-7e-05,3,21
13314,-6e-05,1e-05,3e-05,8e-05,-7e-05,0.00075,0.00011,-2e-05,3,21
13315,-6e-05,1e-05,3e-05,8e-05,-7e-05,0.00075,0.00011,-2e-05,3,21
13316,-6e-05,1e-05,3e-05,8e-05,-7e-05,0.00075,0.00011,-2e-05,3,21
13317,-6e-05,1e-05,3e-05,8e-05,-7e-05,0.00075,0.00011,-2e-05,3,21
13318,-6e-05,1e-05,3e-05,8e-05,-7e-05,0.00075,0.00011,-2e-05,3,21
13319,-6e-05,1e-05,3e-05,8e-05,-7e-05,0.00075,0.00011,-2e-05,3,21
13320,-6e-05,1e-05,3e-05,8e-05,-7e-05,0.00075,0.00011,-2e-05,3,21
13321,-6e-05,1e-05,3e-05,8e-05,-7e-05,0.00075,0.00011,-2e-05,3,21
13322,-6e-05,1e-05,3e-05,8e-05,-7e-05,0.00075,0.00011,-2e-05,3,21
13323,-6e-05,1e-05,3e-05,8e-05,-7e-05,0.00075,0.00011,-2e-05,3,21
13324,-6e-05,1e-05,3e-05,8e-05,-7e-05,0.00075,0.00011,-2e-05,3,21
13325,-6e-05,1e-05,3e-05,8e-05,-7e-05,0.00075,0.00011,-2e-05,3,21
13326,0.00034,8e-05,1e-05,-5e-05,-0.00022,0.0001,5e-05,6e-05,3,21
13327,0.00034,8e-05,1e-05,-5e-05,-0.00022,0.0001,5e-05,6e-05,3,21
13328,0.00034,8e-05,1e-05,-5e-05,-0.00022,0.0001,5e-05,6e-05,3,21
13329,0.00034,8e-05,1e-05,-5e-05,-0.00022,0.0001,5e-05,6e-05,3,21
13330,0.00034,8e-05,1e-05,-5e-05,-0.00022,0.0001,5e-05,6e-05,3,21
13331,0.00034,8e-05,1e-05,-5e-05,-0.00022,0.0001,5e-05,6e-05,3,21
13332,0.00034,8e-05,1e-05,-5e-05,-0.00022,0.0001,5e-05,6e-05,3,21
13333,-7e-05,-5e-05,-5e-05,-7e-05,-0.00011,-0.00041,1e-05,-2e-05,3,21
13334,-7e-05,-5e-05,-5e-05,-7e-05,-0.00011,-0.00041,1e-05,-2e-05,3,21
13335,-7e-05,-5e-05,-5e-05,-7e-05,-0.00011,-0.00041,1e-05,-2e-05,3,21
13336,-7e-05,-5e-05,-5e-05,-7e-05,-0.00011,-0.00041,1e-05,-2e-05,3,21
13338,-7e-05,-5e-05,-5e-05,-7e-05,-0.00011,-0.00041,1e-05,-2e-05,3,21
13339,-7e-05,-5e-05,-5e-05,-7e-05,-0.00011,-0.00041,1e-05,-2e-05,3,21
13340,-7e-05,-5e-05,-5e-05,-7e-05,-0.00011,-0.00041,1e-05,-2e-05,3,21
13341,-7e-05,-5e-05,-5e-05,-7e-05,-0.00011,-0.00041,1e-05,-2e-05,3,21
13342,-7e-05,-5e-05,-5e-05,-7e-05,-0.00011,-0.00041,1e-05,-2e-05,3,21
13343,-7e-05,-5e-05,-5e-05,-7e-05,-0.00011,-0.00041,1e-05,-2e-05,3,21
13344,-7e-05,-5e-05,-5e-05,-7e-05,-0.00011,-0.00041,1e-05,-2e-05,3,21
13345,-7e-05,-5e-05,-5e-05,-7e-05,-0.00011,-0.00041,1e-05,-2e-05,3,21
13346,-7e-05,-5e-05,-5e-05,-7e-05,-0.00011,-0.00041,1e-05,-2e-05,3,21
13347,-7e-05,-5e-05,-5e-05,-7e-05,-0.00011,-0.00041,1e-05,-2e-05,3,21
13348,-7e-05,-5e-05,-5e-05,-7e-05,-0.00011,-0.00041,1e-05,-2e-05,3,21
13349,-0.00018,5e-05,9e-05,0.0001,0.00055,0.00028,5e-05,2e-05,3,21
13350,-9e-05,-1e-05,-2e-05,-2e-05,-5e-05,0.00051,1e-05,-4e-05,3,21
13351,0.00031,2e-05,-1e-05,-3e-05,0.00012,-0.00017,-0.00011,-1e-05,3,21
13352,0.00031,2e-05,-1e-05,-3e-05,0.00012,-0.00017,-0.00011,-1e-05,3,21
13353,0.00031,2e-05,-1e-05,-3e-05,0.00012,-0.00017,-0.00011,-1e-05,3,21
13354,0.00031,2e-05,-1e-05,-3e-05,0.00012,-0.00017,-0.00011,-1e-05,3,21
13355,0.00031,2e-05,-1e-05,-3e-05,0.00012,-0.00017,-0.00011,-1e-05,3,21
13356,0.00031,2e-05,-1e-05,-3e-05,0.00012,-0.00017,-0.00011,-1e-05,3,21
13357,0.00031,2e-05,-1e-05,-3e-05,0.00012,-0.00017,-0.00011,-1e-05,3,21
13358,0.00031,2e-05,-1e-05,-3e-05,0.00012,-0.00017,-0.00011,-1e-05,3,21
13359,0.00031,2e-05,-1e-05,-3e-05,0.00012,-0.00017,-0.00011,-1e-05,3,21
13360,0.00031,2e-05,-1e-05,-3e-05,0.00012,-0.00017,-0.00011,-1e-05,3,21
13361,0.00031,2e-05,-1e-05,-3e-05,0.00012,-0.00017,-0.00011,-1e-05,3,21
13362,0.00031,2e-05,-1e-05,-3e-05,0.00012,-0.00017,-0.00011,-1e-05,3,21
13363,0.00031,2e-05,-1e-05,-3e-05,0.00012,-0.00017,-0.00011,-1e-05,3,21
13364,0.00031,2e-05,-1e-05,-3e-05,0.00012,-0.00017,-0.00011,-1e-05,3,21
13365,0.00031,2e-05,-1e-05,-3e-05,0.00012,-0.00017,-0.00011,-1e-05,3,21
13366,0.00031,2e-05,-1e-05,-3e-05,0.00012,-0.00017,-0.00011,-1e-05,3,21
13367,0.00031,2e-05,-1e-05,-3e-05,0.00012,-0.00017,-0.00011,-1e-05,3,21
13368,0.00031,2e-05,-1e-05,-3e-05,0.00012,-0.00017,-0.00011,-1e-05,3,21
13369,0.00031,2e-05,-1e-05,-3e-05,0.00012,-0.00017,-0.00011,-1e-05,3,21
13370,0.00031,2e-05,-1e-05,-3e-05,0.00012,-0.00017,-0.00011,-1e-05,3,21
13371,0.00031,2e-05,-1e-05,-3e-05,0.00012,-0.00017,-0.00011,-1e-05,3,21
13372,0.00011,0,-2e-05,-8e-05,0.00016,0.0002,0.00013,1e-05,3,21
13373,0.00011,0,-2e-05,-8e-05,0.00016,0.0002,0.00013,1e-05,3,21
13374,-2e-05,-4e-05,-6e-05,-9e-05,-0.00037,5e-05,-0.00019,-4e-05,3,21
13375,-2e-05,-4e-05,-6e-05,-9e-05,-0.00037,5e-05,-0.00019,-4e-05,3,21
13376,-2e-05,-4e-05,-6e-05,-9e-05,-0.00037,5e-05,-0.00019,-4e-05,3,21
13377,-2e-05,-4e-05,-6e-05,-9e-05,-0.00037,5e-05,-0.00019,-4e-05,3,21
13378,-2e-05,-4e-05,-6e-05,-9e-05,-0.00037,5e-05,-0.00019,-4e-05,3,21
13379,-2e-05,-4e-05,-6e-05,-9e-05,-0.00037,5e-05,-0.00019,-4e-05,3,21
13380,-2e-05,-4e-05,-6e-05,-9e-05,-0.00037,5e-05,-0.00019,-4e-05,3,21
13381,-2e-05,-4e-05,-6e-05,-9e-05,-0.00037,5e-05,-0.00019,-4e-05,3,21
13382,-2e-05,-4e-05,-6e-05,-9e-05,-0.00037,5e-05,-0.00019,-4e-05,3,21
13383,-2e-05,-4e-05,-6e-05,-9e-05,-0.00037,5e-05,-0.00019,-4e-05,3,21
13384,-2e-05,-4e-05,-6e-05,-9e-05,-0.00037,5e-05,-0.00019,-4e-05,3,21
13385,-2e-05,-4e-05,-6e-05,-9e-05,-0.00037,5e-05,-0.00019,-4e-05,3,21
13387,6e-05,1e-05,1e-05,8e-05,0.00026,0.00023,0.00017,1e-05,3,21
13389,6e-05,1e-05,1e-05,8e-05,0.00026,0.00023,0.00017,1e-05,3,21
13390,6e-05,1e-05,1e-05,8e-05,0.00026,0.00023,0.00017,1e-05,3,21
13391,6e-05,1e-05,1e-05,8e-05,0.00026,0.00023,0.00017,1e-05,3,21
13392,6e-05,1e-05,1e-05,8e-05,0.00026,0.00023,0.00017,1e-05,3,21
13393,-0.00018,-0.0001,-0.0001,-0.00014,-0.00037,-0.00026,-7e-05,-8e-05,3,21
13394,-0.00018,-0.0001,-0.0001,-0.00014,-0.00037,-0.00026,-7e-05,-8e-05,3,21
13395,-0.00018,-0.0001,-0.0001,-0.00014,-0.00037,-0.00026,-7e-05,-8e-05,3,21
13396,-0.00018,-0.0001,-0.0001,-0.00014,-0.00037,-0.00026,-7e-05,-8e-05,3,21
13397,-0.00018,-0.0001,-0.0001,-0.00014,-0.00037,-0.00026,-7e-05,-8e-05,3,21
13398,-0.00018,-0.0001,-0.0001,-0.00014,-0.00037,-0.00026,-7e-05,-8e-05,3,21
13399,-0.00018,-0.0001,-0.0001,-0.00014,-0.00037,-0.00026,-7e-05,-8e-05,3,21
13400,-0.00018,-0.0001,-0.0001,-0.00014,-0.00037,-0.00026,-7e-05,-8e-05,3,21
13401,-0.00018,-0.0001,-0.0001,-0.00014,-0.00037,-0.00026,-7e-05,-8e-05,3,21
13402,-0.00018,-0.0001,-0.0001,-0.00014,-0.00037,-0.00026,-7e-05,-8e-05,3,21
13403,-0.00018,-0.0001,-0.0001,-0.00014,-0.00037,-0.00026,-7e-05,-8e-05,3,21
13404,-0.00018,-0.0001,-0.0001,-0.00014,-0.00037,-0.00026,-7e-05,-8e-05,3,21
13405,-0.00018,-0.0001,-0.0001,-0.00014,-0.00037,-0.00026,-7e-05,-8e-05,3,21
13406,-0.00018,-0.0001,-0.0001,-0.00014,-0.00037,-0.00026,-7e-05,-8e-05,3,21
13407,-0.00018,-0.0001,-0.0001,-0.00014,-0.00037,-0.00026,-7e-05,-8e-05,3,21
13408,-0.00018,-0.0001,-0.0001,-0.00014,-0.00037,-0.00026,-7e-05,-8e-05,3,21
13409,-0.00018,-0.0001,-0.0001,-0.00014,-0.00037,-0.00026,-7e-05,-8e-05,3,21
13410,-0.00017,5e-05,-3e-05,0.00012,0.00062,-1e-05,-0.0001,4e-05,3,21
13411,-0.00019,0,8e-05,0.00014,-3e-05,-0.00066,0.00013,4e-05,3,21
13412,-0.00019,0,8e-05,0.00014,-3e-05,-0.00066,0.00013,4e-05,3,21
13413,-0.00019,0,8e-05,0.00014,-3e-05,-0.00066,0.00013,4e-05,3,21
13414,-0.00019,0,8e-05,0.00014,-3e-05,-0.00066,0.00013,4e-05,3,21
13415,-0.00019,0,8e-05,0.00014,-3e-05,-0.00066,0.00013,4e-05,3,21
13416,-0.00019,0,8e-05,0.00014,-3e-05,-0.00066,0.00013,4e-05,3,21
13417,-0.00019,0,8e-05,0.00014,-3e-05,-0.00066,0.00013,4e-05,3,21
13418,-0.00019,0,8e-05,0.00014,-3e-05,-0.00066,0.00013,4e-05,3,21
13419,-0.00019,0,8e-05,0.00014,-3e-05,-0.00066,0.00013,4e-05,3,21
13420,-0.00019,0,8e-05,0.00014,-3e-05,-0.00066,0.00013,4e-05,3,21
13421,-0.00019,0,8e-05,0.00014,-3e-05,-0.00066,0.00013,4e-05,3,21
13422,-0.00019,0,8e-05,0.00014,-3e-05,-0.00066,0.00013,4e-05,3,21
13423,-0.00019,0,8e-05,0.00014,-3e-05,-0.00066,0.00013,4e-05,3,21
13424,-0.00019,0,8e-05,0.00014,-3e-05,-0.00066,0.00013,4e-05,3,21
13425,-0.00019,0,8e-05,0.00014,-3e-05,-0.00066,0.00013,4e-05,3,21
13426,-0.00019,0,8e-05,0.00014,-3e-05,-0.00066,0.00013,4e-05,3,21
13427,-0.00019,0,8e-05,0.00014,-3e-05,-0.00066,0.00013,4e-05,3,21
13428,-0.00019,0,8e-05,0.00014,-3e-05,-0.00066,0.00013,4e-05,3,21
13429,-0.00019,0,8e-05,0.00014,-3e-05,-0.00066,0.00013,4e-05,3,21
13430,-0.00019,0,8e-05,0.00014,-3e-05,-0.00066,0.00013,4e-05,3,21
13431,-0.00019,0,8e-05,0.00014,-3e-05,-0.00066,0.00013,4e-05,3,21
13432,-0.00051,-3e-05,0,2e-05,4e-05,2e-05,-7e-05,-7e-05,3,21
13433,-0.00051,-3e-05,0,2e-05,4e-05,2e-05,-7e-05,-7e-05,3,21
13434,-0.0001,1e-05,0,2e-05,8e-05,0.00015,-9e-05,-7e-05,3,21
13435,-0.0001,1e-05,0,2e-05,8e-05,0.00015,-9e-05,-7e-05,3,21
13437,-0.0001,1e-05,0,2e-05,8e-05,0.00015,-9e-05,-7e-05,3,21
13439,-0.0001,1e-05,0,2e-05,8e-05,0.00015,-9e-05,-7e-05,3,21
13440,-0.0001,1e-05,0,2e-05,8e-05,0.00015,-9e-05,-7e-05,3,21
13441,-0.0001,1e-05,0,2e-05,8e-05,0.00015,-9e-05,-7e-05,3,21
13442,-0.0001,1e-05,0,2e-05,8e-05,0.00015,-9e-05,-7e-05,3,21
13443,-0.0001,1e-05,0,2e-05,8e-05,0.00015,-9e-05,-7e-05,3,21
13444,-0.0001,1e-05,0,2e-05,8e-05,0.00015,-9e-05,-7e-05,3,21
13445,-0.0001,1e-05,0,2e-05,8e-05,0.00015,-9e-05,-7e-05,3,21
13446,0.00023,0,-3e-05,-0.00012,-0.00048,-0.00016,-0.00035,2e-05,3,21
13447,0.00036,1e-05,-4e-05,-0.00011,-0.0006,-0.00045,0.00015,7e-05,3,21
13448,0.00036,1e-05,-4e-05,-0.00011,-0.0006,-0.00045,0.00015,7e-05,3,21
13449,0.00036,1e-05,-4e-05,-0.00011,-0.0006,-0.00045,0.00015,7e-05,3,21
13450,0.00036,1e-05,-4e-05,-0.00011,-0.0006,-0.00045,0.00015,7e-05,3,21
13451,0.00036,1e-05,-4e-05,-0.00011,-0.0006,-0.00045,0.00015,7e-05,3,21
13452,0.00036,1e-05,-4e-05,-0.00011,-0.0006,-0.00045,0.00015,7e-05,3,21
13453,-0.00041,-1e-05,-3e-05,-0.0001,-0.00025,0.00012,7e-05,1e-05,3,21
13454,-0.00041,-1e-05,-3e-05,-0.0001,-0.00025,0.00012,7e-05,1e-05,3,21
13455,-0.00041,-1e-05,-3e-05,-0.0001,-0.00025,0.00012,7e-05,1e-05,3,21
13456,-0.00041,-1e-05,-3e-05,-0.0001,-0.00025,0.00012,7e-05,1e-05,3,21
13457,-0.00041,-1e-05,-3e-05,-0.0001,-0.00025,0.00012,7e-05,1e-05,3,21
13458,-0.00041,-1e-05,-3e-05,-0.0001,-0.00025,0.00012,7e-05,1e-05,3,21
13459,-0.00041,-1e-05,-3e-05,-0.0001,-0.00025,0.00012,7e-05,1e-05,3,21
13460,-0.00041,-1e-05,-3e-05,-0.0001,-0.00025,0.00012,7e-05,1e-05,3,21
13461,-0.00041,-1e-05,-3e-05,-0.0001,-0.00025,0.00012,7e-05,1e-05,3,21
13462,-0.00041,-1e-05,-3e-05,-0.0001,-0.00025,0.00012,7e-05,1e-05,3,21
13463,-0.00041,-1e-05,-3e-05,-0.0001,-0.00025,0.00012,7e-05,1e-05,3,21
13464,-0.00041,-1e-05,-3e-05,-0.0001,-0.00025,0.00012,7e-05,1e-05,3,21
13465,-0.00041,-1e-05,-3e-05,-0.0001,-0.00025,0.00012,7e-05,1e-05,3,21
13466,-0.00041,-1e-05,-3e-05,-0.0001,-0.00025,0.00012,7e-05,1e-05,3,21
13467,-0.00041,-1e-05,-3e-05,-0.0001,-0.00025,0.00012,7e-05,1e-05,3,21
13468,-0.00041,-1e-05,-3e-05,-0.0001,-0.00025,0.00012,7e-05,1e-05,3,21
13469,0.0001,1e-05,-1e-05,1e-05,-0.00021,0.00024,7e-05,-3e-05,3,21
13470,-5e-05,-2e-05,1e-05,8e-05,-4e-05,-0.00017,-9e-05,1e-05,3,21
13471,0.00051,1e-05,-3e-05,4e-05,0.00028,0.00038,0.00021,3e-05,3,21
13473,0.00051,1e-05,-3e-05,4e-05,0.00028,0.00038,0.00021,3e-05,3,21
13474,0.00051,1e-05,-3e-05,4e-05,0.00028,0.00038,0.00021,3e-05,3,21
13475,0.00051,1e-05,-3e-05,4e-05,0.00028,0.00038,0.00021,3e-05,3,21
13476,0.00051,1e-05,-3e-05,4e-05,0.00028,0.00038,0.00021,3e-05,3,21
13477,0.00051,1e-05,-3e-05,4e-05,0.00028,0.00038,0.00021,3e-05,3,21
13478,0.00051,1e-05,-3e-05,4e-05,0.00028,0.00038,0.00021,3e-05,3,21
13479,0.00051,1e-05,-3e-05,4e-05,0.00028,0.00038,0.00021,3e-05,3,21
13480,0.00051,1e-05,-3e-05,4e-05,0.00028,0.00038,0.00021,3e-05,3,21
13481,0.00051,1e-05,-3e-05,4e-05,0.00028,0.00038,0.00021,3e-05,3,21
13482,0.00051,1e-05,-3e-05,4e-05,0.00028,0.00038,0.00021,3e-05,3,21
13483,0.00051,1e-05,-3e-05,4e-05,0.00028,0.00038,0.00021,3e-05,3,21
13484,0.00051,1e-05,-3e-05,4e-05,0.00028,0.00038,0.00021,3e-05,3,21
13485,0.00051,1e-05,-3e-05,4e-05,0.00028,0.00038,0.00021,3e-05,3,21
13487,0.00051,1e-05,-3e-05,4e-05,0.00028,0.00038,0.00021,3e-05,3,21
13489,0.00051,1e-05,-3e-05,4e-05,0.00028,0.00038,0.00021,3e-05,3,21
13490,0.00051,1e-05,-3e-05,4e-05,0.00028,0.00038,0.00021,3e-05,3,21
13491,0.00051,1e-05,-3e-05,4e-05,0.00028,0.00038,0.00021,3e-05,3,21
13492,-3e-05,0,6e-05,4e-05,-0.00043,-0.00083,-0.00011,-7e-05,3,21
13493,-3e-05,0,6e-05,4e-05,-0.00043,-0.00083,-0.00011,-7e-05,3,21
13494,-8e-05,-2e-05,-7e-05,-0.00015,8e-05,-9e-05,-0.0001,-2e-05,3,21
13495,-8e-05,-2e-05,-7e-05,-0.00015,8e-05,-9e-05,-0.0001,-2e-05,3,21
13496,-8e-05,-2e-05,-7e-05,-0.00015,8e-05,-9e-05,-0.0001,-2e-05,3,21
13497,-8e-05,-2e-05,-7e-05,-0.00015,8e-05,-9e-05,-0.0001,-2e-05,3,21
13498,-8e-05,-2e-05,-7e-05,-0.00015,8e-05,-9e-05,-0.0001,-2e-05,3,21
13499,-8e-05,-2e-05,-7e-05,-0.00015,8e-05,-9e-05,-0.0001,-2e-05,3,21
13500,-8e-05,-2e-05,-7e-05,-0.00015,8e-05,-9e-05,-0.0001,-2e-05,3,21
13501,-8e-05,-2e-05,-7e-05,-0.00015,8e-05,-9e-05,-0.0001,-2e-05,3,21
13502,-8e-05,-2e-05,-7e-05,-0.00015,8e-05,-9e-05,-0.0001,-2e-05,3,21
13504,-8e-05,-2e-05,-7e-05,-0.00015,8e-05,-9e-05,-0.0001,-2e-05,3,21
13505,-8e-05,-2e-05,-7e-05,-0.00015,8e-05,-9e-05,-0.0001,-2e-05,3,21
13506,-8e-05,-2e-05,-7e-05,-0.00015,8e-05,-9e-05,-0.0001,-2e-05,3,21
13507,0.00014,1e-05,-9e-05,-0.0001,-0.00037,-0.00014,9e-05,-2e-05,3,21
13508,0.00017,-8e-05,2e-05,5e-05,0.00027,0.00041,3e-05,0.0001,3,21
13509,0.00017,-8e-05,2e-05,5e-05,0.00027,0.00041,3e-05,0.0001,3,21
13510,0.00017,-8e-05,2e-05,5e-05,0.00027,0.00041,3e-05,0.0001,3,21
13511,0.00017,-8e-05,2e-05,5e-05,0.00027,0.00041,3e-05,0.0001,3,21
13512,0.00017,-8e-05,2e-05,5e-05,0.00027,0.00041,3e-05,0.0001,3,21
13513,0.00017,-8e-05,2e-05,5e-05,0.00027,0.00041,3e-05,0.0001,3,21
13514,-0.00023,-1e-05,3e-05,9e-05,0.00025,0.0005,7e-05,-3e-05,3,21
13515,-0.00023,-1e-05,3e-05,9e-05,0.00025,0.0005,7e-05,-3e-05,3,21
13516,-0.00023,-1e-05,3e-05,9e-05,0.00025,0.0005,7e-05,-3e-05,3,21
13517,-0.00023,-1e-05,3e-05,9e-05,0.00025,0.0005,7e-05,-3e-05,3,21
13518,-0.00023,-1e-05,3e-05,9e-05,0.00025,0.0005,7e-05,-3e-05,3,21
13519,-0.00023,-1e-05,3e-05,9e-05,0.00025,0.0005,7e-05,-3e-05,3,21
13520,-0.00023,-1e-05,3e-05,9e-05,0.00025,0.0005,7e-05,-3e-05,3,21
13521,-0.00023,-1e-05,3e-05,9e-05,0.00025,0.0005,7e-05,-3e-05,3,21
13522,-0.00023,-1e-05,3e-05,9e-05,0.00025,0.0005,7e-05,-3e-05,3,21
13523,-0.00023,-1e-05,3e-05,9e-05,0.00025,0.0005,7e-05,-3e-05,3,21
13524,-0.00023,-1e-05,3e-05,9e-05,0.00025,0.0005,7e-05,-3e-05,3,21
13525,-0.00023,-1e-05,3e-05,9e-05,0.00025,0.0005,7e-05,-3e-05,3,21
13526,-0.00023,-1e-05,3e-05,9e-05,0.00025,0.0005,7e-05,-3e-05,3,21
13527,-0.00023,-1e-05,3e-05,9e-05,0.00025,0.0005,7e-05,-3e-05,3,21
13528,-0.00023,-1e-05,3e-05,9e-05,0.00025,0.0005,7e-05,-3e-05,3,21
13529,-0.00023,-1e-05,3e-05,9e-05,0.00025,0.0005,7e-05,-3e-05,3,21
13530,-0.00023,-1e-05,3e-05,9e-05,0.00025,0.0005,7e-05,-3e-05,3,21
13531,4e-05,-3e-05,-4e-05,0.00011,-7e-05,4e-05,-0.00011,-4e-05,3,21
13532,0.00032,5e-05,-2e-05,-6e-05,-0.00059,-0.00033,-5e-05,1e-05,3,21
13533,0.00032,5e-05,-2e-05,-6e-05,-0.00059,-0.00033,-5e-05,1e-05,3,21
13534,0.00032,5e-05,-2e-05,-6e-05,-0.00059,-0.00033,-5e-05,1e-05,3,21
13535,0.00032,5e-05,-2e-05,-6e-05,-0.00059,-0.00033,-5e-05,1e-05,3,21
13537,0.00032,5e-05,-2e-05,-6e-05,-0.00059,-0.00033,-5e-05,1e-05,3,21
13539,0.00032,5e-05,-2e-05,-6e-05,-0.00059,-0.00033,-5e-05,1e-05,3,21
13540,0.00032,5e-05,-2e-05,-6e-05,-0.00059,-0.00033,-5e-05,1e-05,3,21
13541,0.00032,5e-05,-2e-05,-6e-05,-0.00059,-0.00033,-5e-05,1e-05,3,21
13542,0.00032,5e-05,-2e-05,-6e-05,-0.00059,-0.00033,-5e-05,1e-05,3,21
13543,0.00032,5e-05,-2e-05,-6e-05,-0.00059,-0.00033,-5e-05,1e-05,3,21
13544,0.00032,5e-05,-2e-05,-6e-05,-0.00059,-0.00033,-5e-05,1e-05,3,21
13545,0.00032,5e-05,-2e-05,-6e-05,-0.00059,-0.00033,-5e-05,1e-05,3,21
13546,0.00032,5e-05,-2e-05,-6e-05,-0.00059,-0.00033,-5e-05,1e-05,3,21
13547,0.00032,5e-05,-2e-05,-6e-05,-0.00059,-0.00033,-5e-05,1e-05,3,21
13548,0.00032,5e-05,-2e-05,-6e-05,-0.00059,-0.00033,-5e-05,1e-05,3,21
13549,0.00032,5e-05,-2e-05,-6e-05,-0.00059,-0.00033,-5e-05,1e-05,3,21
13550,0.00032,5e-05,-2e-05,-6e-05,-0.00059,-0.00033,-5e-05,1e-05,3,21
13551,0.00032,5e-05,-2e-05,-6e-05,-0.00059,-0.00033,-5e-05,1e-05,3,21
13552,0.00032,5e-05,-2e-05,-6e-05,-0.00059,-0.00033,-5e-05,1e-05,3,21
13553,-0.00034,-1e-05,0,3e-05,0,0.00024,-0.00013,-6e-05,3,21
13554,-0.00034,-1e-05,0,3e-05,0,0.00024,-0.00013,-6e-05,3,21
13555,4e-05,-2e-05,-3e-05,-9e-05,-0.00033,-0.00042,4e-05,-4e-05,3,21
13556,4e-05,-2e-05,-3e-05,-9e-05,-0.00033,-0.00042,4e-05,-4e-05,3,21
13557,4e-05,-2e-05,-3e-05,-9e-05,-0.00033,-0.00042,4e-05,-4e-05,3,21
13558,4e-05,-2e-05,-3e-05,-9e-05,-0.00033,-0.00042,4e-05,-4e-05,3,21
13559,4e-05,-2e-05,-3e-05,-9e-05,-0.00033,-0.00042,4e-05,-4e-05,3,21
13560,4e-05,-2e-05,-3e-05,-9e-05,-0.00033,-0.00042,4e-05,-4e-05,3,21
13561,4e-05,-2e-05,-3e-05,-9e-05,-0.00033,-0.00042,4e-05,-4e-05,3,21
13562,4e-05,-2e-05,-3e-05,-9e-05,-0.00033,-0.00042,4e-05,-4e-05,3,21
13563,4e-05,-2e-05,-3e-05,-9e-05,-0.00033,-0.00042,4e-05,-4e-05,3,21
13564,4e-05,-2e-05,-3e-05,-9e-05,-0.00033,-0.00042,4e-05,-4e-05,3,21
13565,4e-05,-2e-05,-3e-05,-9e-05,-0.00033,-0.00042,4e-05,-4e-05,3,21
13566,4e-05,-2e-05,-3e-05,-9e-05,-0.00033,-0.00042,4e-05,-4e-05,3,21
13567,2e-05,-0.00012,-6e-05,-0.0002,-0.00027,-0.00015,-6e-05,-4e-05,3,21
13568,2e-05,-0.00012,-6e-05,-0.0002,-0.00027,-0.00015,-6e-05,-4e-05,3,21
13569,2e-05,-0.00012,-6e-05,-0.0002,-0.00027,-0.00015,-6e-05,-4e-05,3,21
13570,2e-05,-0.00012,-6e-05,-0.0002,-0.00027,-0.00015,-6e-05,-4e-05,3,21
13571,2e-05,-0.00012,-6e-05,-0.0002,-0.00027,-0.00015,-6e-05,-4e-05,3,21
13572,2e-05,-0.00012,-6e-05,-0.0002,-0.00027,-0.00015,-6e-05,-4e-05,3,21
13573,2e-05,-0.00012,-6e-05,-0.0002,-0.00027,-0.00015,-6e-05,-4e-05,3,21
13574,2e-05,-0.00012,-6e-05,-0.0002,-0.00027,-0.00015,-6e-05,-4e-05,3,21
13575,2e-05,-0.00012,-6e-05,-0.0002,-0.00027,-0.00015,-6e-05,-4e-05,3,21
13576,-2e-05,1e-05,-2e-05,7e-05,0.00038,0.00039,-2e-05,0,3,21
13577,-2e-05,1e-05,-2e-05,7e-05,0.00038,0.00039,-2e-05,0,3,21
13578,-2e-05,1e-05,-2e-05,7e-05,0.00038,0.00039,-2e-05,0,3,21
13579,-2e-05,1e-05,-2e-05,7e-05,0.00038,0.00039,-2e-05,0,3,21
13580,-2e-05,1e-05,-2e-05,7e-05,0.00038,0.00039,-2e-05,0,3,21
13581,-2e-05,1e-05,-2e-05,7e-05,0.00038,0.00039,-2e-05,0,3,21
13582,-2e-05,1e-05,-2e-05,7e-05,0.00038,0.00039,-2e-05,0,3,21
13583,-2e-05,1e-05,-2e-05,7e-05,0.00038,0.00039,-2e-05,0,3,21
13584,-2e-05,1e-05,-2e-05,7e-05,0.00038,0.00039,-2e-05,0,3,21
13585,-2e-05,1e-05,-2e-05,7e-05,0.00038,0.00039,-2e-05,0,3,21
13587,-2e-05,1e-05,-2e-05,7e-05,0.00038,0.00039,-2e-05,0,3,21
13589,-2e-05,1e-05,-2e-05,7e-05,0.00038,0.00039,-2e-05,0,3,21
13590,-2e-05,1e-05,-2e-05,7e-05,0.00038,0.00039,-2e-05,0,3,21
13591,0.00033,6e-05,-1e-05,-0.00013,-0.00049,-0.00017,-0.0002,-3e-05,3,21
13592,-0.00016,-7e-05,-1e-05,-4e-05,0.00038,6e-05,-0.00012,9e-05,3,21
13593,-0.00016,-7e-05,-1e-05,-4e-05,0.00038,6e-05,-0.00012,9e-05,3,21
13594,-0.00016,-7e-05,-1e-05,-4e-05,0.00038,6e-05,-0.00012,9e-05,3,21
13595,-0.00016,-7e-05,-1e-05,-4e-05,0.00038,6e-05,-0.00012,9e-05,3,21
13596,-0.00016,-7e-05,-1e-05,-4e-05,0.00038,6e-05,-0.00012,9e-05,3,21
13597,-0.00016,-7e-05,-1e-05,-4e-05,0.00038,6e-05,-0.00012,9e-05,3,21
13598,-0.00016,-7e-05,-1e-05,-4e-05,0.00038,6e-05,-0.00012,9e-05,3,21
13599,-0.00016,-7e-05,-1e-05,-4e-05,0.00038,6e-05,-0.00012,9e-05,3,21
13600,-0.00016,-7e-05,-1e-05,-4e-05,0.00038,6e-05,-0.00012,9e-05,3,21
13601,-0.00016,-7e-05,-1e-05,-4e-05,0.00038,6e-05,-0.00012,9e-05,3,21
13602,-0.00016,-7e-05,-1e-05,-4e-05,0.00038,6e-05,-0.00012,9e-05,3,21
13603,-0.00016,-7e-05,-1e-05,-4e-05,0.00038,6e-05,-0.00012,9e-05,3,21
13604,-0.00016,-7e-05,-1e-05,-4e-05,0.00038,6e-05,-0.00012,9e-05,3,21
13605,-0.00016,-7e-05,-1e-05,-4e-05,0.00038,6e-05,-0.00012,9e-05,3,21
13606,-0.00016,-7e-05,-1e-05,-4e-05,0.00038,6e-05,-0.00012,9e-05,3,21
13607,-0.00016,-7e-05,-1e-05,-4e-05,0.00038,6e-05,-0.00012,9e-05,3,21
13608,-0.00016,-7e-05,-1e-05,-4e-05,0.00038,6e-05,-0.00012,9e-05,3,21
13609,-0.00016,-7e-05,-1e-05,-4e-05,0.00038,6e-05,-0.00012,9e-05,3,21
13610,-0.00016,-7e-05,-1e-05,-4e-05,0.00038,6e-05,-0.00012,9e-05,3,21
13611,-0.00016,-7e-05,-1e-05,-4e-05,0.00038,6e-05,-0.00012,9e-05,3,21
13612,-0.00016,-7e-05,-1e-05,-4e-05,0.00038,6e-05,-0.00012,9e-05,3,21
13613,3e-05,-1e-05,-2e-05,-6e-05,-1e-05,-0.00027,4e-05,-4e-05,3,21
13614,3e-05,-1e-05,-2e-05,-6e-05,-1e-05,-0.00027,4e-05,-4e-05,3,21
13615,0,-1e-05,0,1e-05,-0.00016,0.0001,-6e-05,-5e-05,3,21
13616,0,-1e-05,0,1e-05,-0.00016,0.0001,-6e-05,-5e-05,3,21
13617,0,-1e-05,0,1e-05,-0.00016,0.0001,-6e-05,-5e-05,3,21
13618,0,-1e-05,0,1e-05,-0.00016,0.0001,-6e-05,-5e-05,3,21
13619,0,-1e-05,0,1e-05,-0.00016,0.0001,-6e-05,-5e-05,3,21
13620,0,-1e-05,0,1e-05,-0.00016,0.0001,-6e-05,-5e-05,3,21
13621,0,-1e-05,0,1e-05,-0.00016,0.0001,-6e-05,-5e-05,3,21
13622,0,-1e-05,0,1e-05,-0.00016,0.0001,-6e-05,-5e-05,3,21
