12247,-4e-05,-8e-05,-9e-05,-4e-05,0,1e-05,-2e-05,-3e-05,3,24
12248,-4e-05,-8e-05,-9e-05,-4e-05,0,1e-05,-2e-05,-3e-05,3,24
12249,1e-05,-7e-05,-3e-05,-2e-05,-3e-05,-5e-05,3e-05,3e-05,3,24
12250,1e-05,-7e-05,-3e-05,-2e-05,-3e-05,-5e-05,3e-05,3e-05,3,24
12251,-5e-05,0,4e-05,2e-05,1e-05,-1e-05,-5e-05,-4e-05,3,24
12252,-5e-05,0,4e-05,2e-05,1e-05,-1e-05,-5e-05,-4e-05,3,24
12253,-5e-05,0,4e-05,2e-05,1e-05,-1e-05,-5e-05,-4e-05,3,24
12254,-5e-05,0,4e-05,2e-05,1e-05,-1e-05,-5e-05,-4e-05,3,24
12255,-5e-05,0,4e-05,2e-05,1e-05,-1e-05,-5e-05,-4e-05,3,24
12256,-5e-05,0,4e-05,2e-05,1e-05,-1e-05,-5e-05,-4e-05,3,24
12257,-5e-05,0,4e-05,2e-05,1e-05,-1e-05,-5e-05,-4e-05,3,24
12258,-5e-05,0,4e-05,2e-05,1e-05,-1e-05,-5e-05,-4e-05,3,24
12259,-5e-05,0,4e-05,2e-05,1e-05,-1e-05,-5e-05,-4e-05,3,24
12260,-5e-05,0,4e-05,2e-05,1e-05,-1e-05,-5e-05,-4e-05,3,24
12261,-5e-05,0,4e-05,2e-05,1e-05,-1e-05,-5e-05,-4e-05,3,24
12262,-5e-05,0,4e-05,2e-05,1e-05,-1e-05,-5e-05,-4e-05,3,24
12263,-5e-05,0,4e-05,2e-05,1e-05,-1e-05,-5e-05,-4e-05,3,24
12264,-5e-05,0,4e-05,2e-05,1e-05,-1e-05,-5e-05,-4e-05,3,24
12265,-5e-05,0,4e-05,2e-05,1e-05,-1e-05,-5e-05,-4e-05,3,24
12266,-5e-05,0,4e-05,2e-05,1e-05,-1e-05,-5e-05,-4e-05,3,24
12267,-5e-05,0,4e-05,2e-05,1e-05,-1e-05,-5e-05,-4e-05,3,24
12268,-5e-05,0,4e-05,2e-05,1e-05,-1e-05,-5e-05,-4e-05,3,24
12269,-5e-05,0,4e-05,2e-05,1e-05,-1e-05,-5e-05,-4e-05,3,24
12270,-5e-05,0,4e-05,2e-05,1e-05,-1e-05,-5e-05,-4e-05,3,24
12271,-5e-05,0,4e-05,2e-05,1e-05,-1e-05,-5e-05,-4e-05,3,24
12272,-8e-05,-0.00014,-4e-05,-2e-05,-1e-05,-1e-05,-2e-05,-4e-05,3,24
12273,-8e-05,-0.00014,-4e-05,-2e-05,-1e-05,-1e-05,-2e-05,-4e-05,3,24
12274,-1e-05,-0.00016,-2e-05,1e-05,-1e-05,-2e-05,0,0,3,24
12275,-1e-05,-0.00016,-2e-05,1e-05,-1e-05,-2e-05,0,0,3,24
12276,-1e-05,-0.00016,-2e-05,1e-05,-1e-05,-2e-05,0,0,3,24
12277,-1e-05,-0.00016,-2e-05,1e-05,-1e-05,-2e-05,0,0,3,24
12278,-1e-05,-0.00016,-2e-05,1e-05,-1e-05,-2e-05,0,0,3,24
12279,-1e-05,-0.00016,-2e-05,1e-05,-1e-05,-2e-05,0,0,3,24
12280,-1e-05,-0.00016,-2e-05,1e-05,-1e-05,-2e-05,0,0,3,24
12281,-1e-05,-0.00016,-2e-05,1e-05,-1e-05,-2e-05,0,0,3,24
12282,-1e-05,-0.00016,-2e-05,1e-05,-1e-05,-2e-05,0,0,3,24
12283,-1e-05,-0.00016,-2e-05,1e-05,-1e-05,-2e-05,0,0,3,24
12284,-1e-05,-0.00016,-2e-05,1e-05,-1e-05,-2e-05,0,0,3,24
12285,-1e-05,-0.00016,-2e-05,1e-05,-1e-05,-2e-05,0,0,3,24
12286,0.00011,-8e-05,-3e-05,-3e-05,1e-05,-1e-05,1e-05,-6e-05,3,24
12288,0.00011,-8e-05,-3e-05,-3e-05,1e-05,-1e-05,1e-05,-6e-05,3,24
12289,0.00011,-8e-05,-3e-05,-3e-05,1e-05,-1e-05,1e-05,-6e-05,3,24
12290,0.00011,-8e-05,-3e-05,-3e-05,1e-05,-1e-05,1e-05,-6e-05,3,24
12291,0.00011,-8e-05,-3e-05,-3e-05,1e-05,-1e-05,1e-05,-6e-05,3,24
12292,0.00011,-8e-05,-3e-05,-3e-05,1e-05,-1e-05,1e-05,-6e-05,3,24
12293,-0.00011,5e-05,5e-05,-1e-05,-2e-05,-1e-05,0,-7e-05,3,24
12294,-0.00011,5e-05,5e-05,-1e-05,-2e-05,-1e-05,0,-7e-05,3,24
12295,-0.00011,5e-05,5e-05,-1e-05,-2e-05,-1e-05,0,-7e-05,3,24
12296,-0.00011,5e-05,5e-05,-1e-05,-2e-05,-1e-05,0,-7e-05,3,24
12297,-0.00011,5e-05,5e-05,-1e-05,-2e-05,-1e-05,0,-7e-05,3,24
12298,-0.00011,5e-05,5e-05,-1e-05,-2e-05,-1e-05,0,-7e-05,3,24
12299,-0.00011,5e-05,5e-05,-1e-05,-2e-05,-1e-05,0,-7e-05,3,24
12300,-0.00011,5e-05,5e-05,-1e-05,-2e-05,-1e-05,0,-7e-05,3,24
12301,-0.00011,5e-05,5e-05,-1e-05,-2e-05,-1e-05,0,-7e-05,3,24
12302,-0.00011,5e-05,5e-05,-1e-05,-2e-05,-1e-05,0,-7e-05,3,24
12303,-0.00011,5e-05,5e-05,-1e-05,-2e-05,-1e-05,0,-7e-05,3,24
12304,-0.00011,5e-05,5e-05,-1e-05,-2e-05,-1e-05,0,-7e-05,3,24
12305,-0.00011,5e-05,5e-05,-1e-05,-2e-05,-1e-05,0,-7e-05,3,24
12306,-0.00011,5e-05,5e-05,-1e-05,-2e-05,-1e-05,0,-7e-05,3,24
12307,-0.00011,5e-05,5e-05,-1e-05,-2e-05,-1e-05,0,-7e-05,3,24
12308,-0.00011,5e-05,5e-05,-1e-05,-2e-05,-1e-05,0,-7e-05,3,24
12309,1e-05,0,-6e-05,-1e-05,-1e-05,-1e-05,-2e-05,-4e-05,3,24
12310,1e-05,0,-6e-05,-1e-05,-1e-05,-1e-05,-2e-05,-4e-05,3,24
12311,5e-05,4e-05,2e-05,-3e-05,-1e-05,0,-2e-05,-5e-05,3,24
12312,5e-05,4e-05,2e-05,-3e-05,-1e-05,0,-2e-05,-5e-05,3,24
12313,5e-05,4e-05,2e-05,-3e-05,-1e-05,0,-2e-05,-5e-05,3,24
12314,5e-05,4e-05,2e-05,-3e-05,-1e-05,0,-2e-05,-5e-05,3,24
12315,5e-05,4e-05,2e-05,-3e-05,-1e-05,0,-2e-05,-5e-05,3,24
12316,5e-05,4e-05,2e-05,-3e-05,-1e-05,0,-2e-05,-5e-05,3,24
12317,5e-05,4e-05,2e-05,-3e-05,-1e-05,0,-2e-05,-5e-05,3,24
12318,5e-05,4e-05,2e-05,-3e-05,-1e-05,0,-2e-05,-5e-05,3,24
12319,5e-05,4e-05,2e-05,-3e-05,-1e-05,0,-2e-05,-5e-05,3,24
12320,5e-05,4e-05,2e-05,-3e-05,-1e-05,0,-2e-05,-5e-05,3,24
12321,5e-05,4e-05,2e-05,-3e-05,-1e-05,0,-2e-05,-5e-05,3,24
12322,5e-05,4e-05,2e-05,-3e-05,-1e-05,0,-2e-05,-5e-05,3,24
12323,5e-05,4e-05,2e-05,-3e-05,-1e-05,0,-2e-05,-5e-05,3,24
12324,5e-05,4e-05,2e-05,-3e-05,-1e-05,0,-2e-05,-5e-05,3,24
12325,5e-05,4e-05,2e-05,-3e-05,-1e-05,0,-2e-05,-5e-05,3,24
12326,5e-05,4e-05,2e-05,-3e-05,-1e-05,0,-2e-05,-5e-05,3,24
12327,5e-05,4e-05,2e-05,-3e-05,-1e-05,0,-2e-05,-5e-05,3,24
12328,5e-05,4e-05,2e-05,-3e-05,-1e-05,0,-2e-05,-5e-05,3,24
12329,5e-05,4e-05,2e-05,-3e-05,-1e-05,0,-2e-05,-5e-05,3,24
12330,5e-05,4e-05,2e-05,-3e-05,-1e-05,0,-2e-05,-5e-05,3,24
12331,5e-05,4e-05,2e-05,-3e-05,-1e-05,0,-2e-05,-5e-05,3,24
12332,2e-05,0.0001,1e-05,0,-1e-05,-4e-05,-4e-05,-1e-05,3,24
12333,-3e-05,1e-05,6e-05,1e-05,-3e-05,-1e-05,1e-05,0,3,24
12334,-3e-05,1e-05,6e-05,1e-05,-3e-05,-1e-05,1e-05,0,3,24
12335,-3e-05,1e-05,6e-05,1e-05,-3e-05,-1e-05,1e-05,0,3,24
12336,-3e-05,1e-05,6e-05,1e-05,-3e-05,-1e-05,1e-05,0,3,24
12338,-3e-05,1e-05,6e-05,1e-05,-3e-05,-1e-05,1e-05,0,3,24
12339,-3e-05,1e-05,6e-05,1e-05,-3e-05,-1e-05,1e-05,0,3,24
12340,-3e-05,1e-05,6e-05,1e-05,-3e-05,-1e-05,1e-05,0,3,24
12341,-3e-05,1e-05,6e-05,1e-05,-3e-05,-1e-05,1e-05,0,3,24
12342,-3e-05,1e-05,6e-05,1e-05,-3e-05,-1e-05,1e-05,0,3,24
12343,-3e-05,1e-05,6e-05,1e-05,-3e-05,-1e-05,1e-05,0,3,24
12344,-3e-05,1e-05,6e-05,1e-05,-3e-05,-1e-05,1e-05,0,3,24
12345,-3e-05,1e-05,6e-05,1e-05,-3e-05,-1e-05,1e-05,0,3,24
12346,-2e-05,2e-05,-4e-05,-1e-05,3e-05,2e-05,0,5e-05,3,24
12347,3e-05,0.00029,-5e-05,0,3e-05,2e-05,2e-05,1e-05,3,24
12348,3e-05,0.00029,-5e-05,0,3e-05,2e-05,2e-05,1e-05,3,24
12349,3e-05,0.00029,-5e-05,0,3e-05,2e-05,2e-05,1e-05,3,24
12350,3e-05,0.00029,-5e-05,0,3e-05,2e-05,2e-05,1e-05,3,24
12351,3e-05,0.00029,-5e-05,0,3e-05,2e-05,2e-05,1e-05,3,24
12352,3e-05,0.00029,-5e-05,0,3e-05,2e-05,2e-05,1e-05,3,24
12353,0,1e-05,-1e-05,-2e-05,-2e-05,-3e-05,-2e-05,0,3,24
12354,0,1e-05,-1e-05,-2e-05,-2e-05,-3e-05,-2e-05,0,3,24
12355,0,1e-05,-1e-05,-2e-05,-2e-05,-3e-05,-2e-05,0,3,24
12356,0,1e-05,-1e-05,-2e-05,-2e-05,-3e-05,-2e-05,0,3,24
12357,0,1e-05,-1e-05,-2e-05,-2e-05,-3e-05,-2e-05,0,3,24
12358,0,1e-05,-1e-05,-2e-05,-2e-05,-3e-05,-2e-05,0,3,24
12359,0,1e-05,-1e-05,-2e-05,-2e-05,-3e-05,-2e-05,0,3,24
12360,0,1e-05,-1e-05,-2e-05,-2e-05,-3e-05,-2e-05,0,3,24
12361,0,1e-05,-1e-05,-2e-05,-2e-05,-3e-05,-2e-05,0,3,24
12362,0,1e-05,-1e-05,-2e-05,-2e-05,-3e-05,-2e-05,0,3,24
12363,0,1e-05,-1e-05,-2e-05,-2e-05,-3e-05,-2e-05,0,3,24
12364,0,1e-05,-1e-05,-2e-05,-2e-05,-3e-05,-2e-05,0,3,24
12365,0,1e-05,-1e-05,-2e-05,-2e-05,-3e-05,-2e-05,0,3,24
12366,0,1e-05,-1e-05,-2e-05,-2e-05,-3e-05,-2e-05,0,3,24
12367,0,1e-05,-1e-05,-2e-05,-2e-05,-3e-05,-2e-05,0,3,24
12368,0,1e-05,-1e-05,-2e-05,-2e-05,-3e-05,-2e-05,0,3,24
12369,-0.00011,-1e-05,-2e-05,0,-4e-05,1e-05,-2e-05,-4e-05,3,24
12370,-0.00011,-1e-05,-2e-05,0,-4e-05,1e-05,-2e-05,-4e-05,3,24
12371,-4e-05,2e-05,-2e-05,-2e-05,1e-05,3e-05,4e-05,5e-05,3,24
12372,-4e-05,2e-05,-2e-05,-2e-05,1e-05,3e-05,4e-05,5e-05,3,24
12373,-4e-05,2e-05,-2e-05,-2e-05,1e-05,3e-05,4e-05,5e-05,3,24
12374,-4e-05,2e-05,-2e-05,-2e-05,1e-05,3e-05,4e-05,5e-05,3,24
12375,-4e-05,2e-05,-2e-05,-2e-05,1e-05,3e-05,4e-05,5e-05,3,24
12376,-4e-05,2e-05,-2e-05,-2e-05,1e-05,3e-05,4e-05,5e-05,3,24
12377,-4e-05,2e-05,-2e-05,-2e-05,1e-05,3e-05,4e-05,5e-05,3,24
12378,-4e-05,2e-05,-2e-05,-2e-05,1e-05,3e-05,4e-05,5e-05,3,24
12379,-4e-05,2e-05,-2e-05,-2e-05,1e-05,3e-05,4e-05,5e-05,3,24
12380,-4e-05,2e-05,-2e-05,-2e-05,1e-05,3e-05,4e-05,5e-05,3,24
12381,-4e-05,2e-05,-2e-05,-2e-05,1e-05,3e-05,4e-05,5e-05,3,24
12382,-4e-05,2e-05,-2e-05,-2e-05,1e-05,3e-05,4e-05,5e-05,3,24
12383,-4e-05,2e-05,-2e-05,-2e-05,1e-05,3e-05,4e-05,5e-05,3,24
12384,-4e-05,2e-05,-2e-05,-2e-05,1e-05,3e-05,4e-05,5e-05,3,24
12385,-4e-05,2e-05,-2e-05,-2e-05,1e-05,3e-05,4e-05,5e-05,3,24
12386,-4e-05,2e-05,-2e-05,-2e-05,1e-05,3e-05,4e-05,5e-05,3,24
12388,-4e-05,2e-05,-2e-05,-2e-05,1e-05,3e-05,4e-05,5e-05,3,24
12389,-4e-05,2e-05,-2e-05,-2e-05,1e-05,3e-05,4e-05,5e-05,3,24
12390,-4e-05,2e-05,-2e-05,-2e-05,1e-05,3e-05,4e-05,5e-05,3,24
12391,-4e-05,2e-05,-2e-05,-2e-05,1e-05,3e-05,4e-05,5e-05,3,24
12392,4e-05,5e-05,3e-05,0,-1e-05,0,-1e-05,-7e-05,3,24
12393,4e-05,0.0002,1e-05,1e-05,-2e-05,-2e-05,0,-1e-05,3,24
12394,3e-05,-3e-05,-4e-05,-4e-05,-3e-05,-4e-05,-3e-05,0,3,24
12395,3e-05,-3e-05,-4e-05,-4e-05,-3e-05,-4e-05,-3e-05,0,3,24
12396,3e-05,-3e-05,-4e-05,-4e-05,-3e-05,-4e-05,-3e-05,0,3,24
12397,3e-05,-3e-05,-4e-05,-4e-05,-3e-05,-4e-05,-3e-05,0,3,24
12398,3e-05,-3e-05,-4e-05,-4e-05,-3e-05,-4e-05,-3e-05,0,3,24
12399,3e-05,-3e-05,-4e-05,-4e-05,-3e-05,-4e-05,-3e-05,0,3,24
12400,3e-05,-3e-05,-4e-05,-4e-05,-3e-05,-4e-05,-3e-05,0,3,24
12401,3e-05,-3e-05,-4e-05,-4e-05,-3e-05,-4e-05,-3e-05,0,3,24
12402,3e-05,-3e-05,-4e-05,-4e-05,-3e-05,-4e-05,-3e-05,0,3,24
12403,3e-05,-3e-05,-4e-05,-4e-05,-3e-05,-4e-05,-3e-05,0,3,24
12404,3e-05,-3e-05,-4e-05,-4e-05,-3e-05,-4e-05,-3e-05,0,3,24
12405,3e-05,-3e-05,-4e-05,-4e-05,-3e-05,-4e-05,-3e-05,0,3,24
12406,-7e-05,-0.00013,-1e-05,0,-1e-05,3e-05,3e-05,7e-05,3,24
12407,-7e-05,-0.00013,-1e-05,0,-1e-05,3e-05,3e-05,7e-05,3,24
12408,-7e-05,-0.00013,-1e-05,0,-1e-05,3e-05,3e-05,7e-05,3,24
12409,-7e-05,-0.00013,-1e-05,0,-1e-05,3e-05,3e-05,7e-05,3,24
12410,-7e-05,-0.00013,-1e-05,0,-1e-05,3e-05,3e-05,7e-05,3,24
12411,-7e-05,-0.00013,-1e-05,0,-1e-05,3e-05,3e-05,7e-05,3,24
12412,-7e-05,-0.00013,-1e-05,0,-1e-05,3e-05,3e-05,7e-05,3,24
12413,-7e-05,-0.00013,-1e-05,0,-1e-05,3e-05,3e-05,7e-05,3,24
12414,-7e-05,-0.00013,-1e-05,0,-1e-05,3e-05,3e-05,7e-05,3,24
12415,0.0001,0.00018,2e-05,1e-05,2e-05,1e-05,1e-05,0.00017,3,24
12416,0.0001,0.00018,2e-05,1e-05,2e-05,1e-05,1e-05,0.00017,3,24
12417,0.0001,0.00018,2e-05,1e-05,2e-05,1e-05,1e-05,0.00017,3,24
12418,0.0001,0.00018,2e-05,1e-05,2e-05,1e-05,1e-05,0.00017,3,24
12419,0.0001,0.00018,2e-05,1e-05,2e-05,1e-05,1e-05,0.00017,3,24
12420,0.0001,0.00018,2e-05,1e-05,2e-05,1e-05,1e-05,0.00017,3,24
12421,0.0001,0.00018,2e-05,1e-05,2e-05,1e-05,1e-05,0.00017,3,24
12422,0.0001,0.00018,2e-05,1e-05,2e-05,1e-05,1e-05,0.00017,3,24
12423,0.0001,0.00018,2e-05,1e-05,2e-05,1e-05,1e-05,0.00017,3,24
12424,0.0001,0.00018,2e-05,1e-05,2e-05,1e-05,1e-05,0.00017,3,24
12425,0.0001,0.00018,2e-05,1e-05,2e-05,1e-05,1e-05,0.00017,3,24
12426,0.0001,0.00018,2e-05,1e-05,2e-05,1e-05,1e-05,0.00017,3,24
12427,0.0001,0.00018,2e-05,1e-05,2e-05,1e-05,1e-05,0.00017,3,24
12428,0.0001,0.00018,2e-05,1e-05,2e-05,1e-05,1e-05,0.00017,3,24
12429,0.0001,0.00018,2e-05,1e-05,2e-05,1e-05,1e-05,0.00017,3,24
12430,0,3e-05,4e-05,3e-05,-2e-05,-1e-05,-4e-05,-3e-05,3,24
12431,-2e-05,-1e-05,0,-2e-05,-1e-05,-1e-05,0,-4e-05,3,24
12432,-2e-05,-1e-05,0,-2e-05,-1e-05,-1e-05,0,-4e-05,3,24
12433,-2e-05,-1e-05,0,-2e-05,-1e-05,-1e-05,0,-4e-05,3,24
12434,-2e-05,-1e-05,0,-2e-05,-1e-05,-1e-05,0,-4e-05,3,24
12435,-2e-05,-1e-05,0,-2e-05,-1e-05,-1e-05,0,-4e-05,3,24
12436,-2e-05,-1e-05,0,-2e-05,-1e-05,-1e-05,0,-4e-05,3,24
12438,-2e-05,-1e-05,0,-2e-05,-1e-05,-1e-05,0,-4e-05,3,24
12439,-2e-05,-1e-05,0,-2e-05,-1e-05,-1e-05,0,-4e-05,3,24
12440,-2e-05,-1e-05,0,-2e-05,-1e-05,-1e-05,0,-4e-05,3,24
12441,-2e-05,-1e-05,0,-2e-05,-1e-05,-1e-05,0,-4e-05,3,24
12442,-2e-05,-1e-05,0,-2e-05,-1e-05,-1e-05,0,-4e-05,3,24
12443,-2e-05,-1e-05,0,-2e-05,-1e-05,-1e-05,0,-4e-05,3,24
12444,-2e-05,-1e-05,0,-2e-05,-1e-05,-1e-05,0,-4e-05,3,24
12445,-2e-05,-1e-05,0,-2e-05,-1e-05,-1e-05,0,-4e-05,3,24
12446,-2e-05,-1e-05,0,-2e-05,-1e-05,-1e-05,0,-4e-05,3,24
12447,-2e-05,-1e-05,0,-2e-05,-1e-05,-1e-05,0,-4e-05,3,24
12448,-2e-05,-1e-05,0,-2e-05,-1e-05,-1e-05,0,-4e-05,3,24
12449,-2e-05,-1e-05,0,-2e-05,-1e-05,-1e-05,0,-4e-05,3,24
12450,-2e-05,-1e-05,0,-2e-05,-1e-05,-1e-05,0,-4e-05,3,24
12451,-2e-05,-1e-05,0,-2e-05,-1e-05,-1e-05,0,-4e-05,3,24
12452,-0.00013,-0.00025,4e-05,-1e-05,-2e-05,1e-05,-3e-05,-3e-05,3,24
12453,4e-05,4e-05,-0.0001,0,-1e-05,-2e-05,0,-1e-05,3,24
12454,-0.0001,-0.00011,-1e-05,1e-05,1e-05,3e-05,-3e-05,-5e-05,3,24
12455,-0.0001,-0.00011,-1e-05,1e-05,1e-05,3e-05,-3e-05,-5e-05,3,24
12456,-0.0001,-0.00011,-1e-05,1e-05,1e-05,3e-05,-3e-05,-5e-05,3,24
12457,-0.0001,-0.00011,-1e-05,1e-05,1e-05,3e-05,-3e-05,-5e-05,3,24
12458,-0.0001,-0.00011,-1e-05,1e-05,1e-05,3e-05,-3e-05,-5e-05,3,24
12459,-0.0001,-0.00011,-1e-05,1e-05,1e-05,3e-05,-3e-05,-5e-05,3,24
12460,-0.0001,-0.00011,-1e-05,1e-05,1e-05,3e-05,-3e-05,-5e-05,3,24
12461,-0.0001,-0.00011,-1e-05,1e-05,1e-05,3e-05,-3e-05,-5e-05,3,24
12462,-0.0001,-0.00011,-1e-05,1e-05,1e-05,3e-05,-3e-05,-5e-05,3,24
12463,-0.0001,-0.00011,-1e-05,1e-05,1e-05,3e-05,-3e-05,-5e-05,3,24
12464,-0.0001,-0.00011,-1e-05,1e-05,1e-05,3e-05,-3e-05,-5e-05,3,24
12465,-0.0001,-0.00011,-1e-05,1e-05,1e-05,3e-05,-3e-05,-5e-05,3,24
12466,-6e-05,-6e-05,-5e-05,-5e-05,-1e-05,-5e-05,0,-3e-05,3,24
12467,-6e-05,-6e-05,-5e-05,-5e-05,-1e-05,-5e-05,0,-3e-05,3,24
12468,-6e-05,-6e-05,-5e-05,-5e-05,-1e-05,-5e-05,0,-3e-05,3,24
12469,-6e-05,-6e-05,-5e-05,-5e-05,-1e-05,-5e-05,0,-3e-05,3,24
12470,-6e-05,-6e-05,-5e-05,-5e-05,-1e-05,-5e-05,0,-3e-05,3,24
12471,-6e-05,-6e-05,-5e-05,-5e-05,-1e-05,-5e-05,0,-3e-05,3,24
12472,-6e-05,-6e-05,-5e-05,-5e-05,-1e-05,-5e-05,0,-3e-05,3,24
12473,-6e-05,-6e-05,-5e-05,-5e-05,-1e-05,-5e-05,0,-3e-05,3,24
12474,-6e-05,-6e-05,-5e-05,-5e-05,-1e-05,-5e-05,0,-3e-05,3,24
12475,-9e-05,-0.00021,-8e-05,-1e-05,-1e-05,-1e-05,0,-0.00011,3,24
12476,-9e-05,-0.00021,-8e-05,-1e-05,-1e-05,-1e-05,0,-0.00011,3,24
12477,-9e-05,-0.00021,-8e-05,-1e-05,-1e-05,-1e-05,0,-0.00011,3,24
12478,-9e-05,-0.00021,-8e-05,-1e-05,-1e-05,-1e-05,0,-0.00011,3,24
12479,-9e-05,-0.00021,-8e-05,-1e-05,-1e-05,-1e-05,0,-0.00011,3,24
12480,-9e-05,-0.00021,-8e-05,-1e-05,-1e-05,-1e-05,0,-0.00011,3,24
12481,-9e-05,-0.00021,-8e-05,-1e-05,-1e-05,-1e-05,0,-0.00011,3,24
12482,-9e-05,-0.00021,-8e-05,-1e-05,-1e-05,-1e-05,0,-0.00011,3,24
12483,-9e-05,-0.00021,-8e-05,-1e-05,-1e-05,-1e-05,0,-0.00011,3,24
12484,-9e-05,-0.00021,-8e-05,-1e-05,-1e-05,-1e-05,0,-0.00011,3,24
12485,-9e-05,-0.00021,-8e-05,-1e-05,-1e-05,-1e-05,0,-0.00011,3,24
12486,-9e-05,-0.00021,-8e-05,-1e-05,-1e-05,-1e-05,0,-0.00011,3,24
12488,-9e-05,-0.00021,-8e-05,-1e-05,-1e-05,-1e-05,0,-0.00011,3,24
12489,-3e-05,-4e-05,-4e-05,-1e-05,-3e-05,-3e-05,-4e-05,-0.00014,3,24
12490,-3e-05,-4e-05,-4e-05,-1e-05,-3e-05,-3e-05,-4e-05,-0.00014,3,24
12491,-3e-05,5e-05,-3e-05,-3e-05,-2e-05,1e-05,3e-05,-4e-05,3,24
12492,-3e-05,5e-05,-3e-05,-3e-05,-2e-05,1e-05,3e-05,-4e-05,3,24
12493,-3e-05,5e-05,-3e-05,-3e-05,-2e-05,1e-05,3e-05,-4e-05,3,24
12494,-3e-05,5e-05,-3e-05,-3e-05,-2e-05,1e-05,3e-05,-4e-05,3,24
12495,-3e-05,5e-05,-3e-05,-3e-05,-2e-05,1e-05,3e-05,-4e-05,3,24
12496,-3e-05,5e-05,-3e-05,-3e-05,-2e-05,1e-05,3e-05,-4e-05,3,24
12497,-3e-05,5e-05,-3e-05,-3e-05,-2e-05,1e-05,3e-05,-4e-05,3,24
12498,-3e-05,5e-05,-3e-05,-3e-05,-2e-05,1e-05,3e-05,-4e-05,3,24
12499,-3e-05,5e-05,-3e-05,-3e-05,-2e-05,1e-05,3e-05,-4e-05,3,24
12500,-3e-05,5e-05,-3e-05,-3e-05,-2e-05,1e-05,3e-05,-4e-05,3,24
12501,-3e-05,5e-05,-3e-05,-3e-05,-2e-05,1e-05,3e-05,-4e-05,3,24
12502,-3e-05,5e-05,-3e-05,-3e-05,-2e-05,1e-05,3e-05,-4e-05,3,24
12503,-3e-05,5e-05,-3e-05,-3e-05,-2e-05,1e-05,3e-05,-4e-05,3,24
12504,-3e-05,5e-05,-3e-05,-3e-05,-2e-05,1e-05,3e-05,-4e-05,3,24
12505,-3e-05,5e-05,-3e-05,-3e-05,-2e-05,1e-05,3e-05,-4e-05,3,24
12506,-3e-05,5e-05,-3e-05,-3e-05,-2e-05,1e-05,3e-05,-4e-05,3,24
12507,-3e-05,5e-05,-3e-05,-3e-05,-2e-05,1e-05,3e-05,-4e-05,3,24
12508,-3e-05,5e-05,-3e-05,-3e-05,-2e-05,1e-05,3e-05,-4e-05,3,24
12509,-3e-05,5e-05,-3e-05,-3e-05,-2e-05,1e-05,3e-05,-4e-05,3,24
12510,-3e-05,5e-05,-3e-05,-3e-05,-2e-05,1e-05,3e-05,-4e-05,3,24
12511,-3e-05,5e-05,-3e-05,-3e-05,-2e-05,1e-05,3e-05,-4e-05,3,24
12512,-3e-05,5e-05,-3e-05,-3e-05,-2e-05,1e-05,3e-05,-4e-05,3,24
12513,-3e-05,5e-05,-3e-05,-3e-05,-2e-05,1e-05,3e-05,-4e-05,3,24
12514,-3e-05,5e-05,-3e-05,-3e-05,-2e-05,1e-05,3e-05,-4e-05,3,24
12515,-3e-05,5e-05,-3e-05,-3e-05,-2e-05,1e-05,3e-05,-4e-05,3,24
12516,-3e-05,5e-05,-3e-05,-3e-05,-2e-05,1e-05,3e-05,-4e-05,3,24
12517,-3e-05,5e-05,-3e-05,-3e-05,-2e-05,1e-05,3e-05,-4e-05,3,24
12518,-3e-05,5e-05,-3e-05,-3e-05,-2e-05,1e-05,3e-05,-4e-05,3,24
12519,0,4e-05,-2e-05,-2e-05,-4e-05,-2e-05,-2e-05,4e-05,3,24
12520,2e-05,-8e-05,-5e-05,-3e-05,2e-05,5e-05,3e-05,5e-05,3,24
12521,3e-05,7e-05,3e-05,2e-05,2e-05,-2e-05,-3e-05,-4e-05,3,24
12522,3e-05,7e-05,3e-05,2e-05,2e-05,-2e-05,-3e-05,-4e-05,3,24
12523,3e-05,7e-05,3e-05,2e-05,2e-05,-2e-05,-3e-05,-4e-05,3,24
12524,3e-05,7e-05,3e-05,2e-05,2e-05,-2e-05,-3e-05,-4e-05,3,24
12525,3e-05,7e-05,3e-05,2e-05,2e-05,-2e-05,-3e-05,-4e-05,3,24
12526,-2e-05,0,-3e-05,-1e-05,-2e-05,-2e-05,1e-05,-2e-05,3,24
12527,-2e-05,0,-3e-05,-1e-05,-2e-05,-2e-05,1e-05,-2e-05,3,24
12528,-2e-05,0,-3e-05,-1e-05,-2e-05,-2e-05,1e-05,-2e-05,3,24
12529,-2e-05,0,-3e-05,-1e-05,-2e-05,-2e-05,1e-05,-2e-05,3,24
12530,-2e-05,0,-3e-05,-1e-05,-2e-05,-2e-05,1e-05,-2e-05,3,24
12531,-2e-05,0,-3e-05,-1e-05,-2e-05,-2e-05,1e-05,-2e-05,3,24
12532,-2e-05,0,-3e-05,-1e-05,-2e-05,-2e-05,1e-05,-2e-05,3,24
12533,-2e-05,0,-3e-05,-1e-05,-2e-05,-2e-05,1e-05,-2e-05,3,24
12534,-2e-05,0,-3e-05,-1e-05,-2e-05,-2e-05,1e-05,-2e-05,3,24
12535,0,-5e-05,0,2e-05,1e-05,1e-05,0,3e-05,3,24
12536,0,-5e-05,0,2e-05,1e-05,1e-05,0,3e-05,3,24
12538,0,-5e-05,0,2e-05,1e-05,1e-05,0,3e-05,3,24
12539,0,-5e-05,0,2e-05,1e-05,1e-05,0,3e-05,3,24
12540,0,-5e-05,0,2e-05,1e-05,1e-05,0,3e-05,3,24
12541,0,-5e-05,0,2e-05,1e-05,1e-05,0,3e-05,3,24
12542,0,-5e-05,0,2e-05,1e-05,1e-05,0,3e-05,3,24
12543,0,-5e-05,0,2e-05,1e-05,1e-05,0,3e-05,3,24
12544,0,-5e-05,0,2e-05,1e-05,1e-05,0,3e-05,3,24
12545,0,-5e-05,0,2e-05,1e-05,1e-05,0,3e-05,3,24
12546,0,-5e-05,0,2e-05,1e-05,1e-05,0,3e-05,3,24
12547,0,-5e-05,0,2e-05,1e-05,1e-05,0,3e-05,3,24
12548,0,-5e-05,0,2e-05,1e-05,1e-05,0,3e-05,3,24
12549,-1e-05,0.00017,-1e-05,-5e-05,-3e-05,-3e-05,2e-05,-3e-05,3,24
12550,-1e-05,0.00017,-1e-05,-5e-05,-3e-05,-3e-05,2e-05,-3e-05,3,24
12551,-7e-05,-7e-05,7e-05,-1e-05,-2e-05,-1e-05,-1e-05,-4e-05,3,24
12552,-7e-05,-7e-05,7e-05,-1e-05,-2e-05,-1e-05,-1e-05,-4e-05,3,24
12553,-7e-05,-7e-05,7e-05,-1e-05,-2e-05,-1e-05,-1e-05,-4e-05,3,24
12554,-7e-05,-7e-05,7e-05,-1e-05,-2e-05,-1e-05,-1e-05,-4e-05,3,24
12555,-7e-05,-7e-05,7e-05,-1e-05,-2e-05,-1e-05,-1e-05,-4e-05,3,24
12556,-7e-05,-7e-05,7e-05,-1e-05,-2e-05,-1e-05,-1e-05,-4e-05,3,24
12557,-7e-05,-7e-05,7e-05,-1e-05,-2e-05,-1e-05,-1e-05,-4e-05,3,24
12558,-7e-05,-7e-05,7e-05,-1e-05,-2e-05,-1e-05,-1e-05,-4e-05,3,24
12559,-7e-05,-7e-05,7e-05,-1e-05,-2e-05,-1e-05,-1e-05,-4e-05,3,24
12560,-7e-05,-7e-05,7e-05,-1e-05,-2e-05,-1e-05,-1e-05,-4e-05,3,24
12561,-7e-05,-7e-05,7e-05,-1e-05,-2e-05,-1e-05,-1e-05,-4e-05,3,24
12562,-7e-05,-7e-05,7e-05,-1e-05,-2e-05,-1e-05,-1e-05,-4e-05,3,24
12563,-7e-05,-7e-05,7e-05,-1e-05,-2e-05,-1e-05,-1e-05,-4e-05,3,24
12564,-7e-05,-7e-05,7e-05,-1e-05,-2e-05,-1e-05,-1e-05,-4e-05,3,24
12565,-7e-05,-7e-05,7e-05,-1e-05,-2e-05,-1e-05,-1e-05,-4e-05,3,24
12566,-7e-05,-7e-05,7e-05,-1e-05,-2e-05,-1e-05,-1e-05,-4e-05,3,24
12567,-7e-05,-7e-05,7e-05,-1e-05,-2e-05,-1e-05,-1e-05,-4e-05,3,24
12568,-7e-05,-7e-05,7e-05,-1e-05,-2e-05,-1e-05,-1e-05,-4e-05,3,24
12569,-7e-05,-7e-05,7e-05,-1e-05,-2e-05,-1e-05,-1e-05,-4e-05,3,24
12570,-7e-05,-7e-05,7e-05,-1e-05,-2e-05,-1e-05,-1e-05,-4e-05,3,24
12571,-7e-05,-7e-05,7e-05,-1e-05,-2e-05,-1e-05,-1e-05,-4e-05,3,24
12572,3e-05,-0.00014,1e-05,0,-3e-05,-2e-05,-2e-05,5e-05,3,24
12573,3e-05,-0.00014,1e-05,0,-3e-05,-2e-05,-2e-05,5e-05,3,24
12574,3e-05,-2e-05,-7e-05,-5e-05,-3e-05,-1e-05,-2e-05,-2e-05,3,24
12575,3e-05,-2e-05,-7e-05,-5e-05,-3e-05,-1e-05,-2e-05,-2e-05,3,24
12576,3e-05,-2e-05,-7e-05,-5e-05,-3e-05,-1e-05,-2e-05,-2e-05,3,24
12577,3e-05,-2e-05,-7e-05,-5e-05,-3e-05,-1e-05,-2e-05,-2e-05,3,24
12578,3e-05,-2e-05,-7e-05,-5e-05,-3e-05,-1e-05,-2e-05,-2e-05,3,24
12579,3e-05,-2e-05,-7e-05,-5e-05,-3e-05,-1e-05,-2e-05,-2e-05,3,24
12580,3e-05,-2e-05,-7e-05,-5e-05,-3e-05,-1e-05,-2e-05,-2e-05,3,24
12581,3e-05,-2e-05,-7e-05,-5e-05,-3e-05,-1e-05,-2e-05,-2e-05,3,24
12582,3e-05,-2e-05,-7e-05,-5e-05,-3e-05,-1e-05,-2e-05,-2e-05,3,24
12583,3e-05,-2e-05,-7e-05,-5e-05,-3e-05,-1e-05,-2e-05,-2e-05,3,24
12584,3e-05,-2e-05,-7e-05,-5e-05,-3e-05,-1e-05,-2e-05,-2e-05,3,24
12585,3e-05,-2e-05,-7e-05,-5e-05,-3e-05,-1e-05,-2e-05,-2e-05,3,24
12586,4e-05,-2e-05,-2e-05,2e-05,0,-5e-05,-4e-05,0,3,24
12588,4e-05,-2e-05,-2e-05,2e-05,0,-5e-05,-4e-05,0,3,24
12589,4e-05,-2e-05,-2e-05,2e-05,0,-5e-05,-4e-05,0,3,24
12590,4e-05,-2e-05,-2e-05,2e-05,0,-5e-05,-4e-05,0,3,24
12591,4e-05,-2e-05,-2e-05,2e-05,0,-5e-05,-4e-05,0,3,24
12592,4e-05,-2e-05,-2e-05,2e-05,0,-5e-05,-4e-05,0,3,24
12593,4e-05,-2e-05,-2e-05,2e-05,0,-5e-05,-4e-05,0,3,24
12594,4e-05,-2e-05,-2e-05,2e-05,0,-5e-05,-4e-05,0,3,24
12595,0.00016,6e-05,1e-05,-2e-05,-1e-05,-4e-05,-1e-05,1e-05,3,24
12596,0.00016,6e-05,1e-05,-2e-05,-1e-05,-4e-05,-1e-05,1e-05,3,24
12597,0.00016,6e-05,1e-05,-2e-05,-1e-05,-4e-05,-1e-05,1e-05,3,24
12598,0.00016,6e-05,1e-05,-2e-05,-1e-05,-4e-05,-1e-05,1e-05,3,24
12599,0.00016,6e-05,1e-05,-2e-05,-1e-05,-4e-05,-1e-05,1e-05,3,24
12600,0.00016,6e-05,1e-05,-2e-05,-1e-05,-4e-05,-1e-05,1e-05,3,24
12601,0.00016,6e-05,1e-05,-2e-05,-1e-05,-4e-05,-1e-05,1e-05,3,24
12602,0.00016,6e-05,1e-05,-2e-05,-1e-05,-4e-05,-1e-05,1e-05,3,24
12603,0.00016,6e-05,1e-05,-2e-05,-1e-05,-4e-05,-1e-05,1e-05,3,24
12604,0.00016,6e-05,1e-05,-2e-05,-1e-05,-4e-05,-1e-05,1e-05,3,24
12605,0.00016,6e-05,1e-05,-2e-05,-1e-05,-4e-05,-1e-05,1e-05,3,24
12606,0.00016,6e-05,1e-05,-2e-05,-1e-05,-4e-05,-1e-05,1e-05,3,24
12607,0.00016,6e-05,1e-05,-2e-05,-1e-05,-4e-05,-1e-05,1e-05,3,24
12608,0.00016,6e-05,1e-05,-2e-05,-1e-05,-4e-05,-1e-05,1e-05,3,24
12609,9e-05,-8e-05,-9e-05,-3e-05,1e-05,-2e-05,-9e-05,-0.00022,3,24
12610,9e-05,-8e-05,-9e-05,-3e-05,1e-05,-2e-05,-9e-05,-0.00022,3,24
12611,0,8e-05,2e-05,3e-05,0,0,-1e-05,0,3,24
12612,0,8e-05,2e-05,3e-05,0,0,-1e-05,0,3,24
12613,0,8e-05,2e-05,3e-05,0,0,-1e-05,0,3,24
12614,0,8e-05,2e-05,3e-05,0,0,-1e-05,0,3,24
12615,0,8e-05,2e-05,3e-05,0,0,-1e-05,0,3,24
12616,0,8e-05,2e-05,3e-05,0,0,-1e-05,0,3,24
12617,0,8e-05,2e-05,3e-05,0,0,-1e-05,0,3,24
12618,0,8e-05,2e-05,3e-05,0,0,-1e-05,0,3,24
12619,0,8e-05,2e-05,3e-05,0,0,-1e-05,0,3,24
12620,0,8e-05,2e-05,3e-05,0,0,-1e-05,0,3,24
12621,0,8e-05,2e-05,3e-05,0,0,-1e-05,0,3,24
12622,0,8e-05,2e-05,3e-05,0,0,-1e-05,0,3,24
12623,0,8e-05,2e-05,3e-05,0,0,-1e-05,0,3,24
12624,0,8e-05,2e-05,3e-05,0,0,-1e-05,0,3,24
12625,0,8e-05,2e-05,3e-05,0,0,-1e-05,0,3,24
12626,0,8e-05,2e-05,3e-05,0,0,-1e-05,0,3,24
12627,0,8e-05,2e-05,3e-05,0,0,-1e-05,0,3,24
12628,0,8e-05,2e-05,3e-05,0,0,-1e-05,0,3,24
12629,0,8e-05,2e-05,3e-05,0,0,-1e-05,0,3,24
12630,0,8e-05,2e-05,3e-05,0,0,-1e-05,0,3,24
12631,0,8e-05,2e-05,3e-05,0,0,-1e-05,0,3,24
12632,1e-05,1e-05,3e-05,-1e-05,-1e-05,2e-05,2e-05,5e-05,3,24
12633,1e-05,1e-05,3e-05,-1e-05,-1e-05,2e-05,2e-05,5e-05,3,24
12634,-0.00015,-0.00014,-6e-05,0,-2e-05,2e-05,-3e-05,-3e-05,3,24
12635,-0.00015,-0.00014,-6e-05,0,-2e-05,2e-05,-3e-05,-3e-05,3,24
12636,-0.00015,-0.00014,-6e-05,0,-2e-05,2e-05,-3e-05,-3e-05,3,24
12638,-0.00015,-0.00014,-6e-05,0,-2e-05,2e-05,-3e-05,-3e-05,3,24
12639,-0.00015,-0.00014,-6e-05,0,-2e-05,2e-05,-3e-05,-3e-05,3,24
12640,-0.00015,-0.00014,-6e-05,0,-2e-05,2e-05,-3e-05,-3e-05,3,24
12641,-0.00015,-0.00014,-6e-05,0,-2e-05,2e-05,-3e-05,-3e-05,3,24
12642,-0.00015,-0.00014,-6e-05,0,-2e-05,2e-05,-3e-05,-3e-05,3,24
12643,-0.00015,-0.00014,-6e-05,0,-2e-05,2e-05,-3e-05,-3e-05,3,24
12644,-0.00015,-0.00014,-6e-05,0,-2e-05,2e-05,-3e-05,-3e-05,3,24
12645,-0.00015,-0.00014,-6e-05,0,-2e-05,2e-05,-3e-05,-3e-05,3,24
12646,-4e-05,-3e-05,1e-05,1e-05,-2e-05,1e-05,-3e-05,4e-05,3,24
12647,-4e-05,-3e-05,1e-05,1e-05,-2e-05,1e-05,-3e-05,4e-05,3,24
12648,-4e-05,-3e-05,1e-05,1e-05,-2e-05,1e-05,-3e-05,4e-05,3,24
12649,-4e-05,-3e-05,1e-05,1e-05,-2e-05,1e-05,-3e-05,4e-05,3,24
12650,-4e-05,-3e-05,1e-05,1e-05,-2e-05,1e-05,-3e-05,4e-05,3,24
12651,-4e-05,-3e-05,1e-05,1e-05,-2e-05,1e-05,-3e-05,4e-05,3,24
12652,-4e-05,-3e-05,1e-05,1e-05,-2e-05,1e-05,-3e-05,4e-05,3,24
12653,-4e-05,-3e-05,1e-05,1e-05,-2e-05,1e-05,-3e-05,4e-05,3,24
12654,-4e-05,-3e-05,1e-05,1e-05,-2e-05,1e-05,-3e-05,4e-05,3,24
12655,2e-05,4e-05,-2e-05,0,0,-2e-05,0,1e-05,3,24
12656,2e-05,4e-05,-2e-05,0,0,-2e-05,0,1e-05,3,24
12657,2e-05,4e-05,-2e-05,0,0,-2e-05,0,1e-05,3,24
12658,2e-05,4e-05,-2e-05,0,0,-2e-05,0,1e-05,3,24
12659,2e-05,4e-05,-2e-05,0,0,-2e-05,0,1e-05,3,24
12660,2e-05,4e-05,-2e-05,0,0,-2e-05,0,1e-05,3,24
12661,2e-05,4e-05,-2e-05,0,0,-2e-05,0,1e-05,3,24
12662,2e-05,4e-05,-2e-05,0,0,-2e-05,0,1e-05,3,24
12663,2e-05,4e-05,-2e-05,0,0,-2e-05,0,1e-05,3,24
12664,2e-05,4e-05,-2e-05,0,0,-2e-05,0,1e-05,3,24
12665,2e-05,4e-05,-2e-05,0,0,-2e-05,0,1e-05,3,24
12666,2e-05,4e-05,-2e-05,0,0,-2e-05,0,1e-05,3,24
12667,2e-05,4e-05,-2e-05,0,0,-2e-05,0,1e-05,3,24
12668,2e-05,4e-05,-2e-05,0,0,-2e-05,0,1e-05,3,24
12669,-8e-05,-0.00014,-4e-05,-3e-05,-3e-05,-2e-05,-2e-05,0.00019,3,24
12670,-8e-05,-0.00014,-4e-05,-3e-05,-3e-05,-2e-05,-2e-05,0.00019,3,24
12671,-3e-05,4e-05,2e-05,1e-05,-1e-05,-2e-05,-1e-05,-5e-05,3,24
12672,-3e-05,4e-05,2e-05,1e-05,-1e-05,-2e-05,-1e-05,-5e-05,3,24
12673,-3e-05,4e-05,2e-05,1e-05,-1e-05,-2e-05,-1e-05,-5e-05,3,24
12674,-3e-05,4e-05,2e-05,1e-05,-1e-05,-2e-05,-1e-05,-5e-05,3,24
12675,-3e-05,4e-05,2e-05,1e-05,-1e-05,-2e-05,-1e-05,-5e-05,3,24
12676,-3e-05,4e-05,2e-05,1e-05,-1e-05,-2e-05,-1e-05,-5e-05,3,24
12677,-3e-05,4e-05,2e-05,1e-05,-1e-05,-2e-05,-1e-05,-5e-05,3,24
12678,-3e-05,4e-05,2e-05,1e-05,-1e-05,-2e-05,-1e-05,-5e-05,3,24
12679,-3e-05,4e-05,2e-05,1e-05,-1e-05,-2e-05,-1e-05,-5e-05,3,24
12680,-3e-05,4e-05,2e-05,1e-05,-1e-05,-2e-05,-1e-05,-5e-05,3,24
12681,-3e-05,4e-05,2e-05,1e-05,-1e-05,-2e-05,-1e-05,-5e-05,3,24
12682,-3e-05,4e-05,2e-05,1e-05,-1e-05,-2e-05,-1e-05,-5e-05,3,24
12683,-3e-05,4e-05,2e-05,1e-05,-1e-05,-2e-05,-1e-05,-5e-05,3,24
12684,-3e-05,4e-05,2e-05,1e-05,-1e-05,-2e-05,-1e-05,-5e-05,3,24
12685,-3e-05,4e-05,2e-05,1e-05,-1e-05,-2e-05,-1e-05,-5e-05,3,24
12686,-3e-05,4e-05,2e-05,1e-05,-1e-05,-2e-05,-1e-05,-5e-05,3,24
12688,-3e-05,4e-05,2e-05,1e-05,-1e-05,-2e-05,-1e-05,-5e-05,3,24
12689,-3e-05,4e-05,2e-05,1e-05,-1e-05,-2e-05,-1e-05,-5e-05,3,24
12690,-3e-05,4e-05,2e-05,1e-05,-1e-05,-2e-05,-1e-05,-5e-05,3,24
12691,-3e-05,4e-05,2e-05,1e-05,-1e-05,-2e-05,-1e-05,-5e-05,3,24
12692,0,4e-05,-0.00012,-2e-05,0,-1e-05,1e-05,4e-05,3,24
12693,-5e-05,-0.00011,-3e-05,0,-2e-05,-2e-05,3e-05,3e-05,3,24
12694,-1e-05,0,-1e-05,-2e-05,-3e-05,-2e-05,-2e-05,3e-05,3,24
12695,-1e-05,0,-1e-05,-2e-05,-3e-05,-2e-05,-2e-05,3e-05,3,24
12696,-1e-05,0,-1e-05,-2e-05,-3e-05,-2e-05,-2e-05,3e-05,3,24
12697,-1e-05,0,-1e-05,-2e-05,-3e-05,-2e-05,-2e-05,3e-05,3,24
12698,-1e-05,0,-1e-05,-2e-05,-3e-05,-2e-05,-2e-05,3e-05,3,24
12699,-1e-05,0,-1e-05,-2e-05,-3e-05,-2e-05,-2e-05,3e-05,3,24
12700,-1e-05,0,-1e-05,-2e-05,-3e-05,-2e-05,-2e-05,3e-05,3,24
12701,-1e-05,0,-1e-05,-2e-05,-3e-05,-2e-05,-2e-05,3e-05,3,24
12702,-1e-05,0,-1e-05,-2e-05,-3e-05,-2e-05,-2e-05,3e-05,3,24
12703,-1e-05,0,-1e-05,-2e-05,-3e-05,-2e-05,-2e-05,3e-05,3,24
12704,-1e-05,0,-1e-05,-2e-05,-3e-05,-2e-05,-2e-05,3e-05,3,24
12705,-1e-05,0,-1e-05,-2e-05,-3e-05,-2e-05,-2e-05,3e-05,3,24
12706,-0.00053,-0.00085,-0.00012,-7e-05,3e-05,0.00011,0.0001,9e-05,3,24
12707,-0.00053,-0.00085,-0.00012,-7e-05,3e-05,0.00011,0.0001,9e-05,3,24
12708,-0.00053,-0.00085,-0.00012,-7e-05,3e-05,0.00011,0.0001,9e-05,3,24
12709,-0.00053,-0.00085,-0.00012,-7e-05,3e-05,0.00011,0.0001,9e-05,3,24
12710,-0.00053,-0.00085,-0.00012,-7e-05,3e-05,0.00011,0.0001,9e-05,3,24
12711,-0.00053,-0.00085,-0.00012,-7e-05,3e-05,0.00011,0.0001,9e-05,3,24
12712,-0.00053,-0.00085,-0.00012,-7e-05,3e-05,0.00011,0.0001,9e-05,3,24
12713,-0.00053,-0.00085,-0.00012,-7e-05,3e-05,0.00011,0.0001,9e-05,3,24
12714,-0.00053,-0.00085,-0.00012,-7e-05,3e-05,0.00011,0.0001,9e-05,3,24
12715,-0.00053,-0.00085,-0.00012,-7e-05,3e-05,0.00011,0.0001,9e-05,3,24
12716,-0.00053,-0.00085,-0.00012,-7e-05,3e-05,0.00011,0.0001,9e-05,3,24
12717,-0.00053,-0.00085,-0.00012,-7e-05,3e-05,0.00011,0.0001,9e-05,3,24
12718,-0.00053,-0.00085,-0.00012,-7e-05,3e-05,0.00011,0.0001,9e-05,3,24
12719,-0.00053,-0.00085,-0.00012,-7e-05,3e-05,0.00011,0.0001,9e-05,3,24
12720,-0.00053,-0.00085,-0.00012,-7e-05,3e-05,0.00011,0.0001,9e-05,3,24
12721,-0.00053,-0.00085,-0.00012,-7e-05,3e-05,0.00011,0.0001,9e-05,3,24
12722,4e-05,6e-05,2e-05,0,3e-05,2e-05,-2e-05,0,3,24
12723,4e-05,6e-05,2e-05,0,3e-05,2e-05,-2e-05,0,3,24
12724,4e-05,6e-05,2e-05,0,3e-05,2e-05,-2e-05,0,3,24
12725,4e-05,6e-05,2e-05,0,3e-05,2e-05,-2e-05,0,3,24
12726,4e-05,6e-05,2e-05,0,3e-05,2e-05,-2e-05,0,3,24
12727,4e-05,6e-05,2e-05,0,3e-05,2e-05,-2e-05,0,3,24
12728,4e-05,6e-05,2e-05,0,3e-05,2e-05,-2e-05,0,3,24
12729,-5e-05,-7e-05,0,0,0,-2e-05,0,-8e-05,3,24
12730,0.00023,0.0003,7e-05,1e-05,-2e-05,-2e-05,4e-05,-1e-05,3,24
12731,-0.00011,-0.00018,-2e-05,0,0,2e-05,-1e-05,-1e-05,3,24
12732,-0.00011,-0.00018,-2e-05,0,0,2e-05,-1e-05,-1e-05,3,24
12733,-0.00011,-0.00018,-2e-05,0,0,2e-05,-1e-05,-1e-05,3,24
12734,-0.00011,-0.00018,-2e-05,0,0,2e-05,-1e-05,-1e-05,3,24
12735,-0.00011,-0.00018,-2e-05,0,0,2e-05,-1e-05,-1e-05,3,24
12736,-0.00011,-0.00018,-2e-05,0,0,2e-05,-1e-05,-1e-05,3,24
12738,-0.00011,-0.00018,-2e-05,0,0,2e-05,-1e-05,-1e-05,3,24
12739,-0.00011,-0.00018,-2e-05,0,0,2e-05,-1e-05,-1e-05,3,24
12740,-0.00011,-0.00018,-2e-05,0,0,2e-05,-1e-05,-1e-05,3,24
12741,-0.00011,-0.00018,-2e-05,0,0,2e-05,-1e-05,-1e-05,3,24
12742,-0.00011,-0.00018,-2e-05,0,0,2e-05,-1e-05,-1e-05,3,24
12743,-0.00011,-0.00018,-2e-05,0,0,2e-05,-1e-05,-1e-05,3,24
12744,-0.00011,-0.00018,-2e-05,0,0,2e-05,-1e-05,-1e-05,3,24
12745,-0.00011,-0.00018,-2e-05,0,0,2e-05,-1e-05,-1e-05,3,24
12746,-0.00011,-0.00018,-2e-05,0,0,2e-05,-1e-05,-1e-05,3,24
12747,-0.00011,-0.00018,-2e-05,0,0,2e-05,-1e-05,-1e-05,3,24
12748,-0.00011,-0.00018,-2e-05,0,0,2e-05,-1e-05,-1e-05,3,24
12749,-0.00011,-0.00018,-2e-05,0,0,2e-05,-1e-05,-1e-05,3,24
12750,-0.00011,-0.00018,-2e-05,0,0,2e-05,-1e-05,-1e-05,3,24
12751,-0.00011,-0.00018,-2e-05,0,0,2e-05,-1e-05,-1e-05,3,24
12752,7e-05,0.00014,6e-05,3e-05,1e-05,3e-05,-3e-05,2e-05,3,24
12753,7e-05,0.00014,6e-05,3e-05,1e-05,3e-05,-3e-05,2e-05,3,24
12754,0.0001,0.00013,-2e-05,-2e-05,-2e-05,-2e-05,-2e-05,-4e-05,3,24
12755,0.0001,0.00013,-2e-05,-2e-05,-2e-05,-2e-05,-2e-05,-4e-05,3,24
12756,0.0001,0.00013,-2e-05,-2e-05,-2e-05,-2e-05,-2e-05,-4e-05,3,24
12757,0.0001,0.00013,-2e-05,-2e-05,-2e-05,-2e-05,-2e-05,-4e-05,3,24
12758,0.0001,0.00013,-2e-05,-2e-05,-2e-05,-2e-05,-2e-05,-4e-05,3,24
12759,0.0001,0.00013,-2e-05,-2e-05,-2e-05,-2e-05,-2e-05,-4e-05,3,24
12760,0.0001,0.00013,-2e-05,-2e-05,-2e-05,-2e-05,-2e-05,-4e-05,3,24
12761,0.0001,0.00013,-2e-05,-2e-05,-2e-05,-2e-05,-2e-05,-4e-05,3,24
12762,0.0001,0.00013,-2e-05,-2e-05,-2e-05,-2e-05,-2e-05,-4e-05,3,24
12763,0.0001,0.00013,-2e-05,-2e-05,-2e-05,-2e-05,-2e-05,-4e-05,3,24
12764,0.0001,0.00013,-2e-05,-2e-05,-2e-05,-2e-05,-2e-05,-4e-05,3,24
12765,0.0001,0.00013,-2e-05,-2e-05,-2e-05,-2e-05,-2e-05,-4e-05,3,24
12766,8e-05,0.00025,6e-05,3e-05,-1e-05,-8e-05,-3e-05,-5e-05,3,24
12767,8e-05,0.00025,6e-05,3e-05,-1e-05,-8e-05,-3e-05,-5e-05,3,24
12768,8e-05,0.00025,6e-05,3e-05,-1e-05,-8e-05,-3e-05,-5e-05,3,24
12769,8e-05,0.00025,6e-05,3e-05,-1e-05,-8e-05,-3e-05,-5e-05,3,24
12770,8e-05,0.00025,6e-05,3e-05,-1e-05,-8e-05,-3e-05,-5e-05,3,24
12771,8e-05,0.00025,6e-05,3e-05,-1e-05,-8e-05,-3e-05,-5e-05,3,24
12772,8e-05,0.00025,6e-05,3e-05,-1e-05,-8e-05,-3e-05,-5e-05,3,24
12773,8e-05,0.00025,6e-05,3e-05,-1e-05,-8e-05,-3e-05,-5e-05,3,24
12774,1e-05,-3e-05,-2e-05,-1e-05,-2e-05,1e-05,3e-05,8e-05,3,24
12775,1e-05,-3e-05,-2e-05,-1e-05,-2e-05,1e-05,3e-05,8e-05,3,24
12776,1e-05,-3e-05,-2e-05,-1e-05,-2e-05,1e-05,3e-05,8e-05,3,24
12777,1e-05,-3e-05,-2e-05,-1e-05,-2e-05,1e-05,3e-05,8e-05,3,24
12778,1e-05,-3e-05,-2e-05,-1e-05,-2e-05,1e-05,3e-05,8e-05,3,24
12779,1e-05,-3e-05,-2e-05,-1e-05,-2e-05,1e-05,3e-05,8e-05,3,24
12780,1e-05,-3e-05,-2e-05,-1e-05,-2e-05,1e-05,3e-05,8e-05,3,24
12781,1e-05,-3e-05,-2e-05,-1e-05,-2e-05,1e-05,3e-05,8e-05,3,24
12782,1e-05,-3e-05,-2e-05,-1e-05,-2e-05,1e-05,3e-05,8e-05,3,24
12783,1e-05,-3e-05,-2e-05,-1e-05,-2e-05,1e-05,3e-05,8e-05,3,24
12784,1e-05,-3e-05,-2e-05,-1e-05,-2e-05,1e-05,3e-05,8e-05,3,24
12785,1e-05,-3e-05,-2e-05,-1e-05,-2e-05,1e-05,3e-05,8e-05,3,24
12786,1e-05,-3e-05,-2e-05,-1e-05,-2e-05,1e-05,3e-05,8e-05,3,24
12788,1e-05,-3e-05,-2e-05,-1e-05,-2e-05,1e-05,3e-05,8e-05,3,24
12789,1e-05,-3e-05,-2e-05,-1e-05,-2e-05,1e-05,3e-05,8e-05,3,24
12790,3e-05,5e-05,9e-05,-1e-05,0,-3e-05,-1e-05,-3e-05,3,24
12791,-2e-05,-5e-05,-6e-05,-2e-05,-3e-05,-8e-05,-4e-05,-2e-05,3,24
12792,-2e-05,-5e-05,-6e-05,-2e-05,-3e-05,-8e-05,-4e-05,-2e-05,3,24
12793,-2e-05,-5e-05,-6e-05,-2e-05,-3e-05,-8e-05,-4e-05,-2e-05,3,24
12794,-2e-05,-5e-05,-6e-05,-2e-05,-3e-05,-8e-05,-4e-05,-2e-05,3,24
12795,-2e-05,-5e-05,-6e-05,-2e-05,-3e-05,-8e-05,-4e-05,-2e-05,3,24
12796,-2e-05,-5e-05,-6e-05,-2e-05,-3e-05,-8e-05,-4e-05,-2e-05,3,24
12797,-2e-05,-5e-05,-6e-05,-2e-05,-3e-05,-8e-05,-4e-05,-2e-05,3,24
12798,-2e-05,-5e-05,-6e-05,-2e-05,-3e-05,-8e-05,-4e-05,-2e-05,3,24
12799,-2e-05,-5e-05,-6e-05,-2e-05,-3e-05,-8e-05,-4e-05,-2e-05,3,24
12800,-2e-05,-5e-05,-6e-05,-2e-05,-3e-05,-8e-05,-4e-05,-2e-05,3,24
12801,-2e-05,-5e-05,-6e-05,-2e-05,-3e-05,-8e-05,-4e-05,-2e-05,3,24
12802,-2e-05,-5e-05,-6e-05,-2e-05,-3e-05,-8e-05,-4e-05,-2e-05,3,24
12803,-2e-05,-5e-05,-6e-05,-2e-05,-3e-05,-8e-05,-4e-05,-2e-05,3,24
12804,-2e-05,-5e-05,-6e-05,-2e-05,-3e-05,-8e-05,-4e-05,-2e-05,3,24
12805,-2e-05,-5e-05,-6e-05,-2e-05,-3e-05,-8e-05,-4e-05,-2e-05,3,24
12806,-2e-05,-5e-05,-6e-05,-2e-05,-3e-05,-8e-05,-4e-05,-2e-05,3,24
12807,-2e-05,-5e-05,-6e-05,-2e-05,-3e-05,-8e-05,-4e-05,-2e-05,3,24
12808,-2e-05,-5e-05,-6e-05,-2e-05,-3e-05,-8e-05,-4e-05,-2e-05,3,24
12809,-2e-05,-5e-05,-6e-05,-2e-05,-3e-05,-8e-05,-4e-05,-2e-05,3,24
12810,-2e-05,-5e-05,-6e-05,-2e-05,-3e-05,-8e-05,-4e-05,-2e-05,3,24
12811,-2e-05,-5e-05,-6e-05,-2e-05,-3e-05,-8e-05,-4e-05,-2e-05,3,24
12812,7e-05,0.00012,1e-05,-2e-05,-2e-05,-3e-05,-2e-05,-0.00015,3,24
12813,7e-05,0.00012,1e-05,-2e-05,-2e-05,-3e-05,-2e-05,-0.00015,3,24
12814,6e-05,0.00018,3e-05,1e-05,0,-1e-05,3e-05,1e-05,3,24
12815,6e-05,0.00018,3e-05,1e-05,0,-1e-05,3e-05,1e-05,3,24
12816,6e-05,0.00018,3e-05,1e-05,0,-1e-05,3e-05,1e-05,3,24
12817,6e-05,0.00018,3e-05,1e-05,0,-1e-05,3e-05,1e-05,3,24
12818,6e-05,0.00018,3e-05,1e-05,0,-1e-05,3e-05,1e-05,3,24
12819,6e-05,0.00018,3e-05,1e-05,0,-1e-05,3e-05,1e-05,3,24
12820,6e-05,0.00018,3e-05,1e-05,0,-1e-05,3e-05,1e-05,3,24
12821,6e-05,0.00018,3e-05,1e-05,0,-1e-05,3e-05,1e-05,3,24
12822,6e-05,0.00018,3e-05,1e-05,0,-1e-05,3e-05,1e-05,3,24
12823,6e-05,0.00018,3e-05,1e-05,0,-1e-05,3e-05,1e-05,3,24
12824,6e-05,0.00018,3e-05,1e-05,0,-1e-05,3e-05,1e-05,3,24
12825,6e-05,0.00018,3e-05,1e-05,0,-1e-05,3e-05,1e-05,3,24
12826,6e-05,0.00018,3e-05,1e-05,0,-1e-05,3e-05,1e-05,3,24
12827,6e-05,0.00018,3e-05,1e-05,0,-1e-05,3e-05,1e-05,3,24
12828,6e-05,0.00018,3e-05,1e-05,0,-1e-05,3e-05,1e-05,3,24
12829,6e-05,0.00018,3e-05,1e-05,0,-1e-05,3e-05,1e-05,3,24
12830,6e-05,0.00018,3e-05,1e-05,0,-1e-05,3e-05,1e-05,3,24
12831,6e-05,0.00018,3e-05,1e-05,0,-1e-05,3e-05,1e-05,3,24
12832,6e-05,0.00018,3e-05,1e-05,0,-1e-05,3e-05,1e-05,3,24
12833,6e-05,0.00018,3e-05,1e-05,0,-1e-05,3e-05,1e-05,3,24
12834,0.00026,0.00038,1e-05,-1e-05,-6e-05,-4e-05,-2e-05,-2e-05,3,24
12835,0.00026,0.00038,1e-05,-1e-05,-6e-05,-4e-05,-2e-05,-2e-05,3,24
12836,-1e-05,1e-05,-1e-05,-1e-05,-1e-05,-2e-05,-1e-05,-5e-05,3,24
12838,-1e-05,1e-05,-1e-05,-1e-05,-1e-05,-2e-05,-1e-05,-5e-05,3,24
12839,-1e-05,1e-05,-1e-05,-1e-05,-1e-05,-2e-05,-1e-05,-5e-05,3,24
12840,-1e-05,1e-05,-1e-05,-1e-05,-1e-05,-2e-05,-1e-05,-5e-05,3,24
12841,-1e-05,1e-05,-1e-05,-1e-05,-1e-05,-2e-05,-1e-05,-5e-05,3,24
12842,-1e-05,1e-05,-1e-05,-1e-05,-1e-05,-2e-05,-1e-05,-5e-05,3,24
12843,-1e-05,1e-05,-1e-05,-1e-05,-1e-05,-2e-05,-1e-05,-5e-05,3,24
12844,-1e-05,1e-05,-1e-05,-1e-05,-1e-05,-2e-05,-1e-05,-5e-05,3,24
12845,-1e-05,1e-05,-1e-05,-1e-05,-1e-05,-2e-05,-1e-05,-5e-05,3,24
12846,-1e-05,1e-05,-1e-05,-1e-05,-1e-05,-2e-05,-1e-05,-5e-05,3,24
12847,-1e-05,1e-05,-1e-05,-1e-05,-1e-05,-2e-05,-1e-05,-5e-05,3,24
12848,-1e-05,1e-05,-1e-05,-1e-05,-1e-05,-2e-05,-1e-05,-5e-05,3,24
12849,-1e-05,-0.00011,-2e-05,0,3e-05,6e-05,3e-05,-3e-05,3,24
12850,0,3e-05,-3e-05,-2e-05,0,-2e-05,-2e-05,-3e-05,3,24
12851,-4e-05,-9e-05,-6e-05,-1e-05,0,1e-05,0,-1e-05,3,24
12852,-4e-05,-9e-05,-6e-05,-1e-05,0,1e-05,0,-1e-05,3,24
12853,-4e-05,-9e-05,-6e-05,-1e-05,0,1e-05,0,-1e-05,3,24
12854,-4e-05,-9e-05,-6e-05,-1e-05,0,1e-05,0,-1e-05,3,24
12855,-4e-05,-9e-05,-6e-05,-1e-05,0,1e-05,0,-1e-05,3,24
12856,-4e-05,-9e-05,-6e-05,-1e-05,0,1e-05,0,-1e-05,3,24
12857,-4e-05,-9e-05,-6e-05,-1e-05,0,1e-05,0,-1e-05,3,24
12858,-4e-05,-9e-05,-6e-05,-1e-05,0,1e-05,0,-1e-05,3,24
12859,-4e-05,-9e-05,-6e-05,-1e-05,0,1e-05,0,-1e-05,3,24
12860,-4e-05,-9e-05,-6e-05,-1e-05,0,1e-05,0,-1e-05,3,24
12861,-4e-05,-9e-05,-6e-05,-1e-05,0,1e-05,0,-1e-05,3,24
12862,-4e-05,-9e-05,-6e-05,-1e-05,0,1e-05,0,-1e-05,3,24
12863,-4e-05,-9e-05,-6e-05,-1e-05,0,1e-05,0,-1e-05,3,24
12864,-4e-05,-9e-05,-6e-05,-1e-05,0,1e-05,0,-1e-05,3,24
12865,-4e-05,-9e-05,-6e-05,-1e-05,0,1e-05,0,-1e-05,3,24
12866,-4e-05,-9e-05,-6e-05,-1e-05,0,1e-05,0,-1e-05,3,24
12867,-4e-05,-9e-05,-6e-05,-1e-05,0,1e-05,0,-1e-05,3,24
12868,-4e-05,-9e-05,-6e-05,-1e-05,0,1e-05,0,-1e-05,3,24
12869,-4e-05,-9e-05,-6e-05,-1e-05,0,1e-05,0,-1e-05,3,24
12870,-4e-05,-9e-05,-6e-05,-1e-05,0,1e-05,0,-1e-05,3,24
12871,-4e-05,-9e-05,-6e-05,-1e-05,0,1e-05,0,-1e-05,3,24
12872,-5e-05,-0.00013,-5e-05,0,-2e-05,-1e-05,0,2e-05,3,24
12873,-5e-05,-0.00013,-5e-05,0,-2e-05,-1e-05,0,2e-05,3,24
12874,-6e-05,-8e-05,1e-05,-1e-05,-2e-05,-2e-05,1e-05,-1e-05,3,24
12875,-6e-05,-8e-05,1e-05,-1e-05,-2e-05,-2e-05,1e-05,-1e-05,3,24
12876,-6e-05,-8e-05,1e-05,-1e-05,-2e-05,-2e-05,1e-05,-1e-05,3,24
12877,-6e-05,-8e-05,1e-05,-1e-05,-2e-05,-2e-05,1e-05,-1e-05,3,24
12878,-6e-05,-8e-05,1e-05,-1e-05,-2e-05,-2e-05,1e-05,-1e-05,3,24
12879,-6e-05,-8e-05,1e-05,-1e-05,-2e-05,-2e-05,1e-05,-1e-05,3,24
12880,-6e-05,-8e-05,1e-05,-1e-05,-2e-05,-2e-05,1e-05,-1e-05,3,24
12881,-6e-05,-8e-05,1e-05,-1e-05,-2e-05,-2e-05,1e-05,-1e-05,3,24
12882,-6e-05,-8e-05,1e-05,-1e-05,-2e-05,-2e-05,1e-05,-1e-05,3,24
12883,-6e-05,-8e-05,1e-05,-1e-05,-2e-05,-2e-05,1e-05,-1e-05,3,24
12884,-6e-05,-8e-05,1e-05,-1e-05,-2e-05,-2e-05,1e-05,-1e-05,3,24
12885,-6e-05,-8e-05,1e-05,-1e-05,-2e-05,-2e-05,1e-05,-1e-05,3,24
12886,-6e-05,-8e-05,1e-05,-1e-05,-2e-05,-2e-05,1e-05,-1e-05,3,24
12888,-6e-05,-8e-05,1e-05,-1e-05,-2e-05,-2e-05,1e-05,-1e-05,3,24
12889,-6e-05,-8e-05,1e-05,-1e-05,-2e-05,-2e-05,1e-05,-1e-05,3,24
12890,-6e-05,-8e-05,1e-05,-1e-05,-2e-05,-2e-05,1e-05,-1e-05,3,24
12891,-6e-05,-8e-05,1e-05,-1e-05,-2e-05,-2e-05,1e-05,-1e-05,3,24
12892,-6e-05,-8e-05,1e-05,-1e-05,-2e-05,-2e-05,1e-05,-1e-05,3,24
12893,-6e-05,-8e-05,1e-05,-1e-05,-2e-05,-2e-05,1e-05,-1e-05,3,24
12894,-3e-05,5e-05,0,-2e-05,-1e-05,-3e-05,-5e-05,-0.00028,3,24
12895,-1e-05,1e-05,-2e-05,-1e-05,-1e-05,-1e-05,0,2e-05,3,24
12896,-4e-05,-0.00011,-0.00014,-2e-05,0,1e-05,-2e-05,-2e-05,3,24
12897,-4e-05,-0.00011,-0.00014,-2e-05,0,1e-05,-2e-05,-2e-05,3,24
12898,-4e-05,-0.00011,-0.00014,-2e-05,0,1e-05,-2e-05,-2e-05,3,24
12899,-4e-05,-0.00011,-0.00014,-2e-05,0,1e-05,-2e-05,-2e-05,3,24
12900,-4e-05,-0.00011,-0.00014,-2e-05,0,1e-05,-2e-05,-2e-05,3,24
12901,-4e-05,-0.00011,-0.00014,-2e-05,0,1e-05,-2e-05,-2e-05,3,24
12902,-4e-05,-0.00011,-0.00014,-2e-05,0,1e-05,-2e-05,-2e-05,3,24
12903,-4e-05,-0.00011,-0.00014,-2e-05,0,1e-05,-2e-05,-2e-05,3,24
12904,-4e-05,-0.00011,-0.00014,-2e-05,0,1e-05,-2e-05,-2e-05,3,24
12905,-4e-05,-0.00011,-0.00014,-2e-05,0,1e-05,-2e-05,-2e-05,3,24
12906,-4e-05,-0.00011,-0.00014,-2e-05,0,1e-05,-2e-05,-2e-05,3,24
12907,-4e-05,-0.00011,-0.00014,-2e-05,0,1e-05,-2e-05,-2e-05,3,24
12908,-4e-05,-0.00011,-0.00014,-2e-05,0,1e-05,-2e-05,-2e-05,3,24
12909,3e-05,-1e-05,-4e-05,-1e-05,-1e-05,-1e-05,1e-05,0.0001,3,24
12910,-2e-05,1e-05,3e-05,-2e-05,-1e-05,3e-05,1e-05,-3e-05,3,24
12911,2e-05,3e-05,1e-05,-3e-05,-2e-05,-1e-05,0,0,3,24
12912,2e-05,3e-05,1e-05,-3e-05,-2e-05,-1e-05,0,0,3,24
12913,2e-05,3e-05,1e-05,-3e-05,-2e-05,-1e-05,0,0,3,24
12914,2e-05,3e-05,1e-05,-3e-05,-2e-05,-1e-05,0,0,3,24
12915,2e-05,3e-05,1e-05,-3e-05,-2e-05,-1e-05,0,0,3,24
12916,2e-05,3e-05,1e-05,-3e-05,-2e-05,-1e-05,0,0,3,24
12917,2e-05,3e-05,1e-05,-3e-05,-2e-05,-1e-05,0,0,3,24
12918,2e-05,3e-05,1e-05,-3e-05,-2e-05,-1e-05,0,0,3,24
12919,2e-05,3e-05,1e-05,-3e-05,-2e-05,-1e-05,0,0,3,24
12920,2e-05,3e-05,1e-05,-3e-05,-2e-05,-1e-05,0,0,3,24
12921,2e-05,3e-05,1e-05,-3e-05,-2e-05,-1e-05,0,0,3,24
12922,2e-05,3e-05,1e-05,-3e-05,-2e-05,-1e-05,0,0,3,24
12923,2e-05,3e-05,1e-05,-3e-05,-2e-05,-1e-05,0,0,3,24
12924,2e-05,3e-05,1e-05,-3e-05,-2e-05,-1e-05,0,0,3,24
12925,2e-05,3e-05,1e-05,-3e-05,-2e-05,-1e-05,0,0,3,24
12926,2e-05,3e-05,1e-05,-3e-05,-2e-05,-1e-05,0,0,3,24
12927,2e-05,3e-05,1e-05,-3e-05,-2e-05,-1e-05,0,0,3,24
12928,2e-05,3e-05,1e-05,-3e-05,-2e-05,-1e-05,0,0,3,24
12929,2e-05,3e-05,1e-05,-3e-05,-2e-05,-1e-05,0,0,3,24
12930,2e-05,3e-05,1e-05,-3e-05,-2e-05,-1e-05,0,0,3,24
12931,2e-05,3e-05,1e-05,-3e-05,-2e-05,-1e-05,0,0,3,24
12932,-0.00011,-0.00016,-6e-05,-3e-05,0,-3e-05,1e-05,1e-05,3,24
12933,8e-05,0,0,1e-05,-1e-05,0,1e-05,-7e-05,3,24
12935,8e-05,0,0,1e-05,-1e-05,0,1e-05,-7e-05,3,24
12936,8e-05,0,0,1e-05,-1e-05,0,1e-05,-7e-05,3,24
12938,8e-05,0,0,1e-05,-1e-05,0,1e-05,-7e-05,3,24
12939,8e-05,0,0,1e-05,-1e-05,0,1e-05,-7e-05,3,24
12940,8e-05,0,0,1e-05,-1e-05,0,1e-05,-7e-05,3,24
12941,8e-05,0,0,1e-05,-1e-05,0,1e-05,-7e-05,3,24
12942,8e-05,0,0,1e-05,-1e-05,0,1e-05,-7e-05,3,24
12943,8e-05,0,0,1e-05,-1e-05,0,1e-05,-7e-05,3,24
12944,8e-05,0,0,1e-05,-1e-05,0,1e-05,-7e-05,3,24
12945,8e-05,0,0,1e-05,-1e-05,0,1e-05,-7e-05,3,24
12946,8e-05,0,0,1e-05,-1e-05,0,1e-05,-7e-05,3,24
12947,8e-05,0,0,1e-05,-1e-05,0,1e-05,-7e-05,3,24
12948,8e-05,0,0,1e-05,-1e-05,0,1e-05,-7e-05,3,24
12949,8e-05,0,0,1e-05,-1e-05,0,1e-05,-7e-05,3,24
12950,8e-05,0,0,1e-05,-1e-05,0,1e-05,-7e-05,3,24
12951,8e-05,0,0,1e-05,-1e-05,0,1e-05,-7e-05,3,24
12952,8e-05,0,0,1e-05,-1e-05,0,1e-05,-7e-05,3,24
12953,8e-05,0,0,1e-05,-1e-05,0,1e-05,-7e-05,3,24
12954,8e-05,0,0,1e-05,-1e-05,0,1e-05,-7e-05,3,24
12955,5e-05,3e-05,1e-05,-3e-05,-2e-05,-3e-05,-3e-05,0.00017,3,24
12956,-2e-05,-4e-05,1e-05,1e-05,-2e-05,-3e-05,-4e-05,3e-05,3,24
12957,-2e-05,-4e-05,1e-05,1e-05,-2e-05,-3e-05,-4e-05,3e-05,3,24
12958,-2e-05,-4e-05,1e-05,1e-05,-2e-05,-3e-05,-4e-05,3e-05,3,24
12959,-2e-05,-4e-05,1e-05,1e-05,-2e-05,-3e-05,-4e-05,3e-05,3,24
12960,-2e-05,-4e-05,1e-05,1e-05,-2e-05,-3e-05,-4e-05,3e-05,3,24
12961,-2e-05,-4e-05,1e-05,1e-05,-2e-05,-3e-05,-4e-05,3e-05,3,24
12962,-2e-05,-4e-05,1e-05,1e-05,-2e-05,-3e-05,-4e-05,3e-05,3,24
12963,-2e-05,-4e-05,1e-05,1e-05,-2e-05,-3e-05,-4e-05,3e-05,3,24
12964,-2e-05,-4e-05,1e-05,1e-05,-2e-05,-3e-05,-4e-05,3e-05,3,24
12965,-2e-05,-4e-05,1e-05,1e-05,-2e-05,-3e-05,-4e-05,3e-05,3,24
12966,-2e-05,-4e-05,1e-05,1e-05,-2e-05,-3e-05,-4e-05,3e-05,3,24
12967,-2e-05,-4e-05,1e-05,1e-05,-2e-05,-3e-05,-4e-05,3e-05,3,24
12968,-2e-05,-4e-05,1e-05,1e-05,-2e-05,-3e-05,-4e-05,3e-05,3,24
12969,-6e-05,-8e-05,-1e-05,2e-05,-2e-05,-2e-05,0,3e-05,3,24
12970,-6e-05,-8e-05,-1e-05,2e-05,-2e-05,-2e-05,0,3e-05,3,24
12971,-6e-05,-8e-05,-1e-05,2e-05,-2e-05,-2e-05,0,3e-05,3,24
12972,-6e-05,-8e-05,-1e-05,2e-05,-2e-05,-2e-05,0,3e-05,3,24
12973,-6e-05,-8e-05,-1e-05,2e-05,-2e-05,-2e-05,0,3e-05,3,24
12974,-6e-05,-8e-05,-1e-05,2e-05,-2e-05,-2e-05,0,3e-05,3,24
12975,-6e-05,-8e-05,-1e-05,2e-05,-2e-05,-2e-05,0,3e-05,3,24
12976,-6e-05,7e-05,3e-05,0,-1e-05,0,1e-05,-3e-05,3,24
12977,-6e-05,7e-05,3e-05,0,-1e-05,0,1e-05,-3e-05,3,24
12978,-6e-05,7e-05,3e-05,0,-1e-05,0,1e-05,-3e-05,3,24
12979,-6e-05,7e-05,3e-05,0,-1e-05,0,1e-05,-3e-05,3,24
12980,-6e-05,7e-05,3e-05,0,-1e-05,0,1e-05,-3e-05,3,24
12981,-6e-05,7e-05,3e-05,0,-1e-05,0,1e-05,-3e-05,3,24
12982,-6e-05,7e-05,3e-05,0,-1e-05,0,1e-05,-3e-05,3,24
12983,-6e-05,7e-05,3e-05,0,-1e-05,0,1e-05,-3e-05,3,24
12984,-6e-05,7e-05,3e-05,0,-1e-05,0,1e-05,-3e-05,3,24
12985,-6e-05,7e-05,3e-05,0,-1e-05,0,1e-05,-3e-05,3,24
12986,-6e-05,7e-05,3e-05,0,-1e-05,0,1e-05,-3e-05,3,24
12988,-6e-05,7e-05,3e-05,0,-1e-05,0,1e-05,-3e-05,3,24
12989,-6e-05,7e-05,3e-05,0,-1e-05,0,1e-05,-3e-05,3,24
12990,-6e-05,7e-05,3e-05,0,-1e-05,0,1e-05,-3e-05,3,24
12991,-6e-05,7e-05,3e-05,0,-1e-05,0,1e-05,-3e-05,3,24
12992,2e-05,0,-1e-05,0,0,-1e-05,-2e-05,-0.00032,3,24
12993,2e-05,0,-1e-05,0,0,-1e-05,-2e-05,-0.00032,3,24
12994,-0.00016,-0.0002,1e-05,0,1e-05,3e-05,0,-7e-05,3,24
12995,-0.00016,-0.0002,1e-05,0,1e-05,3e-05,0,-7e-05,3,24
12996,-0.00016,-0.0002,1e-05,0,1e-05,3e-05,0,-7e-05,3,24
12997,-0.00016,-0.0002,1e-05,0,1e-05,3e-05,0,-7e-05,3,24
12998,-0.00016,-0.0002,1e-05,0,1e-05,3e-05,0,-7e-05,3,24
12999,-0.00016,-0.0002,1e-05,0,1e-05,3e-05,0,-7e-05,3,24
13000,-0.00016,-0.0002,1e-05,0,1e-05,3e-05,0,-7e-05,3,24
13001,-0.00016,-0.0002,1e-05,0,1e-05,3e-05,0,-7e-05,3,24
13002,-0.00016,-0.0002,1e-05,0,1e-05,3e-05,0,-7e-05,3,24
13003,-0.00016,-0.0002,1e-05,0,1e-05,3e-05,0,-7e-05,3,24
13004,-0.00016,-0.0002,1e-05,0,1e-05,3e-05,0,-7e-05,3,24
13005,-0.00016,-0.0002,1e-05,0,1e-05,3e-05,0,-7e-05,3,24
13006,-0.00016,-0.0002,1e-05,0,1e-05,3e-05,0,-7e-05,3,24
13007,-0.00016,-0.0002,1e-05,0,1e-05,3e-05,0,-7e-05,3,24
13008,-0.00016,-0.0002,1e-05,0,1e-05,3e-05,0,-7e-05,3,24
13009,-0.00016,-0.0002,1e-05,0,1e-05,3e-05,0,-7e-05,3,24
13010,-0.00016,-0.0002,1e-05,0,1e-05,3e-05,0,-7e-05,3,24
13011,-0.00016,-0.0002,1e-05,0,1e-05,3e-05,0,-7e-05,3,24
13012,-0.00016,-0.0002,1e-05,0,1e-05,3e-05,0,-7e-05,3,24
13013,-0.00016,-0.0002,1e-05,0,1e-05,3e-05,0,-7e-05,3,24
13014,5e-05,4e-05,0,-1e-05,0,2e-05,-4e-05,0,3,24
13015,5e-05,4e-05,0,-1e-05,0,2e-05,-4e-05,0,3,24
13016,0.00016,0.0001,-0.00011,-2e-05,0,-1e-05,0,3e-05,3,24
13017,0.00016,0.0001,-0.00011,-2e-05,0,-1e-05,0,3e-05,3,24
13018,0.00016,0.0001,-0.00011,-2e-05,0,-1e-05,0,3e-05,3,24
13019,0.00016,0.0001,-0.00011,-2e-05,0,-1e-05,0,3e-05,3,24
13020,0.00016,0.0001,-0.00011,-2e-05,0,-1e-05,0,3e-05,3,24
13021,0.00016,0.0001,-0.00011,-2e-05,0,-1e-05,0,3e-05,3,24
13022,0.00016,0.0001,-0.00011,-2e-05,0,-1e-05,0,3e-05,3,24
13023,0.00016,0.0001,-0.00011,-2e-05,0,-1e-05,0,3e-05,3,24
13024,0.00016,0.0001,-0.00011,-2e-05,0,-1e-05,0,3e-05,3,24
13025,0.00016,0.0001,-0.00011,-2e-05,0,-1e-05,0,3e-05,3,24
13026,0.00016,0.0001,-0.00011,-2e-05,0,-1e-05,0,3e-05,3,24
13027,0.00016,0.0001,-0.00011,-2e-05,0,-1e-05,0,3e-05,3,24
13028,0.00016,0.0001,-0.00011,-2e-05,0,-1e-05,0,3e-05,3,24
13029,-5e-05,0,1e-05,-1e-05,-1e-05,0,-4e-05,1e-05,3,24
13030,-5e-05,0,1e-05,-1e-05,-1e-05,0,-4e-05,1e-05,3,24
13031,-5e-05,0,1e-05,-1e-05,-1e-05,0,-4e-05,1e-05,3,24
13032,-5e-05,0,1e-05,-1e-05,-1e-05,0,-4e-05,1e-05,3,24
13033,-5e-05,0,1e-05,-1e-05,-1e-05,0,-4e-05,1e-05,3,24
13034,-5e-05,0,1e-05,-1e-05,-1e-05,0,-4e-05,1e-05,3,24
13035,-5e-05,0,1e-05,-1e-05,-1e-05,0,-4e-05,1e-05,3,24
13036,0,0.0001,4e-05,-1e-05,0,0,-2e-05,6e-05,3,24
13038,0,0.0001,4e-05,-1e-05,0,0,-2e-05,6e-05,3,24
13039,0,0.0001,4e-05,-1e-05,0,0,-2e-05,6e-05,3,24
13040,0,0.0001,4e-05,-1e-05,0,0,-2e-05,6e-05,3,24
13041,0,0.0001,4e-05,-1e-05,0,0,-2e-05,6e-05,3,24
13042,0,0.0001,4e-05,-1e-05,0,0,-2e-05,6e-05,3,24
13043,0,0.0001,4e-05,-1e-05,0,0,-2e-05,6e-05,3,24
13044,0,0.0001,4e-05,-1e-05,0,0,-2e-05,6e-05,3,24
13045,0,0.0001,4e-05,-1e-05,0,0,-2e-05,6e-05,3,24
13046,0,0.0001,4e-05,-1e-05,0,0,-2e-05,6e-05,3,24
13047,0,0.0001,4e-05,-1e-05,0,0,-2e-05,6e-05,3,24
13048,0,0.0001,4e-05,-1e-05,0,0,-2e-05,6e-05,3,24
13049,0,0.0001,4e-05,-1e-05,0,0,-2e-05,6e-05,3,24
13050,0,0.0001,4e-05,-1e-05,0,0,-2e-05,6e-05,3,24
13051,0,0.0001,4e-05,-1e-05,0,0,-2e-05,6e-05,3,24
13052,-0.00021,-0.00056,-7e-05,-1e-05,-2e-05,3e-05,0,-6e-05,3,24
13053,-0.00012,-0.00019,-4e-05,-2e-05,-3e-05,2e-05,0,-5e-05,3,24
13054,-0.00012,-0.00019,-4e-05,-2e-05,-3e-05,2e-05,0,-5e-05,3,24
13055,-0.00012,-0.00019,-4e-05,-2e-05,-3e-05,2e-05,0,-5e-05,3,24
13056,-0.00012,-0.00019,-4e-05,-2e-05,-3e-05,2e-05,0,-5e-05,3,24
13057,-0.00012,-0.00019,-4e-05,-2e-05,-3e-05,2e-05,0,-5e-05,3,24
13058,-0.00012,-0.00019,-4e-05,-2e-05,-3e-05,2e-05,0,-5e-05,3,24
13059,-0.00012,-0.00019,-4e-05,-2e-05,-3e-05,2e-05,0,-5e-05,3,24
13060,-0.00012,-0.00019,-4e-05,-2e-05,-3e-05,2e-05,0,-5e-05,3,24
13061,-0.00012,-0.00019,-4e-05,-2e-05,-3e-05,2e-05,0,-5e-05,3,24
13062,-0.00012,-0.00019,-4e-05,-2e-05,-3e-05,2e-05,0,-5e-05,3,24
13063,-0.00012,-0.00019,-4e-05,-2e-05,-3e-05,2e-05,0,-5e-05,3,24
13064,-0.00012,-0.00019,-4e-05,-2e-05,-3e-05,2e-05,0,-5e-05,3,24
13065,-0.00012,-0.00019,-4e-05,-2e-05,-3e-05,2e-05,0,-5e-05,3,24
13066,-0.00012,-0.00019,-4e-05,-2e-05,-3e-05,2e-05,0,-5e-05,3,24
13067,-0.00012,-0.00019,-4e-05,-2e-05,-3e-05,2e-05,0,-5e-05,3,24
13068,-0.00012,-0.00019,-4e-05,-2e-05,-3e-05,2e-05,0,-5e-05,3,24
13069,-0.00012,-0.00019,-4e-05,-2e-05,-3e-05,2e-05,0,-5e-05,3,24
13070,-0.00012,-0.00019,-4e-05,-2e-05,-3e-05,2e-05,0,-5e-05,3,24
13071,-0.00012,-0.00019,-4e-05,-2e-05,-3e-05,2e-05,0,-5e-05,3,24
13072,-0.00012,-0.00019,-4e-05,-2e-05,-3e-05,2e-05,0,-5e-05,3,24
13073,-0.00012,-0.00019,-4e-05,-2e-05,-3e-05,2e-05,0,-5e-05,3,24
13074,-4e-05,-5e-05,0,-4e-05,-2e-05,2e-05,1e-05,1e-05,3,24
13075,-4e-05,-5e-05,0,-4e-05,-2e-05,2e-05,1e-05,1e-05,3,24
13076,-1e-05,-9e-05,-3e-05,-3e-05,0,-3e-05,-3e-05,-1e-05,3,24
13077,-1e-05,-9e-05,-3e-05,-3e-05,0,-3e-05,-3e-05,-1e-05,3,24
13078,-1e-05,-9e-05,-3e-05,-3e-05,0,-3e-05,-3e-05,-1e-05,3,24
13079,-1e-05,-9e-05,-3e-05,-3e-05,0,-3e-05,-3e-05,-1e-05,3,24
13080,-1e-05,-9e-05,-3e-05,-3e-05,0,-3e-05,-3e-05,-1e-05,3,24
13081,-1e-05,-9e-05,-3e-05,-3e-05,0,-3e-05,-3e-05,-1e-05,3,24
13082,-1e-05,-9e-05,-3e-05,-3e-05,0,-3e-05,-3e-05,-1e-05,3,24
13083,-1e-05,-9e-05,-3e-05,-3e-05,0,-3e-05,-3e-05,-1e-05,3,24
13084,-1e-05,-9e-05,-3e-05,-3e-05,0,-3e-05,-3e-05,-1e-05,3,24
13085,-1e-05,-9e-05,-3e-05,-3e-05,0,-3e-05,-3e-05,-1e-05,3,24
13086,-1e-05,-9e-05,-3e-05,-3e-05,0,-3e-05,-3e-05,-1e-05,3,24
13088,-1e-05,-9e-05,-3e-05,-3e-05,0,-3e-05,-3e-05,-1e-05,3,24
13089,4e-05,6e-05,-2e-05,1e-05,-2e-05,-1e-05,2e-05,3e-05,3,24
13090,4e-05,6e-05,-2e-05,1e-05,-2e-05,-1e-05,2e-05,3e-05,3,24
13091,4e-05,6e-05,-2e-05,1e-05,-2e-05,-1e-05,2e-05,3e-05,3,24
13092,4e-05,6e-05,-2e-05,1e-05,-2e-05,-1e-05,2e-05,3e-05,3,24
13093,4e-05,6e-05,-2e-05,1e-05,-2e-05,-1e-05,2e-05,3e-05,3,24
13094,4e-05,6e-05,-2e-05,1e-05,-2e-05,-1e-05,2e-05,3e-05,3,24
13095,4e-05,6e-05,-2e-05,1e-05,-2e-05,-1e-05,2e-05,3e-05,3,24
13096,5e-05,-4e-05,-2e-05,-3e-05,-3e-05,-5e-05,-8e-05,9e-05,3,24
13097,5e-05,-4e-05,-2e-05,-3e-05,-3e-05,-5e-05,-8e-05,9e-05,3,24
13098,5e-05,-4e-05,-2e-05,-3e-05,-3e-05,-5e-05,-8e-05,9e-05,3,24
13099,5e-05,-4e-05,-2e-05,-3e-05,-3e-05,-5e-05,-8e-05,9e-05,3,24
13100,5e-05,-4e-05,-2e-05,-3e-05,-3e-05,-5e-05,-8e-05,9e-05,3,24
13101,5e-05,-4e-05,-2e-05,-3e-05,-3e-05,-5e-05,-8e-05,9e-05,3,24
13102,5e-05,-4e-05,-2e-05,-3e-05,-3e-05,-5e-05,-8e-05,9e-05,3,24
13103,5e-05,-4e-05,-2e-05,-3e-05,-3e-05,-5e-05,-8e-05,9e-05,3,24
13104,5e-05,-4e-05,-2e-05,-3e-05,-3e-05,-5e-05,-8e-05,9e-05,3,24
13105,5e-05,-4e-05,-2e-05,-3e-05,-3e-05,-5e-05,-8e-05,9e-05,3,24
13106,5e-05,-4e-05,-2e-05,-3e-05,-3e-05,-5e-05,-8e-05,9e-05,3,24
13107,5e-05,-4e-05,-2e-05,-3e-05,-3e-05,-5e-05,-8e-05,9e-05,3,24
13108,5e-05,-4e-05,-2e-05,-3e-05,-3e-05,-5e-05,-8e-05,9e-05,3,24
13109,5e-05,-4e-05,-2e-05,-3e-05,-3e-05,-5e-05,-8e-05,9e-05,3,24
13110,5e-05,-4e-05,-2e-05,-3e-05,-3e-05,-5e-05,-8e-05,9e-05,3,24
13111,5e-05,-4e-05,-2e-05,-3e-05,-3e-05,-5e-05,-8e-05,9e-05,3,24
13112,9e-05,0.00014,1e-05,-1e-05,1e-05,-2e-05,-1e-05,-2e-05,3,24
13113,9e-05,0.00014,1e-05,-1e-05,1e-05,-2e-05,-1e-05,-2e-05,3,24
13114,-9e-05,5e-05,-1e-05,1e-05,-1e-05,1e-05,-2e-05,-0.0003,3,24
13115,-9e-05,5e-05,-1e-05,1e-05,-1e-05,1e-05,-2e-05,-0.0003,3,24
13116,-9e-05,5e-05,-1e-05,1e-05,-1e-05,1e-05,-2e-05,-0.0003,3,24
13117,-9e-05,5e-05,-1e-05,1e-05,-1e-05,1e-05,-2e-05,-0.0003,3,24
13118,-9e-05,5e-05,-1e-05,1e-05,-1e-05,1e-05,-2e-05,-0.0003,3,24
13119,-9e-05,5e-05,-1e-05,1e-05,-1e-05,1e-05,-2e-05,-0.0003,3,24
13120,-9e-05,5e-05,-1e-05,1e-05,-1e-05,1e-05,-2e-05,-0.0003,3,24
13121,-9e-05,5e-05,-1e-05,1e-05,-1e-05,1e-05,-2e-05,-0.0003,3,24
13122,-9e-05,5e-05,-1e-05,1e-05,-1e-05,1e-05,-2e-05,-0.0003,3,24
13123,-9e-05,5e-05,-1e-05,1e-05,-1e-05,1e-05,-2e-05,-0.0003,3,24
13124,-9e-05,5e-05,-1e-05,1e-05,-1e-05,1e-05,-2e-05,-0.0003,3,24
13125,-9e-05,5e-05,-1e-05,1e-05,-1e-05,1e-05,-2e-05,-0.0003,3,24
13126,-9e-05,5e-05,-1e-05,1e-05,-1e-05,1e-05,-2e-05,-0.0003,3,24
13127,-9e-05,5e-05,-1e-05,1e-05,-1e-05,1e-05,-2e-05,-0.0003,3,24
13128,-9e-05,5e-05,-1e-05,1e-05,-1e-05,1e-05,-2e-05,-0.0003,3,24
13129,-9e-05,5e-05,-1e-05,1e-05,-1e-05,1e-05,-2e-05,-0.0003,3,24
13130,-9e-05,5e-05,-1e-05,1e-05,-1e-05,1e-05,-2e-05,-0.0003,3,24
13131,-9e-05,5e-05,-1e-05,1e-05,-1e-05,1e-05,-2e-05,-0.0003,3,24
13132,-9e-05,5e-05,-1e-05,1e-05,-1e-05,1e-05,-2e-05,-0.0003,3,24
13133,-9e-05,5e-05,-1e-05,1e-05,-1e-05,1e-05,-2e-05,-0.0003,3,24
13134,-3e-05,2e-05,0,-2e-05,-2e-05,0,-1e-05,2e-05,3,24
13135,-3e-05,2e-05,0,-2e-05,-2e-05,0,-1e-05,2e-05,3,24
13136,-4e-05,5e-05,3e-05,-1e-05,0,2e-05,1e-05,7e-05,3,24
13138,-4e-05,5e-05,3e-05,-1e-05,0,2e-05,1e-05,7e-05,3,24
13139,-4e-05,5e-05,3e-05,-1e-05,0,2e-05,1e-05,7e-05,3,24
13140,-4e-05,5e-05,3e-05,-1e-05,0,2e-05,1e-05,7e-05,3,24
13141,-4e-05,5e-05,3e-05,-1e-05,0,2e-05,1e-05,7e-05,3,24
13142,-4e-05,5e-05,3e-05,-1e-05,0,2e-05,1e-05,7e-05,3,24
13143,-4e-05,5e-05,3e-05,-1e-05,0,2e-05,1e-05,7e-05,3,24
13144,-4e-05,5e-05,3e-05,-1e-05,0,2e-05,1e-05,7e-05,3,24
13145,-4e-05,5e-05,3e-05,-1e-05,0,2e-05,1e-05,7e-05,3,24
13146,-4e-05,5e-05,3e-05,-1e-05,0,2e-05,1e-05,7e-05,3,24
13147,-4e-05,5e-05,3e-05,-1e-05,0,2e-05,1e-05,7e-05,3,24
13148,-4e-05,5e-05,3e-05,-1e-05,0,2e-05,1e-05,7e-05,3,24
13149,6e-05,7e-05,-6e-05,-1e-05,0,-1e-05,-2e-05,-7e-05,3,24
13150,6e-05,7e-05,-6e-05,-1e-05,0,-1e-05,-2e-05,-7e-05,3,24
13151,6e-05,7e-05,-6e-05,-1e-05,0,-1e-05,-2e-05,-7e-05,3,24
13152,6e-05,7e-05,-6e-05,-1e-05,0,-1e-05,-2e-05,-7e-05,3,24
13153,6e-05,7e-05,-6e-05,-1e-05,0,-1e-05,-2e-05,-7e-05,3,24
13154,6e-05,7e-05,-6e-05,-1e-05,0,-1e-05,-2e-05,-7e-05,3,24
13155,6e-05,7e-05,-6e-05,-1e-05,0,-1e-05,-2e-05,-7e-05,3,24
13156,3e-05,2e-05,1e-05,0,-1e-05,2e-05,-1e-05,2e-05,3,24
13157,3e-05,2e-05,1e-05,0,-1e-05,2e-05,-1e-05,2e-05,3,24
13158,3e-05,2e-05,1e-05,0,-1e-05,2e-05,-1e-05,2e-05,3,24
13159,3e-05,2e-05,1e-05,0,-1e-05,2e-05,-1e-05,2e-05,3,24
13160,3e-05,2e-05,1e-05,0,-1e-05,2e-05,-1e-05,2e-05,3,24
13161,3e-05,2e-05,1e-05,0,-1e-05,2e-05,-1e-05,2e-05,3,24
13162,3e-05,2e-05,1e-05,0,-1e-05,2e-05,-1e-05,2e-05,3,24
13163,3e-05,2e-05,1e-05,0,-1e-05,2e-05,-1e-05,2e-05,3,24
13164,3e-05,2e-05,1e-05,0,-1e-05,2e-05,-1e-05,2e-05,3,24
13165,3e-05,2e-05,1e-05,0,-1e-05,2e-05,-1e-05,2e-05,3,24
13166,3e-05,2e-05,1e-05,0,-1e-05,2e-05,-1e-05,2e-05,3,24
13167,3e-05,2e-05,1e-05,0,-1e-05,2e-05,-1e-05,2e-05,3,24
13168,3e-05,2e-05,1e-05,0,-1e-05,2e-05,-1e-05,2e-05,3,24
13169,3e-05,2e-05,1e-05,0,-1e-05,2e-05,-1e-05,2e-05,3,24
13170,3e-05,2e-05,1e-05,0,-1e-05,2e-05,-1e-05,2e-05,3,24
13171,3e-05,2e-05,1e-05,0,-1e-05,2e-05,-1e-05,2e-05,3,24
13172,-3e-05,-3e-05,-1e-05,-3e-05,-1e-05,-2e-05,-1e-05,5e-05,3,24
13173,-3e-05,-3e-05,-1e-05,-3e-05,-1e-05,-2e-05,-1e-05,5e-05,3,24
13174,-3e-05,-3e-05,-1e-05,-3e-05,-1e-05,-2e-05,-1e-05,5e-05,3,24
13175,-3e-05,-3e-05,-1e-05,-3e-05,-1e-05,-2e-05,-1e-05,5e-05,3,24
13176,-3e-05,-3e-05,-1e-05,-3e-05,-1e-05,-2e-05,-1e-05,5e-05,3,24
13177,-3e-05,-3e-05,-1e-05,-3e-05,-1e-05,-2e-05,-1e-05,5e-05,3,24
13178,-0.00012,-0.00035,-7e-05,-2e-05,-1e-05,1e-05,1e-05,-2e-05,3,24
13179,-0.00012,-0.00035,-7e-05,-2e-05,-1e-05,1e-05,1e-05,-2e-05,3,24
13180,-0.00012,-0.00035,-7e-05,-2e-05,-1e-05,1e-05,1e-05,-2e-05,3,24
13181,-0.00012,-0.00035,-7e-05,-2e-05,-1e-05,1e-05,1e-05,-2e-05,3,24
13182,-0.00012,-0.00035,-7e-05,-2e-05,-1e-05,1e-05,1e-05,-2e-05,3,24
13183,-0.00012,-0.00035,-7e-05,-2e-05,-1e-05,1e-05,1e-05,-2e-05,3,24
13184,-0.00012,-0.00035,-7e-05,-2e-05,-1e-05,1e-05,1e-05,-2e-05,3,24
13185,-0.00012,-0.00035,-7e-05,-2e-05,-1e-05,1e-05,1e-05,-2e-05,3,24
13186,-0.00012,-0.00035,-7e-05,-2e-05,-1e-05,1e-05,1e-05,-2e-05,3,24
13188,-0.00012,-0.00035,-7e-05,-2e-05,-1e-05,1e-05,1e-05,-2e-05,3,24
13189,-0.00012,-0.00035,-7e-05,-2e-05,-1e-05,1e-05,1e-05,-2e-05,3,24
13190,-0.00012,-0.00035,-7e-05,-2e-05,-1e-05,1e-05,1e-05,-2e-05,3,24
13191,-0.00012,-0.00035,-7e-05,-2e-05,-1e-05,1e-05,1e-05,-2e-05,3,24
13192,-0.00012,-0.00035,-7e-05,-2e-05,-1e-05,1e-05,1e-05,-2e-05,3,24
13193,-0.00012,-0.00035,-7e-05,-2e-05,-1e-05,1e-05,1e-05,-2e-05,3,24
13194,-0.00012,-0.00035,-7e-05,-2e-05,-1e-05,1e-05,1e-05,-2e-05,3,24
13195,2e-05,0.00014,5e-05,3e-05,2e-05,0,0,-3e-05,3,24
13196,-1e-05,-7e-05,-2e-05,-2e-05,-2e-05,-1e-05,-3e-05,-9e-05,3,24
13197,-1e-05,-7e-05,-2e-05,-2e-05,-2e-05,-1e-05,-3e-05,-9e-05,3,24
13198,-1e-05,-7e-05,-2e-05,-2e-05,-2e-05,-1e-05,-3e-05,-9e-05,3,24
13199,-1e-05,-7e-05,-2e-05,-2e-05,-2e-05,-1e-05,-3e-05,-9e-05,3,24
13200,-1e-05,-7e-05,-2e-05,-2e-05,-2e-05,-1e-05,-3e-05,-9e-05,3,24
13201,-1e-05,-7e-05,-2e-05,-2e-05,-2e-05,-1e-05,-3e-05,-9e-05,3,24
13202,-1e-05,-7e-05,-2e-05,-2e-05,-2e-05,-1e-05,-3e-05,-9e-05,3,24
13203,-1e-05,-7e-05,-2e-05,-2e-05,-2e-05,-1e-05,-3e-05,-9e-05,3,24
13204,-1e-05,-7e-05,-2e-05,-2e-05,-2e-05,-1e-05,-3e-05,-9e-05,3,24
13205,-1e-05,-7e-05,-2e-05,-2e-05,-2e-05,-1e-05,-3e-05,-9e-05,3,24
13206,-1e-05,-7e-05,-2e-05,-2e-05,-2e-05,-1e-05,-3e-05,-9e-05,3,24
13207,-1e-05,-7e-05,-2e-05,-2e-05,-2e-05,-1e-05,-3e-05,-9e-05,3,24
13208,-1e-05,-7e-05,-2e-05,-2e-05,-2e-05,-1e-05,-3e-05,-9e-05,3,24
13209,-0.00013,-0.00028,-5e-05,-1e-05,-3e-05,-2e-05,-3e-05,-2e-05,3,24
13210,-0.00013,-0.00028,-5e-05,-1e-05,-3e-05,-2e-05,-3e-05,-2e-05,3,24
13211,-0.00013,-0.00028,-5e-05,-1e-05,-3e-05,-2e-05,-3e-05,-2e-05,3,24
13212,-0.00013,-0.00028,-5e-05,-1e-05,-3e-05,-2e-05,-3e-05,-2e-05,3,24
13213,-0.00013,-0.00028,-5e-05,-1e-05,-3e-05,-2e-05,-3e-05,-2e-05,3,24
13214,-0.00013,-0.00028,-5e-05,-1e-05,-3e-05,-2e-05,-3e-05,-2e-05,3,24
13215,-0.00013,-0.00028,-5e-05,-1e-05,-3e-05,-2e-05,-3e-05,-2e-05,3,24
13216,4e-05,0.00014,5e-05,2e-05,1e-05,-1e-05,2e-05,6e-05,3,24
13217,4e-05,0.00014,5e-05,2e-05,1e-05,-1e-05,2e-05,6e-05,3,24
13218,4e-05,0.00014,5e-05,2e-05,1e-05,-1e-05,2e-05,6e-05,3,24
13219,4e-05,0.00014,5e-05,2e-05,1e-05,-1e-05,2e-05,6e-05,3,24
13220,4e-05,0.00014,5e-05,2e-05,1e-05,-1e-05,2e-05,6e-05,3,24
13221,4e-05,0.00014,5e-05,2e-05,1e-05,-1e-05,2e-05,6e-05,3,24
13222,4e-05,0.00014,5e-05,2e-05,1e-05,-1e-05,2e-05,6e-05,3,24
13223,4e-05,0.00014,5e-05,2e-05,1e-05,-1e-05,2e-05,6e-05,3,24
13224,4e-05,0.00014,5e-05,2e-05,1e-05,-1e-05,2e-05,6e-05,3,24
13225,4e-05,0.00014,5e-05,2e-05,1e-05,-1e-05,2e-05,6e-05,3,24
13226,4e-05,0.00014,5e-05,2e-05,1e-05,-1e-05,2e-05,6e-05,3,24
13227,4e-05,0.00014,5e-05,2e-05,1e-05,-1e-05,2e-05,6e-05,3,24
13228,4e-05,0.00014,5e-05,2e-05,1e-05,-1e-05,2e-05,6e-05,3,24
13229,4e-05,0.00014,5e-05,2e-05,1e-05,-1e-05,2e-05,6e-05,3,24
13230,4e-05,0.00014,5e-05,2e-05,1e-05,-1e-05,2e-05,6e-05,3,24
13231,4e-05,0.00014,5e-05,2e-05,1e-05,-1e-05,2e-05,6e-05,3,24
13232,1e-05,9e-05,-2e-05,-2e-05,-2e-05,0,1e-05,-0.00022,3,24
13233,1e-05,9e-05,-2e-05,-2e-05,-2e-05,0,1e-05,-0.00022,3,24
13234,0,6e-05,1e-05,0,-2e-05,-5e-05,-2e-05,1e-05,3,24
13235,0,6e-05,1e-05,0,-2e-05,-5e-05,-2e-05,1e-05,3,24
13236,0,6e-05,1e-05,0,-2e-05,-5e-05,-2e-05,1e-05,3,24
13238,0,6e-05,1e-05,0,-2e-05,-5e-05,-2e-05,1e-05,3,24
13239,0,6e-05,1e-05,0,-2e-05,-5e-05,-2e-05,1e-05,3,24
13240,0,6e-05,1e-05,0,-2e-05,-5e-05,-2e-05,1e-05,3,24
13241,0,6e-05,1e-05,0,-2e-05,-5e-05,-2e-05,1e-05,3,24
13242,0,6e-05,1e-05,0,-2e-05,-5e-05,-2e-05,1e-05,3,24
13243,0,6e-05,1e-05,0,-2e-05,-5e-05,-2e-05,1e-05,3,24
13244,0,6e-05,1e-05,0,-2e-05,-5e-05,-2e-05,1e-05,3,24
13245,0,6e-05,1e-05,0,-2e-05,-5e-05,-2e-05,1e-05,3,24
13246,0,6e-05,1e-05,0,-2e-05,-5e-05,-2e-05,1e-05,3,24
13247,0,6e-05,1e-05,0,-2e-05,-5e-05,-2e-05,1e-05,3,24
13248,0,6e-05,1e-05,0,-2e-05,-5e-05,-2e-05,1e-05,3,24
13249,0,6e-05,1e-05,0,-2e-05,-5e-05,-2e-05,1e-05,3,24
13250,0,6e-05,1e-05,0,-2e-05,-5e-05,-2e-05,1e-05,3,24
13251,0,6e-05,1e-05,0,-2e-05,-5e-05,-2e-05,1e-05,3,24
13252,0,6e-05,1e-05,0,-2e-05,-5e-05,-2e-05,1e-05,3,24
13253,0,6e-05,1e-05,0,-2e-05,-5e-05,-2e-05,1e-05,3,24
13254,9e-05,9e-05,1e-05,-2e-05,-1e-05,-1e-05,1e-05,4e-05,3,24
13255,9e-05,9e-05,1e-05,-2e-05,-1e-05,-1e-05,1e-05,4e-05,3,24
13256,-2e-05,7e-05,-8e-05,1e-05,-3e-05,-3e-05,-1e-05,-1e-05,3,24
13257,-2e-05,7e-05,-8e-05,1e-05,-3e-05,-3e-05,-1e-05,-1e-05,3,24
13258,-2e-05,7e-05,-8e-05,1e-05,-3e-05,-3e-05,-1e-05,-1e-05,3,24
13259,-2e-05,7e-05,-8e-05,1e-05,-3e-05,-3e-05,-1e-05,-1e-05,3,24
13260,-2e-05,7e-05,-8e-05,1e-05,-3e-05,-3e-05,-1e-05,-1e-05,3,24
13261,-2e-05,7e-05,-8e-05,1e-05,-3e-05,-3e-05,-1e-05,-1e-05,3,24
13262,-2e-05,7e-05,-8e-05,1e-05,-3e-05,-3e-05,-1e-05,-1e-05,3,24
13263,-2e-05,7e-05,-8e-05,1e-05,-3e-05,-3e-05,-1e-05,-1e-05,3,24
13264,-2e-05,7e-05,-8e-05,1e-05,-3e-05,-3e-05,-1e-05,-1e-05,3,24
13265,-2e-05,7e-05,-8e-05,1e-05,-3e-05,-3e-05,-1e-05,-1e-05,3,24
13266,-2e-05,7e-05,-8e-05,1e-05,-3e-05,-3e-05,-1e-05,-1e-05,3,24
13267,-2e-05,7e-05,-8e-05,1e-05,-3e-05,-3e-05,-1e-05,-1e-05,3,24
13268,-2e-05,7e-05,-8e-05,1e-05,-3e-05,-3e-05,-1e-05,-1e-05,3,24
13269,-2e-05,-1e-05,1e-05,-1e-05,-1e-05,0,-2e-05,3e-05,3,24
13270,-2e-05,-1e-05,1e-05,-1e-05,-1e-05,0,-2e-05,3e-05,3,24
13271,-2e-05,-1e-05,1e-05,-1e-05,-1e-05,0,-2e-05,3e-05,3,24
13272,-2e-05,-1e-05,1e-05,-1e-05,-1e-05,0,-2e-05,3e-05,3,24
13273,-2e-05,-1e-05,1e-05,-1e-05,-1e-05,0,-2e-05,3e-05,3,24
13274,-2e-05,-1e-05,1e-05,-1e-05,-1e-05,0,-2e-05,3e-05,3,24
13275,-2e-05,-1e-05,1e-05,-1e-05,-1e-05,0,-2e-05,3e-05,3,24
13276,6e-05,7e-05,3e-05,-1e-05,0,-1e-05,-4e-05,0.00013,3,24
13277,6e-05,7e-05,3e-05,-1e-05,0,-1e-05,-4e-05,0.00013,3,24
13278,6e-05,7e-05,3e-05,-1e-05,0,-1e-05,-4e-05,0.00013,3,24
13279,6e-05,7e-05,3e-05,-1e-05,0,-1e-05,-4e-05,0.00013,3,24
13280,6e-05,7e-05,3e-05,-1e-05,0,-1e-05,-4e-05,0.00013,3,24
13281,6e-05,7e-05,3e-05,-1e-05,0,-1e-05,-4e-05,0.00013,3,24
13282,6e-05,7e-05,3e-05,-1e-05,0,-1e-05,-4e-05,0.00013,3,24
13283,6e-05,7e-05,3e-05,-1e-05,0,-1e-05,-4e-05,0.00013,3,24
13284,6e-05,7e-05,3e-05,-1e-05,0,-1e-05,-4e-05,0.00013,3,24
13285,6e-05,7e-05,3e-05,-1e-05,0,-1e-05,-4e-05,0.00013,3,24
13286,6e-05,7e-05,3e-05,-1e-05,0,-1e-05,-4e-05,0.00013,3,24
13288,6e-05,7e-05,3e-05,-1e-05,0,-1e-05,-4e-05,0.00013,3,24
13289,6e-05,7e-05,3e-05,-1e-05,0,-1e-05,-4e-05,0.00013,3,24
13290,6e-05,7e-05,3e-05,-1e-05,0,-1e-05,-4e-05,0.00013,3,24
13291,6e-05,7e-05,3e-05,-1e-05,0,-1e-05,-4e-05,0.00013,3,24
13292,-5e-05,-3e-05,-1e-05,-1e-05,0,-1e-05,-1e-05,4e-05,3,24
13293,-5e-05,-3e-05,-1e-05,-1e-05,0,-1e-05,-1e-05,4e-05,3,24
13294,4e-05,8e-05,0,-2e-05,-1e-05,0,0,-5e-05,3,24
13295,4e-05,8e-05,0,-2e-05,-1e-05,0,0,-5e-05,3,24
13296,4e-05,8e-05,0,-2e-05,-1e-05,0,0,-5e-05,3,24
13297,4e-05,8e-05,0,-2e-05,-1e-05,0,0,-5e-05,3,24
13298,4e-05,8e-05,0,-2e-05,-1e-05,0,0,-5e-05,3,24
13299,4e-05,8e-05,0,-2e-05,-1e-05,0,0,-5e-05,3,24
13300,4e-05,8e-05,0,-2e-05,-1e-05,0,0,-5e-05,3,24
13301,4e-05,8e-05,0,-2e-05,-1e-05,0,0,-5e-05,3,24
13302,4e-05,8e-05,0,-2e-05,-1e-05,0,0,-5e-05,3,24
13303,4e-05,8e-05,0,-2e-05,-1e-05,0,0,-5e-05,3,24
13304,4e-05,8e-05,0,-2e-05,-1e-05,0,0,-5e-05,3,24
13305,4e-05,8e-05,0,-2e-05,-1e-05,0,0,-5e-05,3,24
13306,4e-05,8e-05,0,-2e-05,-1e-05,0,0,-5e-05,3,24
13307,4e-05,8e-05,0,-2e-05,-1e-05,0,0,-5e-05,3,24
13308,4e-05,8e-05,0,-2e-05,-1e-05,0,0,-5e-05,3,24
13309,4e-05,8e-05,0,-2e-05,-1e-05,0,0,-5e-05,3,24
13310,4e-05,8e-05,0,-2e-05,-1e-05,0,0,-5e-05,3,24
13311,4e-05,8e-05,0,-2e-05,-1e-05,0,0,-5e-05,3,24
13312,4e-05,8e-05,0,-2e-05,-1e-05,0,0,-5e-05,3,24
13313,4e-05,8e-05,0,-2e-05,-1e-05,0,0,-5e-05,3,24
13314,5e-05,0.00015,1e-05,-3e-05,-3e-05,-2e-05,1e-05,3e-05,3,24
13315,3e-05,2e-05,3e-05,0,-1e-05,-3e-05,-3e-05,-1e-05,3,24
13316,2e-05,7e-05,1e-05,-1e-05,0,-2e-05,-4e-05,4e-05,3,24
13317,2e-05,7e-05,1e-05,-1e-05,0,-2e-05,-4e-05,4e-05,3,24
13318,2e-05,7e-05,1e-05,-1e-05,0,-2e-05,-4e-05,4e-05,3,24
13319,2e-05,7e-05,1e-05,-1e-05,0,-2e-05,-4e-05,4e-05,3,24
13320,2e-05,7e-05,1e-05,-1e-05,0,-2e-05,-4e-05,4e-05,3,24
13321,2e-05,7e-05,1e-05,-1e-05,0,-2e-05,-4e-05,4e-05,3,24
13322,2e-05,7e-05,1e-05,-1e-05,0,-2e-05,-4e-05,4e-05,3,24
13323,2e-05,7e-05,1e-05,-1e-05,0,-2e-05,-4e-05,4e-05,3,24
13324,2e-05,7e-05,1e-05,-1e-05,0,-2e-05,-4e-05,4e-05,3,24
13325,2e-05,7e-05,1e-05,-1e-05,0,-2e-05,-4e-05,4e-05,3,24
13326,2e-05,7e-05,1e-05,-1e-05,0,-2e-05,-4e-05,4e-05,3,24
13327,2e-05,7e-05,1e-05,-1e-05,0,-2e-05,-4e-05,4e-05,3,24
13328,0,0,0,-2e-05,-1e-05,-2e-05,1e-05,4e-05,3,24
13329,0,0,0,-2e-05,-1e-05,-2e-05,1e-05,4e-05,3,24
13330,0,0,0,-2e-05,-1e-05,-2e-05,1e-05,4e-05,3,24
13331,0,0,0,-2e-05,-1e-05,-2e-05,1e-05,4e-05,3,24
13332,0,0,0,-2e-05,-1e-05,-2e-05,1e-05,4e-05,3,24
13333,0,0,0,-2e-05,-1e-05,-2e-05,1e-05,4e-05,3,24
13334,0,0,0,-2e-05,-1e-05,-2e-05,1e-05,4e-05,3,24
13335,0,0,0,-2e-05,-1e-05,-2e-05,1e-05,4e-05,3,24
13336,0,0,0,-2e-05,-1e-05,-2e-05,1e-05,4e-05,3,24
13338,-9e-05,-0.00023,-3e-05,-1e-05,-3e-05,-1e-05,4e-05,-2e-05,3,24
13339,-9e-05,-0.00023,-3e-05,-1e-05,-3e-05,-1e-05,4e-05,-2e-05,3,24
13340,-9e-05,-0.00023,-3e-05,-1e-05,-3e-05,-1e-05,4e-05,-2e-05,3,24
13341,-9e-05,-0.00023,-3e-05,-1e-05,-3e-05,-1e-05,4e-05,-2e-05,3,24
13342,-9e-05,-0.00023,-3e-05,-1e-05,-3e-05,-1e-05,4e-05,-2e-05,3,24
13343,-9e-05,-0.00023,-3e-05,-1e-05,-3e-05,-1e-05,4e-05,-2e-05,3,24
13344,-9e-05,-0.00023,-3e-05,-1e-05,-3e-05,-1e-05,4e-05,-2e-05,3,24
13345,-9e-05,-0.00023,-3e-05,-1e-05,-3e-05,-1e-05,4e-05,-2e-05,3,24
13346,-9e-05,-0.00023,-3e-05,-1e-05,-3e-05,-1e-05,4e-05,-2e-05,3,24
13347,-9e-05,-0.00023,-3e-05,-1e-05,-3e-05,-1e-05,4e-05,-2e-05,3,24
13348,-9e-05,-0.00023,-3e-05,-1e-05,-3e-05,-1e-05,4e-05,-2e-05,3,24
13349,-9e-05,-0.00023,-3e-05,-1e-05,-3e-05,-1e-05,4e-05,-2e-05,3,24
13350,-9e-05,-0.00023,-3e-05,-1e-05,-3e-05,-1e-05,4e-05,-2e-05,3,24
13351,-9e-05,-0.00023,-3e-05,-1e-05,-3e-05,-1e-05,4e-05,-2e-05,3,24
13352,-2e-05,4e-05,0,-1e-05,-1e-05,0,0,1e-05,3,24
13353,-2e-05,-2e-05,-1e-05,-5e-05,-1e-05,-3e-05,-2e-05,-0.00017,3,24
13354,-2e-05,-2e-05,-1e-05,-5e-05,-1e-05,-3e-05,-2e-05,-0.00017,3,24
13355,-2e-05,-2e-05,-1e-05,-5e-05,-1e-05,-3e-05,-2e-05,-0.00017,3,24
13356,-2e-05,-2e-05,-1e-05,-5e-05,-1e-05,-3e-05,-2e-05,-0.00017,3,24
13357,-2e-05,-2e-05,-1e-05,-5e-05,-1e-05,-3e-05,-2e-05,-0.00017,3,24
13358,-2e-05,-2e-05,-1e-05,-5e-05,-1e-05,-3e-05,-2e-05,-0.00017,3,24
13359,-2e-05,-2e-05,-1e-05,-5e-05,-1e-05,-3e-05,-2e-05,-0.00017,3,24
13360,-2e-05,-2e-05,-1e-05,-5e-05,-1e-05,-3e-05,-2e-05,-0.00017,3,24
13361,-2e-05,-2e-05,-1e-05,-5e-05,-1e-05,-3e-05,-2e-05,-0.00017,3,24
13362,-2e-05,-2e-05,-1e-05,-5e-05,-1e-05,-3e-05,-2e-05,-0.00017,3,24
13363,-2e-05,-2e-05,-1e-05,-5e-05,-1e-05,-3e-05,-2e-05,-0.00017,3,24
13364,-2e-05,-2e-05,-1e-05,-5e-05,-1e-05,-3e-05,-2e-05,-0.00017,3,24
13365,-2e-05,-2e-05,-1e-05,-5e-05,-1e-05,-3e-05,-2e-05,-0.00017,3,24
13366,-2e-05,-2e-05,-1e-05,-5e-05,-1e-05,-3e-05,-2e-05,-0.00017,3,24
13367,-2e-05,-2e-05,-1e-05,-5e-05,-1e-05,-3e-05,-2e-05,-0.00017,3,24
13368,-2e-05,-2e-05,-1e-05,-5e-05,-1e-05,-3e-05,-2e-05,-0.00017,3,24
13369,-2e-05,-2e-05,-1e-05,-5e-05,-1e-05,-3e-05,-2e-05,-0.00017,3,24
13370,-2e-05,-2e-05,-1e-05,-5e-05,-1e-05,-3e-05,-2e-05,-0.00017,3,24
13371,-2e-05,-2e-05,-1e-05,-5e-05,-1e-05,-3e-05,-2e-05,-0.00017,3,24
13372,-2e-05,-2e-05,-1e-05,-5e-05,-1e-05,-3e-05,-2e-05,-0.00017,3,24
13373,-2e-05,-2e-05,-1e-05,-5e-05,-1e-05,-3e-05,-2e-05,-0.00017,3,24
13374,-5e-05,-8e-05,-3e-05,-1e-05,-1e-05,-6e-05,1e-05,3e-05,3,24
13375,3e-05,1e-05,-1e-05,1e-05,0,-1e-05,-1e-05,3e-05,3,24
13376,0,0,2e-05,-1e-05,-1e-05,0,1e-05,4e-05,3,24
13377,0,0,2e-05,-1e-05,-1e-05,0,1e-05,4e-05,3,24
13378,0,0,2e-05,-1e-05,-1e-05,0,1e-05,4e-05,3,24
13379,0,0,2e-05,-1e-05,-1e-05,0,1e-05,4e-05,3,24
13380,0,0,2e-05,-1e-05,-1e-05,0,1e-05,4e-05,3,24
13381,0,0,2e-05,-1e-05,-1e-05,0,1e-05,4e-05,3,24
13382,0,0,2e-05,-1e-05,-1e-05,0,1e-05,4e-05,3,24
13383,0,0,2e-05,-1e-05,-1e-05,0,1e-05,4e-05,3,24
13384,0,0,2e-05,-1e-05,-1e-05,0,1e-05,4e-05,3,24
13385,0,0,2e-05,-1e-05,-1e-05,0,1e-05,4e-05,3,24
13386,0,0,2e-05,-1e-05,-1e-05,0,1e-05,4e-05,3,24
13388,0,0,2e-05,-1e-05,-1e-05,0,1e-05,4e-05,3,24
13389,-1e-05,8e-05,0,-2e-05,-1e-05,-4e-05,-3e-05,-8e-05,3,24
13390,-1e-05,8e-05,0,-2e-05,-1e-05,-4e-05,-3e-05,-8e-05,3,24
13391,-1e-05,8e-05,0,-2e-05,-1e-05,-4e-05,-3e-05,-8e-05,3,24
13392,-1e-05,8e-05,0,-2e-05,-1e-05,-4e-05,-3e-05,-8e-05,3,24
13393,-1e-05,8e-05,0,-2e-05,-1e-05,-4e-05,-3e-05,-8e-05,3,24
13394,-1e-05,8e-05,0,-2e-05,-1e-05,-4e-05,-3e-05,-8e-05,3,24
13395,-1e-05,8e-05,0,-2e-05,-1e-05,-4e-05,-3e-05,-8e-05,3,24
13396,-1e-05,8e-05,0,-2e-05,-1e-05,-4e-05,-3e-05,-8e-05,3,24
13397,-9e-05,-0.00022,-6e-05,-1e-05,2e-05,2e-05,3e-05,0,3,24
13398,-9e-05,-0.00022,-6e-05,-1e-05,2e-05,2e-05,3e-05,0,3,24
13399,-9e-05,-0.00022,-6e-05,-1e-05,2e-05,2e-05,3e-05,0,3,24
13400,-9e-05,-0.00022,-6e-05,-1e-05,2e-05,2e-05,3e-05,0,3,24
13401,-9e-05,-0.00022,-6e-05,-1e-05,2e-05,2e-05,3e-05,0,3,24
13402,-9e-05,-0.00022,-6e-05,-1e-05,2e-05,2e-05,3e-05,0,3,24
13403,-9e-05,-0.00022,-6e-05,-1e-05,2e-05,2e-05,3e-05,0,3,24
13404,-9e-05,-0.00022,-6e-05,-1e-05,2e-05,2e-05,3e-05,0,3,24
13405,-9e-05,-0.00022,-6e-05,-1e-05,2e-05,2e-05,3e-05,0,3,24
13406,-9e-05,-0.00022,-6e-05,-1e-05,2e-05,2e-05,3e-05,0,3,24
13407,-9e-05,-0.00022,-6e-05,-1e-05,2e-05,2e-05,3e-05,0,3,24
13408,-9e-05,-0.00022,-6e-05,-1e-05,2e-05,2e-05,3e-05,0,3,24
13409,-9e-05,-0.00022,-6e-05,-1e-05,2e-05,2e-05,3e-05,0,3,24
13410,-9e-05,-0.00022,-6e-05,-1e-05,2e-05,2e-05,3e-05,0,3,24
13411,-9e-05,-0.00022,-6e-05,-1e-05,2e-05,2e-05,3e-05,0,3,24
13412,-2e-05,0,-3e-05,0,-1e-05,2e-05,1e-05,5e-05,3,24
13413,-2e-05,0,-3e-05,0,-1e-05,2e-05,1e-05,5e-05,3,24
13414,0.00013,0.00012,-1e-05,-3e-05,-3e-05,-3e-05,-3e-05,1e-05,3,24
13415,0.00013,0.00012,-1e-05,-3e-05,-3e-05,-3e-05,-3e-05,1e-05,3,24
13416,0.00013,0.00012,-1e-05,-3e-05,-3e-05,-3e-05,-3e-05,1e-05,3,24
13417,0.00013,0.00012,-1e-05,-3e-05,-3e-05,-3e-05,-3e-05,1e-05,3,24
13418,0.00013,0.00012,-1e-05,-3e-05,-3e-05,-3e-05,-3e-05,1e-05,3,24
13419,0.00013,0.00012,-1e-05,-3e-05,-3e-05,-3e-05,-3e-05,1e-05,3,24
13420,0.00013,0.00012,-1e-05,-3e-05,-3e-05,-3e-05,-3e-05,1e-05,3,24
13421,0.00013,0.00012,-1e-05,-3e-05,-3e-05,-3e-05,-3e-05,1e-05,3,24
13422,0.00013,0.00012,-1e-05,-3e-05,-3e-05,-3e-05,-3e-05,1e-05,3,24
13423,0.00013,0.00012,-1e-05,-3e-05,-3e-05,-3e-05,-3e-05,1e-05,3,24
13424,0.00013,0.00012,-1e-05,-3e-05,-3e-05,-3e-05,-3e-05,1e-05,3,24
13425,0.00013,0.00012,-1e-05,-3e-05,-3e-05,-3e-05,-3e-05,1e-05,3,24
13426,0.00013,0.00012,-1e-05,-3e-05,-3e-05,-3e-05,-3e-05,1e-05,3,24
13427,0.00013,0.00012,-1e-05,-3e-05,-3e-05,-3e-05,-3e-05,1e-05,3,24
13428,0.00013,0.00012,-1e-05,-3e-05,-3e-05,-3e-05,-3e-05,1e-05,3,24
13429,0.00013,0.00012,-1e-05,-3e-05,-3e-05,-3e-05,-3e-05,1e-05,3,24
13430,0.00013,0.00012,-1e-05,-3e-05,-3e-05,-3e-05,-3e-05,1e-05,3,24
13431,0.00013,0.00012,-1e-05,-3e-05,-3e-05,-3e-05,-3e-05,1e-05,3,24
13432,0.00013,0.00012,-1e-05,-3e-05,-3e-05,-3e-05,-3e-05,1e-05,3,24
13433,0.00013,0.00012,-1e-05,-3e-05,-3e-05,-3e-05,-3e-05,1e-05,3,24
13434,-0.0002,-0.00011,2e-05,-2e-05,-1e-05,1e-05,2e-05,0.00017,3,24
13435,1e-05,-1e-05,-7e-05,-2e-05,0,0,-4e-05,-3e-05,3,24
13436,0,2e-05,3e-05,2e-05,0,0,-1e-05,-3e-05,3,24
13438,0,2e-05,3e-05,2e-05,0,0,-1e-05,-3e-05,3,24
13439,0,2e-05,3e-05,2e-05,0,0,-1e-05,-3e-05,3,24
13440,0,2e-05,3e-05,2e-05,0,0,-1e-05,-3e-05,3,24
13441,0,2e-05,3e-05,2e-05,0,0,-1e-05,-3e-05,3,24
13442,0,2e-05,3e-05,2e-05,0,0,-1e-05,-3e-05,3,24
13443,0,2e-05,3e-05,2e-05,0,0,-1e-05,-3e-05,3,24
13444,0,2e-05,3e-05,2e-05,0,0,-1e-05,-3e-05,3,24
13445,0,2e-05,3e-05,2e-05,0,0,-1e-05,-3e-05,3,24
13446,0,2e-05,3e-05,2e-05,0,0,-1e-05,-3e-05,3,24
13447,0,2e-05,3e-05,2e-05,0,0,-1e-05,-3e-05,3,24
13448,-2e-05,1e-05,1e-05,1e-05,-3e-05,-2e-05,-1e-05,-1e-05,3,24
13449,-2e-05,1e-05,1e-05,1e-05,-3e-05,-2e-05,-1e-05,-1e-05,3,24
13450,-2e-05,1e-05,1e-05,1e-05,-3e-05,-2e-05,-1e-05,-1e-05,3,24
13451,-2e-05,1e-05,1e-05,1e-05,-3e-05,-2e-05,-1e-05,-1e-05,3,24
13452,-2e-05,1e-05,1e-05,1e-05,-3e-05,-2e-05,-1e-05,-1e-05,3,24
13453,-2e-05,1e-05,1e-05,1e-05,-3e-05,-2e-05,-1e-05,-1e-05,3,24
13454,-2e-05,1e-05,1e-05,1e-05,-3e-05,-2e-05,-1e-05,-1e-05,3,24
13455,-2e-05,1e-05,1e-05,1e-05,-3e-05,-2e-05,-1e-05,-1e-05,3,24
13456,-2e-05,1e-05,1e-05,1e-05,-3e-05,-2e-05,-1e-05,-1e-05,3,24
13457,-0.00016,-2e-05,-1e-05,-1e-05,-1e-05,-1e-05,3e-05,0.00023,3,24
13458,-0.00016,-2e-05,-1e-05,-1e-05,-1e-05,-1e-05,3e-05,0.00023,3,24
13459,-0.00016,-2e-05,-1e-05,-1e-05,-1e-05,-1e-05,3e-05,0.00023,3,24
13460,-0.00016,-2e-05,-1e-05,-1e-05,-1e-05,-1e-05,3e-05,0.00023,3,24
13461,-0.00016,-2e-05,-1e-05,-1e-05,-1e-05,-1e-05,3e-05,0.00023,3,24
13462,-0.00016,-2e-05,-1e-05,-1e-05,-1e-05,-1e-05,3e-05,0.00023,3,24
13463,-0.00016,-2e-05,-1e-05,-1e-05,-1e-05,-1e-05,3e-05,0.00023,3,24
13464,-0.00016,-2e-05,-1e-05,-1e-05,-1e-05,-1e-05,3e-05,0.00023,3,24
13465,-0.00016,-2e-05,-1e-05,-1e-05,-1e-05,-1e-05,3e-05,0.00023,3,24
13466,-0.00016,-2e-05,-1e-05,-1e-05,-1e-05,-1e-05,3e-05,0.00023,3,24
13467,-0.00016,-2e-05,-1e-05,-1e-05,-1e-05,-1e-05,3e-05,0.00023,3,24
13468,-0.00016,-2e-05,-1e-05,-1e-05,-1e-05,-1e-05,3e-05,0.00023,3,24
13469,-0.00016,-2e-05,-1e-05,-1e-05,-1e-05,-1e-05,3e-05,0.00023,3,24
13470,-0.00016,-2e-05,-1e-05,-1e-05,-1e-05,-1e-05,3e-05,0.00023,3,24
13471,-0.00016,-2e-05,-1e-05,-1e-05,-1e-05,-1e-05,3e-05,0.00023,3,24
13472,-1e-05,-3e-05,7e-05,-1e-05,-2e-05,-2e-05,0,0.00016,3,24
13473,-1e-05,-3e-05,7e-05,-1e-05,-2e-05,-2e-05,0,0.00016,3,24
13474,1e-05,0,-4e-05,-2e-05,-1e-05,1e-05,0,4e-05,3,24
13475,1e-05,0,-4e-05,-2e-05,-1e-05,1e-05,0,4e-05,3,24
13476,1e-05,0,-4e-05,-2e-05,-1e-05,1e-05,0,4e-05,3,24
13477,1e-05,0,-4e-05,-2e-05,-1e-05,1e-05,0,4e-05,3,24
13478,1e-05,0,-4e-05,-2e-05,-1e-05,1e-05,0,4e-05,3,24
13479,1e-05,0,-4e-05,-2e-05,-1e-05,1e-05,0,4e-05,3,24
13480,1e-05,0,-4e-05,-2e-05,-1e-05,1e-05,0,4e-05,3,24
13481,1e-05,0,-4e-05,-2e-05,-1e-05,1e-05,0,4e-05,3,24
13482,1e-05,0,-4e-05,-2e-05,-1e-05,1e-05,0,4e-05,3,24
13483,1e-05,0,-4e-05,-2e-05,-1e-05,1e-05,0,4e-05,3,24
13484,1e-05,0,-4e-05,-2e-05,-1e-05,1e-05,0,4e-05,3,24
13485,1e-05,0,-4e-05,-2e-05,-1e-05,1e-05,0,4e-05,3,24
13486,1e-05,0,-4e-05,-2e-05,-1e-05,1e-05,0,4e-05,3,24
13488,1e-05,0,-4e-05,-2e-05,-1e-05,1e-05,0,4e-05,3,24
13489,1e-05,0,-4e-05,-2e-05,-1e-05,1e-05,0,4e-05,3,24
13490,1e-05,0,-4e-05,-2e-05,-1e-05,1e-05,0,4e-05,3,24
13491,1e-05,0,-4e-05,-2e-05,-1e-05,1e-05,0,4e-05,3,24
13492,1e-05,0,-4e-05,-2e-05,-1e-05,1e-05,0,4e-05,3,24
13493,1e-05,0,-4e-05,-2e-05,-1e-05,1e-05,0,4e-05,3,24
13494,4e-05,-4e-05,0,-1e-05,1e-05,6e-05,3e-05,4e-05,3,24
13495,4e-05,-4e-05,0,-1e-05,1e-05,6e-05,3e-05,4e-05,3,24
13496,2e-05,9e-05,3e-05,3e-05,0,-2e-05,0,-7e-05,3,24
13497,2e-05,9e-05,3e-05,3e-05,0,-2e-05,0,-7e-05,3,24
13498,2e-05,9e-05,3e-05,3e-05,0,-2e-05,0,-7e-05,3,24
13499,2e-05,9e-05,3e-05,3e-05,0,-2e-05,0,-7e-05,3,24
13500,2e-05,9e-05,3e-05,3e-05,0,-2e-05,0,-7e-05,3,24
13501,2e-05,9e-05,3e-05,3e-05,0,-2e-05,0,-7e-05,3,24
13502,2e-05,9e-05,3e-05,3e-05,0,-2e-05,0,-7e-05,3,24
13503,2e-05,9e-05,3e-05,3e-05,0,-2e-05,0,-7e-05,3,24
13504,2e-05,9e-05,3e-05,3e-05,0,-2e-05,0,-7e-05,3,24
13505,2e-05,9e-05,3e-05,3e-05,0,-2e-05,0,-7e-05,3,24
13506,2e-05,9e-05,3e-05,3e-05,0,-2e-05,0,-7e-05,3,24
13507,2e-05,9e-05,3e-05,3e-05,0,-2e-05,0,-7e-05,3,24
13508,6e-05,1e-05,1e-05,1e-05,-1e-05,-2e-05,-3e-05,-8e-05,3,24
13509,6e-05,1e-05,1e-05,1e-05,-1e-05,-2e-05,-3e-05,-8e-05,3,24
13510,6e-05,1e-05,1e-05,1e-05,-1e-05,-2e-05,-3e-05,-8e-05,3,24
13511,6e-05,1e-05,1e-05,1e-05,-1e-05,-2e-05,-3e-05,-8e-05,3,24
13512,6e-05,1e-05,1e-05,1e-05,-1e-05,-2e-05,-3e-05,-8e-05,3,24
13513,6e-05,1e-05,1e-05,1e-05,-1e-05,-2e-05,-3e-05,-8e-05,3,24
13514,6e-05,1e-05,1e-05,1e-05,-1e-05,-2e-05,-3e-05,-8e-05,3,24
13515,6e-05,1e-05,1e-05,1e-05,-1e-05,-2e-05,-3e-05,-8e-05,3,24
13516,6e-05,1e-05,1e-05,1e-05,-1e-05,-2e-05,-3e-05,-8e-05,3,24
13517,-1e-05,5e-05,2e-05,-2e-05,-1e-05,1e-05,-1e-05,-1e-05,3,24
13518,-1e-05,-2e-05,-5e-05,0,1e-05,0,-2e-05,-7e-05,3,24
13519,-1e-05,-2e-05,-5e-05,0,1e-05,0,-2e-05,-7e-05,3,24
13520,-1e-05,-2e-05,-5e-05,0,1e-05,0,-2e-05,-7e-05,3,24
13521,-1e-05,-2e-05,-5e-05,0,1e-05,0,-2e-05,-7e-05,3,24
13522,-1e-05,-2e-05,-5e-05,0,1e-05,0,-2e-05,-7e-05,3,24
13523,-1e-05,-2e-05,-5e-05,0,1e-05,0,-2e-05,-7e-05,3,24
13524,-1e-05,-2e-05,-5e-05,0,1e-05,0,-2e-05,-7e-05,3,24
13525,-1e-05,-2e-05,-5e-05,0,1e-05,0,-2e-05,-7e-05,3,24
13526,-1e-05,-2e-05,-5e-05,0,1e-05,0,-2e-05,-7e-05,3,24
13527,-1e-05,-2e-05,-5e-05,0,1e-05,0,-2e-05,-7e-05,3,24
13528,-1e-05,-2e-05,-5e-05,0,1e-05,0,-2e-05,-7e-05,3,24
13529,-1e-05,-2e-05,-5e-05,0,1e-05,0,-2e-05,-7e-05,3,24
13530,-1e-05,-2e-05,-5e-05,0,1e-05,0,-2e-05,-7e-05,3,24
13531,-1e-05,-2e-05,-5e-05,0,1e-05,0,-2e-05,-7e-05,3,24
13532,1e-05,0.00021,1e-05,-1e-05,0,-1e-05,3e-05,6e-05,3,24
13533,1e-05,0.00021,1e-05,-1e-05,0,-1e-05,3e-05,6e-05,3,24
13534,-0.00019,-0.00025,-3e-05,-3e-05,3e-05,4e-05,4e-05,1e-05,3,24
13535,-0.00019,-0.00025,-3e-05,-3e-05,3e-05,4e-05,4e-05,1e-05,3,24
13536,-0.00019,-0.00025,-3e-05,-3e-05,3e-05,4e-05,4e-05,1e-05,3,24
13538,-0.00019,-0.00025,-3e-05,-3e-05,3e-05,4e-05,4e-05,1e-05,3,24
13539,-0.00019,-0.00025,-3e-05,-3e-05,3e-05,4e-05,4e-05,1e-05,3,24
13540,-0.00019,-0.00025,-3e-05,-3e-05,3e-05,4e-05,4e-05,1e-05,3,24
13541,-0.00019,-0.00025,-3e-05,-3e-05,3e-05,4e-05,4e-05,1e-05,3,24
13542,-0.00019,-0.00025,-3e-05,-3e-05,3e-05,4e-05,4e-05,1e-05,3,24
13543,-0.00019,-0.00025,-3e-05,-3e-05,3e-05,4e-05,4e-05,1e-05,3,24
13544,-0.00019,-0.00025,-3e-05,-3e-05,3e-05,4e-05,4e-05,1e-05,3,24
13545,-0.00019,-0.00025,-3e-05,-3e-05,3e-05,4e-05,4e-05,1e-05,3,24
13546,-0.00019,-0.00025,-3e-05,-3e-05,3e-05,4e-05,4e-05,1e-05,3,24
13547,-0.00019,-0.00025,-3e-05,-3e-05,3e-05,4e-05,4e-05,1e-05,3,24
13548,-0.00019,-0.00025,-3e-05,-3e-05,3e-05,4e-05,4e-05,1e-05,3,24
13549,-0.00019,-0.00025,-3e-05,-3e-05,3e-05,4e-05,4e-05,1e-05,3,24
13550,-0.00019,-0.00025,-3e-05,-3e-05,3e-05,4e-05,4e-05,1e-05,3,24
13551,-0.00019,-0.00025,-3e-05,-3e-05,3e-05,4e-05,4e-05,1e-05,3,24
13552,-0.00019,-0.00025,-3e-05,-3e-05,3e-05,4e-05,4e-05,1e-05,3,24
13553,-0.00019,-0.00025,-3e-05,-3e-05,3e-05,4e-05,4e-05,1e-05,3,24
13554,-1e-05,1e-05,-3e-05,1e-05,-1e-05,-2e-05,1e-05,-4e-05,3,24
13555,-1e-05,1e-05,-3e-05,1e-05,-1e-05,-2e-05,1e-05,-4e-05,3,24
13556,0.00014,0.00012,1e-05,2e-05,-1e-05,-3e-05,-4e-05,-4e-05,3,24
13557,0.00014,0.00012,1e-05,2e-05,-1e-05,-3e-05,-4e-05,-4e-05,3,24
13558,0.00014,0.00012,1e-05,2e-05,-1e-05,-3e-05,-4e-05,-4e-05,3,24
13559,0.00014,0.00012,1e-05,2e-05,-1e-05,-3e-05,-4e-05,-4e-05,3,24
13560,0.00014,0.00012,1e-05,2e-05,-1e-05,-3e-05,-4e-05,-4e-05,3,24
13561,0.00014,0.00012,1e-05,2e-05,-1e-05,-3e-05,-4e-05,-4e-05,3,24
13562,0.00014,0.00012,1e-05,2e-05,-1e-05,-3e-05,-4e-05,-4e-05,3,24
13563,0.00014,0.00012,1e-05,2e-05,-1e-05,-3e-05,-4e-05,-4e-05,3,24
13564,0.00014,0.00012,1e-05,2e-05,-1e-05,-3e-05,-4e-05,-4e-05,3,24
13565,0.00014,0.00012,1e-05,2e-05,-1e-05,-3e-05,-4e-05,-4e-05,3,24
13566,0.00014,0.00012,1e-05,2e-05,-1e-05,-3e-05,-4e-05,-4e-05,3,24
13567,0.00014,0.00012,1e-05,2e-05,-1e-05,-3e-05,-4e-05,-4e-05,3,24
13568,-7e-05,-6e-05,-2e-05,-2e-05,0,0,3e-05,-6e-05,3,24
13569,-7e-05,-6e-05,-2e-05,-2e-05,0,0,3e-05,-6e-05,3,24
13570,-7e-05,-6e-05,-2e-05,-2e-05,0,0,3e-05,-6e-05,3,24
13571,-7e-05,-6e-05,-2e-05,-2e-05,0,0,3e-05,-6e-05,3,24
13572,-7e-05,-6e-05,-2e-05,-2e-05,0,0,3e-05,-6e-05,3,24
13573,-7e-05,-6e-05,-2e-05,-2e-05,0,0,3e-05,-6e-05,3,24
13574,-7e-05,-6e-05,-2e-05,-2e-05,0,0,3e-05,-6e-05,3,24
13575,-7e-05,-6e-05,-2e-05,-2e-05,0,0,3e-05,-6e-05,3,24
13576,-7e-05,-6e-05,-2e-05,-2e-05,0,0,3e-05,-6e-05,3,24
13577,1e-05,9e-05,0,-2e-05,-2e-05,-1e-05,-3e-05,-4e-05,3,24
13578,1e-05,9e-05,0,-2e-05,-2e-05,-1e-05,-3e-05,-4e-05,3,24
13579,1e-05,9e-05,0,-2e-05,-2e-05,-1e-05,-3e-05,-4e-05,3,24
13580,1e-05,9e-05,0,-2e-05,-2e-05,-1e-05,-3e-05,-4e-05,3,24
13581,1e-05,9e-05,0,-2e-05,-2e-05,-1e-05,-3e-05,-4e-05,3,24
13582,1e-05,9e-05,0,-2e-05,-2e-05,-1e-05,-3e-05,-4e-05,3,24
13583,1e-05,9e-05,0,-2e-05,-2e-05,-1e-05,-3e-05,-4e-05,3,24
13584,1e-05,9e-05,0,-2e-05,-2e-05,-1e-05,-3e-05,-4e-05,3,24
13585,1e-05,9e-05,0,-2e-05,-2e-05,-1e-05,-3e-05,-4e-05,3,24
13586,1e-05,9e-05,0,-2e-05,-2e-05,-1e-05,-3e-05,-4e-05,3,24
13588,1e-05,9e-05,0,-2e-05,-2e-05,-1e-05,-3e-05,-4e-05,3,24
13589,1e-05,9e-05,0,-2e-05,-2e-05,-1e-05,-3e-05,-4e-05,3,24
13590,1e-05,9e-05,0,-2e-05,-2e-05,-1e-05,-3e-05,-4e-05,3,24
13591,1e-05,9e-05,0,-2e-05,-2e-05,-1e-05,-3e-05,-4e-05,3,24
13592,-4e-05,-7e-05,-2e-05,-1e-05,-2e-05,-7e-05,-6e-05,3e-05,3,24
13593,-4e-05,-7e-05,-2e-05,-1e-05,-2e-05,-7e-05,-6e-05,3e-05,3,24
13594,4e-05,0.00018,6e-05,1e-05,0,0,1e-05,-1e-05,3,24
13595,4e-05,0.00018,6e-05,1e-05,0,0,1e-05,-1e-05,3,24
13596,4e-05,0.00018,6e-05,1e-05,0,0,1e-05,-1e-05,3,24
13597,4e-05,0.00018,6e-05,1e-05,0,0,1e-05,-1e-05,3,24
13598,4e-05,0.00018,6e-05,1e-05,0,0,1e-05,-1e-05,3,24
13599,4e-05,0.00018,6e-05,1e-05,0,0,1e-05,-1e-05,3,24
13600,4e-05,0.00018,6e-05,1e-05,0,0,1e-05,-1e-05,3,24
13601,4e-05,0.00018,6e-05,1e-05,0,0,1e-05,-1e-05,3,24
13602,4e-05,0.00018,6e-05,1e-05,0,0,1e-05,-1e-05,3,24
13603,4e-05,0.00018,6e-05,1e-05,0,0,1e-05,-1e-05,3,24
13604,4e-05,0.00018,6e-05,1e-05,0,0,1e-05,-1e-05,3,24
13605,4e-05,0.00018,6e-05,1e-05,0,0,1e-05,-1e-05,3,24
13606,4e-05,0.00018,6e-05,1e-05,0,0,1e-05,-1e-05,3,24
13607,4e-05,0.00018,6e-05,1e-05,0,0,1e-05,-1e-05,3,24
13608,4e-05,0.00018,6e-05,1e-05,0,0,1e-05,-1e-05,3,24
13609,4e-05,0.00018,6e-05,1e-05,0,0,1e-05,-1e-05,3,24
13610,4e-05,0.00018,6e-05,1e-05,0,0,1e-05,-1e-05,3,24
13611,4e-05,0.00018,6e-05,1e-05,0,0,1e-05,-1e-05,3,24
13612,4e-05,0.00018,6e-05,1e-05,0,0,1e-05,-1e-05,3,24
13613,4e-05,0.00018,6e-05,1e-05,0,0,1e-05,-1e-05,3,24
13614,0.00015,0.00018,2e-05,-3e-05,1e-05,-1e-05,-1e-05,1e-05,3,24
13615,-5e-05,-0.00019,-2e-05,-2e-05,-2e-05,-2e-05,-4e-05,-2e-05,3,24
13616,-5e-05,-0.00019,-2e-05,-2e-05,-2e-05,-2e-05,-4e-05,-2e-05,3,24
13617,-5e-05,-0.00019,-2e-05,-2e-05,-2e-05,-2e-05,-4e-05,-2e-05,3,24
13618,-5e-05,-0.00019,-2e-05,-2e-05,-2e-05,-2e-05,-4e-05,-2e-05,3,24
13619,-5e-05,-0.00019,-2e-05,-2e-05,-2e-05,-2e-05,-4e-05,-2e-05,3,24
13620,-5e-05,-0.00019,-2e-05,-2e-05,-2e-05,-2e-05,-4e-05,-2e-05,3,24
13621,-5e-05,-0.00019,-2e-05,-2e-05,-2e-05,-2e-05,-4e-05,-2e-05,3,24
13622,-5e-05,-0.00019,-2e-05,-2e-05,-2e-05,-2e-05,-4e-05,-2e-05,3,24
13623,-5e-05,-0.00019,-2e-05,-2e-05,-2e-05,-2e-05,-4e-05,-2e-05,3,24
13624,-5e-05,-0.00019,-2e-05,-2e-05,-2e-05,-2e-05,-4e-05,-2e-05,3,24
13625,-5e-05,-0.00019,-2e-05,-2e-05,-2e-05,-2e-05,-4e-05,-2e-05,3,24
13626,-5e-05,-0.00019,-2e-05,-2e-05,-2e-05,-2e-05,-4e-05,-2e-05,3,24
13627,-5e-05,-0.00019,-2e-05,-2e-05,-2e-05,-2e-05,-4e-05,-2e-05,3,24
13628,8e-05,0.00015,-2e-05,1e-05,0,0,-1e-05,-0.00022,3,24
13629,8e-05,0.00015,-2e-05,1e-05,0,0,-1e-05,-0.00022,3,24
13630,8e-05,0.00015,-2e-05,1e-05,0,0,-1e-05,-0.00022,3,24
13631,8e-05,0.00015,-2e-05,1e-05,0,0,-1e-05,-0.00022,3,24
13632,8e-05,0.00015,-2e-05,1e-05,0,0,-1e-05,-0.00022,3,24
13633,8e-05,0.00015,-2e-05,1e-05,0,0,-1e-05,-0.00022,3,24
13634,8e-05,0.00015,-2e-05,1e-05,0,0,-1e-05,-0.00022,3,24
13635,8e-05,0.00015,-2e-05,1e-05,0,0,-1e-05,-0.00022,3,24
13636,8e-05,0.00015,-2e-05,1e-05,0,0,-1e-05,-0.00022,3,24
13638,9e-05,0.00011,0,0,-3e-05,-4e-05,-4e-05,0,3,24
13639,9e-05,0.00011,0,0,-3e-05,-4e-05,-4e-05,0,3,24
13640,9e-05,0.00011,0,0,-3e-05,-4e-05,-4e-05,0,3,24
13641,9e-05,0.00011,0,0,-3e-05,-4e-05,-4e-05,0,3,24
13642,9e-05,0.00011,0,0,-3e-05,-4e-05,-4e-05,0,3,24
13643,9e-05,0.00011,0,0,-3e-05,-4e-05,-4e-05,0,3,24
13644,9e-05,0.00011,0,0,-3e-05,-4e-05,-4e-05,0,3,24
13645,9e-05,0.00011,0,0,-3e-05,-4e-05,-4e-05,0,3,24
13646,9e-05,0.00011,0,0,-3e-05,-4e-05,-4e-05,0,3,24
13647,9e-05,0.00011,0,0,-3e-05,-4e-05,-4e-05,0,3,24
13648,9e-05,0.00011,0,0,-3e-05,-4e-05,-4e-05,0,3,24
13649,9e-05,0.00011,0,0,-3e-05,-4e-05,-4e-05,0,3,24
13650,9e-05,0.00011,0,0,-3e-05,-4e-05,-4e-05,0,3,24
13651,9e-05,0.00011,0,0,-3e-05,-4e-05,-4e-05,0,3,24
13652,0,-8e-05,-2e-05,-1e-05,-2e-05,-2e-05,-2e-05,2e-05,3,24
13653,0,-8e-05,-2e-05,-1e-05,-2e-05,-2e-05,-2e-05,2e-05,3,24
13654,4e-05,3e-05,-2e-05,0,0,3e-05,2e-05,-6e-05,3,24
13655,4e-05,3e-05,-2e-05,0,0,3e-05,2e-05,-6e-05,3,24
13656,4e-05,3e-05,-2e-05,0,0,3e-05,2e-05,-6e-05,3,24
13657,4e-05,3e-05,-2e-05,0,0,3e-05,2e-05,-6e-05,3,24
13658,4e-05,3e-05,-2e-05,0,0,3e-05,2e-05,-6e-05,3,24
13659,4e-05,3e-05,-2e-05,0,0,3e-05,2e-05,-6e-05,3,24
13660,4e-05,3e-05,-2e-05,0,0,3e-05,2e-05,-6e-05,3,24
13661,4e-05,3e-05,-2e-05,0,0,3e-05,2e-05,-6e-05,3,24
13662,4e-05,3e-05,-2e-05,0,0,3e-05,2e-05,-6e-05,3,24
13663,4e-05,3e-05,-2e-05,0,0,3e-05,2e-05,-6e-05,3,24
13664,4e-05,3e-05,-2e-05,0,0,3e-05,2e-05,-6e-05,3,24
13665,4e-05,3e-05,-2e-05,0,0,3e-05,2e-05,-6e-05,3,24
13666,4e-05,3e-05,-2e-05,0,0,3e-05,2e-05,-6e-05,3,24
13667,4e-05,3e-05,-2e-05,0,0,3e-05,2e-05,-6e-05,3,24
13668,4e-05,3e-05,-2e-05,0,0,3e-05,2e-05,-6e-05,3,24
13669,4e-05,3e-05,-2e-05,0,0,3e-05,2e-05,-6e-05,3,24
13670,4e-05,3e-05,-2e-05,0,0,3e-05,2e-05,-6e-05,3,24
13671,4e-05,3e-05,-2e-05,0,0,3e-05,2e-05,-6e-05,3,24
13672,4e-05,3e-05,-2e-05,0,0,3e-05,2e-05,-6e-05,3,24
13673,4e-05,3e-05,-2e-05,0,0,3e-05,2e-05,-6e-05,3,24
13674,-4e-05,-1e-05,-1e-05,-2e-05,2e-05,-2e-05,-1e-05,0,3,24
13675,-8e-05,-0.00014,-4e-05,-2e-05,-2e-05,-1e-05,-1e-05,-3e-05,3,24
13676,2e-05,8e-05,1e-05,0,-3e-05,-6e-05,-1e-05,1e-05,3,24
13677,2e-05,8e-05,1e-05,0,-3e-05,-6e-05,-1e-05,1e-05,3,24
13678,2e-05,8e-05,1e-05,0,-3e-05,-6e-05,-1e-05,1e-05,3,24
13679,2e-05,8e-05,1e-05,0,-3e-05,-6e-05,-1e-05,1e-05,3,24
13680,2e-05,8e-05,1e-05,0,-3e-05,-6e-05,-1e-05,1e-05,3,24
13681,2e-05,8e-05,1e-05,0,-3e-05,-6e-05,-1e-05,1e-05,3,24
13682,2e-05,8e-05,1e-05,0,-3e-05,-6e-05,-1e-05,1e-05,3,24
13683,2e-05,8e-05,1e-05,0,-3e-05,-6e-05,-1e-05,1e-05,3,24
13684,2e-05,8e-05,1e-05,0,-3e-05,-6e-05,-1e-05,1e-05,3,24
13685,2e-05,8e-05,1e-05,0,-3e-05,-6e-05,-1e-05,1e-05,3,24
13686,2e-05,8e-05,1e-05,0,-3e-05,-6e-05,-1e-05,1e-05,3,24
13688,-5e-05,-1e-05,0,0,0,0,1e-05,1e-05,3,24
13689,-5e-05,-1e-05,0,0,0,0,1e-05,1e-05,3,24
13690,-5e-05,-1e-05,0,0,0,0,1e-05,1e-05,3,24
13691,-5e-05,-1e-05,0,0,0,0,1e-05,1e-05,3,24
13692,-5e-05,-1e-05,0,0,0,0,1e-05,1e-05,3,24
13693,-5e-05,-1e-05,0,0,0,0,1e-05,1e-05,3,24
13694,-5e-05,-1e-05,0,0,0,0,1e-05,1e-05,3,24
13695,-5e-05,-1e-05,0,0,0,0,1e-05,1e-05,3,24
13696,-5e-05,-1e-05,0,0,0,0,1e-05,1e-05,3,24
13697,-0.00019,-0.00015,3e-05,-2e-05,-1e-05,1e-05,-1e-05,-4e-05,3,24
13698,-0.00019,-0.00015,3e-05,-2e-05,-1e-05,1e-05,-1e-05,-4e-05,3,24
13699,-0.00019,-0.00015,3e-05,-2e-05,-1e-05,1e-05,-1e-05,-4e-05,3,24
13700,-0.00019,-0.00015,3e-05,-2e-05,-1e-05,1e-05,-1e-05,-4e-05,3,24
13701,-0.00019,-0.00015,3e-05,-2e-05,-1e-05,1e-05,-1e-05,-4e-05,3,24
13702,-0.00019,-0.00015,3e-05,-2e-05,-1e-05,1e-05,-1e-05,-4e-05,3,24
13703,-0.00019,-0.00015,3e-05,-2e-05,-1e-05,1e-05,-1e-05,-4e-05,3,24
13704,-0.00019,-0.00015,3e-05,-2e-05,-1e-05,1e-05,-1e-05,-4e-05,3,24
13705,-0.00019,-0.00015,3e-05,-2e-05,-1e-05,1e-05,-1e-05,-4e-05,3,24
13706,-0.00019,-0.00015,3e-05,-2e-05,-1e-05,1e-05,-1e-05,-4e-05,3,24
13707,-0.00019,-0.00015,3e-05,-2e-05,-1e-05,1e-05,-1e-05,-4e-05,3,24
13708,-0.00019,-0.00015,3e-05,-2e-05,-1e-05,1e-05,-1e-05,-4e-05,3,24
13709,-0.00019,-0.00015,3e-05,-2e-05,-1e-05,1e-05,-1e-05,-4e-05,3,24
13710,-0.00019,-0.00015,3e-05,-2e-05,-1e-05,1e-05,-1e-05,-4e-05,3,24
13711,-0.00019,-0.00015,3e-05,-2e-05,-1e-05,1e-05,-1e-05,-4e-05,3,24
13712,-9e-05,-0.00011,-6e-05,-1e-05,-1e-05,1e-05,-1e-05,-1e-05,3,24
13713,-9e-05,-0.00011,-6e-05,-1e-05,-1e-05,1e-05,-1e-05,-1e-05,3,24
13714,0.0001,6e-05,1e-05,-1e-05,0,-1e-05,-2e-05,0,3,24
13715,0.0001,6e-05,1e-05,-1e-05,0,-1e-05,-2e-05,0,3,24
13716,0.0001,6e-05,1e-05,-1e-05,0,-1e-05,-2e-05,0,3,24
13717,0.0001,6e-05,1e-05,-1e-05,0,-1e-05,-2e-05,0,3,24
13718,0.0001,6e-05,1e-05,-1e-05,0,-1e-05,-2e-05,0,3,24
13719,0.0001,6e-05,1e-05,-1e-05,0,-1e-05,-2e-05,0,3,24
13720,0.0001,6e-05,1e-05,-1e-05,0,-1e-05,-2e-05,0,3,24
13721,0.0001,6e-05,1e-05,-1e-05,0,-1e-05,-2e-05,0,3,24
13722,0.0001,6e-05,1e-05,-1e-05,0,-1e-05,-2e-05,0,3,24
13723,0.0001,6e-05,1e-05,-1e-05,0,-1e-05,-2e-05,0,3,24
13724,0.0001,6e-05,1e-05,-1e-05,0,-1e-05,-2e-05,0,3,24
13725,0.0001,6e-05,1e-05,-1e-05,0,-1e-05,-2e-05,0,3,24
13726,0.0001,6e-05,1e-05,-1e-05,0,-1e-05,-2e-05,0,3,24
13727,0.0001,6e-05,1e-05,-1e-05,0,-1e-05,-2e-05,0,3,24
13728,0.0001,6e-05,1e-05,-1e-05,0,-1e-05,-2e-05,0,3,24
13729,0.0001,6e-05,1e-05,-1e-05,0,-1e-05,-2e-05,0,3,24
13730,0.0001,6e-05,1e-05,-1e-05,0,-1e-05,-2e-05,0,3,24
13731,0.0001,6e-05,1e-05,-1e-05,0,-1e-05,-2e-05,0,3,24
13732,0.0001,6e-05,1e-05,-1e-05,0,-1e-05,-2e-05,0,3,24
13733,0.0001,6e-05,1e-05,-1e-05,0,-1e-05,-2e-05,0,3,24
13734,-4e-05,-8e-05,-7e-05,0,-2e-05,-3e-05,-6e-05,-5e-05,3,24
13735,-4e-05,-8e-05,-7e-05,0,-2e-05,-3e-05,-6e-05,-5e-05,3,24
13736,0,-3e-05,-2e-05,-1e-05,1e-05,0,1e-05,-3e-05,3,24
13738,0,-3e-05,-2e-05,-1e-05,1e-05,0,1e-05,-3e-05,3,24
13739,0,-3e-05,-2e-05,-1e-05,1e-05,0,1e-05,-3e-05,3,24
13740,0,-3e-05,-2e-05,-1e-05,1e-05,0,1e-05,-3e-05,3,24
13741,0,-3e-05,-2e-05,-1e-05,1e-05,0,1e-05,-3e-05,3,24
13742,0,-3e-05,-2e-05,-1e-05,1e-05,0,1e-05,-3e-05,3,24
13743,0,-3e-05,-2e-05,-1e-05,1e-05,0,1e-05,-3e-05,3,24
13744,0,-3e-05,-2e-05,-1e-05,1e-05,0,1e-05,-3e-05,3,24
13745,0,-3e-05,-2e-05,-1e-05,1e-05,0,1e-05,-3e-05,3,24
13746,0,-3e-05,-2e-05,-1e-05,1e-05,0,1e-05,-3e-05,3,24
13747,0,-3e-05,-2e-05,-1e-05,1e-05,0,1e-05,-3e-05,3,24
13748,0,-3e-05,-2e-05,-1e-05,1e-05,0,1e-05,-3e-05,3,24
13749,0,-3e-05,-2e-05,-1e-05,1e-05,0,1e-05,-3e-05,3,24
13750,0,-3e-05,-2e-05,-1e-05,1e-05,0,1e-05,-3e-05,3,24
13751,0,-3e-05,-2e-05,-1e-05,1e-05,0,1e-05,-3e-05,3,24
13752,0,-3e-05,-2e-05,-1e-05,1e-05,0,1e-05,-3e-05,3,24
13753,0,-3e-05,-2e-05,-1e-05,1e-05,0,1e-05,-3e-05,3,24
13754,0,-3e-05,-2e-05,-1e-05,1e-05,0,1e-05,-3e-05,3,24
13755,0,-3e-05,-2e-05,-1e-05,1e-05,0,1e-05,-3e-05,3,24
13756,0,-3e-05,-2e-05,-1e-05,1e-05,0,1e-05,-3e-05,3,24
13757,3e-05,4e-05,0,-2e-05,-2e-05,-4e-05,0,4e-05,3,24
13758,3e-05,4e-05,0,-2e-05,-2e-05,-4e-05,0,4e-05,3,24
13759,-1e-05,0,-2e-05,0,-1e-05,1e-05,-4e-05,2e-05,3,24
13760,-1e-05,0,-2e-05,0,-1e-05,1e-05,-4e-05,2e-05,3,24
13761,-1e-05,0,-2e-05,0,-1e-05,1e-05,-4e-05,2e-05,3,24
13762,-1e-05,0,-2e-05,0,-1e-05,1e-05,-4e-05,2e-05,3,24
13763,-1e-05,0,-2e-05,0,-1e-05,1e-05,-4e-05,2e-05,3,24
13764,-1e-05,0,-2e-05,0,-1e-05,1e-05,-4e-05,2e-05,3,24
13765,-1e-05,0,-2e-05,0,-1e-05,1e-05,-4e-05,2e-05,3,24
43223,2e-05,6e-05,2e-05,-1e-05,0,3e-05,-4e-05,-0.00031,3,24
43224,2e-05,6e-05,2e-05,-1e-05,0,3e-05,-4e-05,-0.00031,3,24
43225,2e-05,6e-05,2e-05,-1e-05,0,3e-05,-4e-05,-0.00031,3,24
43226,2e-05,6e-05,2e-05,-1e-05,0,3e-05,-4e-05,-0.00031,3,24
43227,2e-05,6e-05,2e-05,-1e-05,0,3e-05,-4e-05,-0.00031,3,24
43228,2e-05,6e-05,2e-05,-1e-05,0,3e-05,-4e-05,-0.00031,3,24
43229,2e-05,6e-05,2e-05,-1e-05,0,3e-05,-4e-05,-0.00031,3,24
43230,2e-05,6e-05,2e-05,-1e-05,0,3e-05,-4e-05,-0.00031,3,24
43231,2e-05,6e-05,2e-05,-1e-05,0,3e-05,-4e-05,-0.00031,3,24
43232,-0.0001,-0.00031,-7e-05,0,4e-05,-3e-05,8e-05,-0.0001,3,24
43233,0.00014,6e-05,2e-05,-1e-05,-4e-05,-3e-05,3e-05,0.0001,3,24
43234,0.00014,6e-05,2e-05,-1e-05,-4e-05,-3e-05,3e-05,0.0001,3,24
43235,0.00014,6e-05,2e-05,-1e-05,-4e-05,-3e-05,3e-05,0.0001,3,24
43236,0.00014,6e-05,2e-05,-1e-05,-4e-05,-3e-05,3e-05,0.0001,3,24
43238,0.00014,6e-05,2e-05,-1e-05,-4e-05,-3e-05,3e-05,0.0001,3,24
43239,0.00014,6e-05,2e-05,-1e-05,-4e-05,-3e-05,3e-05,0.0001,3,24
43240,0.00014,6e-05,2e-05,-1e-05,-4e-05,-3e-05,3e-05,0.0001,3,24
43241,0.00014,6e-05,2e-05,-1e-05,-4e-05,-3e-05,3e-05,0.0001,3,24
43242,0.00014,6e-05,2e-05,-1e-05,-4e-05,-3e-05,3e-05,0.0001,3,24
43243,0.00014,6e-05,2e-05,-1e-05,-4e-05,-3e-05,3e-05,0.0001,3,24
43244,0.00014,6e-05,2e-05,-1e-05,-4e-05,-3e-05,3e-05,0.0001,3,24
43245,0.00014,6e-05,2e-05,-1e-05,-4e-05,-3e-05,3e-05,0.0001,3,24
43246,0.00014,6e-05,2e-05,-1e-05,-4e-05,-3e-05,3e-05,0.0001,3,24
43247,0.00014,6e-05,2e-05,-1e-05,-4e-05,-3e-05,3e-05,0.0001,3,24
43248,0.00014,6e-05,2e-05,-1e-05,-4e-05,-3e-05,3e-05,0.0001,3,24
43249,0.00014,6e-05,2e-05,-1e-05,-4e-05,-3e-05,3e-05,0.0001,3,24
43250,0.00014,6e-05,2e-05,-1e-05,-4e-05,-3e-05,3e-05,0.0001,3,24
43251,0.00014,6e-05,2e-05,-1e-05,-4e-05,-3e-05,3e-05,0.0001,3,24
43252,0.00014,6e-05,2e-05,-1e-05,-4e-05,-3e-05,3e-05,0.0001,3,24
43253,0.00014,6e-05,2e-05,-1e-05,-4e-05,-3e-05,3e-05,0.0001,3,24
43254,-0.0001,8e-05,-3e-05,0,-4e-05,-1e-05,-3e-05,-7e-05,3,24
43255,0.00011,-7e-05,1e-05,0,-2e-05,-4e-05,9e-05,0,3,24
43256,-1e-05,-0.00011,-4e-05,-5e-05,-7e-05,0,-5e-05,-0.00015,3,24
43257,-1e-05,-0.00011,-4e-05,-5e-05,-7e-05,0,-5e-05,-0.00015,3,24
43258,-1e-05,-0.00011,-4e-05,-5e-05,-7e-05,0,-5e-05,-0.00015,3,24
43259,-1e-05,-0.00011,-4e-05,-5e-05,-7e-05,0,-5e-05,-0.00015,3,24
43260,-1e-05,-0.00011,-4e-05,-5e-05,-7e-05,0,-5e-05,-0.00015,3,24
43261,-1e-05,-0.00011,-4e-05,-5e-05,-7e-05,0,-5e-05,-0.00015,3,24
43262,-1e-05,-0.00011,-4e-05,-5e-05,-7e-05,0,-5e-05,-0.00015,3,24
43263,-1e-05,-0.00011,-4e-05,-5e-05,-7e-05,0,-5e-05,-0.00015,3,24
43264,-1e-05,-0.00011,-4e-05,-5e-05,-7e-05,0,-5e-05,-0.00015,3,24
43265,-1e-05,-0.00011,-4e-05,-5e-05,-7e-05,0,-5e-05,-0.00015,3,24
43266,-1e-05,-0.00011,-4e-05,-5e-05,-7e-05,0,-5e-05,-0.00015,3,24
43267,-1e-05,-0.00011,-4e-05,-5e-05,-7e-05,0,-5e-05,-0.00015,3,24
43268,-1e-05,-0.00011,-4e-05,-5e-05,-7e-05,0,-5e-05,-0.00015,3,24
43269,3e-05,1e-05,2e-05,1e-05,-0.0001,4e-05,5e-05,8e-05,3,24
43270,3e-05,1e-05,2e-05,1e-05,-0.0001,4e-05,5e-05,8e-05,3,24
43271,8e-05,-2e-05,-0.00013,-4e-05,-2e-05,1e-05,9e-05,1e-05,3,24
43272,8e-05,-2e-05,-0.00013,-4e-05,-2e-05,1e-05,9e-05,1e-05,3,24
43273,8e-05,-2e-05,-0.00013,-4e-05,-2e-05,1e-05,9e-05,1e-05,3,24
43274,8e-05,-2e-05,-0.00013,-4e-05,-2e-05,1e-05,9e-05,1e-05,3,24
43275,8e-05,-2e-05,-0.00013,-4e-05,-2e-05,1e-05,9e-05,1e-05,3,24
43277,8e-05,-2e-05,-0.00013,-4e-05,-2e-05,1e-05,9e-05,1e-05,3,24
43278,8e-05,-2e-05,-0.00013,-4e-05,-2e-05,1e-05,9e-05,1e-05,3,24
43279,8e-05,-2e-05,-0.00013,-4e-05,-2e-05,1e-05,9e-05,1e-05,3,24
43280,8e-05,-2e-05,-0.00013,-4e-05,-2e-05,1e-05,9e-05,1e-05,3,24
43281,8e-05,-2e-05,-0.00013,-4e-05,-2e-05,1e-05,9e-05,1e-05,3,24
43282,8e-05,-2e-05,-0.00013,-4e-05,-2e-05,1e-05,9e-05,1e-05,3,24
43283,8e-05,-2e-05,-0.00013,-4e-05,-2e-05,1e-05,9e-05,1e-05,3,24
43284,8e-05,-2e-05,-0.00013,-4e-05,-2e-05,1e-05,9e-05,1e-05,3,24
43285,8e-05,-2e-05,-0.00013,-4e-05,-2e-05,1e-05,9e-05,1e-05,3,24
43286,8e-05,-2e-05,-0.00013,-4e-05,-2e-05,1e-05,9e-05,1e-05,3,24
43289,8e-05,-2e-05,-0.00013,-4e-05,-2e-05,1e-05,9e-05,1e-05,3,24
43290,8e-05,-2e-05,-0.00013,-4e-05,-2e-05,1e-05,9e-05,1e-05,3,24
43291,8e-05,-2e-05,-0.00013,-4e-05,-2e-05,1e-05,9e-05,1e-05,3,24
43292,4e-05,3e-05,0,-5e-05,-6e-05,-3e-05,-1e-05,-4e-05,3,24
43293,4e-05,3e-05,0,-5e-05,-6e-05,-3e-05,-1e-05,-4e-05,3,24
43294,-8e-05,0,2e-05,1e-05,-3e-05,-5e-05,-1e-05,-1e-05,3,24
43295,-8e-05,0,2e-05,1e-05,-3e-05,-5e-05,-1e-05,-1e-05,3,24
43296,-8e-05,0,2e-05,1e-05,-3e-05,-5e-05,-1e-05,-1e-05,3,24
43297,-8e-05,0,2e-05,1e-05,-3e-05,-5e-05,-1e-05,-1e-05,3,24
43298,-8e-05,0,2e-05,1e-05,-3e-05,-5e-05,-1e-05,-1e-05,3,24
43299,-8e-05,0,2e-05,1e-05,-3e-05,-5e-05,-1e-05,-1e-05,3,24
43300,-8e-05,0,2e-05,1e-05,-3e-05,-5e-05,-1e-05,-1e-05,3,24
43301,-8e-05,0,2e-05,1e-05,-3e-05,-5e-05,-1e-05,-1e-05,3,24
43302,-8e-05,0,2e-05,1e-05,-3e-05,-5e-05,-1e-05,-1e-05,3,24
43303,-8e-05,0,2e-05,1e-05,-3e-05,-5e-05,-1e-05,-1e-05,3,24
43304,-8e-05,0,2e-05,1e-05,-3e-05,-5e-05,-1e-05,-1e-05,3,24
43305,-8e-05,0,2e-05,1e-05,-3e-05,-5e-05,-1e-05,-1e-05,3,24
43306,-8e-05,0,2e-05,1e-05,-3e-05,-5e-05,-1e-05,-1e-05,3,24
43307,-8e-05,0,2e-05,1e-05,-3e-05,-5e-05,-1e-05,-1e-05,3,24
43308,-8e-05,0,2e-05,1e-05,-3e-05,-5e-05,-1e-05,-1e-05,3,24
43309,-8e-05,0,2e-05,1e-05,-3e-05,-5e-05,-1e-05,-1e-05,3,24
43310,-8e-05,0,2e-05,1e-05,-3e-05,-5e-05,-1e-05,-1e-05,3,24
43311,-8e-05,0,2e-05,1e-05,-3e-05,-5e-05,-1e-05,-1e-05,3,24
43312,-8e-05,0,2e-05,1e-05,-3e-05,-5e-05,-1e-05,-1e-05,3,24
43313,-8e-05,0,2e-05,1e-05,-3e-05,-5e-05,-1e-05,-1e-05,3,24
43314,-4e-05,-0.00019,-1e-05,-2e-05,4e-05,7e-05,5e-05,0.00014,3,24
43315,-4e-05,-0.00019,-1e-05,-2e-05,4e-05,7e-05,5e-05,0.00014,3,24
43316,-0.00013,-0.00024,-5e-05,-1e-05,1e-05,-2e-05,-7e-05,-0.00027,3,24
43317,-0.00013,-0.00024,-5e-05,-1e-05,1e-05,-2e-05,-7e-05,-0.00027,3,24
43318,-0.00013,-0.00024,-5e-05,-1e-05,1e-05,-2e-05,-7e-05,-0.00027,3,24
43319,-0.00013,-0.00024,-5e-05,-1e-05,1e-05,-2e-05,-7e-05,-0.00027,3,24
43320,-0.00013,-0.00024,-5e-05,-1e-05,1e-05,-2e-05,-7e-05,-0.00027,3,24
43321,-0.00013,-0.00024,-5e-05,-1e-05,1e-05,-2e-05,-7e-05,-0.00027,3,24
43322,-0.00013,-0.00024,-5e-05,-1e-05,1e-05,-2e-05,-7e-05,-0.00027,3,24
43323,-0.00013,-0.00024,-5e-05,-1e-05,1e-05,-2e-05,-7e-05,-0.00027,3,24
43324,-0.00013,-0.00024,-5e-05,-1e-05,1e-05,-2e-05,-7e-05,-0.00027,3,24
43325,-0.00013,-0.00024,-5e-05,-1e-05,1e-05,-2e-05,-7e-05,-0.00027,3,24
43326,-0.00013,-0.00024,-5e-05,-1e-05,1e-05,-2e-05,-7e-05,-0.00027,3,24
43327,-0.00013,-0.00024,-5e-05,-1e-05,1e-05,-2e-05,-7e-05,-0.00027,3,24
43328,-0.00013,-0.00024,-5e-05,-1e-05,1e-05,-2e-05,-7e-05,-0.00027,3,24
43329,-7e-05,3e-05,-1e-05,-4e-05,1e-05,0,0.0001,-0.00016,3,24
43330,-7e-05,3e-05,-1e-05,-4e-05,1e-05,0,0.0001,-0.00016,3,24
43331,0.00021,0.0003,4e-05,1e-05,-8e-05,-5e-05,-3e-05,2e-05,3,24
43332,0.00021,0.0003,4e-05,1e-05,-8e-05,-5e-05,-3e-05,2e-05,3,24
43333,0.00021,0.0003,4e-05,1e-05,-8e-05,-5e-05,-3e-05,2e-05,3,24
43334,0.00021,0.0003,4e-05,1e-05,-8e-05,-5e-05,-3e-05,2e-05,3,24
43335,0.00021,0.0003,4e-05,1e-05,-8e-05,-5e-05,-3e-05,2e-05,3,24
43336,0.00021,0.0003,4e-05,1e-05,-8e-05,-5e-05,-3e-05,2e-05,3,24
43339,0.00021,0.0003,4e-05,1e-05,-8e-05,-5e-05,-3e-05,2e-05,3,24
43340,0.00021,0.0003,4e-05,1e-05,-8e-05,-5e-05,-3e-05,2e-05,3,24
43341,0.00021,0.0003,4e-05,1e-05,-8e-05,-5e-05,-3e-05,2e-05,3,24
43342,0.00021,0.0003,4e-05,1e-05,-8e-05,-5e-05,-3e-05,2e-05,3,24
43343,0.00021,0.0003,4e-05,1e-05,-8e-05,-5e-05,-3e-05,2e-05,3,24
43344,0.00021,0.0003,4e-05,1e-05,-8e-05,-5e-05,-3e-05,2e-05,3,24
43345,0.00021,0.0003,4e-05,1e-05,-8e-05,-5e-05,-3e-05,2e-05,3,24
43346,0.00021,0.0003,4e-05,1e-05,-8e-05,-5e-05,-3e-05,2e-05,3,24
43347,0.00021,0.0003,4e-05,1e-05,-8e-05,-5e-05,-3e-05,2e-05,3,24
43348,0.00021,0.0003,4e-05,1e-05,-8e-05,-5e-05,-3e-05,2e-05,3,24
43349,0.00021,0.0003,4e-05,1e-05,-8e-05,-5e-05,-3e-05,2e-05,3,24
43350,0.00021,0.0003,4e-05,1e-05,-8e-05,-5e-05,-3e-05,2e-05,3,24
43351,0.00021,0.0003,4e-05,1e-05,-8e-05,-5e-05,-3e-05,2e-05,3,24
43352,-0.00022,-1e-05,2e-05,-1e-05,4e-05,1e-05,-0.0001,-2e-05,3,24
43353,-7e-05,0.00012,2e-05,-2e-05,-2e-05,-2e-05,-1e-05,-3e-05,3,24
43354,-7e-05,0.00012,2e-05,-2e-05,-2e-05,-2e-05,-1e-05,-3e-05,3,24
43355,-7e-05,0.00012,2e-05,-2e-05,-2e-05,-2e-05,-1e-05,-3e-05,3,24
43356,-7e-05,0.00012,2e-05,-2e-05,-2e-05,-2e-05,-1e-05,-3e-05,3,24
43357,-7e-05,0.00012,2e-05,-2e-05,-2e-05,-2e-05,-1e-05,-3e-05,3,24
43358,-7e-05,0.00012,2e-05,-2e-05,-2e-05,-2e-05,-1e-05,-3e-05,3,24
43359,-7e-05,0.00012,2e-05,-2e-05,-2e-05,-2e-05,-1e-05,-3e-05,3,24
43360,-7e-05,0.00012,2e-05,-2e-05,-2e-05,-2e-05,-1e-05,-3e-05,3,24
43361,-7e-05,0.00012,2e-05,-2e-05,-2e-05,-2e-05,-1e-05,-3e-05,3,24
43362,-7e-05,0.00012,2e-05,-2e-05,-2e-05,-2e-05,-1e-05,-3e-05,3,24
43363,-7e-05,0.00012,2e-05,-2e-05,-2e-05,-2e-05,-1e-05,-3e-05,3,24
43364,-7e-05,0.00012,2e-05,-2e-05,-2e-05,-2e-05,-1e-05,-3e-05,3,24
43365,-7e-05,0.00012,2e-05,-2e-05,-2e-05,-2e-05,-1e-05,-3e-05,3,24
43366,-7e-05,0.00012,2e-05,-2e-05,-2e-05,-2e-05,-1e-05,-3e-05,3,24
43367,-7e-05,0.00012,2e-05,-2e-05,-2e-05,-2e-05,-1e-05,-3e-05,3,24
43368,-7e-05,0.00012,2e-05,-2e-05,-2e-05,-2e-05,-1e-05,-3e-05,3,24
43369,-7e-05,0.00012,2e-05,-2e-05,-2e-05,-2e-05,-1e-05,-3e-05,3,24
43370,-7e-05,0.00012,2e-05,-2e-05,-2e-05,-2e-05,-1e-05,-3e-05,3,24
43371,-7e-05,0.00012,2e-05,-2e-05,-2e-05,-2e-05,-1e-05,-3e-05,3,24
43372,-7e-05,0.00012,2e-05,-2e-05,-2e-05,-2e-05,-1e-05,-3e-05,3,24
43373,-7e-05,0.00012,2e-05,-2e-05,-2e-05,-2e-05,-1e-05,-3e-05,3,24
43374,0.00019,0.0001,2e-05,0,3e-05,-5e-05,-1e-05,9e-05,3,24
43375,0.00019,0.0001,2e-05,0,3e-05,-5e-05,-1e-05,9e-05,3,24
43376,-0.00017,-4e-05,-0.00014,-1e-05,-2e-05,3e-05,0,-0.00024,3,24
43377,-0.00017,-4e-05,-0.00014,-1e-05,-2e-05,3e-05,0,-0.00024,3,24
43378,-0.00017,-4e-05,-0.00014,-1e-05,-2e-05,3e-05,0,-0.00024,3,24
43379,-0.00017,-4e-05,-0.00014,-1e-05,-2e-05,3e-05,0,-0.00024,3,24
43380,-0.00017,-4e-05,-0.00014,-1e-05,-2e-05,3e-05,0,-0.00024,3,24
43381,-0.00017,-4e-05,-0.00014,-1e-05,-2e-05,3e-05,0,-0.00024,3,24
43382,-0.00017,-4e-05,-0.00014,-1e-05,-2e-05,3e-05,0,-0.00024,3,24
43383,-0.00017,-4e-05,-0.00014,-1e-05,-2e-05,3e-05,0,-0.00024,3,24
43384,-0.00017,-4e-05,-0.00014,-1e-05,-2e-05,3e-05,0,-0.00024,3,24
43385,-0.00017,-4e-05,-0.00014,-1e-05,-2e-05,3e-05,0,-0.00024,3,24
43386,-0.00017,-4e-05,-0.00014,-1e-05,-2e-05,3e-05,0,-0.00024,3,24
43389,0,2e-05,1e-05,0,-4e-05,1e-05,-1e-05,-0.00016,3,24
43390,0,2e-05,1e-05,0,-4e-05,1e-05,-1e-05,-0.00016,3,24
43391,0,2e-05,1e-05,0,-4e-05,1e-05,-1e-05,-0.00016,3,24
43392,0,2e-05,1e-05,0,-4e-05,1e-05,-1e-05,-0.00016,3,24
43393,0,2e-05,1e-05,0,-4e-05,1e-05,-1e-05,-0.00016,3,24
43394,0,2e-05,1e-05,0,-4e-05,1e-05,-1e-05,-0.00016,3,24
43395,3e-05,-0.0003,1e-05,2e-05,-1e-05,-3e-05,-9e-05,9e-05,3,24
43396,3e-05,-0.0003,1e-05,2e-05,-1e-05,-3e-05,-9e-05,9e-05,3,24
43397,3e-05,-0.0003,1e-05,2e-05,-1e-05,-3e-05,-9e-05,9e-05,3,24
43398,3e-05,-0.0003,1e-05,2e-05,-1e-05,-3e-05,-9e-05,9e-05,3,24
43399,3e-05,-0.0003,1e-05,2e-05,-1e-05,-3e-05,-9e-05,9e-05,3,24
43400,3e-05,-0.0003,1e-05,2e-05,-1e-05,-3e-05,-9e-05,9e-05,3,24
43401,3e-05,-0.0003,1e-05,2e-05,-1e-05,-3e-05,-9e-05,9e-05,3,24
43402,3e-05,-0.0003,1e-05,2e-05,-1e-05,-3e-05,-9e-05,9e-05,3,24
43403,3e-05,-0.0003,1e-05,2e-05,-1e-05,-3e-05,-9e-05,9e-05,3,24
43404,3e-05,-0.0003,1e-05,2e-05,-1e-05,-3e-05,-9e-05,9e-05,3,24
43405,3e-05,-0.0003,1e-05,2e-05,-1e-05,-3e-05,-9e-05,9e-05,3,24
43406,3e-05,-0.0003,1e-05,2e-05,-1e-05,-3e-05,-9e-05,9e-05,3,24
43407,3e-05,-0.0003,1e-05,2e-05,-1e-05,-3e-05,-9e-05,9e-05,3,24
43408,3e-05,-0.0003,1e-05,2e-05,-1e-05,-3e-05,-9e-05,9e-05,3,24
43409,3e-05,-0.0003,1e-05,2e-05,-1e-05,-3e-05,-9e-05,9e-05,3,24
43410,3e-05,-0.0003,1e-05,2e-05,-1e-05,-3e-05,-9e-05,9e-05,3,24
43411,3e-05,-0.0003,1e-05,2e-05,-1e-05,-3e-05,-9e-05,9e-05,3,24
43412,0.00015,0.00031,2e-05,-1e-05,0,-1e-05,1e-05,-6e-05,3,24
43413,4e-05,0.00037,8e-05,2e-05,3e-05,0,0.00013,4e-05,3,24
43414,4e-05,0.00037,8e-05,2e-05,3e-05,0,0.00013,4e-05,3,24
43415,4e-05,0.00037,8e-05,2e-05,3e-05,0,0.00013,4e-05,3,24
43416,4e-05,0.00037,8e-05,2e-05,3e-05,0,0.00013,4e-05,3,24
43417,4e-05,0.00037,8e-05,2e-05,3e-05,0,0.00013,4e-05,3,24
43418,4e-05,0.00037,8e-05,2e-05,3e-05,0,0.00013,4e-05,3,24
43419,4e-05,0.00037,8e-05,2e-05,3e-05,0,0.00013,4e-05,3,24
43420,4e-05,0.00037,8e-05,2e-05,3e-05,0,0.00013,4e-05,3,24
43421,4e-05,0.00037,8e-05,2e-05,3e-05,0,0.00013,4e-05,3,24
43422,4e-05,0.00037,8e-05,2e-05,3e-05,0,0.00013,4e-05,3,24
43423,4e-05,0.00037,8e-05,2e-05,3e-05,0,0.00013,4e-05,3,24
43424,4e-05,0.00037,8e-05,2e-05,3e-05,0,0.00013,4e-05,3,24
43425,4e-05,0.00037,8e-05,2e-05,3e-05,0,0.00013,4e-05,3,24
43426,4e-05,0.00037,8e-05,2e-05,3e-05,0,0.00013,4e-05,3,24
43427,4e-05,0.00037,8e-05,2e-05,3e-05,0,0.00013,4e-05,3,24
43428,4e-05,0.00037,8e-05,2e-05,3e-05,0,0.00013,4e-05,3,24
43429,4e-05,0.00037,8e-05,2e-05,3e-05,0,0.00013,4e-05,3,24
43430,4e-05,0.00037,8e-05,2e-05,3e-05,0,0.00013,4e-05,3,24
43431,4e-05,0.00037,8e-05,2e-05,3e-05,0,0.00013,4e-05,3,24
43432,4e-05,0.00037,8e-05,2e-05,3e-05,0,0.00013,4e-05,3,24
43433,4e-05,0.00037,8e-05,2e-05,3e-05,0,0.00013,4e-05,3,24
43434,-0.0001,-0.00017,-4e-05,-2e-05,-6e-05,-2e-05,2e-05,0.00018,3,24
43435,-0.0001,-0.00017,-4e-05,-2e-05,-6e-05,-2e-05,2e-05,0.00018,3,24
43436,3e-05,1e-05,1e-05,-3e-05,-2e-05,1e-05,1e-05,6e-05,3,24
43439,3e-05,1e-05,1e-05,-3e-05,-2e-05,1e-05,1e-05,6e-05,3,24
43440,3e-05,1e-05,1e-05,-3e-05,-2e-05,1e-05,1e-05,6e-05,3,24
43441,3e-05,1e-05,1e-05,-3e-05,-2e-05,1e-05,1e-05,6e-05,3,24
43442,3e-05,1e-05,1e-05,-3e-05,-2e-05,1e-05,1e-05,6e-05,3,24
43443,3e-05,1e-05,1e-05,-3e-05,-2e-05,1e-05,1e-05,6e-05,3,24
43444,3e-05,1e-05,1e-05,-3e-05,-2e-05,1e-05,1e-05,6e-05,3,24
43445,3e-05,1e-05,1e-05,-3e-05,-2e-05,1e-05,1e-05,6e-05,3,24
43446,3e-05,1e-05,1e-05,-3e-05,-2e-05,1e-05,1e-05,6e-05,3,24
43447,3e-05,1e-05,1e-05,-3e-05,-2e-05,1e-05,1e-05,6e-05,3,24
43448,3e-05,1e-05,1e-05,-3e-05,-2e-05,1e-05,1e-05,6e-05,3,24
43449,3e-05,1e-05,1e-05,-3e-05,-2e-05,1e-05,1e-05,6e-05,3,24
43450,3e-05,1e-05,1e-05,-3e-05,-2e-05,1e-05,1e-05,6e-05,3,24
43451,3e-05,1e-05,1e-05,-3e-05,-2e-05,1e-05,1e-05,6e-05,3,24
43452,3e-05,1e-05,1e-05,-3e-05,-2e-05,1e-05,1e-05,6e-05,3,24
43453,3e-05,1e-05,1e-05,-3e-05,-2e-05,1e-05,1e-05,6e-05,3,24
43454,3e-05,1e-05,1e-05,-3e-05,-2e-05,1e-05,1e-05,6e-05,3,24
43455,3e-05,1e-05,1e-05,-3e-05,-2e-05,1e-05,1e-05,6e-05,3,24
43456,3e-05,1e-05,1e-05,-3e-05,-2e-05,1e-05,1e-05,6e-05,3,24
43457,-0.00016,-0.0001,-2e-05,1e-05,-7e-05,-3e-05,4e-05,0.0003,3,24
43458,-4e-05,-0.00022,-3e-05,-2e-05,-3e-05,-4e-05,-2e-05,9e-05,3,24
43459,-4e-05,-0.00022,-3e-05,-2e-05,-3e-05,-4e-05,-2e-05,9e-05,3,24
43460,-4e-05,-0.00022,-3e-05,-2e-05,-3e-05,-4e-05,-2e-05,9e-05,3,24
43461,-4e-05,-0.00022,-3e-05,-2e-05,-3e-05,-4e-05,-2e-05,9e-05,3,24
43462,-4e-05,-0.00022,-3e-05,-2e-05,-3e-05,-4e-05,-2e-05,9e-05,3,24
43463,-4e-05,-0.00022,-3e-05,-2e-05,-3e-05,-4e-05,-2e-05,9e-05,3,24
43464,-4e-05,-0.00022,-3e-05,-2e-05,-3e-05,-4e-05,-2e-05,9e-05,3,24
43465,-4e-05,-0.00022,-3e-05,-2e-05,-3e-05,-4e-05,-2e-05,9e-05,3,24
43466,-4e-05,-0.00022,-3e-05,-2e-05,-3e-05,-4e-05,-2e-05,9e-05,3,24
43467,-4e-05,-0.00022,-3e-05,-2e-05,-3e-05,-4e-05,-2e-05,9e-05,3,24
43468,-4e-05,-0.00022,-3e-05,-2e-05,-3e-05,-4e-05,-2e-05,9e-05,3,24
43469,-4e-05,-0.00022,-3e-05,-2e-05,-3e-05,-4e-05,-2e-05,9e-05,3,24
43470,-4e-05,-0.00022,-3e-05,-2e-05,-3e-05,-4e-05,-2e-05,9e-05,3,24
43471,-4e-05,-0.00022,-3e-05,-2e-05,-3e-05,-4e-05,-2e-05,9e-05,3,24
43472,0.00011,4e-05,-4e-05,-2e-05,-2e-05,-1e-05,-0.00011,-0.00023,3,24
43473,-3e-05,-6e-05,6e-05,2e-05,2e-05,0,-4e-05,0.00018,3,24
43474,-3e-05,-6e-05,6e-05,2e-05,2e-05,0,-4e-05,0.00018,3,24
43475,-3e-05,-6e-05,6e-05,2e-05,2e-05,0,-4e-05,0.00018,3,24
43476,-3e-05,-6e-05,6e-05,2e-05,2e-05,0,-4e-05,0.00018,3,24
43477,-3e-05,-6e-05,6e-05,2e-05,2e-05,0,-4e-05,0.00018,3,24
43478,-3e-05,-6e-05,6e-05,2e-05,2e-05,0,-4e-05,0.00018,3,24
43479,-3e-05,-6e-05,6e-05,2e-05,2e-05,0,-4e-05,0.00018,3,24
43480,-3e-05,-6e-05,6e-05,2e-05,2e-05,0,-4e-05,0.00018,3,24
43481,-3e-05,-6e-05,6e-05,2e-05,2e-05,0,-4e-05,0.00018,3,24
43482,-3e-05,-6e-05,6e-05,2e-05,2e-05,0,-4e-05,0.00018,3,24
43483,-3e-05,-6e-05,6e-05,2e-05,2e-05,0,-4e-05,0.00018,3,24
43484,-3e-05,-6e-05,6e-05,2e-05,2e-05,0,-4e-05,0.00018,3,24
43485,-3e-05,-6e-05,6e-05,2e-05,2e-05,0,-4e-05,0.00018,3,24
43486,-3e-05,-6e-05,6e-05,2e-05,2e-05,0,-4e-05,0.00018,3,24
43489,-3e-05,-6e-05,6e-05,2e-05,2e-05,0,-4e-05,0.00018,3,24
43490,-3e-05,-6e-05,6e-05,2e-05,2e-05,0,-4e-05,0.00018,3,24
43491,-3e-05,-6e-05,6e-05,2e-05,2e-05,0,-4e-05,0.00018,3,24
43492,-3e-05,-6e-05,6e-05,2e-05,2e-05,0,-4e-05,0.00018,3,24
43493,-3e-05,-6e-05,6e-05,2e-05,2e-05,0,-4e-05,0.00018,3,24
43494,2e-05,0,-0.00014,-1e-05,-4e-05,0,7e-05,0.00033,3,24
43495,2e-05,0,-0.00014,-1e-05,-4e-05,0,7e-05,0.00033,3,24
43496,-0.00013,8e-05,3e-05,-1e-05,4e-05,-1e-05,-3e-05,-0.00035,3,24
43497,-0.00013,8e-05,3e-05,-1e-05,4e-05,-1e-05,-3e-05,-0.00035,3,24
43498,-0.00013,8e-05,3e-05,-1e-05,4e-05,-1e-05,-3e-05,-0.00035,3,24
43499,-0.00013,8e-05,3e-05,-1e-05,4e-05,-1e-05,-3e-05,-0.00035,3,24
43500,-0.00013,8e-05,3e-05,-1e-05,4e-05,-1e-05,-3e-05,-0.00035,3,24
43501,-0.00013,8e-05,3e-05,-1e-05,4e-05,-1e-05,-3e-05,-0.00035,3,24
43502,-0.00013,8e-05,3e-05,-1e-05,4e-05,-1e-05,-3e-05,-0.00035,3,24
43503,-0.00013,8e-05,3e-05,-1e-05,4e-05,-1e-05,-3e-05,-0.00035,3,24
43504,-0.00013,8e-05,3e-05,-1e-05,4e-05,-1e-05,-3e-05,-0.00035,3,24
43505,-0.00013,8e-05,3e-05,-1e-05,4e-05,-1e-05,-3e-05,-0.00035,3,24
43506,-0.00013,8e-05,3e-05,-1e-05,4e-05,-1e-05,-3e-05,-0.00035,3,24
43507,-0.00013,8e-05,3e-05,-1e-05,4e-05,-1e-05,-3e-05,-0.00035,3,24
43508,3e-05,-0.00015,7e-05,5e-05,7e-05,3e-05,-2e-05,-0.00017,3,24
43509,3e-05,-0.00015,7e-05,5e-05,7e-05,3e-05,-2e-05,-0.00017,3,24
43510,3e-05,-0.00015,7e-05,5e-05,7e-05,3e-05,-2e-05,-0.00017,3,24
43511,3e-05,-0.00015,7e-05,5e-05,7e-05,3e-05,-2e-05,-0.00017,3,24
43512,3e-05,-0.00015,7e-05,5e-05,7e-05,3e-05,-2e-05,-0.00017,3,24
43513,3e-05,-0.00015,7e-05,5e-05,7e-05,3e-05,-2e-05,-0.00017,3,24
43514,3e-05,-0.00015,7e-05,5e-05,7e-05,3e-05,-2e-05,-0.00017,3,24
43515,3e-05,-0.00015,7e-05,5e-05,7e-05,3e-05,-2e-05,-0.00017,3,24
43516,3e-05,-0.00015,7e-05,5e-05,7e-05,3e-05,-2e-05,-0.00017,3,24
43517,3e-05,-0.00015,7e-05,5e-05,7e-05,3e-05,-2e-05,-0.00017,3,24
43518,3e-05,-0.00015,7e-05,5e-05,7e-05,3e-05,-2e-05,-0.00017,3,24
43519,3e-05,-0.00015,7e-05,5e-05,7e-05,3e-05,-2e-05,-0.00017,3,24
43520,3e-05,-0.00015,7e-05,5e-05,7e-05,3e-05,-2e-05,-0.00017,3,24
43521,3e-05,-0.00015,7e-05,5e-05,7e-05,3e-05,-2e-05,-0.00017,3,24
43522,3e-05,-0.00015,7e-05,5e-05,7e-05,3e-05,-2e-05,-0.00017,3,24
43523,-3e-05,-7e-05,-4e-05,-1e-05,-1e-05,-1e-05,-4e-05,-5e-05,3,24
43524,-3e-05,-7e-05,-4e-05,-1e-05,-1e-05,-1e-05,-4e-05,-5e-05,3,24
43525,-3e-05,-7e-05,-4e-05,-1e-05,-1e-05,-1e-05,-4e-05,-5e-05,3,24
43526,-3e-05,-7e-05,-4e-05,-1e-05,-1e-05,-1e-05,-4e-05,-5e-05,3,24
43527,-3e-05,-7e-05,-4e-05,-1e-05,-1e-05,-1e-05,-4e-05,-5e-05,3,24
43528,-3e-05,-7e-05,-4e-05,-1e-05,-1e-05,-1e-05,-4e-05,-5e-05,3,24
43529,-3e-05,-7e-05,-4e-05,-1e-05,-1e-05,-1e-05,-4e-05,-5e-05,3,24
43530,-3e-05,-7e-05,-4e-05,-1e-05,-1e-05,-1e-05,-4e-05,-5e-05,3,24
43531,-3e-05,-7e-05,-4e-05,-1e-05,-1e-05,-1e-05,-4e-05,-5e-05,3,24
43532,8e-05,7e-05,1e-05,-4e-05,0,-3e-05,3e-05,-5e-05,3,24
43533,-5e-05,0.00017,1e-05,2e-05,0.00011,3e-05,1e-05,-0.00016,3,24
43534,-5e-05,0.00017,1e-05,2e-05,0.00011,3e-05,1e-05,-0.00016,3,24
43535,-5e-05,0.00017,1e-05,2e-05,0.00011,3e-05,1e-05,-0.00016,3,24
43536,-5e-05,0.00017,1e-05,2e-05,0.00011,3e-05,1e-05,-0.00016,3,24
43539,-5e-05,0.00017,1e-05,2e-05,0.00011,3e-05,1e-05,-0.00016,3,24
43540,-5e-05,0.00017,1e-05,2e-05,0.00011,3e-05,1e-05,-0.00016,3,24
43541,-5e-05,0.00017,1e-05,2e-05,0.00011,3e-05,1e-05,-0.00016,3,24
43542,-5e-05,0.00017,1e-05,2e-05,0.00011,3e-05,1e-05,-0.00016,3,24
43543,-5e-05,0.00017,1e-05,2e-05,0.00011,3e-05,1e-05,-0.00016,3,24
43544,-5e-05,0.00017,1e-05,2e-05,0.00011,3e-05,1e-05,-0.00016,3,24
43545,-5e-05,0.00017,1e-05,2e-05,0.00011,3e-05,1e-05,-0.00016,3,24
43546,-5e-05,0.00017,1e-05,2e-05,0.00011,3e-05,1e-05,-0.00016,3,24
43547,-5e-05,0.00017,1e-05,2e-05,0.00011,3e-05,1e-05,-0.00016,3,24
43548,-5e-05,0.00017,1e-05,2e-05,0.00011,3e-05,1e-05,-0.00016,3,24
43549,-5e-05,0.00017,1e-05,2e-05,0.00011,3e-05,1e-05,-0.00016,3,24
43550,-5e-05,0.00017,1e-05,2e-05,0.00011,3e-05,1e-05,-0.00016,3,24
43551,-5e-05,0.00017,1e-05,2e-05,0.00011,3e-05,1e-05,-0.00016,3,24
43552,-5e-05,0.00017,1e-05,2e-05,0.00011,3e-05,1e-05,-0.00016,3,24
43553,-5e-05,0.00017,1e-05,2e-05,0.00011,3e-05,1e-05,-0.00016,3,24
43554,9e-05,9e-05,-1e-05,-4e-05,-3e-05,-5e-05,-4e-05,0.00018,3,24
43555,9e-05,9e-05,-1e-05,-4e-05,-3e-05,-5e-05,-4e-05,0.00018,3,24
43556,2e-05,3e-05,-2e-05,-6e-05,-0.00012,-3e-05,-2e-05,0.00013,3,24
43557,2e-05,3e-05,-2e-05,-6e-05,-0.00012,-3e-05,-2e-05,0.00013,3,24
43558,2e-05,3e-05,-2e-05,-6e-05,-0.00012,-3e-05,-2e-05,0.00013,3,24
43559,2e-05,3e-05,-2e-05,-6e-05,-0.00012,-3e-05,-2e-05,0.00013,3,24
43560,2e-05,3e-05,-2e-05,-6e-05,-0.00012,-3e-05,-2e-05,0.00013,3,24
43561,2e-05,3e-05,-2e-05,-6e-05,-0.00012,-3e-05,-2e-05,0.00013,3,24
43562,2e-05,3e-05,-2e-05,-6e-05,-0.00012,-3e-05,-2e-05,0.00013,3,24
43563,2e-05,3e-05,-2e-05,-6e-05,-0.00012,-3e-05,-2e-05,0.00013,3,24
43564,2e-05,3e-05,-2e-05,-6e-05,-0.00012,-3e-05,-2e-05,0.00013,3,24
43565,2e-05,3e-05,-2e-05,-6e-05,-0.00012,-3e-05,-2e-05,0.00013,3,24
43566,2e-05,3e-05,-2e-05,-6e-05,-0.00012,-3e-05,-2e-05,0.00013,3,24
43567,2e-05,3e-05,-2e-05,-6e-05,-0.00012,-3e-05,-2e-05,0.00013,3,24
43568,-2e-05,-0.00024,-6e-05,-3e-05,-4e-05,2e-05,0,8e-05,3,24
43569,-9e-05,1e-05,0,-1e-05,8e-05,-3e-05,-9e-05,-0.00013,3,24
43570,-9e-05,1e-05,0,-1e-05,8e-05,-3e-05,-9e-05,-0.00013,3,24
43571,-9e-05,1e-05,0,-1e-05,8e-05,-3e-05,-9e-05,-0.00013,3,24
43572,-9e-05,1e-05,0,-1e-05,8e-05,-3e-05,-9e-05,-0.00013,3,24
43573,-9e-05,1e-05,0,-1e-05,8e-05,-3e-05,-9e-05,-0.00013,3,24
43574,-9e-05,1e-05,0,-1e-05,8e-05,-3e-05,-9e-05,-0.00013,3,24
43575,0.0001,-4e-05,-2e-05,0,3e-05,-3e-05,5e-05,0.00044,3,24
43576,0.0001,-4e-05,-2e-05,0,3e-05,-3e-05,5e-05,0.00044,3,24
43577,0.0001,-4e-05,-2e-05,0,3e-05,-3e-05,5e-05,0.00044,3,24
43578,0.0001,-4e-05,-2e-05,0,3e-05,-3e-05,5e-05,0.00044,3,24
43579,0.0001,-4e-05,-2e-05,0,3e-05,-3e-05,5e-05,0.00044,3,24
43580,0.0001,-4e-05,-2e-05,0,3e-05,-3e-05,5e-05,0.00044,3,24
43581,0.0001,-4e-05,-2e-05,0,3e-05,-3e-05,5e-05,0.00044,3,24
43582,0.0001,-4e-05,-2e-05,0,3e-05,-3e-05,5e-05,0.00044,3,24
43583,0.0001,-4e-05,-2e-05,0,3e-05,-3e-05,5e-05,0.00044,3,24
43584,0.0001,-4e-05,-2e-05,0,3e-05,-3e-05,5e-05,0.00044,3,24
43585,0.0001,-4e-05,-2e-05,0,3e-05,-3e-05,5e-05,0.00044,3,24
43586,0.0001,-4e-05,-2e-05,0,3e-05,-3e-05,5e-05,0.00044,3,24
43589,0.0001,-4e-05,-2e-05,0,3e-05,-3e-05,5e-05,0.00044,3,24
43590,0.0001,-4e-05,-2e-05,0,3e-05,-3e-05,5e-05,0.00044,3,24
43591,0.0001,-4e-05,-2e-05,0,3e-05,-3e-05,5e-05,0.00044,3,24
43592,4e-05,-0.00016,-1e-05,-1e-05,-2e-05,-3e-05,-3e-05,-3e-05,3,24
43593,0.00014,0.00012,-8e-05,-1e-05,-1e-05,4e-05,-4e-05,-1e-05,3,24
43594,0.00014,0.00012,-8e-05,-1e-05,-1e-05,4e-05,-4e-05,-1e-05,3,24
43595,0.00014,0.00012,-8e-05,-1e-05,-1e-05,4e-05,-4e-05,-1e-05,3,24
43596,0.00014,0.00012,-8e-05,-1e-05,-1e-05,4e-05,-4e-05,-1e-05,3,24
43597,0.00014,0.00012,-8e-05,-1e-05,-1e-05,4e-05,-4e-05,-1e-05,3,24
43598,0.00014,0.00012,-8e-05,-1e-05,-1e-05,4e-05,-4e-05,-1e-05,3,24
43599,0.00014,0.00012,-8e-05,-1e-05,-1e-05,4e-05,-4e-05,-1e-05,3,24
43600,0.00014,0.00012,-8e-05,-1e-05,-1e-05,4e-05,-4e-05,-1e-05,3,24
43601,0.00014,0.00012,-8e-05,-1e-05,-1e-05,4e-05,-4e-05,-1e-05,3,24
43602,0.00014,0.00012,-8e-05,-1e-05,-1e-05,4e-05,-4e-05,-1e-05,3,24
43603,0.00014,0.00012,-8e-05,-1e-05,-1e-05,4e-05,-4e-05,-1e-05,3,24
43604,0.00014,0.00012,-8e-05,-1e-05,-1e-05,4e-05,-4e-05,-1e-05,3,24
43605,0.00014,0.00012,-8e-05,-1e-05,-1e-05,4e-05,-4e-05,-1e-05,3,24
43606,0.00014,0.00012,-8e-05,-1e-05,-1e-05,4e-05,-4e-05,-1e-05,3,24
43607,0.00014,0.00012,-8e-05,-1e-05,-1e-05,4e-05,-4e-05,-1e-05,3,24
43608,0.00014,0.00012,-8e-05,-1e-05,-1e-05,4e-05,-4e-05,-1e-05,3,24
43609,0.00014,0.00012,-8e-05,-1e-05,-1e-05,4e-05,-4e-05,-1e-05,3,24
43610,0.00014,0.00012,-8e-05,-1e-05,-1e-05,4e-05,-4e-05,-1e-05,3,24
43611,0.00014,0.00012,-8e-05,-1e-05,-1e-05,4e-05,-4e-05,-1e-05,3,24
43612,0.00014,0.00012,-8e-05,-1e-05,-1e-05,4e-05,-4e-05,-1e-05,3,24
43613,0.00014,0.00012,-8e-05,-1e-05,-1e-05,4e-05,-4e-05,-1e-05,3,24
43614,-0.0001,6e-05,2e-05,-2e-05,-6e-05,-2e-05,2e-05,-0.00017,3,24
43615,-0.0001,6e-05,2e-05,-2e-05,-6e-05,-2e-05,2e-05,-0.00017,3,24
43616,-2e-05,2e-05,0,2e-05,-7e-05,-1e-05,-0.00021,-0.00022,3,24
43617,-2e-05,2e-05,0,2e-05,-7e-05,-1e-05,-0.00021,-0.00022,3,24
43618,-2e-05,2e-05,0,2e-05,-7e-05,-1e-05,-0.00021,-0.00022,3,24
43619,-2e-05,2e-05,0,2e-05,-7e-05,-1e-05,-0.00021,-0.00022,3,24
43620,-2e-05,2e-05,0,2e-05,-7e-05,-1e-05,-0.00021,-0.00022,3,24
43621,-2e-05,2e-05,0,2e-05,-7e-05,-1e-05,-0.00021,-0.00022,3,24
43622,-2e-05,2e-05,0,2e-05,-7e-05,-1e-05,-0.00021,-0.00022,3,24
43623,-2e-05,2e-05,0,2e-05,-7e-05,-1e-05,-0.00021,-0.00022,3,24
43624,-2e-05,2e-05,0,2e-05,-7e-05,-1e-05,-0.00021,-0.00022,3,24
43625,-2e-05,2e-05,0,2e-05,-7e-05,-1e-05,-0.00021,-0.00022,3,24
43626,-2e-05,2e-05,0,2e-05,-7e-05,-1e-05,-0.00021,-0.00022,3,24
43627,-2e-05,2e-05,0,2e-05,-7e-05,-1e-05,-0.00021,-0.00022,3,24
43628,0.00011,0.00013,0,1e-05,0.00014,-1e-05,2e-05,0,3,24
43629,-7e-05,-5e-05,0,0,0,3e-05,4e-05,3e-05,3,24
43630,-7e-05,-5e-05,0,0,0,3e-05,4e-05,3e-05,3,24
43631,-7e-05,-5e-05,0,0,0,3e-05,4e-05,3e-05,3,24
43632,-7e-05,-5e-05,0,0,0,3e-05,4e-05,3e-05,3,24
43633,-7e-05,-5e-05,0,0,0,3e-05,4e-05,3e-05,3,24
43634,-7e-05,-5e-05,0,0,0,3e-05,4e-05,3e-05,3,24
43635,-6e-05,-0.0001,-2e-05,-3e-05,-4e-05,1e-05,1e-05,-2e-05,3,24
43636,-6e-05,-0.0001,-2e-05,-3e-05,-4e-05,1e-05,1e-05,-2e-05,3,24
43639,-6e-05,-0.0001,-2e-05,-3e-05,-4e-05,1e-05,1e-05,-2e-05,3,24
43640,-6e-05,-0.0001,-2e-05,-3e-05,-4e-05,1e-05,1e-05,-2e-05,3,24
43641,-6e-05,-0.0001,-2e-05,-3e-05,-4e-05,1e-05,1e-05,-2e-05,3,24
43642,-6e-05,-0.0001,-2e-05,-3e-05,-4e-05,1e-05,1e-05,-2e-05,3,24
43643,-6e-05,-0.0001,-2e-05,-3e-05,-4e-05,1e-05,1e-05,-2e-05,3,24
43644,-6e-05,-0.0001,-2e-05,-3e-05,-4e-05,1e-05,1e-05,-2e-05,3,24
43645,-6e-05,-0.0001,-2e-05,-3e-05,-4e-05,1e-05,1e-05,-2e-05,3,24
43646,-6e-05,-0.0001,-2e-05,-3e-05,-4e-05,1e-05,1e-05,-2e-05,3,24
43647,-6e-05,-0.0001,-2e-05,-3e-05,-4e-05,1e-05,1e-05,-2e-05,3,24
43648,-6e-05,-0.0001,-2e-05,-3e-05,-4e-05,1e-05,1e-05,-2e-05,3,24
43649,-6e-05,-0.0001,-2e-05,-3e-05,-4e-05,1e-05,1e-05,-2e-05,3,24
43650,-6e-05,-0.0001,-2e-05,-3e-05,-4e-05,1e-05,1e-05,-2e-05,3,24
43651,-6e-05,-0.0001,-2e-05,-3e-05,-4e-05,1e-05,1e-05,-2e-05,3,24
43652,3e-05,5e-05,0,-1e-05,3e-05,0,-5e-05,5e-05,3,24
43653,-6e-05,-4e-05,-1e-05,-2e-05,2e-05,-3e-05,5e-05,0,3,24
43654,-6e-05,-4e-05,-1e-05,-2e-05,2e-05,-3e-05,5e-05,0,3,24
43655,-6e-05,-4e-05,-1e-05,-2e-05,2e-05,-3e-05,5e-05,0,3,24
43656,-6e-05,-4e-05,-1e-05,-2e-05,2e-05,-3e-05,5e-05,0,3,24
43657,-6e-05,-4e-05,-1e-05,-2e-05,2e-05,-3e-05,5e-05,0,3,24
43658,-6e-05,-4e-05,-1e-05,-2e-05,2e-05,-3e-05,5e-05,0,3,24
43659,-6e-05,-4e-05,-1e-05,-2e-05,2e-05,-3e-05,5e-05,0,3,24
43660,-6e-05,-4e-05,-1e-05,-2e-05,2e-05,-3e-05,5e-05,0,3,24
43661,-6e-05,-4e-05,-1e-05,-2e-05,2e-05,-3e-05,5e-05,0,3,24
43662,-6e-05,-4e-05,-1e-05,-2e-05,2e-05,-3e-05,5e-05,0,3,24
43663,-6e-05,-4e-05,-1e-05,-2e-05,2e-05,-3e-05,5e-05,0,3,24
43664,-6e-05,-4e-05,-1e-05,-2e-05,2e-05,-3e-05,5e-05,0,3,24
43665,-6e-05,-4e-05,-1e-05,-2e-05,2e-05,-3e-05,5e-05,0,3,24
43666,-6e-05,-4e-05,-1e-05,-2e-05,2e-05,-3e-05,5e-05,0,3,24
43667,-6e-05,-4e-05,-1e-05,-2e-05,2e-05,-3e-05,5e-05,0,3,24
43668,-6e-05,-4e-05,-1e-05,-2e-05,2e-05,-3e-05,5e-05,0,3,24
43669,-6e-05,-4e-05,-1e-05,-2e-05,2e-05,-3e-05,5e-05,0,3,24
43670,-6e-05,-4e-05,-1e-05,-2e-05,2e-05,-3e-05,5e-05,0,3,24
43671,-6e-05,-4e-05,-1e-05,-2e-05,2e-05,-3e-05,5e-05,0,3,24
43672,-6e-05,-4e-05,-1e-05,-2e-05,2e-05,-3e-05,5e-05,0,3,24
43673,-6e-05,-4e-05,-1e-05,-2e-05,2e-05,-3e-05,5e-05,0,3,24
43674,-1e-05,-1e-05,-2e-05,0,-0.00012,-3e-05,-2e-05,1e-05,3,24
43675,-1e-05,-1e-05,-2e-05,0,-0.00012,-3e-05,-2e-05,1e-05,3,24
43676,0.0001,8e-05,1e-05,-2e-05,-1e-05,-3e-05,3e-05,-4e-05,3,24
43677,0.0001,8e-05,1e-05,-2e-05,-1e-05,-3e-05,3e-05,-4e-05,3,24
43678,0.0001,8e-05,1e-05,-2e-05,-1e-05,-3e-05,3e-05,-4e-05,3,24
43679,0.0001,8e-05,1e-05,-2e-05,-1e-05,-3e-05,3e-05,-4e-05,3,24
43680,0.0001,8e-05,1e-05,-2e-05,-1e-05,-3e-05,3e-05,-4e-05,3,24
43681,0.0001,8e-05,1e-05,-2e-05,-1e-05,-3e-05,3e-05,-4e-05,3,24
43682,0.0001,8e-05,1e-05,-2e-05,-1e-05,-3e-05,3e-05,-4e-05,3,24
43683,0.0001,8e-05,1e-05,-2e-05,-1e-05,-3e-05,3e-05,-4e-05,3,24
43684,0.0001,8e-05,1e-05,-2e-05,-1e-05,-3e-05,3e-05,-4e-05,3,24
43685,0.0001,8e-05,1e-05,-2e-05,-1e-05,-3e-05,3e-05,-4e-05,3,24
43686,0.0001,8e-05,1e-05,-2e-05,-1e-05,-3e-05,3e-05,-4e-05,3,24
