12375,-0.00034,1e-05,0,0.00026,0.00026,3e-05,-0.00018,-0.00019,3,25
12376,-0.00034,1e-05,0,0.00026,0.00026,3e-05,-0.00018,-0.00019,3,25
12377,-0.00034,1e-05,0,0.00026,0.00026,3e-05,-0.00018,-0.00019,3,25
12378,-0.00034,1e-05,0,0.00026,0.00026,3e-05,-0.00018,-0.00019,3,25
12379,-0.00034,1e-05,0,0.00026,0.00026,3e-05,-0.00018,-0.00019,3,25
12380,-0.00034,1e-05,0,0.00026,0.00026,3e-05,-0.00018,-0.00019,3,25
12381,-0.00034,1e-05,0,0.00026,0.00026,3e-05,-0.00018,-0.00019,3,25
12382,-0.00034,1e-05,0,0.00026,0.00026,3e-05,-0.00018,-0.00019,3,25
12383,-0.00034,1e-05,0,0.00026,0.00026,3e-05,-0.00018,-0.00019,3,25
12384,-0.00034,1e-05,0,0.00026,0.00026,3e-05,-0.00018,-0.00019,3,25
12386,-0.00034,1e-05,0,0.00026,0.00026,3e-05,-0.00018,-0.00019,3,25
12387,-0.00034,1e-05,0,0.00026,0.00026,3e-05,-0.00018,-0.00019,3,25
12388,-0.00034,1e-05,0,0.00026,0.00026,3e-05,-0.00018,-0.00019,3,25
12389,-0.00034,1e-05,0,0.00026,0.00026,3e-05,-0.00018,-0.00019,3,25
12390,-0.00034,1e-05,0,0.00026,0.00026,3e-05,-0.00018,-0.00019,3,25
12391,-0.00034,1e-05,0,0.00026,0.00026,3e-05,-0.00018,-0.00019,3,25
12392,0.00033,-0.00016,4e-05,0.00022,0.00033,0.00011,-0.0003,-4e-05,3,25
12393,-0.00035,-0.00042,-0.00013,-0.00012,-0.00019,7e-05,0.00046,0.0002,3,25
12394,-0.00035,-0.00042,-0.00013,-0.00012,-0.00019,7e-05,0.00046,0.0002,3,25
12395,-0.00035,-0.00042,-0.00013,-0.00012,-0.00019,7e-05,0.00046,0.0002,3,25
12396,-0.00035,-0.00042,-0.00013,-0.00012,-0.00019,7e-05,0.00046,0.0002,3,25
12397,-0.00035,-0.00042,-0.00013,-0.00012,-0.00019,7e-05,0.00046,0.0002,3,25
12398,-0.00035,-0.00042,-0.00013,-0.00012,-0.00019,7e-05,0.00046,0.0002,3,25
12399,-0.00035,-0.00042,-0.00013,-0.00012,-0.00019,7e-05,0.00046,0.0002,3,25
12400,-0.00035,-0.00042,-0.00013,-0.00012,-0.00019,7e-05,0.00046,0.0002,3,25
12401,-0.00035,-0.00042,-0.00013,-0.00012,-0.00019,7e-05,0.00046,0.0002,3,25
12402,-0.00035,-0.00042,-0.00013,-0.00012,-0.00019,7e-05,0.00046,0.0002,3,25
12403,-0.00035,-0.00042,-0.00013,-0.00012,-0.00019,7e-05,0.00046,0.0002,3,25
12404,-0.00035,-0.00042,-0.00013,-0.00012,-0.00019,7e-05,0.00046,0.0002,3,25
12405,-0.00035,-0.00042,-0.00013,-0.00012,-0.00019,7e-05,0.00046,0.0002,3,25
12406,-0.00035,-0.00042,-0.00013,-0.00012,-0.00019,7e-05,0.00046,0.0002,3,25
12407,-0.00035,-0.00042,-0.00013,-0.00012,-0.00019,7e-05,0.00046,0.0002,3,25
12408,-0.00035,-0.00042,-0.00013,-0.00012,-0.00019,7e-05,0.00046,0.0002,3,25
12409,-0.00035,-0.00042,-0.00013,-0.00012,-0.00019,7e-05,0.00046,0.0002,3,25
12410,-0.00035,-0.00042,-0.00013,-0.00012,-0.00019,7e-05,0.00046,0.0002,3,25
12411,-0.00035,-0.00042,-0.00013,-0.00012,-0.00019,7e-05,0.00046,0.0002,3,25
12412,-0.00035,-0.00042,-0.00013,-0.00012,-0.00019,7e-05,0.00046,0.0002,3,25
12413,-0.00035,-0.00042,-0.00013,-0.00012,-0.00019,7e-05,0.00046,0.0002,3,25
12414,-0.00035,-0.00042,-0.00013,-0.00012,-0.00019,7e-05,0.00046,0.0002,3,25
12415,-0.00013,-2e-05,-0.00015,-0.00017,-0.00034,-0.00022,-8e-05,2e-05,3,25
12416,0.00015,0.00021,1e-05,-0.00012,-0.00036,5e-05,0.00023,0.00035,3,25
12417,0.00015,0.00021,1e-05,-0.00012,-0.00036,5e-05,0.00023,0.00035,3,25
12418,0.00015,0.00021,1e-05,-0.00012,-0.00036,5e-05,0.00023,0.00035,3,25
12419,0.00015,0.00021,1e-05,-0.00012,-0.00036,5e-05,0.00023,0.00035,3,25
12420,0.00015,0.00021,1e-05,-0.00012,-0.00036,5e-05,0.00023,0.00035,3,25
12421,0.00015,0.00021,1e-05,-0.00012,-0.00036,5e-05,0.00023,0.00035,3,25
12422,0.00015,0.00021,1e-05,-0.00012,-0.00036,5e-05,0.00023,0.00035,3,25
12423,0.00015,0.00021,1e-05,-0.00012,-0.00036,5e-05,0.00023,0.00035,3,25
12424,0.00015,0.00021,1e-05,-0.00012,-0.00036,5e-05,0.00023,0.00035,3,25
12425,0.00015,0.00021,1e-05,-0.00012,-0.00036,5e-05,0.00023,0.00035,3,25
12426,0.00015,0.00021,1e-05,-0.00012,-0.00036,5e-05,0.00023,0.00035,3,25
12427,0.00015,0.00021,1e-05,-0.00012,-0.00036,5e-05,0.00023,0.00035,3,25
12428,0.00015,0.00021,1e-05,-0.00012,-0.00036,5e-05,0.00023,0.00035,3,25
12429,-0.00013,-0.0001,-6e-05,0.00027,0,0.00011,0.00029,0.00016,3,25
12430,-0.00013,-0.0001,-6e-05,0.00027,0,0.00011,0.00029,0.00016,3,25
12431,-0.00013,-0.0001,-6e-05,0.00027,0,0.00011,0.00029,0.00016,3,25
12432,-0.00013,-0.0001,-6e-05,0.00027,0,0.00011,0.00029,0.00016,3,25
12433,-0.00013,-0.0001,-6e-05,0.00027,0,0.00011,0.00029,0.00016,3,25
12434,-0.00013,-0.0001,-6e-05,0.00027,0,0.00011,0.00029,0.00016,3,25
12435,-0.00013,-0.0001,-6e-05,0.00027,0,0.00011,0.00029,0.00016,3,25
12436,-0.00013,-0.0001,-6e-05,0.00027,0,0.00011,0.00029,0.00016,3,25
12437,-0.00013,-0.0001,-6e-05,0.00027,0,0.00011,0.00029,0.00016,3,25
12438,-0.00026,-0.0002,-0.00016,0.00036,0.00112,0.00047,4e-05,8e-05,3,25
12439,-0.00026,-0.0002,-0.00016,0.00036,0.00112,0.00047,4e-05,8e-05,3,25
12440,-0.00026,-0.0002,-0.00016,0.00036,0.00112,0.00047,4e-05,8e-05,3,25
12441,-0.00026,-0.0002,-0.00016,0.00036,0.00112,0.00047,4e-05,8e-05,3,25
12442,-0.00026,-0.0002,-0.00016,0.00036,0.00112,0.00047,4e-05,8e-05,3,25
12443,-0.00026,-0.0002,-0.00016,0.00036,0.00112,0.00047,4e-05,8e-05,3,25
12444,-0.00026,-0.0002,-0.00016,0.00036,0.00112,0.00047,4e-05,8e-05,3,25
12445,-0.00026,-0.0002,-0.00016,0.00036,0.00112,0.00047,4e-05,8e-05,3,25
12447,-0.00026,-0.0002,-0.00016,0.00036,0.00112,0.00047,4e-05,8e-05,3,25
12448,-0.00026,-0.0002,-0.00016,0.00036,0.00112,0.00047,4e-05,8e-05,3,25
12449,-0.00026,-0.0002,-0.00016,0.00036,0.00112,0.00047,4e-05,8e-05,3,25
12450,-0.00026,-0.0002,-0.00016,0.00036,0.00112,0.00047,4e-05,8e-05,3,25
12451,-0.00026,-0.0002,-0.00016,0.00036,0.00112,0.00047,4e-05,8e-05,3,25
12452,0.00032,0.00018,9e-05,-4e-05,-0.00067,2e-05,-7e-05,0.00019,3,25
12453,0.00034,0.00023,0.0002,0.00029,0.00035,2e-05,-8e-05,0.0001,3,25
12454,0.00034,0.00023,0.0002,0.00029,0.00035,2e-05,-8e-05,0.0001,3,25
12455,0.00034,0.00023,0.0002,0.00029,0.00035,2e-05,-8e-05,0.0001,3,25
12456,0.00034,0.00023,0.0002,0.00029,0.00035,2e-05,-8e-05,0.0001,3,25
12457,0.00034,0.00023,0.0002,0.00029,0.00035,2e-05,-8e-05,0.0001,3,25
12458,0.00034,0.00023,0.0002,0.00029,0.00035,2e-05,-8e-05,0.0001,3,25
12459,0.00034,0.00023,0.0002,0.00029,0.00035,2e-05,-8e-05,0.0001,3,25
12460,0.00034,0.00023,0.0002,0.00029,0.00035,2e-05,-8e-05,0.0001,3,25
12461,0.00034,0.00023,0.0002,0.00029,0.00035,2e-05,-8e-05,0.0001,3,25
12462,0.00034,0.00023,0.0002,0.00029,0.00035,2e-05,-8e-05,0.0001,3,25
12463,0.00034,0.00023,0.0002,0.00029,0.00035,2e-05,-8e-05,0.0001,3,25
12464,0.00034,0.00023,0.0002,0.00029,0.00035,2e-05,-8e-05,0.0001,3,25
12465,0.00034,0.00023,0.0002,0.00029,0.00035,2e-05,-8e-05,0.0001,3,25
12466,0.00034,0.00023,0.0002,0.00029,0.00035,2e-05,-8e-05,0.0001,3,25
12467,0.00034,0.00023,0.0002,0.00029,0.00035,2e-05,-8e-05,0.0001,3,25
12468,0.00034,0.00023,0.0002,0.00029,0.00035,2e-05,-8e-05,0.0001,3,25
12469,0.00034,0.00023,0.0002,0.00029,0.00035,2e-05,-8e-05,0.0001,3,25
12470,0.00034,0.00023,0.0002,0.00029,0.00035,2e-05,-8e-05,0.0001,3,25
12471,0.00034,0.00023,0.0002,0.00029,0.00035,2e-05,-8e-05,0.0001,3,25
12472,0.00034,0.00023,0.0002,0.00029,0.00035,2e-05,-8e-05,0.0001,3,25
12473,0.00034,0.00023,0.0002,0.00029,0.00035,2e-05,-8e-05,0.0001,3,25
12474,0.00034,0.00023,0.0002,0.00029,0.00035,2e-05,-8e-05,0.0001,3,25
12475,-0.00067,-0.00033,-9e-05,-0.00033,0.00026,-0.00017,-0.00021,-4e-05,3,25
12476,-3e-05,2e-05,0.00011,-2e-05,-0.00064,-0.00015,-5e-05,0.00036,3,25
12477,-3e-05,2e-05,0.00011,-2e-05,-0.00064,-0.00015,-5e-05,0.00036,3,25
12478,-3e-05,2e-05,0.00011,-2e-05,-0.00064,-0.00015,-5e-05,0.00036,3,25
12479,-3e-05,2e-05,0.00011,-2e-05,-0.00064,-0.00015,-5e-05,0.00036,3,25
12480,-3e-05,2e-05,0.00011,-2e-05,-0.00064,-0.00015,-5e-05,0.00036,3,25
12481,-3e-05,2e-05,0.00011,-2e-05,-0.00064,-0.00015,-5e-05,0.00036,3,25
12482,-3e-05,2e-05,0.00011,-2e-05,-0.00064,-0.00015,-5e-05,0.00036,3,25
12483,-3e-05,2e-05,0.00011,-2e-05,-0.00064,-0.00015,-5e-05,0.00036,3,25
12484,-3e-05,2e-05,0.00011,-2e-05,-0.00064,-0.00015,-5e-05,0.00036,3,25
12485,-3e-05,2e-05,0.00011,-2e-05,-0.00064,-0.00015,-5e-05,0.00036,3,25
12486,-3e-05,2e-05,0.00011,-2e-05,-0.00064,-0.00015,-5e-05,0.00036,3,25
12487,-3e-05,2e-05,0.00011,-2e-05,-0.00064,-0.00015,-5e-05,0.00036,3,25
12488,-3e-05,2e-05,0.00011,-2e-05,-0.00064,-0.00015,-5e-05,0.00036,3,25
12489,7e-05,0.00024,0.00014,-0.00019,-0.00056,-0.00018,3e-05,0.00023,3,25
12490,7e-05,0.00024,0.00014,-0.00019,-0.00056,-0.00018,3e-05,0.00023,3,25
12491,7e-05,0.00024,0.00014,-0.00019,-0.00056,-0.00018,3e-05,0.00023,3,25
12492,7e-05,0.00024,0.00014,-0.00019,-0.00056,-0.00018,3e-05,0.00023,3,25
12493,7e-05,0.00024,0.00014,-0.00019,-0.00056,-0.00018,3e-05,0.00023,3,25
12495,7e-05,0.00024,0.00014,-0.00019,-0.00056,-0.00018,3e-05,0.00023,3,25
12496,7e-05,0.00024,0.00014,-0.00019,-0.00056,-0.00018,3e-05,0.00023,3,25
12497,-0.00052,-0.00029,2e-05,0.00032,-0.00016,-6e-05,-0.00013,-0.00018,3,25
12498,-0.00052,-0.00029,2e-05,0.00032,-0.00016,-6e-05,-0.00013,-0.00018,3,25
12499,-0.00052,-0.00029,2e-05,0.00032,-0.00016,-6e-05,-0.00013,-0.00018,3,25
12500,-0.00052,-0.00029,2e-05,0.00032,-0.00016,-6e-05,-0.00013,-0.00018,3,25
12501,-0.00052,-0.00029,2e-05,0.00032,-0.00016,-6e-05,-0.00013,-0.00018,3,25
12502,-0.00052,-0.00029,2e-05,0.00032,-0.00016,-6e-05,-0.00013,-0.00018,3,25
12503,-0.00052,-0.00029,2e-05,0.00032,-0.00016,-6e-05,-0.00013,-0.00018,3,25
12504,-0.00052,-0.00029,2e-05,0.00032,-0.00016,-6e-05,-0.00013,-0.00018,3,25
12505,-0.00052,-0.00029,2e-05,0.00032,-0.00016,-6e-05,-0.00013,-0.00018,3,25
12506,-0.00052,-0.00029,2e-05,0.00032,-0.00016,-6e-05,-0.00013,-0.00018,3,25
12507,-0.00052,-0.00029,2e-05,0.00032,-0.00016,-6e-05,-0.00013,-0.00018,3,25
12508,-0.00052,-0.00029,2e-05,0.00032,-0.00016,-6e-05,-0.00013,-0.00018,3,25
12509,-0.00052,-0.00029,2e-05,0.00032,-0.00016,-6e-05,-0.00013,-0.00018,3,25
12510,-0.00052,-0.00029,2e-05,0.00032,-0.00016,-6e-05,-0.00013,-0.00018,3,25
12511,-0.00052,-0.00029,2e-05,0.00032,-0.00016,-6e-05,-0.00013,-0.00018,3,25
12512,-0.00052,-0.00029,2e-05,0.00032,-0.00016,-6e-05,-0.00013,-0.00018,3,25
12513,-0.0001,-5e-05,-3e-05,-0.00016,-0.00018,-0.0003,-0.00021,-0.00022,3,25
12514,-0.0001,-5e-05,-3e-05,-0.00016,-0.00018,-0.0003,-0.00021,-0.00022,3,25
12515,-0.0001,-5e-05,-3e-05,-0.00016,-0.00018,-0.0003,-0.00021,-0.00022,3,25
12516,-0.0001,-5e-05,-3e-05,-0.00016,-0.00018,-0.0003,-0.00021,-0.00022,3,25
12517,-0.0001,-5e-05,-3e-05,-0.00016,-0.00018,-0.0003,-0.00021,-0.00022,3,25
12518,-0.0001,-5e-05,-3e-05,-0.00016,-0.00018,-0.0003,-0.00021,-0.00022,3,25
12519,-0.0001,-5e-05,-3e-05,-0.00016,-0.00018,-0.0003,-0.00021,-0.00022,3,25
12520,-0.0001,-5e-05,-3e-05,-0.00016,-0.00018,-0.0003,-0.00021,-0.00022,3,25
12521,-0.0001,-5e-05,-3e-05,-0.00016,-0.00018,-0.0003,-0.00021,-0.00022,3,25
12522,-0.0001,-5e-05,-3e-05,-0.00016,-0.00018,-0.0003,-0.00021,-0.00022,3,25
12523,-0.0001,-5e-05,-3e-05,-0.00016,-0.00018,-0.0003,-0.00021,-0.00022,3,25
12524,-0.0001,-5e-05,-3e-05,-0.00016,-0.00018,-0.0003,-0.00021,-0.00022,3,25
12525,-0.0001,-5e-05,-3e-05,-0.00016,-0.00018,-0.0003,-0.00021,-0.00022,3,25
12526,-0.0001,-5e-05,-3e-05,-0.00016,-0.00018,-0.0003,-0.00021,-0.00022,3,25
12527,-0.0001,-5e-05,-3e-05,-0.00016,-0.00018,-0.0003,-0.00021,-0.00022,3,25
12528,-0.0001,-5e-05,-3e-05,-0.00016,-0.00018,-0.0003,-0.00021,-0.00022,3,25
12529,-0.0001,-5e-05,-3e-05,-0.00016,-0.00018,-0.0003,-0.00021,-0.00022,3,25
12530,-0.0001,-5e-05,-3e-05,-0.00016,-0.00018,-0.0003,-0.00021,-0.00022,3,25
12531,-0.0001,-5e-05,-3e-05,-0.00016,-0.00018,-0.0003,-0.00021,-0.00022,3,25
12532,-0.0001,-5e-05,-3e-05,-0.00016,-0.00018,-0.0003,-0.00021,-0.00022,3,25
12533,-0.0001,-5e-05,-3e-05,-0.00016,-0.00018,-0.0003,-0.00021,-0.00022,3,25
12534,-0.0001,-5e-05,-3e-05,-0.00016,-0.00018,-0.0003,-0.00021,-0.00022,3,25
12535,2e-05,0.00026,-0.00013,-3e-05,-0.00017,-1e-05,0.00011,0.0002,3,25
12536,6e-05,0.00011,9e-05,8e-05,-6e-05,-3e-05,0.00011,0.00037,3,25
12537,6e-05,0.00011,9e-05,8e-05,-6e-05,-3e-05,0.00011,0.00037,3,25
12538,6e-05,0.00011,9e-05,8e-05,-6e-05,-3e-05,0.00011,0.00037,3,25
12539,6e-05,0.00011,9e-05,8e-05,-6e-05,-3e-05,0.00011,0.00037,3,25
12540,6e-05,0.00011,9e-05,8e-05,-6e-05,-3e-05,0.00011,0.00037,3,25
12542,6e-05,0.00011,9e-05,8e-05,-6e-05,-3e-05,0.00011,0.00037,3,25
12543,6e-05,0.00011,9e-05,8e-05,-6e-05,-3e-05,0.00011,0.00037,3,25
12544,6e-05,0.00011,9e-05,8e-05,-6e-05,-3e-05,0.00011,0.00037,3,25
12545,6e-05,0.00011,9e-05,8e-05,-6e-05,-3e-05,0.00011,0.00037,3,25
12546,6e-05,0.00011,9e-05,8e-05,-6e-05,-3e-05,0.00011,0.00037,3,25
12547,6e-05,0.00011,9e-05,8e-05,-6e-05,-3e-05,0.00011,0.00037,3,25
12548,6e-05,0.00011,9e-05,8e-05,-6e-05,-3e-05,0.00011,0.00037,3,25
12549,-0.00015,-1e-05,-0.00018,-0.00052,-0.00038,-0.00027,2e-05,-8e-05,3,25
12550,-0.00015,-1e-05,-0.00018,-0.00052,-0.00038,-0.00027,2e-05,-8e-05,3,25
12551,-0.00015,-1e-05,-0.00018,-0.00052,-0.00038,-0.00027,2e-05,-8e-05,3,25
12552,-0.00015,-1e-05,-0.00018,-0.00052,-0.00038,-0.00027,2e-05,-8e-05,3,25
12553,-0.00015,-1e-05,-0.00018,-0.00052,-0.00038,-0.00027,2e-05,-8e-05,3,25
12554,-0.00015,-1e-05,-0.00018,-0.00052,-0.00038,-0.00027,2e-05,-8e-05,3,25
12555,-0.00015,-1e-05,-0.00018,-0.00052,-0.00038,-0.00027,2e-05,-8e-05,3,25
12556,-0.00015,-1e-05,-0.00018,-0.00052,-0.00038,-0.00027,2e-05,-8e-05,3,25
12557,0.0002,0.00024,-0.00019,-0.00035,-0.00047,-0.00018,-0.00014,-0.00014,3,25
12558,0.0002,0.00024,-0.00019,-0.00035,-0.00047,-0.00018,-0.00014,-0.00014,3,25
12559,0.0002,0.00024,-0.00019,-0.00035,-0.00047,-0.00018,-0.00014,-0.00014,3,25
12560,0.0002,0.00024,-0.00019,-0.00035,-0.00047,-0.00018,-0.00014,-0.00014,3,25
12561,0.0002,0.00024,-0.00019,-0.00035,-0.00047,-0.00018,-0.00014,-0.00014,3,25
12562,0.0002,0.00024,-0.00019,-0.00035,-0.00047,-0.00018,-0.00014,-0.00014,3,25
12563,0.0002,0.00024,-0.00019,-0.00035,-0.00047,-0.00018,-0.00014,-0.00014,3,25
12564,0.0002,0.00024,-0.00019,-0.00035,-0.00047,-0.00018,-0.00014,-0.00014,3,25
12565,0.0002,0.00024,-0.00019,-0.00035,-0.00047,-0.00018,-0.00014,-0.00014,3,25
12566,0.0002,0.00024,-0.00019,-0.00035,-0.00047,-0.00018,-0.00014,-0.00014,3,25
12567,0.0002,0.00024,-0.00019,-0.00035,-0.00047,-0.00018,-0.00014,-0.00014,3,25
12568,0.0002,0.00024,-0.00019,-0.00035,-0.00047,-0.00018,-0.00014,-0.00014,3,25
12569,0.0002,0.00024,-0.00019,-0.00035,-0.00047,-0.00018,-0.00014,-0.00014,3,25
12570,0.0002,0.00024,-0.00019,-0.00035,-0.00047,-0.00018,-0.00014,-0.00014,3,25
12571,0.0002,0.00024,-0.00019,-0.00035,-0.00047,-0.00018,-0.00014,-0.00014,3,25
12572,0.00011,-3e-05,-0.00011,-2e-05,4e-05,-0.00012,-5e-05,6e-05,3,25
12573,2e-05,5e-05,0.00022,0.00016,0.00013,2e-05,0.00018,-0.0001,3,25
12574,2e-05,5e-05,0.00022,0.00016,0.00013,2e-05,0.00018,-0.0001,3,25
12575,2e-05,5e-05,0.00022,0.00016,0.00013,2e-05,0.00018,-0.0001,3,25
12576,2e-05,5e-05,0.00022,0.00016,0.00013,2e-05,0.00018,-0.0001,3,25
12577,2e-05,5e-05,0.00022,0.00016,0.00013,2e-05,0.00018,-0.0001,3,25
12578,2e-05,5e-05,0.00022,0.00016,0.00013,2e-05,0.00018,-0.0001,3,25
12579,2e-05,5e-05,0.00022,0.00016,0.00013,2e-05,0.00018,-0.0001,3,25
12580,2e-05,5e-05,0.00022,0.00016,0.00013,2e-05,0.00018,-0.0001,3,25
12581,2e-05,5e-05,0.00022,0.00016,0.00013,2e-05,0.00018,-0.0001,3,25
12582,2e-05,5e-05,0.00022,0.00016,0.00013,2e-05,0.00018,-0.0001,3,25
12583,2e-05,5e-05,0.00022,0.00016,0.00013,2e-05,0.00018,-0.0001,3,25
12584,2e-05,5e-05,0.00022,0.00016,0.00013,2e-05,0.00018,-0.0001,3,25
12585,2e-05,5e-05,0.00022,0.00016,0.00013,2e-05,0.00018,-0.0001,3,25
12587,2e-05,5e-05,0.00022,0.00016,0.00013,2e-05,0.00018,-0.0001,3,25
12588,2e-05,5e-05,0.00022,0.00016,0.00013,2e-05,0.00018,-0.0001,3,25
12589,2e-05,5e-05,0.00022,0.00016,0.00013,2e-05,0.00018,-0.0001,3,25
12590,2e-05,5e-05,0.00022,0.00016,0.00013,2e-05,0.00018,-0.0001,3,25
12591,2e-05,5e-05,0.00022,0.00016,0.00013,2e-05,0.00018,-0.0001,3,25
12592,2e-05,5e-05,0.00022,0.00016,0.00013,2e-05,0.00018,-0.0001,3,25
12593,2e-05,5e-05,0.00022,0.00016,0.00013,2e-05,0.00018,-0.0001,3,25
12594,2e-05,5e-05,0.00022,0.00016,0.00013,2e-05,0.00018,-0.0001,3,25
12595,2e-05,5e-05,0.00022,0.00016,0.00013,2e-05,0.00018,-0.0001,3,25
12596,-0.00036,-0.00046,3e-05,0.0002,0.00097,0.00017,-0.00016,-0.00045,3,25
12597,-0.00036,-0.00046,3e-05,0.0002,0.00097,0.00017,-0.00016,-0.00045,3,25
12598,-0.00036,-0.00046,3e-05,0.0002,0.00097,0.00017,-0.00016,-0.00045,3,25
12599,-0.00036,-0.00046,3e-05,0.0002,0.00097,0.00017,-0.00016,-0.00045,3,25
12600,-0.00036,-0.00046,3e-05,0.0002,0.00097,0.00017,-0.00016,-0.00045,3,25
12601,-0.00036,-0.00046,3e-05,0.0002,0.00097,0.00017,-0.00016,-0.00045,3,25
12602,-0.00036,-0.00046,3e-05,0.0002,0.00097,0.00017,-0.00016,-0.00045,3,25
12603,-0.00036,-0.00046,3e-05,0.0002,0.00097,0.00017,-0.00016,-0.00045,3,25
12604,-0.00036,-0.00046,3e-05,0.0002,0.00097,0.00017,-0.00016,-0.00045,3,25
12605,-0.00036,-0.00046,3e-05,0.0002,0.00097,0.00017,-0.00016,-0.00045,3,25
12606,-0.00036,-0.00046,3e-05,0.0002,0.00097,0.00017,-0.00016,-0.00045,3,25
12607,-0.00036,-0.00046,3e-05,0.0002,0.00097,0.00017,-0.00016,-0.00045,3,25
12608,-0.00036,-0.00046,3e-05,0.0002,0.00097,0.00017,-0.00016,-0.00045,3,25
12609,-1e-05,-3e-05,7e-05,0.00019,0.00037,0.00047,1e-05,-0.00038,3,25
12610,-1e-05,-3e-05,7e-05,0.00019,0.00037,0.00047,1e-05,-0.00038,3,25
12611,-1e-05,-3e-05,7e-05,0.00019,0.00037,0.00047,1e-05,-0.00038,3,25
12612,-1e-05,-3e-05,7e-05,0.00019,0.00037,0.00047,1e-05,-0.00038,3,25
12613,-1e-05,-3e-05,7e-05,0.00019,0.00037,0.00047,1e-05,-0.00038,3,25
12614,-1e-05,-3e-05,7e-05,0.00019,0.00037,0.00047,1e-05,-0.00038,3,25
12615,-1e-05,-3e-05,7e-05,0.00019,0.00037,0.00047,1e-05,-0.00038,3,25
12616,-1e-05,-3e-05,7e-05,0.00019,0.00037,0.00047,1e-05,-0.00038,3,25
12617,-0.0001,-0.00023,-0.00015,-0.00035,4e-05,6e-05,-0.00014,-0.0002,3,25
12618,-0.0001,-0.00023,-0.00015,-0.00035,4e-05,6e-05,-0.00014,-0.0002,3,25
12619,-0.0001,-0.00023,-0.00015,-0.00035,4e-05,6e-05,-0.00014,-0.0002,3,25
12620,-0.0001,-0.00023,-0.00015,-0.00035,4e-05,6e-05,-0.00014,-0.0002,3,25
12621,-0.0001,-0.00023,-0.00015,-0.00035,4e-05,6e-05,-0.00014,-0.0002,3,25
12622,-0.0001,-0.00023,-0.00015,-0.00035,4e-05,6e-05,-0.00014,-0.0002,3,25
12623,-0.0001,-0.00023,-0.00015,-0.00035,4e-05,6e-05,-0.00014,-0.0002,3,25
12624,-0.0001,-0.00023,-0.00015,-0.00035,4e-05,6e-05,-0.00014,-0.0002,3,25
12625,-0.0001,-0.00023,-0.00015,-0.00035,4e-05,6e-05,-0.00014,-0.0002,3,25
12626,-0.0001,-0.00023,-0.00015,-0.00035,4e-05,6e-05,-0.00014,-0.0002,3,25
12627,-0.0001,-0.00023,-0.00015,-0.00035,4e-05,6e-05,-0.00014,-0.0002,3,25
12628,-0.0001,-0.00023,-0.00015,-0.00035,4e-05,6e-05,-0.00014,-0.0002,3,25
12629,-0.0001,-0.00023,-0.00015,-0.00035,4e-05,6e-05,-0.00014,-0.0002,3,25
12630,-0.0001,-0.00023,-0.00015,-0.00035,4e-05,6e-05,-0.00014,-0.0002,3,25
12631,-0.0001,-0.00023,-0.00015,-0.00035,4e-05,6e-05,-0.00014,-0.0002,3,25
12632,0.0003,0.00015,0.00025,0.00017,1e-05,0.00017,0.00019,0.00012,3,25
12633,2e-05,-0.0003,-0.00018,-0.00022,-1e-05,-8e-05,-3e-05,-0.00015,3,25
12634,2e-05,-0.0003,-0.00018,-0.00022,-1e-05,-8e-05,-3e-05,-0.00015,3,25
12635,2e-05,-0.0003,-0.00018,-0.00022,-1e-05,-8e-05,-3e-05,-0.00015,3,25
12636,2e-05,-0.0003,-0.00018,-0.00022,-1e-05,-8e-05,-3e-05,-0.00015,3,25
12637,2e-05,-0.0003,-0.00018,-0.00022,-1e-05,-8e-05,-3e-05,-0.00015,3,25
12638,2e-05,-0.0003,-0.00018,-0.00022,-1e-05,-8e-05,-3e-05,-0.00015,3,25
12639,2e-05,-0.0003,-0.00018,-0.00022,-1e-05,-8e-05,-3e-05,-0.00015,3,25
12640,2e-05,-0.0003,-0.00018,-0.00022,-1e-05,-8e-05,-3e-05,-0.00015,3,25
12641,2e-05,-0.0003,-0.00018,-0.00022,-1e-05,-8e-05,-3e-05,-0.00015,3,25
12642,2e-05,-0.0003,-0.00018,-0.00022,-1e-05,-8e-05,-3e-05,-0.00015,3,25
12643,2e-05,-0.0003,-0.00018,-0.00022,-1e-05,-8e-05,-3e-05,-0.00015,3,25
12644,2e-05,-0.0003,-0.00018,-0.00022,-1e-05,-8e-05,-3e-05,-0.00015,3,25
12645,2e-05,-0.0003,-0.00018,-0.00022,-1e-05,-8e-05,-3e-05,-0.00015,3,25
12646,2e-05,-0.0003,-0.00018,-0.00022,-1e-05,-8e-05,-3e-05,-0.00015,3,25
12647,2e-05,-0.0003,-0.00018,-0.00022,-1e-05,-8e-05,-3e-05,-0.00015,3,25
12648,2e-05,-0.0003,-0.00018,-0.00022,-1e-05,-8e-05,-3e-05,-0.00015,3,25
12649,2e-05,-0.0003,-0.00018,-0.00022,-1e-05,-8e-05,-3e-05,-0.00015,3,25
12650,2e-05,-0.0003,-0.00018,-0.00022,-1e-05,-8e-05,-3e-05,-0.00015,3,25
12651,2e-05,-0.0003,-0.00018,-0.00022,-1e-05,-8e-05,-3e-05,-0.00015,3,25
12652,2e-05,-0.0003,-0.00018,-0.00022,-1e-05,-8e-05,-3e-05,-0.00015,3,25
12653,2e-05,-0.0003,-0.00018,-0.00022,-1e-05,-8e-05,-3e-05,-0.00015,3,25
12654,2e-05,-0.0003,-0.00018,-0.00022,-1e-05,-8e-05,-3e-05,-0.00015,3,25
12655,2e-05,-0.0003,-0.00018,-0.00022,-1e-05,-8e-05,-3e-05,-0.00015,3,25
12656,0.00036,0.00035,0.00012,0.00012,-0.0001,-1e-05,9e-05,-0.00016,3,25
12657,-0.00027,0.00022,6e-05,0.00033,0.00058,0.00039,0.00021,7e-05,3,25
12658,-0.00027,0.00022,6e-05,0.00033,0.00058,0.00039,0.00021,7e-05,3,25
12659,-0.00027,0.00022,6e-05,0.00033,0.00058,0.00039,0.00021,7e-05,3,25
12660,-0.00027,0.00022,6e-05,0.00033,0.00058,0.00039,0.00021,7e-05,3,25
12661,-0.00027,0.00022,6e-05,0.00033,0.00058,0.00039,0.00021,7e-05,3,25
12662,-0.00027,0.00022,6e-05,0.00033,0.00058,0.00039,0.00021,7e-05,3,25
12663,-0.00027,0.00022,6e-05,0.00033,0.00058,0.00039,0.00021,7e-05,3,25
12664,-0.00027,0.00022,6e-05,0.00033,0.00058,0.00039,0.00021,7e-05,3,25
12665,-0.00027,0.00022,6e-05,0.00033,0.00058,0.00039,0.00021,7e-05,3,25
12666,-0.00027,0.00022,6e-05,0.00033,0.00058,0.00039,0.00021,7e-05,3,25
12667,-0.00027,0.00022,6e-05,0.00033,0.00058,0.00039,0.00021,7e-05,3,25
12668,-0.00027,0.00022,6e-05,0.00033,0.00058,0.00039,0.00021,7e-05,3,25
12669,0.00014,2e-05,-5e-05,-0.00021,-0.00048,-0.00024,0.00017,2e-05,3,25
12670,0.00014,2e-05,-5e-05,-0.00021,-0.00048,-0.00024,0.00017,2e-05,3,25
12671,0.00014,2e-05,-5e-05,-0.00021,-0.00048,-0.00024,0.00017,2e-05,3,25
12672,0.00014,2e-05,-5e-05,-0.00021,-0.00048,-0.00024,0.00017,2e-05,3,25
12673,0.00014,2e-05,-5e-05,-0.00021,-0.00048,-0.00024,0.00017,2e-05,3,25
12674,0.00014,2e-05,-5e-05,-0.00021,-0.00048,-0.00024,0.00017,2e-05,3,25
12675,0.00014,2e-05,-5e-05,-0.00021,-0.00048,-0.00024,0.00017,2e-05,3,25
12676,0.00014,2e-05,-5e-05,-0.00021,-0.00048,-0.00024,0.00017,2e-05,3,25
12677,0.00026,0.00024,-0.00014,-0.00045,-0.00062,-0.00015,0.00011,0.00019,3,25
12678,0.00026,0.00024,-0.00014,-0.00045,-0.00062,-0.00015,0.00011,0.00019,3,25
12679,0.00026,0.00024,-0.00014,-0.00045,-0.00062,-0.00015,0.00011,0.00019,3,25
12681,0.00026,0.00024,-0.00014,-0.00045,-0.00062,-0.00015,0.00011,0.00019,3,25
12682,0.00026,0.00024,-0.00014,-0.00045,-0.00062,-0.00015,0.00011,0.00019,3,25
12683,0.00026,0.00024,-0.00014,-0.00045,-0.00062,-0.00015,0.00011,0.00019,3,25
12684,0.00026,0.00024,-0.00014,-0.00045,-0.00062,-0.00015,0.00011,0.00019,3,25
12685,0.00026,0.00024,-0.00014,-0.00045,-0.00062,-0.00015,0.00011,0.00019,3,25
12686,0.00026,0.00024,-0.00014,-0.00045,-0.00062,-0.00015,0.00011,0.00019,3,25
12687,0.00026,0.00024,-0.00014,-0.00045,-0.00062,-0.00015,0.00011,0.00019,3,25
12688,0.00026,0.00024,-0.00014,-0.00045,-0.00062,-0.00015,0.00011,0.00019,3,25
12689,0.00026,0.00024,-0.00014,-0.00045,-0.00062,-0.00015,0.00011,0.00019,3,25
12690,0.00026,0.00024,-0.00014,-0.00045,-0.00062,-0.00015,0.00011,0.00019,3,25
12691,0.00026,0.00024,-0.00014,-0.00045,-0.00062,-0.00015,0.00011,0.00019,3,25
12692,-0.00063,-0.00016,-0.00018,-0.00022,-0.00035,-0.00037,-0.00021,-0.00014,3,25
12693,0.0004,0.0003,7e-05,8e-05,-0.00073,-0.00018,4e-05,0.00018,3,25
12694,0.0004,0.0003,7e-05,8e-05,-0.00073,-0.00018,4e-05,0.00018,3,25
12695,0.0004,0.0003,7e-05,8e-05,-0.00073,-0.00018,4e-05,0.00018,3,25
12696,0.0004,0.0003,7e-05,8e-05,-0.00073,-0.00018,4e-05,0.00018,3,25
12697,0.0004,0.0003,7e-05,8e-05,-0.00073,-0.00018,4e-05,0.00018,3,25
12698,0.0004,0.0003,7e-05,8e-05,-0.00073,-0.00018,4e-05,0.00018,3,25
12699,0.0004,0.0003,7e-05,8e-05,-0.00073,-0.00018,4e-05,0.00018,3,25
12700,0.0004,0.0003,7e-05,8e-05,-0.00073,-0.00018,4e-05,0.00018,3,25
12701,0.0004,0.0003,7e-05,8e-05,-0.00073,-0.00018,4e-05,0.00018,3,25
12702,0.0004,0.0003,7e-05,8e-05,-0.00073,-0.00018,4e-05,0.00018,3,25
12703,0.0004,0.0003,7e-05,8e-05,-0.00073,-0.00018,4e-05,0.00018,3,25
12704,0.0004,0.0003,7e-05,8e-05,-0.00073,-0.00018,4e-05,0.00018,3,25
12705,0.0004,0.0003,7e-05,8e-05,-0.00073,-0.00018,4e-05,0.00018,3,25
12706,0.0004,0.0003,7e-05,8e-05,-0.00073,-0.00018,4e-05,0.00018,3,25
12707,0.0004,0.0003,7e-05,8e-05,-0.00073,-0.00018,4e-05,0.00018,3,25
12708,0.0004,0.0003,7e-05,8e-05,-0.00073,-0.00018,4e-05,0.00018,3,25
12709,0.0004,0.0003,7e-05,8e-05,-0.00073,-0.00018,4e-05,0.00018,3,25
12710,0.0004,0.0003,7e-05,8e-05,-0.00073,-0.00018,4e-05,0.00018,3,25
12711,0.0004,0.0003,7e-05,8e-05,-0.00073,-0.00018,4e-05,0.00018,3,25
12712,0.0004,0.0003,7e-05,8e-05,-0.00073,-0.00018,4e-05,0.00018,3,25
12713,0.0004,0.0003,7e-05,8e-05,-0.00073,-0.00018,4e-05,0.00018,3,25
12714,0.0004,0.0003,7e-05,8e-05,-0.00073,-0.00018,4e-05,0.00018,3,25
12715,0.00011,-0.00012,-0.00027,-0.00016,0.0003,0.00027,4e-05,-0.00013,3,25
12716,0.0001,0.00012,7e-05,0.00025,0.00057,0.00019,-0.00014,-8e-05,3,25
12717,0.0001,0.00012,7e-05,0.00025,0.00057,0.00019,-0.00014,-8e-05,3,25
12718,0.0001,0.00012,7e-05,0.00025,0.00057,0.00019,-0.00014,-8e-05,3,25
12719,0.0001,0.00012,7e-05,0.00025,0.00057,0.00019,-0.00014,-8e-05,3,25
12720,0.0001,0.00012,7e-05,0.00025,0.00057,0.00019,-0.00014,-8e-05,3,25
12721,0.0001,0.00012,7e-05,0.00025,0.00057,0.00019,-0.00014,-8e-05,3,25
12722,0.0001,0.00012,7e-05,0.00025,0.00057,0.00019,-0.00014,-8e-05,3,25
12723,0.0001,0.00012,7e-05,0.00025,0.00057,0.00019,-0.00014,-8e-05,3,25
12724,0.0001,0.00012,7e-05,0.00025,0.00057,0.00019,-0.00014,-8e-05,3,25
12725,0.0001,0.00012,7e-05,0.00025,0.00057,0.00019,-0.00014,-8e-05,3,25
12726,0.0001,0.00012,7e-05,0.00025,0.00057,0.00019,-0.00014,-8e-05,3,25
12727,0.0001,0.00012,7e-05,0.00025,0.00057,0.00019,-0.00014,-8e-05,3,25
12729,-0.00031,-0.0001,-0.00018,-0.00015,-0.00034,-0.00047,-0.00027,0.00027,3,25
12730,-0.00031,-0.0001,-0.00018,-0.00015,-0.00034,-0.00047,-0.00027,0.00027,3,25
12731,-0.00031,-0.0001,-0.00018,-0.00015,-0.00034,-0.00047,-0.00027,0.00027,3,25
12732,-0.00031,-0.0001,-0.00018,-0.00015,-0.00034,-0.00047,-0.00027,0.00027,3,25
12733,-0.00031,-0.0001,-0.00018,-0.00015,-0.00034,-0.00047,-0.00027,0.00027,3,25
12734,-0.00031,-0.0001,-0.00018,-0.00015,-0.00034,-0.00047,-0.00027,0.00027,3,25
12735,-0.00031,-0.0001,-0.00018,-0.00015,-0.00034,-0.00047,-0.00027,0.00027,3,25
12736,-0.00031,-0.0001,-0.00018,-0.00015,-0.00034,-0.00047,-0.00027,0.00027,3,25
12737,-0.00031,-0.0001,-0.00018,-0.00015,-0.00034,-0.00047,-0.00027,0.00027,3,25
12738,0.00014,9e-05,4e-05,0.00011,-0.00093,9e-05,0.00017,0.00015,3,25
12739,0.00014,9e-05,4e-05,0.00011,-0.00093,9e-05,0.00017,0.00015,3,25
12740,0.00014,9e-05,4e-05,0.00011,-0.00093,9e-05,0.00017,0.00015,3,25
12741,0.00014,9e-05,4e-05,0.00011,-0.00093,9e-05,0.00017,0.00015,3,25
12742,0.00014,9e-05,4e-05,0.00011,-0.00093,9e-05,0.00017,0.00015,3,25
12743,0.00014,9e-05,4e-05,0.00011,-0.00093,9e-05,0.00017,0.00015,3,25
12744,0.00014,9e-05,4e-05,0.00011,-0.00093,9e-05,0.00017,0.00015,3,25
12745,0.00014,9e-05,4e-05,0.00011,-0.00093,9e-05,0.00017,0.00015,3,25
12746,0.00014,9e-05,4e-05,0.00011,-0.00093,9e-05,0.00017,0.00015,3,25
12747,0.00014,9e-05,4e-05,0.00011,-0.00093,9e-05,0.00017,0.00015,3,25
12748,0.00014,9e-05,4e-05,0.00011,-0.00093,9e-05,0.00017,0.00015,3,25
12749,0.00014,9e-05,4e-05,0.00011,-0.00093,9e-05,0.00017,0.00015,3,25
12750,0.00014,9e-05,4e-05,0.00011,-0.00093,9e-05,0.00017,0.00015,3,25
12751,0.00014,9e-05,4e-05,0.00011,-0.00093,9e-05,0.00017,0.00015,3,25
12752,0.00017,0.00012,5e-05,0.00035,0.00096,0.00028,0.00018,2e-05,3,25
12753,0.00016,2e-05,4e-05,0.00015,0.00054,2e-05,-0.0002,0.00059,3,25
12754,0.00016,2e-05,4e-05,0.00015,0.00054,2e-05,-0.0002,0.00059,3,25
12755,0.00016,2e-05,4e-05,0.00015,0.00054,2e-05,-0.0002,0.00059,3,25
12756,0.00016,2e-05,4e-05,0.00015,0.00054,2e-05,-0.0002,0.00059,3,25
12757,0.00016,2e-05,4e-05,0.00015,0.00054,2e-05,-0.0002,0.00059,3,25
12758,0.00016,2e-05,4e-05,0.00015,0.00054,2e-05,-0.0002,0.00059,3,25
12759,0.00016,2e-05,4e-05,0.00015,0.00054,2e-05,-0.0002,0.00059,3,25
12760,0.00016,2e-05,4e-05,0.00015,0.00054,2e-05,-0.0002,0.00059,3,25
12761,0.00016,2e-05,4e-05,0.00015,0.00054,2e-05,-0.0002,0.00059,3,25
12762,0.00016,2e-05,4e-05,0.00015,0.00054,2e-05,-0.0002,0.00059,3,25
12763,0.00016,2e-05,4e-05,0.00015,0.00054,2e-05,-0.0002,0.00059,3,25
12764,0.00016,2e-05,4e-05,0.00015,0.00054,2e-05,-0.0002,0.00059,3,25
12765,0.00016,2e-05,4e-05,0.00015,0.00054,2e-05,-0.0002,0.00059,3,25
12766,0.00016,2e-05,4e-05,0.00015,0.00054,2e-05,-0.0002,0.00059,3,25
12767,0.00016,2e-05,4e-05,0.00015,0.00054,2e-05,-0.0002,0.00059,3,25
12768,0.00016,2e-05,4e-05,0.00015,0.00054,2e-05,-0.0002,0.00059,3,25
12769,0.00016,2e-05,4e-05,0.00015,0.00054,2e-05,-0.0002,0.00059,3,25
12770,0.00016,2e-05,4e-05,0.00015,0.00054,2e-05,-0.0002,0.00059,3,25
12771,0.00016,2e-05,4e-05,0.00015,0.00054,2e-05,-0.0002,0.00059,3,25
12772,0.00016,2e-05,4e-05,0.00015,0.00054,2e-05,-0.0002,0.00059,3,25
12773,0.00016,2e-05,4e-05,0.00015,0.00054,2e-05,-0.0002,0.00059,3,25
12774,0.00016,2e-05,4e-05,0.00015,0.00054,2e-05,-0.0002,0.00059,3,25
12776,0.00028,-8e-05,-2e-05,2e-05,-0.00011,0.00022,-0.00024,-0.00036,3,25
12777,0.00028,-8e-05,-2e-05,2e-05,-0.00011,0.00022,-0.00024,-0.00036,3,25
12778,0.00028,-8e-05,-2e-05,2e-05,-0.00011,0.00022,-0.00024,-0.00036,3,25
12779,0.00028,-8e-05,-2e-05,2e-05,-0.00011,0.00022,-0.00024,-0.00036,3,25
12780,0.00028,-8e-05,-2e-05,2e-05,-0.00011,0.00022,-0.00024,-0.00036,3,25
12781,0.00028,-8e-05,-2e-05,2e-05,-0.00011,0.00022,-0.00024,-0.00036,3,25
12782,0.00028,-8e-05,-2e-05,2e-05,-0.00011,0.00022,-0.00024,-0.00036,3,25
12783,0.00028,-8e-05,-2e-05,2e-05,-0.00011,0.00022,-0.00024,-0.00036,3,25
12784,0.00028,-8e-05,-2e-05,2e-05,-0.00011,0.00022,-0.00024,-0.00036,3,25
12785,0.00028,-8e-05,-2e-05,2e-05,-0.00011,0.00022,-0.00024,-0.00036,3,25
12786,0.00028,-8e-05,-2e-05,2e-05,-0.00011,0.00022,-0.00024,-0.00036,3,25
12787,0.00028,-8e-05,-2e-05,2e-05,-0.00011,0.00022,-0.00024,-0.00036,3,25
12788,0.00028,-8e-05,-2e-05,2e-05,-0.00011,0.00022,-0.00024,-0.00036,3,25
12789,0.00028,-8e-05,-2e-05,2e-05,-0.00011,0.00022,-0.00024,-0.00036,3,25
12790,0.00028,-8e-05,-2e-05,2e-05,-0.00011,0.00022,-0.00024,-0.00036,3,25
12791,0.00028,-8e-05,-2e-05,2e-05,-0.00011,0.00022,-0.00024,-0.00036,3,25
12792,0.00028,-8e-05,-2e-05,2e-05,-0.00011,0.00022,-0.00024,-0.00036,3,25
12793,0.00028,-8e-05,-2e-05,2e-05,-0.00011,0.00022,-0.00024,-0.00036,3,25
12794,0.00028,-8e-05,-2e-05,2e-05,-0.00011,0.00022,-0.00024,-0.00036,3,25
12795,0.00028,-8e-05,-2e-05,2e-05,-0.00011,0.00022,-0.00024,-0.00036,3,25
12796,0.00028,-8e-05,-2e-05,2e-05,-0.00011,0.00022,-0.00024,-0.00036,3,25
12797,0.00028,-8e-05,-2e-05,2e-05,-0.00011,0.00022,-0.00024,-0.00036,3,25
12798,-0.00022,-2e-05,9e-05,-5e-05,-0.00031,-2e-05,0.00012,0.00016,3,25
12799,-8e-05,3e-05,2e-05,-0.00021,-0.00047,-0.0003,-0.00018,-2e-05,3,25
12800,-8e-05,3e-05,2e-05,-0.00021,-0.00047,-0.0003,-0.00018,-2e-05,3,25
12801,-8e-05,3e-05,2e-05,-0.00021,-0.00047,-0.0003,-0.00018,-2e-05,3,25
12802,-8e-05,3e-05,2e-05,-0.00021,-0.00047,-0.0003,-0.00018,-2e-05,3,25
12803,-8e-05,3e-05,2e-05,-0.00021,-0.00047,-0.0003,-0.00018,-2e-05,3,25
12804,-8e-05,3e-05,2e-05,-0.00021,-0.00047,-0.0003,-0.00018,-2e-05,3,25
12805,-8e-05,3e-05,2e-05,-0.00021,-0.00047,-0.0003,-0.00018,-2e-05,3,25
12806,-8e-05,3e-05,2e-05,-0.00021,-0.00047,-0.0003,-0.00018,-2e-05,3,25
12807,-8e-05,3e-05,2e-05,-0.00021,-0.00047,-0.0003,-0.00018,-2e-05,3,25
12808,-8e-05,3e-05,2e-05,-0.00021,-0.00047,-0.0003,-0.00018,-2e-05,3,25
12809,-8e-05,3e-05,2e-05,-0.00021,-0.00047,-0.0003,-0.00018,-2e-05,3,25
12810,-8e-05,3e-05,2e-05,-0.00021,-0.00047,-0.0003,-0.00018,-2e-05,3,25
12811,-8e-05,3e-05,2e-05,-0.00021,-0.00047,-0.0003,-0.00018,-2e-05,3,25
12812,-0.00022,-0.00014,-1e-05,-0.00011,-0.00075,0.00015,0.00026,-0.00018,3,25
12813,-0.00045,-0.00014,2e-05,0.00029,0.00057,0.00027,0.00039,-3e-05,3,25
12814,-0.00045,-0.00014,2e-05,0.00029,0.00057,0.00027,0.00039,-3e-05,3,25
12815,-0.00045,-0.00014,2e-05,0.00029,0.00057,0.00027,0.00039,-3e-05,3,25
12816,-0.00045,-0.00014,2e-05,0.00029,0.00057,0.00027,0.00039,-3e-05,3,25
12817,-0.00045,-0.00014,2e-05,0.00029,0.00057,0.00027,0.00039,-3e-05,3,25
12818,-0.00045,-0.00014,2e-05,0.00029,0.00057,0.00027,0.00039,-3e-05,3,25
12819,-0.00045,-0.00014,2e-05,0.00029,0.00057,0.00027,0.00039,-3e-05,3,25
12820,-0.00045,-0.00014,2e-05,0.00029,0.00057,0.00027,0.00039,-3e-05,3,25
12822,-0.00045,-0.00014,2e-05,0.00029,0.00057,0.00027,0.00039,-3e-05,3,25
12823,-0.00045,-0.00014,2e-05,0.00029,0.00057,0.00027,0.00039,-3e-05,3,25
12824,-0.00045,-0.00014,2e-05,0.00029,0.00057,0.00027,0.00039,-3e-05,3,25
12825,-0.00045,-0.00014,2e-05,0.00029,0.00057,0.00027,0.00039,-3e-05,3,25
12826,-0.00045,-0.00014,2e-05,0.00029,0.00057,0.00027,0.00039,-3e-05,3,25
12827,-0.00045,-0.00014,2e-05,0.00029,0.00057,0.00027,0.00039,-3e-05,3,25
12828,-0.00045,-0.00014,2e-05,0.00029,0.00057,0.00027,0.00039,-3e-05,3,25
12829,-0.00045,-0.00014,2e-05,0.00029,0.00057,0.00027,0.00039,-3e-05,3,25
12830,-0.00045,-0.00014,2e-05,0.00029,0.00057,0.00027,0.00039,-3e-05,3,25
12831,-0.00045,-0.00014,2e-05,0.00029,0.00057,0.00027,0.00039,-3e-05,3,25
12832,-0.00045,-0.00014,2e-05,0.00029,0.00057,0.00027,0.00039,-3e-05,3,25
12833,-0.00045,-0.00014,2e-05,0.00029,0.00057,0.00027,0.00039,-3e-05,3,25
12834,-0.00045,-0.00014,2e-05,0.00029,0.00057,0.00027,0.00039,-3e-05,3,25
12835,-0.00044,-0.00021,-6e-05,-9e-05,6e-05,-0.00016,-0.00032,-0.00086,3,25
12836,0.00036,-0.00019,-0.00017,-4e-05,9e-05,-0.00023,0.00031,-0.00027,3,25
12838,0.00036,-0.00019,-0.00017,-4e-05,9e-05,-0.00023,0.00031,-0.00027,3,25
12839,0.00036,-0.00019,-0.00017,-4e-05,9e-05,-0.00023,0.00031,-0.00027,3,25
12840,0.00036,-0.00019,-0.00017,-4e-05,9e-05,-0.00023,0.00031,-0.00027,3,25
12841,0.00036,-0.00019,-0.00017,-4e-05,9e-05,-0.00023,0.00031,-0.00027,3,25
12842,0.00036,-0.00019,-0.00017,-4e-05,9e-05,-0.00023,0.00031,-0.00027,3,25
12843,0.00036,-0.00019,-0.00017,-4e-05,9e-05,-0.00023,0.00031,-0.00027,3,25
12844,0.00036,-0.00019,-0.00017,-4e-05,9e-05,-0.00023,0.00031,-0.00027,3,25
12845,0.00036,-0.00019,-0.00017,-4e-05,9e-05,-0.00023,0.00031,-0.00027,3,25
12846,0.00036,-0.00019,-0.00017,-4e-05,9e-05,-0.00023,0.00031,-0.00027,3,25
12847,0.00036,-0.00019,-0.00017,-4e-05,9e-05,-0.00023,0.00031,-0.00027,3,25
12848,0.00036,-0.00019,-0.00017,-4e-05,9e-05,-0.00023,0.00031,-0.00027,3,25
12849,0.00036,-0.00019,-0.00017,-4e-05,9e-05,-0.00023,0.00031,-0.00027,3,25
12850,0.00036,-0.00019,-0.00017,-4e-05,9e-05,-0.00023,0.00031,-0.00027,3,25
12851,0.00036,-0.00019,-0.00017,-4e-05,9e-05,-0.00023,0.00031,-0.00027,3,25
12852,0.00036,-0.00019,-0.00017,-4e-05,9e-05,-0.00023,0.00031,-0.00027,3,25
12853,0.00036,-0.00019,-0.00017,-4e-05,9e-05,-0.00023,0.00031,-0.00027,3,25
12854,0.00036,-0.00019,-0.00017,-4e-05,9e-05,-0.00023,0.00031,-0.00027,3,25
12855,0.00036,-0.00019,-0.00017,-4e-05,9e-05,-0.00023,0.00031,-0.00027,3,25
12856,0.00036,-0.00019,-0.00017,-4e-05,9e-05,-0.00023,0.00031,-0.00027,3,25
12857,0.00036,-0.00019,-0.00017,-4e-05,9e-05,-0.00023,0.00031,-0.00027,3,25
12858,-0.0002,0,-3e-05,-4e-05,-0.00023,-8e-05,0.00013,-0.00053,3,25
12859,-0.00028,-0.00012,-6e-05,0.0001,-4e-05,-0.00011,0.00011,8e-05,3,25
12860,-0.00028,-0.00012,-6e-05,0.0001,-4e-05,-0.00011,0.00011,8e-05,3,25
12861,-0.00028,-0.00012,-6e-05,0.0001,-4e-05,-0.00011,0.00011,8e-05,3,25
12862,-0.00028,-0.00012,-6e-05,0.0001,-4e-05,-0.00011,0.00011,8e-05,3,25
12863,-0.00028,-0.00012,-6e-05,0.0001,-4e-05,-0.00011,0.00011,8e-05,3,25
12864,-0.00028,-0.00012,-6e-05,0.0001,-4e-05,-0.00011,0.00011,8e-05,3,25
12865,-0.00028,-0.00012,-6e-05,0.0001,-4e-05,-0.00011,0.00011,8e-05,3,25
12866,-0.00028,-0.00012,-6e-05,0.0001,-4e-05,-0.00011,0.00011,8e-05,3,25
12868,-0.00028,-0.00012,-6e-05,0.0001,-4e-05,-0.00011,0.00011,8e-05,3,25
12869,-0.00028,-0.00012,-6e-05,0.0001,-4e-05,-0.00011,0.00011,8e-05,3,25
12870,-0.00028,-0.00012,-6e-05,0.0001,-4e-05,-0.00011,0.00011,8e-05,3,25
12871,-0.00028,-0.00012,-6e-05,0.0001,-4e-05,-0.00011,0.00011,8e-05,3,25
12872,-0.00027,-9e-05,-1e-05,0.00025,-0.00069,-0.00025,6e-05,0.00031,3,25
12873,-0.00038,-0.00012,3e-05,-0.00027,-0.00109,-0.00068,-0.0003,-0.00024,3,25
12874,-0.00038,-0.00012,3e-05,-0.00027,-0.00109,-0.00068,-0.0003,-0.00024,3,25
12875,-0.00038,-0.00012,3e-05,-0.00027,-0.00109,-0.00068,-0.0003,-0.00024,3,25
12876,-0.00038,-0.00012,3e-05,-0.00027,-0.00109,-0.00068,-0.0003,-0.00024,3,25
12877,-0.00038,-0.00012,3e-05,-0.00027,-0.00109,-0.00068,-0.0003,-0.00024,3,25
12878,-0.00038,-0.00012,3e-05,-0.00027,-0.00109,-0.00068,-0.0003,-0.00024,3,25
12879,-0.00038,-0.00012,3e-05,-0.00027,-0.00109,-0.00068,-0.0003,-0.00024,3,25
12880,-0.00038,-0.00012,3e-05,-0.00027,-0.00109,-0.00068,-0.0003,-0.00024,3,25
12881,-0.00038,-0.00012,3e-05,-0.00027,-0.00109,-0.00068,-0.0003,-0.00024,3,25
12882,-0.00038,-0.00012,3e-05,-0.00027,-0.00109,-0.00068,-0.0003,-0.00024,3,25
12883,-0.00038,-0.00012,3e-05,-0.00027,-0.00109,-0.00068,-0.0003,-0.00024,3,25
12884,-0.00038,-0.00012,3e-05,-0.00027,-0.00109,-0.00068,-0.0003,-0.00024,3,25
12885,-0.00038,-0.00012,3e-05,-0.00027,-0.00109,-0.00068,-0.0003,-0.00024,3,25
12886,-0.00038,-0.00012,3e-05,-0.00027,-0.00109,-0.00068,-0.0003,-0.00024,3,25
12887,-0.00038,-0.00012,3e-05,-0.00027,-0.00109,-0.00068,-0.0003,-0.00024,3,25
12888,-0.00038,-0.00012,3e-05,-0.00027,-0.00109,-0.00068,-0.0003,-0.00024,3,25
12889,-0.00038,-0.00012,3e-05,-0.00027,-0.00109,-0.00068,-0.0003,-0.00024,3,25
12890,-0.00038,-0.00012,3e-05,-0.00027,-0.00109,-0.00068,-0.0003,-0.00024,3,25
12892,-0.00038,-0.00012,3e-05,-0.00027,-0.00109,-0.00068,-0.0003,-0.00024,3,25
12893,-0.00038,-0.00012,3e-05,-0.00027,-0.00109,-0.00068,-0.0003,-0.00024,3,25
12894,-0.00038,-0.00012,3e-05,-0.00027,-0.00109,-0.00068,-0.0003,-0.00024,3,25
12895,-0.00038,-0.00012,3e-05,-0.00027,-0.00109,-0.00068,-0.0003,-0.00024,3,25
12896,-0.00044,-0.00021,-0.00014,0,0.00054,-0.00016,-0.0007,-5e-05,3,25
12897,-0.00044,-0.00021,-0.00014,0,0.00054,-0.00016,-0.0007,-5e-05,3,25
12898,-0.00044,-0.00021,-0.00014,0,0.00054,-0.00016,-0.0007,-5e-05,3,25
12899,-0.00044,-0.00021,-0.00014,0,0.00054,-0.00016,-0.0007,-5e-05,3,25
12900,-0.00044,-0.00021,-0.00014,0,0.00054,-0.00016,-0.0007,-5e-05,3,25
12901,-0.00044,-0.00021,-0.00014,0,0.00054,-0.00016,-0.0007,-5e-05,3,25
12902,-0.00044,-0.00021,-0.00014,0,0.00054,-0.00016,-0.0007,-5e-05,3,25
12903,-0.00044,-0.00021,-0.00014,0,0.00054,-0.00016,-0.0007,-5e-05,3,25
12904,-0.00044,-0.00021,-0.00014,0,0.00054,-0.00016,-0.0007,-5e-05,3,25
12905,-0.00044,-0.00021,-0.00014,0,0.00054,-0.00016,-0.0007,-5e-05,3,25
12906,-0.00044,-0.00021,-0.00014,0,0.00054,-0.00016,-0.0007,-5e-05,3,25
12907,-0.00044,-0.00021,-0.00014,0,0.00054,-0.00016,-0.0007,-5e-05,3,25
12908,-0.00044,-0.00021,-0.00014,0,0.00054,-0.00016,-0.0007,-5e-05,3,25
12909,-0.00044,-0.00021,-0.00014,0,0.00054,-0.00016,-0.0007,-5e-05,3,25
12910,-0.00044,-0.00021,-0.00014,0,0.00054,-0.00016,-0.0007,-5e-05,3,25
12911,-0.00044,-0.00021,-0.00014,0,0.00054,-0.00016,-0.0007,-5e-05,3,25
12912,-0.00044,-0.00021,-0.00014,0,0.00054,-0.00016,-0.0007,-5e-05,3,25
12913,-0.00044,-0.00021,-0.00014,0,0.00054,-0.00016,-0.0007,-5e-05,3,25
12915,-0.00044,-0.00021,-0.00014,0,0.00054,-0.00016,-0.0007,-5e-05,3,25
12916,-0.00044,-0.00021,-0.00014,0,0.00054,-0.00016,-0.0007,-5e-05,3,25
12917,-0.00044,-0.00021,-0.00014,0,0.00054,-0.00016,-0.0007,-5e-05,3,25
12918,0.00015,-2e-05,-6e-05,-0.00016,0.0001,-0.00042,-0.00041,-0.00044,3,25
12919,0.00021,-7e-05,-0.00023,-0.00047,-0.00051,-0.00076,4e-05,8e-05,3,25
12920,0.00021,-7e-05,-0.00023,-0.00047,-0.00051,-0.00076,4e-05,8e-05,3,25
12921,0.00021,-7e-05,-0.00023,-0.00047,-0.00051,-0.00076,4e-05,8e-05,3,25
12922,0.00021,-7e-05,-0.00023,-0.00047,-0.00051,-0.00076,4e-05,8e-05,3,25
12923,0.00021,-7e-05,-0.00023,-0.00047,-0.00051,-0.00076,4e-05,8e-05,3,25
12924,0.00021,-7e-05,-0.00023,-0.00047,-0.00051,-0.00076,4e-05,8e-05,3,25
12925,0.00021,-7e-05,-0.00023,-0.00047,-0.00051,-0.00076,4e-05,8e-05,3,25
12926,0.00021,-7e-05,-0.00023,-0.00047,-0.00051,-0.00076,4e-05,8e-05,3,25
12927,0.00021,-7e-05,-0.00023,-0.00047,-0.00051,-0.00076,4e-05,8e-05,3,25
12928,0.00021,-7e-05,-0.00023,-0.00047,-0.00051,-0.00076,4e-05,8e-05,3,25
12929,0.00021,-7e-05,-0.00023,-0.00047,-0.00051,-0.00076,4e-05,8e-05,3,25
12930,0.00021,-7e-05,-0.00023,-0.00047,-0.00051,-0.00076,4e-05,8e-05,3,25
12931,0.00021,-7e-05,-0.00023,-0.00047,-0.00051,-0.00076,4e-05,8e-05,3,25
12932,0.00077,0.00045,9e-05,-7e-05,0.00018,0.00037,0.0004,0.00069,3,25
12933,0,-5e-05,-0.00015,-0.00026,-0.00047,-9e-05,-3e-05,-0.00014,3,25
12934,0,-5e-05,-0.00015,-0.00026,-0.00047,-9e-05,-3e-05,-0.00014,3,25
12935,0,-5e-05,-0.00015,-0.00026,-0.00047,-9e-05,-3e-05,-0.00014,3,25
12936,0,-5e-05,-0.00015,-0.00026,-0.00047,-9e-05,-3e-05,-0.00014,3,25
12937,0,-5e-05,-0.00015,-0.00026,-0.00047,-9e-05,-3e-05,-0.00014,3,25
12938,0,-5e-05,-0.00015,-0.00026,-0.00047,-9e-05,-3e-05,-0.00014,3,25
12939,0,-5e-05,-0.00015,-0.00026,-0.00047,-9e-05,-3e-05,-0.00014,3,25
12940,0,-5e-05,-0.00015,-0.00026,-0.00047,-9e-05,-3e-05,-0.00014,3,25
12941,0,-5e-05,-0.00015,-0.00026,-0.00047,-9e-05,-3e-05,-0.00014,3,25
12942,0,-5e-05,-0.00015,-0.00026,-0.00047,-9e-05,-3e-05,-0.00014,3,25
12943,0,-5e-05,-0.00015,-0.00026,-0.00047,-9e-05,-3e-05,-0.00014,3,25
12944,0,-5e-05,-0.00015,-0.00026,-0.00047,-9e-05,-3e-05,-0.00014,3,25
12945,0,-5e-05,-0.00015,-0.00026,-0.00047,-9e-05,-3e-05,-0.00014,3,25
12946,0,-5e-05,-0.00015,-0.00026,-0.00047,-9e-05,-3e-05,-0.00014,3,25
12947,0,-5e-05,-0.00015,-0.00026,-0.00047,-9e-05,-3e-05,-0.00014,3,25
12948,0,-5e-05,-0.00015,-0.00026,-0.00047,-9e-05,-3e-05,-0.00014,3,25
12949,0,-5e-05,-0.00015,-0.00026,-0.00047,-9e-05,-3e-05,-0.00014,3,25
12950,0,-5e-05,-0.00015,-0.00026,-0.00047,-9e-05,-3e-05,-0.00014,3,25
12951,0,-5e-05,-0.00015,-0.00026,-0.00047,-9e-05,-3e-05,-0.00014,3,25
12952,0,-5e-05,-0.00015,-0.00026,-0.00047,-9e-05,-3e-05,-0.00014,3,25
12953,0,-5e-05,-0.00015,-0.00026,-0.00047,-9e-05,-3e-05,-0.00014,3,25
12954,0,-5e-05,-0.00015,-0.00026,-0.00047,-9e-05,-3e-05,-0.00014,3,25
12955,0,-5e-05,-0.00015,-0.00026,-0.00047,-9e-05,-3e-05,-0.00014,3,25
12956,0,-5e-05,-0.00015,-0.00026,-0.00047,-9e-05,-3e-05,-0.00014,3,25
12957,0.00026,-0.00019,4e-05,0.00027,0.00033,0.00021,-0.0001,0.00038,3,25
12958,0.00024,0.00023,0.00015,-2e-05,-0.00012,0.00019,0.00039,0.00046,3,25
12959,0.00024,0.00023,0.00015,-2e-05,-0.00012,0.00019,0.00039,0.00046,3,25
12960,0.00024,0.00023,0.00015,-2e-05,-0.00012,0.00019,0.00039,0.00046,3,25
12962,0.00024,0.00023,0.00015,-2e-05,-0.00012,0.00019,0.00039,0.00046,3,25
12963,0.00024,0.00023,0.00015,-2e-05,-0.00012,0.00019,0.00039,0.00046,3,25
12964,0.00024,0.00023,0.00015,-2e-05,-0.00012,0.00019,0.00039,0.00046,3,25
12965,0.00024,0.00023,0.00015,-2e-05,-0.00012,0.00019,0.00039,0.00046,3,25
12966,0.00024,0.00023,0.00015,-2e-05,-0.00012,0.00019,0.00039,0.00046,3,25
12967,0.00024,0.00023,0.00015,-2e-05,-0.00012,0.00019,0.00039,0.00046,3,25
12968,0.00024,0.00023,0.00015,-2e-05,-0.00012,0.00019,0.00039,0.00046,3,25
12969,0.00024,0.00023,0.00015,-2e-05,-0.00012,0.00019,0.00039,0.00046,3,25
12970,0.00024,0.00023,0.00015,-2e-05,-0.00012,0.00019,0.00039,0.00046,3,25
12971,0.00024,0.00023,0.00015,-2e-05,-0.00012,0.00019,0.00039,0.00046,3,25
12972,0.00024,0.00023,0.00015,-2e-05,-0.00012,0.00019,0.00039,0.00046,3,25
12973,0.00024,0.00023,0.00015,-2e-05,-0.00012,0.00019,0.00039,0.00046,3,25
12974,0.00024,0.00023,0.00015,-2e-05,-0.00012,0.00019,0.00039,0.00046,3,25
12975,0.00024,0.00023,0.00015,-2e-05,-0.00012,0.00019,0.00039,0.00046,3,25
12976,0.00024,0.00023,0.00015,-2e-05,-0.00012,0.00019,0.00039,0.00046,3,25
12977,0.00024,0.00023,0.00015,-2e-05,-0.00012,0.00019,0.00039,0.00046,3,25
12978,0.00037,0.00018,-0.00012,-0.00041,-0.00051,-0.00018,-0.00053,-0.00014,3,25
12979,0.00033,0.00042,0.00023,0.0001,-0.00047,0.00026,6e-05,0.00021,3,25
12980,0.00033,0.00042,0.00023,0.0001,-0.00047,0.00026,6e-05,0.00021,3,25
12981,0.00033,0.00042,0.00023,0.0001,-0.00047,0.00026,6e-05,0.00021,3,25
12982,0.00033,0.00042,0.00023,0.0001,-0.00047,0.00026,6e-05,0.00021,3,25
12983,0.00033,0.00042,0.00023,0.0001,-0.00047,0.00026,6e-05,0.00021,3,25
12984,0.00033,0.00042,0.00023,0.0001,-0.00047,0.00026,6e-05,0.00021,3,25
12985,0.00033,0.00042,0.00023,0.0001,-0.00047,0.00026,6e-05,0.00021,3,25
12986,0.00033,0.00042,0.00023,0.0001,-0.00047,0.00026,6e-05,0.00021,3,25
12987,0.00033,0.00042,0.00023,0.0001,-0.00047,0.00026,6e-05,0.00021,3,25
12988,0.00033,0.00042,0.00023,0.0001,-0.00047,0.00026,6e-05,0.00021,3,25
12989,0.00033,0.00042,0.00023,0.0001,-0.00047,0.00026,6e-05,0.00021,3,25
12990,0.00033,0.00042,0.00023,0.0001,-0.00047,0.00026,6e-05,0.00021,3,25
12991,0.00033,0.00042,0.00023,0.0001,-0.00047,0.00026,6e-05,0.00021,3,25
12992,0.00015,0.0001,0.00016,-7e-05,0,5e-05,0.00028,0.00021,3,25
12993,-8e-05,5e-05,-2e-05,-0.00045,-0.00079,6e-05,-2e-05,-0.00038,3,25
12994,-8e-05,5e-05,-2e-05,-0.00045,-0.00079,6e-05,-2e-05,-0.00038,3,25
12995,-8e-05,5e-05,-2e-05,-0.00045,-0.00079,6e-05,-2e-05,-0.00038,3,25
12996,-8e-05,5e-05,-2e-05,-0.00045,-0.00079,6e-05,-2e-05,-0.00038,3,25
12997,-8e-05,5e-05,-2e-05,-0.00045,-0.00079,6e-05,-2e-05,-0.00038,3,25
12998,-8e-05,5e-05,-2e-05,-0.00045,-0.00079,6e-05,-2e-05,-0.00038,3,25
12999,-8e-05,5e-05,-2e-05,-0.00045,-0.00079,6e-05,-2e-05,-0.00038,3,25
13000,-8e-05,5e-05,-2e-05,-0.00045,-0.00079,6e-05,-2e-05,-0.00038,3,25
13001,-8e-05,5e-05,-2e-05,-0.00045,-0.00079,6e-05,-2e-05,-0.00038,3,25
13002,-8e-05,5e-05,-2e-05,-0.00045,-0.00079,6e-05,-2e-05,-0.00038,3,25
13003,-8e-05,5e-05,-2e-05,-0.00045,-0.00079,6e-05,-2e-05,-0.00038,3,25
13004,-8e-05,5e-05,-2e-05,-0.00045,-0.00079,6e-05,-2e-05,-0.00038,3,25
13005,-8e-05,5e-05,-2e-05,-0.00045,-0.00079,6e-05,-2e-05,-0.00038,3,25
13006,-8e-05,5e-05,-2e-05,-0.00045,-0.00079,6e-05,-2e-05,-0.00038,3,25
13007,-8e-05,5e-05,-2e-05,-0.00045,-0.00079,6e-05,-2e-05,-0.00038,3,25
13009,-8e-05,5e-05,-2e-05,-0.00045,-0.00079,6e-05,-2e-05,-0.00038,3,25
13010,-8e-05,5e-05,-2e-05,-0.00045,-0.00079,6e-05,-2e-05,-0.00038,3,25
13011,-8e-05,5e-05,-2e-05,-0.00045,-0.00079,6e-05,-2e-05,-0.00038,3,25
13012,-8e-05,5e-05,-2e-05,-0.00045,-0.00079,6e-05,-2e-05,-0.00038,3,25
13013,-8e-05,5e-05,-2e-05,-0.00045,-0.00079,6e-05,-2e-05,-0.00038,3,25
13014,-8e-05,5e-05,-2e-05,-0.00045,-0.00079,6e-05,-2e-05,-0.00038,3,25
13015,0.00016,8e-05,-4e-05,-0.00039,-0.00043,1e-05,0.00014,0.00045,3,25
13016,-0.00019,-0.00022,3e-05,-0.00052,-0.00079,-2e-05,-0.00025,0.00051,3,25
13017,-0.00019,-0.00022,3e-05,-0.00052,-0.00079,-2e-05,-0.00025,0.00051,3,25
13018,-0.00019,-0.00022,3e-05,-0.00052,-0.00079,-2e-05,-0.00025,0.00051,3,25
13019,-0.00019,-0.00022,3e-05,-0.00052,-0.00079,-2e-05,-0.00025,0.00051,3,25
13020,-0.00019,-0.00022,3e-05,-0.00052,-0.00079,-2e-05,-0.00025,0.00051,3,25
13021,-0.00019,-0.00022,3e-05,-0.00052,-0.00079,-2e-05,-0.00025,0.00051,3,25
13022,-0.00019,-0.00022,3e-05,-0.00052,-0.00079,-2e-05,-0.00025,0.00051,3,25
13023,-0.00019,-0.00022,3e-05,-0.00052,-0.00079,-2e-05,-0.00025,0.00051,3,25
13026,-0.00019,-0.00022,3e-05,-0.00052,-0.00079,-2e-05,-0.00025,0.00051,3,25
13027,-0.00019,-0.00022,3e-05,-0.00052,-0.00079,-2e-05,-0.00025,0.00051,3,25
13028,-0.00019,-0.00022,3e-05,-0.00052,-0.00079,-2e-05,-0.00025,0.00051,3,25
13029,-0.00019,-0.00022,3e-05,-0.00052,-0.00079,-2e-05,-0.00025,0.00051,3,25
13030,-0.00019,-0.00022,3e-05,-0.00052,-0.00079,-2e-05,-0.00025,0.00051,3,25
13031,-0.00019,-0.00022,3e-05,-0.00052,-0.00079,-2e-05,-0.00025,0.00051,3,25
13032,-0.00019,-0.00022,3e-05,-0.00052,-0.00079,-2e-05,-0.00025,0.00051,3,25
13033,-0.00019,-0.00022,3e-05,-0.00052,-0.00079,-2e-05,-0.00025,0.00051,3,25
13034,-0.00019,-0.00022,3e-05,-0.00052,-0.00079,-2e-05,-0.00025,0.00051,3,25
13035,-0.00019,-0.00022,3e-05,-0.00052,-0.00079,-2e-05,-0.00025,0.00051,3,25
13036,-0.00019,-0.00022,3e-05,-0.00052,-0.00079,-2e-05,-0.00025,0.00051,3,25
13037,-0.00019,-0.00022,3e-05,-0.00052,-0.00079,-2e-05,-0.00025,0.00051,3,25
13038,-0.00028,-0.00025,-3e-05,0.00022,0.00071,-0.00015,-8e-05,-1e-05,3,25
13039,-0.00085,-0.00037,-0.00013,6e-05,0.00027,0.00016,0.00041,-0.00037,3,25
13040,-0.00085,-0.00037,-0.00013,6e-05,0.00027,0.00016,0.00041,-0.00037,3,25
13041,-0.00085,-0.00037,-0.00013,6e-05,0.00027,0.00016,0.00041,-0.00037,3,25
13042,-0.00085,-0.00037,-0.00013,6e-05,0.00027,0.00016,0.00041,-0.00037,3,25
13043,-0.00085,-0.00037,-0.00013,6e-05,0.00027,0.00016,0.00041,-0.00037,3,25
13044,-0.00085,-0.00037,-0.00013,6e-05,0.00027,0.00016,0.00041,-0.00037,3,25
13045,-0.00085,-0.00037,-0.00013,6e-05,0.00027,0.00016,0.00041,-0.00037,3,25
13046,-0.00085,-0.00037,-0.00013,6e-05,0.00027,0.00016,0.00041,-0.00037,3,25
13047,-0.00085,-0.00037,-0.00013,6e-05,0.00027,0.00016,0.00041,-0.00037,3,25
13048,-0.00085,-0.00037,-0.00013,6e-05,0.00027,0.00016,0.00041,-0.00037,3,25
13049,-0.00085,-0.00037,-0.00013,6e-05,0.00027,0.00016,0.00041,-0.00037,3,25
13050,-0.00085,-0.00037,-0.00013,6e-05,0.00027,0.00016,0.00041,-0.00037,3,25
13051,-0.00085,-0.00037,-0.00013,6e-05,0.00027,0.00016,0.00041,-0.00037,3,25
13052,-0.00014,-0.00013,-0.00017,-0.00011,-8e-05,-0.00028,-0.00028,0.00031,3,25
13053,0.00013,0.00012,0.00012,0.00064,0.0009,0.00035,-0.00045,0.00035,3,25
13054,0.00013,0.00012,0.00012,0.00064,0.0009,0.00035,-0.00045,0.00035,3,25
13055,0.00013,0.00012,0.00012,0.00064,0.0009,0.00035,-0.00045,0.00035,3,25
13056,0.00013,0.00012,0.00012,0.00064,0.0009,0.00035,-0.00045,0.00035,3,25
13057,0.00013,0.00012,0.00012,0.00064,0.0009,0.00035,-0.00045,0.00035,3,25
13058,0.00013,0.00012,0.00012,0.00064,0.0009,0.00035,-0.00045,0.00035,3,25
13059,0.00013,0.00012,0.00012,0.00064,0.0009,0.00035,-0.00045,0.00035,3,25
13060,0.00013,0.00012,0.00012,0.00064,0.0009,0.00035,-0.00045,0.00035,3,25
13061,0.00013,0.00012,0.00012,0.00064,0.0009,0.00035,-0.00045,0.00035,3,25
13062,0.00013,0.00012,0.00012,0.00064,0.0009,0.00035,-0.00045,0.00035,3,25
13063,0.00013,0.00012,0.00012,0.00064,0.0009,0.00035,-0.00045,0.00035,3,25
13064,0.00013,0.00012,0.00012,0.00064,0.0009,0.00035,-0.00045,0.00035,3,25
13065,0.00013,0.00012,0.00012,0.00064,0.0009,0.00035,-0.00045,0.00035,3,25
13066,0.00013,0.00012,0.00012,0.00064,0.0009,0.00035,-0.00045,0.00035,3,25
13067,0.00013,0.00012,0.00012,0.00064,0.0009,0.00035,-0.00045,0.00035,3,25
13068,0.00013,0.00012,0.00012,0.00064,0.0009,0.00035,-0.00045,0.00035,3,25
13069,0.00013,0.00012,0.00012,0.00064,0.0009,0.00035,-0.00045,0.00035,3,25
13070,0.00013,0.00012,0.00012,0.00064,0.0009,0.00035,-0.00045,0.00035,3,25
13071,0.00013,0.00012,0.00012,0.00064,0.0009,0.00035,-0.00045,0.00035,3,25
13072,0.00013,0.00012,0.00012,0.00064,0.0009,0.00035,-0.00045,0.00035,3,25
13073,0.00013,0.00012,0.00012,0.00064,0.0009,0.00035,-0.00045,0.00035,3,25
13074,0.00013,0.00012,0.00012,0.00064,0.0009,0.00035,-0.00045,0.00035,3,25
13075,0.00013,0.00012,-2e-05,7e-05,-0.00017,0.00033,0.00035,0.0006,3,25
13076,8e-05,3e-05,-0.00014,-5e-05,-7e-05,0.00044,0.00022,-0.00027,3,25
13077,8e-05,3e-05,-0.00014,-5e-05,-7e-05,0.00044,0.00022,-0.00027,3,25
13078,8e-05,3e-05,-0.00014,-5e-05,-7e-05,0.00044,0.00022,-0.00027,3,25
13079,8e-05,3e-05,-0.00014,-5e-05,-7e-05,0.00044,0.00022,-0.00027,3,25
13080,8e-05,3e-05,-0.00014,-5e-05,-7e-05,0.00044,0.00022,-0.00027,3,25
13081,8e-05,3e-05,-0.00014,-5e-05,-7e-05,0.00044,0.00022,-0.00027,3,25
13082,8e-05,3e-05,-0.00014,-5e-05,-7e-05,0.00044,0.00022,-0.00027,3,25
13083,8e-05,3e-05,-0.00014,-5e-05,-7e-05,0.00044,0.00022,-0.00027,3,25
13084,8e-05,3e-05,-0.00014,-5e-05,-7e-05,0.00044,0.00022,-0.00027,3,25
13085,8e-05,3e-05,-0.00014,-5e-05,-7e-05,0.00044,0.00022,-0.00027,3,25
13086,8e-05,3e-05,-0.00014,-5e-05,-7e-05,0.00044,0.00022,-0.00027,3,25
13087,8e-05,3e-05,-0.00014,-5e-05,-7e-05,0.00044,0.00022,-0.00027,3,25
13089,8e-05,3e-05,-0.00014,-5e-05,-7e-05,0.00044,0.00022,-0.00027,3,25
13090,8e-05,3e-05,-0.00014,-5e-05,-7e-05,0.00044,0.00022,-0.00027,3,25
13091,8e-05,3e-05,-0.00014,-5e-05,-7e-05,0.00044,0.00022,-0.00027,3,25
13092,8e-05,3e-05,-0.00014,-5e-05,-7e-05,0.00044,0.00022,-0.00027,3,25
13093,8e-05,3e-05,-0.00014,-5e-05,-7e-05,0.00044,0.00022,-0.00027,3,25
13094,8e-05,3e-05,-0.00014,-5e-05,-7e-05,0.00044,0.00022,-0.00027,3,25
13095,8e-05,3e-05,-0.00014,-5e-05,-7e-05,0.00044,0.00022,-0.00027,3,25
13096,8e-05,3e-05,-0.00014,-5e-05,-7e-05,0.00044,0.00022,-0.00027,3,25
13097,8e-05,3e-05,-0.00014,-5e-05,-7e-05,0.00044,0.00022,-0.00027,3,25
13098,1e-05,0.00028,0,8e-05,-0.00072,-0.00021,9e-05,-0.00031,3,25
13099,0.00025,9e-05,6e-05,6e-05,0.00054,5e-05,0.00013,-0.00033,3,25
13100,0.00025,9e-05,6e-05,6e-05,0.00054,5e-05,0.00013,-0.00033,3,25
13102,0.00025,9e-05,6e-05,6e-05,0.00054,5e-05,0.00013,-0.00033,3,25
13103,0.00025,9e-05,6e-05,6e-05,0.00054,5e-05,0.00013,-0.00033,3,25
13104,0.00025,9e-05,6e-05,6e-05,0.00054,5e-05,0.00013,-0.00033,3,25
13105,0.00025,9e-05,6e-05,6e-05,0.00054,5e-05,0.00013,-0.00033,3,25
13106,0.00025,9e-05,6e-05,6e-05,0.00054,5e-05,0.00013,-0.00033,3,25
13107,0.00025,9e-05,6e-05,6e-05,0.00054,5e-05,0.00013,-0.00033,3,25
13108,0.00025,9e-05,6e-05,6e-05,0.00054,5e-05,0.00013,-0.00033,3,25
13109,0.00025,9e-05,6e-05,6e-05,0.00054,5e-05,0.00013,-0.00033,3,25
13110,0.00025,9e-05,6e-05,6e-05,0.00054,5e-05,0.00013,-0.00033,3,25
13111,0.00025,9e-05,6e-05,6e-05,0.00054,5e-05,0.00013,-0.00033,3,25
13112,-0.00049,-0.00031,3e-05,-0.00026,0.00014,-0.00047,-0.00042,0.00018,3,25
13113,0.00034,0.00021,0.00015,8e-05,0.00015,-8e-05,-0.00016,-0.0004,3,25
13114,0.00034,0.00021,0.00015,8e-05,0.00015,-8e-05,-0.00016,-0.0004,3,25
13115,0.00034,0.00021,0.00015,8e-05,0.00015,-8e-05,-0.00016,-0.0004,3,25
13116,0.00034,0.00021,0.00015,8e-05,0.00015,-8e-05,-0.00016,-0.0004,3,25
13117,0.00034,0.00021,0.00015,8e-05,0.00015,-8e-05,-0.00016,-0.0004,3,25
13118,0.00034,0.00021,0.00015,8e-05,0.00015,-8e-05,-0.00016,-0.0004,3,25
13119,0.00034,0.00021,0.00015,8e-05,0.00015,-8e-05,-0.00016,-0.0004,3,25
13120,0.00034,0.00021,0.00015,8e-05,0.00015,-8e-05,-0.00016,-0.0004,3,25
13121,0.00034,0.00021,0.00015,8e-05,0.00015,-8e-05,-0.00016,-0.0004,3,25
13122,0.00034,0.00021,0.00015,8e-05,0.00015,-8e-05,-0.00016,-0.0004,3,25
13123,0.00034,0.00021,0.00015,8e-05,0.00015,-8e-05,-0.00016,-0.0004,3,25
13124,0.00034,0.00021,0.00015,8e-05,0.00015,-8e-05,-0.00016,-0.0004,3,25
13125,0.00034,0.00021,0.00015,8e-05,0.00015,-8e-05,-0.00016,-0.0004,3,25
13126,0.00034,0.00021,0.00015,8e-05,0.00015,-8e-05,-0.00016,-0.0004,3,25
13127,0.00034,0.00021,0.00015,8e-05,0.00015,-8e-05,-0.00016,-0.0004,3,25
13128,0.00034,0.00021,0.00015,8e-05,0.00015,-8e-05,-0.00016,-0.0004,3,25
13129,0.00034,0.00021,0.00015,8e-05,0.00015,-8e-05,-0.00016,-0.0004,3,25
13130,0.00034,0.00021,0.00015,8e-05,0.00015,-8e-05,-0.00016,-0.0004,3,25
13131,0.00034,0.00021,0.00015,8e-05,0.00015,-8e-05,-0.00016,-0.0004,3,25
13132,0.00034,0.00021,0.00015,8e-05,0.00015,-8e-05,-0.00016,-0.0004,3,25
13133,0.00034,0.00021,0.00015,8e-05,0.00015,-8e-05,-0.00016,-0.0004,3,25
13134,0.00034,0.00021,0.00015,8e-05,0.00015,-8e-05,-0.00016,-0.0004,3,25
13135,-0.00034,-0.00021,1e-05,0.00025,-0.00026,-0.00014,-0.00019,-0.00034,3,25
13136,0.00022,0.00011,-5e-05,-4e-05,-6e-05,-0.0002,-0.00019,0.00023,3,25
13137,0.00022,0.00011,-5e-05,-4e-05,-6e-05,-0.0002,-0.00019,0.00023,3,25
13138,0.00022,0.00011,-5e-05,-4e-05,-6e-05,-0.0002,-0.00019,0.00023,3,25
13139,0.00022,0.00011,-5e-05,-4e-05,-6e-05,-0.0002,-0.00019,0.00023,3,25
13140,0.00022,0.00011,-5e-05,-4e-05,-6e-05,-0.0002,-0.00019,0.00023,3,25
13141,0.00022,0.00011,-5e-05,-4e-05,-6e-05,-0.0002,-0.00019,0.00023,3,25
13142,0.00022,0.00011,-5e-05,-4e-05,-6e-05,-0.0002,-0.00019,0.00023,3,25
13143,0.00022,0.00011,-5e-05,-4e-05,-6e-05,-0.0002,-0.00019,0.00023,3,25
13144,0.00022,0.00011,-5e-05,-4e-05,-6e-05,-0.0002,-0.00019,0.00023,3,25
13145,0.00022,0.00011,-5e-05,-4e-05,-6e-05,-0.0002,-0.00019,0.00023,3,25
13146,0.00022,0.00011,-5e-05,-4e-05,-6e-05,-0.0002,-0.00019,0.00023,3,25
13147,0.00022,0.00011,-5e-05,-4e-05,-6e-05,-0.0002,-0.00019,0.00023,3,25
13149,0.00022,0.00011,-5e-05,-4e-05,-6e-05,-0.0002,-0.00019,0.00023,3,25
13150,0.00022,0.00011,-5e-05,-4e-05,-6e-05,-0.0002,-0.00019,0.00023,3,25
13151,0.00022,0.00011,-5e-05,-4e-05,-6e-05,-0.0002,-0.00019,0.00023,3,25
13152,0.00022,0.00011,-5e-05,-4e-05,-6e-05,-0.0002,-0.00019,0.00023,3,25
13153,0.00022,0.00011,-5e-05,-4e-05,-6e-05,-0.0002,-0.00019,0.00023,3,25
13154,0.00022,0.00011,-5e-05,-4e-05,-6e-05,-0.0002,-0.00019,0.00023,3,25
13155,0.00022,0.00011,-5e-05,-4e-05,-6e-05,-0.0002,-0.00019,0.00023,3,25
13156,0.00022,0.00011,-5e-05,-4e-05,-6e-05,-0.0002,-0.00019,0.00023,3,25
13157,0.00022,0.00011,-5e-05,-4e-05,-6e-05,-0.0002,-0.00019,0.00023,3,25
13158,-7e-05,-0.00011,-0.00034,-0.00045,-0.00081,-0.00013,1e-05,-0.00035,3,25
13159,-0.00017,-0.00011,-0.00015,-0.00051,-0.00095,-0.00068,-0.00015,-7e-05,3,25
13160,-0.00017,-0.00011,-0.00015,-0.00051,-0.00095,-0.00068,-0.00015,-7e-05,3,25
13161,-0.00017,-0.00011,-0.00015,-0.00051,-0.00095,-0.00068,-0.00015,-7e-05,3,25
13162,-0.00017,-0.00011,-0.00015,-0.00051,-0.00095,-0.00068,-0.00015,-7e-05,3,25
13163,-0.00017,-0.00011,-0.00015,-0.00051,-0.00095,-0.00068,-0.00015,-7e-05,3,25
13164,-0.00017,-0.00011,-0.00015,-0.00051,-0.00095,-0.00068,-0.00015,-7e-05,3,25
13165,-0.00017,-0.00011,-0.00015,-0.00051,-0.00095,-0.00068,-0.00015,-7e-05,3,25
13166,-0.00017,-0.00011,-0.00015,-0.00051,-0.00095,-0.00068,-0.00015,-7e-05,3,25
13167,-0.00017,-0.00011,-0.00015,-0.00051,-0.00095,-0.00068,-0.00015,-7e-05,3,25
13168,-0.00017,-0.00011,-0.00015,-0.00051,-0.00095,-0.00068,-0.00015,-7e-05,3,25
13169,-0.00017,-0.00011,-0.00015,-0.00051,-0.00095,-0.00068,-0.00015,-7e-05,3,25
13170,-0.00017,-0.00011,-0.00015,-0.00051,-0.00095,-0.00068,-0.00015,-7e-05,3,25
13171,-0.00017,-0.00011,-0.00015,-0.00051,-0.00095,-0.00068,-0.00015,-7e-05,3,25
13172,-4e-05,-0.00013,-0.00013,-0.00056,-0.00064,-0.00048,8e-05,-0.00022,3,25
13173,-0.00015,1e-05,1e-05,1e-05,-0.00063,-0.00032,-0.0001,-0.00016,3,25
13174,-0.00015,1e-05,1e-05,1e-05,-0.00063,-0.00032,-0.0001,-0.00016,3,25
13175,-0.00015,1e-05,1e-05,1e-05,-0.00063,-0.00032,-0.0001,-0.00016,3,25
13176,-0.00015,1e-05,1e-05,1e-05,-0.00063,-0.00032,-0.0001,-0.00016,3,25
13177,-0.00015,1e-05,1e-05,1e-05,-0.00063,-0.00032,-0.0001,-0.00016,3,25
13178,-0.00015,1e-05,1e-05,1e-05,-0.00063,-0.00032,-0.0001,-0.00016,3,25
13179,-0.00015,1e-05,1e-05,1e-05,-0.00063,-0.00032,-0.0001,-0.00016,3,25
13180,-0.00015,1e-05,1e-05,1e-05,-0.00063,-0.00032,-0.0001,-0.00016,3,25
13181,-0.00015,1e-05,1e-05,1e-05,-0.00063,-0.00032,-0.0001,-0.00016,3,25
13182,-0.00015,1e-05,1e-05,1e-05,-0.00063,-0.00032,-0.0001,-0.00016,3,25
13183,-0.00015,1e-05,1e-05,1e-05,-0.00063,-0.00032,-0.0001,-0.00016,3,25
13184,-0.00015,1e-05,1e-05,1e-05,-0.00063,-0.00032,-0.0001,-0.00016,3,25
13185,-0.00015,1e-05,1e-05,1e-05,-0.00063,-0.00032,-0.0001,-0.00016,3,25
13186,-0.00015,1e-05,1e-05,1e-05,-0.00063,-0.00032,-0.0001,-0.00016,3,25
13187,-0.00015,1e-05,1e-05,1e-05,-0.00063,-0.00032,-0.0001,-0.00016,3,25
13188,-0.00015,1e-05,1e-05,1e-05,-0.00063,-0.00032,-0.0001,-0.00016,3,25
13189,-0.00015,1e-05,1e-05,1e-05,-0.00063,-0.00032,-0.0001,-0.00016,3,25
13190,-0.00015,1e-05,1e-05,1e-05,-0.00063,-0.00032,-0.0001,-0.00016,3,25
13191,-0.00015,1e-05,1e-05,1e-05,-0.00063,-0.00032,-0.0001,-0.00016,3,25
13192,-0.00015,1e-05,1e-05,1e-05,-0.00063,-0.00032,-0.0001,-0.00016,3,25
13193,-0.00015,1e-05,1e-05,1e-05,-0.00063,-0.00032,-0.0001,-0.00016,3,25
13194,-0.00015,1e-05,1e-05,1e-05,-0.00063,-0.00032,-0.0001,-0.00016,3,25
13195,0.0001,-0.00018,-0.00011,0.00014,0.00093,0.00045,5e-05,-0.0001,3,25
13196,0.0003,0.00023,-1e-05,-0.00035,-0.00105,7e-05,-0.00033,-7e-05,3,25
13197,0.0001,-0.00012,-4e-05,0.00031,0.00112,0.0001,-0.00015,0.00013,3,25
13198,0.0001,-0.00012,-4e-05,0.00031,0.00112,0.0001,-0.00015,0.00013,3,25
13199,0.0001,-0.00012,-4e-05,0.00031,0.00112,0.0001,-0.00015,0.00013,3,25
13200,0.0001,-0.00012,-4e-05,0.00031,0.00112,0.0001,-0.00015,0.00013,3,25
13201,0.0001,-0.00012,-4e-05,0.00031,0.00112,0.0001,-0.00015,0.00013,3,25
13202,0.0001,-0.00012,-4e-05,0.00031,0.00112,0.0001,-0.00015,0.00013,3,25
13203,0.0001,-0.00012,-4e-05,0.00031,0.00112,0.0001,-0.00015,0.00013,3,25
13204,0.0001,-0.00012,-4e-05,0.00031,0.00112,0.0001,-0.00015,0.00013,3,25
13205,0.0001,-0.00012,-4e-05,0.00031,0.00112,0.0001,-0.00015,0.00013,3,25
13206,0.0001,-0.00012,-4e-05,0.00031,0.00112,0.0001,-0.00015,0.00013,3,25
13207,0.0001,-0.00012,-4e-05,0.00031,0.00112,0.0001,-0.00015,0.00013,3,25
13208,0.0001,-0.00012,-4e-05,0.00031,0.00112,0.0001,-0.00015,0.00013,3,25
13209,0.0001,-0.00012,-4e-05,0.00031,0.00112,0.0001,-0.00015,0.00013,3,25
13210,0.0001,-0.00012,-4e-05,0.00031,0.00112,0.0001,-0.00015,0.00013,3,25
13211,0.0001,-0.00012,-4e-05,0.00031,0.00112,0.0001,-0.00015,0.00013,3,25
13212,0.0001,-0.00012,-4e-05,0.00031,0.00112,0.0001,-0.00015,0.00013,3,25
13213,0.0001,-0.00012,-4e-05,0.00031,0.00112,0.0001,-0.00015,0.00013,3,25
13214,0.0001,-0.00012,-4e-05,0.00031,0.00112,0.0001,-0.00015,0.00013,3,25
13215,0.0001,-0.00012,-4e-05,0.00031,0.00112,0.0001,-0.00015,0.00013,3,25
13216,0.0001,-0.00012,-4e-05,0.00031,0.00112,0.0001,-0.00015,0.00013,3,25
13217,0.0001,-0.00012,-4e-05,0.00031,0.00112,0.0001,-0.00015,0.00013,3,25
13218,0.00063,0.0003,-9e-05,-0.00021,-0.00029,-0.00025,0.00026,-0.00012,3,25
13219,4e-05,-0.00023,0,-0.00013,-0.00069,-0.00018,-0.00027,-0.0001,3,25
13220,4e-05,-0.00023,0,-0.00013,-0.00069,-0.00018,-0.00027,-0.0001,3,25
13221,4e-05,-0.00023,0,-0.00013,-0.00069,-0.00018,-0.00027,-0.0001,3,25
13222,4e-05,-0.00023,0,-0.00013,-0.00069,-0.00018,-0.00027,-0.0001,3,25
13223,4e-05,-0.00023,0,-0.00013,-0.00069,-0.00018,-0.00027,-0.0001,3,25
13224,4e-05,-0.00023,0,-0.00013,-0.00069,-0.00018,-0.00027,-0.0001,3,25
13225,4e-05,-0.00023,0,-0.00013,-0.00069,-0.00018,-0.00027,-0.0001,3,25
13226,4e-05,-0.00023,0,-0.00013,-0.00069,-0.00018,-0.00027,-0.0001,3,25
13227,4e-05,-0.00023,0,-0.00013,-0.00069,-0.00018,-0.00027,-0.0001,3,25
13228,4e-05,-0.00023,0,-0.00013,-0.00069,-0.00018,-0.00027,-0.0001,3,25
13229,4e-05,-0.00023,0,-0.00013,-0.00069,-0.00018,-0.00027,-0.0001,3,25
13230,4e-05,-0.00023,0,-0.00013,-0.00069,-0.00018,-0.00027,-0.0001,3,25
13231,4e-05,-0.00023,0,-0.00013,-0.00069,-0.00018,-0.00027,-0.0001,3,25
13232,-0.00032,-0.0002,4e-05,0.00065,0.00117,0.00013,-0.00025,-0.00046,3,25
13233,-7e-05,-0.00016,-0.00014,-0.00024,-0.00047,-2e-05,0.00031,-0.00024,3,25
13234,-7e-05,-0.00016,-0.00014,-0.00024,-0.00047,-2e-05,0.00031,-0.00024,3,25
13235,-7e-05,-0.00016,-0.00014,-0.00024,-0.00047,-2e-05,0.00031,-0.00024,3,25
13236,-7e-05,-0.00016,-0.00014,-0.00024,-0.00047,-2e-05,0.00031,-0.00024,3,25
13237,-7e-05,-0.00016,-0.00014,-0.00024,-0.00047,-2e-05,0.00031,-0.00024,3,25
13238,-7e-05,-0.00016,-0.00014,-0.00024,-0.00047,-2e-05,0.00031,-0.00024,3,25
13239,-7e-05,-0.00016,-0.00014,-0.00024,-0.00047,-2e-05,0.00031,-0.00024,3,25
13240,-7e-05,-0.00016,-0.00014,-0.00024,-0.00047,-2e-05,0.00031,-0.00024,3,25
13241,-7e-05,-0.00016,-0.00014,-0.00024,-0.00047,-2e-05,0.00031,-0.00024,3,25
13243,-7e-05,-0.00016,-0.00014,-0.00024,-0.00047,-2e-05,0.00031,-0.00024,3,25
13244,-7e-05,-0.00016,-0.00014,-0.00024,-0.00047,-2e-05,0.00031,-0.00024,3,25
13245,-7e-05,-0.00016,-0.00014,-0.00024,-0.00047,-2e-05,0.00031,-0.00024,3,25
13246,-7e-05,-0.00016,-0.00014,-0.00024,-0.00047,-2e-05,0.00031,-0.00024,3,25
13247,-7e-05,-0.00016,-0.00014,-0.00024,-0.00047,-2e-05,0.00031,-0.00024,3,25
13248,-7e-05,-0.00016,-0.00014,-0.00024,-0.00047,-2e-05,0.00031,-0.00024,3,25
13249,-7e-05,-0.00016,-0.00014,-0.00024,-0.00047,-2e-05,0.00031,-0.00024,3,25
13250,-7e-05,-0.00016,-0.00014,-0.00024,-0.00047,-2e-05,0.00031,-0.00024,3,25
13251,-7e-05,-0.00016,-0.00014,-0.00024,-0.00047,-2e-05,0.00031,-0.00024,3,25
13252,-7e-05,-0.00016,-0.00014,-0.00024,-0.00047,-2e-05,0.00031,-0.00024,3,25
13253,-7e-05,-0.00016,-0.00014,-0.00024,-0.00047,-2e-05,0.00031,-0.00024,3,25
13254,-7e-05,-0.00016,-0.00014,-0.00024,-0.00047,-2e-05,0.00031,-0.00024,3,25
13255,-8e-05,1e-05,6e-05,-0.00022,6e-05,0.00038,4e-05,-8e-05,3,25
13256,0.00024,-4e-05,0,0.0001,-1e-05,-0.00016,0.00017,-0.00036,3,25
13257,0.00024,-4e-05,0,0.0001,-1e-05,-0.00016,0.00017,-0.00036,3,25
13258,0.00024,-4e-05,0,0.0001,-1e-05,-0.00016,0.00017,-0.00036,3,25
13259,0.00024,-4e-05,0,0.0001,-1e-05,-0.00016,0.00017,-0.00036,3,25
13260,0.00024,-4e-05,0,0.0001,-1e-05,-0.00016,0.00017,-0.00036,3,25
13261,0.00024,-4e-05,0,0.0001,-1e-05,-0.00016,0.00017,-0.00036,3,25
13262,0.00024,-4e-05,0,0.0001,-1e-05,-0.00016,0.00017,-0.00036,3,25
13263,0.00024,-4e-05,0,0.0001,-1e-05,-0.00016,0.00017,-0.00036,3,25
13264,0.00024,-4e-05,0,0.0001,-1e-05,-0.00016,0.00017,-0.00036,3,25
13265,0.00024,-4e-05,0,0.0001,-1e-05,-0.00016,0.00017,-0.00036,3,25
13266,0.00024,-4e-05,0,0.0001,-1e-05,-0.00016,0.00017,-0.00036,3,25
13267,0.00024,-4e-05,0,0.0001,-1e-05,-0.00016,0.00017,-0.00036,3,25
13268,0.00024,-4e-05,0,0.0001,-1e-05,-0.00016,0.00017,-0.00036,3,25
13269,0.00024,-4e-05,0,0.0001,-1e-05,-0.00016,0.00017,-0.00036,3,25
13270,0.00024,-4e-05,0,0.0001,-1e-05,-0.00016,0.00017,-0.00036,3,25
13271,0.00024,-4e-05,0,0.0001,-1e-05,-0.00016,0.00017,-0.00036,3,25
13272,0.00024,-4e-05,0,0.0001,-1e-05,-0.00016,0.00017,-0.00036,3,25
13273,0.00024,-4e-05,0,0.0001,-1e-05,-0.00016,0.00017,-0.00036,3,25
13274,0.00024,-4e-05,0,0.0001,-1e-05,-0.00016,0.00017,-0.00036,3,25
13275,0.00024,-4e-05,0,0.0001,-1e-05,-0.00016,0.00017,-0.00036,3,25
13276,0.00024,-4e-05,0,0.0001,-1e-05,-0.00016,0.00017,-0.00036,3,25
13277,0.00024,-4e-05,0,0.0001,-1e-05,-0.00016,0.00017,-0.00036,3,25
13278,0.00021,0.00028,1e-05,9e-05,-0.00013,0.00023,-8e-05,-0.00021,3,25
13279,-0.0002,-0.00013,-9e-05,0.00011,0.00083,-0.00027,9e-05,0.00022,3,25
13280,-0.0002,-0.00013,-9e-05,0.00011,0.00083,-0.00027,9e-05,0.00022,3,25
13281,-0.0002,-0.00013,-9e-05,0.00011,0.00083,-0.00027,9e-05,0.00022,3,25
13282,-0.0002,-0.00013,-9e-05,0.00011,0.00083,-0.00027,9e-05,0.00022,3,25
13283,-0.0002,-0.00013,-9e-05,0.00011,0.00083,-0.00027,9e-05,0.00022,3,25
13284,-0.0002,-0.00013,-9e-05,0.00011,0.00083,-0.00027,9e-05,0.00022,3,25
13285,-0.0002,-0.00013,-9e-05,0.00011,0.00083,-0.00027,9e-05,0.00022,3,25
13286,-0.0002,-0.00013,-9e-05,0.00011,0.00083,-0.00027,9e-05,0.00022,3,25
13287,-0.0002,-0.00013,-9e-05,0.00011,0.00083,-0.00027,9e-05,0.00022,3,25
13289,-0.0002,-0.00013,-9e-05,0.00011,0.00083,-0.00027,9e-05,0.00022,3,25
13291,-0.0002,-0.00013,-9e-05,0.00011,0.00083,-0.00027,9e-05,0.00022,3,25
13292,-0.00022,-0.00019,2e-05,6e-05,0.00057,0.00018,0.00041,-0.00017,3,25
13293,0.00045,0.00022,-2e-05,-2e-05,9e-05,4e-05,0,0.00055,3,25
13294,0.00045,0.00022,-2e-05,-2e-05,9e-05,4e-05,0,0.00055,3,25
13295,0.00045,0.00022,-2e-05,-2e-05,9e-05,4e-05,0,0.00055,3,25
13296,0.00045,0.00022,-2e-05,-2e-05,9e-05,4e-05,0,0.00055,3,25
13297,0.00045,0.00022,-2e-05,-2e-05,9e-05,4e-05,0,0.00055,3,25
13298,0.00045,0.00022,-2e-05,-2e-05,9e-05,4e-05,0,0.00055,3,25
13299,0.00045,0.00022,-2e-05,-2e-05,9e-05,4e-05,0,0.00055,3,25
13300,0.00045,0.00022,-2e-05,-2e-05,9e-05,4e-05,0,0.00055,3,25
13301,0.00045,0.00022,-2e-05,-2e-05,9e-05,4e-05,0,0.00055,3,25
13302,0.00045,0.00022,-2e-05,-2e-05,9e-05,4e-05,0,0.00055,3,25
13303,0.00045,0.00022,-2e-05,-2e-05,9e-05,4e-05,0,0.00055,3,25
13304,0.00045,0.00022,-2e-05,-2e-05,9e-05,4e-05,0,0.00055,3,25
13305,0.00045,0.00022,-2e-05,-2e-05,9e-05,4e-05,0,0.00055,3,25
13306,0.00045,0.00022,-2e-05,-2e-05,9e-05,4e-05,0,0.00055,3,25
13307,0.00045,0.00022,-2e-05,-2e-05,9e-05,4e-05,0,0.00055,3,25
13308,0.00045,0.00022,-2e-05,-2e-05,9e-05,4e-05,0,0.00055,3,25
13309,0.00045,0.00022,-2e-05,-2e-05,9e-05,4e-05,0,0.00055,3,25
13310,0.00045,0.00022,-2e-05,-2e-05,9e-05,4e-05,0,0.00055,3,25
13311,0.00045,0.00022,-2e-05,-2e-05,9e-05,4e-05,0,0.00055,3,25
13312,0.00045,0.00022,-2e-05,-2e-05,9e-05,4e-05,0,0.00055,3,25
13313,0.00045,0.00022,-2e-05,-2e-05,9e-05,4e-05,0,0.00055,3,25
13314,0.00045,0.00022,-2e-05,-2e-05,9e-05,4e-05,0,0.00055,3,25
13315,0.00016,-0.00041,-6e-05,-0.00012,0.00041,8e-05,-0.00027,-0.00074,3,25
13316,0.00027,0.00028,0.00025,0.00056,0.001,0.00069,0.00036,-9e-05,3,25
13317,0.00027,0.00028,0.00025,0.00056,0.001,0.00069,0.00036,-9e-05,3,25
13318,0.00027,0.00028,0.00025,0.00056,0.001,0.00069,0.00036,-9e-05,3,25
13319,0.00027,0.00028,0.00025,0.00056,0.001,0.00069,0.00036,-9e-05,3,25
13320,0.00027,0.00028,0.00025,0.00056,0.001,0.00069,0.00036,-9e-05,3,25
13321,0.00027,0.00028,0.00025,0.00056,0.001,0.00069,0.00036,-9e-05,3,25
13322,0.00027,0.00028,0.00025,0.00056,0.001,0.00069,0.00036,-9e-05,3,25
13323,0.00027,0.00028,0.00025,0.00056,0.001,0.00069,0.00036,-9e-05,3,25
13324,0.00027,0.00028,0.00025,0.00056,0.001,0.00069,0.00036,-9e-05,3,25
13325,0.00027,0.00028,0.00025,0.00056,0.001,0.00069,0.00036,-9e-05,3,25
13326,0.00027,0.00028,0.00025,0.00056,0.001,0.00069,0.00036,-9e-05,3,25
13327,0.00027,0.00028,0.00025,0.00056,0.001,0.00069,0.00036,-9e-05,3,25
13328,0.00027,0.00028,0.00025,0.00056,0.001,0.00069,0.00036,-9e-05,3,25
13329,0.00027,0.00028,0.00025,0.00056,0.001,0.00069,0.00036,-9e-05,3,25
13330,0.00027,0.00028,0.00025,0.00056,0.001,0.00069,0.00036,-9e-05,3,25
13331,0.00027,0.00028,0.00025,0.00056,0.001,0.00069,0.00036,-9e-05,3,25
13332,0.00027,0.00028,0.00025,0.00056,0.001,0.00069,0.00036,-9e-05,3,25
13333,0.00027,0.00028,0.00025,0.00056,0.001,0.00069,0.00036,-9e-05,3,25
13334,0.00027,0.00028,0.00025,0.00056,0.001,0.00069,0.00036,-9e-05,3,25
13336,0.00027,0.00028,0.00025,0.00056,0.001,0.00069,0.00036,-9e-05,3,25
13337,0.00027,0.00028,0.00025,0.00056,0.001,0.00069,0.00036,-9e-05,3,25
13338,-0.0005,-0.00028,-0.00014,0.00019,-0.00042,0.00016,6e-05,0.00058,3,25
13339,0.0003,-8e-05,4e-05,7e-05,0.0005,0.00037,-0.00034,-0.00029,3,25
13340,0.0003,-8e-05,4e-05,7e-05,0.0005,0.00037,-0.00034,-0.00029,3,25
13341,0.0003,-8e-05,4e-05,7e-05,0.0005,0.00037,-0.00034,-0.00029,3,25
13342,0.0003,-8e-05,4e-05,7e-05,0.0005,0.00037,-0.00034,-0.00029,3,25
13343,0.0003,-8e-05,4e-05,7e-05,0.0005,0.00037,-0.00034,-0.00029,3,25
13344,0.0003,-8e-05,4e-05,7e-05,0.0005,0.00037,-0.00034,-0.00029,3,25
13345,0.0003,-8e-05,4e-05,7e-05,0.0005,0.00037,-0.00034,-0.00029,3,25
13346,0.0003,-8e-05,4e-05,7e-05,0.0005,0.00037,-0.00034,-0.00029,3,25
13347,0.0003,-8e-05,4e-05,7e-05,0.0005,0.00037,-0.00034,-0.00029,3,25
13348,0.0003,-8e-05,4e-05,7e-05,0.0005,0.00037,-0.00034,-0.00029,3,25
13349,0.0003,-8e-05,4e-05,7e-05,0.0005,0.00037,-0.00034,-0.00029,3,25
13350,0.0003,-8e-05,4e-05,7e-05,0.0005,0.00037,-0.00034,-0.00029,3,25
13351,0.0003,-8e-05,4e-05,7e-05,0.0005,0.00037,-0.00034,-0.00029,3,25
13352,-6e-05,-6e-05,-0.00036,-0.00049,-0.00086,-0.00039,0.00032,0.00026,3,25
13353,-0.00084,-0.00053,-0.00013,-0.00014,-0.0005,8e-05,7e-05,-0.0001,3,25
13354,-0.00084,-0.00053,-0.00013,-0.00014,-0.0005,8e-05,7e-05,-0.0001,3,25
13355,-0.00084,-0.00053,-0.00013,-0.00014,-0.0005,8e-05,7e-05,-0.0001,3,25
13356,-0.00084,-0.00053,-0.00013,-0.00014,-0.0005,8e-05,7e-05,-0.0001,3,25
13357,-0.00084,-0.00053,-0.00013,-0.00014,-0.0005,8e-05,7e-05,-0.0001,3,25
13358,-0.00084,-0.00053,-0.00013,-0.00014,-0.0005,8e-05,7e-05,-0.0001,3,25
13359,-0.00084,-0.00053,-0.00013,-0.00014,-0.0005,8e-05,7e-05,-0.0001,3,25
13360,-0.00084,-0.00053,-0.00013,-0.00014,-0.0005,8e-05,7e-05,-0.0001,3,25
13361,-0.00084,-0.00053,-0.00013,-0.00014,-0.0005,8e-05,7e-05,-0.0001,3,25
13362,-0.00084,-0.00053,-0.00013,-0.00014,-0.0005,8e-05,7e-05,-0.0001,3,25
13363,-0.00084,-0.00053,-0.00013,-0.00014,-0.0005,8e-05,7e-05,-0.0001,3,25
13364,-0.00084,-0.00053,-0.00013,-0.00014,-0.0005,8e-05,7e-05,-0.0001,3,25
13365,-0.00084,-0.00053,-0.00013,-0.00014,-0.0005,8e-05,7e-05,-0.0001,3,25
13366,-0.00084,-0.00053,-0.00013,-0.00014,-0.0005,8e-05,7e-05,-0.0001,3,25
13367,-0.00084,-0.00053,-0.00013,-0.00014,-0.0005,8e-05,7e-05,-0.0001,3,25
13368,-0.00084,-0.00053,-0.00013,-0.00014,-0.0005,8e-05,7e-05,-0.0001,3,25
13369,-0.00084,-0.00053,-0.00013,-0.00014,-0.0005,8e-05,7e-05,-0.0001,3,25
13370,-0.00084,-0.00053,-0.00013,-0.00014,-0.0005,8e-05,7e-05,-0.0001,3,25
13371,-0.00084,-0.00053,-0.00013,-0.00014,-0.0005,8e-05,7e-05,-0.0001,3,25
13372,-0.00084,-0.00053,-0.00013,-0.00014,-0.0005,8e-05,7e-05,-0.0001,3,25
13373,-0.00084,-0.00053,-0.00013,-0.00014,-0.0005,8e-05,7e-05,-0.0001,3,25
13374,-0.00084,-0.00053,-0.00013,-0.00014,-0.0005,8e-05,7e-05,-0.0001,3,25
13375,0.0004,0.00053,0.00029,0.00053,0.00035,0.00022,-0.00014,0.00018,3,25
13376,0.00039,0.00018,-3e-05,-9e-05,-3e-05,-3e-05,-0.0001,-0.00014,3,25
13377,0.00039,0.00018,-3e-05,-9e-05,-3e-05,-3e-05,-0.0001,-0.00014,3,25
13378,0.00039,0.00018,-3e-05,-9e-05,-3e-05,-3e-05,-0.0001,-0.00014,3,25
13379,0.00039,0.00018,-3e-05,-9e-05,-3e-05,-3e-05,-0.0001,-0.00014,3,25
13380,0.00039,0.00018,-3e-05,-9e-05,-3e-05,-3e-05,-0.0001,-0.00014,3,25
13381,0.00039,0.00018,-3e-05,-9e-05,-3e-05,-3e-05,-0.0001,-0.00014,3,25
13383,0.00039,0.00018,-3e-05,-9e-05,-3e-05,-3e-05,-0.0001,-0.00014,3,25
13384,0.00039,0.00018,-3e-05,-9e-05,-3e-05,-3e-05,-0.0001,-0.00014,3,25
13385,0.00039,0.00018,-3e-05,-9e-05,-3e-05,-3e-05,-0.0001,-0.00014,3,25
13386,0.00039,0.00018,-3e-05,-9e-05,-3e-05,-3e-05,-0.0001,-0.00014,3,25
13387,0.00039,0.00018,-3e-05,-9e-05,-3e-05,-3e-05,-0.0001,-0.00014,3,25
13388,0.00039,0.00018,-3e-05,-9e-05,-3e-05,-3e-05,-0.0001,-0.00014,3,25
13389,0.00039,0.00018,-3e-05,-9e-05,-3e-05,-3e-05,-0.0001,-0.00014,3,25
13391,0.00039,0.00018,-3e-05,-9e-05,-3e-05,-3e-05,-0.0001,-0.00014,3,25
13392,0.00039,0.00018,-3e-05,-9e-05,-3e-05,-3e-05,-0.0001,-0.00014,3,25
13393,0.00039,0.00018,-3e-05,-9e-05,-3e-05,-3e-05,-0.0001,-0.00014,3,25
13394,0.00039,0.00018,-3e-05,-9e-05,-3e-05,-3e-05,-0.0001,-0.00014,3,25
13395,0.00039,0.00018,-3e-05,-9e-05,-3e-05,-3e-05,-0.0001,-0.00014,3,25
13396,0.00039,0.00018,-3e-05,-9e-05,-3e-05,-3e-05,-0.0001,-0.00014,3,25
13397,0.00039,0.00018,-3e-05,-9e-05,-3e-05,-3e-05,-0.0001,-0.00014,3,25
13398,-3e-05,0.00022,9e-05,-3e-05,7e-05,0.0001,-0.00022,0.00058,3,25
13399,0.00015,0.00022,9e-05,-0.00012,-0.00068,-3e-05,0.00011,7e-05,3,25
13400,0.00015,0.00022,9e-05,-0.00012,-0.00068,-3e-05,0.00011,7e-05,3,25
13401,0.00015,0.00022,9e-05,-0.00012,-0.00068,-3e-05,0.00011,7e-05,3,25
13402,0.00015,0.00022,9e-05,-0.00012,-0.00068,-3e-05,0.00011,7e-05,3,25
13403,0.00015,0.00022,9e-05,-0.00012,-0.00068,-3e-05,0.00011,7e-05,3,25
13404,0.00015,0.00022,9e-05,-0.00012,-0.00068,-3e-05,0.00011,7e-05,3,25
13405,0.00015,0.00022,9e-05,-0.00012,-0.00068,-3e-05,0.00011,7e-05,3,25
13406,0.00015,0.00022,9e-05,-0.00012,-0.00068,-3e-05,0.00011,7e-05,3,25
13407,0.00015,0.00022,9e-05,-0.00012,-0.00068,-3e-05,0.00011,7e-05,3,25
13408,0.00015,0.00022,9e-05,-0.00012,-0.00068,-3e-05,0.00011,7e-05,3,25
13409,0.00015,0.00022,9e-05,-0.00012,-0.00068,-3e-05,0.00011,7e-05,3,25
13410,0.00015,0.00022,9e-05,-0.00012,-0.00068,-3e-05,0.00011,7e-05,3,25
13411,0.00015,0.00022,9e-05,-0.00012,-0.00068,-3e-05,0.00011,7e-05,3,25
13412,0.00015,0.00022,9e-05,-0.00012,-0.00068,-3e-05,0.00011,7e-05,3,25
13413,0.00015,0.00022,9e-05,-0.00012,-0.00068,-3e-05,0.00011,7e-05,3,25
13414,0.00015,0.00022,9e-05,-0.00012,-0.00068,-3e-05,0.00011,7e-05,3,25
13415,-0.00014,-6e-05,-0.00016,-0.00035,-0.00012,0.00011,0.00012,-0.00049,3,25
13416,-0.00014,-6e-05,-0.00016,-0.00035,-0.00012,0.00011,0.00012,-0.00049,3,25
13417,-0.00014,-6e-05,-0.00016,-0.00035,-0.00012,0.00011,0.00012,-0.00049,3,25
13418,-0.00014,-6e-05,-0.00016,-0.00035,-0.00012,0.00011,0.00012,-0.00049,3,25
13419,-0.00014,-6e-05,-0.00016,-0.00035,-0.00012,0.00011,0.00012,-0.00049,3,25
13420,0.00034,0.00036,-3e-05,-6e-05,-8e-05,-0.00022,-3e-05,3e-05,3,25
13421,-0.00026,-0.00023,-4e-05,-0.0004,-0.00099,3e-05,-4e-05,0.00033,3,25
13422,-0.00026,-0.00023,-4e-05,-0.0004,-0.00099,3e-05,-4e-05,0.00033,3,25
13423,-0.00026,-0.00023,-4e-05,-0.0004,-0.00099,3e-05,-4e-05,0.00033,3,25
13424,-0.00026,-0.00023,-4e-05,-0.0004,-0.00099,3e-05,-4e-05,0.00033,3,25
13425,-0.00026,-0.00023,-4e-05,-0.0004,-0.00099,3e-05,-4e-05,0.00033,3,25
13426,-0.00026,-0.00023,-4e-05,-0.0004,-0.00099,3e-05,-4e-05,0.00033,3,25
13427,-0.00026,-0.00023,-4e-05,-0.0004,-0.00099,3e-05,-4e-05,0.00033,3,25
13428,-0.00026,-0.00023,-4e-05,-0.0004,-0.00099,3e-05,-4e-05,0.00033,3,25
13430,-0.00026,-0.00023,-4e-05,-0.0004,-0.00099,3e-05,-4e-05,0.00033,3,25
13431,-0.00026,-0.00023,-4e-05,-0.0004,-0.00099,3e-05,-4e-05,0.00033,3,25
13432,-0.00026,-0.00023,-4e-05,-0.0004,-0.00099,3e-05,-4e-05,0.00033,3,25
13433,-0.00026,-0.00023,-4e-05,-0.0004,-0.00099,3e-05,-4e-05,0.00033,3,25
13434,-0.00026,-0.00023,-4e-05,-0.0004,-0.00099,3e-05,-4e-05,0.00033,3,25
13435,-0.00021,1e-05,0.00022,0.00033,0.00037,0.00019,0.00017,0.0005,3,25
13436,-0.00021,1e-05,0.00022,0.00033,0.00037,0.00019,0.00017,0.0005,3,25
13437,0.00045,0.00016,5e-05,-6e-05,0.0004,-0.00028,-0.00013,-0.00037,3,25
13438,5e-05,-7e-05,-0.0001,-0.00039,-0.00058,-0.00029,-0.00023,-0.00014,3,25
13439,5e-05,-7e-05,-0.0001,-0.00039,-0.00058,-0.00029,-0.00023,-0.00014,3,25
13441,5e-05,-7e-05,-0.0001,-0.00039,-0.00058,-0.00029,-0.00023,-0.00014,3,25
13442,5e-05,-7e-05,-0.0001,-0.00039,-0.00058,-0.00029,-0.00023,-0.00014,3,25
13443,5e-05,-7e-05,-0.0001,-0.00039,-0.00058,-0.00029,-0.00023,-0.00014,3,25
13444,5e-05,-7e-05,-0.0001,-0.00039,-0.00058,-0.00029,-0.00023,-0.00014,3,25
13445,5e-05,-7e-05,-0.0001,-0.00039,-0.00058,-0.00029,-0.00023,-0.00014,3,25
13446,5e-05,-7e-05,-0.0001,-0.00039,-0.00058,-0.00029,-0.00023,-0.00014,3,25
13447,5e-05,-7e-05,-0.0001,-0.00039,-0.00058,-0.00029,-0.00023,-0.00014,3,25
13448,5e-05,-7e-05,-0.0001,-0.00039,-0.00058,-0.00029,-0.00023,-0.00014,3,25
13449,5e-05,-7e-05,-0.0001,-0.00039,-0.00058,-0.00029,-0.00023,-0.00014,3,25
13450,5e-05,-7e-05,-0.0001,-0.00039,-0.00058,-0.00029,-0.00023,-0.00014,3,25
13451,5e-05,-7e-05,-0.0001,-0.00039,-0.00058,-0.00029,-0.00023,-0.00014,3,25
13452,5e-05,-7e-05,-0.0001,-0.00039,-0.00058,-0.00029,-0.00023,-0.00014,3,25
13453,5e-05,-7e-05,-0.0001,-0.00039,-0.00058,-0.00029,-0.00023,-0.00014,3,25
13454,5e-05,-7e-05,-0.0001,-0.00039,-0.00058,-0.00029,-0.00023,-0.00014,3,25
13455,5e-05,-7e-05,-0.0001,-0.00039,-0.00058,-0.00029,-0.00023,-0.00014,3,25
13456,5e-05,-7e-05,-0.0001,-0.00039,-0.00058,-0.00029,-0.00023,-0.00014,3,25
13457,5e-05,-7e-05,-0.0001,-0.00039,-0.00058,-0.00029,-0.00023,-0.00014,3,25
13458,-5e-05,9e-05,9e-05,0.00036,0.00073,-0.00052,-0.00018,0.00031,3,25
13459,-0.0001,-0.00016,-4e-05,-0.0001,0.00083,0.00012,-0.00015,9e-05,3,25
13460,-0.0001,-0.00016,-4e-05,-0.0001,0.00083,0.00012,-0.00015,9e-05,3,25
13461,-0.0001,-0.00016,-4e-05,-0.0001,0.00083,0.00012,-0.00015,9e-05,3,25
13462,-0.0001,-0.00016,-4e-05,-0.0001,0.00083,0.00012,-0.00015,9e-05,3,25
13463,-0.0001,-0.00016,-4e-05,-0.0001,0.00083,0.00012,-0.00015,9e-05,3,25
13464,-0.0001,-0.00016,-4e-05,-0.0001,0.00083,0.00012,-0.00015,9e-05,3,25
13465,-0.0001,-0.00016,-4e-05,-0.0001,0.00083,0.00012,-0.00015,9e-05,3,25
13466,-0.0001,-0.00016,-4e-05,-0.0001,0.00083,0.00012,-0.00015,9e-05,3,25
13467,-0.0001,-0.00016,-4e-05,-0.0001,0.00083,0.00012,-0.00015,9e-05,3,25
13468,-0.0001,-0.00016,-4e-05,-0.0001,0.00083,0.00012,-0.00015,9e-05,3,25
13469,-0.0001,-0.00016,-4e-05,-0.0001,0.00083,0.00012,-0.00015,9e-05,3,25
13470,-0.0001,-0.00016,-4e-05,-0.0001,0.00083,0.00012,-0.00015,9e-05,3,25
13471,-0.0001,-0.00016,-4e-05,-0.0001,0.00083,0.00012,-0.00015,9e-05,3,25
13472,0.0003,0.00016,-7e-05,-0.00078,-0.00128,-0.00015,-0.00011,-0.0006,3,25
13473,0.0003,0.00016,-7e-05,-0.00078,-0.00128,-0.00015,-0.00011,-0.0006,3,25
13474,0.0003,0.00016,-7e-05,-0.00078,-0.00128,-0.00015,-0.00011,-0.0006,3,25
13475,0.0003,0.00016,-7e-05,-0.00078,-0.00128,-0.00015,-0.00011,-0.0006,3,25
13476,0.0003,0.00016,-7e-05,-0.00078,-0.00128,-0.00015,-0.00011,-0.0006,3,25
13478,0.0003,0.00016,-7e-05,-0.00078,-0.00128,-0.00015,-0.00011,-0.0006,3,25
13479,0.0003,0.00016,-7e-05,-0.00078,-0.00128,-0.00015,-0.00011,-0.0006,3,25
13480,-0.00012,0.00013,-0.00018,-0.00027,-0.00054,-0.00027,1e-05,7e-05,3,25
13481,-0.00012,0.00013,-0.00018,-0.00027,-0.00054,-0.00027,1e-05,7e-05,3,25
13482,-0.00012,0.00013,-0.00018,-0.00027,-0.00054,-0.00027,1e-05,7e-05,3,25
13483,-0.00012,0.00013,-0.00018,-0.00027,-0.00054,-0.00027,1e-05,7e-05,3,25
13484,-0.00012,0.00013,-0.00018,-0.00027,-0.00054,-0.00027,1e-05,7e-05,3,25
13485,-0.00012,0.00013,-0.00018,-0.00027,-0.00054,-0.00027,1e-05,7e-05,3,25
13486,-0.00012,0.00013,-0.00018,-0.00027,-0.00054,-0.00027,1e-05,7e-05,3,25
13487,-0.00012,0.00013,-0.00018,-0.00027,-0.00054,-0.00027,1e-05,7e-05,3,25
13488,-0.00012,0.00013,-0.00018,-0.00027,-0.00054,-0.00027,1e-05,7e-05,3,25
13489,-0.00012,0.00013,-0.00018,-0.00027,-0.00054,-0.00027,1e-05,7e-05,3,25
13491,-0.00012,0.00013,-0.00018,-0.00027,-0.00054,-0.00027,1e-05,7e-05,3,25
13492,-0.00012,0.00013,-0.00018,-0.00027,-0.00054,-0.00027,1e-05,7e-05,3,25
13493,-0.00012,0.00013,-0.00018,-0.00027,-0.00054,-0.00027,1e-05,7e-05,3,25
13494,-0.00012,0.00013,-0.00018,-0.00027,-0.00054,-0.00027,1e-05,7e-05,3,25
13495,0.00026,0.0003,0.00013,0.00035,0.00078,-0.00013,-8e-05,0.00026,3,25
13496,0.00026,0.0003,0.00013,0.00035,0.00078,-0.00013,-8e-05,0.00026,3,25
13497,-0.00011,4e-05,0.00012,0.00025,0.0008,-0.00036,-0.00017,-0.00055,3,25
13498,-0.00011,4e-05,0.00012,0.00025,0.0008,-0.00036,-0.00017,-0.00055,3,25
13499,-0.00011,4e-05,0.00012,0.00025,0.0008,-0.00036,-0.00017,-0.00055,3,25
13500,-0.00011,4e-05,0.00012,0.00025,0.0008,-0.00036,-0.00017,-0.00055,3,25
13501,-0.00011,4e-05,0.00012,0.00025,0.0008,-0.00036,-0.00017,-0.00055,3,25
13502,-0.00011,4e-05,0.00012,0.00025,0.0008,-0.00036,-0.00017,-0.00055,3,25
13503,-0.00011,4e-05,0.00012,0.00025,0.0008,-0.00036,-0.00017,-0.00055,3,25
13504,-0.00011,4e-05,0.00012,0.00025,0.0008,-0.00036,-0.00017,-0.00055,3,25
13505,-0.00011,4e-05,0.00012,0.00025,0.0008,-0.00036,-0.00017,-0.00055,3,25
13506,-0.00011,4e-05,0.00012,0.00025,0.0008,-0.00036,-0.00017,-0.00055,3,25
13507,-0.00011,4e-05,0.00012,0.00025,0.0008,-0.00036,-0.00017,-0.00055,3,25
13508,-0.00011,4e-05,0.00012,0.00025,0.0008,-0.00036,-0.00017,-0.00055,3,25
13509,-0.00011,4e-05,0.00012,0.00025,0.0008,-0.00036,-0.00017,-0.00055,3,25
13510,-0.00011,4e-05,0.00012,0.00025,0.0008,-0.00036,-0.00017,-0.00055,3,25
13511,-0.00011,4e-05,0.00012,0.00025,0.0008,-0.00036,-0.00017,-0.00055,3,25
13512,-0.00011,4e-05,0.00012,0.00025,0.0008,-0.00036,-0.00017,-0.00055,3,25
13513,-0.00011,4e-05,0.00012,0.00025,0.0008,-0.00036,-0.00017,-0.00055,3,25
13514,-0.00011,4e-05,0.00012,0.00025,0.0008,-0.00036,-0.00017,-0.00055,3,25
13515,-0.00011,4e-05,0.00012,0.00025,0.0008,-0.00036,-0.00017,-0.00055,3,25
13516,-0.00011,4e-05,0.00012,0.00025,0.0008,-0.00036,-0.00017,-0.00055,3,25
13517,-0.00011,4e-05,0.00012,0.00025,0.0008,-0.00036,-0.00017,-0.00055,3,25
13518,-5e-05,-4e-05,-1e-05,-2e-05,-0.0002,0.0002,0.00012,0.00013,3,25
13519,7e-05,0,8e-05,0.00047,0.00113,0.00031,0.00017,0.0003,3,25
13520,7e-05,0,8e-05,0.00047,0.00113,0.00031,0.00017,0.0003,3,25
13521,7e-05,0,8e-05,0.00047,0.00113,0.00031,0.00017,0.0003,3,25
13522,7e-05,0,8e-05,0.00047,0.00113,0.00031,0.00017,0.0003,3,25
13524,7e-05,0,8e-05,0.00047,0.00113,0.00031,0.00017,0.0003,3,25
13525,7e-05,0,8e-05,0.00047,0.00113,0.00031,0.00017,0.0003,3,25
13526,7e-05,0,8e-05,0.00047,0.00113,0.00031,0.00017,0.0003,3,25
13527,7e-05,0,8e-05,0.00047,0.00113,0.00031,0.00017,0.0003,3,25
13528,7e-05,0,8e-05,0.00047,0.00113,0.00031,0.00017,0.0003,3,25
13529,7e-05,0,8e-05,0.00047,0.00113,0.00031,0.00017,0.0003,3,25
13530,7e-05,0,8e-05,0.00047,0.00113,0.00031,0.00017,0.0003,3,25
13531,7e-05,0,8e-05,0.00047,0.00113,0.00031,0.00017,0.0003,3,25
13532,-1e-05,4e-05,-4e-05,-0.00024,-0.00057,-0.00025,-0.00027,0.00034,3,25
13533,-1e-05,4e-05,-4e-05,-0.00024,-0.00057,-0.00025,-0.00027,0.00034,3,25
13534,-1e-05,4e-05,-4e-05,-0.00024,-0.00057,-0.00025,-0.00027,0.00034,3,25
13535,-1e-05,4e-05,-4e-05,-0.00024,-0.00057,-0.00025,-0.00027,0.00034,3,25
13536,-1e-05,4e-05,-4e-05,-0.00024,-0.00057,-0.00025,-0.00027,0.00034,3,25
13537,-1e-05,4e-05,-4e-05,-0.00024,-0.00057,-0.00025,-0.00027,0.00034,3,25
13538,-1e-05,4e-05,-4e-05,-0.00024,-0.00057,-0.00025,-0.00027,0.00034,3,25
13539,-1e-05,4e-05,-4e-05,-0.00024,-0.00057,-0.00025,-0.00027,0.00034,3,25
13541,-1e-05,4e-05,-4e-05,-0.00024,-0.00057,-0.00025,-0.00027,0.00034,3,25
13542,-1e-05,4e-05,-4e-05,-0.00024,-0.00057,-0.00025,-0.00027,0.00034,3,25
13543,-1e-05,4e-05,-4e-05,-0.00024,-0.00057,-0.00025,-0.00027,0.00034,3,25
13544,-1e-05,4e-05,-4e-05,-0.00024,-0.00057,-0.00025,-0.00027,0.00034,3,25
13545,-1e-05,4e-05,-4e-05,-0.00024,-0.00057,-0.00025,-0.00027,0.00034,3,25
13546,-0.00042,-0.00015,-3e-05,-0.0001,-0.00012,0.00047,0.00012,0.00015,3,25
13547,-0.00042,-0.00015,-3e-05,-0.0001,-0.00012,0.00047,0.00012,0.00015,3,25
13548,-0.00042,-0.00015,-3e-05,-0.0001,-0.00012,0.00047,0.00012,0.00015,3,25
13549,-0.00042,-0.00015,-3e-05,-0.0001,-0.00012,0.00047,0.00012,0.00015,3,25
13550,-0.00042,-0.00015,-3e-05,-0.0001,-0.00012,0.00047,0.00012,0.00015,3,25
13551,-0.00042,-0.00015,-3e-05,-0.0001,-0.00012,0.00047,0.00012,0.00015,3,25
13552,-0.00042,-0.00015,-3e-05,-0.0001,-0.00012,0.00047,0.00012,0.00015,3,25
13553,-0.00042,-0.00015,-3e-05,-0.0001,-0.00012,0.00047,0.00012,0.00015,3,25
13554,-0.00042,-0.00015,-3e-05,-0.0001,-0.00012,0.00047,0.00012,0.00015,3,25
13555,4e-05,-3e-05,-2e-05,0.00012,0.00049,0.00065,2e-05,-5e-05,3,25
13556,4e-05,-3e-05,-2e-05,0.00012,0.00049,0.00065,2e-05,-5e-05,3,25
13557,6e-05,0.00042,0.00012,0.00046,-1e-05,0.00024,0.00013,0.00059,3,25
13558,6e-05,0.00042,0.00012,0.00046,-1e-05,0.00024,0.00013,0.00059,3,25
13559,6e-05,0.00042,0.00012,0.00046,-1e-05,0.00024,0.00013,0.00059,3,25
13560,6e-05,0.00042,0.00012,0.00046,-1e-05,0.00024,0.00013,0.00059,3,25
13561,6e-05,0.00042,0.00012,0.00046,-1e-05,0.00024,0.00013,0.00059,3,25
13562,6e-05,0.00042,0.00012,0.00046,-1e-05,0.00024,0.00013,0.00059,3,25
13563,6e-05,0.00042,0.00012,0.00046,-1e-05,0.00024,0.00013,0.00059,3,25
13564,6e-05,0.00042,0.00012,0.00046,-1e-05,0.00024,0.00013,0.00059,3,25
13565,6e-05,0.00042,0.00012,0.00046,-1e-05,0.00024,0.00013,0.00059,3,25
13566,6e-05,0.00042,0.00012,0.00046,-1e-05,0.00024,0.00013,0.00059,3,25
13567,6e-05,0.00042,0.00012,0.00046,-1e-05,0.00024,0.00013,0.00059,3,25
13568,6e-05,0.00042,0.00012,0.00046,-1e-05,0.00024,0.00013,0.00059,3,25
13569,6e-05,0.00042,0.00012,0.00046,-1e-05,0.00024,0.00013,0.00059,3,25
13571,6e-05,0.00042,0.00012,0.00046,-1e-05,0.00024,0.00013,0.00059,3,25
13572,6e-05,0.00042,0.00012,0.00046,-1e-05,0.00024,0.00013,0.00059,3,25
13573,6e-05,0.00042,0.00012,0.00046,-1e-05,0.00024,0.00013,0.00059,3,25
13574,6e-05,0.00042,0.00012,0.00046,-1e-05,0.00024,0.00013,0.00059,3,25
13575,6e-05,0.00042,0.00012,0.00046,-1e-05,0.00024,0.00013,0.00059,3,25
13576,6e-05,0.00042,0.00012,0.00046,-1e-05,0.00024,0.00013,0.00059,3,25
13577,6e-05,0.00042,0.00012,0.00046,-1e-05,0.00024,0.00013,0.00059,3,25
13578,-0.00033,0.00027,-1e-05,-4e-05,0.00044,-0.0003,0,-0.00034,3,25
13579,-0.00024,-0.00041,-0.00018,-0.00027,-0.00073,-0.00014,0.00011,0.0001,3,25
13580,-0.00024,-0.00041,-0.00018,-0.00027,-0.00073,-0.00014,0.00011,0.0001,3,25
13581,-0.00024,-0.00041,-0.00018,-0.00027,-0.00073,-0.00014,0.00011,0.0001,3,25
13582,-0.00024,-0.00041,-0.00018,-0.00027,-0.00073,-0.00014,0.00011,0.0001,3,25
13583,-0.00024,-0.00041,-0.00018,-0.00027,-0.00073,-0.00014,0.00011,0.0001,3,25
13584,-0.00024,-0.00041,-0.00018,-0.00027,-0.00073,-0.00014,0.00011,0.0001,3,25
13585,-0.00024,-0.00041,-0.00018,-0.00027,-0.00073,-0.00014,0.00011,0.0001,3,25
13586,-0.00024,-0.00041,-0.00018,-0.00027,-0.00073,-0.00014,0.00011,0.0001,3,25
13587,-0.00024,-0.00041,-0.00018,-0.00027,-0.00073,-0.00014,0.00011,0.0001,3,25
13588,-0.00024,-0.00041,-0.00018,-0.00027,-0.00073,-0.00014,0.00011,0.0001,3,25
13589,-0.00024,-0.00041,-0.00018,-0.00027,-0.00073,-0.00014,0.00011,0.0001,3,25
13590,-0.00024,-0.00041,-0.00018,-0.00027,-0.00073,-0.00014,0.00011,0.0001,3,25
13591,-0.00024,-0.00041,-0.00018,-0.00027,-0.00073,-0.00014,0.00011,0.0001,3,25
13592,-0.00023,-0.00015,-2e-05,-0.00019,6e-05,-0.00019,-0.00038,0.00012,3,25
13593,-0.00023,-0.00015,-2e-05,-0.00019,6e-05,-0.00019,-0.00038,0.00012,3,25
13594,-0.00023,-0.00015,-2e-05,-0.00019,6e-05,-0.00019,-0.00038,0.00012,3,25
13595,-0.00023,-0.00015,-2e-05,-0.00019,6e-05,-0.00019,-0.00038,0.00012,3,25
13596,-0.00023,-0.00015,-2e-05,-0.00019,6e-05,-0.00019,-0.00038,0.00012,3,25
13597,-0.00023,-0.00015,-2e-05,-0.00019,6e-05,-0.00019,-0.00038,0.00012,3,25
13598,-0.00023,-0.00015,-2e-05,-0.00019,6e-05,-0.00019,-0.00038,0.00012,3,25
13599,-0.00023,-0.00015,-2e-05,-0.00019,6e-05,-0.00019,-0.00038,0.00012,3,25
13600,-0.00023,-0.00015,-2e-05,-0.00019,6e-05,-0.00019,-0.00038,0.00012,3,25
13601,0.00021,0.00023,0.00011,8e-05,0.00059,0,0.00017,-0.00014,3,25
13602,0.00021,0.00023,0.00011,8e-05,0.00059,0,0.00017,-0.00014,3,25
13603,0.00021,0.00023,0.00011,8e-05,0.00059,0,0.00017,-0.00014,3,25
13604,0.00021,0.00023,0.00011,8e-05,0.00059,0,0.00017,-0.00014,3,25
13605,0.00021,0.00023,0.00011,8e-05,0.00059,0,0.00017,-0.00014,3,25
13606,0.00021,0.00023,0.00011,8e-05,0.00059,0,0.00017,-0.00014,3,25
13607,0.00021,0.00023,0.00011,8e-05,0.00059,0,0.00017,-0.00014,3,25
13608,0.00021,0.00023,0.00011,8e-05,0.00059,0,0.00017,-0.00014,3,25
13609,0.00021,0.00023,0.00011,8e-05,0.00059,0,0.00017,-0.00014,3,25
13610,0.00021,0.00023,0.00011,8e-05,0.00059,0,0.00017,-0.00014,3,25
13611,0.00021,0.00023,0.00011,8e-05,0.00059,0,0.00017,-0.00014,3,25
13612,0.00021,0.00023,0.00011,8e-05,0.00059,0,0.00017,-0.00014,3,25
13613,0.00021,0.00023,0.00011,8e-05,0.00059,0,0.00017,-0.00014,3,25
13614,0.00021,0.00023,0.00011,8e-05,0.00059,0,0.00017,-0.00014,3,25
13615,-0.00018,-0.00014,0,-2e-05,-0.00045,-4e-05,1e-05,-0.00015,3,25
13616,-0.00018,-0.00014,0,-2e-05,-0.00045,-4e-05,1e-05,-0.00015,3,25
13617,-7e-05,1e-05,-5e-05,0.00014,-0.00046,-0.0001,-0.00031,9e-05,3,25
13618,-7e-05,1e-05,-5e-05,0.00014,-0.00046,-0.0001,-0.00031,9e-05,3,25
13619,-7e-05,1e-05,-5e-05,0.00014,-0.00046,-0.0001,-0.00031,9e-05,3,25
13620,-7e-05,1e-05,-5e-05,0.00014,-0.00046,-0.0001,-0.00031,9e-05,3,25
13621,-7e-05,1e-05,-5e-05,0.00014,-0.00046,-0.0001,-0.00031,9e-05,3,25
13622,-7e-05,1e-05,-5e-05,0.00014,-0.00046,-0.0001,-0.00031,9e-05,3,25
13623,-7e-05,1e-05,-5e-05,0.00014,-0.00046,-0.0001,-0.00031,9e-05,3,25
13624,-7e-05,1e-05,-5e-05,0.00014,-0.00046,-0.0001,-0.00031,9e-05,3,25
13625,-7e-05,1e-05,-5e-05,0.00014,-0.00046,-0.0001,-0.00031,9e-05,3,25
13626,-7e-05,1e-05,-5e-05,0.00014,-0.00046,-0.0001,-0.00031,9e-05,3,25
13627,-7e-05,1e-05,-5e-05,0.00014,-0.00046,-0.0001,-0.00031,9e-05,3,25
13628,-7e-05,1e-05,-5e-05,0.00014,-0.00046,-0.0001,-0.00031,9e-05,3,25
13629,-7e-05,1e-05,-5e-05,0.00014,-0.00046,-0.0001,-0.00031,9e-05,3,25
13630,-7e-05,1e-05,-5e-05,0.00014,-0.00046,-0.0001,-0.00031,9e-05,3,25
13631,-7e-05,1e-05,-5e-05,0.00014,-0.00046,-0.0001,-0.00031,9e-05,3,25
13632,-7e-05,1e-05,-5e-05,0.00014,-0.00046,-0.0001,-0.00031,9e-05,3,25
13633,-7e-05,1e-05,-5e-05,0.00014,-0.00046,-0.0001,-0.00031,9e-05,3,25
13634,-7e-05,1e-05,-5e-05,0.00014,-0.00046,-0.0001,-0.00031,9e-05,3,25
13635,-7e-05,1e-05,-5e-05,0.00014,-0.00046,-0.0001,-0.00031,9e-05,3,25
13636,-7e-05,1e-05,-5e-05,0.00014,-0.00046,-0.0001,-0.00031,9e-05,3,25
13637,-7e-05,1e-05,-5e-05,0.00014,-0.00046,-0.0001,-0.00031,9e-05,3,25
13638,-0.00011,0.00018,-2e-05,-0.00012,-8e-05,-0.0002,0,1e-05,3,25
13639,0.00012,0.00017,0.00014,0.00025,0.00028,7e-05,-0.00017,0.00024,3,25
13640,0.00012,0.00017,0.00014,0.00025,0.00028,7e-05,-0.00017,0.00024,3,25
13641,0.00012,0.00017,0.00014,0.00025,0.00028,7e-05,-0.00017,0.00024,3,25
13642,0.00012,0.00017,0.00014,0.00025,0.00028,7e-05,-0.00017,0.00024,3,25
13643,0.00012,0.00017,0.00014,0.00025,0.00028,7e-05,-0.00017,0.00024,3,25
13644,0.00012,0.00017,0.00014,0.00025,0.00028,7e-05,-0.00017,0.00024,3,25
13645,0.00012,0.00017,0.00014,0.00025,0.00028,7e-05,-0.00017,0.00024,3,25
13646,0.00012,0.00017,0.00014,0.00025,0.00028,7e-05,-0.00017,0.00024,3,25
13647,0.00012,0.00017,0.00014,0.00025,0.00028,7e-05,-0.00017,0.00024,3,25
13648,0.00012,0.00017,0.00014,0.00025,0.00028,7e-05,-0.00017,0.00024,3,25
13649,0.00012,0.00017,0.00014,0.00025,0.00028,7e-05,-0.00017,0.00024,3,25
13650,0.00012,0.00017,0.00014,0.00025,0.00028,7e-05,-0.00017,0.00024,3,25
13651,0.00012,0.00017,0.00014,0.00025,0.00028,7e-05,-0.00017,0.00024,3,25
13652,1e-05,-0.00015,-4e-05,0.0003,-0.00026,0.00019,0.00038,0.00063,3,25
13653,1e-05,-0.00015,-4e-05,0.0003,-0.00026,0.00019,0.00038,0.00063,3,25
13654,1e-05,-0.00015,-4e-05,0.0003,-0.00026,0.00019,0.00038,0.00063,3,25
13655,1e-05,-0.00015,-4e-05,0.0003,-0.00026,0.00019,0.00038,0.00063,3,25
13656,1e-05,-0.00015,-4e-05,0.0003,-0.00026,0.00019,0.00038,0.00063,3,25
13657,1e-05,-0.00015,-4e-05,0.0003,-0.00026,0.00019,0.00038,0.00063,3,25
13658,1e-05,-0.00015,-4e-05,0.0003,-0.00026,0.00019,0.00038,0.00063,3,25
13659,1e-05,-0.00015,-4e-05,0.0003,-0.00026,0.00019,0.00038,0.00063,3,25
13660,0.00028,-0.00015,0.00011,0.00021,0.00041,0.00034,1e-05,-2e-05,3,25
13661,0.00028,-0.00015,0.00011,0.00021,0.00041,0.00034,1e-05,-2e-05,3,25
13662,0.00028,-0.00015,0.00011,0.00021,0.00041,0.00034,1e-05,-2e-05,3,25
13664,0.00028,-0.00015,0.00011,0.00021,0.00041,0.00034,1e-05,-2e-05,3,25
13665,0.00028,-0.00015,0.00011,0.00021,0.00041,0.00034,1e-05,-2e-05,3,25
13666,0.00028,-0.00015,0.00011,0.00021,0.00041,0.00034,1e-05,-2e-05,3,25
13667,0.00028,-0.00015,0.00011,0.00021,0.00041,0.00034,1e-05,-2e-05,3,25
13668,0.00028,-0.00015,0.00011,0.00021,0.00041,0.00034,1e-05,-2e-05,3,25
13669,0.00028,-0.00015,0.00011,0.00021,0.00041,0.00034,1e-05,-2e-05,3,25
13670,0.00028,-0.00015,0.00011,0.00021,0.00041,0.00034,1e-05,-2e-05,3,25
13671,0.00028,-0.00015,0.00011,0.00021,0.00041,0.00034,1e-05,-2e-05,3,25
13672,0.00028,-0.00015,0.00011,0.00021,0.00041,0.00034,1e-05,-2e-05,3,25
13673,0.00028,-0.00015,0.00011,0.00021,0.00041,0.00034,1e-05,-2e-05,3,25
13674,0.00028,-0.00015,0.00011,0.00021,0.00041,0.00034,1e-05,-2e-05,3,25
13675,0.00018,5e-05,1e-05,-0.00025,-0.00051,-5e-05,0.00011,-0.00052,3,25
13676,0.00018,5e-05,1e-05,-0.00025,-0.00051,-5e-05,0.00011,-0.00052,3,25
13677,-0.00025,6e-05,-4e-05,-3e-05,-0.00022,-0.00027,-0.0001,-3e-05,3,25
13678,-0.00025,6e-05,-4e-05,-3e-05,-0.00022,-0.00027,-0.0001,-3e-05,3,25
13679,-0.00025,6e-05,-4e-05,-3e-05,-0.00022,-0.00027,-0.0001,-3e-05,3,25
13680,-0.00025,6e-05,-4e-05,-3e-05,-0.00022,-0.00027,-0.0001,-3e-05,3,25
13681,-0.00025,6e-05,-4e-05,-3e-05,-0.00022,-0.00027,-0.0001,-3e-05,3,25
13682,-0.00025,6e-05,-4e-05,-3e-05,-0.00022,-0.00027,-0.0001,-3e-05,3,25
13683,-0.00025,6e-05,-4e-05,-3e-05,-0.00022,-0.00027,-0.0001,-3e-05,3,25
13684,-0.00025,6e-05,-4e-05,-3e-05,-0.00022,-0.00027,-0.0001,-3e-05,3,25
13685,-0.00025,6e-05,-4e-05,-3e-05,-0.00022,-0.00027,-0.0001,-3e-05,3,25
13686,-0.00025,6e-05,-4e-05,-3e-05,-0.00022,-0.00027,-0.0001,-3e-05,3,25
13687,-0.00025,6e-05,-4e-05,-3e-05,-0.00022,-0.00027,-0.0001,-3e-05,3,25
13688,-0.00025,6e-05,-4e-05,-3e-05,-0.00022,-0.00027,-0.0001,-3e-05,3,25
13689,-0.00025,6e-05,-4e-05,-3e-05,-0.00022,-0.00027,-0.0001,-3e-05,3,25
13690,-0.00025,6e-05,-4e-05,-3e-05,-0.00022,-0.00027,-0.0001,-3e-05,3,25
13691,-0.00025,6e-05,-4e-05,-3e-05,-0.00022,-0.00027,-0.0001,-3e-05,3,25
13692,-0.00025,6e-05,-4e-05,-3e-05,-0.00022,-0.00027,-0.0001,-3e-05,3,25
13693,-0.00025,6e-05,-4e-05,-3e-05,-0.00022,-0.00027,-0.0001,-3e-05,3,25
13694,-0.00025,6e-05,-4e-05,-3e-05,-0.00022,-0.00027,-0.0001,-3e-05,3,25
13695,-0.00025,6e-05,-4e-05,-3e-05,-0.00022,-0.00027,-0.0001,-3e-05,3,25
13696,-0.00025,6e-05,-4e-05,-3e-05,-0.00022,-0.00027,-0.0001,-3e-05,3,25
13697,-0.00025,6e-05,-4e-05,-3e-05,-0.00022,-0.00027,-0.0001,-3e-05,3,25
13698,0.00041,0.00015,0.00017,0.00046,0.00026,-1e-05,9e-05,-4e-05,3,25
13699,9e-05,3e-05,4e-05,-3e-05,-0.00033,0.00022,0.00013,-0.00011,3,25
13700,9e-05,3e-05,4e-05,-3e-05,-0.00033,0.00022,0.00013,-0.00011,3,25
13701,9e-05,3e-05,4e-05,-3e-05,-0.00033,0.00022,0.00013,-0.00011,3,25
13702,9e-05,3e-05,4e-05,-3e-05,-0.00033,0.00022,0.00013,-0.00011,3,25
13703,9e-05,3e-05,4e-05,-3e-05,-0.00033,0.00022,0.00013,-0.00011,3,25
13704,9e-05,3e-05,4e-05,-3e-05,-0.00033,0.00022,0.00013,-0.00011,3,25
13705,9e-05,3e-05,4e-05,-3e-05,-0.00033,0.00022,0.00013,-0.00011,3,25
13706,9e-05,3e-05,4e-05,-3e-05,-0.00033,0.00022,0.00013,-0.00011,3,25
13707,9e-05,3e-05,4e-05,-3e-05,-0.00033,0.00022,0.00013,-0.00011,3,25
13708,9e-05,3e-05,4e-05,-3e-05,-0.00033,0.00022,0.00013,-0.00011,3,25
13709,9e-05,3e-05,4e-05,-3e-05,-0.00033,0.00022,0.00013,-0.00011,3,25
13711,9e-05,3e-05,4e-05,-3e-05,-0.00033,0.00022,0.00013,-0.00011,3,25
13712,-7e-05,2e-05,-3e-05,-0.00029,-0.00071,-0.00046,-0.00019,0.00022,3,25
13713,-7e-05,2e-05,-3e-05,-0.00029,-0.00071,-0.00046,-0.00019,0.00022,3,25
13714,-7e-05,2e-05,-3e-05,-0.00029,-0.00071,-0.00046,-0.00019,0.00022,3,25
13715,-7e-05,2e-05,-3e-05,-0.00029,-0.00071,-0.00046,-0.00019,0.00022,3,25
13716,-7e-05,2e-05,-3e-05,-0.00029,-0.00071,-0.00046,-0.00019,0.00022,3,25
13717,-7e-05,2e-05,-3e-05,-0.00029,-0.00071,-0.00046,-0.00019,0.00022,3,25
13718,-7e-05,2e-05,-3e-05,-0.00029,-0.00071,-0.00046,-0.00019,0.00022,3,25
13719,-7e-05,2e-05,-3e-05,-0.00029,-0.00071,-0.00046,-0.00019,0.00022,3,25
13720,3e-05,8e-05,-1e-05,0.00021,-1e-05,1e-05,0.00012,-0.00036,3,25
13721,3e-05,8e-05,-1e-05,0.00021,-1e-05,1e-05,0.00012,-0.00036,3,25
13722,3e-05,8e-05,-1e-05,0.00021,-1e-05,1e-05,0.00012,-0.00036,3,25
13723,3e-05,8e-05,-1e-05,0.00021,-1e-05,1e-05,0.00012,-0.00036,3,25
13724,3e-05,8e-05,-1e-05,0.00021,-1e-05,1e-05,0.00012,-0.00036,3,25
13725,3e-05,8e-05,-1e-05,0.00021,-1e-05,1e-05,0.00012,-0.00036,3,25
13726,3e-05,8e-05,-1e-05,0.00021,-1e-05,1e-05,0.00012,-0.00036,3,25
13727,3e-05,8e-05,-1e-05,0.00021,-1e-05,1e-05,0.00012,-0.00036,3,25
13728,3e-05,8e-05,-1e-05,0.00021,-1e-05,1e-05,0.00012,-0.00036,3,25
13729,3e-05,8e-05,-1e-05,0.00021,-1e-05,1e-05,0.00012,-0.00036,3,25
13730,3e-05,8e-05,-1e-05,0.00021,-1e-05,1e-05,0.00012,-0.00036,3,25
13731,3e-05,8e-05,-1e-05,0.00021,-1e-05,1e-05,0.00012,-0.00036,3,25
13732,3e-05,8e-05,-1e-05,0.00021,-1e-05,1e-05,0.00012,-0.00036,3,25
13733,3e-05,8e-05,-1e-05,0.00021,-1e-05,1e-05,0.00012,-0.00036,3,25
13734,3e-05,8e-05,-1e-05,0.00021,-1e-05,1e-05,0.00012,-0.00036,3,25
13735,0.0001,-0.00013,-2e-05,-8e-05,-0.00078,-0.00024,0.0001,-0.00061,3,25
13736,0.0001,-0.00013,-2e-05,-8e-05,-0.00078,-0.00024,0.0001,-0.00061,3,25
13737,4e-05,2e-05,6e-05,3e-05,0.00064,0.00036,-0.00023,-0.0002,3,25
13738,-7e-05,1e-05,-0.00012,-0.00015,-0.00052,-0.00014,0.00044,0.00042,3,25
13739,-7e-05,1e-05,-0.00012,-0.00015,-0.00052,-0.00014,0.00044,0.00042,3,25
13740,-7e-05,1e-05,-0.00012,-0.00015,-0.00052,-0.00014,0.00044,0.00042,3,25
13741,-7e-05,1e-05,-0.00012,-0.00015,-0.00052,-0.00014,0.00044,0.00042,3,25
13742,-7e-05,1e-05,-0.00012,-0.00015,-0.00052,-0.00014,0.00044,0.00042,3,25
13743,-7e-05,1e-05,-0.00012,-0.00015,-0.00052,-0.00014,0.00044,0.00042,3,25
13744,-7e-05,1e-05,-0.00012,-0.00015,-0.00052,-0.00014,0.00044,0.00042,3,25
13745,-7e-05,1e-05,-0.00012,-0.00015,-0.00052,-0.00014,0.00044,0.00042,3,25
13746,-7e-05,1e-05,-0.00012,-0.00015,-0.00052,-0.00014,0.00044,0.00042,3,25
13747,-7e-05,1e-05,-0.00012,-0.00015,-0.00052,-0.00014,0.00044,0.00042,3,25
13748,-7e-05,1e-05,-0.00012,-0.00015,-0.00052,-0.00014,0.00044,0.00042,3,25
13749,-7e-05,1e-05,-0.00012,-0.00015,-0.00052,-0.00014,0.00044,0.00042,3,25
13750,-7e-05,1e-05,-0.00012,-0.00015,-0.00052,-0.00014,0.00044,0.00042,3,25
13751,-7e-05,1e-05,-0.00012,-0.00015,-0.00052,-0.00014,0.00044,0.00042,3,25
13752,-7e-05,1e-05,-0.00012,-0.00015,-0.00052,-0.00014,0.00044,0.00042,3,25
13753,-7e-05,1e-05,-0.00012,-0.00015,-0.00052,-0.00014,0.00044,0.00042,3,25
13754,-7e-05,1e-05,-0.00012,-0.00015,-0.00052,-0.00014,0.00044,0.00042,3,25
13755,-7e-05,1e-05,-0.00012,-0.00015,-0.00052,-0.00014,0.00044,0.00042,3,25
13756,-7e-05,1e-05,-0.00012,-0.00015,-0.00052,-0.00014,0.00044,0.00042,3,25
13758,0,0.00016,-8e-05,-0.00038,-0.00056,1e-05,-0.00033,-0.0004,3,25
13759,0.00025,-0.00011,7e-05,0.00037,0.00014,-0.00015,-1e-05,-0.00011,3,25
13760,0.00025,-0.00011,7e-05,0.00037,0.00014,-0.00015,-1e-05,-0.00011,3,25
13761,0.00025,-0.00011,7e-05,0.00037,0.00014,-0.00015,-1e-05,-0.00011,3,25
13762,0.00025,-0.00011,7e-05,0.00037,0.00014,-0.00015,-1e-05,-0.00011,3,25
13763,0.00025,-0.00011,7e-05,0.00037,0.00014,-0.00015,-1e-05,-0.00011,3,25
13764,0.00025,-0.00011,7e-05,0.00037,0.00014,-0.00015,-1e-05,-0.00011,3,25
13765,0.00025,-0.00011,7e-05,0.00037,0.00014,-0.00015,-1e-05,-0.00011,3,25
13766,0.00025,-0.00011,7e-05,0.00037,0.00014,-0.00015,-1e-05,-0.00011,3,25
13767,0.00025,-0.00011,7e-05,0.00037,0.00014,-0.00015,-1e-05,-0.00011,3,25
13768,0.00025,-0.00011,7e-05,0.00037,0.00014,-0.00015,-1e-05,-0.00011,3,25
13769,0.00025,-0.00011,7e-05,0.00037,0.00014,-0.00015,-1e-05,-0.00011,3,25
13770,0.00025,-0.00011,7e-05,0.00037,0.00014,-0.00015,-1e-05,-0.00011,3,25
13771,0.00025,-0.00011,7e-05,0.00037,0.00014,-0.00015,-1e-05,-0.00011,3,25
13772,0.00025,-0.00011,7e-05,0.00037,0.00014,-0.00015,-1e-05,-0.00011,3,25
13773,0.00025,-0.00011,7e-05,0.00037,0.00014,-0.00015,-1e-05,-0.00011,3,25
13774,0.00025,-0.00011,7e-05,0.00037,0.00014,-0.00015,-1e-05,-0.00011,3,25
13775,0.00025,-0.00011,7e-05,0.00037,0.00014,-0.00015,-1e-05,-0.00011,3,25
13776,0.00025,-0.00011,7e-05,0.00037,0.00014,-0.00015,-1e-05,-0.00011,3,25
13777,0.00025,-0.00011,7e-05,0.00037,0.00014,-0.00015,-1e-05,-0.00011,3,25
13778,0.00025,-0.00011,7e-05,0.00037,0.00014,-0.00015,-1e-05,-0.00011,3,25
13779,0.00025,-0.00011,7e-05,0.00037,0.00014,-0.00015,-1e-05,-0.00011,3,25
13780,0.00024,3e-05,0,-6e-05,1e-05,0.00021,-0.00034,0.00024,3,25
13781,0.00024,3e-05,0,-6e-05,1e-05,0.00021,-0.00034,0.00024,3,25
13782,2e-05,-4e-05,-7e-05,-0.00031,-0.00028,-0.00022,-0.00014,-9e-05,3,25
13783,2e-05,-4e-05,-7e-05,-0.00031,-0.00028,-0.00022,-0.00014,-9e-05,3,25
13784,2e-05,-4e-05,-7e-05,-0.00031,-0.00028,-0.00022,-0.00014,-9e-05,3,25
13785,2e-05,-4e-05,-7e-05,-0.00031,-0.00028,-0.00022,-0.00014,-9e-05,3,25
13786,2e-05,-4e-05,-7e-05,-0.00031,-0.00028,-0.00022,-0.00014,-9e-05,3,25
13787,2e-05,-4e-05,-7e-05,-0.00031,-0.00028,-0.00022,-0.00014,-9e-05,3,25
13788,2e-05,-4e-05,-7e-05,-0.00031,-0.00028,-0.00022,-0.00014,-9e-05,3,25
13789,2e-05,-4e-05,-7e-05,-0.00031,-0.00028,-0.00022,-0.00014,-9e-05,3,25
13790,2e-05,-4e-05,-7e-05,-0.00031,-0.00028,-0.00022,-0.00014,-9e-05,3,25
13791,2e-05,-4e-05,-7e-05,-0.00031,-0.00028,-0.00022,-0.00014,-9e-05,3,25
13792,2e-05,-4e-05,-7e-05,-0.00031,-0.00028,-0.00022,-0.00014,-9e-05,3,25
13793,2e-05,-4e-05,-7e-05,-0.00031,-0.00028,-0.00022,-0.00014,-9e-05,3,25
13794,5e-05,-4e-05,0,0.00026,7e-05,0.00016,0.00014,0.0003,3,25
13795,5e-05,-4e-05,0,0.00026,7e-05,0.00016,0.00014,0.0003,3,25
13796,5e-05,-4e-05,0,0.00026,7e-05,0.00016,0.00014,0.0003,3,25
13797,5e-05,-4e-05,0,0.00026,7e-05,0.00016,0.00014,0.0003,3,25
13798,5e-05,-4e-05,0,0.00026,7e-05,0.00016,0.00014,0.0003,3,25
13799,5e-05,-4e-05,0,0.00026,7e-05,0.00016,0.00014,0.0003,3,25
13800,5e-05,-4e-05,0,0.00026,7e-05,0.00016,0.00014,0.0003,3,25
13801,5e-05,-4e-05,0,0.00026,7e-05,0.00016,0.00014,0.0003,3,25
13802,5e-05,-4e-05,0,0.00026,7e-05,0.00016,0.00014,0.0003,3,25
13804,-8e-05,0.00013,9e-05,-0.00014,0.00013,8e-05,-0.00021,-0.00011,3,25
13805,-8e-05,0.00013,9e-05,-0.00014,0.00013,8e-05,-0.00021,-0.00011,3,25
13806,-8e-05,0.00013,9e-05,-0.00014,0.00013,8e-05,-0.00021,-0.00011,3,25
13807,-8e-05,0.00013,9e-05,-0.00014,0.00013,8e-05,-0.00021,-0.00011,3,25
13808,-8e-05,0.00013,9e-05,-0.00014,0.00013,8e-05,-0.00021,-0.00011,3,25
13809,-8e-05,0.00013,9e-05,-0.00014,0.00013,8e-05,-0.00021,-0.00011,3,25
13810,-8e-05,0.00013,9e-05,-0.00014,0.00013,8e-05,-0.00021,-0.00011,3,25
13811,-8e-05,0.00013,9e-05,-0.00014,0.00013,8e-05,-0.00021,-0.00011,3,25
13812,-8e-05,0.00013,9e-05,-0.00014,0.00013,8e-05,-0.00021,-0.00011,3,25
13813,-8e-05,0.00013,9e-05,-0.00014,0.00013,8e-05,-0.00021,-0.00011,3,25
13814,-8e-05,0.00013,9e-05,-0.00014,0.00013,8e-05,-0.00021,-0.00011,3,25
13815,-8e-05,0.00013,9e-05,-0.00014,0.00013,8e-05,-0.00021,-0.00011,3,25
13816,-8e-05,0.00013,9e-05,-0.00014,0.00013,8e-05,-0.00021,-0.00011,3,25
13817,-8e-05,0.00013,9e-05,-0.00014,0.00013,8e-05,-0.00021,-0.00011,3,25
13818,-8e-05,-9e-05,-0.00018,-0.00036,-0.00043,0.00024,-0.0001,0.00014,3,25
13819,-2e-05,-0.0002,-3e-05,0.0004,0.00082,0.00036,-4e-05,-0.00011,3,25
13820,-2e-05,-0.0002,-3e-05,0.0004,0.00082,0.00036,-4e-05,-0.00011,3,25
13821,-2e-05,-0.0002,-3e-05,0.0004,0.00082,0.00036,-4e-05,-0.00011,3,25
13822,-2e-05,-0.0002,-3e-05,0.0004,0.00082,0.00036,-4e-05,-0.00011,3,25
13823,-2e-05,-0.0002,-3e-05,0.0004,0.00082,0.00036,-4e-05,-0.00011,3,25
13824,-2e-05,-0.0002,-3e-05,0.0004,0.00082,0.00036,-4e-05,-0.00011,3,25
13825,-2e-05,-0.0002,-3e-05,0.0004,0.00082,0.00036,-4e-05,-0.00011,3,25
13826,-2e-05,-0.0002,-3e-05,0.0004,0.00082,0.00036,-4e-05,-0.00011,3,25
13827,-2e-05,-0.0002,-3e-05,0.0004,0.00082,0.00036,-4e-05,-0.00011,3,25
13828,-2e-05,-0.0002,-3e-05,0.0004,0.00082,0.00036,-4e-05,-0.00011,3,25
13829,-2e-05,-0.0002,-3e-05,0.0004,0.00082,0.00036,-4e-05,-0.00011,3,25
13830,-2e-05,-0.0002,-3e-05,0.0004,0.00082,0.00036,-4e-05,-0.00011,3,25
13831,-2e-05,-0.0002,-3e-05,0.0004,0.00082,0.00036,-4e-05,-0.00011,3,25
13832,-2e-05,-0.0002,-3e-05,0.0004,0.00082,0.00036,-4e-05,-0.00011,3,25
13833,-2e-05,-0.0002,-3e-05,0.0004,0.00082,0.00036,-4e-05,-0.00011,3,25
13834,-2e-05,-0.0002,-3e-05,0.0004,0.00082,0.00036,-4e-05,-0.00011,3,25
13835,-2e-05,-0.0002,-3e-05,0.0004,0.00082,0.00036,-4e-05,-0.00011,3,25
13836,-2e-05,-0.0002,-3e-05,0.0004,0.00082,0.00036,-4e-05,-0.00011,3,25
13837,-2e-05,-0.0002,-3e-05,0.0004,0.00082,0.00036,-4e-05,-0.00011,3,25
13838,-2e-05,-0.0002,-3e-05,0.0004,0.00082,0.00036,-4e-05,-0.00011,3,25
13839,-2e-05,-0.0002,-3e-05,0.0004,0.00082,0.00036,-4e-05,-0.00011,3,25
13840,-2e-05,-0.0002,-3e-05,0.0004,0.00082,0.00036,-4e-05,-0.00011,3,25
13841,0.00029,-0.00011,7e-05,0.00011,0.00024,0.00027,0.00057,0.00025,3,25
13842,-0.00054,-0.00041,-0.00015,-0.00033,-0.00057,-1e-05,-0.00015,-0.00025,3,25
13843,-0.00054,-0.00041,-0.00015,-0.00033,-0.00057,-1e-05,-0.00015,-0.00025,3,25
13844,-0.00054,-0.00041,-0.00015,-0.00033,-0.00057,-1e-05,-0.00015,-0.00025,3,25
13845,-0.00054,-0.00041,-0.00015,-0.00033,-0.00057,-1e-05,-0.00015,-0.00025,3,25
13846,-0.00054,-0.00041,-0.00015,-0.00033,-0.00057,-1e-05,-0.00015,-0.00025,3,25
13847,-0.00054,-0.00041,-0.00015,-0.00033,-0.00057,-1e-05,-0.00015,-0.00025,3,25
13848,-0.00054,-0.00041,-0.00015,-0.00033,-0.00057,-1e-05,-0.00015,-0.00025,3,25
13849,-0.00054,-0.00041,-0.00015,-0.00033,-0.00057,-1e-05,-0.00015,-0.00025,3,25
13851,-0.00054,-0.00041,-0.00015,-0.00033,-0.00057,-1e-05,-0.00015,-0.00025,3,25
13852,-0.00054,-0.00041,-0.00015,-0.00033,-0.00057,-1e-05,-0.00015,-0.00025,3,25
13853,-0.00054,-0.00041,-0.00015,-0.00033,-0.00057,-1e-05,-0.00015,-0.00025,3,25
13854,-0.00054,-0.00041,-0.00015,-0.00033,-0.00057,-1e-05,-0.00015,-0.00025,3,25
13855,-0.00016,7e-05,-6e-05,3e-05,0.00019,-0.00022,-0.00022,0.00034,3,25
13856,-0.00016,7e-05,-6e-05,3e-05,0.00019,-0.00022,-0.00022,0.00034,3,25
13857,0,-0.00019,-0.00018,-0.00048,-0.00034,-0.00026,0.00018,-5e-05,3,25
13858,0,-0.00019,-0.00018,-0.00048,-0.00034,-0.00026,0.00018,-5e-05,3,25
13859,0,-0.00019,-0.00018,-0.00048,-0.00034,-0.00026,0.00018,-5e-05,3,25
13860,0,-0.00019,-0.00018,-0.00048,-0.00034,-0.00026,0.00018,-5e-05,3,25
13861,0,-0.00019,-0.00018,-0.00048,-0.00034,-0.00026,0.00018,-5e-05,3,25
13862,0,-0.00019,-0.00018,-0.00048,-0.00034,-0.00026,0.00018,-5e-05,3,25
13863,0,-0.00019,-0.00018,-0.00048,-0.00034,-0.00026,0.00018,-5e-05,3,25
13864,0,-0.00019,-0.00018,-0.00048,-0.00034,-0.00026,0.00018,-5e-05,3,25
13865,0,-0.00019,-0.00018,-0.00048,-0.00034,-0.00026,0.00018,-5e-05,3,25
13866,0,-0.00019,-0.00018,-0.00048,-0.00034,-0.00026,0.00018,-5e-05,3,25
13867,0,-0.00019,-0.00018,-0.00048,-0.00034,-0.00026,0.00018,-5e-05,3,25
13868,0,-0.00019,-0.00018,-0.00048,-0.00034,-0.00026,0.00018,-5e-05,3,25
13869,0,-0.00019,-0.00018,-0.00048,-0.00034,-0.00026,0.00018,-5e-05,3,25
13870,0,-0.00019,-0.00018,-0.00048,-0.00034,-0.00026,0.00018,-5e-05,3,25
13871,0,-0.00019,-0.00018,-0.00048,-0.00034,-0.00026,0.00018,-5e-05,3,25
13872,0,-0.00019,-0.00018,-0.00048,-0.00034,-0.00026,0.00018,-5e-05,3,25
13873,0,-0.00019,-0.00018,-0.00048,-0.00034,-0.00026,0.00018,-5e-05,3,25
13874,0,-0.00019,-0.00018,-0.00048,-0.00034,-0.00026,0.00018,-5e-05,3,25
13875,0,-0.00019,-0.00018,-0.00048,-0.00034,-0.00026,0.00018,-5e-05,3,25
13876,0,-0.00019,-0.00018,-0.00048,-0.00034,-0.00026,0.00018,-5e-05,3,25
13877,0,-0.00019,-0.00018,-0.00048,-0.00034,-0.00026,0.00018,-5e-05,3,25
13878,-0.0002,-1e-05,3e-05,0.00016,0.00015,-0.00024,-0.00039,-0.00026,3,25
13879,0.0002,0.00027,3e-05,-4e-05,0,0.0002,-2e-05,0.00014,3,25
13880,0.0002,0.00027,3e-05,-4e-05,0,0.0002,-2e-05,0.00014,3,25
13881,0.0002,0.00027,3e-05,-4e-05,0,0.0002,-2e-05,0.00014,3,25
13882,0.0002,0.00027,3e-05,-4e-05,0,0.0002,-2e-05,0.00014,3,25
13883,0.0002,0.00027,3e-05,-4e-05,0,0.0002,-2e-05,0.00014,3,25
13884,0.0002,0.00027,3e-05,-4e-05,0,0.0002,-2e-05,0.00014,3,25
13885,0.0002,0.00027,3e-05,-4e-05,0,0.0002,-2e-05,0.00014,3,25
13886,0.0002,0.00027,3e-05,-4e-05,0,0.0002,-2e-05,0.00014,3,25
13887,0.0002,0.00027,3e-05,-4e-05,0,0.0002,-2e-05,0.00014,3,25
13888,0.0002,0.00027,3e-05,-4e-05,0,0.0002,-2e-05,0.00014,3,25
13889,0.0002,0.00027,3e-05,-4e-05,0,0.0002,-2e-05,0.00014,3,25
13890,0.0002,0.00027,3e-05,-4e-05,0,0.0002,-2e-05,0.00014,3,25
13891,0.0002,0.00027,3e-05,-4e-05,0,0.0002,-2e-05,0.00014,3,25
13892,0.0002,0.00027,3e-05,-4e-05,0,0.0002,-2e-05,0.00014,3,25
13893,0.0002,0.00027,3e-05,-4e-05,0,0.0002,-2e-05,0.00014,3,25
13894,0.0002,0.00027,3e-05,-4e-05,0,0.0002,-2e-05,0.00014,3,25
13895,0.0002,0.00027,3e-05,-4e-05,0,0.0002,-2e-05,0.00014,3,25
13896,0.0002,0.00027,3e-05,-4e-05,0,0.0002,-2e-05,0.00014,3,25
13898,0.0002,0.00027,3e-05,-4e-05,0,0.0002,-2e-05,0.00014,3,25
13899,0.0002,0.00027,3e-05,-4e-05,0,0.0002,-2e-05,0.00014,3,25
13900,-0.00028,3e-05,-7e-05,-9e-05,0.00031,0.0002,-0.00011,-0.0003,3,25
13901,-0.00028,3e-05,-7e-05,-9e-05,0.00031,0.0002,-0.00011,-0.0003,3,25
13902,0.0002,0.00015,6e-05,0.00016,0.00014,0.00046,-0.00018,-9e-05,3,25
13903,0.0002,0.00015,6e-05,0.00016,0.00014,0.00046,-0.00018,-9e-05,3,25
13904,0.0002,0.00015,6e-05,0.00016,0.00014,0.00046,-0.00018,-9e-05,3,25
13905,0.0002,0.00015,6e-05,0.00016,0.00014,0.00046,-0.00018,-9e-05,3,25
13906,0.0002,0.00015,6e-05,0.00016,0.00014,0.00046,-0.00018,-9e-05,3,25
13907,0.0002,0.00015,6e-05,0.00016,0.00014,0.00046,-0.00018,-9e-05,3,25
13908,0.0002,0.00015,6e-05,0.00016,0.00014,0.00046,-0.00018,-9e-05,3,25
13909,0.0002,0.00015,6e-05,0.00016,0.00014,0.00046,-0.00018,-9e-05,3,25
13910,0.0002,0.00015,6e-05,0.00016,0.00014,0.00046,-0.00018,-9e-05,3,25
13911,0.0002,0.00015,6e-05,0.00016,0.00014,0.00046,-0.00018,-9e-05,3,25
13912,0.0002,0.00015,6e-05,0.00016,0.00014,0.00046,-0.00018,-9e-05,3,25
13913,0.0002,0.00015,6e-05,0.00016,0.00014,0.00046,-0.00018,-9e-05,3,25
13914,0.0002,0.00015,6e-05,0.00016,0.00014,0.00046,-0.00018,-9e-05,3,25
13915,-4e-05,-0.0002,-6e-05,-0.00011,0.00017,-0.00017,-0.00017,0.00027,3,25
13916,-4e-05,-0.0002,-6e-05,-0.00011,0.00017,-0.00017,-0.00017,0.00027,3,25
13917,-4e-05,-0.0002,-6e-05,-0.00011,0.00017,-0.00017,-0.00017,0.00027,3,25
13918,-4e-05,-0.0002,-6e-05,-0.00011,0.00017,-0.00017,-0.00017,0.00027,3,25
13919,-4e-05,-0.0002,-6e-05,-0.00011,0.00017,-0.00017,-0.00017,0.00027,3,25
13920,-4e-05,-0.0002,-6e-05,-0.00011,0.00017,-0.00017,-0.00017,0.00027,3,25
13921,-4e-05,-0.0002,-6e-05,-0.00011,0.00017,-0.00017,-0.00017,0.00027,3,25
13922,-0.00051,-0.00015,-0.00012,-0.00032,-0.00059,-0.00046,0.00023,-1e-05,3,25
13923,-0.00051,-0.00015,-0.00012,-0.00032,-0.00059,-0.00046,0.00023,-1e-05,3,25
13924,-0.00051,-0.00015,-0.00012,-0.00032,-0.00059,-0.00046,0.00023,-1e-05,3,25
13925,-0.00051,-0.00015,-0.00012,-0.00032,-0.00059,-0.00046,0.00023,-1e-05,3,25
13926,-0.00051,-0.00015,-0.00012,-0.00032,-0.00059,-0.00046,0.00023,-1e-05,3,25
13927,-0.00051,-0.00015,-0.00012,-0.00032,-0.00059,-0.00046,0.00023,-1e-05,3,25
13928,-0.00051,-0.00015,-0.00012,-0.00032,-0.00059,-0.00046,0.00023,-1e-05,3,25
13929,-0.00051,-0.00015,-0.00012,-0.00032,-0.00059,-0.00046,0.00023,-1e-05,3,25
13930,-0.00051,-0.00015,-0.00012,-0.00032,-0.00059,-0.00046,0.00023,-1e-05,3,25
13931,-0.00051,-0.00015,-0.00012,-0.00032,-0.00059,-0.00046,0.00023,-1e-05,3,25
13932,-0.00051,-0.00015,-0.00012,-0.00032,-0.00059,-0.00046,0.00023,-1e-05,3,25
13933,-0.00051,-0.00015,-0.00012,-0.00032,-0.00059,-0.00046,0.00023,-1e-05,3,25
13934,-0.00051,-0.00015,-0.00012,-0.00032,-0.00059,-0.00046,0.00023,-1e-05,3,25
13935,-0.00051,-0.00015,-0.00012,-0.00032,-0.00059,-0.00046,0.00023,-1e-05,3,25
13936,-0.00051,-0.00015,-0.00012,-0.00032,-0.00059,-0.00046,0.00023,-1e-05,3,25
13937,4e-05,7e-05,-2e-05,-0.0002,-0.00038,0.00052,0.00014,0.00015,3,25
13939,0.00023,0.00019,0.00018,0.00037,0.00036,0.00072,0.00056,0.00046,3,25
13940,0.00023,0.00019,0.00018,0.00037,0.00036,0.00072,0.00056,0.00046,3,25
13941,0.00023,0.00019,0.00018,0.00037,0.00036,0.00072,0.00056,0.00046,3,25
13942,0.00023,0.00019,0.00018,0.00037,0.00036,0.00072,0.00056,0.00046,3,25
13943,-0.00021,-0.00061,-0.00023,-3e-05,-0.00025,-0.00026,-0.00031,-0.00068,3,25
13944,-0.00021,-0.00061,-0.00023,-3e-05,-0.00025,-0.00026,-0.00031,-0.00068,3,25
13945,0.00011,9e-05,4e-05,-4e-05,-0.00012,-3e-05,0.00025,0.00051,3,25
13946,0.00011,9e-05,4e-05,-4e-05,-0.00012,-3e-05,0.00025,0.00051,3,25
13947,0.00011,9e-05,4e-05,-4e-05,-0.00012,-3e-05,0.00025,0.00051,3,25
13948,0.00011,9e-05,4e-05,-4e-05,-0.00012,-3e-05,0.00025,0.00051,3,25
13949,0.00011,9e-05,4e-05,-4e-05,-0.00012,-3e-05,0.00025,0.00051,3,25
13950,0.00011,9e-05,4e-05,-4e-05,-0.00012,-3e-05,0.00025,0.00051,3,25
13951,0.00011,9e-05,4e-05,-4e-05,-0.00012,-3e-05,0.00025,0.00051,3,25
13952,0.00011,9e-05,4e-05,-4e-05,-0.00012,-3e-05,0.00025,0.00051,3,25
13953,0.00011,9e-05,4e-05,-4e-05,-0.00012,-3e-05,0.00025,0.00051,3,25
13954,0.00011,9e-05,4e-05,-4e-05,-0.00012,-3e-05,0.00025,0.00051,3,25
13955,0.00011,9e-05,4e-05,-4e-05,-0.00012,-3e-05,0.00025,0.00051,3,25
13956,0.00011,9e-05,4e-05,-4e-05,-0.00012,-3e-05,0.00025,0.00051,3,25
13957,0.00011,9e-05,4e-05,-4e-05,-0.00012,-3e-05,0.00025,0.00051,3,25
13958,0.00011,9e-05,4e-05,-4e-05,-0.00012,-3e-05,0.00025,0.00051,3,25
13959,0.00011,9e-05,4e-05,-4e-05,-0.00012,-3e-05,0.00025,0.00051,3,25
13960,0.00011,9e-05,4e-05,-4e-05,-0.00012,-3e-05,0.00025,0.00051,3,25
13961,0.00011,9e-05,4e-05,-4e-05,-0.00012,-3e-05,0.00025,0.00051,3,25
13962,0.00011,9e-05,4e-05,-4e-05,-0.00012,-3e-05,0.00025,0.00051,3,25
13963,0.00033,-8e-05,9e-05,0.00016,0.00055,0.00029,0.00042,-0.00014,3,25
13964,0.00033,-8e-05,9e-05,0.00016,0.00055,0.00029,0.00042,-0.00014,3,25
13965,0.00033,-8e-05,9e-05,0.00016,0.00055,0.00029,0.00042,-0.00014,3,25
13966,0.00033,-8e-05,9e-05,0.00016,0.00055,0.00029,0.00042,-0.00014,3,25
13967,0.00033,-8e-05,9e-05,0.00016,0.00055,0.00029,0.00042,-0.00014,3,25
13968,0.00033,-8e-05,9e-05,0.00016,0.00055,0.00029,0.00042,-0.00014,3,25
13969,0.00033,-8e-05,9e-05,0.00016,0.00055,0.00029,0.00042,-0.00014,3,25
13970,0.00033,-8e-05,9e-05,0.00016,0.00055,0.00029,0.00042,-0.00014,3,25
13971,0.00033,-8e-05,9e-05,0.00016,0.00055,0.00029,0.00042,-0.00014,3,25
13972,0.00033,-8e-05,9e-05,0.00016,0.00055,0.00029,0.00042,-0.00014,3,25
13973,0.00033,-8e-05,9e-05,0.00016,0.00055,0.00029,0.00042,-0.00014,3,25
13974,0.00033,-8e-05,9e-05,0.00016,0.00055,0.00029,0.00042,-0.00014,3,25
13975,2e-05,-0.00014,6e-05,0.00036,-3e-05,-0.00018,7e-05,-0.00017,3,25
13976,2e-05,-0.00014,6e-05,0.00036,-3e-05,-0.00018,7e-05,-0.00017,3,25
13977,2e-05,-0.00014,6e-05,0.00036,-3e-05,-0.00018,7e-05,-0.00017,3,25
13978,2e-05,-0.00014,6e-05,0.00036,-3e-05,-0.00018,7e-05,-0.00017,3,25
13979,2e-05,-0.00014,6e-05,0.00036,-3e-05,-0.00018,7e-05,-0.00017,3,25
13980,2e-05,-0.00014,6e-05,0.00036,-3e-05,-0.00018,7e-05,-0.00017,3,25
13981,7e-05,3e-05,4e-05,-6e-05,-0.00019,-0.00032,-0.00044,0.00025,3,25
13982,7e-05,3e-05,4e-05,-6e-05,-0.00019,-0.00032,-0.00044,0.00025,3,25
13983,7e-05,3e-05,4e-05,-6e-05,-0.00019,-0.00032,-0.00044,0.00025,3,25
13984,7e-05,3e-05,4e-05,-6e-05,-0.00019,-0.00032,-0.00044,0.00025,3,25
13985,7e-05,3e-05,4e-05,-6e-05,-0.00019,-0.00032,-0.00044,0.00025,3,25
13986,7e-05,3e-05,4e-05,-6e-05,-0.00019,-0.00032,-0.00044,0.00025,3,25
13988,7e-05,3e-05,4e-05,-6e-05,-0.00019,-0.00032,-0.00044,0.00025,3,25
13989,7e-05,3e-05,4e-05,-6e-05,-0.00019,-0.00032,-0.00044,0.00025,3,25
13990,7e-05,3e-05,4e-05,-6e-05,-0.00019,-0.00032,-0.00044,0.00025,3,25
13991,7e-05,3e-05,4e-05,-6e-05,-0.00019,-0.00032,-0.00044,0.00025,3,25
13992,7e-05,3e-05,4e-05,-6e-05,-0.00019,-0.00032,-0.00044,0.00025,3,25
13993,7e-05,3e-05,4e-05,-6e-05,-0.00019,-0.00032,-0.00044,0.00025,3,25
13994,7e-05,3e-05,4e-05,-6e-05,-0.00019,-0.00032,-0.00044,0.00025,3,25
13995,7e-05,3e-05,4e-05,-6e-05,-0.00019,-0.00032,-0.00044,0.00025,3,25
13996,7e-05,3e-05,4e-05,-6e-05,-0.00019,-0.00032,-0.00044,0.00025,3,25
13997,7e-05,3e-05,4e-05,-6e-05,-0.00019,-0.00032,-0.00044,0.00025,3,25
13998,0,0.00017,-2e-05,-9e-05,0.0004,7e-05,-0.00021,0.00023,3,25
13999,0.00011,0.00013,5e-05,0.00015,0.00035,1e-05,-4e-05,-0.00021,3,25
14000,0.00011,0.00013,5e-05,0.00015,0.00035,1e-05,-4e-05,-0.00021,3,25
14001,0.00011,0.00013,5e-05,0.00015,0.00035,1e-05,-4e-05,-0.00021,3,25
14002,0.00011,0.00013,5e-05,0.00015,0.00035,1e-05,-4e-05,-0.00021,3,25
14003,0.00011,0.00013,5e-05,0.00015,0.00035,1e-05,-4e-05,-0.00021,3,25
14004,0.00011,0.00013,5e-05,0.00015,0.00035,1e-05,-4e-05,-0.00021,3,25
14005,0.00011,0.00013,5e-05,0.00015,0.00035,1e-05,-4e-05,-0.00021,3,25
14006,0.00011,0.00013,5e-05,0.00015,0.00035,1e-05,-4e-05,-0.00021,3,25
14007,0.00011,0.00013,5e-05,0.00015,0.00035,1e-05,-4e-05,-0.00021,3,25
14008,0.00011,0.00013,5e-05,0.00015,0.00035,1e-05,-4e-05,-0.00021,3,25
14009,0.00011,0.00013,5e-05,0.00015,0.00035,1e-05,-4e-05,-0.00021,3,25
14010,0.00011,0.00013,5e-05,0.00015,0.00035,1e-05,-4e-05,-0.00021,3,25
14011,0.00011,0.00013,5e-05,0.00015,0.00035,1e-05,-4e-05,-0.00021,3,25
14012,0.00011,0.00013,5e-05,0.00015,0.00035,1e-05,-4e-05,-0.00021,3,25
14013,0.00011,0.00013,5e-05,0.00015,0.00035,1e-05,-4e-05,-0.00021,3,25
14014,0.00011,0.00013,5e-05,0.00015,0.00035,1e-05,-4e-05,-0.00021,3,25
14015,0.00011,0.00013,5e-05,0.00015,0.00035,1e-05,-4e-05,-0.00021,3,25
14016,0.00011,0.00013,5e-05,0.00015,0.00035,1e-05,-4e-05,-0.00021,3,25
14017,0.00011,0.00013,5e-05,0.00015,0.00035,1e-05,-4e-05,-0.00021,3,25
14018,0.00011,0.00013,5e-05,0.00015,0.00035,1e-05,-4e-05,-0.00021,3,25
14019,0.00011,0.00013,5e-05,0.00015,0.00035,1e-05,-4e-05,-0.00021,3,25
14020,-0.00046,-0.0002,-6e-05,0.00026,0.00081,-6e-05,-3e-05,-0.00021,3,25
14021,-0.00046,-0.0002,-6e-05,0.00026,0.00081,-6e-05,-3e-05,-0.00021,3,25
14022,-3e-05,5e-05,0,1e-05,0.00027,0.00015,-0.00015,0.0003,3,25
14023,-3e-05,5e-05,0,1e-05,0.00027,0.00015,-0.00015,0.0003,3,25
14024,-3e-05,5e-05,0,1e-05,0.00027,0.00015,-0.00015,0.0003,3,25
14025,-3e-05,5e-05,0,1e-05,0.00027,0.00015,-0.00015,0.0003,3,25
14026,-3e-05,5e-05,0,1e-05,0.00027,0.00015,-0.00015,0.0003,3,25
14027,-3e-05,5e-05,0,1e-05,0.00027,0.00015,-0.00015,0.0003,3,25
14028,-3e-05,5e-05,0,1e-05,0.00027,0.00015,-0.00015,0.0003,3,25
14029,-3e-05,5e-05,0,1e-05,0.00027,0.00015,-0.00015,0.0003,3,25
14030,-3e-05,5e-05,0,1e-05,0.00027,0.00015,-0.00015,0.0003,3,25
14031,-3e-05,5e-05,0,1e-05,0.00027,0.00015,-0.00015,0.0003,3,25
14032,-3e-05,5e-05,0,1e-05,0.00027,0.00015,-0.00015,0.0003,3,25
14033,-3e-05,5e-05,0,1e-05,0.00027,0.00015,-0.00015,0.0003,3,25
14034,-3e-05,5e-05,0,1e-05,0.00027,0.00015,-0.00015,0.0003,3,25
14035,1e-05,-4e-05,-0.00013,-0.00027,0.00013,-0.00027,4e-05,-0.00028,3,25
14037,1e-05,-4e-05,-0.00013,-0.00027,0.00013,-0.00027,4e-05,-0.00028,3,25
14039,1e-05,-4e-05,-0.00013,-0.00027,0.00013,-0.00027,4e-05,-0.00028,3,25
