10089,1e-05,-1e-05,1e-05,4e-05,0.00022,0,-2e-05,-0.00017,3,27
10090,1e-05,-1e-05,1e-05,4e-05,0.00022,0,-2e-05,-0.00017,3,27
10091,1e-05,-1e-05,1e-05,4e-05,0.00022,0,-2e-05,-0.00017,3,27
10092,1e-05,-1e-05,1e-05,4e-05,0.00022,0,-2e-05,-0.00017,3,27
10093,1e-05,-1e-05,1e-05,4e-05,0.00022,0,-2e-05,-0.00017,3,27
10094,1e-05,-1e-05,1e-05,4e-05,0.00022,0,-2e-05,-0.00017,3,27
10095,1e-05,-1e-05,1e-05,4e-05,0.00022,0,-2e-05,-0.00017,3,27
10096,1e-05,-1e-05,1e-05,4e-05,0.00022,0,-2e-05,-0.00017,3,27
10097,1e-05,-1e-05,1e-05,4e-05,0.00022,0,-2e-05,-0.00017,3,27
10098,1e-05,-1e-05,1e-05,4e-05,0.00022,0,-2e-05,-0.00017,3,27
10099,1e-05,-1e-05,1e-05,4e-05,0.00022,0,-2e-05,-0.00017,3,27
10100,1e-05,-1e-05,1e-05,4e-05,0.00022,0,-2e-05,-0.00017,3,27
10101,1e-05,-1e-05,1e-05,4e-05,0.00022,0,-2e-05,-0.00017,3,27
10102,1e-05,-1e-05,1e-05,4e-05,0.00022,0,-2e-05,-0.00017,3,27
10103,1e-05,-1e-05,1e-05,4e-05,0.00022,0,-2e-05,-0.00017,3,27
10104,1e-05,-1e-05,1e-05,4e-05,0.00022,0,-2e-05,-0.00017,3,27
10105,1e-05,-1e-05,1e-05,4e-05,0.00022,0,-2e-05,-0.00017,3,27
10106,1e-05,-3e-05,-3e-05,1e-05,0.0001,0,4e-05,2e-05,3,27
10107,1e-05,-3e-05,-3e-05,1e-05,0.0001,0,4e-05,2e-05,3,27
10108,-5e-05,-2e-05,-2e-05,-4e-05,6e-05,0,2e-05,-0.00011,3,27
10109,-5e-05,-2e-05,-2e-05,-4e-05,6e-05,0,2e-05,-0.00011,3,27
10110,-5e-05,-2e-05,-2e-05,-4e-05,6e-05,0,2e-05,-0.00011,3,27
10111,-5e-05,-2e-05,-2e-05,-4e-05,6e-05,0,2e-05,-0.00011,3,27
10112,-5e-05,-2e-05,-2e-05,-4e-05,6e-05,0,2e-05,-0.00011,3,27
10113,-5e-05,-2e-05,-2e-05,-4e-05,6e-05,0,2e-05,-0.00011,3,27
10114,-5e-05,-2e-05,-2e-05,-4e-05,6e-05,0,2e-05,-0.00011,3,27
10115,-5e-05,-2e-05,-2e-05,-4e-05,6e-05,0,2e-05,-0.00011,3,27
10116,-5e-05,-2e-05,-2e-05,-4e-05,6e-05,0,2e-05,-0.00011,3,27
10117,-5e-05,-2e-05,-2e-05,-4e-05,6e-05,0,2e-05,-0.00011,3,27
10118,-5e-05,-2e-05,-2e-05,-4e-05,6e-05,0,2e-05,-0.00011,3,27
10119,-5e-05,-2e-05,-2e-05,-4e-05,6e-05,0,2e-05,-0.00011,3,27
10120,-5e-05,-2e-05,-2e-05,-4e-05,6e-05,0,2e-05,-0.00011,3,27
10121,1e-05,0,1e-05,-5e-05,-6e-05,-3e-05,2e-05,-0.00012,3,27
10122,1e-05,0,1e-05,-5e-05,-6e-05,-3e-05,2e-05,-0.00012,3,27
10123,1e-05,0,1e-05,-5e-05,-6e-05,-3e-05,2e-05,-0.00012,3,27
10124,1e-05,0,1e-05,-5e-05,-6e-05,-3e-05,2e-05,-0.00012,3,27
10125,1e-05,0,1e-05,-5e-05,-6e-05,-3e-05,2e-05,-0.00012,3,27
10126,1e-05,0,1e-05,-5e-05,-6e-05,-3e-05,2e-05,-0.00012,3,27
10127,1e-05,0,1e-05,-5e-05,-6e-05,-3e-05,2e-05,-0.00012,3,27
10128,3e-05,0,2e-05,2e-05,0.00019,-5e-05,-5e-05,4e-05,3,27
10129,3e-05,0,2e-05,2e-05,0.00019,-5e-05,-5e-05,4e-05,3,27
10130,3e-05,0,2e-05,2e-05,0.00019,-5e-05,-5e-05,4e-05,3,27
10131,3e-05,0,2e-05,2e-05,0.00019,-5e-05,-5e-05,4e-05,3,27
10132,3e-05,0,2e-05,2e-05,0.00019,-5e-05,-5e-05,4e-05,3,27
10133,3e-05,0,2e-05,2e-05,0.00019,-5e-05,-5e-05,4e-05,3,27
10134,3e-05,0,2e-05,2e-05,0.00019,-5e-05,-5e-05,4e-05,3,27
10135,3e-05,0,2e-05,2e-05,0.00019,-5e-05,-5e-05,4e-05,3,27
10136,3e-05,0,2e-05,2e-05,0.00019,-5e-05,-5e-05,4e-05,3,27
10139,3e-05,0,2e-05,2e-05,0.00019,-5e-05,-5e-05,4e-05,3,27
10140,3e-05,0,2e-05,2e-05,0.00019,-5e-05,-5e-05,4e-05,3,27
10141,3e-05,0,2e-05,2e-05,0.00019,-5e-05,-5e-05,4e-05,3,27
10142,3e-05,0,2e-05,2e-05,0.00019,-5e-05,-5e-05,4e-05,3,27
10143,5e-05,-1e-05,-3e-05,-2e-05,-4e-05,5e-05,5e-05,-0.0001,3,27
10144,1e-05,-1e-05,-2e-05,-5e-05,-0.00028,-3e-05,-7e-05,-5e-05,3,27
10145,1e-05,-1e-05,-2e-05,-5e-05,-0.00028,-3e-05,-7e-05,-5e-05,3,27
10146,1e-05,-1e-05,-2e-05,-5e-05,-0.00028,-3e-05,-7e-05,-5e-05,3,27
10147,1e-05,-1e-05,-2e-05,-5e-05,-0.00028,-3e-05,-7e-05,-5e-05,3,27
10148,1e-05,-1e-05,-2e-05,-5e-05,-0.00028,-3e-05,-7e-05,-5e-05,3,27
10149,1e-05,-1e-05,-2e-05,-5e-05,-0.00028,-3e-05,-7e-05,-5e-05,3,27
10150,1e-05,-1e-05,-2e-05,-5e-05,-0.00028,-3e-05,-7e-05,-5e-05,3,27
10151,1e-05,-1e-05,-2e-05,-5e-05,-0.00028,-3e-05,-7e-05,-5e-05,3,27
10152,1e-05,-1e-05,-2e-05,-5e-05,-0.00028,-3e-05,-7e-05,-5e-05,3,27
10153,1e-05,-1e-05,-2e-05,-5e-05,-0.00028,-3e-05,-7e-05,-5e-05,3,27
10154,1e-05,-1e-05,-2e-05,-5e-05,-0.00028,-3e-05,-7e-05,-5e-05,3,27
10155,1e-05,-1e-05,-2e-05,-5e-05,-0.00028,-3e-05,-7e-05,-5e-05,3,27
10156,1e-05,-1e-05,-2e-05,-5e-05,-0.00028,-3e-05,-7e-05,-5e-05,3,27
10157,1e-05,-1e-05,-2e-05,-5e-05,-0.00028,-3e-05,-7e-05,-5e-05,3,27
10158,1e-05,-1e-05,-2e-05,-5e-05,-0.00028,-3e-05,-7e-05,-5e-05,3,27
10159,1e-05,-1e-05,-2e-05,-5e-05,-0.00028,-3e-05,-7e-05,-5e-05,3,27
10160,1e-05,-1e-05,-2e-05,-5e-05,-0.00028,-3e-05,-7e-05,-5e-05,3,27
10161,1e-05,-1e-05,-2e-05,-5e-05,-0.00028,-3e-05,-7e-05,-5e-05,3,27
10162,1e-05,-1e-05,-2e-05,-5e-05,-0.00028,-3e-05,-7e-05,-5e-05,3,27
10163,1e-05,-1e-05,-2e-05,-5e-05,-0.00028,-3e-05,-7e-05,-5e-05,3,27
10164,1e-05,-1e-05,-2e-05,-5e-05,-0.00028,-3e-05,-7e-05,-5e-05,3,27
10165,1e-05,-1e-05,-2e-05,-5e-05,-0.00028,-3e-05,-7e-05,-5e-05,3,27
10166,1e-05,-2e-05,-3e-05,-5e-05,-3e-05,-4e-05,-4e-05,-0.00015,3,27
10167,1e-05,-2e-05,-3e-05,-5e-05,-3e-05,-4e-05,-4e-05,-0.00015,3,27
10168,1e-05,-2e-05,-3e-05,-5e-05,-3e-05,-4e-05,-4e-05,-0.00015,3,27
10169,1e-05,-2e-05,-3e-05,-5e-05,-3e-05,-4e-05,-4e-05,-0.00015,3,27
10170,1e-05,-2e-05,-3e-05,-5e-05,-3e-05,-4e-05,-4e-05,-0.00015,3,27
10171,1e-05,-2e-05,-3e-05,-5e-05,-3e-05,-4e-05,-4e-05,-0.00015,3,27
10172,1e-05,-2e-05,-3e-05,-5e-05,-3e-05,-4e-05,-4e-05,-0.00015,3,27
10173,1e-05,-2e-05,-3e-05,-5e-05,-3e-05,-4e-05,-4e-05,-0.00015,3,27
10174,1e-05,-2e-05,-3e-05,-5e-05,-3e-05,-4e-05,-4e-05,-0.00015,3,27
10175,1e-05,-2e-05,-3e-05,-5e-05,-3e-05,-4e-05,-4e-05,-0.00015,3,27
10176,1e-05,-2e-05,-3e-05,-5e-05,-3e-05,-4e-05,-4e-05,-0.00015,3,27
10177,1e-05,-2e-05,-3e-05,-5e-05,-3e-05,-4e-05,-4e-05,-0.00015,3,27
10178,1e-05,-2e-05,-3e-05,-5e-05,-3e-05,-4e-05,-4e-05,-0.00015,3,27
10179,1e-05,-2e-05,-3e-05,-5e-05,-3e-05,-4e-05,-4e-05,-0.00015,3,27
10180,0,0,-4e-05,-6e-05,-0.00039,-0.00011,-6e-05,-0.00019,3,27
10181,0,0,-4e-05,-6e-05,-0.00039,-0.00011,-6e-05,-0.00019,3,27
10182,0,0,-4e-05,-6e-05,-0.00039,-0.00011,-6e-05,-0.00019,3,27
10183,0,0,-4e-05,-6e-05,-0.00039,-0.00011,-6e-05,-0.00019,3,27
10184,0,0,-4e-05,-6e-05,-0.00039,-0.00011,-6e-05,-0.00019,3,27
10185,0,0,-4e-05,-6e-05,-0.00039,-0.00011,-6e-05,-0.00019,3,27
10186,0,0,-4e-05,-6e-05,-0.00039,-0.00011,-6e-05,-0.00019,3,27
10188,0,-1e-05,-1e-05,-2e-05,1e-05,6e-05,5e-05,0.00013,3,27
10189,0,-1e-05,-1e-05,-2e-05,1e-05,6e-05,5e-05,0.00013,3,27
10190,0,-1e-05,-1e-05,-2e-05,1e-05,6e-05,5e-05,0.00013,3,27
10191,0,-1e-05,-1e-05,-2e-05,1e-05,6e-05,5e-05,0.00013,3,27
10192,0,-1e-05,-1e-05,-2e-05,1e-05,6e-05,5e-05,0.00013,3,27
10193,0,-1e-05,-1e-05,-2e-05,1e-05,6e-05,5e-05,0.00013,3,27
10194,0,-1e-05,-1e-05,-2e-05,1e-05,6e-05,5e-05,0.00013,3,27
10195,0,-1e-05,-1e-05,-2e-05,1e-05,6e-05,5e-05,0.00013,3,27
10196,0,-1e-05,-1e-05,-2e-05,1e-05,6e-05,5e-05,0.00013,3,27
10197,0,-1e-05,-1e-05,-2e-05,1e-05,6e-05,5e-05,0.00013,3,27
10198,0,-1e-05,-1e-05,-2e-05,1e-05,6e-05,5e-05,0.00013,3,27
10199,0,-1e-05,-1e-05,-2e-05,1e-05,6e-05,5e-05,0.00013,3,27
10200,0,-1e-05,-1e-05,-2e-05,1e-05,6e-05,5e-05,0.00013,3,27
10201,0,-1e-05,-1e-05,-2e-05,1e-05,6e-05,5e-05,0.00013,3,27
10202,0,-1e-05,-1e-05,-2e-05,1e-05,6e-05,5e-05,0.00013,3,27
10203,-5e-05,-3e-05,1e-05,0,5e-05,8e-05,6e-05,2e-05,3,27
10204,-5e-05,-3e-05,1e-05,0,5e-05,8e-05,6e-05,2e-05,3,27
10205,1e-05,-1e-05,-1e-05,1e-05,-6e-05,8e-05,5e-05,4e-05,3,27
10206,1e-05,-1e-05,-1e-05,1e-05,-6e-05,8e-05,5e-05,4e-05,3,27
10207,1e-05,-1e-05,-1e-05,1e-05,-6e-05,8e-05,5e-05,4e-05,3,27
10208,1e-05,-1e-05,-1e-05,1e-05,-6e-05,8e-05,5e-05,4e-05,3,27
10209,1e-05,-1e-05,-1e-05,1e-05,-6e-05,8e-05,5e-05,4e-05,3,27
10210,1e-05,-1e-05,-1e-05,1e-05,-6e-05,8e-05,5e-05,4e-05,3,27
10211,1e-05,-1e-05,-1e-05,1e-05,-6e-05,8e-05,5e-05,4e-05,3,27
10212,1e-05,-1e-05,-1e-05,1e-05,-6e-05,8e-05,5e-05,4e-05,3,27
10213,1e-05,-1e-05,-1e-05,1e-05,-6e-05,8e-05,5e-05,4e-05,3,27
10214,1e-05,-1e-05,-1e-05,1e-05,-6e-05,8e-05,5e-05,4e-05,3,27
10215,1e-05,-1e-05,-1e-05,1e-05,-6e-05,8e-05,5e-05,4e-05,3,27
10216,1e-05,-1e-05,-1e-05,1e-05,-6e-05,8e-05,5e-05,4e-05,3,27
10217,1e-05,-1e-05,-1e-05,1e-05,-6e-05,8e-05,5e-05,4e-05,3,27
10218,1e-05,-1e-05,-1e-05,1e-05,-6e-05,8e-05,5e-05,4e-05,3,27
10219,1e-05,-1e-05,-1e-05,1e-05,-6e-05,8e-05,5e-05,4e-05,3,27
10220,1e-05,-1e-05,-1e-05,1e-05,-6e-05,8e-05,5e-05,4e-05,3,27
10221,1e-05,-1e-05,-1e-05,1e-05,-6e-05,8e-05,5e-05,4e-05,3,27
10222,1e-05,-1e-05,-1e-05,1e-05,-6e-05,8e-05,5e-05,4e-05,3,27
10223,1e-05,-1e-05,-1e-05,1e-05,-6e-05,8e-05,5e-05,4e-05,3,27
10224,1e-05,-1e-05,-1e-05,1e-05,-6e-05,8e-05,5e-05,4e-05,3,27
10225,1e-05,-1e-05,-1e-05,1e-05,-6e-05,8e-05,5e-05,4e-05,3,27
10226,-3e-05,-1e-05,-1e-05,0,0.0001,2e-05,-6e-05,0.00036,3,27
10227,-3e-05,-1e-05,-1e-05,0,0.0001,2e-05,-6e-05,0.00036,3,27
10228,-3e-05,-1e-05,-1e-05,0,0.0001,2e-05,-6e-05,0.00036,3,27
10229,-3e-05,-1e-05,-1e-05,0,0.0001,2e-05,-6e-05,0.00036,3,27
10230,-3e-05,-1e-05,-1e-05,0,0.0001,2e-05,-6e-05,0.00036,3,27
10231,-3e-05,-1e-05,-1e-05,0,0.0001,2e-05,-6e-05,0.00036,3,27
10232,-3e-05,-1e-05,-1e-05,0,0.0001,2e-05,-6e-05,0.00036,3,27
10233,-3e-05,-1e-05,-1e-05,0,0.0001,2e-05,-6e-05,0.00036,3,27
10234,-3e-05,-1e-05,-1e-05,0,0.0001,2e-05,-6e-05,0.00036,3,27
10235,-3e-05,-1e-05,-1e-05,0,0.0001,2e-05,-6e-05,0.00036,3,27
10236,-3e-05,-1e-05,-1e-05,0,0.0001,2e-05,-6e-05,0.00036,3,27
10239,-3e-05,-1e-05,-1e-05,0,0.0001,2e-05,-6e-05,0.00036,3,27
10240,-3e-05,-2e-05,-2e-05,-5e-05,-0.00025,-5e-05,-5e-05,2e-05,3,27
10241,-3e-05,-2e-05,-2e-05,-5e-05,-0.00025,-5e-05,-5e-05,2e-05,3,27
10242,-3e-05,-2e-05,-2e-05,-5e-05,-0.00025,-5e-05,-5e-05,2e-05,3,27
10243,-3e-05,-2e-05,-2e-05,-5e-05,-0.00025,-5e-05,-5e-05,2e-05,3,27
10244,-3e-05,-2e-05,-2e-05,-5e-05,-0.00025,-5e-05,-5e-05,2e-05,3,27
10245,-3e-05,-2e-05,-2e-05,-5e-05,-0.00025,-5e-05,-5e-05,2e-05,3,27
10246,-3e-05,-2e-05,-2e-05,-5e-05,-0.00025,-5e-05,-5e-05,2e-05,3,27
10247,-3e-05,-2e-05,-2e-05,-5e-05,-0.00025,-5e-05,-5e-05,2e-05,3,27
10248,-4e-05,2e-05,1e-05,3e-05,9e-05,2e-05,4e-05,0.00011,3,27
10249,-4e-05,2e-05,1e-05,3e-05,9e-05,2e-05,4e-05,0.00011,3,27
10250,-4e-05,2e-05,1e-05,3e-05,9e-05,2e-05,4e-05,0.00011,3,27
10251,-4e-05,2e-05,1e-05,3e-05,9e-05,2e-05,4e-05,0.00011,3,27
10252,-4e-05,2e-05,1e-05,3e-05,9e-05,2e-05,4e-05,0.00011,3,27
10253,-4e-05,2e-05,1e-05,3e-05,9e-05,2e-05,4e-05,0.00011,3,27
10254,-4e-05,2e-05,1e-05,3e-05,9e-05,2e-05,4e-05,0.00011,3,27
10255,-4e-05,2e-05,1e-05,3e-05,9e-05,2e-05,4e-05,0.00011,3,27
10256,-4e-05,2e-05,1e-05,3e-05,9e-05,2e-05,4e-05,0.00011,3,27
10257,-4e-05,2e-05,1e-05,3e-05,9e-05,2e-05,4e-05,0.00011,3,27
10258,-4e-05,2e-05,1e-05,3e-05,9e-05,2e-05,4e-05,0.00011,3,27
10259,-4e-05,2e-05,1e-05,3e-05,9e-05,2e-05,4e-05,0.00011,3,27
10260,-4e-05,2e-05,1e-05,3e-05,9e-05,2e-05,4e-05,0.00011,3,27
10261,-4e-05,2e-05,1e-05,3e-05,9e-05,2e-05,4e-05,0.00011,3,27
10262,-4e-05,2e-05,1e-05,3e-05,9e-05,2e-05,4e-05,0.00011,3,27
10263,-3e-05,-3e-05,-4e-05,-5e-05,-3e-05,-2e-05,-2e-05,6e-05,3,27
10264,-2e-05,0,1e-05,-4e-05,-6e-05,-5e-05,-2e-05,-9e-05,3,27
10265,-2e-05,0,1e-05,-4e-05,-6e-05,-5e-05,-2e-05,-9e-05,3,27
10266,-2e-05,0,1e-05,-4e-05,-6e-05,-5e-05,-2e-05,-9e-05,3,27
10267,-2e-05,0,1e-05,-4e-05,-6e-05,-5e-05,-2e-05,-9e-05,3,27
10268,-2e-05,0,1e-05,-4e-05,-6e-05,-5e-05,-2e-05,-9e-05,3,27
10269,-2e-05,0,1e-05,-4e-05,-6e-05,-5e-05,-2e-05,-9e-05,3,27
10270,-2e-05,0,1e-05,-4e-05,-6e-05,-5e-05,-2e-05,-9e-05,3,27
10271,-2e-05,0,1e-05,-4e-05,-6e-05,-5e-05,-2e-05,-9e-05,3,27
10272,-2e-05,0,1e-05,-4e-05,-6e-05,-5e-05,-2e-05,-9e-05,3,27
10273,-2e-05,0,1e-05,-4e-05,-6e-05,-5e-05,-2e-05,-9e-05,3,27
10274,-2e-05,0,1e-05,-4e-05,-6e-05,-5e-05,-2e-05,-9e-05,3,27
10275,-2e-05,0,1e-05,-4e-05,-6e-05,-5e-05,-2e-05,-9e-05,3,27
10276,-2e-05,0,1e-05,-4e-05,-6e-05,-5e-05,-2e-05,-9e-05,3,27
10277,-2e-05,0,1e-05,-4e-05,-6e-05,-5e-05,-2e-05,-9e-05,3,27
10278,-2e-05,0,1e-05,-4e-05,-6e-05,-5e-05,-2e-05,-9e-05,3,27
10279,-2e-05,0,1e-05,-4e-05,-6e-05,-5e-05,-2e-05,-9e-05,3,27
10280,-2e-05,0,1e-05,-4e-05,-6e-05,-5e-05,-2e-05,-9e-05,3,27
10281,-2e-05,0,1e-05,-4e-05,-6e-05,-5e-05,-2e-05,-9e-05,3,27
10282,-2e-05,0,1e-05,-4e-05,-6e-05,-5e-05,-2e-05,-9e-05,3,27
10283,-2e-05,0,1e-05,-4e-05,-6e-05,-5e-05,-2e-05,-9e-05,3,27
10284,-2e-05,0,1e-05,-4e-05,-6e-05,-5e-05,-2e-05,-9e-05,3,27
10285,-2e-05,-1e-05,-1e-05,-3e-05,3e-05,-2e-05,0,5e-05,3,27
10286,-1e-05,-2e-05,-2e-05,2e-05,-0.00012,-7e-05,-6e-05,-0.00019,3,27
10289,-1e-05,-2e-05,-2e-05,2e-05,-0.00012,-7e-05,-6e-05,-0.00019,3,27
10290,-1e-05,-2e-05,-2e-05,2e-05,-0.00012,-7e-05,-6e-05,-0.00019,3,27
10291,-1e-05,-2e-05,-2e-05,2e-05,-0.00012,-7e-05,-6e-05,-0.00019,3,27
10292,-1e-05,-2e-05,-2e-05,2e-05,-0.00012,-7e-05,-6e-05,-0.00019,3,27
10293,-1e-05,-2e-05,-2e-05,2e-05,-0.00012,-7e-05,-6e-05,-0.00019,3,27
10294,-1e-05,-2e-05,-2e-05,2e-05,-0.00012,-7e-05,-6e-05,-0.00019,3,27
10295,-1e-05,-2e-05,-2e-05,2e-05,-0.00012,-7e-05,-6e-05,-0.00019,3,27
10296,-1e-05,-2e-05,-2e-05,2e-05,-0.00012,-7e-05,-6e-05,-0.00019,3,27
10297,-1e-05,-2e-05,-2e-05,2e-05,-0.00012,-7e-05,-6e-05,-0.00019,3,27
10298,-1e-05,-2e-05,-2e-05,2e-05,-0.00012,-7e-05,-6e-05,-0.00019,3,27
10299,-1e-05,-2e-05,-2e-05,2e-05,-0.00012,-7e-05,-6e-05,-0.00019,3,27
10300,-1e-05,-2e-05,-2e-05,2e-05,-0.00012,-7e-05,-6e-05,-0.00019,3,27
10301,-1e-05,-3e-05,-2e-05,-3e-05,-0.00015,-7e-05,-2e-05,-5e-05,3,27
10302,-1e-05,-3e-05,-2e-05,-3e-05,-0.00015,-7e-05,-2e-05,-5e-05,3,27
10303,-1e-05,-3e-05,-2e-05,-3e-05,-0.00015,-7e-05,-2e-05,-5e-05,3,27
10304,-1e-05,-3e-05,-2e-05,-3e-05,-0.00015,-7e-05,-2e-05,-5e-05,3,27
10305,-1e-05,-3e-05,-2e-05,-3e-05,-0.00015,-7e-05,-2e-05,-5e-05,3,27
10306,-1e-05,-3e-05,-2e-05,-3e-05,-0.00015,-7e-05,-2e-05,-5e-05,3,27
10307,-1e-05,-3e-05,-2e-05,-3e-05,-0.00015,-7e-05,-2e-05,-5e-05,3,27
10308,-1e-05,-3e-05,-2e-05,-3e-05,-0.00015,-7e-05,-2e-05,-5e-05,3,27
10309,-1e-05,-3e-05,-2e-05,-3e-05,-0.00015,-7e-05,-2e-05,-5e-05,3,27
10310,-1e-05,-3e-05,-2e-05,-3e-05,-0.00015,-7e-05,-2e-05,-5e-05,3,27
10311,-1e-05,-3e-05,-2e-05,-3e-05,-0.00015,-7e-05,-2e-05,-5e-05,3,27
10312,-1e-05,-3e-05,-2e-05,-3e-05,-0.00015,-7e-05,-2e-05,-5e-05,3,27
10313,-1e-05,-3e-05,-2e-05,-3e-05,-0.00015,-7e-05,-2e-05,-5e-05,3,27
10314,-1e-05,-3e-05,-2e-05,-3e-05,-0.00015,-7e-05,-2e-05,-5e-05,3,27
10315,-1e-05,-3e-05,-2e-05,-3e-05,-0.00015,-7e-05,-2e-05,-5e-05,3,27
10316,-1e-05,-3e-05,-2e-05,-3e-05,-0.00015,-7e-05,-2e-05,-5e-05,3,27
10317,-1e-05,-3e-05,-2e-05,-3e-05,-0.00015,-7e-05,-2e-05,-5e-05,3,27
10318,-1e-05,-3e-05,-2e-05,-3e-05,-0.00015,-7e-05,-2e-05,-5e-05,3,27
10319,-1e-05,-3e-05,-2e-05,-3e-05,-0.00015,-7e-05,-2e-05,-5e-05,3,27
10320,-1e-05,-3e-05,-2e-05,-3e-05,-0.00015,-7e-05,-2e-05,-5e-05,3,27
10321,-1e-05,-3e-05,-2e-05,-3e-05,-0.00015,-7e-05,-2e-05,-5e-05,3,27
10322,-1e-05,-3e-05,-2e-05,-3e-05,-0.00015,-7e-05,-2e-05,-5e-05,3,27
10323,-1e-05,-1e-05,-2e-05,-2e-05,-1e-05,0.00013,7e-05,4e-05,3,27
10324,2e-05,1e-05,-1e-05,6e-05,0.00031,4e-05,8e-05,3e-05,3,27
10325,2e-05,1e-05,-1e-05,6e-05,0.00031,4e-05,8e-05,3e-05,3,27
10326,2e-05,1e-05,-1e-05,6e-05,0.00031,4e-05,8e-05,3e-05,3,27
10327,2e-05,1e-05,-1e-05,6e-05,0.00031,4e-05,8e-05,3e-05,3,27
10328,2e-05,1e-05,-1e-05,6e-05,0.00031,4e-05,8e-05,3e-05,3,27
10329,2e-05,1e-05,-1e-05,6e-05,0.00031,4e-05,8e-05,3e-05,3,27
10330,2e-05,1e-05,-1e-05,6e-05,0.00031,4e-05,8e-05,3e-05,3,27
10331,2e-05,1e-05,-1e-05,6e-05,0.00031,4e-05,8e-05,3e-05,3,27
10332,2e-05,1e-05,-1e-05,6e-05,0.00031,4e-05,8e-05,3e-05,3,27
10333,2e-05,1e-05,-1e-05,6e-05,0.00031,4e-05,8e-05,3e-05,3,27
10334,2e-05,1e-05,-1e-05,6e-05,0.00031,4e-05,8e-05,3e-05,3,27
10335,2e-05,1e-05,-1e-05,6e-05,0.00031,4e-05,8e-05,3e-05,3,27
10336,2e-05,1e-05,-1e-05,6e-05,0.00031,4e-05,8e-05,3e-05,3,27
10339,2e-05,1e-05,-1e-05,6e-05,0.00031,4e-05,8e-05,3e-05,3,27
10340,2e-05,1e-05,-1e-05,6e-05,0.00031,4e-05,8e-05,3e-05,3,27
10341,2e-05,1e-05,-1e-05,6e-05,0.00031,4e-05,8e-05,3e-05,3,27
10342,2e-05,1e-05,-1e-05,6e-05,0.00031,4e-05,8e-05,3e-05,3,27
10343,2e-05,1e-05,-1e-05,6e-05,0.00031,4e-05,8e-05,3e-05,3,27
10344,2e-05,1e-05,-1e-05,6e-05,0.00031,4e-05,8e-05,3e-05,3,27
10345,2e-05,1e-05,-1e-05,6e-05,0.00031,4e-05,8e-05,3e-05,3,27
10346,3e-05,-3e-05,-2e-05,-5e-05,-0.00025,-0.0001,-2e-05,-5e-05,3,27
10347,3e-05,-3e-05,-2e-05,-5e-05,-0.00025,-0.0001,-2e-05,-5e-05,3,27
10348,3e-05,-3e-05,-2e-05,-5e-05,-0.00025,-0.0001,-2e-05,-5e-05,3,27
10349,3e-05,-3e-05,-2e-05,-5e-05,-0.00025,-0.0001,-2e-05,-5e-05,3,27
10350,3e-05,-3e-05,-2e-05,-5e-05,-0.00025,-0.0001,-2e-05,-5e-05,3,27
10351,3e-05,-3e-05,-2e-05,-5e-05,-0.00025,-0.0001,-2e-05,-5e-05,3,27
10352,3e-05,-3e-05,-2e-05,-5e-05,-0.00025,-0.0001,-2e-05,-5e-05,3,27
10353,3e-05,-3e-05,-2e-05,-5e-05,-0.00025,-0.0001,-2e-05,-5e-05,3,27
10354,3e-05,-3e-05,-2e-05,-5e-05,-0.00025,-0.0001,-2e-05,-5e-05,3,27
10355,3e-05,-3e-05,-2e-05,-5e-05,-0.00025,-0.0001,-2e-05,-5e-05,3,27
10356,3e-05,-3e-05,-2e-05,-5e-05,-0.00025,-0.0001,-2e-05,-5e-05,3,27
10357,3e-05,-3e-05,-2e-05,-5e-05,-0.00025,-0.0001,-2e-05,-5e-05,3,27
10358,3e-05,-3e-05,-2e-05,-5e-05,-0.00025,-0.0001,-2e-05,-5e-05,3,27
10359,3e-05,-3e-05,-2e-05,-5e-05,-0.00025,-0.0001,-2e-05,-5e-05,3,27
10360,1e-05,2e-05,0,4e-05,0.00018,1e-05,4e-05,-5e-05,3,27
10361,1e-05,2e-05,0,4e-05,0.00018,1e-05,4e-05,-5e-05,3,27
10362,1e-05,2e-05,0,4e-05,0.00018,1e-05,4e-05,-5e-05,3,27
10363,1e-05,2e-05,0,4e-05,0.00018,1e-05,4e-05,-5e-05,3,27
10364,1e-05,2e-05,0,4e-05,0.00018,1e-05,4e-05,-5e-05,3,27
10365,1e-05,2e-05,0,4e-05,0.00018,1e-05,4e-05,-5e-05,3,27
10366,1e-05,2e-05,0,4e-05,0.00018,1e-05,4e-05,-5e-05,3,27
10367,1e-05,2e-05,0,4e-05,0.00018,1e-05,4e-05,-5e-05,3,27
10368,1e-05,2e-05,0,4e-05,0.00018,1e-05,4e-05,-5e-05,3,27
10369,1e-05,2e-05,0,4e-05,0.00018,1e-05,4e-05,-5e-05,3,27
10370,-1e-05,2e-05,3e-05,-2e-05,0.00014,-4e-05,-3e-05,-7e-05,3,27
10371,-1e-05,2e-05,3e-05,-2e-05,0.00014,-4e-05,-3e-05,-7e-05,3,27
10372,0,0,2e-05,3e-05,4e-05,-7e-05,-0.00016,-2e-05,3,27
10373,0,-1e-05,-1e-05,-2e-05,1e-05,6e-05,5e-05,0.00013,3,27
10374,0,-1e-05,-1e-05,-2e-05,1e-05,6e-05,5e-05,0.00013,3,27
10375,0,-1e-05,-1e-05,-2e-05,1e-05,6e-05,5e-05,0.00013,3,27
10376,0,-1e-05,-1e-05,-2e-05,1e-05,6e-05,5e-05,0.00013,3,27
10377,-5e-05,-3e-05,1e-05,0,5e-05,8e-05,6e-05,2e-05,3,27
10378,-5e-05,-3e-05,1e-05,0,5e-05,8e-05,6e-05,2e-05,3,27
10379,-5e-05,-3e-05,1e-05,0,5e-05,8e-05,6e-05,2e-05,3,27
10380,-5e-05,-3e-05,1e-05,0,5e-05,8e-05,6e-05,2e-05,3,27
10381,-5e-05,-3e-05,1e-05,0,5e-05,8e-05,6e-05,2e-05,3,27
10382,-5e-05,-3e-05,1e-05,0,5e-05,8e-05,6e-05,2e-05,3,27
10383,1e-05,-1e-05,0,-5e-05,-0.00028,-0.00014,-7e-05,-2e-05,3,27
10384,3e-05,-3e-05,-1e-05,-2e-05,-2e-05,-8e-05,-0.00012,-2e-05,3,27
10385,3e-05,-3e-05,-1e-05,-2e-05,-2e-05,-8e-05,-0.00012,-2e-05,3,27
10386,3e-05,-3e-05,-1e-05,-2e-05,-2e-05,-8e-05,-0.00012,-2e-05,3,27
10389,3e-05,-3e-05,-1e-05,-2e-05,-2e-05,-8e-05,-0.00012,-2e-05,3,27
10390,3e-05,-3e-05,-1e-05,-2e-05,-2e-05,-8e-05,-0.00012,-2e-05,3,27
10391,3e-05,-3e-05,-1e-05,-2e-05,-2e-05,-8e-05,-0.00012,-2e-05,3,27
10392,3e-05,-3e-05,-1e-05,-2e-05,-2e-05,-8e-05,-0.00012,-2e-05,3,27
10393,3e-05,-3e-05,-1e-05,-2e-05,-2e-05,-8e-05,-0.00012,-2e-05,3,27
10394,3e-05,-3e-05,-1e-05,-2e-05,-2e-05,-8e-05,-0.00012,-2e-05,3,27
10395,3e-05,-3e-05,-1e-05,-2e-05,-2e-05,-8e-05,-0.00012,-2e-05,3,27
10396,3e-05,-3e-05,-1e-05,-2e-05,-2e-05,-8e-05,-0.00012,-2e-05,3,27
10397,3e-05,-3e-05,-1e-05,-2e-05,-2e-05,-8e-05,-0.00012,-2e-05,3,27
10398,3e-05,-3e-05,-1e-05,-2e-05,-2e-05,-8e-05,-0.00012,-2e-05,3,27
10399,3e-05,-3e-05,-1e-05,-2e-05,-2e-05,-8e-05,-0.00012,-2e-05,3,27
10400,3e-05,-3e-05,-1e-05,-2e-05,-2e-05,-8e-05,-0.00012,-2e-05,3,27
10401,3e-05,-3e-05,-1e-05,-2e-05,-2e-05,-8e-05,-0.00012,-2e-05,3,27
10402,3e-05,-3e-05,-1e-05,-2e-05,-2e-05,-8e-05,-0.00012,-2e-05,3,27
10403,3e-05,-3e-05,-1e-05,-2e-05,-2e-05,-8e-05,-0.00012,-2e-05,3,27
10404,3e-05,-3e-05,-1e-05,-2e-05,-2e-05,-8e-05,-0.00012,-2e-05,3,27
10405,3e-05,-3e-05,-1e-05,-2e-05,-2e-05,-8e-05,-0.00012,-2e-05,3,27
10406,-3e-05,-2e-05,-1e-05,-3e-05,3e-05,-6e-05,0,-2e-05,3,27
10407,-2e-05,-2e-05,-1e-05,3e-05,7e-05,0.0001,5e-05,2e-05,3,27
10408,-2e-05,-2e-05,-1e-05,3e-05,7e-05,0.0001,5e-05,2e-05,3,27
10409,-2e-05,-2e-05,-1e-05,3e-05,7e-05,0.0001,5e-05,2e-05,3,27
10410,-2e-05,-2e-05,-1e-05,3e-05,7e-05,0.0001,5e-05,2e-05,3,27
10411,-2e-05,-2e-05,-1e-05,3e-05,7e-05,0.0001,5e-05,2e-05,3,27
10412,-2e-05,-2e-05,-1e-05,3e-05,7e-05,0.0001,5e-05,2e-05,3,27
10413,-2e-05,-2e-05,-1e-05,3e-05,7e-05,0.0001,5e-05,2e-05,3,27
10414,-2e-05,-2e-05,-1e-05,3e-05,7e-05,0.0001,5e-05,2e-05,3,27
10415,-2e-05,-2e-05,-1e-05,3e-05,7e-05,0.0001,5e-05,2e-05,3,27
10416,-2e-05,-2e-05,-1e-05,3e-05,7e-05,0.0001,5e-05,2e-05,3,27
10417,-2e-05,-2e-05,-1e-05,3e-05,7e-05,0.0001,5e-05,2e-05,3,27
10418,-2e-05,-2e-05,-1e-05,3e-05,7e-05,0.0001,5e-05,2e-05,3,27
10419,-2e-05,-2e-05,-1e-05,3e-05,7e-05,0.0001,5e-05,2e-05,3,27
10420,-2e-05,-2e-05,-1e-05,3e-05,7e-05,0.0001,5e-05,2e-05,3,27
10421,-2e-05,1e-05,0,1e-05,3e-05,-6e-05,-1e-05,0.00014,3,27
10422,0,0,-2e-05,-3e-05,1e-05,-3e-05,-1e-05,-5e-05,3,27
10423,0,0,-2e-05,-3e-05,1e-05,-3e-05,-1e-05,-5e-05,3,27
10424,0,0,-2e-05,-3e-05,1e-05,-3e-05,-1e-05,-5e-05,3,27
10425,0,0,-2e-05,-3e-05,1e-05,-3e-05,-1e-05,-5e-05,3,27
10426,0,0,-2e-05,-3e-05,1e-05,-3e-05,-1e-05,-5e-05,3,27
10427,0,0,-2e-05,-3e-05,1e-05,-3e-05,-1e-05,-5e-05,3,27
10428,0,0,-2e-05,-3e-05,1e-05,-3e-05,-1e-05,-5e-05,3,27
10429,0,0,-2e-05,-3e-05,1e-05,-3e-05,-1e-05,-5e-05,3,27
10430,0,0,-2e-05,-3e-05,1e-05,-3e-05,-1e-05,-5e-05,3,27
10431,0,0,-2e-05,-3e-05,1e-05,-3e-05,-1e-05,-5e-05,3,27
10432,0,0,-2e-05,-3e-05,1e-05,-3e-05,-1e-05,-5e-05,3,27
10433,0,0,-2e-05,-3e-05,1e-05,-3e-05,-1e-05,-5e-05,3,27
10434,0,0,-2e-05,-3e-05,1e-05,-3e-05,-1e-05,-5e-05,3,27
10435,0,0,-2e-05,-3e-05,1e-05,-3e-05,-1e-05,-5e-05,3,27
10436,0,0,-2e-05,-3e-05,1e-05,-3e-05,-1e-05,-5e-05,3,27
10440,0,0,-2e-05,-3e-05,1e-05,-3e-05,-1e-05,-5e-05,3,27
10441,0,0,-2e-05,-3e-05,1e-05,-3e-05,-1e-05,-5e-05,3,27
10442,0,0,-2e-05,-3e-05,1e-05,-3e-05,-1e-05,-5e-05,3,27
10443,-2e-05,-3e-05,-1e-05,1e-05,0.00039,-3e-05,-5e-05,-5e-05,3,27
10444,-7e-05,-2e-05,-5e-05,-6e-05,-7e-05,-3e-05,-6e-05,1e-05,3,27
10445,-7e-05,-2e-05,-5e-05,-6e-05,-7e-05,-3e-05,-6e-05,1e-05,3,27
10446,-7e-05,-2e-05,-5e-05,-6e-05,-7e-05,-3e-05,-6e-05,1e-05,3,27
10447,-7e-05,-2e-05,-5e-05,-6e-05,-7e-05,-3e-05,-6e-05,1e-05,3,27
10448,-7e-05,-2e-05,-5e-05,-6e-05,-7e-05,-3e-05,-6e-05,1e-05,3,27
10449,-7e-05,-2e-05,-5e-05,-6e-05,-7e-05,-3e-05,-6e-05,1e-05,3,27
10450,-7e-05,-2e-05,-5e-05,-6e-05,-7e-05,-3e-05,-6e-05,1e-05,3,27
10451,-7e-05,-2e-05,-5e-05,-6e-05,-7e-05,-3e-05,-6e-05,1e-05,3,27
10452,-7e-05,-2e-05,-5e-05,-6e-05,-7e-05,-3e-05,-6e-05,1e-05,3,27
10453,-7e-05,-2e-05,-5e-05,-6e-05,-7e-05,-3e-05,-6e-05,1e-05,3,27
10454,-7e-05,-2e-05,-5e-05,-6e-05,-7e-05,-3e-05,-6e-05,1e-05,3,27
10455,-7e-05,-2e-05,-5e-05,-6e-05,-7e-05,-3e-05,-6e-05,1e-05,3,27
10456,-7e-05,-2e-05,-5e-05,-6e-05,-7e-05,-3e-05,-6e-05,1e-05,3,27
10457,-7e-05,-2e-05,-5e-05,-6e-05,-7e-05,-3e-05,-6e-05,1e-05,3,27
10458,-7e-05,-2e-05,-5e-05,-6e-05,-7e-05,-3e-05,-6e-05,1e-05,3,27
10459,-7e-05,-2e-05,-5e-05,-6e-05,-7e-05,-3e-05,-6e-05,1e-05,3,27
10460,-7e-05,-2e-05,-5e-05,-6e-05,-7e-05,-3e-05,-6e-05,1e-05,3,27
10461,-7e-05,-2e-05,-5e-05,-6e-05,-7e-05,-3e-05,-6e-05,1e-05,3,27
10462,-7e-05,-2e-05,-5e-05,-6e-05,-7e-05,-3e-05,-6e-05,1e-05,3,27
10463,-7e-05,-2e-05,-5e-05,-6e-05,-7e-05,-3e-05,-6e-05,1e-05,3,27
10464,-7e-05,-2e-05,-5e-05,-6e-05,-7e-05,-3e-05,-6e-05,1e-05,3,27
10465,-7e-05,-2e-05,-5e-05,-6e-05,-7e-05,-3e-05,-6e-05,1e-05,3,27
10466,-1e-05,-2e-05,-2e-05,0,4e-05,-5e-05,-7e-05,0.00012,3,27
10467,-1e-05,-2e-05,-2e-05,0,4e-05,-5e-05,-7e-05,0.00012,3,27
10468,-1e-05,-2e-05,-2e-05,0,4e-05,-5e-05,-7e-05,0.00012,3,27
10469,-1e-05,-2e-05,-2e-05,0,4e-05,-5e-05,-7e-05,0.00012,3,27
10470,-1e-05,-2e-05,-2e-05,0,4e-05,-5e-05,-7e-05,0.00012,3,27
10471,-1e-05,-2e-05,-2e-05,0,4e-05,-5e-05,-7e-05,0.00012,3,27
10472,-1e-05,-2e-05,-2e-05,0,4e-05,-5e-05,-7e-05,0.00012,3,27
10473,-1e-05,-2e-05,-2e-05,0,4e-05,-5e-05,-7e-05,0.00012,3,27
10474,-1e-05,-2e-05,-2e-05,0,4e-05,-5e-05,-7e-05,0.00012,3,27
10475,-1e-05,-2e-05,-2e-05,0,4e-05,-5e-05,-7e-05,0.00012,3,27
10476,-1e-05,-2e-05,-2e-05,0,4e-05,-5e-05,-7e-05,0.00012,3,27
10477,-1e-05,-2e-05,-2e-05,0,4e-05,-5e-05,-7e-05,0.00012,3,27
10478,-1e-05,-2e-05,-2e-05,0,4e-05,-5e-05,-7e-05,0.00012,3,27
10479,-1e-05,-2e-05,-2e-05,0,4e-05,-5e-05,-7e-05,0.00012,3,27
10480,8e-05,-2e-05,-2e-05,2e-05,-0.00025,0,-1e-05,-0.00014,3,27
10481,8e-05,-2e-05,-2e-05,2e-05,-0.00025,0,-1e-05,-0.00014,3,27
10482,8e-05,-2e-05,-2e-05,2e-05,-0.00025,0,-1e-05,-0.00014,3,27
10483,8e-05,-2e-05,-2e-05,2e-05,-0.00025,0,-1e-05,-0.00014,3,27
10484,8e-05,-2e-05,-2e-05,2e-05,-0.00025,0,-1e-05,-0.00014,3,27
10485,8e-05,-2e-05,-2e-05,2e-05,-0.00025,0,-1e-05,-0.00014,3,27
10486,8e-05,-2e-05,-2e-05,2e-05,-0.00025,0,-1e-05,-0.00014,3,27
10488,8e-05,-2e-05,-2e-05,2e-05,-0.00025,0,-1e-05,-0.00014,3,27
10489,-3e-05,-1e-05,-2e-05,-1e-05,0.00041,6e-05,2e-05,0.00018,3,27
10490,3e-05,1e-05,0,0,-2e-05,3e-05,2e-05,0,3,27
10491,3e-05,1e-05,0,0,-2e-05,3e-05,2e-05,0,3,27
10492,3e-05,1e-05,0,0,-2e-05,3e-05,2e-05,0,3,27
10493,3e-05,1e-05,0,0,-2e-05,3e-05,2e-05,0,3,27
10494,3e-05,1e-05,0,0,-2e-05,3e-05,2e-05,0,3,27
10495,3e-05,1e-05,0,0,-2e-05,3e-05,2e-05,0,3,27
10496,3e-05,1e-05,0,0,-2e-05,3e-05,2e-05,0,3,27
10497,3e-05,1e-05,0,0,-2e-05,3e-05,2e-05,0,3,27
10498,3e-05,1e-05,0,0,-2e-05,3e-05,2e-05,0,3,27
10499,3e-05,1e-05,0,0,-2e-05,3e-05,2e-05,0,3,27
10500,3e-05,1e-05,0,0,-2e-05,3e-05,2e-05,0,3,27
10501,3e-05,1e-05,0,0,-2e-05,3e-05,2e-05,0,3,27
10502,3e-05,1e-05,0,0,-2e-05,3e-05,2e-05,0,3,27
10503,-7e-05,-1e-05,-2e-05,-1e-05,-9e-05,-4e-05,2e-05,-3e-05,3,27
10504,-3e-05,-1e-05,0,-1e-05,-4e-05,-4e-05,3e-05,-6e-05,3,27
10505,-3e-05,-1e-05,0,-1e-05,-4e-05,-4e-05,3e-05,-6e-05,3,27
10506,-3e-05,-1e-05,0,-1e-05,-4e-05,-4e-05,3e-05,-6e-05,3,27
10507,-3e-05,-1e-05,0,-1e-05,-4e-05,-4e-05,3e-05,-6e-05,3,27
10508,-3e-05,-1e-05,0,-1e-05,-4e-05,-4e-05,3e-05,-6e-05,3,27
10509,-3e-05,-1e-05,0,-1e-05,-4e-05,-4e-05,3e-05,-6e-05,3,27
10510,-3e-05,-1e-05,0,-1e-05,-4e-05,-4e-05,3e-05,-6e-05,3,27
10511,-3e-05,-1e-05,0,-1e-05,-4e-05,-4e-05,3e-05,-6e-05,3,27
10512,-3e-05,-1e-05,0,-1e-05,-4e-05,-4e-05,3e-05,-6e-05,3,27
10513,-3e-05,-1e-05,0,-1e-05,-4e-05,-4e-05,3e-05,-6e-05,3,27
10514,-3e-05,-1e-05,0,-1e-05,-4e-05,-4e-05,3e-05,-6e-05,3,27
10515,-3e-05,-1e-05,0,-1e-05,-4e-05,-4e-05,3e-05,-6e-05,3,27
10516,-3e-05,-1e-05,0,-1e-05,-4e-05,-4e-05,3e-05,-6e-05,3,27
10517,-3e-05,-1e-05,0,-1e-05,-4e-05,-4e-05,3e-05,-6e-05,3,27
10518,-3e-05,-1e-05,0,-1e-05,-4e-05,-4e-05,3e-05,-6e-05,3,27
10519,-3e-05,-1e-05,0,-1e-05,-4e-05,-4e-05,3e-05,-6e-05,3,27
10520,-3e-05,-1e-05,0,-1e-05,-4e-05,-4e-05,3e-05,-6e-05,3,27
10521,-3e-05,-1e-05,0,-1e-05,-4e-05,-4e-05,3e-05,-6e-05,3,27
10522,-3e-05,-1e-05,0,-1e-05,-4e-05,-4e-05,3e-05,-6e-05,3,27
10523,-3e-05,-1e-05,0,-1e-05,-4e-05,-4e-05,3e-05,-6e-05,3,27
10524,-3e-05,-1e-05,0,-1e-05,-4e-05,-4e-05,3e-05,-6e-05,3,27
10525,-5e-05,-6e-05,-5e-05,-4e-05,6e-05,9e-05,4e-05,-1e-05,3,27
10526,-4e-05,-1e-05,-1e-05,4e-05,7e-05,6e-05,-1e-05,-5e-05,3,27
10527,-4e-05,-1e-05,-1e-05,4e-05,7e-05,6e-05,-1e-05,-5e-05,3,27
10528,-4e-05,-1e-05,-1e-05,4e-05,7e-05,6e-05,-1e-05,-5e-05,3,27
10529,-4e-05,-1e-05,-1e-05,4e-05,7e-05,6e-05,-1e-05,-5e-05,3,27
10530,-4e-05,-1e-05,-1e-05,4e-05,7e-05,6e-05,-1e-05,-5e-05,3,27
10531,-4e-05,-1e-05,-1e-05,4e-05,7e-05,6e-05,-1e-05,-5e-05,3,27
10532,-4e-05,-1e-05,-1e-05,4e-05,7e-05,6e-05,-1e-05,-5e-05,3,27
10533,-4e-05,-1e-05,-1e-05,4e-05,7e-05,6e-05,-1e-05,-5e-05,3,27
10534,-4e-05,-1e-05,-1e-05,4e-05,7e-05,6e-05,-1e-05,-5e-05,3,27
10535,-4e-05,-1e-05,-1e-05,4e-05,7e-05,6e-05,-1e-05,-5e-05,3,27
10536,-4e-05,-1e-05,-1e-05,4e-05,7e-05,6e-05,-1e-05,-5e-05,3,27
10538,-4e-05,-1e-05,-1e-05,4e-05,7e-05,6e-05,-1e-05,-5e-05,3,27
10539,-4e-05,-1e-05,-1e-05,4e-05,7e-05,6e-05,-1e-05,-5e-05,3,27
10540,-3e-05,-1e-05,-5e-05,0,-5e-05,1e-05,-9e-05,8e-05,3,27
10541,-3e-05,-1e-05,-5e-05,0,-5e-05,1e-05,-9e-05,8e-05,3,27
10542,-3e-05,-1e-05,-5e-05,0,-5e-05,1e-05,-9e-05,8e-05,3,27
10543,-3e-05,-1e-05,-5e-05,0,-5e-05,1e-05,-9e-05,8e-05,3,27
10544,-3e-05,-1e-05,-5e-05,0,-5e-05,1e-05,-9e-05,8e-05,3,27
10545,-3e-05,-1e-05,-5e-05,0,-5e-05,1e-05,-9e-05,8e-05,3,27
10546,-3e-05,-1e-05,-5e-05,0,-5e-05,1e-05,-9e-05,8e-05,3,27
10547,-3e-05,-1e-05,-5e-05,0,-5e-05,1e-05,-9e-05,8e-05,3,27
10548,-1e-05,-2e-05,-2e-05,-5e-05,-0.00023,-8e-05,0,-2e-05,3,27
10549,-1e-05,-2e-05,-2e-05,-5e-05,-0.00023,-8e-05,0,-2e-05,3,27
10550,-1e-05,-2e-05,-2e-05,-5e-05,-0.00023,-8e-05,0,-2e-05,3,27
10551,-1e-05,-2e-05,-2e-05,-5e-05,-0.00023,-8e-05,0,-2e-05,3,27
10552,-1e-05,-2e-05,-2e-05,-5e-05,-0.00023,-8e-05,0,-2e-05,3,27
10553,-1e-05,-2e-05,-2e-05,-5e-05,-0.00023,-8e-05,0,-2e-05,3,27
10554,-1e-05,-2e-05,-2e-05,-5e-05,-0.00023,-8e-05,0,-2e-05,3,27
10555,-1e-05,-2e-05,-2e-05,-5e-05,-0.00023,-8e-05,0,-2e-05,3,27
10556,-1e-05,-2e-05,-2e-05,-5e-05,-0.00023,-8e-05,0,-2e-05,3,27
10557,-1e-05,-2e-05,-2e-05,-5e-05,-0.00023,-8e-05,0,-2e-05,3,27
10558,-1e-05,-2e-05,-2e-05,-5e-05,-0.00023,-8e-05,0,-2e-05,3,27
10559,-1e-05,-2e-05,-2e-05,-5e-05,-0.00023,-8e-05,0,-2e-05,3,27
10560,-1e-05,-2e-05,-2e-05,-5e-05,-0.00023,-8e-05,0,-2e-05,3,27
10561,-1e-05,-2e-05,-2e-05,-5e-05,-0.00023,-8e-05,0,-2e-05,3,27
10562,-1e-05,-2e-05,-2e-05,-5e-05,-0.00023,-8e-05,0,-2e-05,3,27
10563,2e-05,-1e-05,-2e-05,-5e-05,-1e-05,2e-05,5e-05,4e-05,3,27
10564,-1e-05,-2e-05,-4e-05,0,0,7e-05,1e-05,-2e-05,3,27
10565,-1e-05,-2e-05,-4e-05,0,0,7e-05,1e-05,-2e-05,3,27
10566,-1e-05,-2e-05,-4e-05,0,0,7e-05,1e-05,-2e-05,3,27
10567,-1e-05,-2e-05,-4e-05,0,0,7e-05,1e-05,-2e-05,3,27
10568,-1e-05,-2e-05,-4e-05,0,0,7e-05,1e-05,-2e-05,3,27
10569,-1e-05,-2e-05,-4e-05,0,0,7e-05,1e-05,-2e-05,3,27
10570,-1e-05,-2e-05,-4e-05,0,0,7e-05,1e-05,-2e-05,3,27
10571,-1e-05,-2e-05,-4e-05,0,0,7e-05,1e-05,-2e-05,3,27
10572,-1e-05,-2e-05,-4e-05,0,0,7e-05,1e-05,-2e-05,3,27
10573,-1e-05,-2e-05,-4e-05,0,0,7e-05,1e-05,-2e-05,3,27
10574,-1e-05,-2e-05,-4e-05,0,0,7e-05,1e-05,-2e-05,3,27
10575,-1e-05,-2e-05,-4e-05,0,0,7e-05,1e-05,-2e-05,3,27
10576,-1e-05,-2e-05,-4e-05,0,0,7e-05,1e-05,-2e-05,3,27
10577,-1e-05,-2e-05,-4e-05,0,0,7e-05,1e-05,-2e-05,3,27
10578,-1e-05,-2e-05,-4e-05,0,0,7e-05,1e-05,-2e-05,3,27
10579,-1e-05,-2e-05,-4e-05,0,0,7e-05,1e-05,-2e-05,3,27
10580,-1e-05,-2e-05,-4e-05,0,0,7e-05,1e-05,-2e-05,3,27
10581,-1e-05,-2e-05,-4e-05,0,0,7e-05,1e-05,-2e-05,3,27
10582,-1e-05,-2e-05,-4e-05,0,0,7e-05,1e-05,-2e-05,3,27
10583,-1e-05,-2e-05,-4e-05,0,0,7e-05,1e-05,-2e-05,3,27
10584,-1e-05,-2e-05,-4e-05,0,0,7e-05,1e-05,-2e-05,3,27
10585,2e-05,0,2e-05,-1e-05,2e-05,0,-5e-05,-4e-05,3,27
10586,-4e-05,-3e-05,-3e-05,-1e-05,3e-05,-3e-05,-3e-05,-7e-05,3,27
10588,-3e-05,0,2e-05,-3e-05,-2e-05,-1e-05,2e-05,5e-05,3,27
10589,-3e-05,0,2e-05,-3e-05,-2e-05,-1e-05,2e-05,5e-05,3,27
10590,-3e-05,0,2e-05,-3e-05,-2e-05,-1e-05,2e-05,5e-05,3,27
10591,-3e-05,0,2e-05,-3e-05,-2e-05,-1e-05,2e-05,5e-05,3,27
10592,-3e-05,0,2e-05,-3e-05,-2e-05,-1e-05,2e-05,5e-05,3,27
10593,-3e-05,0,2e-05,-3e-05,-2e-05,-1e-05,2e-05,5e-05,3,27
10594,-3e-05,0,2e-05,-3e-05,-2e-05,-1e-05,2e-05,5e-05,3,27
10595,-3e-05,0,2e-05,-3e-05,-2e-05,-1e-05,2e-05,5e-05,3,27
10596,-3e-05,0,2e-05,-3e-05,-2e-05,-1e-05,2e-05,5e-05,3,27
10597,-3e-05,0,2e-05,-3e-05,-2e-05,-1e-05,2e-05,5e-05,3,27
10598,-3e-05,0,2e-05,-3e-05,-2e-05,-1e-05,2e-05,5e-05,3,27
10599,-3e-05,0,2e-05,-3e-05,-2e-05,-1e-05,2e-05,5e-05,3,27
10600,-8e-05,-1e-05,-2e-05,-2e-05,-1e-05,-2e-05,1e-05,-0.00017,3,27
10601,-8e-05,-1e-05,-2e-05,-2e-05,-1e-05,-2e-05,1e-05,-0.00017,3,27
10602,-8e-05,-1e-05,-2e-05,-2e-05,-1e-05,-2e-05,1e-05,-0.00017,3,27
10603,-8e-05,-1e-05,-2e-05,-2e-05,-1e-05,-2e-05,1e-05,-0.00017,3,27
10604,-8e-05,-1e-05,-2e-05,-2e-05,-1e-05,-2e-05,1e-05,-0.00017,3,27
10605,-8e-05,-1e-05,-2e-05,-2e-05,-1e-05,-2e-05,1e-05,-0.00017,3,27
10606,-8e-05,-1e-05,-2e-05,-2e-05,-1e-05,-2e-05,1e-05,-0.00017,3,27
10607,-8e-05,-1e-05,-2e-05,-2e-05,-1e-05,-2e-05,1e-05,-0.00017,3,27
10608,-1e-05,-2e-05,-2e-05,-1e-05,0,-2e-05,1e-05,0,3,27
10609,-1e-05,-2e-05,-2e-05,-1e-05,0,-2e-05,1e-05,0,3,27
10610,-1e-05,-2e-05,-2e-05,-1e-05,0,-2e-05,1e-05,0,3,27
10611,-1e-05,-2e-05,-2e-05,-1e-05,0,-2e-05,1e-05,0,3,27
10612,-1e-05,-2e-05,-2e-05,-1e-05,0,-2e-05,1e-05,0,3,27
10613,-1e-05,-2e-05,-2e-05,-1e-05,0,-2e-05,1e-05,0,3,27
10614,-1e-05,-2e-05,-2e-05,-1e-05,0,-2e-05,1e-05,0,3,27
10615,-1e-05,-2e-05,-2e-05,-1e-05,0,-2e-05,1e-05,0,3,27
10616,-1e-05,-2e-05,-2e-05,-1e-05,0,-2e-05,1e-05,0,3,27
10617,-1e-05,-2e-05,-2e-05,-1e-05,0,-2e-05,1e-05,0,3,27
10618,-1e-05,-2e-05,-2e-05,-1e-05,0,-2e-05,1e-05,0,3,27
10619,-1e-05,-2e-05,-2e-05,-1e-05,0,-2e-05,1e-05,0,3,27
10620,-1e-05,-2e-05,-2e-05,-1e-05,0,-2e-05,1e-05,0,3,27
10621,-1e-05,-2e-05,-2e-05,-1e-05,0,-2e-05,1e-05,0,3,27
10622,-1e-05,-2e-05,-2e-05,-1e-05,0,-2e-05,1e-05,0,3,27
10623,-2e-05,-2e-05,1e-05,3e-05,0.00014,1e-05,0,1e-05,3,27
10624,-2e-05,-2e-05,-5e-05,-6e-05,0,-6e-05,-0.0001,-9e-05,3,27
10625,-2e-05,-2e-05,-5e-05,-6e-05,0,-6e-05,-0.0001,-9e-05,3,27
10626,-2e-05,-2e-05,-5e-05,-6e-05,0,-6e-05,-0.0001,-9e-05,3,27
10627,-2e-05,-2e-05,-5e-05,-6e-05,0,-6e-05,-0.0001,-9e-05,3,27
10628,-2e-05,-2e-05,-5e-05,-6e-05,0,-6e-05,-0.0001,-9e-05,3,27
10629,-2e-05,-2e-05,-5e-05,-6e-05,0,-6e-05,-0.0001,-9e-05,3,27
10630,-2e-05,-2e-05,-5e-05,-6e-05,0,-6e-05,-0.0001,-9e-05,3,27
10631,-2e-05,-2e-05,-5e-05,-6e-05,0,-6e-05,-0.0001,-9e-05,3,27
10632,-2e-05,-2e-05,-5e-05,-6e-05,0,-6e-05,-0.0001,-9e-05,3,27
10633,-2e-05,-2e-05,-5e-05,-6e-05,0,-6e-05,-0.0001,-9e-05,3,27
10634,-2e-05,-2e-05,-5e-05,-6e-05,0,-6e-05,-0.0001,-9e-05,3,27
10635,-2e-05,-2e-05,-5e-05,-6e-05,0,-6e-05,-0.0001,-9e-05,3,27
10636,-2e-05,-2e-05,-5e-05,-6e-05,0,-6e-05,-0.0001,-9e-05,3,27
10638,-2e-05,-2e-05,-5e-05,-6e-05,0,-6e-05,-0.0001,-9e-05,3,27
10639,-2e-05,-2e-05,-5e-05,-6e-05,0,-6e-05,-0.0001,-9e-05,3,27
10640,-2e-05,-2e-05,-5e-05,-6e-05,0,-6e-05,-0.0001,-9e-05,3,27
10641,-2e-05,-2e-05,-5e-05,-6e-05,0,-6e-05,-0.0001,-9e-05,3,27
10642,-2e-05,-2e-05,-5e-05,-6e-05,0,-6e-05,-0.0001,-9e-05,3,27
10643,-2e-05,-2e-05,-5e-05,-6e-05,0,-6e-05,-0.0001,-9e-05,3,27
10644,-2e-05,-2e-05,-5e-05,-6e-05,0,-6e-05,-0.0001,-9e-05,3,27
10645,-2e-05,-2e-05,-3e-05,-2e-05,-0.00014,-3e-05,-1e-05,0,3,27
10646,3e-05,0,0,0.00012,0.00034,0.00017,7e-05,-2e-05,3,27
10647,3e-05,0,0,0.00012,0.00034,0.00017,7e-05,-2e-05,3,27
10648,3e-05,0,0,0.00012,0.00034,0.00017,7e-05,-2e-05,3,27
10649,3e-05,0,0,0.00012,0.00034,0.00017,7e-05,-2e-05,3,27
10650,3e-05,0,0,0.00012,0.00034,0.00017,7e-05,-2e-05,3,27
10651,3e-05,0,0,0.00012,0.00034,0.00017,7e-05,-2e-05,3,27
10652,3e-05,0,0,0.00012,0.00034,0.00017,7e-05,-2e-05,3,27
10653,3e-05,0,0,0.00012,0.00034,0.00017,7e-05,-2e-05,3,27
10654,3e-05,0,0,0.00012,0.00034,0.00017,7e-05,-2e-05,3,27
10655,3e-05,0,0,0.00012,0.00034,0.00017,7e-05,-2e-05,3,27
10656,3e-05,0,0,0.00012,0.00034,0.00017,7e-05,-2e-05,3,27
10657,3e-05,0,0,0.00012,0.00034,0.00017,7e-05,-2e-05,3,27
10658,3e-05,0,0,0.00012,0.00034,0.00017,7e-05,-2e-05,3,27
10659,3e-05,0,0,0.00012,0.00034,0.00017,7e-05,-2e-05,3,27
10660,0,1e-05,3e-05,1e-05,-5e-05,5e-05,0,6e-05,3,27
10661,0,1e-05,3e-05,1e-05,-5e-05,5e-05,0,6e-05,3,27
10662,0,1e-05,3e-05,1e-05,-5e-05,5e-05,0,6e-05,3,27
10663,0,1e-05,3e-05,1e-05,-5e-05,5e-05,0,6e-05,3,27
10664,0,1e-05,3e-05,1e-05,-5e-05,5e-05,0,6e-05,3,27
10665,0,1e-05,3e-05,1e-05,-5e-05,5e-05,0,6e-05,3,27
10666,0,1e-05,3e-05,1e-05,-5e-05,5e-05,0,6e-05,3,27
10667,0,1e-05,3e-05,1e-05,-5e-05,5e-05,0,6e-05,3,27
10668,2e-05,-1e-05,-1e-05,-3e-05,-9e-05,-6e-05,-7e-05,-0.00036,3,27
10669,2e-05,-1e-05,-1e-05,-3e-05,-9e-05,-6e-05,-7e-05,-0.00036,3,27
10670,2e-05,-1e-05,-1e-05,-3e-05,-9e-05,-6e-05,-7e-05,-0.00036,3,27
10671,2e-05,-1e-05,-1e-05,-3e-05,-9e-05,-6e-05,-7e-05,-0.00036,3,27
10672,2e-05,-1e-05,-1e-05,-3e-05,-9e-05,-6e-05,-7e-05,-0.00036,3,27
10673,2e-05,-1e-05,-1e-05,-3e-05,-9e-05,-6e-05,-7e-05,-0.00036,3,27
10674,2e-05,-1e-05,-1e-05,-3e-05,-9e-05,-6e-05,-7e-05,-0.00036,3,27
10675,2e-05,-1e-05,-1e-05,-3e-05,-9e-05,-6e-05,-7e-05,-0.00036,3,27
10676,2e-05,-1e-05,-1e-05,-3e-05,-9e-05,-6e-05,-7e-05,-0.00036,3,27
10677,2e-05,-1e-05,-1e-05,-3e-05,-9e-05,-6e-05,-7e-05,-0.00036,3,27
10678,2e-05,-1e-05,-1e-05,-3e-05,-9e-05,-6e-05,-7e-05,-0.00036,3,27
10679,2e-05,-1e-05,-1e-05,-3e-05,-9e-05,-6e-05,-7e-05,-0.00036,3,27
10680,2e-05,-1e-05,-1e-05,-3e-05,-9e-05,-6e-05,-7e-05,-0.00036,3,27
10681,2e-05,-1e-05,-1e-05,-3e-05,-9e-05,-6e-05,-7e-05,-0.00036,3,27
10682,2e-05,-1e-05,-1e-05,-3e-05,-9e-05,-6e-05,-7e-05,-0.00036,3,27
10683,-1e-05,-1e-05,-1e-05,-3e-05,-3e-05,-4e-05,-2e-05,1e-05,3,27
10684,-1e-05,-1e-05,-3e-05,1e-05,-8e-05,-4e-05,3e-05,6e-05,3,27
10685,-1e-05,-1e-05,-3e-05,1e-05,-8e-05,-4e-05,3e-05,6e-05,3,27
10686,-1e-05,-1e-05,-3e-05,1e-05,-8e-05,-4e-05,3e-05,6e-05,3,27
10688,-1e-05,-1e-05,-3e-05,1e-05,-8e-05,-4e-05,3e-05,6e-05,3,27
10689,-1e-05,-1e-05,-3e-05,1e-05,-8e-05,-4e-05,3e-05,6e-05,3,27
10690,-1e-05,-1e-05,-3e-05,1e-05,-8e-05,-4e-05,3e-05,6e-05,3,27
10691,-1e-05,-1e-05,-3e-05,1e-05,-8e-05,-4e-05,3e-05,6e-05,3,27
10692,-1e-05,-1e-05,-3e-05,1e-05,-8e-05,-4e-05,3e-05,6e-05,3,27
10693,-1e-05,-1e-05,-3e-05,1e-05,-8e-05,-4e-05,3e-05,6e-05,3,27
10694,-1e-05,-1e-05,-3e-05,1e-05,-8e-05,-4e-05,3e-05,6e-05,3,27
10695,-1e-05,-1e-05,-3e-05,1e-05,-8e-05,-4e-05,3e-05,6e-05,3,27
10696,-1e-05,-1e-05,-3e-05,1e-05,-8e-05,-4e-05,3e-05,6e-05,3,27
10697,-1e-05,-1e-05,-3e-05,1e-05,-8e-05,-4e-05,3e-05,6e-05,3,27
10698,-1e-05,-1e-05,-3e-05,1e-05,-8e-05,-4e-05,3e-05,6e-05,3,27
10699,-1e-05,-1e-05,-3e-05,1e-05,-8e-05,-4e-05,3e-05,6e-05,3,27
10700,-1e-05,-1e-05,-3e-05,1e-05,-8e-05,-4e-05,3e-05,6e-05,3,27
10701,-1e-05,-1e-05,-3e-05,1e-05,-8e-05,-4e-05,3e-05,6e-05,3,27
10702,-1e-05,-1e-05,-3e-05,1e-05,-8e-05,-4e-05,3e-05,6e-05,3,27
10703,-1e-05,-1e-05,-3e-05,1e-05,-8e-05,-4e-05,3e-05,6e-05,3,27
10704,-1e-05,-1e-05,-3e-05,1e-05,-8e-05,-4e-05,3e-05,6e-05,3,27
10705,0,-3e-05,-3e-05,0,7e-05,4e-05,0,-0.00014,3,27
10706,2e-05,-3e-05,-2e-05,-8e-05,-0.00016,0,0,0.00018,3,27
10707,2e-05,-3e-05,-2e-05,-8e-05,-0.00016,0,0,0.00018,3,27
10708,2e-05,-3e-05,-2e-05,-8e-05,-0.00016,0,0,0.00018,3,27
10709,2e-05,-3e-05,-2e-05,-8e-05,-0.00016,0,0,0.00018,3,27
10710,2e-05,-3e-05,-2e-05,-8e-05,-0.00016,0,0,0.00018,3,27
10711,2e-05,-3e-05,-2e-05,-8e-05,-0.00016,0,0,0.00018,3,27
10712,2e-05,-3e-05,-2e-05,-8e-05,-0.00016,0,0,0.00018,3,27
10713,2e-05,-3e-05,-2e-05,-8e-05,-0.00016,0,0,0.00018,3,27
10714,2e-05,-3e-05,-2e-05,-8e-05,-0.00016,0,0,0.00018,3,27
10715,2e-05,-3e-05,-2e-05,-8e-05,-0.00016,0,0,0.00018,3,27
10716,2e-05,-3e-05,-2e-05,-8e-05,-0.00016,0,0,0.00018,3,27
10717,2e-05,-3e-05,-2e-05,-8e-05,-0.00016,0,0,0.00018,3,27
10718,2e-05,-3e-05,-2e-05,-8e-05,-0.00016,0,0,0.00018,3,27
10719,2e-05,-3e-05,-2e-05,-8e-05,-0.00016,0,0,0.00018,3,27
10720,-1e-05,-4e-05,-4e-05,-5e-05,-8e-05,-4e-05,-2e-05,6e-05,3,27
10721,-1e-05,-4e-05,-4e-05,-5e-05,-8e-05,-4e-05,-2e-05,6e-05,3,27
10722,-1e-05,-4e-05,-4e-05,-5e-05,-8e-05,-4e-05,-2e-05,6e-05,3,27
10723,-1e-05,-4e-05,-4e-05,-5e-05,-8e-05,-4e-05,-2e-05,6e-05,3,27
10724,-1e-05,-4e-05,-4e-05,-5e-05,-8e-05,-4e-05,-2e-05,6e-05,3,27
10725,-1e-05,-4e-05,-4e-05,-5e-05,-8e-05,-4e-05,-2e-05,6e-05,3,27
10726,-1e-05,-4e-05,-4e-05,-5e-05,-8e-05,-4e-05,-2e-05,6e-05,3,27
10727,-1e-05,-4e-05,-4e-05,-5e-05,-8e-05,-4e-05,-2e-05,6e-05,3,27
10728,-4e-05,2e-05,1e-05,3e-05,4e-05,-3e-05,0,-1e-05,3,27
10729,-4e-05,2e-05,1e-05,3e-05,4e-05,-3e-05,0,-1e-05,3,27
10730,-4e-05,2e-05,1e-05,3e-05,4e-05,-3e-05,0,-1e-05,3,27
10731,-4e-05,2e-05,1e-05,3e-05,4e-05,-3e-05,0,-1e-05,3,27
10732,-4e-05,2e-05,1e-05,3e-05,4e-05,-3e-05,0,-1e-05,3,27
10733,-4e-05,2e-05,1e-05,3e-05,4e-05,-3e-05,0,-1e-05,3,27
10734,-4e-05,2e-05,1e-05,3e-05,4e-05,-3e-05,0,-1e-05,3,27
10735,-4e-05,2e-05,1e-05,3e-05,4e-05,-3e-05,0,-1e-05,3,27
10736,-4e-05,2e-05,1e-05,3e-05,4e-05,-3e-05,0,-1e-05,3,27
10738,-4e-05,2e-05,1e-05,3e-05,4e-05,-3e-05,0,-1e-05,3,27
10739,-4e-05,2e-05,1e-05,3e-05,4e-05,-3e-05,0,-1e-05,3,27
10740,-4e-05,2e-05,1e-05,3e-05,4e-05,-3e-05,0,-1e-05,3,27
10741,-4e-05,2e-05,1e-05,3e-05,4e-05,-3e-05,0,-1e-05,3,27
10742,-4e-05,2e-05,1e-05,3e-05,4e-05,-3e-05,0,-1e-05,3,27
10743,-4e-05,2e-05,1e-05,3e-05,4e-05,-3e-05,0,-1e-05,3,27
10744,-4e-05,2e-05,1e-05,3e-05,4e-05,-3e-05,0,-1e-05,3,27
10745,-4e-05,2e-05,1e-05,3e-05,4e-05,-3e-05,0,-1e-05,3,27
10746,-4e-05,2e-05,1e-05,3e-05,4e-05,-3e-05,0,-1e-05,3,27
10747,-4e-05,2e-05,1e-05,3e-05,4e-05,-3e-05,0,-1e-05,3,27
10748,-4e-05,2e-05,1e-05,3e-05,4e-05,-3e-05,0,-1e-05,3,27
10749,-4e-05,2e-05,1e-05,3e-05,4e-05,-3e-05,0,-1e-05,3,27
10750,-4e-05,2e-05,1e-05,3e-05,4e-05,-3e-05,0,-1e-05,3,27
10751,0,0,-3e-05,-1e-05,-8e-05,2e-05,2e-05,-2e-05,3,27
10752,-1e-05,-3e-05,-3e-05,-3e-05,-4e-05,7e-05,0,-1e-05,3,27
10753,-1e-05,-3e-05,-3e-05,-3e-05,-4e-05,7e-05,0,-1e-05,3,27
10754,-1e-05,-3e-05,-3e-05,-3e-05,-4e-05,7e-05,0,-1e-05,3,27
10755,-1e-05,-3e-05,-3e-05,-3e-05,-4e-05,7e-05,0,-1e-05,3,27
10756,-1e-05,-3e-05,-3e-05,-3e-05,-4e-05,7e-05,0,-1e-05,3,27
10757,-1e-05,-3e-05,-3e-05,-3e-05,-4e-05,7e-05,0,-1e-05,3,27
10758,-1e-05,-3e-05,-3e-05,-3e-05,-4e-05,7e-05,0,-1e-05,3,27
10759,-1e-05,-3e-05,-3e-05,-3e-05,-4e-05,7e-05,0,-1e-05,3,27
10760,-1e-05,-3e-05,-3e-05,-3e-05,-4e-05,7e-05,0,-1e-05,3,27
10761,-1e-05,-3e-05,-3e-05,-3e-05,-4e-05,7e-05,0,-1e-05,3,27
10762,-1e-05,-3e-05,-3e-05,-3e-05,-4e-05,7e-05,0,-1e-05,3,27
10763,-1e-05,-3e-05,-3e-05,-3e-05,-4e-05,7e-05,0,-1e-05,3,27
10764,-1e-05,-3e-05,-3e-05,-3e-05,-4e-05,7e-05,0,-1e-05,3,27
10765,-1e-05,-3e-05,-3e-05,-3e-05,-4e-05,7e-05,0,-1e-05,3,27
10766,-2e-05,0,-1e-05,-5e-05,-0.00012,-6e-05,1e-05,0.0001,3,27
10767,-2e-05,0,-1e-05,-5e-05,-0.00012,-6e-05,1e-05,0.0001,3,27
10768,-2e-05,0,-1e-05,-5e-05,-0.00012,-6e-05,1e-05,0.0001,3,27
10769,-2e-05,0,-1e-05,-5e-05,-0.00012,-6e-05,1e-05,0.0001,3,27
10770,-2e-05,0,-1e-05,-5e-05,-0.00012,-6e-05,1e-05,0.0001,3,27
10771,-2e-05,0,-1e-05,-5e-05,-0.00012,-6e-05,1e-05,0.0001,3,27
10772,-2e-05,0,-1e-05,-5e-05,-0.00012,-6e-05,1e-05,0.0001,3,27
10773,-2e-05,0,-1e-05,-5e-05,-0.00012,-6e-05,1e-05,0.0001,3,27
10774,-2e-05,0,-1e-05,-5e-05,-0.00012,-6e-05,1e-05,0.0001,3,27
10775,-2e-05,0,-1e-05,-5e-05,-0.00012,-6e-05,1e-05,0.0001,3,27
10776,-2e-05,0,-1e-05,-5e-05,-0.00012,-6e-05,1e-05,0.0001,3,27
10777,-2e-05,0,-1e-05,-5e-05,-0.00012,-6e-05,1e-05,0.0001,3,27
10778,-2e-05,0,-1e-05,-5e-05,-0.00012,-6e-05,1e-05,0.0001,3,27
10779,-2e-05,0,-1e-05,-5e-05,-0.00012,-6e-05,1e-05,0.0001,3,27
10780,-4e-05,-4e-05,-3e-05,-2e-05,-9e-05,-2e-05,-3e-05,-0.00011,3,27
10781,-4e-05,-4e-05,-3e-05,-2e-05,-9e-05,-2e-05,-3e-05,-0.00011,3,27
10782,-4e-05,-4e-05,-3e-05,-2e-05,-9e-05,-2e-05,-3e-05,-0.00011,3,27
10783,-4e-05,-4e-05,-3e-05,-2e-05,-9e-05,-2e-05,-3e-05,-0.00011,3,27
10784,-4e-05,-4e-05,-3e-05,-2e-05,-9e-05,-2e-05,-3e-05,-0.00011,3,27
10785,-4e-05,-4e-05,-3e-05,-2e-05,-9e-05,-2e-05,-3e-05,-0.00011,3,27
10786,-4e-05,-4e-05,-3e-05,-2e-05,-9e-05,-2e-05,-3e-05,-0.00011,3,27
10788,3e-05,-1e-05,-2e-05,0,2e-05,-1e-05,-3e-05,-0.00011,3,27
10789,3e-05,-1e-05,-2e-05,0,2e-05,-1e-05,-3e-05,-0.00011,3,27
10790,3e-05,-1e-05,-2e-05,0,2e-05,-1e-05,-3e-05,-0.00011,3,27
10791,3e-05,-1e-05,-2e-05,0,2e-05,-1e-05,-3e-05,-0.00011,3,27
10792,3e-05,-1e-05,-2e-05,0,2e-05,-1e-05,-3e-05,-0.00011,3,27
10793,3e-05,-1e-05,-2e-05,0,2e-05,-1e-05,-3e-05,-0.00011,3,27
10794,3e-05,-1e-05,-2e-05,0,2e-05,-1e-05,-3e-05,-0.00011,3,27
10795,3e-05,-1e-05,-2e-05,0,2e-05,-1e-05,-3e-05,-0.00011,3,27
10796,3e-05,-1e-05,-2e-05,0,2e-05,-1e-05,-3e-05,-0.00011,3,27
10797,3e-05,-1e-05,-2e-05,0,2e-05,-1e-05,-3e-05,-0.00011,3,27
10798,3e-05,-1e-05,-2e-05,0,2e-05,-1e-05,-3e-05,-0.00011,3,27
10799,3e-05,-1e-05,-2e-05,0,2e-05,-1e-05,-3e-05,-0.00011,3,27
10800,3e-05,-1e-05,-2e-05,0,2e-05,-1e-05,-3e-05,-0.00011,3,27
10801,3e-05,-1e-05,-2e-05,0,2e-05,-1e-05,-3e-05,-0.00011,3,27
10802,3e-05,-1e-05,-2e-05,0,2e-05,-1e-05,-3e-05,-0.00011,3,27
10803,-2e-05,-2e-05,-3e-05,-3e-05,-1e-05,-2e-05,0,1e-05,3,27
10804,-3e-05,0,2e-05,-1e-05,-1e-05,-5e-05,0,7e-05,3,27
10805,-3e-05,0,2e-05,-1e-05,-1e-05,-5e-05,0,7e-05,3,27
10806,-3e-05,0,2e-05,-1e-05,-1e-05,-5e-05,0,7e-05,3,27
10807,-3e-05,0,2e-05,-1e-05,-1e-05,-5e-05,0,7e-05,3,27
10808,-3e-05,0,2e-05,-1e-05,-1e-05,-5e-05,0,7e-05,3,27
10809,-3e-05,0,2e-05,-1e-05,-1e-05,-5e-05,0,7e-05,3,27
10810,-3e-05,0,2e-05,-1e-05,-1e-05,-5e-05,0,7e-05,3,27
10811,-3e-05,0,2e-05,-1e-05,-1e-05,-5e-05,0,7e-05,3,27
10812,-3e-05,0,2e-05,-1e-05,-1e-05,-5e-05,0,7e-05,3,27
10813,-3e-05,0,2e-05,-1e-05,-1e-05,-5e-05,0,7e-05,3,27
10814,-3e-05,0,2e-05,-1e-05,-1e-05,-5e-05,0,7e-05,3,27
10815,-3e-05,0,2e-05,-1e-05,-1e-05,-5e-05,0,7e-05,3,27
10816,-3e-05,0,2e-05,-1e-05,-1e-05,-5e-05,0,7e-05,3,27
10817,-3e-05,0,2e-05,-1e-05,-1e-05,-5e-05,0,7e-05,3,27
10818,-3e-05,0,2e-05,-1e-05,-1e-05,-5e-05,0,7e-05,3,27
10819,-3e-05,0,2e-05,-1e-05,-1e-05,-5e-05,0,7e-05,3,27
10820,-3e-05,0,2e-05,-1e-05,-1e-05,-5e-05,0,7e-05,3,27
10821,-3e-05,0,2e-05,-1e-05,-1e-05,-5e-05,0,7e-05,3,27
10822,-3e-05,0,2e-05,-1e-05,-1e-05,-5e-05,0,7e-05,3,27
10823,-3e-05,0,2e-05,-1e-05,-1e-05,-5e-05,0,7e-05,3,27
10824,-3e-05,0,2e-05,-1e-05,-1e-05,-5e-05,0,7e-05,3,27
10825,2e-05,0,0,-3e-05,-1e-05,-4e-05,-3e-05,-0.0002,3,27
10826,-3e-05,0,-1e-05,-5e-05,-0.00019,-6e-05,0,-0.00013,3,27
10827,-2e-05,-3e-05,-3e-05,-1e-05,0.00014,1e-05,-4e-05,1e-05,3,27
10828,-2e-05,-3e-05,-3e-05,-1e-05,0.00014,1e-05,-4e-05,1e-05,3,27
10829,-2e-05,-3e-05,-3e-05,-1e-05,0.00014,1e-05,-4e-05,1e-05,3,27
10830,-2e-05,-3e-05,-3e-05,-1e-05,0.00014,1e-05,-4e-05,1e-05,3,27
10831,-2e-05,-3e-05,-3e-05,-1e-05,0.00014,1e-05,-4e-05,1e-05,3,27
10832,-2e-05,-3e-05,-3e-05,-1e-05,0.00014,1e-05,-4e-05,1e-05,3,27
10833,-2e-05,-3e-05,-3e-05,-1e-05,0.00014,1e-05,-4e-05,1e-05,3,27
10834,-2e-05,-3e-05,-3e-05,-1e-05,0.00014,1e-05,-4e-05,1e-05,3,27
10835,-2e-05,-3e-05,-3e-05,-1e-05,0.00014,1e-05,-4e-05,1e-05,3,27
10836,-2e-05,-3e-05,-3e-05,-1e-05,0.00014,1e-05,-4e-05,1e-05,3,27
10838,-2e-05,-3e-05,-3e-05,-1e-05,0.00014,1e-05,-4e-05,1e-05,3,27
10839,-2e-05,-3e-05,-3e-05,-1e-05,0.00014,1e-05,-4e-05,1e-05,3,27
10840,-2e-05,-3e-05,-3e-05,-1e-05,0.00014,1e-05,-4e-05,1e-05,3,27
10841,-2e-05,-3e-05,-3e-05,-1e-05,0.00014,1e-05,-4e-05,1e-05,3,27
10842,-2e-05,-3e-05,-3e-05,-1e-05,0.00014,1e-05,-4e-05,1e-05,3,27
10843,-2e-05,-3e-05,-3e-05,-1e-05,0.00014,1e-05,-4e-05,1e-05,3,27
10844,-2e-05,-3e-05,-3e-05,-1e-05,0.00014,1e-05,-4e-05,1e-05,3,27
10845,-2e-05,-3e-05,-3e-05,-1e-05,0.00014,1e-05,-4e-05,1e-05,3,27
10846,-2e-05,-3e-05,-3e-05,-1e-05,0.00014,1e-05,-4e-05,1e-05,3,27
10847,-2e-05,-3e-05,-3e-05,-1e-05,0.00014,1e-05,-4e-05,1e-05,3,27
10848,-2e-05,-3e-05,-3e-05,-1e-05,0.00014,1e-05,-4e-05,1e-05,3,27
10849,-2e-05,0,2e-05,2e-05,-4e-05,0,2e-05,-3e-05,3,27
10850,0,0,2e-05,0,-0.00047,-3e-05,0,5e-05,3,27
10851,0,0,2e-05,0,-0.00047,-3e-05,0,5e-05,3,27
10852,0,0,2e-05,0,-0.00047,-3e-05,0,5e-05,3,27
10853,0,0,2e-05,0,-0.00047,-3e-05,0,5e-05,3,27
10854,0,0,2e-05,0,-0.00047,-3e-05,0,5e-05,3,27
10855,0,0,2e-05,0,-0.00047,-3e-05,0,5e-05,3,27
10856,0,0,2e-05,0,-0.00047,-3e-05,0,5e-05,3,27
10857,0,0,2e-05,0,-0.00047,-3e-05,0,5e-05,3,27
10858,0,0,2e-05,0,-0.00047,-3e-05,0,5e-05,3,27
10859,0,0,2e-05,0,-0.00047,-3e-05,0,5e-05,3,27
10860,0,0,2e-05,0,-0.00047,-3e-05,0,5e-05,3,27
10861,0,0,2e-05,0,-0.00047,-3e-05,0,5e-05,3,27
10862,0,0,2e-05,0,-0.00047,-3e-05,0,5e-05,3,27
10863,-1e-05,-4e-05,-2e-05,-4e-05,0.00012,0,-5e-05,-3e-05,3,27
10864,0,-3e-05,-2e-05,0,0.00012,0,0,-6e-05,3,27
10865,0,-3e-05,-2e-05,0,0.00012,0,0,-6e-05,3,27
10866,0,-3e-05,-2e-05,0,0.00012,0,0,-6e-05,3,27
10867,0,-3e-05,-2e-05,0,0.00012,0,0,-6e-05,3,27
10868,0,-3e-05,-2e-05,0,0.00012,0,0,-6e-05,3,27
10869,0,-3e-05,-2e-05,0,0.00012,0,0,-6e-05,3,27
10870,0,-3e-05,-2e-05,0,0.00012,0,0,-6e-05,3,27
10871,0,-3e-05,-2e-05,0,0.00012,0,0,-6e-05,3,27
10872,0,-3e-05,-2e-05,0,0.00012,0,0,-6e-05,3,27
10873,0,-3e-05,-2e-05,0,0.00012,0,0,-6e-05,3,27
10874,0,-3e-05,-2e-05,0,0.00012,0,0,-6e-05,3,27
10875,0,-3e-05,-2e-05,0,0.00012,0,0,-6e-05,3,27
10876,0,-3e-05,-2e-05,0,0.00012,0,0,-6e-05,3,27
10877,0,-3e-05,-2e-05,0,0.00012,0,0,-6e-05,3,27
10878,0,-3e-05,-2e-05,0,0.00012,0,0,-6e-05,3,27
10879,0,-3e-05,-2e-05,0,0.00012,0,0,-6e-05,3,27
10880,0,-3e-05,-2e-05,0,0.00012,0,0,-6e-05,3,27
10881,0,-3e-05,-2e-05,0,0.00012,0,0,-6e-05,3,27
10882,0,-3e-05,-2e-05,0,0.00012,0,0,-6e-05,3,27
10883,0,-3e-05,-2e-05,0,0.00012,0,0,-6e-05,3,27
10884,0,-3e-05,-2e-05,0,0.00012,0,0,-6e-05,3,27
10885,-1e-05,-3e-05,-2e-05,3e-05,2e-05,-7e-05,-4e-05,1e-05,3,27
10886,-2e-05,-2e-05,-2e-05,-4e-05,-4e-05,-4e-05,4e-05,6e-05,3,27
10888,0,-2e-05,-1e-05,2e-05,9e-05,0,-7e-05,-0.00022,3,27
10889,0,-2e-05,-1e-05,2e-05,9e-05,0,-7e-05,-0.00022,3,27
10890,0,-2e-05,-1e-05,2e-05,9e-05,0,-7e-05,-0.00022,3,27
10891,0,-2e-05,-1e-05,2e-05,9e-05,0,-7e-05,-0.00022,3,27
10892,0,-2e-05,-1e-05,2e-05,9e-05,0,-7e-05,-0.00022,3,27
10893,0,-2e-05,-1e-05,2e-05,9e-05,0,-7e-05,-0.00022,3,27
10894,0,-2e-05,-1e-05,2e-05,9e-05,0,-7e-05,-0.00022,3,27
10895,0,-2e-05,-1e-05,2e-05,9e-05,0,-7e-05,-0.00022,3,27
10896,0,-2e-05,-1e-05,2e-05,9e-05,0,-7e-05,-0.00022,3,27
10897,0,-2e-05,-1e-05,2e-05,9e-05,0,-7e-05,-0.00022,3,27
10898,0,-2e-05,-1e-05,2e-05,9e-05,0,-7e-05,-0.00022,3,27
10899,0,-2e-05,-1e-05,2e-05,9e-05,0,-7e-05,-0.00022,3,27
10900,0,-2e-05,-1e-05,2e-05,9e-05,0,-7e-05,-0.00022,3,27
10901,0,-2e-05,-1e-05,2e-05,9e-05,0,-7e-05,-0.00022,3,27
10902,0,-2e-05,-1e-05,2e-05,9e-05,0,-7e-05,-0.00022,3,27
10903,0,-2e-05,-1e-05,2e-05,9e-05,0,-7e-05,-0.00022,3,27
10904,0,-2e-05,-1e-05,2e-05,9e-05,0,-7e-05,-0.00022,3,27
10905,0,-2e-05,-1e-05,2e-05,9e-05,0,-7e-05,-0.00022,3,27
10906,0,-2e-05,-1e-05,2e-05,9e-05,0,-7e-05,-0.00022,3,27
10907,0,-2e-05,-1e-05,2e-05,9e-05,0,-7e-05,-0.00022,3,27
10908,0,-2e-05,-1e-05,2e-05,9e-05,0,-7e-05,-0.00022,3,27
10909,-1e-05,-1e-05,1e-05,4e-05,5e-05,6e-05,0.00011,0.00012,3,27
10910,-3e-05,-1e-05,-2e-05,2e-05,0.00019,-1e-05,3e-05,0.00014,3,27
10911,-3e-05,-1e-05,-2e-05,2e-05,0.00019,-1e-05,3e-05,0.00014,3,27
10912,-3e-05,-1e-05,-2e-05,2e-05,0.00019,-1e-05,3e-05,0.00014,3,27
10913,-3e-05,-1e-05,-2e-05,2e-05,0.00019,-1e-05,3e-05,0.00014,3,27
10914,-3e-05,-1e-05,-2e-05,2e-05,0.00019,-1e-05,3e-05,0.00014,3,27
10915,-3e-05,-1e-05,-2e-05,2e-05,0.00019,-1e-05,3e-05,0.00014,3,27
10916,-3e-05,-1e-05,-2e-05,2e-05,0.00019,-1e-05,3e-05,0.00014,3,27
10917,-3e-05,-1e-05,-2e-05,2e-05,0.00019,-1e-05,3e-05,0.00014,3,27
10918,-3e-05,-1e-05,-2e-05,2e-05,0.00019,-1e-05,3e-05,0.00014,3,27
10919,-3e-05,-1e-05,-2e-05,2e-05,0.00019,-1e-05,3e-05,0.00014,3,27
10920,-3e-05,-1e-05,-2e-05,2e-05,0.00019,-1e-05,3e-05,0.00014,3,27
10921,-3e-05,-1e-05,-2e-05,2e-05,0.00019,-1e-05,3e-05,0.00014,3,27
10922,-3e-05,-1e-05,-2e-05,2e-05,0.00019,-1e-05,3e-05,0.00014,3,27
10923,4e-05,3e-05,-2e-05,-4e-05,-0.0001,2e-05,0,-6e-05,3,27
10924,6e-05,0,2e-05,6e-05,0.00013,0,-2e-05,0.00012,3,27
10925,6e-05,0,2e-05,6e-05,0.00013,0,-2e-05,0.00012,3,27
10926,6e-05,0,2e-05,6e-05,0.00013,0,-2e-05,0.00012,3,27
10927,6e-05,0,2e-05,6e-05,0.00013,0,-2e-05,0.00012,3,27
10928,6e-05,0,2e-05,6e-05,0.00013,0,-2e-05,0.00012,3,27
10929,6e-05,0,2e-05,6e-05,0.00013,0,-2e-05,0.00012,3,27
10930,6e-05,0,2e-05,6e-05,0.00013,0,-2e-05,0.00012,3,27
10931,6e-05,0,2e-05,6e-05,0.00013,0,-2e-05,0.00012,3,27
10932,6e-05,0,2e-05,6e-05,0.00013,0,-2e-05,0.00012,3,27
10933,6e-05,0,2e-05,6e-05,0.00013,0,-2e-05,0.00012,3,27
10934,6e-05,0,2e-05,6e-05,0.00013,0,-2e-05,0.00012,3,27
10935,6e-05,0,2e-05,6e-05,0.00013,0,-2e-05,0.00012,3,27
10936,6e-05,0,2e-05,6e-05,0.00013,0,-2e-05,0.00012,3,27
10938,6e-05,0,2e-05,6e-05,0.00013,0,-2e-05,0.00012,3,27
10939,6e-05,0,2e-05,6e-05,0.00013,0,-2e-05,0.00012,3,27
10940,6e-05,0,2e-05,6e-05,0.00013,0,-2e-05,0.00012,3,27
10941,6e-05,0,2e-05,6e-05,0.00013,0,-2e-05,0.00012,3,27
10942,6e-05,0,2e-05,6e-05,0.00013,0,-2e-05,0.00012,3,27
10943,6e-05,0,2e-05,6e-05,0.00013,0,-2e-05,0.00012,3,27
10944,6e-05,0,2e-05,6e-05,0.00013,0,-2e-05,0.00012,3,27
10945,1e-05,0,0,0,5e-05,3e-05,1e-05,4e-05,3,27
10946,-4e-05,0,-2e-05,-4e-05,-4e-05,-3e-05,0,-0.00015,3,27
10947,-4e-05,0,-2e-05,-4e-05,-4e-05,-3e-05,0,-0.00015,3,27
10948,-4e-05,0,-2e-05,-4e-05,-4e-05,-3e-05,0,-0.00015,3,27
10949,-4e-05,0,-2e-05,-4e-05,-4e-05,-3e-05,0,-0.00015,3,27
10950,-4e-05,0,-2e-05,-4e-05,-4e-05,-3e-05,0,-0.00015,3,27
10951,-4e-05,0,-2e-05,-4e-05,-4e-05,-3e-05,0,-0.00015,3,27
10952,-4e-05,0,-2e-05,-4e-05,-4e-05,-3e-05,0,-0.00015,3,27
10953,-4e-05,0,-2e-05,-4e-05,-4e-05,-3e-05,0,-0.00015,3,27
10954,-4e-05,0,-2e-05,-4e-05,-4e-05,-3e-05,0,-0.00015,3,27
10955,-4e-05,0,-2e-05,-4e-05,-4e-05,-3e-05,0,-0.00015,3,27
10956,-4e-05,0,-2e-05,-4e-05,-4e-05,-3e-05,0,-0.00015,3,27
10957,-4e-05,0,-2e-05,-4e-05,-4e-05,-3e-05,0,-0.00015,3,27
10958,-4e-05,0,-2e-05,-4e-05,-4e-05,-3e-05,0,-0.00015,3,27
10959,-4e-05,0,-2e-05,-4e-05,-4e-05,-3e-05,0,-0.00015,3,27
10960,-4e-05,0,-2e-05,-4e-05,-4e-05,-3e-05,0,-0.00015,3,27
10961,-4e-05,0,-2e-05,-4e-05,-4e-05,-3e-05,0,-0.00015,3,27
10962,-4e-05,0,-2e-05,-4e-05,-4e-05,-3e-05,0,-0.00015,3,27
10963,-4e-05,0,-2e-05,-4e-05,-4e-05,-3e-05,0,-0.00015,3,27
10964,-4e-05,0,-2e-05,-4e-05,-4e-05,-3e-05,0,-0.00015,3,27
10965,-4e-05,0,-2e-05,-4e-05,-4e-05,-3e-05,0,-0.00015,3,27
10966,-4e-05,0,-2e-05,-4e-05,-4e-05,-3e-05,0,-0.00015,3,27
10967,-4e-05,0,-2e-05,-4e-05,-4e-05,-3e-05,0,-0.00015,3,27
10968,-4e-05,0,-2e-05,-4e-05,-4e-05,-3e-05,0,-0.00015,3,27
10969,2e-05,-2e-05,-2e-05,0,-3e-05,3e-05,0,-1e-05,3,27
10970,-5e-05,0,1e-05,-4e-05,-0.0001,-8e-05,-4e-05,-8e-05,3,27
10972,-5e-05,0,1e-05,-4e-05,-0.0001,-8e-05,-4e-05,-8e-05,3,27
10973,-5e-05,0,1e-05,-4e-05,-0.0001,-8e-05,-4e-05,-8e-05,3,27
10974,-5e-05,0,1e-05,-4e-05,-0.0001,-8e-05,-4e-05,-8e-05,3,27
10975,-5e-05,0,1e-05,-4e-05,-0.0001,-8e-05,-4e-05,-8e-05,3,27
10976,-5e-05,0,1e-05,-4e-05,-0.0001,-8e-05,-4e-05,-8e-05,3,27
10977,-5e-05,0,1e-05,-4e-05,-0.0001,-8e-05,-4e-05,-8e-05,3,27
10978,-5e-05,0,1e-05,-4e-05,-0.0001,-8e-05,-4e-05,-8e-05,3,27
10979,-5e-05,0,1e-05,-4e-05,-0.0001,-8e-05,-4e-05,-8e-05,3,27
10980,-5e-05,0,1e-05,-4e-05,-0.0001,-8e-05,-4e-05,-8e-05,3,27
10981,-5e-05,0,1e-05,-4e-05,-0.0001,-8e-05,-4e-05,-8e-05,3,27
10982,-5e-05,0,1e-05,-4e-05,-0.0001,-8e-05,-4e-05,-8e-05,3,27
10983,-2e-05,-2e-05,-2e-05,-3e-05,0,-8e-05,-5e-05,0,3,27
10984,-3e-05,1e-05,-1e-05,-7e-05,-8e-05,-6e-05,-0.00013,-4e-05,3,27
10985,-3e-05,1e-05,-1e-05,-7e-05,-8e-05,-6e-05,-0.00013,-4e-05,3,27
10986,-3e-05,1e-05,-1e-05,-7e-05,-8e-05,-6e-05,-0.00013,-4e-05,3,27
10988,-3e-05,1e-05,-1e-05,-7e-05,-8e-05,-6e-05,-0.00013,-4e-05,3,27
10989,-3e-05,1e-05,-1e-05,-7e-05,-8e-05,-6e-05,-0.00013,-4e-05,3,27
10990,-3e-05,1e-05,-1e-05,-7e-05,-8e-05,-6e-05,-0.00013,-4e-05,3,27
10991,-3e-05,1e-05,-1e-05,-7e-05,-8e-05,-6e-05,-0.00013,-4e-05,3,27
10992,-3e-05,1e-05,-1e-05,-7e-05,-8e-05,-6e-05,-0.00013,-4e-05,3,27
10993,-3e-05,1e-05,-1e-05,-7e-05,-8e-05,-6e-05,-0.00013,-4e-05,3,27
10994,-3e-05,1e-05,-1e-05,-7e-05,-8e-05,-6e-05,-0.00013,-4e-05,3,27
10995,-3e-05,1e-05,-1e-05,-7e-05,-8e-05,-6e-05,-0.00013,-4e-05,3,27
10996,-3e-05,1e-05,-1e-05,-7e-05,-8e-05,-6e-05,-0.00013,-4e-05,3,27
10997,-3e-05,1e-05,-1e-05,-7e-05,-8e-05,-6e-05,-0.00013,-4e-05,3,27
10998,-3e-05,1e-05,-1e-05,-7e-05,-8e-05,-6e-05,-0.00013,-4e-05,3,27
10999,-3e-05,1e-05,-1e-05,-7e-05,-8e-05,-6e-05,-0.00013,-4e-05,3,27
11000,-3e-05,1e-05,-1e-05,-7e-05,-8e-05,-6e-05,-0.00013,-4e-05,3,27
11001,-3e-05,1e-05,-1e-05,-7e-05,-8e-05,-6e-05,-0.00013,-4e-05,3,27
11002,-3e-05,1e-05,-1e-05,-7e-05,-8e-05,-6e-05,-0.00013,-4e-05,3,27
11003,-3e-05,1e-05,-1e-05,-7e-05,-8e-05,-6e-05,-0.00013,-4e-05,3,27
11004,-3e-05,1e-05,-1e-05,-7e-05,-8e-05,-6e-05,-0.00013,-4e-05,3,27
11005,-4e-05,-2e-05,-3e-05,0,3e-05,-6e-05,-1e-05,-4e-05,3,27
11006,-4e-05,-2e-05,-3e-05,0,3e-05,-6e-05,-1e-05,-4e-05,3,27
11007,2e-05,0,-2e-05,-1e-05,-0.00026,0,8e-05,-0.00015,3,27
11008,2e-05,0,-2e-05,-1e-05,-0.00026,0,8e-05,-0.00015,3,27
11009,2e-05,0,-2e-05,-1e-05,-0.00026,0,8e-05,-0.00015,3,27
11010,2e-05,0,-2e-05,-1e-05,-0.00026,0,8e-05,-0.00015,3,27
11011,2e-05,0,-2e-05,-1e-05,-0.00026,0,8e-05,-0.00015,3,27
11012,2e-05,0,-2e-05,-1e-05,-0.00026,0,8e-05,-0.00015,3,27
11013,2e-05,0,-2e-05,-1e-05,-0.00026,0,8e-05,-0.00015,3,27
11014,2e-05,0,-2e-05,-1e-05,-0.00026,0,8e-05,-0.00015,3,27
11015,2e-05,0,-2e-05,-1e-05,-0.00026,0,8e-05,-0.00015,3,27
11016,2e-05,0,-2e-05,-1e-05,-0.00026,0,8e-05,-0.00015,3,27
11017,2e-05,0,-2e-05,-1e-05,-0.00026,0,8e-05,-0.00015,3,27
11018,2e-05,0,-2e-05,-1e-05,-0.00026,0,8e-05,-0.00015,3,27
11019,2e-05,0,-2e-05,-1e-05,-0.00026,0,8e-05,-0.00015,3,27
11020,2e-05,0,-2e-05,-1e-05,-0.00026,0,8e-05,-0.00015,3,27
11021,2e-05,0,-2e-05,-1e-05,-0.00026,0,8e-05,-0.00015,3,27
11022,2e-05,0,-2e-05,-1e-05,-0.00026,0,8e-05,-0.00015,3,27
11023,2e-05,0,-2e-05,-1e-05,-0.00026,0,8e-05,-0.00015,3,27
11024,2e-05,0,-2e-05,-1e-05,-0.00026,0,8e-05,-0.00015,3,27
11025,2e-05,0,-2e-05,-1e-05,-0.00026,0,8e-05,-0.00015,3,27
11026,2e-05,0,-2e-05,-1e-05,-0.00026,0,8e-05,-0.00015,3,27
11027,2e-05,0,-2e-05,-1e-05,-0.00026,0,8e-05,-0.00015,3,27
11028,2e-05,0,-2e-05,-1e-05,-0.00026,0,8e-05,-0.00015,3,27
11029,3e-05,-2e-05,-1e-05,-1e-05,4e-05,1e-05,4e-05,0.00023,3,27
11030,-6e-05,-3e-05,-3e-05,-5e-05,-6e-05,-5e-05,-0.00015,-4e-05,3,27
11031,-6e-05,-3e-05,-3e-05,-5e-05,-6e-05,-5e-05,-0.00015,-4e-05,3,27
11032,-6e-05,-3e-05,-3e-05,-5e-05,-6e-05,-5e-05,-0.00015,-4e-05,3,27
11033,-6e-05,-3e-05,-3e-05,-5e-05,-6e-05,-5e-05,-0.00015,-4e-05,3,27
11034,-6e-05,-3e-05,-3e-05,-5e-05,-6e-05,-5e-05,-0.00015,-4e-05,3,27
11035,-6e-05,-3e-05,-3e-05,-5e-05,-6e-05,-5e-05,-0.00015,-4e-05,3,27
11036,-6e-05,-3e-05,-3e-05,-5e-05,-6e-05,-5e-05,-0.00015,-4e-05,3,27
11038,-6e-05,-3e-05,-3e-05,-5e-05,-6e-05,-5e-05,-0.00015,-4e-05,3,27
11039,-6e-05,-3e-05,-3e-05,-5e-05,-6e-05,-5e-05,-0.00015,-4e-05,3,27
11040,-6e-05,-3e-05,-3e-05,-5e-05,-6e-05,-5e-05,-0.00015,-4e-05,3,27
11041,-6e-05,-3e-05,-3e-05,-5e-05,-6e-05,-5e-05,-0.00015,-4e-05,3,27
11042,-6e-05,-3e-05,-3e-05,-5e-05,-6e-05,-5e-05,-0.00015,-4e-05,3,27
11043,3e-05,1e-05,1e-05,2e-05,-1e-05,7e-05,-2e-05,3e-05,3,27
11044,0,-2e-05,-1e-05,-3e-05,-0.00011,1e-05,7e-05,0.00011,3,27
11045,0,-2e-05,-1e-05,-3e-05,-0.00011,1e-05,7e-05,0.00011,3,27
11046,0,-2e-05,-1e-05,-3e-05,-0.00011,1e-05,7e-05,0.00011,3,27
11047,0,-2e-05,-1e-05,-3e-05,-0.00011,1e-05,7e-05,0.00011,3,27
11048,0,-2e-05,-1e-05,-3e-05,-0.00011,1e-05,7e-05,0.00011,3,27
11049,0,-2e-05,-1e-05,-3e-05,-0.00011,1e-05,7e-05,0.00011,3,27
11050,0,-2e-05,-1e-05,-3e-05,-0.00011,1e-05,7e-05,0.00011,3,27
11051,0,-2e-05,-1e-05,-3e-05,-0.00011,1e-05,7e-05,0.00011,3,27
11052,0,-2e-05,-1e-05,-3e-05,-0.00011,1e-05,7e-05,0.00011,3,27
11053,0,-2e-05,-1e-05,-3e-05,-0.00011,1e-05,7e-05,0.00011,3,27
11054,0,-2e-05,-1e-05,-3e-05,-0.00011,1e-05,7e-05,0.00011,3,27
11055,0,-2e-05,-1e-05,-3e-05,-0.00011,1e-05,7e-05,0.00011,3,27
11056,0,-2e-05,-1e-05,-3e-05,-0.00011,1e-05,7e-05,0.00011,3,27
11057,0,-2e-05,-1e-05,-3e-05,-0.00011,1e-05,7e-05,0.00011,3,27
11058,0,-2e-05,-1e-05,-3e-05,-0.00011,1e-05,7e-05,0.00011,3,27
11059,0,-2e-05,-1e-05,-3e-05,-0.00011,1e-05,7e-05,0.00011,3,27
11060,0,-2e-05,-1e-05,-3e-05,-0.00011,1e-05,7e-05,0.00011,3,27
11061,0,-2e-05,-1e-05,-3e-05,-0.00011,1e-05,7e-05,0.00011,3,27
11062,0,-2e-05,-1e-05,-3e-05,-0.00011,1e-05,7e-05,0.00011,3,27
11063,0,-2e-05,-1e-05,-3e-05,-0.00011,1e-05,7e-05,0.00011,3,27
11064,0,-2e-05,-1e-05,-3e-05,-0.00011,1e-05,7e-05,0.00011,3,27
11065,0,-2e-05,-1e-05,-3e-05,-0.00011,1e-05,7e-05,0.00011,3,27
11066,-1e-05,2e-05,1e-05,2e-05,6e-05,-2e-05,0,-2e-05,3,27
11067,-1e-05,2e-05,1e-05,2e-05,6e-05,-2e-05,0,-2e-05,3,27
11068,-1e-05,2e-05,1e-05,2e-05,6e-05,-2e-05,0,-2e-05,3,27
11069,-1e-05,2e-05,1e-05,2e-05,6e-05,-2e-05,0,-2e-05,3,27
11070,-1e-05,2e-05,1e-05,2e-05,6e-05,-2e-05,0,-2e-05,3,27
11071,-1e-05,2e-05,1e-05,2e-05,6e-05,-2e-05,0,-2e-05,3,27
11072,-1e-05,2e-05,1e-05,2e-05,6e-05,-2e-05,0,-2e-05,3,27
11073,-1e-05,2e-05,1e-05,2e-05,6e-05,-2e-05,0,-2e-05,3,27
11074,-1e-05,2e-05,1e-05,2e-05,6e-05,-2e-05,0,-2e-05,3,27
11075,-1e-05,2e-05,1e-05,2e-05,6e-05,-2e-05,0,-2e-05,3,27
11076,-1e-05,2e-05,1e-05,2e-05,6e-05,-2e-05,0,-2e-05,3,27
11077,-1e-05,2e-05,1e-05,2e-05,6e-05,-2e-05,0,-2e-05,3,27
11078,-1e-05,2e-05,1e-05,2e-05,6e-05,-2e-05,0,-2e-05,3,27
11079,-1e-05,2e-05,1e-05,2e-05,6e-05,-2e-05,0,-2e-05,3,27
11080,-1e-05,2e-05,1e-05,2e-05,6e-05,-2e-05,0,-2e-05,3,27
11081,-1e-05,2e-05,1e-05,2e-05,6e-05,-2e-05,0,-2e-05,3,27
11082,-1e-05,2e-05,1e-05,2e-05,6e-05,-2e-05,0,-2e-05,3,27
11083,-1e-05,2e-05,1e-05,2e-05,6e-05,-2e-05,0,-2e-05,3,27
11084,-1e-05,2e-05,1e-05,2e-05,6e-05,-2e-05,0,-2e-05,3,27
11085,-1e-05,2e-05,1e-05,2e-05,6e-05,-2e-05,0,-2e-05,3,27
11086,-1e-05,2e-05,1e-05,2e-05,6e-05,-2e-05,0,-2e-05,3,27
11088,-1e-05,2e-05,1e-05,2e-05,6e-05,-2e-05,0,-2e-05,3,27
11089,2e-05,0,-1e-05,-2e-05,-3e-05,1e-05,2e-05,-2e-05,3,27
11090,-1e-05,-2e-05,-4e-05,-5e-05,-0.00013,-2e-05,0,7e-05,3,27
11091,-1e-05,-2e-05,-4e-05,-5e-05,-0.00013,-2e-05,0,7e-05,3,27
11092,-1e-05,-2e-05,-4e-05,-5e-05,-0.00013,-2e-05,0,7e-05,3,27
11093,-1e-05,-2e-05,-4e-05,-5e-05,-0.00013,-2e-05,0,7e-05,3,27
11094,-1e-05,-2e-05,-4e-05,-5e-05,-0.00013,-2e-05,0,7e-05,3,27
11095,-1e-05,-2e-05,-4e-05,-5e-05,-0.00013,-2e-05,0,7e-05,3,27
11096,-1e-05,-2e-05,-4e-05,-5e-05,-0.00013,-2e-05,0,7e-05,3,27
11097,-1e-05,-2e-05,-4e-05,-5e-05,-0.00013,-2e-05,0,7e-05,3,27
11098,-1e-05,-2e-05,-4e-05,-5e-05,-0.00013,-2e-05,0,7e-05,3,27
11099,-1e-05,-2e-05,-4e-05,-5e-05,-0.00013,-2e-05,0,7e-05,3,27
11100,-1e-05,-2e-05,-4e-05,-5e-05,-0.00013,-2e-05,0,7e-05,3,27
11101,-1e-05,-2e-05,-4e-05,-5e-05,-0.00013,-2e-05,0,7e-05,3,27
11102,-1e-05,-2e-05,-4e-05,-5e-05,-0.00013,-2e-05,0,7e-05,3,27
11103,2e-05,1e-05,2e-05,-1e-05,-0.0001,2e-05,0,3e-05,3,27
11104,-1e-05,-2e-05,0,4e-05,5e-05,0.00019,9e-05,-0.0001,3,27
11105,-1e-05,-2e-05,0,4e-05,5e-05,0.00019,9e-05,-0.0001,3,27
11106,-1e-05,-2e-05,0,4e-05,5e-05,0.00019,9e-05,-0.0001,3,27
11107,-1e-05,-2e-05,0,4e-05,5e-05,0.00019,9e-05,-0.0001,3,27
11108,-1e-05,-2e-05,0,4e-05,5e-05,0.00019,9e-05,-0.0001,3,27
11109,-1e-05,-2e-05,0,4e-05,5e-05,0.00019,9e-05,-0.0001,3,27
11110,-1e-05,-2e-05,0,4e-05,5e-05,0.00019,9e-05,-0.0001,3,27
11111,-1e-05,-2e-05,0,4e-05,5e-05,0.00019,9e-05,-0.0001,3,27
11112,-1e-05,-2e-05,0,4e-05,5e-05,0.00019,9e-05,-0.0001,3,27
11113,-1e-05,-2e-05,0,4e-05,5e-05,0.00019,9e-05,-0.0001,3,27
11114,-1e-05,-2e-05,0,4e-05,5e-05,0.00019,9e-05,-0.0001,3,27
11115,-1e-05,-2e-05,0,4e-05,5e-05,0.00019,9e-05,-0.0001,3,27
11116,-1e-05,-2e-05,0,4e-05,5e-05,0.00019,9e-05,-0.0001,3,27
11117,-1e-05,-2e-05,0,4e-05,5e-05,0.00019,9e-05,-0.0001,3,27
11118,-1e-05,-2e-05,0,4e-05,5e-05,0.00019,9e-05,-0.0001,3,27
11119,-1e-05,-2e-05,0,4e-05,5e-05,0.00019,9e-05,-0.0001,3,27
11120,-1e-05,-2e-05,0,4e-05,5e-05,0.00019,9e-05,-0.0001,3,27
11121,-1e-05,-2e-05,0,4e-05,5e-05,0.00019,9e-05,-0.0001,3,27
11122,-1e-05,-2e-05,0,4e-05,5e-05,0.00019,9e-05,-0.0001,3,27
11123,-1e-05,-2e-05,0,4e-05,5e-05,0.00019,9e-05,-0.0001,3,27
11124,-1e-05,-2e-05,0,4e-05,5e-05,0.00019,9e-05,-0.0001,3,27
11125,-2e-05,-2e-05,-1e-05,-4e-05,-0.00017,-5e-05,-8e-05,-0.00013,3,27
11126,-3e-05,-2e-05,-1e-05,1e-05,7e-05,1e-05,3e-05,0,3,27
11127,-3e-05,-2e-05,-1e-05,1e-05,7e-05,1e-05,3e-05,0,3,27
11128,-3e-05,-2e-05,-1e-05,1e-05,7e-05,1e-05,3e-05,0,3,27
11129,-3e-05,-2e-05,-1e-05,1e-05,7e-05,1e-05,3e-05,0,3,27
11130,-3e-05,-2e-05,-1e-05,1e-05,7e-05,1e-05,3e-05,0,3,27
11131,-3e-05,-2e-05,-1e-05,1e-05,7e-05,1e-05,3e-05,0,3,27
11132,-3e-05,-2e-05,-1e-05,1e-05,7e-05,1e-05,3e-05,0,3,27
11133,-3e-05,-2e-05,-1e-05,1e-05,7e-05,1e-05,3e-05,0,3,27
11134,-3e-05,-2e-05,-1e-05,1e-05,7e-05,1e-05,3e-05,0,3,27
11135,-3e-05,-2e-05,-1e-05,1e-05,7e-05,1e-05,3e-05,0,3,27
11136,-3e-05,-2e-05,-1e-05,1e-05,7e-05,1e-05,3e-05,0,3,27
11138,-3e-05,-2e-05,-1e-05,1e-05,7e-05,1e-05,3e-05,0,3,27
11139,-3e-05,-2e-05,-1e-05,1e-05,7e-05,1e-05,3e-05,0,3,27
11140,-3e-05,-2e-05,-1e-05,1e-05,7e-05,1e-05,3e-05,0,3,27
11141,-3e-05,-2e-05,-1e-05,1e-05,7e-05,1e-05,3e-05,0,3,27
11142,-3e-05,-2e-05,-1e-05,1e-05,7e-05,1e-05,3e-05,0,3,27
11143,-3e-05,-2e-05,-1e-05,1e-05,7e-05,1e-05,3e-05,0,3,27
11144,-3e-05,-2e-05,-1e-05,1e-05,7e-05,1e-05,3e-05,0,3,27
11145,-3e-05,-2e-05,-1e-05,1e-05,7e-05,1e-05,3e-05,0,3,27
11146,-3e-05,-2e-05,-1e-05,1e-05,7e-05,1e-05,3e-05,0,3,27
11147,-3e-05,-2e-05,-1e-05,1e-05,7e-05,1e-05,3e-05,0,3,27
11148,-3e-05,-2e-05,-1e-05,1e-05,7e-05,1e-05,3e-05,0,3,27
11149,-3e-05,-3e-05,-4e-05,0,0.00017,2e-05,-1e-05,-2e-05,3,27
11150,1e-05,0,-2e-05,0,8e-05,-3e-05,-5e-05,-0.00012,3,27
11151,1e-05,0,-2e-05,0,8e-05,-3e-05,-5e-05,-0.00012,3,27
11152,1e-05,0,-2e-05,0,8e-05,-3e-05,-5e-05,-0.00012,3,27
11153,1e-05,0,-2e-05,0,8e-05,-3e-05,-5e-05,-0.00012,3,27
11154,1e-05,0,-2e-05,0,8e-05,-3e-05,-5e-05,-0.00012,3,27
11155,1e-05,0,-2e-05,0,8e-05,-3e-05,-5e-05,-0.00012,3,27
11156,1e-05,0,-2e-05,0,8e-05,-3e-05,-5e-05,-0.00012,3,27
11157,1e-05,0,-2e-05,0,8e-05,-3e-05,-5e-05,-0.00012,3,27
11158,1e-05,0,-2e-05,0,8e-05,-3e-05,-5e-05,-0.00012,3,27
11159,1e-05,0,-2e-05,0,8e-05,-3e-05,-5e-05,-0.00012,3,27
11160,1e-05,0,-2e-05,0,8e-05,-3e-05,-5e-05,-0.00012,3,27
11161,1e-05,0,-2e-05,0,8e-05,-3e-05,-5e-05,-0.00012,3,27
11162,1e-05,0,-2e-05,0,8e-05,-3e-05,-5e-05,-0.00012,3,27
11163,-1e-05,1e-05,0,0,0,-8e-05,-3e-05,5e-05,3,27
11164,0,0,-1e-05,2e-05,0.00018,-2e-05,2e-05,1e-05,3,27
11165,0,0,-1e-05,2e-05,0.00018,-2e-05,2e-05,1e-05,3,27
11166,0,0,-1e-05,2e-05,0.00018,-2e-05,2e-05,1e-05,3,27
11167,0,0,-1e-05,2e-05,0.00018,-2e-05,2e-05,1e-05,3,27
11168,0,0,-1e-05,2e-05,0.00018,-2e-05,2e-05,1e-05,3,27
11169,0,0,-1e-05,2e-05,0.00018,-2e-05,2e-05,1e-05,3,27
11170,0,0,-1e-05,2e-05,0.00018,-2e-05,2e-05,1e-05,3,27
11171,0,0,-1e-05,2e-05,0.00018,-2e-05,2e-05,1e-05,3,27
11172,0,0,-1e-05,2e-05,0.00018,-2e-05,2e-05,1e-05,3,27
11173,0,0,-1e-05,2e-05,0.00018,-2e-05,2e-05,1e-05,3,27
11174,0,0,-1e-05,2e-05,0.00018,-2e-05,2e-05,1e-05,3,27
11175,0,0,-1e-05,2e-05,0.00018,-2e-05,2e-05,1e-05,3,27
11176,0,0,-1e-05,2e-05,0.00018,-2e-05,2e-05,1e-05,3,27
11177,0,0,-1e-05,2e-05,0.00018,-2e-05,2e-05,1e-05,3,27
11178,0,0,-1e-05,2e-05,0.00018,-2e-05,2e-05,1e-05,3,27
11179,0,0,-1e-05,2e-05,0.00018,-2e-05,2e-05,1e-05,3,27
11180,0,0,-1e-05,2e-05,0.00018,-2e-05,2e-05,1e-05,3,27
11181,0,0,-1e-05,2e-05,0.00018,-2e-05,2e-05,1e-05,3,27
11182,0,0,-1e-05,2e-05,0.00018,-2e-05,2e-05,1e-05,3,27
11183,0,0,-1e-05,2e-05,0.00018,-2e-05,2e-05,1e-05,3,27
11184,0,0,-1e-05,2e-05,0.00018,-2e-05,2e-05,1e-05,3,27
11185,0,0,-1e-05,2e-05,0.00018,-2e-05,2e-05,1e-05,3,27
11186,-3e-05,-5e-05,-3e-05,-2e-05,-5e-05,-6e-05,-4e-05,2e-05,3,27
11188,-3e-05,-5e-05,-3e-05,-2e-05,-5e-05,-6e-05,-4e-05,2e-05,3,27
11189,-3e-05,-5e-05,-3e-05,-2e-05,-5e-05,-6e-05,-4e-05,2e-05,3,27
11190,-3e-05,-5e-05,-3e-05,-2e-05,-5e-05,-6e-05,-4e-05,2e-05,3,27
11191,-3e-05,-5e-05,-3e-05,-2e-05,-5e-05,-6e-05,-4e-05,2e-05,3,27
11192,-3e-05,-5e-05,-3e-05,-2e-05,-5e-05,-6e-05,-4e-05,2e-05,3,27
11193,-3e-05,-5e-05,-3e-05,-2e-05,-5e-05,-6e-05,-4e-05,2e-05,3,27
11194,-3e-05,-5e-05,-3e-05,-2e-05,-5e-05,-6e-05,-4e-05,2e-05,3,27
11195,-3e-05,-5e-05,-3e-05,-2e-05,-5e-05,-6e-05,-4e-05,2e-05,3,27
11196,-3e-05,-5e-05,-3e-05,-2e-05,-5e-05,-6e-05,-4e-05,2e-05,3,27
11197,-3e-05,-5e-05,-3e-05,-2e-05,-5e-05,-6e-05,-4e-05,2e-05,3,27
11198,-3e-05,-5e-05,-3e-05,-2e-05,-5e-05,-6e-05,-4e-05,2e-05,3,27
11199,-3e-05,-5e-05,-3e-05,-2e-05,-5e-05,-6e-05,-4e-05,2e-05,3,27
11200,-3e-05,-5e-05,-3e-05,-2e-05,-5e-05,-6e-05,-4e-05,2e-05,3,27
11201,-3e-05,-5e-05,-3e-05,-2e-05,-5e-05,-6e-05,-4e-05,2e-05,3,27
11202,-3e-05,-5e-05,-3e-05,-2e-05,-5e-05,-6e-05,-4e-05,2e-05,3,27
11203,-3e-05,-5e-05,-3e-05,-2e-05,-5e-05,-6e-05,-4e-05,2e-05,3,27
11204,-3e-05,-5e-05,-3e-05,-2e-05,-5e-05,-6e-05,-4e-05,2e-05,3,27
11205,-3e-05,-5e-05,-3e-05,-2e-05,-5e-05,-6e-05,-4e-05,2e-05,3,27
11206,-3e-05,-5e-05,-3e-05,-2e-05,-5e-05,-6e-05,-4e-05,2e-05,3,27
11207,-3e-05,-5e-05,-3e-05,-2e-05,-5e-05,-6e-05,-4e-05,2e-05,3,27
11208,-3e-05,-5e-05,-3e-05,-2e-05,-5e-05,-6e-05,-4e-05,2e-05,3,27
11209,-1e-05,0,-1e-05,0,-4e-05,-0.0001,-0.0001,-7e-05,3,27
11210,1e-05,0,0,-5e-05,5e-05,1e-05,1e-05,8e-05,3,27
11211,1e-05,0,0,-5e-05,5e-05,1e-05,1e-05,8e-05,3,27
11212,1e-05,0,0,-5e-05,5e-05,1e-05,1e-05,8e-05,3,27
11213,1e-05,0,0,-5e-05,5e-05,1e-05,1e-05,8e-05,3,27
11214,1e-05,0,0,-5e-05,5e-05,1e-05,1e-05,8e-05,3,27
11215,1e-05,0,0,-5e-05,5e-05,1e-05,1e-05,8e-05,3,27
11216,1e-05,0,0,-5e-05,5e-05,1e-05,1e-05,8e-05,3,27
11217,1e-05,0,0,-5e-05,5e-05,1e-05,1e-05,8e-05,3,27
11218,1e-05,0,0,-5e-05,5e-05,1e-05,1e-05,8e-05,3,27
11219,1e-05,0,0,-5e-05,5e-05,1e-05,1e-05,8e-05,3,27
11220,1e-05,0,0,-5e-05,5e-05,1e-05,1e-05,8e-05,3,27
11221,1e-05,0,0,-5e-05,5e-05,1e-05,1e-05,8e-05,3,27
11222,1e-05,0,0,-5e-05,5e-05,1e-05,1e-05,8e-05,3,27
11223,-3e-05,-2e-05,-1e-05,2e-05,1e-05,3e-05,5e-05,0.0002,3,27
11224,2e-05,-1e-05,-2e-05,0,-0.00017,-3e-05,4e-05,4e-05,3,27
11225,2e-05,-1e-05,-2e-05,0,-0.00017,-3e-05,4e-05,4e-05,3,27
11226,2e-05,-1e-05,-2e-05,0,-0.00017,-3e-05,4e-05,4e-05,3,27
11227,2e-05,-1e-05,-2e-05,0,-0.00017,-3e-05,4e-05,4e-05,3,27
11228,2e-05,-1e-05,-2e-05,0,-0.00017,-3e-05,4e-05,4e-05,3,27
11229,2e-05,-1e-05,-2e-05,0,-0.00017,-3e-05,4e-05,4e-05,3,27
11230,2e-05,-1e-05,-2e-05,0,-0.00017,-3e-05,4e-05,4e-05,3,27
11231,2e-05,-1e-05,-2e-05,0,-0.00017,-3e-05,4e-05,4e-05,3,27
11232,2e-05,-1e-05,-2e-05,0,-0.00017,-3e-05,4e-05,4e-05,3,27
11233,2e-05,-1e-05,-2e-05,0,-0.00017,-3e-05,4e-05,4e-05,3,27
11234,2e-05,-1e-05,-2e-05,0,-0.00017,-3e-05,4e-05,4e-05,3,27
11235,2e-05,-1e-05,-2e-05,0,-0.00017,-3e-05,4e-05,4e-05,3,27
11236,2e-05,-1e-05,-2e-05,0,-0.00017,-3e-05,4e-05,4e-05,3,27
11238,2e-05,-1e-05,-2e-05,0,-0.00017,-3e-05,4e-05,4e-05,3,27
11239,2e-05,-1e-05,-2e-05,0,-0.00017,-3e-05,4e-05,4e-05,3,27
11240,2e-05,-1e-05,-2e-05,0,-0.00017,-3e-05,4e-05,4e-05,3,27
11241,2e-05,-1e-05,-2e-05,0,-0.00017,-3e-05,4e-05,4e-05,3,27
11242,2e-05,-1e-05,-2e-05,0,-0.00017,-3e-05,4e-05,4e-05,3,27
11243,2e-05,-1e-05,-2e-05,0,-0.00017,-3e-05,4e-05,4e-05,3,27
11244,2e-05,-1e-05,-2e-05,0,-0.00017,-3e-05,4e-05,4e-05,3,27
11245,3e-05,-1e-05,0,3e-05,0.00023,3e-05,-0.00013,-8e-05,3,27
11246,-1e-05,1e-05,-2e-05,-2e-05,0.00016,-1e-05,-6e-05,5e-05,3,27
11247,-1e-05,1e-05,-2e-05,-2e-05,0.00016,-1e-05,-6e-05,5e-05,3,27
11248,-1e-05,1e-05,-2e-05,-2e-05,0.00016,-1e-05,-6e-05,5e-05,3,27
11249,-1e-05,1e-05,-2e-05,-2e-05,0.00016,-1e-05,-6e-05,5e-05,3,27
11250,-1e-05,1e-05,-2e-05,-2e-05,0.00016,-1e-05,-6e-05,5e-05,3,27
11251,-1e-05,1e-05,-2e-05,-2e-05,0.00016,-1e-05,-6e-05,5e-05,3,27
11252,-1e-05,1e-05,-2e-05,-2e-05,0.00016,-1e-05,-6e-05,5e-05,3,27
11253,-1e-05,1e-05,-2e-05,-2e-05,0.00016,-1e-05,-6e-05,5e-05,3,27
11254,-1e-05,1e-05,-2e-05,-2e-05,0.00016,-1e-05,-6e-05,5e-05,3,27
11255,-1e-05,1e-05,-2e-05,-2e-05,0.00016,-1e-05,-6e-05,5e-05,3,27
11256,-1e-05,1e-05,-2e-05,-2e-05,0.00016,-1e-05,-6e-05,5e-05,3,27
11257,-1e-05,1e-05,-2e-05,-2e-05,0.00016,-1e-05,-6e-05,5e-05,3,27
11258,-1e-05,1e-05,-2e-05,-2e-05,0.00016,-1e-05,-6e-05,5e-05,3,27
11259,-1e-05,1e-05,-2e-05,-2e-05,0.00016,-1e-05,-6e-05,5e-05,3,27
11260,-1e-05,1e-05,-2e-05,-2e-05,0.00016,-1e-05,-6e-05,5e-05,3,27
11261,-1e-05,1e-05,-2e-05,-2e-05,0.00016,-1e-05,-6e-05,5e-05,3,27
11262,-1e-05,1e-05,-2e-05,-2e-05,0.00016,-1e-05,-6e-05,5e-05,3,27
11263,-1e-05,1e-05,-2e-05,-2e-05,0.00016,-1e-05,-6e-05,5e-05,3,27
11264,-1e-05,1e-05,-2e-05,-2e-05,0.00016,-1e-05,-6e-05,5e-05,3,27
11265,-1e-05,1e-05,-2e-05,-2e-05,0.00016,-1e-05,-6e-05,5e-05,3,27
11266,-1e-05,1e-05,-2e-05,-2e-05,0.00016,-1e-05,-6e-05,5e-05,3,27
11267,-1e-05,1e-05,-2e-05,-2e-05,0.00016,-1e-05,-6e-05,5e-05,3,27
11268,-1e-05,1e-05,-2e-05,-2e-05,0.00016,-1e-05,-6e-05,5e-05,3,27
11269,1e-05,1e-05,2e-05,4e-05,0.00011,-1e-05,-1e-05,-5e-05,3,27
11270,-1e-05,1e-05,0,-5e-05,-0.00022,-1e-05,0,-8e-05,3,27
11271,-1e-05,1e-05,0,-5e-05,-0.00022,-1e-05,0,-8e-05,3,27
11272,-1e-05,1e-05,0,-5e-05,-0.00022,-1e-05,0,-8e-05,3,27
11273,-1e-05,1e-05,0,-5e-05,-0.00022,-1e-05,0,-8e-05,3,27
11274,-1e-05,1e-05,0,-5e-05,-0.00022,-1e-05,0,-8e-05,3,27
11275,-1e-05,1e-05,0,-5e-05,-0.00022,-1e-05,0,-8e-05,3,27
11276,-1e-05,1e-05,0,-5e-05,-0.00022,-1e-05,0,-8e-05,3,27
11277,-1e-05,1e-05,0,-5e-05,-0.00022,-1e-05,0,-8e-05,3,27
11278,-1e-05,1e-05,0,-5e-05,-0.00022,-1e-05,0,-8e-05,3,27
11280,-1e-05,1e-05,0,-5e-05,-0.00022,-1e-05,0,-8e-05,3,27
11281,-1e-05,1e-05,0,-5e-05,-0.00022,-1e-05,0,-8e-05,3,27
11282,-1e-05,1e-05,0,-5e-05,-0.00022,-1e-05,0,-8e-05,3,27
11283,-1e-05,0,0,2e-05,5e-05,-1e-05,-4e-05,-0.0001,3,27
11284,0,0,0,-1e-05,3e-05,3e-05,6e-05,-1e-05,3,27
11285,0,0,0,-1e-05,3e-05,3e-05,6e-05,-1e-05,3,27
11286,0,0,0,-1e-05,3e-05,3e-05,6e-05,-1e-05,3,27
11288,0,0,0,-1e-05,3e-05,3e-05,6e-05,-1e-05,3,27
11289,0,0,0,-1e-05,3e-05,3e-05,6e-05,-1e-05,3,27
11290,0,0,0,-1e-05,3e-05,3e-05,6e-05,-1e-05,3,27
11291,0,0,0,-1e-05,3e-05,3e-05,6e-05,-1e-05,3,27
11292,0,0,0,-1e-05,3e-05,3e-05,6e-05,-1e-05,3,27
11293,0,0,0,-1e-05,3e-05,3e-05,6e-05,-1e-05,3,27
11294,0,0,0,-1e-05,3e-05,3e-05,6e-05,-1e-05,3,27
11295,0,0,0,-1e-05,3e-05,3e-05,6e-05,-1e-05,3,27
11296,0,0,0,-1e-05,3e-05,3e-05,6e-05,-1e-05,3,27
11297,0,0,0,-1e-05,3e-05,3e-05,6e-05,-1e-05,3,27
11298,0,0,0,-1e-05,3e-05,3e-05,6e-05,-1e-05,3,27
11299,0,0,0,-1e-05,3e-05,3e-05,6e-05,-1e-05,3,27
11300,0,0,0,-1e-05,3e-05,3e-05,6e-05,-1e-05,3,27
11301,0,0,0,-1e-05,3e-05,3e-05,6e-05,-1e-05,3,27
11302,0,0,0,-1e-05,3e-05,3e-05,6e-05,-1e-05,3,27
11303,0,0,0,-1e-05,3e-05,3e-05,6e-05,-1e-05,3,27
11304,0,0,0,-1e-05,3e-05,3e-05,6e-05,-1e-05,3,27
11305,0,0,0,-1e-05,3e-05,3e-05,6e-05,-1e-05,3,27
11306,-1e-05,-3e-05,0,-3e-05,-7e-05,4e-05,0,-2e-05,3,27
11307,-1e-05,-3e-05,-2e-05,-1e-05,-3e-05,1e-05,-2e-05,7e-05,3,27
11308,-1e-05,-3e-05,-2e-05,-1e-05,-3e-05,1e-05,-2e-05,7e-05,3,27
11309,-1e-05,-3e-05,-2e-05,-1e-05,-3e-05,1e-05,-2e-05,7e-05,3,27
11310,-1e-05,-3e-05,-2e-05,-1e-05,-3e-05,1e-05,-2e-05,7e-05,3,27
11311,-1e-05,-3e-05,-2e-05,-1e-05,-3e-05,1e-05,-2e-05,7e-05,3,27
11312,-1e-05,-3e-05,-2e-05,-1e-05,-3e-05,1e-05,-2e-05,7e-05,3,27
11313,-1e-05,-3e-05,-2e-05,-1e-05,-3e-05,1e-05,-2e-05,7e-05,3,27
11314,-1e-05,-3e-05,-2e-05,-1e-05,-3e-05,1e-05,-2e-05,7e-05,3,27
11315,-1e-05,-3e-05,-2e-05,-1e-05,-3e-05,1e-05,-2e-05,7e-05,3,27
11316,-1e-05,-3e-05,-2e-05,-1e-05,-3e-05,1e-05,-2e-05,7e-05,3,27
11317,-1e-05,-3e-05,-2e-05,-1e-05,-3e-05,1e-05,-2e-05,7e-05,3,27
11318,-1e-05,-3e-05,-2e-05,-1e-05,-3e-05,1e-05,-2e-05,7e-05,3,27
11319,-1e-05,-3e-05,-2e-05,-1e-05,-3e-05,1e-05,-2e-05,7e-05,3,27
11320,-1e-05,-3e-05,-2e-05,-1e-05,-3e-05,1e-05,-2e-05,7e-05,3,27
11321,-1e-05,-3e-05,-2e-05,-1e-05,-3e-05,1e-05,-2e-05,7e-05,3,27
11322,-1e-05,-3e-05,-2e-05,-1e-05,-3e-05,1e-05,-2e-05,7e-05,3,27
11323,-1e-05,-3e-05,-2e-05,-1e-05,-3e-05,1e-05,-2e-05,7e-05,3,27
11324,-1e-05,-3e-05,-2e-05,-1e-05,-3e-05,1e-05,-2e-05,7e-05,3,27
11325,-1e-05,-3e-05,-2e-05,-1e-05,-3e-05,1e-05,-2e-05,7e-05,3,27
11326,-1e-05,-3e-05,-2e-05,-1e-05,-3e-05,1e-05,-2e-05,7e-05,3,27
11327,-1e-05,-3e-05,-2e-05,-1e-05,-3e-05,1e-05,-2e-05,7e-05,3,27
11328,-1e-05,-3e-05,-2e-05,-1e-05,-3e-05,1e-05,-2e-05,7e-05,3,27
11329,-3e-05,-2e-05,-2e-05,1e-05,3e-05,1e-05,3e-05,-5e-05,3,27
11330,-2e-05,-4e-05,0,-1e-05,0,-7e-05,-0.0001,-0.00012,3,27
11331,-2e-05,-4e-05,0,-1e-05,0,-7e-05,-0.0001,-0.00012,3,27
11332,-2e-05,-4e-05,0,-1e-05,0,-7e-05,-0.0001,-0.00012,3,27
11333,-2e-05,-4e-05,0,-1e-05,0,-7e-05,-0.0001,-0.00012,3,27
11334,-2e-05,-4e-05,0,-1e-05,0,-7e-05,-0.0001,-0.00012,3,27
11335,-2e-05,-4e-05,0,-1e-05,0,-7e-05,-0.0001,-0.00012,3,27
11336,-2e-05,-4e-05,0,-1e-05,0,-7e-05,-0.0001,-0.00012,3,27
11338,-2e-05,-4e-05,0,-1e-05,0,-7e-05,-0.0001,-0.00012,3,27
11339,-2e-05,-4e-05,0,-1e-05,0,-7e-05,-0.0001,-0.00012,3,27
11340,-2e-05,-4e-05,0,-1e-05,0,-7e-05,-0.0001,-0.00012,3,27
11341,-2e-05,-4e-05,0,-1e-05,0,-7e-05,-0.0001,-0.00012,3,27
11342,-2e-05,-4e-05,0,-1e-05,0,-7e-05,-0.0001,-0.00012,3,27
11343,-1e-05,0,0,-1e-05,-5e-05,0,2e-05,-3e-05,3,27
11344,3e-05,1e-05,1e-05,-1e-05,-6e-05,-6e-05,-3e-05,-0.00034,3,27
11345,3e-05,1e-05,1e-05,-1e-05,-6e-05,-6e-05,-3e-05,-0.00034,3,27
11346,3e-05,1e-05,1e-05,-1e-05,-6e-05,-6e-05,-3e-05,-0.00034,3,27
11347,3e-05,1e-05,1e-05,-1e-05,-6e-05,-6e-05,-3e-05,-0.00034,3,27
11348,3e-05,1e-05,1e-05,-1e-05,-6e-05,-6e-05,-3e-05,-0.00034,3,27
11349,3e-05,1e-05,1e-05,-1e-05,-6e-05,-6e-05,-3e-05,-0.00034,3,27
11350,3e-05,1e-05,1e-05,-1e-05,-6e-05,-6e-05,-3e-05,-0.00034,3,27
11351,3e-05,1e-05,1e-05,-1e-05,-6e-05,-6e-05,-3e-05,-0.00034,3,27
11352,3e-05,1e-05,1e-05,-1e-05,-6e-05,-6e-05,-3e-05,-0.00034,3,27
11353,3e-05,1e-05,1e-05,-1e-05,-6e-05,-6e-05,-3e-05,-0.00034,3,27
11354,3e-05,1e-05,1e-05,-1e-05,-6e-05,-6e-05,-3e-05,-0.00034,3,27
11355,3e-05,1e-05,1e-05,-1e-05,-6e-05,-6e-05,-3e-05,-0.00034,3,27
11356,3e-05,1e-05,1e-05,-1e-05,-6e-05,-6e-05,-3e-05,-0.00034,3,27
11357,3e-05,1e-05,1e-05,-1e-05,-6e-05,-6e-05,-3e-05,-0.00034,3,27
11358,3e-05,1e-05,1e-05,-1e-05,-6e-05,-6e-05,-3e-05,-0.00034,3,27
11359,3e-05,1e-05,1e-05,-1e-05,-6e-05,-6e-05,-3e-05,-0.00034,3,27
11360,3e-05,1e-05,1e-05,-1e-05,-6e-05,-6e-05,-3e-05,-0.00034,3,27
11361,3e-05,1e-05,1e-05,-1e-05,-6e-05,-6e-05,-3e-05,-0.00034,3,27
11362,3e-05,1e-05,1e-05,-1e-05,-6e-05,-6e-05,-3e-05,-0.00034,3,27
11363,3e-05,1e-05,1e-05,-1e-05,-6e-05,-6e-05,-3e-05,-0.00034,3,27
11364,3e-05,1e-05,1e-05,-1e-05,-6e-05,-6e-05,-3e-05,-0.00034,3,27
11365,-3e-05,-3e-05,-3e-05,1e-05,0,-1e-05,-6e-05,6e-05,3,27
11366,-8e-05,-4e-05,-4e-05,-5e-05,-1e-05,-1e-05,5e-05,0.00012,3,27
11367,-8e-05,-4e-05,-4e-05,-5e-05,-1e-05,-1e-05,5e-05,0.00012,3,27
11368,-8e-05,-4e-05,-4e-05,-5e-05,-1e-05,-1e-05,5e-05,0.00012,3,27
11369,-8e-05,-4e-05,-4e-05,-5e-05,-1e-05,-1e-05,5e-05,0.00012,3,27
11370,-8e-05,-4e-05,-4e-05,-5e-05,-1e-05,-1e-05,5e-05,0.00012,3,27
11371,-8e-05,-4e-05,-4e-05,-5e-05,-1e-05,-1e-05,5e-05,0.00012,3,27
11372,-8e-05,-4e-05,-4e-05,-5e-05,-1e-05,-1e-05,5e-05,0.00012,3,27
11373,-8e-05,-4e-05,-4e-05,-5e-05,-1e-05,-1e-05,5e-05,0.00012,3,27
11374,-8e-05,-4e-05,-4e-05,-5e-05,-1e-05,-1e-05,5e-05,0.00012,3,27
11375,-8e-05,-4e-05,-4e-05,-5e-05,-1e-05,-1e-05,5e-05,0.00012,3,27
11376,-8e-05,-4e-05,-4e-05,-5e-05,-1e-05,-1e-05,5e-05,0.00012,3,27
11377,-8e-05,-4e-05,-4e-05,-5e-05,-1e-05,-1e-05,5e-05,0.00012,3,27
11378,-8e-05,-4e-05,-4e-05,-5e-05,-1e-05,-1e-05,5e-05,0.00012,3,27
11379,-8e-05,-4e-05,-4e-05,-5e-05,-1e-05,-1e-05,5e-05,0.00012,3,27
11380,-8e-05,-4e-05,-4e-05,-5e-05,-1e-05,-1e-05,5e-05,0.00012,3,27
11381,-8e-05,-4e-05,-4e-05,-5e-05,-1e-05,-1e-05,5e-05,0.00012,3,27
11382,-8e-05,-4e-05,-4e-05,-5e-05,-1e-05,-1e-05,5e-05,0.00012,3,27
11383,-8e-05,-4e-05,-4e-05,-5e-05,-1e-05,-1e-05,5e-05,0.00012,3,27
11384,-8e-05,-4e-05,-4e-05,-5e-05,-1e-05,-1e-05,5e-05,0.00012,3,27
11385,-8e-05,-4e-05,-4e-05,-5e-05,-1e-05,-1e-05,5e-05,0.00012,3,27
11386,-8e-05,-4e-05,-4e-05,-5e-05,-1e-05,-1e-05,5e-05,0.00012,3,27
11388,-8e-05,-4e-05,-4e-05,-5e-05,-1e-05,-1e-05,5e-05,0.00012,3,27
11389,0,-1e-05,-2e-05,-4e-05,-0.00016,-6e-05,-4e-05,-0.00014,3,27
11390,-1e-05,-2e-05,-4e-05,-3e-05,-0.00012,-1e-05,-5e-05,0.00023,3,27
11391,-1e-05,-2e-05,-4e-05,-3e-05,-0.00012,-1e-05,-5e-05,0.00023,3,27
11392,-1e-05,-2e-05,-4e-05,-3e-05,-0.00012,-1e-05,-5e-05,0.00023,3,27
11393,-1e-05,-2e-05,-4e-05,-3e-05,-0.00012,-1e-05,-5e-05,0.00023,3,27
11394,-1e-05,-2e-05,-4e-05,-3e-05,-0.00012,-1e-05,-5e-05,0.00023,3,27
11395,-1e-05,-2e-05,-4e-05,-3e-05,-0.00012,-1e-05,-5e-05,0.00023,3,27
11396,-1e-05,-2e-05,-4e-05,-3e-05,-0.00012,-1e-05,-5e-05,0.00023,3,27
11397,-1e-05,-2e-05,-4e-05,-3e-05,-0.00012,-1e-05,-5e-05,0.00023,3,27
11398,-1e-05,-2e-05,-4e-05,-3e-05,-0.00012,-1e-05,-5e-05,0.00023,3,27
11399,-1e-05,-2e-05,-4e-05,-3e-05,-0.00012,-1e-05,-5e-05,0.00023,3,27
11400,-1e-05,-2e-05,-4e-05,-3e-05,-0.00012,-1e-05,-5e-05,0.00023,3,27
11401,-1e-05,-2e-05,-4e-05,-3e-05,-0.00012,-1e-05,-5e-05,0.00023,3,27
11402,-1e-05,-2e-05,-4e-05,-3e-05,-0.00012,-1e-05,-5e-05,0.00023,3,27
11403,-7e-05,-2e-05,-1e-05,-6e-05,-0.0001,-8e-05,-1e-05,0,3,27
11404,-2e-05,2e-05,1e-05,2e-05,0.0001,7e-05,5e-05,-6e-05,3,27
11405,-2e-05,2e-05,1e-05,2e-05,0.0001,7e-05,5e-05,-6e-05,3,27
11406,-2e-05,2e-05,1e-05,2e-05,0.0001,7e-05,5e-05,-6e-05,3,27
11407,-2e-05,2e-05,1e-05,2e-05,0.0001,7e-05,5e-05,-6e-05,3,27
11408,-2e-05,2e-05,1e-05,2e-05,0.0001,7e-05,5e-05,-6e-05,3,27
11409,-2e-05,2e-05,1e-05,2e-05,0.0001,7e-05,5e-05,-6e-05,3,27
11410,-2e-05,2e-05,1e-05,2e-05,0.0001,7e-05,5e-05,-6e-05,3,27
11411,-2e-05,2e-05,1e-05,2e-05,0.0001,7e-05,5e-05,-6e-05,3,27
11412,-2e-05,2e-05,1e-05,2e-05,0.0001,7e-05,5e-05,-6e-05,3,27
11413,-2e-05,2e-05,1e-05,2e-05,0.0001,7e-05,5e-05,-6e-05,3,27
11414,-2e-05,2e-05,1e-05,2e-05,0.0001,7e-05,5e-05,-6e-05,3,27
11415,-2e-05,2e-05,1e-05,2e-05,0.0001,7e-05,5e-05,-6e-05,3,27
11416,-2e-05,2e-05,1e-05,2e-05,0.0001,7e-05,5e-05,-6e-05,3,27
11417,-2e-05,2e-05,1e-05,2e-05,0.0001,7e-05,5e-05,-6e-05,3,27
11418,-2e-05,2e-05,1e-05,2e-05,0.0001,7e-05,5e-05,-6e-05,3,27
11419,-2e-05,2e-05,1e-05,2e-05,0.0001,7e-05,5e-05,-6e-05,3,27
11420,-2e-05,2e-05,1e-05,2e-05,0.0001,7e-05,5e-05,-6e-05,3,27
11421,-2e-05,2e-05,1e-05,2e-05,0.0001,7e-05,5e-05,-6e-05,3,27
11422,-2e-05,2e-05,1e-05,2e-05,0.0001,7e-05,5e-05,-6e-05,3,27
11423,-2e-05,2e-05,1e-05,2e-05,0.0001,7e-05,5e-05,-6e-05,3,27
11424,-2e-05,2e-05,1e-05,2e-05,0.0001,7e-05,5e-05,-6e-05,3,27
11425,-2e-05,2e-05,1e-05,2e-05,0.0001,7e-05,5e-05,-6e-05,3,27
11426,0,-1e-05,-2e-05,-5e-05,-4e-05,0,2e-05,-1e-05,3,27
11427,-4e-05,0,-1e-05,2e-05,0.00013,7e-05,6e-05,-5e-05,3,27
11428,-4e-05,0,-1e-05,2e-05,0.00013,7e-05,6e-05,-5e-05,3,27
11429,-4e-05,0,-1e-05,2e-05,0.00013,7e-05,6e-05,-5e-05,3,27
11430,-4e-05,0,-1e-05,2e-05,0.00013,7e-05,6e-05,-5e-05,3,27
11431,-4e-05,0,-1e-05,2e-05,0.00013,7e-05,6e-05,-5e-05,3,27
11432,-4e-05,0,-1e-05,2e-05,0.00013,7e-05,6e-05,-5e-05,3,27
11433,-4e-05,0,-1e-05,2e-05,0.00013,7e-05,6e-05,-5e-05,3,27
11434,-4e-05,0,-1e-05,2e-05,0.00013,7e-05,6e-05,-5e-05,3,27
11435,-4e-05,0,-1e-05,2e-05,0.00013,7e-05,6e-05,-5e-05,3,27
11436,-4e-05,0,-1e-05,2e-05,0.00013,7e-05,6e-05,-5e-05,3,27
11438,-4e-05,0,-1e-05,2e-05,0.00013,7e-05,6e-05,-5e-05,3,27
11439,-4e-05,0,-1e-05,2e-05,0.00013,7e-05,6e-05,-5e-05,3,27
11440,-4e-05,0,-1e-05,2e-05,0.00013,7e-05,6e-05,-5e-05,3,27
11441,-4e-05,0,-1e-05,2e-05,0.00013,7e-05,6e-05,-5e-05,3,27
11442,-4e-05,0,-1e-05,2e-05,0.00013,7e-05,6e-05,-5e-05,3,27
11443,-4e-05,0,-1e-05,2e-05,0.00013,7e-05,6e-05,-5e-05,3,27
11444,-4e-05,0,-1e-05,2e-05,0.00013,7e-05,6e-05,-5e-05,3,27
11445,-4e-05,0,-1e-05,2e-05,0.00013,7e-05,6e-05,-5e-05,3,27
11446,-4e-05,0,-1e-05,2e-05,0.00013,7e-05,6e-05,-5e-05,3,27
11447,-4e-05,0,-1e-05,2e-05,0.00013,7e-05,6e-05,-5e-05,3,27
11448,-4e-05,0,-1e-05,2e-05,0.00013,7e-05,6e-05,-5e-05,3,27
11449,-2e-05,0,0,-1e-05,-0.00018,-5e-05,-4e-05,0,3,27
11450,-2e-05,0,0,-1e-05,-0.00018,-5e-05,-4e-05,0,3,27
11451,-2e-05,0,0,-1e-05,-0.00018,-5e-05,-4e-05,0,3,27
11452,-2e-05,0,0,-1e-05,-0.00018,-5e-05,-4e-05,0,3,27
11453,-2e-05,0,0,-1e-05,-0.00018,-5e-05,-4e-05,0,3,27
11454,-2e-05,0,0,-1e-05,-0.00018,-5e-05,-4e-05,0,3,27
11455,-2e-05,0,0,-1e-05,-0.00018,-5e-05,-4e-05,0,3,27
11456,-2e-05,0,0,-1e-05,-0.00018,-5e-05,-4e-05,0,3,27
11457,-2e-05,0,0,-1e-05,-0.00018,-5e-05,-4e-05,0,3,27
11458,-2e-05,0,0,-1e-05,-0.00018,-5e-05,-4e-05,0,3,27
11459,-2e-05,0,0,-1e-05,-0.00018,-5e-05,-4e-05,0,3,27
11460,-2e-05,0,0,-1e-05,-0.00018,-5e-05,-4e-05,0,3,27
11461,-2e-05,0,0,-1e-05,-0.00018,-5e-05,-4e-05,0,3,27
11462,0,-4e-05,-5e-05,-5e-05,-7e-05,-6e-05,-4e-05,2e-05,3,27
11463,0,-4e-05,-5e-05,-5e-05,-7e-05,-6e-05,-4e-05,2e-05,3,27
11464,0,-4e-05,-5e-05,-5e-05,-7e-05,-6e-05,-4e-05,2e-05,3,27
11465,0,-4e-05,-5e-05,-5e-05,-7e-05,-6e-05,-4e-05,2e-05,3,27
11466,0,-4e-05,-5e-05,-5e-05,-7e-05,-6e-05,-4e-05,2e-05,3,27
11467,0,-4e-05,-5e-05,-5e-05,-7e-05,-6e-05,-4e-05,2e-05,3,27
11468,0,-4e-05,-5e-05,-5e-05,-7e-05,-6e-05,-4e-05,2e-05,3,27
11469,0,-4e-05,-5e-05,-5e-05,-7e-05,-6e-05,-4e-05,2e-05,3,27
11470,0,-4e-05,-5e-05,-5e-05,-7e-05,-6e-05,-4e-05,2e-05,3,27
11471,-2e-05,0,0,1e-05,0.00016,0,-4e-05,0.00014,3,27
11472,-2e-05,0,0,1e-05,0.00016,0,-4e-05,0.00014,3,27
11473,-2e-05,0,0,1e-05,0.00016,0,-4e-05,0.00014,3,27
11474,-2e-05,0,0,1e-05,0.00016,0,-4e-05,0.00014,3,27
11475,-2e-05,0,0,1e-05,0.00016,0,-4e-05,0.00014,3,27
11476,-2e-05,0,0,1e-05,0.00016,0,-4e-05,0.00014,3,27
11477,-2e-05,0,0,1e-05,0.00016,0,-4e-05,0.00014,3,27
11478,-2e-05,0,0,1e-05,0.00016,0,-4e-05,0.00014,3,27
11479,-2e-05,0,0,1e-05,0.00016,0,-4e-05,0.00014,3,27
11480,-2e-05,0,0,1e-05,0.00016,0,-4e-05,0.00014,3,27
11481,-2e-05,0,0,1e-05,0.00016,0,-4e-05,0.00014,3,27
11482,-2e-05,0,0,1e-05,0.00016,0,-4e-05,0.00014,3,27
11483,-2e-05,0,0,1e-05,0.00016,0,-4e-05,0.00014,3,27
11484,-2e-05,0,0,1e-05,0.00016,0,-4e-05,0.00014,3,27
11485,-2e-05,0,0,1e-05,0.00016,0,-4e-05,0.00014,3,27
11486,-2e-05,-2e-05,-2e-05,-3e-05,7e-05,-5e-05,-2e-05,0.00019,3,27
11488,0,-4e-05,-2e-05,1e-05,2e-05,-1e-05,0,8e-05,3,27
11489,0,-4e-05,-2e-05,1e-05,2e-05,-1e-05,0,8e-05,3,27
11490,0,-4e-05,-2e-05,1e-05,2e-05,-1e-05,0,8e-05,3,27
11491,0,-4e-05,-2e-05,1e-05,2e-05,-1e-05,0,8e-05,3,27
11492,0,-4e-05,-2e-05,1e-05,2e-05,-1e-05,0,8e-05,3,27
11493,0,-4e-05,-2e-05,1e-05,2e-05,-1e-05,0,8e-05,3,27
11494,0,-4e-05,-2e-05,1e-05,2e-05,-1e-05,0,8e-05,3,27
11495,0,-4e-05,-2e-05,1e-05,2e-05,-1e-05,0,8e-05,3,27
11496,0,-4e-05,-2e-05,1e-05,2e-05,-1e-05,0,8e-05,3,27
11497,0,-4e-05,-2e-05,1e-05,2e-05,-1e-05,0,8e-05,3,27
11498,0,-4e-05,-2e-05,1e-05,2e-05,-1e-05,0,8e-05,3,27
11499,0,-4e-05,-2e-05,1e-05,2e-05,-1e-05,0,8e-05,3,27
11500,0,-4e-05,-2e-05,1e-05,2e-05,-1e-05,0,8e-05,3,27
11501,0,-4e-05,-2e-05,1e-05,2e-05,-1e-05,0,8e-05,3,27
11502,0,-4e-05,-2e-05,1e-05,2e-05,-1e-05,0,8e-05,3,27
11503,0,-4e-05,-2e-05,1e-05,2e-05,-1e-05,0,8e-05,3,27
11504,0,-4e-05,-2e-05,1e-05,2e-05,-1e-05,0,8e-05,3,27
11505,0,-4e-05,-2e-05,1e-05,2e-05,-1e-05,0,8e-05,3,27
11506,0,-4e-05,-2e-05,1e-05,2e-05,-1e-05,0,8e-05,3,27
11507,0,-4e-05,-2e-05,1e-05,2e-05,-1e-05,0,8e-05,3,27
11508,0,-4e-05,-2e-05,1e-05,2e-05,-1e-05,0,8e-05,3,27
11509,4e-05,2e-05,2e-05,0,3e-05,0,-4e-05,-1e-05,3,27
11510,4e-05,2e-05,2e-05,0,3e-05,0,-4e-05,-1e-05,3,27
11512,4e-05,2e-05,2e-05,0,3e-05,0,-4e-05,-1e-05,3,27
11513,4e-05,2e-05,2e-05,0,3e-05,0,-4e-05,-1e-05,3,27
11514,4e-05,2e-05,2e-05,0,3e-05,0,-4e-05,-1e-05,3,27
11515,4e-05,2e-05,2e-05,0,3e-05,0,-4e-05,-1e-05,3,27
11516,4e-05,2e-05,2e-05,0,3e-05,0,-4e-05,-1e-05,3,27
11517,4e-05,2e-05,2e-05,0,3e-05,0,-4e-05,-1e-05,3,27
11518,4e-05,2e-05,2e-05,0,3e-05,0,-4e-05,-1e-05,3,27
11519,4e-05,2e-05,2e-05,0,3e-05,0,-4e-05,-1e-05,3,27
11520,4e-05,2e-05,2e-05,0,3e-05,0,-4e-05,-1e-05,3,27
11521,4e-05,2e-05,2e-05,0,3e-05,0,-4e-05,-1e-05,3,27
11522,-1e-05,0,-2e-05,-4e-05,-2e-05,-1e-05,3e-05,-9e-05,3,27
11523,-1e-05,0,-2e-05,-4e-05,-2e-05,-1e-05,3e-05,-9e-05,3,27
11524,-1e-05,0,-2e-05,-4e-05,-2e-05,-1e-05,3e-05,-9e-05,3,27
11525,-1e-05,0,-2e-05,-4e-05,-2e-05,-1e-05,3e-05,-9e-05,3,27
11526,-1e-05,0,-2e-05,-4e-05,-2e-05,-1e-05,3e-05,-9e-05,3,27
11527,-1e-05,0,-2e-05,-4e-05,-2e-05,-1e-05,3e-05,-9e-05,3,27
11528,-1e-05,0,-2e-05,-4e-05,-2e-05,-1e-05,3e-05,-9e-05,3,27
11529,-1e-05,0,-2e-05,-4e-05,-2e-05,-1e-05,3e-05,-9e-05,3,27
11530,-1e-05,0,-2e-05,-4e-05,-2e-05,-1e-05,3e-05,-9e-05,3,27
11531,-1e-05,-2e-05,-4e-05,-1e-05,-0.00013,-9e-05,2e-05,-9e-05,3,27
11532,-1e-05,-2e-05,-4e-05,-1e-05,-0.00013,-9e-05,2e-05,-9e-05,3,27
11533,-1e-05,-2e-05,-4e-05,-1e-05,-0.00013,-9e-05,2e-05,-9e-05,3,27
11534,-1e-05,-2e-05,-4e-05,-1e-05,-0.00013,-9e-05,2e-05,-9e-05,3,27
11535,-1e-05,-2e-05,-4e-05,-1e-05,-0.00013,-9e-05,2e-05,-9e-05,3,27
11536,-1e-05,-2e-05,-4e-05,-1e-05,-0.00013,-9e-05,2e-05,-9e-05,3,27
11538,-1e-05,-2e-05,-4e-05,-1e-05,-0.00013,-9e-05,2e-05,-9e-05,3,27
11539,-1e-05,-2e-05,-4e-05,-1e-05,-0.00013,-9e-05,2e-05,-9e-05,3,27
11540,-1e-05,-2e-05,-4e-05,-1e-05,-0.00013,-9e-05,2e-05,-9e-05,3,27
11541,-1e-05,-2e-05,-4e-05,-1e-05,-0.00013,-9e-05,2e-05,-9e-05,3,27
11542,-1e-05,-2e-05,-4e-05,-1e-05,-0.00013,-9e-05,2e-05,-9e-05,3,27
11543,-1e-05,-2e-05,-4e-05,-1e-05,-0.00013,-9e-05,2e-05,-9e-05,3,27
11544,-1e-05,-2e-05,-4e-05,-1e-05,-0.00013,-9e-05,2e-05,-9e-05,3,27
11545,-1e-05,-2e-05,-4e-05,-1e-05,-0.00013,-9e-05,2e-05,-9e-05,3,27
11546,3e-05,-3e-05,-1e-05,-1e-05,-0.00011,-4e-05,0,0.00011,3,27
11547,0,0,-2e-05,0,-1e-05,2e-05,1e-05,0,3,27
11548,0,0,-2e-05,0,-1e-05,2e-05,1e-05,0,3,27
11549,0,0,-2e-05,0,-1e-05,2e-05,1e-05,0,3,27
11550,0,0,-2e-05,0,-1e-05,2e-05,1e-05,0,3,27
11551,0,0,-2e-05,0,-1e-05,2e-05,1e-05,0,3,27
11552,0,0,-2e-05,0,-1e-05,2e-05,1e-05,0,3,27
11553,0,0,-2e-05,0,-1e-05,2e-05,1e-05,0,3,27
11554,0,0,-2e-05,0,-1e-05,2e-05,1e-05,0,3,27
11555,0,0,-2e-05,0,-1e-05,2e-05,1e-05,0,3,27
11556,0,0,-2e-05,0,-1e-05,2e-05,1e-05,0,3,27
11557,0,0,-2e-05,0,-1e-05,2e-05,1e-05,0,3,27
11558,0,0,-2e-05,0,-1e-05,2e-05,1e-05,0,3,27
11559,0,0,-2e-05,0,-1e-05,2e-05,1e-05,0,3,27
11560,0,0,-2e-05,0,-1e-05,2e-05,1e-05,0,3,27
11561,0,0,-2e-05,0,-1e-05,2e-05,1e-05,0,3,27
11562,0,0,-2e-05,0,-1e-05,2e-05,1e-05,0,3,27
11563,0,0,-2e-05,0,-1e-05,2e-05,1e-05,0,3,27
11564,0,0,-2e-05,0,-1e-05,2e-05,1e-05,0,3,27
11565,0,0,-2e-05,0,-1e-05,2e-05,1e-05,0,3,27
11566,0,0,-2e-05,0,-1e-05,2e-05,1e-05,0,3,27
11567,0,0,-2e-05,0,-1e-05,2e-05,1e-05,0,3,27
11568,0,0,-2e-05,0,-1e-05,2e-05,1e-05,0,3,27
11569,-3e-05,0,3e-05,1e-05,3e-05,-5e-05,-5e-05,-9e-05,3,27
11570,0,0,1e-05,-2e-05,-0.00015,0,-1e-05,-2e-05,3,27
11572,0,0,1e-05,-2e-05,-0.00015,0,-1e-05,-2e-05,3,27
11573,0,0,1e-05,-2e-05,-0.00015,0,-1e-05,-2e-05,3,27
11574,0,0,1e-05,-2e-05,-0.00015,0,-1e-05,-2e-05,3,27
11575,0,0,1e-05,-2e-05,-0.00015,0,-1e-05,-2e-05,3,27
11576,0,0,1e-05,-2e-05,-0.00015,0,-1e-05,-2e-05,3,27
11577,0,0,1e-05,-2e-05,-0.00015,0,-1e-05,-2e-05,3,27
11578,0,0,1e-05,-2e-05,-0.00015,0,-1e-05,-2e-05,3,27
11579,0,0,1e-05,-2e-05,-0.00015,0,-1e-05,-2e-05,3,27
11580,0,0,1e-05,-2e-05,-0.00015,0,-1e-05,-2e-05,3,27
11581,0,0,1e-05,-2e-05,-0.00015,0,-1e-05,-2e-05,3,27
11582,-1e-05,-1e-05,-1e-05,-2e-05,0.0001,0,3e-05,2e-05,3,27
11583,-1e-05,-1e-05,-1e-05,-2e-05,0.0001,0,3e-05,2e-05,3,27
11584,-1e-05,-1e-05,-1e-05,-2e-05,0.0001,0,3e-05,2e-05,3,27
11585,-1e-05,-1e-05,-1e-05,-2e-05,0.0001,0,3e-05,2e-05,3,27
11586,-1e-05,-1e-05,-1e-05,-2e-05,0.0001,0,3e-05,2e-05,3,27
11588,-1e-05,-1e-05,-1e-05,-2e-05,0.0001,0,3e-05,2e-05,3,27
11589,-1e-05,-1e-05,-1e-05,-2e-05,0.0001,0,3e-05,2e-05,3,27
11590,-1e-05,-1e-05,-1e-05,-2e-05,0.0001,0,3e-05,2e-05,3,27
11591,0,-1e-05,-1e-05,0,-0.00012,2e-05,2e-05,-0.00021,3,27
11592,0,-1e-05,-1e-05,0,-0.00012,2e-05,2e-05,-0.00021,3,27
11593,0,-1e-05,-1e-05,0,-0.00012,2e-05,2e-05,-0.00021,3,27
11594,0,-1e-05,-1e-05,0,-0.00012,2e-05,2e-05,-0.00021,3,27
11595,0,-1e-05,-1e-05,0,-0.00012,2e-05,2e-05,-0.00021,3,27
11596,0,-1e-05,-1e-05,0,-0.00012,2e-05,2e-05,-0.00021,3,27
11597,0,-1e-05,-1e-05,0,-0.00012,2e-05,2e-05,-0.00021,3,27
11598,0,-1e-05,-1e-05,0,-0.00012,2e-05,2e-05,-0.00021,3,27
11599,0,-1e-05,-1e-05,0,-0.00012,2e-05,2e-05,-0.00021,3,27
11600,0,-1e-05,-1e-05,0,-0.00012,2e-05,2e-05,-0.00021,3,27
11601,0,-1e-05,-1e-05,0,-0.00012,2e-05,2e-05,-0.00021,3,27
11602,0,-1e-05,-1e-05,0,-0.00012,2e-05,2e-05,-0.00021,3,27
11603,0,-1e-05,-1e-05,0,-0.00012,2e-05,2e-05,-0.00021,3,27
11604,0,-1e-05,-1e-05,0,-0.00012,2e-05,2e-05,-0.00021,3,27
11605,0,-1e-05,-1e-05,0,-0.00012,2e-05,2e-05,-0.00021,3,27
11606,0,1e-05,0,5e-05,0.00025,-3e-05,2e-05,-7e-05,3,27
11607,-1e-05,-1e-05,-2e-05,-2e-05,5e-05,-8e-05,-6e-05,-2e-05,3,27
11608,-1e-05,-1e-05,-2e-05,-2e-05,5e-05,-8e-05,-6e-05,-2e-05,3,27
11609,-1e-05,-1e-05,-2e-05,-2e-05,5e-05,-8e-05,-6e-05,-2e-05,3,27
11610,-1e-05,-1e-05,-2e-05,-2e-05,5e-05,-8e-05,-6e-05,-2e-05,3,27
11611,-1e-05,-1e-05,-2e-05,-2e-05,5e-05,-8e-05,-6e-05,-2e-05,3,27
11612,-1e-05,-1e-05,-2e-05,-2e-05,5e-05,-8e-05,-6e-05,-2e-05,3,27
11613,-1e-05,-1e-05,-2e-05,-2e-05,5e-05,-8e-05,-6e-05,-2e-05,3,27
11614,-1e-05,-1e-05,-2e-05,-2e-05,5e-05,-8e-05,-6e-05,-2e-05,3,27
11615,-1e-05,-1e-05,-2e-05,-2e-05,5e-05,-8e-05,-6e-05,-2e-05,3,27
11616,-1e-05,-1e-05,-2e-05,-2e-05,5e-05,-8e-05,-6e-05,-2e-05,3,27
11617,-1e-05,-1e-05,-2e-05,-2e-05,5e-05,-8e-05,-6e-05,-2e-05,3,27
11618,-1e-05,-1e-05,-2e-05,-2e-05,5e-05,-8e-05,-6e-05,-2e-05,3,27
11619,-1e-05,-1e-05,-2e-05,-2e-05,5e-05,-8e-05,-6e-05,-2e-05,3,27
11620,-1e-05,-1e-05,-2e-05,-2e-05,5e-05,-8e-05,-6e-05,-2e-05,3,27
11621,-1e-05,-1e-05,-2e-05,-2e-05,5e-05,-8e-05,-6e-05,-2e-05,3,27
11622,-1e-05,-1e-05,-2e-05,-2e-05,5e-05,-8e-05,-6e-05,-2e-05,3,27
11623,-1e-05,-1e-05,-2e-05,-2e-05,5e-05,-8e-05,-6e-05,-2e-05,3,27
11624,-1e-05,-1e-05,-2e-05,-2e-05,5e-05,-8e-05,-6e-05,-2e-05,3,27
11625,-1e-05,-1e-05,-2e-05,-2e-05,5e-05,-8e-05,-6e-05,-2e-05,3,27
11626,-1e-05,-1e-05,-2e-05,-2e-05,5e-05,-8e-05,-6e-05,-2e-05,3,27
11627,-1e-05,-1e-05,-2e-05,-2e-05,5e-05,-8e-05,-6e-05,-2e-05,3,27
11628,-1e-05,-1e-05,-2e-05,-2e-05,5e-05,-8e-05,-6e-05,-2e-05,3,27
11629,0,-1e-05,-2e-05,-2e-05,-8e-05,-1e-05,2e-05,-2e-05,3,27
11630,0,0,2e-05,-1e-05,3e-05,-7e-05,-7e-05,7e-05,3,27
11632,0,0,2e-05,-1e-05,3e-05,-7e-05,-7e-05,7e-05,3,27
11633,0,0,2e-05,-1e-05,3e-05,-7e-05,-7e-05,7e-05,3,27
11634,0,0,2e-05,-1e-05,3e-05,-7e-05,-7e-05,7e-05,3,27
11635,0,0,2e-05,-1e-05,3e-05,-7e-05,-7e-05,7e-05,3,27
11636,0,0,2e-05,-1e-05,3e-05,-7e-05,-7e-05,7e-05,3,27
11638,0,0,2e-05,-1e-05,3e-05,-7e-05,-7e-05,7e-05,3,27
11639,0,0,2e-05,-1e-05,3e-05,-7e-05,-7e-05,7e-05,3,27
11640,0,0,2e-05,-1e-05,3e-05,-7e-05,-7e-05,7e-05,3,27
11641,0,0,2e-05,-1e-05,3e-05,-7e-05,-7e-05,7e-05,3,27
11642,0,0,2e-05,-1e-05,3e-05,-7e-05,-7e-05,7e-05,3,27
11643,-1e-05,-1e-05,-4e-05,-5e-05,-7e-05,-1e-05,-6e-05,-1e-05,3,27
11644,-1e-05,-1e-05,-4e-05,-5e-05,-7e-05,-1e-05,-6e-05,-1e-05,3,27
11645,-1e-05,-1e-05,-4e-05,-5e-05,-7e-05,-1e-05,-6e-05,-1e-05,3,27
11646,-1e-05,-1e-05,-4e-05,-5e-05,-7e-05,-1e-05,-6e-05,-1e-05,3,27
11647,-1e-05,-1e-05,-4e-05,-5e-05,-7e-05,-1e-05,-6e-05,-1e-05,3,27
11648,-1e-05,-1e-05,-4e-05,-5e-05,-7e-05,-1e-05,-6e-05,-1e-05,3,27
11649,-1e-05,-1e-05,-4e-05,-5e-05,-7e-05,-1e-05,-6e-05,-1e-05,3,27
11650,-1e-05,-1e-05,-4e-05,-5e-05,-7e-05,-1e-05,-6e-05,-1e-05,3,27
11651,2e-05,1e-05,0,-1e-05,1e-05,-6e-05,-2e-05,0,3,27
11653,2e-05,1e-05,0,-1e-05,1e-05,-6e-05,-2e-05,0,3,27
11654,2e-05,1e-05,0,-1e-05,1e-05,-6e-05,-2e-05,0,3,27
11655,2e-05,1e-05,0,-1e-05,1e-05,-6e-05,-2e-05,0,3,27
11656,2e-05,1e-05,0,-1e-05,1e-05,-6e-05,-2e-05,0,3,27
11657,2e-05,1e-05,0,-1e-05,1e-05,-6e-05,-2e-05,0,3,27
11658,2e-05,1e-05,0,-1e-05,1e-05,-6e-05,-2e-05,0,3,27
11659,2e-05,1e-05,0,-1e-05,1e-05,-6e-05,-2e-05,0,3,27
11660,2e-05,1e-05,0,-1e-05,1e-05,-6e-05,-2e-05,0,3,27
11661,2e-05,1e-05,0,-1e-05,1e-05,-6e-05,-2e-05,0,3,27
41648,8e-05,0.00013,-1e-05,-2e-05,0.00017,3e-05,0.00016,0.00011,3,27
41649,8e-05,0.00013,-1e-05,-2e-05,0.00017,3e-05,0.00016,0.00011,3,27
41650,8e-05,0.00013,-1e-05,-2e-05,0.00017,3e-05,0.00016,0.00011,3,27
41651,-7e-05,-2e-05,2e-05,0.0001,0,3e-05,0.00013,-0.00034,3,27
41652,-0.00011,-0.0002,-3e-05,-8e-05,-0.00062,-0.00033,-0.00026,-0.00026,3,27
41653,-0.00011,-0.0002,-3e-05,-8e-05,-0.00062,-0.00033,-0.00026,-0.00026,3,27
41654,-0.00011,-0.0002,-3e-05,-8e-05,-0.00062,-0.00033,-0.00026,-0.00026,3,27
41655,-0.00011,-0.0002,-3e-05,-8e-05,-0.00062,-0.00033,-0.00026,-0.00026,3,27
41656,-0.00011,-0.0002,-3e-05,-8e-05,-0.00062,-0.00033,-0.00026,-0.00026,3,27
41657,-0.00011,-0.0002,-3e-05,-8e-05,-0.00062,-0.00033,-0.00026,-0.00026,3,27
41658,-0.00011,-0.0002,-3e-05,-8e-05,-0.00062,-0.00033,-0.00026,-0.00026,3,27
41659,-0.00011,-0.0002,-3e-05,-8e-05,-0.00062,-0.00033,-0.00026,-0.00026,3,27
41660,-0.00011,-0.0002,-3e-05,-8e-05,-0.00062,-0.00033,-0.00026,-0.00026,3,27
41661,-0.00011,-0.0002,-3e-05,-8e-05,-0.00062,-0.00033,-0.00026,-0.00026,3,27
41662,-0.00011,-0.0002,-3e-05,-8e-05,-0.00062,-0.00033,-0.00026,-0.00026,3,27
41663,-0.00011,-0.0002,-3e-05,-8e-05,-0.00062,-0.00033,-0.00026,-0.00026,3,27
41664,-0.00011,-0.0002,-3e-05,-8e-05,-0.00062,-0.00033,-0.00026,-0.00026,3,27
41665,-0.00011,-0.0002,-3e-05,-8e-05,-0.00062,-0.00033,-0.00026,-0.00026,3,27
41666,-0.00013,5e-05,2e-05,0.00013,5e-05,0.00022,0.00013,0.00024,3,27
41667,-0.00013,5e-05,2e-05,0.00013,5e-05,0.00022,0.00013,0.00024,3,27
41668,-0.00013,5e-05,2e-05,0.00013,5e-05,0.00022,0.00013,0.00024,3,27
41669,-0.00013,5e-05,2e-05,0.00013,5e-05,0.00022,0.00013,0.00024,3,27
41670,-0.00013,5e-05,2e-05,0.00013,5e-05,0.00022,0.00013,0.00024,3,27
41671,-0.00013,5e-05,2e-05,0.00013,5e-05,0.00022,0.00013,0.00024,3,27
41672,-0.00013,5e-05,2e-05,0.00013,5e-05,0.00022,0.00013,0.00024,3,27
41673,-0.00013,5e-05,2e-05,0.00013,5e-05,0.00022,0.00013,0.00024,3,27
41674,-0.00015,-1e-05,-2e-05,-6e-05,-0.00023,-0.0002,2e-05,-0.00016,3,27
41675,-0.00015,-1e-05,-2e-05,-6e-05,-0.00023,-0.0002,2e-05,-0.00016,3,27
41676,-0.00015,-1e-05,-2e-05,-6e-05,-0.00023,-0.0002,2e-05,-0.00016,3,27
41677,-0.00015,-1e-05,-2e-05,-6e-05,-0.00023,-0.0002,2e-05,-0.00016,3,27
41678,-0.00015,-1e-05,-2e-05,-6e-05,-0.00023,-0.0002,2e-05,-0.00016,3,27
41679,-0.00015,-1e-05,-2e-05,-6e-05,-0.00023,-0.0002,2e-05,-0.00016,3,27
41680,-0.00015,-1e-05,-2e-05,-6e-05,-0.00023,-0.0002,2e-05,-0.00016,3,27
41681,-0.00015,-1e-05,-2e-05,-6e-05,-0.00023,-0.0002,2e-05,-0.00016,3,27
41682,-0.00015,-1e-05,-2e-05,-6e-05,-0.00023,-0.0002,2e-05,-0.00016,3,27
41683,-0.00015,-1e-05,-2e-05,-6e-05,-0.00023,-0.0002,2e-05,-0.00016,3,27
41684,-0.00015,-1e-05,-2e-05,-6e-05,-0.00023,-0.0002,2e-05,-0.00016,3,27
41685,-0.00015,-1e-05,-2e-05,-6e-05,-0.00023,-0.0002,2e-05,-0.00016,3,27
41686,-0.00015,-1e-05,-2e-05,-6e-05,-0.00023,-0.0002,2e-05,-0.00016,3,27
41688,-0.00015,-1e-05,-2e-05,-6e-05,-0.00023,-0.0002,2e-05,-0.00016,3,27
41689,2e-05,6e-05,1e-05,-4e-05,0.00012,-0.00027,-0.00014,8e-05,3,27
41690,7e-05,4e-05,2e-05,0.00012,-2e-05,-8e-05,-7e-05,-6e-05,3,27
41691,7e-05,4e-05,2e-05,0.00012,-2e-05,-8e-05,-7e-05,-6e-05,3,27
41692,7e-05,4e-05,2e-05,0.00012,-2e-05,-8e-05,-7e-05,-6e-05,3,27
41693,7e-05,4e-05,2e-05,0.00012,-2e-05,-8e-05,-7e-05,-6e-05,3,27
41694,7e-05,4e-05,2e-05,0.00012,-2e-05,-8e-05,-7e-05,-6e-05,3,27
41695,7e-05,4e-05,2e-05,0.00012,-2e-05,-8e-05,-7e-05,-6e-05,3,27
41696,7e-05,4e-05,2e-05,0.00012,-2e-05,-8e-05,-7e-05,-6e-05,3,27
41697,7e-05,4e-05,2e-05,0.00012,-2e-05,-8e-05,-7e-05,-6e-05,3,27
41698,7e-05,4e-05,2e-05,0.00012,-2e-05,-8e-05,-7e-05,-6e-05,3,27
41699,7e-05,4e-05,2e-05,0.00012,-2e-05,-8e-05,-7e-05,-6e-05,3,27
41700,7e-05,4e-05,2e-05,0.00012,-2e-05,-8e-05,-7e-05,-6e-05,3,27
41701,7e-05,4e-05,2e-05,0.00012,-2e-05,-8e-05,-7e-05,-6e-05,3,27
41702,7e-05,4e-05,2e-05,0.00012,-2e-05,-8e-05,-7e-05,-6e-05,3,27
41703,7e-05,4e-05,2e-05,0.00012,-2e-05,-8e-05,-7e-05,-6e-05,3,27
41704,7e-05,4e-05,2e-05,0.00012,-2e-05,-8e-05,-7e-05,-6e-05,3,27
41705,7e-05,4e-05,2e-05,0.00012,-2e-05,-8e-05,-7e-05,-6e-05,3,27
41706,7e-05,4e-05,2e-05,0.00012,-2e-05,-8e-05,-7e-05,-6e-05,3,27
41707,7e-05,4e-05,2e-05,0.00012,-2e-05,-8e-05,-7e-05,-6e-05,3,27
41708,7e-05,4e-05,2e-05,0.00012,-2e-05,-8e-05,-7e-05,-6e-05,3,27
41709,7e-05,4e-05,2e-05,0.00012,-2e-05,-8e-05,-7e-05,-6e-05,3,27
41710,7e-05,4e-05,2e-05,0.00012,-2e-05,-8e-05,-7e-05,-6e-05,3,27
41711,7e-05,4e-05,2e-05,0.00012,-2e-05,-8e-05,-7e-05,-6e-05,3,27
41712,7e-05,4e-05,2e-05,0.00012,-2e-05,-8e-05,-7e-05,-6e-05,3,27
41713,0.00012,-9e-05,-1e-05,-0.00011,0.00034,0,-0.00013,5e-05,3,27
41715,0.00012,-9e-05,-1e-05,-0.00011,0.00034,0,-0.00013,5e-05,3,27
41716,0.00012,-9e-05,-1e-05,-0.00011,0.00034,0,-0.00013,5e-05,3,27
41717,0.00012,-9e-05,-1e-05,-0.00011,0.00034,0,-0.00013,5e-05,3,27
41718,0.00012,-9e-05,-1e-05,-0.00011,0.00034,0,-0.00013,5e-05,3,27
41719,0.00012,-9e-05,-1e-05,-0.00011,0.00034,0,-0.00013,5e-05,3,27
41720,0.00012,-9e-05,-1e-05,-0.00011,0.00034,0,-0.00013,5e-05,3,27
41721,0.00012,-9e-05,-1e-05,-0.00011,0.00034,0,-0.00013,5e-05,3,27
41722,0.00012,-9e-05,-1e-05,-0.00011,0.00034,0,-0.00013,5e-05,3,27
41723,0.00012,-9e-05,-1e-05,-0.00011,0.00034,0,-0.00013,5e-05,3,27
41724,0.00012,-9e-05,-1e-05,-0.00011,0.00034,0,-0.00013,5e-05,3,27
41725,-0.00031,2e-05,-4e-05,3e-05,-0.0004,-0.00022,0.00011,-0.00022,3,27
41726,0.00016,1e-05,5e-05,2e-05,0.0004,-8e-05,-0.00014,-6e-05,3,27
41727,0.00016,1e-05,5e-05,2e-05,0.0004,-8e-05,-0.00014,-6e-05,3,27
41728,0.00016,1e-05,5e-05,2e-05,0.0004,-8e-05,-0.00014,-6e-05,3,27
41729,0.00016,1e-05,5e-05,2e-05,0.0004,-8e-05,-0.00014,-6e-05,3,27
41730,0.00016,1e-05,5e-05,2e-05,0.0004,-8e-05,-0.00014,-6e-05,3,27
41731,0.00016,1e-05,5e-05,2e-05,0.0004,-8e-05,-0.00014,-6e-05,3,27
41732,0.00016,1e-05,5e-05,2e-05,0.0004,-8e-05,-0.00014,-6e-05,3,27
41733,0.00016,1e-05,5e-05,2e-05,0.0004,-8e-05,-0.00014,-6e-05,3,27
41734,0.0001,7e-05,-5e-05,-4e-05,-0.0002,2e-05,1e-05,-0.00024,3,27
41735,0.0001,7e-05,-5e-05,-4e-05,-0.0002,2e-05,1e-05,-0.00024,3,27
41736,0.0001,7e-05,-5e-05,-4e-05,-0.0002,2e-05,1e-05,-0.00024,3,27
41738,0.0001,7e-05,-5e-05,-4e-05,-0.0002,2e-05,1e-05,-0.00024,3,27
41739,0.0001,7e-05,-5e-05,-4e-05,-0.0002,2e-05,1e-05,-0.00024,3,27
41740,0.0001,7e-05,-5e-05,-4e-05,-0.0002,2e-05,1e-05,-0.00024,3,27
41741,0.0001,7e-05,-5e-05,-4e-05,-0.0002,2e-05,1e-05,-0.00024,3,27
41742,0.0001,7e-05,-5e-05,-4e-05,-0.0002,2e-05,1e-05,-0.00024,3,27
41743,0.0001,7e-05,-5e-05,-4e-05,-0.0002,2e-05,1e-05,-0.00024,3,27
41744,0.0001,7e-05,-5e-05,-4e-05,-0.0002,2e-05,1e-05,-0.00024,3,27
41745,0.0001,7e-05,-5e-05,-4e-05,-0.0002,2e-05,1e-05,-0.00024,3,27
41746,0.0001,7e-05,-5e-05,-4e-05,-0.0002,2e-05,1e-05,-0.00024,3,27
41747,0.0001,7e-05,-5e-05,-4e-05,-0.0002,2e-05,1e-05,-0.00024,3,27
41748,0.0001,7e-05,-5e-05,-4e-05,-0.0002,2e-05,1e-05,-0.00024,3,27
41749,1e-05,5e-05,0,2e-05,-9e-05,-0.00012,-9e-05,1e-05,3,27
41750,0.00016,7e-05,1e-05,-4e-05,3e-05,5e-05,8e-05,-0.00018,3,27
41751,0.00016,7e-05,1e-05,-4e-05,3e-05,5e-05,8e-05,-0.00018,3,27
41752,0.00016,7e-05,1e-05,-4e-05,3e-05,5e-05,8e-05,-0.00018,3,27
41753,0.00016,7e-05,1e-05,-4e-05,3e-05,5e-05,8e-05,-0.00018,3,27
41754,0.00016,7e-05,1e-05,-4e-05,3e-05,5e-05,8e-05,-0.00018,3,27
41755,0.00016,7e-05,1e-05,-4e-05,3e-05,5e-05,8e-05,-0.00018,3,27
41756,0.00016,7e-05,1e-05,-4e-05,3e-05,5e-05,8e-05,-0.00018,3,27
41757,0.00016,7e-05,1e-05,-4e-05,3e-05,5e-05,8e-05,-0.00018,3,27
41758,0.00016,7e-05,1e-05,-4e-05,3e-05,5e-05,8e-05,-0.00018,3,27
41759,0.00016,7e-05,1e-05,-4e-05,3e-05,5e-05,8e-05,-0.00018,3,27
41760,0.00016,7e-05,1e-05,-4e-05,3e-05,5e-05,8e-05,-0.00018,3,27
41761,0.00016,7e-05,1e-05,-4e-05,3e-05,5e-05,8e-05,-0.00018,3,27
41762,0.00016,7e-05,1e-05,-4e-05,3e-05,5e-05,8e-05,-0.00018,3,27
41763,0.00016,7e-05,1e-05,-4e-05,3e-05,5e-05,8e-05,-0.00018,3,27
41764,0.00016,7e-05,1e-05,-4e-05,3e-05,5e-05,8e-05,-0.00018,3,27
41765,0.00016,7e-05,1e-05,-4e-05,3e-05,5e-05,8e-05,-0.00018,3,27
41766,0.00016,7e-05,1e-05,-4e-05,3e-05,5e-05,8e-05,-0.00018,3,27
41767,0.00016,7e-05,1e-05,-4e-05,3e-05,5e-05,8e-05,-0.00018,3,27
41768,0.00016,7e-05,1e-05,-4e-05,3e-05,5e-05,8e-05,-0.00018,3,27
41769,0.00016,7e-05,1e-05,-4e-05,3e-05,5e-05,8e-05,-0.00018,3,27
41770,0.00016,7e-05,1e-05,-4e-05,3e-05,5e-05,8e-05,-0.00018,3,27
41771,0.00016,7e-05,1e-05,-4e-05,3e-05,5e-05,8e-05,-0.00018,3,27
41772,-6e-05,0.00011,7e-05,6e-05,-0.0002,-0.00029,0.0001,-2e-05,3,27
41773,2e-05,-0.00012,-5e-05,-7e-05,-0.00029,0.00011,6e-05,6e-05,3,27
41774,2e-05,-0.00012,-5e-05,-7e-05,-0.00029,0.00011,6e-05,6e-05,3,27
41775,2e-05,-0.00012,-5e-05,-7e-05,-0.00029,0.00011,6e-05,6e-05,3,27
41776,2e-05,-0.00012,-5e-05,-7e-05,-0.00029,0.00011,6e-05,6e-05,3,27
41777,2e-05,-0.00012,-5e-05,-7e-05,-0.00029,0.00011,6e-05,6e-05,3,27
41778,2e-05,-0.00012,-5e-05,-7e-05,-0.00029,0.00011,6e-05,6e-05,3,27
41779,2e-05,-0.00012,-5e-05,-7e-05,-0.00029,0.00011,6e-05,6e-05,3,27
41780,2e-05,-0.00012,-5e-05,-7e-05,-0.00029,0.00011,6e-05,6e-05,3,27
41781,2e-05,-0.00012,-5e-05,-7e-05,-0.00029,0.00011,6e-05,6e-05,3,27
41782,2e-05,-0.00012,-5e-05,-7e-05,-0.00029,0.00011,6e-05,6e-05,3,27
41783,2e-05,-0.00012,-5e-05,-7e-05,-0.00029,0.00011,6e-05,6e-05,3,27
41784,2e-05,-0.00012,-5e-05,-7e-05,-0.00029,0.00011,6e-05,6e-05,3,27
41785,2e-05,-0.00012,-5e-05,-7e-05,-0.00029,0.00011,6e-05,6e-05,3,27
41786,6e-05,-8e-05,-3e-05,-8e-05,-0.00017,-0.00012,-0.00014,-6e-05,3,27
41788,-6e-05,1e-05,-1e-05,-0.00012,8e-05,-6e-05,2e-05,4e-05,3,27
41789,-6e-05,1e-05,-1e-05,-0.00012,8e-05,-6e-05,2e-05,4e-05,3,27
41790,-6e-05,1e-05,-1e-05,-0.00012,8e-05,-6e-05,2e-05,4e-05,3,27
41791,-6e-05,1e-05,-1e-05,-0.00012,8e-05,-6e-05,2e-05,4e-05,3,27
41792,-6e-05,1e-05,-1e-05,-0.00012,8e-05,-6e-05,2e-05,4e-05,3,27
41793,-6e-05,1e-05,-1e-05,-0.00012,8e-05,-6e-05,2e-05,4e-05,3,27
41794,-6e-05,1e-05,-1e-05,-0.00012,8e-05,-6e-05,2e-05,4e-05,3,27
41795,-6e-05,1e-05,-1e-05,-0.00012,8e-05,-6e-05,2e-05,4e-05,3,27
41796,-6e-05,1e-05,-1e-05,-0.00012,8e-05,-6e-05,2e-05,4e-05,3,27
41797,-6e-05,1e-05,-1e-05,-0.00012,8e-05,-6e-05,2e-05,4e-05,3,27
41798,-6e-05,1e-05,-1e-05,-0.00012,8e-05,-6e-05,2e-05,4e-05,3,27
41799,-6e-05,1e-05,-1e-05,-0.00012,8e-05,-6e-05,2e-05,4e-05,3,27
41800,-6e-05,1e-05,-1e-05,-0.00012,8e-05,-6e-05,2e-05,4e-05,3,27
41801,-6e-05,1e-05,-1e-05,-0.00012,8e-05,-6e-05,2e-05,4e-05,3,27
41802,-6e-05,1e-05,-1e-05,-0.00012,8e-05,-6e-05,2e-05,4e-05,3,27
41803,-6e-05,1e-05,-1e-05,-0.00012,8e-05,-6e-05,2e-05,4e-05,3,27
41804,-6e-05,1e-05,-1e-05,-0.00012,8e-05,-6e-05,2e-05,4e-05,3,27
41805,-6e-05,1e-05,-1e-05,-0.00012,8e-05,-6e-05,2e-05,4e-05,3,27
41806,-6e-05,1e-05,-1e-05,-0.00012,8e-05,-6e-05,2e-05,4e-05,3,27
41807,-6e-05,1e-05,-1e-05,-0.00012,8e-05,-6e-05,2e-05,4e-05,3,27
41808,-6e-05,1e-05,-1e-05,-0.00012,8e-05,-6e-05,2e-05,4e-05,3,27
41809,-5e-05,-8e-05,-5e-05,-6e-05,1e-05,-6e-05,-0.00016,-8e-05,3,27
41810,5e-05,4e-05,0,0,0.00016,0.00012,0.00014,0.00032,3,27
41811,5e-05,4e-05,0,0,0.00016,0.00012,0.00014,0.00032,3,27
41812,5e-05,4e-05,0,0,0.00016,0.00012,0.00014,0.00032,3,27
41813,5e-05,4e-05,0,0,0.00016,0.00012,0.00014,0.00032,3,27
41814,5e-05,4e-05,0,0,0.00016,0.00012,0.00014,0.00032,3,27
41815,5e-05,4e-05,0,0,0.00016,0.00012,0.00014,0.00032,3,27
41816,5e-05,4e-05,0,0,0.00016,0.00012,0.00014,0.00032,3,27
41817,5e-05,4e-05,0,0,0.00016,0.00012,0.00014,0.00032,3,27
41818,5e-05,4e-05,0,0,0.00016,0.00012,0.00014,0.00032,3,27
41819,5e-05,4e-05,0,0,0.00016,0.00012,0.00014,0.00032,3,27
41820,5e-05,4e-05,0,0,0.00016,0.00012,0.00014,0.00032,3,27
41821,5e-05,4e-05,0,0,0.00016,0.00012,0.00014,0.00032,3,27
41822,5e-05,4e-05,0,0,0.00016,0.00012,0.00014,0.00032,3,27
41823,5e-05,4e-05,0,0,0.00016,0.00012,0.00014,0.00032,3,27
41824,5e-05,4e-05,0,0,0.00016,0.00012,0.00014,0.00032,3,27
41825,5e-05,4e-05,0,0,0.00016,0.00012,0.00014,0.00032,3,27
41826,5e-05,4e-05,0,0,0.00016,0.00012,0.00014,0.00032,3,27
41827,5e-05,4e-05,0,0,0.00016,0.00012,0.00014,0.00032,3,27
41828,5e-05,4e-05,0,0,0.00016,0.00012,0.00014,0.00032,3,27
41829,5e-05,4e-05,0,0,0.00016,0.00012,0.00014,0.00032,3,27
41830,5e-05,4e-05,0,0,0.00016,0.00012,0.00014,0.00032,3,27
41831,5e-05,4e-05,0,0,0.00016,0.00012,0.00014,0.00032,3,27
41832,0.00023,-1e-05,-2e-05,-5e-05,-0.00011,8e-05,-1e-05,-0.00026,3,27
41833,-5e-05,-0.00035,-1e-05,0.0001,-9e-05,0.00012,0.00016,7e-05,3,27
41834,-5e-05,-0.00035,-1e-05,0.0001,-9e-05,0.00012,0.00016,7e-05,3,27
41835,-5e-05,-0.00035,-1e-05,0.0001,-9e-05,0.00012,0.00016,7e-05,3,27
41836,-5e-05,-0.00035,-1e-05,0.0001,-9e-05,0.00012,0.00016,7e-05,3,27
41838,-5e-05,-0.00035,-1e-05,0.0001,-9e-05,0.00012,0.00016,7e-05,3,27
41839,-5e-05,-0.00035,-1e-05,0.0001,-9e-05,0.00012,0.00016,7e-05,3,27
41840,-5e-05,-0.00035,-1e-05,0.0001,-9e-05,0.00012,0.00016,7e-05,3,27
41841,-5e-05,-0.00035,-1e-05,0.0001,-9e-05,0.00012,0.00016,7e-05,3,27
41842,-5e-05,-0.00035,-1e-05,0.0001,-9e-05,0.00012,0.00016,7e-05,3,27
41843,-5e-05,-0.00035,-1e-05,0.0001,-9e-05,0.00012,0.00016,7e-05,3,27
41844,-5e-05,-0.00035,-1e-05,0.0001,-9e-05,0.00012,0.00016,7e-05,3,27
41845,-5e-05,-0.00035,-1e-05,0.0001,-9e-05,0.00012,0.00016,7e-05,3,27
41846,2e-05,-1e-05,1e-05,-3e-05,-8e-05,-0.00023,3e-05,0.00013,3,27
41848,-0.0002,9e-05,-1e-05,1e-05,-7e-05,8e-05,0.00016,-0.00016,3,27
41849,-0.0002,9e-05,-1e-05,1e-05,-7e-05,8e-05,0.00016,-0.00016,3,27
41850,-0.0002,9e-05,-1e-05,1e-05,-7e-05,8e-05,0.00016,-0.00016,3,27
41851,-0.0002,9e-05,-1e-05,1e-05,-7e-05,8e-05,0.00016,-0.00016,3,27
41852,-0.0002,9e-05,-1e-05,1e-05,-7e-05,8e-05,0.00016,-0.00016,3,27
41853,-0.0002,9e-05,-1e-05,1e-05,-7e-05,8e-05,0.00016,-0.00016,3,27
41854,-0.0002,9e-05,-1e-05,1e-05,-7e-05,8e-05,0.00016,-0.00016,3,27
41855,-0.0002,9e-05,-1e-05,1e-05,-7e-05,8e-05,0.00016,-0.00016,3,27
41856,-0.0002,9e-05,-1e-05,1e-05,-7e-05,8e-05,0.00016,-0.00016,3,27
41857,-0.0002,9e-05,-1e-05,1e-05,-7e-05,8e-05,0.00016,-0.00016,3,27
41858,-0.0002,9e-05,-1e-05,1e-05,-7e-05,8e-05,0.00016,-0.00016,3,27
41859,-0.0002,9e-05,-1e-05,1e-05,-7e-05,8e-05,0.00016,-0.00016,3,27
41860,-0.0002,9e-05,-1e-05,1e-05,-7e-05,8e-05,0.00016,-0.00016,3,27
41861,-0.0002,9e-05,-1e-05,1e-05,-7e-05,8e-05,0.00016,-0.00016,3,27
41862,-0.0002,9e-05,-1e-05,1e-05,-7e-05,8e-05,0.00016,-0.00016,3,27
41863,-0.0002,9e-05,-1e-05,1e-05,-7e-05,8e-05,0.00016,-0.00016,3,27
41864,-0.0002,9e-05,-1e-05,1e-05,-7e-05,8e-05,0.00016,-0.00016,3,27
41865,-0.0002,9e-05,-1e-05,1e-05,-7e-05,8e-05,0.00016,-0.00016,3,27
41866,-0.0002,9e-05,-1e-05,1e-05,-7e-05,8e-05,0.00016,-0.00016,3,27
41867,-0.0002,9e-05,-1e-05,1e-05,-7e-05,8e-05,0.00016,-0.00016,3,27
41868,-0.0002,9e-05,-1e-05,1e-05,-7e-05,8e-05,0.00016,-0.00016,3,27
41869,5e-05,-7e-05,-1e-05,2e-05,6e-05,0.00018,4e-05,-3e-05,3,27
41870,-9e-05,3e-05,3e-05,8e-05,-3e-05,-0.0001,-9e-05,-5e-05,3,27
41871,-9e-05,3e-05,3e-05,8e-05,-3e-05,-0.0001,-9e-05,-5e-05,3,27
41872,-9e-05,3e-05,3e-05,8e-05,-3e-05,-0.0001,-9e-05,-5e-05,3,27
41873,-9e-05,3e-05,3e-05,8e-05,-3e-05,-0.0001,-9e-05,-5e-05,3,27
41874,-9e-05,3e-05,3e-05,8e-05,-3e-05,-0.0001,-9e-05,-5e-05,3,27
41875,-9e-05,3e-05,3e-05,8e-05,-3e-05,-0.0001,-9e-05,-5e-05,3,27
41876,-9e-05,3e-05,3e-05,8e-05,-3e-05,-0.0001,-9e-05,-5e-05,3,27
41877,-9e-05,3e-05,3e-05,8e-05,-3e-05,-0.0001,-9e-05,-5e-05,3,27
41878,-9e-05,3e-05,3e-05,8e-05,-3e-05,-0.0001,-9e-05,-5e-05,3,27
41879,-9e-05,3e-05,3e-05,8e-05,-3e-05,-0.0001,-9e-05,-5e-05,3,27
41880,-9e-05,3e-05,3e-05,8e-05,-3e-05,-0.0001,-9e-05,-5e-05,3,27
41881,-9e-05,3e-05,3e-05,8e-05,-3e-05,-0.0001,-9e-05,-5e-05,3,27
41882,-9e-05,3e-05,3e-05,8e-05,-3e-05,-0.0001,-9e-05,-5e-05,3,27
41883,-9e-05,3e-05,3e-05,8e-05,-3e-05,-0.0001,-9e-05,-5e-05,3,27
41884,-9e-05,3e-05,3e-05,8e-05,-3e-05,-0.0001,-9e-05,-5e-05,3,27
41885,-9e-05,3e-05,3e-05,8e-05,-3e-05,-0.0001,-9e-05,-5e-05,3,27
41886,-9e-05,3e-05,3e-05,8e-05,-3e-05,-0.0001,-9e-05,-5e-05,3,27
41888,-9e-05,3e-05,3e-05,8e-05,-3e-05,-0.0001,-9e-05,-5e-05,3,27
41889,-9e-05,3e-05,3e-05,8e-05,-3e-05,-0.0001,-9e-05,-5e-05,3,27
41890,-9e-05,3e-05,3e-05,8e-05,-3e-05,-0.0001,-9e-05,-5e-05,3,27
41891,-9e-05,3e-05,3e-05,8e-05,-3e-05,-0.0001,-9e-05,-5e-05,3,27
41892,-0.00017,5e-05,-2e-05,-8e-05,-7e-05,-9e-05,0,0.0004,3,27
41893,3e-05,7e-05,0,2e-05,5e-05,-0.0001,-0.0001,-0.00016,3,27
41894,3e-05,7e-05,0,2e-05,5e-05,-0.0001,-0.0001,-0.00016,3,27
41895,3e-05,7e-05,0,2e-05,5e-05,-0.0001,-0.0001,-0.00016,3,27
41896,3e-05,7e-05,0,2e-05,5e-05,-0.0001,-0.0001,-0.00016,3,27
41897,3e-05,7e-05,0,2e-05,5e-05,-0.0001,-0.0001,-0.00016,3,27
41898,3e-05,7e-05,0,2e-05,5e-05,-0.0001,-0.0001,-0.00016,3,27
41899,3e-05,7e-05,0,2e-05,5e-05,-0.0001,-0.0001,-0.00016,3,27
41900,3e-05,7e-05,0,2e-05,5e-05,-0.0001,-0.0001,-0.00016,3,27
41901,3e-05,7e-05,0,2e-05,5e-05,-0.0001,-0.0001,-0.00016,3,27
41902,3e-05,7e-05,0,2e-05,5e-05,-0.0001,-0.0001,-0.00016,3,27
41903,3e-05,7e-05,0,2e-05,5e-05,-0.0001,-0.0001,-0.00016,3,27
41904,3e-05,7e-05,0,2e-05,5e-05,-0.0001,-0.0001,-0.00016,3,27
41905,3e-05,7e-05,0,2e-05,5e-05,-0.0001,-0.0001,-0.00016,3,27
41906,0.0001,2e-05,5e-05,4e-05,-2e-05,-3e-05,6e-05,2e-05,3,27
41907,0.0001,7e-05,-1e-05,2e-05,0.00015,-1e-05,-0.00021,9e-05,3,27
41908,0.0001,7e-05,-1e-05,2e-05,0.00015,-1e-05,-0.00021,9e-05,3,27
41909,0.0001,7e-05,-1e-05,2e-05,0.00015,-1e-05,-0.00021,9e-05,3,27
41910,0.0001,7e-05,-1e-05,2e-05,0.00015,-1e-05,-0.00021,9e-05,3,27
41911,0.0001,7e-05,-1e-05,2e-05,0.00015,-1e-05,-0.00021,9e-05,3,27
41912,0.0001,7e-05,-1e-05,2e-05,0.00015,-1e-05,-0.00021,9e-05,3,27
41913,0.0001,7e-05,-1e-05,2e-05,0.00015,-1e-05,-0.00021,9e-05,3,27
41914,0.0001,7e-05,-1e-05,2e-05,0.00015,-1e-05,-0.00021,9e-05,3,27
41915,0.0001,7e-05,-1e-05,2e-05,0.00015,-1e-05,-0.00021,9e-05,3,27
41916,0.0001,7e-05,-1e-05,2e-05,0.00015,-1e-05,-0.00021,9e-05,3,27
41917,0.0001,7e-05,-1e-05,2e-05,0.00015,-1e-05,-0.00021,9e-05,3,27
41918,0.0001,7e-05,-1e-05,2e-05,0.00015,-1e-05,-0.00021,9e-05,3,27
41919,0.0001,7e-05,-1e-05,2e-05,0.00015,-1e-05,-0.00021,9e-05,3,27
41920,0.0001,7e-05,-1e-05,2e-05,0.00015,-1e-05,-0.00021,9e-05,3,27
41921,0.0001,7e-05,-1e-05,2e-05,0.00015,-1e-05,-0.00021,9e-05,3,27
41922,0.0001,7e-05,-1e-05,2e-05,0.00015,-1e-05,-0.00021,9e-05,3,27
41923,0.0001,7e-05,-1e-05,2e-05,0.00015,-1e-05,-0.00021,9e-05,3,27
41924,0.0001,7e-05,-1e-05,2e-05,0.00015,-1e-05,-0.00021,9e-05,3,27
41925,0.0001,7e-05,-1e-05,2e-05,0.00015,-1e-05,-0.00021,9e-05,3,27
41926,0.0001,7e-05,-1e-05,2e-05,0.00015,-1e-05,-0.00021,9e-05,3,27
41927,0.0001,7e-05,-1e-05,2e-05,0.00015,-1e-05,-0.00021,9e-05,3,27
41928,0.0001,7e-05,-1e-05,2e-05,0.00015,-1e-05,-0.00021,9e-05,3,27
41929,-0.00025,-9e-05,-1e-05,-4e-05,-5e-05,-5e-05,-1e-05,0.00013,3,27
41930,0.00044,0.00013,-3e-05,0,0.0004,5e-05,-7e-05,4e-05,3,27
41931,0.00044,0.00013,-3e-05,0,0.0004,5e-05,-7e-05,4e-05,3,27
41932,0.00044,0.00013,-3e-05,0,0.0004,5e-05,-7e-05,4e-05,3,27
41933,0.00044,0.00013,-3e-05,0,0.0004,5e-05,-7e-05,4e-05,3,27
41934,0.00044,0.00013,-3e-05,0,0.0004,5e-05,-7e-05,4e-05,3,27
41935,0.00044,0.00013,-3e-05,0,0.0004,5e-05,-7e-05,4e-05,3,27
41936,0.00044,0.00013,-3e-05,0,0.0004,5e-05,-7e-05,4e-05,3,27
41938,0.00044,0.00013,-3e-05,0,0.0004,5e-05,-7e-05,4e-05,3,27
41939,0.00044,0.00013,-3e-05,0,0.0004,5e-05,-7e-05,4e-05,3,27
41940,0.00044,0.00013,-3e-05,0,0.0004,5e-05,-7e-05,4e-05,3,27
41941,0.00044,0.00013,-3e-05,0,0.0004,5e-05,-7e-05,4e-05,3,27
41942,0.00044,0.00013,-3e-05,0,0.0004,5e-05,-7e-05,4e-05,3,27
41943,0.00044,0.00013,-3e-05,0,0.0004,5e-05,-7e-05,4e-05,3,27
41944,0.00044,0.00013,-3e-05,0,0.0004,5e-05,-7e-05,4e-05,3,27
41945,0.00044,0.00013,-3e-05,0,0.0004,5e-05,-7e-05,4e-05,3,27
41946,0.00044,0.00013,-3e-05,0,0.0004,5e-05,-7e-05,4e-05,3,27
41947,0.00044,0.00013,-3e-05,0,0.0004,5e-05,-7e-05,4e-05,3,27
41948,0.00044,0.00013,-3e-05,0,0.0004,5e-05,-7e-05,4e-05,3,27
41949,0.00044,0.00013,-3e-05,0,0.0004,5e-05,-7e-05,4e-05,3,27
41950,0.00044,0.00013,-3e-05,0,0.0004,5e-05,-7e-05,4e-05,3,27
41951,0.00044,0.00013,-3e-05,0,0.0004,5e-05,-7e-05,4e-05,3,27
41952,0,-5e-05,0,5e-05,0.0001,0.00016,7e-05,0.0001,3,27
41953,-8e-05,-5e-05,-2e-05,-9e-05,-7e-05,-8e-05,-3e-05,-1e-05,3,27
41954,-8e-05,-5e-05,-2e-05,-9e-05,-7e-05,-8e-05,-3e-05,-1e-05,3,27
41955,-8e-05,-5e-05,-2e-05,-9e-05,-7e-05,-8e-05,-3e-05,-1e-05,3,27
41956,-8e-05,-5e-05,-2e-05,-9e-05,-7e-05,-8e-05,-3e-05,-1e-05,3,27
41957,-8e-05,-5e-05,-2e-05,-9e-05,-7e-05,-8e-05,-3e-05,-1e-05,3,27
41958,-8e-05,-5e-05,-2e-05,-9e-05,-7e-05,-8e-05,-3e-05,-1e-05,3,27
41959,-8e-05,-5e-05,-2e-05,-9e-05,-7e-05,-8e-05,-3e-05,-1e-05,3,27
41960,-8e-05,-5e-05,-2e-05,-9e-05,-7e-05,-8e-05,-3e-05,-1e-05,3,27
41961,-8e-05,-5e-05,-2e-05,-9e-05,-7e-05,-8e-05,-3e-05,-1e-05,3,27
41962,-8e-05,-5e-05,-2e-05,-9e-05,-7e-05,-8e-05,-3e-05,-1e-05,3,27
41963,-8e-05,-5e-05,-2e-05,-9e-05,-7e-05,-8e-05,-3e-05,-1e-05,3,27
41964,-8e-05,-5e-05,-2e-05,-9e-05,-7e-05,-8e-05,-3e-05,-1e-05,3,27
41965,-8e-05,-5e-05,-2e-05,-9e-05,-7e-05,-8e-05,-3e-05,-1e-05,3,27
41966,-3e-05,-3e-05,1e-05,5e-05,0.00035,0.00014,4e-05,2e-05,3,27
41967,-0.00012,-2e-05,-3e-05,-4e-05,-0.00019,-0.00017,1e-05,-3e-05,3,27
41968,-0.00012,-2e-05,-3e-05,-4e-05,-0.00019,-0.00017,1e-05,-3e-05,3,27
41969,-0.00012,-2e-05,-3e-05,-4e-05,-0.00019,-0.00017,1e-05,-3e-05,3,27
41970,-0.00012,-2e-05,-3e-05,-4e-05,-0.00019,-0.00017,1e-05,-3e-05,3,27
41971,-0.00012,-2e-05,-3e-05,-4e-05,-0.00019,-0.00017,1e-05,-3e-05,3,27
41972,-0.00012,-2e-05,-3e-05,-4e-05,-0.00019,-0.00017,1e-05,-3e-05,3,27
41973,-0.00012,-2e-05,-3e-05,-4e-05,-0.00019,-0.00017,1e-05,-3e-05,3,27
41974,-0.00012,-2e-05,-3e-05,-4e-05,-0.00019,-0.00017,1e-05,-3e-05,3,27
41975,-0.00012,-2e-05,-3e-05,-4e-05,-0.00019,-0.00017,1e-05,-3e-05,3,27
41976,-0.00012,-2e-05,-3e-05,-4e-05,-0.00019,-0.00017,1e-05,-3e-05,3,27
41977,-0.00012,-2e-05,-3e-05,-4e-05,-0.00019,-0.00017,1e-05,-3e-05,3,27
41978,-0.00012,-2e-05,-3e-05,-4e-05,-0.00019,-0.00017,1e-05,-3e-05,3,27
41979,-0.00012,-2e-05,-3e-05,-4e-05,-0.00019,-0.00017,1e-05,-3e-05,3,27
41980,-0.00012,-2e-05,-3e-05,-4e-05,-0.00019,-0.00017,1e-05,-3e-05,3,27
41981,-0.00012,-2e-05,-3e-05,-4e-05,-0.00019,-0.00017,1e-05,-3e-05,3,27
41982,-0.00012,-2e-05,-3e-05,-4e-05,-0.00019,-0.00017,1e-05,-3e-05,3,27
41983,-0.00012,-2e-05,-3e-05,-4e-05,-0.00019,-0.00017,1e-05,-3e-05,3,27
41984,-0.00012,-2e-05,-3e-05,-4e-05,-0.00019,-0.00017,1e-05,-3e-05,3,27
41985,-0.00012,-2e-05,-3e-05,-4e-05,-0.00019,-0.00017,1e-05,-3e-05,3,27
41986,-0.00012,-2e-05,-3e-05,-4e-05,-0.00019,-0.00017,1e-05,-3e-05,3,27
41988,-0.00012,-2e-05,-3e-05,-4e-05,-0.00019,-0.00017,1e-05,-3e-05,3,27
41989,-3e-05,-8e-05,0,7e-05,-5e-05,0.00012,-8e-05,4e-05,3,27
41990,-6e-05,3e-05,0,7e-05,0.0003,2e-05,-1e-05,8e-05,3,27
41991,-6e-05,3e-05,0,7e-05,0.0003,2e-05,-1e-05,8e-05,3,27
41992,-6e-05,3e-05,0,7e-05,0.0003,2e-05,-1e-05,8e-05,3,27
41993,-6e-05,3e-05,0,7e-05,0.0003,2e-05,-1e-05,8e-05,3,27
41994,-6e-05,3e-05,0,7e-05,0.0003,2e-05,-1e-05,8e-05,3,27
41995,-6e-05,3e-05,0,7e-05,0.0003,2e-05,-1e-05,8e-05,3,27
41996,-6e-05,3e-05,0,7e-05,0.0003,2e-05,-1e-05,8e-05,3,27
41997,-6e-05,3e-05,0,7e-05,0.0003,2e-05,-1e-05,8e-05,3,27
41998,-6e-05,3e-05,0,7e-05,0.0003,2e-05,-1e-05,8e-05,3,27
41999,-6e-05,3e-05,0,7e-05,0.0003,2e-05,-1e-05,8e-05,3,27
42000,-6e-05,3e-05,0,7e-05,0.0003,2e-05,-1e-05,8e-05,3,27
42001,-6e-05,3e-05,0,7e-05,0.0003,2e-05,-1e-05,8e-05,3,27
42002,-6e-05,3e-05,0,7e-05,0.0003,2e-05,-1e-05,8e-05,3,27
42003,2e-05,-8e-05,-1e-05,0,8e-05,0,-5e-05,2e-05,3,27
42004,2e-05,-8e-05,-1e-05,0,8e-05,0,-5e-05,2e-05,3,27
42005,2e-05,-8e-05,-1e-05,0,8e-05,0,-5e-05,2e-05,3,27
42006,2e-05,-8e-05,-1e-05,0,8e-05,0,-5e-05,2e-05,3,27
42007,2e-05,-8e-05,-1e-05,0,8e-05,0,-5e-05,2e-05,3,27
42008,2e-05,-8e-05,-1e-05,0,8e-05,0,-5e-05,2e-05,3,27
42009,2e-05,-8e-05,-1e-05,0,8e-05,0,-5e-05,2e-05,3,27
42010,2e-05,-8e-05,-1e-05,0,8e-05,0,-5e-05,2e-05,3,27
42011,0.00019,-0.00014,-3e-05,-5e-05,-0.0002,-0.00013,-7e-05,1e-05,3,27
42012,0.00019,-0.00014,-3e-05,-5e-05,-0.0002,-0.00013,-7e-05,1e-05,3,27
42013,0.00019,-0.00014,-3e-05,-5e-05,-0.0002,-0.00013,-7e-05,1e-05,3,27
42014,0.00019,-0.00014,-3e-05,-5e-05,-0.0002,-0.00013,-7e-05,1e-05,3,27
42015,0.00019,-0.00014,-3e-05,-5e-05,-0.0002,-0.00013,-7e-05,1e-05,3,27
42016,0.00019,-0.00014,-3e-05,-5e-05,-0.0002,-0.00013,-7e-05,1e-05,3,27
42017,0.00019,-0.00014,-3e-05,-5e-05,-0.0002,-0.00013,-7e-05,1e-05,3,27
42018,0.00019,-0.00014,-3e-05,-5e-05,-0.0002,-0.00013,-7e-05,1e-05,3,27
42019,0.00019,-0.00014,-3e-05,-5e-05,-0.0002,-0.00013,-7e-05,1e-05,3,27
42020,0.00019,-0.00014,-3e-05,-5e-05,-0.0002,-0.00013,-7e-05,1e-05,3,27
42021,0.00019,-0.00014,-3e-05,-5e-05,-0.0002,-0.00013,-7e-05,1e-05,3,27
42022,0.00019,-0.00014,-3e-05,-5e-05,-0.0002,-0.00013,-7e-05,1e-05,3,27
42023,0.00019,-0.00014,-3e-05,-5e-05,-0.0002,-0.00013,-7e-05,1e-05,3,27
42024,0.00019,-0.00014,-3e-05,-5e-05,-0.0002,-0.00013,-7e-05,1e-05,3,27
42025,0.00019,-0.00014,-3e-05,-5e-05,-0.0002,-0.00013,-7e-05,1e-05,3,27
42026,0.00034,4e-05,4e-05,0,-0.00012,-0.00047,-0.00013,0.00024,3,27
42027,1e-05,-2e-05,0,8e-05,-0.00026,2e-05,0.00011,0.00031,3,27
42028,1e-05,-2e-05,0,8e-05,-0.00026,2e-05,0.00011,0.00031,3,27
42029,1e-05,-2e-05,0,8e-05,-0.00026,2e-05,0.00011,0.00031,3,27
42030,1e-05,-2e-05,0,8e-05,-0.00026,2e-05,0.00011,0.00031,3,27
42031,1e-05,-2e-05,0,8e-05,-0.00026,2e-05,0.00011,0.00031,3,27
42032,1e-05,-2e-05,0,8e-05,-0.00026,2e-05,0.00011,0.00031,3,27
42033,1e-05,-2e-05,0,8e-05,-0.00026,2e-05,0.00011,0.00031,3,27
42034,1e-05,-2e-05,0,8e-05,-0.00026,2e-05,0.00011,0.00031,3,27
42035,1e-05,-2e-05,0,8e-05,-0.00026,2e-05,0.00011,0.00031,3,27
42036,1e-05,-2e-05,0,8e-05,-0.00026,2e-05,0.00011,0.00031,3,27
42038,1e-05,-2e-05,0,8e-05,-0.00026,2e-05,0.00011,0.00031,3,27
