9024,-4e-05,3e-05,4e-05,3e-05,-7e-05,-4e-05,0,-1e-05,3,28
9025,-4e-05,3e-05,4e-05,3e-05,-7e-05,-4e-05,0,-1e-05,3,28
9026,-4e-05,3e-05,4e-05,3e-05,-7e-05,-4e-05,0,-1e-05,3,28
9027,-4e-05,3e-05,4e-05,3e-05,-7e-05,-4e-05,0,-1e-05,3,28
9028,-4e-05,3e-05,4e-05,3e-05,-7e-05,-4e-05,0,-1e-05,3,28
9029,-4e-05,3e-05,4e-05,3e-05,-7e-05,-4e-05,0,-1e-05,3,28
9030,-4e-05,3e-05,4e-05,3e-05,-7e-05,-4e-05,0,-1e-05,3,28
9031,-4e-05,3e-05,4e-05,3e-05,-7e-05,-4e-05,0,-1e-05,3,28
9032,-4e-05,3e-05,4e-05,3e-05,-7e-05,-4e-05,0,-1e-05,3,28
9033,0.0001,0.00021,2e-05,0,-3e-05,-3e-05,0.00012,0.00028,3,28
9034,-3e-05,-6e-05,-0.0001,-8e-05,0,-8e-05,2e-05,-4e-05,3,28
9035,-3e-05,-6e-05,-0.0001,-8e-05,0,-8e-05,2e-05,-4e-05,3,28
9036,-3e-05,-6e-05,-0.0001,-8e-05,0,-8e-05,2e-05,-4e-05,3,28
9039,-3e-05,-6e-05,-0.0001,-8e-05,0,-8e-05,2e-05,-4e-05,3,28
9040,-3e-05,-6e-05,-0.0001,-8e-05,0,-8e-05,2e-05,-4e-05,3,28
9041,-3e-05,-6e-05,-0.0001,-8e-05,0,-8e-05,2e-05,-4e-05,3,28
9042,-3e-05,-6e-05,-0.0001,-8e-05,0,-8e-05,2e-05,-4e-05,3,28
9043,-3e-05,-6e-05,-0.0001,-8e-05,0,-8e-05,2e-05,-4e-05,3,28
9044,-3e-05,-6e-05,-0.0001,-8e-05,0,-8e-05,2e-05,-4e-05,3,28
9045,-3e-05,-6e-05,-0.0001,-8e-05,0,-8e-05,2e-05,-4e-05,3,28
9046,-3e-05,-6e-05,-0.0001,-8e-05,0,-8e-05,2e-05,-4e-05,3,28
9047,4e-05,0.00018,3e-05,2e-05,0,5e-05,-4e-05,-8e-05,3,28
9048,4e-05,0.00018,3e-05,2e-05,0,5e-05,-4e-05,-8e-05,3,28
9049,4e-05,0.00018,3e-05,2e-05,0,5e-05,-4e-05,-8e-05,3,28
9050,4e-05,0.00018,3e-05,2e-05,0,5e-05,-4e-05,-8e-05,3,28
9051,4e-05,0.00018,3e-05,2e-05,0,5e-05,-4e-05,-8e-05,3,28
9052,4e-05,0.00018,3e-05,2e-05,0,5e-05,-4e-05,-8e-05,3,28
9053,4e-05,0.00018,3e-05,2e-05,0,5e-05,-4e-05,-8e-05,3,28
9054,2e-05,0.00018,1e-05,2e-05,0,-4e-05,2e-05,4e-05,3,28
9055,2e-05,0.00018,1e-05,2e-05,0,-4e-05,2e-05,4e-05,3,28
9056,2e-05,0.00018,1e-05,2e-05,0,-4e-05,2e-05,4e-05,3,28
9057,2e-05,0.00018,1e-05,2e-05,0,-4e-05,2e-05,4e-05,3,28
9058,2e-05,0.00018,1e-05,2e-05,0,-4e-05,2e-05,4e-05,3,28
9059,2e-05,0.00018,1e-05,2e-05,0,-4e-05,2e-05,4e-05,3,28
9060,2e-05,0.00018,1e-05,2e-05,0,-4e-05,2e-05,4e-05,3,28
9061,2e-05,0.00018,1e-05,2e-05,0,-4e-05,2e-05,4e-05,3,28
9062,2e-05,0.00018,1e-05,2e-05,0,-4e-05,2e-05,4e-05,3,28
9063,2e-05,0.00018,1e-05,2e-05,0,-4e-05,2e-05,4e-05,3,28
9064,2e-05,0.00018,1e-05,2e-05,0,-4e-05,2e-05,4e-05,3,28
9065,2e-05,0.00018,1e-05,2e-05,0,-4e-05,2e-05,4e-05,3,28
9066,2e-05,0.00018,1e-05,2e-05,0,-4e-05,2e-05,4e-05,3,28
9067,2e-05,0.00018,1e-05,2e-05,0,-4e-05,2e-05,4e-05,3,28
9068,2e-05,0.00018,1e-05,2e-05,0,-4e-05,2e-05,4e-05,3,28
9069,2e-05,0.00018,1e-05,2e-05,0,-4e-05,2e-05,4e-05,3,28
9070,-1e-05,-0.00014,5e-05,4e-05,-2e-05,-2e-05,-2e-05,-7e-05,3,28
9071,-1e-05,-0.00014,5e-05,4e-05,-2e-05,-2e-05,-2e-05,-7e-05,3,28
9072,8e-05,0.00043,-2e-05,-6e-05,2e-05,2e-05,0,3e-05,3,28
9073,-5e-05,-0.00048,-2e-05,4e-05,4e-05,-5e-05,-0.0001,-6e-05,3,28
9074,-5e-05,-0.00048,-2e-05,4e-05,4e-05,-5e-05,-0.0001,-6e-05,3,28
9075,-5e-05,-0.00048,-2e-05,4e-05,4e-05,-5e-05,-0.0001,-6e-05,3,28
9076,-5e-05,-0.00048,-2e-05,4e-05,4e-05,-5e-05,-0.0001,-6e-05,3,28
9077,-5e-05,-0.00048,-2e-05,4e-05,4e-05,-5e-05,-0.0001,-6e-05,3,28
9078,-5e-05,-0.00048,-2e-05,4e-05,4e-05,-5e-05,-0.0001,-6e-05,3,28
9079,-5e-05,-0.00048,-2e-05,4e-05,4e-05,-5e-05,-0.0001,-6e-05,3,28
9080,-5e-05,-0.00048,-2e-05,4e-05,4e-05,-5e-05,-0.0001,-6e-05,3,28
9081,-5e-05,-0.00048,-2e-05,4e-05,4e-05,-5e-05,-0.0001,-6e-05,3,28
9082,-5e-05,-0.00048,-2e-05,4e-05,4e-05,-5e-05,-0.0001,-6e-05,3,28
9083,-5e-05,-0.00048,-2e-05,4e-05,4e-05,-5e-05,-0.0001,-6e-05,3,28
9084,-5e-05,-0.00048,-2e-05,4e-05,4e-05,-5e-05,-0.0001,-6e-05,3,28
9085,-5e-05,-0.00048,-2e-05,4e-05,4e-05,-5e-05,-0.0001,-6e-05,3,28
9086,-5e-05,-0.00048,-2e-05,4e-05,4e-05,-5e-05,-0.0001,-6e-05,3,28
9089,-5e-05,-0.00048,-2e-05,4e-05,4e-05,-5e-05,-0.0001,-6e-05,3,28
9090,-5e-05,-0.00048,-2e-05,4e-05,4e-05,-5e-05,-0.0001,-6e-05,3,28
9091,-5e-05,-0.00048,-2e-05,4e-05,4e-05,-5e-05,-0.0001,-6e-05,3,28
9093,-5e-05,-1e-05,-2e-05,-2e-05,-4e-05,-0.00012,-5e-05,-7e-05,3,28
9094,-1e-05,0.00026,-4e-05,-7e-05,-5e-05,-3e-05,5e-05,1e-05,3,28
9095,-1e-05,0.00026,-4e-05,-7e-05,-5e-05,-3e-05,5e-05,1e-05,3,28
9096,-1e-05,0.00026,-4e-05,-7e-05,-5e-05,-3e-05,5e-05,1e-05,3,28
9097,-1e-05,0.00026,-4e-05,-7e-05,-5e-05,-3e-05,5e-05,1e-05,3,28
9098,-1e-05,0.00026,-4e-05,-7e-05,-5e-05,-3e-05,5e-05,1e-05,3,28
9099,-1e-05,0.00026,-4e-05,-7e-05,-5e-05,-3e-05,5e-05,1e-05,3,28
9100,-1e-05,0.00026,-4e-05,-7e-05,-5e-05,-3e-05,5e-05,1e-05,3,28
9101,-1e-05,0.00026,-4e-05,-7e-05,-5e-05,-3e-05,5e-05,1e-05,3,28
9102,-1e-05,0.00026,-4e-05,-7e-05,-5e-05,-3e-05,5e-05,1e-05,3,28
9103,-1e-05,0.00026,-4e-05,-7e-05,-5e-05,-3e-05,5e-05,1e-05,3,28
9104,-1e-05,0.00026,-4e-05,-7e-05,-5e-05,-3e-05,5e-05,1e-05,3,28
9105,-1e-05,0.00026,-4e-05,-7e-05,-5e-05,-3e-05,5e-05,1e-05,3,28
9106,-1e-05,0.00026,-4e-05,-7e-05,-5e-05,-3e-05,5e-05,1e-05,3,28
9107,-1e-05,0.00026,-4e-05,-7e-05,-5e-05,-3e-05,5e-05,1e-05,3,28
9108,-1e-05,0.00026,-4e-05,-7e-05,-5e-05,-3e-05,5e-05,1e-05,3,28
9109,-1e-05,0.00026,-4e-05,-7e-05,-5e-05,-3e-05,5e-05,1e-05,3,28
9110,-1e-05,0.00026,-4e-05,-7e-05,-5e-05,-3e-05,5e-05,1e-05,3,28
9111,-1e-05,0.00026,-4e-05,-7e-05,-5e-05,-3e-05,5e-05,1e-05,3,28
9112,-1e-05,0.00026,-4e-05,-7e-05,-5e-05,-3e-05,5e-05,1e-05,3,28
9113,-1e-05,0.00026,-4e-05,-7e-05,-5e-05,-3e-05,5e-05,1e-05,3,28
9114,-1e-05,0.00026,-4e-05,-7e-05,-5e-05,-3e-05,5e-05,1e-05,3,28
9115,-5e-05,-0.00013,-3e-05,-1e-05,-4e-05,-5e-05,-6e-05,-4e-05,3,28
9116,-5e-05,-0.00013,-3e-05,-1e-05,-4e-05,-5e-05,-6e-05,-4e-05,3,28
9117,-3e-05,0.00013,0.00014,0.0001,6e-05,-2e-05,3e-05,2e-05,3,28
9118,-3e-05,0.00013,0.00014,0.0001,6e-05,-2e-05,3e-05,2e-05,3,28
9119,-3e-05,0.00013,0.00014,0.0001,6e-05,-2e-05,3e-05,2e-05,3,28
9120,-3e-05,0.00013,0.00014,0.0001,6e-05,-2e-05,3e-05,2e-05,3,28
9121,-3e-05,0.00013,0.00014,0.0001,6e-05,-2e-05,3e-05,2e-05,3,28
9122,-3e-05,0.00013,0.00014,0.0001,6e-05,-2e-05,3e-05,2e-05,3,28
9123,-3e-05,0.00013,0.00014,0.0001,6e-05,-2e-05,3e-05,2e-05,3,28
9124,-3e-05,0.00013,0.00014,0.0001,6e-05,-2e-05,3e-05,2e-05,3,28
9125,-3e-05,0.00013,0.00014,0.0001,6e-05,-2e-05,3e-05,2e-05,3,28
9126,-3e-05,0.00013,0.00014,0.0001,6e-05,-2e-05,3e-05,2e-05,3,28
9127,-3e-05,0.00013,0.00014,0.0001,6e-05,-2e-05,3e-05,2e-05,3,28
9128,-3e-05,0.00013,0.00014,0.0001,6e-05,-2e-05,3e-05,2e-05,3,28
9129,-3e-05,0.00013,0.00014,0.0001,6e-05,-2e-05,3e-05,2e-05,3,28
9130,-1e-05,-0.00029,-0.00012,-0.00013,-1e-05,6e-05,-2e-05,-3e-05,3,28
9131,-1e-05,-0.00029,-0.00012,-0.00013,-1e-05,6e-05,-2e-05,-3e-05,3,28
9132,6e-05,0.00016,4e-05,4e-05,-3e-05,2e-05,2e-05,2e-05,3,28
9133,6e-05,0.00016,4e-05,4e-05,-3e-05,2e-05,2e-05,2e-05,3,28
9134,6e-05,0.00016,4e-05,4e-05,-3e-05,2e-05,2e-05,2e-05,3,28
9135,6e-05,0.00016,4e-05,4e-05,-3e-05,2e-05,2e-05,2e-05,3,28
9136,6e-05,0.00016,4e-05,4e-05,-3e-05,2e-05,2e-05,2e-05,3,28
9139,6e-05,0.00016,4e-05,4e-05,-3e-05,2e-05,2e-05,2e-05,3,28
9140,6e-05,0.00016,4e-05,4e-05,-3e-05,2e-05,2e-05,2e-05,3,28
9141,6e-05,0.00016,4e-05,4e-05,-3e-05,2e-05,2e-05,2e-05,3,28
9142,6e-05,0.00016,4e-05,4e-05,-3e-05,2e-05,2e-05,2e-05,3,28
9143,6e-05,0.00016,4e-05,4e-05,-3e-05,2e-05,2e-05,2e-05,3,28
9144,6e-05,0.00016,4e-05,4e-05,-3e-05,2e-05,2e-05,2e-05,3,28
9145,6e-05,0.00016,4e-05,4e-05,-3e-05,2e-05,2e-05,2e-05,3,28
9146,6e-05,0.00016,4e-05,4e-05,-3e-05,2e-05,2e-05,2e-05,3,28
9147,6e-05,0.00016,4e-05,4e-05,-3e-05,2e-05,2e-05,2e-05,3,28
9148,6e-05,0.00016,4e-05,4e-05,-3e-05,2e-05,2e-05,2e-05,3,28
9149,6e-05,0.00016,4e-05,4e-05,-3e-05,2e-05,2e-05,2e-05,3,28
9150,6e-05,0.00016,4e-05,4e-05,-3e-05,2e-05,2e-05,2e-05,3,28
9151,6e-05,0.00016,4e-05,4e-05,-3e-05,2e-05,2e-05,2e-05,3,28
9152,6e-05,0.00016,4e-05,4e-05,-3e-05,2e-05,2e-05,2e-05,3,28
9153,-0.0001,-0.00022,1e-05,2e-05,1e-05,4e-05,-1e-05,-5e-05,3,28
9154,-2e-05,-0.00018,-0.00011,-9e-05,-5e-05,-5e-05,-3e-05,-2e-05,3,28
9155,-2e-05,-0.00018,-0.00011,-9e-05,-5e-05,-5e-05,-3e-05,-2e-05,3,28
9156,-2e-05,-0.00018,-0.00011,-9e-05,-5e-05,-5e-05,-3e-05,-2e-05,3,28
9157,-2e-05,-0.00018,-0.00011,-9e-05,-5e-05,-5e-05,-3e-05,-2e-05,3,28
9158,-2e-05,-0.00018,-0.00011,-9e-05,-5e-05,-5e-05,-3e-05,-2e-05,3,28
9159,-2e-05,-0.00018,-0.00011,-9e-05,-5e-05,-5e-05,-3e-05,-2e-05,3,28
9160,-2e-05,-0.00018,-0.00011,-9e-05,-5e-05,-5e-05,-3e-05,-2e-05,3,28
9161,-2e-05,-0.00018,-0.00011,-9e-05,-5e-05,-5e-05,-3e-05,-2e-05,3,28
9162,-2e-05,-0.00018,-0.00011,-9e-05,-5e-05,-5e-05,-3e-05,-2e-05,3,28
9163,-2e-05,-0.00018,-0.00011,-9e-05,-5e-05,-5e-05,-3e-05,-2e-05,3,28
9164,-2e-05,-0.00018,-0.00011,-9e-05,-5e-05,-5e-05,-3e-05,-2e-05,3,28
9165,-2e-05,-0.00018,-0.00011,-9e-05,-5e-05,-5e-05,-3e-05,-2e-05,3,28
9166,-2e-05,-0.00018,-0.00011,-9e-05,-5e-05,-5e-05,-3e-05,-2e-05,3,28
9167,-3e-05,6e-05,-0.0001,-0.00011,-5e-05,2e-05,-4e-05,-4e-05,3,28
9168,-3e-05,6e-05,-0.0001,-0.00011,-5e-05,2e-05,-4e-05,-4e-05,3,28
9169,-3e-05,6e-05,-0.0001,-0.00011,-5e-05,2e-05,-4e-05,-4e-05,3,28
9170,-3e-05,6e-05,-0.0001,-0.00011,-5e-05,2e-05,-4e-05,-4e-05,3,28
9172,-3e-05,6e-05,-0.0001,-0.00011,-5e-05,2e-05,-4e-05,-4e-05,3,28
9173,-3e-05,6e-05,-0.0001,-0.00011,-5e-05,2e-05,-4e-05,-4e-05,3,28
9174,3e-05,8e-05,5e-05,4e-05,2e-05,3e-05,1e-05,-2e-05,3,28
9175,3e-05,8e-05,5e-05,4e-05,2e-05,3e-05,1e-05,-2e-05,3,28
9176,3e-05,8e-05,5e-05,4e-05,2e-05,3e-05,1e-05,-2e-05,3,28
9177,3e-05,8e-05,5e-05,4e-05,2e-05,3e-05,1e-05,-2e-05,3,28
9178,3e-05,8e-05,5e-05,4e-05,2e-05,3e-05,1e-05,-2e-05,3,28
9179,3e-05,8e-05,5e-05,4e-05,2e-05,3e-05,1e-05,-2e-05,3,28
9180,3e-05,8e-05,5e-05,4e-05,2e-05,3e-05,1e-05,-2e-05,3,28
9181,3e-05,8e-05,5e-05,4e-05,2e-05,3e-05,1e-05,-2e-05,3,28
9183,3e-05,8e-05,5e-05,4e-05,2e-05,3e-05,1e-05,-2e-05,3,28
9184,3e-05,8e-05,5e-05,4e-05,2e-05,3e-05,1e-05,-2e-05,3,28
9185,3e-05,8e-05,5e-05,4e-05,2e-05,3e-05,1e-05,-2e-05,3,28
9186,3e-05,8e-05,5e-05,4e-05,2e-05,3e-05,1e-05,-2e-05,3,28
9189,3e-05,8e-05,5e-05,4e-05,2e-05,3e-05,1e-05,-2e-05,3,28
9190,3e-05,8e-05,5e-05,4e-05,2e-05,3e-05,1e-05,-2e-05,3,28
9191,3e-05,0.00029,6e-05,4e-05,-3e-05,-6e-05,8e-05,0.00027,3,28
9192,0,-3e-05,-0.00013,1e-05,-2e-05,1e-05,-3e-05,0,3,28
9193,0,-3e-05,-0.00013,1e-05,-2e-05,1e-05,-3e-05,0,3,28
9194,0,-3e-05,-0.00013,1e-05,-2e-05,1e-05,-3e-05,0,3,28
9195,0,-3e-05,-0.00013,1e-05,-2e-05,1e-05,-3e-05,0,3,28
9196,0,-3e-05,-0.00013,1e-05,-2e-05,1e-05,-3e-05,0,3,28
9197,0,-3e-05,-0.00013,1e-05,-2e-05,1e-05,-3e-05,0,3,28
9198,0,-3e-05,-0.00013,1e-05,-2e-05,1e-05,-3e-05,0,3,28
9199,0,-3e-05,-0.00013,1e-05,-2e-05,1e-05,-3e-05,0,3,28
9200,0,-3e-05,-0.00013,1e-05,-2e-05,1e-05,-3e-05,0,3,28
9201,0,-3e-05,-0.00013,1e-05,-2e-05,1e-05,-3e-05,0,3,28
9202,0,-3e-05,-0.00013,1e-05,-2e-05,1e-05,-3e-05,0,3,28
9203,0,-3e-05,-0.00013,1e-05,-2e-05,1e-05,-3e-05,0,3,28
9204,0,-3e-05,-0.00013,1e-05,-2e-05,1e-05,-3e-05,0,3,28
9205,0,-3e-05,-0.00013,1e-05,-2e-05,1e-05,-3e-05,0,3,28
9206,0,-3e-05,-0.00013,1e-05,-2e-05,1e-05,-3e-05,0,3,28
9207,0,-3e-05,-0.00013,1e-05,-2e-05,1e-05,-3e-05,0,3,28
9208,0,-3e-05,-0.00013,1e-05,-2e-05,1e-05,-3e-05,0,3,28
9209,0,-3e-05,-0.00013,1e-05,-2e-05,1e-05,-3e-05,0,3,28
9210,0,-3e-05,-0.00013,1e-05,-2e-05,1e-05,-3e-05,0,3,28
9211,0,-3e-05,-0.00013,1e-05,-2e-05,1e-05,-3e-05,0,3,28
9212,0,-3e-05,-0.00013,1e-05,-2e-05,1e-05,-3e-05,0,3,28
9213,5e-05,0.0002,4e-05,4e-05,8e-05,1e-05,0,-5e-05,3,28
9214,-0.00013,-0.00033,5e-05,8e-05,2e-05,2e-05,1e-05,-1e-05,3,28
9215,-0.00013,-0.00033,5e-05,8e-05,2e-05,2e-05,1e-05,-1e-05,3,28
9216,-0.00013,-0.00033,5e-05,8e-05,2e-05,2e-05,1e-05,-1e-05,3,28
9217,-0.00013,-0.00033,5e-05,8e-05,2e-05,2e-05,1e-05,-1e-05,3,28
9218,-0.00013,-0.00033,5e-05,8e-05,2e-05,2e-05,1e-05,-1e-05,3,28
9219,-0.00013,-0.00033,5e-05,8e-05,2e-05,2e-05,1e-05,-1e-05,3,28
9220,-0.00013,-0.00033,5e-05,8e-05,2e-05,2e-05,1e-05,-1e-05,3,28
9221,-0.00013,-0.00033,5e-05,8e-05,2e-05,2e-05,1e-05,-1e-05,3,28
9222,-0.00013,-0.00033,5e-05,8e-05,2e-05,2e-05,1e-05,-1e-05,3,28
9223,-0.00013,-0.00033,5e-05,8e-05,2e-05,2e-05,1e-05,-1e-05,3,28
9224,-0.00013,-0.00033,5e-05,8e-05,2e-05,2e-05,1e-05,-1e-05,3,28
9225,-0.00013,-0.00033,5e-05,8e-05,2e-05,2e-05,1e-05,-1e-05,3,28
9226,-0.00013,-0.00033,5e-05,8e-05,2e-05,2e-05,1e-05,-1e-05,3,28
9227,0,5e-05,4e-05,-5e-05,-9e-05,2e-05,2e-05,-5e-05,3,28
9228,0,5e-05,4e-05,-5e-05,-9e-05,2e-05,2e-05,-5e-05,3,28
9229,0,5e-05,4e-05,-5e-05,-9e-05,2e-05,2e-05,-5e-05,3,28
9231,0,5e-05,4e-05,-5e-05,-9e-05,2e-05,2e-05,-5e-05,3,28
9232,0,5e-05,4e-05,-5e-05,-9e-05,2e-05,2e-05,-5e-05,3,28
9233,0,5e-05,4e-05,-5e-05,-9e-05,2e-05,2e-05,-5e-05,3,28
9234,4e-05,2e-05,-0.0001,-0.00014,1e-05,7e-05,-8e-05,-5e-05,3,28
9235,4e-05,2e-05,-0.0001,-0.00014,1e-05,7e-05,-8e-05,-5e-05,3,28
9236,4e-05,2e-05,-0.0001,-0.00014,1e-05,7e-05,-8e-05,-5e-05,3,28
9239,4e-05,2e-05,-0.0001,-0.00014,1e-05,7e-05,-8e-05,-5e-05,3,28
9240,4e-05,2e-05,-0.0001,-0.00014,1e-05,7e-05,-8e-05,-5e-05,3,28
9241,4e-05,2e-05,-0.0001,-0.00014,1e-05,7e-05,-8e-05,-5e-05,3,28
9242,4e-05,2e-05,-0.0001,-0.00014,1e-05,7e-05,-8e-05,-5e-05,3,28
9243,4e-05,2e-05,-0.0001,-0.00014,1e-05,7e-05,-8e-05,-5e-05,3,28
9244,4e-05,2e-05,-0.0001,-0.00014,1e-05,7e-05,-8e-05,-5e-05,3,28
9245,4e-05,2e-05,-0.0001,-0.00014,1e-05,7e-05,-8e-05,-5e-05,3,28
9246,4e-05,2e-05,-0.0001,-0.00014,1e-05,7e-05,-8e-05,-5e-05,3,28
9247,4e-05,2e-05,-0.0001,-0.00014,1e-05,7e-05,-8e-05,-5e-05,3,28
9248,4e-05,2e-05,-0.0001,-0.00014,1e-05,7e-05,-8e-05,-5e-05,3,28
9249,4e-05,2e-05,-0.0001,-0.00014,1e-05,7e-05,-8e-05,-5e-05,3,28
9250,-6e-05,-0.00013,2e-05,2e-05,3e-05,-2e-05,-4e-05,-5e-05,3,28
9251,-6e-05,-0.00013,2e-05,2e-05,3e-05,-2e-05,-4e-05,-5e-05,3,28
9252,2e-05,0.0002,5e-05,0,1e-05,-3e-05,-2e-05,-2e-05,3,28
9253,2e-05,0.0002,5e-05,0,1e-05,-3e-05,-2e-05,-2e-05,3,28
9254,2e-05,0.0002,5e-05,0,1e-05,-3e-05,-2e-05,-2e-05,3,28
9255,2e-05,0.0002,5e-05,0,1e-05,-3e-05,-2e-05,-2e-05,3,28
9256,2e-05,0.0002,5e-05,0,1e-05,-3e-05,-2e-05,-2e-05,3,28
9257,2e-05,0.0002,5e-05,0,1e-05,-3e-05,-2e-05,-2e-05,3,28
9258,2e-05,0.0002,5e-05,0,1e-05,-3e-05,-2e-05,-2e-05,3,28
9259,2e-05,0.0002,5e-05,0,1e-05,-3e-05,-2e-05,-2e-05,3,28
9260,2e-05,0.0002,5e-05,0,1e-05,-3e-05,-2e-05,-2e-05,3,28
9261,2e-05,0.0002,5e-05,0,1e-05,-3e-05,-2e-05,-2e-05,3,28
9262,2e-05,0.0002,5e-05,0,1e-05,-3e-05,-2e-05,-2e-05,3,28
9263,2e-05,0.0002,5e-05,0,1e-05,-3e-05,-2e-05,-2e-05,3,28
9264,2e-05,0.0002,5e-05,0,1e-05,-3e-05,-2e-05,-2e-05,3,28
9265,2e-05,0.0002,5e-05,0,1e-05,-3e-05,-2e-05,-2e-05,3,28
9266,2e-05,0.0002,5e-05,0,1e-05,-3e-05,-2e-05,-2e-05,3,28
9267,2e-05,0.0002,5e-05,0,1e-05,-3e-05,-2e-05,-2e-05,3,28
9268,2e-05,0.0002,5e-05,0,1e-05,-3e-05,-2e-05,-2e-05,3,28
9269,2e-05,0.0002,5e-05,0,1e-05,-3e-05,-2e-05,-2e-05,3,28
9270,2e-05,0.0002,5e-05,0,1e-05,-3e-05,-2e-05,-2e-05,3,28
9271,2e-05,0.0002,5e-05,0,1e-05,-3e-05,-2e-05,-2e-05,3,28
9272,2e-05,0.0002,5e-05,0,1e-05,-3e-05,-2e-05,-2e-05,3,28
9273,6e-05,0.00013,-1e-05,2e-05,1e-05,0.00011,3e-05,-3e-05,3,28
9274,1e-05,9e-05,-0.00013,-0.00024,-9e-05,-5e-05,-2e-05,0,3,28
9275,1e-05,9e-05,-0.00013,-0.00024,-9e-05,-5e-05,-2e-05,0,3,28
9276,1e-05,9e-05,-0.00013,-0.00024,-9e-05,-5e-05,-2e-05,0,3,28
9277,1e-05,9e-05,-0.00013,-0.00024,-9e-05,-5e-05,-2e-05,0,3,28
9278,1e-05,9e-05,-0.00013,-0.00024,-9e-05,-5e-05,-2e-05,0,3,28
9279,1e-05,9e-05,-0.00013,-0.00024,-9e-05,-5e-05,-2e-05,0,3,28
9280,1e-05,9e-05,-0.00013,-0.00024,-9e-05,-5e-05,-2e-05,0,3,28
9281,1e-05,9e-05,-0.00013,-0.00024,-9e-05,-5e-05,-2e-05,0,3,28
9282,1e-05,9e-05,-0.00013,-0.00024,-9e-05,-5e-05,-2e-05,0,3,28
9283,1e-05,9e-05,-0.00013,-0.00024,-9e-05,-5e-05,-2e-05,0,3,28
9284,1e-05,9e-05,-0.00013,-0.00024,-9e-05,-5e-05,-2e-05,0,3,28
9285,1e-05,9e-05,-0.00013,-0.00024,-9e-05,-5e-05,-2e-05,0,3,28
9286,1e-05,9e-05,-0.00013,-0.00024,-9e-05,-5e-05,-2e-05,0,3,28
9289,7e-05,8e-05,-8e-05,0,3e-05,-1e-05,-2e-05,-2e-05,3,28
9290,7e-05,8e-05,-8e-05,0,3e-05,-1e-05,-2e-05,-2e-05,3,28
9291,7e-05,8e-05,-8e-05,0,3e-05,-1e-05,-2e-05,-2e-05,3,28
9292,7e-05,8e-05,-8e-05,0,3e-05,-1e-05,-2e-05,-2e-05,3,28
9293,7e-05,8e-05,-8e-05,0,3e-05,-1e-05,-2e-05,-2e-05,3,28
9294,-2e-05,-0.00011,-9e-05,1e-05,-2e-05,0,-1e-05,-2e-05,3,28
9295,-2e-05,-0.00011,-9e-05,1e-05,-2e-05,0,-1e-05,-2e-05,3,28
9296,-2e-05,-0.00011,-9e-05,1e-05,-2e-05,0,-1e-05,-2e-05,3,28
9297,-2e-05,-0.00011,-9e-05,1e-05,-2e-05,0,-1e-05,-2e-05,3,28
9298,-2e-05,-0.00011,-9e-05,1e-05,-2e-05,0,-1e-05,-2e-05,3,28
9299,-2e-05,-0.00011,-9e-05,1e-05,-2e-05,0,-1e-05,-2e-05,3,28
9300,-2e-05,-0.00011,-9e-05,1e-05,-2e-05,0,-1e-05,-2e-05,3,28
9301,-2e-05,-0.00011,-9e-05,1e-05,-2e-05,0,-1e-05,-2e-05,3,28
9302,-2e-05,-0.00011,-9e-05,1e-05,-2e-05,0,-1e-05,-2e-05,3,28
9303,-2e-05,-0.00011,-9e-05,1e-05,-2e-05,0,-1e-05,-2e-05,3,28
9304,-2e-05,-0.00011,-9e-05,1e-05,-2e-05,0,-1e-05,-2e-05,3,28
9305,-2e-05,-0.00011,-9e-05,1e-05,-2e-05,0,-1e-05,-2e-05,3,28
9306,-2e-05,-0.00011,-9e-05,1e-05,-2e-05,0,-1e-05,-2e-05,3,28
9307,-2e-05,-0.00011,-9e-05,1e-05,-2e-05,0,-1e-05,-2e-05,3,28
9308,-2e-05,-0.00011,-9e-05,1e-05,-2e-05,0,-1e-05,-2e-05,3,28
9309,-2e-05,-0.00011,-9e-05,1e-05,-2e-05,0,-1e-05,-2e-05,3,28
9310,-2e-05,6e-05,5e-05,4e-05,-2e-05,-4e-05,0,-6e-05,3,28
9311,-2e-05,6e-05,5e-05,4e-05,-2e-05,-4e-05,0,-6e-05,3,28
9312,0,8e-05,7e-05,0.00012,1e-05,1e-05,3e-05,-1e-05,3,28
9313,0,8e-05,7e-05,0.00012,1e-05,1e-05,3e-05,-1e-05,3,28
9314,0,8e-05,7e-05,0.00012,1e-05,1e-05,3e-05,-1e-05,3,28
9315,0,8e-05,7e-05,0.00012,1e-05,1e-05,3e-05,-1e-05,3,28
9316,0,8e-05,7e-05,0.00012,1e-05,1e-05,3e-05,-1e-05,3,28
9317,0,8e-05,7e-05,0.00012,1e-05,1e-05,3e-05,-1e-05,3,28
9318,0,8e-05,7e-05,0.00012,1e-05,1e-05,3e-05,-1e-05,3,28
9319,0,8e-05,7e-05,0.00012,1e-05,1e-05,3e-05,-1e-05,3,28
9320,0,8e-05,7e-05,0.00012,1e-05,1e-05,3e-05,-1e-05,3,28
9321,0,8e-05,7e-05,0.00012,1e-05,1e-05,3e-05,-1e-05,3,28
9322,0,8e-05,7e-05,0.00012,1e-05,1e-05,3e-05,-1e-05,3,28
9323,0,8e-05,7e-05,0.00012,1e-05,1e-05,3e-05,-1e-05,3,28
9324,0,8e-05,7e-05,0.00012,1e-05,1e-05,3e-05,-1e-05,3,28
9325,0,8e-05,7e-05,0.00012,1e-05,1e-05,3e-05,-1e-05,3,28
9326,0,8e-05,7e-05,0.00012,1e-05,1e-05,3e-05,-1e-05,3,28
9327,0,8e-05,7e-05,0.00012,1e-05,1e-05,3e-05,-1e-05,3,28
9328,0,8e-05,7e-05,0.00012,1e-05,1e-05,3e-05,-1e-05,3,28
9329,0,8e-05,7e-05,0.00012,1e-05,1e-05,3e-05,-1e-05,3,28
9330,0,8e-05,7e-05,0.00012,1e-05,1e-05,3e-05,-1e-05,3,28
9331,0,8e-05,7e-05,0.00012,1e-05,1e-05,3e-05,-1e-05,3,28
9332,0,8e-05,7e-05,0.00012,1e-05,1e-05,3e-05,-1e-05,3,28
9333,-9e-05,-8e-05,-5e-05,-1e-05,-4e-05,-8e-05,-3e-05,-4e-05,3,28
9334,4e-05,-5e-05,4e-05,3e-05,0,-6e-05,-2e-05,-1e-05,3,28
9335,4e-05,-5e-05,4e-05,3e-05,0,-6e-05,-2e-05,-1e-05,3,28
9336,4e-05,-5e-05,4e-05,3e-05,0,-6e-05,-2e-05,-1e-05,3,28
9339,4e-05,-5e-05,4e-05,3e-05,0,-6e-05,-2e-05,-1e-05,3,28
9340,4e-05,-5e-05,4e-05,3e-05,0,-6e-05,-2e-05,-1e-05,3,28
9341,4e-05,-5e-05,4e-05,3e-05,0,-6e-05,-2e-05,-1e-05,3,28
9342,4e-05,-5e-05,4e-05,3e-05,0,-6e-05,-2e-05,-1e-05,3,28
9343,4e-05,-5e-05,4e-05,3e-05,0,-6e-05,-2e-05,-1e-05,3,28
9344,4e-05,-5e-05,4e-05,3e-05,0,-6e-05,-2e-05,-1e-05,3,28
9345,4e-05,-5e-05,4e-05,3e-05,0,-6e-05,-2e-05,-1e-05,3,28
9346,-5e-05,-0.00024,-5e-05,-7e-05,-4e-05,7e-05,-8e-05,-5e-05,3,28
9347,-5e-05,-0.00024,-5e-05,-7e-05,-4e-05,7e-05,-8e-05,-5e-05,3,28
9348,-5e-05,-0.00024,-5e-05,-7e-05,-4e-05,7e-05,-8e-05,-5e-05,3,28
9349,-5e-05,-0.00024,-5e-05,-7e-05,-4e-05,7e-05,-8e-05,-5e-05,3,28
9350,-5e-05,-0.00024,-5e-05,-7e-05,-4e-05,7e-05,-8e-05,-5e-05,3,28
9351,-5e-05,-0.00024,-5e-05,-7e-05,-4e-05,7e-05,-8e-05,-5e-05,3,28
9352,-5e-05,-0.00024,-5e-05,-7e-05,-4e-05,7e-05,-8e-05,-5e-05,3,28
9353,-5e-05,-0.00024,-5e-05,-7e-05,-4e-05,7e-05,-8e-05,-5e-05,3,28
9354,-5e-05,-0.00024,-5e-05,-7e-05,-4e-05,7e-05,-8e-05,-5e-05,3,28
9355,-3e-05,6e-05,5e-05,5e-05,0.0001,8e-05,3e-05,0,3,28
9356,-3e-05,6e-05,5e-05,5e-05,0.0001,8e-05,3e-05,0,3,28
9357,-3e-05,6e-05,5e-05,5e-05,0.0001,8e-05,3e-05,0,3,28
9358,-3e-05,6e-05,5e-05,5e-05,0.0001,8e-05,3e-05,0,3,28
9359,-3e-05,6e-05,5e-05,5e-05,0.0001,8e-05,3e-05,0,3,28
9360,-3e-05,6e-05,5e-05,5e-05,0.0001,8e-05,3e-05,0,3,28
9361,-3e-05,6e-05,5e-05,5e-05,0.0001,8e-05,3e-05,0,3,28
9362,-3e-05,6e-05,5e-05,5e-05,0.0001,8e-05,3e-05,0,3,28
9363,-3e-05,6e-05,5e-05,5e-05,0.0001,8e-05,3e-05,0,3,28
9364,-3e-05,6e-05,5e-05,5e-05,0.0001,8e-05,3e-05,0,3,28
9365,-3e-05,6e-05,5e-05,5e-05,0.0001,8e-05,3e-05,0,3,28
9366,-3e-05,6e-05,5e-05,5e-05,0.0001,8e-05,3e-05,0,3,28
9367,-3e-05,6e-05,5e-05,5e-05,0.0001,8e-05,3e-05,0,3,28
9368,-3e-05,6e-05,5e-05,5e-05,0.0001,8e-05,3e-05,0,3,28
9369,-3e-05,6e-05,5e-05,5e-05,0.0001,8e-05,3e-05,0,3,28
9370,-3e-05,2e-05,-2e-05,1e-05,1e-05,-8e-05,-2e-05,-3e-05,3,28
9371,-3e-05,2e-05,-2e-05,1e-05,1e-05,-8e-05,-2e-05,-3e-05,3,28
9372,1e-05,-5e-05,4e-05,9e-05,0,0.00014,-7e-05,1e-05,3,28
9373,1e-05,-5e-05,4e-05,9e-05,0,0.00014,-7e-05,1e-05,3,28
9374,1e-05,-5e-05,4e-05,9e-05,0,0.00014,-7e-05,1e-05,3,28
9375,1e-05,-5e-05,4e-05,9e-05,0,0.00014,-7e-05,1e-05,3,28
9376,1e-05,-5e-05,4e-05,9e-05,0,0.00014,-7e-05,1e-05,3,28
9377,1e-05,-5e-05,4e-05,9e-05,0,0.00014,-7e-05,1e-05,3,28
9378,1e-05,-5e-05,4e-05,9e-05,0,0.00014,-7e-05,1e-05,3,28
9379,1e-05,-5e-05,4e-05,9e-05,0,0.00014,-7e-05,1e-05,3,28
9380,1e-05,-5e-05,4e-05,9e-05,0,0.00014,-7e-05,1e-05,3,28
9381,1e-05,-5e-05,4e-05,9e-05,0,0.00014,-7e-05,1e-05,3,28
9382,1e-05,-5e-05,4e-05,9e-05,0,0.00014,-7e-05,1e-05,3,28
9383,1e-05,-5e-05,4e-05,9e-05,0,0.00014,-7e-05,1e-05,3,28
9384,1e-05,-5e-05,4e-05,9e-05,0,0.00014,-7e-05,1e-05,3,28
9385,1e-05,-5e-05,4e-05,9e-05,0,0.00014,-7e-05,1e-05,3,28
9386,1e-05,-5e-05,4e-05,9e-05,0,0.00014,-7e-05,1e-05,3,28
9388,1e-05,-5e-05,4e-05,9e-05,0,0.00014,-7e-05,1e-05,3,28
9389,1e-05,-5e-05,4e-05,9e-05,0,0.00014,-7e-05,1e-05,3,28
9390,1e-05,-5e-05,4e-05,9e-05,0,0.00014,-7e-05,1e-05,3,28
9391,1e-05,-5e-05,4e-05,9e-05,0,0.00014,-7e-05,1e-05,3,28
9392,1e-05,-5e-05,4e-05,9e-05,0,0.00014,-7e-05,1e-05,3,28
9393,-4e-05,-7e-05,-3e-05,-1e-05,1e-05,-2e-05,0,-1e-05,3,28
9394,-3e-05,-4e-05,-3e-05,-6e-05,1e-05,-5e-05,0,0,3,28
9395,-3e-05,-4e-05,-3e-05,-6e-05,1e-05,-5e-05,0,0,3,28
9396,-3e-05,-4e-05,-3e-05,-6e-05,1e-05,-5e-05,0,0,3,28
9397,-3e-05,-4e-05,-3e-05,-6e-05,1e-05,-5e-05,0,0,3,28
9398,-3e-05,-4e-05,-3e-05,-6e-05,1e-05,-5e-05,0,0,3,28
9399,-3e-05,-4e-05,-3e-05,-6e-05,1e-05,-5e-05,0,0,3,28
9400,-3e-05,-4e-05,-3e-05,-6e-05,1e-05,-5e-05,0,0,3,28
9401,-3e-05,-4e-05,-3e-05,-6e-05,1e-05,-5e-05,0,0,3,28
9402,-3e-05,-4e-05,-3e-05,-6e-05,1e-05,-5e-05,0,0,3,28
9403,-3e-05,-4e-05,-3e-05,-6e-05,1e-05,-5e-05,0,0,3,28
9404,-3e-05,-4e-05,-3e-05,-6e-05,1e-05,-5e-05,0,0,3,28
9405,-3e-05,-4e-05,-3e-05,-6e-05,1e-05,-5e-05,0,0,3,28
9407,-3e-05,-9e-05,-6e-05,-7e-05,0,2e-05,1e-05,3e-05,3,28
9408,-3e-05,-9e-05,-6e-05,-7e-05,0,2e-05,1e-05,3e-05,3,28
9409,-3e-05,-9e-05,-6e-05,-7e-05,0,2e-05,1e-05,3e-05,3,28
9410,-3e-05,-9e-05,-6e-05,-7e-05,0,2e-05,1e-05,3e-05,3,28
9411,-3e-05,-9e-05,-6e-05,-7e-05,0,2e-05,1e-05,3e-05,3,28
9412,-3e-05,-9e-05,-6e-05,-7e-05,0,2e-05,1e-05,3e-05,3,28
9413,-3e-05,-9e-05,-6e-05,-7e-05,0,2e-05,1e-05,3e-05,3,28
9414,-3e-05,-9e-05,-6e-05,-7e-05,0,2e-05,1e-05,3e-05,3,28
9415,9e-05,0.00023,-5e-05,-5e-05,-2e-05,-4e-05,0,1e-05,3,28
9416,9e-05,0.00023,-5e-05,-5e-05,-2e-05,-4e-05,0,1e-05,3,28
9417,9e-05,0.00023,-5e-05,-5e-05,-2e-05,-4e-05,0,1e-05,3,28
9418,9e-05,0.00023,-5e-05,-5e-05,-2e-05,-4e-05,0,1e-05,3,28
9419,9e-05,0.00023,-5e-05,-5e-05,-2e-05,-4e-05,0,1e-05,3,28
9420,9e-05,0.00023,-5e-05,-5e-05,-2e-05,-4e-05,0,1e-05,3,28
9421,9e-05,0.00023,-5e-05,-5e-05,-2e-05,-4e-05,0,1e-05,3,28
9422,9e-05,0.00023,-5e-05,-5e-05,-2e-05,-4e-05,0,1e-05,3,28
9423,9e-05,0.00023,-5e-05,-5e-05,-2e-05,-4e-05,0,1e-05,3,28
9424,9e-05,0.00023,-5e-05,-5e-05,-2e-05,-4e-05,0,1e-05,3,28
9425,9e-05,0.00023,-5e-05,-5e-05,-2e-05,-4e-05,0,1e-05,3,28
9426,9e-05,0.00023,-5e-05,-5e-05,-2e-05,-4e-05,0,1e-05,3,28
9427,9e-05,0.00023,-5e-05,-5e-05,-2e-05,-4e-05,0,1e-05,3,28
9428,9e-05,0.00023,-5e-05,-5e-05,-2e-05,-4e-05,0,1e-05,3,28
9429,9e-05,0.00023,-5e-05,-5e-05,-2e-05,-4e-05,0,1e-05,3,28
9430,-5e-05,1e-05,6e-05,5e-05,4e-05,-1e-05,-1e-05,-3e-05,3,28
9431,-5e-05,1e-05,6e-05,5e-05,4e-05,-1e-05,-1e-05,-3e-05,3,28
9432,0,-3e-05,-2e-05,-0.00013,-4e-05,-5e-05,1e-05,-1e-05,3,28
9433,0,-3e-05,-2e-05,-0.00013,-4e-05,-5e-05,1e-05,-1e-05,3,28
9434,0,-3e-05,-2e-05,-0.00013,-4e-05,-5e-05,1e-05,-1e-05,3,28
9435,0,-3e-05,-2e-05,-0.00013,-4e-05,-5e-05,1e-05,-1e-05,3,28
9436,0,-3e-05,-2e-05,-0.00013,-4e-05,-5e-05,1e-05,-1e-05,3,28
9438,0,-3e-05,-2e-05,-0.00013,-4e-05,-5e-05,1e-05,-1e-05,3,28
9439,0,-3e-05,-2e-05,-0.00013,-4e-05,-5e-05,1e-05,-1e-05,3,28
9440,0,-3e-05,-2e-05,-0.00013,-4e-05,-5e-05,1e-05,-1e-05,3,28
9441,0,-3e-05,-2e-05,-0.00013,-4e-05,-5e-05,1e-05,-1e-05,3,28
9442,0,-3e-05,-2e-05,-0.00013,-4e-05,-5e-05,1e-05,-1e-05,3,28
9443,0,-3e-05,-2e-05,-0.00013,-4e-05,-5e-05,1e-05,-1e-05,3,28
9444,0,-3e-05,-2e-05,-0.00013,-4e-05,-5e-05,1e-05,-1e-05,3,28
9445,0,-3e-05,-2e-05,-0.00013,-4e-05,-5e-05,1e-05,-1e-05,3,28
9446,0,-3e-05,-2e-05,-0.00013,-4e-05,-5e-05,1e-05,-1e-05,3,28
9447,0,-3e-05,-2e-05,-0.00013,-4e-05,-5e-05,1e-05,-1e-05,3,28
9448,0,-3e-05,-2e-05,-0.00013,-4e-05,-5e-05,1e-05,-1e-05,3,28
9449,0,-3e-05,-2e-05,-0.00013,-4e-05,-5e-05,1e-05,-1e-05,3,28
9450,0,-3e-05,-2e-05,-0.00013,-4e-05,-5e-05,1e-05,-1e-05,3,28
9451,0,-3e-05,-2e-05,-0.00013,-4e-05,-5e-05,1e-05,-1e-05,3,28
9452,0,-3e-05,-2e-05,-0.00013,-4e-05,-5e-05,1e-05,-1e-05,3,28
9453,5e-05,3e-05,-1e-05,0.00012,-5e-05,3e-05,2e-05,1e-05,3,28
9454,-2e-05,9e-05,1e-05,4e-05,-4e-05,-2e-05,0,0,3,28
9455,-2e-05,9e-05,1e-05,4e-05,-4e-05,-2e-05,0,0,3,28
9456,-2e-05,9e-05,1e-05,4e-05,-4e-05,-2e-05,0,0,3,28
9457,-2e-05,9e-05,1e-05,4e-05,-4e-05,-2e-05,0,0,3,28
9458,-2e-05,9e-05,1e-05,4e-05,-4e-05,-2e-05,0,0,3,28
9459,-2e-05,9e-05,1e-05,4e-05,-4e-05,-2e-05,0,0,3,28
9460,-2e-05,9e-05,1e-05,4e-05,-4e-05,-2e-05,0,0,3,28
9461,-2e-05,9e-05,1e-05,4e-05,-4e-05,-2e-05,0,0,3,28
9462,-2e-05,9e-05,1e-05,4e-05,-4e-05,-2e-05,0,0,3,28
9463,-2e-05,9e-05,1e-05,4e-05,-4e-05,-2e-05,0,0,3,28
9464,-2e-05,9e-05,1e-05,4e-05,-4e-05,-2e-05,0,0,3,28
9465,-2e-05,9e-05,1e-05,4e-05,-4e-05,-2e-05,0,0,3,28
9466,2e-05,4e-05,-2e-05,-4e-05,-1e-05,-1e-05,-3e-05,-3e-05,3,28
9467,2e-05,4e-05,-2e-05,-4e-05,-1e-05,-1e-05,-3e-05,-3e-05,3,28
9468,2e-05,4e-05,-2e-05,-4e-05,-1e-05,-1e-05,-3e-05,-3e-05,3,28
9469,2e-05,4e-05,-2e-05,-4e-05,-1e-05,-1e-05,-3e-05,-3e-05,3,28
9470,2e-05,4e-05,-2e-05,-4e-05,-1e-05,-1e-05,-3e-05,-3e-05,3,28
9471,2e-05,4e-05,-2e-05,-4e-05,-1e-05,-1e-05,-3e-05,-3e-05,3,28
9472,2e-05,4e-05,-2e-05,-4e-05,-1e-05,-1e-05,-3e-05,-3e-05,3,28
9473,2e-05,4e-05,-2e-05,-4e-05,-1e-05,-1e-05,-3e-05,-3e-05,3,28
9474,2e-05,4e-05,-2e-05,-4e-05,-1e-05,-1e-05,-3e-05,-3e-05,3,28
9475,2e-05,0,4e-05,6e-05,9e-05,9e-05,6e-05,3e-05,3,28
9476,2e-05,0,4e-05,6e-05,9e-05,9e-05,6e-05,3e-05,3,28
9477,2e-05,0,4e-05,6e-05,9e-05,9e-05,6e-05,3e-05,3,28
9478,2e-05,0,4e-05,6e-05,9e-05,9e-05,6e-05,3e-05,3,28
9479,2e-05,0,4e-05,6e-05,9e-05,9e-05,6e-05,3e-05,3,28
9480,2e-05,0,4e-05,6e-05,9e-05,9e-05,6e-05,3e-05,3,28
9481,2e-05,0,4e-05,6e-05,9e-05,9e-05,6e-05,3e-05,3,28
9482,2e-05,0,4e-05,6e-05,9e-05,9e-05,6e-05,3e-05,3,28
9483,2e-05,0,4e-05,6e-05,9e-05,9e-05,6e-05,3e-05,3,28
9484,2e-05,0,4e-05,6e-05,9e-05,9e-05,6e-05,3e-05,3,28
9485,2e-05,0,4e-05,6e-05,9e-05,9e-05,6e-05,3e-05,3,28
9486,2e-05,0,4e-05,6e-05,9e-05,9e-05,6e-05,3e-05,3,28
9488,2e-05,0,4e-05,6e-05,9e-05,9e-05,6e-05,3e-05,3,28
9489,2e-05,0,4e-05,6e-05,9e-05,9e-05,6e-05,3e-05,3,28
9490,2e-05,-4e-05,8e-05,8e-05,1e-05,4e-05,-1e-05,-2e-05,3,28
9491,-1e-05,5e-05,-8e-05,-0.0002,-7e-05,-4e-05,0,-1e-05,3,28
9492,-1e-05,-0.00013,4e-05,0,-5e-05,-0.00011,-4e-05,-4e-05,3,28
9493,-1e-05,-0.00013,4e-05,0,-5e-05,-0.00011,-4e-05,-4e-05,3,28
9494,-1e-05,-0.00013,4e-05,0,-5e-05,-0.00011,-4e-05,-4e-05,3,28
9495,-1e-05,-0.00013,4e-05,0,-5e-05,-0.00011,-4e-05,-4e-05,3,28
9496,-1e-05,-0.00013,4e-05,0,-5e-05,-0.00011,-4e-05,-4e-05,3,28
9497,-1e-05,-0.00013,4e-05,0,-5e-05,-0.00011,-4e-05,-4e-05,3,28
9498,-1e-05,-0.00013,4e-05,0,-5e-05,-0.00011,-4e-05,-4e-05,3,28
9499,-1e-05,-0.00013,4e-05,0,-5e-05,-0.00011,-4e-05,-4e-05,3,28
9500,-1e-05,-0.00013,4e-05,0,-5e-05,-0.00011,-4e-05,-4e-05,3,28
9501,-1e-05,-0.00013,4e-05,0,-5e-05,-0.00011,-4e-05,-4e-05,3,28
9502,-1e-05,-0.00013,4e-05,0,-5e-05,-0.00011,-4e-05,-4e-05,3,28
9503,-1e-05,-0.00013,4e-05,0,-5e-05,-0.00011,-4e-05,-4e-05,3,28
9504,-1e-05,-0.00013,4e-05,0,-5e-05,-0.00011,-4e-05,-4e-05,3,28
9505,-1e-05,-0.00013,4e-05,0,-5e-05,-0.00011,-4e-05,-4e-05,3,28
9506,-1e-05,-0.00013,4e-05,0,-5e-05,-0.00011,-4e-05,-4e-05,3,28
9507,-1e-05,-0.00013,4e-05,0,-5e-05,-0.00011,-4e-05,-4e-05,3,28
9508,-1e-05,-0.00013,4e-05,0,-5e-05,-0.00011,-4e-05,-4e-05,3,28
9509,-1e-05,-0.00013,4e-05,0,-5e-05,-0.00011,-4e-05,-4e-05,3,28
9510,-1e-05,-0.00013,4e-05,0,-5e-05,-0.00011,-4e-05,-4e-05,3,28
9511,-1e-05,-0.00013,4e-05,0,-5e-05,-0.00011,-4e-05,-4e-05,3,28
9512,-1e-05,-0.00013,4e-05,0,-5e-05,-0.00011,-4e-05,-4e-05,3,28
9513,1e-05,1e-05,3e-05,0.00011,5e-05,2e-05,1e-05,0,3,28
9514,-3e-05,-7e-05,-4e-05,-5e-05,-3e-05,0,-1e-05,-3e-05,3,28
9515,-3e-05,-7e-05,-4e-05,-5e-05,-3e-05,0,-1e-05,-3e-05,3,28
9516,-3e-05,-7e-05,-4e-05,-5e-05,-3e-05,0,-1e-05,-3e-05,3,28
9517,-3e-05,-7e-05,-4e-05,-5e-05,-3e-05,0,-1e-05,-3e-05,3,28
9518,-3e-05,-7e-05,-4e-05,-5e-05,-3e-05,0,-1e-05,-3e-05,3,28
9519,-3e-05,-7e-05,-4e-05,-5e-05,-3e-05,0,-1e-05,-3e-05,3,28
9520,-3e-05,-7e-05,-4e-05,-5e-05,-3e-05,0,-1e-05,-3e-05,3,28
9521,-3e-05,-7e-05,-4e-05,-5e-05,-3e-05,0,-1e-05,-3e-05,3,28
9522,-3e-05,-7e-05,-4e-05,-5e-05,-3e-05,0,-1e-05,-3e-05,3,28
9523,-3e-05,-7e-05,-4e-05,-5e-05,-3e-05,0,-1e-05,-3e-05,3,28
9524,-3e-05,-7e-05,-4e-05,-5e-05,-3e-05,0,-1e-05,-3e-05,3,28
9525,-3e-05,-7e-05,-4e-05,-5e-05,-3e-05,0,-1e-05,-3e-05,3,28
9526,4e-05,0.0001,5e-05,6e-05,3e-05,-2e-05,2e-05,2e-05,3,28
9527,4e-05,0.0001,5e-05,6e-05,3e-05,-2e-05,2e-05,2e-05,3,28
9528,4e-05,0.0001,5e-05,6e-05,3e-05,-2e-05,2e-05,2e-05,3,28
9529,4e-05,0.0001,5e-05,6e-05,3e-05,-2e-05,2e-05,2e-05,3,28
9530,4e-05,0.0001,5e-05,6e-05,3e-05,-2e-05,2e-05,2e-05,3,28
9531,4e-05,0.0001,5e-05,6e-05,3e-05,-2e-05,2e-05,2e-05,3,28
9532,4e-05,0.0001,5e-05,6e-05,3e-05,-2e-05,2e-05,2e-05,3,28
9533,4e-05,0.0001,5e-05,6e-05,3e-05,-2e-05,2e-05,2e-05,3,28
9534,4e-05,0.0001,5e-05,6e-05,3e-05,-2e-05,2e-05,2e-05,3,28
9535,-8e-05,-0.00017,-0.00011,-3e-05,-1e-05,1e-05,-4e-05,-3e-05,3,28
9536,-8e-05,-0.00017,-0.00011,-3e-05,-1e-05,1e-05,-4e-05,-3e-05,3,28
9538,-8e-05,-0.00017,-0.00011,-3e-05,-1e-05,1e-05,-4e-05,-3e-05,3,28
9539,-8e-05,-0.00017,-0.00011,-3e-05,-1e-05,1e-05,-4e-05,-3e-05,3,28
9540,-8e-05,-0.00017,-0.00011,-3e-05,-1e-05,1e-05,-4e-05,-3e-05,3,28
9541,-8e-05,-0.00017,-0.00011,-3e-05,-1e-05,1e-05,-4e-05,-3e-05,3,28
9542,-8e-05,-0.00017,-0.00011,-3e-05,-1e-05,1e-05,-4e-05,-3e-05,3,28
9543,-8e-05,-0.00017,-0.00011,-3e-05,-1e-05,1e-05,-4e-05,-3e-05,3,28
9544,-8e-05,-0.00017,-0.00011,-3e-05,-1e-05,1e-05,-4e-05,-3e-05,3,28
9545,-8e-05,-0.00017,-0.00011,-3e-05,-1e-05,1e-05,-4e-05,-3e-05,3,28
9546,-8e-05,-0.00017,-0.00011,-3e-05,-1e-05,1e-05,-4e-05,-3e-05,3,28
9547,-8e-05,-0.00017,-0.00011,-3e-05,-1e-05,1e-05,-4e-05,-3e-05,3,28
9548,-8e-05,-0.00017,-0.00011,-3e-05,-1e-05,1e-05,-4e-05,-3e-05,3,28
9549,-8e-05,-0.00017,-0.00011,-3e-05,-1e-05,1e-05,-4e-05,-3e-05,3,28
9550,-4e-05,-5e-05,-4e-05,-0.00012,-7e-05,-7e-05,-2e-05,-2e-05,3,28
9551,-4e-05,-5e-05,-4e-05,-0.00012,-7e-05,-7e-05,-2e-05,-2e-05,3,28
9552,-1e-05,0.00011,5e-05,-1e-05,-4e-05,-3e-05,1e-05,2e-05,3,28
9553,-1e-05,0.00011,5e-05,-1e-05,-4e-05,-3e-05,1e-05,2e-05,3,28
9554,-1e-05,0.00011,5e-05,-1e-05,-4e-05,-3e-05,1e-05,2e-05,3,28
9555,-1e-05,0.00011,5e-05,-1e-05,-4e-05,-3e-05,1e-05,2e-05,3,28
9556,-1e-05,0.00011,5e-05,-1e-05,-4e-05,-3e-05,1e-05,2e-05,3,28
9557,-1e-05,0.00011,5e-05,-1e-05,-4e-05,-3e-05,1e-05,2e-05,3,28
9558,-1e-05,0.00011,5e-05,-1e-05,-4e-05,-3e-05,1e-05,2e-05,3,28
9559,-1e-05,0.00011,5e-05,-1e-05,-4e-05,-3e-05,1e-05,2e-05,3,28
9560,-1e-05,0.00011,5e-05,-1e-05,-4e-05,-3e-05,1e-05,2e-05,3,28
9561,-1e-05,0.00011,5e-05,-1e-05,-4e-05,-3e-05,1e-05,2e-05,3,28
9562,-1e-05,0.00011,5e-05,-1e-05,-4e-05,-3e-05,1e-05,2e-05,3,28
9563,-1e-05,0.00011,5e-05,-1e-05,-4e-05,-3e-05,1e-05,2e-05,3,28
9564,-1e-05,0.00011,5e-05,-1e-05,-4e-05,-3e-05,1e-05,2e-05,3,28
9565,-1e-05,0.00011,5e-05,-1e-05,-4e-05,-3e-05,1e-05,2e-05,3,28
9566,-1e-05,0.00011,5e-05,-1e-05,-4e-05,-3e-05,1e-05,2e-05,3,28
9567,-1e-05,0.00011,5e-05,-1e-05,-4e-05,-3e-05,1e-05,2e-05,3,28
9568,-1e-05,0.00011,5e-05,-1e-05,-4e-05,-3e-05,1e-05,2e-05,3,28
9569,-1e-05,0.00011,5e-05,-1e-05,-4e-05,-3e-05,1e-05,2e-05,3,28
9570,-1e-05,0.00011,5e-05,-1e-05,-4e-05,-3e-05,1e-05,2e-05,3,28
9571,-1e-05,0.00011,5e-05,-1e-05,-4e-05,-3e-05,1e-05,2e-05,3,28
9572,-1e-05,0.00011,5e-05,-1e-05,-4e-05,-3e-05,1e-05,2e-05,3,28
9573,4e-05,0,-7e-05,-0.0001,-3e-05,-3e-05,-3e-05,1e-05,3,28
9574,4e-05,4e-05,-1e-05,1e-05,-2e-05,0,0,-1e-05,3,28
9575,4e-05,4e-05,-1e-05,1e-05,-2e-05,0,0,-1e-05,3,28
9576,4e-05,4e-05,-1e-05,1e-05,-2e-05,0,0,-1e-05,3,28
9577,4e-05,4e-05,-1e-05,1e-05,-2e-05,0,0,-1e-05,3,28
9578,4e-05,4e-05,-1e-05,1e-05,-2e-05,0,0,-1e-05,3,28
9579,4e-05,4e-05,-1e-05,1e-05,-2e-05,0,0,-1e-05,3,28
9580,4e-05,4e-05,-1e-05,1e-05,-2e-05,0,0,-1e-05,3,28
9581,4e-05,4e-05,-1e-05,1e-05,-2e-05,0,0,-1e-05,3,28
9582,4e-05,4e-05,-1e-05,1e-05,-2e-05,0,0,-1e-05,3,28
9583,4e-05,4e-05,-1e-05,1e-05,-2e-05,0,0,-1e-05,3,28
9584,4e-05,4e-05,-1e-05,1e-05,-2e-05,0,0,-1e-05,3,28
9585,4e-05,4e-05,-1e-05,1e-05,-2e-05,0,0,-1e-05,3,28
9586,-2e-05,-0.00013,-3e-05,-6e-05,-5e-05,-2e-05,-2e-05,-1e-05,3,28
9588,-9e-05,-8e-05,2e-05,6e-05,1e-05,5e-05,0,-1e-05,3,28
9589,-9e-05,-8e-05,2e-05,6e-05,1e-05,5e-05,0,-1e-05,3,28
9590,-9e-05,-8e-05,2e-05,6e-05,1e-05,5e-05,0,-1e-05,3,28
9591,-9e-05,-8e-05,2e-05,6e-05,1e-05,5e-05,0,-1e-05,3,28
9592,-9e-05,-8e-05,2e-05,6e-05,1e-05,5e-05,0,-1e-05,3,28
9593,-9e-05,-8e-05,2e-05,6e-05,1e-05,5e-05,0,-1e-05,3,28
9594,-9e-05,-8e-05,2e-05,6e-05,1e-05,5e-05,0,-1e-05,3,28
9595,-6e-05,-8e-05,5e-05,4e-05,-3e-05,-5e-05,-3e-05,-2e-05,3,28
9596,-6e-05,-8e-05,5e-05,4e-05,-3e-05,-5e-05,-3e-05,-2e-05,3,28
9597,-6e-05,-8e-05,5e-05,4e-05,-3e-05,-5e-05,-3e-05,-2e-05,3,28
9598,-6e-05,-8e-05,5e-05,4e-05,-3e-05,-5e-05,-3e-05,-2e-05,3,28
9599,-6e-05,-8e-05,5e-05,4e-05,-3e-05,-5e-05,-3e-05,-2e-05,3,28
9600,-6e-05,-8e-05,5e-05,4e-05,-3e-05,-5e-05,-3e-05,-2e-05,3,28
9601,-6e-05,-8e-05,5e-05,4e-05,-3e-05,-5e-05,-3e-05,-2e-05,3,28
9602,-6e-05,-8e-05,5e-05,4e-05,-3e-05,-5e-05,-3e-05,-2e-05,3,28
9603,-6e-05,-8e-05,5e-05,4e-05,-3e-05,-5e-05,-3e-05,-2e-05,3,28
9604,-6e-05,-8e-05,5e-05,4e-05,-3e-05,-5e-05,-3e-05,-2e-05,3,28
9605,-6e-05,-8e-05,5e-05,4e-05,-3e-05,-5e-05,-3e-05,-2e-05,3,28
9606,-6e-05,-8e-05,5e-05,4e-05,-3e-05,-5e-05,-3e-05,-2e-05,3,28
9607,-6e-05,-8e-05,5e-05,4e-05,-3e-05,-5e-05,-3e-05,-2e-05,3,28
9608,-6e-05,-8e-05,5e-05,4e-05,-3e-05,-5e-05,-3e-05,-2e-05,3,28
9609,-6e-05,-8e-05,5e-05,4e-05,-3e-05,-5e-05,-3e-05,-2e-05,3,28
9610,2e-05,-5e-05,0,1e-05,-2e-05,1e-05,-1e-05,-1e-05,3,28
9611,2e-05,-5e-05,0,1e-05,-2e-05,1e-05,-1e-05,-1e-05,3,28
9612,6e-05,-2e-05,1e-05,-4e-05,-2e-05,1e-05,-2e-05,-2e-05,3,28
9613,6e-05,-2e-05,1e-05,-4e-05,-2e-05,1e-05,-2e-05,-2e-05,3,28
9614,6e-05,-2e-05,1e-05,-4e-05,-2e-05,1e-05,-2e-05,-2e-05,3,28
9615,6e-05,-2e-05,1e-05,-4e-05,-2e-05,1e-05,-2e-05,-2e-05,3,28
9616,6e-05,-2e-05,1e-05,-4e-05,-2e-05,1e-05,-2e-05,-2e-05,3,28
9617,6e-05,-2e-05,1e-05,-4e-05,-2e-05,1e-05,-2e-05,-2e-05,3,28
9618,6e-05,-2e-05,1e-05,-4e-05,-2e-05,1e-05,-2e-05,-2e-05,3,28
9619,6e-05,-2e-05,1e-05,-4e-05,-2e-05,1e-05,-2e-05,-2e-05,3,28
9620,6e-05,-2e-05,1e-05,-4e-05,-2e-05,1e-05,-2e-05,-2e-05,3,28
9621,6e-05,-2e-05,1e-05,-4e-05,-2e-05,1e-05,-2e-05,-2e-05,3,28
9622,6e-05,-2e-05,1e-05,-4e-05,-2e-05,1e-05,-2e-05,-2e-05,3,28
9623,6e-05,-2e-05,1e-05,-4e-05,-2e-05,1e-05,-2e-05,-2e-05,3,28
9624,6e-05,-2e-05,1e-05,-4e-05,-2e-05,1e-05,-2e-05,-2e-05,3,28
9625,6e-05,-2e-05,1e-05,-4e-05,-2e-05,1e-05,-2e-05,-2e-05,3,28
9626,6e-05,-2e-05,1e-05,-4e-05,-2e-05,1e-05,-2e-05,-2e-05,3,28
9627,6e-05,-2e-05,1e-05,-4e-05,-2e-05,1e-05,-2e-05,-2e-05,3,28
9628,6e-05,-2e-05,1e-05,-4e-05,-2e-05,1e-05,-2e-05,-2e-05,3,28
9629,6e-05,-2e-05,1e-05,-4e-05,-2e-05,1e-05,-2e-05,-2e-05,3,28
9630,6e-05,-2e-05,1e-05,-4e-05,-2e-05,1e-05,-2e-05,-2e-05,3,28
9631,6e-05,-2e-05,1e-05,-4e-05,-2e-05,1e-05,-2e-05,-2e-05,3,28
9632,6e-05,-2e-05,1e-05,-4e-05,-2e-05,1e-05,-2e-05,-2e-05,3,28
9633,-4e-05,-0.00027,-4e-05,-3e-05,-1e-05,-6e-05,1e-05,-3e-05,3,28
9634,-2e-05,-2e-05,-2e-05,0,-5e-05,-6e-05,-1e-05,-2e-05,3,28
9635,-2e-05,-2e-05,-2e-05,0,-5e-05,-6e-05,-1e-05,-2e-05,3,28
9636,-2e-05,-2e-05,-2e-05,0,-5e-05,-6e-05,-1e-05,-2e-05,3,28
9639,-2e-05,-2e-05,-2e-05,0,-5e-05,-6e-05,-1e-05,-2e-05,3,28
9640,-2e-05,-2e-05,-2e-05,0,-5e-05,-6e-05,-1e-05,-2e-05,3,28
9641,-2e-05,-2e-05,-2e-05,0,-5e-05,-6e-05,-1e-05,-2e-05,3,28
9642,-2e-05,-2e-05,-2e-05,0,-5e-05,-6e-05,-1e-05,-2e-05,3,28
9643,-2e-05,-2e-05,-2e-05,0,-5e-05,-6e-05,-1e-05,-2e-05,3,28
9644,-2e-05,-2e-05,-2e-05,0,-5e-05,-6e-05,-1e-05,-2e-05,3,28
9645,-2e-05,-2e-05,-2e-05,0,-5e-05,-6e-05,-1e-05,-2e-05,3,28
9646,0,0,-6e-05,-0.0001,-3e-05,-5e-05,-3e-05,-1e-05,3,28
9647,0,0,-6e-05,-0.0001,-3e-05,-5e-05,-3e-05,-1e-05,3,28
9648,0,0,-6e-05,-0.0001,-3e-05,-5e-05,-3e-05,-1e-05,3,28
9649,0,0,-6e-05,-0.0001,-3e-05,-5e-05,-3e-05,-1e-05,3,28
9650,0,0,-6e-05,-0.0001,-3e-05,-5e-05,-3e-05,-1e-05,3,28
9651,0,0,-6e-05,-0.0001,-3e-05,-5e-05,-3e-05,-1e-05,3,28
9652,0,0,-6e-05,-0.0001,-3e-05,-5e-05,-3e-05,-1e-05,3,28
9653,0,0,-6e-05,-0.0001,-3e-05,-5e-05,-3e-05,-1e-05,3,28
9654,0,0,-6e-05,-0.0001,-3e-05,-5e-05,-3e-05,-1e-05,3,28
9655,1e-05,5e-05,3e-05,1e-05,-6e-05,-7e-05,0,1e-05,3,28
9657,1e-05,5e-05,3e-05,1e-05,-6e-05,-7e-05,0,1e-05,3,28
9658,1e-05,5e-05,3e-05,1e-05,-6e-05,-7e-05,0,1e-05,3,28
9659,1e-05,5e-05,3e-05,1e-05,-6e-05,-7e-05,0,1e-05,3,28
9660,1e-05,5e-05,3e-05,1e-05,-6e-05,-7e-05,0,1e-05,3,28
9661,1e-05,5e-05,3e-05,1e-05,-6e-05,-7e-05,0,1e-05,3,28
9662,1e-05,5e-05,3e-05,1e-05,-6e-05,-7e-05,0,1e-05,3,28
9663,1e-05,5e-05,3e-05,1e-05,-6e-05,-7e-05,0,1e-05,3,28
9664,1e-05,5e-05,3e-05,1e-05,-6e-05,-7e-05,0,1e-05,3,28
9665,1e-05,5e-05,3e-05,1e-05,-6e-05,-7e-05,0,1e-05,3,28
9666,1e-05,5e-05,3e-05,1e-05,-6e-05,-7e-05,0,1e-05,3,28
9667,1e-05,5e-05,3e-05,1e-05,-6e-05,-7e-05,0,1e-05,3,28
9668,1e-05,5e-05,3e-05,1e-05,-6e-05,-7e-05,0,1e-05,3,28
9669,1e-05,5e-05,3e-05,1e-05,-6e-05,-7e-05,0,1e-05,3,28
9670,-3e-05,9e-05,3e-05,6e-05,-1e-05,-3e-05,4e-05,2e-05,3,28
9671,-3e-05,9e-05,3e-05,6e-05,-1e-05,-3e-05,4e-05,2e-05,3,28
9672,-4e-05,-7e-05,-5e-05,-5e-05,2e-05,-1e-05,0,-1e-05,3,28
9673,-4e-05,-7e-05,-5e-05,-5e-05,2e-05,-1e-05,0,-1e-05,3,28
9674,-4e-05,-7e-05,-5e-05,-5e-05,2e-05,-1e-05,0,-1e-05,3,28
9675,-4e-05,-7e-05,-5e-05,-5e-05,2e-05,-1e-05,0,-1e-05,3,28
9676,-4e-05,-7e-05,-5e-05,-5e-05,2e-05,-1e-05,0,-1e-05,3,28
9677,-4e-05,-7e-05,-5e-05,-5e-05,2e-05,-1e-05,0,-1e-05,3,28
9678,-4e-05,-7e-05,-5e-05,-5e-05,2e-05,-1e-05,0,-1e-05,3,28
9679,-4e-05,-7e-05,-5e-05,-5e-05,2e-05,-1e-05,0,-1e-05,3,28
9680,-4e-05,-7e-05,-5e-05,-5e-05,2e-05,-1e-05,0,-1e-05,3,28
9681,-4e-05,-7e-05,-5e-05,-5e-05,2e-05,-1e-05,0,-1e-05,3,28
9682,-4e-05,-7e-05,-5e-05,-5e-05,2e-05,-1e-05,0,-1e-05,3,28
9683,-4e-05,-7e-05,-5e-05,-5e-05,2e-05,-1e-05,0,-1e-05,3,28
9684,-4e-05,-7e-05,-5e-05,-5e-05,2e-05,-1e-05,0,-1e-05,3,28
9685,-4e-05,-7e-05,-5e-05,-5e-05,2e-05,-1e-05,0,-1e-05,3,28
9686,-4e-05,-7e-05,-5e-05,-5e-05,2e-05,-1e-05,0,-1e-05,3,28
9688,-4e-05,-7e-05,-5e-05,-5e-05,2e-05,-1e-05,0,-1e-05,3,28
9689,-4e-05,-7e-05,-5e-05,-5e-05,2e-05,-1e-05,0,-1e-05,3,28
9690,-4e-05,-7e-05,-5e-05,-5e-05,2e-05,-1e-05,0,-1e-05,3,28
9691,-4e-05,-7e-05,-5e-05,-5e-05,2e-05,-1e-05,0,-1e-05,3,28
9692,-4e-05,-7e-05,-5e-05,-5e-05,2e-05,-1e-05,0,-1e-05,3,28
9693,-9e-05,4e-05,1e-05,3e-05,-1e-05,-1e-05,-3e-05,-5e-05,3,28
9694,-2e-05,-2e-05,-3e-05,-1e-05,1e-05,-0.00012,6e-05,0,3,28
9695,-2e-05,-2e-05,-3e-05,-1e-05,1e-05,-0.00012,6e-05,0,3,28
9696,-2e-05,-2e-05,-3e-05,-1e-05,1e-05,-0.00012,6e-05,0,3,28
9697,-2e-05,-2e-05,-3e-05,-1e-05,1e-05,-0.00012,6e-05,0,3,28
9698,-2e-05,-2e-05,-3e-05,-1e-05,1e-05,-0.00012,6e-05,0,3,28
9699,-2e-05,-2e-05,-3e-05,-1e-05,1e-05,-0.00012,6e-05,0,3,28
9700,-2e-05,-2e-05,-3e-05,-1e-05,1e-05,-0.00012,6e-05,0,3,28
9701,-2e-05,-2e-05,-3e-05,-1e-05,1e-05,-0.00012,6e-05,0,3,28
9702,-2e-05,-2e-05,-3e-05,-1e-05,1e-05,-0.00012,6e-05,0,3,28
9703,-2e-05,-2e-05,-3e-05,-1e-05,1e-05,-0.00012,6e-05,0,3,28
9704,-2e-05,-2e-05,-3e-05,-1e-05,1e-05,-0.00012,6e-05,0,3,28
9705,-2e-05,-2e-05,-3e-05,-1e-05,1e-05,-0.00012,6e-05,0,3,28
9706,4e-05,-3e-05,3e-05,4e-05,4e-05,5e-05,-5e-05,-1e-05,3,28
9707,4e-05,-3e-05,3e-05,4e-05,4e-05,5e-05,-5e-05,-1e-05,3,28
9708,4e-05,-3e-05,3e-05,4e-05,4e-05,5e-05,-5e-05,-1e-05,3,28
9709,4e-05,-3e-05,3e-05,4e-05,4e-05,5e-05,-5e-05,-1e-05,3,28
9710,4e-05,-3e-05,3e-05,4e-05,4e-05,5e-05,-5e-05,-1e-05,3,28
9711,4e-05,-3e-05,3e-05,4e-05,4e-05,5e-05,-5e-05,-1e-05,3,28
9712,4e-05,-3e-05,3e-05,4e-05,4e-05,5e-05,-5e-05,-1e-05,3,28
9713,4e-05,-3e-05,3e-05,4e-05,4e-05,5e-05,-5e-05,-1e-05,3,28
9714,4e-05,-3e-05,3e-05,4e-05,4e-05,5e-05,-5e-05,-1e-05,3,28
9715,-2e-05,-0.0001,-2e-05,2e-05,4e-05,8e-05,-1e-05,-2e-05,3,28
9716,-2e-05,-0.0001,-2e-05,2e-05,4e-05,8e-05,-1e-05,-2e-05,3,28
9717,-2e-05,-0.0001,-2e-05,2e-05,4e-05,8e-05,-1e-05,-2e-05,3,28
9718,-2e-05,-0.0001,-2e-05,2e-05,4e-05,8e-05,-1e-05,-2e-05,3,28
9719,-2e-05,-0.0001,-2e-05,2e-05,4e-05,8e-05,-1e-05,-2e-05,3,28
9720,-2e-05,-0.0001,-2e-05,2e-05,4e-05,8e-05,-1e-05,-2e-05,3,28
9721,-2e-05,-0.0001,-2e-05,2e-05,4e-05,8e-05,-1e-05,-2e-05,3,28
9722,-2e-05,-0.0001,-2e-05,2e-05,4e-05,8e-05,-1e-05,-2e-05,3,28
9723,-2e-05,-0.0001,-2e-05,2e-05,4e-05,8e-05,-1e-05,-2e-05,3,28
9724,-2e-05,-0.0001,-2e-05,2e-05,4e-05,8e-05,-1e-05,-2e-05,3,28
9725,-2e-05,-0.0001,-2e-05,2e-05,4e-05,8e-05,-1e-05,-2e-05,3,28
9726,-2e-05,-0.0001,-2e-05,2e-05,4e-05,8e-05,-1e-05,-2e-05,3,28
9727,-2e-05,-0.0001,-2e-05,2e-05,4e-05,8e-05,-1e-05,-2e-05,3,28
9728,-2e-05,-0.0001,-2e-05,2e-05,4e-05,8e-05,-1e-05,-2e-05,3,28
9729,-2e-05,-0.0001,-2e-05,2e-05,4e-05,8e-05,-1e-05,-2e-05,3,28
9730,-6e-05,-3e-05,-0.00013,-0.00025,-0.0001,-5e-05,-2e-05,2e-05,3,28
9731,-6e-05,-3e-05,-0.00013,-0.00025,-0.0001,-5e-05,-2e-05,2e-05,3,28
9732,0,-4e-05,1e-05,0,1e-05,1e-05,0,-1e-05,3,28
9733,0,-4e-05,1e-05,0,1e-05,1e-05,0,-1e-05,3,28
9734,0,-4e-05,1e-05,0,1e-05,1e-05,0,-1e-05,3,28
9735,0,-4e-05,1e-05,0,1e-05,1e-05,0,-1e-05,3,28
9736,0,-4e-05,1e-05,0,1e-05,1e-05,0,-1e-05,3,28
9738,0,-4e-05,1e-05,0,1e-05,1e-05,0,-1e-05,3,28
9740,0,-4e-05,1e-05,0,1e-05,1e-05,0,-1e-05,3,28
9741,0,-4e-05,1e-05,0,1e-05,1e-05,0,-1e-05,3,28
9742,0,-4e-05,1e-05,0,1e-05,1e-05,0,-1e-05,3,28
9743,0,-4e-05,1e-05,0,1e-05,1e-05,0,-1e-05,3,28
9744,0,-4e-05,1e-05,0,1e-05,1e-05,0,-1e-05,3,28
9745,0,-4e-05,1e-05,0,1e-05,1e-05,0,-1e-05,3,28
9746,0,-4e-05,1e-05,0,1e-05,1e-05,0,-1e-05,3,28
9747,0,-4e-05,1e-05,0,1e-05,1e-05,0,-1e-05,3,28
9748,0,-4e-05,1e-05,0,1e-05,1e-05,0,-1e-05,3,28
9749,0,-4e-05,1e-05,0,1e-05,1e-05,0,-1e-05,3,28
9750,0,-4e-05,1e-05,0,1e-05,1e-05,0,-1e-05,3,28
9751,0,-4e-05,1e-05,0,1e-05,1e-05,0,-1e-05,3,28
9752,0,-4e-05,1e-05,0,1e-05,1e-05,0,-1e-05,3,28
9753,2e-05,5e-05,0.00014,0.00011,1e-05,4e-05,-2e-05,-1e-05,3,28
9754,-1e-05,0,-5e-05,-7e-05,-5e-05,-1e-05,-1e-05,-2e-05,3,28
9755,-1e-05,0,-5e-05,-7e-05,-5e-05,-1e-05,-1e-05,-2e-05,3,28
9756,-1e-05,0,-5e-05,-7e-05,-5e-05,-1e-05,-1e-05,-2e-05,3,28
9757,-1e-05,0,-5e-05,-7e-05,-5e-05,-1e-05,-1e-05,-2e-05,3,28
9758,-1e-05,0,-5e-05,-7e-05,-5e-05,-1e-05,-1e-05,-2e-05,3,28
9759,-1e-05,0,-5e-05,-7e-05,-5e-05,-1e-05,-1e-05,-2e-05,3,28
9760,-1e-05,0,-5e-05,-7e-05,-5e-05,-1e-05,-1e-05,-2e-05,3,28
9761,-1e-05,0,-5e-05,-7e-05,-5e-05,-1e-05,-1e-05,-2e-05,3,28
9762,-1e-05,0,-5e-05,-7e-05,-5e-05,-1e-05,-1e-05,-2e-05,3,28
9763,-1e-05,0,-5e-05,-7e-05,-5e-05,-1e-05,-1e-05,-2e-05,3,28
9764,-1e-05,0,-5e-05,-7e-05,-5e-05,-1e-05,-1e-05,-2e-05,3,28
9765,-1e-05,0,-5e-05,-7e-05,-5e-05,-1e-05,-1e-05,-2e-05,3,28
9766,-1e-05,0,-5e-05,-7e-05,-5e-05,-1e-05,-1e-05,-2e-05,3,28
9767,-1e-05,0,-5e-05,-7e-05,-5e-05,-1e-05,-1e-05,-2e-05,3,28
9768,-1e-05,0,-5e-05,-7e-05,-5e-05,-1e-05,-1e-05,-2e-05,3,28
9769,-1e-05,0,-5e-05,-7e-05,-5e-05,-1e-05,-1e-05,-2e-05,3,28
9770,-1e-05,0,-5e-05,-7e-05,-5e-05,-1e-05,-1e-05,-2e-05,3,28
9771,-1e-05,0,-5e-05,-7e-05,-5e-05,-1e-05,-1e-05,-2e-05,3,28
9772,-1e-05,0,-5e-05,-7e-05,-5e-05,-1e-05,-1e-05,-2e-05,3,28
9773,-1e-05,0,-5e-05,-7e-05,-5e-05,-1e-05,-1e-05,-2e-05,3,28
9774,-1e-05,0,-5e-05,-7e-05,-5e-05,-1e-05,-1e-05,-2e-05,3,28
9775,-4e-05,-0.00027,-0.00012,-6e-05,-4e-05,1e-05,-2e-05,-5e-05,3,28
9776,-4e-05,-0.00027,-0.00012,-6e-05,-4e-05,1e-05,-2e-05,-5e-05,3,28
9777,-2e-05,-1e-05,-1e-05,3e-05,-1e-05,-4e-05,-4e-05,-4e-05,3,28
9778,-2e-05,-1e-05,-1e-05,3e-05,-1e-05,-4e-05,-4e-05,-4e-05,3,28
9779,-2e-05,-1e-05,-1e-05,3e-05,-1e-05,-4e-05,-4e-05,-4e-05,3,28
9780,-2e-05,-1e-05,-1e-05,3e-05,-1e-05,-4e-05,-4e-05,-4e-05,3,28
9781,-2e-05,-1e-05,-1e-05,3e-05,-1e-05,-4e-05,-4e-05,-4e-05,3,28
9782,-2e-05,-1e-05,-1e-05,3e-05,-1e-05,-4e-05,-4e-05,-4e-05,3,28
9783,-2e-05,-1e-05,-1e-05,3e-05,-1e-05,-4e-05,-4e-05,-4e-05,3,28
9784,-2e-05,-1e-05,-1e-05,3e-05,-1e-05,-4e-05,-4e-05,-4e-05,3,28
9785,-2e-05,-1e-05,-1e-05,3e-05,-1e-05,-4e-05,-4e-05,-4e-05,3,28
9786,-2e-05,-1e-05,-1e-05,3e-05,-1e-05,-4e-05,-4e-05,-4e-05,3,28
9788,-2e-05,-1e-05,-1e-05,3e-05,-1e-05,-4e-05,-4e-05,-4e-05,3,28
9790,4e-05,7e-05,-2e-05,-1e-05,0,0,-1e-05,2e-05,3,28
9791,4e-05,7e-05,-2e-05,-1e-05,0,0,-1e-05,2e-05,3,28
9792,4e-05,7e-05,-2e-05,-1e-05,0,0,-1e-05,2e-05,3,28
9793,2e-05,-3e-05,4e-05,3e-05,-3e-05,-1e-05,-1e-05,-1e-05,3,28
9794,2e-05,-3e-05,4e-05,3e-05,-3e-05,-1e-05,-1e-05,-1e-05,3,28
9795,2e-05,-3e-05,4e-05,3e-05,-3e-05,-1e-05,-1e-05,-1e-05,3,28
9796,2e-05,-3e-05,4e-05,3e-05,-3e-05,-1e-05,-1e-05,-1e-05,3,28
9797,2e-05,-3e-05,4e-05,3e-05,-3e-05,-1e-05,-1e-05,-1e-05,3,28
9798,2e-05,-3e-05,4e-05,3e-05,-3e-05,-1e-05,-1e-05,-1e-05,3,28
9799,2e-05,-3e-05,4e-05,3e-05,-3e-05,-1e-05,-1e-05,-1e-05,3,28
9800,2e-05,-3e-05,4e-05,3e-05,-3e-05,-1e-05,-1e-05,-1e-05,3,28
9801,2e-05,-3e-05,4e-05,3e-05,-3e-05,-1e-05,-1e-05,-1e-05,3,28
9802,2e-05,-3e-05,4e-05,3e-05,-3e-05,-1e-05,-1e-05,-1e-05,3,28
9803,2e-05,-3e-05,4e-05,3e-05,-3e-05,-1e-05,-1e-05,-1e-05,3,28
9804,2e-05,-3e-05,4e-05,3e-05,-3e-05,-1e-05,-1e-05,-1e-05,3,28
9805,2e-05,-3e-05,4e-05,3e-05,-3e-05,-1e-05,-1e-05,-1e-05,3,28
9806,2e-05,-3e-05,4e-05,3e-05,-3e-05,-1e-05,-1e-05,-1e-05,3,28
9807,2e-05,-3e-05,4e-05,3e-05,-3e-05,-1e-05,-1e-05,-1e-05,3,28
9808,2e-05,-3e-05,4e-05,3e-05,-3e-05,-1e-05,-1e-05,-1e-05,3,28
9809,2e-05,-3e-05,4e-05,3e-05,-3e-05,-1e-05,-1e-05,-1e-05,3,28
9810,2e-05,-3e-05,4e-05,3e-05,-3e-05,-1e-05,-1e-05,-1e-05,3,28
9811,2e-05,-3e-05,4e-05,3e-05,-3e-05,-1e-05,-1e-05,-1e-05,3,28
9812,2e-05,-3e-05,4e-05,3e-05,-3e-05,-1e-05,-1e-05,-1e-05,3,28
9813,0,6e-05,-1e-05,-3e-05,0,-5e-05,1e-05,1e-05,3,28
9814,2e-05,4e-05,-0.00011,-3e-05,0,-2e-05,-3e-05,1e-05,3,28
9816,2e-05,4e-05,-0.00011,-3e-05,0,-2e-05,-3e-05,1e-05,3,28
9817,2e-05,4e-05,-0.00011,-3e-05,0,-2e-05,-3e-05,1e-05,3,28
9818,2e-05,4e-05,-0.00011,-3e-05,0,-2e-05,-3e-05,1e-05,3,28
9819,2e-05,4e-05,-0.00011,-3e-05,0,-2e-05,-3e-05,1e-05,3,28
9820,2e-05,4e-05,-0.00011,-3e-05,0,-2e-05,-3e-05,1e-05,3,28
9821,2e-05,4e-05,-0.00011,-3e-05,0,-2e-05,-3e-05,1e-05,3,28
9822,2e-05,4e-05,-0.00011,-3e-05,0,-2e-05,-3e-05,1e-05,3,28
9823,2e-05,4e-05,-0.00011,-3e-05,0,-2e-05,-3e-05,1e-05,3,28
9824,2e-05,4e-05,-0.00011,-3e-05,0,-2e-05,-3e-05,1e-05,3,28
9825,2e-05,4e-05,-0.00011,-3e-05,0,-2e-05,-3e-05,1e-05,3,28
9826,2e-05,4e-05,-0.00011,-3e-05,0,-2e-05,-3e-05,1e-05,3,28
9827,2e-05,4e-05,-0.00011,-3e-05,0,-2e-05,-3e-05,1e-05,3,28
9828,2e-05,4e-05,-0.00011,-3e-05,0,-2e-05,-3e-05,1e-05,3,28
9829,2e-05,4e-05,-0.00011,-3e-05,0,-2e-05,-3e-05,1e-05,3,28
9830,2e-05,4e-05,-0.00011,-3e-05,0,-2e-05,-3e-05,1e-05,3,28
9831,2e-05,4e-05,-0.00011,-3e-05,0,-2e-05,-3e-05,1e-05,3,28
9832,2e-05,4e-05,-0.00011,-3e-05,0,-2e-05,-3e-05,1e-05,3,28
9833,2e-05,4e-05,-0.00011,-3e-05,0,-2e-05,-3e-05,1e-05,3,28
9834,2e-05,4e-05,-0.00011,-3e-05,0,-2e-05,-3e-05,1e-05,3,28
9835,-2e-05,6e-05,3e-05,6e-05,1e-05,0,-1e-05,1e-05,3,28
9836,-2e-05,6e-05,3e-05,6e-05,1e-05,0,-1e-05,1e-05,3,28
9838,-3e-05,0.00018,4e-05,-7e-05,-7e-05,4e-05,-1e-05,1e-05,3,28
9839,-3e-05,0.00018,4e-05,-7e-05,-7e-05,4e-05,-1e-05,1e-05,3,28
9840,-3e-05,0.00018,4e-05,-7e-05,-7e-05,4e-05,-1e-05,1e-05,3,28
9841,-3e-05,0.00018,4e-05,-7e-05,-7e-05,4e-05,-1e-05,1e-05,3,28
9842,-3e-05,0.00018,4e-05,-7e-05,-7e-05,4e-05,-1e-05,1e-05,3,28
9843,-3e-05,0.00018,4e-05,-7e-05,-7e-05,4e-05,-1e-05,1e-05,3,28
9844,-3e-05,0.00018,4e-05,-7e-05,-7e-05,4e-05,-1e-05,1e-05,3,28
9845,-3e-05,0.00018,4e-05,-7e-05,-7e-05,4e-05,-1e-05,1e-05,3,28
9846,-3e-05,0.00018,4e-05,-7e-05,-7e-05,4e-05,-1e-05,1e-05,3,28
9847,-3e-05,0.00018,4e-05,-7e-05,-7e-05,4e-05,-1e-05,1e-05,3,28
9848,-3e-05,0.00018,4e-05,-7e-05,-7e-05,4e-05,-1e-05,1e-05,3,28
9849,-3e-05,0.00018,4e-05,-7e-05,-7e-05,4e-05,-1e-05,1e-05,3,28
9850,7e-05,-1e-05,-3e-05,4e-05,-3e-05,-1e-05,4e-05,0,3,28
9851,7e-05,-1e-05,-3e-05,4e-05,-3e-05,-1e-05,4e-05,0,3,28
9852,2e-05,0.00013,2e-05,6e-05,7e-05,0,2e-05,0,3,28
9853,2e-05,0.00013,2e-05,6e-05,7e-05,0,2e-05,0,3,28
9854,2e-05,0.00013,2e-05,6e-05,7e-05,0,2e-05,0,3,28
9855,2e-05,0.00013,2e-05,6e-05,7e-05,0,2e-05,0,3,28
9856,2e-05,0.00013,2e-05,6e-05,7e-05,0,2e-05,0,3,28
9857,2e-05,0.00013,2e-05,6e-05,7e-05,0,2e-05,0,3,28
9858,2e-05,0.00013,2e-05,6e-05,7e-05,0,2e-05,0,3,28
9859,2e-05,0.00013,2e-05,6e-05,7e-05,0,2e-05,0,3,28
9860,2e-05,0.00013,2e-05,6e-05,7e-05,0,2e-05,0,3,28
9861,2e-05,0.00013,2e-05,6e-05,7e-05,0,2e-05,0,3,28
9862,2e-05,0.00013,2e-05,6e-05,7e-05,0,2e-05,0,3,28
9863,2e-05,0.00013,2e-05,6e-05,7e-05,0,2e-05,0,3,28
9864,2e-05,0.00013,2e-05,6e-05,7e-05,0,2e-05,0,3,28
9865,2e-05,0.00013,2e-05,6e-05,7e-05,0,2e-05,0,3,28
9866,2e-05,0.00013,2e-05,6e-05,7e-05,0,2e-05,0,3,28
9867,2e-05,0.00013,2e-05,6e-05,7e-05,0,2e-05,0,3,28
9868,2e-05,0.00013,2e-05,6e-05,7e-05,0,2e-05,0,3,28
9869,2e-05,0.00013,2e-05,6e-05,7e-05,0,2e-05,0,3,28
9870,2e-05,0.00013,2e-05,6e-05,7e-05,0,2e-05,0,3,28
9871,2e-05,0.00013,2e-05,6e-05,7e-05,0,2e-05,0,3,28
9872,2e-05,0.00013,2e-05,6e-05,7e-05,0,2e-05,0,3,28
9873,2e-05,0.00027,1e-05,2e-05,6e-05,0,-0.00024,-1e-05,3,28
9874,-6e-05,-3e-05,-7e-05,-3e-05,2e-05,-5e-05,-0.00017,-4e-05,3,28
9875,-5e-05,-0.00012,-2e-05,-3e-05,-1e-05,-3e-05,-9e-05,-3e-05,3,28
9876,-5e-05,-0.00012,-2e-05,-3e-05,-1e-05,-3e-05,-9e-05,-3e-05,3,28
9877,-5e-05,-0.00012,-2e-05,-3e-05,-1e-05,-3e-05,-9e-05,-3e-05,3,28
9878,-5e-05,-0.00012,-2e-05,-3e-05,-1e-05,-3e-05,-9e-05,-3e-05,3,28
9879,-5e-05,-0.00012,-2e-05,-3e-05,-1e-05,-3e-05,-9e-05,-3e-05,3,28
9880,-5e-05,-0.00012,-2e-05,-3e-05,-1e-05,-3e-05,-9e-05,-3e-05,3,28
9881,-5e-05,-0.00012,-2e-05,-3e-05,-1e-05,-3e-05,-9e-05,-3e-05,3,28
9882,-5e-05,-0.00012,-2e-05,-3e-05,-1e-05,-3e-05,-9e-05,-3e-05,3,28
9883,-5e-05,-0.00012,-2e-05,-3e-05,-1e-05,-3e-05,-9e-05,-3e-05,3,28
9884,-5e-05,-0.00012,-2e-05,-3e-05,-1e-05,-3e-05,-9e-05,-3e-05,3,28
9885,-5e-05,-0.00012,-2e-05,-3e-05,-1e-05,-3e-05,-9e-05,-3e-05,3,28
9886,-5e-05,-0.00012,-2e-05,-3e-05,-1e-05,-3e-05,-9e-05,-3e-05,3,28
9888,-5e-05,-0.00012,-2e-05,-3e-05,-1e-05,-3e-05,-9e-05,-3e-05,3,28
9889,-5e-05,-0.00012,-2e-05,-3e-05,-1e-05,-3e-05,-9e-05,-3e-05,3,28
9890,-5e-05,-0.00012,-2e-05,-3e-05,-1e-05,-3e-05,-9e-05,-3e-05,3,28
9891,-5e-05,-0.00012,-2e-05,-3e-05,-1e-05,-3e-05,-9e-05,-3e-05,3,28
9892,-5e-05,-0.00012,-2e-05,-3e-05,-1e-05,-3e-05,-9e-05,-3e-05,3,28
9893,-5e-05,-0.00012,-2e-05,-3e-05,-1e-05,-3e-05,-9e-05,-3e-05,3,28
9894,-5e-05,-0.00012,-2e-05,-3e-05,-1e-05,-3e-05,-9e-05,-3e-05,3,28
9895,-1e-05,7e-05,7e-05,-3e-05,2e-05,-4e-05,7e-05,-2e-05,3,28
9896,-1e-05,7e-05,7e-05,-3e-05,2e-05,-4e-05,7e-05,-2e-05,3,28
9897,-3e-05,-6e-05,2e-05,-3e-05,-6e-05,3e-05,4e-05,-3e-05,3,28
9898,-3e-05,-6e-05,2e-05,-3e-05,-6e-05,3e-05,4e-05,-3e-05,3,28
9899,-3e-05,-6e-05,2e-05,-3e-05,-6e-05,3e-05,4e-05,-3e-05,3,28
9900,-3e-05,-6e-05,2e-05,-3e-05,-6e-05,3e-05,4e-05,-3e-05,3,28
9901,-3e-05,-6e-05,2e-05,-3e-05,-6e-05,3e-05,4e-05,-3e-05,3,28
9902,-3e-05,-6e-05,2e-05,-3e-05,-6e-05,3e-05,4e-05,-3e-05,3,28
9903,-3e-05,-6e-05,2e-05,-3e-05,-6e-05,3e-05,4e-05,-3e-05,3,28
9904,-3e-05,-6e-05,2e-05,-3e-05,-6e-05,3e-05,4e-05,-3e-05,3,28
9905,-3e-05,-6e-05,2e-05,-3e-05,-6e-05,3e-05,4e-05,-3e-05,3,28
9906,-3e-05,-6e-05,2e-05,-3e-05,-6e-05,3e-05,4e-05,-3e-05,3,28
9907,-3e-05,-6e-05,2e-05,-3e-05,-6e-05,3e-05,4e-05,-3e-05,3,28
9908,-3e-05,-6e-05,2e-05,-3e-05,-6e-05,3e-05,4e-05,-3e-05,3,28
9909,-3e-05,-6e-05,2e-05,-3e-05,-6e-05,3e-05,4e-05,-3e-05,3,28
9910,0,-5e-05,-6e-05,-0.0001,-6e-05,9e-05,9e-05,-1e-05,3,28
9911,0,-5e-05,-6e-05,-0.0001,-6e-05,9e-05,9e-05,-1e-05,3,28
9912,0,-5e-05,-6e-05,-0.0001,-6e-05,9e-05,9e-05,-1e-05,3,28
9913,0,-5e-05,-6e-05,-0.0001,-6e-05,9e-05,9e-05,-1e-05,3,28
9914,0,-5e-05,-6e-05,-0.0001,-6e-05,9e-05,9e-05,-1e-05,3,28
9915,0,-5e-05,-6e-05,-0.0001,-6e-05,9e-05,9e-05,-1e-05,3,28
9916,-0.0001,-7e-05,-3e-05,1e-05,0,-3e-05,-1e-05,1e-05,3,28
9917,-0.0001,-7e-05,-3e-05,1e-05,0,-3e-05,-1e-05,1e-05,3,28
9918,-0.0001,-7e-05,-3e-05,1e-05,0,-3e-05,-1e-05,1e-05,3,28
9919,-0.0001,-7e-05,-3e-05,1e-05,0,-3e-05,-1e-05,1e-05,3,28
9920,-0.0001,-7e-05,-3e-05,1e-05,0,-3e-05,-1e-05,1e-05,3,28
9921,-0.0001,-7e-05,-3e-05,1e-05,0,-3e-05,-1e-05,1e-05,3,28
9922,-0.0001,-7e-05,-3e-05,1e-05,0,-3e-05,-1e-05,1e-05,3,28
9923,-0.0001,-7e-05,-3e-05,1e-05,0,-3e-05,-1e-05,1e-05,3,28
9924,-0.0001,-7e-05,-3e-05,1e-05,0,-3e-05,-1e-05,1e-05,3,28
9925,-0.0001,-7e-05,-3e-05,1e-05,0,-3e-05,-1e-05,1e-05,3,28
9926,-0.0001,-7e-05,-3e-05,1e-05,0,-3e-05,-1e-05,1e-05,3,28
9927,-0.0001,-7e-05,-3e-05,1e-05,0,-3e-05,-1e-05,1e-05,3,28
9928,-0.0001,-7e-05,-3e-05,1e-05,0,-3e-05,-1e-05,1e-05,3,28
9929,-0.0001,-7e-05,-3e-05,1e-05,0,-3e-05,-1e-05,1e-05,3,28
9930,-0.0001,-7e-05,-3e-05,1e-05,0,-3e-05,-1e-05,1e-05,3,28
9931,-0.0001,-7e-05,-3e-05,1e-05,0,-3e-05,-1e-05,1e-05,3,28
9932,-0.0001,-7e-05,-3e-05,1e-05,0,-3e-05,-1e-05,1e-05,3,28
9933,-0.00015,-0.00089,-2e-05,0.00011,1e-05,-2e-05,0,0,3,28
9934,-0.00022,-0.00091,-8e-05,2e-05,1e-05,5e-05,4e-05,-1e-05,3,28
9936,-0.00022,-0.00091,-8e-05,2e-05,1e-05,5e-05,4e-05,-1e-05,3,28
9937,-0.00022,-0.00091,-8e-05,2e-05,1e-05,5e-05,4e-05,-1e-05,3,28
9938,-0.00022,-0.00091,-8e-05,2e-05,1e-05,5e-05,4e-05,-1e-05,3,28
9939,-0.00022,-0.00091,-8e-05,2e-05,1e-05,5e-05,4e-05,-1e-05,3,28
9940,-0.00022,-0.00091,-8e-05,2e-05,1e-05,5e-05,4e-05,-1e-05,3,28
9941,-0.00022,-0.00091,-8e-05,2e-05,1e-05,5e-05,4e-05,-1e-05,3,28
9942,-0.00022,-0.00091,-8e-05,2e-05,1e-05,5e-05,4e-05,-1e-05,3,28
9943,-0.00022,-0.00091,-8e-05,2e-05,1e-05,5e-05,4e-05,-1e-05,3,28
9944,-0.00022,-0.00091,-8e-05,2e-05,1e-05,5e-05,4e-05,-1e-05,3,28
9945,-0.00022,-0.00091,-8e-05,2e-05,1e-05,5e-05,4e-05,-1e-05,3,28
9946,-0.00022,-0.00091,-8e-05,2e-05,1e-05,5e-05,4e-05,-1e-05,3,28
9947,-0.00022,-0.00091,-8e-05,2e-05,1e-05,5e-05,4e-05,-1e-05,3,28
9948,-0.00022,-0.00091,-8e-05,2e-05,1e-05,5e-05,4e-05,-1e-05,3,28
9949,-0.00022,-0.00091,-8e-05,2e-05,1e-05,5e-05,4e-05,-1e-05,3,28
9950,-0.00022,-0.00091,-8e-05,2e-05,1e-05,5e-05,4e-05,-1e-05,3,28
9951,-0.00022,-0.00091,-8e-05,2e-05,1e-05,5e-05,4e-05,-1e-05,3,28
9952,-0.00022,-0.00091,-8e-05,2e-05,1e-05,5e-05,4e-05,-1e-05,3,28
9953,-0.00022,-0.00091,-8e-05,2e-05,1e-05,5e-05,4e-05,-1e-05,3,28
9954,-0.00022,-0.00091,-8e-05,2e-05,1e-05,5e-05,4e-05,-1e-05,3,28
9955,2e-05,0.00024,-2e-05,0,-3e-05,-6e-05,0,-2e-05,3,28
9956,2e-05,0.00024,-2e-05,0,-3e-05,-6e-05,0,-2e-05,3,28
9957,6e-05,5e-05,0,4e-05,-3e-05,-0.0001,-8e-05,-3e-05,3,28
9958,6e-05,5e-05,0,4e-05,-3e-05,-0.0001,-8e-05,-3e-05,3,28
9959,6e-05,5e-05,0,4e-05,-3e-05,-0.0001,-8e-05,-3e-05,3,28
9960,6e-05,5e-05,0,4e-05,-3e-05,-0.0001,-8e-05,-3e-05,3,28
9961,6e-05,5e-05,0,4e-05,-3e-05,-0.0001,-8e-05,-3e-05,3,28
9962,6e-05,5e-05,0,4e-05,-3e-05,-0.0001,-8e-05,-3e-05,3,28
9963,6e-05,5e-05,0,4e-05,-3e-05,-0.0001,-8e-05,-3e-05,3,28
9964,6e-05,5e-05,0,4e-05,-3e-05,-0.0001,-8e-05,-3e-05,3,28
9965,6e-05,5e-05,0,4e-05,-3e-05,-0.0001,-8e-05,-3e-05,3,28
9966,6e-05,5e-05,0,4e-05,-3e-05,-0.0001,-8e-05,-3e-05,3,28
9967,6e-05,5e-05,0,4e-05,-3e-05,-0.0001,-8e-05,-3e-05,3,28
9968,6e-05,5e-05,0,4e-05,-3e-05,-0.0001,-8e-05,-3e-05,3,28
9969,9e-05,0.00024,8e-05,0.00011,0.00012,0.00016,3e-05,-1e-05,3,28
9970,3e-05,6e-05,2e-05,6e-05,0,2e-05,1e-05,1e-05,3,28
9972,3e-05,6e-05,2e-05,6e-05,0,2e-05,1e-05,1e-05,3,28
9973,3e-05,6e-05,2e-05,6e-05,0,2e-05,1e-05,1e-05,3,28
9974,3e-05,6e-05,2e-05,6e-05,0,2e-05,1e-05,1e-05,3,28
9975,3e-05,6e-05,2e-05,6e-05,0,2e-05,1e-05,1e-05,3,28
9976,6e-05,0.0004,1e-05,1e-05,-1e-05,-3e-05,-2e-05,1e-05,3,28
9977,6e-05,0.0004,1e-05,1e-05,-1e-05,-3e-05,-2e-05,1e-05,3,28
9978,6e-05,0.0004,1e-05,1e-05,-1e-05,-3e-05,-2e-05,1e-05,3,28
9979,6e-05,0.0004,1e-05,1e-05,-1e-05,-3e-05,-2e-05,1e-05,3,28
9980,6e-05,0.0004,1e-05,1e-05,-1e-05,-3e-05,-2e-05,1e-05,3,28
9981,6e-05,0.0004,1e-05,1e-05,-1e-05,-3e-05,-2e-05,1e-05,3,28
9982,6e-05,0.0004,1e-05,1e-05,-1e-05,-3e-05,-2e-05,1e-05,3,28
9983,6e-05,0.0004,1e-05,1e-05,-1e-05,-3e-05,-2e-05,1e-05,3,28
9984,6e-05,0.0004,1e-05,1e-05,-1e-05,-3e-05,-2e-05,1e-05,3,28
9985,6e-05,0.0004,1e-05,1e-05,-1e-05,-3e-05,-2e-05,1e-05,3,28
9986,6e-05,0.0004,1e-05,1e-05,-1e-05,-3e-05,-2e-05,1e-05,3,28
9988,6e-05,0.0004,1e-05,1e-05,-1e-05,-3e-05,-2e-05,1e-05,3,28
9989,6e-05,0.0004,1e-05,1e-05,-1e-05,-3e-05,-2e-05,1e-05,3,28
9990,6e-05,0.0004,1e-05,1e-05,-1e-05,-3e-05,-2e-05,1e-05,3,28
9991,6e-05,0.0004,1e-05,1e-05,-1e-05,-3e-05,-2e-05,1e-05,3,28
9992,6e-05,0.0004,1e-05,1e-05,-1e-05,-3e-05,-2e-05,1e-05,3,28
9993,1e-05,0.00025,-2e-05,-1e-05,5e-05,1e-05,1e-05,-4e-05,3,28
9994,2e-05,7e-05,-4e-05,-9e-05,1e-05,1e-05,-5e-05,0,3,28
9996,2e-05,7e-05,-4e-05,-9e-05,1e-05,1e-05,-5e-05,0,3,28
9997,2e-05,7e-05,-4e-05,-9e-05,1e-05,1e-05,-5e-05,0,3,28
9998,2e-05,7e-05,-4e-05,-9e-05,1e-05,1e-05,-5e-05,0,3,28
9999,2e-05,7e-05,-4e-05,-9e-05,1e-05,1e-05,-5e-05,0,3,28
10000,2e-05,7e-05,-4e-05,-9e-05,1e-05,1e-05,-5e-05,0,3,28
10001,2e-05,7e-05,-4e-05,-9e-05,1e-05,1e-05,-5e-05,0,3,28
10002,2e-05,7e-05,-4e-05,-9e-05,1e-05,1e-05,-5e-05,0,3,28
10003,2e-05,7e-05,-4e-05,-9e-05,1e-05,1e-05,-5e-05,0,3,28
10004,2e-05,7e-05,-4e-05,-9e-05,1e-05,1e-05,-5e-05,0,3,28
10005,2e-05,7e-05,-4e-05,-9e-05,1e-05,1e-05,-5e-05,0,3,28
10006,2e-05,7e-05,-4e-05,-9e-05,1e-05,1e-05,-5e-05,0,3,28
10007,2e-05,7e-05,-4e-05,-9e-05,1e-05,1e-05,-5e-05,0,3,28
10008,2e-05,7e-05,-4e-05,-9e-05,1e-05,1e-05,-5e-05,0,3,28
10009,2e-05,7e-05,-4e-05,-9e-05,1e-05,1e-05,-5e-05,0,3,28
10010,2e-05,7e-05,-4e-05,-9e-05,1e-05,1e-05,-5e-05,0,3,28
10011,2e-05,7e-05,-4e-05,-9e-05,1e-05,1e-05,-5e-05,0,3,28
10012,2e-05,7e-05,-4e-05,-9e-05,1e-05,1e-05,-5e-05,0,3,28
10013,2e-05,7e-05,-4e-05,-9e-05,1e-05,1e-05,-5e-05,0,3,28
10014,2e-05,7e-05,-4e-05,-9e-05,1e-05,1e-05,-5e-05,0,3,28
10015,-2e-05,-0.00011,1e-05,-8e-05,1e-05,4e-05,-3e-05,0.00062,3,28
10016,-2e-05,-0.00011,1e-05,-8e-05,1e-05,4e-05,-3e-05,0.00062,3,28
10017,-4e-05,7e-05,6e-05,-2e-05,-4e-05,-2e-05,-2e-05,0.00026,3,28
10018,-4e-05,7e-05,6e-05,-2e-05,-4e-05,-2e-05,-2e-05,0.00026,3,28
10019,-4e-05,7e-05,6e-05,-2e-05,-4e-05,-2e-05,-2e-05,0.00026,3,28
10020,-4e-05,7e-05,6e-05,-2e-05,-4e-05,-2e-05,-2e-05,0.00026,3,28
10021,-4e-05,7e-05,6e-05,-2e-05,-4e-05,-2e-05,-2e-05,0.00026,3,28
10022,-4e-05,7e-05,6e-05,-2e-05,-4e-05,-2e-05,-2e-05,0.00026,3,28
10023,-4e-05,7e-05,6e-05,-2e-05,-4e-05,-2e-05,-2e-05,0.00026,3,28
10024,-4e-05,7e-05,6e-05,-2e-05,-4e-05,-2e-05,-2e-05,0.00026,3,28
10025,-4e-05,7e-05,6e-05,-2e-05,-4e-05,-2e-05,-2e-05,0.00026,3,28
10026,-4e-05,7e-05,6e-05,-2e-05,-4e-05,-2e-05,-2e-05,0.00026,3,28
10027,-4e-05,7e-05,6e-05,-2e-05,-4e-05,-2e-05,-2e-05,0.00026,3,28
10028,-4e-05,7e-05,6e-05,-2e-05,-4e-05,-2e-05,-2e-05,0.00026,3,28
10029,-7e-05,-0.00016,4e-05,0,2e-05,-1e-05,0,-2e-05,3,28
10030,-7e-05,6e-05,4e-05,-3e-05,-6e-05,-3e-05,-2e-05,-0.00033,3,28
10032,-7e-05,6e-05,4e-05,-3e-05,-6e-05,-3e-05,-2e-05,-0.00033,3,28
10034,-7e-05,6e-05,4e-05,-3e-05,-6e-05,-3e-05,-2e-05,-0.00033,3,28
10035,-7e-05,6e-05,4e-05,-3e-05,-6e-05,-3e-05,-2e-05,-0.00033,3,28
10044,2e-05,7e-05,-4e-05,-4e-05,-2e-05,3e-05,4e-05,-0.00024,3,28
10045,2e-05,7e-05,-4e-05,-4e-05,-2e-05,3e-05,4e-05,-0.00024,3,28
10046,2e-05,7e-05,-4e-05,-4e-05,-2e-05,3e-05,4e-05,-0.00024,3,28
10047,2e-05,7e-05,-4e-05,-4e-05,-2e-05,3e-05,4e-05,-0.00024,3,28
10048,2e-05,7e-05,-4e-05,-4e-05,-2e-05,3e-05,4e-05,-0.00024,3,28
10049,2e-05,7e-05,-4e-05,-4e-05,-2e-05,3e-05,4e-05,-0.00024,3,28
10050,2e-05,7e-05,-4e-05,-4e-05,-2e-05,3e-05,4e-05,-0.00024,3,28
10051,2e-05,7e-05,-4e-05,-4e-05,-2e-05,3e-05,4e-05,-0.00024,3,28
10052,2e-05,7e-05,-4e-05,-4e-05,-2e-05,3e-05,4e-05,-0.00024,3,28
10053,4e-05,8e-05,-5e-05,-5e-05,-1e-05,-9e-05,-3e-05,-0.0002,3,28
10054,8e-05,-2e-05,-3e-05,1e-05,0,0,2e-05,-0.00014,3,28
10056,8e-05,-2e-05,-3e-05,1e-05,0,0,2e-05,-0.00014,3,28
10057,8e-05,-2e-05,-3e-05,1e-05,0,0,2e-05,-0.00014,3,28
10058,8e-05,-2e-05,-3e-05,1e-05,0,0,2e-05,-0.00014,3,28
10059,8e-05,-2e-05,-3e-05,1e-05,0,0,2e-05,-0.00014,3,28
10060,8e-05,-2e-05,-3e-05,1e-05,0,0,2e-05,-0.00014,3,28
10061,8e-05,-2e-05,-3e-05,1e-05,0,0,2e-05,-0.00014,3,28
10062,8e-05,-2e-05,-3e-05,1e-05,0,0,2e-05,-0.00014,3,28
10063,8e-05,-2e-05,-3e-05,1e-05,0,0,2e-05,-0.00014,3,28
10064,8e-05,-2e-05,-3e-05,1e-05,0,0,2e-05,-0.00014,3,28
10065,8e-05,-2e-05,-3e-05,1e-05,0,0,2e-05,-0.00014,3,28
10066,8e-05,-2e-05,-3e-05,1e-05,0,0,2e-05,-0.00014,3,28
10067,8e-05,-2e-05,-3e-05,1e-05,0,0,2e-05,-0.00014,3,28
10068,8e-05,-2e-05,-3e-05,1e-05,0,0,2e-05,-0.00014,3,28
10069,8e-05,-2e-05,-3e-05,1e-05,0,0,2e-05,-0.00014,3,28
10070,8e-05,-2e-05,-3e-05,1e-05,0,0,2e-05,-0.00014,3,28
10071,8e-05,-2e-05,-3e-05,1e-05,0,0,2e-05,-0.00014,3,28
10072,8e-05,-2e-05,-3e-05,1e-05,0,0,2e-05,-0.00014,3,28
10073,8e-05,-2e-05,-3e-05,1e-05,0,0,2e-05,-0.00014,3,28
10074,8e-05,-2e-05,-3e-05,1e-05,0,0,2e-05,-0.00014,3,28
10075,8e-05,-2e-05,-3e-05,1e-05,0,0,2e-05,-0.00014,3,28
10076,8e-05,0.00018,-5e-05,-9e-05,-2e-05,-1e-05,1e-05,-7e-05,3,28
10077,-5e-05,-0.00028,-1e-05,-1e-05,2e-05,1e-05,-4e-05,2e-05,3,28
10078,-5e-05,-0.00028,-1e-05,-1e-05,2e-05,1e-05,-4e-05,2e-05,3,28
10079,-5e-05,-0.00028,-1e-05,-1e-05,2e-05,1e-05,-4e-05,2e-05,3,28
10080,-5e-05,-0.00028,-1e-05,-1e-05,2e-05,1e-05,-4e-05,2e-05,3,28
10081,-5e-05,-0.00028,-1e-05,-1e-05,2e-05,1e-05,-4e-05,2e-05,3,28
10082,-5e-05,-0.00028,-1e-05,-1e-05,2e-05,1e-05,-4e-05,2e-05,3,28
10083,-5e-05,-0.00028,-1e-05,-1e-05,2e-05,1e-05,-4e-05,2e-05,3,28
10084,-5e-05,-0.00028,-1e-05,-1e-05,2e-05,1e-05,-4e-05,2e-05,3,28
10085,-5e-05,-0.00028,-1e-05,-1e-05,2e-05,1e-05,-4e-05,2e-05,3,28
10086,-5e-05,-0.00028,-1e-05,-1e-05,2e-05,1e-05,-4e-05,2e-05,3,28
10088,-5e-05,-0.00028,-1e-05,-1e-05,2e-05,1e-05,-4e-05,2e-05,3,28
10089,-4e-05,-0.00026,-6e-05,-9e-05,-3e-05,-3e-05,5e-05,0.00011,3,28
10090,4e-05,0.00023,-1e-05,1e-05,-1e-05,5e-05,0,0,3,28
10091,4e-05,0.00023,-1e-05,1e-05,-1e-05,5e-05,0,0,3,28
10092,4e-05,0.00023,-1e-05,1e-05,-1e-05,5e-05,0,0,3,28
10093,4e-05,0.00023,-1e-05,1e-05,-1e-05,5e-05,0,0,3,28
10094,4e-05,0.00023,-1e-05,1e-05,-1e-05,5e-05,0,0,3,28
10095,4e-05,0.00023,-1e-05,1e-05,-1e-05,5e-05,0,0,3,28
10096,-7e-05,-0.00017,-5e-05,-8e-05,1e-05,-1e-05,2e-05,-3e-05,3,28
10097,-7e-05,-0.00017,-5e-05,-8e-05,1e-05,-1e-05,2e-05,-3e-05,3,28
10098,-7e-05,-0.00017,-5e-05,-8e-05,1e-05,-1e-05,2e-05,-3e-05,3,28
10099,-7e-05,-0.00017,-5e-05,-8e-05,1e-05,-1e-05,2e-05,-3e-05,3,28
10100,-7e-05,-0.00017,-5e-05,-8e-05,1e-05,-1e-05,2e-05,-3e-05,3,28
10101,-7e-05,-0.00017,-5e-05,-8e-05,1e-05,-1e-05,2e-05,-3e-05,3,28
10102,-7e-05,-0.00017,-5e-05,-8e-05,1e-05,-1e-05,2e-05,-3e-05,3,28
10103,-7e-05,-0.00017,-5e-05,-8e-05,1e-05,-1e-05,2e-05,-3e-05,3,28
10104,-7e-05,-0.00017,-5e-05,-8e-05,1e-05,-1e-05,2e-05,-3e-05,3,28
10105,-7e-05,-0.00017,-5e-05,-8e-05,1e-05,-1e-05,2e-05,-3e-05,3,28
10106,-7e-05,-0.00017,-5e-05,-8e-05,1e-05,-1e-05,2e-05,-3e-05,3,28
10107,-7e-05,-0.00017,-5e-05,-8e-05,1e-05,-1e-05,2e-05,-3e-05,3,28
10108,-7e-05,-0.00017,-5e-05,-8e-05,1e-05,-1e-05,2e-05,-3e-05,3,28
10109,-7e-05,-0.00017,-5e-05,-8e-05,1e-05,-1e-05,2e-05,-3e-05,3,28
10110,-7e-05,-0.00017,-5e-05,-8e-05,1e-05,-1e-05,2e-05,-3e-05,3,28
10111,-7e-05,-0.00017,-5e-05,-8e-05,1e-05,-1e-05,2e-05,-3e-05,3,28
10112,-7e-05,-0.00017,-5e-05,-8e-05,1e-05,-1e-05,2e-05,-3e-05,3,28
10113,0,-0.00014,0,-4e-05,-4e-05,-0.0001,3e-05,-6e-05,3,28
10114,3e-05,0.00014,7e-05,1e-05,-3e-05,-1e-05,-2e-05,5e-05,3,28
10115,3e-05,0.00014,7e-05,1e-05,-3e-05,-1e-05,-2e-05,5e-05,3,28
10116,3e-05,0.00014,7e-05,1e-05,-3e-05,-1e-05,-2e-05,5e-05,3,28
10117,3e-05,0.00014,7e-05,1e-05,-3e-05,-1e-05,-2e-05,5e-05,3,28
10118,3e-05,0.00014,7e-05,1e-05,-3e-05,-1e-05,-2e-05,5e-05,3,28
10119,3e-05,0.00014,7e-05,1e-05,-3e-05,-1e-05,-2e-05,5e-05,3,28
10120,3e-05,0.00014,7e-05,1e-05,-3e-05,-1e-05,-2e-05,5e-05,3,28
10121,3e-05,0.00014,7e-05,1e-05,-3e-05,-1e-05,-2e-05,5e-05,3,28
10122,3e-05,0.00014,7e-05,1e-05,-3e-05,-1e-05,-2e-05,5e-05,3,28
10123,3e-05,0.00014,7e-05,1e-05,-3e-05,-1e-05,-2e-05,5e-05,3,28
10124,3e-05,0.00014,7e-05,1e-05,-3e-05,-1e-05,-2e-05,5e-05,3,28
10125,3e-05,0.00014,7e-05,1e-05,-3e-05,-1e-05,-2e-05,5e-05,3,28
10126,3e-05,0.00014,7e-05,1e-05,-3e-05,-1e-05,-2e-05,5e-05,3,28
10127,3e-05,0.00014,7e-05,1e-05,-3e-05,-1e-05,-2e-05,5e-05,3,28
10128,3e-05,0.00014,7e-05,1e-05,-3e-05,-1e-05,-2e-05,5e-05,3,28
10129,3e-05,0.00014,7e-05,1e-05,-3e-05,-1e-05,-2e-05,5e-05,3,28
10130,3e-05,0.00014,7e-05,1e-05,-3e-05,-1e-05,-2e-05,5e-05,3,28
10131,3e-05,0.00014,7e-05,1e-05,-3e-05,-1e-05,-2e-05,5e-05,3,28
10132,3e-05,0.00014,7e-05,1e-05,-3e-05,-1e-05,-2e-05,5e-05,3,28
10133,3e-05,0.00014,7e-05,1e-05,-3e-05,-1e-05,-2e-05,5e-05,3,28
10134,3e-05,0.00014,7e-05,1e-05,-3e-05,-1e-05,-2e-05,5e-05,3,28
10135,-6e-05,-6e-05,-9e-05,-2e-05,-3e-05,0,-5e-05,2e-05,3,28
10136,-6e-05,-6e-05,-9e-05,-2e-05,-3e-05,0,-5e-05,2e-05,3,28
10138,-4e-05,4e-05,-5e-05,2e-05,1e-05,5e-05,1e-05,-3e-05,3,28
10139,-4e-05,4e-05,-5e-05,2e-05,1e-05,5e-05,1e-05,-3e-05,3,28
10140,-4e-05,4e-05,-5e-05,2e-05,1e-05,5e-05,1e-05,-3e-05,3,28
10141,-4e-05,4e-05,-5e-05,2e-05,1e-05,5e-05,1e-05,-3e-05,3,28
10142,-4e-05,4e-05,-5e-05,2e-05,1e-05,5e-05,1e-05,-3e-05,3,28
10143,-4e-05,4e-05,-5e-05,2e-05,1e-05,5e-05,1e-05,-3e-05,3,28
10144,-4e-05,4e-05,-5e-05,2e-05,1e-05,5e-05,1e-05,-3e-05,3,28
10145,-4e-05,4e-05,-5e-05,2e-05,1e-05,5e-05,1e-05,-3e-05,3,28
10146,-4e-05,4e-05,-5e-05,2e-05,1e-05,5e-05,1e-05,-3e-05,3,28
10147,-4e-05,4e-05,-5e-05,2e-05,1e-05,5e-05,1e-05,-3e-05,3,28
10148,-4e-05,4e-05,-5e-05,2e-05,1e-05,5e-05,1e-05,-3e-05,3,28
10149,-4e-05,5e-05,5e-05,7e-05,0,-1e-05,-2e-05,-3e-05,3,28
10150,-4e-05,5e-05,5e-05,7e-05,0,-1e-05,-2e-05,-3e-05,3,28
10151,-4e-05,5e-05,5e-05,7e-05,0,-1e-05,-2e-05,-3e-05,3,28
10152,-1e-05,0,7e-05,6e-05,-2e-05,1e-05,-5e-05,-2e-05,3,28
10153,-1e-05,0,7e-05,6e-05,-2e-05,1e-05,-5e-05,-2e-05,3,28
10154,-1e-05,0,7e-05,6e-05,-2e-05,1e-05,-5e-05,-2e-05,3,28
10155,-1e-05,0,7e-05,6e-05,-2e-05,1e-05,-5e-05,-2e-05,3,28
10156,-3e-05,2e-05,-4e-05,-5e-05,-2e-05,-7e-05,-1e-05,-3e-05,3,28
10157,-3e-05,2e-05,-4e-05,-5e-05,-2e-05,-7e-05,-1e-05,-3e-05,3,28
10158,-3e-05,2e-05,-4e-05,-5e-05,-2e-05,-7e-05,-1e-05,-3e-05,3,28
10159,-3e-05,2e-05,-4e-05,-5e-05,-2e-05,-7e-05,-1e-05,-3e-05,3,28
10160,-3e-05,2e-05,-4e-05,-5e-05,-2e-05,-7e-05,-1e-05,-3e-05,3,28
10161,-3e-05,2e-05,-4e-05,-5e-05,-2e-05,-7e-05,-1e-05,-3e-05,3,28
10162,-3e-05,2e-05,-4e-05,-5e-05,-2e-05,-7e-05,-1e-05,-3e-05,3,28
10163,-3e-05,2e-05,-4e-05,-5e-05,-2e-05,-7e-05,-1e-05,-3e-05,3,28
10164,-3e-05,2e-05,-4e-05,-5e-05,-2e-05,-7e-05,-1e-05,-3e-05,3,28
10165,-3e-05,2e-05,-4e-05,-5e-05,-2e-05,-7e-05,-1e-05,-3e-05,3,28
10166,-3e-05,2e-05,-4e-05,-5e-05,-2e-05,-7e-05,-1e-05,-3e-05,3,28
10167,-3e-05,2e-05,-4e-05,-5e-05,-2e-05,-7e-05,-1e-05,-3e-05,3,28
10168,-3e-05,2e-05,-4e-05,-5e-05,-2e-05,-7e-05,-1e-05,-3e-05,3,28
10169,-3e-05,2e-05,-4e-05,-5e-05,-2e-05,-7e-05,-1e-05,-3e-05,3,28
10170,-3e-05,2e-05,-4e-05,-5e-05,-2e-05,-7e-05,-1e-05,-3e-05,3,28
10171,-3e-05,2e-05,-4e-05,-5e-05,-2e-05,-7e-05,-1e-05,-3e-05,3,28
10172,-3e-05,2e-05,-4e-05,-5e-05,-2e-05,-7e-05,-1e-05,-3e-05,3,28
10173,4e-05,1e-05,-1e-05,4e-05,3e-05,4e-05,7e-05,0,3,28
10175,0.00015,1e-05,-3e-05,-5e-05,-2e-05,0,-1e-05,-1e-05,3,28
10176,0.00015,1e-05,-3e-05,-5e-05,-2e-05,0,-1e-05,-1e-05,3,28
10177,0.00015,1e-05,-3e-05,-5e-05,-2e-05,0,-1e-05,-1e-05,3,28
10178,0.00015,1e-05,-3e-05,-5e-05,-2e-05,0,-1e-05,-1e-05,3,28
10179,0.00015,1e-05,-3e-05,-5e-05,-2e-05,0,-1e-05,-1e-05,3,28
10180,0.00015,1e-05,-3e-05,-5e-05,-2e-05,0,-1e-05,-1e-05,3,28
10181,0.00015,1e-05,-3e-05,-5e-05,-2e-05,0,-1e-05,-1e-05,3,28
10182,0.00015,1e-05,-3e-05,-5e-05,-2e-05,0,-1e-05,-1e-05,3,28
10183,0.00015,1e-05,-3e-05,-5e-05,-2e-05,0,-1e-05,-1e-05,3,28
10184,0.00015,1e-05,-3e-05,-5e-05,-2e-05,0,-1e-05,-1e-05,3,28
10185,0.00015,1e-05,-3e-05,-5e-05,-2e-05,0,-1e-05,-1e-05,3,28
10186,0.00015,1e-05,-3e-05,-5e-05,-2e-05,0,-1e-05,-1e-05,3,28
10188,0.00015,1e-05,-3e-05,-5e-05,-2e-05,0,-1e-05,-1e-05,3,28
10189,0.00015,1e-05,-3e-05,-5e-05,-2e-05,0,-1e-05,-1e-05,3,28
10190,0.00015,1e-05,-3e-05,-5e-05,-2e-05,0,-1e-05,-1e-05,3,28
10191,0.00015,1e-05,-3e-05,-5e-05,-2e-05,0,-1e-05,-1e-05,3,28
10192,0.00015,1e-05,-3e-05,-5e-05,-2e-05,0,-1e-05,-1e-05,3,28
10193,0.00015,1e-05,-3e-05,-5e-05,-2e-05,0,-1e-05,-1e-05,3,28
10194,0.00015,1e-05,-3e-05,-5e-05,-2e-05,0,-1e-05,-1e-05,3,28
10195,3e-05,-6e-05,4e-05,7e-05,8e-05,4e-05,1e-05,0,3,28
10196,3e-05,-6e-05,4e-05,7e-05,8e-05,4e-05,1e-05,0,3,28
10197,-0.00013,-0.00013,-5e-05,-5e-05,-5e-05,-0.0001,-2e-05,-3e-05,3,28
10198,-0.00013,-0.00013,-5e-05,-5e-05,-5e-05,-0.0001,-2e-05,-3e-05,3,28
10199,-0.00013,-0.00013,-5e-05,-5e-05,-5e-05,-0.0001,-2e-05,-3e-05,3,28
10200,-0.00013,-0.00013,-5e-05,-5e-05,-5e-05,-0.0001,-2e-05,-3e-05,3,28
10201,-0.00013,-0.00013,-5e-05,-5e-05,-5e-05,-0.0001,-2e-05,-3e-05,3,28
10202,-0.00013,-0.00013,-5e-05,-5e-05,-5e-05,-0.0001,-2e-05,-3e-05,3,28
10203,-0.00013,-0.00013,-5e-05,-5e-05,-5e-05,-0.0001,-2e-05,-3e-05,3,28
10204,-0.00013,-0.00013,-5e-05,-5e-05,-5e-05,-0.0001,-2e-05,-3e-05,3,28
10205,-0.00013,-0.00013,-5e-05,-5e-05,-5e-05,-0.0001,-2e-05,-3e-05,3,28
10206,-0.00013,-0.00013,-5e-05,-5e-05,-5e-05,-0.0001,-2e-05,-3e-05,3,28
10207,-0.00013,-0.00013,-5e-05,-5e-05,-5e-05,-0.0001,-2e-05,-3e-05,3,28
10208,-0.00013,-0.00013,-5e-05,-5e-05,-5e-05,-0.0001,-2e-05,-3e-05,3,28
10209,-0.00013,-0.00013,-5e-05,-5e-05,-5e-05,-0.0001,-2e-05,-3e-05,3,28
10210,-8e-05,-9e-05,-6e-05,-8e-05,-7e-05,-0.00013,-3e-05,-5e-05,3,28
10211,-8e-05,-9e-05,-6e-05,-8e-05,-7e-05,-0.00013,-3e-05,-5e-05,3,28
10212,-8e-05,-9e-05,-6e-05,-8e-05,-7e-05,-0.00013,-3e-05,-5e-05,3,28
10213,-8e-05,-9e-05,-6e-05,-8e-05,-7e-05,-0.00013,-3e-05,-5e-05,3,28
10214,-8e-05,-9e-05,-6e-05,-8e-05,-7e-05,-0.00013,-3e-05,-5e-05,3,28
10215,-8e-05,-9e-05,-6e-05,-8e-05,-7e-05,-0.00013,-3e-05,-5e-05,3,28
10216,-2e-05,0.00012,2e-05,8e-05,-1e-05,2e-05,3e-05,4e-05,3,28
10217,-2e-05,0.00012,2e-05,8e-05,-1e-05,2e-05,3e-05,4e-05,3,28
10218,-2e-05,0.00012,2e-05,8e-05,-1e-05,2e-05,3e-05,4e-05,3,28
10219,-2e-05,0.00012,2e-05,8e-05,-1e-05,2e-05,3e-05,4e-05,3,28
10220,-2e-05,0.00012,2e-05,8e-05,-1e-05,2e-05,3e-05,4e-05,3,28
10221,-2e-05,0.00012,2e-05,8e-05,-1e-05,2e-05,3e-05,4e-05,3,28
10222,-2e-05,0.00012,2e-05,8e-05,-1e-05,2e-05,3e-05,4e-05,3,28
10223,-2e-05,0.00012,2e-05,8e-05,-1e-05,2e-05,3e-05,4e-05,3,28
10224,-2e-05,0.00012,2e-05,8e-05,-1e-05,2e-05,3e-05,4e-05,3,28
10225,-2e-05,0.00012,2e-05,8e-05,-1e-05,2e-05,3e-05,4e-05,3,28
10226,-2e-05,0.00012,2e-05,8e-05,-1e-05,2e-05,3e-05,4e-05,3,28
10227,-2e-05,0.00012,2e-05,8e-05,-1e-05,2e-05,3e-05,4e-05,3,28
10228,-2e-05,0.00012,2e-05,8e-05,-1e-05,2e-05,3e-05,4e-05,3,28
10229,-2e-05,0.00012,2e-05,8e-05,-1e-05,2e-05,3e-05,4e-05,3,28
10230,-2e-05,0.00012,2e-05,8e-05,-1e-05,2e-05,3e-05,4e-05,3,28
10231,-2e-05,0.00012,2e-05,8e-05,-1e-05,2e-05,3e-05,4e-05,3,28
10232,-2e-05,0.00012,2e-05,8e-05,-1e-05,2e-05,3e-05,4e-05,3,28
10233,-0.00011,-6e-05,-7e-05,-4e-05,-1e-05,0,0,2e-05,3,28
10234,7e-05,6e-05,5e-05,4e-05,0,0.00013,0,-4e-05,3,28
10235,7e-05,6e-05,5e-05,4e-05,0,0.00013,0,-4e-05,3,28
10236,7e-05,6e-05,5e-05,4e-05,0,0.00013,0,-4e-05,3,28
10238,7e-05,6e-05,5e-05,4e-05,0,0.00013,0,-4e-05,3,28
10239,7e-05,6e-05,5e-05,4e-05,0,0.00013,0,-4e-05,3,28
10240,7e-05,6e-05,5e-05,4e-05,0,0.00013,0,-4e-05,3,28
10241,7e-05,6e-05,5e-05,4e-05,0,0.00013,0,-4e-05,3,28
10242,7e-05,6e-05,5e-05,4e-05,0,0.00013,0,-4e-05,3,28
10243,7e-05,6e-05,5e-05,4e-05,0,0.00013,0,-4e-05,3,28
10244,7e-05,6e-05,5e-05,4e-05,0,0.00013,0,-4e-05,3,28
10246,7e-05,6e-05,5e-05,4e-05,0,0.00013,0,-4e-05,3,28
10247,7e-05,6e-05,5e-05,4e-05,0,0.00013,0,-4e-05,3,28
10248,7e-05,6e-05,5e-05,4e-05,0,0.00013,0,-4e-05,3,28
10249,7e-05,6e-05,5e-05,4e-05,0,0.00013,0,-4e-05,3,28
10250,7e-05,6e-05,5e-05,4e-05,0,0.00013,0,-4e-05,3,28
10251,7e-05,6e-05,5e-05,4e-05,0,0.00013,0,-4e-05,3,28
10252,7e-05,6e-05,5e-05,4e-05,0,0.00013,0,-4e-05,3,28
10253,7e-05,6e-05,5e-05,4e-05,0,0.00013,0,-4e-05,3,28
10254,7e-05,6e-05,5e-05,4e-05,0,0.00013,0,-4e-05,3,28
10255,7e-05,6e-05,5e-05,4e-05,0,0.00013,0,-4e-05,3,28
10256,4e-05,-2e-05,-5e-05,3e-05,-4e-05,-8e-05,3e-05,0,3,28
10257,-6e-05,3e-05,-3e-05,-3e-05,-2e-05,-7e-05,-2e-05,2e-05,3,28
10258,-6e-05,3e-05,-3e-05,-3e-05,-2e-05,-7e-05,-2e-05,2e-05,3,28
10259,-6e-05,3e-05,-3e-05,-3e-05,-2e-05,-7e-05,-2e-05,2e-05,3,28
10260,-6e-05,3e-05,-3e-05,-3e-05,-2e-05,-7e-05,-2e-05,2e-05,3,28
10261,-6e-05,3e-05,-3e-05,-3e-05,-2e-05,-7e-05,-2e-05,2e-05,3,28
10262,-6e-05,3e-05,-3e-05,-3e-05,-2e-05,-7e-05,-2e-05,2e-05,3,28
10263,-6e-05,3e-05,-3e-05,-3e-05,-2e-05,-7e-05,-2e-05,2e-05,3,28
10264,-6e-05,3e-05,-3e-05,-3e-05,-2e-05,-7e-05,-2e-05,2e-05,3,28
10265,-6e-05,3e-05,-3e-05,-3e-05,-2e-05,-7e-05,-2e-05,2e-05,3,28
10266,-6e-05,3e-05,-3e-05,-3e-05,-2e-05,-7e-05,-2e-05,2e-05,3,28
10267,-6e-05,3e-05,-3e-05,-3e-05,-2e-05,-7e-05,-2e-05,2e-05,3,28
10268,-6e-05,3e-05,-3e-05,-3e-05,-2e-05,-7e-05,-2e-05,2e-05,3,28
10269,0,-0.0001,-2e-05,-1e-05,-1e-05,-3e-05,-3e-05,-4e-05,3,28
10270,0,-0.0001,-2e-05,-1e-05,-1e-05,-3e-05,-3e-05,-4e-05,3,28
10271,0,-0.0001,-2e-05,-1e-05,-1e-05,-3e-05,-3e-05,-4e-05,3,28
10272,0,-0.0001,-2e-05,-1e-05,-1e-05,-3e-05,-3e-05,-4e-05,3,28
10273,0,-0.0001,-2e-05,-1e-05,-1e-05,-3e-05,-3e-05,-4e-05,3,28
10274,0,-0.0001,-2e-05,-1e-05,-1e-05,-3e-05,-3e-05,-4e-05,3,28
10275,0,-0.0001,-2e-05,-1e-05,-1e-05,-3e-05,-3e-05,-4e-05,3,28
10276,0,-0.0001,-2e-05,-1e-05,-1e-05,-3e-05,-3e-05,-4e-05,3,28
36840,-7e-05,7e-05,-0.00013,-1e-05,-3e-05,-5e-05,-6e-05,-0.00012,3,28
36841,-7e-05,7e-05,-0.00013,-1e-05,-3e-05,-5e-05,-6e-05,-0.00012,3,28
36842,-7e-05,7e-05,-0.00013,-1e-05,-3e-05,-5e-05,-6e-05,-0.00012,3,28
36843,-2e-05,1e-05,0,-3e-05,-9e-05,-4e-05,4e-05,8e-05,3,28
36844,-1e-05,-2e-05,0.00012,5e-05,3e-05,-3e-05,2e-05,-1e-05,3,28
36845,9e-05,0.00015,-0.00022,0,6e-05,4e-05,1e-05,-0.00023,3,28
36846,9e-05,0.00015,-0.00022,0,6e-05,4e-05,1e-05,-0.00023,3,28
36847,9e-05,0.00015,-0.00022,0,6e-05,4e-05,1e-05,-0.00023,3,28
36848,9e-05,0.00015,-0.00022,0,6e-05,4e-05,1e-05,-0.00023,3,28
36849,9e-05,0.00015,-0.00022,0,6e-05,4e-05,1e-05,-0.00023,3,28
36850,9e-05,0.00015,-0.00022,0,6e-05,4e-05,1e-05,-0.00023,3,28
36851,9e-05,0.00015,-0.00022,0,6e-05,4e-05,1e-05,-0.00023,3,28
36852,9e-05,0.00015,-0.00022,0,6e-05,4e-05,1e-05,-0.00023,3,28
36853,9e-05,0.00015,-0.00022,0,6e-05,4e-05,1e-05,-0.00023,3,28
36854,9e-05,0.00015,-0.00022,0,6e-05,4e-05,1e-05,-0.00023,3,28
36855,9e-05,0.00015,-0.00022,0,6e-05,4e-05,1e-05,-0.00023,3,28
36856,9e-05,0.00015,-0.00022,0,6e-05,4e-05,1e-05,-0.00023,3,28
36857,9e-05,0.00015,-0.00022,0,6e-05,4e-05,1e-05,-0.00023,3,28
36858,9e-05,0.00015,-0.00022,0,6e-05,4e-05,1e-05,-0.00023,3,28
36859,9e-05,0.00015,-0.00022,0,6e-05,4e-05,1e-05,-0.00023,3,28
36860,9e-05,0.00015,-0.00022,0,6e-05,4e-05,1e-05,-0.00023,3,28
36861,9e-05,0.00015,-0.00022,0,6e-05,4e-05,1e-05,-0.00023,3,28
36862,9e-05,0.00015,-0.00022,0,6e-05,4e-05,1e-05,-0.00023,3,28
36863,9e-05,0.00015,-0.00022,0,6e-05,4e-05,1e-05,-0.00023,3,28
36864,9e-05,0.00015,-0.00022,0,6e-05,4e-05,1e-05,-0.00023,3,28
36865,9e-05,0.00015,-0.00022,0,6e-05,4e-05,1e-05,-0.00023,3,28
36866,0,3e-05,5e-05,0,1e-05,-2e-05,-0.0001,-9e-05,3,28
36867,0,3e-05,5e-05,0,1e-05,-2e-05,-0.0001,-9e-05,3,28
36868,2e-05,1e-05,2e-05,0,6e-05,-2e-05,-0.0001,-0.00013,3,28
36869,2e-05,1e-05,2e-05,0,6e-05,-2e-05,-0.0001,-0.00013,3,28
36870,2e-05,1e-05,2e-05,0,6e-05,-2e-05,-0.0001,-0.00013,3,28
36871,2e-05,1e-05,2e-05,0,6e-05,-2e-05,-0.0001,-0.00013,3,28
36872,2e-05,1e-05,2e-05,0,6e-05,-2e-05,-0.0001,-0.00013,3,28
36873,2e-05,1e-05,2e-05,0,6e-05,-2e-05,-0.0001,-0.00013,3,28
36874,2e-05,1e-05,2e-05,0,6e-05,-2e-05,-0.0001,-0.00013,3,28
36875,2e-05,1e-05,2e-05,0,6e-05,-2e-05,-0.0001,-0.00013,3,28
36876,2e-05,1e-05,2e-05,0,6e-05,-2e-05,-0.0001,-0.00013,3,28
36877,2e-05,1e-05,2e-05,0,6e-05,-2e-05,-0.0001,-0.00013,3,28
36878,2e-05,1e-05,2e-05,0,6e-05,-2e-05,-0.0001,-0.00013,3,28
36879,2e-05,1e-05,2e-05,0,6e-05,-2e-05,-0.0001,-0.00013,3,28
36880,-0.00019,-2e-05,-3e-05,6e-05,0.00015,7e-05,6e-05,0,3,28
36881,-0.00019,-2e-05,-3e-05,6e-05,0.00015,7e-05,6e-05,0,3,28
36882,-0.00019,-2e-05,-3e-05,6e-05,0.00015,7e-05,6e-05,0,3,28
36883,-0.00019,-2e-05,-3e-05,6e-05,0.00015,7e-05,6e-05,0,3,28
36884,-0.00019,-2e-05,-3e-05,6e-05,0.00015,7e-05,6e-05,0,3,28
36885,-0.00019,-2e-05,-3e-05,6e-05,0.00015,7e-05,6e-05,0,3,28
36886,-0.00019,-2e-05,-3e-05,6e-05,0.00015,7e-05,6e-05,0,3,28
36888,-0.00019,-2e-05,-3e-05,6e-05,0.00015,7e-05,6e-05,0,3,28
36889,-0.00019,-2e-05,-3e-05,6e-05,0.00015,7e-05,6e-05,0,3,28
36890,-0.00019,-2e-05,-3e-05,6e-05,0.00015,7e-05,6e-05,0,3,28
36891,-0.00019,-2e-05,-3e-05,6e-05,0.00015,7e-05,6e-05,0,3,28
36892,-0.00019,-2e-05,-3e-05,6e-05,0.00015,7e-05,6e-05,0,3,28
36893,-0.00019,-2e-05,-3e-05,6e-05,0.00015,7e-05,6e-05,0,3,28
36894,-0.00019,-2e-05,-3e-05,6e-05,0.00015,7e-05,6e-05,0,3,28
36895,-0.00019,-2e-05,-3e-05,6e-05,0.00015,7e-05,6e-05,0,3,28
36896,-5e-05,-0.00014,-5e-05,-3e-05,0,-3e-05,3e-05,-0.00033,3,28
36897,-5e-05,-0.00014,-5e-05,-3e-05,0,-3e-05,3e-05,-0.00033,3,28
36898,-5e-05,-0.00014,-5e-05,-3e-05,0,-3e-05,3e-05,-0.00033,3,28
36899,-5e-05,-0.00014,-5e-05,-3e-05,0,-3e-05,3e-05,-0.00033,3,28
36900,-5e-05,-0.00014,-5e-05,-3e-05,0,-3e-05,3e-05,-0.00033,3,28
36901,-5e-05,-0.00014,-5e-05,-3e-05,0,-3e-05,3e-05,-0.00033,3,28
36902,-5e-05,-0.00014,-5e-05,-3e-05,0,-3e-05,3e-05,-0.00033,3,28
36903,1e-05,-4e-05,0.0001,-1e-05,0.00012,-1e-05,6e-05,0.00021,3,28
36904,1e-05,-4e-05,0.0001,-1e-05,0.00012,-1e-05,6e-05,0.00021,3,28
36905,-4e-05,0.00011,-0.00012,-4e-05,6e-05,-5e-05,0.00011,0.00027,3,28
36907,-9e-05,6e-05,4e-05,-3e-05,-3e-05,-2e-05,-4e-05,-7e-05,3,28
36908,-9e-05,6e-05,4e-05,-3e-05,-3e-05,-2e-05,-4e-05,-7e-05,3,28
36909,-9e-05,6e-05,4e-05,-3e-05,-3e-05,-2e-05,-4e-05,-7e-05,3,28
36910,-9e-05,6e-05,4e-05,-3e-05,-3e-05,-2e-05,-4e-05,-7e-05,3,28
36911,-9e-05,6e-05,4e-05,-3e-05,-3e-05,-2e-05,-4e-05,-7e-05,3,28
36912,-9e-05,6e-05,4e-05,-3e-05,-3e-05,-2e-05,-4e-05,-7e-05,3,28
36913,-9e-05,6e-05,4e-05,-3e-05,-3e-05,-2e-05,-4e-05,-7e-05,3,28
36914,-9e-05,6e-05,4e-05,-3e-05,-3e-05,-2e-05,-4e-05,-7e-05,3,28
36915,-9e-05,6e-05,4e-05,-3e-05,-3e-05,-2e-05,-4e-05,-7e-05,3,28
36916,-9e-05,6e-05,4e-05,-3e-05,-3e-05,-2e-05,-4e-05,-7e-05,3,28
36917,-9e-05,6e-05,4e-05,-3e-05,-3e-05,-2e-05,-4e-05,-7e-05,3,28
36918,-9e-05,6e-05,4e-05,-3e-05,-3e-05,-2e-05,-4e-05,-7e-05,3,28
36919,-9e-05,6e-05,4e-05,-3e-05,-3e-05,-2e-05,-4e-05,-7e-05,3,28
36920,-9e-05,6e-05,4e-05,-3e-05,-3e-05,-2e-05,-4e-05,-7e-05,3,28
36921,-9e-05,6e-05,4e-05,-3e-05,-3e-05,-2e-05,-4e-05,-7e-05,3,28
36922,-9e-05,6e-05,4e-05,-3e-05,-3e-05,-2e-05,-4e-05,-7e-05,3,28
36923,-9e-05,6e-05,4e-05,-3e-05,-3e-05,-2e-05,-4e-05,-7e-05,3,28
36924,-9e-05,6e-05,4e-05,-3e-05,-3e-05,-2e-05,-4e-05,-7e-05,3,28
36925,-9e-05,6e-05,4e-05,-3e-05,-3e-05,-2e-05,-4e-05,-7e-05,3,28
36926,-3e-05,-6e-05,-1e-05,-3e-05,1e-05,2e-05,-1e-05,0.00019,3,28
36927,0.00016,7e-05,-6e-05,0,-7e-05,-4e-05,1e-05,0.00022,3,28
36928,4e-05,0,7e-05,-4e-05,-8e-05,-8e-05,-6e-05,0.00019,3,28
36929,4e-05,0,7e-05,-4e-05,-8e-05,-8e-05,-6e-05,0.00019,3,28
36930,4e-05,0,7e-05,-4e-05,-8e-05,-8e-05,-6e-05,0.00019,3,28
36931,4e-05,0,7e-05,-4e-05,-8e-05,-8e-05,-6e-05,0.00019,3,28
36932,4e-05,0,7e-05,-4e-05,-8e-05,-8e-05,-6e-05,0.00019,3,28
36933,4e-05,0,7e-05,-4e-05,-8e-05,-8e-05,-6e-05,0.00019,3,28
36934,4e-05,0,7e-05,-4e-05,-8e-05,-8e-05,-6e-05,0.00019,3,28
36935,4e-05,0,7e-05,-4e-05,-8e-05,-8e-05,-6e-05,0.00019,3,28
36937,4e-05,0,7e-05,-4e-05,-8e-05,-8e-05,-6e-05,0.00019,3,28
36939,4e-05,0,7e-05,-4e-05,-8e-05,-8e-05,-6e-05,0.00019,3,28
36940,5e-05,-3e-05,-0.00023,2e-05,-3e-05,2e-05,-4e-05,-4e-05,3,28
36941,5e-05,-3e-05,-0.00023,2e-05,-3e-05,2e-05,-4e-05,-4e-05,3,28
36942,5e-05,-3e-05,-0.00023,2e-05,-3e-05,2e-05,-4e-05,-4e-05,3,28
36943,5e-05,-3e-05,-0.00023,2e-05,-3e-05,2e-05,-4e-05,-4e-05,3,28
36944,5e-05,-3e-05,-0.00023,2e-05,-3e-05,2e-05,-4e-05,-4e-05,3,28
36945,5e-05,-3e-05,-0.00023,2e-05,-3e-05,2e-05,-4e-05,-4e-05,3,28
36946,5e-05,-3e-05,-0.00023,2e-05,-3e-05,2e-05,-4e-05,-4e-05,3,28
36947,5e-05,-3e-05,-0.00023,2e-05,-3e-05,2e-05,-4e-05,-4e-05,3,28
36948,5e-05,-3e-05,-0.00023,2e-05,-3e-05,2e-05,-4e-05,-4e-05,3,28
36949,-3e-05,-3e-05,-3e-05,3e-05,0,0,0,-2e-05,3,28
36950,-3e-05,-3e-05,-3e-05,3e-05,0,0,0,-2e-05,3,28
36951,-3e-05,-3e-05,-3e-05,3e-05,0,0,0,-2e-05,3,28
36952,-3e-05,-3e-05,-3e-05,3e-05,0,0,0,-2e-05,3,28
36953,-3e-05,-3e-05,-3e-05,3e-05,0,0,0,-2e-05,3,28
36954,-3e-05,-3e-05,-3e-05,3e-05,0,0,0,-2e-05,3,28
36955,-3e-05,-3e-05,-3e-05,3e-05,0,0,0,-2e-05,3,28
36956,-3e-05,-3e-05,-3e-05,3e-05,0,0,0,-2e-05,3,28
36957,-3e-05,-3e-05,-3e-05,3e-05,0,0,0,-2e-05,3,28
36958,-3e-05,-3e-05,-3e-05,3e-05,0,0,0,-2e-05,3,28
36959,-3e-05,-3e-05,-3e-05,3e-05,0,0,0,-2e-05,3,28
36960,-3e-05,-3e-05,-3e-05,3e-05,0,0,0,-2e-05,3,28
36961,-3e-05,-3e-05,-3e-05,3e-05,0,0,0,-2e-05,3,28
36962,-3e-05,-3e-05,-3e-05,3e-05,0,0,0,-2e-05,3,28
36963,-3e-05,-3e-05,-3e-05,3e-05,0,0,0,-2e-05,3,28
36964,-0.00017,0,-8e-05,-4e-05,3e-05,-6e-05,-8e-05,-0.00017,3,28
36965,5e-05,4e-05,4e-05,1e-05,-1e-05,1e-05,3e-05,0.00015,3,28
36966,5e-05,4e-05,4e-05,1e-05,-1e-05,1e-05,3e-05,0.00015,3,28
36967,5e-05,4e-05,4e-05,1e-05,-1e-05,1e-05,3e-05,0.00015,3,28
36968,5e-05,4e-05,4e-05,1e-05,-1e-05,1e-05,3e-05,0.00015,3,28
36969,5e-05,4e-05,4e-05,1e-05,-1e-05,1e-05,3e-05,0.00015,3,28
36970,5e-05,4e-05,4e-05,1e-05,-1e-05,1e-05,3e-05,0.00015,3,28
36971,5e-05,4e-05,4e-05,1e-05,-1e-05,1e-05,3e-05,0.00015,3,28
36972,5e-05,4e-05,4e-05,1e-05,-1e-05,1e-05,3e-05,0.00015,3,28
36973,5e-05,4e-05,4e-05,1e-05,-1e-05,1e-05,3e-05,0.00015,3,28
36974,5e-05,4e-05,4e-05,1e-05,-1e-05,1e-05,3e-05,0.00015,3,28
36975,5e-05,4e-05,4e-05,1e-05,-1e-05,1e-05,3e-05,0.00015,3,28
36976,5e-05,4e-05,4e-05,1e-05,-1e-05,1e-05,3e-05,0.00015,3,28
36977,5e-05,4e-05,4e-05,1e-05,-1e-05,1e-05,3e-05,0.00015,3,28
36978,5e-05,4e-05,4e-05,1e-05,-1e-05,1e-05,3e-05,0.00015,3,28
36979,5e-05,4e-05,4e-05,1e-05,-1e-05,1e-05,3e-05,0.00015,3,28
36980,5e-05,4e-05,4e-05,1e-05,-1e-05,1e-05,3e-05,0.00015,3,28
36981,5e-05,4e-05,4e-05,1e-05,-1e-05,1e-05,3e-05,0.00015,3,28
36982,5e-05,4e-05,4e-05,1e-05,-1e-05,1e-05,3e-05,0.00015,3,28
36983,5e-05,4e-05,4e-05,1e-05,-1e-05,1e-05,3e-05,0.00015,3,28
36984,5e-05,4e-05,4e-05,1e-05,-1e-05,1e-05,3e-05,0.00015,3,28
36985,5e-05,4e-05,4e-05,1e-05,-1e-05,1e-05,3e-05,0.00015,3,28
36987,0,7e-05,4e-05,-1e-05,2e-05,4e-05,-9e-05,-0.00025,3,28
36989,-4e-05,0,-2e-05,3e-05,5e-05,1e-05,7e-05,8e-05,3,28
36990,-4e-05,0,-2e-05,3e-05,5e-05,1e-05,7e-05,8e-05,3,28
36991,-4e-05,0,-2e-05,3e-05,5e-05,1e-05,7e-05,8e-05,3,28
36992,-4e-05,0,-2e-05,3e-05,5e-05,1e-05,7e-05,8e-05,3,28
36993,-4e-05,0,-2e-05,3e-05,5e-05,1e-05,7e-05,8e-05,3,28
36994,-4e-05,0,-2e-05,3e-05,5e-05,1e-05,7e-05,8e-05,3,28
36995,-4e-05,0,-2e-05,3e-05,5e-05,1e-05,7e-05,8e-05,3,28
36996,-4e-05,0,-2e-05,3e-05,5e-05,1e-05,7e-05,8e-05,3,28
36997,-4e-05,0,-2e-05,3e-05,5e-05,1e-05,7e-05,8e-05,3,28
36998,-4e-05,0,-2e-05,3e-05,5e-05,1e-05,7e-05,8e-05,3,28
36999,-4e-05,0,-2e-05,3e-05,5e-05,1e-05,7e-05,8e-05,3,28
37000,-4e-05,0,-2e-05,3e-05,5e-05,1e-05,7e-05,8e-05,3,28
37001,-4e-05,0,-2e-05,3e-05,5e-05,1e-05,7e-05,8e-05,3,28
37002,-4e-05,0,-2e-05,3e-05,5e-05,1e-05,7e-05,8e-05,3,28
37003,-4e-05,0,-2e-05,3e-05,5e-05,1e-05,7e-05,8e-05,3,28
37004,-4e-05,0,-2e-05,3e-05,5e-05,1e-05,7e-05,8e-05,3,28
37005,-4e-05,0,-2e-05,3e-05,5e-05,1e-05,7e-05,8e-05,3,28
37006,-4e-05,0,-2e-05,3e-05,5e-05,1e-05,7e-05,8e-05,3,28
37007,-4e-05,0,-2e-05,3e-05,5e-05,1e-05,7e-05,8e-05,3,28
37008,-3e-05,5e-05,-7e-05,2e-05,1e-05,-5e-05,-2e-05,4e-05,3,28
37009,-3e-05,4e-05,0.0002,2e-05,0,0,5e-05,-4e-05,3,28
37010,1e-05,-7e-05,-0.00019,-5e-05,-3e-05,1e-05,5e-05,9e-05,3,28
37011,-1e-05,5e-05,0.00014,-4e-05,-4e-05,-3e-05,-3e-05,-6e-05,3,28
37012,-1e-05,5e-05,0.00014,-4e-05,-4e-05,-3e-05,-3e-05,-6e-05,3,28
37013,-1e-05,5e-05,0.00014,-4e-05,-4e-05,-3e-05,-3e-05,-6e-05,3,28
37014,-1e-05,5e-05,0.00014,-4e-05,-4e-05,-3e-05,-3e-05,-6e-05,3,28
37015,-1e-05,5e-05,0.00014,-4e-05,-4e-05,-3e-05,-3e-05,-6e-05,3,28
37016,-1e-05,5e-05,0.00014,-4e-05,-4e-05,-3e-05,-3e-05,-6e-05,3,28
37017,-1e-05,5e-05,0.00014,-4e-05,-4e-05,-3e-05,-3e-05,-6e-05,3,28
37018,-1e-05,5e-05,0.00014,-4e-05,-4e-05,-3e-05,-3e-05,-6e-05,3,28
37019,-1e-05,5e-05,0.00014,-4e-05,-4e-05,-3e-05,-3e-05,-6e-05,3,28
37020,-1e-05,5e-05,0.00014,-4e-05,-4e-05,-3e-05,-3e-05,-6e-05,3,28
37021,-1e-05,5e-05,0.00014,-4e-05,-4e-05,-3e-05,-3e-05,-6e-05,3,28
37022,-1e-05,5e-05,0.00014,-4e-05,-4e-05,-3e-05,-3e-05,-6e-05,3,28
37023,-2e-05,-0.0001,1e-05,-5e-05,-1e-05,0.00017,3e-05,0.00012,3,28
37024,-1e-05,-7e-05,2e-05,-2e-05,8e-05,-7e-05,0,-5e-05,3,28
37025,-1e-05,0,-2e-05,2e-05,-2e-05,4e-05,9e-05,0.0001,3,28
37026,-1e-05,0,-2e-05,2e-05,-2e-05,4e-05,9e-05,0.0001,3,28
37027,-1e-05,0,-2e-05,2e-05,-2e-05,4e-05,9e-05,0.0001,3,28
37028,-1e-05,0,-2e-05,2e-05,-2e-05,4e-05,9e-05,0.0001,3,28
37029,-1e-05,0,-2e-05,2e-05,-2e-05,4e-05,9e-05,0.0001,3,28
37030,-1e-05,0,-2e-05,2e-05,-2e-05,4e-05,9e-05,0.0001,3,28
37031,-1e-05,0,-2e-05,2e-05,-2e-05,4e-05,9e-05,0.0001,3,28
37032,-1e-05,0,-2e-05,2e-05,-2e-05,4e-05,9e-05,0.0001,3,28
37033,-1e-05,0,-2e-05,2e-05,-2e-05,4e-05,9e-05,0.0001,3,28
37034,-1e-05,0,-2e-05,2e-05,-2e-05,4e-05,9e-05,0.0001,3,28
37035,-1e-05,0,-2e-05,2e-05,-2e-05,4e-05,9e-05,0.0001,3,28
37036,-1e-05,0,-2e-05,2e-05,-2e-05,4e-05,9e-05,0.0001,3,28
37039,-1e-05,0,-2e-05,2e-05,-2e-05,4e-05,9e-05,0.0001,3,28
37040,-1e-05,0,-2e-05,2e-05,-2e-05,4e-05,9e-05,0.0001,3,28
37041,-1e-05,0,-2e-05,2e-05,-2e-05,4e-05,9e-05,0.0001,3,28
37042,-1e-05,0,-2e-05,2e-05,-2e-05,4e-05,9e-05,0.0001,3,28
37043,-1e-05,0,-2e-05,2e-05,-2e-05,4e-05,9e-05,0.0001,3,28
37044,-1e-05,0,-2e-05,2e-05,-2e-05,4e-05,9e-05,0.0001,3,28
37045,-1e-05,0,-2e-05,2e-05,-2e-05,4e-05,9e-05,0.0001,3,28
37046,3e-05,0.00018,0.0001,0,0,5e-05,2e-05,0.00024,3,28
37047,3e-05,0.00018,0.0001,0,0,5e-05,2e-05,0.00024,3,28
37048,-1e-05,-6e-05,-4e-05,-3e-05,-4e-05,-6e-05,-0.00011,4e-05,3,28
37049,-1e-05,-6e-05,-4e-05,-3e-05,-4e-05,-6e-05,-0.00011,4e-05,3,28
37050,-1e-05,-6e-05,-4e-05,-3e-05,-4e-05,-6e-05,-0.00011,4e-05,3,28
37051,-1e-05,-6e-05,-4e-05,-3e-05,-4e-05,-6e-05,-0.00011,4e-05,3,28
37052,-1e-05,-6e-05,-4e-05,-3e-05,-4e-05,-6e-05,-0.00011,4e-05,3,28
37053,-1e-05,-6e-05,-4e-05,-3e-05,-4e-05,-6e-05,-0.00011,4e-05,3,28
37054,-1e-05,-6e-05,-4e-05,-3e-05,-4e-05,-6e-05,-0.00011,4e-05,3,28
37055,-1e-05,-6e-05,-4e-05,-3e-05,-4e-05,-6e-05,-0.00011,4e-05,3,28
37056,-1e-05,-6e-05,-4e-05,-3e-05,-4e-05,-6e-05,-0.00011,4e-05,3,28
37057,-1e-05,-6e-05,-4e-05,-3e-05,-4e-05,-6e-05,-0.00011,4e-05,3,28
37058,-1e-05,-6e-05,-4e-05,-3e-05,-4e-05,-6e-05,-0.00011,4e-05,3,28
37059,4e-05,-4e-05,1e-05,-2e-05,-4e-05,-8e-05,-0.0001,-0.00011,3,28
37060,-5e-05,-0.0001,-0.00018,-6e-05,1e-05,9e-05,3e-05,-0.00014,3,28
37061,-5e-05,-0.0001,-0.00018,-6e-05,1e-05,9e-05,3e-05,-0.00014,3,28
37062,-5e-05,-0.0001,-0.00018,-6e-05,1e-05,9e-05,3e-05,-0.00014,3,28
37063,-5e-05,-0.0001,-0.00018,-6e-05,1e-05,9e-05,3e-05,-0.00014,3,28
37064,-5e-05,-0.0001,-0.00018,-6e-05,1e-05,9e-05,3e-05,-0.00014,3,28
37065,-5e-05,-0.0001,-0.00018,-6e-05,1e-05,9e-05,3e-05,-0.00014,3,28
37066,-5e-05,-0.0001,-0.00018,-6e-05,1e-05,9e-05,3e-05,-0.00014,3,28
37067,-5e-05,-0.0001,-0.00018,-6e-05,1e-05,9e-05,3e-05,-0.00014,3,28
37068,-5e-05,-0.0001,-0.00018,-6e-05,1e-05,9e-05,3e-05,-0.00014,3,28
37069,-0.00014,-4e-05,-3e-05,0,3e-05,-4e-05,-0.00012,-0.00036,3,28
37070,-0.00014,-4e-05,-3e-05,0,3e-05,-4e-05,-0.00012,-0.00036,3,28
37071,-0.00014,-4e-05,-3e-05,0,3e-05,-4e-05,-0.00012,-0.00036,3,28
37072,-0.00014,-4e-05,-3e-05,0,3e-05,-4e-05,-0.00012,-0.00036,3,28
37073,-0.00014,-4e-05,-3e-05,0,3e-05,-4e-05,-0.00012,-0.00036,3,28
37074,-0.00014,-4e-05,-3e-05,0,3e-05,-4e-05,-0.00012,-0.00036,3,28
37075,-0.00014,-4e-05,-3e-05,0,3e-05,-4e-05,-0.00012,-0.00036,3,28
37076,-0.00014,-4e-05,-3e-05,0,3e-05,-4e-05,-0.00012,-0.00036,3,28
37077,-0.00014,-4e-05,-3e-05,0,3e-05,-4e-05,-0.00012,-0.00036,3,28
37078,-0.00014,-4e-05,-3e-05,0,3e-05,-4e-05,-0.00012,-0.00036,3,28
37079,-0.00014,-4e-05,-3e-05,0,3e-05,-4e-05,-0.00012,-0.00036,3,28
37080,-0.00014,-4e-05,-3e-05,0,3e-05,-4e-05,-0.00012,-0.00036,3,28
37081,-0.00014,-4e-05,-3e-05,0,3e-05,-4e-05,-0.00012,-0.00036,3,28
37082,-0.00014,-4e-05,-3e-05,0,3e-05,-4e-05,-0.00012,-0.00036,3,28
37083,-0.00014,-4e-05,-3e-05,0,3e-05,-4e-05,-0.00012,-0.00036,3,28
37084,-3e-05,-4e-05,0,3e-05,-6e-05,-1e-05,-3e-05,-8e-05,3,28
37085,-1e-05,-1e-05,-0.00015,-2e-05,-9e-05,-7e-05,-6e-05,-0.00019,3,28
37086,8e-05,-0.00011,0.00012,1e-05,-1e-05,-8e-05,5e-05,0.00026,3,28
37088,8e-05,-0.00011,0.00012,1e-05,-1e-05,-8e-05,5e-05,0.00026,3,28
37089,8e-05,-0.00011,0.00012,1e-05,-1e-05,-8e-05,5e-05,0.00026,3,28
37090,8e-05,-0.00011,0.00012,1e-05,-1e-05,-8e-05,5e-05,0.00026,3,28
37091,8e-05,-0.00011,0.00012,1e-05,-1e-05,-8e-05,5e-05,0.00026,3,28
37092,8e-05,-0.00011,0.00012,1e-05,-1e-05,-8e-05,5e-05,0.00026,3,28
37093,8e-05,-0.00011,0.00012,1e-05,-1e-05,-8e-05,5e-05,0.00026,3,28
37094,8e-05,-0.00011,0.00012,1e-05,-1e-05,-8e-05,5e-05,0.00026,3,28
37095,8e-05,-0.00011,0.00012,1e-05,-1e-05,-8e-05,5e-05,0.00026,3,28
37096,8e-05,-0.00011,0.00012,1e-05,-1e-05,-8e-05,5e-05,0.00026,3,28
37097,8e-05,-0.00011,0.00012,1e-05,-1e-05,-8e-05,5e-05,0.00026,3,28
37098,8e-05,-0.00011,0.00012,1e-05,-1e-05,-8e-05,5e-05,0.00026,3,28
37099,8e-05,-0.00011,0.00012,1e-05,-1e-05,-8e-05,5e-05,0.00026,3,28
37100,8e-05,-0.00011,0.00012,1e-05,-1e-05,-8e-05,5e-05,0.00026,3,28
37101,8e-05,-0.00011,0.00012,1e-05,-1e-05,-8e-05,5e-05,0.00026,3,28
37102,8e-05,-0.00011,0.00012,1e-05,-1e-05,-8e-05,5e-05,0.00026,3,28
37103,8e-05,-0.00011,0.00012,1e-05,-1e-05,-8e-05,5e-05,0.00026,3,28
37104,8e-05,-0.00011,0.00012,1e-05,-1e-05,-8e-05,5e-05,0.00026,3,28
37105,8e-05,-0.00011,0.00012,1e-05,-1e-05,-8e-05,5e-05,0.00026,3,28
37106,8e-05,-0.00011,0.00012,1e-05,-1e-05,-8e-05,5e-05,0.00026,3,28
37107,8e-05,-0.00011,0.00012,1e-05,-1e-05,-8e-05,5e-05,0.00026,3,28
37108,8e-05,-0.00011,0.00012,1e-05,-1e-05,-8e-05,5e-05,0.00026,3,28
37109,8e-05,-0.00011,0.00012,1e-05,-1e-05,-8e-05,5e-05,0.00026,3,28
37110,8e-05,-0.00011,0.00012,1e-05,-1e-05,-8e-05,5e-05,0.00026,3,28
37111,8e-05,-0.00011,0.00012,1e-05,-1e-05,-8e-05,5e-05,0.00026,3,28
37112,8e-05,-0.00011,0.00012,1e-05,-1e-05,-8e-05,5e-05,0.00026,3,28
37113,-1e-05,4e-05,-0.00016,0,9e-05,4e-05,9e-05,0.00025,3,28
37114,8e-05,3e-05,0.00011,1e-05,0,-6e-05,-0.00011,-4e-05,3,28
37115,4e-05,4e-05,-4e-05,-3e-05,-5e-05,-1e-05,0,-5e-05,3,28
37116,4e-05,4e-05,-4e-05,-3e-05,-5e-05,-1e-05,0,-5e-05,3,28
37117,4e-05,4e-05,-4e-05,-3e-05,-5e-05,-1e-05,0,-5e-05,3,28
37118,4e-05,4e-05,-4e-05,-3e-05,-5e-05,-1e-05,0,-5e-05,3,28
37119,4e-05,4e-05,-4e-05,-3e-05,-5e-05,-1e-05,0,-5e-05,3,28
37120,-1e-05,-0.00032,-0.00013,-2e-05,1e-05,-2e-05,3e-05,0.00015,3,28
37121,-1e-05,-0.00032,-0.00013,-2e-05,1e-05,-2e-05,3e-05,0.00015,3,28
37122,-1e-05,-0.00032,-0.00013,-2e-05,1e-05,-2e-05,3e-05,0.00015,3,28
37123,-1e-05,-0.00032,-0.00013,-2e-05,1e-05,-2e-05,3e-05,0.00015,3,28
37124,-1e-05,-0.00032,-0.00013,-2e-05,1e-05,-2e-05,3e-05,0.00015,3,28
37125,-1e-05,-0.00032,-0.00013,-2e-05,1e-05,-2e-05,3e-05,0.00015,3,28
37126,-1e-05,-0.00032,-0.00013,-2e-05,1e-05,-2e-05,3e-05,0.00015,3,28
37127,-1e-05,-0.00032,-0.00013,-2e-05,1e-05,-2e-05,3e-05,0.00015,3,28
37128,-1e-05,-0.00032,-0.00013,-2e-05,1e-05,-2e-05,3e-05,0.00015,3,28
37129,-1e-05,-0.00032,-0.00013,-2e-05,1e-05,-2e-05,3e-05,0.00015,3,28
37130,-1e-05,-0.00032,-0.00013,-2e-05,1e-05,-2e-05,3e-05,0.00015,3,28
37131,-1e-05,-0.00032,-0.00013,-2e-05,1e-05,-2e-05,3e-05,0.00015,3,28
37132,-1e-05,-0.00032,-0.00013,-2e-05,1e-05,-2e-05,3e-05,0.00015,3,28
37133,-1e-05,-0.00032,-0.00013,-2e-05,1e-05,-2e-05,3e-05,0.00015,3,28
37134,-1e-05,-0.00032,-0.00013,-2e-05,1e-05,-2e-05,3e-05,0.00015,3,28
37135,-1e-05,-0.00032,-0.00013,-2e-05,1e-05,-2e-05,3e-05,0.00015,3,28
37136,-1e-05,-0.00032,-0.00013,-2e-05,1e-05,-2e-05,3e-05,0.00015,3,28
37138,-1e-05,-0.00032,-0.00013,-2e-05,1e-05,-2e-05,3e-05,0.00015,3,28
37140,-1e-05,-0.00032,-0.00013,-2e-05,1e-05,-2e-05,3e-05,0.00015,3,28
37141,-1e-05,-0.00032,-0.00013,-2e-05,1e-05,-2e-05,3e-05,0.00015,3,28
37142,-1e-05,-0.00032,-0.00013,-2e-05,1e-05,-2e-05,3e-05,0.00015,3,28
37143,-1e-05,-0.00032,-0.00013,-2e-05,1e-05,-2e-05,3e-05,0.00015,3,28
37144,-7e-05,3e-05,1e-05,-4e-05,-6e-05,-8e-05,-9e-05,-0.0001,3,28
37145,6e-05,5e-05,8e-05,1e-05,0,-0.00012,0.00011,-5e-05,3,28
37146,0,-3e-05,-4e-05,3e-05,2e-05,6e-05,0.00014,-3e-05,3,28
37147,0,-3e-05,-4e-05,3e-05,2e-05,6e-05,0.00014,-3e-05,3,28
37148,0,-3e-05,-4e-05,3e-05,2e-05,6e-05,0.00014,-3e-05,3,28
37149,0,-3e-05,-4e-05,3e-05,2e-05,6e-05,0.00014,-3e-05,3,28
37150,0,-3e-05,-4e-05,3e-05,2e-05,6e-05,0.00014,-3e-05,3,28
37151,0,-3e-05,-4e-05,3e-05,2e-05,6e-05,0.00014,-3e-05,3,28
37152,0,-3e-05,-4e-05,3e-05,2e-05,6e-05,0.00014,-3e-05,3,28
37153,0,-3e-05,-4e-05,3e-05,2e-05,6e-05,0.00014,-3e-05,3,28
37154,0,-3e-05,-4e-05,3e-05,2e-05,6e-05,0.00014,-3e-05,3,28
37155,0,-3e-05,-4e-05,3e-05,2e-05,6e-05,0.00014,-3e-05,3,28
37156,0,-3e-05,-4e-05,3e-05,2e-05,6e-05,0.00014,-3e-05,3,28
37157,0,-3e-05,-4e-05,3e-05,2e-05,6e-05,0.00014,-3e-05,3,28
37158,0,-3e-05,-4e-05,3e-05,2e-05,6e-05,0.00014,-3e-05,3,28
37159,0,-3e-05,-4e-05,3e-05,2e-05,6e-05,0.00014,-3e-05,3,28
37160,0,-3e-05,-4e-05,3e-05,2e-05,6e-05,0.00014,-3e-05,3,28
37161,0,-3e-05,-4e-05,3e-05,2e-05,6e-05,0.00014,-3e-05,3,28
37162,0,-3e-05,-4e-05,3e-05,2e-05,6e-05,0.00014,-3e-05,3,28
37163,0,-3e-05,-4e-05,3e-05,2e-05,6e-05,0.00014,-3e-05,3,28
37164,0,-3e-05,-4e-05,3e-05,2e-05,6e-05,0.00014,-3e-05,3,28
37165,0,-3e-05,-4e-05,3e-05,2e-05,6e-05,0.00014,-3e-05,3,28
37166,0,-3e-05,-4e-05,3e-05,2e-05,6e-05,0.00014,-3e-05,3,28
37167,0,-3e-05,-4e-05,3e-05,2e-05,6e-05,0.00014,-3e-05,3,28
37168,0,-3e-05,-4e-05,3e-05,2e-05,6e-05,0.00014,-3e-05,3,28
37169,0,-3e-05,-4e-05,3e-05,2e-05,6e-05,0.00014,-3e-05,3,28
37170,0,-3e-05,-4e-05,3e-05,2e-05,6e-05,0.00014,-3e-05,3,28
37171,0,-3e-05,-4e-05,3e-05,2e-05,6e-05,0.00014,-3e-05,3,28
37172,0,-3e-05,-4e-05,3e-05,2e-05,6e-05,0.00014,-3e-05,3,28
37173,-0.00026,-8e-05,3e-05,-4e-05,-4e-05,-3e-05,2e-05,-1e-05,3,28
37174,4e-05,5e-05,-2e-05,-5e-05,0,5e-05,6e-05,0.00013,3,28
37175,0,2e-05,-9e-05,-1e-05,1e-05,-2e-05,-4e-05,0.0001,3,28
37176,0,2e-05,-9e-05,-1e-05,1e-05,-2e-05,-4e-05,0.0001,3,28
37177,0,2e-05,-9e-05,-1e-05,1e-05,-2e-05,-4e-05,0.0001,3,28
37178,0,2e-05,-9e-05,-1e-05,1e-05,-2e-05,-4e-05,0.0001,3,28
37179,0,2e-05,-9e-05,-1e-05,1e-05,-2e-05,-4e-05,0.0001,3,28
37180,3e-05,8e-05,-3e-05,5e-05,-3e-05,-1e-05,-3e-05,0.00012,3,28
37181,3e-05,8e-05,-3e-05,5e-05,-3e-05,-1e-05,-3e-05,0.00012,3,28
37182,3e-05,8e-05,-3e-05,5e-05,-3e-05,-1e-05,-3e-05,0.00012,3,28
37183,3e-05,8e-05,-3e-05,5e-05,-3e-05,-1e-05,-3e-05,0.00012,3,28
37184,3e-05,8e-05,-3e-05,5e-05,-3e-05,-1e-05,-3e-05,0.00012,3,28
37185,3e-05,8e-05,-3e-05,5e-05,-3e-05,-1e-05,-3e-05,0.00012,3,28
37186,3e-05,8e-05,-3e-05,5e-05,-3e-05,-1e-05,-3e-05,0.00012,3,28
37189,-7e-05,-3e-05,-0.0003,-7e-05,-2e-05,-2e-05,4e-05,0.00034,3,28
37190,-7e-05,-3e-05,-0.0003,-7e-05,-2e-05,-2e-05,4e-05,0.00034,3,28
37191,-7e-05,-3e-05,-0.0003,-7e-05,-2e-05,-2e-05,4e-05,0.00034,3,28
37192,-7e-05,-3e-05,-0.0003,-7e-05,-2e-05,-2e-05,4e-05,0.00034,3,28
37193,-7e-05,-3e-05,-0.0003,-7e-05,-2e-05,-2e-05,4e-05,0.00034,3,28
37194,-7e-05,-3e-05,-0.0003,-7e-05,-2e-05,-2e-05,4e-05,0.00034,3,28
37195,-7e-05,-3e-05,-0.0003,-7e-05,-2e-05,-2e-05,4e-05,0.00034,3,28
37196,-7e-05,-3e-05,-0.0003,-7e-05,-2e-05,-2e-05,4e-05,0.00034,3,28
37197,-7e-05,-3e-05,-0.0003,-7e-05,-2e-05,-2e-05,4e-05,0.00034,3,28
37198,-7e-05,-3e-05,-0.0003,-7e-05,-2e-05,-2e-05,4e-05,0.00034,3,28
37199,-7e-05,-3e-05,-0.0003,-7e-05,-2e-05,-2e-05,4e-05,0.00034,3,28
37200,-7e-05,-3e-05,-0.0003,-7e-05,-2e-05,-2e-05,4e-05,0.00034,3,28
37201,-7e-05,-3e-05,-0.0003,-7e-05,-2e-05,-2e-05,4e-05,0.00034,3,28
37202,-7e-05,-3e-05,-0.0003,-7e-05,-2e-05,-2e-05,4e-05,0.00034,3,28
37203,-7e-05,-3e-05,-0.0003,-7e-05,-2e-05,-2e-05,4e-05,0.00034,3,28
37204,0,4e-05,-3e-05,-1e-05,2e-05,3e-05,-6e-05,-0.00013,3,28
37205,2e-05,3e-05,0.00018,-1e-05,-0.0001,-3e-05,1e-05,-2e-05,3,28
37206,2e-05,3e-05,0.00018,-1e-05,-0.0001,-3e-05,1e-05,-2e-05,3,28
37207,2e-05,3e-05,0.00018,-1e-05,-0.0001,-3e-05,1e-05,-2e-05,3,28
37208,2e-05,3e-05,0.00018,-1e-05,-0.0001,-3e-05,1e-05,-2e-05,3,28
37209,2e-05,3e-05,0.00018,-1e-05,-0.0001,-3e-05,1e-05,-2e-05,3,28
37210,2e-05,3e-05,0.00018,-1e-05,-0.0001,-3e-05,1e-05,-2e-05,3,28
37211,2e-05,3e-05,0.00018,-1e-05,-0.0001,-3e-05,1e-05,-2e-05,3,28
37212,2e-05,3e-05,0.00018,-1e-05,-0.0001,-3e-05,1e-05,-2e-05,3,28
37213,2e-05,3e-05,0.00018,-1e-05,-0.0001,-3e-05,1e-05,-2e-05,3,28
37214,2e-05,3e-05,0.00018,-1e-05,-0.0001,-3e-05,1e-05,-2e-05,3,28
37215,2e-05,3e-05,0.00018,-1e-05,-0.0001,-3e-05,1e-05,-2e-05,3,28
37216,2e-05,3e-05,0.00018,-1e-05,-0.0001,-3e-05,1e-05,-2e-05,3,28
37217,2e-05,3e-05,0.00018,-1e-05,-0.0001,-3e-05,1e-05,-2e-05,3,28
37218,2e-05,3e-05,0.00018,-1e-05,-0.0001,-3e-05,1e-05,-2e-05,3,28
37219,2e-05,3e-05,0.00018,-1e-05,-0.0001,-3e-05,1e-05,-2e-05,3,28
37220,2e-05,3e-05,0.00018,-1e-05,-0.0001,-3e-05,1e-05,-2e-05,3,28
37221,2e-05,3e-05,0.00018,-1e-05,-0.0001,-3e-05,1e-05,-2e-05,3,28
37222,2e-05,3e-05,0.00018,-1e-05,-0.0001,-3e-05,1e-05,-2e-05,3,28
37223,2e-05,3e-05,0.00018,-1e-05,-0.0001,-3e-05,1e-05,-2e-05,3,28
37224,2e-05,3e-05,0.00018,-1e-05,-0.0001,-3e-05,1e-05,-2e-05,3,28
37225,2e-05,3e-05,0.00018,-1e-05,-0.0001,-3e-05,1e-05,-2e-05,3,28
37226,-0.00014,-0.00018,3e-05,0,0,0,3e-05,-5e-05,3,28
37227,-0.00014,-0.00018,3e-05,0,0,0,3e-05,-5e-05,3,28
37228,-8e-05,-0.00017,-8e-05,-1e-05,2e-05,4e-05,-3e-05,-0.00019,3,28
37229,-8e-05,-0.00017,-8e-05,-1e-05,2e-05,4e-05,-3e-05,-0.00019,3,28
37230,-8e-05,-0.00017,-8e-05,-1e-05,2e-05,4e-05,-3e-05,-0.00019,3,28
37231,-8e-05,-0.00017,-8e-05,-1e-05,2e-05,4e-05,-3e-05,-0.00019,3,28
37232,-8e-05,-0.00017,-8e-05,-1e-05,2e-05,4e-05,-3e-05,-0.00019,3,28
37233,-8e-05,-0.00017,-8e-05,-1e-05,2e-05,4e-05,-3e-05,-0.00019,3,28
37234,-8e-05,-0.00017,-8e-05,-1e-05,2e-05,4e-05,-3e-05,-0.00019,3,28
37235,-8e-05,-0.00017,-8e-05,-1e-05,2e-05,4e-05,-3e-05,-0.00019,3,28
37236,-8e-05,-0.00017,-8e-05,-1e-05,2e-05,4e-05,-3e-05,-0.00019,3,28
37238,-8e-05,-0.00017,-8e-05,-1e-05,2e-05,4e-05,-3e-05,-0.00019,3,28
37239,-8e-05,-0.00017,-8e-05,-1e-05,2e-05,4e-05,-3e-05,-0.00019,3,28
37240,-4e-05,0.00012,5e-05,1e-05,-4e-05,6e-05,2e-05,-3e-05,3,28
37241,-4e-05,0.00012,5e-05,1e-05,-4e-05,6e-05,2e-05,-3e-05,3,28
37242,-4e-05,0.00012,5e-05,1e-05,-4e-05,6e-05,2e-05,-3e-05,3,28
37243,-4e-05,0.00012,5e-05,1e-05,-4e-05,6e-05,2e-05,-3e-05,3,28
37244,-4e-05,0.00012,5e-05,1e-05,-4e-05,6e-05,2e-05,-3e-05,3,28
37245,-4e-05,0.00012,5e-05,1e-05,-4e-05,6e-05,2e-05,-3e-05,3,28
37246,-4e-05,0.00012,5e-05,1e-05,-4e-05,6e-05,2e-05,-3e-05,3,28
37247,-4e-05,0.00012,5e-05,1e-05,-4e-05,6e-05,2e-05,-3e-05,3,28
37248,-4e-05,0.00012,5e-05,1e-05,-4e-05,6e-05,2e-05,-3e-05,3,28
37249,7e-05,0.00019,1e-05,0,9e-05,-1e-05,-2e-05,4e-05,3,28
37250,7e-05,0.00019,1e-05,0,9e-05,-1e-05,-2e-05,4e-05,3,28
37251,7e-05,0.00019,1e-05,0,9e-05,-1e-05,-2e-05,4e-05,3,28
37252,7e-05,0.00019,1e-05,0,9e-05,-1e-05,-2e-05,4e-05,3,28
37253,7e-05,0.00019,1e-05,0,9e-05,-1e-05,-2e-05,4e-05,3,28
37254,7e-05,0.00019,1e-05,0,9e-05,-1e-05,-2e-05,4e-05,3,28
37255,7e-05,0.00019,1e-05,0,9e-05,-1e-05,-2e-05,4e-05,3,28
37256,7e-05,0.00019,1e-05,0,9e-05,-1e-05,-2e-05,4e-05,3,28
37257,7e-05,0.00019,1e-05,0,9e-05,-1e-05,-2e-05,4e-05,3,28
37258,7e-05,0.00019,1e-05,0,9e-05,-1e-05,-2e-05,4e-05,3,28
37259,7e-05,0.00019,1e-05,0,9e-05,-1e-05,-2e-05,4e-05,3,28
37260,7e-05,0.00019,1e-05,0,9e-05,-1e-05,-2e-05,4e-05,3,28
37261,7e-05,0.00019,1e-05,0,9e-05,-1e-05,-2e-05,4e-05,3,28
37262,7e-05,0.00019,1e-05,0,9e-05,-1e-05,-2e-05,4e-05,3,28
37263,7e-05,0.00019,1e-05,0,9e-05,-1e-05,-2e-05,4e-05,3,28
37264,-5e-05,6e-05,4e-05,-3e-05,-3e-05,-3e-05,6e-05,0.0001,3,28
37265,-4e-05,0.0002,-1e-05,1e-05,-6e-05,-7e-05,-8e-05,-0.00017,3,28
37266,-4e-05,0.0002,-1e-05,1e-05,-6e-05,-7e-05,-8e-05,-0.00017,3,28
37267,-4e-05,0.0002,-1e-05,1e-05,-6e-05,-7e-05,-8e-05,-0.00017,3,28
37268,-4e-05,0.0002,-1e-05,1e-05,-6e-05,-7e-05,-8e-05,-0.00017,3,28
37269,-4e-05,0.0002,-1e-05,1e-05,-6e-05,-7e-05,-8e-05,-0.00017,3,28
37270,-4e-05,0.0002,-1e-05,1e-05,-6e-05,-7e-05,-8e-05,-0.00017,3,28
37271,-4e-05,0.0002,-1e-05,1e-05,-6e-05,-7e-05,-8e-05,-0.00017,3,28
37273,-4e-05,0.0002,-1e-05,1e-05,-6e-05,-7e-05,-8e-05,-0.00017,3,28
37274,-4e-05,0.0002,-1e-05,1e-05,-6e-05,-7e-05,-8e-05,-0.00017,3,28
37275,-4e-05,0.0002,-1e-05,1e-05,-6e-05,-7e-05,-8e-05,-0.00017,3,28
37276,-4e-05,0.0002,-1e-05,1e-05,-6e-05,-7e-05,-8e-05,-0.00017,3,28
37277,-4e-05,0.0002,-1e-05,1e-05,-6e-05,-7e-05,-8e-05,-0.00017,3,28
37278,-4e-05,0.0002,-1e-05,1e-05,-6e-05,-7e-05,-8e-05,-0.00017,3,28
37279,-4e-05,0.0002,-1e-05,1e-05,-6e-05,-7e-05,-8e-05,-0.00017,3,28
37280,-4e-05,0.0002,-1e-05,1e-05,-6e-05,-7e-05,-8e-05,-0.00017,3,28
37281,-4e-05,0.0002,-1e-05,1e-05,-6e-05,-7e-05,-8e-05,-0.00017,3,28
37282,-4e-05,0.0002,-1e-05,1e-05,-6e-05,-7e-05,-8e-05,-0.00017,3,28
37283,-4e-05,0.0002,-1e-05,1e-05,-6e-05,-7e-05,-8e-05,-0.00017,3,28
37284,-4e-05,0.0002,-1e-05,1e-05,-6e-05,-7e-05,-8e-05,-0.00017,3,28
37285,-4e-05,0.0002,-1e-05,1e-05,-6e-05,-7e-05,-8e-05,-0.00017,3,28
37286,-3e-05,2e-05,-0.0002,-7e-05,3e-05,-1e-05,-6e-05,-8e-05,3,28
37288,1e-05,-4e-05,-1e-05,-4e-05,-4e-05,-2e-05,-1e-05,1e-05,3,28
37289,1e-05,-4e-05,-1e-05,-4e-05,-4e-05,-2e-05,-1e-05,1e-05,3,28
37290,1e-05,-4e-05,-1e-05,-4e-05,-4e-05,-2e-05,-1e-05,1e-05,3,28
37291,1e-05,-4e-05,-1e-05,-4e-05,-4e-05,-2e-05,-1e-05,1e-05,3,28
37292,1e-05,-4e-05,-1e-05,-4e-05,-4e-05,-2e-05,-1e-05,1e-05,3,28
37293,1e-05,-4e-05,-1e-05,-4e-05,-4e-05,-2e-05,-1e-05,1e-05,3,28
37294,1e-05,-4e-05,-1e-05,-4e-05,-4e-05,-2e-05,-1e-05,1e-05,3,28
37295,1e-05,-4e-05,-1e-05,-4e-05,-4e-05,-2e-05,-1e-05,1e-05,3,28
37296,1e-05,-4e-05,-1e-05,-4e-05,-4e-05,-2e-05,-1e-05,1e-05,3,28
37297,1e-05,-4e-05,-1e-05,-4e-05,-4e-05,-2e-05,-1e-05,1e-05,3,28
37298,1e-05,-4e-05,-1e-05,-4e-05,-4e-05,-2e-05,-1e-05,1e-05,3,28
37299,1e-05,-4e-05,-1e-05,-4e-05,-4e-05,-2e-05,-1e-05,1e-05,3,28
37300,1e-05,-4e-05,-1e-05,-4e-05,-4e-05,-2e-05,-1e-05,1e-05,3,28
37301,1e-05,-4e-05,-1e-05,-4e-05,-4e-05,-2e-05,-1e-05,1e-05,3,28
37302,1e-05,-4e-05,-1e-05,-4e-05,-4e-05,-2e-05,-1e-05,1e-05,3,28
37303,1e-05,-4e-05,-1e-05,-4e-05,-4e-05,-2e-05,-1e-05,1e-05,3,28
37304,1e-05,-4e-05,-1e-05,-4e-05,-4e-05,-2e-05,-1e-05,1e-05,3,28
37305,1e-05,-4e-05,-1e-05,-4e-05,-4e-05,-2e-05,-1e-05,1e-05,3,28
37306,1e-05,-4e-05,-1e-05,-4e-05,-4e-05,-2e-05,-1e-05,1e-05,3,28
37307,1e-05,-4e-05,-1e-05,-4e-05,-4e-05,-2e-05,-1e-05,1e-05,3,28
37308,1e-05,-4e-05,-1e-05,-4e-05,-4e-05,-2e-05,-1e-05,1e-05,3,28
37309,-1e-05,-0.00011,2e-05,0,-3e-05,-0.00012,2e-05,-7e-05,3,28
37310,1e-05,-5e-05,-8e-05,2e-05,6e-05,0.00011,0,4e-05,3,28
37311,1e-05,-5e-05,-8e-05,2e-05,6e-05,0.00011,0,4e-05,3,28
37312,1e-05,-5e-05,-8e-05,2e-05,6e-05,0.00011,0,4e-05,3,28
37313,1e-05,-5e-05,-8e-05,2e-05,6e-05,0.00011,0,4e-05,3,28
37314,1e-05,-5e-05,-8e-05,2e-05,6e-05,0.00011,0,4e-05,3,28
37315,1e-05,-5e-05,-8e-05,2e-05,6e-05,0.00011,0,4e-05,3,28
37316,1e-05,-5e-05,-8e-05,2e-05,6e-05,0.00011,0,4e-05,3,28
37317,1e-05,-5e-05,-8e-05,2e-05,6e-05,0.00011,0,4e-05,3,28
37318,1e-05,-5e-05,-8e-05,2e-05,6e-05,0.00011,0,4e-05,3,28
37319,1e-05,-5e-05,-8e-05,2e-05,6e-05,0.00011,0,4e-05,3,28
37320,1e-05,-5e-05,-8e-05,2e-05,6e-05,0.00011,0,4e-05,3,28
37321,1e-05,-5e-05,-8e-05,2e-05,6e-05,0.00011,0,4e-05,3,28
37322,1e-05,-5e-05,-8e-05,2e-05,6e-05,0.00011,0,4e-05,3,28
37323,1e-05,-5e-05,-8e-05,2e-05,6e-05,0.00011,0,4e-05,3,28
37324,6e-05,-3e-05,-0.00013,-1e-05,-3e-05,-1e-05,-0.00015,7e-05,3,28
37325,6e-05,-3e-05,-0.00013,-1e-05,-3e-05,-1e-05,-0.00015,7e-05,3,28
37326,0,-9e-05,2e-05,-2e-05,-3e-05,-3e-05,1e-05,2e-05,3,28
37327,0,-9e-05,2e-05,-2e-05,-3e-05,-3e-05,1e-05,2e-05,3,28
37328,0,-9e-05,2e-05,-2e-05,-3e-05,-3e-05,1e-05,2e-05,3,28
37329,0,-9e-05,2e-05,-2e-05,-3e-05,-3e-05,1e-05,2e-05,3,28
37330,0,-9e-05,2e-05,-2e-05,-3e-05,-3e-05,1e-05,2e-05,3,28
37331,0,-9e-05,2e-05,-2e-05,-3e-05,-3e-05,1e-05,2e-05,3,28
37332,0,-9e-05,2e-05,-2e-05,-3e-05,-3e-05,1e-05,2e-05,3,28
37333,0,-9e-05,2e-05,-2e-05,-3e-05,-3e-05,1e-05,2e-05,3,28
37334,0,-9e-05,2e-05,-2e-05,-3e-05,-3e-05,1e-05,2e-05,3,28
37335,0,-9e-05,2e-05,-2e-05,-3e-05,-3e-05,1e-05,2e-05,3,28
37336,0,-9e-05,2e-05,-2e-05,-3e-05,-3e-05,1e-05,2e-05,3,28
37338,0,-9e-05,2e-05,-2e-05,-3e-05,-3e-05,1e-05,2e-05,3,28
37339,0,-9e-05,2e-05,-2e-05,-3e-05,-3e-05,1e-05,2e-05,3,28
37340,0,-9e-05,2e-05,-2e-05,-3e-05,-3e-05,1e-05,2e-05,3,28
37341,0,-9e-05,2e-05,-2e-05,-3e-05,-3e-05,1e-05,2e-05,3,28
37342,0,-9e-05,2e-05,-2e-05,-3e-05,-3e-05,1e-05,2e-05,3,28
37343,0,-9e-05,2e-05,-2e-05,-3e-05,-3e-05,1e-05,2e-05,3,28
37344,0,-9e-05,2e-05,-2e-05,-3e-05,-3e-05,1e-05,2e-05,3,28
37345,0,-9e-05,2e-05,-2e-05,-3e-05,-3e-05,1e-05,2e-05,3,28
37346,-6e-05,-0.00011,9e-05,0,3e-05,4e-05,-6e-05,-0.00051,3,28
37347,-6e-05,-0.00011,9e-05,0,3e-05,4e-05,-6e-05,-0.00051,3,28
37348,-2e-05,9e-05,3e-05,1e-05,0,4e-05,-6e-05,-0.00011,3,28
37349,-2e-05,9e-05,3e-05,1e-05,0,4e-05,-6e-05,-0.00011,3,28
37350,-2e-05,9e-05,3e-05,1e-05,0,4e-05,-6e-05,-0.00011,3,28
37351,-2e-05,9e-05,3e-05,1e-05,0,4e-05,-6e-05,-0.00011,3,28
37352,-2e-05,9e-05,3e-05,1e-05,0,4e-05,-6e-05,-0.00011,3,28
37353,-2e-05,9e-05,3e-05,1e-05,0,4e-05,-6e-05,-0.00011,3,28
37354,-2e-05,9e-05,3e-05,1e-05,0,4e-05,-6e-05,-0.00011,3,28
37355,-2e-05,9e-05,3e-05,1e-05,0,4e-05,-6e-05,-0.00011,3,28
37356,-2e-05,9e-05,3e-05,1e-05,0,4e-05,-6e-05,-0.00011,3,28
37357,-2e-05,9e-05,3e-05,1e-05,0,4e-05,-6e-05,-0.00011,3,28
37358,-2e-05,9e-05,3e-05,1e-05,0,4e-05,-6e-05,-0.00011,3,28
37359,-2e-05,9e-05,3e-05,1e-05,0,4e-05,-6e-05,-0.00011,3,28
37360,-2e-05,9e-05,3e-05,1e-05,0,4e-05,-6e-05,-0.00011,3,28
37361,-2e-05,9e-05,3e-05,1e-05,0,4e-05,-6e-05,-0.00011,3,28
37362,-2e-05,9e-05,3e-05,1e-05,0,4e-05,-6e-05,-0.00011,3,28
37363,-2e-05,9e-05,3e-05,1e-05,0,4e-05,-6e-05,-0.00011,3,28
37364,-2e-05,9e-05,3e-05,1e-05,0,4e-05,-6e-05,-0.00011,3,28
37365,-2e-05,9e-05,3e-05,1e-05,0,4e-05,-6e-05,-0.00011,3,28
37366,-2e-05,9e-05,3e-05,1e-05,0,4e-05,-6e-05,-0.00011,3,28
37367,-2e-05,9e-05,3e-05,1e-05,0,4e-05,-6e-05,-0.00011,3,28
37368,2e-05,-6e-05,-0.00012,1e-05,-5e-05,-0.00011,8e-05,7e-05,3,28
37369,-0.0001,-2e-05,-0.00011,-0.0001,-0.00012,-0.00015,-7e-05,0,3,28
37370,0,-4e-05,-7e-05,-2e-05,-3e-05,-4e-05,-0.00011,-0.00014,3,28
37371,0,-4e-05,-7e-05,-2e-05,-3e-05,-4e-05,-0.00011,-0.00014,3,28
37372,0,-4e-05,-7e-05,-2e-05,-3e-05,-4e-05,-0.00011,-0.00014,3,28
37373,0,-4e-05,-7e-05,-2e-05,-3e-05,-4e-05,-0.00011,-0.00014,3,28
37374,0,-4e-05,-7e-05,-2e-05,-3e-05,-4e-05,-0.00011,-0.00014,3,28
37375,0,-4e-05,-7e-05,-2e-05,-3e-05,-4e-05,-0.00011,-0.00014,3,28
37376,0,-4e-05,-7e-05,-2e-05,-3e-05,-4e-05,-0.00011,-0.00014,3,28
37377,0,-4e-05,-7e-05,-2e-05,-3e-05,-4e-05,-0.00011,-0.00014,3,28
37378,0,-4e-05,-7e-05,-2e-05,-3e-05,-4e-05,-0.00011,-0.00014,3,28
37379,0,-4e-05,-7e-05,-2e-05,-3e-05,-4e-05,-0.00011,-0.00014,3,28
37380,0,-4e-05,-7e-05,-2e-05,-3e-05,-4e-05,-0.00011,-0.00014,3,28
37381,0,-4e-05,-7e-05,-2e-05,-3e-05,-4e-05,-0.00011,-0.00014,3,28
37382,0,-4e-05,-7e-05,-2e-05,-3e-05,-4e-05,-0.00011,-0.00014,3,28
37383,0,-4e-05,-7e-05,-2e-05,-3e-05,-4e-05,-0.00011,-0.00014,3,28
37384,0,-4e-05,-7e-05,-2e-05,-3e-05,-4e-05,-0.00011,-0.00014,3,28
37385,0,-4e-05,-7e-05,-2e-05,-3e-05,-4e-05,-0.00011,-0.00014,3,28
37386,0,-4e-05,-7e-05,-2e-05,-3e-05,-4e-05,-0.00011,-0.00014,3,28
37388,0,-4e-05,-7e-05,-2e-05,-3e-05,-4e-05,-0.00011,-0.00014,3,28
37390,0,-4e-05,-7e-05,-2e-05,-3e-05,-4e-05,-0.00011,-0.00014,3,28
37391,1e-05,-1e-05,-7e-05,-1e-05,0,4e-05,4e-05,-3e-05,3,28
37392,3e-05,0.00013,2e-05,2e-05,-1e-05,5e-05,9e-05,0.00041,3,28
37393,3e-05,0.00013,2e-05,2e-05,-1e-05,5e-05,9e-05,0.00041,3,28
37394,3e-05,0.00013,2e-05,2e-05,-1e-05,5e-05,9e-05,0.00041,3,28
37395,3e-05,0.00013,2e-05,2e-05,-1e-05,5e-05,9e-05,0.00041,3,28
37396,3e-05,0.00013,2e-05,2e-05,-1e-05,5e-05,9e-05,0.00041,3,28
37397,3e-05,0.00013,2e-05,2e-05,-1e-05,5e-05,9e-05,0.00041,3,28
37398,3e-05,0.00013,2e-05,2e-05,-1e-05,5e-05,9e-05,0.00041,3,28
37399,3e-05,0.00013,2e-05,2e-05,-1e-05,5e-05,9e-05,0.00041,3,28
37400,3e-05,0.00013,2e-05,2e-05,-1e-05,5e-05,9e-05,0.00041,3,28
37401,3e-05,0.00013,2e-05,2e-05,-1e-05,5e-05,9e-05,0.00041,3,28
37402,3e-05,0.00013,2e-05,2e-05,-1e-05,5e-05,9e-05,0.00041,3,28
37403,3e-05,0.00013,2e-05,2e-05,-1e-05,5e-05,9e-05,0.00041,3,28
37404,3e-05,0.00013,2e-05,2e-05,-1e-05,5e-05,9e-05,0.00041,3,28
37405,3e-05,0.00013,2e-05,2e-05,-1e-05,5e-05,9e-05,0.00041,3,28
37406,2e-05,-2e-05,1e-05,0,0.0001,6e-05,8e-05,0.0001,3,28
37407,2e-05,-2e-05,1e-05,0,0.0001,6e-05,8e-05,0.0001,3,28
37408,-1e-05,0,1e-05,-2e-05,0,-9e-05,-4e-05,-0.00011,3,28
37409,-1e-05,0,1e-05,-2e-05,0,-9e-05,-4e-05,-0.00011,3,28
37410,-1e-05,0,1e-05,-2e-05,0,-9e-05,-4e-05,-0.00011,3,28
37411,-1e-05,0,1e-05,-2e-05,0,-9e-05,-4e-05,-0.00011,3,28
37412,-1e-05,0,1e-05,-2e-05,0,-9e-05,-4e-05,-0.00011,3,28
37413,-1e-05,0,1e-05,-2e-05,0,-9e-05,-4e-05,-0.00011,3,28
37414,-1e-05,0,1e-05,-2e-05,0,-9e-05,-4e-05,-0.00011,3,28
37415,-1e-05,0,1e-05,-2e-05,0,-9e-05,-4e-05,-0.00011,3,28
37416,-1e-05,0,1e-05,-2e-05,0,-9e-05,-4e-05,-0.00011,3,28
37417,-1e-05,0,1e-05,-2e-05,0,-9e-05,-4e-05,-0.00011,3,28
37418,-1e-05,0,1e-05,-2e-05,0,-9e-05,-4e-05,-0.00011,3,28
37419,-1e-05,0,1e-05,-2e-05,0,-9e-05,-4e-05,-0.00011,3,28
37420,-1e-05,0,1e-05,-2e-05,0,-9e-05,-4e-05,-0.00011,3,28
37421,-1e-05,0,1e-05,-2e-05,0,-9e-05,-4e-05,-0.00011,3,28
37422,-1e-05,0,1e-05,-2e-05,0,-9e-05,-4e-05,-0.00011,3,28
37423,-1e-05,0,1e-05,-2e-05,0,-9e-05,-4e-05,-0.00011,3,28
37424,-1e-05,0,1e-05,-2e-05,0,-9e-05,-4e-05,-0.00011,3,28
37425,-1e-05,0,1e-05,-2e-05,0,-9e-05,-4e-05,-0.00011,3,28
37426,-1e-05,0,1e-05,-2e-05,0,-9e-05,-4e-05,-0.00011,3,28
37427,-1e-05,0,1e-05,-2e-05,0,-9e-05,-4e-05,-0.00011,3,28
37428,-3e-05,6e-05,2e-05,8e-05,0.00015,1e-05,2e-05,0.00013,3,28
37429,4e-05,-8e-05,6e-05,-1e-05,-6e-05,2e-05,0,4e-05,3,28
37430,-2e-05,-0.00011,-2e-05,-2e-05,4e-05,6e-05,-6e-05,3e-05,3,28
37431,-2e-05,-0.00011,-2e-05,-2e-05,4e-05,6e-05,-6e-05,3e-05,3,28
37432,-2e-05,-0.00011,-2e-05,-2e-05,4e-05,6e-05,-6e-05,3e-05,3,28
37433,-2e-05,-0.00011,-2e-05,-2e-05,4e-05,6e-05,-6e-05,3e-05,3,28
37434,-2e-05,-0.00011,-2e-05,-2e-05,4e-05,6e-05,-6e-05,3e-05,3,28
37435,-2e-05,-0.00011,-2e-05,-2e-05,4e-05,6e-05,-6e-05,3e-05,3,28
37436,-2e-05,-0.00011,-2e-05,-2e-05,4e-05,6e-05,-6e-05,3e-05,3,28
37439,-2e-05,-0.00011,-2e-05,-2e-05,4e-05,6e-05,-6e-05,3e-05,3,28
37440,-2e-05,-0.00011,-2e-05,-2e-05,4e-05,6e-05,-6e-05,3e-05,3,28
37441,-2e-05,-0.00011,-2e-05,-2e-05,4e-05,6e-05,-6e-05,3e-05,3,28
37442,-2e-05,-0.00011,-2e-05,-2e-05,4e-05,6e-05,-6e-05,3e-05,3,28
37443,-2e-05,-0.00011,-2e-05,-2e-05,4e-05,6e-05,-6e-05,3e-05,3,28
37444,-2e-05,-0.00011,-2e-05,-2e-05,4e-05,6e-05,-6e-05,3e-05,3,28
37445,-2e-05,-0.00011,-2e-05,-2e-05,4e-05,6e-05,-6e-05,3e-05,3,28
37446,-2e-05,-0.00011,-2e-05,-2e-05,4e-05,6e-05,-6e-05,3e-05,3,28
37447,-2e-05,-0.00011,-2e-05,-2e-05,4e-05,6e-05,-6e-05,3e-05,3,28
37448,-2e-05,-0.00011,-2e-05,-2e-05,4e-05,6e-05,-6e-05,3e-05,3,28
37449,-2e-05,-0.00011,-2e-05,-2e-05,4e-05,6e-05,-6e-05,3e-05,3,28
37450,-2e-05,-0.00011,-2e-05,-2e-05,4e-05,6e-05,-6e-05,3e-05,3,28
37451,2e-05,3e-05,6e-05,0,-4e-05,-2e-05,2e-05,-7e-05,3,28
37452,-3e-05,0.00058,-0.00012,-2e-05,-7e-05,0,2e-05,2e-05,3,28
37453,1e-05,0.00034,0.00022,0,0,6e-05,0.00014,0.00016,3,28
37454,1e-05,0.00034,0.00022,0,0,6e-05,0.00014,0.00016,3,28
37455,1e-05,0.00034,0.00022,0,0,6e-05,0.00014,0.00016,3,28
37456,1e-05,0.00034,0.00022,0,0,6e-05,0.00014,0.00016,3,28
37457,1e-05,0.00034,0.00022,0,0,6e-05,0.00014,0.00016,3,28
37458,1e-05,0.00034,0.00022,0,0,6e-05,0.00014,0.00016,3,28
37459,1e-05,0.00034,0.00022,0,0,6e-05,0.00014,0.00016,3,28
37460,1e-05,0.00034,0.00022,0,0,6e-05,0.00014,0.00016,3,28
37461,1e-05,0.00034,0.00022,0,0,6e-05,0.00014,0.00016,3,28
37462,1e-05,0.00034,0.00022,0,0,6e-05,0.00014,0.00016,3,28
37463,1e-05,0.00034,0.00022,0,0,6e-05,0.00014,0.00016,3,28
37464,1e-05,0.00034,0.00022,0,0,6e-05,0.00014,0.00016,3,28
37465,1e-05,0.00034,0.00022,0,0,6e-05,0.00014,0.00016,3,28
37466,3e-05,-8e-05,-0.00014,1e-05,-1e-05,7e-05,1e-05,0.00013,3,28
37467,3e-05,-8e-05,-0.00014,1e-05,-1e-05,7e-05,1e-05,0.00013,3,28
37468,-0.00011,-0.00044,-0.00011,-1e-05,2e-05,-9e-05,0,0,3,28
37469,-0.00011,-0.00044,-0.00011,-1e-05,2e-05,-9e-05,0,0,3,28
37470,-0.00011,-0.00044,-0.00011,-1e-05,2e-05,-9e-05,0,0,3,28
37471,-0.00011,-0.00044,-0.00011,-1e-05,2e-05,-9e-05,0,0,3,28
37472,-0.00011,-0.00044,-0.00011,-1e-05,2e-05,-9e-05,0,0,3,28
37473,-0.00011,-0.00044,-0.00011,-1e-05,2e-05,-9e-05,0,0,3,28
37474,-0.00011,-0.00044,-0.00011,-1e-05,2e-05,-9e-05,0,0,3,28
37475,-0.00011,-0.00044,-0.00011,-1e-05,2e-05,-9e-05,0,0,3,28
37476,-0.00011,-0.00044,-0.00011,-1e-05,2e-05,-9e-05,0,0,3,28
37477,-0.00011,-0.00044,-0.00011,-1e-05,2e-05,-9e-05,0,0,3,28
37478,-0.00011,-0.00044,-0.00011,-1e-05,2e-05,-9e-05,0,0,3,28
37479,-0.00011,-0.00044,-0.00011,-1e-05,2e-05,-9e-05,0,0,3,28
37480,-0.00011,-0.00044,-0.00011,-1e-05,2e-05,-9e-05,0,0,3,28
37481,-0.00011,-0.00044,-0.00011,-1e-05,2e-05,-9e-05,0,0,3,28
37482,-0.00011,-0.00044,-0.00011,-1e-05,2e-05,-9e-05,0,0,3,28
37483,-0.00011,-0.00044,-0.00011,-1e-05,2e-05,-9e-05,0,0,3,28
37484,-0.00011,-0.00044,-0.00011,-1e-05,2e-05,-9e-05,0,0,3,28
37485,-0.00011,-0.00044,-0.00011,-1e-05,2e-05,-9e-05,0,0,3,28
37486,-0.00011,-0.00044,-0.00011,-1e-05,2e-05,-9e-05,0,0,3,28
37489,-0.00016,-9e-05,4e-05,0,-1e-05,-4e-05,-3e-05,2e-05,3,28
37490,8e-05,-5e-05,1e-05,-2e-05,0,-8e-05,-7e-05,-1e-05,3,28
37491,8e-05,-5e-05,1e-05,-2e-05,0,-8e-05,-7e-05,-1e-05,3,28
37492,8e-05,-5e-05,1e-05,-2e-05,0,-8e-05,-7e-05,-1e-05,3,28
37493,8e-05,-5e-05,1e-05,-2e-05,0,-8e-05,-7e-05,-1e-05,3,28
37494,8e-05,-5e-05,1e-05,-2e-05,0,-8e-05,-7e-05,-1e-05,3,28
37495,8e-05,-5e-05,1e-05,-2e-05,0,-8e-05,-7e-05,-1e-05,3,28
37496,8e-05,-5e-05,1e-05,-2e-05,0,-8e-05,-7e-05,-1e-05,3,28
37497,8e-05,-5e-05,1e-05,-2e-05,0,-8e-05,-7e-05,-1e-05,3,28
37498,8e-05,-5e-05,1e-05,-2e-05,0,-8e-05,-7e-05,-1e-05,3,28
37499,8e-05,-5e-05,1e-05,-2e-05,0,-8e-05,-7e-05,-1e-05,3,28
37500,8e-05,-5e-05,1e-05,-2e-05,0,-8e-05,-7e-05,-1e-05,3,28
37501,8e-05,-5e-05,1e-05,-2e-05,0,-8e-05,-7e-05,-1e-05,3,28
37502,8e-05,-5e-05,1e-05,-2e-05,0,-8e-05,-7e-05,-1e-05,3,28
37503,7e-05,2e-05,-2e-05,-3e-05,2e-05,3e-05,6e-05,0.00021,3,28
37504,7e-05,2e-05,-2e-05,-3e-05,2e-05,3e-05,6e-05,0.00021,3,28
37505,7e-05,2e-05,-2e-05,-3e-05,2e-05,3e-05,6e-05,0.00021,3,28
37506,7e-05,2e-05,-2e-05,-3e-05,2e-05,3e-05,6e-05,0.00021,3,28
37507,7e-05,2e-05,-2e-05,-3e-05,2e-05,3e-05,6e-05,0.00021,3,28
37508,7e-05,2e-05,-2e-05,-3e-05,2e-05,3e-05,6e-05,0.00021,3,28
37509,7e-05,2e-05,-2e-05,-3e-05,2e-05,3e-05,6e-05,0.00021,3,28
37510,-5e-05,-0.0001,-0.00018,-1e-05,-6e-05,0,4e-05,-0.0002,3,28
37511,-5e-05,-0.0001,-0.00018,-1e-05,-6e-05,0,4e-05,-0.0002,3,28
37512,-5e-05,-0.0001,-0.00018,-1e-05,-6e-05,0,4e-05,-0.0002,3,28
37513,-5e-05,-0.0001,-0.00018,-1e-05,-6e-05,0,4e-05,-0.0002,3,28
37514,-5e-05,-0.0001,-0.00018,-1e-05,-6e-05,0,4e-05,-0.0002,3,28
37515,-5e-05,-0.0001,-0.00018,-1e-05,-6e-05,0,4e-05,-0.0002,3,28
37516,-5e-05,-0.0001,-0.00018,-1e-05,-6e-05,0,4e-05,-0.0002,3,28
37517,-5e-05,-0.0001,-0.00018,-1e-05,-6e-05,0,4e-05,-0.0002,3,28
37518,-5e-05,-0.0001,-0.00018,-1e-05,-6e-05,0,4e-05,-0.0002,3,28
37519,-5e-05,-0.0001,-0.00018,-1e-05,-6e-05,0,4e-05,-0.0002,3,28
37520,-5e-05,-0.0001,-0.00018,-1e-05,-6e-05,0,4e-05,-0.0002,3,28
37521,-5e-05,-0.0001,-0.00018,-1e-05,-6e-05,0,4e-05,-0.0002,3,28
37522,-5e-05,-0.0001,-0.00018,-1e-05,-6e-05,0,4e-05,-0.0002,3,28
37523,-5e-05,-0.0001,-0.00018,-1e-05,-6e-05,0,4e-05,-0.0002,3,28
37524,-5e-05,-0.0001,-0.00018,-1e-05,-6e-05,0,4e-05,-0.0002,3,28
37525,-5e-05,-0.0001,-0.00018,-1e-05,-6e-05,0,4e-05,-0.0002,3,28
37526,1e-05,5e-05,-9e-05,-2e-05,5e-05,0,0.00012,0.00013,3,28
37527,0,6e-05,-2e-05,3e-05,2e-05,6e-05,-3e-05,-0.00013,3,28
37528,0,6e-05,-2e-05,3e-05,2e-05,6e-05,-3e-05,-0.00013,3,28
37529,0,6e-05,-2e-05,3e-05,2e-05,6e-05,-3e-05,-0.00013,3,28
37530,0,6e-05,-2e-05,3e-05,2e-05,6e-05,-3e-05,-0.00013,3,28
37531,0,6e-05,-2e-05,3e-05,2e-05,6e-05,-3e-05,-0.00013,3,28
37532,0,6e-05,-2e-05,3e-05,2e-05,6e-05,-3e-05,-0.00013,3,28
37533,0,6e-05,-2e-05,3e-05,2e-05,6e-05,-3e-05,-0.00013,3,28
37534,0,6e-05,-2e-05,3e-05,2e-05,6e-05,-3e-05,-0.00013,3,28
37535,0,6e-05,-2e-05,3e-05,2e-05,6e-05,-3e-05,-0.00013,3,28
37536,0,6e-05,-2e-05,3e-05,2e-05,6e-05,-3e-05,-0.00013,3,28
37538,0,6e-05,-2e-05,3e-05,2e-05,6e-05,-3e-05,-0.00013,3,28
37540,0,6e-05,-2e-05,3e-05,2e-05,6e-05,-3e-05,-0.00013,3,28
37541,0,6e-05,-2e-05,3e-05,2e-05,6e-05,-3e-05,-0.00013,3,28
37542,0,6e-05,-2e-05,3e-05,2e-05,6e-05,-3e-05,-0.00013,3,28
37543,0,6e-05,-2e-05,3e-05,2e-05,6e-05,-3e-05,-0.00013,3,28
37544,0,6e-05,-2e-05,3e-05,2e-05,6e-05,-3e-05,-0.00013,3,28
37545,0,6e-05,-2e-05,3e-05,2e-05,6e-05,-3e-05,-0.00013,3,28
37546,0,6e-05,-2e-05,3e-05,2e-05,6e-05,-3e-05,-0.00013,3,28
37547,0,6e-05,-2e-05,3e-05,2e-05,6e-05,-3e-05,-0.00013,3,28
37548,-5e-05,-0.00028,-0.00012,-1e-05,-9e-05,-5e-05,-2e-05,2e-05,3,28
37549,0.00022,3e-05,-5e-05,-3e-05,-0.0001,-6e-05,-7e-05,0.0001,3,28
37550,-5e-05,7e-05,3e-05,1e-05,3e-05,-0.00014,-4e-05,-6e-05,3,28
37551,-5e-05,7e-05,3e-05,1e-05,3e-05,-0.00014,-4e-05,-6e-05,3,28
37552,-5e-05,7e-05,3e-05,1e-05,3e-05,-0.00014,-4e-05,-6e-05,3,28
37553,-5e-05,7e-05,3e-05,1e-05,3e-05,-0.00014,-4e-05,-6e-05,3,28
37554,-5e-05,7e-05,3e-05,1e-05,3e-05,-0.00014,-4e-05,-6e-05,3,28
37555,-5e-05,7e-05,3e-05,1e-05,3e-05,-0.00014,-4e-05,-6e-05,3,28
37556,-5e-05,7e-05,3e-05,1e-05,3e-05,-0.00014,-4e-05,-6e-05,3,28
37557,-5e-05,7e-05,3e-05,1e-05,3e-05,-0.00014,-4e-05,-6e-05,3,28
37558,-5e-05,7e-05,3e-05,1e-05,3e-05,-0.00014,-4e-05,-6e-05,3,28
37559,-5e-05,7e-05,3e-05,1e-05,3e-05,-0.00014,-4e-05,-6e-05,3,28
37560,-5e-05,7e-05,3e-05,1e-05,3e-05,-0.00014,-4e-05,-6e-05,3,28
37561,-5e-05,7e-05,3e-05,1e-05,3e-05,-0.00014,-4e-05,-6e-05,3,28
37562,-5e-05,7e-05,3e-05,1e-05,3e-05,-0.00014,-4e-05,-6e-05,3,28
37563,-4e-05,-5e-05,1e-05,0,1e-05,5e-05,-1e-05,-0.00019,3,28
37564,-4e-05,-5e-05,1e-05,0,1e-05,5e-05,-1e-05,-0.00019,3,28
37565,-4e-05,-5e-05,1e-05,0,1e-05,5e-05,-1e-05,-0.00019,3,28
37566,-4e-05,-5e-05,1e-05,0,1e-05,5e-05,-1e-05,-0.00019,3,28
37567,-4e-05,-5e-05,1e-05,0,1e-05,5e-05,-1e-05,-0.00019,3,28
37568,-4e-05,-5e-05,1e-05,0,1e-05,5e-05,-1e-05,-0.00019,3,28
37569,-4e-05,-5e-05,1e-05,0,1e-05,5e-05,-1e-05,-0.00019,3,28
37570,2e-05,-7e-05,4e-05,-8e-05,-8e-05,1e-05,1e-05,1e-05,3,28
37571,2e-05,-7e-05,4e-05,-8e-05,-8e-05,1e-05,1e-05,1e-05,3,28
37572,2e-05,-7e-05,4e-05,-8e-05,-8e-05,1e-05,1e-05,1e-05,3,28
37573,2e-05,-7e-05,4e-05,-8e-05,-8e-05,1e-05,1e-05,1e-05,3,28
37574,2e-05,-7e-05,4e-05,-8e-05,-8e-05,1e-05,1e-05,1e-05,3,28
37575,2e-05,-7e-05,4e-05,-8e-05,-8e-05,1e-05,1e-05,1e-05,3,28
