10504,0,-3e-05,1e-05,-2e-05,-4e-05,-8e-05,-1e-05,7e-05,3,29
10505,0,-3e-05,1e-05,-2e-05,-4e-05,-8e-05,-1e-05,7e-05,3,29
10506,0,-3e-05,1e-05,-2e-05,-4e-05,-8e-05,-1e-05,7e-05,3,29
10508,0,-3e-05,1e-05,-2e-05,-4e-05,-8e-05,-1e-05,7e-05,3,29
10509,0,-3e-05,1e-05,-2e-05,-4e-05,-8e-05,-1e-05,7e-05,3,29
10510,0,-3e-05,1e-05,-2e-05,-4e-05,-8e-05,-1e-05,7e-05,3,29
10511,0,-3e-05,1e-05,-2e-05,-4e-05,-8e-05,-1e-05,7e-05,3,29
10512,0,-3e-05,1e-05,-2e-05,-4e-05,-8e-05,-1e-05,7e-05,3,29
10513,0,-3e-05,1e-05,-2e-05,-4e-05,-8e-05,-1e-05,7e-05,3,29
10514,-0.00011,-0.00015,-0.00017,-0.00013,-0.00015,9e-05,1e-05,-7e-05,3,29
10515,-0.00011,-0.00015,-0.00017,-0.00013,-0.00015,9e-05,1e-05,-7e-05,3,29
10516,-0.00011,-0.00015,-0.00017,-0.00013,-0.00015,9e-05,1e-05,-7e-05,3,29
10517,-0.00011,-0.00015,-0.00017,-0.00013,-0.00015,9e-05,1e-05,-7e-05,3,29
10518,-0.00011,-0.00015,-0.00017,-0.00013,-0.00015,9e-05,1e-05,-7e-05,3,29
10519,-0.00011,-0.00015,-0.00017,-0.00013,-0.00015,9e-05,1e-05,-7e-05,3,29
10520,-0.00011,-0.00015,-0.00017,-0.00013,-0.00015,9e-05,1e-05,-7e-05,3,29
10521,-0.00011,-0.00015,-0.00017,-0.00013,-0.00015,9e-05,1e-05,-7e-05,3,29
10522,-0.00011,-0.00015,-0.00017,-0.00013,-0.00015,9e-05,1e-05,-7e-05,3,29
10523,-0.00011,-0.00015,-0.00017,-0.00013,-0.00015,9e-05,1e-05,-7e-05,3,29
10524,-0.00011,-0.00015,-0.00017,-0.00013,-0.00015,9e-05,1e-05,-7e-05,3,29
10525,-0.00011,-0.00015,-0.00017,-0.00013,-0.00015,9e-05,1e-05,-7e-05,3,29
10526,-0.00011,-0.00015,-0.00017,-0.00013,-0.00015,9e-05,1e-05,-7e-05,3,29
10527,-0.00011,-0.00015,-0.00017,-0.00013,-0.00015,9e-05,1e-05,-7e-05,3,29
10528,-0.00011,-0.00015,-0.00017,-0.00013,-0.00015,9e-05,1e-05,-7e-05,3,29
10529,-0.00011,-0.00015,-0.00017,-0.00013,-0.00015,9e-05,1e-05,-7e-05,3,29
10530,-0.00011,-0.00015,-0.00017,-0.00013,-0.00015,9e-05,1e-05,-7e-05,3,29
10531,-0.00011,-0.00015,-0.00017,-0.00013,-0.00015,9e-05,1e-05,-7e-05,3,29
10532,-0.00011,-0.00015,-0.00017,-0.00013,-0.00015,9e-05,1e-05,-7e-05,3,29
10533,-0.00011,-0.00015,-0.00017,-0.00013,-0.00015,9e-05,1e-05,-7e-05,3,29
10534,-0.00011,-0.00015,-0.00017,-0.00013,-0.00015,9e-05,1e-05,-7e-05,3,29
10535,-0.00011,-0.00015,-0.00017,-0.00013,-0.00015,9e-05,1e-05,-7e-05,3,29
10536,-0.00011,-0.00015,-0.00017,-0.00013,-0.00015,9e-05,1e-05,-7e-05,3,29
10538,-3e-05,2e-05,9e-05,4e-05,4e-05,-0.00011,-4e-05,-3e-05,3,29
10539,-3e-05,2e-05,9e-05,4e-05,4e-05,-0.00011,-4e-05,-3e-05,3,29
10540,-3e-05,2e-05,9e-05,4e-05,4e-05,-0.00011,-4e-05,-3e-05,3,29
10541,-3e-05,2e-05,9e-05,4e-05,4e-05,-0.00011,-4e-05,-3e-05,3,29
10542,-3e-05,2e-05,9e-05,4e-05,4e-05,-0.00011,-4e-05,-3e-05,3,29
10543,-3e-05,2e-05,9e-05,4e-05,4e-05,-0.00011,-4e-05,-3e-05,3,29
10544,-3e-05,2e-05,9e-05,4e-05,4e-05,-0.00011,-4e-05,-3e-05,3,29
10545,-3e-05,2e-05,9e-05,4e-05,4e-05,-0.00011,-4e-05,-3e-05,3,29
10546,-3e-05,2e-05,9e-05,4e-05,4e-05,-0.00011,-4e-05,-3e-05,3,29
10547,-3e-05,2e-05,9e-05,4e-05,4e-05,-0.00011,-4e-05,-3e-05,3,29
10548,-3e-05,2e-05,9e-05,4e-05,4e-05,-0.00011,-4e-05,-3e-05,3,29
10549,-3e-05,2e-05,9e-05,4e-05,4e-05,-0.00011,-4e-05,-3e-05,3,29
10550,-3e-05,2e-05,9e-05,4e-05,4e-05,-0.00011,-4e-05,-3e-05,3,29
10551,-3e-05,2e-05,9e-05,4e-05,4e-05,-0.00011,-4e-05,-3e-05,3,29
10552,-3e-05,2e-05,9e-05,4e-05,4e-05,-0.00011,-4e-05,-3e-05,3,29
10553,-3e-05,2e-05,9e-05,4e-05,4e-05,-0.00011,-4e-05,-3e-05,3,29
10554,-3e-05,2e-05,9e-05,4e-05,4e-05,-0.00011,-4e-05,-3e-05,3,29
10555,-3e-05,2e-05,9e-05,4e-05,4e-05,-0.00011,-4e-05,-3e-05,3,29
10556,-3e-05,2e-05,9e-05,4e-05,4e-05,-0.00011,-4e-05,-3e-05,3,29
10557,-3e-05,2e-05,9e-05,4e-05,4e-05,-0.00011,-4e-05,-3e-05,3,29
10558,-3e-05,2e-05,9e-05,4e-05,4e-05,-0.00011,-4e-05,-3e-05,3,29
10559,5e-05,-3e-05,-5e-05,-2e-05,5e-05,6e-05,1e-05,3e-05,3,29
10560,-8e-05,0,1e-05,-1e-05,2e-05,-5e-05,-3e-05,-4e-05,3,29
10561,-8e-05,0,1e-05,-1e-05,2e-05,-5e-05,-3e-05,-4e-05,3,29
10562,-8e-05,0,1e-05,-1e-05,2e-05,-5e-05,-3e-05,-4e-05,3,29
10563,-8e-05,0,1e-05,-1e-05,2e-05,-5e-05,-3e-05,-4e-05,3,29
10564,-8e-05,0,1e-05,-1e-05,2e-05,-5e-05,-3e-05,-4e-05,3,29
10565,-8e-05,0,1e-05,-1e-05,2e-05,-5e-05,-3e-05,-4e-05,3,29
10566,-8e-05,0,1e-05,-1e-05,2e-05,-5e-05,-3e-05,-4e-05,3,29
10567,-8e-05,0,1e-05,-1e-05,2e-05,-5e-05,-3e-05,-4e-05,3,29
10568,-8e-05,0,1e-05,-1e-05,2e-05,-5e-05,-3e-05,-4e-05,3,29
10569,-8e-05,0,1e-05,-1e-05,2e-05,-5e-05,-3e-05,-4e-05,3,29
10570,-8e-05,0,1e-05,-1e-05,2e-05,-5e-05,-3e-05,-4e-05,3,29
10571,-8e-05,0,1e-05,-1e-05,2e-05,-5e-05,-3e-05,-4e-05,3,29
10572,-8e-05,0,1e-05,-1e-05,2e-05,-5e-05,-3e-05,-4e-05,3,29
10573,-8e-05,0,1e-05,-1e-05,2e-05,-5e-05,-3e-05,-4e-05,3,29
10574,-8e-05,0,1e-05,-1e-05,2e-05,-5e-05,-3e-05,-4e-05,3,29
10575,-8e-05,0,1e-05,-1e-05,2e-05,-5e-05,-3e-05,-4e-05,3,29
10576,-8e-05,0,1e-05,-1e-05,2e-05,-5e-05,-3e-05,-4e-05,3,29
10577,-8e-05,0,1e-05,-1e-05,2e-05,-5e-05,-3e-05,-4e-05,3,29
10578,-8e-05,0,1e-05,-1e-05,2e-05,-5e-05,-3e-05,-4e-05,3,29
10579,-8e-05,0,1e-05,-1e-05,2e-05,-5e-05,-3e-05,-4e-05,3,29
10580,-8e-05,0,1e-05,-1e-05,2e-05,-5e-05,-3e-05,-4e-05,3,29
10581,-8e-05,0,1e-05,-1e-05,2e-05,-5e-05,-3e-05,-4e-05,3,29
10582,-2e-05,1e-05,1e-05,2e-05,-2e-05,-8e-05,-3e-05,-0.00011,3,29
10583,0.00014,2e-05,1e-05,1e-05,9e-05,8e-05,1e-05,-1e-05,3,29
10584,0.00014,2e-05,1e-05,1e-05,9e-05,8e-05,1e-05,-1e-05,3,29
10585,0.00014,2e-05,1e-05,1e-05,9e-05,8e-05,1e-05,-1e-05,3,29
10586,0.00014,2e-05,1e-05,1e-05,9e-05,8e-05,1e-05,-1e-05,3,29
10588,0.00014,2e-05,1e-05,1e-05,9e-05,8e-05,1e-05,-1e-05,3,29
10589,0.00014,2e-05,1e-05,1e-05,9e-05,8e-05,1e-05,-1e-05,3,29
10590,0.00014,2e-05,1e-05,1e-05,9e-05,8e-05,1e-05,-1e-05,3,29
10591,0.00014,2e-05,1e-05,1e-05,9e-05,8e-05,1e-05,-1e-05,3,29
10592,0.00014,2e-05,1e-05,1e-05,9e-05,8e-05,1e-05,-1e-05,3,29
10593,0.00014,2e-05,1e-05,1e-05,9e-05,8e-05,1e-05,-1e-05,3,29
10594,0.00014,2e-05,1e-05,1e-05,9e-05,8e-05,1e-05,-1e-05,3,29
10595,0.00014,2e-05,1e-05,1e-05,9e-05,8e-05,1e-05,-1e-05,3,29
10596,0.00014,2e-05,1e-05,1e-05,9e-05,8e-05,1e-05,-1e-05,3,29
10597,-0.00014,-6e-05,-8e-05,-4e-05,-7e-05,-4e-05,-1e-05,-6e-05,3,29
10598,0.00013,3e-05,1e-05,1e-05,1e-05,2e-05,0,2e-05,3,29
10599,0.00013,3e-05,1e-05,1e-05,1e-05,2e-05,0,2e-05,3,29
10600,0.00013,3e-05,1e-05,1e-05,1e-05,2e-05,0,2e-05,3,29
10601,0.00013,3e-05,1e-05,1e-05,1e-05,2e-05,0,2e-05,3,29
10602,0.00013,3e-05,1e-05,1e-05,1e-05,2e-05,0,2e-05,3,29
10603,0.00013,3e-05,1e-05,1e-05,1e-05,2e-05,0,2e-05,3,29
10604,0.00013,3e-05,1e-05,1e-05,1e-05,2e-05,0,2e-05,3,29
10605,0.00013,3e-05,1e-05,1e-05,1e-05,2e-05,0,2e-05,3,29
10606,0.00013,3e-05,1e-05,1e-05,1e-05,2e-05,0,2e-05,3,29
10607,0.00013,3e-05,1e-05,1e-05,1e-05,2e-05,0,2e-05,3,29
10608,0.00013,3e-05,1e-05,1e-05,1e-05,2e-05,0,2e-05,3,29
10609,0.00013,3e-05,1e-05,1e-05,1e-05,2e-05,0,2e-05,3,29
10610,0.00013,3e-05,1e-05,1e-05,1e-05,2e-05,0,2e-05,3,29
10611,0.00013,3e-05,1e-05,1e-05,1e-05,2e-05,0,2e-05,3,29
10612,0.00013,3e-05,1e-05,1e-05,1e-05,2e-05,0,2e-05,3,29
10613,0.00013,3e-05,1e-05,1e-05,1e-05,2e-05,0,2e-05,3,29
10614,0.00013,3e-05,1e-05,1e-05,1e-05,2e-05,0,2e-05,3,29
10615,0.00013,3e-05,1e-05,1e-05,1e-05,2e-05,0,2e-05,3,29
10616,0.00013,3e-05,1e-05,1e-05,1e-05,2e-05,0,2e-05,3,29
10617,0.00013,3e-05,1e-05,1e-05,1e-05,2e-05,0,2e-05,3,29
10618,0.00013,3e-05,1e-05,1e-05,1e-05,2e-05,0,2e-05,3,29
10619,-4e-05,-2e-05,1e-05,3e-05,-4e-05,-4e-05,-3e-05,2e-05,3,29
10620,8e-05,4e-05,2e-05,1e-05,-3e-05,-4e-05,-2e-05,3e-05,3,29
10621,8e-05,4e-05,2e-05,1e-05,-3e-05,-4e-05,-2e-05,3e-05,3,29
10622,8e-05,4e-05,2e-05,1e-05,-3e-05,-4e-05,-2e-05,3e-05,3,29
10623,8e-05,4e-05,2e-05,1e-05,-3e-05,-4e-05,-2e-05,3e-05,3,29
10624,8e-05,4e-05,2e-05,1e-05,-3e-05,-4e-05,-2e-05,3e-05,3,29
10625,8e-05,4e-05,2e-05,1e-05,-3e-05,-4e-05,-2e-05,3e-05,3,29
10626,8e-05,4e-05,2e-05,1e-05,-3e-05,-4e-05,-2e-05,3e-05,3,29
10627,8e-05,4e-05,2e-05,1e-05,-3e-05,-4e-05,-2e-05,3e-05,3,29
10628,8e-05,4e-05,2e-05,1e-05,-3e-05,-4e-05,-2e-05,3e-05,3,29
10629,8e-05,4e-05,2e-05,1e-05,-3e-05,-4e-05,-2e-05,3e-05,3,29
10630,8e-05,4e-05,2e-05,1e-05,-3e-05,-4e-05,-2e-05,3e-05,3,29
10631,8e-05,4e-05,2e-05,1e-05,-3e-05,-4e-05,-2e-05,3e-05,3,29
10632,8e-05,4e-05,2e-05,1e-05,-3e-05,-4e-05,-2e-05,3e-05,3,29
10633,8e-05,4e-05,2e-05,1e-05,-3e-05,-4e-05,-2e-05,3e-05,3,29
10634,-7e-05,0,-2e-05,1e-05,5e-05,2e-05,1e-05,0,3,29
10635,-7e-05,0,-2e-05,1e-05,5e-05,2e-05,1e-05,0,3,29
10636,-7e-05,0,-2e-05,1e-05,5e-05,2e-05,1e-05,0,3,29
10638,-7e-05,0,-2e-05,1e-05,5e-05,2e-05,1e-05,0,3,29
10640,-7e-05,0,-2e-05,1e-05,5e-05,2e-05,1e-05,0,3,29
10641,-7e-05,0,-2e-05,1e-05,5e-05,2e-05,1e-05,0,3,29
10642,-7e-05,0,-2e-05,1e-05,5e-05,2e-05,1e-05,0,3,29
10643,-7e-05,0,-2e-05,1e-05,5e-05,2e-05,1e-05,0,3,29
10644,-7e-05,0,-2e-05,1e-05,5e-05,2e-05,1e-05,0,3,29
10645,-7e-05,0,-2e-05,1e-05,5e-05,2e-05,1e-05,0,3,29
10646,-7e-05,0,-2e-05,1e-05,5e-05,2e-05,1e-05,0,3,29
10647,-7e-05,0,-2e-05,1e-05,5e-05,2e-05,1e-05,0,3,29
10648,-7e-05,0,-2e-05,1e-05,5e-05,2e-05,1e-05,0,3,29
10649,-7e-05,0,-2e-05,1e-05,5e-05,2e-05,1e-05,0,3,29
10650,-7e-05,0,-2e-05,1e-05,5e-05,2e-05,1e-05,0,3,29
10651,-7e-05,0,-2e-05,1e-05,5e-05,2e-05,1e-05,0,3,29
10652,-7e-05,0,-2e-05,1e-05,5e-05,2e-05,1e-05,0,3,29
10653,-7e-05,0,-2e-05,1e-05,5e-05,2e-05,1e-05,0,3,29
10654,-7e-05,0,-2e-05,1e-05,5e-05,2e-05,1e-05,0,3,29
10655,-7e-05,0,-2e-05,1e-05,5e-05,2e-05,1e-05,0,3,29
10656,-7e-05,0,-2e-05,1e-05,5e-05,2e-05,1e-05,0,3,29
10657,4e-05,1e-05,-2e-05,-3e-05,-1e-05,-3e-05,-1e-05,-7e-05,3,29
10658,0.00014,4e-05,-3e-05,-4e-05,-6e-05,-4e-05,1e-05,5e-05,3,29
10659,0.00014,4e-05,-3e-05,-4e-05,-6e-05,-4e-05,1e-05,5e-05,3,29
10660,0.00014,4e-05,-3e-05,-4e-05,-6e-05,-4e-05,1e-05,5e-05,3,29
10661,0.00014,4e-05,-3e-05,-4e-05,-6e-05,-4e-05,1e-05,5e-05,3,29
10662,0.00014,4e-05,-3e-05,-4e-05,-6e-05,-4e-05,1e-05,5e-05,3,29
10663,0.00014,4e-05,-3e-05,-4e-05,-6e-05,-4e-05,1e-05,5e-05,3,29
10664,0.00014,4e-05,-3e-05,-4e-05,-6e-05,-4e-05,1e-05,5e-05,3,29
10665,0.00014,4e-05,-3e-05,-4e-05,-6e-05,-4e-05,1e-05,5e-05,3,29
10666,0.00014,4e-05,-3e-05,-4e-05,-6e-05,-4e-05,1e-05,5e-05,3,29
10667,0.00014,4e-05,-3e-05,-4e-05,-6e-05,-4e-05,1e-05,5e-05,3,29
10668,0.00014,4e-05,-3e-05,-4e-05,-6e-05,-4e-05,1e-05,5e-05,3,29
10669,0.00014,4e-05,-3e-05,-4e-05,-6e-05,-4e-05,1e-05,5e-05,3,29
10670,0.00014,4e-05,-3e-05,-4e-05,-6e-05,-4e-05,1e-05,5e-05,3,29
10671,0.00014,4e-05,-3e-05,-4e-05,-6e-05,-4e-05,1e-05,5e-05,3,29
10672,0.00014,4e-05,-3e-05,-4e-05,-6e-05,-4e-05,1e-05,5e-05,3,29
10673,0.00014,4e-05,-3e-05,-4e-05,-6e-05,-4e-05,1e-05,5e-05,3,29
10674,0.00014,4e-05,-3e-05,-4e-05,-6e-05,-4e-05,1e-05,5e-05,3,29
10675,0.00014,4e-05,-3e-05,-4e-05,-6e-05,-4e-05,1e-05,5e-05,3,29
10676,0.00014,4e-05,-3e-05,-4e-05,-6e-05,-4e-05,1e-05,5e-05,3,29
10677,0.00014,4e-05,-3e-05,-4e-05,-6e-05,-4e-05,1e-05,5e-05,3,29
10678,0.00014,4e-05,-3e-05,-4e-05,-6e-05,-4e-05,1e-05,5e-05,3,29
10679,6e-05,4e-05,4e-05,2e-05,3e-05,0,-2e-05,4e-05,3,29
10680,-6e-05,-5e-05,-3e-05,2e-05,8e-05,-0.00013,0,-1e-05,3,29
10681,-6e-05,-5e-05,-3e-05,2e-05,8e-05,-0.00013,0,-1e-05,3,29
10682,-6e-05,-5e-05,-3e-05,2e-05,8e-05,-0.00013,0,-1e-05,3,29
10683,-6e-05,-5e-05,-3e-05,2e-05,8e-05,-0.00013,0,-1e-05,3,29
10684,-6e-05,-5e-05,-3e-05,2e-05,8e-05,-0.00013,0,-1e-05,3,29
10685,-6e-05,-5e-05,-3e-05,2e-05,8e-05,-0.00013,0,-1e-05,3,29
10686,-6e-05,-5e-05,-3e-05,2e-05,8e-05,-0.00013,0,-1e-05,3,29
10688,-6e-05,-5e-05,-3e-05,2e-05,8e-05,-0.00013,0,-1e-05,3,29
10689,-6e-05,-5e-05,-3e-05,2e-05,8e-05,-0.00013,0,-1e-05,3,29
10690,-6e-05,-5e-05,-3e-05,2e-05,8e-05,-0.00013,0,-1e-05,3,29
10691,-6e-05,-5e-05,-3e-05,2e-05,8e-05,-0.00013,0,-1e-05,3,29
10692,-6e-05,-5e-05,-3e-05,2e-05,8e-05,-0.00013,0,-1e-05,3,29
10693,-6e-05,-5e-05,-3e-05,2e-05,8e-05,-0.00013,0,-1e-05,3,29
10694,3e-05,0,-2e-05,-1e-05,-1e-05,5e-05,1e-05,3e-05,3,29
10695,-0.00019,-8e-05,-6e-05,-9e-05,-0.0001,-8e-05,-8e-05,-0.00021,3,29
10696,-0.00019,-8e-05,-6e-05,-9e-05,-0.0001,-8e-05,-8e-05,-0.00021,3,29
10697,-0.00019,-8e-05,-6e-05,-9e-05,-0.0001,-8e-05,-8e-05,-0.00021,3,29
10698,-0.00019,-8e-05,-6e-05,-9e-05,-0.0001,-8e-05,-8e-05,-0.00021,3,29
10699,-0.00019,-8e-05,-6e-05,-9e-05,-0.0001,-8e-05,-8e-05,-0.00021,3,29
10700,-0.00019,-8e-05,-6e-05,-9e-05,-0.0001,-8e-05,-8e-05,-0.00021,3,29
10701,-0.00019,-8e-05,-6e-05,-9e-05,-0.0001,-8e-05,-8e-05,-0.00021,3,29
10702,-0.00019,-8e-05,-6e-05,-9e-05,-0.0001,-8e-05,-8e-05,-0.00021,3,29
10703,-0.00019,-8e-05,-6e-05,-9e-05,-0.0001,-8e-05,-8e-05,-0.00021,3,29
10704,-0.00019,-8e-05,-6e-05,-9e-05,-0.0001,-8e-05,-8e-05,-0.00021,3,29
10705,-0.00019,-8e-05,-6e-05,-9e-05,-0.0001,-8e-05,-8e-05,-0.00021,3,29
10706,-0.00019,-8e-05,-6e-05,-9e-05,-0.0001,-8e-05,-8e-05,-0.00021,3,29
10707,-0.00019,-8e-05,-6e-05,-9e-05,-0.0001,-8e-05,-8e-05,-0.00021,3,29
10708,-0.00019,-8e-05,-6e-05,-9e-05,-0.0001,-8e-05,-8e-05,-0.00021,3,29
10709,-0.00019,-8e-05,-6e-05,-9e-05,-0.0001,-8e-05,-8e-05,-0.00021,3,29
10710,-0.00019,-8e-05,-6e-05,-9e-05,-0.0001,-8e-05,-8e-05,-0.00021,3,29
10711,-0.00019,-8e-05,-6e-05,-9e-05,-0.0001,-8e-05,-8e-05,-0.00021,3,29
10712,-0.00019,-8e-05,-6e-05,-9e-05,-0.0001,-8e-05,-8e-05,-0.00021,3,29
10713,-0.00019,-8e-05,-6e-05,-9e-05,-0.0001,-8e-05,-8e-05,-0.00021,3,29
10715,-0.00019,-8e-05,-6e-05,-9e-05,-0.0001,-8e-05,-8e-05,-0.00021,3,29
10716,-0.00019,-8e-05,-6e-05,-9e-05,-0.0001,-8e-05,-8e-05,-0.00021,3,29
10717,0,-2e-05,-1e-05,-5e-05,-4e-05,-2e-05,1e-05,2e-05,3,29
10718,-2e-05,1e-05,4e-05,1e-05,3e-05,3e-05,3e-05,7e-05,3,29
10719,-2e-05,1e-05,4e-05,1e-05,3e-05,3e-05,3e-05,7e-05,3,29
10720,-2e-05,1e-05,4e-05,1e-05,3e-05,3e-05,3e-05,7e-05,3,29
10721,-2e-05,1e-05,4e-05,1e-05,3e-05,3e-05,3e-05,7e-05,3,29
10722,-2e-05,1e-05,4e-05,1e-05,3e-05,3e-05,3e-05,7e-05,3,29
10723,-2e-05,1e-05,4e-05,1e-05,3e-05,3e-05,3e-05,7e-05,3,29
10724,-2e-05,1e-05,4e-05,1e-05,3e-05,3e-05,3e-05,7e-05,3,29
10725,-2e-05,1e-05,4e-05,1e-05,3e-05,3e-05,3e-05,7e-05,3,29
10726,-2e-05,1e-05,4e-05,1e-05,3e-05,3e-05,3e-05,7e-05,3,29
10727,-2e-05,1e-05,4e-05,1e-05,3e-05,3e-05,3e-05,7e-05,3,29
10728,-2e-05,1e-05,4e-05,1e-05,3e-05,3e-05,3e-05,7e-05,3,29
10729,-2e-05,1e-05,4e-05,1e-05,3e-05,3e-05,3e-05,7e-05,3,29
10730,-2e-05,1e-05,4e-05,1e-05,3e-05,3e-05,3e-05,7e-05,3,29
10731,-2e-05,1e-05,4e-05,1e-05,3e-05,3e-05,3e-05,7e-05,3,29
10732,-2e-05,1e-05,4e-05,1e-05,3e-05,3e-05,3e-05,7e-05,3,29
10733,-2e-05,1e-05,4e-05,1e-05,3e-05,3e-05,3e-05,7e-05,3,29
10734,-2e-05,1e-05,4e-05,1e-05,3e-05,3e-05,3e-05,7e-05,3,29
10735,-2e-05,1e-05,4e-05,1e-05,3e-05,3e-05,3e-05,7e-05,3,29
10736,-2e-05,1e-05,4e-05,1e-05,3e-05,3e-05,3e-05,7e-05,3,29
10738,-2e-05,1e-05,4e-05,1e-05,3e-05,3e-05,3e-05,7e-05,3,29
10739,-9e-05,-4e-05,-2e-05,-1e-05,-2e-05,1e-05,0,-0.00015,3,29
10740,-0.0001,1e-05,-1e-05,1e-05,1e-05,0,0,3e-05,3,29
10741,-0.0001,1e-05,-1e-05,1e-05,1e-05,0,0,3e-05,3,29
10742,-0.0001,1e-05,-1e-05,1e-05,1e-05,0,0,3e-05,3,29
10743,-0.0001,1e-05,-1e-05,1e-05,1e-05,0,0,3e-05,3,29
10744,-0.0001,1e-05,-1e-05,1e-05,1e-05,0,0,3e-05,3,29
10745,-0.0001,1e-05,-1e-05,1e-05,1e-05,0,0,3e-05,3,29
10746,-0.0001,1e-05,-1e-05,1e-05,1e-05,0,0,3e-05,3,29
10747,-0.0001,1e-05,-1e-05,1e-05,1e-05,0,0,3e-05,3,29
10748,-0.0001,1e-05,-1e-05,1e-05,1e-05,0,0,3e-05,3,29
10749,-0.0001,1e-05,-1e-05,1e-05,1e-05,0,0,3e-05,3,29
10750,-0.0001,1e-05,-1e-05,1e-05,1e-05,0,0,3e-05,3,29
10751,-0.0001,1e-05,-1e-05,1e-05,1e-05,0,0,3e-05,3,29
10752,-0.0001,1e-05,-1e-05,1e-05,1e-05,0,0,3e-05,3,29
10753,-3e-05,0,5e-05,-1e-05,-5e-05,-4e-05,-1e-05,-3e-05,3,29
10754,0,-5e-05,-5e-05,2e-05,2e-05,3e-05,0,-2e-05,3,29
10755,0,-5e-05,-5e-05,2e-05,2e-05,3e-05,0,-2e-05,3,29
10756,0,-5e-05,-5e-05,2e-05,2e-05,3e-05,0,-2e-05,3,29
10757,0,-5e-05,-5e-05,2e-05,2e-05,3e-05,0,-2e-05,3,29
10758,0,-5e-05,-5e-05,2e-05,2e-05,3e-05,0,-2e-05,3,29
10759,0,-5e-05,-5e-05,2e-05,2e-05,3e-05,0,-2e-05,3,29
10760,0,-5e-05,-5e-05,2e-05,2e-05,3e-05,0,-2e-05,3,29
10761,0,-5e-05,-5e-05,2e-05,2e-05,3e-05,0,-2e-05,3,29
10762,0,-5e-05,-5e-05,2e-05,2e-05,3e-05,0,-2e-05,3,29
10763,0,-5e-05,-5e-05,2e-05,2e-05,3e-05,0,-2e-05,3,29
10764,0,-5e-05,-5e-05,2e-05,2e-05,3e-05,0,-2e-05,3,29
10765,0,-5e-05,-5e-05,2e-05,2e-05,3e-05,0,-2e-05,3,29
10766,0,-5e-05,-5e-05,2e-05,2e-05,3e-05,0,-2e-05,3,29
10767,0,-5e-05,-5e-05,2e-05,2e-05,3e-05,0,-2e-05,3,29
10768,0,-5e-05,-5e-05,2e-05,2e-05,3e-05,0,-2e-05,3,29
10769,0,-5e-05,-5e-05,2e-05,2e-05,3e-05,0,-2e-05,3,29
10770,0,-5e-05,-5e-05,2e-05,2e-05,3e-05,0,-2e-05,3,29
10771,0,-5e-05,-5e-05,2e-05,2e-05,3e-05,0,-2e-05,3,29
10772,0,-5e-05,-5e-05,2e-05,2e-05,3e-05,0,-2e-05,3,29
10773,0,-5e-05,-5e-05,2e-05,2e-05,3e-05,0,-2e-05,3,29
10774,0,-5e-05,-5e-05,2e-05,2e-05,3e-05,0,-2e-05,3,29
10775,0,-5e-05,-5e-05,2e-05,2e-05,3e-05,0,-2e-05,3,29
10776,-1e-05,-2e-05,-2e-05,-3e-05,-4e-05,-8e-05,-7e-05,1e-05,3,29
10777,-1e-05,-2e-05,-2e-05,-3e-05,-4e-05,-8e-05,-7e-05,1e-05,3,29
10778,-1e-05,-2e-05,-2e-05,-3e-05,-4e-05,-8e-05,-7e-05,1e-05,3,29
10779,-1e-05,-2e-05,-2e-05,-3e-05,-4e-05,-8e-05,-7e-05,1e-05,3,29
10780,-1e-05,-2e-05,-2e-05,-3e-05,-4e-05,-8e-05,-7e-05,1e-05,3,29
10781,-1e-05,-2e-05,-2e-05,-3e-05,-4e-05,-8e-05,-7e-05,1e-05,3,29
10782,-1e-05,-2e-05,-2e-05,-3e-05,-4e-05,-8e-05,-7e-05,1e-05,3,29
10783,0.0001,2e-05,-2e-05,-2e-05,6e-05,-8e-05,5e-05,5e-05,3,29
10784,-3e-05,2e-05,0,0,-2e-05,0.0001,-2e-05,-3e-05,3,29
10785,-3e-05,2e-05,0,0,-2e-05,0.0001,-2e-05,-3e-05,3,29
10786,-3e-05,2e-05,0,0,-2e-05,0.0001,-2e-05,-3e-05,3,29
10788,-3e-05,2e-05,0,0,-2e-05,0.0001,-2e-05,-3e-05,3,29
10789,-3e-05,2e-05,0,0,-2e-05,0.0001,-2e-05,-3e-05,3,29
10790,-3e-05,2e-05,0,0,-2e-05,0.0001,-2e-05,-3e-05,3,29
10791,-3e-05,2e-05,0,0,-2e-05,0.0001,-2e-05,-3e-05,3,29
10792,-3e-05,2e-05,0,0,-2e-05,0.0001,-2e-05,-3e-05,3,29
10793,-3e-05,2e-05,0,0,-2e-05,0.0001,-2e-05,-3e-05,3,29
10794,-3e-05,2e-05,0,0,-2e-05,0.0001,-2e-05,-3e-05,3,29
10795,-3e-05,2e-05,0,0,-2e-05,0.0001,-2e-05,-3e-05,3,29
10796,-3e-05,2e-05,0,0,-2e-05,0.0001,-2e-05,-3e-05,3,29
10797,-3e-05,2e-05,0,0,-2e-05,0.0001,-2e-05,-3e-05,3,29
10798,-3e-05,2e-05,0,0,-2e-05,0.0001,-2e-05,-3e-05,3,29
10799,-1e-05,-1e-05,0,1e-05,5e-05,-2e-05,-3e-05,-3e-05,3,29
10800,-4e-05,-3e-05,0,-3e-05,-6e-05,-5e-05,-2e-05,1e-05,3,29
10801,-4e-05,-3e-05,0,-3e-05,-6e-05,-5e-05,-2e-05,1e-05,3,29
10802,-4e-05,-3e-05,0,-3e-05,-6e-05,-5e-05,-2e-05,1e-05,3,29
10803,-4e-05,-3e-05,0,-3e-05,-6e-05,-5e-05,-2e-05,1e-05,3,29
10804,-4e-05,-3e-05,0,-3e-05,-6e-05,-5e-05,-2e-05,1e-05,3,29
10805,-4e-05,-3e-05,0,-3e-05,-6e-05,-5e-05,-2e-05,1e-05,3,29
10806,-4e-05,-3e-05,0,-3e-05,-6e-05,-5e-05,-2e-05,1e-05,3,29
10807,-4e-05,-3e-05,0,-3e-05,-6e-05,-5e-05,-2e-05,1e-05,3,29
10808,-4e-05,-3e-05,0,-3e-05,-6e-05,-5e-05,-2e-05,1e-05,3,29
10809,-4e-05,-3e-05,0,-3e-05,-6e-05,-5e-05,-2e-05,1e-05,3,29
10810,-4e-05,-3e-05,0,-3e-05,-6e-05,-5e-05,-2e-05,1e-05,3,29
10811,-4e-05,-3e-05,0,-3e-05,-6e-05,-5e-05,-2e-05,1e-05,3,29
10812,-4e-05,-3e-05,0,-3e-05,-6e-05,-5e-05,-2e-05,1e-05,3,29
10813,-4e-05,-3e-05,0,-3e-05,-6e-05,-5e-05,-2e-05,1e-05,3,29
10814,3e-05,-1e-05,-4e-05,-8e-05,-0.0001,-2e-05,1e-05,-8e-05,3,29
10815,3e-05,-1e-05,-4e-05,-8e-05,-0.0001,-2e-05,1e-05,-8e-05,3,29
10816,3e-05,-1e-05,-4e-05,-8e-05,-0.0001,-2e-05,1e-05,-8e-05,3,29
10817,3e-05,-1e-05,-4e-05,-8e-05,-0.0001,-2e-05,1e-05,-8e-05,3,29
10818,3e-05,-1e-05,-4e-05,-8e-05,-0.0001,-2e-05,1e-05,-8e-05,3,29
10819,3e-05,-1e-05,-4e-05,-8e-05,-0.0001,-2e-05,1e-05,-8e-05,3,29
10820,3e-05,-1e-05,-4e-05,-8e-05,-0.0001,-2e-05,1e-05,-8e-05,3,29
10821,3e-05,-1e-05,-4e-05,-8e-05,-0.0001,-2e-05,1e-05,-8e-05,3,29
10822,3e-05,-1e-05,-4e-05,-8e-05,-0.0001,-2e-05,1e-05,-8e-05,3,29
10823,3e-05,-1e-05,-4e-05,-8e-05,-0.0001,-2e-05,1e-05,-8e-05,3,29
10824,3e-05,-1e-05,-4e-05,-8e-05,-0.0001,-2e-05,1e-05,-8e-05,3,29
10825,3e-05,-1e-05,-4e-05,-8e-05,-0.0001,-2e-05,1e-05,-8e-05,3,29
10826,3e-05,-1e-05,-4e-05,-8e-05,-0.0001,-2e-05,1e-05,-8e-05,3,29
10827,3e-05,-1e-05,-4e-05,-8e-05,-0.0001,-2e-05,1e-05,-8e-05,3,29
10828,3e-05,-1e-05,-4e-05,-8e-05,-0.0001,-2e-05,1e-05,-8e-05,3,29
10829,3e-05,-1e-05,-4e-05,-8e-05,-0.0001,-2e-05,1e-05,-8e-05,3,29
10830,3e-05,-1e-05,-4e-05,-8e-05,-0.0001,-2e-05,1e-05,-8e-05,3,29
10831,3e-05,-1e-05,-4e-05,-8e-05,-0.0001,-2e-05,1e-05,-8e-05,3,29
10832,3e-05,-1e-05,-4e-05,-8e-05,-0.0001,-2e-05,1e-05,-8e-05,3,29
10833,3e-05,-1e-05,-4e-05,-8e-05,-0.0001,-2e-05,1e-05,-8e-05,3,29
10834,3e-05,-1e-05,-4e-05,-8e-05,-0.0001,-2e-05,1e-05,-8e-05,3,29
10835,3e-05,-1e-05,-4e-05,-8e-05,-0.0001,-2e-05,1e-05,-8e-05,3,29
10836,3e-05,-1e-05,-4e-05,-8e-05,-0.0001,-2e-05,1e-05,-8e-05,3,29
10838,6e-05,0,3e-05,2e-05,4e-05,-6e-05,-2e-05,4e-05,3,29
10839,6e-05,0,3e-05,2e-05,4e-05,-6e-05,-2e-05,4e-05,3,29
10840,6e-05,0,3e-05,2e-05,4e-05,-6e-05,-2e-05,4e-05,3,29
10841,6e-05,0,3e-05,2e-05,4e-05,-6e-05,-2e-05,4e-05,3,29
10842,6e-05,0,3e-05,2e-05,4e-05,-6e-05,-2e-05,4e-05,3,29
10843,6e-05,0,3e-05,2e-05,4e-05,-6e-05,-2e-05,4e-05,3,29
10844,6e-05,0,3e-05,2e-05,4e-05,-6e-05,-2e-05,4e-05,3,29
10845,6e-05,0,3e-05,2e-05,4e-05,-6e-05,-2e-05,4e-05,3,29
10846,6e-05,0,3e-05,2e-05,4e-05,-6e-05,-2e-05,4e-05,3,29
10847,6e-05,0,3e-05,2e-05,4e-05,-6e-05,-2e-05,4e-05,3,29
10848,6e-05,0,3e-05,2e-05,4e-05,-6e-05,-2e-05,4e-05,3,29
10849,6e-05,0,3e-05,2e-05,4e-05,-6e-05,-2e-05,4e-05,3,29
10850,6e-05,0,3e-05,2e-05,4e-05,-6e-05,-2e-05,4e-05,3,29
10851,6e-05,0,3e-05,2e-05,4e-05,-6e-05,-2e-05,4e-05,3,29
10852,6e-05,0,3e-05,2e-05,4e-05,-6e-05,-2e-05,4e-05,3,29
10853,6e-05,0,3e-05,2e-05,4e-05,-6e-05,-2e-05,4e-05,3,29
10854,6e-05,0,3e-05,2e-05,4e-05,-6e-05,-2e-05,4e-05,3,29
10855,6e-05,0,3e-05,2e-05,4e-05,-6e-05,-2e-05,4e-05,3,29
10856,6e-05,0,3e-05,2e-05,4e-05,-6e-05,-2e-05,4e-05,3,29
10857,6e-05,0,3e-05,2e-05,4e-05,-6e-05,-2e-05,4e-05,3,29
10858,6e-05,0,3e-05,2e-05,4e-05,-6e-05,-2e-05,4e-05,3,29
10859,0,1e-05,1e-05,2e-05,-1e-05,-3e-05,-2e-05,1e-05,3,29
10860,6e-05,-2e-05,-2e-05,-1e-05,-7e-05,-9e-05,-5e-05,4e-05,3,29
10861,6e-05,-2e-05,-2e-05,-1e-05,-7e-05,-9e-05,-5e-05,4e-05,3,29
10862,6e-05,-2e-05,-2e-05,-1e-05,-7e-05,-9e-05,-5e-05,4e-05,3,29
10863,6e-05,-2e-05,-2e-05,-1e-05,-7e-05,-9e-05,-5e-05,4e-05,3,29
10864,6e-05,-2e-05,-2e-05,-1e-05,-7e-05,-9e-05,-5e-05,4e-05,3,29
10865,6e-05,-2e-05,-2e-05,-1e-05,-7e-05,-9e-05,-5e-05,4e-05,3,29
10866,6e-05,-2e-05,-2e-05,-1e-05,-7e-05,-9e-05,-5e-05,4e-05,3,29
10867,6e-05,-2e-05,-2e-05,-1e-05,-7e-05,-9e-05,-5e-05,4e-05,3,29
10868,6e-05,-2e-05,-2e-05,-1e-05,-7e-05,-9e-05,-5e-05,4e-05,3,29
10869,6e-05,-2e-05,-2e-05,-1e-05,-7e-05,-9e-05,-5e-05,4e-05,3,29
10870,6e-05,-2e-05,-2e-05,-1e-05,-7e-05,-9e-05,-5e-05,4e-05,3,29
10871,6e-05,-2e-05,-2e-05,-1e-05,-7e-05,-9e-05,-5e-05,4e-05,3,29
10872,6e-05,-2e-05,-2e-05,-1e-05,-7e-05,-9e-05,-5e-05,4e-05,3,29
10873,6e-05,-2e-05,-2e-05,-1e-05,-7e-05,-9e-05,-5e-05,4e-05,3,29
10874,6e-05,-2e-05,-2e-05,-1e-05,-7e-05,-9e-05,-5e-05,4e-05,3,29
10875,6e-05,-2e-05,-2e-05,-1e-05,-7e-05,-9e-05,-5e-05,4e-05,3,29
10876,6e-05,-2e-05,-2e-05,-1e-05,-7e-05,-9e-05,-5e-05,4e-05,3,29
10877,6e-05,-2e-05,-2e-05,-1e-05,-7e-05,-9e-05,-5e-05,4e-05,3,29
10878,6e-05,-2e-05,-2e-05,-1e-05,-7e-05,-9e-05,-5e-05,4e-05,3,29
10879,6e-05,-2e-05,-2e-05,-1e-05,-7e-05,-9e-05,-5e-05,4e-05,3,29
10880,6e-05,-2e-05,-2e-05,-1e-05,-7e-05,-9e-05,-5e-05,4e-05,3,29
10881,6e-05,-2e-05,-2e-05,-1e-05,-7e-05,-9e-05,-5e-05,4e-05,3,29
10882,-7e-05,0,1e-05,3e-05,8e-05,6e-05,-3e-05,-6e-05,3,29
10883,-7e-05,0,1e-05,3e-05,8e-05,6e-05,-3e-05,-6e-05,3,29
10885,-7e-05,0,1e-05,3e-05,8e-05,6e-05,-3e-05,-6e-05,3,29
10886,-7e-05,0,1e-05,3e-05,8e-05,6e-05,-3e-05,-6e-05,3,29
10888,-7e-05,0,1e-05,3e-05,8e-05,6e-05,-3e-05,-6e-05,3,29
10889,-7e-05,0,1e-05,3e-05,8e-05,6e-05,-3e-05,-6e-05,3,29
10890,-7e-05,0,1e-05,3e-05,8e-05,6e-05,-3e-05,-6e-05,3,29
10891,-7e-05,0,1e-05,3e-05,8e-05,6e-05,-3e-05,-6e-05,3,29
10892,-7e-05,0,1e-05,3e-05,8e-05,6e-05,-3e-05,-6e-05,3,29
10893,-7e-05,0,1e-05,3e-05,8e-05,6e-05,-3e-05,-6e-05,3,29
10894,-7e-05,0,1e-05,3e-05,8e-05,6e-05,-3e-05,-6e-05,3,29
10895,-7e-05,0,1e-05,3e-05,8e-05,6e-05,-3e-05,-6e-05,3,29
10896,-7e-05,0,1e-05,3e-05,8e-05,6e-05,-3e-05,-6e-05,3,29
10897,2e-05,-2e-05,-7e-05,1e-05,-2e-05,8e-05,1e-05,-3e-05,3,29
10898,0,-2e-05,-2e-05,-1e-05,0,-8e-05,-3e-05,7e-05,3,29
10899,0,-2e-05,-2e-05,-1e-05,0,-8e-05,-3e-05,7e-05,3,29
10900,0,-2e-05,-2e-05,-1e-05,0,-8e-05,-3e-05,7e-05,3,29
10901,0,-2e-05,-2e-05,-1e-05,0,-8e-05,-3e-05,7e-05,3,29
10902,0,-2e-05,-2e-05,-1e-05,0,-8e-05,-3e-05,7e-05,3,29
10903,0,-2e-05,-2e-05,-1e-05,0,-8e-05,-3e-05,7e-05,3,29
10904,0,-2e-05,-2e-05,-1e-05,0,-8e-05,-3e-05,7e-05,3,29
10905,0,-2e-05,-2e-05,-1e-05,0,-8e-05,-3e-05,7e-05,3,29
10906,0,-2e-05,-2e-05,-1e-05,0,-8e-05,-3e-05,7e-05,3,29
10907,0,-2e-05,-2e-05,-1e-05,0,-8e-05,-3e-05,7e-05,3,29
10908,0,-2e-05,-2e-05,-1e-05,0,-8e-05,-3e-05,7e-05,3,29
10909,0,-2e-05,-2e-05,-1e-05,0,-8e-05,-3e-05,7e-05,3,29
10910,0,-2e-05,-2e-05,-1e-05,0,-8e-05,-3e-05,7e-05,3,29
10911,0,-2e-05,-2e-05,-1e-05,0,-8e-05,-3e-05,7e-05,3,29
10912,0,-2e-05,-2e-05,-1e-05,0,-8e-05,-3e-05,7e-05,3,29
10913,0,-2e-05,-2e-05,-1e-05,0,-8e-05,-3e-05,7e-05,3,29
10914,0,-2e-05,-2e-05,-1e-05,0,-8e-05,-3e-05,7e-05,3,29
10915,0,-2e-05,-2e-05,-1e-05,0,-8e-05,-3e-05,7e-05,3,29
10916,0,-2e-05,-2e-05,-1e-05,0,-8e-05,-3e-05,7e-05,3,29
10917,0,-2e-05,-2e-05,-1e-05,0,-8e-05,-3e-05,7e-05,3,29
10918,0,-2e-05,-2e-05,-1e-05,0,-8e-05,-3e-05,7e-05,3,29
10919,9e-05,3e-05,6e-05,2e-05,0.00013,9e-05,3e-05,6e-05,3,29
10920,4e-05,0,-9e-05,-3e-05,5e-05,4e-05,0,-2e-05,3,29
10921,4e-05,0,-9e-05,-3e-05,5e-05,4e-05,0,-2e-05,3,29
10922,4e-05,0,-9e-05,-3e-05,5e-05,4e-05,0,-2e-05,3,29
10923,4e-05,0,-9e-05,-3e-05,5e-05,4e-05,0,-2e-05,3,29
10924,4e-05,0,-9e-05,-3e-05,5e-05,4e-05,0,-2e-05,3,29
10925,4e-05,0,-9e-05,-3e-05,5e-05,4e-05,0,-2e-05,3,29
10926,4e-05,0,-9e-05,-3e-05,5e-05,4e-05,0,-2e-05,3,29
10927,4e-05,0,-9e-05,-3e-05,5e-05,4e-05,0,-2e-05,3,29
10928,4e-05,0,-9e-05,-3e-05,5e-05,4e-05,0,-2e-05,3,29
10930,4e-05,0,-9e-05,-3e-05,5e-05,4e-05,0,-2e-05,3,29
10931,4e-05,0,-9e-05,-3e-05,5e-05,4e-05,0,-2e-05,3,29
10932,4e-05,0,-9e-05,-3e-05,5e-05,4e-05,0,-2e-05,3,29
10933,-8e-05,0,-2e-05,-3e-05,-9e-05,-0.00015,-2e-05,-3e-05,3,29
10934,-8e-05,0,-2e-05,-3e-05,-9e-05,-0.00015,-2e-05,-3e-05,3,29
10935,-8e-05,0,-2e-05,-3e-05,-9e-05,-0.00015,-2e-05,-3e-05,3,29
10936,-8e-05,0,-2e-05,-3e-05,-9e-05,-0.00015,-2e-05,-3e-05,3,29
10938,-8e-05,0,-2e-05,-3e-05,-9e-05,-0.00015,-2e-05,-3e-05,3,29
10939,-8e-05,0,-2e-05,-3e-05,-9e-05,-0.00015,-2e-05,-3e-05,3,29
10940,-8e-05,0,-2e-05,-3e-05,-9e-05,-0.00015,-2e-05,-3e-05,3,29
10941,5e-05,4e-05,2e-05,-3e-05,1e-05,6e-05,0.00011,6e-05,3,29
10942,5e-05,4e-05,2e-05,-3e-05,1e-05,6e-05,0.00011,6e-05,3,29
10943,5e-05,4e-05,2e-05,-3e-05,1e-05,6e-05,0.00011,6e-05,3,29
10944,5e-05,4e-05,2e-05,-3e-05,1e-05,6e-05,0.00011,6e-05,3,29
10945,5e-05,4e-05,2e-05,-3e-05,1e-05,6e-05,0.00011,6e-05,3,29
10946,5e-05,4e-05,2e-05,-3e-05,1e-05,6e-05,0.00011,6e-05,3,29
10947,5e-05,4e-05,2e-05,-3e-05,1e-05,6e-05,0.00011,6e-05,3,29
10948,5e-05,4e-05,2e-05,-3e-05,1e-05,6e-05,0.00011,6e-05,3,29
10949,5e-05,4e-05,2e-05,-3e-05,1e-05,6e-05,0.00011,6e-05,3,29
10950,5e-05,4e-05,2e-05,-3e-05,1e-05,6e-05,0.00011,6e-05,3,29
10951,5e-05,4e-05,2e-05,-3e-05,1e-05,6e-05,0.00011,6e-05,3,29
10952,5e-05,4e-05,2e-05,-3e-05,1e-05,6e-05,0.00011,6e-05,3,29
10953,5e-05,4e-05,2e-05,-3e-05,1e-05,6e-05,0.00011,6e-05,3,29
10954,5e-05,4e-05,2e-05,-3e-05,1e-05,6e-05,0.00011,6e-05,3,29
10955,5e-05,4e-05,2e-05,-3e-05,1e-05,6e-05,0.00011,6e-05,3,29
10956,5e-05,4e-05,2e-05,-3e-05,1e-05,6e-05,0.00011,6e-05,3,29
10957,2e-05,1e-05,-7e-05,-2e-05,-3e-05,-7e-05,0,0,3,29
10958,5e-05,-1e-05,1e-05,0,-7e-05,-3e-05,2e-05,6e-05,3,29
10959,5e-05,-1e-05,1e-05,0,-7e-05,-3e-05,2e-05,6e-05,3,29
10960,5e-05,-1e-05,1e-05,0,-7e-05,-3e-05,2e-05,6e-05,3,29
10961,5e-05,-1e-05,1e-05,0,-7e-05,-3e-05,2e-05,6e-05,3,29
10962,5e-05,-1e-05,1e-05,0,-7e-05,-3e-05,2e-05,6e-05,3,29
10963,5e-05,-1e-05,1e-05,0,-7e-05,-3e-05,2e-05,6e-05,3,29
10964,5e-05,-1e-05,1e-05,0,-7e-05,-3e-05,2e-05,6e-05,3,29
10965,5e-05,-1e-05,1e-05,0,-7e-05,-3e-05,2e-05,6e-05,3,29
10966,5e-05,-1e-05,1e-05,0,-7e-05,-3e-05,2e-05,6e-05,3,29
10967,5e-05,-1e-05,1e-05,0,-7e-05,-3e-05,2e-05,6e-05,3,29
10968,5e-05,-1e-05,1e-05,0,-7e-05,-3e-05,2e-05,6e-05,3,29
10969,5e-05,-1e-05,1e-05,0,-7e-05,-3e-05,2e-05,6e-05,3,29
10970,5e-05,-1e-05,1e-05,0,-7e-05,-3e-05,2e-05,6e-05,3,29
10971,5e-05,-1e-05,1e-05,0,-7e-05,-3e-05,2e-05,6e-05,3,29
10972,5e-05,-1e-05,1e-05,0,-7e-05,-3e-05,2e-05,6e-05,3,29
10973,5e-05,-1e-05,1e-05,0,-7e-05,-3e-05,2e-05,6e-05,3,29
10974,5e-05,-1e-05,1e-05,0,-7e-05,-3e-05,2e-05,6e-05,3,29
10975,5e-05,-1e-05,1e-05,0,-7e-05,-3e-05,2e-05,6e-05,3,29
10976,5e-05,-1e-05,1e-05,0,-7e-05,-3e-05,2e-05,6e-05,3,29
10977,5e-05,-1e-05,1e-05,0,-7e-05,-3e-05,2e-05,6e-05,3,29
10978,5e-05,-1e-05,1e-05,0,-7e-05,-3e-05,2e-05,6e-05,3,29
10979,-4e-05,1e-05,2e-05,2e-05,-3e-05,-6e-05,1e-05,3e-05,3,29
10980,-9e-05,-3e-05,0,0,7e-05,3e-05,1e-05,-7e-05,3,29
10981,-9e-05,-3e-05,0,0,7e-05,3e-05,1e-05,-7e-05,3,29
10982,-9e-05,-3e-05,0,0,7e-05,3e-05,1e-05,-7e-05,3,29
10983,-9e-05,-3e-05,0,0,7e-05,3e-05,1e-05,-7e-05,3,29
10984,-9e-05,-3e-05,0,0,7e-05,3e-05,1e-05,-7e-05,3,29
10985,-9e-05,-3e-05,0,0,7e-05,3e-05,1e-05,-7e-05,3,29
10986,-9e-05,-3e-05,0,0,7e-05,3e-05,1e-05,-7e-05,3,29
10988,-9e-05,-3e-05,0,0,7e-05,3e-05,1e-05,-7e-05,3,29
10989,-9e-05,-3e-05,0,0,7e-05,3e-05,1e-05,-7e-05,3,29
10990,-9e-05,-3e-05,0,0,7e-05,3e-05,1e-05,-7e-05,3,29
10991,-9e-05,-3e-05,0,0,7e-05,3e-05,1e-05,-7e-05,3,29
10992,-9e-05,-3e-05,0,0,7e-05,3e-05,1e-05,-7e-05,3,29
10993,3e-05,-1e-05,-1e-05,1e-05,-8e-05,5e-05,1e-05,5e-05,3,29
10994,3e-05,-1e-05,-1e-05,1e-05,-8e-05,5e-05,1e-05,5e-05,3,29
10995,3e-05,-1e-05,-1e-05,1e-05,-8e-05,5e-05,1e-05,5e-05,3,29
10996,3e-05,-1e-05,-1e-05,1e-05,-8e-05,5e-05,1e-05,5e-05,3,29
10997,3e-05,-1e-05,-1e-05,1e-05,-8e-05,5e-05,1e-05,5e-05,3,29
10998,3e-05,-1e-05,-1e-05,1e-05,-8e-05,5e-05,1e-05,5e-05,3,29
10999,3e-05,-1e-05,-1e-05,1e-05,-8e-05,5e-05,1e-05,5e-05,3,29
11000,3e-05,-1e-05,-1e-05,1e-05,-8e-05,5e-05,1e-05,5e-05,3,29
11001,2e-05,0,-4e-05,1e-05,0.00012,-1e-05,-2e-05,-2e-05,3,29
11002,2e-05,0,-4e-05,1e-05,0.00012,-1e-05,-2e-05,-2e-05,3,29
11003,2e-05,0,-4e-05,1e-05,0.00012,-1e-05,-2e-05,-2e-05,3,29
11004,2e-05,0,-4e-05,1e-05,0.00012,-1e-05,-2e-05,-2e-05,3,29
11005,2e-05,0,-4e-05,1e-05,0.00012,-1e-05,-2e-05,-2e-05,3,29
11006,2e-05,0,-4e-05,1e-05,0.00012,-1e-05,-2e-05,-2e-05,3,29
11007,2e-05,0,-4e-05,1e-05,0.00012,-1e-05,-2e-05,-2e-05,3,29
11008,2e-05,0,-4e-05,1e-05,0.00012,-1e-05,-2e-05,-2e-05,3,29
11009,2e-05,0,-4e-05,1e-05,0.00012,-1e-05,-2e-05,-2e-05,3,29
11010,2e-05,0,-4e-05,1e-05,0.00012,-1e-05,-2e-05,-2e-05,3,29
11011,2e-05,0,-4e-05,1e-05,0.00012,-1e-05,-2e-05,-2e-05,3,29
11012,2e-05,0,-4e-05,1e-05,0.00012,-1e-05,-2e-05,-2e-05,3,29
11013,2e-05,0,-4e-05,1e-05,0.00012,-1e-05,-2e-05,-2e-05,3,29
11014,2e-05,0,-4e-05,1e-05,0.00012,-1e-05,-2e-05,-2e-05,3,29
11015,2e-05,0,-4e-05,1e-05,0.00012,-1e-05,-2e-05,-2e-05,3,29
11016,2e-05,0,-4e-05,1e-05,0.00012,-1e-05,-2e-05,-2e-05,3,29
11017,1e-05,-4e-05,-3e-05,-7e-05,-6e-05,-8e-05,-4e-05,-7e-05,3,29
11018,-4e-05,-2e-05,3e-05,-5e-05,-9e-05,1e-05,-1e-05,-7e-05,3,29
11019,-4e-05,-2e-05,3e-05,-5e-05,-9e-05,1e-05,-1e-05,-7e-05,3,29
11020,-4e-05,-2e-05,3e-05,-5e-05,-9e-05,1e-05,-1e-05,-7e-05,3,29
11021,-4e-05,-2e-05,3e-05,-5e-05,-9e-05,1e-05,-1e-05,-7e-05,3,29
11022,-4e-05,-2e-05,3e-05,-5e-05,-9e-05,1e-05,-1e-05,-7e-05,3,29
11023,-4e-05,-2e-05,3e-05,-5e-05,-9e-05,1e-05,-1e-05,-7e-05,3,29
11024,-4e-05,-2e-05,3e-05,-5e-05,-9e-05,1e-05,-1e-05,-7e-05,3,29
11025,-4e-05,-2e-05,3e-05,-5e-05,-9e-05,1e-05,-1e-05,-7e-05,3,29
11026,-4e-05,-2e-05,3e-05,-5e-05,-9e-05,1e-05,-1e-05,-7e-05,3,29
11027,-4e-05,-2e-05,3e-05,-5e-05,-9e-05,1e-05,-1e-05,-7e-05,3,29
11028,-4e-05,-2e-05,3e-05,-5e-05,-9e-05,1e-05,-1e-05,-7e-05,3,29
11029,-4e-05,-2e-05,3e-05,-5e-05,-9e-05,1e-05,-1e-05,-7e-05,3,29
11030,-4e-05,-2e-05,3e-05,-5e-05,-9e-05,1e-05,-1e-05,-7e-05,3,29
11031,-4e-05,-2e-05,3e-05,-5e-05,-9e-05,1e-05,-1e-05,-7e-05,3,29
11032,-4e-05,-2e-05,3e-05,-5e-05,-9e-05,1e-05,-1e-05,-7e-05,3,29
11033,-4e-05,-2e-05,3e-05,-5e-05,-9e-05,1e-05,-1e-05,-7e-05,3,29
11034,-4e-05,-2e-05,3e-05,-5e-05,-9e-05,1e-05,-1e-05,-7e-05,3,29
11035,-4e-05,-2e-05,3e-05,-5e-05,-9e-05,1e-05,-1e-05,-7e-05,3,29
11036,-4e-05,-2e-05,3e-05,-5e-05,-9e-05,1e-05,-1e-05,-7e-05,3,29
11038,-4e-05,-2e-05,3e-05,-5e-05,-9e-05,1e-05,-1e-05,-7e-05,3,29
11039,-4e-05,-2e-05,-3e-05,-1e-05,-6e-05,-3e-05,2e-05,-4e-05,3,29
11040,-4e-05,-2e-05,-3e-05,-1e-05,-6e-05,-3e-05,2e-05,-4e-05,3,29
11041,-9e-05,-6e-05,-4e-05,-2e-05,3e-05,-8e-05,-8e-05,-1e-05,3,29
11042,-9e-05,-6e-05,-4e-05,-2e-05,3e-05,-8e-05,-8e-05,-1e-05,3,29
11043,-9e-05,-6e-05,-4e-05,-2e-05,3e-05,-8e-05,-8e-05,-1e-05,3,29
11044,-9e-05,-6e-05,-4e-05,-2e-05,3e-05,-8e-05,-8e-05,-1e-05,3,29
11045,-9e-05,-6e-05,-4e-05,-2e-05,3e-05,-8e-05,-8e-05,-1e-05,3,29
11046,-9e-05,-6e-05,-4e-05,-2e-05,3e-05,-8e-05,-8e-05,-1e-05,3,29
11047,-9e-05,-6e-05,-4e-05,-2e-05,3e-05,-8e-05,-8e-05,-1e-05,3,29
11048,-9e-05,-6e-05,-4e-05,-2e-05,3e-05,-8e-05,-8e-05,-1e-05,3,29
11049,-9e-05,-6e-05,-4e-05,-2e-05,3e-05,-8e-05,-8e-05,-1e-05,3,29
11050,-9e-05,-6e-05,-4e-05,-2e-05,3e-05,-8e-05,-8e-05,-1e-05,3,29
11051,-9e-05,-6e-05,-4e-05,-2e-05,3e-05,-8e-05,-8e-05,-1e-05,3,29
11052,-9e-05,-6e-05,-4e-05,-2e-05,3e-05,-8e-05,-8e-05,-1e-05,3,29
11053,9e-05,-3e-05,0,0,-4e-05,0,-1e-05,6e-05,3,29
11054,9e-05,-3e-05,0,0,-4e-05,0,-1e-05,6e-05,3,29
11055,9e-05,-3e-05,0,0,-4e-05,0,-1e-05,6e-05,3,29
11056,9e-05,-3e-05,0,0,-4e-05,0,-1e-05,6e-05,3,29
11057,9e-05,-3e-05,0,0,-4e-05,0,-1e-05,6e-05,3,29
11058,9e-05,-3e-05,0,0,-4e-05,0,-1e-05,6e-05,3,29
11059,9e-05,-3e-05,0,0,-4e-05,0,-1e-05,6e-05,3,29
11060,9e-05,-3e-05,0,0,-4e-05,0,-1e-05,6e-05,3,29
11061,9e-05,-3e-05,0,0,-4e-05,0,-1e-05,6e-05,3,29
11062,0.00016,4e-05,6e-05,4e-05,-1e-05,-1e-05,2e-05,-0.0001,3,29
11063,0.00016,4e-05,6e-05,4e-05,-1e-05,-1e-05,2e-05,-0.0001,3,29
11064,0.00016,4e-05,6e-05,4e-05,-1e-05,-1e-05,2e-05,-0.0001,3,29
11065,0.00016,4e-05,6e-05,4e-05,-1e-05,-1e-05,2e-05,-0.0001,3,29
11066,0.00016,4e-05,6e-05,4e-05,-1e-05,-1e-05,2e-05,-0.0001,3,29
11067,0.00016,4e-05,6e-05,4e-05,-1e-05,-1e-05,2e-05,-0.0001,3,29
11068,0.00016,4e-05,6e-05,4e-05,-1e-05,-1e-05,2e-05,-0.0001,3,29
11069,0.00016,4e-05,6e-05,4e-05,-1e-05,-1e-05,2e-05,-0.0001,3,29
11070,0.00016,4e-05,6e-05,4e-05,-1e-05,-1e-05,2e-05,-0.0001,3,29
11071,0.00016,4e-05,6e-05,4e-05,-1e-05,-1e-05,2e-05,-0.0001,3,29
11072,0.00016,4e-05,6e-05,4e-05,-1e-05,-1e-05,2e-05,-0.0001,3,29
11073,0.00016,4e-05,6e-05,4e-05,-1e-05,-1e-05,2e-05,-0.0001,3,29
11074,0.00016,4e-05,6e-05,4e-05,-1e-05,-1e-05,2e-05,-0.0001,3,29
11075,0.00016,4e-05,6e-05,4e-05,-1e-05,-1e-05,2e-05,-0.0001,3,29
11076,0.00012,1e-05,-5e-05,-3e-05,4e-05,-0.00014,-0.0001,-3e-05,3,29
11077,0.00012,1e-05,-5e-05,-3e-05,4e-05,-0.00014,-0.0001,-3e-05,3,29
11078,0.00012,1e-05,-5e-05,-3e-05,4e-05,-0.00014,-0.0001,-3e-05,3,29
11079,0.00012,1e-05,-5e-05,-3e-05,4e-05,-0.00014,-0.0001,-3e-05,3,29
11080,0.00012,1e-05,-5e-05,-3e-05,4e-05,-0.00014,-0.0001,-3e-05,3,29
11081,0.00012,1e-05,-5e-05,-3e-05,4e-05,-0.00014,-0.0001,-3e-05,3,29
11082,0.00012,1e-05,-5e-05,-3e-05,4e-05,-0.00014,-0.0001,-3e-05,3,29
11083,0.00012,1e-05,-5e-05,-3e-05,4e-05,-0.00014,-0.0001,-3e-05,3,29
11084,0,1e-05,-1e-05,2e-05,9e-05,0.00012,0,-5e-05,3,29
11085,0,1e-05,-1e-05,2e-05,9e-05,0.00012,0,-5e-05,3,29
11086,0,1e-05,-1e-05,2e-05,9e-05,0.00012,0,-5e-05,3,29
11088,0,1e-05,-1e-05,2e-05,9e-05,0.00012,0,-5e-05,3,29
11089,0,1e-05,-1e-05,2e-05,9e-05,0.00012,0,-5e-05,3,29
11090,0,1e-05,-1e-05,2e-05,9e-05,0.00012,0,-5e-05,3,29
11091,0,1e-05,-1e-05,2e-05,9e-05,0.00012,0,-5e-05,3,29
11092,0,1e-05,-1e-05,2e-05,9e-05,0.00012,0,-5e-05,3,29
11093,0,1e-05,-1e-05,2e-05,9e-05,0.00012,0,-5e-05,3,29
11094,0,1e-05,-1e-05,2e-05,9e-05,0.00012,0,-5e-05,3,29
11095,0,1e-05,-1e-05,2e-05,9e-05,0.00012,0,-5e-05,3,29
11096,0,1e-05,-1e-05,2e-05,9e-05,0.00012,0,-5e-05,3,29
11097,0,1e-05,-1e-05,2e-05,9e-05,0.00012,0,-5e-05,3,29
11098,0,1e-05,-1e-05,2e-05,9e-05,0.00012,0,-5e-05,3,29
11099,-0.00018,-4e-05,1e-05,2e-05,5e-05,1e-05,-3e-05,-5e-05,3,29
11100,-0.00018,-4e-05,1e-05,2e-05,5e-05,1e-05,-3e-05,-5e-05,3,29
11101,-0.00018,-4e-05,3e-05,-4e-05,-9e-05,-9e-05,-3e-05,2e-05,3,29
11102,-0.00018,-4e-05,3e-05,-4e-05,-9e-05,-9e-05,-3e-05,2e-05,3,29
11103,-0.00018,-4e-05,3e-05,-4e-05,-9e-05,-9e-05,-3e-05,2e-05,3,29
11104,-0.00018,-4e-05,3e-05,-4e-05,-9e-05,-9e-05,-3e-05,2e-05,3,29
11105,-0.00018,-4e-05,3e-05,-4e-05,-9e-05,-9e-05,-3e-05,2e-05,3,29
11106,-0.00018,-4e-05,3e-05,-4e-05,-9e-05,-9e-05,-3e-05,2e-05,3,29
11107,-0.00018,-4e-05,3e-05,-4e-05,-9e-05,-9e-05,-3e-05,2e-05,3,29
11108,-0.00018,-4e-05,3e-05,-4e-05,-9e-05,-9e-05,-3e-05,2e-05,3,29
11109,-0.00018,-4e-05,3e-05,-4e-05,-9e-05,-9e-05,-3e-05,2e-05,3,29
11110,-0.00018,-4e-05,3e-05,-4e-05,-9e-05,-9e-05,-3e-05,2e-05,3,29
11111,-0.00018,-4e-05,3e-05,-4e-05,-9e-05,-9e-05,-3e-05,2e-05,3,29
11112,-0.00018,-4e-05,3e-05,-4e-05,-9e-05,-9e-05,-3e-05,2e-05,3,29
11113,-3e-05,-3e-05,-4e-05,-2e-05,1e-05,2e-05,2e-05,1e-05,3,29
11114,-3e-05,-3e-05,-4e-05,-2e-05,1e-05,2e-05,2e-05,1e-05,3,29
11115,-3e-05,-3e-05,-4e-05,-2e-05,1e-05,2e-05,2e-05,1e-05,3,29
11116,-3e-05,-3e-05,-4e-05,-2e-05,1e-05,2e-05,2e-05,1e-05,3,29
11117,-3e-05,-3e-05,-4e-05,-2e-05,1e-05,2e-05,2e-05,1e-05,3,29
11118,-3e-05,-3e-05,-4e-05,-2e-05,1e-05,2e-05,2e-05,1e-05,3,29
11119,-3e-05,-3e-05,-4e-05,-2e-05,1e-05,2e-05,2e-05,1e-05,3,29
11120,-3e-05,-3e-05,-4e-05,-2e-05,1e-05,2e-05,2e-05,1e-05,3,29
11121,-3e-05,-3e-05,-4e-05,-2e-05,1e-05,2e-05,2e-05,1e-05,3,29
11122,-5e-05,-7e-05,-8e-05,-5e-05,-0.00011,-0.0001,-2e-05,0,3,29
11123,-5e-05,-7e-05,-8e-05,-5e-05,-0.00011,-0.0001,-2e-05,0,3,29
11124,-5e-05,-7e-05,-8e-05,-5e-05,-0.00011,-0.0001,-2e-05,0,3,29
11125,-5e-05,-7e-05,-8e-05,-5e-05,-0.00011,-0.0001,-2e-05,0,3,29
11126,-5e-05,-7e-05,-8e-05,-5e-05,-0.00011,-0.0001,-2e-05,0,3,29
11127,-5e-05,-7e-05,-8e-05,-5e-05,-0.00011,-0.0001,-2e-05,0,3,29
11128,-5e-05,-7e-05,-8e-05,-5e-05,-0.00011,-0.0001,-2e-05,0,3,29
11129,-5e-05,-7e-05,-8e-05,-5e-05,-0.00011,-0.0001,-2e-05,0,3,29
11130,-5e-05,-7e-05,-8e-05,-5e-05,-0.00011,-0.0001,-2e-05,0,3,29
11131,-5e-05,-7e-05,-8e-05,-5e-05,-0.00011,-0.0001,-2e-05,0,3,29
11132,-5e-05,-7e-05,-8e-05,-5e-05,-0.00011,-0.0001,-2e-05,0,3,29
11133,-5e-05,-7e-05,-8e-05,-5e-05,-0.00011,-0.0001,-2e-05,0,3,29
11134,-5e-05,-7e-05,-8e-05,-5e-05,-0.00011,-0.0001,-2e-05,0,3,29
11135,-5e-05,-7e-05,-8e-05,-5e-05,-0.00011,-0.0001,-2e-05,0,3,29
11136,-5e-05,-7e-05,-8e-05,-5e-05,-0.00011,-0.0001,-2e-05,0,3,29
11138,-0.00016,1e-05,7e-05,-5e-05,-1e-05,-2e-05,-1e-05,-3e-05,3,29
11139,2e-05,-2e-05,-1e-05,0,-2e-05,-6e-05,-3e-05,0,3,29
11140,2e-05,-2e-05,-1e-05,0,-2e-05,-6e-05,-3e-05,0,3,29
11141,2e-05,-2e-05,-1e-05,0,-2e-05,-6e-05,-3e-05,0,3,29
11142,2e-05,-2e-05,-1e-05,0,-2e-05,-6e-05,-3e-05,0,3,29
11143,2e-05,-2e-05,-1e-05,0,-2e-05,-6e-05,-3e-05,0,3,29
11144,2e-05,-2e-05,-1e-05,0,-2e-05,-6e-05,-3e-05,0,3,29
11145,2e-05,-2e-05,-1e-05,0,-2e-05,-6e-05,-3e-05,0,3,29
11146,2e-05,-2e-05,-1e-05,0,-2e-05,-6e-05,-3e-05,0,3,29
11147,2e-05,-2e-05,-1e-05,0,-2e-05,-6e-05,-3e-05,0,3,29
11148,2e-05,-2e-05,-1e-05,0,-2e-05,-6e-05,-3e-05,0,3,29
11149,2e-05,-2e-05,-1e-05,0,-2e-05,-6e-05,-3e-05,0,3,29
11150,2e-05,-2e-05,-1e-05,0,-2e-05,-6e-05,-3e-05,0,3,29
11151,2e-05,-2e-05,-1e-05,0,-2e-05,-6e-05,-3e-05,0,3,29
11152,2e-05,-2e-05,-1e-05,0,-2e-05,-6e-05,-3e-05,0,3,29
11153,2e-05,-2e-05,-1e-05,0,-2e-05,-6e-05,-3e-05,0,3,29
11154,2e-05,-2e-05,-1e-05,0,-2e-05,-6e-05,-3e-05,0,3,29
11155,2e-05,-2e-05,-1e-05,0,-2e-05,-6e-05,-3e-05,0,3,29
11156,2e-05,-2e-05,-1e-05,0,-2e-05,-6e-05,-3e-05,0,3,29
11157,2e-05,-2e-05,-1e-05,0,-2e-05,-6e-05,-3e-05,0,3,29
11158,2e-05,-2e-05,-1e-05,0,-2e-05,-6e-05,-3e-05,0,3,29
11159,2e-05,-2e-05,-1e-05,0,-2e-05,-6e-05,-3e-05,0,3,29
11160,-2e-05,0,1e-05,5e-05,0.00013,6e-05,1e-05,-1e-05,3,29
11161,-2e-05,1e-05,-2e-05,-3e-05,-4e-05,3e-05,1e-05,-0.0001,3,29
11162,-2e-05,1e-05,-2e-05,-3e-05,-4e-05,3e-05,1e-05,-0.0001,3,29
11163,-2e-05,1e-05,-2e-05,-3e-05,-4e-05,3e-05,1e-05,-0.0001,3,29
11164,-2e-05,1e-05,-2e-05,-3e-05,-4e-05,3e-05,1e-05,-0.0001,3,29
11165,-2e-05,1e-05,-2e-05,-3e-05,-4e-05,3e-05,1e-05,-0.0001,3,29
11166,-2e-05,1e-05,-2e-05,-3e-05,-4e-05,3e-05,1e-05,-0.0001,3,29
11167,-2e-05,1e-05,-2e-05,-3e-05,-4e-05,3e-05,1e-05,-0.0001,3,29
11168,-2e-05,1e-05,-2e-05,-3e-05,-4e-05,3e-05,1e-05,-0.0001,3,29
11169,-2e-05,1e-05,-2e-05,-3e-05,-4e-05,3e-05,1e-05,-0.0001,3,29
11170,-2e-05,1e-05,-2e-05,-3e-05,-4e-05,3e-05,1e-05,-0.0001,3,29
11171,-2e-05,1e-05,-2e-05,-3e-05,-4e-05,3e-05,1e-05,-0.0001,3,29
11172,-2e-05,1e-05,-2e-05,-3e-05,-4e-05,3e-05,1e-05,-0.0001,3,29
11173,-2e-05,1e-05,-2e-05,-3e-05,-4e-05,3e-05,1e-05,-0.0001,3,29
11174,-2e-05,1e-05,-2e-05,-3e-05,-4e-05,3e-05,1e-05,-0.0001,3,29
11175,-2e-05,1e-05,-2e-05,-3e-05,-4e-05,3e-05,1e-05,-0.0001,3,29
11176,-2e-05,1e-05,-2e-05,-3e-05,-4e-05,3e-05,1e-05,-0.0001,3,29
11177,-2e-05,1e-05,-2e-05,-3e-05,-4e-05,3e-05,1e-05,-0.0001,3,29
11178,-2e-05,1e-05,-2e-05,-3e-05,-4e-05,3e-05,1e-05,-0.0001,3,29
11179,-2e-05,1e-05,-2e-05,-3e-05,-4e-05,3e-05,1e-05,-0.0001,3,29
11180,-2e-05,1e-05,-2e-05,-3e-05,-4e-05,3e-05,1e-05,-0.0001,3,29
11181,-2e-05,1e-05,-2e-05,-3e-05,-4e-05,3e-05,1e-05,-0.0001,3,29
11182,2e-05,-4e-05,-5e-05,-2e-05,-5e-05,0,0,-2e-05,3,29
11183,0,4e-05,5e-05,1e-05,-9e-05,-4e-05,-3e-05,0.0001,3,29
11184,0,4e-05,5e-05,1e-05,-9e-05,-4e-05,-3e-05,0.0001,3,29
11185,0,4e-05,5e-05,1e-05,-9e-05,-4e-05,-3e-05,0.0001,3,29
11186,0,4e-05,5e-05,1e-05,-9e-05,-4e-05,-3e-05,0.0001,3,29
11188,0,4e-05,5e-05,1e-05,-9e-05,-4e-05,-3e-05,0.0001,3,29
11189,0,4e-05,5e-05,1e-05,-9e-05,-4e-05,-3e-05,0.0001,3,29
11190,0,4e-05,5e-05,1e-05,-9e-05,-4e-05,-3e-05,0.0001,3,29
11191,0,4e-05,5e-05,1e-05,-9e-05,-4e-05,-3e-05,0.0001,3,29
11192,0,4e-05,5e-05,1e-05,-9e-05,-4e-05,-3e-05,0.0001,3,29
11193,0,4e-05,5e-05,1e-05,-9e-05,-4e-05,-3e-05,0.0001,3,29
11194,0,4e-05,5e-05,1e-05,-9e-05,-4e-05,-3e-05,0.0001,3,29
11195,0,4e-05,5e-05,1e-05,-9e-05,-4e-05,-3e-05,0.0001,3,29
11196,0,4e-05,5e-05,1e-05,-9e-05,-4e-05,-3e-05,0.0001,3,29
11197,-1e-05,-6e-05,-6e-05,-7e-05,0,4e-05,-1e-05,-3e-05,3,29
11198,4e-05,-2e-05,-4e-05,-3e-05,-6e-05,2e-05,0,3e-05,3,29
11199,4e-05,-2e-05,-4e-05,-3e-05,-6e-05,2e-05,0,3e-05,3,29
11200,4e-05,-2e-05,-4e-05,-3e-05,-6e-05,2e-05,0,3e-05,3,29
11201,4e-05,-2e-05,-4e-05,-3e-05,-6e-05,2e-05,0,3e-05,3,29
11202,4e-05,-2e-05,-4e-05,-3e-05,-6e-05,2e-05,0,3e-05,3,29
11203,4e-05,-2e-05,-4e-05,-3e-05,-6e-05,2e-05,0,3e-05,3,29
11204,4e-05,-2e-05,-4e-05,-3e-05,-6e-05,2e-05,0,3e-05,3,29
11205,4e-05,-2e-05,-4e-05,-3e-05,-6e-05,2e-05,0,3e-05,3,29
11206,4e-05,-2e-05,-4e-05,-3e-05,-6e-05,2e-05,0,3e-05,3,29
11207,4e-05,-2e-05,-4e-05,-3e-05,-6e-05,2e-05,0,3e-05,3,29
11208,4e-05,-2e-05,-4e-05,-3e-05,-6e-05,2e-05,0,3e-05,3,29
11209,4e-05,-2e-05,-4e-05,-3e-05,-6e-05,2e-05,0,3e-05,3,29
11210,4e-05,-2e-05,-4e-05,-3e-05,-6e-05,2e-05,0,3e-05,3,29
11211,4e-05,-2e-05,-4e-05,-3e-05,-6e-05,2e-05,0,3e-05,3,29
11212,4e-05,-2e-05,-4e-05,-3e-05,-6e-05,2e-05,0,3e-05,3,29
11213,4e-05,-2e-05,-4e-05,-3e-05,-6e-05,2e-05,0,3e-05,3,29
11214,4e-05,-2e-05,-4e-05,-3e-05,-6e-05,2e-05,0,3e-05,3,29
11215,4e-05,-2e-05,-4e-05,-3e-05,-6e-05,2e-05,0,3e-05,3,29
11216,4e-05,-2e-05,-4e-05,-3e-05,-6e-05,2e-05,0,3e-05,3,29
11217,4e-05,-2e-05,-4e-05,-3e-05,-6e-05,2e-05,0,3e-05,3,29
11218,4e-05,-2e-05,-4e-05,-3e-05,-6e-05,2e-05,0,3e-05,3,29
11219,-0.00014,1e-05,4e-05,4e-05,7e-05,2e-05,2e-05,-0.00011,3,29
11220,-0.00014,1e-05,4e-05,4e-05,7e-05,2e-05,2e-05,-0.00011,3,29
11221,-9e-05,4e-05,5e-05,3e-05,6e-05,-2e-05,0,-0.0001,3,29
11222,-9e-05,4e-05,5e-05,3e-05,6e-05,-2e-05,0,-0.0001,3,29
11223,-9e-05,4e-05,5e-05,3e-05,6e-05,-2e-05,0,-0.0001,3,29
11224,-9e-05,4e-05,5e-05,3e-05,6e-05,-2e-05,0,-0.0001,3,29
11225,-9e-05,4e-05,5e-05,3e-05,6e-05,-2e-05,0,-0.0001,3,29
11226,-9e-05,4e-05,5e-05,3e-05,6e-05,-2e-05,0,-0.0001,3,29
11227,-9e-05,4e-05,5e-05,3e-05,6e-05,-2e-05,0,-0.0001,3,29
11228,-9e-05,4e-05,5e-05,3e-05,6e-05,-2e-05,0,-0.0001,3,29
11229,-9e-05,4e-05,5e-05,3e-05,6e-05,-2e-05,0,-0.0001,3,29
11230,-9e-05,4e-05,5e-05,3e-05,6e-05,-2e-05,0,-0.0001,3,29
11231,-9e-05,4e-05,5e-05,3e-05,6e-05,-2e-05,0,-0.0001,3,29
11232,-9e-05,4e-05,5e-05,3e-05,6e-05,-2e-05,0,-0.0001,3,29
11233,-9e-05,4e-05,5e-05,3e-05,6e-05,-2e-05,0,-0.0001,3,29
11234,-9e-05,4e-05,5e-05,3e-05,6e-05,-2e-05,0,-0.0001,3,29
11235,-9e-05,4e-05,5e-05,3e-05,6e-05,-2e-05,0,-0.0001,3,29
11236,-9e-05,4e-05,5e-05,3e-05,6e-05,-2e-05,0,-0.0001,3,29
11238,-9e-05,4e-05,5e-05,3e-05,6e-05,-2e-05,0,-0.0001,3,29
11239,-9e-05,4e-05,5e-05,3e-05,6e-05,-2e-05,0,-0.0001,3,29
11240,-9e-05,4e-05,5e-05,3e-05,6e-05,-2e-05,0,-0.0001,3,29
11241,-9e-05,4e-05,5e-05,3e-05,6e-05,-2e-05,0,-0.0001,3,29
11242,0.00011,2e-05,1e-05,1e-05,-1e-05,-5e-05,-4e-05,6e-05,3,29
11243,0.00011,2e-05,1e-05,1e-05,-1e-05,-5e-05,-4e-05,6e-05,3,29
11244,-4e-05,-4e-05,-4e-05,-3e-05,-4e-05,5e-05,-2e-05,-2e-05,3,29
11245,-4e-05,-4e-05,-4e-05,-3e-05,-4e-05,5e-05,-2e-05,-2e-05,3,29
11246,-4e-05,-4e-05,-4e-05,-3e-05,-4e-05,5e-05,-2e-05,-2e-05,3,29
11247,-4e-05,-4e-05,-4e-05,-3e-05,-4e-05,5e-05,-2e-05,-2e-05,3,29
11248,-4e-05,-4e-05,-4e-05,-3e-05,-4e-05,5e-05,-2e-05,-2e-05,3,29
11249,-4e-05,-4e-05,-4e-05,-3e-05,-4e-05,5e-05,-2e-05,-2e-05,3,29
11250,-4e-05,-4e-05,-4e-05,-3e-05,-4e-05,5e-05,-2e-05,-2e-05,3,29
11251,-4e-05,-4e-05,-4e-05,-3e-05,-4e-05,5e-05,-2e-05,-2e-05,3,29
11252,-4e-05,-4e-05,-4e-05,-3e-05,-4e-05,5e-05,-2e-05,-2e-05,3,29
11253,-4e-05,-4e-05,-4e-05,-3e-05,-4e-05,5e-05,-2e-05,-2e-05,3,29
11254,-4e-05,-4e-05,-4e-05,-3e-05,-4e-05,5e-05,-2e-05,-2e-05,3,29
11255,-4e-05,-4e-05,-4e-05,-3e-05,-4e-05,5e-05,-2e-05,-2e-05,3,29
11256,-4e-05,-4e-05,-4e-05,-3e-05,-4e-05,5e-05,-2e-05,-2e-05,3,29
11257,-4e-05,0,1e-05,-1e-05,-3e-05,-4e-05,0,-0.00012,3,29
11258,4e-05,-1e-05,-1e-05,-1e-05,7e-05,1e-05,-1e-05,-6e-05,3,29
11259,4e-05,-1e-05,-1e-05,-1e-05,7e-05,1e-05,-1e-05,-6e-05,3,29
11260,4e-05,-1e-05,-1e-05,-1e-05,7e-05,1e-05,-1e-05,-6e-05,3,29
11261,4e-05,-1e-05,-1e-05,-1e-05,7e-05,1e-05,-1e-05,-6e-05,3,29
11262,4e-05,-1e-05,-1e-05,-1e-05,7e-05,1e-05,-1e-05,-6e-05,3,29
11263,4e-05,-1e-05,-1e-05,-1e-05,7e-05,1e-05,-1e-05,-6e-05,3,29
11264,4e-05,-1e-05,-1e-05,-1e-05,7e-05,1e-05,-1e-05,-6e-05,3,29
11265,4e-05,-1e-05,-1e-05,-1e-05,7e-05,1e-05,-1e-05,-6e-05,3,29
11266,4e-05,-1e-05,-1e-05,-1e-05,7e-05,1e-05,-1e-05,-6e-05,3,29
11267,4e-05,-1e-05,-1e-05,-1e-05,7e-05,1e-05,-1e-05,-6e-05,3,29
11268,4e-05,-1e-05,-1e-05,-1e-05,7e-05,1e-05,-1e-05,-6e-05,3,29
11269,4e-05,-1e-05,-1e-05,-1e-05,7e-05,1e-05,-1e-05,-6e-05,3,29
11270,4e-05,-1e-05,-1e-05,-1e-05,7e-05,1e-05,-1e-05,-6e-05,3,29
11271,4e-05,-1e-05,-1e-05,-1e-05,7e-05,1e-05,-1e-05,-6e-05,3,29
11272,4e-05,-1e-05,-1e-05,-1e-05,7e-05,1e-05,-1e-05,-6e-05,3,29
11273,4e-05,-1e-05,-1e-05,-1e-05,7e-05,1e-05,-1e-05,-6e-05,3,29
11274,4e-05,-1e-05,-1e-05,-1e-05,7e-05,1e-05,-1e-05,-6e-05,3,29
11275,4e-05,-1e-05,-1e-05,-1e-05,7e-05,1e-05,-1e-05,-6e-05,3,29
11276,4e-05,-1e-05,-1e-05,-1e-05,7e-05,1e-05,-1e-05,-6e-05,3,29
11277,4e-05,-1e-05,-1e-05,-1e-05,7e-05,1e-05,-1e-05,-6e-05,3,29
11278,4e-05,-1e-05,-1e-05,-1e-05,7e-05,1e-05,-1e-05,-6e-05,3,29
11279,2e-05,3e-05,4e-05,0,-3e-05,6e-05,2e-05,0.0001,3,29
11280,2e-05,3e-05,4e-05,0,-3e-05,6e-05,2e-05,0.0001,3,29
11281,0.00014,-4e-05,-5e-05,3e-05,6e-05,8e-05,3e-05,6e-05,3,29
11282,0.00014,-4e-05,-5e-05,3e-05,6e-05,8e-05,3e-05,6e-05,3,29
11283,0.00014,-4e-05,-5e-05,3e-05,6e-05,8e-05,3e-05,6e-05,3,29
11284,0.00014,-4e-05,-5e-05,3e-05,6e-05,8e-05,3e-05,6e-05,3,29
11285,0.00014,-4e-05,-5e-05,3e-05,6e-05,8e-05,3e-05,6e-05,3,29
11286,0.00014,-4e-05,-5e-05,3e-05,6e-05,8e-05,3e-05,6e-05,3,29
11288,0.00014,-4e-05,-5e-05,3e-05,6e-05,8e-05,3e-05,6e-05,3,29
11289,0.00014,-4e-05,-5e-05,3e-05,6e-05,8e-05,3e-05,6e-05,3,29
11290,0.00014,-4e-05,-5e-05,3e-05,6e-05,8e-05,3e-05,6e-05,3,29
11291,0.00014,-4e-05,-5e-05,3e-05,6e-05,8e-05,3e-05,6e-05,3,29
11292,0.00014,-4e-05,-5e-05,3e-05,6e-05,8e-05,3e-05,6e-05,3,29
11293,0.00014,-4e-05,-5e-05,3e-05,6e-05,8e-05,3e-05,6e-05,3,29
11294,0.00014,-4e-05,-5e-05,3e-05,6e-05,8e-05,3e-05,6e-05,3,29
11295,0.00014,-4e-05,-5e-05,3e-05,6e-05,8e-05,3e-05,6e-05,3,29
11296,0.00014,-4e-05,-5e-05,3e-05,6e-05,8e-05,3e-05,6e-05,3,29
11297,0.00014,-4e-05,-5e-05,3e-05,6e-05,8e-05,3e-05,6e-05,3,29
11298,0.00014,-4e-05,-5e-05,3e-05,6e-05,8e-05,3e-05,6e-05,3,29
11299,0.00014,-4e-05,-5e-05,3e-05,6e-05,8e-05,3e-05,6e-05,3,29
11300,0.00014,-4e-05,-5e-05,3e-05,6e-05,8e-05,3e-05,6e-05,3,29
11301,0.00014,-4e-05,-5e-05,3e-05,6e-05,8e-05,3e-05,6e-05,3,29
11302,-0.00011,-3e-05,-1e-05,-3e-05,-0.0001,-9e-05,-8e-05,-0.00014,3,29
11303,-6e-05,-1e-05,-1e-05,-3e-05,-6e-05,-1e-05,0,-2e-05,3,29
11304,-6e-05,-1e-05,-1e-05,-3e-05,-6e-05,-1e-05,0,-2e-05,3,29
11305,-6e-05,-1e-05,-1e-05,-3e-05,-6e-05,-1e-05,0,-2e-05,3,29
11306,-6e-05,-1e-05,-1e-05,-3e-05,-6e-05,-1e-05,0,-2e-05,3,29
11307,-6e-05,-1e-05,-1e-05,-3e-05,-6e-05,-1e-05,0,-2e-05,3,29
11308,-6e-05,-1e-05,-1e-05,-3e-05,-6e-05,-1e-05,0,-2e-05,3,29
11309,-6e-05,-1e-05,-1e-05,-3e-05,-6e-05,-1e-05,0,-2e-05,3,29
11310,-6e-05,-1e-05,-1e-05,-3e-05,-6e-05,-1e-05,0,-2e-05,3,29
11311,-6e-05,-1e-05,-1e-05,-3e-05,-6e-05,-1e-05,0,-2e-05,3,29
11312,-6e-05,-1e-05,-1e-05,-3e-05,-6e-05,-1e-05,0,-2e-05,3,29
11313,-6e-05,-1e-05,-1e-05,-3e-05,-6e-05,-1e-05,0,-2e-05,3,29
11314,-6e-05,-1e-05,-1e-05,-3e-05,-6e-05,-1e-05,0,-2e-05,3,29
11315,-6e-05,-1e-05,-1e-05,-3e-05,-6e-05,-1e-05,0,-2e-05,3,29
11316,-6e-05,-1e-05,-1e-05,-3e-05,-6e-05,-1e-05,0,-2e-05,3,29
11317,3e-05,2e-05,0,0,-7e-05,-1e-05,-1e-05,5e-05,3,29
11318,-6e-05,-1e-05,0,3e-05,2e-05,3e-05,2e-05,1e-05,3,29
11319,-6e-05,-1e-05,0,3e-05,2e-05,3e-05,2e-05,1e-05,3,29
11320,-6e-05,-1e-05,0,3e-05,2e-05,3e-05,2e-05,1e-05,3,29
11321,-6e-05,-1e-05,0,3e-05,2e-05,3e-05,2e-05,1e-05,3,29
11322,-6e-05,-1e-05,0,3e-05,2e-05,3e-05,2e-05,1e-05,3,29
11323,-6e-05,-1e-05,0,3e-05,2e-05,3e-05,2e-05,1e-05,3,29
11324,-6e-05,-1e-05,0,3e-05,2e-05,3e-05,2e-05,1e-05,3,29
11325,-6e-05,-1e-05,0,3e-05,2e-05,3e-05,2e-05,1e-05,3,29
11326,-6e-05,-1e-05,0,3e-05,2e-05,3e-05,2e-05,1e-05,3,29
11327,-6e-05,-1e-05,0,3e-05,2e-05,3e-05,2e-05,1e-05,3,29
11328,-6e-05,-1e-05,0,3e-05,2e-05,3e-05,2e-05,1e-05,3,29
11329,-6e-05,-1e-05,0,3e-05,2e-05,3e-05,2e-05,1e-05,3,29
11330,-6e-05,-1e-05,0,3e-05,2e-05,3e-05,2e-05,1e-05,3,29
11331,-6e-05,-1e-05,0,3e-05,2e-05,3e-05,2e-05,1e-05,3,29
11332,-6e-05,-1e-05,0,3e-05,2e-05,3e-05,2e-05,1e-05,3,29
11333,-6e-05,-1e-05,0,3e-05,2e-05,3e-05,2e-05,1e-05,3,29
11334,-6e-05,-1e-05,0,3e-05,2e-05,3e-05,2e-05,1e-05,3,29
11335,-6e-05,-1e-05,0,3e-05,2e-05,3e-05,2e-05,1e-05,3,29
11336,-6e-05,-1e-05,0,3e-05,2e-05,3e-05,2e-05,1e-05,3,29
11338,-6e-05,-1e-05,0,3e-05,2e-05,3e-05,2e-05,1e-05,3,29
11339,-4e-05,-8e-05,-0.0001,-5e-05,-1e-05,9e-05,3e-05,-1e-05,3,29
11340,-4e-05,-8e-05,-0.0001,-5e-05,-1e-05,9e-05,3e-05,-1e-05,3,29
11341,-4e-05,-1e-05,-4e-05,-4e-05,-0.0001,3e-05,-3e-05,-6e-05,3,29
11342,-4e-05,-1e-05,-4e-05,-4e-05,-0.0001,3e-05,-3e-05,-6e-05,3,29
11343,-4e-05,-1e-05,-4e-05,-4e-05,-0.0001,3e-05,-3e-05,-6e-05,3,29
11344,-4e-05,-1e-05,-4e-05,-4e-05,-0.0001,3e-05,-3e-05,-6e-05,3,29
11345,-4e-05,-1e-05,-4e-05,-4e-05,-0.0001,3e-05,-3e-05,-6e-05,3,29
11346,-4e-05,-1e-05,-4e-05,-4e-05,-0.0001,3e-05,-3e-05,-6e-05,3,29
11347,-4e-05,-1e-05,-4e-05,-4e-05,-0.0001,3e-05,-3e-05,-6e-05,3,29
11348,-4e-05,-1e-05,-4e-05,-4e-05,-0.0001,3e-05,-3e-05,-6e-05,3,29
11349,-4e-05,-1e-05,-4e-05,-4e-05,-0.0001,3e-05,-3e-05,-6e-05,3,29
11350,-4e-05,-1e-05,-4e-05,-4e-05,-0.0001,3e-05,-3e-05,-6e-05,3,29
11351,-4e-05,-1e-05,-4e-05,-4e-05,-0.0001,3e-05,-3e-05,-6e-05,3,29
11352,-4e-05,-1e-05,-4e-05,-4e-05,-0.0001,3e-05,-3e-05,-6e-05,3,29
11353,-4e-05,-1e-05,-4e-05,-4e-05,-0.0001,3e-05,-3e-05,-6e-05,3,29
11354,-4e-05,-1e-05,-4e-05,-4e-05,-0.0001,3e-05,-3e-05,-6e-05,3,29
11355,-4e-05,-1e-05,-4e-05,-4e-05,-0.0001,3e-05,-3e-05,-6e-05,3,29
11356,-4e-05,-1e-05,-4e-05,-4e-05,-0.0001,3e-05,-3e-05,-6e-05,3,29
11357,-4e-05,-1e-05,-4e-05,-4e-05,-0.0001,3e-05,-3e-05,-6e-05,3,29
11358,-4e-05,-1e-05,-4e-05,-4e-05,-0.0001,3e-05,-3e-05,-6e-05,3,29
11359,-4e-05,-1e-05,-4e-05,-4e-05,-0.0001,3e-05,-3e-05,-6e-05,3,29
11360,-4e-05,-1e-05,-4e-05,-4e-05,-0.0001,3e-05,-3e-05,-6e-05,3,29
11361,-4e-05,-1e-05,-4e-05,-4e-05,-0.0001,3e-05,-3e-05,-6e-05,3,29
11362,1e-05,1e-05,3e-05,-3e-05,-4e-05,5e-05,2e-05,-1e-05,3,29
11363,-3e-05,0,4e-05,-2e-05,1e-05,-2e-05,-2e-05,0,3,29
11365,-3e-05,0,4e-05,-2e-05,1e-05,-2e-05,-2e-05,0,3,29
11366,-3e-05,0,4e-05,-2e-05,1e-05,-2e-05,-2e-05,0,3,29
11367,-3e-05,0,4e-05,-2e-05,1e-05,-2e-05,-2e-05,0,3,29
11368,-3e-05,0,4e-05,-2e-05,1e-05,-2e-05,-2e-05,0,3,29
11369,-3e-05,0,4e-05,-2e-05,1e-05,-2e-05,-2e-05,0,3,29
11370,-3e-05,0,4e-05,-2e-05,1e-05,-2e-05,-2e-05,0,3,29
11371,-3e-05,0,4e-05,-2e-05,1e-05,-2e-05,-2e-05,0,3,29
11372,-3e-05,0,4e-05,-2e-05,1e-05,-2e-05,-2e-05,0,3,29
11373,-3e-05,0,4e-05,-2e-05,1e-05,-2e-05,-2e-05,0,3,29
11374,-3e-05,0,4e-05,-2e-05,1e-05,-2e-05,-2e-05,0,3,29
11375,-3e-05,0,4e-05,-2e-05,1e-05,-2e-05,-2e-05,0,3,29
11376,-0.00015,-3e-05,-2e-05,-1e-05,1e-05,-9e-05,-3e-05,2e-05,3,29
11377,-0.00015,-3e-05,-2e-05,-1e-05,1e-05,-9e-05,-3e-05,2e-05,3,29
11378,-0.00015,-3e-05,-2e-05,-1e-05,1e-05,-9e-05,-3e-05,2e-05,3,29
11379,-0.00015,-3e-05,-2e-05,-1e-05,1e-05,-9e-05,-3e-05,2e-05,3,29
11380,-0.00015,-3e-05,-2e-05,-1e-05,1e-05,-9e-05,-3e-05,2e-05,3,29
11381,-0.00015,-3e-05,-2e-05,-1e-05,1e-05,-9e-05,-3e-05,2e-05,3,29
11382,-0.00015,-3e-05,-2e-05,-1e-05,1e-05,-9e-05,-3e-05,2e-05,3,29
11383,3e-05,1e-05,-1e-05,0,-4e-05,0,-1e-05,6e-05,3,29
11384,3e-05,1e-05,-1e-05,0,-4e-05,0,-1e-05,6e-05,3,29
11385,3e-05,1e-05,-1e-05,0,-4e-05,0,-1e-05,6e-05,3,29
11386,3e-05,1e-05,-1e-05,0,-4e-05,0,-1e-05,6e-05,3,29
11388,3e-05,1e-05,-1e-05,0,-4e-05,0,-1e-05,6e-05,3,29
11389,3e-05,1e-05,-1e-05,0,-4e-05,0,-1e-05,6e-05,3,29
11390,3e-05,1e-05,-1e-05,0,-4e-05,0,-1e-05,6e-05,3,29
11391,3e-05,1e-05,-1e-05,0,-4e-05,0,-1e-05,6e-05,3,29
11392,3e-05,1e-05,-1e-05,0,-4e-05,0,-1e-05,6e-05,3,29
11393,3e-05,1e-05,-1e-05,0,-4e-05,0,-1e-05,6e-05,3,29
11394,3e-05,1e-05,-1e-05,0,-4e-05,0,-1e-05,6e-05,3,29
11395,3e-05,1e-05,-1e-05,0,-4e-05,0,-1e-05,6e-05,3,29
11396,3e-05,1e-05,-1e-05,0,-4e-05,0,-1e-05,6e-05,3,29
11397,3e-05,1e-05,-1e-05,0,-4e-05,0,-1e-05,6e-05,3,29
11398,3e-05,1e-05,-1e-05,0,-4e-05,0,-1e-05,6e-05,3,29
11399,1e-05,-1e-05,1e-05,4e-05,9e-05,3e-05,1e-05,-2e-05,3,29
11400,1e-05,-1e-05,1e-05,4e-05,9e-05,3e-05,1e-05,-2e-05,3,29
11401,-0.00032,-3e-05,0,-6e-05,0,3e-05,-4e-05,-9e-05,3,29
11402,-0.00032,-3e-05,0,-6e-05,0,3e-05,-4e-05,-9e-05,3,29
11403,-0.00032,-3e-05,0,-6e-05,0,3e-05,-4e-05,-9e-05,3,29
11404,-0.00032,-3e-05,0,-6e-05,0,3e-05,-4e-05,-9e-05,3,29
11405,-0.00032,-3e-05,0,-6e-05,0,3e-05,-4e-05,-9e-05,3,29
11406,-0.00032,-3e-05,0,-6e-05,0,3e-05,-4e-05,-9e-05,3,29
11407,-0.00032,-3e-05,0,-6e-05,0,3e-05,-4e-05,-9e-05,3,29
11408,-0.00032,-3e-05,0,-6e-05,0,3e-05,-4e-05,-9e-05,3,29
11409,-0.00032,-3e-05,0,-6e-05,0,3e-05,-4e-05,-9e-05,3,29
11410,-0.00032,-3e-05,0,-6e-05,0,3e-05,-4e-05,-9e-05,3,29
11411,-0.00032,-3e-05,0,-6e-05,0,3e-05,-4e-05,-9e-05,3,29
11412,-0.00032,-3e-05,0,-6e-05,0,3e-05,-4e-05,-9e-05,3,29
11413,-0.00032,-3e-05,0,-6e-05,0,3e-05,-4e-05,-9e-05,3,29
11414,-0.00032,-3e-05,0,-6e-05,0,3e-05,-4e-05,-9e-05,3,29
11415,-0.00032,-3e-05,0,-6e-05,0,3e-05,-4e-05,-9e-05,3,29
11416,-0.00032,-3e-05,0,-6e-05,0,3e-05,-4e-05,-9e-05,3,29
11417,-0.00032,-3e-05,0,-6e-05,0,3e-05,-4e-05,-9e-05,3,29
11418,-0.00032,-3e-05,0,-6e-05,0,3e-05,-4e-05,-9e-05,3,29
11419,-0.00032,-3e-05,0,-6e-05,0,3e-05,-4e-05,-9e-05,3,29
11420,-0.00032,-3e-05,0,-6e-05,0,3e-05,-4e-05,-9e-05,3,29
11421,-0.00032,-3e-05,0,-6e-05,0,3e-05,-4e-05,-9e-05,3,29
11422,0,-2e-05,2e-05,-2e-05,2e-05,9e-05,2e-05,3e-05,3,29
11423,6e-05,-1e-05,0,1e-05,-1e-05,-0.00011,-3e-05,3e-05,3,29
11425,6e-05,-1e-05,0,1e-05,-1e-05,-0.00011,-3e-05,3e-05,3,29
11426,6e-05,-1e-05,0,1e-05,-1e-05,-0.00011,-3e-05,3e-05,3,29
11427,6e-05,-1e-05,0,1e-05,-1e-05,-0.00011,-3e-05,3e-05,3,29
11428,6e-05,-1e-05,0,1e-05,-1e-05,-0.00011,-3e-05,3e-05,3,29
11429,6e-05,-1e-05,0,1e-05,-1e-05,-0.00011,-3e-05,3e-05,3,29
11430,6e-05,-1e-05,0,1e-05,-1e-05,-0.00011,-3e-05,3e-05,3,29
11431,6e-05,-1e-05,0,1e-05,-1e-05,-0.00011,-3e-05,3e-05,3,29
11432,6e-05,-1e-05,0,1e-05,-1e-05,-0.00011,-3e-05,3e-05,3,29
11433,6e-05,-1e-05,0,1e-05,-1e-05,-0.00011,-3e-05,3e-05,3,29
11434,6e-05,-1e-05,0,1e-05,-1e-05,-0.00011,-3e-05,3e-05,3,29
11435,6e-05,-1e-05,0,1e-05,-1e-05,-0.00011,-3e-05,3e-05,3,29
11436,5e-05,-1e-05,3e-05,-3e-05,-0.00014,-0.00015,-3e-05,2e-05,3,29
11438,5e-05,-1e-05,3e-05,-3e-05,-0.00014,-0.00015,-3e-05,2e-05,3,29
11439,5e-05,-1e-05,3e-05,-3e-05,-0.00014,-0.00015,-3e-05,2e-05,3,29
11440,5e-05,-1e-05,3e-05,-3e-05,-0.00014,-0.00015,-3e-05,2e-05,3,29
11441,5e-05,-1e-05,3e-05,-3e-05,-0.00014,-0.00015,-3e-05,2e-05,3,29
11442,5e-05,-1e-05,3e-05,-3e-05,-0.00014,-0.00015,-3e-05,2e-05,3,29
11443,-0.00013,-2e-05,-9e-05,5e-05,0.00019,0.00019,1e-05,-1e-05,3,29
11444,-1e-05,0,-1e-05,-8e-05,-7e-05,-0.00017,-6e-05,3e-05,3,29
11445,-1e-05,0,-1e-05,-8e-05,-7e-05,-0.00017,-6e-05,3e-05,3,29
11446,-1e-05,0,-1e-05,-8e-05,-7e-05,-0.00017,-6e-05,3e-05,3,29
11447,-1e-05,0,-1e-05,-8e-05,-7e-05,-0.00017,-6e-05,3e-05,3,29
11448,-1e-05,0,-1e-05,-8e-05,-7e-05,-0.00017,-6e-05,3e-05,3,29
11449,-1e-05,0,-1e-05,-8e-05,-7e-05,-0.00017,-6e-05,3e-05,3,29
11450,-1e-05,0,-1e-05,-8e-05,-7e-05,-0.00017,-6e-05,3e-05,3,29
11451,-1e-05,0,-1e-05,-8e-05,-7e-05,-0.00017,-6e-05,3e-05,3,29
11452,-1e-05,0,-1e-05,-8e-05,-7e-05,-0.00017,-6e-05,3e-05,3,29
11453,-1e-05,0,-1e-05,-8e-05,-7e-05,-0.00017,-6e-05,3e-05,3,29
11454,-1e-05,0,-1e-05,-8e-05,-7e-05,-0.00017,-6e-05,3e-05,3,29
11455,-1e-05,0,-1e-05,-8e-05,-7e-05,-0.00017,-6e-05,3e-05,3,29
11456,-1e-05,0,-1e-05,-8e-05,-7e-05,-0.00017,-6e-05,3e-05,3,29
11457,-1e-05,0,-1e-05,-8e-05,-7e-05,-0.00017,-6e-05,3e-05,3,29
11458,-1e-05,0,-1e-05,-8e-05,-7e-05,-0.00017,-6e-05,3e-05,3,29
11459,-0.00015,-2e-05,-3e-05,-4e-05,-4e-05,-2e-05,1e-05,-3e-05,3,29
11460,-0.00015,-2e-05,-3e-05,-4e-05,-4e-05,-2e-05,1e-05,-3e-05,3,29
11461,4e-05,-4e-05,-2e-05,2e-05,0,0,1e-05,2e-05,3,29
11462,4e-05,-4e-05,-2e-05,2e-05,0,0,1e-05,2e-05,3,29
11463,4e-05,-4e-05,-2e-05,2e-05,0,0,1e-05,2e-05,3,29
11464,4e-05,-4e-05,-2e-05,2e-05,0,0,1e-05,2e-05,3,29
11465,4e-05,-4e-05,-2e-05,2e-05,0,0,1e-05,2e-05,3,29
11466,4e-05,-4e-05,-2e-05,2e-05,0,0,1e-05,2e-05,3,29
11467,4e-05,-4e-05,-2e-05,2e-05,0,0,1e-05,2e-05,3,29
11468,4e-05,-4e-05,-2e-05,2e-05,0,0,1e-05,2e-05,3,29
11469,4e-05,-4e-05,-2e-05,2e-05,0,0,1e-05,2e-05,3,29
11470,4e-05,-4e-05,-2e-05,2e-05,0,0,1e-05,2e-05,3,29
11471,4e-05,-4e-05,-2e-05,2e-05,0,0,1e-05,2e-05,3,29
11472,4e-05,-4e-05,-2e-05,2e-05,0,0,1e-05,2e-05,3,29
11473,4e-05,-4e-05,-2e-05,2e-05,0,0,1e-05,2e-05,3,29
11474,4e-05,-4e-05,-2e-05,2e-05,0,0,1e-05,2e-05,3,29
11475,4e-05,-4e-05,-2e-05,2e-05,0,0,1e-05,2e-05,3,29
11476,4e-05,-4e-05,-2e-05,2e-05,0,0,1e-05,2e-05,3,29
11477,4e-05,-4e-05,-2e-05,2e-05,0,0,1e-05,2e-05,3,29
11478,4e-05,-4e-05,-2e-05,2e-05,0,0,1e-05,2e-05,3,29
11479,4e-05,-4e-05,-2e-05,2e-05,0,0,1e-05,2e-05,3,29
11480,4e-05,-4e-05,-2e-05,2e-05,0,0,1e-05,2e-05,3,29
11481,4e-05,-4e-05,-2e-05,2e-05,0,0,1e-05,2e-05,3,29
11482,0.00013,0,0,-4e-05,-7e-05,-7e-05,1e-05,4e-05,3,29
11483,0.00016,6e-05,4e-05,6e-05,4e-05,0.0001,5e-05,0,3,29
11485,0.00016,6e-05,4e-05,6e-05,4e-05,0.0001,5e-05,0,3,29
11486,0.00016,6e-05,4e-05,6e-05,4e-05,0.0001,5e-05,0,3,29
11488,0.00016,6e-05,4e-05,6e-05,4e-05,0.0001,5e-05,0,3,29
11489,0.00016,6e-05,4e-05,6e-05,4e-05,0.0001,5e-05,0,3,29
11490,0.00016,6e-05,4e-05,6e-05,4e-05,0.0001,5e-05,0,3,29
11491,0.00016,6e-05,4e-05,6e-05,4e-05,0.0001,5e-05,0,3,29
11492,0.00016,6e-05,4e-05,6e-05,4e-05,0.0001,5e-05,0,3,29
11493,0.00016,6e-05,4e-05,6e-05,4e-05,0.0001,5e-05,0,3,29
11494,0.00016,6e-05,4e-05,6e-05,4e-05,0.0001,5e-05,0,3,29
11495,0.00016,6e-05,4e-05,6e-05,4e-05,0.0001,5e-05,0,3,29
11496,0.00016,6e-05,4e-05,6e-05,4e-05,0.0001,5e-05,0,3,29
11497,0.00016,6e-05,4e-05,6e-05,4e-05,0.0001,5e-05,0,3,29
11498,0.00016,6e-05,4e-05,6e-05,4e-05,0.0001,5e-05,0,3,29
11499,0.00016,6e-05,4e-05,6e-05,4e-05,0.0001,5e-05,0,3,29
11500,0.00016,6e-05,4e-05,6e-05,4e-05,0.0001,5e-05,0,3,29
11501,0.00016,6e-05,4e-05,6e-05,4e-05,0.0001,5e-05,0,3,29
11502,0.00016,6e-05,4e-05,6e-05,4e-05,0.0001,5e-05,0,3,29
11503,0.00016,6e-05,4e-05,6e-05,4e-05,0.0001,5e-05,0,3,29
11504,8e-05,1e-05,-4e-05,-2e-05,-1e-05,-6e-05,-4e-05,1e-05,3,29
11505,8e-05,1e-05,-4e-05,-2e-05,-1e-05,-6e-05,-4e-05,1e-05,3,29
11506,0.00013,0,-1e-05,-1e-05,2e-05,-2e-05,0,-1e-05,3,29
11507,0.00013,0,-1e-05,-1e-05,2e-05,-2e-05,0,-1e-05,3,29
11508,0.00013,0,-1e-05,-1e-05,2e-05,-2e-05,0,-1e-05,3,29
11509,0.00013,0,-1e-05,-1e-05,2e-05,-2e-05,0,-1e-05,3,29
11510,0.00013,0,-1e-05,-1e-05,2e-05,-2e-05,0,-1e-05,3,29
11511,0.00013,0,-1e-05,-1e-05,2e-05,-2e-05,0,-1e-05,3,29
11512,0.00013,0,-1e-05,-1e-05,2e-05,-2e-05,0,-1e-05,3,29
11513,0.00013,0,-1e-05,-1e-05,2e-05,-2e-05,0,-1e-05,3,29
11514,0.00013,0,-1e-05,-1e-05,2e-05,-2e-05,0,-1e-05,3,29
11515,0.00013,0,-1e-05,-1e-05,2e-05,-2e-05,0,-1e-05,3,29
11516,0.00013,0,-1e-05,-1e-05,2e-05,-2e-05,0,-1e-05,3,29
11517,0.00013,0,-1e-05,-1e-05,2e-05,-2e-05,0,-1e-05,3,29
11518,0.00013,0,-1e-05,-1e-05,2e-05,-2e-05,0,-1e-05,3,29
11519,-4e-05,2e-05,5e-05,6e-05,5e-05,9e-05,-1e-05,0,3,29
11520,-4e-05,2e-05,5e-05,6e-05,5e-05,9e-05,-1e-05,0,3,29
11521,-9e-05,-6e-05,-0.00011,-3e-05,-4e-05,5e-05,1e-05,-0.00012,3,29
11522,-9e-05,-6e-05,-0.00011,-3e-05,-4e-05,5e-05,1e-05,-0.00012,3,29
11523,-9e-05,-6e-05,-0.00011,-3e-05,-4e-05,5e-05,1e-05,-0.00012,3,29
11524,-9e-05,-6e-05,-0.00011,-3e-05,-4e-05,5e-05,1e-05,-0.00012,3,29
11525,-9e-05,-6e-05,-0.00011,-3e-05,-4e-05,5e-05,1e-05,-0.00012,3,29
11526,-9e-05,-6e-05,-0.00011,-3e-05,-4e-05,5e-05,1e-05,-0.00012,3,29
11527,-9e-05,-6e-05,-0.00011,-3e-05,-4e-05,5e-05,1e-05,-0.00012,3,29
11528,-9e-05,-6e-05,-0.00011,-3e-05,-4e-05,5e-05,1e-05,-0.00012,3,29
11529,-9e-05,-6e-05,-0.00011,-3e-05,-4e-05,5e-05,1e-05,-0.00012,3,29
11530,-9e-05,-6e-05,-0.00011,-3e-05,-4e-05,5e-05,1e-05,-0.00012,3,29
11531,-9e-05,-6e-05,-0.00011,-3e-05,-4e-05,5e-05,1e-05,-0.00012,3,29
11532,-9e-05,-6e-05,-0.00011,-3e-05,-4e-05,5e-05,1e-05,-0.00012,3,29
11533,-9e-05,-6e-05,-0.00011,-3e-05,-4e-05,5e-05,1e-05,-0.00012,3,29
11534,-9e-05,-6e-05,-0.00011,-3e-05,-4e-05,5e-05,1e-05,-0.00012,3,29
11535,-9e-05,-6e-05,-0.00011,-3e-05,-4e-05,5e-05,1e-05,-0.00012,3,29
11536,-9e-05,-6e-05,-0.00011,-3e-05,-4e-05,5e-05,1e-05,-0.00012,3,29
11538,-9e-05,-6e-05,-0.00011,-3e-05,-4e-05,5e-05,1e-05,-0.00012,3,29
11539,-9e-05,-6e-05,-0.00011,-3e-05,-4e-05,5e-05,1e-05,-0.00012,3,29
11540,-9e-05,-6e-05,-0.00011,-3e-05,-4e-05,5e-05,1e-05,-0.00012,3,29
11541,-9e-05,-6e-05,-0.00011,-3e-05,-4e-05,5e-05,1e-05,-0.00012,3,29
11542,9e-05,6e-05,2e-05,4e-05,7e-05,2e-05,-1e-05,5e-05,3,29
11543,-6e-05,-2e-05,-3e-05,-1e-05,-3e-05,0,-3e-05,-1e-05,3,29
11544,-6e-05,-2e-05,-3e-05,-1e-05,-3e-05,0,-3e-05,-1e-05,3,29
11545,-6e-05,-2e-05,-3e-05,-1e-05,-3e-05,0,-3e-05,-1e-05,3,29
11546,-6e-05,-2e-05,-3e-05,-1e-05,-3e-05,0,-3e-05,-1e-05,3,29
11547,-6e-05,-2e-05,-3e-05,-1e-05,-3e-05,0,-3e-05,-1e-05,3,29
11548,-6e-05,-2e-05,-3e-05,-1e-05,-3e-05,0,-3e-05,-1e-05,3,29
11549,-6e-05,-2e-05,-3e-05,-1e-05,-3e-05,0,-3e-05,-1e-05,3,29
11550,-6e-05,-2e-05,-3e-05,-1e-05,-3e-05,0,-3e-05,-1e-05,3,29
11551,-6e-05,-2e-05,-3e-05,-1e-05,-3e-05,0,-3e-05,-1e-05,3,29
11552,-6e-05,-2e-05,-3e-05,-1e-05,-3e-05,0,-3e-05,-1e-05,3,29
11553,-6e-05,-2e-05,-3e-05,-1e-05,-3e-05,0,-3e-05,-1e-05,3,29
11554,-6e-05,-2e-05,-3e-05,-1e-05,-3e-05,0,-3e-05,-1e-05,3,29
11555,-6e-05,-2e-05,-3e-05,-1e-05,-3e-05,0,-3e-05,-1e-05,3,29
11556,8e-05,1e-05,-1e-05,-2e-05,-4e-05,-6e-05,0,3e-05,3,29
11557,8e-05,1e-05,-1e-05,-2e-05,-4e-05,-6e-05,0,3e-05,3,29
11558,8e-05,1e-05,-1e-05,-2e-05,-4e-05,-6e-05,0,3e-05,3,29
11559,8e-05,1e-05,-1e-05,-2e-05,-4e-05,-6e-05,0,3e-05,3,29
11560,8e-05,1e-05,-1e-05,-2e-05,-4e-05,-6e-05,0,3e-05,3,29
11561,8e-05,1e-05,-1e-05,-2e-05,-4e-05,-6e-05,0,3e-05,3,29
11562,8e-05,1e-05,-1e-05,-2e-05,-4e-05,-6e-05,0,3e-05,3,29
11563,-1e-05,0,-1e-05,-2e-05,1e-05,5e-05,4e-05,8e-05,3,29
11564,-1e-05,0,-1e-05,-2e-05,1e-05,5e-05,4e-05,8e-05,3,29
11565,-1e-05,0,-1e-05,-2e-05,1e-05,5e-05,4e-05,8e-05,3,29
11566,-1e-05,0,-1e-05,-2e-05,1e-05,5e-05,4e-05,8e-05,3,29
11567,-1e-05,0,-1e-05,-2e-05,1e-05,5e-05,4e-05,8e-05,3,29
11568,-1e-05,0,-1e-05,-2e-05,1e-05,5e-05,4e-05,8e-05,3,29
11569,-1e-05,0,-1e-05,-2e-05,1e-05,5e-05,4e-05,8e-05,3,29
11570,-1e-05,0,-1e-05,-2e-05,1e-05,5e-05,4e-05,8e-05,3,29
11571,-1e-05,0,-1e-05,-2e-05,1e-05,5e-05,4e-05,8e-05,3,29
11572,-1e-05,0,-1e-05,-2e-05,1e-05,5e-05,4e-05,8e-05,3,29
11573,-1e-05,0,-1e-05,-2e-05,1e-05,5e-05,4e-05,8e-05,3,29
11574,-1e-05,0,-1e-05,-2e-05,1e-05,5e-05,4e-05,8e-05,3,29
11575,-1e-05,0,-1e-05,-2e-05,1e-05,5e-05,4e-05,8e-05,3,29
11576,-1e-05,0,-1e-05,-2e-05,1e-05,5e-05,4e-05,8e-05,3,29
11577,-1e-05,0,-1e-05,-2e-05,1e-05,5e-05,4e-05,8e-05,3,29
11578,-1e-05,0,-1e-05,-2e-05,1e-05,5e-05,4e-05,8e-05,3,29
11579,-4e-05,0,0,-1e-05,0,-4e-05,-6e-05,-4e-05,3,29
11580,-4e-05,0,0,-1e-05,0,-4e-05,-6e-05,-4e-05,3,29
11581,-5e-05,1e-05,5e-05,5e-05,0.0001,8e-05,0,3e-05,3,29
11582,-5e-05,1e-05,5e-05,5e-05,0.0001,8e-05,0,3e-05,3,29
11583,-5e-05,1e-05,5e-05,5e-05,0.0001,8e-05,0,3e-05,3,29
11584,-5e-05,1e-05,5e-05,5e-05,0.0001,8e-05,0,3e-05,3,29
11585,-5e-05,1e-05,5e-05,5e-05,0.0001,8e-05,0,3e-05,3,29
11586,-5e-05,1e-05,5e-05,5e-05,0.0001,8e-05,0,3e-05,3,29
11588,-5e-05,1e-05,5e-05,5e-05,0.0001,8e-05,0,3e-05,3,29
11589,-5e-05,1e-05,5e-05,5e-05,0.0001,8e-05,0,3e-05,3,29
11590,-5e-05,1e-05,5e-05,5e-05,0.0001,8e-05,0,3e-05,3,29
11591,-5e-05,1e-05,5e-05,5e-05,0.0001,8e-05,0,3e-05,3,29
11592,-5e-05,1e-05,5e-05,5e-05,0.0001,8e-05,0,3e-05,3,29
11593,-5e-05,1e-05,5e-05,5e-05,0.0001,8e-05,0,3e-05,3,29
11594,-5e-05,1e-05,5e-05,5e-05,0.0001,8e-05,0,3e-05,3,29
11595,-5e-05,1e-05,5e-05,5e-05,0.0001,8e-05,0,3e-05,3,29
11596,-5e-05,1e-05,5e-05,5e-05,0.0001,8e-05,0,3e-05,3,29
11597,-5e-05,1e-05,5e-05,5e-05,0.0001,8e-05,0,3e-05,3,29
11598,-5e-05,1e-05,5e-05,5e-05,0.0001,8e-05,0,3e-05,3,29
11599,-5e-05,1e-05,5e-05,5e-05,0.0001,8e-05,0,3e-05,3,29
11600,-5e-05,1e-05,5e-05,5e-05,0.0001,8e-05,0,3e-05,3,29
11601,-5e-05,1e-05,5e-05,5e-05,0.0001,8e-05,0,3e-05,3,29
11602,2e-05,-3e-05,-6e-05,-6e-05,-8e-05,-5e-05,-3e-05,4e-05,3,29
11603,4e-05,-4e-05,-8e-05,-4e-05,1e-05,4e-05,-3e-05,-2e-05,3,29
11605,4e-05,-4e-05,-8e-05,-4e-05,1e-05,4e-05,-3e-05,-2e-05,3,29
11606,4e-05,-4e-05,-8e-05,-4e-05,1e-05,4e-05,-3e-05,-2e-05,3,29
11607,4e-05,-4e-05,-8e-05,-4e-05,1e-05,4e-05,-3e-05,-2e-05,3,29
11608,4e-05,-4e-05,-8e-05,-4e-05,1e-05,4e-05,-3e-05,-2e-05,3,29
11609,4e-05,-4e-05,-8e-05,-4e-05,1e-05,4e-05,-3e-05,-2e-05,3,29
11610,4e-05,-4e-05,-8e-05,-4e-05,1e-05,4e-05,-3e-05,-2e-05,3,29
11611,4e-05,-4e-05,-8e-05,-4e-05,1e-05,4e-05,-3e-05,-2e-05,3,29
11612,4e-05,-4e-05,-8e-05,-4e-05,1e-05,4e-05,-3e-05,-2e-05,3,29
11613,4e-05,-4e-05,-8e-05,-4e-05,1e-05,4e-05,-3e-05,-2e-05,3,29
11614,4e-05,-4e-05,-8e-05,-4e-05,1e-05,4e-05,-3e-05,-2e-05,3,29
11615,4e-05,-4e-05,-8e-05,-4e-05,1e-05,4e-05,-3e-05,-2e-05,3,29
11616,-0.0001,-6e-05,-1e-05,3e-05,3e-05,5e-05,-2e-05,-8e-05,3,29
11617,-0.0001,-6e-05,-1e-05,3e-05,3e-05,5e-05,-2e-05,-8e-05,3,29
11618,-0.0001,-6e-05,-1e-05,3e-05,3e-05,5e-05,-2e-05,-8e-05,3,29
11619,-0.0001,-6e-05,-1e-05,3e-05,3e-05,5e-05,-2e-05,-8e-05,3,29
11620,-0.0001,-6e-05,-1e-05,3e-05,3e-05,5e-05,-2e-05,-8e-05,3,29
11621,-0.0001,-6e-05,-1e-05,3e-05,3e-05,5e-05,-2e-05,-8e-05,3,29
11622,-0.0001,-6e-05,-1e-05,3e-05,3e-05,5e-05,-2e-05,-8e-05,3,29
11623,-2e-05,-1e-05,3e-05,-2e-05,-4e-05,-5e-05,0,3e-05,3,29
11624,-2e-05,-1e-05,3e-05,-2e-05,-4e-05,-5e-05,0,3e-05,3,29
11625,-2e-05,-1e-05,3e-05,-2e-05,-4e-05,-5e-05,0,3e-05,3,29
11626,-2e-05,-1e-05,3e-05,-2e-05,-4e-05,-5e-05,0,3e-05,3,29
11627,-2e-05,-1e-05,3e-05,-2e-05,-4e-05,-5e-05,0,3e-05,3,29
11628,-2e-05,-1e-05,3e-05,-2e-05,-4e-05,-5e-05,0,3e-05,3,29
11629,-2e-05,-1e-05,3e-05,-2e-05,-4e-05,-5e-05,0,3e-05,3,29
11630,-2e-05,-1e-05,3e-05,-2e-05,-4e-05,-5e-05,0,3e-05,3,29
11631,-2e-05,-1e-05,3e-05,-2e-05,-4e-05,-5e-05,0,3e-05,3,29
11632,-2e-05,-1e-05,3e-05,-2e-05,-4e-05,-5e-05,0,3e-05,3,29
11633,-2e-05,-1e-05,3e-05,-2e-05,-4e-05,-5e-05,0,3e-05,3,29
11634,-2e-05,-1e-05,3e-05,-2e-05,-4e-05,-5e-05,0,3e-05,3,29
11635,-2e-05,-1e-05,3e-05,-2e-05,-4e-05,-5e-05,0,3e-05,3,29
11636,-2e-05,-1e-05,3e-05,-2e-05,-4e-05,-5e-05,0,3e-05,3,29
11638,-2e-05,-1e-05,3e-05,-2e-05,-4e-05,-5e-05,0,3e-05,3,29
11639,-7e-05,-3e-05,-2e-05,-1e-05,-3e-05,1e-05,0,-9e-05,3,29
11640,-7e-05,-3e-05,-2e-05,-1e-05,-3e-05,1e-05,0,-9e-05,3,29
11641,0.00024,1e-05,-2e-05,-4e-05,-3e-05,-4e-05,0,-1e-05,3,29
11642,0.00024,1e-05,-2e-05,-4e-05,-3e-05,-4e-05,0,-1e-05,3,29
11643,0.00024,1e-05,-2e-05,-4e-05,-3e-05,-4e-05,0,-1e-05,3,29
11644,0.00024,1e-05,-2e-05,-4e-05,-3e-05,-4e-05,0,-1e-05,3,29
11645,0.00024,1e-05,-2e-05,-4e-05,-3e-05,-4e-05,0,-1e-05,3,29
11646,0.00024,1e-05,-2e-05,-4e-05,-3e-05,-4e-05,0,-1e-05,3,29
11647,0.00024,1e-05,-2e-05,-4e-05,-3e-05,-4e-05,0,-1e-05,3,29
11648,0.00024,1e-05,-2e-05,-4e-05,-3e-05,-4e-05,0,-1e-05,3,29
11649,0.00024,1e-05,-2e-05,-4e-05,-3e-05,-4e-05,0,-1e-05,3,29
11650,0.00024,1e-05,-2e-05,-4e-05,-3e-05,-4e-05,0,-1e-05,3,29
11651,0.00024,1e-05,-2e-05,-4e-05,-3e-05,-4e-05,0,-1e-05,3,29
11652,0.00024,1e-05,-2e-05,-4e-05,-3e-05,-4e-05,0,-1e-05,3,29
11653,0.00024,1e-05,-2e-05,-4e-05,-3e-05,-4e-05,0,-1e-05,3,29
11654,0.00024,1e-05,-2e-05,-4e-05,-3e-05,-4e-05,0,-1e-05,3,29
11655,0.00024,1e-05,-2e-05,-4e-05,-3e-05,-4e-05,0,-1e-05,3,29
11656,0.00024,1e-05,-2e-05,-4e-05,-3e-05,-4e-05,0,-1e-05,3,29
11657,0.00024,1e-05,-2e-05,-4e-05,-3e-05,-4e-05,0,-1e-05,3,29
11658,0.00024,1e-05,-2e-05,-4e-05,-3e-05,-4e-05,0,-1e-05,3,29
11659,0.00024,1e-05,-2e-05,-4e-05,-3e-05,-4e-05,0,-1e-05,3,29
11660,0.00024,1e-05,-2e-05,-4e-05,-3e-05,-4e-05,0,-1e-05,3,29
11661,-0.00015,-7e-05,-4e-05,-4e-05,0,-1e-05,-3e-05,-5e-05,3,29
11662,-6e-05,-2e-05,-3e-05,-2e-05,0,-6e-05,-3e-05,-4e-05,3,29
11663,-8e-05,-7e-05,-5e-05,-2e-05,-2e-05,-8e-05,-5e-05,0,3,29
11664,-8e-05,-7e-05,-5e-05,-2e-05,-2e-05,-8e-05,-5e-05,0,3,29
11665,-8e-05,-7e-05,-5e-05,-2e-05,-2e-05,-8e-05,-5e-05,0,3,29
11666,-8e-05,-7e-05,-5e-05,-2e-05,-2e-05,-8e-05,-5e-05,0,3,29
11667,-8e-05,-7e-05,-5e-05,-2e-05,-2e-05,-8e-05,-5e-05,0,3,29
11668,-8e-05,-7e-05,-5e-05,-2e-05,-2e-05,-8e-05,-5e-05,0,3,29
11669,-8e-05,-7e-05,-5e-05,-2e-05,-2e-05,-8e-05,-5e-05,0,3,29
11670,-8e-05,-7e-05,-5e-05,-2e-05,-2e-05,-8e-05,-5e-05,0,3,29
11671,-8e-05,-7e-05,-5e-05,-2e-05,-2e-05,-8e-05,-5e-05,0,3,29
11672,-8e-05,-7e-05,-5e-05,-2e-05,-2e-05,-8e-05,-5e-05,0,3,29
11673,-8e-05,-7e-05,-5e-05,-2e-05,-2e-05,-8e-05,-5e-05,0,3,29
11674,-8e-05,-7e-05,-5e-05,-2e-05,-2e-05,-8e-05,-5e-05,0,3,29
11675,-8e-05,-3e-05,1e-05,-2e-05,4e-05,-2e-05,2e-05,-1e-05,3,29
11676,-8e-05,-3e-05,1e-05,-2e-05,4e-05,-2e-05,2e-05,-1e-05,3,29
11677,-8e-05,-3e-05,1e-05,-2e-05,4e-05,-2e-05,2e-05,-1e-05,3,29
11678,-8e-05,-3e-05,1e-05,-2e-05,4e-05,-2e-05,2e-05,-1e-05,3,29
11679,-8e-05,-3e-05,1e-05,-2e-05,4e-05,-2e-05,2e-05,-1e-05,3,29
11680,-8e-05,-3e-05,1e-05,-2e-05,4e-05,-2e-05,2e-05,-1e-05,3,29
11681,-8e-05,-3e-05,1e-05,-2e-05,4e-05,-2e-05,2e-05,-1e-05,3,29
11682,-8e-05,-3e-05,1e-05,-2e-05,4e-05,-2e-05,2e-05,-1e-05,3,29
11683,-8e-05,-3e-05,1e-05,-2e-05,4e-05,-2e-05,2e-05,-1e-05,3,29
11684,-0.00021,-1e-05,-3e-05,-5e-05,-4e-05,-3e-05,-4e-05,-0.00012,3,29
11686,-0.00021,-1e-05,-3e-05,-5e-05,-4e-05,-3e-05,-4e-05,-0.00012,3,29
11687,-0.00021,-1e-05,-3e-05,-5e-05,-4e-05,-3e-05,-4e-05,-0.00012,3,29
11688,-0.00021,-1e-05,-3e-05,-5e-05,-4e-05,-3e-05,-4e-05,-0.00012,3,29
11689,-0.00021,-1e-05,-3e-05,-5e-05,-4e-05,-3e-05,-4e-05,-0.00012,3,29
11690,-0.00021,-1e-05,-3e-05,-5e-05,-4e-05,-3e-05,-4e-05,-0.00012,3,29
11691,-0.00021,-1e-05,-3e-05,-5e-05,-4e-05,-3e-05,-4e-05,-0.00012,3,29
11692,-0.00021,-1e-05,-3e-05,-5e-05,-4e-05,-3e-05,-4e-05,-0.00012,3,29
11693,-0.00021,-1e-05,-3e-05,-5e-05,-4e-05,-3e-05,-4e-05,-0.00012,3,29
11694,-0.00021,-1e-05,-3e-05,-5e-05,-4e-05,-3e-05,-4e-05,-0.00012,3,29
11695,-0.00021,-1e-05,-3e-05,-5e-05,-4e-05,-3e-05,-4e-05,-0.00012,3,29
11696,-0.00021,-1e-05,-3e-05,-5e-05,-4e-05,-3e-05,-4e-05,-0.00012,3,29
11697,-0.00021,-1e-05,-3e-05,-5e-05,-4e-05,-3e-05,-4e-05,-0.00012,3,29
11698,-0.00021,-1e-05,-3e-05,-5e-05,-4e-05,-3e-05,-4e-05,-0.00012,3,29
11699,2e-05,2e-05,-1e-05,2e-05,1e-05,4e-05,0,-5e-05,3,29
11700,2e-05,2e-05,-1e-05,2e-05,1e-05,4e-05,0,-5e-05,3,29
11701,-6e-05,-4e-05,-2e-05,0,-6e-05,-3e-05,-1e-05,-1e-05,3,29
11702,-6e-05,-4e-05,-2e-05,0,-6e-05,-3e-05,-1e-05,-1e-05,3,29
11703,-6e-05,-4e-05,-2e-05,0,-6e-05,-3e-05,-1e-05,-1e-05,3,29
11704,-6e-05,-4e-05,-2e-05,0,-6e-05,-3e-05,-1e-05,-1e-05,3,29
11705,-6e-05,-4e-05,-2e-05,0,-6e-05,-3e-05,-1e-05,-1e-05,3,29
11706,-6e-05,-4e-05,-2e-05,0,-6e-05,-3e-05,-1e-05,-1e-05,3,29
11707,-6e-05,-4e-05,-2e-05,0,-6e-05,-3e-05,-1e-05,-1e-05,3,29
11708,-6e-05,-4e-05,-2e-05,0,-6e-05,-3e-05,-1e-05,-1e-05,3,29
11709,-6e-05,-4e-05,-2e-05,0,-6e-05,-3e-05,-1e-05,-1e-05,3,29
11710,-6e-05,-4e-05,-2e-05,0,-6e-05,-3e-05,-1e-05,-1e-05,3,29
11711,-6e-05,-4e-05,-2e-05,0,-6e-05,-3e-05,-1e-05,-1e-05,3,29
11712,-6e-05,-4e-05,-2e-05,0,-6e-05,-3e-05,-1e-05,-1e-05,3,29
11713,-6e-05,-4e-05,-2e-05,0,-6e-05,-3e-05,-1e-05,-1e-05,3,29
11714,-6e-05,-4e-05,-2e-05,0,-6e-05,-3e-05,-1e-05,-1e-05,3,29
11715,-6e-05,-4e-05,-2e-05,0,-6e-05,-3e-05,-1e-05,-1e-05,3,29
11716,-6e-05,-4e-05,-2e-05,0,-6e-05,-3e-05,-1e-05,-1e-05,3,29
11717,-6e-05,-4e-05,-2e-05,0,-6e-05,-3e-05,-1e-05,-1e-05,3,29
11718,-6e-05,-4e-05,-2e-05,0,-6e-05,-3e-05,-1e-05,-1e-05,3,29
11719,-6e-05,-4e-05,-2e-05,0,-6e-05,-3e-05,-1e-05,-1e-05,3,29
11720,-6e-05,-4e-05,-2e-05,0,-6e-05,-3e-05,-1e-05,-1e-05,3,29
11721,-6e-05,-4e-05,-2e-05,0,-6e-05,-3e-05,-1e-05,-1e-05,3,29
11722,0,-3e-05,0,-7e-05,-7e-05,-2e-05,-4e-05,1e-05,3,29
11723,0.00032,4e-05,2e-05,1e-05,6e-05,1e-05,0,8e-05,3,29
11724,0.00032,4e-05,2e-05,1e-05,6e-05,1e-05,0,8e-05,3,29
11725,0.00032,4e-05,2e-05,1e-05,6e-05,1e-05,0,8e-05,3,29
11726,0.00032,4e-05,2e-05,1e-05,6e-05,1e-05,0,8e-05,3,29
11727,0.00032,4e-05,2e-05,1e-05,6e-05,1e-05,0,8e-05,3,29
11728,0.00032,4e-05,2e-05,1e-05,6e-05,1e-05,0,8e-05,3,29
11729,0.00032,4e-05,2e-05,1e-05,6e-05,1e-05,0,8e-05,3,29
11730,0.00032,4e-05,2e-05,1e-05,6e-05,1e-05,0,8e-05,3,29
11731,0.00032,4e-05,2e-05,1e-05,6e-05,1e-05,0,8e-05,3,29
11732,0.00032,4e-05,2e-05,1e-05,6e-05,1e-05,0,8e-05,3,29
11733,0.00032,4e-05,2e-05,1e-05,6e-05,1e-05,0,8e-05,3,29
11734,0.00032,4e-05,2e-05,1e-05,6e-05,1e-05,0,8e-05,3,29
11735,1e-05,-4e-05,-4e-05,-3e-05,-1e-05,-0.0001,-1e-05,2e-05,3,29
11736,1e-05,-4e-05,-4e-05,-3e-05,-1e-05,-0.0001,-1e-05,2e-05,3,29
11738,1e-05,-4e-05,-4e-05,-3e-05,-1e-05,-0.0001,-1e-05,2e-05,3,29
11739,1e-05,-4e-05,-4e-05,-3e-05,-1e-05,-0.0001,-1e-05,2e-05,3,29
11740,1e-05,-4e-05,-4e-05,-3e-05,-1e-05,-0.0001,-1e-05,2e-05,3,29
11741,1e-05,-4e-05,-4e-05,-3e-05,-1e-05,-0.0001,-1e-05,2e-05,3,29
11742,1e-05,-4e-05,-4e-05,-3e-05,-1e-05,-0.0001,-1e-05,2e-05,3,29
11743,1e-05,-4e-05,-4e-05,-3e-05,-1e-05,-0.0001,-1e-05,2e-05,3,29
11744,-9e-05,-3e-05,-5e-05,-2e-05,4e-05,5e-05,-2e-05,-5e-05,3,29
11745,3e-05,5e-05,3e-05,-1e-05,-5e-05,3e-05,2e-05,-3e-05,3,29
11746,3e-05,5e-05,3e-05,-1e-05,-5e-05,3e-05,2e-05,-3e-05,3,29
11747,3e-05,5e-05,3e-05,-1e-05,-5e-05,3e-05,2e-05,-3e-05,3,29
11748,3e-05,5e-05,3e-05,-1e-05,-5e-05,3e-05,2e-05,-3e-05,3,29
11749,3e-05,5e-05,3e-05,-1e-05,-5e-05,3e-05,2e-05,-3e-05,3,29
11750,3e-05,5e-05,3e-05,-1e-05,-5e-05,3e-05,2e-05,-3e-05,3,29
11751,3e-05,5e-05,3e-05,-1e-05,-5e-05,3e-05,2e-05,-3e-05,3,29
11752,3e-05,5e-05,3e-05,-1e-05,-5e-05,3e-05,2e-05,-3e-05,3,29
11753,3e-05,5e-05,3e-05,-1e-05,-5e-05,3e-05,2e-05,-3e-05,3,29
11754,3e-05,5e-05,3e-05,-1e-05,-5e-05,3e-05,2e-05,-3e-05,3,29
11755,3e-05,5e-05,3e-05,-1e-05,-5e-05,3e-05,2e-05,-3e-05,3,29
11756,3e-05,5e-05,3e-05,-1e-05,-5e-05,3e-05,2e-05,-3e-05,3,29
11757,3e-05,5e-05,3e-05,-1e-05,-5e-05,3e-05,2e-05,-3e-05,3,29
11758,3e-05,5e-05,3e-05,-1e-05,-5e-05,3e-05,2e-05,-3e-05,3,29
11759,1e-05,1e-05,0,0,2e-05,-3e-05,-5e-05,-1e-05,3,29
11760,1e-05,1e-05,0,0,2e-05,-3e-05,-5e-05,-1e-05,3,29
11761,-5e-05,0,4e-05,0,-3e-05,-7e-05,-6e-05,2e-05,3,29
11762,-5e-05,0,4e-05,0,-3e-05,-7e-05,-6e-05,2e-05,3,29
11763,-5e-05,0,4e-05,0,-3e-05,-7e-05,-6e-05,2e-05,3,29
11764,-5e-05,0,4e-05,0,-3e-05,-7e-05,-6e-05,2e-05,3,29
11765,-5e-05,0,4e-05,0,-3e-05,-7e-05,-6e-05,2e-05,3,29
11766,-5e-05,0,4e-05,0,-3e-05,-7e-05,-6e-05,2e-05,3,29
11767,-5e-05,0,4e-05,0,-3e-05,-7e-05,-6e-05,2e-05,3,29
11768,-5e-05,0,4e-05,0,-3e-05,-7e-05,-6e-05,2e-05,3,29
11769,-5e-05,0,4e-05,0,-3e-05,-7e-05,-6e-05,2e-05,3,29
11770,-5e-05,0,4e-05,0,-3e-05,-7e-05,-6e-05,2e-05,3,29
11771,-5e-05,0,4e-05,0,-3e-05,-7e-05,-6e-05,2e-05,3,29
11772,-5e-05,0,4e-05,0,-3e-05,-7e-05,-6e-05,2e-05,3,29
11773,-5e-05,0,4e-05,0,-3e-05,-7e-05,-6e-05,2e-05,3,29
11774,-5e-05,0,4e-05,0,-3e-05,-7e-05,-6e-05,2e-05,3,29
11775,-5e-05,0,4e-05,0,-3e-05,-7e-05,-6e-05,2e-05,3,29
11776,-5e-05,0,4e-05,0,-3e-05,-7e-05,-6e-05,2e-05,3,29
11777,-5e-05,0,4e-05,0,-3e-05,-7e-05,-6e-05,2e-05,3,29
11778,-5e-05,0,4e-05,0,-3e-05,-7e-05,-6e-05,2e-05,3,29
11779,-5e-05,0,4e-05,0,-3e-05,-7e-05,-6e-05,2e-05,3,29
11780,-5e-05,0,4e-05,0,-3e-05,-7e-05,-6e-05,2e-05,3,29
11781,-5e-05,0,4e-05,0,-3e-05,-7e-05,-6e-05,2e-05,3,29
11782,-6e-05,-2e-05,0,-2e-05,-4e-05,4e-05,2e-05,-4e-05,3,29
11783,-6e-05,-2e-05,0,-2e-05,-4e-05,4e-05,2e-05,-4e-05,3,29
11784,-2e-05,1e-05,2e-05,2e-05,9e-05,4e-05,-2e-05,0,3,29
11785,-2e-05,1e-05,2e-05,2e-05,9e-05,4e-05,-2e-05,0,3,29
11786,-2e-05,1e-05,2e-05,2e-05,9e-05,4e-05,-2e-05,0,3,29
11788,-2e-05,1e-05,2e-05,2e-05,9e-05,4e-05,-2e-05,0,3,29
11789,-2e-05,1e-05,2e-05,2e-05,9e-05,4e-05,-2e-05,0,3,29
11790,-2e-05,1e-05,2e-05,2e-05,9e-05,4e-05,-2e-05,0,3,29
11791,-2e-05,1e-05,2e-05,2e-05,9e-05,4e-05,-2e-05,0,3,29
11792,-2e-05,1e-05,2e-05,2e-05,9e-05,4e-05,-2e-05,0,3,29
11793,-2e-05,1e-05,2e-05,2e-05,9e-05,4e-05,-2e-05,0,3,29
11794,-2e-05,1e-05,2e-05,2e-05,9e-05,4e-05,-2e-05,0,3,29
11795,-2e-05,1e-05,2e-05,-3e-05,-0.00011,-6e-05,-1e-05,0,3,29
11796,-1e-05,-9e-05,-5e-05,-3e-05,-8e-05,-1e-05,-1e-05,0,3,29
11797,-1e-05,-9e-05,-5e-05,-3e-05,-8e-05,-1e-05,-1e-05,0,3,29
11798,-1e-05,-9e-05,-5e-05,-3e-05,-8e-05,-1e-05,-1e-05,0,3,29
11799,-1e-05,-9e-05,-5e-05,-3e-05,-8e-05,-1e-05,-1e-05,0,3,29
11800,-1e-05,-9e-05,-5e-05,-3e-05,-8e-05,-1e-05,-1e-05,0,3,29
11802,-1e-05,-9e-05,-5e-05,-3e-05,-8e-05,-1e-05,-1e-05,0,3,29
11803,-1e-05,-9e-05,-5e-05,-3e-05,-8e-05,-1e-05,-1e-05,0,3,29
11804,-5e-05,-3e-05,1e-05,-1e-05,-4e-05,-0.0001,0,2e-05,3,29
11805,-5e-05,-3e-05,1e-05,-1e-05,-4e-05,-0.0001,0,2e-05,3,29
11806,-5e-05,-3e-05,1e-05,-1e-05,-4e-05,-0.0001,0,2e-05,3,29
11807,-5e-05,-3e-05,1e-05,-1e-05,-4e-05,-0.0001,0,2e-05,3,29
11808,-5e-05,-3e-05,1e-05,-1e-05,-4e-05,-0.0001,0,2e-05,3,29
11809,-5e-05,-3e-05,1e-05,-1e-05,-4e-05,-0.0001,0,2e-05,3,29
11810,-5e-05,-3e-05,1e-05,-1e-05,-4e-05,-0.0001,0,2e-05,3,29
11811,-5e-05,-3e-05,1e-05,-1e-05,-4e-05,-0.0001,0,2e-05,3,29
11812,-5e-05,-3e-05,1e-05,-1e-05,-4e-05,-0.0001,0,2e-05,3,29
11813,-5e-05,-3e-05,1e-05,-1e-05,-4e-05,-0.0001,0,2e-05,3,29
11814,-5e-05,-3e-05,1e-05,-1e-05,-4e-05,-0.0001,0,2e-05,3,29
11815,-5e-05,-3e-05,1e-05,-1e-05,-4e-05,-0.0001,0,2e-05,3,29
11816,-5e-05,-3e-05,1e-05,-1e-05,-4e-05,-0.0001,0,2e-05,3,29
11817,-5e-05,-3e-05,1e-05,-1e-05,-4e-05,-0.0001,0,2e-05,3,29
11818,-5e-05,-3e-05,1e-05,-1e-05,-4e-05,-0.0001,0,2e-05,3,29
11819,1e-05,3e-05,0,-3e-05,-2e-05,6e-05,2e-05,5e-05,3,29
11820,1e-05,3e-05,0,-3e-05,-2e-05,6e-05,2e-05,5e-05,3,29
11821,-0.00022,-7e-05,-3e-05,-1e-05,1e-05,-4e-05,-1e-05,-6e-05,3,29
11822,-0.00022,-7e-05,-3e-05,-1e-05,1e-05,-4e-05,-1e-05,-6e-05,3,29
11823,-0.00022,-7e-05,-3e-05,-1e-05,1e-05,-4e-05,-1e-05,-6e-05,3,29
11824,-0.00022,-7e-05,-3e-05,-1e-05,1e-05,-4e-05,-1e-05,-6e-05,3,29
11825,-0.00022,-7e-05,-3e-05,-1e-05,1e-05,-4e-05,-1e-05,-6e-05,3,29
11826,-0.00022,-7e-05,-3e-05,-1e-05,1e-05,-4e-05,-1e-05,-6e-05,3,29
11827,-0.00022,-7e-05,-3e-05,-1e-05,1e-05,-4e-05,-1e-05,-6e-05,3,29
11828,-0.00022,-7e-05,-3e-05,-1e-05,1e-05,-4e-05,-1e-05,-6e-05,3,29
11829,-0.00022,-7e-05,-3e-05,-1e-05,1e-05,-4e-05,-1e-05,-6e-05,3,29
11830,-0.00022,-7e-05,-3e-05,-1e-05,1e-05,-4e-05,-1e-05,-6e-05,3,29
11831,-0.00022,-7e-05,-3e-05,-1e-05,1e-05,-4e-05,-1e-05,-6e-05,3,29
11832,-0.00022,-7e-05,-3e-05,-1e-05,1e-05,-4e-05,-1e-05,-6e-05,3,29
11833,-0.00022,-7e-05,-3e-05,-1e-05,1e-05,-4e-05,-1e-05,-6e-05,3,29
11834,-0.00022,-7e-05,-3e-05,-1e-05,1e-05,-4e-05,-1e-05,-6e-05,3,29
11835,-0.00022,-7e-05,-3e-05,-1e-05,1e-05,-4e-05,-1e-05,-6e-05,3,29
11836,-0.00022,-7e-05,-3e-05,-1e-05,1e-05,-4e-05,-1e-05,-6e-05,3,29
11838,-0.00022,-7e-05,-3e-05,-1e-05,1e-05,-4e-05,-1e-05,-6e-05,3,29
11839,-0.00022,-7e-05,-3e-05,-1e-05,1e-05,-4e-05,-1e-05,-6e-05,3,29
11840,-0.00022,-7e-05,-3e-05,-1e-05,1e-05,-4e-05,-1e-05,-6e-05,3,29
11841,-0.00022,-7e-05,-3e-05,-1e-05,1e-05,-4e-05,-1e-05,-6e-05,3,29
11842,0,1e-05,-2e-05,-1e-05,0,4e-05,0,0,3,29
11843,4e-05,0,-2e-05,-4e-05,0,3e-05,0,1e-05,3,29
11844,4e-05,0,-2e-05,-4e-05,0,3e-05,0,1e-05,3,29
11845,4e-05,0,-2e-05,-4e-05,0,3e-05,0,1e-05,3,29
11846,4e-05,0,-2e-05,-4e-05,0,3e-05,0,1e-05,3,29
11847,4e-05,0,-2e-05,-4e-05,0,3e-05,0,1e-05,3,29
11849,4e-05,0,-2e-05,-4e-05,0,3e-05,0,1e-05,3,29
11850,4e-05,0,-2e-05,-4e-05,0,3e-05,0,1e-05,3,29
11851,4e-05,0,-2e-05,-4e-05,0,3e-05,0,1e-05,3,29
11852,4e-05,0,-2e-05,-4e-05,0,3e-05,0,1e-05,3,29
11853,4e-05,0,-2e-05,-4e-05,0,3e-05,0,1e-05,3,29
11854,4e-05,0,-2e-05,-4e-05,0,3e-05,0,1e-05,3,29
11855,0,0,-3e-05,2e-05,1e-05,-2e-05,1e-05,5e-05,3,29
11856,0,0,-3e-05,2e-05,1e-05,-2e-05,1e-05,5e-05,3,29
11857,0,0,-3e-05,2e-05,1e-05,-2e-05,1e-05,5e-05,3,29
11858,0,0,-3e-05,2e-05,1e-05,-2e-05,1e-05,5e-05,3,29
11859,0,0,-3e-05,2e-05,1e-05,-2e-05,1e-05,5e-05,3,29
11860,0,0,-3e-05,2e-05,1e-05,-2e-05,1e-05,5e-05,3,29
11861,0,0,-3e-05,2e-05,1e-05,-2e-05,1e-05,5e-05,3,29
11862,0,0,-3e-05,2e-05,1e-05,-2e-05,1e-05,5e-05,3,29
11863,0,0,-3e-05,2e-05,1e-05,-2e-05,1e-05,5e-05,3,29
11864,0.00012,2e-05,2e-05,2e-05,3e-05,-4e-05,1e-05,-2e-05,3,29
11865,0.00012,2e-05,2e-05,2e-05,3e-05,-4e-05,1e-05,-2e-05,3,29
11866,0.00012,2e-05,2e-05,2e-05,3e-05,-4e-05,1e-05,-2e-05,3,29
11867,0.00012,2e-05,2e-05,2e-05,3e-05,-4e-05,1e-05,-2e-05,3,29
11868,0.00012,2e-05,2e-05,2e-05,3e-05,-4e-05,1e-05,-2e-05,3,29
11869,0.00012,2e-05,2e-05,2e-05,3e-05,-4e-05,1e-05,-2e-05,3,29
11870,0.00012,2e-05,2e-05,2e-05,3e-05,-4e-05,1e-05,-2e-05,3,29
11871,0.00012,2e-05,2e-05,2e-05,3e-05,-4e-05,1e-05,-2e-05,3,29
11872,0.00012,2e-05,2e-05,2e-05,3e-05,-4e-05,1e-05,-2e-05,3,29
11873,0.00012,2e-05,2e-05,2e-05,3e-05,-4e-05,1e-05,-2e-05,3,29
11874,0.00012,2e-05,2e-05,2e-05,3e-05,-4e-05,1e-05,-2e-05,3,29
11875,0.00012,2e-05,2e-05,2e-05,3e-05,-4e-05,1e-05,-2e-05,3,29
11876,0.00012,2e-05,2e-05,2e-05,3e-05,-4e-05,1e-05,-2e-05,3,29
11877,0.00012,2e-05,2e-05,2e-05,3e-05,-4e-05,1e-05,-2e-05,3,29
11878,0.00012,2e-05,2e-05,2e-05,3e-05,-4e-05,1e-05,-2e-05,3,29
11879,7e-05,-1e-05,-3e-05,-3e-05,-1e-05,-2e-05,0,0,3,29
11880,7e-05,-1e-05,-3e-05,-3e-05,-1e-05,-2e-05,0,0,3,29
11881,2e-05,3e-05,1e-05,5e-05,5e-05,-4e-05,-4e-05,1e-05,3,29
11882,2e-05,3e-05,1e-05,5e-05,5e-05,-4e-05,-4e-05,1e-05,3,29
11883,2e-05,3e-05,1e-05,5e-05,5e-05,-4e-05,-4e-05,1e-05,3,29
11884,2e-05,3e-05,1e-05,5e-05,5e-05,-4e-05,-4e-05,1e-05,3,29
11885,2e-05,3e-05,1e-05,5e-05,5e-05,-4e-05,-4e-05,1e-05,3,29
11886,2e-05,3e-05,1e-05,5e-05,5e-05,-4e-05,-4e-05,1e-05,3,29
11888,2e-05,3e-05,1e-05,5e-05,5e-05,-4e-05,-4e-05,1e-05,3,29
11889,2e-05,3e-05,1e-05,5e-05,5e-05,-4e-05,-4e-05,1e-05,3,29
11890,2e-05,3e-05,1e-05,5e-05,5e-05,-4e-05,-4e-05,1e-05,3,29
11891,2e-05,3e-05,1e-05,5e-05,5e-05,-4e-05,-4e-05,1e-05,3,29
11892,2e-05,3e-05,1e-05,5e-05,5e-05,-4e-05,-4e-05,1e-05,3,29
11893,2e-05,3e-05,1e-05,5e-05,5e-05,-4e-05,-4e-05,1e-05,3,29
11894,2e-05,3e-05,1e-05,5e-05,5e-05,-4e-05,-4e-05,1e-05,3,29
11895,2e-05,3e-05,1e-05,5e-05,5e-05,-4e-05,-4e-05,1e-05,3,29
11896,2e-05,3e-05,1e-05,5e-05,5e-05,-4e-05,-4e-05,1e-05,3,29
11897,2e-05,3e-05,1e-05,5e-05,5e-05,-4e-05,-4e-05,1e-05,3,29
11898,2e-05,3e-05,1e-05,5e-05,5e-05,-4e-05,-4e-05,1e-05,3,29
11899,2e-05,3e-05,1e-05,5e-05,5e-05,-4e-05,-4e-05,1e-05,3,29
11900,2e-05,3e-05,1e-05,5e-05,5e-05,-4e-05,-4e-05,1e-05,3,29
11901,2e-05,3e-05,1e-05,5e-05,5e-05,-4e-05,-4e-05,1e-05,3,29
11902,-5e-05,-2e-05,-4e-05,-3e-05,0,-0.00013,-6e-05,-0.0001,3,29
11903,-2e-05,0,0,-5e-05,-3e-05,0.00011,4e-05,-1e-05,3,29
11904,-2e-05,0,0,-5e-05,-3e-05,0.00011,4e-05,-1e-05,3,29
11905,-2e-05,0,0,-5e-05,-3e-05,0.00011,4e-05,-1e-05,3,29
11906,-2e-05,0,0,-5e-05,-3e-05,0.00011,4e-05,-1e-05,3,29
11907,-2e-05,0,0,-5e-05,-3e-05,0.00011,4e-05,-1e-05,3,29
11908,-2e-05,0,0,-5e-05,-3e-05,0.00011,4e-05,-1e-05,3,29
11909,-2e-05,0,0,-5e-05,-3e-05,0.00011,4e-05,-1e-05,3,29
11910,-2e-05,0,0,-5e-05,-3e-05,0.00011,4e-05,-1e-05,3,29
11911,-2e-05,0,0,-5e-05,-3e-05,0.00011,4e-05,-1e-05,3,29
11912,-2e-05,0,0,-5e-05,-3e-05,0.00011,4e-05,-1e-05,3,29
11913,-2e-05,0,0,-5e-05,-3e-05,0.00011,4e-05,-1e-05,3,29
11914,-2e-05,0,0,-5e-05,-3e-05,0.00011,4e-05,-1e-05,3,29
11915,-0.00015,-2e-05,-2e-05,-2e-05,-6e-05,-1e-05,-6e-05,-0.00018,3,29
11916,-0.00015,-2e-05,-2e-05,-2e-05,-6e-05,-1e-05,-6e-05,-0.00018,3,29
11917,-0.00015,-2e-05,-2e-05,-2e-05,-6e-05,-1e-05,-6e-05,-0.00018,3,29
11918,-0.00015,-2e-05,-2e-05,-2e-05,-6e-05,-1e-05,-6e-05,-0.00018,3,29
11919,-0.00015,-2e-05,-2e-05,-2e-05,-6e-05,-1e-05,-6e-05,-0.00018,3,29
11920,-0.00015,-2e-05,-2e-05,-2e-05,-6e-05,-1e-05,-6e-05,-0.00018,3,29
11921,-0.00015,-2e-05,-2e-05,-2e-05,-6e-05,-1e-05,-6e-05,-0.00018,3,29
11922,-0.00015,-2e-05,-2e-05,-2e-05,-6e-05,-1e-05,-6e-05,-0.00018,3,29
11923,-0.00015,-2e-05,-2e-05,-2e-05,-6e-05,-1e-05,-6e-05,-0.00018,3,29
11924,-1e-05,-3e-05,-1e-05,-3e-05,-0.00013,-8e-05,-6e-05,-5e-05,3,29
11925,-1e-05,-3e-05,-1e-05,-3e-05,-0.00013,-8e-05,-6e-05,-5e-05,3,29
11926,-1e-05,-3e-05,-1e-05,-3e-05,-0.00013,-8e-05,-6e-05,-5e-05,3,29
11927,-1e-05,-3e-05,-1e-05,-3e-05,-0.00013,-8e-05,-6e-05,-5e-05,3,29
11928,-1e-05,-3e-05,-1e-05,-3e-05,-0.00013,-8e-05,-6e-05,-5e-05,3,29
11929,-1e-05,-3e-05,-1e-05,-3e-05,-0.00013,-8e-05,-6e-05,-5e-05,3,29
11930,-1e-05,-3e-05,-1e-05,-3e-05,-0.00013,-8e-05,-6e-05,-5e-05,3,29
11931,-1e-05,-3e-05,-1e-05,-3e-05,-0.00013,-8e-05,-6e-05,-5e-05,3,29
11932,-1e-05,-3e-05,-1e-05,-3e-05,-0.00013,-8e-05,-6e-05,-5e-05,3,29
11933,-1e-05,-3e-05,-1e-05,-3e-05,-0.00013,-8e-05,-6e-05,-5e-05,3,29
11934,-1e-05,-3e-05,-1e-05,-3e-05,-0.00013,-8e-05,-6e-05,-5e-05,3,29
11935,-1e-05,-3e-05,-1e-05,-3e-05,-0.00013,-8e-05,-6e-05,-5e-05,3,29
11936,-1e-05,-3e-05,-1e-05,-3e-05,-0.00013,-8e-05,-6e-05,-5e-05,3,29
11938,-1e-05,-3e-05,-1e-05,-3e-05,-0.00013,-8e-05,-6e-05,-5e-05,3,29
11939,3e-05,4e-05,5e-05,3e-05,0,3e-05,1e-05,8e-05,3,29
11940,3e-05,4e-05,5e-05,3e-05,0,3e-05,1e-05,8e-05,3,29
11941,-0.00025,-5e-05,-9e-05,-2e-05,-2e-05,-2e-05,1e-05,-9e-05,3,29
11942,-0.00025,-5e-05,-9e-05,-2e-05,-2e-05,-2e-05,1e-05,-9e-05,3,29
11943,-0.00025,-5e-05,-9e-05,-2e-05,-2e-05,-2e-05,1e-05,-9e-05,3,29
11944,-0.00025,-5e-05,-9e-05,-2e-05,-2e-05,-2e-05,1e-05,-9e-05,3,29
11945,-0.00025,-5e-05,-9e-05,-2e-05,-2e-05,-2e-05,1e-05,-9e-05,3,29
11946,-0.00025,-5e-05,-9e-05,-2e-05,-2e-05,-2e-05,1e-05,-9e-05,3,29
11947,-0.00025,-5e-05,-9e-05,-2e-05,-2e-05,-2e-05,1e-05,-9e-05,3,29
11948,-0.00025,-5e-05,-9e-05,-2e-05,-2e-05,-2e-05,1e-05,-9e-05,3,29
11949,-0.00025,-5e-05,-9e-05,-2e-05,-2e-05,-2e-05,1e-05,-9e-05,3,29
11950,-0.00025,-5e-05,-9e-05,-2e-05,-2e-05,-2e-05,1e-05,-9e-05,3,29
11951,-0.00025,-5e-05,-9e-05,-2e-05,-2e-05,-2e-05,1e-05,-9e-05,3,29
11952,-0.00025,-5e-05,-9e-05,-2e-05,-2e-05,-2e-05,1e-05,-9e-05,3,29
11953,-0.00025,-5e-05,-9e-05,-2e-05,-2e-05,-2e-05,1e-05,-9e-05,3,29
11954,-0.00025,-5e-05,-9e-05,-2e-05,-2e-05,-2e-05,1e-05,-9e-05,3,29
11955,-0.00025,-5e-05,-9e-05,-2e-05,-2e-05,-2e-05,1e-05,-9e-05,3,29
11956,-0.00025,-5e-05,-9e-05,-2e-05,-2e-05,-2e-05,1e-05,-9e-05,3,29
11957,-0.00025,-5e-05,-9e-05,-2e-05,-2e-05,-2e-05,1e-05,-9e-05,3,29
11958,-0.00025,-5e-05,-9e-05,-2e-05,-2e-05,-2e-05,1e-05,-9e-05,3,29
11959,-0.00025,-5e-05,-9e-05,-2e-05,-2e-05,-2e-05,1e-05,-9e-05,3,29
11960,-0.00025,-5e-05,-9e-05,-2e-05,-2e-05,-2e-05,1e-05,-9e-05,3,29
11961,-0.00025,-5e-05,-9e-05,-2e-05,-2e-05,-2e-05,1e-05,-9e-05,3,29
11962,2e-05,-2e-05,-3e-05,-3e-05,6e-05,7e-05,2e-05,2e-05,3,29
11963,-5e-05,-3e-05,2e-05,-2e-05,-0.0001,2e-05,0,-3e-05,3,29
11964,-5e-05,-3e-05,2e-05,-2e-05,-0.0001,2e-05,0,-3e-05,3,29
11965,-5e-05,-3e-05,2e-05,-2e-05,-0.0001,2e-05,0,-3e-05,3,29
11966,-5e-05,-3e-05,2e-05,-2e-05,-0.0001,2e-05,0,-3e-05,3,29
11967,-5e-05,-3e-05,2e-05,-2e-05,-0.0001,2e-05,0,-3e-05,3,29
11968,-5e-05,-3e-05,2e-05,-2e-05,-0.0001,2e-05,0,-3e-05,3,29
11969,-5e-05,-3e-05,2e-05,-2e-05,-0.0001,2e-05,0,-3e-05,3,29
11970,-5e-05,-3e-05,2e-05,-2e-05,-0.0001,2e-05,0,-3e-05,3,29
11971,-5e-05,-3e-05,2e-05,-2e-05,-0.0001,2e-05,0,-3e-05,3,29
11972,-5e-05,-3e-05,2e-05,-2e-05,-0.0001,2e-05,0,-3e-05,3,29
11973,-5e-05,-3e-05,2e-05,-2e-05,-0.0001,2e-05,0,-3e-05,3,29
11974,-5e-05,-3e-05,2e-05,-2e-05,-0.0001,2e-05,0,-3e-05,3,29
11975,-5e-05,-1e-05,6e-05,4e-05,-4e-05,-3e-05,-1e-05,-4e-05,3,29
11976,-5e-05,-1e-05,6e-05,4e-05,-4e-05,-3e-05,-1e-05,-4e-05,3,29
11977,-5e-05,-1e-05,6e-05,4e-05,-4e-05,-3e-05,-1e-05,-4e-05,3,29
11978,-5e-05,-1e-05,6e-05,4e-05,-4e-05,-3e-05,-1e-05,-4e-05,3,29
11979,-5e-05,-1e-05,6e-05,4e-05,-4e-05,-3e-05,-1e-05,-4e-05,3,29
11980,-5e-05,-1e-05,6e-05,4e-05,-4e-05,-3e-05,-1e-05,-4e-05,3,29
11981,-5e-05,-1e-05,6e-05,4e-05,-4e-05,-3e-05,-1e-05,-4e-05,3,29
11982,-5e-05,-1e-05,6e-05,4e-05,-4e-05,-3e-05,-1e-05,-4e-05,3,29
11983,-5e-05,-1e-05,6e-05,4e-05,-4e-05,-3e-05,-1e-05,-4e-05,3,29
11984,-4e-05,-7e-05,-0.00016,-5e-05,-1e-05,0.00018,1e-05,-2e-05,3,29
11985,-4e-05,-7e-05,-0.00016,-5e-05,-1e-05,0.00018,1e-05,-2e-05,3,29
11986,-4e-05,-7e-05,-0.00016,-5e-05,-1e-05,0.00018,1e-05,-2e-05,3,29
11989,-4e-05,-7e-05,-0.00016,-5e-05,-1e-05,0.00018,1e-05,-2e-05,3,29
11990,-4e-05,-7e-05,-0.00016,-5e-05,-1e-05,0.00018,1e-05,-2e-05,3,29
11991,-4e-05,-7e-05,-0.00016,-5e-05,-1e-05,0.00018,1e-05,-2e-05,3,29
11992,-4e-05,-7e-05,-0.00016,-5e-05,-1e-05,0.00018,1e-05,-2e-05,3,29
11993,-4e-05,-7e-05,-0.00016,-5e-05,-1e-05,0.00018,1e-05,-2e-05,3,29
11994,-4e-05,-7e-05,-0.00016,-5e-05,-1e-05,0.00018,1e-05,-2e-05,3,29
11995,-4e-05,-7e-05,-0.00016,-5e-05,-1e-05,0.00018,1e-05,-2e-05,3,29
11996,-4e-05,-7e-05,-0.00016,-5e-05,-1e-05,0.00018,1e-05,-2e-05,3,29
11997,-4e-05,-7e-05,-0.00016,-5e-05,-1e-05,0.00018,1e-05,-2e-05,3,29
11998,-4e-05,-7e-05,-0.00016,-5e-05,-1e-05,0.00018,1e-05,-2e-05,3,29
11999,0,1e-05,0,2e-05,-6e-05,-3e-05,-2e-05,6e-05,3,29
12000,0,1e-05,0,2e-05,-6e-05,-3e-05,-2e-05,6e-05,3,29
12001,-3e-05,1e-05,4e-05,5e-05,9e-05,-4e-05,-2e-05,1e-05,3,29
12002,-3e-05,1e-05,4e-05,5e-05,9e-05,-4e-05,-2e-05,1e-05,3,29
12003,-3e-05,1e-05,4e-05,5e-05,9e-05,-4e-05,-2e-05,1e-05,3,29
12004,-3e-05,1e-05,4e-05,5e-05,9e-05,-4e-05,-2e-05,1e-05,3,29
12005,-3e-05,1e-05,4e-05,5e-05,9e-05,-4e-05,-2e-05,1e-05,3,29
12006,-3e-05,1e-05,4e-05,5e-05,9e-05,-4e-05,-2e-05,1e-05,3,29
12007,-3e-05,1e-05,4e-05,5e-05,9e-05,-4e-05,-2e-05,1e-05,3,29
12008,-3e-05,1e-05,4e-05,5e-05,9e-05,-4e-05,-2e-05,1e-05,3,29
12009,-3e-05,1e-05,4e-05,5e-05,9e-05,-4e-05,-2e-05,1e-05,3,29
12010,-3e-05,1e-05,4e-05,5e-05,9e-05,-4e-05,-2e-05,1e-05,3,29
12011,-3e-05,1e-05,4e-05,5e-05,9e-05,-4e-05,-2e-05,1e-05,3,29
12012,-3e-05,1e-05,4e-05,5e-05,9e-05,-4e-05,-2e-05,1e-05,3,29
12013,-3e-05,1e-05,4e-05,5e-05,9e-05,-4e-05,-2e-05,1e-05,3,29
12014,-3e-05,1e-05,4e-05,5e-05,9e-05,-4e-05,-2e-05,1e-05,3,29
12015,-3e-05,1e-05,4e-05,5e-05,9e-05,-4e-05,-2e-05,1e-05,3,29
12016,-3e-05,1e-05,4e-05,5e-05,9e-05,-4e-05,-2e-05,1e-05,3,29
12017,-3e-05,1e-05,4e-05,5e-05,9e-05,-4e-05,-2e-05,1e-05,3,29
12018,-3e-05,1e-05,4e-05,5e-05,9e-05,-4e-05,-2e-05,1e-05,3,29
12019,-3e-05,1e-05,4e-05,5e-05,9e-05,-4e-05,-2e-05,1e-05,3,29
12020,-3e-05,1e-05,4e-05,5e-05,9e-05,-4e-05,-2e-05,1e-05,3,29
12021,-3e-05,1e-05,4e-05,5e-05,9e-05,-4e-05,-2e-05,1e-05,3,29
12022,4e-05,-1e-05,-1e-05,0,5e-05,-4e-05,3e-05,1e-05,3,29
12023,-8e-05,-3e-05,6e-05,5e-05,0.0001,-4e-05,-1e-05,-8e-05,3,29
12024,-8e-05,-3e-05,6e-05,5e-05,0.0001,-4e-05,-1e-05,-8e-05,3,29
12025,-8e-05,-3e-05,6e-05,5e-05,0.0001,-4e-05,-1e-05,-8e-05,3,29
12026,-8e-05,-3e-05,6e-05,5e-05,0.0001,-4e-05,-1e-05,-8e-05,3,29
12027,-8e-05,-3e-05,6e-05,5e-05,0.0001,-4e-05,-1e-05,-8e-05,3,29
12028,-8e-05,-3e-05,6e-05,5e-05,0.0001,-4e-05,-1e-05,-8e-05,3,29
12029,-8e-05,-3e-05,6e-05,5e-05,0.0001,-4e-05,-1e-05,-8e-05,3,29
12030,-8e-05,-3e-05,6e-05,5e-05,0.0001,-4e-05,-1e-05,-8e-05,3,29
12031,-8e-05,-3e-05,6e-05,5e-05,0.0001,-4e-05,-1e-05,-8e-05,3,29
12032,-8e-05,-3e-05,6e-05,5e-05,0.0001,-4e-05,-1e-05,-8e-05,3,29
12033,-8e-05,-3e-05,6e-05,5e-05,0.0001,-4e-05,-1e-05,-8e-05,3,29
12034,-8e-05,-3e-05,6e-05,5e-05,0.0001,-4e-05,-1e-05,-8e-05,3,29
12035,-1e-05,-4e-05,-5e-05,-5e-05,-7e-05,-4e-05,-1e-05,-1e-05,3,29
12036,-3e-05,-3e-05,-5e-05,-2e-05,1e-05,2e-05,3e-05,4e-05,3,29
12038,-3e-05,-3e-05,-5e-05,-2e-05,1e-05,2e-05,3e-05,4e-05,3,29
12039,-3e-05,-3e-05,-5e-05,-2e-05,1e-05,2e-05,3e-05,4e-05,3,29
12040,-3e-05,-3e-05,-5e-05,-2e-05,1e-05,2e-05,3e-05,4e-05,3,29
12041,-3e-05,-3e-05,-5e-05,-2e-05,1e-05,2e-05,3e-05,4e-05,3,29
12042,-3e-05,-3e-05,-5e-05,-2e-05,1e-05,2e-05,3e-05,4e-05,3,29
12043,-3e-05,-3e-05,-5e-05,-2e-05,1e-05,2e-05,3e-05,4e-05,3,29
12044,-6e-05,3e-05,-1e-05,-1e-05,1e-05,-2e-05,0,6e-05,3,29
12045,-6e-05,3e-05,-1e-05,-1e-05,1e-05,-2e-05,0,6e-05,3,29
12046,-6e-05,3e-05,-1e-05,-1e-05,1e-05,-2e-05,0,6e-05,3,29
12047,-6e-05,3e-05,-1e-05,-1e-05,1e-05,-2e-05,0,6e-05,3,29
12048,-6e-05,3e-05,-1e-05,-1e-05,1e-05,-2e-05,0,6e-05,3,29
12049,-6e-05,3e-05,-1e-05,-1e-05,1e-05,-2e-05,0,6e-05,3,29
12050,-6e-05,3e-05,-1e-05,-1e-05,1e-05,-2e-05,0,6e-05,3,29
12051,-6e-05,3e-05,-1e-05,-1e-05,1e-05,-2e-05,0,6e-05,3,29
12052,-6e-05,3e-05,-1e-05,-1e-05,1e-05,-2e-05,0,6e-05,3,29
12053,-6e-05,3e-05,-1e-05,-1e-05,1e-05,-2e-05,0,6e-05,3,29
12054,-6e-05,3e-05,-1e-05,-1e-05,1e-05,-2e-05,0,6e-05,3,29
12055,-6e-05,3e-05,-1e-05,-1e-05,1e-05,-2e-05,0,6e-05,3,29
12056,-6e-05,3e-05,-1e-05,-1e-05,1e-05,-2e-05,0,6e-05,3,29
12057,-6e-05,3e-05,-1e-05,-1e-05,1e-05,-2e-05,0,6e-05,3,29
12058,-6e-05,3e-05,-1e-05,-1e-05,1e-05,-2e-05,0,6e-05,3,29
12059,-6e-05,3e-05,-1e-05,-1e-05,1e-05,-2e-05,0,6e-05,3,29
12060,-8e-05,-6e-05,1e-05,-3e-05,4e-05,-1e-05,-2e-05,-0.0001,3,29
12061,-0.00026,-2e-05,6e-05,-2e-05,-6e-05,-5e-05,-6e-05,-9e-05,3,29
12062,-0.00026,-2e-05,6e-05,-2e-05,-6e-05,-5e-05,-6e-05,-9e-05,3,29
12063,-0.00026,-2e-05,6e-05,-2e-05,-6e-05,-5e-05,-6e-05,-9e-05,3,29
12064,-0.00026,-2e-05,6e-05,-2e-05,-6e-05,-5e-05,-6e-05,-9e-05,3,29
12065,-0.00026,-2e-05,6e-05,-2e-05,-6e-05,-5e-05,-6e-05,-9e-05,3,29
12066,-0.00026,-2e-05,6e-05,-2e-05,-6e-05,-5e-05,-6e-05,-9e-05,3,29
12067,-0.00026,-2e-05,6e-05,-2e-05,-6e-05,-5e-05,-6e-05,-9e-05,3,29
12068,-0.00026,-2e-05,6e-05,-2e-05,-6e-05,-5e-05,-6e-05,-9e-05,3,29
12069,-0.00026,-2e-05,6e-05,-2e-05,-6e-05,-5e-05,-6e-05,-9e-05,3,29
12070,-0.00026,-2e-05,6e-05,-2e-05,-6e-05,-5e-05,-6e-05,-9e-05,3,29
12071,-0.00026,-2e-05,6e-05,-2e-05,-6e-05,-5e-05,-6e-05,-9e-05,3,29
12072,-0.00026,-2e-05,6e-05,-2e-05,-6e-05,-5e-05,-6e-05,-9e-05,3,29
12073,-0.00026,-2e-05,6e-05,-2e-05,-6e-05,-5e-05,-6e-05,-9e-05,3,29
12074,-0.00026,-2e-05,6e-05,-2e-05,-6e-05,-5e-05,-6e-05,-9e-05,3,29
12075,-0.00026,-2e-05,6e-05,-2e-05,-6e-05,-5e-05,-6e-05,-9e-05,3,29
12076,-0.00026,-2e-05,6e-05,-2e-05,-6e-05,-5e-05,-6e-05,-9e-05,3,29
12077,-0.00026,-2e-05,6e-05,-2e-05,-6e-05,-5e-05,-6e-05,-9e-05,3,29
12078,-0.00026,-2e-05,6e-05,-2e-05,-6e-05,-5e-05,-6e-05,-9e-05,3,29
12079,-0.00026,-2e-05,6e-05,-2e-05,-6e-05,-5e-05,-6e-05,-9e-05,3,29
12080,-0.00026,-2e-05,6e-05,-2e-05,-6e-05,-5e-05,-6e-05,-9e-05,3,29
12081,0.0001,3e-05,1e-05,1e-05,-1e-05,-4e-05,0,4e-05,3,29
12082,4e-05,4e-05,4e-05,0,-3e-05,3e-05,1e-05,1e-05,3,29
12083,0.00017,2e-05,0,-3e-05,-3e-05,-9e-05,-4e-05,1e-05,3,29
12084,0.00017,2e-05,0,-3e-05,-3e-05,-9e-05,-4e-05,1e-05,3,29
12085,0.00017,2e-05,0,-3e-05,-3e-05,-9e-05,-4e-05,1e-05,3,29
12086,0.00017,2e-05,0,-3e-05,-3e-05,-9e-05,-4e-05,1e-05,3,29
12088,0.00017,2e-05,0,-3e-05,-3e-05,-9e-05,-4e-05,1e-05,3,29
12089,0.00017,2e-05,0,-3e-05,-3e-05,-9e-05,-4e-05,1e-05,3,29
12090,0.00017,2e-05,0,-3e-05,-3e-05,-9e-05,-4e-05,1e-05,3,29
12091,0.00017,2e-05,0,-3e-05,-3e-05,-9e-05,-4e-05,1e-05,3,29
12092,0.00017,2e-05,0,-3e-05,-3e-05,-9e-05,-4e-05,1e-05,3,29
12093,0.00017,2e-05,0,-3e-05,-3e-05,-9e-05,-4e-05,1e-05,3,29
12094,0.00017,2e-05,0,-3e-05,-3e-05,-9e-05,-4e-05,1e-05,3,29
12095,0.00017,2e-05,0,-3e-05,-3e-05,-9e-05,-4e-05,1e-05,3,29
12096,9e-05,-1e-05,-3e-05,-1e-05,-2e-05,5e-05,4e-05,4e-05,3,29
12097,9e-05,-1e-05,-3e-05,-1e-05,-2e-05,5e-05,4e-05,4e-05,3,29
12098,9e-05,-1e-05,-3e-05,-1e-05,-2e-05,5e-05,4e-05,4e-05,3,29
12099,9e-05,-1e-05,-3e-05,-1e-05,-2e-05,5e-05,4e-05,4e-05,3,29
12100,9e-05,-1e-05,-3e-05,-1e-05,-2e-05,5e-05,4e-05,4e-05,3,29
12101,9e-05,-1e-05,-3e-05,-1e-05,-2e-05,5e-05,4e-05,4e-05,3,29
12102,9e-05,-1e-05,-3e-05,-1e-05,-2e-05,5e-05,4e-05,4e-05,3,29
12103,9e-05,-1e-05,-3e-05,-1e-05,-2e-05,5e-05,4e-05,4e-05,3,29
12104,0.00012,0,-1e-05,1e-05,-6e-05,2e-05,1e-05,3e-05,3,29
12105,0.00012,0,-1e-05,1e-05,-6e-05,2e-05,1e-05,3e-05,3,29
12106,0.00012,0,-1e-05,1e-05,-6e-05,2e-05,1e-05,3e-05,3,29
12107,0.00012,0,-1e-05,1e-05,-6e-05,2e-05,1e-05,3e-05,3,29
12108,0.00012,0,-1e-05,1e-05,-6e-05,2e-05,1e-05,3e-05,3,29
12109,0.00012,0,-1e-05,1e-05,-6e-05,2e-05,1e-05,3e-05,3,29
12110,0.00012,0,-1e-05,1e-05,-6e-05,2e-05,1e-05,3e-05,3,29
12111,0.00012,0,-1e-05,1e-05,-6e-05,2e-05,1e-05,3e-05,3,29
12112,0.00012,0,-1e-05,1e-05,-6e-05,2e-05,1e-05,3e-05,3,29
12113,0.00012,0,-1e-05,1e-05,-6e-05,2e-05,1e-05,3e-05,3,29
12114,0.00012,0,-1e-05,1e-05,-6e-05,2e-05,1e-05,3e-05,3,29
12115,0.00012,0,-1e-05,1e-05,-6e-05,2e-05,1e-05,3e-05,3,29
12116,0.00012,0,-1e-05,1e-05,-6e-05,2e-05,1e-05,3e-05,3,29
12117,0.00012,0,-1e-05,1e-05,-6e-05,2e-05,1e-05,3e-05,3,29
12118,0.00012,0,-1e-05,1e-05,-6e-05,2e-05,1e-05,3e-05,3,29
12119,0.00012,0,-1e-05,1e-05,-6e-05,2e-05,1e-05,3e-05,3,29
12120,0.00012,0,-1e-05,1e-05,-6e-05,2e-05,1e-05,3e-05,3,29
12121,0.00012,0,-1e-05,1e-05,-6e-05,2e-05,1e-05,3e-05,3,29
12122,0.00012,0,-1e-05,1e-05,-6e-05,2e-05,1e-05,3e-05,3,29
12123,0.00012,0,-1e-05,1e-05,-6e-05,2e-05,1e-05,3e-05,3,29
12124,0.00012,0,-1e-05,1e-05,-6e-05,2e-05,1e-05,3e-05,3,29
12125,0.00012,0,-1e-05,1e-05,-6e-05,2e-05,1e-05,3e-05,3,29
12126,0.00012,0,-1e-05,1e-05,-6e-05,2e-05,1e-05,3e-05,3,29
12127,9e-05,-4e-05,-4e-05,-1e-05,-3e-05,1e-05,-2e-05,4e-05,3,29
12128,9e-05,-4e-05,-4e-05,-1e-05,-3e-05,1e-05,-2e-05,4e-05,3,29
12129,-3e-05,0,0,-3e-05,3e-05,-9e-05,0,2e-05,3,29
12130,-3e-05,0,0,-3e-05,3e-05,-9e-05,0,2e-05,3,29
12131,-3e-05,0,0,-3e-05,3e-05,-9e-05,0,2e-05,3,29
12132,-3e-05,0,0,-3e-05,3e-05,-9e-05,0,2e-05,3,29
12133,-3e-05,0,0,-3e-05,3e-05,-9e-05,0,2e-05,3,29
12134,-3e-05,0,0,-3e-05,3e-05,-9e-05,0,2e-05,3,29
12135,-3e-05,0,0,-3e-05,3e-05,-9e-05,0,2e-05,3,29
12136,-3e-05,0,0,-3e-05,3e-05,-9e-05,0,2e-05,3,29
12138,-3e-05,0,0,-3e-05,3e-05,-9e-05,0,2e-05,3,29
12139,-3e-05,0,0,-3e-05,3e-05,-9e-05,0,2e-05,3,29
12140,-3e-05,0,0,-3e-05,3e-05,-9e-05,0,2e-05,3,29
12141,-3e-05,0,0,-3e-05,3e-05,-9e-05,0,2e-05,3,29
12142,-1e-05,1e-05,4e-05,1e-05,-3e-05,-5e-05,0,4e-05,3,29
12143,6e-05,1e-05,-2e-05,-4e-05,-0.0001,-7e-05,-2e-05,0,3,29
12144,6e-05,1e-05,-2e-05,-4e-05,-0.0001,-7e-05,-2e-05,0,3,29
12145,6e-05,1e-05,-2e-05,-4e-05,-0.0001,-7e-05,-2e-05,0,3,29
12146,6e-05,1e-05,-2e-05,-4e-05,-0.0001,-7e-05,-2e-05,0,3,29
12147,6e-05,1e-05,-2e-05,-4e-05,-0.0001,-7e-05,-2e-05,0,3,29
12148,6e-05,1e-05,-2e-05,-4e-05,-0.0001,-7e-05,-2e-05,0,3,29
12149,6e-05,1e-05,-2e-05,-4e-05,-0.0001,-7e-05,-2e-05,0,3,29
12150,6e-05,1e-05,-2e-05,-4e-05,-0.0001,-7e-05,-2e-05,0,3,29
12151,6e-05,1e-05,-2e-05,-4e-05,-0.0001,-7e-05,-2e-05,0,3,29
12152,6e-05,1e-05,-2e-05,-4e-05,-0.0001,-7e-05,-2e-05,0,3,29
12153,6e-05,1e-05,-2e-05,-4e-05,-0.0001,-7e-05,-2e-05,0,3,29
12154,6e-05,1e-05,-2e-05,-4e-05,-0.0001,-7e-05,-2e-05,0,3,29
12155,6e-05,1e-05,-2e-05,-4e-05,-0.0001,-7e-05,-2e-05,0,3,29
12156,6e-05,1e-05,-2e-05,-4e-05,-0.0001,-7e-05,-2e-05,0,3,29
12157,6e-05,1e-05,-2e-05,-4e-05,-0.0001,-7e-05,-2e-05,0,3,29
12158,6e-05,1e-05,-2e-05,-4e-05,-0.0001,-7e-05,-2e-05,0,3,29
12159,6e-05,1e-05,-2e-05,-4e-05,-0.0001,-7e-05,-2e-05,0,3,29
12160,6e-05,1e-05,-2e-05,-4e-05,-0.0001,-7e-05,-2e-05,0,3,29
12161,6e-05,1e-05,-2e-05,-4e-05,-0.0001,-7e-05,-2e-05,0,3,29
12162,6e-05,1e-05,-2e-05,-4e-05,-0.0001,-7e-05,-2e-05,0,3,29
12163,6e-05,1e-05,-2e-05,-4e-05,-0.0001,-7e-05,-2e-05,0,3,29
12164,8e-05,-4e-05,-8e-05,-4e-05,-1e-05,-1e-05,-5e-05,-1e-05,3,29
12165,8e-05,-4e-05,-8e-05,-4e-05,-1e-05,-1e-05,-5e-05,-1e-05,3,29
12166,-2e-05,-5e-05,-7e-05,-1e-05,0.00013,9e-05,3e-05,1e-05,3,29
12167,-2e-05,-5e-05,-7e-05,-1e-05,0.00013,9e-05,3e-05,1e-05,3,29
12168,-2e-05,-5e-05,-7e-05,-1e-05,0.00013,9e-05,3e-05,1e-05,3,29
12169,-2e-05,-5e-05,-7e-05,-1e-05,0.00013,9e-05,3e-05,1e-05,3,29
12170,-2e-05,-5e-05,-7e-05,-1e-05,0.00013,9e-05,3e-05,1e-05,3,29
12171,-2e-05,-5e-05,-7e-05,-1e-05,0.00013,9e-05,3e-05,1e-05,3,29
12172,-2e-05,-5e-05,-7e-05,-1e-05,0.00013,9e-05,3e-05,1e-05,3,29
12173,-2e-05,-5e-05,-7e-05,-1e-05,0.00013,9e-05,3e-05,1e-05,3,29
12174,-2e-05,-5e-05,-7e-05,-1e-05,0.00013,9e-05,3e-05,1e-05,3,29
12175,-2e-05,-5e-05,-7e-05,-1e-05,0.00013,9e-05,3e-05,1e-05,3,29
12176,-2e-05,-5e-05,-7e-05,-1e-05,0.00013,9e-05,3e-05,1e-05,3,29
12177,-2e-05,-5e-05,-7e-05,-1e-05,0.00013,9e-05,3e-05,1e-05,3,29
12178,-2e-05,-5e-05,-7e-05,-1e-05,0.00013,9e-05,3e-05,1e-05,3,29
12179,-2e-05,-5e-05,-7e-05,-1e-05,0.00013,9e-05,3e-05,1e-05,3,29
12180,-2e-05,4e-05,-1e-05,0,1e-05,-4e-05,1e-05,-9e-05,3,29
12181,0.00015,1e-05,4e-05,2e-05,1e-05,0,-1e-05,9e-05,3,29
12182,0.00015,1e-05,4e-05,2e-05,1e-05,0,-1e-05,9e-05,3,29
12183,0.00015,1e-05,4e-05,2e-05,1e-05,0,-1e-05,9e-05,3,29
12184,0.00015,1e-05,4e-05,2e-05,1e-05,0,-1e-05,9e-05,3,29
12185,0.00015,1e-05,4e-05,2e-05,1e-05,0,-1e-05,9e-05,3,29
12186,0.00015,1e-05,4e-05,2e-05,1e-05,0,-1e-05,9e-05,3,29
12188,0.00015,1e-05,4e-05,2e-05,1e-05,0,-1e-05,9e-05,3,29
12189,0.00015,1e-05,4e-05,2e-05,1e-05,0,-1e-05,9e-05,3,29
12190,0.00015,1e-05,4e-05,2e-05,1e-05,0,-1e-05,9e-05,3,29
12191,0.00015,1e-05,4e-05,2e-05,1e-05,0,-1e-05,9e-05,3,29
12192,0.00015,1e-05,4e-05,2e-05,1e-05,0,-1e-05,9e-05,3,29
12193,0.00015,1e-05,4e-05,2e-05,1e-05,0,-1e-05,9e-05,3,29
12194,0.00015,1e-05,4e-05,2e-05,1e-05,0,-1e-05,9e-05,3,29
12195,0.00015,1e-05,4e-05,2e-05,1e-05,0,-1e-05,9e-05,3,29
12196,0.00015,1e-05,4e-05,2e-05,1e-05,0,-1e-05,9e-05,3,29
12197,0.00015,1e-05,4e-05,2e-05,1e-05,0,-1e-05,9e-05,3,29
12198,0.00015,1e-05,4e-05,2e-05,1e-05,0,-1e-05,9e-05,3,29
12199,0.00015,1e-05,4e-05,2e-05,1e-05,0,-1e-05,9e-05,3,29
12200,0.00015,1e-05,4e-05,2e-05,1e-05,0,-1e-05,9e-05,3,29
12201,0.00015,1e-05,4e-05,2e-05,1e-05,0,-1e-05,9e-05,3,29
12202,-8e-05,-5e-05,-0.0001,-9e-05,-3e-05,-2e-05,-5e-05,-6e-05,3,29
12203,0.00015,3e-05,-3e-05,2e-05,8e-05,6e-05,3e-05,3e-05,3,29
12204,0.00015,3e-05,-3e-05,2e-05,8e-05,6e-05,3e-05,3e-05,3,29
12205,0.00015,3e-05,-3e-05,2e-05,8e-05,6e-05,3e-05,3e-05,3,29
12206,0.00015,3e-05,-3e-05,2e-05,8e-05,6e-05,3e-05,3e-05,3,29
12207,0.00015,3e-05,-3e-05,2e-05,8e-05,6e-05,3e-05,3e-05,3,29
12208,0.00015,3e-05,-3e-05,2e-05,8e-05,6e-05,3e-05,3e-05,3,29
12209,0.00015,3e-05,-3e-05,2e-05,8e-05,6e-05,3e-05,3e-05,3,29
12210,0.00015,3e-05,-3e-05,2e-05,8e-05,6e-05,3e-05,3e-05,3,29
12211,0.00015,3e-05,-3e-05,2e-05,8e-05,6e-05,3e-05,3e-05,3,29
12212,0.00015,3e-05,-3e-05,2e-05,8e-05,6e-05,3e-05,3e-05,3,29
12213,0.00015,3e-05,-3e-05,2e-05,8e-05,6e-05,3e-05,3e-05,3,29
12214,0.00015,3e-05,-3e-05,2e-05,8e-05,6e-05,3e-05,3e-05,3,29
12215,0.00015,3e-05,-3e-05,2e-05,8e-05,6e-05,3e-05,3e-05,3,29
12216,0.00015,3e-05,-3e-05,2e-05,8e-05,6e-05,3e-05,3e-05,3,29
12217,0.00015,3e-05,-3e-05,2e-05,8e-05,6e-05,3e-05,3e-05,3,29
12218,0.00015,3e-05,-3e-05,2e-05,8e-05,6e-05,3e-05,3e-05,3,29
12219,0.00015,3e-05,-3e-05,2e-05,8e-05,6e-05,3e-05,3e-05,3,29
12220,0.00015,3e-05,-3e-05,2e-05,8e-05,6e-05,3e-05,3e-05,3,29
12221,0.00015,3e-05,-3e-05,2e-05,8e-05,6e-05,3e-05,3e-05,3,29
12222,0.00015,3e-05,-3e-05,2e-05,8e-05,6e-05,3e-05,3e-05,3,29
12223,0.00015,3e-05,-3e-05,2e-05,8e-05,6e-05,3e-05,3e-05,3,29
12224,-3e-05,1e-05,3e-05,0,3e-05,1e-05,-1e-05,2e-05,3,29
12225,-3e-05,1e-05,3e-05,0,3e-05,1e-05,-1e-05,2e-05,3,29
12226,-3e-05,-1e-05,-1e-05,2e-05,-1e-05,1e-05,0,1e-05,3,29
12227,-3e-05,-1e-05,-1e-05,2e-05,-1e-05,1e-05,0,1e-05,3,29
12228,-3e-05,-1e-05,-1e-05,2e-05,-1e-05,1e-05,0,1e-05,3,29
12229,-3e-05,-1e-05,-1e-05,2e-05,-1e-05,1e-05,0,1e-05,3,29
12230,-3e-05,-1e-05,-1e-05,2e-05,-1e-05,1e-05,0,1e-05,3,29
12231,-3e-05,-1e-05,-1e-05,2e-05,-1e-05,1e-05,0,1e-05,3,29
12232,-3e-05,-1e-05,-1e-05,2e-05,-1e-05,1e-05,0,1e-05,3,29
12233,-3e-05,-1e-05,-1e-05,2e-05,-1e-05,1e-05,0,1e-05,3,29
12234,-3e-05,-1e-05,-1e-05,2e-05,-1e-05,1e-05,0,1e-05,3,29
12235,-3e-05,-1e-05,-1e-05,2e-05,-1e-05,1e-05,0,1e-05,3,29
12236,-3e-05,-1e-05,-1e-05,2e-05,-1e-05,1e-05,0,1e-05,3,29
12238,-3e-05,-1e-05,-1e-05,2e-05,-1e-05,1e-05,0,1e-05,3,29
12239,-0.00012,-5e-05,-8e-05,-4e-05,-7e-05,-3e-05,-2e-05,-6e-05,3,29
12240,-0.00012,-5e-05,-8e-05,-4e-05,-7e-05,-3e-05,-2e-05,-6e-05,3,29
12241,-0.0001,3e-05,3e-05,-1e-05,-5e-05,-2e-05,0,-7e-05,3,29
12242,-0.0001,3e-05,3e-05,-1e-05,-5e-05,-2e-05,0,-7e-05,3,29
12243,-0.0001,3e-05,3e-05,-1e-05,-5e-05,-2e-05,0,-7e-05,3,29
12244,-0.0001,3e-05,3e-05,-1e-05,-5e-05,-2e-05,0,-7e-05,3,29
12245,-0.0001,3e-05,3e-05,-1e-05,-5e-05,-2e-05,0,-7e-05,3,29
12246,-0.0001,3e-05,3e-05,-1e-05,-5e-05,-2e-05,0,-7e-05,3,29
12247,-0.0001,3e-05,3e-05,-1e-05,-5e-05,-2e-05,0,-7e-05,3,29
12248,-0.0001,3e-05,3e-05,-1e-05,-5e-05,-2e-05,0,-7e-05,3,29
12249,-0.0001,3e-05,3e-05,-1e-05,-5e-05,-2e-05,0,-7e-05,3,29
12250,-0.0001,3e-05,3e-05,-1e-05,-5e-05,-2e-05,0,-7e-05,3,29
12251,-0.0001,3e-05,3e-05,-1e-05,-5e-05,-2e-05,0,-7e-05,3,29
12252,-0.0001,3e-05,3e-05,-1e-05,-5e-05,-2e-05,0,-7e-05,3,29
12253,-0.0001,3e-05,3e-05,-1e-05,-5e-05,-2e-05,0,-7e-05,3,29
12254,-0.0001,3e-05,3e-05,-1e-05,-5e-05,-2e-05,0,-7e-05,3,29
12255,-0.0001,3e-05,3e-05,-1e-05,-5e-05,-2e-05,0,-7e-05,3,29
12256,-0.0001,3e-05,3e-05,-1e-05,-5e-05,-2e-05,0,-7e-05,3,29
12257,-0.0001,3e-05,3e-05,-1e-05,-5e-05,-2e-05,0,-7e-05,3,29
12258,-0.0001,3e-05,3e-05,-1e-05,-5e-05,-2e-05,0,-7e-05,3,29
12259,-0.0001,3e-05,3e-05,-1e-05,-5e-05,-2e-05,0,-7e-05,3,29
12260,-0.0001,3e-05,3e-05,-1e-05,-5e-05,-2e-05,0,-7e-05,3,29
12261,-0.0001,3e-05,3e-05,-1e-05,-5e-05,-2e-05,0,-7e-05,3,29
12262,-2e-05,0,2e-05,1e-05,0,-6e-05,5e-05,-4e-05,3,29
12263,-2e-05,0,2e-05,1e-05,0,-6e-05,5e-05,-4e-05,3,29
12264,-2e-05,-1e-05,-1e-05,-2e-05,-0.00011,0,4e-05,3e-05,3,29
12265,-2e-05,-1e-05,-1e-05,-2e-05,-0.00011,0,4e-05,3e-05,3,29
12266,-2e-05,-1e-05,-1e-05,-2e-05,-0.00011,0,4e-05,3e-05,3,29
12267,-2e-05,-1e-05,-1e-05,-2e-05,-0.00011,0,4e-05,3e-05,3,29
12268,-2e-05,-1e-05,-1e-05,-2e-05,-0.00011,0,4e-05,3e-05,3,29
12269,-2e-05,-1e-05,-1e-05,-2e-05,-0.00011,0,4e-05,3e-05,3,29
12270,-2e-05,-1e-05,-1e-05,-2e-05,-0.00011,0,4e-05,3e-05,3,29
12271,-2e-05,-1e-05,-1e-05,-2e-05,-0.00011,0,4e-05,3e-05,3,29
12272,-2e-05,-1e-05,-1e-05,-2e-05,-0.00011,0,4e-05,3e-05,3,29
12273,-2e-05,-1e-05,-1e-05,-2e-05,-0.00011,0,4e-05,3e-05,3,29
12274,-2e-05,-1e-05,-1e-05,-2e-05,-0.00011,0,4e-05,3e-05,3,29
12275,-2e-05,-1e-05,-1e-05,-2e-05,-0.00011,0,4e-05,3e-05,3,29
12276,-2e-05,-1e-05,-1e-05,-2e-05,-0.00011,0,4e-05,3e-05,3,29
12277,-2e-05,-1e-05,-1e-05,-2e-05,-0.00011,0,4e-05,3e-05,3,29
12278,-2e-05,-1e-05,-1e-05,-2e-05,-0.00011,0,4e-05,3e-05,3,29
12279,-2e-05,-1e-05,-1e-05,-2e-05,-0.00011,0,4e-05,3e-05,3,29
12280,-2e-05,-1e-05,-1e-05,-2e-05,-0.00011,0,4e-05,3e-05,3,29
12281,-2e-05,-1e-05,-1e-05,-2e-05,-0.00011,0,4e-05,3e-05,3,29
12282,-2e-05,-1e-05,-1e-05,-2e-05,-0.00011,0,4e-05,3e-05,3,29
12283,-2e-05,-1e-05,-1e-05,-2e-05,-0.00011,0,4e-05,3e-05,3,29
12284,7e-05,5e-05,5e-05,5e-05,9e-05,2e-05,-3e-05,7e-05,3,29
12285,7e-05,5e-05,5e-05,5e-05,9e-05,2e-05,-3e-05,7e-05,3,29
12286,-2e-05,-6e-05,-6e-05,-8e-05,-7e-05,-9e-05,-3e-05,-3e-05,3,29
12288,-2e-05,-6e-05,-6e-05,-8e-05,-7e-05,-9e-05,-3e-05,-3e-05,3,29
12289,-2e-05,-6e-05,-6e-05,-8e-05,-7e-05,-9e-05,-3e-05,-3e-05,3,29
12290,-2e-05,-6e-05,-6e-05,-8e-05,-7e-05,-9e-05,-3e-05,-3e-05,3,29
12291,-2e-05,-6e-05,-6e-05,-8e-05,-7e-05,-9e-05,-3e-05,-3e-05,3,29
12292,-2e-05,-6e-05,-6e-05,-8e-05,-7e-05,-9e-05,-3e-05,-3e-05,3,29
12293,-2e-05,-6e-05,-6e-05,-8e-05,-7e-05,-9e-05,-3e-05,-3e-05,3,29
12294,-2e-05,-6e-05,-6e-05,-8e-05,-7e-05,-9e-05,-3e-05,-3e-05,3,29
12295,-2e-05,-6e-05,-6e-05,-8e-05,-7e-05,-9e-05,-3e-05,-3e-05,3,29
12296,-2e-05,-6e-05,-6e-05,-8e-05,-7e-05,-9e-05,-3e-05,-3e-05,3,29
12297,-2e-05,-6e-05,-6e-05,-8e-05,-7e-05,-9e-05,-3e-05,-3e-05,3,29
12298,-2e-05,-6e-05,-6e-05,-8e-05,-7e-05,-9e-05,-3e-05,-3e-05,3,29
12299,3e-05,0,4e-05,-1e-05,0,1e-05,-4e-05,-5e-05,3,29
12300,3e-05,0,4e-05,-1e-05,0,1e-05,-4e-05,-5e-05,3,29
12301,3e-05,0,4e-05,-1e-05,0,1e-05,-4e-05,-5e-05,3,29
12302,3e-05,0,4e-05,-1e-05,0,1e-05,-4e-05,-5e-05,3,29
12303,3e-05,0,4e-05,-1e-05,0,1e-05,-4e-05,-5e-05,3,29
12304,3e-05,0,4e-05,-1e-05,0,1e-05,-4e-05,-5e-05,3,29
12305,3e-05,0,4e-05,-1e-05,0,1e-05,-4e-05,-5e-05,3,29
12306,3e-05,0,4e-05,-1e-05,0,1e-05,-4e-05,-5e-05,3,29
12307,3e-05,0,4e-05,-1e-05,0,1e-05,-4e-05,-5e-05,3,29
12308,3e-05,0,4e-05,-1e-05,0,1e-05,-4e-05,-5e-05,3,29
12309,3e-05,0,4e-05,-1e-05,0,1e-05,-4e-05,-5e-05,3,29
12310,3e-05,0,4e-05,-1e-05,0,1e-05,-4e-05,-5e-05,3,29
12311,3e-05,0,4e-05,-1e-05,0,1e-05,-4e-05,-5e-05,3,29
12312,3e-05,0,4e-05,-1e-05,0,1e-05,-4e-05,-5e-05,3,29
12313,9e-05,-1e-05,-3e-05,1e-05,4e-05,1e-05,3e-05,1e-05,3,29
12314,9e-05,-1e-05,-3e-05,1e-05,4e-05,1e-05,3e-05,1e-05,3,29
12315,9e-05,-1e-05,-3e-05,1e-05,4e-05,1e-05,3e-05,1e-05,3,29
12316,9e-05,-1e-05,-3e-05,1e-05,4e-05,1e-05,3e-05,1e-05,3,29
12317,9e-05,-1e-05,-3e-05,1e-05,4e-05,1e-05,3e-05,1e-05,3,29
12318,9e-05,-1e-05,-3e-05,1e-05,4e-05,1e-05,3e-05,1e-05,3,29
12319,9e-05,-1e-05,-3e-05,1e-05,4e-05,1e-05,3e-05,1e-05,3,29
12320,9e-05,-1e-05,-3e-05,1e-05,4e-05,1e-05,3e-05,1e-05,3,29
12321,9e-05,-1e-05,-3e-05,1e-05,4e-05,1e-05,3e-05,1e-05,3,29
12322,3e-05,4e-05,-1e-05,1e-05,1e-05,-4e-05,-3e-05,4e-05,3,29
12323,0,-2e-05,-2e-05,-2e-05,-3e-05,-7e-05,-5e-05,-3e-05,3,29
12324,0,-2e-05,-2e-05,-2e-05,-3e-05,-7e-05,-5e-05,-3e-05,3,29
12325,0,-2e-05,-2e-05,-2e-05,-3e-05,-7e-05,-5e-05,-3e-05,3,29
12326,0,-2e-05,-2e-05,-2e-05,-3e-05,-7e-05,-5e-05,-3e-05,3,29
12327,0,-2e-05,-2e-05,-2e-05,-3e-05,-7e-05,-5e-05,-3e-05,3,29
12328,0,-2e-05,-2e-05,-2e-05,-3e-05,-7e-05,-5e-05,-3e-05,3,29
12329,0,-2e-05,-2e-05,-2e-05,-3e-05,-7e-05,-5e-05,-3e-05,3,29
12330,0,-2e-05,-2e-05,-2e-05,-3e-05,-7e-05,-5e-05,-3e-05,3,29
12331,0,-2e-05,-2e-05,-2e-05,-3e-05,-7e-05,-5e-05,-3e-05,3,29
12332,0,-2e-05,-2e-05,-2e-05,-3e-05,-7e-05,-5e-05,-3e-05,3,29
12333,0,-2e-05,-2e-05,-2e-05,-3e-05,-7e-05,-5e-05,-3e-05,3,29
12334,0,-2e-05,-2e-05,-2e-05,-3e-05,-7e-05,-5e-05,-3e-05,3,29
12335,0,-2e-05,-2e-05,-2e-05,-3e-05,-7e-05,-5e-05,-3e-05,3,29
12336,0,-2e-05,-2e-05,-2e-05,-3e-05,-7e-05,-5e-05,-3e-05,3,29
12338,0,-2e-05,-2e-05,-2e-05,-3e-05,-7e-05,-5e-05,-3e-05,3,29
12339,0,-2e-05,-2e-05,-2e-05,-3e-05,-7e-05,-5e-05,-3e-05,3,29
12340,0,-2e-05,-2e-05,-2e-05,-3e-05,-7e-05,-5e-05,-3e-05,3,29
12341,0,-2e-05,-2e-05,-2e-05,-3e-05,-7e-05,-5e-05,-3e-05,3,29
12342,0,-2e-05,-2e-05,-2e-05,-3e-05,-7e-05,-5e-05,-3e-05,3,29
12343,0,-2e-05,-2e-05,-2e-05,-3e-05,-7e-05,-5e-05,-3e-05,3,29
12344,-2e-05,-2e-05,1e-05,-3e-05,-7e-05,1e-05,-1e-05,-2e-05,3,29
12345,-2e-05,-2e-05,1e-05,-3e-05,-7e-05,1e-05,-1e-05,-2e-05,3,29
12346,-8e-05,-9e-05,-7e-05,-4e-05,3e-05,3e-05,-2e-05,-5e-05,3,29
12347,-8e-05,-9e-05,-7e-05,-4e-05,3e-05,3e-05,-2e-05,-5e-05,3,29
12348,-8e-05,-9e-05,-7e-05,-4e-05,3e-05,3e-05,-2e-05,-5e-05,3,29
12349,-8e-05,-9e-05,-7e-05,-4e-05,3e-05,3e-05,-2e-05,-5e-05,3,29
12350,-8e-05,-9e-05,-7e-05,-4e-05,3e-05,3e-05,-2e-05,-5e-05,3,29
12351,-8e-05,-9e-05,-7e-05,-4e-05,3e-05,3e-05,-2e-05,-5e-05,3,29
12352,-8e-05,-9e-05,-7e-05,-4e-05,3e-05,3e-05,-2e-05,-5e-05,3,29
12353,-8e-05,-9e-05,-7e-05,-4e-05,3e-05,3e-05,-2e-05,-5e-05,3,29
12354,-8e-05,-9e-05,-7e-05,-4e-05,3e-05,3e-05,-2e-05,-5e-05,3,29
12355,-8e-05,-9e-05,-7e-05,-4e-05,3e-05,3e-05,-2e-05,-5e-05,3,29
12356,-8e-05,-9e-05,-7e-05,-4e-05,3e-05,3e-05,-2e-05,-5e-05,3,29
12357,-8e-05,-9e-05,-7e-05,-4e-05,3e-05,3e-05,-2e-05,-5e-05,3,29
12358,-8e-05,-9e-05,-7e-05,-4e-05,3e-05,3e-05,-2e-05,-5e-05,3,29
12359,-6e-05,0,1e-05,-1e-05,-5e-05,-1e-05,-3e-05,-1e-05,3,29
12360,-6e-05,0,1e-05,-1e-05,-5e-05,-1e-05,-3e-05,-1e-05,3,29
12361,-6e-05,0,1e-05,-1e-05,-5e-05,-1e-05,-3e-05,-1e-05,3,29
12362,-6e-05,0,1e-05,-1e-05,-5e-05,-1e-05,-3e-05,-1e-05,3,29
12363,-6e-05,0,1e-05,-1e-05,-5e-05,-1e-05,-3e-05,-1e-05,3,29
12364,-6e-05,0,1e-05,-1e-05,-5e-05,-1e-05,-3e-05,-1e-05,3,29
12365,-8e-05,-2e-05,-4e-05,-4e-05,-2e-05,-4e-05,-3e-05,-0.00012,3,29
12366,-8e-05,-2e-05,-4e-05,-4e-05,-2e-05,-4e-05,-3e-05,-0.00012,3,29
12367,-8e-05,-2e-05,-4e-05,-4e-05,-2e-05,-4e-05,-3e-05,-0.00012,3,29
12368,-8e-05,-2e-05,-4e-05,-4e-05,-2e-05,-4e-05,-3e-05,-0.00012,3,29
12369,-8e-05,-2e-05,-4e-05,-4e-05,-2e-05,-4e-05,-3e-05,-0.00012,3,29
12370,-8e-05,-2e-05,-4e-05,-4e-05,-2e-05,-4e-05,-3e-05,-0.00012,3,29
12371,-8e-05,-2e-05,-4e-05,-4e-05,-2e-05,-4e-05,-3e-05,-0.00012,3,29
12372,-8e-05,-2e-05,-4e-05,-4e-05,-2e-05,-4e-05,-3e-05,-0.00012,3,29
12373,-8e-05,-2e-05,-4e-05,-4e-05,-2e-05,-4e-05,-3e-05,-0.00012,3,29
12374,-8e-05,-2e-05,-4e-05,-4e-05,-2e-05,-4e-05,-3e-05,-0.00012,3,29
12375,-8e-05,-2e-05,-4e-05,-4e-05,-2e-05,-4e-05,-3e-05,-0.00012,3,29
12376,-8e-05,-2e-05,-4e-05,-4e-05,-2e-05,-4e-05,-3e-05,-0.00012,3,29
12377,-8e-05,-2e-05,-4e-05,-4e-05,-2e-05,-4e-05,-3e-05,-0.00012,3,29
12378,-8e-05,-2e-05,-4e-05,-4e-05,-2e-05,-4e-05,-3e-05,-0.00012,3,29
12379,-8e-05,-2e-05,-4e-05,-4e-05,-2e-05,-4e-05,-3e-05,-0.00012,3,29
12380,-8e-05,-2e-05,-4e-05,-4e-05,-2e-05,-4e-05,-3e-05,-0.00012,3,29
12381,-8e-05,-2e-05,-4e-05,-4e-05,-2e-05,-4e-05,-3e-05,-0.00012,3,29
12382,-1e-05,-3e-05,5e-05,1e-05,-6e-05,-0.0001,-3e-05,2e-05,3,29
12383,0.00013,0,-1e-05,2e-05,5e-05,3e-05,-3e-05,0,3,29
12384,0.00013,0,-1e-05,2e-05,5e-05,3e-05,-3e-05,0,3,29
12385,0.00013,0,-1e-05,2e-05,5e-05,3e-05,-3e-05,0,3,29
12386,0.00013,0,-1e-05,2e-05,5e-05,3e-05,-3e-05,0,3,29
12388,0.00013,0,-1e-05,2e-05,5e-05,3e-05,-3e-05,0,3,29
12389,0.00013,0,-1e-05,2e-05,5e-05,3e-05,-3e-05,0,3,29
12390,0.00013,0,-1e-05,2e-05,5e-05,3e-05,-3e-05,0,3,29
12391,0.00013,0,-1e-05,2e-05,5e-05,3e-05,-3e-05,0,3,29
12392,0.00013,0,-1e-05,2e-05,5e-05,3e-05,-3e-05,0,3,29
12393,0.00013,0,-1e-05,2e-05,5e-05,3e-05,-3e-05,0,3,29
12394,0.00013,0,-1e-05,2e-05,5e-05,3e-05,-3e-05,0,3,29
12395,0.00013,0,-1e-05,2e-05,5e-05,3e-05,-3e-05,0,3,29
12396,0.00013,0,-1e-05,2e-05,5e-05,3e-05,-3e-05,0,3,29
12397,0.00013,0,-1e-05,2e-05,5e-05,3e-05,-3e-05,0,3,29
12398,0.00013,0,-1e-05,2e-05,5e-05,3e-05,-3e-05,0,3,29
12399,0.00013,0,-1e-05,2e-05,5e-05,3e-05,-3e-05,0,3,29
12400,0.00013,0,-1e-05,2e-05,5e-05,3e-05,-3e-05,0,3,29
12401,0.00013,0,-1e-05,2e-05,5e-05,3e-05,-3e-05,0,3,29
12402,0.00013,0,-1e-05,2e-05,5e-05,3e-05,-3e-05,0,3,29
12403,0.00013,0,-1e-05,2e-05,5e-05,3e-05,-3e-05,0,3,29
12404,-4e-05,0,7e-05,-1e-05,1e-05,-4e-05,-4e-05,-6e-05,3,29
12405,-4e-05,0,7e-05,-1e-05,1e-05,-4e-05,-4e-05,-6e-05,3,29
12406,0,3e-05,-1e-05,-3e-05,-0.0001,-7e-05,0,6e-05,3,29
12407,0,3e-05,-1e-05,-3e-05,-0.0001,-7e-05,0,6e-05,3,29
12408,0,3e-05,-1e-05,-3e-05,-0.0001,-7e-05,0,6e-05,3,29
12409,0,3e-05,-1e-05,-3e-05,-0.0001,-7e-05,0,6e-05,3,29
12410,0,3e-05,-1e-05,-3e-05,-0.0001,-7e-05,0,6e-05,3,29
12411,0,3e-05,-1e-05,-3e-05,-0.0001,-7e-05,0,6e-05,3,29
12412,0,3e-05,-1e-05,-3e-05,-0.0001,-7e-05,0,6e-05,3,29
12413,0,3e-05,-1e-05,-3e-05,-0.0001,-7e-05,0,6e-05,3,29
12414,0,3e-05,-1e-05,-3e-05,-0.0001,-7e-05,0,6e-05,3,29
12415,0,3e-05,-1e-05,-3e-05,-0.0001,-7e-05,0,6e-05,3,29
12416,0,3e-05,-1e-05,-3e-05,-0.0001,-7e-05,0,6e-05,3,29
12417,0,3e-05,-1e-05,-3e-05,-0.0001,-7e-05,0,6e-05,3,29
12418,-5e-05,-1e-05,-4e-05,-8e-05,-5e-05,1e-05,1e-05,-5e-05,3,29
12419,-8e-05,-3e-05,-2e-05,4e-05,5e-05,7e-05,1e-05,-0.0001,3,29
12420,-8e-05,-3e-05,-2e-05,4e-05,5e-05,7e-05,1e-05,-0.0001,3,29
12421,-8e-05,-3e-05,-2e-05,4e-05,5e-05,7e-05,1e-05,-0.0001,3,29
12422,-8e-05,-3e-05,-2e-05,4e-05,5e-05,7e-05,1e-05,-0.0001,3,29
12423,-8e-05,-3e-05,-2e-05,4e-05,5e-05,7e-05,1e-05,-0.0001,3,29
12424,-8e-05,-3e-05,-2e-05,4e-05,5e-05,7e-05,1e-05,-0.0001,3,29
12425,3e-05,0,4e-05,2e-05,-3e-05,1e-05,-1e-05,1e-05,3,29
12426,3e-05,0,4e-05,2e-05,-3e-05,1e-05,-1e-05,1e-05,3,29
12427,3e-05,0,4e-05,2e-05,-3e-05,1e-05,-1e-05,1e-05,3,29
12428,3e-05,0,4e-05,2e-05,-3e-05,1e-05,-1e-05,1e-05,3,29
12429,3e-05,0,4e-05,2e-05,-3e-05,1e-05,-1e-05,1e-05,3,29
12430,3e-05,0,4e-05,2e-05,-3e-05,1e-05,-1e-05,1e-05,3,29
12431,3e-05,0,4e-05,2e-05,-3e-05,1e-05,-1e-05,1e-05,3,29
12432,3e-05,0,4e-05,2e-05,-3e-05,1e-05,-1e-05,1e-05,3,29
12433,3e-05,0,4e-05,2e-05,-3e-05,1e-05,-1e-05,1e-05,3,29
12434,3e-05,0,4e-05,2e-05,-3e-05,1e-05,-1e-05,1e-05,3,29
12435,3e-05,0,4e-05,2e-05,-3e-05,1e-05,-1e-05,1e-05,3,29
12436,3e-05,0,4e-05,2e-05,-3e-05,1e-05,-1e-05,1e-05,3,29
12438,3e-05,0,4e-05,2e-05,-3e-05,1e-05,-1e-05,1e-05,3,29
12439,3e-05,0,4e-05,2e-05,-3e-05,1e-05,-1e-05,1e-05,3,29
12440,3e-05,0,4e-05,2e-05,-3e-05,1e-05,-1e-05,1e-05,3,29
12441,3e-05,0,4e-05,2e-05,-3e-05,1e-05,-1e-05,1e-05,3,29
12442,5e-05,-3e-05,-3e-05,-7e-05,-3e-05,4e-05,-1e-05,5e-05,3,29
12443,-0.00012,-2e-05,-4e-05,-3e-05,-8e-05,-4e-05,-3e-05,0,3,29
12444,-0.00012,-2e-05,-4e-05,-3e-05,-8e-05,-4e-05,-3e-05,0,3,29
12445,-0.00012,-2e-05,-4e-05,-3e-05,-8e-05,-4e-05,-3e-05,0,3,29
12446,-0.00012,-2e-05,-4e-05,-3e-05,-8e-05,-4e-05,-3e-05,0,3,29
12447,-0.00012,-2e-05,-4e-05,-3e-05,-8e-05,-4e-05,-3e-05,0,3,29
12448,-0.00012,-2e-05,-4e-05,-3e-05,-8e-05,-4e-05,-3e-05,0,3,29
12449,-0.00012,-2e-05,-4e-05,-3e-05,-8e-05,-4e-05,-3e-05,0,3,29
12450,-0.00012,-2e-05,-4e-05,-3e-05,-8e-05,-4e-05,-3e-05,0,3,29
12451,-0.00012,-2e-05,-4e-05,-3e-05,-8e-05,-4e-05,-3e-05,0,3,29
12452,-0.00012,-2e-05,-4e-05,-3e-05,-8e-05,-4e-05,-3e-05,0,3,29
12453,-0.00012,-2e-05,-4e-05,-3e-05,-8e-05,-4e-05,-3e-05,0,3,29
12454,-0.00012,-2e-05,-4e-05,-3e-05,-8e-05,-4e-05,-3e-05,0,3,29
12455,-0.00012,-2e-05,-4e-05,-3e-05,-8e-05,-4e-05,-3e-05,0,3,29
12456,-0.00012,-2e-05,-4e-05,-3e-05,-8e-05,-4e-05,-3e-05,0,3,29
12457,-0.00012,-2e-05,-4e-05,-3e-05,-8e-05,-4e-05,-3e-05,0,3,29
12458,-0.00012,-2e-05,-4e-05,-3e-05,-8e-05,-4e-05,-3e-05,0,3,29
12459,-0.00012,-2e-05,-4e-05,-3e-05,-8e-05,-4e-05,-3e-05,0,3,29
12460,-0.00012,-2e-05,-4e-05,-3e-05,-8e-05,-4e-05,-3e-05,0,3,29
12461,-0.00012,-2e-05,-4e-05,-3e-05,-8e-05,-4e-05,-3e-05,0,3,29
12462,-0.00012,-2e-05,-4e-05,-3e-05,-8e-05,-4e-05,-3e-05,0,3,29
12463,-0.00012,-2e-05,-4e-05,-3e-05,-8e-05,-4e-05,-3e-05,0,3,29
12464,-0.00012,-2e-05,-4e-05,-3e-05,-8e-05,-4e-05,-3e-05,0,3,29
12465,1e-05,-4e-05,-4e-05,-4e-05,-0.00011,-3e-05,-1e-05,-1e-05,3,29
12466,5e-05,4e-05,7e-05,4e-05,3e-05,1e-05,1e-05,3e-05,3,29
12467,5e-05,4e-05,7e-05,4e-05,3e-05,1e-05,1e-05,3e-05,3,29
12468,5e-05,4e-05,7e-05,4e-05,3e-05,1e-05,1e-05,3e-05,3,29
12469,5e-05,4e-05,7e-05,4e-05,3e-05,1e-05,1e-05,3e-05,3,29
12470,5e-05,4e-05,7e-05,4e-05,3e-05,1e-05,1e-05,3e-05,3,29
12471,5e-05,4e-05,7e-05,4e-05,3e-05,1e-05,1e-05,3e-05,3,29
12472,5e-05,4e-05,7e-05,4e-05,3e-05,1e-05,1e-05,3e-05,3,29
12473,5e-05,4e-05,7e-05,4e-05,3e-05,1e-05,1e-05,3e-05,3,29
12474,5e-05,4e-05,7e-05,4e-05,3e-05,1e-05,1e-05,3e-05,3,29
12475,5e-05,4e-05,7e-05,4e-05,3e-05,1e-05,1e-05,3e-05,3,29
12476,5e-05,4e-05,7e-05,4e-05,3e-05,1e-05,1e-05,3e-05,3,29
12477,5e-05,4e-05,7e-05,4e-05,3e-05,1e-05,1e-05,3e-05,3,29
12478,-2e-05,-4e-05,-9e-05,-7e-05,-9e-05,3e-05,-1e-05,1e-05,3,29
12479,-4e-05,-4e-05,-4e-05,-5e-05,0,-3e-05,-1e-05,-1e-05,3,29
12480,-4e-05,-4e-05,-4e-05,-5e-05,0,-3e-05,-1e-05,-1e-05,3,29
12481,-4e-05,-4e-05,-4e-05,-5e-05,0,-3e-05,-1e-05,-1e-05,3,29
