10593,0.00024,6e-05,-3e-05,2e-05,6e-05,-0.0001,-0.00028,0.00012,3,6
10594,0.00024,6e-05,-3e-05,2e-05,6e-05,-0.0001,-0.00028,0.00012,3,6
10595,0.00024,6e-05,-3e-05,2e-05,6e-05,-0.0001,-0.00028,0.00012,3,6
10596,0.00024,6e-05,-3e-05,2e-05,6e-05,-0.0001,-0.00028,0.00012,3,6
10597,0.00024,6e-05,-3e-05,2e-05,6e-05,-0.0001,-0.00028,0.00012,3,6
10598,0.00024,6e-05,-3e-05,2e-05,6e-05,-0.0001,-0.00028,0.00012,3,6
10599,0.00024,6e-05,-3e-05,2e-05,6e-05,-0.0001,-0.00028,0.00012,3,6
10600,0.00024,6e-05,-3e-05,2e-05,6e-05,-0.0001,-0.00028,0.00012,3,6
10601,0.00024,6e-05,-3e-05,2e-05,6e-05,-0.0001,-0.00028,0.00012,3,6
10602,0.00024,6e-05,-3e-05,2e-05,6e-05,-0.0001,-0.00028,0.00012,3,6
10603,0.00012,2e-05,2e-05,4e-05,1e-05,-0.00011,0.0001,-7e-05,3,6
10604,0.00012,2e-05,2e-05,4e-05,1e-05,-0.00011,0.0001,-7e-05,3,6
10605,8e-05,0,-4e-05,5e-05,1e-05,-3e-05,-4e-05,-0.00018,3,6
10606,8e-05,0,-4e-05,5e-05,1e-05,-3e-05,-4e-05,-0.00018,3,6
10607,8e-05,0,-4e-05,5e-05,1e-05,-3e-05,-4e-05,-0.00018,3,6
10608,8e-05,0,-4e-05,5e-05,1e-05,-3e-05,-4e-05,-0.00018,3,6
10609,8e-05,0,-4e-05,5e-05,1e-05,-3e-05,-4e-05,-0.00018,3,6
10610,1e-05,8e-05,1e-05,-0.00013,-0.00013,-6e-05,0.00026,-0.00051,3,6
10611,-0.00085,-0.00016,-9e-05,-0.00012,-0.00016,-0.0002,1e-05,-0.00054,3,6
10612,-0.00085,-0.00016,-9e-05,-0.00012,-0.00016,-0.0002,1e-05,-0.00054,3,6
10613,-0.00085,-0.00016,-9e-05,-0.00012,-0.00016,-0.0002,1e-05,-0.00054,3,6
10614,-0.00085,-0.00016,-9e-05,-0.00012,-0.00016,-0.0002,1e-05,-0.00054,3,6
10615,-0.00085,-0.00016,-9e-05,-0.00012,-0.00016,-0.0002,1e-05,-0.00054,3,6
10616,-0.00085,-0.00016,-9e-05,-0.00012,-0.00016,-0.0002,1e-05,-0.00054,3,6
10617,-0.00085,-0.00016,-9e-05,-0.00012,-0.00016,-0.0002,1e-05,-0.00054,3,6
10620,-0.00085,-0.00016,-9e-05,-0.00012,-0.00016,-0.0002,1e-05,-0.00054,3,6
10621,-0.00085,-0.00016,-9e-05,-0.00012,-0.00016,-0.0002,1e-05,-0.00054,3,6
10622,-0.00085,-0.00016,-9e-05,-0.00012,-0.00016,-0.0002,1e-05,-0.00054,3,6
10623,-0.00085,-0.00016,-9e-05,-0.00012,-0.00016,-0.0002,1e-05,-0.00054,3,6
10624,-0.00085,-0.00016,-9e-05,-0.00012,-0.00016,-0.0002,1e-05,-0.00054,3,6
10625,-0.00085,-0.00016,-9e-05,-0.00012,-0.00016,-0.0002,1e-05,-0.00054,3,6
10626,-0.00085,-0.00016,-9e-05,-0.00012,-0.00016,-0.0002,1e-05,-0.00054,3,6
10627,-0.00085,-0.00016,-9e-05,-0.00012,-0.00016,-0.0002,1e-05,-0.00054,3,6
10628,-0.00085,-0.00016,-9e-05,-0.00012,-0.00016,-0.0002,1e-05,-0.00054,3,6
10629,-0.00085,-0.00016,-9e-05,-0.00012,-0.00016,-0.0002,1e-05,-0.00054,3,6
10630,-0.00085,-0.00016,-9e-05,-0.00012,-0.00016,-0.0002,1e-05,-0.00054,3,6
10631,-0.00085,-0.00016,-9e-05,-0.00012,-0.00016,-0.0002,1e-05,-0.00054,3,6
10632,-0.00085,-0.00016,-9e-05,-0.00012,-0.00016,-0.0002,1e-05,-0.00054,3,6
10634,-0.00085,-0.00016,-9e-05,-0.00012,-0.00016,-0.0002,1e-05,-0.00054,3,6
10635,-0.00085,-0.00016,-9e-05,-0.00012,-0.00016,-0.0002,1e-05,-0.00054,3,6
10637,-0.00085,-0.00016,-9e-05,-0.00012,-0.00016,-0.0002,1e-05,-0.00054,3,6
10641,-0.00085,-0.00016,-9e-05,-0.00012,-0.00016,-0.0002,1e-05,-0.00054,3,6
10642,-0.00085,-0.00016,-9e-05,-0.00012,-0.00016,-0.0002,1e-05,-0.00054,3,6
10643,-0.00085,-0.00016,-9e-05,-0.00012,-0.00016,-0.0002,1e-05,-0.00054,3,6
10644,-0.00085,-0.00016,-9e-05,-0.00012,-0.00016,-0.0002,1e-05,-0.00054,3,6
10645,-9e-05,-5e-05,-5e-05,0,-4e-05,4e-05,-5e-05,-9e-05,3,6
10646,-9e-05,-5e-05,-5e-05,0,-4e-05,4e-05,-5e-05,-9e-05,3,6
10647,-9e-05,-5e-05,-5e-05,0,-4e-05,4e-05,-5e-05,-9e-05,3,6
10648,-9e-05,-5e-05,-5e-05,0,-4e-05,4e-05,-5e-05,-9e-05,3,6
10649,-9e-05,-5e-05,-5e-05,0,-4e-05,4e-05,-5e-05,-9e-05,3,6
10650,-9e-05,-5e-05,-5e-05,0,-4e-05,4e-05,-5e-05,-9e-05,3,6
10651,-9e-05,-5e-05,-5e-05,0,-4e-05,4e-05,-5e-05,-9e-05,3,6
10652,-9e-05,-5e-05,-5e-05,0,-4e-05,4e-05,-5e-05,-9e-05,3,6
10653,-9e-05,-5e-05,-5e-05,0,-4e-05,4e-05,-5e-05,-9e-05,3,6
10654,0.0003,0.0001,3e-05,4e-05,8e-05,8e-05,-0.00016,0,3,6
10655,0.0003,0.0001,3e-05,4e-05,8e-05,8e-05,-0.00016,0,3,6
10656,0.00041,5e-05,-1e-05,-2e-05,1e-05,-2e-05,-0.00019,0.0003,3,6
10657,0.00041,5e-05,-1e-05,-2e-05,1e-05,-2e-05,-0.00019,0.0003,3,6
10658,0.00041,5e-05,-1e-05,-2e-05,1e-05,-2e-05,-0.00019,0.0003,3,6
10659,0.00041,5e-05,-1e-05,-2e-05,1e-05,-2e-05,-0.00019,0.0003,3,6
10660,0.00041,5e-05,-1e-05,-2e-05,1e-05,-2e-05,-0.00019,0.0003,3,6
10661,0.00036,6e-05,4e-05,2e-05,-4e-05,-0.0001,0,0.0002,3,6
10662,-0.00043,-0.0001,-5e-05,-1e-05,-3e-05,-0.00011,-8e-05,-0.00028,3,6
10663,-0.00043,-0.0001,-5e-05,-1e-05,-3e-05,-0.00011,-8e-05,-0.00028,3,6
10664,-0.00043,-0.0001,-5e-05,-1e-05,-3e-05,-0.00011,-8e-05,-0.00028,3,6
10665,-0.00043,-0.0001,-5e-05,-1e-05,-3e-05,-0.00011,-8e-05,-0.00028,3,6
10666,-0.00043,-0.0001,-5e-05,-1e-05,-3e-05,-0.00011,-8e-05,-0.00028,3,6
10667,-0.00043,-0.0001,-5e-05,-1e-05,-3e-05,-0.00011,-8e-05,-0.00028,3,6
10668,-0.00043,-0.0001,-5e-05,-1e-05,-3e-05,-0.00011,-8e-05,-0.00028,3,6
10670,-0.00043,-0.0001,-5e-05,-1e-05,-3e-05,-0.00011,-8e-05,-0.00028,3,6
10671,-0.00043,-0.0001,-5e-05,-1e-05,-3e-05,-0.00011,-8e-05,-0.00028,3,6
10672,-0.00043,-0.0001,-5e-05,-1e-05,-3e-05,-0.00011,-8e-05,-0.00028,3,6
10673,-0.00043,-0.0001,-5e-05,-1e-05,-3e-05,-0.00011,-8e-05,-0.00028,3,6
10674,-0.00043,-0.0001,-5e-05,-1e-05,-3e-05,-0.00011,-8e-05,-0.00028,3,6
10675,-0.00043,-0.0001,-5e-05,-1e-05,-3e-05,-0.00011,-8e-05,-0.00028,3,6
10676,-0.00043,-0.0001,-5e-05,-1e-05,-3e-05,-0.00011,-8e-05,-0.00028,3,6
10677,-0.00043,-0.0001,-5e-05,-1e-05,-3e-05,-0.00011,-8e-05,-0.00028,3,6
10678,-0.00043,-0.0001,-5e-05,-1e-05,-3e-05,-0.00011,-8e-05,-0.00028,3,6
10679,-0.00043,-0.0001,-5e-05,-1e-05,-3e-05,-0.00011,-8e-05,-0.00028,3,6
10680,-0.00043,-0.0001,-5e-05,-1e-05,-3e-05,-0.00011,-8e-05,-0.00028,3,6
10681,-0.00043,-0.0001,-5e-05,-1e-05,-3e-05,-0.00011,-8e-05,-0.00028,3,6
10682,-0.00043,-0.0001,-5e-05,-1e-05,-3e-05,-0.00011,-8e-05,-0.00028,3,6
10683,-0.00043,-0.0001,-5e-05,-1e-05,-3e-05,-0.00011,-8e-05,-0.00028,3,6
10684,-0.00043,-0.0001,-5e-05,-1e-05,-3e-05,-0.00011,-8e-05,-0.00028,3,6
10685,-0.00043,-0.0001,-5e-05,-1e-05,-3e-05,-0.00011,-8e-05,-0.00028,3,6
10687,-0.00043,-0.0001,-5e-05,-1e-05,-3e-05,-0.00011,-8e-05,-0.00028,3,6
10692,-0.00043,-0.0001,-5e-05,-1e-05,-3e-05,-0.00011,-8e-05,-0.00028,3,6
10693,-0.00043,-0.0001,-5e-05,-1e-05,-3e-05,-0.00011,-8e-05,-0.00028,3,6
10694,-0.00043,-0.0001,-5e-05,-1e-05,-3e-05,-0.00011,-8e-05,-0.00028,3,6
10695,-0.00043,-0.0001,-5e-05,-1e-05,-3e-05,-0.00011,-8e-05,-0.00028,3,6
10696,-0.00043,-0.0001,-5e-05,-1e-05,-3e-05,-0.00011,-8e-05,-0.00028,3,6
10697,-0.00043,-0.0001,-5e-05,-1e-05,-3e-05,-0.00011,-8e-05,-0.00028,3,6
10698,-0.00043,-0.0001,-5e-05,-1e-05,-3e-05,-0.00011,-8e-05,-0.00028,3,6
10699,-0.00043,-0.0001,-5e-05,-1e-05,-3e-05,-0.00011,-8e-05,-0.00028,3,6
10701,-0.00043,-0.0001,-5e-05,-1e-05,-3e-05,-0.00011,-8e-05,-0.00028,3,6
10702,-0.00043,-0.0001,-5e-05,-1e-05,-3e-05,-0.00011,-8e-05,-0.00028,3,6
10703,-0.00043,-0.0001,-5e-05,-1e-05,-3e-05,-0.00011,-8e-05,-0.00028,3,6
10704,-0.00043,-0.0001,-5e-05,-1e-05,-3e-05,-0.00011,-8e-05,-0.00028,3,6
10705,-0.00043,-0.0001,-5e-05,-1e-05,-3e-05,-0.00011,-8e-05,-0.00028,3,6
10706,-0.00043,-0.0001,-5e-05,-1e-05,-3e-05,-0.00011,-8e-05,-0.00028,3,6
10707,-4e-05,-0.00013,-7e-05,-5e-05,9e-05,0.00015,-3e-05,3e-05,3,6
10708,0.00011,-3e-05,0,2e-05,2e-05,6e-05,-1e-05,0.00018,3,6
10709,0.00021,8e-05,2e-05,1e-05,3e-05,0.00015,-0.00019,0.00033,3,6
10710,0.00021,8e-05,2e-05,1e-05,3e-05,0.00015,-0.00019,0.00033,3,6
10711,0.00021,8e-05,2e-05,1e-05,3e-05,0.00015,-0.00019,0.00033,3,6
10712,0.00013,-3e-05,1e-05,6e-05,7e-05,7e-05,-5e-05,6e-05,3,6
10713,0.00013,-3e-05,1e-05,6e-05,7e-05,7e-05,-5e-05,6e-05,3,6
10714,0.00013,-3e-05,1e-05,6e-05,7e-05,7e-05,-5e-05,6e-05,3,6
10715,0.00013,-3e-05,1e-05,6e-05,7e-05,7e-05,-5e-05,6e-05,3,6
10716,0.00013,-3e-05,1e-05,6e-05,7e-05,7e-05,-5e-05,6e-05,3,6
10717,0.00013,-3e-05,1e-05,6e-05,7e-05,7e-05,-5e-05,6e-05,3,6
10719,2e-05,-1e-05,4e-05,3e-05,6e-05,0.0001,0.00018,0.00041,3,6
10721,-0.00053,-3e-05,1e-05,1e-05,-2e-05,-0.00017,-2e-05,-0.00052,3,6
10722,-0.00053,-3e-05,1e-05,1e-05,-2e-05,-0.00017,-2e-05,-0.00052,3,6
10725,-0.00053,-3e-05,1e-05,1e-05,-2e-05,-0.00017,-2e-05,-0.00052,3,6
10726,-0.00053,-3e-05,1e-05,1e-05,-2e-05,-0.00017,-2e-05,-0.00052,3,6
10727,0.00025,7e-05,-1e-05,-6e-05,3e-05,0.00013,8e-05,0.00022,3,6
10730,0.00025,7e-05,-1e-05,-6e-05,3e-05,0.00013,8e-05,0.00022,3,6
10731,0.00025,7e-05,-1e-05,-6e-05,3e-05,0.00013,8e-05,0.00022,3,6
10732,0.00025,7e-05,-1e-05,-6e-05,3e-05,0.00013,8e-05,0.00022,3,6
10733,0.00025,7e-05,-1e-05,-6e-05,3e-05,0.00013,8e-05,0.00022,3,6
10734,0.00025,7e-05,-1e-05,-6e-05,3e-05,0.00013,8e-05,0.00022,3,6
10735,0.00025,7e-05,-1e-05,-6e-05,3e-05,0.00013,8e-05,0.00022,3,6
10737,0.00025,7e-05,-1e-05,-6e-05,3e-05,0.00013,8e-05,0.00022,3,6
10741,0.00025,7e-05,-1e-05,-6e-05,3e-05,0.00013,8e-05,0.00022,3,6
10742,0.00025,7e-05,-1e-05,-6e-05,3e-05,0.00013,8e-05,0.00022,3,6
10743,0.00025,7e-05,-1e-05,-6e-05,3e-05,0.00013,8e-05,0.00022,3,6
10744,0.00025,7e-05,-1e-05,-6e-05,3e-05,0.00013,8e-05,0.00022,3,6
10745,0.00025,7e-05,-1e-05,-6e-05,3e-05,0.00013,8e-05,0.00022,3,6
10746,0.00025,7e-05,-1e-05,-6e-05,3e-05,0.00013,8e-05,0.00022,3,6
10747,0.00025,7e-05,-1e-05,-6e-05,3e-05,0.00013,8e-05,0.00022,3,6
10748,0.00025,7e-05,-1e-05,-6e-05,3e-05,0.00013,8e-05,0.00022,3,6
10749,0.00025,7e-05,-1e-05,-6e-05,3e-05,0.00013,8e-05,0.00022,3,6
10750,0.00025,7e-05,-1e-05,-6e-05,3e-05,0.00013,8e-05,0.00022,3,6
10751,0.00025,7e-05,-1e-05,-6e-05,3e-05,0.00013,8e-05,0.00022,3,6
10753,0.00025,7e-05,-1e-05,-6e-05,3e-05,0.00013,8e-05,0.00022,3,6
10754,0.00025,7e-05,-1e-05,-6e-05,3e-05,0.00013,8e-05,0.00022,3,6
10755,0.00025,7e-05,-1e-05,-6e-05,3e-05,0.00013,8e-05,0.00022,3,6
10756,0.00025,7e-05,-1e-05,-6e-05,3e-05,0.00013,8e-05,0.00022,3,6
10757,0.00025,7e-05,-1e-05,-6e-05,3e-05,0.00013,8e-05,0.00022,3,6
10758,0.00025,7e-05,-1e-05,-6e-05,3e-05,0.00013,8e-05,0.00022,3,6
10759,0.00012,-5e-05,-4e-05,0,1e-05,-5e-05,0.00013,-6e-05,3,6
10760,8e-05,5e-05,-1e-05,-5e-05,-2e-05,-2e-05,2e-05,-0.00015,3,6
10761,8e-05,5e-05,-1e-05,-5e-05,-2e-05,-2e-05,2e-05,-0.00015,3,6
10762,8e-05,5e-05,-1e-05,-5e-05,-2e-05,-2e-05,2e-05,-0.00015,3,6
10763,8e-05,5e-05,-1e-05,-5e-05,-2e-05,-2e-05,2e-05,-0.00015,3,6
10764,8e-05,5e-05,-1e-05,-5e-05,-2e-05,-2e-05,2e-05,-0.00015,3,6
10765,8e-05,5e-05,-1e-05,-5e-05,-2e-05,-2e-05,2e-05,-0.00015,3,6
10766,8e-05,5e-05,-1e-05,-5e-05,-2e-05,-2e-05,2e-05,-0.00015,3,6
10767,0.00027,1e-05,-1e-05,4e-05,-1e-05,-3e-05,-3e-05,-5e-05,3,6
10770,-0.00018,-7e-05,-5e-05,-5e-05,-5e-05,-1e-05,2e-05,9e-05,3,6
10771,-0.00018,-7e-05,-5e-05,-5e-05,-5e-05,-1e-05,2e-05,9e-05,3,6
10772,-0.00018,-7e-05,-5e-05,-5e-05,-5e-05,-1e-05,2e-05,9e-05,3,6
10773,-0.00018,-7e-05,-5e-05,-5e-05,-5e-05,-1e-05,2e-05,9e-05,3,6
10774,-0.00018,-7e-05,-5e-05,-5e-05,-5e-05,-1e-05,2e-05,9e-05,3,6
10776,-0.00018,-7e-05,-5e-05,-5e-05,-5e-05,-1e-05,2e-05,9e-05,3,6
10777,-0.00018,-7e-05,-5e-05,-5e-05,-5e-05,-1e-05,2e-05,9e-05,3,6
10778,-0.00018,-7e-05,-5e-05,-5e-05,-5e-05,-1e-05,2e-05,9e-05,3,6
10779,-0.00018,-7e-05,-5e-05,-5e-05,-5e-05,-1e-05,2e-05,9e-05,3,6
10780,-2e-05,-7e-05,-5e-05,-4e-05,-0.0001,-8e-05,-0.00015,-0.0003,3,6
10781,-2e-05,-7e-05,-5e-05,-4e-05,-0.0001,-8e-05,-0.00015,-0.0003,3,6
10782,-2e-05,-7e-05,-5e-05,-4e-05,-0.0001,-8e-05,-0.00015,-0.0003,3,6
10783,-2e-05,-7e-05,-5e-05,-4e-05,-0.0001,-8e-05,-0.00015,-0.0003,3,6
10784,-2e-05,-7e-05,-5e-05,-4e-05,-0.0001,-8e-05,-0.00015,-0.0003,3,6
10786,-2e-05,-7e-05,-5e-05,-4e-05,-0.0001,-8e-05,-0.00015,-0.0003,3,6
10787,-2e-05,-7e-05,-5e-05,-4e-05,-0.0001,-8e-05,-0.00015,-0.0003,3,6
10788,-2e-05,-7e-05,-5e-05,-4e-05,-0.0001,-8e-05,-0.00015,-0.0003,3,6
10789,-2e-05,-7e-05,-5e-05,-4e-05,-0.0001,-8e-05,-0.00015,-0.0003,3,6
10790,-2e-05,-7e-05,-5e-05,-4e-05,-0.0001,-8e-05,-0.00015,-0.0003,3,6
10791,-2e-05,-7e-05,-5e-05,-4e-05,-0.0001,-8e-05,-0.00015,-0.0003,3,6
10792,-2e-05,-7e-05,-5e-05,-4e-05,-0.0001,-8e-05,-0.00015,-0.0003,3,6
10793,-2e-05,-7e-05,-5e-05,-4e-05,-0.0001,-8e-05,-0.00015,-0.0003,3,6
10794,-2e-05,-7e-05,-5e-05,-4e-05,-0.0001,-8e-05,-0.00015,-0.0003,3,6
10795,-2e-05,-7e-05,-5e-05,-4e-05,-0.0001,-8e-05,-0.00015,-0.0003,3,6
10796,-2e-05,-7e-05,-5e-05,-4e-05,-0.0001,-8e-05,-0.00015,-0.0003,3,6
10797,-2e-05,-7e-05,-5e-05,-4e-05,-0.0001,-8e-05,-0.00015,-0.0003,3,6
10798,-2e-05,-7e-05,-5e-05,-4e-05,-0.0001,-8e-05,-0.00015,-0.0003,3,6
10799,-2e-05,-7e-05,-5e-05,-4e-05,-0.0001,-8e-05,-0.00015,-0.0003,3,6
10800,-2e-05,-7e-05,-5e-05,-4e-05,-0.0001,-8e-05,-0.00015,-0.0003,3,6
10801,-2e-05,-7e-05,-5e-05,-4e-05,-0.0001,-8e-05,-0.00015,-0.0003,3,6
10802,-2e-05,-7e-05,-5e-05,-4e-05,-0.0001,-8e-05,-0.00015,-0.0003,3,6
10803,-2e-05,-7e-05,-5e-05,-4e-05,-0.0001,-8e-05,-0.00015,-0.0003,3,6
10804,-2e-05,-7e-05,-5e-05,-4e-05,-0.0001,-8e-05,-0.00015,-0.0003,3,6
10805,-2e-05,-7e-05,-5e-05,-4e-05,-0.0001,-8e-05,-0.00015,-0.0003,3,6
10806,-2e-05,-7e-05,-5e-05,-4e-05,-0.0001,-8e-05,-0.00015,-0.0003,3,6
10807,-2e-05,-7e-05,-5e-05,-4e-05,-0.0001,-8e-05,-0.00015,-0.0003,3,6
10808,-2e-05,-7e-05,-5e-05,-4e-05,-0.0001,-8e-05,-0.00015,-0.0003,3,6
10809,-2e-05,-7e-05,-5e-05,-4e-05,-0.0001,-8e-05,-0.00015,-0.0003,3,6
10810,-2e-05,-7e-05,-5e-05,-4e-05,-0.0001,-8e-05,-0.00015,-0.0003,3,6
10811,-2e-05,-7e-05,-5e-05,-4e-05,-0.0001,-8e-05,-0.00015,-0.0003,3,6
10812,-2e-05,-7e-05,-5e-05,-4e-05,-0.0001,-8e-05,-0.00015,-0.0003,3,6
10813,-2e-05,-7e-05,-5e-05,-4e-05,-0.0001,-8e-05,-0.00015,-0.0003,3,6
10814,-2e-05,-7e-05,-5e-05,-4e-05,-0.0001,-8e-05,-0.00015,-0.0003,3,6
10815,-2e-05,-7e-05,-5e-05,-4e-05,-0.0001,-8e-05,-0.00015,-0.0003,3,6
10816,-2e-05,-7e-05,-5e-05,-4e-05,-0.0001,-8e-05,-0.00015,-0.0003,3,6
10817,-2e-05,-7e-05,-5e-05,-4e-05,-0.0001,-8e-05,-0.00015,-0.0003,3,6
10818,-2e-05,-7e-05,-5e-05,-4e-05,-0.0001,-8e-05,-0.00015,-0.0003,3,6
10819,-2e-05,-7e-05,-5e-05,-4e-05,-0.0001,-8e-05,-0.00015,-0.0003,3,6
10820,-0.00011,1e-05,2e-05,2e-05,1e-05,-2e-05,-2e-05,-4e-05,3,6
10821,-0.00011,1e-05,2e-05,2e-05,1e-05,-2e-05,-2e-05,-4e-05,3,6
10824,-0.00011,1e-05,2e-05,2e-05,1e-05,-2e-05,-2e-05,-4e-05,3,6
10825,-0.00011,1e-05,2e-05,2e-05,1e-05,-2e-05,-2e-05,-4e-05,3,6
10826,-0.00011,1e-05,2e-05,2e-05,1e-05,-2e-05,-2e-05,-4e-05,3,6
10827,-0.00046,-0.00018,-3e-05,-1e-05,-1e-05,-0.0001,-9e-05,-0.0001,3,6
10828,-0.00046,-0.00018,-3e-05,-1e-05,-1e-05,-0.0001,-9e-05,-0.0001,3,6
10829,-0.00046,-0.00018,-3e-05,-1e-05,-1e-05,-0.0001,-9e-05,-0.0001,3,6
10830,-0.00046,-0.00018,-3e-05,-1e-05,-1e-05,-0.0001,-9e-05,-0.0001,3,6
10831,-0.00046,-0.00018,-3e-05,-1e-05,-1e-05,-0.0001,-9e-05,-0.0001,3,6
10832,-0.00046,-0.00018,-3e-05,-1e-05,-1e-05,-0.0001,-9e-05,-0.0001,3,6
10833,-0.00046,-0.00018,-3e-05,-1e-05,-1e-05,-0.0001,-9e-05,-0.0001,3,6
10835,-0.00046,-0.00018,-3e-05,-1e-05,-1e-05,-0.0001,-9e-05,-0.0001,3,6
10836,-0.00046,-0.00018,-3e-05,-1e-05,-1e-05,-0.0001,-9e-05,-0.0001,3,6
10838,-0.00046,-0.00018,-3e-05,-1e-05,-1e-05,-0.0001,-9e-05,-0.0001,3,6
10839,-0.00046,-0.00018,-3e-05,-1e-05,-1e-05,-0.0001,-9e-05,-0.0001,3,6
10840,0.00054,0.00011,4e-05,3e-05,7e-05,0.00016,0.00014,0.00037,3,6
10841,0.00014,0.00014,6e-05,5e-05,2e-05,-1e-05,-4e-05,-0.00011,3,6
10842,0.00014,0.00014,6e-05,5e-05,2e-05,-1e-05,-4e-05,-0.00011,3,6
10843,0.00014,0.00014,6e-05,5e-05,2e-05,-1e-05,-4e-05,-0.00011,3,6
10844,0.00014,0.00014,6e-05,5e-05,2e-05,-1e-05,-4e-05,-0.00011,3,6
10845,0.00014,0.00014,6e-05,5e-05,2e-05,-1e-05,-4e-05,-0.00011,3,6
10846,0.00014,0.00014,6e-05,5e-05,2e-05,-1e-05,-4e-05,-0.00011,3,6
10847,0.00014,0.00014,6e-05,5e-05,2e-05,-1e-05,-4e-05,-0.00011,3,6
10848,0.00014,0.00014,6e-05,5e-05,2e-05,-1e-05,-4e-05,-0.00011,3,6
10849,0.00014,0.00014,6e-05,5e-05,2e-05,-1e-05,-4e-05,-0.00011,3,6
10850,0.00014,0.00014,6e-05,5e-05,2e-05,-1e-05,-4e-05,-0.00011,3,6
10851,0.00014,0.00014,6e-05,5e-05,2e-05,-1e-05,-4e-05,-0.00011,3,6
10853,0.00014,0.00014,6e-05,5e-05,2e-05,-1e-05,-4e-05,-0.00011,3,6
10854,0.00014,0.00014,6e-05,5e-05,2e-05,-1e-05,-4e-05,-0.00011,3,6
10855,0.00014,0.00014,6e-05,5e-05,2e-05,-1e-05,-4e-05,-0.00011,3,6
10856,0.00014,0.00014,6e-05,5e-05,2e-05,-1e-05,-4e-05,-0.00011,3,6
10857,0.00014,0.00014,6e-05,5e-05,2e-05,-1e-05,-4e-05,-0.00011,3,6
10858,0.00014,0.00014,6e-05,5e-05,2e-05,-1e-05,-4e-05,-0.00011,3,6
10859,0.00014,0.00014,6e-05,5e-05,2e-05,-1e-05,-4e-05,-0.00011,3,6
10860,0.00014,0.00014,6e-05,5e-05,2e-05,-1e-05,-4e-05,-0.00011,3,6
10861,0.00014,0.00014,6e-05,5e-05,2e-05,-1e-05,-4e-05,-0.00011,3,6
10862,0.00014,0.00014,6e-05,5e-05,2e-05,-1e-05,-4e-05,-0.00011,3,6
10863,0.00014,0.00014,6e-05,5e-05,2e-05,-1e-05,-4e-05,-0.00011,3,6
10864,0.00014,0.00014,6e-05,5e-05,2e-05,-1e-05,-4e-05,-0.00011,3,6
10865,0.00014,0.00014,6e-05,5e-05,2e-05,-1e-05,-4e-05,-0.00011,3,6
10866,0.00014,0.00014,6e-05,5e-05,2e-05,-1e-05,-4e-05,-0.00011,3,6
10867,0.00014,0.00014,6e-05,5e-05,2e-05,-1e-05,-4e-05,-0.00011,3,6
10868,0.00014,0.00014,6e-05,5e-05,2e-05,-1e-05,-4e-05,-0.00011,3,6
10869,0.00014,0.00014,6e-05,5e-05,2e-05,-1e-05,-4e-05,-0.00011,3,6
10871,0.00014,0.00014,6e-05,5e-05,2e-05,-1e-05,-4e-05,-0.00011,3,6
10872,0.00014,0.00014,6e-05,5e-05,2e-05,-1e-05,-4e-05,-0.00011,3,6
10873,0.00014,0.00014,6e-05,5e-05,2e-05,-1e-05,-4e-05,-0.00011,3,6
10874,0.00014,0.00014,6e-05,5e-05,2e-05,-1e-05,-4e-05,-0.00011,3,6
10875,0.00014,0.00014,6e-05,5e-05,2e-05,-1e-05,-4e-05,-0.00011,3,6
10876,0.00014,0.00014,6e-05,5e-05,2e-05,-1e-05,-4e-05,-0.00011,3,6
10877,0.00014,0.00014,6e-05,5e-05,2e-05,-1e-05,-4e-05,-0.00011,3,6
10878,0.00014,0.00014,6e-05,5e-05,2e-05,-1e-05,-4e-05,-0.00011,3,6
10879,0.00014,0.00014,6e-05,5e-05,2e-05,-1e-05,-4e-05,-0.00011,3,6
10880,0.00035,-2e-05,-0.0001,-8e-05,-6e-05,1e-05,-4e-05,0.00027,3,6
10881,0.00013,5e-05,1e-05,0,2e-05,-4e-05,-1e-05,0.00021,3,6
10882,0.00013,5e-05,1e-05,0,2e-05,-4e-05,-1e-05,0.00021,3,6
10883,0.00013,5e-05,1e-05,0,2e-05,-4e-05,-1e-05,0.00021,3,6
10884,0.00013,5e-05,1e-05,0,2e-05,-4e-05,-1e-05,0.00021,3,6
10886,0.00013,5e-05,1e-05,0,2e-05,-4e-05,-1e-05,0.00021,3,6
10887,7e-05,-1e-05,-5e-05,-7e-05,-4e-05,-3e-05,6e-05,1e-05,3,6
10888,7e-05,-1e-05,-5e-05,-7e-05,-4e-05,-3e-05,6e-05,1e-05,3,6
10889,7e-05,-1e-05,-5e-05,-7e-05,-4e-05,-3e-05,6e-05,1e-05,3,6
10890,7e-05,-1e-05,-5e-05,-7e-05,-4e-05,-3e-05,6e-05,1e-05,3,6
10891,7e-05,-1e-05,-5e-05,-7e-05,-4e-05,-3e-05,6e-05,1e-05,3,6
10892,7e-05,-1e-05,-5e-05,-7e-05,-4e-05,-3e-05,6e-05,1e-05,3,6
10893,7e-05,-1e-05,-5e-05,-7e-05,-4e-05,-3e-05,6e-05,1e-05,3,6
10894,7e-05,-1e-05,-5e-05,-7e-05,-4e-05,-3e-05,6e-05,1e-05,3,6
10895,7e-05,-1e-05,-5e-05,-7e-05,-4e-05,-3e-05,6e-05,1e-05,3,6
10896,7e-05,-1e-05,-5e-05,-7e-05,-4e-05,-3e-05,6e-05,1e-05,3,6
10897,7e-05,-1e-05,-5e-05,-7e-05,-4e-05,-3e-05,6e-05,1e-05,3,6
10898,7e-05,-1e-05,-5e-05,-7e-05,-4e-05,-3e-05,6e-05,1e-05,3,6
10899,7e-05,-1e-05,-5e-05,-7e-05,-4e-05,-3e-05,6e-05,1e-05,3,6
10900,7e-05,-1e-05,-5e-05,-7e-05,-4e-05,-3e-05,6e-05,1e-05,3,6
10901,7e-05,-1e-05,-5e-05,-7e-05,-4e-05,-3e-05,6e-05,1e-05,3,6
10903,7e-05,-1e-05,-5e-05,-7e-05,-4e-05,-3e-05,6e-05,1e-05,3,6
10904,7e-05,-1e-05,-5e-05,-7e-05,-4e-05,-3e-05,6e-05,1e-05,3,6
10905,7e-05,-1e-05,-5e-05,-7e-05,-4e-05,-3e-05,6e-05,1e-05,3,6
10906,7e-05,-1e-05,-5e-05,-7e-05,-4e-05,-3e-05,6e-05,1e-05,3,6
10907,7e-05,-1e-05,-5e-05,-7e-05,-4e-05,-3e-05,6e-05,1e-05,3,6
10908,7e-05,-1e-05,-5e-05,-7e-05,-4e-05,-3e-05,6e-05,1e-05,3,6
10909,7e-05,-1e-05,-5e-05,-7e-05,-4e-05,-3e-05,6e-05,1e-05,3,6
10910,7e-05,-1e-05,-5e-05,-7e-05,-4e-05,-3e-05,6e-05,1e-05,3,6
10911,7e-05,-1e-05,-5e-05,-7e-05,-4e-05,-3e-05,6e-05,1e-05,3,6
10912,7e-05,-1e-05,-5e-05,-7e-05,-4e-05,-3e-05,6e-05,1e-05,3,6
10913,7e-05,-1e-05,-5e-05,-7e-05,-4e-05,-3e-05,6e-05,1e-05,3,6
10914,7e-05,-1e-05,-5e-05,-7e-05,-4e-05,-3e-05,6e-05,1e-05,3,6
10915,7e-05,-1e-05,-5e-05,-7e-05,-4e-05,-3e-05,6e-05,1e-05,3,6
10916,7e-05,-1e-05,-5e-05,-7e-05,-4e-05,-3e-05,6e-05,1e-05,3,6
10917,7e-05,-1e-05,-5e-05,-7e-05,-4e-05,-3e-05,6e-05,1e-05,3,6
10918,7e-05,-1e-05,-5e-05,-7e-05,-4e-05,-3e-05,6e-05,1e-05,3,6
10919,7e-05,-1e-05,-5e-05,-7e-05,-4e-05,-3e-05,6e-05,1e-05,3,6
10920,7e-05,-1e-05,-5e-05,-7e-05,-4e-05,-3e-05,6e-05,1e-05,3,6
10921,7e-05,-1e-05,-5e-05,-7e-05,-4e-05,-3e-05,6e-05,1e-05,3,6
10922,7e-05,-1e-05,-5e-05,-7e-05,-4e-05,-3e-05,6e-05,1e-05,3,6
10923,7e-05,-1e-05,-5e-05,-7e-05,-4e-05,-3e-05,6e-05,1e-05,3,6
10924,7e-05,-1e-05,-5e-05,-7e-05,-4e-05,-3e-05,6e-05,1e-05,3,6
10925,7e-05,-1e-05,-5e-05,-7e-05,-4e-05,-3e-05,6e-05,1e-05,3,6
10926,7e-05,-1e-05,-5e-05,-7e-05,-4e-05,-3e-05,6e-05,1e-05,3,6
10927,7e-05,-1e-05,-5e-05,-7e-05,-4e-05,-3e-05,6e-05,1e-05,3,6
10928,7e-05,-1e-05,-5e-05,-7e-05,-4e-05,-3e-05,6e-05,1e-05,3,6
10929,7e-05,-1e-05,-5e-05,-7e-05,-4e-05,-3e-05,6e-05,1e-05,3,6
10930,7e-05,-1e-05,-5e-05,-7e-05,-4e-05,-3e-05,6e-05,1e-05,3,6
10931,7e-05,-1e-05,-5e-05,-7e-05,-4e-05,-3e-05,6e-05,1e-05,3,6
10932,0.00028,0.00016,3e-05,3e-05,2e-05,-0.0001,-3e-05,-5e-05,3,6
10933,-3e-05,-2e-05,-6e-05,-3e-05,-5e-05,6e-05,-6e-05,-0.00012,3,6
10934,0.00014,-2e-05,-5e-05,-5e-05,-5e-05,-4e-05,-9e-05,-0.0001,3,6
10935,0.00014,-2e-05,-5e-05,-5e-05,-5e-05,-4e-05,-9e-05,-0.0001,3,6
10937,0.00014,-2e-05,-5e-05,-5e-05,-5e-05,-4e-05,-9e-05,-0.0001,3,6
10941,2e-05,0.00012,2e-05,-4e-05,-7e-05,-0.0002,-0.00023,-0.00039,3,6
10942,2e-05,0.00012,2e-05,-4e-05,-7e-05,-0.0002,-0.00023,-0.00039,3,6
10943,2e-05,0.00012,2e-05,-4e-05,-7e-05,-0.0002,-0.00023,-0.00039,3,6
10944,2e-05,0.00012,2e-05,-4e-05,-7e-05,-0.0002,-0.00023,-0.00039,3,6
10945,2e-05,0.00012,2e-05,-4e-05,-7e-05,-0.0002,-0.00023,-0.00039,3,6
10946,2e-05,0.00012,2e-05,-4e-05,-7e-05,-0.0002,-0.00023,-0.00039,3,6
10947,2e-05,0.00012,2e-05,-4e-05,-7e-05,-0.0002,-0.00023,-0.00039,3,6
10948,2e-05,0.00012,2e-05,-4e-05,-7e-05,-0.0002,-0.00023,-0.00039,3,6
10949,2e-05,0.00012,2e-05,-4e-05,-7e-05,-0.0002,-0.00023,-0.00039,3,6
10950,2e-05,0.00012,2e-05,-4e-05,-7e-05,-0.0002,-0.00023,-0.00039,3,6
10951,2e-05,0.00012,2e-05,-4e-05,-7e-05,-0.0002,-0.00023,-0.00039,3,6
10952,2e-05,0.00012,2e-05,-4e-05,-7e-05,-0.0002,-0.00023,-0.00039,3,6
10953,2e-05,0.00012,2e-05,-4e-05,-7e-05,-0.0002,-0.00023,-0.00039,3,6
10954,2e-05,0.00012,2e-05,-4e-05,-7e-05,-0.0002,-0.00023,-0.00039,3,6
10955,2e-05,0.00012,2e-05,-4e-05,-7e-05,-0.0002,-0.00023,-0.00039,3,6
10956,2e-05,0.00012,2e-05,-4e-05,-7e-05,-0.0002,-0.00023,-0.00039,3,6
10957,2e-05,0.00012,2e-05,-4e-05,-7e-05,-0.0002,-0.00023,-0.00039,3,6
10958,2e-05,0.00012,2e-05,-4e-05,-7e-05,-0.0002,-0.00023,-0.00039,3,6
10959,2e-05,0.00012,2e-05,-4e-05,-7e-05,-0.0002,-0.00023,-0.00039,3,6
10960,2e-05,0.00012,2e-05,-4e-05,-7e-05,-0.0002,-0.00023,-0.00039,3,6
10961,2e-05,0.00012,2e-05,-4e-05,-7e-05,-0.0002,-0.00023,-0.00039,3,6
10962,2e-05,0.00012,2e-05,-4e-05,-7e-05,-0.0002,-0.00023,-0.00039,3,6
10963,2e-05,0.00012,2e-05,-4e-05,-7e-05,-0.0002,-0.00023,-0.00039,3,6
10964,2e-05,0.00012,2e-05,-4e-05,-7e-05,-0.0002,-0.00023,-0.00039,3,6
10965,2e-05,0.00012,2e-05,-4e-05,-7e-05,-0.0002,-0.00023,-0.00039,3,6
10966,2e-05,0.00012,2e-05,-4e-05,-7e-05,-0.0002,-0.00023,-0.00039,3,6
10967,2e-05,0.00012,2e-05,-4e-05,-7e-05,-0.0002,-0.00023,-0.00039,3,6
10970,2e-05,0.00012,2e-05,-4e-05,-7e-05,-0.0002,-0.00023,-0.00039,3,6
10971,2e-05,0.00012,2e-05,-4e-05,-7e-05,-0.0002,-0.00023,-0.00039,3,6
10972,2e-05,0.00012,2e-05,-4e-05,-7e-05,-0.0002,-0.00023,-0.00039,3,6
10973,2e-05,0.00012,2e-05,-4e-05,-7e-05,-0.0002,-0.00023,-0.00039,3,6
10974,2e-05,0.00012,2e-05,-4e-05,-7e-05,-0.0002,-0.00023,-0.00039,3,6
10975,2e-05,0.00012,2e-05,-4e-05,-7e-05,-0.0002,-0.00023,-0.00039,3,6
10976,2e-05,0.00012,2e-05,-4e-05,-7e-05,-0.0002,-0.00023,-0.00039,3,6
10977,2e-05,0.00012,2e-05,-4e-05,-7e-05,-0.0002,-0.00023,-0.00039,3,6
10978,2e-05,0.00012,2e-05,-4e-05,-7e-05,-0.0002,-0.00023,-0.00039,3,6
10979,2e-05,0.00012,2e-05,-4e-05,-7e-05,-0.0002,-0.00023,-0.00039,3,6
10980,2e-05,0.00012,2e-05,-4e-05,-7e-05,-0.0002,-0.00023,-0.00039,3,6
10981,2e-05,0.00012,2e-05,-4e-05,-7e-05,-0.0002,-0.00023,-0.00039,3,6
10982,2e-05,0.00012,2e-05,-4e-05,-7e-05,-0.0002,-0.00023,-0.00039,3,6
10983,2e-05,0.00012,2e-05,-4e-05,-7e-05,-0.0002,-0.00023,-0.00039,3,6
10984,-0.00015,-6e-05,3e-05,4e-05,0.00016,0.0003,-1e-05,0.00012,3,6
10985,-1e-05,-2e-05,0,-1e-05,-3e-05,2e-05,2e-05,9e-05,3,6
10988,-1e-05,-2e-05,0,-1e-05,-3e-05,2e-05,2e-05,9e-05,3,6
10993,-1e-05,-2e-05,0,-1e-05,-3e-05,2e-05,2e-05,9e-05,3,6
10994,0.00021,8e-05,4e-05,7e-05,1e-05,-4e-05,-0.00012,0.00011,3,6
10995,0.00021,8e-05,4e-05,7e-05,1e-05,-4e-05,-0.00012,0.00011,3,6
10996,0.00021,8e-05,4e-05,7e-05,1e-05,-4e-05,-0.00012,0.00011,3,6
10997,0.00023,-3e-05,-6e-05,-5e-05,1e-05,-6e-05,5e-05,4e-05,3,6
10998,0.00023,-3e-05,-6e-05,-5e-05,1e-05,-6e-05,5e-05,4e-05,3,6
10999,0.00023,-3e-05,-6e-05,-5e-05,1e-05,-6e-05,5e-05,4e-05,3,6
11000,0.00023,-3e-05,-6e-05,-5e-05,1e-05,-6e-05,5e-05,4e-05,3,6
11001,0.00023,-3e-05,-6e-05,-5e-05,1e-05,-6e-05,5e-05,4e-05,3,6
11003,0.00023,-3e-05,-6e-05,-5e-05,1e-05,-6e-05,5e-05,4e-05,3,6
11004,0.00023,-3e-05,-6e-05,-5e-05,1e-05,-6e-05,5e-05,4e-05,3,6
11005,0.00022,6e-05,1e-05,-4e-05,-1e-05,-2e-05,0.00011,0.00013,3,6
11006,0.00022,6e-05,1e-05,-4e-05,-1e-05,-2e-05,0.00011,0.00013,3,6
11007,0.00022,6e-05,1e-05,-4e-05,-1e-05,-2e-05,0.00011,0.00013,3,6
11008,0.00022,6e-05,1e-05,-4e-05,-1e-05,-2e-05,0.00011,0.00013,3,6
11010,0.00022,6e-05,1e-05,-4e-05,-1e-05,-2e-05,0.00011,0.00013,3,6
11011,0.00022,6e-05,1e-05,-4e-05,-1e-05,-2e-05,0.00011,0.00013,3,6
11012,0.00022,6e-05,1e-05,-4e-05,-1e-05,-2e-05,0.00011,0.00013,3,6
11013,0.00022,6e-05,1e-05,-4e-05,-1e-05,-2e-05,0.00011,0.00013,3,6
11014,0.00022,6e-05,1e-05,-4e-05,-1e-05,-2e-05,0.00011,0.00013,3,6
11015,0.00022,6e-05,1e-05,-4e-05,-1e-05,-2e-05,0.00011,0.00013,3,6
11016,0.00022,6e-05,1e-05,-4e-05,-1e-05,-2e-05,0.00011,0.00013,3,6
11017,0.00022,6e-05,1e-05,-4e-05,-1e-05,-2e-05,0.00011,0.00013,3,6
11018,0.00022,6e-05,1e-05,-4e-05,-1e-05,-2e-05,0.00011,0.00013,3,6
11020,0.00022,6e-05,1e-05,-4e-05,-1e-05,-2e-05,0.00011,0.00013,3,6
11021,0.00022,6e-05,1e-05,-4e-05,-1e-05,-2e-05,0.00011,0.00013,3,6
11022,0.00022,6e-05,1e-05,-4e-05,-1e-05,-2e-05,0.00011,0.00013,3,6
11023,0.00022,6e-05,1e-05,-4e-05,-1e-05,-2e-05,0.00011,0.00013,3,6
11024,0.00022,6e-05,1e-05,-4e-05,-1e-05,-2e-05,0.00011,0.00013,3,6
11025,0.00022,6e-05,1e-05,-4e-05,-1e-05,-2e-05,0.00011,0.00013,3,6
11026,0.00022,6e-05,1e-05,-4e-05,-1e-05,-2e-05,0.00011,0.00013,3,6
11027,0.00022,6e-05,1e-05,-4e-05,-1e-05,-2e-05,0.00011,0.00013,3,6
11028,0.00022,6e-05,1e-05,-4e-05,-1e-05,-2e-05,0.00011,0.00013,3,6
11029,0.00022,6e-05,1e-05,-4e-05,-1e-05,-2e-05,0.00011,0.00013,3,6
11030,0.00022,6e-05,1e-05,-4e-05,-1e-05,-2e-05,0.00011,0.00013,3,6
11031,0.00022,6e-05,1e-05,-4e-05,-1e-05,-2e-05,0.00011,0.00013,3,6
11032,0.00022,6e-05,1e-05,-4e-05,-1e-05,-2e-05,0.00011,0.00013,3,6
11033,0.00022,6e-05,1e-05,-4e-05,-1e-05,-2e-05,0.00011,0.00013,3,6
11034,0.00022,6e-05,1e-05,-4e-05,-1e-05,-2e-05,0.00011,0.00013,3,6
11035,0.00022,6e-05,1e-05,-4e-05,-1e-05,-2e-05,0.00011,0.00013,3,6
11038,5e-05,-1e-05,-2e-05,1e-05,7e-05,0.00017,8e-05,0.00015,3,6
11043,5e-05,-1e-05,-2e-05,1e-05,7e-05,0.00017,8e-05,0.00015,3,6
11044,5e-05,-1e-05,-2e-05,1e-05,7e-05,0.00017,8e-05,0.00015,3,6
11045,0.00018,-2e-05,-5e-05,-0.0001,-5e-05,-7e-05,-8e-05,0.00015,3,6
11046,-0.00017,-0.00012,-4e-05,-1e-05,1e-05,4e-05,3e-05,-0.00012,3,6
11047,-0.00017,-0.00012,-4e-05,-1e-05,1e-05,4e-05,3e-05,-0.00012,3,6
11048,-0.00017,-0.00012,-4e-05,-1e-05,1e-05,4e-05,3e-05,-0.00012,3,6
11049,-0.00017,-0.00012,-4e-05,-1e-05,1e-05,4e-05,3e-05,-0.00012,3,6
11050,-0.00017,-0.00012,-4e-05,-1e-05,1e-05,4e-05,3e-05,-0.00012,3,6
11051,-0.00017,-0.00012,-4e-05,-1e-05,1e-05,4e-05,3e-05,-0.00012,3,6
11052,-0.00017,-0.00012,-4e-05,-1e-05,1e-05,4e-05,3e-05,-0.00012,3,6
11053,-0.00017,-0.00012,-4e-05,-1e-05,1e-05,4e-05,3e-05,-0.00012,3,6
11054,-0.00017,-0.00012,-4e-05,-1e-05,1e-05,4e-05,3e-05,-0.00012,3,6
11055,-0.00017,-0.00012,-4e-05,-1e-05,1e-05,4e-05,3e-05,-0.00012,3,6
11058,-0.0002,-8e-05,-3e-05,-5e-05,-6e-05,-7e-05,-2e-05,-0.00017,3,6
11059,-0.0002,-8e-05,-3e-05,-5e-05,-6e-05,-7e-05,-2e-05,-0.00017,3,6
11060,-0.0002,-8e-05,-3e-05,-5e-05,-6e-05,-7e-05,-2e-05,-0.00017,3,6
11061,-0.0002,-8e-05,-3e-05,-5e-05,-6e-05,-7e-05,-2e-05,-0.00017,3,6
11062,-0.0002,-8e-05,-3e-05,-5e-05,-6e-05,-7e-05,-2e-05,-0.00017,3,6
11063,-0.0002,-8e-05,-3e-05,-5e-05,-6e-05,-7e-05,-2e-05,-0.00017,3,6
11064,-0.0002,-8e-05,-3e-05,-5e-05,-6e-05,-7e-05,-2e-05,-0.00017,3,6
11065,-0.0002,-8e-05,-3e-05,-5e-05,-6e-05,-7e-05,-2e-05,-0.00017,3,6
11066,-0.0002,-8e-05,-3e-05,-5e-05,-6e-05,-7e-05,-2e-05,-0.00017,3,6
11067,-0.0002,-8e-05,-3e-05,-5e-05,-6e-05,-7e-05,-2e-05,-0.00017,3,6
11068,-0.0002,-8e-05,-3e-05,-5e-05,-6e-05,-7e-05,-2e-05,-0.00017,3,6
11070,-0.0002,-8e-05,-3e-05,-5e-05,-6e-05,-7e-05,-2e-05,-0.00017,3,6
11071,-0.0002,-8e-05,-3e-05,-5e-05,-6e-05,-7e-05,-2e-05,-0.00017,3,6
11072,-0.0002,-8e-05,-3e-05,-5e-05,-6e-05,-7e-05,-2e-05,-0.00017,3,6
11073,-0.0002,-8e-05,-3e-05,-5e-05,-6e-05,-7e-05,-2e-05,-0.00017,3,6
11074,-0.0002,-8e-05,-3e-05,-5e-05,-6e-05,-7e-05,-2e-05,-0.00017,3,6
11075,-0.0002,-8e-05,-3e-05,-5e-05,-6e-05,-7e-05,-2e-05,-0.00017,3,6
11076,-0.0002,-8e-05,-3e-05,-5e-05,-6e-05,-7e-05,-2e-05,-0.00017,3,6
11077,-0.0002,-8e-05,-3e-05,-5e-05,-6e-05,-7e-05,-2e-05,-0.00017,3,6
11078,-0.0002,-8e-05,-3e-05,-5e-05,-6e-05,-7e-05,-2e-05,-0.00017,3,6
11079,-0.0002,-8e-05,-3e-05,-5e-05,-6e-05,-7e-05,-2e-05,-0.00017,3,6
11080,-0.0002,-8e-05,-3e-05,-5e-05,-6e-05,-7e-05,-2e-05,-0.00017,3,6
11081,-0.0002,-8e-05,-3e-05,-5e-05,-6e-05,-7e-05,-2e-05,-0.00017,3,6
11082,-0.0002,-8e-05,-3e-05,-5e-05,-6e-05,-7e-05,-2e-05,-0.00017,3,6
11083,-0.0002,-8e-05,-3e-05,-5e-05,-6e-05,-7e-05,-2e-05,-0.00017,3,6
11084,-0.0002,-8e-05,-3e-05,-5e-05,-6e-05,-7e-05,-2e-05,-0.00017,3,6
11085,-0.0002,-8e-05,-3e-05,-5e-05,-6e-05,-7e-05,-2e-05,-0.00017,3,6
11088,-0.0002,-8e-05,-3e-05,-5e-05,-6e-05,-7e-05,-2e-05,-0.00017,3,6
11092,-0.0002,-8e-05,-3e-05,-5e-05,-6e-05,-7e-05,-2e-05,-0.00017,3,6
11093,-0.0002,-8e-05,-3e-05,-5e-05,-6e-05,-7e-05,-2e-05,-0.00017,3,6
11094,-0.0002,-8e-05,-3e-05,-5e-05,-6e-05,-7e-05,-2e-05,-0.00017,3,6
11095,-0.0002,-8e-05,-3e-05,-5e-05,-6e-05,-7e-05,-2e-05,-0.00017,3,6
11096,-1e-05,-5e-05,-1e-05,-5e-05,-9e-05,-5e-05,-6e-05,-0.00011,3,6
11097,-1e-05,-5e-05,-1e-05,-5e-05,-9e-05,-5e-05,-6e-05,-0.00011,3,6
11098,-1e-05,-5e-05,-1e-05,-5e-05,-9e-05,-5e-05,-6e-05,-0.00011,3,6
11099,-1e-05,-5e-05,-1e-05,-5e-05,-9e-05,-5e-05,-6e-05,-0.00011,3,6
11100,-1e-05,-5e-05,-1e-05,-5e-05,-9e-05,-5e-05,-6e-05,-0.00011,3,6
11101,-1e-05,-5e-05,-1e-05,-5e-05,-9e-05,-5e-05,-6e-05,-0.00011,3,6
11102,-1e-05,-5e-05,-1e-05,-5e-05,-9e-05,-5e-05,-6e-05,-0.00011,3,6
11105,-1e-05,-5e-05,-1e-05,-5e-05,-9e-05,-5e-05,-6e-05,-0.00011,3,6
11106,-0.00034,-5e-05,2e-05,6e-05,0,-2e-05,3e-05,-3e-05,3,6
11107,-0.00034,-5e-05,2e-05,6e-05,0,-2e-05,3e-05,-3e-05,3,6
11108,-0.00034,-5e-05,2e-05,6e-05,0,-2e-05,3e-05,-3e-05,3,6
11109,-0.00034,-5e-05,2e-05,6e-05,0,-2e-05,3e-05,-3e-05,3,6
11110,-0.00034,-5e-05,2e-05,6e-05,0,-2e-05,3e-05,-3e-05,3,6
11111,-0.00034,-5e-05,2e-05,6e-05,0,-2e-05,3e-05,-3e-05,3,6
11112,-0.00034,-5e-05,2e-05,6e-05,0,-2e-05,3e-05,-3e-05,3,6
11113,-0.00034,-5e-05,2e-05,6e-05,0,-2e-05,3e-05,-3e-05,3,6
11114,-0.00034,-5e-05,2e-05,6e-05,0,-2e-05,3e-05,-3e-05,3,6
11115,-0.00034,-5e-05,2e-05,6e-05,0,-2e-05,3e-05,-3e-05,3,6
11116,-0.00034,-5e-05,2e-05,6e-05,0,-2e-05,3e-05,-3e-05,3,6
11117,0.00025,9e-05,2e-05,0,5e-05,0.00012,0.00016,7e-05,3,6
11118,0,-7e-05,0,3e-05,3e-05,9e-05,-0.00011,-0.00015,3,6
11120,0,-7e-05,0,3e-05,3e-05,9e-05,-0.00011,-0.00015,3,6
11121,0,-7e-05,0,3e-05,3e-05,9e-05,-0.00011,-0.00015,3,6
11122,0,-7e-05,0,3e-05,3e-05,9e-05,-0.00011,-0.00015,3,6
11123,0,-7e-05,0,3e-05,3e-05,9e-05,-0.00011,-0.00015,3,6
11124,0,-7e-05,0,3e-05,3e-05,9e-05,-0.00011,-0.00015,3,6
11125,0,-7e-05,0,3e-05,3e-05,9e-05,-0.00011,-0.00015,3,6
11126,0,-7e-05,0,3e-05,3e-05,9e-05,-0.00011,-0.00015,3,6
11127,0,-7e-05,0,3e-05,3e-05,9e-05,-0.00011,-0.00015,3,6
11128,0,-7e-05,0,3e-05,3e-05,9e-05,-0.00011,-0.00015,3,6
11129,0,-7e-05,0,3e-05,3e-05,9e-05,-0.00011,-0.00015,3,6
11130,0,-7e-05,0,3e-05,3e-05,9e-05,-0.00011,-0.00015,3,6
11131,0,-7e-05,0,3e-05,3e-05,9e-05,-0.00011,-0.00015,3,6
11132,0,-7e-05,0,3e-05,3e-05,9e-05,-0.00011,-0.00015,3,6
11133,0,-7e-05,0,3e-05,3e-05,9e-05,-0.00011,-0.00015,3,6
11134,0,-7e-05,0,3e-05,3e-05,9e-05,-0.00011,-0.00015,3,6
11135,0,-7e-05,0,3e-05,3e-05,9e-05,-0.00011,-0.00015,3,6
11138,0,-7e-05,0,3e-05,3e-05,9e-05,-0.00011,-0.00015,3,6
11142,0,-7e-05,0,3e-05,3e-05,9e-05,-0.00011,-0.00015,3,6
11143,0,-7e-05,0,3e-05,3e-05,9e-05,-0.00011,-0.00015,3,6
11144,0,-7e-05,0,3e-05,3e-05,9e-05,-0.00011,-0.00015,3,6
11145,0,-7e-05,0,3e-05,3e-05,9e-05,-0.00011,-0.00015,3,6
11146,0,-7e-05,0,3e-05,3e-05,9e-05,-0.00011,-0.00015,3,6
11147,0,-7e-05,0,3e-05,3e-05,9e-05,-0.00011,-0.00015,3,6
11148,0.0002,-3e-05,-2e-05,1e-05,8e-05,0.00011,0.00013,0.00014,3,6
11149,0.0002,-3e-05,-2e-05,1e-05,8e-05,0.00011,0.00013,0.00014,3,6
11150,0.0002,-3e-05,-2e-05,1e-05,8e-05,0.00011,0.00013,0.00014,3,6
11151,0.0002,-3e-05,-2e-05,1e-05,8e-05,0.00011,0.00013,0.00014,3,6
11152,0.0002,-3e-05,-2e-05,1e-05,8e-05,0.00011,0.00013,0.00014,3,6
11154,0.0002,-3e-05,-2e-05,1e-05,8e-05,0.00011,0.00013,0.00014,3,6
11155,0.0002,-3e-05,-2e-05,1e-05,8e-05,0.00011,0.00013,0.00014,3,6
11156,0.0002,-3e-05,-2e-05,1e-05,8e-05,0.00011,0.00013,0.00014,3,6
11157,0.0002,-3e-05,-2e-05,1e-05,8e-05,0.00011,0.00013,0.00014,3,6
11158,0.0002,-3e-05,-2e-05,1e-05,8e-05,0.00011,0.00013,0.00014,3,6
11159,0.0002,-3e-05,-2e-05,1e-05,8e-05,0.00011,0.00013,0.00014,3,6
11160,0.0002,-3e-05,-2e-05,1e-05,8e-05,0.00011,0.00013,0.00014,3,6
11161,0.0002,-3e-05,-2e-05,1e-05,8e-05,0.00011,0.00013,0.00014,3,6
11162,0.0002,-3e-05,-2e-05,1e-05,8e-05,0.00011,0.00013,0.00014,3,6
11163,-3e-05,-5e-05,-1e-05,3e-05,9e-05,0.00019,-6e-05,5e-05,3,6
11164,-2e-05,-1e-05,-2e-05,-1e-05,-8e-05,-9e-05,-9e-05,6e-05,3,6
11165,-2e-05,-1e-05,-2e-05,-1e-05,-8e-05,-9e-05,-9e-05,6e-05,3,6
11166,-2e-05,-1e-05,-2e-05,-1e-05,-8e-05,-9e-05,-9e-05,6e-05,3,6
11167,-2e-05,-1e-05,-2e-05,-1e-05,-8e-05,-9e-05,-9e-05,6e-05,3,6
11168,-2e-05,-1e-05,-2e-05,-1e-05,-8e-05,-9e-05,-9e-05,6e-05,3,6
11169,-2e-05,-1e-05,-2e-05,-1e-05,-8e-05,-9e-05,-9e-05,6e-05,3,6
11170,-2e-05,-1e-05,-2e-05,-1e-05,-8e-05,-9e-05,-9e-05,6e-05,3,6
11171,-2e-05,-1e-05,-2e-05,-1e-05,-8e-05,-9e-05,-9e-05,6e-05,3,6
11172,-2e-05,-1e-05,-2e-05,-1e-05,-8e-05,-9e-05,-9e-05,6e-05,3,6
11173,-2e-05,-1e-05,-2e-05,-1e-05,-8e-05,-9e-05,-9e-05,6e-05,3,6
11174,-2e-05,-1e-05,-2e-05,-1e-05,-8e-05,-9e-05,-9e-05,6e-05,3,6
11175,-2e-05,-1e-05,-2e-05,-1e-05,-8e-05,-9e-05,-9e-05,6e-05,3,6
11176,9e-05,-2e-05,-3e-05,0,6e-05,0.0001,2e-05,0.00025,3,6
11177,9e-05,-2e-05,-3e-05,0,6e-05,0.0001,2e-05,0.00025,3,6
11178,9e-05,-2e-05,-3e-05,0,6e-05,0.0001,2e-05,0.00025,3,6
11179,9e-05,-2e-05,-3e-05,0,6e-05,0.0001,2e-05,0.00025,3,6
11180,9e-05,-2e-05,-3e-05,0,6e-05,0.0001,2e-05,0.00025,3,6
11181,9e-05,-2e-05,-3e-05,0,6e-05,0.0001,2e-05,0.00025,3,6
11182,9e-05,-2e-05,-3e-05,0,6e-05,0.0001,2e-05,0.00025,3,6
11183,9e-05,-2e-05,-3e-05,0,6e-05,0.0001,2e-05,0.00025,3,6
11184,9e-05,-2e-05,-3e-05,0,6e-05,0.0001,2e-05,0.00025,3,6
11185,9e-05,-2e-05,-3e-05,0,6e-05,0.0001,2e-05,0.00025,3,6
11186,9e-05,-2e-05,-3e-05,0,6e-05,0.0001,2e-05,0.00025,3,6
11191,-7e-05,-6e-05,-5e-05,-2e-05,-7e-05,-7e-05,0,-0.00015,3,6
11192,-7e-05,-6e-05,-5e-05,-2e-05,-7e-05,-7e-05,0,-0.00015,3,6
11193,-7e-05,-6e-05,-5e-05,-2e-05,-7e-05,-7e-05,0,-0.00015,3,6
11194,-7e-05,-6e-05,-5e-05,-2e-05,-7e-05,-7e-05,0,-0.00015,3,6
11195,-7e-05,-6e-05,-5e-05,-2e-05,-7e-05,-7e-05,0,-0.00015,3,6
11196,-7e-05,-6e-05,-5e-05,-2e-05,-7e-05,-7e-05,0,-0.00015,3,6
11197,-7e-05,-6e-05,-5e-05,-2e-05,-7e-05,-7e-05,0,-0.00015,3,6
11198,-7e-05,-6e-05,-5e-05,-2e-05,-7e-05,-7e-05,0,-0.00015,3,6
11199,-7e-05,-6e-05,-5e-05,-2e-05,-7e-05,-7e-05,0,-0.00015,3,6
11200,-7e-05,-6e-05,-5e-05,-2e-05,-7e-05,-7e-05,0,-0.00015,3,6
11201,-7e-05,-6e-05,-5e-05,-2e-05,-7e-05,-7e-05,0,-0.00015,3,6
11202,-7e-05,-6e-05,-5e-05,-2e-05,-7e-05,-7e-05,0,-0.00015,3,6
11203,-7e-05,-6e-05,-5e-05,-2e-05,-7e-05,-7e-05,0,-0.00015,3,6
11204,-7e-05,-6e-05,-5e-05,-2e-05,-7e-05,-7e-05,0,-0.00015,3,6
11205,-7e-05,-6e-05,-5e-05,-2e-05,-7e-05,-7e-05,0,-0.00015,3,6
11206,-7e-05,-6e-05,-5e-05,-2e-05,-7e-05,-7e-05,0,-0.00015,3,6
11207,-7e-05,-6e-05,-5e-05,-2e-05,-7e-05,-7e-05,0,-0.00015,3,6
11208,-7e-05,-6e-05,-5e-05,-2e-05,-7e-05,-7e-05,0,-0.00015,3,6
11209,-3e-05,-1e-05,1e-05,-3e-05,3e-05,8e-05,8e-05,-6e-05,3,6
11210,-3e-05,-1e-05,1e-05,-3e-05,3e-05,8e-05,8e-05,-6e-05,3,6
11211,-3e-05,-1e-05,1e-05,-3e-05,3e-05,8e-05,8e-05,-6e-05,3,6
11212,-3e-05,-1e-05,1e-05,-3e-05,3e-05,8e-05,8e-05,-6e-05,3,6
11213,-3e-05,-1e-05,1e-05,-3e-05,3e-05,8e-05,8e-05,-6e-05,3,6
11214,-3e-05,-1e-05,1e-05,-3e-05,3e-05,8e-05,8e-05,-6e-05,3,6
11215,-3e-05,-1e-05,1e-05,-3e-05,3e-05,8e-05,8e-05,-6e-05,3,6
11216,-3e-05,-1e-05,1e-05,-3e-05,3e-05,8e-05,8e-05,-6e-05,3,6
11217,-3e-05,-1e-05,1e-05,-3e-05,3e-05,8e-05,8e-05,-6e-05,3,6
11218,-3e-05,-1e-05,1e-05,-3e-05,3e-05,8e-05,8e-05,-6e-05,3,6
11219,-3e-05,-1e-05,1e-05,-3e-05,3e-05,8e-05,8e-05,-6e-05,3,6
11220,-3e-05,-1e-05,1e-05,-3e-05,3e-05,8e-05,8e-05,-6e-05,3,6
11221,-3e-05,-1e-05,1e-05,-3e-05,3e-05,8e-05,8e-05,-6e-05,3,6
11222,-3e-05,-1e-05,1e-05,-3e-05,3e-05,8e-05,8e-05,-6e-05,3,6
11223,0.00024,0.0001,4e-05,-3e-05,1e-05,-2e-05,0.00011,7e-05,3,6
11224,0.00024,0.0001,4e-05,-3e-05,1e-05,-2e-05,0.00011,7e-05,3,6
11225,0.00012,8e-05,4e-05,1e-05,4e-05,0,-2e-05,0.00011,3,6
11226,0.00012,8e-05,4e-05,1e-05,4e-05,0,-2e-05,0.00011,3,6
11227,0.00012,8e-05,4e-05,1e-05,4e-05,0,-2e-05,0.00011,3,6
11228,0.00012,8e-05,4e-05,1e-05,4e-05,0,-2e-05,0.00011,3,6
11229,0.00012,8e-05,4e-05,1e-05,4e-05,0,-2e-05,0.00011,3,6
11230,0.00012,8e-05,4e-05,1e-05,4e-05,0,-2e-05,0.00011,3,6
11231,0.00012,8e-05,4e-05,1e-05,4e-05,0,-2e-05,0.00011,3,6
11232,0.00012,8e-05,4e-05,1e-05,4e-05,0,-2e-05,0.00011,3,6
11233,0.00012,8e-05,4e-05,1e-05,4e-05,0,-2e-05,0.00011,3,6
11234,0.00012,8e-05,4e-05,1e-05,4e-05,0,-2e-05,0.00011,3,6
11235,0.00012,8e-05,4e-05,1e-05,4e-05,0,-2e-05,0.00011,3,6
11237,0.00026,-8e-05,-4e-05,0,-3e-05,-3e-05,-5e-05,7e-05,3,6
11239,0.00026,-8e-05,-4e-05,0,-3e-05,-3e-05,-5e-05,7e-05,3,6
11240,0.00026,-8e-05,-4e-05,0,-3e-05,-3e-05,-5e-05,7e-05,3,6
11241,0.00026,-8e-05,-4e-05,0,-3e-05,-3e-05,-5e-05,7e-05,3,6
11242,0.00026,-8e-05,-4e-05,0,-3e-05,-3e-05,-5e-05,7e-05,3,6
11243,0.00026,-8e-05,-4e-05,0,-3e-05,-3e-05,-5e-05,7e-05,3,6
11244,-3e-05,-5e-05,2e-05,8e-05,5e-05,-2e-05,1e-05,8e-05,3,6
11245,-3e-05,-5e-05,2e-05,8e-05,5e-05,-2e-05,1e-05,8e-05,3,6
11246,-3e-05,-5e-05,2e-05,8e-05,5e-05,-2e-05,1e-05,8e-05,3,6
11247,-3e-05,-5e-05,2e-05,8e-05,5e-05,-2e-05,1e-05,8e-05,3,6
11248,-3e-05,-5e-05,2e-05,8e-05,5e-05,-2e-05,1e-05,8e-05,3,6
11249,-3e-05,-5e-05,2e-05,8e-05,5e-05,-2e-05,1e-05,8e-05,3,6
11250,-3e-05,-5e-05,2e-05,8e-05,5e-05,-2e-05,1e-05,8e-05,3,6
11251,-3e-05,-5e-05,2e-05,8e-05,5e-05,-2e-05,1e-05,8e-05,3,6
11252,-3e-05,-5e-05,2e-05,8e-05,5e-05,-2e-05,1e-05,8e-05,3,6
11253,-3e-05,-5e-05,2e-05,8e-05,5e-05,-2e-05,1e-05,8e-05,3,6
11254,-3e-05,-5e-05,2e-05,8e-05,5e-05,-2e-05,1e-05,8e-05,3,6
11255,-3e-05,-5e-05,2e-05,8e-05,5e-05,-2e-05,1e-05,8e-05,3,6
11256,-3e-05,-5e-05,2e-05,8e-05,5e-05,-2e-05,1e-05,8e-05,3,6
11257,-3e-05,-5e-05,2e-05,8e-05,5e-05,-2e-05,1e-05,8e-05,3,6
11258,-3e-05,-5e-05,2e-05,8e-05,5e-05,-2e-05,1e-05,8e-05,3,6
11259,-3e-05,-5e-05,2e-05,8e-05,5e-05,-2e-05,1e-05,8e-05,3,6
11260,-3e-05,-5e-05,2e-05,8e-05,5e-05,-2e-05,1e-05,8e-05,3,6
11261,-3e-05,-5e-05,2e-05,8e-05,5e-05,-2e-05,1e-05,8e-05,3,6
11262,-3e-05,-5e-05,2e-05,8e-05,5e-05,-2e-05,1e-05,8e-05,3,6
11263,-3e-05,-5e-05,2e-05,8e-05,5e-05,-2e-05,1e-05,8e-05,3,6
11264,-3e-05,-5e-05,2e-05,8e-05,5e-05,-2e-05,1e-05,8e-05,3,6
11265,-3e-05,-5e-05,2e-05,8e-05,5e-05,-2e-05,1e-05,8e-05,3,6
11266,-3e-05,-5e-05,2e-05,8e-05,5e-05,-2e-05,1e-05,8e-05,3,6
11267,-3e-05,-5e-05,2e-05,8e-05,5e-05,-2e-05,1e-05,8e-05,3,6
11268,-0.00021,-5e-05,0,-1e-05,-4e-05,-0.00016,-0.00013,-0.00017,3,6
11269,-0.00021,-5e-05,0,-1e-05,-4e-05,-0.00016,-0.00013,-0.00017,3,6
11271,-0.00021,-5e-05,0,-1e-05,-4e-05,-0.00016,-0.00013,-0.00017,3,6
11272,-0.00021,-5e-05,0,-1e-05,-4e-05,-0.00016,-0.00013,-0.00017,3,6
11273,-0.00021,-5e-05,0,-1e-05,-4e-05,-0.00016,-0.00013,-0.00017,3,6
11274,-0.00021,-5e-05,0,-1e-05,-4e-05,-0.00016,-0.00013,-0.00017,3,6
11275,-0.00021,-5e-05,0,-1e-05,-4e-05,-0.00016,-0.00013,-0.00017,3,6
11276,-0.00021,-5e-05,0,-1e-05,-4e-05,-0.00016,-0.00013,-0.00017,3,6
11277,-0.00021,-5e-05,0,-1e-05,-4e-05,-0.00016,-0.00013,-0.00017,3,6
11278,-0.00021,-5e-05,0,-1e-05,-4e-05,-0.00016,-0.00013,-0.00017,3,6
11279,-0.00021,-5e-05,0,-1e-05,-4e-05,-0.00016,-0.00013,-0.00017,3,6
11280,-0.00021,-5e-05,0,-1e-05,-4e-05,-0.00016,-0.00013,-0.00017,3,6
11281,-0.00021,-5e-05,0,-1e-05,-4e-05,-0.00016,-0.00013,-0.00017,3,6
11282,-0.00021,-5e-05,0,-1e-05,-4e-05,-0.00016,-0.00013,-0.00017,3,6
11283,0.00028,5e-05,-2e-05,-7e-05,-1e-05,4e-05,0.00023,0.00023,3,6
11284,0.00028,5e-05,-2e-05,-7e-05,-1e-05,4e-05,0.00023,0.00023,3,6
11285,0.00028,5e-05,-2e-05,-7e-05,-1e-05,4e-05,0.00023,0.00023,3,6
11288,0.00028,5e-05,-2e-05,-7e-05,-1e-05,4e-05,0.00023,0.00023,3,6
11293,0.00028,5e-05,-2e-05,-7e-05,-1e-05,4e-05,0.00023,0.00023,3,6
11294,0.00028,5e-05,-2e-05,-7e-05,-1e-05,4e-05,0.00023,0.00023,3,6
11295,0.00028,5e-05,-2e-05,-7e-05,-1e-05,4e-05,0.00023,0.00023,3,6
11296,0.00028,5e-05,-2e-05,-7e-05,-1e-05,4e-05,0.00023,0.00023,3,6
11297,-9e-05,-2e-05,1e-05,-1e-05,0,3e-05,4e-05,0,3,6
11298,-9e-05,-2e-05,1e-05,-1e-05,0,3e-05,4e-05,0,3,6
11299,-9e-05,-2e-05,1e-05,-1e-05,0,3e-05,4e-05,0,3,6
11300,-9e-05,-2e-05,1e-05,-1e-05,0,3e-05,4e-05,0,3,6
11301,-9e-05,-2e-05,1e-05,-1e-05,0,3e-05,4e-05,0,3,6
11302,-9e-05,-2e-05,1e-05,-1e-05,0,3e-05,4e-05,0,3,6
11303,-9e-05,-2e-05,1e-05,-1e-05,0,3e-05,4e-05,0,3,6
11304,-9e-05,-2e-05,1e-05,-1e-05,0,3e-05,4e-05,0,3,6
11305,-9e-05,-2e-05,1e-05,-1e-05,0,3e-05,4e-05,0,3,6
11306,-9e-05,-2e-05,1e-05,-1e-05,0,3e-05,4e-05,0,3,6
11307,-9e-05,-2e-05,1e-05,-1e-05,0,3e-05,4e-05,0,3,6
11308,-9e-05,-2e-05,1e-05,-1e-05,0,3e-05,4e-05,0,3,6
11309,-9e-05,-2e-05,1e-05,-1e-05,0,3e-05,4e-05,0,3,6
11310,-9e-05,-2e-05,1e-05,-1e-05,0,3e-05,4e-05,0,3,6
11311,-9e-05,-2e-05,1e-05,-1e-05,0,3e-05,4e-05,0,3,6
11312,-9e-05,-2e-05,1e-05,-1e-05,0,3e-05,4e-05,0,3,6
11313,0.00024,1e-05,-1e-05,1e-05,6e-05,6e-05,9e-05,0.00021,3,6
11314,0.00024,1e-05,-1e-05,1e-05,6e-05,6e-05,9e-05,0.00021,3,6
11315,0.00024,1e-05,-1e-05,1e-05,6e-05,6e-05,9e-05,0.00021,3,6
11316,0.00024,1e-05,-1e-05,1e-05,6e-05,6e-05,9e-05,0.00021,3,6
11317,0.00024,1e-05,-1e-05,1e-05,6e-05,6e-05,9e-05,0.00021,3,6
11318,0.00024,1e-05,-1e-05,1e-05,6e-05,6e-05,9e-05,0.00021,3,6
11319,0.00024,1e-05,-1e-05,1e-05,6e-05,6e-05,9e-05,0.00021,3,6
11321,0.00024,1e-05,-1e-05,1e-05,6e-05,6e-05,9e-05,0.00021,3,6
11322,4e-05,6e-05,-5e-05,-4e-05,-2e-05,-9e-05,-6e-05,-4e-05,3,6
11323,4e-05,6e-05,-5e-05,-4e-05,-2e-05,-9e-05,-6e-05,-4e-05,3,6
11324,4e-05,6e-05,-5e-05,-4e-05,-2e-05,-9e-05,-6e-05,-4e-05,3,6
11325,4e-05,6e-05,-5e-05,-4e-05,-2e-05,-9e-05,-6e-05,-4e-05,3,6
11326,4e-05,6e-05,-5e-05,-4e-05,-2e-05,-9e-05,-6e-05,-4e-05,3,6
11327,4e-05,6e-05,-5e-05,-4e-05,-2e-05,-9e-05,-6e-05,-4e-05,3,6
11328,4e-05,6e-05,-5e-05,-4e-05,-2e-05,-9e-05,-6e-05,-4e-05,3,6
11329,4e-05,6e-05,-5e-05,-4e-05,-2e-05,-9e-05,-6e-05,-4e-05,3,6
11330,4e-05,6e-05,-5e-05,-4e-05,-2e-05,-9e-05,-6e-05,-4e-05,3,6
11331,4e-05,6e-05,-5e-05,-4e-05,-2e-05,-9e-05,-6e-05,-4e-05,3,6
11332,4e-05,6e-05,-5e-05,-4e-05,-2e-05,-9e-05,-6e-05,-4e-05,3,6
11333,4e-05,6e-05,-5e-05,-4e-05,-2e-05,-9e-05,-6e-05,-4e-05,3,6
11334,4e-05,6e-05,-5e-05,-4e-05,-2e-05,-9e-05,-6e-05,-4e-05,3,6
11335,4e-05,6e-05,-5e-05,-4e-05,-2e-05,-9e-05,-6e-05,-4e-05,3,6
11337,4e-05,6e-05,-5e-05,-4e-05,-2e-05,-9e-05,-6e-05,-4e-05,3,6
11342,4e-05,6e-05,-5e-05,-4e-05,-2e-05,-9e-05,-6e-05,-4e-05,3,6
11343,4e-05,6e-05,-5e-05,-4e-05,-2e-05,-9e-05,-6e-05,-4e-05,3,6
11344,4e-05,6e-05,-5e-05,-4e-05,-2e-05,-9e-05,-6e-05,-4e-05,3,6
11345,-9e-05,1e-05,4e-05,1e-05,-2e-05,5e-05,3e-05,-2e-05,3,6
11346,-9e-05,1e-05,4e-05,1e-05,-2e-05,5e-05,3e-05,-2e-05,3,6
11347,-9e-05,1e-05,4e-05,1e-05,-2e-05,5e-05,3e-05,-2e-05,3,6
11348,-9e-05,1e-05,4e-05,1e-05,-2e-05,5e-05,3e-05,-2e-05,3,6
11349,-9e-05,1e-05,4e-05,1e-05,-2e-05,5e-05,3e-05,-2e-05,3,6
11350,-9e-05,1e-05,4e-05,1e-05,-2e-05,5e-05,3e-05,-2e-05,3,6
11351,-9e-05,1e-05,4e-05,1e-05,-2e-05,5e-05,3e-05,-2e-05,3,6
11352,-9e-05,1e-05,4e-05,1e-05,-2e-05,5e-05,3e-05,-2e-05,3,6
11353,-9e-05,1e-05,4e-05,1e-05,-2e-05,5e-05,3e-05,-2e-05,3,6
11355,-9e-05,1e-05,4e-05,1e-05,-2e-05,5e-05,3e-05,-2e-05,3,6
11356,-9e-05,1e-05,4e-05,1e-05,-2e-05,5e-05,3e-05,-2e-05,3,6
11357,-9e-05,1e-05,4e-05,1e-05,-2e-05,5e-05,3e-05,-2e-05,3,6
11358,-9e-05,1e-05,4e-05,1e-05,-2e-05,5e-05,3e-05,-2e-05,3,6
11359,-9e-05,1e-05,4e-05,1e-05,-2e-05,5e-05,3e-05,-2e-05,3,6
11360,-9e-05,1e-05,4e-05,1e-05,-2e-05,5e-05,3e-05,-2e-05,3,6
11361,-9e-05,1e-05,4e-05,1e-05,-2e-05,5e-05,3e-05,-2e-05,3,6
11362,-9e-05,1e-05,4e-05,1e-05,-2e-05,5e-05,3e-05,-2e-05,3,6
11363,-9e-05,1e-05,4e-05,1e-05,-2e-05,5e-05,3e-05,-2e-05,3,6
11364,-9e-05,1e-05,4e-05,1e-05,-2e-05,5e-05,3e-05,-2e-05,3,6
11365,-9e-05,1e-05,4e-05,1e-05,-2e-05,5e-05,3e-05,-2e-05,3,6
11366,-9e-05,1e-05,4e-05,1e-05,-2e-05,5e-05,3e-05,-2e-05,3,6
11367,-9e-05,1e-05,4e-05,1e-05,-2e-05,5e-05,3e-05,-2e-05,3,6
11368,-9e-05,1e-05,4e-05,1e-05,-2e-05,5e-05,3e-05,-2e-05,3,6
11369,-9e-05,1e-05,4e-05,1e-05,-2e-05,5e-05,3e-05,-2e-05,3,6
11371,-9e-05,1e-05,4e-05,1e-05,-2e-05,5e-05,3e-05,-2e-05,3,6
11372,-9e-05,1e-05,4e-05,1e-05,-2e-05,5e-05,3e-05,-2e-05,3,6
11373,-9e-05,1e-05,4e-05,1e-05,-2e-05,5e-05,3e-05,-2e-05,3,6
11374,-0.00014,-6e-05,-5e-05,-1e-05,-2e-05,-0.00013,-0.00019,0.00021,3,6
11375,-0.00013,2e-05,4e-05,3e-05,6e-05,7e-05,-3e-05,3e-05,3,6
11376,-0.00013,2e-05,4e-05,3e-05,6e-05,7e-05,-3e-05,3e-05,3,6
11377,-0.00013,2e-05,4e-05,3e-05,6e-05,7e-05,-3e-05,3e-05,3,6
11378,-0.00013,2e-05,4e-05,3e-05,6e-05,7e-05,-3e-05,3e-05,3,6
11379,0,-6e-05,0,7e-05,-7e-05,-9e-05,2e-05,-2e-05,3,6
11380,0.00023,4e-05,-1e-05,-3e-05,-4e-05,-0.0001,-0.00012,0.00016,3,6
11381,0.00023,4e-05,-1e-05,-3e-05,-4e-05,-0.0001,-0.00012,0.00016,3,6
11382,0.00023,4e-05,-1e-05,-3e-05,-4e-05,-0.0001,-0.00012,0.00016,3,6
11383,0.00023,4e-05,-1e-05,-3e-05,-4e-05,-0.0001,-0.00012,0.00016,3,6
11384,0.00023,4e-05,-1e-05,-3e-05,-4e-05,-0.0001,-0.00012,0.00016,3,6
11385,0.00023,4e-05,-1e-05,-3e-05,-4e-05,-0.0001,-0.00012,0.00016,3,6
11386,0.00023,4e-05,-1e-05,-3e-05,-4e-05,-0.0001,-0.00012,0.00016,3,6
11391,0.00023,4e-05,-1e-05,-3e-05,-4e-05,-0.0001,-0.00012,0.00016,3,6
11393,0.00023,4e-05,-1e-05,-3e-05,-4e-05,-0.0001,-0.00012,0.00016,3,6
11394,0.00023,4e-05,-1e-05,-3e-05,-4e-05,-0.0001,-0.00012,0.00016,3,6
11395,0.00023,4e-05,-1e-05,-3e-05,-4e-05,-0.0001,-0.00012,0.00016,3,6
11396,0.00023,4e-05,-1e-05,-3e-05,-4e-05,-0.0001,-0.00012,0.00016,3,6
11397,0.00023,4e-05,-1e-05,-3e-05,-4e-05,-0.0001,-0.00012,0.00016,3,6
11398,0.00023,4e-05,-1e-05,-3e-05,-4e-05,-0.0001,-0.00012,0.00016,3,6
11399,0.00023,4e-05,-1e-05,-3e-05,-4e-05,-0.0001,-0.00012,0.00016,3,6
11400,0.00023,4e-05,-1e-05,-3e-05,-4e-05,-0.0001,-0.00012,0.00016,3,6
11401,0.00023,4e-05,-1e-05,-3e-05,-4e-05,-0.0001,-0.00012,0.00016,3,6
11402,0.00023,4e-05,-1e-05,-3e-05,-4e-05,-0.0001,-0.00012,0.00016,3,6
11403,0.00023,4e-05,-1e-05,-3e-05,-4e-05,-0.0001,-0.00012,0.00016,3,6
11405,-0.00028,-0.00011,-3e-05,3e-05,-2e-05,4e-05,3e-05,-0.00014,3,6
11406,-0.00028,-0.00011,-3e-05,3e-05,-2e-05,4e-05,3e-05,-0.00014,3,6
11407,-0.00028,-0.00011,-3e-05,3e-05,-2e-05,4e-05,3e-05,-0.00014,3,6
11408,-0.00028,-0.00011,-3e-05,3e-05,-2e-05,4e-05,3e-05,-0.00014,3,6
11409,-0.00028,-0.00011,-3e-05,3e-05,-2e-05,4e-05,3e-05,-0.00014,3,6
11410,-0.00028,-0.00011,-3e-05,3e-05,-2e-05,4e-05,3e-05,-0.00014,3,6
11411,-0.00028,-0.00011,-3e-05,3e-05,-2e-05,4e-05,3e-05,-0.00014,3,6
11412,-0.00028,-0.00011,-3e-05,3e-05,-2e-05,4e-05,3e-05,-0.00014,3,6
11413,-0.00028,-0.00011,-3e-05,3e-05,-2e-05,4e-05,3e-05,-0.00014,3,6
11414,-0.00028,-0.00011,-3e-05,3e-05,-2e-05,4e-05,3e-05,-0.00014,3,6
11415,-0.00028,-0.00011,-3e-05,3e-05,-2e-05,4e-05,3e-05,-0.00014,3,6
11416,-0.00028,-0.00011,-3e-05,3e-05,-2e-05,4e-05,3e-05,-0.00014,3,6
11417,-0.00028,-0.00011,-3e-05,3e-05,-2e-05,4e-05,3e-05,-0.00014,3,6
11419,-0.00028,-0.00011,-3e-05,3e-05,-2e-05,4e-05,3e-05,-0.00014,3,6
11420,-0.00028,-0.00011,-3e-05,3e-05,-2e-05,4e-05,3e-05,-0.00014,3,6
11421,-0.00028,-0.00011,-3e-05,3e-05,-2e-05,4e-05,3e-05,-0.00014,3,6
11422,-0.00028,-0.00011,-3e-05,3e-05,-2e-05,4e-05,3e-05,-0.00014,3,6
11423,-0.00028,-0.00011,-3e-05,3e-05,-2e-05,4e-05,3e-05,-0.00014,3,6
11424,-0.00028,-0.00011,-3e-05,3e-05,-2e-05,4e-05,3e-05,-0.00014,3,6
11425,-0.00031,-0.00012,-2e-05,-1e-05,-2e-05,1e-05,0.00013,-0.00024,3,6
11426,-0.00031,-0.00012,-2e-05,-1e-05,-2e-05,1e-05,0.00013,-0.00024,3,6
11427,-0.00031,-0.00012,-2e-05,-1e-05,-2e-05,1e-05,0.00013,-0.00024,3,6
11428,-0.00031,-0.00012,-2e-05,-1e-05,-2e-05,1e-05,0.00013,-0.00024,3,6
11429,-0.00031,-0.00012,-2e-05,-1e-05,-2e-05,1e-05,0.00013,-0.00024,3,6
11430,-0.00031,-0.00012,-2e-05,-1e-05,-2e-05,1e-05,0.00013,-0.00024,3,6
11431,-0.00031,-0.00012,-2e-05,-1e-05,-2e-05,1e-05,0.00013,-0.00024,3,6
11432,2e-05,-2e-05,-6e-05,-5e-05,-9e-05,-0.0001,8e-05,-1e-05,3,6
11433,2e-05,-2e-05,-6e-05,-5e-05,-9e-05,-0.0001,8e-05,-1e-05,3,6
11434,2e-05,-2e-05,-6e-05,-5e-05,-9e-05,-0.0001,8e-05,-1e-05,3,6
11435,2e-05,-2e-05,-6e-05,-5e-05,-9e-05,-0.0001,8e-05,-1e-05,3,6
11436,2e-05,-2e-05,-6e-05,-5e-05,-9e-05,-0.0001,8e-05,-1e-05,3,6
11440,-0.00031,-4e-05,0,0,7e-05,0.0001,7e-05,-5e-05,3,6
11441,-0.00014,-3e-05,-2e-05,-2e-05,8e-05,-2e-05,-8e-05,8e-05,3,6
11442,-0.00014,-3e-05,-2e-05,-2e-05,8e-05,-2e-05,-8e-05,8e-05,3,6
11443,-0.00014,-3e-05,-2e-05,-2e-05,8e-05,-2e-05,-8e-05,8e-05,3,6
11444,-0.00014,-3e-05,-2e-05,-2e-05,8e-05,-2e-05,-8e-05,8e-05,3,6
11445,-0.00014,-3e-05,-2e-05,-2e-05,8e-05,-2e-05,-8e-05,8e-05,3,6
11446,-0.00014,-3e-05,-2e-05,-2e-05,8e-05,-2e-05,-8e-05,8e-05,3,6
11448,-0.00014,-3e-05,-2e-05,-2e-05,8e-05,-2e-05,-8e-05,8e-05,3,6
11449,-0.00014,-3e-05,-2e-05,-2e-05,8e-05,-2e-05,-8e-05,8e-05,3,6
11450,-0.00014,-3e-05,-2e-05,-2e-05,8e-05,-2e-05,-8e-05,8e-05,3,6
11451,-0.00014,-3e-05,-2e-05,-2e-05,8e-05,-2e-05,-8e-05,8e-05,3,6
11452,-0.00014,-3e-05,-2e-05,-2e-05,8e-05,-2e-05,-8e-05,8e-05,3,6
11453,-0.00014,-3e-05,-2e-05,-2e-05,8e-05,-2e-05,-8e-05,8e-05,3,6
11455,-0.00014,-3e-05,-2e-05,-2e-05,8e-05,-2e-05,-8e-05,8e-05,3,6
11456,-0.00014,-3e-05,-2e-05,-2e-05,8e-05,-2e-05,-8e-05,8e-05,3,6
11457,-0.00014,-3e-05,-2e-05,-2e-05,8e-05,-2e-05,-8e-05,8e-05,3,6
11458,-0.00014,-3e-05,-2e-05,-2e-05,8e-05,-2e-05,-8e-05,8e-05,3,6
11459,-0.00014,-3e-05,-2e-05,-2e-05,8e-05,-2e-05,-8e-05,8e-05,3,6
11460,-0.00014,-3e-05,-2e-05,-2e-05,8e-05,-2e-05,-8e-05,8e-05,3,6
11461,-0.00014,-3e-05,-2e-05,-2e-05,8e-05,-2e-05,-8e-05,8e-05,3,6
11462,-0.00014,-3e-05,-2e-05,-2e-05,8e-05,-2e-05,-8e-05,8e-05,3,6
11463,0.00032,9e-05,-2e-05,-1e-05,-2e-05,-1e-05,0.00016,0,3,6
11464,0.00032,9e-05,-2e-05,-1e-05,-2e-05,-1e-05,0.00016,0,3,6
11465,0.00032,9e-05,-2e-05,-1e-05,-2e-05,-1e-05,0.00016,0,3,6
11466,0.00032,9e-05,-2e-05,-1e-05,-2e-05,-1e-05,0.00016,0,3,6
11467,0.00032,9e-05,-2e-05,-1e-05,-2e-05,-1e-05,0.00016,0,3,6
11468,0.00032,9e-05,-2e-05,-1e-05,-2e-05,-1e-05,0.00016,0,3,6
11469,0.00032,9e-05,-2e-05,-1e-05,-2e-05,-1e-05,0.00016,0,3,6
11471,0.00032,9e-05,-2e-05,-1e-05,-2e-05,-1e-05,0.00016,0,3,6
11472,0.00032,9e-05,-2e-05,-1e-05,-2e-05,-1e-05,0.00016,0,3,6
11473,0.00032,9e-05,-2e-05,-1e-05,-2e-05,-1e-05,0.00016,0,3,6
11474,0.00032,9e-05,-2e-05,-1e-05,-2e-05,-1e-05,0.00016,0,3,6
11475,0.00032,9e-05,-2e-05,-1e-05,-2e-05,-1e-05,0.00016,0,3,6
11476,0.00032,9e-05,-2e-05,-1e-05,-2e-05,-1e-05,0.00016,0,3,6
11478,0.00032,9e-05,-2e-05,-1e-05,-2e-05,-1e-05,0.00016,0,3,6
11479,0.00032,9e-05,-2e-05,-1e-05,-2e-05,-1e-05,0.00016,0,3,6
11480,0.00032,9e-05,-2e-05,-1e-05,-2e-05,-1e-05,0.00016,0,3,6
11481,0.00032,9e-05,-2e-05,-1e-05,-2e-05,-1e-05,0.00016,0,3,6
11482,0.00032,9e-05,-2e-05,-1e-05,-2e-05,-1e-05,0.00016,0,3,6
11483,0.00032,9e-05,-2e-05,-1e-05,-2e-05,-1e-05,0.00016,0,3,6
11484,0.00032,9e-05,-2e-05,-1e-05,-2e-05,-1e-05,0.00016,0,3,6
11485,0.00018,0.00015,9e-05,0.0001,0.00012,0.00021,4e-05,0.00014,3,6
11486,0.00018,0.00015,9e-05,0.0001,0.00012,0.00021,4e-05,0.00014,3,6
11492,0.00018,0.00015,9e-05,0.0001,0.00012,0.00021,4e-05,0.00014,3,6
11493,0.00019,7e-05,6e-05,0,0,-6e-05,-0.00011,0.00013,3,6
11494,0.00019,7e-05,6e-05,0,0,-6e-05,-0.00011,0.00013,3,6
11495,0.00019,7e-05,6e-05,0,0,-6e-05,-0.00011,0.00013,3,6
11496,0.00019,7e-05,6e-05,0,0,-6e-05,-0.00011,0.00013,3,6
11497,0.00019,7e-05,6e-05,0,0,-6e-05,-0.00011,0.00013,3,6
11498,0.00019,7e-05,6e-05,0,0,-6e-05,-0.00011,0.00013,3,6
11499,-0.00043,-0.00024,-0.0001,-6e-05,-8e-05,2e-05,3e-05,-6e-05,3,6
11500,-0.00045,-0.00013,-9e-05,-8e-05,-7e-05,1e-05,4e-05,7e-05,3,6
11501,-0.00045,-0.00013,-9e-05,-8e-05,-7e-05,1e-05,4e-05,7e-05,3,6
11502,-0.00045,-0.00013,-9e-05,-8e-05,-7e-05,1e-05,4e-05,7e-05,3,6
11503,-0.00045,-0.00013,-9e-05,-8e-05,-7e-05,1e-05,4e-05,7e-05,3,6
11504,-0.00045,-0.00013,-9e-05,-8e-05,-7e-05,1e-05,4e-05,7e-05,3,6
11505,-0.00045,-0.00013,-9e-05,-8e-05,-7e-05,1e-05,4e-05,7e-05,3,6
11506,-0.00045,-0.00013,-9e-05,-8e-05,-7e-05,1e-05,4e-05,7e-05,3,6
11507,-0.00045,-0.00013,-9e-05,-8e-05,-7e-05,1e-05,4e-05,7e-05,3,6
11508,-0.00045,-0.00013,-9e-05,-8e-05,-7e-05,1e-05,4e-05,7e-05,3,6
11509,-0.00045,-0.00013,-9e-05,-8e-05,-7e-05,1e-05,4e-05,7e-05,3,6
11510,-0.00045,-0.00013,-9e-05,-8e-05,-7e-05,1e-05,4e-05,7e-05,3,6
11511,-0.00045,-0.00013,-9e-05,-8e-05,-7e-05,1e-05,4e-05,7e-05,3,6
11512,-0.00045,-0.00013,-9e-05,-8e-05,-7e-05,1e-05,4e-05,7e-05,3,6
11513,-0.00045,-0.00013,-9e-05,-8e-05,-7e-05,1e-05,4e-05,7e-05,3,6
11514,-0.00045,-0.00013,-9e-05,-8e-05,-7e-05,1e-05,4e-05,7e-05,3,6
11515,-0.00045,-0.00013,-9e-05,-8e-05,-7e-05,1e-05,4e-05,7e-05,3,6
11516,-0.00045,-0.00013,-9e-05,-8e-05,-7e-05,1e-05,4e-05,7e-05,3,6
11517,-0.00045,-0.00013,-9e-05,-8e-05,-7e-05,1e-05,4e-05,7e-05,3,6
11518,-0.00045,-0.00013,-9e-05,-8e-05,-7e-05,1e-05,4e-05,7e-05,3,6
11519,-0.00045,-0.00013,-9e-05,-8e-05,-7e-05,1e-05,4e-05,7e-05,3,6
11520,-0.00045,-0.00013,-9e-05,-8e-05,-7e-05,1e-05,4e-05,7e-05,3,6
11521,-0.00045,-0.00013,-9e-05,-8e-05,-7e-05,1e-05,4e-05,7e-05,3,6
11522,-0.00045,-0.00013,-9e-05,-8e-05,-7e-05,1e-05,4e-05,7e-05,3,6
11523,0.00018,-2e-05,-3e-05,-1e-05,1e-05,-0.00019,-0.00027,-7e-05,3,6
11524,0.00018,-2e-05,-3e-05,-1e-05,1e-05,-0.00019,-0.00027,-7e-05,3,6
11526,-9e-05,-0.00017,-5e-05,-4e-05,-2e-05,0,-3e-05,1e-05,3,6
11527,-9e-05,-0.00017,-5e-05,-4e-05,-2e-05,0,-3e-05,1e-05,3,6
11529,-9e-05,-0.00017,-5e-05,-4e-05,-2e-05,0,-3e-05,1e-05,3,6
11530,-9e-05,-0.00017,-5e-05,-4e-05,-2e-05,0,-3e-05,1e-05,3,6
11531,-9e-05,-0.00017,-5e-05,-4e-05,-2e-05,0,-3e-05,1e-05,3,6
11532,-9e-05,-0.00017,-5e-05,-4e-05,-2e-05,0,-3e-05,1e-05,3,6
11533,-9e-05,-0.00017,-5e-05,-4e-05,-2e-05,0,-3e-05,1e-05,3,6
11534,-9e-05,-0.00017,-5e-05,-4e-05,-2e-05,0,-3e-05,1e-05,3,6
11535,-9e-05,-0.00017,-5e-05,-4e-05,-2e-05,0,-3e-05,1e-05,3,6
11536,-9e-05,-0.00017,-5e-05,-4e-05,-2e-05,0,-3e-05,1e-05,3,6
11540,-9e-05,-0.00017,-5e-05,-4e-05,-2e-05,0,-3e-05,1e-05,3,6
11542,-9e-05,-0.00017,-5e-05,-4e-05,-2e-05,0,-3e-05,1e-05,3,6
11543,-9e-05,-0.00017,-5e-05,-4e-05,-2e-05,0,-3e-05,1e-05,3,6
11544,-9e-05,-0.00017,-5e-05,-4e-05,-2e-05,0,-3e-05,1e-05,3,6
11545,-9e-05,-0.00017,-5e-05,-4e-05,-2e-05,0,-3e-05,1e-05,3,6
11546,-9e-05,-0.00017,-5e-05,-4e-05,-2e-05,0,-3e-05,1e-05,3,6
11547,-9e-05,-0.00017,-5e-05,-4e-05,-2e-05,0,-3e-05,1e-05,3,6
11548,-9e-05,-0.00017,-5e-05,-4e-05,-2e-05,0,-3e-05,1e-05,3,6
11549,-9e-05,-0.00017,-5e-05,-4e-05,-2e-05,0,-3e-05,1e-05,3,6
11550,-9e-05,-0.00017,-5e-05,-4e-05,-2e-05,0,-3e-05,1e-05,3,6
11551,-9e-05,-0.00017,-5e-05,-4e-05,-2e-05,0,-3e-05,1e-05,3,6
11552,-0.0001,-3e-05,-5e-05,-6e-05,-3e-05,-0.00014,2e-05,-0.00018,3,6
11553,0.00016,8e-05,0,0,-0.00011,-0.00027,-0.00017,-0.00017,3,6
11555,0.00016,8e-05,0,0,-0.00011,-0.00027,-0.00017,-0.00017,3,6
11556,0.00016,8e-05,0,0,-0.00011,-0.00027,-0.00017,-0.00017,3,6
11557,0.00016,8e-05,0,0,-0.00011,-0.00027,-0.00017,-0.00017,3,6
11558,0.00016,8e-05,0,0,-0.00011,-0.00027,-0.00017,-0.00017,3,6
11559,0.00016,8e-05,0,0,-0.00011,-0.00027,-0.00017,-0.00017,3,6
11560,0.00016,8e-05,0,0,-0.00011,-0.00027,-0.00017,-0.00017,3,6
11561,0.00016,8e-05,0,0,-0.00011,-0.00027,-0.00017,-0.00017,3,6
11562,1e-05,0,-5e-05,-8e-05,-0.00012,-0.00014,0.00013,0.00011,3,6
11563,-8e-05,3e-05,-1e-05,-6e-05,-4e-05,0.00031,1e-05,-7e-05,3,6
11564,-8e-05,3e-05,-1e-05,-6e-05,-4e-05,0.00031,1e-05,-7e-05,3,6
11565,-8e-05,3e-05,-1e-05,-6e-05,-4e-05,0.00031,1e-05,-7e-05,3,6
11566,-8e-05,3e-05,-1e-05,-6e-05,-4e-05,0.00031,1e-05,-7e-05,3,6
11567,-8e-05,3e-05,-1e-05,-6e-05,-4e-05,0.00031,1e-05,-7e-05,3,6
11568,-8e-05,3e-05,-1e-05,-6e-05,-4e-05,0.00031,1e-05,-7e-05,3,6
11569,-8e-05,3e-05,-1e-05,-6e-05,-4e-05,0.00031,1e-05,-7e-05,3,6
11570,-8e-05,3e-05,-1e-05,-6e-05,-4e-05,0.00031,1e-05,-7e-05,3,6
11573,-8e-05,3e-05,-1e-05,-6e-05,-4e-05,0.00031,1e-05,-7e-05,3,6
11574,-8e-05,3e-05,-1e-05,-6e-05,-4e-05,0.00031,1e-05,-7e-05,3,6
11575,-8e-05,3e-05,-1e-05,-6e-05,-4e-05,0.00031,1e-05,-7e-05,3,6
11576,-8e-05,3e-05,-1e-05,-6e-05,-4e-05,0.00031,1e-05,-7e-05,3,6
11577,-8e-05,3e-05,-1e-05,-6e-05,-4e-05,0.00031,1e-05,-7e-05,3,6
11578,-8e-05,3e-05,-1e-05,-6e-05,-4e-05,0.00031,1e-05,-7e-05,3,6
11579,-8e-05,3e-05,-1e-05,-6e-05,-4e-05,0.00031,1e-05,-7e-05,3,6
11580,-8e-05,3e-05,-1e-05,-6e-05,-4e-05,0.00031,1e-05,-7e-05,3,6
11581,-8e-05,3e-05,-1e-05,-6e-05,-4e-05,0.00031,1e-05,-7e-05,3,6
11582,-8e-05,3e-05,-1e-05,-6e-05,-4e-05,0.00031,1e-05,-7e-05,3,6
11583,-8e-05,3e-05,-1e-05,-6e-05,-4e-05,0.00031,1e-05,-7e-05,3,6
11584,-8e-05,3e-05,-1e-05,-6e-05,-4e-05,0.00031,1e-05,-7e-05,3,6
11585,-8e-05,3e-05,-1e-05,-6e-05,-4e-05,0.00031,1e-05,-7e-05,3,6
11586,-8e-05,3e-05,-1e-05,-6e-05,-4e-05,0.00031,1e-05,-7e-05,3,6
11590,-8e-05,3e-05,-1e-05,-6e-05,-4e-05,0.00031,1e-05,-7e-05,3,6
11592,-8e-05,3e-05,-1e-05,-6e-05,-4e-05,0.00031,1e-05,-7e-05,3,6
11593,-8e-05,3e-05,-1e-05,-6e-05,-4e-05,0.00031,1e-05,-7e-05,3,6
11594,-8e-05,3e-05,-1e-05,-6e-05,-4e-05,0.00031,1e-05,-7e-05,3,6
11595,-8e-05,3e-05,-1e-05,-6e-05,-4e-05,0.00031,1e-05,-7e-05,3,6
11596,-8e-05,3e-05,-1e-05,-6e-05,-4e-05,0.00031,1e-05,-7e-05,3,6
11597,-8e-05,3e-05,-1e-05,-6e-05,-4e-05,0.00031,1e-05,-7e-05,3,6
11598,-7e-05,-1e-05,-2e-05,0,0,-6e-05,-1e-05,-3e-05,3,6
11599,-7e-05,-1e-05,-2e-05,0,0,-6e-05,-1e-05,-3e-05,3,6
11600,-7e-05,-1e-05,-2e-05,0,0,-6e-05,-1e-05,-3e-05,3,6
11601,-7e-05,-1e-05,-2e-05,0,0,-6e-05,-1e-05,-3e-05,3,6
11602,-7e-05,-1e-05,-2e-05,0,0,-6e-05,-1e-05,-3e-05,3,6
11603,-7e-05,-1e-05,-2e-05,0,0,-6e-05,-1e-05,-3e-05,3,6
11605,-7e-05,-1e-05,-2e-05,0,0,-6e-05,-1e-05,-3e-05,3,6
11606,-0.00015,-0.0001,-5e-05,-1e-05,-4e-05,-1e-05,-0.0001,-0.00017,3,6
11607,-0.00015,-0.0001,-5e-05,-1e-05,-4e-05,-1e-05,-0.0001,-0.00017,3,6
11608,-0.00015,-0.0001,-5e-05,-1e-05,-4e-05,-1e-05,-0.0001,-0.00017,3,6
11609,-0.00015,-0.0001,-5e-05,-1e-05,-4e-05,-1e-05,-0.0001,-0.00017,3,6
11610,-0.00015,-0.0001,-5e-05,-1e-05,-4e-05,-1e-05,-0.0001,-0.00017,3,6
11611,-0.00015,-0.0001,-5e-05,-1e-05,-4e-05,-1e-05,-0.0001,-0.00017,3,6
11612,-0.00015,-0.0001,-5e-05,-1e-05,-4e-05,-1e-05,-0.0001,-0.00017,3,6
11613,-0.00015,-0.0001,-5e-05,-1e-05,-4e-05,-1e-05,-0.0001,-0.00017,3,6
11614,-0.00015,-0.0001,-5e-05,-1e-05,-4e-05,-1e-05,-0.0001,-0.00017,3,6
11615,-0.00015,-0.0001,-5e-05,-1e-05,-4e-05,-1e-05,-0.0001,-0.00017,3,6
11616,-0.00015,-0.0001,-5e-05,-1e-05,-4e-05,-1e-05,-0.0001,-0.00017,3,6
11617,-0.00015,-0.0001,-5e-05,-1e-05,-4e-05,-1e-05,-0.0001,-0.00017,3,6
11618,-0.00015,-0.0001,-5e-05,-1e-05,-4e-05,-1e-05,-0.0001,-0.00017,3,6
11619,-0.00015,-0.0001,-5e-05,-1e-05,-4e-05,-1e-05,-0.0001,-0.00017,3,6
11620,-0.00019,4e-05,1e-05,2e-05,-2e-05,1e-05,-0.00017,-1e-05,3,6
11622,-0.00019,4e-05,1e-05,2e-05,-2e-05,1e-05,-0.00017,-1e-05,3,6
11623,8e-05,3e-05,2e-05,2e-05,3e-05,3e-05,-1e-05,0.00013,3,6
11624,8e-05,3e-05,2e-05,2e-05,3e-05,3e-05,-1e-05,0.00013,3,6
11625,8e-05,3e-05,2e-05,2e-05,3e-05,3e-05,-1e-05,0.00013,3,6
11626,8e-05,3e-05,2e-05,2e-05,3e-05,3e-05,-1e-05,0.00013,3,6
11627,8e-05,3e-05,2e-05,2e-05,3e-05,3e-05,-1e-05,0.00013,3,6
11628,8e-05,3e-05,2e-05,2e-05,3e-05,3e-05,-1e-05,0.00013,3,6
11629,8e-05,3e-05,2e-05,2e-05,3e-05,3e-05,-1e-05,0.00013,3,6
11630,8e-05,3e-05,2e-05,2e-05,3e-05,3e-05,-1e-05,0.00013,3,6
11631,8e-05,3e-05,2e-05,2e-05,3e-05,3e-05,-1e-05,0.00013,3,6
11632,8e-05,3e-05,2e-05,2e-05,3e-05,3e-05,-1e-05,0.00013,3,6
11633,8e-05,3e-05,2e-05,2e-05,3e-05,3e-05,-1e-05,0.00013,3,6
11634,8e-05,3e-05,2e-05,2e-05,3e-05,3e-05,-1e-05,0.00013,3,6
11635,8e-05,3e-05,2e-05,2e-05,3e-05,3e-05,-1e-05,0.00013,3,6
11636,8e-05,3e-05,2e-05,2e-05,3e-05,3e-05,-1e-05,0.00013,3,6
11640,8e-05,3e-05,2e-05,2e-05,3e-05,3e-05,-1e-05,0.00013,3,6
11642,8e-05,3e-05,2e-05,2e-05,3e-05,3e-05,-1e-05,0.00013,3,6
11643,8e-05,3e-05,2e-05,2e-05,3e-05,3e-05,-1e-05,0.00013,3,6
11644,8e-05,3e-05,2e-05,2e-05,3e-05,3e-05,-1e-05,0.00013,3,6
11645,8e-05,3e-05,2e-05,2e-05,3e-05,3e-05,-1e-05,0.00013,3,6
11646,8e-05,3e-05,2e-05,2e-05,3e-05,3e-05,-1e-05,0.00013,3,6
11647,8e-05,3e-05,2e-05,2e-05,3e-05,3e-05,-1e-05,0.00013,3,6
11648,8e-05,3e-05,2e-05,2e-05,3e-05,3e-05,-1e-05,0.00013,3,6
11649,8e-05,3e-05,2e-05,2e-05,3e-05,3e-05,-1e-05,0.00013,3,6
11650,-0.00015,-4e-05,0,1e-05,2e-05,7e-05,5e-05,2e-05,3,6
11651,5e-05,-5e-05,0,6e-05,5e-05,0,-9e-05,-8e-05,3,6
11652,5e-05,-5e-05,0,6e-05,5e-05,0,-9e-05,-8e-05,3,6
11653,5e-05,-5e-05,0,6e-05,5e-05,0,-9e-05,-8e-05,3,6
11654,5e-05,-5e-05,0,6e-05,5e-05,0,-9e-05,-8e-05,3,6
11656,5e-05,-5e-05,0,6e-05,5e-05,0,-9e-05,-8e-05,3,6
11657,5e-05,-5e-05,0,6e-05,5e-05,0,-9e-05,-8e-05,3,6
11658,5e-05,-5e-05,0,6e-05,5e-05,0,-9e-05,-8e-05,3,6
11659,5e-05,-5e-05,0,6e-05,5e-05,0,-9e-05,-8e-05,3,6
11660,5e-05,-5e-05,0,6e-05,5e-05,0,-9e-05,-8e-05,3,6
11661,5e-05,-5e-05,0,6e-05,5e-05,0,-9e-05,-8e-05,3,6
11662,5e-05,-5e-05,0,6e-05,5e-05,0,-9e-05,-8e-05,3,6
11663,5e-05,-5e-05,0,6e-05,5e-05,0,-9e-05,-8e-05,3,6
11664,5e-05,-5e-05,0,6e-05,5e-05,0,-9e-05,-8e-05,3,6
11665,-9e-05,-5e-05,2e-05,-4e-05,-2e-05,0.00014,8e-05,-7e-05,3,6
11666,-0.00026,-3e-05,-2e-05,-2e-05,-3e-05,-0.00019,-0.00013,-0.00016,3,6
11667,-0.00026,-3e-05,-2e-05,-2e-05,-3e-05,-0.00019,-0.00013,-0.00016,3,6
11668,-0.00026,-3e-05,-2e-05,-2e-05,-3e-05,-0.00019,-0.00013,-0.00016,3,6
11669,-0.00026,-3e-05,-2e-05,-2e-05,-3e-05,-0.00019,-0.00013,-0.00016,3,6
11670,-0.00026,-3e-05,-2e-05,-2e-05,-3e-05,-0.00019,-0.00013,-0.00016,3,6
11671,-0.00026,-3e-05,-2e-05,-2e-05,-3e-05,-0.00019,-0.00013,-0.00016,3,6
11672,-0.00026,-3e-05,-2e-05,-2e-05,-3e-05,-0.00019,-0.00013,-0.00016,3,6
11673,-0.00026,-3e-05,-2e-05,-2e-05,-3e-05,-0.00019,-0.00013,-0.00016,3,6
11674,-0.00026,-3e-05,-2e-05,-2e-05,-3e-05,-0.00019,-0.00013,-0.00016,3,6
11675,-0.00026,-3e-05,-2e-05,-2e-05,-3e-05,-0.00019,-0.00013,-0.00016,3,6
11676,-0.00026,-3e-05,-2e-05,-2e-05,-3e-05,-0.00019,-0.00013,-0.00016,3,6
11677,-0.00026,-3e-05,-2e-05,-2e-05,-3e-05,-0.00019,-0.00013,-0.00016,3,6
11678,-0.00026,-3e-05,-2e-05,-2e-05,-3e-05,-0.00019,-0.00013,-0.00016,3,6
11679,-0.00026,-3e-05,-2e-05,-2e-05,-3e-05,-0.00019,-0.00013,-0.00016,3,6
11680,-0.00026,-3e-05,-2e-05,-2e-05,-3e-05,-0.00019,-0.00013,-0.00016,3,6
11681,-0.00026,-3e-05,-2e-05,-2e-05,-3e-05,-0.00019,-0.00013,-0.00016,3,6
11682,-0.00026,-3e-05,-2e-05,-2e-05,-3e-05,-0.00019,-0.00013,-0.00016,3,6
11683,-0.00026,-3e-05,-2e-05,-2e-05,-3e-05,-0.00019,-0.00013,-0.00016,3,6
11684,-0.00026,-3e-05,-2e-05,-2e-05,-3e-05,-0.00019,-0.00013,-0.00016,3,6
11685,-0.00026,-3e-05,-2e-05,-2e-05,-3e-05,-0.00019,-0.00013,-0.00016,3,6
11686,-0.00026,-3e-05,-2e-05,-2e-05,-3e-05,-0.00019,-0.00013,-0.00016,3,6
11689,-0.00026,-3e-05,-2e-05,-2e-05,-3e-05,-0.00019,-0.00013,-0.00016,3,6
11690,-0.00026,-3e-05,-2e-05,-2e-05,-3e-05,-0.00019,-0.00013,-0.00016,3,6
11691,3e-05,-4e-05,-2e-05,-2e-05,-1e-05,-3e-05,-6e-05,2e-05,3,6
11692,3e-05,-4e-05,-2e-05,-2e-05,-1e-05,-3e-05,-6e-05,2e-05,3,6
11693,3e-05,-4e-05,-2e-05,-2e-05,-1e-05,-3e-05,-6e-05,2e-05,3,6
11694,3e-05,-4e-05,-2e-05,-2e-05,-1e-05,-3e-05,-6e-05,2e-05,3,6
11695,3e-05,-4e-05,-2e-05,-2e-05,-1e-05,-3e-05,-6e-05,2e-05,3,6
11696,3e-05,-4e-05,-2e-05,-2e-05,-1e-05,-3e-05,-6e-05,2e-05,3,6
11697,3e-05,-4e-05,-2e-05,-2e-05,-1e-05,-3e-05,-6e-05,2e-05,3,6
11698,3e-05,-4e-05,-2e-05,-2e-05,-1e-05,-3e-05,-6e-05,2e-05,3,6
11699,3e-05,-4e-05,-2e-05,-2e-05,-1e-05,-3e-05,-6e-05,2e-05,3,6
11700,3e-05,-4e-05,-2e-05,-2e-05,-1e-05,-3e-05,-6e-05,2e-05,3,6
11701,3e-05,-4e-05,-2e-05,-2e-05,-1e-05,-3e-05,-6e-05,2e-05,3,6
11702,3e-05,-4e-05,-2e-05,-2e-05,-1e-05,-3e-05,-6e-05,2e-05,3,6
11703,3e-05,-4e-05,-2e-05,-2e-05,-1e-05,-3e-05,-6e-05,2e-05,3,6
11705,-0.00017,-4e-05,-3e-05,-4e-05,-3e-05,7e-05,4e-05,8e-05,3,6
11706,-5e-05,-5e-05,0,-1e-05,4e-05,0.00017,0.00012,3e-05,3,6
11707,-5e-05,-5e-05,0,-1e-05,4e-05,0.00017,0.00012,3e-05,3,6
11708,-5e-05,-5e-05,0,-1e-05,4e-05,0.00017,0.00012,3e-05,3,6
11709,-5e-05,-5e-05,0,-1e-05,4e-05,0.00017,0.00012,3e-05,3,6
11710,-5e-05,-5e-05,0,-1e-05,4e-05,0.00017,0.00012,3e-05,3,6
11711,-5e-05,-5e-05,0,-1e-05,4e-05,0.00017,0.00012,3e-05,3,6
11712,-5e-05,-5e-05,0,-1e-05,4e-05,0.00017,0.00012,3e-05,3,6
11713,-5e-05,-5e-05,0,-1e-05,4e-05,0.00017,0.00012,3e-05,3,6
11714,-5e-05,-5e-05,0,-1e-05,4e-05,0.00017,0.00012,3e-05,3,6
11715,-5e-05,-5e-05,0,-1e-05,4e-05,0.00017,0.00012,3e-05,3,6
11716,-5e-05,-5e-05,0,-1e-05,4e-05,0.00017,0.00012,3e-05,3,6
11717,-5e-05,-5e-05,0,-1e-05,4e-05,0.00017,0.00012,3e-05,3,6
11718,-5e-05,-5e-05,0,-1e-05,4e-05,0.00017,0.00012,3e-05,3,6
11719,-5e-05,-5e-05,0,-1e-05,4e-05,0.00017,0.00012,3e-05,3,6
11720,-5e-05,-5e-05,0,-1e-05,4e-05,0.00017,0.00012,3e-05,3,6
11722,-5e-05,-5e-05,0,-1e-05,4e-05,0.00017,0.00012,3e-05,3,6
11723,-5e-05,-5e-05,0,-1e-05,4e-05,0.00017,0.00012,3e-05,3,6
11724,-5e-05,-5e-05,0,-1e-05,4e-05,0.00017,0.00012,3e-05,3,6
11725,-1e-05,1e-05,1e-05,-4e-05,-1e-05,6e-05,0,-1e-05,3,6
11726,7e-05,-2e-05,-1e-05,-3e-05,-3e-05,-6e-05,-6e-05,-1e-05,3,6
11727,0.00021,8e-05,0,-5e-05,-9e-05,-0.0001,-0.00014,7e-05,3,6
11728,-3e-05,1e-05,2e-05,2e-05,5e-05,0.00011,0.00026,-2e-05,3,6
11729,-3e-05,1e-05,2e-05,2e-05,5e-05,0.00011,0.00026,-2e-05,3,6
11730,-3e-05,1e-05,2e-05,2e-05,5e-05,0.00011,0.00026,-2e-05,3,6
11731,-3e-05,1e-05,2e-05,2e-05,5e-05,0.00011,0.00026,-2e-05,3,6
11732,-3e-05,1e-05,2e-05,2e-05,5e-05,0.00011,0.00026,-2e-05,3,6
11733,-3e-05,1e-05,2e-05,2e-05,5e-05,0.00011,0.00026,-2e-05,3,6
11734,-3e-05,1e-05,2e-05,2e-05,5e-05,0.00011,0.00026,-2e-05,3,6
11735,-3e-05,1e-05,2e-05,2e-05,5e-05,0.00011,0.00026,-2e-05,3,6
11736,-3e-05,1e-05,2e-05,2e-05,5e-05,0.00011,0.00026,-2e-05,3,6
11738,-3e-05,1e-05,2e-05,2e-05,5e-05,0.00011,0.00026,-2e-05,3,6
11741,-3e-05,1e-05,2e-05,2e-05,5e-05,0.00011,0.00026,-2e-05,3,6
11742,-3e-05,1e-05,2e-05,2e-05,5e-05,0.00011,0.00026,-2e-05,3,6
11743,-3e-05,1e-05,2e-05,2e-05,5e-05,0.00011,0.00026,-2e-05,3,6
11744,-3e-05,1e-05,2e-05,2e-05,5e-05,0.00011,0.00026,-2e-05,3,6
11745,-3e-05,1e-05,2e-05,2e-05,5e-05,0.00011,0.00026,-2e-05,3,6
11746,-3e-05,1e-05,2e-05,2e-05,5e-05,0.00011,0.00026,-2e-05,3,6
11747,-3e-05,1e-05,2e-05,2e-05,5e-05,0.00011,0.00026,-2e-05,3,6
11748,-3e-05,1e-05,2e-05,2e-05,5e-05,0.00011,0.00026,-2e-05,3,6
11749,-3e-05,1e-05,2e-05,2e-05,5e-05,0.00011,0.00026,-2e-05,3,6
11750,-3e-05,1e-05,2e-05,2e-05,5e-05,0.00011,0.00026,-2e-05,3,6
11751,-3e-05,1e-05,2e-05,2e-05,5e-05,0.00011,0.00026,-2e-05,3,6
11752,-3e-05,1e-05,2e-05,2e-05,5e-05,0.00011,0.00026,-2e-05,3,6
11753,-3e-05,1e-05,2e-05,2e-05,5e-05,0.00011,0.00026,-2e-05,3,6
11754,-3e-05,1e-05,2e-05,2e-05,5e-05,0.00011,0.00026,-2e-05,3,6
11756,-3e-05,1e-05,2e-05,2e-05,5e-05,0.00011,0.00026,-2e-05,3,6
11757,-3e-05,1e-05,2e-05,2e-05,5e-05,0.00011,0.00026,-2e-05,3,6
11758,-3e-05,1e-05,2e-05,2e-05,5e-05,0.00011,0.00026,-2e-05,3,6
11759,-3e-05,1e-05,2e-05,2e-05,5e-05,0.00011,0.00026,-2e-05,3,6
11760,-3e-05,1e-05,2e-05,2e-05,5e-05,0.00011,0.00026,-2e-05,3,6
11761,-3e-05,1e-05,2e-05,2e-05,5e-05,0.00011,0.00026,-2e-05,3,6
11762,-3e-05,1e-05,2e-05,2e-05,5e-05,0.00011,0.00026,-2e-05,3,6
11763,-3e-05,1e-05,2e-05,2e-05,5e-05,0.00011,0.00026,-2e-05,3,6
11764,0.00025,5e-05,0,-2e-05,-2e-05,4e-05,4e-05,0.00016,3,6
11765,9e-05,8e-05,2e-05,2e-05,5e-05,-3e-05,1e-05,2e-05,3,6
11766,-0.0003,-3e-05,-2e-05,3e-05,1e-05,-9e-05,-0.0001,-0.00024,3,6
11767,-0.0003,-3e-05,-2e-05,3e-05,1e-05,-9e-05,-0.0001,-0.00024,3,6
11768,-0.0003,-3e-05,-2e-05,3e-05,1e-05,-9e-05,-0.0001,-0.00024,3,6
11769,-0.0003,-3e-05,-2e-05,3e-05,1e-05,-9e-05,-0.0001,-0.00024,3,6
11770,5e-05,1e-05,0,0,-4e-05,-5e-05,-0.0001,1e-05,3,6
11771,5e-05,1e-05,0,0,-4e-05,-5e-05,-0.0001,1e-05,3,6
11773,5e-05,1e-05,0,0,-4e-05,-5e-05,-0.0001,1e-05,3,6
11776,5e-05,1e-05,0,0,-4e-05,-5e-05,-0.0001,1e-05,3,6
11777,5e-05,1e-05,0,0,-4e-05,-5e-05,-0.0001,1e-05,3,6
11778,5e-05,1e-05,0,0,-4e-05,-5e-05,-0.0001,1e-05,3,6
11779,5e-05,1e-05,0,0,-4e-05,-5e-05,-0.0001,1e-05,3,6
11780,5e-05,1e-05,0,0,-4e-05,-5e-05,-0.0001,1e-05,3,6
11781,5e-05,1e-05,0,0,-4e-05,-5e-05,-0.0001,1e-05,3,6
11782,5e-05,1e-05,0,0,-4e-05,-5e-05,-0.0001,1e-05,3,6
11783,5e-05,1e-05,0,0,-4e-05,-5e-05,-0.0001,1e-05,3,6
11784,5e-05,1e-05,0,0,-4e-05,-5e-05,-0.0001,1e-05,3,6
11785,5e-05,3e-05,-5e-05,-4e-05,-1e-05,-0.00018,-0.0001,-3e-05,3,6
11786,0.00031,6e-05,3e-05,2e-05,6e-05,0.00015,0.00012,-2e-05,3,6
11789,0.00031,6e-05,3e-05,2e-05,6e-05,0.00015,0.00012,-2e-05,3,6
11793,0.00031,6e-05,3e-05,2e-05,6e-05,0.00015,0.00012,-2e-05,3,6
11794,0.00031,6e-05,3e-05,2e-05,6e-05,0.00015,0.00012,-2e-05,3,6
11795,0.00031,6e-05,3e-05,2e-05,6e-05,0.00015,0.00012,-2e-05,3,6
11796,0.00031,6e-05,3e-05,2e-05,6e-05,0.00015,0.00012,-2e-05,3,6
11797,0.00031,6e-05,3e-05,2e-05,6e-05,0.00015,0.00012,-2e-05,3,6
11798,0.00031,6e-05,3e-05,2e-05,6e-05,0.00015,0.00012,-2e-05,3,6
11799,0.00031,6e-05,3e-05,2e-05,6e-05,0.00015,0.00012,-2e-05,3,6
11800,0.00031,6e-05,3e-05,2e-05,6e-05,0.00015,0.00012,-2e-05,3,6
11801,0.00031,6e-05,3e-05,2e-05,6e-05,0.00015,0.00012,-2e-05,3,6
11802,0.00031,6e-05,3e-05,2e-05,6e-05,0.00015,0.00012,-2e-05,3,6
11803,0.00031,6e-05,3e-05,2e-05,6e-05,0.00015,0.00012,-2e-05,3,6
11804,0.00031,6e-05,3e-05,2e-05,6e-05,0.00015,0.00012,-2e-05,3,6
11807,0.00031,6e-05,3e-05,2e-05,6e-05,0.00015,0.00012,-2e-05,3,6
11808,0.00031,6e-05,3e-05,2e-05,6e-05,0.00015,0.00012,-2e-05,3,6
11809,0.00031,6e-05,3e-05,2e-05,6e-05,0.00015,0.00012,-2e-05,3,6
11810,0.00031,6e-05,3e-05,2e-05,6e-05,0.00015,0.00012,-2e-05,3,6
11811,0.00031,6e-05,3e-05,2e-05,6e-05,0.00015,0.00012,-2e-05,3,6
11812,0.00031,6e-05,3e-05,2e-05,6e-05,0.00015,0.00012,-2e-05,3,6
11813,0.00031,6e-05,3e-05,2e-05,6e-05,0.00015,0.00012,-2e-05,3,6
11814,0.00031,6e-05,3e-05,2e-05,6e-05,0.00015,0.00012,-2e-05,3,6
11815,8e-05,-2e-05,-6e-05,1e-05,1e-05,-3e-05,-3e-05,3e-05,3,6
11816,8e-05,-2e-05,-6e-05,1e-05,1e-05,-3e-05,-3e-05,3e-05,3,6
11817,0.00013,1e-05,-7e-05,-8e-05,1e-05,-0.0001,6e-05,0.00024,3,6
11818,0.00013,1e-05,-7e-05,-8e-05,1e-05,-0.0001,6e-05,0.00024,3,6
11819,0.00013,1e-05,-7e-05,-8e-05,1e-05,-0.0001,6e-05,0.00024,3,6
11820,0.00013,1e-05,-7e-05,-8e-05,1e-05,-0.0001,6e-05,0.00024,3,6
11821,0.00013,1e-05,-7e-05,-8e-05,1e-05,-0.0001,6e-05,0.00024,3,6
11825,0.00013,1e-05,-7e-05,-8e-05,1e-05,-0.0001,6e-05,0.00024,3,6
11826,-8e-05,-7e-05,-5e-05,-6e-05,-8e-05,-3e-05,-0.00014,-4e-05,3,6
11827,-8e-05,-7e-05,-5e-05,-6e-05,-8e-05,-3e-05,-0.00014,-4e-05,3,6
11828,-8e-05,-7e-05,-5e-05,-6e-05,-8e-05,-3e-05,-0.00014,-4e-05,3,6
11829,-8e-05,-7e-05,-5e-05,-6e-05,-8e-05,-3e-05,-0.00014,-4e-05,3,6
11830,-8e-05,-7e-05,-5e-05,-6e-05,-8e-05,-3e-05,-0.00014,-4e-05,3,6
11831,-8e-05,-7e-05,-5e-05,-6e-05,-8e-05,-3e-05,-0.00014,-4e-05,3,6
11832,-8e-05,-7e-05,-5e-05,-6e-05,-8e-05,-3e-05,-0.00014,-4e-05,3,6
11833,-8e-05,-7e-05,-5e-05,-6e-05,-8e-05,-3e-05,-0.00014,-4e-05,3,6
11834,-8e-05,-7e-05,-5e-05,-6e-05,-8e-05,-3e-05,-0.00014,-4e-05,3,6
11835,-8e-05,-7e-05,-5e-05,-6e-05,-8e-05,-3e-05,-0.00014,-4e-05,3,6
11836,-8e-05,-7e-05,-5e-05,-6e-05,-8e-05,-3e-05,-0.00014,-4e-05,3,6
11838,-8e-05,-7e-05,-5e-05,-6e-05,-8e-05,-3e-05,-0.00014,-4e-05,3,6
11839,-8e-05,-7e-05,-5e-05,-6e-05,-8e-05,-3e-05,-0.00014,-4e-05,3,6
11841,-8e-05,-7e-05,-5e-05,-6e-05,-8e-05,-3e-05,-0.00014,-4e-05,3,6
11842,-8e-05,-7e-05,-5e-05,-6e-05,-8e-05,-3e-05,-0.00014,-4e-05,3,6
11843,-8e-05,-7e-05,-5e-05,-6e-05,-8e-05,-3e-05,-0.00014,-4e-05,3,6
11844,-8e-05,-7e-05,-5e-05,-6e-05,-8e-05,-3e-05,-0.00014,-4e-05,3,6
11845,-8e-05,-7e-05,-5e-05,-6e-05,-8e-05,-3e-05,-0.00014,-4e-05,3,6
11846,-8e-05,-7e-05,-5e-05,-6e-05,-8e-05,-3e-05,-0.00014,-4e-05,3,6
11847,-8e-05,-7e-05,-5e-05,-6e-05,-8e-05,-3e-05,-0.00014,-4e-05,3,6
11848,-8e-05,-7e-05,-5e-05,-6e-05,-8e-05,-3e-05,-0.00014,-4e-05,3,6
11849,-8e-05,-7e-05,-5e-05,-6e-05,-8e-05,-3e-05,-0.00014,-4e-05,3,6
11850,-8e-05,-7e-05,-5e-05,-6e-05,-8e-05,-3e-05,-0.00014,-4e-05,3,6
11851,-8e-05,-7e-05,-5e-05,-6e-05,-8e-05,-3e-05,-0.00014,-4e-05,3,6
11852,-8e-05,-7e-05,-5e-05,-6e-05,-8e-05,-3e-05,-0.00014,-4e-05,3,6
11853,0.00015,4e-05,2e-05,3e-05,2e-05,-7e-05,-2e-05,0.00011,3,6
11854,0.00015,4e-05,2e-05,3e-05,2e-05,-7e-05,-2e-05,0.00011,3,6
11857,-0.00016,-4e-05,4e-05,4e-05,0,-3e-05,-2e-05,2e-05,3,6
11858,-0.00016,-4e-05,4e-05,4e-05,0,-3e-05,-2e-05,2e-05,3,6
11859,-0.00016,-4e-05,4e-05,4e-05,0,-3e-05,-2e-05,2e-05,3,6
11860,-0.00016,-4e-05,4e-05,4e-05,0,-3e-05,-2e-05,2e-05,3,6
11861,-0.00016,-4e-05,4e-05,4e-05,0,-3e-05,-2e-05,2e-05,3,6
11862,-0.00016,-4e-05,4e-05,4e-05,0,-3e-05,-2e-05,2e-05,3,6
11863,-0.00016,-4e-05,4e-05,4e-05,0,-3e-05,-2e-05,2e-05,3,6
11864,-0.00016,-4e-05,4e-05,4e-05,0,-3e-05,-2e-05,2e-05,3,6
11865,-0.00016,-4e-05,4e-05,4e-05,0,-3e-05,-2e-05,2e-05,3,6
11866,-0.00016,-4e-05,4e-05,4e-05,0,-3e-05,-2e-05,2e-05,3,6
11867,-0.00016,-4e-05,4e-05,4e-05,0,-3e-05,-2e-05,2e-05,3,6
11868,4e-05,1e-05,-3e-05,-5e-05,-2e-05,0.00016,0.00014,0.00021,3,6
11869,4e-05,1e-05,-3e-05,-5e-05,-2e-05,0.00016,0.00014,0.00021,3,6
11870,4e-05,1e-05,-3e-05,-5e-05,-2e-05,0.00016,0.00014,0.00021,3,6
11871,4e-05,1e-05,-3e-05,-5e-05,-2e-05,0.00016,0.00014,0.00021,3,6
11872,4e-05,1e-05,-3e-05,-5e-05,-2e-05,0.00016,0.00014,0.00021,3,6
11873,4e-05,1e-05,-3e-05,-5e-05,-2e-05,0.00016,0.00014,0.00021,3,6
11874,4e-05,1e-05,-3e-05,-5e-05,-2e-05,0.00016,0.00014,0.00021,3,6
11875,4e-05,1e-05,-3e-05,-5e-05,-2e-05,0.00016,0.00014,0.00021,3,6
11876,0.00029,0.00013,5e-05,-3e-05,2e-05,0.00012,2e-05,-6e-05,3,6
11877,0.00029,0.00013,5e-05,-3e-05,2e-05,0.00012,2e-05,-6e-05,3,6
11878,0.00029,0.00013,5e-05,-3e-05,2e-05,0.00012,2e-05,-6e-05,3,6
11879,0.00029,0.00013,5e-05,-3e-05,2e-05,0.00012,2e-05,-6e-05,3,6
11880,0.00029,0.00013,5e-05,-3e-05,2e-05,0.00012,2e-05,-6e-05,3,6
11881,0.00029,0.00013,5e-05,-3e-05,2e-05,0.00012,2e-05,-6e-05,3,6
11882,0.00029,0.00013,5e-05,-3e-05,2e-05,0.00012,2e-05,-6e-05,3,6
11883,0.00013,3e-05,1e-05,-1e-05,-0.0001,-7e-05,-7e-05,5e-05,3,6
11884,-1e-05,-1e-05,-2e-05,-3e-05,-8e-05,-0.00014,-0.00011,-1e-05,3,6
11885,-1e-05,-1e-05,-2e-05,-3e-05,-8e-05,-0.00014,-0.00011,-1e-05,3,6
11886,-1e-05,-1e-05,-2e-05,-3e-05,-8e-05,-0.00014,-0.00011,-1e-05,3,6
11888,-1e-05,-1e-05,-2e-05,-3e-05,-8e-05,-0.00014,-0.00011,-1e-05,3,6
11890,-1e-05,-1e-05,-2e-05,-3e-05,-8e-05,-0.00014,-0.00011,-1e-05,3,6
11891,-1e-05,-1e-05,-2e-05,-3e-05,-8e-05,-0.00014,-0.00011,-1e-05,3,6
11892,-1e-05,-1e-05,-2e-05,-3e-05,-8e-05,-0.00014,-0.00011,-1e-05,3,6
11893,-1e-05,-1e-05,-2e-05,-3e-05,-8e-05,-0.00014,-0.00011,-1e-05,3,6
11894,-1e-05,-1e-05,-2e-05,-3e-05,-8e-05,-0.00014,-0.00011,-1e-05,3,6
11895,-1e-05,-1e-05,-2e-05,-3e-05,-8e-05,-0.00014,-0.00011,-1e-05,3,6
11896,-1e-05,-1e-05,-2e-05,-3e-05,-8e-05,-0.00014,-0.00011,-1e-05,3,6
11897,-1e-05,-1e-05,-2e-05,-3e-05,-8e-05,-0.00014,-0.00011,-1e-05,3,6
11898,-1e-05,-1e-05,-2e-05,-3e-05,-8e-05,-0.00014,-0.00011,-1e-05,3,6
11899,-1e-05,-1e-05,-2e-05,-3e-05,-8e-05,-0.00014,-0.00011,-1e-05,3,6
11900,-1e-05,-1e-05,-2e-05,-3e-05,-8e-05,-0.00014,-0.00011,-1e-05,3,6
11901,-1e-05,-1e-05,-2e-05,-3e-05,-8e-05,-0.00014,-0.00011,-1e-05,3,6
11902,-1e-05,-1e-05,-2e-05,-3e-05,-8e-05,-0.00014,-0.00011,-1e-05,3,6
11903,-1e-05,-1e-05,-2e-05,-3e-05,-8e-05,-0.00014,-0.00011,-1e-05,3,6
11904,-1e-05,-1e-05,-2e-05,-3e-05,-8e-05,-0.00014,-0.00011,-1e-05,3,6
11905,-1e-05,-1e-05,-2e-05,-3e-05,-8e-05,-0.00014,-0.00011,-1e-05,3,6
11906,-1e-05,-1e-05,-2e-05,-3e-05,-8e-05,-0.00014,-0.00011,-1e-05,3,6
11907,-1e-05,-1e-05,-2e-05,-3e-05,-8e-05,-0.00014,-0.00011,-1e-05,3,6
11908,-1e-05,-1e-05,-2e-05,-3e-05,-8e-05,-0.00014,-0.00011,-1e-05,3,6
11909,-1e-05,-1e-05,-2e-05,-3e-05,-8e-05,-0.00014,-0.00011,-1e-05,3,6
11910,-1e-05,-1e-05,-2e-05,-3e-05,-8e-05,-0.00014,-0.00011,-1e-05,3,6
11911,-1e-05,-1e-05,-2e-05,-3e-05,-8e-05,-0.00014,-0.00011,-1e-05,3,6
11912,-1e-05,-1e-05,-2e-05,-3e-05,-8e-05,-0.00014,-0.00011,-1e-05,3,6
11913,-1e-05,-1e-05,-2e-05,-3e-05,-8e-05,-0.00014,-0.00011,-1e-05,3,6
11914,-1e-05,-1e-05,-2e-05,-3e-05,-8e-05,-0.00014,-0.00011,-1e-05,3,6
11915,-1e-05,-1e-05,-2e-05,-3e-05,-8e-05,-0.00014,-0.00011,-1e-05,3,6
11916,-1e-05,-1e-05,-2e-05,-3e-05,-8e-05,-0.00014,-0.00011,-1e-05,3,6
11917,-1e-05,-1e-05,-2e-05,-3e-05,-8e-05,-0.00014,-0.00011,-1e-05,3,6
11918,-1e-05,-1e-05,-2e-05,-3e-05,-8e-05,-0.00014,-0.00011,-1e-05,3,6
11919,-1e-05,-1e-05,-2e-05,-3e-05,-8e-05,-0.00014,-0.00011,-1e-05,3,6
11920,-1e-05,-1e-05,-2e-05,-3e-05,-8e-05,-0.00014,-0.00011,-1e-05,3,6
11921,-1e-05,-1e-05,-2e-05,-3e-05,-8e-05,-0.00014,-0.00011,-1e-05,3,6
11923,-1e-05,-1e-05,-2e-05,-3e-05,-8e-05,-0.00014,-0.00011,-1e-05,3,6
11924,-1e-05,-1e-05,-2e-05,-3e-05,-8e-05,-0.00014,-0.00011,-1e-05,3,6
11925,-1e-05,-1e-05,-2e-05,-3e-05,-8e-05,-0.00014,-0.00011,-1e-05,3,6
11926,-1e-05,-1e-05,-2e-05,-3e-05,-8e-05,-0.00014,-0.00011,-1e-05,3,6
11927,-1e-05,-1e-05,-2e-05,-3e-05,-8e-05,-0.00014,-0.00011,-1e-05,3,6
11928,-1e-05,-1e-05,-2e-05,-3e-05,-8e-05,-0.00014,-0.00011,-1e-05,3,6
11929,-1e-05,-1e-05,-2e-05,-3e-05,-8e-05,-0.00014,-0.00011,-1e-05,3,6
11930,-1e-05,-1e-05,-2e-05,-3e-05,-8e-05,-0.00014,-0.00011,-1e-05,3,6
11931,-1e-05,-1e-05,-2e-05,-3e-05,-8e-05,-0.00014,-0.00011,-1e-05,3,6
11932,-1e-05,-1e-05,-2e-05,-3e-05,-8e-05,-0.00014,-0.00011,-1e-05,3,6
11933,-1e-05,-1e-05,-2e-05,-3e-05,-8e-05,-0.00014,-0.00011,-1e-05,3,6
11934,-1e-05,-1e-05,-2e-05,-3e-05,-8e-05,-0.00014,-0.00011,-1e-05,3,6
11935,-1e-05,-1e-05,-2e-05,-3e-05,-8e-05,-0.00014,-0.00011,-1e-05,3,6
11936,8e-05,-2e-05,-5e-05,-4e-05,-1e-05,8e-05,5e-05,-0.0001,3,6
11938,-0.00011,-4e-05,0,0,0,1e-05,7e-05,-0.00012,3,6
11939,-0.00011,-4e-05,0,0,0,1e-05,7e-05,-0.00012,3,6
11941,-0.0001,-2e-05,-5e-05,-7e-05,-5e-05,-0.0001,-6e-05,-7e-05,3,6
11942,-0.0001,-2e-05,-5e-05,-7e-05,-5e-05,-0.0001,-6e-05,-7e-05,3,6
11943,-0.0001,-2e-05,-5e-05,-7e-05,-5e-05,-0.0001,-6e-05,-7e-05,3,6
11944,-0.0001,-2e-05,-5e-05,-7e-05,-5e-05,-0.0001,-6e-05,-7e-05,3,6
11945,-0.0001,-2e-05,-5e-05,-7e-05,-5e-05,-0.0001,-6e-05,-7e-05,3,6
11946,-0.0001,-2e-05,-5e-05,-7e-05,-5e-05,-0.0001,-6e-05,-7e-05,3,6
11947,-0.0001,-2e-05,-5e-05,-7e-05,-5e-05,-0.0001,-6e-05,-7e-05,3,6
11948,-0.0001,-2e-05,-5e-05,-7e-05,-5e-05,-0.0001,-6e-05,-7e-05,3,6
11949,-0.0001,-2e-05,-5e-05,-7e-05,-5e-05,-0.0001,-6e-05,-7e-05,3,6
11950,-0.0001,-2e-05,-5e-05,-7e-05,-5e-05,-0.0001,-6e-05,-7e-05,3,6
11951,-0.0001,-2e-05,-5e-05,-7e-05,-5e-05,-0.0001,-6e-05,-7e-05,3,6
11952,-0.00031,-8e-05,1e-05,4e-05,6e-05,0.00024,0.00016,-4e-05,3,6
11953,0.00012,4e-05,4e-05,0,3e-05,0.00012,4e-05,-5e-05,3,6
11954,0.00012,4e-05,4e-05,0,3e-05,0.00012,4e-05,-5e-05,3,6
11955,0.00012,4e-05,4e-05,0,3e-05,0.00012,4e-05,-5e-05,3,6
11956,0.00012,4e-05,4e-05,0,3e-05,0.00012,4e-05,-5e-05,3,6
11957,0.00012,4e-05,4e-05,0,3e-05,0.00012,4e-05,-5e-05,3,6
11958,0.00012,4e-05,4e-05,0,3e-05,0.00012,4e-05,-5e-05,3,6
11959,0.00012,4e-05,4e-05,0,3e-05,0.00012,4e-05,-5e-05,3,6
11960,0.00012,4e-05,4e-05,0,3e-05,0.00012,4e-05,-5e-05,3,6
11961,0.00012,4e-05,4e-05,0,3e-05,0.00012,4e-05,-5e-05,3,6
11962,0.00012,4e-05,4e-05,0,3e-05,0.00012,4e-05,-5e-05,3,6
11963,0.00012,4e-05,4e-05,0,3e-05,0.00012,4e-05,-5e-05,3,6
11964,0.00012,4e-05,4e-05,0,3e-05,0.00012,4e-05,-5e-05,3,6
11965,0.00012,4e-05,4e-05,0,3e-05,0.00012,4e-05,-5e-05,3,6
11966,0.00012,4e-05,4e-05,0,3e-05,0.00012,4e-05,-5e-05,3,6
11967,0.00012,4e-05,4e-05,0,3e-05,0.00012,4e-05,-5e-05,3,6
11968,0.00012,4e-05,4e-05,0,3e-05,0.00012,4e-05,-5e-05,3,6
11969,0.00012,4e-05,4e-05,0,3e-05,0.00012,4e-05,-5e-05,3,6
11970,0.00012,4e-05,4e-05,0,3e-05,0.00012,4e-05,-5e-05,3,6
11971,0.00012,4e-05,4e-05,0,3e-05,0.00012,4e-05,-5e-05,3,6
11972,0.00012,4e-05,4e-05,0,3e-05,0.00012,4e-05,-5e-05,3,6
11973,0.00012,4e-05,4e-05,0,3e-05,0.00012,4e-05,-5e-05,3,6
11974,0.00012,4e-05,4e-05,0,3e-05,0.00012,4e-05,-5e-05,3,6
11975,0.00012,4e-05,4e-05,0,3e-05,0.00012,4e-05,-5e-05,3,6
11976,0.00012,4e-05,4e-05,0,3e-05,0.00012,4e-05,-5e-05,3,6
11977,0.00012,4e-05,4e-05,0,3e-05,0.00012,4e-05,-5e-05,3,6
11978,0.00012,4e-05,4e-05,0,3e-05,0.00012,4e-05,-5e-05,3,6
11979,0.00012,4e-05,4e-05,0,3e-05,0.00012,4e-05,-5e-05,3,6
11980,0.00012,4e-05,4e-05,0,3e-05,0.00012,4e-05,-5e-05,3,6
11981,0.00012,4e-05,4e-05,0,3e-05,0.00012,4e-05,-5e-05,3,6
11982,0.00012,4e-05,4e-05,0,3e-05,0.00012,4e-05,-5e-05,3,6
11983,0.00012,4e-05,4e-05,0,3e-05,0.00012,4e-05,-5e-05,3,6
11984,0.00012,4e-05,4e-05,0,3e-05,0.00012,4e-05,-5e-05,3,6
11985,0.00012,4e-05,4e-05,0,3e-05,0.00012,4e-05,-5e-05,3,6
11986,0.00012,4e-05,4e-05,0,3e-05,0.00012,4e-05,-5e-05,3,6
11988,0.00012,4e-05,4e-05,0,3e-05,0.00012,4e-05,-5e-05,3,6
11991,0.00012,4e-05,4e-05,0,3e-05,0.00012,4e-05,-5e-05,3,6
11992,7e-05,-4e-05,-9e-05,-8e-05,-8e-05,-0.0001,-2e-05,0.00012,3,6
11993,0.00016,6e-05,6e-05,0.00011,0.00011,0.00012,7e-05,2e-05,3,6
11994,0.00016,6e-05,6e-05,0.00011,0.00011,0.00012,7e-05,2e-05,3,6
11995,-7e-05,-9e-05,-5e-05,-5e-05,2e-05,-2e-05,-8e-05,0.00012,3,6
11996,-7e-05,-9e-05,-5e-05,-5e-05,2e-05,-2e-05,-8e-05,0.00012,3,6
11997,-7e-05,-2e-05,1e-05,1e-05,-3e-05,-0.00011,-9e-05,6e-05,3,6
11998,-7e-05,-2e-05,1e-05,1e-05,-3e-05,-0.00011,-9e-05,6e-05,3,6
11999,-7e-05,-2e-05,1e-05,1e-05,-3e-05,-0.00011,-9e-05,6e-05,3,6
12000,-7e-05,-2e-05,1e-05,1e-05,-3e-05,-0.00011,-9e-05,6e-05,3,6
12001,-7e-05,-2e-05,1e-05,1e-05,-3e-05,-0.00011,-9e-05,6e-05,3,6
12002,-7e-05,-2e-05,1e-05,1e-05,-3e-05,-0.00011,-9e-05,6e-05,3,6
12003,-5e-05,-6e-05,-2e-05,1e-05,-6e-05,-3e-05,1e-05,-0.0001,3,6
12004,-8e-05,-8e-05,-6e-05,-7e-05,-7e-05,-0.00015,-0.00011,-0.00016,3,6
12005,-8e-05,-8e-05,-6e-05,-7e-05,-7e-05,-0.00015,-0.00011,-0.00016,3,6
12007,-8e-05,-8e-05,-6e-05,-7e-05,-7e-05,-0.00015,-0.00011,-0.00016,3,6
12009,-8e-05,-8e-05,-6e-05,-7e-05,-7e-05,-0.00015,-0.00011,-0.00016,3,6
12010,-8e-05,-8e-05,-6e-05,-7e-05,-7e-05,-0.00015,-0.00011,-0.00016,3,6
12011,-8e-05,-8e-05,-6e-05,-7e-05,-7e-05,-0.00015,-0.00011,-0.00016,3,6
12012,-8e-05,-8e-05,-6e-05,-7e-05,-7e-05,-0.00015,-0.00011,-0.00016,3,6
12013,-8e-05,-8e-05,-6e-05,-7e-05,-7e-05,-0.00015,-0.00011,-0.00016,3,6
12014,-8e-05,-8e-05,-6e-05,-7e-05,-7e-05,-0.00015,-0.00011,-0.00016,3,6
12015,-8e-05,-8e-05,-6e-05,-7e-05,-7e-05,-0.00015,-0.00011,-0.00016,3,6
12016,-8e-05,-8e-05,-6e-05,-7e-05,-7e-05,-0.00015,-0.00011,-0.00016,3,6
12017,-8e-05,-8e-05,-6e-05,-7e-05,-7e-05,-0.00015,-0.00011,-0.00016,3,6
12018,-8e-05,-8e-05,-6e-05,-7e-05,-7e-05,-0.00015,-0.00011,-0.00016,3,6
12019,-8e-05,-8e-05,-6e-05,-7e-05,-7e-05,-0.00015,-0.00011,-0.00016,3,6
12020,-8e-05,-8e-05,-6e-05,-7e-05,-7e-05,-0.00015,-0.00011,-0.00016,3,6
12021,-8e-05,-8e-05,-6e-05,-7e-05,-7e-05,-0.00015,-0.00011,-0.00016,3,6
12022,-8e-05,-8e-05,-6e-05,-7e-05,-7e-05,-0.00015,-0.00011,-0.00016,3,6
12024,-8e-05,-8e-05,-6e-05,-7e-05,-7e-05,-0.00015,-0.00011,-0.00016,3,6
12025,-8e-05,-8e-05,-6e-05,-7e-05,-7e-05,-0.00015,-0.00011,-0.00016,3,6
12026,-8e-05,-8e-05,-6e-05,-7e-05,-7e-05,-0.00015,-0.00011,-0.00016,3,6
12027,-8e-05,-8e-05,-6e-05,-7e-05,-7e-05,-0.00015,-0.00011,-0.00016,3,6
12028,-8e-05,-8e-05,-6e-05,-7e-05,-7e-05,-0.00015,-0.00011,-0.00016,3,6
12029,-8e-05,-8e-05,-6e-05,-7e-05,-7e-05,-0.00015,-0.00011,-0.00016,3,6
12030,-8e-05,-8e-05,-6e-05,-7e-05,-7e-05,-0.00015,-0.00011,-0.00016,3,6
12031,-8e-05,-8e-05,-6e-05,-7e-05,-7e-05,-0.00015,-0.00011,-0.00016,3,6
12032,-8e-05,-8e-05,-6e-05,-7e-05,-7e-05,-0.00015,-0.00011,-0.00016,3,6
12033,-8e-05,-8e-05,-6e-05,-7e-05,-7e-05,-0.00015,-0.00011,-0.00016,3,6
12034,-8e-05,-8e-05,-6e-05,-7e-05,-7e-05,-0.00015,-0.00011,-0.00016,3,6
12035,-8e-05,-8e-05,-6e-05,-7e-05,-7e-05,-0.00015,-0.00011,-0.00016,3,6
12036,-8e-05,-8e-05,-6e-05,-7e-05,-7e-05,-0.00015,-0.00011,-0.00016,3,6
12038,-8e-05,-8e-05,-6e-05,-7e-05,-7e-05,-0.00015,-0.00011,-0.00016,3,6
12039,-8e-05,-8e-05,-6e-05,-7e-05,-7e-05,-0.00015,-0.00011,-0.00016,3,6
12041,-8e-05,-8e-05,-6e-05,-7e-05,-7e-05,-0.00015,-0.00011,-0.00016,3,6
12042,-0.00052,-0.00014,2e-05,-5e-05,-1e-05,-5e-05,0.00016,-6e-05,3,6
12043,-0.00052,-0.00014,2e-05,-5e-05,-1e-05,-5e-05,0.00016,-6e-05,3,6
12044,-0.00052,-0.00014,2e-05,-5e-05,-1e-05,-5e-05,0.00016,-6e-05,3,6
12045,-0.00052,-0.00014,2e-05,-5e-05,-1e-05,-5e-05,0.00016,-6e-05,3,6
12046,-0.00052,-0.00014,2e-05,-5e-05,-1e-05,-5e-05,0.00016,-6e-05,3,6
12047,-0.00052,-0.00014,2e-05,-5e-05,-1e-05,-5e-05,0.00016,-6e-05,3,6
12048,0.00032,0.0001,0,2e-05,3e-05,3e-05,-6e-05,0.00043,3,6
12049,-0.00023,-1e-05,-3e-05,-3e-05,-8e-05,-4e-05,-7e-05,-0.00025,3,6
12050,-0.00023,-1e-05,-3e-05,-3e-05,-8e-05,-4e-05,-7e-05,-0.00025,3,6
12051,2e-05,-5e-05,-1e-05,1e-05,-1e-05,6e-05,-2e-05,1e-05,3,6
12052,2e-05,-5e-05,-1e-05,1e-05,-1e-05,6e-05,-2e-05,1e-05,3,6
12053,2e-05,-5e-05,-1e-05,1e-05,-1e-05,6e-05,-2e-05,1e-05,3,6
12054,2e-05,-5e-05,-1e-05,1e-05,-1e-05,6e-05,-2e-05,1e-05,3,6
12055,2e-05,-5e-05,-1e-05,1e-05,-1e-05,6e-05,-2e-05,1e-05,3,6
12058,2e-05,-5e-05,-1e-05,1e-05,-1e-05,6e-05,-2e-05,1e-05,3,6
12059,2e-05,-5e-05,-1e-05,1e-05,-1e-05,6e-05,-2e-05,1e-05,3,6
12060,2e-05,-5e-05,-1e-05,1e-05,-1e-05,6e-05,-2e-05,1e-05,3,6
12061,2e-05,-5e-05,-1e-05,1e-05,-1e-05,6e-05,-2e-05,1e-05,3,6
12062,2e-05,-5e-05,-1e-05,1e-05,-1e-05,6e-05,-2e-05,1e-05,3,6
12063,0.0001,-1e-05,-2e-05,-1e-05,0,-0.00014,-5e-05,-0.00017,3,6
12064,0.0001,-1e-05,-2e-05,-1e-05,0,-0.00014,-5e-05,-0.00017,3,6
12065,0.0001,-1e-05,-2e-05,-1e-05,0,-0.00014,-5e-05,-0.00017,3,6
12066,0.0001,-1e-05,-2e-05,-1e-05,0,-0.00014,-5e-05,-0.00017,3,6
12067,0.0001,-1e-05,-2e-05,-1e-05,0,-0.00014,-5e-05,-0.00017,3,6
12068,0.0001,-1e-05,-2e-05,-1e-05,0,-0.00014,-5e-05,-0.00017,3,6
12069,0.0001,-1e-05,-2e-05,-1e-05,0,-0.00014,-5e-05,-0.00017,3,6
12070,0.0001,-1e-05,-2e-05,-1e-05,0,-0.00014,-5e-05,-0.00017,3,6
12071,0.0001,-1e-05,-2e-05,-1e-05,0,-0.00014,-5e-05,-0.00017,3,6
12072,0.0001,-1e-05,-2e-05,-1e-05,0,-0.00014,-5e-05,-0.00017,3,6
12074,0.0001,-1e-05,-2e-05,-1e-05,0,-0.00014,-5e-05,-0.00017,3,6
12075,0.0001,-1e-05,-2e-05,-1e-05,0,-0.00014,-5e-05,-0.00017,3,6
12076,0.0001,-1e-05,-2e-05,-1e-05,0,-0.00014,-5e-05,-0.00017,3,6
12077,0.0001,-1e-05,-2e-05,-1e-05,0,-0.00014,-5e-05,-0.00017,3,6
12078,0.0001,-1e-05,-2e-05,-1e-05,0,-0.00014,-5e-05,-0.00017,3,6
12079,0.0001,-1e-05,-2e-05,-1e-05,0,-0.00014,-5e-05,-0.00017,3,6
12080,0.0001,-1e-05,-2e-05,-1e-05,0,-0.00014,-5e-05,-0.00017,3,6
12081,0.0001,-1e-05,-2e-05,-1e-05,0,-0.00014,-5e-05,-0.00017,3,6
12082,0.0001,-1e-05,-2e-05,-1e-05,0,-0.00014,-5e-05,-0.00017,3,6
12083,0.0001,-1e-05,-2e-05,-1e-05,0,-0.00014,-5e-05,-0.00017,3,6
12084,0.0001,-1e-05,-2e-05,-1e-05,0,-0.00014,-5e-05,-0.00017,3,6
12085,0.0001,-1e-05,-2e-05,-1e-05,0,-0.00014,-5e-05,-0.00017,3,6
12086,0.0001,-1e-05,-2e-05,-1e-05,0,-0.00014,-5e-05,-0.00017,3,6
12088,0.0001,-1e-05,-2e-05,-1e-05,0,-0.00014,-5e-05,-0.00017,3,6
12091,0.0001,-1e-05,-2e-05,-1e-05,0,-0.00014,-5e-05,-0.00017,3,6
12092,0.0001,-1e-05,-2e-05,-1e-05,0,-0.00014,-5e-05,-0.00017,3,6
12093,0.0001,-1e-05,-2e-05,-1e-05,0,-0.00014,-5e-05,-0.00017,3,6
12094,0.0001,-1e-05,-2e-05,-1e-05,0,-0.00014,-5e-05,-0.00017,3,6
12095,0.0001,-1e-05,-2e-05,-1e-05,0,-0.00014,-5e-05,-0.00017,3,6
12096,0.0001,-1e-05,-2e-05,-1e-05,0,-0.00014,-5e-05,-0.00017,3,6
12097,0.0001,-1e-05,-2e-05,-1e-05,0,-0.00014,-5e-05,-0.00017,3,6
12098,0.0001,-1e-05,-2e-05,-1e-05,0,-0.00014,-5e-05,-0.00017,3,6
12099,0.0001,-1e-05,-2e-05,-1e-05,0,-0.00014,-5e-05,-0.00017,3,6
12100,0.0001,-1e-05,-2e-05,-1e-05,0,-0.00014,-5e-05,-0.00017,3,6
12101,0.0001,-1e-05,-2e-05,-1e-05,0,-0.00014,-5e-05,-0.00017,3,6
12102,0.00011,4e-05,1e-05,3e-05,1e-05,-5e-05,-8e-05,-7e-05,3,6
12103,-8e-05,0,3e-05,-1e-05,5e-05,0.00013,-3e-05,0.00019,3,6
12104,-8e-05,0,3e-05,-1e-05,5e-05,0.00013,-3e-05,0.00019,3,6
12105,-8e-05,0,3e-05,-1e-05,5e-05,0.00013,-3e-05,0.00019,3,6
12107,-8e-05,0,3e-05,-1e-05,5e-05,0.00013,-3e-05,0.00019,3,6
12108,-0.00017,-5e-05,-2e-05,-2e-05,2e-05,6e-05,0.00015,0.00026,3,6
12109,-0.00017,-5e-05,-2e-05,-2e-05,2e-05,6e-05,0.00015,0.00026,3,6
12110,-0.00017,-5e-05,-2e-05,-2e-05,2e-05,6e-05,0.00015,0.00026,3,6
12111,-0.00017,-5e-05,-2e-05,-2e-05,2e-05,6e-05,0.00015,0.00026,3,6
12112,-0.00017,-5e-05,-2e-05,-2e-05,2e-05,6e-05,0.00015,0.00026,3,6
12113,-0.00017,-5e-05,-2e-05,-2e-05,2e-05,6e-05,0.00015,0.00026,3,6
12114,-0.00017,-5e-05,-2e-05,-2e-05,2e-05,6e-05,0.00015,0.00026,3,6
12115,-4e-05,-3e-05,-3e-05,0,-2e-05,-5e-05,-4e-05,5e-05,3,6
12116,-4e-05,-3e-05,-3e-05,0,-2e-05,-5e-05,-4e-05,5e-05,3,6
12117,-2e-05,4e-05,-3e-05,-1e-05,-2e-05,1e-05,-4e-05,-7e-05,3,6
12118,-2e-05,4e-05,-3e-05,-1e-05,-2e-05,1e-05,-4e-05,-7e-05,3,6
12119,-2e-05,4e-05,-3e-05,-1e-05,-2e-05,1e-05,-4e-05,-7e-05,3,6
12120,-2e-05,4e-05,-3e-05,-1e-05,-2e-05,1e-05,-4e-05,-7e-05,3,6
12121,-2e-05,4e-05,-3e-05,-1e-05,-2e-05,1e-05,-4e-05,-7e-05,3,6
12122,-2e-05,4e-05,-3e-05,-1e-05,-2e-05,1e-05,-4e-05,-7e-05,3,6
12124,-2e-05,4e-05,-3e-05,-1e-05,-2e-05,1e-05,-4e-05,-7e-05,3,6
12125,-2e-05,4e-05,-3e-05,-1e-05,-2e-05,1e-05,-4e-05,-7e-05,3,6
12126,-2e-05,4e-05,-3e-05,-1e-05,-2e-05,1e-05,-4e-05,-7e-05,3,6
12127,-2e-05,4e-05,-3e-05,-1e-05,-2e-05,1e-05,-4e-05,-7e-05,3,6
12128,-2e-05,4e-05,-3e-05,-1e-05,-2e-05,1e-05,-4e-05,-7e-05,3,6
12129,-2e-05,4e-05,-3e-05,-1e-05,-2e-05,1e-05,-4e-05,-7e-05,3,6
12130,-2e-05,4e-05,-3e-05,-1e-05,-2e-05,1e-05,-4e-05,-7e-05,3,6
12131,-2e-05,4e-05,-3e-05,-1e-05,-2e-05,1e-05,-4e-05,-7e-05,3,6
12132,-2e-05,4e-05,-3e-05,-1e-05,-2e-05,1e-05,-4e-05,-7e-05,3,6
12133,-2e-05,4e-05,-3e-05,-1e-05,-2e-05,1e-05,-4e-05,-7e-05,3,6
12134,-2e-05,4e-05,-3e-05,-1e-05,-2e-05,1e-05,-4e-05,-7e-05,3,6
12135,-2e-05,4e-05,-3e-05,-1e-05,-2e-05,1e-05,-4e-05,-7e-05,3,6
12136,-2e-05,4e-05,-3e-05,-1e-05,-2e-05,1e-05,-4e-05,-7e-05,3,6
12138,-2e-05,4e-05,-3e-05,-1e-05,-2e-05,1e-05,-4e-05,-7e-05,3,6
12139,-2e-05,4e-05,-3e-05,-1e-05,-2e-05,1e-05,-4e-05,-7e-05,3,6
12141,-2e-05,4e-05,-3e-05,-1e-05,-2e-05,1e-05,-4e-05,-7e-05,3,6
12142,-2e-05,4e-05,-3e-05,-1e-05,-2e-05,1e-05,-4e-05,-7e-05,3,6
12143,-2e-05,4e-05,-3e-05,-1e-05,-2e-05,1e-05,-4e-05,-7e-05,3,6
12144,-2e-05,4e-05,-3e-05,-1e-05,-2e-05,1e-05,-4e-05,-7e-05,3,6
12145,-2e-05,4e-05,-3e-05,-1e-05,-2e-05,1e-05,-4e-05,-7e-05,3,6
12146,-2e-05,4e-05,-3e-05,-1e-05,-2e-05,1e-05,-4e-05,-7e-05,3,6
12147,-2e-05,4e-05,-3e-05,-1e-05,-2e-05,1e-05,-4e-05,-7e-05,3,6
12148,-2e-05,4e-05,-3e-05,-1e-05,-2e-05,1e-05,-4e-05,-7e-05,3,6
12149,-2e-05,4e-05,-3e-05,-1e-05,-2e-05,1e-05,-4e-05,-7e-05,3,6
12150,-2e-05,4e-05,-3e-05,-1e-05,-2e-05,1e-05,-4e-05,-7e-05,3,6
12151,-2e-05,4e-05,-3e-05,-1e-05,-2e-05,1e-05,-4e-05,-7e-05,3,6
12152,-2e-05,4e-05,-3e-05,-1e-05,-2e-05,1e-05,-4e-05,-7e-05,3,6
12153,-2e-05,4e-05,-3e-05,-1e-05,-2e-05,1e-05,-4e-05,-7e-05,3,6
12154,1e-05,0,3e-05,4e-05,8e-05,0.00013,1e-05,9e-05,3,6
12155,1e-05,0,3e-05,4e-05,8e-05,0.00013,1e-05,9e-05,3,6
12159,1e-05,0,3e-05,4e-05,8e-05,0.00013,1e-05,9e-05,3,6
12160,9e-05,-1e-05,-5e-05,-7e-05,-7e-05,-0.00017,-2e-05,-6e-05,3,6
12161,9e-05,-1e-05,-5e-05,-7e-05,-7e-05,-0.00017,-2e-05,-6e-05,3,6
12162,9e-05,-1e-05,-5e-05,-7e-05,-7e-05,-0.00017,-2e-05,-6e-05,3,6
12163,0.00028,5e-05,-1e-05,1e-05,-3e-05,-9e-05,-0.00017,5e-05,3,6
12164,0.00028,5e-05,-1e-05,1e-05,-3e-05,-9e-05,-0.00017,5e-05,3,6
12165,0.00028,5e-05,-1e-05,1e-05,-3e-05,-9e-05,-0.00017,5e-05,3,6
12166,0.00028,5e-05,-1e-05,1e-05,-3e-05,-9e-05,-0.00017,5e-05,3,6
12167,0.00028,5e-05,-1e-05,1e-05,-3e-05,-9e-05,-0.00017,5e-05,3,6
12168,-0.00022,-0.00015,-4e-05,-4e-05,-7e-05,-9e-05,-0.00012,-0.00024,3,6
12169,-0.00022,-0.00015,-4e-05,-4e-05,-7e-05,-9e-05,-0.00012,-0.00024,3,6
12170,-0.00022,-0.00015,-4e-05,-4e-05,-7e-05,-9e-05,-0.00012,-0.00024,3,6
12171,-0.00022,-0.00015,-4e-05,-4e-05,-7e-05,-9e-05,-0.00012,-0.00024,3,6
12172,-0.00022,-0.00015,-4e-05,-4e-05,-7e-05,-9e-05,-0.00012,-0.00024,3,6
38279,-0.00011,-9e-05,-0.0001,-0.00014,-4e-05,-9e-05,-0.00015,-0.00037,3,6
38280,-0.00011,-9e-05,-0.0001,-0.00014,-4e-05,-9e-05,-0.00015,-0.00037,3,6
38281,-0.00011,-9e-05,-0.0001,-0.00014,-4e-05,-9e-05,-0.00015,-0.00037,3,6
38282,-0.00011,-9e-05,-0.0001,-0.00014,-4e-05,-9e-05,-0.00015,-0.00037,3,6
38283,-0.00011,-9e-05,-0.0001,-0.00014,-4e-05,-9e-05,-0.00015,-0.00037,3,6
38284,-0.00011,-9e-05,-0.0001,-0.00014,-4e-05,-9e-05,-0.00015,-0.00037,3,6
38285,-0.00011,-9e-05,-0.0001,-0.00014,-4e-05,-9e-05,-0.00015,-0.00037,3,6
38286,-0.00011,-9e-05,-0.0001,-0.00014,-4e-05,-9e-05,-0.00015,-0.00037,3,6
38288,-0.00011,-9e-05,-0.0001,-0.00014,-4e-05,-9e-05,-0.00015,-0.00037,3,6
38289,-0.00011,-9e-05,-0.0001,-0.00014,-4e-05,-9e-05,-0.00015,-0.00037,3,6
38290,-0.00011,-9e-05,-0.0001,-0.00014,-4e-05,-9e-05,-0.00015,-0.00037,3,6
38291,-0.00011,-9e-05,-0.0001,-0.00014,-4e-05,-9e-05,-0.00015,-0.00037,3,6
38292,-0.00011,-9e-05,-0.0001,-0.00014,-4e-05,-9e-05,-0.00015,-0.00037,3,6
38293,-0.00011,-9e-05,-0.0001,-0.00014,-4e-05,-9e-05,-0.00015,-0.00037,3,6
38294,-0.00011,-9e-05,-0.0001,-0.00014,-4e-05,-9e-05,-0.00015,-0.00037,3,6
38295,-0.00011,-9e-05,-0.0001,-0.00014,-4e-05,-9e-05,-0.00015,-0.00037,3,6
38296,-0.00011,-9e-05,-0.0001,-0.00014,-4e-05,-9e-05,-0.00015,-0.00037,3,6
38297,-0.00011,-9e-05,-0.0001,-0.00014,-4e-05,-9e-05,-0.00015,-0.00037,3,6
38298,-0.00011,-9e-05,-0.0001,-0.00014,-4e-05,-9e-05,-0.00015,-0.00037,3,6
38299,0.00013,-2e-05,6e-05,5e-05,-8e-05,6e-05,0.00016,0.00015,3,6
38300,0.00027,0.00012,7e-05,8e-05,4e-05,-0.0001,-0.00012,-1e-05,3,6
38301,0.00027,0.00012,7e-05,8e-05,4e-05,-0.0001,-0.00012,-1e-05,3,6
38302,0.00021,4e-05,-1e-05,-4e-05,-2e-05,-6e-05,3e-05,0.00053,3,6
38303,0.00021,4e-05,-1e-05,-4e-05,-2e-05,-6e-05,3e-05,0.00053,3,6
38304,0.00021,4e-05,-1e-05,-4e-05,-2e-05,-6e-05,3e-05,0.00053,3,6
38305,0.00021,4e-05,-1e-05,-4e-05,-2e-05,-6e-05,3e-05,0.00053,3,6
38306,0.00021,4e-05,-1e-05,-4e-05,-2e-05,-6e-05,3e-05,0.00053,3,6
38307,0.00021,4e-05,-1e-05,-4e-05,-2e-05,-6e-05,3e-05,0.00053,3,6
38308,0.00021,4e-05,-1e-05,-4e-05,-2e-05,-6e-05,3e-05,0.00053,3,6
38309,0.00021,4e-05,-1e-05,-4e-05,-2e-05,-6e-05,3e-05,0.00053,3,6
38310,0.00021,4e-05,-1e-05,-4e-05,-2e-05,-6e-05,3e-05,0.00053,3,6
38311,0.00021,4e-05,-1e-05,-4e-05,-2e-05,-6e-05,3e-05,0.00053,3,6
38312,0.00021,4e-05,-1e-05,-4e-05,-2e-05,-6e-05,3e-05,0.00053,3,6
38313,0.00021,4e-05,-1e-05,-4e-05,-2e-05,-6e-05,3e-05,0.00053,3,6
38314,0.00021,4e-05,-1e-05,-4e-05,-2e-05,-6e-05,3e-05,0.00053,3,6
38315,-0.00065,-0.00013,-2e-05,-4e-05,-0.00021,-0.00019,-0.00054,-0.00012,3,6
38316,-0.00065,-0.00013,-2e-05,-4e-05,-0.00021,-0.00019,-0.00054,-0.00012,3,6
38317,-0.00065,-0.00013,-2e-05,-4e-05,-0.00021,-0.00019,-0.00054,-0.00012,3,6
38318,-0.00065,-0.00013,-2e-05,-4e-05,-0.00021,-0.00019,-0.00054,-0.00012,3,6
38319,-0.00065,-0.00013,-2e-05,-4e-05,-0.00021,-0.00019,-0.00054,-0.00012,3,6
38320,0.00066,0.00011,0,-2e-05,2e-05,0.00012,-0.00013,0.00022,3,6
38321,0.00066,0.00011,0,-2e-05,2e-05,0.00012,-0.00013,0.00022,3,6
38322,0.00066,0.00011,0,-2e-05,2e-05,0.00012,-0.00013,0.00022,3,6
38323,0.00066,0.00011,0,-2e-05,2e-05,0.00012,-0.00013,0.00022,3,6
38324,0.00066,0.00011,0,-2e-05,2e-05,0.00012,-0.00013,0.00022,3,6
38325,0.00066,0.00011,0,-2e-05,2e-05,0.00012,-0.00013,0.00022,3,6
38326,0.00066,0.00011,0,-2e-05,2e-05,0.00012,-0.00013,0.00022,3,6
38327,0.00066,0.00011,0,-2e-05,2e-05,0.00012,-0.00013,0.00022,3,6
38328,0.00066,0.00011,0,-2e-05,2e-05,0.00012,-0.00013,0.00022,3,6
38329,0.00066,0.00011,0,-2e-05,2e-05,0.00012,-0.00013,0.00022,3,6
38330,0.00066,0.00011,0,-2e-05,2e-05,0.00012,-0.00013,0.00022,3,6
38331,0.00066,0.00011,0,-2e-05,2e-05,0.00012,-0.00013,0.00022,3,6
38332,0.00066,0.00011,0,-2e-05,2e-05,0.00012,-0.00013,0.00022,3,6
38333,0.00066,0.00011,0,-2e-05,2e-05,0.00012,-0.00013,0.00022,3,6
38334,0.00066,0.00011,0,-2e-05,2e-05,0.00012,-0.00013,0.00022,3,6
38335,0.00066,0.00011,0,-2e-05,2e-05,0.00012,-0.00013,0.00022,3,6
38336,-8e-05,0,-1e-05,-1e-05,-3e-05,-6e-05,-0.00011,-0.00019,3,6
38338,-0.00064,-0.00013,-7e-05,-0.0001,-0.00024,-0.00016,-0.00011,-0.0001,3,6
38339,-0.00064,-0.00013,-7e-05,-0.0001,-0.00024,-0.00016,-0.00011,-0.0001,3,6
38340,-0.00064,-0.00013,-7e-05,-0.0001,-0.00024,-0.00016,-0.00011,-0.0001,3,6
38341,-0.00064,-0.00013,-7e-05,-0.0001,-0.00024,-0.00016,-0.00011,-0.0001,3,6
38342,-0.00064,-0.00013,-7e-05,-0.0001,-0.00024,-0.00016,-0.00011,-0.0001,3,6
38343,-0.00064,-0.00013,-7e-05,-0.0001,-0.00024,-0.00016,-0.00011,-0.0001,3,6
38344,-0.00064,-0.00013,-7e-05,-0.0001,-0.00024,-0.00016,-0.00011,-0.0001,3,6
38345,-0.00064,-0.00013,-7e-05,-0.0001,-0.00024,-0.00016,-0.00011,-0.0001,3,6
38346,-0.00064,-0.00013,-7e-05,-0.0001,-0.00024,-0.00016,-0.00011,-0.0001,3,6
38347,-0.00064,-0.00013,-7e-05,-0.0001,-0.00024,-0.00016,-0.00011,-0.0001,3,6
38348,-0.00064,-0.00013,-7e-05,-0.0001,-0.00024,-0.00016,-0.00011,-0.0001,3,6
38349,-0.00064,-0.00013,-7e-05,-0.0001,-0.00024,-0.00016,-0.00011,-0.0001,3,6
38350,-0.00064,-0.00013,-7e-05,-0.0001,-0.00024,-0.00016,-0.00011,-0.0001,3,6
38351,-0.0001,-0.00013,5e-05,0.00014,0.00026,0.00011,0.00027,0.00033,3,6
38352,-0.0001,-0.00013,5e-05,0.00014,0.00026,0.00011,0.00027,0.00033,3,6
38353,-0.0001,-0.00013,5e-05,0.00014,0.00026,0.00011,0.00027,0.00033,3,6
38354,-0.0001,-0.00013,5e-05,0.00014,0.00026,0.00011,0.00027,0.00033,3,6
38355,-0.0001,-0.00013,5e-05,0.00014,0.00026,0.00011,0.00027,0.00033,3,6
38356,-0.0001,-0.00013,5e-05,0.00014,0.00026,0.00011,0.00027,0.00033,3,6
38357,-9e-05,-2e-05,-4e-05,-7e-05,-6e-05,-6e-05,1e-05,-0.00039,3,6
38358,-9e-05,-2e-05,-4e-05,-7e-05,-6e-05,-6e-05,1e-05,-0.00039,3,6
38359,-9e-05,-2e-05,-4e-05,-7e-05,-6e-05,-6e-05,1e-05,-0.00039,3,6
38360,-9e-05,-2e-05,-4e-05,-7e-05,-6e-05,-6e-05,1e-05,-0.00039,3,6
38361,-9e-05,-2e-05,-4e-05,-7e-05,-6e-05,-6e-05,1e-05,-0.00039,3,6
38362,-9e-05,-2e-05,-4e-05,-7e-05,-6e-05,-6e-05,1e-05,-0.00039,3,6
38363,-9e-05,-2e-05,-4e-05,-7e-05,-6e-05,-6e-05,1e-05,-0.00039,3,6
38364,-9e-05,-2e-05,-4e-05,-7e-05,-6e-05,-6e-05,1e-05,-0.00039,3,6
38365,-9e-05,-2e-05,-4e-05,-7e-05,-6e-05,-6e-05,1e-05,-0.00039,3,6
38366,-9e-05,-2e-05,-4e-05,-7e-05,-6e-05,-6e-05,1e-05,-0.00039,3,6
38367,-9e-05,-2e-05,-4e-05,-7e-05,-6e-05,-6e-05,1e-05,-0.00039,3,6
38368,-9e-05,-2e-05,-4e-05,-7e-05,-6e-05,-6e-05,1e-05,-0.00039,3,6
38369,-9e-05,-2e-05,-4e-05,-7e-05,-6e-05,-6e-05,1e-05,-0.00039,3,6
38370,-9e-05,-2e-05,-4e-05,-7e-05,-6e-05,-6e-05,1e-05,-0.00039,3,6
38371,-9e-05,-2e-05,-4e-05,-7e-05,-6e-05,-6e-05,1e-05,-0.00039,3,6
38372,-9e-05,-2e-05,-4e-05,-7e-05,-6e-05,-6e-05,1e-05,-0.00039,3,6
38373,-9e-05,-2e-05,-4e-05,-7e-05,-6e-05,-6e-05,1e-05,-0.00039,3,6
38374,0.00085,0.00021,0.00015,0.0001,0.00013,-0.00011,0.00017,0.00019,3,6
38375,-0.00063,-0.00012,4e-05,1e-05,-4e-05,8e-05,0.00025,-0.00047,3,6
38376,-0.00063,-0.00012,4e-05,1e-05,-4e-05,8e-05,0.00025,-0.00047,3,6
38377,-0.00063,-0.00012,4e-05,1e-05,-4e-05,8e-05,0.00025,-0.00047,3,6
38378,-0.00063,-0.00012,4e-05,1e-05,-4e-05,8e-05,0.00025,-0.00047,3,6
38379,-0.00063,-0.00012,4e-05,1e-05,-4e-05,8e-05,0.00025,-0.00047,3,6
38380,-0.00063,-0.00012,4e-05,1e-05,-4e-05,8e-05,0.00025,-0.00047,3,6
38381,-0.00063,-0.00012,4e-05,1e-05,-4e-05,8e-05,0.00025,-0.00047,3,6
38382,-0.00063,-0.00012,4e-05,1e-05,-4e-05,8e-05,0.00025,-0.00047,3,6
38383,-0.00063,-0.00012,4e-05,1e-05,-4e-05,8e-05,0.00025,-0.00047,3,6
38384,-0.00063,-0.00012,4e-05,1e-05,-4e-05,8e-05,0.00025,-0.00047,3,6
38385,-0.00063,-0.00012,4e-05,1e-05,-4e-05,8e-05,0.00025,-0.00047,3,6
38386,-0.00063,-0.00012,4e-05,1e-05,-4e-05,8e-05,0.00025,-0.00047,3,6
38388,-0.00063,-0.00012,4e-05,1e-05,-4e-05,8e-05,0.00025,-0.00047,3,6
38389,-0.00063,-0.00012,4e-05,1e-05,-4e-05,8e-05,0.00025,-0.00047,3,6
38390,-0.00063,-0.00012,4e-05,1e-05,-4e-05,8e-05,0.00025,-0.00047,3,6
38391,-0.00063,-0.00012,4e-05,1e-05,-4e-05,8e-05,0.00025,-0.00047,3,6
38392,-0.00063,-0.00012,4e-05,1e-05,-4e-05,8e-05,0.00025,-0.00047,3,6
38393,-0.00063,-0.00012,4e-05,1e-05,-4e-05,8e-05,0.00025,-0.00047,3,6
38394,-0.00063,-0.00012,4e-05,1e-05,-4e-05,8e-05,0.00025,-0.00047,3,6
38395,-0.00063,-0.00012,4e-05,1e-05,-4e-05,8e-05,0.00025,-0.00047,3,6
38396,-0.00063,-0.00012,4e-05,1e-05,-4e-05,8e-05,0.00025,-0.00047,3,6
38397,-0.00063,-0.00012,4e-05,1e-05,-4e-05,8e-05,0.00025,-0.00047,3,6
38398,-0.00063,-0.00012,4e-05,1e-05,-4e-05,8e-05,0.00025,-0.00047,3,6
38399,-0.00063,-0.00012,4e-05,1e-05,-4e-05,8e-05,0.00025,-0.00047,3,6
38400,-0.00063,-0.00012,4e-05,1e-05,-4e-05,8e-05,0.00025,-0.00047,3,6
38401,-0.00063,-0.00012,4e-05,1e-05,-4e-05,8e-05,0.00025,-0.00047,3,6
38402,-0.00063,-0.00012,4e-05,1e-05,-4e-05,8e-05,0.00025,-0.00047,3,6
38403,-0.00063,-0.00012,4e-05,1e-05,-4e-05,8e-05,0.00025,-0.00047,3,6
38404,0.00042,5e-05,-0.00012,-0.00016,-0.00024,-0.00016,9e-05,0.00039,3,6
38405,0.0002,-8e-05,-6e-05,-5e-05,-1e-05,2e-05,-5e-05,-0.00019,3,6
38406,0.0002,-8e-05,-6e-05,-5e-05,-1e-05,2e-05,-5e-05,-0.00019,3,6
38407,0.0002,-8e-05,-6e-05,-5e-05,-1e-05,2e-05,-5e-05,-0.00019,3,6
38408,0.0002,-8e-05,-6e-05,-5e-05,-1e-05,2e-05,-5e-05,-0.00019,3,6
38409,0.0002,-8e-05,-6e-05,-5e-05,-1e-05,2e-05,-5e-05,-0.00019,3,6
38410,0.00036,0.00014,6e-05,2e-05,-0.00019,-0.0002,4e-05,-0.00013,3,6
38411,-0.00093,-0.00031,-0.00012,0,-2e-05,0.0001,0.00014,-0.00058,3,6
38412,-0.00093,-0.00031,-0.00012,0,-2e-05,0.0001,0.00014,-0.00058,3,6
38413,-0.00093,-0.00031,-0.00012,0,-2e-05,0.0001,0.00014,-0.00058,3,6
38414,-0.00093,-0.00031,-0.00012,0,-2e-05,0.0001,0.00014,-0.00058,3,6
38415,-0.00093,-0.00031,-0.00012,0,-2e-05,0.0001,0.00014,-0.00058,3,6
38416,-0.00093,-0.00031,-0.00012,0,-2e-05,0.0001,0.00014,-0.00058,3,6
38417,0.00045,0.00013,2e-05,5e-05,-4e-05,-0.0001,-0.00014,0.00029,3,6
38418,0.00022,0.00013,-9e-05,-7e-05,2e-05,-7e-05,-0.00014,-3e-05,3,6
38419,0.00022,0.00013,-9e-05,-7e-05,2e-05,-7e-05,-0.00014,-3e-05,3,6
38420,0.00022,0.00013,-9e-05,-7e-05,2e-05,-7e-05,-0.00014,-3e-05,3,6
38421,0.00022,0.00013,-9e-05,-7e-05,2e-05,-7e-05,-0.00014,-3e-05,3,6
38422,0.00022,0.00013,-9e-05,-7e-05,2e-05,-7e-05,-0.00014,-3e-05,3,6
38423,0.00022,0.00013,-9e-05,-7e-05,2e-05,-7e-05,-0.00014,-3e-05,3,6
38424,0.00022,0.00013,-9e-05,-7e-05,2e-05,-7e-05,-0.00014,-3e-05,3,6
38425,0.00022,0.00013,-9e-05,-7e-05,2e-05,-7e-05,-0.00014,-3e-05,3,6
38426,0.00022,0.00013,-9e-05,-7e-05,2e-05,-7e-05,-0.00014,-3e-05,3,6
38427,0.00022,0.00013,-9e-05,-7e-05,2e-05,-7e-05,-0.00014,-3e-05,3,6
38428,0.00022,0.00013,-9e-05,-7e-05,2e-05,-7e-05,-0.00014,-3e-05,3,6
38429,0.00022,0.00013,-9e-05,-7e-05,2e-05,-7e-05,-0.00014,-3e-05,3,6
38430,0.00022,0.00013,-9e-05,-7e-05,2e-05,-7e-05,-0.00014,-3e-05,3,6
38431,0.00022,0.00013,-9e-05,-7e-05,2e-05,-7e-05,-0.00014,-3e-05,3,6
38432,0.00022,0.00013,-9e-05,-7e-05,2e-05,-7e-05,-0.00014,-3e-05,3,6
38433,0.00022,0.00013,-9e-05,-7e-05,2e-05,-7e-05,-0.00014,-3e-05,3,6
38434,-0.00031,2e-05,-2e-05,-0.0001,-6e-05,4e-05,-2e-05,-0.00011,3,6
38435,-0.00031,2e-05,-2e-05,-0.0001,-6e-05,4e-05,-2e-05,-0.00011,3,6
38436,-0.00026,-0.0001,-7e-05,-7e-05,-9e-05,0.00027,0.00021,6e-05,3,6
38438,-0.00026,-0.0001,-7e-05,-7e-05,-9e-05,0.00027,0.00021,6e-05,3,6
38439,-0.00026,-0.0001,-7e-05,-7e-05,-9e-05,0.00027,0.00021,6e-05,3,6
38440,-0.00026,-0.0001,-7e-05,-7e-05,-9e-05,0.00027,0.00021,6e-05,3,6
38441,-0.00026,-0.0001,-7e-05,-7e-05,-9e-05,0.00027,0.00021,6e-05,3,6
38442,-0.00026,-0.0001,-7e-05,-7e-05,-9e-05,0.00027,0.00021,6e-05,3,6
38443,-0.00026,-0.0001,-7e-05,-7e-05,-9e-05,0.00027,0.00021,6e-05,3,6
38444,-0.00026,-0.0001,-7e-05,-7e-05,-9e-05,0.00027,0.00021,6e-05,3,6
38445,-0.00026,-0.0001,-7e-05,-7e-05,-9e-05,0.00027,0.00021,6e-05,3,6
38446,-0.00026,-0.0001,-7e-05,-7e-05,-9e-05,0.00027,0.00021,6e-05,3,6
38447,-0.00026,-0.0001,-7e-05,-7e-05,-9e-05,0.00027,0.00021,6e-05,3,6
38448,-0.00026,-0.0001,-7e-05,-7e-05,-9e-05,0.00027,0.00021,6e-05,3,6
38449,-0.00026,-0.0001,-7e-05,-7e-05,-9e-05,0.00027,0.00021,6e-05,3,6
38450,-0.00026,-0.0001,-7e-05,-7e-05,-9e-05,0.00027,0.00021,6e-05,3,6
38451,-0.00026,-0.0001,-7e-05,-7e-05,-9e-05,0.00027,0.00021,6e-05,3,6
38452,-0.00026,-0.0001,-7e-05,-7e-05,-9e-05,0.00027,0.00021,6e-05,3,6
38453,-0.00026,-0.0001,-7e-05,-7e-05,-9e-05,0.00027,0.00021,6e-05,3,6
38454,-0.00026,-0.0001,-7e-05,-7e-05,-9e-05,0.00027,0.00021,6e-05,3,6
38455,-0.00026,-0.0001,-7e-05,-7e-05,-9e-05,0.00027,0.00021,6e-05,3,6
38456,0.00024,7e-05,6e-05,4e-05,8e-05,-0.00011,-0.00036,8e-05,3,6
38457,0.00024,7e-05,6e-05,4e-05,8e-05,-0.00011,-0.00036,8e-05,3,6
38458,0.00052,0.00015,0,1e-05,9e-05,3e-05,-0.00024,0.00017,3,6
38459,0.00052,0.00015,0,1e-05,9e-05,3e-05,-0.00024,0.00017,3,6
38460,0.00052,0.00015,0,1e-05,9e-05,3e-05,-0.00024,0.00017,3,6
38461,0.00052,0.00015,0,1e-05,9e-05,3e-05,-0.00024,0.00017,3,6
38462,0.00052,0.00015,0,1e-05,9e-05,3e-05,-0.00024,0.00017,3,6
38463,0.00052,0.00015,0,1e-05,9e-05,3e-05,-0.00024,0.00017,3,6
38464,0.00052,0.00015,0,1e-05,9e-05,3e-05,-0.00024,0.00017,3,6
38465,0.00052,0.00015,0,1e-05,9e-05,3e-05,-0.00024,0.00017,3,6
38466,0.00052,0.00015,0,1e-05,9e-05,3e-05,-0.00024,0.00017,3,6
38467,0.00052,0.00015,0,1e-05,9e-05,3e-05,-0.00024,0.00017,3,6
38468,0.00052,0.00015,0,1e-05,9e-05,3e-05,-0.00024,0.00017,3,6
38469,0.00052,0.00015,0,1e-05,9e-05,3e-05,-0.00024,0.00017,3,6
38470,0.00052,0.00015,0,1e-05,9e-05,3e-05,-0.00024,0.00017,3,6
38471,-0.00063,-7e-05,-9e-05,-0.00013,-8e-05,-0.00012,-0.00012,-0.00023,3,6
38473,-0.00063,-7e-05,-9e-05,-0.00013,-8e-05,-0.00012,-0.00012,-0.00023,3,6
38474,-0.00063,-7e-05,-9e-05,-0.00013,-8e-05,-0.00012,-0.00012,-0.00023,3,6
38475,-0.00063,-7e-05,-9e-05,-0.00013,-8e-05,-0.00012,-0.00012,-0.00023,3,6
38476,-0.00063,-7e-05,-9e-05,-0.00013,-8e-05,-0.00012,-0.00012,-0.00023,3,6
38477,0.00015,-6e-05,2e-05,5e-05,-5e-05,-0.00018,-0.00017,0.00012,3,6
38478,0.00015,-6e-05,2e-05,5e-05,-5e-05,-0.00018,-0.00017,0.00012,3,6
38479,0.00015,-6e-05,2e-05,5e-05,-5e-05,-0.00018,-0.00017,0.00012,3,6
38480,0.00015,-6e-05,2e-05,5e-05,-5e-05,-0.00018,-0.00017,0.00012,3,6
38481,0.00015,-6e-05,2e-05,5e-05,-5e-05,-0.00018,-0.00017,0.00012,3,6
38482,0.00015,-6e-05,2e-05,5e-05,-5e-05,-0.00018,-0.00017,0.00012,3,6
38483,0.00015,-6e-05,2e-05,5e-05,-5e-05,-0.00018,-0.00017,0.00012,3,6
38484,0.00015,-6e-05,2e-05,5e-05,-5e-05,-0.00018,-0.00017,0.00012,3,6
38485,0.00015,-6e-05,2e-05,5e-05,-5e-05,-0.00018,-0.00017,0.00012,3,6
38486,0.00015,-6e-05,2e-05,5e-05,-5e-05,-0.00018,-0.00017,0.00012,3,6
38488,0.00015,-6e-05,2e-05,5e-05,-5e-05,-0.00018,-0.00017,0.00012,3,6
38489,0.00015,-6e-05,2e-05,5e-05,-5e-05,-0.00018,-0.00017,0.00012,3,6
38490,0.00015,-6e-05,2e-05,5e-05,-5e-05,-0.00018,-0.00017,0.00012,3,6
38491,0.00015,-6e-05,2e-05,5e-05,-5e-05,-0.00018,-0.00017,0.00012,3,6
38492,0.00015,-6e-05,2e-05,5e-05,-5e-05,-0.00018,-0.00017,0.00012,3,6
38493,0.00015,-6e-05,2e-05,5e-05,-5e-05,-0.00018,-0.00017,0.00012,3,6
38494,0.00053,0.00011,3e-05,3e-05,-4e-05,0,-0.00018,-0.00025,3,6
38495,-0.00024,3e-05,0,-6e-05,-0.00014,-8e-05,-6e-05,9e-05,3,6
38496,-0.00024,3e-05,0,-6e-05,-0.00014,-8e-05,-6e-05,9e-05,3,6
38497,-0.00024,3e-05,0,-6e-05,-0.00014,-8e-05,-6e-05,9e-05,3,6
38498,-0.00024,3e-05,0,-6e-05,-0.00014,-8e-05,-6e-05,9e-05,3,6
38499,-0.00024,3e-05,0,-6e-05,-0.00014,-8e-05,-6e-05,9e-05,3,6
38500,-0.00024,3e-05,0,-6e-05,-0.00014,-8e-05,-6e-05,9e-05,3,6
38501,-0.00024,3e-05,0,-6e-05,-0.00014,-8e-05,-6e-05,9e-05,3,6
38502,-0.00024,3e-05,0,-6e-05,-0.00014,-8e-05,-6e-05,9e-05,3,6
38503,-0.00024,3e-05,0,-6e-05,-0.00014,-8e-05,-6e-05,9e-05,3,6
38504,-0.00024,3e-05,0,-6e-05,-0.00014,-8e-05,-6e-05,9e-05,3,6
38505,-0.00024,3e-05,0,-6e-05,-0.00014,-8e-05,-6e-05,9e-05,3,6
38506,-0.00024,3e-05,0,-6e-05,-0.00014,-8e-05,-6e-05,9e-05,3,6
38507,-0.00024,3e-05,0,-6e-05,-0.00014,-8e-05,-6e-05,9e-05,3,6
38508,-0.00024,3e-05,0,-6e-05,-0.00014,-8e-05,-6e-05,9e-05,3,6
38509,-0.00024,3e-05,0,-6e-05,-0.00014,-8e-05,-6e-05,9e-05,3,6
38510,-0.00024,3e-05,0,-6e-05,-0.00014,-8e-05,-6e-05,9e-05,3,6
38511,-0.00024,3e-05,0,-6e-05,-0.00014,-8e-05,-6e-05,9e-05,3,6
38512,-0.00024,3e-05,0,-6e-05,-0.00014,-8e-05,-6e-05,9e-05,3,6
38513,-0.00024,3e-05,0,-6e-05,-0.00014,-8e-05,-6e-05,9e-05,3,6
38514,-0.00024,3e-05,0,-6e-05,-0.00014,-8e-05,-6e-05,9e-05,3,6
38515,-0.00024,3e-05,0,-6e-05,-0.00014,-8e-05,-6e-05,9e-05,3,6
38516,-0.00024,3e-05,0,-6e-05,-0.00014,-8e-05,-6e-05,9e-05,3,6
38517,-0.00101,-7e-05,6e-05,7e-05,-5e-05,1e-05,-4e-05,-0.00055,3,6
38518,0.00027,1e-05,0,-5e-05,0,-7e-05,3e-05,9e-05,3,6
38519,0.00027,1e-05,0,-5e-05,0,-7e-05,3e-05,9e-05,3,6
38520,0.00027,1e-05,0,-5e-05,0,-7e-05,3e-05,9e-05,3,6
38521,0.00027,1e-05,0,-5e-05,0,-7e-05,3e-05,9e-05,3,6
38522,0.00027,1e-05,0,-5e-05,0,-7e-05,3e-05,9e-05,3,6
38523,0.00027,1e-05,0,-5e-05,0,-7e-05,3e-05,9e-05,3,6
38524,0.00027,1e-05,0,-5e-05,0,-7e-05,3e-05,9e-05,3,6
38525,0.00027,1e-05,0,-5e-05,0,-7e-05,3e-05,9e-05,3,6
38526,0.00027,1e-05,0,-5e-05,0,-7e-05,3e-05,9e-05,3,6
38527,0.00027,1e-05,0,-5e-05,0,-7e-05,3e-05,9e-05,3,6
38528,0.00027,1e-05,0,-5e-05,0,-7e-05,3e-05,9e-05,3,6
38529,0.00027,1e-05,0,-5e-05,0,-7e-05,3e-05,9e-05,3,6
38530,0.00027,1e-05,0,-5e-05,0,-7e-05,3e-05,9e-05,3,6
38532,0.00027,1e-05,0,-5e-05,0,-7e-05,3e-05,9e-05,3,6
38533,-0.00016,-1e-05,1e-05,1e-05,4e-05,3e-05,0.0001,0.00035,3,6
38534,-0.00016,-1e-05,1e-05,1e-05,4e-05,3e-05,0.0001,0.00035,3,6
38535,-0.00016,-1e-05,1e-05,1e-05,4e-05,3e-05,0.0001,0.00035,3,6
38536,-0.00016,-1e-05,1e-05,1e-05,4e-05,3e-05,0.0001,0.00035,3,6
38538,-0.00016,-1e-05,1e-05,1e-05,4e-05,3e-05,0.0001,0.00035,3,6
38539,-0.00016,-1e-05,1e-05,1e-05,4e-05,3e-05,0.0001,0.00035,3,6
38540,-0.00016,-1e-05,1e-05,1e-05,4e-05,3e-05,0.0001,0.00035,3,6
38541,-0.00016,-1e-05,1e-05,1e-05,4e-05,3e-05,0.0001,0.00035,3,6
38542,-0.00016,-1e-05,1e-05,1e-05,4e-05,3e-05,0.0001,0.00035,3,6
38543,-0.00016,-1e-05,1e-05,1e-05,4e-05,3e-05,0.0001,0.00035,3,6
38544,-0.00016,-1e-05,1e-05,1e-05,4e-05,3e-05,0.0001,0.00035,3,6
38545,0.00076,0.00016,-7e-05,-7e-05,-3e-05,-0.00021,-9e-05,0.00044,3,6
38546,0.00076,0.00016,-7e-05,-7e-05,-3e-05,-0.00021,-9e-05,0.00044,3,6
38547,0.00076,0.00016,-7e-05,-7e-05,-3e-05,-0.00021,-9e-05,0.00044,3,6
38548,0.00076,0.00016,-7e-05,-7e-05,-3e-05,-0.00021,-9e-05,0.00044,3,6
38549,0.00076,0.00016,-7e-05,-7e-05,-3e-05,-0.00021,-9e-05,0.00044,3,6
38550,0.00076,0.00016,-7e-05,-7e-05,-3e-05,-0.00021,-9e-05,0.00044,3,6
38551,0.00076,0.00016,-7e-05,-7e-05,-3e-05,-0.00021,-9e-05,0.00044,3,6
38552,0.00076,0.00016,-7e-05,-7e-05,-3e-05,-0.00021,-9e-05,0.00044,3,6
38553,0.00076,0.00016,-7e-05,-7e-05,-3e-05,-0.00021,-9e-05,0.00044,3,6
38554,0.00076,0.00016,-7e-05,-7e-05,-3e-05,-0.00021,-9e-05,0.00044,3,6
38555,-0.0005,-0.00019,-8e-05,-3e-05,-6e-05,0,0.00023,0.00028,3,6
38556,-0.0005,-0.00019,-8e-05,-3e-05,-6e-05,0,0.00023,0.00028,3,6
38557,-0.0005,-0.00019,-8e-05,-3e-05,-6e-05,0,0.00023,0.00028,3,6
38558,-0.0005,-0.00019,-8e-05,-3e-05,-6e-05,0,0.00023,0.00028,3,6
38561,-0.0005,-0.00019,-8e-05,-3e-05,-6e-05,0,0.00023,0.00028,3,6
38562,-0.0005,-0.00019,-8e-05,-3e-05,-6e-05,0,0.00023,0.00028,3,6
38563,-0.0005,-0.00019,-8e-05,-3e-05,-6e-05,0,0.00023,0.00028,3,6
38564,-0.0005,-0.00019,-8e-05,-3e-05,-6e-05,0,0.00023,0.00028,3,6
38565,-0.0005,-0.00019,-8e-05,-3e-05,-6e-05,0,0.00023,0.00028,3,6
38566,-0.0005,-0.00019,-8e-05,-3e-05,-6e-05,0,0.00023,0.00028,3,6
38567,0.0002,2e-05,-3e-05,-8e-05,-0.00013,-0.0002,-0.00013,0.00018,3,6
38568,-7e-05,-3e-05,-7e-05,-8e-05,7e-05,1e-05,0.00011,-0.00018,3,6
38569,-7e-05,-3e-05,-7e-05,-8e-05,7e-05,1e-05,0.00011,-0.00018,3,6
38570,-7e-05,-3e-05,-7e-05,-8e-05,7e-05,1e-05,0.00011,-0.00018,3,6
38571,-7e-05,-3e-05,-7e-05,-8e-05,7e-05,1e-05,0.00011,-0.00018,3,6
38572,-7e-05,-3e-05,-7e-05,-8e-05,7e-05,1e-05,0.00011,-0.00018,3,6
38573,-7e-05,-3e-05,-7e-05,-8e-05,7e-05,1e-05,0.00011,-0.00018,3,6
38574,-7e-05,-3e-05,-7e-05,-8e-05,7e-05,1e-05,0.00011,-0.00018,3,6
38575,-7e-05,-3e-05,-7e-05,-8e-05,7e-05,1e-05,0.00011,-0.00018,3,6
38576,0.00035,4e-05,-2e-05,-6e-05,-7e-05,-0.00011,-0.00017,-0.00023,3,6
38577,0.00035,4e-05,-2e-05,-6e-05,-7e-05,-0.00011,-0.00017,-0.00023,3,6
38578,-0.00068,-0.00044,-1e-05,6e-05,0,9e-05,0.00027,-0.0002,3,6
38579,-0.00068,-0.00044,-1e-05,6e-05,0,9e-05,0.00027,-0.0002,3,6
38580,-0.00068,-0.00044,-1e-05,6e-05,0,9e-05,0.00027,-0.0002,3,6
38581,-0.00068,-0.00044,-1e-05,6e-05,0,9e-05,0.00027,-0.0002,3,6
38582,-0.00068,-0.00044,-1e-05,6e-05,0,9e-05,0.00027,-0.0002,3,6
38583,-0.00068,-0.00044,-1e-05,6e-05,0,9e-05,0.00027,-0.0002,3,6
38584,-0.00068,-0.00044,-1e-05,6e-05,0,9e-05,0.00027,-0.0002,3,6
38585,-0.00068,-0.00044,-1e-05,6e-05,0,9e-05,0.00027,-0.0002,3,6
38586,-0.00068,-0.00044,-1e-05,6e-05,0,9e-05,0.00027,-0.0002,3,6
38588,-0.00068,-0.00044,-1e-05,6e-05,0,9e-05,0.00027,-0.0002,3,6
38589,-0.00068,-0.00044,-1e-05,6e-05,0,9e-05,0.00027,-0.0002,3,6
38590,-0.00068,-0.00044,-1e-05,6e-05,0,9e-05,0.00027,-0.0002,3,6
38591,-0.00068,-0.00044,-1e-05,6e-05,0,9e-05,0.00027,-0.0002,3,6
38592,-0.00068,-0.00044,-1e-05,6e-05,0,9e-05,0.00027,-0.0002,3,6
38593,-0.00068,-0.00044,-1e-05,6e-05,0,9e-05,0.00027,-0.0002,3,6
38594,-0.00068,-0.00044,-1e-05,6e-05,0,9e-05,0.00027,-0.0002,3,6
38595,-0.00068,-0.00044,-1e-05,6e-05,0,9e-05,0.00027,-0.0002,3,6
38596,-0.00068,-0.00044,-1e-05,6e-05,0,9e-05,0.00027,-0.0002,3,6
38597,-0.00068,-0.00044,-1e-05,6e-05,0,9e-05,0.00027,-0.0002,3,6
38598,-0.00068,-0.00044,-1e-05,6e-05,0,9e-05,0.00027,-0.0002,3,6
38599,-0.00068,-0.00044,-1e-05,6e-05,0,9e-05,0.00027,-0.0002,3,6
38600,-0.00068,-0.00044,-1e-05,6e-05,0,9e-05,0.00027,-0.0002,3,6
38601,-0.00068,-0.00044,-1e-05,6e-05,0,9e-05,0.00027,-0.0002,3,6
38602,-0.00068,-0.00044,-1e-05,6e-05,0,9e-05,0.00027,-0.0002,3,6
38603,-0.00068,-0.00044,-1e-05,6e-05,0,9e-05,0.00027,-0.0002,3,6
38604,-0.00068,-0.00044,-1e-05,6e-05,0,9e-05,0.00027,-0.0002,3,6
38605,-0.00068,-0.00044,-1e-05,6e-05,0,9e-05,0.00027,-0.0002,3,6
38606,-0.00068,-0.00044,-1e-05,6e-05,0,9e-05,0.00027,-0.0002,3,6
38607,-0.00068,-0.00044,-1e-05,6e-05,0,9e-05,0.00027,-0.0002,3,6
38608,-0.00068,-0.00044,-1e-05,6e-05,0,9e-05,0.00027,-0.0002,3,6
38609,-0.00068,-0.00044,-1e-05,6e-05,0,9e-05,0.00027,-0.0002,3,6
38610,-0.00068,-0.00044,-1e-05,6e-05,0,9e-05,0.00027,-0.0002,3,6
38611,-0.00068,-0.00044,-1e-05,6e-05,0,9e-05,0.00027,-0.0002,3,6
38612,-0.00068,-0.00044,-1e-05,6e-05,0,9e-05,0.00027,-0.0002,3,6
38613,-0.00068,-0.00044,-1e-05,6e-05,0,9e-05,0.00027,-0.0002,3,6
38614,-0.00068,-0.00044,-1e-05,6e-05,0,9e-05,0.00027,-0.0002,3,6
38616,-0.00068,-0.00044,-1e-05,6e-05,0,9e-05,0.00027,-0.0002,3,6
38617,-0.00068,-0.00044,-1e-05,6e-05,0,9e-05,0.00027,-0.0002,3,6
38618,-0.00068,-0.00044,-1e-05,6e-05,0,9e-05,0.00027,-0.0002,3,6
38619,-0.00068,-0.00044,-1e-05,6e-05,0,9e-05,0.00027,-0.0002,3,6
38620,-0.00068,-0.00044,-1e-05,6e-05,0,9e-05,0.00027,-0.0002,3,6
38621,-0.00068,-0.00044,-1e-05,6e-05,0,9e-05,0.00027,-0.0002,3,6
38622,-0.00068,-0.00044,-1e-05,6e-05,0,9e-05,0.00027,-0.0002,3,6
38623,-0.00068,-0.00044,-1e-05,6e-05,0,9e-05,0.00027,-0.0002,3,6
38624,-0.00068,-0.00044,-1e-05,6e-05,0,9e-05,0.00027,-0.0002,3,6
38625,-0.00068,-0.00044,-1e-05,6e-05,0,9e-05,0.00027,-0.0002,3,6
38626,-0.00068,-0.00044,-1e-05,6e-05,0,9e-05,0.00027,-0.0002,3,6
38627,-0.00068,-0.00044,-1e-05,6e-05,0,9e-05,0.00027,-0.0002,3,6
38628,-0.00068,-0.00044,-1e-05,6e-05,0,9e-05,0.00027,-0.0002,3,6
38629,-0.00068,-0.00044,-1e-05,6e-05,0,9e-05,0.00027,-0.0002,3,6
38630,0.00015,3e-05,5e-05,9e-05,4e-05,-1e-05,-6e-05,0.00016,3,6
38631,0.00015,3e-05,5e-05,9e-05,4e-05,-1e-05,-6e-05,0.00016,3,6
38632,-0.0007,-8e-05,1e-05,-1e-05,-8e-05,-0.00012,-0.00012,-0.00016,3,6
38633,0.00058,6e-05,2e-05,2e-05,-4e-05,-0.00016,0.00014,0.0003,3,6
38634,0.00058,6e-05,2e-05,2e-05,-4e-05,-0.00016,0.00014,0.0003,3,6
38635,0.00058,6e-05,2e-05,2e-05,-4e-05,-0.00016,0.00014,0.0003,3,6
38636,0.00058,6e-05,2e-05,2e-05,-4e-05,-0.00016,0.00014,0.0003,3,6
38638,0.00058,6e-05,2e-05,2e-05,-4e-05,-0.00016,0.00014,0.0003,3,6
38639,-0.00014,-1e-05,1e-05,-4e-05,-8e-05,3e-05,-0.00028,-0.0002,3,6
38640,-0.00014,-1e-05,1e-05,-4e-05,-8e-05,3e-05,-0.00028,-0.0002,3,6
38641,-0.00014,-1e-05,1e-05,-4e-05,-8e-05,3e-05,-0.00028,-0.0002,3,6
38642,8e-05,2e-05,-1e-05,-2e-05,8e-05,7e-05,-8e-05,0.00024,3,6
38643,8e-05,2e-05,-1e-05,-2e-05,8e-05,7e-05,-8e-05,0.00024,3,6
38644,8e-05,2e-05,-1e-05,-2e-05,8e-05,7e-05,-8e-05,0.00024,3,6
38645,8e-05,2e-05,-1e-05,-2e-05,8e-05,7e-05,-8e-05,0.00024,3,6
38646,8e-05,2e-05,-1e-05,-2e-05,8e-05,7e-05,-8e-05,0.00024,3,6
38647,8e-05,2e-05,-1e-05,-2e-05,8e-05,7e-05,-8e-05,0.00024,3,6
38648,8e-05,2e-05,-1e-05,-2e-05,8e-05,7e-05,-8e-05,0.00024,3,6
38649,8e-05,2e-05,-1e-05,-2e-05,8e-05,7e-05,-8e-05,0.00024,3,6
38650,-0.00076,-0.0003,-0.00011,-8e-05,-2e-05,0.00013,9e-05,-0.00029,3,6
38651,-0.00076,-0.0003,-0.00011,-8e-05,-2e-05,0.00013,9e-05,-0.00029,3,6
38652,-0.00076,-0.0003,-0.00011,-8e-05,-2e-05,0.00013,9e-05,-0.00029,3,6
38653,-0.00076,-0.0003,-0.00011,-8e-05,-2e-05,0.00013,9e-05,-0.00029,3,6
38654,-0.00076,-0.0003,-0.00011,-8e-05,-2e-05,0.00013,9e-05,-0.00029,3,6
38655,-0.00076,-0.0003,-0.00011,-8e-05,-2e-05,0.00013,9e-05,-0.00029,3,6
38656,-0.00076,-0.0003,-0.00011,-8e-05,-2e-05,0.00013,9e-05,-0.00029,3,6
38657,-0.00076,-0.0003,-0.00011,-8e-05,-2e-05,0.00013,9e-05,-0.00029,3,6
38658,-0.00076,-0.0003,-0.00011,-8e-05,-2e-05,0.00013,9e-05,-0.00029,3,6
38659,-0.00076,-0.0003,-0.00011,-8e-05,-2e-05,0.00013,9e-05,-0.00029,3,6
38660,-0.00076,-0.0003,-0.00011,-8e-05,-2e-05,0.00013,9e-05,-0.00029,3,6
38661,-0.00076,-0.0003,-0.00011,-8e-05,-2e-05,0.00013,9e-05,-0.00029,3,6
38662,-0.00076,-0.0003,-0.00011,-8e-05,-2e-05,0.00013,9e-05,-0.00029,3,6
38663,-0.00076,-0.0003,-0.00011,-8e-05,-2e-05,0.00013,9e-05,-0.00029,3,6
38664,-0.00076,-0.0003,-0.00011,-8e-05,-2e-05,0.00013,9e-05,-0.00029,3,6
38665,-0.00076,-0.0003,-0.00011,-8e-05,-2e-05,0.00013,9e-05,-0.00029,3,6
38666,-0.00076,-0.0003,-0.00011,-8e-05,-2e-05,0.00013,9e-05,-0.00029,3,6
38667,-0.00076,-0.0003,-0.00011,-8e-05,-2e-05,0.00013,9e-05,-0.00029,3,6
38668,-0.00076,-0.0003,-0.00011,-8e-05,-2e-05,0.00013,9e-05,-0.00029,3,6
38669,-0.00076,-0.0003,-0.00011,-8e-05,-2e-05,0.00013,9e-05,-0.00029,3,6
38670,-0.00076,-0.0003,-0.00011,-8e-05,-2e-05,0.00013,9e-05,-0.00029,3,6
38671,-0.00076,-0.0003,-0.00011,-8e-05,-2e-05,0.00013,9e-05,-0.00029,3,6
38672,-0.00076,-0.0003,-0.00011,-8e-05,-2e-05,0.00013,9e-05,-0.00029,3,6
38673,-0.00076,-0.0003,-0.00011,-8e-05,-2e-05,0.00013,9e-05,-0.00029,3,6
38674,-0.00076,-0.0003,-0.00011,-8e-05,-2e-05,0.00013,9e-05,-0.00029,3,6
38675,-0.00076,-0.0003,-0.00011,-8e-05,-2e-05,0.00013,9e-05,-0.00029,3,6
38676,-0.00076,-0.0003,-0.00011,-8e-05,-2e-05,0.00013,9e-05,-0.00029,3,6
38677,-0.00076,-0.0003,-0.00011,-8e-05,-2e-05,0.00013,9e-05,-0.00029,3,6
38678,-0.00076,-0.0003,-0.00011,-8e-05,-2e-05,0.00013,9e-05,-0.00029,3,6
38679,-0.00076,-0.0003,-0.00011,-8e-05,-2e-05,0.00013,9e-05,-0.00029,3,6
38680,-0.00076,-0.0003,-0.00011,-8e-05,-2e-05,0.00013,9e-05,-0.00029,3,6
38681,-0.00076,-0.0003,-0.00011,-8e-05,-2e-05,0.00013,9e-05,-0.00029,3,6
38682,-0.00076,-0.0003,-0.00011,-8e-05,-2e-05,0.00013,9e-05,-0.00029,3,6
38683,-0.00061,-8e-05,-2e-05,1e-05,0.00016,0.00021,-0.00014,-0.00038,3,6
38684,-0.00025,-6e-05,-4e-05,1e-05,5e-05,1e-05,-9e-05,3e-05,3,6
38685,-0.00025,-6e-05,-4e-05,1e-05,5e-05,1e-05,-9e-05,3e-05,3,6
38686,-0.00025,-6e-05,-4e-05,1e-05,5e-05,1e-05,-9e-05,3e-05,3,6
38688,-0.00026,-8e-05,-6e-05,-7e-05,-6e-05,-0.00015,-0.00022,-0.0003,3,6
