10926,-0.00011,-0.00015,-2e-05,-7e-05,-4e-05,-0.00013,-7e-05,-0.00043,3,9
10927,-0.00011,-0.00015,-2e-05,-7e-05,-4e-05,-0.00013,-7e-05,-0.00043,3,9
10928,-0.00011,-0.00015,-2e-05,-7e-05,-4e-05,-0.00013,-7e-05,-0.00043,3,9
10929,-0.00011,-0.00015,-2e-05,-7e-05,-4e-05,-0.00013,-7e-05,-0.00043,3,9
10930,-0.00017,0.0001,6e-05,3e-05,4e-05,-3e-05,0.00022,0.00019,3,9
10931,-0.00017,0.0001,6e-05,3e-05,4e-05,-3e-05,0.00022,0.00019,3,9
10932,-0.00017,0.0001,6e-05,3e-05,4e-05,-3e-05,0.00022,0.00019,3,9
10933,-0.00017,0.0001,6e-05,3e-05,4e-05,-3e-05,0.00022,0.00019,3,9
10934,-0.00017,0.0001,6e-05,3e-05,4e-05,-3e-05,0.00022,0.00019,3,9
10935,-0.00017,0.0001,6e-05,3e-05,4e-05,-3e-05,0.00022,0.00019,3,9
10936,-0.00017,0.0001,6e-05,3e-05,4e-05,-3e-05,0.00022,0.00019,3,9
10939,0.00018,0.0004,3e-05,5e-05,3e-05,9e-05,-4e-05,0.00092,3,9
10940,0.00018,0.0004,3e-05,5e-05,3e-05,9e-05,-4e-05,0.00092,3,9
10941,0.00018,0.0004,3e-05,5e-05,3e-05,9e-05,-4e-05,0.00092,3,9
10942,0.00018,0.0004,3e-05,5e-05,3e-05,9e-05,-4e-05,0.00092,3,9
10943,0.00018,0.0004,3e-05,5e-05,3e-05,9e-05,-4e-05,0.00092,3,9
10944,0.00035,6e-05,2e-05,1e-05,-3e-05,-6e-05,-0.00011,7e-05,3,9
10945,7e-05,0.0001,-2e-05,-1e-05,-6e-05,-8e-05,-0.00017,0.0006,3,9
10946,7e-05,0.0001,-2e-05,-1e-05,-6e-05,-8e-05,-0.00017,0.0006,3,9
10947,7e-05,0.0001,-2e-05,-1e-05,-6e-05,-8e-05,-0.00017,0.0006,3,9
10948,7e-05,0.0001,-2e-05,-1e-05,-6e-05,-8e-05,-0.00017,0.0006,3,9
10949,7e-05,0.0001,-2e-05,-1e-05,-6e-05,-8e-05,-0.00017,0.0006,3,9
10950,7e-05,0.0001,-2e-05,-1e-05,-6e-05,-8e-05,-0.00017,0.0006,3,9
10951,7e-05,0.0001,-2e-05,-1e-05,-6e-05,-8e-05,-0.00017,0.0006,3,9
10952,7e-05,0.0001,-2e-05,-1e-05,-6e-05,-8e-05,-0.00017,0.0006,3,9
10953,7e-05,0.0001,-2e-05,-1e-05,-6e-05,-8e-05,-0.00017,0.0006,3,9
10954,7e-05,0.0001,-2e-05,-1e-05,-6e-05,-8e-05,-0.00017,0.0006,3,9
10955,7e-05,0.0001,-2e-05,-1e-05,-6e-05,-8e-05,-0.00017,0.0006,3,9
10956,7e-05,0.0001,-2e-05,-1e-05,-6e-05,-8e-05,-0.00017,0.0006,3,9
10957,7e-05,0.0001,-2e-05,-1e-05,-6e-05,-8e-05,-0.00017,0.0006,3,9
10958,7e-05,0.0001,-2e-05,-1e-05,-6e-05,-8e-05,-0.00017,0.0006,3,9
10959,7e-05,0.0001,-2e-05,-1e-05,-6e-05,-8e-05,-0.00017,0.0006,3,9
10960,7e-05,0.0001,-2e-05,-1e-05,-6e-05,-8e-05,-0.00017,0.0006,3,9
10961,7e-05,0.0001,-2e-05,-1e-05,-6e-05,-8e-05,-0.00017,0.0006,3,9
10962,7e-05,0.0001,-2e-05,-1e-05,-6e-05,-8e-05,-0.00017,0.0006,3,9
10963,7e-05,0.0001,-2e-05,-1e-05,-6e-05,-8e-05,-0.00017,0.0006,3,9
10964,7e-05,0.0001,-2e-05,-1e-05,-6e-05,-8e-05,-0.00017,0.0006,3,9
10965,7e-05,0.0001,-2e-05,-1e-05,-6e-05,-8e-05,-0.00017,0.0006,3,9
10966,7e-05,0.0001,-2e-05,-1e-05,-6e-05,-8e-05,-0.00017,0.0006,3,9
10967,-0.00031,-0.00062,-0.00015,-4e-05,-3e-05,-1e-05,0.0001,0.00075,3,9
10968,-4e-05,8e-05,-4e-05,-3e-05,-4e-05,2e-05,9e-05,0.00015,3,9
10969,-4e-05,8e-05,-4e-05,-3e-05,-4e-05,2e-05,9e-05,0.00015,3,9
10970,-4e-05,8e-05,-4e-05,-3e-05,-4e-05,2e-05,9e-05,0.00015,3,9
10971,-4e-05,8e-05,-4e-05,-3e-05,-4e-05,2e-05,9e-05,0.00015,3,9
10972,-4e-05,8e-05,-4e-05,-3e-05,-4e-05,2e-05,9e-05,0.00015,3,9
10973,-4e-05,8e-05,-4e-05,-3e-05,-4e-05,2e-05,9e-05,0.00015,3,9
10974,-4e-05,8e-05,-4e-05,-3e-05,-4e-05,2e-05,9e-05,0.00015,3,9
10975,-4e-05,8e-05,-4e-05,-3e-05,-4e-05,2e-05,9e-05,0.00015,3,9
10976,-4e-05,8e-05,-4e-05,-3e-05,-4e-05,2e-05,9e-05,0.00015,3,9
10977,-4e-05,8e-05,-4e-05,-3e-05,-4e-05,2e-05,9e-05,0.00015,3,9
10978,-4e-05,8e-05,-4e-05,-3e-05,-4e-05,2e-05,9e-05,0.00015,3,9
10979,-4e-05,8e-05,-4e-05,-3e-05,-4e-05,2e-05,9e-05,0.00015,3,9
10980,-4e-05,8e-05,-4e-05,-3e-05,-4e-05,2e-05,9e-05,0.00015,3,9
10981,-4e-05,8e-05,-4e-05,-3e-05,-4e-05,2e-05,9e-05,0.00015,3,9
10982,-4e-05,8e-05,-4e-05,-3e-05,-4e-05,2e-05,9e-05,0.00015,3,9
10983,-4e-05,8e-05,-4e-05,-3e-05,-4e-05,2e-05,9e-05,0.00015,3,9
10984,-4e-05,8e-05,-4e-05,-3e-05,-4e-05,2e-05,9e-05,0.00015,3,9
10985,-4e-05,8e-05,-4e-05,-3e-05,-4e-05,2e-05,9e-05,0.00015,3,9
10986,-4e-05,8e-05,-4e-05,-3e-05,-4e-05,2e-05,9e-05,0.00015,3,9
10988,-4e-05,8e-05,-4e-05,-3e-05,-4e-05,2e-05,9e-05,0.00015,3,9
10989,-4e-05,8e-05,-4e-05,-3e-05,-4e-05,2e-05,9e-05,0.00015,3,9
10990,-4e-05,0.00022,7e-05,-5e-05,-3e-05,-0.00013,-0.00018,-0.00093,3,9
10991,-4e-05,0.00022,7e-05,-5e-05,-3e-05,-0.00013,-0.00018,-0.00093,3,9
10992,-4e-05,0.00022,7e-05,-5e-05,-3e-05,-0.00013,-0.00018,-0.00093,3,9
10993,-4e-05,0.00022,7e-05,-5e-05,-3e-05,-0.00013,-0.00018,-0.00093,3,9
10994,-4e-05,0.00022,7e-05,-5e-05,-3e-05,-0.00013,-0.00018,-0.00093,3,9
10996,-4e-05,0.00022,7e-05,-5e-05,-3e-05,-0.00013,-0.00018,-0.00093,3,9
10997,-4e-05,0.00022,7e-05,-5e-05,-3e-05,-0.00013,-0.00018,-0.00093,3,9
10998,-4e-05,0.00022,7e-05,-5e-05,-3e-05,-0.00013,-0.00018,-0.00093,3,9
10999,-4e-05,0.00022,7e-05,-5e-05,-3e-05,-0.00013,-0.00018,-0.00093,3,9
11000,-4e-05,0.00022,7e-05,-5e-05,-3e-05,-0.00013,-0.00018,-0.00093,3,9
11001,-4e-05,0.00022,7e-05,-5e-05,-3e-05,-0.00013,-0.00018,-0.00093,3,9
11002,-4e-05,0.00022,7e-05,-5e-05,-3e-05,-0.00013,-0.00018,-0.00093,3,9
11003,-4e-05,0.00022,7e-05,-5e-05,-3e-05,-0.00013,-0.00018,-0.00093,3,9
11004,-4e-05,0.00022,7e-05,-5e-05,-3e-05,-0.00013,-0.00018,-0.00093,3,9
11005,-4e-05,0.00022,7e-05,-5e-05,-3e-05,-0.00013,-0.00018,-0.00093,3,9
11006,8e-05,-0.00015,-4e-05,2e-05,4e-05,4e-05,3e-05,0.00012,3,9
11007,-0.00023,-0.0003,-0.00011,-4e-05,-4e-05,-1e-05,0,9e-05,3,9
11008,-0.00029,-0.00027,4e-05,-3e-05,5e-05,0,-0.00014,-0.00087,3,9
11009,-0.00029,-0.00027,4e-05,-3e-05,5e-05,0,-0.00014,-0.00087,3,9
11010,-0.00029,-0.00027,4e-05,-3e-05,5e-05,0,-0.00014,-0.00087,3,9
11011,-0.00029,-0.00027,4e-05,-3e-05,5e-05,0,-0.00014,-0.00087,3,9
11012,-0.00029,-0.00027,4e-05,-3e-05,5e-05,0,-0.00014,-0.00087,3,9
11013,-0.00029,-0.00027,4e-05,-3e-05,5e-05,0,-0.00014,-0.00087,3,9
11014,-0.00029,-0.00027,4e-05,-3e-05,5e-05,0,-0.00014,-0.00087,3,9
11015,-0.00029,-0.00027,4e-05,-3e-05,5e-05,0,-0.00014,-0.00087,3,9
11016,-0.00029,-0.00027,4e-05,-3e-05,5e-05,0,-0.00014,-0.00087,3,9
11017,-0.00029,-0.00027,4e-05,-3e-05,5e-05,0,-0.00014,-0.00087,3,9
11018,-0.00029,-0.00027,4e-05,-3e-05,5e-05,0,-0.00014,-0.00087,3,9
11019,-0.00029,-0.00027,4e-05,-3e-05,5e-05,0,-0.00014,-0.00087,3,9
11020,-0.00029,-0.00027,4e-05,-3e-05,5e-05,0,-0.00014,-0.00087,3,9
11021,-0.00029,-0.00027,4e-05,-3e-05,5e-05,0,-0.00014,-0.00087,3,9
11022,-0.00029,-0.00027,4e-05,-3e-05,5e-05,0,-0.00014,-0.00087,3,9
11023,-0.00029,-0.00027,4e-05,-3e-05,5e-05,0,-0.00014,-0.00087,3,9
11024,-0.00029,-0.00027,4e-05,-3e-05,5e-05,0,-0.00014,-0.00087,3,9
11025,-0.00029,-0.00027,4e-05,-3e-05,5e-05,0,-0.00014,-0.00087,3,9
11026,-0.00029,-0.00027,4e-05,-3e-05,5e-05,0,-0.00014,-0.00087,3,9
11027,0.00027,6e-05,2e-05,3e-05,1e-05,-1e-05,-8e-05,5e-05,3,9
11028,5e-05,-0.00058,-0.0001,-2e-05,-1e-05,-2e-05,3e-05,0.00081,3,9
11029,5e-05,-0.00058,-0.0001,-2e-05,-1e-05,-2e-05,3e-05,0.00081,3,9
11030,5e-05,-0.00058,-0.0001,-2e-05,-1e-05,-2e-05,3e-05,0.00081,3,9
11031,5e-05,-0.00058,-0.0001,-2e-05,-1e-05,-2e-05,3e-05,0.00081,3,9
11032,5e-05,-0.00058,-0.0001,-2e-05,-1e-05,-2e-05,3e-05,0.00081,3,9
11033,5e-05,-0.00058,-0.0001,-2e-05,-1e-05,-2e-05,3e-05,0.00081,3,9
11034,5e-05,-0.00058,-0.0001,-2e-05,-1e-05,-2e-05,3e-05,0.00081,3,9
11035,5e-05,-0.00058,-0.0001,-2e-05,-1e-05,-2e-05,3e-05,0.00081,3,9
11036,5e-05,-0.00058,-0.0001,-2e-05,-1e-05,-2e-05,3e-05,0.00081,3,9
11038,5e-05,-0.00058,-0.0001,-2e-05,-1e-05,-2e-05,3e-05,0.00081,3,9
11039,5e-05,-0.00058,-0.0001,-2e-05,-1e-05,-2e-05,3e-05,0.00081,3,9
11040,5e-05,-0.00058,-0.0001,-2e-05,-1e-05,-2e-05,3e-05,0.00081,3,9
11041,5e-05,-0.00058,-0.0001,-2e-05,-1e-05,-2e-05,3e-05,0.00081,3,9
11042,5e-05,-0.00058,-0.0001,-2e-05,-1e-05,-2e-05,3e-05,0.00081,3,9
11043,5e-05,-0.00058,-0.0001,-2e-05,-1e-05,-2e-05,3e-05,0.00081,3,9
11044,5e-05,-0.00058,-0.0001,-2e-05,-1e-05,-2e-05,3e-05,0.00081,3,9
11045,5e-05,-0.00058,-0.0001,-2e-05,-1e-05,-2e-05,3e-05,0.00081,3,9
11046,5e-05,-0.00058,-0.0001,-2e-05,-1e-05,-2e-05,3e-05,0.00081,3,9
11047,5e-05,-0.00058,-0.0001,-2e-05,-1e-05,-2e-05,3e-05,0.00081,3,9
11048,5e-05,-0.00058,-0.0001,-2e-05,-1e-05,-2e-05,3e-05,0.00081,3,9
11049,4e-05,0.00031,7e-05,2e-05,0,3e-05,-9e-05,0.00095,3,9
11050,-0.00014,7e-05,0.0001,8e-05,0.00011,0.00012,-0.00025,-0.00081,3,9
11051,-0.00014,7e-05,0.0001,8e-05,0.00011,0.00012,-0.00025,-0.00081,3,9
11052,-0.00014,7e-05,0.0001,8e-05,0.00011,0.00012,-0.00025,-0.00081,3,9
11053,-0.00014,7e-05,0.0001,8e-05,0.00011,0.00012,-0.00025,-0.00081,3,9
11054,-0.00014,7e-05,0.0001,8e-05,0.00011,0.00012,-0.00025,-0.00081,3,9
11055,-0.00014,7e-05,0.0001,8e-05,0.00011,0.00012,-0.00025,-0.00081,3,9
11056,-0.00014,7e-05,0.0001,8e-05,0.00011,0.00012,-0.00025,-0.00081,3,9
11057,-0.00014,7e-05,0.0001,8e-05,0.00011,0.00012,-0.00025,-0.00081,3,9
11058,-0.00014,7e-05,0.0001,8e-05,0.00011,0.00012,-0.00025,-0.00081,3,9
11059,-0.00014,7e-05,0.0001,8e-05,0.00011,0.00012,-0.00025,-0.00081,3,9
11060,-0.00014,7e-05,0.0001,8e-05,0.00011,0.00012,-0.00025,-0.00081,3,9
11061,-0.00014,7e-05,0.0001,8e-05,0.00011,0.00012,-0.00025,-0.00081,3,9
11062,-0.00014,7e-05,0.0001,8e-05,0.00011,0.00012,-0.00025,-0.00081,3,9
11063,-0.00014,7e-05,0.0001,8e-05,0.00011,0.00012,-0.00025,-0.00081,3,9
11064,-9e-05,-1e-05,1e-05,1e-05,2e-05,0.0001,-4e-05,-0.00061,3,9
11065,-5e-05,9e-05,3e-05,3e-05,7e-05,-3e-05,-5e-05,0.00087,3,9
11066,-5e-05,9e-05,3e-05,3e-05,7e-05,-3e-05,-5e-05,0.00087,3,9
11067,-5e-05,9e-05,3e-05,3e-05,7e-05,-3e-05,-5e-05,0.00087,3,9
11068,-5e-05,9e-05,3e-05,3e-05,7e-05,-3e-05,-5e-05,0.00087,3,9
11069,-5e-05,9e-05,3e-05,3e-05,7e-05,-3e-05,-5e-05,0.00087,3,9
11070,-5e-05,9e-05,3e-05,3e-05,7e-05,-3e-05,-5e-05,0.00087,3,9
11071,-5e-05,9e-05,3e-05,3e-05,7e-05,-3e-05,-5e-05,0.00087,3,9
11072,-5e-05,9e-05,3e-05,3e-05,7e-05,-3e-05,-5e-05,0.00087,3,9
11073,-5e-05,9e-05,3e-05,3e-05,7e-05,-3e-05,-5e-05,0.00087,3,9
11074,-5e-05,9e-05,3e-05,3e-05,7e-05,-3e-05,-5e-05,0.00087,3,9
11075,-5e-05,9e-05,3e-05,3e-05,7e-05,-3e-05,-5e-05,0.00087,3,9
11076,-5e-05,9e-05,3e-05,3e-05,7e-05,-3e-05,-5e-05,0.00087,3,9
11077,-5e-05,9e-05,3e-05,3e-05,7e-05,-3e-05,-5e-05,0.00087,3,9
11078,-5e-05,9e-05,3e-05,3e-05,7e-05,-3e-05,-5e-05,0.00087,3,9
11079,-5e-05,9e-05,3e-05,3e-05,7e-05,-3e-05,-5e-05,0.00087,3,9
11080,-5e-05,9e-05,3e-05,3e-05,7e-05,-3e-05,-5e-05,0.00087,3,9
11081,-5e-05,9e-05,3e-05,3e-05,7e-05,-3e-05,-5e-05,0.00087,3,9
11082,-5e-05,9e-05,3e-05,3e-05,7e-05,-3e-05,-5e-05,0.00087,3,9
11083,-5e-05,9e-05,3e-05,3e-05,7e-05,-3e-05,-5e-05,0.00087,3,9
11084,-5e-05,9e-05,3e-05,3e-05,7e-05,-3e-05,-5e-05,0.00087,3,9
11085,-5e-05,9e-05,3e-05,3e-05,7e-05,-3e-05,-5e-05,0.00087,3,9
11086,-5e-05,9e-05,3e-05,3e-05,7e-05,-3e-05,-5e-05,0.00087,3,9
11088,-0.00061,-0.00066,-7e-05,-5e-05,-2e-05,0,0.00013,-0.00063,3,9
11089,0.00023,-5e-05,-2e-05,-1e-05,-5e-05,1e-05,-1e-05,0.00062,3,9
11090,0.00023,-5e-05,-2e-05,-1e-05,-5e-05,1e-05,-1e-05,0.00062,3,9
11091,0.00023,-5e-05,-2e-05,-1e-05,-5e-05,1e-05,-1e-05,0.00062,3,9
11092,0.00023,-5e-05,-2e-05,-1e-05,-5e-05,1e-05,-1e-05,0.00062,3,9
11093,0.00023,-5e-05,-2e-05,-1e-05,-5e-05,1e-05,-1e-05,0.00062,3,9
11094,0.00023,-5e-05,-2e-05,-1e-05,-5e-05,1e-05,-1e-05,0.00062,3,9
11095,0.00023,-5e-05,-2e-05,-1e-05,-5e-05,1e-05,-1e-05,0.00062,3,9
11096,0.00023,-5e-05,-2e-05,-1e-05,-5e-05,1e-05,-1e-05,0.00062,3,9
11097,0.00023,-5e-05,-2e-05,-1e-05,-5e-05,1e-05,-1e-05,0.00062,3,9
11098,0.00023,-5e-05,-2e-05,-1e-05,-5e-05,1e-05,-1e-05,0.00062,3,9
11099,0.00023,-5e-05,-2e-05,-1e-05,-5e-05,1e-05,-1e-05,0.00062,3,9
11100,0.00023,-5e-05,-2e-05,-1e-05,-5e-05,1e-05,-1e-05,0.00062,3,9
11101,0.00023,-5e-05,-2e-05,-1e-05,-5e-05,1e-05,-1e-05,0.00062,3,9
11102,0.00023,-5e-05,-2e-05,-1e-05,-5e-05,1e-05,-1e-05,0.00062,3,9
11103,0.00023,-5e-05,-2e-05,-1e-05,-5e-05,1e-05,-1e-05,0.00062,3,9
11104,0.00023,-5e-05,-2e-05,-1e-05,-5e-05,1e-05,-1e-05,0.00062,3,9
11105,0.00023,-5e-05,-2e-05,-1e-05,-5e-05,1e-05,-1e-05,0.00062,3,9
11106,0.00023,-5e-05,-2e-05,-1e-05,-5e-05,1e-05,-1e-05,0.00062,3,9
11107,0.00023,-5e-05,-2e-05,-1e-05,-5e-05,1e-05,-1e-05,0.00062,3,9
11108,0.00023,-5e-05,-2e-05,-1e-05,-5e-05,1e-05,-1e-05,0.00062,3,9
11109,0.00055,0.00013,-4e-05,-5e-05,-4e-05,-3e-05,-0.00032,-0.00069,3,9
11110,0.00055,0.00013,-4e-05,-5e-05,-4e-05,-3e-05,-0.00032,-0.00069,3,9
11111,-0.00025,-0.00053,-0.0001,-6e-05,-0.00013,-0.00011,0.0001,-7e-05,3,9
11112,-0.00025,-0.00053,-0.0001,-6e-05,-0.00013,-0.00011,0.0001,-7e-05,3,9
11113,-0.00025,-0.00053,-0.0001,-6e-05,-0.00013,-0.00011,0.0001,-7e-05,3,9
11114,-0.00025,-0.00053,-0.0001,-6e-05,-0.00013,-0.00011,0.0001,-7e-05,3,9
11115,-0.00025,-0.00053,-0.0001,-6e-05,-0.00013,-0.00011,0.0001,-7e-05,3,9
11116,-0.00025,-0.00053,-0.0001,-6e-05,-0.00013,-0.00011,0.0001,-7e-05,3,9
11117,-0.00025,-0.00053,-0.0001,-6e-05,-0.00013,-0.00011,0.0001,-7e-05,3,9
11118,-0.00025,-0.00053,-0.0001,-6e-05,-0.00013,-0.00011,0.0001,-7e-05,3,9
11119,-0.00025,-0.00053,-0.0001,-6e-05,-0.00013,-0.00011,0.0001,-7e-05,3,9
11120,-0.00025,-0.00053,-0.0001,-6e-05,-0.00013,-0.00011,0.0001,-7e-05,3,9
11121,-0.00025,-0.00053,-0.0001,-6e-05,-0.00013,-0.00011,0.0001,-7e-05,3,9
11122,-0.00025,-0.00053,-0.0001,-6e-05,-0.00013,-0.00011,0.0001,-7e-05,3,9
11123,-0.00025,-0.00053,-0.0001,-6e-05,-0.00013,-0.00011,0.0001,-7e-05,3,9
11124,9e-05,0.0003,2e-05,2e-05,-1e-05,9e-05,0.00028,0.00063,3,9
11125,-0.00016,-8e-05,-0.0001,-9e-05,-8e-05,-7e-05,-0.00014,-0.00057,3,9
11126,-0.00016,-8e-05,-0.0001,-9e-05,-8e-05,-7e-05,-0.00014,-0.00057,3,9
11127,-0.00016,-8e-05,-0.0001,-9e-05,-8e-05,-7e-05,-0.00014,-0.00057,3,9
11128,-0.00016,-8e-05,-0.0001,-9e-05,-8e-05,-7e-05,-0.00014,-0.00057,3,9
11129,-0.00016,-8e-05,-0.0001,-9e-05,-8e-05,-7e-05,-0.00014,-0.00057,3,9
11130,-0.00016,-8e-05,-0.0001,-9e-05,-8e-05,-7e-05,-0.00014,-0.00057,3,9
11131,-0.00016,-8e-05,-0.0001,-9e-05,-8e-05,-7e-05,-0.00014,-0.00057,3,9
11132,-0.00016,-8e-05,-0.0001,-9e-05,-8e-05,-7e-05,-0.00014,-0.00057,3,9
11133,-0.00016,-8e-05,-0.0001,-9e-05,-8e-05,-7e-05,-0.00014,-0.00057,3,9
11135,-0.00016,-8e-05,-0.0001,-9e-05,-8e-05,-7e-05,-0.00014,-0.00057,3,9
11136,-0.00016,-8e-05,-0.0001,-9e-05,-8e-05,-7e-05,-0.00014,-0.00057,3,9
11138,-0.00016,-8e-05,-0.0001,-9e-05,-8e-05,-7e-05,-0.00014,-0.00057,3,9
11139,-0.00016,-8e-05,-0.0001,-9e-05,-8e-05,-7e-05,-0.00014,-0.00057,3,9
11140,-0.00016,-8e-05,-0.0001,-9e-05,-8e-05,-7e-05,-0.00014,-0.00057,3,9
11141,-0.00016,-8e-05,-0.0001,-9e-05,-8e-05,-7e-05,-0.00014,-0.00057,3,9
11142,-0.00016,-8e-05,-0.0001,-9e-05,-8e-05,-7e-05,-0.00014,-0.00057,3,9
11143,-0.00016,-8e-05,-0.0001,-9e-05,-8e-05,-7e-05,-0.00014,-0.00057,3,9
11144,-0.00016,-8e-05,-0.0001,-9e-05,-8e-05,-7e-05,-0.00014,-0.00057,3,9
11145,-0.00016,-8e-05,-0.0001,-9e-05,-8e-05,-7e-05,-0.00014,-0.00057,3,9
11146,-0.00016,-8e-05,-0.0001,-9e-05,-8e-05,-7e-05,-0.00014,-0.00057,3,9
11147,-0.00026,-0.00029,-3e-05,-3e-05,-2e-05,3e-05,0.00019,-0.00111,3,9
11148,0.00012,0.00012,-1e-05,4e-05,2e-05,4e-05,0.0001,0.0003,3,9
11149,0.00012,0.00012,-1e-05,4e-05,2e-05,4e-05,0.0001,0.0003,3,9
11150,0.00012,0.00012,-1e-05,4e-05,2e-05,4e-05,0.0001,0.0003,3,9
11151,0.00012,0.00012,-1e-05,4e-05,2e-05,4e-05,0.0001,0.0003,3,9
11152,0.00012,0.00012,-1e-05,4e-05,2e-05,4e-05,0.0001,0.0003,3,9
11153,0.00012,0.00012,-1e-05,4e-05,2e-05,4e-05,0.0001,0.0003,3,9
11154,0.00012,0.00012,-1e-05,4e-05,2e-05,4e-05,0.0001,0.0003,3,9
11155,0.00012,0.00012,-1e-05,4e-05,2e-05,4e-05,0.0001,0.0003,3,9
11156,0.00012,0.00012,-1e-05,4e-05,2e-05,4e-05,0.0001,0.0003,3,9
11157,0.00012,0.00012,-1e-05,4e-05,2e-05,4e-05,0.0001,0.0003,3,9
11158,0.00012,0.00012,-1e-05,4e-05,2e-05,4e-05,0.0001,0.0003,3,9
11159,0.00012,0.00012,-1e-05,4e-05,2e-05,4e-05,0.0001,0.0003,3,9
11160,0.00012,0.00012,-1e-05,4e-05,2e-05,4e-05,0.0001,0.0003,3,9
11161,0.00012,0.00012,-1e-05,4e-05,2e-05,4e-05,0.0001,0.0003,3,9
11162,0.00012,0.00012,-1e-05,4e-05,2e-05,4e-05,0.0001,0.0003,3,9
11163,0.00012,0.00012,-1e-05,4e-05,2e-05,4e-05,0.0001,0.0003,3,9
11164,0.00012,0.00012,-1e-05,4e-05,2e-05,4e-05,0.0001,0.0003,3,9
11165,0.00012,0.00012,-1e-05,4e-05,2e-05,4e-05,0.0001,0.0003,3,9
11166,0.00012,0.00012,-1e-05,4e-05,2e-05,4e-05,0.0001,0.0003,3,9
11167,0.00012,0.00012,-1e-05,4e-05,2e-05,4e-05,0.0001,0.0003,3,9
11168,0.00012,0.00012,-1e-05,4e-05,2e-05,4e-05,0.0001,0.0003,3,9
11169,0.0003,0.00035,8e-05,1e-05,1e-05,-3e-05,-2e-05,-0.00018,3,9
11170,0.00091,0.00067,-2e-05,-3e-05,-0.00011,-8e-05,3e-05,0.00011,3,9
11171,0.00091,0.00067,-2e-05,-3e-05,-0.00011,-8e-05,3e-05,0.00011,3,9
11172,0.00091,0.00067,-2e-05,-3e-05,-0.00011,-8e-05,3e-05,0.00011,3,9
11173,0.00091,0.00067,-2e-05,-3e-05,-0.00011,-8e-05,3e-05,0.00011,3,9
11174,0.00091,0.00067,-2e-05,-3e-05,-0.00011,-8e-05,3e-05,0.00011,3,9
11175,0.00091,0.00067,-2e-05,-3e-05,-0.00011,-8e-05,3e-05,0.00011,3,9
11176,0.00091,0.00067,-2e-05,-3e-05,-0.00011,-8e-05,3e-05,0.00011,3,9
11177,0.00091,0.00067,-2e-05,-3e-05,-0.00011,-8e-05,3e-05,0.00011,3,9
11178,0.00091,0.00067,-2e-05,-3e-05,-0.00011,-8e-05,3e-05,0.00011,3,9
11179,0.00091,0.00067,-2e-05,-3e-05,-0.00011,-8e-05,3e-05,0.00011,3,9
11180,0.00091,0.00067,-2e-05,-3e-05,-0.00011,-8e-05,3e-05,0.00011,3,9
11181,0.00091,0.00067,-2e-05,-3e-05,-0.00011,-8e-05,3e-05,0.00011,3,9
11182,0.00091,0.00067,-2e-05,-3e-05,-0.00011,-8e-05,3e-05,0.00011,3,9
11183,0.00091,0.00067,-2e-05,-3e-05,-0.00011,-8e-05,3e-05,0.00011,3,9
11184,0.00091,0.00067,-2e-05,-3e-05,-0.00011,-8e-05,3e-05,0.00011,3,9
11185,0.00091,0.00067,-2e-05,-3e-05,-0.00011,-8e-05,3e-05,0.00011,3,9
11186,0.00091,0.00067,-2e-05,-3e-05,-0.00011,-8e-05,3e-05,0.00011,3,9
11188,0.00091,0.00067,-2e-05,-3e-05,-0.00011,-8e-05,3e-05,0.00011,3,9
11189,0.00091,0.00067,-2e-05,-3e-05,-0.00011,-8e-05,3e-05,0.00011,3,9
11190,0.00091,0.00067,-2e-05,-3e-05,-0.00011,-8e-05,3e-05,0.00011,3,9
11191,0.00091,0.00067,-2e-05,-3e-05,-0.00011,-8e-05,3e-05,0.00011,3,9
11192,0.00091,0.00067,-2e-05,-3e-05,-0.00011,-8e-05,3e-05,0.00011,3,9
11193,0.00091,0.00067,-2e-05,-3e-05,-0.00011,-8e-05,3e-05,0.00011,3,9
11194,0.00011,0.00011,0,-4e-05,-2e-05,0,0.00027,0.00033,3,9
11195,0.00011,0.00011,0,-4e-05,-2e-05,0,0.00027,0.00033,3,9
11196,0.00011,0.00011,0,-4e-05,-2e-05,0,0.00027,0.00033,3,9
11197,0.00011,0.00011,0,-4e-05,-2e-05,0,0.00027,0.00033,3,9
11198,0.00011,0.00011,0,-4e-05,-2e-05,0,0.00027,0.00033,3,9
11199,0.00011,0.00011,0,-4e-05,-2e-05,0,0.00027,0.00033,3,9
11200,0.00011,0.00011,0,-4e-05,-2e-05,0,0.00027,0.00033,3,9
11201,0.00011,0.00011,0,-4e-05,-2e-05,0,0.00027,0.00033,3,9
11202,0.00011,0.00011,0,-4e-05,-2e-05,0,0.00027,0.00033,3,9
11203,0.00011,0.00011,0,-4e-05,-2e-05,0,0.00027,0.00033,3,9
11204,0.00011,0.00011,0,-4e-05,-2e-05,0,0.00027,0.00033,3,9
11205,0.00011,0.00011,0,-4e-05,-2e-05,0,0.00027,0.00033,3,9
11206,0.00011,0.00011,0,-4e-05,-2e-05,0,0.00027,0.00033,3,9
11207,0.00011,0.00011,0,-4e-05,-2e-05,0,0.00027,0.00033,3,9
11208,0.00011,0.00011,0,-4e-05,-2e-05,0,0.00027,0.00033,3,9
11209,0.00011,0.00011,0,-4e-05,-2e-05,0,0.00027,0.00033,3,9
11210,0.00011,0.00011,0,-4e-05,-2e-05,0,0.00027,0.00033,3,9
11211,0.00011,0.00011,0,-4e-05,-2e-05,0,0.00027,0.00033,3,9
11212,0.00011,0.00011,0,-4e-05,-2e-05,0,0.00027,0.00033,3,9
11213,0.00011,0.00011,0,-4e-05,-2e-05,0,0.00027,0.00033,3,9
11214,0.00011,0.00011,0,-4e-05,-2e-05,0,0.00027,0.00033,3,9
11215,-5e-05,0,-3e-05,1e-05,-1e-05,-1e-05,9e-05,0.00038,3,9
11216,-0.00045,-0.00047,-0.00014,-6e-05,0,7e-05,1e-05,-0.001,3,9
11217,-0.00045,-0.00047,-0.00014,-6e-05,0,7e-05,1e-05,-0.001,3,9
11218,-0.00045,-0.00047,-0.00014,-6e-05,0,7e-05,1e-05,-0.001,3,9
11219,-0.00045,-0.00047,-0.00014,-6e-05,0,7e-05,1e-05,-0.001,3,9
11220,-0.00045,-0.00047,-0.00014,-6e-05,0,7e-05,1e-05,-0.001,3,9
11221,-0.00045,-0.00047,-0.00014,-6e-05,0,7e-05,1e-05,-0.001,3,9
11222,-0.00045,-0.00047,-0.00014,-6e-05,0,7e-05,1e-05,-0.001,3,9
11223,-0.00045,-0.00047,-0.00014,-6e-05,0,7e-05,1e-05,-0.001,3,9
11224,-0.00045,-0.00047,-0.00014,-6e-05,0,7e-05,1e-05,-0.001,3,9
11225,-0.00045,-0.00047,-0.00014,-6e-05,0,7e-05,1e-05,-0.001,3,9
11226,-0.00045,-0.00047,-0.00014,-6e-05,0,7e-05,1e-05,-0.001,3,9
11227,-0.00045,-0.00047,-0.00014,-6e-05,0,7e-05,1e-05,-0.001,3,9
11228,-0.00045,-0.00047,-0.00014,-6e-05,0,7e-05,1e-05,-0.001,3,9
11229,-0.00045,-0.00047,-0.00014,-6e-05,0,7e-05,1e-05,-0.001,3,9
11230,-0.00045,-0.00047,-0.00014,-6e-05,0,7e-05,1e-05,-0.001,3,9
11231,-0.00045,-0.00047,-0.00014,-6e-05,0,7e-05,1e-05,-0.001,3,9
11232,-0.00045,-0.00047,-0.00014,-6e-05,0,7e-05,1e-05,-0.001,3,9
11233,-0.00045,-0.00047,-0.00014,-6e-05,0,7e-05,1e-05,-0.001,3,9
11234,-0.00045,-0.00047,-0.00014,-6e-05,0,7e-05,1e-05,-0.001,3,9
11235,-0.00045,-0.00047,-0.00014,-6e-05,0,7e-05,1e-05,-0.001,3,9
11236,-0.00045,-0.00047,-0.00014,-6e-05,0,7e-05,1e-05,-0.001,3,9
11239,0.00074,0.00072,0.00011,2e-05,-6e-05,-4e-05,0,0.00061,3,9
11240,0.00074,0.00072,0.00011,2e-05,-6e-05,-4e-05,0,0.00061,3,9
11241,0.00074,0.00072,0.00011,2e-05,-6e-05,-4e-05,0,0.00061,3,9
11242,0.00074,0.00072,0.00011,2e-05,-6e-05,-4e-05,0,0.00061,3,9
11243,0.00074,0.00072,0.00011,2e-05,-6e-05,-4e-05,0,0.00061,3,9
11244,-0.0001,-8e-05,-2e-05,-2e-05,3e-05,-2e-05,-3e-05,-0.00076,3,9
11245,8e-05,0.00015,8e-05,3e-05,3e-05,1e-05,-3e-05,-5e-05,3,9
11246,8e-05,0.00015,8e-05,3e-05,3e-05,1e-05,-3e-05,-5e-05,3,9
11247,8e-05,0.00015,8e-05,3e-05,3e-05,1e-05,-3e-05,-5e-05,3,9
11248,8e-05,0.00015,8e-05,3e-05,3e-05,1e-05,-3e-05,-5e-05,3,9
11249,8e-05,0.00015,8e-05,3e-05,3e-05,1e-05,-3e-05,-5e-05,3,9
11250,8e-05,0.00015,8e-05,3e-05,3e-05,1e-05,-3e-05,-5e-05,3,9
11251,8e-05,0.00015,8e-05,3e-05,3e-05,1e-05,-3e-05,-5e-05,3,9
11252,8e-05,0.00015,8e-05,3e-05,3e-05,1e-05,-3e-05,-5e-05,3,9
11253,8e-05,0.00015,8e-05,3e-05,3e-05,1e-05,-3e-05,-5e-05,3,9
11254,8e-05,0.00015,8e-05,3e-05,3e-05,1e-05,-3e-05,-5e-05,3,9
11255,8e-05,0.00015,8e-05,3e-05,3e-05,1e-05,-3e-05,-5e-05,3,9
11256,8e-05,0.00015,8e-05,3e-05,3e-05,1e-05,-3e-05,-5e-05,3,9
11257,8e-05,0.00015,8e-05,3e-05,3e-05,1e-05,-3e-05,-5e-05,3,9
11258,8e-05,0.00015,8e-05,3e-05,3e-05,1e-05,-3e-05,-5e-05,3,9
11259,8e-05,0.00015,8e-05,3e-05,3e-05,1e-05,-3e-05,-5e-05,3,9
11260,8e-05,0.00015,8e-05,3e-05,3e-05,1e-05,-3e-05,-5e-05,3,9
11261,8e-05,0.00015,8e-05,3e-05,3e-05,1e-05,-3e-05,-5e-05,3,9
11262,8e-05,0.00015,8e-05,3e-05,3e-05,1e-05,-3e-05,-5e-05,3,9
11263,8e-05,0.00015,8e-05,3e-05,3e-05,1e-05,-3e-05,-5e-05,3,9
11264,8e-05,0.00015,8e-05,3e-05,3e-05,1e-05,-3e-05,-5e-05,3,9
11265,8e-05,0.00015,8e-05,3e-05,3e-05,1e-05,-3e-05,-5e-05,3,9
11266,8e-05,0.00015,8e-05,3e-05,3e-05,1e-05,-3e-05,-5e-05,3,9
11267,0,-0.00015,-4e-05,-5e-05,-7e-05,-0.0001,-0.00022,-0.00071,3,9
11268,-0.0003,-0.00025,-4e-05,0,5e-05,4e-05,0,-0.00044,3,9
11269,-0.0003,-0.00025,-4e-05,0,5e-05,4e-05,0,-0.00044,3,9
11270,-0.0003,-0.00025,-4e-05,0,5e-05,4e-05,0,-0.00044,3,9
11271,-0.0003,-0.00025,-4e-05,0,5e-05,4e-05,0,-0.00044,3,9
11272,-0.0003,-0.00025,-4e-05,0,5e-05,4e-05,0,-0.00044,3,9
11273,-0.0003,-0.00025,-4e-05,0,5e-05,4e-05,0,-0.00044,3,9
11274,-0.0003,-0.00025,-4e-05,0,5e-05,4e-05,0,-0.00044,3,9
11275,-0.0003,-0.00025,-4e-05,0,5e-05,4e-05,0,-0.00044,3,9
11276,-0.0003,-0.00025,-4e-05,0,5e-05,4e-05,0,-0.00044,3,9
11277,-0.0003,-0.00025,-4e-05,0,5e-05,4e-05,0,-0.00044,3,9
11278,-0.0003,-0.00025,-4e-05,0,5e-05,4e-05,0,-0.00044,3,9
11279,-0.0003,-0.00025,-4e-05,0,5e-05,4e-05,0,-0.00044,3,9
11280,-0.0003,-0.00025,-4e-05,0,5e-05,4e-05,0,-0.00044,3,9
11281,-0.0003,-0.00025,-4e-05,0,5e-05,4e-05,0,-0.00044,3,9
11282,-0.0003,-0.00025,-4e-05,0,5e-05,4e-05,0,-0.00044,3,9
11283,-0.0003,-0.00025,-4e-05,0,5e-05,4e-05,0,-0.00044,3,9
11284,-0.0003,-0.00025,-4e-05,0,5e-05,4e-05,0,-0.00044,3,9
11285,-0.0003,-0.00025,-4e-05,0,5e-05,4e-05,0,-0.00044,3,9
11286,-0.0003,-0.00025,-4e-05,0,5e-05,4e-05,0,-0.00044,3,9
11288,-0.0003,-0.00025,-4e-05,0,5e-05,4e-05,0,-0.00044,3,9
11289,-0.00024,-0.00029,-0.0001,-5e-05,-1e-05,-5e-05,-0.00012,0.00057,3,9
11290,-0.00032,-0.00016,-6e-05,-8e-05,-4e-05,-8e-05,-7e-05,-0.00012,3,9
11291,-0.00032,-0.00016,-6e-05,-8e-05,-4e-05,-8e-05,-7e-05,-0.00012,3,9
11292,-0.00032,-0.00016,-6e-05,-8e-05,-4e-05,-8e-05,-7e-05,-0.00012,3,9
11293,-0.00032,-0.00016,-6e-05,-8e-05,-4e-05,-8e-05,-7e-05,-0.00012,3,9
11294,-0.00032,-0.00016,-6e-05,-8e-05,-4e-05,-8e-05,-7e-05,-0.00012,3,9
11295,-0.00032,-0.00016,-6e-05,-8e-05,-4e-05,-8e-05,-7e-05,-0.00012,3,9
11296,-0.00032,-0.00016,-6e-05,-8e-05,-4e-05,-8e-05,-7e-05,-0.00012,3,9
11297,-0.00032,-0.00016,-6e-05,-8e-05,-4e-05,-8e-05,-7e-05,-0.00012,3,9
11298,-0.00032,-0.00016,-6e-05,-8e-05,-4e-05,-8e-05,-7e-05,-0.00012,3,9
11299,-0.00032,-0.00016,-6e-05,-8e-05,-4e-05,-8e-05,-7e-05,-0.00012,3,9
11300,-0.00032,-0.00016,-6e-05,-8e-05,-4e-05,-8e-05,-7e-05,-0.00012,3,9
11301,-0.00032,-0.00016,-6e-05,-8e-05,-4e-05,-8e-05,-7e-05,-0.00012,3,9
11302,-0.00032,-0.00016,-6e-05,-8e-05,-4e-05,-8e-05,-7e-05,-0.00012,3,9
11303,-0.00032,-0.00016,-6e-05,-8e-05,-4e-05,-8e-05,-7e-05,-0.00012,3,9
11304,-5e-05,-0.00027,1e-05,-2e-05,-7e-05,-9e-05,0,0.00065,3,9
11305,9e-05,8e-05,9e-05,7e-05,7e-05,5e-05,8e-05,0.00063,3,9
11306,9e-05,8e-05,9e-05,7e-05,7e-05,5e-05,8e-05,0.00063,3,9
11307,9e-05,8e-05,9e-05,7e-05,7e-05,5e-05,8e-05,0.00063,3,9
11308,9e-05,8e-05,9e-05,7e-05,7e-05,5e-05,8e-05,0.00063,3,9
11309,9e-05,8e-05,9e-05,7e-05,7e-05,5e-05,8e-05,0.00063,3,9
11310,9e-05,8e-05,9e-05,7e-05,7e-05,5e-05,8e-05,0.00063,3,9
11311,9e-05,8e-05,9e-05,7e-05,7e-05,5e-05,8e-05,0.00063,3,9
11312,9e-05,8e-05,9e-05,7e-05,7e-05,5e-05,8e-05,0.00063,3,9
11313,9e-05,8e-05,9e-05,7e-05,7e-05,5e-05,8e-05,0.00063,3,9
11314,9e-05,8e-05,9e-05,7e-05,7e-05,5e-05,8e-05,0.00063,3,9
11315,9e-05,8e-05,9e-05,7e-05,7e-05,5e-05,8e-05,0.00063,3,9
11316,9e-05,8e-05,9e-05,7e-05,7e-05,5e-05,8e-05,0.00063,3,9
11317,9e-05,8e-05,9e-05,7e-05,7e-05,5e-05,8e-05,0.00063,3,9
11318,9e-05,8e-05,9e-05,7e-05,7e-05,5e-05,8e-05,0.00063,3,9
11319,9e-05,8e-05,9e-05,7e-05,7e-05,5e-05,8e-05,0.00063,3,9
11320,9e-05,8e-05,9e-05,7e-05,7e-05,5e-05,8e-05,0.00063,3,9
11321,9e-05,8e-05,9e-05,7e-05,7e-05,5e-05,8e-05,0.00063,3,9
11322,9e-05,8e-05,9e-05,7e-05,7e-05,5e-05,8e-05,0.00063,3,9
11323,9e-05,8e-05,9e-05,7e-05,7e-05,5e-05,8e-05,0.00063,3,9
11324,9e-05,8e-05,9e-05,7e-05,7e-05,5e-05,8e-05,0.00063,3,9
11325,9e-05,8e-05,9e-05,7e-05,7e-05,5e-05,8e-05,0.00063,3,9
11326,9e-05,8e-05,9e-05,7e-05,7e-05,5e-05,8e-05,0.00063,3,9
11327,0.00025,0.00037,2e-05,3e-05,6e-05,1e-05,-0.00021,-0.00037,3,9
11328,0.00012,0.00013,0,-5e-05,0,1e-05,-9e-05,5e-05,3,9
11329,0.00012,0.00013,0,-5e-05,0,1e-05,-9e-05,5e-05,3,9
11330,0.00012,0.00013,0,-5e-05,0,1e-05,-9e-05,5e-05,3,9
11331,0.00012,0.00013,0,-5e-05,0,1e-05,-9e-05,5e-05,3,9
11332,0.00012,0.00013,0,-5e-05,0,1e-05,-9e-05,5e-05,3,9
11333,0.00012,0.00013,0,-5e-05,0,1e-05,-9e-05,5e-05,3,9
11334,0.00012,0.00013,0,-5e-05,0,1e-05,-9e-05,5e-05,3,9
11335,0.00012,0.00013,0,-5e-05,0,1e-05,-9e-05,5e-05,3,9
11336,0.00012,0.00013,0,-5e-05,0,1e-05,-9e-05,5e-05,3,9
11338,0.00012,0.00013,0,-5e-05,0,1e-05,-9e-05,5e-05,3,9
11339,0.00012,0.00013,0,-5e-05,0,1e-05,-9e-05,5e-05,3,9
11340,0.00012,0.00013,0,-5e-05,0,1e-05,-9e-05,5e-05,3,9
11341,0.00012,0.00013,0,-5e-05,0,1e-05,-9e-05,5e-05,3,9
11342,0.00012,0.00013,0,-5e-05,0,1e-05,-9e-05,5e-05,3,9
11343,0.00012,0.00013,0,-5e-05,0,1e-05,-9e-05,5e-05,3,9
11344,0.00012,0.00013,0,-5e-05,0,1e-05,-9e-05,5e-05,3,9
11345,0.00012,0.00013,0,-5e-05,0,1e-05,-9e-05,5e-05,3,9
11346,0.00012,0.00013,0,-5e-05,0,1e-05,-9e-05,5e-05,3,9
11347,0.00012,0.00013,0,-5e-05,0,1e-05,-9e-05,5e-05,3,9
11348,0.00012,0.00013,0,-5e-05,0,1e-05,-9e-05,5e-05,3,9
11349,-0.00063,-0.00086,-0.00012,-9e-05,-7e-05,-0.00022,-0.00041,-0.00049,3,9
11350,-0.00011,3e-05,-2e-05,0,1e-05,2e-05,-7e-05,-0.00027,3,9
11351,-0.00011,3e-05,-2e-05,0,1e-05,2e-05,-7e-05,-0.00027,3,9
11352,-0.00011,3e-05,-2e-05,0,1e-05,2e-05,-7e-05,-0.00027,3,9
11353,-0.00011,3e-05,-2e-05,0,1e-05,2e-05,-7e-05,-0.00027,3,9
11354,-0.00011,3e-05,-2e-05,0,1e-05,2e-05,-7e-05,-0.00027,3,9
11355,-0.00011,3e-05,-2e-05,0,1e-05,2e-05,-7e-05,-0.00027,3,9
11356,-0.00011,3e-05,-2e-05,0,1e-05,2e-05,-7e-05,-0.00027,3,9
11357,-0.00011,3e-05,-2e-05,0,1e-05,2e-05,-7e-05,-0.00027,3,9
11358,-0.00011,3e-05,-2e-05,0,1e-05,2e-05,-7e-05,-0.00027,3,9
11359,-0.00011,3e-05,-2e-05,0,1e-05,2e-05,-7e-05,-0.00027,3,9
11360,-0.00011,3e-05,-2e-05,0,1e-05,2e-05,-7e-05,-0.00027,3,9
11361,-0.00011,3e-05,-2e-05,0,1e-05,2e-05,-7e-05,-0.00027,3,9
11362,-0.00011,3e-05,-2e-05,0,1e-05,2e-05,-7e-05,-0.00027,3,9
11363,-0.00011,3e-05,-2e-05,0,1e-05,2e-05,-7e-05,-0.00027,3,9
11364,-0.00011,3e-05,-2e-05,0,1e-05,2e-05,-7e-05,-0.00027,3,9
11365,-0.00011,3e-05,-2e-05,0,1e-05,2e-05,-7e-05,-0.00027,3,9
11366,-0.00011,3e-05,-2e-05,0,1e-05,2e-05,-7e-05,-0.00027,3,9
11367,-0.00011,3e-05,-2e-05,0,1e-05,2e-05,-7e-05,-0.00027,3,9
11368,-0.00011,3e-05,-2e-05,0,1e-05,2e-05,-7e-05,-0.00027,3,9
11369,-0.00011,3e-05,-2e-05,0,1e-05,2e-05,-7e-05,-0.00027,3,9
11370,-0.00011,3e-05,-2e-05,0,1e-05,2e-05,-7e-05,-0.00027,3,9
11371,-0.00011,3e-05,-2e-05,0,1e-05,2e-05,-7e-05,-0.00027,3,9
11372,-0.00011,3e-05,-2e-05,0,1e-05,2e-05,-7e-05,-0.00027,3,9
11373,-0.00052,-0.00048,-2e-05,1e-05,2e-05,-5e-05,0,-0.00066,3,9
11374,-0.00052,-0.00048,-2e-05,1e-05,2e-05,-5e-05,0,-0.00066,3,9
11375,-0.00052,-0.00048,-2e-05,1e-05,2e-05,-5e-05,0,-0.00066,3,9
11376,-0.00052,-0.00048,-2e-05,1e-05,2e-05,-5e-05,0,-0.00066,3,9
11377,-0.00052,-0.00048,-2e-05,1e-05,2e-05,-5e-05,0,-0.00066,3,9
11378,-0.00052,-0.00048,-2e-05,1e-05,2e-05,-5e-05,0,-0.00066,3,9
11379,-0.00052,-0.00048,-2e-05,1e-05,2e-05,-5e-05,0,-0.00066,3,9
11380,-0.00052,-0.00048,-2e-05,1e-05,2e-05,-5e-05,0,-0.00066,3,9
11381,-0.00052,-0.00048,-2e-05,1e-05,2e-05,-5e-05,0,-0.00066,3,9
11382,-0.00052,-0.00048,-2e-05,1e-05,2e-05,-5e-05,0,-0.00066,3,9
11383,-0.00052,-0.00048,-2e-05,1e-05,2e-05,-5e-05,0,-0.00066,3,9
11384,-0.00052,-0.00048,-2e-05,1e-05,2e-05,-5e-05,0,-0.00066,3,9
11385,-0.00052,-0.00048,-2e-05,1e-05,2e-05,-5e-05,0,-0.00066,3,9
11386,-0.00052,-0.00048,-2e-05,1e-05,2e-05,-5e-05,0,-0.00066,3,9
11388,-0.00052,-0.00048,-2e-05,1e-05,2e-05,-5e-05,0,-0.00066,3,9
11389,-0.00052,-0.00048,-2e-05,1e-05,2e-05,-5e-05,0,-0.00066,3,9
11390,-0.00052,-0.00048,-2e-05,1e-05,2e-05,-5e-05,0,-0.00066,3,9
11391,-0.00052,-0.00048,-2e-05,1e-05,2e-05,-5e-05,0,-0.00066,3,9
11392,-0.00052,-0.00048,-2e-05,1e-05,2e-05,-5e-05,0,-0.00066,3,9
11393,-0.00052,-0.00048,-2e-05,1e-05,2e-05,-5e-05,0,-0.00066,3,9
11394,-0.00052,-0.00048,-2e-05,1e-05,2e-05,-5e-05,0,-0.00066,3,9
11395,5e-05,1e-05,3e-05,0.0001,0.00012,0.00025,0.00032,0.00032,3,9
11396,-9e-05,2e-05,-3e-05,-1e-05,-7e-05,-8e-05,-0.0001,-0.00067,3,9
11397,-9e-05,2e-05,-3e-05,-1e-05,-7e-05,-8e-05,-0.0001,-0.00067,3,9
11398,-9e-05,2e-05,-3e-05,-1e-05,-7e-05,-8e-05,-0.0001,-0.00067,3,9
11399,-9e-05,2e-05,-3e-05,-1e-05,-7e-05,-8e-05,-0.0001,-0.00067,3,9
11400,-9e-05,2e-05,-3e-05,-1e-05,-7e-05,-8e-05,-0.0001,-0.00067,3,9
11401,-9e-05,2e-05,-3e-05,-1e-05,-7e-05,-8e-05,-0.0001,-0.00067,3,9
11402,-9e-05,2e-05,-3e-05,-1e-05,-7e-05,-8e-05,-0.0001,-0.00067,3,9
11403,-9e-05,2e-05,-3e-05,-1e-05,-7e-05,-8e-05,-0.0001,-0.00067,3,9
11404,-9e-05,2e-05,-3e-05,-1e-05,-7e-05,-8e-05,-0.0001,-0.00067,3,9
11405,-9e-05,2e-05,-3e-05,-1e-05,-7e-05,-8e-05,-0.0001,-0.00067,3,9
11406,-9e-05,2e-05,-3e-05,-1e-05,-7e-05,-8e-05,-0.0001,-0.00067,3,9
11407,-9e-05,2e-05,-3e-05,-1e-05,-7e-05,-8e-05,-0.0001,-0.00067,3,9
11408,-9e-05,2e-05,-3e-05,-1e-05,-7e-05,-8e-05,-0.0001,-0.00067,3,9
11409,-0.00027,-6e-05,4e-05,-7e-05,-9e-05,0,0.00011,-0.00016,3,9
11410,-0.0005,-0.00039,1e-05,0,-3e-05,0.0001,4e-05,-0.0003,3,9
11411,-0.0005,-0.00039,1e-05,0,-3e-05,0.0001,4e-05,-0.0003,3,9
11412,-0.0005,-0.00039,1e-05,0,-3e-05,0.0001,4e-05,-0.0003,3,9
11413,-0.0005,-0.00039,1e-05,0,-3e-05,0.0001,4e-05,-0.0003,3,9
11414,-0.0005,-0.00039,1e-05,0,-3e-05,0.0001,4e-05,-0.0003,3,9
11415,-0.0005,-0.00039,1e-05,0,-3e-05,0.0001,4e-05,-0.0003,3,9
11416,-0.0005,-0.00039,1e-05,0,-3e-05,0.0001,4e-05,-0.0003,3,9
11418,-0.0005,-0.00039,1e-05,0,-3e-05,0.0001,4e-05,-0.0003,3,9
11419,-0.0005,-0.00039,1e-05,0,-3e-05,0.0001,4e-05,-0.0003,3,9
11420,-0.0005,-0.00039,1e-05,0,-3e-05,0.0001,4e-05,-0.0003,3,9
11421,-0.0005,-0.00039,1e-05,0,-3e-05,0.0001,4e-05,-0.0003,3,9
11422,-0.0005,-0.00039,1e-05,0,-3e-05,0.0001,4e-05,-0.0003,3,9
11423,-0.0005,-0.00039,1e-05,0,-3e-05,0.0001,4e-05,-0.0003,3,9
11424,0.00062,0.00038,7e-05,4e-05,0,4e-05,0.00015,0.00042,3,9
11425,0.00029,0.00024,4e-05,0,0,0,9e-05,0.00029,3,9
11426,0.00029,0.00024,4e-05,0,0,0,9e-05,0.00029,3,9
11427,0.00029,0.00024,4e-05,0,0,0,9e-05,0.00029,3,9
11428,0.00029,0.00024,4e-05,0,0,0,9e-05,0.00029,3,9
11429,0.00029,0.00024,4e-05,0,0,0,9e-05,0.00029,3,9
11430,0.00029,0.00024,4e-05,0,0,0,9e-05,0.00029,3,9
11431,0.00029,0.00024,4e-05,0,0,0,9e-05,0.00029,3,9
11432,0.00029,0.00024,4e-05,0,0,0,9e-05,0.00029,3,9
11433,0.00029,0.00024,4e-05,0,0,0,9e-05,0.00029,3,9
11434,0.00029,0.00024,4e-05,0,0,0,9e-05,0.00029,3,9
11435,0.00029,0.00024,4e-05,0,0,0,9e-05,0.00029,3,9
11436,0.00029,0.00024,4e-05,0,0,0,9e-05,0.00029,3,9
11438,0.00029,0.00024,4e-05,0,0,0,9e-05,0.00029,3,9
11439,0.00029,0.00024,4e-05,0,0,0,9e-05,0.00029,3,9
11440,0.00029,0.00024,4e-05,0,0,0,9e-05,0.00029,3,9
11441,0.00029,0.00024,4e-05,0,0,0,9e-05,0.00029,3,9
11442,0.00029,0.00024,4e-05,0,0,0,9e-05,0.00029,3,9
11443,0.00029,0.00024,4e-05,0,0,0,9e-05,0.00029,3,9
11444,0.00029,0.00024,4e-05,0,0,0,9e-05,0.00029,3,9
11445,0.00029,0.00024,4e-05,0,0,0,9e-05,0.00029,3,9
11446,0.00029,0.00024,4e-05,0,0,0,9e-05,0.00029,3,9
11447,-0.00022,0,-2e-05,-4e-05,-1e-05,-6e-05,-4e-05,0.00043,3,9
11448,0.00029,0.00031,0,4e-05,5e-05,3e-05,0.00023,4e-05,3,9
11449,0.00029,0.00031,0,4e-05,5e-05,3e-05,0.00023,4e-05,3,9
11450,0.00029,0.00031,0,4e-05,5e-05,3e-05,0.00023,4e-05,3,9
11451,0.00029,0.00031,0,4e-05,5e-05,3e-05,0.00023,4e-05,3,9
11452,0.00029,0.00031,0,4e-05,5e-05,3e-05,0.00023,4e-05,3,9
11453,0.00029,0.00031,0,4e-05,5e-05,3e-05,0.00023,4e-05,3,9
11454,0.00029,0.00031,0,4e-05,5e-05,3e-05,0.00023,4e-05,3,9
11455,0.00029,0.00031,0,4e-05,5e-05,3e-05,0.00023,4e-05,3,9
11456,0.00029,0.00031,0,4e-05,5e-05,3e-05,0.00023,4e-05,3,9
11457,0.00029,0.00031,0,4e-05,5e-05,3e-05,0.00023,4e-05,3,9
11458,0.00029,0.00031,0,4e-05,5e-05,3e-05,0.00023,4e-05,3,9
11459,0.00029,0.00031,0,4e-05,5e-05,3e-05,0.00023,4e-05,3,9
11460,0.00029,0.00031,0,4e-05,5e-05,3e-05,0.00023,4e-05,3,9
11461,0.00029,0.00031,0,4e-05,5e-05,3e-05,0.00023,4e-05,3,9
11462,0.00029,0.00031,0,4e-05,5e-05,3e-05,0.00023,4e-05,3,9
11463,0.00029,0.00031,0,4e-05,5e-05,3e-05,0.00023,4e-05,3,9
11464,0.00029,0.00031,0,4e-05,5e-05,3e-05,0.00023,4e-05,3,9
11465,0.00029,0.00031,0,4e-05,5e-05,3e-05,0.00023,4e-05,3,9
11466,0.00029,0.00031,0,4e-05,5e-05,3e-05,0.00023,4e-05,3,9
11467,0.00029,0.00031,0,4e-05,5e-05,3e-05,0.00023,4e-05,3,9
11468,0.00029,0.00031,0,4e-05,5e-05,3e-05,0.00023,4e-05,3,9
11469,8e-05,3e-05,-3e-05,0,2e-05,-2e-05,-0.0001,0.00013,3,9
11470,-0.00042,-0.00026,0,0,5e-05,8e-05,0.00011,-0.00042,3,9
11471,-0.00042,-0.00026,0,0,5e-05,8e-05,0.00011,-0.00042,3,9
11472,-0.00042,-0.00026,0,0,5e-05,8e-05,0.00011,-0.00042,3,9
11473,-0.00042,-0.00026,0,0,5e-05,8e-05,0.00011,-0.00042,3,9
11474,-0.00042,-0.00026,0,0,5e-05,8e-05,0.00011,-0.00042,3,9
11475,-0.00042,-0.00026,0,0,5e-05,8e-05,0.00011,-0.00042,3,9
11476,-0.00042,-0.00026,0,0,5e-05,8e-05,0.00011,-0.00042,3,9
11477,-0.00042,-0.00026,0,0,5e-05,8e-05,0.00011,-0.00042,3,9
11478,-0.00042,-0.00026,0,0,5e-05,8e-05,0.00011,-0.00042,3,9
11479,-0.00042,-0.00026,0,0,5e-05,8e-05,0.00011,-0.00042,3,9
11480,-0.00042,-0.00026,0,0,5e-05,8e-05,0.00011,-0.00042,3,9
11481,-0.00042,-0.00026,0,0,5e-05,8e-05,0.00011,-0.00042,3,9
11482,-0.00042,-0.00026,0,0,5e-05,8e-05,0.00011,-0.00042,3,9
11483,-0.00042,-0.00026,0,0,5e-05,8e-05,0.00011,-0.00042,3,9
11484,1e-05,-0.00021,-3e-05,-3e-05,-0.0001,-0.00016,-2e-05,-0.00012,3,9
11485,-0.00016,0.00015,-1e-05,-5e-05,-6e-05,-7e-05,-0.00014,0.00026,3,9
11486,-0.00016,0.00015,-1e-05,-5e-05,-6e-05,-7e-05,-0.00014,0.00026,3,9
11488,-0.00016,0.00015,-1e-05,-5e-05,-6e-05,-7e-05,-0.00014,0.00026,3,9
11489,-0.00016,0.00015,-1e-05,-5e-05,-6e-05,-7e-05,-0.00014,0.00026,3,9
11490,-0.00016,0.00015,-1e-05,-5e-05,-6e-05,-7e-05,-0.00014,0.00026,3,9
11491,-0.00016,0.00015,-1e-05,-5e-05,-6e-05,-7e-05,-0.00014,0.00026,3,9
11492,-0.00016,0.00015,-1e-05,-5e-05,-6e-05,-7e-05,-0.00014,0.00026,3,9
11493,-0.00016,0.00015,-1e-05,-5e-05,-6e-05,-7e-05,-0.00014,0.00026,3,9
11494,-0.00016,0.00015,-1e-05,-5e-05,-6e-05,-7e-05,-0.00014,0.00026,3,9
11495,-0.00016,0.00015,-1e-05,-5e-05,-6e-05,-7e-05,-0.00014,0.00026,3,9
11496,-0.00016,0.00015,-1e-05,-5e-05,-6e-05,-7e-05,-0.00014,0.00026,3,9
11497,-0.00016,0.00015,-1e-05,-5e-05,-6e-05,-7e-05,-0.00014,0.00026,3,9
11498,-0.00016,0.00015,-1e-05,-5e-05,-6e-05,-7e-05,-0.00014,0.00026,3,9
11499,-0.00016,0.00015,-1e-05,-5e-05,-6e-05,-7e-05,-0.00014,0.00026,3,9
11500,-0.00016,0.00015,-1e-05,-5e-05,-6e-05,-7e-05,-0.00014,0.00026,3,9
11501,-0.00016,0.00015,-1e-05,-5e-05,-6e-05,-7e-05,-0.00014,0.00026,3,9
11502,-0.00016,0.00015,-1e-05,-5e-05,-6e-05,-7e-05,-0.00014,0.00026,3,9
11503,-0.00016,0.00015,-1e-05,-5e-05,-6e-05,-7e-05,-0.00014,0.00026,3,9
11504,-0.00016,0.00015,-1e-05,-5e-05,-6e-05,-7e-05,-0.00014,0.00026,3,9
11505,-0.00016,0.00015,-1e-05,-5e-05,-6e-05,-7e-05,-0.00014,0.00026,3,9
11506,-0.00016,0.00015,-1e-05,-5e-05,-6e-05,-7e-05,-0.00014,0.00026,3,9
11507,0.0001,8e-05,-8e-05,1e-05,-1e-05,5e-05,4e-05,0.00031,3,9
11508,0.00016,-1e-05,-2e-05,0,0,-5e-05,-0.00017,-0.00017,3,9
11509,0.00016,-1e-05,-2e-05,0,0,-5e-05,-0.00017,-0.00017,3,9
11510,0.00016,-1e-05,-2e-05,0,0,-5e-05,-0.00017,-0.00017,3,9
11511,0.00016,-1e-05,-2e-05,0,0,-5e-05,-0.00017,-0.00017,3,9
11512,0.00016,-1e-05,-2e-05,0,0,-5e-05,-0.00017,-0.00017,3,9
11513,0.00016,-1e-05,-2e-05,0,0,-5e-05,-0.00017,-0.00017,3,9
11514,0.00016,-1e-05,-2e-05,0,0,-5e-05,-0.00017,-0.00017,3,9
11515,0.00016,-1e-05,-2e-05,0,0,-5e-05,-0.00017,-0.00017,3,9
11516,0.00016,-1e-05,-2e-05,0,0,-5e-05,-0.00017,-0.00017,3,9
11517,0.00016,-1e-05,-2e-05,0,0,-5e-05,-0.00017,-0.00017,3,9
11518,0.00016,-1e-05,-2e-05,0,0,-5e-05,-0.00017,-0.00017,3,9
11519,0.00016,-1e-05,-2e-05,0,0,-5e-05,-0.00017,-0.00017,3,9
11520,0.00016,-1e-05,-2e-05,0,0,-5e-05,-0.00017,-0.00017,3,9
11521,0.00016,-1e-05,-2e-05,0,0,-5e-05,-0.00017,-0.00017,3,9
11522,0.00016,-1e-05,-2e-05,0,0,-5e-05,-0.00017,-0.00017,3,9
11523,0.00016,-1e-05,-2e-05,0,0,-5e-05,-0.00017,-0.00017,3,9
11524,0.00016,-1e-05,-2e-05,0,0,-5e-05,-0.00017,-0.00017,3,9
11525,0.00016,-1e-05,-2e-05,0,0,-5e-05,-0.00017,-0.00017,3,9
11526,0.00016,-1e-05,-2e-05,0,0,-5e-05,-0.00017,-0.00017,3,9
11527,0.00016,-1e-05,-2e-05,0,0,-5e-05,-0.00017,-0.00017,3,9
11528,0.00016,-1e-05,-2e-05,0,0,-5e-05,-0.00017,-0.00017,3,9
11529,-0.00016,-2e-05,2e-05,0,3e-05,0,0,-0.00053,3,9
11530,0.00039,0.00039,0,-1e-05,-3e-05,4e-05,7e-05,-1e-05,3,9
11531,0.00039,0.00039,0,-1e-05,-3e-05,4e-05,7e-05,-1e-05,3,9
11532,0.00039,0.00039,0,-1e-05,-3e-05,4e-05,7e-05,-1e-05,3,9
11533,0.00039,0.00039,0,-1e-05,-3e-05,4e-05,7e-05,-1e-05,3,9
11534,0.00039,0.00039,0,-1e-05,-3e-05,4e-05,7e-05,-1e-05,3,9
11535,0.00039,0.00039,0,-1e-05,-3e-05,4e-05,7e-05,-1e-05,3,9
11536,0.00039,0.00039,0,-1e-05,-3e-05,4e-05,7e-05,-1e-05,3,9
11538,0.00039,0.00039,0,-1e-05,-3e-05,4e-05,7e-05,-1e-05,3,9
11539,0.00039,0.00039,0,-1e-05,-3e-05,4e-05,7e-05,-1e-05,3,9
11540,0.00039,0.00039,0,-1e-05,-3e-05,4e-05,7e-05,-1e-05,3,9
11541,0.00039,0.00039,0,-1e-05,-3e-05,4e-05,7e-05,-1e-05,3,9
11542,0.00039,0.00039,0,-1e-05,-3e-05,4e-05,7e-05,-1e-05,3,9
11543,0.00039,0.00039,0,-1e-05,-3e-05,4e-05,7e-05,-1e-05,3,9
11544,-9e-05,-0.00019,0,1e-05,0,2e-05,-9e-05,0.00013,3,9
11545,-9e-05,-0.00019,0,1e-05,0,2e-05,-9e-05,0.00013,3,9
11546,-9e-05,-0.00019,0,1e-05,0,2e-05,-9e-05,0.00013,3,9
11547,-9e-05,-0.00019,0,1e-05,0,2e-05,-9e-05,0.00013,3,9
11548,-9e-05,-0.00019,0,1e-05,0,2e-05,-9e-05,0.00013,3,9
11549,-9e-05,-0.00019,0,1e-05,0,2e-05,-9e-05,0.00013,3,9
11550,-9e-05,-0.00019,0,1e-05,0,2e-05,-9e-05,0.00013,3,9
11551,-9e-05,-0.00019,0,1e-05,0,2e-05,-9e-05,0.00013,3,9
11552,-8e-05,-0.00021,-8e-05,-8e-05,-1e-05,-4e-05,-0.00011,0.00033,3,9
11553,-8e-05,-0.00021,-8e-05,-8e-05,-1e-05,-4e-05,-0.00011,0.00033,3,9
11554,-8e-05,-0.00021,-8e-05,-8e-05,-1e-05,-4e-05,-0.00011,0.00033,3,9
11555,-8e-05,-0.00021,-8e-05,-8e-05,-1e-05,-4e-05,-0.00011,0.00033,3,9
11557,-8e-05,-0.00021,-8e-05,-8e-05,-1e-05,-4e-05,-0.00011,0.00033,3,9
11558,-8e-05,-0.00021,-8e-05,-8e-05,-1e-05,-4e-05,-0.00011,0.00033,3,9
11559,-8e-05,-0.00021,-8e-05,-8e-05,-1e-05,-4e-05,-0.00011,0.00033,3,9
11560,-8e-05,-0.00021,-8e-05,-8e-05,-1e-05,-4e-05,-0.00011,0.00033,3,9
11561,-8e-05,-0.00021,-8e-05,-8e-05,-1e-05,-4e-05,-0.00011,0.00033,3,9
11562,-8e-05,-0.00021,-8e-05,-8e-05,-1e-05,-4e-05,-0.00011,0.00033,3,9
11563,-8e-05,-0.00021,-8e-05,-8e-05,-1e-05,-4e-05,-0.00011,0.00033,3,9
11564,-8e-05,-0.00021,-8e-05,-8e-05,-1e-05,-4e-05,-0.00011,0.00033,3,9
11565,-8e-05,-0.00021,-8e-05,-8e-05,-1e-05,-4e-05,-0.00011,0.00033,3,9
11566,-8e-05,-0.00021,-8e-05,-8e-05,-1e-05,-4e-05,-0.00011,0.00033,3,9
11567,-8e-05,-0.00015,4e-05,9e-05,0.00012,0.0001,0.00012,-0.00059,3,9
11568,5e-05,-1e-05,2e-05,-2e-05,-5e-05,-5e-05,-6e-05,0.0002,3,9
11569,5e-05,-1e-05,2e-05,-2e-05,-5e-05,-5e-05,-6e-05,0.0002,3,9
11570,5e-05,-1e-05,2e-05,-2e-05,-5e-05,-5e-05,-6e-05,0.0002,3,9
11571,5e-05,-1e-05,2e-05,-2e-05,-5e-05,-5e-05,-6e-05,0.0002,3,9
11572,5e-05,-1e-05,2e-05,-2e-05,-5e-05,-5e-05,-6e-05,0.0002,3,9
11573,5e-05,-1e-05,2e-05,-2e-05,-5e-05,-5e-05,-6e-05,0.0002,3,9
11574,5e-05,-1e-05,2e-05,-2e-05,-5e-05,-5e-05,-6e-05,0.0002,3,9
11575,5e-05,-1e-05,2e-05,-2e-05,-5e-05,-5e-05,-6e-05,0.0002,3,9
11576,5e-05,-1e-05,2e-05,-2e-05,-5e-05,-5e-05,-6e-05,0.0002,3,9
11577,5e-05,-1e-05,2e-05,-2e-05,-5e-05,-5e-05,-6e-05,0.0002,3,9
11578,5e-05,-1e-05,2e-05,-2e-05,-5e-05,-5e-05,-6e-05,0.0002,3,9
11579,5e-05,-1e-05,2e-05,-2e-05,-5e-05,-5e-05,-6e-05,0.0002,3,9
11580,5e-05,-1e-05,2e-05,-2e-05,-5e-05,-5e-05,-6e-05,0.0002,3,9
11581,5e-05,-1e-05,2e-05,-2e-05,-5e-05,-5e-05,-6e-05,0.0002,3,9
11582,5e-05,-1e-05,2e-05,-2e-05,-5e-05,-5e-05,-6e-05,0.0002,3,9
11583,5e-05,-1e-05,2e-05,-2e-05,-5e-05,-5e-05,-6e-05,0.0002,3,9
11584,5e-05,-1e-05,2e-05,-2e-05,-5e-05,-5e-05,-6e-05,0.0002,3,9
11585,5e-05,-1e-05,2e-05,-2e-05,-5e-05,-5e-05,-6e-05,0.0002,3,9
11586,5e-05,-1e-05,2e-05,-2e-05,-5e-05,-5e-05,-6e-05,0.0002,3,9
11588,5e-05,-1e-05,2e-05,-2e-05,-5e-05,-5e-05,-6e-05,0.0002,3,9
11589,0.00048,0.00028,-3e-05,2e-05,-2e-05,3e-05,9e-05,0.00036,3,9
11590,0.00037,0.00037,-1e-05,-1e-05,-2e-05,-0.00015,-9e-05,0.00016,3,9
11591,0.00037,0.00037,-1e-05,-1e-05,-2e-05,-0.00015,-9e-05,0.00016,3,9
11592,0.00037,0.00037,-1e-05,-1e-05,-2e-05,-0.00015,-9e-05,0.00016,3,9
11593,0.00037,0.00037,-1e-05,-1e-05,-2e-05,-0.00015,-9e-05,0.00016,3,9
11594,0.00037,0.00037,-1e-05,-1e-05,-2e-05,-0.00015,-9e-05,0.00016,3,9
11595,0.00037,0.00037,-1e-05,-1e-05,-2e-05,-0.00015,-9e-05,0.00016,3,9
11596,0.00037,0.00037,-1e-05,-1e-05,-2e-05,-0.00015,-9e-05,0.00016,3,9
11597,0.00037,0.00037,-1e-05,-1e-05,-2e-05,-0.00015,-9e-05,0.00016,3,9
11598,0.00037,0.00037,-1e-05,-1e-05,-2e-05,-0.00015,-9e-05,0.00016,3,9
11599,0.00037,0.00037,-1e-05,-1e-05,-2e-05,-0.00015,-9e-05,0.00016,3,9
11600,0.00037,0.00037,-1e-05,-1e-05,-2e-05,-0.00015,-9e-05,0.00016,3,9
11601,0.00037,0.00037,-1e-05,-1e-05,-2e-05,-0.00015,-9e-05,0.00016,3,9
11602,0.00037,0.00037,-1e-05,-1e-05,-2e-05,-0.00015,-9e-05,0.00016,3,9
11603,0.00037,0.00037,-1e-05,-1e-05,-2e-05,-0.00015,-9e-05,0.00016,3,9
11604,0.00037,0.00037,-1e-05,-1e-05,-2e-05,-0.00015,-9e-05,0.00016,3,9
11605,6e-05,0.00024,4e-05,-2e-05,-6e-05,-9e-05,-0.00023,0.00033,3,9
11606,6e-05,0.00024,4e-05,-2e-05,-6e-05,-9e-05,-0.00023,0.00033,3,9
11607,6e-05,0.00024,4e-05,-2e-05,-6e-05,-9e-05,-0.00023,0.00033,3,9
11608,6e-05,0.00024,4e-05,-2e-05,-6e-05,-9e-05,-0.00023,0.00033,3,9
11609,6e-05,0.00024,4e-05,-2e-05,-6e-05,-9e-05,-0.00023,0.00033,3,9
11610,6e-05,0.00024,4e-05,-2e-05,-6e-05,-9e-05,-0.00023,0.00033,3,9
11611,6e-05,0.00024,4e-05,-2e-05,-6e-05,-9e-05,-0.00023,0.00033,3,9
11612,6e-05,0.00024,4e-05,-2e-05,-6e-05,-9e-05,-0.00023,0.00033,3,9
11613,-0.00014,0,-3e-05,0,3e-05,3e-05,-4e-05,0.00054,3,9
11614,-0.00014,0,-3e-05,0,3e-05,3e-05,-4e-05,0.00054,3,9
11615,-0.00014,0,-3e-05,0,3e-05,3e-05,-4e-05,0.00054,3,9
11616,-0.00014,0,-3e-05,0,3e-05,3e-05,-4e-05,0.00054,3,9
11617,-0.00014,0,-3e-05,0,3e-05,3e-05,-4e-05,0.00054,3,9
11618,-0.00014,0,-3e-05,0,3e-05,3e-05,-4e-05,0.00054,3,9
11619,-0.00014,0,-3e-05,0,3e-05,3e-05,-4e-05,0.00054,3,9
11620,-0.00014,0,-3e-05,0,3e-05,3e-05,-4e-05,0.00054,3,9
11621,-0.00014,0,-3e-05,0,3e-05,3e-05,-4e-05,0.00054,3,9
11622,-0.00014,0,-3e-05,0,3e-05,3e-05,-4e-05,0.00054,3,9
11623,-0.00014,0,-3e-05,0,3e-05,3e-05,-4e-05,0.00054,3,9
11624,-0.00014,0,-3e-05,0,3e-05,3e-05,-4e-05,0.00054,3,9
11625,-0.00014,0,-3e-05,0,3e-05,3e-05,-4e-05,0.00054,3,9
11626,-0.00014,0,-3e-05,0,3e-05,3e-05,-4e-05,0.00054,3,9
11627,4e-05,0.00013,3e-05,-2e-05,-7e-05,-4e-05,0.00013,2e-05,3,9
11628,0.00029,0.00046,4e-05,-2e-05,-2e-05,-7e-05,-1e-05,0.00021,3,9
11629,-0.0003,-0.00019,3e-05,5e-05,4e-05,7e-05,3e-05,-3e-05,3,9
11630,-0.0003,-0.00019,3e-05,5e-05,4e-05,7e-05,3e-05,-3e-05,3,9
11631,-0.0003,-0.00019,3e-05,5e-05,4e-05,7e-05,3e-05,-3e-05,3,9
11632,-0.0003,-0.00019,3e-05,5e-05,4e-05,7e-05,3e-05,-3e-05,3,9
11633,-0.0003,-0.00019,3e-05,5e-05,4e-05,7e-05,3e-05,-3e-05,3,9
11634,-0.0003,-0.00019,3e-05,5e-05,4e-05,7e-05,3e-05,-3e-05,3,9
11635,-0.0003,-0.00019,3e-05,5e-05,4e-05,7e-05,3e-05,-3e-05,3,9
11636,-0.0003,-0.00019,3e-05,5e-05,4e-05,7e-05,3e-05,-3e-05,3,9
11638,-0.0003,-0.00019,3e-05,5e-05,4e-05,7e-05,3e-05,-3e-05,3,9
11639,-0.0003,-0.00019,3e-05,5e-05,4e-05,7e-05,3e-05,-3e-05,3,9
11640,-0.0003,-0.00019,3e-05,5e-05,4e-05,7e-05,3e-05,-3e-05,3,9
11641,-0.0003,-0.00019,3e-05,5e-05,4e-05,7e-05,3e-05,-3e-05,3,9
11642,-0.0003,-0.00019,3e-05,5e-05,4e-05,7e-05,3e-05,-3e-05,3,9
11643,-0.0003,-0.00019,3e-05,5e-05,4e-05,7e-05,3e-05,-3e-05,3,9
11644,-0.0003,-0.00019,3e-05,5e-05,4e-05,7e-05,3e-05,-3e-05,3,9
11645,-0.0003,-0.00019,3e-05,5e-05,4e-05,7e-05,3e-05,-3e-05,3,9
11646,-0.0003,-0.00019,3e-05,5e-05,4e-05,7e-05,3e-05,-3e-05,3,9
11647,-0.0003,-0.00019,3e-05,5e-05,4e-05,7e-05,3e-05,-3e-05,3,9
11648,-0.0003,-0.00019,3e-05,5e-05,4e-05,7e-05,3e-05,-3e-05,3,9
11649,0.00023,-5e-05,2e-05,5e-05,7e-05,0.0001,-9e-05,3e-05,3,9
11650,-0.00043,-0.00064,-8e-05,-3e-05,-1e-05,0,-0.00012,-5e-05,3,9
11651,-0.00043,-0.00064,-8e-05,-3e-05,-1e-05,0,-0.00012,-5e-05,3,9
11652,-0.00043,-0.00064,-8e-05,-3e-05,-1e-05,0,-0.00012,-5e-05,3,9
11653,-0.00043,-0.00064,-8e-05,-3e-05,-1e-05,0,-0.00012,-5e-05,3,9
11654,-0.00043,-0.00064,-8e-05,-3e-05,-1e-05,0,-0.00012,-5e-05,3,9
11655,-0.00043,-0.00064,-8e-05,-3e-05,-1e-05,0,-0.00012,-5e-05,3,9
11656,-0.00043,-0.00064,-8e-05,-3e-05,-1e-05,0,-0.00012,-5e-05,3,9
11657,-0.00043,-0.00064,-8e-05,-3e-05,-1e-05,0,-0.00012,-5e-05,3,9
11658,-0.00043,-0.00064,-8e-05,-3e-05,-1e-05,0,-0.00012,-5e-05,3,9
11659,-0.00043,-0.00064,-8e-05,-3e-05,-1e-05,0,-0.00012,-5e-05,3,9
11660,-0.00043,-0.00064,-8e-05,-3e-05,-1e-05,0,-0.00012,-5e-05,3,9
11661,-0.00043,-0.00064,-8e-05,-3e-05,-1e-05,0,-0.00012,-5e-05,3,9
11662,-0.00043,-0.00064,-8e-05,-3e-05,-1e-05,0,-0.00012,-5e-05,3,9
11663,-0.00043,-0.00064,-8e-05,-3e-05,-1e-05,0,-0.00012,-5e-05,3,9
11664,-0.00043,-0.00064,-8e-05,-3e-05,-1e-05,0,-0.00012,-5e-05,3,9
11665,-0.00043,-0.00064,-8e-05,-3e-05,-1e-05,0,-0.00012,-5e-05,3,9
11666,-0.00043,-0.00064,-8e-05,-3e-05,-1e-05,0,-0.00012,-5e-05,3,9
11667,-0.00043,-0.00064,-8e-05,-3e-05,-1e-05,0,-0.00012,-5e-05,3,9
11668,-0.00043,-0.00064,-8e-05,-3e-05,-1e-05,0,-0.00012,-5e-05,3,9
11669,-0.00043,-0.00064,-8e-05,-3e-05,-1e-05,0,-0.00012,-5e-05,3,9
11670,-0.00043,-0.00064,-8e-05,-3e-05,-1e-05,0,-0.00012,-5e-05,3,9
11671,-0.00043,-0.00064,-8e-05,-3e-05,-1e-05,0,-0.00012,-5e-05,3,9
11672,0.00042,0.00062,3e-05,-1e-05,-7e-05,0,0,-6e-05,3,9
11673,-2e-05,-0.00014,-4e-05,1e-05,2e-05,-1e-05,-6e-05,-0.00024,3,9
11674,-2e-05,-0.00014,-4e-05,1e-05,2e-05,-1e-05,-6e-05,-0.00024,3,9
11675,-2e-05,-0.00014,-4e-05,1e-05,2e-05,-1e-05,-6e-05,-0.00024,3,9
11676,-2e-05,-0.00014,-4e-05,1e-05,2e-05,-1e-05,-6e-05,-0.00024,3,9
11677,-2e-05,-0.00014,-4e-05,1e-05,2e-05,-1e-05,-6e-05,-0.00024,3,9
11678,-2e-05,-0.00014,-4e-05,1e-05,2e-05,-1e-05,-6e-05,-0.00024,3,9
11679,-2e-05,-0.00014,-4e-05,1e-05,2e-05,-1e-05,-6e-05,-0.00024,3,9
11680,-2e-05,-0.00014,-4e-05,1e-05,2e-05,-1e-05,-6e-05,-0.00024,3,9
11681,-2e-05,-0.00014,-4e-05,1e-05,2e-05,-1e-05,-6e-05,-0.00024,3,9
11682,-2e-05,-0.00014,-4e-05,1e-05,2e-05,-1e-05,-6e-05,-0.00024,3,9
11683,-2e-05,-0.00014,-4e-05,1e-05,2e-05,-1e-05,-6e-05,-0.00024,3,9
11684,-2e-05,-0.00014,-4e-05,1e-05,2e-05,-1e-05,-6e-05,-0.00024,3,9
11685,-2e-05,-0.00014,-4e-05,1e-05,2e-05,-1e-05,-6e-05,-0.00024,3,9
11686,-2e-05,-0.00014,-4e-05,1e-05,2e-05,-1e-05,-6e-05,-0.00024,3,9
11688,-0.00029,-0.00037,-0.0001,-6e-05,-6e-05,-0.0001,0,2e-05,3,9
11689,-0.00029,-0.00037,-0.0001,-6e-05,-6e-05,-0.0001,0,2e-05,3,9
11690,-0.00029,-0.00037,-0.0001,-6e-05,-6e-05,-0.0001,0,2e-05,3,9
11691,-0.00029,-0.00037,-0.0001,-6e-05,-6e-05,-0.0001,0,2e-05,3,9
11692,-0.00029,-0.00037,-0.0001,-6e-05,-6e-05,-0.0001,0,2e-05,3,9
11693,-0.00029,-0.00037,-0.0001,-6e-05,-6e-05,-0.0001,0,2e-05,3,9
11694,-0.00029,-0.00037,-0.0001,-6e-05,-6e-05,-0.0001,0,2e-05,3,9
11695,-0.00029,-0.00037,-0.0001,-6e-05,-6e-05,-0.0001,0,2e-05,3,9
11696,-0.00029,-0.00037,-0.0001,-6e-05,-6e-05,-0.0001,0,2e-05,3,9
11697,-0.00029,-0.00037,-0.0001,-6e-05,-6e-05,-0.0001,0,2e-05,3,9
11698,-0.00029,-0.00037,-0.0001,-6e-05,-6e-05,-0.0001,0,2e-05,3,9
11699,-0.00029,-0.00037,-0.0001,-6e-05,-6e-05,-0.0001,0,2e-05,3,9
11700,-0.00029,-0.00037,-0.0001,-6e-05,-6e-05,-0.0001,0,2e-05,3,9
11701,-0.00029,-0.00037,-0.0001,-6e-05,-6e-05,-0.0001,0,2e-05,3,9
11702,-0.00029,-0.00037,-0.0001,-6e-05,-6e-05,-0.0001,0,2e-05,3,9
11703,-0.00029,-0.00037,-0.0001,-6e-05,-6e-05,-0.0001,0,2e-05,3,9
11704,-0.00029,-0.00037,-0.0001,-6e-05,-6e-05,-0.0001,0,2e-05,3,9
11705,-0.00029,-0.00037,-0.0001,-6e-05,-6e-05,-0.0001,0,2e-05,3,9
11706,-0.00029,-0.00037,-0.0001,-6e-05,-6e-05,-0.0001,0,2e-05,3,9
11707,-0.00029,-0.00037,-0.0001,-6e-05,-6e-05,-0.0001,0,2e-05,3,9
11708,-0.00029,-0.00037,-0.0001,-6e-05,-6e-05,-0.0001,0,2e-05,3,9
11709,-0.00029,-0.00037,-0.0001,-6e-05,-6e-05,-0.0001,0,2e-05,3,9
11710,-0.00052,-0.00066,-0.00013,-8e-05,-9e-05,-0.00015,-3e-05,0.00057,3,9
11711,-0.00052,-0.00066,-0.00013,-8e-05,-9e-05,-0.00015,-3e-05,0.00057,3,9
11712,-3e-05,-0.00013,-1e-05,-2e-05,3e-05,6e-05,4e-05,-0.00025,3,9
11713,-3e-05,-0.00013,-1e-05,-2e-05,3e-05,6e-05,4e-05,-0.00025,3,9
11714,-3e-05,-0.00013,-1e-05,-2e-05,3e-05,6e-05,4e-05,-0.00025,3,9
11715,-3e-05,-0.00013,-1e-05,-2e-05,3e-05,6e-05,4e-05,-0.00025,3,9
11716,-3e-05,-0.00013,-1e-05,-2e-05,3e-05,6e-05,4e-05,-0.00025,3,9
11717,-3e-05,-0.00013,-1e-05,-2e-05,3e-05,6e-05,4e-05,-0.00025,3,9
11718,-3e-05,-0.00013,-1e-05,-2e-05,3e-05,6e-05,4e-05,-0.00025,3,9
11719,-3e-05,-0.00013,-1e-05,-2e-05,3e-05,6e-05,4e-05,-0.00025,3,9
11720,-3e-05,-0.00013,-1e-05,-2e-05,3e-05,6e-05,4e-05,-0.00025,3,9
11721,-3e-05,-0.00013,-1e-05,-2e-05,3e-05,6e-05,4e-05,-0.00025,3,9
11722,-3e-05,-0.00013,-1e-05,-2e-05,3e-05,6e-05,4e-05,-0.00025,3,9
11723,-3e-05,-0.00013,-1e-05,-2e-05,3e-05,6e-05,4e-05,-0.00025,3,9
11724,0.00039,-0.00013,-6e-05,-4e-05,-6e-05,0,-2e-05,-9e-05,3,9
11725,0.00039,-0.00013,-6e-05,-4e-05,-6e-05,0,-2e-05,-9e-05,3,9
11726,0.00039,-0.00013,-6e-05,-4e-05,-6e-05,0,-2e-05,-9e-05,3,9
11727,0.00039,-0.00013,-6e-05,-4e-05,-6e-05,0,-2e-05,-9e-05,3,9
11728,0.00039,-0.00013,-6e-05,-4e-05,-6e-05,0,-2e-05,-9e-05,3,9
11729,0.00039,-0.00013,-6e-05,-4e-05,-6e-05,0,-2e-05,-9e-05,3,9
11730,0.00039,-0.00013,-6e-05,-4e-05,-6e-05,0,-2e-05,-9e-05,3,9
11731,0.00039,-0.00013,-6e-05,-4e-05,-6e-05,0,-2e-05,-9e-05,3,9
11732,0.00015,0.00019,-3e-05,-5e-05,-7e-05,-3e-05,-0.00018,-0.00019,3,9
11733,0.00015,0.00019,-3e-05,-5e-05,-7e-05,-3e-05,-0.00018,-0.00019,3,9
11734,0.00015,0.00019,-3e-05,-5e-05,-7e-05,-3e-05,-0.00018,-0.00019,3,9
11735,0.00015,0.00019,-3e-05,-5e-05,-7e-05,-3e-05,-0.00018,-0.00019,3,9
11736,0.00015,0.00019,-3e-05,-5e-05,-7e-05,-3e-05,-0.00018,-0.00019,3,9
11738,0.00015,0.00019,-3e-05,-5e-05,-7e-05,-3e-05,-0.00018,-0.00019,3,9
11739,0.00015,0.00019,-3e-05,-5e-05,-7e-05,-3e-05,-0.00018,-0.00019,3,9
11740,0.00015,0.00019,-3e-05,-5e-05,-7e-05,-3e-05,-0.00018,-0.00019,3,9
11741,0.00015,0.00019,-3e-05,-5e-05,-7e-05,-3e-05,-0.00018,-0.00019,3,9
11742,0.00015,0.00019,-3e-05,-5e-05,-7e-05,-3e-05,-0.00018,-0.00019,3,9
11743,0.00015,0.00019,-3e-05,-5e-05,-7e-05,-3e-05,-0.00018,-0.00019,3,9
11744,0.00015,0.00019,-3e-05,-5e-05,-7e-05,-3e-05,-0.00018,-0.00019,3,9
11745,0.00015,0.00019,-3e-05,-5e-05,-7e-05,-3e-05,-0.00018,-0.00019,3,9
11746,0.00015,0.00019,-3e-05,-5e-05,-7e-05,-3e-05,-0.00018,-0.00019,3,9
11747,-0.00013,-0.00011,2e-05,0,-4e-05,-6e-05,-0.00023,-0.00112,3,9
11748,0.00028,0.00041,7e-05,3e-05,0,-0.0001,0,-0.0003,3,9
11749,0.00028,0.00041,7e-05,3e-05,0,-0.0001,0,-0.0003,3,9
11750,0.00028,0.00041,7e-05,3e-05,0,-0.0001,0,-0.0003,3,9
11751,0.00028,0.00041,7e-05,3e-05,0,-0.0001,0,-0.0003,3,9
11752,0.00028,0.00041,7e-05,3e-05,0,-0.0001,0,-0.0003,3,9
11753,0.00028,0.00041,7e-05,3e-05,0,-0.0001,0,-0.0003,3,9
11754,0.00028,0.00041,7e-05,3e-05,0,-0.0001,0,-0.0003,3,9
11755,0.00028,0.00041,7e-05,3e-05,0,-0.0001,0,-0.0003,3,9
11756,0.00028,0.00041,7e-05,3e-05,0,-0.0001,0,-0.0003,3,9
11757,0.00028,0.00041,7e-05,3e-05,0,-0.0001,0,-0.0003,3,9
11758,0.00028,0.00041,7e-05,3e-05,0,-0.0001,0,-0.0003,3,9
11759,0.00028,0.00041,7e-05,3e-05,0,-0.0001,0,-0.0003,3,9
11760,0.00028,0.00041,7e-05,3e-05,0,-0.0001,0,-0.0003,3,9
11761,0.00028,0.00041,7e-05,3e-05,0,-0.0001,0,-0.0003,3,9
11762,0.00028,0.00041,7e-05,3e-05,0,-0.0001,0,-0.0003,3,9
11763,0.00028,0.00041,7e-05,3e-05,0,-0.0001,0,-0.0003,3,9
11764,0.00028,0.00041,7e-05,3e-05,0,-0.0001,0,-0.0003,3,9
11765,0.00028,0.00041,7e-05,3e-05,0,-0.0001,0,-0.0003,3,9
11766,0.00028,0.00041,7e-05,3e-05,0,-0.0001,0,-0.0003,3,9
11767,0.00028,0.00041,7e-05,3e-05,0,-0.0001,0,-0.0003,3,9
11768,0.00028,0.00041,7e-05,3e-05,0,-0.0001,0,-0.0003,3,9
11769,0.00028,0.00041,7e-05,3e-05,0,-0.0001,0,-0.0003,3,9
11770,0.00014,0.00021,1e-05,3e-05,3e-05,0.0001,0.00017,0.00034,3,9
11771,-0.00012,3e-05,3e-05,4e-05,3e-05,0,-7e-05,-0.00019,3,9
11772,-0.00012,3e-05,3e-05,4e-05,3e-05,0,-7e-05,-0.00019,3,9
11773,-0.00012,3e-05,3e-05,4e-05,3e-05,0,-7e-05,-0.00019,3,9
11774,-0.00012,3e-05,3e-05,4e-05,3e-05,0,-7e-05,-0.00019,3,9
11775,-0.00012,3e-05,3e-05,4e-05,3e-05,0,-7e-05,-0.00019,3,9
11776,-0.00012,3e-05,3e-05,4e-05,3e-05,0,-7e-05,-0.00019,3,9
11777,-0.00012,3e-05,3e-05,4e-05,3e-05,0,-7e-05,-0.00019,3,9
11778,-0.00012,3e-05,3e-05,4e-05,3e-05,0,-7e-05,-0.00019,3,9
11779,-0.00012,3e-05,3e-05,4e-05,3e-05,0,-7e-05,-0.00019,3,9
11780,-0.00012,3e-05,3e-05,4e-05,3e-05,0,-7e-05,-0.00019,3,9
11781,-0.00012,3e-05,3e-05,4e-05,3e-05,0,-7e-05,-0.00019,3,9
11782,-0.00012,3e-05,3e-05,4e-05,3e-05,0,-7e-05,-0.00019,3,9
11783,-0.00012,3e-05,3e-05,4e-05,3e-05,0,-7e-05,-0.00019,3,9
11784,-0.00017,7e-05,2e-05,0,2e-05,1e-05,-4e-05,0.00017,3,9
11785,-0.00017,7e-05,2e-05,0,2e-05,1e-05,-4e-05,0.00017,3,9
11786,-0.00017,7e-05,2e-05,0,2e-05,1e-05,-4e-05,0.00017,3,9
11788,-0.00017,7e-05,2e-05,0,2e-05,1e-05,-4e-05,0.00017,3,9
11789,-0.00017,7e-05,2e-05,0,2e-05,1e-05,-4e-05,0.00017,3,9
11790,-0.00017,7e-05,2e-05,0,2e-05,1e-05,-4e-05,0.00017,3,9
11791,-0.00017,7e-05,2e-05,0,2e-05,1e-05,-4e-05,0.00017,3,9
11792,-0.00017,7e-05,2e-05,0,2e-05,1e-05,-4e-05,0.00017,3,9
11793,-0.00017,7e-05,2e-05,0,2e-05,1e-05,-4e-05,0.00017,3,9
11794,-0.00017,7e-05,2e-05,0,2e-05,1e-05,-4e-05,0.00017,3,9
11795,-0.00017,7e-05,2e-05,0,2e-05,1e-05,-4e-05,0.00017,3,9
11796,-0.00017,7e-05,2e-05,0,2e-05,1e-05,-4e-05,0.00017,3,9
11797,-0.00017,7e-05,2e-05,0,2e-05,1e-05,-4e-05,0.00017,3,9
11798,-0.00017,7e-05,2e-05,0,2e-05,1e-05,-4e-05,0.00017,3,9
11799,0.00039,0.00025,-2e-05,-1e-05,-7e-05,4e-05,-0.0001,0.0002,3,9
11800,-0.00012,9e-05,0.00014,6e-05,5e-05,0.00012,0.00014,-0.00041,3,9
11801,-0.00012,9e-05,0.00014,6e-05,5e-05,0.00012,0.00014,-0.00041,3,9
11802,-0.00012,9e-05,0.00014,6e-05,5e-05,0.00012,0.00014,-0.00041,3,9
11803,-0.00012,9e-05,0.00014,6e-05,5e-05,0.00012,0.00014,-0.00041,3,9
11804,-0.00012,9e-05,0.00014,6e-05,5e-05,0.00012,0.00014,-0.00041,3,9
11805,-0.00012,9e-05,0.00014,6e-05,5e-05,0.00012,0.00014,-0.00041,3,9
11806,-0.00012,9e-05,0.00014,6e-05,5e-05,0.00012,0.00014,-0.00041,3,9
11807,0.0003,8e-05,-1e-05,0,0,-3e-05,3e-05,-1e-05,3,9
11808,0.0001,0.00031,1e-05,3e-05,-3e-05,7e-05,0.00023,0.00088,3,9
11809,0.0001,0.00031,1e-05,3e-05,-3e-05,7e-05,0.00023,0.00088,3,9
11810,0.0001,0.00031,1e-05,3e-05,-3e-05,7e-05,0.00023,0.00088,3,9
11811,0.0001,0.00031,1e-05,3e-05,-3e-05,7e-05,0.00023,0.00088,3,9
11812,0.0001,0.00031,1e-05,3e-05,-3e-05,7e-05,0.00023,0.00088,3,9
11813,0.0001,0.00031,1e-05,3e-05,-3e-05,7e-05,0.00023,0.00088,3,9
11814,0.0001,0.00031,1e-05,3e-05,-3e-05,7e-05,0.00023,0.00088,3,9
11815,0.0001,0.00031,1e-05,3e-05,-3e-05,7e-05,0.00023,0.00088,3,9
11816,0.0001,0.00031,1e-05,3e-05,-3e-05,7e-05,0.00023,0.00088,3,9
11817,0.0001,0.00031,1e-05,3e-05,-3e-05,7e-05,0.00023,0.00088,3,9
11818,0.0001,0.00031,1e-05,3e-05,-3e-05,7e-05,0.00023,0.00088,3,9
11819,0.0001,0.00031,1e-05,3e-05,-3e-05,7e-05,0.00023,0.00088,3,9
11820,0.0001,0.00031,1e-05,3e-05,-3e-05,7e-05,0.00023,0.00088,3,9
11821,0.0001,0.00031,1e-05,3e-05,-3e-05,7e-05,0.00023,0.00088,3,9
11822,0.0001,0.00031,1e-05,3e-05,-3e-05,7e-05,0.00023,0.00088,3,9
11823,0.0001,0.00031,1e-05,3e-05,-3e-05,7e-05,0.00023,0.00088,3,9
11824,0.0001,0.00031,1e-05,3e-05,-3e-05,7e-05,0.00023,0.00088,3,9
11825,0.0001,0.00031,1e-05,3e-05,-3e-05,7e-05,0.00023,0.00088,3,9
11826,0.0001,0.00031,1e-05,3e-05,-3e-05,7e-05,0.00023,0.00088,3,9
11827,0.0001,0.00031,1e-05,3e-05,-3e-05,7e-05,0.00023,0.00088,3,9
11828,0.0001,0.00031,1e-05,3e-05,-3e-05,7e-05,0.00023,0.00088,3,9
11829,0.0001,0.00031,1e-05,3e-05,-3e-05,7e-05,0.00023,0.00088,3,9
11830,-0.00016,-3e-05,8e-05,4e-05,2e-05,6e-05,-2e-05,-0.00024,3,9
11831,-0.00028,-0.00032,-0.00012,-5e-05,-2e-05,-3e-05,0.00017,-0.00022,3,9
11832,-0.00028,-0.00032,-0.00012,-5e-05,-2e-05,-3e-05,0.00017,-0.00022,3,9
11833,-0.00028,-0.00032,-0.00012,-5e-05,-2e-05,-3e-05,0.00017,-0.00022,3,9
11834,-0.00028,-0.00032,-0.00012,-5e-05,-2e-05,-3e-05,0.00017,-0.00022,3,9
11835,-0.00028,-0.00032,-0.00012,-5e-05,-2e-05,-3e-05,0.00017,-0.00022,3,9
11836,-0.00028,-0.00032,-0.00012,-5e-05,-2e-05,-3e-05,0.00017,-0.00022,3,9
11838,-0.00028,-0.00032,-0.00012,-5e-05,-2e-05,-3e-05,0.00017,-0.00022,3,9
11839,-0.00028,-0.00032,-0.00012,-5e-05,-2e-05,-3e-05,0.00017,-0.00022,3,9
11840,-0.00028,-0.00032,-0.00012,-5e-05,-2e-05,-3e-05,0.00017,-0.00022,3,9
11841,-0.00028,-0.00032,-0.00012,-5e-05,-2e-05,-3e-05,0.00017,-0.00022,3,9
11842,-0.00028,-0.00032,-0.00012,-5e-05,-2e-05,-3e-05,0.00017,-0.00022,3,9
11843,-0.00028,-0.00032,-0.00012,-5e-05,-2e-05,-3e-05,0.00017,-0.00022,3,9
11844,-5e-05,0.0001,-3e-05,-6e-05,-3e-05,-0.0001,-0.00015,-0.00019,3,9
11845,-5e-05,0.0001,-3e-05,-6e-05,-3e-05,-0.0001,-0.00015,-0.00019,3,9
11846,-5e-05,0.0001,-3e-05,-6e-05,-3e-05,-0.0001,-0.00015,-0.00019,3,9
11847,-5e-05,0.0001,-3e-05,-6e-05,-3e-05,-0.0001,-0.00015,-0.00019,3,9
11848,-5e-05,0.0001,-3e-05,-6e-05,-3e-05,-0.0001,-0.00015,-0.00019,3,9
11849,-5e-05,0.0001,-3e-05,-6e-05,-3e-05,-0.0001,-0.00015,-0.00019,3,9
11850,-5e-05,0.0001,-3e-05,-6e-05,-3e-05,-0.0001,-0.00015,-0.00019,3,9
11851,-5e-05,0.0001,-3e-05,-6e-05,-3e-05,-0.0001,-0.00015,-0.00019,3,9
11852,0.00012,-8e-05,0,5e-05,4e-05,2e-05,0.00013,-3e-05,3,9
11853,0.00012,-8e-05,0,5e-05,4e-05,2e-05,0.00013,-3e-05,3,9
11854,0.00012,-8e-05,0,5e-05,4e-05,2e-05,0.00013,-3e-05,3,9
11855,0.00012,-8e-05,0,5e-05,4e-05,2e-05,0.00013,-3e-05,3,9
11856,0.00012,-8e-05,0,5e-05,4e-05,2e-05,0.00013,-3e-05,3,9
11857,0.00012,-8e-05,0,5e-05,4e-05,2e-05,0.00013,-3e-05,3,9
11858,0.00012,-8e-05,0,5e-05,4e-05,2e-05,0.00013,-3e-05,3,9
11859,0.00012,-8e-05,0,5e-05,4e-05,2e-05,0.00013,-3e-05,3,9
11860,0.00012,-8e-05,0,5e-05,4e-05,2e-05,0.00013,-3e-05,3,9
11861,0.00012,-8e-05,0,5e-05,4e-05,2e-05,0.00013,-3e-05,3,9
11862,0.00012,-8e-05,0,5e-05,4e-05,2e-05,0.00013,-3e-05,3,9
11863,0.00012,-8e-05,0,5e-05,4e-05,2e-05,0.00013,-3e-05,3,9
11864,0.00012,-8e-05,0,5e-05,4e-05,2e-05,0.00013,-3e-05,3,9
11865,0.00012,-8e-05,0,5e-05,4e-05,2e-05,0.00013,-3e-05,3,9
11866,0.00012,-8e-05,0,5e-05,4e-05,2e-05,0.00013,-3e-05,3,9
11867,0.00015,0.00031,2e-05,1e-05,1e-05,0,-3e-05,-0.00028,3,9
11868,0.00051,0.00021,6e-05,4e-05,-4e-05,-4e-05,0.00029,-0.00017,3,9
11869,0.00051,0.00021,6e-05,4e-05,-4e-05,-4e-05,0.00029,-0.00017,3,9
11870,0.00051,0.00021,6e-05,4e-05,-4e-05,-4e-05,0.00029,-0.00017,3,9
11871,0.00051,0.00021,6e-05,4e-05,-4e-05,-4e-05,0.00029,-0.00017,3,9
11872,0.00051,0.00021,6e-05,4e-05,-4e-05,-4e-05,0.00029,-0.00017,3,9
11873,0.00051,0.00021,6e-05,4e-05,-4e-05,-4e-05,0.00029,-0.00017,3,9
11874,0.00051,0.00021,6e-05,4e-05,-4e-05,-4e-05,0.00029,-0.00017,3,9
11875,0.00051,0.00021,6e-05,4e-05,-4e-05,-4e-05,0.00029,-0.00017,3,9
11876,0.00051,0.00021,6e-05,4e-05,-4e-05,-4e-05,0.00029,-0.00017,3,9
11877,0.00051,0.00021,6e-05,4e-05,-4e-05,-4e-05,0.00029,-0.00017,3,9
11878,0.00051,0.00021,6e-05,4e-05,-4e-05,-4e-05,0.00029,-0.00017,3,9
11879,0.00051,0.00021,6e-05,4e-05,-4e-05,-4e-05,0.00029,-0.00017,3,9
11880,0.00051,0.00021,6e-05,4e-05,-4e-05,-4e-05,0.00029,-0.00017,3,9
11881,0.00051,0.00021,6e-05,4e-05,-4e-05,-4e-05,0.00029,-0.00017,3,9
11882,0.00051,0.00021,6e-05,4e-05,-4e-05,-4e-05,0.00029,-0.00017,3,9
11883,0.00051,0.00021,6e-05,4e-05,-4e-05,-4e-05,0.00029,-0.00017,3,9
11884,0.00051,0.00021,6e-05,4e-05,-4e-05,-4e-05,0.00029,-0.00017,3,9
11885,0.00051,0.00021,6e-05,4e-05,-4e-05,-4e-05,0.00029,-0.00017,3,9
11886,0.00051,0.00021,6e-05,4e-05,-4e-05,-4e-05,0.00029,-0.00017,3,9
11888,0.00051,0.00021,6e-05,4e-05,-4e-05,-4e-05,0.00029,-0.00017,3,9
11889,0.00051,0.00021,6e-05,4e-05,-4e-05,-4e-05,0.00029,-0.00017,3,9
11890,0.00051,0.00021,6e-05,4e-05,-4e-05,-4e-05,0.00029,-0.00017,3,9
11891,0.00024,0.00035,6e-05,2e-05,1e-05,-2e-05,-0.00012,-0.00028,3,9
11892,-0.00051,-0.00056,-0.00011,-0.00011,-1e-05,-3e-05,-0.00017,-0.00022,3,9
11893,-0.00051,-0.00056,-0.00011,-0.00011,-1e-05,-3e-05,-0.00017,-0.00022,3,9
11894,-0.00051,-0.00056,-0.00011,-0.00011,-1e-05,-3e-05,-0.00017,-0.00022,3,9
11895,-0.00051,-0.00056,-0.00011,-0.00011,-1e-05,-3e-05,-0.00017,-0.00022,3,9
11896,-0.00051,-0.00056,-0.00011,-0.00011,-1e-05,-3e-05,-0.00017,-0.00022,3,9
11897,-0.00051,-0.00056,-0.00011,-0.00011,-1e-05,-3e-05,-0.00017,-0.00022,3,9
11898,-0.00051,-0.00056,-0.00011,-0.00011,-1e-05,-3e-05,-0.00017,-0.00022,3,9
11899,-0.00051,-0.00056,-0.00011,-0.00011,-1e-05,-3e-05,-0.00017,-0.00022,3,9
11900,-0.00051,-0.00056,-0.00011,-0.00011,-1e-05,-3e-05,-0.00017,-0.00022,3,9
11901,-0.00051,-0.00056,-0.00011,-0.00011,-1e-05,-3e-05,-0.00017,-0.00022,3,9
11902,-0.00051,-0.00056,-0.00011,-0.00011,-1e-05,-3e-05,-0.00017,-0.00022,3,9
11903,-0.00051,-0.00056,-0.00011,-0.00011,-1e-05,-3e-05,-0.00017,-0.00022,3,9
11904,-0.00051,-0.00056,-0.00011,-0.00011,-1e-05,-3e-05,-0.00017,-0.00022,3,9
11905,-0.00051,-0.00056,-0.00011,-0.00011,-1e-05,-3e-05,-0.00017,-0.00022,3,9
11906,-0.00051,-0.00056,-0.00011,-0.00011,-1e-05,-3e-05,-0.00017,-0.00022,3,9
11907,-0.00051,-0.00056,-0.00011,-0.00011,-1e-05,-3e-05,-0.00017,-0.00022,3,9
11908,-0.00051,-0.00056,-0.00011,-0.00011,-1e-05,-3e-05,-0.00017,-0.00022,3,9
11909,-0.00051,-0.00056,-0.00011,-0.00011,-1e-05,-3e-05,-0.00017,-0.00022,3,9
11910,-0.00051,-0.00056,-0.00011,-0.00011,-1e-05,-3e-05,-0.00017,-0.00022,3,9
11911,-0.00051,-0.00056,-0.00011,-0.00011,-1e-05,-3e-05,-0.00017,-0.00022,3,9
11912,-0.00051,-0.00056,-0.00011,-0.00011,-1e-05,-3e-05,-0.00017,-0.00022,3,9
11913,3e-05,0,-1e-05,0,0,1e-05,9e-05,-0.0001,3,9
11914,2e-05,-8e-05,-8e-05,-5e-05,-5e-05,-1e-05,-9e-05,0.00032,3,9
11915,2e-05,-8e-05,-8e-05,-5e-05,-5e-05,-1e-05,-9e-05,0.00032,3,9
11916,2e-05,-8e-05,-8e-05,-5e-05,-5e-05,-1e-05,-9e-05,0.00032,3,9
11917,2e-05,-8e-05,-8e-05,-5e-05,-5e-05,-1e-05,-9e-05,0.00032,3,9
11918,2e-05,-8e-05,-8e-05,-5e-05,-5e-05,-1e-05,-9e-05,0.00032,3,9
11919,2e-05,-8e-05,-8e-05,-5e-05,-5e-05,-1e-05,-9e-05,0.00032,3,9
11920,2e-05,-8e-05,-8e-05,-5e-05,-5e-05,-1e-05,-9e-05,0.00032,3,9
11921,2e-05,-8e-05,-8e-05,-5e-05,-5e-05,-1e-05,-9e-05,0.00032,3,9
11922,2e-05,-8e-05,-8e-05,-5e-05,-5e-05,-1e-05,-9e-05,0.00032,3,9
11923,2e-05,-8e-05,-8e-05,-5e-05,-5e-05,-1e-05,-9e-05,0.00032,3,9
11924,2e-05,-8e-05,-8e-05,-5e-05,-5e-05,-1e-05,-9e-05,0.00032,3,9
11925,2e-05,-8e-05,-8e-05,-5e-05,-5e-05,-1e-05,-9e-05,0.00032,3,9
11926,2e-05,-8e-05,-8e-05,-5e-05,-5e-05,-1e-05,-9e-05,0.00032,3,9
11927,2e-05,-8e-05,-8e-05,-5e-05,-5e-05,-1e-05,-9e-05,0.00032,3,9
11928,2e-05,-8e-05,-8e-05,-5e-05,-5e-05,-1e-05,-9e-05,0.00032,3,9
11929,2e-05,-8e-05,-8e-05,-5e-05,-5e-05,-1e-05,-9e-05,0.00032,3,9
11930,2e-05,-8e-05,-8e-05,-5e-05,-5e-05,-1e-05,-9e-05,0.00032,3,9
11931,2e-05,-8e-05,-8e-05,-5e-05,-5e-05,-1e-05,-9e-05,0.00032,3,9
11932,2e-05,-8e-05,-8e-05,-5e-05,-5e-05,-1e-05,-9e-05,0.00032,3,9
11933,2e-05,-8e-05,-8e-05,-5e-05,-5e-05,-1e-05,-9e-05,0.00032,3,9
11934,2e-05,-8e-05,-8e-05,-5e-05,-5e-05,-1e-05,-9e-05,0.00032,3,9
11935,2e-05,-8e-05,-8e-05,-5e-05,-5e-05,-1e-05,-9e-05,0.00032,3,9
11936,-3e-05,0.0002,6e-05,-4e-05,1e-05,2e-05,-4e-05,-0.00048,3,9
11938,-3e-05,0.0002,6e-05,-4e-05,1e-05,2e-05,-4e-05,-0.00048,3,9
11939,-3e-05,0.0002,6e-05,-4e-05,1e-05,2e-05,-4e-05,-0.00048,3,9
11940,-3e-05,0.0002,6e-05,-4e-05,1e-05,2e-05,-4e-05,-0.00048,3,9
11941,-3e-05,0.0002,6e-05,-4e-05,1e-05,2e-05,-4e-05,-0.00048,3,9
11942,-3e-05,0.0002,6e-05,-4e-05,1e-05,2e-05,-4e-05,-0.00048,3,9
11943,-3e-05,0.0002,6e-05,-4e-05,1e-05,2e-05,-4e-05,-0.00048,3,9
11944,-3e-05,0.0002,6e-05,-4e-05,1e-05,2e-05,-4e-05,-0.00048,3,9
11945,-3e-05,0.0002,6e-05,-4e-05,1e-05,2e-05,-4e-05,-0.00048,3,9
11946,-3e-05,0.0002,6e-05,-4e-05,1e-05,2e-05,-4e-05,-0.00048,3,9
11947,-3e-05,0.0002,6e-05,-4e-05,1e-05,2e-05,-4e-05,-0.00048,3,9
11948,-3e-05,0.0002,6e-05,-4e-05,1e-05,2e-05,-4e-05,-0.00048,3,9
11949,-3e-05,0.0002,6e-05,-4e-05,1e-05,2e-05,-4e-05,-0.00048,3,9
11950,-3e-05,0.0002,6e-05,-4e-05,1e-05,2e-05,-4e-05,-0.00048,3,9
11951,-3e-05,0.0002,6e-05,-4e-05,1e-05,2e-05,-4e-05,-0.00048,3,9
11952,-3e-05,0.0002,6e-05,-4e-05,1e-05,2e-05,-4e-05,-0.00048,3,9
11953,-3e-05,0.0002,6e-05,-4e-05,1e-05,2e-05,-4e-05,-0.00048,3,9
11954,-3e-05,0.0002,6e-05,-4e-05,1e-05,2e-05,-4e-05,-0.00048,3,9
11955,-3e-05,0.0002,6e-05,-4e-05,1e-05,2e-05,-4e-05,-0.00048,3,9
11956,-3e-05,0.0002,6e-05,-4e-05,1e-05,2e-05,-4e-05,-0.00048,3,9
11957,0.00049,0.0002,2e-05,3e-05,-3e-05,-4e-05,-4e-05,0.00037,3,9
11958,5e-05,4e-05,1e-05,-2e-05,-6e-05,-4e-05,-0.00014,0.0002,3,9
11959,5e-05,4e-05,1e-05,-2e-05,-6e-05,-4e-05,-0.00014,0.0002,3,9
11960,5e-05,4e-05,1e-05,-2e-05,-6e-05,-4e-05,-0.00014,0.0002,3,9
11961,5e-05,4e-05,1e-05,-2e-05,-6e-05,-4e-05,-0.00014,0.0002,3,9
11962,5e-05,4e-05,1e-05,-2e-05,-6e-05,-4e-05,-0.00014,0.0002,3,9
11963,5e-05,4e-05,1e-05,-2e-05,-6e-05,-4e-05,-0.00014,0.0002,3,9
11964,5e-05,4e-05,1e-05,-2e-05,-6e-05,-4e-05,-0.00014,0.0002,3,9
11965,5e-05,4e-05,1e-05,-2e-05,-6e-05,-4e-05,-0.00014,0.0002,3,9
11966,5e-05,4e-05,1e-05,-2e-05,-6e-05,-4e-05,-0.00014,0.0002,3,9
11967,5e-05,4e-05,1e-05,-2e-05,-6e-05,-4e-05,-0.00014,0.0002,3,9
11968,5e-05,4e-05,1e-05,-2e-05,-6e-05,-4e-05,-0.00014,0.0002,3,9
11969,5e-05,4e-05,1e-05,-2e-05,-6e-05,-4e-05,-0.00014,0.0002,3,9
11970,5e-05,4e-05,1e-05,-2e-05,-6e-05,-4e-05,-0.00014,0.0002,3,9
11971,5e-05,4e-05,1e-05,-2e-05,-6e-05,-4e-05,-0.00014,0.0002,3,9
11972,5e-05,4e-05,1e-05,-2e-05,-6e-05,-4e-05,-0.00014,0.0002,3,9
11973,5e-05,4e-05,1e-05,-2e-05,-6e-05,-4e-05,-0.00014,0.0002,3,9
11974,5e-05,4e-05,1e-05,-2e-05,-6e-05,-4e-05,-0.00014,0.0002,3,9
11975,5e-05,4e-05,1e-05,-2e-05,-6e-05,-4e-05,-0.00014,0.0002,3,9
11976,5e-05,4e-05,1e-05,-2e-05,-6e-05,-4e-05,-0.00014,0.0002,3,9
11977,5e-05,4e-05,1e-05,-2e-05,-6e-05,-4e-05,-0.00014,0.0002,3,9
11978,5e-05,4e-05,1e-05,-2e-05,-6e-05,-4e-05,-0.00014,0.0002,3,9
11979,5e-05,4e-05,1e-05,-2e-05,-6e-05,-4e-05,-0.00014,0.0002,3,9
11980,5e-05,4e-05,1e-05,-2e-05,-6e-05,-4e-05,-0.00014,0.0002,3,9
11981,-0.00022,-0.00035,-4e-05,-6e-05,-6e-05,0,-4e-05,0.00019,3,9
11982,-0.00022,-0.00035,-4e-05,-6e-05,-6e-05,0,-4e-05,0.00019,3,9
11984,-0.00022,-0.00035,-4e-05,-6e-05,-6e-05,0,-4e-05,0.00019,3,9
11985,-0.00022,-0.00035,-4e-05,-6e-05,-6e-05,0,-4e-05,0.00019,3,9
11986,-0.00022,-0.00035,-4e-05,-6e-05,-6e-05,0,-4e-05,0.00019,3,9
11988,0.00032,0.00025,1e-05,-4e-05,-7e-05,-0.00014,-1e-05,8e-05,3,9
11989,0.00032,0.00025,1e-05,-4e-05,-7e-05,-0.00014,-1e-05,8e-05,3,9
11990,0.00032,0.00025,1e-05,-4e-05,-7e-05,-0.00014,-1e-05,8e-05,3,9
11991,0.00032,0.00025,1e-05,-4e-05,-7e-05,-0.00014,-1e-05,8e-05,3,9
11992,0.00032,0.00025,1e-05,-4e-05,-7e-05,-0.00014,-1e-05,8e-05,3,9
11993,0.00032,0.00025,1e-05,-4e-05,-7e-05,-0.00014,-1e-05,8e-05,3,9
11994,0.00032,0.00025,1e-05,-4e-05,-7e-05,-0.00014,-1e-05,8e-05,3,9
11995,0.00032,0.00025,1e-05,-4e-05,-7e-05,-0.00014,-1e-05,8e-05,3,9
11996,0.00032,0.00025,1e-05,-4e-05,-7e-05,-0.00014,-1e-05,8e-05,3,9
11997,0.00032,0.00025,1e-05,-4e-05,-7e-05,-0.00014,-1e-05,8e-05,3,9
11998,0.00032,0.00025,1e-05,-4e-05,-7e-05,-0.00014,-1e-05,8e-05,3,9
11999,0.00032,0.00025,1e-05,-4e-05,-7e-05,-0.00014,-1e-05,8e-05,3,9
12000,0.00032,0.00025,1e-05,-4e-05,-7e-05,-0.00014,-1e-05,8e-05,3,9
12001,0.00032,0.00025,1e-05,-4e-05,-7e-05,-0.00014,-1e-05,8e-05,3,9
12002,0.00032,0.00025,1e-05,-4e-05,-7e-05,-0.00014,-1e-05,8e-05,3,9
12003,0.00032,0.00025,1e-05,-4e-05,-7e-05,-0.00014,-1e-05,8e-05,3,9
12004,0.00032,0.00025,1e-05,-4e-05,-7e-05,-0.00014,-1e-05,8e-05,3,9
12005,0.00032,0.00025,1e-05,-4e-05,-7e-05,-0.00014,-1e-05,8e-05,3,9
12006,0.00032,0.00025,1e-05,-4e-05,-7e-05,-0.00014,-1e-05,8e-05,3,9
12007,0.00032,0.00025,1e-05,-4e-05,-7e-05,-0.00014,-1e-05,8e-05,3,9
12008,0.00032,0.00025,1e-05,-4e-05,-7e-05,-0.00014,-1e-05,8e-05,3,9
12009,0.00032,0.00025,1e-05,-4e-05,-7e-05,-0.00014,-1e-05,8e-05,3,9
12010,-0.00023,-0.00059,-9e-05,0,7e-05,7e-05,2e-05,0.00015,3,9
12011,0.00013,0.00014,-1e-05,0,1e-05,2e-05,-8e-05,0.00056,3,9
12012,0.00013,0.00014,-1e-05,0,1e-05,2e-05,-8e-05,0.00056,3,9
12013,0.00013,0.00014,-1e-05,0,1e-05,2e-05,-8e-05,0.00056,3,9
12014,0.00013,0.00014,-1e-05,0,1e-05,2e-05,-8e-05,0.00056,3,9
12015,0.00013,0.00014,-1e-05,0,1e-05,2e-05,-8e-05,0.00056,3,9
12016,0.00013,0.00014,-1e-05,0,1e-05,2e-05,-8e-05,0.00056,3,9
12017,0.00013,0.00014,-1e-05,0,1e-05,2e-05,-8e-05,0.00056,3,9
12018,0.00013,0.00014,-1e-05,0,1e-05,2e-05,-8e-05,0.00056,3,9
12019,0.00013,0.00014,-1e-05,0,1e-05,2e-05,-8e-05,0.00056,3,9
12020,0.00013,0.00014,-1e-05,0,1e-05,2e-05,-8e-05,0.00056,3,9
12021,0.00013,0.00014,-1e-05,0,1e-05,2e-05,-8e-05,0.00056,3,9
12022,0.00013,0.00014,-1e-05,0,1e-05,2e-05,-8e-05,0.00056,3,9
12023,0.00013,0.00014,-1e-05,0,1e-05,2e-05,-8e-05,0.00056,3,9
12024,0.00013,0.00014,-1e-05,0,1e-05,2e-05,-8e-05,0.00056,3,9
12025,0.00013,0.00014,-1e-05,0,1e-05,2e-05,-8e-05,0.00056,3,9
12026,0.00013,0.00014,-1e-05,0,1e-05,2e-05,-8e-05,0.00056,3,9
12027,0.00013,0.00014,-1e-05,0,1e-05,2e-05,-8e-05,0.00056,3,9
12028,0.00013,0.00014,-1e-05,0,1e-05,2e-05,-8e-05,0.00056,3,9
12029,0.00013,0.00014,-1e-05,0,1e-05,2e-05,-8e-05,0.00056,3,9
12030,0.00013,0.00014,-1e-05,0,1e-05,2e-05,-8e-05,0.00056,3,9
12031,0.00013,0.00014,-1e-05,0,1e-05,2e-05,-8e-05,0.00056,3,9
12032,0.00013,0.00014,-1e-05,0,1e-05,2e-05,-8e-05,0.00056,3,9
12033,-4e-05,2e-05,-1e-05,4e-05,0,2e-05,-3e-05,-0.0005,3,9
12034,-4e-05,2e-05,-1e-05,4e-05,0,2e-05,-3e-05,-0.0005,3,9
12035,-4e-05,2e-05,-1e-05,4e-05,0,2e-05,-3e-05,-0.0005,3,9
12036,-4e-05,2e-05,-1e-05,4e-05,0,2e-05,-3e-05,-0.0005,3,9
12038,-4e-05,2e-05,-1e-05,4e-05,0,2e-05,-3e-05,-0.0005,3,9
12039,-4e-05,2e-05,-1e-05,4e-05,0,2e-05,-3e-05,-0.0005,3,9
12040,-4e-05,2e-05,-1e-05,4e-05,0,2e-05,-3e-05,-0.0005,3,9
12041,-4e-05,2e-05,-1e-05,4e-05,0,2e-05,-3e-05,-0.0005,3,9
12042,-4e-05,2e-05,-1e-05,4e-05,0,2e-05,-3e-05,-0.0005,3,9
12043,-4e-05,2e-05,-1e-05,4e-05,0,2e-05,-3e-05,-0.0005,3,9
12044,-4e-05,2e-05,-1e-05,4e-05,0,2e-05,-3e-05,-0.0005,3,9
12045,-4e-05,2e-05,-1e-05,4e-05,0,2e-05,-3e-05,-0.0005,3,9
12046,-4e-05,2e-05,-1e-05,4e-05,0,2e-05,-3e-05,-0.0005,3,9
12047,0.00034,0.00037,5e-05,3e-05,-6e-05,-6e-05,3e-05,0.00032,3,9
12048,0.00012,0.0002,0,3e-05,6e-05,8e-05,0.00019,-0.00037,3,9
12049,0.00012,0.0002,0,3e-05,6e-05,8e-05,0.00019,-0.00037,3,9
12050,0.00012,0.0002,0,3e-05,6e-05,8e-05,0.00019,-0.00037,3,9
12051,0.00012,0.0002,0,3e-05,6e-05,8e-05,0.00019,-0.00037,3,9
12052,0.00012,0.0002,0,3e-05,6e-05,8e-05,0.00019,-0.00037,3,9
12053,0.00012,0.0002,0,3e-05,6e-05,8e-05,0.00019,-0.00037,3,9
12054,0.00012,0.0002,0,3e-05,6e-05,8e-05,0.00019,-0.00037,3,9
12055,0.00012,0.0002,0,3e-05,6e-05,8e-05,0.00019,-0.00037,3,9
12056,0.00012,0.0002,0,3e-05,6e-05,8e-05,0.00019,-0.00037,3,9
12057,0.00012,0.0002,0,3e-05,6e-05,8e-05,0.00019,-0.00037,3,9
12058,0.00012,0.0002,0,3e-05,6e-05,8e-05,0.00019,-0.00037,3,9
12059,0.00012,0.0002,0,3e-05,6e-05,8e-05,0.00019,-0.00037,3,9
12060,0.00012,0.0002,0,3e-05,6e-05,8e-05,0.00019,-0.00037,3,9
12061,0.00012,0.0002,0,3e-05,6e-05,8e-05,0.00019,-0.00037,3,9
12062,0.00012,0.0002,0,3e-05,6e-05,8e-05,0.00019,-0.00037,3,9
12063,0.00012,0.0002,0,3e-05,6e-05,8e-05,0.00019,-0.00037,3,9
12064,0.00012,0.0002,0,3e-05,6e-05,8e-05,0.00019,-0.00037,3,9
12065,0.00012,0.0002,0,3e-05,6e-05,8e-05,0.00019,-0.00037,3,9
12066,0.00012,0.0002,0,3e-05,6e-05,8e-05,0.00019,-0.00037,3,9
12067,0.00012,0.0002,0,3e-05,6e-05,8e-05,0.00019,-0.00037,3,9
12068,0.00012,0.0002,0,3e-05,6e-05,8e-05,0.00019,-0.00037,3,9
12069,0.00012,0.0002,0,3e-05,6e-05,8e-05,0.00019,-0.00037,3,9
12070,0.00012,0.0002,0,3e-05,6e-05,8e-05,0.00019,-0.00037,3,9
12071,0.00012,0.0002,0,3e-05,6e-05,8e-05,0.00019,-0.00037,3,9
12072,0.00012,0.0002,0,3e-05,6e-05,8e-05,0.00019,-0.00037,3,9
12073,0.00012,0.0002,0,3e-05,6e-05,8e-05,0.00019,-0.00037,3,9
12074,0.00012,0.0002,0,3e-05,6e-05,8e-05,0.00019,-0.00037,3,9
12075,0.00012,0.0002,0,3e-05,6e-05,8e-05,0.00019,-0.00037,3,9
12076,0.00012,0.0002,0,3e-05,6e-05,8e-05,0.00019,-0.00037,3,9
12077,0.00012,0.0002,0,3e-05,6e-05,8e-05,0.00019,-0.00037,3,9
12078,0.0001,0.00031,5e-05,3e-05,2e-05,3e-05,0.00018,0.00026,3,9
12079,-0.00032,-0.00014,0,1e-05,-2e-05,-2e-05,0,7e-05,3,9
12080,-0.00032,-0.00014,0,1e-05,-2e-05,-2e-05,0,7e-05,3,9
12081,-0.00032,-0.00014,0,1e-05,-2e-05,-2e-05,0,7e-05,3,9
12082,-0.00032,-0.00014,0,1e-05,-2e-05,-2e-05,0,7e-05,3,9
12083,-0.00032,-0.00014,0,1e-05,-2e-05,-2e-05,0,7e-05,3,9
12084,-0.00032,-0.00014,0,1e-05,-2e-05,-2e-05,0,7e-05,3,9
12085,-0.00032,-0.00014,0,1e-05,-2e-05,-2e-05,0,7e-05,3,9
12086,-0.00032,-0.00014,0,1e-05,-2e-05,-2e-05,0,7e-05,3,9
12088,-0.00032,-0.00014,0,1e-05,-2e-05,-2e-05,0,7e-05,3,9
12089,-0.00032,-0.00014,0,1e-05,-2e-05,-2e-05,0,7e-05,3,9
12090,-0.00032,-0.00014,0,1e-05,-2e-05,-2e-05,0,7e-05,3,9
12091,-0.00032,-0.00014,0,1e-05,-2e-05,-2e-05,0,7e-05,3,9
12092,-0.00032,-0.00014,0,1e-05,-2e-05,-2e-05,0,7e-05,3,9
12093,-0.00032,-0.00014,0,1e-05,-2e-05,-2e-05,0,7e-05,3,9
12094,-0.00032,-0.00014,0,1e-05,-2e-05,-2e-05,0,7e-05,3,9
12095,-0.00032,-0.00014,0,1e-05,-2e-05,-2e-05,0,7e-05,3,9
12096,-0.00032,-0.00014,0,1e-05,-2e-05,-2e-05,0,7e-05,3,9
12097,-0.00032,-0.00014,0,1e-05,-2e-05,-2e-05,0,7e-05,3,9
12098,-0.00032,-0.00014,0,1e-05,-2e-05,-2e-05,0,7e-05,3,9
12099,-0.00032,-0.00014,0,1e-05,-2e-05,-2e-05,0,7e-05,3,9
12100,0.00021,-1e-05,-2e-05,-2e-05,0,0,-0.00012,-0.00021,3,9
12101,-9e-05,-0.00034,-8e-05,-7e-05,-4e-05,-2e-05,-0.00017,0.00032,3,9
12102,-9e-05,-0.00034,-8e-05,-7e-05,-4e-05,-2e-05,-0.00017,0.00032,3,9
12103,-9e-05,-0.00034,-8e-05,-7e-05,-4e-05,-2e-05,-0.00017,0.00032,3,9
12104,-9e-05,-0.00034,-8e-05,-7e-05,-4e-05,-2e-05,-0.00017,0.00032,3,9
12105,-9e-05,-0.00034,-8e-05,-7e-05,-4e-05,-2e-05,-0.00017,0.00032,3,9
12106,-9e-05,-0.00034,-8e-05,-7e-05,-4e-05,-2e-05,-0.00017,0.00032,3,9
12107,-9e-05,-0.00034,-8e-05,-7e-05,-4e-05,-2e-05,-0.00017,0.00032,3,9
12108,0.00015,7e-05,1e-05,1e-05,0,0,-0.00012,8e-05,3,9
12109,0.00015,7e-05,1e-05,1e-05,0,0,-0.00012,8e-05,3,9
12110,0.00015,7e-05,1e-05,1e-05,0,0,-0.00012,8e-05,3,9
12111,0.00015,7e-05,1e-05,1e-05,0,0,-0.00012,8e-05,3,9
12112,0.00015,7e-05,1e-05,1e-05,0,0,-0.00012,8e-05,3,9
12113,0.00015,7e-05,1e-05,1e-05,0,0,-0.00012,8e-05,3,9
12114,0.00015,7e-05,1e-05,1e-05,0,0,-0.00012,8e-05,3,9
12115,0.00015,7e-05,1e-05,1e-05,0,0,-0.00012,8e-05,3,9
12116,0.00015,7e-05,1e-05,1e-05,0,0,-0.00012,8e-05,3,9
12117,0.00015,7e-05,1e-05,1e-05,0,0,-0.00012,8e-05,3,9
12118,0.00015,7e-05,1e-05,1e-05,0,0,-0.00012,8e-05,3,9
12119,0.00015,7e-05,1e-05,1e-05,0,0,-0.00012,8e-05,3,9
12120,0.00015,7e-05,1e-05,1e-05,0,0,-0.00012,8e-05,3,9
12121,0.00015,7e-05,1e-05,1e-05,0,0,-0.00012,8e-05,3,9
12122,0.00019,0.00027,7e-05,2e-05,-1e-05,-3e-05,-6e-05,-0.00022,3,9
12123,0.00019,0.00027,7e-05,2e-05,-1e-05,-3e-05,-6e-05,-0.00022,3,9
12124,0.00019,0.00027,7e-05,2e-05,-1e-05,-3e-05,-6e-05,-0.00022,3,9
12125,0.00019,0.00027,7e-05,2e-05,-1e-05,-3e-05,-6e-05,-0.00022,3,9
12126,0.00019,0.00027,7e-05,2e-05,-1e-05,-3e-05,-6e-05,-0.00022,3,9
12127,0.00019,0.00027,7e-05,2e-05,-1e-05,-3e-05,-6e-05,-0.00022,3,9
12128,0.00019,0.00027,7e-05,2e-05,-1e-05,-3e-05,-6e-05,-0.00022,3,9
12129,0.00019,0.00027,7e-05,2e-05,-1e-05,-3e-05,-6e-05,-0.00022,3,9
12130,0.00019,0.00027,7e-05,2e-05,-1e-05,-3e-05,-6e-05,-0.00022,3,9
12131,4e-05,-0.00015,-4e-05,-1e-05,3e-05,6e-05,2e-05,0.00014,3,9
12132,1e-05,-3e-05,-4e-05,-3e-05,-3e-05,-7e-05,-0.0001,-6e-05,3,9
12133,1e-05,-3e-05,-4e-05,-3e-05,-3e-05,-7e-05,-0.0001,-6e-05,3,9
12134,1e-05,-3e-05,-4e-05,-3e-05,-3e-05,-7e-05,-0.0001,-6e-05,3,9
12135,1e-05,-3e-05,-4e-05,-3e-05,-3e-05,-7e-05,-0.0001,-6e-05,3,9
12136,1e-05,-3e-05,-4e-05,-3e-05,-3e-05,-7e-05,-0.0001,-6e-05,3,9
12138,1e-05,-3e-05,-4e-05,-3e-05,-3e-05,-7e-05,-0.0001,-6e-05,3,9
12139,1e-05,-3e-05,-4e-05,-3e-05,-3e-05,-7e-05,-0.0001,-6e-05,3,9
12140,1e-05,-3e-05,-4e-05,-3e-05,-3e-05,-7e-05,-0.0001,-6e-05,3,9
12141,1e-05,-3e-05,-4e-05,-3e-05,-3e-05,-7e-05,-0.0001,-6e-05,3,9
12142,1e-05,-3e-05,-4e-05,-3e-05,-3e-05,-7e-05,-0.0001,-6e-05,3,9
12143,1e-05,-3e-05,-4e-05,-3e-05,-3e-05,-7e-05,-0.0001,-6e-05,3,9
12144,1e-05,-3e-05,-4e-05,-3e-05,-3e-05,-7e-05,-0.0001,-6e-05,3,9
12145,1e-05,-3e-05,-4e-05,-3e-05,-3e-05,-7e-05,-0.0001,-6e-05,3,9
12146,1e-05,-3e-05,-4e-05,-3e-05,-3e-05,-7e-05,-0.0001,-6e-05,3,9
12147,1e-05,-3e-05,-4e-05,-3e-05,-3e-05,-7e-05,-0.0001,-6e-05,3,9
12148,1e-05,-3e-05,-4e-05,-3e-05,-3e-05,-7e-05,-0.0001,-6e-05,3,9
12149,1e-05,-3e-05,-4e-05,-3e-05,-3e-05,-7e-05,-0.0001,-6e-05,3,9
12150,1e-05,-3e-05,-4e-05,-3e-05,-3e-05,-7e-05,-0.0001,-6e-05,3,9
12151,1e-05,-3e-05,-4e-05,-3e-05,-3e-05,-7e-05,-0.0001,-6e-05,3,9
12152,1e-05,-3e-05,-4e-05,-3e-05,-3e-05,-7e-05,-0.0001,-6e-05,3,9
12153,-0.00024,-0.00017,-7e-05,-6e-05,-6e-05,-6e-05,-9e-05,-0.00021,3,9
12154,-0.00031,0,7e-05,3e-05,1e-05,0,2e-05,-1e-05,3,9
12155,-0.00031,0,7e-05,3e-05,1e-05,0,2e-05,-1e-05,3,9
12156,-0.00031,0,7e-05,3e-05,1e-05,0,2e-05,-1e-05,3,9
12157,-0.00031,0,7e-05,3e-05,1e-05,0,2e-05,-1e-05,3,9
12158,-0.00031,0,7e-05,3e-05,1e-05,0,2e-05,-1e-05,3,9
12159,-0.00031,0,7e-05,3e-05,1e-05,0,2e-05,-1e-05,3,9
12160,-0.00031,0,7e-05,3e-05,1e-05,0,2e-05,-1e-05,3,9
12161,-0.00031,0,7e-05,3e-05,1e-05,0,2e-05,-1e-05,3,9
12162,-0.00031,0,7e-05,3e-05,1e-05,0,2e-05,-1e-05,3,9
12164,-0.00031,0,7e-05,3e-05,1e-05,0,2e-05,-1e-05,3,9
12165,-0.00031,0,7e-05,3e-05,1e-05,0,2e-05,-1e-05,3,9
12166,-0.00031,0,7e-05,3e-05,1e-05,0,2e-05,-1e-05,3,9
12167,-4e-05,0.00027,-4e-05,-7e-05,-6e-05,-0.00011,-7e-05,0.00018,3,9
12168,-0.00016,-0.00035,-6e-05,-5e-05,-1e-05,-3e-05,-6e-05,-0.00048,3,9
12169,-0.00016,-0.00035,-6e-05,-5e-05,-1e-05,-3e-05,-6e-05,-0.00048,3,9
12170,-0.00016,-0.00035,-6e-05,-5e-05,-1e-05,-3e-05,-6e-05,-0.00048,3,9
12171,-0.00016,-0.00035,-6e-05,-5e-05,-1e-05,-3e-05,-6e-05,-0.00048,3,9
12172,-0.00016,-0.00035,-6e-05,-5e-05,-1e-05,-3e-05,-6e-05,-0.00048,3,9
12173,-0.00016,-0.00035,-6e-05,-5e-05,-1e-05,-3e-05,-6e-05,-0.00048,3,9
12174,-0.00016,-0.00035,-6e-05,-5e-05,-1e-05,-3e-05,-6e-05,-0.00048,3,9
12175,-0.00016,-0.00035,-6e-05,-5e-05,-1e-05,-3e-05,-6e-05,-0.00048,3,9
12176,-0.00016,-0.00035,-6e-05,-5e-05,-1e-05,-3e-05,-6e-05,-0.00048,3,9
12177,-0.00016,-0.00035,-6e-05,-5e-05,-1e-05,-3e-05,-6e-05,-0.00048,3,9
12178,-0.00016,-0.00035,-6e-05,-5e-05,-1e-05,-3e-05,-6e-05,-0.00048,3,9
12179,-0.00016,-0.00035,-6e-05,-5e-05,-1e-05,-3e-05,-6e-05,-0.00048,3,9
12180,-0.00016,-0.00035,-6e-05,-5e-05,-1e-05,-3e-05,-6e-05,-0.00048,3,9
12181,-0.00016,-0.00035,-6e-05,-5e-05,-1e-05,-3e-05,-6e-05,-0.00048,3,9
12182,-0.00016,-0.00035,-6e-05,-5e-05,-1e-05,-3e-05,-6e-05,-0.00048,3,9
12183,-0.00016,-0.00035,-6e-05,-5e-05,-1e-05,-3e-05,-6e-05,-0.00048,3,9
12184,-0.00016,-0.00035,-6e-05,-5e-05,-1e-05,-3e-05,-6e-05,-0.00048,3,9
12185,-0.00016,-0.00035,-6e-05,-5e-05,-1e-05,-3e-05,-6e-05,-0.00048,3,9
12186,-0.00016,-0.00035,-6e-05,-5e-05,-1e-05,-3e-05,-6e-05,-0.00048,3,9
12188,-0.00016,-0.00035,-6e-05,-5e-05,-1e-05,-3e-05,-6e-05,-0.00048,3,9
12189,-0.00016,-0.00035,-6e-05,-5e-05,-1e-05,-3e-05,-6e-05,-0.00048,3,9
12190,0.00026,1e-05,-1e-05,-3e-05,-9e-05,-3e-05,0.00026,0.00047,3,9
12191,0.00029,0.00022,-3e-05,-3e-05,-1e-05,-4e-05,-5e-05,0.00021,3,9
12192,0.00029,0.00022,-3e-05,-3e-05,-1e-05,-4e-05,-5e-05,0.00021,3,9
12193,0.00029,0.00022,-3e-05,-3e-05,-1e-05,-4e-05,-5e-05,0.00021,3,9
12194,0.00029,0.00022,-3e-05,-3e-05,-1e-05,-4e-05,-5e-05,0.00021,3,9
12195,0.00029,0.00022,-3e-05,-3e-05,-1e-05,-4e-05,-5e-05,0.00021,3,9
12196,0.00029,0.00022,-3e-05,-3e-05,-1e-05,-4e-05,-5e-05,0.00021,3,9
12197,0.00029,0.00022,-3e-05,-3e-05,-1e-05,-4e-05,-5e-05,0.00021,3,9
12198,0.00029,0.00022,-3e-05,-3e-05,-1e-05,-4e-05,-5e-05,0.00021,3,9
12199,0.00029,0.00022,-3e-05,-3e-05,-1e-05,-4e-05,-5e-05,0.00021,3,9
12200,0.00029,0.00022,-3e-05,-3e-05,-1e-05,-4e-05,-5e-05,0.00021,3,9
12201,0.00029,0.00022,-3e-05,-3e-05,-1e-05,-4e-05,-5e-05,0.00021,3,9
12202,0.00029,0.00022,-3e-05,-3e-05,-1e-05,-4e-05,-5e-05,0.00021,3,9
12203,0.00029,0.00022,-3e-05,-3e-05,-1e-05,-4e-05,-5e-05,0.00021,3,9
12204,0.00029,0.00022,-3e-05,-3e-05,-1e-05,-4e-05,-5e-05,0.00021,3,9
12205,0.00029,0.00022,-3e-05,-3e-05,-1e-05,-4e-05,-5e-05,0.00021,3,9
12206,0.00029,0.00022,-3e-05,-3e-05,-1e-05,-4e-05,-5e-05,0.00021,3,9
12207,0.00029,0.00022,-3e-05,-3e-05,-1e-05,-4e-05,-5e-05,0.00021,3,9
12208,0.00029,0.00022,-3e-05,-3e-05,-1e-05,-4e-05,-5e-05,0.00021,3,9
12209,0.00029,0.00022,-3e-05,-3e-05,-1e-05,-4e-05,-5e-05,0.00021,3,9
12210,0.00029,0.00022,-3e-05,-3e-05,-1e-05,-4e-05,-5e-05,0.00021,3,9
12211,0.00029,0.00022,-3e-05,-3e-05,-1e-05,-4e-05,-5e-05,0.00021,3,9
12212,0.00029,0.00022,-3e-05,-3e-05,-1e-05,-4e-05,-5e-05,0.00021,3,9
12213,0.00029,0.00022,-3e-05,-3e-05,-1e-05,-4e-05,-5e-05,0.00021,3,9
12214,-0.00011,-0.00033,-7e-05,-6e-05,-9e-05,-0.00011,-0.00012,0.00017,3,9
12215,0.00013,0.00014,3e-05,-2e-05,-4e-05,-4e-05,-0.00012,0.00029,3,9
12216,0.00013,0.00014,3e-05,-2e-05,-4e-05,-4e-05,-0.00012,0.00029,3,9
12217,0.00013,0.00014,3e-05,-2e-05,-4e-05,-4e-05,-0.00012,0.00029,3,9
12218,0.00013,0.00014,3e-05,-2e-05,-4e-05,-4e-05,-0.00012,0.00029,3,9
12219,0.00013,0.00014,3e-05,-2e-05,-4e-05,-4e-05,-0.00012,0.00029,3,9
12220,0.00013,0.00014,3e-05,-2e-05,-4e-05,-4e-05,-0.00012,0.00029,3,9
12221,0.00013,0.00014,3e-05,-2e-05,-4e-05,-4e-05,-0.00012,0.00029,3,9
12222,0.00013,0.00014,3e-05,-2e-05,-4e-05,-4e-05,-0.00012,0.00029,3,9
12223,0.00013,0.00014,3e-05,-2e-05,-4e-05,-4e-05,-0.00012,0.00029,3,9
12224,0.00013,0.00014,3e-05,-2e-05,-4e-05,-4e-05,-0.00012,0.00029,3,9
12225,0.00013,0.00014,3e-05,-2e-05,-4e-05,-4e-05,-0.00012,0.00029,3,9
12226,0.00013,0.00014,3e-05,-2e-05,-4e-05,-4e-05,-0.00012,0.00029,3,9
12227,-0.00019,-4e-05,-2e-05,-1e-05,4e-05,4e-05,2e-05,-0.00014,3,9
12228,0.00029,9e-05,0,7e-05,2e-05,0.0001,0.00013,0.00047,3,9
12229,0.00029,9e-05,0,7e-05,2e-05,0.0001,0.00013,0.00047,3,9
12230,0.00029,9e-05,0,7e-05,2e-05,0.0001,0.00013,0.00047,3,9
12231,0.00029,9e-05,0,7e-05,2e-05,0.0001,0.00013,0.00047,3,9
12232,0.00029,9e-05,0,7e-05,2e-05,0.0001,0.00013,0.00047,3,9
12233,0.00029,9e-05,0,7e-05,2e-05,0.0001,0.00013,0.00047,3,9
12234,0.00029,9e-05,0,7e-05,2e-05,0.0001,0.00013,0.00047,3,9
12235,0.00029,9e-05,0,7e-05,2e-05,0.0001,0.00013,0.00047,3,9
12236,0.00029,9e-05,0,7e-05,2e-05,0.0001,0.00013,0.00047,3,9
12238,0.00029,9e-05,0,7e-05,2e-05,0.0001,0.00013,0.00047,3,9
12239,0.00029,9e-05,0,7e-05,2e-05,0.0001,0.00013,0.00047,3,9
12240,0.00029,9e-05,0,7e-05,2e-05,0.0001,0.00013,0.00047,3,9
12241,0.00029,9e-05,0,7e-05,2e-05,0.0001,0.00013,0.00047,3,9
12242,0.00029,9e-05,0,7e-05,2e-05,0.0001,0.00013,0.00047,3,9
12243,0.00029,9e-05,0,7e-05,2e-05,0.0001,0.00013,0.00047,3,9
12244,0.00029,9e-05,0,7e-05,2e-05,0.0001,0.00013,0.00047,3,9
12245,0.00029,9e-05,0,7e-05,2e-05,0.0001,0.00013,0.00047,3,9
12246,0.00029,9e-05,0,7e-05,2e-05,0.0001,0.00013,0.00047,3,9
12247,0.00029,9e-05,0,7e-05,2e-05,0.0001,0.00013,0.00047,3,9
12248,0.00029,9e-05,0,7e-05,2e-05,0.0001,0.00013,0.00047,3,9
12249,0.00029,9e-05,0,7e-05,2e-05,0.0001,0.00013,0.00047,3,9
12250,0.00029,9e-05,0,7e-05,2e-05,0.0001,0.00013,0.00047,3,9
12251,0.00029,9e-05,0,7e-05,2e-05,0.0001,0.00013,0.00047,3,9
12252,0.00029,9e-05,0,7e-05,2e-05,0.0001,0.00013,0.00047,3,9
12253,0.00029,9e-05,0,7e-05,2e-05,0.0001,0.00013,0.00047,3,9
12254,0.00029,9e-05,0,7e-05,2e-05,0.0001,0.00013,0.00047,3,9
12255,0.00029,9e-05,0,7e-05,2e-05,0.0001,0.00013,0.00047,3,9
12256,0.00029,9e-05,0,7e-05,2e-05,0.0001,0.00013,0.00047,3,9
12257,0.00029,9e-05,0,7e-05,2e-05,0.0001,0.00013,0.00047,3,9
12258,0,0.00026,1e-05,1e-05,-2e-05,0,-1e-05,0.00019,3,9
12259,0,0.00026,1e-05,1e-05,-2e-05,0,-1e-05,0.00019,3,9
12260,0,0.00026,1e-05,1e-05,-2e-05,0,-1e-05,0.00019,3,9
12261,0,0.00026,1e-05,1e-05,-2e-05,0,-1e-05,0.00019,3,9
12262,0,0.00026,1e-05,1e-05,-2e-05,0,-1e-05,0.00019,3,9
12263,0,0.00026,1e-05,1e-05,-2e-05,0,-1e-05,0.00019,3,9
12264,0,0.00026,1e-05,1e-05,-2e-05,0,-1e-05,0.00019,3,9
12265,0,0.00026,1e-05,1e-05,-2e-05,0,-1e-05,0.00019,3,9
12266,0,0.00026,1e-05,1e-05,-2e-05,0,-1e-05,0.00019,3,9
12267,0,0.00026,1e-05,1e-05,-2e-05,0,-1e-05,0.00019,3,9
12268,0,0.00026,1e-05,1e-05,-2e-05,0,-1e-05,0.00019,3,9
12269,0,0.00026,1e-05,1e-05,-2e-05,0,-1e-05,0.00019,3,9
12270,0,0.00026,1e-05,1e-05,-2e-05,0,-1e-05,0.00019,3,9
12271,0,0.00026,1e-05,1e-05,-2e-05,0,-1e-05,0.00019,3,9
12272,0,0.00026,1e-05,1e-05,-2e-05,0,-1e-05,0.00019,3,9
12273,0,0.00026,1e-05,1e-05,-2e-05,0,-1e-05,0.00019,3,9
12274,0,0.00026,1e-05,1e-05,-2e-05,0,-1e-05,0.00019,3,9
12275,0,0.00026,1e-05,1e-05,-2e-05,0,-1e-05,0.00019,3,9
12276,0,0.00026,1e-05,1e-05,-2e-05,0,-1e-05,0.00019,3,9
12277,0,0.00026,1e-05,1e-05,-2e-05,0,-1e-05,0.00019,3,9
12278,0,0.00026,1e-05,1e-05,-2e-05,0,-1e-05,0.00019,3,9
12279,0,0.00026,1e-05,1e-05,-2e-05,0,-1e-05,0.00019,3,9
12280,0,0.00026,1e-05,1e-05,-2e-05,0,-1e-05,0.00019,3,9
12281,-0.00058,-0.00032,-7e-05,-3e-05,1e-05,-5e-05,-4e-05,6e-05,3,9
12282,-0.00058,-0.00032,-7e-05,-3e-05,1e-05,-5e-05,-4e-05,6e-05,3,9
12283,-0.00058,-0.00032,-7e-05,-3e-05,1e-05,-5e-05,-4e-05,6e-05,3,9
12284,-0.00058,-0.00032,-7e-05,-3e-05,1e-05,-5e-05,-4e-05,6e-05,3,9
12285,-0.00058,-0.00032,-7e-05,-3e-05,1e-05,-5e-05,-4e-05,6e-05,3,9
12286,-0.00058,-0.00032,-7e-05,-3e-05,1e-05,-5e-05,-4e-05,6e-05,3,9
12288,0.00012,-0.00015,-2e-05,-1e-05,-4e-05,-2e-05,-6e-05,-0.00046,3,9
12289,0.00012,-0.00015,-2e-05,-1e-05,-4e-05,-2e-05,-6e-05,-0.00046,3,9
12290,0.00012,-0.00015,-2e-05,-1e-05,-4e-05,-2e-05,-6e-05,-0.00046,3,9
12291,0.00012,-0.00015,-2e-05,-1e-05,-4e-05,-2e-05,-6e-05,-0.00046,3,9
12292,0.00012,-0.00015,-2e-05,-1e-05,-4e-05,-2e-05,-6e-05,-0.00046,3,9
12293,0.00012,-0.00015,-2e-05,-1e-05,-4e-05,-2e-05,-6e-05,-0.00046,3,9
12294,0.00012,-0.00015,-2e-05,-1e-05,-4e-05,-2e-05,-6e-05,-0.00046,3,9
12295,0.00012,-0.00015,-2e-05,-1e-05,-4e-05,-2e-05,-6e-05,-0.00046,3,9
12296,0.00012,-0.00015,-2e-05,-1e-05,-4e-05,-2e-05,-6e-05,-0.00046,3,9
12297,0.00012,-0.00015,-2e-05,-1e-05,-4e-05,-2e-05,-6e-05,-0.00046,3,9
12298,0.00012,-0.00015,-2e-05,-1e-05,-4e-05,-2e-05,-6e-05,-0.00046,3,9
12299,0.00012,-0.00015,-2e-05,-1e-05,-4e-05,-2e-05,-6e-05,-0.00046,3,9
12300,0.00012,-0.00015,-2e-05,-1e-05,-4e-05,-2e-05,-6e-05,-0.00046,3,9
12301,0.00012,-0.00015,-2e-05,-1e-05,-4e-05,-2e-05,-6e-05,-0.00046,3,9
12302,-0.00029,-0.00031,3e-05,0,2e-05,0,5e-05,-0.00073,3,9
12303,-0.00029,-0.00031,3e-05,0,2e-05,0,5e-05,-0.00073,3,9
12304,-0.00029,-0.00031,3e-05,0,2e-05,0,5e-05,-0.00073,3,9
12305,-0.00029,-0.00031,3e-05,0,2e-05,0,5e-05,-0.00073,3,9
12306,-0.00029,-0.00031,3e-05,0,2e-05,0,5e-05,-0.00073,3,9
12307,-0.00029,-0.00031,3e-05,0,2e-05,0,5e-05,-0.00073,3,9
12308,-0.00029,-0.00031,3e-05,0,2e-05,0,5e-05,-0.00073,3,9
12309,-0.00029,-0.00031,3e-05,0,2e-05,0,5e-05,-0.00073,3,9
12310,-5e-05,6e-05,0,-3e-05,-2e-05,-6e-05,1e-05,-0.00024,3,9
12311,-5e-05,6e-05,0,-3e-05,-2e-05,-6e-05,1e-05,-0.00024,3,9
12312,-5e-05,6e-05,0,-3e-05,-2e-05,-6e-05,1e-05,-0.00024,3,9
12313,-5e-05,6e-05,0,-3e-05,-2e-05,-6e-05,1e-05,-0.00024,3,9
12314,-5e-05,6e-05,0,-3e-05,-2e-05,-6e-05,1e-05,-0.00024,3,9
12315,-5e-05,6e-05,0,-3e-05,-2e-05,-6e-05,1e-05,-0.00024,3,9
12316,-5e-05,6e-05,0,-3e-05,-2e-05,-6e-05,1e-05,-0.00024,3,9
12317,-5e-05,6e-05,0,-3e-05,-2e-05,-6e-05,1e-05,-0.00024,3,9
12318,-5e-05,6e-05,0,-3e-05,-2e-05,-6e-05,1e-05,-0.00024,3,9
12319,-5e-05,6e-05,0,-3e-05,-2e-05,-6e-05,1e-05,-0.00024,3,9
12320,-5e-05,6e-05,0,-3e-05,-2e-05,-6e-05,1e-05,-0.00024,3,9
12321,-5e-05,6e-05,0,-3e-05,-2e-05,-6e-05,1e-05,-0.00024,3,9
12322,-5e-05,6e-05,0,-3e-05,-2e-05,-6e-05,1e-05,-0.00024,3,9
12323,-5e-05,6e-05,0,-3e-05,-2e-05,-6e-05,1e-05,-0.00024,3,9
12324,0,-8e-05,-4e-05,-1e-05,3e-05,3e-05,4e-05,3e-05,3,9
12325,0,-8e-05,-4e-05,-1e-05,3e-05,3e-05,4e-05,3e-05,3,9
12326,0,-8e-05,-4e-05,-1e-05,3e-05,3e-05,4e-05,3e-05,3,9
12327,0,-8e-05,-4e-05,-1e-05,3e-05,3e-05,4e-05,3e-05,3,9
12328,0,-8e-05,-4e-05,-1e-05,3e-05,3e-05,4e-05,3e-05,3,9
12329,0,-8e-05,-4e-05,-1e-05,3e-05,3e-05,4e-05,3e-05,3,9
12330,0,-8e-05,-4e-05,-1e-05,3e-05,3e-05,4e-05,3e-05,3,9
12331,0,-8e-05,-4e-05,-1e-05,3e-05,3e-05,4e-05,3e-05,3,9
12332,8e-05,8e-05,0,3e-05,-2e-05,-0.00011,0.00023,0.00013,3,9
12333,0.00038,3e-05,-2e-05,1e-05,3e-05,0.00015,0.00014,0.00026,3,9
12334,0.00038,3e-05,-2e-05,1e-05,3e-05,0.00015,0.00014,0.00026,3,9
12335,0.00038,3e-05,-2e-05,1e-05,3e-05,0.00015,0.00014,0.00026,3,9
12336,0.00038,3e-05,-2e-05,1e-05,3e-05,0.00015,0.00014,0.00026,3,9
12338,0.00038,3e-05,-2e-05,1e-05,3e-05,0.00015,0.00014,0.00026,3,9
12339,0.00038,3e-05,-2e-05,1e-05,3e-05,0.00015,0.00014,0.00026,3,9
12340,0.00038,3e-05,-2e-05,1e-05,3e-05,0.00015,0.00014,0.00026,3,9
12341,0.00038,3e-05,-2e-05,1e-05,3e-05,0.00015,0.00014,0.00026,3,9
12342,0.00038,3e-05,-2e-05,1e-05,3e-05,0.00015,0.00014,0.00026,3,9
12343,0.00038,3e-05,-2e-05,1e-05,3e-05,0.00015,0.00014,0.00026,3,9
12344,0.00038,3e-05,-2e-05,1e-05,3e-05,0.00015,0.00014,0.00026,3,9
12345,0.00038,3e-05,-2e-05,1e-05,3e-05,0.00015,0.00014,0.00026,3,9
12346,0.00038,3e-05,-2e-05,1e-05,3e-05,0.00015,0.00014,0.00026,3,9
12347,0.00038,3e-05,-2e-05,1e-05,3e-05,0.00015,0.00014,0.00026,3,9
12348,9e-05,-0.00015,-3e-05,0,-2e-05,5e-05,3e-05,2e-05,3,9
12349,9e-05,-0.00015,-3e-05,0,-2e-05,5e-05,3e-05,2e-05,3,9
12350,9e-05,-0.00015,-3e-05,0,-2e-05,5e-05,3e-05,2e-05,3,9
12351,9e-05,-0.00015,-3e-05,0,-2e-05,5e-05,3e-05,2e-05,3,9
12352,9e-05,-0.00015,-3e-05,0,-2e-05,5e-05,3e-05,2e-05,3,9
12353,9e-05,-0.00015,-3e-05,0,-2e-05,5e-05,3e-05,2e-05,3,9
12354,9e-05,-0.00015,-3e-05,0,-2e-05,5e-05,3e-05,2e-05,3,9
12355,9e-05,-0.00015,-3e-05,0,-2e-05,5e-05,3e-05,2e-05,3,9
12356,9e-05,-0.00015,-3e-05,0,-2e-05,5e-05,3e-05,2e-05,3,9
12357,9e-05,-0.00015,-3e-05,0,-2e-05,5e-05,3e-05,2e-05,3,9
12358,9e-05,-0.00015,-3e-05,0,-2e-05,5e-05,3e-05,2e-05,3,9
12359,9e-05,-0.00015,-3e-05,0,-2e-05,5e-05,3e-05,2e-05,3,9
12360,9e-05,-0.00015,-3e-05,0,-2e-05,5e-05,3e-05,2e-05,3,9
12361,9e-05,-0.00015,-3e-05,0,-2e-05,5e-05,3e-05,2e-05,3,9
12362,9e-05,-0.00015,-3e-05,0,-2e-05,5e-05,3e-05,2e-05,3,9
12363,9e-05,-0.00015,-3e-05,0,-2e-05,5e-05,3e-05,2e-05,3,9
12364,9e-05,-0.00015,-3e-05,0,-2e-05,5e-05,3e-05,2e-05,3,9
12365,9e-05,-0.00015,-3e-05,0,-2e-05,5e-05,3e-05,2e-05,3,9
12366,9e-05,-0.00015,-3e-05,0,-2e-05,5e-05,3e-05,2e-05,3,9
12367,9e-05,-0.00015,-3e-05,0,-2e-05,5e-05,3e-05,2e-05,3,9
12368,9e-05,-0.00015,-3e-05,0,-2e-05,5e-05,3e-05,2e-05,3,9
12369,9e-05,-0.00015,-3e-05,0,-2e-05,5e-05,3e-05,2e-05,3,9
12370,-0.00049,-0.00063,-6e-05,-6e-05,-5e-05,-0.0001,-0.00014,-7e-05,3,9
12371,-1e-05,8e-05,1e-05,-2e-05,-1e-05,-2e-05,-0.00015,-3e-05,3,9
12372,-1e-05,8e-05,1e-05,-2e-05,-1e-05,-2e-05,-0.00015,-3e-05,3,9
12373,-1e-05,8e-05,1e-05,-2e-05,-1e-05,-2e-05,-0.00015,-3e-05,3,9
12374,-1e-05,8e-05,1e-05,-2e-05,-1e-05,-2e-05,-0.00015,-3e-05,3,9
12375,-1e-05,8e-05,1e-05,-2e-05,-1e-05,-2e-05,-0.00015,-3e-05,3,9
12376,-1e-05,8e-05,1e-05,-2e-05,-1e-05,-2e-05,-0.00015,-3e-05,3,9
12377,-1e-05,8e-05,1e-05,-2e-05,-1e-05,-2e-05,-0.00015,-3e-05,3,9
12378,-1e-05,8e-05,1e-05,-2e-05,-1e-05,-2e-05,-0.00015,-3e-05,3,9
12379,-1e-05,8e-05,1e-05,-2e-05,-1e-05,-2e-05,-0.00015,-3e-05,3,9
12380,-1e-05,8e-05,1e-05,-2e-05,-1e-05,-2e-05,-0.00015,-3e-05,3,9
12381,-1e-05,8e-05,1e-05,-2e-05,-1e-05,-2e-05,-0.00015,-3e-05,3,9
12382,-1e-05,8e-05,1e-05,-2e-05,-1e-05,-2e-05,-0.00015,-3e-05,3,9
12383,-1e-05,8e-05,1e-05,-2e-05,-1e-05,-2e-05,-0.00015,-3e-05,3,9
12384,-1e-05,8e-05,1e-05,-2e-05,-1e-05,-2e-05,-0.00015,-3e-05,3,9
12385,-1e-05,8e-05,1e-05,-2e-05,-1e-05,-2e-05,-0.00015,-3e-05,3,9
12386,-1e-05,8e-05,1e-05,-2e-05,-1e-05,-2e-05,-0.00015,-3e-05,3,9
12388,-1e-05,8e-05,1e-05,-2e-05,-1e-05,-2e-05,-0.00015,-3e-05,3,9
12389,-1e-05,8e-05,1e-05,-2e-05,-1e-05,-2e-05,-0.00015,-3e-05,3,9
12390,-1e-05,8e-05,1e-05,-2e-05,-1e-05,-2e-05,-0.00015,-3e-05,3,9
12391,-1e-05,8e-05,1e-05,-2e-05,-1e-05,-2e-05,-0.00015,-3e-05,3,9
12392,0.00014,0.00023,-1e-05,1e-05,0,2e-05,1e-05,-0.00018,3,9
12393,0.00015,0.0002,3e-05,-2e-05,-8e-05,-0.00014,5e-05,0.0003,3,9
12394,0.00015,0.0002,3e-05,-2e-05,-8e-05,-0.00014,5e-05,0.0003,3,9
12395,0.00015,0.0002,3e-05,-2e-05,-8e-05,-0.00014,5e-05,0.0003,3,9
12396,0.00015,0.0002,3e-05,-2e-05,-8e-05,-0.00014,5e-05,0.0003,3,9
12397,0.00015,0.0002,3e-05,-2e-05,-8e-05,-0.00014,5e-05,0.0003,3,9
12398,0.00015,0.0002,3e-05,-2e-05,-8e-05,-0.00014,5e-05,0.0003,3,9
12399,0.00015,0.0002,3e-05,-2e-05,-8e-05,-0.00014,5e-05,0.0003,3,9
12400,0.00015,0.0002,3e-05,-2e-05,-8e-05,-0.00014,5e-05,0.0003,3,9
12401,0.00015,0.0002,3e-05,-2e-05,-8e-05,-0.00014,5e-05,0.0003,3,9
12402,0.00015,0.0002,3e-05,-2e-05,-8e-05,-0.00014,5e-05,0.0003,3,9
12403,0.00015,0.0002,3e-05,-2e-05,-8e-05,-0.00014,5e-05,0.0003,3,9
12404,0.00015,0.0002,3e-05,-2e-05,-8e-05,-0.00014,5e-05,0.0003,3,9
42782,-0.0001,-1e-05,0,-3e-05,-6e-05,0,0,-0.00035,3,9
42783,-0.0001,-1e-05,0,-3e-05,-6e-05,0,0,-0.00035,3,9
42784,-0.0001,-1e-05,0,-3e-05,-6e-05,0,0,-0.00035,3,9
42785,-0.0001,-1e-05,0,-3e-05,-6e-05,0,0,-0.00035,3,9
42786,-0.0001,-1e-05,0,-3e-05,-6e-05,0,0,-0.00035,3,9
42789,-0.0001,-1e-05,0,-3e-05,-6e-05,0,0,-0.00035,3,9
42790,-5e-05,-0.00026,-2e-05,0,0,-1e-05,-9e-05,0.00034,3,9
42791,5e-05,0.00027,5e-05,0.00011,0.00011,0.00012,0.00022,1e-05,3,9
42792,5e-05,0.00027,5e-05,0.00011,0.00011,0.00012,0.00022,1e-05,3,9
42793,5e-05,0.00027,5e-05,0.00011,0.00011,0.00012,0.00022,1e-05,3,9
42794,5e-05,0.00027,5e-05,0.00011,0.00011,0.00012,0.00022,1e-05,3,9
42795,5e-05,0.00027,5e-05,0.00011,0.00011,0.00012,0.00022,1e-05,3,9
42796,5e-05,0.00027,5e-05,0.00011,0.00011,0.00012,0.00022,1e-05,3,9
42797,0.00038,-5e-05,-5e-05,-4e-05,-6e-05,-3e-05,0.00019,0.00082,3,9
42798,8e-05,0.00021,-1e-05,-2e-05,-9e-05,-4e-05,-3e-05,-0.00011,3,9
42799,8e-05,0.00021,-1e-05,-2e-05,-9e-05,-4e-05,-3e-05,-0.00011,3,9
42800,8e-05,0.00021,-1e-05,-2e-05,-9e-05,-4e-05,-3e-05,-0.00011,3,9
42801,8e-05,0.00021,-1e-05,-2e-05,-9e-05,-4e-05,-3e-05,-0.00011,3,9
42802,8e-05,0.00021,-1e-05,-2e-05,-9e-05,-4e-05,-3e-05,-0.00011,3,9
42803,8e-05,0.00021,-1e-05,-2e-05,-9e-05,-4e-05,-3e-05,-0.00011,3,9
42804,8e-05,0.00021,-1e-05,-2e-05,-9e-05,-4e-05,-3e-05,-0.00011,3,9
42805,8e-05,0.00021,-1e-05,-2e-05,-9e-05,-4e-05,-3e-05,-0.00011,3,9
42806,8e-05,0.00021,-1e-05,-2e-05,-9e-05,-4e-05,-3e-05,-0.00011,3,9
42807,8e-05,0.00021,-1e-05,-2e-05,-9e-05,-4e-05,-3e-05,-0.00011,3,9
42808,8e-05,0.00021,-1e-05,-2e-05,-9e-05,-4e-05,-3e-05,-0.00011,3,9
42809,8e-05,0.00021,-1e-05,-2e-05,-9e-05,-4e-05,-3e-05,-0.00011,3,9
42810,8e-05,0.00021,-1e-05,-2e-05,-9e-05,-4e-05,-3e-05,-0.00011,3,9
42811,8e-05,0.00021,-1e-05,-2e-05,-9e-05,-4e-05,-3e-05,-0.00011,3,9
42812,8e-05,0.00021,-1e-05,-2e-05,-9e-05,-4e-05,-3e-05,-0.00011,3,9
42813,8e-05,0.00021,-1e-05,-2e-05,-9e-05,-4e-05,-3e-05,-0.00011,3,9
42814,8e-05,0.00021,-1e-05,-2e-05,-9e-05,-4e-05,-3e-05,-0.00011,3,9
42815,8e-05,0.00021,-1e-05,-2e-05,-9e-05,-4e-05,-3e-05,-0.00011,3,9
42816,8e-05,0.00021,-1e-05,-2e-05,-9e-05,-4e-05,-3e-05,-0.00011,3,9
42817,8e-05,0.00021,-1e-05,-2e-05,-9e-05,-4e-05,-3e-05,-0.00011,3,9
42818,8e-05,0.00021,-1e-05,-2e-05,-9e-05,-4e-05,-3e-05,-0.00011,3,9
42819,8e-05,0.00021,-1e-05,-2e-05,-9e-05,-4e-05,-3e-05,-0.00011,3,9
42820,8e-05,0.00021,-1e-05,-2e-05,-9e-05,-4e-05,-3e-05,-0.00011,3,9
42821,0.0002,0.00021,-3e-05,-7e-05,-7e-05,3e-05,2e-05,0.00043,3,9
42822,0.00035,0.00018,1e-05,4e-05,9e-05,0.00012,0.00045,0.00064,3,9
42823,0.00035,0.00018,1e-05,4e-05,9e-05,0.00012,0.00045,0.00064,3,9
42824,0.00035,0.00018,1e-05,4e-05,9e-05,0.00012,0.00045,0.00064,3,9
42825,0.00035,0.00018,1e-05,4e-05,9e-05,0.00012,0.00045,0.00064,3,9
42826,0.00035,0.00018,1e-05,4e-05,9e-05,0.00012,0.00045,0.00064,3,9
42827,0.00037,0.00042,5e-05,7e-05,3e-05,0.00011,0.00016,-0.00023,3,9
42828,0.00037,0.00042,5e-05,7e-05,3e-05,0.00011,0.00016,-0.00023,3,9
42829,0.00037,0.00042,5e-05,7e-05,3e-05,0.00011,0.00016,-0.00023,3,9
42830,0.00037,0.00042,5e-05,7e-05,3e-05,0.00011,0.00016,-0.00023,3,9
42831,0.00037,0.00042,5e-05,7e-05,3e-05,0.00011,0.00016,-0.00023,3,9
42832,0.00037,0.00042,5e-05,7e-05,3e-05,0.00011,0.00016,-0.00023,3,9
42833,0.00037,0.00042,5e-05,7e-05,3e-05,0.00011,0.00016,-0.00023,3,9
42834,0.00037,0.00042,5e-05,7e-05,3e-05,0.00011,0.00016,-0.00023,3,9
42835,0.00037,0.00042,5e-05,7e-05,3e-05,0.00011,0.00016,-0.00023,3,9
42836,0.00037,0.00042,5e-05,7e-05,3e-05,0.00011,0.00016,-0.00023,3,9
42838,0.00037,0.00042,5e-05,7e-05,3e-05,0.00011,0.00016,-0.00023,3,9
42839,0.00037,0.00042,5e-05,7e-05,3e-05,0.00011,0.00016,-0.00023,3,9
42840,0.00037,0.00042,5e-05,7e-05,3e-05,0.00011,0.00016,-0.00023,3,9
42841,0.00037,0.00042,5e-05,7e-05,3e-05,0.00011,0.00016,-0.00023,3,9
42842,0.00037,0.00042,5e-05,7e-05,3e-05,0.00011,0.00016,-0.00023,3,9
42843,-0.00024,-0.00019,3e-05,-4e-05,-8e-05,-8e-05,0.0001,-0.00013,3,9
42844,-0.00024,-0.00019,3e-05,-4e-05,-8e-05,-8e-05,0.0001,-0.00013,3,9
42845,-0.00024,-0.00019,3e-05,-4e-05,-8e-05,-8e-05,0.0001,-0.00013,3,9
42846,-0.00024,-0.00019,3e-05,-4e-05,-8e-05,-8e-05,0.0001,-0.00013,3,9
42847,-0.00024,-0.00019,3e-05,-4e-05,-8e-05,-8e-05,0.0001,-0.00013,3,9
42848,-0.00024,-0.00019,3e-05,-4e-05,-8e-05,-8e-05,0.0001,-0.00013,3,9
42849,-0.00024,-0.00019,3e-05,-4e-05,-8e-05,-8e-05,0.0001,-0.00013,3,9
42850,0.0002,0.00019,2e-05,-1e-05,7e-05,3e-05,5e-05,-0.00011,3,9
42851,-0.00043,-0.00091,-0.00013,-8e-05,-0.00012,-0.00021,-0.00013,-0.00068,3,9
42852,-0.00043,-0.00091,-0.00013,-8e-05,-0.00012,-0.00021,-0.00013,-0.00068,3,9
42853,-0.00043,-0.00091,-0.00013,-8e-05,-0.00012,-0.00021,-0.00013,-0.00068,3,9
42854,-0.00043,-0.00091,-0.00013,-8e-05,-0.00012,-0.00021,-0.00013,-0.00068,3,9
42855,-0.00043,-0.00091,-0.00013,-8e-05,-0.00012,-0.00021,-0.00013,-0.00068,3,9
42856,-0.00043,-0.00091,-0.00013,-8e-05,-0.00012,-0.00021,-0.00013,-0.00068,3,9
42857,-0.00043,-0.00091,-0.00013,-8e-05,-0.00012,-0.00021,-0.00013,-0.00068,3,9
42858,-0.00043,-0.00091,-0.00013,-8e-05,-0.00012,-0.00021,-0.00013,-0.00068,3,9
42859,-0.00043,-0.00091,-0.00013,-8e-05,-0.00012,-0.00021,-0.00013,-0.00068,3,9
42860,-0.00043,-0.00091,-0.00013,-8e-05,-0.00012,-0.00021,-0.00013,-0.00068,3,9
42861,-0.00043,-0.00091,-0.00013,-8e-05,-0.00012,-0.00021,-0.00013,-0.00068,3,9
42862,-0.00043,-0.00091,-0.00013,-8e-05,-0.00012,-0.00021,-0.00013,-0.00068,3,9
42863,-0.00043,-0.00091,-0.00013,-8e-05,-0.00012,-0.00021,-0.00013,-0.00068,3,9
42864,-0.00043,-0.00091,-0.00013,-8e-05,-0.00012,-0.00021,-0.00013,-0.00068,3,9
42865,-0.00043,-0.00091,-0.00013,-8e-05,-0.00012,-0.00021,-0.00013,-0.00068,3,9
42866,-0.00043,-0.00091,-0.00013,-8e-05,-0.00012,-0.00021,-0.00013,-0.00068,3,9
42867,-0.00043,-0.00091,-0.00013,-8e-05,-0.00012,-0.00021,-0.00013,-0.00068,3,9
42868,-0.00043,-0.00091,-0.00013,-8e-05,-0.00012,-0.00021,-0.00013,-0.00068,3,9
42869,-0.00043,-0.00091,-0.00013,-8e-05,-0.00012,-0.00021,-0.00013,-0.00068,3,9
42870,-0.00043,-0.00091,-0.00013,-8e-05,-0.00012,-0.00021,-0.00013,-0.00068,3,9
42871,-0.00043,-0.00091,-0.00013,-8e-05,-0.00012,-0.00021,-0.00013,-0.00068,3,9
42872,-0.00043,-0.00091,-0.00013,-8e-05,-0.00012,-0.00021,-0.00013,-0.00068,3,9
42873,-0.00043,-0.00091,-0.00013,-8e-05,-0.00012,-0.00021,-0.00013,-0.00068,3,9
42874,-0.00092,-0.00052,0,0,5e-05,9e-05,0.00018,-0.00039,3,9
42875,0.0004,0.00039,9e-05,5e-05,8e-05,6e-05,0.0001,0.00035,3,9
42876,0.0004,0.00039,9e-05,5e-05,8e-05,6e-05,0.0001,0.00035,3,9
42877,0.0004,0.00039,9e-05,5e-05,8e-05,6e-05,0.0001,0.00035,3,9
42878,0.0004,0.00039,9e-05,5e-05,8e-05,6e-05,0.0001,0.00035,3,9
42879,0.0004,0.00039,9e-05,5e-05,8e-05,6e-05,0.0001,0.00035,3,9
42880,0.0004,0.00039,9e-05,5e-05,8e-05,6e-05,0.0001,0.00035,3,9
42881,0.0004,0.00039,9e-05,5e-05,8e-05,6e-05,0.0001,0.00035,3,9
42882,0.0004,0.00039,9e-05,5e-05,8e-05,6e-05,0.0001,0.00035,3,9
42883,0.0004,0.00039,9e-05,5e-05,8e-05,6e-05,0.0001,0.00035,3,9
42884,0.0004,0.00039,9e-05,5e-05,8e-05,6e-05,0.0001,0.00035,3,9
42885,0.0004,0.00039,9e-05,5e-05,8e-05,6e-05,0.0001,0.00035,3,9
42886,0.0004,0.00039,9e-05,5e-05,8e-05,6e-05,0.0001,0.00035,3,9
42889,0.0004,0.00039,9e-05,5e-05,8e-05,6e-05,0.0001,0.00035,3,9
42890,0.0004,0.00039,9e-05,5e-05,8e-05,6e-05,0.0001,0.00035,3,9
42891,0.0004,0.00039,9e-05,5e-05,8e-05,6e-05,0.0001,0.00035,3,9
42892,0.0004,0.00039,9e-05,5e-05,8e-05,6e-05,0.0001,0.00035,3,9
42893,0.0004,0.00039,9e-05,5e-05,8e-05,6e-05,0.0001,0.00035,3,9
42894,0.0004,0.00039,9e-05,5e-05,8e-05,6e-05,0.0001,0.00035,3,9
42895,0.0004,0.00039,9e-05,5e-05,8e-05,6e-05,0.0001,0.00035,3,9
42896,0.0004,0.00039,9e-05,5e-05,8e-05,6e-05,0.0001,0.00035,3,9
42897,0.00014,-0.0001,-4e-05,-7e-05,-3e-05,-4e-05,0.00013,0.00018,3,9
42898,-0.00016,-0.00039,-7e-05,-5e-05,-6e-05,-2e-05,-0.0003,5e-05,3,9
42899,-0.00016,-0.00039,-7e-05,-5e-05,-6e-05,-2e-05,-0.0003,5e-05,3,9
42900,-0.00016,-0.00039,-7e-05,-5e-05,-6e-05,-2e-05,-0.0003,5e-05,3,9
42901,-0.00016,-0.00039,-7e-05,-5e-05,-6e-05,-2e-05,-0.0003,5e-05,3,9
42902,-0.00016,-0.00039,-7e-05,-5e-05,-6e-05,-2e-05,-0.0003,5e-05,3,9
42903,-0.00016,-0.00039,-7e-05,-5e-05,-6e-05,-2e-05,-0.0003,5e-05,3,9
42904,-0.00016,-0.00039,-7e-05,-5e-05,-6e-05,-2e-05,-0.0003,5e-05,3,9
42905,-0.00016,-0.00039,-7e-05,-5e-05,-6e-05,-2e-05,-0.0003,5e-05,3,9
42906,-0.00016,-0.00039,-7e-05,-5e-05,-6e-05,-2e-05,-0.0003,5e-05,3,9
42907,-0.00016,-0.00039,-7e-05,-5e-05,-6e-05,-2e-05,-0.0003,5e-05,3,9
42908,-0.00016,-0.00039,-7e-05,-5e-05,-6e-05,-2e-05,-0.0003,5e-05,3,9
42909,-0.00016,-0.00039,-7e-05,-5e-05,-6e-05,-2e-05,-0.0003,5e-05,3,9
42910,0.00049,0.00036,2e-05,4e-05,0.0001,0.00014,-0.00023,0.00042,3,9
42911,-4e-05,-0.00032,-9e-05,-5e-05,-4e-05,-2e-05,-9e-05,0.00023,3,9
42912,-4e-05,-0.00032,-9e-05,-5e-05,-4e-05,-2e-05,-9e-05,0.00023,3,9
42914,-4e-05,-0.00032,-9e-05,-5e-05,-4e-05,-2e-05,-9e-05,0.00023,3,9
42915,-4e-05,-0.00032,-9e-05,-5e-05,-4e-05,-2e-05,-9e-05,0.00023,3,9
42916,-4e-05,-0.00032,-9e-05,-5e-05,-4e-05,-2e-05,-9e-05,0.00023,3,9
42917,-4e-05,-0.00032,-9e-05,-5e-05,-4e-05,-2e-05,-9e-05,0.00023,3,9
42918,-4e-05,-0.00032,-9e-05,-5e-05,-4e-05,-2e-05,-9e-05,0.00023,3,9
42919,-4e-05,-0.00032,-9e-05,-5e-05,-4e-05,-2e-05,-9e-05,0.00023,3,9
42920,-4e-05,-0.00032,-9e-05,-5e-05,-4e-05,-2e-05,-9e-05,0.00023,3,9
42921,-4e-05,-0.00032,-9e-05,-5e-05,-4e-05,-2e-05,-9e-05,0.00023,3,9
42922,-4e-05,-0.00032,-9e-05,-5e-05,-4e-05,-2e-05,-9e-05,0.00023,3,9
42923,-4e-05,-0.00032,-9e-05,-5e-05,-4e-05,-2e-05,-9e-05,0.00023,3,9
42924,-4e-05,-0.00032,-9e-05,-5e-05,-4e-05,-2e-05,-9e-05,0.00023,3,9
42925,-4e-05,-0.00032,-9e-05,-5e-05,-4e-05,-2e-05,-9e-05,0.00023,3,9
42926,-4e-05,-0.00032,-9e-05,-5e-05,-4e-05,-2e-05,-9e-05,0.00023,3,9
42927,-4e-05,-0.00032,-9e-05,-5e-05,-4e-05,-2e-05,-9e-05,0.00023,3,9
42928,-4e-05,-0.00032,-9e-05,-5e-05,-4e-05,-2e-05,-9e-05,0.00023,3,9
42929,-4e-05,-0.00032,-9e-05,-5e-05,-4e-05,-2e-05,-9e-05,0.00023,3,9
42930,-4e-05,-0.00032,-9e-05,-5e-05,-4e-05,-2e-05,-9e-05,0.00023,3,9
42931,-4e-05,-0.00032,-9e-05,-5e-05,-4e-05,-2e-05,-9e-05,0.00023,3,9
42932,-0.00033,-0.00019,-7e-05,-6e-05,-1e-05,-3e-05,0.00015,-0.00012,3,9
42933,-8e-05,0.00021,6e-05,2e-05,-1e-05,-4e-05,-0.0002,0.00011,3,9
42934,-8e-05,0.00021,6e-05,2e-05,-1e-05,-4e-05,-0.0002,0.00011,3,9
42935,-8e-05,0.00021,6e-05,2e-05,-1e-05,-4e-05,-0.0002,0.00011,3,9
42936,-8e-05,0.00021,6e-05,2e-05,-1e-05,-4e-05,-0.0002,0.00011,3,9
42939,-8e-05,0.00021,6e-05,2e-05,-1e-05,-4e-05,-0.0002,0.00011,3,9
42940,-8e-05,0.00021,6e-05,2e-05,-1e-05,-4e-05,-0.0002,0.00011,3,9
42941,-8e-05,0.00021,6e-05,2e-05,-1e-05,-4e-05,-0.0002,0.00011,3,9
42942,-8e-05,0.00021,6e-05,2e-05,-1e-05,-4e-05,-0.0002,0.00011,3,9
42944,-8e-05,0.00021,6e-05,2e-05,-1e-05,-4e-05,-0.0002,0.00011,3,9
42945,-8e-05,0.00021,6e-05,2e-05,-1e-05,-4e-05,-0.0002,0.00011,3,9
42946,-8e-05,0.00021,6e-05,2e-05,-1e-05,-4e-05,-0.0002,0.00011,3,9
42947,-9e-05,-6e-05,-1e-05,1e-05,-6e-05,-8e-05,0.00026,-0.00051,3,9
42948,-9e-05,-6e-05,-1e-05,1e-05,-6e-05,-8e-05,0.00026,-0.00051,3,9
42949,-9e-05,-6e-05,-1e-05,1e-05,-6e-05,-8e-05,0.00026,-0.00051,3,9
42950,-9e-05,-6e-05,-1e-05,1e-05,-6e-05,-8e-05,0.00026,-0.00051,3,9
42951,-9e-05,-6e-05,-1e-05,1e-05,-6e-05,-8e-05,0.00026,-0.00051,3,9
42952,-9e-05,-6e-05,-1e-05,1e-05,-6e-05,-8e-05,0.00026,-0.00051,3,9
42953,-9e-05,-6e-05,-1e-05,1e-05,-6e-05,-8e-05,0.00026,-0.00051,3,9
42954,-9e-05,-6e-05,-1e-05,1e-05,-6e-05,-8e-05,0.00026,-0.00051,3,9
42955,0.00013,0.00025,-3e-05,1e-05,5e-05,9e-05,0.00023,-0.00025,3,9
42956,0.00013,0.00025,-3e-05,1e-05,5e-05,9e-05,0.00023,-0.00025,3,9
42957,0.00013,0.00025,-3e-05,1e-05,5e-05,9e-05,0.00023,-0.00025,3,9
42958,0.00013,0.00025,-3e-05,1e-05,5e-05,9e-05,0.00023,-0.00025,3,9
42959,0.00013,0.00025,-3e-05,1e-05,5e-05,9e-05,0.00023,-0.00025,3,9
42960,0.00013,0.00025,-3e-05,1e-05,5e-05,9e-05,0.00023,-0.00025,3,9
42961,0.00013,0.00025,-3e-05,1e-05,5e-05,9e-05,0.00023,-0.00025,3,9
42962,0.00013,0.00025,-3e-05,1e-05,5e-05,9e-05,0.00023,-0.00025,3,9
42963,0.00013,0.00025,-3e-05,1e-05,5e-05,9e-05,0.00023,-0.00025,3,9
42964,0.00013,0.00025,-3e-05,1e-05,5e-05,9e-05,0.00023,-0.00025,3,9
42965,0.00013,0.00025,-3e-05,1e-05,5e-05,9e-05,0.00023,-0.00025,3,9
42966,0.00013,0.00025,-3e-05,1e-05,5e-05,9e-05,0.00023,-0.00025,3,9
42967,0.00013,0.00025,-3e-05,1e-05,5e-05,9e-05,0.00023,-0.00025,3,9
42968,0.00013,0.00025,-3e-05,1e-05,5e-05,9e-05,0.00023,-0.00025,3,9
42969,0.00013,0.00025,-3e-05,1e-05,5e-05,9e-05,0.00023,-0.00025,3,9
42970,7e-05,0,0,-3e-05,-9e-05,-0.00021,-0.00018,-1e-05,3,9
42971,2e-05,6e-05,8e-05,3e-05,2e-05,-2e-05,-2e-05,6e-05,3,9
42972,2e-05,6e-05,8e-05,3e-05,2e-05,-2e-05,-2e-05,6e-05,3,9
42973,2e-05,6e-05,8e-05,3e-05,2e-05,-2e-05,-2e-05,6e-05,3,9
42974,2e-05,6e-05,8e-05,3e-05,2e-05,-2e-05,-2e-05,6e-05,3,9
42975,2e-05,6e-05,8e-05,3e-05,2e-05,-2e-05,-2e-05,6e-05,3,9
42976,2e-05,6e-05,8e-05,3e-05,2e-05,-2e-05,-2e-05,6e-05,3,9
42977,2e-05,6e-05,8e-05,3e-05,2e-05,-2e-05,-2e-05,6e-05,3,9
42978,2e-05,6e-05,8e-05,3e-05,2e-05,-2e-05,-2e-05,6e-05,3,9
42979,2e-05,6e-05,8e-05,3e-05,2e-05,-2e-05,-2e-05,6e-05,3,9
42980,2e-05,6e-05,8e-05,3e-05,2e-05,-2e-05,-2e-05,6e-05,3,9
42981,2e-05,6e-05,8e-05,3e-05,2e-05,-2e-05,-2e-05,6e-05,3,9
42982,2e-05,6e-05,8e-05,3e-05,2e-05,-2e-05,-2e-05,6e-05,3,9
42983,2e-05,6e-05,8e-05,3e-05,2e-05,-2e-05,-2e-05,6e-05,3,9
42984,2e-05,6e-05,8e-05,3e-05,2e-05,-2e-05,-2e-05,6e-05,3,9
42985,2e-05,6e-05,8e-05,3e-05,2e-05,-2e-05,-2e-05,6e-05,3,9
42986,2e-05,6e-05,8e-05,3e-05,2e-05,-2e-05,-2e-05,6e-05,3,9
42989,2e-05,6e-05,8e-05,3e-05,2e-05,-2e-05,-2e-05,6e-05,3,9
42990,2e-05,6e-05,8e-05,3e-05,2e-05,-2e-05,-2e-05,6e-05,3,9
42991,2e-05,6e-05,8e-05,3e-05,2e-05,-2e-05,-2e-05,6e-05,3,9
42992,2e-05,6e-05,8e-05,3e-05,2e-05,-2e-05,-2e-05,6e-05,3,9
42993,-0.00031,8e-05,4e-05,8e-05,9e-05,0.00017,0.00032,-0.00065,3,9
42994,-0.00031,8e-05,4e-05,8e-05,9e-05,0.00017,0.00032,-0.00065,3,9
42995,-0.00031,8e-05,4e-05,8e-05,9e-05,0.00017,0.00032,-0.00065,3,9
42996,-0.00031,8e-05,4e-05,8e-05,9e-05,0.00017,0.00032,-0.00065,3,9
42997,-0.00031,8e-05,4e-05,8e-05,9e-05,0.00017,0.00032,-0.00065,3,9
42998,-0.00031,8e-05,4e-05,8e-05,9e-05,0.00017,0.00032,-0.00065,3,9
42999,-0.00031,8e-05,4e-05,8e-05,9e-05,0.00017,0.00032,-0.00065,3,9
43000,-0.00031,8e-05,4e-05,8e-05,9e-05,0.00017,0.00032,-0.00065,3,9
43001,-0.00031,8e-05,4e-05,8e-05,9e-05,0.00017,0.00032,-0.00065,3,9
43002,-0.00031,8e-05,4e-05,8e-05,9e-05,0.00017,0.00032,-0.00065,3,9
43003,-0.00031,8e-05,4e-05,8e-05,9e-05,0.00017,0.00032,-0.00065,3,9
43004,-0.00031,8e-05,4e-05,8e-05,9e-05,0.00017,0.00032,-0.00065,3,9
43005,-0.00031,8e-05,4e-05,8e-05,9e-05,0.00017,0.00032,-0.00065,3,9
43006,-0.00031,8e-05,4e-05,8e-05,9e-05,0.00017,0.00032,-0.00065,3,9
43007,-0.00053,-0.00076,-0.00011,-3e-05,-9e-05,-0.00014,-0.00011,-0.00067,3,9
43008,-0.00053,-0.00076,-0.00011,-3e-05,-9e-05,-0.00014,-0.00011,-0.00067,3,9
43009,-0.00053,-0.00076,-0.00011,-3e-05,-9e-05,-0.00014,-0.00011,-0.00067,3,9
43010,-0.00053,-0.00076,-0.00011,-3e-05,-9e-05,-0.00014,-0.00011,-0.00067,3,9
43011,-0.00053,-0.00076,-0.00011,-3e-05,-9e-05,-0.00014,-0.00011,-0.00067,3,9
43012,-0.00053,-0.00076,-0.00011,-3e-05,-9e-05,-0.00014,-0.00011,-0.00067,3,9
43013,-0.00053,-0.00076,-0.00011,-3e-05,-9e-05,-0.00014,-0.00011,-0.00067,3,9
43014,-0.00053,-0.00076,-0.00011,-3e-05,-9e-05,-0.00014,-0.00011,-0.00067,3,9
43015,0.00054,0.00036,6e-05,3e-05,6e-05,0.00011,-5e-05,0.00042,3,9
43016,0.00054,0.00036,6e-05,3e-05,6e-05,0.00011,-5e-05,0.00042,3,9
43017,0.00054,0.00036,6e-05,3e-05,6e-05,0.00011,-5e-05,0.00042,3,9
43018,0.00054,0.00036,6e-05,3e-05,6e-05,0.00011,-5e-05,0.00042,3,9
43019,0.00054,0.00036,6e-05,3e-05,6e-05,0.00011,-5e-05,0.00042,3,9
43020,0.00054,0.00036,6e-05,3e-05,6e-05,0.00011,-5e-05,0.00042,3,9
43021,0.00054,0.00036,6e-05,3e-05,6e-05,0.00011,-5e-05,0.00042,3,9
43022,0.00054,0.00036,6e-05,3e-05,6e-05,0.00011,-5e-05,0.00042,3,9
43023,0.00054,0.00036,6e-05,3e-05,6e-05,0.00011,-5e-05,0.00042,3,9
43024,0.00054,0.00036,6e-05,3e-05,6e-05,0.00011,-5e-05,0.00042,3,9
43025,0.00054,0.00036,6e-05,3e-05,6e-05,0.00011,-5e-05,0.00042,3,9
43026,0.00054,0.00036,6e-05,3e-05,6e-05,0.00011,-5e-05,0.00042,3,9
43027,0.00054,0.00036,6e-05,3e-05,6e-05,0.00011,-5e-05,0.00042,3,9
43028,0.00054,0.00036,6e-05,3e-05,6e-05,0.00011,-5e-05,0.00042,3,9
43029,0.00054,0.00036,6e-05,3e-05,6e-05,0.00011,-5e-05,0.00042,3,9
43030,1e-05,0.00038,3e-05,0,-3e-05,6e-05,0.00012,-0.00025,3,9
43031,-3e-05,0.00014,-3e-05,-9e-05,-6e-05,-4e-05,-0.00014,0.00081,3,9
43032,-3e-05,0.00014,-3e-05,-9e-05,-6e-05,-4e-05,-0.00014,0.00081,3,9
43033,-3e-05,0.00014,-3e-05,-9e-05,-6e-05,-4e-05,-0.00014,0.00081,3,9
43034,-3e-05,0.00014,-3e-05,-9e-05,-6e-05,-4e-05,-0.00014,0.00081,3,9
43035,-3e-05,0.00014,-3e-05,-9e-05,-6e-05,-4e-05,-0.00014,0.00081,3,9
43036,-3e-05,0.00014,-3e-05,-9e-05,-6e-05,-4e-05,-0.00014,0.00081,3,9
43039,-3e-05,0.00014,-3e-05,-9e-05,-6e-05,-4e-05,-0.00014,0.00081,3,9
43040,-3e-05,0.00014,-3e-05,-9e-05,-6e-05,-4e-05,-0.00014,0.00081,3,9
43041,-3e-05,0.00014,-3e-05,-9e-05,-6e-05,-4e-05,-0.00014,0.00081,3,9
43042,-3e-05,0.00014,-3e-05,-9e-05,-6e-05,-4e-05,-0.00014,0.00081,3,9
43043,-3e-05,0.00014,-3e-05,-9e-05,-6e-05,-4e-05,-0.00014,0.00081,3,9
43044,-3e-05,0.00014,-3e-05,-9e-05,-6e-05,-4e-05,-0.00014,0.00081,3,9
43045,-3e-05,0.00014,-3e-05,-9e-05,-6e-05,-4e-05,-0.00014,0.00081,3,9
43046,-3e-05,0.00014,-3e-05,-9e-05,-6e-05,-4e-05,-0.00014,0.00081,3,9
43047,-3e-05,0.00014,-3e-05,-9e-05,-6e-05,-4e-05,-0.00014,0.00081,3,9
43048,-3e-05,0.00014,-3e-05,-9e-05,-6e-05,-4e-05,-0.00014,0.00081,3,9
43049,-3e-05,0.00014,-3e-05,-9e-05,-6e-05,-4e-05,-0.00014,0.00081,3,9
43050,-3e-05,0.00014,-3e-05,-9e-05,-6e-05,-4e-05,-0.00014,0.00081,3,9
43051,-3e-05,0.00014,-3e-05,-9e-05,-6e-05,-4e-05,-0.00014,0.00081,3,9
43052,-3e-05,0.00014,-3e-05,-9e-05,-6e-05,-4e-05,-0.00014,0.00081,3,9
43054,-0.00015,-0.00048,-3e-05,-1e-05,-3e-05,-5e-05,-0.00013,0.00047,3,9
43055,-0.00015,-0.00048,-3e-05,-1e-05,-3e-05,-5e-05,-0.00013,0.00047,3,9
43056,-0.00015,-0.00048,-3e-05,-1e-05,-3e-05,-5e-05,-0.00013,0.00047,3,9
43057,-0.00015,-0.00048,-3e-05,-1e-05,-3e-05,-5e-05,-0.00013,0.00047,3,9
43058,-0.00015,-0.00048,-3e-05,-1e-05,-3e-05,-5e-05,-0.00013,0.00047,3,9
43059,-0.00015,-0.00048,-3e-05,-1e-05,-3e-05,-5e-05,-0.00013,0.00047,3,9
43060,-0.00015,-0.00048,-3e-05,-1e-05,-3e-05,-5e-05,-0.00013,0.00047,3,9
43061,-0.00015,-0.00048,-3e-05,-1e-05,-3e-05,-5e-05,-0.00013,0.00047,3,9
43062,-0.00015,-0.00048,-3e-05,-1e-05,-3e-05,-5e-05,-0.00013,0.00047,3,9
43063,-0.00015,-0.00048,-3e-05,-1e-05,-3e-05,-5e-05,-0.00013,0.00047,3,9
43064,-0.00015,-0.00048,-3e-05,-1e-05,-3e-05,-5e-05,-0.00013,0.00047,3,9
43065,-0.00015,-0.00048,-3e-05,-1e-05,-3e-05,-5e-05,-0.00013,0.00047,3,9
43066,-0.00015,-0.00048,-3e-05,-1e-05,-3e-05,-5e-05,-0.00013,0.00047,3,9
43067,1e-05,0.00029,4e-05,1e-05,8e-05,0.00013,8e-05,0.00053,3,9
43068,1e-05,0.00029,4e-05,1e-05,8e-05,0.00013,8e-05,0.00053,3,9
43069,1e-05,0.00029,4e-05,1e-05,8e-05,0.00013,8e-05,0.00053,3,9
43070,1e-05,0.00029,4e-05,1e-05,8e-05,0.00013,8e-05,0.00053,3,9
43071,1e-05,0.00029,4e-05,1e-05,8e-05,0.00013,8e-05,0.00053,3,9
43072,1e-05,0.00029,4e-05,1e-05,8e-05,0.00013,8e-05,0.00053,3,9
43073,1e-05,0.00029,4e-05,1e-05,8e-05,0.00013,8e-05,0.00053,3,9
43074,1e-05,0.00029,4e-05,1e-05,8e-05,0.00013,8e-05,0.00053,3,9
43075,0.00018,1e-05,-3e-05,1e-05,-1e-05,-4e-05,-0.00027,-0.00028,3,9
43076,0.00018,1e-05,-3e-05,1e-05,-1e-05,-4e-05,-0.00027,-0.00028,3,9
43077,0.00018,1e-05,-3e-05,1e-05,-1e-05,-4e-05,-0.00027,-0.00028,3,9
43078,0.00018,1e-05,-3e-05,1e-05,-1e-05,-4e-05,-0.00027,-0.00028,3,9
43079,0.00018,1e-05,-3e-05,1e-05,-1e-05,-4e-05,-0.00027,-0.00028,3,9
43080,0.00018,1e-05,-3e-05,1e-05,-1e-05,-4e-05,-0.00027,-0.00028,3,9
43081,0.00018,1e-05,-3e-05,1e-05,-1e-05,-4e-05,-0.00027,-0.00028,3,9
43082,0.00018,1e-05,-3e-05,1e-05,-1e-05,-4e-05,-0.00027,-0.00028,3,9
43083,0.00018,1e-05,-3e-05,1e-05,-1e-05,-4e-05,-0.00027,-0.00028,3,9
43084,0.00018,1e-05,-3e-05,1e-05,-1e-05,-4e-05,-0.00027,-0.00028,3,9
43085,0.00018,1e-05,-3e-05,1e-05,-1e-05,-4e-05,-0.00027,-0.00028,3,9
43086,0.00018,1e-05,-3e-05,1e-05,-1e-05,-4e-05,-0.00027,-0.00028,3,9
43089,0.00018,1e-05,-3e-05,1e-05,-1e-05,-4e-05,-0.00027,-0.00028,3,9
43090,0.00018,1e-05,-3e-05,1e-05,-1e-05,-4e-05,-0.00027,-0.00028,3,9
43091,0.00018,1e-05,-3e-05,1e-05,-1e-05,-4e-05,-0.00027,-0.00028,3,9
43092,0.00018,1e-05,-3e-05,1e-05,-1e-05,-4e-05,-0.00027,-0.00028,3,9
43093,0.00018,1e-05,-3e-05,1e-05,-1e-05,-4e-05,-0.00027,-0.00028,3,9
43094,0.00018,1e-05,-3e-05,1e-05,-1e-05,-4e-05,-0.00027,-0.00028,3,9
43095,0.00018,1e-05,-3e-05,1e-05,-1e-05,-4e-05,-0.00027,-0.00028,3,9
43096,0.00018,1e-05,-3e-05,1e-05,-1e-05,-4e-05,-0.00027,-0.00028,3,9
43097,0.00018,1e-05,-3e-05,1e-05,-1e-05,-4e-05,-0.00027,-0.00028,3,9
43098,4e-05,-1e-05,2e-05,2e-05,0,3e-05,0.00011,0.00017,3,9
43099,4e-05,-1e-05,2e-05,2e-05,0,3e-05,0.00011,0.00017,3,9
43100,4e-05,7e-05,-4e-05,-6e-05,-8e-05,-0.00011,3e-05,0,3,9
43101,4e-05,7e-05,-4e-05,-6e-05,-8e-05,-0.00011,3e-05,0,3,9
43102,4e-05,7e-05,-4e-05,-6e-05,-8e-05,-0.00011,3e-05,0,3,9
43103,4e-05,7e-05,-4e-05,-6e-05,-8e-05,-0.00011,3e-05,0,3,9
43104,4e-05,7e-05,-4e-05,-6e-05,-8e-05,-0.00011,3e-05,0,3,9
43105,4e-05,7e-05,-4e-05,-6e-05,-8e-05,-0.00011,3e-05,0,3,9
43106,4e-05,7e-05,-4e-05,-6e-05,-8e-05,-0.00011,3e-05,0,3,9
43107,4e-05,7e-05,-4e-05,-6e-05,-8e-05,-0.00011,3e-05,0,3,9
43108,4e-05,7e-05,-4e-05,-6e-05,-8e-05,-0.00011,3e-05,0,3,9
43109,4e-05,7e-05,-4e-05,-6e-05,-8e-05,-0.00011,3e-05,0,3,9
43110,4e-05,7e-05,-4e-05,-6e-05,-8e-05,-0.00011,3e-05,0,3,9
43111,4e-05,7e-05,-4e-05,-6e-05,-8e-05,-0.00011,3e-05,0,3,9
43112,4e-05,7e-05,-4e-05,-6e-05,-8e-05,-0.00011,3e-05,0,3,9
43113,4e-05,7e-05,-4e-05,-6e-05,-8e-05,-0.00011,3e-05,0,3,9
43114,4e-05,7e-05,-4e-05,-6e-05,-8e-05,-0.00011,3e-05,0,3,9
43115,4e-05,7e-05,-4e-05,-6e-05,-8e-05,-0.00011,3e-05,0,3,9
43116,4e-05,7e-05,-4e-05,-6e-05,-8e-05,-0.00011,3e-05,0,3,9
43117,4e-05,7e-05,-4e-05,-6e-05,-8e-05,-0.00011,3e-05,0,3,9
43118,4e-05,7e-05,-4e-05,-6e-05,-8e-05,-0.00011,3e-05,0,3,9
43119,4e-05,7e-05,-4e-05,-6e-05,-8e-05,-0.00011,3e-05,0,3,9
43120,4e-05,7e-05,-4e-05,-6e-05,-8e-05,-0.00011,3e-05,0,3,9
43122,-1e-05,4e-05,5e-05,1e-05,3e-05,3e-05,4e-05,4e-05,3,9
43123,-0.00026,-8e-05,-3e-05,-5e-05,-1e-05,-4e-05,0.00012,-0.00013,3,9
43125,-0.00026,-8e-05,-3e-05,-5e-05,-1e-05,-4e-05,0.00012,-0.00013,3,9
43126,-0.00026,-8e-05,-3e-05,-5e-05,-1e-05,-4e-05,0.00012,-0.00013,3,9
43127,-0.0001,-0.00015,1e-05,-1e-05,-2e-05,3e-05,-8e-05,-0.00095,3,9
43128,-0.0001,-0.00015,1e-05,-1e-05,-2e-05,3e-05,-8e-05,-0.00095,3,9
43129,-0.0001,-0.00015,1e-05,-1e-05,-2e-05,3e-05,-8e-05,-0.00095,3,9
43130,-0.0001,-0.00015,1e-05,-1e-05,-2e-05,3e-05,-8e-05,-0.00095,3,9
43131,-0.0001,-0.00015,1e-05,-1e-05,-2e-05,3e-05,-8e-05,-0.00095,3,9
43132,-0.0001,-0.00015,1e-05,-1e-05,-2e-05,3e-05,-8e-05,-0.00095,3,9
43133,-0.0001,-0.00015,1e-05,-1e-05,-2e-05,3e-05,-8e-05,-0.00095,3,9
43134,-0.0001,-0.00015,1e-05,-1e-05,-2e-05,3e-05,-8e-05,-0.00095,3,9
43135,2e-05,-0.00017,-6e-05,-5e-05,-4e-05,-2e-05,-9e-05,-8e-05,3,9
43136,-6e-05,-0.00011,-2e-05,0,-4e-05,2e-05,5e-05,9e-05,3,9
43139,-6e-05,-0.00011,-2e-05,0,-4e-05,2e-05,5e-05,9e-05,3,9
43140,-6e-05,-0.00011,-2e-05,0,-4e-05,2e-05,5e-05,9e-05,3,9
43141,-6e-05,-0.00011,-2e-05,0,-4e-05,2e-05,5e-05,9e-05,3,9
43142,-6e-05,-0.00011,-2e-05,0,-4e-05,2e-05,5e-05,9e-05,3,9
43143,-6e-05,-0.00011,-2e-05,0,-4e-05,2e-05,5e-05,9e-05,3,9
43144,-6e-05,-0.00011,-2e-05,0,-4e-05,2e-05,5e-05,9e-05,3,9
43145,-6e-05,-0.00011,-2e-05,0,-4e-05,2e-05,5e-05,9e-05,3,9
43147,-6e-05,-0.00011,-2e-05,0,-4e-05,2e-05,5e-05,9e-05,3,9
43148,-6e-05,-0.00011,-2e-05,0,-4e-05,2e-05,5e-05,9e-05,3,9
43149,-6e-05,-0.00011,-2e-05,0,-4e-05,2e-05,5e-05,9e-05,3,9
43150,-6e-05,-0.00011,-2e-05,0,-4e-05,2e-05,5e-05,9e-05,3,9
43151,0.00034,0.00035,4e-05,-5e-05,-0.0001,-7e-05,-6e-05,-0.00027,3,9
43152,0.00016,0.00035,0.00013,2e-05,4e-05,0.00012,0.00015,-0.00053,3,9
43153,0.00016,0.00035,0.00013,2e-05,4e-05,0.00012,0.00015,-0.00053,3,9
43154,0.00016,0.00035,0.00013,2e-05,4e-05,0.00012,0.00015,-0.00053,3,9
43155,0.00016,0.00035,0.00013,2e-05,4e-05,0.00012,0.00015,-0.00053,3,9
43156,0.00016,0.00035,0.00013,2e-05,4e-05,0.00012,0.00015,-0.00053,3,9
43157,0.00016,0.00035,0.00013,2e-05,4e-05,0.00012,0.00015,-0.00053,3,9
43158,0.00016,0.00035,0.00013,2e-05,4e-05,0.00012,0.00015,-0.00053,3,9
43159,0.00016,0.00035,0.00013,2e-05,4e-05,0.00012,0.00015,-0.00053,3,9
43160,0.00016,0.00035,0.00013,2e-05,4e-05,0.00012,0.00015,-0.00053,3,9
43161,0.00016,0.00035,0.00013,2e-05,4e-05,0.00012,0.00015,-0.00053,3,9
43162,0.00016,0.00035,0.00013,2e-05,4e-05,0.00012,0.00015,-0.00053,3,9
43163,0.00016,0.00035,0.00013,2e-05,4e-05,0.00012,0.00015,-0.00053,3,9
43164,0.00016,0.00035,0.00013,2e-05,4e-05,0.00012,0.00015,-0.00053,3,9
43165,0.00016,0.00035,0.00013,2e-05,4e-05,0.00012,0.00015,-0.00053,3,9
43166,0.00016,0.00035,0.00013,2e-05,4e-05,0.00012,0.00015,-0.00053,3,9
43167,0.00016,0.00035,0.00013,2e-05,4e-05,0.00012,0.00015,-0.00053,3,9
43168,0.00016,0.00035,0.00013,2e-05,4e-05,0.00012,0.00015,-0.00053,3,9
