16927,3e-05,5e-05,0.00028,-0.00086,0.00042,0.00061,3e-05,3e-05,4,10
16928,3e-05,5e-05,0.00028,-0.00086,0.00042,0.00061,3e-05,3e-05,4,10
16929,3e-05,5e-05,0.00028,-0.00086,0.00042,0.00061,3e-05,3e-05,4,10
16930,3e-05,5e-05,0.00028,-0.00086,0.00042,0.00061,3e-05,3e-05,4,10
16931,3e-05,5e-05,0.00028,-0.00086,0.00042,0.00061,3e-05,3e-05,4,10
16932,3e-05,5e-05,0.00028,-0.00086,0.00042,0.00061,3e-05,3e-05,4,10
16933,3e-05,5e-05,0.00028,-0.00086,0.00042,0.00061,3e-05,3e-05,4,10
16934,3e-05,5e-05,0.00028,-0.00086,0.00042,0.00061,3e-05,3e-05,4,10
16935,3e-05,5e-05,0.00028,-0.00086,0.00042,0.00061,3e-05,3e-05,4,10
16936,3e-05,5e-05,0.00028,-0.00086,0.00042,0.00061,3e-05,3e-05,4,10
16939,3e-05,5e-05,0.00028,-0.00086,0.00042,0.00061,3e-05,3e-05,4,10
16940,3e-05,5e-05,0.00028,-0.00086,0.00042,0.00061,3e-05,3e-05,4,10
16941,-8e-05,-0.0001,-0.00028,0.00012,-0.00093,-0.0007,-0.00025,-0.0001,4,10
16942,4e-05,1e-05,4e-05,-0.00039,0.00045,0.00016,8e-05,6e-05,4,10
16943,4e-05,1e-05,4e-05,-0.00039,0.00045,0.00016,8e-05,6e-05,4,10
16944,0.00021,0.00034,0.00043,0.0009,0.00086,0.00098,0.00053,0.00025,4,10
16945,0.00021,0.00034,0.00043,0.0009,0.00086,0.00098,0.00053,0.00025,4,10
16946,0.00021,0.00034,0.00043,0.0009,0.00086,0.00098,0.00053,0.00025,4,10
16947,0.00021,0.00034,0.00043,0.0009,0.00086,0.00098,0.00053,0.00025,4,10
16948,0.00021,0.00034,0.00043,0.0009,0.00086,0.00098,0.00053,0.00025,4,10
16949,0.00021,0.00034,0.00043,0.0009,0.00086,0.00098,0.00053,0.00025,4,10
16950,0.00021,0.00034,0.00043,0.0009,0.00086,0.00098,0.00053,0.00025,4,10
16951,0.00021,0.00034,0.00043,0.0009,0.00086,0.00098,0.00053,0.00025,4,10
16952,0.00021,0.00034,0.00043,0.0009,0.00086,0.00098,0.00053,0.00025,4,10
16953,0.00021,0.00034,0.00043,0.0009,0.00086,0.00098,0.00053,0.00025,4,10
16954,0.00021,0.00034,0.00043,0.0009,0.00086,0.00098,0.00053,0.00025,4,10
16955,0.00021,0.00034,0.00043,0.0009,0.00086,0.00098,0.00053,0.00025,4,10
16956,-1e-05,-3e-05,-5e-05,-0.00046,-0.00078,-0.00024,3e-05,1e-05,4,10
16957,-1e-05,-3e-05,-5e-05,-0.00046,-0.00078,-0.00024,3e-05,1e-05,4,10
16958,-1e-05,-3e-05,-5e-05,-0.00046,-0.00078,-0.00024,3e-05,1e-05,4,10
16959,-1e-05,-3e-05,-5e-05,-0.00046,-0.00078,-0.00024,3e-05,1e-05,4,10
16960,-1e-05,-3e-05,-5e-05,-0.00046,-0.00078,-0.00024,3e-05,1e-05,4,10
16961,-1e-05,-3e-05,-5e-05,-0.00046,-0.00078,-0.00024,3e-05,1e-05,4,10
16962,-1e-05,-3e-05,-5e-05,-0.00046,-0.00078,-0.00024,3e-05,1e-05,4,10
16963,-0.0002,-0.00027,-0.00039,-0.00062,-0.00056,-0.00098,-0.00043,-0.00022,4,10
16964,-0.0002,-0.00027,-0.00039,-0.00062,-0.00056,-0.00098,-0.00043,-0.00022,4,10
16965,-0.0002,-0.00027,-0.00039,-0.00062,-0.00056,-0.00098,-0.00043,-0.00022,4,10
16966,-0.0002,-0.00027,-0.00039,-0.00062,-0.00056,-0.00098,-0.00043,-0.00022,4,10
16967,-0.0002,-0.00027,-0.00039,-0.00062,-0.00056,-0.00098,-0.00043,-0.00022,4,10
16968,-0.0002,-0.00027,-0.00039,-0.00062,-0.00056,-0.00098,-0.00043,-0.00022,4,10
16969,-0.0002,-0.00027,-0.00039,-0.00062,-0.00056,-0.00098,-0.00043,-0.00022,4,10
16970,-0.0002,-0.00027,-0.00039,-0.00062,-0.00056,-0.00098,-0.00043,-0.00022,4,10
16971,-0.0002,-0.00027,-0.00039,-0.00062,-0.00056,-0.00098,-0.00043,-0.00022,4,10
16972,-0.0002,-0.00027,-0.00039,-0.00062,-0.00056,-0.00098,-0.00043,-0.00022,4,10
16973,-0.0002,-0.00027,-0.00039,-0.00062,-0.00056,-0.00098,-0.00043,-0.00022,4,10
16974,-0.0002,-0.00027,-0.00039,-0.00062,-0.00056,-0.00098,-0.00043,-0.00022,4,10
16975,-0.0002,-0.00027,-0.00039,-0.00062,-0.00056,-0.00098,-0.00043,-0.00022,4,10
16976,-0.0002,-0.00027,-0.00039,-0.00062,-0.00056,-0.00098,-0.00043,-0.00022,4,10
16977,-0.0002,-0.00027,-0.00039,-0.00062,-0.00056,-0.00098,-0.00043,-0.00022,4,10
16978,-0.0002,-0.00027,-0.00039,-0.00062,-0.00056,-0.00098,-0.00043,-0.00022,4,10
16979,-0.0002,-0.00027,-0.00039,-0.00062,-0.00056,-0.00098,-0.00043,-0.00022,4,10
16980,6e-05,8e-05,0.0001,0.00013,0.00096,-0.00012,0.00014,7e-05,4,10
16981,2e-05,9e-05,0.00022,0.00104,-0.00037,-8e-05,0,1e-05,4,10
16982,-0.00011,-0.00015,-0.00012,-3e-05,-0.00062,-0.0007,-0.00029,-0.00013,4,10
16983,-0.00011,-0.00015,-0.00012,-3e-05,-0.00062,-0.0007,-0.00029,-0.00013,4,10
16984,-0.00011,-0.00015,-0.00012,-3e-05,-0.00062,-0.0007,-0.00029,-0.00013,4,10
16985,-0.00011,-0.00015,-0.00012,-3e-05,-0.00062,-0.0007,-0.00029,-0.00013,4,10
16986,-0.00011,-0.00015,-0.00012,-3e-05,-0.00062,-0.0007,-0.00029,-0.00013,4,10
16989,-0.00011,-0.00015,-0.00012,-3e-05,-0.00062,-0.0007,-0.00029,-0.00013,4,10
16990,-0.00011,-0.00015,-0.00012,-3e-05,-0.00062,-0.0007,-0.00029,-0.00013,4,10
16991,-0.00011,-0.00015,-0.00012,-3e-05,-0.00062,-0.0007,-0.00029,-0.00013,4,10
16992,-0.00011,-0.00015,-0.00012,-3e-05,-0.00062,-0.0007,-0.00029,-0.00013,4,10
16993,-0.00011,-0.00015,-0.00012,-3e-05,-0.00062,-0.0007,-0.00029,-0.00013,4,10
16994,-0.00011,-0.00015,-0.00012,-3e-05,-0.00062,-0.0007,-0.00029,-0.00013,4,10
16995,-0.00011,-0.00015,-0.00012,-3e-05,-0.00062,-0.0007,-0.00029,-0.00013,4,10
16996,-0.00011,-0.00015,-0.00012,-3e-05,-0.00062,-0.0007,-0.00029,-0.00013,4,10
16997,-0.00011,-0.00015,-0.00012,-3e-05,-0.00062,-0.0007,-0.00029,-0.00013,4,10
16998,-0.00011,-0.00015,-0.00012,-3e-05,-0.00062,-0.0007,-0.00029,-0.00013,4,10
16999,-0.00011,-0.00015,-0.00012,-3e-05,-0.00062,-0.0007,-0.00029,-0.00013,4,10
17000,-0.00011,-0.00015,-0.00012,-3e-05,-0.00062,-0.0007,-0.00029,-0.00013,4,10
17001,-5e-05,-0.00015,-0.00053,0.00021,-0.00077,0.00043,9e-05,-1e-05,4,10
17002,-7e-05,-0.00011,-0.00014,-0.00043,-0.00038,-0.00067,-7e-05,-6e-05,4,10
17003,-7e-05,-0.00011,-0.00029,-0.00013,-0.00127,-7e-05,-0.00011,-7e-05,4,10
17004,-7e-05,-0.00011,-0.00029,-0.00013,-0.00127,-7e-05,-0.00011,-7e-05,4,10
17005,-7e-05,-0.00011,-0.00029,-0.00013,-0.00127,-7e-05,-0.00011,-7e-05,4,10
17006,-7e-05,-0.00011,-0.00029,-0.00013,-0.00127,-7e-05,-0.00011,-7e-05,4,10
17007,-7e-05,-0.00011,-0.00029,-0.00013,-0.00127,-7e-05,-0.00011,-7e-05,4,10
17008,-7e-05,-0.00011,-0.00029,-0.00013,-0.00127,-7e-05,-0.00011,-7e-05,4,10
17009,-7e-05,-0.00011,-0.00029,-0.00013,-0.00127,-7e-05,-0.00011,-7e-05,4,10
17010,-7e-05,-0.00011,-0.00029,-0.00013,-0.00127,-7e-05,-0.00011,-7e-05,4,10
17011,-7e-05,-0.00011,-0.00029,-0.00013,-0.00127,-7e-05,-0.00011,-7e-05,4,10
17012,-7e-05,-0.00011,-0.00029,-0.00013,-0.00127,-7e-05,-0.00011,-7e-05,4,10
17013,-7e-05,-0.00011,-0.00029,-0.00013,-0.00127,-7e-05,-0.00011,-7e-05,4,10
17014,-7e-05,-0.00011,-0.00029,-0.00013,-0.00127,-7e-05,-0.00011,-7e-05,4,10
17015,-7e-05,-0.00011,-0.00029,-0.00013,-0.00127,-7e-05,-0.00011,-7e-05,4,10
17016,-0.00015,-0.00025,-0.00032,-0.0001,-3e-05,-0.00027,-0.00023,-0.00014,4,10
17017,-0.00015,-0.00025,-0.00032,-0.0001,-3e-05,-0.00027,-0.00023,-0.00014,4,10
17018,-0.00015,-0.00025,-0.00032,-0.0001,-3e-05,-0.00027,-0.00023,-0.00014,4,10
17019,-0.00015,-0.00025,-0.00032,-0.0001,-3e-05,-0.00027,-0.00023,-0.00014,4,10
17020,-0.00015,-0.00025,-0.00032,-0.0001,-3e-05,-0.00027,-0.00023,-0.00014,4,10
17021,-0.00015,-0.00025,-0.00032,-0.0001,-3e-05,-0.00027,-0.00023,-0.00014,4,10
17022,4e-05,0.0001,0.00017,-0.00033,-0.0002,0.00026,0.00022,0.00011,4,10
17023,-2e-05,-4e-05,-6e-05,0.00115,0.00099,5e-05,-9e-05,-5e-05,4,10
17024,-2e-05,-4e-05,-6e-05,0.00115,0.00099,5e-05,-9e-05,-5e-05,4,10
17025,-2e-05,-4e-05,-6e-05,0.00115,0.00099,5e-05,-9e-05,-5e-05,4,10
17026,-2e-05,-4e-05,-6e-05,0.00115,0.00099,5e-05,-9e-05,-5e-05,4,10
17027,-2e-05,-4e-05,-6e-05,0.00115,0.00099,5e-05,-9e-05,-5e-05,4,10
17028,-2e-05,-4e-05,-6e-05,0.00115,0.00099,5e-05,-9e-05,-5e-05,4,10
17029,-2e-05,-4e-05,-6e-05,0.00115,0.00099,5e-05,-9e-05,-5e-05,4,10
17030,-2e-05,-4e-05,-6e-05,0.00115,0.00099,5e-05,-9e-05,-5e-05,4,10
17031,-2e-05,-4e-05,-6e-05,0.00115,0.00099,5e-05,-9e-05,-5e-05,4,10
17032,-2e-05,-4e-05,-6e-05,0.00115,0.00099,5e-05,-9e-05,-5e-05,4,10
17033,-2e-05,-4e-05,-6e-05,0.00115,0.00099,5e-05,-9e-05,-5e-05,4,10
17034,-2e-05,-4e-05,-6e-05,0.00115,0.00099,5e-05,-9e-05,-5e-05,4,10
17035,-2e-05,-4e-05,-6e-05,0.00115,0.00099,5e-05,-9e-05,-5e-05,4,10
17036,-2e-05,-4e-05,-6e-05,0.00115,0.00099,5e-05,-9e-05,-5e-05,4,10
17039,-2e-05,-4e-05,-6e-05,0.00115,0.00099,5e-05,-9e-05,-5e-05,4,10
17040,5e-05,9e-05,0.00017,0.00033,0.00094,0.00096,0.00024,8e-05,4,10
17041,0.00023,0.00035,0.00064,0.0005,-0.00028,0.00057,0.00039,0.00026,4,10
17042,0.00023,0.00035,0.00064,0.0005,-0.00028,0.00057,0.00039,0.00026,4,10
17043,0.00023,0.00035,0.00064,0.0005,-0.00028,0.00057,0.00039,0.00026,4,10
17044,0.00023,0.00035,0.00064,0.0005,-0.00028,0.00057,0.00039,0.00026,4,10
17045,0.00023,0.00035,0.00064,0.0005,-0.00028,0.00057,0.00039,0.00026,4,10
17046,0.00023,0.00035,0.00064,0.0005,-0.00028,0.00057,0.00039,0.00026,4,10
17047,0.00023,0.00035,0.00064,0.0005,-0.00028,0.00057,0.00039,0.00026,4,10
17048,0.00023,0.00035,0.00064,0.0005,-0.00028,0.00057,0.00039,0.00026,4,10
17049,0.00023,0.00035,0.00064,0.0005,-0.00028,0.00057,0.00039,0.00026,4,10
17050,0.00023,0.00035,0.00064,0.0005,-0.00028,0.00057,0.00039,0.00026,4,10
17051,0.00023,0.00035,0.00064,0.0005,-0.00028,0.00057,0.00039,0.00026,4,10
17052,0.00023,0.00035,0.00064,0.0005,-0.00028,0.00057,0.00039,0.00026,4,10
17053,0.00023,0.00035,0.00064,0.0005,-0.00028,0.00057,0.00039,0.00026,4,10
17054,0.00023,0.00035,0.00064,0.0005,-0.00028,0.00057,0.00039,0.00026,4,10
17055,0.00023,0.00035,0.00064,0.0005,-0.00028,0.00057,0.00039,0.00026,4,10
17056,0.00023,0.00035,0.00064,0.0005,-0.00028,0.00057,0.00039,0.00026,4,10
17057,0.00023,0.00035,0.00064,0.0005,-0.00028,0.00057,0.00039,0.00026,4,10
17058,0.00023,0.00035,0.00064,0.0005,-0.00028,0.00057,0.00039,0.00026,4,10
17059,0.00023,0.00035,0.00064,0.0005,-0.00028,0.00057,0.00039,0.00026,4,10
17060,0.00023,0.00035,0.00064,0.0005,-0.00028,0.00057,0.00039,0.00026,4,10
17061,6e-05,0.00014,0.0002,0.00025,0.0006,-0.00039,0,6e-05,4,10
17062,6e-05,0.00014,0.0002,0.00025,0.0006,-0.00039,0,6e-05,4,10
17063,0.00013,0.00025,0.00059,0.00067,0.00038,-0.00035,0.00018,0.00017,4,10
17064,-7e-05,-0.0001,-0.0002,2e-05,-5e-05,3e-05,-9e-05,-8e-05,4,10
17065,-7e-05,-0.0001,-0.0002,2e-05,-5e-05,3e-05,-9e-05,-8e-05,4,10
17066,-7e-05,-0.0001,-0.0002,2e-05,-5e-05,3e-05,-9e-05,-8e-05,4,10
17067,-7e-05,-0.0001,-0.0002,2e-05,-5e-05,3e-05,-9e-05,-8e-05,4,10
17068,-7e-05,-0.0001,-0.0002,2e-05,-5e-05,3e-05,-9e-05,-8e-05,4,10
17069,-7e-05,-0.0001,-0.0002,2e-05,-5e-05,3e-05,-9e-05,-8e-05,4,10
17070,-7e-05,-0.0001,-0.0002,2e-05,-5e-05,3e-05,-9e-05,-8e-05,4,10
17071,-7e-05,-0.0001,-0.0002,2e-05,-5e-05,3e-05,-9e-05,-8e-05,4,10
17072,-7e-05,-0.0001,-0.0002,2e-05,-5e-05,3e-05,-9e-05,-8e-05,4,10
17073,-7e-05,-0.0001,-0.0002,2e-05,-5e-05,3e-05,-9e-05,-8e-05,4,10
17074,-7e-05,-0.0001,-0.0002,2e-05,-5e-05,3e-05,-9e-05,-8e-05,4,10
17075,-7e-05,-0.0001,-0.0002,2e-05,-5e-05,3e-05,-9e-05,-8e-05,4,10
17076,0.0001,0.00012,9e-05,-0.00045,-0.00108,0.00105,9e-05,9e-05,4,10
17077,0.0001,0.00012,9e-05,-0.00045,-0.00108,0.00105,9e-05,9e-05,4,10
17078,0.0001,0.00012,9e-05,-0.00045,-0.00108,0.00105,9e-05,9e-05,4,10
17079,0.0001,0.00012,9e-05,-0.00045,-0.00108,0.00105,9e-05,9e-05,4,10
17080,0.0001,0.00012,9e-05,-0.00045,-0.00108,0.00105,9e-05,9e-05,4,10
17081,0.0001,0.00012,9e-05,-0.00045,-0.00108,0.00105,9e-05,9e-05,4,10
17082,-0.00023,-0.00034,-0.00039,-0.00077,-0.00108,-0.00124,-0.00033,-0.00027,4,10
17083,8e-05,0.00015,8e-05,0.00067,0.00017,0.00033,0.00027,0.00013,4,10
17084,8e-05,0.00015,8e-05,0.00067,0.00017,0.00033,0.00027,0.00013,4,10
17085,8e-05,0.00015,8e-05,0.00067,0.00017,0.00033,0.00027,0.00013,4,10
17086,8e-05,0.00015,8e-05,0.00067,0.00017,0.00033,0.00027,0.00013,4,10
17089,8e-05,0.00015,8e-05,0.00067,0.00017,0.00033,0.00027,0.00013,4,10
17090,8e-05,0.00015,8e-05,0.00067,0.00017,0.00033,0.00027,0.00013,4,10
17091,8e-05,0.00015,8e-05,0.00067,0.00017,0.00033,0.00027,0.00013,4,10
17092,8e-05,0.00015,8e-05,0.00067,0.00017,0.00033,0.00027,0.00013,4,10
17093,8e-05,0.00015,8e-05,0.00067,0.00017,0.00033,0.00027,0.00013,4,10
17094,8e-05,0.00015,8e-05,0.00067,0.00017,0.00033,0.00027,0.00013,4,10
17095,8e-05,0.00015,8e-05,0.00067,0.00017,0.00033,0.00027,0.00013,4,10
17096,8e-05,0.00015,8e-05,0.00067,0.00017,0.00033,0.00027,0.00013,4,10
17097,8e-05,0.00015,8e-05,0.00067,0.00017,0.00033,0.00027,0.00013,4,10
17098,8e-05,0.00015,8e-05,0.00067,0.00017,0.00033,0.00027,0.00013,4,10
17099,-0.00013,-0.00017,-0.00018,0.00024,0.00046,-0.00023,-0.00028,-0.00015,4,10
17100,-6e-05,-4e-05,-0.00018,-0.00043,-0.00095,0.00017,-0.00019,-0.0001,4,10
17101,-2e-05,-0.00014,-0.00021,0.00015,0.00055,5e-05,1e-05,-2e-05,4,10
17102,-2e-05,-0.00014,-0.00021,0.00015,0.00055,5e-05,1e-05,-2e-05,4,10
17103,-2e-05,-0.00014,-0.00021,0.00015,0.00055,5e-05,1e-05,-2e-05,4,10
17104,-2e-05,-0.00014,-0.00021,0.00015,0.00055,5e-05,1e-05,-2e-05,4,10
17105,-2e-05,-0.00014,-0.00021,0.00015,0.00055,5e-05,1e-05,-2e-05,4,10
17106,-2e-05,-0.00014,-0.00021,0.00015,0.00055,5e-05,1e-05,-2e-05,4,10
17107,-2e-05,-0.00014,-0.00021,0.00015,0.00055,5e-05,1e-05,-2e-05,4,10
17108,-2e-05,-0.00014,-0.00021,0.00015,0.00055,5e-05,1e-05,-2e-05,4,10
17109,-2e-05,-0.00014,-0.00021,0.00015,0.00055,5e-05,1e-05,-2e-05,4,10
17110,-2e-05,-0.00014,-0.00021,0.00015,0.00055,5e-05,1e-05,-2e-05,4,10
17111,-2e-05,-0.00014,-0.00021,0.00015,0.00055,5e-05,1e-05,-2e-05,4,10
17112,-2e-05,-0.00014,-0.00021,0.00015,0.00055,5e-05,1e-05,-2e-05,4,10
17113,-2e-05,-0.00014,-0.00021,0.00015,0.00055,5e-05,1e-05,-2e-05,4,10
17114,-2e-05,-0.00014,-0.00021,0.00015,0.00055,5e-05,1e-05,-2e-05,4,10
17115,-2e-05,-0.00014,-0.00021,0.00015,0.00055,5e-05,1e-05,-2e-05,4,10
17116,-2e-05,-0.00014,-0.00021,0.00015,0.00055,5e-05,1e-05,-2e-05,4,10
17117,-2e-05,-0.00014,-0.00021,0.00015,0.00055,5e-05,1e-05,-2e-05,4,10
17118,-2e-05,-0.00014,-0.00021,0.00015,0.00055,5e-05,1e-05,-2e-05,4,10
17119,-2e-05,-0.00014,-0.00021,0.00015,0.00055,5e-05,1e-05,-2e-05,4,10
17120,-2e-05,-0.00014,-0.00021,0.00015,0.00055,5e-05,1e-05,-2e-05,4,10
17121,-1e-05,-1e-05,-2e-05,-0.00126,-0.00084,-4e-05,-9e-05,2e-05,4,10
17122,-3e-05,-4e-05,-8e-05,0.00016,0.0002,0,-0.00014,-5e-05,4,10
17123,-8e-05,-9e-05,-0.00014,-0.00128,-0.00106,-0.00112,-0.00015,-8e-05,4,10
17124,-8e-05,-9e-05,-0.00014,-0.00128,-0.00106,-0.00112,-0.00015,-8e-05,4,10
17125,-8e-05,-9e-05,-0.00014,-0.00128,-0.00106,-0.00112,-0.00015,-8e-05,4,10
17126,-8e-05,-9e-05,-0.00014,-0.00128,-0.00106,-0.00112,-0.00015,-8e-05,4,10
17127,-8e-05,-9e-05,-0.00014,-0.00128,-0.00106,-0.00112,-0.00015,-8e-05,4,10
17128,-8e-05,-9e-05,-0.00014,-0.00128,-0.00106,-0.00112,-0.00015,-8e-05,4,10
17129,-8e-05,-9e-05,-0.00014,-0.00128,-0.00106,-0.00112,-0.00015,-8e-05,4,10
17130,-8e-05,-9e-05,-0.00014,-0.00128,-0.00106,-0.00112,-0.00015,-8e-05,4,10
17131,-8e-05,-9e-05,-0.00014,-0.00128,-0.00106,-0.00112,-0.00015,-8e-05,4,10
17132,-8e-05,-9e-05,-0.00014,-0.00128,-0.00106,-0.00112,-0.00015,-8e-05,4,10
17133,-8e-05,-9e-05,-0.00014,-0.00128,-0.00106,-0.00112,-0.00015,-8e-05,4,10
17134,-8e-05,-9e-05,-0.00014,-0.00128,-0.00106,-0.00112,-0.00015,-8e-05,4,10
17135,-8e-05,-9e-05,-0.00014,-0.00128,-0.00106,-0.00112,-0.00015,-8e-05,4,10
17136,-9e-05,-9e-05,-4e-05,-0.00025,-0.00108,-0.00027,-0.00016,-0.00011,4,10
17139,-9e-05,-9e-05,-4e-05,-0.00025,-0.00108,-0.00027,-0.00016,-0.00011,4,10
17140,-9e-05,-9e-05,-4e-05,-0.00025,-0.00108,-0.00027,-0.00016,-0.00011,4,10
17141,-9e-05,-9e-05,-4e-05,-0.00025,-0.00108,-0.00027,-0.00016,-0.00011,4,10
17142,-9e-05,-9e-05,-4e-05,-0.00025,-0.00108,-0.00027,-0.00016,-0.00011,4,10
17143,-2e-05,-3e-05,-9e-05,-0.00095,0.00039,0.00019,4e-05,1e-05,4,10
17144,-2e-05,-3e-05,-9e-05,-0.00095,0.00039,0.00019,4e-05,1e-05,4,10
17145,-2e-05,-3e-05,-9e-05,-0.00095,0.00039,0.00019,4e-05,1e-05,4,10
17146,-2e-05,-3e-05,-9e-05,-0.00095,0.00039,0.00019,4e-05,1e-05,4,10
17147,-2e-05,-3e-05,-9e-05,-0.00095,0.00039,0.00019,4e-05,1e-05,4,10
17148,-2e-05,-3e-05,-9e-05,-0.00095,0.00039,0.00019,4e-05,1e-05,4,10
17149,-2e-05,-3e-05,-9e-05,-0.00095,0.00039,0.00019,4e-05,1e-05,4,10
17150,-2e-05,-3e-05,-9e-05,-0.00095,0.00039,0.00019,4e-05,1e-05,4,10
17151,-2e-05,-3e-05,-9e-05,-0.00095,0.00039,0.00019,4e-05,1e-05,4,10
17152,-2e-05,-3e-05,-9e-05,-0.00095,0.00039,0.00019,4e-05,1e-05,4,10
17153,-2e-05,-3e-05,-9e-05,-0.00095,0.00039,0.00019,4e-05,1e-05,4,10
17154,-2e-05,-3e-05,-9e-05,-0.00095,0.00039,0.00019,4e-05,1e-05,4,10
17155,-2e-05,-3e-05,-9e-05,-0.00095,0.00039,0.00019,4e-05,1e-05,4,10
17156,-2e-05,-3e-05,-9e-05,-0.00095,0.00039,0.00019,4e-05,1e-05,4,10
17157,-2e-05,-3e-05,-9e-05,-0.00095,0.00039,0.00019,4e-05,1e-05,4,10
17158,-2e-05,-3e-05,-9e-05,-0.00095,0.00039,0.00019,4e-05,1e-05,4,10
17159,-0.00016,-0.00025,-0.00035,0,-0.00104,-0.00028,-0.00021,-0.00014,4,10
17160,0,0.0001,0.00022,3e-05,0.00087,-0.00012,-9e-05,-3e-05,4,10
17161,-0.00014,-0.00024,-0.00037,0.00025,-0.00098,-0.00087,-0.00028,-0.00017,4,10
17162,-0.00014,-0.00024,-0.00037,0.00025,-0.00098,-0.00087,-0.00028,-0.00017,4,10
17163,-0.00014,-0.00024,-0.00037,0.00025,-0.00098,-0.00087,-0.00028,-0.00017,4,10
17164,-0.00014,-0.00024,-0.00037,0.00025,-0.00098,-0.00087,-0.00028,-0.00017,4,10
17165,-0.00014,-0.00024,-0.00037,0.00025,-0.00098,-0.00087,-0.00028,-0.00017,4,10
17166,-0.00014,-0.00024,-0.00037,0.00025,-0.00098,-0.00087,-0.00028,-0.00017,4,10
17167,-0.00014,-0.00024,-0.00037,0.00025,-0.00098,-0.00087,-0.00028,-0.00017,4,10
17168,-0.00014,-0.00024,-0.00037,0.00025,-0.00098,-0.00087,-0.00028,-0.00017,4,10
17169,-0.00014,-0.00024,-0.00037,0.00025,-0.00098,-0.00087,-0.00028,-0.00017,4,10
17170,-0.00014,-0.00024,-0.00037,0.00025,-0.00098,-0.00087,-0.00028,-0.00017,4,10
17171,-0.00014,-0.00024,-0.00037,0.00025,-0.00098,-0.00087,-0.00028,-0.00017,4,10
17172,-0.00014,-0.00024,-0.00037,0.00025,-0.00098,-0.00087,-0.00028,-0.00017,4,10
17173,-0.00014,-0.00024,-0.00037,0.00025,-0.00098,-0.00087,-0.00028,-0.00017,4,10
17174,-0.00014,-0.00024,-0.00037,0.00025,-0.00098,-0.00087,-0.00028,-0.00017,4,10
17175,-0.00014,-0.00024,-0.00037,0.00025,-0.00098,-0.00087,-0.00028,-0.00017,4,10
17176,-0.00014,-0.00024,-0.00037,0.00025,-0.00098,-0.00087,-0.00028,-0.00017,4,10
17177,-0.00014,-0.00024,-0.00037,0.00025,-0.00098,-0.00087,-0.00028,-0.00017,4,10
17178,-0.00014,-0.00024,-0.00037,0.00025,-0.00098,-0.00087,-0.00028,-0.00017,4,10
17179,-0.00014,-0.00024,-0.00037,0.00025,-0.00098,-0.00087,-0.00028,-0.00017,4,10
17180,-0.00014,-0.00024,-0.00037,0.00025,-0.00098,-0.00087,-0.00028,-0.00017,4,10
17181,-0.00014,-0.00024,-0.00037,0.00025,-0.00098,-0.00087,-0.00028,-0.00017,4,10
17182,1e-05,-3e-05,-1e-05,0.00049,6e-05,-3e-05,-0.0001,-3e-05,4,10
17183,-8e-05,-0.00015,-0.00029,0.00014,-0.0005,-0.00049,-7e-05,-0.0001,4,10
17184,-8e-05,-0.00015,-0.00029,0.00014,-0.0005,-0.00049,-7e-05,-0.0001,4,10
17185,-8e-05,-0.00015,-0.00029,0.00014,-0.0005,-0.00049,-7e-05,-0.0001,4,10
17186,-8e-05,-0.00015,-0.00029,0.00014,-0.0005,-0.00049,-7e-05,-0.0001,4,10
17189,-8e-05,-0.00015,-0.00029,0.00014,-0.0005,-0.00049,-7e-05,-0.0001,4,10
17190,-8e-05,-0.00015,-0.00029,0.00014,-0.0005,-0.00049,-7e-05,-0.0001,4,10
17191,-8e-05,-0.00015,-0.00029,0.00014,-0.0005,-0.00049,-7e-05,-0.0001,4,10
17192,-8e-05,-0.00015,-0.00029,0.00014,-0.0005,-0.00049,-7e-05,-0.0001,4,10
17193,-8e-05,-0.00015,-0.00029,0.00014,-0.0005,-0.00049,-7e-05,-0.0001,4,10
17194,-8e-05,-0.00015,-0.00029,0.00014,-0.0005,-0.00049,-7e-05,-0.0001,4,10
17195,-8e-05,-0.00015,-0.00029,0.00014,-0.0005,-0.00049,-7e-05,-0.0001,4,10
17196,2e-05,9e-05,0.0002,-0.00025,-0.00122,-0.00015,-7e-05,1e-05,4,10
17197,2e-05,9e-05,0.0002,-0.00025,-0.00122,-0.00015,-7e-05,1e-05,4,10
17198,2e-05,9e-05,0.0002,-0.00025,-0.00122,-0.00015,-7e-05,1e-05,4,10
17199,2e-05,9e-05,0.0002,-0.00025,-0.00122,-0.00015,-7e-05,1e-05,4,10
17200,2e-05,9e-05,0.0002,-0.00025,-0.00122,-0.00015,-7e-05,1e-05,4,10
17201,2e-05,9e-05,0.0002,-0.00025,-0.00122,-0.00015,-7e-05,1e-05,4,10
17202,2e-05,9e-05,0.0002,-0.00025,-0.00122,-0.00015,-7e-05,1e-05,4,10
17203,2e-05,9e-05,0.0002,-0.00025,-0.00122,-0.00015,-7e-05,1e-05,4,10
17204,3e-05,2e-05,0,0.00023,-0.00014,0.00061,9e-05,5e-05,4,10
17205,3e-05,2e-05,0,0.00023,-0.00014,0.00061,9e-05,5e-05,4,10
17206,3e-05,2e-05,0,0.00023,-0.00014,0.00061,9e-05,5e-05,4,10
17207,3e-05,2e-05,0,0.00023,-0.00014,0.00061,9e-05,5e-05,4,10
17208,3e-05,2e-05,0,0.00023,-0.00014,0.00061,9e-05,5e-05,4,10
17209,3e-05,2e-05,0,0.00023,-0.00014,0.00061,9e-05,5e-05,4,10
17210,3e-05,2e-05,0,0.00023,-0.00014,0.00061,9e-05,5e-05,4,10
17211,3e-05,2e-05,0,0.00023,-0.00014,0.00061,9e-05,5e-05,4,10
17212,3e-05,2e-05,0,0.00023,-0.00014,0.00061,9e-05,5e-05,4,10
17213,3e-05,2e-05,0,0.00023,-0.00014,0.00061,9e-05,5e-05,4,10
17214,3e-05,2e-05,0,0.00023,-0.00014,0.00061,9e-05,5e-05,4,10
17215,3e-05,2e-05,0,0.00023,-0.00014,0.00061,9e-05,5e-05,4,10
17216,3e-05,2e-05,0,0.00023,-0.00014,0.00061,9e-05,5e-05,4,10
17217,3e-05,2e-05,0,0.00023,-0.00014,0.00061,9e-05,5e-05,4,10
17218,3e-05,2e-05,0,0.00023,-0.00014,0.00061,9e-05,5e-05,4,10
17219,3e-05,4e-05,-4e-05,0.00039,0.00035,-0.00018,0.00021,5e-05,4,10
17220,1e-05,-3e-05,-0.00014,0.00037,0.00091,0.00021,-0.00011,-1e-05,4,10
17221,-1e-05,-1e-05,9e-05,-0.00045,0.00021,0.00084,8e-05,4e-05,4,10
17222,-1e-05,-1e-05,9e-05,-0.00045,0.00021,0.00084,8e-05,4e-05,4,10
17223,-1e-05,-1e-05,9e-05,-0.00045,0.00021,0.00084,8e-05,4e-05,4,10
17224,-1e-05,-1e-05,9e-05,-0.00045,0.00021,0.00084,8e-05,4e-05,4,10
17226,-1e-05,-1e-05,9e-05,-0.00045,0.00021,0.00084,8e-05,4e-05,4,10
17227,-1e-05,-1e-05,9e-05,-0.00045,0.00021,0.00084,8e-05,4e-05,4,10
17228,-1e-05,-1e-05,9e-05,-0.00045,0.00021,0.00084,8e-05,4e-05,4,10
17229,-1e-05,-1e-05,9e-05,-0.00045,0.00021,0.00084,8e-05,4e-05,4,10
17230,-1e-05,-1e-05,9e-05,-0.00045,0.00021,0.00084,8e-05,4e-05,4,10
17231,-1e-05,-1e-05,9e-05,-0.00045,0.00021,0.00084,8e-05,4e-05,4,10
17232,-1e-05,-1e-05,9e-05,-0.00045,0.00021,0.00084,8e-05,4e-05,4,10
17233,-1e-05,-1e-05,9e-05,-0.00045,0.00021,0.00084,8e-05,4e-05,4,10
17234,-1e-05,-1e-05,9e-05,-0.00045,0.00021,0.00084,8e-05,4e-05,4,10
17235,-1e-05,-1e-05,9e-05,-0.00045,0.00021,0.00084,8e-05,4e-05,4,10
17236,-1e-05,-1e-05,9e-05,-0.00045,0.00021,0.00084,8e-05,4e-05,4,10
17239,-1e-05,-1e-05,9e-05,-0.00045,0.00021,0.00084,8e-05,4e-05,4,10
17240,-1e-05,-1e-05,9e-05,-0.00045,0.00021,0.00084,8e-05,4e-05,4,10
17241,-1e-05,-1e-05,9e-05,-0.00045,0.00021,0.00084,8e-05,4e-05,4,10
17242,3e-05,5e-05,6e-05,-0.00057,-0.0003,0.00057,0.00017,6e-05,4,10
17243,6e-05,0.0001,0.00014,0,-0.00091,-0.0004,-0.00014,-3e-05,4,10
17244,-1e-05,1e-05,0,-0.00011,-0.00048,0.00059,-9e-05,-1e-05,4,10
17245,-1e-05,1e-05,0,-0.00011,-0.00048,0.00059,-9e-05,-1e-05,4,10
17246,-1e-05,1e-05,0,-0.00011,-0.00048,0.00059,-9e-05,-1e-05,4,10
17247,-1e-05,1e-05,0,-0.00011,-0.00048,0.00059,-9e-05,-1e-05,4,10
17248,-1e-05,1e-05,0,-0.00011,-0.00048,0.00059,-9e-05,-1e-05,4,10
17249,-1e-05,1e-05,0,-0.00011,-0.00048,0.00059,-9e-05,-1e-05,4,10
17250,-1e-05,1e-05,0,-0.00011,-0.00048,0.00059,-9e-05,-1e-05,4,10
17251,-1e-05,1e-05,0,-0.00011,-0.00048,0.00059,-9e-05,-1e-05,4,10
17252,-1e-05,1e-05,0,-0.00011,-0.00048,0.00059,-9e-05,-1e-05,4,10
17253,-1e-05,1e-05,0,-0.00011,-0.00048,0.00059,-9e-05,-1e-05,4,10
17254,-1e-05,1e-05,0,-0.00011,-0.00048,0.00059,-9e-05,-1e-05,4,10
17255,0.00013,0.00021,0.00036,0.00067,-0.00016,-5e-05,0.00023,0.00015,4,10
17256,0.00013,0.00021,0.00036,0.00067,-0.00016,-5e-05,0.00023,0.00015,4,10
17257,0.00013,0.00021,0.00036,0.00067,-0.00016,-5e-05,0.00023,0.00015,4,10
17258,0.00013,0.00021,0.00036,0.00067,-0.00016,-5e-05,0.00023,0.00015,4,10
17259,0.00013,0.00021,0.00036,0.00067,-0.00016,-5e-05,0.00023,0.00015,4,10
17260,0.00013,0.00021,0.00036,0.00067,-0.00016,-5e-05,0.00023,0.00015,4,10
17261,0.00013,0.00021,0.00036,0.00067,-0.00016,-5e-05,0.00023,0.00015,4,10
17262,0.00013,0.00021,0.00036,0.00067,-0.00016,-5e-05,0.00023,0.00015,4,10
17263,0.00013,0.00021,0.00036,0.00067,-0.00016,-5e-05,0.00023,0.00015,4,10
17264,0.00013,0.00021,0.00036,0.00067,-0.00016,-5e-05,0.00023,0.00015,4,10
17265,0.00013,0.00021,0.00036,0.00067,-0.00016,-5e-05,0.00023,0.00015,4,10
17266,0.00013,0.00021,0.00036,0.00067,-0.00016,-5e-05,0.00023,0.00015,4,10
17267,0.00013,0.00021,0.00036,0.00067,-0.00016,-5e-05,0.00023,0.00015,4,10
17268,0.00013,0.00021,0.00036,0.00067,-0.00016,-5e-05,0.00023,0.00015,4,10
17269,0.00013,0.00021,0.00036,0.00067,-0.00016,-5e-05,0.00023,0.00015,4,10
17270,0.00013,0.00021,0.00036,0.00067,-0.00016,-5e-05,0.00023,0.00015,4,10
17271,0.00013,0.00021,0.00036,0.00067,-0.00016,-5e-05,0.00023,0.00015,4,10
17272,0.00013,0.00021,0.00036,0.00067,-0.00016,-5e-05,0.00023,0.00015,4,10
17273,0.00013,0.00021,0.00036,0.00067,-0.00016,-5e-05,0.00023,0.00015,4,10
17274,0.00013,0.00021,0.00036,0.00067,-0.00016,-5e-05,0.00023,0.00015,4,10
17275,0.00013,0.00021,0.00036,0.00067,-0.00016,-5e-05,0.00023,0.00015,4,10
17276,0.00013,0.00021,0.00036,0.00067,-0.00016,-5e-05,0.00023,0.00015,4,10
17277,0.00013,0.00021,0.00036,0.00067,-0.00016,-5e-05,0.00023,0.00015,4,10
17278,0.00013,0.00021,0.00036,0.00067,-0.00016,-5e-05,0.00023,0.00015,4,10
17279,-0.0001,-0.00016,-0.00023,0,-0.00054,-7e-05,-0.0001,-6e-05,4,10
17280,-4e-05,-7e-05,-0.0001,-0.00064,0.00013,-0.00056,-0.00019,-9e-05,4,10
17281,-4e-05,-7e-05,-0.0001,-0.00064,0.00013,-0.00056,-0.00019,-9e-05,4,10
17282,-4e-05,-7e-05,-0.0001,-0.00064,0.00013,-0.00056,-0.00019,-9e-05,4,10
17283,-4e-05,-7e-05,-0.0001,-0.00064,0.00013,-0.00056,-0.00019,-9e-05,4,10
17284,-4e-05,-7e-05,-0.0001,-0.00064,0.00013,-0.00056,-0.00019,-9e-05,4,10
17285,-4e-05,-7e-05,-0.0001,-0.00064,0.00013,-0.00056,-0.00019,-9e-05,4,10
17287,8e-05,0.00014,0.00015,0.00123,0.00078,0.00027,0.00017,0.00012,4,10
17290,8e-05,0.00014,0.00015,0.00123,0.00078,0.00027,0.00017,0.00012,4,10
17291,8e-05,0.00014,0.00015,0.00123,0.00078,0.00027,0.00017,0.00012,4,10
17292,8e-05,0.00014,0.00015,0.00123,0.00078,0.00027,0.00017,0.00012,4,10
17293,8e-05,0.00014,0.00015,0.00123,0.00078,0.00027,0.00017,0.00012,4,10
17294,8e-05,0.00014,0.00015,0.00123,0.00078,0.00027,0.00017,0.00012,4,10
17295,8e-05,0.00014,0.00015,0.00123,0.00078,0.00027,0.00017,0.00012,4,10
17296,8e-05,0.00014,0.00015,0.00123,0.00078,0.00027,0.00017,0.00012,4,10
17297,8e-05,0.00014,0.00015,0.00123,0.00078,0.00027,0.00017,0.00012,4,10
17298,8e-05,0.00014,0.00015,0.00123,0.00078,0.00027,0.00017,0.00012,4,10
17299,8e-05,0.00014,0.00015,0.00123,0.00078,0.00027,0.00017,0.00012,4,10
17300,8e-05,0.00014,0.00015,0.00123,0.00078,0.00027,0.00017,0.00012,4,10
17301,-0.00013,-0.00018,-0.00028,-0.00018,-4e-05,-0.00088,-0.00023,-0.00015,4,10
17302,7e-05,0.00016,0.00037,0.00087,0.00095,9e-05,0.0002,9e-05,4,10
17303,-0.00011,-0.00021,-0.00041,-0.00101,-0.00128,-0.00056,-0.00035,-0.00018,4,10
17304,-0.00011,-0.00021,-0.00041,-0.00101,-0.00128,-0.00056,-0.00035,-0.00018,4,10
17305,-0.00011,-0.00021,-0.00041,-0.00101,-0.00128,-0.00056,-0.00035,-0.00018,4,10
17306,-0.00011,-0.00021,-0.00041,-0.00101,-0.00128,-0.00056,-0.00035,-0.00018,4,10
17307,-0.00011,-0.00021,-0.00041,-0.00101,-0.00128,-0.00056,-0.00035,-0.00018,4,10
17308,-0.00011,-0.00021,-0.00041,-0.00101,-0.00128,-0.00056,-0.00035,-0.00018,4,10
17309,-0.00011,-0.00021,-0.00041,-0.00101,-0.00128,-0.00056,-0.00035,-0.00018,4,10
17310,-0.00011,-0.00021,-0.00041,-0.00101,-0.00128,-0.00056,-0.00035,-0.00018,4,10
17311,-0.00011,-0.00021,-0.00041,-0.00101,-0.00128,-0.00056,-0.00035,-0.00018,4,10
17312,-0.00011,-0.00021,-0.00041,-0.00101,-0.00128,-0.00056,-0.00035,-0.00018,4,10
17313,-0.00011,-0.00021,-0.00041,-0.00101,-0.00128,-0.00056,-0.00035,-0.00018,4,10
17314,-0.00011,-0.00021,-0.00041,-0.00101,-0.00128,-0.00056,-0.00035,-0.00018,4,10
17315,3e-05,7e-05,0.0002,0.0005,0.00052,6e-05,6e-05,6e-05,4,10
17316,3e-05,7e-05,0.0002,0.0005,0.00052,6e-05,6e-05,6e-05,4,10
17317,3e-05,7e-05,0.0002,0.0005,0.00052,6e-05,6e-05,6e-05,4,10
17318,3e-05,7e-05,0.0002,0.0005,0.00052,6e-05,6e-05,6e-05,4,10
17319,3e-05,7e-05,0.0002,0.0005,0.00052,6e-05,6e-05,6e-05,4,10
17320,3e-05,7e-05,0.0002,0.0005,0.00052,6e-05,6e-05,6e-05,4,10
17321,3e-05,7e-05,0.0002,0.0005,0.00052,6e-05,6e-05,6e-05,4,10
17322,3e-05,7e-05,0.0002,0.0005,0.00052,6e-05,6e-05,6e-05,4,10
17323,3e-05,7e-05,0.0002,0.0005,0.00052,6e-05,6e-05,6e-05,4,10
17324,5e-05,0.0001,0.00015,0.00014,0.00062,-0.00025,0.0002,7e-05,4,10
17325,5e-05,0.0001,0.00015,0.00014,0.00062,-0.00025,0.0002,7e-05,4,10
17326,5e-05,0.0001,0.00015,0.00014,0.00062,-0.00025,0.0002,7e-05,4,10
17327,5e-05,0.0001,0.00015,0.00014,0.00062,-0.00025,0.0002,7e-05,4,10
17328,5e-05,0.0001,0.00015,0.00014,0.00062,-0.00025,0.0002,7e-05,4,10
17329,5e-05,0.0001,0.00015,0.00014,0.00062,-0.00025,0.0002,7e-05,4,10
17330,5e-05,0.0001,0.00015,0.00014,0.00062,-0.00025,0.0002,7e-05,4,10
17331,5e-05,0.0001,0.00015,0.00014,0.00062,-0.00025,0.0002,7e-05,4,10
17332,5e-05,0.0001,0.00015,0.00014,0.00062,-0.00025,0.0002,7e-05,4,10
17333,5e-05,0.0001,0.00015,0.00014,0.00062,-0.00025,0.0002,7e-05,4,10
17334,5e-05,0.0001,0.00015,0.00014,0.00062,-0.00025,0.0002,7e-05,4,10
17335,5e-05,0.0001,0.00015,0.00014,0.00062,-0.00025,0.0002,7e-05,4,10
17336,5e-05,0.0001,0.00015,0.00014,0.00062,-0.00025,0.0002,7e-05,4,10
17339,-7e-05,-6e-05,-0.00012,-0.00024,-0.00039,-0.00073,-0.00014,-9e-05,4,10
17340,0.00014,0.00021,0.00035,0.00024,0.00052,0.00083,0.00018,0.00018,4,10
17341,-0.00013,-0.00017,-0.0002,-0.00038,0.00032,-0.0005,-0.00023,-0.00015,4,10
17342,-0.00013,-0.00017,-0.0002,-0.00038,0.00032,-0.0005,-0.00023,-0.00015,4,10
17343,-0.00013,-0.00017,-0.0002,-0.00038,0.00032,-0.0005,-0.00023,-0.00015,4,10
17344,-0.00013,-0.00017,-0.0002,-0.00038,0.00032,-0.0005,-0.00023,-0.00015,4,10
17345,-0.00013,-0.00017,-0.0002,-0.00038,0.00032,-0.0005,-0.00023,-0.00015,4,10
17346,-0.00013,-0.00017,-0.0002,-0.00038,0.00032,-0.0005,-0.00023,-0.00015,4,10
17347,-0.00013,-0.00017,-0.0002,-0.00038,0.00032,-0.0005,-0.00023,-0.00015,4,10
17348,-0.00013,-0.00017,-0.0002,-0.00038,0.00032,-0.0005,-0.00023,-0.00015,4,10
17349,-0.00013,-0.00017,-0.0002,-0.00038,0.00032,-0.0005,-0.00023,-0.00015,4,10
17350,-0.00013,-0.00017,-0.0002,-0.00038,0.00032,-0.0005,-0.00023,-0.00015,4,10
17351,-0.00013,-0.00017,-0.0002,-0.00038,0.00032,-0.0005,-0.00023,-0.00015,4,10
17352,-0.00013,-0.00017,-0.0002,-0.00038,0.00032,-0.0005,-0.00023,-0.00015,4,10
17353,-0.00013,-0.00017,-0.0002,-0.00038,0.00032,-0.0005,-0.00023,-0.00015,4,10
17354,-0.00013,-0.00017,-0.0002,-0.00038,0.00032,-0.0005,-0.00023,-0.00015,4,10
17355,-0.00013,-0.00017,-0.0002,-0.00038,0.00032,-0.0005,-0.00023,-0.00015,4,10
17356,-0.00013,-0.00017,-0.0002,-0.00038,0.00032,-0.0005,-0.00023,-0.00015,4,10
17357,-0.00013,-0.00017,-0.0002,-0.00038,0.00032,-0.0005,-0.00023,-0.00015,4,10
17358,-0.00013,-0.00017,-0.0002,-0.00038,0.00032,-0.0005,-0.00023,-0.00015,4,10
17359,-0.00013,-0.00017,-0.0002,-0.00038,0.00032,-0.0005,-0.00023,-0.00015,4,10
17360,-0.00013,-0.00017,-0.0002,-0.00038,0.00032,-0.0005,-0.00023,-0.00015,4,10
17361,1e-05,1e-05,0,-0.00036,-0.0007,-0.0006,-0.00011,-1e-05,4,10
17362,1e-05,1e-05,0,-0.00036,-0.0007,-0.0006,-0.00011,-1e-05,4,10
17363,-5e-05,-4e-05,-1e-05,-0.00035,-0.00093,-0.00056,-2e-05,0,4,10
17364,-5e-05,-4e-05,-1e-05,-0.00035,-0.00093,-0.00056,-2e-05,0,4,10
17365,-5e-05,-4e-05,-1e-05,-0.00035,-0.00093,-0.00056,-2e-05,0,4,10
17366,-5e-05,-4e-05,-1e-05,-0.00035,-0.00093,-0.00056,-2e-05,0,4,10
17367,-5e-05,-4e-05,-1e-05,-0.00035,-0.00093,-0.00056,-2e-05,0,4,10
17368,-5e-05,-4e-05,-1e-05,-0.00035,-0.00093,-0.00056,-2e-05,0,4,10
17369,-5e-05,-4e-05,-1e-05,-0.00035,-0.00093,-0.00056,-2e-05,0,4,10
17370,-5e-05,-4e-05,-1e-05,-0.00035,-0.00093,-0.00056,-2e-05,0,4,10
17371,-5e-05,-4e-05,-1e-05,-0.00035,-0.00093,-0.00056,-2e-05,0,4,10
17372,-5e-05,-4e-05,-1e-05,-0.00035,-0.00093,-0.00056,-2e-05,0,4,10
17373,-5e-05,-4e-05,-1e-05,-0.00035,-0.00093,-0.00056,-2e-05,0,4,10
17374,-5e-05,-4e-05,-1e-05,-0.00035,-0.00093,-0.00056,-2e-05,0,4,10
17375,3e-05,2e-05,-0.0001,-0.00058,0.00017,0.00031,-0.00014,-4e-05,4,10
17377,3e-05,2e-05,-0.0001,-0.00058,0.00017,0.00031,-0.00014,-4e-05,4,10
17378,3e-05,2e-05,-0.0001,-0.00058,0.00017,0.00031,-0.00014,-4e-05,4,10
17379,3e-05,2e-05,-0.0001,-0.00058,0.00017,0.00031,-0.00014,-4e-05,4,10
17380,3e-05,2e-05,-0.0001,-0.00058,0.00017,0.00031,-0.00014,-4e-05,4,10
17381,3e-05,2e-05,-0.0001,-0.00058,0.00017,0.00031,-0.00014,-4e-05,4,10
17382,3e-05,2e-05,-0.0001,-0.00058,0.00017,0.00031,-0.00014,-4e-05,4,10
17383,3e-05,2e-05,-0.0001,-0.00058,0.00017,0.00031,-0.00014,-4e-05,4,10
17384,3e-05,2e-05,-0.0001,-0.00058,0.00017,0.00031,-0.00014,-4e-05,4,10
17385,3e-05,2e-05,-0.0001,-0.00058,0.00017,0.00031,-0.00014,-4e-05,4,10
17386,3e-05,2e-05,-0.0001,-0.00058,0.00017,0.00031,-0.00014,-4e-05,4,10
17389,3e-05,2e-05,-0.0001,-0.00058,0.00017,0.00031,-0.00014,-4e-05,4,10
17390,3e-05,2e-05,-0.0001,-0.00058,0.00017,0.00031,-0.00014,-4e-05,4,10
17391,3e-05,2e-05,-0.0001,-0.00058,0.00017,0.00031,-0.00014,-4e-05,4,10
17392,3e-05,2e-05,-0.0001,-0.00058,0.00017,0.00031,-0.00014,-4e-05,4,10
17393,3e-05,2e-05,-0.0001,-0.00058,0.00017,0.00031,-0.00014,-4e-05,4,10
17394,3e-05,2e-05,-0.0001,-0.00058,0.00017,0.00031,-0.00014,-4e-05,4,10
17395,3e-05,2e-05,-0.0001,-0.00058,0.00017,0.00031,-0.00014,-4e-05,4,10
17396,3e-05,2e-05,-0.0001,-0.00058,0.00017,0.00031,-0.00014,-4e-05,4,10
17397,3e-05,2e-05,-0.0001,-0.00058,0.00017,0.00031,-0.00014,-4e-05,4,10
17398,3e-05,2e-05,-0.0001,-0.00058,0.00017,0.00031,-0.00014,-4e-05,4,10
17399,3e-05,2e-05,-0.0001,-0.00058,0.00017,0.00031,-0.00014,-4e-05,4,10
17400,3e-05,2e-05,-0.0001,-0.00058,0.00017,0.00031,-0.00014,-4e-05,4,10
17401,0.00014,0.00031,0.00057,0.00107,0.00017,0.00046,0.00029,0.0002,4,10
17402,-8e-05,-0.00011,-0.00018,-3e-05,-0.0004,-4e-05,-0.00011,-8e-05,4,10
17403,-8e-05,-0.00011,-0.00018,-3e-05,-0.0004,-4e-05,-0.00011,-8e-05,4,10
17404,-8e-05,-0.00011,-0.00018,-3e-05,-0.0004,-4e-05,-0.00011,-8e-05,4,10
17405,-3e-05,-6e-05,-6e-05,-0.00012,0.00027,6e-05,-0.00018,-3e-05,4,10
17406,-3e-05,-6e-05,-6e-05,-0.00012,0.00027,6e-05,-0.00018,-3e-05,4,10
17407,-3e-05,-6e-05,-6e-05,-0.00012,0.00027,6e-05,-0.00018,-3e-05,4,10
17408,-3e-05,-6e-05,-6e-05,-0.00012,0.00027,6e-05,-0.00018,-3e-05,4,10
17409,-3e-05,-6e-05,-6e-05,-0.00012,0.00027,6e-05,-0.00018,-3e-05,4,10
17410,-3e-05,-6e-05,-6e-05,-0.00012,0.00027,6e-05,-0.00018,-3e-05,4,10
17411,-3e-05,-6e-05,-6e-05,-0.00012,0.00027,6e-05,-0.00018,-3e-05,4,10
17413,-3e-05,-6e-05,-6e-05,-0.00012,0.00027,6e-05,-0.00018,-3e-05,4,10
17414,-3e-05,-6e-05,-6e-05,-0.00012,0.00027,6e-05,-0.00018,-3e-05,4,10
17415,-3e-05,-6e-05,-6e-05,-0.00012,0.00027,6e-05,-0.00018,-3e-05,4,10
17416,-3e-05,-6e-05,-6e-05,-0.00012,0.00027,6e-05,-0.00018,-3e-05,4,10
17417,-3e-05,-6e-05,-6e-05,-0.00012,0.00027,6e-05,-0.00018,-3e-05,4,10
17418,-3e-05,-6e-05,-6e-05,-0.00012,0.00027,6e-05,-0.00018,-3e-05,4,10
17419,-3e-05,-6e-05,-6e-05,-0.00012,0.00027,6e-05,-0.00018,-3e-05,4,10
17420,-3e-05,-6e-05,-6e-05,-0.00012,0.00027,6e-05,-0.00018,-3e-05,4,10
17421,3e-05,3e-05,0.0001,0.00062,0.00088,0.00049,7e-05,3e-05,4,10
17422,-5e-05,-8e-05,-0.00013,-0.00033,-0.00092,-0.00062,-0.00017,-8e-05,4,10
17423,-8e-05,-0.00013,-0.00014,-0.00037,-0.00085,-6e-05,-0.00018,-0.0001,4,10
17424,-8e-05,-0.00013,-0.00014,-0.00037,-0.00085,-6e-05,-0.00018,-0.0001,4,10
17425,-8e-05,-0.00013,-0.00014,-0.00037,-0.00085,-6e-05,-0.00018,-0.0001,4,10
17426,-8e-05,-0.00013,-0.00014,-0.00037,-0.00085,-6e-05,-0.00018,-0.0001,4,10
17427,-8e-05,-0.00013,-0.00014,-0.00037,-0.00085,-6e-05,-0.00018,-0.0001,4,10
17428,-8e-05,-0.00013,-0.00014,-0.00037,-0.00085,-6e-05,-0.00018,-0.0001,4,10
17429,-8e-05,-0.00013,-0.00014,-0.00037,-0.00085,-6e-05,-0.00018,-0.0001,4,10
17430,-8e-05,-0.00013,-0.00014,-0.00037,-0.00085,-6e-05,-0.00018,-0.0001,4,10
17431,-8e-05,-0.00013,-0.00014,-0.00037,-0.00085,-6e-05,-0.00018,-0.0001,4,10
17432,-8e-05,-0.00013,-0.00014,-0.00037,-0.00085,-6e-05,-0.00018,-0.0001,4,10
17433,-8e-05,-0.00013,-0.00014,-0.00037,-0.00085,-6e-05,-0.00018,-0.0001,4,10
17434,-8e-05,-0.00013,-0.00014,-0.00037,-0.00085,-6e-05,-0.00018,-0.0001,4,10
17435,-3e-05,-5e-05,-7e-05,-0.0005,-0.00019,-0.00033,-3e-05,-1e-05,4,10
17436,-2e-05,-8e-05,-9e-05,0.00087,-0.00015,0.00013,0.0001,-3e-05,4,10
17439,-2e-05,-8e-05,-9e-05,0.00087,-0.00015,0.00013,0.0001,-3e-05,4,10
17440,-2e-05,-8e-05,-9e-05,0.00087,-0.00015,0.00013,0.0001,-3e-05,4,10
17441,-2e-05,-8e-05,-9e-05,0.00087,-0.00015,0.00013,0.0001,-3e-05,4,10
17442,-2e-05,-8e-05,-9e-05,0.00087,-0.00015,0.00013,0.0001,-3e-05,4,10
17443,-2e-05,-8e-05,-9e-05,0.00087,-0.00015,0.00013,0.0001,-3e-05,4,10
17444,5e-05,5e-05,6e-05,-0.00031,9e-05,0.00068,0.00031,7e-05,4,10
17445,6e-05,0.00014,0.00022,0.0002,0.00041,0.00021,0.0002,4e-05,4,10
17446,6e-05,0.00014,0.00022,0.0002,0.00041,0.00021,0.0002,4e-05,4,10
17447,6e-05,0.00014,0.00022,0.0002,0.00041,0.00021,0.0002,4e-05,4,10
17448,6e-05,0.00014,0.00022,0.0002,0.00041,0.00021,0.0002,4e-05,4,10
17449,6e-05,0.00014,0.00022,0.0002,0.00041,0.00021,0.0002,4e-05,4,10
17450,6e-05,0.00014,0.00022,0.0002,0.00041,0.00021,0.0002,4e-05,4,10
17451,6e-05,0.00014,0.00022,0.0002,0.00041,0.00021,0.0002,4e-05,4,10
17452,6e-05,0.00014,0.00022,0.0002,0.00041,0.00021,0.0002,4e-05,4,10
17453,6e-05,0.00014,0.00022,0.0002,0.00041,0.00021,0.0002,4e-05,4,10
17454,6e-05,0.00014,0.00022,0.0002,0.00041,0.00021,0.0002,4e-05,4,10
17455,6e-05,0.00014,0.00022,0.0002,0.00041,0.00021,0.0002,4e-05,4,10
17456,6e-05,0.00014,0.00022,0.0002,0.00041,0.00021,0.0002,4e-05,4,10
17457,6e-05,0.00014,0.00022,0.0002,0.00041,0.00021,0.0002,4e-05,4,10
17458,6e-05,0.00014,0.00022,0.0002,0.00041,0.00021,0.0002,4e-05,4,10
17459,6e-05,0.00014,0.00022,0.0002,0.00041,0.00021,0.0002,4e-05,4,10
17460,-9e-05,-0.0001,-5e-05,0.00036,-9e-05,-0.00023,-0.00012,-9e-05,4,10
17461,-2e-05,-8e-05,-6e-05,-0.00013,-0.00089,-0.00022,-1e-05,-4e-05,4,10
17462,-2e-05,-8e-05,-6e-05,-0.00013,-0.00089,-0.00022,-1e-05,-4e-05,4,10
17463,-2e-05,-8e-05,-6e-05,-0.00013,-0.00089,-0.00022,-1e-05,-4e-05,4,10
17464,-2e-05,-8e-05,-6e-05,-0.00013,-0.00089,-0.00022,-1e-05,-4e-05,4,10
17465,-2e-05,-8e-05,-6e-05,-0.00013,-0.00089,-0.00022,-1e-05,-4e-05,4,10
17466,-2e-05,-8e-05,-6e-05,-0.00013,-0.00089,-0.00022,-1e-05,-4e-05,4,10
17467,-2e-05,-8e-05,-6e-05,-0.00013,-0.00089,-0.00022,-1e-05,-4e-05,4,10
17468,-2e-05,-8e-05,-6e-05,-0.00013,-0.00089,-0.00022,-1e-05,-4e-05,4,10
17469,-2e-05,-8e-05,-6e-05,-0.00013,-0.00089,-0.00022,-1e-05,-4e-05,4,10
17470,-2e-05,-8e-05,-6e-05,-0.00013,-0.00089,-0.00022,-1e-05,-4e-05,4,10
17471,-2e-05,-8e-05,-6e-05,-0.00013,-0.00089,-0.00022,-1e-05,-4e-05,4,10
17472,-2e-05,-8e-05,-6e-05,-0.00013,-0.00089,-0.00022,-1e-05,-4e-05,4,10
17473,-2e-05,-8e-05,-6e-05,-0.00013,-0.00089,-0.00022,-1e-05,-4e-05,4,10
17474,-2e-05,-8e-05,-6e-05,-0.00013,-0.00089,-0.00022,-1e-05,-4e-05,4,10
17475,-2e-05,-8e-05,-6e-05,-0.00013,-0.00089,-0.00022,-1e-05,-4e-05,4,10
17476,-2e-05,-8e-05,-6e-05,-0.00013,-0.00089,-0.00022,-1e-05,-4e-05,4,10
17477,-2e-05,-8e-05,-6e-05,-0.00013,-0.00089,-0.00022,-1e-05,-4e-05,4,10
17478,-2e-05,-8e-05,-6e-05,-0.00013,-0.00089,-0.00022,-1e-05,-4e-05,4,10
17479,-2e-05,-8e-05,-6e-05,-0.00013,-0.00089,-0.00022,-1e-05,-4e-05,4,10
17480,-2e-05,-8e-05,-6e-05,-0.00013,-0.00089,-0.00022,-1e-05,-4e-05,4,10
17481,-0.0001,-0.00015,-0.00022,-0.00069,-0.00057,-0.0004,-0.0001,-0.0001,4,10
17482,-0.0001,-0.00015,-0.00022,-0.00069,-0.00057,-0.0004,-0.0001,-0.0001,4,10
17483,8e-05,0.00011,0.00017,-0.00015,-0.00011,0.00017,8e-05,5e-05,4,10
17484,8e-05,0.00011,0.00017,-0.00015,-0.00011,0.00017,8e-05,5e-05,4,10
17485,8e-05,0.00011,0.00017,-0.00015,-0.00011,0.00017,8e-05,5e-05,4,10
17486,8e-05,0.00011,0.00017,-0.00015,-0.00011,0.00017,8e-05,5e-05,4,10
17489,8e-05,0.00011,0.00017,-0.00015,-0.00011,0.00017,8e-05,5e-05,4,10
17490,8e-05,0.00011,0.00017,-0.00015,-0.00011,0.00017,8e-05,5e-05,4,10
17491,8e-05,0.00011,0.00017,-0.00015,-0.00011,0.00017,8e-05,5e-05,4,10
17492,8e-05,0.00011,0.00017,-0.00015,-0.00011,0.00017,8e-05,5e-05,4,10
17493,8e-05,0.00011,0.00017,-0.00015,-0.00011,0.00017,8e-05,5e-05,4,10
17494,8e-05,0.00011,0.00017,-0.00015,-0.00011,0.00017,8e-05,5e-05,4,10
17495,-8e-05,-9e-05,-0.00017,0.00065,0.00018,-0.00072,-5e-05,-6e-05,4,10
17496,1e-05,1e-05,-5e-05,-0.00061,-0.00074,9e-05,-3e-05,2e-05,4,10
17497,1e-05,1e-05,-5e-05,-0.00061,-0.00074,9e-05,-3e-05,2e-05,4,10
17498,1e-05,1e-05,-5e-05,-0.00061,-0.00074,9e-05,-3e-05,2e-05,4,10
17499,1e-05,1e-05,-5e-05,-0.00061,-0.00074,9e-05,-3e-05,2e-05,4,10
17500,1e-05,1e-05,-5e-05,-0.00061,-0.00074,9e-05,-3e-05,2e-05,4,10
17501,1e-05,1e-05,-5e-05,-0.00061,-0.00074,9e-05,-3e-05,2e-05,4,10
17502,1e-05,1e-05,-5e-05,-0.00061,-0.00074,9e-05,-3e-05,2e-05,4,10
17503,1e-05,1e-05,-5e-05,-0.00061,-0.00074,9e-05,-3e-05,2e-05,4,10
17504,1e-05,1e-05,-5e-05,-0.00061,-0.00074,9e-05,-3e-05,2e-05,4,10
17505,1e-05,1e-05,-5e-05,-0.00061,-0.00074,9e-05,-3e-05,2e-05,4,10
17506,1e-05,1e-05,-5e-05,-0.00061,-0.00074,9e-05,-3e-05,2e-05,4,10
17507,1e-05,1e-05,-5e-05,-0.00061,-0.00074,9e-05,-3e-05,2e-05,4,10
17508,1e-05,1e-05,-5e-05,-0.00061,-0.00074,9e-05,-3e-05,2e-05,4,10
17509,1e-05,1e-05,-5e-05,-0.00061,-0.00074,9e-05,-3e-05,2e-05,4,10
17510,1e-05,1e-05,-5e-05,-0.00061,-0.00074,9e-05,-3e-05,2e-05,4,10
17511,1e-05,1e-05,-5e-05,-0.00061,-0.00074,9e-05,-3e-05,2e-05,4,10
17512,-1e-05,2e-05,3e-05,-6e-05,-0.001,-0.0004,-0.00015,-6e-05,4,10
17513,-1e-05,2e-05,3e-05,-6e-05,-0.001,-0.0004,-0.00015,-6e-05,4,10
17514,-1e-05,2e-05,3e-05,-6e-05,-0.001,-0.0004,-0.00015,-6e-05,4,10
17515,-1e-05,2e-05,3e-05,-6e-05,-0.001,-0.0004,-0.00015,-6e-05,4,10
17516,-1e-05,2e-05,3e-05,-6e-05,-0.001,-0.0004,-0.00015,-6e-05,4,10
17517,-1e-05,2e-05,3e-05,-6e-05,-0.001,-0.0004,-0.00015,-6e-05,4,10
17518,-1e-05,2e-05,3e-05,-6e-05,-0.001,-0.0004,-0.00015,-6e-05,4,10
17519,0.0001,0.00017,0.0004,0.00123,0.00127,-0.00018,0.00022,0.00015,4,10
17520,-1e-05,1e-05,8e-05,-0.00022,-0.00011,-0.00014,-8e-05,-2e-05,4,10
17521,-0.00011,-0.00024,-0.00039,-0.00028,0.00015,-9e-05,-0.00014,-0.00012,4,10
17522,-0.00011,-0.00024,-0.00039,-0.00028,0.00015,-9e-05,-0.00014,-0.00012,4,10
17523,-0.00011,-0.00024,-0.00039,-0.00028,0.00015,-9e-05,-0.00014,-0.00012,4,10
17524,-0.00011,-0.00024,-0.00039,-0.00028,0.00015,-9e-05,-0.00014,-0.00012,4,10
17525,-0.00011,-0.00024,-0.00039,-0.00028,0.00015,-9e-05,-0.00014,-0.00012,4,10
17526,-0.00011,-0.00024,-0.00039,-0.00028,0.00015,-9e-05,-0.00014,-0.00012,4,10
17527,-0.00011,-0.00024,-0.00039,-0.00028,0.00015,-9e-05,-0.00014,-0.00012,4,10
17528,-0.00011,-0.00024,-0.00039,-0.00028,0.00015,-9e-05,-0.00014,-0.00012,4,10
17529,-0.00011,-0.00024,-0.00039,-0.00028,0.00015,-9e-05,-0.00014,-0.00012,4,10
17530,-0.00011,-0.00024,-0.00039,-0.00028,0.00015,-9e-05,-0.00014,-0.00012,4,10
17531,-0.00011,-0.00024,-0.00039,-0.00028,0.00015,-9e-05,-0.00014,-0.00012,4,10
17532,-0.00011,-0.00024,-0.00039,-0.00028,0.00015,-9e-05,-0.00014,-0.00012,4,10
17533,-0.00011,-0.00024,-0.00039,-0.00028,0.00015,-9e-05,-0.00014,-0.00012,4,10
17534,-0.00011,-0.00024,-0.00039,-0.00028,0.00015,-9e-05,-0.00014,-0.00012,4,10
17535,-0.00011,-0.00024,-0.00039,-0.00028,0.00015,-9e-05,-0.00014,-0.00012,4,10
17536,-0.00011,-0.00024,-0.00039,-0.00028,0.00015,-9e-05,-0.00014,-0.00012,4,10
17539,-0.00011,-0.00024,-0.00039,-0.00028,0.00015,-9e-05,-0.00014,-0.00012,4,10
17540,-0.00011,-0.00024,-0.00039,-0.00028,0.00015,-9e-05,-0.00014,-0.00012,4,10
17541,-0.00011,-0.00024,-0.00039,-0.00028,0.00015,-9e-05,-0.00014,-0.00012,4,10
17542,-0.00011,-0.00024,-0.00039,-0.00028,0.00015,-9e-05,-0.00014,-0.00012,4,10
17543,-0.00011,-0.00024,-0.00039,-0.00028,0.00015,-9e-05,-0.00014,-0.00012,4,10
17544,-0.00011,-0.00024,-0.00039,-0.00028,0.00015,-9e-05,-0.00014,-0.00012,4,10
17545,-0.00011,-0.00024,-0.00039,-0.00028,0.00015,-9e-05,-0.00014,-0.00012,4,10
17546,-0.00011,-0.00024,-0.00039,-0.00028,0.00015,-9e-05,-0.00014,-0.00012,4,10
17547,-0.00011,-0.00024,-0.00039,-0.00028,0.00015,-9e-05,-0.00014,-0.00012,4,10
17548,-0.00011,-0.00024,-0.00039,-0.00028,0.00015,-9e-05,-0.00014,-0.00012,4,10
17549,-0.00011,-0.00024,-0.00039,-0.00028,0.00015,-9e-05,-0.00014,-0.00012,4,10
17550,-0.00011,-0.00024,-0.00039,-0.00028,0.00015,-9e-05,-0.00014,-0.00012,4,10
17551,-0.00011,-0.00024,-0.00039,-0.00028,0.00015,-9e-05,-0.00014,-0.00012,4,10
17552,-0.00011,-0.00024,-0.00039,-0.00028,0.00015,-9e-05,-0.00014,-0.00012,4,10
17553,-0.00011,-0.00024,-0.00039,-0.00028,0.00015,-9e-05,-0.00014,-0.00012,4,10
17554,-0.00011,-0.00024,-0.00039,-0.00028,0.00015,-9e-05,-0.00014,-0.00012,4,10
17555,-0.00011,-0.00024,-0.00039,-0.00028,0.00015,-9e-05,-0.00014,-0.00012,4,10
17556,-0.00011,-0.00024,-0.00039,-0.00028,0.00015,-9e-05,-0.00014,-0.00012,4,10
17557,-3e-05,-1e-05,-2e-05,-0.00122,-0.00032,-9e-05,-0.00013,-7e-05,4,10
17558,-3e-05,-1e-05,-2e-05,-0.00122,-0.00032,-9e-05,-0.00013,-7e-05,4,10
17559,1e-05,1e-05,4e-05,0.00028,0.00078,0.00016,0.00027,7e-05,4,10
17560,1e-05,1e-05,4e-05,0.00028,0.00078,0.00016,0.00027,7e-05,4,10
17561,1e-05,1e-05,4e-05,0.00028,0.00078,0.00016,0.00027,7e-05,4,10
17562,1e-05,1e-05,4e-05,0.00028,0.00078,0.00016,0.00027,7e-05,4,10
17563,-7e-05,-0.00014,-0.00029,-0.00071,-0.00106,0.00077,-5e-05,-9e-05,4,10
17565,-7e-05,-0.0001,-0.00018,-0.00069,-0.00128,-0.00103,-0.00032,-0.00012,4,10
17566,0.00013,0.0002,0.00034,-7e-05,0.00017,0.00093,0.00027,0.00015,4,10
17567,0.00013,0.0002,0.00034,-7e-05,0.00017,0.00093,0.00027,0.00015,4,10
17568,0.00013,0.0002,0.00034,-7e-05,0.00017,0.00093,0.00027,0.00015,4,10
17569,0.00013,0.0002,0.00034,-7e-05,0.00017,0.00093,0.00027,0.00015,4,10
17570,0.00013,0.0002,0.00034,-7e-05,0.00017,0.00093,0.00027,0.00015,4,10
17571,0.00013,0.0002,0.00034,-7e-05,0.00017,0.00093,0.00027,0.00015,4,10
17572,0.00013,0.0002,0.00034,-7e-05,0.00017,0.00093,0.00027,0.00015,4,10
17573,0.00013,0.0002,0.00034,-7e-05,0.00017,0.00093,0.00027,0.00015,4,10
17574,0.00013,0.0002,0.00034,-7e-05,0.00017,0.00093,0.00027,0.00015,4,10
17575,0.00013,0.0002,0.00034,-7e-05,0.00017,0.00093,0.00027,0.00015,4,10
17576,0.00013,0.0002,0.00034,-7e-05,0.00017,0.00093,0.00027,0.00015,4,10
17577,0.00013,0.0002,0.00034,-7e-05,0.00017,0.00093,0.00027,0.00015,4,10
17578,0.00013,0.0002,0.00034,-7e-05,0.00017,0.00093,0.00027,0.00015,4,10
17579,-9e-05,-9e-05,-0.00013,-0.0007,-0.00101,-0.00059,-0.00013,-6e-05,4,10
17580,-9e-05,-9e-05,-0.00013,-0.0007,-0.00101,-0.00059,-0.00013,-6e-05,4,10
17581,-0.00013,-0.00018,-0.00028,0.00026,0.00058,-0.00058,-0.00023,-9e-05,4,10
17582,-0.00013,-0.00018,-0.00028,0.00026,0.00058,-0.00058,-0.00023,-9e-05,4,10
17583,-0.00013,-0.00018,-0.00028,0.00026,0.00058,-0.00058,-0.00023,-9e-05,4,10
17584,-0.00013,-0.00018,-0.00028,0.00026,0.00058,-0.00058,-0.00023,-9e-05,4,10
17585,-0.00013,-0.00018,-0.00028,0.00026,0.00058,-0.00058,-0.00023,-9e-05,4,10
17586,-0.00013,-0.00018,-0.00028,0.00026,0.00058,-0.00058,-0.00023,-9e-05,4,10
17589,-0.00013,-0.00018,-0.00028,0.00026,0.00058,-0.00058,-0.00023,-9e-05,4,10
17590,-0.00013,-0.00018,-0.00028,0.00026,0.00058,-0.00058,-0.00023,-9e-05,4,10
17591,-0.00013,-0.00018,-0.00028,0.00026,0.00058,-0.00058,-0.00023,-9e-05,4,10
17592,-0.00013,-0.00018,-0.00028,0.00026,0.00058,-0.00058,-0.00023,-9e-05,4,10
17593,-0.00013,-0.00018,-0.00028,0.00026,0.00058,-0.00058,-0.00023,-9e-05,4,10
17594,-0.00013,-0.00018,-0.00028,0.00026,0.00058,-0.00058,-0.00023,-9e-05,4,10
17595,-0.00013,-0.00018,-0.00028,0.00026,0.00058,-0.00058,-0.00023,-9e-05,4,10
17596,-0.00013,-0.00018,-0.00028,0.00026,0.00058,-0.00058,-0.00023,-9e-05,4,10
17597,-0.00013,-0.00018,-0.00028,0.00026,0.00058,-0.00058,-0.00023,-9e-05,4,10
17598,-0.00013,-0.00018,-0.00028,0.00026,0.00058,-0.00058,-0.00023,-9e-05,4,10
17599,-0.00013,-0.00018,-0.00028,0.00026,0.00058,-0.00058,-0.00023,-9e-05,4,10
17600,-0.00013,-0.00018,-0.00028,0.00026,0.00058,-0.00058,-0.00023,-9e-05,4,10
17601,3e-05,2e-05,0,-7e-05,0.0008,0.00101,0.00026,-1e-05,4,10
17602,9e-05,0.00014,0.00021,0.00032,0.00025,0.00026,3e-05,9e-05,4,10
17603,7e-05,5e-05,-6e-05,0.00033,-0.00011,-0.00029,3e-05,5e-05,4,10
17604,7e-05,5e-05,-6e-05,0.00033,-0.00011,-0.00029,3e-05,5e-05,4,10
17605,7e-05,5e-05,-6e-05,0.00033,-0.00011,-0.00029,3e-05,5e-05,4,10
17606,7e-05,5e-05,-6e-05,0.00033,-0.00011,-0.00029,3e-05,5e-05,4,10
17607,7e-05,5e-05,-6e-05,0.00033,-0.00011,-0.00029,3e-05,5e-05,4,10
17608,7e-05,5e-05,-6e-05,0.00033,-0.00011,-0.00029,3e-05,5e-05,4,10
17609,7e-05,5e-05,-6e-05,0.00033,-0.00011,-0.00029,3e-05,5e-05,4,10
17610,7e-05,5e-05,-6e-05,0.00033,-0.00011,-0.00029,3e-05,5e-05,4,10
17611,7e-05,5e-05,-6e-05,0.00033,-0.00011,-0.00029,3e-05,5e-05,4,10
17612,7e-05,5e-05,-6e-05,0.00033,-0.00011,-0.00029,3e-05,5e-05,4,10
17613,7e-05,5e-05,-6e-05,0.00033,-0.00011,-0.00029,3e-05,5e-05,4,10
17614,7e-05,5e-05,-6e-05,0.00033,-0.00011,-0.00029,3e-05,5e-05,4,10
17615,-4e-05,-0.00014,-0.00039,-0.00075,-3e-05,-0.00012,-1e-05,-7e-05,4,10
17616,-4e-05,-0.00014,-0.00039,-0.00075,-3e-05,-0.00012,-1e-05,-7e-05,4,10
17617,-4e-05,-0.00014,-0.00039,-0.00075,-3e-05,-0.00012,-1e-05,-7e-05,4,10
17618,-4e-05,-0.00014,-0.00039,-0.00075,-3e-05,-0.00012,-1e-05,-7e-05,4,10
17619,-4e-05,-0.00014,-0.00039,-0.00075,-3e-05,-0.00012,-1e-05,-7e-05,4,10
17620,-4e-05,-0.00014,-0.00039,-0.00075,-3e-05,-0.00012,-1e-05,-7e-05,4,10
17621,-4e-05,-0.00014,-0.00039,-0.00075,-3e-05,-0.00012,-1e-05,-7e-05,4,10
17622,-4e-05,-0.00014,-0.00039,-0.00075,-3e-05,-0.00012,-1e-05,-7e-05,4,10
17623,-4e-05,-0.00014,-0.00039,-0.00075,-3e-05,-0.00012,-1e-05,-7e-05,4,10
17624,5e-05,7e-05,0.00025,0.00024,0.00035,0.00033,0.00013,5e-05,4,10
17625,-6e-05,-0.00012,-0.00026,0.00044,0.0005,0.00077,3e-05,-5e-05,4,10
17626,-6e-05,-0.00012,-0.00026,0.00044,0.0005,0.00077,3e-05,-5e-05,4,10
17627,-6e-05,-0.00012,-0.00026,0.00044,0.0005,0.00077,3e-05,-5e-05,4,10
17628,-6e-05,-0.00012,-0.00026,0.00044,0.0005,0.00077,3e-05,-5e-05,4,10
17629,-6e-05,-0.00012,-0.00026,0.00044,0.0005,0.00077,3e-05,-5e-05,4,10
17630,-6e-05,-0.00012,-0.00026,0.00044,0.0005,0.00077,3e-05,-5e-05,4,10
17631,-6e-05,-0.00012,-0.00026,0.00044,0.0005,0.00077,3e-05,-5e-05,4,10
17632,-6e-05,-0.00012,-0.00026,0.00044,0.0005,0.00077,3e-05,-5e-05,4,10
17633,-6e-05,-0.00012,-0.00026,0.00044,0.0005,0.00077,3e-05,-5e-05,4,10
17634,-6e-05,-0.00012,-0.00026,0.00044,0.0005,0.00077,3e-05,-5e-05,4,10
17635,-6e-05,-0.00012,-0.00026,0.00044,0.0005,0.00077,3e-05,-5e-05,4,10
17636,-6e-05,-0.00012,-0.00026,0.00044,0.0005,0.00077,3e-05,-5e-05,4,10
17639,-2e-05,-3e-05,-3e-05,-0.00027,-0.00121,-0.00059,-0.0001,-3e-05,4,10
17640,3e-05,0.0001,0.00013,8e-05,0.0004,0.0003,8e-05,3e-05,4,10
17641,-9e-05,-0.00013,-0.00014,-0.00082,-0.00128,-0.0005,-0.0002,-0.00012,4,10
17642,-9e-05,-0.00013,-0.00014,-0.00082,-0.00128,-0.0005,-0.0002,-0.00012,4,10
17643,-9e-05,-0.00013,-0.00014,-0.00082,-0.00128,-0.0005,-0.0002,-0.00012,4,10
17644,-9e-05,-0.00013,-0.00014,-0.00082,-0.00128,-0.0005,-0.0002,-0.00012,4,10
17645,-9e-05,-0.00013,-0.00014,-0.00082,-0.00128,-0.0005,-0.0002,-0.00012,4,10
17646,-9e-05,-0.00013,-0.00014,-0.00082,-0.00128,-0.0005,-0.0002,-0.00012,4,10
17647,-9e-05,-0.00013,-0.00014,-0.00082,-0.00128,-0.0005,-0.0002,-0.00012,4,10
17648,-9e-05,-0.00013,-0.00014,-0.00082,-0.00128,-0.0005,-0.0002,-0.00012,4,10
17649,-9e-05,-0.00013,-0.00014,-0.00082,-0.00128,-0.0005,-0.0002,-0.00012,4,10
17650,-9e-05,-0.00013,-0.00014,-0.00082,-0.00128,-0.0005,-0.0002,-0.00012,4,10
17651,-9e-05,-0.00013,-0.00014,-0.00082,-0.00128,-0.0005,-0.0002,-0.00012,4,10
17652,-9e-05,-0.00013,-0.00014,-0.00082,-0.00128,-0.0005,-0.0002,-0.00012,4,10
17653,-9e-05,-0.00013,-0.00014,-0.00082,-0.00128,-0.0005,-0.0002,-0.00012,4,10
17654,-9e-05,-0.00013,-0.00014,-0.00082,-0.00128,-0.0005,-0.0002,-0.00012,4,10
17655,-9e-05,-0.00013,-0.00014,-0.00082,-0.00128,-0.0005,-0.0002,-0.00012,4,10
17656,-9e-05,-0.00013,-0.00014,-0.00082,-0.00128,-0.0005,-0.0002,-0.00012,4,10
17657,-9e-05,-0.00013,-0.00014,-0.00082,-0.00128,-0.0005,-0.0002,-0.00012,4,10
17658,-9e-05,-0.00013,-0.00014,-0.00082,-0.00128,-0.0005,-0.0002,-0.00012,4,10
17659,-9e-05,-0.00013,-0.00014,-0.00082,-0.00128,-0.0005,-0.0002,-0.00012,4,10
17660,-9e-05,-0.00013,-0.00014,-0.00082,-0.00128,-0.0005,-0.0002,-0.00012,4,10
17661,7e-05,4e-05,-8e-05,0.00081,0.00111,0.00094,0.00021,9e-05,4,10
17662,-2e-05,4e-05,0.00016,-0.00065,-0.00054,0.00032,-6e-05,2e-05,4,10
17663,-6e-05,-9e-05,-0.00019,8e-05,-0.00075,-0.00023,-3e-05,-6e-05,4,10
17664,-4e-05,-6e-05,5e-05,7e-05,-0.00011,-0.0001,-8e-05,-2e-05,4,10
17665,-4e-05,-6e-05,5e-05,7e-05,-0.00011,-0.0001,-8e-05,-2e-05,4,10
17666,-4e-05,-6e-05,5e-05,7e-05,-0.00011,-0.0001,-8e-05,-2e-05,4,10
17667,-4e-05,-6e-05,5e-05,7e-05,-0.00011,-0.0001,-8e-05,-2e-05,4,10
17668,-4e-05,-6e-05,5e-05,7e-05,-0.00011,-0.0001,-8e-05,-2e-05,4,10
17669,-4e-05,-6e-05,5e-05,7e-05,-0.00011,-0.0001,-8e-05,-2e-05,4,10
17670,-4e-05,-6e-05,5e-05,7e-05,-0.00011,-0.0001,-8e-05,-2e-05,4,10
17671,-4e-05,-6e-05,5e-05,7e-05,-0.00011,-0.0001,-8e-05,-2e-05,4,10
17672,-4e-05,-6e-05,5e-05,7e-05,-0.00011,-0.0001,-8e-05,-2e-05,4,10
17673,-4e-05,-6e-05,5e-05,7e-05,-0.00011,-0.0001,-8e-05,-2e-05,4,10
17674,-4e-05,-6e-05,5e-05,7e-05,-0.00011,-0.0001,-8e-05,-2e-05,4,10
17675,-4e-05,-6e-05,5e-05,7e-05,-0.00011,-0.0001,-8e-05,-2e-05,4,10
17676,-4e-05,-6e-05,5e-05,7e-05,-0.00011,-0.0001,-8e-05,-2e-05,4,10
17677,-4e-05,-6e-05,5e-05,7e-05,-0.00011,-0.0001,-8e-05,-2e-05,4,10
17678,-4e-05,-6e-05,5e-05,7e-05,-0.00011,-0.0001,-8e-05,-2e-05,4,10
17679,-4e-05,-6e-05,5e-05,7e-05,-0.00011,-0.0001,-8e-05,-2e-05,4,10
17680,-4e-05,-6e-05,5e-05,7e-05,-0.00011,-0.0001,-8e-05,-2e-05,4,10
17681,-4e-05,-6e-05,5e-05,7e-05,-0.00011,-0.0001,-8e-05,-2e-05,4,10
17682,-4e-05,-6e-05,5e-05,7e-05,-0.00011,-0.0001,-8e-05,-2e-05,4,10
17683,-4e-05,-6e-05,5e-05,7e-05,-0.00011,-0.0001,-8e-05,-2e-05,4,10
17684,-6e-05,-9e-05,-7e-05,0.0003,-0.00124,0,-0.00017,-9e-05,4,10
17685,2e-05,4e-05,5e-05,-0.00077,9e-05,0.00023,7e-05,5e-05,4,10
17686,-0.0001,-0.00018,-0.00024,0.00068,0.0006,-0.00019,-0.00017,-0.00012,4,10
17689,-0.0001,-0.00018,-0.00024,0.00068,0.0006,-0.00019,-0.00017,-0.00012,4,10
17690,-0.0001,-0.00018,-0.00024,0.00068,0.0006,-0.00019,-0.00017,-0.00012,4,10
17691,-0.0001,-0.00018,-0.00024,0.00068,0.0006,-0.00019,-0.00017,-0.00012,4,10
17692,-0.0001,-0.00018,-0.00024,0.00068,0.0006,-0.00019,-0.00017,-0.00012,4,10
17693,-0.0001,-0.00018,-0.00024,0.00068,0.0006,-0.00019,-0.00017,-0.00012,4,10
17694,-0.0001,-0.00018,-0.00024,0.00068,0.0006,-0.00019,-0.00017,-0.00012,4,10
17695,-0.0001,-0.00018,-0.00024,0.00068,0.0006,-0.00019,-0.00017,-0.00012,4,10
17696,-0.0001,-0.00018,-0.00024,0.00068,0.0006,-0.00019,-0.00017,-0.00012,4,10
17697,-0.0001,-0.00018,-0.00024,0.00068,0.0006,-0.00019,-0.00017,-0.00012,4,10
17698,-0.0001,-0.00018,-0.00024,0.00068,0.0006,-0.00019,-0.00017,-0.00012,4,10
17699,-8e-05,-0.00014,-0.00023,-0.00032,0.0003,-0.00067,-0.00022,-0.00011,4,10
17700,4e-05,7e-05,0.00018,0.00081,0.00072,0.00036,0.00016,5e-05,4,10
17701,-6e-05,-3e-05,-8e-05,-0.0011,-0.00125,-0.0005,-0.00019,-8e-05,4,10
17702,-6e-05,-3e-05,-8e-05,-0.0011,-0.00125,-0.0005,-0.00019,-8e-05,4,10
17703,-6e-05,-3e-05,-8e-05,-0.0011,-0.00125,-0.0005,-0.00019,-8e-05,4,10
17704,-6e-05,-3e-05,-8e-05,-0.0011,-0.00125,-0.0005,-0.00019,-8e-05,4,10
17705,-6e-05,-3e-05,-8e-05,-0.0011,-0.00125,-0.0005,-0.00019,-8e-05,4,10
17706,-6e-05,-3e-05,-8e-05,-0.0011,-0.00125,-0.0005,-0.00019,-8e-05,4,10
17707,-6e-05,-3e-05,-8e-05,-0.0011,-0.00125,-0.0005,-0.00019,-8e-05,4,10
17708,-6e-05,-3e-05,-8e-05,-0.0011,-0.00125,-0.0005,-0.00019,-8e-05,4,10
17709,-6e-05,-3e-05,-8e-05,-0.0011,-0.00125,-0.0005,-0.00019,-8e-05,4,10
17710,-6e-05,-3e-05,-8e-05,-0.0011,-0.00125,-0.0005,-0.00019,-8e-05,4,10
17711,-6e-05,-3e-05,-8e-05,-0.0011,-0.00125,-0.0005,-0.00019,-8e-05,4,10
17712,-6e-05,-3e-05,-8e-05,-0.0011,-0.00125,-0.0005,-0.00019,-8e-05,4,10
17713,-6e-05,-3e-05,-8e-05,-0.0011,-0.00125,-0.0005,-0.00019,-8e-05,4,10
17714,-6e-05,-3e-05,-8e-05,-0.0011,-0.00125,-0.0005,-0.00019,-8e-05,4,10
17715,-6e-05,-3e-05,-8e-05,-0.0011,-0.00125,-0.0005,-0.00019,-8e-05,4,10
17716,-6e-05,-3e-05,-8e-05,-0.0011,-0.00125,-0.0005,-0.00019,-8e-05,4,10
17717,-6e-05,-3e-05,-8e-05,-0.0011,-0.00125,-0.0005,-0.00019,-8e-05,4,10
17718,-6e-05,-3e-05,-8e-05,-0.0011,-0.00125,-0.0005,-0.00019,-8e-05,4,10
17719,-6e-05,-3e-05,-8e-05,-0.0011,-0.00125,-0.0005,-0.00019,-8e-05,4,10
17720,-6e-05,-3e-05,-8e-05,-0.0011,-0.00125,-0.0005,-0.00019,-8e-05,4,10
17721,-6e-05,-7e-05,-0.00016,-0.00013,4e-05,0.0001,-5e-05,-0.00011,4,10
17722,-6e-05,-7e-05,-0.00016,-0.00013,4e-05,0.0001,-5e-05,-0.00011,4,10
17723,-1e-05,0,2e-05,-0.00036,-0.00026,2e-05,-3e-05,-4e-05,4,10
17724,-1e-05,0,2e-05,-0.00036,-0.00026,2e-05,-3e-05,-4e-05,4,10
17725,-1e-05,0,2e-05,-0.00036,-0.00026,2e-05,-3e-05,-4e-05,4,10
17726,-1e-05,0,2e-05,-0.00036,-0.00026,2e-05,-3e-05,-4e-05,4,10
17730,-1e-05,0,2e-05,-0.00036,-0.00026,2e-05,-3e-05,-4e-05,4,10
17735,-1e-05,0,2e-05,-0.00036,-0.00026,2e-05,-3e-05,-4e-05,4,10
17736,-1e-05,0,2e-05,-0.00036,-0.00026,2e-05,-3e-05,-4e-05,4,10
17738,-1e-05,0,2e-05,-0.00036,-0.00026,2e-05,-3e-05,-4e-05,4,10
17739,-1e-05,0,2e-05,-0.00036,-0.00026,2e-05,-3e-05,-4e-05,4,10
17740,-1e-05,0,2e-05,-0.00036,-0.00026,2e-05,-3e-05,-4e-05,4,10
17741,-1e-05,0,2e-05,-0.00036,-0.00026,2e-05,-3e-05,-4e-05,4,10
17742,-1e-05,0,2e-05,-0.00036,-0.00026,2e-05,-3e-05,-4e-05,4,10
17743,-1e-05,0,2e-05,-0.00036,-0.00026,2e-05,-3e-05,-4e-05,4,10
17744,-1e-05,0,2e-05,-0.00036,-0.00026,2e-05,-3e-05,-4e-05,4,10
17745,-1e-05,0,2e-05,-0.00036,-0.00026,2e-05,-3e-05,-4e-05,4,10
17746,-1e-05,0,2e-05,-0.00036,-0.00026,2e-05,-3e-05,-4e-05,4,10
17747,-1e-05,0,2e-05,-0.00036,-0.00026,2e-05,-3e-05,-4e-05,4,10
17749,-1e-05,0,2e-05,-0.00036,-0.00026,2e-05,-3e-05,-4e-05,4,10
17750,-1e-05,0,2e-05,-0.00036,-0.00026,2e-05,-3e-05,-4e-05,4,10
17751,-2e-05,-0.0001,-0.00018,-0.00061,-0.00024,0.00036,5e-05,-3e-05,4,10
17752,-2e-05,-0.0001,-0.00018,-0.00061,-0.00024,0.00036,5e-05,-3e-05,4,10
17753,-3e-05,3e-05,6e-05,-3e-05,0.0005,-3e-05,9e-05,1e-05,4,10
17754,-3e-05,3e-05,6e-05,-3e-05,0.0005,-3e-05,9e-05,1e-05,4,10
17755,-3e-05,3e-05,6e-05,-3e-05,0.0005,-3e-05,9e-05,1e-05,4,10
17756,-3e-05,3e-05,6e-05,-3e-05,0.0005,-3e-05,9e-05,1e-05,4,10
17757,-3e-05,3e-05,6e-05,-3e-05,0.0005,-3e-05,9e-05,1e-05,4,10
17758,-8e-05,-0.00013,-9e-05,-0.00045,-0.0007,-0.00032,-0.0002,-0.0001,4,10
17759,5e-05,4e-05,1e-05,0.0003,0.00062,0.00071,0.00017,0.0001,4,10
17760,1e-05,3e-05,-1e-05,0.00064,0.00059,-0.00028,2e-05,2e-05,4,10
17761,1e-05,3e-05,-1e-05,0.00064,0.00059,-0.00028,2e-05,2e-05,4,10
17762,1e-05,3e-05,-1e-05,0.00064,0.00059,-0.00028,2e-05,2e-05,4,10
17763,1e-05,3e-05,-1e-05,0.00064,0.00059,-0.00028,2e-05,2e-05,4,10
17764,1e-05,3e-05,-1e-05,0.00064,0.00059,-0.00028,2e-05,2e-05,4,10
17765,1e-05,3e-05,-1e-05,0.00064,0.00059,-0.00028,2e-05,2e-05,4,10
17766,1e-05,3e-05,-1e-05,0.00064,0.00059,-0.00028,2e-05,2e-05,4,10
17767,1e-05,3e-05,-1e-05,0.00064,0.00059,-0.00028,2e-05,2e-05,4,10
17768,1e-05,3e-05,-1e-05,0.00064,0.00059,-0.00028,2e-05,2e-05,4,10
17769,1e-05,3e-05,-1e-05,0.00064,0.00059,-0.00028,2e-05,2e-05,4,10
17770,1e-05,3e-05,-1e-05,0.00064,0.00059,-0.00028,2e-05,2e-05,4,10
17771,1e-05,3e-05,-1e-05,0.00064,0.00059,-0.00028,2e-05,2e-05,4,10
17772,1e-05,3e-05,-1e-05,0.00064,0.00059,-0.00028,2e-05,2e-05,4,10
17773,1e-05,3e-05,-1e-05,0.00064,0.00059,-0.00028,2e-05,2e-05,4,10
17774,1e-05,3e-05,-1e-05,0.00064,0.00059,-0.00028,2e-05,2e-05,4,10
17775,1e-05,3e-05,-1e-05,0.00064,0.00059,-0.00028,2e-05,2e-05,4,10
17776,1e-05,3e-05,-1e-05,0.00064,0.00059,-0.00028,2e-05,2e-05,4,10
17777,1e-05,3e-05,-1e-05,0.00064,0.00059,-0.00028,2e-05,2e-05,4,10
17778,1e-05,3e-05,-1e-05,0.00064,0.00059,-0.00028,2e-05,2e-05,4,10
17779,1e-05,3e-05,-1e-05,0.00064,0.00059,-0.00028,2e-05,2e-05,4,10
17780,1e-05,3e-05,-1e-05,0.00064,0.00059,-0.00028,2e-05,2e-05,4,10
17781,2e-05,5e-05,8e-05,0.00027,-3e-05,0.00034,-2e-05,-1e-05,4,10
17782,-5e-05,-5e-05,2e-05,-0.0005,0.00019,-0.0011,6e-05,-1e-05,4,10
17783,-5e-05,-5e-05,2e-05,-0.0005,0.00019,-0.0011,6e-05,-1e-05,4,10
17784,-5e-05,-5e-05,2e-05,-0.0005,0.00019,-0.0011,6e-05,-1e-05,4,10
17785,-5e-05,-5e-05,2e-05,-0.0005,0.00019,-0.0011,6e-05,-1e-05,4,10
17786,-5e-05,-5e-05,2e-05,-0.0005,0.00019,-0.0011,6e-05,-1e-05,4,10
17788,5e-05,3e-05,-2e-05,-0.00017,-0.00023,0.00043,4e-05,3e-05,4,10
17789,5e-05,3e-05,-2e-05,-0.00017,-0.00023,0.00043,4e-05,3e-05,4,10
17790,5e-05,3e-05,-2e-05,-0.00017,-0.00023,0.00043,4e-05,3e-05,4,10
17791,5e-05,3e-05,-2e-05,-0.00017,-0.00023,0.00043,4e-05,3e-05,4,10
17792,5e-05,3e-05,-2e-05,-0.00017,-0.00023,0.00043,4e-05,3e-05,4,10
17793,5e-05,3e-05,-2e-05,-0.00017,-0.00023,0.00043,4e-05,3e-05,4,10
17794,5e-05,3e-05,-2e-05,-0.00017,-0.00023,0.00043,4e-05,3e-05,4,10
17795,5e-05,3e-05,-2e-05,-0.00017,-0.00023,0.00043,4e-05,3e-05,4,10
17796,5e-05,3e-05,-2e-05,-0.00017,-0.00023,0.00043,4e-05,3e-05,4,10
17797,5e-05,3e-05,-2e-05,-0.00017,-0.00023,0.00043,4e-05,3e-05,4,10
17798,5e-05,3e-05,-2e-05,-0.00017,-0.00023,0.00043,4e-05,3e-05,4,10
17799,5e-05,3e-05,-2e-05,-0.00017,-0.00023,0.00043,4e-05,3e-05,4,10
17800,5e-05,3e-05,-2e-05,-0.00017,-0.00023,0.00043,4e-05,3e-05,4,10
17801,5e-05,3e-05,-2e-05,-0.00017,-0.00023,0.00043,4e-05,3e-05,4,10
17802,5e-05,3e-05,-2e-05,-0.00017,-0.00023,0.00043,4e-05,3e-05,4,10
17803,5e-05,3e-05,-2e-05,-0.00017,-0.00023,0.00043,4e-05,3e-05,4,10
17804,0,6e-05,0.00014,0.00022,-0.00127,0.00028,-0.0001,0,4,10
17805,0.00015,0.00024,0.00052,0.00071,0.00048,0.0007,0.00053,0.00022,4,10
17806,0.00015,0.00024,0.00052,0.00071,0.00048,0.0007,0.00053,0.00022,4,10
17807,0.00015,0.00024,0.00052,0.00071,0.00048,0.0007,0.00053,0.00022,4,10
17808,0.00015,0.00024,0.00052,0.00071,0.00048,0.0007,0.00053,0.00022,4,10
17809,0.00015,0.00024,0.00052,0.00071,0.00048,0.0007,0.00053,0.00022,4,10
17810,0.00015,0.00024,0.00052,0.00071,0.00048,0.0007,0.00053,0.00022,4,10
17811,0.00015,0.00024,0.00052,0.00071,0.00048,0.0007,0.00053,0.00022,4,10
17812,0.00015,0.00024,0.00052,0.00071,0.00048,0.0007,0.00053,0.00022,4,10
17813,0.00015,0.00024,0.00052,0.00071,0.00048,0.0007,0.00053,0.00022,4,10
17814,0.00015,0.00024,0.00052,0.00071,0.00048,0.0007,0.00053,0.00022,4,10
17815,0.00015,0.00024,0.00052,0.00071,0.00048,0.0007,0.00053,0.00022,4,10
17816,0.00015,0.00024,0.00052,0.00071,0.00048,0.0007,0.00053,0.00022,4,10
17817,0.00015,0.00024,0.00052,0.00071,0.00048,0.0007,0.00053,0.00022,4,10
17818,0.00015,0.00024,0.00052,0.00071,0.00048,0.0007,0.00053,0.00022,4,10
17819,-5e-05,-0.00011,-0.00023,-0.00022,-0.00082,0.0002,-4e-05,-2e-05,4,10
17820,-5e-05,-0.00011,-0.00023,-0.00022,-0.00082,0.0002,-4e-05,-2e-05,4,10
17821,-5e-05,-0.00011,-0.00023,-0.00022,-0.00082,0.0002,-4e-05,-2e-05,4,10
17822,-5e-05,-0.00011,-0.00023,-0.00022,-0.00082,0.0002,-4e-05,-2e-05,4,10
17823,-5e-05,-0.00011,-0.00023,-0.00022,-0.00082,0.0002,-4e-05,-2e-05,4,10
17824,-5e-05,-0.00011,-0.00023,-0.00022,-0.00082,0.0002,-4e-05,-2e-05,4,10
17825,-5e-05,-0.00011,-0.00023,-0.00022,-0.00082,0.0002,-4e-05,-2e-05,4,10
17826,-5e-05,-0.00011,-0.00023,-0.00022,-0.00082,0.0002,-4e-05,-2e-05,4,10
17827,-5e-05,-0.00011,-0.00023,-0.00022,-0.00082,0.0002,-4e-05,-2e-05,4,10
17828,-5e-05,-0.00011,-0.00023,-0.00022,-0.00082,0.0002,-4e-05,-2e-05,4,10
17829,-5e-05,-0.00011,-0.00023,-0.00022,-0.00082,0.0002,-4e-05,-2e-05,4,10
17830,-5e-05,-0.00011,-0.00023,-0.00022,-0.00082,0.0002,-4e-05,-2e-05,4,10
17831,-5e-05,-0.00011,-0.00023,-0.00022,-0.00082,0.0002,-4e-05,-2e-05,4,10
17832,-3e-05,1e-05,0.00013,-0.0002,-0.00024,0.00018,-5e-05,-4e-05,4,10
17833,-3e-05,1e-05,0.00013,-0.0002,-0.00024,0.00018,-5e-05,-4e-05,4,10
17834,-3e-05,1e-05,0.00013,-0.0002,-0.00024,0.00018,-5e-05,-4e-05,4,10
17835,-3e-05,1e-05,0.00013,-0.0002,-0.00024,0.00018,-5e-05,-4e-05,4,10
17836,-3e-05,1e-05,0.00013,-0.0002,-0.00024,0.00018,-5e-05,-4e-05,4,10
17838,-3e-05,1e-05,0.00013,-0.0002,-0.00024,0.00018,-5e-05,-4e-05,4,10
17839,-3e-05,1e-05,0.00013,-0.0002,-0.00024,0.00018,-5e-05,-4e-05,4,10
17840,-3e-05,1e-05,0.00013,-0.0002,-0.00024,0.00018,-5e-05,-4e-05,4,10
17841,1e-05,-3e-05,-0.00013,0.00044,0.00063,-2e-05,-2e-05,0,4,10
17842,1e-05,-3e-05,-0.00013,0.00044,0.00063,-2e-05,-2e-05,0,4,10
17843,5e-05,0.00014,0.00012,1e-05,-0.00023,-0.00027,-3e-05,5e-05,4,10
17844,5e-05,0.00014,0.00012,1e-05,-0.00023,-0.00027,-3e-05,5e-05,4,10
17845,5e-05,0.00014,0.00012,1e-05,-0.00023,-0.00027,-3e-05,5e-05,4,10
17846,5e-05,0.00014,0.00012,1e-05,-0.00023,-0.00027,-3e-05,5e-05,4,10
17847,5e-05,0.00014,0.00012,1e-05,-0.00023,-0.00027,-3e-05,5e-05,4,10
17848,5e-05,0.00014,0.00012,1e-05,-0.00023,-0.00027,-3e-05,5e-05,4,10
17849,5e-05,0.00014,0.00012,1e-05,-0.00023,-0.00027,-3e-05,5e-05,4,10
17850,5e-05,0.00014,0.00012,1e-05,-0.00023,-0.00027,-3e-05,5e-05,4,10
17851,5e-05,0.00014,0.00012,1e-05,-0.00023,-0.00027,-3e-05,5e-05,4,10
17852,5e-05,0.00014,0.00012,1e-05,-0.00023,-0.00027,-3e-05,5e-05,4,10
17853,5e-05,0.00014,0.00012,1e-05,-0.00023,-0.00027,-3e-05,5e-05,4,10
17854,5e-05,0.00014,0.00012,1e-05,-0.00023,-0.00027,-3e-05,5e-05,4,10
17855,5e-05,0.00014,0.00012,1e-05,-0.00023,-0.00027,-3e-05,5e-05,4,10
17856,5e-05,0.00014,0.00012,1e-05,-0.00023,-0.00027,-3e-05,5e-05,4,10
17857,5e-05,0.00014,0.00012,1e-05,-0.00023,-0.00027,-3e-05,5e-05,4,10
17858,5e-05,0.00014,0.00012,1e-05,-0.00023,-0.00027,-3e-05,5e-05,4,10
17859,5e-05,0.00014,0.00012,1e-05,-0.00023,-0.00027,-3e-05,5e-05,4,10
17860,5e-05,0.00014,0.00012,1e-05,-0.00023,-0.00027,-3e-05,5e-05,4,10
17861,5e-05,0.00014,0.00012,1e-05,-0.00023,-0.00027,-3e-05,5e-05,4,10
17862,5e-05,0.00014,0.00012,1e-05,-0.00023,-0.00027,-3e-05,5e-05,4,10
17863,5e-05,0.00014,0.00012,1e-05,-0.00023,-0.00027,-3e-05,5e-05,4,10
17864,-1e-05,2e-05,7e-05,-0.00025,-0.00095,0.00012,3e-05,1e-05,4,10
17865,-1e-05,2e-05,7e-05,-0.00025,-0.00095,0.00012,3e-05,1e-05,4,10
17866,-1e-05,2e-05,7e-05,-0.00025,-0.00095,0.00012,3e-05,1e-05,4,10
17867,-1e-05,2e-05,7e-05,-0.00025,-0.00095,0.00012,3e-05,1e-05,4,10
17868,-1e-05,2e-05,7e-05,-0.00025,-0.00095,0.00012,3e-05,1e-05,4,10
17869,-1e-05,2e-05,7e-05,-0.00025,-0.00095,0.00012,3e-05,1e-05,4,10
17870,-1e-05,2e-05,7e-05,-0.00025,-0.00095,0.00012,3e-05,1e-05,4,10
17871,-5e-05,-6e-05,-0.00013,-0.00036,-0.0008,-0.00059,-9e-05,-4e-05,4,10
17872,-5e-05,-6e-05,-0.00013,-0.00036,-0.0008,-0.00059,-9e-05,-4e-05,4,10
17873,-5e-05,-6e-05,-0.00013,-0.00036,-0.0008,-0.00059,-9e-05,-4e-05,4,10
17874,-5e-05,-6e-05,-0.00013,-0.00036,-0.0008,-0.00059,-9e-05,-4e-05,4,10
17875,-5e-05,-6e-05,-0.00013,-0.00036,-0.0008,-0.00059,-9e-05,-4e-05,4,10
17876,-5e-05,-6e-05,-0.00013,-0.00036,-0.0008,-0.00059,-9e-05,-4e-05,4,10
17877,-5e-05,-6e-05,-0.00013,-0.00036,-0.0008,-0.00059,-9e-05,-4e-05,4,10
17878,-1e-05,0,5e-05,0,-0.00068,0.00015,-0.0001,-2e-05,4,10
17879,-1e-05,0,5e-05,0,-0.00068,0.00015,-0.0001,-2e-05,4,10
17880,-1e-05,0,5e-05,0,-0.00068,0.00015,-0.0001,-2e-05,4,10
17881,-1e-05,0,5e-05,0,-0.00068,0.00015,-0.0001,-2e-05,4,10
17882,-1e-05,0,5e-05,0,-0.00068,0.00015,-0.0001,-2e-05,4,10
17883,-1e-05,0,5e-05,0,-0.00068,0.00015,-0.0001,-2e-05,4,10
17884,-1e-05,0,5e-05,0,-0.00068,0.00015,-0.0001,-2e-05,4,10
17885,5e-05,9e-05,0.00017,0.0005,0.00034,0.00015,2e-05,1e-05,4,10
17886,5e-05,9e-05,0.00017,0.0005,0.00034,0.00015,2e-05,1e-05,4,10
17888,5e-05,9e-05,0.00017,0.0005,0.00034,0.00015,2e-05,1e-05,4,10
17889,5e-05,9e-05,0.00017,0.0005,0.00034,0.00015,2e-05,1e-05,4,10
17890,5e-05,9e-05,0.00017,0.0005,0.00034,0.00015,2e-05,1e-05,4,10
17891,5e-05,9e-05,0.00017,0.0005,0.00034,0.00015,2e-05,1e-05,4,10
17892,5e-05,9e-05,0.00017,0.0005,0.00034,0.00015,2e-05,1e-05,4,10
17893,5e-05,9e-05,0.00017,0.0005,0.00034,0.00015,2e-05,1e-05,4,10
17894,5e-05,9e-05,0.00017,0.0005,0.00034,0.00015,2e-05,1e-05,4,10
17895,5e-05,9e-05,0.00017,0.0005,0.00034,0.00015,2e-05,1e-05,4,10
17896,5e-05,9e-05,0.00017,0.0005,0.00034,0.00015,2e-05,1e-05,4,10
17897,5e-05,9e-05,0.00017,0.0005,0.00034,0.00015,2e-05,1e-05,4,10
17898,5e-05,9e-05,0.00017,0.0005,0.00034,0.00015,2e-05,1e-05,4,10
17899,5e-05,9e-05,0.00017,0.0005,0.00034,0.00015,2e-05,1e-05,4,10
17900,5e-05,9e-05,0.00017,0.0005,0.00034,0.00015,2e-05,1e-05,4,10
17901,5e-05,9e-05,0.00017,0.0005,0.00034,0.00015,2e-05,1e-05,4,10
17902,5e-05,9e-05,0.00017,0.0005,0.00034,0.00015,2e-05,1e-05,4,10
17903,5e-05,9e-05,0.00017,0.0005,0.00034,0.00015,2e-05,1e-05,4,10
17904,5e-05,9e-05,0.00017,0.0005,0.00034,0.00015,2e-05,1e-05,4,10
17905,5e-05,9e-05,0.00017,0.0005,0.00034,0.00015,2e-05,1e-05,4,10
17906,5e-05,9e-05,0.00017,0.0005,0.00034,0.00015,2e-05,1e-05,4,10
17907,5e-05,9e-05,0.00017,0.0005,0.00034,0.00015,2e-05,1e-05,4,10
17908,5e-05,9e-05,0.00017,0.0005,0.00034,0.00015,2e-05,1e-05,4,10
17909,-3e-05,4e-05,7e-05,-0.00046,-0.00096,-0.00035,-4e-05,-2e-05,4,10
17910,-1e-05,0,7e-05,-0.00083,-0.00068,-0.00059,-0.00011,-1e-05,4,10
17911,-1e-05,0,7e-05,-0.00083,-0.00068,-0.00059,-0.00011,-1e-05,4,10
17912,-1e-05,0,7e-05,-0.00083,-0.00068,-0.00059,-0.00011,-1e-05,4,10
17913,-1e-05,0,7e-05,-0.00083,-0.00068,-0.00059,-0.00011,-1e-05,4,10
17914,-1e-05,0,7e-05,-0.00083,-0.00068,-0.00059,-0.00011,-1e-05,4,10
17915,-1e-05,0,7e-05,-0.00083,-0.00068,-0.00059,-0.00011,-1e-05,4,10
17916,-1e-05,0,7e-05,-0.00083,-0.00068,-0.00059,-0.00011,-1e-05,4,10
17917,-1e-05,0,7e-05,-0.00083,-0.00068,-0.00059,-0.00011,-1e-05,4,10
17918,-1e-05,0,7e-05,-0.00083,-0.00068,-0.00059,-0.00011,-1e-05,4,10
17919,-1e-05,0,7e-05,-0.00083,-0.00068,-0.00059,-0.00011,-1e-05,4,10
17920,-1e-05,0,7e-05,-0.00083,-0.00068,-0.00059,-0.00011,-1e-05,4,10
17921,-1e-05,0,7e-05,-0.00083,-0.00068,-0.00059,-0.00011,-1e-05,4,10
17922,-1e-05,0,7e-05,-0.00083,-0.00068,-0.00059,-0.00011,-1e-05,4,10
17923,-1e-05,0,7e-05,-0.00083,-0.00068,-0.00059,-0.00011,-1e-05,4,10
17924,0,-7e-05,-0.00021,2e-05,0.00081,0.00067,8e-05,1e-05,4,10
17925,-7e-05,-0.00011,-0.00028,-0.00029,-0.00063,8e-05,-9e-05,-7e-05,4,10
17926,-7e-05,-0.00011,-0.00028,-0.00029,-0.00063,8e-05,-9e-05,-7e-05,4,10
17927,-7e-05,-0.00011,-0.00028,-0.00029,-0.00063,8e-05,-9e-05,-7e-05,4,10
17928,-7e-05,-0.00011,-0.00028,-0.00029,-0.00063,8e-05,-9e-05,-7e-05,4,10
17929,-7e-05,-0.00011,-0.00028,-0.00029,-0.00063,8e-05,-9e-05,-7e-05,4,10
17930,-7e-05,-0.00011,-0.00028,-0.00029,-0.00063,8e-05,-9e-05,-7e-05,4,10
17931,-7e-05,-0.00011,-0.00028,-0.00029,-0.00063,8e-05,-9e-05,-7e-05,4,10
17932,-7e-05,-0.00011,-0.00028,-0.00029,-0.00063,8e-05,-9e-05,-7e-05,4,10
17933,-7e-05,-0.00011,-0.00028,-0.00029,-0.00063,8e-05,-9e-05,-7e-05,4,10
17934,-7e-05,-0.00011,-0.00028,-0.00029,-0.00063,8e-05,-9e-05,-7e-05,4,10
17935,-7e-05,-0.00011,-0.00028,-0.00029,-0.00063,8e-05,-9e-05,-7e-05,4,10
17936,-7e-05,-0.00011,-0.00028,-0.00029,-0.00063,8e-05,-9e-05,-7e-05,4,10
17938,-7e-05,-0.00011,-0.00028,-0.00029,-0.00063,8e-05,-9e-05,-7e-05,4,10
17939,-7e-05,-0.00011,-0.00028,-0.00029,-0.00063,8e-05,-9e-05,-7e-05,4,10
17940,-7e-05,-0.00011,-0.00028,-0.00029,-0.00063,8e-05,-9e-05,-7e-05,4,10
17941,-7e-05,-0.00011,-0.00028,-0.00029,-0.00063,8e-05,-9e-05,-7e-05,4,10
17942,-7e-05,-0.00011,-0.00028,-0.00029,-0.00063,8e-05,-9e-05,-7e-05,4,10
17943,-7e-05,-0.00011,-0.00028,-0.00029,-0.00063,8e-05,-9e-05,-7e-05,4,10
17944,-7e-05,-0.00011,-0.00028,-0.00029,-0.00063,8e-05,-9e-05,-7e-05,4,10
17945,-7e-05,-0.00011,-0.00028,-0.00029,-0.00063,8e-05,-9e-05,-7e-05,4,10
17946,-4e-05,-3e-05,-3e-05,-0.00022,-0.00057,-0.00061,-8e-05,-8e-05,4,10
17947,-4e-05,-3e-05,-3e-05,-0.00022,-0.00057,-0.00061,-8e-05,-8e-05,4,10
17948,1e-05,-5e-05,-1e-05,0.00033,0.00085,0.00043,3e-05,-2e-05,4,10
17949,1e-05,-5e-05,-1e-05,0.00033,0.00085,0.00043,3e-05,-2e-05,4,10
17950,1e-05,-5e-05,-1e-05,0.00033,0.00085,0.00043,3e-05,-2e-05,4,10
17951,1e-05,-5e-05,-1e-05,0.00033,0.00085,0.00043,3e-05,-2e-05,4,10
17952,1e-05,-5e-05,-1e-05,0.00033,0.00085,0.00043,3e-05,-2e-05,4,10
17953,1e-05,-5e-05,-1e-05,0.00033,0.00085,0.00043,3e-05,-2e-05,4,10
17954,1e-05,-5e-05,-1e-05,0.00033,0.00085,0.00043,3e-05,-2e-05,4,10
17955,1e-05,-5e-05,-1e-05,0.00033,0.00085,0.00043,3e-05,-2e-05,4,10
17956,1e-05,-5e-05,-1e-05,0.00033,0.00085,0.00043,3e-05,-2e-05,4,10
17957,1e-05,-5e-05,-1e-05,0.00033,0.00085,0.00043,3e-05,-2e-05,4,10
17958,1e-05,-5e-05,-1e-05,0.00033,0.00085,0.00043,3e-05,-2e-05,4,10
17959,1e-05,-5e-05,-1e-05,0.00033,0.00085,0.00043,3e-05,-2e-05,4,10
17960,1e-05,-5e-05,-1e-05,0.00033,0.00085,0.00043,3e-05,-2e-05,4,10
17961,1e-05,-1e-05,-1e-05,0.00047,0.00127,8e-05,-0.0001,-1e-05,4,10
17962,1e-05,-1e-05,-1e-05,0.00047,0.00127,8e-05,-0.0001,-1e-05,4,10
17963,-5e-05,-6e-05,-9e-05,-0.00044,-0.00115,-0.00039,-0.00014,-7e-05,4,10
17964,-5e-05,-6e-05,-9e-05,-0.00044,-0.00115,-0.00039,-0.00014,-7e-05,4,10
17965,-5e-05,-6e-05,-9e-05,-0.00044,-0.00115,-0.00039,-0.00014,-7e-05,4,10
17966,-5e-05,-6e-05,-9e-05,-0.00044,-0.00115,-0.00039,-0.00014,-7e-05,4,10
17967,-5e-05,-6e-05,-9e-05,-0.00044,-0.00115,-0.00039,-0.00014,-7e-05,4,10
17968,-5e-05,-6e-05,-9e-05,-0.00044,-0.00115,-0.00039,-0.00014,-7e-05,4,10
17969,-5e-05,-6e-05,-9e-05,-0.00044,-0.00115,-0.00039,-0.00014,-7e-05,4,10
17970,-5e-05,-6e-05,-9e-05,-0.00044,-0.00115,-0.00039,-0.00014,-7e-05,4,10
17971,-5e-05,-6e-05,-9e-05,-0.00044,-0.00115,-0.00039,-0.00014,-7e-05,4,10
17972,-5e-05,-6e-05,-9e-05,-0.00044,-0.00115,-0.00039,-0.00014,-7e-05,4,10
17973,-5e-05,-6e-05,-9e-05,-0.00044,-0.00115,-0.00039,-0.00014,-7e-05,4,10
17974,-5e-05,-6e-05,-9e-05,-0.00044,-0.00115,-0.00039,-0.00014,-7e-05,4,10
17975,-5e-05,-6e-05,-9e-05,-0.00044,-0.00115,-0.00039,-0.00014,-7e-05,4,10
17976,-5e-05,-6e-05,-9e-05,-0.00044,-0.00115,-0.00039,-0.00014,-7e-05,4,10
17977,-5e-05,-6e-05,-9e-05,-0.00044,-0.00115,-0.00039,-0.00014,-7e-05,4,10
17978,-5e-05,-6e-05,-9e-05,-0.00044,-0.00115,-0.00039,-0.00014,-7e-05,4,10
17979,-5e-05,-6e-05,-9e-05,-0.00044,-0.00115,-0.00039,-0.00014,-7e-05,4,10
17980,-5e-05,-6e-05,-9e-05,-0.00044,-0.00115,-0.00039,-0.00014,-7e-05,4,10
17981,-5e-05,-6e-05,-9e-05,-0.00044,-0.00115,-0.00039,-0.00014,-7e-05,4,10
17982,-5e-05,-6e-05,-9e-05,-0.00044,-0.00115,-0.00039,-0.00014,-7e-05,4,10
17983,-5e-05,-6e-05,-9e-05,-0.00044,-0.00115,-0.00039,-0.00014,-7e-05,4,10
17984,-5e-05,-6e-05,-9e-05,-0.00044,-0.00115,-0.00039,-0.00014,-7e-05,4,10
17985,-5e-05,-6e-05,-9e-05,-0.00044,-0.00115,-0.00039,-0.00014,-7e-05,4,10
17986,-5e-05,-6e-05,-9e-05,-0.00044,-0.00115,-0.00039,-0.00014,-7e-05,4,10
17989,-5e-05,-6e-05,-9e-05,-0.00044,-0.00115,-0.00039,-0.00014,-7e-05,4,10
17990,-5e-05,-6e-05,-9e-05,-0.00044,-0.00115,-0.00039,-0.00014,-7e-05,4,10
17991,3e-05,6e-05,0.00016,0.00081,0.0008,-0.00051,-3e-05,0,4,10
17992,-2e-05,-7e-05,-0.00019,5e-05,-0.00046,1e-05,-6e-05,-3e-05,4,10
17993,0,-5e-05,-0.00019,-0.00062,0.0001,0.00054,0.00018,2e-05,4,10
17994,0,-5e-05,-0.00019,-0.00062,0.0001,0.00054,0.00018,2e-05,4,10
17995,0,-5e-05,-0.00019,-0.00062,0.0001,0.00054,0.00018,2e-05,4,10
17996,0,-5e-05,-0.00019,-0.00062,0.0001,0.00054,0.00018,2e-05,4,10
17997,0,-5e-05,-0.00019,-0.00062,0.0001,0.00054,0.00018,2e-05,4,10
17998,4e-05,6e-05,0.00011,4e-05,-0.00034,-0.00037,-7e-05,2e-05,4,10
17999,4e-05,6e-05,0.00011,4e-05,-0.00034,-0.00037,-7e-05,2e-05,4,10
18000,4e-05,6e-05,0.00011,4e-05,-0.00034,-0.00037,-7e-05,2e-05,4,10
18001,4e-05,6e-05,0.00011,4e-05,-0.00034,-0.00037,-7e-05,2e-05,4,10
18002,4e-05,6e-05,0.00011,4e-05,-0.00034,-0.00037,-7e-05,2e-05,4,10
18003,4e-05,6e-05,0.00011,4e-05,-0.00034,-0.00037,-7e-05,2e-05,4,10
18004,4e-05,6e-05,0.00011,4e-05,-0.00034,-0.00037,-7e-05,2e-05,4,10
18005,-3e-05,-4e-05,2e-05,0.00039,-0.00045,-0.00026,-2e-05,-3e-05,4,10
18006,-3e-05,-4e-05,2e-05,0.00039,-0.00045,-0.00026,-2e-05,-3e-05,4,10
18007,-3e-05,-4e-05,2e-05,0.00039,-0.00045,-0.00026,-2e-05,-3e-05,4,10
18008,-3e-05,-4e-05,2e-05,0.00039,-0.00045,-0.00026,-2e-05,-3e-05,4,10
18009,-3e-05,-4e-05,2e-05,0.00039,-0.00045,-0.00026,-2e-05,-3e-05,4,10
18010,-3e-05,-4e-05,2e-05,0.00039,-0.00045,-0.00026,-2e-05,-3e-05,4,10
18011,-3e-05,-4e-05,2e-05,0.00039,-0.00045,-0.00026,-2e-05,-3e-05,4,10
18012,-3e-05,-4e-05,2e-05,0.00039,-0.00045,-0.00026,-2e-05,-3e-05,4,10
18013,-3e-05,-4e-05,2e-05,0.00039,-0.00045,-0.00026,-2e-05,-3e-05,4,10
18014,-3e-05,-4e-05,2e-05,0.00039,-0.00045,-0.00026,-2e-05,-3e-05,4,10
18015,-3e-05,-4e-05,2e-05,0.00039,-0.00045,-0.00026,-2e-05,-3e-05,4,10
18016,-3e-05,-4e-05,2e-05,0.00039,-0.00045,-0.00026,-2e-05,-3e-05,4,10
18017,-3e-05,-4e-05,2e-05,0.00039,-0.00045,-0.00026,-2e-05,-3e-05,4,10
18018,-3e-05,-4e-05,2e-05,0.00039,-0.00045,-0.00026,-2e-05,-3e-05,4,10
18019,-3e-05,-4e-05,2e-05,0.00039,-0.00045,-0.00026,-2e-05,-3e-05,4,10
18020,-3e-05,-4e-05,2e-05,0.00039,-0.00045,-0.00026,-2e-05,-3e-05,4,10
18021,-3e-05,-4e-05,2e-05,0.00039,-0.00045,-0.00026,-2e-05,-3e-05,4,10
18022,-3e-05,-4e-05,2e-05,0.00039,-0.00045,-0.00026,-2e-05,-3e-05,4,10
18023,-3e-05,-4e-05,2e-05,0.00039,-0.00045,-0.00026,-2e-05,-3e-05,4,10
18024,-3e-05,-4e-05,2e-05,0.00039,-0.00045,-0.00026,-2e-05,-3e-05,4,10
18025,-3e-05,-4e-05,2e-05,0.00039,-0.00045,-0.00026,-2e-05,-3e-05,4,10
18026,-3e-05,-4e-05,2e-05,0.00039,-0.00045,-0.00026,-2e-05,-3e-05,4,10
18027,-3e-05,-4e-05,2e-05,0.00039,-0.00045,-0.00026,-2e-05,-3e-05,4,10
18028,-3e-05,-4e-05,2e-05,0.00039,-0.00045,-0.00026,-2e-05,-3e-05,4,10
18029,-1e-05,4e-05,8e-05,0.00039,6e-05,0.00023,1e-05,-3e-05,4,10
18030,1e-05,-1e-05,1e-05,-0.00014,-0.0004,0.0002,3e-05,4e-05,4,10
18031,1e-05,-1e-05,1e-05,-0.00014,-0.0004,0.0002,3e-05,4e-05,4,10
18032,1e-05,-1e-05,1e-05,-0.00014,-0.0004,0.0002,3e-05,4e-05,4,10
18033,1e-05,-1e-05,1e-05,-0.00014,-0.0004,0.0002,3e-05,4e-05,4,10
18034,1e-05,-1e-05,1e-05,-0.00014,-0.0004,0.0002,3e-05,4e-05,4,10
18035,1e-05,-1e-05,1e-05,-0.00014,-0.0004,0.0002,3e-05,4e-05,4,10
18036,1e-05,-1e-05,1e-05,-0.00014,-0.0004,0.0002,3e-05,4e-05,4,10
18039,1e-05,-1e-05,1e-05,-0.00014,-0.0004,0.0002,3e-05,4e-05,4,10
18040,1e-05,-1e-05,1e-05,-0.00014,-0.0004,0.0002,3e-05,4e-05,4,10
18041,1e-05,-1e-05,1e-05,-0.00014,-0.0004,0.0002,3e-05,4e-05,4,10
18042,1e-05,-1e-05,1e-05,-0.00014,-0.0004,0.0002,3e-05,4e-05,4,10
18043,1e-05,-1e-05,1e-05,-0.00014,-0.0004,0.0002,3e-05,4e-05,4,10
18044,3e-05,8e-05,0.00019,0.00027,0.00059,-3e-05,5e-05,6e-05,4,10
18045,-3e-05,-6e-05,-0.00012,-0.00024,-0.00047,0.00035,-2e-05,-2e-05,4,10
18046,-3e-05,-4e-05,-3e-05,-0.00017,7e-05,-0.00025,-0.00011,-5e-05,4,10
18047,-3e-05,-4e-05,-3e-05,-0.00017,7e-05,-0.00025,-0.00011,-5e-05,4,10
18048,-3e-05,-4e-05,-3e-05,-0.00017,7e-05,-0.00025,-0.00011,-5e-05,4,10
18049,-3e-05,-4e-05,-3e-05,-0.00017,7e-05,-0.00025,-0.00011,-5e-05,4,10
18050,-3e-05,-4e-05,-3e-05,-0.00017,7e-05,-0.00025,-0.00011,-5e-05,4,10
18051,-3e-05,-4e-05,-3e-05,-0.00017,7e-05,-0.00025,-0.00011,-5e-05,4,10
18052,-3e-05,-4e-05,-3e-05,-0.00017,7e-05,-0.00025,-0.00011,-5e-05,4,10
18053,-3e-05,-4e-05,-3e-05,-0.00017,7e-05,-0.00025,-0.00011,-5e-05,4,10
18054,-3e-05,-4e-05,-3e-05,-0.00017,7e-05,-0.00025,-0.00011,-5e-05,4,10
18055,-3e-05,-4e-05,-3e-05,-0.00017,7e-05,-0.00025,-0.00011,-5e-05,4,10
18056,-3e-05,-4e-05,-3e-05,-0.00017,7e-05,-0.00025,-0.00011,-5e-05,4,10
18057,-3e-05,-4e-05,-3e-05,-0.00017,7e-05,-0.00025,-0.00011,-5e-05,4,10
18058,-3e-05,-4e-05,-3e-05,-0.00017,7e-05,-0.00025,-0.00011,-5e-05,4,10
18059,-3e-05,-4e-05,-3e-05,-0.00017,7e-05,-0.00025,-0.00011,-5e-05,4,10
18060,-3e-05,-4e-05,-3e-05,-0.00017,7e-05,-0.00025,-0.00011,-5e-05,4,10
18061,-3e-05,-4e-05,-3e-05,-0.00017,7e-05,-0.00025,-0.00011,-5e-05,4,10
18062,-3e-05,-4e-05,-3e-05,-0.00017,7e-05,-0.00025,-0.00011,-5e-05,4,10
18063,-3e-05,-4e-05,-3e-05,-0.00017,7e-05,-0.00025,-0.00011,-5e-05,4,10
18064,-3e-05,-4e-05,-3e-05,-0.00017,7e-05,-0.00025,-0.00011,-5e-05,4,10
18065,-3e-05,-4e-05,-3e-05,-0.00017,7e-05,-0.00025,-0.00011,-5e-05,4,10
18066,-3e-05,-0.0001,-0.0001,0.00012,-0.00029,-0.00014,-7e-05,-2e-05,4,10
18067,-6e-05,-3e-05,-1e-05,-0.00032,-0.0009,-8e-05,1e-05,-3e-05,4,10
18068,-4e-05,-2e-05,1e-05,0.00039,0.00015,0.00022,-0.00012,-1e-05,4,10
18069,-4e-05,-2e-05,1e-05,0.00039,0.00015,0.00022,-0.00012,-1e-05,4,10
18070,-4e-05,-2e-05,1e-05,0.00039,0.00015,0.00022,-0.00012,-1e-05,4,10
18071,-4e-05,-2e-05,1e-05,0.00039,0.00015,0.00022,-0.00012,-1e-05,4,10
18072,-4e-05,-2e-05,1e-05,0.00039,0.00015,0.00022,-0.00012,-1e-05,4,10
18073,-4e-05,-2e-05,1e-05,0.00039,0.00015,0.00022,-0.00012,-1e-05,4,10
18074,-4e-05,-2e-05,1e-05,0.00039,0.00015,0.00022,-0.00012,-1e-05,4,10
18075,-4e-05,-2e-05,1e-05,0.00039,0.00015,0.00022,-0.00012,-1e-05,4,10
18076,-4e-05,-2e-05,1e-05,0.00039,0.00015,0.00022,-0.00012,-1e-05,4,10
18077,-4e-05,-2e-05,1e-05,0.00039,0.00015,0.00022,-0.00012,-1e-05,4,10
18078,-4e-05,-2e-05,1e-05,0.00039,0.00015,0.00022,-0.00012,-1e-05,4,10
18079,-4e-05,-2e-05,1e-05,0.00039,0.00015,0.00022,-0.00012,-1e-05,4,10
18080,-4e-05,-2e-05,1e-05,0.00039,0.00015,0.00022,-0.00012,-1e-05,4,10
18081,3e-05,4e-05,4e-05,0.00046,0.0002,-3e-05,0.00014,4e-05,4,10
18082,3e-05,4e-05,4e-05,0.00046,0.0002,-3e-05,0.00014,4e-05,4,10
18083,-0.00011,-0.00015,-0.00033,-0.00055,-0.0008,-0.00088,-0.00024,-0.00013,4,10
18084,-0.00011,-0.00015,-0.00033,-0.00055,-0.0008,-0.00088,-0.00024,-0.00013,4,10
18085,-0.00011,-0.00015,-0.00033,-0.00055,-0.0008,-0.00088,-0.00024,-0.00013,4,10
18086,-0.00011,-0.00015,-0.00033,-0.00055,-0.0008,-0.00088,-0.00024,-0.00013,4,10
18089,-0.00011,-0.00015,-0.00033,-0.00055,-0.0008,-0.00088,-0.00024,-0.00013,4,10
18090,-0.00011,-0.00015,-0.00033,-0.00055,-0.0008,-0.00088,-0.00024,-0.00013,4,10
18091,-0.00011,-0.00015,-0.00033,-0.00055,-0.0008,-0.00088,-0.00024,-0.00013,4,10
18092,-0.00011,-0.00015,-0.00033,-0.00055,-0.0008,-0.00088,-0.00024,-0.00013,4,10
18093,-0.00011,-0.00015,-0.00033,-0.00055,-0.0008,-0.00088,-0.00024,-0.00013,4,10
18094,-0.00011,-0.00015,-0.00033,-0.00055,-0.0008,-0.00088,-0.00024,-0.00013,4,10
18095,-0.00011,-0.00015,-0.00033,-0.00055,-0.0008,-0.00088,-0.00024,-0.00013,4,10
18096,-0.00011,-0.00015,-0.00033,-0.00055,-0.0008,-0.00088,-0.00024,-0.00013,4,10
18097,-0.00011,-0.00015,-0.00033,-0.00055,-0.0008,-0.00088,-0.00024,-0.00013,4,10
18098,-0.00011,-0.00015,-0.00033,-0.00055,-0.0008,-0.00088,-0.00024,-0.00013,4,10
18099,-0.00011,-0.00015,-0.00033,-0.00055,-0.0008,-0.00088,-0.00024,-0.00013,4,10
18100,-0.00011,-0.00015,-0.00033,-0.00055,-0.0008,-0.00088,-0.00024,-0.00013,4,10
18101,-0.00011,-0.00015,-0.00033,-0.00055,-0.0008,-0.00088,-0.00024,-0.00013,4,10
18102,-0.00011,-0.00015,-0.00033,-0.00055,-0.0008,-0.00088,-0.00024,-0.00013,4,10
18103,-0.00011,-0.00015,-0.00033,-0.00055,-0.0008,-0.00088,-0.00024,-0.00013,4,10
18104,2e-05,4e-05,6e-05,0.00029,6e-05,-0.00021,5e-05,5e-05,4,10
18105,-3e-05,-5e-05,-7e-05,-0.00026,-6e-05,-0.00019,-7e-05,-3e-05,4,10
18106,-1e-05,-6e-05,-0.00015,0.00011,0.00042,-0.00014,0.0001,0,4,10
18107,-1e-05,-6e-05,-0.00015,0.00011,0.00042,-0.00014,0.0001,0,4,10
18108,-1e-05,-6e-05,-0.00015,0.00011,0.00042,-0.00014,0.0001,0,4,10
18109,-1e-05,-6e-05,-0.00015,0.00011,0.00042,-0.00014,0.0001,0,4,10
18110,-1e-05,-6e-05,-0.00015,0.00011,0.00042,-0.00014,0.0001,0,4,10
18111,-1e-05,-6e-05,-0.00015,0.00011,0.00042,-0.00014,0.0001,0,4,10
18112,-1e-05,-6e-05,-0.00015,0.00011,0.00042,-0.00014,0.0001,0,4,10
18113,-1e-05,-6e-05,-0.00015,0.00011,0.00042,-0.00014,0.0001,0,4,10
18114,-1e-05,-6e-05,-0.00015,0.00011,0.00042,-0.00014,0.0001,0,4,10
18115,-1e-05,-6e-05,-0.00015,0.00011,0.00042,-0.00014,0.0001,0,4,10
18116,-1e-05,-6e-05,-0.00015,0.00011,0.00042,-0.00014,0.0001,0,4,10
18117,-1e-05,-6e-05,-0.00015,0.00011,0.00042,-0.00014,0.0001,0,4,10
18118,-2e-05,-3e-05,-9e-05,-0.00041,0.00033,0.00034,-3e-05,-4e-05,4,10
18119,-2e-05,-1e-05,-4e-05,7e-05,0.00039,-5e-05,-1e-05,-1e-05,4,10
18120,-2e-05,-1e-05,-4e-05,7e-05,0.00039,-5e-05,-1e-05,-1e-05,4,10
18121,-2e-05,-1e-05,-4e-05,7e-05,0.00039,-5e-05,-1e-05,-1e-05,4,10
18122,-2e-05,-1e-05,-4e-05,7e-05,0.00039,-5e-05,-1e-05,-1e-05,4,10
18123,-2e-05,-1e-05,-4e-05,7e-05,0.00039,-5e-05,-1e-05,-1e-05,4,10
18124,-2e-05,-1e-05,-4e-05,7e-05,0.00039,-5e-05,-1e-05,-1e-05,4,10
18125,-2e-05,-1e-05,-4e-05,7e-05,0.00039,-5e-05,-1e-05,-1e-05,4,10
18126,-2e-05,-1e-05,-4e-05,7e-05,0.00039,-5e-05,-1e-05,-1e-05,4,10
18127,-2e-05,-1e-05,-4e-05,7e-05,0.00039,-5e-05,-1e-05,-1e-05,4,10
18128,-2e-05,-1e-05,-4e-05,7e-05,0.00039,-5e-05,-1e-05,-1e-05,4,10
18129,-2e-05,-1e-05,-4e-05,7e-05,0.00039,-5e-05,-1e-05,-1e-05,4,10
18130,-2e-05,-1e-05,-4e-05,7e-05,0.00039,-5e-05,-1e-05,-1e-05,4,10
18131,-2e-05,-1e-05,-4e-05,7e-05,0.00039,-5e-05,-1e-05,-1e-05,4,10
18132,-2e-05,-1e-05,-4e-05,7e-05,0.00039,-5e-05,-1e-05,-1e-05,4,10
18133,0,2e-05,2e-05,7e-05,-1e-05,-0.00034,-6e-05,-3e-05,4,10
18134,2e-05,3e-05,7e-05,0.00018,0.00054,-0.00024,-4e-05,0,4,10
18135,2e-05,3e-05,7e-05,0.00018,0.00054,-0.00024,-4e-05,0,4,10
18136,2e-05,3e-05,7e-05,0.00018,0.00054,-0.00024,-4e-05,0,4,10
18139,2e-05,3e-05,7e-05,0.00018,0.00054,-0.00024,-4e-05,0,4,10
18140,2e-05,3e-05,7e-05,0.00018,0.00054,-0.00024,-4e-05,0,4,10
18141,2e-05,3e-05,7e-05,0.00018,0.00054,-0.00024,-4e-05,0,4,10
18142,2e-05,3e-05,7e-05,0.00018,0.00054,-0.00024,-4e-05,0,4,10
18143,2e-05,3e-05,7e-05,0.00018,0.00054,-0.00024,-4e-05,0,4,10
18144,2e-05,3e-05,7e-05,0.00018,0.00054,-0.00024,-4e-05,0,4,10
18145,2e-05,3e-05,7e-05,0.00018,0.00054,-0.00024,-4e-05,0,4,10
18146,2e-05,3e-05,7e-05,0.00018,0.00054,-0.00024,-4e-05,0,4,10
18147,2e-05,3e-05,7e-05,0.00018,0.00054,-0.00024,-4e-05,0,4,10
18148,2e-05,3e-05,7e-05,0.00018,0.00054,-0.00024,-4e-05,0,4,10
18149,-2e-05,-1e-05,4e-05,-0.0003,-0.00047,-0.00045,-0.00016,-8e-05,4,10
18150,-2e-05,-6e-05,-8e-05,0.00036,0.00069,0.00017,4e-05,-6e-05,4,10
18151,0.00015,0.0002,0.0003,0,0.00053,0.00054,0.00025,0.00015,4,10
18152,0.00015,0.0002,0.0003,0,0.00053,0.00054,0.00025,0.00015,4,10
18153,0.00015,0.0002,0.0003,0,0.00053,0.00054,0.00025,0.00015,4,10
18154,0.00015,0.0002,0.0003,0,0.00053,0.00054,0.00025,0.00015,4,10
18155,0.00015,0.0002,0.0003,0,0.00053,0.00054,0.00025,0.00015,4,10
18156,0.00015,0.0002,0.0003,0,0.00053,0.00054,0.00025,0.00015,4,10
18157,0.00015,0.0002,0.0003,0,0.00053,0.00054,0.00025,0.00015,4,10
18158,0.00015,0.0002,0.0003,0,0.00053,0.00054,0.00025,0.00015,4,10
18159,0.00015,0.0002,0.0003,0,0.00053,0.00054,0.00025,0.00015,4,10
18160,0.00015,0.0002,0.0003,0,0.00053,0.00054,0.00025,0.00015,4,10
18161,0.00015,0.0002,0.0003,0,0.00053,0.00054,0.00025,0.00015,4,10
18162,0.00015,0.0002,0.0003,0,0.00053,0.00054,0.00025,0.00015,4,10
18163,0.00015,0.0002,0.0003,0,0.00053,0.00054,0.00025,0.00015,4,10
18164,-6e-05,-7e-05,-9e-05,-0.00046,-0.00033,-0.00055,-0.00019,-0.0001,4,10
18165,-6e-05,-7e-05,-9e-05,-0.00046,-0.00033,-0.00055,-0.00019,-0.0001,4,10
18166,-3e-05,-2e-05,5e-05,-0.00064,-0.00088,-0.00036,-0.00012,-4e-05,4,10
18167,-3e-05,-2e-05,5e-05,-0.00064,-0.00088,-0.00036,-0.00012,-4e-05,4,10
18168,-3e-05,-2e-05,5e-05,-0.00064,-0.00088,-0.00036,-0.00012,-4e-05,4,10
18169,-3e-05,-2e-05,5e-05,-0.00064,-0.00088,-0.00036,-0.00012,-4e-05,4,10
18170,-3e-05,-2e-05,5e-05,-0.00064,-0.00088,-0.00036,-0.00012,-4e-05,4,10
18171,-3e-05,-2e-05,5e-05,-0.00064,-0.00088,-0.00036,-0.00012,-4e-05,4,10
18172,-3e-05,-2e-05,5e-05,-0.00064,-0.00088,-0.00036,-0.00012,-4e-05,4,10
18173,-3e-05,-2e-05,5e-05,-0.00064,-0.00088,-0.00036,-0.00012,-4e-05,4,10
18174,-3e-05,-2e-05,5e-05,-0.00064,-0.00088,-0.00036,-0.00012,-4e-05,4,10
18175,-3e-05,-2e-05,5e-05,-0.00064,-0.00088,-0.00036,-0.00012,-4e-05,4,10
18176,-3e-05,-2e-05,5e-05,-0.00064,-0.00088,-0.00036,-0.00012,-4e-05,4,10
18177,-3e-05,-2e-05,5e-05,-0.00064,-0.00088,-0.00036,-0.00012,-4e-05,4,10
18178,-3e-05,-2e-05,5e-05,-0.00064,-0.00088,-0.00036,-0.00012,-4e-05,4,10
18179,-3e-05,-2e-05,5e-05,-0.00064,-0.00088,-0.00036,-0.00012,-4e-05,4,10
18180,-3e-05,-2e-05,5e-05,-0.00064,-0.00088,-0.00036,-0.00012,-4e-05,4,10
18181,-3e-05,-2e-05,5e-05,-0.00064,-0.00088,-0.00036,-0.00012,-4e-05,4,10
18182,-3e-05,-2e-05,5e-05,-0.00064,-0.00088,-0.00036,-0.00012,-4e-05,4,10
18183,-3e-05,-2e-05,5e-05,-0.00064,-0.00088,-0.00036,-0.00012,-4e-05,4,10
18184,-3e-05,-2e-05,5e-05,-0.00064,-0.00088,-0.00036,-0.00012,-4e-05,4,10
18185,-3e-05,-2e-05,5e-05,-0.00064,-0.00088,-0.00036,-0.00012,-4e-05,4,10
18187,3e-05,0.0001,0.00012,-0.00011,-0.00027,0.00039,9e-05,8e-05,4,10
18190,0,-1e-05,0,0.0001,0.00016,0.00054,0.00011,1e-05,4,10
18191,0,-1e-05,0,0.0001,0.00016,0.00054,0.00011,1e-05,4,10
18192,0,-1e-05,0,0.0001,0.00016,0.00054,0.00011,1e-05,4,10
18193,0,-1e-05,0,0.0001,0.00016,0.00054,0.00011,1e-05,4,10
18194,0,-1e-05,0,0.0001,0.00016,0.00054,0.00011,1e-05,4,10
18195,0,-1e-05,0,0.0001,0.00016,0.00054,0.00011,1e-05,4,10
18196,0,-1e-05,0,0.0001,0.00016,0.00054,0.00011,1e-05,4,10
18197,0,-1e-05,0,0.0001,0.00016,0.00054,0.00011,1e-05,4,10
18198,0,-1e-05,0,0.0001,0.00016,0.00054,0.00011,1e-05,4,10
18199,0,-1e-05,0,0.0001,0.00016,0.00054,0.00011,1e-05,4,10
18200,0,-1e-05,0,0.0001,0.00016,0.00054,0.00011,1e-05,4,10
18201,0,-3e-05,-6e-05,0.00016,0.00079,-0.00024,0.00012,0,4,10
18202,0,-3e-05,-6e-05,0.00016,0.00079,-0.00024,0.00012,0,4,10
18203,-0.00013,-0.00026,-0.00049,-0.00025,-0.00018,-0.00042,-0.00016,-0.00011,4,10
18204,-0.00013,-0.00026,-0.00049,-0.00025,-0.00018,-0.00042,-0.00016,-0.00011,4,10
18205,-0.00013,-0.00026,-0.00049,-0.00025,-0.00018,-0.00042,-0.00016,-0.00011,4,10
18206,-0.00013,-0.00026,-0.00049,-0.00025,-0.00018,-0.00042,-0.00016,-0.00011,4,10
18207,-0.00013,-0.00026,-0.00049,-0.00025,-0.00018,-0.00042,-0.00016,-0.00011,4,10
18208,-0.00013,-0.00026,-0.00049,-0.00025,-0.00018,-0.00042,-0.00016,-0.00011,4,10
18209,-0.00013,-0.00026,-0.00049,-0.00025,-0.00018,-0.00042,-0.00016,-0.00011,4,10
18210,-0.00013,-0.00026,-0.00049,-0.00025,-0.00018,-0.00042,-0.00016,-0.00011,4,10
18211,-0.00013,-0.00026,-0.00049,-0.00025,-0.00018,-0.00042,-0.00016,-0.00011,4,10
18212,-0.00013,-0.00026,-0.00049,-0.00025,-0.00018,-0.00042,-0.00016,-0.00011,4,10
18213,-0.00013,-0.00026,-0.00049,-0.00025,-0.00018,-0.00042,-0.00016,-0.00011,4,10
18214,-0.00013,-0.00026,-0.00049,-0.00025,-0.00018,-0.00042,-0.00016,-0.00011,4,10
18215,-0.00013,-0.00026,-0.00049,-0.00025,-0.00018,-0.00042,-0.00016,-0.00011,4,10
18216,-0.00013,-0.00026,-0.00049,-0.00025,-0.00018,-0.00042,-0.00016,-0.00011,4,10
18217,-0.00013,-0.00026,-0.00049,-0.00025,-0.00018,-0.00042,-0.00016,-0.00011,4,10
18218,-0.00013,-0.00026,-0.00049,-0.00025,-0.00018,-0.00042,-0.00016,-0.00011,4,10
18219,-0.00013,-0.00026,-0.00049,-0.00025,-0.00018,-0.00042,-0.00016,-0.00011,4,10
18220,-0.00013,-0.00026,-0.00049,-0.00025,-0.00018,-0.00042,-0.00016,-0.00011,4,10
18221,-0.00013,-0.00026,-0.00049,-0.00025,-0.00018,-0.00042,-0.00016,-0.00011,4,10
18222,-0.00013,-0.00026,-0.00049,-0.00025,-0.00018,-0.00042,-0.00016,-0.00011,4,10
18223,-0.00013,-0.00026,-0.00049,-0.00025,-0.00018,-0.00042,-0.00016,-0.00011,4,10
18224,-0.00013,-0.00026,-0.00049,-0.00025,-0.00018,-0.00042,-0.00016,-0.00011,4,10
18225,0,-1e-05,1e-05,0.0001,-0.00041,-0.00037,-1e-05,-3e-05,4,10
18226,0,-1e-05,1e-05,0.0001,-0.00041,-0.00037,-1e-05,-3e-05,4,10
18227,0,-1e-05,1e-05,0.0001,-0.00041,-0.00037,-1e-05,-3e-05,4,10
18228,0,-1e-05,1e-05,0.0001,-0.00041,-0.00037,-1e-05,-3e-05,4,10
18229,0,-1e-05,1e-05,0.0001,-0.00041,-0.00037,-1e-05,-3e-05,4,10
18230,-5e-05,-0.00012,-0.00014,-0.0002,0.00061,-3e-05,4e-05,-7e-05,4,10
18231,-5e-05,-0.00012,-0.00014,-0.0002,0.00061,-3e-05,4e-05,-7e-05,4,10
18232,-5e-05,-0.00012,-0.00014,-0.0002,0.00061,-3e-05,4e-05,-7e-05,4,10
18233,-5e-05,-0.00012,-0.00014,-0.0002,0.00061,-3e-05,4e-05,-7e-05,4,10
18234,-5e-05,-0.00012,-0.00014,-0.0002,0.00061,-3e-05,4e-05,-7e-05,4,10
18235,-5e-05,-0.00012,-0.00014,-0.0002,0.00061,-3e-05,4e-05,-7e-05,4,10
18236,-5e-05,-0.00012,-0.00014,-0.0002,0.00061,-3e-05,4e-05,-7e-05,4,10
18239,-1e-05,-2e-05,-1e-05,-0.00042,-5e-05,0.00032,-1e-05,0,4,10
18241,-1e-05,-2e-05,-1e-05,-0.00042,-5e-05,0.00032,-1e-05,0,4,10
18242,-1e-05,-2e-05,-1e-05,-0.00042,-5e-05,0.00032,-1e-05,0,4,10
18243,-1e-05,-2e-05,-1e-05,-0.00042,-5e-05,0.00032,-1e-05,0,4,10
18244,-1e-05,-2e-05,-1e-05,-0.00042,-5e-05,0.00032,-1e-05,0,4,10
18245,-1e-05,-2e-05,-1e-05,-0.00042,-5e-05,0.00032,-1e-05,0,4,10
18246,-1e-05,-2e-05,-1e-05,-0.00042,-5e-05,0.00032,-1e-05,0,4,10
18247,-4e-05,-7e-05,-0.00012,-2e-05,7e-05,0.00014,-9e-05,-6e-05,4,10
18248,-4e-05,-7e-05,-0.00012,-2e-05,7e-05,0.00014,-9e-05,-6e-05,4,10
18249,-4e-05,-7e-05,-0.00012,-2e-05,7e-05,0.00014,-9e-05,-6e-05,4,10
18250,-4e-05,-7e-05,-0.00012,-2e-05,7e-05,0.00014,-9e-05,-6e-05,4,10
18251,-4e-05,-7e-05,-0.00012,-2e-05,7e-05,0.00014,-9e-05,-6e-05,4,10
18252,-4e-05,-7e-05,-0.00012,-2e-05,7e-05,0.00014,-9e-05,-6e-05,4,10
18253,-4e-05,-7e-05,-0.00012,-2e-05,7e-05,0.00014,-9e-05,-6e-05,4,10
18254,-4e-05,-7e-05,-0.00012,-2e-05,7e-05,0.00014,-9e-05,-6e-05,4,10
18255,-4e-05,-7e-05,-0.00012,-2e-05,7e-05,0.00014,-9e-05,-6e-05,4,10
18256,-4e-05,-7e-05,-0.00012,-2e-05,7e-05,0.00014,-9e-05,-6e-05,4,10
18257,-4e-05,-7e-05,-0.00012,-2e-05,7e-05,0.00014,-9e-05,-6e-05,4,10
18258,-4e-05,-7e-05,-0.00012,-2e-05,7e-05,0.00014,-9e-05,-6e-05,4,10
18259,-4e-05,-7e-05,-0.00012,-2e-05,7e-05,0.00014,-9e-05,-6e-05,4,10
18260,-4e-05,-7e-05,-0.00012,-2e-05,7e-05,0.00014,-9e-05,-6e-05,4,10
18261,-4e-05,-7e-05,-0.00012,-2e-05,7e-05,0.00014,-9e-05,-6e-05,4,10
18262,-4e-05,-7e-05,-0.00012,-2e-05,7e-05,0.00014,-9e-05,-6e-05,4,10
18263,-4e-05,-7e-05,-0.00012,-2e-05,7e-05,0.00014,-9e-05,-6e-05,4,10
18264,-4e-05,-7e-05,-0.00012,-2e-05,7e-05,0.00014,-9e-05,-6e-05,4,10
18265,-4e-05,-7e-05,-0.00012,-2e-05,7e-05,0.00014,-9e-05,-6e-05,4,10
18266,-4e-05,-7e-05,-0.00012,-2e-05,7e-05,0.00014,-9e-05,-6e-05,4,10
18267,-4e-05,-7e-05,-0.00012,-2e-05,7e-05,0.00014,-9e-05,-6e-05,4,10
18268,-4e-05,-7e-05,-0.00012,-2e-05,7e-05,0.00014,-9e-05,-6e-05,4,10
18269,-1e-05,-4e-05,-1e-05,0.00026,-0.00046,2e-05,-5e-05,0,4,10
18270,-6e-05,-6e-05,-0.00014,-0.00032,-0.00056,0.0001,-8e-05,-5e-05,4,10
18271,4e-05,0.00012,0.00024,0.00019,0.00013,-0.00055,-0.00011,-5e-05,4,10
18272,4e-05,0.00012,0.00024,0.00019,0.00013,-0.00055,-0.00011,-5e-05,4,10
18273,4e-05,0.00012,0.00024,0.00019,0.00013,-0.00055,-0.00011,-5e-05,4,10
18274,4e-05,0.00012,0.00024,0.00019,0.00013,-0.00055,-0.00011,-5e-05,4,10
18275,4e-05,0.00012,0.00024,0.00019,0.00013,-0.00055,-0.00011,-5e-05,4,10
18276,4e-05,0.00012,0.00024,0.00019,0.00013,-0.00055,-0.00011,-5e-05,4,10
18277,4e-05,0.00012,0.00024,0.00019,0.00013,-0.00055,-0.00011,-5e-05,4,10
18278,4e-05,0.00012,0.00024,0.00019,0.00013,-0.00055,-0.00011,-5e-05,4,10
18279,4e-05,0.00012,0.00024,0.00019,0.00013,-0.00055,-0.00011,-5e-05,4,10
18280,4e-05,0.00012,0.00024,0.00019,0.00013,-0.00055,-0.00011,-5e-05,4,10
18281,4e-05,0.00012,0.00024,0.00019,0.00013,-0.00055,-0.00011,-5e-05,4,10
18282,4e-05,0.00012,0.00024,0.00019,0.00013,-0.00055,-0.00011,-5e-05,4,10
18283,4e-05,0.00012,0.00024,0.00019,0.00013,-0.00055,-0.00011,-5e-05,4,10
18284,1e-05,2e-05,3e-05,0.00052,0.0005,0.00033,0.00013,6e-05,4,10
18285,-6e-05,-0.00012,-0.00019,-0.00018,-0.00014,-0.00039,-0.00013,-7e-05,4,10
18286,-6e-05,-0.00012,-0.00019,-0.00018,-0.00014,-0.00039,-0.00013,-7e-05,4,10
18289,1e-05,8e-05,7e-05,0.00038,0.00072,0.00075,8e-05,7e-05,4,10
18290,1e-05,8e-05,7e-05,0.00038,0.00072,0.00075,8e-05,7e-05,4,10
18291,1e-05,8e-05,7e-05,0.00038,0.00072,0.00075,8e-05,7e-05,4,10
18292,1e-05,8e-05,7e-05,0.00038,0.00072,0.00075,8e-05,7e-05,4,10
18293,1e-05,8e-05,7e-05,0.00038,0.00072,0.00075,8e-05,7e-05,4,10
18294,1e-05,8e-05,7e-05,0.00038,0.00072,0.00075,8e-05,7e-05,4,10
18295,1e-05,8e-05,7e-05,0.00038,0.00072,0.00075,8e-05,7e-05,4,10
18296,1e-05,8e-05,7e-05,0.00038,0.00072,0.00075,8e-05,7e-05,4,10
18297,1e-05,8e-05,7e-05,0.00038,0.00072,0.00075,8e-05,7e-05,4,10
18298,1e-05,8e-05,7e-05,0.00038,0.00072,0.00075,8e-05,7e-05,4,10
18299,1e-05,8e-05,7e-05,0.00038,0.00072,0.00075,8e-05,7e-05,4,10
18300,1e-05,8e-05,7e-05,0.00038,0.00072,0.00075,8e-05,7e-05,4,10
18301,1e-05,8e-05,7e-05,0.00038,0.00072,0.00075,8e-05,7e-05,4,10
18302,1e-05,8e-05,7e-05,0.00038,0.00072,0.00075,8e-05,7e-05,4,10
18303,1e-05,8e-05,7e-05,0.00038,0.00072,0.00075,8e-05,7e-05,4,10
18304,1e-05,8e-05,7e-05,0.00038,0.00072,0.00075,8e-05,7e-05,4,10
18305,1e-05,8e-05,7e-05,0.00038,0.00072,0.00075,8e-05,7e-05,4,10
18306,-4e-05,-9e-05,-0.00011,-0.0002,0.00016,0.00014,-0.00014,-6e-05,4,10
18307,-4e-05,-9e-05,-0.00011,-0.0002,0.00016,0.00014,-0.00014,-6e-05,4,10
18308,7e-05,0.00012,0.00024,0.0005,0.00018,0.00049,0.00012,8e-05,4,10
18309,7e-05,0.00012,0.00024,0.0005,0.00018,0.00049,0.00012,8e-05,4,10
18310,7e-05,0.00012,0.00024,0.0005,0.00018,0.00049,0.00012,8e-05,4,10
18311,7e-05,0.00012,0.00024,0.0005,0.00018,0.00049,0.00012,8e-05,4,10
18312,7e-05,0.00012,0.00024,0.0005,0.00018,0.00049,0.00012,8e-05,4,10
18313,7e-05,0.00012,0.00024,0.0005,0.00018,0.00049,0.00012,8e-05,4,10
18314,7e-05,0.00012,0.00024,0.0005,0.00018,0.00049,0.00012,8e-05,4,10
18315,7e-05,0.00012,0.00024,0.0005,0.00018,0.00049,0.00012,8e-05,4,10
18316,7e-05,0.00012,0.00024,0.0005,0.00018,0.00049,0.00012,8e-05,4,10
18317,7e-05,0.00012,0.00024,0.0005,0.00018,0.00049,0.00012,8e-05,4,10
18318,7e-05,0.00012,0.00024,0.0005,0.00018,0.00049,0.00012,8e-05,4,10
18319,7e-05,0.00012,0.00024,0.0005,0.00018,0.00049,0.00012,8e-05,4,10
18320,7e-05,0.00012,0.00024,0.0005,0.00018,0.00049,0.00012,8e-05,4,10
18321,-3e-05,-5e-05,-8e-05,-0.00012,0.00064,0.00015,4e-05,0,4,10
18322,-1e-05,1e-05,-4e-05,0.0003,3e-05,0.00029,0.00014,1e-05,4,10
18323,3e-05,2e-05,1e-05,0.00067,0.00062,0.00057,2e-05,1e-05,4,10
18324,3e-05,2e-05,1e-05,0.00067,0.00062,0.00057,2e-05,1e-05,4,10
18325,3e-05,2e-05,1e-05,0.00067,0.00062,0.00057,2e-05,1e-05,4,10
18326,3e-05,2e-05,1e-05,0.00067,0.00062,0.00057,2e-05,1e-05,4,10
18327,3e-05,2e-05,1e-05,0.00067,0.00062,0.00057,2e-05,1e-05,4,10
18328,3e-05,2e-05,1e-05,0.00067,0.00062,0.00057,2e-05,1e-05,4,10
18329,3e-05,2e-05,1e-05,0.00067,0.00062,0.00057,2e-05,1e-05,4,10
18330,3e-05,2e-05,1e-05,0.00067,0.00062,0.00057,2e-05,1e-05,4,10
18331,3e-05,2e-05,1e-05,0.00067,0.00062,0.00057,2e-05,1e-05,4,10
18332,3e-05,2e-05,1e-05,0.00067,0.00062,0.00057,2e-05,1e-05,4,10
18333,3e-05,2e-05,1e-05,0.00067,0.00062,0.00057,2e-05,1e-05,4,10
18334,3e-05,2e-05,1e-05,0.00067,0.00062,0.00057,2e-05,1e-05,4,10
18335,3e-05,2e-05,1e-05,0.00067,0.00062,0.00057,2e-05,1e-05,4,10
18336,3e-05,2e-05,1e-05,0.00067,0.00062,0.00057,2e-05,1e-05,4,10
18339,3e-05,2e-05,1e-05,0.00067,0.00062,0.00057,2e-05,1e-05,4,10
18340,3e-05,2e-05,1e-05,0.00067,0.00062,0.00057,2e-05,1e-05,4,10
18341,3e-05,2e-05,1e-05,0.00067,0.00062,0.00057,2e-05,1e-05,4,10
18342,3e-05,2e-05,1e-05,0.00067,0.00062,0.00057,2e-05,1e-05,4,10
18343,3e-05,2e-05,1e-05,0.00067,0.00062,0.00057,2e-05,1e-05,4,10
18344,-1e-05,1e-05,-1e-05,-8e-05,-0.0008,-0.00012,0,-2e-05,4,10
18345,1e-05,0,4e-05,7e-05,0.00035,0.00032,3e-05,-1e-05,4,10
18346,-7e-05,-7e-05,-0.0001,-0.00032,-0.00081,-0.00043,-0.00011,-8e-05,4,10
18347,-7e-05,-7e-05,-0.0001,-0.00032,-0.00081,-0.00043,-0.00011,-8e-05,4,10
18348,-7e-05,-7e-05,-0.0001,-0.00032,-0.00081,-0.00043,-0.00011,-8e-05,4,10
18349,-7e-05,-7e-05,-0.0001,-0.00032,-0.00081,-0.00043,-0.00011,-8e-05,4,10
18350,-7e-05,-7e-05,-0.0001,-0.00032,-0.00081,-0.00043,-0.00011,-8e-05,4,10
18351,-7e-05,-7e-05,-0.0001,-0.00032,-0.00081,-0.00043,-0.00011,-8e-05,4,10
18352,-7e-05,-7e-05,-0.0001,-0.00032,-0.00081,-0.00043,-0.00011,-8e-05,4,10
18353,-7e-05,-7e-05,-0.0001,-0.00032,-0.00081,-0.00043,-0.00011,-8e-05,4,10
18354,-7e-05,-7e-05,-0.0001,-0.00032,-0.00081,-0.00043,-0.00011,-8e-05,4,10
18355,-7e-05,-7e-05,-0.0001,-0.00032,-0.00081,-0.00043,-0.00011,-8e-05,4,10
18356,-7e-05,-7e-05,-0.0001,-0.00032,-0.00081,-0.00043,-0.00011,-8e-05,4,10
18357,-6e-05,-0.00013,-0.00018,-8e-05,0.00047,-0.00045,-9e-05,-9e-05,4,10
18358,8e-05,0.00013,0.00024,0.00045,0.00069,0.00055,0.00017,0.00012,4,10
18359,8e-05,0.00013,0.00024,0.00045,0.00069,0.00055,0.00017,0.00012,4,10
18360,8e-05,0.00013,0.00024,0.00045,0.00069,0.00055,0.00017,0.00012,4,10
18361,8e-05,0.00013,0.00024,0.00045,0.00069,0.00055,0.00017,0.00012,4,10
18362,8e-05,0.00013,0.00024,0.00045,0.00069,0.00055,0.00017,0.00012,4,10
18363,8e-05,0.00013,0.00024,0.00045,0.00069,0.00055,0.00017,0.00012,4,10
18364,8e-05,0.00013,0.00024,0.00045,0.00069,0.00055,0.00017,0.00012,4,10
18365,8e-05,0.00013,0.00024,0.00045,0.00069,0.00055,0.00017,0.00012,4,10
18366,8e-05,0.00013,0.00024,0.00045,0.00069,0.00055,0.00017,0.00012,4,10
18367,0,2e-05,5e-05,8e-05,0.00024,0.00016,1e-05,1e-05,4,10
18368,0,2e-05,5e-05,8e-05,0.00024,0.00016,1e-05,1e-05,4,10
18369,0,2e-05,5e-05,8e-05,0.00024,0.00016,1e-05,1e-05,4,10
18370,0,2e-05,5e-05,8e-05,0.00024,0.00016,1e-05,1e-05,4,10
18371,0,2e-05,5e-05,8e-05,0.00024,0.00016,1e-05,1e-05,4,10
18372,0,2e-05,5e-05,8e-05,0.00024,0.00016,1e-05,1e-05,4,10
18373,0,2e-05,5e-05,8e-05,0.00024,0.00016,1e-05,1e-05,4,10
18374,0,2e-05,5e-05,8e-05,0.00024,0.00016,1e-05,1e-05,4,10
18375,0,2e-05,5e-05,8e-05,0.00024,0.00016,1e-05,1e-05,4,10
18376,0,2e-05,5e-05,8e-05,0.00024,0.00016,1e-05,1e-05,4,10
18377,0,2e-05,5e-05,8e-05,0.00024,0.00016,1e-05,1e-05,4,10
18378,0,2e-05,5e-05,8e-05,0.00024,0.00016,1e-05,1e-05,4,10
18379,0,2e-05,5e-05,8e-05,0.00024,0.00016,1e-05,1e-05,4,10
18380,0,2e-05,5e-05,8e-05,0.00024,0.00016,1e-05,1e-05,4,10
18381,0,2e-05,5e-05,8e-05,0.00024,0.00016,1e-05,1e-05,4,10
18382,0,2e-05,5e-05,8e-05,0.00024,0.00016,1e-05,1e-05,4,10
18383,0,2e-05,5e-05,8e-05,0.00024,0.00016,1e-05,1e-05,4,10
18384,0,2e-05,5e-05,8e-05,0.00024,0.00016,1e-05,1e-05,4,10
18385,0,2e-05,5e-05,8e-05,0.00024,0.00016,1e-05,1e-05,4,10
18386,0,2e-05,5e-05,8e-05,0.00024,0.00016,1e-05,1e-05,4,10
18389,0,2e-05,5e-05,8e-05,0.00024,0.00016,1e-05,1e-05,4,10
18390,0,2e-05,5e-05,8e-05,0.00024,0.00016,1e-05,1e-05,4,10
18391,0,2e-05,5e-05,8e-05,0.00024,0.00016,1e-05,1e-05,4,10
18392,0,2e-05,5e-05,8e-05,0.00024,0.00016,1e-05,1e-05,4,10
18393,0,2e-05,5e-05,8e-05,0.00024,0.00016,1e-05,1e-05,4,10
18394,0,2e-05,5e-05,8e-05,0.00024,0.00016,1e-05,1e-05,4,10
18395,0,2e-05,5e-05,8e-05,0.00024,0.00016,1e-05,1e-05,4,10
18396,-4e-05,-5e-05,-7e-05,-6e-05,0.00048,-0.0001,-6e-05,-6e-05,4,10
18397,9e-05,0.00013,0.00019,0.00107,0.00037,-0.00013,0.00012,0.00011,4,10
18398,1e-05,4e-05,0.00014,-0.00032,-0.00029,-1e-05,-2e-05,-1e-05,4,10
18399,1e-05,4e-05,0.00014,-0.00032,-0.00029,-1e-05,-2e-05,-1e-05,4,10
18400,1e-05,4e-05,0.00014,-0.00032,-0.00029,-1e-05,-2e-05,-1e-05,4,10
18401,1e-05,4e-05,0.00014,-0.00032,-0.00029,-1e-05,-2e-05,-1e-05,4,10
18402,1e-05,4e-05,0.00014,-0.00032,-0.00029,-1e-05,-2e-05,-1e-05,4,10
18403,1e-05,4e-05,0.00014,-0.00032,-0.00029,-1e-05,-2e-05,-1e-05,4,10
18404,-7e-05,-0.00012,-0.00017,-0.00014,-0.00052,-8e-05,-0.00014,-9e-05,4,10
18405,0.00016,0.00027,0.00043,0.00043,0.00091,0.00012,0.00023,0.00016,4,10
18406,-4e-05,-1e-05,2e-05,7e-05,-5e-05,-0.00027,-4e-05,-1e-05,4,10
18407,-4e-05,-1e-05,2e-05,7e-05,-5e-05,-0.00027,-4e-05,-1e-05,4,10
18408,-4e-05,-1e-05,2e-05,7e-05,-5e-05,-0.00027,-4e-05,-1e-05,4,10
18409,-4e-05,-1e-05,2e-05,7e-05,-5e-05,-0.00027,-4e-05,-1e-05,4,10
18410,-4e-05,-1e-05,2e-05,7e-05,-5e-05,-0.00027,-4e-05,-1e-05,4,10
18411,-4e-05,-1e-05,2e-05,7e-05,-5e-05,-0.00027,-4e-05,-1e-05,4,10
18412,-4e-05,-1e-05,2e-05,7e-05,-5e-05,-0.00027,-4e-05,-1e-05,4,10
18413,-4e-05,-1e-05,2e-05,7e-05,-5e-05,-0.00027,-4e-05,-1e-05,4,10
18414,-4e-05,-1e-05,2e-05,7e-05,-5e-05,-0.00027,-4e-05,-1e-05,4,10
18415,-4e-05,-1e-05,2e-05,7e-05,-5e-05,-0.00027,-4e-05,-1e-05,4,10
18416,-4e-05,-1e-05,2e-05,7e-05,-5e-05,-0.00027,-4e-05,-1e-05,4,10
18417,-4e-05,-1e-05,2e-05,7e-05,-5e-05,-0.00027,-4e-05,-1e-05,4,10
18418,-4e-05,-1e-05,2e-05,7e-05,-5e-05,-0.00027,-4e-05,-1e-05,4,10
18419,-4e-05,-1e-05,2e-05,7e-05,-5e-05,-0.00027,-4e-05,-1e-05,4,10
18420,-4e-05,-1e-05,2e-05,7e-05,-5e-05,-0.00027,-4e-05,-1e-05,4,10
18421,-4e-05,-1e-05,2e-05,7e-05,-5e-05,-0.00027,-4e-05,-1e-05,4,10
18422,-4e-05,-1e-05,2e-05,7e-05,-5e-05,-0.00027,-4e-05,-1e-05,4,10
18423,-4e-05,-1e-05,2e-05,7e-05,-5e-05,-0.00027,-4e-05,-1e-05,4,10
18424,-4e-05,-1e-05,2e-05,7e-05,-5e-05,-0.00027,-4e-05,-1e-05,4,10
18425,-4e-05,-1e-05,2e-05,7e-05,-5e-05,-0.00027,-4e-05,-1e-05,4,10
18426,1e-05,1e-05,-1e-05,0.00011,-0.00045,-0.00014,-1e-05,0,4,10
18427,1e-05,1e-05,-1e-05,0.00011,-0.00045,-0.00014,-1e-05,0,4,10
18428,3e-05,2e-05,-5e-05,0.00035,-0.00026,-0.00036,0.0001,4e-05,4,10
18429,3e-05,2e-05,-5e-05,0.00035,-0.00026,-0.00036,0.0001,4e-05,4,10
18430,3e-05,2e-05,-5e-05,0.00035,-0.00026,-0.00036,0.0001,4e-05,4,10
18431,3e-05,2e-05,-5e-05,0.00035,-0.00026,-0.00036,0.0001,4e-05,4,10
18432,3e-05,2e-05,-5e-05,0.00035,-0.00026,-0.00036,0.0001,4e-05,4,10
18433,3e-05,2e-05,-5e-05,0.00035,-0.00026,-0.00036,0.0001,4e-05,4,10
18434,3e-05,2e-05,-5e-05,0.00035,-0.00026,-0.00036,0.0001,4e-05,4,10
18435,3e-05,2e-05,-5e-05,0.00035,-0.00026,-0.00036,0.0001,4e-05,4,10
18436,3e-05,2e-05,-5e-05,0.00035,-0.00026,-0.00036,0.0001,4e-05,4,10
18439,3e-05,2e-05,-5e-05,0.00035,-0.00026,-0.00036,0.0001,4e-05,4,10
18440,3e-05,2e-05,-5e-05,0.00035,-0.00026,-0.00036,0.0001,4e-05,4,10
18441,-3e-05,-5e-05,-0.00013,-0.00025,0.00032,-0.00016,-5e-05,-4e-05,4,10
18442,-3e-05,-5e-05,-0.00013,-0.00025,0.00032,-0.00016,-5e-05,-4e-05,4,10
18443,-1e-05,6e-05,0.00017,-9e-05,-0.00084,-0.0002,-5e-05,1e-05,4,10
18444,-1e-05,6e-05,0.00017,-9e-05,-0.00084,-0.0002,-5e-05,1e-05,4,10
18445,-1e-05,6e-05,0.00017,-9e-05,-0.00084,-0.0002,-5e-05,1e-05,4,10
18446,-1e-05,6e-05,0.00017,-9e-05,-0.00084,-0.0002,-5e-05,1e-05,4,10
18447,-1e-05,6e-05,0.00017,-9e-05,-0.00084,-0.0002,-5e-05,1e-05,4,10
18448,-1e-05,6e-05,0.00017,-9e-05,-0.00084,-0.0002,-5e-05,1e-05,4,10
18449,-1e-05,6e-05,0.00017,-9e-05,-0.00084,-0.0002,-5e-05,1e-05,4,10
18450,-1e-05,6e-05,0.00017,-9e-05,-0.00084,-0.0002,-5e-05,1e-05,4,10
18451,-1e-05,6e-05,0.00017,-9e-05,-0.00084,-0.0002,-5e-05,1e-05,4,10
18452,-1e-05,6e-05,0.00017,-9e-05,-0.00084,-0.0002,-5e-05,1e-05,4,10
18453,-1e-05,6e-05,0.00017,-9e-05,-0.00084,-0.0002,-5e-05,1e-05,4,10
18454,-1e-05,6e-05,0.00017,-9e-05,-0.00084,-0.0002,-5e-05,1e-05,4,10
18455,-1e-05,6e-05,0.00017,-9e-05,-0.00084,-0.0002,-5e-05,1e-05,4,10
18456,-1e-05,6e-05,0.00017,-9e-05,-0.00084,-0.0002,-5e-05,1e-05,4,10
18457,-1e-05,6e-05,0.00017,-9e-05,-0.00084,-0.0002,-5e-05,1e-05,4,10
18458,-1e-05,6e-05,0.00017,-9e-05,-0.00084,-0.0002,-5e-05,1e-05,4,10
18459,-1e-05,6e-05,0.00017,-9e-05,-0.00084,-0.0002,-5e-05,1e-05,4,10
18460,-1e-05,6e-05,0.00017,-9e-05,-0.00084,-0.0002,-5e-05,1e-05,4,10
18461,-1e-05,6e-05,0.00017,-9e-05,-0.00084,-0.0002,-5e-05,1e-05,4,10
18462,-1e-05,6e-05,0.00017,-9e-05,-0.00084,-0.0002,-5e-05,1e-05,4,10
18463,-1e-05,6e-05,0.00017,-9e-05,-0.00084,-0.0002,-5e-05,1e-05,4,10
18464,0,5e-05,0.00017,-0.00023,-4e-05,-0.0002,1e-05,1e-05,4,10
18465,0,5e-05,0.00017,-0.00023,-4e-05,-0.0002,1e-05,1e-05,4,10
18466,-0.00012,-0.00021,-0.00033,-8e-05,-0.00091,-0.0003,-0.00011,-7e-05,4,10
18467,-3e-05,-0.0001,-0.00019,-0.00032,-0.00058,-0.00019,-7e-05,-4e-05,4,10
18468,-3e-05,-0.0001,-0.00019,-0.00032,-0.00058,-0.00019,-7e-05,-4e-05,4,10
18469,-3e-05,-0.0001,-0.00019,-0.00032,-0.00058,-0.00019,-7e-05,-4e-05,4,10
18470,-3e-05,-0.0001,-0.00019,-0.00032,-0.00058,-0.00019,-7e-05,-4e-05,4,10
18471,-3e-05,-0.0001,-0.00019,-0.00032,-0.00058,-0.00019,-7e-05,-4e-05,4,10
18472,-3e-05,-0.0001,-0.00019,-0.00032,-0.00058,-0.00019,-7e-05,-4e-05,4,10
18473,-3e-05,-0.0001,-0.00019,-0.00032,-0.00058,-0.00019,-7e-05,-4e-05,4,10
18474,-3e-05,-0.0001,-0.00019,-0.00032,-0.00058,-0.00019,-7e-05,-4e-05,4,10
18475,-3e-05,-0.0001,-0.00019,-0.00032,-0.00058,-0.00019,-7e-05,-4e-05,4,10
18476,-3e-05,-0.0001,-0.00019,-0.00032,-0.00058,-0.00019,-7e-05,-4e-05,4,10
18477,2e-05,5e-05,9e-05,0.00031,0.00091,4e-05,1e-05,2e-05,4,10
18478,1e-05,5e-05,9e-05,0.00026,-0.001,0.00038,-3e-05,-2e-05,4,10
18479,1e-05,5e-05,9e-05,0.00026,-0.001,0.00038,-3e-05,-2e-05,4,10
18480,1e-05,5e-05,9e-05,0.00026,-0.001,0.00038,-3e-05,-2e-05,4,10
18481,1e-05,5e-05,9e-05,0.00026,-0.001,0.00038,-3e-05,-2e-05,4,10
18482,1e-05,5e-05,9e-05,0.00026,-0.001,0.00038,-3e-05,-2e-05,4,10
18483,1e-05,5e-05,9e-05,0.00026,-0.001,0.00038,-3e-05,-2e-05,4,10
18484,1e-05,5e-05,9e-05,0.00026,-0.001,0.00038,-3e-05,-2e-05,4,10
18485,1e-05,5e-05,9e-05,0.00026,-0.001,0.00038,-3e-05,-2e-05,4,10
18486,1e-05,5e-05,9e-05,0.00026,-0.001,0.00038,-3e-05,-2e-05,4,10
18488,-2e-05,-3e-05,-1e-05,0.00012,-0.00067,-3e-05,-4e-05,-1e-05,4,10
18489,-2e-05,-3e-05,-1e-05,0.00012,-0.00067,-3e-05,-4e-05,-1e-05,4,10
18490,-2e-05,-3e-05,-1e-05,0.00012,-0.00067,-3e-05,-4e-05,-1e-05,4,10
18491,-2e-05,-3e-05,-1e-05,0.00012,-0.00067,-3e-05,-4e-05,-1e-05,4,10
18492,-2e-05,-3e-05,-1e-05,0.00012,-0.00067,-3e-05,-4e-05,-1e-05,4,10
18493,-2e-05,-3e-05,-1e-05,0.00012,-0.00067,-3e-05,-4e-05,-1e-05,4,10
18494,-2e-05,-3e-05,-1e-05,0.00012,-0.00067,-3e-05,-4e-05,-1e-05,4,10
18495,-2e-05,-3e-05,-1e-05,0.00012,-0.00067,-3e-05,-4e-05,-1e-05,4,10
18496,-2e-05,-3e-05,-1e-05,0.00012,-0.00067,-3e-05,-4e-05,-1e-05,4,10
18497,-2e-05,-3e-05,-1e-05,0.00012,-0.00067,-3e-05,-4e-05,-1e-05,4,10
18498,-2e-05,-3e-05,-1e-05,0.00012,-0.00067,-3e-05,-4e-05,-1e-05,4,10
18499,-2e-05,-3e-05,-1e-05,0.00012,-0.00067,-3e-05,-4e-05,-1e-05,4,10
18500,-2e-05,-3e-05,-1e-05,0.00012,-0.00067,-3e-05,-4e-05,-1e-05,4,10
18501,-2e-05,-3e-05,-1e-05,0.00012,-0.00067,-3e-05,-4e-05,-1e-05,4,10
18502,-5e-05,-0.0001,-0.00035,-1e-05,-0.00012,0.00011,-2e-05,-4e-05,4,10
18503,-5e-05,-0.0001,-0.00035,-1e-05,-0.00012,0.00011,-2e-05,-4e-05,4,10
18504,7e-05,0.00015,0.00019,-0.00022,-0.00019,0.00045,7e-05,8e-05,4,10
18505,7e-05,0.00015,0.00019,-0.00022,-0.00019,0.00045,7e-05,8e-05,4,10
18506,7e-05,0.00015,0.00019,-0.00022,-0.00019,0.00045,7e-05,8e-05,4,10
18507,7e-05,0.00015,0.00019,-0.00022,-0.00019,0.00045,7e-05,8e-05,4,10
18508,7e-05,0.00015,0.00019,-0.00022,-0.00019,0.00045,7e-05,8e-05,4,10
18509,7e-05,0.00015,0.00019,-0.00022,-0.00019,0.00045,7e-05,8e-05,4,10
18510,7e-05,0.00015,0.00019,-0.00022,-0.00019,0.00045,7e-05,8e-05,4,10
18511,7e-05,0.00015,0.00019,-0.00022,-0.00019,0.00045,7e-05,8e-05,4,10
18512,7e-05,0.00015,0.00019,-0.00022,-0.00019,0.00045,7e-05,8e-05,4,10
18513,7e-05,0.00015,0.00019,-0.00022,-0.00019,0.00045,7e-05,8e-05,4,10
18514,7e-05,0.00015,0.00019,-0.00022,-0.00019,0.00045,7e-05,8e-05,4,10
18515,7e-05,0.00015,0.00019,-0.00022,-0.00019,0.00045,7e-05,8e-05,4,10
18516,7e-05,0.00015,0.00019,-0.00022,-0.00019,0.00045,7e-05,8e-05,4,10
18517,7e-05,0.00015,0.00019,-0.00022,-0.00019,0.00045,7e-05,8e-05,4,10
18518,7e-05,0.00015,0.00019,-0.00022,-0.00019,0.00045,7e-05,8e-05,4,10
18520,7e-05,0.00015,0.00019,-0.00022,-0.00019,0.00045,7e-05,8e-05,4,10
18521,7e-05,0.00015,0.00019,-0.00022,-0.00019,0.00045,7e-05,8e-05,4,10
18522,7e-05,0.00015,0.00019,-0.00022,-0.00019,0.00045,7e-05,8e-05,4,10
18523,7e-05,0.00015,0.00019,-0.00022,-0.00019,0.00045,7e-05,8e-05,4,10
18524,-6e-05,-4e-05,-3e-05,-0.00039,-0.00029,-0.00045,-8e-05,-3e-05,4,10
18525,-2e-05,-5e-05,-0.00011,-0.0002,-0.00086,-0.00035,2e-05,-3e-05,4,10
18527,-2e-05,-5e-05,-0.00011,-0.0002,-0.00086,-0.00035,2e-05,-3e-05,4,10
18528,-2e-05,-5e-05,-0.00011,-0.0002,-0.00086,-0.00035,2e-05,-3e-05,4,10
18529,-2e-05,-5e-05,-0.00011,-0.0002,-0.00086,-0.00035,2e-05,-3e-05,4,10
18530,-2e-05,-5e-05,-0.00011,-0.0002,-0.00086,-0.00035,2e-05,-3e-05,4,10
18531,-2e-05,-5e-05,-0.00011,-0.0002,-0.00086,-0.00035,2e-05,-3e-05,4,10
18532,-2e-05,-5e-05,-0.00011,-0.0002,-0.00086,-0.00035,2e-05,-3e-05,4,10
18533,-2e-05,-5e-05,-0.00011,-0.0002,-0.00086,-0.00035,2e-05,-3e-05,4,10
18534,-2e-05,-5e-05,-0.00011,-0.0002,-0.00086,-0.00035,2e-05,-3e-05,4,10
18535,-2e-05,-5e-05,-0.00011,-0.0002,-0.00086,-0.00035,2e-05,-3e-05,4,10
18536,-2e-05,-5e-05,-0.00011,-0.0002,-0.00086,-0.00035,2e-05,-3e-05,4,10
18538,-2e-05,-5e-05,-0.00011,-0.0002,-0.00086,-0.00035,2e-05,-3e-05,4,10
18539,-2e-05,-5e-05,-0.00011,-0.0002,-0.00086,-0.00035,2e-05,-3e-05,4,10
18540,-2e-05,-5e-05,-0.00011,-0.0002,-0.00086,-0.00035,2e-05,-3e-05,4,10
18541,-2e-05,-5e-05,-0.00011,-0.0002,-0.00086,-0.00035,2e-05,-3e-05,4,10
18542,-2e-05,-5e-05,-0.00011,-0.0002,-0.00086,-0.00035,2e-05,-3e-05,4,10
18543,-2e-05,-5e-05,-0.00011,-0.0002,-0.00086,-0.00035,2e-05,-3e-05,4,10
18544,-2e-05,-5e-05,-0.00011,-0.0002,-0.00086,-0.00035,2e-05,-3e-05,4,10
18545,-2e-05,-5e-05,-0.00011,-0.0002,-0.00086,-0.00035,2e-05,-3e-05,4,10
18546,-1e-05,-1e-05,-1e-05,-0.00042,-0.00018,-0.00031,-8e-05,-2e-05,4,10
18547,-2e-05,-5e-05,-5e-05,1e-05,0.00061,0.00045,0.00019,5e-05,4,10
18548,-2e-05,-1e-05,-4e-05,-6e-05,-0.0001,1e-05,-8e-05,-4e-05,4,10
18549,-2e-05,-1e-05,-4e-05,-6e-05,-0.0001,1e-05,-8e-05,-4e-05,4,10
18550,-2e-05,-1e-05,-4e-05,-6e-05,-0.0001,1e-05,-8e-05,-4e-05,4,10
18551,-2e-05,-1e-05,-4e-05,-6e-05,-0.0001,1e-05,-8e-05,-4e-05,4,10
18552,-2e-05,-1e-05,-4e-05,-6e-05,-0.0001,1e-05,-8e-05,-4e-05,4,10
18553,-2e-05,-1e-05,-4e-05,-6e-05,-0.0001,1e-05,-8e-05,-4e-05,4,10
18554,-2e-05,-1e-05,-4e-05,-6e-05,-0.0001,1e-05,-8e-05,-4e-05,4,10
18555,-2e-05,-1e-05,-4e-05,-6e-05,-0.0001,1e-05,-8e-05,-4e-05,4,10
18556,-2e-05,-1e-05,-4e-05,-6e-05,-0.0001,1e-05,-8e-05,-4e-05,4,10
18557,-2e-05,-1e-05,-4e-05,-6e-05,-0.0001,1e-05,-8e-05,-4e-05,4,10
18558,-2e-05,-1e-05,-4e-05,-6e-05,-0.0001,1e-05,-8e-05,-4e-05,4,10
18559,-2e-05,-1e-05,-4e-05,-6e-05,-0.0001,1e-05,-8e-05,-4e-05,4,10
18560,-2e-05,-1e-05,-4e-05,-6e-05,-0.0001,1e-05,-8e-05,-4e-05,4,10
18561,3e-05,5e-05,0.00011,-0.00031,1e-05,0.00021,6e-05,3e-05,4,10
18562,3e-05,5e-05,0.00011,-0.00031,1e-05,0.00021,6e-05,3e-05,4,10
18563,5e-05,4e-05,5e-05,0.00071,0.00083,0.00041,0.00019,5e-05,4,10
18564,5e-05,4e-05,5e-05,0.00071,0.00083,0.00041,0.00019,5e-05,4,10
18565,5e-05,4e-05,5e-05,0.00071,0.00083,0.00041,0.00019,5e-05,4,10
18566,5e-05,4e-05,5e-05,0.00071,0.00083,0.00041,0.00019,5e-05,4,10
18567,5e-05,4e-05,5e-05,0.00071,0.00083,0.00041,0.00019,5e-05,4,10
18568,5e-05,4e-05,5e-05,0.00071,0.00083,0.00041,0.00019,5e-05,4,10
18569,5e-05,4e-05,5e-05,0.00071,0.00083,0.00041,0.00019,5e-05,4,10
18570,5e-05,4e-05,5e-05,0.00071,0.00083,0.00041,0.00019,5e-05,4,10
18571,5e-05,4e-05,5e-05,0.00071,0.00083,0.00041,0.00019,5e-05,4,10
18572,5e-05,4e-05,5e-05,0.00071,0.00083,0.00041,0.00019,5e-05,4,10
18573,5e-05,4e-05,5e-05,0.00071,0.00083,0.00041,0.00019,5e-05,4,10
18574,5e-05,4e-05,5e-05,0.00071,0.00083,0.00041,0.00019,5e-05,4,10
18575,5e-05,4e-05,5e-05,0.00071,0.00083,0.00041,0.00019,5e-05,4,10
18576,5e-05,4e-05,5e-05,0.00071,0.00083,0.00041,0.00019,5e-05,4,10
18577,5e-05,4e-05,5e-05,0.00071,0.00083,0.00041,0.00019,5e-05,4,10
18578,5e-05,4e-05,5e-05,0.00071,0.00083,0.00041,0.00019,5e-05,4,10
18579,5e-05,4e-05,5e-05,0.00071,0.00083,0.00041,0.00019,5e-05,4,10
18580,5e-05,4e-05,5e-05,0.00071,0.00083,0.00041,0.00019,5e-05,4,10
18581,5e-05,4e-05,5e-05,0.00071,0.00083,0.00041,0.00019,5e-05,4,10
18582,5e-05,4e-05,5e-05,0.00071,0.00083,0.00041,0.00019,5e-05,4,10
18583,5e-05,4e-05,5e-05,0.00071,0.00083,0.00041,0.00019,5e-05,4,10
18584,-2e-05,-3e-05,-1e-05,9e-05,0.00061,0.00013,7e-05,1e-05,4,10
18585,2e-05,5e-05,0.00019,-0.00025,0,0.00012,-3e-05,2e-05,4,10
18586,-8e-05,-0.00014,-0.00026,-0.00074,-3e-05,9e-05,-0.00013,-0.0001,4,10
18588,-8e-05,-0.00014,-0.00026,-0.00074,-3e-05,9e-05,-0.00013,-0.0001,4,10
18589,-8e-05,-0.00014,-0.00026,-0.00074,-3e-05,9e-05,-0.00013,-0.0001,4,10
18590,-8e-05,-0.00014,-0.00026,-0.00074,-3e-05,9e-05,-0.00013,-0.0001,4,10
18591,-8e-05,-0.00014,-0.00026,-0.00074,-3e-05,9e-05,-0.00013,-0.0001,4,10
18592,-8e-05,-0.00014,-0.00026,-0.00074,-3e-05,9e-05,-0.00013,-0.0001,4,10
18593,-8e-05,-0.00014,-0.00026,-0.00074,-3e-05,9e-05,-0.00013,-0.0001,4,10
18594,-8e-05,-0.00014,-0.00026,-0.00074,-3e-05,9e-05,-0.00013,-0.0001,4,10
18595,-8e-05,-0.00014,-0.00026,-0.00074,-3e-05,9e-05,-0.00013,-0.0001,4,10
18596,-8e-05,-0.00014,-0.00026,-0.00074,-3e-05,9e-05,-0.00013,-0.0001,4,10
18597,-8e-05,-0.00014,-0.00026,-0.00074,-3e-05,9e-05,-0.00013,-0.0001,4,10
18598,-8e-05,-0.00014,-0.00026,-0.00074,-3e-05,9e-05,-0.00013,-0.0001,4,10
18599,-8e-05,-0.00014,-0.00026,-0.00074,-3e-05,9e-05,-0.00013,-0.0001,4,10
18600,-8e-05,-0.00014,-0.00026,-0.00074,-3e-05,9e-05,-0.00013,-0.0001,4,10
18601,-8e-05,-0.00014,-0.00026,-0.00074,-3e-05,9e-05,-0.00013,-0.0001,4,10
18602,-8e-05,-0.00014,-0.00026,-0.00074,-3e-05,9e-05,-0.00013,-0.0001,4,10
18603,-8e-05,-0.00014,-0.00026,-0.00074,-3e-05,9e-05,-0.00013,-0.0001,4,10
18604,-8e-05,-0.00014,-0.00026,-0.00074,-3e-05,9e-05,-0.00013,-0.0001,4,10
18605,-8e-05,-0.00014,-0.00026,-0.00074,-3e-05,9e-05,-0.00013,-0.0001,4,10
18606,-1e-05,0,3e-05,0,-0.00054,1e-05,-5e-05,-3e-05,4,10
18607,-1e-05,0,3e-05,0,-0.00054,1e-05,-5e-05,-3e-05,4,10
18608,-4e-05,-5e-05,-6e-05,-0.00012,6e-05,-0.00037,-5e-05,-5e-05,4,10
18609,-4e-05,-5e-05,-6e-05,-0.00012,6e-05,-0.00037,-5e-05,-5e-05,4,10
18610,-4e-05,-5e-05,-6e-05,-0.00012,6e-05,-0.00037,-5e-05,-5e-05,4,10
18611,-4e-05,-5e-05,-6e-05,-0.00012,6e-05,-0.00037,-5e-05,-5e-05,4,10
18612,-4e-05,-5e-05,-6e-05,-0.00012,6e-05,-0.00037,-5e-05,-5e-05,4,10
18613,-4e-05,-5e-05,-6e-05,-0.00012,6e-05,-0.00037,-5e-05,-5e-05,4,10
18614,-4e-05,-5e-05,-6e-05,-0.00012,6e-05,-0.00037,-5e-05,-5e-05,4,10
18615,-4e-05,-5e-05,-6e-05,-0.00012,6e-05,-0.00037,-5e-05,-5e-05,4,10
18616,-4e-05,-5e-05,-6e-05,-0.00012,6e-05,-0.00037,-5e-05,-5e-05,4,10
18617,-4e-05,-5e-05,-6e-05,-0.00012,6e-05,-0.00037,-5e-05,-5e-05,4,10
18618,-4e-05,-5e-05,-6e-05,-0.00012,6e-05,-0.00037,-5e-05,-5e-05,4,10
18619,-4e-05,-5e-05,-6e-05,-0.00012,6e-05,-0.00037,-5e-05,-5e-05,4,10
18620,-4e-05,-5e-05,-6e-05,-0.00012,6e-05,-0.00037,-5e-05,-5e-05,4,10
18621,-4e-05,-5e-05,-6e-05,-0.00012,6e-05,-0.00037,-5e-05,-5e-05,4,10
18622,1e-05,-2e-05,-2e-05,8e-05,0.00063,0.0005,6e-05,0,4,10
18623,-1e-05,-2e-05,-2e-05,-0.00025,-0.00108,-0.00037,-0.00011,-1e-05,4,10
18624,1e-05,-3e-05,-0.00011,0.00036,0.00107,0.00032,7e-05,2e-05,4,10
18625,1e-05,-3e-05,-0.00011,0.00036,0.00107,0.00032,7e-05,2e-05,4,10
18626,1e-05,-3e-05,-0.00011,0.00036,0.00107,0.00032,7e-05,2e-05,4,10
18627,1e-05,-3e-05,-0.00011,0.00036,0.00107,0.00032,7e-05,2e-05,4,10
18628,1e-05,-3e-05,-0.00011,0.00036,0.00107,0.00032,7e-05,2e-05,4,10
18629,1e-05,-3e-05,-0.00011,0.00036,0.00107,0.00032,7e-05,2e-05,4,10
18630,1e-05,-3e-05,-0.00011,0.00036,0.00107,0.00032,7e-05,2e-05,4,10
18631,1e-05,-3e-05,-0.00011,0.00036,0.00107,0.00032,7e-05,2e-05,4,10
18632,1e-05,-3e-05,-0.00011,0.00036,0.00107,0.00032,7e-05,2e-05,4,10
18633,1e-05,-3e-05,-0.00011,0.00036,0.00107,0.00032,7e-05,2e-05,4,10
18634,1e-05,-3e-05,-0.00011,0.00036,0.00107,0.00032,7e-05,2e-05,4,10
18635,1e-05,-3e-05,-0.00011,0.00036,0.00107,0.00032,7e-05,2e-05,4,10
18636,1e-05,-3e-05,-0.00011,0.00036,0.00107,0.00032,7e-05,2e-05,4,10
18638,1e-05,-3e-05,-0.00011,0.00036,0.00107,0.00032,7e-05,2e-05,4,10
18639,1e-05,-3e-05,-0.00011,0.00036,0.00107,0.00032,7e-05,2e-05,4,10
18640,1e-05,-3e-05,-0.00011,0.00036,0.00107,0.00032,7e-05,2e-05,4,10
18641,1e-05,-3e-05,-0.00011,0.00036,0.00107,0.00032,7e-05,2e-05,4,10
18642,1e-05,-3e-05,-0.00011,0.00036,0.00107,0.00032,7e-05,2e-05,4,10
18643,1e-05,-3e-05,-0.00011,0.00036,0.00107,0.00032,7e-05,2e-05,4,10
18644,-6e-05,-7e-05,-0.00015,-0.00013,-0.00037,-9e-05,-6e-05,-3e-05,4,10
18645,-2e-05,5e-05,4e-05,-9e-05,-0.00066,0.0003,-7e-05,-3e-05,4,10
18646,-7e-05,-0.0001,-5e-05,-0.00063,-0.00085,-0.00048,-0.00014,-7e-05,4,10
18647,-7e-05,-0.0001,-5e-05,-0.00063,-0.00085,-0.00048,-0.00014,-7e-05,4,10
18648,-7e-05,-0.0001,-5e-05,-0.00063,-0.00085,-0.00048,-0.00014,-7e-05,4,10
18649,-7e-05,-0.0001,-5e-05,-0.00063,-0.00085,-0.00048,-0.00014,-7e-05,4,10
18650,-7e-05,-0.0001,-5e-05,-0.00063,-0.00085,-0.00048,-0.00014,-7e-05,4,10
18651,-7e-05,-0.0001,-5e-05,-0.00063,-0.00085,-0.00048,-0.00014,-7e-05,4,10
18652,-7e-05,-0.0001,-5e-05,-0.00063,-0.00085,-0.00048,-0.00014,-7e-05,4,10
18653,-7e-05,-0.0001,-5e-05,-0.00063,-0.00085,-0.00048,-0.00014,-7e-05,4,10
18654,-7e-05,-0.0001,-5e-05,-0.00063,-0.00085,-0.00048,-0.00014,-7e-05,4,10
18655,-7e-05,-0.0001,-5e-05,-0.00063,-0.00085,-0.00048,-0.00014,-7e-05,4,10
18656,-7e-05,-0.0001,-5e-05,-0.00063,-0.00085,-0.00048,-0.00014,-7e-05,4,10
18657,-7e-05,-0.0001,-5e-05,-0.00063,-0.00085,-0.00048,-0.00014,-7e-05,4,10
18658,-7e-05,-0.0001,-5e-05,-0.00063,-0.00085,-0.00048,-0.00014,-7e-05,4,10
18659,-7e-05,-0.0001,-5e-05,-0.00063,-0.00085,-0.00048,-0.00014,-7e-05,4,10
18661,-7e-05,-0.0001,-5e-05,-0.00063,-0.00085,-0.00048,-0.00014,-7e-05,4,10
18662,-7e-05,-0.0001,-5e-05,-0.00063,-0.00085,-0.00048,-0.00014,-7e-05,4,10
18663,-7e-05,-0.0001,-5e-05,-0.00063,-0.00085,-0.00048,-0.00014,-7e-05,4,10
