17455,-2e-05,1e-05,2e-05,0.00046,-0.00106,-0.00012,-0.00013,-2e-05,4,11
17456,-2e-05,1e-05,2e-05,0.00046,-0.00106,-0.00012,-0.00013,-2e-05,4,11
17457,-2e-05,1e-05,2e-05,0.00046,-0.00106,-0.00012,-0.00013,-2e-05,4,11
17458,-2e-05,1e-05,2e-05,0.00046,-0.00106,-0.00012,-0.00013,-2e-05,4,11
17459,-2e-05,1e-05,2e-05,0.00046,-0.00106,-0.00012,-0.00013,-2e-05,4,11
17460,-2e-05,1e-05,2e-05,0.00046,-0.00106,-0.00012,-0.00013,-2e-05,4,11
17461,-2e-05,1e-05,2e-05,0.00046,-0.00106,-0.00012,-0.00013,-2e-05,4,11
17462,-2e-05,1e-05,2e-05,0.00046,-0.00106,-0.00012,-0.00013,-2e-05,4,11
17463,-2e-05,1e-05,2e-05,0.00046,-0.00106,-0.00012,-0.00013,-2e-05,4,11
17464,-2e-05,1e-05,2e-05,0.00046,-0.00106,-0.00012,-0.00013,-2e-05,4,11
17465,-2e-05,1e-05,2e-05,0.00046,-0.00106,-0.00012,-0.00013,-2e-05,4,11
17466,-2e-05,1e-05,2e-05,0.00046,-0.00106,-0.00012,-0.00013,-2e-05,4,11
17467,-2e-05,1e-05,2e-05,0.00046,-0.00106,-0.00012,-0.00013,-2e-05,4,11
17468,-7e-05,-0.00014,-0.00035,0.00098,-0.00061,-0.00065,-0.0002,-0.0001,4,11
17469,-7e-05,-0.00014,-0.00035,0.00098,-0.00061,-0.00065,-0.0002,-0.0001,4,11
17470,2e-05,4e-05,5e-05,-0.00021,0.00034,0.00034,-1e-05,2e-05,4,11
17471,2e-05,4e-05,5e-05,-0.00021,0.00034,0.00034,-1e-05,2e-05,4,11
17472,2e-05,4e-05,5e-05,-0.00021,0.00034,0.00034,-1e-05,2e-05,4,11
17473,2e-05,4e-05,5e-05,-0.00021,0.00034,0.00034,-1e-05,2e-05,4,11
17474,2e-05,4e-05,5e-05,-0.00021,0.00034,0.00034,-1e-05,2e-05,4,11
17475,2e-05,4e-05,5e-05,-0.00021,0.00034,0.00034,-1e-05,2e-05,4,11
17476,2e-05,4e-05,5e-05,-0.00021,0.00034,0.00034,-1e-05,2e-05,4,11
17477,2e-05,4e-05,5e-05,-0.00021,0.00034,0.00034,-1e-05,2e-05,4,11
17478,2e-05,4e-05,5e-05,-0.00021,0.00034,0.00034,-1e-05,2e-05,4,11
17479,2e-05,4e-05,5e-05,-0.00021,0.00034,0.00034,-1e-05,2e-05,4,11
17480,2e-05,4e-05,5e-05,-0.00021,0.00034,0.00034,-1e-05,2e-05,4,11
17481,2e-05,4e-05,5e-05,-0.00021,0.00034,0.00034,-1e-05,2e-05,4,11
17482,2e-05,4e-05,5e-05,-0.00021,0.00034,0.00034,-1e-05,2e-05,4,11
17483,2e-05,4e-05,5e-05,-0.00021,0.00034,0.00034,-1e-05,2e-05,4,11
17484,2e-05,4e-05,5e-05,-0.00021,0.00034,0.00034,-1e-05,2e-05,4,11
17485,2e-05,4e-05,5e-05,-0.00021,0.00034,0.00034,-1e-05,2e-05,4,11
17486,2e-05,4e-05,5e-05,-0.00021,0.00034,0.00034,-1e-05,2e-05,4,11
17488,2e-05,4e-05,5e-05,-0.00021,0.00034,0.00034,-1e-05,2e-05,4,11
17489,2e-05,4e-05,5e-05,-0.00021,0.00034,0.00034,-1e-05,2e-05,4,11
17490,0.00017,0.00039,0.00105,0.00127,-0.00047,0.00045,0.00022,0.00014,4,11
17491,0.00017,0.00039,0.00105,0.00127,-0.00047,0.00045,0.00022,0.00014,4,11
17492,-3e-05,-0.0001,-0.00021,-0.00014,0.00089,-0.00117,-9e-05,-4e-05,4,11
17493,-3e-05,-0.0001,-0.00021,-0.00014,0.00089,-0.00117,-9e-05,-4e-05,4,11
17494,-3e-05,-0.0001,-0.00021,-0.00014,0.00089,-0.00117,-9e-05,-4e-05,4,11
17495,-3e-05,-0.0001,-0.00021,-0.00014,0.00089,-0.00117,-9e-05,-4e-05,4,11
17496,-3e-05,-0.0001,-0.00021,-0.00014,0.00089,-0.00117,-9e-05,-4e-05,4,11
17497,-3e-05,-0.0001,-0.00021,-0.00014,0.00089,-0.00117,-9e-05,-4e-05,4,11
17498,-3e-05,-0.0001,-0.00021,-0.00014,0.00089,-0.00117,-9e-05,-4e-05,4,11
17499,-3e-05,-0.0001,-0.00021,-0.00014,0.00089,-0.00117,-9e-05,-4e-05,4,11
17500,-3e-05,-0.0001,-0.00021,-0.00014,0.00089,-0.00117,-9e-05,-4e-05,4,11
17501,-3e-05,-0.0001,-0.00021,-0.00014,0.00089,-0.00117,-9e-05,-4e-05,4,11
17502,-3e-05,-0.0001,-0.00021,-0.00014,0.00089,-0.00117,-9e-05,-4e-05,4,11
17503,-3e-05,-0.0001,-0.00021,-0.00014,0.00089,-0.00117,-9e-05,-4e-05,4,11
17504,-3e-05,-0.0001,-0.00021,-0.00014,0.00089,-0.00117,-9e-05,-4e-05,4,11
17505,-3e-05,-0.0001,-0.00021,-0.00014,0.00089,-0.00117,-9e-05,-4e-05,4,11
17506,-3e-05,-0.0001,-0.00021,-0.00014,0.00089,-0.00117,-9e-05,-4e-05,4,11
17507,-3e-05,-0.0001,-0.00021,-0.00014,0.00089,-0.00117,-9e-05,-4e-05,4,11
17508,-3e-05,-0.0001,-0.00021,-0.00014,0.00089,-0.00117,-9e-05,-4e-05,4,11
17509,-3e-05,-0.0001,-0.00021,-0.00014,0.00089,-0.00117,-9e-05,-4e-05,4,11
17510,-3e-05,-0.0001,-0.00021,-0.00014,0.00089,-0.00117,-9e-05,-4e-05,4,11
17511,-3e-05,-0.0001,-0.00021,-0.00014,0.00089,-0.00117,-9e-05,-4e-05,4,11
17512,-3e-05,-0.0001,-0.00021,-0.00014,0.00089,-0.00117,-9e-05,-4e-05,4,11
17513,2e-05,8e-05,0.00011,-0.00094,-0.00072,0.00028,-1e-05,-1e-05,4,11
17514,-9e-05,-0.00013,-0.00031,2e-05,-0.00059,-0.00057,-0.00023,-0.0001,4,11
17515,-9e-05,-0.00013,-0.00031,2e-05,-0.00059,-0.00057,-0.00023,-0.0001,4,11
17516,-9e-05,-0.00013,-0.00031,2e-05,-0.00059,-0.00057,-0.00023,-0.0001,4,11
17517,-9e-05,-0.00013,-0.00031,2e-05,-0.00059,-0.00057,-0.00023,-0.0001,4,11
17518,-9e-05,-0.00013,-0.00031,2e-05,-0.00059,-0.00057,-0.00023,-0.0001,4,11
17519,-9e-05,-0.00013,-0.00031,2e-05,-0.00059,-0.00057,-0.00023,-0.0001,4,11
17520,-9e-05,-0.00013,-0.00031,2e-05,-0.00059,-0.00057,-0.00023,-0.0001,4,11
17521,-9e-05,-0.00013,-0.00031,2e-05,-0.00059,-0.00057,-0.00023,-0.0001,4,11
17522,-9e-05,-0.00013,-0.00031,2e-05,-0.00059,-0.00057,-0.00023,-0.0001,4,11
17523,-9e-05,-0.00013,-0.00031,2e-05,-0.00059,-0.00057,-0.00023,-0.0001,4,11
17524,-9e-05,-0.00013,-0.00031,2e-05,-0.00059,-0.00057,-0.00023,-0.0001,4,11
17525,-9e-05,-0.00013,-0.00031,2e-05,-0.00059,-0.00057,-0.00023,-0.0001,4,11
17526,-9e-05,-0.00013,-0.00031,2e-05,-0.00059,-0.00057,-0.00023,-0.0001,4,11
17527,-9e-05,-0.00013,-0.00031,2e-05,-0.00059,-0.00057,-0.00023,-0.0001,4,11
17528,-4e-05,-1e-05,0.00014,0.00083,0.00047,0.00106,9e-05,-8e-05,4,11
17529,-4e-05,-1e-05,0.00014,0.00083,0.00047,0.00106,9e-05,-8e-05,4,11
17530,-0.00015,-0.00022,-0.00025,-6e-05,-0.00014,0.00013,-0.00019,-0.00011,4,11
17531,-0.00015,-0.00022,-0.00025,-6e-05,-0.00014,0.00013,-0.00019,-0.00011,4,11
17532,-0.00015,-0.00022,-0.00025,-6e-05,-0.00014,0.00013,-0.00019,-0.00011,4,11
17533,-0.00015,-0.00022,-0.00025,-6e-05,-0.00014,0.00013,-0.00019,-0.00011,4,11
17534,-0.00015,-0.00022,-0.00025,-6e-05,-0.00014,0.00013,-0.00019,-0.00011,4,11
17535,-0.00015,-0.00022,-0.00025,-6e-05,-0.00014,0.00013,-0.00019,-0.00011,4,11
17536,-0.00015,-0.00022,-0.00025,-6e-05,-0.00014,0.00013,-0.00019,-0.00011,4,11
17538,-0.00015,-0.00022,-0.00025,-6e-05,-0.00014,0.00013,-0.00019,-0.00011,4,11
17539,-0.00015,-0.00022,-0.00025,-6e-05,-0.00014,0.00013,-0.00019,-0.00011,4,11
17540,-0.00015,-0.00022,-0.00025,-6e-05,-0.00014,0.00013,-0.00019,-0.00011,4,11
17541,-0.00015,-0.00022,-0.00025,-6e-05,-0.00014,0.00013,-0.00019,-0.00011,4,11
17542,-0.00015,-0.00022,-0.00025,-6e-05,-0.00014,0.00013,-0.00019,-0.00011,4,11
17543,-0.00015,-0.00022,-0.00025,-6e-05,-0.00014,0.00013,-0.00019,-0.00011,4,11
17544,-0.00015,-0.00022,-0.00025,-6e-05,-0.00014,0.00013,-0.00019,-0.00011,4,11
17545,-0.00015,-0.00022,-0.00025,-6e-05,-0.00014,0.00013,-0.00019,-0.00011,4,11
17546,-0.00015,-0.00022,-0.00025,-6e-05,-0.00014,0.00013,-0.00019,-0.00011,4,11
17547,-0.00015,-0.00022,-0.00025,-6e-05,-0.00014,0.00013,-0.00019,-0.00011,4,11
17548,-0.00015,-0.00022,-0.00025,-6e-05,-0.00014,0.00013,-0.00019,-0.00011,4,11
17549,-0.00015,-0.00022,-0.00025,-6e-05,-0.00014,0.00013,-0.00019,-0.00011,4,11
17550,-0.00015,-0.00022,-0.00025,-6e-05,-0.00014,0.00013,-0.00019,-0.00011,4,11
17551,-0.00015,-0.00022,-0.00025,-6e-05,-0.00014,0.00013,-0.00019,-0.00011,4,11
17552,-0.00015,-0.00022,-0.00025,-6e-05,-0.00014,0.00013,-0.00019,-0.00011,4,11
17553,-0.00015,-0.00022,-0.00025,-6e-05,-0.00014,0.00013,-0.00019,-0.00011,4,11
17554,-0.00015,-0.00022,-0.00025,-6e-05,-0.00014,0.00013,-0.00019,-0.00011,4,11
17555,-0.00015,-0.00022,-0.00025,-6e-05,-0.00014,0.00013,-0.00019,-0.00011,4,11
17556,-0.00015,-0.00022,-0.00025,-6e-05,-0.00014,0.00013,-0.00019,-0.00011,4,11
17557,8e-05,0.00014,0.0002,-0.00065,-0.00128,-6e-05,0.00019,7e-05,4,11
17558,-9e-05,-0.00016,-0.00056,-0.00074,0.00048,-0.00034,-0.00022,-0.0001,4,11
17559,1e-05,3e-05,4e-05,7e-05,-0.00113,-0.00092,-5e-05,1e-05,4,11
17560,1e-05,3e-05,4e-05,7e-05,-0.00113,-0.00092,-5e-05,1e-05,4,11
17561,1e-05,3e-05,4e-05,7e-05,-0.00113,-0.00092,-5e-05,1e-05,4,11
17562,1e-05,3e-05,4e-05,7e-05,-0.00113,-0.00092,-5e-05,1e-05,4,11
17563,1e-05,3e-05,4e-05,7e-05,-0.00113,-0.00092,-5e-05,1e-05,4,11
17564,-1e-05,0,0.0002,0.00072,-0.00058,0.00054,0.00017,2e-05,4,11
17565,-1e-05,0,0.0002,0.00072,-0.00058,0.00054,0.00017,2e-05,4,11
17566,-1e-05,0,0.0002,0.00072,-0.00058,0.00054,0.00017,2e-05,4,11
17567,-1e-05,0,0.0002,0.00072,-0.00058,0.00054,0.00017,2e-05,4,11
17568,-1e-05,0,0.0002,0.00072,-0.00058,0.00054,0.00017,2e-05,4,11
17569,-1e-05,0,0.0002,0.00072,-0.00058,0.00054,0.00017,2e-05,4,11
17570,-1e-05,0,0.0002,0.00072,-0.00058,0.00054,0.00017,2e-05,4,11
17571,-3e-05,-4e-05,6e-05,8e-05,0.0001,0.00099,-6e-05,-2e-05,4,11
17572,-3e-05,-4e-05,6e-05,8e-05,0.0001,0.00099,-6e-05,-2e-05,4,11
17573,-3e-05,-4e-05,6e-05,8e-05,0.0001,0.00099,-6e-05,-2e-05,4,11
17574,-3e-05,-4e-05,6e-05,8e-05,0.0001,0.00099,-6e-05,-2e-05,4,11
17575,-3e-05,-4e-05,6e-05,8e-05,0.0001,0.00099,-6e-05,-2e-05,4,11
17576,-3e-05,-4e-05,6e-05,8e-05,0.0001,0.00099,-6e-05,-2e-05,4,11
17577,-3e-05,-4e-05,6e-05,8e-05,0.0001,0.00099,-6e-05,-2e-05,4,11
17578,-3e-05,-4e-05,6e-05,8e-05,0.0001,0.00099,-6e-05,-2e-05,4,11
17579,-3e-05,-4e-05,6e-05,8e-05,0.0001,0.00099,-6e-05,-2e-05,4,11
17580,-3e-05,-4e-05,6e-05,8e-05,0.0001,0.00099,-6e-05,-2e-05,4,11
17581,-3e-05,-4e-05,6e-05,8e-05,0.0001,0.00099,-6e-05,-2e-05,4,11
17582,-3e-05,-4e-05,6e-05,8e-05,0.0001,0.00099,-6e-05,-2e-05,4,11
17583,-3e-05,-4e-05,6e-05,8e-05,0.0001,0.00099,-6e-05,-2e-05,4,11
17584,-3e-05,-4e-05,6e-05,8e-05,0.0001,0.00099,-6e-05,-2e-05,4,11
17585,-3e-05,-4e-05,6e-05,8e-05,0.0001,0.00099,-6e-05,-2e-05,4,11
17586,-3e-05,-4e-05,6e-05,8e-05,0.0001,0.00099,-6e-05,-2e-05,4,11
17589,0.00015,0.00018,0.00034,0.00015,0.00037,0.00024,0.00039,0.00023,4,11
17590,0.00015,0.00018,0.00034,0.00015,0.00037,0.00024,0.00039,0.00023,4,11
17591,0.00015,0.00018,0.00034,0.00015,0.00037,0.00024,0.00039,0.00023,4,11
17592,0.00015,0.00018,0.00034,0.00015,0.00037,0.00024,0.00039,0.00023,4,11
17593,0.00015,0.00018,0.00034,0.00015,0.00037,0.00024,0.00039,0.00023,4,11
17594,0.00015,0.00018,0.00034,0.00015,0.00037,0.00024,0.00039,0.00023,4,11
17595,0.00015,0.00018,0.00034,0.00015,0.00037,0.00024,0.00039,0.00023,4,11
17596,0.00015,0.00018,0.00034,0.00015,0.00037,0.00024,0.00039,0.00023,4,11
17597,0.00015,0.00018,0.00034,0.00015,0.00037,0.00024,0.00039,0.00023,4,11
17598,0.00015,0.00018,0.00034,0.00015,0.00037,0.00024,0.00039,0.00023,4,11
17599,0.00015,0.00018,0.00034,0.00015,0.00037,0.00024,0.00039,0.00023,4,11
17600,0.00015,0.00018,0.00034,0.00015,0.00037,0.00024,0.00039,0.00023,4,11
17601,0.00015,0.00018,0.00034,0.00015,0.00037,0.00024,0.00039,0.00023,4,11
17602,0.00015,0.00018,0.00034,0.00015,0.00037,0.00024,0.00039,0.00023,4,11
17603,0.00015,0.00018,0.00034,0.00015,0.00037,0.00024,0.00039,0.00023,4,11
17604,0.00015,0.00018,0.00034,0.00015,0.00037,0.00024,0.00039,0.00023,4,11
17605,0.00015,0.00018,0.00034,0.00015,0.00037,0.00024,0.00039,0.00023,4,11
17606,0.00015,0.00018,0.00034,0.00015,0.00037,0.00024,0.00039,0.00023,4,11
17607,0.00015,0.00018,0.00034,0.00015,0.00037,0.00024,0.00039,0.00023,4,11
17608,0.00015,0.00018,0.00034,0.00015,0.00037,0.00024,0.00039,0.00023,4,11
17609,0.00015,0.00018,0.00034,0.00015,0.00037,0.00024,0.00039,0.00023,4,11
17610,-3e-05,-8e-05,-0.00031,-0.00095,0.00058,-0.00031,4e-05,1e-05,4,11
17611,-3e-05,-8e-05,-0.00031,-0.00095,0.00058,-0.00031,4e-05,1e-05,4,11
17612,6e-05,0.00015,0.00035,-0.00063,-0.00078,-7e-05,7e-05,0,4,11
17613,6e-05,0.00015,0.00035,-0.00063,-0.00078,-7e-05,7e-05,0,4,11
17614,6e-05,0.00015,0.00035,-0.00063,-0.00078,-7e-05,7e-05,0,4,11
17615,6e-05,0.00015,0.00035,-0.00063,-0.00078,-7e-05,7e-05,0,4,11
17616,6e-05,0.00015,0.00035,-0.00063,-0.00078,-7e-05,7e-05,0,4,11
17617,6e-05,0.00015,0.00035,-0.00063,-0.00078,-7e-05,7e-05,0,4,11
17618,6e-05,0.00015,0.00035,-0.00063,-0.00078,-7e-05,7e-05,0,4,11
17619,6e-05,0.00015,0.00035,-0.00063,-0.00078,-7e-05,7e-05,0,4,11
17620,6e-05,0.00015,0.00035,-0.00063,-0.00078,-7e-05,7e-05,0,4,11
17621,6e-05,0.00015,0.00035,-0.00063,-0.00078,-7e-05,7e-05,0,4,11
17622,6e-05,0.00015,0.00035,-0.00063,-0.00078,-7e-05,7e-05,0,4,11
17623,6e-05,0.00015,0.00035,-0.00063,-0.00078,-7e-05,7e-05,0,4,11
17624,0.00012,0.00016,0.00038,0.00102,0.00127,0.00067,0.00033,0.00018,4,11
17625,0.00012,0.00016,0.00038,0.00102,0.00127,0.00067,0.00033,0.00018,4,11
17626,0.00012,0.00016,0.00038,0.00102,0.00127,0.00067,0.00033,0.00018,4,11
17627,0.00012,0.00016,0.00038,0.00102,0.00127,0.00067,0.00033,0.00018,4,11
17628,0.00012,0.00016,0.00038,0.00102,0.00127,0.00067,0.00033,0.00018,4,11
17629,0.00012,0.00016,0.00038,0.00102,0.00127,0.00067,0.00033,0.00018,4,11
17630,0.00012,0.00016,0.00038,0.00102,0.00127,0.00067,0.00033,0.00018,4,11
17631,6e-05,0.0001,0.0001,0.00049,0.00036,0.00012,0.00023,7e-05,4,11
17632,6e-05,0.0001,0.0001,0.00049,0.00036,0.00012,0.00023,7e-05,4,11
17633,6e-05,0.0001,0.0001,0.00049,0.00036,0.00012,0.00023,7e-05,4,11
17634,6e-05,0.0001,0.0001,0.00049,0.00036,0.00012,0.00023,7e-05,4,11
17635,6e-05,0.0001,0.0001,0.00049,0.00036,0.00012,0.00023,7e-05,4,11
17636,6e-05,0.0001,0.0001,0.00049,0.00036,0.00012,0.00023,7e-05,4,11
17638,6e-05,0.0001,0.0001,0.00049,0.00036,0.00012,0.00023,7e-05,4,11
17639,6e-05,0.0001,0.0001,0.00049,0.00036,0.00012,0.00023,7e-05,4,11
17640,6e-05,0.0001,0.0001,0.00049,0.00036,0.00012,0.00023,7e-05,4,11
17641,6e-05,0.0001,0.0001,0.00049,0.00036,0.00012,0.00023,7e-05,4,11
17642,6e-05,0.0001,0.0001,0.00049,0.00036,0.00012,0.00023,7e-05,4,11
17643,6e-05,0.0001,0.0001,0.00049,0.00036,0.00012,0.00023,7e-05,4,11
17644,6e-05,0.0001,0.0001,0.00049,0.00036,0.00012,0.00023,7e-05,4,11
17645,6e-05,0.0001,0.0001,0.00049,0.00036,0.00012,0.00023,7e-05,4,11
17646,6e-05,0.0001,0.0001,0.00049,0.00036,0.00012,0.00023,7e-05,4,11
17647,6e-05,0.0001,0.0001,0.00049,0.00036,0.00012,0.00023,7e-05,4,11
17648,-2e-05,3e-05,0.00037,0.00089,-0.00075,-0.00079,-0.00019,-0.0001,4,11
17649,0,-3e-05,-0.00036,-0.00059,-0.00038,6e-05,-6e-05,3e-05,4,11
17650,0,-3e-05,-0.00036,-0.00059,-0.00038,6e-05,-6e-05,3e-05,4,11
17651,0,-3e-05,-0.00036,-0.00059,-0.00038,6e-05,-6e-05,3e-05,4,11
17652,0,-3e-05,-0.00036,-0.00059,-0.00038,6e-05,-6e-05,3e-05,4,11
17653,0,-3e-05,-0.00036,-0.00059,-0.00038,6e-05,-6e-05,3e-05,4,11
17654,0,-3e-05,-0.00036,-0.00059,-0.00038,6e-05,-6e-05,3e-05,4,11
17655,0,-3e-05,-0.00036,-0.00059,-0.00038,6e-05,-6e-05,3e-05,4,11
17656,0,-3e-05,-0.00036,-0.00059,-0.00038,6e-05,-6e-05,3e-05,4,11
17657,0,-3e-05,-0.00036,-0.00059,-0.00038,6e-05,-6e-05,3e-05,4,11
17658,0,-3e-05,-0.00036,-0.00059,-0.00038,6e-05,-6e-05,3e-05,4,11
17659,0,-3e-05,-0.00036,-0.00059,-0.00038,6e-05,-6e-05,3e-05,4,11
17660,0,-3e-05,-0.00036,-0.00059,-0.00038,6e-05,-6e-05,3e-05,4,11
17661,0,-3e-05,-0.00036,-0.00059,-0.00038,6e-05,-6e-05,3e-05,4,11
17662,0,-3e-05,-0.00036,-0.00059,-0.00038,6e-05,-6e-05,3e-05,4,11
17663,0,-3e-05,-0.00036,-0.00059,-0.00038,6e-05,-6e-05,3e-05,4,11
17664,0,-3e-05,-0.00036,-0.00059,-0.00038,6e-05,-6e-05,3e-05,4,11
17665,0,-3e-05,-0.00036,-0.00059,-0.00038,6e-05,-6e-05,3e-05,4,11
17666,0,-3e-05,-0.00036,-0.00059,-0.00038,6e-05,-6e-05,3e-05,4,11
17667,0,-3e-05,-0.00036,-0.00059,-0.00038,6e-05,-6e-05,3e-05,4,11
17668,0,-3e-05,-0.00036,-0.00059,-0.00038,6e-05,-6e-05,3e-05,4,11
17669,0,-3e-05,-0.00036,-0.00059,-0.00038,6e-05,-6e-05,3e-05,4,11
17670,-6e-05,-0.00016,-0.00055,-0.00128,-0.00048,0.00041,5e-05,-2e-05,4,11
17671,7e-05,7e-05,0.00023,3e-05,8e-05,-0.00032,2e-05,7e-05,4,11
17672,1e-05,9e-05,0.00031,0.00041,-0.00099,0.00023,8e-05,1e-05,4,11
17673,1e-05,9e-05,0.00031,0.00041,-0.00099,0.00023,8e-05,1e-05,4,11
17674,1e-05,9e-05,0.00031,0.00041,-0.00099,0.00023,8e-05,1e-05,4,11
17675,1e-05,9e-05,0.00031,0.00041,-0.00099,0.00023,8e-05,1e-05,4,11
17676,1e-05,9e-05,0.00031,0.00041,-0.00099,0.00023,8e-05,1e-05,4,11
17677,1e-05,9e-05,0.00031,0.00041,-0.00099,0.00023,8e-05,1e-05,4,11
17678,1e-05,9e-05,0.00031,0.00041,-0.00099,0.00023,8e-05,1e-05,4,11
17679,1e-05,9e-05,0.00031,0.00041,-0.00099,0.00023,8e-05,1e-05,4,11
17680,1e-05,9e-05,0.00031,0.00041,-0.00099,0.00023,8e-05,1e-05,4,11
17681,1e-05,9e-05,0.00031,0.00041,-0.00099,0.00023,8e-05,1e-05,4,11
17682,1e-05,9e-05,0.00031,0.00041,-0.00099,0.00023,8e-05,1e-05,4,11
17683,1e-05,9e-05,0.00031,0.00041,-0.00099,0.00023,8e-05,1e-05,4,11
17684,-4e-05,-2e-05,0.00018,0.00111,0.00037,-0.00034,-0.00017,-8e-05,4,11
17685,-4e-05,-2e-05,0.00018,0.00111,0.00037,-0.00034,-0.00017,-8e-05,4,11
17686,-4e-05,-2e-05,0.00018,0.00111,0.00037,-0.00034,-0.00017,-8e-05,4,11
17688,-4e-05,-2e-05,0.00018,0.00111,0.00037,-0.00034,-0.00017,-8e-05,4,11
17689,-4e-05,-2e-05,0.00018,0.00111,0.00037,-0.00034,-0.00017,-8e-05,4,11
17690,-4e-05,-2e-05,0.00018,0.00111,0.00037,-0.00034,-0.00017,-8e-05,4,11
17691,-4e-05,-2e-05,0.00018,0.00111,0.00037,-0.00034,-0.00017,-8e-05,4,11
17692,-4e-05,-2e-05,0.00018,0.00111,0.00037,-0.00034,-0.00017,-8e-05,4,11
17693,-4e-05,-2e-05,0.00018,0.00111,0.00037,-0.00034,-0.00017,-8e-05,4,11
17694,-4e-05,-2e-05,0.00018,0.00111,0.00037,-0.00034,-0.00017,-8e-05,4,11
17695,-4e-05,-2e-05,0.00018,0.00111,0.00037,-0.00034,-0.00017,-8e-05,4,11
17696,-4e-05,-2e-05,0.00018,0.00111,0.00037,-0.00034,-0.00017,-8e-05,4,11
17697,-4e-05,-2e-05,0.00018,0.00111,0.00037,-0.00034,-0.00017,-8e-05,4,11
17698,-4e-05,-2e-05,0.00018,0.00111,0.00037,-0.00034,-0.00017,-8e-05,4,11
17699,-1e-05,-4e-05,-0.00015,0.00012,1e-05,0.00028,1e-05,-1e-05,4,11
17700,-1e-05,-4e-05,-0.00015,0.00012,1e-05,0.00028,1e-05,-1e-05,4,11
17701,-1e-05,-4e-05,-0.00015,0.00012,1e-05,0.00028,1e-05,-1e-05,4,11
17702,-1e-05,-4e-05,-0.00015,0.00012,1e-05,0.00028,1e-05,-1e-05,4,11
17703,-1e-05,-4e-05,-0.00015,0.00012,1e-05,0.00028,1e-05,-1e-05,4,11
17704,-1e-05,-4e-05,-0.00015,0.00012,1e-05,0.00028,1e-05,-1e-05,4,11
17705,-1e-05,-4e-05,-0.00015,0.00012,1e-05,0.00028,1e-05,-1e-05,4,11
17706,-1e-05,-4e-05,-0.00015,0.00012,1e-05,0.00028,1e-05,-1e-05,4,11
17707,4e-05,-5e-05,-0.00054,-0.00106,-0.00042,-0.00067,4e-05,5e-05,4,11
17708,-0.00016,-0.00015,7e-05,0.00086,0.00019,2e-05,-0.0003,-0.00022,4,11
17709,-4e-05,-2e-05,0,0.00034,0.00127,-0.00027,-0.00016,-6e-05,4,11
17710,-4e-05,-2e-05,0,0.00034,0.00127,-0.00027,-0.00016,-6e-05,4,11
17711,-4e-05,-2e-05,0,0.00034,0.00127,-0.00027,-0.00016,-6e-05,4,11
17712,-4e-05,-2e-05,0,0.00034,0.00127,-0.00027,-0.00016,-6e-05,4,11
17713,-4e-05,-2e-05,0,0.00034,0.00127,-0.00027,-0.00016,-6e-05,4,11
17714,-4e-05,-2e-05,0,0.00034,0.00127,-0.00027,-0.00016,-6e-05,4,11
17715,-4e-05,-2e-05,0,0.00034,0.00127,-0.00027,-0.00016,-6e-05,4,11
17716,-4e-05,-2e-05,0,0.00034,0.00127,-0.00027,-0.00016,-6e-05,4,11
17717,-4e-05,-2e-05,0,0.00034,0.00127,-0.00027,-0.00016,-6e-05,4,11
17718,-4e-05,-2e-05,0,0.00034,0.00127,-0.00027,-0.00016,-6e-05,4,11
17719,-4e-05,-2e-05,0,0.00034,0.00127,-0.00027,-0.00016,-6e-05,4,11
17720,-4e-05,-2e-05,0,0.00034,0.00127,-0.00027,-0.00016,-6e-05,4,11
17721,-4e-05,-2e-05,0,0.00034,0.00127,-0.00027,-0.00016,-6e-05,4,11
17722,-4e-05,-2e-05,0,0.00034,0.00127,-0.00027,-0.00016,-6e-05,4,11
17723,-4e-05,-2e-05,0,0.00034,0.00127,-0.00027,-0.00016,-6e-05,4,11
17724,-4e-05,-2e-05,0,0.00034,0.00127,-0.00027,-0.00016,-6e-05,4,11
17725,-4e-05,-2e-05,0,0.00034,0.00127,-0.00027,-0.00016,-6e-05,4,11
17726,-4e-05,-2e-05,0,0.00034,0.00127,-0.00027,-0.00016,-6e-05,4,11
17727,-4e-05,-2e-05,0,0.00034,0.00127,-0.00027,-0.00016,-6e-05,4,11
17728,-4e-05,-2e-05,0,0.00034,0.00127,-0.00027,-0.00016,-6e-05,4,11
17729,-4e-05,-2e-05,0,0.00034,0.00127,-0.00027,-0.00016,-6e-05,4,11
17730,0,-8e-05,-0.00012,-0.00058,-2e-05,0.00043,1e-05,3e-05,4,11
17731,3e-05,9e-05,0.00023,0.00068,0.00051,0.00024,-4e-05,3e-05,4,11
17732,0,2e-05,0.00014,0.00052,-0.0004,0.00028,0,-2e-05,4,11
17733,0,2e-05,0.00014,0.00052,-0.0004,0.00028,0,-2e-05,4,11
17734,0,2e-05,0.00014,0.00052,-0.0004,0.00028,0,-2e-05,4,11
17735,0,2e-05,0.00014,0.00052,-0.0004,0.00028,0,-2e-05,4,11
17736,0,2e-05,0.00014,0.00052,-0.0004,0.00028,0,-2e-05,4,11
17738,0,2e-05,0.00014,0.00052,-0.0004,0.00028,0,-2e-05,4,11
17739,0,2e-05,0.00014,0.00052,-0.0004,0.00028,0,-2e-05,4,11
17740,0,2e-05,0.00014,0.00052,-0.0004,0.00028,0,-2e-05,4,11
17741,0,2e-05,0.00014,0.00052,-0.0004,0.00028,0,-2e-05,4,11
17742,0,2e-05,0.00014,0.00052,-0.0004,0.00028,0,-2e-05,4,11
17743,0,2e-05,0.00014,0.00052,-0.0004,0.00028,0,-2e-05,4,11
17744,2e-05,-5e-05,-0.00029,-0.00116,0.00075,-0.00028,9e-05,4e-05,4,11
17745,2e-05,-5e-05,-0.00029,-0.00116,0.00075,-0.00028,9e-05,4e-05,4,11
17746,2e-05,-5e-05,-0.00029,-0.00116,0.00075,-0.00028,9e-05,4e-05,4,11
17747,2e-05,-5e-05,-0.00029,-0.00116,0.00075,-0.00028,9e-05,4e-05,4,11
17748,2e-05,-5e-05,-0.00029,-0.00116,0.00075,-0.00028,9e-05,4e-05,4,11
17749,2e-05,-5e-05,-0.00029,-0.00116,0.00075,-0.00028,9e-05,4e-05,4,11
17750,2e-05,-5e-05,-0.00029,-0.00116,0.00075,-0.00028,9e-05,4e-05,4,11
17751,2e-05,-5e-05,-0.00029,-0.00116,0.00075,-0.00028,9e-05,4e-05,4,11
17752,2e-05,-5e-05,-0.00029,-0.00116,0.00075,-0.00028,9e-05,4e-05,4,11
17753,9e-05,0.00018,0.00049,0.00103,-0.00026,0.00056,0.00022,9e-05,4,11
17754,9e-05,0.00018,0.00049,0.00103,-0.00026,0.00056,0.00022,9e-05,4,11
17755,9e-05,0.00018,0.00049,0.00103,-0.00026,0.00056,0.00022,9e-05,4,11
17756,9e-05,0.00018,0.00049,0.00103,-0.00026,0.00056,0.00022,9e-05,4,11
17757,9e-05,0.00018,0.00049,0.00103,-0.00026,0.00056,0.00022,9e-05,4,11
17758,9e-05,0.00018,0.00049,0.00103,-0.00026,0.00056,0.00022,9e-05,4,11
17759,9e-05,0.00018,0.00049,0.00103,-0.00026,0.00056,0.00022,9e-05,4,11
17760,9e-05,0.00018,0.00049,0.00103,-0.00026,0.00056,0.00022,9e-05,4,11
17761,9e-05,0.00018,0.00049,0.00103,-0.00026,0.00056,0.00022,9e-05,4,11
17762,9e-05,0.00018,0.00049,0.00103,-0.00026,0.00056,0.00022,9e-05,4,11
17763,9e-05,0.00018,0.00049,0.00103,-0.00026,0.00056,0.00022,9e-05,4,11
17764,9e-05,0.00018,0.00049,0.00103,-0.00026,0.00056,0.00022,9e-05,4,11
17765,9e-05,0.00018,0.00049,0.00103,-0.00026,0.00056,0.00022,9e-05,4,11
17766,9e-05,0.00018,0.00049,0.00103,-0.00026,0.00056,0.00022,9e-05,4,11
17767,9e-05,0.00018,0.00049,0.00103,-0.00026,0.00056,0.00022,9e-05,4,11
17768,-7e-05,-0.00011,-0.00049,-0.0001,-0.00057,-0.00043,-0.00017,-8e-05,4,11
17769,-2e-05,-9e-05,-0.00024,-0.00111,0.00064,-0.00062,-0.00012,-1e-05,4,11
17770,-2e-05,-9e-05,-0.00024,-0.00111,0.00064,-0.00062,-0.00012,-1e-05,4,11
17771,-2e-05,-9e-05,-0.00024,-0.00111,0.00064,-0.00062,-0.00012,-1e-05,4,11
17772,-2e-05,-9e-05,-0.00024,-0.00111,0.00064,-0.00062,-0.00012,-1e-05,4,11
17773,-2e-05,-9e-05,-0.00024,-0.00111,0.00064,-0.00062,-0.00012,-1e-05,4,11
17774,-2e-05,-9e-05,-0.00024,-0.00111,0.00064,-0.00062,-0.00012,-1e-05,4,11
17775,-2e-05,-9e-05,-0.00024,-0.00111,0.00064,-0.00062,-0.00012,-1e-05,4,11
17776,-2e-05,-9e-05,-0.00024,-0.00111,0.00064,-0.00062,-0.00012,-1e-05,4,11
17777,-2e-05,-9e-05,-0.00024,-0.00111,0.00064,-0.00062,-0.00012,-1e-05,4,11
17778,-2e-05,-9e-05,-0.00024,-0.00111,0.00064,-0.00062,-0.00012,-1e-05,4,11
17779,-2e-05,-9e-05,-0.00024,-0.00111,0.00064,-0.00062,-0.00012,-1e-05,4,11
17780,-2e-05,-9e-05,-0.00024,-0.00111,0.00064,-0.00062,-0.00012,-1e-05,4,11
17781,-2e-05,-9e-05,-0.00024,-0.00111,0.00064,-0.00062,-0.00012,-1e-05,4,11
17782,-2e-05,-9e-05,-0.00024,-0.00111,0.00064,-0.00062,-0.00012,-1e-05,4,11
17783,-2e-05,-9e-05,-0.00024,-0.00111,0.00064,-0.00062,-0.00012,-1e-05,4,11
17784,-2e-05,-9e-05,-0.00024,-0.00111,0.00064,-0.00062,-0.00012,-1e-05,4,11
17785,-2e-05,-9e-05,-0.00024,-0.00111,0.00064,-0.00062,-0.00012,-1e-05,4,11
17786,-2e-05,-9e-05,-0.00024,-0.00111,0.00064,-0.00062,-0.00012,-1e-05,4,11
17788,-2e-05,-9e-05,-0.00024,-0.00111,0.00064,-0.00062,-0.00012,-1e-05,4,11
17789,-2e-05,-9e-05,-0.00024,-0.00111,0.00064,-0.00062,-0.00012,-1e-05,4,11
17790,1e-05,-2e-05,-0.0002,-0.0009,-0.00101,-0.00044,5e-05,2e-05,4,11
17791,1e-05,-2e-05,-0.0002,-0.0009,-0.00101,-0.00044,5e-05,2e-05,4,11
17792,-7e-05,-6e-05,6e-05,0.00112,0.00067,-0.00077,-0.00025,-0.0001,4,11
17793,-7e-05,-6e-05,6e-05,0.00112,0.00067,-0.00077,-0.00025,-0.0001,4,11
17794,-7e-05,-6e-05,6e-05,0.00112,0.00067,-0.00077,-0.00025,-0.0001,4,11
17795,-7e-05,-6e-05,6e-05,0.00112,0.00067,-0.00077,-0.00025,-0.0001,4,11
17796,-7e-05,-6e-05,6e-05,0.00112,0.00067,-0.00077,-0.00025,-0.0001,4,11
17797,-7e-05,-6e-05,6e-05,0.00112,0.00067,-0.00077,-0.00025,-0.0001,4,11
17798,-7e-05,-6e-05,6e-05,0.00112,0.00067,-0.00077,-0.00025,-0.0001,4,11
17799,-7e-05,-6e-05,6e-05,0.00112,0.00067,-0.00077,-0.00025,-0.0001,4,11
17800,-7e-05,-6e-05,6e-05,0.00112,0.00067,-0.00077,-0.00025,-0.0001,4,11
17801,-7e-05,-6e-05,6e-05,0.00112,0.00067,-0.00077,-0.00025,-0.0001,4,11
17802,-7e-05,-6e-05,6e-05,0.00112,0.00067,-0.00077,-0.00025,-0.0001,4,11
17803,-7e-05,-6e-05,6e-05,0.00112,0.00067,-0.00077,-0.00025,-0.0001,4,11
17804,0,6e-05,0.00038,0.001,0.00024,-0.00026,4e-05,2e-05,4,11
17805,0,6e-05,0.00038,0.001,0.00024,-0.00026,4e-05,2e-05,4,11
17806,0,6e-05,0.00038,0.001,0.00024,-0.00026,4e-05,2e-05,4,11
17807,0,6e-05,0.00038,0.001,0.00024,-0.00026,4e-05,2e-05,4,11
17808,0,6e-05,0.00038,0.001,0.00024,-0.00026,4e-05,2e-05,4,11
17809,0,6e-05,0.00038,0.001,0.00024,-0.00026,4e-05,2e-05,4,11
17810,0,6e-05,0.00038,0.001,0.00024,-0.00026,4e-05,2e-05,4,11
17811,0,6e-05,0.00038,0.001,0.00024,-0.00026,4e-05,2e-05,4,11
17813,-7e-05,-8e-05,-5e-05,0.00012,-0.00027,-0.0003,-0.00013,-0.00011,4,11
17814,-7e-05,-8e-05,-5e-05,0.00012,-0.00027,-0.0003,-0.00013,-0.00011,4,11
17815,-7e-05,-8e-05,-5e-05,0.00012,-0.00027,-0.0003,-0.00013,-0.00011,4,11
17816,-7e-05,-8e-05,-5e-05,0.00012,-0.00027,-0.0003,-0.00013,-0.00011,4,11
17817,-7e-05,-8e-05,-5e-05,0.00012,-0.00027,-0.0003,-0.00013,-0.00011,4,11
17818,-7e-05,-8e-05,-5e-05,0.00012,-0.00027,-0.0003,-0.00013,-0.00011,4,11
17819,-7e-05,-8e-05,-5e-05,0.00012,-0.00027,-0.0003,-0.00013,-0.00011,4,11
17820,-7e-05,-8e-05,-5e-05,0.00012,-0.00027,-0.0003,-0.00013,-0.00011,4,11
17821,-7e-05,-8e-05,-5e-05,0.00012,-0.00027,-0.0003,-0.00013,-0.00011,4,11
17822,-7e-05,-8e-05,-5e-05,0.00012,-0.00027,-0.0003,-0.00013,-0.00011,4,11
17823,-7e-05,-8e-05,-5e-05,0.00012,-0.00027,-0.0003,-0.00013,-0.00011,4,11
17824,-7e-05,-8e-05,-5e-05,0.00012,-0.00027,-0.0003,-0.00013,-0.00011,4,11
17825,-7e-05,-8e-05,-5e-05,0.00012,-0.00027,-0.0003,-0.00013,-0.00011,4,11
17826,-7e-05,-8e-05,-5e-05,0.00012,-0.00027,-0.0003,-0.00013,-0.00011,4,11
17827,4e-05,5e-05,0.00018,0.0011,0.00043,0.00057,0.00018,7e-05,4,11
17828,4e-05,5e-05,0.00018,0.0011,0.00043,0.00057,0.00018,7e-05,4,11
17829,4e-05,5e-05,0.00018,0.0011,0.00043,0.00057,0.00018,7e-05,4,11
17830,4e-05,5e-05,0.00018,0.0011,0.00043,0.00057,0.00018,7e-05,4,11
17831,4e-05,5e-05,0.00018,0.0011,0.00043,0.00057,0.00018,7e-05,4,11
17832,4e-05,5e-05,0.00018,0.0011,0.00043,0.00057,0.00018,7e-05,4,11
17833,4e-05,5e-05,0.00018,0.0011,0.00043,0.00057,0.00018,7e-05,4,11
17834,4e-05,5e-05,0.00018,0.0011,0.00043,0.00057,0.00018,7e-05,4,11
17835,6e-05,4e-05,-1e-05,-0.00017,-0.00078,0.00107,0.00035,9e-05,4,11
17836,6e-05,4e-05,-1e-05,-0.00017,-0.00078,0.00107,0.00035,9e-05,4,11
17838,6e-05,4e-05,-1e-05,-0.00017,-0.00078,0.00107,0.00035,9e-05,4,11
17839,6e-05,4e-05,-1e-05,-0.00017,-0.00078,0.00107,0.00035,9e-05,4,11
17840,6e-05,4e-05,-1e-05,-0.00017,-0.00078,0.00107,0.00035,9e-05,4,11
17841,6e-05,4e-05,-1e-05,-0.00017,-0.00078,0.00107,0.00035,9e-05,4,11
17842,6e-05,4e-05,-1e-05,-0.00017,-0.00078,0.00107,0.00035,9e-05,4,11
17843,6e-05,4e-05,-1e-05,-0.00017,-0.00078,0.00107,0.00035,9e-05,4,11
17844,6e-05,4e-05,-1e-05,-0.00017,-0.00078,0.00107,0.00035,9e-05,4,11
17845,6e-05,4e-05,-1e-05,-0.00017,-0.00078,0.00107,0.00035,9e-05,4,11
17846,6e-05,4e-05,-1e-05,-0.00017,-0.00078,0.00107,0.00035,9e-05,4,11
17847,6e-05,4e-05,-1e-05,-0.00017,-0.00078,0.00107,0.00035,9e-05,4,11
17848,6e-05,4e-05,-1e-05,-0.00017,-0.00078,0.00107,0.00035,9e-05,4,11
17849,6e-05,4e-05,-1e-05,-0.00017,-0.00078,0.00107,0.00035,9e-05,4,11
17850,3e-05,2e-05,8e-05,0.00012,0.00033,-0.00021,-0.00012,1e-05,4,11
17851,3e-05,2e-05,8e-05,0.00012,0.00033,-0.00021,-0.00012,1e-05,4,11
17852,0,-5e-05,-0.00024,-6e-05,-0.00035,8e-05,0.00012,1e-05,4,11
17853,0,-5e-05,-0.00024,-6e-05,-0.00035,8e-05,0.00012,1e-05,4,11
17854,0,-5e-05,-0.00024,-6e-05,-0.00035,8e-05,0.00012,1e-05,4,11
17855,0,-5e-05,-0.00024,-6e-05,-0.00035,8e-05,0.00012,1e-05,4,11
17856,0,-5e-05,-0.00024,-6e-05,-0.00035,8e-05,0.00012,1e-05,4,11
17857,0,-5e-05,-0.00024,-6e-05,-0.00035,8e-05,0.00012,1e-05,4,11
17858,0,-5e-05,-0.00024,-6e-05,-0.00035,8e-05,0.00012,1e-05,4,11
17859,0,-5e-05,-0.00024,-6e-05,-0.00035,8e-05,0.00012,1e-05,4,11
17860,0,-5e-05,-0.00024,-6e-05,-0.00035,8e-05,0.00012,1e-05,4,11
17861,0,-5e-05,-0.00024,-6e-05,-0.00035,8e-05,0.00012,1e-05,4,11
17862,0,-5e-05,-0.00024,-6e-05,-0.00035,8e-05,0.00012,1e-05,4,11
17863,0,-5e-05,-0.00024,-6e-05,-0.00035,8e-05,0.00012,1e-05,4,11
17864,0,-2e-05,-5e-05,0.0001,-0.00052,0.00018,3e-05,1e-05,4,11
17865,0,-2e-05,-5e-05,0.0001,-0.00052,0.00018,3e-05,1e-05,4,11
17866,0,-2e-05,-5e-05,0.0001,-0.00052,0.00018,3e-05,1e-05,4,11
17867,0,-2e-05,-5e-05,0.0001,-0.00052,0.00018,3e-05,1e-05,4,11
17868,0,-2e-05,-5e-05,0.0001,-0.00052,0.00018,3e-05,1e-05,4,11
17869,0,-2e-05,-5e-05,0.0001,-0.00052,0.00018,3e-05,1e-05,4,11
17870,0,-2e-05,-5e-05,0.0001,-0.00052,0.00018,3e-05,1e-05,4,11
17871,0,-2e-05,-5e-05,0.0001,-0.00052,0.00018,3e-05,1e-05,4,11
17872,0,-2e-05,-5e-05,0.0001,-0.00052,0.00018,3e-05,1e-05,4,11
17873,2e-05,6e-05,0.00024,0.00039,0.0002,-0.00059,-2e-05,0,4,11
17874,2e-05,6e-05,0.00024,0.00039,0.0002,-0.00059,-2e-05,0,4,11
17875,2e-05,6e-05,0.00024,0.00039,0.0002,-0.00059,-2e-05,0,4,11
17876,2e-05,6e-05,0.00024,0.00039,0.0002,-0.00059,-2e-05,0,4,11
17877,2e-05,6e-05,0.00024,0.00039,0.0002,-0.00059,-2e-05,0,4,11
17878,2e-05,6e-05,0.00024,0.00039,0.0002,-0.00059,-2e-05,0,4,11
17879,2e-05,6e-05,0.00024,0.00039,0.0002,-0.00059,-2e-05,0,4,11
17880,2e-05,6e-05,0.00024,0.00039,0.0002,-0.00059,-2e-05,0,4,11
17881,2e-05,6e-05,0.00024,0.00039,0.0002,-0.00059,-2e-05,0,4,11
17882,2e-05,6e-05,0.00024,0.00039,0.0002,-0.00059,-2e-05,0,4,11
17883,2e-05,6e-05,0.00024,0.00039,0.0002,-0.00059,-2e-05,0,4,11
17884,2e-05,6e-05,0.00024,0.00039,0.0002,-0.00059,-2e-05,0,4,11
17885,2e-05,6e-05,0.00024,0.00039,0.0002,-0.00059,-2e-05,0,4,11
17886,2e-05,6e-05,0.00024,0.00039,0.0002,-0.00059,-2e-05,0,4,11
17889,-5e-05,-6e-05,-5e-05,-0.00016,-0.00044,-0.00062,-0.00011,-5e-05,4,11
17890,-5e-05,-6e-05,-5e-05,-0.00016,-0.00044,-0.00062,-0.00011,-5e-05,4,11
17891,-5e-05,-6e-05,-5e-05,-0.00016,-0.00044,-0.00062,-0.00011,-5e-05,4,11
17892,-5e-05,-6e-05,-5e-05,-0.00016,-0.00044,-0.00062,-0.00011,-5e-05,4,11
17893,-5e-05,-6e-05,-5e-05,-0.00016,-0.00044,-0.00062,-0.00011,-5e-05,4,11
17894,-5e-05,-6e-05,-5e-05,-0.00016,-0.00044,-0.00062,-0.00011,-5e-05,4,11
17895,-5e-05,-6e-05,-5e-05,-0.00016,-0.00044,-0.00062,-0.00011,-5e-05,4,11
17896,-5e-05,-6e-05,-5e-05,-0.00016,-0.00044,-0.00062,-0.00011,-5e-05,4,11
17897,-5e-05,-6e-05,-5e-05,-0.00016,-0.00044,-0.00062,-0.00011,-5e-05,4,11
17898,-5e-05,-6e-05,-5e-05,-0.00016,-0.00044,-0.00062,-0.00011,-5e-05,4,11
17899,-5e-05,-6e-05,-5e-05,-0.00016,-0.00044,-0.00062,-0.00011,-5e-05,4,11
17900,-5e-05,-6e-05,-5e-05,-0.00016,-0.00044,-0.00062,-0.00011,-5e-05,4,11
17901,-5e-05,-6e-05,-5e-05,-0.00016,-0.00044,-0.00062,-0.00011,-5e-05,4,11
17902,-5e-05,-6e-05,-5e-05,-0.00016,-0.00044,-0.00062,-0.00011,-5e-05,4,11
17903,-5e-05,-6e-05,-5e-05,-0.00016,-0.00044,-0.00062,-0.00011,-5e-05,4,11
17904,-5e-05,-6e-05,-5e-05,-0.00016,-0.00044,-0.00062,-0.00011,-5e-05,4,11
17905,-5e-05,-6e-05,-5e-05,-0.00016,-0.00044,-0.00062,-0.00011,-5e-05,4,11
17906,-5e-05,-6e-05,-5e-05,-0.00016,-0.00044,-0.00062,-0.00011,-5e-05,4,11
17907,-5e-05,-6e-05,-5e-05,-0.00016,-0.00044,-0.00062,-0.00011,-5e-05,4,11
17908,-5e-05,-6e-05,-5e-05,-0.00016,-0.00044,-0.00062,-0.00011,-5e-05,4,11
17909,-5e-05,-6e-05,-5e-05,-0.00016,-0.00044,-0.00062,-0.00011,-5e-05,4,11
17910,-1e-05,4e-05,9e-05,0.00036,-0.00014,-0.00045,-0.00011,-3e-05,4,11
17911,0.00011,0.00023,0.00061,0.001,0.00072,-0.00011,0.00012,9e-05,4,11
17912,-0.00021,-0.00037,-0.001,-0.00016,0.00013,-0.00037,-0.00035,-0.00023,4,11
17913,-0.00021,-0.00037,-0.001,-0.00016,0.00013,-0.00037,-0.00035,-0.00023,4,11
17914,-0.00021,-0.00037,-0.001,-0.00016,0.00013,-0.00037,-0.00035,-0.00023,4,11
17915,-0.00021,-0.00037,-0.001,-0.00016,0.00013,-0.00037,-0.00035,-0.00023,4,11
17916,-0.00021,-0.00037,-0.001,-0.00016,0.00013,-0.00037,-0.00035,-0.00023,4,11
17917,-0.00021,-0.00037,-0.001,-0.00016,0.00013,-0.00037,-0.00035,-0.00023,4,11
17918,-0.00021,-0.00037,-0.001,-0.00016,0.00013,-0.00037,-0.00035,-0.00023,4,11
17919,-0.00021,-0.00037,-0.001,-0.00016,0.00013,-0.00037,-0.00035,-0.00023,4,11
17920,-0.00021,-0.00037,-0.001,-0.00016,0.00013,-0.00037,-0.00035,-0.00023,4,11
17921,-0.00021,-0.00037,-0.001,-0.00016,0.00013,-0.00037,-0.00035,-0.00023,4,11
17922,-0.00021,-0.00037,-0.001,-0.00016,0.00013,-0.00037,-0.00035,-0.00023,4,11
17923,-0.00021,-0.00037,-0.001,-0.00016,0.00013,-0.00037,-0.00035,-0.00023,4,11
17924,9e-05,0.00015,0.00038,0.00048,-0.00014,0.00071,0.00024,0.00013,4,11
17925,9e-05,0.00015,0.00038,0.00048,-0.00014,0.00071,0.00024,0.00013,4,11
17926,9e-05,0.00015,0.00038,0.00048,-0.00014,0.00071,0.00024,0.00013,4,11
17927,9e-05,0.00015,0.00038,0.00048,-0.00014,0.00071,0.00024,0.00013,4,11
17928,9e-05,0.00015,0.00038,0.00048,-0.00014,0.00071,0.00024,0.00013,4,11
17929,9e-05,0.00015,0.00038,0.00048,-0.00014,0.00071,0.00024,0.00013,4,11
17930,9e-05,0.00015,0.00038,0.00048,-0.00014,0.00071,0.00024,0.00013,4,11
17931,9e-05,0.00015,0.00038,0.00048,-0.00014,0.00071,0.00024,0.00013,4,11
17932,9e-05,0.00015,0.00038,0.00048,-0.00014,0.00071,0.00024,0.00013,4,11
17933,4e-05,7e-05,0.00018,-0.00039,-0.00052,0.00109,0.00015,4e-05,4,11
17934,4e-05,7e-05,0.00018,-0.00039,-0.00052,0.00109,0.00015,4e-05,4,11
17935,4e-05,7e-05,0.00018,-0.00039,-0.00052,0.00109,0.00015,4e-05,4,11
17936,4e-05,7e-05,0.00018,-0.00039,-0.00052,0.00109,0.00015,4e-05,4,11
17938,4e-05,7e-05,0.00018,-0.00039,-0.00052,0.00109,0.00015,4e-05,4,11
17939,4e-05,7e-05,0.00018,-0.00039,-0.00052,0.00109,0.00015,4e-05,4,11
17940,4e-05,7e-05,0.00018,-0.00039,-0.00052,0.00109,0.00015,4e-05,4,11
17941,4e-05,7e-05,0.00018,-0.00039,-0.00052,0.00109,0.00015,4e-05,4,11
17942,4e-05,7e-05,0.00018,-0.00039,-0.00052,0.00109,0.00015,4e-05,4,11
17943,4e-05,7e-05,0.00018,-0.00039,-0.00052,0.00109,0.00015,4e-05,4,11
17944,4e-05,7e-05,0.00018,-0.00039,-0.00052,0.00109,0.00015,4e-05,4,11
17945,4e-05,7e-05,0.00018,-0.00039,-0.00052,0.00109,0.00015,4e-05,4,11
17946,4e-05,7e-05,0.00018,-0.00039,-0.00052,0.00109,0.00015,4e-05,4,11
17947,-5e-05,-2e-05,0.00017,0.0007,0.00083,-0.00021,-0.00017,-8e-05,4,11
17948,-7e-05,-0.00016,-0.00058,-0.00128,-0.00128,-0.00043,-8e-05,-6e-05,4,11
17949,4e-05,3e-05,0.0001,4e-05,-0.00085,-9e-05,2e-05,5e-05,4,11
17950,4e-05,3e-05,0.0001,4e-05,-0.00085,-9e-05,2e-05,5e-05,4,11
17951,4e-05,3e-05,0.0001,4e-05,-0.00085,-9e-05,2e-05,5e-05,4,11
17952,4e-05,3e-05,0.0001,4e-05,-0.00085,-9e-05,2e-05,5e-05,4,11
17953,4e-05,3e-05,0.0001,4e-05,-0.00085,-9e-05,2e-05,5e-05,4,11
17954,4e-05,3e-05,0.0001,4e-05,-0.00085,-9e-05,2e-05,5e-05,4,11
17955,4e-05,3e-05,0.0001,4e-05,-0.00085,-9e-05,2e-05,5e-05,4,11
17956,4e-05,3e-05,0.0001,4e-05,-0.00085,-9e-05,2e-05,5e-05,4,11
17957,4e-05,3e-05,0.0001,4e-05,-0.00085,-9e-05,2e-05,5e-05,4,11
17958,4e-05,3e-05,0.0001,4e-05,-0.00085,-9e-05,2e-05,5e-05,4,11
17959,4e-05,3e-05,0.0001,4e-05,-0.00085,-9e-05,2e-05,5e-05,4,11
17960,4e-05,3e-05,0.0001,4e-05,-0.00085,-9e-05,2e-05,5e-05,4,11
17961,4e-05,3e-05,0.0001,4e-05,-0.00085,-9e-05,2e-05,5e-05,4,11
17962,4e-05,3e-05,0.0001,4e-05,-0.00085,-9e-05,2e-05,5e-05,4,11
17963,4e-05,3e-05,0.0001,4e-05,-0.00085,-9e-05,2e-05,5e-05,4,11
17964,4e-05,3e-05,0.0001,4e-05,-0.00085,-9e-05,2e-05,5e-05,4,11
17965,4e-05,3e-05,0.0001,4e-05,-0.00085,-9e-05,2e-05,5e-05,4,11
17966,4e-05,3e-05,0.0001,4e-05,-0.00085,-9e-05,2e-05,5e-05,4,11
17967,4e-05,3e-05,0.0001,4e-05,-0.00085,-9e-05,2e-05,5e-05,4,11
17968,4e-05,3e-05,0.0001,4e-05,-0.00085,-9e-05,2e-05,5e-05,4,11
17969,4e-05,3e-05,0.0001,4e-05,-0.00085,-9e-05,2e-05,5e-05,4,11
17970,4e-05,3e-05,0.0001,4e-05,-0.00085,-9e-05,2e-05,5e-05,4,11
17971,4e-05,3e-05,0.0001,4e-05,-0.00085,-9e-05,2e-05,5e-05,4,11
17972,4e-05,3e-05,0.0001,4e-05,-0.00085,-9e-05,2e-05,5e-05,4,11
17973,4e-05,3e-05,0.0001,4e-05,-0.00085,-9e-05,2e-05,5e-05,4,11
17974,4e-05,3e-05,0.0001,4e-05,-0.00085,-9e-05,2e-05,5e-05,4,11
17975,4e-05,3e-05,0.0001,4e-05,-0.00085,-9e-05,2e-05,5e-05,4,11
17976,4e-05,3e-05,0.0001,4e-05,-0.00085,-9e-05,2e-05,5e-05,4,11
17977,4e-05,0.00014,0.00052,0.00116,7e-05,-0.00012,-4e-05,0,4,11
17978,-0.00012,-0.00023,-0.0006,-0.00105,-0.00125,-0.00037,-0.00014,-0.0001,4,11
17979,-3e-05,-2e-05,-6e-05,-0.00029,0.0011,0.00056,5e-05,0,4,11
17980,-3e-05,-2e-05,-6e-05,-0.00029,0.0011,0.00056,5e-05,0,4,11
17981,-3e-05,-2e-05,-6e-05,-0.00029,0.0011,0.00056,5e-05,0,4,11
17982,-3e-05,-2e-05,-6e-05,-0.00029,0.0011,0.00056,5e-05,0,4,11
17983,-3e-05,-2e-05,-6e-05,-0.00029,0.0011,0.00056,5e-05,0,4,11
17984,-4e-05,-1e-05,9e-05,0.00031,-0.00039,0.0001,-0.00014,-7e-05,4,11
17985,-4e-05,-1e-05,9e-05,0.00031,-0.00039,0.0001,-0.00014,-7e-05,4,11
17986,-4e-05,-1e-05,9e-05,0.00031,-0.00039,0.0001,-0.00014,-7e-05,4,11
17988,-4e-05,-1e-05,9e-05,0.00031,-0.00039,0.0001,-0.00014,-7e-05,4,11
17989,-4e-05,-1e-05,9e-05,0.00031,-0.00039,0.0001,-0.00014,-7e-05,4,11
17990,-4e-05,-1e-05,9e-05,0.00031,-0.00039,0.0001,-0.00014,-7e-05,4,11
17991,-4e-05,-1e-05,9e-05,0.00031,-0.00039,0.0001,-0.00014,-7e-05,4,11
17992,-4e-05,-1e-05,9e-05,0.00031,-0.00039,0.0001,-0.00014,-7e-05,4,11
17993,-1e-05,2e-05,0.00011,-0.00044,-6e-05,-0.00068,-8e-05,-2e-05,4,11
17994,-1e-05,2e-05,0.00011,-0.00044,-6e-05,-0.00068,-8e-05,-2e-05,4,11
17995,-1e-05,2e-05,0.00011,-0.00044,-6e-05,-0.00068,-8e-05,-2e-05,4,11
17996,-1e-05,2e-05,0.00011,-0.00044,-6e-05,-0.00068,-8e-05,-2e-05,4,11
17997,-1e-05,2e-05,0.00011,-0.00044,-6e-05,-0.00068,-8e-05,-2e-05,4,11
17998,-1e-05,2e-05,0.00011,-0.00044,-6e-05,-0.00068,-8e-05,-2e-05,4,11
17999,-1e-05,2e-05,0.00011,-0.00044,-6e-05,-0.00068,-8e-05,-2e-05,4,11
18000,-1e-05,2e-05,0.00011,-0.00044,-6e-05,-0.00068,-8e-05,-2e-05,4,11
18001,-1e-05,2e-05,0.00011,-0.00044,-6e-05,-0.00068,-8e-05,-2e-05,4,11
18002,-1e-05,2e-05,0.00011,-0.00044,-6e-05,-0.00068,-8e-05,-2e-05,4,11
18003,-1e-05,2e-05,0.00011,-0.00044,-6e-05,-0.00068,-8e-05,-2e-05,4,11
18004,-1e-05,2e-05,0.00011,-0.00044,-6e-05,-0.00068,-8e-05,-2e-05,4,11
18005,-1e-05,2e-05,0.00011,-0.00044,-6e-05,-0.00068,-8e-05,-2e-05,4,11
18006,-1e-05,2e-05,0.00011,-0.00044,-6e-05,-0.00068,-8e-05,-2e-05,4,11
18007,3e-05,1e-05,-0.00018,-0.00017,-0.0006,-0.0008,5e-05,5e-05,4,11
18008,3e-05,0.00014,0.00053,0.00058,-0.00012,-0.00074,-3e-05,-2e-05,4,11
18009,6e-05,0.0001,0.00019,-0.00025,-0.00053,-0.0001,4e-05,3e-05,4,11
18010,6e-05,0.0001,0.00019,-0.00025,-0.00053,-0.0001,4e-05,3e-05,4,11
18011,6e-05,0.0001,0.00019,-0.00025,-0.00053,-0.0001,4e-05,3e-05,4,11
18012,6e-05,0.0001,0.00019,-0.00025,-0.00053,-0.0001,4e-05,3e-05,4,11
18013,6e-05,0.0001,0.00019,-0.00025,-0.00053,-0.0001,4e-05,3e-05,4,11
18014,6e-05,0.0001,0.00019,-0.00025,-0.00053,-0.0001,4e-05,3e-05,4,11
18015,6e-05,0.0001,0.00019,-0.00025,-0.00053,-0.0001,4e-05,3e-05,4,11
18016,6e-05,0.0001,0.00019,-0.00025,-0.00053,-0.0001,4e-05,3e-05,4,11
18017,6e-05,0.0001,0.00019,-0.00025,-0.00053,-0.0001,4e-05,3e-05,4,11
18018,6e-05,0.0001,0.00019,-0.00025,-0.00053,-0.0001,4e-05,3e-05,4,11
18019,6e-05,0.0001,0.00019,-0.00025,-0.00053,-0.0001,4e-05,3e-05,4,11
18020,6e-05,0.0001,0.00019,-0.00025,-0.00053,-0.0001,4e-05,3e-05,4,11
18021,6e-05,0.0001,0.00019,-0.00025,-0.00053,-0.0001,4e-05,3e-05,4,11
18022,6e-05,0.0001,0.00019,-0.00025,-0.00053,-0.0001,4e-05,3e-05,4,11
18023,6e-05,0.0001,0.00019,-0.00025,-0.00053,-0.0001,4e-05,3e-05,4,11
18024,6e-05,0.0001,0.00019,-0.00025,-0.00053,-0.0001,4e-05,3e-05,4,11
18025,6e-05,0.0001,0.00019,-0.00025,-0.00053,-0.0001,4e-05,3e-05,4,11
18026,6e-05,0.0001,0.00019,-0.00025,-0.00053,-0.0001,4e-05,3e-05,4,11
18027,6e-05,0.0001,0.00019,-0.00025,-0.00053,-0.0001,4e-05,3e-05,4,11
18028,6e-05,0.0001,0.00019,-0.00025,-0.00053,-0.0001,4e-05,3e-05,4,11
18029,6e-05,0.0001,0.00019,-0.00025,-0.00053,-0.0001,4e-05,3e-05,4,11
18030,0,0,0.00011,6e-05,-0.00016,3e-05,2e-05,1e-05,4,11
18031,-0.00011,-0.0002,-0.00049,-2e-05,0.001,-0.00069,-0.00019,-0.00011,4,11
18032,1e-05,3e-05,-4e-05,-2e-05,0.00059,-0.00083,-2e-05,-1e-05,4,11
18033,1e-05,3e-05,-4e-05,-2e-05,0.00059,-0.00083,-2e-05,-1e-05,4,11
18034,1e-05,3e-05,-4e-05,-2e-05,0.00059,-0.00083,-2e-05,-1e-05,4,11
18035,1e-05,3e-05,-4e-05,-2e-05,0.00059,-0.00083,-2e-05,-1e-05,4,11
18036,1e-05,3e-05,-4e-05,-2e-05,0.00059,-0.00083,-2e-05,-1e-05,4,11
18038,1e-05,3e-05,-4e-05,-2e-05,0.00059,-0.00083,-2e-05,-1e-05,4,11
18039,1e-05,3e-05,-4e-05,-2e-05,0.00059,-0.00083,-2e-05,-1e-05,4,11
18040,1e-05,3e-05,-4e-05,-2e-05,0.00059,-0.00083,-2e-05,-1e-05,4,11
18041,1e-05,3e-05,-4e-05,-2e-05,0.00059,-0.00083,-2e-05,-1e-05,4,11
18042,1e-05,3e-05,-4e-05,-2e-05,0.00059,-0.00083,-2e-05,-1e-05,4,11
18043,1e-05,3e-05,-4e-05,-2e-05,0.00059,-0.00083,-2e-05,-1e-05,4,11
18044,2e-05,4e-05,0.00012,-9e-05,-7e-05,0.00039,0.00012,7e-05,4,11
18045,2e-05,4e-05,0.00012,-9e-05,-7e-05,0.00039,0.00012,7e-05,4,11
18046,2e-05,4e-05,0.00012,-9e-05,-7e-05,0.00039,0.00012,7e-05,4,11
18047,2e-05,4e-05,0.00012,-9e-05,-7e-05,0.00039,0.00012,7e-05,4,11
18048,2e-05,4e-05,0.00012,-9e-05,-7e-05,0.00039,0.00012,7e-05,4,11
18049,2e-05,4e-05,0.00012,-9e-05,-7e-05,0.00039,0.00012,7e-05,4,11
18050,2e-05,4e-05,0.00012,-9e-05,-7e-05,0.00039,0.00012,7e-05,4,11
18051,2e-05,4e-05,0.00012,-9e-05,-7e-05,0.00039,0.00012,7e-05,4,11
18052,2e-05,4e-05,0.00012,-9e-05,-7e-05,0.00039,0.00012,7e-05,4,11
18053,-8e-05,-0.00014,-0.0002,-4e-05,0.00106,-0.0002,-0.00011,-7e-05,4,11
18054,-8e-05,-0.00014,-0.0002,-4e-05,0.00106,-0.0002,-0.00011,-7e-05,4,11
18055,-8e-05,-0.00014,-0.0002,-4e-05,0.00106,-0.0002,-0.00011,-7e-05,4,11
18056,-8e-05,-0.00014,-0.0002,-4e-05,0.00106,-0.0002,-0.00011,-7e-05,4,11
18057,-8e-05,-0.00014,-0.0002,-4e-05,0.00106,-0.0002,-0.00011,-7e-05,4,11
18058,-8e-05,-0.00014,-0.0002,-4e-05,0.00106,-0.0002,-0.00011,-7e-05,4,11
18059,-8e-05,-0.00014,-0.0002,-4e-05,0.00106,-0.0002,-0.00011,-7e-05,4,11
18060,-8e-05,-0.00014,-0.0002,-4e-05,0.00106,-0.0002,-0.00011,-7e-05,4,11
18061,-8e-05,-0.00014,-0.0002,-4e-05,0.00106,-0.0002,-0.00011,-7e-05,4,11
18062,-8e-05,-0.00014,-0.0002,-4e-05,0.00106,-0.0002,-0.00011,-7e-05,4,11
18063,-8e-05,-0.00014,-0.0002,-4e-05,0.00106,-0.0002,-0.00011,-7e-05,4,11
18064,-8e-05,-0.00014,-0.0002,-4e-05,0.00106,-0.0002,-0.00011,-7e-05,4,11
18065,-8e-05,-0.00014,-0.0002,-4e-05,0.00106,-0.0002,-0.00011,-7e-05,4,11
18066,-8e-05,-0.00014,-0.0002,-4e-05,0.00106,-0.0002,-0.00011,-7e-05,4,11
18067,-8e-05,-0.00014,-0.0002,-4e-05,0.00106,-0.0002,-0.00011,-7e-05,4,11
18068,3e-05,8e-05,0.00019,-0.00021,0.00024,0.00028,1e-05,0,4,11
18069,-4e-05,-8e-05,-0.00022,-0.001,0.00034,0.00056,-2e-05,-4e-05,4,11
18070,2e-05,7e-05,0.00018,-0.00015,-0.00102,-0.00017,2e-05,2e-05,4,11
18071,2e-05,7e-05,0.00018,-0.00015,-0.00102,-0.00017,2e-05,2e-05,4,11
18072,2e-05,7e-05,0.00018,-0.00015,-0.00102,-0.00017,2e-05,2e-05,4,11
18073,2e-05,7e-05,0.00018,-0.00015,-0.00102,-0.00017,2e-05,2e-05,4,11
18074,2e-05,7e-05,0.00018,-0.00015,-0.00102,-0.00017,2e-05,2e-05,4,11
18075,2e-05,7e-05,0.00018,-0.00015,-0.00102,-0.00017,2e-05,2e-05,4,11
18076,2e-05,7e-05,0.00018,-0.00015,-0.00102,-0.00017,2e-05,2e-05,4,11
18077,2e-05,7e-05,0.00018,-0.00015,-0.00102,-0.00017,2e-05,2e-05,4,11
18078,2e-05,7e-05,0.00018,-0.00015,-0.00102,-0.00017,2e-05,2e-05,4,11
18079,2e-05,7e-05,0.00018,-0.00015,-0.00102,-0.00017,2e-05,2e-05,4,11
18080,2e-05,7e-05,0.00018,-0.00015,-0.00102,-0.00017,2e-05,2e-05,4,11
18081,2e-05,7e-05,0.00018,-0.00015,-0.00102,-0.00017,2e-05,2e-05,4,11
18082,2e-05,7e-05,0.00018,-0.00015,-0.00102,-0.00017,2e-05,2e-05,4,11
18083,2e-05,7e-05,0.00018,-0.00015,-0.00102,-0.00017,2e-05,2e-05,4,11
18084,2e-05,7e-05,0.00018,-0.00015,-0.00102,-0.00017,2e-05,2e-05,4,11
18085,2e-05,7e-05,0.00018,-0.00015,-0.00102,-0.00017,2e-05,2e-05,4,11
18086,2e-05,7e-05,0.00018,-0.00015,-0.00102,-0.00017,2e-05,2e-05,4,11
18088,2e-05,7e-05,0.00018,-0.00015,-0.00102,-0.00017,2e-05,2e-05,4,11
18089,2e-05,7e-05,0.00018,-0.00015,-0.00102,-0.00017,2e-05,2e-05,4,11
18090,2e-05,3e-05,4e-05,9e-05,-0.00022,-0.00073,-2e-05,2e-05,4,11
18091,2e-05,3e-05,4e-05,9e-05,-0.00022,-0.00073,-2e-05,2e-05,4,11
18092,0.00016,0.00024,0.00037,0.00046,-0.00084,0.00082,0.00045,0.00021,4,11
18093,0.00016,0.00024,0.00037,0.00046,-0.00084,0.00082,0.00045,0.00021,4,11
18094,0.00016,0.00024,0.00037,0.00046,-0.00084,0.00082,0.00045,0.00021,4,11
18095,0.00016,0.00024,0.00037,0.00046,-0.00084,0.00082,0.00045,0.00021,4,11
18096,0.00016,0.00024,0.00037,0.00046,-0.00084,0.00082,0.00045,0.00021,4,11
18097,0.00016,0.00024,0.00037,0.00046,-0.00084,0.00082,0.00045,0.00021,4,11
18098,0.00016,0.00024,0.00037,0.00046,-0.00084,0.00082,0.00045,0.00021,4,11
18099,0.00016,0.00024,0.00037,0.00046,-0.00084,0.00082,0.00045,0.00021,4,11
18100,0.00016,0.00024,0.00037,0.00046,-0.00084,0.00082,0.00045,0.00021,4,11
18101,0.00016,0.00024,0.00037,0.00046,-0.00084,0.00082,0.00045,0.00021,4,11
18102,0.00016,0.00024,0.00037,0.00046,-0.00084,0.00082,0.00045,0.00021,4,11
18103,0.00016,0.00024,0.00037,0.00046,-0.00084,0.00082,0.00045,0.00021,4,11
18104,0.00016,0.00024,0.00037,0.00046,-0.00084,0.00082,0.00045,0.00021,4,11
18105,0.00016,0.00024,0.00037,0.00046,-0.00084,0.00082,0.00045,0.00021,4,11
18106,0.00016,0.00024,0.00037,0.00046,-0.00084,0.00082,0.00045,0.00021,4,11
18107,0.00016,0.00024,0.00037,0.00046,-0.00084,0.00082,0.00045,0.00021,4,11
18108,0.00016,0.00024,0.00037,0.00046,-0.00084,0.00082,0.00045,0.00021,4,11
18109,0.00016,0.00024,0.00037,0.00046,-0.00084,0.00082,0.00045,0.00021,4,11
18110,0.00016,0.00024,0.00037,0.00046,-0.00084,0.00082,0.00045,0.00021,4,11
18111,0.00016,0.00024,0.00037,0.00046,-0.00084,0.00082,0.00045,0.00021,4,11
18112,-4e-05,-1e-05,-9e-05,-0.0006,-0.00083,-0.00068,-9e-05,-7e-05,4,11
18113,0,3e-05,0.00018,0.00072,-0.00059,0.00036,0,-1e-05,4,11
18114,-8e-05,-7e-05,-0.00021,-0.00044,0.0012,-0.00031,-0.00024,-8e-05,4,11
18115,-8e-05,-7e-05,-0.00021,-0.00044,0.0012,-0.00031,-0.00024,-8e-05,4,11
18116,-8e-05,-7e-05,-0.00021,-0.00044,0.0012,-0.00031,-0.00024,-8e-05,4,11
18117,-8e-05,-7e-05,-0.00021,-0.00044,0.0012,-0.00031,-0.00024,-8e-05,4,11
18118,-8e-05,-7e-05,-0.00021,-0.00044,0.0012,-0.00031,-0.00024,-8e-05,4,11
18119,-8e-05,-7e-05,-0.00021,-0.00044,0.0012,-0.00031,-0.00024,-8e-05,4,11
18120,-8e-05,-7e-05,-0.00021,-0.00044,0.0012,-0.00031,-0.00024,-8e-05,4,11
18121,-8e-05,-7e-05,-0.00021,-0.00044,0.0012,-0.00031,-0.00024,-8e-05,4,11
18122,-8e-05,-7e-05,-0.00021,-0.00044,0.0012,-0.00031,-0.00024,-8e-05,4,11
18123,-8e-05,-7e-05,-0.00021,-0.00044,0.0012,-0.00031,-0.00024,-8e-05,4,11
18124,-8e-05,-7e-05,-0.00021,-0.00044,0.0012,-0.00031,-0.00024,-8e-05,4,11
18125,-8e-05,-7e-05,-0.00021,-0.00044,0.0012,-0.00031,-0.00024,-8e-05,4,11
18126,-8e-05,-7e-05,-0.00021,-0.00044,0.0012,-0.00031,-0.00024,-8e-05,4,11
18127,-8e-05,-7e-05,-0.00021,-0.00044,0.0012,-0.00031,-0.00024,-8e-05,4,11
18128,-2e-05,-4e-05,-7e-05,0.00035,0.00089,0.00031,-2e-05,0,4,11
18129,-2e-05,-4e-05,0.00019,0.00093,0.00087,-0.00013,-9e-05,-4e-05,4,11
18130,-2e-05,-4e-05,0.00019,0.00093,0.00087,-0.00013,-9e-05,-4e-05,4,11
18131,-2e-05,-4e-05,0.00019,0.00093,0.00087,-0.00013,-9e-05,-4e-05,4,11
18132,-2e-05,-4e-05,0.00019,0.00093,0.00087,-0.00013,-9e-05,-4e-05,4,11
18133,-2e-05,-4e-05,0.00019,0.00093,0.00087,-0.00013,-9e-05,-4e-05,4,11
18134,-2e-05,-4e-05,0.00019,0.00093,0.00087,-0.00013,-9e-05,-4e-05,4,11
18135,-2e-05,-4e-05,0.00019,0.00093,0.00087,-0.00013,-9e-05,-4e-05,4,11
18136,-2e-05,-4e-05,0.00019,0.00093,0.00087,-0.00013,-9e-05,-4e-05,4,11
18138,-2e-05,-4e-05,0.00019,0.00093,0.00087,-0.00013,-9e-05,-4e-05,4,11
18139,-2e-05,-4e-05,0.00019,0.00093,0.00087,-0.00013,-9e-05,-4e-05,4,11
18140,-2e-05,-4e-05,0.00019,0.00093,0.00087,-0.00013,-9e-05,-4e-05,4,11
18141,-2e-05,-4e-05,0.00019,0.00093,0.00087,-0.00013,-9e-05,-4e-05,4,11
18142,-2e-05,-4e-05,0.00019,0.00093,0.00087,-0.00013,-9e-05,-4e-05,4,11
18143,-2e-05,-4e-05,0.00019,0.00093,0.00087,-0.00013,-9e-05,-4e-05,4,11
18144,-2e-05,-4e-05,0.00019,0.00093,0.00087,-0.00013,-9e-05,-4e-05,4,11
18145,-2e-05,-4e-05,0.00019,0.00093,0.00087,-0.00013,-9e-05,-4e-05,4,11
18146,-2e-05,-4e-05,0.00019,0.00093,0.00087,-0.00013,-9e-05,-4e-05,4,11
18147,-2e-05,-4e-05,0.00019,0.00093,0.00087,-0.00013,-9e-05,-4e-05,4,11
18148,-2e-05,-4e-05,0.00019,0.00093,0.00087,-0.00013,-9e-05,-4e-05,4,11
18149,-2e-05,-4e-05,0.00019,0.00093,0.00087,-0.00013,-9e-05,-4e-05,4,11
18150,-2e-05,-4e-05,0.00019,0.00093,0.00087,-0.00013,-9e-05,-4e-05,4,11
18151,-2e-05,-4e-05,0.00019,0.00093,0.00087,-0.00013,-9e-05,-4e-05,4,11
18152,-2e-05,-4e-05,0.00019,0.00093,0.00087,-0.00013,-9e-05,-4e-05,4,11
18153,-2e-05,-4e-05,0.00019,0.00093,0.00087,-0.00013,-9e-05,-4e-05,4,11
18154,-2e-05,-4e-05,0.00019,0.00093,0.00087,-0.00013,-9e-05,-4e-05,4,11
18155,-2e-05,-4e-05,0.00019,0.00093,0.00087,-0.00013,-9e-05,-4e-05,4,11
18156,-2e-05,-4e-05,0.00019,0.00093,0.00087,-0.00013,-9e-05,-4e-05,4,11
18157,-1e-05,0,-0.00023,-0.00025,-0.00026,0.0005,2e-05,-2e-05,4,11
18158,-9e-05,-0.0001,-8e-05,-0.00026,-0.00054,-0.00064,-0.00018,-0.00013,4,11
18159,1e-05,-1e-05,-0.00017,-0.00078,-0.00116,-0.00021,0,-1e-05,4,11
18160,1e-05,-1e-05,-0.00017,-0.00078,-0.00116,-0.00021,0,-1e-05,4,11
18161,1e-05,-1e-05,-0.00017,-0.00078,-0.00116,-0.00021,0,-1e-05,4,11
18162,1e-05,-1e-05,-0.00017,-0.00078,-0.00116,-0.00021,0,-1e-05,4,11
18163,1e-05,-1e-05,-0.00017,-0.00078,-0.00116,-0.00021,0,-1e-05,4,11
18164,1e-05,-1e-05,-0.00017,-0.00078,-0.00116,-0.00021,0,-1e-05,4,11
18165,1e-05,-1e-05,-0.00017,-0.00078,-0.00116,-0.00021,0,-1e-05,4,11
18166,1e-05,-1e-05,-0.00017,-0.00078,-0.00116,-0.00021,0,-1e-05,4,11
18167,1e-05,-1e-05,-0.00017,-0.00078,-0.00116,-0.00021,0,-1e-05,4,11
18168,1e-05,-1e-05,-0.00017,-0.00078,-0.00116,-0.00021,0,-1e-05,4,11
18169,1e-05,-1e-05,-0.00017,-0.00078,-0.00116,-0.00021,0,-1e-05,4,11
18170,1e-05,-1e-05,-0.00017,-0.00078,-0.00116,-0.00021,0,-1e-05,4,11
18171,1e-05,-1e-05,-0.00017,-0.00078,-0.00116,-0.00021,0,-1e-05,4,11
18172,-3e-05,-7e-05,-7e-05,-0.00033,0.00074,-0.00055,-9e-05,-4e-05,4,11
18173,5e-05,7e-05,0.00012,-0.00057,0.00036,0.00038,0.00011,6e-05,4,11
18174,-7e-05,-0.00012,-0.00015,0.00011,-0.00047,0.00078,-0.00012,-0.0001,4,11
18175,-7e-05,-0.00012,-0.00015,0.00011,-0.00047,0.00078,-0.00012,-0.0001,4,11
18176,-7e-05,-0.00012,-0.00015,0.00011,-0.00047,0.00078,-0.00012,-0.0001,4,11
18177,-7e-05,-0.00012,-0.00015,0.00011,-0.00047,0.00078,-0.00012,-0.0001,4,11
18178,-7e-05,-0.00012,-0.00015,0.00011,-0.00047,0.00078,-0.00012,-0.0001,4,11
18179,-7e-05,-0.00012,-0.00015,0.00011,-0.00047,0.00078,-0.00012,-0.0001,4,11
18180,-7e-05,-0.00012,-0.00015,0.00011,-0.00047,0.00078,-0.00012,-0.0001,4,11
18181,-7e-05,-0.00012,-0.00015,0.00011,-0.00047,0.00078,-0.00012,-0.0001,4,11
18182,-7e-05,-0.00012,-0.00015,0.00011,-0.00047,0.00078,-0.00012,-0.0001,4,11
18183,-7e-05,-0.00012,-0.00015,0.00011,-0.00047,0.00078,-0.00012,-0.0001,4,11
18184,-7e-05,-0.00012,-0.00015,0.00011,-0.00047,0.00078,-0.00012,-0.0001,4,11
18185,-7e-05,-0.00012,-0.00015,0.00011,-0.00047,0.00078,-0.00012,-0.0001,4,11
18186,-7e-05,-0.00012,-0.00015,0.00011,-0.00047,0.00078,-0.00012,-0.0001,4,11
18189,-6e-05,-8e-05,-0.00018,0.0001,-0.00036,-0.00065,-0.00014,-0.0001,4,11
18190,-6e-05,-8e-05,-0.00018,0.0001,-0.00036,-0.00065,-0.00014,-0.0001,4,11
18191,-6e-05,-8e-05,-0.00018,0.0001,-0.00036,-0.00065,-0.00014,-0.0001,4,11
18192,-6e-05,-8e-05,-0.00018,0.0001,-0.00036,-0.00065,-0.00014,-0.0001,4,11
18193,-6e-05,-8e-05,-0.00018,0.0001,-0.00036,-0.00065,-0.00014,-0.0001,4,11
18194,-6e-05,-8e-05,-0.00018,0.0001,-0.00036,-0.00065,-0.00014,-0.0001,4,11
18195,-6e-05,-8e-05,-0.00018,0.0001,-0.00036,-0.00065,-0.00014,-0.0001,4,11
18196,-6e-05,-8e-05,-0.00018,0.0001,-0.00036,-0.00065,-0.00014,-0.0001,4,11
18197,-6e-05,-8e-05,-0.00018,0.0001,-0.00036,-0.00065,-0.00014,-0.0001,4,11
18198,-6e-05,-8e-05,-0.00018,0.0001,-0.00036,-0.00065,-0.00014,-0.0001,4,11
18199,-6e-05,-8e-05,-0.00018,0.0001,-0.00036,-0.00065,-0.00014,-0.0001,4,11
18200,-6e-05,-8e-05,-0.00018,0.0001,-0.00036,-0.00065,-0.00014,-0.0001,4,11
18201,-6e-05,-8e-05,-0.00018,0.0001,-0.00036,-0.00065,-0.00014,-0.0001,4,11
18202,-6e-05,-8e-05,-0.00018,0.0001,-0.00036,-0.00065,-0.00014,-0.0001,4,11
18203,-6e-05,-8e-05,-0.00018,0.0001,-0.00036,-0.00065,-0.00014,-0.0001,4,11
18204,-6e-05,-8e-05,-0.00018,0.0001,-0.00036,-0.00065,-0.00014,-0.0001,4,11
18205,-6e-05,-8e-05,-0.00018,0.0001,-0.00036,-0.00065,-0.00014,-0.0001,4,11
18206,-6e-05,-8e-05,-0.00018,0.0001,-0.00036,-0.00065,-0.00014,-0.0001,4,11
18207,-6e-05,-8e-05,-0.00018,0.0001,-0.00036,-0.00065,-0.00014,-0.0001,4,11
18208,-6e-05,-8e-05,-0.00018,0.0001,-0.00036,-0.00065,-0.00014,-0.0001,4,11
18209,-6e-05,-8e-05,-0.00018,0.0001,-0.00036,-0.00065,-0.00014,-0.0001,4,11
18210,-2e-05,0,0.0001,0.0009,0.00112,-0.00012,-6e-05,-2e-05,4,11
18211,-2e-05,0,0.0001,0.0009,0.00112,-0.00012,-6e-05,-2e-05,4,11
18212,-1e-05,-7e-05,-0.00033,-0.00044,0.00036,0.0012,0.00026,6e-05,4,11
18213,-1e-05,-7e-05,-0.00033,-0.00044,0.00036,0.0012,0.00026,6e-05,4,11
18214,-1e-05,-7e-05,-0.00033,-0.00044,0.00036,0.0012,0.00026,6e-05,4,11
18215,-1e-05,-7e-05,-0.00033,-0.00044,0.00036,0.0012,0.00026,6e-05,4,11
18216,-1e-05,-7e-05,-0.00033,-0.00044,0.00036,0.0012,0.00026,6e-05,4,11
18217,-1e-05,-7e-05,-0.00033,-0.00044,0.00036,0.0012,0.00026,6e-05,4,11
18218,-1e-05,-7e-05,-0.00033,-0.00044,0.00036,0.0012,0.00026,6e-05,4,11
18219,-1e-05,-7e-05,-0.00033,-0.00044,0.00036,0.0012,0.00026,6e-05,4,11
18220,-1e-05,-7e-05,-0.00033,-0.00044,0.00036,0.0012,0.00026,6e-05,4,11
18221,-1e-05,-7e-05,-0.00033,-0.00044,0.00036,0.0012,0.00026,6e-05,4,11
18222,-1e-05,-7e-05,-0.00033,-0.00044,0.00036,0.0012,0.00026,6e-05,4,11
18223,-1e-05,-7e-05,-0.00033,-0.00044,0.00036,0.0012,0.00026,6e-05,4,11
18224,-1e-05,-7e-05,-0.00033,-0.00044,0.00036,0.0012,0.00026,6e-05,4,11
18225,-1e-05,-7e-05,-0.00033,-0.00044,0.00036,0.0012,0.00026,6e-05,4,11
18226,-1e-05,-7e-05,-0.00033,-0.00044,0.00036,0.0012,0.00026,6e-05,4,11
18227,-1e-05,-7e-05,-0.00033,-0.00044,0.00036,0.0012,0.00026,6e-05,4,11
18228,-1e-05,-7e-05,-0.00033,-0.00044,0.00036,0.0012,0.00026,6e-05,4,11
18229,-1e-05,-7e-05,-0.00033,-0.00044,0.00036,0.0012,0.00026,6e-05,4,11
18230,-1e-05,-7e-05,-0.00033,-0.00044,0.00036,0.0012,0.00026,6e-05,4,11
18231,-1e-05,-7e-05,-0.00033,-0.00044,0.00036,0.0012,0.00026,6e-05,4,11
18232,8e-05,0.00015,0.00027,0.00024,-0.0001,-0.00014,0.00015,0.00011,4,11
18233,8e-05,0.00015,0.00027,0.00024,-0.0001,-0.00014,0.00015,0.00011,4,11
18234,1e-05,7e-05,0.00029,0.00057,0.00012,-0.0003,0,1e-05,4,11
18235,1e-05,7e-05,0.00029,0.00057,0.00012,-0.0003,0,1e-05,4,11
18236,1e-05,7e-05,0.00029,0.00057,0.00012,-0.0003,0,1e-05,4,11
18238,1e-05,7e-05,0.00029,0.00057,0.00012,-0.0003,0,1e-05,4,11
18239,1e-05,7e-05,0.00029,0.00057,0.00012,-0.0003,0,1e-05,4,11
18240,1e-05,7e-05,0.00029,0.00057,0.00012,-0.0003,0,1e-05,4,11
18241,1e-05,7e-05,0.00029,0.00057,0.00012,-0.0003,0,1e-05,4,11
18242,1e-05,7e-05,0.00029,0.00057,0.00012,-0.0003,0,1e-05,4,11
18243,1e-05,7e-05,0.00029,0.00057,0.00012,-0.0003,0,1e-05,4,11
18244,1e-05,7e-05,0.00029,0.00057,0.00012,-0.0003,0,1e-05,4,11
18245,1e-05,7e-05,0.00029,0.00057,0.00012,-0.0003,0,1e-05,4,11
18246,1e-05,7e-05,0.00029,0.00057,0.00012,-0.0003,0,1e-05,4,11
18247,1e-05,7e-05,0.00029,0.00057,0.00012,-0.0003,0,1e-05,4,11
18248,1e-05,7e-05,0.00029,0.00057,0.00012,-0.0003,0,1e-05,4,11
18249,-5e-05,-0.0001,-0.00014,0.00013,0.0002,-1e-05,-0.00022,-0.0001,4,11
18250,-5e-05,-0.0001,-0.00014,0.00013,0.0002,-1e-05,-0.00022,-0.0001,4,11
18251,-5e-05,-0.0001,-0.00014,0.00013,0.0002,-1e-05,-0.00022,-0.0001,4,11
18252,-5e-05,-0.0001,-0.00014,0.00013,0.0002,-1e-05,-0.00022,-0.0001,4,11
18253,7e-05,0.0001,0.00012,-7e-05,0.00043,0.0008,0.00027,9e-05,4,11
18254,2e-05,6e-05,0.00023,0.00063,-0.00073,-0.0008,-0.00012,-3e-05,4,11
18255,2e-05,6e-05,0.00023,0.00063,-0.00073,-0.0008,-0.00012,-3e-05,4,11
18256,2e-05,6e-05,0.00023,0.00063,-0.00073,-0.0008,-0.00012,-3e-05,4,11
18257,2e-05,6e-05,0.00023,0.00063,-0.00073,-0.0008,-0.00012,-3e-05,4,11
18258,2e-05,6e-05,0.00023,0.00063,-0.00073,-0.0008,-0.00012,-3e-05,4,11
18259,2e-05,6e-05,0.00023,0.00063,-0.00073,-0.0008,-0.00012,-3e-05,4,11
18260,2e-05,6e-05,0.00023,0.00063,-0.00073,-0.0008,-0.00012,-3e-05,4,11
18261,2e-05,6e-05,0.00023,0.00063,-0.00073,-0.0008,-0.00012,-3e-05,4,11
18262,2e-05,6e-05,0.00023,0.00063,-0.00073,-0.0008,-0.00012,-3e-05,4,11
18263,2e-05,6e-05,0.00023,0.00063,-0.00073,-0.0008,-0.00012,-3e-05,4,11
18264,2e-05,6e-05,0.00023,0.00063,-0.00073,-0.0008,-0.00012,-3e-05,4,11
18265,2e-05,6e-05,0.00023,0.00063,-0.00073,-0.0008,-0.00012,-3e-05,4,11
18266,2e-05,6e-05,0.00023,0.00063,-0.00073,-0.0008,-0.00012,-3e-05,4,11
18267,2e-05,6e-05,0.00023,0.00063,-0.00073,-0.0008,-0.00012,-3e-05,4,11
18268,2e-05,6e-05,0.00023,0.00063,-0.00073,-0.0008,-0.00012,-3e-05,4,11
18269,2e-05,6e-05,0.00023,0.00063,-0.00073,-0.0008,-0.00012,-3e-05,4,11
18270,-1e-05,-4e-05,-5e-05,-0.00043,0.00118,-0.00021,2e-05,1e-05,4,11
18271,-6e-05,-4e-05,0,0.00033,-0.00128,0,-7e-05,-4e-05,4,11
18272,2e-05,6e-05,0.00015,0.00035,-4e-05,-3e-05,-2e-05,0,4,11
18273,2e-05,6e-05,0.00015,0.00035,-4e-05,-3e-05,-2e-05,0,4,11
18274,2e-05,6e-05,0.00015,0.00035,-4e-05,-3e-05,-2e-05,0,4,11
18275,2e-05,6e-05,0.00015,0.00035,-4e-05,-3e-05,-2e-05,0,4,11
18276,2e-05,6e-05,0.00015,0.00035,-4e-05,-3e-05,-2e-05,0,4,11
18277,2e-05,6e-05,0.00015,0.00035,-4e-05,-3e-05,-2e-05,0,4,11
18278,2e-05,6e-05,0.00015,0.00035,-4e-05,-3e-05,-2e-05,0,4,11
18279,2e-05,6e-05,0.00015,0.00035,-4e-05,-3e-05,-2e-05,0,4,11
18280,2e-05,6e-05,0.00015,0.00035,-4e-05,-3e-05,-2e-05,0,4,11
18281,2e-05,6e-05,0.00015,0.00035,-4e-05,-3e-05,-2e-05,0,4,11
18282,2e-05,6e-05,0.00015,0.00035,-4e-05,-3e-05,-2e-05,0,4,11
18283,2e-05,6e-05,0.00015,0.00035,-4e-05,-3e-05,-2e-05,0,4,11
18284,2e-05,6e-05,0.00015,0.00035,-4e-05,-3e-05,-2e-05,0,4,11
18285,2e-05,6e-05,0.00015,0.00035,-4e-05,-3e-05,-2e-05,0,4,11
18286,2e-05,6e-05,0.00015,0.00035,-4e-05,-3e-05,-2e-05,0,4,11
18288,2e-05,6e-05,0.00015,0.00035,-4e-05,-3e-05,-2e-05,0,4,11
18289,2e-05,6e-05,0.00015,0.00035,-4e-05,-3e-05,-2e-05,0,4,11
18290,2e-05,6e-05,0.00015,0.00035,-4e-05,-3e-05,-2e-05,0,4,11
18291,2e-05,6e-05,0.00015,0.00035,-4e-05,-3e-05,-2e-05,0,4,11
18292,2e-05,6e-05,0.00015,0.00035,-4e-05,-3e-05,-2e-05,0,4,11
18293,2e-05,6e-05,0.00015,0.00035,-4e-05,-3e-05,-2e-05,0,4,11
18294,2e-05,6e-05,0.00015,0.00035,-4e-05,-3e-05,-2e-05,0,4,11
18295,2e-05,6e-05,0.00015,0.00035,-4e-05,-3e-05,-2e-05,0,4,11
18296,2e-05,6e-05,0.00015,0.00035,-4e-05,-3e-05,-2e-05,0,4,11
18297,2e-05,6e-05,0.00015,0.00035,-4e-05,-3e-05,-2e-05,0,4,11
18298,2e-05,6e-05,0.00015,0.00035,-4e-05,-3e-05,-2e-05,0,4,11
18299,2e-05,6e-05,0.00015,0.00035,-4e-05,-3e-05,-2e-05,0,4,11
18300,0,1e-05,0.0001,-0.00015,-0.00028,-0.00048,-2e-05,-1e-05,4,11
18301,0,1e-05,0.0001,-0.00015,-0.00028,-0.00048,-2e-05,-1e-05,4,11
18302,3e-05,0.00011,0.00024,0.00082,0.00104,0.00037,0,3e-05,4,11
18303,3e-05,0.00011,0.00024,0.00082,0.00104,0.00037,0,3e-05,4,11
18304,3e-05,0.00011,0.00024,0.00082,0.00104,0.00037,0,3e-05,4,11
18305,3e-05,0.00011,0.00024,0.00082,0.00104,0.00037,0,3e-05,4,11
18306,3e-05,0.00011,0.00024,0.00082,0.00104,0.00037,0,3e-05,4,11
18307,2e-05,0,0.00011,-0.00033,0.00084,0.00012,5e-05,3e-05,4,11
18308,2e-05,0,0.00011,-0.00033,0.00084,0.00012,5e-05,3e-05,4,11
18309,2e-05,0,0.00011,-0.00033,0.00084,0.00012,5e-05,3e-05,4,11
18310,2e-05,0,0.00011,-0.00033,0.00084,0.00012,5e-05,3e-05,4,11
18311,2e-05,0,0.00011,-0.00033,0.00084,0.00012,5e-05,3e-05,4,11
18312,2e-05,0,0.00011,-0.00033,0.00084,0.00012,5e-05,3e-05,4,11
18313,-3e-05,-0.00012,-0.00046,-0.00116,-0.0001,-0.00013,1e-05,0,4,11
18314,-3e-05,-0.00012,-0.00046,-0.00116,-0.0001,-0.00013,1e-05,0,4,11
18315,-3e-05,-0.00012,-0.00046,-0.00116,-0.0001,-0.00013,1e-05,0,4,11
18316,-3e-05,-0.00012,-0.00046,-0.00116,-0.0001,-0.00013,1e-05,0,4,11
18317,-3e-05,-0.00012,-0.00046,-0.00116,-0.0001,-0.00013,1e-05,0,4,11
18318,-3e-05,-0.00012,-0.00046,-0.00116,-0.0001,-0.00013,1e-05,0,4,11
18319,-3e-05,-0.00012,-0.00046,-0.00116,-0.0001,-0.00013,1e-05,0,4,11
18320,-3e-05,-0.00012,-0.00046,-0.00116,-0.0001,-0.00013,1e-05,0,4,11
18321,-3e-05,-0.00012,-0.00046,-0.00116,-0.0001,-0.00013,1e-05,0,4,11
18322,-3e-05,-0.00012,-0.00046,-0.00116,-0.0001,-0.00013,1e-05,0,4,11
18323,-3e-05,-0.00012,-0.00046,-0.00116,-0.0001,-0.00013,1e-05,0,4,11
18324,-3e-05,-0.00012,-0.00046,-0.00116,-0.0001,-0.00013,1e-05,0,4,11
18325,-3e-05,-0.00012,-0.00046,-0.00116,-0.0001,-0.00013,1e-05,0,4,11
18326,-3e-05,-0.00012,-0.00046,-0.00116,-0.0001,-0.00013,1e-05,0,4,11
18327,-3e-05,-0.00012,-0.00046,-0.00116,-0.0001,-0.00013,1e-05,0,4,11
18328,-3e-05,-0.00012,-0.00046,-0.00116,-0.0001,-0.00013,1e-05,0,4,11
18329,-3e-05,-0.00012,-0.00046,-0.00116,-0.0001,-0.00013,1e-05,0,4,11
18330,2e-05,4e-05,-8e-05,-0.00063,-0.00034,0.0006,0.00012,2e-05,4,11
18331,2e-05,4e-05,-8e-05,-0.00063,-0.00034,0.0006,0.00012,2e-05,4,11
18332,-4e-05,-0.00011,-0.00029,-0.00085,0.0006,-0.00034,-3e-05,-3e-05,4,11
18333,-4e-05,-0.00011,-0.00029,-0.00085,0.0006,-0.00034,-3e-05,-3e-05,4,11
18334,-4e-05,-0.00011,-0.00029,-0.00085,0.0006,-0.00034,-3e-05,-3e-05,4,11
18335,-4e-05,-0.00011,-0.00029,-0.00085,0.0006,-0.00034,-3e-05,-3e-05,4,11
18336,-4e-05,-0.00011,-0.00029,-0.00085,0.0006,-0.00034,-3e-05,-3e-05,4,11
18338,-4e-05,-0.00011,-0.00029,-0.00085,0.0006,-0.00034,-3e-05,-3e-05,4,11
18339,-4e-05,-0.00011,-0.00029,-0.00085,0.0006,-0.00034,-3e-05,-3e-05,4,11
18340,-4e-05,-0.00011,-0.00029,-0.00085,0.0006,-0.00034,-3e-05,-3e-05,4,11
18341,-4e-05,-0.00011,-0.00029,-0.00085,0.0006,-0.00034,-3e-05,-3e-05,4,11
18342,-4e-05,-0.00011,-0.00029,-0.00085,0.0006,-0.00034,-3e-05,-3e-05,4,11
18343,-4e-05,-0.00011,-0.00029,-0.00085,0.0006,-0.00034,-3e-05,-3e-05,4,11
18344,-4e-05,-0.00011,-0.00029,-0.00085,0.0006,-0.00034,-3e-05,-3e-05,4,11
18345,-4e-05,-0.00011,-0.00029,-0.00085,0.0006,-0.00034,-3e-05,-3e-05,4,11
18346,-4e-05,-0.00011,-0.00029,-0.00085,0.0006,-0.00034,-3e-05,-3e-05,4,11
18347,-4e-05,-0.00011,-0.00029,-0.00085,0.0006,-0.00034,-3e-05,-3e-05,4,11
18348,-4e-05,-0.00011,-0.00029,-0.00085,0.0006,-0.00034,-3e-05,-3e-05,4,11
18349,-4e-05,-0.00011,-0.00029,-0.00085,0.0006,-0.00034,-3e-05,-3e-05,4,11
18350,-4e-05,-0.00011,-0.00029,-0.00085,0.0006,-0.00034,-3e-05,-3e-05,4,11
18351,-4e-05,-0.00011,-0.00029,-0.00085,0.0006,-0.00034,-3e-05,-3e-05,4,11
18352,5e-05,0.00011,0.0004,0.00127,0.00059,0.00033,3e-05,2e-05,4,11
18353,-3e-05,-2e-05,-0.00014,-0.00056,-0.00093,-0.00041,5e-05,-2e-05,4,11
18354,0.00014,0.00016,0.00013,-0.00013,-0.00059,0.00028,0.00024,0.00019,4,11
18355,0.00014,0.00016,0.00013,-0.00013,-0.00059,0.00028,0.00024,0.00019,4,11
18356,0.00014,0.00016,0.00013,-0.00013,-0.00059,0.00028,0.00024,0.00019,4,11
18357,0.00014,0.00016,0.00013,-0.00013,-0.00059,0.00028,0.00024,0.00019,4,11
18358,0.00014,0.00016,0.00013,-0.00013,-0.00059,0.00028,0.00024,0.00019,4,11
18359,0.00014,0.00016,0.00013,-0.00013,-0.00059,0.00028,0.00024,0.00019,4,11
18360,0.00014,0.00016,0.00013,-0.00013,-0.00059,0.00028,0.00024,0.00019,4,11
18361,0.00014,0.00016,0.00013,-0.00013,-0.00059,0.00028,0.00024,0.00019,4,11
18362,0.00014,0.00016,0.00013,-0.00013,-0.00059,0.00028,0.00024,0.00019,4,11
18363,0.00014,0.00016,0.00013,-0.00013,-0.00059,0.00028,0.00024,0.00019,4,11
18364,0.00014,0.00016,0.00013,-0.00013,-0.00059,0.00028,0.00024,0.00019,4,11
18365,0.00014,0.00016,0.00013,-0.00013,-0.00059,0.00028,0.00024,0.00019,4,11
18366,0.00014,0.00016,0.00013,-0.00013,-0.00059,0.00028,0.00024,0.00019,4,11
18367,-5e-05,-8e-05,-0.0002,0.00021,-0.00067,-0.00059,-7e-05,-4e-05,4,11
18368,-5e-05,-8e-05,-0.0002,0.00021,-0.00067,-0.00059,-7e-05,-4e-05,4,11
18369,-5e-05,-8e-05,-0.0002,0.00021,-0.00067,-0.00059,-7e-05,-4e-05,4,11
18370,-5e-05,-8e-05,-0.0002,0.00021,-0.00067,-0.00059,-7e-05,-4e-05,4,11
18371,-5e-05,-8e-05,-0.0002,0.00021,-0.00067,-0.00059,-7e-05,-4e-05,4,11
18372,-5e-05,-8e-05,-0.0002,0.00021,-0.00067,-0.00059,-7e-05,-4e-05,4,11
18373,-5e-05,-8e-05,-0.0002,0.00021,-0.00067,-0.00059,-7e-05,-4e-05,4,11
18374,-6e-05,-0.00012,-0.0002,-0.00055,0.00026,7e-05,-0.0001,-5e-05,4,11
18375,-6e-05,-0.00012,-0.0002,-0.00055,0.00026,7e-05,-0.0001,-5e-05,4,11
18376,-6e-05,-0.00012,-0.0002,-0.00055,0.00026,7e-05,-0.0001,-5e-05,4,11
18377,-6e-05,-0.00012,-0.0002,-0.00055,0.00026,7e-05,-0.0001,-5e-05,4,11
18378,-6e-05,-0.00012,-0.0002,-0.00055,0.00026,7e-05,-0.0001,-5e-05,4,11
18379,-6e-05,-0.00012,-0.0002,-0.00055,0.00026,7e-05,-0.0001,-5e-05,4,11
18380,-6e-05,-0.00012,-0.0002,-0.00055,0.00026,7e-05,-0.0001,-5e-05,4,11
18381,-6e-05,-0.00012,-0.0002,-0.00055,0.00026,7e-05,-0.0001,-5e-05,4,11
18382,-6e-05,-0.00012,-0.0002,-0.00055,0.00026,7e-05,-0.0001,-5e-05,4,11
18383,-6e-05,-0.00012,-0.0002,-0.00055,0.00026,7e-05,-0.0001,-5e-05,4,11
18384,-6e-05,-0.00012,-0.0002,-0.00055,0.00026,7e-05,-0.0001,-5e-05,4,11
18385,-6e-05,-0.00012,-0.0002,-0.00055,0.00026,7e-05,-0.0001,-5e-05,4,11
18386,-6e-05,-0.00012,-0.0002,-0.00055,0.00026,7e-05,-0.0001,-5e-05,4,11
18388,-6e-05,-0.00012,-0.0002,-0.00055,0.00026,7e-05,-0.0001,-5e-05,4,11
18389,-6e-05,-0.00012,-0.0002,-0.00055,0.00026,7e-05,-0.0001,-5e-05,4,11
18390,8e-05,0.00019,0.0004,0.00111,-0.00101,9e-05,9e-05,0.00012,4,11
18391,8e-05,0.00019,0.0004,0.00111,-0.00101,9e-05,9e-05,0.00012,4,11
18392,-9e-05,-1e-05,0.00027,0.00123,0.00052,5e-05,-0.00016,-0.00013,4,11
18393,-9e-05,-1e-05,0.00027,0.00123,0.00052,5e-05,-0.00016,-0.00013,4,11
18394,-9e-05,-1e-05,0.00027,0.00123,0.00052,5e-05,-0.00016,-0.00013,4,11
18395,-9e-05,-1e-05,0.00027,0.00123,0.00052,5e-05,-0.00016,-0.00013,4,11
18396,-9e-05,-1e-05,0.00027,0.00123,0.00052,5e-05,-0.00016,-0.00013,4,11
18397,-9e-05,-1e-05,0.00027,0.00123,0.00052,5e-05,-0.00016,-0.00013,4,11
18398,-9e-05,-1e-05,0.00027,0.00123,0.00052,5e-05,-0.00016,-0.00013,4,11
18399,-9e-05,-1e-05,0.00027,0.00123,0.00052,5e-05,-0.00016,-0.00013,4,11
18400,-9e-05,-1e-05,0.00027,0.00123,0.00052,5e-05,-0.00016,-0.00013,4,11
18401,-9e-05,-1e-05,0.00027,0.00123,0.00052,5e-05,-0.00016,-0.00013,4,11
18402,-9e-05,-1e-05,0.00027,0.00123,0.00052,5e-05,-0.00016,-0.00013,4,11
18403,-9e-05,-1e-05,0.00027,0.00123,0.00052,5e-05,-0.00016,-0.00013,4,11
18404,-9e-05,-1e-05,0.00027,0.00123,0.00052,5e-05,-0.00016,-0.00013,4,11
18405,-9e-05,-1e-05,0.00027,0.00123,0.00052,5e-05,-0.00016,-0.00013,4,11
18406,-9e-05,-1e-05,0.00027,0.00123,0.00052,5e-05,-0.00016,-0.00013,4,11
18407,-9e-05,-1e-05,0.00027,0.00123,0.00052,5e-05,-0.00016,-0.00013,4,11
18408,-9e-05,-1e-05,0.00027,0.00123,0.00052,5e-05,-0.00016,-0.00013,4,11
18409,-9e-05,-1e-05,0.00027,0.00123,0.00052,5e-05,-0.00016,-0.00013,4,11
18410,-9e-05,-1e-05,0.00027,0.00123,0.00052,5e-05,-0.00016,-0.00013,4,11
18411,-9e-05,-1e-05,0.00027,0.00123,0.00052,5e-05,-0.00016,-0.00013,4,11
18412,-9e-05,-1e-05,0.00027,0.00123,0.00052,5e-05,-0.00016,-0.00013,4,11
18413,-0.0001,-0.00017,-0.00029,7e-05,-0.00056,5e-05,-0.00014,-0.00014,4,11
18414,-0.0001,-0.00017,-0.00029,7e-05,-0.00056,5e-05,-0.00014,-0.00014,4,11
18415,-1e-05,3e-05,0.00014,0.00061,-0.00089,0.00011,-5e-05,-3e-05,4,11
18416,-1e-05,3e-05,0.00014,0.00061,-0.00089,0.00011,-5e-05,-3e-05,4,11
18417,-1e-05,3e-05,0.00014,0.00061,-0.00089,0.00011,-5e-05,-3e-05,4,11
18418,-1e-05,3e-05,0.00014,0.00061,-0.00089,0.00011,-5e-05,-3e-05,4,11
18419,-1e-05,3e-05,0.00014,0.00061,-0.00089,0.00011,-5e-05,-3e-05,4,11
18420,-1e-05,3e-05,0.00014,0.00061,-0.00089,0.00011,-5e-05,-3e-05,4,11
18421,-1e-05,3e-05,0.00014,0.00061,-0.00089,0.00011,-5e-05,-3e-05,4,11
18422,-1e-05,3e-05,0.00014,0.00061,-0.00089,0.00011,-5e-05,-3e-05,4,11
18423,-1e-05,3e-05,0.00014,0.00061,-0.00089,0.00011,-5e-05,-3e-05,4,11
18424,-1e-05,3e-05,0.00014,0.00061,-0.00089,0.00011,-5e-05,-3e-05,4,11
18425,-1e-05,3e-05,0.00014,0.00061,-0.00089,0.00011,-5e-05,-3e-05,4,11
18426,-1e-05,3e-05,0.00014,0.00061,-0.00089,0.00011,-5e-05,-3e-05,4,11
18427,-1e-05,3e-05,0.00014,0.00061,-0.00089,0.00011,-5e-05,-3e-05,4,11
18428,-1e-05,3e-05,0.00014,0.00061,-0.00089,0.00011,-5e-05,-3e-05,4,11
18429,-1e-05,3e-05,0.00014,0.00061,-0.00089,0.00011,-5e-05,-3e-05,4,11
18430,-1e-05,3e-05,0.00014,0.00061,-0.00089,0.00011,-5e-05,-3e-05,4,11
18431,-1e-05,3e-05,0.00014,0.00061,-0.00089,0.00011,-5e-05,-3e-05,4,11
18432,-1e-05,3e-05,0.00014,0.00061,-0.00089,0.00011,-5e-05,-3e-05,4,11
18433,-1e-05,3e-05,0.00014,0.00061,-0.00089,0.00011,-5e-05,-3e-05,4,11
18434,-1e-05,3e-05,0.00014,0.00061,-0.00089,0.00011,-5e-05,-3e-05,4,11
18435,2e-05,-2e-05,-0.00011,0.00056,-0.00083,0.00042,0.00011,7e-05,4,11
18436,-2e-05,1e-05,0.00014,0.00066,-2e-05,-0.0002,-5e-05,-5e-05,4,11
18438,-1e-05,-4e-05,-0.00017,-0.00068,-0.00122,-0.00013,5e-05,-2e-05,4,11
18439,-1e-05,-4e-05,-0.00017,-0.00068,-0.00122,-0.00013,5e-05,-2e-05,4,11
18440,-1e-05,-4e-05,-0.00017,-0.00068,-0.00122,-0.00013,5e-05,-2e-05,4,11
18441,-1e-05,-4e-05,-0.00017,-0.00068,-0.00122,-0.00013,5e-05,-2e-05,4,11
18442,-1e-05,-4e-05,-0.00017,-0.00068,-0.00122,-0.00013,5e-05,-2e-05,4,11
18443,-1e-05,-4e-05,-0.00017,-0.00068,-0.00122,-0.00013,5e-05,-2e-05,4,11
18444,-1e-05,-4e-05,-0.00017,-0.00068,-0.00122,-0.00013,5e-05,-2e-05,4,11
18445,-1e-05,-4e-05,-0.00017,-0.00068,-0.00122,-0.00013,5e-05,-2e-05,4,11
18446,-1e-05,-4e-05,-0.00017,-0.00068,-0.00122,-0.00013,5e-05,-2e-05,4,11
18447,-1e-05,-4e-05,-0.00017,-0.00068,-0.00122,-0.00013,5e-05,-2e-05,4,11
18448,-1e-05,-4e-05,-0.00017,-0.00068,-0.00122,-0.00013,5e-05,-2e-05,4,11
18449,-1e-05,-4e-05,-0.00017,-0.00068,-0.00122,-0.00013,5e-05,-2e-05,4,11
18450,1e-05,4e-05,0,0.00051,3e-05,0.00013,-3e-05,-3e-05,4,11
18451,-6e-05,-8e-05,-0.00019,-0.00028,7e-05,-0.00024,-0.00015,-5e-05,4,11
18452,-3e-05,0,0.00022,0.001,0.00063,-0.00042,-7e-05,-2e-05,4,11
18453,-3e-05,0,0.00022,0.001,0.00063,-0.00042,-7e-05,-2e-05,4,11
18454,-3e-05,0,0.00022,0.001,0.00063,-0.00042,-7e-05,-2e-05,4,11
18455,-3e-05,0,0.00022,0.001,0.00063,-0.00042,-7e-05,-2e-05,4,11
18456,-3e-05,0,0.00022,0.001,0.00063,-0.00042,-7e-05,-2e-05,4,11
18457,-3e-05,0,0.00022,0.001,0.00063,-0.00042,-7e-05,-2e-05,4,11
18458,-3e-05,0,0.00022,0.001,0.00063,-0.00042,-7e-05,-2e-05,4,11
18459,-3e-05,0,0.00022,0.001,0.00063,-0.00042,-7e-05,-2e-05,4,11
18460,-3e-05,0,0.00022,0.001,0.00063,-0.00042,-7e-05,-2e-05,4,11
18461,-3e-05,0,0.00022,0.001,0.00063,-0.00042,-7e-05,-2e-05,4,11
18462,-3e-05,0,0.00022,0.001,0.00063,-0.00042,-7e-05,-2e-05,4,11
18463,-3e-05,0,0.00022,0.001,0.00063,-0.00042,-7e-05,-2e-05,4,11
18464,-3e-05,0,0.00022,0.001,0.00063,-0.00042,-7e-05,-2e-05,4,11
18465,-3e-05,0,0.00022,0.001,0.00063,-0.00042,-7e-05,-2e-05,4,11
18466,-3e-05,0,0.00022,0.001,0.00063,-0.00042,-7e-05,-2e-05,4,11
18467,-3e-05,0,0.00022,0.001,0.00063,-0.00042,-7e-05,-2e-05,4,11
18468,-3e-05,0,0.00022,0.001,0.00063,-0.00042,-7e-05,-2e-05,4,11
18469,-3e-05,0,0.00022,0.001,0.00063,-0.00042,-7e-05,-2e-05,4,11
18470,-3e-05,0,0.00022,0.001,0.00063,-0.00042,-7e-05,-2e-05,4,11
18471,-3e-05,0,0.00022,0.001,0.00063,-0.00042,-7e-05,-2e-05,4,11
18472,0,1e-05,-1e-05,-0.00021,0.00058,-0.00023,-3e-05,-2e-05,4,11
18473,-2e-05,-6e-05,-0.00016,-0.00123,-0.0002,8e-05,4e-05,-1e-05,4,11
18474,6e-05,0.00012,0.00031,0.00107,-0.00076,0.00066,0.0001,5e-05,4,11
18475,6e-05,0.00012,0.00031,0.00107,-0.00076,0.00066,0.0001,5e-05,4,11
18476,6e-05,0.00012,0.00031,0.00107,-0.00076,0.00066,0.0001,5e-05,4,11
18477,6e-05,0.00012,0.00031,0.00107,-0.00076,0.00066,0.0001,5e-05,4,11
18478,6e-05,0.00012,0.00031,0.00107,-0.00076,0.00066,0.0001,5e-05,4,11
18479,6e-05,0.00012,0.00031,0.00107,-0.00076,0.00066,0.0001,5e-05,4,11
18480,6e-05,0.00012,0.00031,0.00107,-0.00076,0.00066,0.0001,5e-05,4,11
18481,6e-05,0.00012,0.00031,0.00107,-0.00076,0.00066,0.0001,5e-05,4,11
18482,6e-05,0.00012,0.00031,0.00107,-0.00076,0.00066,0.0001,5e-05,4,11
18483,6e-05,0.00012,0.00031,0.00107,-0.00076,0.00066,0.0001,5e-05,4,11
18484,6e-05,0.00012,0.00031,0.00107,-0.00076,0.00066,0.0001,5e-05,4,11
18485,6e-05,0.00012,0.00031,0.00107,-0.00076,0.00066,0.0001,5e-05,4,11
18486,6e-05,0.00012,0.00031,0.00107,-0.00076,0.00066,0.0001,5e-05,4,11
18489,8e-05,0.00017,0.00051,0.00079,-0.00057,0.00019,1e-05,7e-05,4,11
18490,8e-05,0.00017,0.00051,0.00079,-0.00057,0.00019,1e-05,7e-05,4,11
18491,8e-05,0.00017,0.00051,0.00079,-0.00057,0.00019,1e-05,7e-05,4,11
18492,8e-05,0.00017,0.00051,0.00079,-0.00057,0.00019,1e-05,7e-05,4,11
18493,-9e-05,-0.00015,-0.00058,-0.00067,-0.00074,-0.00049,-0.00013,-0.00012,4,11
18494,-3e-05,-0.0001,-0.00028,-0.0012,4e-05,0.00023,-5e-05,-4e-05,4,11
18495,-3e-05,-0.0001,-0.00028,-0.0012,4e-05,0.00023,-5e-05,-4e-05,4,11
18496,-3e-05,-0.0001,-0.00028,-0.0012,4e-05,0.00023,-5e-05,-4e-05,4,11
18497,-3e-05,-0.0001,-0.00028,-0.0012,4e-05,0.00023,-5e-05,-4e-05,4,11
18498,-3e-05,-0.0001,-0.00028,-0.0012,4e-05,0.00023,-5e-05,-4e-05,4,11
18499,-3e-05,-0.0001,-0.00028,-0.0012,4e-05,0.00023,-5e-05,-4e-05,4,11
18500,-3e-05,-0.0001,-0.00028,-0.0012,4e-05,0.00023,-5e-05,-4e-05,4,11
18501,-3e-05,-0.0001,-0.00028,-0.0012,4e-05,0.00023,-5e-05,-4e-05,4,11
18502,-3e-05,-0.0001,-0.00028,-0.0012,4e-05,0.00023,-5e-05,-4e-05,4,11
18503,-3e-05,-0.0001,-0.00028,-0.0012,4e-05,0.00023,-5e-05,-4e-05,4,11
18504,-3e-05,-0.0001,-0.00028,-0.0012,4e-05,0.00023,-5e-05,-4e-05,4,11
18505,-3e-05,-0.0001,-0.00028,-0.0012,4e-05,0.00023,-5e-05,-4e-05,4,11
18506,-3e-05,-0.0001,-0.00028,-0.0012,4e-05,0.00023,-5e-05,-4e-05,4,11
18507,-3e-05,-0.0001,-0.00028,-0.0012,4e-05,0.00023,-5e-05,-4e-05,4,11
18508,-3e-05,-0.0001,-0.00028,-0.0012,4e-05,0.00023,-5e-05,-4e-05,4,11
18509,-3e-05,-0.0001,-0.00028,-0.0012,4e-05,0.00023,-5e-05,-4e-05,4,11
18510,-3e-05,-3e-05,6e-05,-0.00062,-0.00094,-0.00015,0,-5e-05,4,11
18511,-2e-05,-5e-05,-4e-05,0.00024,0.00043,-2e-05,-5e-05,-4e-05,4,11
18512,-2e-05,-5e-05,-4e-05,0.00024,0.00043,-2e-05,-5e-05,-4e-05,4,11
18513,-2e-05,-5e-05,-4e-05,0.00024,0.00043,-2e-05,-5e-05,-4e-05,4,11
18514,-2e-05,-5e-05,-4e-05,0.00024,0.00043,-2e-05,-5e-05,-4e-05,4,11
18515,-2e-05,-5e-05,-4e-05,0.00024,0.00043,-2e-05,-5e-05,-4e-05,4,11
18516,-2e-05,-5e-05,-4e-05,0.00024,0.00043,-2e-05,-5e-05,-4e-05,4,11
18517,-2e-05,-5e-05,-4e-05,0.00024,0.00043,-2e-05,-5e-05,-4e-05,4,11
18518,-2e-05,-5e-05,-4e-05,0.00024,0.00043,-2e-05,-5e-05,-4e-05,4,11
18519,-2e-05,-5e-05,-4e-05,0.00024,0.00043,-2e-05,-5e-05,-4e-05,4,11
18520,-2e-05,-5e-05,-4e-05,0.00024,0.00043,-2e-05,-5e-05,-4e-05,4,11
18521,-2e-05,-5e-05,-4e-05,0.00024,0.00043,-2e-05,-5e-05,-4e-05,4,11
18522,-2e-05,-5e-05,-4e-05,0.00024,0.00043,-2e-05,-5e-05,-4e-05,4,11
18523,-2e-05,-5e-05,-4e-05,0.00024,0.00043,-2e-05,-5e-05,-4e-05,4,11
18524,-2e-05,-5e-05,-4e-05,0.00024,0.00043,-2e-05,-5e-05,-4e-05,4,11
18525,-2e-05,-5e-05,-4e-05,0.00024,0.00043,-2e-05,-5e-05,-4e-05,4,11
18526,-2e-05,-5e-05,-4e-05,0.00024,0.00043,-2e-05,-5e-05,-4e-05,4,11
18527,-2e-05,-5e-05,-4e-05,0.00024,0.00043,-2e-05,-5e-05,-4e-05,4,11
18528,-2e-05,-5e-05,-4e-05,0.00024,0.00043,-2e-05,-5e-05,-4e-05,4,11
18529,-2e-05,-5e-05,-4e-05,0.00024,0.00043,-2e-05,-5e-05,-4e-05,4,11
18530,-2e-05,-5e-05,-4e-05,0.00024,0.00043,-2e-05,-5e-05,-4e-05,4,11
18531,-2e-05,-5e-05,-4e-05,0.00024,0.00043,-2e-05,-5e-05,-4e-05,4,11
18532,-2e-05,-5e-05,-4e-05,0.00024,0.00043,-2e-05,-5e-05,-4e-05,4,11
18533,-1e-05,-6e-05,-0.00027,-0.00063,0.00035,0.00012,-1e-05,-2e-05,4,11
18534,-5e-05,-0.00011,-0.00037,-0.00096,0.00012,-0.00058,-1e-05,-3e-05,4,11
18535,-5e-05,-0.00011,-0.00037,-0.00096,0.00012,-0.00058,-1e-05,-3e-05,4,11
18536,-5e-05,-0.00011,-0.00037,-0.00096,0.00012,-0.00058,-1e-05,-3e-05,4,11
18538,-5e-05,-0.00011,-0.00037,-0.00096,0.00012,-0.00058,-1e-05,-3e-05,4,11
18539,-5e-05,-0.00011,-0.00037,-0.00096,0.00012,-0.00058,-1e-05,-3e-05,4,11
18540,-5e-05,-0.00011,-0.00037,-0.00096,0.00012,-0.00058,-1e-05,-3e-05,4,11
18541,-5e-05,-0.00011,-0.00037,-0.00096,0.00012,-0.00058,-1e-05,-3e-05,4,11
18542,-5e-05,-0.00011,-0.00037,-0.00096,0.00012,-0.00058,-1e-05,-3e-05,4,11
18543,-5e-05,-0.00011,-0.00037,-0.00096,0.00012,-0.00058,-1e-05,-3e-05,4,11
18544,-5e-05,-0.00011,-0.00037,-0.00096,0.00012,-0.00058,-1e-05,-3e-05,4,11
18545,-5e-05,-0.00011,-0.00037,-0.00096,0.00012,-0.00058,-1e-05,-3e-05,4,11
18546,-5e-05,-0.00011,-0.00037,-0.00096,0.00012,-0.00058,-1e-05,-3e-05,4,11
18547,-5e-05,-8e-05,-0.0001,0.00024,0.00099,0,-9e-05,-6e-05,4,11
18548,-5e-05,-8e-05,-0.0001,0.00024,0.00099,0,-9e-05,-6e-05,4,11
18549,-5e-05,-8e-05,-0.0001,0.00024,0.00099,0,-9e-05,-6e-05,4,11
18550,-5e-05,-8e-05,-0.0001,0.00024,0.00099,0,-9e-05,-6e-05,4,11
18551,-5e-05,-8e-05,-0.0001,0.00024,0.00099,0,-9e-05,-6e-05,4,11
18552,-5e-05,-8e-05,-0.0001,0.00024,0.00099,0,-9e-05,-6e-05,4,11
18553,2e-05,3e-05,0,-0.00028,-0.00031,0.0001,0.0001,3e-05,4,11
18554,-3e-05,-6e-05,-3e-05,5e-05,0.00081,0.00069,-2e-05,-4e-05,4,11
18555,-3e-05,-6e-05,-3e-05,5e-05,0.00081,0.00069,-2e-05,-4e-05,4,11
18556,-3e-05,-6e-05,-3e-05,5e-05,0.00081,0.00069,-2e-05,-4e-05,4,11
18557,-3e-05,-6e-05,-3e-05,5e-05,0.00081,0.00069,-2e-05,-4e-05,4,11
18558,-3e-05,-6e-05,-3e-05,5e-05,0.00081,0.00069,-2e-05,-4e-05,4,11
18559,-3e-05,-6e-05,-3e-05,5e-05,0.00081,0.00069,-2e-05,-4e-05,4,11
18560,-3e-05,-6e-05,-3e-05,5e-05,0.00081,0.00069,-2e-05,-4e-05,4,11
18561,-3e-05,-6e-05,-3e-05,5e-05,0.00081,0.00069,-2e-05,-4e-05,4,11
18562,-3e-05,-6e-05,-3e-05,5e-05,0.00081,0.00069,-2e-05,-4e-05,4,11
18563,-3e-05,-6e-05,-3e-05,5e-05,0.00081,0.00069,-2e-05,-4e-05,4,11
18564,-3e-05,-6e-05,-3e-05,5e-05,0.00081,0.00069,-2e-05,-4e-05,4,11
18565,-3e-05,-6e-05,-3e-05,5e-05,0.00081,0.00069,-2e-05,-4e-05,4,11
18566,-3e-05,-6e-05,-3e-05,5e-05,0.00081,0.00069,-2e-05,-4e-05,4,11
18567,-3e-05,-6e-05,-3e-05,5e-05,0.00081,0.00069,-2e-05,-4e-05,4,11
18568,-3e-05,-6e-05,-3e-05,5e-05,0.00081,0.00069,-2e-05,-4e-05,4,11
18569,-3e-05,-6e-05,-3e-05,5e-05,0.00081,0.00069,-2e-05,-4e-05,4,11
18570,-3e-05,-6e-05,-3e-05,5e-05,0.00081,0.00069,-2e-05,-4e-05,4,11
18571,-3e-05,-6e-05,-3e-05,5e-05,0.00081,0.00069,-2e-05,-4e-05,4,11
18572,-3e-05,-6e-05,-3e-05,5e-05,0.00081,0.00069,-2e-05,-4e-05,4,11
18573,-3e-05,-6e-05,-3e-05,5e-05,0.00081,0.00069,-2e-05,-4e-05,4,11
18574,-3e-05,-6e-05,-3e-05,5e-05,0.00081,0.00069,-2e-05,-4e-05,4,11
18575,-3e-05,-6e-05,-3e-05,5e-05,0.00081,0.00069,-2e-05,-4e-05,4,11
18576,-3e-05,-6e-05,-3e-05,5e-05,0.00081,0.00069,-2e-05,-4e-05,4,11
18577,1e-05,7e-05,0.00042,0.00091,-0.00061,0.00031,-5e-05,-1e-05,4,11
18578,-6e-05,-0.00023,-0.00076,-0.00112,0.00082,-0.00048,0,-2e-05,4,11
18579,-4e-05,-7e-05,-0.00014,0.00021,-0.0008,-0.00062,-3e-05,-4e-05,4,11
18580,-4e-05,-7e-05,-0.00014,0.00021,-0.0008,-0.00062,-3e-05,-4e-05,4,11
18581,-4e-05,-7e-05,-0.00014,0.00021,-0.0008,-0.00062,-3e-05,-4e-05,4,11
18582,-4e-05,-7e-05,-0.00014,0.00021,-0.0008,-0.00062,-3e-05,-4e-05,4,11
18583,-4e-05,-7e-05,-0.00014,0.00021,-0.0008,-0.00062,-3e-05,-4e-05,4,11
18584,-4e-05,-7e-05,-0.00014,0.00021,-0.0008,-0.00062,-3e-05,-4e-05,4,11
18585,-4e-05,-7e-05,-0.00014,0.00021,-0.0008,-0.00062,-3e-05,-4e-05,4,11
18586,-4e-05,-7e-05,-0.00014,0.00021,-0.0008,-0.00062,-3e-05,-4e-05,4,11
18588,-4e-05,-7e-05,-0.00014,0.00021,-0.0008,-0.00062,-3e-05,-4e-05,4,11
18589,-4e-05,-7e-05,-0.00014,0.00021,-0.0008,-0.00062,-3e-05,-4e-05,4,11
18590,-4e-05,-7e-05,-0.00014,0.00021,-0.0008,-0.00062,-3e-05,-4e-05,4,11
18591,-4e-05,-7e-05,-0.00014,0.00021,-0.0008,-0.00062,-3e-05,-4e-05,4,11
18592,-8e-05,-9e-05,-0.00027,-0.00064,-0.00018,-0.00069,-0.00024,-8e-05,4,11
18593,6e-05,0.0001,0.0002,0.00027,0.00088,0.0004,0.00027,0.0001,4,11
18594,1e-05,6e-05,0.00017,-0.00016,-0.00047,-0.00098,-0.0001,0,4,11
18595,1e-05,6e-05,0.00017,-0.00016,-0.00047,-0.00098,-0.0001,0,4,11
18596,1e-05,6e-05,0.00017,-0.00016,-0.00047,-0.00098,-0.0001,0,4,11
18597,1e-05,6e-05,0.00017,-0.00016,-0.00047,-0.00098,-0.0001,0,4,11
18598,1e-05,6e-05,0.00017,-0.00016,-0.00047,-0.00098,-0.0001,0,4,11
18599,1e-05,6e-05,0.00017,-0.00016,-0.00047,-0.00098,-0.0001,0,4,11
18600,1e-05,6e-05,0.00017,-0.00016,-0.00047,-0.00098,-0.0001,0,4,11
18601,1e-05,6e-05,0.00017,-0.00016,-0.00047,-0.00098,-0.0001,0,4,11
18602,1e-05,6e-05,0.00017,-0.00016,-0.00047,-0.00098,-0.0001,0,4,11
18603,1e-05,6e-05,0.00017,-0.00016,-0.00047,-0.00098,-0.0001,0,4,11
18604,1e-05,6e-05,0.00017,-0.00016,-0.00047,-0.00098,-0.0001,0,4,11
18605,1e-05,6e-05,0.00017,-0.00016,-0.00047,-0.00098,-0.0001,0,4,11
18606,1e-05,6e-05,0.00017,-0.00016,-0.00047,-0.00098,-0.0001,0,4,11
18607,-5e-05,-5e-05,8e-05,0.00025,0.00067,-0.00056,-0.00022,-7e-05,4,11
18608,-5e-05,-5e-05,8e-05,0.00025,0.00067,-0.00056,-0.00022,-7e-05,4,11
18609,-5e-05,-5e-05,8e-05,0.00025,0.00067,-0.00056,-0.00022,-7e-05,4,11
18610,-5e-05,-5e-05,8e-05,0.00025,0.00067,-0.00056,-0.00022,-7e-05,4,11
18611,-5e-05,-5e-05,8e-05,0.00025,0.00067,-0.00056,-0.00022,-7e-05,4,11
18612,-5e-05,-5e-05,8e-05,0.00025,0.00067,-0.00056,-0.00022,-7e-05,4,11
18613,-5e-05,-5e-05,8e-05,0.00025,0.00067,-0.00056,-0.00022,-7e-05,4,11
18614,6e-05,0.00011,0.00027,0.00067,-0.00076,5e-05,0.00011,4e-05,4,11
18615,6e-05,0.00011,0.00027,0.00067,-0.00076,5e-05,0.00011,4e-05,4,11
18616,6e-05,0.00011,0.00027,0.00067,-0.00076,5e-05,0.00011,4e-05,4,11
18617,6e-05,0.00011,0.00027,0.00067,-0.00076,5e-05,0.00011,4e-05,4,11
18618,6e-05,0.00011,0.00027,0.00067,-0.00076,5e-05,0.00011,4e-05,4,11
18619,6e-05,0.00011,0.00027,0.00067,-0.00076,5e-05,0.00011,4e-05,4,11
18620,6e-05,0.00011,0.00027,0.00067,-0.00076,5e-05,0.00011,4e-05,4,11
18621,6e-05,0.00011,0.00027,0.00067,-0.00076,5e-05,0.00011,4e-05,4,11
18622,6e-05,0.00011,0.00027,0.00067,-0.00076,5e-05,0.00011,4e-05,4,11
18623,6e-05,0.00011,0.00027,0.00067,-0.00076,5e-05,0.00011,4e-05,4,11
18624,6e-05,0.00011,0.00027,0.00067,-0.00076,5e-05,0.00011,4e-05,4,11
18625,6e-05,0.00011,0.00027,0.00067,-0.00076,5e-05,0.00011,4e-05,4,11
18626,6e-05,0.00011,0.00027,0.00067,-0.00076,5e-05,0.00011,4e-05,4,11
18627,6e-05,0.00011,0.00027,0.00067,-0.00076,5e-05,0.00011,4e-05,4,11
18628,6e-05,0.00011,0.00027,0.00067,-0.00076,5e-05,0.00011,4e-05,4,11
18629,6e-05,0.00011,0.00027,0.00067,-0.00076,5e-05,0.00011,4e-05,4,11
18630,-3e-05,-0.0001,-0.00039,-0.00069,0.00064,-0.0003,-0.0001,-4e-05,4,11
18631,-3e-05,-0.0001,-0.00039,-0.00069,0.00064,-0.0003,-0.0001,-4e-05,4,11
18632,4e-05,9e-05,0.00026,0.00075,-0.00032,-0.00055,5e-05,7e-05,4,11
18633,4e-05,9e-05,0.00026,0.00075,-0.00032,-0.00055,5e-05,7e-05,4,11
18634,4e-05,9e-05,0.00026,0.00075,-0.00032,-0.00055,5e-05,7e-05,4,11
18635,4e-05,9e-05,0.00026,0.00075,-0.00032,-0.00055,5e-05,7e-05,4,11
18636,4e-05,9e-05,0.00026,0.00075,-0.00032,-0.00055,5e-05,7e-05,4,11
18638,4e-05,9e-05,0.00026,0.00075,-0.00032,-0.00055,5e-05,7e-05,4,11
18639,4e-05,9e-05,0.00026,0.00075,-0.00032,-0.00055,5e-05,7e-05,4,11
18640,4e-05,9e-05,0.00026,0.00075,-0.00032,-0.00055,5e-05,7e-05,4,11
18641,4e-05,9e-05,0.00026,0.00075,-0.00032,-0.00055,5e-05,7e-05,4,11
18642,4e-05,9e-05,0.00026,0.00075,-0.00032,-0.00055,5e-05,7e-05,4,11
18643,4e-05,9e-05,0.00026,0.00075,-0.00032,-0.00055,5e-05,7e-05,4,11
18644,4e-05,9e-05,0.00026,0.00075,-0.00032,-0.00055,5e-05,7e-05,4,11
18645,4e-05,9e-05,0.00026,0.00075,-0.00032,-0.00055,5e-05,7e-05,4,11
18646,4e-05,9e-05,0.00026,0.00075,-0.00032,-0.00055,5e-05,7e-05,4,11
18647,4e-05,9e-05,0.00026,0.00075,-0.00032,-0.00055,5e-05,7e-05,4,11
18648,4e-05,9e-05,0.00026,0.00075,-0.00032,-0.00055,5e-05,7e-05,4,11
18649,4e-05,9e-05,0.00026,0.00075,-0.00032,-0.00055,5e-05,7e-05,4,11
18650,4e-05,9e-05,0.00026,0.00075,-0.00032,-0.00055,5e-05,7e-05,4,11
18651,4e-05,9e-05,0.00026,0.00075,-0.00032,-0.00055,5e-05,7e-05,4,11
18652,0,5e-05,0.00014,0.00024,-0.00105,-0.00064,-3e-05,-1e-05,4,11
18653,-1e-05,2e-05,0.00011,3e-05,-0.00039,-4e-05,-3e-05,-3e-05,4,11
18654,-1e-05,-8e-05,-0.00028,-0.00124,0.00013,0.00053,-2e-05,-1e-05,4,11
18656,-1e-05,-8e-05,-0.00028,-0.00124,0.00013,0.00053,-2e-05,-1e-05,4,11
18657,-1e-05,-8e-05,-0.00028,-0.00124,0.00013,0.00053,-2e-05,-1e-05,4,11
18658,-1e-05,-8e-05,-0.00028,-0.00124,0.00013,0.00053,-2e-05,-1e-05,4,11
18659,-1e-05,-8e-05,-0.00028,-0.00124,0.00013,0.00053,-2e-05,-1e-05,4,11
18660,-1e-05,-8e-05,-0.00028,-0.00124,0.00013,0.00053,-2e-05,-1e-05,4,11
18661,-1e-05,-8e-05,-0.00028,-0.00124,0.00013,0.00053,-2e-05,-1e-05,4,11
18662,-1e-05,-8e-05,-0.00028,-0.00124,0.00013,0.00053,-2e-05,-1e-05,4,11
18663,-1e-05,-8e-05,-0.00028,-0.00124,0.00013,0.00053,-2e-05,-1e-05,4,11
18664,-1e-05,-8e-05,-0.00028,-0.00124,0.00013,0.00053,-2e-05,-1e-05,4,11
18665,-1e-05,-8e-05,-0.00028,-0.00124,0.00013,0.00053,-2e-05,-1e-05,4,11
18666,2e-05,0.0001,0.00033,0.00075,-0.00041,-0.00017,-0.0001,0,4,11
18667,2e-05,0.0001,0.00033,0.00075,-0.00041,-0.00017,-0.0001,0,4,11
18668,2e-05,0.0001,0.00033,0.00075,-0.00041,-0.00017,-0.0001,0,4,11
18669,2e-05,0.0001,0.00033,0.00075,-0.00041,-0.00017,-0.0001,0,4,11
18670,2e-05,0.0001,0.00033,0.00075,-0.00041,-0.00017,-0.0001,0,4,11
18671,2e-05,0.0001,0.00033,0.00075,-0.00041,-0.00017,-0.0001,0,4,11
18672,2e-05,0.0001,0.00033,0.00075,-0.00041,-0.00017,-0.0001,0,4,11
18673,2e-05,0.0001,0.00033,0.00075,-0.00041,-0.00017,-0.0001,0,4,11
18674,2e-05,0.0001,0.00033,0.00075,-0.00041,-0.00017,-0.0001,0,4,11
18675,-3e-05,-4e-05,0.0001,0.0001,0.00056,0.00085,6e-05,2e-05,4,11
18676,-3e-05,-4e-05,0.0001,0.0001,0.00056,0.00085,6e-05,2e-05,4,11
18677,-3e-05,-4e-05,0.0001,0.0001,0.00056,0.00085,6e-05,2e-05,4,11
18678,-3e-05,-4e-05,0.0001,0.0001,0.00056,0.00085,6e-05,2e-05,4,11
18679,-3e-05,-4e-05,0.0001,0.0001,0.00056,0.00085,6e-05,2e-05,4,11
18680,-3e-05,-4e-05,0.0001,0.0001,0.00056,0.00085,6e-05,2e-05,4,11
18681,-3e-05,-4e-05,0.0001,0.0001,0.00056,0.00085,6e-05,2e-05,4,11
18682,-3e-05,-4e-05,0.0001,0.0001,0.00056,0.00085,6e-05,2e-05,4,11
18683,-3e-05,-4e-05,0.0001,0.0001,0.00056,0.00085,6e-05,2e-05,4,11
18684,-3e-05,-4e-05,0.0001,0.0001,0.00056,0.00085,6e-05,2e-05,4,11
18685,-3e-05,-4e-05,0.0001,0.0001,0.00056,0.00085,6e-05,2e-05,4,11
18686,-3e-05,-4e-05,0.0001,0.0001,0.00056,0.00085,6e-05,2e-05,4,11
18688,-3e-05,-4e-05,0.0001,0.0001,0.00056,0.00085,6e-05,2e-05,4,11
18689,-3e-05,-4e-05,0.0001,0.0001,0.00056,0.00085,6e-05,2e-05,4,11
18690,5e-05,0.00011,0.00032,0.00064,-0.00128,-0.00015,2e-05,4e-05,4,11
18691,-0.00013,-0.00024,-0.00069,-0.00085,-0.00043,0.00056,-0.00013,-0.00012,4,11
18692,-3e-05,-1e-05,-9e-05,-2e-05,-0.00024,-7e-05,-1e-05,-3e-05,4,11
18693,-3e-05,-1e-05,-9e-05,-2e-05,-0.00024,-7e-05,-1e-05,-3e-05,4,11
18694,-3e-05,-1e-05,-9e-05,-2e-05,-0.00024,-7e-05,-1e-05,-3e-05,4,11
18695,-3e-05,-1e-05,-9e-05,-2e-05,-0.00024,-7e-05,-1e-05,-3e-05,4,11
18696,-3e-05,-1e-05,-9e-05,-2e-05,-0.00024,-7e-05,-1e-05,-3e-05,4,11
18697,-3e-05,-1e-05,-9e-05,-2e-05,-0.00024,-7e-05,-1e-05,-3e-05,4,11
18698,-3e-05,-1e-05,-9e-05,-2e-05,-0.00024,-7e-05,-1e-05,-3e-05,4,11
18699,-3e-05,-1e-05,-9e-05,-2e-05,-0.00024,-7e-05,-1e-05,-3e-05,4,11
18700,-3e-05,-1e-05,-9e-05,-2e-05,-0.00024,-7e-05,-1e-05,-3e-05,4,11
18701,-3e-05,-1e-05,-9e-05,-2e-05,-0.00024,-7e-05,-1e-05,-3e-05,4,11
18702,-3e-05,-1e-05,-9e-05,-2e-05,-0.00024,-7e-05,-1e-05,-3e-05,4,11
18703,-3e-05,-1e-05,-9e-05,-2e-05,-0.00024,-7e-05,-1e-05,-3e-05,4,11
18704,-3e-05,-1e-05,-9e-05,-2e-05,-0.00024,-7e-05,-1e-05,-3e-05,4,11
18705,-3e-05,-1e-05,-9e-05,-2e-05,-0.00024,-7e-05,-1e-05,-3e-05,4,11
18706,-3e-05,-1e-05,-9e-05,-2e-05,-0.00024,-7e-05,-1e-05,-3e-05,4,11
18707,-3e-05,-1e-05,-9e-05,-2e-05,-0.00024,-7e-05,-1e-05,-3e-05,4,11
18708,-3e-05,-1e-05,-9e-05,-2e-05,-0.00024,-7e-05,-1e-05,-3e-05,4,11
18709,-3e-05,-1e-05,-9e-05,-2e-05,-0.00024,-7e-05,-1e-05,-3e-05,4,11
18710,-3e-05,-1e-05,-9e-05,-2e-05,-0.00024,-7e-05,-1e-05,-3e-05,4,11
18711,-3e-05,-1e-05,-9e-05,-2e-05,-0.00024,-7e-05,-1e-05,-3e-05,4,11
18712,-3e-05,-1e-05,-9e-05,-2e-05,-0.00024,-7e-05,-1e-05,-3e-05,4,11
18713,-3e-05,-1e-05,-9e-05,-2e-05,-0.00024,-7e-05,-1e-05,-3e-05,4,11
18714,-3e-05,-1e-05,-9e-05,-2e-05,-0.00024,-7e-05,-1e-05,-3e-05,4,11
18715,-3e-05,-1e-05,-9e-05,-2e-05,-0.00024,-7e-05,-1e-05,-3e-05,4,11
18716,-3e-05,-1e-05,-9e-05,-2e-05,-0.00024,-7e-05,-1e-05,-3e-05,4,11
18717,-3e-05,-1e-05,-9e-05,-2e-05,-0.00024,-7e-05,-1e-05,-3e-05,4,11
18718,-3e-05,-1e-05,-9e-05,-2e-05,-0.00024,-7e-05,-1e-05,-3e-05,4,11
18719,-3e-05,-1e-05,-9e-05,-2e-05,-0.00024,-7e-05,-1e-05,-3e-05,4,11
18720,6e-05,0.00011,0.00028,0.00029,-0.00079,0.00073,0.00012,6e-05,4,11
18721,-6e-05,-0.00013,-0.00021,-0.00052,0.00012,0.00016,3e-05,-2e-05,4,11
18722,-7e-05,-9e-05,-0.00018,-0.00046,0.00015,-0.0005,-9e-05,-7e-05,4,11
18723,-7e-05,-9e-05,-0.00018,-0.00046,0.00015,-0.0005,-9e-05,-7e-05,4,11
18724,-7e-05,-9e-05,-0.00018,-0.00046,0.00015,-0.0005,-9e-05,-7e-05,4,11
18725,-7e-05,-9e-05,-0.00018,-0.00046,0.00015,-0.0005,-9e-05,-7e-05,4,11
18726,-2e-05,-2e-05,0.00013,0.00028,-0.00031,0.00023,0.00013,-3e-05,4,11
18727,-2e-05,-2e-05,0.00013,0.00028,-0.00031,0.00023,0.00013,-3e-05,4,11
18728,-2e-05,-2e-05,0.00013,0.00028,-0.00031,0.00023,0.00013,-3e-05,4,11
18729,-2e-05,-2e-05,0.00013,0.00028,-0.00031,0.00023,0.00013,-3e-05,4,11
18730,-2e-05,-2e-05,0.00013,0.00028,-0.00031,0.00023,0.00013,-3e-05,4,11
18731,-2e-05,-2e-05,0.00013,0.00028,-0.00031,0.00023,0.00013,-3e-05,4,11
18732,-2e-05,-2e-05,0.00013,0.00028,-0.00031,0.00023,0.00013,-3e-05,4,11
18733,-2e-05,-2e-05,0.00013,0.00028,-0.00031,0.00023,0.00013,-3e-05,4,11
18734,-2e-05,-2e-05,0.00013,0.00028,-0.00031,0.00023,0.00013,-3e-05,4,11
18735,3e-05,0,-2e-05,0.00013,0.00056,-1e-05,1e-05,4e-05,4,11
18736,3e-05,0,-2e-05,0.00013,0.00056,-1e-05,1e-05,4e-05,4,11
18738,3e-05,0,-2e-05,0.00013,0.00056,-1e-05,1e-05,4e-05,4,11
18739,3e-05,0,-2e-05,0.00013,0.00056,-1e-05,1e-05,4e-05,4,11
18740,3e-05,0,-2e-05,0.00013,0.00056,-1e-05,1e-05,4e-05,4,11
18741,3e-05,0,-2e-05,0.00013,0.00056,-1e-05,1e-05,4e-05,4,11
18742,3e-05,0,-2e-05,0.00013,0.00056,-1e-05,1e-05,4e-05,4,11
18743,3e-05,0,-2e-05,0.00013,0.00056,-1e-05,1e-05,4e-05,4,11
18744,3e-05,0,-2e-05,0.00013,0.00056,-1e-05,1e-05,4e-05,4,11
18745,3e-05,0,-2e-05,0.00013,0.00056,-1e-05,1e-05,4e-05,4,11
18746,3e-05,0,-2e-05,0.00013,0.00056,-1e-05,1e-05,4e-05,4,11
18747,3e-05,0,-2e-05,0.00013,0.00056,-1e-05,1e-05,4e-05,4,11
18748,3e-05,0,-2e-05,0.00013,0.00056,-1e-05,1e-05,4e-05,4,11
18749,3e-05,0,-2e-05,0.00013,0.00056,-1e-05,1e-05,4e-05,4,11
18750,5e-05,7e-05,6e-05,4e-05,-0.00018,-0.00073,-3e-05,4e-05,4,11
18751,-2e-05,0,8e-05,6e-05,0.00049,6e-05,4e-05,-1e-05,4,11
18752,-2e-05,-3e-05,-8e-05,0.00014,0.0004,-0.00051,-1e-05,-3e-05,4,11
18753,-2e-05,-3e-05,-8e-05,0.00014,0.0004,-0.00051,-1e-05,-3e-05,4,11
18754,-2e-05,-3e-05,-8e-05,0.00014,0.0004,-0.00051,-1e-05,-3e-05,4,11
18755,-2e-05,-3e-05,-8e-05,0.00014,0.0004,-0.00051,-1e-05,-3e-05,4,11
18756,-2e-05,-3e-05,-8e-05,0.00014,0.0004,-0.00051,-1e-05,-3e-05,4,11
18757,-2e-05,-3e-05,-8e-05,0.00014,0.0004,-0.00051,-1e-05,-3e-05,4,11
18758,-2e-05,-3e-05,-8e-05,0.00014,0.0004,-0.00051,-1e-05,-3e-05,4,11
18759,-2e-05,-3e-05,-8e-05,0.00014,0.0004,-0.00051,-1e-05,-3e-05,4,11
18760,-2e-05,-3e-05,-8e-05,0.00014,0.0004,-0.00051,-1e-05,-3e-05,4,11
18761,-2e-05,-3e-05,-8e-05,0.00014,0.0004,-0.00051,-1e-05,-3e-05,4,11
18762,-2e-05,-3e-05,-8e-05,0.00014,0.0004,-0.00051,-1e-05,-3e-05,4,11
18763,-2e-05,-3e-05,-8e-05,0.00014,0.0004,-0.00051,-1e-05,-3e-05,4,11
18764,-2e-05,-3e-05,-8e-05,0.00014,0.0004,-0.00051,-1e-05,-3e-05,4,11
18765,-2e-05,-3e-05,-8e-05,0.00014,0.0004,-0.00051,-1e-05,-3e-05,4,11
18766,-2e-05,-3e-05,-8e-05,0.00014,0.0004,-0.00051,-1e-05,-3e-05,4,11
18767,-2e-05,-3e-05,-8e-05,0.00014,0.0004,-0.00051,-1e-05,-3e-05,4,11
18768,-2e-05,-3e-05,-8e-05,0.00014,0.0004,-0.00051,-1e-05,-3e-05,4,11
18769,-2e-05,-3e-05,-8e-05,0.00014,0.0004,-0.00051,-1e-05,-3e-05,4,11
18770,-2e-05,-3e-05,-8e-05,0.00014,0.0004,-0.00051,-1e-05,-3e-05,4,11
18771,-2e-05,-3e-05,-8e-05,0.00014,0.0004,-0.00051,-1e-05,-3e-05,4,11
18772,-0.0002,-0.00041,-0.00073,-0.00097,0.00012,-0.00095,-0.00029,-0.00016,4,11
18773,0.00026,0.00046,0.00087,0.00127,0.00074,-0.00097,0.00024,0.00023,4,11
18774,-7e-05,-0.00013,-0.00044,-0.00067,-0.00062,2e-05,-0.00011,-6e-05,4,11
18775,-7e-05,-0.00013,-0.00044,-0.00067,-0.00062,2e-05,-0.00011,-6e-05,4,11
18776,-7e-05,-0.00013,-0.00044,-0.00067,-0.00062,2e-05,-0.00011,-6e-05,4,11
18777,-7e-05,-0.00013,-0.00044,-0.00067,-0.00062,2e-05,-0.00011,-6e-05,4,11
18778,-7e-05,-0.00013,-0.00044,-0.00067,-0.00062,2e-05,-0.00011,-6e-05,4,11
18779,-7e-05,-0.00013,-0.00044,-0.00067,-0.00062,2e-05,-0.00011,-6e-05,4,11
18780,-7e-05,-0.00013,-0.00044,-0.00067,-0.00062,2e-05,-0.00011,-6e-05,4,11
18781,-7e-05,-0.00013,-0.00044,-0.00067,-0.00062,2e-05,-0.00011,-6e-05,4,11
18782,-7e-05,-0.00013,-0.00044,-0.00067,-0.00062,2e-05,-0.00011,-6e-05,4,11
18783,-7e-05,-0.00013,-0.00044,-0.00067,-0.00062,2e-05,-0.00011,-6e-05,4,11
18784,-7e-05,-0.00013,-0.00044,-0.00067,-0.00062,2e-05,-0.00011,-6e-05,4,11
18785,-7e-05,-0.00013,-0.00044,-0.00067,-0.00062,2e-05,-0.00011,-6e-05,4,11
18786,-0.0001,-0.00019,-0.00019,-0.00024,-0.00015,0,-0.00013,-0.00015,4,11
18788,-0.0001,-0.00019,-0.00019,-0.00024,-0.00015,0,-0.00013,-0.00015,4,11
18789,-0.0001,-0.00019,-0.00019,-0.00024,-0.00015,0,-0.00013,-0.00015,4,11
18790,-0.0001,-0.00019,-0.00019,-0.00024,-0.00015,0,-0.00013,-0.00015,4,11
18791,-0.0001,-0.00019,-0.00019,-0.00024,-0.00015,0,-0.00013,-0.00015,4,11
18792,-0.0001,-0.00019,-0.00019,-0.00024,-0.00015,0,-0.00013,-0.00015,4,11
18793,-0.0001,-0.00019,-0.00019,-0.00024,-0.00015,0,-0.00013,-0.00015,4,11
18794,-0.0001,-0.00019,-0.00019,-0.00024,-0.00015,0,-0.00013,-0.00015,4,11
18795,1e-05,7e-05,0.00034,0.00098,-0.00051,-0.00079,-0.00015,-6e-05,4,11
18796,1e-05,7e-05,0.00034,0.00098,-0.00051,-0.00079,-0.00015,-6e-05,4,11
18797,1e-05,7e-05,0.00034,0.00098,-0.00051,-0.00079,-0.00015,-6e-05,4,11
18798,1e-05,7e-05,0.00034,0.00098,-0.00051,-0.00079,-0.00015,-6e-05,4,11
18799,1e-05,7e-05,0.00034,0.00098,-0.00051,-0.00079,-0.00015,-6e-05,4,11
18800,1e-05,7e-05,0.00034,0.00098,-0.00051,-0.00079,-0.00015,-6e-05,4,11
18801,1e-05,7e-05,0.00034,0.00098,-0.00051,-0.00079,-0.00015,-6e-05,4,11
18802,1e-05,7e-05,0.00034,0.00098,-0.00051,-0.00079,-0.00015,-6e-05,4,11
18803,1e-05,7e-05,0.00034,0.00098,-0.00051,-0.00079,-0.00015,-6e-05,4,11
18804,1e-05,7e-05,0.00034,0.00098,-0.00051,-0.00079,-0.00015,-6e-05,4,11
18805,1e-05,7e-05,0.00034,0.00098,-0.00051,-0.00079,-0.00015,-6e-05,4,11
18806,1e-05,7e-05,0.00034,0.00098,-0.00051,-0.00079,-0.00015,-6e-05,4,11
18807,1e-05,7e-05,0.00034,0.00098,-0.00051,-0.00079,-0.00015,-6e-05,4,11
18808,1e-05,7e-05,0.00034,0.00098,-0.00051,-0.00079,-0.00015,-6e-05,4,11
18809,1e-05,7e-05,0.00034,0.00098,-0.00051,-0.00079,-0.00015,-6e-05,4,11
18810,-0.00011,-0.00025,-0.00063,-0.00027,0.00027,0.00098,-3e-05,-7e-05,4,11
18811,9e-05,6e-05,-0.00044,-0.00029,-0.00011,-0.00031,8e-05,0.0001,4,11
18812,-8e-05,-3e-05,9e-05,0.00035,0.00073,0.00047,-4e-05,-9e-05,4,11
18813,-8e-05,-3e-05,9e-05,0.00035,0.00073,0.00047,-4e-05,-9e-05,4,11
18814,-8e-05,-3e-05,9e-05,0.00035,0.00073,0.00047,-4e-05,-9e-05,4,11
18815,-8e-05,-3e-05,9e-05,0.00035,0.00073,0.00047,-4e-05,-9e-05,4,11
18816,-8e-05,-3e-05,9e-05,0.00035,0.00073,0.00047,-4e-05,-9e-05,4,11
18817,-8e-05,-3e-05,9e-05,0.00035,0.00073,0.00047,-4e-05,-9e-05,4,11
18818,-8e-05,-3e-05,9e-05,0.00035,0.00073,0.00047,-4e-05,-9e-05,4,11
18819,-8e-05,-3e-05,9e-05,0.00035,0.00073,0.00047,-4e-05,-9e-05,4,11
18820,-8e-05,-3e-05,9e-05,0.00035,0.00073,0.00047,-4e-05,-9e-05,4,11
18821,-8e-05,-3e-05,9e-05,0.00035,0.00073,0.00047,-4e-05,-9e-05,4,11
18822,-8e-05,-3e-05,9e-05,0.00035,0.00073,0.00047,-4e-05,-9e-05,4,11
18823,-8e-05,-3e-05,9e-05,0.00035,0.00073,0.00047,-4e-05,-9e-05,4,11
18824,-8e-05,-3e-05,9e-05,0.00035,0.00073,0.00047,-4e-05,-9e-05,4,11
18825,-8e-05,-3e-05,9e-05,0.00035,0.00073,0.00047,-4e-05,-9e-05,4,11
18826,-8e-05,-3e-05,9e-05,0.00035,0.00073,0.00047,-4e-05,-9e-05,4,11
18827,-8e-05,-3e-05,9e-05,0.00035,0.00073,0.00047,-4e-05,-9e-05,4,11
18828,-8e-05,-3e-05,9e-05,0.00035,0.00073,0.00047,-4e-05,-9e-05,4,11
18829,-8e-05,-3e-05,9e-05,0.00035,0.00073,0.00047,-4e-05,-9e-05,4,11
18830,-8e-05,-3e-05,9e-05,0.00035,0.00073,0.00047,-4e-05,-9e-05,4,11
18831,-8e-05,-3e-05,9e-05,0.00035,0.00073,0.00047,-4e-05,-9e-05,4,11
18832,2e-05,2e-05,-7e-05,-0.00012,-0.00035,-0.0002,7e-05,2e-05,4,11
18833,-5e-05,-4e-05,9e-05,-0.00014,-0.00128,-0.00074,-0.00023,-5e-05,4,11
18834,-2e-05,-6e-05,2e-05,-6e-05,0.00017,-0.00037,-5e-05,0,4,11
18835,-2e-05,-6e-05,2e-05,-6e-05,0.00017,-0.00037,-5e-05,0,4,11
18836,-2e-05,-6e-05,2e-05,-6e-05,0.00017,-0.00037,-5e-05,0,4,11
18838,-2e-05,-6e-05,2e-05,-6e-05,0.00017,-0.00037,-5e-05,0,4,11
18839,-2e-05,-6e-05,2e-05,-6e-05,0.00017,-0.00037,-5e-05,0,4,11
18840,-2e-05,-6e-05,2e-05,-6e-05,0.00017,-0.00037,-5e-05,0,4,11
18841,-2e-05,-6e-05,2e-05,-6e-05,0.00017,-0.00037,-5e-05,0,4,11
18842,-2e-05,-6e-05,2e-05,-6e-05,0.00017,-0.00037,-5e-05,0,4,11
18843,-2e-05,-6e-05,2e-05,-6e-05,0.00017,-0.00037,-5e-05,0,4,11
18844,-2e-05,-6e-05,2e-05,-6e-05,0.00017,-0.00037,-5e-05,0,4,11
18845,-2e-05,-6e-05,2e-05,-6e-05,0.00017,-0.00037,-5e-05,0,4,11
18846,-2e-05,-6e-05,2e-05,-6e-05,0.00017,-0.00037,-5e-05,0,4,11
18847,-2e-05,-6e-05,2e-05,-6e-05,0.00017,-0.00037,-5e-05,0,4,11
18848,-2e-05,-6e-05,2e-05,-6e-05,0.00017,-0.00037,-5e-05,0,4,11
18849,-2e-05,-6e-05,2e-05,-6e-05,0.00017,-0.00037,-5e-05,0,4,11
18850,-2e-05,-6e-05,2e-05,-6e-05,0.00017,-0.00037,-5e-05,0,4,11
18851,-2e-05,-6e-05,2e-05,-6e-05,0.00017,-0.00037,-5e-05,0,4,11
18852,-2e-05,-6e-05,2e-05,-6e-05,0.00017,-0.00037,-5e-05,0,4,11
18853,-2e-05,-6e-05,2e-05,-6e-05,0.00017,-0.00037,-5e-05,0,4,11
18854,-2e-05,-6e-05,2e-05,-6e-05,0.00017,-0.00037,-5e-05,0,4,11
18855,-8e-05,-5e-05,3e-05,-1e-05,0.00082,-0.00015,-0.00015,-0.0001,4,11
18856,-3e-05,-9e-05,-2e-05,0.0007,0.00043,-4e-05,-2e-05,0,4,11
18857,2e-05,-7e-05,-0.00033,-0.00062,6e-05,0.00051,3e-05,5e-05,4,11
18858,2e-05,-7e-05,-0.00033,-0.00062,6e-05,0.00051,3e-05,5e-05,4,11
18859,2e-05,-7e-05,-0.00033,-0.00062,6e-05,0.00051,3e-05,5e-05,4,11
18860,2e-05,-7e-05,-0.00033,-0.00062,6e-05,0.00051,3e-05,5e-05,4,11
18861,2e-05,-7e-05,-0.00033,-0.00062,6e-05,0.00051,3e-05,5e-05,4,11
18862,2e-05,-7e-05,-0.00033,-0.00062,6e-05,0.00051,3e-05,5e-05,4,11
18863,2e-05,-7e-05,-0.00033,-0.00062,6e-05,0.00051,3e-05,5e-05,4,11
18864,2e-05,-7e-05,-0.00033,-0.00062,6e-05,0.00051,3e-05,5e-05,4,11
18865,2e-05,-7e-05,-0.00033,-0.00062,6e-05,0.00051,3e-05,5e-05,4,11
18866,2e-05,-7e-05,-0.00033,-0.00062,6e-05,0.00051,3e-05,5e-05,4,11
18867,2e-05,-7e-05,-0.00033,-0.00062,6e-05,0.00051,3e-05,5e-05,4,11
18868,2e-05,-7e-05,-0.00033,-0.00062,6e-05,0.00051,3e-05,5e-05,4,11
18869,2e-05,-7e-05,-0.00033,-0.00062,6e-05,0.00051,3e-05,5e-05,4,11
18870,-3e-05,-8e-05,-0.00042,-0.00108,-0.00128,0.00019,7e-05,-3e-05,4,11
18871,-2e-05,-3e-05,3e-05,0.00048,0.00067,0.00013,-6e-05,-2e-05,4,11
18872,0,5e-05,0.00023,4e-05,-0.00025,-0.00059,-8e-05,0,4,11
18873,0,5e-05,0.00023,4e-05,-0.00025,-0.00059,-8e-05,0,4,11
18874,0,5e-05,0.00023,4e-05,-0.00025,-0.00059,-8e-05,0,4,11
18875,0,5e-05,0.00023,4e-05,-0.00025,-0.00059,-8e-05,0,4,11
18876,0,5e-05,0.00023,4e-05,-0.00025,-0.00059,-8e-05,0,4,11
18877,0,5e-05,0.00023,4e-05,-0.00025,-0.00059,-8e-05,0,4,11
18878,0,5e-05,0.00023,4e-05,-0.00025,-0.00059,-8e-05,0,4,11
18879,0,5e-05,0.00023,4e-05,-0.00025,-0.00059,-8e-05,0,4,11
18880,0,5e-05,0.00023,4e-05,-0.00025,-0.00059,-8e-05,0,4,11
18881,0,5e-05,0.00023,4e-05,-0.00025,-0.00059,-8e-05,0,4,11
18882,0,5e-05,0.00023,4e-05,-0.00025,-0.00059,-8e-05,0,4,11
18883,0,5e-05,0.00023,4e-05,-0.00025,-0.00059,-8e-05,0,4,11
18884,0,5e-05,0.00023,4e-05,-0.00025,-0.00059,-8e-05,0,4,11
18885,0,5e-05,0.00023,4e-05,-0.00025,-0.00059,-8e-05,0,4,11
18886,0,5e-05,0.00023,4e-05,-0.00025,-0.00059,-8e-05,0,4,11
18889,0,5e-05,0.00023,4e-05,-0.00025,-0.00059,-8e-05,0,4,11
18890,0,5e-05,0.00023,4e-05,-0.00025,-0.00059,-8e-05,0,4,11
18891,0,5e-05,0.00023,4e-05,-0.00025,-0.00059,-8e-05,0,4,11
18892,5e-05,6e-05,0.0001,4e-05,-0.00036,0.00024,0.00015,5e-05,4,11
18893,5e-05,6e-05,0.0001,4e-05,-0.00036,0.00024,0.00015,5e-05,4,11
18894,-5e-05,-4e-05,-3e-05,-0.00032,-8e-05,-0.00033,-0.00015,-7e-05,4,11
18895,-5e-05,-4e-05,-3e-05,-0.00032,-8e-05,-0.00033,-0.00015,-7e-05,4,11
18896,-5e-05,-4e-05,-3e-05,-0.00032,-8e-05,-0.00033,-0.00015,-7e-05,4,11
18897,-5e-05,-4e-05,-3e-05,-0.00032,-8e-05,-0.00033,-0.00015,-7e-05,4,11
18898,-5e-05,-4e-05,-3e-05,-0.00032,-8e-05,-0.00033,-0.00015,-7e-05,4,11
18899,-5e-05,-4e-05,-3e-05,-0.00032,-8e-05,-0.00033,-0.00015,-7e-05,4,11
18900,-5e-05,-4e-05,-3e-05,-0.00032,-8e-05,-0.00033,-0.00015,-7e-05,4,11
18901,-5e-05,-4e-05,-3e-05,-0.00032,-8e-05,-0.00033,-0.00015,-7e-05,4,11
18902,-5e-05,-4e-05,-3e-05,-0.00032,-8e-05,-0.00033,-0.00015,-7e-05,4,11
18903,-5e-05,-4e-05,-3e-05,-0.00032,-8e-05,-0.00033,-0.00015,-7e-05,4,11
18904,-5e-05,-4e-05,-3e-05,-0.00032,-8e-05,-0.00033,-0.00015,-7e-05,4,11
18905,-5e-05,-4e-05,-3e-05,-0.00032,-8e-05,-0.00033,-0.00015,-7e-05,4,11
18906,-1e-05,-6e-05,-0.00026,-0.00042,0.00077,-6e-05,-7e-05,-2e-05,4,11
18907,-1e-05,-6e-05,-0.00026,-0.00042,0.00077,-6e-05,-7e-05,-2e-05,4,11
18908,-1e-05,-6e-05,-0.00026,-0.00042,0.00077,-6e-05,-7e-05,-2e-05,4,11
18909,-1e-05,-6e-05,-0.00026,-0.00042,0.00077,-6e-05,-7e-05,-2e-05,4,11
18910,-1e-05,-6e-05,-0.00026,-0.00042,0.00077,-6e-05,-7e-05,-2e-05,4,11
18911,-1e-05,-6e-05,-0.00026,-0.00042,0.00077,-6e-05,-7e-05,-2e-05,4,11
18912,-1e-05,-6e-05,-0.00026,-0.00042,0.00077,-6e-05,-7e-05,-2e-05,4,11
18913,-1e-05,-6e-05,-0.00026,-0.00042,0.00077,-6e-05,-7e-05,-2e-05,4,11
18914,-1e-05,-6e-05,-0.00026,-0.00042,0.00077,-6e-05,-7e-05,-2e-05,4,11
18915,-2e-05,1e-05,0.00016,0.0008,8e-05,-0.00022,2e-05,-2e-05,4,11
18916,-2e-05,1e-05,0.00016,0.0008,8e-05,-0.00022,2e-05,-2e-05,4,11
18917,-2e-05,1e-05,0.00016,0.0008,8e-05,-0.00022,2e-05,-2e-05,4,11
18918,-2e-05,1e-05,0.00016,0.0008,8e-05,-0.00022,2e-05,-2e-05,4,11
18919,-2e-05,1e-05,0.00016,0.0008,8e-05,-0.00022,2e-05,-2e-05,4,11
18920,-2e-05,1e-05,0.00016,0.0008,8e-05,-0.00022,2e-05,-2e-05,4,11
18921,-2e-05,1e-05,0.00016,0.0008,8e-05,-0.00022,2e-05,-2e-05,4,11
18922,-2e-05,1e-05,0.00016,0.0008,8e-05,-0.00022,2e-05,-2e-05,4,11
18923,-2e-05,1e-05,0.00016,0.0008,8e-05,-0.00022,2e-05,-2e-05,4,11
18924,-2e-05,1e-05,0.00016,0.0008,8e-05,-0.00022,2e-05,-2e-05,4,11
18925,-2e-05,1e-05,0.00016,0.0008,8e-05,-0.00022,2e-05,-2e-05,4,11
18926,-2e-05,1e-05,0.00016,0.0008,8e-05,-0.00022,2e-05,-2e-05,4,11
18927,-2e-05,1e-05,0.00016,0.0008,8e-05,-0.00022,2e-05,-2e-05,4,11
18928,-2e-05,1e-05,0.00016,0.0008,8e-05,-0.00022,2e-05,-2e-05,4,11
18929,-2e-05,1e-05,0.00016,0.0008,8e-05,-0.00022,2e-05,-2e-05,4,11
18930,5e-05,0.00015,0.00049,0.00066,0.0003,0.00011,0,3e-05,4,11
18931,-3e-05,-2e-05,5e-05,-0.00042,-0.00095,-0.00075,-4e-05,-3e-05,4,11
18932,1e-05,-2e-05,-0.00018,-0.00023,-7e-05,0.00016,0.00013,2e-05,4,11
18933,1e-05,-2e-05,-0.00018,-0.00023,-7e-05,0.00016,0.00013,2e-05,4,11
18934,1e-05,-2e-05,-0.00018,-0.00023,-7e-05,0.00016,0.00013,2e-05,4,11
18935,1e-05,-2e-05,-0.00018,-0.00023,-7e-05,0.00016,0.00013,2e-05,4,11
18936,1e-05,-2e-05,-0.00018,-0.00023,-7e-05,0.00016,0.00013,2e-05,4,11
18938,1e-05,-2e-05,-0.00018,-0.00023,-7e-05,0.00016,0.00013,2e-05,4,11
18939,1e-05,-2e-05,-0.00018,-0.00023,-7e-05,0.00016,0.00013,2e-05,4,11
18940,1e-05,-2e-05,-0.00018,-0.00023,-7e-05,0.00016,0.00013,2e-05,4,11
18941,1e-05,-2e-05,-0.00018,-0.00023,-7e-05,0.00016,0.00013,2e-05,4,11
18942,1e-05,-2e-05,-0.00018,-0.00023,-7e-05,0.00016,0.00013,2e-05,4,11
18943,1e-05,-2e-05,-0.00018,-0.00023,-7e-05,0.00016,0.00013,2e-05,4,11
18944,1e-05,-2e-05,-0.00018,-0.00023,-7e-05,0.00016,0.00013,2e-05,4,11
18945,1e-05,-2e-05,-0.00018,-0.00023,-7e-05,0.00016,0.00013,2e-05,4,11
18946,1e-05,-2e-05,-0.00018,-0.00023,-7e-05,0.00016,0.00013,2e-05,4,11
18947,1e-05,-2e-05,-0.00018,-0.00023,-7e-05,0.00016,0.00013,2e-05,4,11
18948,1e-05,-2e-05,-0.00018,-0.00023,-7e-05,0.00016,0.00013,2e-05,4,11
18949,1e-05,-2e-05,-0.00018,-0.00023,-7e-05,0.00016,0.00013,2e-05,4,11
18950,1e-05,-2e-05,-0.00018,-0.00023,-7e-05,0.00016,0.00013,2e-05,4,11
18951,1e-05,-2e-05,-0.00018,-0.00023,-7e-05,0.00016,0.00013,2e-05,4,11
18952,-3e-05,-6e-05,-3e-05,-0.00049,-0.00114,-0.00071,-8e-05,-1e-05,4,11
18953,-3e-05,-3e-05,0.00011,0.00066,-0.00048,-0.00021,-7e-05,-3e-05,4,11
18954,1e-05,1e-05,-0.00016,0.00017,5e-05,0.00068,0.00015,2e-05,4,11
18955,1e-05,1e-05,-0.00016,0.00017,5e-05,0.00068,0.00015,2e-05,4,11
18956,1e-05,1e-05,-0.00016,0.00017,5e-05,0.00068,0.00015,2e-05,4,11
18957,1e-05,1e-05,-0.00016,0.00017,5e-05,0.00068,0.00015,2e-05,4,11
18958,1e-05,1e-05,-0.00016,0.00017,5e-05,0.00068,0.00015,2e-05,4,11
18959,1e-05,1e-05,-0.00016,0.00017,5e-05,0.00068,0.00015,2e-05,4,11
18960,1e-05,1e-05,-0.00016,0.00017,5e-05,0.00068,0.00015,2e-05,4,11
18961,1e-05,1e-05,-0.00016,0.00017,5e-05,0.00068,0.00015,2e-05,4,11
18962,1e-05,1e-05,-0.00016,0.00017,5e-05,0.00068,0.00015,2e-05,4,11
18963,1e-05,1e-05,-0.00016,0.00017,5e-05,0.00068,0.00015,2e-05,4,11
18964,1e-05,1e-05,-0.00016,0.00017,5e-05,0.00068,0.00015,2e-05,4,11
18965,1e-05,1e-05,-0.00016,0.00017,5e-05,0.00068,0.00015,2e-05,4,11
18966,0,0,1e-05,-0.00043,-0.00054,-7e-05,1e-05,0,4,11
18967,1e-05,4e-05,5e-05,0.00087,-0.00038,-0.00035,8e-05,4e-05,4,11
18968,1e-05,4e-05,5e-05,0.00087,-0.00038,-0.00035,8e-05,4e-05,4,11
18969,1e-05,4e-05,5e-05,0.00087,-0.00038,-0.00035,8e-05,4e-05,4,11
18970,1e-05,4e-05,5e-05,0.00087,-0.00038,-0.00035,8e-05,4e-05,4,11
18971,1e-05,4e-05,5e-05,0.00087,-0.00038,-0.00035,8e-05,4e-05,4,11
18972,1e-05,4e-05,5e-05,0.00087,-0.00038,-0.00035,8e-05,4e-05,4,11
18973,1e-05,4e-05,5e-05,0.00087,-0.00038,-0.00035,8e-05,4e-05,4,11
18974,1e-05,4e-05,5e-05,0.00087,-0.00038,-0.00035,8e-05,4e-05,4,11
18975,1e-05,4e-05,0.00013,0.0001,-0.00072,0.00047,6e-05,1e-05,4,11
18976,1e-05,4e-05,0.00013,0.0001,-0.00072,0.00047,6e-05,1e-05,4,11
18977,1e-05,4e-05,0.00013,0.0001,-0.00072,0.00047,6e-05,1e-05,4,11
18978,1e-05,4e-05,0.00013,0.0001,-0.00072,0.00047,6e-05,1e-05,4,11
18979,1e-05,4e-05,0.00013,0.0001,-0.00072,0.00047,6e-05,1e-05,4,11
18980,1e-05,4e-05,0.00013,0.0001,-0.00072,0.00047,6e-05,1e-05,4,11
18981,1e-05,4e-05,0.00013,0.0001,-0.00072,0.00047,6e-05,1e-05,4,11
18982,1e-05,4e-05,0.00013,0.0001,-0.00072,0.00047,6e-05,1e-05,4,11
18983,1e-05,4e-05,0.00013,0.0001,-0.00072,0.00047,6e-05,1e-05,4,11
18984,1e-05,4e-05,0.00013,0.0001,-0.00072,0.00047,6e-05,1e-05,4,11
18985,1e-05,4e-05,0.00013,0.0001,-0.00072,0.00047,6e-05,1e-05,4,11
18986,1e-05,4e-05,0.00013,0.0001,-0.00072,0.00047,6e-05,1e-05,4,11
18988,1e-05,4e-05,0.00013,0.0001,-0.00072,0.00047,6e-05,1e-05,4,11
18989,1e-05,4e-05,0.00013,0.0001,-0.00072,0.00047,6e-05,1e-05,4,11
18990,3e-05,5e-05,0.00019,0.00095,-0.00032,0.00024,1e-05,1e-05,4,11
18991,3e-05,5e-05,0.00019,0.00095,-0.00032,0.00024,1e-05,1e-05,4,11
18992,3e-05,5e-05,0.00019,0.00095,-0.00032,0.00024,1e-05,1e-05,4,11
18993,3e-05,5e-05,0.00019,0.00095,-0.00032,0.00024,1e-05,1e-05,4,11
18994,3e-05,5e-05,0.00019,0.00095,-0.00032,0.00024,1e-05,1e-05,4,11
18995,3e-05,5e-05,0.00019,0.00095,-0.00032,0.00024,1e-05,1e-05,4,11
18996,-2e-05,-3e-05,-0.00019,-0.00108,-0.00029,0.00044,-4e-05,-4e-05,4,11
18997,-2e-05,-3e-05,-0.00019,-0.00108,-0.00029,0.00044,-4e-05,-4e-05,4,11
18998,-2e-05,-3e-05,-0.00019,-0.00108,-0.00029,0.00044,-4e-05,-4e-05,4,11
18999,-2e-05,-3e-05,-0.00019,-0.00108,-0.00029,0.00044,-4e-05,-4e-05,4,11
19000,-2e-05,-3e-05,-0.00019,-0.00108,-0.00029,0.00044,-4e-05,-4e-05,4,11
19001,-2e-05,-3e-05,-0.00019,-0.00108,-0.00029,0.00044,-4e-05,-4e-05,4,11
19002,-2e-05,-3e-05,-0.00019,-0.00108,-0.00029,0.00044,-4e-05,-4e-05,4,11
19003,-2e-05,-3e-05,-0.00019,-0.00108,-0.00029,0.00044,-4e-05,-4e-05,4,11
19004,-2e-05,-3e-05,-0.00019,-0.00108,-0.00029,0.00044,-4e-05,-4e-05,4,11
19005,-2e-05,-3e-05,-0.00019,-0.00108,-0.00029,0.00044,-4e-05,-4e-05,4,11
19006,-2e-05,-3e-05,-0.00019,-0.00108,-0.00029,0.00044,-4e-05,-4e-05,4,11
19007,-2e-05,-3e-05,-0.00019,-0.00108,-0.00029,0.00044,-4e-05,-4e-05,4,11
19008,-2e-05,-3e-05,-0.00019,-0.00108,-0.00029,0.00044,-4e-05,-4e-05,4,11
19009,-2e-05,-3e-05,-0.00019,-0.00108,-0.00029,0.00044,-4e-05,-4e-05,4,11
19010,-2e-05,-3e-05,-0.00019,-0.00108,-0.00029,0.00044,-4e-05,-4e-05,4,11
19011,-2e-05,-3e-05,-0.00019,-0.00108,-0.00029,0.00044,-4e-05,-4e-05,4,11
19012,-4e-05,-3e-05,0,0.00074,-0.00061,0.00045,1e-05,-2e-05,4,11
19013,-4e-05,-3e-05,0,0.00074,-0.00061,0.00045,1e-05,-2e-05,4,11
19014,2e-05,6e-05,0.00018,0.00111,-0.00063,-0.00016,1e-05,-2e-05,4,11
19015,2e-05,6e-05,0.00018,0.00111,-0.00063,-0.00016,1e-05,-2e-05,4,11
19016,2e-05,6e-05,0.00018,0.00111,-0.00063,-0.00016,1e-05,-2e-05,4,11
19017,2e-05,6e-05,0.00018,0.00111,-0.00063,-0.00016,1e-05,-2e-05,4,11
19018,2e-05,6e-05,0.00018,0.00111,-0.00063,-0.00016,1e-05,-2e-05,4,11
19019,2e-05,6e-05,0.00018,0.00111,-0.00063,-0.00016,1e-05,-2e-05,4,11
19020,2e-05,6e-05,0.00018,0.00111,-0.00063,-0.00016,1e-05,-2e-05,4,11
19021,2e-05,6e-05,0.00018,0.00111,-0.00063,-0.00016,1e-05,-2e-05,4,11
19022,2e-05,6e-05,0.00018,0.00111,-0.00063,-0.00016,1e-05,-2e-05,4,11
19023,2e-05,6e-05,0.00018,0.00111,-0.00063,-0.00016,1e-05,-2e-05,4,11
19024,2e-05,6e-05,0.00018,0.00111,-0.00063,-0.00016,1e-05,-2e-05,4,11
19025,2e-05,6e-05,0.00018,0.00111,-0.00063,-0.00016,1e-05,-2e-05,4,11
19026,-2e-05,-5e-05,-8e-05,7e-05,0.00127,-3e-05,0,-2e-05,4,11
19027,-2e-05,-5e-05,-8e-05,7e-05,0.00127,-3e-05,0,-2e-05,4,11
19028,-2e-05,-5e-05,-8e-05,7e-05,0.00127,-3e-05,0,-2e-05,4,11
19029,-2e-05,-5e-05,-8e-05,7e-05,0.00127,-3e-05,0,-2e-05,4,11
19030,-2e-05,-5e-05,-8e-05,7e-05,0.00127,-3e-05,0,-2e-05,4,11
19031,-2e-05,-5e-05,-8e-05,7e-05,0.00127,-3e-05,0,-2e-05,4,11
19032,-2e-05,-5e-05,-8e-05,7e-05,0.00127,-3e-05,0,-2e-05,4,11
19033,-2e-05,-5e-05,-8e-05,7e-05,0.00127,-3e-05,0,-2e-05,4,11
19034,-2e-05,-5e-05,-8e-05,7e-05,0.00127,-3e-05,0,-2e-05,4,11
19035,-2e-05,-5e-05,-8e-05,7e-05,0.00127,-3e-05,0,-2e-05,4,11
19036,-2e-05,-5e-05,-8e-05,7e-05,0.00127,-3e-05,0,-2e-05,4,11
19038,-2e-05,-5e-05,-8e-05,7e-05,0.00127,-3e-05,0,-2e-05,4,11
19039,-2e-05,-5e-05,-8e-05,7e-05,0.00127,-3e-05,0,-2e-05,4,11
19040,-2e-05,-5e-05,-8e-05,7e-05,0.00127,-3e-05,0,-2e-05,4,11
19041,-2e-05,-5e-05,-8e-05,7e-05,0.00127,-3e-05,0,-2e-05,4,11
19042,4e-05,5e-05,0.0001,-0.00011,0.00125,-6e-05,2e-05,3e-05,4,11
19043,4e-05,5e-05,0.0001,-0.00011,0.00125,-6e-05,2e-05,3e-05,4,11
19044,4e-05,5e-05,0.0001,-0.00011,0.00125,-6e-05,2e-05,3e-05,4,11
19045,4e-05,5e-05,0.0001,-0.00011,0.00125,-6e-05,2e-05,3e-05,4,11
19046,4e-05,5e-05,0.0001,-0.00011,0.00125,-6e-05,2e-05,3e-05,4,11
19047,4e-05,5e-05,0.0001,-0.00011,0.00125,-6e-05,2e-05,3e-05,4,11
19048,4e-05,5e-05,0.0001,-0.00011,0.00125,-6e-05,2e-05,3e-05,4,11
19049,4e-05,5e-05,0.0001,-0.00011,0.00125,-6e-05,2e-05,3e-05,4,11
19050,0,1e-05,0,-0.00017,-0.00117,-0.00012,-4e-05,0,4,11
19051,-3e-05,-5e-05,5e-05,0.00026,0.00035,6e-05,4e-05,-2e-05,4,11
19052,-3e-05,-5e-05,5e-05,0.00026,0.00035,6e-05,4e-05,-2e-05,4,11
19053,-3e-05,-5e-05,5e-05,0.00026,0.00035,6e-05,4e-05,-2e-05,4,11
19054,-3e-05,-5e-05,5e-05,0.00026,0.00035,6e-05,4e-05,-2e-05,4,11
19055,-3e-05,-5e-05,5e-05,0.00026,0.00035,6e-05,4e-05,-2e-05,4,11
19056,-3e-05,-5e-05,5e-05,0.00026,0.00035,6e-05,4e-05,-2e-05,4,11
19057,-3e-05,-5e-05,5e-05,0.00026,0.00035,6e-05,4e-05,-2e-05,4,11
19058,-3e-05,-5e-05,5e-05,0.00026,0.00035,6e-05,4e-05,-2e-05,4,11
19059,-3e-05,-5e-05,5e-05,0.00026,0.00035,6e-05,4e-05,-2e-05,4,11
19060,-3e-05,-5e-05,5e-05,0.00026,0.00035,6e-05,4e-05,-2e-05,4,11
19061,-3e-05,-5e-05,5e-05,0.00026,0.00035,6e-05,4e-05,-2e-05,4,11
19062,-3e-05,-5e-05,5e-05,0.00026,0.00035,6e-05,4e-05,-2e-05,4,11
19063,-3e-05,-5e-05,5e-05,0.00026,0.00035,6e-05,4e-05,-2e-05,4,11
19064,-3e-05,-5e-05,5e-05,0.00026,0.00035,6e-05,4e-05,-2e-05,4,11
19065,-3e-05,-5e-05,5e-05,0.00026,0.00035,6e-05,4e-05,-2e-05,4,11
19066,-3e-05,-5e-05,5e-05,0.00026,0.00035,6e-05,4e-05,-2e-05,4,11
19067,-3e-05,-5e-05,5e-05,0.00026,0.00035,6e-05,4e-05,-2e-05,4,11
19068,-3e-05,-5e-05,5e-05,0.00026,0.00035,6e-05,4e-05,-2e-05,4,11
19069,-3e-05,-5e-05,5e-05,0.00026,0.00035,6e-05,4e-05,-2e-05,4,11
19070,-3e-05,-5e-05,5e-05,0.00026,0.00035,6e-05,4e-05,-2e-05,4,11
19071,-3e-05,-5e-05,5e-05,0.00026,0.00035,6e-05,4e-05,-2e-05,4,11
19072,1e-05,-4e-05,-0.00018,-0.00087,-0.0004,-0.00047,2e-05,0,4,11
19073,1e-05,-4e-05,-0.00018,-0.00087,-0.0004,-0.00047,2e-05,0,4,11
19074,0,-3e-05,-3e-05,-0.00027,-3e-05,-0.00079,-2e-05,2e-05,4,11
19075,0,-3e-05,-3e-05,-0.00027,-3e-05,-0.00079,-2e-05,2e-05,4,11
19076,0,-3e-05,-3e-05,-0.00027,-3e-05,-0.00079,-2e-05,2e-05,4,11
19077,0,-3e-05,-3e-05,-0.00027,-3e-05,-0.00079,-2e-05,2e-05,4,11
19078,0,-3e-05,-3e-05,-0.00027,-3e-05,-0.00079,-2e-05,2e-05,4,11
19079,0,-3e-05,-3e-05,-0.00027,-3e-05,-0.00079,-2e-05,2e-05,4,11
19080,0,-3e-05,-3e-05,-0.00027,-3e-05,-0.00079,-2e-05,2e-05,4,11
19081,0,-3e-05,-3e-05,-0.00027,-3e-05,-0.00079,-2e-05,2e-05,4,11
19082,0,-3e-05,-3e-05,-0.00027,-3e-05,-0.00079,-2e-05,2e-05,4,11
19083,0,-3e-05,-3e-05,-0.00027,-3e-05,-0.00079,-2e-05,2e-05,4,11
19084,0,-3e-05,-3e-05,-0.00027,-3e-05,-0.00079,-2e-05,2e-05,4,11
19085,0,-3e-05,-3e-05,-0.00027,-3e-05,-0.00079,-2e-05,2e-05,4,11
19086,0,-3e-05,-3e-05,-0.00027,-3e-05,-0.00079,-2e-05,2e-05,4,11
19088,0,-3e-05,-3e-05,-0.00027,-3e-05,-0.00079,-2e-05,2e-05,4,11
19089,0,-3e-05,-3e-05,-0.00027,-3e-05,-0.00079,-2e-05,2e-05,4,11
19090,0,-3e-05,-3e-05,-0.00027,-3e-05,-0.00079,-2e-05,2e-05,4,11
19091,0,-3e-05,-3e-05,-0.00027,-3e-05,-0.00079,-2e-05,2e-05,4,11
19092,0,-3e-05,-3e-05,-0.00027,-3e-05,-0.00079,-2e-05,2e-05,4,11
19093,0,-3e-05,-3e-05,-0.00027,-3e-05,-0.00079,-2e-05,2e-05,4,11
19094,0,-3e-05,-3e-05,-0.00027,-3e-05,-0.00079,-2e-05,2e-05,4,11
19095,-1e-05,-3e-05,-0.00011,-0.00079,-0.00055,-0.00014,-5e-05,-2e-05,4,11
19096,1e-05,5e-05,0.00024,0.00071,-0.00028,0.0002,0,-2e-05,4,11
19097,3e-05,4e-05,0.0001,0.00093,0.0011,8e-05,4e-05,3e-05,4,11
19098,3e-05,4e-05,0.0001,0.00093,0.0011,8e-05,4e-05,3e-05,4,11
19099,3e-05,4e-05,0.0001,0.00093,0.0011,8e-05,4e-05,3e-05,4,11
19100,3e-05,4e-05,0.0001,0.00093,0.0011,8e-05,4e-05,3e-05,4,11
19101,3e-05,4e-05,0.0001,0.00093,0.0011,8e-05,4e-05,3e-05,4,11
19102,3e-05,4e-05,0.0001,0.00093,0.0011,8e-05,4e-05,3e-05,4,11
19103,3e-05,4e-05,0.0001,0.00093,0.0011,8e-05,4e-05,3e-05,4,11
19104,3e-05,4e-05,0.0001,0.00093,0.0011,8e-05,4e-05,3e-05,4,11
19105,3e-05,4e-05,0.0001,0.00093,0.0011,8e-05,4e-05,3e-05,4,11
19106,3e-05,4e-05,0.0001,0.00093,0.0011,8e-05,4e-05,3e-05,4,11
19107,3e-05,4e-05,0.0001,0.00093,0.0011,8e-05,4e-05,3e-05,4,11
19108,3e-05,4e-05,0.0001,0.00093,0.0011,8e-05,4e-05,3e-05,4,11
19109,3e-05,4e-05,0.0001,0.00093,0.0011,8e-05,4e-05,3e-05,4,11
19110,-3e-05,-4e-05,-0.00014,-0.0005,-0.00069,0.00011,9e-05,1e-05,4,11
19111,1e-05,8e-05,0.00032,0.00127,-0.00024,0.00059,-1e-05,-2e-05,4,11
19112,3e-05,7e-05,0.00017,0.00011,0.00076,0.0001,-2e-05,1e-05,4,11
19113,3e-05,7e-05,0.00017,0.00011,0.00076,0.0001,-2e-05,1e-05,4,11
19114,3e-05,7e-05,0.00017,0.00011,0.00076,0.0001,-2e-05,1e-05,4,11
19115,3e-05,7e-05,0.00017,0.00011,0.00076,0.0001,-2e-05,1e-05,4,11
19116,3e-05,7e-05,0.00017,0.00011,0.00076,0.0001,-2e-05,1e-05,4,11
19117,3e-05,7e-05,0.00017,0.00011,0.00076,0.0001,-2e-05,1e-05,4,11
19118,3e-05,7e-05,0.00017,0.00011,0.00076,0.0001,-2e-05,1e-05,4,11
19119,3e-05,7e-05,0.00017,0.00011,0.00076,0.0001,-2e-05,1e-05,4,11
19120,3e-05,7e-05,0.00017,0.00011,0.00076,0.0001,-2e-05,1e-05,4,11
19121,3e-05,7e-05,0.00017,0.00011,0.00076,0.0001,-2e-05,1e-05,4,11
19122,3e-05,7e-05,0.00017,0.00011,0.00076,0.0001,-2e-05,1e-05,4,11
19123,3e-05,7e-05,0.00017,0.00011,0.00076,0.0001,-2e-05,1e-05,4,11
19124,3e-05,7e-05,0.00017,0.00011,0.00076,0.0001,-2e-05,1e-05,4,11
19125,3e-05,7e-05,0.00017,0.00011,0.00076,0.0001,-2e-05,1e-05,4,11
19126,3e-05,7e-05,0.00017,0.00011,0.00076,0.0001,-2e-05,1e-05,4,11
19127,3e-05,7e-05,0.00017,0.00011,0.00076,0.0001,-2e-05,1e-05,4,11
19128,3e-05,7e-05,0.00017,0.00011,0.00076,0.0001,-2e-05,1e-05,4,11
19129,3e-05,7e-05,0.00017,0.00011,0.00076,0.0001,-2e-05,1e-05,4,11
19130,3e-05,7e-05,0.00017,0.00011,0.00076,0.0001,-2e-05,1e-05,4,11
19131,3e-05,7e-05,0.00017,0.00011,0.00076,0.0001,-2e-05,1e-05,4,11
19132,4e-05,4e-05,-1e-05,0.00012,0.00105,0.00062,0.00017,6e-05,4,11
19133,4e-05,4e-05,-1e-05,0.00012,0.00105,0.00062,0.00017,6e-05,4,11
19134,1e-05,2e-05,-1e-05,-0.00022,-0.00108,0.00039,5e-05,2e-05,4,11
19135,1e-05,2e-05,-1e-05,-0.00022,-0.00108,0.00039,5e-05,2e-05,4,11
19136,1e-05,2e-05,-1e-05,-0.00022,-0.00108,0.00039,5e-05,2e-05,4,11
19138,1e-05,2e-05,-1e-05,-0.00022,-0.00108,0.00039,5e-05,2e-05,4,11
19139,1e-05,2e-05,-1e-05,-0.00022,-0.00108,0.00039,5e-05,2e-05,4,11
19140,1e-05,2e-05,-1e-05,-0.00022,-0.00108,0.00039,5e-05,2e-05,4,11
19141,1e-05,2e-05,-1e-05,-0.00022,-0.00108,0.00039,5e-05,2e-05,4,11
19142,1e-05,2e-05,-1e-05,-0.00022,-0.00108,0.00039,5e-05,2e-05,4,11
19143,1e-05,2e-05,-1e-05,-0.00022,-0.00108,0.00039,5e-05,2e-05,4,11
19144,1e-05,2e-05,-1e-05,-0.00022,-0.00108,0.00039,5e-05,2e-05,4,11
19145,1e-05,2e-05,-1e-05,-0.00022,-0.00108,0.00039,5e-05,2e-05,4,11
19146,1e-05,2e-05,-1e-05,-0.00022,-0.00108,0.00039,5e-05,2e-05,4,11
19147,1e-05,2e-05,-1e-05,-0.00022,-0.00108,0.00039,5e-05,2e-05,4,11
19148,1e-05,2e-05,-1e-05,-0.00022,-0.00108,0.00039,5e-05,2e-05,4,11
19149,1e-05,2e-05,-1e-05,-0.00022,-0.00108,0.00039,5e-05,2e-05,4,11
19150,1e-05,2e-05,-1e-05,-0.00022,-0.00108,0.00039,5e-05,2e-05,4,11
19151,1e-05,2e-05,-1e-05,-0.00022,-0.00108,0.00039,5e-05,2e-05,4,11
19152,1e-05,2e-05,-1e-05,-0.00022,-0.00108,0.00039,5e-05,2e-05,4,11
19153,1e-05,2e-05,-1e-05,-0.00022,-0.00108,0.00039,5e-05,2e-05,4,11
19154,1e-05,2e-05,-1e-05,-0.00022,-0.00108,0.00039,5e-05,2e-05,4,11
19155,-7e-05,-2e-05,4e-05,0.00062,-0.00079,-0.0006,-0.00027,-0.0001,4,11
19156,-4e-05,-3e-05,-2e-05,0.00033,-0.00128,-0.0005,-1e-05,-2e-05,4,11
19157,-4e-05,-6e-05,-0.00022,-0.00057,0.00069,0.00016,-4e-05,-1e-05,4,11
19158,-4e-05,-6e-05,-0.00022,-0.00057,0.00069,0.00016,-4e-05,-1e-05,4,11
19159,-4e-05,-6e-05,-0.00022,-0.00057,0.00069,0.00016,-4e-05,-1e-05,4,11
19160,-4e-05,-6e-05,-0.00022,-0.00057,0.00069,0.00016,-4e-05,-1e-05,4,11
19161,-4e-05,-6e-05,-0.00022,-0.00057,0.00069,0.00016,-4e-05,-1e-05,4,11
19162,-4e-05,-6e-05,-0.00022,-0.00057,0.00069,0.00016,-4e-05,-1e-05,4,11
19163,-4e-05,-6e-05,-0.00022,-0.00057,0.00069,0.00016,-4e-05,-1e-05,4,11
19164,-4e-05,-6e-05,-0.00022,-0.00057,0.00069,0.00016,-4e-05,-1e-05,4,11
19165,-4e-05,-6e-05,-0.00022,-0.00057,0.00069,0.00016,-4e-05,-1e-05,4,11
19166,-4e-05,-6e-05,-0.00022,-0.00057,0.00069,0.00016,-4e-05,-1e-05,4,11
19167,-4e-05,-6e-05,-0.00022,-0.00057,0.00069,0.00016,-4e-05,-1e-05,4,11
19168,-4e-05,-6e-05,-0.00022,-0.00057,0.00069,0.00016,-4e-05,-1e-05,4,11
19169,-4e-05,-6e-05,-0.00022,-0.00057,0.00069,0.00016,-4e-05,-1e-05,4,11
19170,0,-2e-05,3e-05,0,0.00041,0.00029,-8e-05,-2e-05,4,11
19171,1e-05,1e-05,0.00018,0.00022,0.00025,-3e-05,-7e-05,1e-05,4,11
19172,-2e-05,-0.00011,-0.00039,-0.00068,0.00025,0.0003,-2e-05,-2e-05,4,11
19173,-2e-05,-0.00011,-0.00039,-0.00068,0.00025,0.0003,-2e-05,-2e-05,4,11
19174,-2e-05,-0.00011,-0.00039,-0.00068,0.00025,0.0003,-2e-05,-2e-05,4,11
19175,-2e-05,-0.00011,-0.00039,-0.00068,0.00025,0.0003,-2e-05,-2e-05,4,11
19176,-2e-05,-0.00011,-0.00039,-0.00068,0.00025,0.0003,-2e-05,-2e-05,4,11
19177,-2e-05,-0.00011,-0.00039,-0.00068,0.00025,0.0003,-2e-05,-2e-05,4,11
19178,-2e-05,-0.00011,-0.00039,-0.00068,0.00025,0.0003,-2e-05,-2e-05,4,11
19179,-2e-05,-0.00011,-0.00039,-0.00068,0.00025,0.0003,-2e-05,-2e-05,4,11
19180,-2e-05,-0.00011,-0.00039,-0.00068,0.00025,0.0003,-2e-05,-2e-05,4,11
19181,-2e-05,-0.00011,-0.00039,-0.00068,0.00025,0.0003,-2e-05,-2e-05,4,11
19182,-2e-05,-0.00011,-0.00039,-0.00068,0.00025,0.0003,-2e-05,-2e-05,4,11
19183,-2e-05,-0.00011,-0.00039,-0.00068,0.00025,0.0003,-2e-05,-2e-05,4,11
19184,-2e-05,-0.00011,-0.00039,-0.00068,0.00025,0.0003,-2e-05,-2e-05,4,11
19185,-2e-05,-0.00011,-0.00039,-0.00068,0.00025,0.0003,-2e-05,-2e-05,4,11
