17511,-7e-05,-1e-05,5e-05,0.0002,-0.00052,-0.0007,-0.00018,-9e-05,4,12
17512,-7e-05,-1e-05,5e-05,0.0002,-0.00052,-0.0007,-0.00018,-9e-05,4,12
17513,-7e-05,-1e-05,5e-05,0.0002,-0.00052,-0.0007,-0.00018,-9e-05,4,12
17514,-7e-05,-1e-05,5e-05,0.0002,-0.00052,-0.0007,-0.00018,-9e-05,4,12
17515,-7e-05,-1e-05,5e-05,0.0002,-0.00052,-0.0007,-0.00018,-9e-05,4,12
17516,-7e-05,-1e-05,5e-05,0.0002,-0.00052,-0.0007,-0.00018,-9e-05,4,12
17517,-7e-05,-1e-05,5e-05,0.0002,-0.00052,-0.0007,-0.00018,-9e-05,4,12
17518,-7e-05,-1e-05,5e-05,0.0002,-0.00052,-0.0007,-0.00018,-9e-05,4,12
17519,-7e-05,-1e-05,5e-05,0.0002,-0.00052,-0.0007,-0.00018,-9e-05,4,12
17520,-7e-05,-1e-05,5e-05,0.0002,-0.00052,-0.0007,-0.00018,-9e-05,4,12
17521,4e-05,-3e-05,-5e-05,9e-05,0.00047,-0.00016,-0.00011,-6e-05,4,12
17522,-1e-05,1e-05,4e-05,4e-05,0.00051,0.00068,2e-05,-2e-05,4,12
17523,-1e-05,1e-05,4e-05,4e-05,0.00051,0.00068,2e-05,-2e-05,4,12
17524,-1e-05,1e-05,4e-05,4e-05,0.00051,0.00068,2e-05,-2e-05,4,12
17525,-1e-05,1e-05,4e-05,4e-05,0.00051,0.00068,2e-05,-2e-05,4,12
17526,-1e-05,1e-05,4e-05,4e-05,0.00051,0.00068,2e-05,-2e-05,4,12
17527,-1e-05,1e-05,4e-05,4e-05,0.00051,0.00068,2e-05,-2e-05,4,12
17528,-1e-05,1e-05,4e-05,4e-05,0.00051,0.00068,2e-05,-2e-05,4,12
17529,-1e-05,1e-05,4e-05,4e-05,0.00051,0.00068,2e-05,-2e-05,4,12
17530,-1e-05,1e-05,4e-05,4e-05,0.00051,0.00068,2e-05,-2e-05,4,12
17531,-1e-05,1e-05,4e-05,4e-05,0.00051,0.00068,2e-05,-2e-05,4,12
17533,-1e-05,1e-05,4e-05,4e-05,0.00051,0.00068,2e-05,-2e-05,4,12
17534,-1e-05,1e-05,4e-05,4e-05,0.00051,0.00068,2e-05,-2e-05,4,12
17535,-1e-05,1e-05,4e-05,4e-05,0.00051,0.00068,2e-05,-2e-05,4,12
17536,-0.00014,-0.0001,-0.00017,-0.00012,-0.00092,-0.00098,-0.00028,-0.00019,4,12
17538,-0.00014,-0.0001,-0.00017,-0.00012,-0.00092,-0.00098,-0.00028,-0.00019,4,12
17539,-0.00014,-0.0001,-0.00017,-0.00012,-0.00092,-0.00098,-0.00028,-0.00019,4,12
17540,-0.00014,-0.0001,-0.00017,-0.00012,-0.00092,-0.00098,-0.00028,-0.00019,4,12
17541,-0.00014,-0.0001,-0.00017,-0.00012,-0.00092,-0.00098,-0.00028,-0.00019,4,12
17542,-0.00014,-0.0001,-0.00017,-0.00012,-0.00092,-0.00098,-0.00028,-0.00019,4,12
17543,-0.00014,-0.0001,-0.00017,-0.00012,-0.00092,-0.00098,-0.00028,-0.00019,4,12
17544,1e-05,-2e-05,1e-05,4e-05,0.00053,0.00027,1e-05,1e-05,4,12
17545,1e-05,-2e-05,1e-05,4e-05,0.00053,0.00027,1e-05,1e-05,4,12
17546,1e-05,-2e-05,1e-05,4e-05,0.00053,0.00027,1e-05,1e-05,4,12
17547,1e-05,-2e-05,1e-05,4e-05,0.00053,0.00027,1e-05,1e-05,4,12
17548,1e-05,-2e-05,1e-05,4e-05,0.00053,0.00027,1e-05,1e-05,4,12
17549,1e-05,-2e-05,1e-05,4e-05,0.00053,0.00027,1e-05,1e-05,4,12
17550,1e-05,-2e-05,1e-05,4e-05,0.00053,0.00027,1e-05,1e-05,4,12
17551,1e-05,-2e-05,1e-05,4e-05,0.00053,0.00027,1e-05,1e-05,4,12
17552,1e-05,-2e-05,1e-05,4e-05,0.00053,0.00027,1e-05,1e-05,4,12
17553,1e-05,-2e-05,1e-05,4e-05,0.00053,0.00027,1e-05,1e-05,4,12
17554,1e-05,-2e-05,1e-05,4e-05,0.00053,0.00027,1e-05,1e-05,4,12
17555,1e-05,-2e-05,1e-05,4e-05,0.00053,0.00027,1e-05,1e-05,4,12
17556,1e-05,-2e-05,1e-05,4e-05,0.00053,0.00027,1e-05,1e-05,4,12
17557,1e-05,-2e-05,1e-05,4e-05,0.00053,0.00027,1e-05,1e-05,4,12
17558,1e-05,-2e-05,1e-05,4e-05,0.00053,0.00027,1e-05,1e-05,4,12
17559,-0.00012,-0.00014,-0.00013,-2e-05,-0.00091,-0.00031,-0.00021,-8e-05,4,12
17560,3e-05,-2e-05,-1e-05,9e-05,0.00039,0.00011,0.0001,0,4,12
17561,3e-05,-2e-05,-1e-05,9e-05,0.00039,0.00011,0.0001,0,4,12
17562,3e-05,-2e-05,-1e-05,9e-05,0.00039,0.00011,0.0001,0,4,12
17563,3e-05,-2e-05,-1e-05,9e-05,0.00039,0.00011,0.0001,0,4,12
17564,3e-05,-2e-05,-1e-05,9e-05,0.00039,0.00011,0.0001,0,4,12
17565,3e-05,-2e-05,-1e-05,9e-05,0.00039,0.00011,0.0001,0,4,12
17566,3e-05,-2e-05,-1e-05,9e-05,0.00039,0.00011,0.0001,0,4,12
17567,3e-05,-2e-05,-1e-05,9e-05,0.00039,0.00011,0.0001,0,4,12
17568,3e-05,-2e-05,-1e-05,9e-05,0.00039,0.00011,0.0001,0,4,12
17569,3e-05,-2e-05,-1e-05,9e-05,0.00039,0.00011,0.0001,0,4,12
17570,3e-05,-2e-05,-1e-05,9e-05,0.00039,0.00011,0.0001,0,4,12
17571,3e-05,-2e-05,-1e-05,9e-05,0.00039,0.00011,0.0001,0,4,12
17572,3e-05,-2e-05,-1e-05,9e-05,0.00039,0.00011,0.0001,0,4,12
17573,3e-05,-2e-05,-1e-05,9e-05,0.00039,0.00011,0.0001,0,4,12
17574,3e-05,-2e-05,-1e-05,9e-05,0.00039,0.00011,0.0001,0,4,12
17575,3e-05,-2e-05,-1e-05,9e-05,0.00039,0.00011,0.0001,0,4,12
17576,3e-05,-2e-05,-1e-05,9e-05,0.00039,0.00011,0.0001,0,4,12
17577,3e-05,-2e-05,-1e-05,9e-05,0.00039,0.00011,0.0001,0,4,12
17578,3e-05,-2e-05,-1e-05,9e-05,0.00039,0.00011,0.0001,0,4,12
17579,3e-05,-2e-05,-1e-05,9e-05,0.00039,0.00011,0.0001,0,4,12
17580,3e-05,-2e-05,-1e-05,9e-05,0.00039,0.00011,0.0001,0,4,12
17581,-0.0001,-9e-05,-0.00012,-9e-05,-5e-05,-0.00034,-0.00019,-0.0001,4,12
17582,1e-05,1e-05,3e-05,-0.00024,0.00021,-0.00029,-5e-05,-1e-05,4,12
17583,1e-05,1e-05,3e-05,-0.00024,0.00021,-0.00029,-5e-05,-1e-05,4,12
17584,1e-05,1e-05,3e-05,-0.00024,0.00021,-0.00029,-5e-05,-1e-05,4,12
17585,1e-05,1e-05,3e-05,-0.00024,0.00021,-0.00029,-5e-05,-1e-05,4,12
17586,1e-05,1e-05,3e-05,-0.00024,0.00021,-0.00029,-5e-05,-1e-05,4,12
17588,1e-05,1e-05,3e-05,-0.00024,0.00021,-0.00029,-5e-05,-1e-05,4,12
17589,1e-05,1e-05,3e-05,-0.00024,0.00021,-0.00029,-5e-05,-1e-05,4,12
17590,1e-05,1e-05,3e-05,-0.00024,0.00021,-0.00029,-5e-05,-1e-05,4,12
17591,1e-05,1e-05,3e-05,-0.00024,0.00021,-0.00029,-5e-05,-1e-05,4,12
17592,1e-05,1e-05,3e-05,-0.00024,0.00021,-0.00029,-5e-05,-1e-05,4,12
17593,1e-05,1e-05,3e-05,-0.00024,0.00021,-0.00029,-5e-05,-1e-05,4,12
17594,1e-05,1e-05,3e-05,-0.00024,0.00021,-0.00029,-5e-05,-1e-05,4,12
17595,1e-05,1e-05,3e-05,-0.00024,0.00021,-0.00029,-5e-05,-1e-05,4,12
17596,1e-05,0,2e-05,0.00021,0.00104,-3e-05,0,-1e-05,4,12
17597,1e-05,0,2e-05,0.00021,0.00104,-3e-05,0,-1e-05,4,12
17598,1e-05,0,2e-05,0.00021,0.00104,-3e-05,0,-1e-05,4,12
17599,1e-05,0,2e-05,0.00021,0.00104,-3e-05,0,-1e-05,4,12
17600,1e-05,0,2e-05,0.00021,0.00104,-3e-05,0,-1e-05,4,12
17601,1e-05,0,2e-05,0.00021,0.00104,-3e-05,0,-1e-05,4,12
17602,1e-05,0,2e-05,0.00021,0.00104,-3e-05,0,-1e-05,4,12
17603,1e-05,0,2e-05,0.00021,0.00104,-3e-05,0,-1e-05,4,12
17604,-2e-05,-2e-05,-1e-05,0.00023,-0.00019,0.00011,1e-05,-2e-05,4,12
17605,-2e-05,-2e-05,-1e-05,0.00023,-0.00019,0.00011,1e-05,-2e-05,4,12
17606,-2e-05,-2e-05,-1e-05,0.00023,-0.00019,0.00011,1e-05,-2e-05,4,12
17607,-2e-05,-2e-05,-1e-05,0.00023,-0.00019,0.00011,1e-05,-2e-05,4,12
17608,-2e-05,-2e-05,-1e-05,0.00023,-0.00019,0.00011,1e-05,-2e-05,4,12
17609,-2e-05,-2e-05,-1e-05,0.00023,-0.00019,0.00011,1e-05,-2e-05,4,12
17610,-2e-05,-2e-05,-1e-05,0.00023,-0.00019,0.00011,1e-05,-2e-05,4,12
17611,-2e-05,-2e-05,-1e-05,0.00023,-0.00019,0.00011,1e-05,-2e-05,4,12
17612,-2e-05,-2e-05,-1e-05,0.00023,-0.00019,0.00011,1e-05,-2e-05,4,12
17613,-2e-05,-2e-05,-1e-05,0.00023,-0.00019,0.00011,1e-05,-2e-05,4,12
17614,-2e-05,-2e-05,-1e-05,0.00023,-0.00019,0.00011,1e-05,-2e-05,4,12
17615,-2e-05,-2e-05,-1e-05,0.00023,-0.00019,0.00011,1e-05,-2e-05,4,12
17616,-2e-05,-2e-05,-1e-05,0.00023,-0.00019,0.00011,1e-05,-2e-05,4,12
17617,-2e-05,-2e-05,-1e-05,0.00023,-0.00019,0.00011,1e-05,-2e-05,4,12
17618,-2e-05,-2e-05,-1e-05,0.00023,-0.00019,0.00011,1e-05,-2e-05,4,12
17619,-2e-05,-2e-05,-1e-05,0.00023,-0.00019,0.00011,1e-05,-2e-05,4,12
17620,-2e-05,-2e-05,-1e-05,0.00023,-0.00019,0.00011,1e-05,-2e-05,4,12
17621,-2e-05,-2e-05,-1e-05,0.00023,-0.00019,0.00011,1e-05,-2e-05,4,12
17622,-2e-05,-2e-05,-1e-05,0.00023,-0.00019,0.00011,1e-05,-2e-05,4,12
17623,-2e-05,-2e-05,-1e-05,0.00023,-0.00019,0.00011,1e-05,-2e-05,4,12
17624,-2e-05,-2e-05,-1e-05,0.00023,-0.00019,0.00011,1e-05,-2e-05,4,12
17625,-2e-05,-2e-05,-1e-05,0.00023,-0.00019,0.00011,1e-05,-2e-05,4,12
17626,-2e-05,-2e-05,-1e-05,0.00023,-0.00019,0.00011,1e-05,-2e-05,4,12
17627,-0.0001,-6e-05,-2e-05,0.00033,0.00017,-5e-05,-8e-05,-6e-05,4,12
17628,2e-05,3e-05,0.0001,0.0004,0.00015,0.0002,0.0001,0,4,12
17629,2e-05,3e-05,0.0001,0.0004,0.00015,0.0002,0.0001,0,4,12
17630,2e-05,3e-05,0.0001,0.0004,0.00015,0.0002,0.0001,0,4,12
17631,2e-05,3e-05,0.0001,0.0004,0.00015,0.0002,0.0001,0,4,12
17632,2e-05,3e-05,0.0001,0.0004,0.00015,0.0002,0.0001,0,4,12
17633,2e-05,3e-05,0.0001,0.0004,0.00015,0.0002,0.0001,0,4,12
17634,2e-05,3e-05,0.0001,0.0004,0.00015,0.0002,0.0001,0,4,12
17635,2e-05,3e-05,0.0001,0.0004,0.00015,0.0002,0.0001,0,4,12
17636,2e-05,3e-05,0.0001,0.0004,0.00015,0.0002,0.0001,0,4,12
17638,2e-05,3e-05,0.0001,0.0004,0.00015,0.0002,0.0001,0,4,12
17639,2e-05,3e-05,0.0001,0.0004,0.00015,0.0002,0.0001,0,4,12
17640,2e-05,3e-05,0.0001,0.0004,0.00015,0.0002,0.0001,0,4,12
17641,1e-05,1e-05,-6e-05,-0.00023,-0.00066,-0.00039,-0.0001,1e-05,4,12
17642,-4e-05,-3e-05,2e-05,-5e-05,-0.00055,-0.00011,-1e-05,-5e-05,4,12
17643,-4e-05,-3e-05,2e-05,-5e-05,-0.00055,-0.00011,-1e-05,-5e-05,4,12
17644,-4e-05,-3e-05,2e-05,-5e-05,-0.00055,-0.00011,-1e-05,-5e-05,4,12
17645,-4e-05,-3e-05,2e-05,-5e-05,-0.00055,-0.00011,-1e-05,-5e-05,4,12
17646,-4e-05,-3e-05,2e-05,-5e-05,-0.00055,-0.00011,-1e-05,-5e-05,4,12
17647,-4e-05,-3e-05,2e-05,-5e-05,-0.00055,-0.00011,-1e-05,-5e-05,4,12
17648,-4e-05,-3e-05,2e-05,-5e-05,-0.00055,-0.00011,-1e-05,-5e-05,4,12
17649,-4e-05,-3e-05,2e-05,-5e-05,-0.00055,-0.00011,-1e-05,-5e-05,4,12
17650,-4e-05,-3e-05,2e-05,-5e-05,-0.00055,-0.00011,-1e-05,-5e-05,4,12
17651,-4e-05,-3e-05,2e-05,-5e-05,-0.00055,-0.00011,-1e-05,-5e-05,4,12
17652,-4e-05,-3e-05,2e-05,-5e-05,-0.00055,-0.00011,-1e-05,-5e-05,4,12
17653,-4e-05,-3e-05,2e-05,-5e-05,-0.00055,-0.00011,-1e-05,-5e-05,4,12
17654,-4e-05,-3e-05,2e-05,-5e-05,-0.00055,-0.00011,-1e-05,-5e-05,4,12
17655,-4e-05,-3e-05,2e-05,-5e-05,-0.00055,-0.00011,-1e-05,-5e-05,4,12
17656,4e-05,4e-05,4e-05,-4e-05,-0.00034,-0.00012,-5e-05,4e-05,4,12
17657,4e-05,4e-05,4e-05,-4e-05,-0.00034,-0.00012,-5e-05,4e-05,4,12
17658,4e-05,4e-05,4e-05,-4e-05,-0.00034,-0.00012,-5e-05,4e-05,4,12
17659,4e-05,4e-05,4e-05,-4e-05,-0.00034,-0.00012,-5e-05,4e-05,4,12
17660,4e-05,4e-05,4e-05,-4e-05,-0.00034,-0.00012,-5e-05,4e-05,4,12
17661,4e-05,4e-05,4e-05,-4e-05,-0.00034,-0.00012,-5e-05,4e-05,4,12
17662,4e-05,4e-05,4e-05,-4e-05,-0.00034,-0.00012,-5e-05,4e-05,4,12
17663,4e-05,4e-05,4e-05,-4e-05,-0.00034,-0.00012,-5e-05,4e-05,4,12
17664,-2e-05,-6e-05,-0.00013,-0.00046,-0.00057,-0.00073,-0.0002,-5e-05,4,12
17665,-2e-05,-6e-05,-0.00013,-0.00046,-0.00057,-0.00073,-0.0002,-5e-05,4,12
17666,-2e-05,-6e-05,-0.00013,-0.00046,-0.00057,-0.00073,-0.0002,-5e-05,4,12
17667,-2e-05,-6e-05,-0.00013,-0.00046,-0.00057,-0.00073,-0.0002,-5e-05,4,12
17668,-2e-05,-6e-05,-0.00013,-0.00046,-0.00057,-0.00073,-0.0002,-5e-05,4,12
17669,-2e-05,-6e-05,-0.00013,-0.00046,-0.00057,-0.00073,-0.0002,-5e-05,4,12
17670,-2e-05,-6e-05,-0.00013,-0.00046,-0.00057,-0.00073,-0.0002,-5e-05,4,12
17671,-2e-05,-6e-05,-0.00013,-0.00046,-0.00057,-0.00073,-0.0002,-5e-05,4,12
17672,-2e-05,-6e-05,-0.00013,-0.00046,-0.00057,-0.00073,-0.0002,-5e-05,4,12
17673,-2e-05,-6e-05,-0.00013,-0.00046,-0.00057,-0.00073,-0.0002,-5e-05,4,12
17674,-2e-05,-6e-05,-0.00013,-0.00046,-0.00057,-0.00073,-0.0002,-5e-05,4,12
17675,-2e-05,-6e-05,-0.00013,-0.00046,-0.00057,-0.00073,-0.0002,-5e-05,4,12
17676,-2e-05,-6e-05,-0.00013,-0.00046,-0.00057,-0.00073,-0.0002,-5e-05,4,12
17677,-2e-05,-6e-05,-0.00013,-0.00046,-0.00057,-0.00073,-0.0002,-5e-05,4,12
17678,-2e-05,-6e-05,-0.00013,-0.00046,-0.00057,-0.00073,-0.0002,-5e-05,4,12
17679,0,-4e-05,-4e-05,-0.00019,-0.00028,0.0001,0.00013,1e-05,4,12
17680,3e-05,4e-05,2e-05,-0.00017,0.00013,2e-05,9e-05,9e-05,4,12
17681,3e-05,4e-05,2e-05,-0.00017,0.00013,2e-05,9e-05,9e-05,4,12
17682,3e-05,4e-05,2e-05,-0.00017,0.00013,2e-05,9e-05,9e-05,4,12
17683,3e-05,4e-05,2e-05,-0.00017,0.00013,2e-05,9e-05,9e-05,4,12
17684,3e-05,4e-05,2e-05,-0.00017,0.00013,2e-05,9e-05,9e-05,4,12
17685,3e-05,4e-05,2e-05,-0.00017,0.00013,2e-05,9e-05,9e-05,4,12
17687,3e-05,4e-05,2e-05,-0.00017,0.00013,2e-05,9e-05,9e-05,4,12
17689,3e-05,4e-05,2e-05,-0.00017,0.00013,2e-05,9e-05,9e-05,4,12
17690,3e-05,4e-05,2e-05,-0.00017,0.00013,2e-05,9e-05,9e-05,4,12
17691,3e-05,4e-05,2e-05,-0.00017,0.00013,2e-05,9e-05,9e-05,4,12
17692,3e-05,4e-05,2e-05,-0.00017,0.00013,2e-05,9e-05,9e-05,4,12
17693,3e-05,4e-05,2e-05,-0.00017,0.00013,2e-05,9e-05,9e-05,4,12
17694,3e-05,4e-05,2e-05,-0.00017,0.00013,2e-05,9e-05,9e-05,4,12
17695,3e-05,4e-05,2e-05,-0.00017,0.00013,2e-05,9e-05,9e-05,4,12
17696,3e-05,4e-05,2e-05,-0.00017,0.00013,2e-05,9e-05,9e-05,4,12
17697,3e-05,4e-05,2e-05,-0.00017,0.00013,2e-05,9e-05,9e-05,4,12
17698,3e-05,4e-05,2e-05,-0.00017,0.00013,2e-05,9e-05,9e-05,4,12
17699,3e-05,4e-05,2e-05,-0.00017,0.00013,2e-05,9e-05,9e-05,4,12
17700,3e-05,4e-05,2e-05,-0.00017,0.00013,2e-05,9e-05,9e-05,4,12
17701,-0.00015,-0.00018,-0.00027,-0.00032,1e-05,-0.00038,-0.00026,-0.00016,4,12
17702,-5e-05,-4e-05,-9e-05,0.00039,0.00069,0.00056,-1e-05,-0.00011,4,12
17703,-5e-05,-4e-05,-9e-05,0.00039,0.00069,0.00056,-1e-05,-0.00011,4,12
17704,-5e-05,-4e-05,-9e-05,0.00039,0.00069,0.00056,-1e-05,-0.00011,4,12
17705,-5e-05,-4e-05,-9e-05,0.00039,0.00069,0.00056,-1e-05,-0.00011,4,12
17706,-5e-05,-4e-05,-9e-05,0.00039,0.00069,0.00056,-1e-05,-0.00011,4,12
17707,-5e-05,-4e-05,-9e-05,0.00039,0.00069,0.00056,-1e-05,-0.00011,4,12
17708,-5e-05,-4e-05,-9e-05,0.00039,0.00069,0.00056,-1e-05,-0.00011,4,12
17709,-5e-05,-4e-05,-9e-05,0.00039,0.00069,0.00056,-1e-05,-0.00011,4,12
17710,-5e-05,-4e-05,-9e-05,0.00039,0.00069,0.00056,-1e-05,-0.00011,4,12
17711,-5e-05,-4e-05,-9e-05,0.00039,0.00069,0.00056,-1e-05,-0.00011,4,12
17712,-5e-05,-4e-05,-9e-05,0.00039,0.00069,0.00056,-1e-05,-0.00011,4,12
17713,-5e-05,-4e-05,-9e-05,0.00039,0.00069,0.00056,-1e-05,-0.00011,4,12
17714,-5e-05,-4e-05,-9e-05,0.00039,0.00069,0.00056,-1e-05,-0.00011,4,12
17715,-4e-05,-3e-05,0,0.00025,0.00016,-0.00052,-0.00022,-6e-05,4,12
17716,8e-05,5e-05,7e-05,0.00019,0.00117,0.00051,0.00026,6e-05,4,12
17717,8e-05,5e-05,7e-05,0.00019,0.00117,0.00051,0.00026,6e-05,4,12
17718,8e-05,5e-05,7e-05,0.00019,0.00117,0.00051,0.00026,6e-05,4,12
17720,8e-05,5e-05,7e-05,0.00019,0.00117,0.00051,0.00026,6e-05,4,12
17721,8e-05,5e-05,7e-05,0.00019,0.00117,0.00051,0.00026,6e-05,4,12
17722,8e-05,5e-05,7e-05,0.00019,0.00117,0.00051,0.00026,6e-05,4,12
17723,8e-05,5e-05,7e-05,0.00019,0.00117,0.00051,0.00026,6e-05,4,12
17724,7e-05,6e-05,7e-05,4e-05,-0.0003,0.00023,9e-05,7e-05,4,12
17725,7e-05,6e-05,7e-05,4e-05,-0.0003,0.00023,9e-05,7e-05,4,12
17726,7e-05,6e-05,7e-05,4e-05,-0.0003,0.00023,9e-05,7e-05,4,12
17727,7e-05,6e-05,7e-05,4e-05,-0.0003,0.00023,9e-05,7e-05,4,12
17728,7e-05,6e-05,7e-05,4e-05,-0.0003,0.00023,9e-05,7e-05,4,12
17729,7e-05,6e-05,7e-05,4e-05,-0.0003,0.00023,9e-05,7e-05,4,12
17730,7e-05,6e-05,7e-05,4e-05,-0.0003,0.00023,9e-05,7e-05,4,12
17731,7e-05,6e-05,7e-05,4e-05,-0.0003,0.00023,9e-05,7e-05,4,12
17732,7e-05,6e-05,7e-05,4e-05,-0.0003,0.00023,9e-05,7e-05,4,12
17733,7e-05,6e-05,7e-05,4e-05,-0.0003,0.00023,9e-05,7e-05,4,12
17734,7e-05,6e-05,7e-05,4e-05,-0.0003,0.00023,9e-05,7e-05,4,12
17735,7e-05,6e-05,7e-05,4e-05,-0.0003,0.00023,9e-05,7e-05,4,12
17737,7e-05,6e-05,7e-05,4e-05,-0.0003,0.00023,9e-05,7e-05,4,12
17739,2e-05,-2e-05,4e-05,0.00033,0.00023,0.00017,6e-05,1e-05,4,12
17740,-9e-05,-6e-05,-0.00022,-0.00067,0.00021,-0.00026,-7e-05,-4e-05,4,12
17741,-9e-05,-6e-05,-0.00022,-0.00067,0.00021,-0.00026,-7e-05,-4e-05,4,12
17742,-9e-05,-6e-05,-0.00022,-0.00067,0.00021,-0.00026,-7e-05,-4e-05,4,12
17743,-9e-05,-6e-05,-0.00022,-0.00067,0.00021,-0.00026,-7e-05,-4e-05,4,12
17744,-9e-05,-6e-05,-0.00022,-0.00067,0.00021,-0.00026,-7e-05,-4e-05,4,12
17745,-9e-05,-6e-05,-0.00022,-0.00067,0.00021,-0.00026,-7e-05,-4e-05,4,12
17746,-9e-05,-6e-05,-0.00022,-0.00067,0.00021,-0.00026,-7e-05,-4e-05,4,12
17747,-9e-05,-6e-05,-0.00022,-0.00067,0.00021,-0.00026,-7e-05,-4e-05,4,12
17748,-9e-05,-6e-05,-0.00022,-0.00067,0.00021,-0.00026,-7e-05,-4e-05,4,12
17749,-9e-05,-6e-05,-0.00022,-0.00067,0.00021,-0.00026,-7e-05,-4e-05,4,12
17750,-9e-05,-6e-05,-0.00022,-0.00067,0.00021,-0.00026,-7e-05,-4e-05,4,12
17751,-9e-05,-6e-05,-0.00022,-0.00067,0.00021,-0.00026,-7e-05,-4e-05,4,12
17752,-9e-05,-6e-05,-0.00022,-0.00067,0.00021,-0.00026,-7e-05,-4e-05,4,12
17753,-9e-05,-6e-05,-0.00022,-0.00067,0.00021,-0.00026,-7e-05,-4e-05,4,12
17754,-9e-05,-6e-05,-0.00022,-0.00067,0.00021,-0.00026,-7e-05,-4e-05,4,12
17755,-9e-05,-6e-05,-0.00022,-0.00067,0.00021,-0.00026,-7e-05,-4e-05,4,12
17756,-9e-05,-6e-05,-0.00022,-0.00067,0.00021,-0.00026,-7e-05,-4e-05,4,12
17757,-9e-05,-6e-05,-0.00022,-0.00067,0.00021,-0.00026,-7e-05,-4e-05,4,12
17758,-9e-05,-6e-05,-0.00022,-0.00067,0.00021,-0.00026,-7e-05,-4e-05,4,12
17759,-9e-05,-6e-05,-0.00022,-0.00067,0.00021,-0.00026,-7e-05,-4e-05,4,12
17760,-9e-05,-6e-05,-0.00022,-0.00067,0.00021,-0.00026,-7e-05,-4e-05,4,12
17761,-1e-05,1e-05,4e-05,1e-05,-0.00077,-0.00019,-5e-05,-5e-05,4,12
17762,-2e-05,-5e-05,-9e-05,-6e-05,8e-05,-3e-05,5e-05,0,4,12
17763,-2e-05,-5e-05,-9e-05,-6e-05,8e-05,-3e-05,5e-05,0,4,12
17764,-2e-05,-5e-05,-9e-05,-6e-05,8e-05,-3e-05,5e-05,0,4,12
17765,-2e-05,-5e-05,-9e-05,-6e-05,8e-05,-3e-05,5e-05,0,4,12
17766,-2e-05,-5e-05,-9e-05,-6e-05,8e-05,-3e-05,5e-05,0,4,12
17767,-2e-05,-5e-05,-9e-05,-6e-05,8e-05,-3e-05,5e-05,0,4,12
17768,-2e-05,-5e-05,-9e-05,-6e-05,8e-05,-3e-05,5e-05,0,4,12
17769,-2e-05,-5e-05,-9e-05,-6e-05,8e-05,-3e-05,5e-05,0,4,12
17770,-2e-05,-5e-05,-9e-05,-6e-05,8e-05,-3e-05,5e-05,0,4,12
17771,-2e-05,-5e-05,-9e-05,-6e-05,8e-05,-3e-05,5e-05,0,4,12
17772,-2e-05,-5e-05,-9e-05,-6e-05,8e-05,-3e-05,5e-05,0,4,12
17773,-2e-05,-5e-05,-9e-05,-6e-05,8e-05,-3e-05,5e-05,0,4,12
17774,-2e-05,-5e-05,-9e-05,-6e-05,8e-05,-3e-05,5e-05,0,4,12
17775,-2e-05,-5e-05,-9e-05,-6e-05,8e-05,-3e-05,5e-05,0,4,12
17776,-2e-05,-5e-05,-9e-05,-6e-05,8e-05,-3e-05,5e-05,0,4,12
17777,-2e-05,-5e-05,-9e-05,-6e-05,8e-05,-3e-05,5e-05,0,4,12
17778,-2e-05,-5e-05,-9e-05,-6e-05,8e-05,-3e-05,5e-05,0,4,12
17779,-2e-05,-5e-05,-9e-05,-6e-05,8e-05,-3e-05,5e-05,0,4,12
17780,-2e-05,-5e-05,-9e-05,-6e-05,8e-05,-3e-05,5e-05,0,4,12
17781,-2e-05,-5e-05,-9e-05,-6e-05,8e-05,-3e-05,5e-05,0,4,12
17782,-2e-05,-5e-05,-9e-05,-6e-05,8e-05,-3e-05,5e-05,0,4,12
17783,-2e-05,-5e-05,-9e-05,-6e-05,8e-05,-3e-05,5e-05,0,4,12
17784,-9e-05,-7e-05,-0.00014,-0.00017,0.00039,-0.00041,-0.00025,-0.0001,4,12
17785,-2e-05,4e-05,0.0001,0.0001,-0.00048,-0.00018,5e-05,-3e-05,4,12
17787,-2e-05,4e-05,0.0001,0.0001,-0.00048,-0.00018,5e-05,-3e-05,4,12
17789,-2e-05,4e-05,0.0001,0.0001,-0.00048,-0.00018,5e-05,-3e-05,4,12
17790,-2e-05,4e-05,0.0001,0.0001,-0.00048,-0.00018,5e-05,-3e-05,4,12
17791,-2e-05,4e-05,0.0001,0.0001,-0.00048,-0.00018,5e-05,-3e-05,4,12
17792,-2e-05,4e-05,0.0001,0.0001,-0.00048,-0.00018,5e-05,-3e-05,4,12
17793,-2e-05,4e-05,0.0001,0.0001,-0.00048,-0.00018,5e-05,-3e-05,4,12
17794,-2e-05,4e-05,0.0001,0.0001,-0.00048,-0.00018,5e-05,-3e-05,4,12
17795,-2e-05,4e-05,0.0001,0.0001,-0.00048,-0.00018,5e-05,-3e-05,4,12
17796,-2e-05,4e-05,0.0001,0.0001,-0.00048,-0.00018,5e-05,-3e-05,4,12
17797,-2e-05,4e-05,0.0001,0.0001,-0.00048,-0.00018,5e-05,-3e-05,4,12
17798,-2e-05,4e-05,0.0001,0.0001,-0.00048,-0.00018,5e-05,-3e-05,4,12
17799,2e-05,2e-05,5e-05,-0.00011,0.00044,0.00051,-1e-05,-3e-05,4,12
17800,1e-05,0,2e-05,6e-05,0.00035,0.00027,-1e-05,0.0001,4,12
17801,1e-05,0,2e-05,6e-05,0.00035,0.00027,-1e-05,0.0001,4,12
17802,1e-05,0,2e-05,6e-05,0.00035,0.00027,-1e-05,0.0001,4,12
17803,1e-05,0,2e-05,6e-05,0.00035,0.00027,-1e-05,0.0001,4,12
17804,1e-05,0,2e-05,6e-05,0.00035,0.00027,-1e-05,0.0001,4,12
17805,1e-05,0,2e-05,6e-05,0.00035,0.00027,-1e-05,0.0001,4,12
17806,1e-05,0,2e-05,6e-05,0.00035,0.00027,-1e-05,0.0001,4,12
17807,1e-05,0,2e-05,6e-05,0.00035,0.00027,-1e-05,0.0001,4,12
17808,1e-05,0,2e-05,6e-05,0.00035,0.00027,-1e-05,0.0001,4,12
17809,1e-05,0,2e-05,6e-05,0.00035,0.00027,-1e-05,0.0001,4,12
17810,1e-05,0,2e-05,6e-05,0.00035,0.00027,-1e-05,0.0001,4,12
17811,1e-05,0,2e-05,6e-05,0.00035,0.00027,-1e-05,0.0001,4,12
17812,1e-05,0,2e-05,6e-05,0.00035,0.00027,-1e-05,0.0001,4,12
17813,1e-05,0,2e-05,6e-05,0.00035,0.00027,-1e-05,0.0001,4,12
17814,1e-05,0,2e-05,6e-05,0.00035,0.00027,-1e-05,0.0001,4,12
17815,1e-05,0,2e-05,6e-05,0.00035,0.00027,-1e-05,0.0001,4,12
17816,1e-05,0,2e-05,6e-05,0.00035,0.00027,-1e-05,0.0001,4,12
17817,1e-05,0,2e-05,6e-05,0.00035,0.00027,-1e-05,0.0001,4,12
17818,1e-05,0,2e-05,6e-05,0.00035,0.00027,-1e-05,0.0001,4,12
17819,1e-05,0,2e-05,6e-05,0.00035,0.00027,-1e-05,0.0001,4,12
17820,1e-05,0,2e-05,6e-05,0.00035,0.00027,-1e-05,0.0001,4,12
17821,-7e-05,-6e-05,-2e-05,7e-05,5e-05,-0.00013,-0.00016,-0.00014,4,12
17822,1e-05,5e-05,9e-05,-4e-05,-0.00026,0.00028,9e-05,-2e-05,4,12
17823,1e-05,5e-05,9e-05,-4e-05,-0.00026,0.00028,9e-05,-2e-05,4,12
17824,1e-05,5e-05,9e-05,-4e-05,-0.00026,0.00028,9e-05,-2e-05,4,12
17825,1e-05,5e-05,9e-05,-4e-05,-0.00026,0.00028,9e-05,-2e-05,4,12
17826,1e-05,5e-05,9e-05,-4e-05,-0.00026,0.00028,9e-05,-2e-05,4,12
17827,1e-05,5e-05,9e-05,-4e-05,-0.00026,0.00028,9e-05,-2e-05,4,12
17828,1e-05,5e-05,9e-05,-4e-05,-0.00026,0.00028,9e-05,-2e-05,4,12
17829,1e-05,5e-05,9e-05,-4e-05,-0.00026,0.00028,9e-05,-2e-05,4,12
17830,1e-05,5e-05,9e-05,-4e-05,-0.00026,0.00028,9e-05,-2e-05,4,12
17831,1e-05,5e-05,9e-05,-4e-05,-0.00026,0.00028,9e-05,-2e-05,4,12
17832,1e-05,5e-05,9e-05,-4e-05,-0.00026,0.00028,9e-05,-2e-05,4,12
17833,1e-05,5e-05,9e-05,-4e-05,-0.00026,0.00028,9e-05,-2e-05,4,12
17834,1e-05,5e-05,9e-05,-4e-05,-0.00026,0.00028,9e-05,-2e-05,4,12
17835,1e-05,5e-05,9e-05,-4e-05,-0.00026,0.00028,9e-05,-2e-05,4,12
17837,1e-05,5e-05,9e-05,-4e-05,-0.00026,0.00028,9e-05,-2e-05,4,12
17839,1e-05,5e-05,9e-05,-4e-05,-0.00026,0.00028,9e-05,-2e-05,4,12
17840,1e-05,5e-05,9e-05,-4e-05,-0.00026,0.00028,9e-05,-2e-05,4,12
17841,1e-05,5e-05,9e-05,-4e-05,-0.00026,0.00028,9e-05,-2e-05,4,12
17842,1e-05,5e-05,9e-05,-4e-05,-0.00026,0.00028,9e-05,-2e-05,4,12
17843,1e-05,5e-05,9e-05,-4e-05,-0.00026,0.00028,9e-05,-2e-05,4,12
17844,9e-05,2e-05,-8e-05,-0.00057,-0.00015,0.00012,0.00015,0.00011,4,12
17845,4e-05,-1e-05,-4e-05,-0.00017,-0.00075,-0.0003,1e-05,8e-05,4,12
17846,4e-05,-1e-05,-4e-05,-0.00017,-0.00075,-0.0003,1e-05,8e-05,4,12
17847,4e-05,-1e-05,-4e-05,-0.00017,-0.00075,-0.0003,1e-05,8e-05,4,12
17848,4e-05,-1e-05,-4e-05,-0.00017,-0.00075,-0.0003,1e-05,8e-05,4,12
17849,4e-05,-1e-05,-4e-05,-0.00017,-0.00075,-0.0003,1e-05,8e-05,4,12
17850,4e-05,-1e-05,-4e-05,-0.00017,-0.00075,-0.0003,1e-05,8e-05,4,12
17851,4e-05,-1e-05,-4e-05,-0.00017,-0.00075,-0.0003,1e-05,8e-05,4,12
17852,4e-05,-1e-05,-4e-05,-0.00017,-0.00075,-0.0003,1e-05,8e-05,4,12
17853,4e-05,-1e-05,-4e-05,-0.00017,-0.00075,-0.0003,1e-05,8e-05,4,12
17854,4e-05,-1e-05,-4e-05,-0.00017,-0.00075,-0.0003,1e-05,8e-05,4,12
17855,4e-05,-1e-05,-4e-05,-0.00017,-0.00075,-0.0003,1e-05,8e-05,4,12
17856,4e-05,-1e-05,-4e-05,-0.00017,-0.00075,-0.0003,1e-05,8e-05,4,12
17857,4e-05,-1e-05,-4e-05,-0.00017,-0.00075,-0.0003,1e-05,8e-05,4,12
17858,4e-05,-1e-05,-4e-05,-0.00017,-0.00075,-0.0003,1e-05,8e-05,4,12
17859,-8e-05,-0.00011,-7e-05,7e-05,-0.00017,-0.00056,-0.00039,-0.00018,4,12
17860,-8e-05,-0.00011,-7e-05,7e-05,-0.00017,-0.00056,-0.00039,-0.00018,4,12
17861,-8e-05,-0.00011,-7e-05,7e-05,-0.00017,-0.00056,-0.00039,-0.00018,4,12
17862,-8e-05,-0.00011,-7e-05,7e-05,-0.00017,-0.00056,-0.00039,-0.00018,4,12
17863,-8e-05,-0.00011,-7e-05,7e-05,-0.00017,-0.00056,-0.00039,-0.00018,4,12
17864,-8e-05,-0.00011,-7e-05,7e-05,-0.00017,-0.00056,-0.00039,-0.00018,4,12
17865,-8e-05,-0.00011,-7e-05,7e-05,-0.00017,-0.00056,-0.00039,-0.00018,4,12
17866,-8e-05,-0.00011,-7e-05,7e-05,-0.00017,-0.00056,-0.00039,-0.00018,4,12
17867,-8e-05,-0.00011,-7e-05,7e-05,-0.00017,-0.00056,-0.00039,-0.00018,4,12
17868,-8e-05,-0.00011,-7e-05,7e-05,-0.00017,-0.00056,-0.00039,-0.00018,4,12
17869,-8e-05,-0.00011,-7e-05,7e-05,-0.00017,-0.00056,-0.00039,-0.00018,4,12
17870,-8e-05,-0.00011,-7e-05,7e-05,-0.00017,-0.00056,-0.00039,-0.00018,4,12
17871,-8e-05,-0.00011,-7e-05,7e-05,-0.00017,-0.00056,-0.00039,-0.00018,4,12
17872,-8e-05,-0.00011,-7e-05,7e-05,-0.00017,-0.00056,-0.00039,-0.00018,4,12
17873,-8e-05,-0.00011,-7e-05,7e-05,-0.00017,-0.00056,-0.00039,-0.00018,4,12
17874,-8e-05,-0.00011,-7e-05,7e-05,-0.00017,-0.00056,-0.00039,-0.00018,4,12
17875,-8e-05,-0.00011,-7e-05,7e-05,-0.00017,-0.00056,-0.00039,-0.00018,4,12
17876,-8e-05,-0.00011,-7e-05,7e-05,-0.00017,-0.00056,-0.00039,-0.00018,4,12
17877,-8e-05,-0.00011,-7e-05,7e-05,-0.00017,-0.00056,-0.00039,-0.00018,4,12
17878,-8e-05,-0.00011,-7e-05,7e-05,-0.00017,-0.00056,-0.00039,-0.00018,4,12
17879,-8e-05,-0.00011,-7e-05,7e-05,-0.00017,-0.00056,-0.00039,-0.00018,4,12
17880,-8e-05,-0.00011,-7e-05,7e-05,-0.00017,-0.00056,-0.00039,-0.00018,4,12
17881,-8e-05,-0.00011,-7e-05,7e-05,-0.00017,-0.00056,-0.00039,-0.00018,4,12
17882,0,1e-05,-6e-05,-0.00019,-0.0003,0.00012,0.0001,6e-05,4,12
17883,-2e-05,-4e-05,4e-05,0.00018,-0.00038,-0.00018,-0.00013,-5e-05,4,12
17884,-2e-05,-4e-05,4e-05,0.00018,-0.00038,-0.00018,-0.00013,-5e-05,4,12
17885,-2e-05,-4e-05,4e-05,0.00018,-0.00038,-0.00018,-0.00013,-5e-05,4,12
17888,-2e-05,-4e-05,4e-05,0.00018,-0.00038,-0.00018,-0.00013,-5e-05,4,12
17889,-2e-05,-4e-05,4e-05,0.00018,-0.00038,-0.00018,-0.00013,-5e-05,4,12
17890,-2e-05,-4e-05,4e-05,0.00018,-0.00038,-0.00018,-0.00013,-5e-05,4,12
17891,-2e-05,-4e-05,4e-05,0.00018,-0.00038,-0.00018,-0.00013,-5e-05,4,12
17892,-2e-05,-4e-05,4e-05,0.00018,-0.00038,-0.00018,-0.00013,-5e-05,4,12
17893,-2e-05,-4e-05,4e-05,0.00018,-0.00038,-0.00018,-0.00013,-5e-05,4,12
17894,-2e-05,-4e-05,4e-05,0.00018,-0.00038,-0.00018,-0.00013,-5e-05,4,12
17895,-2e-05,-4e-05,4e-05,0.00018,-0.00038,-0.00018,-0.00013,-5e-05,4,12
17896,-2e-05,-4e-05,4e-05,0.00018,-0.00038,-0.00018,-0.00013,-5e-05,4,12
17897,-2e-05,-4e-05,4e-05,0.00018,-0.00038,-0.00018,-0.00013,-5e-05,4,12
17898,-2e-05,-4e-05,4e-05,0.00018,-0.00038,-0.00018,-0.00013,-5e-05,4,12
17899,-2e-05,-4e-05,4e-05,0.00018,-0.00038,-0.00018,-0.00013,-5e-05,4,12
17900,-2e-05,-4e-05,4e-05,0.00018,-0.00038,-0.00018,-0.00013,-5e-05,4,12
17901,-2e-05,-4e-05,4e-05,0.00018,-0.00038,-0.00018,-0.00013,-5e-05,4,12
17902,-2e-05,-4e-05,4e-05,0.00018,-0.00038,-0.00018,-0.00013,-5e-05,4,12
17903,-2e-05,-4e-05,4e-05,0.00018,-0.00038,-0.00018,-0.00013,-5e-05,4,12
17904,-2e-05,-4e-05,4e-05,0.00018,-0.00038,-0.00018,-0.00013,-5e-05,4,12
17905,2e-05,2e-05,0.00011,0.00052,0.00048,2e-05,-9e-05,-2e-05,4,12
17906,0,4e-05,-3e-05,-0.00033,-2e-05,-0.00027,5e-05,2e-05,4,12
17907,0,4e-05,-3e-05,-0.00033,-2e-05,-0.00027,5e-05,2e-05,4,12
17908,0,4e-05,-3e-05,-0.00033,-2e-05,-0.00027,5e-05,2e-05,4,12
17909,0,4e-05,-3e-05,-0.00033,-2e-05,-0.00027,5e-05,2e-05,4,12
17910,0,4e-05,-3e-05,-0.00033,-2e-05,-0.00027,5e-05,2e-05,4,12
17911,0,4e-05,-3e-05,-0.00033,-2e-05,-0.00027,5e-05,2e-05,4,12
17912,0,4e-05,-3e-05,-0.00033,-2e-05,-0.00027,5e-05,2e-05,4,12
17913,0,4e-05,-3e-05,-0.00033,-2e-05,-0.00027,5e-05,2e-05,4,12
17914,0,4e-05,-3e-05,-0.00033,-2e-05,-0.00027,5e-05,2e-05,4,12
17915,0,4e-05,-3e-05,-0.00033,-2e-05,-0.00027,5e-05,2e-05,4,12
17916,0,4e-05,-3e-05,-0.00033,-2e-05,-0.00027,5e-05,2e-05,4,12
17917,0,4e-05,-3e-05,-0.00033,-2e-05,-0.00027,5e-05,2e-05,4,12
17918,0,4e-05,-3e-05,-0.00033,-2e-05,-0.00027,5e-05,2e-05,4,12
17919,0,2e-05,0.00013,0.00019,6e-05,0.00037,6e-05,1e-05,4,12
17920,3e-05,5e-05,5e-05,3e-05,0.00034,0.00035,0.00016,6e-05,4,12
17921,3e-05,5e-05,5e-05,3e-05,0.00034,0.00035,0.00016,6e-05,4,12
17922,3e-05,5e-05,5e-05,3e-05,0.00034,0.00035,0.00016,6e-05,4,12
17923,3e-05,5e-05,5e-05,3e-05,0.00034,0.00035,0.00016,6e-05,4,12
17924,3e-05,5e-05,5e-05,3e-05,0.00034,0.00035,0.00016,6e-05,4,12
17925,3e-05,5e-05,5e-05,3e-05,0.00034,0.00035,0.00016,6e-05,4,12
17926,3e-05,5e-05,5e-05,3e-05,0.00034,0.00035,0.00016,6e-05,4,12
17927,3e-05,5e-05,5e-05,3e-05,0.00034,0.00035,0.00016,6e-05,4,12
17928,3e-05,5e-05,5e-05,3e-05,0.00034,0.00035,0.00016,6e-05,4,12
17929,3e-05,5e-05,5e-05,3e-05,0.00034,0.00035,0.00016,6e-05,4,12
17930,3e-05,5e-05,5e-05,3e-05,0.00034,0.00035,0.00016,6e-05,4,12
17931,3e-05,5e-05,5e-05,3e-05,0.00034,0.00035,0.00016,6e-05,4,12
17932,3e-05,5e-05,5e-05,3e-05,0.00034,0.00035,0.00016,6e-05,4,12
17933,3e-05,5e-05,5e-05,3e-05,0.00034,0.00035,0.00016,6e-05,4,12
17934,3e-05,5e-05,5e-05,3e-05,0.00034,0.00035,0.00016,6e-05,4,12
17935,3e-05,5e-05,5e-05,3e-05,0.00034,0.00035,0.00016,6e-05,4,12
17937,3e-05,5e-05,5e-05,3e-05,0.00034,0.00035,0.00016,6e-05,4,12
17939,3e-05,5e-05,5e-05,3e-05,0.00034,0.00035,0.00016,6e-05,4,12
17940,3e-05,5e-05,5e-05,3e-05,0.00034,0.00035,0.00016,6e-05,4,12
17941,3e-05,5e-05,5e-05,3e-05,0.00034,0.00035,0.00016,6e-05,4,12
17942,-2e-05,1e-05,-1e-05,4e-05,0.00043,0.00017,0.00019,0,4,12
17943,-2e-05,-5e-05,-9e-05,-0.00016,-0.00061,0.00023,-2e-05,0,4,12
17944,-2e-05,-5e-05,-9e-05,-0.00016,-0.00061,0.00023,-2e-05,0,4,12
17945,-2e-05,-5e-05,-9e-05,-0.00016,-0.00061,0.00023,-2e-05,0,4,12
17946,-2e-05,-5e-05,-9e-05,-0.00016,-0.00061,0.00023,-2e-05,0,4,12
17947,-2e-05,-5e-05,-9e-05,-0.00016,-0.00061,0.00023,-2e-05,0,4,12
17948,-2e-05,-5e-05,-9e-05,-0.00016,-0.00061,0.00023,-2e-05,0,4,12
17949,-2e-05,-5e-05,-9e-05,-0.00016,-0.00061,0.00023,-2e-05,0,4,12
17950,-2e-05,-5e-05,-9e-05,-0.00016,-0.00061,0.00023,-2e-05,0,4,12
17951,-2e-05,-5e-05,-9e-05,-0.00016,-0.00061,0.00023,-2e-05,0,4,12
17952,-2e-05,-5e-05,-9e-05,-0.00016,-0.00061,0.00023,-2e-05,0,4,12
17953,-2e-05,-5e-05,-9e-05,-0.00016,-0.00061,0.00023,-2e-05,0,4,12
17954,-2e-05,-5e-05,-9e-05,-0.00016,-0.00061,0.00023,-2e-05,0,4,12
17955,-2e-05,-5e-05,-9e-05,-0.00016,-0.00061,0.00023,-2e-05,0,4,12
17956,-2e-05,-5e-05,-9e-05,-0.00016,-0.00061,0.00023,-2e-05,0,4,12
17957,-2e-05,-5e-05,-9e-05,-0.00016,-0.00061,0.00023,-2e-05,0,4,12
17958,-2e-05,-5e-05,-9e-05,-0.00016,-0.00061,0.00023,-2e-05,0,4,12
17959,-2e-05,-5e-05,-9e-05,-0.00016,-0.00061,0.00023,-2e-05,0,4,12
17960,-2e-05,-5e-05,-9e-05,-0.00016,-0.00061,0.00023,-2e-05,0,4,12
17961,-2e-05,-5e-05,-9e-05,-0.00016,-0.00061,0.00023,-2e-05,0,4,12
17962,-2e-05,-5e-05,-9e-05,-0.00016,-0.00061,0.00023,-2e-05,0,4,12
17963,-2e-05,-5e-05,-9e-05,-0.00016,-0.00061,0.00023,-2e-05,0,4,12
17964,9e-05,6e-05,5e-05,0.0001,-0.00029,0.00089,0.00025,0.0001,4,12
17965,-4e-05,-2e-05,3e-05,0.00024,-9e-05,-0.0004,-5e-05,2e-05,4,12
17966,-4e-05,-2e-05,3e-05,0.00024,-9e-05,-0.0004,-5e-05,2e-05,4,12
17967,-4e-05,-2e-05,3e-05,0.00024,-9e-05,-0.0004,-5e-05,2e-05,4,12
17968,-4e-05,-2e-05,3e-05,0.00024,-9e-05,-0.0004,-5e-05,2e-05,4,12
17969,-4e-05,-2e-05,3e-05,0.00024,-9e-05,-0.0004,-5e-05,2e-05,4,12
17970,-4e-05,-2e-05,3e-05,0.00024,-9e-05,-0.0004,-5e-05,2e-05,4,12
17971,-4e-05,-2e-05,3e-05,0.00024,-9e-05,-0.0004,-5e-05,2e-05,4,12
17972,-4e-05,-2e-05,3e-05,0.00024,-9e-05,-0.0004,-5e-05,2e-05,4,12
17973,-4e-05,-2e-05,3e-05,0.00024,-9e-05,-0.0004,-5e-05,2e-05,4,12
17974,-4e-05,-2e-05,3e-05,0.00024,-9e-05,-0.0004,-5e-05,2e-05,4,12
17975,-4e-05,-2e-05,3e-05,0.00024,-9e-05,-0.0004,-5e-05,2e-05,4,12
17976,-4e-05,-2e-05,3e-05,0.00024,-9e-05,-0.0004,-5e-05,2e-05,4,12
17977,-4e-05,-2e-05,3e-05,0.00024,-9e-05,-0.0004,-5e-05,2e-05,4,12
17978,-4e-05,-2e-05,3e-05,0.00024,-9e-05,-0.0004,-5e-05,2e-05,4,12
17979,-1e-05,3e-05,-3e-05,-0.00012,-0.00013,-0.0001,-0.00013,-7e-05,4,12
17980,-1e-05,3e-05,-3e-05,-0.00012,-0.00013,-0.0001,-0.00013,-7e-05,4,12
17981,-1e-05,3e-05,-3e-05,-0.00012,-0.00013,-0.0001,-0.00013,-7e-05,4,12
17982,-1e-05,3e-05,-3e-05,-0.00012,-0.00013,-0.0001,-0.00013,-7e-05,4,12
17983,-1e-05,3e-05,-3e-05,-0.00012,-0.00013,-0.0001,-0.00013,-7e-05,4,12
17984,-1e-05,3e-05,-3e-05,-0.00012,-0.00013,-0.0001,-0.00013,-7e-05,4,12
17985,-1e-05,3e-05,-3e-05,-0.00012,-0.00013,-0.0001,-0.00013,-7e-05,4,12
17986,-1e-05,3e-05,-3e-05,-0.00012,-0.00013,-0.0001,-0.00013,-7e-05,4,12
17988,-1e-05,3e-05,-3e-05,-0.00012,-0.00013,-0.0001,-0.00013,-7e-05,4,12
17989,-1e-05,3e-05,-3e-05,-0.00012,-0.00013,-0.0001,-0.00013,-7e-05,4,12
17990,-1e-05,3e-05,-3e-05,-0.00012,-0.00013,-0.0001,-0.00013,-7e-05,4,12
17991,-1e-05,3e-05,-3e-05,-0.00012,-0.00013,-0.0001,-0.00013,-7e-05,4,12
17992,-1e-05,3e-05,-3e-05,-0.00012,-0.00013,-0.0001,-0.00013,-7e-05,4,12
17993,-1e-05,3e-05,-3e-05,-0.00012,-0.00013,-0.0001,-0.00013,-7e-05,4,12
17994,-1e-05,3e-05,-3e-05,-0.00012,-0.00013,-0.0001,-0.00013,-7e-05,4,12
17995,-1e-05,3e-05,-3e-05,-0.00012,-0.00013,-0.0001,-0.00013,-7e-05,4,12
17996,-1e-05,3e-05,-3e-05,-0.00012,-0.00013,-0.0001,-0.00013,-7e-05,4,12
17997,-1e-05,3e-05,-3e-05,-0.00012,-0.00013,-0.0001,-0.00013,-7e-05,4,12
17998,-1e-05,3e-05,-3e-05,-0.00012,-0.00013,-0.0001,-0.00013,-7e-05,4,12
17999,-1e-05,3e-05,-3e-05,-0.00012,-0.00013,-0.0001,-0.00013,-7e-05,4,12
18000,-1e-05,3e-05,-3e-05,-0.00012,-0.00013,-0.0001,-0.00013,-7e-05,4,12
18001,-1e-05,3e-05,-3e-05,-0.00012,-0.00013,-0.0001,-0.00013,-7e-05,4,12
18002,-4e-05,-5e-05,1e-05,-3e-05,0.00012,-6e-05,-3e-05,2e-05,4,12
18003,2e-05,1e-05,0,0.00011,0.0004,0.00028,0.00014,1e-05,4,12
18004,2e-05,1e-05,0,0.00011,0.0004,0.00028,0.00014,1e-05,4,12
18005,2e-05,1e-05,0,0.00011,0.0004,0.00028,0.00014,1e-05,4,12
18006,2e-05,1e-05,0,0.00011,0.0004,0.00028,0.00014,1e-05,4,12
18007,2e-05,1e-05,0,0.00011,0.0004,0.00028,0.00014,1e-05,4,12
18008,2e-05,1e-05,0,0.00011,0.0004,0.00028,0.00014,1e-05,4,12
18009,2e-05,1e-05,0,0.00011,0.0004,0.00028,0.00014,1e-05,4,12
18010,2e-05,1e-05,0,0.00011,0.0004,0.00028,0.00014,1e-05,4,12
18011,2e-05,1e-05,0,0.00011,0.0004,0.00028,0.00014,1e-05,4,12
18012,2e-05,1e-05,0,0.00011,0.0004,0.00028,0.00014,1e-05,4,12
18013,2e-05,1e-05,0,0.00011,0.0004,0.00028,0.00014,1e-05,4,12
18014,2e-05,1e-05,0,0.00011,0.0004,0.00028,0.00014,1e-05,4,12
18015,2e-05,1e-05,0,0.00011,0.0004,0.00028,0.00014,1e-05,4,12
18016,2e-05,1e-05,0,0.00011,0.0004,0.00028,0.00014,1e-05,4,12
18017,2e-05,1e-05,0,0.00011,0.0004,0.00028,0.00014,1e-05,4,12
18018,2e-05,1e-05,0,0.00011,0.0004,0.00028,0.00014,1e-05,4,12
18019,2e-05,1e-05,0,0.00011,0.0004,0.00028,0.00014,1e-05,4,12
18020,2e-05,1e-05,0,0.00011,0.0004,0.00028,0.00014,1e-05,4,12
18021,2e-05,1e-05,0,0.00011,0.0004,0.00028,0.00014,1e-05,4,12
18022,2e-05,1e-05,0,0.00011,0.0004,0.00028,0.00014,1e-05,4,12
18023,2e-05,1e-05,0,0.00011,0.0004,0.00028,0.00014,1e-05,4,12
18024,-5e-05,-1e-05,-3e-05,-6e-05,0.00014,-0.00014,1e-05,-8e-05,4,12
18025,0,-2e-05,-7e-05,0,0.00023,-0.00022,3e-05,1e-05,4,12
18026,0,-2e-05,-7e-05,0,0.00023,-0.00022,3e-05,1e-05,4,12
18027,0,-2e-05,-7e-05,0,0.00023,-0.00022,3e-05,1e-05,4,12
18028,0,-2e-05,-7e-05,0,0.00023,-0.00022,3e-05,1e-05,4,12
18029,0,-2e-05,-7e-05,0,0.00023,-0.00022,3e-05,1e-05,4,12
18030,0,-2e-05,-7e-05,0,0.00023,-0.00022,3e-05,1e-05,4,12
18031,0,-2e-05,-7e-05,0,0.00023,-0.00022,3e-05,1e-05,4,12
18032,0,-2e-05,-7e-05,0,0.00023,-0.00022,3e-05,1e-05,4,12
18033,0,-2e-05,-7e-05,0,0.00023,-0.00022,3e-05,1e-05,4,12
18034,0,-2e-05,-7e-05,0,0.00023,-0.00022,3e-05,1e-05,4,12
18035,0,-2e-05,-7e-05,0,0.00023,-0.00022,3e-05,1e-05,4,12
18036,0,-2e-05,-7e-05,0,0.00023,-0.00022,3e-05,1e-05,4,12
18038,0,-2e-05,-7e-05,0,0.00023,-0.00022,3e-05,1e-05,4,12
18039,-4e-05,1e-05,-1e-05,-2e-05,-0.00058,0.0001,2e-05,2e-05,4,12
18040,7e-05,6e-05,0.00018,0.00047,0.00093,0.00095,0.00034,9e-05,4,12
18041,7e-05,6e-05,0.00018,0.00047,0.00093,0.00095,0.00034,9e-05,4,12
18042,7e-05,6e-05,0.00018,0.00047,0.00093,0.00095,0.00034,9e-05,4,12
18043,7e-05,6e-05,0.00018,0.00047,0.00093,0.00095,0.00034,9e-05,4,12
18044,7e-05,6e-05,0.00018,0.00047,0.00093,0.00095,0.00034,9e-05,4,12
18045,7e-05,6e-05,0.00018,0.00047,0.00093,0.00095,0.00034,9e-05,4,12
18046,7e-05,6e-05,0.00018,0.00047,0.00093,0.00095,0.00034,9e-05,4,12
18047,7e-05,6e-05,0.00018,0.00047,0.00093,0.00095,0.00034,9e-05,4,12
18048,7e-05,6e-05,0.00018,0.00047,0.00093,0.00095,0.00034,9e-05,4,12
18049,7e-05,6e-05,0.00018,0.00047,0.00093,0.00095,0.00034,9e-05,4,12
18050,7e-05,6e-05,0.00018,0.00047,0.00093,0.00095,0.00034,9e-05,4,12
18051,7e-05,6e-05,0.00018,0.00047,0.00093,0.00095,0.00034,9e-05,4,12
18052,7e-05,6e-05,0.00018,0.00047,0.00093,0.00095,0.00034,9e-05,4,12
18053,7e-05,6e-05,0.00018,0.00047,0.00093,0.00095,0.00034,9e-05,4,12
18054,7e-05,6e-05,0.00018,0.00047,0.00093,0.00095,0.00034,9e-05,4,12
18055,7e-05,6e-05,0.00018,0.00047,0.00093,0.00095,0.00034,9e-05,4,12
18056,7e-05,6e-05,0.00018,0.00047,0.00093,0.00095,0.00034,9e-05,4,12
18057,7e-05,6e-05,0.00018,0.00047,0.00093,0.00095,0.00034,9e-05,4,12
18058,7e-05,6e-05,0.00018,0.00047,0.00093,0.00095,0.00034,9e-05,4,12
18059,7e-05,6e-05,0.00018,0.00047,0.00093,0.00095,0.00034,9e-05,4,12
18060,7e-05,6e-05,0.00018,0.00047,0.00093,0.00095,0.00034,9e-05,4,12
18061,7e-05,6e-05,0.00018,0.00047,0.00093,0.00095,0.00034,9e-05,4,12
18062,-3e-05,-5e-05,-9e-05,-9e-05,0.00019,-0.00029,-0.0001,-2e-05,4,12
18063,-4e-05,-7e-05,-0.00014,-0.00049,4e-05,0.00029,7e-05,-2e-05,4,12
18064,-4e-05,-7e-05,-0.00014,-0.00049,4e-05,0.00029,7e-05,-2e-05,4,12
18065,-4e-05,-7e-05,-0.00014,-0.00049,4e-05,0.00029,7e-05,-2e-05,4,12
18066,-4e-05,-7e-05,-0.00014,-0.00049,4e-05,0.00029,7e-05,-2e-05,4,12
18067,-4e-05,-7e-05,-0.00014,-0.00049,4e-05,0.00029,7e-05,-2e-05,4,12
18068,-4e-05,-7e-05,-0.00014,-0.00049,4e-05,0.00029,7e-05,-2e-05,4,12
18069,-4e-05,-7e-05,-0.00014,-0.00049,4e-05,0.00029,7e-05,-2e-05,4,12
18070,-4e-05,-7e-05,-0.00014,-0.00049,4e-05,0.00029,7e-05,-2e-05,4,12
18071,-4e-05,-7e-05,-0.00014,-0.00049,4e-05,0.00029,7e-05,-2e-05,4,12
18072,-4e-05,-7e-05,-0.00014,-0.00049,4e-05,0.00029,7e-05,-2e-05,4,12
18073,-4e-05,-7e-05,-0.00014,-0.00049,4e-05,0.00029,7e-05,-2e-05,4,12
18074,-4e-05,-7e-05,-0.00014,-0.00049,4e-05,0.00029,7e-05,-2e-05,4,12
18075,-4e-05,-7e-05,-0.00014,-0.00049,4e-05,0.00029,7e-05,-2e-05,4,12
18076,-4e-05,-7e-05,-0.00014,-0.00049,4e-05,0.00029,7e-05,-2e-05,4,12
18077,-4e-05,-7e-05,-0.00014,-0.00049,4e-05,0.00029,7e-05,-2e-05,4,12
18078,-4e-05,-7e-05,-0.00014,-0.00049,4e-05,0.00029,7e-05,-2e-05,4,12
18079,-4e-05,-7e-05,-0.00014,-0.00049,4e-05,0.00029,7e-05,-2e-05,4,12
18080,-4e-05,-7e-05,-0.00014,-0.00049,4e-05,0.00029,7e-05,-2e-05,4,12
18081,-4e-05,-7e-05,-0.00014,-0.00049,4e-05,0.00029,7e-05,-2e-05,4,12
18082,-4e-05,-7e-05,-0.00014,-0.00049,4e-05,0.00029,7e-05,-2e-05,4,12
18083,-4e-05,-7e-05,-0.00014,-0.00049,4e-05,0.00029,7e-05,-2e-05,4,12
18084,-2e-05,1e-05,-1e-05,7e-05,0.0004,0.00018,3e-05,-8e-05,4,12
18085,5e-05,3e-05,0.00012,0.00021,0.00049,0.00056,9e-05,3e-05,4,12
18086,5e-05,3e-05,0.00012,0.00021,0.00049,0.00056,9e-05,3e-05,4,12
18088,5e-05,3e-05,0.00012,0.00021,0.00049,0.00056,9e-05,3e-05,4,12
18089,5e-05,3e-05,0.00012,0.00021,0.00049,0.00056,9e-05,3e-05,4,12
18090,5e-05,3e-05,0.00012,0.00021,0.00049,0.00056,9e-05,3e-05,4,12
18091,5e-05,3e-05,0.00012,0.00021,0.00049,0.00056,9e-05,3e-05,4,12
18092,5e-05,3e-05,0.00012,0.00021,0.00049,0.00056,9e-05,3e-05,4,12
18093,5e-05,3e-05,0.00012,0.00021,0.00049,0.00056,9e-05,3e-05,4,12
18094,5e-05,3e-05,0.00012,0.00021,0.00049,0.00056,9e-05,3e-05,4,12
18095,5e-05,3e-05,0.00012,0.00021,0.00049,0.00056,9e-05,3e-05,4,12
18096,5e-05,3e-05,0.00012,0.00021,0.00049,0.00056,9e-05,3e-05,4,12
18097,5e-05,3e-05,0.00012,0.00021,0.00049,0.00056,9e-05,3e-05,4,12
18098,5e-05,3e-05,0.00012,0.00021,0.00049,0.00056,9e-05,3e-05,4,12
18099,-6e-05,-4e-05,-0.00013,-0.0002,-0.00087,-0.00057,-0.00016,-6e-05,4,12
18100,-6e-05,-4e-05,-0.00013,-0.0002,-0.00087,-0.00057,-0.00016,-6e-05,4,12
18101,-6e-05,-4e-05,-0.00013,-0.0002,-0.00087,-0.00057,-0.00016,-6e-05,4,12
18102,-6e-05,-4e-05,-0.00013,-0.0002,-0.00087,-0.00057,-0.00016,-6e-05,4,12
18103,-6e-05,-4e-05,-0.00013,-0.0002,-0.00087,-0.00057,-0.00016,-6e-05,4,12
18104,-6e-05,-4e-05,-0.00013,-0.0002,-0.00087,-0.00057,-0.00016,-6e-05,4,12
18105,-6e-05,-4e-05,-0.00013,-0.0002,-0.00087,-0.00057,-0.00016,-6e-05,4,12
18106,-6e-05,-4e-05,-0.00013,-0.0002,-0.00087,-0.00057,-0.00016,-6e-05,4,12
18107,-6e-05,-4e-05,-0.00013,-0.0002,-0.00087,-0.00057,-0.00016,-6e-05,4,12
18108,-6e-05,-4e-05,-0.00013,-0.0002,-0.00087,-0.00057,-0.00016,-6e-05,4,12
18109,-6e-05,-4e-05,-0.00013,-0.0002,-0.00087,-0.00057,-0.00016,-6e-05,4,12
18110,-6e-05,-4e-05,-0.00013,-0.0002,-0.00087,-0.00057,-0.00016,-6e-05,4,12
18111,-6e-05,-4e-05,-0.00013,-0.0002,-0.00087,-0.00057,-0.00016,-6e-05,4,12
18112,-6e-05,-4e-05,-0.00013,-0.0002,-0.00087,-0.00057,-0.00016,-6e-05,4,12
18113,-6e-05,-4e-05,-0.00013,-0.0002,-0.00087,-0.00057,-0.00016,-6e-05,4,12
18114,-6e-05,-4e-05,-0.00013,-0.0002,-0.00087,-0.00057,-0.00016,-6e-05,4,12
18115,-6e-05,-4e-05,-0.00013,-0.0002,-0.00087,-0.00057,-0.00016,-6e-05,4,12
18116,-6e-05,-4e-05,-0.00013,-0.0002,-0.00087,-0.00057,-0.00016,-6e-05,4,12
18117,-6e-05,-4e-05,-0.00013,-0.0002,-0.00087,-0.00057,-0.00016,-6e-05,4,12
18118,-6e-05,-4e-05,-0.00013,-0.0002,-0.00087,-0.00057,-0.00016,-6e-05,4,12
18119,-6e-05,-4e-05,-0.00013,-0.0002,-0.00087,-0.00057,-0.00016,-6e-05,4,12
18120,-6e-05,-4e-05,-0.00013,-0.0002,-0.00087,-0.00057,-0.00016,-6e-05,4,12
18121,-6e-05,-4e-05,-0.00013,-0.0002,-0.00087,-0.00057,-0.00016,-6e-05,4,12
18122,-4e-05,-4e-05,-2e-05,0.00042,0.00035,0.00027,-5e-05,-0.00016,4,12
18123,0,0,0,-0.0002,5e-05,-0.00011,-5e-05,4e-05,4,12
18124,0,0,0,-0.0002,5e-05,-0.00011,-5e-05,4e-05,4,12
18125,0,0,0,-0.0002,5e-05,-0.00011,-5e-05,4e-05,4,12
18126,0,0,0,-0.0002,5e-05,-0.00011,-5e-05,4e-05,4,12
18127,0,0,0,-0.0002,5e-05,-0.00011,-5e-05,4e-05,4,12
18128,0,0,0,-0.0002,5e-05,-0.00011,-5e-05,4e-05,4,12
18129,0,0,0,-0.0002,5e-05,-0.00011,-5e-05,4e-05,4,12
18130,0,0,0,-0.0002,5e-05,-0.00011,-5e-05,4e-05,4,12
18131,0,0,0,-0.0002,5e-05,-0.00011,-5e-05,4e-05,4,12
18132,0,0,0,-0.0002,5e-05,-0.00011,-5e-05,4e-05,4,12
18133,0,0,0,-0.0002,5e-05,-0.00011,-5e-05,4e-05,4,12
18134,0,0,0,-0.0002,5e-05,-0.00011,-5e-05,4e-05,4,12
18135,0,0,0,-0.0002,5e-05,-0.00011,-5e-05,4e-05,4,12
18136,0,0,0,-0.0002,5e-05,-0.00011,-5e-05,4e-05,4,12
18138,0,0,0,-0.0002,5e-05,-0.00011,-5e-05,4e-05,4,12
18139,0,0,0,-0.0002,5e-05,-0.00011,-5e-05,4e-05,4,12
18140,0,0,0,-0.0002,5e-05,-0.00011,-5e-05,4e-05,4,12
18141,0,0,0,-0.0002,5e-05,-0.00011,-5e-05,4e-05,4,12
18142,0,0,0,-0.0002,5e-05,-0.00011,-5e-05,4e-05,4,12
18143,0,0,0,-0.0002,5e-05,-0.00011,-5e-05,4e-05,4,12
18144,-1e-05,-2e-05,-4e-05,-3e-05,-0.0004,-9e-05,-6e-05,-4e-05,4,12
18145,-2e-05,-1e-05,4e-05,0.00016,5e-05,-4e-05,4e-05,1e-05,4,12
18146,-2e-05,-1e-05,4e-05,0.00016,5e-05,-4e-05,4e-05,1e-05,4,12
18147,-2e-05,-1e-05,4e-05,0.00016,5e-05,-4e-05,4e-05,1e-05,4,12
18148,-2e-05,-1e-05,4e-05,0.00016,5e-05,-4e-05,4e-05,1e-05,4,12
18149,-2e-05,-1e-05,4e-05,0.00016,5e-05,-4e-05,4e-05,1e-05,4,12
18150,-2e-05,-1e-05,4e-05,0.00016,5e-05,-4e-05,4e-05,1e-05,4,12
18151,-2e-05,-1e-05,4e-05,0.00016,5e-05,-4e-05,4e-05,1e-05,4,12
18152,-2e-05,-1e-05,4e-05,0.00016,5e-05,-4e-05,4e-05,1e-05,4,12
18153,-2e-05,-1e-05,4e-05,0.00016,5e-05,-4e-05,4e-05,1e-05,4,12
18154,-2e-05,-1e-05,4e-05,0.00016,5e-05,-4e-05,4e-05,1e-05,4,12
18155,-2e-05,-1e-05,4e-05,0.00016,5e-05,-4e-05,4e-05,1e-05,4,12
18156,-2e-05,-1e-05,4e-05,0.00016,5e-05,-4e-05,4e-05,1e-05,4,12
18157,-2e-05,-1e-05,4e-05,0.00016,5e-05,-4e-05,4e-05,1e-05,4,12
18158,-2e-05,-1e-05,4e-05,0.00016,5e-05,-4e-05,4e-05,1e-05,4,12
18159,8e-05,6e-05,0.00022,0.00071,-0.00025,3e-05,0,0.0001,4,12
18160,-8e-05,-9e-05,-0.00011,2e-05,-0.00039,-0.00028,-0.00014,-9e-05,4,12
18161,-8e-05,-9e-05,-0.00011,2e-05,-0.00039,-0.00028,-0.00014,-9e-05,4,12
18162,-8e-05,-9e-05,-0.00011,2e-05,-0.00039,-0.00028,-0.00014,-9e-05,4,12
18163,-8e-05,-9e-05,-0.00011,2e-05,-0.00039,-0.00028,-0.00014,-9e-05,4,12
18164,-8e-05,-9e-05,-0.00011,2e-05,-0.00039,-0.00028,-0.00014,-9e-05,4,12
18165,-8e-05,-9e-05,-0.00011,2e-05,-0.00039,-0.00028,-0.00014,-9e-05,4,12
18166,-8e-05,-9e-05,-0.00011,2e-05,-0.00039,-0.00028,-0.00014,-9e-05,4,12
18167,-8e-05,-9e-05,-0.00011,2e-05,-0.00039,-0.00028,-0.00014,-9e-05,4,12
18168,-8e-05,-9e-05,-0.00011,2e-05,-0.00039,-0.00028,-0.00014,-9e-05,4,12
18169,-8e-05,-9e-05,-0.00011,2e-05,-0.00039,-0.00028,-0.00014,-9e-05,4,12
18170,-8e-05,-9e-05,-0.00011,2e-05,-0.00039,-0.00028,-0.00014,-9e-05,4,12
18171,-8e-05,-9e-05,-0.00011,2e-05,-0.00039,-0.00028,-0.00014,-9e-05,4,12
18172,-8e-05,-9e-05,-0.00011,2e-05,-0.00039,-0.00028,-0.00014,-9e-05,4,12
18173,-8e-05,-9e-05,-0.00011,2e-05,-0.00039,-0.00028,-0.00014,-9e-05,4,12
18174,-8e-05,-9e-05,-0.00011,2e-05,-0.00039,-0.00028,-0.00014,-9e-05,4,12
18175,-8e-05,-9e-05,-0.00011,2e-05,-0.00039,-0.00028,-0.00014,-9e-05,4,12
18176,-8e-05,-9e-05,-0.00011,2e-05,-0.00039,-0.00028,-0.00014,-9e-05,4,12
18177,-8e-05,-9e-05,-0.00011,2e-05,-0.00039,-0.00028,-0.00014,-9e-05,4,12
18178,-8e-05,-9e-05,-0.00011,2e-05,-0.00039,-0.00028,-0.00014,-9e-05,4,12
18179,-8e-05,-9e-05,-0.00011,2e-05,-0.00039,-0.00028,-0.00014,-9e-05,4,12
18180,-8e-05,-9e-05,-0.00011,2e-05,-0.00039,-0.00028,-0.00014,-9e-05,4,12
18181,-8e-05,-9e-05,-0.00011,2e-05,-0.00039,-0.00028,-0.00014,-9e-05,4,12
18182,0.00011,3e-05,0,0.00018,0.00029,0.00032,4e-05,0.00012,4,12
18183,-1e-05,1e-05,0.00012,0.00049,0.00052,-0.00023,-0.00011,-5e-05,4,12
18184,-1e-05,1e-05,0.00012,0.00049,0.00052,-0.00023,-0.00011,-5e-05,4,12
18185,-1e-05,1e-05,0.00012,0.00049,0.00052,-0.00023,-0.00011,-5e-05,4,12
18186,-1e-05,1e-05,0.00012,0.00049,0.00052,-0.00023,-0.00011,-5e-05,4,12
18188,-1e-05,1e-05,0.00012,0.00049,0.00052,-0.00023,-0.00011,-5e-05,4,12
18189,-1e-05,1e-05,0.00012,0.00049,0.00052,-0.00023,-0.00011,-5e-05,4,12
18190,-1e-05,1e-05,0.00012,0.00049,0.00052,-0.00023,-0.00011,-5e-05,4,12
18191,-1e-05,1e-05,0.00012,0.00049,0.00052,-0.00023,-0.00011,-5e-05,4,12
18192,-1e-05,1e-05,0.00012,0.00049,0.00052,-0.00023,-0.00011,-5e-05,4,12
18193,-1e-05,1e-05,0.00012,0.00049,0.00052,-0.00023,-0.00011,-5e-05,4,12
18194,-1e-05,1e-05,0.00012,0.00049,0.00052,-0.00023,-0.00011,-5e-05,4,12
18195,-1e-05,1e-05,0.00012,0.00049,0.00052,-0.00023,-0.00011,-5e-05,4,12
18196,-1e-05,1e-05,0.00012,0.00049,0.00052,-0.00023,-0.00011,-5e-05,4,12
18197,-1e-05,1e-05,0.00012,0.00049,0.00052,-0.00023,-0.00011,-5e-05,4,12
18198,-1e-05,1e-05,0.00012,0.00049,0.00052,-0.00023,-0.00011,-5e-05,4,12
18199,-1e-05,1e-05,0.00012,0.00049,0.00052,-0.00023,-0.00011,-5e-05,4,12
18200,-1e-05,1e-05,0.00012,0.00049,0.00052,-0.00023,-0.00011,-5e-05,4,12
18201,-1e-05,1e-05,0.00012,0.00049,0.00052,-0.00023,-0.00011,-5e-05,4,12
18202,-1e-05,1e-05,0.00012,0.00049,0.00052,-0.00023,-0.00011,-5e-05,4,12
18203,-1e-05,1e-05,0.00012,0.00049,0.00052,-0.00023,-0.00011,-5e-05,4,12
18204,-8e-05,-9e-05,-0.00012,-0.00036,0.0001,-0.0002,-5e-05,-6e-05,4,12
18205,7e-05,2e-05,0.00011,0.00016,0.00017,0.0002,-0.00011,0,4,12
18206,7e-05,2e-05,0.00011,0.00016,0.00017,0.0002,-0.00011,0,4,12
18207,7e-05,2e-05,0.00011,0.00016,0.00017,0.0002,-0.00011,0,4,12
18208,7e-05,2e-05,0.00011,0.00016,0.00017,0.0002,-0.00011,0,4,12
18209,7e-05,2e-05,0.00011,0.00016,0.00017,0.0002,-0.00011,0,4,12
18210,7e-05,2e-05,0.00011,0.00016,0.00017,0.0002,-0.00011,0,4,12
18211,7e-05,2e-05,0.00011,0.00016,0.00017,0.0002,-0.00011,0,4,12
18212,7e-05,2e-05,0.00011,0.00016,0.00017,0.0002,-0.00011,0,4,12
18213,7e-05,2e-05,0.00011,0.00016,0.00017,0.0002,-0.00011,0,4,12
18214,7e-05,2e-05,0.00011,0.00016,0.00017,0.0002,-0.00011,0,4,12
18215,7e-05,2e-05,0.00011,0.00016,0.00017,0.0002,-0.00011,0,4,12
18216,7e-05,2e-05,0.00011,0.00016,0.00017,0.0002,-0.00011,0,4,12
18217,7e-05,2e-05,0.00011,0.00016,0.00017,0.0002,-0.00011,0,4,12
18218,7e-05,2e-05,0.00011,0.00016,0.00017,0.0002,-0.00011,0,4,12
18219,1e-05,-1e-05,6e-05,-4e-05,-0.00075,-0.00031,-2e-05,2e-05,4,12
18220,-6e-05,-2e-05,0,0.00016,0.00058,0.00028,4e-05,-4e-05,4,12
18221,-6e-05,-2e-05,0,0.00016,0.00058,0.00028,4e-05,-4e-05,4,12
18222,-6e-05,-2e-05,0,0.00016,0.00058,0.00028,4e-05,-4e-05,4,12
18223,-6e-05,-2e-05,0,0.00016,0.00058,0.00028,4e-05,-4e-05,4,12
18224,-6e-05,-2e-05,0,0.00016,0.00058,0.00028,4e-05,-4e-05,4,12
18225,-6e-05,-2e-05,0,0.00016,0.00058,0.00028,4e-05,-4e-05,4,12
18226,-6e-05,-2e-05,0,0.00016,0.00058,0.00028,4e-05,-4e-05,4,12
18227,-6e-05,-2e-05,0,0.00016,0.00058,0.00028,4e-05,-4e-05,4,12
18228,-6e-05,-2e-05,0,0.00016,0.00058,0.00028,4e-05,-4e-05,4,12
18229,-6e-05,-2e-05,0,0.00016,0.00058,0.00028,4e-05,-4e-05,4,12
18230,-6e-05,-2e-05,0,0.00016,0.00058,0.00028,4e-05,-4e-05,4,12
18231,-6e-05,-2e-05,0,0.00016,0.00058,0.00028,4e-05,-4e-05,4,12
18232,-6e-05,-2e-05,0,0.00016,0.00058,0.00028,4e-05,-4e-05,4,12
18233,-6e-05,-2e-05,0,0.00016,0.00058,0.00028,4e-05,-4e-05,4,12
18234,-6e-05,-2e-05,0,0.00016,0.00058,0.00028,4e-05,-4e-05,4,12
18235,-6e-05,-2e-05,0,0.00016,0.00058,0.00028,4e-05,-4e-05,4,12
18236,-6e-05,-2e-05,0,0.00016,0.00058,0.00028,4e-05,-4e-05,4,12
18238,-6e-05,-2e-05,0,0.00016,0.00058,0.00028,4e-05,-4e-05,4,12
18239,-6e-05,-2e-05,0,0.00016,0.00058,0.00028,4e-05,-4e-05,4,12
18240,-6e-05,-2e-05,0,0.00016,0.00058,0.00028,4e-05,-4e-05,4,12
18241,-6e-05,-2e-05,0,0.00016,0.00058,0.00028,4e-05,-4e-05,4,12
18242,1e-05,0,-1e-05,-5e-05,-4e-05,0.00024,8e-05,2e-05,4,12
18243,6e-05,9e-05,0.0001,4e-05,-0.00018,-0.00021,7e-05,5e-05,4,12
18244,6e-05,9e-05,0.0001,4e-05,-0.00018,-0.00021,7e-05,5e-05,4,12
18245,6e-05,9e-05,0.0001,4e-05,-0.00018,-0.00021,7e-05,5e-05,4,12
18246,6e-05,9e-05,0.0001,4e-05,-0.00018,-0.00021,7e-05,5e-05,4,12
18247,6e-05,9e-05,0.0001,4e-05,-0.00018,-0.00021,7e-05,5e-05,4,12
18248,6e-05,9e-05,0.0001,4e-05,-0.00018,-0.00021,7e-05,5e-05,4,12
18249,6e-05,9e-05,0.0001,4e-05,-0.00018,-0.00021,7e-05,5e-05,4,12
18250,6e-05,9e-05,0.0001,4e-05,-0.00018,-0.00021,7e-05,5e-05,4,12
18251,6e-05,9e-05,0.0001,4e-05,-0.00018,-0.00021,7e-05,5e-05,4,12
18252,6e-05,9e-05,0.0001,4e-05,-0.00018,-0.00021,7e-05,5e-05,4,12
18253,6e-05,9e-05,0.0001,4e-05,-0.00018,-0.00021,7e-05,5e-05,4,12
18254,6e-05,9e-05,0.0001,4e-05,-0.00018,-0.00021,7e-05,5e-05,4,12
18255,6e-05,9e-05,0.0001,4e-05,-0.00018,-0.00021,7e-05,5e-05,4,12
18256,6e-05,9e-05,0.0001,4e-05,-0.00018,-0.00021,7e-05,5e-05,4,12
18257,6e-05,9e-05,0.0001,4e-05,-0.00018,-0.00021,7e-05,5e-05,4,12
18258,6e-05,9e-05,0.0001,4e-05,-0.00018,-0.00021,7e-05,5e-05,4,12
18259,6e-05,9e-05,0.0001,4e-05,-0.00018,-0.00021,7e-05,5e-05,4,12
18260,6e-05,9e-05,0.0001,4e-05,-0.00018,-0.00021,7e-05,5e-05,4,12
18261,6e-05,9e-05,0.0001,4e-05,-0.00018,-0.00021,7e-05,5e-05,4,12
18262,6e-05,9e-05,0.0001,4e-05,-0.00018,-0.00021,7e-05,5e-05,4,12
18263,6e-05,9e-05,0.0001,4e-05,-0.00018,-0.00021,7e-05,5e-05,4,12
18264,7e-05,3e-05,8e-05,0.0001,-0.00031,-2e-05,0.00019,0.0001,4,12
18265,-8e-05,-4e-05,-5e-05,-8e-05,-0.00033,0.00026,-9e-05,-0.00021,4,12
18266,-8e-05,-4e-05,-5e-05,-8e-05,-0.00033,0.00026,-9e-05,-0.00021,4,12
18267,-8e-05,-4e-05,-5e-05,-8e-05,-0.00033,0.00026,-9e-05,-0.00021,4,12
18268,-8e-05,-4e-05,-5e-05,-8e-05,-0.00033,0.00026,-9e-05,-0.00021,4,12
18269,-8e-05,-4e-05,-5e-05,-8e-05,-0.00033,0.00026,-9e-05,-0.00021,4,12
18270,-8e-05,-4e-05,-5e-05,-8e-05,-0.00033,0.00026,-9e-05,-0.00021,4,12
18271,-8e-05,-4e-05,-5e-05,-8e-05,-0.00033,0.00026,-9e-05,-0.00021,4,12
18272,-8e-05,-4e-05,-5e-05,-8e-05,-0.00033,0.00026,-9e-05,-0.00021,4,12
18273,-8e-05,-4e-05,-5e-05,-8e-05,-0.00033,0.00026,-9e-05,-0.00021,4,12
18274,-8e-05,-4e-05,-5e-05,-8e-05,-0.00033,0.00026,-9e-05,-0.00021,4,12
18275,-8e-05,-4e-05,-5e-05,-8e-05,-0.00033,0.00026,-9e-05,-0.00021,4,12
18276,-8e-05,-4e-05,-5e-05,-8e-05,-0.00033,0.00026,-9e-05,-0.00021,4,12
18277,-8e-05,-4e-05,-5e-05,-8e-05,-0.00033,0.00026,-9e-05,-0.00021,4,12
18278,-8e-05,-4e-05,-5e-05,-8e-05,-0.00033,0.00026,-9e-05,-0.00021,4,12
18279,-1e-05,-4e-05,-2e-05,0.00028,0.00075,0.00021,-3e-05,3e-05,4,12
18280,-3e-05,-3e-05,-2e-05,-5e-05,-0.00048,-0.00064,-6e-05,-2e-05,4,12
18281,-3e-05,-3e-05,-2e-05,-5e-05,-0.00048,-0.00064,-6e-05,-2e-05,4,12
18282,-3e-05,-3e-05,-2e-05,-5e-05,-0.00048,-0.00064,-6e-05,-2e-05,4,12
18283,-3e-05,-3e-05,-2e-05,-5e-05,-0.00048,-0.00064,-6e-05,-2e-05,4,12
18284,-3e-05,-3e-05,-2e-05,-5e-05,-0.00048,-0.00064,-6e-05,-2e-05,4,12
18285,-3e-05,-3e-05,-2e-05,-5e-05,-0.00048,-0.00064,-6e-05,-2e-05,4,12
18286,-3e-05,-3e-05,-2e-05,-5e-05,-0.00048,-0.00064,-6e-05,-2e-05,4,12
18289,-3e-05,-3e-05,-2e-05,-5e-05,-0.00048,-0.00064,-6e-05,-2e-05,4,12
18290,-3e-05,-3e-05,-2e-05,-5e-05,-0.00048,-0.00064,-6e-05,-2e-05,4,12
18291,-3e-05,-3e-05,-2e-05,-5e-05,-0.00048,-0.00064,-6e-05,-2e-05,4,12
18292,-3e-05,-3e-05,-2e-05,-5e-05,-0.00048,-0.00064,-6e-05,-2e-05,4,12
18293,-3e-05,-3e-05,-2e-05,-5e-05,-0.00048,-0.00064,-6e-05,-2e-05,4,12
18294,-3e-05,-3e-05,-2e-05,-5e-05,-0.00048,-0.00064,-6e-05,-2e-05,4,12
18295,-3e-05,-3e-05,-2e-05,-5e-05,-0.00048,-0.00064,-6e-05,-2e-05,4,12
18296,-3e-05,-3e-05,-2e-05,-5e-05,-0.00048,-0.00064,-6e-05,-2e-05,4,12
18297,-3e-05,-3e-05,-2e-05,-5e-05,-0.00048,-0.00064,-6e-05,-2e-05,4,12
18298,-3e-05,-3e-05,-2e-05,-5e-05,-0.00048,-0.00064,-6e-05,-2e-05,4,12
18299,-3e-05,-3e-05,-2e-05,-5e-05,-0.00048,-0.00064,-6e-05,-2e-05,4,12
18300,-3e-05,-3e-05,-2e-05,-5e-05,-0.00048,-0.00064,-6e-05,-2e-05,4,12
18301,-3e-05,-3e-05,-2e-05,-5e-05,-0.00048,-0.00064,-6e-05,-2e-05,4,12
18302,3e-05,0,2e-05,0.00018,0.00074,-0.00017,-8e-05,-2e-05,4,12
18303,-3e-05,-8e-05,-0.0002,-0.00017,-4e-05,0.00011,3e-05,4e-05,4,12
18304,-3e-05,-8e-05,-0.0002,-0.00017,-4e-05,0.00011,3e-05,4e-05,4,12
18305,-3e-05,-8e-05,-0.0002,-0.00017,-4e-05,0.00011,3e-05,4e-05,4,12
18306,-3e-05,-8e-05,-0.0002,-0.00017,-4e-05,0.00011,3e-05,4e-05,4,12
18307,-3e-05,-8e-05,-0.0002,-0.00017,-4e-05,0.00011,3e-05,4e-05,4,12
18308,-3e-05,-8e-05,-0.0002,-0.00017,-4e-05,0.00011,3e-05,4e-05,4,12
18309,-3e-05,-8e-05,-0.0002,-0.00017,-4e-05,0.00011,3e-05,4e-05,4,12
18310,-3e-05,-8e-05,-0.0002,-0.00017,-4e-05,0.00011,3e-05,4e-05,4,12
18311,-3e-05,-8e-05,-0.0002,-0.00017,-4e-05,0.00011,3e-05,4e-05,4,12
18312,-3e-05,-8e-05,-0.0002,-0.00017,-4e-05,0.00011,3e-05,4e-05,4,12
18313,-3e-05,-8e-05,-0.0002,-0.00017,-4e-05,0.00011,3e-05,4e-05,4,12
18314,-3e-05,-8e-05,-0.0002,-0.00017,-4e-05,0.00011,3e-05,4e-05,4,12
18315,-3e-05,-8e-05,-0.0002,-0.00017,-4e-05,0.00011,3e-05,4e-05,4,12
18316,-3e-05,-8e-05,-0.0002,-0.00017,-4e-05,0.00011,3e-05,4e-05,4,12
18317,-3e-05,-8e-05,-0.0002,-0.00017,-4e-05,0.00011,3e-05,4e-05,4,12
18318,-3e-05,-8e-05,-0.0002,-0.00017,-4e-05,0.00011,3e-05,4e-05,4,12
18319,-3e-05,-8e-05,-0.0002,-0.00017,-4e-05,0.00011,3e-05,4e-05,4,12
18320,-3e-05,-8e-05,-0.0002,-0.00017,-4e-05,0.00011,3e-05,4e-05,4,12
18321,-3e-05,-8e-05,-0.0002,-0.00017,-4e-05,0.00011,3e-05,4e-05,4,12
18322,-3e-05,-8e-05,-0.0002,-0.00017,-4e-05,0.00011,3e-05,4e-05,4,12
18323,-3e-05,-8e-05,-0.0002,-0.00017,-4e-05,0.00011,3e-05,4e-05,4,12
18324,-2e-05,2e-05,8e-05,0.0002,-0.00026,-0.0002,-0.00012,-9e-05,4,12
18325,-4e-05,-2e-05,-5e-05,-0.00037,-0.00016,-0.00027,-8e-05,-2e-05,4,12
18326,-4e-05,-2e-05,-5e-05,-0.00037,-0.00016,-0.00027,-8e-05,-2e-05,4,12
18327,-4e-05,-2e-05,-5e-05,-0.00037,-0.00016,-0.00027,-8e-05,-2e-05,4,12
18328,-4e-05,-2e-05,-5e-05,-0.00037,-0.00016,-0.00027,-8e-05,-2e-05,4,12
18329,-4e-05,-2e-05,-5e-05,-0.00037,-0.00016,-0.00027,-8e-05,-2e-05,4,12
18330,-4e-05,-2e-05,-5e-05,-0.00037,-0.00016,-0.00027,-8e-05,-2e-05,4,12
18331,-4e-05,-2e-05,-5e-05,-0.00037,-0.00016,-0.00027,-8e-05,-2e-05,4,12
18332,-4e-05,-2e-05,-5e-05,-0.00037,-0.00016,-0.00027,-8e-05,-2e-05,4,12
18333,-4e-05,-2e-05,-5e-05,-0.00037,-0.00016,-0.00027,-8e-05,-2e-05,4,12
18334,-4e-05,-2e-05,-5e-05,-0.00037,-0.00016,-0.00027,-8e-05,-2e-05,4,12
18335,-4e-05,-2e-05,-5e-05,-0.00037,-0.00016,-0.00027,-8e-05,-2e-05,4,12
18336,-4e-05,-2e-05,-5e-05,-0.00037,-0.00016,-0.00027,-8e-05,-2e-05,4,12
18339,-1e-05,-5e-05,2e-05,0.00022,-0.00022,-0.00073,-0.00012,-1e-05,4,12
18340,0,1e-05,-1e-05,0.00011,0.00011,4e-05,2e-05,2e-05,4,12
18341,0,1e-05,-1e-05,0.00011,0.00011,4e-05,2e-05,2e-05,4,12
18342,0,1e-05,-1e-05,0.00011,0.00011,4e-05,2e-05,2e-05,4,12
18343,0,1e-05,-1e-05,0.00011,0.00011,4e-05,2e-05,2e-05,4,12
18344,0,1e-05,-1e-05,0.00011,0.00011,4e-05,2e-05,2e-05,4,12
18345,0,1e-05,-1e-05,0.00011,0.00011,4e-05,2e-05,2e-05,4,12
18346,0,1e-05,-1e-05,0.00011,0.00011,4e-05,2e-05,2e-05,4,12
18347,0,1e-05,-1e-05,0.00011,0.00011,4e-05,2e-05,2e-05,4,12
18348,0,1e-05,-1e-05,0.00011,0.00011,4e-05,2e-05,2e-05,4,12
18349,0,1e-05,-1e-05,0.00011,0.00011,4e-05,2e-05,2e-05,4,12
18350,0,1e-05,-1e-05,0.00011,0.00011,4e-05,2e-05,2e-05,4,12
18351,0,1e-05,-1e-05,0.00011,0.00011,4e-05,2e-05,2e-05,4,12
18352,0,1e-05,-1e-05,0.00011,0.00011,4e-05,2e-05,2e-05,4,12
18353,0,1e-05,-1e-05,0.00011,0.00011,4e-05,2e-05,2e-05,4,12
18354,0,1e-05,-1e-05,0.00011,0.00011,4e-05,2e-05,2e-05,4,12
18355,0,1e-05,-1e-05,0.00011,0.00011,4e-05,2e-05,2e-05,4,12
18356,0,1e-05,-1e-05,0.00011,0.00011,4e-05,2e-05,2e-05,4,12
18357,0,1e-05,-1e-05,0.00011,0.00011,4e-05,2e-05,2e-05,4,12
18358,0,1e-05,-1e-05,0.00011,0.00011,4e-05,2e-05,2e-05,4,12
18359,0,1e-05,-1e-05,0.00011,0.00011,4e-05,2e-05,2e-05,4,12
18360,0,1e-05,-1e-05,0.00011,0.00011,4e-05,2e-05,2e-05,4,12
18361,0,1e-05,-1e-05,0.00011,0.00011,4e-05,2e-05,2e-05,4,12
18362,2e-05,0,-1e-05,-3e-05,0.0009,0.00053,-3e-05,-6e-05,4,12
18363,2e-05,4e-05,7e-05,0.00011,0.00046,9e-05,-4e-05,-7e-05,4,12
18364,2e-05,4e-05,7e-05,0.00011,0.00046,9e-05,-4e-05,-7e-05,4,12
18365,2e-05,4e-05,7e-05,0.00011,0.00046,9e-05,-4e-05,-7e-05,4,12
18366,2e-05,4e-05,7e-05,0.00011,0.00046,9e-05,-4e-05,-7e-05,4,12
18367,2e-05,4e-05,7e-05,0.00011,0.00046,9e-05,-4e-05,-7e-05,4,12
18368,2e-05,4e-05,7e-05,0.00011,0.00046,9e-05,-4e-05,-7e-05,4,12
18369,2e-05,4e-05,7e-05,0.00011,0.00046,9e-05,-4e-05,-7e-05,4,12
18370,2e-05,4e-05,7e-05,0.00011,0.00046,9e-05,-4e-05,-7e-05,4,12
18371,2e-05,4e-05,7e-05,0.00011,0.00046,9e-05,-4e-05,-7e-05,4,12
18372,2e-05,4e-05,7e-05,0.00011,0.00046,9e-05,-4e-05,-7e-05,4,12
18373,2e-05,4e-05,7e-05,0.00011,0.00046,9e-05,-4e-05,-7e-05,4,12
18374,2e-05,4e-05,7e-05,0.00011,0.00046,9e-05,-4e-05,-7e-05,4,12
18375,2e-05,4e-05,7e-05,0.00011,0.00046,9e-05,-4e-05,-7e-05,4,12
18376,2e-05,4e-05,7e-05,0.00011,0.00046,9e-05,-4e-05,-7e-05,4,12
18377,2e-05,4e-05,7e-05,0.00011,0.00046,9e-05,-4e-05,-7e-05,4,12
18378,2e-05,4e-05,7e-05,0.00011,0.00046,9e-05,-4e-05,-7e-05,4,12
18379,2e-05,4e-05,7e-05,0.00011,0.00046,9e-05,-4e-05,-7e-05,4,12
18380,2e-05,4e-05,7e-05,0.00011,0.00046,9e-05,-4e-05,-7e-05,4,12
18381,2e-05,4e-05,7e-05,0.00011,0.00046,9e-05,-4e-05,-7e-05,4,12
18382,2e-05,4e-05,7e-05,0.00011,0.00046,9e-05,-4e-05,-7e-05,4,12
18383,2e-05,4e-05,7e-05,0.00011,0.00046,9e-05,-4e-05,-7e-05,4,12
18384,-2e-05,1e-05,9e-05,0.00041,0.00024,0.00018,-1e-05,0,4,12
18385,-6e-05,-4e-05,-6e-05,-8e-05,-0.00089,-0.00042,-0.00018,-5e-05,4,12
18386,-6e-05,-4e-05,-6e-05,-8e-05,-0.00089,-0.00042,-0.00018,-5e-05,4,12
18389,-6e-05,-4e-05,-6e-05,-8e-05,-0.00089,-0.00042,-0.00018,-5e-05,4,12
18390,-6e-05,-4e-05,-6e-05,-8e-05,-0.00089,-0.00042,-0.00018,-5e-05,4,12
18391,-6e-05,-4e-05,-6e-05,-8e-05,-0.00089,-0.00042,-0.00018,-5e-05,4,12
18392,-6e-05,-4e-05,-6e-05,-8e-05,-0.00089,-0.00042,-0.00018,-5e-05,4,12
18393,-6e-05,-4e-05,-6e-05,-8e-05,-0.00089,-0.00042,-0.00018,-5e-05,4,12
18394,-6e-05,-4e-05,-6e-05,-8e-05,-0.00089,-0.00042,-0.00018,-5e-05,4,12
18395,-6e-05,-4e-05,-6e-05,-8e-05,-0.00089,-0.00042,-0.00018,-5e-05,4,12
18396,-6e-05,-4e-05,-6e-05,-8e-05,-0.00089,-0.00042,-0.00018,-5e-05,4,12
18397,-6e-05,-4e-05,-6e-05,-8e-05,-0.00089,-0.00042,-0.00018,-5e-05,4,12
18398,-1e-05,-4e-05,-4e-05,0.00014,0.00023,-0.00047,-4e-05,-7e-05,4,12
18399,-1e-05,-4e-05,-4e-05,0.00014,0.00023,-0.00047,-4e-05,-7e-05,4,12
18400,-1e-05,-4e-05,-4e-05,0.00014,0.00023,-0.00047,-4e-05,-7e-05,4,12
18401,-1e-05,-4e-05,-4e-05,0.00014,0.00023,-0.00047,-4e-05,-7e-05,4,12
18402,-1e-05,-4e-05,-4e-05,0.00014,0.00023,-0.00047,-4e-05,-7e-05,4,12
18403,-1e-05,-4e-05,-4e-05,0.00014,0.00023,-0.00047,-4e-05,-7e-05,4,12
18404,-1e-05,-4e-05,-4e-05,0.00014,0.00023,-0.00047,-4e-05,-7e-05,4,12
18405,-1e-05,-4e-05,-4e-05,0.00014,0.00023,-0.00047,-4e-05,-7e-05,4,12
18406,0,-4e-05,-8e-05,-0.00019,-0.00036,-6e-05,-5e-05,1e-05,4,12
18407,0,-4e-05,-8e-05,-0.00019,-0.00036,-6e-05,-5e-05,1e-05,4,12
18408,0,-4e-05,-8e-05,-0.00019,-0.00036,-6e-05,-5e-05,1e-05,4,12
18409,0,-4e-05,-8e-05,-0.00019,-0.00036,-6e-05,-5e-05,1e-05,4,12
18410,0,-4e-05,-8e-05,-0.00019,-0.00036,-6e-05,-5e-05,1e-05,4,12
18411,0,-4e-05,-8e-05,-0.00019,-0.00036,-6e-05,-5e-05,1e-05,4,12
18412,0,-4e-05,-8e-05,-0.00019,-0.00036,-6e-05,-5e-05,1e-05,4,12
18413,0,-4e-05,-8e-05,-0.00019,-0.00036,-6e-05,-5e-05,1e-05,4,12
18414,0,-4e-05,-8e-05,-0.00019,-0.00036,-6e-05,-5e-05,1e-05,4,12
18415,0,-4e-05,-8e-05,-0.00019,-0.00036,-6e-05,-5e-05,1e-05,4,12
18416,0,-4e-05,-8e-05,-0.00019,-0.00036,-6e-05,-5e-05,1e-05,4,12
18417,0,-4e-05,-8e-05,-0.00019,-0.00036,-6e-05,-5e-05,1e-05,4,12
18418,0,-4e-05,-8e-05,-0.00019,-0.00036,-6e-05,-5e-05,1e-05,4,12
18419,0,-4e-05,-8e-05,-0.00019,-0.00036,-6e-05,-5e-05,1e-05,4,12
18420,0,-4e-05,-8e-05,-0.00019,-0.00036,-6e-05,-5e-05,1e-05,4,12
18421,0,-4e-05,-8e-05,-0.00019,-0.00036,-6e-05,-5e-05,1e-05,4,12
18422,0,-4e-05,-8e-05,-0.00019,-0.00036,-6e-05,-5e-05,1e-05,4,12
18423,4e-05,3e-05,8e-05,0.00025,0.0005,0.0004,0.0001,2e-05,4,12
18424,4e-05,3e-05,8e-05,0.00025,0.0005,0.0004,0.0001,2e-05,4,12
18425,4e-05,3e-05,8e-05,0.00025,0.0005,0.0004,0.0001,2e-05,4,12
18426,4e-05,3e-05,8e-05,0.00025,0.0005,0.0004,0.0001,2e-05,4,12
18427,4e-05,3e-05,8e-05,0.00025,0.0005,0.0004,0.0001,2e-05,4,12
18428,4e-05,3e-05,8e-05,0.00025,0.0005,0.0004,0.0001,2e-05,4,12
18429,4e-05,3e-05,8e-05,0.00025,0.0005,0.0004,0.0001,2e-05,4,12
18430,4e-05,3e-05,8e-05,0.00025,0.0005,0.0004,0.0001,2e-05,4,12
18431,4e-05,3e-05,8e-05,0.00025,0.0005,0.0004,0.0001,2e-05,4,12
18432,4e-05,3e-05,8e-05,0.00025,0.0005,0.0004,0.0001,2e-05,4,12
18433,4e-05,3e-05,8e-05,0.00025,0.0005,0.0004,0.0001,2e-05,4,12
18434,4e-05,3e-05,8e-05,0.00025,0.0005,0.0004,0.0001,2e-05,4,12
18435,4e-05,3e-05,8e-05,0.00025,0.0005,0.0004,0.0001,2e-05,4,12
18436,4e-05,3e-05,8e-05,0.00025,0.0005,0.0004,0.0001,2e-05,4,12
18438,4e-05,3e-05,8e-05,0.00025,0.0005,0.0004,0.0001,2e-05,4,12
18439,4e-05,3e-05,8e-05,0.00025,0.0005,0.0004,0.0001,2e-05,4,12
18440,4e-05,3e-05,8e-05,0.00025,0.0005,0.0004,0.0001,2e-05,4,12
18441,4e-05,3e-05,8e-05,0.00025,0.0005,0.0004,0.0001,2e-05,4,12
18442,4e-05,3e-05,8e-05,0.00025,0.0005,0.0004,0.0001,2e-05,4,12
18443,4e-05,3e-05,8e-05,0.00025,0.0005,0.0004,0.0001,2e-05,4,12
18444,-4e-05,0,8e-05,0.00022,0.0005,0.00011,-0.0001,-3e-05,4,12
18445,1e-05,-4e-05,-0.00013,-0.00014,-0.00081,-0.0001,-2e-05,9e-05,4,12
18446,1e-05,-4e-05,-0.00013,-0.00014,-0.00081,-0.0001,-2e-05,9e-05,4,12
18447,1e-05,-4e-05,-0.00013,-0.00014,-0.00081,-0.0001,-2e-05,9e-05,4,12
18448,1e-05,-4e-05,-0.00013,-0.00014,-0.00081,-0.0001,-2e-05,9e-05,4,12
18449,1e-05,-4e-05,-0.00013,-0.00014,-0.00081,-0.0001,-2e-05,9e-05,4,12
18450,1e-05,-4e-05,-0.00013,-0.00014,-0.00081,-0.0001,-2e-05,9e-05,4,12
18451,1e-05,-4e-05,-0.00013,-0.00014,-0.00081,-0.0001,-2e-05,9e-05,4,12
18452,1e-05,-4e-05,-0.00013,-0.00014,-0.00081,-0.0001,-2e-05,9e-05,4,12
18453,1e-05,-4e-05,-0.00013,-0.00014,-0.00081,-0.0001,-2e-05,9e-05,4,12
18454,1e-05,-4e-05,-0.00013,-0.00014,-0.00081,-0.0001,-2e-05,9e-05,4,12
18455,1e-05,-4e-05,-0.00013,-0.00014,-0.00081,-0.0001,-2e-05,9e-05,4,12
18456,1e-05,-4e-05,-0.00013,-0.00014,-0.00081,-0.0001,-2e-05,9e-05,4,12
18457,1e-05,-4e-05,-0.00013,-0.00014,-0.00081,-0.0001,-2e-05,9e-05,4,12
18458,-4e-05,-6e-05,-9e-05,-0.00031,-0.0004,-0.00028,-9e-05,-3e-05,4,12
18459,-4e-05,-6e-05,-9e-05,-0.00031,-0.0004,-0.00028,-9e-05,-3e-05,4,12
18460,-4e-05,-6e-05,-9e-05,-0.00031,-0.0004,-0.00028,-9e-05,-3e-05,4,12
18461,-4e-05,-6e-05,-9e-05,-0.00031,-0.0004,-0.00028,-9e-05,-3e-05,4,12
18462,-4e-05,-6e-05,-9e-05,-0.00031,-0.0004,-0.00028,-9e-05,-3e-05,4,12
18463,-4e-05,-6e-05,-9e-05,-0.00031,-0.0004,-0.00028,-9e-05,-3e-05,4,12
18464,-4e-05,-6e-05,-9e-05,-0.00031,-0.0004,-0.00028,-9e-05,-3e-05,4,12
18465,-4e-05,-6e-05,-9e-05,-0.00031,-0.0004,-0.00028,-9e-05,-3e-05,4,12
18466,0.00016,-0.00011,-0.0001,-2e-05,0.0005,-1e-05,-0.0002,0.00011,4,12
18467,0.00016,-0.00011,-0.0001,-2e-05,0.0005,-1e-05,-0.0002,0.00011,4,12
18468,0.00016,-0.00011,-0.0001,-2e-05,0.0005,-1e-05,-0.0002,0.00011,4,12
18469,0.00016,-0.00011,-0.0001,-2e-05,0.0005,-1e-05,-0.0002,0.00011,4,12
18470,0.00016,-0.00011,-0.0001,-2e-05,0.0005,-1e-05,-0.0002,0.00011,4,12
18471,0.00016,-0.00011,-0.0001,-2e-05,0.0005,-1e-05,-0.0002,0.00011,4,12
18472,0.00016,-0.00011,-0.0001,-2e-05,0.0005,-1e-05,-0.0002,0.00011,4,12
18473,0.00016,-0.00011,-0.0001,-2e-05,0.0005,-1e-05,-0.0002,0.00011,4,12
18474,0.00016,-0.00011,-0.0001,-2e-05,0.0005,-1e-05,-0.0002,0.00011,4,12
18475,0.00016,-0.00011,-0.0001,-2e-05,0.0005,-1e-05,-0.0002,0.00011,4,12
18476,0.00016,-0.00011,-0.0001,-2e-05,0.0005,-1e-05,-0.0002,0.00011,4,12
18477,0.00016,-0.00011,-0.0001,-2e-05,0.0005,-1e-05,-0.0002,0.00011,4,12
18478,0.00016,-0.00011,-0.0001,-2e-05,0.0005,-1e-05,-0.0002,0.00011,4,12
18479,0.00016,-0.00011,-0.0001,-2e-05,0.0005,-1e-05,-0.0002,0.00011,4,12
18480,0.00016,-0.00011,-0.0001,-2e-05,0.0005,-1e-05,-0.0002,0.00011,4,12
18481,0.00016,-0.00011,-0.0001,-2e-05,0.0005,-1e-05,-0.0002,0.00011,4,12
18482,2e-05,2e-05,8e-05,0.00065,0.00029,0.00017,5e-05,3e-05,4,12
18483,1e-05,4e-05,5e-05,0.0001,0.00028,0.00076,0.00028,5e-05,4,12
18484,1e-05,4e-05,5e-05,0.0001,0.00028,0.00076,0.00028,5e-05,4,12
18485,1e-05,4e-05,5e-05,0.0001,0.00028,0.00076,0.00028,5e-05,4,12
18486,1e-05,4e-05,5e-05,0.0001,0.00028,0.00076,0.00028,5e-05,4,12
18488,1e-05,4e-05,5e-05,0.0001,0.00028,0.00076,0.00028,5e-05,4,12
18489,1e-05,4e-05,5e-05,0.0001,0.00028,0.00076,0.00028,5e-05,4,12
18490,1e-05,4e-05,5e-05,0.0001,0.00028,0.00076,0.00028,5e-05,4,12
18491,1e-05,4e-05,5e-05,0.0001,0.00028,0.00076,0.00028,5e-05,4,12
18492,1e-05,4e-05,5e-05,0.0001,0.00028,0.00076,0.00028,5e-05,4,12
18493,1e-05,4e-05,5e-05,0.0001,0.00028,0.00076,0.00028,5e-05,4,12
18494,1e-05,4e-05,5e-05,0.0001,0.00028,0.00076,0.00028,5e-05,4,12
18495,1e-05,4e-05,5e-05,0.0001,0.00028,0.00076,0.00028,5e-05,4,12
18496,1e-05,4e-05,5e-05,0.0001,0.00028,0.00076,0.00028,5e-05,4,12
18497,1e-05,4e-05,5e-05,0.0001,0.00028,0.00076,0.00028,5e-05,4,12
18498,1e-05,4e-05,5e-05,0.0001,0.00028,0.00076,0.00028,5e-05,4,12
18499,1e-05,4e-05,5e-05,0.0001,0.00028,0.00076,0.00028,5e-05,4,12
18500,1e-05,4e-05,5e-05,0.0001,0.00028,0.00076,0.00028,5e-05,4,12
18501,1e-05,4e-05,5e-05,0.0001,0.00028,0.00076,0.00028,5e-05,4,12
18502,1e-05,4e-05,5e-05,0.0001,0.00028,0.00076,0.00028,5e-05,4,12
18503,1e-05,4e-05,5e-05,0.0001,0.00028,0.00076,0.00028,5e-05,4,12
18504,0,-3e-05,-1e-05,4e-05,0.0001,0.00046,0.00017,3e-05,4,12
18505,-3e-05,2e-05,5e-05,0.0001,-0.00044,-0.00024,8e-05,-1e-05,4,12
18506,-3e-05,2e-05,5e-05,0.0001,-0.00044,-0.00024,8e-05,-1e-05,4,12
18507,-3e-05,2e-05,5e-05,0.0001,-0.00044,-0.00024,8e-05,-1e-05,4,12
18508,-3e-05,2e-05,5e-05,0.0001,-0.00044,-0.00024,8e-05,-1e-05,4,12
18509,-3e-05,2e-05,5e-05,0.0001,-0.00044,-0.00024,8e-05,-1e-05,4,12
18510,-3e-05,2e-05,5e-05,0.0001,-0.00044,-0.00024,8e-05,-1e-05,4,12
18511,-3e-05,2e-05,5e-05,0.0001,-0.00044,-0.00024,8e-05,-1e-05,4,12
18512,-3e-05,2e-05,5e-05,0.0001,-0.00044,-0.00024,8e-05,-1e-05,4,12
18513,-3e-05,2e-05,5e-05,0.0001,-0.00044,-0.00024,8e-05,-1e-05,4,12
18514,-3e-05,2e-05,5e-05,0.0001,-0.00044,-0.00024,8e-05,-1e-05,4,12
18515,-3e-05,2e-05,5e-05,0.0001,-0.00044,-0.00024,8e-05,-1e-05,4,12
18516,-3e-05,2e-05,5e-05,0.0001,-0.00044,-0.00024,8e-05,-1e-05,4,12
18517,-3e-05,2e-05,5e-05,0.0001,-0.00044,-0.00024,8e-05,-1e-05,4,12
18518,-3e-05,2e-05,5e-05,0.0001,-0.00044,-0.00024,8e-05,-1e-05,4,12
18519,-3e-05,2e-05,5e-05,0.0001,-0.00044,-0.00024,8e-05,-1e-05,4,12
18520,-3e-05,2e-05,5e-05,0.0001,-0.00044,-0.00024,8e-05,-1e-05,4,12
18521,-3e-05,2e-05,5e-05,0.0001,-0.00044,-0.00024,8e-05,-1e-05,4,12
18522,-3e-05,2e-05,5e-05,0.0001,-0.00044,-0.00024,8e-05,-1e-05,4,12
18523,-3e-05,2e-05,5e-05,0.0001,-0.00044,-0.00024,8e-05,-1e-05,4,12
18524,-3e-05,2e-05,5e-05,0.0001,-0.00044,-0.00024,8e-05,-1e-05,4,12
18525,-3e-05,2e-05,5e-05,0.0001,-0.00044,-0.00024,8e-05,-1e-05,4,12
18526,-3e-05,2e-05,5e-05,0.0001,-0.00044,-0.00024,8e-05,-1e-05,4,12
18527,-2e-05,-2e-05,-1e-05,-0.00018,-6e-05,0.00032,8e-05,-1e-05,4,12
18528,-4e-05,2e-05,5e-05,0.00029,0.00024,-0.00021,-2e-05,-1e-05,4,12
18529,-4e-05,2e-05,5e-05,0.00029,0.00024,-0.00021,-2e-05,-1e-05,4,12
18530,-4e-05,2e-05,5e-05,0.00029,0.00024,-0.00021,-2e-05,-1e-05,4,12
18531,-4e-05,2e-05,5e-05,0.00029,0.00024,-0.00021,-2e-05,-1e-05,4,12
18532,-4e-05,2e-05,5e-05,0.00029,0.00024,-0.00021,-2e-05,-1e-05,4,12
18533,-4e-05,2e-05,5e-05,0.00029,0.00024,-0.00021,-2e-05,-1e-05,4,12
18534,-4e-05,2e-05,5e-05,0.00029,0.00024,-0.00021,-2e-05,-1e-05,4,12
18535,-4e-05,2e-05,5e-05,0.00029,0.00024,-0.00021,-2e-05,-1e-05,4,12
18536,-4e-05,2e-05,5e-05,0.00029,0.00024,-0.00021,-2e-05,-1e-05,4,12
18538,-4e-05,2e-05,5e-05,0.00029,0.00024,-0.00021,-2e-05,-1e-05,4,12
18539,-4e-05,2e-05,5e-05,0.00029,0.00024,-0.00021,-2e-05,-1e-05,4,12
18540,-4e-05,2e-05,5e-05,0.00029,0.00024,-0.00021,-2e-05,-1e-05,4,12
18541,-4e-05,2e-05,5e-05,0.00029,0.00024,-0.00021,-2e-05,-1e-05,4,12
18542,6e-05,7e-05,0.00017,0.00023,0.00041,0.00042,0.00011,6e-05,4,12
18543,-4e-05,-2e-05,-9e-05,-0.00021,-0.00012,0.0001,1e-05,-5e-05,4,12
18544,-4e-05,-2e-05,-9e-05,-0.00021,-0.00012,0.0001,1e-05,-5e-05,4,12
18545,-4e-05,-2e-05,-9e-05,-0.00021,-0.00012,0.0001,1e-05,-5e-05,4,12
18546,-4e-05,-2e-05,-9e-05,-0.00021,-0.00012,0.0001,1e-05,-5e-05,4,12
18547,-4e-05,-2e-05,-9e-05,-0.00021,-0.00012,0.0001,1e-05,-5e-05,4,12
18548,-4e-05,-2e-05,-9e-05,-0.00021,-0.00012,0.0001,1e-05,-5e-05,4,12
18549,-4e-05,-2e-05,-9e-05,-0.00021,-0.00012,0.0001,1e-05,-5e-05,4,12
18550,-4e-05,-2e-05,-9e-05,-0.00021,-0.00012,0.0001,1e-05,-5e-05,4,12
18551,-4e-05,-2e-05,-9e-05,-0.00021,-0.00012,0.0001,1e-05,-5e-05,4,12
18552,-4e-05,-2e-05,-9e-05,-0.00021,-0.00012,0.0001,1e-05,-5e-05,4,12
18553,-4e-05,-2e-05,-9e-05,-0.00021,-0.00012,0.0001,1e-05,-5e-05,4,12
18554,-4e-05,-2e-05,-9e-05,-0.00021,-0.00012,0.0001,1e-05,-5e-05,4,12
18555,-4e-05,-2e-05,-9e-05,-0.00021,-0.00012,0.0001,1e-05,-5e-05,4,12
18556,-4e-05,-2e-05,-9e-05,-0.00021,-0.00012,0.0001,1e-05,-5e-05,4,12
18557,-4e-05,-2e-05,-9e-05,-0.00021,-0.00012,0.0001,1e-05,-5e-05,4,12
18558,-4e-05,-2e-05,-9e-05,-0.00021,-0.00012,0.0001,1e-05,-5e-05,4,12
18559,-4e-05,-2e-05,-9e-05,-0.00021,-0.00012,0.0001,1e-05,-5e-05,4,12
18560,-4e-05,-2e-05,-9e-05,-0.00021,-0.00012,0.0001,1e-05,-5e-05,4,12
18561,-4e-05,-2e-05,-9e-05,-0.00021,-0.00012,0.0001,1e-05,-5e-05,4,12
18562,-4e-05,-2e-05,-9e-05,-0.00021,-0.00012,0.0001,1e-05,-5e-05,4,12
18563,-4e-05,-2e-05,-9e-05,-0.00021,-0.00012,0.0001,1e-05,-5e-05,4,12
18564,-1e-05,-4e-05,-3e-05,-0.00012,-0.0006,-0.00021,-7e-05,2e-05,4,12
18565,4e-05,5e-05,0.00014,0.00013,0.00046,0.00063,4e-05,-3e-05,4,12
18566,4e-05,5e-05,0.00014,0.00013,0.00046,0.00063,4e-05,-3e-05,4,12
18567,4e-05,5e-05,0.00014,0.00013,0.00046,0.00063,4e-05,-3e-05,4,12
18568,4e-05,5e-05,0.00014,0.00013,0.00046,0.00063,4e-05,-3e-05,4,12
18569,4e-05,5e-05,0.00014,0.00013,0.00046,0.00063,4e-05,-3e-05,4,12
18570,4e-05,5e-05,0.00014,0.00013,0.00046,0.00063,4e-05,-3e-05,4,12
18571,4e-05,5e-05,0.00014,0.00013,0.00046,0.00063,4e-05,-3e-05,4,12
18572,4e-05,5e-05,0.00014,0.00013,0.00046,0.00063,4e-05,-3e-05,4,12
18573,4e-05,5e-05,0.00014,0.00013,0.00046,0.00063,4e-05,-3e-05,4,12
18574,4e-05,5e-05,0.00014,0.00013,0.00046,0.00063,4e-05,-3e-05,4,12
18575,4e-05,5e-05,0.00014,0.00013,0.00046,0.00063,4e-05,-3e-05,4,12
18576,4e-05,5e-05,0.00014,0.00013,0.00046,0.00063,4e-05,-3e-05,4,12
18577,4e-05,5e-05,0.00014,0.00013,0.00046,0.00063,4e-05,-3e-05,4,12
18578,-8e-05,-9e-05,-0.00011,-0.00031,-0.0004,-0.00014,-0.00017,-0.00011,4,12
18579,-8e-05,-9e-05,-0.00011,-0.00031,-0.0004,-0.00014,-0.00017,-0.00011,4,12
18580,-8e-05,-9e-05,-0.00011,-0.00031,-0.0004,-0.00014,-0.00017,-0.00011,4,12
18581,-8e-05,-9e-05,-0.00011,-0.00031,-0.0004,-0.00014,-0.00017,-0.00011,4,12
18582,-8e-05,-9e-05,-0.00011,-0.00031,-0.0004,-0.00014,-0.00017,-0.00011,4,12
18583,-8e-05,-9e-05,-0.00011,-0.00031,-0.0004,-0.00014,-0.00017,-0.00011,4,12
18584,-8e-05,-9e-05,-0.00011,-0.00031,-0.0004,-0.00014,-0.00017,-0.00011,4,12
18585,-8e-05,-9e-05,-0.00011,-0.00031,-0.0004,-0.00014,-0.00017,-0.00011,4,12
18586,-8e-05,-9e-05,-0.00011,-0.00031,-0.0004,-0.00014,-0.00017,-0.00011,4,12
18588,-4e-05,-3e-05,-7e-05,-0.00026,-1e-05,-0.00075,-0.00017,-1e-05,4,12
18589,-4e-05,-3e-05,-7e-05,-0.00026,-1e-05,-0.00075,-0.00017,-1e-05,4,12
18590,-4e-05,-3e-05,-7e-05,-0.00026,-1e-05,-0.00075,-0.00017,-1e-05,4,12
18591,-4e-05,-3e-05,-7e-05,-0.00026,-1e-05,-0.00075,-0.00017,-1e-05,4,12
18592,-4e-05,-3e-05,-7e-05,-0.00026,-1e-05,-0.00075,-0.00017,-1e-05,4,12
18593,-4e-05,-3e-05,-7e-05,-0.00026,-1e-05,-0.00075,-0.00017,-1e-05,4,12
18594,-4e-05,-3e-05,-7e-05,-0.00026,-1e-05,-0.00075,-0.00017,-1e-05,4,12
18595,-4e-05,-3e-05,-7e-05,-0.00026,-1e-05,-0.00075,-0.00017,-1e-05,4,12
18596,-4e-05,-3e-05,-7e-05,-0.00026,-1e-05,-0.00075,-0.00017,-1e-05,4,12
18597,-4e-05,-3e-05,-7e-05,-0.00026,-1e-05,-0.00075,-0.00017,-1e-05,4,12
18598,-4e-05,-3e-05,-7e-05,-0.00026,-1e-05,-0.00075,-0.00017,-1e-05,4,12
18599,-4e-05,-3e-05,-7e-05,-0.00026,-1e-05,-0.00075,-0.00017,-1e-05,4,12
18600,-4e-05,-3e-05,-7e-05,-0.00026,-1e-05,-0.00075,-0.00017,-1e-05,4,12
18601,-1e-05,-2e-05,-1e-05,8e-05,-0.00049,-0.00061,-0.00021,-7e-05,4,12
18602,-1e-05,-2e-05,-1e-05,8e-05,-0.00049,-0.00061,-0.00021,-7e-05,4,12
18603,-1e-05,-2e-05,-1e-05,8e-05,-0.00049,-0.00061,-0.00021,-7e-05,4,12
18604,-1e-05,-2e-05,-1e-05,8e-05,-0.00049,-0.00061,-0.00021,-7e-05,4,12
18605,-1e-05,-2e-05,-1e-05,8e-05,-0.00049,-0.00061,-0.00021,-7e-05,4,12
18606,-1e-05,-2e-05,-1e-05,8e-05,-0.00049,-0.00061,-0.00021,-7e-05,4,12
18607,-1e-05,-2e-05,-1e-05,8e-05,-0.00049,-0.00061,-0.00021,-7e-05,4,12
18608,-1e-05,-2e-05,-1e-05,8e-05,-0.00049,-0.00061,-0.00021,-7e-05,4,12
18609,0,3e-05,3e-05,8e-05,8e-05,-0.00011,-0.00012,0,4,12
18610,0,3e-05,3e-05,8e-05,8e-05,-0.00011,-0.00012,0,4,12
18611,0,3e-05,3e-05,8e-05,8e-05,-0.00011,-0.00012,0,4,12
18612,0,3e-05,3e-05,8e-05,8e-05,-0.00011,-0.00012,0,4,12
18613,0,3e-05,3e-05,8e-05,8e-05,-0.00011,-0.00012,0,4,12
18614,0,3e-05,3e-05,8e-05,8e-05,-0.00011,-0.00012,0,4,12
18615,0,3e-05,3e-05,8e-05,8e-05,-0.00011,-0.00012,0,4,12
18616,0,3e-05,3e-05,8e-05,8e-05,-0.00011,-0.00012,0,4,12
18617,0,3e-05,3e-05,8e-05,8e-05,-0.00011,-0.00012,0,4,12
18618,0,3e-05,3e-05,8e-05,8e-05,-0.00011,-0.00012,0,4,12
18619,0,3e-05,3e-05,8e-05,8e-05,-0.00011,-0.00012,0,4,12
18620,0,3e-05,3e-05,8e-05,8e-05,-0.00011,-0.00012,0,4,12
18621,0,3e-05,3e-05,8e-05,8e-05,-0.00011,-0.00012,0,4,12
18622,0,3e-05,3e-05,8e-05,8e-05,-0.00011,-0.00012,0,4,12
18623,0,3e-05,3e-05,8e-05,8e-05,-0.00011,-0.00012,0,4,12
18624,2e-05,7e-05,0.00011,0.00012,0.00032,-0.00022,8e-05,9e-05,4,12
18625,2e-05,7e-05,0.00011,0.00012,0.00032,-0.00022,8e-05,9e-05,4,12
18626,-5e-05,-1e-05,-6e-05,-3e-05,-0.00087,-0.00026,-8e-05,4e-05,4,12
18627,-5e-05,-1e-05,-6e-05,-3e-05,-0.00087,-0.00026,-8e-05,4e-05,4,12
18628,-5e-05,-1e-05,-6e-05,-3e-05,-0.00087,-0.00026,-8e-05,4e-05,4,12
18629,-5e-05,-1e-05,-6e-05,-3e-05,-0.00087,-0.00026,-8e-05,4e-05,4,12
18630,-5e-05,-1e-05,-6e-05,-3e-05,-0.00087,-0.00026,-8e-05,4e-05,4,12
18631,-5e-05,-1e-05,-6e-05,-3e-05,-0.00087,-0.00026,-8e-05,4e-05,4,12
18632,-5e-05,-1e-05,-6e-05,-3e-05,-0.00087,-0.00026,-8e-05,4e-05,4,12
18633,-5e-05,-1e-05,-6e-05,-3e-05,-0.00087,-0.00026,-8e-05,4e-05,4,12
18634,-5e-05,-1e-05,-6e-05,-3e-05,-0.00087,-0.00026,-8e-05,4e-05,4,12
18635,-5e-05,-1e-05,-6e-05,-3e-05,-0.00087,-0.00026,-8e-05,4e-05,4,12
18636,-5e-05,-1e-05,-6e-05,-3e-05,-0.00087,-0.00026,-8e-05,4e-05,4,12
18638,0,-2e-05,7e-05,6e-05,0.00072,0.00094,0.00012,-6e-05,4,12
18639,0,-2e-05,7e-05,6e-05,0.00072,0.00094,0.00012,-6e-05,4,12
18640,0,-2e-05,7e-05,6e-05,0.00072,0.00094,0.00012,-6e-05,4,12
18641,0,-2e-05,7e-05,6e-05,0.00072,0.00094,0.00012,-6e-05,4,12
18642,0,-2e-05,7e-05,6e-05,0.00072,0.00094,0.00012,-6e-05,4,12
18643,0,-2e-05,7e-05,6e-05,0.00072,0.00094,0.00012,-6e-05,4,12
18644,0,-2e-05,7e-05,6e-05,0.00072,0.00094,0.00012,-6e-05,4,12
18645,0,-2e-05,7e-05,6e-05,0.00072,0.00094,0.00012,-6e-05,4,12
18646,0,-2e-05,7e-05,6e-05,0.00072,0.00094,0.00012,-6e-05,4,12
18647,0,4e-05,0.00011,6e-05,0.00039,-0.00025,3e-05,2e-05,4,12
18648,0,4e-05,0.00011,6e-05,0.00039,-0.00025,3e-05,2e-05,4,12
18649,0,4e-05,0.00011,6e-05,0.00039,-0.00025,3e-05,2e-05,4,12
18650,0,4e-05,0.00011,6e-05,0.00039,-0.00025,3e-05,2e-05,4,12
18651,0,4e-05,0.00011,6e-05,0.00039,-0.00025,3e-05,2e-05,4,12
18652,0,4e-05,0.00011,6e-05,0.00039,-0.00025,3e-05,2e-05,4,12
18653,0,4e-05,0.00011,6e-05,0.00039,-0.00025,3e-05,2e-05,4,12
18654,0,4e-05,0.00011,6e-05,0.00039,-0.00025,3e-05,2e-05,4,12
18656,0,4e-05,0.00011,6e-05,0.00039,-0.00025,3e-05,2e-05,4,12
18657,0,4e-05,0.00011,6e-05,0.00039,-0.00025,3e-05,2e-05,4,12
18658,0,4e-05,0.00011,6e-05,0.00039,-0.00025,3e-05,2e-05,4,12
18659,0,4e-05,0.00011,6e-05,0.00039,-0.00025,3e-05,2e-05,4,12
18660,0,4e-05,0.00011,6e-05,0.00039,-0.00025,3e-05,2e-05,4,12
18661,0,4e-05,0.00011,6e-05,0.00039,-0.00025,3e-05,2e-05,4,12
18662,-2e-05,-3e-05,-4e-05,-4e-05,0.00026,-0.0002,0.00017,4e-05,4,12
18663,-2e-05,-3e-05,-4e-05,-4e-05,0.00026,-0.0002,0.00017,4e-05,4,12
18664,-7e-05,-0.00015,-0.00031,-0.0006,-0.00028,-0.00037,-4e-05,-3e-05,4,12
18665,-7e-05,-0.00015,-0.00031,-0.0006,-0.00028,-0.00037,-4e-05,-3e-05,4,12
18666,-7e-05,-0.00015,-0.00031,-0.0006,-0.00028,-0.00037,-4e-05,-3e-05,4,12
18667,-7e-05,-0.00015,-0.00031,-0.0006,-0.00028,-0.00037,-4e-05,-3e-05,4,12
18668,-7e-05,-0.00015,-0.00031,-0.0006,-0.00028,-0.00037,-4e-05,-3e-05,4,12
18669,-7e-05,-0.00015,-0.00031,-0.0006,-0.00028,-0.00037,-4e-05,-3e-05,4,12
18670,-7e-05,-0.00015,-0.00031,-0.0006,-0.00028,-0.00037,-4e-05,-3e-05,4,12
18671,-7e-05,-0.00015,-0.00031,-0.0006,-0.00028,-0.00037,-4e-05,-3e-05,4,12
18672,-7e-05,-0.00015,-0.00031,-0.0006,-0.00028,-0.00037,-4e-05,-3e-05,4,12
18673,-7e-05,-0.00015,-0.00031,-0.0006,-0.00028,-0.00037,-4e-05,-3e-05,4,12
18674,-7e-05,-0.00015,-0.00031,-0.0006,-0.00028,-0.00037,-4e-05,-3e-05,4,12
18675,-7e-05,-0.00015,-0.00031,-0.0006,-0.00028,-0.00037,-4e-05,-3e-05,4,12
18676,-7e-05,-0.00015,-0.00031,-0.0006,-0.00028,-0.00037,-4e-05,-3e-05,4,12
18677,-7e-05,-0.00015,-0.00031,-0.0006,-0.00028,-0.00037,-4e-05,-3e-05,4,12
18678,-7e-05,-0.00015,-0.00031,-0.0006,-0.00028,-0.00037,-4e-05,-3e-05,4,12
18679,-7e-05,-0.00015,-0.00031,-0.0006,-0.00028,-0.00037,-4e-05,-3e-05,4,12
18680,-7e-05,-0.00015,-0.00031,-0.0006,-0.00028,-0.00037,-4e-05,-3e-05,4,12
18681,-7e-05,-0.00015,-0.00031,-0.0006,-0.00028,-0.00037,-4e-05,-3e-05,4,12
18682,-7e-05,-0.00015,-0.00031,-0.0006,-0.00028,-0.00037,-4e-05,-3e-05,4,12
18683,-7e-05,-0.00015,-0.00031,-0.0006,-0.00028,-0.00037,-4e-05,-3e-05,4,12
18684,2e-05,4e-05,3e-05,-4e-05,0.00033,-0.00011,-4e-05,-8e-05,4,12
18685,2e-05,4e-05,3e-05,-4e-05,0.00033,-0.00011,-4e-05,-8e-05,4,12
18686,-9e-05,-2e-05,4e-05,0.00011,0.00024,0.00027,8e-05,-5e-05,4,12
18688,-9e-05,-2e-05,4e-05,0.00011,0.00024,0.00027,8e-05,-5e-05,4,12
18689,-9e-05,-2e-05,4e-05,0.00011,0.00024,0.00027,8e-05,-5e-05,4,12
18690,-9e-05,-2e-05,4e-05,0.00011,0.00024,0.00027,8e-05,-5e-05,4,12
18691,-9e-05,-2e-05,4e-05,0.00011,0.00024,0.00027,8e-05,-5e-05,4,12
18692,-9e-05,-2e-05,4e-05,0.00011,0.00024,0.00027,8e-05,-5e-05,4,12
18693,-9e-05,-2e-05,4e-05,0.00011,0.00024,0.00027,8e-05,-5e-05,4,12
18694,-9e-05,-2e-05,4e-05,0.00011,0.00024,0.00027,8e-05,-5e-05,4,12
18695,-9e-05,-2e-05,4e-05,0.00011,0.00024,0.00027,8e-05,-5e-05,4,12
18696,-9e-05,-2e-05,4e-05,0.00011,0.00024,0.00027,8e-05,-5e-05,4,12
18697,-9e-05,-2e-05,4e-05,0.00011,0.00024,0.00027,8e-05,-5e-05,4,12
18698,-5e-05,-4e-05,-8e-05,-3e-05,-0.00053,0.00016,-0.00012,-8e-05,4,12
18699,-5e-05,-4e-05,-8e-05,-3e-05,-0.00053,0.00016,-0.00012,-8e-05,4,12
18700,-5e-05,-4e-05,-8e-05,-3e-05,-0.00053,0.00016,-0.00012,-8e-05,4,12
18701,-5e-05,-4e-05,-8e-05,-3e-05,-0.00053,0.00016,-0.00012,-8e-05,4,12
18702,-5e-05,-4e-05,-8e-05,-3e-05,-0.00053,0.00016,-0.00012,-8e-05,4,12
18703,-5e-05,-4e-05,-8e-05,-3e-05,-0.00053,0.00016,-0.00012,-8e-05,4,12
18704,-5e-05,-4e-05,-8e-05,-3e-05,-0.00053,0.00016,-0.00012,-8e-05,4,12
18705,-5e-05,-4e-05,-8e-05,-3e-05,-0.00053,0.00016,-0.00012,-8e-05,4,12
18706,-5e-05,-4e-05,-8e-05,-3e-05,-0.00053,0.00016,-0.00012,-8e-05,4,12
18707,0.00018,-1e-05,0,9e-05,-0.00012,-0.00041,4e-05,0.00016,4,12
18708,1e-05,6e-05,0.00019,0.00015,-0.00013,0.00046,6e-05,-1e-05,4,12
18709,1e-05,6e-05,0.00019,0.00015,-0.00013,0.00046,6e-05,-1e-05,4,12
18710,1e-05,6e-05,0.00019,0.00015,-0.00013,0.00046,6e-05,-1e-05,4,12
18711,1e-05,6e-05,0.00019,0.00015,-0.00013,0.00046,6e-05,-1e-05,4,12
18712,1e-05,6e-05,0.00019,0.00015,-0.00013,0.00046,6e-05,-1e-05,4,12
18713,1e-05,6e-05,0.00019,0.00015,-0.00013,0.00046,6e-05,-1e-05,4,12
18714,1e-05,6e-05,0.00019,0.00015,-0.00013,0.00046,6e-05,-1e-05,4,12
18715,1e-05,6e-05,0.00019,0.00015,-0.00013,0.00046,6e-05,-1e-05,4,12
18716,1e-05,6e-05,0.00019,0.00015,-0.00013,0.00046,6e-05,-1e-05,4,12
18717,1e-05,6e-05,0.00019,0.00015,-0.00013,0.00046,6e-05,-1e-05,4,12
18718,1e-05,6e-05,0.00019,0.00015,-0.00013,0.00046,6e-05,-1e-05,4,12
18719,1e-05,6e-05,0.00019,0.00015,-0.00013,0.00046,6e-05,-1e-05,4,12
18720,1e-05,6e-05,0.00019,0.00015,-0.00013,0.00046,6e-05,-1e-05,4,12
18721,1e-05,6e-05,0.00019,0.00015,-0.00013,0.00046,6e-05,-1e-05,4,12
18722,-0.00011,-5e-05,0,0.00011,0.00067,-0.00025,-8e-05,-9e-05,4,12
18723,3e-05,-1e-05,3e-05,0.00029,0.0002,-0.00022,-1e-05,3e-05,4,12
18725,3e-05,-1e-05,3e-05,0.00029,0.0002,-0.00022,-1e-05,3e-05,4,12
18726,3e-05,-1e-05,3e-05,0.00029,0.0002,-0.00022,-1e-05,3e-05,4,12
18727,3e-05,-1e-05,3e-05,0.00029,0.0002,-0.00022,-1e-05,3e-05,4,12
18728,3e-05,-1e-05,3e-05,0.00029,0.0002,-0.00022,-1e-05,3e-05,4,12
18729,3e-05,-1e-05,3e-05,0.00029,0.0002,-0.00022,-1e-05,3e-05,4,12
18730,3e-05,-1e-05,3e-05,0.00029,0.0002,-0.00022,-1e-05,3e-05,4,12
18731,3e-05,-1e-05,3e-05,0.00029,0.0002,-0.00022,-1e-05,3e-05,4,12
18732,3e-05,-1e-05,3e-05,0.00029,0.0002,-0.00022,-1e-05,3e-05,4,12
18733,3e-05,-1e-05,3e-05,0.00029,0.0002,-0.00022,-1e-05,3e-05,4,12
18734,3e-05,-1e-05,3e-05,0.00029,0.0002,-0.00022,-1e-05,3e-05,4,12
18735,3e-05,-1e-05,3e-05,0.00029,0.0002,-0.00022,-1e-05,3e-05,4,12
18736,3e-05,-1e-05,3e-05,0.00029,0.0002,-0.00022,-1e-05,3e-05,4,12
18738,3e-05,-1e-05,3e-05,0.00029,0.0002,-0.00022,-1e-05,3e-05,4,12
18739,3e-05,-1e-05,3e-05,0.00029,0.0002,-0.00022,-1e-05,3e-05,4,12
18740,3e-05,-1e-05,3e-05,0.00029,0.0002,-0.00022,-1e-05,3e-05,4,12
18741,3e-05,-1e-05,3e-05,0.00029,0.0002,-0.00022,-1e-05,3e-05,4,12
18742,3e-05,-1e-05,3e-05,0.00029,0.0002,-0.00022,-1e-05,3e-05,4,12
18743,3e-05,-1e-05,3e-05,0.00029,0.0002,-0.00022,-1e-05,3e-05,4,12
18744,7e-05,4e-05,9e-05,0.00021,-6e-05,4e-05,7e-05,5e-05,4,12
18745,7e-05,4e-05,9e-05,0.00021,-6e-05,4e-05,7e-05,5e-05,4,12
18746,3e-05,2e-05,4e-05,-0.00011,-0.0004,0.0003,0.00013,6e-05,4,12
18747,3e-05,2e-05,4e-05,-0.00011,-0.0004,0.0003,0.00013,6e-05,4,12
18748,3e-05,2e-05,4e-05,-0.00011,-0.0004,0.0003,0.00013,6e-05,4,12
18749,3e-05,2e-05,4e-05,-0.00011,-0.0004,0.0003,0.00013,6e-05,4,12
18750,3e-05,2e-05,4e-05,-0.00011,-0.0004,0.0003,0.00013,6e-05,4,12
18751,3e-05,2e-05,4e-05,-0.00011,-0.0004,0.0003,0.00013,6e-05,4,12
18752,3e-05,2e-05,4e-05,-0.00011,-0.0004,0.0003,0.00013,6e-05,4,12
18753,3e-05,2e-05,4e-05,-0.00011,-0.0004,0.0003,0.00013,6e-05,4,12
18754,3e-05,2e-05,4e-05,-0.00011,-0.0004,0.0003,0.00013,6e-05,4,12
18755,3e-05,2e-05,4e-05,-0.00011,-0.0004,0.0003,0.00013,6e-05,4,12
18756,3e-05,2e-05,4e-05,-0.00011,-0.0004,0.0003,0.00013,6e-05,4,12
18757,3e-05,2e-05,4e-05,-0.00011,-0.0004,0.0003,0.00013,6e-05,4,12
18758,3e-05,2e-05,4e-05,-0.00011,-0.0004,0.0003,0.00013,6e-05,4,12
18759,3e-05,2e-05,4e-05,-0.00011,-0.0004,0.0003,0.00013,6e-05,4,12
18760,3e-05,2e-05,4e-05,-0.00011,-0.0004,0.0003,0.00013,6e-05,4,12
18761,3e-05,2e-05,4e-05,-0.00011,-0.0004,0.0003,0.00013,6e-05,4,12
18762,3e-05,2e-05,4e-05,-0.00011,-0.0004,0.0003,0.00013,6e-05,4,12
18763,3e-05,2e-05,4e-05,-0.00011,-0.0004,0.0003,0.00013,6e-05,4,12
18764,3e-05,2e-05,4e-05,-0.00011,-0.0004,0.0003,0.00013,6e-05,4,12
18765,3e-05,2e-05,4e-05,-0.00011,-0.0004,0.0003,0.00013,6e-05,4,12
18766,3e-05,2e-05,4e-05,-0.00011,-0.0004,0.0003,0.00013,6e-05,4,12
18767,0,-6e-05,-0.00013,-1e-05,0,0.0001,1e-05,1e-05,4,12
18768,-0.00018,-3e-05,-4e-05,-7e-05,-0.00033,-0.00022,-6e-05,-5e-05,4,12
18769,-0.00018,-3e-05,-4e-05,-7e-05,-0.00033,-0.00022,-6e-05,-5e-05,4,12
18770,-0.00018,-3e-05,-4e-05,-7e-05,-0.00033,-0.00022,-6e-05,-5e-05,4,12
18771,-0.00018,-3e-05,-4e-05,-7e-05,-0.00033,-0.00022,-6e-05,-5e-05,4,12
18772,-0.00018,-3e-05,-4e-05,-7e-05,-0.00033,-0.00022,-6e-05,-5e-05,4,12
18773,-0.00018,-3e-05,-4e-05,-7e-05,-0.00033,-0.00022,-6e-05,-5e-05,4,12
18774,-0.00018,-3e-05,-4e-05,-7e-05,-0.00033,-0.00022,-6e-05,-5e-05,4,12
18775,-0.00018,-3e-05,-4e-05,-7e-05,-0.00033,-0.00022,-6e-05,-5e-05,4,12
18776,-0.00018,-3e-05,-4e-05,-7e-05,-0.00033,-0.00022,-6e-05,-5e-05,4,12
18777,-0.00018,-3e-05,-4e-05,-7e-05,-0.00033,-0.00022,-6e-05,-5e-05,4,12
18778,-0.00018,-3e-05,-4e-05,-7e-05,-0.00033,-0.00022,-6e-05,-5e-05,4,12
18779,-0.00018,-3e-05,-4e-05,-7e-05,-0.00033,-0.00022,-6e-05,-5e-05,4,12
18780,-0.00018,-3e-05,-4e-05,-7e-05,-0.00033,-0.00022,-6e-05,-5e-05,4,12
18781,-0.00018,-3e-05,-4e-05,-7e-05,-0.00033,-0.00022,-6e-05,-5e-05,4,12
18782,-2e-05,0,4e-05,-7e-05,-0.00032,-0.00026,0,6e-05,4,12
18783,3e-05,3e-05,2e-05,0.00021,-5e-05,0.00027,5e-05,-2e-05,4,12
18784,-4e-05,-4e-05,-0.00012,-0.00021,-0.00024,-0.00023,-6e-05,-6e-05,4,12
18785,-4e-05,-4e-05,-0.00012,-0.00021,-0.00024,-0.00023,-6e-05,-6e-05,4,12
18786,-4e-05,-4e-05,-0.00012,-0.00021,-0.00024,-0.00023,-6e-05,-6e-05,4,12
18788,-4e-05,-4e-05,-0.00012,-0.00021,-0.00024,-0.00023,-6e-05,-6e-05,4,12
18789,-4e-05,-4e-05,-0.00012,-0.00021,-0.00024,-0.00023,-6e-05,-6e-05,4,12
18790,-4e-05,-4e-05,-0.00012,-0.00021,-0.00024,-0.00023,-6e-05,-6e-05,4,12
18791,-4e-05,-4e-05,-0.00012,-0.00021,-0.00024,-0.00023,-6e-05,-6e-05,4,12
18792,-4e-05,-4e-05,-0.00012,-0.00021,-0.00024,-0.00023,-6e-05,-6e-05,4,12
18793,-4e-05,-4e-05,-0.00012,-0.00021,-0.00024,-0.00023,-6e-05,-6e-05,4,12
18794,-4e-05,-4e-05,-0.00012,-0.00021,-0.00024,-0.00023,-6e-05,-6e-05,4,12
18795,-4e-05,-4e-05,-0.00012,-0.00021,-0.00024,-0.00023,-6e-05,-6e-05,4,12
18796,-4e-05,-4e-05,-0.00012,-0.00021,-0.00024,-0.00023,-6e-05,-6e-05,4,12
18797,-4e-05,-4e-05,-0.00012,-0.00021,-0.00024,-0.00023,-6e-05,-6e-05,4,12
18798,-4e-05,-4e-05,-0.00012,-0.00021,-0.00024,-0.00023,-6e-05,-6e-05,4,12
18799,-4e-05,-4e-05,-0.00012,-0.00021,-0.00024,-0.00023,-6e-05,-6e-05,4,12
18800,-4e-05,-4e-05,-0.00012,-0.00021,-0.00024,-0.00023,-6e-05,-6e-05,4,12
18801,-4e-05,-4e-05,-0.00012,-0.00021,-0.00024,-0.00023,-6e-05,-6e-05,4,12
18802,-4e-05,-4e-05,-0.00012,-0.00021,-0.00024,-0.00023,-6e-05,-6e-05,4,12
18803,-4e-05,-4e-05,-0.00012,-0.00021,-0.00024,-0.00023,-6e-05,-6e-05,4,12
18804,-0.00012,-5e-05,-7e-05,4e-05,-4e-05,-0.00046,-0.0001,-7e-05,4,12
18805,-0.00012,-5e-05,-7e-05,4e-05,-4e-05,-0.00046,-0.0001,-7e-05,4,12
18806,3e-05,2e-05,2e-05,-6e-05,0.00081,0.00014,3e-05,-1e-05,4,12
18807,3e-05,2e-05,2e-05,-6e-05,0.00081,0.00014,3e-05,-1e-05,4,12
18808,3e-05,2e-05,2e-05,-6e-05,0.00081,0.00014,3e-05,-1e-05,4,12
18809,3e-05,2e-05,2e-05,-6e-05,0.00081,0.00014,3e-05,-1e-05,4,12
18810,3e-05,2e-05,2e-05,-6e-05,0.00081,0.00014,3e-05,-1e-05,4,12
18811,3e-05,2e-05,2e-05,-6e-05,0.00081,0.00014,3e-05,-1e-05,4,12
18812,3e-05,2e-05,2e-05,-6e-05,0.00081,0.00014,3e-05,-1e-05,4,12
18813,3e-05,2e-05,2e-05,-6e-05,0.00081,0.00014,3e-05,-1e-05,4,12
18814,3e-05,2e-05,2e-05,-6e-05,0.00081,0.00014,3e-05,-1e-05,4,12
18815,3e-05,2e-05,2e-05,-6e-05,0.00081,0.00014,3e-05,-1e-05,4,12
18816,3e-05,2e-05,2e-05,-6e-05,0.00081,0.00014,3e-05,-1e-05,4,12
18817,3e-05,2e-05,2e-05,-6e-05,0.00081,0.00014,3e-05,-1e-05,4,12
18818,3e-05,2e-05,2e-05,-6e-05,0.00081,0.00014,3e-05,-1e-05,4,12
18819,3e-05,2e-05,2e-05,-6e-05,0.00081,0.00014,3e-05,-1e-05,4,12
18820,3e-05,2e-05,2e-05,-6e-05,0.00081,0.00014,3e-05,-1e-05,4,12
18821,3e-05,2e-05,2e-05,-6e-05,0.00081,0.00014,3e-05,-1e-05,4,12
18822,3e-05,2e-05,2e-05,-6e-05,0.00081,0.00014,3e-05,-1e-05,4,12
18823,3e-05,2e-05,2e-05,-6e-05,0.00081,0.00014,3e-05,-1e-05,4,12
18824,3e-05,2e-05,2e-05,-6e-05,0.00081,0.00014,3e-05,-1e-05,4,12
18825,3e-05,2e-05,2e-05,-6e-05,0.00081,0.00014,3e-05,-1e-05,4,12
18826,3e-05,2e-05,2e-05,-6e-05,0.00081,0.00014,3e-05,-1e-05,4,12
18827,-9e-05,-8e-05,-1e-05,9e-05,0.00011,0.00027,-0.00023,-9e-05,4,12
18828,-8e-05,-2e-05,-5e-05,-0.00015,0.0004,0.00012,2e-05,-3e-05,4,12
18829,2e-05,4e-05,7e-05,-1e-05,-0.00037,0.00022,9e-05,-6e-05,4,12
18830,2e-05,4e-05,7e-05,-1e-05,-0.00037,0.00022,9e-05,-6e-05,4,12
18831,2e-05,4e-05,7e-05,-1e-05,-0.00037,0.00022,9e-05,-6e-05,4,12
18832,2e-05,4e-05,7e-05,-1e-05,-0.00037,0.00022,9e-05,-6e-05,4,12
18833,2e-05,4e-05,7e-05,-1e-05,-0.00037,0.00022,9e-05,-6e-05,4,12
18834,2e-05,4e-05,7e-05,-1e-05,-0.00037,0.00022,9e-05,-6e-05,4,12
18835,2e-05,4e-05,7e-05,-1e-05,-0.00037,0.00022,9e-05,-6e-05,4,12
18836,2e-05,4e-05,7e-05,-1e-05,-0.00037,0.00022,9e-05,-6e-05,4,12
18838,2e-05,4e-05,7e-05,-1e-05,-0.00037,0.00022,9e-05,-6e-05,4,12
18839,2e-05,4e-05,7e-05,-1e-05,-0.00037,0.00022,9e-05,-6e-05,4,12
18840,2e-05,4e-05,7e-05,-1e-05,-0.00037,0.00022,9e-05,-6e-05,4,12
18841,2e-05,4e-05,7e-05,-1e-05,-0.00037,0.00022,9e-05,-6e-05,4,12
18842,3e-05,-1e-05,1e-05,0,-0.00053,-0.00031,-9e-05,-2e-05,4,12
18843,0.00017,4e-05,0.0001,0.00027,0.00085,0.0007,0.00017,0.00015,4,12
18844,0.00017,4e-05,0.0001,0.00027,0.00085,0.0007,0.00017,0.00015,4,12
18845,0.00017,4e-05,0.0001,0.00027,0.00085,0.0007,0.00017,0.00015,4,12
18846,0.00017,4e-05,0.0001,0.00027,0.00085,0.0007,0.00017,0.00015,4,12
18847,0.00017,4e-05,0.0001,0.00027,0.00085,0.0007,0.00017,0.00015,4,12
18848,0.00017,4e-05,0.0001,0.00027,0.00085,0.0007,0.00017,0.00015,4,12
18849,0.00017,4e-05,0.0001,0.00027,0.00085,0.0007,0.00017,0.00015,4,12
18850,0.00017,4e-05,0.0001,0.00027,0.00085,0.0007,0.00017,0.00015,4,12
18851,0.00017,4e-05,0.0001,0.00027,0.00085,0.0007,0.00017,0.00015,4,12
18852,0.00017,4e-05,0.0001,0.00027,0.00085,0.0007,0.00017,0.00015,4,12
18853,0.00017,4e-05,0.0001,0.00027,0.00085,0.0007,0.00017,0.00015,4,12
18854,0.00017,4e-05,0.0001,0.00027,0.00085,0.0007,0.00017,0.00015,4,12
18855,0.00017,4e-05,0.0001,0.00027,0.00085,0.0007,0.00017,0.00015,4,12
18856,0.00017,4e-05,0.0001,0.00027,0.00085,0.0007,0.00017,0.00015,4,12
18857,0.00017,4e-05,0.0001,0.00027,0.00085,0.0007,0.00017,0.00015,4,12
18858,0.00017,4e-05,0.0001,0.00027,0.00085,0.0007,0.00017,0.00015,4,12
18859,0.00017,4e-05,0.0001,0.00027,0.00085,0.0007,0.00017,0.00015,4,12
18860,0.00017,4e-05,0.0001,0.00027,0.00085,0.0007,0.00017,0.00015,4,12
18861,0.00017,4e-05,0.0001,0.00027,0.00085,0.0007,0.00017,0.00015,4,12
18862,0.00017,4e-05,0.0001,0.00027,0.00085,0.0007,0.00017,0.00015,4,12
18863,0.00017,4e-05,0.0001,0.00027,0.00085,0.0007,0.00017,0.00015,4,12
18864,0,1e-05,7e-05,0.00022,0,0.0001,0.00018,1e-05,4,12
18865,0,1e-05,7e-05,0.00022,0,0.0001,0.00018,1e-05,4,12
18866,0.00021,-4e-05,-0.00015,-0.00028,-0.00043,-0.0004,-8e-05,0.00017,4,12
18867,0.00021,-4e-05,-0.00015,-0.00028,-0.00043,-0.0004,-8e-05,0.00017,4,12
18868,0.00021,-4e-05,-0.00015,-0.00028,-0.00043,-0.0004,-8e-05,0.00017,4,12
18869,0.00021,-4e-05,-0.00015,-0.00028,-0.00043,-0.0004,-8e-05,0.00017,4,12
18870,0.00021,-4e-05,-0.00015,-0.00028,-0.00043,-0.0004,-8e-05,0.00017,4,12
18871,0.00021,-4e-05,-0.00015,-0.00028,-0.00043,-0.0004,-8e-05,0.00017,4,12
18872,0.00021,-4e-05,-0.00015,-0.00028,-0.00043,-0.0004,-8e-05,0.00017,4,12
18873,0.00021,-4e-05,-0.00015,-0.00028,-0.00043,-0.0004,-8e-05,0.00017,4,12
18874,0.00021,-4e-05,-0.00015,-0.00028,-0.00043,-0.0004,-8e-05,0.00017,4,12
18875,0.00021,-4e-05,-0.00015,-0.00028,-0.00043,-0.0004,-8e-05,0.00017,4,12
18876,0.00021,-4e-05,-0.00015,-0.00028,-0.00043,-0.0004,-8e-05,0.00017,4,12
18877,0.00021,-4e-05,-0.00015,-0.00028,-0.00043,-0.0004,-8e-05,0.00017,4,12
18878,0.00021,-4e-05,-0.00015,-0.00028,-0.00043,-0.0004,-8e-05,0.00017,4,12
18879,0.00021,-4e-05,-0.00015,-0.00028,-0.00043,-0.0004,-8e-05,0.00017,4,12
18880,0.00021,-4e-05,-0.00015,-0.00028,-0.00043,-0.0004,-8e-05,0.00017,4,12
18881,0.00021,-4e-05,-0.00015,-0.00028,-0.00043,-0.0004,-8e-05,0.00017,4,12
18882,0.00021,-4e-05,-0.00015,-0.00028,-0.00043,-0.0004,-8e-05,0.00017,4,12
18883,0.00021,-4e-05,-0.00015,-0.00028,-0.00043,-0.0004,-8e-05,0.00017,4,12
18884,0.00021,-4e-05,-0.00015,-0.00028,-0.00043,-0.0004,-8e-05,0.00017,4,12
18885,0.00021,-4e-05,-0.00015,-0.00028,-0.00043,-0.0004,-8e-05,0.00017,4,12
18886,0.00021,-4e-05,-0.00015,-0.00028,-0.00043,-0.0004,-8e-05,0.00017,4,12
18889,-0.00016,-4e-05,-9e-05,-9e-05,0.00018,6e-05,-3e-05,-0.00013,4,12
18890,-0.00016,-4e-05,-9e-05,-9e-05,0.00018,6e-05,-3e-05,-0.00013,4,12
18891,-0.00016,-4e-05,-9e-05,-9e-05,0.00018,6e-05,-3e-05,-0.00013,4,12
18892,-0.00016,-4e-05,-9e-05,-9e-05,0.00018,6e-05,-3e-05,-0.00013,4,12
18893,-0.00016,-4e-05,-9e-05,-9e-05,0.00018,6e-05,-3e-05,-0.00013,4,12
18894,-0.00016,-4e-05,-9e-05,-9e-05,0.00018,6e-05,-3e-05,-0.00013,4,12
18895,-0.00016,-4e-05,-9e-05,-9e-05,0.00018,6e-05,-3e-05,-0.00013,4,12
18896,-0.00016,-4e-05,-9e-05,-9e-05,0.00018,6e-05,-3e-05,-0.00013,4,12
18897,-0.00016,-4e-05,-9e-05,-9e-05,0.00018,6e-05,-3e-05,-0.00013,4,12
18898,-0.00016,-4e-05,-9e-05,-9e-05,0.00018,6e-05,-3e-05,-0.00013,4,12
18899,-0.00016,-4e-05,-9e-05,-9e-05,0.00018,6e-05,-3e-05,-0.00013,4,12
18900,0.0001,4e-05,8e-05,6e-05,0.00028,8e-05,7e-05,1e-05,4,12
18901,-7e-05,-0.0001,-3e-05,-1e-05,-0.00026,0.00012,-8e-05,-6e-05,4,12
18902,-7e-05,-0.0001,-3e-05,-1e-05,-0.00026,0.00012,-8e-05,-6e-05,4,12
18903,-7e-05,-0.0001,-3e-05,-1e-05,-0.00026,0.00012,-8e-05,-6e-05,4,12
18904,-7e-05,-0.0001,-3e-05,-1e-05,-0.00026,0.00012,-8e-05,-6e-05,4,12
18905,-7e-05,-0.0001,-3e-05,-1e-05,-0.00026,0.00012,-8e-05,-6e-05,4,12
18906,-7e-05,-0.0001,-3e-05,-1e-05,-0.00026,0.00012,-8e-05,-6e-05,4,12
18907,-7e-05,-0.0001,-3e-05,-1e-05,-0.00026,0.00012,-8e-05,-6e-05,4,12
18908,-7e-05,-0.0001,-3e-05,-1e-05,-0.00026,0.00012,-8e-05,-6e-05,4,12
18909,-5e-05,1e-05,0.00011,0.00022,-0.00033,-0.00018,-0.00017,-7e-05,4,12
18910,-5e-05,1e-05,0.00011,0.00022,-0.00033,-0.00018,-0.00017,-7e-05,4,12
18911,-5e-05,1e-05,0.00011,0.00022,-0.00033,-0.00018,-0.00017,-7e-05,4,12
18912,-5e-05,1e-05,0.00011,0.00022,-0.00033,-0.00018,-0.00017,-7e-05,4,12
18913,-5e-05,1e-05,0.00011,0.00022,-0.00033,-0.00018,-0.00017,-7e-05,4,12
18914,-5e-05,1e-05,0.00011,0.00022,-0.00033,-0.00018,-0.00017,-7e-05,4,12
18915,-5e-05,1e-05,0.00011,0.00022,-0.00033,-0.00018,-0.00017,-7e-05,4,12
18916,-5e-05,1e-05,0.00011,0.00022,-0.00033,-0.00018,-0.00017,-7e-05,4,12
18917,-5e-05,1e-05,0.00011,0.00022,-0.00033,-0.00018,-0.00017,-7e-05,4,12
18918,-5e-05,1e-05,0.00011,0.00022,-0.00033,-0.00018,-0.00017,-7e-05,4,12
18919,-5e-05,1e-05,0.00011,0.00022,-0.00033,-0.00018,-0.00017,-7e-05,4,12
18920,-5e-05,1e-05,0.00011,0.00022,-0.00033,-0.00018,-0.00017,-7e-05,4,12
18921,-5e-05,1e-05,0.00011,0.00022,-0.00033,-0.00018,-0.00017,-7e-05,4,12
18922,-5e-05,1e-05,0.00011,0.00022,-0.00033,-0.00018,-0.00017,-7e-05,4,12
18923,-5e-05,1e-05,0.00011,0.00022,-0.00033,-0.00018,-0.00017,-7e-05,4,12
18924,-2e-05,1e-05,-8e-05,-0.00031,-0.00036,-0.00033,-7e-05,0,4,12
18925,-2e-05,1e-05,-8e-05,-0.00031,-0.00036,-0.00033,-7e-05,0,4,12
18926,-3e-05,-1e-05,-1e-05,7e-05,0.00027,0.00032,5e-05,-6e-05,4,12
18927,-3e-05,-1e-05,-1e-05,7e-05,0.00027,0.00032,5e-05,-6e-05,4,12
18928,-3e-05,-1e-05,-1e-05,7e-05,0.00027,0.00032,5e-05,-6e-05,4,12
18929,-3e-05,-1e-05,-1e-05,7e-05,0.00027,0.00032,5e-05,-6e-05,4,12
18930,-3e-05,-1e-05,-1e-05,7e-05,0.00027,0.00032,5e-05,-6e-05,4,12
18931,-3e-05,-1e-05,-1e-05,7e-05,0.00027,0.00032,5e-05,-6e-05,4,12
18932,-3e-05,-1e-05,-1e-05,7e-05,0.00027,0.00032,5e-05,-6e-05,4,12
18933,-3e-05,-1e-05,-1e-05,7e-05,0.00027,0.00032,5e-05,-6e-05,4,12
18934,-3e-05,-1e-05,-1e-05,7e-05,0.00027,0.00032,5e-05,-6e-05,4,12
18935,-3e-05,-1e-05,-1e-05,7e-05,0.00027,0.00032,5e-05,-6e-05,4,12
18936,-3e-05,-1e-05,-1e-05,7e-05,0.00027,0.00032,5e-05,-6e-05,4,12
18938,-3e-05,-1e-05,-1e-05,7e-05,0.00027,0.00032,5e-05,-6e-05,4,12
18939,-3e-05,-1e-05,-1e-05,7e-05,0.00027,0.00032,5e-05,-6e-05,4,12
18940,-3e-05,-1e-05,-1e-05,7e-05,0.00027,0.00032,5e-05,-6e-05,4,12
18941,-3e-05,-1e-05,-1e-05,7e-05,0.00027,0.00032,5e-05,-6e-05,4,12
18942,-3e-05,-1e-05,-1e-05,7e-05,0.00027,0.00032,5e-05,-6e-05,4,12
18943,-3e-05,-1e-05,-1e-05,7e-05,0.00027,0.00032,5e-05,-6e-05,4,12
18944,-3e-05,-1e-05,-1e-05,7e-05,0.00027,0.00032,5e-05,-6e-05,4,12
18945,-3e-05,-1e-05,-1e-05,7e-05,0.00027,0.00032,5e-05,-6e-05,4,12
18946,-3e-05,-1e-05,-1e-05,7e-05,0.00027,0.00032,5e-05,-6e-05,4,12
18947,0,6e-05,-3e-05,-0.00025,-0.00065,-0.0001,0,-3e-05,4,12
18948,-7e-05,-7e-05,-9e-05,6e-05,8e-05,0.00017,-0.00018,-6e-05,4,12
18949,-7e-05,-7e-05,-9e-05,6e-05,8e-05,0.00017,-0.00018,-6e-05,4,12
18950,-7e-05,-7e-05,-9e-05,6e-05,8e-05,0.00017,-0.00018,-6e-05,4,12
18951,-7e-05,-7e-05,-9e-05,6e-05,8e-05,0.00017,-0.00018,-6e-05,4,12
18952,-7e-05,-7e-05,-9e-05,6e-05,8e-05,0.00017,-0.00018,-6e-05,4,12
18953,-7e-05,-7e-05,-9e-05,6e-05,8e-05,0.00017,-0.00018,-6e-05,4,12
18954,-7e-05,-7e-05,-9e-05,6e-05,8e-05,0.00017,-0.00018,-6e-05,4,12
18955,-7e-05,-7e-05,-9e-05,6e-05,8e-05,0.00017,-0.00018,-6e-05,4,12
18956,-7e-05,-7e-05,-9e-05,6e-05,8e-05,0.00017,-0.00018,-6e-05,4,12
18957,-7e-05,-7e-05,-9e-05,6e-05,8e-05,0.00017,-0.00018,-6e-05,4,12
18958,-7e-05,-7e-05,-9e-05,6e-05,8e-05,0.00017,-0.00018,-6e-05,4,12
18959,-7e-05,-7e-05,-9e-05,6e-05,8e-05,0.00017,-0.00018,-6e-05,4,12
18960,-7e-05,-7e-05,-9e-05,6e-05,8e-05,0.00017,-0.00018,-6e-05,4,12
18961,3e-05,1e-05,0,4e-05,0.00031,0.00048,9e-05,6e-05,4,12
18962,3e-05,1e-05,0,4e-05,0.00031,0.00048,9e-05,6e-05,4,12
18963,3e-05,1e-05,0,4e-05,0.00031,0.00048,9e-05,6e-05,4,12
18964,3e-05,1e-05,0,4e-05,0.00031,0.00048,9e-05,6e-05,4,12
18965,3e-05,1e-05,0,4e-05,0.00031,0.00048,9e-05,6e-05,4,12
18966,3e-05,1e-05,0,4e-05,0.00031,0.00048,9e-05,6e-05,4,12
18967,3e-05,1e-05,0,4e-05,0.00031,0.00048,9e-05,6e-05,4,12
18968,-0.00015,-7e-05,-0.0001,-0.00041,-0.00029,-0.00025,1e-05,-1e-05,4,12
18969,-0.00015,-7e-05,-0.0001,-0.00041,-0.00029,-0.00025,1e-05,-1e-05,4,12
18970,-0.00015,-7e-05,-0.0001,-0.00041,-0.00029,-0.00025,1e-05,-1e-05,4,12
18971,-0.00015,-7e-05,-0.0001,-0.00041,-0.00029,-0.00025,1e-05,-1e-05,4,12
18972,-0.00015,-7e-05,-0.0001,-0.00041,-0.00029,-0.00025,1e-05,-1e-05,4,12
18973,-0.00015,-7e-05,-0.0001,-0.00041,-0.00029,-0.00025,1e-05,-1e-05,4,12
18974,-0.00015,-7e-05,-0.0001,-0.00041,-0.00029,-0.00025,1e-05,-1e-05,4,12
18975,-0.00015,-7e-05,-0.0001,-0.00041,-0.00029,-0.00025,1e-05,-1e-05,4,12
18976,-0.00015,-7e-05,-0.0001,-0.00041,-0.00029,-0.00025,1e-05,-1e-05,4,12
18977,-0.00015,-7e-05,-0.0001,-0.00041,-0.00029,-0.00025,1e-05,-1e-05,4,12
18978,-0.00015,-7e-05,-0.0001,-0.00041,-0.00029,-0.00025,1e-05,-1e-05,4,12
18979,-0.00015,-7e-05,-0.0001,-0.00041,-0.00029,-0.00025,1e-05,-1e-05,4,12
18980,-0.00015,-7e-05,-0.0001,-0.00041,-0.00029,-0.00025,1e-05,-1e-05,4,12
18981,-0.00015,-7e-05,-0.0001,-0.00041,-0.00029,-0.00025,1e-05,-1e-05,4,12
18982,-0.00015,-7e-05,-0.0001,-0.00041,-0.00029,-0.00025,1e-05,-1e-05,4,12
18983,-0.00015,-7e-05,-0.0001,-0.00041,-0.00029,-0.00025,1e-05,-1e-05,4,12
18984,1e-05,1e-05,-4e-05,-0.00025,-0.00038,-0.00019,5e-05,0.00011,4,12
18985,1e-05,1e-05,-4e-05,-0.00025,-0.00038,-0.00019,5e-05,0.00011,4,12
18986,-1e-05,-2e-05,-1e-05,-8e-05,-0.00017,-0.00017,3e-05,1e-05,4,12
18988,-1e-05,-2e-05,-1e-05,-8e-05,-0.00017,-0.00017,3e-05,1e-05,4,12
18989,-1e-05,-2e-05,-1e-05,-8e-05,-0.00017,-0.00017,3e-05,1e-05,4,12
18990,-1e-05,-2e-05,-1e-05,-8e-05,-0.00017,-0.00017,3e-05,1e-05,4,12
18991,-1e-05,-2e-05,-1e-05,-8e-05,-0.00017,-0.00017,3e-05,1e-05,4,12
18992,-1e-05,-2e-05,-1e-05,-8e-05,-0.00017,-0.00017,3e-05,1e-05,4,12
18993,-1e-05,-2e-05,-1e-05,-8e-05,-0.00017,-0.00017,3e-05,1e-05,4,12
18994,-1e-05,-2e-05,-1e-05,-8e-05,-0.00017,-0.00017,3e-05,1e-05,4,12
18995,-1e-05,-2e-05,-1e-05,-8e-05,-0.00017,-0.00017,3e-05,1e-05,4,12
18996,-1e-05,-2e-05,-1e-05,-8e-05,-0.00017,-0.00017,3e-05,1e-05,4,12
18997,-1e-05,-2e-05,-1e-05,-8e-05,-0.00017,-0.00017,3e-05,1e-05,4,12
18998,-1e-05,-2e-05,-1e-05,-8e-05,-0.00017,-0.00017,3e-05,1e-05,4,12
18999,-1e-05,-2e-05,-1e-05,-8e-05,-0.00017,-0.00017,3e-05,1e-05,4,12
19000,-1e-05,-2e-05,-1e-05,-8e-05,-0.00017,-0.00017,3e-05,1e-05,4,12
19001,-1e-05,-2e-05,-1e-05,-8e-05,-0.00017,-0.00017,3e-05,1e-05,4,12
19002,-1e-05,-2e-05,-1e-05,-8e-05,-0.00017,-0.00017,3e-05,1e-05,4,12
19003,-1e-05,-2e-05,-1e-05,-8e-05,-0.00017,-0.00017,3e-05,1e-05,4,12
19004,-1e-05,-2e-05,-1e-05,-8e-05,-0.00017,-0.00017,3e-05,1e-05,4,12
19005,-1e-05,-2e-05,-1e-05,-8e-05,-0.00017,-0.00017,3e-05,1e-05,4,12
19006,-1e-05,-2e-05,-1e-05,-8e-05,-0.00017,-0.00017,3e-05,1e-05,4,12
19007,-6e-05,3e-05,7e-05,2e-05,-3e-05,7e-05,0,-3e-05,4,12
19008,0,-6e-05,-0.00013,-0.00018,-0.00027,3e-05,6e-05,-1e-05,4,12
19009,1e-05,1e-05,1e-05,-1e-05,-0.0001,0.00016,3e-05,-5e-05,4,12
19010,1e-05,1e-05,1e-05,-1e-05,-0.0001,0.00016,3e-05,-5e-05,4,12
19011,1e-05,1e-05,1e-05,-1e-05,-0.0001,0.00016,3e-05,-5e-05,4,12
19012,1e-05,1e-05,1e-05,-1e-05,-0.0001,0.00016,3e-05,-5e-05,4,12
19013,1e-05,1e-05,1e-05,-1e-05,-0.0001,0.00016,3e-05,-5e-05,4,12
19014,1e-05,1e-05,1e-05,-1e-05,-0.0001,0.00016,3e-05,-5e-05,4,12
19015,1e-05,1e-05,1e-05,-1e-05,-0.0001,0.00016,3e-05,-5e-05,4,12
19016,1e-05,1e-05,1e-05,-1e-05,-0.0001,0.00016,3e-05,-5e-05,4,12
19017,1e-05,1e-05,1e-05,-1e-05,-0.0001,0.00016,3e-05,-5e-05,4,12
19018,1e-05,1e-05,1e-05,-1e-05,-0.0001,0.00016,3e-05,-5e-05,4,12
19019,1e-05,1e-05,1e-05,-1e-05,-0.0001,0.00016,3e-05,-5e-05,4,12
19020,1e-05,1e-05,1e-05,-1e-05,-0.0001,0.00016,3e-05,-5e-05,4,12
19021,3e-05,3e-05,8e-05,0.00023,0.00048,0.00041,0.00012,0,4,12
19022,3e-05,3e-05,8e-05,0.00023,0.00048,0.00041,0.00012,0,4,12
19023,3e-05,3e-05,8e-05,0.00023,0.00048,0.00041,0.00012,0,4,12
19024,3e-05,3e-05,8e-05,0.00023,0.00048,0.00041,0.00012,0,4,12
19025,3e-05,3e-05,8e-05,0.00023,0.00048,0.00041,0.00012,0,4,12
19026,3e-05,3e-05,8e-05,0.00023,0.00048,0.00041,0.00012,0,4,12
19027,3e-05,3e-05,8e-05,0.00023,0.00048,0.00041,0.00012,0,4,12
19028,-3e-05,1e-05,6e-05,0.00045,0.00014,-0.00058,-0.0001,-6e-05,4,12
19029,-3e-05,1e-05,6e-05,0.00045,0.00014,-0.00058,-0.0001,-6e-05,4,12
19030,-3e-05,1e-05,6e-05,0.00045,0.00014,-0.00058,-0.0001,-6e-05,4,12
19031,-3e-05,1e-05,6e-05,0.00045,0.00014,-0.00058,-0.0001,-6e-05,4,12
19032,-3e-05,1e-05,6e-05,0.00045,0.00014,-0.00058,-0.0001,-6e-05,4,12
19033,-3e-05,1e-05,6e-05,0.00045,0.00014,-0.00058,-0.0001,-6e-05,4,12
19034,-3e-05,1e-05,6e-05,0.00045,0.00014,-0.00058,-0.0001,-6e-05,4,12
19035,-3e-05,1e-05,6e-05,0.00045,0.00014,-0.00058,-0.0001,-6e-05,4,12
19036,-3e-05,1e-05,6e-05,0.00045,0.00014,-0.00058,-0.0001,-6e-05,4,12
19038,-3e-05,1e-05,6e-05,0.00045,0.00014,-0.00058,-0.0001,-6e-05,4,12
19039,-3e-05,1e-05,6e-05,0.00045,0.00014,-0.00058,-0.0001,-6e-05,4,12
19040,-3e-05,1e-05,6e-05,0.00045,0.00014,-0.00058,-0.0001,-6e-05,4,12
19041,-3e-05,1e-05,6e-05,0.00045,0.00014,-0.00058,-0.0001,-6e-05,4,12
19042,-3e-05,1e-05,6e-05,0.00045,0.00014,-0.00058,-0.0001,-6e-05,4,12
19043,-3e-05,1e-05,6e-05,0.00045,0.00014,-0.00058,-0.0001,-6e-05,4,12
19044,5e-05,-7e-05,-0.00013,-0.00023,-0.0001,-0.00011,-0.00014,1e-05,4,12
19045,5e-05,-7e-05,-0.00013,-0.00023,-0.0001,-0.00011,-0.00014,1e-05,4,12
19046,4e-05,3e-05,3e-05,-1e-05,-0.00015,-1e-05,2e-05,-2e-05,4,12
19047,4e-05,3e-05,3e-05,-1e-05,-0.00015,-1e-05,2e-05,-2e-05,4,12
19048,4e-05,3e-05,3e-05,-1e-05,-0.00015,-1e-05,2e-05,-2e-05,4,12
19049,4e-05,3e-05,3e-05,-1e-05,-0.00015,-1e-05,2e-05,-2e-05,4,12
19050,4e-05,3e-05,3e-05,-1e-05,-0.00015,-1e-05,2e-05,-2e-05,4,12
19051,4e-05,3e-05,3e-05,-1e-05,-0.00015,-1e-05,2e-05,-2e-05,4,12
19052,4e-05,3e-05,3e-05,-1e-05,-0.00015,-1e-05,2e-05,-2e-05,4,12
19053,4e-05,3e-05,3e-05,-1e-05,-0.00015,-1e-05,2e-05,-2e-05,4,12
19054,4e-05,3e-05,3e-05,-1e-05,-0.00015,-1e-05,2e-05,-2e-05,4,12
19055,4e-05,3e-05,3e-05,-1e-05,-0.00015,-1e-05,2e-05,-2e-05,4,12
19056,4e-05,3e-05,3e-05,-1e-05,-0.00015,-1e-05,2e-05,-2e-05,4,12
19057,4e-05,3e-05,3e-05,-1e-05,-0.00015,-1e-05,2e-05,-2e-05,4,12
19058,4e-05,3e-05,3e-05,-1e-05,-0.00015,-1e-05,2e-05,-2e-05,4,12
19059,4e-05,3e-05,3e-05,-1e-05,-0.00015,-1e-05,2e-05,-2e-05,4,12
19060,4e-05,3e-05,3e-05,-1e-05,-0.00015,-1e-05,2e-05,-2e-05,4,12
19061,4e-05,3e-05,3e-05,-1e-05,-0.00015,-1e-05,2e-05,-2e-05,4,12
19062,4e-05,3e-05,3e-05,-1e-05,-0.00015,-1e-05,2e-05,-2e-05,4,12
19063,4e-05,3e-05,3e-05,-1e-05,-0.00015,-1e-05,2e-05,-2e-05,4,12
19064,4e-05,3e-05,3e-05,-1e-05,-0.00015,-1e-05,2e-05,-2e-05,4,12
19065,4e-05,3e-05,3e-05,-1e-05,-0.00015,-1e-05,2e-05,-2e-05,4,12
19066,4e-05,3e-05,3e-05,-1e-05,-0.00015,-1e-05,2e-05,-2e-05,4,12
19067,1e-05,4e-05,6e-05,2e-05,0.00016,-6e-05,-8e-05,-1e-05,4,12
19068,5e-05,3e-05,8e-05,0.00027,0.00068,0.00025,-5e-05,5e-05,4,12
19069,5e-05,3e-05,8e-05,0.00027,0.00068,0.00025,-5e-05,5e-05,4,12
19070,5e-05,3e-05,8e-05,0.00027,0.00068,0.00025,-5e-05,5e-05,4,12
19071,5e-05,3e-05,8e-05,0.00027,0.00068,0.00025,-5e-05,5e-05,4,12
19072,5e-05,3e-05,8e-05,0.00027,0.00068,0.00025,-5e-05,5e-05,4,12
19073,5e-05,3e-05,8e-05,0.00027,0.00068,0.00025,-5e-05,5e-05,4,12
19074,5e-05,3e-05,8e-05,0.00027,0.00068,0.00025,-5e-05,5e-05,4,12
19075,5e-05,3e-05,8e-05,0.00027,0.00068,0.00025,-5e-05,5e-05,4,12
19076,5e-05,3e-05,8e-05,0.00027,0.00068,0.00025,-5e-05,5e-05,4,12
19077,5e-05,3e-05,8e-05,0.00027,0.00068,0.00025,-5e-05,5e-05,4,12
19078,5e-05,3e-05,8e-05,0.00027,0.00068,0.00025,-5e-05,5e-05,4,12
19079,5e-05,3e-05,8e-05,0.00027,0.00068,0.00025,-5e-05,5e-05,4,12
19080,5e-05,3e-05,8e-05,0.00027,0.00068,0.00025,-5e-05,5e-05,4,12
19081,1e-05,2e-05,8e-05,0.0002,-4e-05,0.00021,9e-05,-4e-05,4,12
19082,1e-05,2e-05,8e-05,0.0002,-4e-05,0.00021,9e-05,-4e-05,4,12
19083,1e-05,2e-05,8e-05,0.0002,-4e-05,0.00021,9e-05,-4e-05,4,12
19084,1e-05,2e-05,8e-05,0.0002,-4e-05,0.00021,9e-05,-4e-05,4,12
19085,1e-05,2e-05,8e-05,0.0002,-4e-05,0.00021,9e-05,-4e-05,4,12
19086,1e-05,2e-05,8e-05,0.0002,-4e-05,0.00021,9e-05,-4e-05,4,12
19088,0.00019,0.0001,0.00011,-4e-05,6e-05,-0.00049,0.00011,0.00015,4,12
19089,0.00019,0.0001,0.00011,-4e-05,6e-05,-0.00049,0.00011,0.00015,4,12
19090,0.00019,0.0001,0.00011,-4e-05,6e-05,-0.00049,0.00011,0.00015,4,12
19091,0.00019,0.0001,0.00011,-4e-05,6e-05,-0.00049,0.00011,0.00015,4,12
19092,0.00019,0.0001,0.00011,-4e-05,6e-05,-0.00049,0.00011,0.00015,4,12
19093,0.00019,0.0001,0.00011,-4e-05,6e-05,-0.00049,0.00011,0.00015,4,12
19094,0.00019,0.0001,0.00011,-4e-05,6e-05,-0.00049,0.00011,0.00015,4,12
19095,0.00019,0.0001,0.00011,-4e-05,6e-05,-0.00049,0.00011,0.00015,4,12
19096,0.00019,0.0001,0.00011,-4e-05,6e-05,-0.00049,0.00011,0.00015,4,12
19097,0.00019,0.0001,0.00011,-4e-05,6e-05,-0.00049,0.00011,0.00015,4,12
19098,0.00019,0.0001,0.00011,-4e-05,6e-05,-0.00049,0.00011,0.00015,4,12
19099,0.00019,0.0001,0.00011,-4e-05,6e-05,-0.00049,0.00011,0.00015,4,12
19100,0.00019,0.0001,0.00011,-4e-05,6e-05,-0.00049,0.00011,0.00015,4,12
19101,0.00019,0.0001,0.00011,-4e-05,6e-05,-0.00049,0.00011,0.00015,4,12
19102,0.00019,0.0001,0.00011,-4e-05,6e-05,-0.00049,0.00011,0.00015,4,12
19103,0.00019,0.0001,0.00011,-4e-05,6e-05,-0.00049,0.00011,0.00015,4,12
19104,-5e-05,-5e-05,-4e-05,1e-05,0.00019,0.0001,1e-05,-4e-05,4,12
19105,-5e-05,-5e-05,-4e-05,1e-05,0.00019,0.0001,1e-05,-4e-05,4,12
19106,1e-05,2e-05,2e-05,6e-05,0.00023,0.00039,7e-05,3e-05,4,12
19107,1e-05,2e-05,2e-05,6e-05,0.00023,0.00039,7e-05,3e-05,4,12
19108,1e-05,2e-05,2e-05,6e-05,0.00023,0.00039,7e-05,3e-05,4,12
19109,1e-05,2e-05,2e-05,6e-05,0.00023,0.00039,7e-05,3e-05,4,12
19110,1e-05,2e-05,2e-05,6e-05,0.00023,0.00039,7e-05,3e-05,4,12
19111,1e-05,2e-05,2e-05,6e-05,0.00023,0.00039,7e-05,3e-05,4,12
19112,1e-05,2e-05,2e-05,6e-05,0.00023,0.00039,7e-05,3e-05,4,12
19113,1e-05,2e-05,2e-05,6e-05,0.00023,0.00039,7e-05,3e-05,4,12
19114,1e-05,2e-05,2e-05,6e-05,0.00023,0.00039,7e-05,3e-05,4,12
19115,1e-05,2e-05,2e-05,6e-05,0.00023,0.00039,7e-05,3e-05,4,12
19116,1e-05,2e-05,2e-05,6e-05,0.00023,0.00039,7e-05,3e-05,4,12
19117,1e-05,2e-05,2e-05,6e-05,0.00023,0.00039,7e-05,3e-05,4,12
19118,1e-05,2e-05,2e-05,6e-05,0.00023,0.00039,7e-05,3e-05,4,12
19119,1e-05,2e-05,2e-05,6e-05,0.00023,0.00039,7e-05,3e-05,4,12
19120,1e-05,2e-05,2e-05,6e-05,0.00023,0.00039,7e-05,3e-05,4,12
19121,1e-05,2e-05,2e-05,6e-05,0.00023,0.00039,7e-05,3e-05,4,12
19122,1e-05,2e-05,2e-05,6e-05,0.00023,0.00039,7e-05,3e-05,4,12
19123,1e-05,2e-05,2e-05,6e-05,0.00023,0.00039,7e-05,3e-05,4,12
19124,1e-05,2e-05,2e-05,6e-05,0.00023,0.00039,7e-05,3e-05,4,12
19125,1e-05,2e-05,2e-05,6e-05,0.00023,0.00039,7e-05,3e-05,4,12
19126,1e-05,2e-05,2e-05,6e-05,0.00023,0.00039,7e-05,3e-05,4,12
19127,-1e-05,2e-05,-1e-05,-3e-05,-0.00015,-9e-05,-7e-05,-0.00019,4,12
19128,-4e-05,-4e-05,-0.00018,-0.00085,-0.00048,0.00044,8e-05,5e-05,4,12
19129,-4e-05,-4e-05,-0.00018,-0.00085,-0.00048,0.00044,8e-05,5e-05,4,12
19130,-4e-05,-4e-05,-0.00018,-0.00085,-0.00048,0.00044,8e-05,5e-05,4,12
19131,-4e-05,-4e-05,-0.00018,-0.00085,-0.00048,0.00044,8e-05,5e-05,4,12
19132,-4e-05,-4e-05,-0.00018,-0.00085,-0.00048,0.00044,8e-05,5e-05,4,12
19133,-4e-05,-4e-05,-0.00018,-0.00085,-0.00048,0.00044,8e-05,5e-05,4,12
19134,-4e-05,-4e-05,-0.00018,-0.00085,-0.00048,0.00044,8e-05,5e-05,4,12
19135,-4e-05,-4e-05,-0.00018,-0.00085,-0.00048,0.00044,8e-05,5e-05,4,12
19136,-4e-05,-4e-05,-0.00018,-0.00085,-0.00048,0.00044,8e-05,5e-05,4,12
19138,-4e-05,-4e-05,-0.00018,-0.00085,-0.00048,0.00044,8e-05,5e-05,4,12
19139,-4e-05,-4e-05,-0.00018,-0.00085,-0.00048,0.00044,8e-05,5e-05,4,12
19140,-4e-05,-4e-05,-0.00018,-0.00085,-0.00048,0.00044,8e-05,5e-05,4,12
19141,-0.0001,-8e-05,-0.00015,-0.00023,-0.00043,-0.00076,-0.00016,-3e-05,4,12
19142,-0.0001,-8e-05,-0.00015,-0.00023,-0.00043,-0.00076,-0.00016,-3e-05,4,12
19143,-0.0001,-8e-05,-0.00015,-0.00023,-0.00043,-0.00076,-0.00016,-3e-05,4,12
19144,-0.0001,-8e-05,-0.00015,-0.00023,-0.00043,-0.00076,-0.00016,-3e-05,4,12
19145,-0.0001,-8e-05,-0.00015,-0.00023,-0.00043,-0.00076,-0.00016,-3e-05,4,12
19146,-0.0001,-8e-05,-0.00015,-0.00023,-0.00043,-0.00076,-0.00016,-3e-05,4,12
19147,-0.0001,-8e-05,-0.00015,-0.00023,-0.00043,-0.00076,-0.00016,-3e-05,4,12
19148,-4e-05,-6e-05,-1e-05,0.00037,0.00038,0.00012,-7e-05,-4e-05,4,12
19149,-4e-05,-6e-05,-1e-05,0.00037,0.00038,0.00012,-7e-05,-4e-05,4,12
19150,-4e-05,-6e-05,-1e-05,0.00037,0.00038,0.00012,-7e-05,-4e-05,4,12
19151,-4e-05,-6e-05,-1e-05,0.00037,0.00038,0.00012,-7e-05,-4e-05,4,12
19152,-4e-05,-6e-05,-1e-05,0.00037,0.00038,0.00012,-7e-05,-4e-05,4,12
19153,-4e-05,-6e-05,-1e-05,0.00037,0.00038,0.00012,-7e-05,-4e-05,4,12
19154,-4e-05,-6e-05,-1e-05,0.00037,0.00038,0.00012,-7e-05,-4e-05,4,12
19156,-4e-05,-6e-05,-1e-05,0.00037,0.00038,0.00012,-7e-05,-4e-05,4,12
19157,-4e-05,-6e-05,-1e-05,0.00037,0.00038,0.00012,-7e-05,-4e-05,4,12
19158,-4e-05,-6e-05,-1e-05,0.00037,0.00038,0.00012,-7e-05,-4e-05,4,12
19159,-4e-05,-6e-05,-1e-05,0.00037,0.00038,0.00012,-7e-05,-4e-05,4,12
19160,-4e-05,-6e-05,-1e-05,0.00037,0.00038,0.00012,-7e-05,-4e-05,4,12
19161,-4e-05,-6e-05,-1e-05,0.00037,0.00038,0.00012,-7e-05,-4e-05,4,12
19162,-4e-05,-6e-05,-1e-05,0.00037,0.00038,0.00012,-7e-05,-4e-05,4,12
19163,-4e-05,-6e-05,-1e-05,0.00037,0.00038,0.00012,-7e-05,-4e-05,4,12
19164,-2e-05,-1e-05,-4e-05,-3e-05,0.00035,0.0002,8e-05,-1e-05,4,12
19165,-2e-05,-1e-05,-4e-05,-3e-05,0.00035,0.0002,8e-05,-1e-05,4,12
19166,-6e-05,-7e-05,-8e-05,-1e-05,-0.00025,-0.00073,-0.00012,-4e-05,4,12
19167,-6e-05,-7e-05,-8e-05,-1e-05,-0.00025,-0.00073,-0.00012,-4e-05,4,12
19168,-6e-05,-7e-05,-8e-05,-1e-05,-0.00025,-0.00073,-0.00012,-4e-05,4,12
19169,-6e-05,-7e-05,-8e-05,-1e-05,-0.00025,-0.00073,-0.00012,-4e-05,4,12
19170,-6e-05,-7e-05,-8e-05,-1e-05,-0.00025,-0.00073,-0.00012,-4e-05,4,12
19171,-6e-05,-7e-05,-8e-05,-1e-05,-0.00025,-0.00073,-0.00012,-4e-05,4,12
19172,-6e-05,-7e-05,-8e-05,-1e-05,-0.00025,-0.00073,-0.00012,-4e-05,4,12
19173,-6e-05,-7e-05,-8e-05,-1e-05,-0.00025,-0.00073,-0.00012,-4e-05,4,12
19174,-6e-05,-7e-05,-8e-05,-1e-05,-0.00025,-0.00073,-0.00012,-4e-05,4,12
19175,-6e-05,-7e-05,-8e-05,-1e-05,-0.00025,-0.00073,-0.00012,-4e-05,4,12
19176,-6e-05,-7e-05,-8e-05,-1e-05,-0.00025,-0.00073,-0.00012,-4e-05,4,12
19177,-6e-05,-7e-05,-8e-05,-1e-05,-0.00025,-0.00073,-0.00012,-4e-05,4,12
19178,-6e-05,-7e-05,-8e-05,-1e-05,-0.00025,-0.00073,-0.00012,-4e-05,4,12
19179,-6e-05,-7e-05,-8e-05,-1e-05,-0.00025,-0.00073,-0.00012,-4e-05,4,12
19180,-6e-05,-7e-05,-8e-05,-1e-05,-0.00025,-0.00073,-0.00012,-4e-05,4,12
19181,-6e-05,-7e-05,-8e-05,-1e-05,-0.00025,-0.00073,-0.00012,-4e-05,4,12
19182,-6e-05,-7e-05,-8e-05,-1e-05,-0.00025,-0.00073,-0.00012,-4e-05,4,12
19183,-6e-05,-7e-05,-8e-05,-1e-05,-0.00025,-0.00073,-0.00012,-4e-05,4,12
19184,-6e-05,-7e-05,-8e-05,-1e-05,-0.00025,-0.00073,-0.00012,-4e-05,4,12
19185,-6e-05,-7e-05,-8e-05,-1e-05,-0.00025,-0.00073,-0.00012,-4e-05,4,12
19186,-6e-05,-7e-05,-8e-05,-1e-05,-0.00025,-0.00073,-0.00012,-4e-05,4,12
19189,-3e-05,1e-05,2e-05,8e-05,-0.00018,0.00025,0,-3e-05,4,12
19190,-3e-05,1e-05,2e-05,8e-05,-0.00018,0.00025,0,-3e-05,4,12
19191,-3e-05,1e-05,2e-05,8e-05,-0.00018,0.00025,0,-3e-05,4,12
19192,-3e-05,1e-05,2e-05,8e-05,-0.00018,0.00025,0,-3e-05,4,12
19193,-3e-05,1e-05,2e-05,8e-05,-0.00018,0.00025,0,-3e-05,4,12
19194,-3e-05,1e-05,2e-05,8e-05,-0.00018,0.00025,0,-3e-05,4,12
19195,-3e-05,1e-05,2e-05,8e-05,-0.00018,0.00025,0,-3e-05,4,12
19196,-3e-05,1e-05,2e-05,8e-05,-0.00018,0.00025,0,-3e-05,4,12
19197,-3e-05,1e-05,2e-05,8e-05,-0.00018,0.00025,0,-3e-05,4,12
19198,-3e-05,1e-05,2e-05,8e-05,-0.00018,0.00025,0,-3e-05,4,12
19199,-3e-05,1e-05,2e-05,8e-05,-0.00018,0.00025,0,-3e-05,4,12
19200,-3e-05,1e-05,2e-05,8e-05,-0.00018,0.00025,0,-3e-05,4,12
19201,-3e-05,1e-05,2e-05,8e-05,-0.00018,0.00025,0,-3e-05,4,12
19202,-3e-05,1e-05,2e-05,8e-05,-0.00018,0.00025,0,-3e-05,4,12
19203,-3e-05,1e-05,2e-05,8e-05,-0.00018,0.00025,0,-3e-05,4,12
19204,-3e-05,1e-05,2e-05,8e-05,-0.00018,0.00025,0,-3e-05,4,12
19205,-3e-05,1e-05,2e-05,8e-05,-0.00018,0.00025,0,-3e-05,4,12
19206,-3e-05,1e-05,2e-05,8e-05,-0.00018,0.00025,0,-3e-05,4,12
19207,-3e-05,1e-05,2e-05,8e-05,-0.00018,0.00025,0,-3e-05,4,12
19208,-3e-05,1e-05,2e-05,8e-05,-0.00018,0.00025,0,-3e-05,4,12
19209,1e-05,-7e-05,-3e-05,1e-05,-0.00016,-0.00043,-0.0001,-1e-05,4,12
19210,-9e-05,1e-05,8e-05,0.00017,0.00047,-0.00021,5e-05,-8e-05,4,12
19211,-3e-05,-1e-05,-2e-05,-5e-05,0.00036,-0.0006,-0.00019,-9e-05,4,12
19212,-3e-05,-1e-05,-2e-05,-5e-05,0.00036,-0.0006,-0.00019,-9e-05,4,12
19213,-3e-05,-1e-05,-2e-05,-5e-05,0.00036,-0.0006,-0.00019,-9e-05,4,12
19214,-3e-05,-1e-05,-2e-05,-5e-05,0.00036,-0.0006,-0.00019,-9e-05,4,12
19215,-3e-05,-1e-05,-2e-05,-5e-05,0.00036,-0.0006,-0.00019,-9e-05,4,12
19216,-3e-05,-1e-05,-2e-05,-5e-05,0.00036,-0.0006,-0.00019,-9e-05,4,12
19217,-3e-05,-1e-05,-2e-05,-5e-05,0.00036,-0.0006,-0.00019,-9e-05,4,12
19218,-3e-05,-1e-05,-2e-05,-5e-05,0.00036,-0.0006,-0.00019,-9e-05,4,12
19219,-3e-05,-1e-05,-2e-05,-5e-05,0.00036,-0.0006,-0.00019,-9e-05,4,12
19220,-3e-05,-1e-05,-2e-05,-5e-05,0.00036,-0.0006,-0.00019,-9e-05,4,12
19221,-3e-05,-1e-05,-2e-05,-5e-05,0.00036,-0.0006,-0.00019,-9e-05,4,12
19222,-3e-05,-1e-05,-2e-05,-5e-05,0.00036,-0.0006,-0.00019,-9e-05,4,12
19223,-3e-05,-1e-05,-2e-05,-5e-05,0.00036,-0.0006,-0.00019,-9e-05,4,12
19224,-6e-05,-3e-05,-3e-05,-5e-05,-0.0002,-0.00013,-0.00013,-6e-05,4,12
19225,8e-05,1e-05,2e-05,-0.00015,-0.00025,-0.00016,0.00014,8e-05,4,12
19226,-4e-05,-6e-05,-7e-05,-3e-05,-0.00017,-0.00021,-5e-05,-4e-05,4,12
19227,-4e-05,-6e-05,-7e-05,-3e-05,-0.00017,-0.00021,-5e-05,-4e-05,4,12
19228,-4e-05,-6e-05,-7e-05,-3e-05,-0.00017,-0.00021,-5e-05,-4e-05,4,12
19229,-4e-05,-6e-05,-7e-05,-3e-05,-0.00017,-0.00021,-5e-05,-4e-05,4,12
19230,-4e-05,-6e-05,-7e-05,-3e-05,-0.00017,-0.00021,-5e-05,-4e-05,4,12
19231,-4e-05,-6e-05,-7e-05,-3e-05,-0.00017,-0.00021,-5e-05,-4e-05,4,12
19232,-4e-05,-6e-05,-7e-05,-3e-05,-0.00017,-0.00021,-5e-05,-4e-05,4,12
19233,-4e-05,-6e-05,-7e-05,-3e-05,-0.00017,-0.00021,-5e-05,-4e-05,4,12
19234,-4e-05,-6e-05,-7e-05,-3e-05,-0.00017,-0.00021,-5e-05,-4e-05,4,12
19235,-4e-05,-6e-05,-7e-05,-3e-05,-0.00017,-0.00021,-5e-05,-4e-05,4,12
19236,-4e-05,-6e-05,-7e-05,-3e-05,-0.00017,-0.00021,-5e-05,-4e-05,4,12
19238,-4e-05,-6e-05,-7e-05,-3e-05,-0.00017,-0.00021,-5e-05,-4e-05,4,12
19239,-4e-05,-6e-05,-7e-05,-3e-05,-0.00017,-0.00021,-5e-05,-4e-05,4,12
19240,-4e-05,-6e-05,-7e-05,-3e-05,-0.00017,-0.00021,-5e-05,-4e-05,4,12
19241,-4e-05,-6e-05,-7e-05,-3e-05,-0.00017,-0.00021,-5e-05,-4e-05,4,12
19242,-4e-05,-6e-05,-7e-05,-3e-05,-0.00017,-0.00021,-5e-05,-4e-05,4,12
19243,-4e-05,-6e-05,-7e-05,-3e-05,-0.00017,-0.00021,-5e-05,-4e-05,4,12
19244,-4e-05,-6e-05,-7e-05,-3e-05,-0.00017,-0.00021,-5e-05,-4e-05,4,12
19245,-4e-05,-6e-05,-7e-05,-3e-05,-0.00017,-0.00021,-5e-05,-4e-05,4,12
19246,-4e-05,-6e-05,-7e-05,-3e-05,-0.00017,-0.00021,-5e-05,-4e-05,4,12
19248,-4e-05,-6e-05,-7e-05,-3e-05,-0.00017,-0.00021,-5e-05,-4e-05,4,12
19249,9e-05,4e-05,3e-05,-6e-05,-0.00049,-0.00013,5e-05,7e-05,4,12
19250,9e-05,4e-05,3e-05,-6e-05,-0.00049,-0.00013,5e-05,7e-05,4,12
19251,9e-05,4e-05,3e-05,-6e-05,-0.00049,-0.00013,5e-05,7e-05,4,12
19252,9e-05,4e-05,3e-05,-6e-05,-0.00049,-0.00013,5e-05,7e-05,4,12
19253,9e-05,4e-05,3e-05,-6e-05,-0.00049,-0.00013,5e-05,7e-05,4,12
19254,9e-05,4e-05,3e-05,-6e-05,-0.00049,-0.00013,5e-05,7e-05,4,12
19255,9e-05,4e-05,3e-05,-6e-05,-0.00049,-0.00013,5e-05,7e-05,4,12
19256,9e-05,4e-05,3e-05,-6e-05,-0.00049,-0.00013,5e-05,7e-05,4,12
19257,9e-05,4e-05,3e-05,-6e-05,-0.00049,-0.00013,5e-05,7e-05,4,12
19258,9e-05,4e-05,3e-05,-6e-05,-0.00049,-0.00013,5e-05,7e-05,4,12
19259,9e-05,4e-05,3e-05,-6e-05,-0.00049,-0.00013,5e-05,7e-05,4,12
19260,0.00012,8e-05,0.00012,0.00039,0.00087,3e-05,-1e-05,0.00013,4,12
19261,6e-05,1e-05,0.0001,4e-05,-0.00041,-0.00014,-4e-05,-3e-05,4,12
19262,6e-05,1e-05,0.0001,4e-05,-0.00041,-0.00014,-4e-05,-3e-05,4,12
19263,6e-05,1e-05,0.0001,4e-05,-0.00041,-0.00014,-4e-05,-3e-05,4,12
19264,6e-05,1e-05,0.0001,4e-05,-0.00041,-0.00014,-4e-05,-3e-05,4,12
19265,6e-05,1e-05,0.0001,4e-05,-0.00041,-0.00014,-4e-05,-3e-05,4,12
19266,6e-05,1e-05,0.0001,4e-05,-0.00041,-0.00014,-4e-05,-3e-05,4,12
19267,6e-05,1e-05,0.0001,4e-05,-0.00041,-0.00014,-4e-05,-3e-05,4,12
19268,6e-05,1e-05,0.0001,4e-05,-0.00041,-0.00014,-4e-05,-3e-05,4,12
19269,-1e-05,-1e-05,-4e-05,-0.00048,-0.00054,-6e-05,0.00012,-4e-05,4,12
19270,-1e-05,-1e-05,-4e-05,-0.00048,-0.00054,-6e-05,0.00012,-4e-05,4,12
19271,-1e-05,-1e-05,-4e-05,-0.00048,-0.00054,-6e-05,0.00012,-4e-05,4,12
19272,-1e-05,-1e-05,-4e-05,-0.00048,-0.00054,-6e-05,0.00012,-4e-05,4,12
19273,-1e-05,-1e-05,-4e-05,-0.00048,-0.00054,-6e-05,0.00012,-4e-05,4,12
19274,-1e-05,-1e-05,-4e-05,-0.00048,-0.00054,-6e-05,0.00012,-4e-05,4,12
19275,-1e-05,-1e-05,-4e-05,-0.00048,-0.00054,-6e-05,0.00012,-4e-05,4,12
19276,-1e-05,-1e-05,-4e-05,-0.00048,-0.00054,-6e-05,0.00012,-4e-05,4,12
19277,-1e-05,-1e-05,-4e-05,-0.00048,-0.00054,-6e-05,0.00012,-4e-05,4,12
19278,-1e-05,-1e-05,-4e-05,-0.00048,-0.00054,-6e-05,0.00012,-4e-05,4,12
19279,-1e-05,-1e-05,-4e-05,-0.00048,-0.00054,-6e-05,0.00012,-4e-05,4,12
19280,-1e-05,-1e-05,-4e-05,-0.00048,-0.00054,-6e-05,0.00012,-4e-05,4,12
19281,-1e-05,-1e-05,-4e-05,-0.00048,-0.00054,-6e-05,0.00012,-4e-05,4,12
19282,-1e-05,-1e-05,-4e-05,-0.00048,-0.00054,-6e-05,0.00012,-4e-05,4,12
19283,-1e-05,-1e-05,-4e-05,-0.00048,-0.00054,-6e-05,0.00012,-4e-05,4,12
19284,-1e-05,-1e-05,-4e-05,-0.00048,-0.00054,-6e-05,0.00012,-4e-05,4,12
19285,-1e-05,-1e-05,-4e-05,-0.00048,-0.00054,-6e-05,0.00012,-4e-05,4,12
19286,-1e-05,-1e-05,-4e-05,-0.00048,-0.00054,-6e-05,0.00012,-4e-05,4,12
19288,-1e-05,-1e-05,-4e-05,-0.00048,-0.00054,-6e-05,0.00012,-4e-05,4,12
19289,-1e-05,-1e-05,-4e-05,-0.00048,-0.00054,-6e-05,0.00012,-4e-05,4,12
19290,-1e-05,-1e-05,-4e-05,-0.00048,-0.00054,-6e-05,0.00012,-4e-05,4,12
19291,-1e-05,-1e-05,-4e-05,-0.00048,-0.00054,-6e-05,0.00012,-4e-05,4,12
19292,2e-05,2e-05,2e-05,-4e-05,-7e-05,-0.00069,-0.00013,4e-05,4,12
19293,-5e-05,1e-05,4e-05,0.00012,0.0006,0.00064,0.0001,-0.00012,4,12
19294,-5e-05,1e-05,4e-05,0.00012,0.0006,0.00064,0.0001,-0.00012,4,12
19295,-5e-05,1e-05,4e-05,0.00012,0.0006,0.00064,0.0001,-0.00012,4,12
19296,-5e-05,1e-05,4e-05,0.00012,0.0006,0.00064,0.0001,-0.00012,4,12
19297,-5e-05,1e-05,4e-05,0.00012,0.0006,0.00064,0.0001,-0.00012,4,12
