28917,-3e-05,0.00014,0.00061,0.00116,-8e-05,-0.00064,-0.00025,-9e-05,4,13
28918,-3e-05,0.00014,0.00061,0.00116,-8e-05,-0.00064,-0.00025,-9e-05,4,13
28919,-2e-05,-0.00015,-5e-05,-0.00022,-0.00047,0.00032,3e-05,1e-05,4,13
28920,-2e-05,-0.00015,-5e-05,-0.00022,-0.00047,0.00032,3e-05,1e-05,4,13
28921,-2e-05,-0.00015,-5e-05,-0.00022,-0.00047,0.00032,3e-05,1e-05,4,13
28922,-2e-05,-0.00015,-5e-05,-0.00022,-0.00047,0.00032,3e-05,1e-05,4,13
28923,-2e-05,-0.00015,-5e-05,-0.00022,-0.00047,0.00032,3e-05,1e-05,4,13
28924,-2e-05,-0.00015,-5e-05,-0.00022,-0.00047,0.00032,3e-05,1e-05,4,13
28925,-2e-05,-0.00015,-5e-05,-0.00022,-0.00047,0.00032,3e-05,1e-05,4,13
28926,-2e-05,-0.00015,-5e-05,-0.00022,-0.00047,0.00032,3e-05,1e-05,4,13
28927,-6e-05,-9e-05,-5e-05,-0.00071,-0.00075,-0.00014,-8e-05,-4e-05,4,13
28928,-6e-05,-9e-05,-5e-05,-0.00071,-0.00075,-0.00014,-8e-05,-4e-05,4,13
28929,-6e-05,-9e-05,-5e-05,-0.00071,-0.00075,-0.00014,-8e-05,-4e-05,4,13
28930,-6e-05,-9e-05,-5e-05,-0.00071,-0.00075,-0.00014,-8e-05,-4e-05,4,13
28931,-6e-05,-9e-05,-5e-05,-0.00071,-0.00075,-0.00014,-8e-05,-4e-05,4,13
28932,-6e-05,-9e-05,-5e-05,-0.00071,-0.00075,-0.00014,-8e-05,-4e-05,4,13
28933,-6e-05,-9e-05,-5e-05,-0.00071,-0.00075,-0.00014,-8e-05,-4e-05,4,13
28934,-6e-05,-9e-05,-5e-05,-0.00071,-0.00075,-0.00014,-8e-05,-4e-05,4,13
28936,-6e-05,-9e-05,-5e-05,-0.00071,-0.00075,-0.00014,-8e-05,-4e-05,4,13
28937,-6e-05,-9e-05,-5e-05,-0.00071,-0.00075,-0.00014,-8e-05,-4e-05,4,13
28938,-6e-05,-9e-05,-5e-05,-0.00071,-0.00075,-0.00014,-8e-05,-4e-05,4,13
28939,-6e-05,-9e-05,-5e-05,-0.00071,-0.00075,-0.00014,-8e-05,-4e-05,4,13
28940,-6e-05,-9e-05,-5e-05,-0.00071,-0.00075,-0.00014,-8e-05,-4e-05,4,13
28941,-6e-05,-9e-05,-5e-05,-0.00071,-0.00075,-0.00014,-8e-05,-4e-05,4,13
28942,5e-05,6e-05,0.00035,0.00021,3e-05,-0.00038,2e-05,4e-05,4,13
28943,0.0001,0.00015,0.00048,0.00029,0.00045,0.00094,0.00033,0.00012,4,13
28944,0.0001,0.00015,0.00048,0.00029,0.00045,0.00094,0.00033,0.00012,4,13
28945,0.0001,0.00015,0.00048,0.00029,0.00045,0.00094,0.00033,0.00012,4,13
28946,0.0001,0.00015,0.00048,0.00029,0.00045,0.00094,0.00033,0.00012,4,13
28947,0.0001,0.00015,0.00048,0.00029,0.00045,0.00094,0.00033,0.00012,4,13
28948,0.0001,0.00015,0.00048,0.00029,0.00045,0.00094,0.00033,0.00012,4,13
28949,0.0001,0.00015,0.00048,0.00029,0.00045,0.00094,0.00033,0.00012,4,13
28950,0.0001,0.00015,0.00048,0.00029,0.00045,0.00094,0.00033,0.00012,4,13
28951,0.0001,0.00015,0.00048,0.00029,0.00045,0.00094,0.00033,0.00012,4,13
28952,0.0001,0.00015,0.00048,0.00029,0.00045,0.00094,0.00033,0.00012,4,13
28953,0.0001,0.00015,0.00048,0.00029,0.00045,0.00094,0.00033,0.00012,4,13
28954,0.0001,0.00015,0.00048,0.00029,0.00045,0.00094,0.00033,0.00012,4,13
28955,0.0001,0.00015,0.00048,0.00029,0.00045,0.00094,0.00033,0.00012,4,13
28956,0.0001,0.00015,0.00048,0.00029,0.00045,0.00094,0.00033,0.00012,4,13
28957,0.0001,0.00015,0.00048,0.00029,0.00045,0.00094,0.00033,0.00012,4,13
28958,0.0001,0.00015,0.00048,0.00029,0.00045,0.00094,0.00033,0.00012,4,13
28959,0.0001,0.00015,0.00048,0.00029,0.00045,0.00094,0.00033,0.00012,4,13
28960,0.0001,0.00015,0.00048,0.00029,0.00045,0.00094,0.00033,0.00012,4,13
28961,0.0001,0.00015,0.00048,0.00029,0.00045,0.00094,0.00033,0.00012,4,13
28962,0.0001,0.00015,0.00048,0.00029,0.00045,0.00094,0.00033,0.00012,4,13
28963,0.0001,0.00015,0.00048,0.00029,0.00045,0.00094,0.00033,0.00012,4,13
28964,0.0001,0.00015,0.00048,0.00029,0.00045,0.00094,0.00033,0.00012,4,13
28965,-5e-05,-0.0002,6e-05,0.00014,-0.00082,-0.00047,-3e-05,0,4,13
28966,7e-05,0.00012,0.0001,0.00079,0.00077,0.00022,9e-05,0.0001,4,13
28967,7e-05,0.00012,0.0001,0.00079,0.00077,0.00022,9e-05,0.0001,4,13
28968,7e-05,0.00012,0.0001,0.00079,0.00077,0.00022,9e-05,0.0001,4,13
28969,7e-05,0.00012,0.0001,0.00079,0.00077,0.00022,9e-05,0.0001,4,13
28970,7e-05,0.00012,0.0001,0.00079,0.00077,0.00022,9e-05,0.0001,4,13
28971,7e-05,0.00012,0.0001,0.00079,0.00077,0.00022,9e-05,0.0001,4,13
28972,7e-05,0.00012,0.0001,0.00079,0.00077,0.00022,9e-05,0.0001,4,13
28973,7e-05,0.00012,0.0001,0.00079,0.00077,0.00022,9e-05,0.0001,4,13
28974,7e-05,0.00012,0.0001,0.00079,0.00077,0.00022,9e-05,0.0001,4,13
28975,7e-05,0.00012,0.0001,0.00079,0.00077,0.00022,9e-05,0.0001,4,13
28976,7e-05,0.00012,0.0001,0.00079,0.00077,0.00022,9e-05,0.0001,4,13
28977,7e-05,0.00012,0.0001,0.00079,0.00077,0.00022,9e-05,0.0001,4,13
28978,7e-05,0.00012,0.0001,0.00079,0.00077,0.00022,9e-05,0.0001,4,13
28979,-0.00014,-0.00021,-0.00033,0.00081,-0.00037,0.00016,-9e-05,-0.0001,4,13
28980,-0.00014,-0.00021,-0.00033,0.00081,-0.00037,0.00016,-9e-05,-0.0001,4,13
28981,-0.00014,-0.00021,-0.00033,0.00081,-0.00037,0.00016,-9e-05,-0.0001,4,13
28982,-0.00014,-0.00021,-0.00033,0.00081,-0.00037,0.00016,-9e-05,-0.0001,4,13
28983,-0.00014,-0.00021,-0.00033,0.00081,-0.00037,0.00016,-9e-05,-0.0001,4,13
28984,-0.00014,-0.00021,-0.00033,0.00081,-0.00037,0.00016,-9e-05,-0.0001,4,13
28985,-0.00014,-0.00021,-0.00033,0.00081,-0.00037,0.00016,-9e-05,-0.0001,4,13
28986,-0.00014,-0.00021,-0.00033,0.00081,-0.00037,0.00016,-9e-05,-0.0001,4,13
28989,-0.00011,-0.0001,-5e-05,0.00031,0.00075,-0.00015,0,-1e-05,4,13
28990,-0.00011,-0.0001,-5e-05,0.00031,0.00075,-0.00015,0,-1e-05,4,13
28991,-0.00011,-0.0001,-5e-05,0.00031,0.00075,-0.00015,0,-1e-05,4,13
28992,-0.00011,-0.0001,-5e-05,0.00031,0.00075,-0.00015,0,-1e-05,4,13
28993,-0.00011,-0.0001,-5e-05,0.00031,0.00075,-0.00015,0,-1e-05,4,13
28994,-0.00011,-0.0001,-5e-05,0.00031,0.00075,-0.00015,0,-1e-05,4,13
28995,-0.00011,-0.0001,-5e-05,0.00031,0.00075,-0.00015,0,-1e-05,4,13
28996,-0.00011,-0.0001,-5e-05,0.00031,0.00075,-0.00015,0,-1e-05,4,13
28997,-0.00011,-0.0001,-5e-05,0.00031,0.00075,-0.00015,0,-1e-05,4,13
28998,-0.00011,-0.0001,-5e-05,0.00031,0.00075,-0.00015,0,-1e-05,4,13
28999,-0.00011,-0.0001,-5e-05,0.00031,0.00075,-0.00015,0,-1e-05,4,13
29000,-0.00011,-0.0001,-5e-05,0.00031,0.00075,-0.00015,0,-1e-05,4,13
29001,-0.00011,-0.0001,-5e-05,0.00031,0.00075,-0.00015,0,-1e-05,4,13
29002,-5e-05,1e-05,0.00017,0.00085,0.00077,0.00018,1e-05,-2e-05,4,13
29003,5e-05,-3e-05,-8e-05,0.00044,-0.00012,-0.00038,-9e-05,2e-05,4,13
29004,5e-05,-3e-05,-8e-05,0.00044,-0.00012,-0.00038,-9e-05,2e-05,4,13
29005,5e-05,-3e-05,-8e-05,0.00044,-0.00012,-0.00038,-9e-05,2e-05,4,13
29006,5e-05,-3e-05,-8e-05,0.00044,-0.00012,-0.00038,-9e-05,2e-05,4,13
29007,5e-05,-3e-05,-8e-05,0.00044,-0.00012,-0.00038,-9e-05,2e-05,4,13
29008,5e-05,-3e-05,-8e-05,0.00044,-0.00012,-0.00038,-9e-05,2e-05,4,13
29009,5e-05,-3e-05,-8e-05,0.00044,-0.00012,-0.00038,-9e-05,2e-05,4,13
29010,5e-05,-3e-05,-8e-05,0.00044,-0.00012,-0.00038,-9e-05,2e-05,4,13
29011,5e-05,-3e-05,-8e-05,0.00044,-0.00012,-0.00038,-9e-05,2e-05,4,13
29012,5e-05,-3e-05,-8e-05,0.00044,-0.00012,-0.00038,-9e-05,2e-05,4,13
29013,5e-05,-3e-05,-8e-05,0.00044,-0.00012,-0.00038,-9e-05,2e-05,4,13
29014,5e-05,-3e-05,-8e-05,0.00044,-0.00012,-0.00038,-9e-05,2e-05,4,13
29015,5e-05,-3e-05,-8e-05,0.00044,-0.00012,-0.00038,-9e-05,2e-05,4,13
29016,5e-05,-3e-05,-8e-05,0.00044,-0.00012,-0.00038,-9e-05,2e-05,4,13
29017,5e-05,-3e-05,-8e-05,0.00044,-0.00012,-0.00038,-9e-05,2e-05,4,13
29018,5e-05,-3e-05,-8e-05,0.00044,-0.00012,-0.00038,-9e-05,2e-05,4,13
29019,5e-05,-3e-05,-8e-05,0.00044,-0.00012,-0.00038,-9e-05,2e-05,4,13
29020,5e-05,-3e-05,-8e-05,0.00044,-0.00012,-0.00038,-9e-05,2e-05,4,13
29021,5e-05,-3e-05,-8e-05,0.00044,-0.00012,-0.00038,-9e-05,2e-05,4,13
29022,5e-05,-3e-05,-8e-05,0.00044,-0.00012,-0.00038,-9e-05,2e-05,4,13
29023,5e-05,-3e-05,-8e-05,0.00044,-0.00012,-0.00038,-9e-05,2e-05,4,13
29024,5e-05,-3e-05,-8e-05,0.00044,-0.00012,-0.00038,-9e-05,2e-05,4,13
29025,1e-05,-5e-05,-0.00028,0.00061,0.00013,5e-05,7e-05,3e-05,4,13
29026,-2e-05,0,-0.00023,-0.00046,-0.00043,-0.00013,-3e-05,-1e-05,4,13
29027,-2e-05,0,-0.00023,-0.00046,-0.00043,-0.00013,-3e-05,-1e-05,4,13
29028,-2e-05,0,-0.00023,-0.00046,-0.00043,-0.00013,-3e-05,-1e-05,4,13
29029,-2e-05,0,-0.00023,-0.00046,-0.00043,-0.00013,-3e-05,-1e-05,4,13
29030,-2e-05,0,-0.00023,-0.00046,-0.00043,-0.00013,-3e-05,-1e-05,4,13
29031,-2e-05,0,-0.00023,-0.00046,-0.00043,-0.00013,-3e-05,-1e-05,4,13
29032,-2e-05,0,-0.00023,-0.00046,-0.00043,-0.00013,-3e-05,-1e-05,4,13
29033,-2e-05,0,-0.00023,-0.00046,-0.00043,-0.00013,-3e-05,-1e-05,4,13
29034,-2e-05,0,-0.00023,-0.00046,-0.00043,-0.00013,-3e-05,-1e-05,4,13
29035,-2e-05,0,-0.00023,-0.00046,-0.00043,-0.00013,-3e-05,-1e-05,4,13
29036,-2e-05,0,-0.00023,-0.00046,-0.00043,-0.00013,-3e-05,-1e-05,4,13
29040,-4e-05,-2e-05,6e-05,0.00034,-0.0003,0.00016,-9e-05,-7e-05,4,13
29041,-4e-05,-2e-05,6e-05,0.00034,-0.0003,0.00016,-9e-05,-7e-05,4,13
29042,-4e-05,-2e-05,6e-05,0.00034,-0.0003,0.00016,-9e-05,-7e-05,4,13
29043,-4e-05,-2e-05,6e-05,0.00034,-0.0003,0.00016,-9e-05,-7e-05,4,13
29044,-4e-05,-2e-05,6e-05,0.00034,-0.0003,0.00016,-9e-05,-7e-05,4,13
29045,-4e-05,-2e-05,6e-05,0.00034,-0.0003,0.00016,-9e-05,-7e-05,4,13
29046,-4e-05,-2e-05,6e-05,0.00034,-0.0003,0.00016,-9e-05,-7e-05,4,13
29047,-4e-05,-2e-05,6e-05,0.00034,-0.0003,0.00016,-9e-05,-7e-05,4,13
29048,6e-05,3e-05,-3e-05,6e-05,-0.00036,-0.00034,5e-05,5e-05,4,13
29049,6e-05,3e-05,-3e-05,6e-05,-0.00036,-0.00034,5e-05,5e-05,4,13
29050,6e-05,3e-05,-3e-05,6e-05,-0.00036,-0.00034,5e-05,5e-05,4,13
29051,6e-05,3e-05,-3e-05,6e-05,-0.00036,-0.00034,5e-05,5e-05,4,13
29052,6e-05,3e-05,-3e-05,6e-05,-0.00036,-0.00034,5e-05,5e-05,4,13
29053,6e-05,3e-05,-3e-05,6e-05,-0.00036,-0.00034,5e-05,5e-05,4,13
29054,6e-05,3e-05,-3e-05,6e-05,-0.00036,-0.00034,5e-05,5e-05,4,13
29055,6e-05,3e-05,-3e-05,6e-05,-0.00036,-0.00034,5e-05,5e-05,4,13
29056,6e-05,3e-05,-3e-05,6e-05,-0.00036,-0.00034,5e-05,5e-05,4,13
29057,6e-05,3e-05,-3e-05,6e-05,-0.00036,-0.00034,5e-05,5e-05,4,13
29058,6e-05,3e-05,-3e-05,6e-05,-0.00036,-0.00034,5e-05,5e-05,4,13
29059,6e-05,3e-05,-3e-05,6e-05,-0.00036,-0.00034,5e-05,5e-05,4,13
29060,6e-05,3e-05,-3e-05,6e-05,-0.00036,-0.00034,5e-05,5e-05,4,13
29061,6e-05,3e-05,-3e-05,6e-05,-0.00036,-0.00034,5e-05,5e-05,4,13
29062,6e-05,3e-05,-3e-05,6e-05,-0.00036,-0.00034,5e-05,5e-05,4,13
29063,-1e-05,4e-05,8e-05,0.00035,0.0009,6e-05,8e-05,2e-05,4,13
29064,-7e-05,-0.00017,-0.00041,-0.00016,0.00035,0.00023,4e-05,-2e-05,4,13
29065,-7e-05,-0.00017,-0.00041,-0.00016,0.00035,0.00023,4e-05,-2e-05,4,13
29066,-7e-05,-0.00017,-0.00041,-0.00016,0.00035,0.00023,4e-05,-2e-05,4,13
29067,-7e-05,-0.00017,-0.00041,-0.00016,0.00035,0.00023,4e-05,-2e-05,4,13
29068,-7e-05,-0.00017,-0.00041,-0.00016,0.00035,0.00023,4e-05,-2e-05,4,13
29069,-7e-05,-0.00017,-0.00041,-0.00016,0.00035,0.00023,4e-05,-2e-05,4,13
29070,-7e-05,-0.00017,-0.00041,-0.00016,0.00035,0.00023,4e-05,-2e-05,4,13
29071,-7e-05,-0.00017,-0.00041,-0.00016,0.00035,0.00023,4e-05,-2e-05,4,13
29072,-7e-05,-0.00017,-0.00041,-0.00016,0.00035,0.00023,4e-05,-2e-05,4,13
29073,-7e-05,-0.00017,-0.00041,-0.00016,0.00035,0.00023,4e-05,-2e-05,4,13
29074,-7e-05,-0.00017,-0.00041,-0.00016,0.00035,0.00023,4e-05,-2e-05,4,13
29075,-7e-05,-0.00017,-0.00041,-0.00016,0.00035,0.00023,4e-05,-2e-05,4,13
29076,-7e-05,-0.00017,-0.00041,-0.00016,0.00035,0.00023,4e-05,-2e-05,4,13
29077,-7e-05,-0.00017,-0.00041,-0.00016,0.00035,0.00023,4e-05,-2e-05,4,13
29078,-7e-05,-0.00017,-0.00041,-0.00016,0.00035,0.00023,4e-05,-2e-05,4,13
29079,-7e-05,-0.00017,-0.00041,-0.00016,0.00035,0.00023,4e-05,-2e-05,4,13
29080,-7e-05,-0.00017,-0.00041,-0.00016,0.00035,0.00023,4e-05,-2e-05,4,13
29081,-7e-05,-0.00017,-0.00041,-0.00016,0.00035,0.00023,4e-05,-2e-05,4,13
29082,-7e-05,-0.00017,-0.00041,-0.00016,0.00035,0.00023,4e-05,-2e-05,4,13
29083,-7e-05,-0.00017,-0.00041,-0.00016,0.00035,0.00023,4e-05,-2e-05,4,13
29084,-7e-05,-0.00017,-0.00041,-0.00016,0.00035,0.00023,4e-05,-2e-05,4,13
29085,-7e-05,-0.00017,-0.00041,-0.00016,0.00035,0.00023,4e-05,-2e-05,4,13
29086,-6e-05,-0.0001,-9e-05,-0.00075,0.00014,6e-05,0,-4e-05,4,13
29088,-3e-05,7e-05,0.00019,-0.00022,-0.00031,-0.00038,-0.00022,-9e-05,4,13
29089,-3e-05,7e-05,0.00019,-0.00022,-0.00031,-0.00038,-0.00022,-9e-05,4,13
29090,-3e-05,7e-05,0.00019,-0.00022,-0.00031,-0.00038,-0.00022,-9e-05,4,13
29091,-3e-05,7e-05,0.00019,-0.00022,-0.00031,-0.00038,-0.00022,-9e-05,4,13
29092,-3e-05,7e-05,0.00019,-0.00022,-0.00031,-0.00038,-0.00022,-9e-05,4,13
29093,-3e-05,7e-05,0.00019,-0.00022,-0.00031,-0.00038,-0.00022,-9e-05,4,13
29094,-3e-05,7e-05,0.00019,-0.00022,-0.00031,-0.00038,-0.00022,-9e-05,4,13
29095,-3e-05,7e-05,0.00019,-0.00022,-0.00031,-0.00038,-0.00022,-9e-05,4,13
29096,-3e-05,7e-05,0.00019,-0.00022,-0.00031,-0.00038,-0.00022,-9e-05,4,13
29097,-3e-05,7e-05,0.00019,-0.00022,-0.00031,-0.00038,-0.00022,-9e-05,4,13
29098,-3e-05,7e-05,0.00019,-0.00022,-0.00031,-0.00038,-0.00022,-9e-05,4,13
29099,-3e-05,7e-05,0.00019,-0.00022,-0.00031,-0.00038,-0.00022,-9e-05,4,13
29100,-3e-05,7e-05,0.00019,-0.00022,-0.00031,-0.00038,-0.00022,-9e-05,4,13
29101,-3e-05,7e-05,0.00019,-0.00022,-0.00031,-0.00038,-0.00022,-9e-05,4,13
29102,-3e-05,7e-05,0.00019,-0.00022,-0.00031,-0.00038,-0.00022,-9e-05,4,13
29103,-3e-05,7e-05,0.00019,-0.00022,-0.00031,-0.00038,-0.00022,-9e-05,4,13
29104,-3e-05,7e-05,0.00019,-0.00022,-0.00031,-0.00038,-0.00022,-9e-05,4,13
29105,-3e-05,7e-05,0.00019,-0.00022,-0.00031,-0.00038,-0.00022,-9e-05,4,13
29106,-3e-05,7e-05,0.00019,-0.00022,-0.00031,-0.00038,-0.00022,-9e-05,4,13
29107,-3e-05,7e-05,0.00019,-0.00022,-0.00031,-0.00038,-0.00022,-9e-05,4,13
29108,-3e-05,7e-05,0.00019,-0.00022,-0.00031,-0.00038,-0.00022,-9e-05,4,13
29109,-5e-05,-5e-05,1e-05,-0.00077,-8e-05,0.0002,9e-05,2e-05,4,13
29110,-3e-05,-9e-05,-0.00011,-0.00077,-0.00077,-0.00037,-0.00017,-7e-05,4,13
29111,-3e-05,-9e-05,-0.00011,-0.00077,-0.00077,-0.00037,-0.00017,-7e-05,4,13
29112,-3e-05,-9e-05,-0.00011,-0.00077,-0.00077,-0.00037,-0.00017,-7e-05,4,13
29113,-3e-05,-9e-05,-0.00011,-0.00077,-0.00077,-0.00037,-0.00017,-7e-05,4,13
29114,-3e-05,-9e-05,-0.00011,-0.00077,-0.00077,-0.00037,-0.00017,-7e-05,4,13
29115,-3e-05,-9e-05,-0.00011,-0.00077,-0.00077,-0.00037,-0.00017,-7e-05,4,13
29116,-3e-05,-9e-05,-0.00011,-0.00077,-0.00077,-0.00037,-0.00017,-7e-05,4,13
29117,-3e-05,-9e-05,-0.00011,-0.00077,-0.00077,-0.00037,-0.00017,-7e-05,4,13
29118,-3e-05,-9e-05,-0.00011,-0.00077,-0.00077,-0.00037,-0.00017,-7e-05,4,13
29119,-3e-05,-9e-05,-0.00011,-0.00077,-0.00077,-0.00037,-0.00017,-7e-05,4,13
29120,-3e-05,-9e-05,-0.00011,-0.00077,-0.00077,-0.00037,-0.00017,-7e-05,4,13
29121,-3e-05,-9e-05,-0.00011,-0.00077,-0.00077,-0.00037,-0.00017,-7e-05,4,13
29122,-3e-05,-9e-05,-0.00011,-0.00077,-0.00077,-0.00037,-0.00017,-7e-05,4,13
29123,4e-05,8e-05,0.00021,0.00015,-0.00017,-0.00029,-4e-05,1e-05,4,13
29124,-2e-05,-6e-05,-0.0002,0.0004,-0.00022,-0.00016,-1e-05,0,4,13
29125,-2e-05,-6e-05,-0.0002,0.0004,-0.00022,-0.00016,-1e-05,0,4,13
29126,-2e-05,-6e-05,-0.0002,0.0004,-0.00022,-0.00016,-1e-05,0,4,13
29127,-2e-05,-6e-05,-0.0002,0.0004,-0.00022,-0.00016,-1e-05,0,4,13
29128,-2e-05,-6e-05,-0.0002,0.0004,-0.00022,-0.00016,-1e-05,0,4,13
29129,-2e-05,-6e-05,-0.0002,0.0004,-0.00022,-0.00016,-1e-05,0,4,13
29130,-2e-05,-6e-05,-0.0002,0.0004,-0.00022,-0.00016,-1e-05,0,4,13
29131,-2e-05,-6e-05,-0.0002,0.0004,-0.00022,-0.00016,-1e-05,0,4,13
29132,-2e-05,-6e-05,-0.0002,0.0004,-0.00022,-0.00016,-1e-05,0,4,13
29133,-2e-05,-6e-05,-0.0002,0.0004,-0.00022,-0.00016,-1e-05,0,4,13
29134,-2e-05,-6e-05,-0.0002,0.0004,-0.00022,-0.00016,-1e-05,0,4,13
29135,-2e-05,-6e-05,-0.0002,0.0004,-0.00022,-0.00016,-1e-05,0,4,13
29136,-2e-05,-6e-05,-0.0002,0.0004,-0.00022,-0.00016,-1e-05,0,4,13
29139,-2e-05,-6e-05,-0.0002,0.0004,-0.00022,-0.00016,-1e-05,0,4,13
29140,-2e-05,-6e-05,-0.0002,0.0004,-0.00022,-0.00016,-1e-05,0,4,13
29141,-2e-05,-6e-05,-0.0002,0.0004,-0.00022,-0.00016,-1e-05,0,4,13
29142,-2e-05,-6e-05,-0.0002,0.0004,-0.00022,-0.00016,-1e-05,0,4,13
29143,-2e-05,-6e-05,-0.0002,0.0004,-0.00022,-0.00016,-1e-05,0,4,13
29144,-2e-05,-6e-05,-0.0002,0.0004,-0.00022,-0.00016,-1e-05,0,4,13
29145,-2e-05,-6e-05,-0.0002,0.0004,-0.00022,-0.00016,-1e-05,0,4,13
29146,9e-05,0.00017,0.00022,0.0003,-0.00036,8e-05,0.00021,0.00013,4,13
29147,-5e-05,-6e-05,-8e-05,-0.00048,-0.00044,0.00037,2e-05,-4e-05,4,13
29148,-5e-05,-6e-05,-8e-05,-0.00048,-0.00044,0.00037,2e-05,-4e-05,4,13
29149,-5e-05,-6e-05,-8e-05,-0.00048,-0.00044,0.00037,2e-05,-4e-05,4,13
29150,-5e-05,-6e-05,-8e-05,-0.00048,-0.00044,0.00037,2e-05,-4e-05,4,13
29151,-5e-05,-6e-05,-8e-05,-0.00048,-0.00044,0.00037,2e-05,-4e-05,4,13
29152,-5e-05,-6e-05,-8e-05,-0.00048,-0.00044,0.00037,2e-05,-4e-05,4,13
29153,-5e-05,-6e-05,-8e-05,-0.00048,-0.00044,0.00037,2e-05,-4e-05,4,13
29154,-5e-05,-6e-05,-8e-05,-0.00048,-0.00044,0.00037,2e-05,-4e-05,4,13
29155,-5e-05,-6e-05,-8e-05,-0.00048,-0.00044,0.00037,2e-05,-4e-05,4,13
29156,-5e-05,-6e-05,-8e-05,-0.00048,-0.00044,0.00037,2e-05,-4e-05,4,13
29157,-5e-05,-6e-05,-8e-05,-0.00048,-0.00044,0.00037,2e-05,-4e-05,4,13
29158,-5e-05,-6e-05,-8e-05,-0.00048,-0.00044,0.00037,2e-05,-4e-05,4,13
29159,-5e-05,-6e-05,-8e-05,-0.00048,-0.00044,0.00037,2e-05,-4e-05,4,13
29160,-5e-05,-6e-05,-8e-05,-0.00048,-0.00044,0.00037,2e-05,-4e-05,4,13
29161,-5e-05,-6e-05,-8e-05,-0.00048,-0.00044,0.00037,2e-05,-4e-05,4,13
29162,-5e-05,-6e-05,-8e-05,-0.00048,-0.00044,0.00037,2e-05,-4e-05,4,13
29163,-5e-05,-6e-05,-8e-05,-0.00048,-0.00044,0.00037,2e-05,-4e-05,4,13
29164,-5e-05,-6e-05,-8e-05,-0.00048,-0.00044,0.00037,2e-05,-4e-05,4,13
29165,-5e-05,-6e-05,-8e-05,-0.00048,-0.00044,0.00037,2e-05,-4e-05,4,13
29166,-5e-05,-6e-05,-8e-05,-0.00048,-0.00044,0.00037,2e-05,-4e-05,4,13
29167,-5e-05,-6e-05,-8e-05,-0.00048,-0.00044,0.00037,2e-05,-4e-05,4,13
29168,-5e-05,-6e-05,-8e-05,-0.00048,-0.00044,0.00037,2e-05,-4e-05,4,13
29169,-3e-05,-2e-05,0.00014,-0.00035,-0.00051,0.00013,-4e-05,-6e-05,4,13
29170,-5e-05,-0.00024,-0.00046,-0.00048,0.00053,-1e-05,-9e-05,-6e-05,4,13
29171,-5e-05,-0.00024,-0.00046,-0.00048,0.00053,-1e-05,-9e-05,-6e-05,4,13
29172,-5e-05,-0.00024,-0.00046,-0.00048,0.00053,-1e-05,-9e-05,-6e-05,4,13
29173,-5e-05,-0.00024,-0.00046,-0.00048,0.00053,-1e-05,-9e-05,-6e-05,4,13
29174,-5e-05,-0.00024,-0.00046,-0.00048,0.00053,-1e-05,-9e-05,-6e-05,4,13
29175,-5e-05,-0.00024,-0.00046,-0.00048,0.00053,-1e-05,-9e-05,-6e-05,4,13
29176,-5e-05,-0.00024,-0.00046,-0.00048,0.00053,-1e-05,-9e-05,-6e-05,4,13
29177,-5e-05,-0.00024,-0.00046,-0.00048,0.00053,-1e-05,-9e-05,-6e-05,4,13
29178,-5e-05,-0.00024,-0.00046,-0.00048,0.00053,-1e-05,-9e-05,-6e-05,4,13
29179,-5e-05,-0.00024,-0.00046,-0.00048,0.00053,-1e-05,-9e-05,-6e-05,4,13
29180,-5e-05,-0.00024,-0.00046,-0.00048,0.00053,-1e-05,-9e-05,-6e-05,4,13
29181,-5e-05,-0.00024,-0.00046,-0.00048,0.00053,-1e-05,-9e-05,-6e-05,4,13
29182,-5e-05,-0.00024,-0.00046,-0.00048,0.00053,-1e-05,-9e-05,-6e-05,4,13
29183,4e-05,4e-05,-0.0002,-0.00017,-0.00017,-8e-05,-7e-05,3e-05,4,13
29184,-9e-05,-2e-05,0.00014,0.00019,-0.00048,-0.0007,-0.00026,-0.00013,4,13
29185,-9e-05,-2e-05,0.00014,0.00019,-0.00048,-0.0007,-0.00026,-0.00013,4,13
29186,-9e-05,-2e-05,0.00014,0.00019,-0.00048,-0.0007,-0.00026,-0.00013,4,13
29188,-9e-05,-2e-05,0.00014,0.00019,-0.00048,-0.0007,-0.00026,-0.00013,4,13
29189,-9e-05,-2e-05,0.00014,0.00019,-0.00048,-0.0007,-0.00026,-0.00013,4,13
29190,-9e-05,-2e-05,0.00014,0.00019,-0.00048,-0.0007,-0.00026,-0.00013,4,13
29191,-9e-05,-2e-05,0.00014,0.00019,-0.00048,-0.0007,-0.00026,-0.00013,4,13
29192,-9e-05,-2e-05,0.00014,0.00019,-0.00048,-0.0007,-0.00026,-0.00013,4,13
29193,-9e-05,-2e-05,0.00014,0.00019,-0.00048,-0.0007,-0.00026,-0.00013,4,13
29194,-9e-05,-2e-05,0.00014,0.00019,-0.00048,-0.0007,-0.00026,-0.00013,4,13
29195,-9e-05,-2e-05,0.00014,0.00019,-0.00048,-0.0007,-0.00026,-0.00013,4,13
29196,-9e-05,-2e-05,0.00014,0.00019,-0.00048,-0.0007,-0.00026,-0.00013,4,13
29197,-9e-05,-2e-05,0.00014,0.00019,-0.00048,-0.0007,-0.00026,-0.00013,4,13
29198,-9e-05,-2e-05,0.00014,0.00019,-0.00048,-0.0007,-0.00026,-0.00013,4,13
29199,-9e-05,-2e-05,0.00014,0.00019,-0.00048,-0.0007,-0.00026,-0.00013,4,13
29200,-9e-05,-2e-05,0.00014,0.00019,-0.00048,-0.0007,-0.00026,-0.00013,4,13
29201,-9e-05,-2e-05,0.00014,0.00019,-0.00048,-0.0007,-0.00026,-0.00013,4,13
29202,-9e-05,-2e-05,0.00014,0.00019,-0.00048,-0.0007,-0.00026,-0.00013,4,13
29203,-9e-05,-2e-05,0.00014,0.00019,-0.00048,-0.0007,-0.00026,-0.00013,4,13
29204,-9e-05,-2e-05,0.00014,0.00019,-0.00048,-0.0007,-0.00026,-0.00013,4,13
29205,-9e-05,-2e-05,0.00014,0.00019,-0.00048,-0.0007,-0.00026,-0.00013,4,13
29206,-3e-05,-0.00015,-0.00027,-0.00047,0.00087,0.00035,5e-05,0,4,13
29207,7e-05,9e-05,3e-05,-6e-05,0.00115,-0.00023,7e-05,0.0001,4,13
29208,7e-05,9e-05,3e-05,-6e-05,0.00115,-0.00023,7e-05,0.0001,4,13
29209,7e-05,9e-05,3e-05,-6e-05,0.00115,-0.00023,7e-05,0.0001,4,13
29210,7e-05,9e-05,3e-05,-6e-05,0.00115,-0.00023,7e-05,0.0001,4,13
29211,7e-05,9e-05,3e-05,-6e-05,0.00115,-0.00023,7e-05,0.0001,4,13
29212,7e-05,9e-05,3e-05,-6e-05,0.00115,-0.00023,7e-05,0.0001,4,13
29213,7e-05,9e-05,3e-05,-6e-05,0.00115,-0.00023,7e-05,0.0001,4,13
29214,7e-05,9e-05,3e-05,-6e-05,0.00115,-0.00023,7e-05,0.0001,4,13
29215,7e-05,9e-05,3e-05,-6e-05,0.00115,-0.00023,7e-05,0.0001,4,13
29216,7e-05,9e-05,3e-05,-6e-05,0.00115,-0.00023,7e-05,0.0001,4,13
29217,7e-05,9e-05,3e-05,-6e-05,0.00115,-0.00023,7e-05,0.0001,4,13
29218,7e-05,9e-05,3e-05,-6e-05,0.00115,-0.00023,7e-05,0.0001,4,13
29219,7e-05,9e-05,3e-05,-6e-05,0.00115,-0.00023,7e-05,0.0001,4,13
29220,7e-05,9e-05,3e-05,-6e-05,0.00115,-0.00023,7e-05,0.0001,4,13
29221,7e-05,9e-05,3e-05,-6e-05,0.00115,-0.00023,7e-05,0.0001,4,13
29222,7e-05,9e-05,3e-05,-6e-05,0.00115,-0.00023,7e-05,0.0001,4,13
29223,7e-05,9e-05,3e-05,-6e-05,0.00115,-0.00023,7e-05,0.0001,4,13
29224,7e-05,9e-05,3e-05,-6e-05,0.00115,-0.00023,7e-05,0.0001,4,13
29225,7e-05,9e-05,3e-05,-6e-05,0.00115,-0.00023,7e-05,0.0001,4,13
29226,7e-05,9e-05,3e-05,-6e-05,0.00115,-0.00023,7e-05,0.0001,4,13
29227,7e-05,9e-05,3e-05,-6e-05,0.00115,-0.00023,7e-05,0.0001,4,13
29228,7e-05,9e-05,3e-05,-6e-05,0.00115,-0.00023,7e-05,0.0001,4,13
29229,6e-05,6e-05,-5e-05,-0.00048,-0.00033,-0.00066,-0.0001,0,4,13
29230,3e-05,0.0001,0.00041,0.00096,0.00039,0.00027,7e-05,1e-05,4,13
29231,3e-05,0.0001,0.00041,0.00096,0.00039,0.00027,7e-05,1e-05,4,13
29232,3e-05,0.0001,0.00041,0.00096,0.00039,0.00027,7e-05,1e-05,4,13
29233,3e-05,0.0001,0.00041,0.00096,0.00039,0.00027,7e-05,1e-05,4,13
29234,3e-05,0.0001,0.00041,0.00096,0.00039,0.00027,7e-05,1e-05,4,13
29235,3e-05,0.0001,0.00041,0.00096,0.00039,0.00027,7e-05,1e-05,4,13
29236,3e-05,0.0001,0.00041,0.00096,0.00039,0.00027,7e-05,1e-05,4,13
29238,3e-05,0.0001,0.00041,0.00096,0.00039,0.00027,7e-05,1e-05,4,13
29239,3e-05,0.0001,0.00041,0.00096,0.00039,0.00027,7e-05,1e-05,4,13
29240,3e-05,0.0001,0.00041,0.00096,0.00039,0.00027,7e-05,1e-05,4,13
29241,3e-05,0.0001,0.00041,0.00096,0.00039,0.00027,7e-05,1e-05,4,13
29242,3e-05,0.0001,0.00041,0.00096,0.00039,0.00027,7e-05,1e-05,4,13
29243,0,0.00017,0.00034,0.00012,-0.0004,-0.0001,6e-05,4e-05,4,13
29244,0,-2e-05,5e-05,0.00019,-0.00111,0.00025,0.0001,3e-05,4,13
29245,0,-2e-05,5e-05,0.00019,-0.00111,0.00025,0.0001,3e-05,4,13
29246,0,-2e-05,5e-05,0.00019,-0.00111,0.00025,0.0001,3e-05,4,13
29247,0,-2e-05,5e-05,0.00019,-0.00111,0.00025,0.0001,3e-05,4,13
29248,0,-2e-05,5e-05,0.00019,-0.00111,0.00025,0.0001,3e-05,4,13
29249,0,-2e-05,5e-05,0.00019,-0.00111,0.00025,0.0001,3e-05,4,13
29250,0,-2e-05,5e-05,0.00019,-0.00111,0.00025,0.0001,3e-05,4,13
29251,0,-2e-05,5e-05,0.00019,-0.00111,0.00025,0.0001,3e-05,4,13
29252,0,-2e-05,5e-05,0.00019,-0.00111,0.00025,0.0001,3e-05,4,13
29253,0,-2e-05,5e-05,0.00019,-0.00111,0.00025,0.0001,3e-05,4,13
29254,0,-2e-05,5e-05,0.00019,-0.00111,0.00025,0.0001,3e-05,4,13
29255,0,-2e-05,5e-05,0.00019,-0.00111,0.00025,0.0001,3e-05,4,13
29256,0,-2e-05,5e-05,0.00019,-0.00111,0.00025,0.0001,3e-05,4,13
29257,0,-2e-05,5e-05,0.00019,-0.00111,0.00025,0.0001,3e-05,4,13
29258,0,-2e-05,5e-05,0.00019,-0.00111,0.00025,0.0001,3e-05,4,13
29259,0,-2e-05,5e-05,0.00019,-0.00111,0.00025,0.0001,3e-05,4,13
29260,0,-2e-05,5e-05,0.00019,-0.00111,0.00025,0.0001,3e-05,4,13
29261,0,-2e-05,5e-05,0.00019,-0.00111,0.00025,0.0001,3e-05,4,13
29262,0,-2e-05,5e-05,0.00019,-0.00111,0.00025,0.0001,3e-05,4,13
29263,0,-2e-05,5e-05,0.00019,-0.00111,0.00025,0.0001,3e-05,4,13
29265,0,-2e-05,5e-05,0.00019,-0.00111,0.00025,0.0001,3e-05,4,13
29266,-0.0001,-0.00011,-0.0002,-0.00091,-0.00095,-0.00056,-0.0002,-0.00016,4,13
29267,8e-05,7e-05,-6e-05,0.00013,0.00109,0.00033,0.00022,9e-05,4,13
29268,8e-05,7e-05,-6e-05,0.00013,0.00109,0.00033,0.00022,9e-05,4,13
29269,8e-05,7e-05,-6e-05,0.00013,0.00109,0.00033,0.00022,9e-05,4,13
29270,8e-05,7e-05,-6e-05,0.00013,0.00109,0.00033,0.00022,9e-05,4,13
29271,8e-05,7e-05,-6e-05,0.00013,0.00109,0.00033,0.00022,9e-05,4,13
29272,8e-05,7e-05,-6e-05,0.00013,0.00109,0.00033,0.00022,9e-05,4,13
29273,8e-05,7e-05,-6e-05,0.00013,0.00109,0.00033,0.00022,9e-05,4,13
29274,8e-05,7e-05,-6e-05,0.00013,0.00109,0.00033,0.00022,9e-05,4,13
29275,8e-05,7e-05,-6e-05,0.00013,0.00109,0.00033,0.00022,9e-05,4,13
29276,8e-05,7e-05,-6e-05,0.00013,0.00109,0.00033,0.00022,9e-05,4,13
29277,8e-05,7e-05,-6e-05,0.00013,0.00109,0.00033,0.00022,9e-05,4,13
29278,8e-05,7e-05,-6e-05,0.00013,0.00109,0.00033,0.00022,9e-05,4,13
29279,8e-05,7e-05,-6e-05,0.00013,0.00109,0.00033,0.00022,9e-05,4,13
29280,8e-05,7e-05,-6e-05,0.00013,0.00109,0.00033,0.00022,9e-05,4,13
29281,8e-05,7e-05,-6e-05,0.00013,0.00109,0.00033,0.00022,9e-05,4,13
29282,8e-05,7e-05,-6e-05,0.00013,0.00109,0.00033,0.00022,9e-05,4,13
29283,8e-05,7e-05,-6e-05,0.00013,0.00109,0.00033,0.00022,9e-05,4,13
29284,8e-05,7e-05,-6e-05,0.00013,0.00109,0.00033,0.00022,9e-05,4,13
29285,8e-05,7e-05,-6e-05,0.00013,0.00109,0.00033,0.00022,9e-05,4,13
29286,8e-05,7e-05,-6e-05,0.00013,0.00109,0.00033,0.00022,9e-05,4,13
29288,8e-05,7e-05,-6e-05,0.00013,0.00109,0.00033,0.00022,9e-05,4,13
29289,8e-05,7e-05,-6e-05,0.00013,0.00109,0.00033,0.00022,9e-05,4,13
29290,0.00013,0.00017,0.00032,-0.00059,0.00084,0.0004,0.00014,0.00013,4,13
29291,-5e-05,-5e-05,-0.00051,-0.00089,0.00035,0.00059,0.00014,5e-05,4,13
29292,-5e-05,-5e-05,-0.00051,-0.00089,0.00035,0.00059,0.00014,5e-05,4,13
29293,-5e-05,-5e-05,-0.00051,-0.00089,0.00035,0.00059,0.00014,5e-05,4,13
29294,-5e-05,-5e-05,-0.00051,-0.00089,0.00035,0.00059,0.00014,5e-05,4,13
29295,-5e-05,-5e-05,-0.00051,-0.00089,0.00035,0.00059,0.00014,5e-05,4,13
29296,-5e-05,-5e-05,-0.00051,-0.00089,0.00035,0.00059,0.00014,5e-05,4,13
29297,-5e-05,-5e-05,-0.00051,-0.00089,0.00035,0.00059,0.00014,5e-05,4,13
29298,-5e-05,-5e-05,-0.00051,-0.00089,0.00035,0.00059,0.00014,5e-05,4,13
29299,-5e-05,-5e-05,-0.00051,-0.00089,0.00035,0.00059,0.00014,5e-05,4,13
29300,-5e-05,-5e-05,-0.00051,-0.00089,0.00035,0.00059,0.00014,5e-05,4,13
29301,-5e-05,-5e-05,-0.00051,-0.00089,0.00035,0.00059,0.00014,5e-05,4,13
29302,-5e-05,-5e-05,-0.00051,-0.00089,0.00035,0.00059,0.00014,5e-05,4,13
29303,5e-05,3e-05,0.00021,0.00046,0.00111,0.00019,0.0001,0.00011,4,13
29304,-7e-05,-0.00012,-0.00013,-0.00013,-0.00057,-0.00017,-0.00012,-9e-05,4,13
29305,-7e-05,-0.00012,-0.00013,-0.00013,-0.00057,-0.00017,-0.00012,-9e-05,4,13
29306,-7e-05,-0.00012,-0.00013,-0.00013,-0.00057,-0.00017,-0.00012,-9e-05,4,13
29307,-7e-05,-0.00012,-0.00013,-0.00013,-0.00057,-0.00017,-0.00012,-9e-05,4,13
29308,-7e-05,-0.00012,-0.00013,-0.00013,-0.00057,-0.00017,-0.00012,-9e-05,4,13
29309,-7e-05,-0.00012,-0.00013,-0.00013,-0.00057,-0.00017,-0.00012,-9e-05,4,13
29310,-7e-05,-0.00012,-0.00013,-0.00013,-0.00057,-0.00017,-0.00012,-9e-05,4,13
29311,-7e-05,-0.00012,-0.00013,-0.00013,-0.00057,-0.00017,-0.00012,-9e-05,4,13
29312,-7e-05,-0.00012,-0.00013,-0.00013,-0.00057,-0.00017,-0.00012,-9e-05,4,13
29313,-7e-05,-0.00012,-0.00013,-0.00013,-0.00057,-0.00017,-0.00012,-9e-05,4,13
29314,-7e-05,-0.00012,-0.00013,-0.00013,-0.00057,-0.00017,-0.00012,-9e-05,4,13
29315,-7e-05,-0.00012,-0.00013,-0.00013,-0.00057,-0.00017,-0.00012,-9e-05,4,13
29316,-7e-05,-0.00012,-0.00013,-0.00013,-0.00057,-0.00017,-0.00012,-9e-05,4,13
29317,-7e-05,-0.00012,-0.00013,-0.00013,-0.00057,-0.00017,-0.00012,-9e-05,4,13
29318,-7e-05,-0.00012,-0.00013,-0.00013,-0.00057,-0.00017,-0.00012,-9e-05,4,13
29319,-7e-05,-0.00012,-0.00013,-0.00013,-0.00057,-0.00017,-0.00012,-9e-05,4,13
29320,-7e-05,-0.00012,-0.00013,-0.00013,-0.00057,-0.00017,-0.00012,-9e-05,4,13
29321,-7e-05,-0.00012,-0.00013,-0.00013,-0.00057,-0.00017,-0.00012,-9e-05,4,13
29322,-7e-05,-0.00012,-0.00013,-0.00013,-0.00057,-0.00017,-0.00012,-9e-05,4,13
29323,-7e-05,-0.00012,-0.00013,-0.00013,-0.00057,-0.00017,-0.00012,-9e-05,4,13
29324,-7e-05,-0.00012,-0.00013,-0.00013,-0.00057,-0.00017,-0.00012,-9e-05,4,13
29325,-7e-05,-0.00012,-0.00013,-0.00013,-0.00057,-0.00017,-0.00012,-9e-05,4,13
29326,-7e-05,-0.00012,-0.00013,-0.00013,-0.00057,-0.00017,-0.00012,-9e-05,4,13
29327,7e-05,0.00023,0.00039,0.00015,-0.0007,-0.00023,8e-05,5e-05,4,13
29328,7e-05,0.00023,0.00039,0.00015,-0.0007,-0.00023,8e-05,5e-05,4,13
29329,7e-05,0.00023,0.00039,0.00015,-0.0007,-0.00023,8e-05,5e-05,4,13
29330,7e-05,0.00023,0.00039,0.00015,-0.0007,-0.00023,8e-05,5e-05,4,13
29331,7e-05,0.00023,0.00039,0.00015,-0.0007,-0.00023,8e-05,5e-05,4,13
29332,7e-05,0.00023,0.00039,0.00015,-0.0007,-0.00023,8e-05,5e-05,4,13
29333,7e-05,0.00023,0.00039,0.00015,-0.0007,-0.00023,8e-05,5e-05,4,13
29334,7e-05,0.00023,0.00039,0.00015,-0.0007,-0.00023,8e-05,5e-05,4,13
29335,7e-05,0.00023,0.00039,0.00015,-0.0007,-0.00023,8e-05,5e-05,4,13
29337,7e-05,0.00023,0.00039,0.00015,-0.0007,-0.00023,8e-05,5e-05,4,13
29339,7e-05,0.00023,0.00039,0.00015,-0.0007,-0.00023,8e-05,5e-05,4,13
29340,7e-05,0.00023,0.00039,0.00015,-0.0007,-0.00023,8e-05,5e-05,4,13
29341,7e-05,0.00023,0.00039,0.00015,-0.0007,-0.00023,8e-05,5e-05,4,13
29342,7e-05,0.00023,0.00039,0.00015,-0.0007,-0.00023,8e-05,5e-05,4,13
29343,7e-05,0.00023,0.00039,0.00015,-0.0007,-0.00023,8e-05,5e-05,4,13
29344,7e-05,0.00023,0.00039,0.00015,-0.0007,-0.00023,8e-05,5e-05,4,13
29345,7e-05,0.00023,0.00039,0.00015,-0.0007,-0.00023,8e-05,5e-05,4,13
29346,7e-05,0.00023,0.00039,0.00015,-0.0007,-0.00023,8e-05,5e-05,4,13
29347,7e-05,0.00023,0.00039,0.00015,-0.0007,-0.00023,8e-05,5e-05,4,13
29348,7e-05,0.00023,0.00039,0.00015,-0.0007,-0.00023,8e-05,5e-05,4,13
29349,7e-05,0.00023,0.00039,0.00015,-0.0007,-0.00023,8e-05,5e-05,4,13
29350,7e-05,0.00023,0.00039,0.00015,-0.0007,-0.00023,8e-05,5e-05,4,13
29351,7e-05,0.00023,0.00039,0.00015,-0.0007,-0.00023,8e-05,5e-05,4,13
29352,7e-05,0.00023,0.00039,0.00015,-0.0007,-0.00023,8e-05,5e-05,4,13
29353,7e-05,0.00023,0.00039,0.00015,-0.0007,-0.00023,8e-05,5e-05,4,13
29354,7e-05,0.00023,0.00039,0.00015,-0.0007,-0.00023,8e-05,5e-05,4,13
29355,7e-05,0.00023,0.00039,0.00015,-0.0007,-0.00023,8e-05,5e-05,4,13
29356,7e-05,0.00023,0.00039,0.00015,-0.0007,-0.00023,8e-05,5e-05,4,13
29358,-2e-05,0,6e-05,-0.00091,-0.0005,0.00078,0.0001,1e-05,4,13
29359,-2e-05,0,6e-05,-0.00091,-0.0005,0.00078,0.0001,1e-05,4,13
29360,-2e-05,0,6e-05,-0.00091,-0.0005,0.00078,0.0001,1e-05,4,13
29361,-2e-05,0,6e-05,-0.00091,-0.0005,0.00078,0.0001,1e-05,4,13
29362,-2e-05,0,6e-05,-0.00091,-0.0005,0.00078,0.0001,1e-05,4,13
29363,6e-05,0.00011,4e-05,-0.00019,-0.00075,1e-05,-1e-05,2e-05,4,13
29364,-0.00016,-0.00022,-0.0002,-0.00032,-0.00031,-0.00028,-0.00012,-0.00018,4,13
29365,-0.00016,-0.00022,-0.0002,-0.00032,-0.00031,-0.00028,-0.00012,-0.00018,4,13
29366,-0.00016,-0.00022,-0.0002,-0.00032,-0.00031,-0.00028,-0.00012,-0.00018,4,13
29367,-0.00016,-0.00022,-0.0002,-0.00032,-0.00031,-0.00028,-0.00012,-0.00018,4,13
29368,-0.00016,-0.00022,-0.0002,-0.00032,-0.00031,-0.00028,-0.00012,-0.00018,4,13
29369,-0.00016,-0.00022,-0.0002,-0.00032,-0.00031,-0.00028,-0.00012,-0.00018,4,13
29370,-0.00016,-0.00022,-0.0002,-0.00032,-0.00031,-0.00028,-0.00012,-0.00018,4,13
29371,-0.00016,-0.00022,-0.0002,-0.00032,-0.00031,-0.00028,-0.00012,-0.00018,4,13
29372,-0.00016,-0.00022,-0.0002,-0.00032,-0.00031,-0.00028,-0.00012,-0.00018,4,13
29373,-0.00016,-0.00022,-0.0002,-0.00032,-0.00031,-0.00028,-0.00012,-0.00018,4,13
29374,-0.00016,-0.00022,-0.0002,-0.00032,-0.00031,-0.00028,-0.00012,-0.00018,4,13
29375,-0.00016,-0.00022,-0.0002,-0.00032,-0.00031,-0.00028,-0.00012,-0.00018,4,13
29376,-0.00016,-0.00022,-0.0002,-0.00032,-0.00031,-0.00028,-0.00012,-0.00018,4,13
29377,-0.00016,-0.00022,-0.0002,-0.00032,-0.00031,-0.00028,-0.00012,-0.00018,4,13
29378,-0.00016,-0.00022,-0.0002,-0.00032,-0.00031,-0.00028,-0.00012,-0.00018,4,13
29379,-0.00016,-0.00022,-0.0002,-0.00032,-0.00031,-0.00028,-0.00012,-0.00018,4,13
29380,-0.00016,-0.00022,-0.0002,-0.00032,-0.00031,-0.00028,-0.00012,-0.00018,4,13
29381,-0.00016,-0.00022,-0.0002,-0.00032,-0.00031,-0.00028,-0.00012,-0.00018,4,13
29382,-0.00016,-0.00022,-0.0002,-0.00032,-0.00031,-0.00028,-0.00012,-0.00018,4,13
29383,-0.00016,-0.00022,-0.0002,-0.00032,-0.00031,-0.00028,-0.00012,-0.00018,4,13
29384,-0.00016,-0.00022,-0.0002,-0.00032,-0.00031,-0.00028,-0.00012,-0.00018,4,13
29385,-0.00016,-0.00022,-0.0002,-0.00032,-0.00031,-0.00028,-0.00012,-0.00018,4,13
29386,-0.00016,-0.00022,-0.0002,-0.00032,-0.00031,-0.00028,-0.00012,-0.00018,4,13
29388,-0.00014,-0.00025,-0.00058,-0.00019,5e-05,-0.00024,-0.00028,-0.00015,4,13
29389,-0.00014,-0.00025,-0.00058,-0.00019,5e-05,-0.00024,-0.00028,-0.00015,4,13
29390,-0.00014,-0.00025,-0.00058,-0.00019,5e-05,-0.00024,-0.00028,-0.00015,4,13
29391,-0.00014,-0.00025,-0.00058,-0.00019,5e-05,-0.00024,-0.00028,-0.00015,4,13
29392,-0.00014,-0.00025,-0.00058,-0.00019,5e-05,-0.00024,-0.00028,-0.00015,4,13
29393,-0.00014,-0.00025,-0.00058,-0.00019,5e-05,-0.00024,-0.00028,-0.00015,4,13
29394,-0.00014,-0.00025,-0.00058,-0.00019,5e-05,-0.00024,-0.00028,-0.00015,4,13
29395,-0.00014,-0.00025,-0.00058,-0.00019,5e-05,-0.00024,-0.00028,-0.00015,4,13
29396,-0.00014,-0.00025,-0.00058,-0.00019,5e-05,-0.00024,-0.00028,-0.00015,4,13
29397,-0.00014,-0.00025,-0.00058,-0.00019,5e-05,-0.00024,-0.00028,-0.00015,4,13
29398,-0.00014,-0.00025,-0.00058,-0.00019,5e-05,-0.00024,-0.00028,-0.00015,4,13
29399,-0.00014,-0.00025,-0.00058,-0.00019,5e-05,-0.00024,-0.00028,-0.00015,4,13
29400,-0.00014,-0.00025,-0.00058,-0.00019,5e-05,-0.00024,-0.00028,-0.00015,4,13
29401,-0.00014,-0.00025,-0.00058,-0.00019,5e-05,-0.00024,-0.00028,-0.00015,4,13
29402,-0.00014,-0.00025,-0.00058,-0.00019,5e-05,-0.00024,-0.00028,-0.00015,4,13
29403,-0.00014,-0.00025,-0.00058,-0.00019,5e-05,-0.00024,-0.00028,-0.00015,4,13
29404,-0.00014,-0.00025,-0.00058,-0.00019,5e-05,-0.00024,-0.00028,-0.00015,4,13
29405,-0.00014,-0.00025,-0.00058,-0.00019,5e-05,-0.00024,-0.00028,-0.00015,4,13
29406,-0.00014,-0.00025,-0.00058,-0.00019,5e-05,-0.00024,-0.00028,-0.00015,4,13
29407,-0.00014,-0.00025,-0.00058,-0.00019,5e-05,-0.00024,-0.00028,-0.00015,4,13
29408,-0.00014,-0.00025,-0.00058,-0.00019,5e-05,-0.00024,-0.00028,-0.00015,4,13
29409,-0.00014,-0.00025,-0.00058,-0.00019,5e-05,-0.00024,-0.00028,-0.00015,4,13
29410,-0.00014,-0.00025,-0.00058,-0.00019,5e-05,-0.00024,-0.00028,-0.00015,4,13
29411,-0.00014,-0.00025,-0.00058,-0.00019,5e-05,-0.00024,-0.00028,-0.00015,4,13
29412,-0.00014,-0.00025,-0.00058,-0.00019,5e-05,-0.00024,-0.00028,-0.00015,4,13
29413,-0.00014,-0.00025,-0.00058,-0.00019,5e-05,-0.00024,-0.00028,-0.00015,4,13
29414,-0.00014,-0.00025,-0.00058,-0.00019,5e-05,-0.00024,-0.00028,-0.00015,4,13
29415,-0.00014,-0.00025,-0.00058,-0.00019,5e-05,-0.00024,-0.00028,-0.00015,4,13
29416,0.0001,0.00019,0.00031,-0.00102,-0.00107,0.00097,0.00021,0.0001,4,13
29417,5e-05,9e-05,0.00038,0.00114,0.00089,4e-05,-3e-05,0,4,13
29418,5e-05,9e-05,0.00038,0.00114,0.00089,4e-05,-3e-05,0,4,13
29419,5e-05,9e-05,0.00038,0.00114,0.00089,4e-05,-3e-05,0,4,13
29420,5e-05,9e-05,0.00038,0.00114,0.00089,4e-05,-3e-05,0,4,13
29421,5e-05,9e-05,0.00038,0.00114,0.00089,4e-05,-3e-05,0,4,13
29422,5e-05,9e-05,0.00038,0.00114,0.00089,4e-05,-3e-05,0,4,13
29423,2e-05,0.00015,0.00018,0.00021,0.00024,-2e-05,-4e-05,-1e-05,4,13
29424,-6e-05,-0.00012,-0.00016,-0.00118,-0.00085,-0.00084,-0.00018,-7e-05,4,13
29425,8e-05,0.00012,0.00034,0.00022,0.00076,9e-05,-1e-05,3e-05,4,13
29426,8e-05,0.00012,0.00034,0.00022,0.00076,9e-05,-1e-05,3e-05,4,13
29427,8e-05,0.00012,0.00034,0.00022,0.00076,9e-05,-1e-05,3e-05,4,13
29428,8e-05,0.00012,0.00034,0.00022,0.00076,9e-05,-1e-05,3e-05,4,13
29429,8e-05,0.00012,0.00034,0.00022,0.00076,9e-05,-1e-05,3e-05,4,13
29430,8e-05,0.00012,0.00034,0.00022,0.00076,9e-05,-1e-05,3e-05,4,13
29431,8e-05,0.00012,0.00034,0.00022,0.00076,9e-05,-1e-05,3e-05,4,13
29432,8e-05,0.00012,0.00034,0.00022,0.00076,9e-05,-1e-05,3e-05,4,13
29433,8e-05,0.00012,0.00034,0.00022,0.00076,9e-05,-1e-05,3e-05,4,13
29434,8e-05,0.00012,0.00034,0.00022,0.00076,9e-05,-1e-05,3e-05,4,13
29435,8e-05,0.00012,0.00034,0.00022,0.00076,9e-05,-1e-05,3e-05,4,13
29436,8e-05,0.00012,0.00034,0.00022,0.00076,9e-05,-1e-05,3e-05,4,13
29438,8e-05,0.00012,0.00034,0.00022,0.00076,9e-05,-1e-05,3e-05,4,13
29439,8e-05,0.00012,0.00034,0.00022,0.00076,9e-05,-1e-05,3e-05,4,13
29440,8e-05,0.00012,0.00034,0.00022,0.00076,9e-05,-1e-05,3e-05,4,13
29441,8e-05,0.00012,0.00034,0.00022,0.00076,9e-05,-1e-05,3e-05,4,13
29442,8e-05,0.00012,0.00034,0.00022,0.00076,9e-05,-1e-05,3e-05,4,13
29443,8e-05,0.00012,0.00034,0.00022,0.00076,9e-05,-1e-05,3e-05,4,13
29444,8e-05,0.00012,0.00034,0.00022,0.00076,9e-05,-1e-05,3e-05,4,13
29445,8e-05,0.00012,0.00034,0.00022,0.00076,9e-05,-1e-05,3e-05,4,13
29446,8e-05,0.00012,0.00034,0.00022,0.00076,9e-05,-1e-05,3e-05,4,13
29447,7e-05,1e-05,-3e-05,-0.00075,-0.00033,0.00025,0.00012,7e-05,4,13
29448,0,4e-05,0.00034,0.00058,0.0003,0.00025,0.00012,7e-05,4,13
29449,0,4e-05,0.00034,0.00058,0.0003,0.00025,0.00012,7e-05,4,13
29450,0,4e-05,0.00034,0.00058,0.0003,0.00025,0.00012,7e-05,4,13
29451,0,4e-05,0.00034,0.00058,0.0003,0.00025,0.00012,7e-05,4,13
29452,0,4e-05,0.00034,0.00058,0.0003,0.00025,0.00012,7e-05,4,13
29453,0,4e-05,0.00034,0.00058,0.0003,0.00025,0.00012,7e-05,4,13
29454,0,4e-05,0.00034,0.00058,0.0003,0.00025,0.00012,7e-05,4,13
29455,0,4e-05,0.00034,0.00058,0.0003,0.00025,0.00012,7e-05,4,13
29456,0,4e-05,0.00034,0.00058,0.0003,0.00025,0.00012,7e-05,4,13
29457,0,4e-05,0.00034,0.00058,0.0003,0.00025,0.00012,7e-05,4,13
29458,0,4e-05,0.00034,0.00058,0.0003,0.00025,0.00012,7e-05,4,13
29459,0,4e-05,0.00034,0.00058,0.0003,0.00025,0.00012,7e-05,4,13
29460,0,4e-05,0.00034,0.00058,0.0003,0.00025,0.00012,7e-05,4,13
29461,0,4e-05,0.00034,0.00058,0.0003,0.00025,0.00012,7e-05,4,13
29462,0,4e-05,0.00034,0.00058,0.0003,0.00025,0.00012,7e-05,4,13
29463,0,4e-05,0.00034,0.00058,0.0003,0.00025,0.00012,7e-05,4,13
29464,0,4e-05,0.00034,0.00058,0.0003,0.00025,0.00012,7e-05,4,13
29465,0,4e-05,0.00034,0.00058,0.0003,0.00025,0.00012,7e-05,4,13
29466,0,4e-05,0.00034,0.00058,0.0003,0.00025,0.00012,7e-05,4,13
29467,0,4e-05,0.00034,0.00058,0.0003,0.00025,0.00012,7e-05,4,13
29468,0,4e-05,0.00034,0.00058,0.0003,0.00025,0.00012,7e-05,4,13
29469,-4e-05,-9e-05,8e-05,0.0005,-0.00079,0.0001,2e-05,-1e-05,4,13
29470,-4e-05,-9e-05,8e-05,0.0005,-0.00079,0.0001,2e-05,-1e-05,4,13
29471,-4e-05,-9e-05,8e-05,0.0005,-0.00079,0.0001,2e-05,-1e-05,4,13
29472,-4e-05,-9e-05,8e-05,0.0005,-0.00079,0.0001,2e-05,-1e-05,4,13
29473,-4e-05,-9e-05,8e-05,0.0005,-0.00079,0.0001,2e-05,-1e-05,4,13
29474,-4e-05,-9e-05,8e-05,0.0005,-0.00079,0.0001,2e-05,-1e-05,4,13
29475,-4e-05,-9e-05,8e-05,0.0005,-0.00079,0.0001,2e-05,-1e-05,4,13
29476,7e-05,8e-05,2e-05,0.00031,-0.00029,0,4e-05,5e-05,4,13
29477,7e-05,8e-05,2e-05,0.00031,-0.00029,0,4e-05,5e-05,4,13
29478,7e-05,8e-05,2e-05,0.00031,-0.00029,0,4e-05,5e-05,4,13
29479,7e-05,8e-05,2e-05,0.00031,-0.00029,0,4e-05,5e-05,4,13
29480,7e-05,8e-05,2e-05,0.00031,-0.00029,0,4e-05,5e-05,4,13
29481,7e-05,8e-05,2e-05,0.00031,-0.00029,0,4e-05,5e-05,4,13
29482,7e-05,8e-05,2e-05,0.00031,-0.00029,0,4e-05,5e-05,4,13
29483,1e-05,9e-05,0.00012,0.00028,4e-05,-0.00071,-0.00016,-6e-05,4,13
29484,-2e-05,-0.0001,-0.00039,-0.00072,-0.00093,-0.00034,-9e-05,-3e-05,4,13
29485,-2e-05,-0.0001,-0.00039,-0.00072,-0.00093,-0.00034,-9e-05,-3e-05,4,13
29486,-2e-05,-0.0001,-0.00039,-0.00072,-0.00093,-0.00034,-9e-05,-3e-05,4,13
29488,-2e-05,-0.0001,-0.00039,-0.00072,-0.00093,-0.00034,-9e-05,-3e-05,4,13
29489,-2e-05,-0.0001,-0.00039,-0.00072,-0.00093,-0.00034,-9e-05,-3e-05,4,13
29490,-2e-05,-0.0001,-0.00039,-0.00072,-0.00093,-0.00034,-9e-05,-3e-05,4,13
29491,-2e-05,-0.0001,-0.00039,-0.00072,-0.00093,-0.00034,-9e-05,-3e-05,4,13
29492,-2e-05,-0.0001,-0.00039,-0.00072,-0.00093,-0.00034,-9e-05,-3e-05,4,13
29493,-2e-05,-0.0001,-0.00039,-0.00072,-0.00093,-0.00034,-9e-05,-3e-05,4,13
29494,-2e-05,-0.0001,-0.00039,-0.00072,-0.00093,-0.00034,-9e-05,-3e-05,4,13
29495,-2e-05,-0.0001,-0.00039,-0.00072,-0.00093,-0.00034,-9e-05,-3e-05,4,13
29496,-2e-05,-0.0001,-0.00039,-0.00072,-0.00093,-0.00034,-9e-05,-3e-05,4,13
29497,-2e-05,-0.0001,-0.00039,-0.00072,-0.00093,-0.00034,-9e-05,-3e-05,4,13
29498,-2e-05,-0.0001,-0.00039,-0.00072,-0.00093,-0.00034,-9e-05,-3e-05,4,13
29499,-2e-05,-0.0001,-0.00039,-0.00072,-0.00093,-0.00034,-9e-05,-3e-05,4,13
29500,-2e-05,-0.0001,-0.00039,-0.00072,-0.00093,-0.00034,-9e-05,-3e-05,4,13
29501,-2e-05,-0.0001,-0.00039,-0.00072,-0.00093,-0.00034,-9e-05,-3e-05,4,13
29502,-2e-05,-0.0001,-0.00039,-0.00072,-0.00093,-0.00034,-9e-05,-3e-05,4,13
29503,-2e-05,-0.0001,-0.00039,-0.00072,-0.00093,-0.00034,-9e-05,-3e-05,4,13
29504,-2e-05,-0.0001,-0.00039,-0.00072,-0.00093,-0.00034,-9e-05,-3e-05,4,13
29505,-2e-05,-0.0001,-0.00039,-0.00072,-0.00093,-0.00034,-9e-05,-3e-05,4,13
29506,-2e-05,6e-05,0.00039,0.00045,0.00063,-0.00025,-7e-05,-6e-05,4,13
29507,-7e-05,-0.00011,-2e-05,-7e-05,-0.00059,-0.00011,-0.00015,-8e-05,4,13
29508,-7e-05,-0.00011,-2e-05,-7e-05,-0.00059,-0.00011,-0.00015,-8e-05,4,13
29509,-7e-05,-0.00011,-2e-05,-7e-05,-0.00059,-0.00011,-0.00015,-8e-05,4,13
29510,-7e-05,-0.00011,-2e-05,-7e-05,-0.00059,-0.00011,-0.00015,-8e-05,4,13
29511,-7e-05,-0.00011,-2e-05,-7e-05,-0.00059,-0.00011,-0.00015,-8e-05,4,13
29512,-7e-05,-0.00011,-2e-05,-7e-05,-0.00059,-0.00011,-0.00015,-8e-05,4,13
29513,-7e-05,-0.00011,-2e-05,-7e-05,-0.00059,-0.00011,-0.00015,-8e-05,4,13
29514,-7e-05,-0.00011,-2e-05,-7e-05,-0.00059,-0.00011,-0.00015,-8e-05,4,13
29515,-7e-05,-0.00011,-2e-05,-7e-05,-0.00059,-0.00011,-0.00015,-8e-05,4,13
29516,-7e-05,-0.00011,-2e-05,-7e-05,-0.00059,-0.00011,-0.00015,-8e-05,4,13
29517,-7e-05,-0.00011,-2e-05,-7e-05,-0.00059,-0.00011,-0.00015,-8e-05,4,13
29518,-7e-05,-0.00011,-2e-05,-7e-05,-0.00059,-0.00011,-0.00015,-8e-05,4,13
29519,-7e-05,-0.00011,-2e-05,-7e-05,-0.00059,-0.00011,-0.00015,-8e-05,4,13
29520,-7e-05,-0.00011,-2e-05,-7e-05,-0.00059,-0.00011,-0.00015,-8e-05,4,13
29521,-7e-05,-0.00011,-2e-05,-7e-05,-0.00059,-0.00011,-0.00015,-8e-05,4,13
29522,-7e-05,-0.00011,-2e-05,-7e-05,-0.00059,-0.00011,-0.00015,-8e-05,4,13
29523,-7e-05,-0.00011,-2e-05,-7e-05,-0.00059,-0.00011,-0.00015,-8e-05,4,13
29524,-7e-05,-0.00011,-2e-05,-7e-05,-0.00059,-0.00011,-0.00015,-8e-05,4,13
29525,-7e-05,-0.00011,-2e-05,-7e-05,-0.00059,-0.00011,-0.00015,-8e-05,4,13
29526,-7e-05,-0.00011,-2e-05,-7e-05,-0.00059,-0.00011,-0.00015,-8e-05,4,13
29527,-7e-05,-0.00011,-2e-05,-7e-05,-0.00059,-0.00011,-0.00015,-8e-05,4,13
29528,-7e-05,-0.00011,-2e-05,-7e-05,-0.00059,-0.00011,-0.00015,-8e-05,4,13
29529,-7e-05,-0.00011,-2e-05,-7e-05,-0.00059,-0.00011,-0.00015,-8e-05,4,13
29530,4e-05,5e-05,0.0001,0.00049,0.00091,0.00045,3e-05,-1e-05,4,13
29531,0,0,0.00016,0.00104,-0.00024,-9e-05,-1e-05,-6e-05,4,13
29532,0,0,0.00016,0.00104,-0.00024,-9e-05,-1e-05,-6e-05,4,13
29533,0,0,0.00016,0.00104,-0.00024,-9e-05,-1e-05,-6e-05,4,13
29534,0,0,0.00016,0.00104,-0.00024,-9e-05,-1e-05,-6e-05,4,13
29535,0,0,0.00016,0.00104,-0.00024,-9e-05,-1e-05,-6e-05,4,13
29536,0,0,0.00016,0.00104,-0.00024,-9e-05,-1e-05,-6e-05,4,13
29538,0,0,0.00016,0.00104,-0.00024,-9e-05,-1e-05,-6e-05,4,13
29539,0,0,0.00016,0.00104,-0.00024,-9e-05,-1e-05,-6e-05,4,13
29540,0,0,0.00016,0.00104,-0.00024,-9e-05,-1e-05,-6e-05,4,13
29541,0,0,0.00016,0.00104,-0.00024,-9e-05,-1e-05,-6e-05,4,13
29542,0,0,0.00016,0.00104,-0.00024,-9e-05,-1e-05,-6e-05,4,13
29543,2e-05,0.00012,-2e-05,0.00022,0.00055,-0.0001,-1e-05,2e-05,4,13
29544,-3e-05,-0.0001,2e-05,-0.00012,0.00066,-0.00043,-4e-05,-3e-05,4,13
29545,-3e-05,-0.0001,2e-05,-0.00012,0.00066,-0.00043,-4e-05,-3e-05,4,13
29546,-3e-05,-0.0001,2e-05,-0.00012,0.00066,-0.00043,-4e-05,-3e-05,4,13
29547,-3e-05,-0.0001,2e-05,-0.00012,0.00066,-0.00043,-4e-05,-3e-05,4,13
29548,-3e-05,-0.0001,2e-05,-0.00012,0.00066,-0.00043,-4e-05,-3e-05,4,13
29549,-3e-05,-0.0001,2e-05,-0.00012,0.00066,-0.00043,-4e-05,-3e-05,4,13
29550,-3e-05,-0.0001,2e-05,-0.00012,0.00066,-0.00043,-4e-05,-3e-05,4,13
29551,-3e-05,-0.0001,2e-05,-0.00012,0.00066,-0.00043,-4e-05,-3e-05,4,13
29552,-3e-05,-0.0001,2e-05,-0.00012,0.00066,-0.00043,-4e-05,-3e-05,4,13
29553,-3e-05,-0.0001,2e-05,-0.00012,0.00066,-0.00043,-4e-05,-3e-05,4,13
29554,-3e-05,-0.0001,2e-05,-0.00012,0.00066,-0.00043,-4e-05,-3e-05,4,13
29555,-3e-05,-0.0001,2e-05,-0.00012,0.00066,-0.00043,-4e-05,-3e-05,4,13
29556,-3e-05,-0.0001,2e-05,-0.00012,0.00066,-0.00043,-4e-05,-3e-05,4,13
29557,-3e-05,-0.0001,2e-05,-0.00012,0.00066,-0.00043,-4e-05,-3e-05,4,13
29558,-3e-05,-0.0001,2e-05,-0.00012,0.00066,-0.00043,-4e-05,-3e-05,4,13
29559,-3e-05,-0.0001,2e-05,-0.00012,0.00066,-0.00043,-4e-05,-3e-05,4,13
29560,-3e-05,-0.0001,2e-05,-0.00012,0.00066,-0.00043,-4e-05,-3e-05,4,13
29561,-3e-05,-0.0001,2e-05,-0.00012,0.00066,-0.00043,-4e-05,-3e-05,4,13
29562,-3e-05,-0.0001,2e-05,-0.00012,0.00066,-0.00043,-4e-05,-3e-05,4,13
29563,-3e-05,-0.0001,2e-05,-0.00012,0.00066,-0.00043,-4e-05,-3e-05,4,13
29564,-3e-05,-0.0001,2e-05,-0.00012,0.00066,-0.00043,-4e-05,-3e-05,4,13
29565,-3e-05,-0.0001,2e-05,-0.00012,0.00066,-0.00043,-4e-05,-3e-05,4,13
29566,3e-05,-3e-05,-7e-05,0.00029,0.00045,0.00024,6e-05,3e-05,4,13
29567,3e-05,-3e-05,-7e-05,0.00029,0.00045,0.00024,6e-05,3e-05,4,13
29568,3e-05,-3e-05,-7e-05,0.00029,0.00045,0.00024,6e-05,3e-05,4,13
29569,3e-05,-3e-05,-7e-05,0.00029,0.00045,0.00024,6e-05,3e-05,4,13
29570,3e-05,-3e-05,-7e-05,0.00029,0.00045,0.00024,6e-05,3e-05,4,13
29571,3e-05,-3e-05,-7e-05,0.00029,0.00045,0.00024,6e-05,3e-05,4,13
29572,3e-05,-3e-05,-7e-05,0.00029,0.00045,0.00024,6e-05,3e-05,4,13
29573,0,5e-05,-0.0001,-0.00021,-0.00036,-8e-05,0,0,4,13
29574,0,5e-05,-0.0001,-0.00021,-0.00036,-8e-05,0,0,4,13
29575,0,5e-05,-0.0001,-0.00021,-0.00036,-8e-05,0,0,4,13
29576,0,5e-05,-0.0001,-0.00021,-0.00036,-8e-05,0,0,4,13
29577,0,5e-05,-0.0001,-0.00021,-0.00036,-8e-05,0,0,4,13
29578,0,5e-05,-0.0001,-0.00021,-0.00036,-8e-05,0,0,4,13
29579,0,5e-05,-0.0001,-0.00021,-0.00036,-8e-05,0,0,4,13
29580,0,5e-05,-0.0001,-0.00021,-0.00036,-8e-05,0,0,4,13
29581,0,5e-05,-0.0001,-0.00021,-0.00036,-8e-05,0,0,4,13
29582,0,5e-05,-0.0001,-0.00021,-0.00036,-8e-05,0,0,4,13
29583,0,5e-05,-0.0001,-0.00021,-0.00036,-8e-05,0,0,4,13
29584,0,5e-05,-0.0001,-0.00021,-0.00036,-8e-05,0,0,4,13
29585,0,5e-05,-0.0001,-0.00021,-0.00036,-8e-05,0,0,4,13
29586,0,5e-05,-0.0001,-0.00021,-0.00036,-8e-05,0,0,4,13
29588,0,5e-05,-0.0001,-0.00021,-0.00036,-8e-05,0,0,4,13
29589,3e-05,0.00013,0.00019,0.00042,-5e-05,0.00055,0.00019,9e-05,4,13
29590,5e-05,-4e-05,-0.00018,0.00067,0.00019,0.00076,0.00023,7e-05,4,13
29591,5e-05,-4e-05,-0.00018,0.00067,0.00019,0.00076,0.00023,7e-05,4,13
29592,5e-05,-4e-05,-0.00018,0.00067,0.00019,0.00076,0.00023,7e-05,4,13
29593,5e-05,-4e-05,-0.00018,0.00067,0.00019,0.00076,0.00023,7e-05,4,13
29594,5e-05,-4e-05,-0.00018,0.00067,0.00019,0.00076,0.00023,7e-05,4,13
29595,5e-05,-4e-05,-0.00018,0.00067,0.00019,0.00076,0.00023,7e-05,4,13
29596,5e-05,-4e-05,-0.00018,0.00067,0.00019,0.00076,0.00023,7e-05,4,13
29597,5e-05,-4e-05,-0.00018,0.00067,0.00019,0.00076,0.00023,7e-05,4,13
29598,5e-05,-4e-05,-0.00018,0.00067,0.00019,0.00076,0.00023,7e-05,4,13
29599,5e-05,-4e-05,-0.00018,0.00067,0.00019,0.00076,0.00023,7e-05,4,13
29600,5e-05,-4e-05,-0.00018,0.00067,0.00019,0.00076,0.00023,7e-05,4,13
29601,5e-05,-4e-05,-0.00018,0.00067,0.00019,0.00076,0.00023,7e-05,4,13
29602,5e-05,-4e-05,-0.00018,0.00067,0.00019,0.00076,0.00023,7e-05,4,13
29603,-0.00013,-0.00022,-0.00054,-0.0004,-0.00094,-0.00042,-0.00016,-0.0001,4,13
29604,-6e-05,7e-05,0.0002,-0.00032,-0.00023,-0.00017,-0.00012,-5e-05,4,13
29605,-6e-05,7e-05,0.0002,-0.00032,-0.00023,-0.00017,-0.00012,-5e-05,4,13
29606,-6e-05,7e-05,0.0002,-0.00032,-0.00023,-0.00017,-0.00012,-5e-05,4,13
29607,-6e-05,7e-05,0.0002,-0.00032,-0.00023,-0.00017,-0.00012,-5e-05,4,13
29608,-6e-05,7e-05,0.0002,-0.00032,-0.00023,-0.00017,-0.00012,-5e-05,4,13
29609,-6e-05,7e-05,0.0002,-0.00032,-0.00023,-0.00017,-0.00012,-5e-05,4,13
29610,-6e-05,7e-05,0.0002,-0.00032,-0.00023,-0.00017,-0.00012,-5e-05,4,13
29611,-6e-05,7e-05,0.0002,-0.00032,-0.00023,-0.00017,-0.00012,-5e-05,4,13
29612,-6e-05,7e-05,0.0002,-0.00032,-0.00023,-0.00017,-0.00012,-5e-05,4,13
29613,-6e-05,7e-05,0.0002,-0.00032,-0.00023,-0.00017,-0.00012,-5e-05,4,13
29614,-6e-05,7e-05,0.0002,-0.00032,-0.00023,-0.00017,-0.00012,-5e-05,4,13
29615,-6e-05,7e-05,0.0002,-0.00032,-0.00023,-0.00017,-0.00012,-5e-05,4,13
29616,-6e-05,7e-05,0.0002,-0.00032,-0.00023,-0.00017,-0.00012,-5e-05,4,13
29617,-6e-05,7e-05,0.0002,-0.00032,-0.00023,-0.00017,-0.00012,-5e-05,4,13
29618,-6e-05,7e-05,0.0002,-0.00032,-0.00023,-0.00017,-0.00012,-5e-05,4,13
29619,-6e-05,7e-05,0.0002,-0.00032,-0.00023,-0.00017,-0.00012,-5e-05,4,13
29620,-6e-05,7e-05,0.0002,-0.00032,-0.00023,-0.00017,-0.00012,-5e-05,4,13
29621,-6e-05,7e-05,0.0002,-0.00032,-0.00023,-0.00017,-0.00012,-5e-05,4,13
29622,-6e-05,7e-05,0.0002,-0.00032,-0.00023,-0.00017,-0.00012,-5e-05,4,13
29623,-6e-05,7e-05,0.0002,-0.00032,-0.00023,-0.00017,-0.00012,-5e-05,4,13
29624,-6e-05,7e-05,0.0002,-0.00032,-0.00023,-0.00017,-0.00012,-5e-05,4,13
29625,-6e-05,7e-05,0.0002,-0.00032,-0.00023,-0.00017,-0.00012,-5e-05,4,13
29626,-6e-05,7e-05,0.0002,-0.00032,-0.00023,-0.00017,-0.00012,-5e-05,4,13
29627,-6e-05,7e-05,0.0002,-0.00032,-0.00023,-0.00017,-0.00012,-5e-05,4,13
29628,-6e-05,7e-05,0.0002,-0.00032,-0.00023,-0.00017,-0.00012,-5e-05,4,13
29629,-6e-05,7e-05,0.0002,-0.00032,-0.00023,-0.00017,-0.00012,-5e-05,4,13
29630,-6e-05,7e-05,0.0002,-0.00032,-0.00023,-0.00017,-0.00012,-5e-05,4,13
29631,-6e-05,7e-05,0.0002,-0.00032,-0.00023,-0.00017,-0.00012,-5e-05,4,13
29632,-6e-05,7e-05,0.0002,-0.00032,-0.00023,-0.00017,-0.00012,-5e-05,4,13
29633,-6e-05,7e-05,0.0002,-0.00032,-0.00023,-0.00017,-0.00012,-5e-05,4,13
29634,2e-05,-9e-05,0,-6e-05,0.00052,0.00031,8e-05,2e-05,4,13
29635,-2e-05,-2e-05,4e-05,-0.00013,0.0004,-0.00049,-7e-05,1e-05,4,13
29636,-2e-05,-2e-05,4e-05,-0.00013,0.0004,-0.00049,-7e-05,1e-05,4,13
29638,-2e-05,-2e-05,4e-05,-0.00013,0.0004,-0.00049,-7e-05,1e-05,4,13
29640,-2e-05,-2e-05,4e-05,-0.00013,0.0004,-0.00049,-7e-05,1e-05,4,13
29641,-2e-05,-2e-05,4e-05,-0.00013,0.0004,-0.00049,-7e-05,1e-05,4,13
29642,-2e-05,-2e-05,4e-05,-0.00013,0.0004,-0.00049,-7e-05,1e-05,4,13
29643,-2e-05,-2e-05,4e-05,-0.00013,0.0004,-0.00049,-7e-05,1e-05,4,13
29644,-2e-05,-2e-05,4e-05,-0.00013,0.0004,-0.00049,-7e-05,1e-05,4,13
29645,-2e-05,-2e-05,4e-05,-0.00013,0.0004,-0.00049,-7e-05,1e-05,4,13
29646,-2e-05,-2e-05,4e-05,-0.00013,0.0004,-0.00049,-7e-05,1e-05,4,13
29647,-2e-05,-2e-05,4e-05,-0.00013,0.0004,-0.00049,-7e-05,1e-05,4,13
29648,-2e-05,-2e-05,4e-05,-0.00013,0.0004,-0.00049,-7e-05,1e-05,4,13
29649,9e-05,4e-05,0.00024,0.0005,0.00082,0.00025,0,3e-05,4,13
29650,7e-05,0.00019,0.00048,0.0003,0.00106,0.0002,7e-05,8e-05,4,13
29651,7e-05,0.00019,0.00048,0.0003,0.00106,0.0002,7e-05,8e-05,4,13
29652,7e-05,0.00019,0.00048,0.0003,0.00106,0.0002,7e-05,8e-05,4,13
29653,7e-05,0.00019,0.00048,0.0003,0.00106,0.0002,7e-05,8e-05,4,13
29654,7e-05,0.00019,0.00048,0.0003,0.00106,0.0002,7e-05,8e-05,4,13
29655,7e-05,0.00019,0.00048,0.0003,0.00106,0.0002,7e-05,8e-05,4,13
29656,7e-05,0.00019,0.00048,0.0003,0.00106,0.0002,7e-05,8e-05,4,13
29657,7e-05,0.00019,0.00048,0.0003,0.00106,0.0002,7e-05,8e-05,4,13
29658,7e-05,0.00019,0.00048,0.0003,0.00106,0.0002,7e-05,8e-05,4,13
29659,7e-05,0.00019,0.00048,0.0003,0.00106,0.0002,7e-05,8e-05,4,13
29660,7e-05,0.00019,0.00048,0.0003,0.00106,0.0002,7e-05,8e-05,4,13
29661,7e-05,0.00019,0.00048,0.0003,0.00106,0.0002,7e-05,8e-05,4,13
29662,7e-05,0.00019,0.00048,0.0003,0.00106,0.0002,7e-05,8e-05,4,13
29663,7e-05,0.00019,0.00048,0.0003,0.00106,0.0002,7e-05,8e-05,4,13
29664,-7e-05,-0.00011,-0.00037,-0.00115,-0.00097,7e-05,-0.0001,-6e-05,4,13
29665,1e-05,-6e-05,-0.00035,-0.00064,0.00013,0.00065,0.00019,7e-05,4,13
29666,1e-05,-6e-05,-0.00035,-0.00064,0.00013,0.00065,0.00019,7e-05,4,13
29667,1e-05,-6e-05,-0.00035,-0.00064,0.00013,0.00065,0.00019,7e-05,4,13
29668,1e-05,-6e-05,-0.00035,-0.00064,0.00013,0.00065,0.00019,7e-05,4,13
29669,1e-05,-6e-05,-0.00035,-0.00064,0.00013,0.00065,0.00019,7e-05,4,13
29670,1e-05,-6e-05,-0.00035,-0.00064,0.00013,0.00065,0.00019,7e-05,4,13
29671,1e-05,-6e-05,-0.00035,-0.00064,0.00013,0.00065,0.00019,7e-05,4,13
29672,1e-05,-6e-05,-0.00035,-0.00064,0.00013,0.00065,0.00019,7e-05,4,13
29673,1e-05,-6e-05,-0.00035,-0.00064,0.00013,0.00065,0.00019,7e-05,4,13
29674,1e-05,-6e-05,-0.00035,-0.00064,0.00013,0.00065,0.00019,7e-05,4,13
29675,1e-05,-6e-05,-0.00035,-0.00064,0.00013,0.00065,0.00019,7e-05,4,13
29676,1e-05,-6e-05,-0.00035,-0.00064,0.00013,0.00065,0.00019,7e-05,4,13
29677,1e-05,-6e-05,-0.00035,-0.00064,0.00013,0.00065,0.00019,7e-05,4,13
29678,1e-05,-6e-05,-0.00035,-0.00064,0.00013,0.00065,0.00019,7e-05,4,13
29679,1e-05,-6e-05,-0.00035,-0.00064,0.00013,0.00065,0.00019,7e-05,4,13
29680,1e-05,-6e-05,-0.00035,-0.00064,0.00013,0.00065,0.00019,7e-05,4,13
29681,1e-05,-6e-05,-0.00035,-0.00064,0.00013,0.00065,0.00019,7e-05,4,13
29682,1e-05,-6e-05,-0.00035,-0.00064,0.00013,0.00065,0.00019,7e-05,4,13
29683,1e-05,-6e-05,-0.00035,-0.00064,0.00013,0.00065,0.00019,7e-05,4,13
29684,1e-05,-6e-05,-0.00035,-0.00064,0.00013,0.00065,0.00019,7e-05,4,13
29685,1e-05,-6e-05,-0.00035,-0.00064,0.00013,0.00065,0.00019,7e-05,4,13
29687,-2e-05,-6e-05,-0.00017,-0.00034,0.00022,0.00011,-2e-05,-4e-05,4,13
29689,3e-05,0.00016,0.0002,-0.00049,-0.00018,-0.0002,-0.00019,-6e-05,4,13
29690,3e-05,0.00016,0.0002,-0.00049,-0.00018,-0.0002,-0.00019,-6e-05,4,13
29691,3e-05,0.00016,0.0002,-0.00049,-0.00018,-0.0002,-0.00019,-6e-05,4,13
29692,3e-05,0.00016,0.0002,-0.00049,-0.00018,-0.0002,-0.00019,-6e-05,4,13
29693,3e-05,0.00016,0.0002,-0.00049,-0.00018,-0.0002,-0.00019,-6e-05,4,13
29694,3e-05,0.00016,0.0002,-0.00049,-0.00018,-0.0002,-0.00019,-6e-05,4,13
29695,3e-05,0.00016,0.0002,-0.00049,-0.00018,-0.0002,-0.00019,-6e-05,4,13
29696,3e-05,0.00016,0.0002,-0.00049,-0.00018,-0.0002,-0.00019,-6e-05,4,13
29697,3e-05,0.00016,0.0002,-0.00049,-0.00018,-0.0002,-0.00019,-6e-05,4,13
29698,3e-05,0.00016,0.0002,-0.00049,-0.00018,-0.0002,-0.00019,-6e-05,4,13
29699,3e-05,0.00016,0.0002,-0.00049,-0.00018,-0.0002,-0.00019,-6e-05,4,13
29700,3e-05,0.00016,0.0002,-0.00049,-0.00018,-0.0002,-0.00019,-6e-05,4,13
29701,3e-05,0.00016,0.0002,-0.00049,-0.00018,-0.0002,-0.00019,-6e-05,4,13
29702,3e-05,0.00016,0.0002,-0.00049,-0.00018,-0.0002,-0.00019,-6e-05,4,13
29703,3e-05,0.00016,0.0002,-0.00049,-0.00018,-0.0002,-0.00019,-6e-05,4,13
29704,3e-05,0.00016,0.0002,-0.00049,-0.00018,-0.0002,-0.00019,-6e-05,4,13
29705,3e-05,0.00016,0.0002,-0.00049,-0.00018,-0.0002,-0.00019,-6e-05,4,13
29706,3e-05,0.00016,0.0002,-0.00049,-0.00018,-0.0002,-0.00019,-6e-05,4,13
29707,3e-05,0.00016,0.0002,-0.00049,-0.00018,-0.0002,-0.00019,-6e-05,4,13
29708,3e-05,0.00016,0.0002,-0.00049,-0.00018,-0.0002,-0.00019,-6e-05,4,13
29709,4e-05,5e-05,-0.00016,0,-0.00084,-0.00079,-0.00012,-3e-05,4,13
29710,3e-05,9e-05,0.00017,0.0003,3e-05,0.00065,0.00011,0,4,13
29711,3e-05,9e-05,0.00017,0.0003,3e-05,0.00065,0.00011,0,4,13
29712,3e-05,9e-05,0.00017,0.0003,3e-05,0.00065,0.00011,0,4,13
29713,3e-05,9e-05,0.00017,0.0003,3e-05,0.00065,0.00011,0,4,13
29714,3e-05,9e-05,0.00017,0.0003,3e-05,0.00065,0.00011,0,4,13
29715,3e-05,9e-05,0.00017,0.0003,3e-05,0.00065,0.00011,0,4,13
29716,3e-05,9e-05,0.00017,0.0003,3e-05,0.00065,0.00011,0,4,13
29717,3e-05,9e-05,0.00017,0.0003,3e-05,0.00065,0.00011,0,4,13
29718,3e-05,9e-05,0.00017,0.0003,3e-05,0.00065,0.00011,0,4,13
29719,3e-05,9e-05,0.00017,0.0003,3e-05,0.00065,0.00011,0,4,13
29720,3e-05,9e-05,0.00017,0.0003,3e-05,0.00065,0.00011,0,4,13
29721,3e-05,9e-05,0.00017,0.0003,3e-05,0.00065,0.00011,0,4,13
29722,3e-05,9e-05,0.00017,0.0003,3e-05,0.00065,0.00011,0,4,13
29723,0,0.0001,0.00026,-4e-05,-0.00047,-0.00043,-0.00012,-5e-05,4,13
29724,-2e-05,-9e-05,3e-05,0.00049,-0.00071,-0.00023,-0.00012,-7e-05,4,13
29725,-2e-05,-9e-05,3e-05,0.00049,-0.00071,-0.00023,-0.00012,-7e-05,4,13
29726,-2e-05,-9e-05,3e-05,0.00049,-0.00071,-0.00023,-0.00012,-7e-05,4,13
29727,-2e-05,-9e-05,3e-05,0.00049,-0.00071,-0.00023,-0.00012,-7e-05,4,13
29728,-2e-05,-9e-05,3e-05,0.00049,-0.00071,-0.00023,-0.00012,-7e-05,4,13
29729,-2e-05,-9e-05,3e-05,0.00049,-0.00071,-0.00023,-0.00012,-7e-05,4,13
29730,-2e-05,-9e-05,3e-05,0.00049,-0.00071,-0.00023,-0.00012,-7e-05,4,13
29731,-2e-05,-9e-05,3e-05,0.00049,-0.00071,-0.00023,-0.00012,-7e-05,4,13
29732,-2e-05,-9e-05,3e-05,0.00049,-0.00071,-0.00023,-0.00012,-7e-05,4,13
29733,-2e-05,-9e-05,3e-05,0.00049,-0.00071,-0.00023,-0.00012,-7e-05,4,13
29734,-2e-05,-9e-05,3e-05,0.00049,-0.00071,-0.00023,-0.00012,-7e-05,4,13
29735,-2e-05,-9e-05,3e-05,0.00049,-0.00071,-0.00023,-0.00012,-7e-05,4,13
29736,-2e-05,-9e-05,3e-05,0.00049,-0.00071,-0.00023,-0.00012,-7e-05,4,13
29738,-2e-05,-9e-05,3e-05,0.00049,-0.00071,-0.00023,-0.00012,-7e-05,4,13
29739,-2e-05,-9e-05,3e-05,0.00049,-0.00071,-0.00023,-0.00012,-7e-05,4,13
29740,-2e-05,-9e-05,3e-05,0.00049,-0.00071,-0.00023,-0.00012,-7e-05,4,13
29741,-2e-05,-9e-05,3e-05,0.00049,-0.00071,-0.00023,-0.00012,-7e-05,4,13
29742,-2e-05,-9e-05,3e-05,0.00049,-0.00071,-0.00023,-0.00012,-7e-05,4,13
29743,-2e-05,-9e-05,3e-05,0.00049,-0.00071,-0.00023,-0.00012,-7e-05,4,13
29744,-2e-05,-9e-05,3e-05,0.00049,-0.00071,-0.00023,-0.00012,-7e-05,4,13
29745,-2e-05,-9e-05,3e-05,0.00049,-0.00071,-0.00023,-0.00012,-7e-05,4,13
29746,-7e-05,-4e-05,-8e-05,-0.00019,-0.00079,0,-6e-05,-7e-05,4,13
29747,-9e-05,-0.00018,-0.00034,-0.00033,-0.00065,-0.00035,-0.00021,-0.0001,4,13
29748,-9e-05,-0.00018,-0.00034,-0.00033,-0.00065,-0.00035,-0.00021,-0.0001,4,13
29749,-9e-05,-0.00018,-0.00034,-0.00033,-0.00065,-0.00035,-0.00021,-0.0001,4,13
29750,-9e-05,-0.00018,-0.00034,-0.00033,-0.00065,-0.00035,-0.00021,-0.0001,4,13
29751,-9e-05,-0.00018,-0.00034,-0.00033,-0.00065,-0.00035,-0.00021,-0.0001,4,13
29752,-9e-05,-0.00018,-0.00034,-0.00033,-0.00065,-0.00035,-0.00021,-0.0001,4,13
29753,-9e-05,-0.00018,-0.00034,-0.00033,-0.00065,-0.00035,-0.00021,-0.0001,4,13
29754,-9e-05,-0.00018,-0.00034,-0.00033,-0.00065,-0.00035,-0.00021,-0.0001,4,13
29755,-9e-05,-0.00018,-0.00034,-0.00033,-0.00065,-0.00035,-0.00021,-0.0001,4,13
29756,-9e-05,-0.00018,-0.00034,-0.00033,-0.00065,-0.00035,-0.00021,-0.0001,4,13
29757,-9e-05,-0.00018,-0.00034,-0.00033,-0.00065,-0.00035,-0.00021,-0.0001,4,13
29758,-9e-05,-0.00018,-0.00034,-0.00033,-0.00065,-0.00035,-0.00021,-0.0001,4,13
29759,-9e-05,-0.00018,-0.00034,-0.00033,-0.00065,-0.00035,-0.00021,-0.0001,4,13
29760,-9e-05,-0.00018,-0.00034,-0.00033,-0.00065,-0.00035,-0.00021,-0.0001,4,13
29761,-9e-05,-0.00018,-0.00034,-0.00033,-0.00065,-0.00035,-0.00021,-0.0001,4,13
29762,-9e-05,-0.00018,-0.00034,-0.00033,-0.00065,-0.00035,-0.00021,-0.0001,4,13
29763,-9e-05,-0.00018,-0.00034,-0.00033,-0.00065,-0.00035,-0.00021,-0.0001,4,13
29764,-9e-05,-0.00018,-0.00034,-0.00033,-0.00065,-0.00035,-0.00021,-0.0001,4,13
29765,-9e-05,-0.00018,-0.00034,-0.00033,-0.00065,-0.00035,-0.00021,-0.0001,4,13
29766,-9e-05,-0.00018,-0.00034,-0.00033,-0.00065,-0.00035,-0.00021,-0.0001,4,13
29767,-9e-05,-0.00018,-0.00034,-0.00033,-0.00065,-0.00035,-0.00021,-0.0001,4,13
29768,-9e-05,-0.00018,-0.00034,-0.00033,-0.00065,-0.00035,-0.00021,-0.0001,4,13
29769,-2e-05,8e-05,-2e-05,-0.00039,0.00066,0.00034,0.0002,5e-05,4,13
29770,0,0,-8e-05,-5e-05,0.0005,-2e-05,4e-05,0,4,13
29771,0,0,-8e-05,-5e-05,0.0005,-2e-05,4e-05,0,4,13
29772,0,0,-8e-05,-5e-05,0.0005,-2e-05,4e-05,0,4,13
29773,0,0,-8e-05,-5e-05,0.0005,-2e-05,4e-05,0,4,13
29774,0,0,-8e-05,-5e-05,0.0005,-2e-05,4e-05,0,4,13
29775,0,0,-8e-05,-5e-05,0.0005,-2e-05,4e-05,0,4,13
29776,0,0,-8e-05,-5e-05,0.0005,-2e-05,4e-05,0,4,13
29777,0,0,-8e-05,-5e-05,0.0005,-2e-05,4e-05,0,4,13
29778,0,0,-8e-05,-5e-05,0.0005,-2e-05,4e-05,0,4,13
29779,0,0,-8e-05,-5e-05,0.0005,-2e-05,4e-05,0,4,13
29780,0,0,-8e-05,-5e-05,0.0005,-2e-05,4e-05,0,4,13
29781,0,0,-8e-05,-5e-05,0.0005,-2e-05,4e-05,0,4,13
29782,0,0,-8e-05,-5e-05,0.0005,-2e-05,4e-05,0,4,13
29783,0,-6e-05,-0.00028,-0.00063,-3e-05,-0.00037,-0.00014,-8e-05,4,13
29784,0,-6e-05,-0.00028,-0.00063,-3e-05,-0.00037,-0.00014,-8e-05,4,13
29785,0,-6e-05,-0.00028,-0.00063,-3e-05,-0.00037,-0.00014,-8e-05,4,13
29786,0,-6e-05,-0.00028,-0.00063,-3e-05,-0.00037,-0.00014,-8e-05,4,13
29788,0,-6e-05,-0.00028,-0.00063,-3e-05,-0.00037,-0.00014,-8e-05,4,13
29789,0,-6e-05,-0.00028,-0.00063,-3e-05,-0.00037,-0.00014,-8e-05,4,13
29790,0,-6e-05,-0.00028,-0.00063,-3e-05,-0.00037,-0.00014,-8e-05,4,13
29791,2e-05,0,-0.00014,-0.00047,0,-0.00011,4e-05,5e-05,4,13
29792,2e-05,0,-0.00014,-0.00047,0,-0.00011,4e-05,5e-05,4,13
29793,2e-05,0,-0.00014,-0.00047,0,-0.00011,4e-05,5e-05,4,13
29794,2e-05,0,-0.00014,-0.00047,0,-0.00011,4e-05,5e-05,4,13
29795,2e-05,0,-0.00014,-0.00047,0,-0.00011,4e-05,5e-05,4,13
29796,2e-05,0,-0.00014,-0.00047,0,-0.00011,4e-05,5e-05,4,13
29797,2e-05,0,-0.00014,-0.00047,0,-0.00011,4e-05,5e-05,4,13
29798,2e-05,0,-0.00014,-0.00047,0,-0.00011,4e-05,5e-05,4,13
29799,2e-05,0,-0.00014,-0.00047,0,-0.00011,4e-05,5e-05,4,13
29800,2e-05,0,-0.00014,-0.00047,0,-0.00011,4e-05,5e-05,4,13
29801,2e-05,0,-0.00014,-0.00047,0,-0.00011,4e-05,5e-05,4,13
29802,2e-05,0,-0.00014,-0.00047,0,-0.00011,4e-05,5e-05,4,13
29803,2e-05,0,-0.00014,-0.00047,0,-0.00011,4e-05,5e-05,4,13
29804,2e-05,0,-0.00014,-0.00047,0,-0.00011,4e-05,5e-05,4,13
29805,2e-05,0,-0.00014,-0.00047,0,-0.00011,4e-05,5e-05,4,13
29806,5e-05,3e-05,0.00022,0.00078,0.00127,0.00057,3e-05,0,4,13
29807,5e-05,0.0001,-4e-05,-0.00119,-0.00123,-0.00025,-4e-05,3e-05,4,13
29808,5e-05,0.0001,-4e-05,-0.00119,-0.00123,-0.00025,-4e-05,3e-05,4,13
29809,5e-05,0.0001,-4e-05,-0.00119,-0.00123,-0.00025,-4e-05,3e-05,4,13
29810,5e-05,0.0001,-4e-05,-0.00119,-0.00123,-0.00025,-4e-05,3e-05,4,13
29811,5e-05,0.0001,-4e-05,-0.00119,-0.00123,-0.00025,-4e-05,3e-05,4,13
29812,5e-05,0.0001,-4e-05,-0.00119,-0.00123,-0.00025,-4e-05,3e-05,4,13
29813,5e-05,0.0001,-4e-05,-0.00119,-0.00123,-0.00025,-4e-05,3e-05,4,13
29814,5e-05,0.0001,-4e-05,-0.00119,-0.00123,-0.00025,-4e-05,3e-05,4,13
29815,5e-05,0.0001,-4e-05,-0.00119,-0.00123,-0.00025,-4e-05,3e-05,4,13
29816,5e-05,0.0001,-4e-05,-0.00119,-0.00123,-0.00025,-4e-05,3e-05,4,13
29817,5e-05,0.0001,-4e-05,-0.00119,-0.00123,-0.00025,-4e-05,3e-05,4,13
29818,5e-05,0.0001,-4e-05,-0.00119,-0.00123,-0.00025,-4e-05,3e-05,4,13
29819,5e-05,0.0001,-4e-05,-0.00119,-0.00123,-0.00025,-4e-05,3e-05,4,13
29820,5e-05,0.0001,-4e-05,-0.00119,-0.00123,-0.00025,-4e-05,3e-05,4,13
29821,5e-05,0.0001,-4e-05,-0.00119,-0.00123,-0.00025,-4e-05,3e-05,4,13
29822,5e-05,0.0001,-4e-05,-0.00119,-0.00123,-0.00025,-4e-05,3e-05,4,13
29823,5e-05,0.0001,-4e-05,-0.00119,-0.00123,-0.00025,-4e-05,3e-05,4,13
29824,5e-05,0.0001,-4e-05,-0.00119,-0.00123,-0.00025,-4e-05,3e-05,4,13
29825,5e-05,0.0001,-4e-05,-0.00119,-0.00123,-0.00025,-4e-05,3e-05,4,13
29826,5e-05,0.0001,-4e-05,-0.00119,-0.00123,-0.00025,-4e-05,3e-05,4,13
29827,5e-05,0.0001,-4e-05,-0.00119,-0.00123,-0.00025,-4e-05,3e-05,4,13
29828,5e-05,0.0001,-4e-05,-0.00119,-0.00123,-0.00025,-4e-05,3e-05,4,13
29829,5e-05,0.00017,0.00048,0.00086,0.00018,0.00035,-3e-05,2e-05,4,13
29830,-0.00011,-0.00014,3e-05,0.00044,0.00081,0.00087,0.00019,0,4,13
29831,-0.00011,-0.00014,3e-05,0.00044,0.00081,0.00087,0.00019,0,4,13
29832,-0.00011,-0.00014,3e-05,0.00044,0.00081,0.00087,0.00019,0,4,13
29833,-0.00011,-0.00014,3e-05,0.00044,0.00081,0.00087,0.00019,0,4,13
29834,-0.00011,-0.00014,3e-05,0.00044,0.00081,0.00087,0.00019,0,4,13
29835,-0.00011,-0.00014,3e-05,0.00044,0.00081,0.00087,0.00019,0,4,13
29836,-0.00011,-0.00014,3e-05,0.00044,0.00081,0.00087,0.00019,0,4,13
29838,-0.00011,-0.00014,3e-05,0.00044,0.00081,0.00087,0.00019,0,4,13
29839,-0.00011,-0.00014,3e-05,0.00044,0.00081,0.00087,0.00019,0,4,13
29840,-0.00011,-0.00014,3e-05,0.00044,0.00081,0.00087,0.00019,0,4,13
29841,-0.00011,-0.00014,3e-05,0.00044,0.00081,0.00087,0.00019,0,4,13
29842,-0.00011,-0.00014,3e-05,0.00044,0.00081,0.00087,0.00019,0,4,13
29843,-0.00011,-0.00014,3e-05,0.00044,0.00081,0.00087,0.00019,0,4,13
29844,-0.00011,-0.00014,3e-05,0.00044,0.00081,0.00087,0.00019,0,4,13
29845,-0.00011,-0.00014,3e-05,0.00044,0.00081,0.00087,0.00019,0,4,13
29846,-0.00011,-0.00014,3e-05,0.00044,0.00081,0.00087,0.00019,0,4,13
29847,-0.00011,-0.00014,3e-05,0.00044,0.00081,0.00087,0.00019,0,4,13
29848,-0.00011,-0.00014,3e-05,0.00044,0.00081,0.00087,0.00019,0,4,13
29849,-0.00011,-0.00014,3e-05,0.00044,0.00081,0.00087,0.00019,0,4,13
29850,-0.00011,-0.00014,3e-05,0.00044,0.00081,0.00087,0.00019,0,4,13
29851,-0.00011,-0.00014,3e-05,0.00044,0.00081,0.00087,0.00019,0,4,13
29852,-8e-05,-7e-05,-0.00011,-0.00069,-0.00081,-0.00041,-0.00018,-7e-05,4,13
29853,9e-05,0.00022,0.00027,0.00108,-0.00032,-0.00047,-4e-05,1e-05,4,13
29854,9e-05,0.00022,0.00027,0.00108,-0.00032,-0.00047,-4e-05,1e-05,4,13
29855,9e-05,0.00022,0.00027,0.00108,-0.00032,-0.00047,-4e-05,1e-05,4,13
29856,9e-05,0.00022,0.00027,0.00108,-0.00032,-0.00047,-4e-05,1e-05,4,13
29857,9e-05,0.00022,0.00027,0.00108,-0.00032,-0.00047,-4e-05,1e-05,4,13
29858,9e-05,0.00022,0.00027,0.00108,-0.00032,-0.00047,-4e-05,1e-05,4,13
29859,9e-05,0.00022,0.00027,0.00108,-0.00032,-0.00047,-4e-05,1e-05,4,13
29860,9e-05,0.00022,0.00027,0.00108,-0.00032,-0.00047,-4e-05,1e-05,4,13
29861,9e-05,0.00022,0.00027,0.00108,-0.00032,-0.00047,-4e-05,1e-05,4,13
29862,9e-05,0.00022,0.00027,0.00108,-0.00032,-0.00047,-4e-05,1e-05,4,13
29863,9e-05,0.00022,0.00027,0.00108,-0.00032,-0.00047,-4e-05,1e-05,4,13
29864,9e-05,0.00022,0.00027,0.00108,-0.00032,-0.00047,-4e-05,1e-05,4,13
29865,9e-05,0.00022,0.00027,0.00108,-0.00032,-0.00047,-4e-05,1e-05,4,13
29866,-8e-05,-0.00011,0.00014,-0.00045,-0.00017,0.00047,2e-05,-4e-05,4,13
29867,0,0,-6e-05,0.00017,0.00049,0,-4e-05,-2e-05,4,13
29868,0,0,-6e-05,0.00017,0.00049,0,-4e-05,-2e-05,4,13
29869,0,0,-6e-05,0.00017,0.00049,0,-4e-05,-2e-05,4,13
29870,0,0,-6e-05,0.00017,0.00049,0,-4e-05,-2e-05,4,13
29871,0,0,-6e-05,0.00017,0.00049,0,-4e-05,-2e-05,4,13
29872,0,0,-6e-05,0.00017,0.00049,0,-4e-05,-2e-05,4,13
29873,0,0,-6e-05,0.00017,0.00049,0,-4e-05,-2e-05,4,13
29874,0,0,-6e-05,0.00017,0.00049,0,-4e-05,-2e-05,4,13
29875,0,0,-6e-05,0.00017,0.00049,0,-4e-05,-2e-05,4,13
29876,0,0,-6e-05,0.00017,0.00049,0,-4e-05,-2e-05,4,13
29877,0,0,-6e-05,0.00017,0.00049,0,-4e-05,-2e-05,4,13
29878,0,0,-6e-05,0.00017,0.00049,0,-4e-05,-2e-05,4,13
29879,0,0,-6e-05,0.00017,0.00049,0,-4e-05,-2e-05,4,13
29880,0,0,-6e-05,0.00017,0.00049,0,-4e-05,-2e-05,4,13
29881,0,0,-6e-05,0.00017,0.00049,0,-4e-05,-2e-05,4,13
29882,0,0,-6e-05,0.00017,0.00049,0,-4e-05,-2e-05,4,13
29883,0,0,-6e-05,0.00017,0.00049,0,-4e-05,-2e-05,4,13
29884,0,0,-6e-05,0.00017,0.00049,0,-4e-05,-2e-05,4,13
29885,0,0,-6e-05,0.00017,0.00049,0,-4e-05,-2e-05,4,13
29886,0,0,-6e-05,0.00017,0.00049,0,-4e-05,-2e-05,4,13
29888,-0.00011,-6e-05,-0.00026,-0.00112,-0.00075,-4e-05,-8e-05,-9e-05,4,13
29890,3e-05,5e-05,0.00024,0.00024,-8e-05,-0.00025,-2e-05,-2e-05,4,13
29891,3e-05,5e-05,0.00024,0.00024,-8e-05,-0.00025,-2e-05,-2e-05,4,13
29892,3e-05,5e-05,0.00024,0.00024,-8e-05,-0.00025,-2e-05,-2e-05,4,13
29893,3e-05,5e-05,0.00024,0.00024,-8e-05,-0.00025,-2e-05,-2e-05,4,13
29894,3e-05,5e-05,0.00024,0.00024,-8e-05,-0.00025,-2e-05,-2e-05,4,13
29895,3e-05,5e-05,0.00024,0.00024,-8e-05,-0.00025,-2e-05,-2e-05,4,13
29896,3e-05,5e-05,0.00024,0.00024,-8e-05,-0.00025,-2e-05,-2e-05,4,13
29897,3e-05,5e-05,0.00024,0.00024,-8e-05,-0.00025,-2e-05,-2e-05,4,13
29898,3e-05,5e-05,0.00024,0.00024,-8e-05,-0.00025,-2e-05,-2e-05,4,13
29899,3e-05,5e-05,0.00024,0.00024,-8e-05,-0.00025,-2e-05,-2e-05,4,13
29900,3e-05,5e-05,0.00024,0.00024,-8e-05,-0.00025,-2e-05,-2e-05,4,13
29901,3e-05,5e-05,0.00024,0.00024,-8e-05,-0.00025,-2e-05,-2e-05,4,13
29902,3e-05,5e-05,0.00024,0.00024,-8e-05,-0.00025,-2e-05,-2e-05,4,13
29903,3e-05,5e-05,0.00024,0.00024,-8e-05,-0.00025,-2e-05,-2e-05,4,13
29904,3e-05,5e-05,0.00024,0.00024,-8e-05,-0.00025,-2e-05,-2e-05,4,13
29905,3e-05,5e-05,0.00024,0.00024,-8e-05,-0.00025,-2e-05,-2e-05,4,13
29906,3e-05,5e-05,0.00024,0.00024,-8e-05,-0.00025,-2e-05,-2e-05,4,13
29907,3e-05,5e-05,0.00024,0.00024,-8e-05,-0.00025,-2e-05,-2e-05,4,13
29908,3e-05,5e-05,0.00024,0.00024,-8e-05,-0.00025,-2e-05,-2e-05,4,13
29909,3e-05,5e-05,0.00024,0.00024,-8e-05,-0.00025,-2e-05,-2e-05,4,13
29910,3e-05,5e-05,0.00024,0.00024,-8e-05,-0.00025,-2e-05,-2e-05,4,13
29911,-1e-05,-8e-05,-0.00067,-0.0011,-0.00061,-0.00017,-4e-05,-3e-05,4,13
29912,-8e-05,-0.00011,-0.00016,-8e-05,-0.00088,-0.00043,-0.00017,-0.00011,4,13
29913,-8e-05,-0.00011,-0.00016,-8e-05,-0.00088,-0.00043,-0.00017,-0.00011,4,13
29914,-8e-05,-0.00011,-0.00016,-8e-05,-0.00088,-0.00043,-0.00017,-0.00011,4,13
29915,-8e-05,-0.00011,-0.00016,-8e-05,-0.00088,-0.00043,-0.00017,-0.00011,4,13
29916,-8e-05,-0.00011,-0.00016,-8e-05,-0.00088,-0.00043,-0.00017,-0.00011,4,13
29917,-8e-05,-0.00011,-0.00016,-8e-05,-0.00088,-0.00043,-0.00017,-0.00011,4,13
29918,-8e-05,-0.00011,-0.00016,-8e-05,-0.00088,-0.00043,-0.00017,-0.00011,4,13
29919,-8e-05,-0.00011,-0.00016,-8e-05,-0.00088,-0.00043,-0.00017,-0.00011,4,13
29920,-8e-05,-0.00011,-0.00016,-8e-05,-0.00088,-0.00043,-0.00017,-0.00011,4,13
29921,-8e-05,-0.00011,-0.00016,-8e-05,-0.00088,-0.00043,-0.00017,-0.00011,4,13
29922,-8e-05,-0.00011,-0.00016,-8e-05,-0.00088,-0.00043,-0.00017,-0.00011,4,13
29923,-8e-05,-0.00011,-0.00016,-8e-05,-0.00088,-0.00043,-0.00017,-0.00011,4,13
29924,-8e-05,-0.00011,-0.00016,-8e-05,-0.00088,-0.00043,-0.00017,-0.00011,4,13
29925,-8e-05,-0.00011,-0.00016,-8e-05,-0.00088,-0.00043,-0.00017,-0.00011,4,13
29926,-4e-05,-3e-05,-4e-05,0.00042,-4e-05,-0.00016,-7e-05,-8e-05,4,13
29927,0,-0.00011,-0.00044,-0.00063,-0.00076,-8e-05,0.00013,5e-05,4,13
29928,0,-0.00011,-0.00044,-0.00063,-0.00076,-8e-05,0.00013,5e-05,4,13
29929,0,-0.00011,-0.00044,-0.00063,-0.00076,-8e-05,0.00013,5e-05,4,13
29930,0,-0.00011,-0.00044,-0.00063,-0.00076,-8e-05,0.00013,5e-05,4,13
29931,0,-0.00011,-0.00044,-0.00063,-0.00076,-8e-05,0.00013,5e-05,4,13
29932,0,-0.00011,-0.00044,-0.00063,-0.00076,-8e-05,0.00013,5e-05,4,13
29933,0,-0.00011,-0.00044,-0.00063,-0.00076,-8e-05,0.00013,5e-05,4,13
29934,0,-0.00011,-0.00044,-0.00063,-0.00076,-8e-05,0.00013,5e-05,4,13
29935,0,-0.00011,-0.00044,-0.00063,-0.00076,-8e-05,0.00013,5e-05,4,13
29936,0,-0.00011,-0.00044,-0.00063,-0.00076,-8e-05,0.00013,5e-05,4,13
29938,0,-0.00011,-0.00044,-0.00063,-0.00076,-8e-05,0.00013,5e-05,4,13
29939,0,-0.00011,-0.00044,-0.00063,-0.00076,-8e-05,0.00013,5e-05,4,13
29940,0,-0.00011,-0.00044,-0.00063,-0.00076,-8e-05,0.00013,5e-05,4,13
29941,0,-0.00011,-0.00044,-0.00063,-0.00076,-8e-05,0.00013,5e-05,4,13
29942,0,-0.00011,-0.00044,-0.00063,-0.00076,-8e-05,0.00013,5e-05,4,13
29943,0,-0.00011,-0.00044,-0.00063,-0.00076,-8e-05,0.00013,5e-05,4,13
29944,0,-0.00011,-0.00044,-0.00063,-0.00076,-8e-05,0.00013,5e-05,4,13
29945,0,-0.00011,-0.00044,-0.00063,-0.00076,-8e-05,0.00013,5e-05,4,13
29946,0,-0.00011,-0.00044,-0.00063,-0.00076,-8e-05,0.00013,5e-05,4,13
29947,0,-0.00011,-0.00044,-0.00063,-0.00076,-8e-05,0.00013,5e-05,4,13
29948,0,-0.00011,-0.00044,-0.00063,-0.00076,-8e-05,0.00013,5e-05,4,13
29949,1e-05,7e-05,9e-05,7e-05,-2e-05,5e-05,-9e-05,-2e-05,4,13
29950,-1e-05,-2e-05,-3e-05,-0.0005,0.00087,0.00037,-3e-05,-4e-05,4,13
29951,-1e-05,-2e-05,-3e-05,-0.0005,0.00087,0.00037,-3e-05,-4e-05,4,13
29952,-1e-05,-2e-05,-3e-05,-0.0005,0.00087,0.00037,-3e-05,-4e-05,4,13
29953,-1e-05,-2e-05,-3e-05,-0.0005,0.00087,0.00037,-3e-05,-4e-05,4,13
29954,-1e-05,-2e-05,-3e-05,-0.0005,0.00087,0.00037,-3e-05,-4e-05,4,13
29955,-1e-05,-2e-05,-3e-05,-0.0005,0.00087,0.00037,-3e-05,-4e-05,4,13
29956,-1e-05,-2e-05,-3e-05,-0.0005,0.00087,0.00037,-3e-05,-4e-05,4,13
29957,-1e-05,-2e-05,-3e-05,-0.0005,0.00087,0.00037,-3e-05,-4e-05,4,13
29958,-1e-05,-2e-05,-3e-05,-0.0005,0.00087,0.00037,-3e-05,-4e-05,4,13
29959,-1e-05,-2e-05,-3e-05,-0.0005,0.00087,0.00037,-3e-05,-4e-05,4,13
29960,-1e-05,-2e-05,-3e-05,-0.0005,0.00087,0.00037,-3e-05,-4e-05,4,13
29961,-1e-05,-2e-05,-3e-05,-0.0005,0.00087,0.00037,-3e-05,-4e-05,4,13
29962,-1e-05,-2e-05,-3e-05,-0.0005,0.00087,0.00037,-3e-05,-4e-05,4,13
29963,-2e-05,-0.00017,-0.00018,4e-05,0.00018,-0.00019,-2e-05,-1e-05,4,13
29964,-2e-05,-0.00017,-0.00018,4e-05,0.00018,-0.00019,-2e-05,-1e-05,4,13
29965,-2e-05,-0.00017,-0.00018,4e-05,0.00018,-0.00019,-2e-05,-1e-05,4,13
29966,-2e-05,-0.00017,-0.00018,4e-05,0.00018,-0.00019,-2e-05,-1e-05,4,13
29967,-2e-05,-0.00017,-0.00018,4e-05,0.00018,-0.00019,-2e-05,-1e-05,4,13
29968,-2e-05,-0.00017,-0.00018,4e-05,0.00018,-0.00019,-2e-05,-1e-05,4,13
29969,-2e-05,-0.00017,-0.00018,4e-05,0.00018,-0.00019,-2e-05,-1e-05,4,13
29970,-2e-05,-0.00017,-0.00018,4e-05,0.00018,-0.00019,-2e-05,-1e-05,4,13
29971,-2e-05,-9e-05,-0.00013,0.0004,0.00018,-0.00028,-0.00015,-9e-05,4,13
29972,-2e-05,-9e-05,-0.00013,0.0004,0.00018,-0.00028,-0.00015,-9e-05,4,13
29973,-2e-05,-9e-05,-0.00013,0.0004,0.00018,-0.00028,-0.00015,-9e-05,4,13
29974,-2e-05,-9e-05,-0.00013,0.0004,0.00018,-0.00028,-0.00015,-9e-05,4,13
29975,-2e-05,-9e-05,-0.00013,0.0004,0.00018,-0.00028,-0.00015,-9e-05,4,13
29976,-2e-05,-9e-05,-0.00013,0.0004,0.00018,-0.00028,-0.00015,-9e-05,4,13
29977,-2e-05,-9e-05,-0.00013,0.0004,0.00018,-0.00028,-0.00015,-9e-05,4,13
29978,-2e-05,-9e-05,-0.00013,0.0004,0.00018,-0.00028,-0.00015,-9e-05,4,13
29979,-2e-05,-9e-05,-0.00013,0.0004,0.00018,-0.00028,-0.00015,-9e-05,4,13
29980,-2e-05,-9e-05,-0.00013,0.0004,0.00018,-0.00028,-0.00015,-9e-05,4,13
29981,-2e-05,-9e-05,-0.00013,0.0004,0.00018,-0.00028,-0.00015,-9e-05,4,13
29982,-2e-05,-9e-05,-0.00013,0.0004,0.00018,-0.00028,-0.00015,-9e-05,4,13
29983,-2e-05,-9e-05,-0.00013,0.0004,0.00018,-0.00028,-0.00015,-9e-05,4,13
29984,-2e-05,-9e-05,-0.00013,0.0004,0.00018,-0.00028,-0.00015,-9e-05,4,13
29985,-2e-05,-9e-05,-0.00013,0.0004,0.00018,-0.00028,-0.00015,-9e-05,4,13
29986,-0.00017,-0.00012,-5e-05,0.00035,0.00066,0.00038,0.00014,-3e-05,4,13
29989,-3e-05,-6e-05,3e-05,-0.00016,0.00017,0.00066,7e-05,0,4,13
29990,-3e-05,-6e-05,3e-05,-0.00016,0.00017,0.00066,7e-05,0,4,13
29991,-3e-05,-6e-05,3e-05,-0.00016,0.00017,0.00066,7e-05,0,4,13
29992,-3e-05,-6e-05,3e-05,-0.00016,0.00017,0.00066,7e-05,0,4,13
29993,-3e-05,-6e-05,3e-05,-0.00016,0.00017,0.00066,7e-05,0,4,13
29994,-3e-05,-6e-05,3e-05,-0.00016,0.00017,0.00066,7e-05,0,4,13
29995,-3e-05,-6e-05,3e-05,-0.00016,0.00017,0.00066,7e-05,0,4,13
29996,-3e-05,-6e-05,3e-05,-0.00016,0.00017,0.00066,7e-05,0,4,13
29997,-3e-05,-6e-05,3e-05,-0.00016,0.00017,0.00066,7e-05,0,4,13
29998,-3e-05,-6e-05,3e-05,-0.00016,0.00017,0.00066,7e-05,0,4,13
29999,-3e-05,-6e-05,3e-05,-0.00016,0.00017,0.00066,7e-05,0,4,13
30000,-3e-05,-6e-05,3e-05,-0.00016,0.00017,0.00066,7e-05,0,4,13
30001,-3e-05,-6e-05,3e-05,-0.00016,0.00017,0.00066,7e-05,0,4,13
30002,-3e-05,-6e-05,3e-05,-0.00016,0.00017,0.00066,7e-05,0,4,13
30003,-3e-05,-6e-05,3e-05,-0.00016,0.00017,0.00066,7e-05,0,4,13
30004,-3e-05,-6e-05,3e-05,-0.00016,0.00017,0.00066,7e-05,0,4,13
30005,-3e-05,-6e-05,3e-05,-0.00016,0.00017,0.00066,7e-05,0,4,13
30006,-3e-05,-6e-05,3e-05,-0.00016,0.00017,0.00066,7e-05,0,4,13
30007,-3e-05,-6e-05,3e-05,-0.00016,0.00017,0.00066,7e-05,0,4,13
30008,-3e-05,-6e-05,3e-05,-0.00016,0.00017,0.00066,7e-05,0,4,13
30009,-3e-05,-6e-05,3e-05,-0.00016,0.00017,0.00066,7e-05,0,4,13
30010,0,2e-05,0.0002,0.00026,-0.00016,0,5e-05,3e-05,4,13
30011,0,2e-05,0.0002,0.00026,-0.00016,0,5e-05,3e-05,4,13
30012,0,2e-05,0.0002,0.00026,-0.00016,0,5e-05,3e-05,4,13
30013,0,2e-05,0.0002,0.00026,-0.00016,0,5e-05,3e-05,4,13
30014,0,2e-05,0.0002,0.00026,-0.00016,0,5e-05,3e-05,4,13
30015,0,2e-05,0.0002,0.00026,-0.00016,0,5e-05,3e-05,4,13
30016,0,2e-05,0.0002,0.00026,-0.00016,0,5e-05,3e-05,4,13
30017,0,2e-05,0.0002,0.00026,-0.00016,0,5e-05,3e-05,4,13
30018,0,2e-05,0.0002,0.00026,-0.00016,0,5e-05,3e-05,4,13
30019,0,2e-05,0.0002,0.00026,-0.00016,0,5e-05,3e-05,4,13
30020,0,2e-05,0.0002,0.00026,-0.00016,0,5e-05,3e-05,4,13
30021,0,2e-05,0.0002,0.00026,-0.00016,0,5e-05,3e-05,4,13
30022,9e-05,0.00013,1e-05,-7e-05,-0.00022,-8e-05,-0.0001,-1e-05,4,13
30023,-9e-05,-0.0001,-0.0001,-0.00037,-0.00025,6e-05,2e-05,-4e-05,4,13
30024,-9e-05,-0.0001,-0.0001,-0.00037,-0.00025,6e-05,2e-05,-4e-05,4,13
30025,-9e-05,-0.0001,-0.0001,-0.00037,-0.00025,6e-05,2e-05,-4e-05,4,13
30026,-9e-05,-0.0001,-0.0001,-0.00037,-0.00025,6e-05,2e-05,-4e-05,4,13
30027,-9e-05,-0.0001,-0.0001,-0.00037,-0.00025,6e-05,2e-05,-4e-05,4,13
30028,-9e-05,-0.0001,-0.0001,-0.00037,-0.00025,6e-05,2e-05,-4e-05,4,13
30029,-9e-05,-0.0001,-0.0001,-0.00037,-0.00025,6e-05,2e-05,-4e-05,4,13
30030,-9e-05,-0.0001,-0.0001,-0.00037,-0.00025,6e-05,2e-05,-4e-05,4,13
30031,-9e-05,-0.00011,-1e-05,3e-05,4e-05,-0.00023,-0.00015,-7e-05,4,13
30032,-9e-05,-0.00011,-1e-05,3e-05,4e-05,-0.00023,-0.00015,-7e-05,4,13
30033,-9e-05,-0.00011,-1e-05,3e-05,4e-05,-0.00023,-0.00015,-7e-05,4,13
30034,-9e-05,-0.00011,-1e-05,3e-05,4e-05,-0.00023,-0.00015,-7e-05,4,13
30035,-9e-05,-0.00011,-1e-05,3e-05,4e-05,-0.00023,-0.00015,-7e-05,4,13
30043,-9e-05,-0.00011,-1e-05,3e-05,4e-05,-0.00023,-0.00015,-7e-05,4,13
30044,-9e-05,-0.00011,-1e-05,3e-05,4e-05,-0.00023,-0.00015,-7e-05,4,13
30045,-9e-05,-0.00011,-1e-05,3e-05,4e-05,-0.00023,-0.00015,-7e-05,4,13
30046,-9e-05,-0.00011,-1e-05,3e-05,4e-05,-0.00023,-0.00015,-7e-05,4,13
30047,-7e-05,0.00012,0.00036,0.00127,0.00021,-0.00017,0,-3e-05,4,13
30048,0.0001,0.00011,6e-05,0.00055,-0.00018,0.00026,0.00025,0.00016,4,13
30049,0.0001,0.00011,6e-05,0.00055,-0.00018,0.00026,0.00025,0.00016,4,13
30050,0.0001,0.00011,6e-05,0.00055,-0.00018,0.00026,0.00025,0.00016,4,13
30051,0.0001,0.00011,6e-05,0.00055,-0.00018,0.00026,0.00025,0.00016,4,13
30052,0.0001,0.00011,6e-05,0.00055,-0.00018,0.00026,0.00025,0.00016,4,13
30053,0.0001,0.00011,6e-05,0.00055,-0.00018,0.00026,0.00025,0.00016,4,13
30054,0.0001,0.00011,6e-05,0.00055,-0.00018,0.00026,0.00025,0.00016,4,13
30055,0.0001,0.00011,6e-05,0.00055,-0.00018,0.00026,0.00025,0.00016,4,13
30056,0.0001,0.00011,6e-05,0.00055,-0.00018,0.00026,0.00025,0.00016,4,13
30057,0.0001,0.00011,6e-05,0.00055,-0.00018,0.00026,0.00025,0.00016,4,13
30058,0.0001,0.00011,6e-05,0.00055,-0.00018,0.00026,0.00025,0.00016,4,13
30059,0.0001,0.00011,6e-05,0.00055,-0.00018,0.00026,0.00025,0.00016,4,13
30060,0.0001,0.00011,6e-05,0.00055,-0.00018,0.00026,0.00025,0.00016,4,13
30061,0.0001,0.00011,6e-05,0.00055,-0.00018,0.00026,0.00025,0.00016,4,13
30062,0.0001,0.00011,6e-05,0.00055,-0.00018,0.00026,0.00025,0.00016,4,13
30063,0.0001,0.00011,6e-05,0.00055,-0.00018,0.00026,0.00025,0.00016,4,13
30064,0.0001,0.00011,6e-05,0.00055,-0.00018,0.00026,0.00025,0.00016,4,13
30065,0.0001,0.00011,6e-05,0.00055,-0.00018,0.00026,0.00025,0.00016,4,13
30066,0.0001,0.00011,6e-05,0.00055,-0.00018,0.00026,0.00025,0.00016,4,13
30067,0.0001,0.00011,6e-05,0.00055,-0.00018,0.00026,0.00025,0.00016,4,13
30068,0.0001,0.00011,6e-05,0.00055,-0.00018,0.00026,0.00025,0.00016,4,13
30069,4e-05,9e-05,2e-05,8e-05,5e-05,0.00021,7e-05,0,4,13
30070,6e-05,-1e-05,0.00021,-0.00011,-0.00103,-9e-05,-5e-05,2e-05,4,13
30071,-3e-05,3e-05,-0.00013,0.00014,0.00031,0.00031,-5e-05,-5e-05,4,13
30072,-3e-05,3e-05,-0.00013,0.00014,0.00031,0.00031,-5e-05,-5e-05,4,13
30073,-3e-05,3e-05,-0.00013,0.00014,0.00031,0.00031,-5e-05,-5e-05,4,13
30074,-3e-05,3e-05,-0.00013,0.00014,0.00031,0.00031,-5e-05,-5e-05,4,13
30075,-3e-05,3e-05,-0.00013,0.00014,0.00031,0.00031,-5e-05,-5e-05,4,13
30077,-3e-05,3e-05,-0.00013,0.00014,0.00031,0.00031,-5e-05,-5e-05,4,13
30078,-3e-05,3e-05,-0.00013,0.00014,0.00031,0.00031,-5e-05,-5e-05,4,13
30079,-3e-05,3e-05,-0.00013,0.00014,0.00031,0.00031,-5e-05,-5e-05,4,13
30080,-3e-05,3e-05,-0.00013,0.00014,0.00031,0.00031,-5e-05,-5e-05,4,13
30081,-3e-05,3e-05,-0.00013,0.00014,0.00031,0.00031,-5e-05,-5e-05,4,13
30082,-3e-05,3e-05,-0.00013,0.00014,0.00031,0.00031,-5e-05,-5e-05,4,13
30083,-2e-05,-1e-05,5e-05,8e-05,0,0.00036,2e-05,0,4,13
30084,-2e-05,-1e-05,5e-05,8e-05,0,0.00036,2e-05,0,4,13
30085,-2e-05,-1e-05,5e-05,8e-05,0,0.00036,2e-05,0,4,13
30086,-2e-05,-1e-05,5e-05,8e-05,0,0.00036,2e-05,0,4,13
30088,-2e-05,-1e-05,5e-05,8e-05,0,0.00036,2e-05,0,4,13
30089,-2e-05,-1e-05,5e-05,8e-05,0,0.00036,2e-05,0,4,13
30090,-2e-05,-1e-05,5e-05,8e-05,0,0.00036,2e-05,0,4,13
30091,0,-2e-05,-0.00025,-0.00021,7e-05,0.00016,3e-05,1e-05,4,13
30092,-9e-05,-0.00024,-0.00017,-0.00017,-0.00027,-0.00061,-0.00019,-0.00012,4,13
30093,-9e-05,-0.00024,-0.00017,-0.00017,-0.00027,-0.00061,-0.00019,-0.00012,4,13
30094,-9e-05,-0.00024,-0.00017,-0.00017,-0.00027,-0.00061,-0.00019,-0.00012,4,13
30095,-9e-05,-0.00024,-0.00017,-0.00017,-0.00027,-0.00061,-0.00019,-0.00012,4,13
30096,-9e-05,-0.00024,-0.00017,-0.00017,-0.00027,-0.00061,-0.00019,-0.00012,4,13
30097,-9e-05,-0.00024,-0.00017,-0.00017,-0.00027,-0.00061,-0.00019,-0.00012,4,13
30098,-9e-05,-0.00024,-0.00017,-0.00017,-0.00027,-0.00061,-0.00019,-0.00012,4,13
30099,-9e-05,-0.00024,-0.00017,-0.00017,-0.00027,-0.00061,-0.00019,-0.00012,4,13
30100,-9e-05,-0.00024,-0.00017,-0.00017,-0.00027,-0.00061,-0.00019,-0.00012,4,13
30101,-9e-05,-0.00024,-0.00017,-0.00017,-0.00027,-0.00061,-0.00019,-0.00012,4,13
30102,-9e-05,-0.00024,-0.00017,-0.00017,-0.00027,-0.00061,-0.00019,-0.00012,4,13
30103,-9e-05,-0.00024,-0.00017,-0.00017,-0.00027,-0.00061,-0.00019,-0.00012,4,13
30104,-9e-05,-0.00024,-0.00017,-0.00017,-0.00027,-0.00061,-0.00019,-0.00012,4,13
30105,-9e-05,-0.00024,-0.00017,-0.00017,-0.00027,-0.00061,-0.00019,-0.00012,4,13
30106,6e-05,0.00011,7e-05,0.00058,0.00083,0.00033,0.00016,7e-05,4,13
30107,0,-1e-05,-3e-05,-0.00043,-0.0005,-0.00056,-0.00018,-1e-05,4,13
30108,6e-05,7e-05,8e-05,-0.00042,-0.00084,0.0002,-6e-05,2e-05,4,13
30109,6e-05,7e-05,8e-05,-0.00042,-0.00084,0.0002,-6e-05,2e-05,4,13
30110,6e-05,7e-05,8e-05,-0.00042,-0.00084,0.0002,-6e-05,2e-05,4,13
30111,6e-05,7e-05,8e-05,-0.00042,-0.00084,0.0002,-6e-05,2e-05,4,13
30112,6e-05,7e-05,8e-05,-0.00042,-0.00084,0.0002,-6e-05,2e-05,4,13
30113,6e-05,7e-05,8e-05,-0.00042,-0.00084,0.0002,-6e-05,2e-05,4,13
30114,6e-05,7e-05,8e-05,-0.00042,-0.00084,0.0002,-6e-05,2e-05,4,13
30115,6e-05,7e-05,8e-05,-0.00042,-0.00084,0.0002,-6e-05,2e-05,4,13
30116,6e-05,7e-05,8e-05,-0.00042,-0.00084,0.0002,-6e-05,2e-05,4,13
30117,6e-05,7e-05,8e-05,-0.00042,-0.00084,0.0002,-6e-05,2e-05,4,13
30118,6e-05,7e-05,8e-05,-0.00042,-0.00084,0.0002,-6e-05,2e-05,4,13
30119,6e-05,7e-05,8e-05,-0.00042,-0.00084,0.0002,-6e-05,2e-05,4,13
30120,6e-05,7e-05,8e-05,-0.00042,-0.00084,0.0002,-6e-05,2e-05,4,13
30121,6e-05,7e-05,8e-05,-0.00042,-0.00084,0.0002,-6e-05,2e-05,4,13
30122,6e-05,7e-05,8e-05,-0.00042,-0.00084,0.0002,-6e-05,2e-05,4,13
30123,6e-05,7e-05,8e-05,-0.00042,-0.00084,0.0002,-6e-05,2e-05,4,13
30124,6e-05,7e-05,8e-05,-0.00042,-0.00084,0.0002,-6e-05,2e-05,4,13
30125,6e-05,7e-05,8e-05,-0.00042,-0.00084,0.0002,-6e-05,2e-05,4,13
30126,6e-05,7e-05,8e-05,-0.00042,-0.00084,0.0002,-6e-05,2e-05,4,13
30127,6e-05,7e-05,8e-05,-0.00042,-0.00084,0.0002,-6e-05,2e-05,4,13
30128,6e-05,7e-05,8e-05,-0.00042,-0.00084,0.0002,-6e-05,2e-05,4,13
30129,0,-0.00013,-0.00021,-0.00033,0.00065,0.00085,0.00012,2e-05,4,13
30130,-0.0002,-0.0002,-0.00041,-0.0004,0.00052,-0.0006,-0.00021,-0.00012,4,13
30131,-0.0002,-0.0002,-0.00041,-0.0004,0.00052,-0.0006,-0.00021,-0.00012,4,13
30132,-0.0002,-0.0002,-0.00041,-0.0004,0.00052,-0.0006,-0.00021,-0.00012,4,13
30133,-0.0002,-0.0002,-0.00041,-0.0004,0.00052,-0.0006,-0.00021,-0.00012,4,13
30134,-0.0002,-0.0002,-0.00041,-0.0004,0.00052,-0.0006,-0.00021,-0.00012,4,13
30135,-0.0002,-0.0002,-0.00041,-0.0004,0.00052,-0.0006,-0.00021,-0.00012,4,13
30136,-0.0002,-0.0002,-0.00041,-0.0004,0.00052,-0.0006,-0.00021,-0.00012,4,13
30138,-0.0002,-0.0002,-0.00041,-0.0004,0.00052,-0.0006,-0.00021,-0.00012,4,13
30139,-0.0002,-0.0002,-0.00041,-0.0004,0.00052,-0.0006,-0.00021,-0.00012,4,13
30140,-0.0002,-0.0002,-0.00041,-0.0004,0.00052,-0.0006,-0.00021,-0.00012,4,13
30141,-0.0002,-0.0002,-0.00041,-0.0004,0.00052,-0.0006,-0.00021,-0.00012,4,13
30142,-0.0002,-0.0002,-0.00041,-0.0004,0.00052,-0.0006,-0.00021,-0.00012,4,13
30143,-0.0002,-0.0002,-0.00041,-0.0004,0.00052,-0.0006,-0.00021,-0.00012,4,13
30144,-0.0002,-0.0002,-0.00041,-0.0004,0.00052,-0.0006,-0.00021,-0.00012,4,13
30145,-0.0002,-0.0002,-0.00041,-0.0004,0.00052,-0.0006,-0.00021,-0.00012,4,13
30146,-0.0002,-0.0002,-0.00041,-0.0004,0.00052,-0.0006,-0.00021,-0.00012,4,13
30147,-0.0002,-0.0002,-0.00041,-0.0004,0.00052,-0.0006,-0.00021,-0.00012,4,13
30148,-0.0002,-0.0002,-0.00041,-0.0004,0.00052,-0.0006,-0.00021,-0.00012,4,13
30149,-0.0002,-0.0002,-0.00041,-0.0004,0.00052,-0.0006,-0.00021,-0.00012,4,13
30150,-0.0002,-0.0002,-0.00041,-0.0004,0.00052,-0.0006,-0.00021,-0.00012,4,13
30151,-2e-05,-1e-05,-4e-05,0.00041,0.00061,9e-05,6e-05,2e-05,4,13
30152,-2e-05,-1e-05,-4e-05,0.00041,0.00061,9e-05,6e-05,2e-05,4,13
30153,-2e-05,-1e-05,-4e-05,0.00041,0.00061,9e-05,6e-05,2e-05,4,13
30154,-2e-05,-1e-05,-4e-05,0.00041,0.00061,9e-05,6e-05,2e-05,4,13
30155,-2e-05,-1e-05,-4e-05,0.00041,0.00061,9e-05,6e-05,2e-05,4,13
30156,-2e-05,-1e-05,-4e-05,0.00041,0.00061,9e-05,6e-05,2e-05,4,13
30157,4e-05,0,-2e-05,-0.0006,-7e-05,0.00052,0.00013,7e-05,4,13
30158,1e-05,-4e-05,1e-05,-0.00024,0.00025,0.00018,0.0001,1e-05,4,13
30159,1e-05,-4e-05,1e-05,-0.00024,0.00025,0.00018,0.0001,1e-05,4,13
30160,1e-05,-4e-05,1e-05,-0.00024,0.00025,0.00018,0.0001,1e-05,4,13
30161,1e-05,-4e-05,1e-05,-0.00024,0.00025,0.00018,0.0001,1e-05,4,13
30162,1e-05,-4e-05,1e-05,-0.00024,0.00025,0.00018,0.0001,1e-05,4,13
30163,1e-05,-4e-05,1e-05,-0.00024,0.00025,0.00018,0.0001,1e-05,4,13
30164,1e-05,-4e-05,1e-05,-0.00024,0.00025,0.00018,0.0001,1e-05,4,13
30165,1e-05,-4e-05,1e-05,-0.00024,0.00025,0.00018,0.0001,1e-05,4,13
30166,0,0.0001,0.00019,-0.00016,-0.00032,0.00032,0.0001,4e-05,4,13
30167,-9e-05,-0.00017,-0.00038,-0.00083,-0.00053,-0.00075,-0.00012,-0.00012,4,13
30168,5e-05,0.00018,0.00024,-0.00034,-0.0004,8e-05,0.00014,3e-05,4,13
30169,5e-05,0.00018,0.00024,-0.00034,-0.0004,8e-05,0.00014,3e-05,4,13
30170,5e-05,0.00018,0.00024,-0.00034,-0.0004,8e-05,0.00014,3e-05,4,13
30171,5e-05,0.00018,0.00024,-0.00034,-0.0004,8e-05,0.00014,3e-05,4,13
30172,5e-05,0.00018,0.00024,-0.00034,-0.0004,8e-05,0.00014,3e-05,4,13
30173,5e-05,0.00018,0.00024,-0.00034,-0.0004,8e-05,0.00014,3e-05,4,13
30174,5e-05,0.00018,0.00024,-0.00034,-0.0004,8e-05,0.00014,3e-05,4,13
30175,5e-05,0.00018,0.00024,-0.00034,-0.0004,8e-05,0.00014,3e-05,4,13
30176,5e-05,0.00018,0.00024,-0.00034,-0.0004,8e-05,0.00014,3e-05,4,13
30177,5e-05,0.00018,0.00024,-0.00034,-0.0004,8e-05,0.00014,3e-05,4,13
30178,5e-05,0.00018,0.00024,-0.00034,-0.0004,8e-05,0.00014,3e-05,4,13
30179,5e-05,0.00018,0.00024,-0.00034,-0.0004,8e-05,0.00014,3e-05,4,13
30180,5e-05,0.00018,0.00024,-0.00034,-0.0004,8e-05,0.00014,3e-05,4,13
30181,5e-05,0.00018,0.00024,-0.00034,-0.0004,8e-05,0.00014,3e-05,4,13
30182,5e-05,0.00018,0.00024,-0.00034,-0.0004,8e-05,0.00014,3e-05,4,13
30183,5e-05,0.00018,0.00024,-0.00034,-0.0004,8e-05,0.00014,3e-05,4,13
30184,5e-05,0.00018,0.00024,-0.00034,-0.0004,8e-05,0.00014,3e-05,4,13
30185,5e-05,0.00018,0.00024,-0.00034,-0.0004,8e-05,0.00014,3e-05,4,13
30186,5e-05,0.00018,0.00024,-0.00034,-0.0004,8e-05,0.00014,3e-05,4,13
30188,5e-05,0.00018,0.00024,-0.00034,-0.0004,8e-05,0.00014,3e-05,4,13
30189,-3e-05,-5e-05,-6e-05,-0.00019,-0.00026,-0.00018,-8e-05,-5e-05,4,13
30190,1e-05,4e-05,8e-05,0.00079,0.00085,0.00058,0.00011,5e-05,4,13
30191,5e-05,0.00014,0.00024,-0.00015,0.0003,0.00076,0.00014,6e-05,4,13
30192,5e-05,0.00014,0.00024,-0.00015,0.0003,0.00076,0.00014,6e-05,4,13
30193,5e-05,0.00014,0.00024,-0.00015,0.0003,0.00076,0.00014,6e-05,4,13
30194,5e-05,0.00014,0.00024,-0.00015,0.0003,0.00076,0.00014,6e-05,4,13
30195,5e-05,0.00014,0.00024,-0.00015,0.0003,0.00076,0.00014,6e-05,4,13
30196,5e-05,0.00014,0.00024,-0.00015,0.0003,0.00076,0.00014,6e-05,4,13
30197,5e-05,0.00014,0.00024,-0.00015,0.0003,0.00076,0.00014,6e-05,4,13
30198,5e-05,0.00014,0.00024,-0.00015,0.0003,0.00076,0.00014,6e-05,4,13
30199,5e-05,0.00014,0.00024,-0.00015,0.0003,0.00076,0.00014,6e-05,4,13
30200,5e-05,0.00014,0.00024,-0.00015,0.0003,0.00076,0.00014,6e-05,4,13
30201,5e-05,0.00014,0.00024,-0.00015,0.0003,0.00076,0.00014,6e-05,4,13
30202,5e-05,0.00014,0.00024,-0.00015,0.0003,0.00076,0.00014,6e-05,4,13
30203,5e-05,0.00014,0.00024,-0.00015,0.0003,0.00076,0.00014,6e-05,4,13
30204,5e-05,0.00014,0.00024,-0.00015,0.0003,0.00076,0.00014,6e-05,4,13
30205,5e-05,0.00014,0.00024,-0.00015,0.0003,0.00076,0.00014,6e-05,4,13
30206,5e-05,0.00014,0.00024,-0.00015,0.0003,0.00076,0.00014,6e-05,4,13
30207,5e-05,0.00014,0.00024,-0.00015,0.0003,0.00076,0.00014,6e-05,4,13
30208,5e-05,0.00014,0.00024,-0.00015,0.0003,0.00076,0.00014,6e-05,4,13
30209,5e-05,0.00014,0.00024,-0.00015,0.0003,0.00076,0.00014,6e-05,4,13
30210,5e-05,0.00014,0.00024,-0.00015,0.0003,0.00076,0.00014,6e-05,4,13
30211,9e-05,0.00022,0.00035,0.00088,0.00073,0.00027,5e-05,2e-05,4,13
30212,9e-05,0.00022,0.00035,0.00088,0.00073,0.00027,5e-05,2e-05,4,13
30213,9e-05,0.00022,0.00035,0.00088,0.00073,0.00027,5e-05,2e-05,4,13
30214,9e-05,0.00022,0.00035,0.00088,0.00073,0.00027,5e-05,2e-05,4,13
30215,9e-05,0.00022,0.00035,0.00088,0.00073,0.00027,5e-05,2e-05,4,13
30216,9e-05,0.00022,0.00035,0.00088,0.00073,0.00027,5e-05,2e-05,4,13
30217,9e-05,0.00022,0.00035,0.00088,0.00073,0.00027,5e-05,2e-05,4,13
30218,-0.00012,-0.00019,-0.00027,-0.00017,-0.00059,-0.00024,-9e-05,-5e-05,4,13
30219,1e-05,0,0.00051,0.0009,0.0008,0.00027,5e-05,2e-05,4,13
30220,1e-05,0,0.00051,0.0009,0.0008,0.00027,5e-05,2e-05,4,13
30221,1e-05,0,0.00051,0.0009,0.0008,0.00027,5e-05,2e-05,4,13
30222,1e-05,0,0.00051,0.0009,0.0008,0.00027,5e-05,2e-05,4,13
30223,1e-05,0,0.00051,0.0009,0.0008,0.00027,5e-05,2e-05,4,13
30224,1e-05,0,0.00051,0.0009,0.0008,0.00027,5e-05,2e-05,4,13
30225,1e-05,0,0.00051,0.0009,0.0008,0.00027,5e-05,2e-05,4,13
30226,7e-05,-1e-05,0.00016,0.00013,0.00063,-0.00029,1e-05,5e-05,4,13
30227,7e-05,-1e-05,0.00016,0.00013,0.00063,-0.00029,1e-05,5e-05,4,13
30228,1e-05,5e-05,3e-05,0.00042,-0.00089,-0.00056,-0.00016,-1e-05,4,13
30229,1e-05,5e-05,3e-05,0.00042,-0.00089,-0.00056,-0.00016,-1e-05,4,13
30230,1e-05,5e-05,3e-05,0.00042,-0.00089,-0.00056,-0.00016,-1e-05,4,13
30231,1e-05,5e-05,3e-05,0.00042,-0.00089,-0.00056,-0.00016,-1e-05,4,13
30232,1e-05,5e-05,3e-05,0.00042,-0.00089,-0.00056,-0.00016,-1e-05,4,13
30233,1e-05,5e-05,3e-05,0.00042,-0.00089,-0.00056,-0.00016,-1e-05,4,13
30234,1e-05,5e-05,3e-05,0.00042,-0.00089,-0.00056,-0.00016,-1e-05,4,13
30235,1e-05,5e-05,3e-05,0.00042,-0.00089,-0.00056,-0.00016,-1e-05,4,13
30236,1e-05,5e-05,3e-05,0.00042,-0.00089,-0.00056,-0.00016,-1e-05,4,13
30238,1e-05,5e-05,3e-05,0.00042,-0.00089,-0.00056,-0.00016,-1e-05,4,13
30239,1e-05,5e-05,3e-05,0.00042,-0.00089,-0.00056,-0.00016,-1e-05,4,13
30240,1e-05,5e-05,3e-05,0.00042,-0.00089,-0.00056,-0.00016,-1e-05,4,13
30241,1e-05,5e-05,3e-05,0.00042,-0.00089,-0.00056,-0.00016,-1e-05,4,13
30242,1e-05,5e-05,3e-05,0.00042,-0.00089,-0.00056,-0.00016,-1e-05,4,13
30243,1e-05,5e-05,3e-05,0.00042,-0.00089,-0.00056,-0.00016,-1e-05,4,13
30244,1e-05,5e-05,3e-05,0.00042,-0.00089,-0.00056,-0.00016,-1e-05,4,13
30245,1e-05,5e-05,3e-05,0.00042,-0.00089,-0.00056,-0.00016,-1e-05,4,13
30246,1e-05,5e-05,3e-05,0.00042,-0.00089,-0.00056,-0.00016,-1e-05,4,13
30247,1e-05,5e-05,3e-05,0.00042,-0.00089,-0.00056,-0.00016,-1e-05,4,13
30248,1e-05,5e-05,3e-05,0.00042,-0.00089,-0.00056,-0.00016,-1e-05,4,13
30249,-8e-05,-9e-05,-6e-05,-0.00013,-5e-05,-0.00016,7e-05,-2e-05,4,13
30250,-7e-05,-7e-05,-4e-05,7e-05,-0.00042,-0.00059,-0.00021,-0.00012,4,13
30251,8e-05,0.00011,8e-05,-0.00067,-0.00101,-8e-05,8e-05,8e-05,4,13
30252,8e-05,0.00011,8e-05,-0.00067,-0.00101,-8e-05,8e-05,8e-05,4,13
30253,8e-05,0.00011,8e-05,-0.00067,-0.00101,-8e-05,8e-05,8e-05,4,13
30254,8e-05,0.00011,8e-05,-0.00067,-0.00101,-8e-05,8e-05,8e-05,4,13
30255,8e-05,0.00011,8e-05,-0.00067,-0.00101,-8e-05,8e-05,8e-05,4,13
30256,8e-05,0.00011,8e-05,-0.00067,-0.00101,-8e-05,8e-05,8e-05,4,13
30257,8e-05,0.00011,8e-05,-0.00067,-0.00101,-8e-05,8e-05,8e-05,4,13
30258,8e-05,0.00011,8e-05,-0.00067,-0.00101,-8e-05,8e-05,8e-05,4,13
30259,8e-05,0.00011,8e-05,-0.00067,-0.00101,-8e-05,8e-05,8e-05,4,13
30260,8e-05,0.00011,8e-05,-0.00067,-0.00101,-8e-05,8e-05,8e-05,4,13
30261,8e-05,0.00011,8e-05,-0.00067,-0.00101,-8e-05,8e-05,8e-05,4,13
30262,8e-05,0.00011,8e-05,-0.00067,-0.00101,-8e-05,8e-05,8e-05,4,13
30263,8e-05,0.00011,8e-05,-0.00067,-0.00101,-8e-05,8e-05,8e-05,4,13
30264,8e-05,0.00011,8e-05,-0.00067,-0.00101,-8e-05,8e-05,8e-05,4,13
30265,8e-05,0.00011,8e-05,-0.00067,-0.00101,-8e-05,8e-05,8e-05,4,13
30266,8e-05,0.00011,8e-05,-0.00067,-0.00101,-8e-05,8e-05,8e-05,4,13
30267,8e-05,0.00011,8e-05,-0.00067,-0.00101,-8e-05,8e-05,8e-05,4,13
30268,8e-05,0.00011,8e-05,-0.00067,-0.00101,-8e-05,8e-05,8e-05,4,13
30269,8e-05,0.00011,8e-05,-0.00067,-0.00101,-8e-05,8e-05,8e-05,4,13
30270,8e-05,0.00011,8e-05,-0.00067,-0.00101,-8e-05,8e-05,8e-05,4,13
30271,8e-05,0.00011,8e-05,-0.00067,-0.00101,-8e-05,8e-05,8e-05,4,13
30272,8e-05,0.00011,8e-05,-0.00067,-0.00101,-8e-05,8e-05,8e-05,4,13
30273,8e-05,0.00011,8e-05,-0.00067,-0.00101,-8e-05,8e-05,8e-05,4,13
30274,8e-05,0.00011,8e-05,-0.00067,-0.00101,-8e-05,8e-05,8e-05,4,13
30275,8e-05,0.00011,8e-05,-0.00067,-0.00101,-8e-05,8e-05,8e-05,4,13
30276,8e-05,0.00011,8e-05,-0.00067,-0.00101,-8e-05,8e-05,8e-05,4,13
30277,8e-05,0.00011,8e-05,-0.00067,-0.00101,-8e-05,8e-05,8e-05,4,13
30278,8e-05,0.00011,8e-05,-0.00067,-0.00101,-8e-05,8e-05,8e-05,4,13
30279,6e-05,5e-05,-6e-05,-0.00053,-0.00049,0.00039,0.0001,8e-05,4,13
30280,6e-05,5e-05,-6e-05,-0.00053,-0.00049,0.00039,0.0001,8e-05,4,13
30281,-0.00013,-0.0003,-0.00073,-0.00045,-0.00056,1e-05,-0.0001,-0.0001,4,13
30282,-0.00013,-0.0003,-0.00073,-0.00045,-0.00056,1e-05,-0.0001,-0.0001,4,13
30283,-0.00013,-0.0003,-0.00073,-0.00045,-0.00056,1e-05,-0.0001,-0.0001,4,13
30284,-0.00013,-0.0003,-0.00073,-0.00045,-0.00056,1e-05,-0.0001,-0.0001,4,13
30285,-0.00013,-0.0003,-0.00073,-0.00045,-0.00056,1e-05,-0.0001,-0.0001,4,13
30286,-3e-05,6e-05,8e-05,0.00023,-0.00076,-0.00015,8e-05,3e-05,4,13
30288,-3e-05,6e-05,8e-05,0.00023,-0.00076,-0.00015,8e-05,3e-05,4,13
30289,-3e-05,6e-05,8e-05,0.00023,-0.00076,-0.00015,8e-05,3e-05,4,13
30290,-3e-05,6e-05,8e-05,0.00023,-0.00076,-0.00015,8e-05,3e-05,4,13
30291,-3e-05,6e-05,8e-05,0.00023,-0.00076,-0.00015,8e-05,3e-05,4,13
30292,-3e-05,6e-05,8e-05,0.00023,-0.00076,-0.00015,8e-05,3e-05,4,13
30293,-0.00011,-0.0001,-3e-05,0.00016,5e-05,-0.00012,-0.0001,-9e-05,4,13
30294,-0.00011,-0.0001,-3e-05,0.00016,5e-05,-0.00012,-0.0001,-9e-05,4,13
30295,-0.00011,-0.0001,-3e-05,0.00016,5e-05,-0.00012,-0.0001,-9e-05,4,13
30296,-0.00011,-0.0001,-3e-05,0.00016,5e-05,-0.00012,-0.0001,-9e-05,4,13
30297,-0.00011,-0.0001,-3e-05,0.00016,5e-05,-0.00012,-0.0001,-9e-05,4,13
30298,-0.00011,-0.0001,-3e-05,0.00016,5e-05,-0.00012,-0.0001,-9e-05,4,13
30299,-0.00011,-0.0001,-3e-05,0.00016,5e-05,-0.00012,-0.0001,-9e-05,4,13
30300,-0.00011,-0.0001,-3e-05,0.00016,5e-05,-0.00012,-0.0001,-9e-05,4,13
30301,-0.00011,-0.0001,-3e-05,0.00016,5e-05,-0.00012,-0.0001,-9e-05,4,13
30302,-0.00011,-0.0001,-3e-05,0.00016,5e-05,-0.00012,-0.0001,-9e-05,4,13
30303,-0.00011,-0.0001,-3e-05,0.00016,5e-05,-0.00012,-0.0001,-9e-05,4,13
30304,-0.00011,-0.0001,-3e-05,0.00016,5e-05,-0.00012,-0.0001,-9e-05,4,13
30305,-0.00011,-0.0001,-3e-05,0.00016,5e-05,-0.00012,-0.0001,-9e-05,4,13
30306,-0.00011,-0.0001,-3e-05,0.00016,5e-05,-0.00012,-0.0001,-9e-05,4,13
30307,-0.00011,-0.0001,-3e-05,0.00016,5e-05,-0.00012,-0.0001,-9e-05,4,13
30308,-0.00011,-0.0001,-3e-05,0.00016,5e-05,-0.00012,-0.0001,-9e-05,4,13
30309,-0.0001,-0.00013,-0.00037,-0.00059,-0.00042,-0.00023,-0.00014,-9e-05,4,13
30310,-0.0001,-0.00013,-0.00037,-0.00059,-0.00042,-0.00023,-0.00014,-9e-05,4,13
30311,-3e-05,2e-05,8e-05,0.00091,0.00112,-0.00032,-6e-05,-5e-05,4,13
30312,-3e-05,2e-05,8e-05,0.00091,0.00112,-0.00032,-6e-05,-5e-05,4,13
30313,-3e-05,2e-05,8e-05,0.00091,0.00112,-0.00032,-6e-05,-5e-05,4,13
30314,-3e-05,2e-05,8e-05,0.00091,0.00112,-0.00032,-6e-05,-5e-05,4,13
30315,-3e-05,2e-05,8e-05,0.00091,0.00112,-0.00032,-6e-05,-5e-05,4,13
30316,-3e-05,2e-05,8e-05,0.00091,0.00112,-0.00032,-6e-05,-5e-05,4,13
30317,-3e-05,2e-05,8e-05,0.00091,0.00112,-0.00032,-6e-05,-5e-05,4,13
30318,-3e-05,2e-05,8e-05,0.00091,0.00112,-0.00032,-6e-05,-5e-05,4,13
30319,-3e-05,2e-05,8e-05,0.00091,0.00112,-0.00032,-6e-05,-5e-05,4,13
30320,-3e-05,2e-05,8e-05,0.00091,0.00112,-0.00032,-6e-05,-5e-05,4,13
30321,-3e-05,2e-05,8e-05,0.00091,0.00112,-0.00032,-6e-05,-5e-05,4,13
30322,-3e-05,2e-05,8e-05,0.00091,0.00112,-0.00032,-6e-05,-5e-05,4,13
30323,-3e-05,2e-05,8e-05,0.00091,0.00112,-0.00032,-6e-05,-5e-05,4,13
30324,-3e-05,2e-05,8e-05,0.00091,0.00112,-0.00032,-6e-05,-5e-05,4,13
30325,-3e-05,2e-05,8e-05,0.00091,0.00112,-0.00032,-6e-05,-5e-05,4,13
30326,-3e-05,2e-05,8e-05,0.00091,0.00112,-0.00032,-6e-05,-5e-05,4,13
30327,-3e-05,2e-05,8e-05,0.00091,0.00112,-0.00032,-6e-05,-5e-05,4,13
30328,-3e-05,2e-05,8e-05,0.00091,0.00112,-0.00032,-6e-05,-5e-05,4,13
30329,-3e-05,2e-05,8e-05,0.00091,0.00112,-0.00032,-6e-05,-5e-05,4,13
30330,-3e-05,2e-05,8e-05,0.00091,0.00112,-0.00032,-6e-05,-5e-05,4,13
30331,5e-05,6e-05,0.00033,0,0.00054,0.00017,6e-05,6e-05,4,13
30332,8e-05,1e-05,3e-05,-0.0001,-0.00061,-0.00027,-9e-05,-1e-05,4,13
30333,0,8e-05,2e-05,-0.00017,2e-05,0.00027,0.0001,4e-05,4,13
30334,0,8e-05,2e-05,-0.00017,2e-05,0.00027,0.0001,4e-05,4,13
30335,0,8e-05,2e-05,-0.00017,2e-05,0.00027,0.0001,4e-05,4,13
30336,0,8e-05,2e-05,-0.00017,2e-05,0.00027,0.0001,4e-05,4,13
30338,0,8e-05,2e-05,-0.00017,2e-05,0.00027,0.0001,4e-05,4,13
30339,0,8e-05,2e-05,-0.00017,2e-05,0.00027,0.0001,4e-05,4,13
30340,0,8e-05,2e-05,-0.00017,2e-05,0.00027,0.0001,4e-05,4,13
30341,0,8e-05,2e-05,-0.00017,2e-05,0.00027,0.0001,4e-05,4,13
30342,0,8e-05,2e-05,-0.00017,2e-05,0.00027,0.0001,4e-05,4,13
30343,0,8e-05,2e-05,-0.00017,2e-05,0.00027,0.0001,4e-05,4,13
30344,0,8e-05,2e-05,-0.00017,2e-05,0.00027,0.0001,4e-05,4,13
30345,0,8e-05,2e-05,-0.00017,2e-05,0.00027,0.0001,4e-05,4,13
30346,5e-05,8e-05,7e-05,-0.00072,0.00048,0.00099,0.00025,5e-05,4,13
30347,5e-05,8e-05,7e-05,-0.00072,0.00048,0.00099,0.00025,5e-05,4,13
30348,5e-05,8e-05,7e-05,-0.00072,0.00048,0.00099,0.00025,5e-05,4,13
30349,5e-05,8e-05,7e-05,-0.00072,0.00048,0.00099,0.00025,5e-05,4,13
30350,5e-05,8e-05,7e-05,-0.00072,0.00048,0.00099,0.00025,5e-05,4,13
30351,5e-05,8e-05,7e-05,-0.00072,0.00048,0.00099,0.00025,5e-05,4,13
30352,-3e-05,-5e-05,-0.00015,0.00048,0.00028,0.00029,3e-05,-1e-05,4,13
30353,0.00011,0.00015,0.00036,-8e-05,-0.00092,-0.00025,-1e-05,5e-05,4,13
30354,0.00011,0.00015,0.00036,-8e-05,-0.00092,-0.00025,-1e-05,5e-05,4,13
30355,0.00011,0.00015,0.00036,-8e-05,-0.00092,-0.00025,-1e-05,5e-05,4,13
30357,0.00011,0.00015,0.00036,-8e-05,-0.00092,-0.00025,-1e-05,5e-05,4,13
30358,0.00011,0.00015,0.00036,-8e-05,-0.00092,-0.00025,-1e-05,5e-05,4,13
30359,0.00011,0.00015,0.00036,-8e-05,-0.00092,-0.00025,-1e-05,5e-05,4,13
30360,0.00011,0.00015,0.00036,-8e-05,-0.00092,-0.00025,-1e-05,5e-05,4,13
30361,0.00011,0.00015,0.00036,-8e-05,-0.00092,-0.00025,-1e-05,5e-05,4,13
30362,0.00011,0.00015,0.00036,-8e-05,-0.00092,-0.00025,-1e-05,5e-05,4,13
30363,0.00011,0.00015,0.00036,-8e-05,-0.00092,-0.00025,-1e-05,5e-05,4,13
30364,0.00011,0.00015,0.00036,-8e-05,-0.00092,-0.00025,-1e-05,5e-05,4,13
30365,0.00011,0.00015,0.00036,-8e-05,-0.00092,-0.00025,-1e-05,5e-05,4,13
30366,0.00011,0.00015,0.00036,-8e-05,-0.00092,-0.00025,-1e-05,5e-05,4,13
30367,0.00011,0.00015,0.00036,-8e-05,-0.00092,-0.00025,-1e-05,5e-05,4,13
30368,0.00011,0.00015,0.00036,-8e-05,-0.00092,-0.00025,-1e-05,5e-05,4,13
30369,-1e-05,-5e-05,-0.00011,-2e-05,1e-05,-0.0003,-5e-05,1e-05,4,13
30370,-8e-05,-7e-05,-5e-05,0.00044,0.00029,-0.00011,7e-05,1e-05,4,13
30371,3e-05,-5e-05,-0.00022,-0.00025,0.00071,0.00046,0,-1e-05,4,13
30372,3e-05,-5e-05,-0.00022,-0.00025,0.00071,0.00046,0,-1e-05,4,13
30373,3e-05,-5e-05,-0.00022,-0.00025,0.00071,0.00046,0,-1e-05,4,13
30374,3e-05,-5e-05,-0.00022,-0.00025,0.00071,0.00046,0,-1e-05,4,13
30375,3e-05,-5e-05,-0.00022,-0.00025,0.00071,0.00046,0,-1e-05,4,13
30376,3e-05,-5e-05,-0.00022,-0.00025,0.00071,0.00046,0,-1e-05,4,13
30377,3e-05,-5e-05,-0.00022,-0.00025,0.00071,0.00046,0,-1e-05,4,13
30378,3e-05,-5e-05,-0.00022,-0.00025,0.00071,0.00046,0,-1e-05,4,13
30379,3e-05,-5e-05,-0.00022,-0.00025,0.00071,0.00046,0,-1e-05,4,13
30380,3e-05,-5e-05,-0.00022,-0.00025,0.00071,0.00046,0,-1e-05,4,13
30381,3e-05,-5e-05,-0.00022,-0.00025,0.00071,0.00046,0,-1e-05,4,13
30382,3e-05,-5e-05,-0.00022,-0.00025,0.00071,0.00046,0,-1e-05,4,13
30383,3e-05,-5e-05,-0.00022,-0.00025,0.00071,0.00046,0,-1e-05,4,13
30384,3e-05,-5e-05,-0.00022,-0.00025,0.00071,0.00046,0,-1e-05,4,13
30385,3e-05,-5e-05,-0.00022,-0.00025,0.00071,0.00046,0,-1e-05,4,13
30386,3e-05,-5e-05,-0.00022,-0.00025,0.00071,0.00046,0,-1e-05,4,13
30388,3e-05,-5e-05,-0.00022,-0.00025,0.00071,0.00046,0,-1e-05,4,13
30389,3e-05,-5e-05,-0.00022,-0.00025,0.00071,0.00046,0,-1e-05,4,13
30390,3e-05,-5e-05,-0.00022,-0.00025,0.00071,0.00046,0,-1e-05,4,13
30391,-5e-05,-9e-05,-0.00015,0.00057,0.00012,0.00017,3e-05,-6e-05,4,13
30392,-5e-05,-9e-05,-0.00015,0.00057,0.00012,0.00017,3e-05,-6e-05,4,13
30393,-6e-05,-6e-05,-0.00026,-0.00042,-0.00046,-0.00027,-0.00014,-3e-05,4,13
30394,-6e-05,-6e-05,-0.00026,-0.00042,-0.00046,-0.00027,-0.00014,-3e-05,4,13
30395,-6e-05,-6e-05,-0.00026,-0.00042,-0.00046,-0.00027,-0.00014,-3e-05,4,13
30396,-6e-05,-6e-05,-0.00026,-0.00042,-0.00046,-0.00027,-0.00014,-3e-05,4,13
30397,-6e-05,-6e-05,-0.00026,-0.00042,-0.00046,-0.00027,-0.00014,-3e-05,4,13
30398,-6e-05,-6e-05,-0.00026,-0.00042,-0.00046,-0.00027,-0.00014,-3e-05,4,13
30399,-6e-05,-6e-05,-0.00026,-0.00042,-0.00046,-0.00027,-0.00014,-3e-05,4,13
30400,-6e-05,-6e-05,-0.00026,-0.00042,-0.00046,-0.00027,-0.00014,-3e-05,4,13
30401,-6e-05,-6e-05,-0.00026,-0.00042,-0.00046,-0.00027,-0.00014,-3e-05,4,13
30402,-6e-05,-6e-05,-0.00026,-0.00042,-0.00046,-0.00027,-0.00014,-3e-05,4,13
30403,-6e-05,-6e-05,-0.00026,-0.00042,-0.00046,-0.00027,-0.00014,-3e-05,4,13
30404,-6e-05,-6e-05,-0.00026,-0.00042,-0.00046,-0.00027,-0.00014,-3e-05,4,13
30405,-6e-05,-6e-05,-0.00026,-0.00042,-0.00046,-0.00027,-0.00014,-3e-05,4,13
30406,-8e-05,-9e-05,-0.00015,-0.00016,1e-05,-0.00042,-0.00012,-9e-05,4,13
30407,-8e-05,-9e-05,-0.00015,-0.00016,1e-05,-0.00042,-0.00012,-9e-05,4,13
30408,-8e-05,-9e-05,-0.00015,-0.00016,1e-05,-0.00042,-0.00012,-9e-05,4,13
30409,-8e-05,-9e-05,-0.00015,-0.00016,1e-05,-0.00042,-0.00012,-9e-05,4,13
30410,-8e-05,-9e-05,-0.00015,-0.00016,1e-05,-0.00042,-0.00012,-9e-05,4,13
30411,-8e-05,-9e-05,-0.00015,-0.00016,1e-05,-0.00042,-0.00012,-9e-05,4,13
30412,-8e-05,-9e-05,-0.00015,-0.00016,1e-05,-0.00042,-0.00012,-9e-05,4,13
30413,4e-05,-4e-05,2e-05,-7e-05,-0.00027,4e-05,7e-05,3e-05,4,13
30414,4e-05,-4e-05,2e-05,-7e-05,-0.00027,4e-05,7e-05,3e-05,4,13
30415,4e-05,-4e-05,2e-05,-7e-05,-0.00027,4e-05,7e-05,3e-05,4,13
30416,4e-05,-4e-05,2e-05,-7e-05,-0.00027,4e-05,7e-05,3e-05,4,13
30417,4e-05,-4e-05,2e-05,-7e-05,-0.00027,4e-05,7e-05,3e-05,4,13
30418,4e-05,-4e-05,2e-05,-7e-05,-0.00027,4e-05,7e-05,3e-05,4,13
30419,4e-05,-4e-05,2e-05,-7e-05,-0.00027,4e-05,7e-05,3e-05,4,13
30420,4e-05,-4e-05,2e-05,-7e-05,-0.00027,4e-05,7e-05,3e-05,4,13
30421,4e-05,-4e-05,2e-05,-7e-05,-0.00027,4e-05,7e-05,3e-05,4,13
30422,4e-05,-4e-05,2e-05,-7e-05,-0.00027,4e-05,7e-05,3e-05,4,13
30423,4e-05,-4e-05,2e-05,-7e-05,-0.00027,4e-05,7e-05,3e-05,4,13
30424,4e-05,-4e-05,2e-05,-7e-05,-0.00027,4e-05,7e-05,3e-05,4,13
30425,4e-05,-4e-05,2e-05,-7e-05,-0.00027,4e-05,7e-05,3e-05,4,13
30426,4e-05,-4e-05,2e-05,-7e-05,-0.00027,4e-05,7e-05,3e-05,4,13
30427,4e-05,-4e-05,2e-05,-7e-05,-0.00027,4e-05,7e-05,3e-05,4,13
30428,4e-05,-4e-05,2e-05,-7e-05,-0.00027,4e-05,7e-05,3e-05,4,13
30429,4e-05,-4e-05,2e-05,-7e-05,-0.00027,4e-05,7e-05,3e-05,4,13
30430,4e-05,-4e-05,2e-05,-7e-05,-0.00027,4e-05,7e-05,3e-05,4,13
30431,4e-05,-4e-05,2e-05,-7e-05,-0.00027,4e-05,7e-05,3e-05,4,13
30432,4e-05,-4e-05,2e-05,-7e-05,-0.00027,4e-05,7e-05,3e-05,4,13
30433,4e-05,-4e-05,2e-05,-7e-05,-0.00027,4e-05,7e-05,3e-05,4,13
30434,4e-05,-4e-05,2e-05,-7e-05,-0.00027,4e-05,7e-05,3e-05,4,13
30435,4e-05,-4e-05,2e-05,-7e-05,-0.00027,4e-05,7e-05,3e-05,4,13
30436,4e-05,-4e-05,2e-05,-7e-05,-0.00027,4e-05,7e-05,3e-05,4,13
30438,0,2e-05,8e-05,6e-05,-6e-05,-0.00013,-0.00011,-1e-05,4,13
30439,7e-05,0.0001,-4e-05,-0.00074,0.00028,0.0001,0.00011,7e-05,4,13
30440,7e-05,0.0001,-4e-05,-0.00074,0.00028,0.0001,0.00011,7e-05,4,13
30441,7e-05,0.0001,-4e-05,-0.00074,0.00028,0.0001,0.00011,7e-05,4,13
30442,7e-05,0.0001,-4e-05,-0.00074,0.00028,0.0001,0.00011,7e-05,4,13
30443,7e-05,0.0001,-4e-05,-0.00074,0.00028,0.0001,0.00011,7e-05,4,13
30444,7e-05,0.0001,-4e-05,-0.00074,0.00028,0.0001,0.00011,7e-05,4,13
30445,7e-05,0.0001,-4e-05,-0.00074,0.00028,0.0001,0.00011,7e-05,4,13
30446,7e-05,0.0001,-4e-05,-0.00074,0.00028,0.0001,0.00011,7e-05,4,13
30447,7e-05,0.0001,-4e-05,-0.00074,0.00028,0.0001,0.00011,7e-05,4,13
30448,7e-05,0.0001,-4e-05,-0.00074,0.00028,0.0001,0.00011,7e-05,4,13
30449,7e-05,0.0001,-4e-05,-0.00074,0.00028,0.0001,0.00011,7e-05,4,13
30450,7e-05,0.0001,-4e-05,-0.00074,0.00028,0.0001,0.00011,7e-05,4,13
30451,3e-05,-1e-05,7e-05,0.00079,0,0.00023,-4e-05,6e-05,4,13
30452,3e-05,-1e-05,7e-05,0.00079,0,0.00023,-4e-05,6e-05,4,13
30453,-0.00011,-0.00014,6e-05,9e-05,0.00027,-8e-05,-7e-05,-8e-05,4,13
30454,-0.00011,-0.00014,6e-05,9e-05,0.00027,-8e-05,-7e-05,-8e-05,4,13
30455,-0.00011,-0.00014,6e-05,9e-05,0.00027,-8e-05,-7e-05,-8e-05,4,13
30456,-0.00011,-0.00014,6e-05,9e-05,0.00027,-8e-05,-7e-05,-8e-05,4,13
30457,-0.00011,-0.00014,6e-05,9e-05,0.00027,-8e-05,-7e-05,-8e-05,4,13
30458,-0.00011,-0.00014,6e-05,9e-05,0.00027,-8e-05,-7e-05,-8e-05,4,13
30459,-0.00011,-0.00014,6e-05,9e-05,0.00027,-8e-05,-7e-05,-8e-05,4,13
30460,-0.00011,-0.00014,6e-05,9e-05,0.00027,-8e-05,-7e-05,-8e-05,4,13
30461,-0.00011,-0.00014,6e-05,9e-05,0.00027,-8e-05,-7e-05,-8e-05,4,13
30462,-0.00011,-0.00014,6e-05,9e-05,0.00027,-8e-05,-7e-05,-8e-05,4,13
30463,-0.00011,-0.00014,6e-05,9e-05,0.00027,-8e-05,-7e-05,-8e-05,4,13
30464,-0.00011,-0.00014,6e-05,9e-05,0.00027,-8e-05,-7e-05,-8e-05,4,13
30465,-0.00011,-0.00014,6e-05,9e-05,0.00027,-8e-05,-7e-05,-8e-05,4,13
30466,0,1e-05,0.0001,-0.00026,-0.00067,8e-05,3e-05,-3e-05,4,13
30467,0,1e-05,0.0001,-0.00026,-0.00067,8e-05,3e-05,-3e-05,4,13
30468,0,1e-05,0.0001,-0.00026,-0.00067,8e-05,3e-05,-3e-05,4,13
30469,0,1e-05,0.0001,-0.00026,-0.00067,8e-05,3e-05,-3e-05,4,13
30470,0,1e-05,0.0001,-0.00026,-0.00067,8e-05,3e-05,-3e-05,4,13
30471,0,1e-05,0.0001,-0.00026,-0.00067,8e-05,3e-05,-3e-05,4,13
30472,-5e-05,-9e-05,-0.00022,-0.00021,-0.00029,4e-05,6e-05,1e-05,4,13
30473,-5e-05,-8e-05,1e-05,0.00027,-0.00051,-0.00049,-4e-05,-3e-05,4,13
30474,-5e-05,-8e-05,1e-05,0.00027,-0.00051,-0.00049,-4e-05,-3e-05,4,13
30475,-5e-05,-8e-05,1e-05,0.00027,-0.00051,-0.00049,-4e-05,-3e-05,4,13
30476,-5e-05,-8e-05,1e-05,0.00027,-0.00051,-0.00049,-4e-05,-3e-05,4,13
30477,-5e-05,-8e-05,1e-05,0.00027,-0.00051,-0.00049,-4e-05,-3e-05,4,13
30478,-5e-05,-8e-05,1e-05,0.00027,-0.00051,-0.00049,-4e-05,-3e-05,4,13
30479,-5e-05,-8e-05,1e-05,0.00027,-0.00051,-0.00049,-4e-05,-3e-05,4,13
30480,-5e-05,-8e-05,1e-05,0.00027,-0.00051,-0.00049,-4e-05,-3e-05,4,13
30481,-5e-05,-8e-05,1e-05,0.00027,-0.00051,-0.00049,-4e-05,-3e-05,4,13
30482,-5e-05,-8e-05,1e-05,0.00027,-0.00051,-0.00049,-4e-05,-3e-05,4,13
30483,-5e-05,-8e-05,1e-05,0.00027,-0.00051,-0.00049,-4e-05,-3e-05,4,13
30484,-5e-05,-8e-05,1e-05,0.00027,-0.00051,-0.00049,-4e-05,-3e-05,4,13
30485,-5e-05,-8e-05,1e-05,0.00027,-0.00051,-0.00049,-4e-05,-3e-05,4,13
30486,-5e-05,-8e-05,1e-05,0.00027,-0.00051,-0.00049,-4e-05,-3e-05,4,13
30488,-5e-05,-8e-05,1e-05,0.00027,-0.00051,-0.00049,-4e-05,-3e-05,4,13
30489,-5e-05,-8e-05,1e-05,0.00027,-0.00051,-0.00049,-4e-05,-3e-05,4,13
30490,-5e-05,-8e-05,1e-05,0.00027,-0.00051,-0.00049,-4e-05,-3e-05,4,13
30491,-5e-05,-8e-05,1e-05,0.00027,-0.00051,-0.00049,-4e-05,-3e-05,4,13
30492,-5e-05,-8e-05,1e-05,0.00027,-0.00051,-0.00049,-4e-05,-3e-05,4,13
30493,-5e-05,-8e-05,1e-05,0.00027,-0.00051,-0.00049,-4e-05,-3e-05,4,13
30494,-5e-05,-8e-05,1e-05,0.00027,-0.00051,-0.00049,-4e-05,-3e-05,4,13
30495,-5e-05,-8e-05,1e-05,0.00027,-0.00051,-0.00049,-4e-05,-3e-05,4,13
30496,-5e-05,-8e-05,1e-05,0.00027,-0.00051,-0.00049,-4e-05,-3e-05,4,13
30497,-5e-05,-8e-05,1e-05,0.00027,-0.00051,-0.00049,-4e-05,-3e-05,4,13
30498,6e-05,5e-05,-8e-05,-0.00039,0,-0.00034,-6e-05,-1e-05,4,13
30499,-1e-05,-5e-05,-0.00036,-0.00058,-3e-05,0.00015,9e-05,-2e-05,4,13
30500,-1e-05,-5e-05,-0.00036,-0.00058,-3e-05,0.00015,9e-05,-2e-05,4,13
30501,-1e-05,-5e-05,-0.00036,-0.00058,-3e-05,0.00015,9e-05,-2e-05,4,13
30502,-1e-05,-5e-05,-0.00036,-0.00058,-3e-05,0.00015,9e-05,-2e-05,4,13
30503,-1e-05,-5e-05,-0.00036,-0.00058,-3e-05,0.00015,9e-05,-2e-05,4,13
30504,-1e-05,-5e-05,-0.00036,-0.00058,-3e-05,0.00015,9e-05,-2e-05,4,13
30505,-1e-05,-5e-05,-0.00036,-0.00058,-3e-05,0.00015,9e-05,-2e-05,4,13
30506,-1e-05,-5e-05,-0.00036,-0.00058,-3e-05,0.00015,9e-05,-2e-05,4,13
30507,-1e-05,-5e-05,-0.00036,-0.00058,-3e-05,0.00015,9e-05,-2e-05,4,13
30508,-1e-05,-5e-05,-0.00036,-0.00058,-3e-05,0.00015,9e-05,-2e-05,4,13
30509,-1e-05,-5e-05,-0.00036,-0.00058,-3e-05,0.00015,9e-05,-2e-05,4,13
30510,-1e-05,-5e-05,-0.00036,-0.00058,-3e-05,0.00015,9e-05,-2e-05,4,13
30511,-1e-05,-5e-05,-0.00036,-0.00058,-3e-05,0.00015,9e-05,-2e-05,4,13
30512,-2e-05,-4e-05,0.00017,-0.00012,-0.00048,0.00035,-1e-05,-3e-05,4,13
30513,-2e-05,-4e-05,0.00017,-0.00012,-0.00048,0.00035,-1e-05,-3e-05,4,13
30514,-2e-05,-4e-05,0.00017,-0.00012,-0.00048,0.00035,-1e-05,-3e-05,4,13
30515,-2e-05,-4e-05,0.00017,-0.00012,-0.00048,0.00035,-1e-05,-3e-05,4,13
30516,-2e-05,-4e-05,0.00017,-0.00012,-0.00048,0.00035,-1e-05,-3e-05,4,13
30517,-2e-05,-4e-05,0.00017,-0.00012,-0.00048,0.00035,-1e-05,-3e-05,4,13
30518,-2e-05,-4e-05,0.00017,-0.00012,-0.00048,0.00035,-1e-05,-3e-05,4,13
30519,-2e-05,-4e-05,0.00017,-0.00012,-0.00048,0.00035,-1e-05,-3e-05,4,13
30520,-2e-05,-4e-05,0.00017,-0.00012,-0.00048,0.00035,-1e-05,-3e-05,4,13
30521,-2e-05,-4e-05,0.00017,-0.00012,-0.00048,0.00035,-1e-05,-3e-05,4,13
30522,-2e-05,-4e-05,0.00017,-0.00012,-0.00048,0.00035,-1e-05,-3e-05,4,13
30523,-2e-05,-4e-05,0.00017,-0.00012,-0.00048,0.00035,-1e-05,-3e-05,4,13
30524,-2e-05,-4e-05,0.00017,-0.00012,-0.00048,0.00035,-1e-05,-3e-05,4,13
30525,-2e-05,-4e-05,0.00017,-0.00012,-0.00048,0.00035,-1e-05,-3e-05,4,13
30526,-2e-05,-4e-05,0.00017,-0.00012,-0.00048,0.00035,-1e-05,-3e-05,4,13
30527,-2e-05,-7e-05,-0.00018,-0.00072,-0.00044,0.00012,-0.00015,-7e-05,4,13
30528,0,0,-0.00021,-0.00023,0.00032,-0.00037,-3e-05,1e-05,4,13
30529,0,0,-0.00021,-0.00023,0.00032,-0.00037,-3e-05,1e-05,4,13
30530,0,0,-0.00021,-0.00023,0.00032,-0.00037,-3e-05,1e-05,4,13
30531,0,0,-0.00021,-0.00023,0.00032,-0.00037,-3e-05,1e-05,4,13
30532,4e-05,0.00013,0.00026,0.00031,0.00041,0.00058,9e-05,0,4,13
30533,-3e-05,5e-05,7e-05,6e-05,-0.00038,-0.00016,-7e-05,-2e-05,4,13
30534,-3e-05,5e-05,7e-05,6e-05,-0.00038,-0.00016,-7e-05,-2e-05,4,13
30535,-3e-05,5e-05,7e-05,6e-05,-0.00038,-0.00016,-7e-05,-2e-05,4,13
30536,-3e-05,5e-05,7e-05,6e-05,-0.00038,-0.00016,-7e-05,-2e-05,4,13
30538,-3e-05,5e-05,7e-05,6e-05,-0.00038,-0.00016,-7e-05,-2e-05,4,13
30539,-3e-05,5e-05,7e-05,6e-05,-0.00038,-0.00016,-7e-05,-2e-05,4,13
30540,-3e-05,5e-05,7e-05,6e-05,-0.00038,-0.00016,-7e-05,-2e-05,4,13
30541,-3e-05,5e-05,7e-05,6e-05,-0.00038,-0.00016,-7e-05,-2e-05,4,13
30542,-3e-05,5e-05,7e-05,6e-05,-0.00038,-0.00016,-7e-05,-2e-05,4,13
30543,-3e-05,5e-05,7e-05,6e-05,-0.00038,-0.00016,-7e-05,-2e-05,4,13
30544,-3e-05,5e-05,7e-05,6e-05,-0.00038,-0.00016,-7e-05,-2e-05,4,13
30545,-3e-05,5e-05,7e-05,6e-05,-0.00038,-0.00016,-7e-05,-2e-05,4,13
30546,-3e-05,5e-05,7e-05,6e-05,-0.00038,-0.00016,-7e-05,-2e-05,4,13
30547,-3e-05,5e-05,7e-05,6e-05,-0.00038,-0.00016,-7e-05,-2e-05,4,13
30548,-3e-05,5e-05,7e-05,6e-05,-0.00038,-0.00016,-7e-05,-2e-05,4,13
30549,-3e-05,5e-05,7e-05,6e-05,-0.00038,-0.00016,-7e-05,-2e-05,4,13
30550,-3e-05,5e-05,7e-05,6e-05,-0.00038,-0.00016,-7e-05,-2e-05,4,13
30551,-3e-05,5e-05,7e-05,6e-05,-0.00038,-0.00016,-7e-05,-2e-05,4,13
30552,-3e-05,5e-05,7e-05,6e-05,-0.00038,-0.00016,-7e-05,-2e-05,4,13
30553,-3e-05,5e-05,7e-05,6e-05,-0.00038,-0.00016,-7e-05,-2e-05,4,13
30554,-3e-05,5e-05,7e-05,6e-05,-0.00038,-0.00016,-7e-05,-2e-05,4,13
30555,-3e-05,5e-05,7e-05,6e-05,-0.00038,-0.00016,-7e-05,-2e-05,4,13
30556,-1e-05,-0.0001,-0.00024,-0.00046,-0.0007,-0.00016,-6e-05,-3e-05,4,13
30557,0,3e-05,0.00025,-9e-05,-0.00081,0.00047,-1e-05,2e-05,4,13
30558,0.0001,0.00013,0.00018,0.00045,0.0006,-0.00029,4e-05,6e-05,4,13
30559,0.0001,0.00013,0.00018,0.00045,0.0006,-0.00029,4e-05,6e-05,4,13
30560,0.0001,0.00013,0.00018,0.00045,0.0006,-0.00029,4e-05,6e-05,4,13
30561,0.0001,0.00013,0.00018,0.00045,0.0006,-0.00029,4e-05,6e-05,4,13
30562,0.0001,0.00013,0.00018,0.00045,0.0006,-0.00029,4e-05,6e-05,4,13
30563,0.0001,0.00013,0.00018,0.00045,0.0006,-0.00029,4e-05,6e-05,4,13
30564,0.0001,0.00013,0.00018,0.00045,0.0006,-0.00029,4e-05,6e-05,4,13
30565,0.0001,0.00013,0.00018,0.00045,0.0006,-0.00029,4e-05,6e-05,4,13
30566,0.0001,0.00013,0.00018,0.00045,0.0006,-0.00029,4e-05,6e-05,4,13
30567,0.0001,0.00013,0.00018,0.00045,0.0006,-0.00029,4e-05,6e-05,4,13
30568,0.0001,0.00013,0.00018,0.00045,0.0006,-0.00029,4e-05,6e-05,4,13
30569,0.0001,0.00013,0.00018,0.00045,0.0006,-0.00029,4e-05,6e-05,4,13
30570,0.0001,0.00013,0.00018,0.00045,0.0006,-0.00029,4e-05,6e-05,4,13
30571,3e-05,1e-05,4e-05,-0.00011,-0.00051,-0.0001,2e-05,-2e-05,4,13
30572,5e-05,0.00011,0.00013,0.00011,0.00125,0.00063,0.00021,0.00011,4,13
30573,0,3e-05,0.00016,0.00016,-0.00109,1e-05,-3e-05,1e-05,4,13
30574,0,3e-05,0.00016,0.00016,-0.00109,1e-05,-3e-05,1e-05,4,13
30575,0,3e-05,0.00016,0.00016,-0.00109,1e-05,-3e-05,1e-05,4,13
30576,0,3e-05,0.00016,0.00016,-0.00109,1e-05,-3e-05,1e-05,4,13
30577,0,3e-05,0.00016,0.00016,-0.00109,1e-05,-3e-05,1e-05,4,13
30578,0,3e-05,0.00016,0.00016,-0.00109,1e-05,-3e-05,1e-05,4,13
30579,0,3e-05,0.00016,0.00016,-0.00109,1e-05,-3e-05,1e-05,4,13
30580,0,3e-05,0.00016,0.00016,-0.00109,1e-05,-3e-05,1e-05,4,13
30581,0,3e-05,0.00016,0.00016,-0.00109,1e-05,-3e-05,1e-05,4,13
30582,0,3e-05,0.00016,0.00016,-0.00109,1e-05,-3e-05,1e-05,4,13
30583,0,3e-05,0.00016,0.00016,-0.00109,1e-05,-3e-05,1e-05,4,13
30584,0,3e-05,0.00016,0.00016,-0.00109,1e-05,-3e-05,1e-05,4,13
30585,0,3e-05,0.00016,0.00016,-0.00109,1e-05,-3e-05,1e-05,4,13
30587,0.0001,6e-05,2e-05,-0.0002,0.00036,0.00024,9e-05,9e-05,4,13
30589,0.0001,6e-05,2e-05,-0.0002,0.00036,0.00024,9e-05,9e-05,4,13
30590,0.0001,6e-05,2e-05,-0.0002,0.00036,0.00024,9e-05,9e-05,4,13
30591,0.0001,6e-05,2e-05,-0.0002,0.00036,0.00024,9e-05,9e-05,4,13
30592,0.0001,6e-05,2e-05,-0.0002,0.00036,0.00024,9e-05,9e-05,4,13
30593,-1e-05,-8e-05,-0.0001,0.00016,0.00127,3e-05,4e-05,-4e-05,4,13
30594,-1e-05,-8e-05,-0.0001,0.00016,0.00127,3e-05,4e-05,-4e-05,4,13
30595,-1e-05,-8e-05,-0.0001,0.00016,0.00127,3e-05,4e-05,-4e-05,4,13
30596,-1e-05,-8e-05,-0.0001,0.00016,0.00127,3e-05,4e-05,-4e-05,4,13
30597,-1e-05,-8e-05,-0.0001,0.00016,0.00127,3e-05,4e-05,-4e-05,4,13
30598,-1e-05,-8e-05,-0.0001,0.00016,0.00127,3e-05,4e-05,-4e-05,4,13
30599,-1e-05,-8e-05,-0.0001,0.00016,0.00127,3e-05,4e-05,-4e-05,4,13
30600,-1e-05,-8e-05,-0.0001,0.00016,0.00127,3e-05,4e-05,-4e-05,4,13
30601,-1e-05,-8e-05,-0.0001,0.00016,0.00127,3e-05,4e-05,-4e-05,4,13
30602,-1e-05,-8e-05,-0.0001,0.00016,0.00127,3e-05,4e-05,-4e-05,4,13
30603,-1e-05,-8e-05,-0.0001,0.00016,0.00127,3e-05,4e-05,-4e-05,4,13
30604,-1e-05,-8e-05,-0.0001,0.00016,0.00127,3e-05,4e-05,-4e-05,4,13
30605,-1e-05,-8e-05,-0.0001,0.00016,0.00127,3e-05,4e-05,-4e-05,4,13
30606,-1e-05,-8e-05,-0.0001,0.00016,0.00127,3e-05,4e-05,-4e-05,4,13
30607,-1e-05,-8e-05,-0.0001,0.00016,0.00127,3e-05,4e-05,-4e-05,4,13
30608,-1e-05,-8e-05,-0.0001,0.00016,0.00127,3e-05,4e-05,-4e-05,4,13
30609,-8e-05,-4e-05,-0.0002,-0.00074,-7e-05,0.00051,-1e-05,-3e-05,4,13
30610,-6e-05,-0.00017,-0.00025,-8e-05,0,-0.00035,-6e-05,-4e-05,4,13
30611,-6e-05,-0.00017,-0.00025,-8e-05,0,-0.00035,-6e-05,-4e-05,4,13
30612,-6e-05,-0.00017,-0.00025,-8e-05,0,-0.00035,-6e-05,-4e-05,4,13
30613,-6e-05,-0.00017,-0.00025,-8e-05,0,-0.00035,-6e-05,-4e-05,4,13
30614,-6e-05,-0.00017,-0.00025,-8e-05,0,-0.00035,-6e-05,-4e-05,4,13
30615,-1e-05,0,1e-05,6e-05,-0.00054,-0.00032,1e-05,0,4,13
30616,-1e-05,0,1e-05,6e-05,-0.00054,-0.00032,1e-05,0,4,13
30617,-1e-05,0,1e-05,6e-05,-0.00054,-0.00032,1e-05,0,4,13
30618,-1e-05,0,1e-05,6e-05,-0.00054,-0.00032,1e-05,0,4,13
30619,-1e-05,0,1e-05,6e-05,-0.00054,-0.00032,1e-05,0,4,13
30620,-1e-05,0,1e-05,6e-05,-0.00054,-0.00032,1e-05,0,4,13
30621,-1e-05,0,1e-05,6e-05,-0.00054,-0.00032,1e-05,0,4,13
30622,-1e-05,0,1e-05,6e-05,-0.00054,-0.00032,1e-05,0,4,13
30623,-1e-05,0,1e-05,6e-05,-0.00054,-0.00032,1e-05,0,4,13
30624,-1e-05,0,1e-05,6e-05,-0.00054,-0.00032,1e-05,0,4,13
30625,-1e-05,0,1e-05,6e-05,-0.00054,-0.00032,1e-05,0,4,13
30626,-1e-05,0,1e-05,6e-05,-0.00054,-0.00032,1e-05,0,4,13
30627,-1e-05,0,1e-05,6e-05,-0.00054,-0.00032,1e-05,0,4,13
30628,-1e-05,0,1e-05,6e-05,-0.00054,-0.00032,1e-05,0,4,13
30629,-1e-05,0,1e-05,6e-05,-0.00054,-0.00032,1e-05,0,4,13
30630,-1e-05,0,1e-05,6e-05,-0.00054,-0.00032,1e-05,0,4,13
30631,6e-05,7e-05,0.00016,0,-0.00024,-0.00023,2e-05,1e-05,4,13
30632,6e-05,7e-05,0.00016,0,-0.00024,-0.00023,2e-05,1e-05,4,13
30633,3e-05,-3e-05,5e-05,0.00057,0.00029,-0.00024,-0.00014,-2e-05,4,13
30634,3e-05,-3e-05,5e-05,0.00057,0.00029,-0.00024,-0.00014,-2e-05,4,13
30635,3e-05,-3e-05,5e-05,0.00057,0.00029,-0.00024,-0.00014,-2e-05,4,13
30636,3e-05,-3e-05,5e-05,0.00057,0.00029,-0.00024,-0.00014,-2e-05,4,13
30639,3e-05,-3e-05,5e-05,0.00057,0.00029,-0.00024,-0.00014,-2e-05,4,13
30640,3e-05,-3e-05,5e-05,0.00057,0.00029,-0.00024,-0.00014,-2e-05,4,13
30641,3e-05,-3e-05,5e-05,0.00057,0.00029,-0.00024,-0.00014,-2e-05,4,13
30642,3e-05,-3e-05,5e-05,0.00057,0.00029,-0.00024,-0.00014,-2e-05,4,13
30643,3e-05,-3e-05,5e-05,0.00057,0.00029,-0.00024,-0.00014,-2e-05,4,13
30644,3e-05,-3e-05,5e-05,0.00057,0.00029,-0.00024,-0.00014,-2e-05,4,13
30645,-0.00011,-9e-05,-0.00014,-0.0001,0.00047,0.00019,-7e-05,-0.0001,4,13
30646,-0.00011,-9e-05,-0.00014,-0.0001,0.00047,0.00019,-7e-05,-0.0001,4,13
30647,-0.00011,-9e-05,-0.00014,-0.0001,0.00047,0.00019,-7e-05,-0.0001,4,13
30648,-0.00011,-9e-05,-0.00014,-0.0001,0.00047,0.00019,-7e-05,-0.0001,4,13
30649,-0.00011,-9e-05,-0.00014,-0.0001,0.00047,0.00019,-7e-05,-0.0001,4,13
30650,-0.00011,-9e-05,-0.00014,-0.0001,0.00047,0.00019,-7e-05,-0.0001,4,13
30651,-0.00011,-9e-05,-0.00014,-0.0001,0.00047,0.00019,-7e-05,-0.0001,4,13
30652,-0.00011,-9e-05,-0.00014,-0.0001,0.00047,0.00019,-7e-05,-0.0001,4,13
30653,-0.00011,-9e-05,-0.00014,-0.0001,0.00047,0.00019,-7e-05,-0.0001,4,13
30654,-3e-05,4e-05,-1e-05,-0.00027,-0.00036,-0.00015,-1e-05,-1e-05,4,13
30655,-3e-05,4e-05,-1e-05,-0.00027,-0.00036,-0.00015,-1e-05,-1e-05,4,13
30656,-3e-05,4e-05,-1e-05,-0.00027,-0.00036,-0.00015,-1e-05,-1e-05,4,13
30657,-3e-05,4e-05,-1e-05,-0.00027,-0.00036,-0.00015,-1e-05,-1e-05,4,13
30658,-3e-05,4e-05,-1e-05,-0.00027,-0.00036,-0.00015,-1e-05,-1e-05,4,13
30659,-3e-05,4e-05,-1e-05,-0.00027,-0.00036,-0.00015,-1e-05,-1e-05,4,13
30660,-3e-05,4e-05,-1e-05,-0.00027,-0.00036,-0.00015,-1e-05,-1e-05,4,13
30661,-3e-05,4e-05,-1e-05,-0.00027,-0.00036,-0.00015,-1e-05,-1e-05,4,13
30662,-3e-05,4e-05,-1e-05,-0.00027,-0.00036,-0.00015,-1e-05,-1e-05,4,13
30663,-3e-05,4e-05,-1e-05,-0.00027,-0.00036,-0.00015,-1e-05,-1e-05,4,13
