15358,-5e-05,-1e-05,4e-05,0,-6e-05,-0.00015,-5e-05,-4e-05,4,16
15360,-5e-05,-1e-05,4e-05,0,-6e-05,-0.00015,-5e-05,-4e-05,4,16
15361,-5e-05,-1e-05,4e-05,0,-6e-05,-0.00015,-5e-05,-4e-05,4,16
15362,-5e-05,-1e-05,4e-05,0,-6e-05,-0.00015,-5e-05,-4e-05,4,16
15363,-5e-05,-1e-05,4e-05,0,-6e-05,-0.00015,-5e-05,-4e-05,4,16
15364,-5e-05,-1e-05,4e-05,0,-6e-05,-0.00015,-5e-05,-4e-05,4,16
15365,-5e-05,-1e-05,4e-05,0,-6e-05,-0.00015,-5e-05,-4e-05,4,16
15366,-5e-05,-1e-05,4e-05,0,-6e-05,-0.00015,-5e-05,-4e-05,4,16
15367,-5e-05,-1e-05,4e-05,0,-6e-05,-0.00015,-5e-05,-4e-05,4,16
15368,-5e-05,-1e-05,4e-05,0,-6e-05,-0.00015,-5e-05,-4e-05,4,16
15369,-5e-05,-1e-05,4e-05,0,-6e-05,-0.00015,-5e-05,-4e-05,4,16
15370,-5e-05,-1e-05,4e-05,0,-6e-05,-0.00015,-5e-05,-4e-05,4,16
15371,-5e-05,-1e-05,4e-05,0,-6e-05,-0.00015,-5e-05,-4e-05,4,16
15372,-5e-05,-1e-05,4e-05,0,-6e-05,-0.00015,-5e-05,-4e-05,4,16
15373,-5e-05,-1e-05,4e-05,0,-6e-05,-0.00015,-5e-05,-4e-05,4,16
15374,-5e-05,-1e-05,4e-05,0,-6e-05,-0.00015,-5e-05,-4e-05,4,16
15375,-5e-05,-1e-05,4e-05,0,-6e-05,-0.00015,-5e-05,-4e-05,4,16
15376,-5e-05,-1e-05,4e-05,0,-6e-05,-0.00015,-5e-05,-4e-05,4,16
15377,-3e-05,-0.00019,-6e-05,0.00048,0.00017,-0.00035,-0.00023,-0.0001,4,16
15378,0.00011,0.00013,0.0002,-0.0002,0.00027,0.00031,0.00013,6e-05,4,16
15379,0.00011,0.00013,0.0002,-0.0002,0.00027,0.00031,0.00013,6e-05,4,16
15380,0.00011,0.00013,0.0002,-0.0002,0.00027,0.00031,0.00013,6e-05,4,16
15381,0.00011,0.00013,0.0002,-0.0002,0.00027,0.00031,0.00013,6e-05,4,16
15382,0.00011,0.00013,0.0002,-0.0002,0.00027,0.00031,0.00013,6e-05,4,16
15383,0.00011,0.00013,0.0002,-0.0002,0.00027,0.00031,0.00013,6e-05,4,16
15384,0.00011,0.00013,0.0002,-0.0002,0.00027,0.00031,0.00013,6e-05,4,16
15385,0.00011,0.00013,0.0002,-0.0002,0.00027,0.00031,0.00013,6e-05,4,16
15386,0.00011,0.00013,0.0002,-0.0002,0.00027,0.00031,0.00013,6e-05,4,16
15388,0.00011,0.00013,0.0002,-0.0002,0.00027,0.00031,0.00013,6e-05,4,16
15389,0.00011,0.00013,0.0002,-0.0002,0.00027,0.00031,0.00013,6e-05,4,16
15390,0.00011,0.00013,0.0002,-0.0002,0.00027,0.00031,0.00013,6e-05,4,16
15391,0.0001,0.00016,0.00049,0.00017,0.00026,0.0005,0.00019,8e-05,4,16
15392,7e-05,2e-05,7e-05,0.00012,-0.00016,-5e-05,3e-05,5e-05,4,16
15393,7e-05,2e-05,7e-05,0.00012,-0.00016,-5e-05,3e-05,5e-05,4,16
15394,7e-05,2e-05,7e-05,0.00012,-0.00016,-5e-05,3e-05,5e-05,4,16
15395,7e-05,2e-05,7e-05,0.00012,-0.00016,-5e-05,3e-05,5e-05,4,16
15396,7e-05,2e-05,7e-05,0.00012,-0.00016,-5e-05,3e-05,5e-05,4,16
15397,7e-05,2e-05,7e-05,0.00012,-0.00016,-5e-05,3e-05,5e-05,4,16
15398,7e-05,2e-05,7e-05,0.00012,-0.00016,-5e-05,3e-05,5e-05,4,16
15399,7e-05,2e-05,7e-05,0.00012,-0.00016,-5e-05,3e-05,5e-05,4,16
15400,7e-05,2e-05,7e-05,0.00012,-0.00016,-5e-05,3e-05,5e-05,4,16
15401,7e-05,2e-05,7e-05,0.00012,-0.00016,-5e-05,3e-05,5e-05,4,16
15402,7e-05,2e-05,7e-05,0.00012,-0.00016,-5e-05,3e-05,5e-05,4,16
15403,7e-05,2e-05,7e-05,0.00012,-0.00016,-5e-05,3e-05,5e-05,4,16
15404,7e-05,2e-05,7e-05,0.00012,-0.00016,-5e-05,3e-05,5e-05,4,16
15405,7e-05,2e-05,7e-05,0.00012,-0.00016,-5e-05,3e-05,5e-05,4,16
15406,7e-05,2e-05,7e-05,0.00012,-0.00016,-5e-05,3e-05,5e-05,4,16
15407,7e-05,2e-05,7e-05,0.00012,-0.00016,-5e-05,3e-05,5e-05,4,16
15408,7e-05,2e-05,7e-05,0.00012,-0.00016,-5e-05,3e-05,5e-05,4,16
15409,7e-05,2e-05,7e-05,0.00012,-0.00016,-5e-05,3e-05,5e-05,4,16
15410,7e-05,2e-05,7e-05,0.00012,-0.00016,-5e-05,3e-05,5e-05,4,16
15411,7e-05,2e-05,7e-05,0.00012,-0.00016,-5e-05,3e-05,5e-05,4,16
15412,7e-05,2e-05,7e-05,0.00012,-0.00016,-5e-05,3e-05,5e-05,4,16
15413,4e-05,0.00016,0.00022,-2e-05,0.00101,0.00078,0.00032,5e-05,4,16
15414,4e-05,-5e-05,-9e-05,-0.00011,8e-05,-0.00025,-1e-05,5e-05,4,16
15415,4e-05,-5e-05,-9e-05,-0.00011,8e-05,-0.00025,-1e-05,5e-05,4,16
15416,4e-05,-5e-05,-9e-05,-0.00011,8e-05,-0.00025,-1e-05,5e-05,4,16
15417,4e-05,-5e-05,-9e-05,-0.00011,8e-05,-0.00025,-1e-05,5e-05,4,16
15418,4e-05,-5e-05,-9e-05,-0.00011,8e-05,-0.00025,-1e-05,5e-05,4,16
15419,4e-05,-5e-05,-9e-05,-0.00011,8e-05,-0.00025,-1e-05,5e-05,4,16
15420,4e-05,-5e-05,-9e-05,-0.00011,8e-05,-0.00025,-1e-05,5e-05,4,16
15421,-9e-05,-0.00012,-0.00012,0.00038,-0.00024,-0.00034,-0.00017,-6e-05,4,16
15422,-9e-05,-0.00012,-0.00012,0.00038,-0.00024,-0.00034,-0.00017,-6e-05,4,16
15423,-9e-05,-0.00012,-0.00012,0.00038,-0.00024,-0.00034,-0.00017,-6e-05,4,16
15424,-9e-05,-0.00012,-0.00012,0.00038,-0.00024,-0.00034,-0.00017,-6e-05,4,16
15425,-9e-05,-0.00012,-0.00012,0.00038,-0.00024,-0.00034,-0.00017,-6e-05,4,16
15426,-9e-05,-0.00012,-0.00012,0.00038,-0.00024,-0.00034,-0.00017,-6e-05,4,16
15427,-9e-05,-0.00012,-0.00012,0.00038,-0.00024,-0.00034,-0.00017,-6e-05,4,16
15428,-9e-05,-0.00012,-0.00012,0.00038,-0.00024,-0.00034,-0.00017,-6e-05,4,16
15429,-9e-05,-0.00012,-0.00012,0.00038,-0.00024,-0.00034,-0.00017,-6e-05,4,16
15430,-9e-05,-0.00012,-0.00012,0.00038,-0.00024,-0.00034,-0.00017,-6e-05,4,16
15431,-9e-05,-0.00012,-0.00012,0.00038,-0.00024,-0.00034,-0.00017,-6e-05,4,16
15432,-9e-05,-0.00012,-0.00012,0.00038,-0.00024,-0.00034,-0.00017,-6e-05,4,16
15433,-9e-05,-0.00012,-0.00012,0.00038,-0.00024,-0.00034,-0.00017,-6e-05,4,16
15434,-9e-05,-0.00012,-0.00012,0.00038,-0.00024,-0.00034,-0.00017,-6e-05,4,16
15435,-9e-05,-0.00012,-0.00012,0.00038,-0.00024,-0.00034,-0.00017,-6e-05,4,16
15436,-9e-05,-0.00012,-0.00012,0.00038,-0.00024,-0.00034,-0.00017,-6e-05,4,16
15438,7e-05,-2e-05,2e-05,0.00032,0.00018,0.00045,5e-05,1e-05,4,16
15439,7e-05,-2e-05,2e-05,0.00032,0.00018,0.00045,5e-05,1e-05,4,16
15440,7e-05,-2e-05,2e-05,0.00032,0.00018,0.00045,5e-05,1e-05,4,16
15441,7e-05,-2e-05,2e-05,0.00032,0.00018,0.00045,5e-05,1e-05,4,16
15442,7e-05,-2e-05,2e-05,0.00032,0.00018,0.00045,5e-05,1e-05,4,16
15443,7e-05,-2e-05,2e-05,0.00032,0.00018,0.00045,5e-05,1e-05,4,16
15444,7e-05,-2e-05,2e-05,0.00032,0.00018,0.00045,5e-05,1e-05,4,16
15445,7e-05,-2e-05,2e-05,0.00032,0.00018,0.00045,5e-05,1e-05,4,16
15446,7e-05,-2e-05,2e-05,0.00032,0.00018,0.00045,5e-05,1e-05,4,16
15447,7e-05,-2e-05,2e-05,0.00032,0.00018,0.00045,5e-05,1e-05,4,16
15448,7e-05,-2e-05,2e-05,0.00032,0.00018,0.00045,5e-05,1e-05,4,16
15449,7e-05,-2e-05,2e-05,0.00032,0.00018,0.00045,5e-05,1e-05,4,16
15450,7e-05,-2e-05,2e-05,0.00032,0.00018,0.00045,5e-05,1e-05,4,16
15451,-6e-05,-1e-05,-5e-05,0.0001,0.00069,0.00023,0,-1e-05,4,16
15452,4e-05,-0.0001,-8e-05,-0.00026,-0.00042,-3e-05,7e-05,-1e-05,4,16
15453,6e-05,7e-05,0.00021,0.00053,0.00073,0.0001,0.00011,8e-05,4,16
15454,6e-05,7e-05,0.00021,0.00053,0.00073,0.0001,0.00011,8e-05,4,16
15455,6e-05,7e-05,0.00021,0.00053,0.00073,0.0001,0.00011,8e-05,4,16
15456,6e-05,7e-05,0.00021,0.00053,0.00073,0.0001,0.00011,8e-05,4,16
15457,6e-05,7e-05,0.00021,0.00053,0.00073,0.0001,0.00011,8e-05,4,16
15458,6e-05,7e-05,0.00021,0.00053,0.00073,0.0001,0.00011,8e-05,4,16
15459,6e-05,7e-05,0.00021,0.00053,0.00073,0.0001,0.00011,8e-05,4,16
15460,6e-05,7e-05,0.00021,0.00053,0.00073,0.0001,0.00011,8e-05,4,16
15461,6e-05,7e-05,0.00021,0.00053,0.00073,0.0001,0.00011,8e-05,4,16
15462,6e-05,7e-05,0.00021,0.00053,0.00073,0.0001,0.00011,8e-05,4,16
15463,6e-05,7e-05,0.00021,0.00053,0.00073,0.0001,0.00011,8e-05,4,16
15464,6e-05,7e-05,0.00021,0.00053,0.00073,0.0001,0.00011,8e-05,4,16
15465,6e-05,7e-05,0.00021,0.00053,0.00073,0.0001,0.00011,8e-05,4,16
15466,6e-05,7e-05,0.00021,0.00053,0.00073,0.0001,0.00011,8e-05,4,16
15467,6e-05,7e-05,0.00021,0.00053,0.00073,0.0001,0.00011,8e-05,4,16
15468,6e-05,7e-05,0.00021,0.00053,0.00073,0.0001,0.00011,8e-05,4,16
15469,6e-05,7e-05,0.00021,0.00053,0.00073,0.0001,0.00011,8e-05,4,16
15470,6e-05,7e-05,0.00021,0.00053,0.00073,0.0001,0.00011,8e-05,4,16
15471,6e-05,7e-05,0.00021,0.00053,0.00073,0.0001,0.00011,8e-05,4,16
15472,6e-05,7e-05,0.00021,0.00053,0.00073,0.0001,0.00011,8e-05,4,16
15473,6e-05,7e-05,0.00021,0.00053,0.00073,0.0001,0.00011,8e-05,4,16
15474,0.0001,0.00019,6e-05,-0.00055,0.00057,9e-05,9e-05,6e-05,4,16
15475,-4e-05,-0.00022,-0.00026,0.00016,4e-05,-0.00026,-0.00014,-6e-05,4,16
15476,-4e-05,-0.00022,-0.00026,0.00016,4e-05,-0.00026,-0.00014,-6e-05,4,16
15477,-4e-05,-0.00022,-0.00026,0.00016,4e-05,-0.00026,-0.00014,-6e-05,4,16
15478,-4e-05,-0.00022,-0.00026,0.00016,4e-05,-0.00026,-0.00014,-6e-05,4,16
15479,-4e-05,-0.00022,-0.00026,0.00016,4e-05,-0.00026,-0.00014,-6e-05,4,16
15480,-4e-05,-0.00022,-0.00026,0.00016,4e-05,-0.00026,-0.00014,-6e-05,4,16
15481,-4e-05,-0.00022,-0.00026,0.00016,4e-05,-0.00026,-0.00014,-6e-05,4,16
15482,-4e-05,-0.00022,-0.00026,0.00016,4e-05,-0.00026,-0.00014,-6e-05,4,16
15483,-4e-05,-0.00022,-0.00026,0.00016,4e-05,-0.00026,-0.00014,-6e-05,4,16
15484,-4e-05,-0.00022,-0.00026,0.00016,4e-05,-0.00026,-0.00014,-6e-05,4,16
15485,-4e-05,-0.00022,-0.00026,0.00016,4e-05,-0.00026,-0.00014,-6e-05,4,16
15486,-4e-05,-0.00022,-0.00026,0.00016,4e-05,-0.00026,-0.00014,-6e-05,4,16
15488,-4e-05,-0.00022,-0.00026,0.00016,4e-05,-0.00026,-0.00014,-6e-05,4,16
15489,-4e-05,-0.00022,-0.00026,0.00016,4e-05,-0.00026,-0.00014,-6e-05,4,16
15490,-4e-05,-0.00022,-0.00026,0.00016,4e-05,-0.00026,-0.00014,-6e-05,4,16
15491,-4e-05,-0.00022,-0.00026,0.00016,4e-05,-0.00026,-0.00014,-6e-05,4,16
15492,-4e-05,-0.00022,-0.00026,0.00016,4e-05,-0.00026,-0.00014,-6e-05,4,16
15493,-4e-05,-0.00022,-0.00026,0.00016,4e-05,-0.00026,-0.00014,-6e-05,4,16
15494,-4e-05,-0.00022,-0.00026,0.00016,4e-05,-0.00026,-0.00014,-6e-05,4,16
15495,-4e-05,-0.00022,-0.00026,0.00016,4e-05,-0.00026,-0.00014,-6e-05,4,16
15496,-4e-05,-0.00022,-0.00026,0.00016,4e-05,-0.00026,-0.00014,-6e-05,4,16
15497,6e-05,0.00013,4e-05,0.00014,0.00037,0.00039,0.00014,7e-05,4,16
15498,6e-05,0.00013,4e-05,0.00014,0.00037,0.00039,0.00014,7e-05,4,16
15499,6e-05,0.00013,4e-05,0.00014,0.00037,0.00039,0.00014,7e-05,4,16
15500,6e-05,0.00013,4e-05,0.00014,0.00037,0.00039,0.00014,7e-05,4,16
15501,6e-05,0.00013,4e-05,0.00014,0.00037,0.00039,0.00014,7e-05,4,16
15502,6e-05,0.00013,4e-05,0.00014,0.00037,0.00039,0.00014,7e-05,4,16
15503,6e-05,0.00013,4e-05,0.00014,0.00037,0.00039,0.00014,7e-05,4,16
15504,6e-05,0.00013,4e-05,0.00014,0.00037,0.00039,0.00014,7e-05,4,16
15505,6e-05,0.00013,4e-05,0.00014,0.00037,0.00039,0.00014,7e-05,4,16
15506,6e-05,0.00013,4e-05,0.00014,0.00037,0.00039,0.00014,7e-05,4,16
15507,6e-05,0.00013,4e-05,0.00014,0.00037,0.00039,0.00014,7e-05,4,16
15508,6e-05,0.00013,4e-05,0.00014,0.00037,0.00039,0.00014,7e-05,4,16
15509,6e-05,0.00013,4e-05,0.00014,0.00037,0.00039,0.00014,7e-05,4,16
15510,6e-05,0.00013,4e-05,0.00014,0.00037,0.00039,0.00014,7e-05,4,16
15511,1e-05,3e-05,0.0001,0.00038,0.00032,-0.00023,-0.00011,-2e-05,4,16
15512,-6e-05,5e-05,-4e-05,-0.00041,-0.00053,0.00013,0.00013,-1e-05,4,16
15513,-6e-05,5e-05,-4e-05,-0.00041,-0.00053,0.00013,0.00013,-1e-05,4,16
15514,-6e-05,5e-05,-4e-05,-0.00041,-0.00053,0.00013,0.00013,-1e-05,4,16
15515,-6e-05,5e-05,-4e-05,-0.00041,-0.00053,0.00013,0.00013,-1e-05,4,16
15516,-6e-05,5e-05,-4e-05,-0.00041,-0.00053,0.00013,0.00013,-1e-05,4,16
15517,-6e-05,5e-05,-4e-05,-0.00041,-0.00053,0.00013,0.00013,-1e-05,4,16
15518,-6e-05,5e-05,-4e-05,-0.00041,-0.00053,0.00013,0.00013,-1e-05,4,16
15519,-6e-05,5e-05,-4e-05,-0.00041,-0.00053,0.00013,0.00013,-1e-05,4,16
15520,-6e-05,5e-05,-4e-05,-0.00041,-0.00053,0.00013,0.00013,-1e-05,4,16
15521,-6e-05,5e-05,-4e-05,-0.00041,-0.00053,0.00013,0.00013,-1e-05,4,16
15522,-6e-05,5e-05,-4e-05,-0.00041,-0.00053,0.00013,0.00013,-1e-05,4,16
15523,-6e-05,5e-05,-4e-05,-0.00041,-0.00053,0.00013,0.00013,-1e-05,4,16
15524,-6e-05,5e-05,-4e-05,-0.00041,-0.00053,0.00013,0.00013,-1e-05,4,16
15525,-6e-05,5e-05,-4e-05,-0.00041,-0.00053,0.00013,0.00013,-1e-05,4,16
15526,-6e-05,5e-05,-4e-05,-0.00041,-0.00053,0.00013,0.00013,-1e-05,4,16
15527,-6e-05,5e-05,-4e-05,-0.00041,-0.00053,0.00013,0.00013,-1e-05,4,16
15528,-6e-05,5e-05,-4e-05,-0.00041,-0.00053,0.00013,0.00013,-1e-05,4,16
15529,-6e-05,5e-05,-4e-05,-0.00041,-0.00053,0.00013,0.00013,-1e-05,4,16
15530,-6e-05,5e-05,-4e-05,-0.00041,-0.00053,0.00013,0.00013,-1e-05,4,16
15531,-6e-05,5e-05,-4e-05,-0.00041,-0.00053,0.00013,0.00013,-1e-05,4,16
15532,-6e-05,5e-05,-4e-05,-0.00041,-0.00053,0.00013,0.00013,-1e-05,4,16
15533,-6e-05,5e-05,-4e-05,-0.00041,-0.00053,0.00013,0.00013,-1e-05,4,16
15534,1e-05,-1e-05,4e-05,-0.00021,-0.00016,-7e-05,2e-05,-2e-05,4,16
15535,-9e-05,-0.0001,-0.00018,-0.00103,-0.00096,-0.00039,-0.00017,-5e-05,4,16
15536,-9e-05,-0.0001,-0.00018,-0.00103,-0.00096,-0.00039,-0.00017,-5e-05,4,16
15538,-9e-05,-0.0001,-0.00018,-0.00103,-0.00096,-0.00039,-0.00017,-5e-05,4,16
15539,-9e-05,-0.0001,-0.00018,-0.00103,-0.00096,-0.00039,-0.00017,-5e-05,4,16
15540,-9e-05,-0.0001,-0.00018,-0.00103,-0.00096,-0.00039,-0.00017,-5e-05,4,16
15541,-9e-05,-0.0001,-0.00018,-0.00103,-0.00096,-0.00039,-0.00017,-5e-05,4,16
15542,-9e-05,-0.0001,-0.00018,-0.00103,-0.00096,-0.00039,-0.00017,-5e-05,4,16
15543,-9e-05,-0.0001,-0.00018,-0.00103,-0.00096,-0.00039,-0.00017,-5e-05,4,16
15544,-9e-05,-0.0001,-0.00018,-0.00103,-0.00096,-0.00039,-0.00017,-5e-05,4,16
15545,-9e-05,-0.0001,-0.00018,-0.00103,-0.00096,-0.00039,-0.00017,-5e-05,4,16
15546,-9e-05,-0.0001,-0.00018,-0.00103,-0.00096,-0.00039,-0.00017,-5e-05,4,16
15547,-9e-05,-0.0001,-0.00018,-0.00103,-0.00096,-0.00039,-0.00017,-5e-05,4,16
15548,-9e-05,-0.0001,-0.00018,-0.00103,-0.00096,-0.00039,-0.00017,-5e-05,4,16
15549,-9e-05,-0.0001,-0.00018,-0.00103,-0.00096,-0.00039,-0.00017,-5e-05,4,16
15550,-9e-05,-0.0001,-0.00018,-0.00103,-0.00096,-0.00039,-0.00017,-5e-05,4,16
15551,-9e-05,-0.0001,-0.00018,-0.00103,-0.00096,-0.00039,-0.00017,-5e-05,4,16
15552,-9e-05,-0.0001,-0.00018,-0.00103,-0.00096,-0.00039,-0.00017,-5e-05,4,16
15553,-9e-05,-0.0001,-0.00018,-0.00103,-0.00096,-0.00039,-0.00017,-5e-05,4,16
15554,-9e-05,-0.0001,-0.00018,-0.00103,-0.00096,-0.00039,-0.00017,-5e-05,4,16
15555,-9e-05,-0.0001,-0.00018,-0.00103,-0.00096,-0.00039,-0.00017,-5e-05,4,16
15556,-9e-05,-0.0001,-0.00018,-0.00103,-0.00096,-0.00039,-0.00017,-5e-05,4,16
15557,-0.00015,-0.00017,-0.00017,-0.00029,-0.00113,-0.00047,-0.00026,-0.00011,4,16
15558,-6e-05,-0.00017,-0.0002,-0.00045,-0.00072,-0.00045,-0.00017,-2e-05,4,16
15559,-6e-05,-0.00017,-0.0002,-0.00045,-0.00072,-0.00045,-0.00017,-2e-05,4,16
15560,-6e-05,-0.00017,-0.0002,-0.00045,-0.00072,-0.00045,-0.00017,-2e-05,4,16
15561,-6e-05,-0.00017,-0.0002,-0.00045,-0.00072,-0.00045,-0.00017,-2e-05,4,16
15562,-6e-05,-0.00017,-0.0002,-0.00045,-0.00072,-0.00045,-0.00017,-2e-05,4,16
15563,-6e-05,-0.00017,-0.0002,-0.00045,-0.00072,-0.00045,-0.00017,-2e-05,4,16
15564,-6e-05,-0.00017,-0.0002,-0.00045,-0.00072,-0.00045,-0.00017,-2e-05,4,16
15565,-6e-05,-0.00017,-0.0002,-0.00045,-0.00072,-0.00045,-0.00017,-2e-05,4,16
15566,-6e-05,-0.00017,-0.0002,-0.00045,-0.00072,-0.00045,-0.00017,-2e-05,4,16
15567,-6e-05,-0.00017,-0.0002,-0.00045,-0.00072,-0.00045,-0.00017,-2e-05,4,16
15568,-6e-05,-0.00017,-0.0002,-0.00045,-0.00072,-0.00045,-0.00017,-2e-05,4,16
15569,-6e-05,-0.00017,-0.0002,-0.00045,-0.00072,-0.00045,-0.00017,-2e-05,4,16
15570,-6e-05,-0.00017,-0.0002,-0.00045,-0.00072,-0.00045,-0.00017,-2e-05,4,16
15571,-0.00015,-0.00026,-0.00041,-0.00067,-0.00096,-0.00047,-0.00024,-0.0001,4,16
15572,0,5e-05,1e-05,-0.00052,-0.00071,-0.00015,1e-05,-1e-05,4,16
15573,0,5e-05,1e-05,-0.00052,-0.00071,-0.00015,1e-05,-1e-05,4,16
15574,0,5e-05,1e-05,-0.00052,-0.00071,-0.00015,1e-05,-1e-05,4,16
15575,0,5e-05,1e-05,-0.00052,-0.00071,-0.00015,1e-05,-1e-05,4,16
15576,0,5e-05,1e-05,-0.00052,-0.00071,-0.00015,1e-05,-1e-05,4,16
15577,0,5e-05,1e-05,-0.00052,-0.00071,-0.00015,1e-05,-1e-05,4,16
15578,0,5e-05,1e-05,-0.00052,-0.00071,-0.00015,1e-05,-1e-05,4,16
15579,0,5e-05,1e-05,-0.00052,-0.00071,-0.00015,1e-05,-1e-05,4,16
15580,0,5e-05,1e-05,-0.00052,-0.00071,-0.00015,1e-05,-1e-05,4,16
15581,0,5e-05,1e-05,-0.00052,-0.00071,-0.00015,1e-05,-1e-05,4,16
15582,0,5e-05,1e-05,-0.00052,-0.00071,-0.00015,1e-05,-1e-05,4,16
15583,0,5e-05,1e-05,-0.00052,-0.00071,-0.00015,1e-05,-1e-05,4,16
15584,0,5e-05,1e-05,-0.00052,-0.00071,-0.00015,1e-05,-1e-05,4,16
15585,0,5e-05,1e-05,-0.00052,-0.00071,-0.00015,1e-05,-1e-05,4,16
15586,0,5e-05,1e-05,-0.00052,-0.00071,-0.00015,1e-05,-1e-05,4,16
15588,0,5e-05,1e-05,-0.00052,-0.00071,-0.00015,1e-05,-1e-05,4,16
15589,0,5e-05,1e-05,-0.00052,-0.00071,-0.00015,1e-05,-1e-05,4,16
15590,0,5e-05,1e-05,-0.00052,-0.00071,-0.00015,1e-05,-1e-05,4,16
15591,0,5e-05,1e-05,-0.00052,-0.00071,-0.00015,1e-05,-1e-05,4,16
15592,0,5e-05,1e-05,-0.00052,-0.00071,-0.00015,1e-05,-1e-05,4,16
15593,0,5e-05,1e-05,-0.00052,-0.00071,-0.00015,1e-05,-1e-05,4,16
15594,7e-05,0.00019,7e-05,0.00085,-0.00012,0.00039,0.00019,7e-05,4,16
15595,-2e-05,-8e-05,-0.00015,-0.00054,-0.00022,-5e-05,-0.0001,-4e-05,4,16
15596,-2e-05,-8e-05,-0.00015,-0.00054,-0.00022,-5e-05,-0.0001,-4e-05,4,16
15597,-2e-05,-8e-05,-0.00015,-0.00054,-0.00022,-5e-05,-0.0001,-4e-05,4,16
15598,-2e-05,-8e-05,-0.00015,-0.00054,-0.00022,-5e-05,-0.0001,-4e-05,4,16
15599,-2e-05,-8e-05,-0.00015,-0.00054,-0.00022,-5e-05,-0.0001,-4e-05,4,16
15600,-2e-05,-8e-05,-0.00015,-0.00054,-0.00022,-5e-05,-0.0001,-4e-05,4,16
15601,-2e-05,-8e-05,-0.00015,-0.00054,-0.00022,-5e-05,-0.0001,-4e-05,4,16
15602,-2e-05,-8e-05,-0.00015,-0.00054,-0.00022,-5e-05,-0.0001,-4e-05,4,16
15603,-2e-05,-8e-05,-0.00015,-0.00054,-0.00022,-5e-05,-0.0001,-4e-05,4,16
15604,-2e-05,-8e-05,-0.00015,-0.00054,-0.00022,-5e-05,-0.0001,-4e-05,4,16
15605,-2e-05,-8e-05,-0.00015,-0.00054,-0.00022,-5e-05,-0.0001,-4e-05,4,16
15606,-2e-05,-8e-05,-0.00015,-0.00054,-0.00022,-5e-05,-0.0001,-4e-05,4,16
15607,-2e-05,-8e-05,-0.00015,-0.00054,-0.00022,-5e-05,-0.0001,-4e-05,4,16
15608,-2e-05,-8e-05,-0.00015,-0.00054,-0.00022,-5e-05,-0.0001,-4e-05,4,16
15609,-2e-05,-8e-05,-0.00015,-0.00054,-0.00022,-5e-05,-0.0001,-4e-05,4,16
15610,-2e-05,-8e-05,-0.00015,-0.00054,-0.00022,-5e-05,-0.0001,-4e-05,4,16
15611,-2e-05,-8e-05,-0.00015,-0.00054,-0.00022,-5e-05,-0.0001,-4e-05,4,16
15612,-2e-05,-8e-05,-0.00015,-0.00054,-0.00022,-5e-05,-0.0001,-4e-05,4,16
15613,-2e-05,-8e-05,-0.00015,-0.00054,-0.00022,-5e-05,-0.0001,-4e-05,4,16
15614,-2e-05,-8e-05,-0.00015,-0.00054,-0.00022,-5e-05,-0.0001,-4e-05,4,16
15615,-2e-05,-8e-05,-0.00015,-0.00054,-0.00022,-5e-05,-0.0001,-4e-05,4,16
15616,-2e-05,-8e-05,-0.00015,-0.00054,-0.00022,-5e-05,-0.0001,-4e-05,4,16
15617,0,3e-05,2e-05,0.00015,0.00021,4e-05,-2e-05,0,4,16
15618,0,3e-05,2e-05,0.00015,0.00021,4e-05,-2e-05,0,4,16
15619,0,3e-05,2e-05,0.00015,0.00021,4e-05,-2e-05,0,4,16
15620,0,3e-05,2e-05,0.00015,0.00021,4e-05,-2e-05,0,4,16
15621,0,3e-05,2e-05,0.00015,0.00021,4e-05,-2e-05,0,4,16
15622,0,3e-05,2e-05,0.00015,0.00021,4e-05,-2e-05,0,4,16
15623,0,3e-05,2e-05,0.00015,0.00021,4e-05,-2e-05,0,4,16
15624,0,3e-05,2e-05,0.00015,0.00021,4e-05,-2e-05,0,4,16
15625,0,3e-05,2e-05,0.00015,0.00021,4e-05,-2e-05,0,4,16
15626,0,3e-05,2e-05,0.00015,0.00021,4e-05,-2e-05,0,4,16
15627,0,3e-05,2e-05,0.00015,0.00021,4e-05,-2e-05,0,4,16
15628,0,3e-05,2e-05,0.00015,0.00021,4e-05,-2e-05,0,4,16
15629,0,3e-05,2e-05,0.00015,0.00021,4e-05,-2e-05,0,4,16
15630,0,3e-05,2e-05,0.00015,0.00021,4e-05,-2e-05,0,4,16
15631,8e-05,0.00014,0.00034,0.00071,0.00108,0.00051,0.00016,7e-05,4,16
15632,-0.00013,-9e-05,-3e-05,0,-0.00022,-0.00034,-0.00023,-0.00014,4,16
15633,-0.00013,-9e-05,-3e-05,0,-0.00022,-0.00034,-0.00023,-0.00014,4,16
15634,-0.00013,-9e-05,-3e-05,0,-0.00022,-0.00034,-0.00023,-0.00014,4,16
15635,-0.00013,-9e-05,-3e-05,0,-0.00022,-0.00034,-0.00023,-0.00014,4,16
15636,-0.00013,-9e-05,-3e-05,0,-0.00022,-0.00034,-0.00023,-0.00014,4,16
15638,-0.00013,-9e-05,-3e-05,0,-0.00022,-0.00034,-0.00023,-0.00014,4,16
15639,-0.00013,-9e-05,-3e-05,0,-0.00022,-0.00034,-0.00023,-0.00014,4,16
15640,-0.00013,-9e-05,-3e-05,0,-0.00022,-0.00034,-0.00023,-0.00014,4,16
15641,-0.00013,-9e-05,-3e-05,0,-0.00022,-0.00034,-0.00023,-0.00014,4,16
15642,-0.00013,-9e-05,-3e-05,0,-0.00022,-0.00034,-0.00023,-0.00014,4,16
15643,-0.00013,-9e-05,-3e-05,0,-0.00022,-0.00034,-0.00023,-0.00014,4,16
15644,-0.00013,-9e-05,-3e-05,0,-0.00022,-0.00034,-0.00023,-0.00014,4,16
15645,-0.00013,-9e-05,-3e-05,0,-0.00022,-0.00034,-0.00023,-0.00014,4,16
15646,-0.00013,-9e-05,-3e-05,0,-0.00022,-0.00034,-0.00023,-0.00014,4,16
15647,-0.00013,-9e-05,-3e-05,0,-0.00022,-0.00034,-0.00023,-0.00014,4,16
15648,-0.00013,-9e-05,-3e-05,0,-0.00022,-0.00034,-0.00023,-0.00014,4,16
15649,-0.00013,-9e-05,-3e-05,0,-0.00022,-0.00034,-0.00023,-0.00014,4,16
15650,-0.00013,-9e-05,-3e-05,0,-0.00022,-0.00034,-0.00023,-0.00014,4,16
15651,-0.00013,-9e-05,-3e-05,0,-0.00022,-0.00034,-0.00023,-0.00014,4,16
15652,-0.00013,-9e-05,-3e-05,0,-0.00022,-0.00034,-0.00023,-0.00014,4,16
15653,-0.00013,-9e-05,-3e-05,0,-0.00022,-0.00034,-0.00023,-0.00014,4,16
15654,0,4e-05,4e-05,-2e-05,-4e-05,3e-05,5e-05,1e-05,4,16
15655,5e-05,9e-05,0.00019,7e-05,0.00046,0.00025,0.00011,3e-05,4,16
15656,5e-05,9e-05,0.00019,7e-05,0.00046,0.00025,0.00011,3e-05,4,16
15657,5e-05,9e-05,0.00019,7e-05,0.00046,0.00025,0.00011,3e-05,4,16
15658,5e-05,9e-05,0.00019,7e-05,0.00046,0.00025,0.00011,3e-05,4,16
15659,5e-05,9e-05,0.00019,7e-05,0.00046,0.00025,0.00011,3e-05,4,16
15660,5e-05,9e-05,0.00019,7e-05,0.00046,0.00025,0.00011,3e-05,4,16
15661,5e-05,9e-05,0.00019,7e-05,0.00046,0.00025,0.00011,3e-05,4,16
15662,5e-05,9e-05,0.00019,7e-05,0.00046,0.00025,0.00011,3e-05,4,16
15663,5e-05,9e-05,0.00019,7e-05,0.00046,0.00025,0.00011,3e-05,4,16
15664,5e-05,9e-05,0.00019,7e-05,0.00046,0.00025,0.00011,3e-05,4,16
15665,5e-05,9e-05,0.00019,7e-05,0.00046,0.00025,0.00011,3e-05,4,16
15666,5e-05,9e-05,0.00019,7e-05,0.00046,0.00025,0.00011,3e-05,4,16
15667,5e-05,9e-05,0.00019,7e-05,0.00046,0.00025,0.00011,3e-05,4,16
15668,5e-05,9e-05,0.00019,7e-05,0.00046,0.00025,0.00011,3e-05,4,16
15669,5e-05,9e-05,0.00019,7e-05,0.00046,0.00025,0.00011,3e-05,4,16
15670,5e-05,9e-05,0.00019,7e-05,0.00046,0.00025,0.00011,3e-05,4,16
15671,5e-05,9e-05,0.00019,7e-05,0.00046,0.00025,0.00011,3e-05,4,16
15672,5e-05,9e-05,0.00019,7e-05,0.00046,0.00025,0.00011,3e-05,4,16
15673,5e-05,9e-05,0.00019,7e-05,0.00046,0.00025,0.00011,3e-05,4,16
15674,5e-05,9e-05,0.00019,7e-05,0.00046,0.00025,0.00011,3e-05,4,16
15675,5e-05,9e-05,0.00019,7e-05,0.00046,0.00025,0.00011,3e-05,4,16
15676,5e-05,9e-05,0.00019,7e-05,0.00046,0.00025,0.00011,3e-05,4,16
15677,-3e-05,0.00016,0.00018,7e-05,-0.00041,0.00011,7e-05,3e-05,4,16
15678,-3e-05,-2e-05,-3e-05,-0.00038,-0.00085,-6e-05,0,0,4,16
15679,-3e-05,-2e-05,-3e-05,-0.00038,-0.00085,-6e-05,0,0,4,16
15680,-3e-05,-2e-05,-3e-05,-0.00038,-0.00085,-6e-05,0,0,4,16
15681,-3e-05,-2e-05,-3e-05,-0.00038,-0.00085,-6e-05,0,0,4,16
15682,-3e-05,-2e-05,-3e-05,-0.00038,-0.00085,-6e-05,0,0,4,16
15683,-3e-05,-2e-05,-3e-05,-0.00038,-0.00085,-6e-05,0,0,4,16
15684,-3e-05,-2e-05,-3e-05,-0.00038,-0.00085,-6e-05,0,0,4,16
15685,-3e-05,-2e-05,-3e-05,-0.00038,-0.00085,-6e-05,0,0,4,16
15686,-3e-05,-2e-05,-3e-05,-0.00038,-0.00085,-6e-05,0,0,4,16
15688,-3e-05,-2e-05,-3e-05,-0.00038,-0.00085,-6e-05,0,0,4,16
15689,-3e-05,-2e-05,-3e-05,-0.00038,-0.00085,-6e-05,0,0,4,16
15690,1e-05,0.00015,0.0001,0.00017,-8e-05,-0.00021,6e-05,6e-05,4,16
15691,-1e-05,-0.00012,-0.00012,-7e-05,6e-05,-0.00038,-0.00013,-6e-05,4,16
15692,-1e-05,-0.00012,-0.00012,-7e-05,6e-05,-0.00038,-0.00013,-6e-05,4,16
15693,-1e-05,-0.00012,-0.00012,-7e-05,6e-05,-0.00038,-0.00013,-6e-05,4,16
15694,-1e-05,-0.00012,-0.00012,-7e-05,6e-05,-0.00038,-0.00013,-6e-05,4,16
15695,-1e-05,-0.00012,-0.00012,-7e-05,6e-05,-0.00038,-0.00013,-6e-05,4,16
15696,-1e-05,-0.00012,-0.00012,-7e-05,6e-05,-0.00038,-0.00013,-6e-05,4,16
15697,-1e-05,-0.00012,-0.00012,-7e-05,6e-05,-0.00038,-0.00013,-6e-05,4,16
15698,-1e-05,-0.00012,-0.00012,-7e-05,6e-05,-0.00038,-0.00013,-6e-05,4,16
15699,-8e-05,-6e-05,-1e-05,0.00024,0.00045,-4e-05,-2e-05,-3e-05,4,16
15700,-3e-05,0,-7e-05,-0.00016,-6e-05,-0.0001,-5e-05,0,4,16
15701,-3e-05,0,-7e-05,-0.00016,-6e-05,-0.0001,-5e-05,0,4,16
15702,-3e-05,0,-7e-05,-0.00016,-6e-05,-0.0001,-5e-05,0,4,16
15703,-3e-05,0,-7e-05,-0.00016,-6e-05,-0.0001,-5e-05,0,4,16
15704,-3e-05,0,-7e-05,-0.00016,-6e-05,-0.0001,-5e-05,0,4,16
15705,-3e-05,0,-7e-05,-0.00016,-6e-05,-0.0001,-5e-05,0,4,16
15706,-3e-05,0,-7e-05,-0.00016,-6e-05,-0.0001,-5e-05,0,4,16
15707,-3e-05,0,-7e-05,-0.00016,-6e-05,-0.0001,-5e-05,0,4,16
15708,-3e-05,0,-7e-05,-0.00016,-6e-05,-0.0001,-5e-05,0,4,16
15709,-3e-05,0,-7e-05,-0.00016,-6e-05,-0.0001,-5e-05,0,4,16
15710,-3e-05,0,-7e-05,-0.00016,-6e-05,-0.0001,-5e-05,0,4,16
15711,-3e-05,0,-7e-05,-0.00016,-6e-05,-0.0001,-5e-05,0,4,16
15712,-3e-05,0,-7e-05,-0.00016,-6e-05,-0.0001,-5e-05,0,4,16
15713,-3e-05,0,-7e-05,-0.00016,-6e-05,-0.0001,-5e-05,0,4,16
15714,-2e-05,5e-05,4e-05,-0.0001,9e-05,-0.00015,2e-05,-3e-05,4,16
15715,-2e-05,5e-05,4e-05,-0.0001,9e-05,-0.00015,2e-05,-3e-05,4,16
15716,1e-05,-7e-05,-0.00017,-0.00091,-0.00069,-0.00027,-0.00013,0,4,16
15717,1e-05,-7e-05,-0.00017,-0.00091,-0.00069,-0.00027,-0.00013,0,4,16
15718,1e-05,-7e-05,-0.00017,-0.00091,-0.00069,-0.00027,-0.00013,0,4,16
15719,1e-05,-7e-05,-0.00017,-0.00091,-0.00069,-0.00027,-0.00013,0,4,16
15720,1e-05,-7e-05,-0.00017,-0.00091,-0.00069,-0.00027,-0.00013,0,4,16
15721,1e-05,-7e-05,-0.00017,-0.00091,-0.00069,-0.00027,-0.00013,0,4,16
15722,1e-05,-7e-05,-0.00017,-0.00091,-0.00069,-0.00027,-0.00013,0,4,16
15723,1e-05,-7e-05,-0.00017,-0.00091,-0.00069,-0.00027,-0.00013,0,4,16
15724,1e-05,-7e-05,-0.00017,-0.00091,-0.00069,-0.00027,-0.00013,0,4,16
15725,1e-05,-7e-05,-0.00017,-0.00091,-0.00069,-0.00027,-0.00013,0,4,16
15726,1e-05,-7e-05,-0.00017,-0.00091,-0.00069,-0.00027,-0.00013,0,4,16
15727,1e-05,-7e-05,-0.00017,-0.00091,-0.00069,-0.00027,-0.00013,0,4,16
15728,1e-05,-7e-05,-0.00017,-0.00091,-0.00069,-0.00027,-0.00013,0,4,16
15729,1e-05,-7e-05,-0.00017,-0.00091,-0.00069,-0.00027,-0.00013,0,4,16
15730,1e-05,-7e-05,-0.00017,-0.00091,-0.00069,-0.00027,-0.00013,0,4,16
15731,1e-05,-7e-05,-0.00017,-0.00091,-0.00069,-0.00027,-0.00013,0,4,16
15732,1e-05,-7e-05,-0.00017,-0.00091,-0.00069,-0.00027,-0.00013,0,4,16
15734,1e-05,-7e-05,-0.00017,-0.00091,-0.00069,-0.00027,-0.00013,0,4,16
15735,1e-05,-7e-05,-0.00017,-0.00091,-0.00069,-0.00027,-0.00013,0,4,16
15736,1e-05,-7e-05,-0.00017,-0.00091,-0.00069,-0.00027,-0.00013,0,4,16
15738,0,-7e-05,-0.00011,7e-05,-0.00024,-1e-05,4e-05,-1e-05,4,16
15739,1e-05,-3e-05,-7e-05,-2e-05,6e-05,-4e-05,-1e-05,-1e-05,4,16
15740,1e-05,-3e-05,-7e-05,-2e-05,6e-05,-4e-05,-1e-05,-1e-05,4,16
15741,1e-05,-3e-05,-7e-05,-2e-05,6e-05,-4e-05,-1e-05,-1e-05,4,16
15742,1e-05,-3e-05,-7e-05,-2e-05,6e-05,-4e-05,-1e-05,-1e-05,4,16
15743,1e-05,-3e-05,-7e-05,-2e-05,6e-05,-4e-05,-1e-05,-1e-05,4,16
15744,1e-05,-3e-05,-7e-05,-2e-05,6e-05,-4e-05,-1e-05,-1e-05,4,16
15745,1e-05,-3e-05,-7e-05,-2e-05,6e-05,-4e-05,-1e-05,-1e-05,4,16
15746,1e-05,-3e-05,-7e-05,-2e-05,6e-05,-4e-05,-1e-05,-1e-05,4,16
15747,1e-05,-3e-05,-7e-05,-2e-05,6e-05,-4e-05,-1e-05,-1e-05,4,16
15748,1e-05,-3e-05,-7e-05,-2e-05,6e-05,-4e-05,-1e-05,-1e-05,4,16
15749,1e-05,-3e-05,-7e-05,-2e-05,6e-05,-4e-05,-1e-05,-1e-05,4,16
15750,1e-05,-3e-05,-7e-05,-2e-05,6e-05,-4e-05,-1e-05,-1e-05,4,16
15751,6e-05,0,-7e-05,5e-05,0.00041,0.00017,8e-05,5e-05,4,16
15752,6e-05,0,-7e-05,5e-05,0.00041,0.00017,8e-05,5e-05,4,16
15753,6e-05,0,-7e-05,5e-05,0.00041,0.00017,8e-05,5e-05,4,16
15754,6e-05,0,-7e-05,5e-05,0.00041,0.00017,8e-05,5e-05,4,16
15755,6e-05,0,-7e-05,5e-05,0.00041,0.00017,8e-05,5e-05,4,16
15756,6e-05,0,-7e-05,5e-05,0.00041,0.00017,8e-05,5e-05,4,16
15757,6e-05,0,-7e-05,5e-05,0.00041,0.00017,8e-05,5e-05,4,16
15758,6e-05,0,-7e-05,5e-05,0.00041,0.00017,8e-05,5e-05,4,16
15759,-2e-05,-7e-05,-0.0001,-0.00065,-0.00059,-9e-05,-5e-05,-2e-05,4,16
15760,8e-05,0.00012,0.00019,0.00099,0.00036,7e-05,0.00019,8e-05,4,16
15761,8e-05,0.00012,0.00019,0.00099,0.00036,7e-05,0.00019,8e-05,4,16
15762,8e-05,0.00012,0.00019,0.00099,0.00036,7e-05,0.00019,8e-05,4,16
15763,8e-05,0.00012,0.00019,0.00099,0.00036,7e-05,0.00019,8e-05,4,16
15764,8e-05,0.00012,0.00019,0.00099,0.00036,7e-05,0.00019,8e-05,4,16
15765,8e-05,0.00012,0.00019,0.00099,0.00036,7e-05,0.00019,8e-05,4,16
15766,8e-05,0.00012,0.00019,0.00099,0.00036,7e-05,0.00019,8e-05,4,16
15767,8e-05,0.00012,0.00019,0.00099,0.00036,7e-05,0.00019,8e-05,4,16
15768,8e-05,0.00012,0.00019,0.00099,0.00036,7e-05,0.00019,8e-05,4,16
15769,8e-05,0.00012,0.00019,0.00099,0.00036,7e-05,0.00019,8e-05,4,16
15770,8e-05,0.00012,0.00019,0.00099,0.00036,7e-05,0.00019,8e-05,4,16
15771,8e-05,0.00012,0.00019,0.00099,0.00036,7e-05,0.00019,8e-05,4,16
15772,8e-05,0.00012,0.00019,0.00099,0.00036,7e-05,0.00019,8e-05,4,16
15773,8e-05,0.00012,0.00019,0.00099,0.00036,7e-05,0.00019,8e-05,4,16
15774,-2e-05,-4e-05,3e-05,0.00011,0.00023,0.00011,-4e-05,-1e-05,4,16
15775,-2e-05,-4e-05,3e-05,0.00011,0.00023,0.00011,-4e-05,-1e-05,4,16
15776,1e-05,-5e-05,-8e-05,0.00031,0.00113,0.0002,4e-05,2e-05,4,16
15777,1e-05,-5e-05,-8e-05,0.00031,0.00113,0.0002,4e-05,2e-05,4,16
15778,1e-05,-5e-05,-8e-05,0.00031,0.00113,0.0002,4e-05,2e-05,4,16
15779,1e-05,-5e-05,-8e-05,0.00031,0.00113,0.0002,4e-05,2e-05,4,16
15780,1e-05,-5e-05,-8e-05,0.00031,0.00113,0.0002,4e-05,2e-05,4,16
15781,1e-05,-5e-05,-8e-05,0.00031,0.00113,0.0002,4e-05,2e-05,4,16
15782,1e-05,-5e-05,-8e-05,0.00031,0.00113,0.0002,4e-05,2e-05,4,16
15783,1e-05,-5e-05,-8e-05,0.00031,0.00113,0.0002,4e-05,2e-05,4,16
15784,1e-05,-5e-05,-8e-05,0.00031,0.00113,0.0002,4e-05,2e-05,4,16
15785,1e-05,-5e-05,-8e-05,0.00031,0.00113,0.0002,4e-05,2e-05,4,16
15786,1e-05,-5e-05,-8e-05,0.00031,0.00113,0.0002,4e-05,2e-05,4,16
15788,1e-05,-5e-05,-8e-05,0.00031,0.00113,0.0002,4e-05,2e-05,4,16
15789,1e-05,-5e-05,-8e-05,0.00031,0.00113,0.0002,4e-05,2e-05,4,16
15790,1e-05,-5e-05,-8e-05,0.00031,0.00113,0.0002,4e-05,2e-05,4,16
15791,1e-05,-5e-05,-8e-05,0.00031,0.00113,0.0002,4e-05,2e-05,4,16
15792,1e-05,-5e-05,-8e-05,0.00031,0.00113,0.0002,4e-05,2e-05,4,16
15793,1e-05,-5e-05,-8e-05,0.00031,0.00113,0.0002,4e-05,2e-05,4,16
15794,1e-05,-5e-05,-8e-05,0.00031,0.00113,0.0002,4e-05,2e-05,4,16
15795,1e-05,-5e-05,-8e-05,0.00031,0.00113,0.0002,4e-05,2e-05,4,16
15796,1e-05,-5e-05,-8e-05,0.00031,0.00113,0.0002,4e-05,2e-05,4,16
15797,3e-05,0.00012,0.00015,0.00063,0.0007,0.00014,4e-05,4e-05,4,16
15798,3e-05,0.00012,0.00015,0.00063,0.0007,0.00014,4e-05,4e-05,4,16
15799,-5e-05,-8e-05,8e-05,0.0012,-0.00014,-0.00032,-0.00018,-8e-05,4,16
15800,-5e-05,-8e-05,8e-05,0.0012,-0.00014,-0.00032,-0.00018,-8e-05,4,16
15801,-5e-05,-8e-05,8e-05,0.0012,-0.00014,-0.00032,-0.00018,-8e-05,4,16
15802,-5e-05,-8e-05,8e-05,0.0012,-0.00014,-0.00032,-0.00018,-8e-05,4,16
15803,-5e-05,-8e-05,8e-05,0.0012,-0.00014,-0.00032,-0.00018,-8e-05,4,16
15804,-5e-05,-8e-05,8e-05,0.0012,-0.00014,-0.00032,-0.00018,-8e-05,4,16
15805,-5e-05,-8e-05,8e-05,0.0012,-0.00014,-0.00032,-0.00018,-8e-05,4,16
15806,-5e-05,-8e-05,8e-05,0.0012,-0.00014,-0.00032,-0.00018,-8e-05,4,16
15807,-5e-05,-8e-05,8e-05,0.0012,-0.00014,-0.00032,-0.00018,-8e-05,4,16
15808,-5e-05,-8e-05,8e-05,0.0012,-0.00014,-0.00032,-0.00018,-8e-05,4,16
15809,-5e-05,-8e-05,8e-05,0.0012,-0.00014,-0.00032,-0.00018,-8e-05,4,16
15810,-5e-05,-8e-05,8e-05,0.0012,-0.00014,-0.00032,-0.00018,-8e-05,4,16
15811,-5e-05,-8e-05,8e-05,0.0012,-0.00014,-0.00032,-0.00018,-8e-05,4,16
15812,-5e-05,-8e-05,8e-05,0.0012,-0.00014,-0.00032,-0.00018,-8e-05,4,16
15813,-5e-05,-8e-05,8e-05,0.0012,-0.00014,-0.00032,-0.00018,-8e-05,4,16
15814,-5e-05,-8e-05,8e-05,0.0012,-0.00014,-0.00032,-0.00018,-8e-05,4,16
15815,-5e-05,-8e-05,8e-05,0.0012,-0.00014,-0.00032,-0.00018,-8e-05,4,16
15816,-5e-05,-8e-05,8e-05,0.0012,-0.00014,-0.00032,-0.00018,-8e-05,4,16
15817,-5e-05,-8e-05,8e-05,0.0012,-0.00014,-0.00032,-0.00018,-8e-05,4,16
15818,-5e-05,-8e-05,8e-05,0.0012,-0.00014,-0.00032,-0.00018,-8e-05,4,16
15819,-5e-05,-8e-05,8e-05,0.0012,-0.00014,-0.00032,-0.00018,-8e-05,4,16
15820,0,-6e-05,2e-05,0.00036,0.00051,-5e-05,-7e-05,-2e-05,4,16
15821,-9e-05,-0.00021,-0.00027,-0.00078,-0.0005,-0.00011,-0.00016,-0.00011,4,16
15822,-9e-05,-0.00021,-0.00027,-0.00078,-0.0005,-0.00011,-0.00016,-0.00011,4,16
15823,-9e-05,-0.00021,-0.00027,-0.00078,-0.0005,-0.00011,-0.00016,-0.00011,4,16
15824,-9e-05,-0.00021,-0.00027,-0.00078,-0.0005,-0.00011,-0.00016,-0.00011,4,16
15825,-9e-05,-0.00021,-0.00027,-0.00078,-0.0005,-0.00011,-0.00016,-0.00011,4,16
15826,-9e-05,-0.00021,-0.00027,-0.00078,-0.0005,-0.00011,-0.00016,-0.00011,4,16
15827,-9e-05,-0.00021,-0.00027,-0.00078,-0.0005,-0.00011,-0.00016,-0.00011,4,16
15828,-9e-05,-0.00021,-0.00027,-0.00078,-0.0005,-0.00011,-0.00016,-0.00011,4,16
15829,-9e-05,-0.00021,-0.00027,-0.00078,-0.0005,-0.00011,-0.00016,-0.00011,4,16
15830,-9e-05,-0.00021,-0.00027,-0.00078,-0.0005,-0.00011,-0.00016,-0.00011,4,16
15831,-9e-05,-0.00021,-0.00027,-0.00078,-0.0005,-0.00011,-0.00016,-0.00011,4,16
15832,-9e-05,-0.00021,-0.00027,-0.00078,-0.0005,-0.00011,-0.00016,-0.00011,4,16
15833,-9e-05,-0.00021,-0.00027,-0.00078,-0.0005,-0.00011,-0.00016,-0.00011,4,16
15834,7e-05,0.0001,0.00012,-0.00019,-0.00049,-3e-05,8e-05,5e-05,4,16
15835,7e-05,0.0001,0.00012,-0.00019,-0.00049,-3e-05,8e-05,5e-05,4,16
15837,2e-05,0.00016,0.00025,7e-05,0.00045,0.00023,0.00015,2e-05,4,16
15839,2e-05,0.00016,0.00025,7e-05,0.00045,0.00023,0.00015,2e-05,4,16
15840,2e-05,0.00016,0.00025,7e-05,0.00045,0.00023,0.00015,2e-05,4,16
15841,2e-05,0.00016,0.00025,7e-05,0.00045,0.00023,0.00015,2e-05,4,16
15842,2e-05,0.00016,0.00025,7e-05,0.00045,0.00023,0.00015,2e-05,4,16
15843,2e-05,0.00016,0.00025,7e-05,0.00045,0.00023,0.00015,2e-05,4,16
15844,2e-05,0.00016,0.00025,7e-05,0.00045,0.00023,0.00015,2e-05,4,16
15845,2e-05,0.00016,0.00025,7e-05,0.00045,0.00023,0.00015,2e-05,4,16
15846,2e-05,0.00016,0.00025,7e-05,0.00045,0.00023,0.00015,2e-05,4,16
15847,2e-05,0.00016,0.00025,7e-05,0.00045,0.00023,0.00015,2e-05,4,16
15848,2e-05,0.00016,0.00025,7e-05,0.00045,0.00023,0.00015,2e-05,4,16
15849,2e-05,0.00016,0.00025,7e-05,0.00045,0.00023,0.00015,2e-05,4,16
15850,2e-05,0.00016,0.00025,7e-05,0.00045,0.00023,0.00015,2e-05,4,16
15851,2e-05,0.00016,0.00025,7e-05,0.00045,0.00023,0.00015,2e-05,4,16
15852,2e-05,0.00016,0.00025,7e-05,0.00045,0.00023,0.00015,2e-05,4,16
15853,2e-05,0.00016,0.00025,7e-05,0.00045,0.00023,0.00015,2e-05,4,16
15854,2e-05,0.00016,0.00025,7e-05,0.00045,0.00023,0.00015,2e-05,4,16
15855,2e-05,0.00016,0.00025,7e-05,0.00045,0.00023,0.00015,2e-05,4,16
15856,2e-05,0.00016,0.00025,7e-05,0.00045,0.00023,0.00015,2e-05,4,16
15857,2e-05,0.00016,0.00025,7e-05,0.00045,0.00023,0.00015,2e-05,4,16
15858,2e-05,0.00016,0.00025,7e-05,0.00045,0.00023,0.00015,2e-05,4,16
15859,2e-05,0.00016,0.00025,7e-05,0.00045,0.00023,0.00015,2e-05,4,16
15860,2e-05,0.00016,0.00025,7e-05,0.00045,0.00023,0.00015,2e-05,4,16
15861,2e-05,0.00016,0.00025,7e-05,0.00045,0.00023,0.00015,2e-05,4,16
15862,2e-05,0.00016,0.00025,7e-05,0.00045,0.00023,0.00015,2e-05,4,16
15863,2e-05,0.00016,0.00025,7e-05,0.00045,0.00023,0.00015,2e-05,4,16
15864,-8e-05,-0.0002,-0.00025,0.00014,-0.00101,-0.00041,-0.00016,-8e-05,4,16
15865,-8e-05,-0.0002,-0.00025,0.00014,-0.00101,-0.00041,-0.00016,-8e-05,4,16
15866,-5e-05,-7e-05,-0.00014,-0.00033,-0.00025,-0.00014,-6e-05,-5e-05,4,16
15867,-5e-05,-7e-05,-0.00014,-0.00033,-0.00025,-0.00014,-6e-05,-5e-05,4,16
15868,-5e-05,-7e-05,-0.00014,-0.00033,-0.00025,-0.00014,-6e-05,-5e-05,4,16
15869,-5e-05,-7e-05,-0.00014,-0.00033,-0.00025,-0.00014,-6e-05,-5e-05,4,16
15870,-5e-05,-7e-05,-0.00014,-0.00033,-0.00025,-0.00014,-6e-05,-5e-05,4,16
15871,-8e-05,0,9e-05,0.00013,0.00012,0.00017,2e-05,-9e-05,4,16
15872,-8e-05,0,9e-05,0.00013,0.00012,0.00017,2e-05,-9e-05,4,16
15873,-8e-05,0,9e-05,0.00013,0.00012,0.00017,2e-05,-9e-05,4,16
15874,-8e-05,0,9e-05,0.00013,0.00012,0.00017,2e-05,-9e-05,4,16
15875,-8e-05,0,9e-05,0.00013,0.00012,0.00017,2e-05,-9e-05,4,16
15876,-8e-05,0,9e-05,0.00013,0.00012,0.00017,2e-05,-9e-05,4,16
15877,-8e-05,0,9e-05,0.00013,0.00012,0.00017,2e-05,-9e-05,4,16
15878,-8e-05,0,9e-05,0.00013,0.00012,0.00017,2e-05,-9e-05,4,16
15879,-1e-05,0.0001,0.00012,0.00081,0.00015,0.00014,0.0001,2e-05,4,16
15880,-1e-05,0.0001,0.00012,0.00081,0.00015,0.00014,0.0001,2e-05,4,16
15881,-1e-05,0.0001,0.00012,0.00081,0.00015,0.00014,0.0001,2e-05,4,16
15882,-1e-05,0.0001,0.00012,0.00081,0.00015,0.00014,0.0001,2e-05,4,16
15883,-1e-05,0.0001,0.00012,0.00081,0.00015,0.00014,0.0001,2e-05,4,16
15884,-1e-05,0.0001,0.00012,0.00081,0.00015,0.00014,0.0001,2e-05,4,16
15885,-1e-05,0.0001,0.00012,0.00081,0.00015,0.00014,0.0001,2e-05,4,16
15886,-1e-05,0.0001,0.00012,0.00081,0.00015,0.00014,0.0001,2e-05,4,16
15888,-1e-05,0.0001,0.00012,0.00081,0.00015,0.00014,0.0001,2e-05,4,16
15889,-1e-05,0.0001,0.00012,0.00081,0.00015,0.00014,0.0001,2e-05,4,16
15890,-1e-05,0.0001,0.00012,0.00081,0.00015,0.00014,0.0001,2e-05,4,16
15891,-1e-05,0.0001,0.00012,0.00081,0.00015,0.00014,0.0001,2e-05,4,16
15892,-1e-05,0.0001,0.00012,0.00081,0.00015,0.00014,0.0001,2e-05,4,16
15893,-1e-05,0.0001,0.00012,0.00081,0.00015,0.00014,0.0001,2e-05,4,16
15894,-4e-05,-0.00014,-0.00017,0.0003,0.00042,6e-05,-8e-05,-4e-05,4,16
15895,-4e-05,-0.00014,-0.00017,0.0003,0.00042,6e-05,-8e-05,-4e-05,4,16
15896,0,0.00019,0.00028,0.00032,0.00091,0.00034,0.00019,1e-05,4,16
15897,0,0.00019,0.00028,0.00032,0.00091,0.00034,0.00019,1e-05,4,16
15898,0,0.00019,0.00028,0.00032,0.00091,0.00034,0.00019,1e-05,4,16
15899,0,0.00019,0.00028,0.00032,0.00091,0.00034,0.00019,1e-05,4,16
15900,0,0.00019,0.00028,0.00032,0.00091,0.00034,0.00019,1e-05,4,16
15901,0,0.00019,0.00028,0.00032,0.00091,0.00034,0.00019,1e-05,4,16
15902,0,0.00019,0.00028,0.00032,0.00091,0.00034,0.00019,1e-05,4,16
15903,0,0.00019,0.00028,0.00032,0.00091,0.00034,0.00019,1e-05,4,16
15904,0,0.00019,0.00028,0.00032,0.00091,0.00034,0.00019,1e-05,4,16
15905,0,0.00019,0.00028,0.00032,0.00091,0.00034,0.00019,1e-05,4,16
15906,0,0.00019,0.00028,0.00032,0.00091,0.00034,0.00019,1e-05,4,16
15907,0,0.00019,0.00028,0.00032,0.00091,0.00034,0.00019,1e-05,4,16
15908,0,0.00019,0.00028,0.00032,0.00091,0.00034,0.00019,1e-05,4,16
15909,0,0.00019,0.00028,0.00032,0.00091,0.00034,0.00019,1e-05,4,16
15910,0,0.00019,0.00028,0.00032,0.00091,0.00034,0.00019,1e-05,4,16
15911,0,0.00019,0.00028,0.00032,0.00091,0.00034,0.00019,1e-05,4,16
15912,0,0.00019,0.00028,0.00032,0.00091,0.00034,0.00019,1e-05,4,16
15913,0,0.00019,0.00028,0.00032,0.00091,0.00034,0.00019,1e-05,4,16
15914,0,0.00019,0.00028,0.00032,0.00091,0.00034,0.00019,1e-05,4,16
15915,0,0.00019,0.00028,0.00032,0.00091,0.00034,0.00019,1e-05,4,16
15916,0,0.00019,0.00028,0.00032,0.00091,0.00034,0.00019,1e-05,4,16
15917,4e-05,5e-05,4e-05,-0.00022,-0.00032,-0.00017,-3e-05,3e-05,4,16
15918,3e-05,-0.00011,-0.00023,-0.0009,-0.00109,-0.00039,-0.00012,-1e-05,4,16
15919,3e-05,-0.00011,-0.00023,-0.0009,-0.00109,-0.00039,-0.00012,-1e-05,4,16
15920,3e-05,-0.00011,-0.00023,-0.0009,-0.00109,-0.00039,-0.00012,-1e-05,4,16
15921,3e-05,-0.00011,-0.00023,-0.0009,-0.00109,-0.00039,-0.00012,-1e-05,4,16
15922,3e-05,-0.00011,-0.00023,-0.0009,-0.00109,-0.00039,-0.00012,-1e-05,4,16
15923,3e-05,-0.00011,-0.00023,-0.0009,-0.00109,-0.00039,-0.00012,-1e-05,4,16
15924,3e-05,-0.00011,-0.00023,-0.0009,-0.00109,-0.00039,-0.00012,-1e-05,4,16
15925,3e-05,-0.00011,-0.00023,-0.0009,-0.00109,-0.00039,-0.00012,-1e-05,4,16
15926,3e-05,-0.00011,-0.00023,-0.0009,-0.00109,-0.00039,-0.00012,-1e-05,4,16
15927,3e-05,-0.00011,-0.00023,-0.0009,-0.00109,-0.00039,-0.00012,-1e-05,4,16
15928,3e-05,-0.00011,-0.00023,-0.0009,-0.00109,-0.00039,-0.00012,-1e-05,4,16
15929,3e-05,-0.00011,-0.00023,-0.0009,-0.00109,-0.00039,-0.00012,-1e-05,4,16
15930,3e-05,-0.00011,-0.00023,-0.0009,-0.00109,-0.00039,-0.00012,-1e-05,4,16
15931,3e-05,-0.00011,-0.00023,-0.0009,-0.00109,-0.00039,-0.00012,-1e-05,4,16
15932,3e-05,-0.00011,-0.00023,-0.0009,-0.00109,-0.00039,-0.00012,-1e-05,4,16
15933,3e-05,-0.00011,-0.00023,-0.0009,-0.00109,-0.00039,-0.00012,-1e-05,4,16
15934,3e-05,-0.00011,-0.00023,-0.0009,-0.00109,-0.00039,-0.00012,-1e-05,4,16
15935,3e-05,-0.00011,-0.00023,-0.0009,-0.00109,-0.00039,-0.00012,-1e-05,4,16
15936,3e-05,-0.00011,-0.00023,-0.0009,-0.00109,-0.00039,-0.00012,-1e-05,4,16
15938,3e-05,-0.00011,-0.00023,-0.0009,-0.00109,-0.00039,-0.00012,-1e-05,4,16
15939,-7e-05,-0.00021,-0.00027,-0.0004,-0.00104,-0.00047,-0.0002,-7e-05,4,16
15940,-7e-05,-0.00021,-0.00027,-0.0004,-0.00104,-0.00047,-0.0002,-7e-05,4,16
15941,-4e-05,-5e-05,-0.0002,-0.0003,-0.00053,-2e-05,0,4e-05,4,16
15942,-4e-05,-5e-05,-0.0002,-0.0003,-0.00053,-2e-05,0,4e-05,4,16
15943,-4e-05,-5e-05,-0.0002,-0.0003,-0.00053,-2e-05,0,4e-05,4,16
15944,-4e-05,-5e-05,-0.0002,-0.0003,-0.00053,-2e-05,0,4e-05,4,16
15945,-4e-05,-5e-05,-0.0002,-0.0003,-0.00053,-2e-05,0,4e-05,4,16
15946,-4e-05,-5e-05,-0.0002,-0.0003,-0.00053,-2e-05,0,4e-05,4,16
15947,-4e-05,-5e-05,-0.0002,-0.0003,-0.00053,-2e-05,0,4e-05,4,16
15948,-4e-05,-5e-05,-0.0002,-0.0003,-0.00053,-2e-05,0,4e-05,4,16
15949,-4e-05,-5e-05,-0.0002,-0.0003,-0.00053,-2e-05,0,4e-05,4,16
15950,-4e-05,-5e-05,-0.0002,-0.0003,-0.00053,-2e-05,0,4e-05,4,16
15951,-4e-05,-5e-05,-0.0002,-0.0003,-0.00053,-2e-05,0,4e-05,4,16
15952,-4e-05,-5e-05,-0.0002,-0.0003,-0.00053,-2e-05,0,4e-05,4,16
15953,-4e-05,-5e-05,-0.0002,-0.0003,-0.00053,-2e-05,0,4e-05,4,16
15954,-4e-05,-5e-05,-0.0002,-0.0003,-0.00053,-2e-05,0,4e-05,4,16
15955,1e-05,1e-05,-0.00018,-0.00021,9e-05,0.00011,3e-05,1e-05,4,16
15956,1e-05,1e-05,-0.00018,-0.00021,9e-05,0.00011,3e-05,1e-05,4,16
15957,1e-05,1e-05,-0.00018,-0.00021,9e-05,0.00011,3e-05,1e-05,4,16
15958,1e-05,1e-05,-0.00018,-0.00021,9e-05,0.00011,3e-05,1e-05,4,16
15959,1e-05,1e-05,-0.00018,-0.00021,9e-05,0.00011,3e-05,1e-05,4,16
15960,-1e-05,-7e-05,4e-05,3e-05,0.00016,3e-05,-5e-05,-3e-05,4,16
15961,-1e-05,-7e-05,4e-05,3e-05,0.00016,3e-05,-5e-05,-3e-05,4,16
15962,-1e-05,-7e-05,4e-05,3e-05,0.00016,3e-05,-5e-05,-3e-05,4,16
15963,-1e-05,-7e-05,4e-05,3e-05,0.00016,3e-05,-5e-05,-3e-05,4,16
15964,-1e-05,-7e-05,4e-05,3e-05,0.00016,3e-05,-5e-05,-3e-05,4,16
15965,-1e-05,-7e-05,4e-05,3e-05,0.00016,3e-05,-5e-05,-3e-05,4,16
15966,-1e-05,-7e-05,4e-05,3e-05,0.00016,3e-05,-5e-05,-3e-05,4,16
15967,-1e-05,-7e-05,4e-05,3e-05,0.00016,3e-05,-5e-05,-3e-05,4,16
15968,-1e-05,-7e-05,4e-05,3e-05,0.00016,3e-05,-5e-05,-3e-05,4,16
15969,-1e-05,-7e-05,4e-05,3e-05,0.00016,3e-05,-5e-05,-3e-05,4,16
15970,-1e-05,-7e-05,4e-05,3e-05,0.00016,3e-05,-5e-05,-3e-05,4,16
15971,-1e-05,-7e-05,4e-05,3e-05,0.00016,3e-05,-5e-05,-3e-05,4,16
15972,-1e-05,-7e-05,4e-05,3e-05,0.00016,3e-05,-5e-05,-3e-05,4,16
15973,-1e-05,-7e-05,4e-05,3e-05,0.00016,3e-05,-5e-05,-3e-05,4,16
15974,-1e-05,-7e-05,4e-05,3e-05,0.00016,3e-05,-5e-05,-3e-05,4,16
15975,-1e-05,-7e-05,4e-05,3e-05,0.00016,3e-05,-5e-05,-3e-05,4,16
15976,-1e-05,-7e-05,4e-05,3e-05,0.00016,3e-05,-5e-05,-3e-05,4,16
15977,-1e-05,-7e-05,4e-05,3e-05,0.00016,3e-05,-5e-05,-3e-05,4,16
15978,-1e-05,-7e-05,4e-05,3e-05,0.00016,3e-05,-5e-05,-3e-05,4,16
15979,-1e-05,-7e-05,4e-05,3e-05,0.00016,3e-05,-5e-05,-3e-05,4,16
15980,-1e-05,-7e-05,4e-05,3e-05,0.00016,3e-05,-5e-05,-3e-05,4,16
15981,-1e-05,-7e-05,4e-05,3e-05,0.00016,3e-05,-5e-05,-3e-05,4,16
15982,-1e-05,-7e-05,4e-05,3e-05,0.00016,3e-05,-5e-05,-3e-05,4,16
15983,-1e-05,-7e-05,4e-05,3e-05,0.00016,3e-05,-5e-05,-3e-05,4,16
15984,0,0.00011,6e-05,-0.00033,-2e-05,0.00021,0.00011,2e-05,4,16
15985,0,0.00011,6e-05,-0.00033,-2e-05,0.00021,0.00011,2e-05,4,16
15986,0,-1e-05,4e-05,0.00022,0.00015,5e-05,0,-3e-05,4,16
15988,0,-1e-05,4e-05,0.00022,0.00015,5e-05,0,-3e-05,4,16
15989,0,-1e-05,4e-05,0.00022,0.00015,5e-05,0,-3e-05,4,16
15990,7e-05,7e-05,0.0002,0.00068,0.00023,-0.0001,3e-05,4e-05,4,16
15991,-2e-05,-0.00019,-3e-05,0.00058,-0.00012,-0.00021,-0.00014,-8e-05,4,16
15992,-2e-05,-0.00019,-3e-05,0.00058,-0.00012,-0.00021,-0.00014,-8e-05,4,16
15993,-2e-05,-0.00019,-3e-05,0.00058,-0.00012,-0.00021,-0.00014,-8e-05,4,16
15994,-2e-05,-0.00019,-3e-05,0.00058,-0.00012,-0.00021,-0.00014,-8e-05,4,16
15995,-2e-05,-0.00019,-3e-05,0.00058,-0.00012,-0.00021,-0.00014,-8e-05,4,16
15996,-2e-05,-0.00019,-3e-05,0.00058,-0.00012,-0.00021,-0.00014,-8e-05,4,16
15997,-2e-05,-0.00019,-3e-05,0.00058,-0.00012,-0.00021,-0.00014,-8e-05,4,16
15998,-2e-05,-0.00019,-3e-05,0.00058,-0.00012,-0.00021,-0.00014,-8e-05,4,16
15999,-2e-05,-0.00019,-3e-05,0.00058,-0.00012,-0.00021,-0.00014,-8e-05,4,16
16000,-2e-05,-0.00019,-3e-05,0.00058,-0.00012,-0.00021,-0.00014,-8e-05,4,16
16001,-2e-05,-0.00019,-3e-05,0.00058,-0.00012,-0.00021,-0.00014,-8e-05,4,16
16002,-2e-05,-0.00019,-3e-05,0.00058,-0.00012,-0.00021,-0.00014,-8e-05,4,16
16003,-2e-05,-0.00019,-3e-05,0.00058,-0.00012,-0.00021,-0.00014,-8e-05,4,16
16004,-2e-05,-0.00019,-3e-05,0.00058,-0.00012,-0.00021,-0.00014,-8e-05,4,16
16005,-2e-05,-0.00019,-3e-05,0.00058,-0.00012,-0.00021,-0.00014,-8e-05,4,16
16006,-2e-05,-0.00019,-3e-05,0.00058,-0.00012,-0.00021,-0.00014,-8e-05,4,16
16007,-2e-05,0,7e-05,0.00014,-4e-05,8e-05,0,-3e-05,4,16
16008,-2e-05,0,7e-05,0.00014,-4e-05,8e-05,0,-3e-05,4,16
16009,-2e-05,0,7e-05,0.00014,-4e-05,8e-05,0,-3e-05,4,16
16010,-2e-05,0,7e-05,0.00014,-4e-05,8e-05,0,-3e-05,4,16
16011,-2e-05,0,7e-05,0.00014,-4e-05,8e-05,0,-3e-05,4,16
16012,-2e-05,0,7e-05,0.00014,-4e-05,8e-05,0,-3e-05,4,16
16013,-2e-05,0,7e-05,0.00014,-4e-05,8e-05,0,-3e-05,4,16
16014,0,-4e-05,-2e-05,-0.00037,-0.00088,0.00014,1e-05,1e-05,4,16
16015,0,-4e-05,-2e-05,-0.00037,-0.00088,0.00014,1e-05,1e-05,4,16
16016,-2e-05,-7e-05,-4e-05,6e-05,-0.00046,-0.00026,-0.00016,-8e-05,4,16
16017,-2e-05,-7e-05,-4e-05,6e-05,-0.00046,-0.00026,-0.00016,-8e-05,4,16
16018,-2e-05,-7e-05,-4e-05,6e-05,-0.00046,-0.00026,-0.00016,-8e-05,4,16
16019,-2e-05,-7e-05,-4e-05,6e-05,-0.00046,-0.00026,-0.00016,-8e-05,4,16
16020,-2e-05,-7e-05,-4e-05,6e-05,-0.00046,-0.00026,-0.00016,-8e-05,4,16
16021,-2e-05,-7e-05,-4e-05,6e-05,-0.00046,-0.00026,-0.00016,-8e-05,4,16
16022,-2e-05,-7e-05,-4e-05,6e-05,-0.00046,-0.00026,-0.00016,-8e-05,4,16
16023,-2e-05,-7e-05,-4e-05,6e-05,-0.00046,-0.00026,-0.00016,-8e-05,4,16
16024,-2e-05,-7e-05,-4e-05,6e-05,-0.00046,-0.00026,-0.00016,-8e-05,4,16
16025,-2e-05,-7e-05,-4e-05,6e-05,-0.00046,-0.00026,-0.00016,-8e-05,4,16
16026,-2e-05,-7e-05,-4e-05,6e-05,-0.00046,-0.00026,-0.00016,-8e-05,4,16
16027,-2e-05,-7e-05,-4e-05,6e-05,-0.00046,-0.00026,-0.00016,-8e-05,4,16
16028,-2e-05,-7e-05,-4e-05,6e-05,-0.00046,-0.00026,-0.00016,-8e-05,4,16
16029,-2e-05,-7e-05,-4e-05,6e-05,-0.00046,-0.00026,-0.00016,-8e-05,4,16
16030,-2e-05,-7e-05,-4e-05,6e-05,-0.00046,-0.00026,-0.00016,-8e-05,4,16
16031,-2e-05,-7e-05,-4e-05,6e-05,-0.00046,-0.00026,-0.00016,-8e-05,4,16
16032,-2e-05,-7e-05,-4e-05,6e-05,-0.00046,-0.00026,-0.00016,-8e-05,4,16
16033,-2e-05,-7e-05,-4e-05,6e-05,-0.00046,-0.00026,-0.00016,-8e-05,4,16
16034,-2e-05,-7e-05,-4e-05,6e-05,-0.00046,-0.00026,-0.00016,-8e-05,4,16
16035,-2e-05,-7e-05,-4e-05,6e-05,-0.00046,-0.00026,-0.00016,-8e-05,4,16
16036,-0.0001,-0.00013,-9e-05,-0.00022,-4e-05,-0.00034,-0.00017,-9e-05,4,16
16039,-0.00012,-0.00023,-0.00027,-0.00112,-0.0008,-0.00054,-0.00031,-0.00011,4,16
16040,-0.00012,-0.00023,-0.00027,-0.00112,-0.0008,-0.00054,-0.00031,-0.00011,4,16
16041,-0.00012,-0.00023,-0.00027,-0.00112,-0.0008,-0.00054,-0.00031,-0.00011,4,16
16042,-0.00012,-0.00023,-0.00027,-0.00112,-0.0008,-0.00054,-0.00031,-0.00011,4,16
16043,-0.00012,-0.00023,-0.00027,-0.00112,-0.0008,-0.00054,-0.00031,-0.00011,4,16
16044,-0.00012,-0.00023,-0.00027,-0.00112,-0.0008,-0.00054,-0.00031,-0.00011,4,16
16045,-0.00012,-0.00023,-0.00027,-0.00112,-0.0008,-0.00054,-0.00031,-0.00011,4,16
16046,-0.00012,-0.00023,-0.00027,-0.00112,-0.0008,-0.00054,-0.00031,-0.00011,4,16
16047,-0.00012,-0.00023,-0.00027,-0.00112,-0.0008,-0.00054,-0.00031,-0.00011,4,16
16048,-0.00012,-0.00023,-0.00027,-0.00112,-0.0008,-0.00054,-0.00031,-0.00011,4,16
16049,-0.00012,-0.00023,-0.00027,-0.00112,-0.0008,-0.00054,-0.00031,-0.00011,4,16
16050,-0.00012,-0.00023,-0.00027,-0.00112,-0.0008,-0.00054,-0.00031,-0.00011,4,16
16051,7e-05,0.00031,0.0003,0.0002,0.00114,0.00094,0.00033,9e-05,4,16
16052,7e-05,0.00031,0.0003,0.0002,0.00114,0.00094,0.00033,9e-05,4,16
16053,7e-05,0.00031,0.0003,0.0002,0.00114,0.00094,0.00033,9e-05,4,16
16054,7e-05,0.00031,0.0003,0.0002,0.00114,0.00094,0.00033,9e-05,4,16
16055,7e-05,0.00031,0.0003,0.0002,0.00114,0.00094,0.00033,9e-05,4,16
16056,7e-05,0.00031,0.0003,0.0002,0.00114,0.00094,0.00033,9e-05,4,16
16057,7e-05,0.00031,0.0003,0.0002,0.00114,0.00094,0.00033,9e-05,4,16
16058,7e-05,0.00031,0.0003,0.0002,0.00114,0.00094,0.00033,9e-05,4,16
16059,-4e-05,-0.00033,-0.00026,0.00086,0.00044,-0.00026,-0.00022,-7e-05,4,16
16060,-6e-05,3e-05,2e-05,0.00052,0.0008,-1e-05,5e-05,-2e-05,4,16
16061,-6e-05,3e-05,2e-05,0.00052,0.0008,-1e-05,5e-05,-2e-05,4,16
16062,-6e-05,3e-05,2e-05,0.00052,0.0008,-1e-05,5e-05,-2e-05,4,16
16063,-6e-05,3e-05,2e-05,0.00052,0.0008,-1e-05,5e-05,-2e-05,4,16
16064,-6e-05,3e-05,2e-05,0.00052,0.0008,-1e-05,5e-05,-2e-05,4,16
16065,-6e-05,3e-05,2e-05,0.00052,0.0008,-1e-05,5e-05,-2e-05,4,16
16066,-6e-05,3e-05,2e-05,0.00052,0.0008,-1e-05,5e-05,-2e-05,4,16
16067,-6e-05,3e-05,2e-05,0.00052,0.0008,-1e-05,5e-05,-2e-05,4,16
16068,-6e-05,3e-05,2e-05,0.00052,0.0008,-1e-05,5e-05,-2e-05,4,16
16069,-6e-05,3e-05,2e-05,0.00052,0.0008,-1e-05,5e-05,-2e-05,4,16
16070,-6e-05,3e-05,2e-05,0.00052,0.0008,-1e-05,5e-05,-2e-05,4,16
16071,-6e-05,3e-05,2e-05,0.00052,0.0008,-1e-05,5e-05,-2e-05,4,16
16072,-6e-05,3e-05,2e-05,0.00052,0.0008,-1e-05,5e-05,-2e-05,4,16
16073,-6e-05,3e-05,2e-05,0.00052,0.0008,-1e-05,5e-05,-2e-05,4,16
16074,-1e-05,-0.00016,-0.00016,-0.00021,-0.00049,-0.00047,-0.00022,-6e-05,4,16
16075,-1e-05,-0.00016,-0.00016,-0.00021,-0.00049,-0.00047,-0.00022,-6e-05,4,16
16076,1e-05,-5e-05,9e-05,4e-05,-0.00013,-4e-05,-7e-05,-2e-05,4,16
16077,-2e-05,-0.00016,-0.00015,-0.00011,0.00032,4e-05,0,3e-05,4,16
16078,-2e-05,-0.00016,-0.00015,-0.00011,0.00032,4e-05,0,3e-05,4,16
16079,-2e-05,-0.00016,-0.00015,-0.00011,0.00032,4e-05,0,3e-05,4,16
16080,-2e-05,-0.00016,-0.00015,-0.00011,0.00032,4e-05,0,3e-05,4,16
16081,-2e-05,-0.00016,-0.00015,-0.00011,0.00032,4e-05,0,3e-05,4,16
16082,-2e-05,-0.00016,-0.00015,-0.00011,0.00032,4e-05,0,3e-05,4,16
16083,-2e-05,-0.00016,-0.00015,-0.00011,0.00032,4e-05,0,3e-05,4,16
16084,-2e-05,-0.00016,-0.00015,-0.00011,0.00032,4e-05,0,3e-05,4,16
16085,-2e-05,-0.00016,-0.00015,-0.00011,0.00032,4e-05,0,3e-05,4,16
16086,-2e-05,-0.00016,-0.00015,-0.00011,0.00032,4e-05,0,3e-05,4,16
16088,-2e-05,-0.00016,-0.00015,-0.00011,0.00032,4e-05,0,3e-05,4,16
16089,-2e-05,-0.00016,-0.00015,-0.00011,0.00032,4e-05,0,3e-05,4,16
16090,-2e-05,-0.00016,-0.00015,-0.00011,0.00032,4e-05,0,3e-05,4,16
16091,-2e-05,-0.00016,-0.00015,-0.00011,0.00032,4e-05,0,3e-05,4,16
16092,-2e-05,-0.00016,-0.00015,-0.00011,0.00032,4e-05,0,3e-05,4,16
16093,-2e-05,-0.00016,-0.00015,-0.00011,0.00032,4e-05,0,3e-05,4,16
16094,-2e-05,-0.00016,-0.00015,-0.00011,0.00032,4e-05,0,3e-05,4,16
16095,-2e-05,-0.00016,-0.00015,-0.00011,0.00032,4e-05,0,3e-05,4,16
16096,-2e-05,-0.00016,-0.00015,-0.00011,0.00032,4e-05,0,3e-05,4,16
16097,-6e-05,-6e-05,-7e-05,-0.00018,-0.00018,-0.00014,-0.0001,-6e-05,4,16
16098,-6e-05,-6e-05,-7e-05,-0.00018,-0.00018,-0.00014,-0.0001,-6e-05,4,16
16099,0,0.0002,0.00017,0.00015,-0.00015,0,6e-05,1e-05,4,16
16100,0,0.0002,0.00017,0.00015,-0.00015,0,6e-05,1e-05,4,16
16101,0,0.0002,0.00017,0.00015,-0.00015,0,6e-05,1e-05,4,16
16102,0,0.0002,0.00017,0.00015,-0.00015,0,6e-05,1e-05,4,16
16103,0,0.0002,0.00017,0.00015,-0.00015,0,6e-05,1e-05,4,16
16104,0,0.0002,0.00017,0.00015,-0.00015,0,6e-05,1e-05,4,16
16105,0,0.0002,0.00017,0.00015,-0.00015,0,6e-05,1e-05,4,16
16106,0,0.0002,0.00017,0.00015,-0.00015,0,6e-05,1e-05,4,16
16107,0,0.0002,0.00017,0.00015,-0.00015,0,6e-05,1e-05,4,16
16108,0,0.0002,0.00017,0.00015,-0.00015,0,6e-05,1e-05,4,16
16109,0,0.0002,0.00017,0.00015,-0.00015,0,6e-05,1e-05,4,16
16110,0,8e-05,0.00015,3e-05,-0.0003,-0.00028,-1e-05,5e-05,4,16
16111,0,8e-05,0.00015,3e-05,-0.0003,-0.00028,-1e-05,5e-05,4,16
16112,0,8e-05,0.00015,3e-05,-0.0003,-0.00028,-1e-05,5e-05,4,16
16113,0,8e-05,0.00015,3e-05,-0.0003,-0.00028,-1e-05,5e-05,4,16
16114,0,8e-05,0.00015,3e-05,-0.0003,-0.00028,-1e-05,5e-05,4,16
16115,0,8e-05,0.00015,3e-05,-0.0003,-0.00028,-1e-05,5e-05,4,16
16116,0,8e-05,0.00015,3e-05,-0.0003,-0.00028,-1e-05,5e-05,4,16
16117,0,8e-05,0.00015,3e-05,-0.0003,-0.00028,-1e-05,5e-05,4,16
16118,0,8e-05,0.00015,3e-05,-0.0003,-0.00028,-1e-05,5e-05,4,16
16119,0,8e-05,0.00015,3e-05,-0.0003,-0.00028,-1e-05,5e-05,4,16
16120,-9e-05,-6e-05,-0.00022,-0.00017,-0.00015,5e-05,-8e-05,-6e-05,4,16
16121,6e-05,0,0.00012,0.00048,0.00081,0.00064,0.00015,4e-05,4,16
16122,6e-05,0,0.00012,0.00048,0.00081,0.00064,0.00015,4e-05,4,16
16123,6e-05,0,0.00012,0.00048,0.00081,0.00064,0.00015,4e-05,4,16
16124,6e-05,0,0.00012,0.00048,0.00081,0.00064,0.00015,4e-05,4,16
16125,6e-05,0,0.00012,0.00048,0.00081,0.00064,0.00015,4e-05,4,16
16126,6e-05,0,0.00012,0.00048,0.00081,0.00064,0.00015,4e-05,4,16
16127,6e-05,0,0.00012,0.00048,0.00081,0.00064,0.00015,4e-05,4,16
16128,6e-05,0,0.00012,0.00048,0.00081,0.00064,0.00015,4e-05,4,16
16129,6e-05,0,0.00012,0.00048,0.00081,0.00064,0.00015,4e-05,4,16
16130,6e-05,0,0.00012,0.00048,0.00081,0.00064,0.00015,4e-05,4,16
16131,6e-05,0,0.00012,0.00048,0.00081,0.00064,0.00015,4e-05,4,16
16132,6e-05,0,0.00012,0.00048,0.00081,0.00064,0.00015,4e-05,4,16
16133,6e-05,0,0.00012,0.00048,0.00081,0.00064,0.00015,4e-05,4,16
16134,6e-05,0,0.00012,0.00048,0.00081,0.00064,0.00015,4e-05,4,16
16135,6e-05,0,0.00012,0.00048,0.00081,0.00064,0.00015,4e-05,4,16
16136,6e-05,0,0.00012,0.00048,0.00081,0.00064,0.00015,4e-05,4,16
16138,6e-05,0,0.00012,0.00048,0.00081,0.00064,0.00015,4e-05,4,16
16139,6e-05,0,0.00012,0.00048,0.00081,0.00064,0.00015,4e-05,4,16
16140,6e-05,0,0.00012,0.00048,0.00081,0.00064,0.00015,4e-05,4,16
16141,6e-05,0,0.00012,0.00048,0.00081,0.00064,0.00015,4e-05,4,16
16142,-3e-05,-0.00012,-4e-05,-0.00032,-0.00045,-0.00046,-0.00015,-4e-05,4,16
16143,4e-05,0.00042,0.00035,0.00081,0.00041,0.00062,0.00033,7e-05,4,16
16144,4e-05,0.00042,0.00035,0.00081,0.00041,0.00062,0.00033,7e-05,4,16
16145,4e-05,0.00042,0.00035,0.00081,0.00041,0.00062,0.00033,7e-05,4,16
16146,4e-05,0.00042,0.00035,0.00081,0.00041,0.00062,0.00033,7e-05,4,16
16147,4e-05,0.00042,0.00035,0.00081,0.00041,0.00062,0.00033,7e-05,4,16
16148,4e-05,0.00042,0.00035,0.00081,0.00041,0.00062,0.00033,7e-05,4,16
16149,4e-05,0.00042,0.00035,0.00081,0.00041,0.00062,0.00033,7e-05,4,16
16150,4e-05,0.00042,0.00035,0.00081,0.00041,0.00062,0.00033,7e-05,4,16
16151,4e-05,0.00042,0.00035,0.00081,0.00041,0.00062,0.00033,7e-05,4,16
16152,4e-05,0.00042,0.00035,0.00081,0.00041,0.00062,0.00033,7e-05,4,16
16153,4e-05,0.00042,0.00035,0.00081,0.00041,0.00062,0.00033,7e-05,4,16
16154,4e-05,0.00042,0.00035,0.00081,0.00041,0.00062,0.00033,7e-05,4,16
16155,4e-05,0.00042,0.00035,0.00081,0.00041,0.00062,0.00033,7e-05,4,16
16156,4e-05,0.00042,0.00035,0.00081,0.00041,0.00062,0.00033,7e-05,4,16
16157,4e-05,5e-05,0.00012,0.00024,0.00038,1e-05,2e-05,1e-05,4,16
16158,0,2e-05,-0.00011,-0.00073,-0.00099,-1e-05,2e-05,1e-05,4,16
16160,0,2e-05,-0.00011,-0.00073,-0.00099,-1e-05,2e-05,1e-05,4,16
16161,0,2e-05,-0.00011,-0.00073,-0.00099,-1e-05,2e-05,1e-05,4,16
16162,0,2e-05,-0.00011,-0.00073,-0.00099,-1e-05,2e-05,1e-05,4,16
16163,0,2e-05,-0.00011,-0.00073,-0.00099,-1e-05,2e-05,1e-05,4,16
16164,0,2e-05,-0.00011,-0.00073,-0.00099,-1e-05,2e-05,1e-05,4,16
16165,0,2e-05,-0.00011,-0.00073,-0.00099,-1e-05,2e-05,1e-05,4,16
16166,0,2e-05,-0.00011,-0.00073,-0.00099,-1e-05,2e-05,1e-05,4,16
16167,0,2e-05,-0.00011,-0.00073,-0.00099,-1e-05,2e-05,1e-05,4,16
16168,0,2e-05,-0.00011,-0.00073,-0.00099,-1e-05,2e-05,1e-05,4,16
16169,0,2e-05,-0.00011,-0.00073,-0.00099,-1e-05,2e-05,1e-05,4,16
16170,0,2e-05,-0.00011,-0.00073,-0.00099,-1e-05,2e-05,1e-05,4,16
16171,6e-05,2e-05,-4e-05,-0.00019,0.00015,0.00039,7e-05,4e-05,4,16
16172,6e-05,2e-05,-4e-05,-0.00019,0.00015,0.00039,7e-05,4e-05,4,16
16173,6e-05,2e-05,-4e-05,-0.00019,0.00015,0.00039,7e-05,4e-05,4,16
16174,6e-05,2e-05,-4e-05,-0.00019,0.00015,0.00039,7e-05,4e-05,4,16
16175,6e-05,2e-05,-4e-05,-0.00019,0.00015,0.00039,7e-05,4e-05,4,16
16176,6e-05,2e-05,-4e-05,-0.00019,0.00015,0.00039,7e-05,4e-05,4,16
16177,6e-05,2e-05,-4e-05,-0.00019,0.00015,0.00039,7e-05,4e-05,4,16
16178,6e-05,2e-05,-4e-05,-0.00019,0.00015,0.00039,7e-05,4e-05,4,16
16179,6e-05,2e-05,-4e-05,-0.00019,0.00015,0.00039,7e-05,4e-05,4,16
16180,6e-05,2e-05,-4e-05,-0.00019,0.00015,0.00039,7e-05,4e-05,4,16
16181,6e-05,2e-05,-4e-05,-0.00019,0.00015,0.00039,7e-05,4e-05,4,16
16182,6e-05,2e-05,-4e-05,-0.00019,0.00015,0.00039,7e-05,4e-05,4,16
16183,6e-05,2e-05,-4e-05,-0.00019,0.00015,0.00039,7e-05,4e-05,4,16
16184,6e-05,2e-05,-4e-05,-0.00019,0.00015,0.00039,7e-05,4e-05,4,16
16185,6e-05,2e-05,-4e-05,-0.00019,0.00015,0.00039,7e-05,4e-05,4,16
16187,6e-05,2e-05,-4e-05,-0.00019,0.00015,0.00039,7e-05,4e-05,4,16
16189,-4e-05,-0.00012,-6e-05,-0.00022,-0.00058,-0.00015,-0.00016,-9e-05,4,16
16190,-4e-05,-0.00012,-6e-05,-0.00022,-0.00058,-0.00015,-0.00016,-9e-05,4,16
16191,-4e-05,-0.00012,-6e-05,-0.00022,-0.00058,-0.00015,-0.00016,-9e-05,4,16
16192,-4e-05,-0.00012,-6e-05,-0.00022,-0.00058,-0.00015,-0.00016,-9e-05,4,16
16193,-4e-05,-0.00012,-6e-05,-0.00022,-0.00058,-0.00015,-0.00016,-9e-05,4,16
16194,-6e-05,5e-05,0.0001,0.00025,0.00016,0.00019,3e-05,1e-05,4,16
16195,-6e-05,5e-05,0.0001,0.00025,0.00016,0.00019,3e-05,1e-05,4,16
16196,0,-0.0002,-0.00023,-0.00054,-0.00046,-0.00011,2e-05,2e-05,4,16
16197,0,-0.0002,-0.00023,-0.00054,-0.00046,-0.00011,2e-05,2e-05,4,16
16198,0,-0.0002,-0.00023,-0.00054,-0.00046,-0.00011,2e-05,2e-05,4,16
16199,0,-0.0002,-0.00023,-0.00054,-0.00046,-0.00011,2e-05,2e-05,4,16
16200,0,-0.0002,-0.00023,-0.00054,-0.00046,-0.00011,2e-05,2e-05,4,16
16201,0,-0.0002,-0.00023,-0.00054,-0.00046,-0.00011,2e-05,2e-05,4,16
16202,0,-0.0002,-0.00023,-0.00054,-0.00046,-0.00011,2e-05,2e-05,4,16
16203,0,-0.0002,-0.00023,-0.00054,-0.00046,-0.00011,2e-05,2e-05,4,16
16204,0,-0.0002,-0.00023,-0.00054,-0.00046,-0.00011,2e-05,2e-05,4,16
16205,0,-0.0002,-0.00023,-0.00054,-0.00046,-0.00011,2e-05,2e-05,4,16
16206,0,-0.0002,-0.00023,-0.00054,-0.00046,-0.00011,2e-05,2e-05,4,16
16207,0,-0.0002,-0.00023,-0.00054,-0.00046,-0.00011,2e-05,2e-05,4,16
16208,0,-0.0002,-0.00023,-0.00054,-0.00046,-0.00011,2e-05,2e-05,4,16
16209,0,-0.0002,-0.00023,-0.00054,-0.00046,-0.00011,2e-05,2e-05,4,16
16210,0,-0.0002,-0.00023,-0.00054,-0.00046,-0.00011,2e-05,2e-05,4,16
16211,0,-0.0002,-0.00023,-0.00054,-0.00046,-0.00011,2e-05,2e-05,4,16
16212,0,-0.0002,-0.00023,-0.00054,-0.00046,-0.00011,2e-05,2e-05,4,16
16213,0,-0.0002,-0.00023,-0.00054,-0.00046,-0.00011,2e-05,2e-05,4,16
16214,0,-0.0002,-0.00023,-0.00054,-0.00046,-0.00011,2e-05,2e-05,4,16
16215,0,-0.0002,-0.00023,-0.00054,-0.00046,-0.00011,2e-05,2e-05,4,16
16216,0,-0.0002,-0.00023,-0.00054,-0.00046,-0.00011,2e-05,2e-05,4,16
16217,0,0.0001,8e-05,-0.0002,-8e-05,-0.00026,-5e-05,-1e-05,4,16
16218,0,0.0001,8e-05,-0.0002,-8e-05,-0.00026,-5e-05,-1e-05,4,16
16219,1e-05,0.00013,0.00013,0.00048,0.00053,8e-05,9e-05,4e-05,4,16
16220,1e-05,0.00013,0.00013,0.00048,0.00053,8e-05,9e-05,4e-05,4,16
16221,1e-05,0.00013,0.00013,0.00048,0.00053,8e-05,9e-05,4e-05,4,16
16222,1e-05,0.00013,0.00013,0.00048,0.00053,8e-05,9e-05,4e-05,4,16
16223,1e-05,0.00013,0.00013,0.00048,0.00053,8e-05,9e-05,4e-05,4,16
16224,1e-05,0.00013,0.00013,0.00048,0.00053,8e-05,9e-05,4e-05,4,16
16225,1e-05,0.00013,0.00013,0.00048,0.00053,8e-05,9e-05,4e-05,4,16
16226,1e-05,0.00013,0.00013,0.00048,0.00053,8e-05,9e-05,4e-05,4,16
16227,1e-05,0.00013,0.00013,0.00048,0.00053,8e-05,9e-05,4e-05,4,16
16228,1e-05,0.00013,0.00013,0.00048,0.00053,8e-05,9e-05,4e-05,4,16
16229,1e-05,0.00013,0.00013,0.00048,0.00053,8e-05,9e-05,4e-05,4,16
16230,-5e-05,-1e-05,-7e-05,-0.00084,-0.00059,7e-05,-1e-05,-2e-05,4,16
16231,-2e-05,-2e-05,2e-05,0.00026,0.00018,1e-05,-2e-05,-4e-05,4,16
16232,-2e-05,-2e-05,2e-05,0.00026,0.00018,1e-05,-2e-05,-4e-05,4,16
16233,-2e-05,-2e-05,2e-05,0.00026,0.00018,1e-05,-2e-05,-4e-05,4,16
16234,-2e-05,-2e-05,2e-05,0.00026,0.00018,1e-05,-2e-05,-4e-05,4,16
16235,-2e-05,-2e-05,2e-05,0.00026,0.00018,1e-05,-2e-05,-4e-05,4,16
16236,-2e-05,-2e-05,2e-05,0.00026,0.00018,1e-05,-2e-05,-4e-05,4,16
16239,1e-05,-0.00016,-0.00013,9e-05,-0.00039,-0.00066,-0.00022,-2e-05,4,16
16240,1e-05,-0.00016,-0.00013,9e-05,-0.00039,-0.00066,-0.00022,-2e-05,4,16
16241,1e-05,-0.00016,-0.00013,9e-05,-0.00039,-0.00066,-0.00022,-2e-05,4,16
16242,1e-05,-0.00016,-0.00013,9e-05,-0.00039,-0.00066,-0.00022,-2e-05,4,16
16243,1e-05,-0.00016,-0.00013,9e-05,-0.00039,-0.00066,-0.00022,-2e-05,4,16
16244,1e-05,-0.00016,-0.00013,9e-05,-0.00039,-0.00066,-0.00022,-2e-05,4,16
16245,1e-05,-0.00016,-0.00013,9e-05,-0.00039,-0.00066,-0.00022,-2e-05,4,16
16246,1e-05,-0.00016,-0.00013,9e-05,-0.00039,-0.00066,-0.00022,-2e-05,4,16
16247,1e-05,-0.00016,-0.00013,9e-05,-0.00039,-0.00066,-0.00022,-2e-05,4,16
16248,1e-05,-0.00016,-0.00013,9e-05,-0.00039,-0.00066,-0.00022,-2e-05,4,16
16249,1e-05,-0.00016,-0.00013,9e-05,-0.00039,-0.00066,-0.00022,-2e-05,4,16
16250,1e-05,-0.00016,-0.00013,9e-05,-0.00039,-0.00066,-0.00022,-2e-05,4,16
16251,1e-05,-0.00016,-0.00013,9e-05,-0.00039,-0.00066,-0.00022,-2e-05,4,16
16252,1e-05,-0.00016,-0.00013,9e-05,-0.00039,-0.00066,-0.00022,-2e-05,4,16
16253,1e-05,-0.00016,-0.00013,9e-05,-0.00039,-0.00066,-0.00022,-2e-05,4,16
16254,1e-05,-0.00016,-0.00013,9e-05,-0.00039,-0.00066,-0.00022,-2e-05,4,16
16255,1e-05,-0.00016,-0.00013,9e-05,-0.00039,-0.00066,-0.00022,-2e-05,4,16
16256,1e-05,-0.00016,-0.00013,9e-05,-0.00039,-0.00066,-0.00022,-2e-05,4,16
16257,1e-05,-0.00016,-0.00013,9e-05,-0.00039,-0.00066,-0.00022,-2e-05,4,16
16258,1e-05,-0.00016,-0.00013,9e-05,-0.00039,-0.00066,-0.00022,-2e-05,4,16
16259,1e-05,-0.00016,-0.00013,9e-05,-0.00039,-0.00066,-0.00022,-2e-05,4,16
16260,1e-05,-0.00016,-0.00013,9e-05,-0.00039,-0.00066,-0.00022,-2e-05,4,16
16261,1e-05,-0.00016,-0.00013,9e-05,-0.00039,-0.00066,-0.00022,-2e-05,4,16
16262,-4e-05,8e-05,0.00013,0.00076,0.0006,0.0002,1e-05,-5e-05,4,16
16263,-4e-05,-0.00011,-7e-05,0.0003,0.00029,0.00016,3e-05,0,4,16
16264,-3e-05,0,-5e-05,-0.00021,-0.00016,-1e-05,-4e-05,-3e-05,4,16
16265,-3e-05,0,-5e-05,-0.00021,-0.00016,-1e-05,-4e-05,-3e-05,4,16
16266,-3e-05,0,-5e-05,-0.00021,-0.00016,-1e-05,-4e-05,-3e-05,4,16
16267,-3e-05,0,-5e-05,-0.00021,-0.00016,-1e-05,-4e-05,-3e-05,4,16
16268,-3e-05,0,-5e-05,-0.00021,-0.00016,-1e-05,-4e-05,-3e-05,4,16
16269,-3e-05,0,-5e-05,-0.00021,-0.00016,-1e-05,-4e-05,-3e-05,4,16
16270,-3e-05,0,-5e-05,-0.00021,-0.00016,-1e-05,-4e-05,-3e-05,4,16
16271,-3e-05,0,-5e-05,-0.00021,-0.00016,-1e-05,-4e-05,-3e-05,4,16
16272,-3e-05,0,-5e-05,-0.00021,-0.00016,-1e-05,-4e-05,-3e-05,4,16
16273,-3e-05,0,-5e-05,-0.00021,-0.00016,-1e-05,-4e-05,-3e-05,4,16
16274,-3e-05,0,-5e-05,-0.00021,-0.00016,-1e-05,-4e-05,-3e-05,4,16
16275,-3e-05,0,-5e-05,-0.00021,-0.00016,-1e-05,-4e-05,-3e-05,4,16
16276,-3e-05,0,-5e-05,-0.00021,-0.00016,-1e-05,-4e-05,-3e-05,4,16
16277,-3e-05,0,-5e-05,-0.00021,-0.00016,-1e-05,-4e-05,-3e-05,4,16
16278,3e-05,0,-6e-05,-0.00032,0.00053,0.00042,0.00013,3e-05,4,16
16279,3e-05,0,-6e-05,-0.00032,0.00053,0.00042,0.00013,3e-05,4,16
16280,0.00013,0.00021,0.00018,-0.00033,0.0005,0.00028,0.00022,0.00012,4,16
16281,0.00013,0.00021,0.00018,-0.00033,0.0005,0.00028,0.00022,0.00012,4,16
16282,0.00013,0.00021,0.00018,-0.00033,0.0005,0.00028,0.00022,0.00012,4,16
16283,0.00013,0.00021,0.00018,-0.00033,0.0005,0.00028,0.00022,0.00012,4,16
16284,0.00013,0.00021,0.00018,-0.00033,0.0005,0.00028,0.00022,0.00012,4,16
16285,0.00013,0.00021,0.00018,-0.00033,0.0005,0.00028,0.00022,0.00012,4,16
16286,0.00013,0.00021,0.00018,-0.00033,0.0005,0.00028,0.00022,0.00012,4,16
16289,0.00013,0.00021,0.00018,-0.00033,0.0005,0.00028,0.00022,0.00012,4,16
16290,0.00013,0.00021,0.00018,-0.00033,0.0005,0.00028,0.00022,0.00012,4,16
16291,0.00013,0.00021,0.00018,-0.00033,0.0005,0.00028,0.00022,0.00012,4,16
16292,0.00013,0.00021,0.00018,-0.00033,0.0005,0.00028,0.00022,0.00012,4,16
16293,0.00013,0.00021,0.00018,-0.00033,0.0005,0.00028,0.00022,0.00012,4,16
16294,0.00013,0.00021,0.00018,-0.00033,0.0005,0.00028,0.00022,0.00012,4,16
16295,0.00013,0.00021,0.00018,-0.00033,0.0005,0.00028,0.00022,0.00012,4,16
16296,0.00013,0.00021,0.00018,-0.00033,0.0005,0.00028,0.00022,0.00012,4,16
16297,0.00013,0.00021,0.00018,-0.00033,0.0005,0.00028,0.00022,0.00012,4,16
16298,0.00013,0.00021,0.00018,-0.00033,0.0005,0.00028,0.00022,0.00012,4,16
16299,0.00013,0.00021,0.00018,-0.00033,0.0005,0.00028,0.00022,0.00012,4,16
16300,0.00013,0.00021,0.00018,-0.00033,0.0005,0.00028,0.00022,0.00012,4,16
16301,0.00013,0.00021,0.00018,-0.00033,0.0005,0.00028,0.00022,0.00012,4,16
16302,0.00013,0.00021,0.00018,-0.00033,0.0005,0.00028,0.00022,0.00012,4,16
16303,0.00013,0.00021,0.00018,-0.00033,0.0005,0.00028,0.00022,0.00012,4,16
16304,0.00013,0.00021,0.00018,-0.00033,0.0005,0.00028,0.00022,0.00012,4,16
16305,0.00013,0.00021,0.00018,-0.00033,0.0005,0.00028,0.00022,0.00012,4,16
16306,0.00013,0.00021,0.00018,-0.00033,0.0005,0.00028,0.00022,0.00012,4,16
16307,-4e-05,-0.00013,-0.00012,0.0004,0.00029,-0.0002,-0.0001,-4e-05,4,16
16308,-2e-05,-5e-05,0,-0.00043,-0.00062,-8e-05,-6e-05,-4e-05,4,16
16309,-2e-05,-5e-05,0,-0.00043,-0.00062,-8e-05,-6e-05,-4e-05,4,16
16310,-2e-05,-5e-05,0,-0.00043,-0.00062,-8e-05,-6e-05,-4e-05,4,16
16311,-2e-05,-5e-05,0,-0.00043,-0.00062,-8e-05,-6e-05,-4e-05,4,16
16312,-2e-05,-5e-05,0,-0.00043,-0.00062,-8e-05,-6e-05,-4e-05,4,16
16313,-2e-05,-5e-05,0,-0.00043,-0.00062,-8e-05,-6e-05,-4e-05,4,16
16314,2e-05,-5e-05,-0.00014,-0.00095,-0.00058,-5e-05,-3e-05,0,4,16
16315,2e-05,-5e-05,-0.00014,-0.00095,-0.00058,-5e-05,-3e-05,0,4,16
16316,2e-05,0.00017,0.00015,0.00016,0.00047,0.00045,0.00021,5e-05,4,16
16317,2e-05,0.00017,0.00015,0.00016,0.00047,0.00045,0.00021,5e-05,4,16
16318,2e-05,0.00017,0.00015,0.00016,0.00047,0.00045,0.00021,5e-05,4,16
16319,2e-05,0.00017,0.00015,0.00016,0.00047,0.00045,0.00021,5e-05,4,16
16320,2e-05,0.00017,0.00015,0.00016,0.00047,0.00045,0.00021,5e-05,4,16
16321,2e-05,0.00017,0.00015,0.00016,0.00047,0.00045,0.00021,5e-05,4,16
16322,2e-05,0.00017,0.00015,0.00016,0.00047,0.00045,0.00021,5e-05,4,16
16323,2e-05,0.00017,0.00015,0.00016,0.00047,0.00045,0.00021,5e-05,4,16
16324,2e-05,0.00017,0.00015,0.00016,0.00047,0.00045,0.00021,5e-05,4,16
16325,2e-05,0.00017,0.00015,0.00016,0.00047,0.00045,0.00021,5e-05,4,16
16326,2e-05,0.00017,0.00015,0.00016,0.00047,0.00045,0.00021,5e-05,4,16
16327,2e-05,0.00017,0.00015,0.00016,0.00047,0.00045,0.00021,5e-05,4,16
16328,2e-05,0.00017,0.00015,0.00016,0.00047,0.00045,0.00021,5e-05,4,16
16329,2e-05,0.00017,0.00015,0.00016,0.00047,0.00045,0.00021,5e-05,4,16
16330,2e-05,0.00017,0.00015,0.00016,0.00047,0.00045,0.00021,5e-05,4,16
16331,2e-05,0.00017,0.00015,0.00016,0.00047,0.00045,0.00021,5e-05,4,16
16332,2e-05,0.00017,0.00015,0.00016,0.00047,0.00045,0.00021,5e-05,4,16
16333,2e-05,0.00017,0.00015,0.00016,0.00047,0.00045,0.00021,5e-05,4,16
16334,2e-05,0.00017,0.00015,0.00016,0.00047,0.00045,0.00021,5e-05,4,16
16335,2e-05,0.00017,0.00015,0.00016,0.00047,0.00045,0.00021,5e-05,4,16
16336,2e-05,0.00017,0.00015,0.00016,0.00047,0.00045,0.00021,5e-05,4,16
16339,8e-05,8e-05,0.0001,0,0.00038,0.00019,0.00012,7e-05,4,16
16340,8e-05,8e-05,0.0001,0,0.00038,0.00019,0.00012,7e-05,4,16
16341,8e-05,8e-05,0.0001,0,0.00038,0.00019,0.00012,7e-05,4,16
16342,8e-05,8e-05,0.0001,0,0.00038,0.00019,0.00012,7e-05,4,16
16343,8e-05,8e-05,0.0001,0,0.00038,0.00019,0.00012,7e-05,4,16
16344,8e-05,8e-05,0.0001,0,0.00038,0.00019,0.00012,7e-05,4,16
16345,8e-05,8e-05,0.0001,0,0.00038,0.00019,0.00012,7e-05,4,16
16346,8e-05,8e-05,0.0001,0,0.00038,0.00019,0.00012,7e-05,4,16
16347,8e-05,8e-05,0.0001,0,0.00038,0.00019,0.00012,7e-05,4,16
16348,8e-05,8e-05,0.0001,0,0.00038,0.00019,0.00012,7e-05,4,16
16349,8e-05,8e-05,0.0001,0,0.00038,0.00019,0.00012,7e-05,4,16
16350,8e-05,8e-05,0.0001,0,0.00038,0.00019,0.00012,7e-05,4,16
16351,8e-05,8e-05,0.0001,0,0.00038,0.00019,0.00012,7e-05,4,16
16352,8e-05,8e-05,0.0001,0,0.00038,0.00019,0.00012,7e-05,4,16
16353,8e-05,8e-05,0.0001,0,0.00038,0.00019,0.00012,7e-05,4,16
16354,8e-05,8e-05,0.0001,0,0.00038,0.00019,0.00012,7e-05,4,16
16355,8e-05,8e-05,0.0001,0,0.00038,0.00019,0.00012,7e-05,4,16
16356,8e-05,8e-05,0.0001,0,0.00038,0.00019,0.00012,7e-05,4,16
16357,8e-05,8e-05,0.0001,0,0.00038,0.00019,0.00012,7e-05,4,16
16358,8e-05,8e-05,0.0001,0,0.00038,0.00019,0.00012,7e-05,4,16
16359,9e-05,0.00014,0.00017,0.00059,0.00047,0.00048,0.00017,8e-05,4,16
16360,9e-05,0.00014,0.00017,0.00059,0.00047,0.00048,0.00017,8e-05,4,16
16361,1e-05,-0.00012,-2e-05,0.00078,0.00032,-0.00016,-0.00014,-4e-05,4,16
16362,1e-05,-0.00012,-2e-05,0.00078,0.00032,-0.00016,-0.00014,-4e-05,4,16
16363,1e-05,-0.00012,-2e-05,0.00078,0.00032,-0.00016,-0.00014,-4e-05,4,16
16364,1e-05,-0.00012,-2e-05,0.00078,0.00032,-0.00016,-0.00014,-4e-05,4,16
16365,1e-05,-0.00012,-2e-05,0.00078,0.00032,-0.00016,-0.00014,-4e-05,4,16
16366,1e-05,-0.00012,-2e-05,0.00078,0.00032,-0.00016,-0.00014,-4e-05,4,16
16367,1e-05,-0.00012,-2e-05,0.00078,0.00032,-0.00016,-0.00014,-4e-05,4,16
16368,1e-05,-0.00012,-2e-05,0.00078,0.00032,-0.00016,-0.00014,-4e-05,4,16
16369,1e-05,-0.00012,-2e-05,0.00078,0.00032,-0.00016,-0.00014,-4e-05,4,16
16370,1e-05,-0.00012,-2e-05,0.00078,0.00032,-0.00016,-0.00014,-4e-05,4,16
16371,1e-05,-0.00012,-2e-05,0.00078,0.00032,-0.00016,-0.00014,-4e-05,4,16
16372,1e-05,-0.00012,-2e-05,0.00078,0.00032,-0.00016,-0.00014,-4e-05,4,16
16373,1e-05,-0.00012,-2e-05,0.00078,0.00032,-0.00016,-0.00014,-4e-05,4,16
16374,1e-05,-0.00012,-2e-05,0.00078,0.00032,-0.00016,-0.00014,-4e-05,4,16
16375,-0.0001,-1e-05,2e-05,-3e-05,-0.0005,-0.00016,-4e-05,-9e-05,4,16
16376,-5e-05,-0.00013,-0.00018,-0.00039,-0.00069,-1e-05,-0.00012,-7e-05,4,16
16377,-5e-05,-0.00013,-0.00018,-0.00039,-0.00069,-1e-05,-0.00012,-7e-05,4,16
16378,-5e-05,-0.00013,-0.00018,-0.00039,-0.00069,-1e-05,-0.00012,-7e-05,4,16
16379,-5e-05,-0.00013,-0.00018,-0.00039,-0.00069,-1e-05,-0.00012,-7e-05,4,16
16380,-5e-05,-0.00013,-0.00018,-0.00039,-0.00069,-1e-05,-0.00012,-7e-05,4,16
16381,-5e-05,-0.00013,-0.00018,-0.00039,-0.00069,-1e-05,-0.00012,-7e-05,4,16
16382,-5e-05,-0.00013,-0.00018,-0.00039,-0.00069,-1e-05,-0.00012,-7e-05,4,16
16383,-5e-05,-0.00013,-0.00018,-0.00039,-0.00069,-1e-05,-0.00012,-7e-05,4,16
16384,-5e-05,-0.00013,-0.00018,-0.00039,-0.00069,-1e-05,-0.00012,-7e-05,4,16
16385,-5e-05,-0.00013,-0.00018,-0.00039,-0.00069,-1e-05,-0.00012,-7e-05,4,16
16386,-5e-05,-0.00013,-0.00018,-0.00039,-0.00069,-1e-05,-0.00012,-7e-05,4,16
16389,-5e-05,-0.00013,-0.00018,-0.00039,-0.00069,-1e-05,-0.00012,-7e-05,4,16
16390,-5e-05,-0.00013,-0.00018,-0.00039,-0.00069,-1e-05,-0.00012,-7e-05,4,16
16391,-5e-05,-0.00013,-0.00018,-0.00039,-0.00069,-1e-05,-0.00012,-7e-05,4,16
16392,-5e-05,-0.00013,-0.00018,-0.00039,-0.00069,-1e-05,-0.00012,-7e-05,4,16
16393,-5e-05,-0.00013,-0.00018,-0.00039,-0.00069,-1e-05,-0.00012,-7e-05,4,16
16394,-5e-05,-0.00013,-0.00018,-0.00039,-0.00069,-1e-05,-0.00012,-7e-05,4,16
16395,-5e-05,-0.00013,-0.00018,-0.00039,-0.00069,-1e-05,-0.00012,-7e-05,4,16
16396,-5e-05,-0.00013,-0.00018,-0.00039,-0.00069,-1e-05,-0.00012,-7e-05,4,16
16397,-8e-05,-0.00022,-0.00027,-0.00028,-0.00015,-0.00019,-0.00013,-7e-05,4,16
16398,-9e-05,3e-05,2e-05,0.0001,-0.00011,0.00014,-1e-05,-5e-05,4,16
16399,-9e-05,3e-05,2e-05,0.0001,-0.00011,0.00014,-1e-05,-5e-05,4,16
16400,-9e-05,3e-05,2e-05,0.0001,-0.00011,0.00014,-1e-05,-5e-05,4,16
16401,-9e-05,3e-05,2e-05,0.0001,-0.00011,0.00014,-1e-05,-5e-05,4,16
16402,-9e-05,3e-05,2e-05,0.0001,-0.00011,0.00014,-1e-05,-5e-05,4,16
16403,-9e-05,3e-05,2e-05,0.0001,-0.00011,0.00014,-1e-05,-5e-05,4,16
16404,-9e-05,3e-05,2e-05,0.0001,-0.00011,0.00014,-1e-05,-5e-05,4,16
16405,-9e-05,3e-05,2e-05,0.0001,-0.00011,0.00014,-1e-05,-5e-05,4,16
16406,-9e-05,3e-05,2e-05,0.0001,-0.00011,0.00014,-1e-05,-5e-05,4,16
16407,-9e-05,3e-05,2e-05,0.0001,-0.00011,0.00014,-1e-05,-5e-05,4,16
16408,-9e-05,3e-05,2e-05,0.0001,-0.00011,0.00014,-1e-05,-5e-05,4,16
16409,-9e-05,3e-05,2e-05,0.0001,-0.00011,0.00014,-1e-05,-5e-05,4,16
16410,-9e-05,3e-05,2e-05,0.0001,-0.00011,0.00014,-1e-05,-5e-05,4,16
16411,-9e-05,3e-05,2e-05,0.0001,-0.00011,0.00014,-1e-05,-5e-05,4,16
16412,-9e-05,3e-05,2e-05,0.0001,-0.00011,0.00014,-1e-05,-5e-05,4,16
16413,-9e-05,3e-05,2e-05,0.0001,-0.00011,0.00014,-1e-05,-5e-05,4,16
16414,-9e-05,3e-05,2e-05,0.0001,-0.00011,0.00014,-1e-05,-5e-05,4,16
16415,-9e-05,3e-05,2e-05,0.0001,-0.00011,0.00014,-1e-05,-5e-05,4,16
16416,-9e-05,3e-05,2e-05,0.0001,-0.00011,0.00014,-1e-05,-5e-05,4,16
16417,-9e-05,3e-05,2e-05,0.0001,-0.00011,0.00014,-1e-05,-5e-05,4,16
16418,-9e-05,3e-05,2e-05,0.0001,-0.00011,0.00014,-1e-05,-5e-05,4,16
16419,-9e-05,3e-05,2e-05,0.0001,-0.00011,0.00014,-1e-05,-5e-05,4,16
16420,3e-05,3e-05,8e-05,-0.00038,0.00017,-4e-05,-4e-05,1e-05,4,16
16421,3e-05,3e-05,8e-05,-0.00038,0.00017,-4e-05,-4e-05,1e-05,4,16
16422,-3e-05,-2e-05,-3e-05,-0.00049,1e-05,6e-05,4e-05,-2e-05,4,16
16423,-3e-05,-2e-05,-3e-05,-0.00049,1e-05,6e-05,4e-05,-2e-05,4,16
16424,-3e-05,-2e-05,-3e-05,-0.00049,1e-05,6e-05,4e-05,-2e-05,4,16
16425,-3e-05,-2e-05,-3e-05,-0.00049,1e-05,6e-05,4e-05,-2e-05,4,16
16426,-3e-05,-2e-05,-3e-05,-0.00049,1e-05,6e-05,4e-05,-2e-05,4,16
16427,-3e-05,-2e-05,-3e-05,-0.00049,1e-05,6e-05,4e-05,-2e-05,4,16
16428,-3e-05,-2e-05,-3e-05,-0.00049,1e-05,6e-05,4e-05,-2e-05,4,16
16429,-3e-05,-2e-05,-3e-05,-0.00049,1e-05,6e-05,4e-05,-2e-05,4,16
16430,-3e-05,-2e-05,-3e-05,-0.00049,1e-05,6e-05,4e-05,-2e-05,4,16
16431,-3e-05,-2e-05,-3e-05,-0.00049,1e-05,6e-05,4e-05,-2e-05,4,16
16432,-3e-05,-2e-05,-3e-05,-0.00049,1e-05,6e-05,4e-05,-2e-05,4,16
16433,-3e-05,-2e-05,-3e-05,-0.00049,1e-05,6e-05,4e-05,-2e-05,4,16
16434,-2e-05,0.00017,0.00014,-0.00011,-0.00012,0.00012,0.00012,2e-05,4,16
16435,-2e-05,0.00017,0.00014,-0.00011,-0.00012,0.00012,0.00012,2e-05,4,16
16436,-0.0001,-0.00021,-0.00016,-0.00024,-0.00076,-0.00026,-0.00016,-0.00014,4,16
16439,-0.0001,-0.00021,-0.00016,-0.00024,-0.00076,-0.00026,-0.00016,-0.00014,4,16
16440,-0.0001,-0.00021,-0.00016,-0.00024,-0.00076,-0.00026,-0.00016,-0.00014,4,16
16441,-0.0001,-0.00021,-0.00016,-0.00024,-0.00076,-0.00026,-0.00016,-0.00014,4,16
16442,-0.0001,-0.00021,-0.00016,-0.00024,-0.00076,-0.00026,-0.00016,-0.00014,4,16
16443,-0.0001,-0.00021,-0.00016,-0.00024,-0.00076,-0.00026,-0.00016,-0.00014,4,16
16444,-0.0001,-0.00021,-0.00016,-0.00024,-0.00076,-0.00026,-0.00016,-0.00014,4,16
16445,-0.0001,-0.00021,-0.00016,-0.00024,-0.00076,-0.00026,-0.00016,-0.00014,4,16
16446,-0.0001,-0.00021,-0.00016,-0.00024,-0.00076,-0.00026,-0.00016,-0.00014,4,16
16447,-0.0001,-0.00021,-0.00016,-0.00024,-0.00076,-0.00026,-0.00016,-0.00014,4,16
16448,-0.0001,-0.00021,-0.00016,-0.00024,-0.00076,-0.00026,-0.00016,-0.00014,4,16
16449,-0.0001,-0.00021,-0.00016,-0.00024,-0.00076,-0.00026,-0.00016,-0.00014,4,16
16450,-0.0001,-0.00021,-0.00016,-0.00024,-0.00076,-0.00026,-0.00016,-0.00014,4,16
16451,-0.0001,-0.00021,-0.00016,-0.00024,-0.00076,-0.00026,-0.00016,-0.00014,4,16
16452,-0.0001,-0.00021,-0.00016,-0.00024,-0.00076,-0.00026,-0.00016,-0.00014,4,16
16453,-0.0001,-0.00021,-0.00016,-0.00024,-0.00076,-0.00026,-0.00016,-0.00014,4,16
16454,-0.0001,-0.00021,-0.00016,-0.00024,-0.00076,-0.00026,-0.00016,-0.00014,4,16
16455,-0.0001,-0.00021,-0.00016,-0.00024,-0.00076,-0.00026,-0.00016,-0.00014,4,16
16456,-0.0001,-0.00021,-0.00016,-0.00024,-0.00076,-0.00026,-0.00016,-0.00014,4,16
16457,-0.0001,-0.00021,-0.00016,-0.00024,-0.00076,-0.00026,-0.00016,-0.00014,4,16
16458,-0.0001,-0.00021,-0.00016,-0.00024,-0.00076,-0.00026,-0.00016,-0.00014,4,16
16459,-0.0001,-0.00021,-0.00016,-0.00024,-0.00076,-0.00026,-0.00016,-0.00014,4,16
16460,-0.0001,-0.00021,-0.00016,-0.00024,-0.00076,-0.00026,-0.00016,-0.00014,4,16
16461,-0.0001,-0.00021,-0.00016,-0.00024,-0.00076,-0.00026,-0.00016,-0.00014,4,16
16462,-0.0001,-0.00021,-0.00016,-0.00024,-0.00076,-0.00026,-0.00016,-0.00014,4,16
16463,-0.0001,-0.00021,-0.00016,-0.00024,-0.00076,-0.00026,-0.00016,-0.00014,4,16
16464,-3e-05,-9e-05,-0.00016,-0.00024,-0.00067,-0.00033,-7e-05,1e-05,4,16
16465,-3e-05,-9e-05,-0.00016,-0.00024,-0.00067,-0.00033,-7e-05,1e-05,4,16
16466,3e-05,-4e-05,9e-05,0.00044,0.00028,-7e-05,-1e-05,1e-05,4,16
16467,3e-05,-4e-05,9e-05,0.00044,0.00028,-7e-05,-1e-05,1e-05,4,16
16468,3e-05,-4e-05,9e-05,0.00044,0.00028,-7e-05,-1e-05,1e-05,4,16
16469,3e-05,-4e-05,9e-05,0.00044,0.00028,-7e-05,-1e-05,1e-05,4,16
16470,3e-05,-4e-05,9e-05,0.00044,0.00028,-7e-05,-1e-05,1e-05,4,16
16471,3e-05,-4e-05,9e-05,0.00044,0.00028,-7e-05,-1e-05,1e-05,4,16
16472,3e-05,-4e-05,9e-05,0.00044,0.00028,-7e-05,-1e-05,1e-05,4,16
16473,3e-05,-4e-05,9e-05,0.00044,0.00028,-7e-05,-1e-05,1e-05,4,16
16474,3e-05,-4e-05,9e-05,0.00044,0.00028,-7e-05,-1e-05,1e-05,4,16
16475,3e-05,-4e-05,9e-05,0.00044,0.00028,-7e-05,-1e-05,1e-05,4,16
16476,3e-05,-4e-05,9e-05,0.00044,0.00028,-7e-05,-1e-05,1e-05,4,16
16477,3e-05,-4e-05,9e-05,0.00044,0.00028,-7e-05,-1e-05,1e-05,4,16
16478,3e-05,-4e-05,9e-05,0.00044,0.00028,-7e-05,-1e-05,1e-05,4,16
16479,-5e-05,-0.00012,-0.00014,-0.00021,-7e-05,-0.00025,-0.00015,-9e-05,4,16
16480,-5e-05,-0.00012,-0.00014,-0.00021,-7e-05,-0.00025,-0.00015,-9e-05,4,16
16481,0.00017,0.00034,0.00041,0.00074,0.00099,0.00092,0.00039,0.00016,4,16
16482,0.00017,0.00034,0.00041,0.00074,0.00099,0.00092,0.00039,0.00016,4,16
16483,0.00017,0.00034,0.00041,0.00074,0.00099,0.00092,0.00039,0.00016,4,16
16484,0.00017,0.00034,0.00041,0.00074,0.00099,0.00092,0.00039,0.00016,4,16
16485,0.00017,0.00034,0.00041,0.00074,0.00099,0.00092,0.00039,0.00016,4,16
16486,0.00017,0.00034,0.00041,0.00074,0.00099,0.00092,0.00039,0.00016,4,16
16488,0.00017,0.00034,0.00041,0.00074,0.00099,0.00092,0.00039,0.00016,4,16
16489,0.00017,0.00034,0.00041,0.00074,0.00099,0.00092,0.00039,0.00016,4,16
16490,0.00017,0.00034,0.00041,0.00074,0.00099,0.00092,0.00039,0.00016,4,16
16491,0.00017,0.00034,0.00041,0.00074,0.00099,0.00092,0.00039,0.00016,4,16
16492,0.00017,0.00034,0.00041,0.00074,0.00099,0.00092,0.00039,0.00016,4,16
16493,0.00017,0.00034,0.00041,0.00074,0.00099,0.00092,0.00039,0.00016,4,16
16494,1e-05,7e-05,3e-05,-0.0003,-0.00028,8e-05,0.00013,2e-05,4,16
16495,1e-05,7e-05,3e-05,-0.0003,-0.00028,8e-05,0.00013,2e-05,4,16
16496,1e-05,7e-05,3e-05,-0.0003,-0.00028,8e-05,0.00013,2e-05,4,16
16497,1e-05,7e-05,3e-05,-0.0003,-0.00028,8e-05,0.00013,2e-05,4,16
16498,1e-05,7e-05,3e-05,-0.0003,-0.00028,8e-05,0.00013,2e-05,4,16
16499,1e-05,7e-05,3e-05,-0.0003,-0.00028,8e-05,0.00013,2e-05,4,16
16500,1e-05,7e-05,3e-05,-0.0003,-0.00028,8e-05,0.00013,2e-05,4,16
16501,1e-05,7e-05,3e-05,-0.0003,-0.00028,8e-05,0.00013,2e-05,4,16
16502,1e-05,7e-05,3e-05,-0.0003,-0.00028,8e-05,0.00013,2e-05,4,16
16503,1e-05,7e-05,3e-05,-0.0003,-0.00028,8e-05,0.00013,2e-05,4,16
16504,1e-05,7e-05,3e-05,-0.0003,-0.00028,8e-05,0.00013,2e-05,4,16
16505,1e-05,7e-05,3e-05,-0.0003,-0.00028,8e-05,0.00013,2e-05,4,16
16506,1e-05,7e-05,3e-05,-0.0003,-0.00028,8e-05,0.00013,2e-05,4,16
16507,1e-05,7e-05,3e-05,-0.0003,-0.00028,8e-05,0.00013,2e-05,4,16
16508,-2e-05,-0.00023,-0.00037,-0.00036,-0.00026,-0.00043,-0.00022,-3e-05,4,16
16509,-2e-05,-0.00023,-0.00037,-0.00036,-0.00026,-0.00043,-0.00022,-3e-05,4,16
16510,-2e-05,-0.00023,-0.00037,-0.00036,-0.00026,-0.00043,-0.00022,-3e-05,4,16
16511,-2e-05,-0.00023,-0.00037,-0.00036,-0.00026,-0.00043,-0.00022,-3e-05,4,16
16512,-2e-05,-0.00023,-0.00037,-0.00036,-0.00026,-0.00043,-0.00022,-3e-05,4,16
16513,-2e-05,-0.00023,-0.00037,-0.00036,-0.00026,-0.00043,-0.00022,-3e-05,4,16
16514,-2e-05,-0.00023,-0.00037,-0.00036,-0.00026,-0.00043,-0.00022,-3e-05,4,16
16515,-2e-05,-0.00023,-0.00037,-0.00036,-0.00026,-0.00043,-0.00022,-3e-05,4,16
16516,-2e-05,-0.00023,-0.00037,-0.00036,-0.00026,-0.00043,-0.00022,-3e-05,4,16
16517,-1e-05,5e-05,2e-05,0.0002,0.0001,-3e-05,-1e-05,2e-05,4,16
16518,-7e-05,-0.00027,-0.00031,-0.00015,-0.00067,-0.00049,-0.00021,-7e-05,4,16
16519,-7e-05,-0.00027,-0.00031,-0.00015,-0.00067,-0.00049,-0.00021,-7e-05,4,16
16520,-7e-05,-0.00027,-0.00031,-0.00015,-0.00067,-0.00049,-0.00021,-7e-05,4,16
16521,-7e-05,-0.00027,-0.00031,-0.00015,-0.00067,-0.00049,-0.00021,-7e-05,4,16
16522,-7e-05,-0.00027,-0.00031,-0.00015,-0.00067,-0.00049,-0.00021,-7e-05,4,16
16523,-7e-05,-0.00027,-0.00031,-0.00015,-0.00067,-0.00049,-0.00021,-7e-05,4,16
16524,-7e-05,-0.00027,-0.00031,-0.00015,-0.00067,-0.00049,-0.00021,-7e-05,4,16
16525,-7e-05,-0.00027,-0.00031,-0.00015,-0.00067,-0.00049,-0.00021,-7e-05,4,16
16526,-7e-05,-0.00027,-0.00031,-0.00015,-0.00067,-0.00049,-0.00021,-7e-05,4,16
16527,-7e-05,-0.00027,-0.00031,-0.00015,-0.00067,-0.00049,-0.00021,-7e-05,4,16
16528,-7e-05,-0.00027,-0.00031,-0.00015,-0.00067,-0.00049,-0.00021,-7e-05,4,16
16529,-7e-05,-0.00027,-0.00031,-0.00015,-0.00067,-0.00049,-0.00021,-7e-05,4,16
16530,-7e-05,-0.00027,-0.00031,-0.00015,-0.00067,-0.00049,-0.00021,-7e-05,4,16
16531,-7e-05,-0.00027,-0.00031,-0.00015,-0.00067,-0.00049,-0.00021,-7e-05,4,16
16532,-7e-05,-0.00027,-0.00031,-0.00015,-0.00067,-0.00049,-0.00021,-7e-05,4,16
16533,-7e-05,-0.00027,-0.00031,-0.00015,-0.00067,-0.00049,-0.00021,-7e-05,4,16
16534,-7e-05,-0.00027,-0.00031,-0.00015,-0.00067,-0.00049,-0.00021,-7e-05,4,16
16535,-7e-05,-0.00027,-0.00031,-0.00015,-0.00067,-0.00049,-0.00021,-7e-05,4,16
16536,-7e-05,-0.00027,-0.00031,-0.00015,-0.00067,-0.00049,-0.00021,-7e-05,4,16
16538,-7e-05,-0.00027,-0.00031,-0.00015,-0.00067,-0.00049,-0.00021,-7e-05,4,16
16539,-9e-05,-9e-05,-0.00012,-0.0003,-0.00079,-0.0006,-0.00014,-2e-05,4,16
16540,-9e-05,-9e-05,-0.00012,-0.0003,-0.00079,-0.0006,-0.00014,-2e-05,4,16
16541,-5e-05,7e-05,6e-05,-7e-05,-0.00067,-3e-05,3e-05,-2e-05,4,16
16542,-5e-05,7e-05,6e-05,-7e-05,-0.00067,-3e-05,3e-05,-2e-05,4,16
16543,-5e-05,7e-05,6e-05,-7e-05,-0.00067,-3e-05,3e-05,-2e-05,4,16
16544,-5e-05,7e-05,6e-05,-7e-05,-0.00067,-3e-05,3e-05,-2e-05,4,16
16545,-5e-05,7e-05,6e-05,-7e-05,-0.00067,-3e-05,3e-05,-2e-05,4,16
16546,-5e-05,7e-05,6e-05,-7e-05,-0.00067,-3e-05,3e-05,-2e-05,4,16
16547,-5e-05,7e-05,6e-05,-7e-05,-0.00067,-3e-05,3e-05,-2e-05,4,16
16548,-5e-05,7e-05,6e-05,-7e-05,-0.00067,-3e-05,3e-05,-2e-05,4,16
16549,-5e-05,7e-05,6e-05,-7e-05,-0.00067,-3e-05,3e-05,-2e-05,4,16
16550,-5e-05,7e-05,6e-05,-7e-05,-0.00067,-3e-05,3e-05,-2e-05,4,16
16551,-5e-05,7e-05,6e-05,-7e-05,-0.00067,-3e-05,3e-05,-2e-05,4,16
16552,-5e-05,7e-05,6e-05,-7e-05,-0.00067,-3e-05,3e-05,-2e-05,4,16
16553,-5e-05,7e-05,6e-05,-7e-05,-0.00067,-3e-05,3e-05,-2e-05,4,16
16554,2e-05,-7e-05,-0.0001,0.00013,-0.00072,-3e-05,-6e-05,-4e-05,4,16
16555,2e-05,-7e-05,-0.0001,0.00013,-0.00072,-3e-05,-6e-05,-4e-05,4,16
16556,2e-05,-7e-05,-0.0001,0.00013,-0.00072,-3e-05,-6e-05,-4e-05,4,16
16557,2e-05,-7e-05,-0.0001,0.00013,-0.00072,-3e-05,-6e-05,-4e-05,4,16
16558,2e-05,-7e-05,-0.0001,0.00013,-0.00072,-3e-05,-6e-05,-4e-05,4,16
16559,2e-05,-7e-05,-0.0001,0.00013,-0.00072,-3e-05,-6e-05,-4e-05,4,16
16560,-6e-05,0,1e-05,-0.00036,-0.00037,-0.00015,-7e-05,-2e-05,4,16
16561,-6e-05,0,1e-05,-0.00036,-0.00037,-0.00015,-7e-05,-2e-05,4,16
16562,-6e-05,0,1e-05,-0.00036,-0.00037,-0.00015,-7e-05,-2e-05,4,16
16563,-6e-05,0,1e-05,-0.00036,-0.00037,-0.00015,-7e-05,-2e-05,4,16
16564,-6e-05,0,1e-05,-0.00036,-0.00037,-0.00015,-7e-05,-2e-05,4,16
16565,-6e-05,0,1e-05,-0.00036,-0.00037,-0.00015,-7e-05,-2e-05,4,16
16566,-6e-05,0,1e-05,-0.00036,-0.00037,-0.00015,-7e-05,-2e-05,4,16
16567,-6e-05,0,1e-05,-0.00036,-0.00037,-0.00015,-7e-05,-2e-05,4,16
16568,-6e-05,0,1e-05,-0.00036,-0.00037,-0.00015,-7e-05,-2e-05,4,16
16569,-6e-05,0,1e-05,-0.00036,-0.00037,-0.00015,-7e-05,-2e-05,4,16
16570,-6e-05,0,1e-05,-0.00036,-0.00037,-0.00015,-7e-05,-2e-05,4,16
16571,-6e-05,0,1e-05,-0.00036,-0.00037,-0.00015,-7e-05,-2e-05,4,16
16572,-6e-05,0,1e-05,-0.00036,-0.00037,-0.00015,-7e-05,-2e-05,4,16
16573,-6e-05,0,1e-05,-0.00036,-0.00037,-0.00015,-7e-05,-2e-05,4,16
16574,-6e-05,0,1e-05,-0.00036,-0.00037,-0.00015,-7e-05,-2e-05,4,16
16575,-6e-05,0,1e-05,-0.00036,-0.00037,-0.00015,-7e-05,-2e-05,4,16
16576,-6e-05,0,1e-05,-0.00036,-0.00037,-0.00015,-7e-05,-2e-05,4,16
16577,-6e-05,0,1e-05,-0.00036,-0.00037,-0.00015,-7e-05,-2e-05,4,16
16578,-6e-05,0,1e-05,-0.00036,-0.00037,-0.00015,-7e-05,-2e-05,4,16
16579,-6e-05,0,1e-05,-0.00036,-0.00037,-0.00015,-7e-05,-2e-05,4,16
16580,-6e-05,0,1e-05,-0.00036,-0.00037,-0.00015,-7e-05,-2e-05,4,16
16581,-6e-05,0,1e-05,-0.00036,-0.00037,-0.00015,-7e-05,-2e-05,4,16
16582,-6e-05,0,1e-05,-0.00036,-0.00037,-0.00015,-7e-05,-2e-05,4,16
16583,-6e-05,0,1e-05,-0.00036,-0.00037,-0.00015,-7e-05,-2e-05,4,16
16584,0,7e-05,4e-05,-0.00081,-0.00094,-4e-05,9e-05,4e-05,4,16
16585,0,7e-05,4e-05,-0.00081,-0.00094,-4e-05,9e-05,4e-05,4,16
16586,-1e-05,0.00019,0.0001,-0.00048,-0.0004,0.00022,0.0001,2e-05,4,16
16589,-1e-05,0.00019,0.0001,-0.00048,-0.0004,0.00022,0.0001,2e-05,4,16
16590,-1e-05,0.00019,0.0001,-0.00048,-0.0004,0.00022,0.0001,2e-05,4,16
16591,-1e-05,0.00019,0.0001,-0.00048,-0.0004,0.00022,0.0001,2e-05,4,16
16592,-1e-05,0.00019,0.0001,-0.00048,-0.0004,0.00022,0.0001,2e-05,4,16
16593,-1e-05,0.00019,0.0001,-0.00048,-0.0004,0.00022,0.0001,2e-05,4,16
16594,-1e-05,0.00019,0.0001,-0.00048,-0.0004,0.00022,0.0001,2e-05,4,16
16595,-1e-05,0.00019,0.0001,-0.00048,-0.0004,0.00022,0.0001,2e-05,4,16
16596,-1e-05,0.00019,0.0001,-0.00048,-0.0004,0.00022,0.0001,2e-05,4,16
16597,-1e-05,0.00019,0.0001,-0.00048,-0.0004,0.00022,0.0001,2e-05,4,16
16598,-1e-05,0.00019,0.0001,-0.00048,-0.0004,0.00022,0.0001,2e-05,4,16
16599,0.0001,0.00012,0.00022,0.00106,0.00127,0.00035,0.00013,7e-05,4,16
16600,0.0001,0.00012,0.00022,0.00106,0.00127,0.00035,0.00013,7e-05,4,16
16601,0.0001,0.00012,0.00022,0.00106,0.00127,0.00035,0.00013,7e-05,4,16
16602,0.0001,0.00012,0.00022,0.00106,0.00127,0.00035,0.00013,7e-05,4,16
16603,0.0001,0.00012,0.00022,0.00106,0.00127,0.00035,0.00013,7e-05,4,16
16604,0.0001,0.00012,0.00022,0.00106,0.00127,0.00035,0.00013,7e-05,4,16
16605,0.0001,0.00012,0.00022,0.00106,0.00127,0.00035,0.00013,7e-05,4,16
16606,0.0001,0.00012,0.00022,0.00106,0.00127,0.00035,0.00013,7e-05,4,16
16607,-2e-05,2e-05,-3e-05,-0.00032,0.00011,-8e-05,2e-05,-1e-05,4,16
16608,-2e-05,2e-05,-3e-05,-0.00032,0.00011,-8e-05,2e-05,-1e-05,4,16
16609,-2e-05,2e-05,-3e-05,-0.00032,0.00011,-8e-05,2e-05,-1e-05,4,16
16610,-2e-05,2e-05,-3e-05,-0.00032,0.00011,-8e-05,2e-05,-1e-05,4,16
16611,-2e-05,2e-05,-3e-05,-0.00032,0.00011,-8e-05,2e-05,-1e-05,4,16
16612,-2e-05,2e-05,-3e-05,-0.00032,0.00011,-8e-05,2e-05,-1e-05,4,16
16613,-2e-05,2e-05,-3e-05,-0.00032,0.00011,-8e-05,2e-05,-1e-05,4,16
16614,-1e-05,8e-05,8e-05,-0.00052,-0.00039,0.00018,6e-05,-1e-05,4,16
16615,-1e-05,8e-05,8e-05,-0.00052,-0.00039,0.00018,6e-05,-1e-05,4,16
16616,-1e-05,8e-05,8e-05,-0.00052,-0.00039,0.00018,6e-05,-1e-05,4,16
16617,-1e-05,8e-05,8e-05,-0.00052,-0.00039,0.00018,6e-05,-1e-05,4,16
16618,-1e-05,8e-05,8e-05,-0.00052,-0.00039,0.00018,6e-05,-1e-05,4,16
16619,-1e-05,8e-05,8e-05,-0.00052,-0.00039,0.00018,6e-05,-1e-05,4,16
16620,-1e-05,8e-05,8e-05,-0.00052,-0.00039,0.00018,6e-05,-1e-05,4,16
16621,-1e-05,8e-05,8e-05,-0.00052,-0.00039,0.00018,6e-05,-1e-05,4,16
16622,-1e-05,8e-05,8e-05,-0.00052,-0.00039,0.00018,6e-05,-1e-05,4,16
16623,-1e-05,8e-05,8e-05,-0.00052,-0.00039,0.00018,6e-05,-1e-05,4,16
16624,-1e-05,8e-05,8e-05,-0.00052,-0.00039,0.00018,6e-05,-1e-05,4,16
16625,-1e-05,8e-05,8e-05,-0.00052,-0.00039,0.00018,6e-05,-1e-05,4,16
16626,-1e-05,8e-05,8e-05,-0.00052,-0.00039,0.00018,6e-05,-1e-05,4,16
16627,-1e-05,8e-05,8e-05,-0.00052,-0.00039,0.00018,6e-05,-1e-05,4,16
16628,-3e-05,-5e-05,1e-05,0.00066,-0.00014,-0.00014,-0.0001,-6e-05,4,16
16629,-3e-05,-5e-05,1e-05,0.00066,-0.00014,-0.00014,-0.0001,-6e-05,4,16
16630,-3e-05,-5e-05,1e-05,0.00066,-0.00014,-0.00014,-0.0001,-6e-05,4,16
16631,-3e-05,-5e-05,1e-05,0.00066,-0.00014,-0.00014,-0.0001,-6e-05,4,16
16632,-3e-05,-5e-05,1e-05,0.00066,-0.00014,-0.00014,-0.0001,-6e-05,4,16
16633,-3e-05,-5e-05,1e-05,0.00066,-0.00014,-0.00014,-0.0001,-6e-05,4,16
16634,-3e-05,-5e-05,1e-05,0.00066,-0.00014,-0.00014,-0.0001,-6e-05,4,16
16635,-3e-05,-5e-05,1e-05,0.00066,-0.00014,-0.00014,-0.0001,-6e-05,4,16
16636,-3e-05,-5e-05,1e-05,0.00066,-0.00014,-0.00014,-0.0001,-6e-05,4,16
16639,2e-05,-7e-05,5e-05,0.00096,0.00085,9e-05,1e-05,-1e-05,4,16
16640,6e-05,-2e-05,6e-05,-0.00012,0.00022,0.00042,6e-05,6e-05,4,16
16641,6e-05,-2e-05,6e-05,-0.00012,0.00022,0.00042,6e-05,6e-05,4,16
16642,6e-05,-2e-05,6e-05,-0.00012,0.00022,0.00042,6e-05,6e-05,4,16
16643,6e-05,-2e-05,6e-05,-0.00012,0.00022,0.00042,6e-05,6e-05,4,16
16644,6e-05,-2e-05,6e-05,-0.00012,0.00022,0.00042,6e-05,6e-05,4,16
16645,6e-05,-2e-05,6e-05,-0.00012,0.00022,0.00042,6e-05,6e-05,4,16
16646,6e-05,-2e-05,6e-05,-0.00012,0.00022,0.00042,6e-05,6e-05,4,16
16647,6e-05,-2e-05,6e-05,-0.00012,0.00022,0.00042,6e-05,6e-05,4,16
16648,6e-05,-2e-05,6e-05,-0.00012,0.00022,0.00042,6e-05,6e-05,4,16
16649,6e-05,-2e-05,6e-05,-0.00012,0.00022,0.00042,6e-05,6e-05,4,16
16650,6e-05,-2e-05,6e-05,-0.00012,0.00022,0.00042,6e-05,6e-05,4,16
16651,6e-05,-2e-05,6e-05,-0.00012,0.00022,0.00042,6e-05,6e-05,4,16
16652,6e-05,-2e-05,6e-05,-0.00012,0.00022,0.00042,6e-05,6e-05,4,16
16653,6e-05,-2e-05,6e-05,-0.00012,0.00022,0.00042,6e-05,6e-05,4,16
16654,6e-05,-2e-05,6e-05,-0.00012,0.00022,0.00042,6e-05,6e-05,4,16
16655,6e-05,-2e-05,6e-05,-0.00012,0.00022,0.00042,6e-05,6e-05,4,16
16656,6e-05,-2e-05,6e-05,-0.00012,0.00022,0.00042,6e-05,6e-05,4,16
16657,6e-05,-2e-05,6e-05,-0.00012,0.00022,0.00042,6e-05,6e-05,4,16
16658,6e-05,-2e-05,6e-05,-0.00012,0.00022,0.00042,6e-05,6e-05,4,16
16659,-9e-05,-0.00013,-0.00016,-5e-05,-0.00023,2e-05,-3e-05,-7e-05,4,16
16660,-9e-05,-0.00013,-0.00016,-5e-05,-0.00023,2e-05,-3e-05,-7e-05,4,16
16661,1e-05,-0.00018,-9e-05,0.00082,0.00059,-0.0004,-0.00016,-1e-05,4,16
16662,1e-05,-0.00018,-9e-05,0.00082,0.00059,-0.0004,-0.00016,-1e-05,4,16
16663,1e-05,-0.00018,-9e-05,0.00082,0.00059,-0.0004,-0.00016,-1e-05,4,16
16664,1e-05,-0.00018,-9e-05,0.00082,0.00059,-0.0004,-0.00016,-1e-05,4,16
16665,1e-05,-0.00018,-9e-05,0.00082,0.00059,-0.0004,-0.00016,-1e-05,4,16
16666,1e-05,-0.00018,-9e-05,0.00082,0.00059,-0.0004,-0.00016,-1e-05,4,16
16667,1e-05,-0.00018,-9e-05,0.00082,0.00059,-0.0004,-0.00016,-1e-05,4,16
16668,1e-05,-0.00018,-9e-05,0.00082,0.00059,-0.0004,-0.00016,-1e-05,4,16
16669,1e-05,-0.00018,-9e-05,0.00082,0.00059,-0.0004,-0.00016,-1e-05,4,16
16670,1e-05,-0.00018,-9e-05,0.00082,0.00059,-0.0004,-0.00016,-1e-05,4,16
16671,1e-05,-0.00018,-9e-05,0.00082,0.00059,-0.0004,-0.00016,-1e-05,4,16
16672,1e-05,-0.00018,-9e-05,0.00082,0.00059,-0.0004,-0.00016,-1e-05,4,16
16673,1e-05,-0.00018,-9e-05,0.00082,0.00059,-0.0004,-0.00016,-1e-05,4,16
16674,0,-0.0001,-0.00016,-3e-05,-0.00038,-0.0004,-0.00012,-4e-05,4,16
16675,0,-0.0001,-0.00016,-3e-05,-0.00038,-0.0004,-0.00012,-4e-05,4,16
16676,0,-0.0001,-0.00016,-3e-05,-0.00038,-0.0004,-0.00012,-4e-05,4,16
16677,0,-0.0001,-0.00016,-3e-05,-0.00038,-0.0004,-0.00012,-4e-05,4,16
16678,0,-0.0001,-0.00016,-3e-05,-0.00038,-0.0004,-0.00012,-4e-05,4,16
16679,0,-0.0001,-0.00016,-3e-05,-0.00038,-0.0004,-0.00012,-4e-05,4,16
16680,0,-0.00013,-0.00011,-3e-05,-0.00035,-0.00036,-0.00013,-4e-05,4,16
16681,0,-0.00013,-0.00011,-3e-05,-0.00035,-0.00036,-0.00013,-4e-05,4,16
16682,0,-0.00013,-0.00011,-3e-05,-0.00035,-0.00036,-0.00013,-4e-05,4,16
16683,0,-0.00013,-0.00011,-3e-05,-0.00035,-0.00036,-0.00013,-4e-05,4,16
16684,0,-0.00013,-0.00011,-3e-05,-0.00035,-0.00036,-0.00013,-4e-05,4,16
16685,0,-0.00013,-0.00011,-3e-05,-0.00035,-0.00036,-0.00013,-4e-05,4,16
16686,0,-0.00013,-0.00011,-3e-05,-0.00035,-0.00036,-0.00013,-4e-05,4,16
16689,0,-0.00013,-0.00011,-3e-05,-0.00035,-0.00036,-0.00013,-4e-05,4,16
16690,0,-0.00013,-0.00011,-3e-05,-0.00035,-0.00036,-0.00013,-4e-05,4,16
16691,0,-0.00013,-0.00011,-3e-05,-0.00035,-0.00036,-0.00013,-4e-05,4,16
16692,0,-0.00013,-0.00011,-3e-05,-0.00035,-0.00036,-0.00013,-4e-05,4,16
16693,0,-0.00013,-0.00011,-3e-05,-0.00035,-0.00036,-0.00013,-4e-05,4,16
16694,0,-0.00013,-0.00011,-3e-05,-0.00035,-0.00036,-0.00013,-4e-05,4,16
16695,0,-0.00013,-0.00011,-3e-05,-0.00035,-0.00036,-0.00013,-4e-05,4,16
16696,0,-0.00013,-0.00011,-3e-05,-0.00035,-0.00036,-0.00013,-4e-05,4,16
16697,-1e-05,0.0001,6e-05,-0.00081,-0.00045,-0.00016,1e-05,1e-05,4,16
16698,-1e-05,0.0001,6e-05,-0.00081,-0.00045,-0.00016,1e-05,1e-05,4,16
16699,1e-05,0.00025,0.00025,0.0003,-0.00025,1e-05,8e-05,3e-05,4,16
16700,1e-05,0.00025,0.00025,0.0003,-0.00025,1e-05,8e-05,3e-05,4,16
16701,1e-05,0.00025,0.00025,0.0003,-0.00025,1e-05,8e-05,3e-05,4,16
16702,1e-05,0.00025,0.00025,0.0003,-0.00025,1e-05,8e-05,3e-05,4,16
16703,1e-05,0.00025,0.00025,0.0003,-0.00025,1e-05,8e-05,3e-05,4,16
16704,1e-05,0.00025,0.00025,0.0003,-0.00025,1e-05,8e-05,3e-05,4,16
16705,1e-05,0.00025,0.00025,0.0003,-0.00025,1e-05,8e-05,3e-05,4,16
16706,1e-05,0.00025,0.00025,0.0003,-0.00025,1e-05,8e-05,3e-05,4,16
16707,1e-05,0.00025,0.00025,0.0003,-0.00025,1e-05,8e-05,3e-05,4,16
16708,1e-05,0.00025,0.00025,0.0003,-0.00025,1e-05,8e-05,3e-05,4,16
16709,1e-05,0.00025,0.00025,0.0003,-0.00025,1e-05,8e-05,3e-05,4,16
16710,1e-05,0.00025,0.00025,0.0003,-0.00025,1e-05,8e-05,3e-05,4,16
16711,1e-05,0.00025,0.00025,0.0003,-0.00025,1e-05,8e-05,3e-05,4,16
16712,1e-05,0.00025,0.00025,0.0003,-0.00025,1e-05,8e-05,3e-05,4,16
16713,1e-05,0.00025,0.00025,0.0003,-0.00025,1e-05,8e-05,3e-05,4,16
16714,1e-05,0.00025,0.00025,0.0003,-0.00025,1e-05,8e-05,3e-05,4,16
16715,1e-05,0.00025,0.00025,0.0003,-0.00025,1e-05,8e-05,3e-05,4,16
16716,1e-05,0.00025,0.00025,0.0003,-0.00025,1e-05,8e-05,3e-05,4,16
16717,1e-05,0.00025,0.00025,0.0003,-0.00025,1e-05,8e-05,3e-05,4,16
16718,1e-05,0.00025,0.00025,0.0003,-0.00025,1e-05,8e-05,3e-05,4,16
16719,-2e-05,1e-05,0,-0.00013,0,0.00013,-1e-05,-2e-05,4,16
16720,-2e-05,1e-05,0,-0.00013,0,0.00013,-1e-05,-2e-05,4,16
16721,-0.0001,-0.00024,-0.00027,-0.00057,-0.00015,-0.00039,-0.00017,-0.00011,4,16
16722,-0.0001,-0.00024,-0.00027,-0.00057,-0.00015,-0.00039,-0.00017,-0.00011,4,16
16723,-0.0001,-0.00024,-0.00027,-0.00057,-0.00015,-0.00039,-0.00017,-0.00011,4,16
16724,-0.0001,-0.00024,-0.00027,-0.00057,-0.00015,-0.00039,-0.00017,-0.00011,4,16
16725,-0.0001,-0.00024,-0.00027,-0.00057,-0.00015,-0.00039,-0.00017,-0.00011,4,16
16726,-0.0001,-0.00024,-0.00027,-0.00057,-0.00015,-0.00039,-0.00017,-0.00011,4,16
16727,-0.0001,-0.00024,-0.00027,-0.00057,-0.00015,-0.00039,-0.00017,-0.00011,4,16
16728,-0.0001,-0.00024,-0.00027,-0.00057,-0.00015,-0.00039,-0.00017,-0.00011,4,16
16729,-0.0001,-0.00024,-0.00027,-0.00057,-0.00015,-0.00039,-0.00017,-0.00011,4,16
16730,-0.0001,-0.00024,-0.00027,-0.00057,-0.00015,-0.00039,-0.00017,-0.00011,4,16
16731,-0.0001,-0.00024,-0.00027,-0.00057,-0.00015,-0.00039,-0.00017,-0.00011,4,16
16732,-0.0001,-0.00024,-0.00027,-0.00057,-0.00015,-0.00039,-0.00017,-0.00011,4,16
16733,-0.0001,-0.00024,-0.00027,-0.00057,-0.00015,-0.00039,-0.00017,-0.00011,4,16
16734,3e-05,0.00011,0.00016,0.00081,0.00064,0.00014,4e-05,-1e-05,4,16
16735,3e-05,0.00011,0.00016,0.00081,0.00064,0.00014,4e-05,-1e-05,4,16
16736,3e-05,0.00011,0.00016,0.00081,0.00064,0.00014,4e-05,-1e-05,4,16
16738,3e-05,0.00011,0.00016,0.00081,0.00064,0.00014,4e-05,-1e-05,4,16
16739,3e-05,0.00011,0.00016,0.00081,0.00064,0.00014,4e-05,-1e-05,4,16
16740,-1e-05,5e-05,-4e-05,-0.00021,-7e-05,7e-05,3e-05,1e-05,4,16
16741,-1e-05,5e-05,-4e-05,-0.00021,-7e-05,7e-05,3e-05,1e-05,4,16
16742,-1e-05,5e-05,-4e-05,-0.00021,-7e-05,7e-05,3e-05,1e-05,4,16
16743,-1e-05,5e-05,-4e-05,-0.00021,-7e-05,7e-05,3e-05,1e-05,4,16
16744,-1e-05,5e-05,-4e-05,-0.00021,-7e-05,7e-05,3e-05,1e-05,4,16
16745,-1e-05,5e-05,-4e-05,-0.00021,-7e-05,7e-05,3e-05,1e-05,4,16
16746,-1e-05,5e-05,-4e-05,-0.00021,-7e-05,7e-05,3e-05,1e-05,4,16
16747,-1e-05,5e-05,-4e-05,-0.00021,-7e-05,7e-05,3e-05,1e-05,4,16
16748,-1e-05,5e-05,-4e-05,-0.00021,-7e-05,7e-05,3e-05,1e-05,4,16
16749,-1e-05,5e-05,-4e-05,-0.00021,-7e-05,7e-05,3e-05,1e-05,4,16
16750,-1e-05,5e-05,-4e-05,-0.00021,-7e-05,7e-05,3e-05,1e-05,4,16
16751,-1e-05,5e-05,-4e-05,-0.00021,-7e-05,7e-05,3e-05,1e-05,4,16
16752,-1e-05,5e-05,-4e-05,-0.00021,-7e-05,7e-05,3e-05,1e-05,4,16
16753,-1e-05,5e-05,-4e-05,-0.00021,-7e-05,7e-05,3e-05,1e-05,4,16
16754,-1e-05,5e-05,-4e-05,-0.00021,-7e-05,7e-05,3e-05,1e-05,4,16
16755,-1e-05,5e-05,-4e-05,-0.00021,-7e-05,7e-05,3e-05,1e-05,4,16
16756,-1e-05,5e-05,-4e-05,-0.00021,-7e-05,7e-05,3e-05,1e-05,4,16
16757,-6e-05,-0.00021,-0.00024,-0.00064,-0.00084,-0.00036,-0.00016,-4e-05,4,16
16758,0,0,-0.00015,0.00015,0.0003,0.0002,8e-05,0,4,16
16759,0,0,-0.00015,0.00015,0.0003,0.0002,8e-05,0,4,16
16760,0,0,-0.00015,0.00015,0.0003,0.0002,8e-05,0,4,16
16761,0,0,-0.00015,0.00015,0.0003,0.0002,8e-05,0,4,16
16762,0,0,-0.00015,0.00015,0.0003,0.0002,8e-05,0,4,16
16763,0,0,-0.00015,0.00015,0.0003,0.0002,8e-05,0,4,16
16764,0,0,-0.00015,0.00015,0.0003,0.0002,8e-05,0,4,16
16765,0,0,-0.00015,0.00015,0.0003,0.0002,8e-05,0,4,16
16766,0,0,-0.00015,0.00015,0.0003,0.0002,8e-05,0,4,16
16767,0,0,-0.00015,0.00015,0.0003,0.0002,8e-05,0,4,16
16768,0,0,-0.00015,0.00015,0.0003,0.0002,8e-05,0,4,16
16769,0,0,-0.00015,0.00015,0.0003,0.0002,8e-05,0,4,16
16770,0,0,-0.00015,0.00015,0.0003,0.0002,8e-05,0,4,16
16771,0,0,-0.00015,0.00015,0.0003,0.0002,8e-05,0,4,16
16772,0,0,-0.00015,0.00015,0.0003,0.0002,8e-05,0,4,16
16773,0,0,-0.00015,0.00015,0.0003,0.0002,8e-05,0,4,16
16774,0,0,-0.00015,0.00015,0.0003,0.0002,8e-05,0,4,16
16775,0,0,-0.00015,0.00015,0.0003,0.0002,8e-05,0,4,16
16776,0,0,-0.00015,0.00015,0.0003,0.0002,8e-05,0,4,16
16777,0,0,-0.00015,0.00015,0.0003,0.0002,8e-05,0,4,16
16778,0,0,-0.00015,0.00015,0.0003,0.0002,8e-05,0,4,16
16779,4e-05,0.00017,0.00013,0.0001,0.00102,0.00092,0.00028,8e-05,4,16
16780,4e-05,0.00017,0.00013,0.0001,0.00102,0.00092,0.00028,8e-05,4,16
16781,4e-05,0.00019,0.00027,0.00011,0.00016,0.00023,0.00022,6e-05,4,16
16782,4e-05,0.00019,0.00027,0.00011,0.00016,0.00023,0.00022,6e-05,4,16
16783,4e-05,0.00019,0.00027,0.00011,0.00016,0.00023,0.00022,6e-05,4,16
16784,4e-05,0.00019,0.00027,0.00011,0.00016,0.00023,0.00022,6e-05,4,16
16785,4e-05,0.00019,0.00027,0.00011,0.00016,0.00023,0.00022,6e-05,4,16
16786,4e-05,0.00019,0.00027,0.00011,0.00016,0.00023,0.00022,6e-05,4,16
16788,4e-05,0.00019,0.00027,0.00011,0.00016,0.00023,0.00022,6e-05,4,16
16789,4e-05,0.00019,0.00027,0.00011,0.00016,0.00023,0.00022,6e-05,4,16
16790,4e-05,0.00019,0.00027,0.00011,0.00016,0.00023,0.00022,6e-05,4,16
16791,4e-05,0.00019,0.00027,0.00011,0.00016,0.00023,0.00022,6e-05,4,16
16792,4e-05,0.00019,0.00027,0.00011,0.00016,0.00023,0.00022,6e-05,4,16
16793,-4e-05,-7e-05,-0.00016,-8e-05,-0.0006,-0.00048,-9e-05,-3e-05,4,16
16794,-4e-05,-7e-05,-0.00016,-8e-05,-0.0006,-0.00048,-9e-05,-3e-05,4,16
16795,-4e-05,-7e-05,-0.00016,-8e-05,-0.0006,-0.00048,-9e-05,-3e-05,4,16
16796,-4e-05,-7e-05,-0.00016,-8e-05,-0.0006,-0.00048,-9e-05,-3e-05,4,16
16797,-4e-05,-7e-05,-0.00016,-8e-05,-0.0006,-0.00048,-9e-05,-3e-05,4,16
16798,-4e-05,-7e-05,-0.00016,-8e-05,-0.0006,-0.00048,-9e-05,-3e-05,4,16
16799,-4e-05,-7e-05,-0.00016,-8e-05,-0.0006,-0.00048,-9e-05,-3e-05,4,16
16800,-4e-05,-7e-05,-0.00016,-8e-05,-0.0006,-0.00048,-9e-05,-3e-05,4,16
16801,-4e-05,-7e-05,-0.00016,-8e-05,-0.0006,-0.00048,-9e-05,-3e-05,4,16
16802,-2e-05,-1e-05,-1e-05,-0.00014,0.00041,0.00027,1e-05,-1e-05,4,16
16803,-2e-05,-1e-05,-1e-05,-0.00014,0.00041,0.00027,1e-05,-1e-05,4,16
16804,-2e-05,-1e-05,-1e-05,-0.00014,0.00041,0.00027,1e-05,-1e-05,4,16
16805,-2e-05,-1e-05,-1e-05,-0.00014,0.00041,0.00027,1e-05,-1e-05,4,16
16806,-2e-05,-1e-05,-1e-05,-0.00014,0.00041,0.00027,1e-05,-1e-05,4,16
16807,-2e-05,-1e-05,-1e-05,-0.00014,0.00041,0.00027,1e-05,-1e-05,4,16
16808,-2e-05,-1e-05,-1e-05,-0.00014,0.00041,0.00027,1e-05,-1e-05,4,16
16809,-2e-05,-1e-05,-1e-05,-0.00014,0.00041,0.00027,1e-05,-1e-05,4,16
16810,-2e-05,-1e-05,-1e-05,-0.00014,0.00041,0.00027,1e-05,-1e-05,4,16
16811,-2e-05,-1e-05,-1e-05,-0.00014,0.00041,0.00027,1e-05,-1e-05,4,16
16812,-2e-05,-1e-05,-1e-05,-0.00014,0.00041,0.00027,1e-05,-1e-05,4,16
16813,-2e-05,-1e-05,-1e-05,-0.00014,0.00041,0.00027,1e-05,-1e-05,4,16
16814,-2e-05,-1e-05,-1e-05,-0.00014,0.00041,0.00027,1e-05,-1e-05,4,16
16815,-2e-05,-1e-05,-1e-05,-0.00014,0.00041,0.00027,1e-05,-1e-05,4,16
16816,-2e-05,-1e-05,-1e-05,-0.00014,0.00041,0.00027,1e-05,-1e-05,4,16
16817,1e-05,4e-05,7e-05,0.00022,0.00061,0.00028,0.0001,1e-05,4,16
16818,8e-05,0.00021,0.00014,-0.00063,-0.00062,0.00037,0.00025,9e-05,4,16
16819,8e-05,0.00021,0.00014,-0.00063,-0.00062,0.00037,0.00025,9e-05,4,16
16820,8e-05,0.00021,0.00014,-0.00063,-0.00062,0.00037,0.00025,9e-05,4,16
16821,8e-05,0.00021,0.00014,-0.00063,-0.00062,0.00037,0.00025,9e-05,4,16
16822,8e-05,0.00021,0.00014,-0.00063,-0.00062,0.00037,0.00025,9e-05,4,16
16823,8e-05,0.00021,0.00014,-0.00063,-0.00062,0.00037,0.00025,9e-05,4,16
16824,8e-05,0.00021,0.00014,-0.00063,-0.00062,0.00037,0.00025,9e-05,4,16
16825,8e-05,0.00021,0.00014,-0.00063,-0.00062,0.00037,0.00025,9e-05,4,16
16826,8e-05,0.00021,0.00014,-0.00063,-0.00062,0.00037,0.00025,9e-05,4,16
16827,8e-05,0.00021,0.00014,-0.00063,-0.00062,0.00037,0.00025,9e-05,4,16
16828,8e-05,0.00021,0.00014,-0.00063,-0.00062,0.00037,0.00025,9e-05,4,16
16829,8e-05,0.00021,0.00014,-0.00063,-0.00062,0.00037,0.00025,9e-05,4,16
16830,8e-05,0.00021,0.00014,-0.00063,-0.00062,0.00037,0.00025,9e-05,4,16
16831,8e-05,0.00021,0.00014,-0.00063,-0.00062,0.00037,0.00025,9e-05,4,16
16832,8e-05,0.00021,0.00014,-0.00063,-0.00062,0.00037,0.00025,9e-05,4,16
16833,8e-05,0.00021,0.00014,-0.00063,-0.00062,0.00037,0.00025,9e-05,4,16
16834,8e-05,0.00021,0.00014,-0.00063,-0.00062,0.00037,0.00025,9e-05,4,16
16835,8e-05,0.00021,0.00014,-0.00063,-0.00062,0.00037,0.00025,9e-05,4,16
16836,8e-05,0.00021,0.00014,-0.00063,-0.00062,0.00037,0.00025,9e-05,4,16
16838,8e-05,0.00021,0.00014,-0.00063,-0.00062,0.00037,0.00025,9e-05,4,16
16839,8e-05,0.00021,0.00014,-0.00063,-0.00062,0.00037,0.00025,9e-05,4,16
16840,3e-05,-7e-05,-7e-05,-0.00012,-4e-05,-0.00017,-0.00014,-4e-05,4,16
16841,4e-05,-0.00016,-0.00025,0.00083,0.00086,-2e-05,-0.00012,-5e-05,4,16
16842,4e-05,-0.00016,-0.00025,0.00083,0.00086,-2e-05,-0.00012,-5e-05,4,16
16843,4e-05,-0.00016,-0.00025,0.00083,0.00086,-2e-05,-0.00012,-5e-05,4,16
16844,4e-05,-0.00016,-0.00025,0.00083,0.00086,-2e-05,-0.00012,-5e-05,4,16
16845,4e-05,-0.00016,-0.00025,0.00083,0.00086,-2e-05,-0.00012,-5e-05,4,16
16846,4e-05,-0.00016,-0.00025,0.00083,0.00086,-2e-05,-0.00012,-5e-05,4,16
16847,4e-05,-0.00016,-0.00025,0.00083,0.00086,-2e-05,-0.00012,-5e-05,4,16
16848,4e-05,-0.00016,-0.00025,0.00083,0.00086,-2e-05,-0.00012,-5e-05,4,16
16850,4e-05,-0.00016,-0.00025,0.00083,0.00086,-2e-05,-0.00012,-5e-05,4,16
16851,4e-05,-0.00016,-0.00025,0.00083,0.00086,-2e-05,-0.00012,-5e-05,4,16
16852,4e-05,-0.00016,-0.00025,0.00083,0.00086,-2e-05,-0.00012,-5e-05,4,16
16853,4e-05,-0.00016,-0.00025,0.00083,0.00086,-2e-05,-0.00012,-5e-05,4,16
16854,4e-05,-0.00016,-0.00025,0.00083,0.00086,-2e-05,-0.00012,-5e-05,4,16
16855,4e-05,-0.00016,-0.00025,0.00083,0.00086,-2e-05,-0.00012,-5e-05,4,16
16856,4e-05,-0.00016,-0.00025,0.00083,0.00086,-2e-05,-0.00012,-5e-05,4,16
16857,4e-05,-0.00016,-0.00025,0.00083,0.00086,-2e-05,-0.00012,-5e-05,4,16
16858,4e-05,-0.00016,-0.00025,0.00083,0.00086,-2e-05,-0.00012,-5e-05,4,16
16859,4e-05,-0.00016,-0.00025,0.00083,0.00086,-2e-05,-0.00012,-5e-05,4,16
16860,4e-05,-0.00016,-0.00025,0.00083,0.00086,-2e-05,-0.00012,-5e-05,4,16
16861,4e-05,-0.00016,-0.00025,0.00083,0.00086,-2e-05,-0.00012,-5e-05,4,16
16862,3e-05,0.00028,0.00028,-0.00047,-0.00054,9e-05,0.00017,8e-05,4,16
16863,-6e-05,-0.00013,-2e-05,0.00046,-0.00064,-0.00022,-0.00011,-7e-05,4,16
16864,-6e-05,-0.00013,-2e-05,0.00046,-0.00064,-0.00022,-0.00011,-7e-05,4,16
16865,-6e-05,-0.00013,-2e-05,0.00046,-0.00064,-0.00022,-0.00011,-7e-05,4,16
16866,-6e-05,-0.00013,-2e-05,0.00046,-0.00064,-0.00022,-0.00011,-7e-05,4,16
16867,-6e-05,-0.00013,-2e-05,0.00046,-0.00064,-0.00022,-0.00011,-7e-05,4,16
16868,-6e-05,-0.00013,-2e-05,0.00046,-0.00064,-0.00022,-0.00011,-7e-05,4,16
16869,-6e-05,-0.00013,-2e-05,0.00046,-0.00064,-0.00022,-0.00011,-7e-05,4,16
16870,-6e-05,-0.00013,-2e-05,0.00046,-0.00064,-0.00022,-0.00011,-7e-05,4,16
16871,-6e-05,-0.00013,-2e-05,0.00046,-0.00064,-0.00022,-0.00011,-7e-05,4,16
16872,-6e-05,-0.00013,-2e-05,0.00046,-0.00064,-0.00022,-0.00011,-7e-05,4,16
16873,-6e-05,-0.00013,-2e-05,0.00046,-0.00064,-0.00022,-0.00011,-7e-05,4,16
16874,-6e-05,-0.00013,-2e-05,0.00046,-0.00064,-0.00022,-0.00011,-7e-05,4,16
16875,-6e-05,-0.00013,-2e-05,0.00046,-0.00064,-0.00022,-0.00011,-7e-05,4,16
16876,-6e-05,-0.00013,-2e-05,0.00046,-0.00064,-0.00022,-0.00011,-7e-05,4,16
16877,0,-0.00014,-0.00012,0.00035,0.00053,3e-05,2e-05,-2e-05,4,16
16878,-3e-05,-3e-05,-1e-05,-0.00041,-0.00032,-0.00023,-9e-05,0,4,16
16879,-3e-05,-3e-05,-1e-05,-0.00041,-0.00032,-0.00023,-9e-05,0,4,16
16880,-3e-05,-3e-05,-1e-05,-0.00041,-0.00032,-0.00023,-9e-05,0,4,16
16881,-3e-05,-3e-05,-1e-05,-0.00041,-0.00032,-0.00023,-9e-05,0,4,16
16882,-3e-05,-3e-05,-1e-05,-0.00041,-0.00032,-0.00023,-9e-05,0,4,16
16883,-3e-05,-3e-05,-1e-05,-0.00041,-0.00032,-0.00023,-9e-05,0,4,16
16884,-3e-05,-3e-05,-1e-05,-0.00041,-0.00032,-0.00023,-9e-05,0,4,16
16885,-3e-05,-3e-05,-1e-05,-0.00041,-0.00032,-0.00023,-9e-05,0,4,16
16886,-3e-05,-3e-05,-1e-05,-0.00041,-0.00032,-0.00023,-9e-05,0,4,16
16888,-3e-05,-3e-05,-1e-05,-0.00041,-0.00032,-0.00023,-9e-05,0,4,16
16889,-3e-05,-3e-05,-1e-05,-0.00041,-0.00032,-0.00023,-9e-05,0,4,16
16890,-3e-05,-3e-05,-1e-05,-0.00041,-0.00032,-0.00023,-9e-05,0,4,16
16891,-3e-05,-3e-05,-1e-05,-0.00041,-0.00032,-0.00023,-9e-05,0,4,16
16892,-3e-05,-3e-05,-1e-05,-0.00041,-0.00032,-0.00023,-9e-05,0,4,16
16893,-3e-05,-3e-05,-1e-05,-0.00041,-0.00032,-0.00023,-9e-05,0,4,16
16894,-3e-05,-3e-05,-1e-05,-0.00041,-0.00032,-0.00023,-9e-05,0,4,16
16895,-3e-05,-3e-05,-1e-05,-0.00041,-0.00032,-0.00023,-9e-05,0,4,16
16896,-3e-05,-3e-05,-1e-05,-0.00041,-0.00032,-0.00023,-9e-05,0,4,16
16897,-3e-05,-3e-05,-1e-05,-0.00041,-0.00032,-0.00023,-9e-05,0,4,16
16898,-3e-05,-3e-05,-1e-05,-0.00041,-0.00032,-0.00023,-9e-05,0,4,16
16899,-3e-05,-3e-05,-1e-05,-0.00041,-0.00032,-0.00023,-9e-05,0,4,16
16900,5e-05,0.00011,4e-05,-0.0002,0.00033,0.00033,0.00016,6e-05,4,16
16901,5e-05,0.00011,4e-05,-0.0002,0.00033,0.00033,0.00016,6e-05,4,16
16902,5e-05,0.00011,4e-05,-0.0002,0.00033,0.00033,0.00016,6e-05,4,16
16903,5e-05,0.00011,4e-05,-0.0002,0.00033,0.00033,0.00016,6e-05,4,16
16904,5e-05,0.00011,4e-05,-0.0002,0.00033,0.00033,0.00016,6e-05,4,16
16905,0,-1e-05,-4e-05,-0.00031,-6e-05,-0.00017,-4e-05,-3e-05,4,16
16906,-3e-05,-0.00016,-3e-05,0.00058,7e-05,-7e-05,-0.00013,-3e-05,4,16
16907,-3e-05,-0.00016,-3e-05,0.00058,7e-05,-7e-05,-0.00013,-3e-05,4,16
16908,-3e-05,-0.00016,-3e-05,0.00058,7e-05,-7e-05,-0.00013,-3e-05,4,16
16909,-3e-05,-0.00016,-3e-05,0.00058,7e-05,-7e-05,-0.00013,-3e-05,4,16
16910,-3e-05,-0.00016,-3e-05,0.00058,7e-05,-7e-05,-0.00013,-3e-05,4,16
16911,-3e-05,-0.00016,-3e-05,0.00058,7e-05,-7e-05,-0.00013,-3e-05,4,16
16912,-3e-05,-0.00016,-3e-05,0.00058,7e-05,-7e-05,-0.00013,-3e-05,4,16
16913,-7e-05,-0.00012,-0.00011,-0.0003,-0.00079,0,-0.00011,-5e-05,4,16
16914,-7e-05,-0.00012,-0.00011,-0.0003,-0.00079,0,-0.00011,-5e-05,4,16
16915,-7e-05,-0.00012,-0.00011,-0.0003,-0.00079,0,-0.00011,-5e-05,4,16
16916,-7e-05,-0.00012,-0.00011,-0.0003,-0.00079,0,-0.00011,-5e-05,4,16
16917,-7e-05,-0.00012,-0.00011,-0.0003,-0.00079,0,-0.00011,-5e-05,4,16
16918,-7e-05,-0.00012,-0.00011,-0.0003,-0.00079,0,-0.00011,-5e-05,4,16
16919,-7e-05,-0.00012,-0.00011,-0.0003,-0.00079,0,-0.00011,-5e-05,4,16
16920,-7e-05,-0.00012,-0.00011,-0.0003,-0.00079,0,-0.00011,-5e-05,4,16
16921,-7e-05,-0.00012,-0.00011,-0.0003,-0.00079,0,-0.00011,-5e-05,4,16
16922,-2e-05,4e-05,-4e-05,-0.0008,-0.00045,-0.0001,1e-05,3e-05,4,16
16923,1e-05,-1e-05,0,0.00053,7e-05,0.00017,2e-05,0,4,16
16924,1e-05,-1e-05,0,0.00053,7e-05,0.00017,2e-05,0,4,16
16925,1e-05,-1e-05,0,0.00053,7e-05,0.00017,2e-05,0,4,16
16926,1e-05,-1e-05,0,0.00053,7e-05,0.00017,2e-05,0,4,16
16927,1e-05,-1e-05,0,0.00053,7e-05,0.00017,2e-05,0,4,16
16928,1e-05,-1e-05,0,0.00053,7e-05,0.00017,2e-05,0,4,16
16929,1e-05,-1e-05,0,0.00053,7e-05,0.00017,2e-05,0,4,16
16930,1e-05,-1e-05,0,0.00053,7e-05,0.00017,2e-05,0,4,16
16931,1e-05,-1e-05,0,0.00053,7e-05,0.00017,2e-05,0,4,16
16932,1e-05,-1e-05,0,0.00053,7e-05,0.00017,2e-05,0,4,16
16933,1e-05,-1e-05,0,0.00053,7e-05,0.00017,2e-05,0,4,16
16934,1e-05,-1e-05,0,0.00053,7e-05,0.00017,2e-05,0,4,16
16935,1e-05,-1e-05,0,0.00053,7e-05,0.00017,2e-05,0,4,16
16936,1e-05,-1e-05,0,0.00053,7e-05,0.00017,2e-05,0,4,16
16938,-3e-05,8e-05,8e-05,-0.00051,5e-05,-9e-05,-5e-05,-2e-05,4,16
16939,-2e-05,1e-05,-4e-05,-0.00045,-0.00014,-6e-05,2e-05,4e-05,4,16
16941,-2e-05,1e-05,-4e-05,-0.00045,-0.00014,-6e-05,2e-05,4e-05,4,16
16942,-2e-05,1e-05,-4e-05,-0.00045,-0.00014,-6e-05,2e-05,4e-05,4,16
16943,-2e-05,1e-05,-4e-05,-0.00045,-0.00014,-6e-05,2e-05,4e-05,4,16
16944,-2e-05,1e-05,-4e-05,-0.00045,-0.00014,-6e-05,2e-05,4e-05,4,16
16945,-2e-05,1e-05,-4e-05,-0.00045,-0.00014,-6e-05,2e-05,4e-05,4,16
16946,-2e-05,1e-05,-4e-05,-0.00045,-0.00014,-6e-05,2e-05,4e-05,4,16
16947,-2e-05,1e-05,-4e-05,-0.00045,-0.00014,-6e-05,2e-05,4e-05,4,16
16948,-2e-05,1e-05,-4e-05,-0.00045,-0.00014,-6e-05,2e-05,4e-05,4,16
16949,-2e-05,1e-05,-4e-05,-0.00045,-0.00014,-6e-05,2e-05,4e-05,4,16
16950,-2e-05,1e-05,-4e-05,-0.00045,-0.00014,-6e-05,2e-05,4e-05,4,16
16951,-2e-05,1e-05,-4e-05,-0.00045,-0.00014,-6e-05,2e-05,4e-05,4,16
16952,-2e-05,1e-05,-4e-05,-0.00045,-0.00014,-6e-05,2e-05,4e-05,4,16
16953,-2e-05,1e-05,-4e-05,-0.00045,-0.00014,-6e-05,2e-05,4e-05,4,16
16954,-2e-05,1e-05,-4e-05,-0.00045,-0.00014,-6e-05,2e-05,4e-05,4,16
16955,-2e-05,1e-05,-4e-05,-0.00045,-0.00014,-6e-05,2e-05,4e-05,4,16
16956,-2e-05,1e-05,-4e-05,-0.00045,-0.00014,-6e-05,2e-05,4e-05,4,16
16957,-2e-05,1e-05,-4e-05,-0.00045,-0.00014,-6e-05,2e-05,4e-05,4,16
16958,-2e-05,1e-05,-4e-05,-0.00045,-0.00014,-6e-05,2e-05,4e-05,4,16
16959,-1e-05,-9e-05,-2e-05,0.00017,-0.0007,-0.0001,-8e-05,-4e-05,4,16
16960,-1e-05,-9e-05,-2e-05,0.00017,-0.0007,-0.0001,-8e-05,-4e-05,4,16
16961,3e-05,0.00025,0.00022,-0.00069,0.00012,2e-05,0.00015,5e-05,4,16
16962,3e-05,0.00025,0.00022,-0.00069,0.00012,2e-05,0.00015,5e-05,4,16
16963,3e-05,0.00025,0.00022,-0.00069,0.00012,2e-05,0.00015,5e-05,4,16
16964,3e-05,0.00025,0.00022,-0.00069,0.00012,2e-05,0.00015,5e-05,4,16
16965,3e-05,0.00025,0.00022,-0.00069,0.00012,2e-05,0.00015,5e-05,4,16
16966,3e-05,0.00025,0.00022,-0.00069,0.00012,2e-05,0.00015,5e-05,4,16
16967,3e-05,0.00025,0.00022,-0.00069,0.00012,2e-05,0.00015,5e-05,4,16
16968,3e-05,0.00025,0.00022,-0.00069,0.00012,2e-05,0.00015,5e-05,4,16
16969,3e-05,0.00025,0.00022,-0.00069,0.00012,2e-05,0.00015,5e-05,4,16
16970,3e-05,0.00025,0.00022,-0.00069,0.00012,2e-05,0.00015,5e-05,4,16
16971,3e-05,0.00025,0.00022,-0.00069,0.00012,2e-05,0.00015,5e-05,4,16
16972,3e-05,0.00025,0.00022,-0.00069,0.00012,2e-05,0.00015,5e-05,4,16
16973,-6e-05,-0.00013,-4e-05,0.00019,0.00041,-0.0001,-0.00011,-8e-05,4,16
16974,-6e-05,-0.00013,-4e-05,0.00019,0.00041,-0.0001,-0.00011,-8e-05,4,16
16975,-6e-05,-0.00013,-4e-05,0.00019,0.00041,-0.0001,-0.00011,-8e-05,4,16
16976,-6e-05,-0.00013,-4e-05,0.00019,0.00041,-0.0001,-0.00011,-8e-05,4,16
16977,-6e-05,-0.00013,-4e-05,0.00019,0.00041,-0.0001,-0.00011,-8e-05,4,16
16978,-6e-05,-0.00013,-4e-05,0.00019,0.00041,-0.0001,-0.00011,-8e-05,4,16
16979,-6e-05,-0.00013,-4e-05,0.00019,0.00041,-0.0001,-0.00011,-8e-05,4,16
16980,-6e-05,-0.00013,-4e-05,0.00019,0.00041,-0.0001,-0.00011,-8e-05,4,16
16981,-6e-05,-0.00013,-4e-05,0.00019,0.00041,-0.0001,-0.00011,-8e-05,4,16
16982,-1e-05,-5e-05,-0.00011,4e-05,-0.00057,-0.00035,-9e-05,-5e-05,4,16
16983,-1e-05,-5e-05,-0.00011,4e-05,-0.00057,-0.00035,-9e-05,-5e-05,4,16
16984,-1e-05,-5e-05,-0.00011,4e-05,-0.00057,-0.00035,-9e-05,-5e-05,4,16
16985,-1e-05,-5e-05,-0.00011,4e-05,-0.00057,-0.00035,-9e-05,-5e-05,4,16
16986,-1e-05,-5e-05,-0.00011,4e-05,-0.00057,-0.00035,-9e-05,-5e-05,4,16
16988,-1e-05,-5e-05,-0.00011,4e-05,-0.00057,-0.00035,-9e-05,-5e-05,4,16
16989,-1e-05,-5e-05,-0.00011,4e-05,-0.00057,-0.00035,-9e-05,-5e-05,4,16
16990,-1e-05,-5e-05,-0.00011,4e-05,-0.00057,-0.00035,-9e-05,-5e-05,4,16
16991,-1e-05,-5e-05,-0.00011,4e-05,-0.00057,-0.00035,-9e-05,-5e-05,4,16
16992,-1e-05,-5e-05,-0.00011,4e-05,-0.00057,-0.00035,-9e-05,-5e-05,4,16
16993,-1e-05,-5e-05,-0.00011,4e-05,-0.00057,-0.00035,-9e-05,-5e-05,4,16
16994,-1e-05,-5e-05,-0.00011,4e-05,-0.00057,-0.00035,-9e-05,-5e-05,4,16
16995,-1e-05,-5e-05,-0.00011,4e-05,-0.00057,-0.00035,-9e-05,-5e-05,4,16
16996,-1e-05,-5e-05,-0.00011,4e-05,-0.00057,-0.00035,-9e-05,-5e-05,4,16
16997,-4e-05,-7e-05,-5e-05,0.00018,-0.00045,-0.00017,-0.00013,-2e-05,4,16
16998,2e-05,0.00017,0.00017,-0.00029,5e-05,0.00026,0.00015,5e-05,4,16
16999,2e-05,0.00017,0.00017,-0.00029,5e-05,0.00026,0.00015,5e-05,4,16
17000,2e-05,0.00017,0.00017,-0.00029,5e-05,0.00026,0.00015,5e-05,4,16
17001,2e-05,0.00017,0.00017,-0.00029,5e-05,0.00026,0.00015,5e-05,4,16
17002,2e-05,0.00017,0.00017,-0.00029,5e-05,0.00026,0.00015,5e-05,4,16
17003,2e-05,0.00017,0.00017,-0.00029,5e-05,0.00026,0.00015,5e-05,4,16
17004,2e-05,0.00017,0.00017,-0.00029,5e-05,0.00026,0.00015,5e-05,4,16
17005,2e-05,0.00017,0.00017,-0.00029,5e-05,0.00026,0.00015,5e-05,4,16
17006,2e-05,0.00017,0.00017,-0.00029,5e-05,0.00026,0.00015,5e-05,4,16
17007,2e-05,0.00017,0.00017,-0.00029,5e-05,0.00026,0.00015,5e-05,4,16
17008,2e-05,0.00017,0.00017,-0.00029,5e-05,0.00026,0.00015,5e-05,4,16
17009,2e-05,0.00017,0.00017,-0.00029,5e-05,0.00026,0.00015,5e-05,4,16
17010,2e-05,0.00017,0.00017,-0.00029,5e-05,0.00026,0.00015,5e-05,4,16
17011,2e-05,0.00017,0.00017,-0.00029,5e-05,0.00026,0.00015,5e-05,4,16
17012,2e-05,0.00017,0.00017,-0.00029,5e-05,0.00026,0.00015,5e-05,4,16
17013,2e-05,0.00017,0.00017,-0.00029,5e-05,0.00026,0.00015,5e-05,4,16
17014,2e-05,0.00017,0.00017,-0.00029,5e-05,0.00026,0.00015,5e-05,4,16
17015,2e-05,0.00017,0.00017,-0.00029,5e-05,0.00026,0.00015,5e-05,4,16
17016,2e-05,0.00017,0.00017,-0.00029,5e-05,0.00026,0.00015,5e-05,4,16
17017,2e-05,0.00017,0.00017,-0.00029,5e-05,0.00026,0.00015,5e-05,4,16
17018,2e-05,0.00017,0.00017,-0.00029,5e-05,0.00026,0.00015,5e-05,4,16
17019,5e-05,9e-05,9e-05,0.00088,0.00096,0.00014,0.00015,4e-05,4,16
17020,5e-05,9e-05,9e-05,0.00088,0.00096,0.00014,0.00015,4e-05,4,16
17021,0,-2e-05,-2e-05,-0.00021,0.00013,-1e-05,-1e-05,-2e-05,4,16
17022,0,-2e-05,-2e-05,-0.00021,0.00013,-1e-05,-1e-05,-2e-05,4,16
17023,0,-2e-05,-2e-05,-0.00021,0.00013,-1e-05,-1e-05,-2e-05,4,16
17024,0,-2e-05,-2e-05,-0.00021,0.00013,-1e-05,-1e-05,-2e-05,4,16
17025,0,-2e-05,-2e-05,-0.00021,0.00013,-1e-05,-1e-05,-2e-05,4,16
17026,0,-2e-05,-2e-05,-0.00021,0.00013,-1e-05,-1e-05,-2e-05,4,16
17027,0,-2e-05,-2e-05,-0.00021,0.00013,-1e-05,-1e-05,-2e-05,4,16
17028,0,-2e-05,-2e-05,-0.00021,0.00013,-1e-05,-1e-05,-2e-05,4,16
17029,0,-2e-05,-2e-05,-0.00021,0.00013,-1e-05,-1e-05,-2e-05,4,16
17030,0,-2e-05,-2e-05,-0.00021,0.00013,-1e-05,-1e-05,-2e-05,4,16
17031,0,-2e-05,-2e-05,-0.00021,0.00013,-1e-05,-1e-05,-2e-05,4,16
17032,0,-2e-05,-2e-05,-0.00021,0.00013,-1e-05,-1e-05,-2e-05,4,16
17033,4e-05,6e-05,0.0001,-0.0003,-0.00043,0.0001,8e-05,5e-05,4,16
17034,4e-05,6e-05,0.0001,-0.0003,-0.00043,0.0001,8e-05,5e-05,4,16
17035,4e-05,6e-05,0.0001,-0.0003,-0.00043,0.0001,8e-05,5e-05,4,16
17036,4e-05,6e-05,0.0001,-0.0003,-0.00043,0.0001,8e-05,5e-05,4,16
17038,4e-05,6e-05,0.0001,-0.0003,-0.00043,0.0001,8e-05,5e-05,4,16
17039,4e-05,6e-05,0.0001,-0.0003,-0.00043,0.0001,8e-05,5e-05,4,16
17040,4e-05,6e-05,0.0001,-0.0003,-0.00043,0.0001,8e-05,5e-05,4,16
17041,4e-05,6e-05,0.0001,-0.0003,-0.00043,0.0001,8e-05,5e-05,4,16
17042,-2e-05,3e-05,1e-05,-0.00011,-0.00027,0.00024,2e-05,-2e-05,4,16
17043,-2e-05,3e-05,1e-05,-0.00011,-0.00027,0.00024,2e-05,-2e-05,4,16
17044,-2e-05,3e-05,1e-05,-0.00011,-0.00027,0.00024,2e-05,-2e-05,4,16
17045,-2e-05,3e-05,1e-05,-0.00011,-0.00027,0.00024,2e-05,-2e-05,4,16
17046,-2e-05,3e-05,1e-05,-0.00011,-0.00027,0.00024,2e-05,-2e-05,4,16
17047,-2e-05,3e-05,1e-05,-0.00011,-0.00027,0.00024,2e-05,-2e-05,4,16
17048,-2e-05,3e-05,1e-05,-0.00011,-0.00027,0.00024,2e-05,-2e-05,4,16
17049,-2e-05,3e-05,1e-05,-0.00011,-0.00027,0.00024,2e-05,-2e-05,4,16
17050,-2e-05,3e-05,1e-05,-0.00011,-0.00027,0.00024,2e-05,-2e-05,4,16
17051,-2e-05,3e-05,1e-05,-0.00011,-0.00027,0.00024,2e-05,-2e-05,4,16
17052,-2e-05,3e-05,1e-05,-0.00011,-0.00027,0.00024,2e-05,-2e-05,4,16
17053,-2e-05,3e-05,1e-05,-0.00011,-0.00027,0.00024,2e-05,-2e-05,4,16
17054,-2e-05,3e-05,1e-05,-0.00011,-0.00027,0.00024,2e-05,-2e-05,4,16
17055,-2e-05,3e-05,1e-05,-0.00011,-0.00027,0.00024,2e-05,-2e-05,4,16
17056,-2e-05,3e-05,1e-05,-0.00011,-0.00027,0.00024,2e-05,-2e-05,4,16
17057,0.0001,7e-05,0.00015,0.00041,0.00019,-4e-05,2e-05,2e-05,4,16
17058,-7e-05,-9e-05,-0.0001,9e-05,0.00013,-0.00015,-7e-05,-3e-05,4,16
17059,-7e-05,-9e-05,-0.0001,9e-05,0.00013,-0.00015,-7e-05,-3e-05,4,16
17060,-7e-05,-9e-05,-0.0001,9e-05,0.00013,-0.00015,-7e-05,-3e-05,4,16
17061,-7e-05,-9e-05,-0.0001,9e-05,0.00013,-0.00015,-7e-05,-3e-05,4,16
17062,-7e-05,-9e-05,-0.0001,9e-05,0.00013,-0.00015,-7e-05,-3e-05,4,16
17063,-7e-05,-9e-05,-0.0001,9e-05,0.00013,-0.00015,-7e-05,-3e-05,4,16
17064,-7e-05,-9e-05,-0.0001,9e-05,0.00013,-0.00015,-7e-05,-3e-05,4,16
17065,-7e-05,-9e-05,-0.0001,9e-05,0.00013,-0.00015,-7e-05,-3e-05,4,16
17066,-7e-05,-9e-05,-0.0001,9e-05,0.00013,-0.00015,-7e-05,-3e-05,4,16
17067,-7e-05,-9e-05,-0.0001,9e-05,0.00013,-0.00015,-7e-05,-3e-05,4,16
17068,-7e-05,-9e-05,-0.0001,9e-05,0.00013,-0.00015,-7e-05,-3e-05,4,16
17069,-7e-05,-9e-05,-0.0001,9e-05,0.00013,-0.00015,-7e-05,-3e-05,4,16
17070,-7e-05,-9e-05,-0.0001,9e-05,0.00013,-0.00015,-7e-05,-3e-05,4,16
17071,-7e-05,-9e-05,-0.0001,9e-05,0.00013,-0.00015,-7e-05,-3e-05,4,16
17072,-7e-05,-9e-05,-0.0001,9e-05,0.00013,-0.00015,-7e-05,-3e-05,4,16
17073,-7e-05,-9e-05,-0.0001,9e-05,0.00013,-0.00015,-7e-05,-3e-05,4,16
17074,-7e-05,-9e-05,-0.0001,9e-05,0.00013,-0.00015,-7e-05,-3e-05,4,16
17075,-7e-05,-9e-05,-0.0001,9e-05,0.00013,-0.00015,-7e-05,-3e-05,4,16
17076,-7e-05,-9e-05,-0.0001,9e-05,0.00013,-0.00015,-7e-05,-3e-05,4,16
17077,-7e-05,-9e-05,-0.0001,9e-05,0.00013,-0.00015,-7e-05,-3e-05,4,16
17078,-7e-05,-9e-05,-0.0001,9e-05,0.00013,-0.00015,-7e-05,-3e-05,4,16
17079,-7e-05,-9e-05,-0.0001,9e-05,0.00013,-0.00015,-7e-05,-3e-05,4,16
17080,-7e-05,-9e-05,-0.0001,9e-05,0.00013,-0.00015,-7e-05,-3e-05,4,16
17081,-7e-05,-9e-05,-0.0001,9e-05,0.00013,-0.00015,-7e-05,-3e-05,4,16
17082,-7e-05,-9e-05,-0.0001,9e-05,0.00013,-0.00015,-7e-05,-3e-05,4,16
17083,-7e-05,-9e-05,-0.0001,9e-05,0.00013,-0.00015,-7e-05,-3e-05,4,16
17084,-7e-05,-9e-05,-0.0001,9e-05,0.00013,-0.00015,-7e-05,-3e-05,4,16
17085,-7e-05,-9e-05,-0.0001,9e-05,0.00013,-0.00015,-7e-05,-3e-05,4,16
17086,-7e-05,-9e-05,-0.0001,9e-05,0.00013,-0.00015,-7e-05,-3e-05,4,16
17088,-7e-05,-7e-05,-7e-05,-0.00025,-0.00049,-0.00021,-0.00015,-4e-05,4,16
17089,4e-05,0.00018,0.00016,0.00034,0.00102,0.00043,0.00015,3e-05,4,16
17090,4e-05,0.00018,0.00016,0.00034,0.00102,0.00043,0.00015,3e-05,4,16
17091,4e-05,0.00018,0.00016,0.00034,0.00102,0.00043,0.00015,3e-05,4,16
17092,4e-05,0.00018,0.00016,0.00034,0.00102,0.00043,0.00015,3e-05,4,16
17093,6e-05,4e-05,6e-05,5e-05,0.00075,0.00026,6e-05,2e-05,4,16
17094,6e-05,4e-05,6e-05,5e-05,0.00075,0.00026,6e-05,2e-05,4,16
17095,6e-05,4e-05,6e-05,5e-05,0.00075,0.00026,6e-05,2e-05,4,16
17096,6e-05,4e-05,6e-05,5e-05,0.00075,0.00026,6e-05,2e-05,4,16
17097,6e-05,4e-05,6e-05,5e-05,0.00075,0.00026,6e-05,2e-05,4,16
17098,6e-05,4e-05,6e-05,5e-05,0.00075,0.00026,6e-05,2e-05,4,16
17099,6e-05,4e-05,6e-05,5e-05,0.00075,0.00026,6e-05,2e-05,4,16
17100,6e-05,4e-05,6e-05,5e-05,0.00075,0.00026,6e-05,2e-05,4,16
17101,6e-05,4e-05,6e-05,5e-05,0.00075,0.00026,6e-05,2e-05,4,16
17102,-2e-05,-0.00031,-0.0002,0.00075,0.00022,-0.00013,-0.00023,-4e-05,4,16
17103,-2e-05,-0.00031,-0.0002,0.00075,0.00022,-0.00013,-0.00023,-4e-05,4,16
17104,-2e-05,-0.00031,-0.0002,0.00075,0.00022,-0.00013,-0.00023,-4e-05,4,16
17105,-2e-05,-0.00031,-0.0002,0.00075,0.00022,-0.00013,-0.00023,-4e-05,4,16
17106,-2e-05,-0.00031,-0.0002,0.00075,0.00022,-0.00013,-0.00023,-4e-05,4,16
17107,-2e-05,-0.00031,-0.0002,0.00075,0.00022,-0.00013,-0.00023,-4e-05,4,16
17108,-2e-05,-0.00031,-0.0002,0.00075,0.00022,-0.00013,-0.00023,-4e-05,4,16
