16847,8e-05,0.0001,0.00025,0.0007,0.00079,0.00035,8e-05,9e-05,4,19
16848,8e-05,0.0001,0.00025,0.0007,0.00079,0.00035,8e-05,9e-05,4,19
16849,8e-05,0.0001,0.00025,0.0007,0.00079,0.00035,8e-05,9e-05,4,19
16850,8e-05,0.0001,0.00025,0.0007,0.00079,0.00035,8e-05,9e-05,4,19
16851,8e-05,0.0001,0.00025,0.0007,0.00079,0.00035,8e-05,9e-05,4,19
16852,8e-05,0.0001,0.00025,0.0007,0.00079,0.00035,8e-05,9e-05,4,19
16853,1e-05,1e-05,0.00012,0.00012,0.00018,-0.00017,-3e-05,-2e-05,4,19
16854,1e-05,1e-05,0.00012,0.00012,0.00018,-0.00017,-3e-05,-2e-05,4,19
16855,1e-05,1e-05,0.00012,0.00012,0.00018,-0.00017,-3e-05,-2e-05,4,19
16856,1e-05,1e-05,0.00012,0.00012,0.00018,-0.00017,-3e-05,-2e-05,4,19
16857,1e-05,1e-05,0.00012,0.00012,0.00018,-0.00017,-3e-05,-2e-05,4,19
16858,1e-05,1e-05,0.00012,0.00012,0.00018,-0.00017,-3e-05,-2e-05,4,19
16859,1e-05,1e-05,0.00012,0.00012,0.00018,-0.00017,-3e-05,-2e-05,4,19
16860,1e-05,1e-05,0.00012,0.00012,0.00018,-0.00017,-3e-05,-2e-05,4,19
16861,1e-05,1e-05,0.00012,0.00012,0.00018,-0.00017,-3e-05,-2e-05,4,19
16862,2e-05,-2e-05,-0.0001,0.00023,-0.00036,-0.00016,0,2e-05,4,19
16863,2e-05,-2e-05,-0.0001,0.00023,-0.00036,-0.00016,0,2e-05,4,19
16864,2e-05,-2e-05,-0.0001,0.00023,-0.00036,-0.00016,0,2e-05,4,19
16865,2e-05,-2e-05,-0.0001,0.00023,-0.00036,-0.00016,0,2e-05,4,19
16866,2e-05,-2e-05,-0.0001,0.00023,-0.00036,-0.00016,0,2e-05,4,19
16867,2e-05,-2e-05,-0.0001,0.00023,-0.00036,-0.00016,0,2e-05,4,19
16868,2e-05,-2e-05,-0.0001,0.00023,-0.00036,-0.00016,0,2e-05,4,19
16869,2e-05,-2e-05,-0.0001,0.00023,-0.00036,-0.00016,0,2e-05,4,19
16870,2e-05,-2e-05,-0.0001,0.00023,-0.00036,-0.00016,0,2e-05,4,19
16871,2e-05,-2e-05,-0.0001,0.00023,-0.00036,-0.00016,0,2e-05,4,19
16872,2e-05,-2e-05,-0.0001,0.00023,-0.00036,-0.00016,0,2e-05,4,19
16873,2e-05,-2e-05,-0.0001,0.00023,-0.00036,-0.00016,0,2e-05,4,19
16874,2e-05,-2e-05,-0.0001,0.00023,-0.00036,-0.00016,0,2e-05,4,19
16875,2e-05,-2e-05,-0.0001,0.00023,-0.00036,-0.00016,0,2e-05,4,19
16876,-1e-05,2e-05,7e-05,-0.00017,-0.00062,-0.00011,-1e-05,-3e-05,4,19
16877,-3e-05,-3e-05,-0.00012,0.00056,0.00038,6e-05,-4e-05,-4e-05,4,19
16878,0,-1e-05,0,-0.00023,-0.00011,0.0001,6e-05,2e-05,4,19
16879,0,-1e-05,0,-0.00023,-0.00011,0.0001,6e-05,2e-05,4,19
16880,0,-1e-05,0,-0.00023,-0.00011,0.0001,6e-05,2e-05,4,19
16881,0,-1e-05,0,-0.00023,-0.00011,0.0001,6e-05,2e-05,4,19
16882,0,-1e-05,0,-0.00023,-0.00011,0.0001,6e-05,2e-05,4,19
16883,0,-1e-05,0,-0.00023,-0.00011,0.0001,6e-05,2e-05,4,19
16884,0,-1e-05,0,-0.00023,-0.00011,0.0001,6e-05,2e-05,4,19
16885,0,-1e-05,0,-0.00023,-0.00011,0.0001,6e-05,2e-05,4,19
16886,0,-1e-05,0,-0.00023,-0.00011,0.0001,6e-05,2e-05,4,19
16888,0,-1e-05,0,-0.00023,-0.00011,0.0001,6e-05,2e-05,4,19
16889,0,-1e-05,0,-0.00023,-0.00011,0.0001,6e-05,2e-05,4,19
16890,0,-1e-05,0,-0.00023,-0.00011,0.0001,6e-05,2e-05,4,19
16891,0,-1e-05,0,-0.00023,-0.00011,0.0001,6e-05,2e-05,4,19
16892,0,-1e-05,0,-0.00023,-0.00011,0.0001,6e-05,2e-05,4,19
16893,0,-1e-05,0,-0.00023,-0.00011,0.0001,6e-05,2e-05,4,19
16894,0,-1e-05,0,-0.00023,-0.00011,0.0001,6e-05,2e-05,4,19
16895,0,-1e-05,0,-0.00023,-0.00011,0.0001,6e-05,2e-05,4,19
16896,0,-1e-05,0,-0.00023,-0.00011,0.0001,6e-05,2e-05,4,19
16897,0,-1e-05,0,-0.00023,-0.00011,0.0001,6e-05,2e-05,4,19
16898,0,-1e-05,0,-0.00023,-0.00011,0.0001,6e-05,2e-05,4,19
16899,-2e-05,-5e-05,-6e-05,-0.00038,-0.00024,2e-05,-2e-05,-2e-05,4,19
16900,-2e-05,-5e-05,-6e-05,-0.00038,-0.00024,2e-05,-2e-05,-2e-05,4,19
16901,-2e-05,-2e-05,-2e-05,5e-05,0.0005,-0.00016,-2e-05,-6e-05,4,19
16902,-2e-05,-2e-05,-2e-05,5e-05,0.0005,-0.00016,-2e-05,-6e-05,4,19
16903,-2e-05,-2e-05,-2e-05,5e-05,0.0005,-0.00016,-2e-05,-6e-05,4,19
16904,-2e-05,-2e-05,-2e-05,5e-05,0.0005,-0.00016,-2e-05,-6e-05,4,19
16905,-2e-05,-2e-05,-2e-05,5e-05,0.0005,-0.00016,-2e-05,-6e-05,4,19
16906,-2e-05,-2e-05,-2e-05,5e-05,0.0005,-0.00016,-2e-05,-6e-05,4,19
16907,-2e-05,-2e-05,-2e-05,5e-05,0.0005,-0.00016,-2e-05,-6e-05,4,19
16908,-2e-05,-2e-05,-2e-05,5e-05,0.0005,-0.00016,-2e-05,-6e-05,4,19
16909,-2e-05,-2e-05,-2e-05,5e-05,0.0005,-0.00016,-2e-05,-6e-05,4,19
16910,-2e-05,-2e-05,-2e-05,5e-05,0.0005,-0.00016,-2e-05,-6e-05,4,19
16911,-2e-05,-2e-05,-2e-05,5e-05,0.0005,-0.00016,-2e-05,-6e-05,4,19
16912,-2e-05,-2e-05,-2e-05,5e-05,0.0005,-0.00016,-2e-05,-6e-05,4,19
16913,-2e-05,-2e-05,-2e-05,5e-05,0.0005,-0.00016,-2e-05,-6e-05,4,19
16914,-2e-05,-2e-05,-2e-05,5e-05,0.0005,-0.00016,-2e-05,-6e-05,4,19
16915,-2e-05,-2e-05,-2e-05,5e-05,0.0005,-0.00016,-2e-05,-6e-05,4,19
16916,-2e-05,-2e-05,-2e-05,5e-05,0.0005,-0.00016,-2e-05,-6e-05,4,19
16917,-2e-05,-2e-05,-2e-05,5e-05,0.0005,-0.00016,-2e-05,-6e-05,4,19
16918,-2e-05,-2e-05,-2e-05,5e-05,0.0005,-0.00016,-2e-05,-6e-05,4,19
16919,-2e-05,-2e-05,-2e-05,5e-05,0.0005,-0.00016,-2e-05,-6e-05,4,19
16920,-2e-05,-2e-05,-2e-05,5e-05,0.0005,-0.00016,-2e-05,-6e-05,4,19
16921,-4e-05,-1e-05,5e-05,-0.00015,-0.00072,-4e-05,-6e-05,1e-05,4,19
16922,-4e-05,-1e-05,5e-05,-0.00015,-0.00072,-4e-05,-6e-05,1e-05,4,19
16923,6e-05,5e-05,0.0001,0.00031,-0.00017,0.00024,7e-05,1e-05,4,19
16924,6e-05,5e-05,0.0001,0.00031,-0.00017,0.00024,7e-05,1e-05,4,19
16925,6e-05,5e-05,0.0001,0.00031,-0.00017,0.00024,7e-05,1e-05,4,19
16926,6e-05,5e-05,0.0001,0.00031,-0.00017,0.00024,7e-05,1e-05,4,19
16927,6e-05,5e-05,0.0001,0.00031,-0.00017,0.00024,7e-05,1e-05,4,19
16928,6e-05,5e-05,0.0001,0.00031,-0.00017,0.00024,7e-05,1e-05,4,19
16929,6e-05,5e-05,0.0001,0.00031,-0.00017,0.00024,7e-05,1e-05,4,19
16930,6e-05,5e-05,0.0001,0.00031,-0.00017,0.00024,7e-05,1e-05,4,19
16931,6e-05,5e-05,0.0001,0.00031,-0.00017,0.00024,7e-05,1e-05,4,19
16932,6e-05,5e-05,0.0001,0.00031,-0.00017,0.00024,7e-05,1e-05,4,19
16933,6e-05,5e-05,0.0001,0.00031,-0.00017,0.00024,7e-05,1e-05,4,19
16934,6e-05,5e-05,0.0001,0.00031,-0.00017,0.00024,7e-05,1e-05,4,19
16935,6e-05,5e-05,0.0001,0.00031,-0.00017,0.00024,7e-05,1e-05,4,19
16936,-3e-05,-6e-05,-3e-05,6e-05,-8e-05,-6e-05,-5e-05,4e-05,4,19
16938,5e-05,5e-05,-9e-05,8e-05,-0.00067,3e-05,6e-05,1e-05,4,19
16939,-0.00014,-0.00015,-0.00028,-0.00017,-0.00019,-0.00038,-0.00023,-0.00014,4,19
16940,-0.00014,-0.00015,-0.00028,-0.00017,-0.00019,-0.00038,-0.00023,-0.00014,4,19
16941,-0.00014,-0.00015,-0.00028,-0.00017,-0.00019,-0.00038,-0.00023,-0.00014,4,19
16942,-0.00014,-0.00015,-0.00028,-0.00017,-0.00019,-0.00038,-0.00023,-0.00014,4,19
16943,-0.00014,-0.00015,-0.00028,-0.00017,-0.00019,-0.00038,-0.00023,-0.00014,4,19
16944,-0.00014,-0.00015,-0.00028,-0.00017,-0.00019,-0.00038,-0.00023,-0.00014,4,19
16945,-0.00014,-0.00015,-0.00028,-0.00017,-0.00019,-0.00038,-0.00023,-0.00014,4,19
16946,-0.00014,-0.00015,-0.00028,-0.00017,-0.00019,-0.00038,-0.00023,-0.00014,4,19
16947,-0.00014,-0.00015,-0.00028,-0.00017,-0.00019,-0.00038,-0.00023,-0.00014,4,19
16948,-0.00014,-0.00015,-0.00028,-0.00017,-0.00019,-0.00038,-0.00023,-0.00014,4,19
16949,-0.00014,-0.00015,-0.00028,-0.00017,-0.00019,-0.00038,-0.00023,-0.00014,4,19
16950,-0.00014,-0.00015,-0.00028,-0.00017,-0.00019,-0.00038,-0.00023,-0.00014,4,19
16951,-0.00014,-0.00015,-0.00028,-0.00017,-0.00019,-0.00038,-0.00023,-0.00014,4,19
16952,-0.00014,-0.00015,-0.00028,-0.00017,-0.00019,-0.00038,-0.00023,-0.00014,4,19
16953,-0.00014,-0.00015,-0.00028,-0.00017,-0.00019,-0.00038,-0.00023,-0.00014,4,19
16954,-0.00014,-0.00015,-0.00028,-0.00017,-0.00019,-0.00038,-0.00023,-0.00014,4,19
16955,-0.00014,-0.00015,-0.00028,-0.00017,-0.00019,-0.00038,-0.00023,-0.00014,4,19
16956,-0.00014,-0.00015,-0.00028,-0.00017,-0.00019,-0.00038,-0.00023,-0.00014,4,19
16957,-0.00014,-0.00015,-0.00028,-0.00017,-0.00019,-0.00038,-0.00023,-0.00014,4,19
16958,-0.00014,-0.00015,-0.00028,-0.00017,-0.00019,-0.00038,-0.00023,-0.00014,4,19
16959,2e-05,7e-05,7e-05,-0.00027,0.00024,0.00014,4e-05,1e-05,4,19
16960,-5e-05,-5e-05,-0.0001,-0.00037,0.00011,-0.00013,-4e-05,-1e-05,4,19
16961,-2e-05,2e-05,0.00013,0.00075,-0.00026,9e-05,4e-05,-3e-05,4,19
16962,-2e-05,2e-05,0.00013,0.00075,-0.00026,9e-05,4e-05,-3e-05,4,19
16963,-2e-05,2e-05,0.00013,0.00075,-0.00026,9e-05,4e-05,-3e-05,4,19
16964,-2e-05,2e-05,0.00013,0.00075,-0.00026,9e-05,4e-05,-3e-05,4,19
16965,-2e-05,2e-05,0.00013,0.00075,-0.00026,9e-05,4e-05,-3e-05,4,19
16966,-2e-05,2e-05,0.00013,0.00075,-0.00026,9e-05,4e-05,-3e-05,4,19
16967,-2e-05,2e-05,0.00013,0.00075,-0.00026,9e-05,4e-05,-3e-05,4,19
16968,-2e-05,2e-05,0.00013,0.00075,-0.00026,9e-05,4e-05,-3e-05,4,19
16969,-2e-05,2e-05,0.00013,0.00075,-0.00026,9e-05,4e-05,-3e-05,4,19
16970,-2e-05,2e-05,0.00013,0.00075,-0.00026,9e-05,4e-05,-3e-05,4,19
16971,-2e-05,2e-05,0.00013,0.00075,-0.00026,9e-05,4e-05,-3e-05,4,19
16972,-2e-05,2e-05,0.00013,0.00075,-0.00026,9e-05,4e-05,-3e-05,4,19
16973,-2e-05,2e-05,0.00013,0.00075,-0.00026,9e-05,4e-05,-3e-05,4,19
16974,-2e-05,2e-05,0.00013,0.00075,-0.00026,9e-05,4e-05,-3e-05,4,19
16975,-2e-05,2e-05,0.00013,0.00075,-0.00026,9e-05,4e-05,-3e-05,4,19
16976,-2e-05,2e-05,0.00013,0.00075,-0.00026,9e-05,4e-05,-3e-05,4,19
16977,-2e-05,2e-05,0.00013,0.00075,-0.00026,9e-05,4e-05,-3e-05,4,19
16978,-2e-05,2e-05,0.00013,0.00075,-0.00026,9e-05,4e-05,-3e-05,4,19
16979,-2e-05,2e-05,0.00013,0.00075,-0.00026,9e-05,4e-05,-3e-05,4,19
16980,-2e-05,2e-05,0.00013,0.00075,-0.00026,9e-05,4e-05,-3e-05,4,19
16981,-8e-05,-0.00015,-0.00037,-0.00035,0.00054,8e-05,-3e-05,-6e-05,4,19
16982,2e-05,-3e-05,7e-05,-0.00011,-0.00051,-0.0002,-2e-05,4e-05,4,19
16983,4e-05,5e-05,2e-05,-0.0004,-0.00048,4e-05,1e-05,8e-05,4,19
16984,4e-05,5e-05,2e-05,-0.0004,-0.00048,4e-05,1e-05,8e-05,4,19
16985,4e-05,5e-05,2e-05,-0.0004,-0.00048,4e-05,1e-05,8e-05,4,19
16986,4e-05,5e-05,2e-05,-0.0004,-0.00048,4e-05,1e-05,8e-05,4,19
16988,4e-05,5e-05,2e-05,-0.0004,-0.00048,4e-05,1e-05,8e-05,4,19
16989,4e-05,5e-05,2e-05,-0.0004,-0.00048,4e-05,1e-05,8e-05,4,19
16990,4e-05,5e-05,2e-05,-0.0004,-0.00048,4e-05,1e-05,8e-05,4,19
16991,4e-05,5e-05,2e-05,-0.0004,-0.00048,4e-05,1e-05,8e-05,4,19
16992,4e-05,5e-05,2e-05,-0.0004,-0.00048,4e-05,1e-05,8e-05,4,19
16993,4e-05,5e-05,2e-05,-0.0004,-0.00048,4e-05,1e-05,8e-05,4,19
16994,4e-05,5e-05,2e-05,-0.0004,-0.00048,4e-05,1e-05,8e-05,4,19
16995,4e-05,5e-05,2e-05,-0.0004,-0.00048,4e-05,1e-05,8e-05,4,19
16996,4e-05,5e-05,2e-05,-0.0004,-0.00048,4e-05,1e-05,8e-05,4,19
16997,4e-05,-2e-05,-8e-05,-0.00013,-0.00027,-6e-05,-3e-05,-2e-05,4,19
16998,1e-05,4e-05,4e-05,0.0003,1e-05,-0.00026,-3e-05,2e-05,4,19
16999,1e-05,4e-05,4e-05,0.0003,1e-05,-0.00026,-3e-05,2e-05,4,19
17000,1e-05,4e-05,4e-05,0.0003,1e-05,-0.00026,-3e-05,2e-05,4,19
17001,1e-05,4e-05,4e-05,0.0003,1e-05,-0.00026,-3e-05,2e-05,4,19
17002,1e-05,4e-05,4e-05,0.0003,1e-05,-0.00026,-3e-05,2e-05,4,19
17003,1e-05,4e-05,4e-05,0.0003,1e-05,-0.00026,-3e-05,2e-05,4,19
17004,1e-05,4e-05,4e-05,0.0003,1e-05,-0.00026,-3e-05,2e-05,4,19
17005,1e-05,4e-05,4e-05,0.0003,1e-05,-0.00026,-3e-05,2e-05,4,19
17006,1e-05,4e-05,4e-05,0.0003,1e-05,-0.00026,-3e-05,2e-05,4,19
17007,1e-05,4e-05,4e-05,0.0003,1e-05,-0.00026,-3e-05,2e-05,4,19
17008,1e-05,4e-05,4e-05,0.0003,1e-05,-0.00026,-3e-05,2e-05,4,19
17009,1e-05,4e-05,4e-05,0.0003,1e-05,-0.00026,-3e-05,2e-05,4,19
17010,1e-05,4e-05,4e-05,0.0003,1e-05,-0.00026,-3e-05,2e-05,4,19
17011,1e-05,4e-05,4e-05,0.0003,1e-05,-0.00026,-3e-05,2e-05,4,19
17012,1e-05,4e-05,4e-05,0.0003,1e-05,-0.00026,-3e-05,2e-05,4,19
17013,1e-05,4e-05,4e-05,0.0003,1e-05,-0.00026,-3e-05,2e-05,4,19
17014,1e-05,4e-05,4e-05,0.0003,1e-05,-0.00026,-3e-05,2e-05,4,19
17015,1e-05,4e-05,4e-05,0.0003,1e-05,-0.00026,-3e-05,2e-05,4,19
17016,1e-05,4e-05,4e-05,0.0003,1e-05,-0.00026,-3e-05,2e-05,4,19
17017,1e-05,4e-05,4e-05,0.0003,1e-05,-0.00026,-3e-05,2e-05,4,19
17018,1e-05,4e-05,4e-05,0.0003,1e-05,-0.00026,-3e-05,2e-05,4,19
17019,8e-05,9e-05,0.00021,0.00045,0.00075,0.00029,8e-05,7e-05,4,19
17020,0,-2e-05,-0.00025,-0.00086,-0.00056,-0.00013,-1e-05,0,4,19
17021,0,-2e-05,-0.00025,-0.00086,-0.00056,-0.00013,-1e-05,0,4,19
17022,0,-2e-05,-0.00025,-0.00086,-0.00056,-0.00013,-1e-05,0,4,19
17023,0,-2e-05,-0.00025,-0.00086,-0.00056,-0.00013,-1e-05,0,4,19
17024,0,-2e-05,-0.00025,-0.00086,-0.00056,-0.00013,-1e-05,0,4,19
17025,0,-2e-05,-0.00025,-0.00086,-0.00056,-0.00013,-1e-05,0,4,19
17026,0,-2e-05,-0.00025,-0.00086,-0.00056,-0.00013,-1e-05,0,4,19
17027,0,-2e-05,-0.00025,-0.00086,-0.00056,-0.00013,-1e-05,0,4,19
17028,0,-2e-05,-0.00025,-0.00086,-0.00056,-0.00013,-1e-05,0,4,19
17029,0,-2e-05,-0.00025,-0.00086,-0.00056,-0.00013,-1e-05,0,4,19
17030,0,-2e-05,-0.00025,-0.00086,-0.00056,-0.00013,-1e-05,0,4,19
17031,0,-2e-05,-0.00025,-0.00086,-0.00056,-0.00013,-1e-05,0,4,19
17032,0,-2e-05,-0.00025,-0.00086,-0.00056,-0.00013,-1e-05,0,4,19
17033,0,-2e-05,-0.00025,-0.00086,-0.00056,-0.00013,-1e-05,0,4,19
17034,0,-2e-05,-0.00025,-0.00086,-0.00056,-0.00013,-1e-05,0,4,19
17035,0,-2e-05,-0.00025,-0.00086,-0.00056,-0.00013,-1e-05,0,4,19
17036,0,-2e-05,-0.00025,-0.00086,-0.00056,-0.00013,-1e-05,0,4,19
17038,0,-2e-05,-0.00025,-0.00086,-0.00056,-0.00013,-1e-05,0,4,19
17039,0,-2e-05,-0.00025,-0.00086,-0.00056,-0.00013,-1e-05,0,4,19
17040,0,-2e-05,-0.00025,-0.00086,-0.00056,-0.00013,-1e-05,0,4,19
17041,4e-05,5e-05,0.00027,0.0003,0.00019,3e-05,2e-05,1e-05,4,19
17042,-2e-05,-2e-05,-0.00014,0.00025,9e-05,-0.00017,-4e-05,-1e-05,4,19
17043,2e-05,5e-05,0.00018,0.00045,0.0005,0.00016,6e-05,6e-05,4,19
17044,2e-05,5e-05,0.00018,0.00045,0.0005,0.00016,6e-05,6e-05,4,19
17045,2e-05,5e-05,0.00018,0.00045,0.0005,0.00016,6e-05,6e-05,4,19
17046,2e-05,5e-05,0.00018,0.00045,0.0005,0.00016,6e-05,6e-05,4,19
17047,2e-05,5e-05,0.00018,0.00045,0.0005,0.00016,6e-05,6e-05,4,19
17048,2e-05,5e-05,0.00018,0.00045,0.0005,0.00016,6e-05,6e-05,4,19
17049,2e-05,5e-05,0.00018,0.00045,0.0005,0.00016,6e-05,6e-05,4,19
17050,2e-05,5e-05,0.00018,0.00045,0.0005,0.00016,6e-05,6e-05,4,19
17051,2e-05,5e-05,0.00018,0.00045,0.0005,0.00016,6e-05,6e-05,4,19
17052,2e-05,5e-05,0.00018,0.00045,0.0005,0.00016,6e-05,6e-05,4,19
17053,2e-05,5e-05,0.00018,0.00045,0.0005,0.00016,6e-05,6e-05,4,19
17054,2e-05,5e-05,0.00018,0.00045,0.0005,0.00016,6e-05,6e-05,4,19
17055,2e-05,5e-05,0.00018,0.00045,0.0005,0.00016,6e-05,6e-05,4,19
17056,-3e-05,-5e-05,-4e-05,-0.00039,-0.00061,-0.00016,-1e-05,-2e-05,4,19
17057,-3e-05,-5e-05,-4e-05,-0.00039,-0.00061,-0.00016,-1e-05,-2e-05,4,19
17058,-3e-05,-5e-05,-4e-05,-0.00039,-0.00061,-0.00016,-1e-05,-2e-05,4,19
17059,-3e-05,-5e-05,-4e-05,-0.00039,-0.00061,-0.00016,-1e-05,-2e-05,4,19
17060,-3e-05,-5e-05,-4e-05,-0.00039,-0.00061,-0.00016,-1e-05,-2e-05,4,19
17061,-3e-05,-5e-05,-4e-05,-0.00039,-0.00061,-0.00016,-1e-05,-2e-05,4,19
17062,-3e-05,-5e-05,-4e-05,-0.00039,-0.00061,-0.00016,-1e-05,-2e-05,4,19
17063,-5e-05,-7e-05,-9e-05,-0.0007,-0.00075,0.00017,4e-05,-8e-05,4,19
17064,-5e-05,-7e-05,-9e-05,-0.0007,-0.00075,0.00017,4e-05,-8e-05,4,19
17065,-5e-05,-7e-05,-9e-05,-0.0007,-0.00075,0.00017,4e-05,-8e-05,4,19
17066,-5e-05,-7e-05,-9e-05,-0.0007,-0.00075,0.00017,4e-05,-8e-05,4,19
17067,-5e-05,-7e-05,-9e-05,-0.0007,-0.00075,0.00017,4e-05,-8e-05,4,19
17068,-5e-05,-7e-05,-9e-05,-0.0007,-0.00075,0.00017,4e-05,-8e-05,4,19
17069,-5e-05,-7e-05,-9e-05,-0.0007,-0.00075,0.00017,4e-05,-8e-05,4,19
17070,-5e-05,-7e-05,-9e-05,-0.0007,-0.00075,0.00017,4e-05,-8e-05,4,19
17071,-5e-05,-7e-05,-9e-05,-0.0007,-0.00075,0.00017,4e-05,-8e-05,4,19
17072,-5e-05,-7e-05,-9e-05,-0.0007,-0.00075,0.00017,4e-05,-8e-05,4,19
17073,-5e-05,-7e-05,-9e-05,-0.0007,-0.00075,0.00017,4e-05,-8e-05,4,19
17074,-5e-05,-7e-05,-9e-05,-0.0007,-0.00075,0.00017,4e-05,-8e-05,4,19
17075,-5e-05,-7e-05,-9e-05,-0.0007,-0.00075,0.00017,4e-05,-8e-05,4,19
17076,-5e-05,-7e-05,-9e-05,-0.0007,-0.00075,0.00017,4e-05,-8e-05,4,19
17077,-5e-05,-7e-05,-9e-05,-0.0007,-0.00075,0.00017,4e-05,-8e-05,4,19
17078,-5e-05,-7e-05,-9e-05,-0.0007,-0.00075,0.00017,4e-05,-8e-05,4,19
17079,-3e-05,2e-05,2e-05,0.0006,-0.00025,-8e-05,-3e-05,-1e-05,4,19
17080,-3e-05,-2e-05,-2e-05,-0.00044,-0.00052,0.00011,-3e-05,-5e-05,4,19
17081,5e-05,9e-05,0.0002,-0.00028,0.0004,0.0004,0.00012,0.00011,4,19
17082,5e-05,9e-05,0.0002,-0.00028,0.0004,0.0004,0.00012,0.00011,4,19
17083,5e-05,9e-05,0.0002,-0.00028,0.0004,0.0004,0.00012,0.00011,4,19
17084,5e-05,9e-05,0.0002,-0.00028,0.0004,0.0004,0.00012,0.00011,4,19
17085,5e-05,9e-05,0.0002,-0.00028,0.0004,0.0004,0.00012,0.00011,4,19
17086,5e-05,9e-05,0.0002,-0.00028,0.0004,0.0004,0.00012,0.00011,4,19
17088,5e-05,9e-05,0.0002,-0.00028,0.0004,0.0004,0.00012,0.00011,4,19
17089,5e-05,9e-05,0.0002,-0.00028,0.0004,0.0004,0.00012,0.00011,4,19
17090,5e-05,9e-05,0.0002,-0.00028,0.0004,0.0004,0.00012,0.00011,4,19
17091,5e-05,9e-05,0.0002,-0.00028,0.0004,0.0004,0.00012,0.00011,4,19
17092,5e-05,9e-05,0.0002,-0.00028,0.0004,0.0004,0.00012,0.00011,4,19
17093,5e-05,9e-05,0.0002,-0.00028,0.0004,0.0004,0.00012,0.00011,4,19
17094,5e-05,9e-05,0.0002,-0.00028,0.0004,0.0004,0.00012,0.00011,4,19
17095,5e-05,9e-05,0.0002,-0.00028,0.0004,0.0004,0.00012,0.00011,4,19
17096,5e-05,9e-05,0.0002,-0.00028,0.0004,0.0004,0.00012,0.00011,4,19
17097,5e-05,9e-05,0.0002,-0.00028,0.0004,0.0004,0.00012,0.00011,4,19
17098,5e-05,9e-05,0.0002,-0.00028,0.0004,0.0004,0.00012,0.00011,4,19
17099,5e-05,9e-05,0.0002,-0.00028,0.0004,0.0004,0.00012,0.00011,4,19
17100,5e-05,9e-05,0.0002,-0.00028,0.0004,0.0004,0.00012,0.00011,4,19
17101,-8e-05,-0.00011,-0.00017,-0.00069,-0.00065,-0.00013,-5e-05,-7e-05,4,19
17103,-2e-05,-5e-05,-6e-05,-0.00022,-0.00027,-0.00021,-7e-05,-7e-05,4,19
17104,-2e-05,-5e-05,-6e-05,-0.00022,-0.00027,-0.00021,-7e-05,-7e-05,4,19
17105,-2e-05,-5e-05,-6e-05,-0.00022,-0.00027,-0.00021,-7e-05,-7e-05,4,19
17106,-2e-05,-5e-05,-6e-05,-0.00022,-0.00027,-0.00021,-7e-05,-7e-05,4,19
17107,-2e-05,-5e-05,-6e-05,-0.00022,-0.00027,-0.00021,-7e-05,-7e-05,4,19
17108,-2e-05,-5e-05,-6e-05,-0.00022,-0.00027,-0.00021,-7e-05,-7e-05,4,19
17109,-2e-05,-5e-05,-6e-05,-0.00022,-0.00027,-0.00021,-7e-05,-7e-05,4,19
17110,-2e-05,-5e-05,-6e-05,-0.00022,-0.00027,-0.00021,-7e-05,-7e-05,4,19
17111,-2e-05,-5e-05,-6e-05,-0.00022,-0.00027,-0.00021,-7e-05,-7e-05,4,19
17112,-2e-05,-5e-05,-6e-05,-0.00022,-0.00027,-0.00021,-7e-05,-7e-05,4,19
17113,-2e-05,-5e-05,-6e-05,-0.00022,-0.00027,-0.00021,-7e-05,-7e-05,4,19
17114,-2e-05,-5e-05,-6e-05,-0.00022,-0.00027,-0.00021,-7e-05,-7e-05,4,19
17115,-2e-05,-5e-05,-6e-05,-0.00022,-0.00027,-0.00021,-7e-05,-7e-05,4,19
17116,3e-05,3e-05,2e-05,-5e-05,0,-6e-05,-2e-05,3e-05,4,19
17117,3e-05,3e-05,2e-05,-5e-05,0,-6e-05,-2e-05,3e-05,4,19
17118,3e-05,3e-05,2e-05,-5e-05,0,-6e-05,-2e-05,3e-05,4,19
17119,3e-05,3e-05,2e-05,-5e-05,0,-6e-05,-2e-05,3e-05,4,19
17120,3e-05,3e-05,2e-05,-5e-05,0,-6e-05,-2e-05,3e-05,4,19
17121,3e-05,3e-05,2e-05,-5e-05,0,-6e-05,-2e-05,3e-05,4,19
17122,2e-05,8e-05,0.0001,0.00021,0.00019,4e-05,3e-05,5e-05,4,19
17123,-9e-05,-0.00011,-0.00018,-0.00067,0.00038,0.00011,-0.00011,-0.00011,4,19
17124,-9e-05,-0.00011,-0.00018,-0.00067,0.00038,0.00011,-0.00011,-0.00011,4,19
17125,-9e-05,-0.00011,-0.00018,-0.00067,0.00038,0.00011,-0.00011,-0.00011,4,19
17126,-9e-05,-0.00011,-0.00018,-0.00067,0.00038,0.00011,-0.00011,-0.00011,4,19
17127,-9e-05,-0.00011,-0.00018,-0.00067,0.00038,0.00011,-0.00011,-0.00011,4,19
17128,-9e-05,-0.00011,-0.00018,-0.00067,0.00038,0.00011,-0.00011,-0.00011,4,19
17129,-9e-05,-0.00011,-0.00018,-0.00067,0.00038,0.00011,-0.00011,-0.00011,4,19
17130,-9e-05,-0.00011,-0.00018,-0.00067,0.00038,0.00011,-0.00011,-0.00011,4,19
17131,-9e-05,-0.00011,-0.00018,-0.00067,0.00038,0.00011,-0.00011,-0.00011,4,19
17132,-9e-05,-0.00011,-0.00018,-0.00067,0.00038,0.00011,-0.00011,-0.00011,4,19
17133,-9e-05,-0.00011,-0.00018,-0.00067,0.00038,0.00011,-0.00011,-0.00011,4,19
17134,-9e-05,-0.00011,-0.00018,-0.00067,0.00038,0.00011,-0.00011,-0.00011,4,19
17135,-9e-05,-0.00011,-0.00018,-0.00067,0.00038,0.00011,-0.00011,-0.00011,4,19
17136,-9e-05,-0.00011,-0.00018,-0.00067,0.00038,0.00011,-0.00011,-0.00011,4,19
17138,-9e-05,-0.00011,-0.00018,-0.00067,0.00038,0.00011,-0.00011,-0.00011,4,19
17139,-7e-05,-0.00011,-0.00016,0.00025,0.00032,0.00013,-2e-05,-4e-05,4,19
17140,-7e-05,-0.00011,-0.00016,0.00025,0.00032,0.00013,-2e-05,-4e-05,4,19
17141,0,5e-05,4e-05,1e-05,0.00042,-4e-05,-1e-05,-1e-05,4,19
17142,0,5e-05,4e-05,1e-05,0.00042,-4e-05,-1e-05,-1e-05,4,19
17143,0,5e-05,4e-05,1e-05,0.00042,-4e-05,-1e-05,-1e-05,4,19
17144,0,5e-05,4e-05,1e-05,0.00042,-4e-05,-1e-05,-1e-05,4,19
17145,0,5e-05,4e-05,1e-05,0.00042,-4e-05,-1e-05,-1e-05,4,19
17146,0,5e-05,4e-05,1e-05,0.00042,-4e-05,-1e-05,-1e-05,4,19
17147,0,5e-05,4e-05,1e-05,0.00042,-4e-05,-1e-05,-1e-05,4,19
17148,0,5e-05,4e-05,1e-05,0.00042,-4e-05,-1e-05,-1e-05,4,19
17149,0,5e-05,4e-05,1e-05,0.00042,-4e-05,-1e-05,-1e-05,4,19
17150,0,5e-05,4e-05,1e-05,0.00042,-4e-05,-1e-05,-1e-05,4,19
17151,0,5e-05,4e-05,1e-05,0.00042,-4e-05,-1e-05,-1e-05,4,19
17152,0,5e-05,4e-05,1e-05,0.00042,-4e-05,-1e-05,-1e-05,4,19
17153,0,5e-05,4e-05,1e-05,0.00042,-4e-05,-1e-05,-1e-05,4,19
17154,0,5e-05,4e-05,1e-05,0.00042,-4e-05,-1e-05,-1e-05,4,19
17155,0,5e-05,4e-05,1e-05,0.00042,-4e-05,-1e-05,-1e-05,4,19
17156,0,5e-05,4e-05,1e-05,0.00042,-4e-05,-1e-05,-1e-05,4,19
17157,0,5e-05,4e-05,1e-05,0.00042,-4e-05,-1e-05,-1e-05,4,19
17158,0,5e-05,4e-05,1e-05,0.00042,-4e-05,-1e-05,-1e-05,4,19
17159,0,5e-05,4e-05,1e-05,0.00042,-4e-05,-1e-05,-1e-05,4,19
17160,0,5e-05,4e-05,1e-05,0.00042,-4e-05,-1e-05,-1e-05,4,19
17161,-4e-05,0,3e-05,0.0002,0.00117,0.00037,6e-05,0,4,19
17162,-4e-05,0,3e-05,0.0002,0.00117,0.00037,6e-05,0,4,19
17163,-4e-05,-9e-05,-9e-05,0.00024,6e-05,-0.00024,-0.0001,-6e-05,4,19
17164,-4e-05,-9e-05,-9e-05,0.00024,6e-05,-0.00024,-0.0001,-6e-05,4,19
17165,-4e-05,-9e-05,-9e-05,0.00024,6e-05,-0.00024,-0.0001,-6e-05,4,19
17166,-4e-05,-9e-05,-9e-05,0.00024,6e-05,-0.00024,-0.0001,-6e-05,4,19
17167,-4e-05,-9e-05,-9e-05,0.00024,6e-05,-0.00024,-0.0001,-6e-05,4,19
17168,-4e-05,-9e-05,-9e-05,0.00024,6e-05,-0.00024,-0.0001,-6e-05,4,19
17169,-4e-05,-9e-05,-9e-05,0.00024,6e-05,-0.00024,-0.0001,-6e-05,4,19
17170,-4e-05,-9e-05,-9e-05,0.00024,6e-05,-0.00024,-0.0001,-6e-05,4,19
17171,-4e-05,-9e-05,-9e-05,0.00024,6e-05,-0.00024,-0.0001,-6e-05,4,19
17172,-4e-05,-9e-05,-9e-05,0.00024,6e-05,-0.00024,-0.0001,-6e-05,4,19
17173,-4e-05,-9e-05,-9e-05,0.00024,6e-05,-0.00024,-0.0001,-6e-05,4,19
17174,-4e-05,-9e-05,-9e-05,0.00024,6e-05,-0.00024,-0.0001,-6e-05,4,19
17175,-4e-05,-9e-05,-9e-05,0.00024,6e-05,-0.00024,-0.0001,-6e-05,4,19
17176,2e-05,-1e-05,6e-05,0.00033,0.0002,-0.00013,-5e-05,-3e-05,4,19
17177,2e-05,-1e-05,6e-05,0.00033,0.0002,-0.00013,-5e-05,-3e-05,4,19
17178,2e-05,-1e-05,6e-05,0.00033,0.0002,-0.00013,-5e-05,-3e-05,4,19
17179,2e-05,-1e-05,6e-05,0.00033,0.0002,-0.00013,-5e-05,-3e-05,4,19
17180,2e-05,-1e-05,6e-05,0.00033,0.0002,-0.00013,-5e-05,-3e-05,4,19
17181,2e-05,-1e-05,6e-05,0.00033,0.0002,-0.00013,-5e-05,-3e-05,4,19
17182,2e-05,-1e-05,6e-05,0.00033,0.0002,-0.00013,-5e-05,-3e-05,4,19
17183,-1e-05,-5e-05,-0.00011,-5e-05,0,-0.00036,-8e-05,0,4,19
17184,-1e-05,-5e-05,-0.00011,-5e-05,0,-0.00036,-8e-05,0,4,19
17185,-1e-05,-5e-05,-0.00011,-5e-05,0,-0.00036,-8e-05,0,4,19
17186,-1e-05,-5e-05,-0.00011,-5e-05,0,-0.00036,-8e-05,0,4,19
17188,-1e-05,-5e-05,-0.00011,-5e-05,0,-0.00036,-8e-05,0,4,19
17189,-1e-05,-5e-05,-0.00011,-5e-05,0,-0.00036,-8e-05,0,4,19
17190,-1e-05,-5e-05,-0.00011,-5e-05,0,-0.00036,-8e-05,0,4,19
17191,-1e-05,-5e-05,-0.00011,-5e-05,0,-0.00036,-8e-05,0,4,19
17192,-1e-05,-5e-05,-0.00011,-5e-05,0,-0.00036,-8e-05,0,4,19
17193,-1e-05,-5e-05,-0.00011,-5e-05,0,-0.00036,-8e-05,0,4,19
17194,-1e-05,-5e-05,-0.00011,-5e-05,0,-0.00036,-8e-05,0,4,19
17195,-1e-05,-5e-05,-0.00011,-5e-05,0,-0.00036,-8e-05,0,4,19
17196,-1e-05,-5e-05,-0.00011,-5e-05,0,-0.00036,-8e-05,0,4,19
17197,-1e-05,-5e-05,-0.00011,-5e-05,0,-0.00036,-8e-05,0,4,19
17198,-1e-05,-5e-05,-0.00011,-5e-05,0,-0.00036,-8e-05,0,4,19
17199,-1e-05,2e-05,7e-05,0.00024,-0.00019,-0.00016,-2e-05,-3e-05,4,19
17200,-1e-05,2e-05,7e-05,0.00024,-0.00019,-0.00016,-2e-05,-3e-05,4,19
17201,0.00015,0.00028,0.00055,0.001,0.0009,0.00036,0.0002,0.00015,4,19
17202,0.00015,0.00028,0.00055,0.001,0.0009,0.00036,0.0002,0.00015,4,19
17203,0.00015,0.00028,0.00055,0.001,0.0009,0.00036,0.0002,0.00015,4,19
17204,0.00015,0.00028,0.00055,0.001,0.0009,0.00036,0.0002,0.00015,4,19
17205,0.00015,0.00028,0.00055,0.001,0.0009,0.00036,0.0002,0.00015,4,19
17206,0.00015,0.00028,0.00055,0.001,0.0009,0.00036,0.0002,0.00015,4,19
17207,0.00015,0.00028,0.00055,0.001,0.0009,0.00036,0.0002,0.00015,4,19
17208,0.00015,0.00028,0.00055,0.001,0.0009,0.00036,0.0002,0.00015,4,19
17209,0.00015,0.00028,0.00055,0.001,0.0009,0.00036,0.0002,0.00015,4,19
17210,0.00015,0.00028,0.00055,0.001,0.0009,0.00036,0.0002,0.00015,4,19
17211,0.00015,0.00028,0.00055,0.001,0.0009,0.00036,0.0002,0.00015,4,19
17212,0.00015,0.00028,0.00055,0.001,0.0009,0.00036,0.0002,0.00015,4,19
17213,0.00015,0.00028,0.00055,0.001,0.0009,0.00036,0.0002,0.00015,4,19
17214,0.00015,0.00028,0.00055,0.001,0.0009,0.00036,0.0002,0.00015,4,19
17215,0.00015,0.00028,0.00055,0.001,0.0009,0.00036,0.0002,0.00015,4,19
17216,0.00015,0.00028,0.00055,0.001,0.0009,0.00036,0.0002,0.00015,4,19
17217,0.00015,0.00028,0.00055,0.001,0.0009,0.00036,0.0002,0.00015,4,19
17218,0.00015,0.00028,0.00055,0.001,0.0009,0.00036,0.0002,0.00015,4,19
17219,0.00015,0.00028,0.00055,0.001,0.0009,0.00036,0.0002,0.00015,4,19
17220,0.00015,0.00028,0.00055,0.001,0.0009,0.00036,0.0002,0.00015,4,19
17221,-1e-05,1e-05,0.00024,-0.00054,0.00016,-7e-05,-2e-05,-2e-05,4,19
17222,-1e-05,1e-05,0.00024,-0.00054,0.00016,-7e-05,-2e-05,-2e-05,4,19
17223,-3e-05,-2e-05,-5e-05,-0.00023,-0.0002,-0.0001,-3e-05,0,4,19
17224,-3e-05,-2e-05,-5e-05,-0.00023,-0.0002,-0.0001,-3e-05,0,4,19
17225,-3e-05,-2e-05,-5e-05,-0.00023,-0.0002,-0.0001,-3e-05,0,4,19
17226,-3e-05,-2e-05,-5e-05,-0.00023,-0.0002,-0.0001,-3e-05,0,4,19
17227,-3e-05,-2e-05,-5e-05,-0.00023,-0.0002,-0.0001,-3e-05,0,4,19
17228,-3e-05,-2e-05,-5e-05,-0.00023,-0.0002,-0.0001,-3e-05,0,4,19
17229,-3e-05,-2e-05,-5e-05,-0.00023,-0.0002,-0.0001,-3e-05,0,4,19
17230,-3e-05,-2e-05,-5e-05,-0.00023,-0.0002,-0.0001,-3e-05,0,4,19
17231,-3e-05,-2e-05,-5e-05,-0.00023,-0.0002,-0.0001,-3e-05,0,4,19
17232,-3e-05,-2e-05,-5e-05,-0.00023,-0.0002,-0.0001,-3e-05,0,4,19
17233,-3e-05,-2e-05,-5e-05,-0.00023,-0.0002,-0.0001,-3e-05,0,4,19
17234,-3e-05,-2e-05,-5e-05,-0.00023,-0.0002,-0.0001,-3e-05,0,4,19
17235,-3e-05,-2e-05,-5e-05,-0.00023,-0.0002,-0.0001,-3e-05,0,4,19
17236,-2e-05,-6e-05,-8e-05,-1e-05,-0.0006,-0.00016,1e-05,-3e-05,4,19
17239,-1e-05,5e-05,0.00013,0.00052,0.00038,7e-05,3e-05,1e-05,4,19
17240,-1e-05,5e-05,0.00013,0.00052,0.00038,7e-05,3e-05,1e-05,4,19
17241,-1e-05,5e-05,0.00013,0.00052,0.00038,7e-05,3e-05,1e-05,4,19
17242,-1e-05,5e-05,0.00013,0.00052,0.00038,7e-05,3e-05,1e-05,4,19
17243,-1e-05,-3e-05,0,0.00017,0.00013,0.00013,3e-05,0,4,19
17244,-1e-05,-3e-05,0,0.00017,0.00013,0.00013,3e-05,0,4,19
17245,-1e-05,-3e-05,0,0.00017,0.00013,0.00013,3e-05,0,4,19
17246,-1e-05,-3e-05,0,0.00017,0.00013,0.00013,3e-05,0,4,19
17247,-1e-05,-3e-05,0,0.00017,0.00013,0.00013,3e-05,0,4,19
17248,-1e-05,-3e-05,0,0.00017,0.00013,0.00013,3e-05,0,4,19
17249,-1e-05,-3e-05,0,0.00017,0.00013,0.00013,3e-05,0,4,19
17250,-1e-05,-3e-05,0,0.00017,0.00013,0.00013,3e-05,0,4,19
17251,-1e-05,-3e-05,0,0.00017,0.00013,0.00013,3e-05,0,4,19
17252,-1e-05,-3e-05,0,0.00017,0.00013,0.00013,3e-05,0,4,19
17253,-1e-05,-3e-05,0,0.00017,0.00013,0.00013,3e-05,0,4,19
17254,-1e-05,-3e-05,0,0.00017,0.00013,0.00013,3e-05,0,4,19
17255,-1e-05,-3e-05,0,0.00017,0.00013,0.00013,3e-05,0,4,19
17256,-1e-05,-3e-05,0,0.00017,0.00013,0.00013,3e-05,0,4,19
17257,-1e-05,-3e-05,0,0.00017,0.00013,0.00013,3e-05,0,4,19
17258,-1e-05,-3e-05,0,0.00017,0.00013,0.00013,3e-05,0,4,19
17259,1e-05,0,-9e-05,-0.0004,-0.00013,0.00017,5e-05,4e-05,4,19
17260,-3e-05,-8e-05,-0.0002,-0.00082,-0.00066,-0.00027,-0.00012,-8e-05,4,19
17261,-3e-05,-8e-05,-0.0002,-0.00082,-0.00066,-0.00027,-0.00012,-8e-05,4,19
17262,-3e-05,-8e-05,-0.0002,-0.00082,-0.00066,-0.00027,-0.00012,-8e-05,4,19
17263,-3e-05,-8e-05,-0.0002,-0.00082,-0.00066,-0.00027,-0.00012,-8e-05,4,19
17264,-3e-05,-8e-05,-0.0002,-0.00082,-0.00066,-0.00027,-0.00012,-8e-05,4,19
17265,-3e-05,-8e-05,-0.0002,-0.00082,-0.00066,-0.00027,-0.00012,-8e-05,4,19
17266,-3e-05,-8e-05,-0.0002,-0.00082,-0.00066,-0.00027,-0.00012,-8e-05,4,19
17268,-3e-05,-8e-05,-0.0002,-0.00082,-0.00066,-0.00027,-0.00012,-8e-05,4,19
17269,-3e-05,-8e-05,-0.0002,-0.00082,-0.00066,-0.00027,-0.00012,-8e-05,4,19
17270,-3e-05,-8e-05,-0.0002,-0.00082,-0.00066,-0.00027,-0.00012,-8e-05,4,19
17271,-3e-05,-8e-05,-0.0002,-0.00082,-0.00066,-0.00027,-0.00012,-8e-05,4,19
17272,-3e-05,-8e-05,-0.0002,-0.00082,-0.00066,-0.00027,-0.00012,-8e-05,4,19
17273,-3e-05,-8e-05,-0.0002,-0.00082,-0.00066,-0.00027,-0.00012,-8e-05,4,19
17274,-3e-05,-8e-05,-0.0002,-0.00082,-0.00066,-0.00027,-0.00012,-8e-05,4,19
17275,-3e-05,-8e-05,-0.0002,-0.00082,-0.00066,-0.00027,-0.00012,-8e-05,4,19
17276,-3e-05,-8e-05,-0.0002,-0.00082,-0.00066,-0.00027,-0.00012,-8e-05,4,19
17277,-3e-05,-8e-05,-0.0002,-0.00082,-0.00066,-0.00027,-0.00012,-8e-05,4,19
17278,-3e-05,-8e-05,-0.0002,-0.00082,-0.00066,-0.00027,-0.00012,-8e-05,4,19
17279,-3e-05,-8e-05,-0.0002,-0.00082,-0.00066,-0.00027,-0.00012,-8e-05,4,19
17280,-3e-05,-8e-05,-0.0002,-0.00082,-0.00066,-0.00027,-0.00012,-8e-05,4,19
17281,-6e-05,0,6e-05,-7e-05,-6e-05,0.00021,1e-05,-3e-05,4,19
17282,-1e-05,-8e-05,-0.00012,0.00017,-4e-05,-0.0001,-2e-05,-3e-05,4,19
17283,-3e-05,-5e-05,-8e-05,-0.00095,-0.00087,-0.00029,-9e-05,-2e-05,4,19
17284,-3e-05,-5e-05,-8e-05,-0.00095,-0.00087,-0.00029,-9e-05,-2e-05,4,19
17285,-3e-05,-5e-05,-8e-05,-0.00095,-0.00087,-0.00029,-9e-05,-2e-05,4,19
17287,-3e-05,-5e-05,-8e-05,-0.00095,-0.00087,-0.00029,-9e-05,-2e-05,4,19
17289,-3e-05,-5e-05,-8e-05,-0.00095,-0.00087,-0.00029,-9e-05,-2e-05,4,19
17290,-3e-05,-5e-05,-8e-05,-0.00095,-0.00087,-0.00029,-9e-05,-2e-05,4,19
17291,-3e-05,-5e-05,-8e-05,-0.00095,-0.00087,-0.00029,-9e-05,-2e-05,4,19
17292,-3e-05,-5e-05,-8e-05,-0.00095,-0.00087,-0.00029,-9e-05,-2e-05,4,19
17293,-3e-05,-5e-05,-8e-05,-0.00095,-0.00087,-0.00029,-9e-05,-2e-05,4,19
17294,-3e-05,-5e-05,-8e-05,-0.00095,-0.00087,-0.00029,-9e-05,-2e-05,4,19
17295,-3e-05,-5e-05,-8e-05,-0.00095,-0.00087,-0.00029,-9e-05,-2e-05,4,19
17296,-7e-05,-0.0001,-0.00022,2e-05,-0.00026,-0.00031,-9e-05,-8e-05,4,19
17297,-7e-05,-0.0001,-0.00022,2e-05,-0.00026,-0.00031,-9e-05,-8e-05,4,19
17298,-7e-05,-0.0001,-0.00022,2e-05,-0.00026,-0.00031,-9e-05,-8e-05,4,19
17299,-7e-05,-0.0001,-0.00022,2e-05,-0.00026,-0.00031,-9e-05,-8e-05,4,19
17300,-7e-05,-0.0001,-0.00022,2e-05,-0.00026,-0.00031,-9e-05,-8e-05,4,19
17301,-7e-05,-0.0001,-0.00022,2e-05,-0.00026,-0.00031,-9e-05,-8e-05,4,19
17302,-7e-05,-0.0001,-0.00022,2e-05,-0.00026,-0.00031,-9e-05,-8e-05,4,19
17303,-5e-05,-8e-05,-0.00018,-0.00016,-8e-05,2e-05,-7e-05,-7e-05,4,19
17304,-5e-05,-8e-05,-0.00018,-0.00016,-8e-05,2e-05,-7e-05,-7e-05,4,19
17305,-5e-05,-8e-05,-0.00018,-0.00016,-8e-05,2e-05,-7e-05,-7e-05,4,19
17306,-5e-05,-8e-05,-0.00018,-0.00016,-8e-05,2e-05,-7e-05,-7e-05,4,19
17307,-5e-05,-8e-05,-0.00018,-0.00016,-8e-05,2e-05,-7e-05,-7e-05,4,19
17308,-5e-05,-8e-05,-0.00018,-0.00016,-8e-05,2e-05,-7e-05,-7e-05,4,19
17309,-5e-05,-8e-05,-0.00018,-0.00016,-8e-05,2e-05,-7e-05,-7e-05,4,19
17310,-5e-05,-8e-05,-0.00018,-0.00016,-8e-05,2e-05,-7e-05,-7e-05,4,19
17311,-5e-05,-8e-05,-0.00018,-0.00016,-8e-05,2e-05,-7e-05,-7e-05,4,19
17312,-5e-05,-8e-05,-0.00018,-0.00016,-8e-05,2e-05,-7e-05,-7e-05,4,19
17313,-5e-05,-8e-05,-0.00018,-0.00016,-8e-05,2e-05,-7e-05,-7e-05,4,19
17314,-5e-05,-8e-05,-0.00018,-0.00016,-8e-05,2e-05,-7e-05,-7e-05,4,19
17315,-5e-05,-8e-05,-0.00018,-0.00016,-8e-05,2e-05,-7e-05,-7e-05,4,19
17316,-5e-05,-8e-05,-0.00018,-0.00016,-8e-05,2e-05,-7e-05,-7e-05,4,19
17317,-5e-05,-8e-05,-0.00018,-0.00016,-8e-05,2e-05,-7e-05,-7e-05,4,19
17318,-5e-05,-8e-05,-0.00018,-0.00016,-8e-05,2e-05,-7e-05,-7e-05,4,19
17319,-5e-05,-8e-05,-0.00018,-0.00016,-8e-05,2e-05,-7e-05,-7e-05,4,19
17320,-2e-05,-4e-05,-0.00011,-0.00043,-0.00054,-1e-05,-4e-05,-3e-05,4,19
17321,-5e-05,-8e-05,4e-05,0.00048,0.00072,0.00023,4e-05,1e-05,4,19
17322,-5e-05,-8e-05,4e-05,0.00048,0.00072,0.00023,4e-05,1e-05,4,19
17323,-5e-05,-8e-05,4e-05,0.00048,0.00072,0.00023,4e-05,1e-05,4,19
17324,-5e-05,-8e-05,4e-05,0.00048,0.00072,0.00023,4e-05,1e-05,4,19
17325,-5e-05,-8e-05,4e-05,0.00048,0.00072,0.00023,4e-05,1e-05,4,19
17326,-5e-05,-8e-05,4e-05,0.00048,0.00072,0.00023,4e-05,1e-05,4,19
17327,-5e-05,-8e-05,4e-05,0.00048,0.00072,0.00023,4e-05,1e-05,4,19
17328,-5e-05,-8e-05,4e-05,0.00048,0.00072,0.00023,4e-05,1e-05,4,19
17329,-5e-05,-8e-05,4e-05,0.00048,0.00072,0.00023,4e-05,1e-05,4,19
17330,-5e-05,-8e-05,4e-05,0.00048,0.00072,0.00023,4e-05,1e-05,4,19
17331,-5e-05,-8e-05,4e-05,0.00048,0.00072,0.00023,4e-05,1e-05,4,19
17332,-5e-05,-8e-05,4e-05,0.00048,0.00072,0.00023,4e-05,1e-05,4,19
17333,-5e-05,-8e-05,4e-05,0.00048,0.00072,0.00023,4e-05,1e-05,4,19
17334,-5e-05,-8e-05,4e-05,0.00048,0.00072,0.00023,4e-05,1e-05,4,19
17335,-5e-05,-8e-05,4e-05,0.00048,0.00072,0.00023,4e-05,1e-05,4,19
17337,-5e-05,-8e-05,4e-05,0.00048,0.00072,0.00023,4e-05,1e-05,4,19
17339,-5e-05,-8e-05,4e-05,0.00048,0.00072,0.00023,4e-05,1e-05,4,19
17340,-5e-05,-8e-05,4e-05,0.00048,0.00072,0.00023,4e-05,1e-05,4,19
17341,1e-05,-0.0001,-0.00029,-0.00022,-0.00072,-0.00019,-6e-05,-2e-05,4,19
17342,3e-05,5e-05,9e-05,-0.00029,6e-05,-9e-05,3e-05,1e-05,4,19
17343,2e-05,1e-05,-4e-05,-0.00016,-0.00067,2e-05,1e-05,3e-05,4,19
17344,2e-05,1e-05,-4e-05,-0.00016,-0.00067,2e-05,1e-05,3e-05,4,19
17345,2e-05,1e-05,-4e-05,-0.00016,-0.00067,2e-05,1e-05,3e-05,4,19
17346,2e-05,1e-05,-4e-05,-0.00016,-0.00067,2e-05,1e-05,3e-05,4,19
17347,2e-05,1e-05,-4e-05,-0.00016,-0.00067,2e-05,1e-05,3e-05,4,19
17348,2e-05,1e-05,-4e-05,-0.00016,-0.00067,2e-05,1e-05,3e-05,4,19
17349,2e-05,1e-05,-4e-05,-0.00016,-0.00067,2e-05,1e-05,3e-05,4,19
17350,2e-05,1e-05,-4e-05,-0.00016,-0.00067,2e-05,1e-05,3e-05,4,19
17351,2e-05,1e-05,-4e-05,-0.00016,-0.00067,2e-05,1e-05,3e-05,4,19
17352,2e-05,1e-05,-4e-05,-0.00016,-0.00067,2e-05,1e-05,3e-05,4,19
17353,2e-05,1e-05,-4e-05,-0.00016,-0.00067,2e-05,1e-05,3e-05,4,19
17354,2e-05,1e-05,-4e-05,-0.00016,-0.00067,2e-05,1e-05,3e-05,4,19
17355,2e-05,1e-05,-4e-05,-0.00016,-0.00067,2e-05,1e-05,3e-05,4,19
17356,4e-05,7e-05,0.00012,0.00085,-0.00051,-3e-05,4e-05,3e-05,4,19
17357,4e-05,7e-05,0.00012,0.00085,-0.00051,-3e-05,4e-05,3e-05,4,19
17358,4e-05,7e-05,0.00012,0.00085,-0.00051,-3e-05,4e-05,3e-05,4,19
17359,4e-05,7e-05,0.00012,0.00085,-0.00051,-3e-05,4e-05,3e-05,4,19
17360,4e-05,7e-05,0.00012,0.00085,-0.00051,-3e-05,4e-05,3e-05,4,19
17362,4e-05,7e-05,0.00012,0.00085,-0.00051,-3e-05,4e-05,3e-05,4,19
17363,-1e-05,1e-05,3e-05,0.00019,0.00026,0.00018,4e-05,0,4,19
17364,-1e-05,1e-05,3e-05,0.00019,0.00026,0.00018,4e-05,0,4,19
17365,-1e-05,1e-05,3e-05,0.00019,0.00026,0.00018,4e-05,0,4,19
17366,-1e-05,1e-05,3e-05,0.00019,0.00026,0.00018,4e-05,0,4,19
17367,-1e-05,1e-05,3e-05,0.00019,0.00026,0.00018,4e-05,0,4,19
17368,-1e-05,1e-05,3e-05,0.00019,0.00026,0.00018,4e-05,0,4,19
17369,-1e-05,1e-05,3e-05,0.00019,0.00026,0.00018,4e-05,0,4,19
17370,-1e-05,1e-05,3e-05,0.00019,0.00026,0.00018,4e-05,0,4,19
17371,-1e-05,1e-05,3e-05,0.00019,0.00026,0.00018,4e-05,0,4,19
17372,-1e-05,1e-05,3e-05,0.00019,0.00026,0.00018,4e-05,0,4,19
17373,-1e-05,1e-05,3e-05,0.00019,0.00026,0.00018,4e-05,0,4,19
17374,-1e-05,1e-05,3e-05,0.00019,0.00026,0.00018,4e-05,0,4,19
17375,-1e-05,1e-05,3e-05,0.00019,0.00026,0.00018,4e-05,0,4,19
17376,-1e-05,1e-05,3e-05,0.00019,0.00026,0.00018,4e-05,0,4,19
17377,-1e-05,1e-05,3e-05,0.00019,0.00026,0.00018,4e-05,0,4,19
17378,-1e-05,1e-05,3e-05,0.00019,0.00026,0.00018,4e-05,0,4,19
17379,-6e-05,-6e-05,-6e-05,-7e-05,-0.0006,-0.00021,-6e-05,-4e-05,4,19
17380,-6e-05,-6e-05,-6e-05,-7e-05,-0.0006,-0.00021,-6e-05,-4e-05,4,19
17381,0,-4e-05,-8e-05,0.00025,0.00055,7e-05,0,2e-05,4,19
17382,0,-4e-05,-8e-05,0.00025,0.00055,7e-05,0,2e-05,4,19
17383,0,-4e-05,-8e-05,0.00025,0.00055,7e-05,0,2e-05,4,19
17384,0,-4e-05,-8e-05,0.00025,0.00055,7e-05,0,2e-05,4,19
17385,0,-4e-05,-8e-05,0.00025,0.00055,7e-05,0,2e-05,4,19
17387,0,-4e-05,-8e-05,0.00025,0.00055,7e-05,0,2e-05,4,19
17389,0,-4e-05,-8e-05,0.00025,0.00055,7e-05,0,2e-05,4,19
17390,0,-4e-05,-8e-05,0.00025,0.00055,7e-05,0,2e-05,4,19
17391,0,-4e-05,-8e-05,0.00025,0.00055,7e-05,0,2e-05,4,19
17392,0,-4e-05,-8e-05,0.00025,0.00055,7e-05,0,2e-05,4,19
17393,0,-4e-05,-8e-05,0.00025,0.00055,7e-05,0,2e-05,4,19
17394,0,-4e-05,-8e-05,0.00025,0.00055,7e-05,0,2e-05,4,19
17395,0,-4e-05,-8e-05,0.00025,0.00055,7e-05,0,2e-05,4,19
17396,0,-4e-05,-8e-05,0.00025,0.00055,7e-05,0,2e-05,4,19
17397,0,-4e-05,-8e-05,0.00025,0.00055,7e-05,0,2e-05,4,19
17398,0,-4e-05,-8e-05,0.00025,0.00055,7e-05,0,2e-05,4,19
17399,0,-4e-05,-8e-05,0.00025,0.00055,7e-05,0,2e-05,4,19
17400,0,-4e-05,-8e-05,0.00025,0.00055,7e-05,0,2e-05,4,19
17401,3e-05,6e-05,2e-05,-0.00066,-5e-05,5e-05,-1e-05,2e-05,4,19
17402,3e-05,6e-05,2e-05,-0.00066,-5e-05,5e-05,-1e-05,2e-05,4,19
17403,1e-05,3e-05,4e-05,-0.00018,-0.00065,-0.00023,-3e-05,-3e-05,4,19
17404,1e-05,3e-05,4e-05,-0.00018,-0.00065,-0.00023,-3e-05,-3e-05,4,19
17405,1e-05,3e-05,4e-05,-0.00018,-0.00065,-0.00023,-3e-05,-3e-05,4,19
17406,1e-05,3e-05,4e-05,-0.00018,-0.00065,-0.00023,-3e-05,-3e-05,4,19
17408,1e-05,3e-05,4e-05,-0.00018,-0.00065,-0.00023,-3e-05,-3e-05,4,19
17409,1e-05,3e-05,4e-05,-0.00018,-0.00065,-0.00023,-3e-05,-3e-05,4,19
17410,1e-05,3e-05,4e-05,-0.00018,-0.00065,-0.00023,-3e-05,-3e-05,4,19
17411,1e-05,3e-05,4e-05,-0.00018,-0.00065,-0.00023,-3e-05,-3e-05,4,19
17412,1e-05,3e-05,4e-05,-0.00018,-0.00065,-0.00023,-3e-05,-3e-05,4,19
17413,1e-05,3e-05,4e-05,-0.00018,-0.00065,-0.00023,-3e-05,-3e-05,4,19
17414,1e-05,3e-05,4e-05,-0.00018,-0.00065,-0.00023,-3e-05,-3e-05,4,19
17415,-1e-05,-1e-05,-1e-05,-4e-05,8e-05,-0.00015,-3e-05,2e-05,4,19
17416,-1e-05,-1e-05,-1e-05,-4e-05,8e-05,-0.00015,-3e-05,2e-05,4,19
17417,-1e-05,-1e-05,-1e-05,-4e-05,8e-05,-0.00015,-3e-05,2e-05,4,19
17418,-1e-05,-1e-05,-1e-05,-4e-05,8e-05,-0.00015,-3e-05,2e-05,4,19
17419,-1e-05,-1e-05,-1e-05,-4e-05,8e-05,-0.00015,-3e-05,2e-05,4,19
17420,-1e-05,-1e-05,-1e-05,-4e-05,8e-05,-0.00015,-3e-05,2e-05,4,19
17421,-1e-05,-1e-05,-1e-05,-4e-05,8e-05,-0.00015,-3e-05,2e-05,4,19
17422,-1e-05,-1e-05,-1e-05,-4e-05,8e-05,-0.00015,-3e-05,2e-05,4,19
17423,-1e-05,-1e-05,-1e-05,-4e-05,8e-05,-0.00015,-3e-05,2e-05,4,19
17424,3e-05,3e-05,-0.00013,-0.00065,-0.00041,5e-05,7e-05,2e-05,4,19
17425,3e-05,3e-05,-0.00013,-0.00065,-0.00041,5e-05,7e-05,2e-05,4,19
17426,3e-05,3e-05,-0.00013,-0.00065,-0.00041,5e-05,7e-05,2e-05,4,19
17427,3e-05,3e-05,-0.00013,-0.00065,-0.00041,5e-05,7e-05,2e-05,4,19
17428,3e-05,3e-05,-0.00013,-0.00065,-0.00041,5e-05,7e-05,2e-05,4,19
17429,3e-05,3e-05,-0.00013,-0.00065,-0.00041,5e-05,7e-05,2e-05,4,19
17430,3e-05,3e-05,-0.00013,-0.00065,-0.00041,5e-05,7e-05,2e-05,4,19
17431,3e-05,3e-05,-0.00013,-0.00065,-0.00041,5e-05,7e-05,2e-05,4,19
17432,3e-05,3e-05,-0.00013,-0.00065,-0.00041,5e-05,7e-05,2e-05,4,19
17433,3e-05,3e-05,-0.00013,-0.00065,-0.00041,5e-05,7e-05,2e-05,4,19
17434,3e-05,3e-05,-0.00013,-0.00065,-0.00041,5e-05,7e-05,2e-05,4,19
17435,3e-05,3e-05,-0.00013,-0.00065,-0.00041,5e-05,7e-05,2e-05,4,19
17436,3e-05,3e-05,-0.00013,-0.00065,-0.00041,5e-05,7e-05,2e-05,4,19
17439,0,-1e-05,1e-05,-0.00023,-0.00033,-0.00018,-7e-05,-4e-05,4,19
17440,-2e-05,-2e-05,0.0001,0.00046,0.00069,0.00021,2e-05,0,4,19
17441,-5e-05,-6e-05,-3e-05,4e-05,-0.0007,-0.00013,-4e-05,-6e-05,4,19
17442,-5e-05,-6e-05,-3e-05,4e-05,-0.0007,-0.00013,-4e-05,-6e-05,4,19
17443,-5e-05,-6e-05,-3e-05,4e-05,-0.0007,-0.00013,-4e-05,-6e-05,4,19
17444,-5e-05,-6e-05,-3e-05,4e-05,-0.0007,-0.00013,-4e-05,-6e-05,4,19
17445,-5e-05,-6e-05,-3e-05,4e-05,-0.0007,-0.00013,-4e-05,-6e-05,4,19
17446,-5e-05,-6e-05,-3e-05,4e-05,-0.0007,-0.00013,-4e-05,-6e-05,4,19
17447,-5e-05,-6e-05,-3e-05,4e-05,-0.0007,-0.00013,-4e-05,-6e-05,4,19
17448,-5e-05,-6e-05,-3e-05,4e-05,-0.0007,-0.00013,-4e-05,-6e-05,4,19
17449,-5e-05,-6e-05,-3e-05,4e-05,-0.0007,-0.00013,-4e-05,-6e-05,4,19
17450,-5e-05,-6e-05,-3e-05,4e-05,-0.0007,-0.00013,-4e-05,-6e-05,4,19
17451,-5e-05,-6e-05,-3e-05,4e-05,-0.0007,-0.00013,-4e-05,-6e-05,4,19
17452,-5e-05,-6e-05,-3e-05,4e-05,-0.0007,-0.00013,-4e-05,-6e-05,4,19
17453,-5e-05,-6e-05,-3e-05,4e-05,-0.0007,-0.00013,-4e-05,-6e-05,4,19
17454,-5e-05,-6e-05,-3e-05,4e-05,-0.0007,-0.00013,-4e-05,-6e-05,4,19
17455,-5e-05,-6e-05,-3e-05,4e-05,-0.0007,-0.00013,-4e-05,-6e-05,4,19
17456,-5e-05,-6e-05,-3e-05,4e-05,-0.0007,-0.00013,-4e-05,-6e-05,4,19
17457,-5e-05,-6e-05,-3e-05,4e-05,-0.0007,-0.00013,-4e-05,-6e-05,4,19
17458,-5e-05,-6e-05,-3e-05,4e-05,-0.0007,-0.00013,-4e-05,-6e-05,4,19
17459,-5e-05,-6e-05,-3e-05,4e-05,-0.0007,-0.00013,-4e-05,-6e-05,4,19
17460,-5e-05,-6e-05,-3e-05,4e-05,-0.0007,-0.00013,-4e-05,-6e-05,4,19
17461,-6e-05,-9e-05,-0.00013,-0.00045,0.00018,6e-05,-1e-05,-2e-05,4,19
17462,-6e-05,-9e-05,-0.00013,-0.00045,0.00018,6e-05,-1e-05,-2e-05,4,19
17463,-2e-05,-5e-05,-2e-05,-4e-05,0.00012,-0.0002,-6e-05,-1e-05,4,19
17464,-2e-05,-5e-05,-2e-05,-4e-05,0.00012,-0.0002,-6e-05,-1e-05,4,19
17465,-2e-05,-5e-05,-2e-05,-4e-05,0.00012,-0.0002,-6e-05,-1e-05,4,19
17466,-2e-05,-5e-05,-2e-05,-4e-05,0.00012,-0.0002,-6e-05,-1e-05,4,19
17467,-2e-05,-5e-05,-2e-05,-4e-05,0.00012,-0.0002,-6e-05,-1e-05,4,19
17468,-2e-05,-5e-05,-2e-05,-4e-05,0.00012,-0.0002,-6e-05,-1e-05,4,19
17469,-2e-05,-5e-05,-2e-05,-4e-05,0.00012,-0.0002,-6e-05,-1e-05,4,19
17470,-2e-05,-5e-05,-2e-05,-4e-05,0.00012,-0.0002,-6e-05,-1e-05,4,19
17471,-2e-05,-5e-05,-2e-05,-4e-05,0.00012,-0.0002,-6e-05,-1e-05,4,19
17472,-2e-05,-5e-05,-2e-05,-4e-05,0.00012,-0.0002,-6e-05,-1e-05,4,19
17473,-2e-05,-5e-05,-2e-05,-4e-05,0.00012,-0.0002,-6e-05,-1e-05,4,19
17474,-2e-05,-5e-05,-2e-05,-4e-05,0.00012,-0.0002,-6e-05,-1e-05,4,19
17475,1e-05,0,-6e-05,-0.00019,-0.00028,5e-05,-2e-05,-1e-05,4,19
17476,1e-05,0,-6e-05,-0.00019,-0.00028,5e-05,-2e-05,-1e-05,4,19
17477,1e-05,0,-6e-05,-0.00019,-0.00028,5e-05,-2e-05,-1e-05,4,19
17478,1e-05,0,-6e-05,-0.00019,-0.00028,5e-05,-2e-05,-1e-05,4,19
17479,1e-05,0,-6e-05,-0.00019,-0.00028,5e-05,-2e-05,-1e-05,4,19
17480,1e-05,0,-6e-05,-0.00019,-0.00028,5e-05,-2e-05,-1e-05,4,19
17481,1e-05,0,-6e-05,-0.00019,-0.00028,5e-05,-2e-05,-1e-05,4,19
17482,1e-05,0,-6e-05,-0.00019,-0.00028,5e-05,-2e-05,-1e-05,4,19
17483,1e-05,0,-6e-05,-0.00019,-0.00028,5e-05,-2e-05,-1e-05,4,19
17484,-1e-05,6e-05,0.0001,0.00069,0.00055,5e-05,-2e-05,0,4,19
17485,-1e-05,6e-05,0.0001,0.00069,0.00055,5e-05,-2e-05,0,4,19
17487,-1e-05,6e-05,0.0001,0.00069,0.00055,5e-05,-2e-05,0,4,19
17489,-1e-05,6e-05,0.0001,0.00069,0.00055,5e-05,-2e-05,0,4,19
17490,-1e-05,6e-05,0.0001,0.00069,0.00055,5e-05,-2e-05,0,4,19
17491,-1e-05,6e-05,0.0001,0.00069,0.00055,5e-05,-2e-05,0,4,19
17492,-1e-05,6e-05,0.0001,0.00069,0.00055,5e-05,-2e-05,0,4,19
17493,-1e-05,6e-05,0.0001,0.00069,0.00055,5e-05,-2e-05,0,4,19
17494,-1e-05,6e-05,0.0001,0.00069,0.00055,5e-05,-2e-05,0,4,19
17495,-1e-05,6e-05,0.0001,0.00069,0.00055,5e-05,-2e-05,0,4,19
17496,-1e-05,6e-05,0.0001,0.00069,0.00055,5e-05,-2e-05,0,4,19
17497,-1e-05,6e-05,0.0001,0.00069,0.00055,5e-05,-2e-05,0,4,19
17498,-1e-05,6e-05,0.0001,0.00069,0.00055,5e-05,-2e-05,0,4,19
17499,1e-05,1e-05,5e-05,0.00021,-0.00047,-0.0001,-2e-05,0,4,19
17500,1e-05,1e-05,5e-05,0.00021,-0.00047,-0.0001,-2e-05,0,4,19
17501,2e-05,-1e-05,-6e-05,-0.00016,-0.00036,0.00013,2e-05,0,4,19
17502,2e-05,-1e-05,-6e-05,-0.00016,-0.00036,0.00013,2e-05,0,4,19
17503,2e-05,-1e-05,-6e-05,-0.00016,-0.00036,0.00013,2e-05,0,4,19
17504,2e-05,-1e-05,-6e-05,-0.00016,-0.00036,0.00013,2e-05,0,4,19
17505,2e-05,-1e-05,-6e-05,-0.00016,-0.00036,0.00013,2e-05,0,4,19
17506,2e-05,-1e-05,-6e-05,-0.00016,-0.00036,0.00013,2e-05,0,4,19
17507,2e-05,-1e-05,-6e-05,-0.00016,-0.00036,0.00013,2e-05,0,4,19
17508,2e-05,-1e-05,-6e-05,-0.00016,-0.00036,0.00013,2e-05,0,4,19
17509,2e-05,-1e-05,-6e-05,-0.00016,-0.00036,0.00013,2e-05,0,4,19
17510,2e-05,-1e-05,-6e-05,-0.00016,-0.00036,0.00013,2e-05,0,4,19
17511,2e-05,-1e-05,-6e-05,-0.00016,-0.00036,0.00013,2e-05,0,4,19
17512,2e-05,-1e-05,-6e-05,-0.00016,-0.00036,0.00013,2e-05,0,4,19
17513,2e-05,-1e-05,-6e-05,-0.00016,-0.00036,0.00013,2e-05,0,4,19
17514,2e-05,-1e-05,-6e-05,-0.00016,-0.00036,0.00013,2e-05,0,4,19
17515,2e-05,-1e-05,-6e-05,-0.00016,-0.00036,0.00013,2e-05,0,4,19
17516,2e-05,-1e-05,-6e-05,-0.00016,-0.00036,0.00013,2e-05,0,4,19
17517,2e-05,-1e-05,-6e-05,-0.00016,-0.00036,0.00013,2e-05,0,4,19
17518,2e-05,-1e-05,-6e-05,-0.00016,-0.00036,0.00013,2e-05,0,4,19
17519,2e-05,-1e-05,-6e-05,-0.00016,-0.00036,0.00013,2e-05,0,4,19
17520,2e-05,-1e-05,-6e-05,-0.00016,-0.00036,0.00013,2e-05,0,4,19
17521,2e-05,-2e-05,-4e-05,-0.0002,0.00037,0.00018,6e-05,0,4,19
17522,2e-05,-2e-05,-4e-05,-0.0002,0.00037,0.00018,6e-05,0,4,19
17523,-3e-05,7e-05,0,0.00029,0.00109,0.00023,0,-4e-05,4,19
17524,-3e-05,7e-05,0,0.00029,0.00109,0.00023,0,-4e-05,4,19
17525,-3e-05,7e-05,0,0.00029,0.00109,0.00023,0,-4e-05,4,19
17526,-3e-05,7e-05,0,0.00029,0.00109,0.00023,0,-4e-05,4,19
17527,-3e-05,7e-05,0,0.00029,0.00109,0.00023,0,-4e-05,4,19
17528,-3e-05,7e-05,0,0.00029,0.00109,0.00023,0,-4e-05,4,19
17529,-3e-05,7e-05,0,0.00029,0.00109,0.00023,0,-4e-05,4,19
17530,-3e-05,7e-05,0,0.00029,0.00109,0.00023,0,-4e-05,4,19
17531,-3e-05,7e-05,0,0.00029,0.00109,0.00023,0,-4e-05,4,19
17532,-3e-05,7e-05,0,0.00029,0.00109,0.00023,0,-4e-05,4,19
17533,-3e-05,7e-05,0,0.00029,0.00109,0.00023,0,-4e-05,4,19
17534,-3e-05,7e-05,0,0.00029,0.00109,0.00023,0,-4e-05,4,19
17535,-1e-05,-1e-05,-0.00011,-0.00026,-0.00012,-6e-05,-4e-05,-4e-05,4,19
17536,-1e-05,-1e-05,-0.00011,-0.00026,-0.00012,-6e-05,-4e-05,-4e-05,4,19
17538,-1e-05,-1e-05,-0.00011,-0.00026,-0.00012,-6e-05,-4e-05,-4e-05,4,19
17539,-1e-05,-1e-05,-0.00011,-0.00026,-0.00012,-6e-05,-4e-05,-4e-05,4,19
17540,-1e-05,-1e-05,-0.00011,-0.00026,-0.00012,-6e-05,-4e-05,-4e-05,4,19
17541,-1e-05,-1e-05,-0.00011,-0.00026,-0.00012,-6e-05,-4e-05,-4e-05,4,19
17542,-1e-05,-1e-05,-0.00011,-0.00026,-0.00012,-6e-05,-4e-05,-4e-05,4,19
17543,-1e-05,-1e-05,-0.00011,-0.00026,-0.00012,-6e-05,-4e-05,-4e-05,4,19
17544,-3e-05,5e-05,0.0001,0.00019,8e-05,7e-05,-3e-05,-2e-05,4,19
17545,-3e-05,5e-05,0.0001,0.00019,8e-05,7e-05,-3e-05,-2e-05,4,19
17546,-3e-05,5e-05,0.0001,0.00019,8e-05,7e-05,-3e-05,-2e-05,4,19
17547,-3e-05,5e-05,0.0001,0.00019,8e-05,7e-05,-3e-05,-2e-05,4,19
17548,-3e-05,5e-05,0.0001,0.00019,8e-05,7e-05,-3e-05,-2e-05,4,19
17549,-3e-05,5e-05,0.0001,0.00019,8e-05,7e-05,-3e-05,-2e-05,4,19
17550,-3e-05,5e-05,0.0001,0.00019,8e-05,7e-05,-3e-05,-2e-05,4,19
17551,-3e-05,5e-05,0.0001,0.00019,8e-05,7e-05,-3e-05,-2e-05,4,19
17552,-3e-05,5e-05,0.0001,0.00019,8e-05,7e-05,-3e-05,-2e-05,4,19
17553,-3e-05,5e-05,0.0001,0.00019,8e-05,7e-05,-3e-05,-2e-05,4,19
17554,-3e-05,5e-05,0.0001,0.00019,8e-05,7e-05,-3e-05,-2e-05,4,19
17555,-3e-05,5e-05,0.0001,0.00019,8e-05,7e-05,-3e-05,-2e-05,4,19
17556,-3e-05,5e-05,0.0001,0.00019,8e-05,7e-05,-3e-05,-2e-05,4,19
17557,-3e-05,5e-05,0.0001,0.00019,8e-05,7e-05,-3e-05,-2e-05,4,19
17558,-3e-05,5e-05,0.0001,0.00019,8e-05,7e-05,-3e-05,-2e-05,4,19
17559,1e-05,0,-4e-05,-2e-05,0.00026,8e-05,2e-05,1e-05,4,19
17560,7e-05,0.00011,0.0002,0.00073,-0.00076,0.00015,7e-05,4e-05,4,19
17561,-4e-05,-4e-05,-6e-05,-0.00043,-0.00036,0.00014,-2e-05,0,4,19
17562,-4e-05,-4e-05,-6e-05,-0.00043,-0.00036,0.00014,-2e-05,0,4,19
17563,-4e-05,-4e-05,-6e-05,-0.00043,-0.00036,0.00014,-2e-05,0,4,19
17564,-4e-05,-4e-05,-6e-05,-0.00043,-0.00036,0.00014,-2e-05,0,4,19
17565,-4e-05,-4e-05,-6e-05,-0.00043,-0.00036,0.00014,-2e-05,0,4,19
17566,-4e-05,-4e-05,-6e-05,-0.00043,-0.00036,0.00014,-2e-05,0,4,19
17567,-4e-05,-4e-05,-6e-05,-0.00043,-0.00036,0.00014,-2e-05,0,4,19
17568,-4e-05,-4e-05,-6e-05,-0.00043,-0.00036,0.00014,-2e-05,0,4,19
17569,-4e-05,-4e-05,-6e-05,-0.00043,-0.00036,0.00014,-2e-05,0,4,19
17570,-4e-05,-4e-05,-6e-05,-0.00043,-0.00036,0.00014,-2e-05,0,4,19
17571,-4e-05,-4e-05,-6e-05,-0.00043,-0.00036,0.00014,-2e-05,0,4,19
17572,-4e-05,-4e-05,-6e-05,-0.00043,-0.00036,0.00014,-2e-05,0,4,19
17573,-4e-05,-4e-05,-6e-05,-0.00043,-0.00036,0.00014,-2e-05,0,4,19
17574,-4e-05,-4e-05,-6e-05,-0.00043,-0.00036,0.00014,-2e-05,0,4,19
17575,-4e-05,-4e-05,-6e-05,-0.00043,-0.00036,0.00014,-2e-05,0,4,19
17576,-4e-05,-4e-05,-6e-05,-0.00043,-0.00036,0.00014,-2e-05,0,4,19
17577,-4e-05,-4e-05,-6e-05,-0.00043,-0.00036,0.00014,-2e-05,0,4,19
17578,-4e-05,-4e-05,-6e-05,-0.00043,-0.00036,0.00014,-2e-05,0,4,19
17579,-4e-05,-4e-05,-6e-05,-0.00043,-0.00036,0.00014,-2e-05,0,4,19
17580,-4e-05,-4e-05,-6e-05,-0.00043,-0.00036,0.00014,-2e-05,0,4,19
17581,-1e-05,-1e-05,-8e-05,6e-05,5e-05,-0.0001,-4e-05,-5e-05,4,19
17582,-1e-05,1e-05,0.0001,0.00014,0.00023,-2e-05,-1e-05,2e-05,4,19
17583,-1e-05,-8e-05,-6e-05,-0.00022,-0.00042,-0.00029,-7e-05,-4e-05,4,19
17584,-1e-05,-8e-05,-6e-05,-0.00022,-0.00042,-0.00029,-7e-05,-4e-05,4,19
17585,-1e-05,-8e-05,-6e-05,-0.00022,-0.00042,-0.00029,-7e-05,-4e-05,4,19
17586,-1e-05,-8e-05,-6e-05,-0.00022,-0.00042,-0.00029,-7e-05,-4e-05,4,19
17588,-1e-05,-8e-05,-6e-05,-0.00022,-0.00042,-0.00029,-7e-05,-4e-05,4,19
17589,-1e-05,-8e-05,-6e-05,-0.00022,-0.00042,-0.00029,-7e-05,-4e-05,4,19
17590,-1e-05,-8e-05,-6e-05,-0.00022,-0.00042,-0.00029,-7e-05,-4e-05,4,19
17591,-1e-05,-8e-05,-6e-05,-0.00022,-0.00042,-0.00029,-7e-05,-4e-05,4,19
17592,-1e-05,-8e-05,-6e-05,-0.00022,-0.00042,-0.00029,-7e-05,-4e-05,4,19
17593,-1e-05,-8e-05,-6e-05,-0.00022,-0.00042,-0.00029,-7e-05,-4e-05,4,19
17594,-1e-05,-8e-05,-6e-05,-0.00022,-0.00042,-0.00029,-7e-05,-4e-05,4,19
17595,-1e-05,-8e-05,-6e-05,-0.00022,-0.00042,-0.00029,-7e-05,-4e-05,4,19
17596,-1e-05,2e-05,2e-05,-0.0001,0.00045,0.0003,3e-05,0,4,19
17597,-1e-05,2e-05,2e-05,-0.0001,0.00045,0.0003,3e-05,0,4,19
17598,-1e-05,2e-05,2e-05,-0.0001,0.00045,0.0003,3e-05,0,4,19
17599,-1e-05,2e-05,2e-05,-0.0001,0.00045,0.0003,3e-05,0,4,19
17600,-1e-05,2e-05,2e-05,-0.0001,0.00045,0.0003,3e-05,0,4,19
17601,-1e-05,2e-05,2e-05,-0.0001,0.00045,0.0003,3e-05,0,4,19
17602,-1e-05,2e-05,2e-05,-0.0001,0.00045,0.0003,3e-05,0,4,19
17603,-1e-05,2e-05,2e-05,-0.0001,0.00045,0.0003,3e-05,0,4,19
17604,-3e-05,-5e-05,-9e-05,-4e-05,-0.00043,0.00011,0,0,4,19
17605,-3e-05,-5e-05,-9e-05,-4e-05,-0.00043,0.00011,0,0,4,19
17606,-3e-05,-5e-05,-9e-05,-4e-05,-0.00043,0.00011,0,0,4,19
17607,-3e-05,-5e-05,-9e-05,-4e-05,-0.00043,0.00011,0,0,4,19
17608,-3e-05,-5e-05,-9e-05,-4e-05,-0.00043,0.00011,0,0,4,19
17609,-3e-05,-5e-05,-9e-05,-4e-05,-0.00043,0.00011,0,0,4,19
17610,-3e-05,-5e-05,-9e-05,-4e-05,-0.00043,0.00011,0,0,4,19
17611,-3e-05,-5e-05,-9e-05,-4e-05,-0.00043,0.00011,0,0,4,19
17612,-3e-05,-5e-05,-9e-05,-4e-05,-0.00043,0.00011,0,0,4,19
17613,-3e-05,-5e-05,-9e-05,-4e-05,-0.00043,0.00011,0,0,4,19
17614,-3e-05,-5e-05,-9e-05,-4e-05,-0.00043,0.00011,0,0,4,19
17615,-3e-05,-5e-05,-9e-05,-4e-05,-0.00043,0.00011,0,0,4,19
17616,-3e-05,-5e-05,-9e-05,-4e-05,-0.00043,0.00011,0,0,4,19
17617,-3e-05,-5e-05,-9e-05,-4e-05,-0.00043,0.00011,0,0,4,19
17618,-3e-05,-5e-05,-9e-05,-4e-05,-0.00043,0.00011,0,0,4,19
17619,-2e-05,4e-05,0.00016,0.0004,-0.00032,-0.00012,-6e-05,-2e-05,4,19
17620,-2e-05,4e-05,0.00016,0.0004,-0.00032,-0.00012,-6e-05,-2e-05,4,19
17621,5e-05,-1e-05,0.00012,0.00014,0.00062,0.00019,0.0001,6e-05,4,19
17622,5e-05,-1e-05,0.00012,0.00014,0.00062,0.00019,0.0001,6e-05,4,19
17623,5e-05,-1e-05,0.00012,0.00014,0.00062,0.00019,0.0001,6e-05,4,19
17624,5e-05,-1e-05,0.00012,0.00014,0.00062,0.00019,0.0001,6e-05,4,19
17625,5e-05,-1e-05,0.00012,0.00014,0.00062,0.00019,0.0001,6e-05,4,19
17626,5e-05,-1e-05,0.00012,0.00014,0.00062,0.00019,0.0001,6e-05,4,19
17627,5e-05,-1e-05,0.00012,0.00014,0.00062,0.00019,0.0001,6e-05,4,19
17628,5e-05,-1e-05,0.00012,0.00014,0.00062,0.00019,0.0001,6e-05,4,19
17629,5e-05,-1e-05,0.00012,0.00014,0.00062,0.00019,0.0001,6e-05,4,19
17630,5e-05,-1e-05,0.00012,0.00014,0.00062,0.00019,0.0001,6e-05,4,19
17631,5e-05,-1e-05,0.00012,0.00014,0.00062,0.00019,0.0001,6e-05,4,19
17632,5e-05,-1e-05,0.00012,0.00014,0.00062,0.00019,0.0001,6e-05,4,19
17633,5e-05,-1e-05,0.00012,0.00014,0.00062,0.00019,0.0001,6e-05,4,19
17634,5e-05,-1e-05,0.00012,0.00014,0.00062,0.00019,0.0001,6e-05,4,19
17635,5e-05,-1e-05,0.00012,0.00014,0.00062,0.00019,0.0001,6e-05,4,19
17636,5e-05,-1e-05,0.00012,0.00014,0.00062,0.00019,0.0001,6e-05,4,19
17638,5e-05,-1e-05,0.00012,0.00014,0.00062,0.00019,0.0001,6e-05,4,19
17639,5e-05,-1e-05,0.00012,0.00014,0.00062,0.00019,0.0001,6e-05,4,19
17640,5e-05,-1e-05,0.00012,0.00014,0.00062,0.00019,0.0001,6e-05,4,19
17641,-8e-05,-8e-05,-0.00012,-0.00064,-0.00029,-3e-05,-7e-05,-4e-05,4,19
17642,0,-1e-05,2e-05,9e-05,0.00021,-0.00011,0,-2e-05,4,19
17643,2e-05,-1e-05,-0.00013,-3e-05,0,-0.00019,-2e-05,1e-05,4,19
17644,2e-05,-1e-05,-0.00013,-3e-05,0,-0.00019,-2e-05,1e-05,4,19
17645,2e-05,-1e-05,-0.00013,-3e-05,0,-0.00019,-2e-05,1e-05,4,19
17646,2e-05,-1e-05,-0.00013,-3e-05,0,-0.00019,-2e-05,1e-05,4,19
17647,2e-05,-1e-05,-0.00013,-3e-05,0,-0.00019,-2e-05,1e-05,4,19
17648,2e-05,-1e-05,-0.00013,-3e-05,0,-0.00019,-2e-05,1e-05,4,19
17649,2e-05,-1e-05,-0.00013,-3e-05,0,-0.00019,-2e-05,1e-05,4,19
17650,2e-05,-1e-05,-0.00013,-3e-05,0,-0.00019,-2e-05,1e-05,4,19
17651,2e-05,-1e-05,-0.00013,-3e-05,0,-0.00019,-2e-05,1e-05,4,19
17652,2e-05,-1e-05,-0.00013,-3e-05,0,-0.00019,-2e-05,1e-05,4,19
17653,2e-05,-1e-05,-0.00013,-3e-05,0,-0.00019,-2e-05,1e-05,4,19
17654,2e-05,-1e-05,-0.00013,-3e-05,0,-0.00019,-2e-05,1e-05,4,19
17655,0,-3e-05,-2e-05,-8e-05,-5e-05,1e-05,-5e-05,-3e-05,4,19
17656,0,-3e-05,-2e-05,-8e-05,-5e-05,1e-05,-5e-05,-3e-05,4,19
17657,0,-3e-05,-2e-05,-8e-05,-5e-05,1e-05,-5e-05,-3e-05,4,19
17658,0,-3e-05,-2e-05,-8e-05,-5e-05,1e-05,-5e-05,-3e-05,4,19
17659,0,-3e-05,-2e-05,-8e-05,-5e-05,1e-05,-5e-05,-3e-05,4,19
17660,0,-3e-05,-2e-05,-8e-05,-5e-05,1e-05,-5e-05,-3e-05,4,19
17661,0,-3e-05,-2e-05,-8e-05,-5e-05,1e-05,-5e-05,-3e-05,4,19
17662,0,-3e-05,-2e-05,-8e-05,-5e-05,1e-05,-5e-05,-3e-05,4,19
17663,0,-3e-05,-2e-05,-8e-05,-5e-05,1e-05,-5e-05,-3e-05,4,19
17664,-3e-05,-6e-05,-0.00018,-0.00055,-0.0007,-0.00029,-5e-05,-6e-05,4,19
17665,-3e-05,-6e-05,-0.00018,-0.00055,-0.0007,-0.00029,-5e-05,-6e-05,4,19
17666,-3e-05,-6e-05,-0.00018,-0.00055,-0.0007,-0.00029,-5e-05,-6e-05,4,19
17667,-3e-05,-6e-05,-0.00018,-0.00055,-0.0007,-0.00029,-5e-05,-6e-05,4,19
17668,-3e-05,-6e-05,-0.00018,-0.00055,-0.0007,-0.00029,-5e-05,-6e-05,4,19
17669,-3e-05,-6e-05,-0.00018,-0.00055,-0.0007,-0.00029,-5e-05,-6e-05,4,19
17670,-3e-05,-6e-05,-0.00018,-0.00055,-0.0007,-0.00029,-5e-05,-6e-05,4,19
17671,-3e-05,-6e-05,-0.00018,-0.00055,-0.0007,-0.00029,-5e-05,-6e-05,4,19
17672,-3e-05,-6e-05,-0.00018,-0.00055,-0.0007,-0.00029,-5e-05,-6e-05,4,19
17673,-3e-05,-6e-05,-0.00018,-0.00055,-0.0007,-0.00029,-5e-05,-6e-05,4,19
17674,-3e-05,-6e-05,-0.00018,-0.00055,-0.0007,-0.00029,-5e-05,-6e-05,4,19
17675,-3e-05,-6e-05,-0.00018,-0.00055,-0.0007,-0.00029,-5e-05,-6e-05,4,19
17676,-3e-05,-6e-05,-0.00018,-0.00055,-0.0007,-0.00029,-5e-05,-6e-05,4,19
17677,-3e-05,-6e-05,-0.00018,-0.00055,-0.0007,-0.00029,-5e-05,-6e-05,4,19
17678,-3e-05,-6e-05,-0.00018,-0.00055,-0.0007,-0.00029,-5e-05,-6e-05,4,19
17679,2e-05,2e-05,-0.00011,-0.00048,-0.00047,-0.00011,-1e-05,2e-05,4,19
17680,1e-05,1e-05,4e-05,0.00048,0.00011,-4e-05,4e-05,2e-05,4,19
17681,-4e-05,-3e-05,7e-05,7e-05,-0.00026,3e-05,-4e-05,-6e-05,4,19
17682,-4e-05,-3e-05,7e-05,7e-05,-0.00026,3e-05,-4e-05,-6e-05,4,19
17683,-4e-05,-3e-05,7e-05,7e-05,-0.00026,3e-05,-4e-05,-6e-05,4,19
17684,-4e-05,-3e-05,7e-05,7e-05,-0.00026,3e-05,-4e-05,-6e-05,4,19
17685,-4e-05,-3e-05,7e-05,7e-05,-0.00026,3e-05,-4e-05,-6e-05,4,19
17686,-4e-05,-3e-05,7e-05,7e-05,-0.00026,3e-05,-4e-05,-6e-05,4,19
17688,-4e-05,-3e-05,7e-05,7e-05,-0.00026,3e-05,-4e-05,-6e-05,4,19
17689,-4e-05,-3e-05,7e-05,7e-05,-0.00026,3e-05,-4e-05,-6e-05,4,19
17690,-4e-05,-3e-05,7e-05,7e-05,-0.00026,3e-05,-4e-05,-6e-05,4,19
17691,-4e-05,-3e-05,7e-05,7e-05,-0.00026,3e-05,-4e-05,-6e-05,4,19
17692,-4e-05,-3e-05,7e-05,7e-05,-0.00026,3e-05,-4e-05,-6e-05,4,19
17693,-4e-05,-3e-05,7e-05,7e-05,-0.00026,3e-05,-4e-05,-6e-05,4,19
17694,-4e-05,-3e-05,7e-05,7e-05,-0.00026,3e-05,-4e-05,-6e-05,4,19
17695,-4e-05,-3e-05,7e-05,7e-05,-0.00026,3e-05,-4e-05,-6e-05,4,19
17696,-4e-05,-3e-05,7e-05,7e-05,-0.00026,3e-05,-4e-05,-6e-05,4,19
17697,-4e-05,-3e-05,7e-05,7e-05,-0.00026,3e-05,-4e-05,-6e-05,4,19
17698,-4e-05,-3e-05,7e-05,7e-05,-0.00026,3e-05,-4e-05,-6e-05,4,19
17699,-4e-05,-3e-05,7e-05,7e-05,-0.00026,3e-05,-4e-05,-6e-05,4,19
17700,-4e-05,-3e-05,7e-05,7e-05,-0.00026,3e-05,-4e-05,-6e-05,4,19
17701,-1e-05,-1e-05,-2e-05,4e-05,0.0004,0.00019,4e-05,2e-05,4,19
17702,-1e-05,-1e-05,-2e-05,4e-05,0.0004,0.00019,4e-05,2e-05,4,19
17703,0,5e-05,0.00012,0.00095,0.00057,-0.00013,-1e-05,0,4,19
17704,0,5e-05,0.00012,0.00095,0.00057,-0.00013,-1e-05,0,4,19
17705,0,5e-05,0.00012,0.00095,0.00057,-0.00013,-1e-05,0,4,19
17706,0,5e-05,0.00012,0.00095,0.00057,-0.00013,-1e-05,0,4,19
17707,0,5e-05,0.00012,0.00095,0.00057,-0.00013,-1e-05,0,4,19
17708,0,5e-05,0.00012,0.00095,0.00057,-0.00013,-1e-05,0,4,19
17709,0,5e-05,0.00012,0.00095,0.00057,-0.00013,-1e-05,0,4,19
17710,0,5e-05,0.00012,0.00095,0.00057,-0.00013,-1e-05,0,4,19
17711,0,5e-05,0.00012,0.00095,0.00057,-0.00013,-1e-05,0,4,19
17712,0,5e-05,0.00012,0.00095,0.00057,-0.00013,-1e-05,0,4,19
17713,0,5e-05,0.00012,0.00095,0.00057,-0.00013,-1e-05,0,4,19
17714,0,5e-05,0.00012,0.00095,0.00057,-0.00013,-1e-05,0,4,19
17715,0,5e-05,0.00012,0.00095,0.00057,-0.00013,-1e-05,0,4,19
17716,0,5e-05,0.00012,0.00095,0.00057,-0.00013,-1e-05,0,4,19
17717,0,5e-05,0.00012,0.00095,0.00057,-0.00013,-1e-05,0,4,19
17718,0,5e-05,0.00012,0.00095,0.00057,-0.00013,-1e-05,0,4,19
17719,0,5e-05,0.00012,0.00095,0.00057,-0.00013,-1e-05,0,4,19
17720,0,5e-05,0.00012,0.00095,0.00057,-0.00013,-1e-05,0,4,19
17721,0,5e-05,0.00012,0.00095,0.00057,-0.00013,-1e-05,0,4,19
17722,0,5e-05,0.00012,0.00095,0.00057,-0.00013,-1e-05,0,4,19
17723,0,5e-05,0.00012,0.00095,0.00057,-0.00013,-1e-05,0,4,19
17724,-5e-05,-2e-05,8e-05,0.00079,0.00052,3e-05,-3e-05,-5e-05,4,19
17725,4e-05,1e-05,-9e-05,-0.00041,-0.00021,0.00012,5e-05,6e-05,4,19
17726,-2e-05,6e-05,0.00017,0.00047,0,-6e-05,-2e-05,-2e-05,4,19
17727,-2e-05,6e-05,0.00017,0.00047,0,-6e-05,-2e-05,-2e-05,4,19
17728,-2e-05,6e-05,0.00017,0.00047,0,-6e-05,-2e-05,-2e-05,4,19
17729,-2e-05,6e-05,0.00017,0.00047,0,-6e-05,-2e-05,-2e-05,4,19
17730,-2e-05,6e-05,0.00017,0.00047,0,-6e-05,-2e-05,-2e-05,4,19
17731,-2e-05,6e-05,0.00017,0.00047,0,-6e-05,-2e-05,-2e-05,4,19
17732,-2e-05,6e-05,0.00017,0.00047,0,-6e-05,-2e-05,-2e-05,4,19
17733,-2e-05,6e-05,0.00017,0.00047,0,-6e-05,-2e-05,-2e-05,4,19
17734,-2e-05,6e-05,0.00017,0.00047,0,-6e-05,-2e-05,-2e-05,4,19
17735,-2e-05,6e-05,0.00017,0.00047,0,-6e-05,-2e-05,-2e-05,4,19
17736,-2e-05,6e-05,0.00017,0.00047,0,-6e-05,-2e-05,-2e-05,4,19
17738,-2e-05,6e-05,0.00017,0.00047,0,-6e-05,-2e-05,-2e-05,4,19
17739,-1e-05,-6e-05,-0.00024,-0.00092,-0.00047,-1e-05,-5e-05,-3e-05,4,19
17740,4e-05,4e-05,0.00024,0.00063,0.00045,1e-05,1e-05,0,4,19
17741,-5e-05,-4e-05,-7e-05,-0.00032,-0.00016,-8e-05,-4e-05,-3e-05,4,19
17742,-5e-05,-4e-05,-7e-05,-0.00032,-0.00016,-8e-05,-4e-05,-3e-05,4,19
17743,-5e-05,-4e-05,-7e-05,-0.00032,-0.00016,-8e-05,-4e-05,-3e-05,4,19
17744,-5e-05,-4e-05,-7e-05,-0.00032,-0.00016,-8e-05,-4e-05,-3e-05,4,19
17745,-5e-05,-4e-05,-7e-05,-0.00032,-0.00016,-8e-05,-4e-05,-3e-05,4,19
17746,-5e-05,-4e-05,-7e-05,-0.00032,-0.00016,-8e-05,-4e-05,-3e-05,4,19
17747,-5e-05,-4e-05,-7e-05,-0.00032,-0.00016,-8e-05,-4e-05,-3e-05,4,19
17748,-5e-05,-4e-05,-7e-05,-0.00032,-0.00016,-8e-05,-4e-05,-3e-05,4,19
17749,-5e-05,-4e-05,-7e-05,-0.00032,-0.00016,-8e-05,-4e-05,-3e-05,4,19
17750,-5e-05,-4e-05,-7e-05,-0.00032,-0.00016,-8e-05,-4e-05,-3e-05,4,19
17751,-5e-05,-4e-05,-7e-05,-0.00032,-0.00016,-8e-05,-4e-05,-3e-05,4,19
17752,-5e-05,-4e-05,-7e-05,-0.00032,-0.00016,-8e-05,-4e-05,-3e-05,4,19
17753,-5e-05,-4e-05,-7e-05,-0.00032,-0.00016,-8e-05,-4e-05,-3e-05,4,19
17754,-5e-05,-4e-05,-7e-05,-0.00032,-0.00016,-8e-05,-4e-05,-3e-05,4,19
17755,-5e-05,-4e-05,-7e-05,-0.00032,-0.00016,-8e-05,-4e-05,-3e-05,4,19
17756,-5e-05,-4e-05,-7e-05,-0.00032,-0.00016,-8e-05,-4e-05,-3e-05,4,19
17757,-5e-05,-4e-05,-7e-05,-0.00032,-0.00016,-8e-05,-4e-05,-3e-05,4,19
17758,-5e-05,-4e-05,-7e-05,-0.00032,-0.00016,-8e-05,-4e-05,-3e-05,4,19
17759,-5e-05,-4e-05,-7e-05,-0.00032,-0.00016,-8e-05,-4e-05,-3e-05,4,19
17760,-5e-05,-4e-05,-7e-05,-0.00032,-0.00016,-8e-05,-4e-05,-3e-05,4,19
17761,-4e-05,-3e-05,3e-05,-1e-05,0.00053,-2e-05,-5e-05,-5e-05,4,19
17762,3e-05,2e-05,3e-05,-0.00034,-0.00034,-1e-05,0,2e-05,4,19
17763,-4e-05,-0.00012,-0.00026,-0.00106,-0.00069,-2e-05,-1e-05,-2e-05,4,19
17764,-4e-05,-0.00012,-0.00026,-0.00106,-0.00069,-2e-05,-1e-05,-2e-05,4,19
17765,-4e-05,-0.00012,-0.00026,-0.00106,-0.00069,-2e-05,-1e-05,-2e-05,4,19
17766,-4e-05,-0.00012,-0.00026,-0.00106,-0.00069,-2e-05,-1e-05,-2e-05,4,19
17767,-4e-05,-0.00012,-0.00026,-0.00106,-0.00069,-2e-05,-1e-05,-2e-05,4,19
17768,-4e-05,-0.00012,-0.00026,-0.00106,-0.00069,-2e-05,-1e-05,-2e-05,4,19
17769,-4e-05,-0.00012,-0.00026,-0.00106,-0.00069,-2e-05,-1e-05,-2e-05,4,19
17770,-4e-05,-0.00012,-0.00026,-0.00106,-0.00069,-2e-05,-1e-05,-2e-05,4,19
17771,-4e-05,-0.00012,-0.00026,-0.00106,-0.00069,-2e-05,-1e-05,-2e-05,4,19
17772,-4e-05,-0.00012,-0.00026,-0.00106,-0.00069,-2e-05,-1e-05,-2e-05,4,19
17773,-4e-05,-0.00012,-0.00026,-0.00106,-0.00069,-2e-05,-1e-05,-2e-05,4,19
17774,-4e-05,-0.00012,-0.00026,-0.00106,-0.00069,-2e-05,-1e-05,-2e-05,4,19
17775,0,-1e-05,-3e-05,-7e-05,-0.0006,0,-1e-05,0,4,19
17776,0,-1e-05,-3e-05,-7e-05,-0.0006,0,-1e-05,0,4,19
17777,0,-1e-05,-3e-05,-7e-05,-0.0006,0,-1e-05,0,4,19
17778,0,-1e-05,-3e-05,-7e-05,-0.0006,0,-1e-05,0,4,19
17779,0,-1e-05,-3e-05,-7e-05,-0.0006,0,-1e-05,0,4,19
17780,0,-1e-05,-3e-05,-7e-05,-0.0006,0,-1e-05,0,4,19
17782,0,-1e-05,-3e-05,-7e-05,-0.0006,0,-1e-05,0,4,19
17783,0,-1e-05,-3e-05,-7e-05,-0.0006,0,-1e-05,0,4,19
17784,-3e-05,-2e-05,3e-05,-9e-05,0.00055,2e-05,3e-05,1e-05,4,19
17785,-3e-05,-2e-05,3e-05,-9e-05,0.00055,2e-05,3e-05,1e-05,4,19
17786,-3e-05,-2e-05,3e-05,-9e-05,0.00055,2e-05,3e-05,1e-05,4,19
17788,-3e-05,-2e-05,3e-05,-9e-05,0.00055,2e-05,3e-05,1e-05,4,19
17789,-3e-05,-2e-05,3e-05,-9e-05,0.00055,2e-05,3e-05,1e-05,4,19
17790,-3e-05,-2e-05,3e-05,-9e-05,0.00055,2e-05,3e-05,1e-05,4,19
17791,-3e-05,-2e-05,3e-05,-9e-05,0.00055,2e-05,3e-05,1e-05,4,19
17792,-3e-05,-2e-05,3e-05,-9e-05,0.00055,2e-05,3e-05,1e-05,4,19
17793,-3e-05,-2e-05,3e-05,-9e-05,0.00055,2e-05,3e-05,1e-05,4,19
17794,-3e-05,-2e-05,3e-05,-9e-05,0.00055,2e-05,3e-05,1e-05,4,19
17795,-3e-05,-2e-05,3e-05,-9e-05,0.00055,2e-05,3e-05,1e-05,4,19
17796,-3e-05,-2e-05,3e-05,-9e-05,0.00055,2e-05,3e-05,1e-05,4,19
17797,-3e-05,-2e-05,3e-05,-9e-05,0.00055,2e-05,3e-05,1e-05,4,19
17798,-3e-05,-2e-05,3e-05,-9e-05,0.00055,2e-05,3e-05,1e-05,4,19
17799,6e-05,0.0001,0.00011,-4e-05,-0.00041,-4e-05,6e-05,8e-05,4,19
17800,6e-05,0.0001,0.00011,-4e-05,-0.00041,-4e-05,6e-05,8e-05,4,19
17801,4e-05,0.00012,0.00018,0.00112,0.00069,0.00015,4e-05,3e-05,4,19
17802,4e-05,0.00012,0.00018,0.00112,0.00069,0.00015,4e-05,3e-05,4,19
17803,4e-05,0.00012,0.00018,0.00112,0.00069,0.00015,4e-05,3e-05,4,19
17804,4e-05,0.00012,0.00018,0.00112,0.00069,0.00015,4e-05,3e-05,4,19
17805,4e-05,0.00012,0.00018,0.00112,0.00069,0.00015,4e-05,3e-05,4,19
17806,4e-05,0.00012,0.00018,0.00112,0.00069,0.00015,4e-05,3e-05,4,19
17807,4e-05,0.00012,0.00018,0.00112,0.00069,0.00015,4e-05,3e-05,4,19
17808,4e-05,0.00012,0.00018,0.00112,0.00069,0.00015,4e-05,3e-05,4,19
17809,4e-05,0.00012,0.00018,0.00112,0.00069,0.00015,4e-05,3e-05,4,19
17810,4e-05,0.00012,0.00018,0.00112,0.00069,0.00015,4e-05,3e-05,4,19
17811,4e-05,0.00012,0.00018,0.00112,0.00069,0.00015,4e-05,3e-05,4,19
17812,4e-05,0.00012,0.00018,0.00112,0.00069,0.00015,4e-05,3e-05,4,19
17813,4e-05,0.00012,0.00018,0.00112,0.00069,0.00015,4e-05,3e-05,4,19
17814,4e-05,0.00012,0.00018,0.00112,0.00069,0.00015,4e-05,3e-05,4,19
17815,4e-05,0.00012,0.00018,0.00112,0.00069,0.00015,4e-05,3e-05,4,19
17816,4e-05,0.00012,0.00018,0.00112,0.00069,0.00015,4e-05,3e-05,4,19
17817,4e-05,0.00012,0.00018,0.00112,0.00069,0.00015,4e-05,3e-05,4,19
17818,4e-05,0.00012,0.00018,0.00112,0.00069,0.00015,4e-05,3e-05,4,19
17819,4e-05,0.00012,0.00018,0.00112,0.00069,0.00015,4e-05,3e-05,4,19
17820,4e-05,0.00012,0.00018,0.00112,0.00069,0.00015,4e-05,3e-05,4,19
17821,-1e-05,-4e-05,0,0.00027,0.00014,-7e-05,-2e-05,-4e-05,4,19
17822,-1e-05,-4e-05,0,0.00027,0.00014,-7e-05,-2e-05,-4e-05,4,19
17823,2e-05,0,-0.00012,-0.00028,-0.00102,2e-05,3e-05,3e-05,4,19
17824,2e-05,0,-0.00012,-0.00028,-0.00102,2e-05,3e-05,3e-05,4,19
17825,2e-05,0,-0.00012,-0.00028,-0.00102,2e-05,3e-05,3e-05,4,19
17826,2e-05,0,-0.00012,-0.00028,-0.00102,2e-05,3e-05,3e-05,4,19
17827,2e-05,0,-0.00012,-0.00028,-0.00102,2e-05,3e-05,3e-05,4,19
17828,2e-05,0,-0.00012,-0.00028,-0.00102,2e-05,3e-05,3e-05,4,19
17829,2e-05,0,-0.00012,-0.00028,-0.00102,2e-05,3e-05,3e-05,4,19
17830,2e-05,0,-0.00012,-0.00028,-0.00102,2e-05,3e-05,3e-05,4,19
17831,2e-05,0,-0.00012,-0.00028,-0.00102,2e-05,3e-05,3e-05,4,19
17832,2e-05,0,-0.00012,-0.00028,-0.00102,2e-05,3e-05,3e-05,4,19
17833,2e-05,0,-0.00012,-0.00028,-0.00102,2e-05,3e-05,3e-05,4,19
17834,2e-05,0,-0.00012,-0.00028,-0.00102,2e-05,3e-05,3e-05,4,19
17835,-6e-05,-7e-05,4e-05,1e-05,-0.0001,-4e-05,-2e-05,-2e-05,4,19
17836,-6e-05,-7e-05,4e-05,1e-05,-0.0001,-4e-05,-2e-05,-2e-05,4,19
17839,-6e-05,-7e-05,4e-05,1e-05,-0.0001,-4e-05,-2e-05,-2e-05,4,19
17840,-6e-05,-7e-05,4e-05,1e-05,-0.0001,-4e-05,-2e-05,-2e-05,4,19
17841,-6e-05,-7e-05,4e-05,1e-05,-0.0001,-4e-05,-2e-05,-2e-05,4,19
17842,-6e-05,-7e-05,4e-05,1e-05,-0.0001,-4e-05,-2e-05,-2e-05,4,19
17843,-6e-05,-7e-05,4e-05,1e-05,-0.0001,-4e-05,-2e-05,-2e-05,4,19
17844,-6e-05,-0.00011,-0.00022,-0.00083,-0.00104,-7e-05,-6e-05,-7e-05,4,19
17845,-6e-05,-0.00011,-0.00022,-0.00083,-0.00104,-7e-05,-6e-05,-7e-05,4,19
17846,-6e-05,-0.00011,-0.00022,-0.00083,-0.00104,-7e-05,-6e-05,-7e-05,4,19
17847,-6e-05,-0.00011,-0.00022,-0.00083,-0.00104,-7e-05,-6e-05,-7e-05,4,19
17848,-6e-05,-0.00011,-0.00022,-0.00083,-0.00104,-7e-05,-6e-05,-7e-05,4,19
17849,-6e-05,-0.00011,-0.00022,-0.00083,-0.00104,-7e-05,-6e-05,-7e-05,4,19
17850,-6e-05,-0.00011,-0.00022,-0.00083,-0.00104,-7e-05,-6e-05,-7e-05,4,19
17851,-6e-05,-0.00011,-0.00022,-0.00083,-0.00104,-7e-05,-6e-05,-7e-05,4,19
17852,-6e-05,-0.00011,-0.00022,-0.00083,-0.00104,-7e-05,-6e-05,-7e-05,4,19
17853,-6e-05,-0.00011,-0.00022,-0.00083,-0.00104,-7e-05,-6e-05,-7e-05,4,19
17854,-6e-05,-0.00011,-0.00022,-0.00083,-0.00104,-7e-05,-6e-05,-7e-05,4,19
17855,-6e-05,-0.00011,-0.00022,-0.00083,-0.00104,-7e-05,-6e-05,-7e-05,4,19
17856,-6e-05,-0.00011,-0.00022,-0.00083,-0.00104,-7e-05,-6e-05,-7e-05,4,19
17857,-6e-05,-0.00011,-0.00022,-0.00083,-0.00104,-7e-05,-6e-05,-7e-05,4,19
17858,-6e-05,-0.00011,-0.00022,-0.00083,-0.00104,-7e-05,-6e-05,-7e-05,4,19
17859,-3e-05,-3e-05,2e-05,-0.00013,0.00013,-1e-05,-5e-05,-5e-05,4,19
17860,-3e-05,-3e-05,2e-05,-0.00013,0.00013,-1e-05,-5e-05,-5e-05,4,19
17861,-1e-05,-1e-05,8e-05,-1e-05,0.00015,-2e-05,-6e-05,-4e-05,4,19
17862,-1e-05,-1e-05,8e-05,-1e-05,0.00015,-2e-05,-6e-05,-4e-05,4,19
17863,-1e-05,-1e-05,8e-05,-1e-05,0.00015,-2e-05,-6e-05,-4e-05,4,19
17864,-1e-05,-1e-05,8e-05,-1e-05,0.00015,-2e-05,-6e-05,-4e-05,4,19
17865,-1e-05,-1e-05,8e-05,-1e-05,0.00015,-2e-05,-6e-05,-4e-05,4,19
17866,-1e-05,-1e-05,8e-05,-1e-05,0.00015,-2e-05,-6e-05,-4e-05,4,19
17867,-1e-05,-1e-05,8e-05,-1e-05,0.00015,-2e-05,-6e-05,-4e-05,4,19
17868,-1e-05,-1e-05,8e-05,-1e-05,0.00015,-2e-05,-6e-05,-4e-05,4,19
17869,-1e-05,-1e-05,8e-05,-1e-05,0.00015,-2e-05,-6e-05,-4e-05,4,19
17870,-1e-05,-1e-05,8e-05,-1e-05,0.00015,-2e-05,-6e-05,-4e-05,4,19
17871,-1e-05,-1e-05,8e-05,-1e-05,0.00015,-2e-05,-6e-05,-4e-05,4,19
17872,-1e-05,-1e-05,8e-05,-1e-05,0.00015,-2e-05,-6e-05,-4e-05,4,19
17873,-1e-05,-1e-05,8e-05,-1e-05,0.00015,-2e-05,-6e-05,-4e-05,4,19
17874,-1e-05,-1e-05,8e-05,-1e-05,0.00015,-2e-05,-6e-05,-4e-05,4,19
17875,-1e-05,-1e-05,8e-05,-1e-05,0.00015,-2e-05,-6e-05,-4e-05,4,19
17876,-1e-05,-1e-05,8e-05,-1e-05,0.00015,-2e-05,-6e-05,-4e-05,4,19
17877,-1e-05,-1e-05,8e-05,-1e-05,0.00015,-2e-05,-6e-05,-4e-05,4,19
17878,-1e-05,-1e-05,8e-05,-1e-05,0.00015,-2e-05,-6e-05,-4e-05,4,19
17879,-1e-05,-1e-05,8e-05,-1e-05,0.00015,-2e-05,-6e-05,-4e-05,4,19
17880,-1e-05,-1e-05,8e-05,-1e-05,0.00015,-2e-05,-6e-05,-4e-05,4,19
17881,-2e-05,-5e-05,-5e-05,0.00013,3e-05,9e-05,0,-2e-05,4,19
17882,-2e-05,-5e-05,-5e-05,0.00013,3e-05,9e-05,0,-2e-05,4,19
17883,3e-05,7e-05,7e-05,0.00024,4e-05,-0.00014,2e-05,3e-05,4,19
17884,3e-05,7e-05,7e-05,0.00024,4e-05,-0.00014,2e-05,3e-05,4,19
17885,3e-05,7e-05,7e-05,0.00024,4e-05,-0.00014,2e-05,3e-05,4,19
17886,3e-05,7e-05,7e-05,0.00024,4e-05,-0.00014,2e-05,3e-05,4,19
17889,3e-05,7e-05,7e-05,0.00024,4e-05,-0.00014,2e-05,3e-05,4,19
17890,3e-05,7e-05,7e-05,0.00024,4e-05,-0.00014,2e-05,3e-05,4,19
17891,3e-05,7e-05,7e-05,0.00024,4e-05,-0.00014,2e-05,3e-05,4,19
17892,3e-05,7e-05,7e-05,0.00024,4e-05,-0.00014,2e-05,3e-05,4,19
17893,3e-05,7e-05,7e-05,0.00024,4e-05,-0.00014,2e-05,3e-05,4,19
17894,3e-05,7e-05,7e-05,0.00024,4e-05,-0.00014,2e-05,3e-05,4,19
17895,3e-05,7e-05,7e-05,0.00024,4e-05,-0.00014,2e-05,3e-05,4,19
17896,3e-05,7e-05,7e-05,0.00024,4e-05,-0.00014,2e-05,3e-05,4,19
17897,3e-05,7e-05,7e-05,0.00024,4e-05,-0.00014,2e-05,3e-05,4,19
17898,3e-05,7e-05,7e-05,0.00024,4e-05,-0.00014,2e-05,3e-05,4,19
17899,3e-05,7e-05,7e-05,0.00024,4e-05,-0.00014,2e-05,3e-05,4,19
17900,3e-05,7e-05,7e-05,0.00024,4e-05,-0.00014,2e-05,3e-05,4,19
17901,3e-05,7e-05,7e-05,0.00024,4e-05,-0.00014,2e-05,3e-05,4,19
17902,3e-05,7e-05,7e-05,0.00024,4e-05,-0.00014,2e-05,3e-05,4,19
17903,3e-05,7e-05,7e-05,0.00024,4e-05,-0.00014,2e-05,3e-05,4,19
17904,-2e-05,-5e-05,-4e-05,-0.00079,-0.00032,-9e-05,-4e-05,-2e-05,4,19
17905,-6e-05,-7e-05,-0.0002,0.00011,0.00014,5e-05,-2e-05,-3e-05,4,19
17906,1e-05,-8e-05,-8e-05,-0.00024,0.00024,-0.00011,-6e-05,-1e-05,4,19
17907,1e-05,-8e-05,-8e-05,-0.00024,0.00024,-0.00011,-6e-05,-1e-05,4,19
17908,1e-05,-8e-05,-8e-05,-0.00024,0.00024,-0.00011,-6e-05,-1e-05,4,19
17909,1e-05,-8e-05,-8e-05,-0.00024,0.00024,-0.00011,-6e-05,-1e-05,4,19
17910,1e-05,-8e-05,-8e-05,-0.00024,0.00024,-0.00011,-6e-05,-1e-05,4,19
17911,1e-05,-8e-05,-8e-05,-0.00024,0.00024,-0.00011,-6e-05,-1e-05,4,19
17912,1e-05,-8e-05,-8e-05,-0.00024,0.00024,-0.00011,-6e-05,-1e-05,4,19
17913,1e-05,-8e-05,-8e-05,-0.00024,0.00024,-0.00011,-6e-05,-1e-05,4,19
17914,1e-05,-8e-05,-8e-05,-0.00024,0.00024,-0.00011,-6e-05,-1e-05,4,19
17915,1e-05,-8e-05,-8e-05,-0.00024,0.00024,-0.00011,-6e-05,-1e-05,4,19
17916,1e-05,-8e-05,-8e-05,-0.00024,0.00024,-0.00011,-6e-05,-1e-05,4,19
17917,1e-05,-8e-05,-8e-05,-0.00024,0.00024,-0.00011,-6e-05,-1e-05,4,19
17918,1e-05,-8e-05,-8e-05,-0.00024,0.00024,-0.00011,-6e-05,-1e-05,4,19
17919,3e-05,6e-05,-9e-05,4e-05,-0.00061,-0.00012,3e-05,4e-05,4,19
17920,-7e-05,-0.00012,-1e-05,0.00014,0.00097,-7e-05,-8e-05,-6e-05,4,19
17921,0,-2e-05,2e-05,0.0003,-7e-05,-5e-05,-3e-05,-1e-05,4,19
17922,0,-2e-05,2e-05,0.0003,-7e-05,-5e-05,-3e-05,-1e-05,4,19
17923,0,-2e-05,2e-05,0.0003,-7e-05,-5e-05,-3e-05,-1e-05,4,19
17924,0,-2e-05,2e-05,0.0003,-7e-05,-5e-05,-3e-05,-1e-05,4,19
17925,0,-2e-05,2e-05,0.0003,-7e-05,-5e-05,-3e-05,-1e-05,4,19
17926,0,-2e-05,2e-05,0.0003,-7e-05,-5e-05,-3e-05,-1e-05,4,19
17927,0,-2e-05,2e-05,0.0003,-7e-05,-5e-05,-3e-05,-1e-05,4,19
17928,0,-2e-05,2e-05,0.0003,-7e-05,-5e-05,-3e-05,-1e-05,4,19
17929,0,-2e-05,2e-05,0.0003,-7e-05,-5e-05,-3e-05,-1e-05,4,19
17930,0,-2e-05,2e-05,0.0003,-7e-05,-5e-05,-3e-05,-1e-05,4,19
17931,0,-2e-05,2e-05,0.0003,-7e-05,-5e-05,-3e-05,-1e-05,4,19
17932,0,-2e-05,2e-05,0.0003,-7e-05,-5e-05,-3e-05,-1e-05,4,19
17933,0,-2e-05,2e-05,0.0003,-7e-05,-5e-05,-3e-05,-1e-05,4,19
17934,0,-2e-05,2e-05,0.0003,-7e-05,-5e-05,-3e-05,-1e-05,4,19
17935,0,-2e-05,2e-05,0.0003,-7e-05,-5e-05,-3e-05,-1e-05,4,19
17936,0,-2e-05,2e-05,0.0003,-7e-05,-5e-05,-3e-05,-1e-05,4,19
17938,0,-2e-05,2e-05,0.0003,-7e-05,-5e-05,-3e-05,-1e-05,4,19
17939,0,-2e-05,2e-05,0.0003,-7e-05,-5e-05,-3e-05,-1e-05,4,19
17940,0,-2e-05,2e-05,0.0003,-7e-05,-5e-05,-3e-05,-1e-05,4,19
17941,3e-05,6e-05,0.00014,0.0001,0.00021,0.0001,4e-05,3e-05,4,19
17942,3e-05,6e-05,0.00014,0.0001,0.00021,0.0001,4e-05,3e-05,4,19
17943,4e-05,0.00012,0.00019,0.00047,0.00085,0.00026,6e-05,3e-05,4,19
17944,4e-05,0.00012,0.00019,0.00047,0.00085,0.00026,6e-05,3e-05,4,19
17945,4e-05,0.00012,0.00019,0.00047,0.00085,0.00026,6e-05,3e-05,4,19
17946,4e-05,0.00012,0.00019,0.00047,0.00085,0.00026,6e-05,3e-05,4,19
17947,4e-05,0.00012,0.00019,0.00047,0.00085,0.00026,6e-05,3e-05,4,19
17948,4e-05,0.00012,0.00019,0.00047,0.00085,0.00026,6e-05,3e-05,4,19
17949,4e-05,0.00012,0.00019,0.00047,0.00085,0.00026,6e-05,3e-05,4,19
17950,4e-05,0.00012,0.00019,0.00047,0.00085,0.00026,6e-05,3e-05,4,19
17951,4e-05,0.00012,0.00019,0.00047,0.00085,0.00026,6e-05,3e-05,4,19
17952,4e-05,0.00012,0.00019,0.00047,0.00085,0.00026,6e-05,3e-05,4,19
17953,4e-05,0.00012,0.00019,0.00047,0.00085,0.00026,6e-05,3e-05,4,19
17954,4e-05,0.00012,0.00019,0.00047,0.00085,0.00026,6e-05,3e-05,4,19
17955,4e-05,0.00012,0.00019,0.00047,0.00085,0.00026,6e-05,3e-05,4,19
17956,4e-05,0.00012,0.00019,0.00047,0.00085,0.00026,6e-05,3e-05,4,19
17957,4e-05,0.00012,0.00019,0.00047,0.00085,0.00026,6e-05,3e-05,4,19
17958,4e-05,0.00012,0.00019,0.00047,0.00085,0.00026,6e-05,3e-05,4,19
17959,4e-05,0.00012,0.00019,0.00047,0.00085,0.00026,6e-05,3e-05,4,19
17960,4e-05,0.00012,0.00019,0.00047,0.00085,0.00026,6e-05,3e-05,4,19
17961,4e-05,0.00012,0.00019,0.00047,0.00085,0.00026,6e-05,3e-05,4,19
17962,4e-05,0.00012,0.00019,0.00047,0.00085,0.00026,6e-05,3e-05,4,19
17963,4e-05,0.00012,0.00019,0.00047,0.00085,0.00026,6e-05,3e-05,4,19
17964,-4e-05,-4e-05,-7e-05,-0.0002,-0.00047,-0.00014,-6e-05,-3e-05,4,19
17965,-4e-05,-4e-05,-7e-05,-0.0002,-0.00047,-0.00014,-6e-05,-3e-05,4,19
17966,1e-05,2e-05,8e-05,-0.00037,-0.00018,-6e-05,0,1e-05,4,19
17967,1e-05,2e-05,8e-05,-0.00037,-0.00018,-6e-05,0,1e-05,4,19
17968,1e-05,2e-05,8e-05,-0.00037,-0.00018,-6e-05,0,1e-05,4,19
17969,1e-05,2e-05,8e-05,-0.00037,-0.00018,-6e-05,0,1e-05,4,19
17970,1e-05,2e-05,8e-05,-0.00037,-0.00018,-6e-05,0,1e-05,4,19
17971,1e-05,2e-05,8e-05,-0.00037,-0.00018,-6e-05,0,1e-05,4,19
17972,1e-05,2e-05,8e-05,-0.00037,-0.00018,-6e-05,0,1e-05,4,19
17973,1e-05,2e-05,8e-05,-0.00037,-0.00018,-6e-05,0,1e-05,4,19
17974,1e-05,2e-05,8e-05,-0.00037,-0.00018,-6e-05,0,1e-05,4,19
17975,1e-05,2e-05,8e-05,-0.00037,-0.00018,-6e-05,0,1e-05,4,19
17976,1e-05,2e-05,8e-05,-0.00037,-0.00018,-6e-05,0,1e-05,4,19
17977,1e-05,2e-05,8e-05,-0.00037,-0.00018,-6e-05,0,1e-05,4,19
17978,1e-05,2e-05,8e-05,-0.00037,-0.00018,-6e-05,0,1e-05,4,19
17979,-4e-05,-5e-05,-4e-05,-3e-05,0.00021,-0.0001,-5e-05,-4e-05,4,19
17980,-4e-05,-5e-05,-4e-05,-3e-05,0.00021,-0.0001,-5e-05,-4e-05,4,19
17981,2e-05,5e-05,0.00014,0.00075,0.00058,0.00024,7e-05,4e-05,4,19
17982,2e-05,5e-05,0.00014,0.00075,0.00058,0.00024,7e-05,4e-05,4,19
17983,2e-05,5e-05,0.00014,0.00075,0.00058,0.00024,7e-05,4e-05,4,19
17984,2e-05,5e-05,0.00014,0.00075,0.00058,0.00024,7e-05,4e-05,4,19
17985,2e-05,5e-05,0.00014,0.00075,0.00058,0.00024,7e-05,4e-05,4,19
17986,2e-05,5e-05,0.00014,0.00075,0.00058,0.00024,7e-05,4e-05,4,19
17989,2e-05,5e-05,0.00014,0.00075,0.00058,0.00024,7e-05,4e-05,4,19
17990,2e-05,5e-05,0.00014,0.00075,0.00058,0.00024,7e-05,4e-05,4,19
17991,2e-05,5e-05,0.00014,0.00075,0.00058,0.00024,7e-05,4e-05,4,19
17992,2e-05,5e-05,0.00014,0.00075,0.00058,0.00024,7e-05,4e-05,4,19
17993,2e-05,5e-05,0.00014,0.00075,0.00058,0.00024,7e-05,4e-05,4,19
17994,2e-05,5e-05,0.00014,0.00075,0.00058,0.00024,7e-05,4e-05,4,19
17995,2e-05,5e-05,0.00014,0.00075,0.00058,0.00024,7e-05,4e-05,4,19
17996,2e-05,5e-05,0.00014,0.00075,0.00058,0.00024,7e-05,4e-05,4,19
17997,2e-05,5e-05,0.00014,0.00075,0.00058,0.00024,7e-05,4e-05,4,19
17998,2e-05,5e-05,0.00014,0.00075,0.00058,0.00024,7e-05,4e-05,4,19
17999,2e-05,5e-05,0.00014,0.00075,0.00058,0.00024,7e-05,4e-05,4,19
18000,2e-05,5e-05,0.00014,0.00075,0.00058,0.00024,7e-05,4e-05,4,19
18001,0,-2e-05,-1e-05,0.00012,0.00014,1e-05,2e-05,-5e-05,4,19
18002,0,-2e-05,-1e-05,0.00012,0.00014,1e-05,2e-05,-5e-05,4,19
18003,-3e-05,-0.00011,-0.0003,-0.00035,-0.00016,1e-05,0,-4e-05,4,19
18004,-3e-05,-0.00011,-0.0003,-0.00035,-0.00016,1e-05,0,-4e-05,4,19
18005,-3e-05,-0.00011,-0.0003,-0.00035,-0.00016,1e-05,0,-4e-05,4,19
18006,-3e-05,-0.00011,-0.0003,-0.00035,-0.00016,1e-05,0,-4e-05,4,19
18007,-3e-05,-0.00011,-0.0003,-0.00035,-0.00016,1e-05,0,-4e-05,4,19
18008,-3e-05,-0.00011,-0.0003,-0.00035,-0.00016,1e-05,0,-4e-05,4,19
18009,-3e-05,-0.00011,-0.0003,-0.00035,-0.00016,1e-05,0,-4e-05,4,19
18010,-3e-05,-0.00011,-0.0003,-0.00035,-0.00016,1e-05,0,-4e-05,4,19
18011,-3e-05,-0.00011,-0.0003,-0.00035,-0.00016,1e-05,0,-4e-05,4,19
18012,-3e-05,-0.00011,-0.0003,-0.00035,-0.00016,1e-05,0,-4e-05,4,19
18013,-3e-05,-0.00011,-0.0003,-0.00035,-0.00016,1e-05,0,-4e-05,4,19
18014,-3e-05,-0.00011,-0.0003,-0.00035,-0.00016,1e-05,0,-4e-05,4,19
18015,-3e-05,-0.00011,-0.0003,-0.00035,-0.00016,1e-05,0,-4e-05,4,19
18017,-3e-05,-0.00011,-0.0003,-0.00035,-0.00016,1e-05,0,-4e-05,4,19
18018,-3e-05,-0.00011,-0.0003,-0.00035,-0.00016,1e-05,0,-4e-05,4,19
18019,-3e-05,-0.00011,-0.0003,-0.00035,-0.00016,1e-05,0,-4e-05,4,19
18020,-3e-05,-0.00011,-0.0003,-0.00035,-0.00016,1e-05,0,-4e-05,4,19
18021,-3e-05,-0.00011,-0.0003,-0.00035,-0.00016,1e-05,0,-4e-05,4,19
18023,-3e-05,-0.00011,-0.0003,-0.00035,-0.00016,1e-05,0,-4e-05,4,19
18024,8e-05,0,9e-05,-0.00027,4e-05,5e-05,4e-05,4e-05,4,19
18025,8e-05,0,9e-05,-0.00027,4e-05,5e-05,4e-05,4e-05,4,19
18026,-2e-05,5e-05,0.00018,0.00039,0.00039,-0.00018,-3e-05,0,4,19
18027,-2e-05,5e-05,0.00018,0.00039,0.00039,-0.00018,-3e-05,0,4,19
18028,-2e-05,5e-05,0.00018,0.00039,0.00039,-0.00018,-3e-05,0,4,19
18029,-2e-05,5e-05,0.00018,0.00039,0.00039,-0.00018,-3e-05,0,4,19
18030,-2e-05,5e-05,0.00018,0.00039,0.00039,-0.00018,-3e-05,0,4,19
18031,-2e-05,5e-05,0.00018,0.00039,0.00039,-0.00018,-3e-05,0,4,19
18032,-2e-05,5e-05,0.00018,0.00039,0.00039,-0.00018,-3e-05,0,4,19
18033,-2e-05,5e-05,0.00018,0.00039,0.00039,-0.00018,-3e-05,0,4,19
18034,-2e-05,5e-05,0.00018,0.00039,0.00039,-0.00018,-3e-05,0,4,19
18035,-2e-05,5e-05,0.00018,0.00039,0.00039,-0.00018,-3e-05,0,4,19
18036,-2e-05,5e-05,0.00018,0.00039,0.00039,-0.00018,-3e-05,0,4,19
18039,-2e-05,-1e-05,-9e-05,-1e-05,4e-05,0.00022,3e-05,-2e-05,4,19
18040,-2e-05,-1e-05,-9e-05,-1e-05,4e-05,0.00022,3e-05,-2e-05,4,19
18041,-2e-05,-1e-05,-9e-05,-1e-05,4e-05,0.00022,3e-05,-2e-05,4,19
18042,-2e-05,-1e-05,-9e-05,-1e-05,4e-05,0.00022,3e-05,-2e-05,4,19
18043,-2e-05,-1e-05,-9e-05,-1e-05,4e-05,0.00022,3e-05,-2e-05,4,19
18044,-2e-05,-1e-05,-9e-05,-1e-05,4e-05,0.00022,3e-05,-2e-05,4,19
18045,4e-05,1e-05,0,0.00026,-0.00026,1e-05,4e-05,6e-05,4,19
18046,4e-05,1e-05,0,0.00026,-0.00026,1e-05,4e-05,6e-05,4,19
18047,4e-05,1e-05,0,0.00026,-0.00026,1e-05,4e-05,6e-05,4,19
18048,4e-05,1e-05,0,0.00026,-0.00026,1e-05,4e-05,6e-05,4,19
18049,4e-05,1e-05,0,0.00026,-0.00026,1e-05,4e-05,6e-05,4,19
18050,4e-05,1e-05,0,0.00026,-0.00026,1e-05,4e-05,6e-05,4,19
18051,4e-05,1e-05,0,0.00026,-0.00026,1e-05,4e-05,6e-05,4,19
18052,4e-05,1e-05,0,0.00026,-0.00026,1e-05,4e-05,6e-05,4,19
18053,4e-05,1e-05,0,0.00026,-0.00026,1e-05,4e-05,6e-05,4,19
18054,4e-05,1e-05,0,0.00026,-0.00026,1e-05,4e-05,6e-05,4,19
18055,4e-05,1e-05,0,0.00026,-0.00026,1e-05,4e-05,6e-05,4,19
18056,4e-05,1e-05,0,0.00026,-0.00026,1e-05,4e-05,6e-05,4,19
18057,4e-05,1e-05,0,0.00026,-0.00026,1e-05,4e-05,6e-05,4,19
18058,4e-05,1e-05,0,0.00026,-0.00026,1e-05,4e-05,6e-05,4,19
18059,4e-05,1e-05,0,0.00026,-0.00026,1e-05,4e-05,6e-05,4,19
18060,4e-05,1e-05,0,0.00026,-0.00026,1e-05,4e-05,6e-05,4,19
18061,4e-05,0.00013,0.00027,0.00086,0.00099,0.00034,0.00011,6e-05,4,19
18062,4e-05,0.00013,0.00027,0.00086,0.00099,0.00034,0.00011,6e-05,4,19
18063,-6e-05,-8e-05,-0.00018,-0.00077,-0.0007,-0.00011,-6e-05,-6e-05,4,19
18064,-6e-05,-8e-05,-0.00018,-0.00077,-0.0007,-0.00011,-6e-05,-6e-05,4,19
18065,-6e-05,-8e-05,-0.00018,-0.00077,-0.0007,-0.00011,-6e-05,-6e-05,4,19
18066,-6e-05,-8e-05,-0.00018,-0.00077,-0.0007,-0.00011,-6e-05,-6e-05,4,19
18067,-6e-05,-8e-05,-0.00018,-0.00077,-0.0007,-0.00011,-6e-05,-6e-05,4,19
18068,-6e-05,-8e-05,-0.00018,-0.00077,-0.0007,-0.00011,-6e-05,-6e-05,4,19
18069,-6e-05,-8e-05,-0.00018,-0.00077,-0.0007,-0.00011,-6e-05,-6e-05,4,19
18070,-6e-05,-8e-05,-0.00018,-0.00077,-0.0007,-0.00011,-6e-05,-6e-05,4,19
18071,-6e-05,-8e-05,-0.00018,-0.00077,-0.0007,-0.00011,-6e-05,-6e-05,4,19
18072,-6e-05,-8e-05,-0.00018,-0.00077,-0.0007,-0.00011,-6e-05,-6e-05,4,19
18073,-6e-05,-8e-05,-0.00018,-0.00077,-0.0007,-0.00011,-6e-05,-6e-05,4,19
18074,-6e-05,-8e-05,-0.00018,-0.00077,-0.0007,-0.00011,-6e-05,-6e-05,4,19
18075,-6e-05,-8e-05,-0.00018,-0.00077,-0.0007,-0.00011,-6e-05,-6e-05,4,19
18076,-6e-05,-8e-05,-0.00018,-0.00077,-0.0007,-0.00011,-6e-05,-6e-05,4,19
18077,-6e-05,-8e-05,-0.00018,-0.00077,-0.0007,-0.00011,-6e-05,-6e-05,4,19
18078,-6e-05,-8e-05,-0.00018,-0.00077,-0.0007,-0.00011,-6e-05,-6e-05,4,19
18079,-6e-05,-8e-05,-0.00018,-0.00077,-0.0007,-0.00011,-6e-05,-6e-05,4,19
18080,-6e-05,-8e-05,-0.00018,-0.00077,-0.0007,-0.00011,-6e-05,-6e-05,4,19
18081,-6e-05,-8e-05,-0.00018,-0.00077,-0.0007,-0.00011,-6e-05,-6e-05,4,19
18082,-6e-05,-8e-05,-0.00018,-0.00077,-0.0007,-0.00011,-6e-05,-6e-05,4,19
18083,-6e-05,-8e-05,-0.00018,-0.00077,-0.0007,-0.00011,-6e-05,-6e-05,4,19
18084,-5e-05,-0.00013,-0.0001,-0.00068,-0.00074,-0.00024,-0.0001,-6e-05,4,19
18085,-5e-05,-0.00013,-0.0001,-0.00068,-0.00074,-0.00024,-0.0001,-6e-05,4,19
18086,-3e-05,-3e-05,-0.00017,-0.00096,-0.00048,-0.00017,-5e-05,-4e-05,4,19
18088,-3e-05,-3e-05,-0.00017,-0.00096,-0.00048,-0.00017,-5e-05,-4e-05,4,19
18089,-3e-05,-3e-05,-0.00017,-0.00096,-0.00048,-0.00017,-5e-05,-4e-05,4,19
18090,-3e-05,-3e-05,-0.00017,-0.00096,-0.00048,-0.00017,-5e-05,-4e-05,4,19
18091,-3e-05,-3e-05,-0.00017,-0.00096,-0.00048,-0.00017,-5e-05,-4e-05,4,19
18092,-3e-05,-3e-05,-0.00017,-0.00096,-0.00048,-0.00017,-5e-05,-4e-05,4,19
18093,-3e-05,-3e-05,-0.00017,-0.00096,-0.00048,-0.00017,-5e-05,-4e-05,4,19
18094,-3e-05,-3e-05,-0.00017,-0.00096,-0.00048,-0.00017,-5e-05,-4e-05,4,19
18095,-3e-05,-3e-05,-0.00017,-0.00096,-0.00048,-0.00017,-5e-05,-4e-05,4,19
18096,-3e-05,-3e-05,-0.00017,-0.00096,-0.00048,-0.00017,-5e-05,-4e-05,4,19
18097,-3e-05,-3e-05,-0.00017,-0.00096,-0.00048,-0.00017,-5e-05,-4e-05,4,19
18098,1e-05,0,-9e-05,-0.00032,-0.00067,-0.00024,-4e-05,-6e-05,4,19
18099,1e-05,0,-9e-05,-0.00032,-0.00067,-0.00024,-4e-05,-6e-05,4,19
18100,1e-05,0,-9e-05,-0.00032,-0.00067,-0.00024,-4e-05,-6e-05,4,19
18101,1e-05,0,-9e-05,-0.00032,-0.00067,-0.00024,-4e-05,-6e-05,4,19
18102,1e-05,0,-9e-05,-0.00032,-0.00067,-0.00024,-4e-05,-6e-05,4,19
18103,1e-05,0,-9e-05,-0.00032,-0.00067,-0.00024,-4e-05,-6e-05,4,19
18104,1e-05,0,-9e-05,-0.00032,-0.00067,-0.00024,-4e-05,-6e-05,4,19
18105,1e-05,0,-9e-05,-0.00032,-0.00067,-0.00024,-4e-05,-6e-05,4,19
18106,-5e-05,-0.00015,-6e-05,-0.00022,1e-05,-0.00012,-8e-05,-3e-05,4,19
18107,-5e-05,-0.00015,-6e-05,-0.00022,1e-05,-0.00012,-8e-05,-3e-05,4,19
18108,-5e-05,-0.00015,-6e-05,-0.00022,1e-05,-0.00012,-8e-05,-3e-05,4,19
18109,-5e-05,-0.00015,-6e-05,-0.00022,1e-05,-0.00012,-8e-05,-3e-05,4,19
18110,-5e-05,-0.00015,-6e-05,-0.00022,1e-05,-0.00012,-8e-05,-3e-05,4,19
18111,-5e-05,-0.00015,-6e-05,-0.00022,1e-05,-0.00012,-8e-05,-3e-05,4,19
18112,-5e-05,-0.00015,-6e-05,-0.00022,1e-05,-0.00012,-8e-05,-3e-05,4,19
18113,-5e-05,-0.00015,-6e-05,-0.00022,1e-05,-0.00012,-8e-05,-3e-05,4,19
18114,-5e-05,-0.00015,-6e-05,-0.00022,1e-05,-0.00012,-8e-05,-3e-05,4,19
18115,-5e-05,-0.00015,-6e-05,-0.00022,1e-05,-0.00012,-8e-05,-3e-05,4,19
18116,-5e-05,-0.00015,-6e-05,-0.00022,1e-05,-0.00012,-8e-05,-3e-05,4,19
18117,-5e-05,-0.00015,-6e-05,-0.00022,1e-05,-0.00012,-8e-05,-3e-05,4,19
18118,-5e-05,-0.00015,-6e-05,-0.00022,1e-05,-0.00012,-8e-05,-3e-05,4,19
18119,-5e-05,-0.00015,-6e-05,-0.00022,1e-05,-0.00012,-8e-05,-3e-05,4,19
18120,-5e-05,-0.00015,-6e-05,-0.00022,1e-05,-0.00012,-8e-05,-3e-05,4,19
18121,0,-2e-05,-1e-05,0.00018,-0.00043,-7e-05,-1e-05,1e-05,4,19
18122,0,-2e-05,-1e-05,0.00018,-0.00043,-7e-05,-1e-05,1e-05,4,19
18123,1e-05,6e-05,0.00015,0.00048,-0.00046,0.00021,3e-05,0,4,19
18124,1e-05,6e-05,0.00015,0.00048,-0.00046,0.00021,3e-05,0,4,19
18125,1e-05,6e-05,0.00015,0.00048,-0.00046,0.00021,3e-05,0,4,19
18126,1e-05,6e-05,0.00015,0.00048,-0.00046,0.00021,3e-05,0,4,19
18127,1e-05,6e-05,0.00015,0.00048,-0.00046,0.00021,3e-05,0,4,19
18128,1e-05,6e-05,0.00015,0.00048,-0.00046,0.00021,3e-05,0,4,19
18129,1e-05,6e-05,0.00015,0.00048,-0.00046,0.00021,3e-05,0,4,19
18130,1e-05,6e-05,0.00015,0.00048,-0.00046,0.00021,3e-05,0,4,19
18131,1e-05,6e-05,0.00015,0.00048,-0.00046,0.00021,3e-05,0,4,19
18132,1e-05,6e-05,0.00015,0.00048,-0.00046,0.00021,3e-05,0,4,19
18133,1e-05,6e-05,0.00015,0.00048,-0.00046,0.00021,3e-05,0,4,19
18134,1e-05,6e-05,0.00015,0.00048,-0.00046,0.00021,3e-05,0,4,19
18135,1e-05,6e-05,0.00015,0.00048,-0.00046,0.00021,3e-05,0,4,19
18136,1e-05,6e-05,0.00015,0.00048,-0.00046,0.00021,3e-05,0,4,19
18138,1e-05,6e-05,0.00015,0.00048,-0.00046,0.00021,3e-05,0,4,19
18139,1e-05,6e-05,0.00015,0.00048,-0.00046,0.00021,3e-05,0,4,19
18140,1e-05,6e-05,0.00015,0.00048,-0.00046,0.00021,3e-05,0,4,19
18141,1e-05,6e-05,0.00015,0.00048,-0.00046,0.00021,3e-05,0,4,19
18142,1e-05,6e-05,0.00015,0.00048,-0.00046,0.00021,3e-05,0,4,19
18143,1e-05,6e-05,0.00015,0.00048,-0.00046,0.00021,3e-05,0,4,19
18144,0,4e-05,-8e-05,0.00022,0.00057,-1e-05,1e-05,0,4,19
18145,0,-4e-05,4e-05,1e-05,0,0,-6e-05,-3e-05,4,19
18146,-4e-05,-5e-05,-0.00014,-0.00051,-0.00051,-0.0001,-2e-05,-2e-05,4,19
18147,-4e-05,-5e-05,-0.00014,-0.00051,-0.00051,-0.0001,-2e-05,-2e-05,4,19
18148,-4e-05,-5e-05,-0.00014,-0.00051,-0.00051,-0.0001,-2e-05,-2e-05,4,19
18149,-4e-05,-5e-05,-0.00014,-0.00051,-0.00051,-0.0001,-2e-05,-2e-05,4,19
18150,-4e-05,-5e-05,-0.00014,-0.00051,-0.00051,-0.0001,-2e-05,-2e-05,4,19
18151,-4e-05,-5e-05,-0.00014,-0.00051,-0.00051,-0.0001,-2e-05,-2e-05,4,19
18152,-4e-05,-5e-05,-0.00014,-0.00051,-0.00051,-0.0001,-2e-05,-2e-05,4,19
18153,-4e-05,-5e-05,-0.00014,-0.00051,-0.00051,-0.0001,-2e-05,-2e-05,4,19
18154,-4e-05,-5e-05,-0.00014,-0.00051,-0.00051,-0.0001,-2e-05,-2e-05,4,19
18155,-4e-05,-5e-05,-0.00014,-0.00051,-0.00051,-0.0001,-2e-05,-2e-05,4,19
18156,-4e-05,-5e-05,-0.00014,-0.00051,-0.00051,-0.0001,-2e-05,-2e-05,4,19
18157,-4e-05,-5e-05,-0.00014,-0.00051,-0.00051,-0.0001,-2e-05,-2e-05,4,19
18158,-4e-05,-5e-05,-0.00014,-0.00051,-0.00051,-0.0001,-2e-05,-2e-05,4,19
18159,-3e-05,-4e-05,5e-05,0.00061,-0.00019,-0.00014,-3e-05,-1e-05,4,19
18160,-3e-05,-4e-05,5e-05,0.00061,-0.00019,-0.00014,-3e-05,-1e-05,4,19
18161,-3e-05,-4e-05,5e-05,0.00061,-0.00019,-0.00014,-3e-05,-1e-05,4,19
18162,-3e-05,-4e-05,5e-05,0.00061,-0.00019,-0.00014,-3e-05,-1e-05,4,19
18163,-3e-05,-4e-05,5e-05,0.00061,-0.00019,-0.00014,-3e-05,-1e-05,4,19
18164,-3e-05,-4e-05,5e-05,0.00061,-0.00019,-0.00014,-3e-05,-1e-05,4,19
18165,-3e-05,-4e-05,5e-05,0.00061,-0.00019,-0.00014,-3e-05,-1e-05,4,19
18166,1e-05,0,-3e-05,-4e-05,0.00025,-5e-05,-3e-05,-1e-05,4,19
18167,1e-05,-2e-05,0,1e-05,0.00015,-0.0001,-4e-05,-2e-05,4,19
18168,1e-05,-2e-05,0,1e-05,0.00015,-0.0001,-4e-05,-2e-05,4,19
18169,1e-05,-2e-05,0,1e-05,0.00015,-0.0001,-4e-05,-2e-05,4,19
18170,1e-05,-2e-05,0,1e-05,0.00015,-0.0001,-4e-05,-2e-05,4,19
18171,1e-05,-2e-05,0,1e-05,0.00015,-0.0001,-4e-05,-2e-05,4,19
18172,1e-05,-2e-05,0,1e-05,0.00015,-0.0001,-4e-05,-2e-05,4,19
18173,1e-05,-2e-05,0,1e-05,0.00015,-0.0001,-4e-05,-2e-05,4,19
18174,1e-05,-2e-05,0,1e-05,0.00015,-0.0001,-4e-05,-2e-05,4,19
18175,1e-05,-2e-05,0,1e-05,0.00015,-0.0001,-4e-05,-2e-05,4,19
18176,1e-05,-2e-05,0,1e-05,0.00015,-0.0001,-4e-05,-2e-05,4,19
18177,1e-05,-2e-05,0,1e-05,0.00015,-0.0001,-4e-05,-2e-05,4,19
18178,1e-05,-2e-05,0,1e-05,0.00015,-0.0001,-4e-05,-2e-05,4,19
18179,1e-05,-2e-05,0,1e-05,0.00015,-0.0001,-4e-05,-2e-05,4,19
18180,1e-05,-2e-05,0,1e-05,0.00015,-0.0001,-4e-05,-2e-05,4,19
18181,2e-05,3e-05,2e-05,3e-05,0.00027,0.00012,-1e-05,3e-05,4,19
18182,2e-05,3e-05,2e-05,3e-05,0.00027,0.00012,-1e-05,3e-05,4,19
18183,3e-05,4e-05,0.00011,0.00084,0.00074,0.00034,8e-05,4e-05,4,19
18184,3e-05,4e-05,0.00011,0.00084,0.00074,0.00034,8e-05,4e-05,4,19
18185,3e-05,4e-05,0.00011,0.00084,0.00074,0.00034,8e-05,4e-05,4,19
18186,3e-05,4e-05,0.00011,0.00084,0.00074,0.00034,8e-05,4e-05,4,19
18188,3e-05,4e-05,0.00011,0.00084,0.00074,0.00034,8e-05,4e-05,4,19
18189,3e-05,4e-05,0.00011,0.00084,0.00074,0.00034,8e-05,4e-05,4,19
18190,3e-05,4e-05,0.00011,0.00084,0.00074,0.00034,8e-05,4e-05,4,19
18191,3e-05,4e-05,0.00011,0.00084,0.00074,0.00034,8e-05,4e-05,4,19
18192,3e-05,4e-05,0.00011,0.00084,0.00074,0.00034,8e-05,4e-05,4,19
18193,3e-05,4e-05,0.00011,0.00084,0.00074,0.00034,8e-05,4e-05,4,19
18194,3e-05,4e-05,0.00011,0.00084,0.00074,0.00034,8e-05,4e-05,4,19
18195,3e-05,4e-05,0.00011,0.00084,0.00074,0.00034,8e-05,4e-05,4,19
18196,3e-05,4e-05,0.00011,0.00084,0.00074,0.00034,8e-05,4e-05,4,19
18197,3e-05,4e-05,0.00011,0.00084,0.00074,0.00034,8e-05,4e-05,4,19
18198,3e-05,4e-05,0.00011,0.00084,0.00074,0.00034,8e-05,4e-05,4,19
18199,3e-05,4e-05,0.00011,0.00084,0.00074,0.00034,8e-05,4e-05,4,19
18200,3e-05,4e-05,0.00011,0.00084,0.00074,0.00034,8e-05,4e-05,4,19
18201,3e-05,4e-05,0.00011,0.00084,0.00074,0.00034,8e-05,4e-05,4,19
18203,3e-05,4e-05,0.00011,0.00084,0.00074,0.00034,8e-05,4e-05,4,19
18204,-6e-05,-1e-05,1e-05,-0.00017,-5e-05,-2e-05,-1e-05,-4e-05,4,19
18205,1e-05,-3e-05,-2e-05,0.00015,5e-05,-0.00021,-8e-05,1e-05,4,19
18206,-1e-05,4e-05,0.00011,0.0002,0.00065,0.0002,3e-05,1e-05,4,19
18207,-1e-05,4e-05,0.00011,0.0002,0.00065,0.0002,3e-05,1e-05,4,19
18208,-1e-05,4e-05,0.00011,0.0002,0.00065,0.0002,3e-05,1e-05,4,19
18209,-1e-05,4e-05,0.00011,0.0002,0.00065,0.0002,3e-05,1e-05,4,19
18210,-1e-05,4e-05,0.00011,0.0002,0.00065,0.0002,3e-05,1e-05,4,19
18211,-1e-05,4e-05,0.00011,0.0002,0.00065,0.0002,3e-05,1e-05,4,19
18212,-1e-05,4e-05,0.00011,0.0002,0.00065,0.0002,3e-05,1e-05,4,19
18213,-1e-05,4e-05,0.00011,0.0002,0.00065,0.0002,3e-05,1e-05,4,19
18214,-1e-05,4e-05,0.00011,0.0002,0.00065,0.0002,3e-05,1e-05,4,19
18215,-1e-05,4e-05,0.00011,0.0002,0.00065,0.0002,3e-05,1e-05,4,19
18216,-1e-05,4e-05,0.00011,0.0002,0.00065,0.0002,3e-05,1e-05,4,19
18217,-1e-05,4e-05,0.00011,0.0002,0.00065,0.0002,3e-05,1e-05,4,19
18218,-1e-05,-5e-05,-6e-05,-0.00014,-0.00027,-7e-05,-5e-05,-3e-05,4,19
18219,-1e-05,-5e-05,-6e-05,-0.00014,-0.00027,-7e-05,-5e-05,-3e-05,4,19
18220,-1e-05,-5e-05,-6e-05,-0.00014,-0.00027,-7e-05,-5e-05,-3e-05,4,19
18221,-1e-05,-5e-05,-6e-05,-0.00014,-0.00027,-7e-05,-5e-05,-3e-05,4,19
18222,-1e-05,-5e-05,-6e-05,-0.00014,-0.00027,-7e-05,-5e-05,-3e-05,4,19
18223,-1e-05,-5e-05,-6e-05,-0.00014,-0.00027,-7e-05,-5e-05,-3e-05,4,19
18224,-1e-05,-5e-05,-6e-05,-0.00014,-0.00027,-7e-05,-5e-05,-3e-05,4,19
18225,0,5e-05,8e-05,0.00047,0.00026,4e-05,2e-05,2e-05,4,19
18226,0,5e-05,8e-05,0.00047,0.00026,4e-05,2e-05,2e-05,4,19
18227,0,5e-05,8e-05,0.00047,0.00026,4e-05,2e-05,2e-05,4,19
18228,0,5e-05,8e-05,0.00047,0.00026,4e-05,2e-05,2e-05,4,19
18229,0,5e-05,8e-05,0.00047,0.00026,4e-05,2e-05,2e-05,4,19
18230,0,5e-05,8e-05,0.00047,0.00026,4e-05,2e-05,2e-05,4,19
18231,0,5e-05,8e-05,0.00047,0.00026,4e-05,2e-05,2e-05,4,19
18232,0,5e-05,8e-05,0.00047,0.00026,4e-05,2e-05,2e-05,4,19
18233,0,5e-05,8e-05,0.00047,0.00026,4e-05,2e-05,2e-05,4,19
18234,0,5e-05,8e-05,0.00047,0.00026,4e-05,2e-05,2e-05,4,19
18235,0,5e-05,8e-05,0.00047,0.00026,4e-05,2e-05,2e-05,4,19
18236,0,5e-05,8e-05,0.00047,0.00026,4e-05,2e-05,2e-05,4,19
18238,0,5e-05,8e-05,0.00047,0.00026,4e-05,2e-05,2e-05,4,19
18239,0,5e-05,8e-05,0.00047,0.00026,4e-05,2e-05,2e-05,4,19
18240,-8e-05,-0.00011,-0.00017,-0.00052,-0.00019,-0.0002,-0.0001,-9e-05,4,19
18241,-2e-05,-3e-05,1e-05,0.00051,-7e-05,-4e-05,3e-05,0,4,19
18242,-2e-05,-3e-05,1e-05,0.00051,-7e-05,-4e-05,3e-05,0,4,19
18243,-2e-05,-3e-05,1e-05,0.00051,-7e-05,-4e-05,3e-05,0,4,19
18244,-2e-05,-3e-05,1e-05,0.00051,-7e-05,-4e-05,3e-05,0,4,19
18245,-2e-05,-3e-05,1e-05,0.00051,-7e-05,-4e-05,3e-05,0,4,19
18246,-2e-05,-3e-05,1e-05,0.00051,-7e-05,-4e-05,3e-05,0,4,19
18247,-2e-05,-3e-05,1e-05,0.00051,-7e-05,-4e-05,3e-05,0,4,19
18248,-2e-05,-3e-05,1e-05,0.00051,-7e-05,-4e-05,3e-05,0,4,19
18249,-2e-05,-3e-05,1e-05,0.00051,-7e-05,-4e-05,3e-05,0,4,19
18250,-2e-05,-3e-05,-6e-05,-0.00042,-0.00054,-0.00013,-2e-05,-5e-05,4,19
18251,-2e-05,-3e-05,-6e-05,-0.00042,-0.00054,-0.00013,-2e-05,-5e-05,4,19
18252,-2e-05,-3e-05,-6e-05,-0.00042,-0.00054,-0.00013,-2e-05,-5e-05,4,19
18253,-2e-05,-3e-05,-6e-05,-0.00042,-0.00054,-0.00013,-2e-05,-5e-05,4,19
18254,-2e-05,-3e-05,-6e-05,-0.00042,-0.00054,-0.00013,-2e-05,-5e-05,4,19
18255,-2e-05,-3e-05,-6e-05,-0.00042,-0.00054,-0.00013,-2e-05,-5e-05,4,19
18256,-2e-05,-3e-05,-6e-05,-0.00042,-0.00054,-0.00013,-2e-05,-5e-05,4,19
18257,-2e-05,-3e-05,-6e-05,-0.00042,-0.00054,-0.00013,-2e-05,-5e-05,4,19
18258,-2e-05,-3e-05,-6e-05,-0.00042,-0.00054,-0.00013,-2e-05,-5e-05,4,19
18259,-2e-05,-3e-05,-6e-05,-0.00042,-0.00054,-0.00013,-2e-05,-5e-05,4,19
18260,-2e-05,-3e-05,-6e-05,-0.00042,-0.00054,-0.00013,-2e-05,-5e-05,4,19
18261,-2e-05,-3e-05,-6e-05,-0.00042,-0.00054,-0.00013,-2e-05,-5e-05,4,19
18262,-2e-05,-3e-05,-6e-05,-0.00042,-0.00054,-0.00013,-2e-05,-5e-05,4,19
18263,-2e-05,-3e-05,-6e-05,-0.00042,-0.00054,-0.00013,-2e-05,-5e-05,4,19
18264,1e-05,-2e-05,-6e-05,-0.00098,-0.00072,-0.00015,-3e-05,-2e-05,4,19
18265,1e-05,-2e-05,-6e-05,-0.00098,-0.00072,-0.00015,-3e-05,-2e-05,4,19
18266,-1e-05,3e-05,0,-0.00025,-0.00022,3e-05,-1e-05,2e-05,4,19
18267,-1e-05,3e-05,0,-0.00025,-0.00022,3e-05,-1e-05,2e-05,4,19
18268,-1e-05,3e-05,0,-0.00025,-0.00022,3e-05,-1e-05,2e-05,4,19
18269,-1e-05,3e-05,0,-0.00025,-0.00022,3e-05,-1e-05,2e-05,4,19
18270,-1e-05,3e-05,0,-0.00025,-0.00022,3e-05,-1e-05,2e-05,4,19
18271,-1e-05,3e-05,0,-0.00025,-0.00022,3e-05,-1e-05,2e-05,4,19
18272,-1e-05,3e-05,0,-0.00025,-0.00022,3e-05,-1e-05,2e-05,4,19
18273,-1e-05,3e-05,0,-0.00025,-0.00022,3e-05,-1e-05,2e-05,4,19
18274,-1e-05,3e-05,0,-0.00025,-0.00022,3e-05,-1e-05,2e-05,4,19
18275,-1e-05,3e-05,0,-0.00025,-0.00022,3e-05,-1e-05,2e-05,4,19
18276,-1e-05,3e-05,0,-0.00025,-0.00022,3e-05,-1e-05,2e-05,4,19
18277,-1e-05,3e-05,0,-0.00025,-0.00022,3e-05,-1e-05,2e-05,4,19
18278,-1e-05,3e-05,0,-0.00025,-0.00022,3e-05,-1e-05,2e-05,4,19
18279,-4e-05,-4e-05,-0.00013,-3e-05,-0.00033,4e-05,1e-05,-3e-05,4,19
18280,-4e-05,-4e-05,-0.00013,-3e-05,-0.00033,4e-05,1e-05,-3e-05,4,19
18281,-4e-05,-4e-05,-0.00013,-3e-05,-0.00033,4e-05,1e-05,-3e-05,4,19
18282,-4e-05,-4e-05,-0.00013,-3e-05,-0.00033,4e-05,1e-05,-3e-05,4,19
18283,-4e-05,-4e-05,-0.00013,-3e-05,-0.00033,4e-05,1e-05,-3e-05,4,19
18284,-4e-05,-4e-05,-0.00013,-3e-05,-0.00033,4e-05,1e-05,-3e-05,4,19
18285,2e-05,1e-05,-3e-05,-0.00034,-0.00012,4e-05,1e-05,-2e-05,4,19
18286,2e-05,1e-05,-3e-05,-0.00034,-0.00012,4e-05,1e-05,-2e-05,4,19
18288,2e-05,1e-05,-3e-05,-0.00034,-0.00012,4e-05,1e-05,-2e-05,4,19
18289,2e-05,1e-05,-3e-05,-0.00034,-0.00012,4e-05,1e-05,-2e-05,4,19
18290,2e-05,1e-05,-3e-05,-0.00034,-0.00012,4e-05,1e-05,-2e-05,4,19
18291,2e-05,1e-05,-3e-05,-0.00034,-0.00012,4e-05,1e-05,-2e-05,4,19
18292,2e-05,1e-05,-3e-05,-0.00034,-0.00012,4e-05,1e-05,-2e-05,4,19
18293,2e-05,1e-05,-3e-05,-0.00034,-0.00012,4e-05,1e-05,-2e-05,4,19
18294,2e-05,1e-05,-3e-05,-0.00034,-0.00012,4e-05,1e-05,-2e-05,4,19
18295,2e-05,1e-05,-3e-05,-0.00034,-0.00012,4e-05,1e-05,-2e-05,4,19
18296,2e-05,1e-05,-3e-05,-0.00034,-0.00012,4e-05,1e-05,-2e-05,4,19
18297,2e-05,1e-05,-3e-05,-0.00034,-0.00012,4e-05,1e-05,-2e-05,4,19
18298,2e-05,1e-05,-3e-05,-0.00034,-0.00012,4e-05,1e-05,-2e-05,4,19
18299,2e-05,1e-05,-3e-05,-0.00034,-0.00012,4e-05,1e-05,-2e-05,4,19
18300,2e-05,1e-05,-3e-05,-0.00034,-0.00012,4e-05,1e-05,-2e-05,4,19
18301,-6e-05,-5e-05,-5e-05,-0.00049,-0.00024,-6e-05,-2e-05,-2e-05,4,19
18302,-8e-05,-0.0001,-0.00012,-0.0001,2e-05,1e-05,-6e-05,-2e-05,4,19
18303,-4e-05,-7e-05,-0.00012,0.00052,0.0009,0.0001,1e-05,-1e-05,4,19
18304,-4e-05,-7e-05,-0.00012,0.00052,0.0009,0.0001,1e-05,-1e-05,4,19
18305,-4e-05,-7e-05,-0.00012,0.00052,0.0009,0.0001,1e-05,-1e-05,4,19
18306,-4e-05,-7e-05,-0.00012,0.00052,0.0009,0.0001,1e-05,-1e-05,4,19
18307,-4e-05,-7e-05,-0.00012,0.00052,0.0009,0.0001,1e-05,-1e-05,4,19
18308,-4e-05,-7e-05,-0.00012,0.00052,0.0009,0.0001,1e-05,-1e-05,4,19
18309,-4e-05,-7e-05,-0.00012,0.00052,0.0009,0.0001,1e-05,-1e-05,4,19
18310,-4e-05,-7e-05,-0.00012,0.00052,0.0009,0.0001,1e-05,-1e-05,4,19
18311,-4e-05,-7e-05,-0.00012,0.00052,0.0009,0.0001,1e-05,-1e-05,4,19
18312,-4e-05,-7e-05,-0.00012,0.00052,0.0009,0.0001,1e-05,-1e-05,4,19
18313,-4e-05,-7e-05,-0.00012,0.00052,0.0009,0.0001,1e-05,-1e-05,4,19
18314,-4e-05,-7e-05,-0.00012,0.00052,0.0009,0.0001,1e-05,-1e-05,4,19
18315,-4e-05,-7e-05,-0.00012,0.00052,0.0009,0.0001,1e-05,-1e-05,4,19
18316,-4e-05,-7e-05,-0.00012,0.00052,0.0009,0.0001,1e-05,-1e-05,4,19
18317,-4e-05,-7e-05,-0.00012,0.00052,0.0009,0.0001,1e-05,-1e-05,4,19
18318,-4e-05,-7e-05,-0.00012,0.00052,0.0009,0.0001,1e-05,-1e-05,4,19
18319,-4e-05,-7e-05,-0.00012,0.00052,0.0009,0.0001,1e-05,-1e-05,4,19
18320,-4e-05,-7e-05,-0.00012,0.00052,0.0009,0.0001,1e-05,-1e-05,4,19
18321,-4e-05,-7e-05,-0.00012,0.00052,0.0009,0.0001,1e-05,-1e-05,4,19
18322,-4e-05,-7e-05,-0.00012,0.00052,0.0009,0.0001,1e-05,-1e-05,4,19
18323,-4e-05,-7e-05,-0.00012,0.00052,0.0009,0.0001,1e-05,-1e-05,4,19
18324,4e-05,2e-05,2e-05,2e-05,0.00013,2e-05,2e-05,3e-05,4,19
18325,-6e-05,-7e-05,-5e-05,-0.0006,0.00016,-0.00023,-0.0001,-6e-05,4,19
18326,-6e-05,-7e-05,-5e-05,-0.0006,0.00016,-0.00023,-0.0001,-6e-05,4,19
18327,-6e-05,-7e-05,-5e-05,-0.0006,0.00016,-0.00023,-0.0001,-6e-05,4,19
18328,-6e-05,-7e-05,-5e-05,-0.0006,0.00016,-0.00023,-0.0001,-6e-05,4,19
18329,-6e-05,-7e-05,-5e-05,-0.0006,0.00016,-0.00023,-0.0001,-6e-05,4,19
18330,-6e-05,-7e-05,-5e-05,-0.0006,0.00016,-0.00023,-0.0001,-6e-05,4,19
18331,-6e-05,-7e-05,-5e-05,-0.0006,0.00016,-0.00023,-0.0001,-6e-05,4,19
18332,-6e-05,-7e-05,-5e-05,-0.0006,0.00016,-0.00023,-0.0001,-6e-05,4,19
18333,-6e-05,-7e-05,-5e-05,-0.0006,0.00016,-0.00023,-0.0001,-6e-05,4,19
18334,-6e-05,-7e-05,-5e-05,-0.0006,0.00016,-0.00023,-0.0001,-6e-05,4,19
18335,-6e-05,-7e-05,-5e-05,-0.0006,0.00016,-0.00023,-0.0001,-6e-05,4,19
18336,-6e-05,-7e-05,-5e-05,-0.0006,0.00016,-0.00023,-0.0001,-6e-05,4,19
18338,2e-05,7e-05,5e-05,-0.00029,0.00063,0.00018,0,1e-05,4,19
18340,2e-05,7e-05,5e-05,-0.00029,0.00063,0.00018,0,1e-05,4,19
18341,2e-05,7e-05,5e-05,-0.00029,0.00063,0.00018,0,1e-05,4,19
18342,2e-05,7e-05,5e-05,-0.00029,0.00063,0.00018,0,1e-05,4,19
18343,2e-05,7e-05,5e-05,-0.00029,0.00063,0.00018,0,1e-05,4,19
18344,2e-05,7e-05,5e-05,-0.00029,0.00063,0.00018,0,1e-05,4,19
18345,7e-05,0.0001,0.00015,0.00051,5e-05,-4e-05,6e-05,7e-05,4,19
18346,7e-05,0.0001,0.00015,0.00051,5e-05,-4e-05,6e-05,7e-05,4,19
18347,7e-05,0.0001,0.00015,0.00051,5e-05,-4e-05,6e-05,7e-05,4,19
18348,7e-05,0.0001,0.00015,0.00051,5e-05,-4e-05,6e-05,7e-05,4,19
18349,7e-05,0.0001,0.00015,0.00051,5e-05,-4e-05,6e-05,7e-05,4,19
18350,7e-05,0.0001,0.00015,0.00051,5e-05,-4e-05,6e-05,7e-05,4,19
18351,7e-05,0.0001,0.00015,0.00051,5e-05,-4e-05,6e-05,7e-05,4,19
18352,7e-05,0.0001,0.00015,0.00051,5e-05,-4e-05,6e-05,7e-05,4,19
18353,7e-05,0.0001,0.00015,0.00051,5e-05,-4e-05,6e-05,7e-05,4,19
18354,7e-05,0.0001,0.00015,0.00051,5e-05,-4e-05,6e-05,7e-05,4,19
18355,7e-05,0.0001,0.00015,0.00051,5e-05,-4e-05,6e-05,7e-05,4,19
18356,7e-05,0.0001,0.00015,0.00051,5e-05,-4e-05,6e-05,7e-05,4,19
18357,7e-05,0.0001,0.00015,0.00051,5e-05,-4e-05,6e-05,7e-05,4,19
18358,7e-05,0.0001,0.00015,0.00051,5e-05,-4e-05,6e-05,7e-05,4,19
18359,7e-05,0.0001,0.00015,0.00051,5e-05,-4e-05,6e-05,7e-05,4,19
18360,-1e-05,1e-05,0,-3e-05,0.00066,0.00013,1e-05,1e-05,4,19
18361,-6e-05,-8e-05,-0.00012,-0.00025,-0.00044,-9e-05,-8e-05,-6e-05,4,19
18362,-6e-05,-8e-05,-0.00012,-0.00025,-0.00044,-9e-05,-8e-05,-6e-05,4,19
18363,-6e-05,-8e-05,-0.00012,-0.00025,-0.00044,-9e-05,-8e-05,-6e-05,4,19
18364,-6e-05,-8e-05,-0.00012,-0.00025,-0.00044,-9e-05,-8e-05,-6e-05,4,19
18365,-6e-05,-8e-05,-0.00012,-0.00025,-0.00044,-9e-05,-8e-05,-6e-05,4,19
18366,-6e-05,-8e-05,-0.00012,-0.00025,-0.00044,-9e-05,-8e-05,-6e-05,4,19
18367,-6e-05,-8e-05,-0.00012,-0.00025,-0.00044,-9e-05,-8e-05,-6e-05,4,19
18368,-6e-05,-8e-05,-0.00012,-0.00025,-0.00044,-9e-05,-8e-05,-6e-05,4,19
18369,-2e-05,-2e-05,3e-05,0.00015,-0.00045,0,0,-2e-05,4,19
18370,-2e-05,-2e-05,3e-05,0.00015,-0.00045,0,0,-2e-05,4,19
18371,-2e-05,-2e-05,3e-05,0.00015,-0.00045,0,0,-2e-05,4,19
18372,-2e-05,-2e-05,3e-05,0.00015,-0.00045,0,0,-2e-05,4,19
18373,-2e-05,-2e-05,3e-05,0.00015,-0.00045,0,0,-2e-05,4,19
18374,-2e-05,-2e-05,3e-05,0.00015,-0.00045,0,0,-2e-05,4,19
18375,-2e-05,-2e-05,3e-05,0.00015,-0.00045,0,0,-2e-05,4,19
18376,-2e-05,-2e-05,3e-05,0.00015,-0.00045,0,0,-2e-05,4,19
18377,-2e-05,-2e-05,3e-05,0.00015,-0.00045,0,0,-2e-05,4,19
18378,-2e-05,-2e-05,3e-05,0.00015,-0.00045,0,0,-2e-05,4,19
18379,-2e-05,-2e-05,3e-05,0.00015,-0.00045,0,0,-2e-05,4,19
18380,-2e-05,-2e-05,3e-05,0.00015,-0.00045,0,0,-2e-05,4,19
18381,-2e-05,-2e-05,3e-05,0.00015,-0.00045,0,0,-2e-05,4,19
18382,-2e-05,-2e-05,3e-05,0.00015,-0.00045,0,0,-2e-05,4,19
18383,-2e-05,-2e-05,3e-05,0.00015,-0.00045,0,0,-2e-05,4,19
18384,2e-05,2e-05,5e-05,0.00063,0.00039,0.00019,4e-05,0,4,19
18385,2e-05,2e-05,5e-05,0.00063,0.00039,0.00019,4e-05,0,4,19
18386,2e-05,3e-05,1e-05,-0.00017,-0.00027,-8e-05,-2e-05,-2e-05,4,19
18388,2e-05,3e-05,1e-05,-0.00017,-0.00027,-8e-05,-2e-05,-2e-05,4,19
18389,2e-05,3e-05,1e-05,-0.00017,-0.00027,-8e-05,-2e-05,-2e-05,4,19
18390,2e-05,3e-05,1e-05,-0.00017,-0.00027,-8e-05,-2e-05,-2e-05,4,19
18391,2e-05,3e-05,1e-05,-0.00017,-0.00027,-8e-05,-2e-05,-2e-05,4,19
18392,2e-05,3e-05,1e-05,-0.00017,-0.00027,-8e-05,-2e-05,-2e-05,4,19
18393,2e-05,3e-05,1e-05,-0.00017,-0.00027,-8e-05,-2e-05,-2e-05,4,19
18394,2e-05,3e-05,1e-05,-0.00017,-0.00027,-8e-05,-2e-05,-2e-05,4,19
18395,2e-05,3e-05,1e-05,-0.00017,-0.00027,-8e-05,-2e-05,-2e-05,4,19
18396,2e-05,3e-05,1e-05,-0.00017,-0.00027,-8e-05,-2e-05,-2e-05,4,19
18397,2e-05,3e-05,1e-05,-0.00017,-0.00027,-8e-05,-2e-05,-2e-05,4,19
18398,2e-05,3e-05,1e-05,-0.00017,-0.00027,-8e-05,-2e-05,-2e-05,4,19
18399,2e-05,3e-05,1e-05,-0.00017,-0.00027,-8e-05,-2e-05,-2e-05,4,19
18400,2e-05,3e-05,1e-05,-0.00017,-0.00027,-8e-05,-2e-05,-2e-05,4,19
18401,2e-05,3e-05,1e-05,-0.00017,-0.00027,-8e-05,-2e-05,-2e-05,4,19
18402,2e-05,3e-05,1e-05,-0.00017,-0.00027,-8e-05,-2e-05,-2e-05,4,19
18403,2e-05,3e-05,1e-05,-0.00017,-0.00027,-8e-05,-2e-05,-2e-05,4,19
18404,2e-05,3e-05,1e-05,-0.00017,-0.00027,-8e-05,-2e-05,-2e-05,4,19
18405,2e-05,3e-05,1e-05,-0.00017,-0.00027,-8e-05,-2e-05,-2e-05,4,19
18406,2e-05,3e-05,1e-05,-0.00017,-0.00027,-8e-05,-2e-05,-2e-05,4,19
18407,0,0.0001,0.00013,0.00043,0.00012,-0.00016,-2e-05,-2e-05,4,19
18408,-4e-05,-5e-05,0,0.00014,0.00029,9e-05,-4e-05,-2e-05,4,19
18409,-4e-05,-5e-05,0,0.00014,0.00029,9e-05,-4e-05,-2e-05,4,19
18410,-4e-05,-5e-05,0,0.00014,0.00029,9e-05,-4e-05,-2e-05,4,19
18411,-4e-05,-5e-05,0,0.00014,0.00029,9e-05,-4e-05,-2e-05,4,19
18412,-4e-05,-5e-05,0,0.00014,0.00029,9e-05,-4e-05,-2e-05,4,19
18413,-4e-05,-5e-05,0,0.00014,0.00029,9e-05,-4e-05,-2e-05,4,19
18414,-4e-05,-5e-05,0,0.00014,0.00029,9e-05,-4e-05,-2e-05,4,19
18415,-4e-05,-5e-05,0,0.00014,0.00029,9e-05,-4e-05,-2e-05,4,19
18416,-4e-05,-5e-05,0,0.00014,0.00029,9e-05,-4e-05,-2e-05,4,19
18417,-4e-05,-5e-05,0,0.00014,0.00029,9e-05,-4e-05,-2e-05,4,19
18418,-4e-05,-5e-05,0,0.00014,0.00029,9e-05,-4e-05,-2e-05,4,19
18419,-4e-05,-5e-05,0,0.00014,0.00029,9e-05,-4e-05,-2e-05,4,19
18420,-5e-05,-5e-05,-0.00014,-0.00101,-0.00084,-0.00026,-9e-05,-8e-05,4,19
18421,5e-05,4e-05,4e-05,5e-05,0.00015,-5e-05,4e-05,5e-05,4,19
18422,5e-05,4e-05,4e-05,5e-05,0.00015,-5e-05,4e-05,5e-05,4,19
18423,5e-05,4e-05,4e-05,5e-05,0.00015,-5e-05,4e-05,5e-05,4,19
18424,5e-05,4e-05,4e-05,5e-05,0.00015,-5e-05,4e-05,5e-05,4,19
18425,5e-05,4e-05,4e-05,5e-05,0.00015,-5e-05,4e-05,5e-05,4,19
18426,5e-05,4e-05,4e-05,5e-05,0.00015,-5e-05,4e-05,5e-05,4,19
18427,5e-05,4e-05,4e-05,5e-05,0.00015,-5e-05,4e-05,5e-05,4,19
18428,1e-05,4e-05,9e-05,0.00018,-0.00041,-0.00011,-5e-05,-2e-05,4,19
18429,-4e-05,-1e-05,-7e-05,1e-05,0.00031,5e-05,3e-05,-1e-05,4,19
18430,-4e-05,-1e-05,-7e-05,1e-05,0.00031,5e-05,3e-05,-1e-05,4,19
18431,-4e-05,-1e-05,-7e-05,1e-05,0.00031,5e-05,3e-05,-1e-05,4,19
18432,-4e-05,-1e-05,-7e-05,1e-05,0.00031,5e-05,3e-05,-1e-05,4,19
18433,-4e-05,-1e-05,-7e-05,1e-05,0.00031,5e-05,3e-05,-1e-05,4,19
18434,-4e-05,-1e-05,-7e-05,1e-05,0.00031,5e-05,3e-05,-1e-05,4,19
18435,-4e-05,-1e-05,-7e-05,1e-05,0.00031,5e-05,3e-05,-1e-05,4,19
18436,-4e-05,-1e-05,-7e-05,1e-05,0.00031,5e-05,3e-05,-1e-05,4,19
18438,-4e-05,-1e-05,-7e-05,1e-05,0.00031,5e-05,3e-05,-1e-05,4,19
18439,-4e-05,-1e-05,-7e-05,1e-05,0.00031,5e-05,3e-05,-1e-05,4,19
18440,-4e-05,-1e-05,-7e-05,1e-05,0.00031,5e-05,3e-05,-1e-05,4,19
18441,-4e-05,-1e-05,-7e-05,1e-05,0.00031,5e-05,3e-05,-1e-05,4,19
18442,-4e-05,-1e-05,-7e-05,1e-05,0.00031,5e-05,3e-05,-1e-05,4,19
18443,-4e-05,-1e-05,-7e-05,1e-05,0.00031,5e-05,3e-05,-1e-05,4,19
18444,-5e-05,-7e-05,-4e-05,-0.00024,0.00011,-5e-05,-4e-05,-5e-05,4,19
18445,-5e-05,-7e-05,-4e-05,-0.00024,0.00011,-5e-05,-4e-05,-5e-05,4,19
18446,4e-05,-5e-05,-0.00016,-0.00059,-0.00072,-8e-05,-5e-05,-3e-05,4,19
18447,4e-05,-5e-05,-0.00016,-0.00059,-0.00072,-8e-05,-5e-05,-3e-05,4,19
18448,4e-05,-5e-05,-0.00016,-0.00059,-0.00072,-8e-05,-5e-05,-3e-05,4,19
18449,4e-05,-5e-05,-0.00016,-0.00059,-0.00072,-8e-05,-5e-05,-3e-05,4,19
18450,4e-05,-5e-05,-0.00016,-0.00059,-0.00072,-8e-05,-5e-05,-3e-05,4,19
18451,4e-05,-5e-05,-0.00016,-0.00059,-0.00072,-8e-05,-5e-05,-3e-05,4,19
18452,4e-05,-5e-05,-0.00016,-0.00059,-0.00072,-8e-05,-5e-05,-3e-05,4,19
18453,4e-05,-5e-05,-0.00016,-0.00059,-0.00072,-8e-05,-5e-05,-3e-05,4,19
18454,4e-05,-5e-05,-0.00016,-0.00059,-0.00072,-8e-05,-5e-05,-3e-05,4,19
18455,4e-05,-5e-05,-0.00016,-0.00059,-0.00072,-8e-05,-5e-05,-3e-05,4,19
18456,4e-05,-5e-05,-0.00016,-0.00059,-0.00072,-8e-05,-5e-05,-3e-05,4,19
18457,4e-05,-5e-05,-0.00016,-0.00059,-0.00072,-8e-05,-5e-05,-3e-05,4,19
18458,0,4e-05,0,-0.00017,-0.00035,-6e-05,2e-05,3e-05,4,19
18459,0,4e-05,0,-0.00017,-0.00035,-6e-05,2e-05,3e-05,4,19
18460,0,4e-05,0,-0.00017,-0.00035,-6e-05,2e-05,3e-05,4,19
18461,0,4e-05,0,-0.00017,-0.00035,-6e-05,2e-05,3e-05,4,19
18462,0,4e-05,0,-0.00017,-0.00035,-6e-05,2e-05,3e-05,4,19
18463,0,4e-05,0,-0.00017,-0.00035,-6e-05,2e-05,3e-05,4,19
18464,0,4e-05,0,-0.00017,-0.00035,-6e-05,2e-05,3e-05,4,19
18465,0,4e-05,0,-0.00017,-0.00035,-6e-05,2e-05,3e-05,4,19
18466,0,4e-05,0,-0.00017,-0.00035,-6e-05,2e-05,3e-05,4,19
18467,0,4e-05,3e-05,-4e-05,0.00024,-4e-05,-3e-05,0,4,19
18468,0,4e-05,3e-05,-4e-05,0.00024,-4e-05,-3e-05,0,4,19
18469,0,4e-05,3e-05,-4e-05,0.00024,-4e-05,-3e-05,0,4,19
18470,0,4e-05,3e-05,-4e-05,0.00024,-4e-05,-3e-05,0,4,19
18471,0,4e-05,3e-05,-4e-05,0.00024,-4e-05,-3e-05,0,4,19
18472,0,4e-05,3e-05,-4e-05,0.00024,-4e-05,-3e-05,0,4,19
18473,0,4e-05,3e-05,-4e-05,0.00024,-4e-05,-3e-05,0,4,19
18474,0,4e-05,3e-05,-4e-05,0.00024,-4e-05,-3e-05,0,4,19
18475,0,4e-05,3e-05,-4e-05,0.00024,-4e-05,-3e-05,0,4,19
18476,0,4e-05,3e-05,-4e-05,0.00024,-4e-05,-3e-05,0,4,19
18477,0,4e-05,3e-05,-4e-05,0.00024,-4e-05,-3e-05,0,4,19
18478,0,4e-05,3e-05,-4e-05,0.00024,-4e-05,-3e-05,0,4,19
18479,0,4e-05,3e-05,-4e-05,0.00024,-4e-05,-3e-05,0,4,19
18480,0,4e-05,3e-05,-4e-05,0.00024,-4e-05,-3e-05,0,4,19
18481,0,-1e-05,7e-05,-0.00036,-3e-05,-5e-05,-3e-05,-1e-05,4,19
18482,0,-1e-05,7e-05,-0.00036,-3e-05,-5e-05,-3e-05,-1e-05,4,19
18483,-5e-05,-0.00011,-0.0001,-0.00018,-0.00032,-0.00015,-7e-05,-5e-05,4,19
18484,-5e-05,-0.00011,-0.0001,-0.00018,-0.00032,-0.00015,-7e-05,-5e-05,4,19
18485,-5e-05,-0.00011,-0.0001,-0.00018,-0.00032,-0.00015,-7e-05,-5e-05,4,19
18486,-5e-05,-0.00011,-0.0001,-0.00018,-0.00032,-0.00015,-7e-05,-5e-05,4,19
18488,-5e-05,-0.00011,-0.0001,-0.00018,-0.00032,-0.00015,-7e-05,-5e-05,4,19
18489,-5e-05,-0.00011,-0.0001,-0.00018,-0.00032,-0.00015,-7e-05,-5e-05,4,19
18490,-5e-05,-0.00011,-0.0001,-0.00018,-0.00032,-0.00015,-7e-05,-5e-05,4,19
18491,-5e-05,-0.00011,-0.0001,-0.00018,-0.00032,-0.00015,-7e-05,-5e-05,4,19
18492,-5e-05,-0.00011,-0.0001,-0.00018,-0.00032,-0.00015,-7e-05,-5e-05,4,19
18493,-5e-05,-0.00011,-0.0001,-0.00018,-0.00032,-0.00015,-7e-05,-5e-05,4,19
18494,-5e-05,-0.00011,-0.0001,-0.00018,-0.00032,-0.00015,-7e-05,-5e-05,4,19
18495,-5e-05,-0.00011,-0.0001,-0.00018,-0.00032,-0.00015,-7e-05,-5e-05,4,19
18496,-5e-05,-0.00011,-0.0001,-0.00018,-0.00032,-0.00015,-7e-05,-5e-05,4,19
18497,-5e-05,-0.00011,-0.0001,-0.00018,-0.00032,-0.00015,-7e-05,-5e-05,4,19
18498,-5e-05,-0.00011,-0.0001,-0.00018,-0.00032,-0.00015,-7e-05,-5e-05,4,19
18499,-5e-05,-0.00011,-0.0001,-0.00018,-0.00032,-0.00015,-7e-05,-5e-05,4,19
18500,-5e-05,-0.00011,-0.0001,-0.00018,-0.00032,-0.00015,-7e-05,-5e-05,4,19
18501,-5e-05,-0.00011,-0.0001,-0.00018,-0.00032,-0.00015,-7e-05,-5e-05,4,19
18502,-5e-05,-0.00011,-0.0001,-0.00018,-0.00032,-0.00015,-7e-05,-5e-05,4,19
18503,-5e-05,-0.00011,-0.0001,-0.00018,-0.00032,-0.00015,-7e-05,-5e-05,4,19
18504,0,0,-0.00013,-0.00044,-0.0002,-9e-05,-1e-05,-1e-05,4,19
18505,1e-05,0,2e-05,7e-05,-0.0001,-4e-05,-2e-05,0,4,19
18506,0,0,4e-05,-0.00014,-0.00027,1e-05,4e-05,2e-05,4,19
18507,0,0,4e-05,-0.00014,-0.00027,1e-05,4e-05,2e-05,4,19
18508,0,0,4e-05,-0.00014,-0.00027,1e-05,4e-05,2e-05,4,19
18509,0,0,4e-05,-0.00014,-0.00027,1e-05,4e-05,2e-05,4,19
18510,0,0,4e-05,-0.00014,-0.00027,1e-05,4e-05,2e-05,4,19
18511,0,0,4e-05,-0.00014,-0.00027,1e-05,4e-05,2e-05,4,19
18512,0,0,4e-05,-0.00014,-0.00027,1e-05,4e-05,2e-05,4,19
18513,0,0,4e-05,-0.00014,-0.00027,1e-05,4e-05,2e-05,4,19
18514,0,0,4e-05,-0.00014,-0.00027,1e-05,4e-05,2e-05,4,19
18515,0,0,4e-05,-0.00014,-0.00027,1e-05,4e-05,2e-05,4,19
18516,0,0,4e-05,-0.00014,-0.00027,1e-05,4e-05,2e-05,4,19
18517,0,0,4e-05,-0.00014,-0.00027,1e-05,4e-05,2e-05,4,19
18518,0,0,4e-05,-0.00014,-0.00027,1e-05,4e-05,2e-05,4,19
18519,0,0,4e-05,-0.00014,-0.00027,1e-05,4e-05,2e-05,4,19
18520,0,0,4e-05,-0.00014,-0.00027,1e-05,4e-05,2e-05,4,19
18521,0,0,4e-05,-0.00014,-0.00027,1e-05,4e-05,2e-05,4,19
18522,0,0,4e-05,-0.00014,-0.00027,1e-05,4e-05,2e-05,4,19
18523,0,0,4e-05,-0.00014,-0.00027,1e-05,4e-05,2e-05,4,19
18524,0,0,4e-05,-0.00014,-0.00027,1e-05,4e-05,2e-05,4,19
18525,0,0,4e-05,-0.00014,-0.00027,1e-05,4e-05,2e-05,4,19
18526,1e-05,-2e-05,-2e-05,5e-05,5e-05,6e-05,0,1e-05,4,19
18527,-3e-05,-2e-05,-5e-05,-0.00015,-0.00027,1e-05,0,-1e-05,4,19
18528,-2e-05,3e-05,-5e-05,-0.00031,-0.00057,-2e-05,3e-05,1e-05,4,19
18529,-2e-05,3e-05,-5e-05,-0.00031,-0.00057,-2e-05,3e-05,1e-05,4,19
18530,-2e-05,3e-05,-5e-05,-0.00031,-0.00057,-2e-05,3e-05,1e-05,4,19
18531,-2e-05,3e-05,-5e-05,-0.00031,-0.00057,-2e-05,3e-05,1e-05,4,19
18532,-2e-05,3e-05,-5e-05,-0.00031,-0.00057,-2e-05,3e-05,1e-05,4,19
18533,-2e-05,3e-05,-5e-05,-0.00031,-0.00057,-2e-05,3e-05,1e-05,4,19
18534,-2e-05,3e-05,-5e-05,-0.00031,-0.00057,-2e-05,3e-05,1e-05,4,19
18535,-2e-05,3e-05,-5e-05,-0.00031,-0.00057,-2e-05,3e-05,1e-05,4,19
18536,-2e-05,3e-05,-5e-05,-0.00031,-0.00057,-2e-05,3e-05,1e-05,4,19
18538,-2e-05,3e-05,-5e-05,-0.00031,-0.00057,-2e-05,3e-05,1e-05,4,19
18539,-2e-05,3e-05,-5e-05,-0.00031,-0.00057,-2e-05,3e-05,1e-05,4,19
18540,-2e-05,3e-05,-5e-05,-0.00031,-0.00057,-2e-05,3e-05,1e-05,4,19
18541,1e-05,-6e-05,-4e-05,0.0003,0.00036,0.00014,0,0,4,19
18542,0,3e-05,9e-05,0.00041,0.00081,0.00022,0.0001,3e-05,4,19
18543,-4e-05,-7e-05,-3e-05,-0.0004,-0.00071,-0.00011,-6e-05,-6e-05,4,19
18544,-4e-05,-7e-05,-3e-05,-0.0004,-0.00071,-0.00011,-6e-05,-6e-05,4,19
18545,-4e-05,-7e-05,-3e-05,-0.0004,-0.00071,-0.00011,-6e-05,-6e-05,4,19
18546,-4e-05,-7e-05,-3e-05,-0.0004,-0.00071,-0.00011,-6e-05,-6e-05,4,19
18547,-4e-05,-7e-05,-3e-05,-0.0004,-0.00071,-0.00011,-6e-05,-6e-05,4,19
18548,-4e-05,-7e-05,-3e-05,-0.0004,-0.00071,-0.00011,-6e-05,-6e-05,4,19
18549,-4e-05,-7e-05,-3e-05,-0.0004,-0.00071,-0.00011,-6e-05,-6e-05,4,19
18550,-4e-05,-7e-05,-3e-05,-0.0004,-0.00071,-0.00011,-6e-05,-6e-05,4,19
18551,-4e-05,-7e-05,-3e-05,-0.0004,-0.00071,-0.00011,-6e-05,-6e-05,4,19
18552,-4e-05,-7e-05,-3e-05,-0.0004,-0.00071,-0.00011,-6e-05,-6e-05,4,19
18553,-4e-05,-7e-05,-3e-05,-0.0004,-0.00071,-0.00011,-6e-05,-6e-05,4,19
18554,-4e-05,-7e-05,-3e-05,-0.0004,-0.00071,-0.00011,-6e-05,-6e-05,4,19
18555,-4e-05,-7e-05,-3e-05,-0.0004,-0.00071,-0.00011,-6e-05,-6e-05,4,19
18556,-4e-05,-7e-05,-3e-05,-0.0004,-0.00071,-0.00011,-6e-05,-6e-05,4,19
18557,-4e-05,-7e-05,-3e-05,-0.0004,-0.00071,-0.00011,-6e-05,-6e-05,4,19
18558,-4e-05,-7e-05,-3e-05,-0.0004,-0.00071,-0.00011,-6e-05,-6e-05,4,19
18559,-4e-05,-7e-05,-3e-05,-0.0004,-0.00071,-0.00011,-6e-05,-6e-05,4,19
18560,-4e-05,-7e-05,-3e-05,-0.0004,-0.00071,-0.00011,-6e-05,-6e-05,4,19
18561,-4e-05,-7e-05,-3e-05,-0.0004,-0.00071,-0.00011,-6e-05,-6e-05,4,19
18562,-4e-05,-7e-05,-3e-05,-0.0004,-0.00071,-0.00011,-6e-05,-6e-05,4,19
18563,-4e-05,-7e-05,-3e-05,-0.0004,-0.00071,-0.00011,-6e-05,-6e-05,4,19
18564,-1e-05,-5e-05,-5e-05,0.00012,-0.00013,-0.00019,-6e-05,-2e-05,4,19
18565,-6e-05,-7e-05,-0.00014,-0.00052,-0.00053,1e-05,-3e-05,-5e-05,4,19
18566,1e-05,1e-05,7e-05,0.00069,0.00111,0.00019,7e-05,3e-05,4,19
18567,1e-05,1e-05,7e-05,0.00069,0.00111,0.00019,7e-05,3e-05,4,19
18568,1e-05,1e-05,7e-05,0.00069,0.00111,0.00019,7e-05,3e-05,4,19
18569,1e-05,1e-05,7e-05,0.00069,0.00111,0.00019,7e-05,3e-05,4,19
18570,1e-05,1e-05,7e-05,0.00069,0.00111,0.00019,7e-05,3e-05,4,19
18571,1e-05,1e-05,7e-05,0.00069,0.00111,0.00019,7e-05,3e-05,4,19
18572,1e-05,1e-05,7e-05,0.00069,0.00111,0.00019,7e-05,3e-05,4,19
18573,1e-05,1e-05,7e-05,0.00069,0.00111,0.00019,7e-05,3e-05,4,19
18574,1e-05,1e-05,7e-05,0.00069,0.00111,0.00019,7e-05,3e-05,4,19
18575,1e-05,1e-05,7e-05,0.00069,0.00111,0.00019,7e-05,3e-05,4,19
18576,1e-05,1e-05,7e-05,0.00069,0.00111,0.00019,7e-05,3e-05,4,19
18577,1e-05,1e-05,7e-05,0.00069,0.00111,0.00019,7e-05,3e-05,4,19
18578,-5e-05,-5e-05,-3e-05,0.00022,0.00039,-8e-05,-5e-05,-6e-05,4,19
18579,-5e-05,-5e-05,-3e-05,0.00022,0.00039,-8e-05,-5e-05,-6e-05,4,19
18580,-5e-05,-5e-05,-3e-05,0.00022,0.00039,-8e-05,-5e-05,-6e-05,4,19
18581,-5e-05,-5e-05,-3e-05,0.00022,0.00039,-8e-05,-5e-05,-6e-05,4,19
18582,-5e-05,-5e-05,-3e-05,0.00022,0.00039,-8e-05,-5e-05,-6e-05,4,19
18583,-5e-05,-5e-05,-3e-05,0.00022,0.00039,-8e-05,-5e-05,-6e-05,4,19
18584,-5e-05,-5e-05,-3e-05,0.00022,0.00039,-8e-05,-5e-05,-6e-05,4,19
18585,-5e-05,-5e-05,-3e-05,0.00022,0.00039,-8e-05,-5e-05,-6e-05,4,19
18586,1e-05,2e-05,0.0001,0.00027,0.00071,-1e-05,5e-05,3e-05,4,19
18588,-5e-05,-7e-05,-8e-05,-0.00036,0.00011,0,-7e-05,-8e-05,4,19
18589,-5e-05,-7e-05,-8e-05,-0.00036,0.00011,0,-7e-05,-8e-05,4,19
18590,-5e-05,-7e-05,-8e-05,-0.00036,0.00011,0,-7e-05,-8e-05,4,19
18591,-5e-05,-7e-05,-8e-05,-0.00036,0.00011,0,-7e-05,-8e-05,4,19
18592,-5e-05,-7e-05,-8e-05,-0.00036,0.00011,0,-7e-05,-8e-05,4,19
18593,-5e-05,-7e-05,-8e-05,-0.00036,0.00011,0,-7e-05,-8e-05,4,19
18594,-5e-05,-7e-05,-8e-05,-0.00036,0.00011,0,-7e-05,-8e-05,4,19
18595,-5e-05,-7e-05,-8e-05,-0.00036,0.00011,0,-7e-05,-8e-05,4,19
18596,-5e-05,-7e-05,-8e-05,-0.00036,0.00011,0,-7e-05,-8e-05,4,19
18597,-5e-05,-7e-05,-8e-05,-0.00036,0.00011,0,-7e-05,-8e-05,4,19
18598,-5e-05,-7e-05,-8e-05,-0.00036,0.00011,0,-7e-05,-8e-05,4,19
18599,-5e-05,-7e-05,-8e-05,-0.00036,0.00011,0,-7e-05,-8e-05,4,19
18600,-5e-05,-7e-05,-8e-05,-0.00036,0.00011,0,-7e-05,-8e-05,4,19
18601,2e-05,-1e-05,-9e-05,-9e-05,0.00013,3e-05,-2e-05,-2e-05,4,19
18602,0,-2e-05,-5e-05,-0.00016,-0.00033,0,-2e-05,0,4,19
18603,-1e-05,2e-05,3e-05,1e-05,4e-05,1e-05,-1e-05,1e-05,4,19
18604,-1e-05,2e-05,3e-05,1e-05,4e-05,1e-05,-1e-05,1e-05,4,19
18605,-1e-05,2e-05,3e-05,1e-05,4e-05,1e-05,-1e-05,1e-05,4,19
18606,-1e-05,2e-05,3e-05,1e-05,4e-05,1e-05,-1e-05,1e-05,4,19
18607,-1e-05,2e-05,3e-05,1e-05,4e-05,1e-05,-1e-05,1e-05,4,19
18608,-1e-05,2e-05,3e-05,1e-05,4e-05,1e-05,-1e-05,1e-05,4,19
18609,-1e-05,2e-05,3e-05,1e-05,4e-05,1e-05,-1e-05,1e-05,4,19
18610,-1e-05,2e-05,3e-05,1e-05,4e-05,1e-05,-1e-05,1e-05,4,19
18611,-1e-05,2e-05,3e-05,1e-05,4e-05,1e-05,-1e-05,1e-05,4,19
18613,-1e-05,2e-05,3e-05,1e-05,4e-05,1e-05,-1e-05,1e-05,4,19
18614,-1e-05,2e-05,3e-05,1e-05,4e-05,1e-05,-1e-05,1e-05,4,19
18615,-1e-05,2e-05,3e-05,1e-05,4e-05,1e-05,-1e-05,1e-05,4,19
18616,-1e-05,2e-05,3e-05,1e-05,4e-05,1e-05,-1e-05,1e-05,4,19
18617,-1e-05,2e-05,3e-05,1e-05,4e-05,1e-05,-1e-05,1e-05,4,19
18618,-1e-05,2e-05,3e-05,1e-05,4e-05,1e-05,-1e-05,1e-05,4,19
18619,-1e-05,2e-05,3e-05,1e-05,4e-05,1e-05,-1e-05,1e-05,4,19
18620,-1e-05,2e-05,3e-05,1e-05,4e-05,1e-05,-1e-05,1e-05,4,19
18621,-1e-05,2e-05,3e-05,1e-05,4e-05,1e-05,-1e-05,1e-05,4,19
18622,-1e-05,2e-05,3e-05,1e-05,4e-05,1e-05,-1e-05,1e-05,4,19
18623,-1e-05,2e-05,3e-05,1e-05,4e-05,1e-05,-1e-05,1e-05,4,19
18624,0,4e-05,6e-05,-0.00034,-0.00058,-0.00021,-2e-05,2e-05,4,19
18625,0,4e-05,6e-05,-0.00034,-0.00058,-0.00021,-2e-05,2e-05,4,19
18626,0,3e-05,0.0001,0.00028,-4e-05,-9e-05,-5e-05,-3e-05,4,19
18627,0,3e-05,0.0001,0.00028,-4e-05,-9e-05,-5e-05,-3e-05,4,19
18628,0,3e-05,0.0001,0.00028,-4e-05,-9e-05,-5e-05,-3e-05,4,19
18629,0,3e-05,0.0001,0.00028,-4e-05,-9e-05,-5e-05,-3e-05,4,19
18630,0,3e-05,0.0001,0.00028,-4e-05,-9e-05,-5e-05,-3e-05,4,19
18631,0,3e-05,0.0001,0.00028,-4e-05,-9e-05,-5e-05,-3e-05,4,19
18632,0,3e-05,0.0001,0.00028,-4e-05,-9e-05,-5e-05,-3e-05,4,19
18633,0,3e-05,0.0001,0.00028,-4e-05,-9e-05,-5e-05,-3e-05,4,19
18634,0,3e-05,0.0001,0.00028,-4e-05,-9e-05,-5e-05,-3e-05,4,19
18635,0,3e-05,0.0001,0.00028,-4e-05,-9e-05,-5e-05,-3e-05,4,19
18636,0,3e-05,0.0001,0.00028,-4e-05,-9e-05,-5e-05,-3e-05,4,19
18638,-7e-05,-0.00011,-0.00017,-0.00047,-0.00099,-0.00027,-7e-05,-8e-05,4,19
18639,-7e-05,-0.00011,-0.00017,-0.00047,-0.00099,-0.00027,-7e-05,-8e-05,4,19
18640,-7e-05,-0.00011,-0.00017,-0.00047,-0.00099,-0.00027,-7e-05,-8e-05,4,19
18641,-7e-05,-0.00011,-0.00017,-0.00047,-0.00099,-0.00027,-7e-05,-8e-05,4,19
18642,-7e-05,-0.00011,-0.00017,-0.00047,-0.00099,-0.00027,-7e-05,-8e-05,4,19
18643,-7e-05,-0.00011,-0.00017,-0.00047,-0.00099,-0.00027,-7e-05,-8e-05,4,19
18644,-7e-05,-0.00011,-0.00017,-0.00047,-0.00099,-0.00027,-7e-05,-8e-05,4,19
18645,-7e-05,-0.00011,-0.00017,-0.00047,-0.00099,-0.00027,-7e-05,-8e-05,4,19
18646,-4e-05,-6e-05,-8e-05,-6e-05,-1e-05,0.00026,4e-05,-1e-05,4,19
18647,0,0,-5e-05,0.00021,0.00033,2e-05,2e-05,-1e-05,4,19
18648,0,0,-5e-05,0.00021,0.00033,2e-05,2e-05,-1e-05,4,19
18649,0,0,-5e-05,0.00021,0.00033,2e-05,2e-05,-1e-05,4,19
18650,0,0,-5e-05,0.00021,0.00033,2e-05,2e-05,-1e-05,4,19
18651,0,0,-5e-05,0.00021,0.00033,2e-05,2e-05,-1e-05,4,19
18652,0,0,-5e-05,0.00021,0.00033,2e-05,2e-05,-1e-05,4,19
18653,0,0,-5e-05,0.00021,0.00033,2e-05,2e-05,-1e-05,4,19
18654,0,0,-5e-05,0.00021,0.00033,2e-05,2e-05,-1e-05,4,19
18655,0,0,-5e-05,0.00021,0.00033,2e-05,2e-05,-1e-05,4,19
18656,0,0,-5e-05,0.00021,0.00033,2e-05,2e-05,-1e-05,4,19
18657,0,0,-5e-05,0.00021,0.00033,2e-05,2e-05,-1e-05,4,19
18658,0,0,-5e-05,0.00021,0.00033,2e-05,2e-05,-1e-05,4,19
18659,0,0,-5e-05,0.00021,0.00033,2e-05,2e-05,-1e-05,4,19
18660,0,0,-5e-05,0.00021,0.00033,2e-05,2e-05,-1e-05,4,19
18661,-1e-05,0,-6e-05,0.00012,-0.00024,0,-3e-05,0,4,19
18662,-1e-05,0,-6e-05,0.00012,-0.00024,0,-3e-05,0,4,19
18663,1e-05,-1e-05,-6e-05,0.00035,0.00016,7e-05,0,0,4,19
18664,1e-05,-1e-05,-6e-05,0.00035,0.00016,7e-05,0,0,4,19
18665,1e-05,-1e-05,-6e-05,0.00035,0.00016,7e-05,0,0,4,19
18666,1e-05,-1e-05,-6e-05,0.00035,0.00016,7e-05,0,0,4,19
18667,1e-05,-1e-05,-6e-05,0.00035,0.00016,7e-05,0,0,4,19
18668,1e-05,-1e-05,-6e-05,0.00035,0.00016,7e-05,0,0,4,19
18669,1e-05,-1e-05,-6e-05,0.00035,0.00016,7e-05,0,0,4,19
18670,1e-05,-1e-05,-6e-05,0.00035,0.00016,7e-05,0,0,4,19
18671,1e-05,-1e-05,-6e-05,0.00035,0.00016,7e-05,0,0,4,19
18672,1e-05,-1e-05,-6e-05,0.00035,0.00016,7e-05,0,0,4,19
18673,1e-05,-1e-05,-6e-05,0.00035,0.00016,7e-05,0,0,4,19
18674,1e-05,-1e-05,-6e-05,0.00035,0.00016,7e-05,0,0,4,19
18675,1e-05,-1e-05,-6e-05,0.00035,0.00016,7e-05,0,0,4,19
18676,1e-05,-1e-05,-6e-05,0.00035,0.00016,7e-05,0,0,4,19
18677,1e-05,-1e-05,-6e-05,0.00035,0.00016,7e-05,0,0,4,19
