19599,-7e-05,-0.00011,9e-05,0.00127,0.00046,6e-05,-2e-05,-3e-05,4,2
19600,-7e-05,-0.00011,9e-05,0.00127,0.00046,6e-05,-2e-05,-3e-05,4,2
19601,-7e-05,-0.00011,9e-05,0.00127,0.00046,6e-05,-2e-05,-3e-05,4,2
19602,0.00013,0.00024,0.00048,0.00041,0.00103,0.00046,0.00022,0.00016,4,2
19603,0.00013,0.00024,0.00048,0.00041,0.00103,0.00046,0.00022,0.00016,4,2
19604,0.00013,0.00024,0.00048,0.00041,0.00103,0.00046,0.00022,0.00016,4,2
19605,0.00013,0.00024,0.00048,0.00041,0.00103,0.00046,0.00022,0.00016,4,2
19606,0.00013,0.00024,0.00048,0.00041,0.00103,0.00046,0.00022,0.00016,4,2
19607,0.00013,0.00024,0.00048,0.00041,0.00103,0.00046,0.00022,0.00016,4,2
19608,0.00013,0.00024,0.00048,0.00041,0.00103,0.00046,0.00022,0.00016,4,2
19609,0.00013,0.00024,0.00048,0.00041,0.00103,0.00046,0.00022,0.00016,4,2
19610,0.00013,0.00024,0.00048,0.00041,0.00103,0.00046,0.00022,0.00016,4,2
19611,0.00013,0.00024,0.00048,0.00041,0.00103,0.00046,0.00022,0.00016,4,2
19612,0.00013,0.00024,0.00048,0.00041,0.00103,0.00046,0.00022,0.00016,4,2
19614,0.00013,0.00024,0.00048,0.00041,0.00103,0.00046,0.00022,0.00016,4,2
19615,0.00013,0.00024,0.00048,0.00041,0.00103,0.00046,0.00022,0.00016,4,2
19616,0.00013,0.00024,0.00048,0.00041,0.00103,0.00046,0.00022,0.00016,4,2
19617,0.00013,0.00024,0.00048,0.00041,0.00103,0.00046,0.00022,0.00016,4,2
19618,0.00013,0.00024,0.00048,0.00041,0.00103,0.00046,0.00022,0.00016,4,2
19619,0.00013,0.00024,0.00048,0.00041,0.00103,0.00046,0.00022,0.00016,4,2
19620,0.00013,0.00024,0.00048,0.00041,0.00103,0.00046,0.00022,0.00016,4,2
19621,0.00013,0.00024,0.00048,0.00041,0.00103,0.00046,0.00022,0.00016,4,2
19622,0,-9e-05,-0.00026,-0.0001,-2e-05,0.00017,3e-05,-2e-05,4,2
19623,0,-9e-05,-0.00026,-0.0001,-2e-05,0.00017,3e-05,-2e-05,4,2
19624,6e-05,0.00011,0.00011,-0.00055,0.00022,0.00015,0.0001,7e-05,4,2
19625,6e-05,0.00011,0.00011,-0.00055,0.00022,0.00015,0.0001,7e-05,4,2
19626,6e-05,0.00011,0.00011,-0.00055,0.00022,0.00015,0.0001,7e-05,4,2
19627,6e-05,0.00011,0.00011,-0.00055,0.00022,0.00015,0.0001,7e-05,4,2
19628,6e-05,0.00011,0.00011,-0.00055,0.00022,0.00015,0.0001,7e-05,4,2
19629,6e-05,0.00011,0.00011,-0.00055,0.00022,0.00015,0.0001,7e-05,4,2
19630,6e-05,0.00011,0.00011,-0.00055,0.00022,0.00015,0.0001,7e-05,4,2
19631,6e-05,0.00011,0.00011,-0.00055,0.00022,0.00015,0.0001,7e-05,4,2
19632,6e-05,0.00011,0.00011,-0.00055,0.00022,0.00015,0.0001,7e-05,4,2
19633,6e-05,0.00011,0.00011,-0.00055,0.00022,0.00015,0.0001,7e-05,4,2
19634,6e-05,0.00011,0.00011,-0.00055,0.00022,0.00015,0.0001,7e-05,4,2
19635,4e-05,6e-05,0.00012,-0.0002,0.00026,-4e-05,4e-05,3e-05,4,2
19636,4e-05,6e-05,0.00012,-0.0002,0.00026,-4e-05,4e-05,3e-05,4,2
19638,4e-05,6e-05,0.00012,-0.0002,0.00026,-4e-05,4e-05,3e-05,4,2
19639,4e-05,6e-05,0.00012,-0.0002,0.00026,-4e-05,4e-05,3e-05,4,2
19640,4e-05,6e-05,0.00012,-0.0002,0.00026,-4e-05,4e-05,3e-05,4,2
19641,4e-05,6e-05,0.00012,-0.0002,0.00026,-4e-05,4e-05,3e-05,4,2
19642,4e-05,6e-05,0.00012,-0.0002,0.00026,-4e-05,4e-05,3e-05,4,2
19643,4e-05,6e-05,0.00012,-0.0002,0.00026,-4e-05,4e-05,3e-05,4,2
19644,-5e-05,-5e-05,-0.0001,0.00021,0.0001,3e-05,0,-1e-05,4,2
19645,-5e-05,-5e-05,-0.0001,0.00021,0.0001,3e-05,0,-1e-05,4,2
19646,-5e-05,-5e-05,-0.0001,0.00021,0.0001,3e-05,0,-1e-05,4,2
19647,-5e-05,-5e-05,-0.0001,0.00021,0.0001,3e-05,0,-1e-05,4,2
19648,-5e-05,-5e-05,-0.0001,0.00021,0.0001,3e-05,0,-1e-05,4,2
19649,-5e-05,-5e-05,-0.0001,0.00021,0.0001,3e-05,0,-1e-05,4,2
19650,-5e-05,-5e-05,-0.0001,0.00021,0.0001,3e-05,0,-1e-05,4,2
19651,-5e-05,-5e-05,-0.0001,0.00021,0.0001,3e-05,0,-1e-05,4,2
19652,-5e-05,-5e-05,-0.0001,0.00021,0.0001,3e-05,0,-1e-05,4,2
19653,-5e-05,-5e-05,-0.0001,0.00021,0.0001,3e-05,0,-1e-05,4,2
19654,-5e-05,-5e-05,-0.0001,0.00021,0.0001,3e-05,0,-1e-05,4,2
19655,-5e-05,-5e-05,-0.0001,0.00021,0.0001,3e-05,0,-1e-05,4,2
19656,-5e-05,-5e-05,-0.0001,0.00021,0.0001,3e-05,0,-1e-05,4,2
19657,-5e-05,-5e-05,-0.0001,0.00021,0.0001,3e-05,0,-1e-05,4,2
19658,-5e-05,-5e-05,-0.0001,0.00021,0.0001,3e-05,0,-1e-05,4,2
19659,6e-05,7e-05,9e-05,-0.0001,0.00095,0.00041,0.00019,0.00014,4,2
19660,6e-05,7e-05,9e-05,-0.0001,0.00095,0.00041,0.00019,0.00014,4,2
19661,0,3e-05,0.00013,0.00041,0.00053,0.00023,3e-05,1e-05,4,2
19662,0,3e-05,0.00013,0.00041,0.00053,0.00023,3e-05,1e-05,4,2
19663,0,3e-05,0.00013,0.00041,0.00053,0.00023,3e-05,1e-05,4,2
19664,0,3e-05,0.00013,0.00041,0.00053,0.00023,3e-05,1e-05,4,2
19665,0,3e-05,0.00013,0.00041,0.00053,0.00023,3e-05,1e-05,4,2
19666,0,3e-05,0.00013,0.00041,0.00053,0.00023,3e-05,1e-05,4,2
19667,0,3e-05,0.00013,0.00041,0.00053,0.00023,3e-05,1e-05,4,2
19668,0,3e-05,0.00013,0.00041,0.00053,0.00023,3e-05,1e-05,4,2
19669,0,3e-05,0.00013,0.00041,0.00053,0.00023,3e-05,1e-05,4,2
19670,0,3e-05,0.00013,0.00041,0.00053,0.00023,3e-05,1e-05,4,2
19671,0,3e-05,0.00013,0.00041,0.00053,0.00023,3e-05,1e-05,4,2
19672,0,3e-05,0.00013,0.00041,0.00053,0.00023,3e-05,1e-05,4,2
19673,0,3e-05,0.00013,0.00041,0.00053,0.00023,3e-05,1e-05,4,2
19674,0,3e-05,0.00013,0.00041,0.00053,0.00023,3e-05,1e-05,4,2
19675,0,3e-05,0.00013,0.00041,0.00053,0.00023,3e-05,1e-05,4,2
19676,0,3e-05,0.00013,0.00041,0.00053,0.00023,3e-05,1e-05,4,2
19677,0,3e-05,0.00013,0.00041,0.00053,0.00023,3e-05,1e-05,4,2
19678,0,3e-05,0.00013,0.00041,0.00053,0.00023,3e-05,1e-05,4,2
19679,0,3e-05,0.00013,0.00041,0.00053,0.00023,3e-05,1e-05,4,2
19680,0,3e-05,0.00013,0.00041,0.00053,0.00023,3e-05,1e-05,4,2
19681,0,3e-05,0.00013,0.00041,0.00053,0.00023,3e-05,1e-05,4,2
19682,-0.00013,-0.00014,-0.00011,0.00094,-0.0001,-0.0003,-0.00012,-8e-05,4,2
19683,6e-05,9e-05,0.00025,0.00072,0.00046,2e-05,3e-05,4e-05,4,2
19684,6e-05,9e-05,0.00025,0.00072,0.00046,2e-05,3e-05,4e-05,4,2
19685,6e-05,9e-05,0.00025,0.00072,0.00046,2e-05,3e-05,4e-05,4,2
19686,6e-05,9e-05,0.00025,0.00072,0.00046,2e-05,3e-05,4e-05,4,2
19688,6e-05,9e-05,0.00025,0.00072,0.00046,2e-05,3e-05,4e-05,4,2
19689,6e-05,9e-05,0.00025,0.00072,0.00046,2e-05,3e-05,4e-05,4,2
19690,6e-05,9e-05,0.00025,0.00072,0.00046,2e-05,3e-05,4e-05,4,2
19691,6e-05,9e-05,0.00025,0.00072,0.00046,2e-05,3e-05,4e-05,4,2
19692,6e-05,9e-05,0.00025,0.00072,0.00046,2e-05,3e-05,4e-05,4,2
19693,6e-05,9e-05,0.00025,0.00072,0.00046,2e-05,3e-05,4e-05,4,2
19694,6e-05,9e-05,0.00025,0.00072,0.00046,2e-05,3e-05,4e-05,4,2
19695,-3e-05,-5e-05,-9e-05,-0.00013,-0.00066,5e-05,-6e-05,-0.0001,4,2
19696,-0.0001,-0.0001,-0.00016,-0.00029,-0.00024,-0.00011,-7e-05,-7e-05,4,2
19697,-0.0001,-0.0001,-0.00016,-0.00029,-0.00024,-0.00011,-7e-05,-7e-05,4,2
19698,-0.0001,-0.0001,-0.00016,-0.00029,-0.00024,-0.00011,-7e-05,-7e-05,4,2
19699,-0.0001,-0.0001,-0.00016,-0.00029,-0.00024,-0.00011,-7e-05,-7e-05,4,2
19700,-0.0001,-0.0001,-0.00016,-0.00029,-0.00024,-0.00011,-7e-05,-7e-05,4,2
19701,-0.0001,-0.0001,-0.00016,-0.00029,-0.00024,-0.00011,-7e-05,-7e-05,4,2
19702,-0.0001,-0.0001,-0.00016,-0.00029,-0.00024,-0.00011,-7e-05,-7e-05,4,2
19703,-0.0001,-0.0001,-0.00016,-0.00029,-0.00024,-0.00011,-7e-05,-7e-05,4,2
19704,7e-05,7e-05,-2e-05,-0.00091,-0.00014,8e-05,2e-05,3e-05,4,2
19705,-7e-05,-0.0001,-0.00015,-0.00036,-0.00048,-0.00027,-9e-05,-8e-05,4,2
19706,-7e-05,-0.0001,-0.00015,-0.00036,-0.00048,-0.00027,-9e-05,-8e-05,4,2
19707,-7e-05,-0.0001,-0.00015,-0.00036,-0.00048,-0.00027,-9e-05,-8e-05,4,2
19708,-7e-05,-0.0001,-0.00015,-0.00036,-0.00048,-0.00027,-9e-05,-8e-05,4,2
19709,-7e-05,-0.0001,-0.00015,-0.00036,-0.00048,-0.00027,-9e-05,-8e-05,4,2
19710,-7e-05,-0.0001,-0.00015,-0.00036,-0.00048,-0.00027,-9e-05,-8e-05,4,2
19711,-7e-05,-0.0001,-0.00015,-0.00036,-0.00048,-0.00027,-9e-05,-8e-05,4,2
19712,-7e-05,-0.0001,-0.00015,-0.00036,-0.00048,-0.00027,-9e-05,-8e-05,4,2
19713,-7e-05,-0.0001,-0.00015,-0.00036,-0.00048,-0.00027,-9e-05,-8e-05,4,2
19714,-7e-05,-0.0001,-0.00015,-0.00036,-0.00048,-0.00027,-9e-05,-8e-05,4,2
19715,-7e-05,-0.0001,-0.00015,-0.00036,-0.00048,-0.00027,-9e-05,-8e-05,4,2
19716,-7e-05,-0.0001,-0.00015,-0.00036,-0.00048,-0.00027,-9e-05,-8e-05,4,2
19717,-7e-05,-0.0001,-0.00015,-0.00036,-0.00048,-0.00027,-9e-05,-8e-05,4,2
19718,-7e-05,-0.0001,-0.00015,-0.00036,-0.00048,-0.00027,-9e-05,-8e-05,4,2
19719,-0.0001,-0.00014,-0.00029,3e-05,-0.00061,-0.0003,-0.00015,-0.00013,4,2
19720,-0.0001,-0.00014,-0.00029,3e-05,-0.00061,-0.0003,-0.00015,-0.00013,4,2
19721,-2e-05,2e-05,5e-05,-0.0003,0.00029,9e-05,0,-4e-05,4,2
19722,-2e-05,2e-05,5e-05,-0.0003,0.00029,9e-05,0,-4e-05,4,2
19723,-2e-05,2e-05,5e-05,-0.0003,0.00029,9e-05,0,-4e-05,4,2
19724,-2e-05,2e-05,5e-05,-0.0003,0.00029,9e-05,0,-4e-05,4,2
19725,-2e-05,2e-05,5e-05,-0.0003,0.00029,9e-05,0,-4e-05,4,2
19726,-2e-05,2e-05,5e-05,-0.0003,0.00029,9e-05,0,-4e-05,4,2
19727,-2e-05,2e-05,5e-05,-0.0003,0.00029,9e-05,0,-4e-05,4,2
19728,-2e-05,2e-05,5e-05,-0.0003,0.00029,9e-05,0,-4e-05,4,2
19729,-2e-05,2e-05,5e-05,-0.0003,0.00029,9e-05,0,-4e-05,4,2
19730,-2e-05,2e-05,5e-05,-0.0003,0.00029,9e-05,0,-4e-05,4,2
19731,-2e-05,2e-05,5e-05,-0.0003,0.00029,9e-05,0,-4e-05,4,2
19732,-2e-05,2e-05,5e-05,-0.0003,0.00029,9e-05,0,-4e-05,4,2
19733,-2e-05,2e-05,5e-05,-0.0003,0.00029,9e-05,0,-4e-05,4,2
19734,-2e-05,2e-05,5e-05,-0.0003,0.00029,9e-05,0,-4e-05,4,2
19735,-2e-05,2e-05,5e-05,-0.0003,0.00029,9e-05,0,-4e-05,4,2
19736,-2e-05,2e-05,5e-05,-0.0003,0.00029,9e-05,0,-4e-05,4,2
19738,-2e-05,2e-05,5e-05,-0.0003,0.00029,9e-05,0,-4e-05,4,2
19739,-2e-05,2e-05,5e-05,-0.0003,0.00029,9e-05,0,-4e-05,4,2
19740,-2e-05,2e-05,5e-05,-0.0003,0.00029,9e-05,0,-4e-05,4,2
19741,-2e-05,2e-05,5e-05,-0.0003,0.00029,9e-05,0,-4e-05,4,2
19742,-1e-05,-2e-05,0.00026,0.00101,0.00051,2e-05,-4e-05,-4e-05,4,2
19743,-4e-05,-8e-05,-0.00013,-0.00032,-7e-05,0.00015,4e-05,2e-05,4,2
19744,-4e-05,-8e-05,-0.00013,-0.00032,-7e-05,0.00015,4e-05,2e-05,4,2
19745,-4e-05,-8e-05,-0.00013,-0.00032,-7e-05,0.00015,4e-05,2e-05,4,2
19746,-4e-05,-8e-05,-0.00013,-0.00032,-7e-05,0.00015,4e-05,2e-05,4,2
19747,-4e-05,-8e-05,-0.00013,-0.00032,-7e-05,0.00015,4e-05,2e-05,4,2
19748,-4e-05,-8e-05,-0.00013,-0.00032,-7e-05,0.00015,4e-05,2e-05,4,2
19749,-4e-05,-8e-05,-0.00013,-0.00032,-7e-05,0.00015,4e-05,2e-05,4,2
19750,-4e-05,-8e-05,-0.00013,-0.00032,-7e-05,0.00015,4e-05,2e-05,4,2
19751,-4e-05,-8e-05,-0.00013,-0.00032,-7e-05,0.00015,4e-05,2e-05,4,2
19752,-4e-05,-8e-05,-0.00013,-0.00032,-7e-05,0.00015,4e-05,2e-05,4,2
19753,-4e-05,-8e-05,-0.00013,-0.00032,-7e-05,0.00015,4e-05,2e-05,4,2
19754,-4e-05,-8e-05,-0.00013,-0.00032,-7e-05,0.00015,4e-05,2e-05,4,2
19755,0.00014,0.0002,0.00031,0.00015,0.00032,0.00017,0.00012,0.0001,4,2
19756,0.00014,0.0002,0.00031,0.00015,0.00032,0.00017,0.00012,0.0001,4,2
19757,0.00014,0.0002,0.00031,0.00015,0.00032,0.00017,0.00012,0.0001,4,2
19758,0.00014,0.0002,0.00031,0.00015,0.00032,0.00017,0.00012,0.0001,4,2
19759,0.00014,0.0002,0.00031,0.00015,0.00032,0.00017,0.00012,0.0001,4,2
19760,0.00014,0.0002,0.00031,0.00015,0.00032,0.00017,0.00012,0.0001,4,2
19761,0.00014,0.0002,0.00031,0.00015,0.00032,0.00017,0.00012,0.0001,4,2
19762,0.00014,0.0002,0.00031,0.00015,0.00032,0.00017,0.00012,0.0001,4,2
19763,0.00014,0.0002,0.00031,0.00015,0.00032,0.00017,0.00012,0.0001,4,2
19764,-7e-05,-7e-05,-0.00012,0.0007,0.00052,0.00029,6e-05,0,4,2
19765,-5e-05,-9e-05,-0.00027,-0.00125,-0.00054,-0.00012,-9e-05,-7e-05,4,2
19766,-5e-05,-9e-05,-0.00027,-0.00125,-0.00054,-0.00012,-9e-05,-7e-05,4,2
19767,-5e-05,-9e-05,-0.00027,-0.00125,-0.00054,-0.00012,-9e-05,-7e-05,4,2
19768,-5e-05,-9e-05,-0.00027,-0.00125,-0.00054,-0.00012,-9e-05,-7e-05,4,2
19769,-5e-05,-9e-05,-0.00027,-0.00125,-0.00054,-0.00012,-9e-05,-7e-05,4,2
19770,-5e-05,-9e-05,-0.00027,-0.00125,-0.00054,-0.00012,-9e-05,-7e-05,4,2
19771,-5e-05,-9e-05,-0.00027,-0.00125,-0.00054,-0.00012,-9e-05,-7e-05,4,2
19772,-5e-05,-9e-05,-0.00027,-0.00125,-0.00054,-0.00012,-9e-05,-7e-05,4,2
19773,-5e-05,-9e-05,-0.00027,-0.00125,-0.00054,-0.00012,-9e-05,-7e-05,4,2
19774,-5e-05,-9e-05,-0.00027,-0.00125,-0.00054,-0.00012,-9e-05,-7e-05,4,2
19775,-5e-05,-9e-05,-0.00027,-0.00125,-0.00054,-0.00012,-9e-05,-7e-05,4,2
19776,-5e-05,-9e-05,-0.00027,-0.00125,-0.00054,-0.00012,-9e-05,-7e-05,4,2
19777,-5e-05,-9e-05,-0.00027,-0.00125,-0.00054,-0.00012,-9e-05,-7e-05,4,2
19778,-5e-05,-9e-05,-0.00027,-0.00125,-0.00054,-0.00012,-9e-05,-7e-05,4,2
19779,0,0,-1e-05,-0.0003,-0.00045,-0.00017,-8e-05,-3e-05,4,2
19780,0,0,-1e-05,-0.0003,-0.00045,-0.00017,-8e-05,-3e-05,4,2
19781,-0.0001,-0.00012,-0.00015,0.00067,-4e-05,-0.00019,-6e-05,-5e-05,4,2
19782,-0.0001,-0.00012,-0.00015,0.00067,-4e-05,-0.00019,-6e-05,-5e-05,4,2
19783,-0.0001,-0.00012,-0.00015,0.00067,-4e-05,-0.00019,-6e-05,-5e-05,4,2
19784,-0.0001,-0.00012,-0.00015,0.00067,-4e-05,-0.00019,-6e-05,-5e-05,4,2
19785,-0.0001,-0.00012,-0.00015,0.00067,-4e-05,-0.00019,-6e-05,-5e-05,4,2
19786,-0.0001,-0.00012,-0.00015,0.00067,-4e-05,-0.00019,-6e-05,-5e-05,4,2
19788,-0.0001,-0.00012,-0.00015,0.00067,-4e-05,-0.00019,-6e-05,-5e-05,4,2
19789,-0.0001,-0.00012,-0.00015,0.00067,-4e-05,-0.00019,-6e-05,-5e-05,4,2
19790,-0.0001,-0.00012,-0.00015,0.00067,-4e-05,-0.00019,-6e-05,-5e-05,4,2
19791,-0.0001,-0.00012,-0.00015,0.00067,-4e-05,-0.00019,-6e-05,-5e-05,4,2
19792,-0.0001,-0.00012,-0.00015,0.00067,-4e-05,-0.00019,-6e-05,-5e-05,4,2
19793,-0.0001,-0.00012,-0.00015,0.00067,-4e-05,-0.00019,-6e-05,-5e-05,4,2
19794,-0.0001,-0.00012,-0.00015,0.00067,-4e-05,-0.00019,-6e-05,-5e-05,4,2
19795,-0.0001,-0.00012,-0.00015,0.00067,-4e-05,-0.00019,-6e-05,-5e-05,4,2
19796,-0.0001,-0.00012,-0.00015,0.00067,-4e-05,-0.00019,-6e-05,-5e-05,4,2
19797,-0.0001,-0.00012,-0.00015,0.00067,-4e-05,-0.00019,-6e-05,-5e-05,4,2
19798,-0.0001,-0.00012,-0.00015,0.00067,-4e-05,-0.00019,-6e-05,-5e-05,4,2
19799,-0.0001,-0.00012,-0.00015,0.00067,-4e-05,-0.00019,-6e-05,-5e-05,4,2
19800,-0.0001,-0.00012,-0.00015,0.00067,-4e-05,-0.00019,-6e-05,-5e-05,4,2
19801,-0.0001,-0.00012,-0.00015,0.00067,-4e-05,-0.00019,-6e-05,-5e-05,4,2
19802,-1e-05,2e-05,5e-05,-0.00018,-0.00039,-0.0001,-7e-05,-5e-05,4,2
19803,-5e-05,-5e-05,9e-05,0.00052,0.00027,-0.00012,-4e-05,-5e-05,4,2
19804,-5e-05,-5e-05,9e-05,0.00052,0.00027,-0.00012,-4e-05,-5e-05,4,2
19805,-5e-05,-5e-05,9e-05,0.00052,0.00027,-0.00012,-4e-05,-5e-05,4,2
19806,-5e-05,-5e-05,9e-05,0.00052,0.00027,-0.00012,-4e-05,-5e-05,4,2
19807,-5e-05,-5e-05,9e-05,0.00052,0.00027,-0.00012,-4e-05,-5e-05,4,2
19808,-5e-05,-5e-05,9e-05,0.00052,0.00027,-0.00012,-4e-05,-5e-05,4,2
19809,-5e-05,-5e-05,9e-05,0.00052,0.00027,-0.00012,-4e-05,-5e-05,4,2
19810,-5e-05,-5e-05,9e-05,0.00052,0.00027,-0.00012,-4e-05,-5e-05,4,2
19811,-5e-05,-5e-05,9e-05,0.00052,0.00027,-0.00012,-4e-05,-5e-05,4,2
19812,-5e-05,-5e-05,9e-05,0.00052,0.00027,-0.00012,-4e-05,-5e-05,4,2
19813,-5e-05,-5e-05,9e-05,0.00052,0.00027,-0.00012,-4e-05,-5e-05,4,2
19814,-5e-05,-5e-05,9e-05,0.00052,0.00027,-0.00012,-4e-05,-5e-05,4,2
19815,-5e-05,-5e-05,9e-05,0.00052,0.00027,-0.00012,-4e-05,-5e-05,4,2
19816,-5e-05,-5e-05,9e-05,0.00052,0.00027,-0.00012,-4e-05,-5e-05,4,2
19817,-5e-05,-5e-05,9e-05,0.00052,0.00027,-0.00012,-4e-05,-5e-05,4,2
19818,-5e-05,-5e-05,9e-05,0.00052,0.00027,-0.00012,-4e-05,-5e-05,4,2
19820,-5e-05,-5e-05,9e-05,0.00052,0.00027,-0.00012,-4e-05,-5e-05,4,2
19821,-5e-05,-5e-05,9e-05,0.00052,0.00027,-0.00012,-4e-05,-5e-05,4,2
19822,-5e-05,-5e-05,9e-05,0.00052,0.00027,-0.00012,-4e-05,-5e-05,4,2
19823,-5e-05,-5e-05,9e-05,0.00052,0.00027,-0.00012,-4e-05,-5e-05,4,2
19824,1e-05,-1e-05,-4e-05,-0.00036,-0.00032,-2e-05,-6e-05,-7e-05,4,2
19825,1e-05,-1e-05,-4e-05,-0.00036,-0.00032,-2e-05,-6e-05,-7e-05,4,2
19826,5e-05,8e-05,-0.00012,-0.00128,-0.00076,-0.00011,-5e-05,-2e-05,4,2
19827,5e-05,8e-05,-0.00012,-0.00128,-0.00076,-0.00011,-5e-05,-2e-05,4,2
19828,5e-05,8e-05,-0.00012,-0.00128,-0.00076,-0.00011,-5e-05,-2e-05,4,2
19829,5e-05,8e-05,-0.00012,-0.00128,-0.00076,-0.00011,-5e-05,-2e-05,4,2
19830,5e-05,8e-05,-0.00012,-0.00128,-0.00076,-0.00011,-5e-05,-2e-05,4,2
19831,5e-05,8e-05,-0.00012,-0.00128,-0.00076,-0.00011,-5e-05,-2e-05,4,2
19832,5e-05,8e-05,-0.00012,-0.00128,-0.00076,-0.00011,-5e-05,-2e-05,4,2
19833,5e-05,8e-05,-0.00012,-0.00128,-0.00076,-0.00011,-5e-05,-2e-05,4,2
19834,5e-05,8e-05,-0.00012,-0.00128,-0.00076,-0.00011,-5e-05,-2e-05,4,2
19835,5e-05,8e-05,-0.00012,-0.00128,-0.00076,-0.00011,-5e-05,-2e-05,4,2
19836,5e-05,8e-05,-0.00012,-0.00128,-0.00076,-0.00011,-5e-05,-2e-05,4,2
19838,5e-05,8e-05,-0.00012,-0.00128,-0.00076,-0.00011,-5e-05,-2e-05,4,2
19839,5e-05,8e-05,-0.00012,-0.00128,-0.00076,-0.00011,-5e-05,-2e-05,4,2
19840,5e-05,8e-05,-0.00012,-0.00128,-0.00076,-0.00011,-5e-05,-2e-05,4,2
19841,5e-05,8e-05,-0.00012,-0.00128,-0.00076,-0.00011,-5e-05,-2e-05,4,2
19842,5e-05,8e-05,-0.00012,-0.00128,-0.00076,-0.00011,-5e-05,-2e-05,4,2
19843,5e-05,8e-05,-0.00012,-0.00128,-0.00076,-0.00011,-5e-05,-2e-05,4,2
19844,5e-05,8e-05,-0.00012,-0.00128,-0.00076,-0.00011,-5e-05,-2e-05,4,2
19845,5e-05,8e-05,-0.00012,-0.00128,-0.00076,-0.00011,-5e-05,-2e-05,4,2
19846,5e-05,8e-05,-0.00012,-0.00128,-0.00076,-0.00011,-5e-05,-2e-05,4,2
19847,-7e-05,-8e-05,-0.00017,4e-05,-0.00028,-0.00014,-7e-05,-3e-05,4,2
19848,9e-05,0.00012,0.00039,0.00114,0.00064,0.00038,0.00014,0.0001,4,2
19849,9e-05,0.00012,0.00039,0.00114,0.00064,0.00038,0.00014,0.0001,4,2
19850,9e-05,0.00012,0.00039,0.00114,0.00064,0.00038,0.00014,0.0001,4,2
19851,9e-05,0.00012,0.00039,0.00114,0.00064,0.00038,0.00014,0.0001,4,2
19852,9e-05,0.00012,0.00039,0.00114,0.00064,0.00038,0.00014,0.0001,4,2
19853,9e-05,0.00012,0.00039,0.00114,0.00064,0.00038,0.00014,0.0001,4,2
19854,9e-05,0.00012,0.00039,0.00114,0.00064,0.00038,0.00014,0.0001,4,2
19855,9e-05,0.00012,0.00039,0.00114,0.00064,0.00038,0.00014,0.0001,4,2
19856,9e-05,0.00012,0.00039,0.00114,0.00064,0.00038,0.00014,0.0001,4,2
19857,9e-05,0.00012,0.00039,0.00114,0.00064,0.00038,0.00014,0.0001,4,2
19858,9e-05,0.00012,0.00039,0.00114,0.00064,0.00038,0.00014,0.0001,4,2
19859,9e-05,0.00012,0.00039,0.00114,0.00064,0.00038,0.00014,0.0001,4,2
19860,9e-05,0.00012,0.00039,0.00114,0.00064,0.00038,0.00014,0.0001,4,2
19861,9e-05,0.00012,0.00039,0.00114,0.00064,0.00038,0.00014,0.0001,4,2
19862,5e-05,-1e-05,-8e-05,-0.00033,-8e-05,4e-05,5e-05,5e-05,4,2
19863,4e-05,4e-05,0.00016,0.00061,6e-05,-4e-05,2e-05,2e-05,4,2
19864,4e-05,4e-05,0.00016,0.00061,6e-05,-4e-05,2e-05,2e-05,4,2
19865,4e-05,4e-05,0.00016,0.00061,6e-05,-4e-05,2e-05,2e-05,4,2
19866,4e-05,4e-05,0.00016,0.00061,6e-05,-4e-05,2e-05,2e-05,4,2
19867,4e-05,4e-05,0.00016,0.00061,6e-05,-4e-05,2e-05,2e-05,4,2
19868,4e-05,4e-05,0.00016,0.00061,6e-05,-4e-05,2e-05,2e-05,4,2
19869,4e-05,4e-05,0.00016,0.00061,6e-05,-4e-05,2e-05,2e-05,4,2
19870,4e-05,4e-05,0.00016,0.00061,6e-05,-4e-05,2e-05,2e-05,4,2
19871,4e-05,4e-05,0.00016,0.00061,6e-05,-4e-05,2e-05,2e-05,4,2
19872,4e-05,4e-05,0.00016,0.00061,6e-05,-4e-05,2e-05,2e-05,4,2
19873,4e-05,4e-05,0.00016,0.00061,6e-05,-4e-05,2e-05,2e-05,4,2
19874,4e-05,4e-05,0.00016,0.00061,6e-05,-4e-05,2e-05,2e-05,4,2
19875,4e-05,4e-05,0.00016,0.00061,6e-05,-4e-05,2e-05,2e-05,4,2
19876,4e-05,4e-05,0.00016,0.00061,6e-05,-4e-05,2e-05,2e-05,4,2
19877,4e-05,4e-05,0.00016,0.00061,6e-05,-4e-05,2e-05,2e-05,4,2
19878,4e-05,4e-05,0.00016,0.00061,6e-05,-4e-05,2e-05,2e-05,4,2
19879,4e-05,4e-05,0.00016,0.00061,6e-05,-4e-05,2e-05,2e-05,4,2
19880,4e-05,4e-05,0.00016,0.00061,6e-05,-4e-05,2e-05,2e-05,4,2
19881,4e-05,4e-05,0.00016,0.00061,6e-05,-4e-05,2e-05,2e-05,4,2
19882,4e-05,4e-05,0.00016,0.00061,6e-05,-4e-05,2e-05,2e-05,4,2
19883,4e-05,4e-05,0.00016,0.00061,6e-05,-4e-05,2e-05,2e-05,4,2
19884,4e-05,4e-05,0.00016,0.00061,6e-05,-4e-05,2e-05,2e-05,4,2
19885,4e-05,4e-05,0.00016,0.00061,6e-05,-4e-05,2e-05,2e-05,4,2
19886,4e-05,4e-05,0.00016,0.00061,6e-05,-4e-05,2e-05,2e-05,4,2
19888,4e-05,4e-05,0.00016,0.00061,6e-05,-4e-05,2e-05,2e-05,4,2
19889,4e-05,4e-05,0.00016,0.00061,6e-05,-4e-05,2e-05,2e-05,4,2
19890,4e-05,4e-05,0.00016,0.00061,6e-05,-4e-05,2e-05,2e-05,4,2
19891,4e-05,4e-05,0.00016,0.00061,6e-05,-4e-05,2e-05,2e-05,4,2
19892,4e-05,4e-05,0.00016,0.00061,6e-05,-4e-05,2e-05,2e-05,4,2
19893,4e-05,4e-05,0.00016,0.00061,6e-05,-4e-05,2e-05,2e-05,4,2
19894,4e-05,4e-05,0.00016,0.00061,6e-05,-4e-05,2e-05,2e-05,4,2
19895,4e-05,4e-05,0.00016,0.00061,6e-05,-4e-05,2e-05,2e-05,4,2
19896,4e-05,4e-05,0.00016,0.00061,6e-05,-4e-05,2e-05,2e-05,4,2
19897,4e-05,4e-05,0.00016,0.00061,6e-05,-4e-05,2e-05,2e-05,4,2
19898,4e-05,4e-05,0.00016,0.00061,6e-05,-4e-05,2e-05,2e-05,4,2
19899,4e-05,4e-05,0.00016,0.00061,6e-05,-4e-05,2e-05,2e-05,4,2
19900,4e-05,4e-05,0.00016,0.00061,6e-05,-4e-05,2e-05,2e-05,4,2
19901,-2e-05,-2e-05,-0.00013,-0.001,-0.00056,-0.00012,-2e-05,-4e-05,4,2
19902,-4e-05,-5e-05,-0.0002,-0.00061,-0.00019,-0.00024,-7e-05,-5e-05,4,2
19903,5e-05,8e-05,0.00013,-0.00042,-0.00033,-5e-05,-1e-05,-1e-05,4,2
19904,5e-05,8e-05,0.00013,-0.00042,-0.00033,-5e-05,-1e-05,-1e-05,4,2
19905,5e-05,8e-05,0.00013,-0.00042,-0.00033,-5e-05,-1e-05,-1e-05,4,2
19906,5e-05,8e-05,0.00013,-0.00042,-0.00033,-5e-05,-1e-05,-1e-05,4,2
19907,5e-05,8e-05,0.00013,-0.00042,-0.00033,-5e-05,-1e-05,-1e-05,4,2
19908,5e-05,8e-05,0.00013,-0.00042,-0.00033,-5e-05,-1e-05,-1e-05,4,2
19909,5e-05,8e-05,0.00013,-0.00042,-0.00033,-5e-05,-1e-05,-1e-05,4,2
19910,5e-05,8e-05,0.00013,-0.00042,-0.00033,-5e-05,-1e-05,-1e-05,4,2
19911,5e-05,8e-05,0.00013,-0.00042,-0.00033,-5e-05,-1e-05,-1e-05,4,2
19912,5e-05,8e-05,0.00013,-0.00042,-0.00033,-5e-05,-1e-05,-1e-05,4,2
19913,5e-05,8e-05,0.00013,-0.00042,-0.00033,-5e-05,-1e-05,-1e-05,4,2
19914,0,2e-05,0.00033,0.00076,0.00031,0.00017,6e-05,4e-05,4,2
19915,0,2e-05,0.00033,0.00076,0.00031,0.00017,6e-05,4e-05,4,2
19916,0,2e-05,0.00033,0.00076,0.00031,0.00017,6e-05,4e-05,4,2
19917,0,2e-05,0.00033,0.00076,0.00031,0.00017,6e-05,4e-05,4,2
19918,0,2e-05,0.00033,0.00076,0.00031,0.00017,6e-05,4e-05,4,2
19919,0,2e-05,0.00033,0.00076,0.00031,0.00017,6e-05,4e-05,4,2
19920,0,2e-05,0.00033,0.00076,0.00031,0.00017,6e-05,4e-05,4,2
19921,0,2e-05,0.00033,0.00076,0.00031,0.00017,6e-05,4e-05,4,2
19922,-5e-05,-4e-05,0,0.00018,-3e-05,-5e-05,-1e-05,-2e-05,4,2
19923,-6e-05,-8e-05,-0.0002,-0.00103,-8e-05,-0.00011,-9e-05,-7e-05,4,2
19924,-6e-05,-8e-05,-0.0002,-0.00103,-8e-05,-0.00011,-9e-05,-7e-05,4,2
19925,-6e-05,-8e-05,-0.0002,-0.00103,-8e-05,-0.00011,-9e-05,-7e-05,4,2
19926,-6e-05,-8e-05,-0.0002,-0.00103,-8e-05,-0.00011,-9e-05,-7e-05,4,2
19927,-6e-05,-8e-05,-0.0002,-0.00103,-8e-05,-0.00011,-9e-05,-7e-05,4,2
19928,-6e-05,-8e-05,-0.0002,-0.00103,-8e-05,-0.00011,-9e-05,-7e-05,4,2
19929,-6e-05,-8e-05,-0.0002,-0.00103,-8e-05,-0.00011,-9e-05,-7e-05,4,2
19930,-6e-05,-8e-05,-0.0002,-0.00103,-8e-05,-0.00011,-9e-05,-7e-05,4,2
19931,-6e-05,-8e-05,-0.0002,-0.00103,-8e-05,-0.00011,-9e-05,-7e-05,4,2
19932,-6e-05,-8e-05,-0.0002,-0.00103,-8e-05,-0.00011,-9e-05,-7e-05,4,2
19933,-6e-05,-8e-05,-0.0002,-0.00103,-8e-05,-0.00011,-9e-05,-7e-05,4,2
19934,-6e-05,-8e-05,-0.0002,-0.00103,-8e-05,-0.00011,-9e-05,-7e-05,4,2
19935,-6e-05,-8e-05,-0.0002,-0.00103,-8e-05,-0.00011,-9e-05,-7e-05,4,2
19936,-6e-05,-8e-05,-0.0002,-0.00103,-8e-05,-0.00011,-9e-05,-7e-05,4,2
19938,-6e-05,-8e-05,-0.0002,-0.00103,-8e-05,-0.00011,-9e-05,-7e-05,4,2
19939,-6e-05,-8e-05,-0.0002,-0.00103,-8e-05,-0.00011,-9e-05,-7e-05,4,2
19940,-6e-05,-8e-05,-0.0002,-0.00103,-8e-05,-0.00011,-9e-05,-7e-05,4,2
19941,-6e-05,-8e-05,-0.0002,-0.00103,-8e-05,-0.00011,-9e-05,-7e-05,4,2
19942,-6e-05,-8e-05,-0.0002,-0.00103,-8e-05,-0.00011,-9e-05,-7e-05,4,2
19943,-6e-05,-8e-05,-0.0002,-0.00103,-8e-05,-0.00011,-9e-05,-7e-05,4,2
19944,3e-05,6e-05,3e-05,-3e-05,4e-05,-0.00014,-2e-05,0,4,2
19945,3e-05,6e-05,3e-05,-3e-05,4e-05,-0.00014,-2e-05,0,4,2
19946,-3e-05,-3e-05,-0.00011,-0.0002,-0.00092,-0.00029,-0.0001,-6e-05,4,2
19947,-3e-05,-3e-05,-0.00011,-0.0002,-0.00092,-0.00029,-0.0001,-6e-05,4,2
19948,-3e-05,-3e-05,-0.00011,-0.0002,-0.00092,-0.00029,-0.0001,-6e-05,4,2
19949,-3e-05,-3e-05,-0.00011,-0.0002,-0.00092,-0.00029,-0.0001,-6e-05,4,2
19950,-3e-05,-3e-05,-0.00011,-0.0002,-0.00092,-0.00029,-0.0001,-6e-05,4,2
19951,-3e-05,-3e-05,-0.00011,-0.0002,-0.00092,-0.00029,-0.0001,-6e-05,4,2
19952,-3e-05,-3e-05,-0.00011,-0.0002,-0.00092,-0.00029,-0.0001,-6e-05,4,2
19953,-3e-05,-3e-05,-0.00011,-0.0002,-0.00092,-0.00029,-0.0001,-6e-05,4,2
19954,-3e-05,-3e-05,-0.00011,-0.0002,-0.00092,-0.00029,-0.0001,-6e-05,4,2
19955,-3e-05,-3e-05,-0.00011,-0.0002,-0.00092,-0.00029,-0.0001,-6e-05,4,2
19957,-3e-05,-3e-05,-0.00011,-0.0002,-0.00092,-0.00029,-0.0001,-6e-05,4,2
19958,-3e-05,-3e-05,-0.00011,-0.0002,-0.00092,-0.00029,-0.0001,-6e-05,4,2
19959,-3e-05,-5e-05,-0.00016,-0.00062,-4e-05,1e-05,-2e-05,-1e-05,4,2
19960,-3e-05,-5e-05,-0.00016,-0.00062,-4e-05,1e-05,-2e-05,-1e-05,4,2
19961,4e-05,5e-05,-0.00013,-0.00079,-8e-05,2e-05,2e-05,0,4,2
19962,4e-05,5e-05,-0.00013,-0.00079,-8e-05,2e-05,2e-05,0,4,2
19963,4e-05,5e-05,-0.00013,-0.00079,-8e-05,2e-05,2e-05,0,4,2
19964,4e-05,5e-05,-0.00013,-0.00079,-8e-05,2e-05,2e-05,0,4,2
19965,4e-05,5e-05,-0.00013,-0.00079,-8e-05,2e-05,2e-05,0,4,2
19966,4e-05,5e-05,-0.00013,-0.00079,-8e-05,2e-05,2e-05,0,4,2
19967,4e-05,5e-05,-0.00013,-0.00079,-8e-05,2e-05,2e-05,0,4,2
19968,4e-05,5e-05,-0.00013,-0.00079,-8e-05,2e-05,2e-05,0,4,2
19969,4e-05,5e-05,-0.00013,-0.00079,-8e-05,2e-05,2e-05,0,4,2
19970,4e-05,5e-05,-0.00013,-0.00079,-8e-05,2e-05,2e-05,0,4,2
19971,4e-05,5e-05,-0.00013,-0.00079,-8e-05,2e-05,2e-05,0,4,2
19972,4e-05,5e-05,-0.00013,-0.00079,-8e-05,2e-05,2e-05,0,4,2
19973,4e-05,5e-05,-0.00013,-0.00079,-8e-05,2e-05,2e-05,0,4,2
19974,4e-05,5e-05,-0.00013,-0.00079,-8e-05,2e-05,2e-05,0,4,2
19975,4e-05,5e-05,-0.00013,-0.00079,-8e-05,2e-05,2e-05,0,4,2
19976,4e-05,5e-05,-0.00013,-0.00079,-8e-05,2e-05,2e-05,0,4,2
19977,4e-05,5e-05,-0.00013,-0.00079,-8e-05,2e-05,2e-05,0,4,2
19978,4e-05,5e-05,-0.00013,-0.00079,-8e-05,2e-05,2e-05,0,4,2
19979,4e-05,5e-05,-0.00013,-0.00079,-8e-05,2e-05,2e-05,0,4,2
19980,4e-05,5e-05,-0.00013,-0.00079,-8e-05,2e-05,2e-05,0,4,2
19981,4e-05,5e-05,-0.00013,-0.00079,-8e-05,2e-05,2e-05,0,4,2
19982,-4e-05,-2e-05,0.00026,0.00111,0.00028,5e-05,0,-1e-05,4,2
19983,0,-5e-05,-4e-05,-6e-05,-7e-05,6e-05,-5e-05,-4e-05,4,2
19984,0,-5e-05,-4e-05,-6e-05,-7e-05,6e-05,-5e-05,-4e-05,4,2
19985,0,-5e-05,-4e-05,-6e-05,-7e-05,6e-05,-5e-05,-4e-05,4,2
19986,0,-5e-05,-4e-05,-6e-05,-7e-05,6e-05,-5e-05,-4e-05,4,2
19988,0,-5e-05,-4e-05,-6e-05,-7e-05,6e-05,-5e-05,-4e-05,4,2
19989,0,-5e-05,-4e-05,-6e-05,-7e-05,6e-05,-5e-05,-4e-05,4,2
19990,0,-5e-05,-4e-05,-6e-05,-7e-05,6e-05,-5e-05,-4e-05,4,2
19991,0,-5e-05,-4e-05,-6e-05,-7e-05,6e-05,-5e-05,-4e-05,4,2
19992,0,-5e-05,-4e-05,-6e-05,-7e-05,6e-05,-5e-05,-4e-05,4,2
19993,0,-5e-05,-4e-05,-6e-05,-7e-05,6e-05,-5e-05,-4e-05,4,2
19994,0,-5e-05,-4e-05,-6e-05,-7e-05,6e-05,-5e-05,-4e-05,4,2
19995,0,-5e-05,-4e-05,-6e-05,-7e-05,6e-05,-5e-05,-4e-05,4,2
19996,0,-5e-05,-4e-05,-6e-05,-7e-05,6e-05,-5e-05,-4e-05,4,2
19997,0,-5e-05,-4e-05,-6e-05,-7e-05,6e-05,-5e-05,-4e-05,4,2
19998,0,-5e-05,-4e-05,-6e-05,-7e-05,6e-05,-5e-05,-4e-05,4,2
19999,0,-5e-05,-4e-05,-6e-05,-7e-05,6e-05,-5e-05,-4e-05,4,2
20000,0,-5e-05,-4e-05,-6e-05,-7e-05,6e-05,-5e-05,-4e-05,4,2
20001,0,-5e-05,-4e-05,-6e-05,-7e-05,6e-05,-5e-05,-4e-05,4,2
20002,0,-5e-05,-4e-05,-6e-05,-7e-05,6e-05,-5e-05,-4e-05,4,2
20003,0,-5e-05,-4e-05,-6e-05,-7e-05,6e-05,-5e-05,-4e-05,4,2
20004,-4e-05,-1e-05,3e-05,0.0002,0.00026,3e-05,1e-05,0,4,2
20005,-4e-05,-1e-05,3e-05,0.0002,0.00026,3e-05,1e-05,0,4,2
20006,4e-05,9e-05,0.00028,0.00127,-0.00021,1e-05,2e-05,1e-05,4,2
20007,4e-05,9e-05,0.00028,0.00127,-0.00021,1e-05,2e-05,1e-05,4,2
20008,4e-05,9e-05,0.00028,0.00127,-0.00021,1e-05,2e-05,1e-05,4,2
20009,4e-05,9e-05,0.00028,0.00127,-0.00021,1e-05,2e-05,1e-05,4,2
20010,4e-05,9e-05,0.00028,0.00127,-0.00021,1e-05,2e-05,1e-05,4,2
20011,4e-05,9e-05,0.00028,0.00127,-0.00021,1e-05,2e-05,1e-05,4,2
20012,4e-05,9e-05,0.00028,0.00127,-0.00021,1e-05,2e-05,1e-05,4,2
20013,4e-05,9e-05,0.00028,0.00127,-0.00021,1e-05,2e-05,1e-05,4,2
20014,4e-05,9e-05,0.00028,0.00127,-0.00021,1e-05,2e-05,1e-05,4,2
20015,4e-05,9e-05,0.00028,0.00127,-0.00021,1e-05,2e-05,1e-05,4,2
20016,4e-05,9e-05,0.00028,0.00127,-0.00021,1e-05,2e-05,1e-05,4,2
20017,4e-05,9e-05,0.00028,0.00127,-0.00021,1e-05,2e-05,1e-05,4,2
20018,4e-05,9e-05,0.00028,0.00127,-0.00021,1e-05,2e-05,1e-05,4,2
20019,-1e-05,2e-05,0.00017,-0.0002,1e-05,0.00013,2e-05,4e-05,4,2
20020,-1e-05,2e-05,0.00017,-0.0002,1e-05,0.00013,2e-05,4e-05,4,2
20021,-1e-05,2e-05,0.00017,-0.0002,1e-05,0.00013,2e-05,4e-05,4,2
20022,-1e-05,2e-05,0.00017,-0.0002,1e-05,0.00013,2e-05,4e-05,4,2
20023,-1e-05,2e-05,0.00017,-0.0002,1e-05,0.00013,2e-05,4e-05,4,2
20024,-1e-05,2e-05,0.00017,-0.0002,1e-05,0.00013,2e-05,4e-05,4,2
20025,1e-05,5e-05,5e-05,-0.00038,0.00059,4e-05,6e-05,6e-05,4,2
20026,-3e-05,-4e-05,-0.00012,0.00021,-0.00037,-3e-05,-2e-05,-4e-05,4,2
20027,-3e-05,-4e-05,-0.00012,0.00021,-0.00037,-3e-05,-2e-05,-4e-05,4,2
20028,-3e-05,-4e-05,-0.00012,0.00021,-0.00037,-3e-05,-2e-05,-4e-05,4,2
20029,-3e-05,-4e-05,-0.00012,0.00021,-0.00037,-3e-05,-2e-05,-4e-05,4,2
20030,-3e-05,-4e-05,-0.00012,0.00021,-0.00037,-3e-05,-2e-05,-4e-05,4,2
20031,-3e-05,-4e-05,-0.00012,0.00021,-0.00037,-3e-05,-2e-05,-4e-05,4,2
20033,-3e-05,-4e-05,-0.00012,0.00021,-0.00037,-3e-05,-2e-05,-4e-05,4,2
20034,-3e-05,-4e-05,-0.00012,0.00021,-0.00037,-3e-05,-2e-05,-4e-05,4,2
20035,-3e-05,-4e-05,-0.00012,0.00021,-0.00037,-3e-05,-2e-05,-4e-05,4,2
20043,-3e-05,-3e-05,-0.00022,-0.00091,0.00019,0.00031,-2e-05,-8e-05,4,2
20044,-2e-05,-2e-05,0.00028,0.00091,0.00073,-1e-05,4e-05,2e-05,4,2
20045,-2e-05,-2e-05,0.00028,0.00091,0.00073,-1e-05,4e-05,2e-05,4,2
20046,-2e-05,-2e-05,0.00028,0.00091,0.00073,-1e-05,4e-05,2e-05,4,2
20047,-2e-05,-2e-05,0.00028,0.00091,0.00073,-1e-05,4e-05,2e-05,4,2
20048,-2e-05,-2e-05,0.00028,0.00091,0.00073,-1e-05,4e-05,2e-05,4,2
20049,-2e-05,-2e-05,0.00028,0.00091,0.00073,-1e-05,4e-05,2e-05,4,2
20050,-2e-05,-2e-05,0.00028,0.00091,0.00073,-1e-05,4e-05,2e-05,4,2
20051,-2e-05,-2e-05,0.00028,0.00091,0.00073,-1e-05,4e-05,2e-05,4,2
20052,-2e-05,-2e-05,0.00028,0.00091,0.00073,-1e-05,4e-05,2e-05,4,2
20053,-2e-05,-2e-05,0.00028,0.00091,0.00073,-1e-05,4e-05,2e-05,4,2
20054,-2e-05,-2e-05,0.00028,0.00091,0.00073,-1e-05,4e-05,2e-05,4,2
20055,-2e-05,-2e-05,0.00028,0.00091,0.00073,-1e-05,4e-05,2e-05,4,2
20056,-2e-05,-2e-05,0.00028,0.00091,0.00073,-1e-05,4e-05,2e-05,4,2
20057,-2e-05,-2e-05,0.00028,0.00091,0.00073,-1e-05,4e-05,2e-05,4,2
20058,-2e-05,-2e-05,0.00028,0.00091,0.00073,-1e-05,4e-05,2e-05,4,2
20059,-2e-05,-2e-05,0.00028,0.00091,0.00073,-1e-05,4e-05,2e-05,4,2
20060,-2e-05,-2e-05,0.00028,0.00091,0.00073,-1e-05,4e-05,2e-05,4,2
20061,-2e-05,-2e-05,0.00028,0.00091,0.00073,-1e-05,4e-05,2e-05,4,2
20062,-2e-05,-2e-05,0.00028,0.00091,0.00073,-1e-05,4e-05,2e-05,4,2
20063,-2e-05,-2e-05,0.00028,0.00091,0.00073,-1e-05,4e-05,2e-05,4,2
20064,7e-05,8e-05,0,-0.001,-0.00015,0,3e-05,2e-05,4,2
20065,7e-05,8e-05,0,-0.001,-0.00015,0,3e-05,2e-05,4,2
20066,-4e-05,-5e-05,-0.00028,-0.00088,-0.00013,-0.0001,-3e-05,-4e-05,4,2
20067,-4e-05,-5e-05,-0.00028,-0.00088,-0.00013,-0.0001,-3e-05,-4e-05,4,2
20068,-4e-05,-5e-05,-0.00028,-0.00088,-0.00013,-0.0001,-3e-05,-4e-05,4,2
20069,-4e-05,-5e-05,-0.00028,-0.00088,-0.00013,-0.0001,-3e-05,-4e-05,4,2
20070,-4e-05,-5e-05,-0.00028,-0.00088,-0.00013,-0.0001,-3e-05,-4e-05,4,2
20071,-4e-05,-5e-05,-0.00028,-0.00088,-0.00013,-0.0001,-3e-05,-4e-05,4,2
20072,-4e-05,-5e-05,-0.00028,-0.00088,-0.00013,-0.0001,-3e-05,-4e-05,4,2
20073,-4e-05,-5e-05,-0.00028,-0.00088,-0.00013,-0.0001,-3e-05,-4e-05,4,2
20074,-4e-05,-5e-05,-0.00028,-0.00088,-0.00013,-0.0001,-3e-05,-4e-05,4,2
20075,-4e-05,-5e-05,-0.00028,-0.00088,-0.00013,-0.0001,-3e-05,-4e-05,4,2
20076,-4e-05,-5e-05,-0.00028,-0.00088,-0.00013,-0.0001,-3e-05,-4e-05,4,2
20077,-4e-05,-5e-05,-0.00028,-0.00088,-0.00013,-0.0001,-3e-05,-4e-05,4,2
20078,-4e-05,-5e-05,-0.00028,-0.00088,-0.00013,-0.0001,-3e-05,-4e-05,4,2
20079,-1e-05,-3e-05,-0.00016,-8e-05,-0.00015,-7e-05,2e-05,3e-05,4,2
20080,-1e-05,-3e-05,-0.00016,-8e-05,-0.00015,-7e-05,2e-05,3e-05,4,2
20081,-1e-05,-3e-05,-0.00016,-8e-05,-0.00015,-7e-05,2e-05,3e-05,4,2
20082,-1e-05,-3e-05,-0.00016,-8e-05,-0.00015,-7e-05,2e-05,3e-05,4,2
20083,-1e-05,-3e-05,-0.00016,-8e-05,-0.00015,-7e-05,2e-05,3e-05,4,2
20084,-1e-05,-3e-05,-0.00016,-8e-05,-0.00015,-7e-05,2e-05,3e-05,4,2
20085,-8e-05,-0.00011,-0.0003,-0.00055,-0.00055,-0.00015,-0.00011,-8e-05,4,2
20086,-8e-05,-0.00011,-0.0003,-0.00055,-0.00055,-0.00015,-0.00011,-8e-05,4,2
20088,-8e-05,-0.00011,-0.0003,-0.00055,-0.00055,-0.00015,-0.00011,-8e-05,4,2
20089,-8e-05,-0.00011,-0.0003,-0.00055,-0.00055,-0.00015,-0.00011,-8e-05,4,2
20090,-8e-05,-0.00011,-0.0003,-0.00055,-0.00055,-0.00015,-0.00011,-8e-05,4,2
20091,-8e-05,-0.00011,-0.0003,-0.00055,-0.00055,-0.00015,-0.00011,-8e-05,4,2
20092,-8e-05,-0.00011,-0.0003,-0.00055,-0.00055,-0.00015,-0.00011,-8e-05,4,2
20093,-8e-05,-0.00011,-0.0003,-0.00055,-0.00055,-0.00015,-0.00011,-8e-05,4,2
20094,-8e-05,-0.00011,-0.0003,-0.00055,-0.00055,-0.00015,-0.00011,-8e-05,4,2
20095,-8e-05,-0.00011,-0.0003,-0.00055,-0.00055,-0.00015,-0.00011,-8e-05,4,2
20096,-8e-05,-0.00011,-0.0003,-0.00055,-0.00055,-0.00015,-0.00011,-8e-05,4,2
20097,-8e-05,-0.00011,-0.0003,-0.00055,-0.00055,-0.00015,-0.00011,-8e-05,4,2
20098,-8e-05,-0.00011,-0.0003,-0.00055,-0.00055,-0.00015,-0.00011,-8e-05,4,2
20099,-8e-05,-0.00011,-0.0003,-0.00055,-0.00055,-0.00015,-0.00011,-8e-05,4,2
20100,-8e-05,-0.00011,-0.0003,-0.00055,-0.00055,-0.00015,-0.00011,-8e-05,4,2
20101,-8e-05,-0.00011,-0.0003,-0.00055,-0.00055,-0.00015,-0.00011,-8e-05,4,2
20102,-1e-05,2e-05,-5e-05,-0.00077,-6e-05,-0.0001,-1e-05,-1e-05,4,2
20103,2e-05,3e-05,-2e-05,0.0007,0.00014,-6e-05,-3e-05,-1e-05,4,2
20104,2e-05,3e-05,-2e-05,0.0007,0.00014,-6e-05,-3e-05,-1e-05,4,2
20105,2e-05,3e-05,-2e-05,0.0007,0.00014,-6e-05,-3e-05,-1e-05,4,2
20106,2e-05,3e-05,-2e-05,0.0007,0.00014,-6e-05,-3e-05,-1e-05,4,2
20107,2e-05,3e-05,-2e-05,0.0007,0.00014,-6e-05,-3e-05,-1e-05,4,2
20108,2e-05,3e-05,-2e-05,0.0007,0.00014,-6e-05,-3e-05,-1e-05,4,2
20109,2e-05,3e-05,-2e-05,0.0007,0.00014,-6e-05,-3e-05,-1e-05,4,2
20110,2e-05,3e-05,-2e-05,0.0007,0.00014,-6e-05,-3e-05,-1e-05,4,2
20111,2e-05,3e-05,-2e-05,0.0007,0.00014,-6e-05,-3e-05,-1e-05,4,2
20112,2e-05,3e-05,-2e-05,0.0007,0.00014,-6e-05,-3e-05,-1e-05,4,2
20113,2e-05,3e-05,-2e-05,0.0007,0.00014,-6e-05,-3e-05,-1e-05,4,2
20114,2e-05,3e-05,-2e-05,0.0007,0.00014,-6e-05,-3e-05,-1e-05,4,2
20115,2e-05,3e-05,-2e-05,0.0007,0.00014,-6e-05,-3e-05,-1e-05,4,2
20116,2e-05,3e-05,-2e-05,0.0007,0.00014,-6e-05,-3e-05,-1e-05,4,2
20117,2e-05,3e-05,-2e-05,0.0007,0.00014,-6e-05,-3e-05,-1e-05,4,2
20118,2e-05,3e-05,-2e-05,0.0007,0.00014,-6e-05,-3e-05,-1e-05,4,2
20119,2e-05,3e-05,-2e-05,0.0007,0.00014,-6e-05,-3e-05,-1e-05,4,2
20120,2e-05,3e-05,-2e-05,0.0007,0.00014,-6e-05,-3e-05,-1e-05,4,2
20121,2e-05,3e-05,-2e-05,0.0007,0.00014,-6e-05,-3e-05,-1e-05,4,2
20122,2e-05,3e-05,-2e-05,0.0007,0.00014,-6e-05,-3e-05,-1e-05,4,2
20123,2e-05,3e-05,-2e-05,0.0007,0.00014,-6e-05,-3e-05,-1e-05,4,2
20124,2e-05,3e-05,-2e-05,0.0007,0.00014,-6e-05,-3e-05,-1e-05,4,2
20125,1e-05,1e-05,0.00017,0.00104,0.00057,7e-05,-1e-05,-2e-05,4,2
20126,-4e-05,-5e-05,-9e-05,7e-05,0.00012,-6e-05,0,1e-05,4,2
20127,-1e-05,1e-05,-8e-05,-0.00049,-0.00015,3e-05,4e-05,4e-05,4,2
20128,-1e-05,1e-05,-8e-05,-0.00049,-0.00015,3e-05,4e-05,4e-05,4,2
20129,-1e-05,1e-05,-8e-05,-0.00049,-0.00015,3e-05,4e-05,4e-05,4,2
20130,-1e-05,1e-05,-8e-05,-0.00049,-0.00015,3e-05,4e-05,4e-05,4,2
20131,-1e-05,1e-05,-8e-05,-0.00049,-0.00015,3e-05,4e-05,4e-05,4,2
20132,-1e-05,1e-05,-8e-05,-0.00049,-0.00015,3e-05,4e-05,4e-05,4,2
20133,-1e-05,1e-05,-8e-05,-0.00049,-0.00015,3e-05,4e-05,4e-05,4,2
20134,-1e-05,1e-05,-8e-05,-0.00049,-0.00015,3e-05,4e-05,4e-05,4,2
20135,-1e-05,1e-05,-8e-05,-0.00049,-0.00015,3e-05,4e-05,4e-05,4,2
20136,-1e-05,1e-05,-8e-05,-0.00049,-0.00015,3e-05,4e-05,4e-05,4,2
20138,-1e-05,1e-05,-8e-05,-0.00049,-0.00015,3e-05,4e-05,4e-05,4,2
20139,-1e-05,1e-05,-8e-05,-0.00049,-0.00015,3e-05,4e-05,4e-05,4,2
20140,-1e-05,1e-05,-8e-05,-0.00049,-0.00015,3e-05,4e-05,4e-05,4,2
20141,-1e-05,1e-05,-8e-05,-0.00049,-0.00015,3e-05,4e-05,4e-05,4,2
20142,-1e-05,1e-05,-8e-05,-0.00049,-0.00015,3e-05,4e-05,4e-05,4,2
20143,-1e-05,1e-05,-8e-05,-0.00049,-0.00015,3e-05,4e-05,4e-05,4,2
20144,-1e-05,1e-05,-8e-05,-0.00049,-0.00015,3e-05,4e-05,4e-05,4,2
20145,-1e-05,1e-05,-8e-05,-0.00049,-0.00015,3e-05,4e-05,4e-05,4,2
20146,-1e-05,1e-05,-8e-05,-0.00049,-0.00015,3e-05,4e-05,4e-05,4,2
20147,-2e-05,-1e-05,-4e-05,0.00059,0.00021,9e-05,3e-05,3e-05,4,2
20148,-2e-05,-1e-05,-4e-05,0.00059,0.00021,9e-05,3e-05,3e-05,4,2
20149,-2e-05,-1e-05,-4e-05,0.00059,0.00021,9e-05,3e-05,3e-05,4,2
20150,-2e-05,-1e-05,-4e-05,0.00059,0.00021,9e-05,3e-05,3e-05,4,2
20151,-2e-05,-1e-05,-4e-05,0.00059,0.00021,9e-05,3e-05,3e-05,4,2
20152,-2e-05,-1e-05,-4e-05,0.00059,0.00021,9e-05,3e-05,3e-05,4,2
20153,1e-05,2e-05,-0.00016,-0.00086,-0.00095,-0.00032,-0.00011,-6e-05,4,2
20154,1e-05,2e-05,-0.00016,-0.00086,-0.00095,-0.00032,-0.00011,-6e-05,4,2
20155,1e-05,2e-05,-0.00016,-0.00086,-0.00095,-0.00032,-0.00011,-6e-05,4,2
20156,1e-05,2e-05,-0.00016,-0.00086,-0.00095,-0.00032,-0.00011,-6e-05,4,2
20157,1e-05,2e-05,-0.00016,-0.00086,-0.00095,-0.00032,-0.00011,-6e-05,4,2
20158,1e-05,2e-05,-0.00016,-0.00086,-0.00095,-0.00032,-0.00011,-6e-05,4,2
20159,1e-05,2e-05,-0.00016,-0.00086,-0.00095,-0.00032,-0.00011,-6e-05,4,2
20160,1e-05,2e-05,-0.00016,-0.00086,-0.00095,-0.00032,-0.00011,-6e-05,4,2
20161,1e-05,2e-05,-0.00016,-0.00086,-0.00095,-0.00032,-0.00011,-6e-05,4,2
20162,-4e-05,-7e-05,-4e-05,0.00018,8e-05,4e-05,2e-05,0,4,2
20163,-4e-05,-7e-05,-4e-05,0.00018,8e-05,4e-05,2e-05,0,4,2
20164,-4e-05,-7e-05,-4e-05,0.00018,8e-05,4e-05,2e-05,0,4,2
20165,-4e-05,-7e-05,-4e-05,0.00018,8e-05,4e-05,2e-05,0,4,2
20166,-4e-05,-7e-05,-4e-05,0.00018,8e-05,4e-05,2e-05,0,4,2
20167,-4e-05,-7e-05,-4e-05,0.00018,8e-05,4e-05,2e-05,0,4,2
20168,-1e-05,-5e-05,0,1e-05,-0.00035,-8e-05,-7e-05,-6e-05,4,2
20169,-1e-05,-5e-05,0,1e-05,-0.00035,-8e-05,-7e-05,-6e-05,4,2
20170,-1e-05,-5e-05,0,1e-05,-0.00035,-8e-05,-7e-05,-6e-05,4,2
20171,-1e-05,-5e-05,0,1e-05,-0.00035,-8e-05,-7e-05,-6e-05,4,2
20172,-1e-05,-5e-05,0,1e-05,-0.00035,-8e-05,-7e-05,-6e-05,4,2
20173,-1e-05,-5e-05,0,1e-05,-0.00035,-8e-05,-7e-05,-6e-05,4,2
20174,-1e-05,-5e-05,0,1e-05,-0.00035,-8e-05,-7e-05,-6e-05,4,2
20175,-1e-05,-5e-05,0,1e-05,-0.00035,-8e-05,-7e-05,-6e-05,4,2
20176,-1e-05,-5e-05,0,1e-05,-0.00035,-8e-05,-7e-05,-6e-05,4,2
20177,-1e-05,-5e-05,0,1e-05,-0.00035,-8e-05,-7e-05,-6e-05,4,2
20178,-1e-05,-5e-05,0,1e-05,-0.00035,-8e-05,-7e-05,-6e-05,4,2
20179,-1e-05,-5e-05,0,1e-05,-0.00035,-8e-05,-7e-05,-6e-05,4,2
20180,-1e-05,-5e-05,0,1e-05,-0.00035,-8e-05,-7e-05,-6e-05,4,2
20181,-1e-05,-5e-05,0,1e-05,-0.00035,-8e-05,-7e-05,-6e-05,4,2
20182,-1e-05,-5e-05,0,1e-05,-0.00035,-8e-05,-7e-05,-6e-05,4,2
20183,-1e-05,-5e-05,0,1e-05,-0.00035,-8e-05,-7e-05,-6e-05,4,2
20184,-1e-05,-5e-05,0,1e-05,-0.00035,-8e-05,-7e-05,-6e-05,4,2
20185,-1e-05,-5e-05,0,1e-05,-0.00035,-8e-05,-7e-05,-6e-05,4,2
20186,-1e-05,-5e-05,0,1e-05,-0.00035,-8e-05,-7e-05,-6e-05,4,2
20188,-1e-05,-5e-05,0,1e-05,-0.00035,-8e-05,-7e-05,-6e-05,4,2
20189,-1e-05,-5e-05,0,1e-05,-0.00035,-8e-05,-7e-05,-6e-05,4,2
20190,-1e-05,-5e-05,0,1e-05,-0.00035,-8e-05,-7e-05,-6e-05,4,2
20191,-1e-05,-5e-05,0,1e-05,-0.00035,-8e-05,-7e-05,-6e-05,4,2
20192,2e-05,2e-05,-7e-05,-0.00055,-0.00023,4e-05,-1e-05,2e-05,4,2
20193,0,1e-05,0.00029,0.00082,0.00014,2e-05,-3e-05,0,4,2
20194,-2e-05,-2e-05,2e-05,0.00035,0.00013,3e-05,0,-3e-05,4,2
20195,-2e-05,-2e-05,2e-05,0.00035,0.00013,3e-05,0,-3e-05,4,2
20196,-2e-05,-2e-05,2e-05,0.00035,0.00013,3e-05,0,-3e-05,4,2
20197,-2e-05,-2e-05,2e-05,0.00035,0.00013,3e-05,0,-3e-05,4,2
20198,-7e-05,-0.00014,-0.00013,0.0002,-0.00015,6e-05,-3e-05,-6e-05,4,2
20199,-7e-05,-0.00014,-0.00013,0.0002,-0.00015,6e-05,-3e-05,-6e-05,4,2
20200,-7e-05,-0.00014,-0.00013,0.0002,-0.00015,6e-05,-3e-05,-6e-05,4,2
20201,-7e-05,-0.00014,-0.00013,0.0002,-0.00015,6e-05,-3e-05,-6e-05,4,2
20202,-7e-05,-0.00014,-0.00013,0.0002,-0.00015,6e-05,-3e-05,-6e-05,4,2
20203,-7e-05,-0.00014,-0.00013,0.0002,-0.00015,6e-05,-3e-05,-6e-05,4,2
20204,-7e-05,-0.00014,-0.00013,0.0002,-0.00015,6e-05,-3e-05,-6e-05,4,2
20205,-7e-05,-0.00014,-0.00013,0.0002,-0.00015,6e-05,-3e-05,-6e-05,4,2
20206,-7e-05,-0.00014,-0.00013,0.0002,-0.00015,6e-05,-3e-05,-6e-05,4,2
20207,-7e-05,-0.00014,-0.00013,0.0002,-0.00015,6e-05,-3e-05,-6e-05,4,2
20208,-7e-05,-0.00014,-0.00013,0.0002,-0.00015,6e-05,-3e-05,-6e-05,4,2
20209,-7e-05,-0.00014,-0.00013,0.0002,-0.00015,6e-05,-3e-05,-6e-05,4,2
20210,-7e-05,-0.00014,-0.00013,0.0002,-0.00015,6e-05,-3e-05,-6e-05,4,2
20211,-7e-05,-0.00014,-0.00013,0.0002,-0.00015,6e-05,-3e-05,-6e-05,4,2
20212,-7e-05,-0.00014,-0.00013,0.0002,-0.00015,6e-05,-3e-05,-6e-05,4,2
20213,-7e-05,-0.00014,-0.00013,0.0002,-0.00015,6e-05,-3e-05,-6e-05,4,2
20214,7e-05,9e-05,9e-05,-0.00048,0.0002,0.00019,6e-05,3e-05,4,2
20215,7e-05,9e-05,9e-05,-0.00048,0.0002,0.00019,6e-05,3e-05,4,2
20216,7e-05,9e-05,9e-05,-0.00048,0.0002,0.00019,6e-05,3e-05,4,2
20217,7e-05,9e-05,9e-05,-0.00048,0.0002,0.00019,6e-05,3e-05,4,2
20218,7e-05,9e-05,9e-05,-0.00048,0.0002,0.00019,6e-05,3e-05,4,2
20219,7e-05,9e-05,9e-05,-0.00048,0.0002,0.00019,6e-05,3e-05,4,2
20220,7e-05,9e-05,9e-05,-0.00048,0.0002,0.00019,6e-05,3e-05,4,2
20221,7e-05,9e-05,9e-05,-0.00048,0.0002,0.00019,6e-05,3e-05,4,2
20222,8e-05,0.0001,0.00013,-0.00026,0.00085,0.0002,0.0001,6e-05,4,2
20223,3e-05,0.0001,0.00029,0.00083,0.00025,4e-05,4e-05,2e-05,4,2
20224,3e-05,0.0001,0.00029,0.00083,0.00025,4e-05,4e-05,2e-05,4,2
20225,3e-05,0.0001,0.00029,0.00083,0.00025,4e-05,4e-05,2e-05,4,2
20226,3e-05,0.0001,0.00029,0.00083,0.00025,4e-05,4e-05,2e-05,4,2
20227,3e-05,0.0001,0.00029,0.00083,0.00025,4e-05,4e-05,2e-05,4,2
20228,3e-05,0.0001,0.00029,0.00083,0.00025,4e-05,4e-05,2e-05,4,2
20229,3e-05,0.0001,0.00029,0.00083,0.00025,4e-05,4e-05,2e-05,4,2
20230,3e-05,0.0001,0.00029,0.00083,0.00025,4e-05,4e-05,2e-05,4,2
20231,3e-05,0.0001,0.00029,0.00083,0.00025,4e-05,4e-05,2e-05,4,2
20232,3e-05,0.0001,0.00029,0.00083,0.00025,4e-05,4e-05,2e-05,4,2
20233,3e-05,0.0001,0.00029,0.00083,0.00025,4e-05,4e-05,2e-05,4,2
20234,3e-05,0.0001,0.00029,0.00083,0.00025,4e-05,4e-05,2e-05,4,2
20235,3e-05,0.0001,0.00029,0.00083,0.00025,4e-05,4e-05,2e-05,4,2
20236,3e-05,0.0001,0.00029,0.00083,0.00025,4e-05,4e-05,2e-05,4,2
20238,3e-05,0.0001,0.00029,0.00083,0.00025,4e-05,4e-05,2e-05,4,2
20239,3e-05,0.0001,0.00029,0.00083,0.00025,4e-05,4e-05,2e-05,4,2
20240,3e-05,0.0001,0.00029,0.00083,0.00025,4e-05,4e-05,2e-05,4,2
20241,3e-05,0.0001,0.00029,0.00083,0.00025,4e-05,4e-05,2e-05,4,2
20242,3e-05,0.0001,0.00029,0.00083,0.00025,4e-05,4e-05,2e-05,4,2
20243,3e-05,0.0001,0.00029,0.00083,0.00025,4e-05,4e-05,2e-05,4,2
20244,-6e-05,-3e-05,0.00013,0.00019,6e-05,-0.00013,-6e-05,-4e-05,4,2
20245,-6e-05,-3e-05,0.00013,0.00019,6e-05,-0.00013,-6e-05,-4e-05,4,2
20246,-4e-05,-4e-05,0.00016,0.00058,0.00026,0.00011,2e-05,-1e-05,4,2
20247,-4e-05,-4e-05,0.00016,0.00058,0.00026,0.00011,2e-05,-1e-05,4,2
20248,-4e-05,-4e-05,0.00016,0.00058,0.00026,0.00011,2e-05,-1e-05,4,2
20249,-4e-05,-4e-05,0.00016,0.00058,0.00026,0.00011,2e-05,-1e-05,4,2
20250,-4e-05,-4e-05,0.00016,0.00058,0.00026,0.00011,2e-05,-1e-05,4,2
20251,-4e-05,-4e-05,0.00016,0.00058,0.00026,0.00011,2e-05,-1e-05,4,2
20252,-4e-05,-4e-05,0.00016,0.00058,0.00026,0.00011,2e-05,-1e-05,4,2
20253,-4e-05,-4e-05,0.00016,0.00058,0.00026,0.00011,2e-05,-1e-05,4,2
20254,-4e-05,-4e-05,0.00016,0.00058,0.00026,0.00011,2e-05,-1e-05,4,2
20255,-4e-05,-4e-05,0.00016,0.00058,0.00026,0.00011,2e-05,-1e-05,4,2
20256,-4e-05,-4e-05,0.00016,0.00058,0.00026,0.00011,2e-05,-1e-05,4,2
20257,-4e-05,-4e-05,0.00016,0.00058,0.00026,0.00011,2e-05,-1e-05,4,2
20258,-3e-05,-6e-05,-7e-05,-0.00017,0.00017,9e-05,-3e-05,-4e-05,4,2
20259,7e-05,6e-05,2e-05,0.00018,-0.00013,-6e-05,3e-05,3e-05,4,2
20260,7e-05,6e-05,2e-05,0.00018,-0.00013,-6e-05,3e-05,3e-05,4,2
20261,7e-05,6e-05,2e-05,0.00018,-0.00013,-6e-05,3e-05,3e-05,4,2
20262,7e-05,6e-05,2e-05,0.00018,-0.00013,-6e-05,3e-05,3e-05,4,2
20263,7e-05,6e-05,2e-05,0.00018,-0.00013,-6e-05,3e-05,3e-05,4,2
20264,7e-05,6e-05,2e-05,0.00018,-0.00013,-6e-05,3e-05,3e-05,4,2
20265,1e-05,2e-05,-9e-05,-0.00084,-0.00054,-0.00016,-5e-05,-4e-05,4,2
20266,1e-05,2e-05,-9e-05,-0.00084,-0.00054,-0.00016,-5e-05,-4e-05,4,2
20267,1e-05,2e-05,-9e-05,-0.00084,-0.00054,-0.00016,-5e-05,-4e-05,4,2
20268,1e-05,2e-05,-9e-05,-0.00084,-0.00054,-0.00016,-5e-05,-4e-05,4,2
20269,1e-05,2e-05,-9e-05,-0.00084,-0.00054,-0.00016,-5e-05,-4e-05,4,2
20270,1e-05,2e-05,-9e-05,-0.00084,-0.00054,-0.00016,-5e-05,-4e-05,4,2
20271,1e-05,2e-05,-9e-05,-0.00084,-0.00054,-0.00016,-5e-05,-4e-05,4,2
20272,1e-05,2e-05,-9e-05,-0.00084,-0.00054,-0.00016,-5e-05,-4e-05,4,2
20273,1e-05,2e-05,-9e-05,-0.00084,-0.00054,-0.00016,-5e-05,-4e-05,4,2
20274,1e-05,2e-05,-9e-05,-0.00084,-0.00054,-0.00016,-5e-05,-4e-05,4,2
20275,1e-05,2e-05,-9e-05,-0.00084,-0.00054,-0.00016,-5e-05,-4e-05,4,2
20276,1e-05,2e-05,-9e-05,-0.00084,-0.00054,-0.00016,-5e-05,-4e-05,4,2
20277,1e-05,2e-05,-9e-05,-0.00084,-0.00054,-0.00016,-5e-05,-4e-05,4,2
20278,1e-05,2e-05,-9e-05,-0.00084,-0.00054,-0.00016,-5e-05,-4e-05,4,2
20279,1e-05,2e-05,-9e-05,-0.00084,-0.00054,-0.00016,-5e-05,-4e-05,4,2
20280,1e-05,2e-05,-9e-05,-0.00084,-0.00054,-0.00016,-5e-05,-4e-05,4,2
20281,1e-05,2e-05,-9e-05,-0.00084,-0.00054,-0.00016,-5e-05,-4e-05,4,2
20282,-1e-05,2e-05,0,-0.00034,-0.00069,-0.00011,-7e-05,-6e-05,4,2
20283,-7e-05,-8e-05,-6e-05,0.0003,0.00037,9e-05,2e-05,0,4,2
20284,-7e-05,-8e-05,-6e-05,0.0003,0.00037,9e-05,2e-05,0,4,2
20285,-7e-05,-8e-05,-6e-05,0.0003,0.00037,9e-05,2e-05,0,4,2
20286,-7e-05,-8e-05,-6e-05,0.0003,0.00037,9e-05,2e-05,0,4,2
20288,-7e-05,-8e-05,-6e-05,0.0003,0.00037,9e-05,2e-05,0,4,2
20289,-7e-05,-8e-05,-6e-05,0.0003,0.00037,9e-05,2e-05,0,4,2
20290,-7e-05,-8e-05,-6e-05,0.0003,0.00037,9e-05,2e-05,0,4,2
20291,-7e-05,-8e-05,-6e-05,0.0003,0.00037,9e-05,2e-05,0,4,2
20292,-7e-05,-8e-05,-6e-05,0.0003,0.00037,9e-05,2e-05,0,4,2
20293,-7e-05,-8e-05,-6e-05,0.0003,0.00037,9e-05,2e-05,0,4,2
20294,-7e-05,-8e-05,-6e-05,0.0003,0.00037,9e-05,2e-05,0,4,2
20295,-7e-05,-8e-05,-6e-05,0.0003,0.00037,9e-05,2e-05,0,4,2
20296,-7e-05,-8e-05,-6e-05,0.0003,0.00037,9e-05,2e-05,0,4,2
20297,-7e-05,-8e-05,-6e-05,0.0003,0.00037,9e-05,2e-05,0,4,2
20298,-7e-05,-8e-05,-6e-05,0.0003,0.00037,9e-05,2e-05,0,4,2
20299,-7e-05,-8e-05,-6e-05,0.0003,0.00037,9e-05,2e-05,0,4,2
20300,-7e-05,-8e-05,-6e-05,0.0003,0.00037,9e-05,2e-05,0,4,2
20301,-7e-05,-8e-05,-6e-05,0.0003,0.00037,9e-05,2e-05,0,4,2
20302,-7e-05,-8e-05,-6e-05,0.0003,0.00037,9e-05,2e-05,0,4,2
20303,-7e-05,-8e-05,-6e-05,0.0003,0.00037,9e-05,2e-05,0,4,2
20304,-2e-05,-2e-05,-4e-05,0,0.0003,-1e-05,-2e-05,0,4,2
20305,-2e-05,-2e-05,-4e-05,0,0.0003,-1e-05,-2e-05,0,4,2
20306,-7e-05,-0.00015,-0.00026,-0.0001,0.00019,-0.0003,-0.00011,-5e-05,4,2
20307,-7e-05,-0.00015,-0.00026,-0.0001,0.00019,-0.0003,-0.00011,-5e-05,4,2
20308,-7e-05,-0.00015,-0.00026,-0.0001,0.00019,-0.0003,-0.00011,-5e-05,4,2
20309,-7e-05,-0.00015,-0.00026,-0.0001,0.00019,-0.0003,-0.00011,-5e-05,4,2
20310,-7e-05,-0.00015,-0.00026,-0.0001,0.00019,-0.0003,-0.00011,-5e-05,4,2
20311,-7e-05,-0.00015,-0.00026,-0.0001,0.00019,-0.0003,-0.00011,-5e-05,4,2
20312,-7e-05,-0.00015,-0.00026,-0.0001,0.00019,-0.0003,-0.00011,-5e-05,4,2
20313,-7e-05,-0.00015,-0.00026,-0.0001,0.00019,-0.0003,-0.00011,-5e-05,4,2
20314,-7e-05,-0.00015,-0.00026,-0.0001,0.00019,-0.0003,-0.00011,-5e-05,4,2
20315,-7e-05,-0.00015,-0.00026,-0.0001,0.00019,-0.0003,-0.00011,-5e-05,4,2
20316,-7e-05,-0.00015,-0.00026,-0.0001,0.00019,-0.0003,-0.00011,-5e-05,4,2
20317,-7e-05,-0.00015,-0.00026,-0.0001,0.00019,-0.0003,-0.00011,-5e-05,4,2
20318,2e-05,2e-05,9e-05,0.0009,0.0009,0.00034,0.00011,5e-05,4,2
20319,2e-05,2e-05,9e-05,0.0009,0.0009,0.00034,0.00011,5e-05,4,2
20320,2e-05,2e-05,9e-05,0.0009,0.0009,0.00034,0.00011,5e-05,4,2
20321,2e-05,2e-05,9e-05,0.0009,0.0009,0.00034,0.00011,5e-05,4,2
20322,2e-05,2e-05,9e-05,0.0009,0.0009,0.00034,0.00011,5e-05,4,2
20323,2e-05,2e-05,9e-05,0.0009,0.0009,0.00034,0.00011,5e-05,4,2
20324,2e-05,2e-05,9e-05,0.0009,0.0009,0.00034,0.00011,5e-05,4,2
20325,2e-05,2e-05,9e-05,0.0009,0.0009,0.00034,0.00011,5e-05,4,2
20326,2e-05,2e-05,9e-05,0.0009,0.0009,0.00034,0.00011,5e-05,4,2
20327,-5e-05,-9e-05,-0.0001,-0.00031,3e-05,-5e-05,5e-05,7e-05,4,2
20328,-5e-05,-9e-05,-0.0001,-0.00031,3e-05,-5e-05,5e-05,7e-05,4,2
20329,-5e-05,-9e-05,-0.0001,-0.00031,3e-05,-5e-05,5e-05,7e-05,4,2
20330,-5e-05,-9e-05,-0.0001,-0.00031,3e-05,-5e-05,5e-05,7e-05,4,2
20331,-5e-05,-9e-05,-0.0001,-0.00031,3e-05,-5e-05,5e-05,7e-05,4,2
20332,-5e-05,-9e-05,-0.0001,-0.00031,3e-05,-5e-05,5e-05,7e-05,4,2
20333,-5e-05,-9e-05,-0.0001,-0.00031,3e-05,-5e-05,5e-05,7e-05,4,2
20334,-5e-05,-9e-05,-0.0001,-0.00031,3e-05,-5e-05,5e-05,7e-05,4,2
20335,-5e-05,-9e-05,-0.0001,-0.00031,3e-05,-5e-05,5e-05,7e-05,4,2
20336,-5e-05,-9e-05,-0.0001,-0.00031,3e-05,-5e-05,5e-05,7e-05,4,2
20338,-5e-05,-9e-05,-0.0001,-0.00031,3e-05,-5e-05,5e-05,7e-05,4,2
20339,-5e-05,-9e-05,-0.0001,-0.00031,3e-05,-5e-05,5e-05,7e-05,4,2
20340,-5e-05,-9e-05,-0.0001,-0.00031,3e-05,-5e-05,5e-05,7e-05,4,2
20341,-5e-05,-9e-05,-0.0001,-0.00031,3e-05,-5e-05,5e-05,7e-05,4,2
20342,-4e-05,-4e-05,-5e-05,-0.00026,-0.00042,-0.00019,-6e-05,-4e-05,4,2
20343,1e-05,8e-05,0.00023,0.00037,-0.00014,3e-05,-4e-05,-1e-05,4,2
20344,1e-05,8e-05,0.00023,0.00037,-0.00014,3e-05,-4e-05,-1e-05,4,2
20345,1e-05,8e-05,0.00023,0.00037,-0.00014,3e-05,-4e-05,-1e-05,4,2
20346,1e-05,8e-05,0.00023,0.00037,-0.00014,3e-05,-4e-05,-1e-05,4,2
20347,1e-05,8e-05,0.00023,0.00037,-0.00014,3e-05,-4e-05,-1e-05,4,2
20348,1e-05,8e-05,0.00023,0.00037,-0.00014,3e-05,-4e-05,-1e-05,4,2
20349,1e-05,8e-05,0.00023,0.00037,-0.00014,3e-05,-4e-05,-1e-05,4,2
20350,1e-05,8e-05,0.00023,0.00037,-0.00014,3e-05,-4e-05,-1e-05,4,2
20351,1e-05,8e-05,0.00023,0.00037,-0.00014,3e-05,-4e-05,-1e-05,4,2
20352,1e-05,8e-05,0.00023,0.00037,-0.00014,3e-05,-4e-05,-1e-05,4,2
20353,1e-05,8e-05,0.00023,0.00037,-0.00014,3e-05,-4e-05,-1e-05,4,2
20354,1e-05,8e-05,0.00023,0.00037,-0.00014,3e-05,-4e-05,-1e-05,4,2
20355,1e-05,8e-05,0.00023,0.00037,-0.00014,3e-05,-4e-05,-1e-05,4,2
20356,1e-05,8e-05,0.00023,0.00037,-0.00014,3e-05,-4e-05,-1e-05,4,2
20357,1e-05,8e-05,0.00023,0.00037,-0.00014,3e-05,-4e-05,-1e-05,4,2
20358,1e-05,8e-05,0.00023,0.00037,-0.00014,3e-05,-4e-05,-1e-05,4,2
20359,1e-05,8e-05,0.00023,0.00037,-0.00014,3e-05,-4e-05,-1e-05,4,2
20360,1e-05,8e-05,0.00023,0.00037,-0.00014,3e-05,-4e-05,-1e-05,4,2
20361,1e-05,8e-05,0.00023,0.00037,-0.00014,3e-05,-4e-05,-1e-05,4,2
20362,1e-05,8e-05,0.00023,0.00037,-0.00014,3e-05,-4e-05,-1e-05,4,2
20363,1e-05,8e-05,0.00023,0.00037,-0.00014,3e-05,-4e-05,-1e-05,4,2
20364,-4e-05,-6e-05,-2e-05,-5e-05,-2e-05,-3e-05,-1e-05,-1e-05,4,2
20365,-4e-05,-6e-05,-2e-05,-5e-05,-2e-05,-3e-05,-1e-05,-1e-05,4,2
20366,-3e-05,-6e-05,-0.00026,-0.00039,-0.00016,9e-05,2e-05,1e-05,4,2
20367,-3e-05,-6e-05,-0.00026,-0.00039,-0.00016,9e-05,2e-05,1e-05,4,2
20368,-3e-05,-6e-05,-0.00026,-0.00039,-0.00016,9e-05,2e-05,1e-05,4,2
20369,-3e-05,-6e-05,-0.00026,-0.00039,-0.00016,9e-05,2e-05,1e-05,4,2
20370,-3e-05,-6e-05,-0.00026,-0.00039,-0.00016,9e-05,2e-05,1e-05,4,2
20371,-3e-05,-6e-05,-0.00026,-0.00039,-0.00016,9e-05,2e-05,1e-05,4,2
20372,-3e-05,-6e-05,-0.00026,-0.00039,-0.00016,9e-05,2e-05,1e-05,4,2
20373,-3e-05,-6e-05,-0.00026,-0.00039,-0.00016,9e-05,2e-05,1e-05,4,2
20374,-3e-05,-6e-05,-0.00026,-0.00039,-0.00016,9e-05,2e-05,1e-05,4,2
20375,-3e-05,-6e-05,-0.00026,-0.00039,-0.00016,9e-05,2e-05,1e-05,4,2
20376,-3e-05,-6e-05,-0.00026,-0.00039,-0.00016,9e-05,2e-05,1e-05,4,2
20377,-3e-05,-6e-05,-0.00026,-0.00039,-0.00016,9e-05,2e-05,1e-05,4,2
20378,-2e-05,-2e-05,-5e-05,3e-05,5e-05,-2e-05,-2e-05,3e-05,4,2
20379,-2e-05,-2e-05,-5e-05,3e-05,5e-05,-2e-05,-2e-05,3e-05,4,2
20380,-2e-05,-2e-05,-5e-05,3e-05,5e-05,-2e-05,-2e-05,3e-05,4,2
20381,-2e-05,-2e-05,-5e-05,3e-05,5e-05,-2e-05,-2e-05,3e-05,4,2
20382,-2e-05,-2e-05,-5e-05,3e-05,5e-05,-2e-05,-2e-05,3e-05,4,2
20383,-2e-05,-2e-05,-5e-05,3e-05,5e-05,-2e-05,-2e-05,3e-05,4,2
20384,-2e-05,-2e-05,-5e-05,3e-05,5e-05,-2e-05,-2e-05,3e-05,4,2
20385,-2e-05,-2e-05,-5e-05,3e-05,5e-05,-2e-05,-2e-05,3e-05,4,2
20387,7e-05,9e-05,0.00028,0.00025,-0.00022,5e-05,6e-05,5e-05,4,2
20389,7e-05,9e-05,0.00028,0.00025,-0.00022,5e-05,6e-05,5e-05,4,2
20390,7e-05,9e-05,0.00028,0.00025,-0.00022,5e-05,6e-05,5e-05,4,2
20391,7e-05,9e-05,0.00028,0.00025,-0.00022,5e-05,6e-05,5e-05,4,2
20392,7e-05,9e-05,0.00028,0.00025,-0.00022,5e-05,6e-05,5e-05,4,2
20393,7e-05,9e-05,0.00028,0.00025,-0.00022,5e-05,6e-05,5e-05,4,2
20394,7e-05,9e-05,0.00028,0.00025,-0.00022,5e-05,6e-05,5e-05,4,2
20395,7e-05,9e-05,0.00028,0.00025,-0.00022,5e-05,6e-05,5e-05,4,2
20396,7e-05,9e-05,0.00028,0.00025,-0.00022,5e-05,6e-05,5e-05,4,2
20397,7e-05,9e-05,0.00028,0.00025,-0.00022,5e-05,6e-05,5e-05,4,2
20398,7e-05,9e-05,0.00028,0.00025,-0.00022,5e-05,6e-05,5e-05,4,2
20399,7e-05,9e-05,0.00028,0.00025,-0.00022,5e-05,6e-05,5e-05,4,2
20400,7e-05,9e-05,0.00028,0.00025,-0.00022,5e-05,6e-05,5e-05,4,2
20401,7e-05,9e-05,0.00028,0.00025,-0.00022,5e-05,6e-05,5e-05,4,2
20402,-1e-05,-7e-05,-0.00022,-0.00043,-0.00024,-5e-05,-2e-05,-4e-05,4,2
20403,-1e-05,-7e-05,-0.00022,-0.00043,-0.00024,-5e-05,-2e-05,-4e-05,4,2
20404,0,0,0,0.00017,0.00039,0,4e-05,2e-05,4,2
20405,0,0,0,0.00017,0.00039,0,4e-05,2e-05,4,2
20406,0,0,0,0.00017,0.00039,0,4e-05,2e-05,4,2
20407,0,0,0,0.00017,0.00039,0,4e-05,2e-05,4,2
20408,0,0,0,0.00017,0.00039,0,4e-05,2e-05,4,2
20409,0,0,0,0.00017,0.00039,0,4e-05,2e-05,4,2
20410,0,0,0,0.00017,0.00039,0,4e-05,2e-05,4,2
20411,0,0,0,0.00017,0.00039,0,4e-05,2e-05,4,2
20412,0,0,0,0.00017,0.00039,0,4e-05,2e-05,4,2
20413,0,0,0,0.00017,0.00039,0,4e-05,2e-05,4,2
20414,0,0,0,0.00017,0.00039,0,4e-05,2e-05,4,2
20415,0,0,0,0.00017,0.00039,0,4e-05,2e-05,4,2
20416,0,0,0,0.00017,0.00039,0,4e-05,2e-05,4,2
20417,0,0,0,0.00017,0.00039,0,4e-05,2e-05,4,2
20418,0,0,0,0.00017,0.00039,0,4e-05,2e-05,4,2
20419,0,0,0,0.00017,0.00039,0,4e-05,2e-05,4,2
20420,0,0,0,0.00017,0.00039,0,4e-05,2e-05,4,2
20421,0,0,0,0.00017,0.00039,0,4e-05,2e-05,4,2
20422,0,0,0,0.00017,0.00039,0,4e-05,2e-05,4,2
20423,0,0,0,0.00017,0.00039,0,4e-05,2e-05,4,2
20424,3e-05,6e-05,0.00016,0.00083,0.00061,0.0002,0.00013,9e-05,4,2
20425,3e-05,6e-05,0.00016,0.00083,0.00061,0.0002,0.00013,9e-05,4,2
20426,3e-05,6e-05,0.00016,0.00083,0.00061,0.0002,0.00013,9e-05,4,2
20427,3e-05,6e-05,0.00016,0.00083,0.00061,0.0002,0.00013,9e-05,4,2
20428,3e-05,6e-05,0.00016,0.00083,0.00061,0.0002,0.00013,9e-05,4,2
20429,3e-05,6e-05,0.00016,0.00083,0.00061,0.0002,0.00013,9e-05,4,2
20430,1e-05,0,-0.00013,-0.00069,-6e-05,4e-05,1e-05,-4e-05,4,2
20431,1e-05,0,-0.00013,-0.00069,-6e-05,4e-05,1e-05,-4e-05,4,2
20432,1e-05,0,-0.00013,-0.00069,-6e-05,4e-05,1e-05,-4e-05,4,2
20433,1e-05,0,-0.00013,-0.00069,-6e-05,4e-05,1e-05,-4e-05,4,2
20434,1e-05,0,-0.00013,-0.00069,-6e-05,4e-05,1e-05,-4e-05,4,2
20435,1e-05,0,-0.00013,-0.00069,-6e-05,4e-05,1e-05,-4e-05,4,2
20436,1e-05,0,-0.00013,-0.00069,-6e-05,4e-05,1e-05,-4e-05,4,2
20439,1e-05,0,-0.00013,-0.00069,-6e-05,4e-05,1e-05,-4e-05,4,2
20440,1e-05,0,-0.00013,-0.00069,-6e-05,4e-05,1e-05,-4e-05,4,2
20441,1e-05,0,-0.00013,-0.00069,-6e-05,4e-05,1e-05,-4e-05,4,2
20442,1e-05,0,-0.00013,-0.00069,-6e-05,4e-05,1e-05,-4e-05,4,2
20443,1e-05,0,-0.00013,-0.00069,-6e-05,4e-05,1e-05,-4e-05,4,2
20444,1e-05,0,-0.00013,-0.00069,-6e-05,4e-05,1e-05,-4e-05,4,2
20445,1e-05,0,-0.00013,-0.00069,-6e-05,4e-05,1e-05,-4e-05,4,2
20446,1e-05,0,-0.00013,-0.00069,-6e-05,4e-05,1e-05,-4e-05,4,2
20447,-3e-05,-6e-05,-9e-05,-0.0003,-3e-05,0,-8e-05,-4e-05,4,2
20448,-1e-05,-5e-05,-0.00019,-0.00041,-0.00018,2e-05,-8e-05,-3e-05,4,2
20449,-1e-05,-5e-05,-0.00019,-0.00041,-0.00018,2e-05,-8e-05,-3e-05,4,2
20450,-1e-05,-5e-05,-0.00019,-0.00041,-0.00018,2e-05,-8e-05,-3e-05,4,2
20451,-1e-05,-5e-05,-0.00019,-0.00041,-0.00018,2e-05,-8e-05,-3e-05,4,2
20452,-1e-05,-5e-05,-0.00019,-0.00041,-0.00018,2e-05,-8e-05,-3e-05,4,2
20453,-1e-05,-5e-05,-0.00019,-0.00041,-0.00018,2e-05,-8e-05,-3e-05,4,2
20454,-1e-05,-5e-05,-0.00019,-0.00041,-0.00018,2e-05,-8e-05,-3e-05,4,2
20455,-1e-05,-5e-05,-0.00019,-0.00041,-0.00018,2e-05,-8e-05,-3e-05,4,2
20456,-1e-05,-5e-05,-0.00019,-0.00041,-0.00018,2e-05,-8e-05,-3e-05,4,2
20457,-1e-05,-5e-05,-0.00019,-0.00041,-0.00018,2e-05,-8e-05,-3e-05,4,2
20458,-1e-05,-5e-05,-0.00019,-0.00041,-0.00018,2e-05,-8e-05,-3e-05,4,2
20459,-1e-05,-5e-05,-0.00019,-0.00041,-0.00018,2e-05,-8e-05,-3e-05,4,2
20460,-1e-05,-5e-05,-0.00019,-0.00041,-0.00018,2e-05,-8e-05,-3e-05,4,2
20461,-1e-05,-5e-05,-0.00019,-0.00041,-0.00018,2e-05,-8e-05,-3e-05,4,2
20462,-1e-05,-5e-05,-0.00019,-0.00041,-0.00018,2e-05,-8e-05,-3e-05,4,2
20463,2e-05,4e-05,4e-05,-3e-05,-0.00068,-0.0001,-5e-05,-7e-05,4,2
20464,2e-05,4e-05,4e-05,-3e-05,-0.00068,-0.0001,-5e-05,-7e-05,4,2
20465,2e-05,4e-05,4e-05,-3e-05,-0.00068,-0.0001,-5e-05,-7e-05,4,2
20466,2e-05,4e-05,4e-05,-3e-05,-0.00068,-0.0001,-5e-05,-7e-05,4,2
20467,2e-05,4e-05,4e-05,-3e-05,-0.00068,-0.0001,-5e-05,-7e-05,4,2
20468,-1e-05,-3e-05,-0.0001,-0.00037,-0.00078,-0.00013,-0.00011,-9e-05,4,2
20469,-1e-05,-3e-05,-0.0001,-0.00037,-0.00078,-0.00013,-0.00011,-9e-05,4,2
20470,-1e-05,-3e-05,-0.0001,-0.00037,-0.00078,-0.00013,-0.00011,-9e-05,4,2
20471,-1e-05,-3e-05,-0.0001,-0.00037,-0.00078,-0.00013,-0.00011,-9e-05,4,2
20472,-1e-05,-3e-05,-0.0001,-0.00037,-0.00078,-0.00013,-0.00011,-9e-05,4,2
20473,-1e-05,-3e-05,-0.0001,-0.00037,-0.00078,-0.00013,-0.00011,-9e-05,4,2
20474,-1e-05,-3e-05,-0.0001,-0.00037,-0.00078,-0.00013,-0.00011,-9e-05,4,2
20475,-1e-05,-3e-05,-0.0001,-0.00037,-0.00078,-0.00013,-0.00011,-9e-05,4,2
20476,-1e-05,-3e-05,-0.0001,-0.00037,-0.00078,-0.00013,-0.00011,-9e-05,4,2
20477,-1e-05,-3e-05,-0.0001,-0.00037,-0.00078,-0.00013,-0.00011,-9e-05,4,2
20478,-1e-05,-3e-05,-0.0001,-0.00037,-0.00078,-0.00013,-0.00011,-9e-05,4,2
20479,-1e-05,-3e-05,-0.0001,-0.00037,-0.00078,-0.00013,-0.00011,-9e-05,4,2
20480,-1e-05,-3e-05,-0.0001,-0.00037,-0.00078,-0.00013,-0.00011,-9e-05,4,2
20481,-1e-05,-3e-05,-0.0001,-0.00037,-0.00078,-0.00013,-0.00011,-9e-05,4,2
20482,-1e-05,-3e-05,-0.0001,-0.00037,-0.00078,-0.00013,-0.00011,-9e-05,4,2
20483,-1e-05,-3e-05,-0.0001,-0.00037,-0.00078,-0.00013,-0.00011,-9e-05,4,2
20484,-1e-05,-3e-05,-0.0001,-0.00037,-0.00078,-0.00013,-0.00011,-9e-05,4,2
20485,-1e-05,-3e-05,-0.0001,-0.00037,-0.00078,-0.00013,-0.00011,-9e-05,4,2
20486,-1e-05,-3e-05,-0.0001,-0.00037,-0.00078,-0.00013,-0.00011,-9e-05,4,2
20489,-1e-05,-3e-05,-0.0001,-0.00037,-0.00078,-0.00013,-0.00011,-9e-05,4,2
20490,-1e-05,-3e-05,-0.0001,-0.00037,-0.00078,-0.00013,-0.00011,-9e-05,4,2
20491,-1e-05,-3e-05,-0.0001,-0.00037,-0.00078,-0.00013,-0.00011,-9e-05,4,2
20492,-4e-05,-3e-05,-1e-05,-0.0002,-0.00021,-0.00016,-8e-05,-6e-05,4,2
20493,7e-05,8e-05,-0.00014,-0.00086,0.0001,1e-05,6e-05,3e-05,4,2
20494,7e-05,8e-05,-0.00014,-0.00086,0.0001,1e-05,6e-05,3e-05,4,2
20495,7e-05,8e-05,-0.00014,-0.00086,0.0001,1e-05,6e-05,3e-05,4,2
20496,7e-05,8e-05,-0.00014,-0.00086,0.0001,1e-05,6e-05,3e-05,4,2
20497,7e-05,8e-05,-0.00014,-0.00086,0.0001,1e-05,6e-05,3e-05,4,2
20498,-2e-05,-7e-05,-0.00017,-0.00042,-0.00052,0.00012,2e-05,-3e-05,4,2
20499,-2e-05,-7e-05,-0.00017,-0.00042,-0.00052,0.00012,2e-05,-3e-05,4,2
20500,-2e-05,-7e-05,-0.00017,-0.00042,-0.00052,0.00012,2e-05,-3e-05,4,2
20501,-2e-05,-7e-05,-0.00017,-0.00042,-0.00052,0.00012,2e-05,-3e-05,4,2
20502,-2e-05,-7e-05,-0.00017,-0.00042,-0.00052,0.00012,2e-05,-3e-05,4,2
20503,-2e-05,-7e-05,-0.00017,-0.00042,-0.00052,0.00012,2e-05,-3e-05,4,2
20504,-2e-05,-7e-05,-0.00017,-0.00042,-0.00052,0.00012,2e-05,-3e-05,4,2
20505,-2e-05,-7e-05,-0.00017,-0.00042,-0.00052,0.00012,2e-05,-3e-05,4,2
20506,-2e-05,-7e-05,-0.00017,-0.00042,-0.00052,0.00012,2e-05,-3e-05,4,2
20507,-5e-05,-7e-05,-0.0001,0.0004,8e-05,0,-5e-05,-5e-05,4,2
20508,-4e-05,-4e-05,-2e-05,8e-05,-8e-05,-0.00012,-3e-05,5e-05,4,2
20509,-4e-05,-4e-05,-2e-05,8e-05,-8e-05,-0.00012,-3e-05,5e-05,4,2
20510,-4e-05,-4e-05,-2e-05,8e-05,-8e-05,-0.00012,-3e-05,5e-05,4,2
20511,-4e-05,-4e-05,-2e-05,8e-05,-8e-05,-0.00012,-3e-05,5e-05,4,2
20512,-4e-05,-4e-05,-2e-05,8e-05,-8e-05,-0.00012,-3e-05,5e-05,4,2
20513,-4e-05,-4e-05,-2e-05,8e-05,-8e-05,-0.00012,-3e-05,5e-05,4,2
20514,-4e-05,-4e-05,-2e-05,8e-05,-8e-05,-0.00012,-3e-05,5e-05,4,2
20515,-4e-05,-4e-05,-2e-05,8e-05,-8e-05,-0.00012,-3e-05,5e-05,4,2
20516,-4e-05,-4e-05,-2e-05,8e-05,-8e-05,-0.00012,-3e-05,5e-05,4,2
20517,-4e-05,-4e-05,-2e-05,8e-05,-8e-05,-0.00012,-3e-05,5e-05,4,2
20518,-4e-05,-4e-05,-2e-05,8e-05,-8e-05,-0.00012,-3e-05,5e-05,4,2
20519,-4e-05,-4e-05,-2e-05,8e-05,-8e-05,-0.00012,-3e-05,5e-05,4,2
20520,-4e-05,-4e-05,-2e-05,8e-05,-8e-05,-0.00012,-3e-05,5e-05,4,2
20521,-4e-05,-4e-05,-2e-05,8e-05,-8e-05,-0.00012,-3e-05,5e-05,4,2
20522,4e-05,0.0001,0.00015,-0.00018,-0.0001,-0.0001,-2e-05,-2e-05,4,2
20523,-3e-05,-6e-05,-1e-05,0.00017,4e-05,1e-05,-1e-05,-3e-05,4,2
20524,-3e-05,-6e-05,-1e-05,0.00017,4e-05,1e-05,-1e-05,-3e-05,4,2
20525,-3e-05,-6e-05,-1e-05,0.00017,4e-05,1e-05,-1e-05,-3e-05,4,2
20526,-3e-05,-6e-05,-1e-05,0.00017,4e-05,1e-05,-1e-05,-3e-05,4,2
20527,-3e-05,-6e-05,-1e-05,0.00017,4e-05,1e-05,-1e-05,-3e-05,4,2
20528,-3e-05,-6e-05,-1e-05,0.00017,4e-05,1e-05,-1e-05,-3e-05,4,2
20529,-3e-05,-6e-05,-1e-05,0.00017,4e-05,1e-05,-1e-05,-3e-05,4,2
20530,-3e-05,-6e-05,-1e-05,0.00017,4e-05,1e-05,-1e-05,-3e-05,4,2
20531,-3e-05,-6e-05,-1e-05,0.00017,4e-05,1e-05,-1e-05,-3e-05,4,2
20532,-3e-05,-6e-05,-1e-05,0.00017,4e-05,1e-05,-1e-05,-3e-05,4,2
20533,-3e-05,-6e-05,-1e-05,0.00017,4e-05,1e-05,-1e-05,-3e-05,4,2
20534,-3e-05,-6e-05,-1e-05,0.00017,4e-05,1e-05,-1e-05,-3e-05,4,2
20535,-3e-05,-6e-05,-1e-05,0.00017,4e-05,1e-05,-1e-05,-3e-05,4,2
20536,-3e-05,-6e-05,-1e-05,0.00017,4e-05,1e-05,-1e-05,-3e-05,4,2
20539,-3e-05,-6e-05,-1e-05,0.00017,4e-05,1e-05,-1e-05,-3e-05,4,2
20540,-3e-05,-6e-05,-1e-05,0.00017,4e-05,1e-05,-1e-05,-3e-05,4,2
20541,-3e-05,-6e-05,-1e-05,0.00017,4e-05,1e-05,-1e-05,-3e-05,4,2
20542,-3e-05,-6e-05,-1e-05,0.00017,4e-05,1e-05,-1e-05,-3e-05,4,2
20543,-3e-05,-6e-05,-1e-05,0.00017,4e-05,1e-05,-1e-05,-3e-05,4,2
20544,-3e-05,-7e-05,-0.00022,-0.00015,-0.00034,-0.00016,-8e-05,-4e-05,4,2
20545,-3e-05,-7e-05,-0.00022,-0.00015,-0.00034,-0.00016,-8e-05,-4e-05,4,2
20546,1e-05,0,-3e-05,-0.00079,-3e-05,-2e-05,0,0,4,2
20547,1e-05,0,-3e-05,-0.00079,-3e-05,-2e-05,0,0,4,2
20548,1e-05,0,-3e-05,-0.00079,-3e-05,-2e-05,0,0,4,2
20549,1e-05,0,-3e-05,-0.00079,-3e-05,-2e-05,0,0,4,2
20550,1e-05,0,-3e-05,-0.00079,-3e-05,-2e-05,0,0,4,2
20551,1e-05,0,-3e-05,-0.00079,-3e-05,-2e-05,0,0,4,2
20552,1e-05,0,-3e-05,-0.00079,-3e-05,-2e-05,0,0,4,2
20553,1e-05,0,-3e-05,-0.00079,-3e-05,-2e-05,0,0,4,2
20554,1e-05,0,-3e-05,-0.00079,-3e-05,-2e-05,0,0,4,2
20555,1e-05,0,-3e-05,-0.00079,-3e-05,-2e-05,0,0,4,2
20556,1e-05,0,-3e-05,-0.00079,-3e-05,-2e-05,0,0,4,2
20557,1e-05,0,-3e-05,-0.00079,-3e-05,-2e-05,0,0,4,2
20558,-1e-05,1e-05,0.00011,0.0001,-5e-05,0,-2e-05,1e-05,4,2
20559,-1e-05,1e-05,0.00011,0.0001,-5e-05,0,-2e-05,1e-05,4,2
20560,-1e-05,1e-05,0.00011,0.0001,-5e-05,0,-2e-05,1e-05,4,2
20561,-1e-05,1e-05,0.00011,0.0001,-5e-05,0,-2e-05,1e-05,4,2
20562,-1e-05,1e-05,0.00011,0.0001,-5e-05,0,-2e-05,1e-05,4,2
20563,-1e-05,1e-05,0.00011,0.0001,-5e-05,0,-2e-05,1e-05,4,2
20564,-1e-05,1e-05,0.00011,0.0001,-5e-05,0,-2e-05,1e-05,4,2
20565,-1e-05,1e-05,0.00011,0.0001,-5e-05,0,-2e-05,1e-05,4,2
20566,-1e-05,1e-05,0.00011,0.0001,-5e-05,0,-2e-05,1e-05,4,2
20567,-3e-05,-2e-05,3e-05,-0.00013,0.00038,0.00012,3e-05,-1e-05,4,2
20568,-3e-05,-2e-05,3e-05,-0.00013,0.00038,0.00012,3e-05,-1e-05,4,2
20569,-3e-05,-2e-05,3e-05,-0.00013,0.00038,0.00012,3e-05,-1e-05,4,2
20570,-3e-05,-2e-05,3e-05,-0.00013,0.00038,0.00012,3e-05,-1e-05,4,2
20571,-3e-05,-2e-05,3e-05,-0.00013,0.00038,0.00012,3e-05,-1e-05,4,2
20572,-3e-05,-2e-05,3e-05,-0.00013,0.00038,0.00012,3e-05,-1e-05,4,2
20573,-3e-05,-2e-05,3e-05,-0.00013,0.00038,0.00012,3e-05,-1e-05,4,2
20574,-3e-05,-2e-05,3e-05,-0.00013,0.00038,0.00012,3e-05,-1e-05,4,2
20575,-3e-05,-2e-05,3e-05,-0.00013,0.00038,0.00012,3e-05,-1e-05,4,2
20576,-3e-05,-2e-05,3e-05,-0.00013,0.00038,0.00012,3e-05,-1e-05,4,2
20577,-3e-05,-2e-05,3e-05,-0.00013,0.00038,0.00012,3e-05,-1e-05,4,2
20578,-3e-05,-2e-05,3e-05,-0.00013,0.00038,0.00012,3e-05,-1e-05,4,2
20579,-3e-05,-2e-05,3e-05,-0.00013,0.00038,0.00012,3e-05,-1e-05,4,2
20580,-3e-05,-2e-05,3e-05,-0.00013,0.00038,0.00012,3e-05,-1e-05,4,2
20581,-3e-05,-2e-05,3e-05,-0.00013,0.00038,0.00012,3e-05,-1e-05,4,2
20582,-3e-05,-2e-05,-7e-05,-0.00054,-0.0001,2e-05,-3e-05,-3e-05,4,2
20583,-7e-05,-0.0001,-0.00012,0.00013,-0.00014,-5e-05,-6e-05,-7e-05,4,2
20584,-7e-05,-0.0001,-0.00012,0.00013,-0.00014,-5e-05,-6e-05,-7e-05,4,2
20585,-7e-05,-0.0001,-0.00012,0.00013,-0.00014,-5e-05,-6e-05,-7e-05,4,2
20586,-7e-05,-0.0001,-0.00012,0.00013,-0.00014,-5e-05,-6e-05,-7e-05,4,2
20589,-7e-05,-0.0001,-0.00012,0.00013,-0.00014,-5e-05,-6e-05,-7e-05,4,2
20590,-7e-05,-0.0001,-0.00012,0.00013,-0.00014,-5e-05,-6e-05,-7e-05,4,2
20591,-7e-05,-0.0001,-0.00012,0.00013,-0.00014,-5e-05,-6e-05,-7e-05,4,2
20592,-7e-05,-0.0001,-0.00012,0.00013,-0.00014,-5e-05,-6e-05,-7e-05,4,2
20593,-7e-05,-0.0001,-0.00012,0.00013,-0.00014,-5e-05,-6e-05,-7e-05,4,2
20594,-7e-05,-0.0001,-0.00012,0.00013,-0.00014,-5e-05,-6e-05,-7e-05,4,2
20595,-7e-05,-0.0001,-0.00012,0.00013,-0.00014,-5e-05,-6e-05,-7e-05,4,2
20596,-7e-05,-0.0001,-0.00012,0.00013,-0.00014,-5e-05,-6e-05,-7e-05,4,2
20597,-7e-05,-0.0001,-0.00012,0.00013,-0.00014,-5e-05,-6e-05,-7e-05,4,2
20598,-7e-05,-0.0001,-0.00012,0.00013,-0.00014,-5e-05,-6e-05,-7e-05,4,2
20599,-7e-05,-0.0001,-0.00012,0.00013,-0.00014,-5e-05,-6e-05,-7e-05,4,2
20600,-7e-05,-0.0001,-0.00012,0.00013,-0.00014,-5e-05,-6e-05,-7e-05,4,2
20601,-7e-05,-0.0001,-0.00012,0.00013,-0.00014,-5e-05,-6e-05,-7e-05,4,2
20602,-7e-05,-0.0001,-0.00012,0.00013,-0.00014,-5e-05,-6e-05,-7e-05,4,2
20603,-7e-05,-0.0001,-0.00012,0.00013,-0.00014,-5e-05,-6e-05,-7e-05,4,2
20604,5e-05,7e-05,0.00015,-3e-05,0.00023,-6e-05,-3e-05,-2e-05,4,2
20605,5e-05,7e-05,0.00015,-3e-05,0.00023,-6e-05,-3e-05,-2e-05,4,2
20606,-4e-05,-4e-05,1e-05,0.00059,9e-05,8e-05,3e-05,-2e-05,4,2
20607,-4e-05,-4e-05,1e-05,0.00059,9e-05,8e-05,3e-05,-2e-05,4,2
20608,-4e-05,-4e-05,1e-05,0.00059,9e-05,8e-05,3e-05,-2e-05,4,2
20609,-4e-05,-4e-05,1e-05,0.00059,9e-05,8e-05,3e-05,-2e-05,4,2
20610,-4e-05,-4e-05,1e-05,0.00059,9e-05,8e-05,3e-05,-2e-05,4,2
20611,-4e-05,-4e-05,1e-05,0.00059,9e-05,8e-05,3e-05,-2e-05,4,2
20612,-4e-05,-4e-05,1e-05,0.00059,9e-05,8e-05,3e-05,-2e-05,4,2
20613,-4e-05,-4e-05,1e-05,0.00059,9e-05,8e-05,3e-05,-2e-05,4,2
20614,-4e-05,-4e-05,1e-05,0.00059,9e-05,8e-05,3e-05,-2e-05,4,2
20615,-4e-05,-4e-05,1e-05,0.00059,9e-05,8e-05,3e-05,-2e-05,4,2
20616,-4e-05,-4e-05,1e-05,0.00059,9e-05,8e-05,3e-05,-2e-05,4,2
20617,-4e-05,-4e-05,1e-05,0.00059,9e-05,8e-05,3e-05,-2e-05,4,2
20618,3e-05,4e-05,9e-05,0.00021,-3e-05,-5e-05,-1e-05,-1e-05,4,2
20619,3e-05,4e-05,9e-05,0.00021,-3e-05,-5e-05,-1e-05,-1e-05,4,2
20620,3e-05,4e-05,9e-05,0.00021,-3e-05,-5e-05,-1e-05,-1e-05,4,2
20621,3e-05,4e-05,9e-05,0.00021,-3e-05,-5e-05,-1e-05,-1e-05,4,2
20622,3e-05,4e-05,9e-05,0.00021,-3e-05,-5e-05,-1e-05,-1e-05,4,2
20623,3e-05,4e-05,9e-05,0.00021,-3e-05,-5e-05,-1e-05,-1e-05,4,2
20624,3e-05,4e-05,9e-05,0.00021,-3e-05,-5e-05,-1e-05,-1e-05,4,2
20625,3e-05,4e-05,9e-05,0.00021,-3e-05,-5e-05,-1e-05,-1e-05,4,2
20626,3e-05,4e-05,9e-05,0.00021,-3e-05,-5e-05,-1e-05,-1e-05,4,2
20627,4e-05,4e-05,6e-05,-0.0003,0.00034,0.00016,5e-05,5e-05,4,2
20628,-4e-05,-6e-05,-0.00011,0.00068,-0.00023,-0.00028,-8e-05,-4e-05,4,2
20629,-4e-05,-6e-05,-0.00011,0.00068,-0.00023,-0.00028,-8e-05,-4e-05,4,2
20630,-4e-05,-6e-05,-0.00011,0.00068,-0.00023,-0.00028,-8e-05,-4e-05,4,2
20631,-4e-05,-6e-05,-0.00011,0.00068,-0.00023,-0.00028,-8e-05,-4e-05,4,2
20632,-4e-05,-6e-05,-0.00011,0.00068,-0.00023,-0.00028,-8e-05,-4e-05,4,2
20633,-4e-05,-6e-05,-0.00011,0.00068,-0.00023,-0.00028,-8e-05,-4e-05,4,2
20634,-4e-05,-6e-05,-0.00011,0.00068,-0.00023,-0.00028,-8e-05,-4e-05,4,2
20635,-4e-05,-6e-05,-0.00011,0.00068,-0.00023,-0.00028,-8e-05,-4e-05,4,2
20636,-4e-05,-6e-05,-0.00011,0.00068,-0.00023,-0.00028,-8e-05,-4e-05,4,2
20639,-4e-05,-6e-05,-0.00011,0.00068,-0.00023,-0.00028,-8e-05,-4e-05,4,2
20640,-4e-05,-6e-05,-0.00011,0.00068,-0.00023,-0.00028,-8e-05,-4e-05,4,2
20641,-4e-05,-6e-05,-0.00011,0.00068,-0.00023,-0.00028,-8e-05,-4e-05,4,2
20642,-6e-05,-7e-05,-5e-05,-0.00029,0.00022,-1e-05,-4e-05,-5e-05,4,2
20643,1e-05,-1e-05,-4e-05,-7e-05,-0.00041,-0.00014,-5e-05,0,4,2
20644,1e-05,-1e-05,-4e-05,-7e-05,-0.00041,-0.00014,-5e-05,0,4,2
20645,1e-05,-1e-05,-4e-05,-7e-05,-0.00041,-0.00014,-5e-05,0,4,2
20646,1e-05,-1e-05,-4e-05,-7e-05,-0.00041,-0.00014,-5e-05,0,4,2
20647,1e-05,-1e-05,-4e-05,-7e-05,-0.00041,-0.00014,-5e-05,0,4,2
20648,1e-05,-1e-05,-4e-05,-7e-05,-0.00041,-0.00014,-5e-05,0,4,2
20649,1e-05,-1e-05,-4e-05,-7e-05,-0.00041,-0.00014,-5e-05,0,4,2
20650,1e-05,-1e-05,-4e-05,-7e-05,-0.00041,-0.00014,-5e-05,0,4,2
20651,1e-05,-1e-05,-4e-05,-7e-05,-0.00041,-0.00014,-5e-05,0,4,2
20652,1e-05,-1e-05,-4e-05,-7e-05,-0.00041,-0.00014,-5e-05,0,4,2
20653,1e-05,-1e-05,-4e-05,-7e-05,-0.00041,-0.00014,-5e-05,0,4,2
20654,1e-05,-1e-05,-4e-05,-7e-05,-0.00041,-0.00014,-5e-05,0,4,2
20655,1e-05,-1e-05,-4e-05,-7e-05,-0.00041,-0.00014,-5e-05,0,4,2
20656,1e-05,-1e-05,-4e-05,-7e-05,-0.00041,-0.00014,-5e-05,0,4,2
20657,1e-05,-1e-05,-4e-05,-7e-05,-0.00041,-0.00014,-5e-05,0,4,2
20658,1e-05,-1e-05,-4e-05,-7e-05,-0.00041,-0.00014,-5e-05,0,4,2
20659,1e-05,-1e-05,-4e-05,-7e-05,-0.00041,-0.00014,-5e-05,0,4,2
20660,1e-05,-1e-05,-4e-05,-7e-05,-0.00041,-0.00014,-5e-05,0,4,2
20661,1e-05,-1e-05,-4e-05,-7e-05,-0.00041,-0.00014,-5e-05,0,4,2
20662,1e-05,-1e-05,-4e-05,-7e-05,-0.00041,-0.00014,-5e-05,0,4,2
20663,1e-05,-1e-05,-4e-05,-7e-05,-0.00041,-0.00014,-5e-05,0,4,2
20664,-2e-05,-2e-05,-0.00013,-0.00023,-0.00035,-0.00019,-8e-05,-4e-05,4,2
20665,-2e-05,-2e-05,-0.00013,-0.00023,-0.00035,-0.00019,-8e-05,-4e-05,4,2
20666,6e-05,0.00011,0.00017,-0.0004,0.00039,0.0002,9e-05,2e-05,4,2
20667,6e-05,0.00011,0.00017,-0.0004,0.00039,0.0002,9e-05,2e-05,4,2
20668,6e-05,0.00011,0.00017,-0.0004,0.00039,0.0002,9e-05,2e-05,4,2
20669,6e-05,0.00011,0.00017,-0.0004,0.00039,0.0002,9e-05,2e-05,4,2
20670,6e-05,0.00011,0.00017,-0.0004,0.00039,0.0002,9e-05,2e-05,4,2
20671,6e-05,0.00011,0.00017,-0.0004,0.00039,0.0002,9e-05,2e-05,4,2
20672,6e-05,0.00011,0.00017,-0.0004,0.00039,0.0002,9e-05,2e-05,4,2
20673,6e-05,0.00011,0.00017,-0.0004,0.00039,0.0002,9e-05,2e-05,4,2
20674,6e-05,0.00011,0.00017,-0.0004,0.00039,0.0002,9e-05,2e-05,4,2
20675,6e-05,0.00011,0.00017,-0.0004,0.00039,0.0002,9e-05,2e-05,4,2
20676,6e-05,0.00011,0.00017,-0.0004,0.00039,0.0002,9e-05,2e-05,4,2
20677,6e-05,0.00011,0.00017,-0.0004,0.00039,0.0002,9e-05,2e-05,4,2
20678,1e-05,1e-05,0.00013,0.00039,3e-05,3e-05,4e-05,2e-05,4,2
20679,1e-05,1e-05,0.00013,0.00039,3e-05,3e-05,4e-05,2e-05,4,2
20680,1e-05,1e-05,0.00013,0.00039,3e-05,3e-05,4e-05,2e-05,4,2
20681,1e-05,1e-05,0.00013,0.00039,3e-05,3e-05,4e-05,2e-05,4,2
20682,1e-05,1e-05,0.00013,0.00039,3e-05,3e-05,4e-05,2e-05,4,2
20683,1e-05,1e-05,0.00013,0.00039,3e-05,3e-05,4e-05,2e-05,4,2
20684,1e-05,1e-05,0.00013,0.00039,3e-05,3e-05,4e-05,2e-05,4,2
20685,1e-05,1e-05,0.00013,0.00039,3e-05,3e-05,4e-05,2e-05,4,2
20686,1e-05,1e-05,0.00013,0.00039,3e-05,3e-05,4e-05,2e-05,4,2
20689,-4e-05,-2e-05,2e-05,0.00039,0.00021,5e-05,1e-05,4e-05,4,2
20690,-4e-05,-2e-05,2e-05,0.00039,0.00021,5e-05,1e-05,4e-05,4,2
20691,-4e-05,-2e-05,2e-05,0.00039,0.00021,5e-05,1e-05,4e-05,4,2
20692,-4e-05,-2e-05,2e-05,0.00039,0.00021,5e-05,1e-05,4e-05,4,2
20693,-4e-05,-2e-05,2e-05,0.00039,0.00021,5e-05,1e-05,4e-05,4,2
20694,-4e-05,-2e-05,2e-05,0.00039,0.00021,5e-05,1e-05,4e-05,4,2
20695,-4e-05,-2e-05,2e-05,0.00039,0.00021,5e-05,1e-05,4e-05,4,2
20696,-4e-05,-2e-05,2e-05,0.00039,0.00021,5e-05,1e-05,4e-05,4,2
20697,-4e-05,-2e-05,2e-05,0.00039,0.00021,5e-05,1e-05,4e-05,4,2
20698,-4e-05,-2e-05,2e-05,0.00039,0.00021,5e-05,1e-05,4e-05,4,2
20699,-4e-05,-2e-05,2e-05,0.00039,0.00021,5e-05,1e-05,4e-05,4,2
20700,-4e-05,-2e-05,2e-05,0.00039,0.00021,5e-05,1e-05,4e-05,4,2
20701,-4e-05,-2e-05,2e-05,0.00039,0.00021,5e-05,1e-05,4e-05,4,2
20702,-2e-05,-3e-05,-6e-05,-0.00018,2e-05,3e-05,0,0,4,2
20703,-1e-05,-4e-05,-0.0002,-0.00046,-0.00054,-4e-05,-4e-05,-6e-05,4,2
20704,-1e-05,-4e-05,-0.0002,-0.00046,-0.00054,-4e-05,-4e-05,-6e-05,4,2
20705,-1e-05,-4e-05,-0.0002,-0.00046,-0.00054,-4e-05,-4e-05,-6e-05,4,2
20706,-1e-05,-4e-05,-0.0002,-0.00046,-0.00054,-4e-05,-4e-05,-6e-05,4,2
20707,-1e-05,-4e-05,-0.0002,-0.00046,-0.00054,-4e-05,-4e-05,-6e-05,4,2
20708,-1e-05,-4e-05,-0.0002,-0.00046,-0.00054,-4e-05,-4e-05,-6e-05,4,2
20709,-1e-05,-4e-05,-0.0002,-0.00046,-0.00054,-4e-05,-4e-05,-6e-05,4,2
20710,-1e-05,-4e-05,-0.0002,-0.00046,-0.00054,-4e-05,-4e-05,-6e-05,4,2
20711,-1e-05,-4e-05,-0.0002,-0.00046,-0.00054,-4e-05,-4e-05,-6e-05,4,2
20712,-1e-05,-4e-05,-0.0002,-0.00046,-0.00054,-4e-05,-4e-05,-6e-05,4,2
20713,-1e-05,-4e-05,-0.0002,-0.00046,-0.00054,-4e-05,-4e-05,-6e-05,4,2
20714,-1e-05,-4e-05,-0.0002,-0.00046,-0.00054,-4e-05,-4e-05,-6e-05,4,2
20715,-1e-05,-4e-05,-0.0002,-0.00046,-0.00054,-4e-05,-4e-05,-6e-05,4,2
20716,-1e-05,-4e-05,-0.0002,-0.00046,-0.00054,-4e-05,-4e-05,-6e-05,4,2
20717,-1e-05,-4e-05,-0.0002,-0.00046,-0.00054,-4e-05,-4e-05,-6e-05,4,2
20718,-1e-05,-4e-05,-0.0002,-0.00046,-0.00054,-4e-05,-4e-05,-6e-05,4,2
20719,-1e-05,-4e-05,-0.0002,-0.00046,-0.00054,-4e-05,-4e-05,-6e-05,4,2
20720,-1e-05,-4e-05,-0.0002,-0.00046,-0.00054,-4e-05,-4e-05,-6e-05,4,2
20721,-1e-05,-4e-05,-0.0002,-0.00046,-0.00054,-4e-05,-4e-05,-6e-05,4,2
20722,-1e-05,-4e-05,-0.0002,-0.00046,-0.00054,-4e-05,-4e-05,-6e-05,4,2
20723,-1e-05,-4e-05,-0.0002,-0.00046,-0.00054,-4e-05,-4e-05,-6e-05,4,2
20724,-1e-05,-4e-05,-0.0002,-0.00046,-0.00054,-4e-05,-4e-05,-6e-05,4,2
20725,-1e-05,-4e-05,-0.0002,-0.00046,-0.00054,-4e-05,-4e-05,-6e-05,4,2
20726,-1e-05,-4e-05,-0.0002,-0.00046,-0.00054,-4e-05,-4e-05,-6e-05,4,2
20727,-1e-05,-4e-05,-0.0002,-0.00046,-0.00054,-4e-05,-4e-05,-6e-05,4,2
20728,-1e-05,-4e-05,-0.0002,-0.00046,-0.00054,-4e-05,-4e-05,-6e-05,4,2
20729,-1e-05,-4e-05,-0.0002,-0.00046,-0.00054,-4e-05,-4e-05,-6e-05,4,2
20730,-1e-05,-4e-05,-0.0002,-0.00046,-0.00054,-4e-05,-4e-05,-6e-05,4,2
20731,-1e-05,-4e-05,-0.0002,-0.00046,-0.00054,-4e-05,-4e-05,-6e-05,4,2
20732,-3e-05,-2e-05,6e-05,0.00042,9e-05,-3e-05,0,0,4,2
20733,-5e-05,-6e-05,-0.00014,-0.00085,0.00011,0,-3e-05,-3e-05,4,2
20734,-5e-05,-6e-05,-0.00014,-0.00085,0.00011,0,-3e-05,-3e-05,4,2
20735,-5e-05,-6e-05,-0.00014,-0.00085,0.00011,0,-3e-05,-3e-05,4,2
20736,-5e-05,-6e-05,-0.00014,-0.00085,0.00011,0,-3e-05,-3e-05,4,2
20739,-5e-05,-6e-05,-0.00014,-0.00085,0.00011,0,-3e-05,-3e-05,4,2
20740,-5e-05,-6e-05,-0.00014,-0.00085,0.00011,0,-3e-05,-3e-05,4,2
20741,-5e-05,-6e-05,-0.00014,-0.00085,0.00011,0,-3e-05,-3e-05,4,2
20742,-5e-05,-6e-05,-0.00014,-0.00085,0.00011,0,-3e-05,-3e-05,4,2
20743,-5e-05,-6e-05,-0.00014,-0.00085,0.00011,0,-3e-05,-3e-05,4,2
20744,-5e-05,-6e-05,-0.00014,-0.00085,0.00011,0,-3e-05,-3e-05,4,2
20745,-5e-05,-6e-05,-0.00014,-0.00085,0.00011,0,-3e-05,-3e-05,4,2
20746,-5e-05,-6e-05,-0.00014,-0.00085,0.00011,0,-3e-05,-3e-05,4,2
20747,-2e-05,-4e-05,-4e-05,8e-05,0.00013,6e-05,0,-3e-05,4,2
20748,1e-05,6e-05,0.00014,0.00021,0.00052,0.0002,7e-05,3e-05,4,2
20749,1e-05,6e-05,0.00014,0.00021,0.00052,0.0002,7e-05,3e-05,4,2
20750,1e-05,6e-05,0.00014,0.00021,0.00052,0.0002,7e-05,3e-05,4,2
20751,1e-05,6e-05,0.00014,0.00021,0.00052,0.0002,7e-05,3e-05,4,2
20753,1e-05,6e-05,0.00014,0.00021,0.00052,0.0002,7e-05,3e-05,4,2
20754,1e-05,6e-05,0.00014,0.00021,0.00052,0.0002,7e-05,3e-05,4,2
20755,1e-05,6e-05,0.00014,0.00021,0.00052,0.0002,7e-05,3e-05,4,2
20756,1e-05,6e-05,0.00014,0.00021,0.00052,0.0002,7e-05,3e-05,4,2
20757,1e-05,6e-05,0.00014,0.00021,0.00052,0.0002,7e-05,3e-05,4,2
20758,1e-05,6e-05,0.00014,0.00021,0.00052,0.0002,7e-05,3e-05,4,2
20759,1e-05,6e-05,0.00014,0.00021,0.00052,0.0002,7e-05,3e-05,4,2
20760,1e-05,6e-05,0.00014,0.00021,0.00052,0.0002,7e-05,3e-05,4,2
20761,1e-05,6e-05,0.00014,0.00021,0.00052,0.0002,7e-05,3e-05,4,2
20762,-2e-05,0,2e-05,0.00025,-0.00025,3e-05,-7e-05,-5e-05,4,2
20763,-2e-05,-2e-05,0,0.00021,-0.0001,-0.00017,-5e-05,-3e-05,4,2
20764,-2e-05,-2e-05,0,0.00021,-0.0001,-0.00017,-5e-05,-3e-05,4,2
20765,-2e-05,-2e-05,0,0.00021,-0.0001,-0.00017,-5e-05,-3e-05,4,2
20766,-2e-05,-2e-05,0,0.00021,-0.0001,-0.00017,-5e-05,-3e-05,4,2
20767,-2e-05,-2e-05,0,0.00021,-0.0001,-0.00017,-5e-05,-3e-05,4,2
20768,-2e-05,-2e-05,0,0.00021,-0.0001,-0.00017,-5e-05,-3e-05,4,2
20769,-2e-05,-2e-05,0,0.00021,-0.0001,-0.00017,-5e-05,-3e-05,4,2
20770,-2e-05,-2e-05,0,0.00021,-0.0001,-0.00017,-5e-05,-3e-05,4,2
20771,-2e-05,-2e-05,0,0.00021,-0.0001,-0.00017,-5e-05,-3e-05,4,2
20772,-2e-05,-2e-05,0,0.00021,-0.0001,-0.00017,-5e-05,-3e-05,4,2
20773,-2e-05,-2e-05,0,0.00021,-0.0001,-0.00017,-5e-05,-3e-05,4,2
20774,-2e-05,-2e-05,0,0.00021,-0.0001,-0.00017,-5e-05,-3e-05,4,2
20775,-2e-05,-2e-05,0,0.00021,-0.0001,-0.00017,-5e-05,-3e-05,4,2
20776,-2e-05,-2e-05,0,0.00021,-0.0001,-0.00017,-5e-05,-3e-05,4,2
20777,-2e-05,-2e-05,0,0.00021,-0.0001,-0.00017,-5e-05,-3e-05,4,2
20778,-2e-05,-2e-05,0,0.00021,-0.0001,-0.00017,-5e-05,-3e-05,4,2
20779,-2e-05,-2e-05,0,0.00021,-0.0001,-0.00017,-5e-05,-3e-05,4,2
20780,-2e-05,-2e-05,0,0.00021,-0.0001,-0.00017,-5e-05,-3e-05,4,2
20781,-2e-05,-2e-05,0,0.00021,-0.0001,-0.00017,-5e-05,-3e-05,4,2
20782,-2e-05,-2e-05,0,0.00021,-0.0001,-0.00017,-5e-05,-3e-05,4,2
20783,-2e-05,-2e-05,0,0.00021,-0.0001,-0.00017,-5e-05,-3e-05,4,2
20784,-2e-05,-2e-05,0,0.00021,-0.0001,-0.00017,-5e-05,-3e-05,4,2
20785,-2e-05,-2e-05,0,0.00021,-0.0001,-0.00017,-5e-05,-3e-05,4,2
20786,-2e-05,-2e-05,0,0.00021,-0.0001,-0.00017,-5e-05,-3e-05,4,2
20789,-2e-05,-2e-05,0,0.00021,-0.0001,-0.00017,-5e-05,-3e-05,4,2
20790,-2e-05,-2e-05,0,0.00021,-0.0001,-0.00017,-5e-05,-3e-05,4,2
20791,-2e-05,-2e-05,0,0.00021,-0.0001,-0.00017,-5e-05,-3e-05,4,2
20792,-2e-05,-1e-05,-3e-05,-0.00063,1e-05,7e-05,5e-05,4e-05,4,2
20793,7e-05,8e-05,0.00018,0.00071,-0.00032,1e-05,0,-2e-05,4,2
20794,7e-05,8e-05,0.00018,0.00071,-0.00032,1e-05,0,-2e-05,4,2
20795,7e-05,8e-05,0.00018,0.00071,-0.00032,1e-05,0,-2e-05,4,2
20796,7e-05,8e-05,0.00018,0.00071,-0.00032,1e-05,0,-2e-05,4,2
20797,7e-05,8e-05,0.00018,0.00071,-0.00032,1e-05,0,-2e-05,4,2
20798,7e-05,8e-05,0.00018,0.00071,-0.00032,1e-05,0,-2e-05,4,2
20799,7e-05,8e-05,0.00018,0.00071,-0.00032,1e-05,0,-2e-05,4,2
20800,7e-05,8e-05,0.00018,0.00071,-0.00032,1e-05,0,-2e-05,4,2
20801,7e-05,8e-05,0.00018,0.00071,-0.00032,1e-05,0,-2e-05,4,2
20802,7e-05,8e-05,0.00018,0.00071,-0.00032,1e-05,0,-2e-05,4,2
20803,7e-05,8e-05,0.00018,0.00071,-0.00032,1e-05,0,-2e-05,4,2
20804,7e-05,8e-05,0.00018,0.00071,-0.00032,1e-05,0,-2e-05,4,2
20805,7e-05,8e-05,0.00018,0.00071,-0.00032,1e-05,0,-2e-05,4,2
20806,7e-05,8e-05,0.00018,0.00071,-0.00032,1e-05,0,-2e-05,4,2
20807,-3e-05,-2e-05,-5e-05,-6e-05,-0.00015,-0.00014,-4e-05,-3e-05,4,2
20808,-3e-05,-2e-05,-5e-05,-6e-05,-0.00015,-0.00014,-4e-05,-3e-05,4,2
20809,-3e-05,-2e-05,-5e-05,-6e-05,-0.00015,-0.00014,-4e-05,-3e-05,4,2
20810,-3e-05,-2e-05,-5e-05,-6e-05,-0.00015,-0.00014,-4e-05,-3e-05,4,2
20811,-3e-05,-2e-05,-5e-05,-6e-05,-0.00015,-0.00014,-4e-05,-3e-05,4,2
20812,-3e-05,-2e-05,-5e-05,-6e-05,-0.00015,-0.00014,-4e-05,-3e-05,4,2
20813,-3e-05,-2e-05,-5e-05,-6e-05,-0.00015,-0.00014,-4e-05,-3e-05,4,2
20814,-5e-05,-9e-05,-8e-05,-0.00013,-0.00015,3e-05,2e-05,4e-05,4,2
20815,-5e-05,-9e-05,-8e-05,-0.00013,-0.00015,3e-05,2e-05,4e-05,4,2
20816,-5e-05,-9e-05,-8e-05,-0.00013,-0.00015,3e-05,2e-05,4e-05,4,2
20817,-5e-05,-9e-05,-8e-05,-0.00013,-0.00015,3e-05,2e-05,4e-05,4,2
20818,-5e-05,-9e-05,-8e-05,-0.00013,-0.00015,3e-05,2e-05,4e-05,4,2
20819,-5e-05,-9e-05,-8e-05,-0.00013,-0.00015,3e-05,2e-05,4e-05,4,2
20820,-5e-05,-9e-05,-8e-05,-0.00013,-0.00015,3e-05,2e-05,4e-05,4,2
20821,-5e-05,-9e-05,-8e-05,-0.00013,-0.00015,3e-05,2e-05,4e-05,4,2
20822,2e-05,2e-05,-6e-05,-0.00059,-0.00018,-0.0001,0,3e-05,4,2
20823,0,2e-05,6e-05,0.00046,0.00058,0.00015,2e-05,3e-05,4,2
20824,0,2e-05,6e-05,0.00046,0.00058,0.00015,2e-05,3e-05,4,2
20825,0,2e-05,6e-05,0.00046,0.00058,0.00015,2e-05,3e-05,4,2
20826,0,2e-05,6e-05,0.00046,0.00058,0.00015,2e-05,3e-05,4,2
20827,0,2e-05,6e-05,0.00046,0.00058,0.00015,2e-05,3e-05,4,2
20828,0,2e-05,6e-05,0.00046,0.00058,0.00015,2e-05,3e-05,4,2
20829,0,2e-05,6e-05,0.00046,0.00058,0.00015,2e-05,3e-05,4,2
20830,0,2e-05,6e-05,0.00046,0.00058,0.00015,2e-05,3e-05,4,2
20831,0,2e-05,6e-05,0.00046,0.00058,0.00015,2e-05,3e-05,4,2
20832,0,2e-05,6e-05,0.00046,0.00058,0.00015,2e-05,3e-05,4,2
20833,0,2e-05,6e-05,0.00046,0.00058,0.00015,2e-05,3e-05,4,2
20834,0,2e-05,6e-05,0.00046,0.00058,0.00015,2e-05,3e-05,4,2
20835,0,2e-05,6e-05,0.00046,0.00058,0.00015,2e-05,3e-05,4,2
20836,0,2e-05,6e-05,0.00046,0.00058,0.00015,2e-05,3e-05,4,2
20839,0,2e-05,6e-05,0.00046,0.00058,0.00015,2e-05,3e-05,4,2
20840,0,2e-05,6e-05,0.00046,0.00058,0.00015,2e-05,3e-05,4,2
20841,0,2e-05,6e-05,0.00046,0.00058,0.00015,2e-05,3e-05,4,2
20842,0,2e-05,6e-05,0.00046,0.00058,0.00015,2e-05,3e-05,4,2
20843,0,2e-05,6e-05,0.00046,0.00058,0.00015,2e-05,3e-05,4,2
20844,-3e-05,-4e-05,-2e-05,-6e-05,0.00043,0,0,2e-05,4,2
20845,-3e-05,-4e-05,-2e-05,-6e-05,0.00043,0,0,2e-05,4,2
20846,-3e-05,-5e-05,-0.00014,-0.00044,-0.00046,-0.00018,-0.0001,-9e-05,4,2
20847,-3e-05,-5e-05,-0.00014,-0.00044,-0.00046,-0.00018,-0.0001,-9e-05,4,2
20848,-3e-05,-5e-05,-0.00014,-0.00044,-0.00046,-0.00018,-0.0001,-9e-05,4,2
20849,-3e-05,-5e-05,-0.00014,-0.00044,-0.00046,-0.00018,-0.0001,-9e-05,4,2
20850,-3e-05,-5e-05,-0.00014,-0.00044,-0.00046,-0.00018,-0.0001,-9e-05,4,2
20851,-3e-05,-5e-05,-0.00014,-0.00044,-0.00046,-0.00018,-0.0001,-9e-05,4,2
20852,-3e-05,-5e-05,-0.00014,-0.00044,-0.00046,-0.00018,-0.0001,-9e-05,4,2
20853,-3e-05,-5e-05,-0.00014,-0.00044,-0.00046,-0.00018,-0.0001,-9e-05,4,2
20854,-3e-05,-5e-05,-0.00014,-0.00044,-0.00046,-0.00018,-0.0001,-9e-05,4,2
20855,-3e-05,-5e-05,-0.00014,-0.00044,-0.00046,-0.00018,-0.0001,-9e-05,4,2
20856,-3e-05,-5e-05,-0.00014,-0.00044,-0.00046,-0.00018,-0.0001,-9e-05,4,2
20857,-3e-05,-5e-05,-0.00014,-0.00044,-0.00046,-0.00018,-0.0001,-9e-05,4,2
20858,-3e-05,-5e-05,-0.00014,-0.00044,-0.00046,-0.00018,-0.0001,-9e-05,4,2
20859,-3e-05,-5e-05,-0.00014,-0.00044,-0.00046,-0.00018,-0.0001,-9e-05,4,2
20860,-3e-05,-5e-05,-0.00014,-0.00044,-0.00046,-0.00018,-0.0001,-9e-05,4,2
20861,-3e-05,-5e-05,-0.00014,-0.00044,-0.00046,-0.00018,-0.0001,-9e-05,4,2
20862,-3e-05,-5e-05,-0.00014,-0.00044,-0.00046,-0.00018,-0.0001,-9e-05,4,2
20863,-3e-05,-5e-05,-0.00014,-0.00044,-0.00046,-0.00018,-0.0001,-9e-05,4,2
20864,-3e-05,-5e-05,-0.00014,-0.00044,-0.00046,-0.00018,-0.0001,-9e-05,4,2
20865,-3e-05,-5e-05,-0.00014,-0.00044,-0.00046,-0.00018,-0.0001,-9e-05,4,2
20866,5e-05,6e-05,1e-05,-0.00025,-0.00017,0.00012,5e-05,3e-05,4,2
20867,-4e-05,-4e-05,-6e-05,0.00011,0,0.00011,-8e-05,-6e-05,4,2
20868,-4e-05,-4e-05,-6e-05,0.00011,0,0.00011,-8e-05,-6e-05,4,2
20869,-4e-05,-4e-05,-6e-05,0.00011,0,0.00011,-8e-05,-6e-05,4,2
20870,-4e-05,-4e-05,-6e-05,0.00011,0,0.00011,-8e-05,-6e-05,4,2
20871,-4e-05,-4e-05,-6e-05,0.00011,0,0.00011,-8e-05,-6e-05,4,2
20872,-4e-05,-4e-05,-6e-05,0.00011,0,0.00011,-8e-05,-6e-05,4,2
20873,-4e-05,-4e-05,-6e-05,0.00011,0,0.00011,-8e-05,-6e-05,4,2
20874,-4e-05,-4e-05,-6e-05,0.00011,0,0.00011,-8e-05,-6e-05,4,2
20875,-4e-05,-4e-05,-6e-05,0.00011,0,0.00011,-8e-05,-6e-05,4,2
20876,-4e-05,-4e-05,-6e-05,0.00011,0,0.00011,-8e-05,-6e-05,4,2
20877,-4e-05,-4e-05,-6e-05,0.00011,0,0.00011,-8e-05,-6e-05,4,2
20878,-4e-05,-4e-05,-6e-05,0.00011,0,0.00011,-8e-05,-6e-05,4,2
20879,-4e-05,-4e-05,-6e-05,0.00011,0,0.00011,-8e-05,-6e-05,4,2
20880,-4e-05,-4e-05,-6e-05,0.00011,0,0.00011,-8e-05,-6e-05,4,2
20881,0.0001,0.00014,0.00017,0.00015,0.00055,0.00015,0.00012,7e-05,4,2
20882,4e-05,6e-05,8e-05,0.00044,0.00028,-2e-05,2e-05,-1e-05,4,2
20883,4e-05,6e-05,8e-05,0.00044,0.00028,-2e-05,2e-05,-1e-05,4,2
20884,4e-05,6e-05,8e-05,0.00044,0.00028,-2e-05,2e-05,-1e-05,4,2
20885,4e-05,6e-05,8e-05,0.00044,0.00028,-2e-05,2e-05,-1e-05,4,2
20886,4e-05,6e-05,8e-05,0.00044,0.00028,-2e-05,2e-05,-1e-05,4,2
20888,4e-05,6e-05,8e-05,0.00044,0.00028,-2e-05,2e-05,-1e-05,4,2
20890,4e-05,6e-05,8e-05,0.00044,0.00028,-2e-05,2e-05,-1e-05,4,2
20891,4e-05,6e-05,8e-05,0.00044,0.00028,-2e-05,2e-05,-1e-05,4,2
20892,4e-05,6e-05,8e-05,0.00044,0.00028,-2e-05,2e-05,-1e-05,4,2
20893,4e-05,6e-05,8e-05,0.00044,0.00028,-2e-05,2e-05,-1e-05,4,2
20894,4e-05,6e-05,8e-05,0.00044,0.00028,-2e-05,2e-05,-1e-05,4,2
20895,4e-05,6e-05,8e-05,0.00044,0.00028,-2e-05,2e-05,-1e-05,4,2
20896,4e-05,6e-05,8e-05,0.00044,0.00028,-2e-05,2e-05,-1e-05,4,2
20897,4e-05,6e-05,8e-05,0.00044,0.00028,-2e-05,2e-05,-1e-05,4,2
20898,4e-05,6e-05,8e-05,0.00044,0.00028,-2e-05,2e-05,-1e-05,4,2
20899,4e-05,6e-05,8e-05,0.00044,0.00028,-2e-05,2e-05,-1e-05,4,2
20900,4e-05,6e-05,8e-05,0.00044,0.00028,-2e-05,2e-05,-1e-05,4,2
20901,4e-05,6e-05,8e-05,0.00044,0.00028,-2e-05,2e-05,-1e-05,4,2
20902,4e-05,6e-05,8e-05,0.00044,0.00028,-2e-05,2e-05,-1e-05,4,2
20903,-5e-05,-6e-05,-0.0001,-8e-05,-8e-05,-7e-05,-1e-05,-4e-05,4,2
20904,-2e-05,-3e-05,0.00016,0.00081,-0.00025,-9e-05,-2e-05,0,4,2
20905,-2e-05,-3e-05,0.00016,0.00081,-0.00025,-9e-05,-2e-05,0,4,2
20906,-2e-05,-3e-05,0.00016,0.00081,-0.00025,-9e-05,-2e-05,0,4,2
20908,-2e-05,-3e-05,0.00016,0.00081,-0.00025,-9e-05,-2e-05,0,4,2
20909,-2e-05,-3e-05,0.00016,0.00081,-0.00025,-9e-05,-2e-05,0,4,2
20910,-2e-05,-3e-05,0.00016,0.00081,-0.00025,-9e-05,-2e-05,0,4,2
20911,-2e-05,-3e-05,0.00016,0.00081,-0.00025,-9e-05,-2e-05,0,4,2
20912,-2e-05,-3e-05,0.00016,0.00081,-0.00025,-9e-05,-2e-05,0,4,2
20913,-2e-05,-3e-05,0.00016,0.00081,-0.00025,-9e-05,-2e-05,0,4,2
20914,-2e-05,-3e-05,0.00016,0.00081,-0.00025,-9e-05,-2e-05,0,4,2
20915,-2e-05,-3e-05,0.00016,0.00081,-0.00025,-9e-05,-2e-05,0,4,2
20916,-2e-05,-3e-05,0.00016,0.00081,-0.00025,-9e-05,-2e-05,0,4,2
20917,-2e-05,-3e-05,0.00016,0.00081,-0.00025,-9e-05,-2e-05,0,4,2
20918,-2e-05,-3e-05,0.00016,0.00081,-0.00025,-9e-05,-2e-05,0,4,2
20919,-2e-05,-3e-05,0.00016,0.00081,-0.00025,-9e-05,-2e-05,0,4,2
20920,-2e-05,-3e-05,0.00016,0.00081,-0.00025,-9e-05,-2e-05,0,4,2
20921,-2e-05,-3e-05,0.00016,0.00081,-0.00025,-9e-05,-2e-05,0,4,2
20922,-2e-05,-3e-05,0.00016,0.00081,-0.00025,-9e-05,-2e-05,0,4,2
20923,-2e-05,-3e-05,0.00016,0.00081,-0.00025,-9e-05,-2e-05,0,4,2
20924,-2e-05,-3e-05,0.00016,0.00081,-0.00025,-9e-05,-2e-05,0,4,2
20925,-2e-05,-3e-05,0.00016,0.00081,-0.00025,-9e-05,-2e-05,0,4,2
20926,-1e-05,-4e-05,-0.0001,0.00098,0.00048,0.00034,7e-05,3e-05,4,2
20927,-5e-05,-6e-05,-6e-05,-1e-05,0.00038,5e-05,1e-05,0,4,2
20928,-5e-05,-6e-05,-6e-05,-1e-05,0.00038,5e-05,1e-05,0,4,2
20929,-5e-05,-6e-05,-6e-05,-1e-05,0.00038,5e-05,1e-05,0,4,2
20930,-5e-05,-6e-05,-6e-05,-1e-05,0.00038,5e-05,1e-05,0,4,2
20931,-5e-05,-6e-05,-6e-05,-1e-05,0.00038,5e-05,1e-05,0,4,2
20932,-5e-05,-6e-05,-6e-05,-1e-05,0.00038,5e-05,1e-05,0,4,2
20933,-5e-05,-6e-05,-6e-05,-1e-05,0.00038,5e-05,1e-05,0,4,2
20934,-5e-05,-6e-05,-6e-05,-1e-05,0.00038,5e-05,1e-05,0,4,2
20935,-5e-05,-6e-05,-6e-05,-1e-05,0.00038,5e-05,1e-05,0,4,2
20936,-5e-05,-6e-05,-6e-05,-1e-05,0.00038,5e-05,1e-05,0,4,2
20939,-5e-05,-6e-05,-6e-05,-1e-05,0.00038,5e-05,1e-05,0,4,2
20940,-5e-05,-6e-05,-6e-05,-1e-05,0.00038,5e-05,1e-05,0,4,2
20941,-7e-05,-6e-05,-5e-05,-0.00021,-0.00037,-0.00017,-8e-05,-7e-05,4,2
20942,7e-05,0.00012,0.00015,-0.00038,0.00026,0.0001,4e-05,6e-05,4,2
20943,7e-05,0.00012,0.00015,-0.00038,0.00026,0.0001,4e-05,6e-05,4,2
20944,7e-05,0.00012,0.00015,-0.00038,0.00026,0.0001,4e-05,6e-05,4,2
20945,7e-05,0.00012,0.00015,-0.00038,0.00026,0.0001,4e-05,6e-05,4,2
20946,7e-05,0.00012,0.00015,-0.00038,0.00026,0.0001,4e-05,6e-05,4,2
20947,7e-05,0.00012,0.00015,-0.00038,0.00026,0.0001,4e-05,6e-05,4,2
20948,7e-05,0.00012,0.00015,-0.00038,0.00026,0.0001,4e-05,6e-05,4,2
20949,7e-05,0.00012,0.00015,-0.00038,0.00026,0.0001,4e-05,6e-05,4,2
20950,7e-05,0.00012,0.00015,-0.00038,0.00026,0.0001,4e-05,6e-05,4,2
20951,7e-05,0.00012,0.00015,-0.00038,0.00026,0.0001,4e-05,6e-05,4,2
20952,7e-05,0.00012,0.00015,-0.00038,0.00026,0.0001,4e-05,6e-05,4,2
20953,7e-05,0.00012,0.00015,-0.00038,0.00026,0.0001,4e-05,6e-05,4,2
20954,7e-05,0.00012,0.00015,-0.00038,0.00026,0.0001,4e-05,6e-05,4,2
20955,7e-05,0.00012,0.00015,-0.00038,0.00026,0.0001,4e-05,6e-05,4,2
20956,7e-05,0.00012,0.00015,-0.00038,0.00026,0.0001,4e-05,6e-05,4,2
20957,7e-05,0.00012,0.00015,-0.00038,0.00026,0.0001,4e-05,6e-05,4,2
20958,7e-05,0.00012,0.00015,-0.00038,0.00026,0.0001,4e-05,6e-05,4,2
20959,7e-05,0.00012,0.00015,-0.00038,0.00026,0.0001,4e-05,6e-05,4,2
20960,7e-05,0.00012,0.00015,-0.00038,0.00026,0.0001,4e-05,6e-05,4,2
20961,7e-05,0.00012,0.00015,-0.00038,0.00026,0.0001,4e-05,6e-05,4,2
20962,7e-05,0.00012,0.00015,-0.00038,0.00026,0.0001,4e-05,6e-05,4,2
20963,7e-05,0.00012,0.00015,-0.00038,0.00026,0.0001,4e-05,6e-05,4,2
20964,-4e-05,-5e-05,-0.00012,-0.00044,-0.00099,-0.00041,-9e-05,-8e-05,4,2
20965,-4e-05,-5e-05,-0.00012,-0.00044,-0.00099,-0.00041,-9e-05,-8e-05,4,2
20966,-4e-05,-5e-05,-0.00012,-0.00044,-0.00099,-0.00041,-9e-05,-8e-05,4,2
20967,-4e-05,-5e-05,-0.00012,-0.00044,-0.00099,-0.00041,-9e-05,-8e-05,4,2
20968,-4e-05,-5e-05,-0.00012,-0.00044,-0.00099,-0.00041,-9e-05,-8e-05,4,2
20969,-4e-05,-5e-05,-0.00012,-0.00044,-0.00099,-0.00041,-9e-05,-8e-05,4,2
20970,-4e-05,-5e-05,-0.00012,-0.00044,-0.00099,-0.00041,-9e-05,-8e-05,4,2
20971,-4e-05,-5e-05,-0.00012,-0.00044,-0.00099,-0.00041,-9e-05,-8e-05,4,2
20972,-4e-05,-5e-05,-0.00012,-0.00044,-0.00099,-0.00041,-9e-05,-8e-05,4,2
20973,-4e-05,-5e-05,-0.00012,-0.00044,-0.00099,-0.00041,-9e-05,-8e-05,4,2
20974,-4e-05,-5e-05,-0.00012,-0.00044,-0.00099,-0.00041,-9e-05,-8e-05,4,2
20975,-4e-05,-5e-05,-0.00012,-0.00044,-0.00099,-0.00041,-9e-05,-8e-05,4,2
20976,-4e-05,-5e-05,-0.00012,-0.00044,-0.00099,-0.00041,-9e-05,-8e-05,4,2
20977,-4e-05,-5e-05,-0.00012,-0.00044,-0.00099,-0.00041,-9e-05,-8e-05,4,2
20978,-4e-05,-5e-05,-0.00012,-0.00044,-0.00099,-0.00041,-9e-05,-8e-05,4,2
20979,-4e-05,-5e-05,-0.00012,-0.00044,-0.00099,-0.00041,-9e-05,-8e-05,4,2
20980,-4e-05,-5e-05,-0.00012,-0.00044,-0.00099,-0.00041,-9e-05,-8e-05,4,2
20981,-4e-05,-5e-05,-0.00012,-0.00044,-0.00099,-0.00041,-9e-05,-8e-05,4,2
20982,-4e-05,-5e-05,-0.00012,-0.00044,-0.00099,-0.00041,-9e-05,-8e-05,4,2
20983,-4e-05,-5e-05,-0.00012,-0.00044,-0.00099,-0.00041,-9e-05,-8e-05,4,2
20984,-4e-05,-5e-05,-0.00012,-0.00044,-0.00099,-0.00041,-9e-05,-8e-05,4,2
20985,-4e-05,-5e-05,-0.00012,-0.00044,-0.00099,-0.00041,-9e-05,-8e-05,4,2
20986,0,0,-9e-05,-0.00034,-5e-05,-0.00011,-1e-05,1e-05,4,2
20988,-1e-05,0,6e-05,0.00076,-2e-05,-0.00016,-5e-05,-2e-05,4,2
20989,-1e-05,0,6e-05,0.00076,-2e-05,-0.00016,-5e-05,-2e-05,4,2
20990,-1e-05,0,6e-05,0.00076,-2e-05,-0.00016,-5e-05,-2e-05,4,2
20991,-1e-05,0,6e-05,0.00076,-2e-05,-0.00016,-5e-05,-2e-05,4,2
20992,-1e-05,0,6e-05,0.00076,-2e-05,-0.00016,-5e-05,-2e-05,4,2
20993,-1e-05,0,6e-05,0.00076,-2e-05,-0.00016,-5e-05,-2e-05,4,2
20994,-1e-05,0,6e-05,0.00076,-2e-05,-0.00016,-5e-05,-2e-05,4,2
20995,-1e-05,0,6e-05,0.00076,-2e-05,-0.00016,-5e-05,-2e-05,4,2
20996,-1e-05,0,6e-05,0.00076,-2e-05,-0.00016,-5e-05,-2e-05,4,2
20997,-1e-05,0,6e-05,0.00076,-2e-05,-0.00016,-5e-05,-2e-05,4,2
20998,-1e-05,0,6e-05,0.00076,-2e-05,-0.00016,-5e-05,-2e-05,4,2
20999,-1e-05,0,6e-05,0.00076,-2e-05,-0.00016,-5e-05,-2e-05,4,2
21000,-1e-05,0,6e-05,0.00076,-2e-05,-0.00016,-5e-05,-2e-05,4,2
21001,0,-2e-05,7e-05,0.00056,0.00054,7e-05,-1e-05,0,4,2
21002,4e-05,4e-05,3e-05,-0.00015,-6e-05,0.00016,4e-05,1e-05,4,2
21003,4e-05,4e-05,3e-05,-0.00015,-6e-05,0.00016,4e-05,1e-05,4,2
21004,4e-05,4e-05,3e-05,-0.00015,-6e-05,0.00016,4e-05,1e-05,4,2
21005,4e-05,4e-05,3e-05,-0.00015,-6e-05,0.00016,4e-05,1e-05,4,2
21006,4e-05,4e-05,3e-05,-0.00015,-6e-05,0.00016,4e-05,1e-05,4,2
21007,4e-05,4e-05,3e-05,-0.00015,-6e-05,0.00016,4e-05,1e-05,4,2
21008,4e-05,4e-05,3e-05,-0.00015,-6e-05,0.00016,4e-05,1e-05,4,2
21009,4e-05,4e-05,3e-05,-0.00015,-6e-05,0.00016,4e-05,1e-05,4,2
21010,4e-05,4e-05,3e-05,-0.00015,-6e-05,0.00016,4e-05,1e-05,4,2
21011,4e-05,4e-05,3e-05,-0.00015,-6e-05,0.00016,4e-05,1e-05,4,2
21012,4e-05,4e-05,3e-05,-0.00015,-6e-05,0.00016,4e-05,1e-05,4,2
21013,4e-05,4e-05,3e-05,-0.00015,-6e-05,0.00016,4e-05,1e-05,4,2
21014,4e-05,4e-05,3e-05,-0.00015,-6e-05,0.00016,4e-05,1e-05,4,2
21015,4e-05,4e-05,3e-05,-0.00015,-6e-05,0.00016,4e-05,1e-05,4,2
21016,4e-05,4e-05,3e-05,-0.00015,-6e-05,0.00016,4e-05,1e-05,4,2
21017,4e-05,4e-05,3e-05,-0.00015,-6e-05,0.00016,4e-05,1e-05,4,2
21018,4e-05,4e-05,3e-05,-0.00015,-6e-05,0.00016,4e-05,1e-05,4,2
21019,4e-05,4e-05,3e-05,-0.00015,-6e-05,0.00016,4e-05,1e-05,4,2
21020,4e-05,4e-05,3e-05,-0.00015,-6e-05,0.00016,4e-05,1e-05,4,2
21021,4e-05,4e-05,3e-05,-0.00015,-6e-05,0.00016,4e-05,1e-05,4,2
21022,4e-05,4e-05,3e-05,-0.00015,-6e-05,0.00016,4e-05,1e-05,4,2
21023,4e-05,4e-05,3e-05,-0.00015,-6e-05,0.00016,4e-05,1e-05,4,2
21024,-7e-05,-0.0001,-2e-05,0.00108,6e-05,-5e-05,-3e-05,-4e-05,4,2
21025,-7e-05,-0.0001,-2e-05,0.00108,6e-05,-5e-05,-3e-05,-4e-05,4,2
21026,-7e-05,-0.0001,-2e-05,0.00108,6e-05,-5e-05,-3e-05,-4e-05,4,2
21027,-7e-05,-0.0001,-2e-05,0.00108,6e-05,-5e-05,-3e-05,-4e-05,4,2
21028,-7e-05,-0.0001,-2e-05,0.00108,6e-05,-5e-05,-3e-05,-4e-05,4,2
21029,-7e-05,-0.0001,-2e-05,0.00108,6e-05,-5e-05,-3e-05,-4e-05,4,2
21030,-7e-05,-0.0001,-2e-05,0.00108,6e-05,-5e-05,-3e-05,-4e-05,4,2
21031,-7e-05,-0.0001,-2e-05,0.00108,6e-05,-5e-05,-3e-05,-4e-05,4,2
21032,-7e-05,-0.0001,-2e-05,0.00108,6e-05,-5e-05,-3e-05,-4e-05,4,2
21033,-7e-05,-0.0001,-2e-05,0.00108,6e-05,-5e-05,-3e-05,-4e-05,4,2
21034,-7e-05,-0.0001,-2e-05,0.00108,6e-05,-5e-05,-3e-05,-4e-05,4,2
21035,-7e-05,-0.0001,-2e-05,0.00108,6e-05,-5e-05,-3e-05,-4e-05,4,2
21036,-7e-05,-0.0001,-2e-05,0.00108,6e-05,-5e-05,-3e-05,-4e-05,4,2
21038,-7e-05,-0.0001,-2e-05,0.00108,6e-05,-5e-05,-3e-05,-4e-05,4,2
21039,-7e-05,-0.0001,-2e-05,0.00108,6e-05,-5e-05,-3e-05,-4e-05,4,2
21040,-7e-05,-0.0001,-2e-05,0.00108,6e-05,-5e-05,-3e-05,-4e-05,4,2
21041,-7e-05,-0.0001,-2e-05,0.00108,6e-05,-5e-05,-3e-05,-4e-05,4,2
21042,-7e-05,-0.0001,-2e-05,0.00108,6e-05,-5e-05,-3e-05,-4e-05,4,2
21043,-7e-05,-0.0001,-2e-05,0.00108,6e-05,-5e-05,-3e-05,-4e-05,4,2
21044,-7e-05,-0.0001,-2e-05,0.00108,6e-05,-5e-05,-3e-05,-4e-05,4,2
21045,-7e-05,-0.0001,-2e-05,0.00108,6e-05,-5e-05,-3e-05,-4e-05,4,2
21046,-0.00011,-0.00014,-0.00023,-0.00075,-0.00035,-0.00027,-0.00013,-0.0001,4,2
21047,0,-2e-05,-2e-05,-0.00012,0,0.00011,1e-05,0,4,2
21048,0,-2e-05,-2e-05,-0.00012,0,0.00011,1e-05,0,4,2
21049,0,-2e-05,-2e-05,-0.00012,0,0.00011,1e-05,0,4,2
21050,0,-2e-05,-2e-05,-0.00012,0,0.00011,1e-05,0,4,2
21051,0,-2e-05,-2e-05,-0.00012,0,0.00011,1e-05,0,4,2
21052,0,-2e-05,-2e-05,-0.00012,0,0.00011,1e-05,0,4,2
21053,0,-2e-05,-2e-05,-0.00012,0,0.00011,1e-05,0,4,2
21054,0,-2e-05,-2e-05,-0.00012,0,0.00011,1e-05,0,4,2
21055,0,-2e-05,-2e-05,-0.00012,0,0.00011,1e-05,0,4,2
21056,0,-2e-05,-2e-05,-0.00012,0,0.00011,1e-05,0,4,2
21057,0,-2e-05,-2e-05,-0.00012,0,0.00011,1e-05,0,4,2
21058,0,-2e-05,-2e-05,-0.00012,0,0.00011,1e-05,0,4,2
21059,0,-2e-05,-2e-05,-0.00012,0,0.00011,1e-05,0,4,2
21060,0,-2e-05,-2e-05,-0.00012,0,0.00011,1e-05,0,4,2
21061,-3e-05,-5e-05,0,0.00019,0.00019,-8e-05,-6e-05,-4e-05,4,2
21062,8e-05,7e-05,2e-05,-0.00108,-0.00012,3e-05,-1e-05,-1e-05,4,2
21063,8e-05,7e-05,2e-05,-0.00108,-0.00012,3e-05,-1e-05,-1e-05,4,2
21064,8e-05,7e-05,2e-05,-0.00108,-0.00012,3e-05,-1e-05,-1e-05,4,2
21065,8e-05,7e-05,2e-05,-0.00108,-0.00012,3e-05,-1e-05,-1e-05,4,2
21066,8e-05,7e-05,2e-05,-0.00108,-0.00012,3e-05,-1e-05,-1e-05,4,2
21067,8e-05,7e-05,2e-05,-0.00108,-0.00012,3e-05,-1e-05,-1e-05,4,2
21068,8e-05,7e-05,2e-05,-0.00108,-0.00012,3e-05,-1e-05,-1e-05,4,2
21069,8e-05,7e-05,2e-05,-0.00108,-0.00012,3e-05,-1e-05,-1e-05,4,2
21070,8e-05,7e-05,2e-05,-0.00108,-0.00012,3e-05,-1e-05,-1e-05,4,2
21071,8e-05,7e-05,2e-05,-0.00108,-0.00012,3e-05,-1e-05,-1e-05,4,2
21072,8e-05,7e-05,2e-05,-0.00108,-0.00012,3e-05,-1e-05,-1e-05,4,2
21073,8e-05,7e-05,2e-05,-0.00108,-0.00012,3e-05,-1e-05,-1e-05,4,2
21074,8e-05,7e-05,2e-05,-0.00108,-0.00012,3e-05,-1e-05,-1e-05,4,2
21075,8e-05,7e-05,2e-05,-0.00108,-0.00012,3e-05,-1e-05,-1e-05,4,2
21076,8e-05,7e-05,2e-05,-0.00108,-0.00012,3e-05,-1e-05,-1e-05,4,2
21077,8e-05,7e-05,2e-05,-0.00108,-0.00012,3e-05,-1e-05,-1e-05,4,2
21078,8e-05,7e-05,2e-05,-0.00108,-0.00012,3e-05,-1e-05,-1e-05,4,2
21079,8e-05,7e-05,2e-05,-0.00108,-0.00012,3e-05,-1e-05,-1e-05,4,2
21080,8e-05,7e-05,2e-05,-0.00108,-0.00012,3e-05,-1e-05,-1e-05,4,2
21081,8e-05,7e-05,2e-05,-0.00108,-0.00012,3e-05,-1e-05,-1e-05,4,2
21082,8e-05,7e-05,2e-05,-0.00108,-0.00012,3e-05,-1e-05,-1e-05,4,2
21083,-7e-05,-0.0001,-0.00034,-0.00088,-0.00064,-0.00024,-0.00011,-0.0001,4,2
21084,3e-05,8e-05,0.0001,-0.00023,0.00053,0.00016,8e-05,5e-05,4,2
21085,3e-05,8e-05,0.0001,-0.00023,0.00053,0.00016,8e-05,5e-05,4,2
21086,3e-05,8e-05,0.0001,-0.00023,0.00053,0.00016,8e-05,5e-05,4,2
21088,3e-05,8e-05,0.0001,-0.00023,0.00053,0.00016,8e-05,5e-05,4,2
21089,3e-05,8e-05,0.0001,-0.00023,0.00053,0.00016,8e-05,5e-05,4,2
21090,3e-05,8e-05,0.0001,-0.00023,0.00053,0.00016,8e-05,5e-05,4,2
21091,3e-05,8e-05,0.0001,-0.00023,0.00053,0.00016,8e-05,5e-05,4,2
21092,3e-05,8e-05,0.0001,-0.00023,0.00053,0.00016,8e-05,5e-05,4,2
21093,3e-05,8e-05,0.0001,-0.00023,0.00053,0.00016,8e-05,5e-05,4,2
21094,3e-05,8e-05,0.0001,-0.00023,0.00053,0.00016,8e-05,5e-05,4,2
21095,3e-05,8e-05,0.0001,-0.00023,0.00053,0.00016,8e-05,5e-05,4,2
21096,3e-05,8e-05,0.0001,-0.00023,0.00053,0.00016,8e-05,5e-05,4,2
21097,3e-05,8e-05,0.0001,-0.00023,0.00053,0.00016,8e-05,5e-05,4,2
21098,3e-05,8e-05,0.0001,-0.00023,0.00053,0.00016,8e-05,5e-05,4,2
21099,3e-05,8e-05,0.0001,-0.00023,0.00053,0.00016,8e-05,5e-05,4,2
21100,3e-05,8e-05,0.0001,-0.00023,0.00053,0.00016,8e-05,5e-05,4,2
21101,3e-05,8e-05,0.0001,-0.00023,0.00053,0.00016,8e-05,5e-05,4,2
21102,3e-05,8e-05,0.0001,-0.00023,0.00053,0.00016,8e-05,5e-05,4,2
21103,3e-05,8e-05,0.0001,-0.00023,0.00053,0.00016,8e-05,5e-05,4,2
21104,3e-05,8e-05,0.0001,-0.00023,0.00053,0.00016,8e-05,5e-05,4,2
21105,3e-05,8e-05,0.0001,-0.00023,0.00053,0.00016,8e-05,5e-05,4,2
21106,3e-05,8e-05,0.0001,-0.00023,0.00053,0.00016,8e-05,5e-05,4,2
21107,-5e-05,-6e-05,-4e-05,0.00017,0.00021,0.00012,3e-05,0,4,2
21108,-5e-05,-6e-05,-4e-05,0.00017,0.00021,0.00012,3e-05,0,4,2
21109,-5e-05,-6e-05,-4e-05,0.00017,0.00021,0.00012,3e-05,0,4,2
21110,-5e-05,-6e-05,-4e-05,0.00017,0.00021,0.00012,3e-05,0,4,2
21111,-5e-05,-6e-05,-4e-05,0.00017,0.00021,0.00012,3e-05,0,4,2
21112,-5e-05,-6e-05,-4e-05,0.00017,0.00021,0.00012,3e-05,0,4,2
21113,-5e-05,-6e-05,-4e-05,0.00017,0.00021,0.00012,3e-05,0,4,2
21114,-5e-05,-6e-05,-4e-05,0.00017,0.00021,0.00012,3e-05,0,4,2
21115,-5e-05,-6e-05,-4e-05,0.00017,0.00021,0.00012,3e-05,0,4,2
21116,-5e-05,-6e-05,-4e-05,0.00017,0.00021,0.00012,3e-05,0,4,2
21117,-5e-05,-6e-05,-4e-05,0.00017,0.00021,0.00012,3e-05,0,4,2
21118,-5e-05,-6e-05,-4e-05,0.00017,0.00021,0.00012,3e-05,0,4,2
21119,-5e-05,-6e-05,-4e-05,0.00017,0.00021,0.00012,3e-05,0,4,2
21120,-5e-05,-6e-05,-4e-05,0.00017,0.00021,0.00012,3e-05,0,4,2
21121,4e-05,4e-05,0.00015,0.00083,0.00039,0.00027,3e-05,-1e-05,4,2
21122,-1e-05,2e-05,-9e-05,-0.00046,-0.0001,-5e-05,-2e-05,-1e-05,4,2
21123,-1e-05,2e-05,-9e-05,-0.00046,-0.0001,-5e-05,-2e-05,-1e-05,4,2
21124,-1e-05,2e-05,-9e-05,-0.00046,-0.0001,-5e-05,-2e-05,-1e-05,4,2
21125,-1e-05,2e-05,-9e-05,-0.00046,-0.0001,-5e-05,-2e-05,-1e-05,4,2
21126,-1e-05,2e-05,-9e-05,-0.00046,-0.0001,-5e-05,-2e-05,-1e-05,4,2
21127,-1e-05,2e-05,-9e-05,-0.00046,-0.0001,-5e-05,-2e-05,-1e-05,4,2
21128,-1e-05,2e-05,-9e-05,-0.00046,-0.0001,-5e-05,-2e-05,-1e-05,4,2
21129,-1e-05,2e-05,-9e-05,-0.00046,-0.0001,-5e-05,-2e-05,-1e-05,4,2
21130,-1e-05,2e-05,-9e-05,-0.00046,-0.0001,-5e-05,-2e-05,-1e-05,4,2
21131,-1e-05,2e-05,-9e-05,-0.00046,-0.0001,-5e-05,-2e-05,-1e-05,4,2
21132,-1e-05,2e-05,-9e-05,-0.00046,-0.0001,-5e-05,-2e-05,-1e-05,4,2
21133,-1e-05,2e-05,-9e-05,-0.00046,-0.0001,-5e-05,-2e-05,-1e-05,4,2
21134,-1e-05,2e-05,-9e-05,-0.00046,-0.0001,-5e-05,-2e-05,-1e-05,4,2
21135,-1e-05,2e-05,-9e-05,-0.00046,-0.0001,-5e-05,-2e-05,-1e-05,4,2
21136,-1e-05,2e-05,-9e-05,-0.00046,-0.0001,-5e-05,-2e-05,-1e-05,4,2
21138,-1e-05,2e-05,-9e-05,-0.00046,-0.0001,-5e-05,-2e-05,-1e-05,4,2
21139,-1e-05,2e-05,-9e-05,-0.00046,-0.0001,-5e-05,-2e-05,-1e-05,4,2
21140,-1e-05,2e-05,-9e-05,-0.00046,-0.0001,-5e-05,-2e-05,-1e-05,4,2
21141,-1e-05,2e-05,-9e-05,-0.00046,-0.0001,-5e-05,-2e-05,-1e-05,4,2
21142,-1e-05,2e-05,-9e-05,-0.00046,-0.0001,-5e-05,-2e-05,-1e-05,4,2
21143,-1e-05,2e-05,-9e-05,-0.00046,-0.0001,-5e-05,-2e-05,-1e-05,4,2
21144,-2e-05,-6e-05,-0.00019,4e-05,-0.00039,-7e-05,-6e-05,-6e-05,4,2
21145,-2e-05,-6e-05,-0.00019,4e-05,-0.00039,-7e-05,-6e-05,-6e-05,4,2
21146,-2e-05,-6e-05,-0.00019,4e-05,-0.00039,-7e-05,-6e-05,-6e-05,4,2
21147,-2e-05,-6e-05,-0.00019,4e-05,-0.00039,-7e-05,-6e-05,-6e-05,4,2
21148,-2e-05,-6e-05,-0.00019,4e-05,-0.00039,-7e-05,-6e-05,-6e-05,4,2
21149,-2e-05,-6e-05,-0.00019,4e-05,-0.00039,-7e-05,-6e-05,-6e-05,4,2
21150,-2e-05,-6e-05,-0.00019,4e-05,-0.00039,-7e-05,-6e-05,-6e-05,4,2
21151,-2e-05,-6e-05,-0.00019,4e-05,-0.00039,-7e-05,-6e-05,-6e-05,4,2
21152,-2e-05,-6e-05,-0.00019,4e-05,-0.00039,-7e-05,-6e-05,-6e-05,4,2
21153,-2e-05,-6e-05,-0.00019,4e-05,-0.00039,-7e-05,-6e-05,-6e-05,4,2
21154,-2e-05,-6e-05,-0.00019,4e-05,-0.00039,-7e-05,-6e-05,-6e-05,4,2
21155,-2e-05,-6e-05,-0.00019,4e-05,-0.00039,-7e-05,-6e-05,-6e-05,4,2
21156,-2e-05,-6e-05,-0.00019,4e-05,-0.00039,-7e-05,-6e-05,-6e-05,4,2
21157,-2e-05,-6e-05,-0.00019,4e-05,-0.00039,-7e-05,-6e-05,-6e-05,4,2
21158,-2e-05,-6e-05,-0.00019,4e-05,-0.00039,-7e-05,-6e-05,-6e-05,4,2
21159,-2e-05,-6e-05,-0.00019,4e-05,-0.00039,-7e-05,-6e-05,-6e-05,4,2
21160,-2e-05,-6e-05,-0.00019,4e-05,-0.00039,-7e-05,-6e-05,-6e-05,4,2
21161,-2e-05,-6e-05,-0.00019,4e-05,-0.00039,-7e-05,-6e-05,-6e-05,4,2
21162,-2e-05,-6e-05,-0.00019,4e-05,-0.00039,-7e-05,-6e-05,-6e-05,4,2
21163,-2e-05,-6e-05,-0.00019,4e-05,-0.00039,-7e-05,-6e-05,-6e-05,4,2
21164,-2e-05,-6e-05,-0.00019,4e-05,-0.00039,-7e-05,-6e-05,-6e-05,4,2
21165,-2e-05,-6e-05,-0.00019,4e-05,-0.00039,-7e-05,-6e-05,-6e-05,4,2
21166,1e-05,5e-05,5e-05,0.00012,0.00015,0.00015,7e-05,6e-05,4,2
21167,1e-05,1e-05,-6e-05,-0.00076,-0.0007,-0.00025,-6e-05,-1e-05,4,2
21168,1e-05,1e-05,-6e-05,-0.00076,-0.0007,-0.00025,-6e-05,-1e-05,4,2
21169,1e-05,1e-05,-6e-05,-0.00076,-0.0007,-0.00025,-6e-05,-1e-05,4,2
21170,1e-05,1e-05,-6e-05,-0.00076,-0.0007,-0.00025,-6e-05,-1e-05,4,2
21171,1e-05,1e-05,-6e-05,-0.00076,-0.0007,-0.00025,-6e-05,-1e-05,4,2
21172,1e-05,1e-05,-6e-05,-0.00076,-0.0007,-0.00025,-6e-05,-1e-05,4,2
21173,1e-05,1e-05,-6e-05,-0.00076,-0.0007,-0.00025,-6e-05,-1e-05,4,2
21174,1e-05,1e-05,-6e-05,-0.00076,-0.0007,-0.00025,-6e-05,-1e-05,4,2
21175,1e-05,1e-05,-6e-05,-0.00076,-0.0007,-0.00025,-6e-05,-1e-05,4,2
21176,1e-05,1e-05,-6e-05,-0.00076,-0.0007,-0.00025,-6e-05,-1e-05,4,2
21177,1e-05,1e-05,-6e-05,-0.00076,-0.0007,-0.00025,-6e-05,-1e-05,4,2
21178,1e-05,1e-05,-6e-05,-0.00076,-0.0007,-0.00025,-6e-05,-1e-05,4,2
21179,1e-05,1e-05,-6e-05,-0.00076,-0.0007,-0.00025,-6e-05,-1e-05,4,2
21180,1e-05,1e-05,-6e-05,-0.00076,-0.0007,-0.00025,-6e-05,-1e-05,4,2
21181,-4e-05,-2e-05,-9e-05,-0.00067,-0.00038,-6e-05,-1e-05,-4e-05,4,2
21182,-5e-05,-4e-05,0.00011,0.00053,3e-05,5e-05,-3e-05,-3e-05,4,2
21183,-5e-05,-4e-05,0.00011,0.00053,3e-05,5e-05,-3e-05,-3e-05,4,2
21184,-5e-05,-4e-05,0.00011,0.00053,3e-05,5e-05,-3e-05,-3e-05,4,2
21185,-5e-05,-4e-05,0.00011,0.00053,3e-05,5e-05,-3e-05,-3e-05,4,2
21186,-5e-05,-4e-05,0.00011,0.00053,3e-05,5e-05,-3e-05,-3e-05,4,2
21188,-5e-05,-4e-05,0.00011,0.00053,3e-05,5e-05,-3e-05,-3e-05,4,2
21189,-5e-05,-4e-05,0.00011,0.00053,3e-05,5e-05,-3e-05,-3e-05,4,2
21190,-5e-05,-4e-05,0.00011,0.00053,3e-05,5e-05,-3e-05,-3e-05,4,2
21191,-5e-05,-4e-05,0.00011,0.00053,3e-05,5e-05,-3e-05,-3e-05,4,2
21192,-5e-05,-4e-05,0.00011,0.00053,3e-05,5e-05,-3e-05,-3e-05,4,2
21193,-5e-05,-4e-05,0.00011,0.00053,3e-05,5e-05,-3e-05,-3e-05,4,2
21194,-5e-05,-4e-05,0.00011,0.00053,3e-05,5e-05,-3e-05,-3e-05,4,2
21195,-5e-05,-4e-05,0.00011,0.00053,3e-05,5e-05,-3e-05,-3e-05,4,2
21196,-5e-05,-4e-05,0.00011,0.00053,3e-05,5e-05,-3e-05,-3e-05,4,2
21197,-5e-05,-4e-05,0.00011,0.00053,3e-05,5e-05,-3e-05,-3e-05,4,2
21198,-5e-05,-4e-05,0.00011,0.00053,3e-05,5e-05,-3e-05,-3e-05,4,2
21199,-5e-05,-4e-05,0.00011,0.00053,3e-05,5e-05,-3e-05,-3e-05,4,2
21200,-5e-05,-4e-05,0.00011,0.00053,3e-05,5e-05,-3e-05,-3e-05,4,2
21201,-5e-05,-4e-05,0.00011,0.00053,3e-05,5e-05,-3e-05,-3e-05,4,2
21202,-5e-05,-4e-05,0.00011,0.00053,3e-05,5e-05,-3e-05,-3e-05,4,2
21203,-4e-05,-6e-05,-5e-05,0.00052,0.00033,2e-05,3e-05,1e-05,4,2
21204,-3e-05,-3e-05,8e-05,0.00022,0.00018,5e-05,0,-3e-05,4,2
21205,-3e-05,-3e-05,8e-05,0.00022,0.00018,5e-05,0,-3e-05,4,2
21206,-3e-05,-3e-05,8e-05,0.00022,0.00018,5e-05,0,-3e-05,4,2
21207,-3e-05,-3e-05,8e-05,0.00022,0.00018,5e-05,0,-3e-05,4,2
21208,-3e-05,-3e-05,8e-05,0.00022,0.00018,5e-05,0,-3e-05,4,2
21209,-3e-05,-3e-05,8e-05,0.00022,0.00018,5e-05,0,-3e-05,4,2
21210,-3e-05,-3e-05,8e-05,0.00022,0.00018,5e-05,0,-3e-05,4,2
21212,-3e-05,-3e-05,8e-05,0.00022,0.00018,5e-05,0,-3e-05,4,2
21213,-3e-05,-3e-05,8e-05,0.00022,0.00018,5e-05,0,-3e-05,4,2
21214,-3e-05,-3e-05,8e-05,0.00022,0.00018,5e-05,0,-3e-05,4,2
21215,-3e-05,-3e-05,8e-05,0.00022,0.00018,5e-05,0,-3e-05,4,2
21216,-3e-05,-3e-05,8e-05,0.00022,0.00018,5e-05,0,-3e-05,4,2
21217,-3e-05,-3e-05,8e-05,0.00022,0.00018,5e-05,0,-3e-05,4,2
21218,-3e-05,-3e-05,8e-05,0.00022,0.00018,5e-05,0,-3e-05,4,2
21219,-3e-05,-3e-05,8e-05,0.00022,0.00018,5e-05,0,-3e-05,4,2
21220,-3e-05,-3e-05,8e-05,0.00022,0.00018,5e-05,0,-3e-05,4,2
21221,-3e-05,-3e-05,8e-05,0.00022,0.00018,5e-05,0,-3e-05,4,2
21222,-3e-05,-3e-05,8e-05,0.00022,0.00018,5e-05,0,-3e-05,4,2
21223,-3e-05,-3e-05,8e-05,0.00022,0.00018,5e-05,0,-3e-05,4,2
21224,-3e-05,-3e-05,8e-05,0.00022,0.00018,5e-05,0,-3e-05,4,2
21225,-3e-05,-3e-05,8e-05,0.00022,0.00018,5e-05,0,-3e-05,4,2
21226,-1e-05,-5e-05,-9e-05,0.0001,0,-3e-05,-3e-05,-1e-05,4,2
21227,-3e-05,-5e-05,-0.00023,-0.00053,6e-05,-7e-05,-3e-05,-1e-05,4,2
21228,-3e-05,-5e-05,-0.00023,-0.00053,6e-05,-7e-05,-3e-05,-1e-05,4,2
21229,-3e-05,-5e-05,-0.00023,-0.00053,6e-05,-7e-05,-3e-05,-1e-05,4,2
21230,-3e-05,-5e-05,-0.00023,-0.00053,6e-05,-7e-05,-3e-05,-1e-05,4,2
21231,-3e-05,-5e-05,-0.00023,-0.00053,6e-05,-7e-05,-3e-05,-1e-05,4,2
21232,-3e-05,-5e-05,-0.00023,-0.00053,6e-05,-7e-05,-3e-05,-1e-05,4,2
21233,-3e-05,-5e-05,-0.00023,-0.00053,6e-05,-7e-05,-3e-05,-1e-05,4,2
21234,-3e-05,-5e-05,-0.00023,-0.00053,6e-05,-7e-05,-3e-05,-1e-05,4,2
21235,-3e-05,-5e-05,-0.00023,-0.00053,6e-05,-7e-05,-3e-05,-1e-05,4,2
21236,-3e-05,-5e-05,-0.00023,-0.00053,6e-05,-7e-05,-3e-05,-1e-05,4,2
21238,-3e-05,-5e-05,-0.00023,-0.00053,6e-05,-7e-05,-3e-05,-1e-05,4,2
21239,-3e-05,-5e-05,-0.00023,-0.00053,6e-05,-7e-05,-3e-05,-1e-05,4,2
21240,-3e-05,-5e-05,-0.00023,-0.00053,6e-05,-7e-05,-3e-05,-1e-05,4,2
21241,-2e-05,-7e-05,-0.00013,9e-05,-0.00046,-0.00013,-4e-05,-3e-05,4,2
21242,2e-05,1e-05,-6e-05,-9e-05,1e-05,0,0,-1e-05,4,2
21243,2e-05,1e-05,-6e-05,-9e-05,1e-05,0,0,-1e-05,4,2
21244,2e-05,1e-05,-6e-05,-9e-05,1e-05,0,0,-1e-05,4,2
21245,2e-05,1e-05,-6e-05,-9e-05,1e-05,0,0,-1e-05,4,2
21246,2e-05,1e-05,-6e-05,-9e-05,1e-05,0,0,-1e-05,4,2
21247,2e-05,1e-05,-6e-05,-9e-05,1e-05,0,0,-1e-05,4,2
21248,2e-05,1e-05,-6e-05,-9e-05,1e-05,0,0,-1e-05,4,2
21249,2e-05,1e-05,-6e-05,-9e-05,1e-05,0,0,-1e-05,4,2
21250,2e-05,1e-05,-6e-05,-9e-05,1e-05,0,0,-1e-05,4,2
21251,2e-05,1e-05,-6e-05,-9e-05,1e-05,0,0,-1e-05,4,2
21252,2e-05,1e-05,-6e-05,-9e-05,1e-05,0,0,-1e-05,4,2
21253,2e-05,1e-05,-6e-05,-9e-05,1e-05,0,0,-1e-05,4,2
21254,2e-05,1e-05,-6e-05,-9e-05,1e-05,0,0,-1e-05,4,2
21255,2e-05,1e-05,-6e-05,-9e-05,1e-05,0,0,-1e-05,4,2
21256,2e-05,1e-05,-6e-05,-9e-05,1e-05,0,0,-1e-05,4,2
21257,2e-05,1e-05,-6e-05,-9e-05,1e-05,0,0,-1e-05,4,2
21258,2e-05,1e-05,-6e-05,-9e-05,1e-05,0,0,-1e-05,4,2
21259,2e-05,1e-05,-6e-05,-9e-05,1e-05,0,0,-1e-05,4,2
21260,2e-05,1e-05,-6e-05,-9e-05,1e-05,0,0,-1e-05,4,2
21261,2e-05,1e-05,-6e-05,-9e-05,1e-05,0,0,-1e-05,4,2
21262,2e-05,1e-05,-6e-05,-9e-05,1e-05,0,0,-1e-05,4,2
21263,-2e-05,-1e-05,-6e-05,-3e-05,-5e-05,-8e-05,3e-05,1e-05,4,2
21264,-5e-05,-6e-05,-4e-05,0.0001,-4e-05,-2e-05,-6e-05,-2e-05,4,2
21265,-5e-05,-6e-05,-4e-05,0.0001,-4e-05,-2e-05,-6e-05,-2e-05,4,2
21266,-5e-05,-6e-05,-4e-05,0.0001,-4e-05,-2e-05,-6e-05,-2e-05,4,2
21267,-5e-05,-6e-05,-4e-05,0.0001,-4e-05,-2e-05,-6e-05,-2e-05,4,2
21268,-5e-05,-6e-05,-4e-05,0.0001,-4e-05,-2e-05,-6e-05,-2e-05,4,2
21269,-5e-05,-6e-05,-4e-05,0.0001,-4e-05,-2e-05,-6e-05,-2e-05,4,2
21270,-5e-05,-6e-05,-4e-05,0.0001,-4e-05,-2e-05,-6e-05,-2e-05,4,2
21271,-5e-05,-6e-05,-4e-05,0.0001,-4e-05,-2e-05,-6e-05,-2e-05,4,2
21272,-5e-05,-6e-05,-4e-05,0.0001,-4e-05,-2e-05,-6e-05,-2e-05,4,2
21273,-5e-05,-6e-05,-4e-05,0.0001,-4e-05,-2e-05,-6e-05,-2e-05,4,2
21274,-5e-05,-6e-05,-4e-05,0.0001,-4e-05,-2e-05,-6e-05,-2e-05,4,2
21275,-5e-05,-6e-05,-4e-05,0.0001,-4e-05,-2e-05,-6e-05,-2e-05,4,2
21276,-5e-05,-6e-05,-4e-05,0.0001,-4e-05,-2e-05,-6e-05,-2e-05,4,2
21277,-5e-05,-6e-05,-4e-05,0.0001,-4e-05,-2e-05,-6e-05,-2e-05,4,2
21278,-5e-05,-6e-05,-4e-05,0.0001,-4e-05,-2e-05,-6e-05,-2e-05,4,2
21279,-5e-05,-6e-05,-4e-05,0.0001,-4e-05,-2e-05,-6e-05,-2e-05,4,2
21280,-5e-05,-6e-05,-4e-05,0.0001,-4e-05,-2e-05,-6e-05,-2e-05,4,2
21281,-5e-05,-6e-05,-4e-05,0.0001,-4e-05,-2e-05,-6e-05,-2e-05,4,2
21282,-5e-05,-6e-05,-4e-05,0.0001,-4e-05,-2e-05,-6e-05,-2e-05,4,2
21283,-5e-05,-6e-05,-4e-05,0.0001,-4e-05,-2e-05,-6e-05,-2e-05,4,2
21284,-5e-05,-6e-05,-4e-05,0.0001,-4e-05,-2e-05,-6e-05,-2e-05,4,2
21285,-5e-05,-6e-05,-4e-05,0.0001,-4e-05,-2e-05,-6e-05,-2e-05,4,2
21286,-5e-05,-6e-05,-4e-05,0.0001,-4e-05,-2e-05,-6e-05,-2e-05,4,2
21288,-2e-05,0,0.00012,0.0006,0.0004,4e-05,6e-05,1e-05,4,2
21289,-2e-05,0,0.00012,0.0006,0.0004,4e-05,6e-05,1e-05,4,2
21290,-2e-05,0,0.00012,0.0006,0.0004,4e-05,6e-05,1e-05,4,2
21291,-2e-05,0,0.00012,0.0006,0.0004,4e-05,6e-05,1e-05,4,2
21292,-2e-05,0,0.00012,0.0006,0.0004,4e-05,6e-05,1e-05,4,2
21293,-2e-05,0,0.00012,0.0006,0.0004,4e-05,6e-05,1e-05,4,2
21294,-2e-05,0,0.00012,0.0006,0.0004,4e-05,6e-05,1e-05,4,2
21295,-2e-05,0,0.00012,0.0006,0.0004,4e-05,6e-05,1e-05,4,2
21296,-2e-05,0,0.00012,0.0006,0.0004,4e-05,6e-05,1e-05,4,2
21297,-2e-05,0,0.00012,0.0006,0.0004,4e-05,6e-05,1e-05,4,2
21298,-2e-05,0,0.00012,0.0006,0.0004,4e-05,6e-05,1e-05,4,2
21299,-2e-05,0,0.00012,0.0006,0.0004,4e-05,6e-05,1e-05,4,2
21300,-2e-05,0,0.00012,0.0006,0.0004,4e-05,6e-05,1e-05,4,2
21301,-2e-05,1e-05,1e-05,-0.00012,-0.0001,0,-2e-05,-2e-05,4,2
21302,6e-05,8e-05,0.00011,-0.00037,0.00059,0.0003,0.00012,7e-05,4,2
21303,6e-05,8e-05,0.00011,-0.00037,0.00059,0.0003,0.00012,7e-05,4,2
21304,6e-05,8e-05,0.00011,-0.00037,0.00059,0.0003,0.00012,7e-05,4,2
21305,6e-05,8e-05,0.00011,-0.00037,0.00059,0.0003,0.00012,7e-05,4,2
21306,6e-05,8e-05,0.00011,-0.00037,0.00059,0.0003,0.00012,7e-05,4,2
21307,6e-05,8e-05,0.00011,-0.00037,0.00059,0.0003,0.00012,7e-05,4,2
21308,6e-05,8e-05,0.00011,-0.00037,0.00059,0.0003,0.00012,7e-05,4,2
21309,6e-05,8e-05,0.00011,-0.00037,0.00059,0.0003,0.00012,7e-05,4,2
21310,6e-05,8e-05,0.00011,-0.00037,0.00059,0.0003,0.00012,7e-05,4,2
21311,6e-05,8e-05,0.00011,-0.00037,0.00059,0.0003,0.00012,7e-05,4,2
21312,6e-05,8e-05,0.00011,-0.00037,0.00059,0.0003,0.00012,7e-05,4,2
21313,6e-05,8e-05,0.00011,-0.00037,0.00059,0.0003,0.00012,7e-05,4,2
21314,6e-05,8e-05,0.00011,-0.00037,0.00059,0.0003,0.00012,7e-05,4,2
21315,6e-05,8e-05,0.00011,-0.00037,0.00059,0.0003,0.00012,7e-05,4,2
21316,6e-05,8e-05,0.00011,-0.00037,0.00059,0.0003,0.00012,7e-05,4,2
21317,6e-05,8e-05,0.00011,-0.00037,0.00059,0.0003,0.00012,7e-05,4,2
21318,6e-05,8e-05,0.00011,-0.00037,0.00059,0.0003,0.00012,7e-05,4,2
21319,6e-05,8e-05,0.00011,-0.00037,0.00059,0.0003,0.00012,7e-05,4,2
21320,6e-05,8e-05,0.00011,-0.00037,0.00059,0.0003,0.00012,7e-05,4,2
21321,6e-05,8e-05,0.00011,-0.00037,0.00059,0.0003,0.00012,7e-05,4,2
21322,6e-05,8e-05,0.00011,-0.00037,0.00059,0.0003,0.00012,7e-05,4,2
21323,-4e-05,-3e-05,8e-05,0.00053,-1e-05,-0.00032,-0.0001,-5e-05,4,2
21324,-2e-05,-4e-05,-3e-05,0.00019,0,-6e-05,-2e-05,-2e-05,4,2
21325,-2e-05,-4e-05,-3e-05,0.00019,0,-6e-05,-2e-05,-2e-05,4,2
21326,-2e-05,-4e-05,-3e-05,0.00019,0,-6e-05,-2e-05,-2e-05,4,2
21327,-2e-05,-4e-05,-3e-05,0.00019,0,-6e-05,-2e-05,-2e-05,4,2
21328,-2e-05,-4e-05,-3e-05,0.00019,0,-6e-05,-2e-05,-2e-05,4,2
21329,-2e-05,-4e-05,-3e-05,0.00019,0,-6e-05,-2e-05,-2e-05,4,2
21330,-2e-05,-4e-05,-3e-05,0.00019,0,-6e-05,-2e-05,-2e-05,4,2
21331,-2e-05,-4e-05,-3e-05,0.00019,0,-6e-05,-2e-05,-2e-05,4,2
21332,-2e-05,-4e-05,-3e-05,0.00019,0,-6e-05,-2e-05,-2e-05,4,2
21333,-2e-05,-4e-05,-3e-05,0.00019,0,-6e-05,-2e-05,-2e-05,4,2
21334,-2e-05,-4e-05,-3e-05,0.00019,0,-6e-05,-2e-05,-2e-05,4,2
21335,-2e-05,-4e-05,-3e-05,0.00019,0,-6e-05,-2e-05,-2e-05,4,2
21336,-2e-05,-4e-05,-3e-05,0.00019,0,-6e-05,-2e-05,-2e-05,4,2
21338,-2e-05,-4e-05,-3e-05,0.00019,0,-6e-05,-2e-05,-2e-05,4,2
21339,-2e-05,-4e-05,-3e-05,0.00019,0,-6e-05,-2e-05,-2e-05,4,2
21340,-2e-05,-4e-05,-3e-05,0.00019,0,-6e-05,-2e-05,-2e-05,4,2
21341,-2e-05,-4e-05,-3e-05,0.00019,0,-6e-05,-2e-05,-2e-05,4,2
21342,-2e-05,-4e-05,-3e-05,0.00019,0,-6e-05,-2e-05,-2e-05,4,2
21343,-2e-05,-4e-05,-3e-05,0.00019,0,-6e-05,-2e-05,-2e-05,4,2
21344,-2e-05,-4e-05,-3e-05,0.00019,0,-6e-05,-2e-05,-2e-05,4,2
21345,-2e-05,-4e-05,-3e-05,0.00019,0,-6e-05,-2e-05,-2e-05,4,2
21346,1e-05,-1e-05,-7e-05,4e-05,7e-05,1e-05,-1e-05,-1e-05,4,2
21347,0,0,3e-05,0.0002,6e-05,5e-05,6e-05,4e-05,4,2
21348,0,0,3e-05,0.0002,6e-05,5e-05,6e-05,4e-05,4,2
21349,0,0,3e-05,0.0002,6e-05,5e-05,6e-05,4e-05,4,2
21350,0,0,3e-05,0.0002,6e-05,5e-05,6e-05,4e-05,4,2
21351,0,0,3e-05,0.0002,6e-05,5e-05,6e-05,4e-05,4,2
21352,0,0,3e-05,0.0002,6e-05,5e-05,6e-05,4e-05,4,2
21353,0,0,3e-05,0.0002,6e-05,5e-05,6e-05,4e-05,4,2
21354,0,0,3e-05,0.0002,6e-05,5e-05,6e-05,4e-05,4,2
21355,0,0,3e-05,0.0002,6e-05,5e-05,6e-05,4e-05,4,2
21356,0,0,3e-05,0.0002,6e-05,5e-05,6e-05,4e-05,4,2
21357,0,0,3e-05,0.0002,6e-05,5e-05,6e-05,4e-05,4,2
21358,0,0,3e-05,0.0002,6e-05,5e-05,6e-05,4e-05,4,2
21359,0,0,3e-05,0.0002,6e-05,5e-05,6e-05,4e-05,4,2
21360,-5e-05,-6e-05,-9e-05,-0.00049,-0.00036,-0.00014,-5e-05,-1e-05,4,2
21362,-5e-05,-6e-05,-9e-05,-0.00049,-0.00036,-0.00014,-5e-05,-1e-05,4,2
21363,-5e-05,-6e-05,-9e-05,-0.00049,-0.00036,-0.00014,-5e-05,-1e-05,4,2
21364,-5e-05,-6e-05,-9e-05,-0.00049,-0.00036,-0.00014,-5e-05,-1e-05,4,2
21365,-5e-05,-6e-05,-9e-05,-0.00049,-0.00036,-0.00014,-5e-05,-1e-05,4,2
21366,-5e-05,-6e-05,-9e-05,-0.00049,-0.00036,-0.00014,-5e-05,-1e-05,4,2
21367,-5e-05,-6e-05,-9e-05,-0.00049,-0.00036,-0.00014,-5e-05,-1e-05,4,2
21368,-2e-05,-4e-05,-8e-05,-0.0003,-0.00021,-1e-05,-1e-05,-3e-05,4,2
21369,-2e-05,-4e-05,-8e-05,-0.0003,-0.00021,-1e-05,-1e-05,-3e-05,4,2
21370,-2e-05,-4e-05,-8e-05,-0.0003,-0.00021,-1e-05,-1e-05,-3e-05,4,2
21371,-2e-05,-4e-05,-8e-05,-0.0003,-0.00021,-1e-05,-1e-05,-3e-05,4,2
21372,-2e-05,-4e-05,-8e-05,-0.0003,-0.00021,-1e-05,-1e-05,-3e-05,4,2
21373,-2e-05,-4e-05,-8e-05,-0.0003,-0.00021,-1e-05,-1e-05,-3e-05,4,2
21374,-2e-05,-4e-05,-8e-05,-0.0003,-0.00021,-1e-05,-1e-05,-3e-05,4,2
21375,-2e-05,-4e-05,-8e-05,-0.0003,-0.00021,-1e-05,-1e-05,-3e-05,4,2
21376,-2e-05,-4e-05,-8e-05,-0.0003,-0.00021,-1e-05,-1e-05,-3e-05,4,2
21377,-2e-05,-4e-05,-8e-05,-0.0003,-0.00021,-1e-05,-1e-05,-3e-05,4,2
21378,-2e-05,-4e-05,-8e-05,-0.0003,-0.00021,-1e-05,-1e-05,-3e-05,4,2
21379,-2e-05,-4e-05,-8e-05,-0.0003,-0.00021,-1e-05,-1e-05,-3e-05,4,2
21380,-2e-05,-4e-05,-8e-05,-0.0003,-0.00021,-1e-05,-1e-05,-3e-05,4,2
21381,-2e-05,-4e-05,-8e-05,-0.0003,-0.00021,-1e-05,-1e-05,-3e-05,4,2
59423,-7e-05,-6e-05,-0.00015,-0.00075,-0.00025,4e-05,-9e-05,-0.0001,4,2
59424,-7e-05,-6e-05,-0.00015,-0.00075,-0.00025,4e-05,-9e-05,-0.0001,4,2
59425,-7e-05,-6e-05,-0.00015,-0.00075,-0.00025,4e-05,-9e-05,-0.0001,4,2
59426,-7e-05,-6e-05,-0.00015,-0.00075,-0.00025,4e-05,-9e-05,-0.0001,4,2
59427,-7e-05,-6e-05,-0.00015,-0.00075,-0.00025,4e-05,-9e-05,-0.0001,4,2
59428,-7e-05,-6e-05,-0.00015,-0.00075,-0.00025,4e-05,-9e-05,-0.0001,4,2
59429,-7e-05,-6e-05,-0.00015,-0.00075,-0.00025,4e-05,-9e-05,-0.0001,4,2
59430,-7e-05,-6e-05,-0.00015,-0.00075,-0.00025,4e-05,-9e-05,-0.0001,4,2
59431,-7e-05,-6e-05,-0.00015,-0.00075,-0.00025,4e-05,-9e-05,-0.0001,4,2
59432,-2e-05,-3e-05,0.00021,0.00104,0.0008,0.00016,8e-05,6e-05,4,2
59433,-2e-05,-3e-05,0.00021,0.00104,0.0008,0.00016,8e-05,6e-05,4,2
59434,-1e-05,-2e-05,-0.00027,-0.00098,-0.00087,-0.00036,-9e-05,-6e-05,4,2
59435,-1e-05,-2e-05,-0.00027,-0.00098,-0.00087,-0.00036,-9e-05,-6e-05,4,2
59436,-1e-05,-2e-05,-0.00027,-0.00098,-0.00087,-0.00036,-9e-05,-6e-05,4,2
59438,-1e-05,-2e-05,-0.00027,-0.00098,-0.00087,-0.00036,-9e-05,-6e-05,4,2
59439,-1e-05,-2e-05,-0.00027,-0.00098,-0.00087,-0.00036,-9e-05,-6e-05,4,2
59440,-1e-05,-2e-05,-0.00027,-0.00098,-0.00087,-0.00036,-9e-05,-6e-05,4,2
59441,-1e-05,-2e-05,-0.00027,-0.00098,-0.00087,-0.00036,-9e-05,-6e-05,4,2
59442,-1e-05,-2e-05,-0.00027,-0.00098,-0.00087,-0.00036,-9e-05,-6e-05,4,2
59443,-1e-05,-2e-05,-0.00027,-0.00098,-0.00087,-0.00036,-9e-05,-6e-05,4,2
59444,-1e-05,-2e-05,-0.00027,-0.00098,-0.00087,-0.00036,-9e-05,-6e-05,4,2
59445,-1e-05,-2e-05,-0.00027,-0.00098,-0.00087,-0.00036,-9e-05,-6e-05,4,2
59446,-1e-05,-2e-05,-0.00027,-0.00098,-0.00087,-0.00036,-9e-05,-6e-05,4,2
59447,-1e-05,-2e-05,-0.00027,-0.00098,-0.00087,-0.00036,-9e-05,-6e-05,4,2
59448,6e-05,0.0001,0.00034,0.00073,-0.00062,-0.00028,-0.00013,-7e-05,4,2
59449,-1e-05,-6e-05,-0.00016,-0.00048,0.00019,2e-05,3e-05,1e-05,4,2
59450,-1e-05,-6e-05,-0.00016,-0.00048,0.00019,2e-05,3e-05,1e-05,4,2
59451,-1e-05,-6e-05,-0.00016,-0.00048,0.00019,2e-05,3e-05,1e-05,4,2
59452,-1e-05,-6e-05,-0.00016,-0.00048,0.00019,2e-05,3e-05,1e-05,4,2
59453,-1e-05,-6e-05,-0.00016,-0.00048,0.00019,2e-05,3e-05,1e-05,4,2
59454,-1e-05,-6e-05,-0.00016,-0.00048,0.00019,2e-05,3e-05,1e-05,4,2
59455,-1e-05,-6e-05,-0.00016,-0.00048,0.00019,2e-05,3e-05,1e-05,4,2
59456,-1e-05,-6e-05,-0.00016,-0.00048,0.00019,2e-05,3e-05,1e-05,4,2
59457,-1e-05,-6e-05,-0.00016,-0.00048,0.00019,2e-05,3e-05,1e-05,4,2
59458,-1e-05,-6e-05,-0.00016,-0.00048,0.00019,2e-05,3e-05,1e-05,4,2
59459,-1e-05,-6e-05,-0.00016,-0.00048,0.00019,2e-05,3e-05,1e-05,4,2
59460,-1e-05,-6e-05,-0.00016,-0.00048,0.00019,2e-05,3e-05,1e-05,4,2
59461,-5e-05,-4e-05,-0.00011,0.00021,-0.00023,-0.00016,-7e-05,-3e-05,4,2
59462,-5e-05,-4e-05,-0.00011,0.00021,-0.00023,-0.00016,-7e-05,-3e-05,4,2
59463,-5e-05,-4e-05,-0.00011,0.00021,-0.00023,-0.00016,-7e-05,-3e-05,4,2
59464,-5e-05,-4e-05,-0.00011,0.00021,-0.00023,-0.00016,-7e-05,-3e-05,4,2
59465,-5e-05,-4e-05,-0.00011,0.00021,-0.00023,-0.00016,-7e-05,-3e-05,4,2
59466,-5e-05,-4e-05,-0.00011,0.00021,-0.00023,-0.00016,-7e-05,-3e-05,4,2
59467,-5e-05,-4e-05,-0.00011,0.00021,-0.00023,-0.00016,-7e-05,-3e-05,4,2
59468,-5e-05,-4e-05,-0.00011,0.00021,-0.00023,-0.00016,-7e-05,-3e-05,4,2
59469,-5e-05,-4e-05,-0.00011,0.00021,-0.00023,-0.00016,-7e-05,-3e-05,4,2
59470,-3e-05,-4e-05,5e-05,0.00125,0.00044,0,0,0,4,2
59471,-3e-05,-4e-05,5e-05,0.00125,0.00044,0,0,0,4,2
59472,-3e-05,-4e-05,5e-05,0.00125,0.00044,0,0,0,4,2
59473,-3e-05,-4e-05,5e-05,0.00125,0.00044,0,0,0,4,2
59474,-3e-05,-4e-05,5e-05,0.00125,0.00044,0,0,0,4,2
59475,-3e-05,-4e-05,5e-05,0.00125,0.00044,0,0,0,4,2
59476,-3e-05,-4e-05,5e-05,0.00125,0.00044,0,0,0,4,2
59477,-3e-05,-4e-05,5e-05,0.00125,0.00044,0,0,0,4,2
59478,-3e-05,-4e-05,5e-05,0.00125,0.00044,0,0,0,4,2
59479,-3e-05,-4e-05,5e-05,0.00125,0.00044,0,0,0,4,2
59480,-3e-05,-4e-05,5e-05,0.00125,0.00044,0,0,0,4,2
59481,-3e-05,-4e-05,5e-05,0.00125,0.00044,0,0,0,4,2
59482,-3e-05,-4e-05,5e-05,0.00125,0.00044,0,0,0,4,2
59483,-3e-05,-4e-05,5e-05,0.00125,0.00044,0,0,0,4,2
59484,0,-8e-05,-0.0004,-0.00053,-0.00068,-5e-05,-4e-05,-1e-05,4,2
59485,-8e-05,-3e-05,0.00039,0.00065,-0.00012,1e-05,-3e-05,-4e-05,4,2
59486,-0.00013,-0.00019,-0.0001,0.00083,-0.00034,-0.00018,-5e-05,-7e-05,4,2
59488,-0.00013,-0.00019,-0.0001,0.00083,-0.00034,-0.00018,-5e-05,-7e-05,4,2
59489,-0.00013,-0.00019,-0.0001,0.00083,-0.00034,-0.00018,-5e-05,-7e-05,4,2
