20279,-4e-05,-3e-05,0.00011,-0.00051,-0.00035,0.00087,-0.00017,-0.0001,4,20
20280,-4e-05,-3e-05,0.00011,-0.00051,-0.00035,0.00087,-0.00017,-0.0001,4,20
20281,-4e-05,-3e-05,0.00011,-0.00051,-0.00035,0.00087,-0.00017,-0.0001,4,20
20282,-4e-05,-3e-05,0.00011,-0.00051,-0.00035,0.00087,-0.00017,-0.0001,4,20
20283,-4e-05,-3e-05,0.00011,-0.00051,-0.00035,0.00087,-0.00017,-0.0001,4,20
20284,-4e-05,-3e-05,0.00011,-0.00051,-0.00035,0.00087,-0.00017,-0.0001,4,20
20285,-4e-05,-3e-05,0.00011,-0.00051,-0.00035,0.00087,-0.00017,-0.0001,4,20
20286,-4e-05,-3e-05,0.00011,-0.00051,-0.00035,0.00087,-0.00017,-0.0001,4,20
20289,-3e-05,1e-05,0.00048,-0.00021,-0.00107,0.00061,7e-05,-1e-05,4,20
20290,-3e-05,1e-05,0.00048,-0.00021,-0.00107,0.00061,7e-05,-1e-05,4,20
20291,-3e-05,1e-05,0.00048,-0.00021,-0.00107,0.00061,7e-05,-1e-05,4,20
20292,-3e-05,1e-05,0.00048,-0.00021,-0.00107,0.00061,7e-05,-1e-05,4,20
20293,-3e-05,1e-05,0.00048,-0.00021,-0.00107,0.00061,7e-05,-1e-05,4,20
20294,-3e-05,1e-05,0.00048,-0.00021,-0.00107,0.00061,7e-05,-1e-05,4,20
20295,-3e-05,1e-05,0.00048,-0.00021,-0.00107,0.00061,7e-05,-1e-05,4,20
20296,7e-05,0.00016,0.00044,0.00021,-0.00015,-0.00011,0.00015,8e-05,4,20
20297,7e-05,0.00016,0.00044,0.00021,-0.00015,-0.00011,0.00015,8e-05,4,20
20298,7e-05,0.00016,0.00044,0.00021,-0.00015,-0.00011,0.00015,8e-05,4,20
20299,7e-05,0.00016,0.00044,0.00021,-0.00015,-0.00011,0.00015,8e-05,4,20
20300,7e-05,0.00016,0.00044,0.00021,-0.00015,-0.00011,0.00015,8e-05,4,20
20301,7e-05,0.00016,0.00044,0.00021,-0.00015,-0.00011,0.00015,8e-05,4,20
20302,7e-05,0.00016,0.00044,0.00021,-0.00015,-0.00011,0.00015,8e-05,4,20
20303,7e-05,0.00016,0.00044,0.00021,-0.00015,-0.00011,0.00015,8e-05,4,20
20304,7e-05,0.00016,0.00044,0.00021,-0.00015,-0.00011,0.00015,8e-05,4,20
20305,7e-05,0.00016,0.00044,0.00021,-0.00015,-0.00011,0.00015,8e-05,4,20
20306,7e-05,0.00016,0.00044,0.00021,-0.00015,-0.00011,0.00015,8e-05,4,20
20307,7e-05,0.00016,0.00044,0.00021,-0.00015,-0.00011,0.00015,8e-05,4,20
20308,7e-05,0.00016,0.00044,0.00021,-0.00015,-0.00011,0.00015,8e-05,4,20
20309,7e-05,0.00016,0.00044,0.00021,-0.00015,-0.00011,0.00015,8e-05,4,20
20310,7e-05,0.00016,0.00044,0.00021,-0.00015,-0.00011,0.00015,8e-05,4,20
20311,3e-05,9e-05,0.00055,0.00038,0.00066,0.00061,3e-05,-1e-05,4,20
20312,3e-05,9e-05,0.00055,0.00038,0.00066,0.00061,3e-05,-1e-05,4,20
20313,3e-05,6e-05,0.00015,5e-05,-0.00074,-0.00096,-5e-05,3e-05,4,20
20314,3e-05,6e-05,0.00015,5e-05,-0.00074,-0.00096,-5e-05,3e-05,4,20
20315,3e-05,6e-05,0.00015,5e-05,-0.00074,-0.00096,-5e-05,3e-05,4,20
20316,3e-05,6e-05,0.00015,5e-05,-0.00074,-0.00096,-5e-05,3e-05,4,20
20317,3e-05,6e-05,0.00015,5e-05,-0.00074,-0.00096,-5e-05,3e-05,4,20
20318,3e-05,6e-05,0.00015,5e-05,-0.00074,-0.00096,-5e-05,3e-05,4,20
20320,3e-05,6e-05,0.00015,5e-05,-0.00074,-0.00096,-5e-05,3e-05,4,20
20321,3e-05,6e-05,0.00015,5e-05,-0.00074,-0.00096,-5e-05,3e-05,4,20
20322,3e-05,6e-05,0.00015,5e-05,-0.00074,-0.00096,-5e-05,3e-05,4,20
20323,3e-05,6e-05,0.00015,5e-05,-0.00074,-0.00096,-5e-05,3e-05,4,20
20324,3e-05,6e-05,0.00015,5e-05,-0.00074,-0.00096,-5e-05,3e-05,4,20
20325,3e-05,6e-05,0.00015,5e-05,-0.00074,-0.00096,-5e-05,3e-05,4,20
20326,3e-05,6e-05,0.00015,5e-05,-0.00074,-0.00096,-5e-05,3e-05,4,20
20327,3e-05,6e-05,0.00015,5e-05,-0.00074,-0.00096,-5e-05,3e-05,4,20
20328,3e-05,6e-05,0.00015,5e-05,-0.00074,-0.00096,-5e-05,3e-05,4,20
20329,3e-05,6e-05,0.00015,5e-05,-0.00074,-0.00096,-5e-05,3e-05,4,20
20330,3e-05,6e-05,0.00015,5e-05,-0.00074,-0.00096,-5e-05,3e-05,4,20
20331,3e-05,6e-05,0.00015,5e-05,-0.00074,-0.00096,-5e-05,3e-05,4,20
20332,3e-05,6e-05,0.00015,5e-05,-0.00074,-0.00096,-5e-05,3e-05,4,20
20333,6e-05,0.00019,0.00068,-0.00025,0.00012,-0.00079,0.00012,3e-05,4,20
20334,6e-05,0.00019,0.00068,-0.00025,0.00012,-0.00079,0.00012,3e-05,4,20
20335,-8e-05,-0.00015,-0.00043,0.00054,0.00036,-0.00109,-0.00012,-6e-05,4,20
20336,-8e-05,-0.00015,-0.00043,0.00054,0.00036,-0.00109,-0.00012,-6e-05,4,20
20338,-8e-05,-0.00015,-0.00043,0.00054,0.00036,-0.00109,-0.00012,-6e-05,4,20
20340,-8e-05,-0.00015,-0.00043,0.00054,0.00036,-0.00109,-0.00012,-6e-05,4,20
20341,-8e-05,-0.00015,-0.00043,0.00054,0.00036,-0.00109,-0.00012,-6e-05,4,20
20342,-8e-05,-0.00015,-0.00043,0.00054,0.00036,-0.00109,-0.00012,-6e-05,4,20
20343,-8e-05,-0.00015,-0.00043,0.00054,0.00036,-0.00109,-0.00012,-6e-05,4,20
20344,-8e-05,-0.00015,-0.00043,0.00054,0.00036,-0.00109,-0.00012,-6e-05,4,20
20345,-8e-05,-0.00015,-0.00043,0.00054,0.00036,-0.00109,-0.00012,-6e-05,4,20
20346,-8e-05,-0.00015,-0.00043,0.00054,0.00036,-0.00109,-0.00012,-6e-05,4,20
20347,-8e-05,-0.00013,-0.00064,-0.00079,-0.00014,-0.00017,-0.00012,-6e-05,4,20
20348,-8e-05,-0.00013,-0.00064,-0.00079,-0.00014,-0.00017,-0.00012,-6e-05,4,20
20349,-8e-05,-0.00013,-0.00064,-0.00079,-0.00014,-0.00017,-0.00012,-6e-05,4,20
20350,-8e-05,-0.00013,-0.00064,-0.00079,-0.00014,-0.00017,-0.00012,-6e-05,4,20
20351,-8e-05,-0.00013,-0.00064,-0.00079,-0.00014,-0.00017,-0.00012,-6e-05,4,20
20352,-8e-05,-0.00013,-0.00064,-0.00079,-0.00014,-0.00017,-0.00012,-6e-05,4,20
20353,-8e-05,-0.00013,-0.00064,-0.00079,-0.00014,-0.00017,-0.00012,-6e-05,4,20
20354,-8e-05,-0.00013,-0.00064,-0.00079,-0.00014,-0.00017,-0.00012,-6e-05,4,20
20355,-8e-05,-0.00013,-0.00064,-0.00079,-0.00014,-0.00017,-0.00012,-6e-05,4,20
20356,-8e-05,-0.00013,-0.00064,-0.00079,-0.00014,-0.00017,-0.00012,-6e-05,4,20
20357,-8e-05,-0.00013,-0.00064,-0.00079,-0.00014,-0.00017,-0.00012,-6e-05,4,20
20358,-8e-05,-0.00013,-0.00064,-0.00079,-0.00014,-0.00017,-0.00012,-6e-05,4,20
20359,-8e-05,-0.00013,-0.00064,-0.00079,-0.00014,-0.00017,-0.00012,-6e-05,4,20
20360,-8e-05,-0.00013,-0.00064,-0.00079,-0.00014,-0.00017,-0.00012,-6e-05,4,20
20361,-8e-05,-0.00013,-0.00064,-0.00079,-0.00014,-0.00017,-0.00012,-6e-05,4,20
20362,-8e-05,-0.00013,-0.00064,-0.00079,-0.00014,-0.00017,-0.00012,-6e-05,4,20
20363,3e-05,8e-05,0.00017,0.00027,0.00018,-0.00022,-5e-05,-1e-05,4,20
20364,3e-05,8e-05,0.00017,0.00027,0.00018,-0.00022,-5e-05,-1e-05,4,20
20365,3e-05,8e-05,0.00017,0.00027,0.00018,-0.00022,-5e-05,-1e-05,4,20
20366,3e-05,8e-05,0.00017,0.00027,0.00018,-0.00022,-5e-05,-1e-05,4,20
20367,3e-05,8e-05,0.00017,0.00027,0.00018,-0.00022,-5e-05,-1e-05,4,20
20368,3e-05,8e-05,0.00017,0.00027,0.00018,-0.00022,-5e-05,-1e-05,4,20
20369,3e-05,8e-05,0.00017,0.00027,0.00018,-0.00022,-5e-05,-1e-05,4,20
20370,3e-05,8e-05,0.00017,0.00027,0.00018,-0.00022,-5e-05,-1e-05,4,20
20371,1e-05,-8e-05,-0.00051,-0.00079,-0.00064,0.0002,5e-05,2e-05,4,20
20372,6e-05,0.0001,0.00019,-0.00108,0.0002,0.00038,0.00023,8e-05,4,20
20373,6e-05,0.0001,0.00019,-0.00108,0.0002,0.00038,0.00023,8e-05,4,20
20374,6e-05,0.0001,0.00019,-0.00108,0.0002,0.00038,0.00023,8e-05,4,20
20375,6e-05,0.0001,0.00019,-0.00108,0.0002,0.00038,0.00023,8e-05,4,20
20376,6e-05,0.0001,0.00019,-0.00108,0.0002,0.00038,0.00023,8e-05,4,20
20377,6e-05,0.0001,0.00019,-0.00108,0.0002,0.00038,0.00023,8e-05,4,20
20378,6e-05,0.0001,0.00019,-0.00108,0.0002,0.00038,0.00023,8e-05,4,20
20379,6e-05,0.0001,0.00019,-0.00108,0.0002,0.00038,0.00023,8e-05,4,20
20380,6e-05,0.0001,0.00019,-0.00108,0.0002,0.00038,0.00023,8e-05,4,20
20381,6e-05,0.0001,0.00019,-0.00108,0.0002,0.00038,0.00023,8e-05,4,20
20382,6e-05,0.0001,0.00019,-0.00108,0.0002,0.00038,0.00023,8e-05,4,20
20383,6e-05,0.0001,0.00019,-0.00108,0.0002,0.00038,0.00023,8e-05,4,20
20384,6e-05,0.0001,0.00019,-0.00108,0.0002,0.00038,0.00023,8e-05,4,20
20385,6e-05,0.0001,0.00019,-0.00108,0.0002,0.00038,0.00023,8e-05,4,20
20386,6e-05,0.0001,0.00019,-0.00108,0.0002,0.00038,0.00023,8e-05,4,20
20388,6e-05,0.0001,0.00019,-0.00108,0.0002,0.00038,0.00023,8e-05,4,20
20389,6e-05,0.0001,0.00019,-0.00108,0.0002,0.00038,0.00023,8e-05,4,20
20390,6e-05,0.0001,0.00019,-0.00108,0.0002,0.00038,0.00023,8e-05,4,20
20391,6e-05,0.0001,0.00019,-0.00108,0.0002,0.00038,0.00023,8e-05,4,20
20392,6e-05,0.0001,0.00019,-0.00108,0.0002,0.00038,0.00023,8e-05,4,20
20393,-0.00012,-0.00021,-0.00045,-0.00109,-0.00042,-0.0004,-0.00025,-0.00013,4,20
20394,5e-05,9e-05,0.00024,0.00127,0.00107,0.00065,0.00028,0.00011,4,20
20395,-4e-05,-4e-05,-3e-05,-0.00077,0.0003,-0.00046,-3e-05,-4e-05,4,20
20396,-4e-05,-4e-05,-3e-05,-0.00077,0.0003,-0.00046,-3e-05,-4e-05,4,20
20397,-4e-05,-4e-05,-3e-05,-0.00077,0.0003,-0.00046,-3e-05,-4e-05,4,20
20398,-4e-05,-4e-05,-3e-05,-0.00077,0.0003,-0.00046,-3e-05,-4e-05,4,20
20399,-4e-05,-4e-05,-3e-05,-0.00077,0.0003,-0.00046,-3e-05,-4e-05,4,20
20400,-4e-05,-4e-05,-3e-05,-0.00077,0.0003,-0.00046,-3e-05,-4e-05,4,20
20401,-4e-05,-4e-05,-3e-05,-0.00077,0.0003,-0.00046,-3e-05,-4e-05,4,20
20402,-4e-05,-4e-05,-3e-05,-0.00077,0.0003,-0.00046,-3e-05,-4e-05,4,20
20403,-4e-05,-4e-05,-3e-05,-0.00077,0.0003,-0.00046,-3e-05,-4e-05,4,20
20404,-4e-05,-4e-05,-3e-05,-0.00077,0.0003,-0.00046,-3e-05,-4e-05,4,20
20405,-4e-05,-4e-05,-3e-05,-0.00077,0.0003,-0.00046,-3e-05,-4e-05,4,20
20406,-4e-05,-4e-05,-3e-05,-0.00077,0.0003,-0.00046,-3e-05,-4e-05,4,20
20407,-4e-05,-4e-05,-3e-05,-0.00077,0.0003,-0.00046,-3e-05,-4e-05,4,20
20408,-4e-05,-4e-05,-3e-05,-0.00077,0.0003,-0.00046,-3e-05,-4e-05,4,20
20409,-4e-05,-4e-05,-3e-05,-0.00077,0.0003,-0.00046,-3e-05,-4e-05,4,20
20410,-4e-05,-4e-05,-3e-05,-0.00077,0.0003,-0.00046,-3e-05,-4e-05,4,20
20411,-4e-05,-4e-05,-3e-05,-0.00077,0.0003,-0.00046,-3e-05,-4e-05,4,20
20412,-4e-05,-4e-05,-3e-05,-0.00077,0.0003,-0.00046,-3e-05,-4e-05,4,20
20413,-4e-05,-4e-05,-3e-05,-0.00077,0.0003,-0.00046,-3e-05,-4e-05,4,20
20414,-4e-05,-4e-05,-3e-05,-0.00077,0.0003,-0.00046,-3e-05,-4e-05,4,20
20415,-4e-05,-4e-05,-3e-05,-0.00077,0.0003,-0.00046,-3e-05,-4e-05,4,20
20416,-7e-05,-0.00016,-0.00035,-0.00017,0.00043,0.00049,-8e-05,-0.00011,4,20
20417,6e-05,0.00017,0.00058,0.00053,-0.00038,0.00019,6e-05,2e-05,4,20
20418,0.00011,0.0002,0.0003,0.00063,0.00034,8e-05,0.0002,0.00012,4,20
20419,0.00011,0.0002,0.0003,0.00063,0.00034,8e-05,0.0002,0.00012,4,20
20420,0.00011,0.0002,0.0003,0.00063,0.00034,8e-05,0.0002,0.00012,4,20
20421,0.00011,0.0002,0.0003,0.00063,0.00034,8e-05,0.0002,0.00012,4,20
20422,0.00011,0.0002,0.0003,0.00063,0.00034,8e-05,0.0002,0.00012,4,20
20423,0.00011,0.0002,0.0003,0.00063,0.00034,8e-05,0.0002,0.00012,4,20
20424,0.00011,0.0002,0.0003,0.00063,0.00034,8e-05,0.0002,0.00012,4,20
20425,0.00011,0.0002,0.0003,0.00063,0.00034,8e-05,0.0002,0.00012,4,20
20426,0.00011,0.0002,0.0003,0.00063,0.00034,8e-05,0.0002,0.00012,4,20
20427,0.00011,0.0002,0.0003,0.00063,0.00034,8e-05,0.0002,0.00012,4,20
20428,0.00011,0.0002,0.0003,0.00063,0.00034,8e-05,0.0002,0.00012,4,20
20429,0.00011,0.0002,0.0003,0.00063,0.00034,8e-05,0.0002,0.00012,4,20
20430,0.00011,0.0002,0.0003,0.00063,0.00034,8e-05,0.0002,0.00012,4,20
20431,0.00011,0.0002,0.0003,0.00063,0.00034,8e-05,0.0002,0.00012,4,20
20432,0.00011,0.0002,0.0003,0.00063,0.00034,8e-05,0.0002,0.00012,4,20
20433,0.00011,0.0002,0.0003,0.00063,0.00034,8e-05,0.0002,0.00012,4,20
20434,0.00011,0.0002,0.0003,0.00063,0.00034,8e-05,0.0002,0.00012,4,20
20435,0.00011,0.0002,0.0003,0.00063,0.00034,8e-05,0.0002,0.00012,4,20
20436,0.00011,0.0002,0.0003,0.00063,0.00034,8e-05,0.0002,0.00012,4,20
20438,0.00011,0.0002,0.0003,0.00063,0.00034,8e-05,0.0002,0.00012,4,20
20439,0.00011,0.0002,0.0003,0.00063,0.00034,8e-05,0.0002,0.00012,4,20
20440,0.00011,0.0002,0.0003,0.00063,0.00034,8e-05,0.0002,0.00012,4,20
20441,0.00011,0.0002,0.0003,0.00063,0.00034,8e-05,0.0002,0.00012,4,20
20442,0.00011,0.0002,0.0003,0.00063,0.00034,8e-05,0.0002,0.00012,4,20
20443,0.00011,0.0002,0.0003,0.00063,0.00034,8e-05,0.0002,0.00012,4,20
20444,0.00011,0.0002,0.0003,0.00063,0.00034,8e-05,0.0002,0.00012,4,20
20445,0.00011,0.0002,0.0003,0.00063,0.00034,8e-05,0.0002,0.00012,4,20
20446,-3e-05,-4e-05,-9e-05,0.00035,-0.0002,-0.0011,-0.00011,-1e-05,4,20
20447,1e-05,9e-05,0.00037,0.00058,0.0005,0.00062,3e-05,0,4,20
20448,-0.00018,-0.00045,-0.00078,-0.00058,-0.00041,2e-05,-0.00011,-0.00013,4,20
20449,-0.00018,-0.00045,-0.00078,-0.00058,-0.00041,2e-05,-0.00011,-0.00013,4,20
20450,-0.00018,-0.00045,-0.00078,-0.00058,-0.00041,2e-05,-0.00011,-0.00013,4,20
20451,-0.00018,-0.00045,-0.00078,-0.00058,-0.00041,2e-05,-0.00011,-0.00013,4,20
20452,-0.00018,-0.00045,-0.00078,-0.00058,-0.00041,2e-05,-0.00011,-0.00013,4,20
20453,8e-05,0.00023,0.00092,0.00127,0.00048,-0.00056,-0.0002,0,4,20
20454,8e-05,0.00023,0.00092,0.00127,0.00048,-0.00056,-0.0002,0,4,20
20455,-8e-05,-0.00013,-0.00039,0.00037,-5e-05,-3e-05,-6e-05,-7e-05,4,20
20456,-8e-05,-0.00013,-0.00039,0.00037,-5e-05,-3e-05,-6e-05,-7e-05,4,20
20457,-8e-05,-0.00013,-0.00039,0.00037,-5e-05,-3e-05,-6e-05,-7e-05,4,20
20459,-8e-05,-0.00013,-0.00039,0.00037,-5e-05,-3e-05,-6e-05,-7e-05,4,20
20461,-8e-05,-0.00013,-0.00039,0.00037,-5e-05,-3e-05,-6e-05,-7e-05,4,20
20462,-8e-05,-0.00013,-0.00039,0.00037,-5e-05,-3e-05,-6e-05,-7e-05,4,20
20463,-8e-05,-0.00013,-0.00039,0.00037,-5e-05,-3e-05,-6e-05,-7e-05,4,20
20464,-8e-05,-0.00013,-0.00039,0.00037,-5e-05,-3e-05,-6e-05,-7e-05,4,20
20465,-8e-05,-0.00013,-0.00039,0.00037,-5e-05,-3e-05,-6e-05,-7e-05,4,20
20466,-8e-05,-0.00013,-0.00039,0.00037,-5e-05,-3e-05,-6e-05,-7e-05,4,20
20467,-8e-05,-0.00013,-0.00039,0.00037,-5e-05,-3e-05,-6e-05,-7e-05,4,20
20468,-8e-05,-0.00013,-0.00039,0.00037,-5e-05,-3e-05,-6e-05,-7e-05,4,20
20469,-8e-05,-0.00013,-0.00039,0.00037,-5e-05,-3e-05,-6e-05,-7e-05,4,20
20470,-8e-05,-0.00013,-0.00039,0.00037,-5e-05,-3e-05,-6e-05,-7e-05,4,20
20471,-8e-05,-0.00013,-0.00039,0.00037,-5e-05,-3e-05,-6e-05,-7e-05,4,20
20472,-8e-05,-0.00013,-0.00039,0.00037,-5e-05,-3e-05,-6e-05,-7e-05,4,20
20473,-8e-05,-0.00013,-0.00039,0.00037,-5e-05,-3e-05,-6e-05,-7e-05,4,20
20474,-8e-05,-0.00013,-0.00039,0.00037,-5e-05,-3e-05,-6e-05,-7e-05,4,20
20475,-8e-05,-0.00013,-0.00039,0.00037,-5e-05,-3e-05,-6e-05,-7e-05,4,20
20476,-9e-05,-0.00017,-0.00044,0.00067,0.00025,0.00014,-5e-05,-4e-05,4,20
20477,-2e-05,-5e-05,-0.00011,-0.00033,0.00054,-0.00036,-0.0001,-1e-05,4,20
20478,-2e-05,-5e-05,-0.00011,-0.00033,0.00054,-0.00036,-0.0001,-1e-05,4,20
20479,-2e-05,-5e-05,-0.00011,-0.00033,0.00054,-0.00036,-0.0001,-1e-05,4,20
20480,-2e-05,-5e-05,-0.00011,-0.00033,0.00054,-0.00036,-0.0001,-1e-05,4,20
20481,-2e-05,-5e-05,-0.00011,-0.00033,0.00054,-0.00036,-0.0001,-1e-05,4,20
20482,-2e-05,-5e-05,-0.00011,-0.00033,0.00054,-0.00036,-0.0001,-1e-05,4,20
20483,-2e-05,-5e-05,-0.00011,-0.00033,0.00054,-0.00036,-0.0001,-1e-05,4,20
20484,-2e-05,-5e-05,-0.00011,-0.00033,0.00054,-0.00036,-0.0001,-1e-05,4,20
20485,-2e-05,-5e-05,-0.00011,-0.00033,0.00054,-0.00036,-0.0001,-1e-05,4,20
20486,-2e-05,-5e-05,-0.00011,-0.00033,0.00054,-0.00036,-0.0001,-1e-05,4,20
20488,-2e-05,-5e-05,-0.00011,-0.00033,0.00054,-0.00036,-0.0001,-1e-05,4,20
20489,-2e-05,-5e-05,-0.00011,-0.00033,0.00054,-0.00036,-0.0001,-1e-05,4,20
20490,-2e-05,-5e-05,-0.00011,-0.00033,0.00054,-0.00036,-0.0001,-1e-05,4,20
20491,-2e-05,-5e-05,-0.00011,-0.00033,0.00054,-0.00036,-0.0001,-1e-05,4,20
20492,-2e-05,-5e-05,-0.00011,-0.00033,0.00054,-0.00036,-0.0001,-1e-05,4,20
20493,-2e-05,1e-05,0.00011,0.00118,0.00066,-0.00039,-0.00017,-3e-05,4,20
20494,-2e-05,1e-05,0.00011,0.00118,0.00066,-0.00039,-0.00017,-3e-05,4,20
20495,-2e-05,1e-05,0.00011,0.00118,0.00066,-0.00039,-0.00017,-3e-05,4,20
20496,-2e-05,1e-05,0.00011,0.00118,0.00066,-0.00039,-0.00017,-3e-05,4,20
20497,-2e-05,1e-05,0.00011,0.00118,0.00066,-0.00039,-0.00017,-3e-05,4,20
20498,-2e-05,1e-05,0.00011,0.00118,0.00066,-0.00039,-0.00017,-3e-05,4,20
20499,-2e-05,1e-05,0.00011,0.00118,0.00066,-0.00039,-0.00017,-3e-05,4,20
20500,-2e-05,1e-05,0.00011,0.00118,0.00066,-0.00039,-0.00017,-3e-05,4,20
20501,-2e-05,1e-05,0.00011,0.00118,0.00066,-0.00039,-0.00017,-3e-05,4,20
20502,-2e-05,1e-05,0.00011,0.00118,0.00066,-0.00039,-0.00017,-3e-05,4,20
20503,-2e-05,1e-05,0.00011,0.00118,0.00066,-0.00039,-0.00017,-3e-05,4,20
20504,-2e-05,1e-05,0.00011,0.00118,0.00066,-0.00039,-0.00017,-3e-05,4,20
20505,-2e-05,1e-05,0.00011,0.00118,0.00066,-0.00039,-0.00017,-3e-05,4,20
20506,-2e-05,1e-05,0.00011,0.00118,0.00066,-0.00039,-0.00017,-3e-05,4,20
20507,-2e-05,1e-05,0.00011,0.00118,0.00066,-0.00039,-0.00017,-3e-05,4,20
20508,-2e-05,1e-05,0.00011,0.00118,0.00066,-0.00039,-0.00017,-3e-05,4,20
20509,-2e-05,1e-05,0.00011,0.00118,0.00066,-0.00039,-0.00017,-3e-05,4,20
20510,-2e-05,1e-05,0.00011,0.00118,0.00066,-0.00039,-0.00017,-3e-05,4,20
20511,-2e-05,1e-05,0.00011,0.00118,0.00066,-0.00039,-0.00017,-3e-05,4,20
20512,-2e-05,1e-05,0.00011,0.00118,0.00066,-0.00039,-0.00017,-3e-05,4,20
20513,0,6e-05,0.00023,0.00095,0.00017,0,7e-05,0,4,20
20514,-0.00014,-0.00028,-0.00075,0.00018,0.00093,-9e-05,-0.0001,-0.00014,4,20
20515,0.00016,0.00025,0.00044,0.00064,2e-05,0.00127,0.00021,0.0001,4,20
20516,0.00016,0.00025,0.00044,0.00064,2e-05,0.00127,0.00021,0.0001,4,20
20517,0.00016,0.00025,0.00044,0.00064,2e-05,0.00127,0.00021,0.0001,4,20
20518,0.00016,0.00025,0.00044,0.00064,2e-05,0.00127,0.00021,0.0001,4,20
20519,0.00016,0.00025,0.00044,0.00064,2e-05,0.00127,0.00021,0.0001,4,20
20520,0.00016,0.00025,0.00044,0.00064,2e-05,0.00127,0.00021,0.0001,4,20
20521,0.00016,0.00025,0.00044,0.00064,2e-05,0.00127,0.00021,0.0001,4,20
20522,0.00016,0.00025,0.00044,0.00064,2e-05,0.00127,0.00021,0.0001,4,20
20523,0.00016,0.00025,0.00044,0.00064,2e-05,0.00127,0.00021,0.0001,4,20
20524,0.00016,0.00025,0.00044,0.00064,2e-05,0.00127,0.00021,0.0001,4,20
20525,0.00016,0.00025,0.00044,0.00064,2e-05,0.00127,0.00021,0.0001,4,20
20526,0.00016,0.00025,0.00044,0.00064,2e-05,0.00127,0.00021,0.0001,4,20
20527,0.00016,0.00025,0.00044,0.00064,2e-05,0.00127,0.00021,0.0001,4,20
20528,0.00016,0.00025,0.00044,0.00064,2e-05,0.00127,0.00021,0.0001,4,20
20529,0.00016,0.00025,0.00044,0.00064,2e-05,0.00127,0.00021,0.0001,4,20
20530,0.00016,0.00025,0.00044,0.00064,2e-05,0.00127,0.00021,0.0001,4,20
20531,0.00016,0.00025,0.00044,0.00064,2e-05,0.00127,0.00021,0.0001,4,20
20532,0.00016,0.00025,0.00044,0.00064,2e-05,0.00127,0.00021,0.0001,4,20
20533,0.00016,0.00025,0.00044,0.00064,2e-05,0.00127,0.00021,0.0001,4,20
20534,0.00016,0.00025,0.00044,0.00064,2e-05,0.00127,0.00021,0.0001,4,20
20535,0.00016,0.00025,0.00044,0.00064,2e-05,0.00127,0.00021,0.0001,4,20
20537,0,0,1e-05,-0.0003,-0.00035,-0.0005,-0.00018,-2e-05,4,20
20540,-0.00011,-0.00014,-0.00032,-0.00039,0.00027,-0.00054,-6e-05,-9e-05,4,20
20541,-0.00011,-0.00014,-0.00032,-0.00039,0.00027,-0.00054,-6e-05,-9e-05,4,20
20542,-0.00011,-0.00014,-0.00032,-0.00039,0.00027,-0.00054,-6e-05,-9e-05,4,20
20543,-0.00011,-0.00014,-0.00032,-0.00039,0.00027,-0.00054,-6e-05,-9e-05,4,20
20544,-0.00011,-0.00014,-0.00032,-0.00039,0.00027,-0.00054,-6e-05,-9e-05,4,20
20545,-0.00011,-0.00014,-0.00032,-0.00039,0.00027,-0.00054,-6e-05,-9e-05,4,20
20546,-0.00011,-0.00014,-0.00032,-0.00039,0.00027,-0.00054,-6e-05,-9e-05,4,20
20547,-0.00011,-0.00014,-0.00032,-0.00039,0.00027,-0.00054,-6e-05,-9e-05,4,20
20548,-0.00011,-0.00014,-0.00032,-0.00039,0.00027,-0.00054,-6e-05,-9e-05,4,20
20549,-0.00011,-0.00014,-0.00032,-0.00039,0.00027,-0.00054,-6e-05,-9e-05,4,20
20550,-0.00011,-0.00014,-0.00032,-0.00039,0.00027,-0.00054,-6e-05,-9e-05,4,20
20551,3e-05,6e-05,0.00018,-0.00074,-7e-05,0.00048,1e-05,0,4,20
20552,3e-05,6e-05,0.00018,-0.00074,-7e-05,0.00048,1e-05,0,4,20
20553,1e-05,8e-05,0.0004,0.00076,-0.00023,-0.00023,1e-05,2e-05,4,20
20554,1e-05,8e-05,0.0004,0.00076,-0.00023,-0.00023,1e-05,2e-05,4,20
20555,1e-05,8e-05,0.0004,0.00076,-0.00023,-0.00023,1e-05,2e-05,4,20
20556,1e-05,8e-05,0.0004,0.00076,-0.00023,-0.00023,1e-05,2e-05,4,20
20557,1e-05,8e-05,0.0004,0.00076,-0.00023,-0.00023,1e-05,2e-05,4,20
20558,1e-05,8e-05,0.0004,0.00076,-0.00023,-0.00023,1e-05,2e-05,4,20
20559,1e-05,8e-05,0.0004,0.00076,-0.00023,-0.00023,1e-05,2e-05,4,20
20560,1e-05,8e-05,0.0004,0.00076,-0.00023,-0.00023,1e-05,2e-05,4,20
20561,1e-05,8e-05,0.0004,0.00076,-0.00023,-0.00023,1e-05,2e-05,4,20
20562,1e-05,8e-05,0.0004,0.00076,-0.00023,-0.00023,1e-05,2e-05,4,20
20563,1e-05,8e-05,0.0004,0.00076,-0.00023,-0.00023,1e-05,2e-05,4,20
20564,1e-05,8e-05,0.0004,0.00076,-0.00023,-0.00023,1e-05,2e-05,4,20
20565,1e-05,8e-05,0.0004,0.00076,-0.00023,-0.00023,1e-05,2e-05,4,20
20566,1e-05,8e-05,0.0004,0.00076,-0.00023,-0.00023,1e-05,2e-05,4,20
20567,1e-05,8e-05,0.0004,0.00076,-0.00023,-0.00023,1e-05,2e-05,4,20
20568,1e-05,8e-05,0.0004,0.00076,-0.00023,-0.00023,1e-05,2e-05,4,20
20569,1e-05,8e-05,0.0004,0.00076,-0.00023,-0.00023,1e-05,2e-05,4,20
20570,1e-05,8e-05,0.0004,0.00076,-0.00023,-0.00023,1e-05,2e-05,4,20
20571,1e-05,8e-05,0.0004,0.00076,-0.00023,-0.00023,1e-05,2e-05,4,20
20572,1e-05,8e-05,0.0004,0.00076,-0.00023,-0.00023,1e-05,2e-05,4,20
20573,4e-05,8e-05,0.0004,0.00099,0.00065,0.0007,-1e-05,3e-05,4,20
20574,4e-05,8e-05,0.0004,0.00099,0.00065,0.0007,-1e-05,3e-05,4,20
20575,4e-05,8e-05,0.0004,0.00099,0.00065,0.0007,-1e-05,3e-05,4,20
20576,-6e-05,-5e-05,0.0001,0.00082,0.00115,-0.00028,-0.00026,-9e-05,4,20
20577,-6e-05,-5e-05,0.0001,0.00082,0.00115,-0.00028,-0.00026,-9e-05,4,20
20578,-6e-05,-5e-05,0.0001,0.00082,0.00115,-0.00028,-0.00026,-9e-05,4,20
20579,-6e-05,-5e-05,0.0001,0.00082,0.00115,-0.00028,-0.00026,-9e-05,4,20
20580,-6e-05,-5e-05,0.0001,0.00082,0.00115,-0.00028,-0.00026,-9e-05,4,20
20581,-6e-05,-5e-05,0.0001,0.00082,0.00115,-0.00028,-0.00026,-9e-05,4,20
20582,-6e-05,-5e-05,0.0001,0.00082,0.00115,-0.00028,-0.00026,-9e-05,4,20
20583,-6e-05,-5e-05,0.0001,0.00082,0.00115,-0.00028,-0.00026,-9e-05,4,20
20584,-6e-05,-5e-05,0.0001,0.00082,0.00115,-0.00028,-0.00026,-9e-05,4,20
20585,-6e-05,-5e-05,0.0001,0.00082,0.00115,-0.00028,-0.00026,-9e-05,4,20
20586,-6e-05,-5e-05,0.0001,0.00082,0.00115,-0.00028,-0.00026,-9e-05,4,20
20588,-6e-05,-5e-05,0.0001,0.00082,0.00115,-0.00028,-0.00026,-9e-05,4,20
20590,-6e-05,-5e-05,0.0001,0.00082,0.00115,-0.00028,-0.00026,-9e-05,4,20
20591,-6e-05,-5e-05,0.0001,0.00082,0.00115,-0.00028,-0.00026,-9e-05,4,20
20592,-6e-05,-5e-05,0.0001,0.00082,0.00115,-0.00028,-0.00026,-9e-05,4,20
20593,-6e-05,-5e-05,0.0001,0.00082,0.00115,-0.00028,-0.00026,-9e-05,4,20
20594,-6e-05,-5e-05,0.0001,0.00082,0.00115,-0.00028,-0.00026,-9e-05,4,20
20595,-6e-05,-5e-05,0.0001,0.00082,0.00115,-0.00028,-0.00026,-9e-05,4,20
20596,-0.0001,-0.00021,-0.00073,-0.00128,-0.00044,-0.00039,-9e-05,-5e-05,4,20
20597,7e-05,0.00026,0.0009,0.00045,-0.00071,-0.0008,-8e-05,3e-05,4,20
20598,4e-05,3e-05,-2e-05,0.00028,-7e-05,0.00091,0.00014,4e-05,4,20
20599,4e-05,3e-05,-2e-05,0.00028,-7e-05,0.00091,0.00014,4e-05,4,20
20600,4e-05,3e-05,-2e-05,0.00028,-7e-05,0.00091,0.00014,4e-05,4,20
20601,4e-05,3e-05,-2e-05,0.00028,-7e-05,0.00091,0.00014,4e-05,4,20
20602,4e-05,3e-05,-2e-05,0.00028,-7e-05,0.00091,0.00014,4e-05,4,20
20603,4e-05,3e-05,-2e-05,0.00028,-7e-05,0.00091,0.00014,4e-05,4,20
20604,4e-05,3e-05,-2e-05,0.00028,-7e-05,0.00091,0.00014,4e-05,4,20
20605,4e-05,3e-05,-2e-05,0.00028,-7e-05,0.00091,0.00014,4e-05,4,20
20606,4e-05,3e-05,-2e-05,0.00028,-7e-05,0.00091,0.00014,4e-05,4,20
20607,4e-05,3e-05,-2e-05,0.00028,-7e-05,0.00091,0.00014,4e-05,4,20
20608,4e-05,3e-05,-2e-05,0.00028,-7e-05,0.00091,0.00014,4e-05,4,20
20609,4e-05,3e-05,-2e-05,0.00028,-7e-05,0.00091,0.00014,4e-05,4,20
20610,4e-05,3e-05,-2e-05,0.00028,-7e-05,0.00091,0.00014,4e-05,4,20
20611,3e-05,4e-05,9e-05,0.00058,-0.00014,0.00015,0.0001,4e-05,4,20
20612,3e-05,4e-05,9e-05,0.00058,-0.00014,0.00015,0.0001,4e-05,4,20
20613,3e-05,4e-05,9e-05,0.00058,-0.00014,0.00015,0.0001,4e-05,4,20
20614,3e-05,4e-05,9e-05,0.00058,-0.00014,0.00015,0.0001,4e-05,4,20
20615,3e-05,4e-05,9e-05,0.00058,-0.00014,0.00015,0.0001,4e-05,4,20
20616,3e-05,4e-05,9e-05,0.00058,-0.00014,0.00015,0.0001,4e-05,4,20
20617,-4e-05,-9e-05,-0.00052,0.00074,0.00052,-0.00046,8e-05,-2e-05,4,20
20618,-4e-05,-9e-05,-0.00052,0.00074,0.00052,-0.00046,8e-05,-2e-05,4,20
20619,-4e-05,-9e-05,-0.00052,0.00074,0.00052,-0.00046,8e-05,-2e-05,4,20
20620,-4e-05,-9e-05,-0.00052,0.00074,0.00052,-0.00046,8e-05,-2e-05,4,20
20621,-4e-05,-9e-05,-0.00052,0.00074,0.00052,-0.00046,8e-05,-2e-05,4,20
20622,-4e-05,-9e-05,-0.00052,0.00074,0.00052,-0.00046,8e-05,-2e-05,4,20
20623,-4e-05,-9e-05,-0.00052,0.00074,0.00052,-0.00046,8e-05,-2e-05,4,20
20624,-4e-05,-9e-05,-0.00052,0.00074,0.00052,-0.00046,8e-05,-2e-05,4,20
20625,-4e-05,-9e-05,-0.00052,0.00074,0.00052,-0.00046,8e-05,-2e-05,4,20
20626,-4e-05,-9e-05,-0.00052,0.00074,0.00052,-0.00046,8e-05,-2e-05,4,20
20627,-4e-05,-9e-05,-0.00052,0.00074,0.00052,-0.00046,8e-05,-2e-05,4,20
20628,-4e-05,-9e-05,-0.00052,0.00074,0.00052,-0.00046,8e-05,-2e-05,4,20
20629,-4e-05,-9e-05,-0.00052,0.00074,0.00052,-0.00046,8e-05,-2e-05,4,20
20630,-4e-05,-9e-05,-0.00052,0.00074,0.00052,-0.00046,8e-05,-2e-05,4,20
20631,-4e-05,-9e-05,-0.00052,0.00074,0.00052,-0.00046,8e-05,-2e-05,4,20
20632,-4e-05,-9e-05,-0.00052,0.00074,0.00052,-0.00046,8e-05,-2e-05,4,20
20633,-4e-05,-9e-05,-0.00052,0.00074,0.00052,-0.00046,8e-05,-2e-05,4,20
20634,-4e-05,-9e-05,-0.00052,0.00074,0.00052,-0.00046,8e-05,-2e-05,4,20
20635,-4e-05,-9e-05,-0.00052,0.00074,0.00052,-0.00046,8e-05,-2e-05,4,20
20636,-4e-05,-9e-05,-0.00052,0.00074,0.00052,-0.00046,8e-05,-2e-05,4,20
20638,-4e-05,-9e-05,-0.00052,0.00074,0.00052,-0.00046,8e-05,-2e-05,4,20
20640,-4e-05,-9e-05,-0.00052,0.00074,0.00052,-0.00046,8e-05,-2e-05,4,20
20641,-8e-05,-8e-05,0.00022,0.00102,-0.00041,-0.00014,-0.00018,-0.0001,4,20
20642,-8e-05,-8e-05,0.00022,0.00102,-0.00041,-0.00014,-0.00018,-0.0001,4,20
20643,3e-05,6e-05,0.00043,0.00076,-0.0007,-0.00027,-1e-05,0,4,20
20644,3e-05,6e-05,0.00043,0.00076,-0.0007,-0.00027,-1e-05,0,4,20
20646,3e-05,6e-05,0.00043,0.00076,-0.0007,-0.00027,-1e-05,0,4,20
20647,3e-05,6e-05,0.00043,0.00076,-0.0007,-0.00027,-1e-05,0,4,20
20648,3e-05,6e-05,0.00043,0.00076,-0.0007,-0.00027,-1e-05,0,4,20
20649,3e-05,6e-05,0.00043,0.00076,-0.0007,-0.00027,-1e-05,0,4,20
20650,3e-05,6e-05,0.00043,0.00076,-0.0007,-0.00027,-1e-05,0,4,20
20651,3e-05,6e-05,0.00043,0.00076,-0.0007,-0.00027,-1e-05,0,4,20
20652,3e-05,6e-05,0.00043,0.00076,-0.0007,-0.00027,-1e-05,0,4,20
20653,3e-05,6e-05,0.00043,0.00076,-0.0007,-0.00027,-1e-05,0,4,20
20654,3e-05,6e-05,0.00043,0.00076,-0.0007,-0.00027,-1e-05,0,4,20
20655,3e-05,6e-05,0.00043,0.00076,-0.0007,-0.00027,-1e-05,0,4,20
20656,-4e-05,-5e-05,-0.0001,-0.00032,0.00098,-1e-05,-0.00019,-8e-05,4,20
20657,-4e-05,-5e-05,-0.0001,-0.00032,0.00098,-1e-05,-0.00019,-8e-05,4,20
20658,-4e-05,-5e-05,-0.0001,-0.00032,0.00098,-1e-05,-0.00019,-8e-05,4,20
20659,-4e-05,-5e-05,-0.0001,-0.00032,0.00098,-1e-05,-0.00019,-8e-05,4,20
20660,-4e-05,-5e-05,-0.0001,-0.00032,0.00098,-1e-05,-0.00019,-8e-05,4,20
20661,-4e-05,-5e-05,-0.0001,-0.00032,0.00098,-1e-05,-0.00019,-8e-05,4,20
20662,0,-5e-05,-0.00016,-0.00026,-0.00035,0.00083,0,-1e-05,4,20
20663,0,-5e-05,-0.00016,-0.00026,-0.00035,0.00083,0,-1e-05,4,20
20664,0,-5e-05,-0.00016,-0.00026,-0.00035,0.00083,0,-1e-05,4,20
20665,0,-5e-05,-0.00016,-0.00026,-0.00035,0.00083,0,-1e-05,4,20
20666,0,-5e-05,-0.00016,-0.00026,-0.00035,0.00083,0,-1e-05,4,20
20667,0,-5e-05,-0.00016,-0.00026,-0.00035,0.00083,0,-1e-05,4,20
20668,0,-5e-05,-0.00016,-0.00026,-0.00035,0.00083,0,-1e-05,4,20
20669,0,-5e-05,-0.00016,-0.00026,-0.00035,0.00083,0,-1e-05,4,20
20670,0,3e-05,0.00011,-0.00081,-0.00053,-0.00051,-2e-05,-1e-05,4,20
20671,0,3e-05,0.00011,-0.00081,-0.00053,-0.00051,-2e-05,-1e-05,4,20
20672,0,3e-05,0.00011,-0.00081,-0.00053,-0.00051,-2e-05,-1e-05,4,20
20673,0,3e-05,0.00011,-0.00081,-0.00053,-0.00051,-2e-05,-1e-05,4,20
20674,0,3e-05,0.00011,-0.00081,-0.00053,-0.00051,-2e-05,-1e-05,4,20
20675,0,3e-05,0.00011,-0.00081,-0.00053,-0.00051,-2e-05,-1e-05,4,20
20676,0,3e-05,0.00011,-0.00081,-0.00053,-0.00051,-2e-05,-1e-05,4,20
20677,-1e-05,5e-05,0.00013,6e-05,0.00094,0,3e-05,-1e-05,4,20
20678,-1e-05,5e-05,0.00013,6e-05,0.00094,0,3e-05,-1e-05,4,20
20679,-1e-05,5e-05,0.00013,6e-05,0.00094,0,3e-05,-1e-05,4,20
20680,-1e-05,5e-05,0.00013,6e-05,0.00094,0,3e-05,-1e-05,4,20
20681,-1e-05,5e-05,0.00013,6e-05,0.00094,0,3e-05,-1e-05,4,20
20682,-1e-05,5e-05,0.00013,6e-05,0.00094,0,3e-05,-1e-05,4,20
20683,-1e-05,5e-05,0.00013,6e-05,0.00094,0,3e-05,-1e-05,4,20
20684,-1e-05,5e-05,0.00013,6e-05,0.00094,0,3e-05,-1e-05,4,20
20685,-1e-05,5e-05,0.00013,6e-05,0.00094,0,3e-05,-1e-05,4,20
20686,-1e-05,5e-05,0.00013,6e-05,0.00094,0,3e-05,-1e-05,4,20
20688,-1e-05,5e-05,0.00013,6e-05,0.00094,0,3e-05,-1e-05,4,20
20689,-1e-05,5e-05,0.00013,6e-05,0.00094,0,3e-05,-1e-05,4,20
20690,-1e-05,5e-05,0.00013,6e-05,0.00094,0,3e-05,-1e-05,4,20
20691,-1e-05,5e-05,0.00013,6e-05,0.00094,0,3e-05,-1e-05,4,20
20692,-1e-05,5e-05,0.00013,6e-05,0.00094,0,3e-05,-1e-05,4,20
20693,-4e-05,-6e-05,-0.00022,0.00027,-0.00076,-0.00075,-0.00015,-5e-05,4,20
20694,-4e-05,-6e-05,-0.00022,0.00027,-0.00076,-0.00075,-0.00015,-5e-05,4,20
20695,1e-05,0,-0.00019,-0.00122,-0.00052,0.00076,0.00014,1e-05,4,20
20696,1e-05,0,-0.00019,-0.00122,-0.00052,0.00076,0.00014,1e-05,4,20
20697,1e-05,0,-0.00019,-0.00122,-0.00052,0.00076,0.00014,1e-05,4,20
20698,1e-05,0,-0.00019,-0.00122,-0.00052,0.00076,0.00014,1e-05,4,20
20699,1e-05,0,-0.00019,-0.00122,-0.00052,0.00076,0.00014,1e-05,4,20
20700,1e-05,0,-0.00019,-0.00122,-0.00052,0.00076,0.00014,1e-05,4,20
20701,1e-05,0,-0.00019,-0.00122,-0.00052,0.00076,0.00014,1e-05,4,20
20702,1e-05,0,-0.00019,-0.00122,-0.00052,0.00076,0.00014,1e-05,4,20
20703,1e-05,0,-0.00019,-0.00122,-0.00052,0.00076,0.00014,1e-05,4,20
20704,1e-05,0,-0.00019,-0.00122,-0.00052,0.00076,0.00014,1e-05,4,20
20705,1e-05,0,-0.00019,-0.00122,-0.00052,0.00076,0.00014,1e-05,4,20
20706,1e-05,0,-0.00019,-0.00122,-0.00052,0.00076,0.00014,1e-05,4,20
20707,1e-05,0,-0.00019,-0.00122,-0.00052,0.00076,0.00014,1e-05,4,20
20708,1e-05,0,-0.00019,-0.00122,-0.00052,0.00076,0.00014,1e-05,4,20
20709,1e-05,0,-0.00019,-0.00122,-0.00052,0.00076,0.00014,1e-05,4,20
20710,1e-05,0,-0.00019,-0.00122,-0.00052,0.00076,0.00014,1e-05,4,20
20711,1e-05,0,-0.00019,-0.00122,-0.00052,0.00076,0.00014,1e-05,4,20
20712,1e-05,0,-0.00019,-0.00122,-0.00052,0.00076,0.00014,1e-05,4,20
20713,1e-05,0,-0.00019,-0.00122,-0.00052,0.00076,0.00014,1e-05,4,20
20714,1e-05,0,-0.00019,-0.00122,-0.00052,0.00076,0.00014,1e-05,4,20
20715,1e-05,0,-0.00019,-0.00122,-0.00052,0.00076,0.00014,1e-05,4,20
20716,1e-05,0,-0.00019,-0.00122,-0.00052,0.00076,0.00014,1e-05,4,20
20717,1e-05,0,-0.00019,-0.00122,-0.00052,0.00076,0.00014,1e-05,4,20
20718,1e-05,0,-0.00019,-0.00122,-0.00052,0.00076,0.00014,1e-05,4,20
20719,1e-05,0,-0.00019,-0.00122,-0.00052,0.00076,0.00014,1e-05,4,20
20720,1e-05,0,-0.00019,-0.00122,-0.00052,0.00076,0.00014,1e-05,4,20
20721,1e-05,0,-0.00019,-0.00122,-0.00052,0.00076,0.00014,1e-05,4,20
20722,1e-05,0,-0.00019,-0.00122,-0.00052,0.00076,0.00014,1e-05,4,20
20723,-5e-05,-0.0001,-0.00026,-0.00086,-0.00049,-0.00096,-8e-05,-2e-05,4,20
20724,-5e-05,-0.0001,-0.00026,-0.00086,-0.00049,-0.00096,-8e-05,-2e-05,4,20
20725,9e-05,0.00012,0.00031,0.00056,-0.0006,-0.00044,0.0001,9e-05,4,20
20726,9e-05,0.00012,0.00031,0.00056,-0.0006,-0.00044,0.0001,9e-05,4,20
20727,9e-05,0.00012,0.00031,0.00056,-0.0006,-0.00044,0.0001,9e-05,4,20
20728,9e-05,0.00012,0.00031,0.00056,-0.0006,-0.00044,0.0001,9e-05,4,20
20729,9e-05,0.00012,0.00031,0.00056,-0.0006,-0.00044,0.0001,9e-05,4,20
20730,7e-05,0.00016,0.0005,0.00065,0.00078,-0.00012,4e-05,3e-05,4,20
20731,7e-05,0.00016,0.0005,0.00065,0.00078,-0.00012,4e-05,3e-05,4,20
20732,7e-05,0.00016,0.0005,0.00065,0.00078,-0.00012,4e-05,3e-05,4,20
20733,7e-05,0.00016,0.0005,0.00065,0.00078,-0.00012,4e-05,3e-05,4,20
20734,7e-05,0.00016,0.0005,0.00065,0.00078,-0.00012,4e-05,3e-05,4,20
20735,7e-05,0.00016,0.0005,0.00065,0.00078,-0.00012,4e-05,3e-05,4,20
20736,7e-05,0.00016,0.0005,0.00065,0.00078,-0.00012,4e-05,3e-05,4,20
20739,7e-05,0.00016,0.0005,0.00065,0.00078,-0.00012,4e-05,3e-05,4,20
20740,7e-05,0.00016,0.0005,0.00065,0.00078,-0.00012,4e-05,3e-05,4,20
20741,7e-05,0.00016,0.0005,0.00065,0.00078,-0.00012,4e-05,3e-05,4,20
20742,7e-05,0.00016,0.0005,0.00065,0.00078,-0.00012,4e-05,3e-05,4,20
20743,7e-05,0.00016,0.0005,0.00065,0.00078,-0.00012,4e-05,3e-05,4,20
20744,-4e-05,-6e-05,0,0.00029,0.00047,0.00079,0,-3e-05,4,20
20745,-9e-05,-0.00022,-0.00072,-0.00088,0.00083,-0.00112,-4e-05,-4e-05,4,20
20746,-9e-05,-0.00022,-0.00072,-0.00088,0.00083,-0.00112,-4e-05,-4e-05,4,20
20747,-9e-05,-0.00022,-0.00072,-0.00088,0.00083,-0.00112,-4e-05,-4e-05,4,20
20748,-9e-05,-0.00022,-0.00072,-0.00088,0.00083,-0.00112,-4e-05,-4e-05,4,20
20749,-9e-05,-0.00022,-0.00072,-0.00088,0.00083,-0.00112,-4e-05,-4e-05,4,20
20750,-9e-05,-0.00022,-0.00072,-0.00088,0.00083,-0.00112,-4e-05,-4e-05,4,20
20751,-9e-05,-0.00022,-0.00072,-0.00088,0.00083,-0.00112,-4e-05,-4e-05,4,20
20752,-9e-05,-0.00022,-0.00072,-0.00088,0.00083,-0.00112,-4e-05,-4e-05,4,20
20753,-9e-05,-0.0002,-0.00073,-0.00099,-0.00037,-0.00074,-1e-05,-3e-05,4,20
20754,-9e-05,-0.0002,-0.00073,-0.00099,-0.00037,-0.00074,-1e-05,-3e-05,4,20
20755,-1e-05,6e-05,0.00024,0.001,7e-05,-0.00072,-0.00014,-5e-05,4,20
20756,-1e-05,6e-05,0.00024,0.001,7e-05,-0.00072,-0.00014,-5e-05,4,20
20757,-1e-05,6e-05,0.00024,0.001,7e-05,-0.00072,-0.00014,-5e-05,4,20
20758,-1e-05,6e-05,0.00024,0.001,7e-05,-0.00072,-0.00014,-5e-05,4,20
20759,-1e-05,6e-05,0.00024,0.001,7e-05,-0.00072,-0.00014,-5e-05,4,20
20760,-1e-05,6e-05,0.00024,0.001,7e-05,-0.00072,-0.00014,-5e-05,4,20
20761,-1e-05,6e-05,0.00024,0.001,7e-05,-0.00072,-0.00014,-5e-05,4,20
20762,-1e-05,6e-05,0.00024,0.001,7e-05,-0.00072,-0.00014,-5e-05,4,20
20763,-1e-05,6e-05,0.00024,0.001,7e-05,-0.00072,-0.00014,-5e-05,4,20
20764,-1e-05,6e-05,0.00024,0.001,7e-05,-0.00072,-0.00014,-5e-05,4,20
20765,-1e-05,6e-05,0.00024,0.001,7e-05,-0.00072,-0.00014,-5e-05,4,20
20766,-1e-05,6e-05,0.00024,0.001,7e-05,-0.00072,-0.00014,-5e-05,4,20
20767,-1e-05,6e-05,0.00024,0.001,7e-05,-0.00072,-0.00014,-5e-05,4,20
20768,-1e-05,6e-05,0.00024,0.001,7e-05,-0.00072,-0.00014,-5e-05,4,20
20769,-1e-05,6e-05,0.00024,0.001,7e-05,-0.00072,-0.00014,-5e-05,4,20
20770,-1e-05,6e-05,0.00024,0.001,7e-05,-0.00072,-0.00014,-5e-05,4,20
20771,-1e-05,6e-05,0.00024,0.001,7e-05,-0.00072,-0.00014,-5e-05,4,20
20772,-1e-05,6e-05,0.00024,0.001,7e-05,-0.00072,-0.00014,-5e-05,4,20
20773,-1e-05,6e-05,0.00024,0.001,7e-05,-0.00072,-0.00014,-5e-05,4,20
20774,-1e-05,6e-05,0.00024,0.001,7e-05,-0.00072,-0.00014,-5e-05,4,20
20775,-1e-05,6e-05,0.00024,0.001,7e-05,-0.00072,-0.00014,-5e-05,4,20
20776,-1e-05,-5e-05,-0.00034,0.00036,0.00044,0.00046,7e-05,2e-05,4,20
20777,-3e-05,-0.00014,-0.00063,-0.00127,-0.0009,-0.00045,2e-05,-2e-05,4,20
20778,-2e-05,2e-05,0.00029,-2e-05,8e-05,0.00124,7e-05,0,4,20
20779,-2e-05,2e-05,0.00029,-2e-05,8e-05,0.00124,7e-05,0,4,20
20780,-2e-05,2e-05,0.00029,-2e-05,8e-05,0.00124,7e-05,0,4,20
20781,-2e-05,2e-05,0.00029,-2e-05,8e-05,0.00124,7e-05,0,4,20
20782,-2e-05,2e-05,0.00029,-2e-05,8e-05,0.00124,7e-05,0,4,20
20783,-2e-05,2e-05,0.00029,-2e-05,8e-05,0.00124,7e-05,0,4,20
20784,-2e-05,2e-05,0.00029,-2e-05,8e-05,0.00124,7e-05,0,4,20
20785,-2e-05,2e-05,0.00029,-2e-05,8e-05,0.00124,7e-05,0,4,20
20786,-2e-05,2e-05,0.00029,-2e-05,8e-05,0.00124,7e-05,0,4,20
20789,-2e-05,2e-05,0.00029,-2e-05,8e-05,0.00124,7e-05,0,4,20
20790,-2e-05,2e-05,0.00029,-2e-05,8e-05,0.00124,7e-05,0,4,20
20791,-2e-05,2e-05,0.00029,-2e-05,8e-05,0.00124,7e-05,0,4,20
20792,-2e-05,2e-05,0.00029,-2e-05,8e-05,0.00124,7e-05,0,4,20
20793,-2e-05,2e-05,0.00029,-2e-05,8e-05,0.00124,7e-05,0,4,20
20794,-2e-05,2e-05,0.00029,-2e-05,8e-05,0.00124,7e-05,0,4,20
20795,-2e-05,2e-05,0.00029,-2e-05,8e-05,0.00124,7e-05,0,4,20
20796,-2e-05,2e-05,0.00029,-2e-05,8e-05,0.00124,7e-05,0,4,20
20797,-2e-05,2e-05,0.00029,-2e-05,8e-05,0.00124,7e-05,0,4,20
20798,-2e-05,2e-05,0.00029,-2e-05,8e-05,0.00124,7e-05,0,4,20
20799,5e-05,9e-05,0.00017,-0.00028,-0.00062,-1e-05,0.00011,4e-05,4,20
20800,5e-05,9e-05,0.00017,-0.00028,-0.00062,-1e-05,0.00011,4e-05,4,20
20801,5e-05,9e-05,0.00017,-0.00028,-0.00062,-1e-05,0.00011,4e-05,4,20
20802,5e-05,9e-05,0.00017,-0.00028,-0.00062,-1e-05,0.00011,4e-05,4,20
20803,5e-05,9e-05,0.00017,-0.00028,-0.00062,-1e-05,0.00011,4e-05,4,20
20804,5e-05,9e-05,0.00017,-0.00028,-0.00062,-1e-05,0.00011,4e-05,4,20
20805,5e-05,9e-05,0.00017,-0.00028,-0.00062,-1e-05,0.00011,4e-05,4,20
20806,-5e-05,-7e-05,2e-05,0.00038,-0.00105,-0.00099,-0.0001,-2e-05,4,20
20808,-5e-05,-7e-05,2e-05,0.00038,-0.00105,-0.00099,-0.0001,-2e-05,4,20
20810,-5e-05,-7e-05,2e-05,0.00038,-0.00105,-0.00099,-0.0001,-2e-05,4,20
20811,-5e-05,-7e-05,2e-05,0.00038,-0.00105,-0.00099,-0.0001,-2e-05,4,20
20812,-5e-05,-7e-05,2e-05,0.00038,-0.00105,-0.00099,-0.0001,-2e-05,4,20
20813,-1e-05,0,4e-05,-3e-05,0.00108,-0.0012,-5e-05,-3e-05,4,20
20814,1e-05,3e-05,2e-05,0.00048,0.00033,-0.0001,4e-05,1e-05,4,20
20815,4e-05,7e-05,0.00024,0.00082,-0.00011,0.00045,6e-05,5e-05,4,20
20816,1e-05,2e-05,2e-05,-0.00023,-0.00033,-0.00041,0,-3e-05,4,20
20817,1e-05,2e-05,2e-05,-0.00023,-0.00033,-0.00041,0,-3e-05,4,20
20818,1e-05,2e-05,2e-05,-0.00023,-0.00033,-0.00041,0,-3e-05,4,20
20819,1e-05,2e-05,2e-05,-0.00023,-0.00033,-0.00041,0,-3e-05,4,20
20820,1e-05,2e-05,2e-05,-0.00023,-0.00033,-0.00041,0,-3e-05,4,20
20821,1e-05,2e-05,2e-05,-0.00023,-0.00033,-0.00041,0,-3e-05,4,20
20822,1e-05,2e-05,2e-05,-0.00023,-0.00033,-0.00041,0,-3e-05,4,20
20823,1e-05,2e-05,2e-05,-0.00023,-0.00033,-0.00041,0,-3e-05,4,20
20824,1e-05,2e-05,2e-05,-0.00023,-0.00033,-0.00041,0,-3e-05,4,20
20825,1e-05,2e-05,2e-05,-0.00023,-0.00033,-0.00041,0,-3e-05,4,20
20826,1e-05,2e-05,2e-05,-0.00023,-0.00033,-0.00041,0,-3e-05,4,20
20827,1e-05,2e-05,2e-05,-0.00023,-0.00033,-0.00041,0,-3e-05,4,20
20828,1e-05,2e-05,2e-05,-0.00023,-0.00033,-0.00041,0,-3e-05,4,20
20829,1e-05,2e-05,2e-05,-0.00023,-0.00033,-0.00041,0,-3e-05,4,20
20830,1e-05,2e-05,2e-05,-0.00023,-0.00033,-0.00041,0,-3e-05,4,20
20831,1e-05,2e-05,2e-05,-0.00023,-0.00033,-0.00041,0,-3e-05,4,20
20832,1e-05,2e-05,2e-05,-0.00023,-0.00033,-0.00041,0,-3e-05,4,20
20833,1e-05,2e-05,2e-05,-0.00023,-0.00033,-0.00041,0,-3e-05,4,20
20834,1e-05,2e-05,2e-05,-0.00023,-0.00033,-0.00041,0,-3e-05,4,20
20835,1e-05,2e-05,2e-05,-0.00023,-0.00033,-0.00041,0,-3e-05,4,20
20837,3e-05,4e-05,0.00015,0.0009,-0.00023,0.00018,-4e-05,1e-05,4,20
20840,-0.0001,-0.00013,-7e-05,-6e-05,-0.00043,-0.00015,-1e-05,-7e-05,4,20
20841,-0.0001,-0.00013,-7e-05,-6e-05,-0.00043,-0.00015,-1e-05,-7e-05,4,20
20842,-0.0001,-0.00013,-7e-05,-6e-05,-0.00043,-0.00015,-1e-05,-7e-05,4,20
20843,-0.0001,-0.00013,-7e-05,-6e-05,-0.00043,-0.00015,-1e-05,-7e-05,4,20
20844,-0.0001,-0.00013,-7e-05,-6e-05,-0.00043,-0.00015,-1e-05,-7e-05,4,20
20845,-0.0001,-0.00013,-7e-05,-6e-05,-0.00043,-0.00015,-1e-05,-7e-05,4,20
20846,-0.0001,-0.00013,-7e-05,-6e-05,-0.00043,-0.00015,-1e-05,-7e-05,4,20
20847,-0.0001,-0.00013,-7e-05,-6e-05,-0.00043,-0.00015,-1e-05,-7e-05,4,20
20848,-0.0001,-0.00013,-7e-05,-6e-05,-0.00043,-0.00015,-1e-05,-7e-05,4,20
20849,-0.0001,-0.00013,-7e-05,-6e-05,-0.00043,-0.00015,-1e-05,-7e-05,4,20
20850,-7e-05,-7e-05,-0.00013,-0.00049,-0.00041,-0.0005,-0.00015,-0.0001,4,20
20851,-7e-05,-7e-05,-0.00013,-0.00049,-0.00041,-0.0005,-0.00015,-0.0001,4,20
20852,-7e-05,-7e-05,-0.00013,-0.00049,-0.00041,-0.0005,-0.00015,-0.0001,4,20
20853,-7e-05,-7e-05,-0.00013,-0.00049,-0.00041,-0.0005,-0.00015,-0.0001,4,20
20854,-7e-05,-7e-05,-0.00013,-0.00049,-0.00041,-0.0005,-0.00015,-0.0001,4,20
20855,-7e-05,-7e-05,-0.00013,-0.00049,-0.00041,-0.0005,-0.00015,-0.0001,4,20
20856,-7e-05,-7e-05,-0.00013,-0.00049,-0.00041,-0.0005,-0.00015,-0.0001,4,20
20857,-3e-05,-6e-05,-0.00022,-1e-05,0.00014,0.00116,-1e-05,-2e-05,4,20
20858,-3e-05,-6e-05,-0.00022,-1e-05,0.00014,0.00116,-1e-05,-2e-05,4,20
20859,-3e-05,-6e-05,-0.00022,-1e-05,0.00014,0.00116,-1e-05,-2e-05,4,20
20860,-3e-05,-6e-05,-0.00022,-1e-05,0.00014,0.00116,-1e-05,-2e-05,4,20
20861,-3e-05,-6e-05,-0.00022,-1e-05,0.00014,0.00116,-1e-05,-2e-05,4,20
20862,-3e-05,-6e-05,-0.00022,-1e-05,0.00014,0.00116,-1e-05,-2e-05,4,20
20863,-3e-05,-6e-05,-0.00022,-1e-05,0.00014,0.00116,-1e-05,-2e-05,4,20
20864,-3e-05,-6e-05,-0.00022,-1e-05,0.00014,0.00116,-1e-05,-2e-05,4,20
20865,-3e-05,-6e-05,-0.00022,-1e-05,0.00014,0.00116,-1e-05,-2e-05,4,20
20866,-3e-05,-6e-05,-0.00022,-1e-05,0.00014,0.00116,-1e-05,-2e-05,4,20
20867,-3e-05,-6e-05,-0.00022,-1e-05,0.00014,0.00116,-1e-05,-2e-05,4,20
20868,-3e-05,-6e-05,-0.00022,-1e-05,0.00014,0.00116,-1e-05,-2e-05,4,20
20870,-3e-05,-6e-05,-0.00022,-1e-05,0.00014,0.00116,-1e-05,-2e-05,4,20
20871,-3e-05,-6e-05,-0.00022,-1e-05,0.00014,0.00116,-1e-05,-2e-05,4,20
20872,-3e-05,-6e-05,-0.00022,-1e-05,0.00014,0.00116,-1e-05,-2e-05,4,20
20873,-2e-05,-1e-05,0.00022,-0.00042,-0.00074,-4e-05,-2e-05,-1e-05,4,20
20874,-2e-05,-1e-05,0.00022,-0.00042,-0.00074,-4e-05,-2e-05,-1e-05,4,20
20875,0,7e-05,0.00029,-0.00021,-0.00124,-0.0005,-0.0001,-1e-05,4,20
20876,0,7e-05,0.00029,-0.00021,-0.00124,-0.0005,-0.0001,-1e-05,4,20
20877,0,7e-05,0.00029,-0.00021,-0.00124,-0.0005,-0.0001,-1e-05,4,20
20878,0,7e-05,0.00029,-0.00021,-0.00124,-0.0005,-0.0001,-1e-05,4,20
20879,0,7e-05,0.00029,-0.00021,-0.00124,-0.0005,-0.0001,-1e-05,4,20
20880,0,7e-05,0.00029,-0.00021,-0.00124,-0.0005,-0.0001,-1e-05,4,20
20881,0,7e-05,0.00029,-0.00021,-0.00124,-0.0005,-0.0001,-1e-05,4,20
20882,0,7e-05,0.00029,-0.00021,-0.00124,-0.0005,-0.0001,-1e-05,4,20
20883,0,7e-05,0.00029,-0.00021,-0.00124,-0.0005,-0.0001,-1e-05,4,20
20884,0,7e-05,0.00029,-0.00021,-0.00124,-0.0005,-0.0001,-1e-05,4,20
20885,0,7e-05,0.00029,-0.00021,-0.00124,-0.0005,-0.0001,-1e-05,4,20
20886,0,7e-05,0.00029,-0.00021,-0.00124,-0.0005,-0.0001,-1e-05,4,20
20888,0,7e-05,0.00029,-0.00021,-0.00124,-0.0005,-0.0001,-1e-05,4,20
20889,0,7e-05,0.00029,-0.00021,-0.00124,-0.0005,-0.0001,-1e-05,4,20
20890,0,7e-05,0.00029,-0.00021,-0.00124,-0.0005,-0.0001,-1e-05,4,20
20891,0,7e-05,0.00029,-0.00021,-0.00124,-0.0005,-0.0001,-1e-05,4,20
20892,0,7e-05,0.00029,-0.00021,-0.00124,-0.0005,-0.0001,-1e-05,4,20
20893,0,7e-05,0.00029,-0.00021,-0.00124,-0.0005,-0.0001,-1e-05,4,20
20894,0,7e-05,0.00029,-0.00021,-0.00124,-0.0005,-0.0001,-1e-05,4,20
20895,0,7e-05,0.00029,-0.00021,-0.00124,-0.0005,-0.0001,-1e-05,4,20
20896,3e-05,4e-05,0.00016,0.0006,0.0005,0.0006,7e-05,1e-05,4,20
20897,0,2e-05,0.00014,0.00081,0.0002,-0.00027,-9e-05,-4e-05,4,20
20898,2e-05,-3e-05,-0.00029,-0.00101,-0.00019,0.00049,0,2e-05,4,20
20899,2e-05,-3e-05,-0.00029,-0.00101,-0.00019,0.00049,0,2e-05,4,20
20900,2e-05,-3e-05,-0.00029,-0.00101,-0.00019,0.00049,0,2e-05,4,20
20901,2e-05,-3e-05,-0.00029,-0.00101,-0.00019,0.00049,0,2e-05,4,20
20902,2e-05,-3e-05,-0.00029,-0.00101,-0.00019,0.00049,0,2e-05,4,20
20903,2e-05,-3e-05,-0.00029,-0.00101,-0.00019,0.00049,0,2e-05,4,20
20904,2e-05,-3e-05,-0.00029,-0.00101,-0.00019,0.00049,0,2e-05,4,20
20905,2e-05,-3e-05,-0.00029,-0.00101,-0.00019,0.00049,0,2e-05,4,20
20906,2e-05,-3e-05,-0.00029,-0.00101,-0.00019,0.00049,0,2e-05,4,20
20907,2e-05,-3e-05,-0.00029,-0.00101,-0.00019,0.00049,0,2e-05,4,20
20908,2e-05,-3e-05,-0.00029,-0.00101,-0.00019,0.00049,0,2e-05,4,20
20909,2e-05,-3e-05,-0.00029,-0.00101,-0.00019,0.00049,0,2e-05,4,20
20910,2e-05,-3e-05,-0.00029,-0.00101,-0.00019,0.00049,0,2e-05,4,20
20911,2e-05,-3e-05,-0.00029,-0.00101,-0.00019,0.00049,0,2e-05,4,20
20912,2e-05,-3e-05,-0.00029,-0.00101,-0.00019,0.00049,0,2e-05,4,20
20913,2e-05,-3e-05,-0.00029,-0.00101,-0.00019,0.00049,0,2e-05,4,20
20914,2e-05,-3e-05,-0.00029,-0.00101,-0.00019,0.00049,0,2e-05,4,20
20915,2e-05,-3e-05,-0.00029,-0.00101,-0.00019,0.00049,0,2e-05,4,20
20916,2e-05,-3e-05,-0.00029,-0.00101,-0.00019,0.00049,0,2e-05,4,20
20917,2e-05,-3e-05,-0.00029,-0.00101,-0.00019,0.00049,0,2e-05,4,20
20918,-7e-05,-0.00021,-0.00076,-0.00097,0.00102,0.0001,6e-05,-1e-05,4,20
20919,-7e-05,-0.00021,-0.00076,-0.00097,0.00102,0.0001,6e-05,-1e-05,4,20
20920,0,0,1e-05,-6e-05,-0.00024,0.00061,-7e-05,-2e-05,4,20
20921,0,0,1e-05,-6e-05,-0.00024,0.00061,-7e-05,-2e-05,4,20
20922,0,0,1e-05,-6e-05,-0.00024,0.00061,-7e-05,-2e-05,4,20
20923,0,0,1e-05,-6e-05,-0.00024,0.00061,-7e-05,-2e-05,4,20
20924,0,0,1e-05,-6e-05,-0.00024,0.00061,-7e-05,-2e-05,4,20
20925,0,0,1e-05,-6e-05,-0.00024,0.00061,-7e-05,-2e-05,4,20
20926,0,0,1e-05,-6e-05,-0.00024,0.00061,-7e-05,-2e-05,4,20
20927,0,0,1e-05,-6e-05,-0.00024,0.00061,-7e-05,-2e-05,4,20
20928,0,0,1e-05,-6e-05,-0.00024,0.00061,-7e-05,-2e-05,4,20
20929,0,0,1e-05,-6e-05,-0.00024,0.00061,-7e-05,-2e-05,4,20
20930,0,0,1e-05,-6e-05,-0.00024,0.00061,-7e-05,-2e-05,4,20
20931,0,0,1e-05,-6e-05,-0.00024,0.00061,-7e-05,-2e-05,4,20
20932,0,0,1e-05,-6e-05,-0.00024,0.00061,-7e-05,-2e-05,4,20
20933,-6e-05,-6e-05,-8e-05,-0.0008,0.00037,-0.00027,-9e-05,-4e-05,4,20
20934,-6e-05,-6e-05,-8e-05,-0.0008,0.00037,-0.00027,-9e-05,-4e-05,4,20
20935,0,-2e-05,-5e-05,0.00015,0.00059,9e-05,6e-05,-1e-05,4,20
20936,0,-2e-05,-5e-05,0.00015,0.00059,9e-05,6e-05,-1e-05,4,20
20938,0,-2e-05,-5e-05,0.00015,0.00059,9e-05,6e-05,-1e-05,4,20
20940,0,-2e-05,-5e-05,0.00015,0.00059,9e-05,6e-05,-1e-05,4,20
20941,0,-2e-05,-5e-05,0.00015,0.00059,9e-05,6e-05,-1e-05,4,20
20942,0,-2e-05,-5e-05,0.00015,0.00059,9e-05,6e-05,-1e-05,4,20
20943,0,-2e-05,-5e-05,0.00015,0.00059,9e-05,6e-05,-1e-05,4,20
20944,0,-2e-05,-5e-05,0.00015,0.00059,9e-05,6e-05,-1e-05,4,20
20945,0,-2e-05,-5e-05,0.00015,0.00059,9e-05,6e-05,-1e-05,4,20
20946,0,-2e-05,-5e-05,0.00015,0.00059,9e-05,6e-05,-1e-05,4,20
20947,0,-2e-05,-5e-05,0.00015,0.00059,9e-05,6e-05,-1e-05,4,20
20948,0,-2e-05,-5e-05,0.00015,0.00059,9e-05,6e-05,-1e-05,4,20
20949,0,-2e-05,-5e-05,0.00015,0.00059,9e-05,6e-05,-1e-05,4,20
20950,0,-2e-05,-5e-05,0.00015,0.00059,9e-05,6e-05,-1e-05,4,20
20951,0,-2e-05,-5e-05,0.00015,0.00059,9e-05,6e-05,-1e-05,4,20
20952,0,-2e-05,-5e-05,0.00015,0.00059,9e-05,6e-05,-1e-05,4,20
20953,0,-2e-05,-5e-05,0.00015,0.00059,9e-05,6e-05,-1e-05,4,20
20954,0,-2e-05,-5e-05,0.00015,0.00059,9e-05,6e-05,-1e-05,4,20
20955,0,-2e-05,-5e-05,0.00015,0.00059,9e-05,6e-05,-1e-05,4,20
20956,3e-05,0.00014,0.00043,0.0006,-0.00101,-0.00047,-5e-05,0,4,20
20957,-1e-05,1e-05,0,5e-05,0.00029,-0.00045,6e-05,-1e-05,4,20
20958,-1e-05,1e-05,0,5e-05,0.00029,-0.00045,6e-05,-1e-05,4,20
20959,-1e-05,1e-05,0,5e-05,0.00029,-0.00045,6e-05,-1e-05,4,20
20960,-1e-05,1e-05,0,5e-05,0.00029,-0.00045,6e-05,-1e-05,4,20
20961,-1e-05,1e-05,0,5e-05,0.00029,-0.00045,6e-05,-1e-05,4,20
20962,-1e-05,1e-05,0,5e-05,0.00029,-0.00045,6e-05,-1e-05,4,20
20963,-1e-05,1e-05,0,5e-05,0.00029,-0.00045,6e-05,-1e-05,4,20
20964,-1e-05,1e-05,0,5e-05,0.00029,-0.00045,6e-05,-1e-05,4,20
20965,-1e-05,1e-05,0,5e-05,0.00029,-0.00045,6e-05,-1e-05,4,20
20966,-1e-05,1e-05,0,5e-05,0.00029,-0.00045,6e-05,-1e-05,4,20
20967,-1e-05,1e-05,0,5e-05,0.00029,-0.00045,6e-05,-1e-05,4,20
20968,-1e-05,1e-05,0,5e-05,0.00029,-0.00045,6e-05,-1e-05,4,20
20969,-8e-05,-0.00016,-0.00041,-0.00043,7e-05,0.00026,-1e-05,-5e-05,4,20
20970,4e-05,9e-05,0.00025,0.00058,0.00045,-0.00019,7e-05,6e-05,4,20
20971,4e-05,9e-05,0.00025,0.00058,0.00045,-0.00019,7e-05,6e-05,4,20
20972,4e-05,9e-05,0.00025,0.00058,0.00045,-0.00019,7e-05,6e-05,4,20
20973,4e-05,9e-05,0.00025,0.00058,0.00045,-0.00019,7e-05,6e-05,4,20
20974,4e-05,9e-05,0.00025,0.00058,0.00045,-0.00019,7e-05,6e-05,4,20
20975,4e-05,9e-05,0.00025,0.00058,0.00045,-0.00019,7e-05,6e-05,4,20
20976,4e-05,9e-05,0.00025,0.00058,0.00045,-0.00019,7e-05,6e-05,4,20
20977,4e-05,9e-05,0.00025,0.00058,0.00045,-0.00019,7e-05,6e-05,4,20
20978,2e-05,7e-05,0.00023,-2e-05,-0.00016,0.00033,-4e-05,2e-05,4,20
20979,2e-05,7e-05,0.00023,-2e-05,-0.00016,0.00033,-4e-05,2e-05,4,20
20980,2e-05,7e-05,0.00023,-2e-05,-0.00016,0.00033,-4e-05,2e-05,4,20
20981,2e-05,7e-05,0.00023,-2e-05,-0.00016,0.00033,-4e-05,2e-05,4,20
20982,2e-05,7e-05,0.00023,-2e-05,-0.00016,0.00033,-4e-05,2e-05,4,20
20983,2e-05,7e-05,0.00023,-2e-05,-0.00016,0.00033,-4e-05,2e-05,4,20
20984,2e-05,7e-05,0.00023,-2e-05,-0.00016,0.00033,-4e-05,2e-05,4,20
20985,2e-05,7e-05,0.00023,-2e-05,-0.00016,0.00033,-4e-05,2e-05,4,20
20986,2e-05,7e-05,0.00023,-2e-05,-0.00016,0.00033,-4e-05,2e-05,4,20
20988,2e-05,7e-05,0.00023,-2e-05,-0.00016,0.00033,-4e-05,2e-05,4,20
20989,2e-05,7e-05,0.00023,-2e-05,-0.00016,0.00033,-4e-05,2e-05,4,20
20990,2e-05,7e-05,0.00023,-2e-05,-0.00016,0.00033,-4e-05,2e-05,4,20
20991,2e-05,7e-05,0.00023,-2e-05,-0.00016,0.00033,-4e-05,2e-05,4,20
20992,2e-05,7e-05,0.00023,-2e-05,-0.00016,0.00033,-4e-05,2e-05,4,20
20993,2e-05,7e-05,0.00023,-2e-05,-0.00016,0.00033,-4e-05,2e-05,4,20
20994,2e-05,7e-05,0.00023,-2e-05,-0.00016,0.00033,-4e-05,2e-05,4,20
20995,2e-05,7e-05,0.00023,-2e-05,-0.00016,0.00033,-4e-05,2e-05,4,20
20996,2e-05,7e-05,0.00023,-2e-05,-0.00016,0.00033,-4e-05,2e-05,4,20
20997,2e-05,7e-05,0.00023,-2e-05,-0.00016,0.00033,-4e-05,2e-05,4,20
20998,2e-05,7e-05,0.00023,-2e-05,-0.00016,0.00033,-4e-05,2e-05,4,20
20999,2e-05,7e-05,0.00023,-2e-05,-0.00016,0.00033,-4e-05,2e-05,4,20
21000,2e-05,7e-05,0.00023,-2e-05,-0.00016,0.00033,-4e-05,2e-05,4,20
21001,-4e-05,-9e-05,-0.0003,-0.0003,3e-05,-9e-05,-2e-05,-1e-05,4,20
21002,4e-05,8e-05,0.00039,0.00111,0.00076,-0.00085,-2e-05,-1e-05,4,20
21003,4e-05,8e-05,0.00039,0.00111,0.00076,-0.00085,-2e-05,-1e-05,4,20
21004,4e-05,8e-05,0.00039,0.00111,0.00076,-0.00085,-2e-05,-1e-05,4,20
21005,4e-05,8e-05,0.00039,0.00111,0.00076,-0.00085,-2e-05,-1e-05,4,20
21006,4e-05,8e-05,0.00039,0.00111,0.00076,-0.00085,-2e-05,-1e-05,4,20
21007,4e-05,8e-05,0.00039,0.00111,0.00076,-0.00085,-2e-05,-1e-05,4,20
21008,4e-05,8e-05,0.00039,0.00111,0.00076,-0.00085,-2e-05,-1e-05,4,20
21009,4e-05,8e-05,0.00039,0.00111,0.00076,-0.00085,-2e-05,-1e-05,4,20
21010,4e-05,8e-05,0.00039,0.00111,0.00076,-0.00085,-2e-05,-1e-05,4,20
21011,4e-05,8e-05,0.00039,0.00111,0.00076,-0.00085,-2e-05,-1e-05,4,20
21012,4e-05,8e-05,0.00039,0.00111,0.00076,-0.00085,-2e-05,-1e-05,4,20
21013,4e-05,8e-05,0.00039,0.00111,0.00076,-0.00085,-2e-05,-1e-05,4,20
21014,4e-05,8e-05,0.00039,0.00111,0.00076,-0.00085,-2e-05,-1e-05,4,20
21015,4e-05,8e-05,0.00039,0.00111,0.00076,-0.00085,-2e-05,-1e-05,4,20
21016,-2e-05,-3e-05,1e-05,-0.00085,-0.00037,6e-05,-2e-05,-5e-05,4,20
21017,-2e-05,-3e-05,1e-05,-0.00085,-0.00037,6e-05,-2e-05,-5e-05,4,20
21018,-2e-05,-3e-05,1e-05,-0.00085,-0.00037,6e-05,-2e-05,-5e-05,4,20
21019,-2e-05,-3e-05,1e-05,-0.00085,-0.00037,6e-05,-2e-05,-5e-05,4,20
21020,-2e-05,-3e-05,1e-05,-0.00085,-0.00037,6e-05,-2e-05,-5e-05,4,20
21021,-2e-05,-3e-05,1e-05,-0.00085,-0.00037,6e-05,-2e-05,-5e-05,4,20
21022,-2e-05,-3e-05,1e-05,-0.00085,-0.00037,6e-05,-2e-05,-5e-05,4,20
21023,-2e-05,-3e-05,1e-05,-0.00085,-0.00037,6e-05,-2e-05,-5e-05,4,20
21024,-2e-05,-3e-05,1e-05,-0.00085,-0.00037,6e-05,-2e-05,-5e-05,4,20
21025,-2e-05,-3e-05,1e-05,-0.00085,-0.00037,6e-05,-2e-05,-5e-05,4,20
21026,-2e-05,-3e-05,1e-05,-0.00085,-0.00037,6e-05,-2e-05,-5e-05,4,20
21027,-2e-05,-3e-05,1e-05,-0.00085,-0.00037,6e-05,-2e-05,-5e-05,4,20
21028,-2e-05,-3e-05,1e-05,-0.00085,-0.00037,6e-05,-2e-05,-5e-05,4,20
21029,-2e-05,-3e-05,1e-05,-0.00085,-0.00037,6e-05,-2e-05,-5e-05,4,20
21030,3e-05,4e-05,0.00012,0.00059,-0.00048,7e-05,4e-05,7e-05,4,20
21031,2e-05,-2e-05,3e-05,0.00037,0.00053,-0.00043,-5e-05,1e-05,4,20
21032,2e-05,-2e-05,3e-05,0.00037,0.00053,-0.00043,-5e-05,1e-05,4,20
21033,2e-05,-2e-05,3e-05,0.00037,0.00053,-0.00043,-5e-05,1e-05,4,20
21034,2e-05,-2e-05,3e-05,0.00037,0.00053,-0.00043,-5e-05,1e-05,4,20
21035,2e-05,-2e-05,3e-05,0.00037,0.00053,-0.00043,-5e-05,1e-05,4,20
21036,2e-05,-2e-05,3e-05,0.00037,0.00053,-0.00043,-5e-05,1e-05,4,20
21039,5e-05,2e-05,-3e-05,-0.00058,-0.00064,0.00075,0.00018,4e-05,4,20
21040,5e-05,2e-05,-3e-05,-0.00058,-0.00064,0.00075,0.00018,4e-05,4,20
21041,5e-05,2e-05,-3e-05,-0.00058,-0.00064,0.00075,0.00018,4e-05,4,20
21042,5e-05,2e-05,-3e-05,-0.00058,-0.00064,0.00075,0.00018,4e-05,4,20
21043,5e-05,2e-05,-3e-05,-0.00058,-0.00064,0.00075,0.00018,4e-05,4,20
21044,5e-05,2e-05,-3e-05,-0.00058,-0.00064,0.00075,0.00018,4e-05,4,20
21045,5e-05,2e-05,-3e-05,-0.00058,-0.00064,0.00075,0.00018,4e-05,4,20
21046,5e-05,2e-05,-3e-05,-0.00058,-0.00064,0.00075,0.00018,4e-05,4,20
21047,5e-05,2e-05,-3e-05,-0.00058,-0.00064,0.00075,0.00018,4e-05,4,20
21048,5e-05,2e-05,-3e-05,-0.00058,-0.00064,0.00075,0.00018,4e-05,4,20
21049,5e-05,2e-05,-3e-05,-0.00058,-0.00064,0.00075,0.00018,4e-05,4,20
21050,5e-05,2e-05,-3e-05,-0.00058,-0.00064,0.00075,0.00018,4e-05,4,20
21051,5e-05,2e-05,-3e-05,-0.00058,-0.00064,0.00075,0.00018,4e-05,4,20
21052,5e-05,2e-05,-3e-05,-0.00058,-0.00064,0.00075,0.00018,4e-05,4,20
21053,4e-05,0.0001,0.00048,0.00127,-0.00052,0.0002,-6e-05,-1e-05,4,20
21054,4e-05,0.0001,0.00048,0.00127,-0.00052,0.0002,-6e-05,-1e-05,4,20
21055,-4e-05,1e-05,0,0.00011,-0.00017,-0.00115,-0.0002,-7e-05,4,20
21056,-4e-05,1e-05,0,0.00011,-0.00017,-0.00115,-0.0002,-7e-05,4,20
21057,-4e-05,1e-05,0,0.00011,-0.00017,-0.00115,-0.0002,-7e-05,4,20
21058,-4e-05,1e-05,0,0.00011,-0.00017,-0.00115,-0.0002,-7e-05,4,20
21059,-4e-05,1e-05,0,0.00011,-0.00017,-0.00115,-0.0002,-7e-05,4,20
21060,-4e-05,1e-05,0,0.00011,-0.00017,-0.00115,-0.0002,-7e-05,4,20
21061,-4e-05,1e-05,0,0.00011,-0.00017,-0.00115,-0.0002,-7e-05,4,20
21062,-4e-05,1e-05,0,0.00011,-0.00017,-0.00115,-0.0002,-7e-05,4,20
21063,-4e-05,1e-05,0,0.00011,-0.00017,-0.00115,-0.0002,-7e-05,4,20
21064,-4e-05,1e-05,0,0.00011,-0.00017,-0.00115,-0.0002,-7e-05,4,20
21065,-4e-05,1e-05,0,0.00011,-0.00017,-0.00115,-0.0002,-7e-05,4,20
21066,-4e-05,1e-05,0,0.00011,-0.00017,-0.00115,-0.0002,-7e-05,4,20
21067,-4e-05,1e-05,0,0.00011,-0.00017,-0.00115,-0.0002,-7e-05,4,20
21068,-4e-05,1e-05,0,0.00011,-0.00017,-0.00115,-0.0002,-7e-05,4,20
21069,-4e-05,1e-05,0,0.00011,-0.00017,-0.00115,-0.0002,-7e-05,4,20
21070,-4e-05,1e-05,0,0.00011,-0.00017,-0.00115,-0.0002,-7e-05,4,20
21071,-4e-05,1e-05,0,0.00011,-0.00017,-0.00115,-0.0002,-7e-05,4,20
21072,-4e-05,1e-05,0,0.00011,-0.00017,-0.00115,-0.0002,-7e-05,4,20
21073,-4e-05,1e-05,0,0.00011,-0.00017,-0.00115,-0.0002,-7e-05,4,20
21074,-4e-05,1e-05,0,0.00011,-0.00017,-0.00115,-0.0002,-7e-05,4,20
21075,-4e-05,1e-05,0,0.00011,-0.00017,-0.00115,-0.0002,-7e-05,4,20
21076,-4e-05,1e-05,0,0.00011,-0.00017,-0.00115,-0.0002,-7e-05,4,20
21077,-4e-05,1e-05,0,0.00011,-0.00017,-0.00115,-0.0002,-7e-05,4,20
21078,-4e-05,1e-05,0,0.00011,-0.00017,-0.00115,-0.0002,-7e-05,4,20
21079,-4e-05,1e-05,0,0.00011,-0.00017,-0.00115,-0.0002,-7e-05,4,20
21080,-4e-05,1e-05,0,0.00011,-0.00017,-0.00115,-0.0002,-7e-05,4,20
21081,-4e-05,1e-05,0,0.00011,-0.00017,-0.00115,-0.0002,-7e-05,4,20
21082,-4e-05,1e-05,0,0.00011,-0.00017,-0.00115,-0.0002,-7e-05,4,20
21083,0,2e-05,0.0002,0.00019,-0.00019,5e-05,-6e-05,-3e-05,4,20
21084,1e-05,-3e-05,-0.00013,-0.00082,5e-05,0.00017,-3e-05,0,4,20
21086,-5e-05,-9e-05,-0.0002,-3e-05,-0.0003,0.00104,4e-05,-3e-05,4,20
21087,-5e-05,-9e-05,-0.0002,-3e-05,-0.0003,0.00104,4e-05,-3e-05,4,20
21088,-5e-05,-9e-05,-0.0002,-3e-05,-0.0003,0.00104,4e-05,-3e-05,4,20
21089,-1e-05,4e-05,0.00019,0.00046,-0.00082,-0.00078,-0.00012,-5e-05,4,20
21090,-1e-05,0,-0.00011,-0.00028,0.00036,0.00027,2e-05,2e-05,4,20
21091,-1e-05,0,-0.00011,-0.00028,0.00036,0.00027,2e-05,2e-05,4,20
21092,-1e-05,0,-0.00011,-0.00028,0.00036,0.00027,2e-05,2e-05,4,20
21093,-1e-05,0,-0.00011,-0.00028,0.00036,0.00027,2e-05,2e-05,4,20
21094,-1e-05,0,-0.00011,-0.00028,0.00036,0.00027,2e-05,2e-05,4,20
21095,-1e-05,0,-0.00011,-0.00028,0.00036,0.00027,2e-05,2e-05,4,20
21096,-1e-05,0,-0.00011,-0.00028,0.00036,0.00027,2e-05,2e-05,4,20
21097,-1e-05,0,-0.00011,-0.00028,0.00036,0.00027,2e-05,2e-05,4,20
21098,-2e-05,-4e-05,-0.00022,-0.00053,0.00086,-0.00015,6e-05,0,4,20
21099,-2e-05,-4e-05,-0.00022,-0.00053,0.00086,-0.00015,6e-05,0,4,20
21100,-2e-05,-4e-05,-0.00022,-0.00053,0.00086,-0.00015,6e-05,0,4,20
21101,-2e-05,-4e-05,-0.00022,-0.00053,0.00086,-0.00015,6e-05,0,4,20
21102,-2e-05,-4e-05,-0.00022,-0.00053,0.00086,-0.00015,6e-05,0,4,20
21103,-2e-05,-4e-05,-0.00022,-0.00053,0.00086,-0.00015,6e-05,0,4,20
21104,-2e-05,-4e-05,-0.00022,-0.00053,0.00086,-0.00015,6e-05,0,4,20
21105,-2e-05,-4e-05,-0.00022,-0.00053,0.00086,-0.00015,6e-05,0,4,20
21106,-2e-05,-4e-05,-0.00022,-0.00053,0.00086,-0.00015,6e-05,0,4,20
21107,-2e-05,-4e-05,-0.00022,-0.00053,0.00086,-0.00015,6e-05,0,4,20
21108,-2e-05,-4e-05,-0.00022,-0.00053,0.00086,-0.00015,6e-05,0,4,20
21109,-2e-05,-4e-05,-0.00022,-0.00053,0.00086,-0.00015,6e-05,0,4,20
21110,-2e-05,-4e-05,-0.00022,-0.00053,0.00086,-0.00015,6e-05,0,4,20
21111,-2e-05,-4e-05,-0.00022,-0.00053,0.00086,-0.00015,6e-05,0,4,20
21112,-2e-05,-4e-05,-0.00022,-0.00053,0.00086,-0.00015,6e-05,0,4,20
21113,-2e-05,-4e-05,-0.00022,-0.00053,0.00086,-0.00015,6e-05,0,4,20
21114,8e-05,0.0001,-3e-05,-0.0001,-0.00105,0.0003,0.00013,8e-05,4,20
21115,-1e-05,-6e-05,-8e-05,0.00029,0.00044,0.00031,8e-05,0,4,20
21116,-1e-05,-6e-05,-8e-05,0.00029,0.00044,0.00031,8e-05,0,4,20
21117,-1e-05,-6e-05,-8e-05,0.00029,0.00044,0.00031,8e-05,0,4,20
21118,-1e-05,-6e-05,-8e-05,0.00029,0.00044,0.00031,8e-05,0,4,20
21119,-1e-05,-6e-05,-8e-05,0.00029,0.00044,0.00031,8e-05,0,4,20
21120,-1e-05,-6e-05,-8e-05,0.00029,0.00044,0.00031,8e-05,0,4,20
21121,-1e-05,-6e-05,-8e-05,0.00029,0.00044,0.00031,8e-05,0,4,20
21122,-1e-05,-6e-05,-8e-05,0.00029,0.00044,0.00031,8e-05,0,4,20
21123,-1e-05,-6e-05,-8e-05,0.00029,0.00044,0.00031,8e-05,0,4,20
21124,-1e-05,-6e-05,-8e-05,0.00029,0.00044,0.00031,8e-05,0,4,20
21125,-1e-05,-6e-05,-8e-05,0.00029,0.00044,0.00031,8e-05,0,4,20
21126,-1e-05,-6e-05,-8e-05,0.00029,0.00044,0.00031,8e-05,0,4,20
21127,-1e-05,-6e-05,-8e-05,0.00029,0.00044,0.00031,8e-05,0,4,20
21128,-1e-05,-6e-05,-8e-05,0.00029,0.00044,0.00031,8e-05,0,4,20
21129,-1e-05,-6e-05,-8e-05,0.00029,0.00044,0.00031,8e-05,0,4,20
21130,-1e-05,-6e-05,-8e-05,0.00029,0.00044,0.00031,8e-05,0,4,20
21131,-1e-05,-6e-05,-8e-05,0.00029,0.00044,0.00031,8e-05,0,4,20
21132,-1e-05,-6e-05,-8e-05,0.00029,0.00044,0.00031,8e-05,0,4,20
21133,-1e-05,-6e-05,-8e-05,0.00029,0.00044,0.00031,8e-05,0,4,20
21134,-1e-05,-6e-05,-8e-05,0.00029,0.00044,0.00031,8e-05,0,4,20
21135,-1e-05,-6e-05,-8e-05,0.00029,0.00044,0.00031,8e-05,0,4,20
21136,-3e-05,-6e-05,-0.0003,-0.00018,-0.00034,4e-05,2e-05,-1e-05,4,20
21139,-8e-05,-0.00014,-0.00029,-0.00072,-0.00046,-0.00094,-0.00024,-0.0001,4,20
21140,-8e-05,-0.00014,-0.00029,-0.00072,-0.00046,-0.00094,-0.00024,-0.0001,4,20
21141,-8e-05,-0.00014,-0.00029,-0.00072,-0.00046,-0.00094,-0.00024,-0.0001,4,20
21142,-8e-05,-0.00014,-0.00029,-0.00072,-0.00046,-0.00094,-0.00024,-0.0001,4,20
21143,-8e-05,-0.00014,-0.00029,-0.00072,-0.00046,-0.00094,-0.00024,-0.0001,4,20
21144,-8e-05,-0.00014,-0.00029,-0.00072,-0.00046,-0.00094,-0.00024,-0.0001,4,20
21145,-8e-05,-0.00014,-0.00029,-0.00072,-0.00046,-0.00094,-0.00024,-0.0001,4,20
21146,-8e-05,-0.00014,-0.00029,-0.00072,-0.00046,-0.00094,-0.00024,-0.0001,4,20
21147,-8e-05,-0.00014,-0.00029,-0.00072,-0.00046,-0.00094,-0.00024,-0.0001,4,20
21148,-8e-05,-0.00014,-0.00029,-0.00072,-0.00046,-0.00094,-0.00024,-0.0001,4,20
21149,1e-05,-1e-05,-9e-05,-0.00066,-0.00074,0.00085,8e-05,1e-05,4,20
21150,2e-05,0.00012,0.00056,0.00105,0.00029,-0.00063,-4e-05,-1e-05,4,20
21151,2e-05,0.00012,0.00056,0.00105,0.00029,-0.00063,-4e-05,-1e-05,4,20
21152,2e-05,0.00012,0.00056,0.00105,0.00029,-0.00063,-4e-05,-1e-05,4,20
21153,2e-05,0.00012,0.00056,0.00105,0.00029,-0.00063,-4e-05,-1e-05,4,20
21154,2e-05,0.00012,0.00056,0.00105,0.00029,-0.00063,-4e-05,-1e-05,4,20
21155,2e-05,0.00012,0.00056,0.00105,0.00029,-0.00063,-4e-05,-1e-05,4,20
21156,2e-05,0.00012,0.00056,0.00105,0.00029,-0.00063,-4e-05,-1e-05,4,20
21157,2e-05,0.00012,0.00056,0.00105,0.00029,-0.00063,-4e-05,-1e-05,4,20
21158,-9e-05,-0.00026,-0.00105,-0.00106,0.00016,0.00089,0.00014,-4e-05,4,20
21159,0,5e-05,0.00016,0.00052,0.00016,-0.00046,-0.00012,-2e-05,4,20
21160,0,5e-05,0.00016,0.00052,0.00016,-0.00046,-0.00012,-2e-05,4,20
21161,0,5e-05,0.00016,0.00052,0.00016,-0.00046,-0.00012,-2e-05,4,20
21162,0,5e-05,0.00016,0.00052,0.00016,-0.00046,-0.00012,-2e-05,4,20
21163,0,5e-05,0.00016,0.00052,0.00016,-0.00046,-0.00012,-2e-05,4,20
21164,0,5e-05,0.00016,0.00052,0.00016,-0.00046,-0.00012,-2e-05,4,20
21165,0,5e-05,0.00016,0.00052,0.00016,-0.00046,-0.00012,-2e-05,4,20
21166,0,5e-05,0.00016,0.00052,0.00016,-0.00046,-0.00012,-2e-05,4,20
21167,0,5e-05,0.00016,0.00052,0.00016,-0.00046,-0.00012,-2e-05,4,20
21168,0,5e-05,0.00016,0.00052,0.00016,-0.00046,-0.00012,-2e-05,4,20
21169,0,5e-05,0.00016,0.00052,0.00016,-0.00046,-0.00012,-2e-05,4,20
21170,0,5e-05,0.00016,0.00052,0.00016,-0.00046,-0.00012,-2e-05,4,20
21171,0,5e-05,0.00016,0.00052,0.00016,-0.00046,-0.00012,-2e-05,4,20
21172,0,5e-05,0.00016,0.00052,0.00016,-0.00046,-0.00012,-2e-05,4,20
21173,-6e-05,-8e-05,-2e-05,0.00055,0.00116,4e-05,1e-05,-8e-05,4,20
21174,-6e-05,-8e-05,-2e-05,0.00055,0.00116,4e-05,1e-05,-8e-05,4,20
21175,-3e-05,-7e-05,-0.00023,-0.00072,-0.00095,2e-05,-4e-05,-3e-05,4,20
21176,-3e-05,-7e-05,-0.00023,-0.00072,-0.00095,2e-05,-4e-05,-3e-05,4,20
21177,-3e-05,-7e-05,-0.00023,-0.00072,-0.00095,2e-05,-4e-05,-3e-05,4,20
21178,-3e-05,-7e-05,-0.00023,-0.00072,-0.00095,2e-05,-4e-05,-3e-05,4,20
21179,-3e-05,-7e-05,-0.00023,-0.00072,-0.00095,2e-05,-4e-05,-3e-05,4,20
21180,-3e-05,-7e-05,-0.00023,-0.00072,-0.00095,2e-05,-4e-05,-3e-05,4,20
21181,-3e-05,-7e-05,-0.00023,-0.00072,-0.00095,2e-05,-4e-05,-3e-05,4,20
21182,-3e-05,-7e-05,-0.00023,-0.00072,-0.00095,2e-05,-4e-05,-3e-05,4,20
21183,-3e-05,-7e-05,-0.00023,-0.00072,-0.00095,2e-05,-4e-05,-3e-05,4,20
21184,-3e-05,-7e-05,-0.00023,-0.00072,-0.00095,2e-05,-4e-05,-3e-05,4,20
21185,-3e-05,-7e-05,-0.00023,-0.00072,-0.00095,2e-05,-4e-05,-3e-05,4,20
21186,-3e-05,-7e-05,-0.00023,-0.00072,-0.00095,2e-05,-4e-05,-3e-05,4,20
21188,-3e-05,-7e-05,-0.00023,-0.00072,-0.00095,2e-05,-4e-05,-3e-05,4,20
21189,-3e-05,-7e-05,-0.00023,-0.00072,-0.00095,2e-05,-4e-05,-3e-05,4,20
21190,-3e-05,-7e-05,-0.00023,-0.00072,-0.00095,2e-05,-4e-05,-3e-05,4,20
21191,-3e-05,-7e-05,-0.00023,-0.00072,-0.00095,2e-05,-4e-05,-3e-05,4,20
21192,-3e-05,-7e-05,-0.00023,-0.00072,-0.00095,2e-05,-4e-05,-3e-05,4,20
21193,-3e-05,-7e-05,-0.00023,-0.00072,-0.00095,2e-05,-4e-05,-3e-05,4,20
21194,-3e-05,-7e-05,-0.00023,-0.00072,-0.00095,2e-05,-4e-05,-3e-05,4,20
21195,-3e-05,-7e-05,-0.00023,-0.00072,-0.00095,2e-05,-4e-05,-3e-05,4,20
21196,-4e-05,-5e-05,-7e-05,0.00032,0.00016,0.00065,-1e-05,-2e-05,4,20
21197,-4e-05,-5e-05,-7e-05,0.00032,0.00016,0.00065,-1e-05,-2e-05,4,20
21198,8e-05,0.0001,5e-05,-0.00034,0.00039,0.00102,0.00021,0.00011,4,20
21199,8e-05,0.0001,5e-05,-0.00034,0.00039,0.00102,0.00021,0.00011,4,20
21200,8e-05,0.0001,5e-05,-0.00034,0.00039,0.00102,0.00021,0.00011,4,20
21201,8e-05,0.0001,5e-05,-0.00034,0.00039,0.00102,0.00021,0.00011,4,20
21202,8e-05,0.0001,5e-05,-0.00034,0.00039,0.00102,0.00021,0.00011,4,20
21203,8e-05,0.0001,5e-05,-0.00034,0.00039,0.00102,0.00021,0.00011,4,20
21204,8e-05,0.0001,5e-05,-0.00034,0.00039,0.00102,0.00021,0.00011,4,20
21205,8e-05,0.0001,5e-05,-0.00034,0.00039,0.00102,0.00021,0.00011,4,20
21206,8e-05,0.0001,5e-05,-0.00034,0.00039,0.00102,0.00021,0.00011,4,20
21207,8e-05,0.0001,5e-05,-0.00034,0.00039,0.00102,0.00021,0.00011,4,20
21208,8e-05,0.0001,5e-05,-0.00034,0.00039,0.00102,0.00021,0.00011,4,20
21209,0,2e-05,0.00017,0.0003,0.00025,-0.00036,-9e-05,-1e-05,4,20
21210,-8e-05,-0.00022,-0.00071,-0.00113,-0.00086,-0.00044,-0.00012,-5e-05,4,20
21211,-8e-05,-0.00022,-0.00071,-0.00113,-0.00086,-0.00044,-0.00012,-5e-05,4,20
21212,-8e-05,-0.00022,-0.00071,-0.00113,-0.00086,-0.00044,-0.00012,-5e-05,4,20
21213,-8e-05,-0.00022,-0.00071,-0.00113,-0.00086,-0.00044,-0.00012,-5e-05,4,20
21214,-8e-05,-0.00022,-0.00071,-0.00113,-0.00086,-0.00044,-0.00012,-5e-05,4,20
21215,-8e-05,-0.00022,-0.00071,-0.00113,-0.00086,-0.00044,-0.00012,-5e-05,4,20
21216,-8e-05,-0.00022,-0.00071,-0.00113,-0.00086,-0.00044,-0.00012,-5e-05,4,20
21217,-8e-05,-0.00022,-0.00071,-0.00113,-0.00086,-0.00044,-0.00012,-5e-05,4,20
21218,1e-05,1e-05,0.00025,0.00127,0.0009,0.00036,7e-05,1e-05,4,20
21219,1e-05,2e-05,5e-05,-0.00075,-0.00061,-0.00108,-0.00013,-2e-05,4,20
21220,1e-05,2e-05,5e-05,-0.00075,-0.00061,-0.00108,-0.00013,-2e-05,4,20
21221,1e-05,2e-05,5e-05,-0.00075,-0.00061,-0.00108,-0.00013,-2e-05,4,20
21222,1e-05,2e-05,5e-05,-0.00075,-0.00061,-0.00108,-0.00013,-2e-05,4,20
21223,1e-05,2e-05,5e-05,-0.00075,-0.00061,-0.00108,-0.00013,-2e-05,4,20
21224,1e-05,2e-05,5e-05,-0.00075,-0.00061,-0.00108,-0.00013,-2e-05,4,20
21225,1e-05,2e-05,5e-05,-0.00075,-0.00061,-0.00108,-0.00013,-2e-05,4,20
21226,1e-05,2e-05,5e-05,-0.00075,-0.00061,-0.00108,-0.00013,-2e-05,4,20
21227,1e-05,2e-05,5e-05,-0.00075,-0.00061,-0.00108,-0.00013,-2e-05,4,20
21228,1e-05,2e-05,5e-05,-0.00075,-0.00061,-0.00108,-0.00013,-2e-05,4,20
21229,1e-05,2e-05,5e-05,-0.00075,-0.00061,-0.00108,-0.00013,-2e-05,4,20
21230,1e-05,2e-05,5e-05,-0.00075,-0.00061,-0.00108,-0.00013,-2e-05,4,20
21231,1e-05,2e-05,5e-05,-0.00075,-0.00061,-0.00108,-0.00013,-2e-05,4,20
21232,1e-05,2e-05,5e-05,-0.00075,-0.00061,-0.00108,-0.00013,-2e-05,4,20
21233,-1e-05,3e-05,0.00023,0.00034,0.00039,-0.00026,-4e-05,1e-05,4,20
21234,-1e-05,3e-05,0.00023,0.00034,0.00039,-0.00026,-4e-05,1e-05,4,20
21235,-2e-05,-2e-05,8e-05,7e-05,0.00064,0.00031,2e-05,-1e-05,4,20
21236,-2e-05,-2e-05,8e-05,7e-05,0.00064,0.00031,2e-05,-1e-05,4,20
21239,-2e-05,-2e-05,8e-05,7e-05,0.00064,0.00031,2e-05,-1e-05,4,20
21240,-2e-05,-2e-05,8e-05,7e-05,0.00064,0.00031,2e-05,-1e-05,4,20
21241,-2e-05,-2e-05,8e-05,7e-05,0.00064,0.00031,2e-05,-1e-05,4,20
21242,-2e-05,-2e-05,8e-05,7e-05,0.00064,0.00031,2e-05,-1e-05,4,20
21243,-2e-05,-2e-05,8e-05,7e-05,0.00064,0.00031,2e-05,-1e-05,4,20
21244,-2e-05,-2e-05,8e-05,7e-05,0.00064,0.00031,2e-05,-1e-05,4,20
21245,-2e-05,-2e-05,8e-05,7e-05,0.00064,0.00031,2e-05,-1e-05,4,20
21246,-2e-05,-2e-05,8e-05,7e-05,0.00064,0.00031,2e-05,-1e-05,4,20
21247,-2e-05,-2e-05,8e-05,7e-05,0.00064,0.00031,2e-05,-1e-05,4,20
21248,-2e-05,-2e-05,8e-05,7e-05,0.00064,0.00031,2e-05,-1e-05,4,20
21249,-2e-05,-2e-05,8e-05,7e-05,0.00064,0.00031,2e-05,-1e-05,4,20
21250,-2e-05,-2e-05,8e-05,7e-05,0.00064,0.00031,2e-05,-1e-05,4,20
21251,-2e-05,-2e-05,8e-05,7e-05,0.00064,0.00031,2e-05,-1e-05,4,20
21252,-2e-05,-2e-05,8e-05,7e-05,0.00064,0.00031,2e-05,-1e-05,4,20
21253,-2e-05,-2e-05,8e-05,7e-05,0.00064,0.00031,2e-05,-1e-05,4,20
21254,-2e-05,-2e-05,8e-05,7e-05,0.00064,0.00031,2e-05,-1e-05,4,20
21255,-2e-05,-2e-05,8e-05,7e-05,0.00064,0.00031,2e-05,-1e-05,4,20
21256,-1e-05,3e-05,0.0001,9e-05,0.00037,0.00068,3e-05,-1e-05,4,20
21257,4e-05,7e-05,0.00033,0.00058,-0.00039,-0.00063,-8e-05,2e-05,4,20
21258,0,1e-05,-6e-05,-0.00037,-0.00086,-0.00017,-9e-05,-2e-05,4,20
21259,0,1e-05,-6e-05,-0.00037,-0.00086,-0.00017,-9e-05,-2e-05,4,20
21260,0,1e-05,-6e-05,-0.00037,-0.00086,-0.00017,-9e-05,-2e-05,4,20
21261,0,1e-05,-6e-05,-0.00037,-0.00086,-0.00017,-9e-05,-2e-05,4,20
21262,0,1e-05,-6e-05,-0.00037,-0.00086,-0.00017,-9e-05,-2e-05,4,20
21263,0,1e-05,-6e-05,-0.00037,-0.00086,-0.00017,-9e-05,-2e-05,4,20
21264,0,1e-05,-6e-05,-0.00037,-0.00086,-0.00017,-9e-05,-2e-05,4,20
21265,0,1e-05,-6e-05,-0.00037,-0.00086,-0.00017,-9e-05,-2e-05,4,20
21266,0,1e-05,-6e-05,-0.00037,-0.00086,-0.00017,-9e-05,-2e-05,4,20
21267,0,1e-05,-6e-05,-0.00037,-0.00086,-0.00017,-9e-05,-2e-05,4,20
21268,0,1e-05,-6e-05,-0.00037,-0.00086,-0.00017,-9e-05,-2e-05,4,20
21269,0,1e-05,-6e-05,-0.00037,-0.00086,-0.00017,-9e-05,-2e-05,4,20
21270,0,1e-05,-6e-05,-0.00037,-0.00086,-0.00017,-9e-05,-2e-05,4,20
21271,0,1e-05,-6e-05,-0.00037,-0.00086,-0.00017,-9e-05,-2e-05,4,20
21272,0,1e-05,-6e-05,-0.00037,-0.00086,-0.00017,-9e-05,-2e-05,4,20
21273,0,1e-05,-6e-05,-0.00037,-0.00086,-0.00017,-9e-05,-2e-05,4,20
21274,0,1e-05,-6e-05,-0.00037,-0.00086,-0.00017,-9e-05,-2e-05,4,20
21275,0,1e-05,-6e-05,-0.00037,-0.00086,-0.00017,-9e-05,-2e-05,4,20
21276,0,1e-05,-6e-05,-0.00037,-0.00086,-0.00017,-9e-05,-2e-05,4,20
21277,0,1e-05,-6e-05,-0.00037,-0.00086,-0.00017,-9e-05,-2e-05,4,20
21278,-2e-05,-9e-05,-0.00042,-0.00098,-0.00017,-5e-05,7e-05,2e-05,4,20
21279,-2e-05,-9e-05,-0.00042,-0.00098,-0.00017,-5e-05,7e-05,2e-05,4,20
21280,-1e-05,2e-05,0.00015,0.00097,0.00031,-4e-05,-0.00015,-5e-05,4,20
21281,-1e-05,2e-05,0.00015,0.00097,0.00031,-4e-05,-0.00015,-5e-05,4,20
21282,-1e-05,2e-05,0.00015,0.00097,0.00031,-4e-05,-0.00015,-5e-05,4,20
21283,-1e-05,2e-05,0.00015,0.00097,0.00031,-4e-05,-0.00015,-5e-05,4,20
21284,-1e-05,2e-05,0.00015,0.00097,0.00031,-4e-05,-0.00015,-5e-05,4,20
21286,-1e-05,2e-05,0.00015,0.00097,0.00031,-4e-05,-0.00015,-5e-05,4,20
21287,-1e-05,2e-05,0.00015,0.00097,0.00031,-4e-05,-0.00015,-5e-05,4,20
21288,-1e-05,2e-05,0.00015,0.00097,0.00031,-4e-05,-0.00015,-5e-05,4,20
21289,-1e-05,2e-05,0.00015,0.00097,0.00031,-4e-05,-0.00015,-5e-05,4,20
21290,-1e-05,2e-05,0.00015,0.00097,0.00031,-4e-05,-0.00015,-5e-05,4,20
21291,-1e-05,2e-05,0.00015,0.00097,0.00031,-4e-05,-0.00015,-5e-05,4,20
21292,-1e-05,2e-05,0.00015,0.00097,0.00031,-4e-05,-0.00015,-5e-05,4,20
21293,-4e-05,-8e-05,-7e-05,-0.00023,2e-05,0,-5e-05,-4e-05,4,20
21294,-4e-05,-8e-05,-7e-05,-0.00023,2e-05,0,-5e-05,-4e-05,4,20
21295,-7e-05,-0.00013,-0.00015,-0.00027,0.00019,-0.00048,-4e-05,-4e-05,4,20
21296,-7e-05,-0.00013,-0.00015,-0.00027,0.00019,-0.00048,-4e-05,-4e-05,4,20
21297,-7e-05,-0.00013,-0.00015,-0.00027,0.00019,-0.00048,-4e-05,-4e-05,4,20
21298,-7e-05,-0.00013,-0.00015,-0.00027,0.00019,-0.00048,-4e-05,-4e-05,4,20
21299,-7e-05,-0.00013,-0.00015,-0.00027,0.00019,-0.00048,-4e-05,-4e-05,4,20
21300,-7e-05,-0.00013,-0.00015,-0.00027,0.00019,-0.00048,-4e-05,-4e-05,4,20
21301,-7e-05,-0.00013,-0.00015,-0.00027,0.00019,-0.00048,-4e-05,-4e-05,4,20
21302,-7e-05,-0.00013,-0.00015,-0.00027,0.00019,-0.00048,-4e-05,-4e-05,4,20
21303,-7e-05,-0.00013,-0.00015,-0.00027,0.00019,-0.00048,-4e-05,-4e-05,4,20
21304,-7e-05,-0.00013,-0.00015,-0.00027,0.00019,-0.00048,-4e-05,-4e-05,4,20
21305,-7e-05,-0.00013,-0.00015,-0.00027,0.00019,-0.00048,-4e-05,-4e-05,4,20
21306,-7e-05,-0.00013,-0.00015,-0.00027,0.00019,-0.00048,-4e-05,-4e-05,4,20
21307,-7e-05,-0.00013,-0.00015,-0.00027,0.00019,-0.00048,-4e-05,-4e-05,4,20
21308,-7e-05,-0.00013,-0.00015,-0.00027,0.00019,-0.00048,-4e-05,-4e-05,4,20
21309,-7e-05,-0.00013,-0.00015,-0.00027,0.00019,-0.00048,-4e-05,-4e-05,4,20
21310,-7e-05,-0.00013,-0.00015,-0.00027,0.00019,-0.00048,-4e-05,-4e-05,4,20
21311,-7e-05,-0.00013,-0.00015,-0.00027,0.00019,-0.00048,-4e-05,-4e-05,4,20
21312,-7e-05,-0.00013,-0.00015,-0.00027,0.00019,-0.00048,-4e-05,-4e-05,4,20
21313,-7e-05,-0.00013,-0.00015,-0.00027,0.00019,-0.00048,-4e-05,-4e-05,4,20
21314,-7e-05,-0.00013,-0.00015,-0.00027,0.00019,-0.00048,-4e-05,-4e-05,4,20
21315,-7e-05,-0.00013,-0.00015,-0.00027,0.00019,-0.00048,-4e-05,-4e-05,4,20
21316,2e-05,2e-05,3e-05,-4e-05,-0.0007,0.00018,0,-1e-05,4,20
21317,7e-05,9e-05,0.0001,2e-05,-3e-05,-0.00061,5e-05,0.0001,4,20
21318,7e-05,9e-05,0.0001,2e-05,-3e-05,-0.00061,5e-05,0.0001,4,20
21319,7e-05,9e-05,0.0001,2e-05,-3e-05,-0.00061,5e-05,0.0001,4,20
21320,7e-05,9e-05,0.0001,2e-05,-3e-05,-0.00061,5e-05,0.0001,4,20
21321,7e-05,9e-05,0.0001,2e-05,-3e-05,-0.00061,5e-05,0.0001,4,20
21322,7e-05,9e-05,0.0001,2e-05,-3e-05,-0.00061,5e-05,0.0001,4,20
21323,7e-05,9e-05,0.0001,2e-05,-3e-05,-0.00061,5e-05,0.0001,4,20
21324,7e-05,9e-05,0.0001,2e-05,-3e-05,-0.00061,5e-05,0.0001,4,20
21325,7e-05,9e-05,0.0001,2e-05,-3e-05,-0.00061,5e-05,0.0001,4,20
21326,7e-05,9e-05,0.0001,2e-05,-3e-05,-0.00061,5e-05,0.0001,4,20
21327,7e-05,9e-05,0.0001,2e-05,-3e-05,-0.00061,5e-05,0.0001,4,20
21328,7e-05,9e-05,0.0001,2e-05,-3e-05,-0.00061,5e-05,0.0001,4,20
21329,-1e-05,3e-05,9e-05,0.00015,0.00079,-0.00083,-1e-05,0,4,20
21330,2e-05,7e-05,8e-05,-0.00018,-0.00045,0.00029,6e-05,1e-05,4,20
21331,2e-05,7e-05,8e-05,-0.00018,-0.00045,0.00029,6e-05,1e-05,4,20
21332,2e-05,7e-05,8e-05,-0.00018,-0.00045,0.00029,6e-05,1e-05,4,20
21333,2e-05,7e-05,8e-05,-0.00018,-0.00045,0.00029,6e-05,1e-05,4,20
21334,2e-05,7e-05,8e-05,-0.00018,-0.00045,0.00029,6e-05,1e-05,4,20
21335,2e-05,7e-05,8e-05,-0.00018,-0.00045,0.00029,6e-05,1e-05,4,20
21336,2e-05,7e-05,8e-05,-0.00018,-0.00045,0.00029,6e-05,1e-05,4,20
21339,-8e-05,-4e-05,-4e-05,0.00034,0.00047,-3e-05,-9e-05,-8e-05,4,20
21340,-8e-05,-4e-05,-4e-05,0.00034,0.00047,-3e-05,-9e-05,-8e-05,4,20
21341,-8e-05,-4e-05,-4e-05,0.00034,0.00047,-3e-05,-9e-05,-8e-05,4,20
21342,-8e-05,-4e-05,-4e-05,0.00034,0.00047,-3e-05,-9e-05,-8e-05,4,20
21343,-8e-05,-4e-05,-4e-05,0.00034,0.00047,-3e-05,-9e-05,-8e-05,4,20
21344,-8e-05,-4e-05,-4e-05,0.00034,0.00047,-3e-05,-9e-05,-8e-05,4,20
21345,-8e-05,-4e-05,-4e-05,0.00034,0.00047,-3e-05,-9e-05,-8e-05,4,20
21346,-8e-05,-4e-05,-4e-05,0.00034,0.00047,-3e-05,-9e-05,-8e-05,4,20
21347,-8e-05,-4e-05,-4e-05,0.00034,0.00047,-3e-05,-9e-05,-8e-05,4,20
21348,-8e-05,-4e-05,-4e-05,0.00034,0.00047,-3e-05,-9e-05,-8e-05,4,20
21349,-8e-05,-4e-05,-4e-05,0.00034,0.00047,-3e-05,-9e-05,-8e-05,4,20
21350,-8e-05,-4e-05,-4e-05,0.00034,0.00047,-3e-05,-9e-05,-8e-05,4,20
21351,-8e-05,-4e-05,-4e-05,0.00034,0.00047,-3e-05,-9e-05,-8e-05,4,20
21352,-8e-05,-4e-05,-4e-05,0.00034,0.00047,-3e-05,-9e-05,-8e-05,4,20
21353,-8e-05,-4e-05,-4e-05,0.00034,0.00047,-3e-05,-9e-05,-8e-05,4,20
21354,4e-05,7e-05,0.00019,0.00127,0.00019,0.00089,6e-05,5e-05,4,20
21355,4e-05,7e-05,0.00019,0.00127,0.00019,0.00089,6e-05,5e-05,4,20
21356,4e-05,7e-05,0.00019,0.00127,0.00019,0.00089,6e-05,5e-05,4,20
21357,4e-05,7e-05,0.00019,0.00127,0.00019,0.00089,6e-05,5e-05,4,20
21358,4e-05,7e-05,0.00019,0.00127,0.00019,0.00089,6e-05,5e-05,4,20
21359,-3e-05,-5e-05,0.0001,0.00023,-0.00027,0.00025,0,-3e-05,4,20
21360,-2e-05,-6e-05,-0.0004,-0.0004,8e-05,-0.00045,4e-05,-3e-05,4,20
21361,-2e-05,-6e-05,-0.0004,-0.0004,8e-05,-0.00045,4e-05,-3e-05,4,20
21362,-2e-05,-6e-05,-0.0004,-0.0004,8e-05,-0.00045,4e-05,-3e-05,4,20
21363,-2e-05,-6e-05,-0.0004,-0.0004,8e-05,-0.00045,4e-05,-3e-05,4,20
21364,-2e-05,-6e-05,-0.0004,-0.0004,8e-05,-0.00045,4e-05,-3e-05,4,20
21365,-2e-05,-6e-05,-0.0004,-0.0004,8e-05,-0.00045,4e-05,-3e-05,4,20
21366,-2e-05,-6e-05,-0.0004,-0.0004,8e-05,-0.00045,4e-05,-3e-05,4,20
21367,-2e-05,-6e-05,-0.0004,-0.0004,8e-05,-0.00045,4e-05,-3e-05,4,20
21368,-2e-05,-6e-05,-0.0004,-0.0004,8e-05,-0.00045,4e-05,-3e-05,4,20
21369,-2e-05,-6e-05,-0.0004,-0.0004,8e-05,-0.00045,4e-05,-3e-05,4,20
21370,-2e-05,-6e-05,-0.0004,-0.0004,8e-05,-0.00045,4e-05,-3e-05,4,20
21371,-2e-05,-6e-05,-0.0004,-0.0004,8e-05,-0.00045,4e-05,-3e-05,4,20
21372,-2e-05,-6e-05,-0.0004,-0.0004,8e-05,-0.00045,4e-05,-3e-05,4,20
21373,-2e-05,-6e-05,-0.0004,-0.0004,8e-05,-0.00045,4e-05,-3e-05,4,20
21374,-2e-05,-6e-05,-0.0004,-0.0004,8e-05,-0.00045,4e-05,-3e-05,4,20
21375,-2e-05,-6e-05,-0.0004,-0.0004,8e-05,-0.00045,4e-05,-3e-05,4,20
21376,-3e-05,-3e-05,4e-05,0.00013,0.00048,-0.00018,-7e-05,-5e-05,4,20
21377,-3e-05,-3e-05,4e-05,0.00013,0.00048,-0.00018,-7e-05,-5e-05,4,20
21378,4e-05,9e-05,0.00037,0.00103,0.00056,0.00029,-6e-05,0,4,20
21379,4e-05,9e-05,0.00037,0.00103,0.00056,0.00029,-6e-05,0,4,20
21380,4e-05,9e-05,0.00037,0.00103,0.00056,0.00029,-6e-05,0,4,20
21381,4e-05,9e-05,0.00037,0.00103,0.00056,0.00029,-6e-05,0,4,20
21382,4e-05,9e-05,0.00037,0.00103,0.00056,0.00029,-6e-05,0,4,20
21383,4e-05,9e-05,0.00037,0.00103,0.00056,0.00029,-6e-05,0,4,20
21384,4e-05,9e-05,0.00037,0.00103,0.00056,0.00029,-6e-05,0,4,20
21385,4e-05,9e-05,0.00037,0.00103,0.00056,0.00029,-6e-05,0,4,20
21386,4e-05,9e-05,0.00037,0.00103,0.00056,0.00029,-6e-05,0,4,20
21389,4e-05,9e-05,0.00037,0.00103,0.00056,0.00029,-6e-05,0,4,20
21390,4e-05,9e-05,0.00037,0.00103,0.00056,0.00029,-6e-05,0,4,20
21391,4e-05,9e-05,0.00037,0.00103,0.00056,0.00029,-6e-05,0,4,20
21392,4e-05,9e-05,0.00037,0.00103,0.00056,0.00029,-6e-05,0,4,20
21393,4e-05,9e-05,0.00037,0.00103,0.00056,0.00029,-6e-05,0,4,20
21394,4e-05,9e-05,0.00037,0.00103,0.00056,0.00029,-6e-05,0,4,20
21395,4e-05,9e-05,0.00037,0.00103,0.00056,0.00029,-6e-05,0,4,20
21396,4e-05,9e-05,0.00037,0.00103,0.00056,0.00029,-6e-05,0,4,20
21397,4e-05,9e-05,0.00037,0.00103,0.00056,0.00029,-6e-05,0,4,20
21398,-3e-05,-2e-05,-9e-05,-0.00033,0.00015,-9e-05,0,1e-05,4,20
21399,-3e-05,-2e-05,-9e-05,-0.00033,0.00015,-9e-05,0,1e-05,4,20
21400,0,-1e-05,-1e-05,0.00077,0.00045,-6e-05,2e-05,-3e-05,4,20
21401,0,-1e-05,-1e-05,0.00077,0.00045,-6e-05,2e-05,-3e-05,4,20
21402,0,-1e-05,-1e-05,0.00077,0.00045,-6e-05,2e-05,-3e-05,4,20
21403,0,-1e-05,-1e-05,0.00077,0.00045,-6e-05,2e-05,-3e-05,4,20
21404,0,-1e-05,-1e-05,0.00077,0.00045,-6e-05,2e-05,-3e-05,4,20
21405,0,-1e-05,-1e-05,0.00077,0.00045,-6e-05,2e-05,-3e-05,4,20
21406,0,-1e-05,-1e-05,0.00077,0.00045,-6e-05,2e-05,-3e-05,4,20
21407,0,-1e-05,-1e-05,0.00077,0.00045,-6e-05,2e-05,-3e-05,4,20
21408,0,-1e-05,-1e-05,0.00077,0.00045,-6e-05,2e-05,-3e-05,4,20
21409,0,-1e-05,-1e-05,0.00077,0.00045,-6e-05,2e-05,-3e-05,4,20
21410,0,-1e-05,-1e-05,0.00077,0.00045,-6e-05,2e-05,-3e-05,4,20
21411,0,-1e-05,-1e-05,0.00077,0.00045,-6e-05,2e-05,-3e-05,4,20
21412,0,-1e-05,-1e-05,0.00077,0.00045,-6e-05,2e-05,-3e-05,4,20
21413,3e-05,2e-05,0.0002,0.00072,0.0011,0.00041,-7e-05,0,4,20
21414,-3e-05,-7e-05,-0.0002,-0.00043,0.00104,-0.00034,6e-05,-2e-05,4,20
21415,-4e-05,-2e-05,0.00022,0.0002,-0.00012,0.00033,-8e-05,-6e-05,4,20
21416,-4e-05,-2e-05,0.00022,0.0002,-0.00012,0.00033,-8e-05,-6e-05,4,20
21417,-4e-05,-2e-05,0.00022,0.0002,-0.00012,0.00033,-8e-05,-6e-05,4,20
21418,-4e-05,-2e-05,0.00022,0.0002,-0.00012,0.00033,-8e-05,-6e-05,4,20
21419,-4e-05,-2e-05,0.00022,0.0002,-0.00012,0.00033,-8e-05,-6e-05,4,20
21420,-4e-05,-2e-05,0.00022,0.0002,-0.00012,0.00033,-8e-05,-6e-05,4,20
21421,-4e-05,-2e-05,0.00022,0.0002,-0.00012,0.00033,-8e-05,-6e-05,4,20
21422,-4e-05,-2e-05,0.00022,0.0002,-0.00012,0.00033,-8e-05,-6e-05,4,20
21423,-4e-05,-2e-05,0.00022,0.0002,-0.00012,0.00033,-8e-05,-6e-05,4,20
21424,-4e-05,-2e-05,0.00022,0.0002,-0.00012,0.00033,-8e-05,-6e-05,4,20
21425,-4e-05,-2e-05,0.00022,0.0002,-0.00012,0.00033,-8e-05,-6e-05,4,20
21426,-4e-05,-2e-05,0.00022,0.0002,-0.00012,0.00033,-8e-05,-6e-05,4,20
21427,-4e-05,-2e-05,0.00022,0.0002,-0.00012,0.00033,-8e-05,-6e-05,4,20
21428,-4e-05,-2e-05,0.00022,0.0002,-0.00012,0.00033,-8e-05,-6e-05,4,20
21429,-4e-05,-2e-05,0.00022,0.0002,-0.00012,0.00033,-8e-05,-6e-05,4,20
21430,-4e-05,-2e-05,0.00022,0.0002,-0.00012,0.00033,-8e-05,-6e-05,4,20
21431,-4e-05,-2e-05,0.00022,0.0002,-0.00012,0.00033,-8e-05,-6e-05,4,20
21432,-4e-05,-2e-05,0.00022,0.0002,-0.00012,0.00033,-8e-05,-6e-05,4,20
21433,-4e-05,-2e-05,0.00022,0.0002,-0.00012,0.00033,-8e-05,-6e-05,4,20
21434,-4e-05,-2e-05,0.00022,0.0002,-0.00012,0.00033,-8e-05,-6e-05,4,20
21435,-4e-05,-2e-05,0.00022,0.0002,-0.00012,0.00033,-8e-05,-6e-05,4,20
21436,0,1e-05,-0.00015,-0.00046,3e-05,-0.00014,-8e-05,-3e-05,4,20
21439,1e-05,2e-05,-5e-05,0.00011,-0.00091,0.00014,3e-05,3e-05,4,20
21440,1e-05,2e-05,-5e-05,0.00011,-0.00091,0.00014,3e-05,3e-05,4,20
21441,1e-05,2e-05,-5e-05,0.00011,-0.00091,0.00014,3e-05,3e-05,4,20
21442,1e-05,2e-05,-5e-05,0.00011,-0.00091,0.00014,3e-05,3e-05,4,20
21443,1e-05,2e-05,-5e-05,0.00011,-0.00091,0.00014,3e-05,3e-05,4,20
21444,1e-05,2e-05,-5e-05,0.00011,-0.00091,0.00014,3e-05,3e-05,4,20
21445,1e-05,2e-05,-5e-05,0.00011,-0.00091,0.00014,3e-05,3e-05,4,20
21446,1e-05,2e-05,-5e-05,0.00011,-0.00091,0.00014,3e-05,3e-05,4,20
21447,1e-05,2e-05,-5e-05,0.00011,-0.00091,0.00014,3e-05,3e-05,4,20
21448,1e-05,2e-05,-5e-05,0.00011,-0.00091,0.00014,3e-05,3e-05,4,20
21449,1e-05,2e-05,-5e-05,0.00011,-0.00091,0.00014,3e-05,3e-05,4,20
21450,1e-05,2e-05,-5e-05,0.00011,-0.00091,0.00014,3e-05,3e-05,4,20
21451,1e-05,2e-05,-5e-05,0.00011,-0.00091,0.00014,3e-05,3e-05,4,20
21452,1e-05,2e-05,-5e-05,0.00011,-0.00091,0.00014,3e-05,3e-05,4,20
21453,1e-05,2e-05,-5e-05,0.00011,-0.00091,0.00014,3e-05,3e-05,4,20
21454,1e-05,2e-05,-5e-05,0.00011,-0.00091,0.00014,3e-05,3e-05,4,20
21455,1e-05,2e-05,-5e-05,0.00011,-0.00091,0.00014,3e-05,3e-05,4,20
21456,1e-05,2e-05,-5e-05,0.00011,-0.00091,0.00014,3e-05,3e-05,4,20
21457,1e-05,2e-05,-5e-05,0.00011,-0.00091,0.00014,3e-05,3e-05,4,20
21458,1e-05,2e-05,-5e-05,0.00011,-0.00091,0.00014,3e-05,3e-05,4,20
21459,-1e-05,-3e-05,-1e-05,0.0003,-0.00014,-0.00019,-1e-05,0,4,20
21460,-4e-05,-5e-05,-0.00012,-0.0005,-0.00018,-0.00012,4e-05,-2e-05,4,20
21461,3e-05,5e-05,0.00042,0.00086,0.00036,0.00018,1e-05,0,4,20
21462,3e-05,5e-05,0.00042,0.00086,0.00036,0.00018,1e-05,0,4,20
21463,3e-05,5e-05,0.00042,0.00086,0.00036,0.00018,1e-05,0,4,20
21464,3e-05,5e-05,0.00042,0.00086,0.00036,0.00018,1e-05,0,4,20
21465,3e-05,5e-05,0.00042,0.00086,0.00036,0.00018,1e-05,0,4,20
21466,3e-05,5e-05,0.00042,0.00086,0.00036,0.00018,1e-05,0,4,20
21467,3e-05,5e-05,0.00042,0.00086,0.00036,0.00018,1e-05,0,4,20
21468,3e-05,5e-05,0.00042,0.00086,0.00036,0.00018,1e-05,0,4,20
21469,3e-05,5e-05,0.00042,0.00086,0.00036,0.00018,1e-05,0,4,20
21470,3e-05,5e-05,0.00042,0.00086,0.00036,0.00018,1e-05,0,4,20
21471,3e-05,5e-05,0.00042,0.00086,0.00036,0.00018,1e-05,0,4,20
21472,3e-05,5e-05,0.00042,0.00086,0.00036,0.00018,1e-05,0,4,20
21473,3e-05,5e-05,0.00042,0.00086,0.00036,0.00018,1e-05,0,4,20
21474,1e-05,6e-05,8e-05,0.00032,0.00013,-0.00076,-1e-05,-4e-05,4,20
21475,-4e-05,-0.0001,-0.00037,9e-05,-0.00054,0.00052,6e-05,4e-05,4,20
21476,-4e-05,-0.0001,-0.00037,9e-05,-0.00054,0.00052,6e-05,4e-05,4,20
21477,-4e-05,-0.0001,-0.00037,9e-05,-0.00054,0.00052,6e-05,4e-05,4,20
21478,-4e-05,-0.0001,-0.00037,9e-05,-0.00054,0.00052,6e-05,4e-05,4,20
21479,-4e-05,-0.0001,-0.00037,9e-05,-0.00054,0.00052,6e-05,4e-05,4,20
21480,-4e-05,-0.0001,-0.00037,9e-05,-0.00054,0.00052,6e-05,4e-05,4,20
21481,-4e-05,-0.0001,-0.00037,9e-05,-0.00054,0.00052,6e-05,4e-05,4,20
21482,-4e-05,-0.0001,-0.00037,9e-05,-0.00054,0.00052,6e-05,4e-05,4,20
21483,-4e-05,-0.0001,-0.00037,9e-05,-0.00054,0.00052,6e-05,4e-05,4,20
21484,-4e-05,-0.0001,-0.00037,9e-05,-0.00054,0.00052,6e-05,4e-05,4,20
21485,-4e-05,-0.0001,-0.00037,9e-05,-0.00054,0.00052,6e-05,4e-05,4,20
21486,-4e-05,-0.0001,-0.00037,9e-05,-0.00054,0.00052,6e-05,4e-05,4,20
21488,-4e-05,-0.0001,-0.00037,9e-05,-0.00054,0.00052,6e-05,4e-05,4,20
21489,-4e-05,-0.0001,-0.00037,9e-05,-0.00054,0.00052,6e-05,4e-05,4,20
21490,-4e-05,-0.0001,-0.00037,9e-05,-0.00054,0.00052,6e-05,4e-05,4,20
21491,-4e-05,-0.0001,-0.00037,9e-05,-0.00054,0.00052,6e-05,4e-05,4,20
21492,-4e-05,-0.0001,-0.00037,9e-05,-0.00054,0.00052,6e-05,4e-05,4,20
21493,-4e-05,-0.0001,-0.00037,9e-05,-0.00054,0.00052,6e-05,4e-05,4,20
21494,-4e-05,-0.0001,-0.00037,9e-05,-0.00054,0.00052,6e-05,4e-05,4,20
21495,-4e-05,-0.0001,-0.00037,9e-05,-0.00054,0.00052,6e-05,4e-05,4,20
21496,4e-05,1e-05,0,-0.00013,0.00075,0.00093,8e-05,3e-05,4,20
21497,4e-05,1e-05,0,-0.00013,0.00075,0.00093,8e-05,3e-05,4,20
21498,4e-05,1e-05,0,-0.00013,0.00075,0.00093,8e-05,3e-05,4,20
21499,4e-05,1e-05,0,-0.00013,0.00075,0.00093,8e-05,3e-05,4,20
21500,4e-05,1e-05,0,-0.00013,0.00075,0.00093,8e-05,3e-05,4,20
21501,4e-05,1e-05,0,-0.00013,0.00075,0.00093,8e-05,3e-05,4,20
21502,-8e-05,-0.00013,-0.00032,-4e-05,-0.00059,-0.00036,-6e-05,-0.0001,4,20
21503,-8e-05,-0.00013,-0.00032,-4e-05,-0.00059,-0.00036,-6e-05,-0.0001,4,20
21504,-8e-05,-0.00013,-0.00032,-4e-05,-0.00059,-0.00036,-6e-05,-0.0001,4,20
21505,-8e-05,-0.00013,-0.00032,-4e-05,-0.00059,-0.00036,-6e-05,-0.0001,4,20
21506,-8e-05,-0.00013,-0.00032,-4e-05,-0.00059,-0.00036,-6e-05,-0.0001,4,20
21507,-8e-05,-0.00013,-0.00032,-4e-05,-0.00059,-0.00036,-6e-05,-0.0001,4,20
21508,-8e-05,-0.00013,-0.00032,-4e-05,-0.00059,-0.00036,-6e-05,-0.0001,4,20
21509,-8e-05,-0.00013,-0.00032,-4e-05,-0.00059,-0.00036,-6e-05,-0.0001,4,20
21510,-8e-05,-0.00013,-0.00032,-4e-05,-0.00059,-0.00036,-6e-05,-0.0001,4,20
21511,-8e-05,-0.00013,-0.00032,-4e-05,-0.00059,-0.00036,-6e-05,-0.0001,4,20
21512,-8e-05,-0.00013,-0.00032,-4e-05,-0.00059,-0.00036,-6e-05,-0.0001,4,20
21513,-8e-05,-0.00013,-0.00032,-4e-05,-0.00059,-0.00036,-6e-05,-0.0001,4,20
21514,-8e-05,-0.00013,-0.00032,-4e-05,-0.00059,-0.00036,-6e-05,-0.0001,4,20
21515,-8e-05,-0.00013,-0.00032,-4e-05,-0.00059,-0.00036,-6e-05,-0.0001,4,20
21516,-8e-05,-0.00013,-0.00032,-4e-05,-0.00059,-0.00036,-6e-05,-0.0001,4,20
21517,-8e-05,-0.00013,-0.00032,-4e-05,-0.00059,-0.00036,-6e-05,-0.0001,4,20
21518,1e-05,2e-05,-4e-05,-0.00021,-0.00126,-0.00022,-9e-05,0,4,20
21519,1e-05,2e-05,-4e-05,-0.00021,-0.00126,-0.00022,-9e-05,0,4,20
21520,3e-05,6e-05,0.00017,-0.00056,0.00011,-0.00054,0,2e-05,4,20
21521,3e-05,6e-05,0.00017,-0.00056,0.00011,-0.00054,0,2e-05,4,20
21522,3e-05,6e-05,0.00017,-0.00056,0.00011,-0.00054,0,2e-05,4,20
21523,3e-05,6e-05,0.00017,-0.00056,0.00011,-0.00054,0,2e-05,4,20
21524,3e-05,6e-05,0.00017,-0.00056,0.00011,-0.00054,0,2e-05,4,20
21525,3e-05,6e-05,0.00017,-0.00056,0.00011,-0.00054,0,2e-05,4,20
21526,3e-05,6e-05,0.00017,-0.00056,0.00011,-0.00054,0,2e-05,4,20
21527,3e-05,6e-05,0.00017,-0.00056,0.00011,-0.00054,0,2e-05,4,20
21528,3e-05,6e-05,0.00017,-0.00056,0.00011,-0.00054,0,2e-05,4,20
21529,3e-05,6e-05,0.00017,-0.00056,0.00011,-0.00054,0,2e-05,4,20
21530,3e-05,6e-05,0.00017,-0.00056,0.00011,-0.00054,0,2e-05,4,20
21531,3e-05,6e-05,0.00017,-0.00056,0.00011,-0.00054,0,2e-05,4,20
21532,3e-05,6e-05,0.00017,-0.00056,0.00011,-0.00054,0,2e-05,4,20
21533,4e-05,9e-05,0.00022,0.00032,0.00027,-0.00018,-6e-05,2e-05,4,20
21534,4e-05,9e-05,0.00022,0.00032,0.00027,-0.00018,-6e-05,2e-05,4,20
21535,0,-1e-05,-7e-05,-0.00032,0.00028,0.00073,0.0002,1e-05,4,20
21536,0,-1e-05,-7e-05,-0.00032,0.00028,0.00073,0.0002,1e-05,4,20
21540,0,-1e-05,-7e-05,-0.00032,0.00028,0.00073,0.0002,1e-05,4,20
21541,0,-1e-05,-7e-05,-0.00032,0.00028,0.00073,0.0002,1e-05,4,20
21542,0,-1e-05,-7e-05,-0.00032,0.00028,0.00073,0.0002,1e-05,4,20
21543,0,-1e-05,-7e-05,-0.00032,0.00028,0.00073,0.0002,1e-05,4,20
21544,0,-1e-05,-7e-05,-0.00032,0.00028,0.00073,0.0002,1e-05,4,20
21545,0,-1e-05,-7e-05,-0.00032,0.00028,0.00073,0.0002,1e-05,4,20
21546,0,-1e-05,-7e-05,-0.00032,0.00028,0.00073,0.0002,1e-05,4,20
21547,0,-1e-05,-7e-05,-0.00032,0.00028,0.00073,0.0002,1e-05,4,20
21548,0,-1e-05,-7e-05,-0.00032,0.00028,0.00073,0.0002,1e-05,4,20
21549,0,-1e-05,-7e-05,-0.00032,0.00028,0.00073,0.0002,1e-05,4,20
21550,0,-1e-05,-7e-05,-0.00032,0.00028,0.00073,0.0002,1e-05,4,20
21551,0,-1e-05,-7e-05,-0.00032,0.00028,0.00073,0.0002,1e-05,4,20
21552,0,-1e-05,-7e-05,-0.00032,0.00028,0.00073,0.0002,1e-05,4,20
21553,0,-1e-05,-7e-05,-0.00032,0.00028,0.00073,0.0002,1e-05,4,20
21554,0,-1e-05,-7e-05,-0.00032,0.00028,0.00073,0.0002,1e-05,4,20
21555,0,-1e-05,-7e-05,-0.00032,0.00028,0.00073,0.0002,1e-05,4,20
21556,1e-05,1e-05,-9e-05,-6e-05,-5e-05,0.00021,0,-2e-05,4,20
21557,2e-05,-1e-05,6e-05,-0.00011,-0.00012,-0.00013,-4e-05,1e-05,4,20
21558,-5e-05,-9e-05,-6e-05,0.00018,0.00056,0.00039,-2e-05,-6e-05,4,20
21559,-5e-05,-9e-05,-6e-05,0.00018,0.00056,0.00039,-2e-05,-6e-05,4,20
21560,-5e-05,-9e-05,-6e-05,0.00018,0.00056,0.00039,-2e-05,-6e-05,4,20
21561,-5e-05,-9e-05,-6e-05,0.00018,0.00056,0.00039,-2e-05,-6e-05,4,20
21562,-5e-05,-9e-05,-6e-05,0.00018,0.00056,0.00039,-2e-05,-6e-05,4,20
21563,-5e-05,-9e-05,-6e-05,0.00018,0.00056,0.00039,-2e-05,-6e-05,4,20
21564,-5e-05,-9e-05,-6e-05,0.00018,0.00056,0.00039,-2e-05,-6e-05,4,20
21565,-5e-05,-9e-05,-6e-05,0.00018,0.00056,0.00039,-2e-05,-6e-05,4,20
21566,-5e-05,-9e-05,-6e-05,0.00018,0.00056,0.00039,-2e-05,-6e-05,4,20
21567,-5e-05,-9e-05,-6e-05,0.00018,0.00056,0.00039,-2e-05,-6e-05,4,20
21568,-5e-05,-9e-05,-6e-05,0.00018,0.00056,0.00039,-2e-05,-6e-05,4,20
21569,-5e-05,-9e-05,-6e-05,0.00018,0.00056,0.00039,-2e-05,-6e-05,4,20
21570,-5e-05,-9e-05,-6e-05,0.00018,0.00056,0.00039,-2e-05,-6e-05,4,20
21571,-5e-05,-9e-05,-6e-05,0.00018,0.00056,0.00039,-2e-05,-6e-05,4,20
21572,-5e-05,-9e-05,-6e-05,0.00018,0.00056,0.00039,-2e-05,-6e-05,4,20
21573,-5e-05,-9e-05,-6e-05,0.00018,0.00056,0.00039,-2e-05,-6e-05,4,20
21574,-5e-05,-9e-05,-6e-05,0.00018,0.00056,0.00039,-2e-05,-6e-05,4,20
21575,-5e-05,-9e-05,-6e-05,0.00018,0.00056,0.00039,-2e-05,-6e-05,4,20
21576,-5e-05,-9e-05,-6e-05,0.00018,0.00056,0.00039,-2e-05,-6e-05,4,20
21577,-5e-05,-9e-05,-6e-05,0.00018,0.00056,0.00039,-2e-05,-6e-05,4,20
21578,-5e-05,-9e-05,-6e-05,0.00018,0.00056,0.00039,-2e-05,-6e-05,4,20
21579,-5e-05,-9e-05,-6e-05,0.00018,0.00056,0.00039,-2e-05,-6e-05,4,20
21580,-7e-05,-0.0001,-0.00013,-0.00079,0.00032,-0.00028,-0.00011,-7e-05,4,20
21581,3e-05,8e-05,0.00016,0.00022,-0.00035,-0.00055,0,3e-05,4,20
21582,3e-05,8e-05,0.00016,0.00022,-0.00035,-0.00055,0,3e-05,4,20
21583,3e-05,8e-05,0.00016,0.00022,-0.00035,-0.00055,0,3e-05,4,20
21584,3e-05,8e-05,0.00016,0.00022,-0.00035,-0.00055,0,3e-05,4,20
21585,3e-05,8e-05,0.00016,0.00022,-0.00035,-0.00055,0,3e-05,4,20
21586,3e-05,8e-05,0.00016,0.00022,-0.00035,-0.00055,0,3e-05,4,20
21589,3e-05,8e-05,0.00016,0.00022,-0.00035,-0.00055,0,3e-05,4,20
21590,3e-05,8e-05,0.00016,0.00022,-0.00035,-0.00055,0,3e-05,4,20
21591,3e-05,8e-05,0.00016,0.00022,-0.00035,-0.00055,0,3e-05,4,20
21592,3e-05,8e-05,0.00016,0.00022,-0.00035,-0.00055,0,3e-05,4,20
21593,-1e-05,-3e-05,-0.00031,-0.00099,0.00051,0.00059,7e-05,-2e-05,4,20
21594,-1e-05,-3e-05,-0.00031,-0.00099,0.00051,0.00059,7e-05,-2e-05,4,20
21595,-1e-05,-3e-05,-0.00031,-0.00099,0.00051,0.00059,7e-05,-2e-05,4,20
21596,-1e-05,-3e-05,-0.00031,-0.00099,0.00051,0.00059,7e-05,-2e-05,4,20
21597,-1e-05,-3e-05,-0.00031,-0.00099,0.00051,0.00059,7e-05,-2e-05,4,20
21598,-1e-05,-3e-05,-0.00031,-0.00099,0.00051,0.00059,7e-05,-2e-05,4,20
21599,-1e-05,-3e-05,-0.00031,-0.00099,0.00051,0.00059,7e-05,-2e-05,4,20
21600,-1e-05,-3e-05,-0.00031,-0.00099,0.00051,0.00059,7e-05,-2e-05,4,20
21601,2e-05,2e-05,-0.00019,-0.00082,-0.00065,0.0002,-1e-05,6e-05,4,20
21602,-2e-05,-3e-05,6e-05,0.0002,3e-05,-0.00026,-0.00013,-5e-05,4,20
21603,-2e-05,-3e-05,6e-05,0.0002,3e-05,-0.00026,-0.00013,-5e-05,4,20
21604,-2e-05,-3e-05,6e-05,0.0002,3e-05,-0.00026,-0.00013,-5e-05,4,20
21605,-2e-05,-3e-05,6e-05,0.0002,3e-05,-0.00026,-0.00013,-5e-05,4,20
21606,-2e-05,-3e-05,6e-05,0.0002,3e-05,-0.00026,-0.00013,-5e-05,4,20
21607,-2e-05,-3e-05,6e-05,0.0002,3e-05,-0.00026,-0.00013,-5e-05,4,20
21608,-2e-05,-3e-05,6e-05,0.0002,3e-05,-0.00026,-0.00013,-5e-05,4,20
21609,-2e-05,-3e-05,6e-05,0.0002,3e-05,-0.00026,-0.00013,-5e-05,4,20
21610,-2e-05,-3e-05,6e-05,0.0002,3e-05,-0.00026,-0.00013,-5e-05,4,20
21611,-2e-05,-3e-05,6e-05,0.0002,3e-05,-0.00026,-0.00013,-5e-05,4,20
21613,-2e-05,-3e-05,6e-05,0.0002,3e-05,-0.00026,-0.00013,-5e-05,4,20
21614,-2e-05,-3e-05,6e-05,0.0002,3e-05,-0.00026,-0.00013,-5e-05,4,20
21615,-2e-05,-3e-05,6e-05,0.0002,3e-05,-0.00026,-0.00013,-5e-05,4,20
21616,-5e-05,-8e-05,-0.00016,-0.00049,-0.0003,0.00071,5e-05,-1e-05,4,20
21617,-3e-05,-5e-05,-9e-05,-0.0001,3e-05,-0.0002,5e-05,-3e-05,4,20
21618,-1e-05,-1e-05,-0.00015,-0.00087,-0.00016,-8e-05,0,-1e-05,4,20
21619,-1e-05,-1e-05,-0.00015,-0.00087,-0.00016,-8e-05,0,-1e-05,4,20
21620,-1e-05,-1e-05,-0.00015,-0.00087,-0.00016,-8e-05,0,-1e-05,4,20
21621,-1e-05,-1e-05,-0.00015,-0.00087,-0.00016,-8e-05,0,-1e-05,4,20
21622,-1e-05,-1e-05,-0.00015,-0.00087,-0.00016,-8e-05,0,-1e-05,4,20
21623,-1e-05,-1e-05,-0.00015,-0.00087,-0.00016,-8e-05,0,-1e-05,4,20
21624,-1e-05,-1e-05,-0.00015,-0.00087,-0.00016,-8e-05,0,-1e-05,4,20
21625,-1e-05,-1e-05,-0.00015,-0.00087,-0.00016,-8e-05,0,-1e-05,4,20
21626,-1e-05,-1e-05,-0.00015,-0.00087,-0.00016,-8e-05,0,-1e-05,4,20
21627,-1e-05,-1e-05,-0.00015,-0.00087,-0.00016,-8e-05,0,-1e-05,4,20
21628,-1e-05,-1e-05,-0.00015,-0.00087,-0.00016,-8e-05,0,-1e-05,4,20
21629,-1e-05,-1e-05,-0.00015,-0.00087,-0.00016,-8e-05,0,-1e-05,4,20
21630,-1e-05,-1e-05,-0.00015,-0.00087,-0.00016,-8e-05,0,-1e-05,4,20
21631,-1e-05,-1e-05,-0.00015,-0.00087,-0.00016,-8e-05,0,-1e-05,4,20
21632,-1e-05,-1e-05,-0.00015,-0.00087,-0.00016,-8e-05,0,-1e-05,4,20
21633,-1e-05,-1e-05,-0.00015,-0.00087,-0.00016,-8e-05,0,-1e-05,4,20
21634,-1e-05,-1e-05,-0.00015,-0.00087,-0.00016,-8e-05,0,-1e-05,4,20
21635,-1e-05,-1e-05,-0.00015,-0.00087,-0.00016,-8e-05,0,-1e-05,4,20
21636,-1e-05,-1e-05,-0.00015,-0.00087,-0.00016,-8e-05,0,-1e-05,4,20
21639,2e-05,5e-05,0.00024,0.00054,-0.00031,-1e-05,-9e-05,-2e-05,4,20
21640,-1e-05,-2e-05,-6e-05,-0.00016,-0.00012,0.00064,7e-05,2e-05,4,20
21641,-1e-05,-2e-05,-6e-05,-0.00016,-0.00012,0.00064,7e-05,2e-05,4,20
21642,-1e-05,-2e-05,-6e-05,-0.00016,-0.00012,0.00064,7e-05,2e-05,4,20
21643,-1e-05,-2e-05,-6e-05,-0.00016,-0.00012,0.00064,7e-05,2e-05,4,20
21644,-1e-05,-2e-05,-6e-05,-0.00016,-0.00012,0.00064,7e-05,2e-05,4,20
21645,-1e-05,-2e-05,-6e-05,-0.00016,-0.00012,0.00064,7e-05,2e-05,4,20
21646,-1e-05,-2e-05,-6e-05,-0.00016,-0.00012,0.00064,7e-05,2e-05,4,20
21647,-1e-05,-2e-05,-6e-05,-0.00016,-0.00012,0.00064,7e-05,2e-05,4,20
21648,-1e-05,-2e-05,-6e-05,-0.00016,-0.00012,0.00064,7e-05,2e-05,4,20
21649,-1e-05,-2e-05,-6e-05,-0.00016,-0.00012,0.00064,7e-05,2e-05,4,20
21650,-1e-05,-2e-05,-6e-05,-0.00016,-0.00012,0.00064,7e-05,2e-05,4,20
21651,-1e-05,-2e-05,-6e-05,-0.00016,-0.00012,0.00064,7e-05,2e-05,4,20
21652,-1e-05,-2e-05,-6e-05,-0.00016,-0.00012,0.00064,7e-05,2e-05,4,20
21653,-1e-05,-2e-05,-6e-05,-0.00016,-0.00012,0.00064,7e-05,2e-05,4,20
21654,-1e-05,-2e-05,-6e-05,-0.00016,-0.00012,0.00064,7e-05,2e-05,4,20
21655,-1e-05,-2e-05,-6e-05,-0.00016,-0.00012,0.00064,7e-05,2e-05,4,20
21656,-1e-05,-2e-05,-6e-05,-0.00016,-0.00012,0.00064,7e-05,2e-05,4,20
21657,-1e-05,-2e-05,-6e-05,-0.00016,-0.00012,0.00064,7e-05,2e-05,4,20
21658,-1e-05,-2e-05,-6e-05,-0.00016,-0.00012,0.00064,7e-05,2e-05,4,20
21659,-1e-05,-2e-05,-6e-05,-0.00016,-0.00012,0.00064,7e-05,2e-05,4,20
21660,-1e-05,-2e-05,-6e-05,-0.00016,-0.00012,0.00064,7e-05,2e-05,4,20
21661,-1e-05,-2e-05,-6e-05,-0.00016,-0.00012,0.00064,7e-05,2e-05,4,20
21662,-1e-05,-2e-05,-6e-05,-0.00016,-0.00012,0.00064,7e-05,2e-05,4,20
21663,-1e-05,-2e-05,-6e-05,-0.00016,-0.00012,0.00064,7e-05,2e-05,4,20
21664,-1e-05,-2e-05,-6e-05,-0.00016,-0.00012,0.00064,7e-05,2e-05,4,20
21665,-1e-05,-2e-05,-6e-05,-0.00016,-0.00012,0.00064,7e-05,2e-05,4,20
21666,-1e-05,-2e-05,-6e-05,-0.00016,-0.00012,0.00064,7e-05,2e-05,4,20
21667,-1e-05,-2e-05,-6e-05,-0.00016,-0.00012,0.00064,7e-05,2e-05,4,20
21668,8e-05,9e-05,1e-05,-0.0008,-0.00037,-0.00039,0.00011,0.0001,4,20
21669,8e-05,9e-05,1e-05,-0.0008,-0.00037,-0.00039,0.00011,0.0001,4,20
21670,1e-05,0,6e-05,-0.00034,5e-05,0.00025,-1e-05,-3e-05,4,20
21671,1e-05,0,6e-05,-0.00034,5e-05,0.00025,-1e-05,-3e-05,4,20
21672,1e-05,0,6e-05,-0.00034,5e-05,0.00025,-1e-05,-3e-05,4,20
21673,1e-05,0,6e-05,-0.00034,5e-05,0.00025,-1e-05,-3e-05,4,20
21674,1e-05,0,6e-05,-0.00034,5e-05,0.00025,-1e-05,-3e-05,4,20
21675,1e-05,0,6e-05,-0.00034,5e-05,0.00025,-1e-05,-3e-05,4,20
21676,0,-3e-05,3e-05,0.00037,-0.00042,0.00014,-4e-05,-1e-05,4,20
21677,1e-05,-1e-05,7e-05,0.00026,0.00065,-0.00014,-2e-05,-3e-05,4,20
21678,0,-1e-05,-0.00015,-0.0005,-0.00021,-0.00065,-5e-05,-3e-05,4,20
21679,0,-1e-05,-0.00015,-0.0005,-0.00021,-0.00065,-5e-05,-3e-05,4,20
21680,0,-1e-05,-0.00015,-0.0005,-0.00021,-0.00065,-5e-05,-3e-05,4,20
21681,0,-1e-05,-0.00015,-0.0005,-0.00021,-0.00065,-5e-05,-3e-05,4,20
21682,0,-1e-05,-0.00015,-0.0005,-0.00021,-0.00065,-5e-05,-3e-05,4,20
21683,0,-1e-05,-0.00015,-0.0005,-0.00021,-0.00065,-5e-05,-3e-05,4,20
21684,0,-1e-05,-0.00015,-0.0005,-0.00021,-0.00065,-5e-05,-3e-05,4,20
21685,0,-1e-05,-0.00015,-0.0005,-0.00021,-0.00065,-5e-05,-3e-05,4,20
21686,0,-1e-05,-0.00015,-0.0005,-0.00021,-0.00065,-5e-05,-3e-05,4,20
21688,0,-1e-05,-0.00015,-0.0005,-0.00021,-0.00065,-5e-05,-3e-05,4,20
21689,0,-1e-05,-0.00015,-0.0005,-0.00021,-0.00065,-5e-05,-3e-05,4,20
21690,0,-1e-05,-0.00015,-0.0005,-0.00021,-0.00065,-5e-05,-3e-05,4,20
21691,0,-1e-05,-0.00015,-0.0005,-0.00021,-0.00065,-5e-05,-3e-05,4,20
21692,0,-1e-05,-0.00015,-0.0005,-0.00021,-0.00065,-5e-05,-3e-05,4,20
21693,0,-1e-05,-0.00015,-0.0005,-0.00021,-0.00065,-5e-05,-3e-05,4,20
21694,0,-1e-05,-0.00015,-0.0005,-0.00021,-0.00065,-5e-05,-3e-05,4,20
21695,0,-1e-05,-0.00015,-0.0005,-0.00021,-0.00065,-5e-05,-3e-05,4,20
21696,0,-1e-05,-0.00015,-0.0005,-0.00021,-0.00065,-5e-05,-3e-05,4,20
21697,0,-1e-05,-0.00015,-0.0005,-0.00021,-0.00065,-5e-05,-3e-05,4,20
21698,-4e-05,-8e-05,-0.00012,0,0.00106,-7e-05,1e-05,-2e-05,4,20
21699,0,1e-05,1e-05,-0.00025,-0.00086,0.0001,-8e-05,-2e-05,4,20
21700,1e-05,0,-3e-05,-0.00038,0.00064,0.00016,6e-05,1e-05,4,20
21701,1e-05,0,-3e-05,-0.00038,0.00064,0.00016,6e-05,1e-05,4,20
21702,1e-05,0,-3e-05,-0.00038,0.00064,0.00016,6e-05,1e-05,4,20
21703,1e-05,0,-3e-05,-0.00038,0.00064,0.00016,6e-05,1e-05,4,20
21704,1e-05,0,-3e-05,-0.00038,0.00064,0.00016,6e-05,1e-05,4,20
21705,1e-05,0,-3e-05,-0.00038,0.00064,0.00016,6e-05,1e-05,4,20
21706,1e-05,0,-3e-05,-0.00038,0.00064,0.00016,6e-05,1e-05,4,20
21707,1e-05,0,-3e-05,-0.00038,0.00064,0.00016,6e-05,1e-05,4,20
21708,1e-05,0,-3e-05,-0.00038,0.00064,0.00016,6e-05,1e-05,4,20
21709,1e-05,0,-3e-05,-0.00038,0.00064,0.00016,6e-05,1e-05,4,20
21710,1e-05,0,-3e-05,-0.00038,0.00064,0.00016,6e-05,1e-05,4,20
21711,1e-05,0,-3e-05,-0.00038,0.00064,0.00016,6e-05,1e-05,4,20
21712,1e-05,0,-3e-05,-0.00038,0.00064,0.00016,6e-05,1e-05,4,20
21713,1e-05,0,-3e-05,-0.00038,0.00064,0.00016,6e-05,1e-05,4,20
21714,1e-05,0,-3e-05,-0.00038,0.00064,0.00016,6e-05,1e-05,4,20
21715,1e-05,0,-3e-05,-0.00038,0.00064,0.00016,6e-05,1e-05,4,20
21716,1e-05,0,-3e-05,-0.00038,0.00064,0.00016,6e-05,1e-05,4,20
21717,1e-05,0,-3e-05,-0.00038,0.00064,0.00016,6e-05,1e-05,4,20
21718,1e-05,0,-3e-05,-0.00038,0.00064,0.00016,6e-05,1e-05,4,20
21719,1e-05,0,-3e-05,-0.00038,0.00064,0.00016,6e-05,1e-05,4,20
21720,1e-05,0,-3e-05,-0.00038,0.00064,0.00016,6e-05,1e-05,4,20
21721,-1e-05,5e-05,0.00032,0.00018,-0.00055,-0.00036,-6e-05,0,4,20
21722,-4e-05,-4e-05,-0.00012,0.0004,-0.001,-0.00067,-3e-05,-2e-05,4,20
21723,-6e-05,-6e-05,-0.00014,-0.00024,0.00054,-0.00012,-0.00012,-5e-05,4,20
21724,-6e-05,-6e-05,-0.00014,-0.00024,0.00054,-0.00012,-0.00012,-5e-05,4,20
21725,-6e-05,-6e-05,-0.00014,-0.00024,0.00054,-0.00012,-0.00012,-5e-05,4,20
21726,-6e-05,-6e-05,-0.00014,-0.00024,0.00054,-0.00012,-0.00012,-5e-05,4,20
21727,-6e-05,-6e-05,-0.00014,-0.00024,0.00054,-0.00012,-0.00012,-5e-05,4,20
21728,-6e-05,-6e-05,-0.00014,-0.00024,0.00054,-0.00012,-0.00012,-5e-05,4,20
21729,-6e-05,-6e-05,-0.00014,-0.00024,0.00054,-0.00012,-0.00012,-5e-05,4,20
21730,-6e-05,-6e-05,-0.00014,-0.00024,0.00054,-0.00012,-0.00012,-5e-05,4,20
21731,-6e-05,-6e-05,-0.00014,-0.00024,0.00054,-0.00012,-0.00012,-5e-05,4,20
21732,-6e-05,-6e-05,-0.00014,-0.00024,0.00054,-0.00012,-0.00012,-5e-05,4,20
21733,-6e-05,-6e-05,-0.00014,-0.00024,0.00054,-0.00012,-0.00012,-5e-05,4,20
21734,-6e-05,-6e-05,-0.00014,-0.00024,0.00054,-0.00012,-0.00012,-5e-05,4,20
21735,-6e-05,-6e-05,-0.00014,-0.00024,0.00054,-0.00012,-0.00012,-5e-05,4,20
21736,-6e-05,-6e-05,-0.00014,-0.00024,0.00054,-0.00012,-0.00012,-5e-05,4,20
21739,-6e-05,-6e-05,-0.00014,-0.00024,0.00054,-0.00012,-0.00012,-5e-05,4,20
21740,-6e-05,-6e-05,-0.00014,-0.00024,0.00054,-0.00012,-0.00012,-5e-05,4,20
21741,-6e-05,-6e-05,-0.00014,-0.00024,0.00054,-0.00012,-0.00012,-5e-05,4,20
21742,-6e-05,-6e-05,-0.00014,-0.00024,0.00054,-0.00012,-0.00012,-5e-05,4,20
21743,-6e-05,-6e-05,-0.00014,-0.00024,0.00054,-0.00012,-0.00012,-5e-05,4,20
21744,-6e-05,-6e-05,-0.00014,-0.00024,0.00054,-0.00012,-0.00012,-5e-05,4,20
21745,-6e-05,-6e-05,-0.00014,-0.00024,0.00054,-0.00012,-0.00012,-5e-05,4,20
21746,-6e-05,-6e-05,-0.00014,-0.00024,0.00054,-0.00012,-0.00012,-5e-05,4,20
21747,-6e-05,-6e-05,-0.00014,-0.00024,0.00054,-0.00012,-0.00012,-5e-05,4,20
21748,-6e-05,-6e-05,-0.00014,-0.00024,0.00054,-0.00012,-0.00012,-5e-05,4,20
21749,-6e-05,-6e-05,-0.00014,-0.00024,0.00054,-0.00012,-0.00012,-5e-05,4,20
21750,-6e-05,-6e-05,-0.00014,-0.00024,0.00054,-0.00012,-0.00012,-5e-05,4,20
21751,4e-05,6e-05,0.00018,0.00066,0.00049,0.00025,1e-05,2e-05,4,20
21752,-4e-05,-0.00012,-0.0004,-0.00062,-0.0007,0.00053,-2e-05,-2e-05,4,20
21753,-3e-05,-3e-05,4e-05,-0.00018,-0.00103,-0.00077,-9e-05,-3e-05,4,20
21754,-3e-05,-3e-05,4e-05,-0.00018,-0.00103,-0.00077,-9e-05,-3e-05,4,20
21755,-3e-05,-3e-05,4e-05,-0.00018,-0.00103,-0.00077,-9e-05,-3e-05,4,20
21756,-3e-05,-3e-05,4e-05,-0.00018,-0.00103,-0.00077,-9e-05,-3e-05,4,20
21757,-3e-05,-3e-05,4e-05,-0.00018,-0.00103,-0.00077,-9e-05,-3e-05,4,20
21758,0,3e-05,7e-05,0.00039,0.00025,-0.00067,3e-05,-2e-05,4,20
21759,0,3e-05,7e-05,0.00039,0.00025,-0.00067,3e-05,-2e-05,4,20
21760,1e-05,-3e-05,-0.00023,0.00044,0.00024,0.0001,5e-05,3e-05,4,20
21761,1e-05,-3e-05,-0.00023,0.00044,0.00024,0.0001,5e-05,3e-05,4,20
21762,1e-05,-3e-05,-0.00023,0.00044,0.00024,0.0001,5e-05,3e-05,4,20
21763,1e-05,-3e-05,-0.00023,0.00044,0.00024,0.0001,5e-05,3e-05,4,20
21764,1e-05,-3e-05,-0.00023,0.00044,0.00024,0.0001,5e-05,3e-05,4,20
21765,1e-05,-3e-05,-0.00023,0.00044,0.00024,0.0001,5e-05,3e-05,4,20
21766,1e-05,-3e-05,-0.00023,0.00044,0.00024,0.0001,5e-05,3e-05,4,20
21767,1e-05,-3e-05,-0.00023,0.00044,0.00024,0.0001,5e-05,3e-05,4,20
21768,1e-05,-3e-05,-0.00023,0.00044,0.00024,0.0001,5e-05,3e-05,4,20
21769,1e-05,-3e-05,-0.00023,0.00044,0.00024,0.0001,5e-05,3e-05,4,20
21770,1e-05,-3e-05,-0.00023,0.00044,0.00024,0.0001,5e-05,3e-05,4,20
21771,1e-05,-3e-05,-0.00023,0.00044,0.00024,0.0001,5e-05,3e-05,4,20
21772,1e-05,-3e-05,-0.00023,0.00044,0.00024,0.0001,5e-05,3e-05,4,20
21773,-1e-05,-2e-05,-1e-05,-0.00043,-0.00026,-0.00015,1e-05,1e-05,4,20
21774,-1e-05,-2e-05,-1e-05,-0.00043,-0.00026,-0.00015,1e-05,1e-05,4,20
21775,-1e-05,-2e-05,-1e-05,-0.00043,-0.00026,-0.00015,1e-05,1e-05,4,20
21776,-1e-05,-2e-05,-1e-05,-0.00043,-0.00026,-0.00015,1e-05,1e-05,4,20
21777,-1e-05,-2e-05,-1e-05,-0.00043,-0.00026,-0.00015,1e-05,1e-05,4,20
21778,-1e-05,-2e-05,-1e-05,-0.00043,-0.00026,-0.00015,1e-05,1e-05,4,20
21779,-1e-05,-2e-05,-1e-05,-0.00043,-0.00026,-0.00015,1e-05,1e-05,4,20
21780,2e-05,5e-05,0.00022,0.00025,-0.0002,6e-05,0.00012,3e-05,4,20
21781,2e-05,5e-05,0.00022,0.00025,-0.0002,6e-05,0.00012,3e-05,4,20
21782,2e-05,5e-05,0.00022,0.00025,-0.0002,6e-05,0.00012,3e-05,4,20
21783,2e-05,5e-05,0.00022,0.00025,-0.0002,6e-05,0.00012,3e-05,4,20
21784,2e-05,5e-05,0.00022,0.00025,-0.0002,6e-05,0.00012,3e-05,4,20
21785,2e-05,5e-05,0.00022,0.00025,-0.0002,6e-05,0.00012,3e-05,4,20
21786,2e-05,5e-05,0.00022,0.00025,-0.0002,6e-05,0.00012,3e-05,4,20
21788,2e-05,5e-05,0.00022,0.00025,-0.0002,6e-05,0.00012,3e-05,4,20
21790,2e-05,5e-05,0.00022,0.00025,-0.0002,6e-05,0.00012,3e-05,4,20
21791,2e-05,5e-05,0.00022,0.00025,-0.0002,6e-05,0.00012,3e-05,4,20
21792,2e-05,5e-05,0.00022,0.00025,-0.0002,6e-05,0.00012,3e-05,4,20
21793,2e-05,5e-05,0.00022,0.00025,-0.0002,6e-05,0.00012,3e-05,4,20
21794,2e-05,5e-05,0.00022,0.00025,-0.0002,6e-05,0.00012,3e-05,4,20
21795,2e-05,5e-05,0.00022,0.00025,-0.0002,6e-05,0.00012,3e-05,4,20
21796,-0.0001,-0.00014,-0.00035,-2e-05,0.00036,-0.00078,-0.00017,-0.0001,4,20
21797,-1e-05,4e-05,0.00014,0.00041,-0.00013,0.00049,2e-05,1e-05,4,20
21798,-1e-05,4e-05,0.00014,0.00041,-0.00013,0.00049,2e-05,1e-05,4,20
21799,-1e-05,4e-05,0.00014,0.00041,-0.00013,0.00049,2e-05,1e-05,4,20
21800,-1e-05,4e-05,0.00014,0.00041,-0.00013,0.00049,2e-05,1e-05,4,20
21801,-1e-05,4e-05,0.00014,0.00041,-0.00013,0.00049,2e-05,1e-05,4,20
21802,-1e-05,4e-05,0.00014,0.00041,-0.00013,0.00049,2e-05,1e-05,4,20
21803,5e-05,0.00011,0.00032,0.00087,6e-05,0.00066,0.00013,4e-05,4,20
21804,-9e-05,-0.00021,-0.00063,-0.00066,-0.00029,-0.00058,-6e-05,-6e-05,4,20
21805,-9e-05,-0.00021,-0.00063,-0.00066,-0.00029,-0.00058,-6e-05,-6e-05,4,20
21806,-9e-05,-0.00021,-0.00063,-0.00066,-0.00029,-0.00058,-6e-05,-6e-05,4,20
21807,-9e-05,-0.00021,-0.00063,-0.00066,-0.00029,-0.00058,-6e-05,-6e-05,4,20
21808,-9e-05,-0.00021,-0.00063,-0.00066,-0.00029,-0.00058,-6e-05,-6e-05,4,20
21809,-9e-05,-0.00021,-0.00063,-0.00066,-0.00029,-0.00058,-6e-05,-6e-05,4,20
21810,-9e-05,-0.00021,-0.00063,-0.00066,-0.00029,-0.00058,-6e-05,-6e-05,4,20
21811,-9e-05,-0.00021,-0.00063,-0.00066,-0.00029,-0.00058,-6e-05,-6e-05,4,20
21812,-9e-05,-0.00021,-0.00063,-0.00066,-0.00029,-0.00058,-6e-05,-6e-05,4,20
21813,-9e-05,-0.00021,-0.00063,-0.00066,-0.00029,-0.00058,-6e-05,-6e-05,4,20
21814,-9e-05,-0.00021,-0.00063,-0.00066,-0.00029,-0.00058,-6e-05,-6e-05,4,20
21815,-9e-05,-0.00021,-0.00063,-0.00066,-0.00029,-0.00058,-6e-05,-6e-05,4,20
21816,-9e-05,-0.00021,-0.00063,-0.00066,-0.00029,-0.00058,-6e-05,-6e-05,4,20
21817,-9e-05,-0.00021,-0.00063,-0.00066,-0.00029,-0.00058,-6e-05,-6e-05,4,20
21818,-9e-05,-0.00021,-0.00063,-0.00066,-0.00029,-0.00058,-6e-05,-6e-05,4,20
21819,-9e-05,-0.00021,-0.00063,-0.00066,-0.00029,-0.00058,-6e-05,-6e-05,4,20
21820,-9e-05,-0.00021,-0.00063,-0.00066,-0.00029,-0.00058,-6e-05,-6e-05,4,20
21821,-9e-05,-0.00021,-0.00063,-0.00066,-0.00029,-0.00058,-6e-05,-6e-05,4,20
21822,-9e-05,-0.00021,-0.00063,-0.00066,-0.00029,-0.00058,-6e-05,-6e-05,4,20
21823,-9e-05,-0.00021,-0.00063,-0.00066,-0.00029,-0.00058,-6e-05,-6e-05,4,20
21824,-9e-05,-0.00021,-0.00063,-0.00066,-0.00029,-0.00058,-6e-05,-6e-05,4,20
21825,-9e-05,-0.00021,-0.00063,-0.00066,-0.00029,-0.00058,-6e-05,-6e-05,4,20
21826,-9e-05,-0.00021,-0.00063,-0.00066,-0.00029,-0.00058,-6e-05,-6e-05,4,20
21827,-9e-05,-0.00021,-0.00063,-0.00066,-0.00029,-0.00058,-6e-05,-6e-05,4,20
21828,-9e-05,-0.00021,-0.00063,-0.00066,-0.00029,-0.00058,-6e-05,-6e-05,4,20
21829,-9e-05,-0.00021,-0.00063,-0.00066,-0.00029,-0.00058,-6e-05,-6e-05,4,20
21830,-9e-05,-0.00021,-0.00063,-0.00066,-0.00029,-0.00058,-6e-05,-6e-05,4,20
21831,-9e-05,-0.00021,-0.00063,-0.00066,-0.00029,-0.00058,-6e-05,-6e-05,4,20
21832,-9e-05,-0.00021,-0.00063,-0.00066,-0.00029,-0.00058,-6e-05,-6e-05,4,20
21833,-9e-05,-0.00021,-0.00063,-0.00066,-0.00029,-0.00058,-6e-05,-6e-05,4,20
21834,-9e-05,-0.00021,-0.00063,-0.00066,-0.00029,-0.00058,-6e-05,-6e-05,4,20
21835,-5e-05,-0.00011,-0.0003,0.00013,0.00011,-0.00032,-0.00012,-5e-05,4,20
21836,7e-05,0.00015,0.00032,0.00097,0.00096,-0.00019,5e-05,5e-05,4,20
21839,7e-05,8e-05,-4e-05,-0.00013,-0.00047,-0.00065,0.0001,6e-05,4,20
21840,7e-05,8e-05,-4e-05,-0.00013,-0.00047,-0.00065,0.0001,6e-05,4,20
21841,-3e-05,2e-05,0.00038,0.00127,-0.00076,-0.00011,-0.00015,-5e-05,4,20
21842,-3e-05,2e-05,0.00038,0.00127,-0.00076,-0.00011,-0.00015,-5e-05,4,20
21843,-3e-05,2e-05,0.00038,0.00127,-0.00076,-0.00011,-0.00015,-5e-05,4,20
21844,-3e-05,2e-05,0.00038,0.00127,-0.00076,-0.00011,-0.00015,-5e-05,4,20
21845,-3e-05,2e-05,0.00038,0.00127,-0.00076,-0.00011,-0.00015,-5e-05,4,20
21846,-3e-05,2e-05,0.00038,0.00127,-0.00076,-0.00011,-0.00015,-5e-05,4,20
21847,-3e-05,2e-05,0.00038,0.00127,-0.00076,-0.00011,-0.00015,-5e-05,4,20
21848,-3e-05,2e-05,0.00038,0.00127,-0.00076,-0.00011,-0.00015,-5e-05,4,20
21849,-3e-05,2e-05,0.00038,0.00127,-0.00076,-0.00011,-0.00015,-5e-05,4,20
21850,-3e-05,2e-05,0.00038,0.00127,-0.00076,-0.00011,-0.00015,-5e-05,4,20
21851,-3e-05,2e-05,0.00038,0.00127,-0.00076,-0.00011,-0.00015,-5e-05,4,20
21852,-3e-05,2e-05,0.00038,0.00127,-0.00076,-0.00011,-0.00015,-5e-05,4,20
21853,-3e-05,2e-05,0.00038,0.00127,-0.00076,-0.00011,-0.00015,-5e-05,4,20
21854,-3e-05,2e-05,0.00038,0.00127,-0.00076,-0.00011,-0.00015,-5e-05,4,20
21855,-3e-05,2e-05,0.00038,0.00127,-0.00076,-0.00011,-0.00015,-5e-05,4,20
21856,-3e-05,-2e-05,0.00014,0.00081,0.00093,0.00039,5e-05,-3e-05,4,20
21857,-3e-05,-2e-05,0.00014,0.00081,0.00093,0.00039,5e-05,-3e-05,4,20
21858,-5e-05,-8e-05,-0.00026,-0.00054,0.00011,-6e-05,0,0,4,20
21859,-5e-05,-8e-05,-0.00026,-0.00054,0.00011,-6e-05,0,0,4,20
21860,-5e-05,-8e-05,-0.00026,-0.00054,0.00011,-6e-05,0,0,4,20
21861,-5e-05,-8e-05,-0.00026,-0.00054,0.00011,-6e-05,0,0,4,20
21862,-5e-05,-8e-05,-0.00026,-0.00054,0.00011,-6e-05,0,0,4,20
21863,-5e-05,-8e-05,-0.00026,-0.00054,0.00011,-6e-05,0,0,4,20
21864,-5e-05,-8e-05,-0.00026,-0.00054,0.00011,-6e-05,0,0,4,20
21865,-5e-05,-8e-05,-0.00026,-0.00054,0.00011,-6e-05,0,0,4,20
21866,-5e-05,-8e-05,-0.00026,-0.00054,0.00011,-6e-05,0,0,4,20
21867,-5e-05,-8e-05,-0.00026,-0.00054,0.00011,-6e-05,0,0,4,20
21868,-5e-05,-8e-05,-0.00026,-0.00054,0.00011,-6e-05,0,0,4,20
21869,-5e-05,-8e-05,-0.00026,-0.00054,0.00011,-6e-05,0,0,4,20
21870,-5e-05,-8e-05,-0.00026,-0.00054,0.00011,-6e-05,0,0,4,20
21871,-5e-05,-8e-05,-0.00026,-0.00054,0.00011,-6e-05,0,0,4,20
21872,-5e-05,-8e-05,-0.00026,-0.00054,0.00011,-6e-05,0,0,4,20
21873,-5e-05,-8e-05,-0.00026,-0.00054,0.00011,-6e-05,0,0,4,20
21874,-5e-05,-8e-05,-0.00026,-0.00054,0.00011,-6e-05,0,0,4,20
21875,-5e-05,-8e-05,-0.00026,-0.00054,0.00011,-6e-05,0,0,4,20
21876,-5e-05,-8e-05,-0.00026,-0.00054,0.00011,-6e-05,0,0,4,20
21877,-5e-05,-8e-05,-0.00026,-0.00054,0.00011,-6e-05,0,0,4,20
21878,-5e-05,-8e-05,-0.00026,-0.00054,0.00011,-6e-05,0,0,4,20
21879,3e-05,0.0001,0.00014,0.00036,-0.00067,-1e-05,-0.00013,-1e-05,4,20
21880,-5e-05,-8e-05,-0.00019,0.00013,-0.00026,-0.00059,-0.00011,-6e-05,4,20
21881,-5e-05,-8e-05,-0.00019,0.00013,-0.00026,-0.00059,-0.00011,-6e-05,4,20
21882,-5e-05,-8e-05,-0.00019,0.00013,-0.00026,-0.00059,-0.00011,-6e-05,4,20
21883,-5e-05,-8e-05,-0.00019,0.00013,-0.00026,-0.00059,-0.00011,-6e-05,4,20
21884,-1e-05,-4e-05,-2e-05,-0.00013,8e-05,0.00077,0.00014,3e-05,4,20
21885,-6e-05,-8e-05,0,0.00027,0.0004,0.00054,-9e-05,-8e-05,4,20
21886,-6e-05,-8e-05,0,0.00027,0.0004,0.00054,-9e-05,-8e-05,4,20
21888,-6e-05,-8e-05,0,0.00027,0.0004,0.00054,-9e-05,-8e-05,4,20
21889,-6e-05,-8e-05,0,0.00027,0.0004,0.00054,-9e-05,-8e-05,4,20
21890,-6e-05,-8e-05,0,0.00027,0.0004,0.00054,-9e-05,-8e-05,4,20
21891,-6e-05,-8e-05,0,0.00027,0.0004,0.00054,-9e-05,-8e-05,4,20
21892,-3e-05,-2e-05,-0.00012,-0.00012,0.0011,-0.00038,-6e-05,-4e-05,4,20
21893,-3e-05,-2e-05,-0.00012,-0.00012,0.0011,-0.00038,-6e-05,-4e-05,4,20
21894,-3e-05,-2e-05,-0.00012,-0.00012,0.0011,-0.00038,-6e-05,-4e-05,4,20
21895,-3e-05,-2e-05,-0.00012,-0.00012,0.0011,-0.00038,-6e-05,-4e-05,4,20
21896,-3e-05,-2e-05,-0.00012,-0.00012,0.0011,-0.00038,-6e-05,-4e-05,4,20
21897,-3e-05,-2e-05,-0.00012,-0.00012,0.0011,-0.00038,-6e-05,-4e-05,4,20
21898,-3e-05,-2e-05,-0.00012,-0.00012,0.0011,-0.00038,-6e-05,-4e-05,4,20
21899,-3e-05,-2e-05,-0.00012,-0.00012,0.0011,-0.00038,-6e-05,-4e-05,4,20
21900,-3e-05,-2e-05,-0.00012,-0.00012,0.0011,-0.00038,-6e-05,-4e-05,4,20
21901,-3e-05,-2e-05,-0.00012,-0.00012,0.0011,-0.00038,-6e-05,-4e-05,4,20
21902,-3e-05,-2e-05,-0.00012,-0.00012,0.0011,-0.00038,-6e-05,-4e-05,4,20
21903,-3e-05,-2e-05,-0.00012,-0.00012,0.0011,-0.00038,-6e-05,-4e-05,4,20
21904,-3e-05,-2e-05,-0.00012,-0.00012,0.0011,-0.00038,-6e-05,-4e-05,4,20
21905,-3e-05,-2e-05,-0.00012,-0.00012,0.0011,-0.00038,-6e-05,-4e-05,4,20
21906,-3e-05,-2e-05,-0.00012,-0.00012,0.0011,-0.00038,-6e-05,-4e-05,4,20
21907,-3e-05,-2e-05,-0.00012,-0.00012,0.0011,-0.00038,-6e-05,-4e-05,4,20
21908,-3e-05,-2e-05,-0.00012,-0.00012,0.0011,-0.00038,-6e-05,-4e-05,4,20
21909,-3e-05,-2e-05,-0.00012,-0.00012,0.0011,-0.00038,-6e-05,-4e-05,4,20
21910,-3e-05,-2e-05,-0.00012,-0.00012,0.0011,-0.00038,-6e-05,-4e-05,4,20
21911,-3e-05,-2e-05,-0.00012,-0.00012,0.0011,-0.00038,-6e-05,-4e-05,4,20
21912,-3e-05,-2e-05,-0.00012,-0.00012,0.0011,-0.00038,-6e-05,-4e-05,4,20
21913,-3e-05,-2e-05,-0.00012,-0.00012,0.0011,-0.00038,-6e-05,-4e-05,4,20
21914,-3e-05,-2e-05,-0.00012,-0.00012,0.0011,-0.00038,-6e-05,-4e-05,4,20
21915,-3e-05,-2e-05,-0.00012,-0.00012,0.0011,-0.00038,-6e-05,-4e-05,4,20
21916,-3e-05,-2e-05,-0.00012,-0.00012,0.0011,-0.00038,-6e-05,-4e-05,4,20
21917,-3e-05,-2e-05,-0.00012,-0.00012,0.0011,-0.00038,-6e-05,-4e-05,4,20
21919,-3e-05,-3e-05,0,-0.0005,-0.00116,-0.00032,-0.00012,-3e-05,4,20
21920,-3e-05,-3e-05,0,-0.0005,-0.00116,-0.00032,-0.00012,-3e-05,4,20
21921,-3e-05,-3e-05,0,-0.0005,-0.00116,-0.00032,-0.00012,-3e-05,4,20
21922,0,0,0.0001,-0.0001,-0.00064,0.00085,1e-05,-1e-05,4,20
21923,0,0,0.0001,-0.0001,-0.00064,0.00085,1e-05,-1e-05,4,20
21924,0,0,0.0001,-0.0001,-0.00064,0.00085,1e-05,-1e-05,4,20
21925,0,0,0.0001,-0.0001,-0.00064,0.00085,1e-05,-1e-05,4,20
21926,0,0,0.0001,-0.0001,-0.00064,0.00085,1e-05,-1e-05,4,20
21927,0,0,0.0001,-0.0001,-0.00064,0.00085,1e-05,-1e-05,4,20
21928,0,0,0.0001,-0.0001,-0.00064,0.00085,1e-05,-1e-05,4,20
21929,0,0,0.0001,-0.0001,-0.00064,0.00085,1e-05,-1e-05,4,20
21930,0,0,0.0001,-0.0001,-0.00064,0.00085,1e-05,-1e-05,4,20
21931,0,0,0.0001,-0.0001,-0.00064,0.00085,1e-05,-1e-05,4,20
21932,0,0,0.0001,-0.0001,-0.00064,0.00085,1e-05,-1e-05,4,20
21933,0,0,0.0001,-0.0001,-0.00064,0.00085,1e-05,-1e-05,4,20
21934,0,0,0.0001,-0.0001,-0.00064,0.00085,1e-05,-1e-05,4,20
21935,0,0,0.0001,-0.0001,-0.00064,0.00085,1e-05,-1e-05,4,20
21936,0,0,0.0001,-0.0001,-0.00064,0.00085,1e-05,-1e-05,4,20
21939,0,0,0.0001,-0.0001,-0.00064,0.00085,1e-05,-1e-05,4,20
21940,0,0,0.0001,-0.0001,-0.00064,0.00085,1e-05,-1e-05,4,20
21941,0,0,0.0001,-0.0001,-0.00064,0.00085,1e-05,-1e-05,4,20
21942,0,0,0.0001,-0.0001,-0.00064,0.00085,1e-05,-1e-05,4,20
21943,0,0,0.0001,-0.0001,-0.00064,0.00085,1e-05,-1e-05,4,20
21944,0,0,0.0001,-0.0001,-0.00064,0.00085,1e-05,-1e-05,4,20
21945,0,0,0.0001,-0.0001,-0.00064,0.00085,1e-05,-1e-05,4,20
21946,-3e-05,-3e-05,0.00014,0.0006,-1e-05,0.00014,5e-05,-4e-05,4,20
21947,-3e-05,-3e-05,0.00014,0.0006,-1e-05,0.00014,5e-05,-4e-05,4,20
21948,4e-05,0.0001,0.00023,0.00048,0.00093,-0.00043,-5e-05,3e-05,4,20
21949,4e-05,0.0001,0.00023,0.00048,0.00093,-0.00043,-5e-05,3e-05,4,20
21950,4e-05,0.0001,0.00023,0.00048,0.00093,-0.00043,-5e-05,3e-05,4,20
21951,4e-05,0.0001,0.00023,0.00048,0.00093,-0.00043,-5e-05,3e-05,4,20
21952,2e-05,4e-05,0.00023,-0.00019,-0.00041,3e-05,-8e-05,-2e-05,4,20
21953,2e-05,4e-05,0.00023,-0.00019,-0.00041,3e-05,-8e-05,-2e-05,4,20
21954,2e-05,4e-05,0.00023,-0.00019,-0.00041,3e-05,-8e-05,-2e-05,4,20
21955,2e-05,4e-05,0.00023,-0.00019,-0.00041,3e-05,-8e-05,-2e-05,4,20
21956,2e-05,4e-05,0.00023,-0.00019,-0.00041,3e-05,-8e-05,-2e-05,4,20
21957,2e-05,4e-05,0.00023,-0.00019,-0.00041,3e-05,-8e-05,-2e-05,4,20
21958,2e-05,4e-05,0.00023,-0.00019,-0.00041,3e-05,-8e-05,-2e-05,4,20
21959,2e-05,4e-05,0.00023,-0.00019,-0.00041,3e-05,-8e-05,-2e-05,4,20
21960,2e-05,4e-05,0.00023,-0.00019,-0.00041,3e-05,-8e-05,-2e-05,4,20
21961,-1e-05,1e-05,5e-05,9e-05,-0.00067,-0.00045,0,-2e-05,4,20
21962,-1e-05,1e-05,5e-05,9e-05,-0.00067,-0.00045,0,-2e-05,4,20
21963,-1e-05,1e-05,5e-05,9e-05,-0.00067,-0.00045,0,-2e-05,4,20
21964,-1e-05,1e-05,5e-05,9e-05,-0.00067,-0.00045,0,-2e-05,4,20
21965,-1e-05,1e-05,5e-05,9e-05,-0.00067,-0.00045,0,-2e-05,4,20
21966,-1e-05,1e-05,5e-05,9e-05,-0.00067,-0.00045,0,-2e-05,4,20
21967,-1e-05,1e-05,5e-05,9e-05,-0.00067,-0.00045,0,-2e-05,4,20
21968,-1e-05,1e-05,5e-05,9e-05,-0.00067,-0.00045,0,-2e-05,4,20
21969,-1e-05,1e-05,5e-05,9e-05,-0.00067,-0.00045,0,-2e-05,4,20
21970,-1e-05,1e-05,5e-05,9e-05,-0.00067,-0.00045,0,-2e-05,4,20
21971,-1e-05,1e-05,5e-05,9e-05,-0.00067,-0.00045,0,-2e-05,4,20
21972,-1e-05,1e-05,5e-05,9e-05,-0.00067,-0.00045,0,-2e-05,4,20
21973,-1e-05,1e-05,5e-05,9e-05,-0.00067,-0.00045,0,-2e-05,4,20
21974,-1e-05,1e-05,5e-05,9e-05,-0.00067,-0.00045,0,-2e-05,4,20
21975,-1e-05,1e-05,5e-05,9e-05,-0.00067,-0.00045,0,-2e-05,4,20
21976,-3e-05,-5e-05,-0.0001,-0.00036,0.00077,0.0002,-5e-05,-2e-05,4,20
21977,0,5e-05,0.00013,0.00014,-0.00047,0.0005,2e-05,-1e-05,4,20
21978,4e-05,3e-05,-0.00025,-0.00125,-0.00059,-0.00074,0.00013,9e-05,4,20
21979,4e-05,3e-05,-0.00025,-0.00125,-0.00059,-0.00074,0.00013,9e-05,4,20
21980,4e-05,3e-05,-0.00025,-0.00125,-0.00059,-0.00074,0.00013,9e-05,4,20
21981,4e-05,3e-05,-0.00025,-0.00125,-0.00059,-0.00074,0.00013,9e-05,4,20
21982,4e-05,3e-05,-0.00025,-0.00125,-0.00059,-0.00074,0.00013,9e-05,4,20
21983,4e-05,3e-05,-0.00025,-0.00125,-0.00059,-0.00074,0.00013,9e-05,4,20
21984,4e-05,3e-05,-0.00025,-0.00125,-0.00059,-0.00074,0.00013,9e-05,4,20
21985,4e-05,3e-05,-0.00025,-0.00125,-0.00059,-0.00074,0.00013,9e-05,4,20
21987,4e-05,3e-05,-0.00025,-0.00125,-0.00059,-0.00074,0.00013,9e-05,4,20
21990,4e-05,3e-05,-0.00025,-0.00125,-0.00059,-0.00074,0.00013,9e-05,4,20
21991,4e-05,3e-05,-0.00025,-0.00125,-0.00059,-0.00074,0.00013,9e-05,4,20
21992,4e-05,3e-05,-0.00025,-0.00125,-0.00059,-0.00074,0.00013,9e-05,4,20
21993,4e-05,3e-05,-0.00025,-0.00125,-0.00059,-0.00074,0.00013,9e-05,4,20
21994,4e-05,3e-05,-0.00025,-0.00125,-0.00059,-0.00074,0.00013,9e-05,4,20
21995,4e-05,3e-05,-0.00025,-0.00125,-0.00059,-0.00074,0.00013,9e-05,4,20
21996,4e-05,3e-05,-0.00025,-0.00125,-0.00059,-0.00074,0.00013,9e-05,4,20
21997,4e-05,3e-05,-0.00025,-0.00125,-0.00059,-0.00074,0.00013,9e-05,4,20
21998,4e-05,3e-05,-0.00025,-0.00125,-0.00059,-0.00074,0.00013,9e-05,4,20
21999,-5e-05,-5e-05,2e-05,0.00067,0.00075,0.00109,-5e-05,-5e-05,4,20
22000,3e-05,3e-05,9e-05,1e-05,0.00068,0.00127,-1e-05,2e-05,4,20
22001,3e-05,3e-05,9e-05,1e-05,0.00068,0.00127,-1e-05,2e-05,4,20
22002,3e-05,3e-05,9e-05,1e-05,0.00068,0.00127,-1e-05,2e-05,4,20
22003,3e-05,3e-05,9e-05,1e-05,0.00068,0.00127,-1e-05,2e-05,4,20
22004,3e-05,3e-05,9e-05,1e-05,0.00068,0.00127,-1e-05,2e-05,4,20
22005,3e-05,3e-05,9e-05,1e-05,0.00068,0.00127,-1e-05,2e-05,4,20
22006,3e-05,3e-05,9e-05,1e-05,0.00068,0.00127,-1e-05,2e-05,4,20
22007,3e-05,3e-05,9e-05,1e-05,0.00068,0.00127,-1e-05,2e-05,4,20
22008,3e-05,3e-05,9e-05,1e-05,0.00068,0.00127,-1e-05,2e-05,4,20
22009,3e-05,3e-05,9e-05,1e-05,0.00068,0.00127,-1e-05,2e-05,4,20
22010,3e-05,3e-05,9e-05,1e-05,0.00068,0.00127,-1e-05,2e-05,4,20
22011,3e-05,3e-05,9e-05,1e-05,0.00068,0.00127,-1e-05,2e-05,4,20
22012,3e-05,3e-05,9e-05,1e-05,0.00068,0.00127,-1e-05,2e-05,4,20
22013,3e-05,3e-05,9e-05,1e-05,0.00068,0.00127,-1e-05,2e-05,4,20
22014,3e-05,3e-05,9e-05,1e-05,0.00068,0.00127,-1e-05,2e-05,4,20
22015,3e-05,3e-05,9e-05,1e-05,0.00068,0.00127,-1e-05,2e-05,4,20
22016,3e-05,3e-05,9e-05,1e-05,0.00068,0.00127,-1e-05,2e-05,4,20
22017,3e-05,3e-05,9e-05,1e-05,0.00068,0.00127,-1e-05,2e-05,4,20
22018,3e-05,3e-05,9e-05,1e-05,0.00068,0.00127,-1e-05,2e-05,4,20
22019,3e-05,3e-05,9e-05,1e-05,0.00068,0.00127,-1e-05,2e-05,4,20
22020,3e-05,3e-05,9e-05,1e-05,0.00068,0.00127,-1e-05,2e-05,4,20
22021,3e-05,3e-05,9e-05,1e-05,0.00068,0.00127,-1e-05,2e-05,4,20
22022,3e-05,3e-05,9e-05,1e-05,0.00068,0.00127,-1e-05,2e-05,4,20
22023,3e-05,3e-05,9e-05,1e-05,0.00068,0.00127,-1e-05,2e-05,4,20
22024,3e-05,3e-05,9e-05,1e-05,0.00068,0.00127,-1e-05,2e-05,4,20
22025,3e-05,3e-05,9e-05,1e-05,0.00068,0.00127,-1e-05,2e-05,4,20
22026,3e-05,3e-05,9e-05,1e-05,0.00068,0.00127,-1e-05,2e-05,4,20
22027,3e-05,3e-05,9e-05,1e-05,0.00068,0.00127,-1e-05,2e-05,4,20
22028,0,0,0,-0.00033,-0.00011,-0.0001,0.00011,1e-05,4,20
22029,0,0,0,-0.00033,-0.00011,-0.0001,0.00011,1e-05,4,20
22030,-7e-05,-9e-05,-0.00027,-0.0006,8e-05,7e-05,-0.0001,-6e-05,4,20
22031,-7e-05,-9e-05,-0.00027,-0.0006,8e-05,7e-05,-0.0001,-6e-05,4,20
22032,-7e-05,-9e-05,-0.00027,-0.0006,8e-05,7e-05,-0.0001,-6e-05,4,20
22033,-7e-05,-9e-05,-0.00027,-0.0006,8e-05,7e-05,-0.0001,-6e-05,4,20
22035,-7e-05,-9e-05,-0.00027,-0.0006,8e-05,7e-05,-0.0001,-6e-05,4,20
22036,3e-05,6e-05,0.00012,0.00038,-0.00023,0.00043,-1e-05,1e-05,4,20
22039,7e-05,0.00013,0.00025,-0.00024,-0.00015,0.00062,0.00014,4e-05,4,20
22040,7e-05,0.00013,0.00025,-0.00024,-0.00015,0.00062,0.00014,4e-05,4,20
22041,7e-05,0.00013,0.00025,-0.00024,-0.00015,0.00062,0.00014,4e-05,4,20
22042,7e-05,0.00013,0.00025,-0.00024,-0.00015,0.00062,0.00014,4e-05,4,20
22043,7e-05,0.00013,0.00025,-0.00024,-0.00015,0.00062,0.00014,4e-05,4,20
22044,7e-05,0.00013,0.00025,-0.00024,-0.00015,0.00062,0.00014,4e-05,4,20
22045,7e-05,0.00013,0.00025,-0.00024,-0.00015,0.00062,0.00014,4e-05,4,20
22046,7e-05,0.00013,0.00025,-0.00024,-0.00015,0.00062,0.00014,4e-05,4,20
22047,7e-05,0.00013,0.00025,-0.00024,-0.00015,0.00062,0.00014,4e-05,4,20
22048,7e-05,0.00013,0.00025,-0.00024,-0.00015,0.00062,0.00014,4e-05,4,20
22049,7e-05,0.00013,0.00025,-0.00024,-0.00015,0.00062,0.00014,4e-05,4,20
22050,7e-05,0.00013,0.00025,-0.00024,-0.00015,0.00062,0.00014,4e-05,4,20
22051,7e-05,0.00013,0.00025,-0.00024,-0.00015,0.00062,0.00014,4e-05,4,20
22052,7e-05,0.00013,0.00025,-0.00024,-0.00015,0.00062,0.00014,4e-05,4,20
22053,7e-05,0.00013,0.00025,-0.00024,-0.00015,0.00062,0.00014,4e-05,4,20
22054,7e-05,0.00013,0.00025,-0.00024,-0.00015,0.00062,0.00014,4e-05,4,20
22055,7e-05,0.00013,0.00025,-0.00024,-0.00015,0.00062,0.00014,4e-05,4,20
22056,7e-05,0.00013,0.00025,-0.00024,-0.00015,0.00062,0.00014,4e-05,4,20
22057,7e-05,0.00013,0.00025,-0.00024,-0.00015,0.00062,0.00014,4e-05,4,20
22058,-7e-05,-0.0001,-0.00021,-0.00039,-0.00037,-0.00045,-5e-05,-5e-05,4,20
22059,-7e-05,-0.0001,-0.00021,-0.00039,-0.00037,-0.00045,-5e-05,-5e-05,4,20
22060,0,0,1e-05,0.00029,0.00059,-0.00028,-0.00012,-1e-05,4,20
22061,0,0,1e-05,0.00029,0.00059,-0.00028,-0.00012,-1e-05,4,20
22062,0,0,1e-05,0.00029,0.00059,-0.00028,-0.00012,-1e-05,4,20
22063,0,0,1e-05,0.00029,0.00059,-0.00028,-0.00012,-1e-05,4,20
22064,0,0,1e-05,0.00029,0.00059,-0.00028,-0.00012,-1e-05,4,20
