18438,-3e-05,-6e-05,-0.00027,-0.00077,-0.00101,-0.00049,-0.0002,-0.0001,4,21
18439,-3e-05,-6e-05,-0.00027,-0.00077,-0.00101,-0.00049,-0.0002,-0.0001,4,21
18440,-3e-05,-6e-05,-0.00027,-0.00077,-0.00101,-0.00049,-0.0002,-0.0001,4,21
18441,-3e-05,-6e-05,-0.00027,-0.00077,-0.00101,-0.00049,-0.0002,-0.0001,4,21
18442,-3e-05,-6e-05,-0.00027,-0.00077,-0.00101,-0.00049,-0.0002,-0.0001,4,21
18443,8e-05,6e-05,0.00013,0.0002,-0.00026,0.00075,0.00022,-7e-05,4,21
18444,-3e-05,-4e-05,-0.00016,-0.00025,0.00045,-0.00023,-2e-05,-1e-05,4,21
18445,-3e-05,-4e-05,-0.00016,-0.00025,0.00045,-0.00023,-2e-05,-1e-05,4,21
18446,-3e-05,-4e-05,-0.00016,-0.00025,0.00045,-0.00023,-2e-05,-1e-05,4,21
18447,-3e-05,-4e-05,-0.00016,-0.00025,0.00045,-0.00023,-2e-05,-1e-05,4,21
18448,-3e-05,-4e-05,-0.00016,-0.00025,0.00045,-0.00023,-2e-05,-1e-05,4,21
18449,-3e-05,-4e-05,-0.00016,-0.00025,0.00045,-0.00023,-2e-05,-1e-05,4,21
18450,-3e-05,-4e-05,-0.00016,-0.00025,0.00045,-0.00023,-2e-05,-1e-05,4,21
18451,-3e-05,-4e-05,-0.00016,-0.00025,0.00045,-0.00023,-2e-05,-1e-05,4,21
18452,-3e-05,-4e-05,-0.00016,-0.00025,0.00045,-0.00023,-2e-05,-1e-05,4,21
18453,-3e-05,-4e-05,-0.00016,-0.00025,0.00045,-0.00023,-2e-05,-1e-05,4,21
18454,-3e-05,-4e-05,-0.00016,-0.00025,0.00045,-0.00023,-2e-05,-1e-05,4,21
18455,-3e-05,-4e-05,-0.00016,-0.00025,0.00045,-0.00023,-2e-05,-1e-05,4,21
18456,-3e-05,-4e-05,-0.00016,-0.00025,0.00045,-0.00023,-2e-05,-1e-05,4,21
18457,-3e-05,-4e-05,-0.00016,-0.00025,0.00045,-0.00023,-2e-05,-1e-05,4,21
18458,-3e-05,-4e-05,-0.00016,-0.00025,0.00045,-0.00023,-2e-05,-1e-05,4,21
18459,-3e-05,-4e-05,-0.00016,-0.00025,0.00045,-0.00023,-2e-05,-1e-05,4,21
18460,-3e-05,-4e-05,-0.00016,-0.00025,0.00045,-0.00023,-2e-05,-1e-05,4,21
18461,-3e-05,-4e-05,-0.00016,-0.00025,0.00045,-0.00023,-2e-05,-1e-05,4,21
18462,-3e-05,-4e-05,-0.00016,-0.00025,0.00045,-0.00023,-2e-05,-1e-05,4,21
18463,-3e-05,-4e-05,-0.00016,-0.00025,0.00045,-0.00023,-2e-05,-1e-05,4,21
18464,-3e-05,-4e-05,-0.00016,-0.00025,0.00045,-0.00023,-2e-05,-1e-05,4,21
18465,-3e-05,0,8e-05,0.00021,0.00045,-7e-05,2e-05,2e-05,4,21
18466,-3e-05,0,8e-05,0.00021,0.00045,-7e-05,2e-05,2e-05,4,21
18467,3e-05,6e-05,6e-05,0.00015,0.00027,5e-05,7e-05,0,4,21
18468,3e-05,6e-05,6e-05,0.00015,0.00027,5e-05,7e-05,0,4,21
18469,3e-05,6e-05,6e-05,0.00015,0.00027,5e-05,7e-05,0,4,21
18470,3e-05,6e-05,6e-05,0.00015,0.00027,5e-05,7e-05,0,4,21
18471,3e-05,6e-05,6e-05,0.00015,0.00027,5e-05,7e-05,0,4,21
18472,3e-05,6e-05,6e-05,0.00015,0.00027,5e-05,7e-05,0,4,21
18473,3e-05,6e-05,6e-05,0.00015,0.00027,5e-05,7e-05,0,4,21
18474,3e-05,6e-05,6e-05,0.00015,0.00027,5e-05,7e-05,0,4,21
18475,3e-05,6e-05,6e-05,0.00015,0.00027,5e-05,7e-05,0,4,21
18476,3e-05,6e-05,6e-05,0.00015,0.00027,5e-05,7e-05,0,4,21
18477,3e-05,6e-05,6e-05,0.00015,0.00027,5e-05,7e-05,0,4,21
18478,3e-05,6e-05,6e-05,0.00015,0.00027,5e-05,7e-05,0,4,21
18479,-7e-05,-0.00011,-0.00032,-0.00028,1e-05,-0.00018,1e-05,0.00013,4,21
18480,-7e-05,-0.00011,-0.00032,-0.00028,1e-05,-0.00018,1e-05,0.00013,4,21
18481,-7e-05,-0.00011,-0.00032,-0.00028,1e-05,-0.00018,1e-05,0.00013,4,21
18482,-7e-05,-0.00011,-0.00032,-0.00028,1e-05,-0.00018,1e-05,0.00013,4,21
18483,-7e-05,-0.00011,-0.00032,-0.00028,1e-05,-0.00018,1e-05,0.00013,4,21
18484,-7e-05,-0.00011,-0.00032,-0.00028,1e-05,-0.00018,1e-05,0.00013,4,21
18485,-7e-05,-0.00011,-0.00032,-0.00028,1e-05,-0.00018,1e-05,0.00013,4,21
18487,-7e-05,-0.00011,-0.00032,-0.00028,1e-05,-0.00018,1e-05,0.00013,4,21
18489,1e-05,-3e-05,3e-05,0.00032,0.00027,-0.00077,-5e-05,3e-05,4,21
18490,1e-05,-3e-05,3e-05,0.00032,0.00027,-0.00077,-5e-05,3e-05,4,21
18491,1e-05,-3e-05,3e-05,0.00032,0.00027,-0.00077,-5e-05,3e-05,4,21
18492,1e-05,-3e-05,3e-05,0.00032,0.00027,-0.00077,-5e-05,3e-05,4,21
18493,1e-05,-3e-05,3e-05,0.00032,0.00027,-0.00077,-5e-05,3e-05,4,21
18494,1e-05,-3e-05,3e-05,0.00032,0.00027,-0.00077,-5e-05,3e-05,4,21
18495,1e-05,-3e-05,3e-05,0.00032,0.00027,-0.00077,-5e-05,3e-05,4,21
18496,1e-05,-3e-05,3e-05,0.00032,0.00027,-0.00077,-5e-05,3e-05,4,21
18497,1e-05,-3e-05,3e-05,0.00032,0.00027,-0.00077,-5e-05,3e-05,4,21
18498,1e-05,-3e-05,3e-05,0.00032,0.00027,-0.00077,-5e-05,3e-05,4,21
18499,1e-05,-3e-05,3e-05,0.00032,0.00027,-0.00077,-5e-05,3e-05,4,21
18500,1e-05,-3e-05,3e-05,0.00032,0.00027,-0.00077,-5e-05,3e-05,4,21
18501,1e-05,-3e-05,3e-05,0.00032,0.00027,-0.00077,-5e-05,3e-05,4,21
18502,1e-05,-3e-05,3e-05,0.00032,0.00027,-0.00077,-5e-05,3e-05,4,21
18503,5e-05,8e-05,7e-05,-0.00052,-0.00014,0.00085,6e-05,0.00011,4,21
18504,4e-05,7e-05,8e-05,0.00093,-0.00032,-0.00019,3e-05,5e-05,4,21
18505,4e-05,7e-05,8e-05,0.00093,-0.00032,-0.00019,3e-05,5e-05,4,21
18506,4e-05,7e-05,8e-05,0.00093,-0.00032,-0.00019,3e-05,5e-05,4,21
18507,4e-05,7e-05,8e-05,0.00093,-0.00032,-0.00019,3e-05,5e-05,4,21
18508,4e-05,7e-05,8e-05,0.00093,-0.00032,-0.00019,3e-05,5e-05,4,21
18509,4e-05,7e-05,8e-05,0.00093,-0.00032,-0.00019,3e-05,5e-05,4,21
18510,4e-05,7e-05,8e-05,0.00093,-0.00032,-0.00019,3e-05,5e-05,4,21
18511,4e-05,7e-05,8e-05,0.00093,-0.00032,-0.00019,3e-05,5e-05,4,21
18512,4e-05,7e-05,8e-05,0.00093,-0.00032,-0.00019,3e-05,5e-05,4,21
18513,4e-05,7e-05,8e-05,0.00093,-0.00032,-0.00019,3e-05,5e-05,4,21
18514,4e-05,7e-05,8e-05,0.00093,-0.00032,-0.00019,3e-05,5e-05,4,21
18515,4e-05,7e-05,8e-05,0.00093,-0.00032,-0.00019,3e-05,5e-05,4,21
18516,4e-05,7e-05,8e-05,0.00093,-0.00032,-0.00019,3e-05,5e-05,4,21
18517,4e-05,7e-05,8e-05,0.00093,-0.00032,-0.00019,3e-05,5e-05,4,21
18518,4e-05,7e-05,8e-05,0.00093,-0.00032,-0.00019,3e-05,5e-05,4,21
18519,4e-05,7e-05,8e-05,0.00093,-0.00032,-0.00019,3e-05,5e-05,4,21
18520,4e-05,7e-05,8e-05,0.00093,-0.00032,-0.00019,3e-05,5e-05,4,21
18521,4e-05,7e-05,8e-05,0.00093,-0.00032,-0.00019,3e-05,5e-05,4,21
18522,4e-05,7e-05,8e-05,0.00093,-0.00032,-0.00019,3e-05,5e-05,4,21
18523,4e-05,7e-05,8e-05,0.00093,-0.00032,-0.00019,3e-05,5e-05,4,21
18524,4e-05,7e-05,8e-05,0.00093,-0.00032,-0.00019,3e-05,5e-05,4,21
18525,2e-05,7e-05,0.00012,0.00064,0.00058,0.00042,0.00015,9e-05,4,21
18526,2e-05,7e-05,0.00012,0.00064,0.00058,0.00042,0.00015,9e-05,4,21
18527,2e-05,-3e-05,3e-05,-0.00042,0.0002,0.00027,7e-05,5e-05,4,21
18528,2e-05,-3e-05,3e-05,-0.00042,0.0002,0.00027,7e-05,5e-05,4,21
18529,2e-05,-3e-05,3e-05,-0.00042,0.0002,0.00027,7e-05,5e-05,4,21
18530,2e-05,-3e-05,3e-05,-0.00042,0.0002,0.00027,7e-05,5e-05,4,21
18531,2e-05,-3e-05,3e-05,-0.00042,0.0002,0.00027,7e-05,5e-05,4,21
18532,2e-05,-3e-05,3e-05,-0.00042,0.0002,0.00027,7e-05,5e-05,4,21
18533,2e-05,-3e-05,3e-05,-0.00042,0.0002,0.00027,7e-05,5e-05,4,21
18534,2e-05,-3e-05,3e-05,-0.00042,0.0002,0.00027,7e-05,5e-05,4,21
18535,2e-05,-3e-05,3e-05,-0.00042,0.0002,0.00027,7e-05,5e-05,4,21
18537,2e-05,-3e-05,3e-05,-0.00042,0.0002,0.00027,7e-05,5e-05,4,21
18539,-1e-05,3e-05,5e-05,-0.00023,0.00074,-0.00064,-0.00015,-0.00014,4,21
18540,-1e-05,3e-05,5e-05,-0.00023,0.00074,-0.00064,-0.00015,-0.00014,4,21
18541,-1e-05,3e-05,5e-05,-0.00023,0.00074,-0.00064,-0.00015,-0.00014,4,21
18542,-1e-05,3e-05,5e-05,-0.00023,0.00074,-0.00064,-0.00015,-0.00014,4,21
18543,-1e-05,3e-05,5e-05,-0.00023,0.00074,-0.00064,-0.00015,-0.00014,4,21
18544,-1e-05,3e-05,5e-05,-0.00023,0.00074,-0.00064,-0.00015,-0.00014,4,21
18545,-1e-05,3e-05,5e-05,-0.00023,0.00074,-0.00064,-0.00015,-0.00014,4,21
18546,-1e-05,3e-05,5e-05,-0.00023,0.00074,-0.00064,-0.00015,-0.00014,4,21
18547,-1e-05,3e-05,5e-05,-0.00023,0.00074,-0.00064,-0.00015,-0.00014,4,21
18548,-6e-05,-6e-05,-0.00024,-0.0004,-0.00032,0.00074,-7e-05,-0.0001,4,21
18549,-6e-05,-6e-05,-0.00024,-0.0004,-0.00032,0.00074,-7e-05,-0.0001,4,21
18550,-6e-05,-6e-05,-0.00024,-0.0004,-0.00032,0.00074,-7e-05,-0.0001,4,21
18551,-6e-05,-6e-05,-0.00024,-0.0004,-0.00032,0.00074,-7e-05,-0.0001,4,21
18552,-6e-05,-6e-05,-0.00024,-0.0004,-0.00032,0.00074,-7e-05,-0.0001,4,21
18553,-6e-05,-6e-05,-0.00024,-0.0004,-0.00032,0.00074,-7e-05,-0.0001,4,21
18554,-6e-05,-6e-05,-0.00024,-0.0004,-0.00032,0.00074,-7e-05,-0.0001,4,21
18555,-6e-05,-6e-05,-0.00024,-0.0004,-0.00032,0.00074,-7e-05,-0.0001,4,21
18556,-6e-05,-6e-05,-0.00024,-0.0004,-0.00032,0.00074,-7e-05,-0.0001,4,21
18557,-6e-05,-6e-05,-0.00024,-0.0004,-0.00032,0.00074,-7e-05,-0.0001,4,21
18558,-6e-05,-6e-05,-0.00024,-0.0004,-0.00032,0.00074,-7e-05,-0.0001,4,21
18559,-6e-05,-6e-05,-0.00024,-0.0004,-0.00032,0.00074,-7e-05,-0.0001,4,21
18560,-6e-05,-6e-05,-0.00024,-0.0004,-0.00032,0.00074,-7e-05,-0.0001,4,21
18561,-6e-05,-6e-05,-0.00024,-0.0004,-0.00032,0.00074,-7e-05,-0.0001,4,21
18562,-6e-05,-6e-05,-0.00024,-0.0004,-0.00032,0.00074,-7e-05,-0.0001,4,21
18563,-6e-05,-6e-05,-0.00024,-0.0004,-0.00032,0.00074,-7e-05,-0.0001,4,21
18564,-6e-05,-6e-05,-0.00024,-0.0004,-0.00032,0.00074,-7e-05,-0.0001,4,21
18565,-6e-05,-6e-05,-0.00024,-0.0004,-0.00032,0.00074,-7e-05,-0.0001,4,21
18566,-6e-05,-6e-05,-0.00024,-0.0004,-0.00032,0.00074,-7e-05,-0.0001,4,21
18567,-6e-05,-6e-05,-0.00024,-0.0004,-0.00032,0.00074,-7e-05,-0.0001,4,21
18568,-6e-05,-6e-05,-0.00024,-0.0004,-0.00032,0.00074,-7e-05,-0.0001,4,21
18569,-6e-05,-6e-05,-0.00024,-0.0004,-0.00032,0.00074,-7e-05,-0.0001,4,21
18570,5e-05,5e-05,0.00012,0.0004,0.00021,0.00055,-1e-05,-0.00017,4,21
18571,5e-05,5e-05,0.00012,0.0004,0.00021,0.00055,-1e-05,-0.00017,4,21
18572,-0.00011,-0.00017,-0.00041,-0.00081,-0.00019,6e-05,-0.00026,-8e-05,4,21
18573,-0.00011,-0.00017,-0.00041,-0.00081,-0.00019,6e-05,-0.00026,-8e-05,4,21
18574,-0.00011,-0.00017,-0.00041,-0.00081,-0.00019,6e-05,-0.00026,-8e-05,4,21
18575,-0.00011,-0.00017,-0.00041,-0.00081,-0.00019,6e-05,-0.00026,-8e-05,4,21
18576,-0.00011,-0.00017,-0.00041,-0.00081,-0.00019,6e-05,-0.00026,-8e-05,4,21
18577,-0.00011,-0.00017,-0.00041,-0.00081,-0.00019,6e-05,-0.00026,-8e-05,4,21
18578,-0.00011,-0.00017,-0.00041,-0.00081,-0.00019,6e-05,-0.00026,-8e-05,4,21
18579,-0.00011,-0.00017,-0.00041,-0.00081,-0.00019,6e-05,-0.00026,-8e-05,4,21
18580,-0.00011,-0.00017,-0.00041,-0.00081,-0.00019,6e-05,-0.00026,-8e-05,4,21
18581,-0.00011,-0.00017,-0.00041,-0.00081,-0.00019,6e-05,-0.00026,-8e-05,4,21
18582,-0.00011,-0.00017,-0.00041,-0.00081,-0.00019,6e-05,-0.00026,-8e-05,4,21
18583,-0.00011,-0.00017,-0.00041,-0.00081,-0.00019,6e-05,-0.00026,-8e-05,4,21
18584,-0.00011,-0.00017,-0.00041,-0.00081,-0.00019,6e-05,-0.00026,-8e-05,4,21
18585,-6e-05,-0.0001,-0.00011,0.0002,0.00026,-4e-05,-6e-05,-2e-05,4,21
18587,8e-05,0.00011,0.00024,0.0004,0.00062,0.00124,0.00024,0.00022,4,21
18589,8e-05,0.00011,0.00024,0.0004,0.00062,0.00124,0.00024,0.00022,4,21
18590,8e-05,0.00011,0.00024,0.0004,0.00062,0.00124,0.00024,0.00022,4,21
18591,8e-05,0.00011,0.00024,0.0004,0.00062,0.00124,0.00024,0.00022,4,21
18592,8e-05,0.00011,0.00024,0.0004,0.00062,0.00124,0.00024,0.00022,4,21
18593,8e-05,0.00011,0.00024,0.0004,0.00062,0.00124,0.00024,0.00022,4,21
18594,8e-05,0.00011,0.00024,0.0004,0.00062,0.00124,0.00024,0.00022,4,21
18595,8e-05,0.00011,0.00024,0.0004,0.00062,0.00124,0.00024,0.00022,4,21
18596,8e-05,0.00011,0.00024,0.0004,0.00062,0.00124,0.00024,0.00022,4,21
18597,8e-05,0.00011,0.00024,0.0004,0.00062,0.00124,0.00024,0.00022,4,21
18598,8e-05,0.00011,0.00024,0.0004,0.00062,0.00124,0.00024,0.00022,4,21
18599,3e-05,1e-05,-4e-05,8e-05,-0.00018,-0.00102,-5e-05,-7e-05,4,21
18600,3e-05,1e-05,-4e-05,8e-05,-0.00018,-0.00102,-5e-05,-7e-05,4,21
18601,3e-05,1e-05,-4e-05,8e-05,-0.00018,-0.00102,-5e-05,-7e-05,4,21
18602,3e-05,1e-05,-4e-05,8e-05,-0.00018,-0.00102,-5e-05,-7e-05,4,21
18603,3e-05,1e-05,-4e-05,8e-05,-0.00018,-0.00102,-5e-05,-7e-05,4,21
18604,3e-05,1e-05,-4e-05,8e-05,-0.00018,-0.00102,-5e-05,-7e-05,4,21
18605,3e-05,1e-05,-4e-05,8e-05,-0.00018,-0.00102,-5e-05,-7e-05,4,21
18606,3e-05,1e-05,-4e-05,8e-05,-0.00018,-0.00102,-5e-05,-7e-05,4,21
18607,3e-05,1e-05,-4e-05,8e-05,-0.00018,-0.00102,-5e-05,-7e-05,4,21
18608,-4e-05,-7e-05,-5e-05,0.0001,0.00067,-0.00117,-5e-05,-0.00011,4,21
18609,-4e-05,-7e-05,-5e-05,0.0001,0.00067,-0.00117,-5e-05,-0.00011,4,21
18610,-4e-05,-7e-05,-5e-05,0.0001,0.00067,-0.00117,-5e-05,-0.00011,4,21
18611,-4e-05,-7e-05,-5e-05,0.0001,0.00067,-0.00117,-5e-05,-0.00011,4,21
18612,-4e-05,-7e-05,-5e-05,0.0001,0.00067,-0.00117,-5e-05,-0.00011,4,21
18613,-4e-05,-7e-05,-5e-05,0.0001,0.00067,-0.00117,-5e-05,-0.00011,4,21
18614,-4e-05,-7e-05,-5e-05,0.0001,0.00067,-0.00117,-5e-05,-0.00011,4,21
18615,-4e-05,-7e-05,-5e-05,0.0001,0.00067,-0.00117,-5e-05,-0.00011,4,21
18616,-4e-05,-7e-05,-5e-05,0.0001,0.00067,-0.00117,-5e-05,-0.00011,4,21
18617,-4e-05,-7e-05,-5e-05,0.0001,0.00067,-0.00117,-5e-05,-0.00011,4,21
18618,-4e-05,-7e-05,-5e-05,0.0001,0.00067,-0.00117,-5e-05,-0.00011,4,21
18619,-4e-05,-7e-05,-5e-05,0.0001,0.00067,-0.00117,-5e-05,-0.00011,4,21
18620,-4e-05,-7e-05,-5e-05,0.0001,0.00067,-0.00117,-5e-05,-0.00011,4,21
18621,-4e-05,-7e-05,-5e-05,0.0001,0.00067,-0.00117,-5e-05,-0.00011,4,21
18622,-4e-05,-7e-05,-5e-05,0.0001,0.00067,-0.00117,-5e-05,-0.00011,4,21
18623,-9e-05,-0.00016,-0.00028,-0.00071,-0.00068,-0.00046,-5e-05,-7e-05,4,21
18624,1e-05,6e-05,6e-05,-0.00012,-0.00079,-1e-05,-6e-05,-3e-05,4,21
18625,1e-05,6e-05,6e-05,-0.00012,-0.00079,-1e-05,-6e-05,-3e-05,4,21
18626,1e-05,6e-05,6e-05,-0.00012,-0.00079,-1e-05,-6e-05,-3e-05,4,21
18627,1e-05,6e-05,6e-05,-0.00012,-0.00079,-1e-05,-6e-05,-3e-05,4,21
18628,1e-05,6e-05,6e-05,-0.00012,-0.00079,-1e-05,-6e-05,-3e-05,4,21
18629,1e-05,6e-05,6e-05,-0.00012,-0.00079,-1e-05,-6e-05,-3e-05,4,21
18630,1e-05,6e-05,6e-05,-0.00012,-0.00079,-1e-05,-6e-05,-3e-05,4,21
18631,1e-05,6e-05,6e-05,-0.00012,-0.00079,-1e-05,-6e-05,-3e-05,4,21
18632,1e-05,6e-05,6e-05,-0.00012,-0.00079,-1e-05,-6e-05,-3e-05,4,21
18633,1e-05,6e-05,6e-05,-0.00012,-0.00079,-1e-05,-6e-05,-3e-05,4,21
18634,1e-05,6e-05,6e-05,-0.00012,-0.00079,-1e-05,-6e-05,-3e-05,4,21
18635,1e-05,6e-05,6e-05,-0.00012,-0.00079,-1e-05,-6e-05,-3e-05,4,21
18637,1e-05,6e-05,6e-05,-0.00012,-0.00079,-1e-05,-6e-05,-3e-05,4,21
18639,1e-05,6e-05,6e-05,-0.00012,-0.00079,-1e-05,-6e-05,-3e-05,4,21
18640,1e-05,6e-05,6e-05,-0.00012,-0.00079,-1e-05,-6e-05,-3e-05,4,21
18641,1e-05,6e-05,6e-05,-0.00012,-0.00079,-1e-05,-6e-05,-3e-05,4,21
18642,1e-05,6e-05,6e-05,-0.00012,-0.00079,-1e-05,-6e-05,-3e-05,4,21
18643,1e-05,6e-05,6e-05,-0.00012,-0.00079,-1e-05,-6e-05,-3e-05,4,21
18644,1e-05,6e-05,6e-05,-0.00012,-0.00079,-1e-05,-6e-05,-3e-05,4,21
18645,1e-05,6e-05,6e-05,-0.00012,-0.00079,-1e-05,-6e-05,-3e-05,4,21
18646,0,1e-05,-6e-05,7e-05,0.00018,-0.00034,-5e-05,0.00033,4,21
18647,5e-05,0.00013,0.00024,0.00026,0.0008,-0.00081,1e-05,4e-05,4,21
18648,5e-05,0.00013,0.00024,0.00026,0.0008,-0.00081,1e-05,4e-05,4,21
18649,5e-05,0.00013,0.00024,0.00026,0.0008,-0.00081,1e-05,4e-05,4,21
18650,5e-05,0.00013,0.00024,0.00026,0.0008,-0.00081,1e-05,4e-05,4,21
18651,5e-05,0.00013,0.00024,0.00026,0.0008,-0.00081,1e-05,4e-05,4,21
18652,5e-05,0.00013,0.00024,0.00026,0.0008,-0.00081,1e-05,4e-05,4,21
18653,5e-05,0.00013,0.00024,0.00026,0.0008,-0.00081,1e-05,4e-05,4,21
18654,5e-05,0.00013,0.00024,0.00026,0.0008,-0.00081,1e-05,4e-05,4,21
18655,5e-05,0.00013,0.00024,0.00026,0.0008,-0.00081,1e-05,4e-05,4,21
18656,5e-05,0.00013,0.00024,0.00026,0.0008,-0.00081,1e-05,4e-05,4,21
18657,5e-05,0.00013,0.00024,0.00026,0.0008,-0.00081,1e-05,4e-05,4,21
18658,5e-05,0.00013,0.00024,0.00026,0.0008,-0.00081,1e-05,4e-05,4,21
18659,-3e-05,-2e-05,-4e-05,-0.00052,-0.00092,0.00078,7e-05,5e-05,4,21
18660,-3e-05,-2e-05,-4e-05,-0.00052,-0.00092,0.00078,7e-05,5e-05,4,21
18661,-3e-05,-2e-05,-4e-05,-0.00052,-0.00092,0.00078,7e-05,5e-05,4,21
18662,-3e-05,-2e-05,-4e-05,-0.00052,-0.00092,0.00078,7e-05,5e-05,4,21
18663,-3e-05,-2e-05,-4e-05,-0.00052,-0.00092,0.00078,7e-05,5e-05,4,21
18664,-3e-05,-2e-05,-4e-05,-0.00052,-0.00092,0.00078,7e-05,5e-05,4,21
18665,-3e-05,-2e-05,-4e-05,-0.00052,-0.00092,0.00078,7e-05,5e-05,4,21
18666,-3e-05,-2e-05,-4e-05,-0.00052,-0.00092,0.00078,7e-05,5e-05,4,21
18667,-3e-05,-2e-05,-4e-05,-0.00052,-0.00092,0.00078,7e-05,5e-05,4,21
18668,1e-05,5e-05,3e-05,-0.00037,-0.00013,-0.00049,5e-05,0.00022,4,21
18669,1e-05,5e-05,3e-05,-0.00037,-0.00013,-0.00049,5e-05,0.00022,4,21
18670,1e-05,5e-05,3e-05,-0.00037,-0.00013,-0.00049,5e-05,0.00022,4,21
18671,1e-05,5e-05,3e-05,-0.00037,-0.00013,-0.00049,5e-05,0.00022,4,21
18672,1e-05,5e-05,3e-05,-0.00037,-0.00013,-0.00049,5e-05,0.00022,4,21
18673,1e-05,5e-05,3e-05,-0.00037,-0.00013,-0.00049,5e-05,0.00022,4,21
18674,1e-05,5e-05,3e-05,-0.00037,-0.00013,-0.00049,5e-05,0.00022,4,21
18675,1e-05,5e-05,3e-05,-0.00037,-0.00013,-0.00049,5e-05,0.00022,4,21
18676,1e-05,5e-05,3e-05,-0.00037,-0.00013,-0.00049,5e-05,0.00022,4,21
18677,1e-05,5e-05,3e-05,-0.00037,-0.00013,-0.00049,5e-05,0.00022,4,21
18678,1e-05,5e-05,3e-05,-0.00037,-0.00013,-0.00049,5e-05,0.00022,4,21
18679,1e-05,5e-05,3e-05,-0.00037,-0.00013,-0.00049,5e-05,0.00022,4,21
18680,1e-05,5e-05,3e-05,-0.00037,-0.00013,-0.00049,5e-05,0.00022,4,21
18681,1e-05,5e-05,3e-05,-0.00037,-0.00013,-0.00049,5e-05,0.00022,4,21
18682,1e-05,5e-05,3e-05,-0.00037,-0.00013,-0.00049,5e-05,0.00022,4,21
18683,-5e-05,-0.00014,-1e-05,0.00041,-0.00086,-0.00106,-0.00012,-0.00013,4,21
18684,2e-05,7e-05,0.0001,-0.00043,0.00047,5e-05,7e-05,0.0001,4,21
18685,-4e-05,-5e-05,-0.00012,0.00056,-0.00068,-0.00017,-2e-05,6e-05,4,21
18687,-4e-05,-5e-05,-0.00012,0.00056,-0.00068,-0.00017,-2e-05,6e-05,4,21
18689,-4e-05,-5e-05,-0.00012,0.00056,-0.00068,-0.00017,-2e-05,6e-05,4,21
18690,-4e-05,-5e-05,-0.00012,0.00056,-0.00068,-0.00017,-2e-05,6e-05,4,21
18691,-4e-05,-5e-05,-0.00012,0.00056,-0.00068,-0.00017,-2e-05,6e-05,4,21
18692,-4e-05,-5e-05,-0.00012,0.00056,-0.00068,-0.00017,-2e-05,6e-05,4,21
18693,-4e-05,-5e-05,-0.00012,0.00056,-0.00068,-0.00017,-2e-05,6e-05,4,21
18694,-4e-05,-5e-05,-0.00012,0.00056,-0.00068,-0.00017,-2e-05,6e-05,4,21
18695,-4e-05,-5e-05,-0.00012,0.00056,-0.00068,-0.00017,-2e-05,6e-05,4,21
18696,-4e-05,-5e-05,-0.00012,0.00056,-0.00068,-0.00017,-2e-05,6e-05,4,21
18697,-4e-05,-5e-05,-0.00012,0.00056,-0.00068,-0.00017,-2e-05,6e-05,4,21
18698,-4e-05,-5e-05,-0.00012,0.00056,-0.00068,-0.00017,-2e-05,6e-05,4,21
18699,-4e-05,-5e-05,-0.00012,0.00056,-0.00068,-0.00017,-2e-05,6e-05,4,21
18700,-4e-05,-5e-05,-0.00012,0.00056,-0.00068,-0.00017,-2e-05,6e-05,4,21
18701,-4e-05,-5e-05,-0.00012,0.00056,-0.00068,-0.00017,-2e-05,6e-05,4,21
18702,-4e-05,-5e-05,-0.00012,0.00056,-0.00068,-0.00017,-2e-05,6e-05,4,21
18703,-4e-05,-5e-05,-0.00012,0.00056,-0.00068,-0.00017,-2e-05,6e-05,4,21
18704,-4e-05,-5e-05,-0.00012,0.00056,-0.00068,-0.00017,-2e-05,6e-05,4,21
18705,0,3e-05,5e-05,-0.00029,-0.00043,8e-05,2e-05,-5e-05,4,21
18706,0,3e-05,5e-05,-0.00029,-0.00043,8e-05,2e-05,-5e-05,4,21
18707,-4e-05,-7e-05,-0.00014,-0.0008,-0.00089,0.00016,5e-05,-0.0001,4,21
18708,-4e-05,-7e-05,-0.00014,-0.0008,-0.00089,0.00016,5e-05,-0.0001,4,21
18709,-4e-05,-7e-05,-0.00014,-0.0008,-0.00089,0.00016,5e-05,-0.0001,4,21
18710,-4e-05,-7e-05,-0.00014,-0.0008,-0.00089,0.00016,5e-05,-0.0001,4,21
18711,-4e-05,-7e-05,-0.00014,-0.0008,-0.00089,0.00016,5e-05,-0.0001,4,21
18712,-4e-05,-7e-05,-0.00014,-0.0008,-0.00089,0.00016,5e-05,-0.0001,4,21
18713,-4e-05,-7e-05,-0.00014,-0.0008,-0.00089,0.00016,5e-05,-0.0001,4,21
18714,-4e-05,-7e-05,-0.00014,-0.0008,-0.00089,0.00016,5e-05,-0.0001,4,21
18715,-4e-05,-7e-05,-0.00014,-0.0008,-0.00089,0.00016,5e-05,-0.0001,4,21
18716,-4e-05,-7e-05,-0.00014,-0.0008,-0.00089,0.00016,5e-05,-0.0001,4,21
18717,-4e-05,-7e-05,-0.00014,-0.0008,-0.00089,0.00016,5e-05,-0.0001,4,21
18718,-4e-05,-7e-05,-0.00014,-0.0008,-0.00089,0.00016,5e-05,-0.0001,4,21
18719,-3e-05,-4e-05,5e-05,0.00033,-0.00021,0.00041,-2e-05,-0.00014,4,21
18720,-3e-05,-4e-05,5e-05,0.00033,-0.00021,0.00041,-2e-05,-0.00014,4,21
18721,-3e-05,-4e-05,5e-05,0.00033,-0.00021,0.00041,-2e-05,-0.00014,4,21
18722,-3e-05,-4e-05,5e-05,0.00033,-0.00021,0.00041,-2e-05,-0.00014,4,21
18723,-3e-05,-4e-05,5e-05,0.00033,-0.00021,0.00041,-2e-05,-0.00014,4,21
18724,-3e-05,-4e-05,5e-05,0.00033,-0.00021,0.00041,-2e-05,-0.00014,4,21
18725,-3e-05,-4e-05,5e-05,0.00033,-0.00021,0.00041,-2e-05,-0.00014,4,21
18726,-3e-05,-4e-05,5e-05,0.00033,-0.00021,0.00041,-2e-05,-0.00014,4,21
18727,-3e-05,-4e-05,5e-05,0.00033,-0.00021,0.00041,-2e-05,-0.00014,4,21
18728,-3e-05,-3e-05,-4e-05,0.00029,0.001,0.00034,-3e-05,-0.00012,4,21
18729,-3e-05,-3e-05,-4e-05,0.00029,0.001,0.00034,-3e-05,-0.00012,4,21
18730,-3e-05,-3e-05,-4e-05,0.00029,0.001,0.00034,-3e-05,-0.00012,4,21
18731,-3e-05,-3e-05,-4e-05,0.00029,0.001,0.00034,-3e-05,-0.00012,4,21
18732,-3e-05,-3e-05,-4e-05,0.00029,0.001,0.00034,-3e-05,-0.00012,4,21
18733,-3e-05,-3e-05,-4e-05,0.00029,0.001,0.00034,-3e-05,-0.00012,4,21
18734,-3e-05,-3e-05,-4e-05,0.00029,0.001,0.00034,-3e-05,-0.00012,4,21
18735,-3e-05,-3e-05,-4e-05,0.00029,0.001,0.00034,-3e-05,-0.00012,4,21
18737,-3e-05,-3e-05,-4e-05,0.00029,0.001,0.00034,-3e-05,-0.00012,4,21
18739,-3e-05,-3e-05,-4e-05,0.00029,0.001,0.00034,-3e-05,-0.00012,4,21
18740,-3e-05,-3e-05,-4e-05,0.00029,0.001,0.00034,-3e-05,-0.00012,4,21
18741,-3e-05,-3e-05,-4e-05,0.00029,0.001,0.00034,-3e-05,-0.00012,4,21
18742,-3e-05,-3e-05,-4e-05,0.00029,0.001,0.00034,-3e-05,-0.00012,4,21
18743,0,-1e-05,1e-05,4e-05,-2e-05,0.00031,5e-05,0,4,21
18744,-5e-05,-3e-05,-0.00013,-0.00028,-0.001,-0.00061,-0.00014,-4e-05,4,21
18745,2e-05,0.00011,0.00016,0.00103,0.00072,0.00075,0.00011,-9e-05,4,21
18746,2e-05,0.00011,0.00016,0.00103,0.00072,0.00075,0.00011,-9e-05,4,21
18747,2e-05,0.00011,0.00016,0.00103,0.00072,0.00075,0.00011,-9e-05,4,21
18748,2e-05,0.00011,0.00016,0.00103,0.00072,0.00075,0.00011,-9e-05,4,21
18749,2e-05,0.00011,0.00016,0.00103,0.00072,0.00075,0.00011,-9e-05,4,21
18750,2e-05,0.00011,0.00016,0.00103,0.00072,0.00075,0.00011,-9e-05,4,21
18751,2e-05,0.00011,0.00016,0.00103,0.00072,0.00075,0.00011,-9e-05,4,21
18752,2e-05,0.00011,0.00016,0.00103,0.00072,0.00075,0.00011,-9e-05,4,21
18753,2e-05,0.00011,0.00016,0.00103,0.00072,0.00075,0.00011,-9e-05,4,21
18754,2e-05,0.00011,0.00016,0.00103,0.00072,0.00075,0.00011,-9e-05,4,21
18755,2e-05,0.00011,0.00016,0.00103,0.00072,0.00075,0.00011,-9e-05,4,21
18756,2e-05,0.00011,0.00016,0.00103,0.00072,0.00075,0.00011,-9e-05,4,21
18757,2e-05,0.00011,0.00016,0.00103,0.00072,0.00075,0.00011,-9e-05,4,21
18758,2e-05,0.00011,0.00016,0.00103,0.00072,0.00075,0.00011,-9e-05,4,21
18759,2e-05,0.00011,0.00016,0.00103,0.00072,0.00075,0.00011,-9e-05,4,21
18760,2e-05,0.00011,0.00016,0.00103,0.00072,0.00075,0.00011,-9e-05,4,21
18761,2e-05,0.00011,0.00016,0.00103,0.00072,0.00075,0.00011,-9e-05,4,21
18762,2e-05,0.00011,0.00016,0.00103,0.00072,0.00075,0.00011,-9e-05,4,21
18763,2e-05,0.00011,0.00016,0.00103,0.00072,0.00075,0.00011,-9e-05,4,21
18764,2e-05,0.00011,0.00016,0.00103,0.00072,0.00075,0.00011,-9e-05,4,21
18765,-5e-05,-1e-05,2e-05,-0.00037,0.00074,-0.00093,-6e-05,-5e-05,4,21
18766,-5e-05,-1e-05,2e-05,-0.00037,0.00074,-0.00093,-6e-05,-5e-05,4,21
18767,2e-05,6e-05,6e-05,-0.00069,-0.00085,0.00068,6e-05,-1e-05,4,21
18768,2e-05,6e-05,6e-05,-0.00069,-0.00085,0.00068,6e-05,-1e-05,4,21
18769,2e-05,6e-05,6e-05,-0.00069,-0.00085,0.00068,6e-05,-1e-05,4,21
18770,2e-05,6e-05,6e-05,-0.00069,-0.00085,0.00068,6e-05,-1e-05,4,21
18771,2e-05,6e-05,6e-05,-0.00069,-0.00085,0.00068,6e-05,-1e-05,4,21
18772,2e-05,6e-05,6e-05,-0.00069,-0.00085,0.00068,6e-05,-1e-05,4,21
18773,2e-05,6e-05,6e-05,-0.00069,-0.00085,0.00068,6e-05,-1e-05,4,21
18774,2e-05,6e-05,6e-05,-0.00069,-0.00085,0.00068,6e-05,-1e-05,4,21
18775,2e-05,6e-05,6e-05,-0.00069,-0.00085,0.00068,6e-05,-1e-05,4,21
18776,2e-05,6e-05,6e-05,-0.00069,-0.00085,0.00068,6e-05,-1e-05,4,21
18778,2e-05,6e-05,6e-05,-0.00069,-0.00085,0.00068,6e-05,-1e-05,4,21
18779,-8e-05,-0.00013,-0.00024,-0.00027,-0.00081,-0.00101,-0.00016,-0.00013,4,21
18780,-8e-05,-0.00013,-0.00024,-0.00027,-0.00081,-0.00101,-0.00016,-0.00013,4,21
18781,-8e-05,-0.00013,-0.00024,-0.00027,-0.00081,-0.00101,-0.00016,-0.00013,4,21
18782,-8e-05,-0.00013,-0.00024,-0.00027,-0.00081,-0.00101,-0.00016,-0.00013,4,21
18783,-8e-05,-0.00013,-0.00024,-0.00027,-0.00081,-0.00101,-0.00016,-0.00013,4,21
18784,-8e-05,-0.00013,-0.00024,-0.00027,-0.00081,-0.00101,-0.00016,-0.00013,4,21
18785,-8e-05,-0.00013,-0.00024,-0.00027,-0.00081,-0.00101,-0.00016,-0.00013,4,21
18787,-8e-05,-0.00013,-0.00024,-0.00027,-0.00081,-0.00101,-0.00016,-0.00013,4,21
18789,-1e-05,-1e-05,0,-0.00099,-0.00058,0.00011,-3e-05,3e-05,4,21
18790,-1e-05,-1e-05,0,-0.00099,-0.00058,0.00011,-3e-05,3e-05,4,21
18791,-1e-05,-1e-05,0,-0.00099,-0.00058,0.00011,-3e-05,3e-05,4,21
18792,-1e-05,-1e-05,0,-0.00099,-0.00058,0.00011,-3e-05,3e-05,4,21
18793,-1e-05,-1e-05,0,-0.00099,-0.00058,0.00011,-3e-05,3e-05,4,21
18794,-1e-05,-1e-05,0,-0.00099,-0.00058,0.00011,-3e-05,3e-05,4,21
18795,-1e-05,-1e-05,0,-0.00099,-0.00058,0.00011,-3e-05,3e-05,4,21
18796,-1e-05,-1e-05,0,-0.00099,-0.00058,0.00011,-3e-05,3e-05,4,21
18797,-1e-05,-1e-05,0,-0.00099,-0.00058,0.00011,-3e-05,3e-05,4,21
18798,-1e-05,-1e-05,0,-0.00099,-0.00058,0.00011,-3e-05,3e-05,4,21
18799,-1e-05,-1e-05,0,-0.00099,-0.00058,0.00011,-3e-05,3e-05,4,21
18800,-1e-05,-1e-05,0,-0.00099,-0.00058,0.00011,-3e-05,3e-05,4,21
18801,-1e-05,-1e-05,0,-0.00099,-0.00058,0.00011,-3e-05,3e-05,4,21
18802,-1e-05,-1e-05,0,-0.00099,-0.00058,0.00011,-3e-05,3e-05,4,21
18803,4e-05,4e-05,0.00015,0.00017,-0.00034,-2e-05,0.00011,6e-05,4,21
18804,-6e-05,-0.00011,-0.00024,0.00029,0.00024,-0.00042,0.00011,-6e-05,4,21
18805,-1e-05,-4e-05,-3e-05,-0.00018,0.0007,0.00069,-3e-05,0,4,21
18806,-1e-05,-4e-05,-3e-05,-0.00018,0.0007,0.00069,-3e-05,0,4,21
18807,-1e-05,-4e-05,-3e-05,-0.00018,0.0007,0.00069,-3e-05,0,4,21
18808,-1e-05,-4e-05,-3e-05,-0.00018,0.0007,0.00069,-3e-05,0,4,21
18809,-1e-05,-4e-05,-3e-05,-0.00018,0.0007,0.00069,-3e-05,0,4,21
18810,-1e-05,-4e-05,-3e-05,-0.00018,0.0007,0.00069,-3e-05,0,4,21
18811,-1e-05,-4e-05,-3e-05,-0.00018,0.0007,0.00069,-3e-05,0,4,21
18812,-1e-05,-4e-05,-3e-05,-0.00018,0.0007,0.00069,-3e-05,0,4,21
18813,-1e-05,-4e-05,-3e-05,-0.00018,0.0007,0.00069,-3e-05,0,4,21
18814,-1e-05,-4e-05,-3e-05,-0.00018,0.0007,0.00069,-3e-05,0,4,21
18815,-1e-05,-4e-05,-3e-05,-0.00018,0.0007,0.00069,-3e-05,0,4,21
18816,-1e-05,-4e-05,-3e-05,-0.00018,0.0007,0.00069,-3e-05,0,4,21
18817,-1e-05,-4e-05,-3e-05,-0.00018,0.0007,0.00069,-3e-05,0,4,21
18818,-1e-05,-4e-05,-3e-05,-0.00018,0.0007,0.00069,-3e-05,0,4,21
18819,-1e-05,-4e-05,-3e-05,-0.00018,0.0007,0.00069,-3e-05,0,4,21
18820,-1e-05,-4e-05,-3e-05,-0.00018,0.0007,0.00069,-3e-05,0,4,21
18821,-1e-05,-4e-05,-3e-05,-0.00018,0.0007,0.00069,-3e-05,0,4,21
18822,-1e-05,-4e-05,-3e-05,-0.00018,0.0007,0.00069,-3e-05,0,4,21
18823,-1e-05,-4e-05,-3e-05,-0.00018,0.0007,0.00069,-3e-05,0,4,21
18824,-1e-05,-4e-05,-3e-05,-0.00018,0.0007,0.00069,-3e-05,0,4,21
18825,3e-05,5e-05,4e-05,-0.0001,0.00082,0.00022,3e-05,2e-05,4,21
18826,3e-05,5e-05,4e-05,-0.0001,0.00082,0.00022,3e-05,2e-05,4,21
18827,-1e-05,-4e-05,-2e-05,0.00017,-4e-05,-0.00097,-1e-05,-3e-05,4,21
18828,-1e-05,-4e-05,-2e-05,0.00017,-4e-05,-0.00097,-1e-05,-3e-05,4,21
18829,-1e-05,-4e-05,-2e-05,0.00017,-4e-05,-0.00097,-1e-05,-3e-05,4,21
18830,-1e-05,-4e-05,-2e-05,0.00017,-4e-05,-0.00097,-1e-05,-3e-05,4,21
18831,-1e-05,-4e-05,-2e-05,0.00017,-4e-05,-0.00097,-1e-05,-3e-05,4,21
18832,-1e-05,-4e-05,-2e-05,0.00017,-4e-05,-0.00097,-1e-05,-3e-05,4,21
18833,-1e-05,-4e-05,-2e-05,0.00017,-4e-05,-0.00097,-1e-05,-3e-05,4,21
18834,-1e-05,-4e-05,-2e-05,0.00017,-4e-05,-0.00097,-1e-05,-3e-05,4,21
18835,-1e-05,-4e-05,-2e-05,0.00017,-4e-05,-0.00097,-1e-05,-3e-05,4,21
18837,-1e-05,-4e-05,-2e-05,0.00017,-4e-05,-0.00097,-1e-05,-3e-05,4,21
18839,-1e-05,-4e-05,-2e-05,0.00017,-4e-05,-0.00097,-1e-05,-3e-05,4,21
18840,-1e-05,-4e-05,-2e-05,0.00017,-4e-05,-0.00097,-1e-05,-3e-05,4,21
18841,-1e-05,-4e-05,-2e-05,0.00017,-4e-05,-0.00097,-1e-05,-3e-05,4,21
18842,-1e-05,-4e-05,-2e-05,0.00017,-4e-05,-0.00097,-1e-05,-3e-05,4,21
18843,-1e-05,-4e-05,-2e-05,0.00017,-4e-05,-0.00097,-1e-05,-3e-05,4,21
18844,-1e-05,-4e-05,-2e-05,0.00017,-4e-05,-0.00097,-1e-05,-3e-05,4,21
18845,-1e-05,-4e-05,-2e-05,0.00017,-4e-05,-0.00097,-1e-05,-3e-05,4,21
18846,-1e-05,-4e-05,-2e-05,0.00017,-4e-05,-0.00097,-1e-05,-3e-05,4,21
18847,-1e-05,-4e-05,-2e-05,0.00017,-4e-05,-0.00097,-1e-05,-3e-05,4,21
18848,5e-05,7e-05,4e-05,-0.00021,0.001,0.00062,0.00024,-8e-05,4,21
18849,5e-05,5e-05,0.00013,-2e-05,0.00109,0.00127,2e-05,5e-05,4,21
18850,-5e-05,-8e-05,-0.00011,0.00021,-0.00094,-0.0007,-0.0001,-5e-05,4,21
18851,-5e-05,-8e-05,-0.00011,0.00021,-0.00094,-0.0007,-0.0001,-5e-05,4,21
18852,-5e-05,-8e-05,-0.00011,0.00021,-0.00094,-0.0007,-0.0001,-5e-05,4,21
18853,-5e-05,-8e-05,-0.00011,0.00021,-0.00094,-0.0007,-0.0001,-5e-05,4,21
18854,-5e-05,-8e-05,-0.00011,0.00021,-0.00094,-0.0007,-0.0001,-5e-05,4,21
18855,-5e-05,-8e-05,-0.00011,0.00021,-0.00094,-0.0007,-0.0001,-5e-05,4,21
18856,-5e-05,-8e-05,-0.00011,0.00021,-0.00094,-0.0007,-0.0001,-5e-05,4,21
18857,-5e-05,-8e-05,-0.00011,0.00021,-0.00094,-0.0007,-0.0001,-5e-05,4,21
18858,-5e-05,-8e-05,-0.00011,0.00021,-0.00094,-0.0007,-0.0001,-5e-05,4,21
18859,-5e-05,-8e-05,-0.00011,0.00021,-0.00094,-0.0007,-0.0001,-5e-05,4,21
18860,-5e-05,-8e-05,-0.00011,0.00021,-0.00094,-0.0007,-0.0001,-5e-05,4,21
18861,-5e-05,-8e-05,-0.00011,0.00021,-0.00094,-0.0007,-0.0001,-5e-05,4,21
18862,-5e-05,-8e-05,-0.00011,0.00021,-0.00094,-0.0007,-0.0001,-5e-05,4,21
18863,4e-05,0.00018,0.00013,0.0001,-0.00021,-0.00035,-5e-05,-1e-05,4,21
18864,8e-05,0.00012,0.00025,0.00093,0.001,-0.00032,0.0001,3e-05,4,21
18866,8e-05,0.00012,0.00025,0.00093,0.001,-0.00032,0.0001,3e-05,4,21
18867,8e-05,0.00012,0.00025,0.00093,0.001,-0.00032,0.0001,3e-05,4,21
18868,8e-05,0.00012,0.00025,0.00093,0.001,-0.00032,0.0001,3e-05,4,21
18869,8e-05,0.00012,0.00025,0.00093,0.001,-0.00032,0.0001,3e-05,4,21
18870,8e-05,0.00012,0.00025,0.00093,0.001,-0.00032,0.0001,3e-05,4,21
18871,8e-05,0.00012,0.00025,0.00093,0.001,-0.00032,0.0001,3e-05,4,21
18872,8e-05,0.00012,0.00025,0.00093,0.001,-0.00032,0.0001,3e-05,4,21
18873,8e-05,0.00012,0.00025,0.00093,0.001,-0.00032,0.0001,3e-05,4,21
18874,8e-05,0.00012,0.00025,0.00093,0.001,-0.00032,0.0001,3e-05,4,21
18875,8e-05,0.00012,0.00025,0.00093,0.001,-0.00032,0.0001,3e-05,4,21
18876,8e-05,0.00012,0.00025,0.00093,0.001,-0.00032,0.0001,3e-05,4,21
18877,8e-05,0.00012,0.00025,0.00093,0.001,-0.00032,0.0001,3e-05,4,21
18878,8e-05,0.00012,0.00025,0.00093,0.001,-0.00032,0.0001,3e-05,4,21
18879,8e-05,0.00012,0.00025,0.00093,0.001,-0.00032,0.0001,3e-05,4,21
18880,8e-05,0.00012,0.00025,0.00093,0.001,-0.00032,0.0001,3e-05,4,21
18881,8e-05,0.00012,0.00025,0.00093,0.001,-0.00032,0.0001,3e-05,4,21
18882,8e-05,0.00012,0.00025,0.00093,0.001,-0.00032,0.0001,3e-05,4,21
18883,8e-05,0.00012,0.00025,0.00093,0.001,-0.00032,0.0001,3e-05,4,21
18884,8e-05,0.00012,0.00025,0.00093,0.001,-0.00032,0.0001,3e-05,4,21
18885,5e-05,8e-05,8e-05,-0.00016,-0.00029,9e-05,0.00014,2e-05,4,21
18887,-1e-05,-8e-05,-7e-05,-0.00025,-0.00128,0.00053,0.00018,0,4,21
18889,-1e-05,-8e-05,-7e-05,-0.00025,-0.00128,0.00053,0.00018,0,4,21
18890,-1e-05,-8e-05,-7e-05,-0.00025,-0.00128,0.00053,0.00018,0,4,21
18891,-1e-05,-8e-05,-7e-05,-0.00025,-0.00128,0.00053,0.00018,0,4,21
18892,-1e-05,-8e-05,-7e-05,-0.00025,-0.00128,0.00053,0.00018,0,4,21
18893,-1e-05,-8e-05,-7e-05,-0.00025,-0.00128,0.00053,0.00018,0,4,21
18894,-1e-05,-8e-05,-7e-05,-0.00025,-0.00128,0.00053,0.00018,0,4,21
18895,-1e-05,-8e-05,-7e-05,-0.00025,-0.00128,0.00053,0.00018,0,4,21
18896,-1e-05,-8e-05,-7e-05,-0.00025,-0.00128,0.00053,0.00018,0,4,21
18897,-1e-05,-8e-05,-7e-05,-0.00025,-0.00128,0.00053,0.00018,0,4,21
18898,-1e-05,-8e-05,-7e-05,-0.00025,-0.00128,0.00053,0.00018,0,4,21
18899,-1e-05,-8e-05,-7e-05,-0.00025,-0.00128,0.00053,0.00018,0,4,21
18900,-1e-05,-8e-05,-7e-05,-0.00025,-0.00128,0.00053,0.00018,0,4,21
18901,-1e-05,-8e-05,-7e-05,-0.00025,-0.00128,0.00053,0.00018,0,4,21
18902,-1e-05,-8e-05,-7e-05,-0.00025,-0.00128,0.00053,0.00018,0,4,21
18903,-1e-05,-8e-05,-7e-05,-0.00025,-0.00128,0.00053,0.00018,0,4,21
18904,-1e-05,-8e-05,-7e-05,-0.00025,-0.00128,0.00053,0.00018,0,4,21
18905,-1e-05,-8e-05,-7e-05,-0.00025,-0.00128,0.00053,0.00018,0,4,21
18906,-1e-05,-8e-05,-7e-05,-0.00025,-0.00128,0.00053,0.00018,0,4,21
18907,-1e-05,-8e-05,-7e-05,-0.00025,-0.00128,0.00053,0.00018,0,4,21
18908,-4e-05,-7e-05,-0.0001,1e-05,-0.00067,-0.00018,-0.00014,-2e-05,4,21
18909,4e-05,0.00011,0.00025,0,0.00053,0.00033,-0.00011,-3e-05,4,21
18910,4e-05,0.00011,0.00025,0,0.00053,0.00033,-0.00011,-3e-05,4,21
18911,4e-05,0.00011,0.00025,0,0.00053,0.00033,-0.00011,-3e-05,4,21
18912,4e-05,0.00011,0.00025,0,0.00053,0.00033,-0.00011,-3e-05,4,21
18913,4e-05,0.00011,0.00025,0,0.00053,0.00033,-0.00011,-3e-05,4,21
18914,4e-05,0.00011,0.00025,0,0.00053,0.00033,-0.00011,-3e-05,4,21
18915,4e-05,0.00011,0.00025,0,0.00053,0.00033,-0.00011,-3e-05,4,21
18916,4e-05,0.00011,0.00025,0,0.00053,0.00033,-0.00011,-3e-05,4,21
18917,4e-05,0.00011,0.00025,0,0.00053,0.00033,-0.00011,-3e-05,4,21
18918,4e-05,0.00011,0.00025,0,0.00053,0.00033,-0.00011,-3e-05,4,21
18919,4e-05,0.00011,0.00025,0,0.00053,0.00033,-0.00011,-3e-05,4,21
18920,4e-05,0.00011,0.00025,0,0.00053,0.00033,-0.00011,-3e-05,4,21
18921,4e-05,0.00011,0.00025,0,0.00053,0.00033,-0.00011,-3e-05,4,21
18922,4e-05,0.00011,0.00025,0,0.00053,0.00033,-0.00011,-3e-05,4,21
18923,-4e-05,-4e-05,-9e-05,-0.00032,-0.00059,0.00031,-3e-05,-0.0001,4,21
18924,0,-5e-05,-0.00011,-0.00035,-0.00052,-0.00012,3e-05,5e-05,4,21
18925,0,-5e-05,-0.00011,-0.00035,-0.00052,-0.00012,3e-05,5e-05,4,21
18926,0,-5e-05,-0.00011,-0.00035,-0.00052,-0.00012,3e-05,5e-05,4,21
18927,0,-5e-05,-0.00011,-0.00035,-0.00052,-0.00012,3e-05,5e-05,4,21
18928,0,-5e-05,-0.00011,-0.00035,-0.00052,-0.00012,3e-05,5e-05,4,21
18929,0,-5e-05,-0.00011,-0.00035,-0.00052,-0.00012,3e-05,5e-05,4,21
18930,0,-5e-05,-0.00011,-0.00035,-0.00052,-0.00012,3e-05,5e-05,4,21
18931,0,-5e-05,-0.00011,-0.00035,-0.00052,-0.00012,3e-05,5e-05,4,21
18932,0,-5e-05,-0.00011,-0.00035,-0.00052,-0.00012,3e-05,5e-05,4,21
18933,0,-5e-05,-0.00011,-0.00035,-0.00052,-0.00012,3e-05,5e-05,4,21
18934,0,-5e-05,-0.00011,-0.00035,-0.00052,-0.00012,3e-05,5e-05,4,21
18935,0,-5e-05,-0.00011,-0.00035,-0.00052,-0.00012,3e-05,5e-05,4,21
18937,0,-5e-05,-0.00011,-0.00035,-0.00052,-0.00012,3e-05,5e-05,4,21
18939,0,-5e-05,-0.00011,-0.00035,-0.00052,-0.00012,3e-05,5e-05,4,21
18940,0,-5e-05,-0.00011,-0.00035,-0.00052,-0.00012,3e-05,5e-05,4,21
18941,0,-5e-05,-0.00011,-0.00035,-0.00052,-0.00012,3e-05,5e-05,4,21
18942,0,-5e-05,-0.00011,-0.00035,-0.00052,-0.00012,3e-05,5e-05,4,21
18943,0,-5e-05,-0.00011,-0.00035,-0.00052,-0.00012,3e-05,5e-05,4,21
18944,0,-5e-05,-0.00011,-0.00035,-0.00052,-0.00012,3e-05,5e-05,4,21
18945,-1e-05,1e-05,0.0001,0.00034,0.00038,-0.00024,-2e-05,4e-05,4,21
18946,-1e-05,1e-05,0.0001,0.00034,0.00038,-0.00024,-2e-05,4e-05,4,21
18947,-4e-05,-7e-05,-0.0002,-0.00046,0.0004,-0.00049,-8e-05,-1e-05,4,21
18948,-4e-05,-7e-05,-0.0002,-0.00046,0.0004,-0.00049,-8e-05,-1e-05,4,21
18949,-4e-05,-7e-05,-0.0002,-0.00046,0.0004,-0.00049,-8e-05,-1e-05,4,21
18950,-4e-05,-7e-05,-0.0002,-0.00046,0.0004,-0.00049,-8e-05,-1e-05,4,21
18951,-4e-05,-7e-05,-0.0002,-0.00046,0.0004,-0.00049,-8e-05,-1e-05,4,21
18952,-4e-05,-7e-05,-0.0002,-0.00046,0.0004,-0.00049,-8e-05,-1e-05,4,21
18953,-4e-05,-7e-05,-0.0002,-0.00046,0.0004,-0.00049,-8e-05,-1e-05,4,21
18954,-4e-05,-7e-05,-0.0002,-0.00046,0.0004,-0.00049,-8e-05,-1e-05,4,21
18955,-4e-05,-7e-05,-0.0002,-0.00046,0.0004,-0.00049,-8e-05,-1e-05,4,21
18956,-4e-05,-7e-05,-0.0002,-0.00046,0.0004,-0.00049,-8e-05,-1e-05,4,21
18957,-4e-05,-7e-05,-0.0002,-0.00046,0.0004,-0.00049,-8e-05,-1e-05,4,21
18958,-4e-05,-7e-05,-0.0002,-0.00046,0.0004,-0.00049,-8e-05,-1e-05,4,21
18959,-4e-05,-7e-05,-0.0002,-0.00046,0.0004,-0.00049,-8e-05,-1e-05,4,21
18960,-4e-05,-7e-05,-0.0002,-0.00046,0.0004,-0.00049,-8e-05,-1e-05,4,21
18961,-4e-05,-7e-05,-0.0002,-0.00046,0.0004,-0.00049,-8e-05,-1e-05,4,21
18962,-4e-05,-7e-05,-0.0002,-0.00046,0.0004,-0.00049,-8e-05,-1e-05,4,21
18963,-4e-05,-7e-05,-0.0002,-0.00046,0.0004,-0.00049,-8e-05,-1e-05,4,21
18964,-4e-05,-7e-05,-0.0002,-0.00046,0.0004,-0.00049,-8e-05,-1e-05,4,21
18965,-4e-05,-7e-05,-0.0002,-0.00046,0.0004,-0.00049,-8e-05,-1e-05,4,21
18966,-4e-05,-7e-05,-0.0002,-0.00046,0.0004,-0.00049,-8e-05,-1e-05,4,21
18967,-4e-05,-7e-05,-0.0002,-0.00046,0.0004,-0.00049,-8e-05,-1e-05,4,21
18968,-6e-05,-0.00014,-0.00021,-0.00026,-0.00034,-5e-05,-7e-05,1e-05,4,21
18969,8e-05,0.00013,0.00027,0.0002,-0.0004,0.0001,0.00018,0.0001,4,21
18970,8e-05,0.00013,0.00027,0.0002,-0.0004,0.0001,0.00018,0.0001,4,21
18971,8e-05,0.00013,0.00027,0.0002,-0.0004,0.0001,0.00018,0.0001,4,21
18972,8e-05,0.00013,0.00027,0.0002,-0.0004,0.0001,0.00018,0.0001,4,21
18973,8e-05,0.00013,0.00027,0.0002,-0.0004,0.0001,0.00018,0.0001,4,21
18974,8e-05,0.00013,0.00027,0.0002,-0.0004,0.0001,0.00018,0.0001,4,21
18975,8e-05,0.00013,0.00027,0.0002,-0.0004,0.0001,0.00018,0.0001,4,21
18976,8e-05,0.00013,0.00027,0.0002,-0.0004,0.0001,0.00018,0.0001,4,21
18977,8e-05,0.00013,0.00027,0.0002,-0.0004,0.0001,0.00018,0.0001,4,21
18978,8e-05,0.00013,0.00027,0.0002,-0.0004,0.0001,0.00018,0.0001,4,21
18979,8e-05,0.00013,0.00027,0.0002,-0.0004,0.0001,0.00018,0.0001,4,21
18980,8e-05,0.00013,0.00027,0.0002,-0.0004,0.0001,0.00018,0.0001,4,21
18981,8e-05,0.00013,0.00027,0.0002,-0.0004,0.0001,0.00018,0.0001,4,21
18982,-1e-05,-5e-05,0,4e-05,-0.00064,4e-05,-0.0001,-2e-05,4,21
18983,-1e-05,-5e-05,0,4e-05,-0.00064,4e-05,-0.0001,-2e-05,4,21
18984,-1e-05,-5e-05,0,4e-05,-0.00064,4e-05,-0.0001,-2e-05,4,21
18985,-1e-05,-5e-05,0,4e-05,-0.00064,4e-05,-0.0001,-2e-05,4,21
18987,-1e-05,-5e-05,0,4e-05,-0.00064,4e-05,-0.0001,-2e-05,4,21
18989,1e-05,-3e-05,0,0.00045,0.00085,0.0002,4e-05,-2e-05,4,21
18990,1e-05,-3e-05,0,0.00045,0.00085,0.0002,4e-05,-2e-05,4,21
18991,1e-05,-3e-05,0,0.00045,0.00085,0.0002,4e-05,-2e-05,4,21
18992,1e-05,-3e-05,0,0.00045,0.00085,0.0002,4e-05,-2e-05,4,21
18993,1e-05,-3e-05,0,0.00045,0.00085,0.0002,4e-05,-2e-05,4,21
18994,1e-05,-3e-05,0,0.00045,0.00085,0.0002,4e-05,-2e-05,4,21
18995,1e-05,-3e-05,0,0.00045,0.00085,0.0002,4e-05,-2e-05,4,21
18996,1e-05,-3e-05,0,0.00045,0.00085,0.0002,4e-05,-2e-05,4,21
18997,1e-05,-3e-05,0,0.00045,0.00085,0.0002,4e-05,-2e-05,4,21
18998,1e-05,-3e-05,0,0.00045,0.00085,0.0002,4e-05,-2e-05,4,21
18999,1e-05,-3e-05,0,0.00045,0.00085,0.0002,4e-05,-2e-05,4,21
19000,1e-05,-3e-05,0,0.00045,0.00085,0.0002,4e-05,-2e-05,4,21
19001,1e-05,-3e-05,0,0.00045,0.00085,0.0002,4e-05,-2e-05,4,21
19002,1e-05,-3e-05,0,0.00045,0.00085,0.0002,4e-05,-2e-05,4,21
19003,1e-05,-3e-05,0,0.00045,0.00085,0.0002,4e-05,-2e-05,4,21
19004,1e-05,-3e-05,0,0.00045,0.00085,0.0002,4e-05,-2e-05,4,21
19005,1e-05,-3e-05,0,0.00045,0.00085,0.0002,4e-05,-2e-05,4,21
19006,4e-05,0.0001,0.00014,0.00077,-0.00092,0.00054,0.00017,8e-05,4,21
19007,-5e-05,-7e-05,-0.0001,-0.0005,0.00014,9e-05,-0.00014,-0.00011,4,21
19008,-5e-05,-7e-05,-0.0001,-0.0005,0.00014,9e-05,-0.00014,-0.00011,4,21
19009,-5e-05,-7e-05,-0.0001,-0.0005,0.00014,9e-05,-0.00014,-0.00011,4,21
19010,-5e-05,-7e-05,-0.0001,-0.0005,0.00014,9e-05,-0.00014,-0.00011,4,21
19011,-5e-05,-7e-05,-0.0001,-0.0005,0.00014,9e-05,-0.00014,-0.00011,4,21
19012,-5e-05,-7e-05,-0.0001,-0.0005,0.00014,9e-05,-0.00014,-0.00011,4,21
19013,-5e-05,-7e-05,-0.0001,-0.0005,0.00014,9e-05,-0.00014,-0.00011,4,21
19014,-5e-05,-7e-05,-0.0001,-0.0005,0.00014,9e-05,-0.00014,-0.00011,4,21
19015,-5e-05,-7e-05,-0.0001,-0.0005,0.00014,9e-05,-0.00014,-0.00011,4,21
19016,-5e-05,-7e-05,-0.0001,-0.0005,0.00014,9e-05,-0.00014,-0.00011,4,21
19017,-5e-05,-7e-05,-0.0001,-0.0005,0.00014,9e-05,-0.00014,-0.00011,4,21
19018,-5e-05,-7e-05,-0.0001,-0.0005,0.00014,9e-05,-0.00014,-0.00011,4,21
19019,-5e-05,-7e-05,-0.0001,-0.0005,0.00014,9e-05,-0.00014,-0.00011,4,21
19020,-5e-05,-7e-05,-0.0001,-0.0005,0.00014,9e-05,-0.00014,-0.00011,4,21
19021,-5e-05,-7e-05,-0.0001,-0.0005,0.00014,9e-05,-0.00014,-0.00011,4,21
19022,-5e-05,-7e-05,-0.0001,-0.0005,0.00014,9e-05,-0.00014,-0.00011,4,21
19023,-5e-05,-7e-05,-0.0001,-0.0005,0.00014,9e-05,-0.00014,-0.00011,4,21
19024,-5e-05,-7e-05,-0.0001,-0.0005,0.00014,9e-05,-0.00014,-0.00011,4,21
19025,-5e-05,-7e-05,-0.0001,-0.0005,0.00014,9e-05,-0.00014,-0.00011,4,21
19026,-5e-05,-7e-05,-0.0001,-0.0005,0.00014,9e-05,-0.00014,-0.00011,4,21
19027,-5e-05,-7e-05,-0.0001,-0.0005,0.00014,9e-05,-0.00014,-0.00011,4,21
19028,9e-05,0.00011,0.00025,0.00126,0.00101,-0.0001,0.00014,0.00015,4,21
19029,7e-05,0.00013,4e-05,-0.0004,-0.00099,0.00025,-8e-05,0.00016,4,21
19030,7e-05,0.00013,4e-05,-0.0004,-0.00099,0.00025,-8e-05,0.00016,4,21
19031,7e-05,0.00013,4e-05,-0.0004,-0.00099,0.00025,-8e-05,0.00016,4,21
19032,7e-05,0.00013,4e-05,-0.0004,-0.00099,0.00025,-8e-05,0.00016,4,21
19033,7e-05,0.00013,4e-05,-0.0004,-0.00099,0.00025,-8e-05,0.00016,4,21
19034,7e-05,0.00013,4e-05,-0.0004,-0.00099,0.00025,-8e-05,0.00016,4,21
19035,7e-05,0.00013,4e-05,-0.0004,-0.00099,0.00025,-8e-05,0.00016,4,21
19037,7e-05,0.00013,4e-05,-0.0004,-0.00099,0.00025,-8e-05,0.00016,4,21
19039,7e-05,0.00013,4e-05,-0.0004,-0.00099,0.00025,-8e-05,0.00016,4,21
19040,7e-05,0.00013,4e-05,-0.0004,-0.00099,0.00025,-8e-05,0.00016,4,21
19041,7e-05,0.00013,4e-05,-0.0004,-0.00099,0.00025,-8e-05,0.00016,4,21
19042,-7e-05,-0.00011,-0.00019,-0.00031,0.00067,-0.00018,-0.00019,-0.00012,4,21
19043,-7e-05,-0.00011,-0.00019,-0.00031,0.00067,-0.00018,-0.00019,-0.00012,4,21
19044,-7e-05,-0.00011,-0.00019,-0.00031,0.00067,-0.00018,-0.00019,-0.00012,4,21
19045,-7e-05,-0.00011,-0.00019,-0.00031,0.00067,-0.00018,-0.00019,-0.00012,4,21
19046,-7e-05,-0.00011,-0.00019,-0.00031,0.00067,-0.00018,-0.00019,-0.00012,4,21
19047,-7e-05,-0.00011,-0.00019,-0.00031,0.00067,-0.00018,-0.00019,-0.00012,4,21
19048,-7e-05,-0.00011,-0.00019,-0.00031,0.00067,-0.00018,-0.00019,-0.00012,4,21
19049,-0.0001,-0.00011,-9e-05,0.00017,0.00041,0.00112,1e-05,-9e-05,4,21
19050,-0.0001,-0.00011,-9e-05,0.00017,0.00041,0.00112,1e-05,-9e-05,4,21
19051,-0.0001,-0.00011,-9e-05,0.00017,0.00041,0.00112,1e-05,-9e-05,4,21
19052,-0.0001,-0.00011,-9e-05,0.00017,0.00041,0.00112,1e-05,-9e-05,4,21
19053,-0.0001,-0.00011,-9e-05,0.00017,0.00041,0.00112,1e-05,-9e-05,4,21
19054,-0.0001,-0.00011,-9e-05,0.00017,0.00041,0.00112,1e-05,-9e-05,4,21
19055,-0.0001,-0.00011,-9e-05,0.00017,0.00041,0.00112,1e-05,-9e-05,4,21
19056,-0.0001,-0.00011,-9e-05,0.00017,0.00041,0.00112,1e-05,-9e-05,4,21
19057,-0.0001,-0.00011,-9e-05,0.00017,0.00041,0.00112,1e-05,-9e-05,4,21
19058,-0.0001,-0.00011,-9e-05,0.00017,0.00041,0.00112,1e-05,-9e-05,4,21
19059,-0.0001,-0.00011,-9e-05,0.00017,0.00041,0.00112,1e-05,-9e-05,4,21
19060,-0.0001,-0.00011,-9e-05,0.00017,0.00041,0.00112,1e-05,-9e-05,4,21
19061,-0.0001,-0.00011,-9e-05,0.00017,0.00041,0.00112,1e-05,-9e-05,4,21
19062,-0.0001,-0.00011,-9e-05,0.00017,0.00041,0.00112,1e-05,-9e-05,4,21
19063,-0.0001,-0.00011,-9e-05,0.00017,0.00041,0.00112,1e-05,-9e-05,4,21
19064,-0.0001,-0.00011,-9e-05,0.00017,0.00041,0.00112,1e-05,-9e-05,4,21
19065,7e-05,8e-05,0.00014,0.00028,-0.00064,0.00053,0.00023,0.00013,4,21
19066,7e-05,8e-05,0.00014,0.00028,-0.00064,0.00053,0.00023,0.00013,4,21
19067,0,4e-05,4e-05,0.00049,0.00081,-0.00016,6e-05,-2e-05,4,21
19068,0,4e-05,4e-05,0.00049,0.00081,-0.00016,6e-05,-2e-05,4,21
19069,0,4e-05,4e-05,0.00049,0.00081,-0.00016,6e-05,-2e-05,4,21
19070,0,4e-05,4e-05,0.00049,0.00081,-0.00016,6e-05,-2e-05,4,21
19071,0,4e-05,4e-05,0.00049,0.00081,-0.00016,6e-05,-2e-05,4,21
19072,0,4e-05,4e-05,0.00049,0.00081,-0.00016,6e-05,-2e-05,4,21
19073,0,4e-05,4e-05,0.00049,0.00081,-0.00016,6e-05,-2e-05,4,21
19074,0,4e-05,4e-05,0.00049,0.00081,-0.00016,6e-05,-2e-05,4,21
19075,0,4e-05,4e-05,0.00049,0.00081,-0.00016,6e-05,-2e-05,4,21
19076,0,4e-05,4e-05,0.00049,0.00081,-0.00016,6e-05,-2e-05,4,21
19077,0,4e-05,4e-05,0.00049,0.00081,-0.00016,6e-05,-2e-05,4,21
19078,0,4e-05,4e-05,0.00049,0.00081,-0.00016,6e-05,-2e-05,4,21
19079,0,4e-05,4e-05,0.00049,0.00081,-0.00016,6e-05,-2e-05,4,21
19080,0,4e-05,4e-05,0.00049,0.00081,-0.00016,6e-05,-2e-05,4,21
19081,0,4e-05,4e-05,0.00049,0.00081,-0.00016,6e-05,-2e-05,4,21
19082,0,4e-05,4e-05,0.00049,0.00081,-0.00016,6e-05,-2e-05,4,21
19083,0,4e-05,4e-05,0.00049,0.00081,-0.00016,6e-05,-2e-05,4,21
19084,0,4e-05,4e-05,0.00049,0.00081,-0.00016,6e-05,-2e-05,4,21
19085,0,4e-05,4e-05,0.00049,0.00081,-0.00016,6e-05,-2e-05,4,21
19087,0,4e-05,4e-05,0.00049,0.00081,-0.00016,6e-05,-2e-05,4,21
19089,-8e-05,-0.00012,-0.00018,-0.00014,-0.00058,-0.00038,-7e-05,-4e-05,4,21
19090,-2e-05,-2e-05,-5e-05,0.0006,-0.00097,-0.00041,-5e-05,-0.0001,4,21
19091,-2e-05,-2e-05,-5e-05,0.0006,-0.00097,-0.00041,-5e-05,-0.0001,4,21
19092,-2e-05,-2e-05,-5e-05,0.0006,-0.00097,-0.00041,-5e-05,-0.0001,4,21
19093,-2e-05,-2e-05,-5e-05,0.0006,-0.00097,-0.00041,-5e-05,-0.0001,4,21
19094,-2e-05,-2e-05,-5e-05,0.0006,-0.00097,-0.00041,-5e-05,-0.0001,4,21
19095,-2e-05,-2e-05,-5e-05,0.0006,-0.00097,-0.00041,-5e-05,-0.0001,4,21
19096,-2e-05,-2e-05,-5e-05,0.0006,-0.00097,-0.00041,-5e-05,-0.0001,4,21
19097,-2e-05,-2e-05,-5e-05,0.0006,-0.00097,-0.00041,-5e-05,-0.0001,4,21
19098,-2e-05,-2e-05,-5e-05,0.0006,-0.00097,-0.00041,-5e-05,-0.0001,4,21
19099,-2e-05,-2e-05,-5e-05,0.0006,-0.00097,-0.00041,-5e-05,-0.0001,4,21
19100,-2e-05,-2e-05,-5e-05,0.0006,-0.00097,-0.00041,-5e-05,-0.0001,4,21
19101,-2e-05,-2e-05,-5e-05,0.0006,-0.00097,-0.00041,-5e-05,-0.0001,4,21
19102,-0.0001,-0.00016,-0.00024,-2e-05,-0.00128,-0.00034,-0.00024,-5e-05,4,21
19103,-0.0001,-0.00016,-0.00024,-2e-05,-0.00128,-0.00034,-0.00024,-5e-05,4,21
19104,-0.0001,-0.00016,-0.00024,-2e-05,-0.00128,-0.00034,-0.00024,-5e-05,4,21
19105,-0.0001,-0.00016,-0.00024,-2e-05,-0.00128,-0.00034,-0.00024,-5e-05,4,21
19106,-0.0001,-0.00016,-0.00024,-2e-05,-0.00128,-0.00034,-0.00024,-5e-05,4,21
19107,-0.0001,-0.00016,-0.00024,-2e-05,-0.00128,-0.00034,-0.00024,-5e-05,4,21
19108,-0.0001,-0.00016,-0.00024,-2e-05,-0.00128,-0.00034,-0.00024,-5e-05,4,21
19109,-5e-05,-0.00011,-7e-05,-0.00021,-0.00018,-0.00077,-4e-05,1e-05,4,21
19110,-5e-05,-0.00011,-7e-05,-0.00021,-0.00018,-0.00077,-4e-05,1e-05,4,21
19111,-5e-05,-0.00011,-7e-05,-0.00021,-0.00018,-0.00077,-4e-05,1e-05,4,21
19112,-5e-05,-0.00011,-7e-05,-0.00021,-0.00018,-0.00077,-4e-05,1e-05,4,21
19113,-5e-05,-0.00011,-7e-05,-0.00021,-0.00018,-0.00077,-4e-05,1e-05,4,21
19114,-5e-05,-0.00011,-7e-05,-0.00021,-0.00018,-0.00077,-4e-05,1e-05,4,21
19115,-5e-05,-0.00011,-7e-05,-0.00021,-0.00018,-0.00077,-4e-05,1e-05,4,21
19116,-5e-05,-0.00011,-7e-05,-0.00021,-0.00018,-0.00077,-4e-05,1e-05,4,21
19117,-5e-05,-0.00011,-7e-05,-0.00021,-0.00018,-0.00077,-4e-05,1e-05,4,21
19118,-5e-05,-0.00011,-7e-05,-0.00021,-0.00018,-0.00077,-4e-05,1e-05,4,21
19119,-5e-05,-0.00011,-7e-05,-0.00021,-0.00018,-0.00077,-4e-05,1e-05,4,21
19120,-5e-05,-0.00011,-7e-05,-0.00021,-0.00018,-0.00077,-4e-05,1e-05,4,21
19121,-5e-05,-0.00011,-7e-05,-0.00021,-0.00018,-0.00077,-4e-05,1e-05,4,21
19122,-5e-05,-0.00011,-7e-05,-0.00021,-0.00018,-0.00077,-4e-05,1e-05,4,21
19123,-5e-05,-0.00011,-7e-05,-0.00021,-0.00018,-0.00077,-4e-05,1e-05,4,21
19124,-5e-05,-0.00011,-7e-05,-0.00021,-0.00018,-0.00077,-4e-05,1e-05,4,21
19125,1e-05,4e-05,8e-05,-0.00077,0.00114,0.00035,-4e-05,-0.00015,4,21
19126,1e-05,4e-05,8e-05,-0.00077,0.00114,0.00035,-4e-05,-0.00015,4,21
19127,1e-05,0,-8e-05,-0.00044,-0.00031,-7e-05,6e-05,5e-05,4,21
19128,1e-05,0,-8e-05,-0.00044,-0.00031,-7e-05,6e-05,5e-05,4,21
19129,1e-05,0,-8e-05,-0.00044,-0.00031,-7e-05,6e-05,5e-05,4,21
19130,1e-05,0,-8e-05,-0.00044,-0.00031,-7e-05,6e-05,5e-05,4,21
19131,1e-05,0,-8e-05,-0.00044,-0.00031,-7e-05,6e-05,5e-05,4,21
19132,1e-05,0,-8e-05,-0.00044,-0.00031,-7e-05,6e-05,5e-05,4,21
19133,1e-05,0,-8e-05,-0.00044,-0.00031,-7e-05,6e-05,5e-05,4,21
19134,1e-05,0,-8e-05,-0.00044,-0.00031,-7e-05,6e-05,5e-05,4,21
19135,1e-05,0,-8e-05,-0.00044,-0.00031,-7e-05,6e-05,5e-05,4,21
19137,1e-05,0,-8e-05,-0.00044,-0.00031,-7e-05,6e-05,5e-05,4,21
19139,1e-05,0,-8e-05,-0.00044,-0.00031,-7e-05,6e-05,5e-05,4,21
19140,1e-05,0,-8e-05,-0.00044,-0.00031,-7e-05,6e-05,5e-05,4,21
19141,1e-05,0,-8e-05,-0.00044,-0.00031,-7e-05,6e-05,5e-05,4,21
19142,1e-05,0,-8e-05,-0.00044,-0.00031,-7e-05,6e-05,5e-05,4,21
19143,1e-05,0,-8e-05,-0.00044,-0.00031,-7e-05,6e-05,5e-05,4,21
19145,1e-05,0,-8e-05,-0.00044,-0.00031,-7e-05,6e-05,5e-05,4,21
19146,1e-05,0,-8e-05,-0.00044,-0.00031,-7e-05,6e-05,5e-05,4,21
19147,1e-05,0,-8e-05,-0.00044,-0.00031,-7e-05,6e-05,5e-05,4,21
19148,6e-05,-1e-05,0.00016,-7e-05,0.00026,0.00064,0.00012,8e-05,4,21
19149,1e-05,-1e-05,0,-0.00024,-0.00036,0.00046,3e-05,2e-05,4,21
19150,-2e-05,-3e-05,-1e-05,-0.00023,-1e-05,0.00014,-0.0001,-9e-05,4,21
19151,-2e-05,-3e-05,-1e-05,-0.00023,-1e-05,0.00014,-0.0001,-9e-05,4,21
19152,-2e-05,-3e-05,-1e-05,-0.00023,-1e-05,0.00014,-0.0001,-9e-05,4,21
19153,-2e-05,-3e-05,-1e-05,-0.00023,-1e-05,0.00014,-0.0001,-9e-05,4,21
19154,-2e-05,-3e-05,-1e-05,-0.00023,-1e-05,0.00014,-0.0001,-9e-05,4,21
19155,-2e-05,-3e-05,-1e-05,-0.00023,-1e-05,0.00014,-0.0001,-9e-05,4,21
19156,-2e-05,-3e-05,-1e-05,-0.00023,-1e-05,0.00014,-0.0001,-9e-05,4,21
19157,-2e-05,-3e-05,-1e-05,-0.00023,-1e-05,0.00014,-0.0001,-9e-05,4,21
19158,-2e-05,-3e-05,-1e-05,-0.00023,-1e-05,0.00014,-0.0001,-9e-05,4,21
19159,-2e-05,-3e-05,-1e-05,-0.00023,-1e-05,0.00014,-0.0001,-9e-05,4,21
19160,-2e-05,-3e-05,-1e-05,-0.00023,-1e-05,0.00014,-0.0001,-9e-05,4,21
19161,-2e-05,-3e-05,-1e-05,-0.00023,-1e-05,0.00014,-0.0001,-9e-05,4,21
19162,-3e-05,0,-5e-05,-0.00037,-0.00091,0.00068,3e-05,-0.00012,4,21
19163,-3e-05,0,-5e-05,-0.00037,-0.00091,0.00068,3e-05,-0.00012,4,21
19164,-3e-05,0,-5e-05,-0.00037,-0.00091,0.00068,3e-05,-0.00012,4,21
19165,-3e-05,0,-5e-05,-0.00037,-0.00091,0.00068,3e-05,-0.00012,4,21
19166,-3e-05,0,-5e-05,-0.00037,-0.00091,0.00068,3e-05,-0.00012,4,21
19167,-3e-05,0,-5e-05,-0.00037,-0.00091,0.00068,3e-05,-0.00012,4,21
19168,-3e-05,0,-5e-05,-0.00037,-0.00091,0.00068,3e-05,-0.00012,4,21
19169,-6e-05,-9e-05,-0.00012,0.00033,-0.00098,-0.00068,-9e-05,-2e-05,4,21
19170,-6e-05,-9e-05,-0.00012,0.00033,-0.00098,-0.00068,-9e-05,-2e-05,4,21
19171,-6e-05,-9e-05,-0.00012,0.00033,-0.00098,-0.00068,-9e-05,-2e-05,4,21
19172,-6e-05,-9e-05,-0.00012,0.00033,-0.00098,-0.00068,-9e-05,-2e-05,4,21
19173,-6e-05,-9e-05,-0.00012,0.00033,-0.00098,-0.00068,-9e-05,-2e-05,4,21
19174,-6e-05,-9e-05,-0.00012,0.00033,-0.00098,-0.00068,-9e-05,-2e-05,4,21
19175,-6e-05,-9e-05,-0.00012,0.00033,-0.00098,-0.00068,-9e-05,-2e-05,4,21
19176,-6e-05,-9e-05,-0.00012,0.00033,-0.00098,-0.00068,-9e-05,-2e-05,4,21
19177,-6e-05,-9e-05,-0.00012,0.00033,-0.00098,-0.00068,-9e-05,-2e-05,4,21
19178,-6e-05,-9e-05,-0.00012,0.00033,-0.00098,-0.00068,-9e-05,-2e-05,4,21
19179,-6e-05,-9e-05,-0.00012,0.00033,-0.00098,-0.00068,-9e-05,-2e-05,4,21
19180,-6e-05,-9e-05,-0.00012,0.00033,-0.00098,-0.00068,-9e-05,-2e-05,4,21
19181,-6e-05,-9e-05,-0.00012,0.00033,-0.00098,-0.00068,-9e-05,-2e-05,4,21
19182,-6e-05,-9e-05,-0.00012,0.00033,-0.00098,-0.00068,-9e-05,-2e-05,4,21
19183,-6e-05,-9e-05,-0.00012,0.00033,-0.00098,-0.00068,-9e-05,-2e-05,4,21
19184,-6e-05,-9e-05,-0.00012,0.00033,-0.00098,-0.00068,-9e-05,-2e-05,4,21
19185,7e-05,0.00013,0.00021,0.00097,-0.0002,-0.00017,0.00011,8e-05,4,21
19187,5e-05,9e-05,0.00014,0.00012,5e-05,0.0004,0.00011,5e-05,4,21
19189,5e-05,9e-05,0.00014,0.00012,5e-05,0.0004,0.00011,5e-05,4,21
19190,5e-05,9e-05,0.00014,0.00012,5e-05,0.0004,0.00011,5e-05,4,21
19191,5e-05,9e-05,0.00014,0.00012,5e-05,0.0004,0.00011,5e-05,4,21
19192,5e-05,9e-05,0.00014,0.00012,5e-05,0.0004,0.00011,5e-05,4,21
19193,5e-05,9e-05,0.00014,0.00012,5e-05,0.0004,0.00011,5e-05,4,21
19194,5e-05,9e-05,0.00014,0.00012,5e-05,0.0004,0.00011,5e-05,4,21
19195,5e-05,9e-05,0.00014,0.00012,5e-05,0.0004,0.00011,5e-05,4,21
19196,5e-05,9e-05,0.00014,0.00012,5e-05,0.0004,0.00011,5e-05,4,21
19197,5e-05,9e-05,0.00014,0.00012,5e-05,0.0004,0.00011,5e-05,4,21
19198,5e-05,9e-05,0.00014,0.00012,5e-05,0.0004,0.00011,5e-05,4,21
19199,5e-05,9e-05,0.00014,0.00012,5e-05,0.0004,0.00011,5e-05,4,21
19200,5e-05,9e-05,0.00014,0.00012,5e-05,0.0004,0.00011,5e-05,4,21
19201,5e-05,9e-05,0.00014,0.00012,5e-05,0.0004,0.00011,5e-05,4,21
19202,5e-05,9e-05,0.00014,0.00012,5e-05,0.0004,0.00011,5e-05,4,21
19203,5e-05,9e-05,0.00014,0.00012,5e-05,0.0004,0.00011,5e-05,4,21
19204,5e-05,9e-05,0.00014,0.00012,5e-05,0.0004,0.00011,5e-05,4,21
19205,5e-05,9e-05,0.00014,0.00012,5e-05,0.0004,0.00011,5e-05,4,21
19206,5e-05,9e-05,0.00014,0.00012,5e-05,0.0004,0.00011,5e-05,4,21
19207,5e-05,9e-05,0.00014,0.00012,5e-05,0.0004,0.00011,5e-05,4,21
19208,-5e-05,-8e-05,-9e-05,-0.0002,-1e-05,0.00012,-0.0001,-4e-05,4,21
19209,-5e-05,-7e-05,-0.00014,-0.0006,-0.00073,-0.00096,-7e-05,3e-05,4,21
19210,-2e-05,-3e-05,-0.00012,-0.00068,5e-05,-0.00024,2e-05,4e-05,4,21
19211,-2e-05,-3e-05,-0.00012,-0.00068,5e-05,-0.00024,2e-05,4e-05,4,21
19212,-2e-05,-3e-05,-0.00012,-0.00068,5e-05,-0.00024,2e-05,4e-05,4,21
19213,-2e-05,-3e-05,-0.00012,-0.00068,5e-05,-0.00024,2e-05,4e-05,4,21
19214,-2e-05,-3e-05,-0.00012,-0.00068,5e-05,-0.00024,2e-05,4e-05,4,21
19215,-2e-05,-3e-05,-0.00012,-0.00068,5e-05,-0.00024,2e-05,4e-05,4,21
19216,-2e-05,-3e-05,-0.00012,-0.00068,5e-05,-0.00024,2e-05,4e-05,4,21
19217,-2e-05,-3e-05,-0.00012,-0.00068,5e-05,-0.00024,2e-05,4e-05,4,21
19218,-2e-05,-3e-05,-0.00012,-0.00068,5e-05,-0.00024,2e-05,4e-05,4,21
19219,-2e-05,-3e-05,-0.00012,-0.00068,5e-05,-0.00024,2e-05,4e-05,4,21
19220,-2e-05,-3e-05,-0.00012,-0.00068,5e-05,-0.00024,2e-05,4e-05,4,21
19221,-2e-05,-3e-05,-0.00012,-0.00068,5e-05,-0.00024,2e-05,4e-05,4,21
19222,9e-05,0.00016,0.00024,-1e-05,0.00115,-0.00054,1e-05,0.00018,4,21
19223,9e-05,0.00016,0.00024,-1e-05,0.00115,-0.00054,1e-05,0.00018,4,21
19224,9e-05,0.00016,0.00024,-1e-05,0.00115,-0.00054,1e-05,0.00018,4,21
19225,9e-05,0.00016,0.00024,-1e-05,0.00115,-0.00054,1e-05,0.00018,4,21
19226,9e-05,0.00016,0.00024,-1e-05,0.00115,-0.00054,1e-05,0.00018,4,21
19227,9e-05,0.00016,0.00024,-1e-05,0.00115,-0.00054,1e-05,0.00018,4,21
19228,9e-05,0.00016,0.00024,-1e-05,0.00115,-0.00054,1e-05,0.00018,4,21
19229,-1e-05,-6e-05,1e-05,-5e-05,-0.00046,0.00029,4e-05,-2e-05,4,21
19230,-1e-05,-6e-05,1e-05,-5e-05,-0.00046,0.00029,4e-05,-2e-05,4,21
19231,-1e-05,-6e-05,1e-05,-5e-05,-0.00046,0.00029,4e-05,-2e-05,4,21
19232,-1e-05,-6e-05,1e-05,-5e-05,-0.00046,0.00029,4e-05,-2e-05,4,21
19233,-1e-05,-6e-05,1e-05,-5e-05,-0.00046,0.00029,4e-05,-2e-05,4,21
19234,-1e-05,-6e-05,1e-05,-5e-05,-0.00046,0.00029,4e-05,-2e-05,4,21
19235,-1e-05,-6e-05,1e-05,-5e-05,-0.00046,0.00029,4e-05,-2e-05,4,21
19237,-1e-05,-6e-05,1e-05,-5e-05,-0.00046,0.00029,4e-05,-2e-05,4,21
19239,-1e-05,-6e-05,1e-05,-5e-05,-0.00046,0.00029,4e-05,-2e-05,4,21
19240,-1e-05,-6e-05,1e-05,-5e-05,-0.00046,0.00029,4e-05,-2e-05,4,21
19241,-1e-05,-6e-05,1e-05,-5e-05,-0.00046,0.00029,4e-05,-2e-05,4,21
19242,-1e-05,-6e-05,1e-05,-5e-05,-0.00046,0.00029,4e-05,-2e-05,4,21
19243,-1e-05,-6e-05,1e-05,-5e-05,-0.00046,0.00029,4e-05,-2e-05,4,21
19244,-1e-05,-6e-05,1e-05,-5e-05,-0.00046,0.00029,4e-05,-2e-05,4,21
19245,1e-05,-2e-05,5e-05,-0.00018,0.0003,-0.00032,5e-05,5e-05,4,21
19246,1e-05,-2e-05,5e-05,-0.00018,0.0003,-0.00032,5e-05,5e-05,4,21
19247,-2e-05,-1e-05,-5e-05,-0.00082,-0.00054,0.00074,-8e-05,-5e-05,4,21
19248,-2e-05,-1e-05,-5e-05,-0.00082,-0.00054,0.00074,-8e-05,-5e-05,4,21
19249,-2e-05,-1e-05,-5e-05,-0.00082,-0.00054,0.00074,-8e-05,-5e-05,4,21
19250,-2e-05,-1e-05,-5e-05,-0.00082,-0.00054,0.00074,-8e-05,-5e-05,4,21
19251,-2e-05,-1e-05,-5e-05,-0.00082,-0.00054,0.00074,-8e-05,-5e-05,4,21
19252,-2e-05,-1e-05,-5e-05,-0.00082,-0.00054,0.00074,-8e-05,-5e-05,4,21
19253,-2e-05,-1e-05,-5e-05,-0.00082,-0.00054,0.00074,-8e-05,-5e-05,4,21
19254,-2e-05,-1e-05,-5e-05,-0.00082,-0.00054,0.00074,-8e-05,-5e-05,4,21
19255,-2e-05,-1e-05,-5e-05,-0.00082,-0.00054,0.00074,-8e-05,-5e-05,4,21
19256,-2e-05,-1e-05,-5e-05,-0.00082,-0.00054,0.00074,-8e-05,-5e-05,4,21
19257,-2e-05,-1e-05,-5e-05,-0.00082,-0.00054,0.00074,-8e-05,-5e-05,4,21
19258,-2e-05,-1e-05,-5e-05,-0.00082,-0.00054,0.00074,-8e-05,-5e-05,4,21
19259,-2e-05,-1e-05,-5e-05,-0.00082,-0.00054,0.00074,-8e-05,-5e-05,4,21
19260,-2e-05,-1e-05,-5e-05,-0.00082,-0.00054,0.00074,-8e-05,-5e-05,4,21
19261,-2e-05,-1e-05,-5e-05,-0.00082,-0.00054,0.00074,-8e-05,-5e-05,4,21
19262,-2e-05,-1e-05,-5e-05,-0.00082,-0.00054,0.00074,-8e-05,-5e-05,4,21
19263,-2e-05,-1e-05,-5e-05,-0.00082,-0.00054,0.00074,-8e-05,-5e-05,4,21
19264,-2e-05,-1e-05,-5e-05,-0.00082,-0.00054,0.00074,-8e-05,-5e-05,4,21
19265,-2e-05,-1e-05,-5e-05,-0.00082,-0.00054,0.00074,-8e-05,-5e-05,4,21
19266,-2e-05,-1e-05,-5e-05,-0.00082,-0.00054,0.00074,-8e-05,-5e-05,4,21
19267,-2e-05,-1e-05,-5e-05,-0.00082,-0.00054,0.00074,-8e-05,-5e-05,4,21
19268,-6e-05,-0.00014,-0.00022,0.00017,0.00015,-0.00026,-0.0001,-0.00014,4,21
19273,-6e-05,-0.00014,-0.00022,0.00017,0.00015,-0.00026,-0.0001,-0.00014,4,21
19274,0,-3e-05,-4e-05,-8e-05,-3e-05,0,0,-9e-05,4,21
19275,0,-3e-05,-4e-05,-8e-05,-3e-05,0,0,-9e-05,4,21
19276,0,-3e-05,-4e-05,-8e-05,-3e-05,0,0,-9e-05,4,21
19277,0,-3e-05,-4e-05,-8e-05,-3e-05,0,0,-9e-05,4,21
19278,0,-3e-05,-4e-05,-8e-05,-3e-05,0,0,-9e-05,4,21
19279,0,-3e-05,-4e-05,-8e-05,-3e-05,0,0,-9e-05,4,21
19280,0,-3e-05,-4e-05,-8e-05,-3e-05,0,0,-9e-05,4,21
19281,0,-3e-05,-4e-05,-8e-05,-3e-05,0,0,-9e-05,4,21
19282,-0.00011,-0.00014,-0.00025,-0.00041,-0.00128,-0.00116,-0.00023,-0.00012,4,21
19283,-0.00011,-0.00014,-0.00025,-0.00041,-0.00128,-0.00116,-0.00023,-0.00012,4,21
19284,-0.00011,-0.00014,-0.00025,-0.00041,-0.00128,-0.00116,-0.00023,-0.00012,4,21
19285,-0.00011,-0.00014,-0.00025,-0.00041,-0.00128,-0.00116,-0.00023,-0.00012,4,21
19287,-0.00011,-0.00014,-0.00025,-0.00041,-0.00128,-0.00116,-0.00023,-0.00012,4,21
19289,7e-05,0.00015,0.00025,0.00053,-0.00066,-0.00079,-0.00014,7e-05,4,21
19290,7e-05,0.00015,0.00025,0.00053,-0.00066,-0.00079,-0.00014,7e-05,4,21
19291,7e-05,0.00015,0.00025,0.00053,-0.00066,-0.00079,-0.00014,7e-05,4,21
19292,7e-05,0.00015,0.00025,0.00053,-0.00066,-0.00079,-0.00014,7e-05,4,21
19293,7e-05,0.00015,0.00025,0.00053,-0.00066,-0.00079,-0.00014,7e-05,4,21
19294,7e-05,0.00015,0.00025,0.00053,-0.00066,-0.00079,-0.00014,7e-05,4,21
19295,7e-05,0.00015,0.00025,0.00053,-0.00066,-0.00079,-0.00014,7e-05,4,21
19296,7e-05,0.00015,0.00025,0.00053,-0.00066,-0.00079,-0.00014,7e-05,4,21
19297,7e-05,0.00015,0.00025,0.00053,-0.00066,-0.00079,-0.00014,7e-05,4,21
19298,7e-05,0.00015,0.00025,0.00053,-0.00066,-0.00079,-0.00014,7e-05,4,21
19299,7e-05,0.00015,0.00025,0.00053,-0.00066,-0.00079,-0.00014,7e-05,4,21
19300,7e-05,0.00015,0.00025,0.00053,-0.00066,-0.00079,-0.00014,7e-05,4,21
19301,7e-05,0.00015,0.00025,0.00053,-0.00066,-0.00079,-0.00014,7e-05,4,21
19302,7e-05,0.00015,0.00025,0.00053,-0.00066,-0.00079,-0.00014,7e-05,4,21
19303,7e-05,0.00015,0.00025,0.00053,-0.00066,-0.00079,-0.00014,7e-05,4,21
19304,7e-05,0.00015,0.00025,0.00053,-0.00066,-0.00079,-0.00014,7e-05,4,21
19305,-6e-05,-6e-05,-8e-05,-0.00028,-0.0001,-0.00028,-6e-05,-1e-05,4,21
19306,-6e-05,-6e-05,-8e-05,-0.00028,-0.0001,-0.00028,-6e-05,-1e-05,4,21
19307,2e-05,8e-05,0.0001,0.00032,-0.00041,-0.00055,1e-05,3e-05,4,21
19308,2e-05,8e-05,0.0001,0.00032,-0.00041,-0.00055,1e-05,3e-05,4,21
19309,2e-05,8e-05,0.0001,0.00032,-0.00041,-0.00055,1e-05,3e-05,4,21
19310,2e-05,8e-05,0.0001,0.00032,-0.00041,-0.00055,1e-05,3e-05,4,21
19311,2e-05,8e-05,0.0001,0.00032,-0.00041,-0.00055,1e-05,3e-05,4,21
19312,2e-05,8e-05,0.0001,0.00032,-0.00041,-0.00055,1e-05,3e-05,4,21
19313,2e-05,8e-05,0.0001,0.00032,-0.00041,-0.00055,1e-05,3e-05,4,21
19314,2e-05,8e-05,0.0001,0.00032,-0.00041,-0.00055,1e-05,3e-05,4,21
19315,2e-05,8e-05,0.0001,0.00032,-0.00041,-0.00055,1e-05,3e-05,4,21
19316,2e-05,8e-05,0.0001,0.00032,-0.00041,-0.00055,1e-05,3e-05,4,21
19317,2e-05,8e-05,0.0001,0.00032,-0.00041,-0.00055,1e-05,3e-05,4,21
19318,2e-05,8e-05,0.0001,0.00032,-0.00041,-0.00055,1e-05,3e-05,4,21
19319,2e-05,8e-05,0.0001,0.00032,-0.00041,-0.00055,1e-05,3e-05,4,21
19320,2e-05,8e-05,0.0001,0.00032,-0.00041,-0.00055,1e-05,3e-05,4,21
19321,2e-05,8e-05,0.0001,0.00032,-0.00041,-0.00055,1e-05,3e-05,4,21
19322,2e-05,8e-05,0.0001,0.00032,-0.00041,-0.00055,1e-05,3e-05,4,21
19323,2e-05,8e-05,0.0001,0.00032,-0.00041,-0.00055,1e-05,3e-05,4,21
19324,2e-05,8e-05,0.0001,0.00032,-0.00041,-0.00055,1e-05,3e-05,4,21
19325,2e-05,8e-05,0.0001,0.00032,-0.00041,-0.00055,1e-05,3e-05,4,21
19326,2e-05,8e-05,0.0001,0.00032,-0.00041,-0.00055,1e-05,3e-05,4,21
19327,2e-05,8e-05,0.0001,0.00032,-0.00041,-0.00055,1e-05,3e-05,4,21
19328,2e-05,3e-05,6e-05,0.0002,0.00062,5e-05,0,-0.00013,4,21
19329,1e-05,3e-05,8e-05,-0.0003,0.00015,0.00023,3e-05,6e-05,4,21
19330,0,0,-1e-05,0.00035,0.00127,0.00015,0.00012,4e-05,4,21
19331,0,0,-1e-05,0.00035,0.00127,0.00015,0.00012,4e-05,4,21
19332,0,0,-1e-05,0.00035,0.00127,0.00015,0.00012,4e-05,4,21
19333,0,0,-1e-05,0.00035,0.00127,0.00015,0.00012,4e-05,4,21
19334,0,0,-1e-05,0.00035,0.00127,0.00015,0.00012,4e-05,4,21
19335,0,0,-1e-05,0.00035,0.00127,0.00015,0.00012,4e-05,4,21
19337,0,0,-1e-05,0.00035,0.00127,0.00015,0.00012,4e-05,4,21
19339,0,0,-1e-05,0.00035,0.00127,0.00015,0.00012,4e-05,4,21
19340,0,0,-1e-05,0.00035,0.00127,0.00015,0.00012,4e-05,4,21
19341,0,-2e-05,0,0,0.00027,4e-05,1e-05,-0.0001,4,21
19342,-8e-05,-0.00011,-0.00024,-0.00077,-0.00128,-0.00055,-0.00016,-5e-05,4,21
19343,-8e-05,-0.00011,-0.00024,-0.00077,-0.00128,-0.00055,-0.00016,-5e-05,4,21
19344,-8e-05,-0.00011,-0.00024,-0.00077,-0.00128,-0.00055,-0.00016,-5e-05,4,21
19345,-8e-05,-0.00011,-0.00024,-0.00077,-0.00128,-0.00055,-0.00016,-5e-05,4,21
19346,-8e-05,-0.00011,-0.00024,-0.00077,-0.00128,-0.00055,-0.00016,-5e-05,4,21
19347,-8e-05,-0.00011,-0.00024,-0.00077,-0.00128,-0.00055,-0.00016,-5e-05,4,21
19348,-8e-05,-0.00011,-0.00024,-0.00077,-0.00128,-0.00055,-0.00016,-5e-05,4,21
19349,-8e-05,-0.00011,-0.00024,-0.00077,-0.00128,-0.00055,-0.00016,-5e-05,4,21
19350,-3e-05,-1e-05,-8e-05,-9e-05,-7e-05,-4e-05,-0.00012,-6e-05,4,21
19351,-0.00011,-0.00016,-0.0002,-0.00027,-0.00128,-0.00024,-0.00011,-0.00016,4,21
19352,-0.00011,-0.00016,-0.0002,-0.00027,-0.00128,-0.00024,-0.00011,-0.00016,4,21
19353,-0.00011,-0.00016,-0.0002,-0.00027,-0.00128,-0.00024,-0.00011,-0.00016,4,21
19354,-0.00011,-0.00016,-0.0002,-0.00027,-0.00128,-0.00024,-0.00011,-0.00016,4,21
19355,-0.00011,-0.00016,-0.0002,-0.00027,-0.00128,-0.00024,-0.00011,-0.00016,4,21
19356,-0.00011,-0.00016,-0.0002,-0.00027,-0.00128,-0.00024,-0.00011,-0.00016,4,21
19357,-0.00011,-0.00016,-0.0002,-0.00027,-0.00128,-0.00024,-0.00011,-0.00016,4,21
19358,-0.00011,-0.00016,-0.0002,-0.00027,-0.00128,-0.00024,-0.00011,-0.00016,4,21
19359,-0.00011,-0.00016,-0.0002,-0.00027,-0.00128,-0.00024,-0.00011,-0.00016,4,21
19360,-0.00011,-0.00016,-0.0002,-0.00027,-0.00128,-0.00024,-0.00011,-0.00016,4,21
19361,-0.00011,-0.00016,-0.0002,-0.00027,-0.00128,-0.00024,-0.00011,-0.00016,4,21
19362,-0.00011,-0.00016,-0.0002,-0.00027,-0.00128,-0.00024,-0.00011,-0.00016,4,21
19363,-0.00011,-0.00016,-0.0002,-0.00027,-0.00128,-0.00024,-0.00011,-0.00016,4,21
19364,-0.00011,-0.00016,-0.0002,-0.00027,-0.00128,-0.00024,-0.00011,-0.00016,4,21
19365,-3e-05,3e-05,3e-05,-0.00024,-0.0004,-0.00012,-7e-05,6e-05,4,21
19366,-3e-05,3e-05,3e-05,-0.00024,-0.0004,-0.00012,-7e-05,6e-05,4,21
19367,0.00011,0.00017,0.00045,0.00062,-0.0002,0.00065,0.00025,0.00012,4,21
19368,0.00011,0.00017,0.00045,0.00062,-0.0002,0.00065,0.00025,0.00012,4,21
19369,0.00011,0.00017,0.00045,0.00062,-0.0002,0.00065,0.00025,0.00012,4,21
19370,0.00011,0.00017,0.00045,0.00062,-0.0002,0.00065,0.00025,0.00012,4,21
19371,0.00011,0.00017,0.00045,0.00062,-0.0002,0.00065,0.00025,0.00012,4,21
19372,0.00011,0.00017,0.00045,0.00062,-0.0002,0.00065,0.00025,0.00012,4,21
19373,0.00011,0.00017,0.00045,0.00062,-0.0002,0.00065,0.00025,0.00012,4,21
19374,0.00011,0.00017,0.00045,0.00062,-0.0002,0.00065,0.00025,0.00012,4,21
19375,0.00011,0.00017,0.00045,0.00062,-0.0002,0.00065,0.00025,0.00012,4,21
19376,0.00011,0.00017,0.00045,0.00062,-0.0002,0.00065,0.00025,0.00012,4,21
19377,0.00011,0.00017,0.00045,0.00062,-0.0002,0.00065,0.00025,0.00012,4,21
19378,0.00011,0.00017,0.00045,0.00062,-0.0002,0.00065,0.00025,0.00012,4,21
19379,0.00011,0.00017,0.00045,0.00062,-0.0002,0.00065,0.00025,0.00012,4,21
19380,0.00011,0.00017,0.00045,0.00062,-0.0002,0.00065,0.00025,0.00012,4,21
19381,0.00011,0.00017,0.00045,0.00062,-0.0002,0.00065,0.00025,0.00012,4,21
19382,0.00011,0.00017,0.00045,0.00062,-0.0002,0.00065,0.00025,0.00012,4,21
19383,0.00011,0.00017,0.00045,0.00062,-0.0002,0.00065,0.00025,0.00012,4,21
19384,0.00011,0.00017,0.00045,0.00062,-0.0002,0.00065,0.00025,0.00012,4,21
19385,0.00011,0.00017,0.00045,0.00062,-0.0002,0.00065,0.00025,0.00012,4,21
19387,0.00011,0.00017,0.00045,0.00062,-0.0002,0.00065,0.00025,0.00012,4,21
19389,-1e-05,-1e-05,6e-05,-0.00022,-0.00024,-0.00019,6e-05,2e-05,4,21
19390,-9e-05,-0.0001,-0.00022,-0.00024,0.00045,-0.00075,-0.00015,-6e-05,4,21
19391,-9e-05,-0.0001,-0.00022,-0.00024,0.00045,-0.00075,-0.00015,-6e-05,4,21
19392,-9e-05,-0.0001,-0.00022,-0.00024,0.00045,-0.00075,-0.00015,-6e-05,4,21
19393,-9e-05,-0.0001,-0.00022,-0.00024,0.00045,-0.00075,-0.00015,-6e-05,4,21
19394,-9e-05,-0.0001,-0.00022,-0.00024,0.00045,-0.00075,-0.00015,-6e-05,4,21
19395,-9e-05,-0.0001,-0.00022,-0.00024,0.00045,-0.00075,-0.00015,-6e-05,4,21
19396,-9e-05,-0.0001,-0.00022,-0.00024,0.00045,-0.00075,-0.00015,-6e-05,4,21
19397,-9e-05,-0.0001,-0.00022,-0.00024,0.00045,-0.00075,-0.00015,-6e-05,4,21
19398,-9e-05,-0.0001,-0.00022,-0.00024,0.00045,-0.00075,-0.00015,-6e-05,4,21
19399,-9e-05,-0.0001,-0.00022,-0.00024,0.00045,-0.00075,-0.00015,-6e-05,4,21
19400,-9e-05,-0.0001,-0.00022,-0.00024,0.00045,-0.00075,-0.00015,-6e-05,4,21
19401,-1e-05,-1e-05,5e-05,0.00045,0.00084,6e-05,-0.0001,-0.00011,4,21
19402,-2e-05,-3e-05,-6e-05,5e-05,0.00028,0.00065,0.00022,-2e-05,4,21
19403,-2e-05,-3e-05,-6e-05,5e-05,0.00028,0.00065,0.00022,-2e-05,4,21
19404,-2e-05,-3e-05,-6e-05,5e-05,0.00028,0.00065,0.00022,-2e-05,4,21
19405,-2e-05,-3e-05,-6e-05,5e-05,0.00028,0.00065,0.00022,-2e-05,4,21
19406,-2e-05,-3e-05,-6e-05,5e-05,0.00028,0.00065,0.00022,-2e-05,4,21
19407,-2e-05,-3e-05,-6e-05,5e-05,0.00028,0.00065,0.00022,-2e-05,4,21
19408,-2e-05,-3e-05,-6e-05,5e-05,0.00028,0.00065,0.00022,-2e-05,4,21
19409,-2e-05,-3e-05,-6e-05,5e-05,0.00028,0.00065,0.00022,-2e-05,4,21
19410,-2e-05,-7e-05,-0.00011,0.00018,-0.00022,0.00068,0,-5e-05,4,21
19411,-2e-05,-7e-05,-0.00011,0.00018,-0.00022,0.00068,0,-5e-05,4,21
19412,-2e-05,-7e-05,-0.00011,0.00018,-0.00022,0.00068,0,-5e-05,4,21
19413,-2e-05,-7e-05,-0.00011,0.00018,-0.00022,0.00068,0,-5e-05,4,21
19414,-2e-05,-7e-05,-0.00011,0.00018,-0.00022,0.00068,0,-5e-05,4,21
19415,-2e-05,-7e-05,-0.00011,0.00018,-0.00022,0.00068,0,-5e-05,4,21
19416,-2e-05,-7e-05,-0.00011,0.00018,-0.00022,0.00068,0,-5e-05,4,21
19417,-2e-05,-7e-05,-0.00011,0.00018,-0.00022,0.00068,0,-5e-05,4,21
19418,-2e-05,-7e-05,-0.00011,0.00018,-0.00022,0.00068,0,-5e-05,4,21
19419,-2e-05,-7e-05,-0.00011,0.00018,-0.00022,0.00068,0,-5e-05,4,21
19420,-2e-05,-7e-05,-0.00011,0.00018,-0.00022,0.00068,0,-5e-05,4,21
19421,-2e-05,-7e-05,-0.00011,0.00018,-0.00022,0.00068,0,-5e-05,4,21
19422,-2e-05,-7e-05,-0.00011,0.00018,-0.00022,0.00068,0,-5e-05,4,21
19423,-2e-05,-7e-05,-0.00011,0.00018,-0.00022,0.00068,0,-5e-05,4,21
19424,-2e-05,-7e-05,-0.00011,0.00018,-0.00022,0.00068,0,-5e-05,4,21
19425,-9e-05,-0.00013,-0.00028,9e-05,-0.00058,-0.00034,-0.0001,-0.00011,4,21
19426,-9e-05,-0.00013,-0.00028,9e-05,-0.00058,-0.00034,-0.0001,-0.00011,4,21
19427,-3e-05,-2e-05,1e-05,0.00034,-0.00033,0.00018,0,-7e-05,4,21
19428,-3e-05,-2e-05,1e-05,0.00034,-0.00033,0.00018,0,-7e-05,4,21
19429,-3e-05,-2e-05,1e-05,0.00034,-0.00033,0.00018,0,-7e-05,4,21
19430,-3e-05,-2e-05,1e-05,0.00034,-0.00033,0.00018,0,-7e-05,4,21
19431,-3e-05,-2e-05,1e-05,0.00034,-0.00033,0.00018,0,-7e-05,4,21
19432,-3e-05,-2e-05,1e-05,0.00034,-0.00033,0.00018,0,-7e-05,4,21
19433,-3e-05,-2e-05,1e-05,0.00034,-0.00033,0.00018,0,-7e-05,4,21
19434,-3e-05,-2e-05,1e-05,0.00034,-0.00033,0.00018,0,-7e-05,4,21
19435,-3e-05,-2e-05,1e-05,0.00034,-0.00033,0.00018,0,-7e-05,4,21
19437,-3e-05,-2e-05,1e-05,0.00034,-0.00033,0.00018,0,-7e-05,4,21
19439,-3e-05,-2e-05,1e-05,0.00034,-0.00033,0.00018,0,-7e-05,4,21
19440,-3e-05,-2e-05,1e-05,0.00034,-0.00033,0.00018,0,-7e-05,4,21
19441,-3e-05,-2e-05,1e-05,0.00034,-0.00033,0.00018,0,-7e-05,4,21
19442,-3e-05,-2e-05,1e-05,0.00034,-0.00033,0.00018,0,-7e-05,4,21
19443,-3e-05,-2e-05,1e-05,0.00034,-0.00033,0.00018,0,-7e-05,4,21
19444,-3e-05,-2e-05,1e-05,0.00034,-0.00033,0.00018,0,-7e-05,4,21
19445,-3e-05,-2e-05,1e-05,0.00034,-0.00033,0.00018,0,-7e-05,4,21
19446,-3e-05,-2e-05,1e-05,0.00034,-0.00033,0.00018,0,-7e-05,4,21
19447,-3e-05,-2e-05,1e-05,0.00034,-0.00033,0.00018,0,-7e-05,4,21
19448,-4e-05,-6e-05,-0.00016,-0.00039,-0.00016,-0.00021,-0.00011,-7e-05,4,21
19449,-3e-05,-7e-05,-5e-05,0.00028,0.0002,-9e-05,1e-05,4e-05,4,21
19450,2e-05,7e-05,0.00015,0.00046,0.00076,0.00104,8e-05,4e-05,4,21
19451,2e-05,7e-05,0.00015,0.00046,0.00076,0.00104,8e-05,4e-05,4,21
19452,2e-05,7e-05,0.00015,0.00046,0.00076,0.00104,8e-05,4e-05,4,21
19453,2e-05,7e-05,0.00015,0.00046,0.00076,0.00104,8e-05,4e-05,4,21
19454,2e-05,7e-05,0.00015,0.00046,0.00076,0.00104,8e-05,4e-05,4,21
19455,2e-05,7e-05,0.00015,0.00046,0.00076,0.00104,8e-05,4e-05,4,21
19456,2e-05,7e-05,0.00015,0.00046,0.00076,0.00104,8e-05,4e-05,4,21
19457,2e-05,7e-05,0.00015,0.00046,0.00076,0.00104,8e-05,4e-05,4,21
19458,2e-05,7e-05,0.00015,0.00046,0.00076,0.00104,8e-05,4e-05,4,21
19459,2e-05,7e-05,0.00015,0.00046,0.00076,0.00104,8e-05,4e-05,4,21
19460,2e-05,7e-05,0.00015,0.00046,0.00076,0.00104,8e-05,4e-05,4,21
19461,5e-05,7e-05,0.00013,0.00093,0.00058,4e-05,9e-05,-7e-05,4,21
19462,5e-05,7e-05,0.00013,0.00093,0.00058,4e-05,9e-05,-7e-05,4,21
19463,5e-05,7e-05,0.00013,0.00093,0.00058,4e-05,9e-05,-7e-05,4,21
19464,5e-05,7e-05,0.00013,0.00093,0.00058,4e-05,9e-05,-7e-05,4,21
19465,5e-05,7e-05,0.00013,0.00093,0.00058,4e-05,9e-05,-7e-05,4,21
19466,5e-05,7e-05,0.00013,0.00093,0.00058,4e-05,9e-05,-7e-05,4,21
19467,5e-05,7e-05,0.00013,0.00093,0.00058,4e-05,9e-05,-7e-05,4,21
19468,5e-05,7e-05,0.00013,0.00093,0.00058,4e-05,9e-05,-7e-05,4,21
19469,5e-05,7e-05,0.00013,0.00093,0.00058,4e-05,9e-05,-7e-05,4,21
19470,-1e-05,-5e-05,-0.00011,-0.00018,0.00072,-0.00049,1e-05,-1e-05,4,21
19471,-1e-05,-5e-05,-0.00011,-0.00018,0.00072,-0.00049,1e-05,-1e-05,4,21
19472,-1e-05,-5e-05,-0.00011,-0.00018,0.00072,-0.00049,1e-05,-1e-05,4,21
19473,-1e-05,-5e-05,-0.00011,-0.00018,0.00072,-0.00049,1e-05,-1e-05,4,21
19474,-1e-05,-5e-05,-0.00011,-0.00018,0.00072,-0.00049,1e-05,-1e-05,4,21
19475,-1e-05,-5e-05,-0.00011,-0.00018,0.00072,-0.00049,1e-05,-1e-05,4,21
19476,-1e-05,-5e-05,-0.00011,-0.00018,0.00072,-0.00049,1e-05,-1e-05,4,21
19477,-1e-05,-5e-05,-0.00011,-0.00018,0.00072,-0.00049,1e-05,-1e-05,4,21
19478,-1e-05,-5e-05,-0.00011,-0.00018,0.00072,-0.00049,1e-05,-1e-05,4,21
19479,-1e-05,-5e-05,-0.00011,-0.00018,0.00072,-0.00049,1e-05,-1e-05,4,21
19480,-1e-05,-5e-05,-0.00011,-0.00018,0.00072,-0.00049,1e-05,-1e-05,4,21
19481,-1e-05,-5e-05,-0.00011,-0.00018,0.00072,-0.00049,1e-05,-1e-05,4,21
19482,-1e-05,-5e-05,-0.00011,-0.00018,0.00072,-0.00049,1e-05,-1e-05,4,21
19483,-1e-05,-5e-05,-0.00011,-0.00018,0.00072,-0.00049,1e-05,-1e-05,4,21
19484,-1e-05,-5e-05,-0.00011,-0.00018,0.00072,-0.00049,1e-05,-1e-05,4,21
19485,5e-05,5e-05,0.0001,0.00041,-0.00029,0.0004,0.00033,0.0001,4,21
19487,7e-05,0.00011,0.00017,0.00051,0.00054,-0.00055,5e-05,0.00013,4,21
19489,7e-05,0.00011,0.00017,0.00051,0.00054,-0.00055,5e-05,0.00013,4,21
19490,7e-05,0.00011,0.00017,0.00051,0.00054,-0.00055,5e-05,0.00013,4,21
19491,7e-05,0.00011,0.00017,0.00051,0.00054,-0.00055,5e-05,0.00013,4,21
19492,7e-05,0.00011,0.00017,0.00051,0.00054,-0.00055,5e-05,0.00013,4,21
19493,7e-05,0.00011,0.00017,0.00051,0.00054,-0.00055,5e-05,0.00013,4,21
19494,7e-05,0.00011,0.00017,0.00051,0.00054,-0.00055,5e-05,0.00013,4,21
19495,7e-05,0.00011,0.00017,0.00051,0.00054,-0.00055,5e-05,0.00013,4,21
19496,7e-05,0.00011,0.00017,0.00051,0.00054,-0.00055,5e-05,0.00013,4,21
19497,7e-05,0.00011,0.00017,0.00051,0.00054,-0.00055,5e-05,0.00013,4,21
19498,7e-05,0.00011,0.00017,0.00051,0.00054,-0.00055,5e-05,0.00013,4,21
19499,7e-05,0.00011,0.00017,0.00051,0.00054,-0.00055,5e-05,0.00013,4,21
19500,7e-05,0.00011,0.00017,0.00051,0.00054,-0.00055,5e-05,0.00013,4,21
19501,7e-05,0.00011,0.00017,0.00051,0.00054,-0.00055,5e-05,0.00013,4,21
19502,7e-05,0.00011,0.00017,0.00051,0.00054,-0.00055,5e-05,0.00013,4,21
19503,7e-05,0.00011,0.00017,0.00051,0.00054,-0.00055,5e-05,0.00013,4,21
19504,7e-05,0.00011,0.00017,0.00051,0.00054,-0.00055,5e-05,0.00013,4,21
19505,7e-05,0.00011,0.00017,0.00051,0.00054,-0.00055,5e-05,0.00013,4,21
19506,7e-05,0.00011,0.00017,0.00051,0.00054,-0.00055,5e-05,0.00013,4,21
19507,7e-05,0.00011,0.00017,0.00051,0.00054,-0.00055,5e-05,0.00013,4,21
19508,9e-05,0.0001,0.00024,-6e-05,-0.0004,0.00058,0,0.00022,4,21
19509,-1e-05,-3e-05,3e-05,0.00027,0.00078,0.00031,9e-05,1e-05,4,21
19510,-7e-05,-0.00013,-0.00017,-0.0003,-0.00108,-0.00038,-0.00011,-7e-05,4,21
19511,-7e-05,-0.00013,-0.00017,-0.0003,-0.00108,-0.00038,-0.00011,-7e-05,4,21
19512,-7e-05,-0.00013,-0.00017,-0.0003,-0.00108,-0.00038,-0.00011,-7e-05,4,21
19513,-7e-05,-0.00013,-0.00017,-0.0003,-0.00108,-0.00038,-0.00011,-7e-05,4,21
19514,-7e-05,-0.00013,-0.00017,-0.0003,-0.00108,-0.00038,-0.00011,-7e-05,4,21
19515,-7e-05,-0.00013,-0.00017,-0.0003,-0.00108,-0.00038,-0.00011,-7e-05,4,21
19516,-7e-05,-0.00013,-0.00017,-0.0003,-0.00108,-0.00038,-0.00011,-7e-05,4,21
19517,-7e-05,-0.00013,-0.00017,-0.0003,-0.00108,-0.00038,-0.00011,-7e-05,4,21
19518,-7e-05,-0.00013,-0.00017,-0.0003,-0.00108,-0.00038,-0.00011,-7e-05,4,21
19519,-7e-05,-0.00013,-0.00017,-0.0003,-0.00108,-0.00038,-0.00011,-7e-05,4,21
19520,-7e-05,-0.00013,-0.00017,-0.0003,-0.00108,-0.00038,-0.00011,-7e-05,4,21
19521,0,-1e-05,-1e-05,0.00017,-0.00067,0.00015,-6e-05,6e-05,4,21
19522,-2e-05,1e-05,2e-05,0.00059,0.00046,-0.00036,-7e-05,7e-05,4,21
19523,-2e-05,1e-05,2e-05,0.00059,0.00046,-0.00036,-7e-05,7e-05,4,21
19524,-2e-05,1e-05,2e-05,0.00059,0.00046,-0.00036,-7e-05,7e-05,4,21
19525,-2e-05,1e-05,2e-05,0.00059,0.00046,-0.00036,-7e-05,7e-05,4,21
19526,-2e-05,1e-05,2e-05,0.00059,0.00046,-0.00036,-7e-05,7e-05,4,21
19527,-2e-05,1e-05,2e-05,0.00059,0.00046,-0.00036,-7e-05,7e-05,4,21
19528,-2e-05,1e-05,2e-05,0.00059,0.00046,-0.00036,-7e-05,7e-05,4,21
19529,-2e-05,1e-05,2e-05,0.00059,0.00046,-0.00036,-7e-05,7e-05,4,21
19530,7e-05,0.0001,0.00013,-0.00022,-0.00036,0.00063,-0.00012,-0.00014,4,21
19531,-5e-05,-7e-05,-0.00016,-0.00026,-0.00112,-0.00024,-1e-05,-3e-05,4,21
19532,-5e-05,-7e-05,-0.00016,-0.00026,-0.00112,-0.00024,-1e-05,-3e-05,4,21
19533,-5e-05,-7e-05,-0.00016,-0.00026,-0.00112,-0.00024,-1e-05,-3e-05,4,21
19534,-5e-05,-7e-05,-0.00016,-0.00026,-0.00112,-0.00024,-1e-05,-3e-05,4,21
19535,-5e-05,-7e-05,-0.00016,-0.00026,-0.00112,-0.00024,-1e-05,-3e-05,4,21
19537,-5e-05,-7e-05,-0.00016,-0.00026,-0.00112,-0.00024,-1e-05,-3e-05,4,21
19539,-5e-05,-7e-05,-0.00016,-0.00026,-0.00112,-0.00024,-1e-05,-3e-05,4,21
19540,-5e-05,-7e-05,-0.00016,-0.00026,-0.00112,-0.00024,-1e-05,-3e-05,4,21
19541,-5e-05,-7e-05,-0.00016,-0.00026,-0.00112,-0.00024,-1e-05,-3e-05,4,21
19542,-5e-05,-7e-05,-0.00016,-0.00026,-0.00112,-0.00024,-1e-05,-3e-05,4,21
19543,-5e-05,-7e-05,-0.00016,-0.00026,-0.00112,-0.00024,-1e-05,-3e-05,4,21
19544,-5e-05,-7e-05,-0.00016,-0.00026,-0.00112,-0.00024,-1e-05,-3e-05,4,21
19545,3e-05,8e-05,0.00013,-0.00033,-6e-05,0.00075,0.00023,0.0001,4,21
19546,3e-05,8e-05,0.00013,-0.00033,-6e-05,0.00075,0.00023,0.0001,4,21
19547,0,-2e-05,-0.0001,-4e-05,0.00068,7e-05,-3e-05,6e-05,4,21
19548,0,-2e-05,-0.0001,-4e-05,0.00068,7e-05,-3e-05,6e-05,4,21
19549,0,-2e-05,-0.0001,-4e-05,0.00068,7e-05,-3e-05,6e-05,4,21
19550,0,-2e-05,-0.0001,-4e-05,0.00068,7e-05,-3e-05,6e-05,4,21
19551,0,-2e-05,-0.0001,-4e-05,0.00068,7e-05,-3e-05,6e-05,4,21
19552,0,-2e-05,-0.0001,-4e-05,0.00068,7e-05,-3e-05,6e-05,4,21
19553,0,-2e-05,-0.0001,-4e-05,0.00068,7e-05,-3e-05,6e-05,4,21
19554,0,-2e-05,-0.0001,-4e-05,0.00068,7e-05,-3e-05,6e-05,4,21
19555,0,-2e-05,-0.0001,-4e-05,0.00068,7e-05,-3e-05,6e-05,4,21
19556,0,-2e-05,-0.0001,-4e-05,0.00068,7e-05,-3e-05,6e-05,4,21
19557,0,-2e-05,-0.0001,-4e-05,0.00068,7e-05,-3e-05,6e-05,4,21
19558,0,-2e-05,-0.0001,-4e-05,0.00068,7e-05,-3e-05,6e-05,4,21
19559,0,-2e-05,-0.0001,-4e-05,0.00068,7e-05,-3e-05,6e-05,4,21
19560,0,-2e-05,-0.0001,-4e-05,0.00068,7e-05,-3e-05,6e-05,4,21
19561,0,-2e-05,-0.0001,-4e-05,0.00068,7e-05,-3e-05,6e-05,4,21
19562,0,-2e-05,-0.0001,-4e-05,0.00068,7e-05,-3e-05,6e-05,4,21
19563,0,-2e-05,-0.0001,-4e-05,0.00068,7e-05,-3e-05,6e-05,4,21
19564,0,-2e-05,-0.0001,-4e-05,0.00068,7e-05,-3e-05,6e-05,4,21
19565,-8e-05,-0.00013,-0.00024,-0.00062,-0.00069,-0.00018,-0.00018,-8e-05,4,21
19568,-8e-05,-0.00013,-0.00024,-0.00062,-0.00069,-0.00018,-0.00018,-8e-05,4,21
19570,3e-05,3e-05,6e-05,0,-0.00071,6e-05,8e-05,3e-05,4,21
19571,3e-05,3e-05,6e-05,0,-0.00071,6e-05,8e-05,3e-05,4,21
19572,3e-05,3e-05,6e-05,0,-0.00071,6e-05,8e-05,3e-05,4,21
19573,3e-05,3e-05,6e-05,0,-0.00071,6e-05,8e-05,3e-05,4,21
19574,3e-05,3e-05,6e-05,0,-0.00071,6e-05,8e-05,3e-05,4,21
19575,3e-05,3e-05,6e-05,0,-0.00071,6e-05,8e-05,3e-05,4,21
19576,3e-05,3e-05,6e-05,0,-0.00071,6e-05,8e-05,3e-05,4,21
19577,3e-05,3e-05,6e-05,0,-0.00071,6e-05,8e-05,3e-05,4,21
19578,3e-05,3e-05,6e-05,0,-0.00071,6e-05,8e-05,3e-05,4,21
19579,3e-05,3e-05,6e-05,0,-0.00071,6e-05,8e-05,3e-05,4,21
19580,3e-05,3e-05,6e-05,0,-0.00071,6e-05,8e-05,3e-05,4,21
19581,-3e-05,-4e-05,-0.00012,-0.00083,-0.00117,0.0002,-0.00018,-1e-05,4,21
19582,-3e-05,-4e-05,-0.00012,-0.00083,-0.00117,0.0002,-0.00018,-1e-05,4,21
19583,-3e-05,-4e-05,-0.00012,-0.00083,-0.00117,0.0002,-0.00018,-1e-05,4,21
19584,-3e-05,-4e-05,-0.00012,-0.00083,-0.00117,0.0002,-0.00018,-1e-05,4,21
19585,-3e-05,-4e-05,-0.00012,-0.00083,-0.00117,0.0002,-0.00018,-1e-05,4,21
19587,-3e-05,-4e-05,-0.00012,-0.00083,-0.00117,0.0002,-0.00018,-1e-05,4,21
19589,-3e-05,-4e-05,-0.00012,-0.00083,-0.00117,0.0002,-0.00018,-1e-05,4,21
19590,-0.00014,-0.00018,-0.00031,-0.0005,-0.00078,-0.00108,-0.00039,-0.00019,4,21
19591,-0.00014,-0.00018,-0.00031,-0.0005,-0.00078,-0.00108,-0.00039,-0.00019,4,21
19592,-0.00014,-0.00018,-0.00031,-0.0005,-0.00078,-0.00108,-0.00039,-0.00019,4,21
19593,-0.00014,-0.00018,-0.00031,-0.0005,-0.00078,-0.00108,-0.00039,-0.00019,4,21
19594,-0.00014,-0.00018,-0.00031,-0.0005,-0.00078,-0.00108,-0.00039,-0.00019,4,21
19595,-0.00014,-0.00018,-0.00031,-0.0005,-0.00078,-0.00108,-0.00039,-0.00019,4,21
19596,-0.00014,-0.00018,-0.00031,-0.0005,-0.00078,-0.00108,-0.00039,-0.00019,4,21
19597,-0.00014,-0.00018,-0.00031,-0.0005,-0.00078,-0.00108,-0.00039,-0.00019,4,21
19598,-0.00014,-0.00018,-0.00031,-0.0005,-0.00078,-0.00108,-0.00039,-0.00019,4,21
19599,-0.00014,-0.00018,-0.00031,-0.0005,-0.00078,-0.00108,-0.00039,-0.00019,4,21
19600,-0.00014,-0.00018,-0.00031,-0.0005,-0.00078,-0.00108,-0.00039,-0.00019,4,21
19601,-0.00014,-0.00018,-0.00031,-0.0005,-0.00078,-0.00108,-0.00039,-0.00019,4,21
19602,-0.00014,-0.00018,-0.00031,-0.0005,-0.00078,-0.00108,-0.00039,-0.00019,4,21
19603,-0.00014,-0.00018,-0.00031,-0.0005,-0.00078,-0.00108,-0.00039,-0.00019,4,21
19604,-0.00014,-0.00018,-0.00031,-0.0005,-0.00078,-0.00108,-0.00039,-0.00019,4,21
19605,1e-05,3e-05,7e-05,5e-05,0.00035,7e-05,8e-05,-4e-05,4,21
19606,1e-05,3e-05,7e-05,5e-05,0.00035,7e-05,8e-05,-4e-05,4,21
19607,5e-05,5e-05,6e-05,-0.00102,-0.00034,0.00027,5e-05,0.00013,4,21
19608,5e-05,5e-05,6e-05,-0.00102,-0.00034,0.00027,5e-05,0.00013,4,21
19609,5e-05,5e-05,6e-05,-0.00102,-0.00034,0.00027,5e-05,0.00013,4,21
19610,5e-05,5e-05,6e-05,-0.00102,-0.00034,0.00027,5e-05,0.00013,4,21
19611,5e-05,5e-05,6e-05,-0.00102,-0.00034,0.00027,5e-05,0.00013,4,21
19612,5e-05,5e-05,6e-05,-0.00102,-0.00034,0.00027,5e-05,0.00013,4,21
19613,5e-05,5e-05,6e-05,-0.00102,-0.00034,0.00027,5e-05,0.00013,4,21
19614,5e-05,5e-05,6e-05,-0.00102,-0.00034,0.00027,5e-05,0.00013,4,21
19615,5e-05,5e-05,6e-05,-0.00102,-0.00034,0.00027,5e-05,0.00013,4,21
19616,5e-05,5e-05,6e-05,-0.00102,-0.00034,0.00027,5e-05,0.00013,4,21
19617,5e-05,5e-05,6e-05,-0.00102,-0.00034,0.00027,5e-05,0.00013,4,21
19618,5e-05,5e-05,6e-05,-0.00102,-0.00034,0.00027,5e-05,0.00013,4,21
19619,5e-05,5e-05,6e-05,-0.00102,-0.00034,0.00027,5e-05,0.00013,4,21
19620,5e-05,5e-05,6e-05,-0.00102,-0.00034,0.00027,5e-05,0.00013,4,21
19621,5e-05,5e-05,6e-05,-0.00102,-0.00034,0.00027,5e-05,0.00013,4,21
19622,5e-05,5e-05,6e-05,-0.00102,-0.00034,0.00027,5e-05,0.00013,4,21
19623,5e-05,5e-05,6e-05,-0.00102,-0.00034,0.00027,5e-05,0.00013,4,21
19624,5e-05,5e-05,6e-05,-0.00102,-0.00034,0.00027,5e-05,0.00013,4,21
19625,5e-05,5e-05,6e-05,-0.00102,-0.00034,0.00027,5e-05,0.00013,4,21
19626,5e-05,5e-05,6e-05,-0.00102,-0.00034,0.00027,5e-05,0.00013,4,21
19627,5e-05,5e-05,6e-05,-0.00102,-0.00034,0.00027,5e-05,0.00013,4,21
19628,-7e-05,-0.00014,-0.00018,5e-05,-0.00051,1e-05,-5e-05,-8e-05,4,21
19629,3e-05,0.0001,0.00019,0.0006,-0.00109,0.00059,6e-05,9e-05,4,21
19630,1e-05,3e-05,5e-05,0.00082,-0.00038,0.0001,3e-05,-5e-05,4,21
19631,1e-05,3e-05,5e-05,0.00082,-0.00038,0.0001,3e-05,-5e-05,4,21
19632,1e-05,3e-05,5e-05,0.00082,-0.00038,0.0001,3e-05,-5e-05,4,21
19633,1e-05,3e-05,5e-05,0.00082,-0.00038,0.0001,3e-05,-5e-05,4,21
19634,1e-05,3e-05,5e-05,0.00082,-0.00038,0.0001,3e-05,-5e-05,4,21
19635,1e-05,3e-05,5e-05,0.00082,-0.00038,0.0001,3e-05,-5e-05,4,21
19637,1e-05,3e-05,5e-05,0.00082,-0.00038,0.0001,3e-05,-5e-05,4,21
19639,1e-05,3e-05,5e-05,0.00082,-0.00038,0.0001,3e-05,-5e-05,4,21
19640,1e-05,3e-05,5e-05,0.00082,-0.00038,0.0001,3e-05,-5e-05,4,21
19641,-4e-05,-6e-05,-0.00016,-0.00121,-0.00084,0.00016,-5e-05,-5e-05,4,21
19642,3e-05,0.00018,0.0001,0.0011,9e-05,-0.0008,-2e-05,0.00012,4,21
19643,3e-05,0.00018,0.0001,0.0011,9e-05,-0.0008,-2e-05,0.00012,4,21
19644,3e-05,0.00018,0.0001,0.0011,9e-05,-0.0008,-2e-05,0.00012,4,21
19645,3e-05,0.00018,0.0001,0.0011,9e-05,-0.0008,-2e-05,0.00012,4,21
19646,3e-05,0.00018,0.0001,0.0011,9e-05,-0.0008,-2e-05,0.00012,4,21
19647,3e-05,0.00018,0.0001,0.0011,9e-05,-0.0008,-2e-05,0.00012,4,21
19648,3e-05,0.00018,0.0001,0.0011,9e-05,-0.0008,-2e-05,0.00012,4,21
19649,3e-05,0.00018,0.0001,0.0011,9e-05,-0.0008,-2e-05,0.00012,4,21
19650,-3e-05,-6e-05,-5e-05,-0.00015,-0.00024,0.00078,-3e-05,-7e-05,4,21
19651,-3e-05,-6e-05,-5e-05,-0.00015,-0.00024,0.00078,-3e-05,-7e-05,4,21
19652,-3e-05,-6e-05,-5e-05,-0.00015,-0.00024,0.00078,-3e-05,-7e-05,4,21
19653,-3e-05,-6e-05,-5e-05,-0.00015,-0.00024,0.00078,-3e-05,-7e-05,4,21
19654,-3e-05,-6e-05,-5e-05,-0.00015,-0.00024,0.00078,-3e-05,-7e-05,4,21
19655,-3e-05,-6e-05,-5e-05,-0.00015,-0.00024,0.00078,-3e-05,-7e-05,4,21
19656,-3e-05,-6e-05,-5e-05,-0.00015,-0.00024,0.00078,-3e-05,-7e-05,4,21
19657,-3e-05,-6e-05,-5e-05,-0.00015,-0.00024,0.00078,-3e-05,-7e-05,4,21
19658,-3e-05,-6e-05,-5e-05,-0.00015,-0.00024,0.00078,-3e-05,-7e-05,4,21
19659,-3e-05,-6e-05,-5e-05,-0.00015,-0.00024,0.00078,-3e-05,-7e-05,4,21
19660,-3e-05,-6e-05,-5e-05,-0.00015,-0.00024,0.00078,-3e-05,-7e-05,4,21
19661,-3e-05,-6e-05,-5e-05,-0.00015,-0.00024,0.00078,-3e-05,-7e-05,4,21
19662,-3e-05,-6e-05,-5e-05,-0.00015,-0.00024,0.00078,-3e-05,-7e-05,4,21
19663,-3e-05,-6e-05,-5e-05,-0.00015,-0.00024,0.00078,-3e-05,-7e-05,4,21
19664,-3e-05,-6e-05,-5e-05,-0.00015,-0.00024,0.00078,-3e-05,-7e-05,4,21
19665,-2e-05,-2e-05,-7e-05,-0.00047,0.00033,-0.00011,-4e-05,-0.00012,4,21
19666,-2e-05,-2e-05,-7e-05,-0.00047,0.00033,-0.00011,-4e-05,-0.00012,4,21
19667,6e-05,0.00012,0.00031,0.00028,0.00021,0.0006,0.00015,8e-05,4,21
19668,6e-05,0.00012,0.00031,0.00028,0.00021,0.0006,0.00015,8e-05,4,21
19669,6e-05,0.00012,0.00031,0.00028,0.00021,0.0006,0.00015,8e-05,4,21
19670,6e-05,0.00012,0.00031,0.00028,0.00021,0.0006,0.00015,8e-05,4,21
19671,6e-05,0.00012,0.00031,0.00028,0.00021,0.0006,0.00015,8e-05,4,21
19672,6e-05,0.00012,0.00031,0.00028,0.00021,0.0006,0.00015,8e-05,4,21
19673,6e-05,0.00012,0.00031,0.00028,0.00021,0.0006,0.00015,8e-05,4,21
19674,6e-05,0.00012,0.00031,0.00028,0.00021,0.0006,0.00015,8e-05,4,21
19675,6e-05,0.00012,0.00031,0.00028,0.00021,0.0006,0.00015,8e-05,4,21
19676,6e-05,0.00012,0.00031,0.00028,0.00021,0.0006,0.00015,8e-05,4,21
19677,6e-05,0.00012,0.00031,0.00028,0.00021,0.0006,0.00015,8e-05,4,21
19678,6e-05,0.00012,0.00031,0.00028,0.00021,0.0006,0.00015,8e-05,4,21
19679,6e-05,0.00012,0.00031,0.00028,0.00021,0.0006,0.00015,8e-05,4,21
19680,6e-05,0.00012,0.00031,0.00028,0.00021,0.0006,0.00015,8e-05,4,21
19681,6e-05,0.00012,0.00031,0.00028,0.00021,0.0006,0.00015,8e-05,4,21
19682,6e-05,0.00012,0.00031,0.00028,0.00021,0.0006,0.00015,8e-05,4,21
19683,6e-05,0.00012,0.00031,0.00028,0.00021,0.0006,0.00015,8e-05,4,21
19684,6e-05,0.00012,0.00031,0.00028,0.00021,0.0006,0.00015,8e-05,4,21
19685,6e-05,0.00012,0.00031,0.00028,0.00021,0.0006,0.00015,8e-05,4,21
19687,6e-05,0.00012,0.00031,0.00028,0.00021,0.0006,0.00015,8e-05,4,21
19689,4e-05,9e-05,0.00015,-0.00038,0.00035,-0.00018,3e-05,8e-05,4,21
19690,-4e-05,-7e-05,-0.00021,-0.0004,0.00097,-1e-05,1e-05,-1e-05,4,21
19691,-4e-05,-7e-05,-0.00021,-0.0004,0.00097,-1e-05,1e-05,-1e-05,4,21
19692,-4e-05,-7e-05,-0.00021,-0.0004,0.00097,-1e-05,1e-05,-1e-05,4,21
19693,-4e-05,-7e-05,-0.00021,-0.0004,0.00097,-1e-05,1e-05,-1e-05,4,21
19694,-4e-05,-7e-05,-0.00021,-0.0004,0.00097,-1e-05,1e-05,-1e-05,4,21
19695,-4e-05,-7e-05,-0.00021,-0.0004,0.00097,-1e-05,1e-05,-1e-05,4,21
19696,-4e-05,-7e-05,-0.00021,-0.0004,0.00097,-1e-05,1e-05,-1e-05,4,21
19697,-4e-05,-7e-05,-0.00021,-0.0004,0.00097,-1e-05,1e-05,-1e-05,4,21
19698,-4e-05,-7e-05,-0.00021,-0.0004,0.00097,-1e-05,1e-05,-1e-05,4,21
19699,-4e-05,-7e-05,-0.00021,-0.0004,0.00097,-1e-05,1e-05,-1e-05,4,21
19700,-4e-05,-7e-05,-0.00021,-0.0004,0.00097,-1e-05,1e-05,-1e-05,4,21
19701,3e-05,1e-05,7e-05,9e-05,-0.00056,-0.00053,-1e-05,-4e-05,4,21
19703,3e-05,1e-05,7e-05,9e-05,-0.00056,-0.00053,-1e-05,-4e-05,4,21
19704,3e-05,1e-05,7e-05,9e-05,-0.00056,-0.00053,-1e-05,-4e-05,4,21
19705,3e-05,1e-05,7e-05,9e-05,-0.00056,-0.00053,-1e-05,-4e-05,4,21
19706,3e-05,1e-05,7e-05,9e-05,-0.00056,-0.00053,-1e-05,-4e-05,4,21
19707,3e-05,1e-05,7e-05,9e-05,-0.00056,-0.00053,-1e-05,-4e-05,4,21
19708,3e-05,1e-05,7e-05,9e-05,-0.00056,-0.00053,-1e-05,-4e-05,4,21
19709,3e-05,1e-05,7e-05,9e-05,-0.00056,-0.00053,-1e-05,-4e-05,4,21
19710,-7e-05,-0.0001,-0.00014,-0.00024,7e-05,-0.00042,-0.00011,-8e-05,4,21
19711,-1e-05,-2e-05,-8e-05,0.00106,0.00027,-0.00106,-1e-05,-5e-05,4,21
19712,-1e-05,-2e-05,-8e-05,0.00106,0.00027,-0.00106,-1e-05,-5e-05,4,21
19713,-1e-05,-2e-05,-8e-05,0.00106,0.00027,-0.00106,-1e-05,-5e-05,4,21
19714,-1e-05,-2e-05,-8e-05,0.00106,0.00027,-0.00106,-1e-05,-5e-05,4,21
19715,-1e-05,-2e-05,-8e-05,0.00106,0.00027,-0.00106,-1e-05,-5e-05,4,21
19716,-1e-05,-2e-05,-8e-05,0.00106,0.00027,-0.00106,-1e-05,-5e-05,4,21
19717,-1e-05,-2e-05,-8e-05,0.00106,0.00027,-0.00106,-1e-05,-5e-05,4,21
19718,-1e-05,-2e-05,-8e-05,0.00106,0.00027,-0.00106,-1e-05,-5e-05,4,21
19719,-1e-05,-2e-05,-8e-05,0.00106,0.00027,-0.00106,-1e-05,-5e-05,4,21
19720,-1e-05,-2e-05,-8e-05,0.00106,0.00027,-0.00106,-1e-05,-5e-05,4,21
19721,-1e-05,-2e-05,-8e-05,0.00106,0.00027,-0.00106,-1e-05,-5e-05,4,21
19722,-1e-05,-2e-05,-8e-05,0.00106,0.00027,-0.00106,-1e-05,-5e-05,4,21
19723,-1e-05,-2e-05,-8e-05,0.00106,0.00027,-0.00106,-1e-05,-5e-05,4,21
19724,-9e-05,-9e-05,-9e-05,-0.00042,-0.00069,3e-05,-0.00021,-5e-05,4,21
19725,2e-05,2e-05,0.0001,0.00104,-0.0003,0.00051,8e-05,-1e-05,4,21
19726,2e-05,2e-05,0.0001,0.00104,-0.0003,0.00051,8e-05,-1e-05,4,21
19727,2e-05,2e-05,0.0001,0.00104,-0.0003,0.00051,8e-05,-1e-05,4,21
19728,2e-05,2e-05,0.0001,0.00104,-0.0003,0.00051,8e-05,-1e-05,4,21
19729,2e-05,2e-05,0.0001,0.00104,-0.0003,0.00051,8e-05,-1e-05,4,21
19730,2e-05,2e-05,0.0001,0.00104,-0.0003,0.00051,8e-05,-1e-05,4,21
19731,-3e-05,-1e-05,-3e-05,0.00031,-0.00078,-0.0001,-0.00024,1e-05,4,21
19732,-3e-05,-1e-05,-3e-05,0.00031,-0.00078,-0.0001,-0.00024,1e-05,4,21
19733,-3e-05,-1e-05,-3e-05,0.00031,-0.00078,-0.0001,-0.00024,1e-05,4,21
19734,-3e-05,-1e-05,-3e-05,0.00031,-0.00078,-0.0001,-0.00024,1e-05,4,21
19735,-3e-05,-1e-05,-3e-05,0.00031,-0.00078,-0.0001,-0.00024,1e-05,4,21
19737,-3e-05,-1e-05,-3e-05,0.00031,-0.00078,-0.0001,-0.00024,1e-05,4,21
19739,-3e-05,-1e-05,-3e-05,0.00031,-0.00078,-0.0001,-0.00024,1e-05,4,21
19740,-3e-05,-1e-05,-3e-05,0.00031,-0.00078,-0.0001,-0.00024,1e-05,4,21
19741,-3e-05,-1e-05,-3e-05,0.00031,-0.00078,-0.0001,-0.00024,1e-05,4,21
19742,-3e-05,-1e-05,-3e-05,0.00031,-0.00078,-0.0001,-0.00024,1e-05,4,21
19743,-3e-05,-1e-05,-3e-05,0.00031,-0.00078,-0.0001,-0.00024,1e-05,4,21
19744,-3e-05,-1e-05,-3e-05,0.00031,-0.00078,-0.0001,-0.00024,1e-05,4,21
19745,-3e-05,-1e-05,-3e-05,0.00031,-0.00078,-0.0001,-0.00024,1e-05,4,21
19746,-3e-05,-1e-05,-3e-05,0.00031,-0.00078,-0.0001,-0.00024,1e-05,4,21
19747,-3e-05,-1e-05,-3e-05,0.00031,-0.00078,-0.0001,-0.00024,1e-05,4,21
19748,-7e-05,-0.00016,-0.00024,-0.00104,-0.00128,-0.00119,-0.0002,7e-05,4,21
19749,-2e-05,1e-05,7e-05,-0.00023,0.00024,0.00028,0.00011,2e-05,4,21
19750,-2e-05,1e-05,7e-05,-0.00023,0.00024,0.00028,0.00011,2e-05,4,21
19751,-2e-05,1e-05,7e-05,-0.00023,0.00024,0.00028,0.00011,2e-05,4,21
19752,-2e-05,1e-05,7e-05,-0.00023,0.00024,0.00028,0.00011,2e-05,4,21
19753,-2e-05,1e-05,7e-05,-0.00023,0.00024,0.00028,0.00011,2e-05,4,21
19754,-2e-05,1e-05,7e-05,-0.00023,0.00024,0.00028,0.00011,2e-05,4,21
19755,-2e-05,1e-05,7e-05,-0.00023,0.00024,0.00028,0.00011,2e-05,4,21
19756,-2e-05,1e-05,7e-05,-0.00023,0.00024,0.00028,0.00011,2e-05,4,21
19757,-2e-05,1e-05,7e-05,-0.00023,0.00024,0.00028,0.00011,2e-05,4,21
19758,-2e-05,1e-05,7e-05,-0.00023,0.00024,0.00028,0.00011,2e-05,4,21
19759,-2e-05,1e-05,7e-05,-0.00023,0.00024,0.00028,0.00011,2e-05,4,21
19760,-2e-05,1e-05,7e-05,-0.00023,0.00024,0.00028,0.00011,2e-05,4,21
19761,-2e-05,1e-05,7e-05,-0.00023,0.00024,0.00028,0.00011,2e-05,4,21
19762,-2e-05,1e-05,7e-05,-0.00023,0.00024,0.00028,0.00011,2e-05,4,21
19763,-2e-05,1e-05,7e-05,-0.00023,0.00024,0.00028,0.00011,2e-05,4,21
19764,-2e-05,1e-05,7e-05,-0.00023,0.00024,0.00028,0.00011,2e-05,4,21
19765,-2e-05,1e-05,7e-05,-0.00023,0.00024,0.00028,0.00011,2e-05,4,21
19766,-2e-05,1e-05,7e-05,-0.00023,0.00024,0.00028,0.00011,2e-05,4,21
19767,-2e-05,1e-05,7e-05,-0.00023,0.00024,0.00028,0.00011,2e-05,4,21
19768,-2e-05,1e-05,7e-05,-0.00023,0.00024,0.00028,0.00011,2e-05,4,21
19769,-2e-05,1e-05,7e-05,-0.00023,0.00024,0.00028,0.00011,2e-05,4,21
19770,-6e-05,-9e-05,-0.00016,-0.00093,-0.00108,-0.00049,-9e-05,-0.00011,4,21
19771,-6e-05,-9e-05,-0.00016,-0.00093,-0.00108,-0.00049,-9e-05,-0.00011,4,21
19772,2e-05,1e-05,3e-05,0.00012,-7e-05,-0.00025,1e-05,2e-05,4,21
19773,2e-05,1e-05,3e-05,0.00012,-7e-05,-0.00025,1e-05,2e-05,4,21
19774,2e-05,1e-05,3e-05,0.00012,-7e-05,-0.00025,1e-05,2e-05,4,21
19775,2e-05,1e-05,3e-05,0.00012,-7e-05,-0.00025,1e-05,2e-05,4,21
19776,2e-05,1e-05,3e-05,0.00012,-7e-05,-0.00025,1e-05,2e-05,4,21
19777,2e-05,1e-05,3e-05,0.00012,-7e-05,-0.00025,1e-05,2e-05,4,21
19778,2e-05,1e-05,3e-05,0.00012,-7e-05,-0.00025,1e-05,2e-05,4,21
19779,2e-05,1e-05,3e-05,0.00012,-7e-05,-0.00025,1e-05,2e-05,4,21
19780,2e-05,1e-05,3e-05,0.00012,-7e-05,-0.00025,1e-05,2e-05,4,21
19781,2e-05,1e-05,3e-05,0.00012,-7e-05,-0.00025,1e-05,2e-05,4,21
19782,2e-05,1e-05,3e-05,0.00012,-7e-05,-0.00025,1e-05,2e-05,4,21
19783,2e-05,1e-05,3e-05,0.00012,-7e-05,-0.00025,1e-05,2e-05,4,21
19784,2e-05,1e-05,3e-05,0.00012,-7e-05,-0.00025,1e-05,2e-05,4,21
19785,9e-05,0.00013,0.0002,-6e-05,0.00068,-0.00019,0.00016,9e-05,4,21
19787,1e-05,8e-05,0.00012,4e-05,0.00034,1e-05,2e-05,-6e-05,4,21
19789,1e-05,8e-05,0.00012,4e-05,0.00034,1e-05,2e-05,-6e-05,4,21
19790,1e-05,8e-05,0.00012,4e-05,0.00034,1e-05,2e-05,-6e-05,4,21
19791,1e-05,8e-05,0.00012,4e-05,0.00034,1e-05,2e-05,-6e-05,4,21
19792,1e-05,8e-05,0.00012,4e-05,0.00034,1e-05,2e-05,-6e-05,4,21
19793,1e-05,8e-05,0.00012,4e-05,0.00034,1e-05,2e-05,-6e-05,4,21
19794,1e-05,8e-05,0.00012,4e-05,0.00034,1e-05,2e-05,-6e-05,4,21
19795,1e-05,8e-05,0.00012,4e-05,0.00034,1e-05,2e-05,-6e-05,4,21
19796,1e-05,8e-05,0.00012,4e-05,0.00034,1e-05,2e-05,-6e-05,4,21
19797,1e-05,8e-05,0.00012,4e-05,0.00034,1e-05,2e-05,-6e-05,4,21
19798,1e-05,8e-05,0.00012,4e-05,0.00034,1e-05,2e-05,-6e-05,4,21
19799,1e-05,8e-05,0.00012,4e-05,0.00034,1e-05,2e-05,-6e-05,4,21
19800,1e-05,8e-05,0.00012,4e-05,0.00034,1e-05,2e-05,-6e-05,4,21
19801,1e-05,8e-05,0.00012,4e-05,0.00034,1e-05,2e-05,-6e-05,4,21
19802,1e-05,8e-05,0.00012,4e-05,0.00034,1e-05,2e-05,-6e-05,4,21
19803,1e-05,8e-05,0.00012,4e-05,0.00034,1e-05,2e-05,-6e-05,4,21
19804,1e-05,8e-05,0.00012,4e-05,0.00034,1e-05,2e-05,-6e-05,4,21
19805,1e-05,8e-05,0.00012,4e-05,0.00034,1e-05,2e-05,-6e-05,4,21
19806,1e-05,8e-05,0.00012,4e-05,0.00034,1e-05,2e-05,-6e-05,4,21
19807,1e-05,8e-05,0.00012,4e-05,0.00034,1e-05,2e-05,-6e-05,4,21
19808,4e-05,3e-05,3e-05,-0.00019,0.00027,-0.00049,3e-05,6e-05,4,21
19809,-5e-05,-0.00015,-0.00015,-0.00016,-0.00093,-0.00081,-0.00011,-1e-05,4,21
19810,-5e-05,-0.00015,-0.00015,-0.00016,-0.00093,-0.00081,-0.00011,-1e-05,4,21
19811,-5e-05,-0.00015,-0.00015,-0.00016,-0.00093,-0.00081,-0.00011,-1e-05,4,21
19812,-5e-05,-0.00015,-0.00015,-0.00016,-0.00093,-0.00081,-0.00011,-1e-05,4,21
19813,-5e-05,-0.00015,-0.00015,-0.00016,-0.00093,-0.00081,-0.00011,-1e-05,4,21
19814,-5e-05,-0.00015,-0.00015,-0.00016,-0.00093,-0.00081,-0.00011,-1e-05,4,21
19815,-5e-05,-0.00015,-0.00015,-0.00016,-0.00093,-0.00081,-0.00011,-1e-05,4,21
19816,-5e-05,-0.00015,-0.00015,-0.00016,-0.00093,-0.00081,-0.00011,-1e-05,4,21
19817,-5e-05,-0.00015,-0.00015,-0.00016,-0.00093,-0.00081,-0.00011,-1e-05,4,21
19818,-5e-05,-0.00015,-0.00015,-0.00016,-0.00093,-0.00081,-0.00011,-1e-05,4,21
19819,-5e-05,-0.00015,-0.00015,-0.00016,-0.00093,-0.00081,-0.00011,-1e-05,4,21
19820,-5e-05,-0.00015,-0.00015,-0.00016,-0.00093,-0.00081,-0.00011,-1e-05,4,21
19821,-5e-05,-0.00015,-0.00015,-0.00016,-0.00093,-0.00081,-0.00011,-1e-05,4,21
19822,-5e-05,-0.00015,-0.00015,-0.00016,-0.00093,-0.00081,-0.00011,-1e-05,4,21
19823,-5e-05,-0.00015,-0.00015,-0.00016,-0.00093,-0.00081,-0.00011,-1e-05,4,21
19824,-5e-05,-0.00015,-0.00015,-0.00016,-0.00093,-0.00081,-0.00011,-1e-05,4,21
19825,-5e-05,-0.00015,-0.00015,-0.00016,-0.00093,-0.00081,-0.00011,-1e-05,4,21
19826,-5e-05,-0.00015,-0.00015,-0.00016,-0.00093,-0.00081,-0.00011,-1e-05,4,21
19827,-5e-05,-0.00015,-0.00015,-0.00016,-0.00093,-0.00081,-0.00011,-1e-05,4,21
19828,-5e-05,-0.00015,-0.00015,-0.00016,-0.00093,-0.00081,-0.00011,-1e-05,4,21
19829,-5e-05,-0.00015,-0.00015,-0.00016,-0.00093,-0.00081,-0.00011,-1e-05,4,21
19830,-9e-05,-0.00012,-0.00018,-0.00063,-0.00013,0.00083,-6e-05,-0.0001,4,21
19831,-9e-05,-0.00012,-0.00018,-0.00063,-0.00013,0.00083,-6e-05,-0.0001,4,21
19832,6e-05,0.00011,0.00019,0.0003,0.00065,0.00042,0.00013,5e-05,4,21
19833,6e-05,0.00011,0.00019,0.0003,0.00065,0.00042,0.00013,5e-05,4,21
19834,6e-05,0.00011,0.00019,0.0003,0.00065,0.00042,0.00013,5e-05,4,21
19835,6e-05,0.00011,0.00019,0.0003,0.00065,0.00042,0.00013,5e-05,4,21
19837,6e-05,0.00011,0.00019,0.0003,0.00065,0.00042,0.00013,5e-05,4,21
19839,6e-05,0.00011,0.00019,0.0003,0.00065,0.00042,0.00013,5e-05,4,21
19840,6e-05,0.00011,0.00019,0.0003,0.00065,0.00042,0.00013,5e-05,4,21
19841,6e-05,0.00011,0.00019,0.0003,0.00065,0.00042,0.00013,5e-05,4,21
19842,6e-05,0.00011,0.00019,0.0003,0.00065,0.00042,0.00013,5e-05,4,21
19843,6e-05,0.00011,0.00019,0.0003,0.00065,0.00042,0.00013,5e-05,4,21
19844,6e-05,0.00011,0.00019,0.0003,0.00065,0.00042,0.00013,5e-05,4,21
19845,0,2e-05,5e-05,0.00019,8e-05,4e-05,-5e-05,3e-05,4,21
19846,0,2e-05,5e-05,0.00019,8e-05,4e-05,-5e-05,3e-05,4,21
19847,-7e-05,-0.00014,-0.00029,-0.00037,-0.0001,-0.00028,-9e-05,4e-05,4,21
19848,-7e-05,-0.00014,-0.00029,-0.00037,-0.0001,-0.00028,-9e-05,4e-05,4,21
19849,-7e-05,-0.00014,-0.00029,-0.00037,-0.0001,-0.00028,-9e-05,4e-05,4,21
19850,-7e-05,-0.00014,-0.00029,-0.00037,-0.0001,-0.00028,-9e-05,4e-05,4,21
19851,-7e-05,-0.00014,-0.00029,-0.00037,-0.0001,-0.00028,-9e-05,4e-05,4,21
19852,-7e-05,-0.00014,-0.00029,-0.00037,-0.0001,-0.00028,-9e-05,4e-05,4,21
19853,-7e-05,-0.00014,-0.00029,-0.00037,-0.0001,-0.00028,-9e-05,4e-05,4,21
19854,-7e-05,-0.00014,-0.00029,-0.00037,-0.0001,-0.00028,-9e-05,4e-05,4,21
19855,-7e-05,-0.00014,-0.00029,-0.00037,-0.0001,-0.00028,-9e-05,4e-05,4,21
19856,-7e-05,-0.00014,-0.00029,-0.00037,-0.0001,-0.00028,-9e-05,4e-05,4,21
19857,-7e-05,-0.00014,-0.00029,-0.00037,-0.0001,-0.00028,-9e-05,4e-05,4,21
19858,-7e-05,-0.00014,-0.00029,-0.00037,-0.0001,-0.00028,-9e-05,4e-05,4,21
19859,-7e-05,-0.00014,-0.00029,-0.00037,-0.0001,-0.00028,-9e-05,4e-05,4,21
19860,-7e-05,-0.00014,-0.00029,-0.00037,-0.0001,-0.00028,-9e-05,4e-05,4,21
19861,-7e-05,-0.00014,-0.00029,-0.00037,-0.0001,-0.00028,-9e-05,4e-05,4,21
19862,-7e-05,-0.00014,-0.00029,-0.00037,-0.0001,-0.00028,-9e-05,4e-05,4,21
19863,-7e-05,-0.00014,-0.00029,-0.00037,-0.0001,-0.00028,-9e-05,4e-05,4,21
19864,-7e-05,-0.00014,-0.00029,-0.00037,-0.0001,-0.00028,-9e-05,4e-05,4,21
19865,-7e-05,-0.00014,-0.00029,-0.00037,-0.0001,-0.00028,-9e-05,4e-05,4,21
19866,-7e-05,-0.00014,-0.00029,-0.00037,-0.0001,-0.00028,-9e-05,4e-05,4,21
19867,-6e-05,-8e-05,-0.0001,0.00038,0.00044,0.00043,-8e-05,-0.0001,4,21
19868,5e-05,0,0,0.0003,0.0001,0.00076,0.0002,9e-05,4,21
19869,5e-05,0,0,0.0003,0.0001,0.00076,0.0002,9e-05,4,21
19870,5e-05,0,0,0.0003,0.0001,0.00076,0.0002,9e-05,4,21
19871,5e-05,0,0,0.0003,0.0001,0.00076,0.0002,9e-05,4,21
19872,5e-05,0,0,0.0003,0.0001,0.00076,0.0002,9e-05,4,21
19873,5e-05,0,0,0.0003,0.0001,0.00076,0.0002,9e-05,4,21
19874,5e-05,0,0,0.0003,0.0001,0.00076,0.0002,9e-05,4,21
19875,5e-05,0,0,0.0003,0.0001,0.00076,0.0002,9e-05,4,21
19876,5e-05,0,0,0.0003,0.0001,0.00076,0.0002,9e-05,4,21
19877,5e-05,0,0,0.0003,0.0001,0.00076,0.0002,9e-05,4,21
19878,5e-05,0,0,0.0003,0.0001,0.00076,0.0002,9e-05,4,21
19879,5e-05,0,0,0.0003,0.0001,0.00076,0.0002,9e-05,4,21
19880,5e-05,0,0,0.0003,0.0001,0.00076,0.0002,9e-05,4,21
19881,5e-05,0,0,0.0003,0.0001,0.00076,0.0002,9e-05,4,21
19882,5e-05,0,0,0.0003,0.0001,0.00076,0.0002,9e-05,4,21
19883,5e-05,0,0,0.0003,0.0001,0.00076,0.0002,9e-05,4,21
19884,5e-05,0,0,0.0003,0.0001,0.00076,0.0002,9e-05,4,21
19885,5e-05,0,0,0.0003,0.0001,0.00076,0.0002,9e-05,4,21
19887,5e-05,0,0,0.0003,0.0001,0.00076,0.0002,9e-05,4,21
19889,5e-05,0,0,0.0003,0.0001,0.00076,0.0002,9e-05,4,21
19890,-1e-05,-3e-05,-8e-05,-0.00077,-0.00035,-0.00037,-2e-05,0.00017,4,21
19891,-1e-05,-3e-05,-8e-05,-0.00077,-0.00035,-0.00037,-2e-05,0.00017,4,21
19892,-1e-05,-3e-05,-8e-05,-0.00077,-0.00035,-0.00037,-2e-05,0.00017,4,21
19893,-1e-05,-3e-05,-8e-05,-0.00077,-0.00035,-0.00037,-2e-05,0.00017,4,21
19894,-1e-05,-3e-05,-8e-05,-0.00077,-0.00035,-0.00037,-2e-05,0.00017,4,21
19895,-1e-05,-3e-05,-8e-05,-0.00077,-0.00035,-0.00037,-2e-05,0.00017,4,21
19896,-1e-05,-3e-05,-8e-05,-0.00077,-0.00035,-0.00037,-2e-05,0.00017,4,21
19897,-1e-05,-3e-05,-8e-05,-0.00077,-0.00035,-0.00037,-2e-05,0.00017,4,21
19898,-1e-05,-3e-05,-8e-05,-0.00077,-0.00035,-0.00037,-2e-05,0.00017,4,21
19899,-1e-05,-3e-05,-8e-05,-0.00077,-0.00035,-0.00037,-2e-05,0.00017,4,21
19900,-1e-05,-3e-05,-8e-05,-0.00077,-0.00035,-0.00037,-2e-05,0.00017,4,21
19901,-1e-05,-3e-05,-8e-05,-0.00077,-0.00035,-0.00037,-2e-05,0.00017,4,21
19902,-1e-05,-3e-05,-8e-05,-0.00077,-0.00035,-0.00037,-2e-05,0.00017,4,21
19903,-1e-05,-3e-05,-8e-05,-0.00077,-0.00035,-0.00037,-2e-05,0.00017,4,21
19904,-5e-05,-7e-05,-8e-05,0.00018,0.00049,0.00066,0.00019,2e-05,4,21
19905,-2e-05,1e-05,-2e-05,-5e-05,0.00077,0.00031,4e-05,-0.00013,4,21
19906,-2e-05,1e-05,-2e-05,-5e-05,0.00077,0.00031,4e-05,-0.00013,4,21
19907,-2e-05,1e-05,-2e-05,-5e-05,0.00077,0.00031,4e-05,-0.00013,4,21
19908,-2e-05,1e-05,-2e-05,-5e-05,0.00077,0.00031,4e-05,-0.00013,4,21
19909,-2e-05,1e-05,-2e-05,-5e-05,0.00077,0.00031,4e-05,-0.00013,4,21
19910,-2e-05,1e-05,-2e-05,-5e-05,0.00077,0.00031,4e-05,-0.00013,4,21
19911,-2e-05,1e-05,-2e-05,-5e-05,0.00077,0.00031,4e-05,-0.00013,4,21
19912,-2e-05,1e-05,-2e-05,-5e-05,0.00077,0.00031,4e-05,-0.00013,4,21
19913,-2e-05,1e-05,-2e-05,-5e-05,0.00077,0.00031,4e-05,-0.00013,4,21
19914,-2e-05,1e-05,-2e-05,-5e-05,0.00077,0.00031,4e-05,-0.00013,4,21
19915,-2e-05,1e-05,-2e-05,-5e-05,0.00077,0.00031,4e-05,-0.00013,4,21
19916,-2e-05,1e-05,-2e-05,-5e-05,0.00077,0.00031,4e-05,-0.00013,4,21
19917,-2e-05,1e-05,-2e-05,-5e-05,0.00077,0.00031,4e-05,-0.00013,4,21
19918,-2e-05,1e-05,-2e-05,-5e-05,0.00077,0.00031,4e-05,-0.00013,4,21
19919,-2e-05,1e-05,-2e-05,-5e-05,0.00077,0.00031,4e-05,-0.00013,4,21
19920,-2e-05,1e-05,-2e-05,-5e-05,0.00077,0.00031,4e-05,-0.00013,4,21
19921,-2e-05,1e-05,-2e-05,-5e-05,0.00077,0.00031,4e-05,-0.00013,4,21
19922,-2e-05,1e-05,-2e-05,-5e-05,0.00077,0.00031,4e-05,-0.00013,4,21
19923,-2e-05,1e-05,-2e-05,-5e-05,0.00077,0.00031,4e-05,-0.00013,4,21
19924,-2e-05,1e-05,-2e-05,-5e-05,0.00077,0.00031,4e-05,-0.00013,4,21
19925,-2e-05,1e-05,-2e-05,-5e-05,0.00077,0.00031,4e-05,-0.00013,4,21
19926,-2e-05,1e-05,-2e-05,-5e-05,0.00077,0.00031,4e-05,-0.00013,4,21
19927,3e-05,5e-05,0.00012,0.00025,-7e-05,-0.00014,3e-05,4e-05,4,21
19928,2e-05,7e-05,0.00011,-0.0003,-0.00019,0.001,-1e-05,-2e-05,4,21
19929,2e-05,7e-05,0.00011,-0.0003,-0.00019,0.001,-1e-05,-2e-05,4,21
19930,2e-05,7e-05,0.00011,-0.0003,-0.00019,0.001,-1e-05,-2e-05,4,21
19931,2e-05,7e-05,0.00011,-0.0003,-0.00019,0.001,-1e-05,-2e-05,4,21
19932,2e-05,7e-05,0.00011,-0.0003,-0.00019,0.001,-1e-05,-2e-05,4,21
19933,2e-05,7e-05,0.00011,-0.0003,-0.00019,0.001,-1e-05,-2e-05,4,21
19934,2e-05,7e-05,0.00011,-0.0003,-0.00019,0.001,-1e-05,-2e-05,4,21
19935,2e-05,7e-05,0.00011,-0.0003,-0.00019,0.001,-1e-05,-2e-05,4,21
19937,2e-05,7e-05,0.00011,-0.0003,-0.00019,0.001,-1e-05,-2e-05,4,21
19939,2e-05,7e-05,0.00011,-0.0003,-0.00019,0.001,-1e-05,-2e-05,4,21
19940,2e-05,7e-05,0.00011,-0.0003,-0.00019,0.001,-1e-05,-2e-05,4,21
19941,2e-05,7e-05,0.00011,-0.0003,-0.00019,0.001,-1e-05,-2e-05,4,21
19942,2e-05,7e-05,0.00011,-0.0003,-0.00019,0.001,-1e-05,-2e-05,4,21
19943,2e-05,7e-05,0.00011,-0.0003,-0.00019,0.001,-1e-05,-2e-05,4,21
19944,2e-05,7e-05,0.00011,-0.0003,-0.00019,0.001,-1e-05,-2e-05,4,21
19945,2e-05,7e-05,0.00011,-0.0003,-0.00019,0.001,-1e-05,-2e-05,4,21
19946,2e-05,7e-05,0.00011,-0.0003,-0.00019,0.001,-1e-05,-2e-05,4,21
19947,2e-05,7e-05,0.00011,-0.0003,-0.00019,0.001,-1e-05,-2e-05,4,21
19948,2e-05,7e-05,0.00011,-0.0003,-0.00019,0.001,-1e-05,-2e-05,4,21
19949,-1e-05,2e-05,7e-05,0.00071,0.00076,0.00055,-5e-05,0,4,21
19950,-4e-05,-0.0001,-0.00022,-0.00109,-0.00082,-0.00047,-4e-05,0.00011,4,21
19951,-5e-05,-6e-05,-5e-05,0.0006,-0.00128,-0.00016,-8e-05,-0.00018,4,21
19952,-5e-05,-6e-05,-5e-05,0.0006,-0.00128,-0.00016,-8e-05,-0.00018,4,21
19953,-5e-05,-6e-05,-5e-05,0.0006,-0.00128,-0.00016,-8e-05,-0.00018,4,21
19954,-5e-05,-6e-05,-5e-05,0.0006,-0.00128,-0.00016,-8e-05,-0.00018,4,21
19955,-5e-05,-6e-05,-5e-05,0.0006,-0.00128,-0.00016,-8e-05,-0.00018,4,21
19956,-5e-05,-6e-05,-5e-05,0.0006,-0.00128,-0.00016,-8e-05,-0.00018,4,21
19957,-5e-05,-6e-05,-5e-05,0.0006,-0.00128,-0.00016,-8e-05,-0.00018,4,21
19958,-5e-05,-6e-05,-5e-05,0.0006,-0.00128,-0.00016,-8e-05,-0.00018,4,21
19959,-5e-05,-6e-05,-5e-05,0.0006,-0.00128,-0.00016,-8e-05,-0.00018,4,21
19960,-5e-05,-6e-05,-5e-05,0.0006,-0.00128,-0.00016,-8e-05,-0.00018,4,21
19961,-5e-05,-6e-05,-5e-05,0.0006,-0.00128,-0.00016,-8e-05,-0.00018,4,21
19962,-5e-05,-6e-05,-5e-05,0.0006,-0.00128,-0.00016,-8e-05,-0.00018,4,21
19963,-5e-05,-6e-05,-5e-05,0.0006,-0.00128,-0.00016,-8e-05,-0.00018,4,21
19964,3e-05,3e-05,4e-05,-0.0003,0.00079,0.00083,0.00012,8e-05,4,21
19965,-2e-05,-3e-05,-5e-05,-0.00052,0.00079,3e-05,-6e-05,-8e-05,4,21
19966,-2e-05,-3e-05,-5e-05,-0.00052,0.00079,3e-05,-6e-05,-8e-05,4,21
19967,-2e-05,-3e-05,-5e-05,-0.00052,0.00079,3e-05,-6e-05,-8e-05,4,21
19968,-2e-05,-3e-05,-5e-05,-0.00052,0.00079,3e-05,-6e-05,-8e-05,4,21
19969,-2e-05,-3e-05,-5e-05,-0.00052,0.00079,3e-05,-6e-05,-8e-05,4,21
19970,-2e-05,-3e-05,-5e-05,-0.00052,0.00079,3e-05,-6e-05,-8e-05,4,21
19971,-2e-05,-3e-05,-5e-05,-0.00052,0.00079,3e-05,-6e-05,-8e-05,4,21
19972,-2e-05,-3e-05,-5e-05,-0.00052,0.00079,3e-05,-6e-05,-8e-05,4,21
19973,-2e-05,-3e-05,-5e-05,-0.00052,0.00079,3e-05,-6e-05,-8e-05,4,21
19974,-2e-05,-3e-05,-5e-05,-0.00052,0.00079,3e-05,-6e-05,-8e-05,4,21
19975,-2e-05,-3e-05,-5e-05,-0.00052,0.00079,3e-05,-6e-05,-8e-05,4,21
19976,-2e-05,-3e-05,-5e-05,-0.00052,0.00079,3e-05,-6e-05,-8e-05,4,21
19977,-2e-05,-3e-05,-5e-05,-0.00052,0.00079,3e-05,-6e-05,-8e-05,4,21
19978,-2e-05,-3e-05,-5e-05,-0.00052,0.00079,3e-05,-6e-05,-8e-05,4,21
19979,-2e-05,-3e-05,-5e-05,-0.00052,0.00079,3e-05,-6e-05,-8e-05,4,21
19980,-2e-05,-3e-05,-5e-05,-0.00052,0.00079,3e-05,-6e-05,-8e-05,4,21
19981,-2e-05,-3e-05,-5e-05,-0.00052,0.00079,3e-05,-6e-05,-8e-05,4,21
19982,-2e-05,-3e-05,-5e-05,-0.00052,0.00079,3e-05,-6e-05,-8e-05,4,21
19983,-2e-05,-3e-05,-5e-05,-0.00052,0.00079,3e-05,-6e-05,-8e-05,4,21
19984,-2e-05,-3e-05,-5e-05,-0.00052,0.00079,3e-05,-6e-05,-8e-05,4,21
19985,-2e-05,-3e-05,-5e-05,-0.00052,0.00079,3e-05,-6e-05,-8e-05,4,21
19987,-2e-05,-3e-05,-5e-05,-0.00052,0.00079,3e-05,-6e-05,-8e-05,4,21
19989,-3e-05,-6e-05,-9e-05,8e-05,-0.00094,-6e-05,-2e-05,-8e-05,4,21
19990,-3e-05,-6e-05,-9e-05,8e-05,-0.00094,-6e-05,-2e-05,-8e-05,4,21
19991,-3e-05,-6e-05,-9e-05,8e-05,-0.00094,-6e-05,-2e-05,-8e-05,4,21
19992,-3e-05,-6e-05,-9e-05,8e-05,-0.00094,-6e-05,-2e-05,-8e-05,4,21
19993,-3e-05,-6e-05,-9e-05,8e-05,-0.00094,-6e-05,-2e-05,-8e-05,4,21
19994,-3e-05,-6e-05,-9e-05,8e-05,-0.00094,-6e-05,-2e-05,-8e-05,4,21
19995,-3e-05,-6e-05,-9e-05,8e-05,-0.00094,-6e-05,-2e-05,-8e-05,4,21
19996,-3e-05,-6e-05,-9e-05,8e-05,-0.00094,-6e-05,-2e-05,-8e-05,4,21
19997,-3e-05,-6e-05,-9e-05,8e-05,-0.00094,-6e-05,-2e-05,-8e-05,4,21
19998,-3e-05,-6e-05,-9e-05,8e-05,-0.00094,-6e-05,-2e-05,-8e-05,4,21
19999,-3e-05,-6e-05,-9e-05,8e-05,-0.00094,-6e-05,-2e-05,-8e-05,4,21
20000,-3e-05,-6e-05,-9e-05,8e-05,-0.00094,-6e-05,-2e-05,-8e-05,4,21
20001,-3e-05,-6e-05,-9e-05,8e-05,-0.00094,-6e-05,-2e-05,-8e-05,4,21
20002,-3e-05,-6e-05,-9e-05,8e-05,-0.00094,-6e-05,-2e-05,-8e-05,4,21
20003,-3e-05,-6e-05,-9e-05,8e-05,-0.00094,-6e-05,-2e-05,-8e-05,4,21
20004,-3e-05,-6e-05,-9e-05,8e-05,-0.00094,-6e-05,-2e-05,-8e-05,4,21
20005,-3e-05,-6e-05,-9e-05,8e-05,-0.00094,-6e-05,-2e-05,-8e-05,4,21
20006,-3e-05,-6e-05,-9e-05,8e-05,-0.00094,-6e-05,-2e-05,-8e-05,4,21
20007,-3e-05,-6e-05,-9e-05,8e-05,-0.00094,-6e-05,-2e-05,-8e-05,4,21
20008,-3e-05,-6e-05,-9e-05,8e-05,-0.00094,-6e-05,-2e-05,-8e-05,4,21
20009,-3e-05,-6e-05,-9e-05,8e-05,-0.00094,-6e-05,-2e-05,-8e-05,4,21
20010,4e-05,3e-05,0.00014,-1e-05,-0.00072,-0.00042,1e-05,-3e-05,4,21
20011,4e-05,3e-05,0.00014,-1e-05,-0.00072,-0.00042,1e-05,-3e-05,4,21
20012,4e-05,3e-05,0.00014,-1e-05,-0.00072,-0.00042,1e-05,-3e-05,4,21
20013,4e-05,3e-05,0.00014,-1e-05,-0.00072,-0.00042,1e-05,-3e-05,4,21
20014,4e-05,3e-05,0.00014,-1e-05,-0.00072,-0.00042,1e-05,-3e-05,4,21
20015,4e-05,3e-05,0.00014,-1e-05,-0.00072,-0.00042,1e-05,-3e-05,4,21
20016,4e-05,3e-05,0.00014,-1e-05,-0.00072,-0.00042,1e-05,-3e-05,4,21
20017,4e-05,3e-05,0.00014,-1e-05,-0.00072,-0.00042,1e-05,-3e-05,4,21
20018,4e-05,3e-05,0.00014,-1e-05,-0.00072,-0.00042,1e-05,-3e-05,4,21
20019,4e-05,3e-05,0.00014,-1e-05,-0.00072,-0.00042,1e-05,-3e-05,4,21
20020,4e-05,3e-05,0.00014,-1e-05,-0.00072,-0.00042,1e-05,-3e-05,4,21
20021,4e-05,3e-05,0.00014,-1e-05,-0.00072,-0.00042,1e-05,-3e-05,4,21
20022,4e-05,3e-05,0.00014,-1e-05,-0.00072,-0.00042,1e-05,-3e-05,4,21
20023,4e-05,3e-05,0.00014,-1e-05,-0.00072,-0.00042,1e-05,-3e-05,4,21
20024,-5e-05,-3e-05,-3e-05,0.00036,-1e-05,-0.00094,-0.00014,1e-05,4,21
20025,-4e-05,0,-1e-05,-0.00016,0.00068,0.0002,1e-05,-1e-05,4,21
20026,-4e-05,0,-1e-05,-0.00016,0.00068,0.0002,1e-05,-1e-05,4,21
20027,-4e-05,0,-1e-05,-0.00016,0.00068,0.0002,1e-05,-1e-05,4,21
20028,-4e-05,0,-1e-05,-0.00016,0.00068,0.0002,1e-05,-1e-05,4,21
20029,-4e-05,0,-1e-05,-0.00016,0.00068,0.0002,1e-05,-1e-05,4,21
20030,-4e-05,0,-1e-05,-0.00016,0.00068,0.0002,1e-05,-1e-05,4,21
20031,-4e-05,0,-1e-05,-0.00016,0.00068,0.0002,1e-05,-1e-05,4,21
20033,-4e-05,0,-1e-05,-0.00016,0.00068,0.0002,1e-05,-1e-05,4,21
20034,-4e-05,0,-1e-05,-0.00016,0.00068,0.0002,1e-05,-1e-05,4,21
20035,-4e-05,0,-1e-05,-0.00016,0.00068,0.0002,1e-05,-1e-05,4,21
20043,-4e-05,0,-1e-05,-0.00016,0.00068,0.0002,1e-05,-1e-05,4,21
20044,-4e-05,0,-1e-05,-0.00016,0.00068,0.0002,1e-05,-1e-05,4,21
20045,-4e-05,0,-1e-05,-0.00016,0.00068,0.0002,1e-05,-1e-05,4,21
20046,-4e-05,0,-1e-05,-0.00016,0.00068,0.0002,1e-05,-1e-05,4,21
20047,2e-05,2e-05,2e-05,-0.00011,-5e-05,0.00037,3e-05,4e-05,4,21
20048,-2e-05,-6e-05,6e-05,-2e-05,0,-0.00062,0.00011,0.00011,4,21
20049,-2e-05,-6e-05,6e-05,-2e-05,0,-0.00062,0.00011,0.00011,4,21
20050,-2e-05,-6e-05,6e-05,-2e-05,0,-0.00062,0.00011,0.00011,4,21
20051,-2e-05,-6e-05,6e-05,-2e-05,0,-0.00062,0.00011,0.00011,4,21
20052,-2e-05,-6e-05,6e-05,-2e-05,0,-0.00062,0.00011,0.00011,4,21
20053,-2e-05,-6e-05,6e-05,-2e-05,0,-0.00062,0.00011,0.00011,4,21
20054,-2e-05,-6e-05,6e-05,-2e-05,0,-0.00062,0.00011,0.00011,4,21
20055,-2e-05,-6e-05,6e-05,-2e-05,0,-0.00062,0.00011,0.00011,4,21
20056,-2e-05,-6e-05,6e-05,-2e-05,0,-0.00062,0.00011,0.00011,4,21
20057,-2e-05,-6e-05,6e-05,-2e-05,0,-0.00062,0.00011,0.00011,4,21
20058,-2e-05,-6e-05,6e-05,-2e-05,0,-0.00062,0.00011,0.00011,4,21
20059,-2e-05,-6e-05,6e-05,-2e-05,0,-0.00062,0.00011,0.00011,4,21
20060,-2e-05,-6e-05,6e-05,-2e-05,0,-0.00062,0.00011,0.00011,4,21
20061,-2e-05,-6e-05,6e-05,-2e-05,0,-0.00062,0.00011,0.00011,4,21
20062,-2e-05,-6e-05,6e-05,-2e-05,0,-0.00062,0.00011,0.00011,4,21
20063,-2e-05,-6e-05,6e-05,-2e-05,0,-0.00062,0.00011,0.00011,4,21
20064,-2e-05,-6e-05,6e-05,-2e-05,0,-0.00062,0.00011,0.00011,4,21
20065,-2e-05,-6e-05,6e-05,-2e-05,0,-0.00062,0.00011,0.00011,4,21
20066,-2e-05,-6e-05,6e-05,-2e-05,0,-0.00062,0.00011,0.00011,4,21
20067,-2e-05,-6e-05,6e-05,-2e-05,0,-0.00062,0.00011,0.00011,4,21
20068,-2e-05,-6e-05,6e-05,-2e-05,0,-0.00062,0.00011,0.00011,4,21
20069,1e-05,-2e-05,4e-05,0.00067,-0.00128,-0.00044,-9e-05,-8e-05,4,21
20070,0,2e-05,-7e-05,-0.00087,-0.00096,-0.00105,-0.00015,2e-05,4,21
20071,0,2e-05,-7e-05,-0.00087,-0.00096,-0.00105,-0.00015,2e-05,4,21
20072,0,2e-05,-7e-05,-0.00087,-0.00096,-0.00105,-0.00015,2e-05,4,21
20073,0,2e-05,-7e-05,-0.00087,-0.00096,-0.00105,-0.00015,2e-05,4,21
20074,0,2e-05,-7e-05,-0.00087,-0.00096,-0.00105,-0.00015,2e-05,4,21
20075,0,2e-05,-7e-05,-0.00087,-0.00096,-0.00105,-0.00015,2e-05,4,21
20076,0,2e-05,-7e-05,-0.00087,-0.00096,-0.00105,-0.00015,2e-05,4,21
20077,0,2e-05,-7e-05,-0.00087,-0.00096,-0.00105,-0.00015,2e-05,4,21
20078,0,2e-05,-7e-05,-0.00087,-0.00096,-0.00105,-0.00015,2e-05,4,21
20079,0,2e-05,-7e-05,-0.00087,-0.00096,-0.00105,-0.00015,2e-05,4,21
20080,0,2e-05,-7e-05,-0.00087,-0.00096,-0.00105,-0.00015,2e-05,4,21
20081,0,2e-05,-7e-05,-0.00087,-0.00096,-0.00105,-0.00015,2e-05,4,21
20082,0,2e-05,-7e-05,-0.00087,-0.00096,-0.00105,-0.00015,2e-05,4,21
20083,0,2e-05,-7e-05,-0.00087,-0.00096,-0.00105,-0.00015,2e-05,4,21
20084,4e-05,3e-05,-1e-05,-3e-05,0.00094,-0.00059,-0.00022,-3e-05,4,21
20085,4e-05,3e-05,-1e-05,-3e-05,0.00094,-0.00059,-0.00022,-3e-05,4,21
20087,4e-05,3e-05,-1e-05,-3e-05,0.00094,-0.00059,-0.00022,-3e-05,4,21
20089,4e-05,3e-05,-1e-05,-3e-05,0.00094,-0.00059,-0.00022,-3e-05,4,21
20090,4e-05,3e-05,-1e-05,-3e-05,0.00094,-0.00059,-0.00022,-3e-05,4,21
20091,4e-05,3e-05,-1e-05,-3e-05,0.00094,-0.00059,-0.00022,-3e-05,4,21
20092,-4e-05,-4e-05,-5e-05,0.00021,0.0003,-0.00062,-0.00014,-6e-05,4,21
20093,-4e-05,-4e-05,-5e-05,0.00021,0.0003,-0.00062,-0.00014,-6e-05,4,21
20094,-4e-05,-4e-05,-5e-05,0.00021,0.0003,-0.00062,-0.00014,-6e-05,4,21
20095,-4e-05,-4e-05,-5e-05,0.00021,0.0003,-0.00062,-0.00014,-6e-05,4,21
20096,-4e-05,-4e-05,-5e-05,0.00021,0.0003,-0.00062,-0.00014,-6e-05,4,21
20097,-4e-05,-4e-05,-5e-05,0.00021,0.0003,-0.00062,-0.00014,-6e-05,4,21
20098,-4e-05,-4e-05,-5e-05,0.00021,0.0003,-0.00062,-0.00014,-6e-05,4,21
20099,-4e-05,-4e-05,-5e-05,0.00021,0.0003,-0.00062,-0.00014,-6e-05,4,21
20100,-4e-05,-4e-05,-5e-05,0.00021,0.0003,-0.00062,-0.00014,-6e-05,4,21
20101,-4e-05,-4e-05,-5e-05,0.00021,0.0003,-0.00062,-0.00014,-6e-05,4,21
20102,-4e-05,-4e-05,-5e-05,0.00021,0.0003,-0.00062,-0.00014,-6e-05,4,21
20103,-4e-05,-4e-05,-5e-05,0.00021,0.0003,-0.00062,-0.00014,-6e-05,4,21
20104,-4e-05,-4e-05,-5e-05,0.00021,0.0003,-0.00062,-0.00014,-6e-05,4,21
20105,-4e-05,-4e-05,-5e-05,0.00021,0.0003,-0.00062,-0.00014,-6e-05,4,21
20106,-4e-05,-4e-05,-5e-05,0.00021,0.0003,-0.00062,-0.00014,-6e-05,4,21
20107,-3e-05,2e-05,4e-05,0.0005,-0.00084,-0.0009,-7e-05,-6e-05,4,21
20108,1e-05,-3e-05,0.00011,0.00111,0.00018,-7e-05,-5e-05,-3e-05,4,21
20109,1e-05,-3e-05,0.00011,0.00111,0.00018,-7e-05,-5e-05,-3e-05,4,21
20110,1e-05,-3e-05,0.00011,0.00111,0.00018,-7e-05,-5e-05,-3e-05,4,21
20111,1e-05,-3e-05,0.00011,0.00111,0.00018,-7e-05,-5e-05,-3e-05,4,21
20112,1e-05,-3e-05,0.00011,0.00111,0.00018,-7e-05,-5e-05,-3e-05,4,21
20113,1e-05,-3e-05,0.00011,0.00111,0.00018,-7e-05,-5e-05,-3e-05,4,21
20114,1e-05,-3e-05,0.00011,0.00111,0.00018,-7e-05,-5e-05,-3e-05,4,21
20115,1e-05,-3e-05,0.00011,0.00111,0.00018,-7e-05,-5e-05,-3e-05,4,21
20116,1e-05,-3e-05,0.00011,0.00111,0.00018,-7e-05,-5e-05,-3e-05,4,21
20117,1e-05,-3e-05,0.00011,0.00111,0.00018,-7e-05,-5e-05,-3e-05,4,21
20118,1e-05,-3e-05,0.00011,0.00111,0.00018,-7e-05,-5e-05,-3e-05,4,21
20119,1e-05,-3e-05,0.00011,0.00111,0.00018,-7e-05,-5e-05,-3e-05,4,21
20120,1e-05,-3e-05,0.00011,0.00111,0.00018,-7e-05,-5e-05,-3e-05,4,21
20121,1e-05,-3e-05,0.00011,0.00111,0.00018,-7e-05,-5e-05,-3e-05,4,21
20122,1e-05,-3e-05,0.00011,0.00111,0.00018,-7e-05,-5e-05,-3e-05,4,21
20123,1e-05,-3e-05,0.00011,0.00111,0.00018,-7e-05,-5e-05,-3e-05,4,21
20124,1e-05,-3e-05,0.00011,0.00111,0.00018,-7e-05,-5e-05,-3e-05,4,21
20125,1e-05,-3e-05,0.00011,0.00111,0.00018,-7e-05,-5e-05,-3e-05,4,21
20127,1e-05,-3e-05,0.00011,0.00111,0.00018,-7e-05,-5e-05,-3e-05,4,21
20128,1e-05,-3e-05,0.00011,0.00111,0.00018,-7e-05,-5e-05,-3e-05,4,21
20129,1e-05,-3e-05,0.00011,0.00111,0.00018,-7e-05,-5e-05,-3e-05,4,21
20130,2e-05,8e-05,2e-05,-0.00121,-0.00123,-4e-05,-1e-05,-1e-05,4,21
20131,2e-05,8e-05,2e-05,-0.00121,-0.00123,-4e-05,-1e-05,-1e-05,4,21
20132,2e-05,8e-05,2e-05,-0.00121,-0.00123,-4e-05,-1e-05,-1e-05,4,21
20133,2e-05,8e-05,2e-05,-0.00121,-0.00123,-4e-05,-1e-05,-1e-05,4,21
20134,2e-05,8e-05,2e-05,-0.00121,-0.00123,-4e-05,-1e-05,-1e-05,4,21
20135,2e-05,8e-05,2e-05,-0.00121,-0.00123,-4e-05,-1e-05,-1e-05,4,21
20137,2e-05,8e-05,2e-05,-0.00121,-0.00123,-4e-05,-1e-05,-1e-05,4,21
20139,2e-05,8e-05,2e-05,-0.00121,-0.00123,-4e-05,-1e-05,-1e-05,4,21
20140,2e-05,8e-05,2e-05,-0.00121,-0.00123,-4e-05,-1e-05,-1e-05,4,21
20141,2e-05,8e-05,2e-05,-0.00121,-0.00123,-4e-05,-1e-05,-1e-05,4,21
20142,2e-05,8e-05,2e-05,-0.00121,-0.00123,-4e-05,-1e-05,-1e-05,4,21
20143,2e-05,8e-05,2e-05,-0.00121,-0.00123,-4e-05,-1e-05,-1e-05,4,21
20144,2e-05,8e-05,2e-05,-0.00121,-0.00123,-4e-05,-1e-05,-1e-05,4,21
20145,4e-05,7e-05,0.00013,0.00079,0.00115,-0.00017,8e-05,9e-05,4,21
20146,4e-05,7e-05,0.00013,0.00079,0.00115,-0.00017,8e-05,9e-05,4,21
20147,4e-05,7e-05,0.00013,0.00079,0.00115,-0.00017,8e-05,9e-05,4,21
20148,4e-05,7e-05,0.00013,0.00079,0.00115,-0.00017,8e-05,9e-05,4,21
20149,4e-05,7e-05,0.00013,0.00079,0.00115,-0.00017,8e-05,9e-05,4,21
20150,4e-05,7e-05,0.00013,0.00079,0.00115,-0.00017,8e-05,9e-05,4,21
20151,4e-05,7e-05,0.00013,0.00079,0.00115,-0.00017,8e-05,9e-05,4,21
20152,4e-05,7e-05,0.00013,0.00079,0.00115,-0.00017,8e-05,9e-05,4,21
20153,4e-05,7e-05,0.00013,0.00079,0.00115,-0.00017,8e-05,9e-05,4,21
20154,4e-05,7e-05,0.00013,0.00079,0.00115,-0.00017,8e-05,9e-05,4,21
20155,4e-05,7e-05,0.00013,0.00079,0.00115,-0.00017,8e-05,9e-05,4,21
20156,4e-05,7e-05,0.00013,0.00079,0.00115,-0.00017,8e-05,9e-05,4,21
20157,4e-05,7e-05,0.00013,0.00079,0.00115,-0.00017,8e-05,9e-05,4,21
20158,4e-05,7e-05,0.00013,0.00079,0.00115,-0.00017,8e-05,9e-05,4,21
20159,4e-05,7e-05,0.00013,0.00079,0.00115,-0.00017,8e-05,9e-05,4,21
20160,4e-05,7e-05,0.00013,0.00079,0.00115,-0.00017,8e-05,9e-05,4,21
20161,4e-05,7e-05,0.00013,0.00079,0.00115,-0.00017,8e-05,9e-05,4,21
20162,4e-05,7e-05,0.00013,0.00079,0.00115,-0.00017,8e-05,9e-05,4,21
20163,4e-05,7e-05,0.00013,0.00079,0.00115,-0.00017,8e-05,9e-05,4,21
20164,4e-05,7e-05,0.00013,0.00079,0.00115,-0.00017,8e-05,9e-05,4,21
20165,4e-05,7e-05,0.00013,0.00079,0.00115,-0.00017,8e-05,9e-05,4,21
20166,4e-05,7e-05,0.00013,0.00079,0.00115,-0.00017,8e-05,9e-05,4,21
20167,-4e-05,-2e-05,0,0.00025,4e-05,-0.00038,0,-8e-05,4,21
20168,3e-05,4e-05,0.00021,0.00126,-0.00022,0.00089,0.00012,2e-05,4,21
20169,3e-05,4e-05,0.00021,0.00126,-0.00022,0.00089,0.00012,2e-05,4,21
20170,3e-05,4e-05,0.00021,0.00126,-0.00022,0.00089,0.00012,2e-05,4,21
20171,3e-05,4e-05,0.00021,0.00126,-0.00022,0.00089,0.00012,2e-05,4,21
20172,3e-05,4e-05,0.00021,0.00126,-0.00022,0.00089,0.00012,2e-05,4,21
20173,3e-05,4e-05,0.00021,0.00126,-0.00022,0.00089,0.00012,2e-05,4,21
20174,3e-05,4e-05,0.00021,0.00126,-0.00022,0.00089,0.00012,2e-05,4,21
20175,3e-05,4e-05,0.00021,0.00126,-0.00022,0.00089,0.00012,2e-05,4,21
20176,3e-05,4e-05,0.00021,0.00126,-0.00022,0.00089,0.00012,2e-05,4,21
20177,3e-05,4e-05,0.00021,0.00126,-0.00022,0.00089,0.00012,2e-05,4,21
20178,3e-05,4e-05,0.00021,0.00126,-0.00022,0.00089,0.00012,2e-05,4,21
20179,3e-05,4e-05,0.00021,0.00126,-0.00022,0.00089,0.00012,2e-05,4,21
20180,3e-05,4e-05,0.00021,0.00126,-0.00022,0.00089,0.00012,2e-05,4,21
20181,3e-05,4e-05,0.00021,0.00126,-0.00022,0.00089,0.00012,2e-05,4,21
20182,3e-05,4e-05,0.00021,0.00126,-0.00022,0.00089,0.00012,2e-05,4,21
20183,3e-05,4e-05,0.00021,0.00126,-0.00022,0.00089,0.00012,2e-05,4,21
20184,3e-05,4e-05,0.00021,0.00126,-0.00022,0.00089,0.00012,2e-05,4,21
20185,3e-05,4e-05,0.00021,0.00126,-0.00022,0.00089,0.00012,2e-05,4,21
20187,3e-05,4e-05,0.00021,0.00126,-0.00022,0.00089,0.00012,2e-05,4,21
51612,-1e-05,-7e-05,-0.00012,-0.00077,-0.00014,0.00035,0,-4e-05,4,21
51613,-1e-05,-7e-05,-0.00012,-0.00077,-0.00014,0.00035,0,-4e-05,4,21
51614,-1e-05,-7e-05,-0.00012,-0.00077,-0.00014,0.00035,0,-4e-05,4,21
51615,-1e-05,-7e-05,-0.00012,-0.00077,-0.00014,0.00035,0,-4e-05,4,21
51616,-1e-05,-7e-05,-0.00012,-0.00077,-0.00014,0.00035,0,-4e-05,4,21
51617,-1e-05,-7e-05,-0.00012,-0.00077,-0.00014,0.00035,0,-4e-05,4,21
51618,-1e-05,-7e-05,-0.00012,-0.00077,-0.00014,0.00035,0,-4e-05,4,21
51619,-1e-05,-7e-05,-0.00012,-0.00077,-0.00014,0.00035,0,-4e-05,4,21
51620,-1e-05,-7e-05,-0.00012,-0.00077,-0.00014,0.00035,0,-4e-05,4,21
51621,-1e-05,-7e-05,-0.00012,-0.00077,-0.00014,0.00035,0,-4e-05,4,21
51622,-1e-05,-7e-05,-0.00012,-0.00077,-0.00014,0.00035,0,-4e-05,4,21
51623,-1e-05,-7e-05,-0.00012,-0.00077,-0.00014,0.00035,0,-4e-05,4,21
51624,-1e-05,-7e-05,-0.00012,-0.00077,-0.00014,0.00035,0,-4e-05,4,21
51625,-1e-05,-7e-05,-0.00012,-0.00077,-0.00014,0.00035,0,-4e-05,4,21
51626,-1e-05,-7e-05,-0.00012,-0.00077,-0.00014,0.00035,0,-4e-05,4,21
51627,-1e-05,-7e-05,-0.00012,-0.00077,-0.00014,0.00035,0,-4e-05,4,21
51628,-1e-05,-7e-05,-0.00012,-0.00077,-0.00014,0.00035,0,-4e-05,4,21
51629,-8e-05,-3e-05,-8e-05,-6e-05,-0.00092,0.00037,-0.0001,-5e-05,4,21
51630,3e-05,2e-05,8e-05,0.00039,0.00064,0.00018,7e-05,-1e-05,4,21
51631,3e-05,2e-05,8e-05,0.00039,0.00064,0.00018,7e-05,-1e-05,4,21
51632,3e-05,2e-05,8e-05,0.00039,0.00064,0.00018,7e-05,-1e-05,4,21
51633,3e-05,2e-05,8e-05,0.00039,0.00064,0.00018,7e-05,-1e-05,4,21
51634,3e-05,2e-05,8e-05,0.00039,0.00064,0.00018,7e-05,-1e-05,4,21
51635,3e-05,2e-05,8e-05,0.00039,0.00064,0.00018,7e-05,-1e-05,4,21
51637,3e-05,2e-05,8e-05,0.00039,0.00064,0.00018,7e-05,-1e-05,4,21
51639,3e-05,2e-05,8e-05,0.00039,0.00064,0.00018,7e-05,-1e-05,4,21
51640,3e-05,2e-05,8e-05,0.00039,0.00064,0.00018,7e-05,-1e-05,4,21
51641,3e-05,2e-05,8e-05,0.00039,0.00064,0.00018,7e-05,-1e-05,4,21
51642,3e-05,2e-05,8e-05,0.00039,0.00064,0.00018,7e-05,-1e-05,4,21
51643,3e-05,2e-05,8e-05,0.00039,0.00064,0.00018,7e-05,-1e-05,4,21
51644,3e-05,2e-05,8e-05,0.00039,0.00064,0.00018,7e-05,-1e-05,4,21
51645,3e-05,2e-05,8e-05,0.00039,0.00064,0.00018,7e-05,-1e-05,4,21
51646,3e-05,2e-05,8e-05,0.00039,0.00064,0.00018,7e-05,-1e-05,4,21
