18463,-0.00014,5e-05,0.00104,0.00069,2e-05,-0.00012,-7e-05,-8e-05,4,22
18464,-0.00014,5e-05,0.00104,0.00069,2e-05,-0.00012,-7e-05,-8e-05,4,22
18465,-0.00014,5e-05,0.00104,0.00069,2e-05,-0.00012,-7e-05,-8e-05,4,22
18466,-0.00014,5e-05,0.00104,0.00069,2e-05,-0.00012,-7e-05,-8e-05,4,22
18467,-0.00014,5e-05,0.00104,0.00069,2e-05,-0.00012,-7e-05,-8e-05,4,22
18468,-0.00014,5e-05,0.00104,0.00069,2e-05,-0.00012,-7e-05,-8e-05,4,22
18469,-0.00014,5e-05,0.00104,0.00069,2e-05,-0.00012,-7e-05,-8e-05,4,22
18470,-0.00014,5e-05,0.00104,0.00069,2e-05,-0.00012,-7e-05,-8e-05,4,22
18471,-0.00014,5e-05,0.00104,0.00069,2e-05,-0.00012,-7e-05,-8e-05,4,22
18472,-0.00014,5e-05,0.00104,0.00069,2e-05,-0.00012,-7e-05,-8e-05,4,22
18473,-0.00014,5e-05,0.00104,0.00069,2e-05,-0.00012,-7e-05,-8e-05,4,22
18474,-0.00014,5e-05,0.00104,0.00069,2e-05,-0.00012,-7e-05,-8e-05,4,22
18475,-0.00014,5e-05,0.00104,0.00069,2e-05,-0.00012,-7e-05,-8e-05,4,22
18476,-0.00014,5e-05,0.00104,0.00069,2e-05,-0.00012,-7e-05,-8e-05,4,22
18477,-0.00014,5e-05,0.00104,0.00069,2e-05,-0.00012,-7e-05,-8e-05,4,22
18478,-0.00014,5e-05,0.00104,0.00069,2e-05,-0.00012,-7e-05,-8e-05,4,22
18479,-0.00014,5e-05,0.00104,0.00069,2e-05,-0.00012,-7e-05,-8e-05,4,22
18480,8e-05,0.00013,0.00029,-0.0007,-0.00011,-1e-05,-5e-05,0,4,22
18481,0.00021,-0.00011,-0.0008,-0.00079,4e-05,0.00021,0.0001,0.00016,4,22
18482,0.00021,-0.00011,-0.0008,-0.00079,4e-05,0.00021,0.0001,0.00016,4,22
18483,0.00021,-0.00011,-0.0008,-0.00079,4e-05,0.00021,0.0001,0.00016,4,22
18484,0.00021,-0.00011,-0.0008,-0.00079,4e-05,0.00021,0.0001,0.00016,4,22
18485,0.00021,-0.00011,-0.0008,-0.00079,4e-05,0.00021,0.0001,0.00016,4,22
18487,0.00021,-0.00011,-0.0008,-0.00079,4e-05,0.00021,0.0001,0.00016,4,22
18489,0.00021,-0.00011,-0.0008,-0.00079,4e-05,0.00021,0.0001,0.00016,4,22
18490,0.00021,-0.00011,-0.0008,-0.00079,4e-05,0.00021,0.0001,0.00016,4,22
18491,0.00021,-0.00011,-0.0008,-0.00079,4e-05,0.00021,0.0001,0.00016,4,22
18492,0.00021,-0.00011,-0.0008,-0.00079,4e-05,0.00021,0.0001,0.00016,4,22
18493,0.00021,-0.00011,-0.0008,-0.00079,4e-05,0.00021,0.0001,0.00016,4,22
18494,0.00027,0.00033,0.00052,0.00015,0.00018,0.00014,0.00011,0.00019,4,22
18495,0.00027,0.00033,0.00052,0.00015,0.00018,0.00014,0.00011,0.00019,4,22
18496,-0.00051,-0.00038,0.00059,0.00057,-0.00043,-0.00062,-0.00026,-0.00023,4,22
18497,-0.00051,-0.00038,0.00059,0.00057,-0.00043,-0.00062,-0.00026,-0.00023,4,22
18498,-0.00051,-0.00038,0.00059,0.00057,-0.00043,-0.00062,-0.00026,-0.00023,4,22
18499,-0.00051,-0.00038,0.00059,0.00057,-0.00043,-0.00062,-0.00026,-0.00023,4,22
18500,-0.00051,-0.00038,0.00059,0.00057,-0.00043,-0.00062,-0.00026,-0.00023,4,22
18501,-0.00051,-0.00038,0.00059,0.00057,-0.00043,-0.00062,-0.00026,-0.00023,4,22
18502,-0.00051,-0.00038,0.00059,0.00057,-0.00043,-0.00062,-0.00026,-0.00023,4,22
18503,-0.00051,-0.00038,0.00059,0.00057,-0.00043,-0.00062,-0.00026,-0.00023,4,22
18504,-0.00051,-0.00038,0.00059,0.00057,-0.00043,-0.00062,-0.00026,-0.00023,4,22
18505,-0.00051,-0.00038,0.00059,0.00057,-0.00043,-0.00062,-0.00026,-0.00023,4,22
18506,-0.00051,-0.00038,0.00059,0.00057,-0.00043,-0.00062,-0.00026,-0.00023,4,22
18507,-0.00051,-0.00038,0.00059,0.00057,-0.00043,-0.00062,-0.00026,-0.00023,4,22
18508,-0.00051,-0.00038,0.00059,0.00057,-0.00043,-0.00062,-0.00026,-0.00023,4,22
18509,-0.00051,-0.00038,0.00059,0.00057,-0.00043,-0.00062,-0.00026,-0.00023,4,22
18510,-0.00051,-0.00038,0.00059,0.00057,-0.00043,-0.00062,-0.00026,-0.00023,4,22
18511,-0.00051,-0.00038,0.00059,0.00057,-0.00043,-0.00062,-0.00026,-0.00023,4,22
18512,-0.00051,-0.00038,0.00059,0.00057,-0.00043,-0.00062,-0.00026,-0.00023,4,22
18513,-0.00051,-0.00038,0.00059,0.00057,-0.00043,-0.00062,-0.00026,-0.00023,4,22
18514,-0.00051,-0.00038,0.00059,0.00057,-0.00043,-0.00062,-0.00026,-0.00023,4,22
18515,-0.00051,-0.00038,0.00059,0.00057,-0.00043,-0.00062,-0.00026,-0.00023,4,22
18516,-0.00051,-0.00038,0.00059,0.00057,-0.00043,-0.00062,-0.00026,-0.00023,4,22
18517,-0.00051,-0.00038,0.00059,0.00057,-0.00043,-0.00062,-0.00026,-0.00023,4,22
18518,-0.00051,-0.00038,0.00059,0.00057,-0.00043,-0.00062,-0.00026,-0.00023,4,22
18519,-0.00051,-0.00038,0.00059,0.00057,-0.00043,-0.00062,-0.00026,-0.00023,4,22
18520,-0.00051,-0.00038,0.00059,0.00057,-0.00043,-0.00062,-0.00026,-0.00023,4,22
18521,-0.00051,-0.00038,0.00059,0.00057,-0.00043,-0.00062,-0.00026,-0.00023,4,22
18522,-0.00051,-0.00038,0.00059,0.00057,-0.00043,-0.00062,-0.00026,-0.00023,4,22
18523,-0.00051,-0.00038,0.00059,0.00057,-0.00043,-0.00062,-0.00026,-0.00023,4,22
18524,8e-05,-6e-05,-0.00035,-4e-05,-0.0001,-4e-05,-6e-05,-3e-05,4,22
18525,8e-05,-6e-05,-0.00035,-4e-05,-0.0001,-4e-05,-6e-05,-3e-05,4,22
18526,-0.00033,-0.00061,-0.00097,0.00108,0.00032,-0.0001,-0.00012,-0.0002,4,22
18527,-0.00033,-0.00061,-0.00097,0.00108,0.00032,-0.0001,-0.00012,-0.0002,4,22
18528,-0.00033,-0.00061,-0.00097,0.00108,0.00032,-0.0001,-0.00012,-0.0002,4,22
18529,-0.00033,-0.00061,-0.00097,0.00108,0.00032,-0.0001,-0.00012,-0.0002,4,22
18530,-0.00033,-0.00061,-0.00097,0.00108,0.00032,-0.0001,-0.00012,-0.0002,4,22
18531,-0.00033,-0.00061,-0.00097,0.00108,0.00032,-0.0001,-0.00012,-0.0002,4,22
18532,-0.00033,-0.00061,-0.00097,0.00108,0.00032,-0.0001,-0.00012,-0.0002,4,22
18533,-0.00033,-0.00061,-0.00097,0.00108,0.00032,-0.0001,-0.00012,-0.0002,4,22
18534,-0.00033,-0.00061,-0.00097,0.00108,0.00032,-0.0001,-0.00012,-0.0002,4,22
18535,-0.00033,-0.00061,-0.00097,0.00108,0.00032,-0.0001,-0.00012,-0.0002,4,22
18537,-0.00033,-0.00061,-0.00097,0.00108,0.00032,-0.0001,-0.00012,-0.0002,4,22
18539,0.00046,0.00051,-0.00027,0.00058,0.00016,0.00028,0.0002,0.00029,4,22
18540,-0.0003,0.00015,0.00127,0.00117,0.00011,-0.00014,-6e-05,-0.00015,4,22
18541,-8e-05,-0.00039,-0.00096,-0.00075,-0.00017,1e-05,1e-05,0,4,22
18542,-8e-05,-0.00039,-0.00096,-0.00075,-0.00017,1e-05,1e-05,0,4,22
18543,-8e-05,-0.00039,-0.00096,-0.00075,-0.00017,1e-05,1e-05,0,4,22
18544,-8e-05,-0.00039,-0.00096,-0.00075,-0.00017,1e-05,1e-05,0,4,22
18545,-8e-05,-0.00039,-0.00096,-0.00075,-0.00017,1e-05,1e-05,0,4,22
18546,-8e-05,-0.00039,-0.00096,-0.00075,-0.00017,1e-05,1e-05,0,4,22
18547,-8e-05,-0.00039,-0.00096,-0.00075,-0.00017,1e-05,1e-05,0,4,22
18548,-8e-05,-0.00039,-0.00096,-0.00075,-0.00017,1e-05,1e-05,0,4,22
18549,-8e-05,-0.00039,-0.00096,-0.00075,-0.00017,1e-05,1e-05,0,4,22
18550,-8e-05,-0.00039,-0.00096,-0.00075,-0.00017,1e-05,1e-05,0,4,22
18551,-8e-05,-0.00039,-0.00096,-0.00075,-0.00017,1e-05,1e-05,0,4,22
18552,-8e-05,-0.00039,-0.00096,-0.00075,-0.00017,1e-05,1e-05,0,4,22
18553,-8e-05,-0.00039,-0.00096,-0.00075,-0.00017,1e-05,1e-05,0,4,22
18554,-3e-05,-0.00018,-0.0006,-0.00069,-1e-05,3e-05,0,6e-05,4,22
18555,-3e-05,-0.00018,-0.0006,-0.00069,-1e-05,3e-05,0,6e-05,4,22
18556,-3e-05,-0.00018,-0.0006,-0.00069,-1e-05,3e-05,0,6e-05,4,22
18557,-3e-05,-0.00018,-0.0006,-0.00069,-1e-05,3e-05,0,6e-05,4,22
18558,-3e-05,-0.00018,-0.0006,-0.00069,-1e-05,3e-05,0,6e-05,4,22
18559,-3e-05,-0.00018,-0.0006,-0.00069,-1e-05,3e-05,0,6e-05,4,22
18560,0.00012,6e-05,0.00015,-0.0007,-1e-05,0.00017,0.00011,6e-05,4,22
18561,0.00012,6e-05,0.00015,-0.0007,-1e-05,0.00017,0.00011,6e-05,4,22
18562,0.00012,6e-05,0.00015,-0.0007,-1e-05,0.00017,0.00011,6e-05,4,22
18563,0.00012,6e-05,0.00015,-0.0007,-1e-05,0.00017,0.00011,6e-05,4,22
18564,0.00012,6e-05,0.00015,-0.0007,-1e-05,0.00017,0.00011,6e-05,4,22
18565,0.00012,6e-05,0.00015,-0.0007,-1e-05,0.00017,0.00011,6e-05,4,22
18566,0.00012,6e-05,0.00015,-0.0007,-1e-05,0.00017,0.00011,6e-05,4,22
18567,0.00012,6e-05,0.00015,-0.0007,-1e-05,0.00017,0.00011,6e-05,4,22
18568,0.00012,6e-05,0.00015,-0.0007,-1e-05,0.00017,0.00011,6e-05,4,22
18569,0.00012,6e-05,0.00015,-0.0007,-1e-05,0.00017,0.00011,6e-05,4,22
18570,0.00012,6e-05,0.00015,-0.0007,-1e-05,0.00017,0.00011,6e-05,4,22
18571,0.00012,6e-05,0.00015,-0.0007,-1e-05,0.00017,0.00011,6e-05,4,22
18572,0.00012,6e-05,0.00015,-0.0007,-1e-05,0.00017,0.00011,6e-05,4,22
18573,0.00012,6e-05,0.00015,-0.0007,-1e-05,0.00017,0.00011,6e-05,4,22
18574,0.00012,6e-05,0.00015,-0.0007,-1e-05,0.00017,0.00011,6e-05,4,22
18575,0.00012,6e-05,0.00015,-0.0007,-1e-05,0.00017,0.00011,6e-05,4,22
18576,0.00012,6e-05,0.00015,-0.0007,-1e-05,0.00017,0.00011,6e-05,4,22
18577,-0.00024,-0.00039,0.00074,0.00019,-8e-05,-0.00014,-9e-05,-0.00024,4,22
18578,0.0003,0.00066,0.00062,-0.00056,0.00012,0.00015,7e-05,0.00015,4,22
18579,0.0003,0.00066,0.00062,-0.00056,0.00012,0.00015,7e-05,0.00015,4,22
18580,0.0003,0.00066,0.00062,-0.00056,0.00012,0.00015,7e-05,0.00015,4,22
18581,0.0003,0.00066,0.00062,-0.00056,0.00012,0.00015,7e-05,0.00015,4,22
18582,0.0003,0.00066,0.00062,-0.00056,0.00012,0.00015,7e-05,0.00015,4,22
18583,0.0003,0.00066,0.00062,-0.00056,0.00012,0.00015,7e-05,0.00015,4,22
18584,0.0003,0.00066,0.00062,-0.00056,0.00012,0.00015,7e-05,0.00015,4,22
18585,0.0003,0.00066,0.00062,-0.00056,0.00012,0.00015,7e-05,0.00015,4,22
18587,0.0003,0.00066,0.00062,-0.00056,0.00012,0.00015,7e-05,0.00015,4,22
18589,0.0003,0.00066,0.00062,-0.00056,0.00012,0.00015,7e-05,0.00015,4,22
18590,0.0003,0.00066,0.00062,-0.00056,0.00012,0.00015,7e-05,0.00015,4,22
18591,0.0003,0.00066,0.00062,-0.00056,0.00012,0.00015,7e-05,0.00015,4,22
18592,0.0003,0.00066,0.00062,-0.00056,0.00012,0.00015,7e-05,0.00015,4,22
18593,0.0003,0.00066,0.00062,-0.00056,0.00012,0.00015,7e-05,0.00015,4,22
18594,0.0003,0.00066,0.00062,-0.00056,0.00012,0.00015,7e-05,0.00015,4,22
18595,0.0003,0.00066,0.00062,-0.00056,0.00012,0.00015,7e-05,0.00015,4,22
18596,0.0003,0.00066,0.00062,-0.00056,0.00012,0.00015,7e-05,0.00015,4,22
18597,0.0003,0.00066,0.00062,-0.00056,0.00012,0.00015,7e-05,0.00015,4,22
18598,0.0003,0.00066,0.00062,-0.00056,0.00012,0.00015,7e-05,0.00015,4,22
18599,0.0003,0.00066,0.00062,-0.00056,0.00012,0.00015,7e-05,0.00015,4,22
18600,-0.00023,-0.00044,-0.00021,-0.00036,-0.00016,-0.0001,-5e-05,-0.00013,4,22
18601,3e-05,3e-05,0.00051,-0.00031,4e-05,0.0001,8e-05,8e-05,4,22
18602,-0.00043,-0.00035,0.00084,-0.00083,-0.00058,-0.00047,-0.00018,-0.0002,4,22
18603,-0.00043,-0.00035,0.00084,-0.00083,-0.00058,-0.00047,-0.00018,-0.0002,4,22
18604,-0.00043,-0.00035,0.00084,-0.00083,-0.00058,-0.00047,-0.00018,-0.0002,4,22
18605,-0.00043,-0.00035,0.00084,-0.00083,-0.00058,-0.00047,-0.00018,-0.0002,4,22
18606,-0.00043,-0.00035,0.00084,-0.00083,-0.00058,-0.00047,-0.00018,-0.0002,4,22
18607,-0.00043,-0.00035,0.00084,-0.00083,-0.00058,-0.00047,-0.00018,-0.0002,4,22
18608,-0.00043,-0.00035,0.00084,-0.00083,-0.00058,-0.00047,-0.00018,-0.0002,4,22
18609,-0.00043,-0.00035,0.00084,-0.00083,-0.00058,-0.00047,-0.00018,-0.0002,4,22
18610,-0.00043,-0.00035,0.00084,-0.00083,-0.00058,-0.00047,-0.00018,-0.0002,4,22
18611,-0.00043,-0.00035,0.00084,-0.00083,-0.00058,-0.00047,-0.00018,-0.0002,4,22
18612,-0.00043,-0.00035,0.00084,-0.00083,-0.00058,-0.00047,-0.00018,-0.0002,4,22
18613,-0.00043,-0.00035,0.00084,-0.00083,-0.00058,-0.00047,-0.00018,-0.0002,4,22
18614,-0.00043,-0.00035,0.00084,-0.00083,-0.00058,-0.00047,-0.00018,-0.0002,4,22
18615,-0.00043,-0.00035,0.00084,-0.00083,-0.00058,-0.00047,-0.00018,-0.0002,4,22
18616,-0.00043,-0.00035,0.00084,-0.00083,-0.00058,-0.00047,-0.00018,-0.0002,4,22
18617,-0.00043,-0.00035,0.00084,-0.00083,-0.00058,-0.00047,-0.00018,-0.0002,4,22
18618,-0.00043,-0.00035,0.00084,-0.00083,-0.00058,-0.00047,-0.00018,-0.0002,4,22
18619,-0.00043,-0.00035,0.00084,-0.00083,-0.00058,-0.00047,-0.00018,-0.0002,4,22
18620,-0.00043,-0.00035,0.00084,-0.00083,-0.00058,-0.00047,-0.00018,-0.0002,4,22
18621,-0.00043,-0.00035,0.00084,-0.00083,-0.00058,-0.00047,-0.00018,-0.0002,4,22
18622,0.00021,0.00019,-0.00114,-0.00013,0.00014,0.00021,9e-05,0.00014,4,22
18623,0.00017,0.00018,-0.00019,0.00015,3e-05,0.00015,7e-05,0.00013,4,22
18624,0.00017,0.00018,-0.00019,0.00015,3e-05,0.00015,7e-05,0.00013,4,22
18625,0.00017,0.00018,-0.00019,0.00015,3e-05,0.00015,7e-05,0.00013,4,22
18626,0.00017,0.00018,-0.00019,0.00015,3e-05,0.00015,7e-05,0.00013,4,22
18627,0.00017,0.00018,-0.00019,0.00015,3e-05,0.00015,7e-05,0.00013,4,22
18628,0.00017,0.00018,-0.00019,0.00015,3e-05,0.00015,7e-05,0.00013,4,22
18629,0.00017,0.00018,-0.00019,0.00015,3e-05,0.00015,7e-05,0.00013,4,22
18630,0.00017,0.00018,-0.00019,0.00015,3e-05,0.00015,7e-05,0.00013,4,22
18631,0.00017,0.00018,-0.00019,0.00015,3e-05,0.00015,7e-05,0.00013,4,22
18632,0.00017,0.00018,-0.00019,0.00015,3e-05,0.00015,7e-05,0.00013,4,22
18633,0.00017,0.00018,-0.00019,0.00015,3e-05,0.00015,7e-05,0.00013,4,22
18634,0.00017,0.00018,-0.00019,0.00015,3e-05,0.00015,7e-05,0.00013,4,22
18635,0.00017,0.00018,-0.00019,0.00015,3e-05,0.00015,7e-05,0.00013,4,22
18636,0.00017,0.00018,-0.00019,0.00015,3e-05,0.00015,7e-05,0.00013,4,22
18638,1e-05,-0.00019,-1e-05,-0.00063,8e-05,0.00027,9e-05,-1e-05,4,22
18639,-7e-05,8e-05,0.00049,-0.00062,-0.00023,-0.00018,-8e-05,1e-05,4,22
18640,-7e-05,8e-05,0.00049,-0.00062,-0.00023,-0.00018,-8e-05,1e-05,4,22
18641,-7e-05,8e-05,0.00049,-0.00062,-0.00023,-0.00018,-8e-05,1e-05,4,22
18642,-7e-05,8e-05,0.00049,-0.00062,-0.00023,-0.00018,-8e-05,1e-05,4,22
18643,-7e-05,8e-05,0.00049,-0.00062,-0.00023,-0.00018,-8e-05,1e-05,4,22
18644,-7e-05,8e-05,0.00049,-0.00062,-0.00023,-0.00018,-8e-05,1e-05,4,22
18645,-7e-05,8e-05,0.00049,-0.00062,-0.00023,-0.00018,-8e-05,1e-05,4,22
18646,-7e-05,8e-05,0.00049,-0.00062,-0.00023,-0.00018,-8e-05,1e-05,4,22
18647,-7e-05,8e-05,0.00049,-0.00062,-0.00023,-0.00018,-8e-05,1e-05,4,22
18648,-7e-05,8e-05,0.00049,-0.00062,-0.00023,-0.00018,-8e-05,1e-05,4,22
18649,-7e-05,8e-05,0.00049,-0.00062,-0.00023,-0.00018,-8e-05,1e-05,4,22
18650,-7e-05,8e-05,0.00049,-0.00062,-0.00023,-0.00018,-8e-05,1e-05,4,22
18651,-7e-05,8e-05,0.00049,-0.00062,-0.00023,-0.00018,-8e-05,1e-05,4,22
18652,-7e-05,8e-05,0.00049,-0.00062,-0.00023,-0.00018,-8e-05,1e-05,4,22
18653,-7e-05,8e-05,0.00049,-0.00062,-0.00023,-0.00018,-8e-05,1e-05,4,22
18654,-7e-05,8e-05,0.00049,-0.00062,-0.00023,-0.00018,-8e-05,1e-05,4,22
18655,-7e-05,8e-05,0.00049,-0.00062,-0.00023,-0.00018,-8e-05,1e-05,4,22
18656,-7e-05,8e-05,0.00049,-0.00062,-0.00023,-0.00018,-8e-05,1e-05,4,22
18657,-7e-05,8e-05,0.00049,-0.00062,-0.00023,-0.00018,-8e-05,1e-05,4,22
18658,-7e-05,8e-05,0.00049,-0.00062,-0.00023,-0.00018,-8e-05,1e-05,4,22
18659,-0.00024,-0.00029,0.0007,-0.0004,-0.00037,-0.00028,-0.00011,-0.00014,4,22
18660,-0.00024,-0.00029,0.0007,-0.0004,-0.00037,-0.00028,-0.00011,-0.00014,4,22
18661,-0.00012,1e-05,3e-05,0.00015,-0.00017,-0.00021,-0.00011,-0.00018,4,22
18662,-0.00012,1e-05,3e-05,0.00015,-0.00017,-0.00021,-0.00011,-0.00018,4,22
18663,-0.00012,1e-05,3e-05,0.00015,-0.00017,-0.00021,-0.00011,-0.00018,4,22
18664,-0.00012,1e-05,3e-05,0.00015,-0.00017,-0.00021,-0.00011,-0.00018,4,22
18665,-0.00012,1e-05,3e-05,0.00015,-0.00017,-0.00021,-0.00011,-0.00018,4,22
18666,-0.00012,1e-05,3e-05,0.00015,-0.00017,-0.00021,-0.00011,-0.00018,4,22
18667,-0.00012,1e-05,3e-05,0.00015,-0.00017,-0.00021,-0.00011,-0.00018,4,22
18668,-0.00012,1e-05,3e-05,0.00015,-0.00017,-0.00021,-0.00011,-0.00018,4,22
18669,-0.00012,1e-05,3e-05,0.00015,-0.00017,-0.00021,-0.00011,-0.00018,4,22
18670,-0.00012,1e-05,3e-05,0.00015,-0.00017,-0.00021,-0.00011,-0.00018,4,22
18671,-0.00012,1e-05,3e-05,0.00015,-0.00017,-0.00021,-0.00011,-0.00018,4,22
18672,-0.00012,1e-05,3e-05,0.00015,-0.00017,-0.00021,-0.00011,-0.00018,4,22
18673,-0.00012,1e-05,3e-05,0.00015,-0.00017,-0.00021,-0.00011,-0.00018,4,22
18674,-3e-05,0.00026,0.00074,0.00011,-0.00042,-0.0003,-0.00021,-0.00029,4,22
18675,-3e-05,0.00026,0.00074,0.00011,-0.00042,-0.0003,-0.00021,-0.00029,4,22
18676,-3e-05,0.00026,0.00074,0.00011,-0.00042,-0.0003,-0.00021,-0.00029,4,22
18677,-3e-05,0.00026,0.00074,0.00011,-0.00042,-0.0003,-0.00021,-0.00029,4,22
18678,-3e-05,0.00026,0.00074,0.00011,-0.00042,-0.0003,-0.00021,-0.00029,4,22
18679,-3e-05,0.00026,0.00074,0.00011,-0.00042,-0.0003,-0.00021,-0.00029,4,22
18680,-0.00018,-0.00035,-0.00068,-0.00038,-0.00015,-0.00021,-2e-05,-5e-05,4,22
18681,0.00027,0.0002,0.00012,0.00062,0.00038,0.00034,0.00018,0.00025,4,22
18682,0.00027,0.0002,0.00012,0.00062,0.00038,0.00034,0.00018,0.00025,4,22
18683,0.00027,0.0002,0.00012,0.00062,0.00038,0.00034,0.00018,0.00025,4,22
18684,0.00027,0.0002,0.00012,0.00062,0.00038,0.00034,0.00018,0.00025,4,22
18685,0.00027,0.0002,0.00012,0.00062,0.00038,0.00034,0.00018,0.00025,4,22
18686,0.00027,0.0002,0.00012,0.00062,0.00038,0.00034,0.00018,0.00025,4,22
18688,0.00027,0.0002,0.00012,0.00062,0.00038,0.00034,0.00018,0.00025,4,22
18689,0.00027,0.0002,0.00012,0.00062,0.00038,0.00034,0.00018,0.00025,4,22
18690,0.00027,0.0002,0.00012,0.00062,0.00038,0.00034,0.00018,0.00025,4,22
18691,0.00027,0.0002,0.00012,0.00062,0.00038,0.00034,0.00018,0.00025,4,22
18692,0.00027,0.0002,0.00012,0.00062,0.00038,0.00034,0.00018,0.00025,4,22
18693,0.00027,0.0002,0.00012,0.00062,0.00038,0.00034,0.00018,0.00025,4,22
18694,0.00027,0.0002,0.00012,0.00062,0.00038,0.00034,0.00018,0.00025,4,22
18695,0.00027,0.0002,0.00012,0.00062,0.00038,0.00034,0.00018,0.00025,4,22
18696,0.00027,0.0002,0.00012,0.00062,0.00038,0.00034,0.00018,0.00025,4,22
18697,-2e-05,-0.00023,-0.00034,-0.00053,0.00014,6e-05,0,7e-05,4,22
18698,9e-05,0.00031,0.00044,0.00061,0.00022,6e-05,2e-05,-8e-05,4,22
18699,9e-05,0.00031,0.00044,0.00061,0.00022,6e-05,2e-05,-8e-05,4,22
18700,9e-05,0.00031,0.00044,0.00061,0.00022,6e-05,2e-05,-8e-05,4,22
18701,9e-05,0.00031,0.00044,0.00061,0.00022,6e-05,2e-05,-8e-05,4,22
18702,9e-05,0.00031,0.00044,0.00061,0.00022,6e-05,2e-05,-8e-05,4,22
18703,9e-05,0.00031,0.00044,0.00061,0.00022,6e-05,2e-05,-8e-05,4,22
18704,9e-05,0.00031,0.00044,0.00061,0.00022,6e-05,2e-05,-8e-05,4,22
18705,9e-05,0.00031,0.00044,0.00061,0.00022,6e-05,2e-05,-8e-05,4,22
18706,9e-05,0.00031,0.00044,0.00061,0.00022,6e-05,2e-05,-8e-05,4,22
18707,9e-05,0.00031,0.00044,0.00061,0.00022,6e-05,2e-05,-8e-05,4,22
18708,9e-05,0.00031,0.00044,0.00061,0.00022,6e-05,2e-05,-8e-05,4,22
18709,9e-05,0.00031,0.00044,0.00061,0.00022,6e-05,2e-05,-8e-05,4,22
18710,9e-05,0.00031,0.00044,0.00061,0.00022,6e-05,2e-05,-8e-05,4,22
18711,9e-05,0.00031,0.00044,0.00061,0.00022,6e-05,2e-05,-8e-05,4,22
18712,9e-05,0.00031,0.00044,0.00061,0.00022,6e-05,2e-05,-8e-05,4,22
18713,9e-05,0.00031,0.00044,0.00061,0.00022,6e-05,2e-05,-8e-05,4,22
18714,9e-05,0.00031,0.00044,0.00061,0.00022,6e-05,2e-05,-8e-05,4,22
18715,9e-05,0.00031,0.00044,0.00061,0.00022,6e-05,2e-05,-8e-05,4,22
18716,9e-05,0.00031,0.00044,0.00061,0.00022,6e-05,2e-05,-8e-05,4,22
18717,9e-05,0.00031,0.00044,0.00061,0.00022,6e-05,2e-05,-8e-05,4,22
18718,9e-05,0.00031,0.00044,0.00061,0.00022,6e-05,2e-05,-8e-05,4,22
18719,-0.00016,-0.00045,-0.00076,0.00093,-7e-05,-9e-05,-7e-05,-1e-05,4,22
18720,-0.00016,-0.00045,-0.00076,0.00093,-7e-05,-9e-05,-7e-05,-1e-05,4,22
18721,-0.00016,-0.00045,-0.00076,0.00093,-7e-05,-9e-05,-7e-05,-1e-05,4,22
18722,0.00011,0.00012,0.00056,-0.00026,9e-05,8e-05,7e-05,6e-05,4,22
18723,0.00011,0.00012,0.00056,-0.00026,9e-05,8e-05,7e-05,6e-05,4,22
18724,0.00011,0.00012,0.00056,-0.00026,9e-05,8e-05,7e-05,6e-05,4,22
18725,0.00011,0.00012,0.00056,-0.00026,9e-05,8e-05,7e-05,6e-05,4,22
18726,0.00011,0.00012,0.00056,-0.00026,9e-05,8e-05,7e-05,6e-05,4,22
18727,0.00011,0.00012,0.00056,-0.00026,9e-05,8e-05,7e-05,6e-05,4,22
18728,0.00011,0.00012,0.00056,-0.00026,9e-05,8e-05,7e-05,6e-05,4,22
18729,0.00011,0.00012,0.00056,-0.00026,9e-05,8e-05,7e-05,6e-05,4,22
18730,0.00011,0.00012,0.00056,-0.00026,9e-05,8e-05,7e-05,6e-05,4,22
18731,0.00011,0.00012,0.00056,-0.00026,9e-05,8e-05,7e-05,6e-05,4,22
18732,0.00011,0.00012,0.00056,-0.00026,9e-05,8e-05,7e-05,6e-05,4,22
18733,0.00011,0.00012,0.00056,-0.00026,9e-05,8e-05,7e-05,6e-05,4,22
18734,0.00012,0.0004,0.00057,-0.00044,0.00011,7e-05,6e-05,0.00012,4,22
18735,0.00012,0.0004,0.00057,-0.00044,0.00011,7e-05,6e-05,0.00012,4,22
18736,0.00012,0.0004,0.00057,-0.00044,0.00011,7e-05,6e-05,0.00012,4,22
18738,0.00012,0.0004,0.00057,-0.00044,0.00011,7e-05,6e-05,0.00012,4,22
18739,0.00012,0.0004,0.00057,-0.00044,0.00011,7e-05,6e-05,0.00012,4,22
18740,0.00012,0.0004,0.00057,-0.00044,0.00011,7e-05,6e-05,0.00012,4,22
18741,-6e-05,-0.00012,0.00019,-0.00037,-0.0001,0,-7e-05,-1e-05,4,22
18742,-6e-05,-0.00012,0.00019,-0.00037,-0.0001,0,-7e-05,-1e-05,4,22
18743,-6e-05,-0.00012,0.00019,-0.00037,-0.0001,0,-7e-05,-1e-05,4,22
18744,-6e-05,-0.00012,0.00019,-0.00037,-0.0001,0,-7e-05,-1e-05,4,22
18745,-6e-05,-0.00012,0.00019,-0.00037,-0.0001,0,-7e-05,-1e-05,4,22
18746,-6e-05,-0.00012,0.00019,-0.00037,-0.0001,0,-7e-05,-1e-05,4,22
18747,-6e-05,-0.00012,0.00019,-0.00037,-0.0001,0,-7e-05,-1e-05,4,22
18748,-6e-05,-0.00012,0.00019,-0.00037,-0.0001,0,-7e-05,-1e-05,4,22
18749,-6e-05,-0.00012,0.00019,-0.00037,-0.0001,0,-7e-05,-1e-05,4,22
18750,-6e-05,-0.00012,0.00019,-0.00037,-0.0001,0,-7e-05,-1e-05,4,22
18751,-6e-05,-0.00012,0.00019,-0.00037,-0.0001,0,-7e-05,-1e-05,4,22
18752,-6e-05,-0.00012,0.00019,-0.00037,-0.0001,0,-7e-05,-1e-05,4,22
18753,-6e-05,-0.00012,0.00019,-0.00037,-0.0001,0,-7e-05,-1e-05,4,22
18754,-6e-05,-0.00012,0.00019,-0.00037,-0.0001,0,-7e-05,-1e-05,4,22
18755,-6e-05,-0.00012,0.00019,-0.00037,-0.0001,0,-7e-05,-1e-05,4,22
18756,-6e-05,-0.00012,0.00019,-0.00037,-0.0001,0,-7e-05,-1e-05,4,22
18757,0.0001,6e-05,0.00048,4e-05,-7e-05,-2e-05,-5e-05,2e-05,4,22
18758,0.00055,0.00055,0.00025,0.00032,0.00071,0.00058,0.00024,0.00023,4,22
18759,-0.00014,-0.00017,-0.00128,-0.00089,-0.00063,-0.00035,-5e-05,-4e-05,4,22
18760,-0.00014,-0.00017,-0.00128,-0.00089,-0.00063,-0.00035,-5e-05,-4e-05,4,22
18761,-0.00014,-0.00017,-0.00128,-0.00089,-0.00063,-0.00035,-5e-05,-4e-05,4,22
18762,-0.00014,-0.00017,-0.00128,-0.00089,-0.00063,-0.00035,-5e-05,-4e-05,4,22
18763,-0.00014,-0.00017,-0.00128,-0.00089,-0.00063,-0.00035,-5e-05,-4e-05,4,22
18764,-0.00014,-0.00017,-0.00128,-0.00089,-0.00063,-0.00035,-5e-05,-4e-05,4,22
18765,-0.00014,-0.00017,-0.00128,-0.00089,-0.00063,-0.00035,-5e-05,-4e-05,4,22
18766,-0.00014,-0.00017,-0.00128,-0.00089,-0.00063,-0.00035,-5e-05,-4e-05,4,22
18767,-0.00014,-0.00017,-0.00128,-0.00089,-0.00063,-0.00035,-5e-05,-4e-05,4,22
18768,-0.00014,-0.00017,-0.00128,-0.00089,-0.00063,-0.00035,-5e-05,-4e-05,4,22
18769,-0.00014,-0.00017,-0.00128,-0.00089,-0.00063,-0.00035,-5e-05,-4e-05,4,22
18770,-0.00014,-0.00017,-0.00128,-0.00089,-0.00063,-0.00035,-5e-05,-4e-05,4,22
18771,-0.00014,-0.00017,-0.00128,-0.00089,-0.00063,-0.00035,-5e-05,-4e-05,4,22
18772,-0.00014,-0.00017,-0.00128,-0.00089,-0.00063,-0.00035,-5e-05,-4e-05,4,22
18773,-0.00014,-0.00017,-0.00128,-0.00089,-0.00063,-0.00035,-5e-05,-4e-05,4,22
18774,-0.00014,-0.00017,-0.00128,-0.00089,-0.00063,-0.00035,-5e-05,-4e-05,4,22
18775,-0.00014,-0.00017,-0.00128,-0.00089,-0.00063,-0.00035,-5e-05,-4e-05,4,22
18776,-0.00014,-0.00017,-0.00128,-0.00089,-0.00063,-0.00035,-5e-05,-4e-05,4,22
18777,-0.00014,-0.00017,-0.00128,-0.00089,-0.00063,-0.00035,-5e-05,-4e-05,4,22
18778,-0.00014,-0.00017,-0.00128,-0.00089,-0.00063,-0.00035,-5e-05,-4e-05,4,22
18779,6e-05,0.00011,5e-05,0.00017,0.00019,0.00014,8e-05,1e-05,4,22
18780,6e-05,0.00011,5e-05,0.00017,0.00019,0.00014,8e-05,1e-05,4,22
18781,-0.00019,-0.00016,-0.00083,-0.00018,0,-0.00014,-8e-05,-8e-05,4,22
18782,-0.00019,-0.00016,-0.00083,-0.00018,0,-0.00014,-8e-05,-8e-05,4,22
18783,-0.00019,-0.00016,-0.00083,-0.00018,0,-0.00014,-8e-05,-8e-05,4,22
18784,-0.00019,-0.00016,-0.00083,-0.00018,0,-0.00014,-8e-05,-8e-05,4,22
18785,-0.00019,-0.00016,-0.00083,-0.00018,0,-0.00014,-8e-05,-8e-05,4,22
18786,-0.00019,-0.00016,-0.00083,-0.00018,0,-0.00014,-8e-05,-8e-05,4,22
18788,-0.00019,-0.00016,-0.00083,-0.00018,0,-0.00014,-8e-05,-8e-05,4,22
18789,-0.00019,-0.00016,-0.00083,-0.00018,0,-0.00014,-8e-05,-8e-05,4,22
18790,-0.00019,-0.00016,-0.00083,-0.00018,0,-0.00014,-8e-05,-8e-05,4,22
18791,-0.00019,-0.00016,-0.00083,-0.00018,0,-0.00014,-8e-05,-8e-05,4,22
18792,-0.00019,-0.00016,-0.00083,-0.00018,0,-0.00014,-8e-05,-8e-05,4,22
18793,-0.00019,-0.00016,-0.00083,-0.00018,0,-0.00014,-8e-05,-8e-05,4,22
18794,-0.00023,-0.00029,-8e-05,-0.00086,-0.00031,-0.00021,-0.00014,-0.00016,4,22
18795,-0.00023,-0.00029,-8e-05,-0.00086,-0.00031,-0.00021,-0.00014,-0.00016,4,22
18796,-0.00023,-0.00029,-8e-05,-0.00086,-0.00031,-0.00021,-0.00014,-0.00016,4,22
18797,-0.00023,-0.00029,-8e-05,-0.00086,-0.00031,-0.00021,-0.00014,-0.00016,4,22
18798,-0.00023,-0.00029,-8e-05,-0.00086,-0.00031,-0.00021,-0.00014,-0.00016,4,22
18799,-0.00023,-0.00029,-8e-05,-0.00086,-0.00031,-0.00021,-0.00014,-0.00016,4,22
18800,-0.00046,-0.00018,0.00079,0.00042,-0.00027,-0.0005,-0.00022,-0.00028,4,22
18801,9e-05,-9e-05,0.00081,0.00038,0.00017,0.00012,3e-05,-8e-05,4,22
18802,9e-05,-9e-05,0.00081,0.00038,0.00017,0.00012,3e-05,-8e-05,4,22
18803,9e-05,-9e-05,0.00081,0.00038,0.00017,0.00012,3e-05,-8e-05,4,22
18804,9e-05,-9e-05,0.00081,0.00038,0.00017,0.00012,3e-05,-8e-05,4,22
18805,9e-05,-9e-05,0.00081,0.00038,0.00017,0.00012,3e-05,-8e-05,4,22
18806,9e-05,-9e-05,0.00081,0.00038,0.00017,0.00012,3e-05,-8e-05,4,22
18807,9e-05,-9e-05,0.00081,0.00038,0.00017,0.00012,3e-05,-8e-05,4,22
18808,9e-05,-9e-05,0.00081,0.00038,0.00017,0.00012,3e-05,-8e-05,4,22
18809,9e-05,-9e-05,0.00081,0.00038,0.00017,0.00012,3e-05,-8e-05,4,22
18810,9e-05,-9e-05,0.00081,0.00038,0.00017,0.00012,3e-05,-8e-05,4,22
18811,9e-05,-9e-05,0.00081,0.00038,0.00017,0.00012,3e-05,-8e-05,4,22
18812,9e-05,-9e-05,0.00081,0.00038,0.00017,0.00012,3e-05,-8e-05,4,22
18813,9e-05,-9e-05,0.00081,0.00038,0.00017,0.00012,3e-05,-8e-05,4,22
18814,9e-05,-9e-05,0.00081,0.00038,0.00017,0.00012,3e-05,-8e-05,4,22
18815,9e-05,-9e-05,0.00081,0.00038,0.00017,0.00012,3e-05,-8e-05,4,22
18816,9e-05,-9e-05,0.00081,0.00038,0.00017,0.00012,3e-05,-8e-05,4,22
18817,0.00034,0.00037,0.0002,0.00044,0.00033,0.00029,0.00013,0.00025,4,22
18818,-0.00015,-0.00037,-0.00128,-0.00092,-0.00016,-0.00011,-6e-05,-6e-05,4,22
18819,-6e-05,-4e-05,-0.00017,0.00051,3e-05,-1e-05,-5e-05,-4e-05,4,22
18820,-6e-05,-4e-05,-0.00017,0.00051,3e-05,-1e-05,-5e-05,-4e-05,4,22
18821,-6e-05,-4e-05,-0.00017,0.00051,3e-05,-1e-05,-5e-05,-4e-05,4,22
18822,-6e-05,-4e-05,-0.00017,0.00051,3e-05,-1e-05,-5e-05,-4e-05,4,22
18823,-6e-05,-4e-05,-0.00017,0.00051,3e-05,-1e-05,-5e-05,-4e-05,4,22
18824,-6e-05,-4e-05,-0.00017,0.00051,3e-05,-1e-05,-5e-05,-4e-05,4,22
18825,-6e-05,-4e-05,-0.00017,0.00051,3e-05,-1e-05,-5e-05,-4e-05,4,22
18826,-6e-05,-4e-05,-0.00017,0.00051,3e-05,-1e-05,-5e-05,-4e-05,4,22
18827,-6e-05,-4e-05,-0.00017,0.00051,3e-05,-1e-05,-5e-05,-4e-05,4,22
18828,-6e-05,-4e-05,-0.00017,0.00051,3e-05,-1e-05,-5e-05,-4e-05,4,22
18829,-6e-05,-4e-05,-0.00017,0.00051,3e-05,-1e-05,-5e-05,-4e-05,4,22
18830,-6e-05,-4e-05,-0.00017,0.00051,3e-05,-1e-05,-5e-05,-4e-05,4,22
18831,-6e-05,-4e-05,-0.00017,0.00051,3e-05,-1e-05,-5e-05,-4e-05,4,22
18832,-6e-05,-4e-05,-0.00017,0.00051,3e-05,-1e-05,-5e-05,-4e-05,4,22
18833,-6e-05,-4e-05,-0.00017,0.00051,3e-05,-1e-05,-5e-05,-4e-05,4,22
18834,-6e-05,-4e-05,-0.00017,0.00051,3e-05,-1e-05,-5e-05,-4e-05,4,22
18835,-6e-05,-4e-05,-0.00017,0.00051,3e-05,-1e-05,-5e-05,-4e-05,4,22
18836,-6e-05,-4e-05,-0.00017,0.00051,3e-05,-1e-05,-5e-05,-4e-05,4,22
18838,-6e-05,-4e-05,-0.00017,0.00051,3e-05,-1e-05,-5e-05,-4e-05,4,22
18839,5e-05,-1e-05,0.0002,0.00071,8e-05,9e-05,6e-05,1e-05,4,22
18840,5e-05,-1e-05,0.0002,0.00071,8e-05,9e-05,6e-05,1e-05,4,22
18841,-0.00011,0.00019,0.0012,0.00063,6e-05,-2e-05,1e-05,-3e-05,4,22
18842,-0.00011,0.00019,0.0012,0.00063,6e-05,-2e-05,1e-05,-3e-05,4,22
18843,-0.00011,0.00019,0.0012,0.00063,6e-05,-2e-05,1e-05,-3e-05,4,22
18844,-0.00011,0.00019,0.0012,0.00063,6e-05,-2e-05,1e-05,-3e-05,4,22
18845,-0.00011,0.00019,0.0012,0.00063,6e-05,-2e-05,1e-05,-3e-05,4,22
18846,-0.00011,0.00019,0.0012,0.00063,6e-05,-2e-05,1e-05,-3e-05,4,22
18847,-0.00011,0.00019,0.0012,0.00063,6e-05,-2e-05,1e-05,-3e-05,4,22
18848,-0.00011,0.00019,0.0012,0.00063,6e-05,-2e-05,1e-05,-3e-05,4,22
18849,-0.00011,0.00019,0.0012,0.00063,6e-05,-2e-05,1e-05,-3e-05,4,22
18850,-0.00011,0.00019,0.0012,0.00063,6e-05,-2e-05,1e-05,-3e-05,4,22
18851,-0.00011,0.00019,0.0012,0.00063,6e-05,-2e-05,1e-05,-3e-05,4,22
18852,-0.00011,0.00019,0.0012,0.00063,6e-05,-2e-05,1e-05,-3e-05,4,22
18853,-0.00011,0.00019,0.0012,0.00063,6e-05,-2e-05,1e-05,-3e-05,4,22
18854,-0.00011,0.00019,0.0012,0.00063,6e-05,-2e-05,1e-05,-3e-05,4,22
18855,0.00033,0.00082,0.00048,0.00057,0.00013,0.0001,0,6e-05,4,22
18856,0.00033,0.00082,0.00048,0.00057,0.00013,0.0001,0,6e-05,4,22
18857,0.00033,0.00082,0.00048,0.00057,0.00013,0.0001,0,6e-05,4,22
18858,0.00033,0.00082,0.00048,0.00057,0.00013,0.0001,0,6e-05,4,22
18859,0.00033,0.00082,0.00048,0.00057,0.00013,0.0001,0,6e-05,4,22
18860,-0.00055,-0.00043,0.00085,-0.00106,-0.00033,-0.00051,-0.00023,-0.00033,4,22
18861,0.00027,0.00038,0.00021,0.00051,0.00026,0.00029,0.00012,0.00014,4,22
18862,0.00027,0.00038,0.00021,0.00051,0.00026,0.00029,0.00012,0.00014,4,22
18863,0.00027,0.00038,0.00021,0.00051,0.00026,0.00029,0.00012,0.00014,4,22
18864,0.00027,0.00038,0.00021,0.00051,0.00026,0.00029,0.00012,0.00014,4,22
18865,0.00027,0.00038,0.00021,0.00051,0.00026,0.00029,0.00012,0.00014,4,22
18866,0.00027,0.00038,0.00021,0.00051,0.00026,0.00029,0.00012,0.00014,4,22
18867,0.00027,0.00038,0.00021,0.00051,0.00026,0.00029,0.00012,0.00014,4,22
18868,0.00027,0.00038,0.00021,0.00051,0.00026,0.00029,0.00012,0.00014,4,22
18869,0.00027,0.00038,0.00021,0.00051,0.00026,0.00029,0.00012,0.00014,4,22
18870,0.00027,0.00038,0.00021,0.00051,0.00026,0.00029,0.00012,0.00014,4,22
18871,0.00027,0.00038,0.00021,0.00051,0.00026,0.00029,0.00012,0.00014,4,22
18872,0.00027,0.00038,0.00021,0.00051,0.00026,0.00029,0.00012,0.00014,4,22
18873,0.00027,0.00038,0.00021,0.00051,0.00026,0.00029,0.00012,0.00014,4,22
18874,0.00027,0.00038,0.00021,0.00051,0.00026,0.00029,0.00012,0.00014,4,22
18875,0.00027,0.00038,0.00021,0.00051,0.00026,0.00029,0.00012,0.00014,4,22
18876,0.00027,0.00038,0.00021,0.00051,0.00026,0.00029,0.00012,0.00014,4,22
18877,-7e-05,0.00018,3e-05,-0.00016,0.00035,0.00024,8e-05,-0.00016,4,22
18878,-7e-05,0.00018,3e-05,-0.00016,0.00035,0.00024,8e-05,-0.00016,4,22
18879,0.00034,0.00033,0.00084,-0.00084,-0.00011,0,2e-05,-0.00019,4,22
18880,0.00034,0.00033,0.00084,-0.00084,-0.00011,0,2e-05,-0.00019,4,22
18881,0.00034,0.00033,0.00084,-0.00084,-0.00011,0,2e-05,-0.00019,4,22
18882,0.00034,0.00033,0.00084,-0.00084,-0.00011,0,2e-05,-0.00019,4,22
18883,0.00034,0.00033,0.00084,-0.00084,-0.00011,0,2e-05,-0.00019,4,22
18884,0.00034,0.00033,0.00084,-0.00084,-0.00011,0,2e-05,-0.00019,4,22
18885,0.00034,0.00033,0.00084,-0.00084,-0.00011,0,2e-05,-0.00019,4,22
18886,0.00034,0.00033,0.00084,-0.00084,-0.00011,0,2e-05,-0.00019,4,22
18888,0.00034,0.00033,0.00084,-0.00084,-0.00011,0,2e-05,-0.00019,4,22
18889,0.00034,0.00033,0.00084,-0.00084,-0.00011,0,2e-05,-0.00019,4,22
18890,0.00034,0.00033,0.00084,-0.00084,-0.00011,0,2e-05,-0.00019,4,22
18891,0.00034,0.00033,0.00084,-0.00084,-0.00011,0,2e-05,-0.00019,4,22
18892,0.00034,0.00033,0.00084,-0.00084,-0.00011,0,2e-05,-0.00019,4,22
18893,0.00034,0.00033,0.00084,-0.00084,-0.00011,0,2e-05,-0.00019,4,22
18894,0.00034,0.00033,0.00084,-0.00084,-0.00011,0,2e-05,-0.00019,4,22
18895,0.00034,0.00033,0.00084,-0.00084,-0.00011,0,2e-05,-0.00019,4,22
18896,0.00034,0.00033,0.00084,-0.00084,-0.00011,0,2e-05,-0.00019,4,22
18897,0.00034,0.00033,0.00084,-0.00084,-0.00011,0,2e-05,-0.00019,4,22
18898,0.00034,0.00033,0.00084,-0.00084,-0.00011,0,2e-05,-0.00019,4,22
18899,-4e-05,-0.00028,0.00037,0.00054,-1e-05,-0.00012,-5e-05,5e-05,4,22
18900,-4e-05,-0.00028,0.00037,0.00054,-1e-05,-0.00012,-5e-05,5e-05,4,22
18901,-0.00022,-0.00035,0.00075,0.00073,0.00015,-2e-05,0,3e-05,4,22
18902,-0.00022,-0.00035,0.00075,0.00073,0.00015,-2e-05,0,3e-05,4,22
18903,-0.00022,-0.00035,0.00075,0.00073,0.00015,-2e-05,0,3e-05,4,22
18904,-0.00022,-0.00035,0.00075,0.00073,0.00015,-2e-05,0,3e-05,4,22
18905,-0.00022,-0.00035,0.00075,0.00073,0.00015,-2e-05,0,3e-05,4,22
18906,-0.00022,-0.00035,0.00075,0.00073,0.00015,-2e-05,0,3e-05,4,22
18907,-0.00022,-0.00035,0.00075,0.00073,0.00015,-2e-05,0,3e-05,4,22
18908,-0.00022,-0.00035,0.00075,0.00073,0.00015,-2e-05,0,3e-05,4,22
18909,-0.00022,-0.00035,0.00075,0.00073,0.00015,-2e-05,0,3e-05,4,22
18910,-0.00022,-0.00035,0.00075,0.00073,0.00015,-2e-05,0,3e-05,4,22
18911,-0.00022,-0.00035,0.00075,0.00073,0.00015,-2e-05,0,3e-05,4,22
18912,-0.00022,-0.00035,0.00075,0.00073,0.00015,-2e-05,0,3e-05,4,22
18913,-7e-05,-0.00023,0.00047,-0.00014,0.00011,1e-05,2e-05,4e-05,4,22
18914,-7e-05,-0.00023,0.00047,-0.00014,0.00011,1e-05,2e-05,4e-05,4,22
18915,-7e-05,-0.00023,0.00047,-0.00014,0.00011,1e-05,2e-05,4e-05,4,22
18916,-7e-05,-0.00023,0.00047,-0.00014,0.00011,1e-05,2e-05,4e-05,4,22
18917,-7e-05,-0.00023,0.00047,-0.00014,0.00011,1e-05,2e-05,4e-05,4,22
18918,-7e-05,-0.00023,0.00047,-0.00014,0.00011,1e-05,2e-05,4e-05,4,22
18919,-7e-05,-0.00023,0.00047,-0.00014,0.00011,1e-05,2e-05,4e-05,4,22
18920,-7e-05,-0.00023,0.00047,-0.00014,0.00011,1e-05,2e-05,4e-05,4,22
18921,-7e-05,-0.00023,0.00047,-0.00014,0.00011,1e-05,2e-05,4e-05,4,22
18922,0.00012,-5e-05,-0.00018,-0.00023,4e-05,8e-05,4e-05,0.00028,4,22
18923,0.00012,-5e-05,-0.00018,-0.00023,4e-05,8e-05,4e-05,0.00028,4,22
18924,0.00012,-5e-05,-0.00018,-0.00023,4e-05,8e-05,4e-05,0.00028,4,22
18925,0.00012,-5e-05,-0.00018,-0.00023,4e-05,8e-05,4e-05,0.00028,4,22
18926,0.00012,-5e-05,-0.00018,-0.00023,4e-05,8e-05,4e-05,0.00028,4,22
18927,0.00012,-5e-05,-0.00018,-0.00023,4e-05,8e-05,4e-05,0.00028,4,22
18928,0.00012,-5e-05,-0.00018,-0.00023,4e-05,8e-05,4e-05,0.00028,4,22
18929,0.00012,-5e-05,-0.00018,-0.00023,4e-05,8e-05,4e-05,0.00028,4,22
18930,0.00012,-5e-05,-0.00018,-0.00023,4e-05,8e-05,4e-05,0.00028,4,22
18931,0.00012,-5e-05,-0.00018,-0.00023,4e-05,8e-05,4e-05,0.00028,4,22
18932,0.00012,-5e-05,-0.00018,-0.00023,4e-05,8e-05,4e-05,0.00028,4,22
18933,0.00012,-5e-05,-0.00018,-0.00023,4e-05,8e-05,4e-05,0.00028,4,22
18934,0.00012,-5e-05,-0.00018,-0.00023,4e-05,8e-05,4e-05,0.00028,4,22
18935,0.00012,-5e-05,-0.00018,-0.00023,4e-05,8e-05,4e-05,0.00028,4,22
18936,0.00012,-5e-05,-0.00018,-0.00023,4e-05,8e-05,4e-05,0.00028,4,22
18939,-7e-05,-5e-05,-0.00016,0.00028,-1e-05,4e-05,-3e-05,-8e-05,4,22
18940,-7e-05,-5e-05,-0.00016,0.00028,-1e-05,4e-05,-3e-05,-8e-05,4,22
18941,-7e-05,-5e-05,-0.00016,0.00028,-1e-05,4e-05,-3e-05,-8e-05,4,22
18942,-7e-05,-5e-05,-0.00016,0.00028,-1e-05,4e-05,-3e-05,-8e-05,4,22
18943,-7e-05,-5e-05,-0.00016,0.00028,-1e-05,4e-05,-3e-05,-8e-05,4,22
18944,-7e-05,-5e-05,-0.00016,0.00028,-1e-05,4e-05,-3e-05,-8e-05,4,22
18945,-7e-05,-5e-05,-0.00016,0.00028,-1e-05,4e-05,-3e-05,-8e-05,4,22
18946,-7e-05,-5e-05,-0.00016,0.00028,-1e-05,4e-05,-3e-05,-8e-05,4,22
18947,-7e-05,-5e-05,-0.00016,0.00028,-1e-05,4e-05,-3e-05,-8e-05,4,22
18948,-7e-05,-5e-05,-0.00016,0.00028,-1e-05,4e-05,-3e-05,-8e-05,4,22
18949,-7e-05,-5e-05,-0.00016,0.00028,-1e-05,4e-05,-3e-05,-8e-05,4,22
18950,-7e-05,-5e-05,-0.00016,0.00028,-1e-05,4e-05,-3e-05,-8e-05,4,22
18951,-7e-05,-5e-05,-0.00016,0.00028,-1e-05,4e-05,-3e-05,-8e-05,4,22
18952,-7e-05,-5e-05,-0.00016,0.00028,-1e-05,4e-05,-3e-05,-8e-05,4,22
18953,-7e-05,-5e-05,-0.00016,0.00028,-1e-05,4e-05,-3e-05,-8e-05,4,22
18954,-7e-05,-5e-05,-0.00016,0.00028,-1e-05,4e-05,-3e-05,-8e-05,4,22
18955,-7e-05,-5e-05,-0.00016,0.00028,-1e-05,4e-05,-3e-05,-8e-05,4,22
18956,-7e-05,-5e-05,-0.00016,0.00028,-1e-05,4e-05,-3e-05,-8e-05,4,22
18957,-7e-05,-5e-05,-0.00016,0.00028,-1e-05,4e-05,-3e-05,-8e-05,4,22
18958,-7e-05,-5e-05,-0.00016,0.00028,-1e-05,4e-05,-3e-05,-8e-05,4,22
18959,-7e-05,-8e-05,-0.00014,-0.00011,1e-05,-6e-05,-6e-05,1e-05,4,22
18960,-3e-05,8e-05,0.00026,-0.00104,-0.00028,-0.00016,-4e-05,1e-05,4,22
18961,-0.00023,-0.00028,0.00026,0.00052,3e-05,-3e-05,-6e-05,-8e-05,4,22
18962,-0.00023,-0.00028,0.00026,0.00052,3e-05,-3e-05,-6e-05,-8e-05,4,22
18963,-0.00023,-0.00028,0.00026,0.00052,3e-05,-3e-05,-6e-05,-8e-05,4,22
18964,-0.00023,-0.00028,0.00026,0.00052,3e-05,-3e-05,-6e-05,-8e-05,4,22
18965,-0.00023,-0.00028,0.00026,0.00052,3e-05,-3e-05,-6e-05,-8e-05,4,22
18966,-0.00023,-0.00028,0.00026,0.00052,3e-05,-3e-05,-6e-05,-8e-05,4,22
18967,-0.00023,-0.00028,0.00026,0.00052,3e-05,-3e-05,-6e-05,-8e-05,4,22
18968,-0.00023,-0.00028,0.00026,0.00052,3e-05,-3e-05,-6e-05,-8e-05,4,22
18969,-0.00023,-0.00028,0.00026,0.00052,3e-05,-3e-05,-6e-05,-8e-05,4,22
18970,-0.00023,-0.00028,0.00026,0.00052,3e-05,-3e-05,-6e-05,-8e-05,4,22
18971,-0.00023,-0.00028,0.00026,0.00052,3e-05,-3e-05,-6e-05,-8e-05,4,22
18972,-0.00023,-0.00028,0.00026,0.00052,3e-05,-3e-05,-6e-05,-8e-05,4,22
18973,-6e-05,-0.00012,0.00069,-0.00032,-0.00012,-3e-05,-3e-05,2e-05,4,22
18974,-6e-05,-0.00012,0.00069,-0.00032,-0.00012,-3e-05,-3e-05,2e-05,4,22
18975,-6e-05,-0.00012,0.00069,-0.00032,-0.00012,-3e-05,-3e-05,2e-05,4,22
18976,-6e-05,-0.00012,0.00069,-0.00032,-0.00012,-3e-05,-3e-05,2e-05,4,22
18977,-6e-05,-0.00012,0.00069,-0.00032,-0.00012,-3e-05,-3e-05,2e-05,4,22
18978,-6e-05,-0.00012,0.00069,-0.00032,-0.00012,-3e-05,-3e-05,2e-05,4,22
18979,-6e-05,-0.00012,0.00069,-0.00032,-0.00012,-3e-05,-3e-05,2e-05,4,22
18980,-6e-05,-0.00012,0.00069,-0.00032,-0.00012,-3e-05,-3e-05,2e-05,4,22
18981,-6e-05,-0.00012,0.00069,-0.00032,-0.00012,-3e-05,-3e-05,2e-05,4,22
18982,8e-05,8e-05,-0.00027,0.00021,0,5e-05,2e-05,4e-05,4,22
18983,8e-05,8e-05,-0.00027,0.00021,0,5e-05,2e-05,4e-05,4,22
18984,8e-05,8e-05,-0.00027,0.00021,0,5e-05,2e-05,4e-05,4,22
18985,8e-05,8e-05,-0.00027,0.00021,0,5e-05,2e-05,4e-05,4,22
18986,8e-05,8e-05,-0.00027,0.00021,0,5e-05,2e-05,4e-05,4,22
18988,8e-05,8e-05,-0.00027,0.00021,0,5e-05,2e-05,4e-05,4,22
18989,8e-05,8e-05,-0.00027,0.00021,0,5e-05,2e-05,4e-05,4,22
18990,8e-05,8e-05,-0.00027,0.00021,0,5e-05,2e-05,4e-05,4,22
18991,8e-05,8e-05,-0.00027,0.00021,0,5e-05,2e-05,4e-05,4,22
18992,8e-05,8e-05,-0.00027,0.00021,0,5e-05,2e-05,4e-05,4,22
18993,8e-05,8e-05,-0.00027,0.00021,0,5e-05,2e-05,4e-05,4,22
18994,8e-05,8e-05,-0.00027,0.00021,0,5e-05,2e-05,4e-05,4,22
18995,8e-05,8e-05,-0.00027,0.00021,0,5e-05,2e-05,4e-05,4,22
18996,8e-05,8e-05,-0.00027,0.00021,0,5e-05,2e-05,4e-05,4,22
18997,-6e-05,-0.00034,5e-05,-0.00108,-0.00033,-0.00014,-2e-05,2e-05,4,22
18998,0.00016,0.00043,0.00063,0.00036,0.00028,0.00013,8e-05,0.00019,4,22
18999,-3e-05,-0.00016,-0.00022,0.00025,5e-05,-2e-05,0,-0.00013,4,22
19000,-3e-05,-0.00016,-0.00022,0.00025,5e-05,-2e-05,0,-0.00013,4,22
19001,-3e-05,-0.00016,-0.00022,0.00025,5e-05,-2e-05,0,-0.00013,4,22
19002,-3e-05,-0.00016,-0.00022,0.00025,5e-05,-2e-05,0,-0.00013,4,22
19003,-3e-05,-0.00016,-0.00022,0.00025,5e-05,-2e-05,0,-0.00013,4,22
19004,-3e-05,-0.00016,-0.00022,0.00025,5e-05,-2e-05,0,-0.00013,4,22
19005,-3e-05,-0.00016,-0.00022,0.00025,5e-05,-2e-05,0,-0.00013,4,22
19006,-3e-05,-0.00016,-0.00022,0.00025,5e-05,-2e-05,0,-0.00013,4,22
19007,-3e-05,-0.00016,-0.00022,0.00025,5e-05,-2e-05,0,-0.00013,4,22
19008,-3e-05,-0.00016,-0.00022,0.00025,5e-05,-2e-05,0,-0.00013,4,22
19009,-3e-05,-0.00016,-0.00022,0.00025,5e-05,-2e-05,0,-0.00013,4,22
19010,-3e-05,-0.00016,-0.00022,0.00025,5e-05,-2e-05,0,-0.00013,4,22
19011,-3e-05,-0.00016,-0.00022,0.00025,5e-05,-2e-05,0,-0.00013,4,22
19012,-3e-05,-0.00016,-0.00022,0.00025,5e-05,-2e-05,0,-0.00013,4,22
19013,-3e-05,-0.00016,-0.00022,0.00025,5e-05,-2e-05,0,-0.00013,4,22
19014,-3e-05,-0.00016,-0.00022,0.00025,5e-05,-2e-05,0,-0.00013,4,22
19015,-3e-05,-0.00016,-0.00022,0.00025,5e-05,-2e-05,0,-0.00013,4,22
19016,-3e-05,-0.00016,-0.00022,0.00025,5e-05,-2e-05,0,-0.00013,4,22
19017,-3e-05,-0.00016,-0.00022,0.00025,5e-05,-2e-05,0,-0.00013,4,22
19018,-3e-05,-0.00016,-0.00022,0.00025,5e-05,-2e-05,0,-0.00013,4,22
19019,3e-05,0.00019,0.00011,-5e-05,0.00018,0.0001,0.0001,4e-05,4,22
19020,3e-05,0.00019,0.00011,-5e-05,0.00018,0.0001,0.0001,4e-05,4,22
19022,3e-05,0.00019,0.00011,-5e-05,0.00018,0.0001,0.0001,4e-05,4,22
19023,6e-05,0,0.00071,-0.00011,-5e-05,0,0,5e-05,4,22
19024,6e-05,0,0.00071,-0.00011,-5e-05,0,0,5e-05,4,22
19025,6e-05,0,0.00071,-0.00011,-5e-05,0,0,5e-05,4,22
19026,6e-05,0,0.00071,-0.00011,-5e-05,0,0,5e-05,4,22
19027,6e-05,0,0.00071,-0.00011,-5e-05,0,0,5e-05,4,22
19028,6e-05,0,0.00071,-0.00011,-5e-05,0,0,5e-05,4,22
19029,6e-05,0,0.00071,-0.00011,-5e-05,0,0,5e-05,4,22
19030,6e-05,0,0.00071,-0.00011,-5e-05,0,0,5e-05,4,22
19031,6e-05,0,0.00071,-0.00011,-5e-05,0,0,5e-05,4,22
19032,6e-05,0,0.00071,-0.00011,-5e-05,0,0,5e-05,4,22
19033,-0.00074,-0.00093,-0.00023,0.00096,-0.0007,-0.0007,-0.00038,-0.00031,4,22
19034,-0.00074,-0.00093,-0.00023,0.00096,-0.0007,-0.0007,-0.00038,-0.00031,4,22
19035,-0.00074,-0.00093,-0.00023,0.00096,-0.0007,-0.0007,-0.00038,-0.00031,4,22
19036,-0.00074,-0.00093,-0.00023,0.00096,-0.0007,-0.0007,-0.00038,-0.00031,4,22
19039,-0.00074,-0.00093,-0.00023,0.00096,-0.0007,-0.0007,-0.00038,-0.00031,4,22
19040,-0.00074,-0.00093,-0.00023,0.00096,-0.0007,-0.0007,-0.00038,-0.00031,4,22
19041,-0.00074,-0.00093,-0.00023,0.00096,-0.0007,-0.0007,-0.00038,-0.00031,4,22
19042,-5e-05,0,-0.00049,-0.00013,-4e-05,-1e-05,-5e-05,-4e-05,4,22
19043,-5e-05,0,-0.00049,-0.00013,-4e-05,-1e-05,-5e-05,-4e-05,4,22
19044,-5e-05,0,-0.00049,-0.00013,-4e-05,-1e-05,-5e-05,-4e-05,4,22
19045,-5e-05,0,-0.00049,-0.00013,-4e-05,-1e-05,-5e-05,-4e-05,4,22
19046,-5e-05,0,-0.00049,-0.00013,-4e-05,-1e-05,-5e-05,-4e-05,4,22
19047,-5e-05,0,-0.00049,-0.00013,-4e-05,-1e-05,-5e-05,-4e-05,4,22
19048,-5e-05,0,-0.00049,-0.00013,-4e-05,-1e-05,-5e-05,-4e-05,4,22
19049,-5e-05,0,-0.00049,-0.00013,-4e-05,-1e-05,-5e-05,-4e-05,4,22
19050,-5e-05,0,-0.00049,-0.00013,-4e-05,-1e-05,-5e-05,-4e-05,4,22
19051,-5e-05,0,-0.00049,-0.00013,-4e-05,-1e-05,-5e-05,-4e-05,4,22
19052,-5e-05,0,-0.00049,-0.00013,-4e-05,-1e-05,-5e-05,-4e-05,4,22
19053,-5e-05,0,-0.00049,-0.00013,-4e-05,-1e-05,-5e-05,-4e-05,4,22
19054,-5e-05,0,-0.00049,-0.00013,-4e-05,-1e-05,-5e-05,-4e-05,4,22
19055,-5e-05,0,-0.00049,-0.00013,-4e-05,-1e-05,-5e-05,-4e-05,4,22
19056,-5e-05,0,-0.00049,-0.00013,-4e-05,-1e-05,-5e-05,-4e-05,4,22
19057,-2e-05,0.00013,8e-05,0.00068,0.00016,8e-05,0,-6e-05,4,22
19058,-0.00011,-9e-05,-0.00028,-0.00025,3e-05,7e-05,6e-05,0,4,22
19059,-0.00011,-9e-05,-0.00028,-0.00025,3e-05,7e-05,6e-05,0,4,22
19060,-0.00011,-9e-05,-0.00028,-0.00025,3e-05,7e-05,6e-05,0,4,22
19061,-0.00011,-9e-05,-0.00028,-0.00025,3e-05,7e-05,6e-05,0,4,22
19062,-0.00011,-9e-05,-0.00028,-0.00025,3e-05,7e-05,6e-05,0,4,22
19063,-0.00011,-9e-05,-0.00028,-0.00025,3e-05,7e-05,6e-05,0,4,22
19064,-0.00011,-9e-05,-0.00028,-0.00025,3e-05,7e-05,6e-05,0,4,22
19065,-0.00011,-9e-05,-0.00028,-0.00025,3e-05,7e-05,6e-05,0,4,22
19066,-0.00011,-9e-05,-0.00028,-0.00025,3e-05,7e-05,6e-05,0,4,22
19067,-0.00011,-9e-05,-0.00028,-0.00025,3e-05,7e-05,6e-05,0,4,22
19068,-0.00011,-9e-05,-0.00028,-0.00025,3e-05,7e-05,6e-05,0,4,22
19069,-0.00011,-9e-05,-0.00028,-0.00025,3e-05,7e-05,6e-05,0,4,22
19070,-0.00011,-9e-05,-0.00028,-0.00025,3e-05,7e-05,6e-05,0,4,22
19071,-0.00011,-9e-05,-0.00028,-0.00025,3e-05,7e-05,6e-05,0,4,22
19072,-0.00011,-9e-05,-0.00028,-0.00025,3e-05,7e-05,6e-05,0,4,22
19073,-0.00011,-9e-05,-0.00028,-0.00025,3e-05,7e-05,6e-05,0,4,22
19074,-0.00011,-9e-05,-0.00028,-0.00025,3e-05,7e-05,6e-05,0,4,22
19075,-0.00011,-9e-05,-0.00028,-0.00025,3e-05,7e-05,6e-05,0,4,22
19076,-0.00011,-9e-05,-0.00028,-0.00025,3e-05,7e-05,6e-05,0,4,22
19077,-0.00011,-9e-05,-0.00028,-0.00025,3e-05,7e-05,6e-05,0,4,22
19078,-0.00011,-9e-05,-0.00028,-0.00025,3e-05,7e-05,6e-05,0,4,22
19079,0.00025,0.00036,0.00015,-0.00058,2e-05,0.00018,8e-05,8e-05,4,22
19080,0.00025,0.00036,0.00015,-0.00058,2e-05,0.00018,8e-05,8e-05,4,22
19081,5e-05,7e-05,-6e-05,-0.00071,4e-05,5e-05,4e-05,-0.00015,4,22
19082,5e-05,7e-05,-6e-05,-0.00071,4e-05,5e-05,4e-05,-0.00015,4,22
19083,5e-05,7e-05,-6e-05,-0.00071,4e-05,5e-05,4e-05,-0.00015,4,22
19084,5e-05,7e-05,-6e-05,-0.00071,4e-05,5e-05,4e-05,-0.00015,4,22
19085,5e-05,7e-05,-6e-05,-0.00071,4e-05,5e-05,4e-05,-0.00015,4,22
19086,5e-05,7e-05,-6e-05,-0.00071,4e-05,5e-05,4e-05,-0.00015,4,22
19089,5e-05,7e-05,-6e-05,-0.00071,4e-05,5e-05,4e-05,-0.00015,4,22
19090,5e-05,7e-05,-6e-05,-0.00071,4e-05,5e-05,4e-05,-0.00015,4,22
19091,5e-05,7e-05,-6e-05,-0.00071,4e-05,5e-05,4e-05,-0.00015,4,22
19092,5e-05,7e-05,-6e-05,-0.00071,4e-05,5e-05,4e-05,-0.00015,4,22
19093,-0.00029,-0.0003,-0.00054,-0.00088,-0.00026,-0.00023,-0.00012,-0.00027,4,22
19094,-0.00029,-0.0003,-0.00054,-0.00088,-0.00026,-0.00023,-0.00012,-0.00027,4,22
19095,-0.00029,-0.0003,-0.00054,-0.00088,-0.00026,-0.00023,-0.00012,-0.00027,4,22
19096,-0.00029,-0.0003,-0.00054,-0.00088,-0.00026,-0.00023,-0.00012,-0.00027,4,22
19097,-0.00029,-0.0003,-0.00054,-0.00088,-0.00026,-0.00023,-0.00012,-0.00027,4,22
19098,-0.00029,-0.0003,-0.00054,-0.00088,-0.00026,-0.00023,-0.00012,-0.00027,4,22
19099,-0.00029,-0.0003,-0.00054,-0.00088,-0.00026,-0.00023,-0.00012,-0.00027,4,22
19100,-0.00029,-0.0003,-0.00054,-0.00088,-0.00026,-0.00023,-0.00012,-0.00027,4,22
19101,-0.00029,-0.0003,-0.00054,-0.00088,-0.00026,-0.00023,-0.00012,-0.00027,4,22
19102,6e-05,-0.00024,-0.00048,0.00039,-1e-05,4e-05,-3e-05,8e-05,4,22
19103,6e-05,-0.00024,-0.00048,0.00039,-1e-05,4e-05,-3e-05,8e-05,4,22
19104,6e-05,-0.00024,-0.00048,0.00039,-1e-05,4e-05,-3e-05,8e-05,4,22
19105,6e-05,-0.00024,-0.00048,0.00039,-1e-05,4e-05,-3e-05,8e-05,4,22
19106,6e-05,-0.00024,-0.00048,0.00039,-1e-05,4e-05,-3e-05,8e-05,4,22
19107,6e-05,-0.00024,-0.00048,0.00039,-1e-05,4e-05,-3e-05,8e-05,4,22
19108,6e-05,-0.00024,-0.00048,0.00039,-1e-05,4e-05,-3e-05,8e-05,4,22
19109,6e-05,-0.00024,-0.00048,0.00039,-1e-05,4e-05,-3e-05,8e-05,4,22
19110,6e-05,-0.00024,-0.00048,0.00039,-1e-05,4e-05,-3e-05,8e-05,4,22
19111,6e-05,-0.00024,-0.00048,0.00039,-1e-05,4e-05,-3e-05,8e-05,4,22
19112,6e-05,-0.00024,-0.00048,0.00039,-1e-05,4e-05,-3e-05,8e-05,4,22
19113,6e-05,-0.00024,-0.00048,0.00039,-1e-05,4e-05,-3e-05,8e-05,4,22
19115,6e-05,-0.00024,-0.00048,0.00039,-1e-05,4e-05,-3e-05,8e-05,4,22
19116,6e-05,-0.00024,-0.00048,0.00039,-1e-05,4e-05,-3e-05,8e-05,4,22
19117,2e-05,0.00021,0.00089,0.00056,6e-05,2e-05,3e-05,-7e-05,4,22
19118,-0.00011,3e-05,0.00011,0.00015,0.00014,0.00015,6e-05,0,4,22
19119,0.00034,0.00067,0.00071,1e-05,0.00019,0.00014,0.00011,0.0002,4,22
19120,0.00034,0.00067,0.00071,1e-05,0.00019,0.00014,0.00011,0.0002,4,22
19121,0.00034,0.00067,0.00071,1e-05,0.00019,0.00014,0.00011,0.0002,4,22
19122,0.00034,0.00067,0.00071,1e-05,0.00019,0.00014,0.00011,0.0002,4,22
19123,0.00034,0.00067,0.00071,1e-05,0.00019,0.00014,0.00011,0.0002,4,22
19124,0.00034,0.00067,0.00071,1e-05,0.00019,0.00014,0.00011,0.0002,4,22
19125,0.00034,0.00067,0.00071,1e-05,0.00019,0.00014,0.00011,0.0002,4,22
19126,0.00034,0.00067,0.00071,1e-05,0.00019,0.00014,0.00011,0.0002,4,22
19127,0.00034,0.00067,0.00071,1e-05,0.00019,0.00014,0.00011,0.0002,4,22
19128,0.00034,0.00067,0.00071,1e-05,0.00019,0.00014,0.00011,0.0002,4,22
19129,0.00034,0.00067,0.00071,1e-05,0.00019,0.00014,0.00011,0.0002,4,22
19130,0.00034,0.00067,0.00071,1e-05,0.00019,0.00014,0.00011,0.0002,4,22
19131,0.00034,0.00067,0.00071,1e-05,0.00019,0.00014,0.00011,0.0002,4,22
19132,0.00034,0.00067,0.00071,1e-05,0.00019,0.00014,0.00011,0.0002,4,22
19133,0.00034,0.00067,0.00071,1e-05,0.00019,0.00014,0.00011,0.0002,4,22
19134,0.00034,0.00067,0.00071,1e-05,0.00019,0.00014,0.00011,0.0002,4,22
19135,0.00034,0.00067,0.00071,1e-05,0.00019,0.00014,0.00011,0.0002,4,22
19136,0.00034,0.00067,0.00071,1e-05,0.00019,0.00014,0.00011,0.0002,4,22
19139,9e-05,0.00022,-0.00029,0.00021,0.00018,0.00013,7e-05,8e-05,4,22
19140,9e-05,0.00022,-0.00029,0.00021,0.00018,0.00013,7e-05,8e-05,4,22
19141,0.0004,0.00068,0.00056,-9e-05,0.00028,0.00031,0.00015,0.00021,4,22
19142,0.0004,0.00068,0.00056,-9e-05,0.00028,0.00031,0.00015,0.00021,4,22
19143,0.0004,0.00068,0.00056,-9e-05,0.00028,0.00031,0.00015,0.00021,4,22
19144,0.0004,0.00068,0.00056,-9e-05,0.00028,0.00031,0.00015,0.00021,4,22
19145,0.0004,0.00068,0.00056,-9e-05,0.00028,0.00031,0.00015,0.00021,4,22
19146,0.0004,0.00068,0.00056,-9e-05,0.00028,0.00031,0.00015,0.00021,4,22
19147,0.0004,0.00068,0.00056,-9e-05,0.00028,0.00031,0.00015,0.00021,4,22
19148,0.0004,0.00068,0.00056,-9e-05,0.00028,0.00031,0.00015,0.00021,4,22
19149,0.0004,0.00068,0.00056,-9e-05,0.00028,0.00031,0.00015,0.00021,4,22
19150,0.0004,0.00068,0.00056,-9e-05,0.00028,0.00031,0.00015,0.00021,4,22
19151,0.0004,0.00068,0.00056,-9e-05,0.00028,0.00031,0.00015,0.00021,4,22
19152,0.0004,0.00068,0.00056,-9e-05,0.00028,0.00031,0.00015,0.00021,4,22
19153,-0.00023,-0.00043,-0.00085,0.00013,-7e-05,-0.0001,-9e-05,-0.00016,4,22
19154,-0.00023,-0.00043,-0.00085,0.00013,-7e-05,-0.0001,-9e-05,-0.00016,4,22
19155,-0.00023,-0.00043,-0.00085,0.00013,-7e-05,-0.0001,-9e-05,-0.00016,4,22
19156,-0.00023,-0.00043,-0.00085,0.00013,-7e-05,-0.0001,-9e-05,-0.00016,4,22
19157,-0.00023,-0.00043,-0.00085,0.00013,-7e-05,-0.0001,-9e-05,-0.00016,4,22
19158,-0.00023,-0.00043,-0.00085,0.00013,-7e-05,-0.0001,-9e-05,-0.00016,4,22
19159,-0.00023,-0.00043,-0.00085,0.00013,-7e-05,-0.0001,-9e-05,-0.00016,4,22
19160,-0.00023,-0.00043,-0.00085,0.00013,-7e-05,-0.0001,-9e-05,-0.00016,4,22
19161,-0.00023,-0.00043,-0.00085,0.00013,-7e-05,-0.0001,-9e-05,-0.00016,4,22
19162,-0.00023,-0.00043,-0.00085,0.00013,-7e-05,-0.0001,-9e-05,-0.00016,4,22
19163,-0.00023,-0.00043,-0.00085,0.00013,-7e-05,-0.0001,-9e-05,-0.00016,4,22
19164,-0.00023,-0.00043,-0.00085,0.00013,-7e-05,-0.0001,-9e-05,-0.00016,4,22
19165,-0.00023,-0.00043,-0.00085,0.00013,-7e-05,-0.0001,-9e-05,-0.00016,4,22
19166,-0.00023,-0.00043,-0.00085,0.00013,-7e-05,-0.0001,-9e-05,-0.00016,4,22
19167,-0.00023,-0.00043,-0.00085,0.00013,-7e-05,-0.0001,-9e-05,-0.00016,4,22
19168,-1e-05,1e-05,-0.00079,-7e-05,-0.00014,-0.00011,-9e-05,5e-05,4,22
19169,-1e-05,1e-05,-0.00079,-7e-05,-0.00014,-0.00011,-9e-05,5e-05,4,22
19170,-1e-05,1e-05,-0.00079,-7e-05,-0.00014,-0.00011,-9e-05,5e-05,4,22
19171,-1e-05,1e-05,-0.00079,-7e-05,-0.00014,-0.00011,-9e-05,5e-05,4,22
19172,-1e-05,1e-05,-0.00079,-7e-05,-0.00014,-0.00011,-9e-05,5e-05,4,22
19173,-1e-05,1e-05,-0.00079,-7e-05,-0.00014,-0.00011,-9e-05,5e-05,4,22
19174,-1e-05,1e-05,-0.00079,-7e-05,-0.00014,-0.00011,-9e-05,5e-05,4,22
19175,-1e-05,1e-05,-0.00079,-7e-05,-0.00014,-0.00011,-9e-05,5e-05,4,22
19176,-1e-05,1e-05,-0.00079,-7e-05,-0.00014,-0.00011,-9e-05,5e-05,4,22
19177,0.00031,0.00021,-0.00026,0.00042,0.00028,0.00025,0.00012,0.00018,4,22
19178,-0.00021,-0.00033,-0.00093,-0.001,-0.00054,-0.0003,-0.00013,-0.00016,4,22
19179,-0.00021,-0.00033,-0.00093,-0.001,-0.00054,-0.0003,-0.00013,-0.00016,4,22
19180,-0.00021,-0.00033,-0.00093,-0.001,-0.00054,-0.0003,-0.00013,-0.00016,4,22
19181,-0.00021,-0.00033,-0.00093,-0.001,-0.00054,-0.0003,-0.00013,-0.00016,4,22
19182,-0.00021,-0.00033,-0.00093,-0.001,-0.00054,-0.0003,-0.00013,-0.00016,4,22
19183,-0.00021,-0.00033,-0.00093,-0.001,-0.00054,-0.0003,-0.00013,-0.00016,4,22
19184,-0.00021,-0.00033,-0.00093,-0.001,-0.00054,-0.0003,-0.00013,-0.00016,4,22
19185,-0.00021,-0.00033,-0.00093,-0.001,-0.00054,-0.0003,-0.00013,-0.00016,4,22
19186,-0.00021,-0.00033,-0.00093,-0.001,-0.00054,-0.0003,-0.00013,-0.00016,4,22
19188,-0.00021,-0.00033,-0.00093,-0.001,-0.00054,-0.0003,-0.00013,-0.00016,4,22
19189,-0.00021,-0.00033,-0.00093,-0.001,-0.00054,-0.0003,-0.00013,-0.00016,4,22
19190,-0.00021,-0.00033,-0.00093,-0.001,-0.00054,-0.0003,-0.00013,-0.00016,4,22
19191,-0.00021,-0.00033,-0.00093,-0.001,-0.00054,-0.0003,-0.00013,-0.00016,4,22
19192,-0.00021,-0.00033,-0.00093,-0.001,-0.00054,-0.0003,-0.00013,-0.00016,4,22
19193,-0.00021,-0.00033,-0.00093,-0.001,-0.00054,-0.0003,-0.00013,-0.00016,4,22
19194,-0.00021,-0.00033,-0.00093,-0.001,-0.00054,-0.0003,-0.00013,-0.00016,4,22
19195,-0.00021,-0.00033,-0.00093,-0.001,-0.00054,-0.0003,-0.00013,-0.00016,4,22
19196,-0.00021,-0.00033,-0.00093,-0.001,-0.00054,-0.0003,-0.00013,-0.00016,4,22
19197,-0.00021,-0.00033,-0.00093,-0.001,-0.00054,-0.0003,-0.00013,-0.00016,4,22
19198,-0.00021,-0.00033,-0.00093,-0.001,-0.00054,-0.0003,-0.00013,-0.00016,4,22
19199,-7e-05,-2e-05,1e-05,0.0011,4e-05,-2e-05,-3e-05,-0.00026,4,22
19200,6e-05,0.00018,0.0004,0.00086,9e-05,1e-05,4e-05,6e-05,4,22
19201,-0.0001,-5e-05,0.00071,0.00035,-6e-05,-9e-05,-8e-05,-2e-05,4,22
19202,-0.0001,-5e-05,0.00071,0.00035,-6e-05,-9e-05,-8e-05,-2e-05,4,22
19203,-0.0001,-5e-05,0.00071,0.00035,-6e-05,-9e-05,-8e-05,-2e-05,4,22
19204,-0.0001,-5e-05,0.00071,0.00035,-6e-05,-9e-05,-8e-05,-2e-05,4,22
19205,-0.0001,-5e-05,0.00071,0.00035,-6e-05,-9e-05,-8e-05,-2e-05,4,22
19206,-0.0001,-5e-05,0.00071,0.00035,-6e-05,-9e-05,-8e-05,-2e-05,4,22
19207,-0.0001,-5e-05,0.00071,0.00035,-6e-05,-9e-05,-8e-05,-2e-05,4,22
19208,-0.0001,-5e-05,0.00071,0.00035,-6e-05,-9e-05,-8e-05,-2e-05,4,22
19209,-0.0001,-5e-05,0.00071,0.00035,-6e-05,-9e-05,-8e-05,-2e-05,4,22
19210,-0.0001,-5e-05,0.00071,0.00035,-6e-05,-9e-05,-8e-05,-2e-05,4,22
19211,-0.0001,-5e-05,0.00071,0.00035,-6e-05,-9e-05,-8e-05,-2e-05,4,22
19212,-0.0001,-5e-05,0.00071,0.00035,-6e-05,-9e-05,-8e-05,-2e-05,4,22
19213,-0.0001,-5e-05,0.00071,0.00035,-6e-05,-9e-05,-8e-05,-2e-05,4,22
19214,-0.0001,-5e-05,0.00071,0.00035,-6e-05,-9e-05,-8e-05,-2e-05,4,22
19215,-0.0001,-5e-05,0.00071,0.00035,-6e-05,-9e-05,-8e-05,-2e-05,4,22
19216,-0.0001,-5e-05,0.00071,0.00035,-6e-05,-9e-05,-8e-05,-2e-05,4,22
19217,-0.0001,-5e-05,0.00071,0.00035,-6e-05,-9e-05,-8e-05,-2e-05,4,22
19218,-0.0001,-5e-05,0.00071,0.00035,-6e-05,-9e-05,-8e-05,-2e-05,4,22
19219,-0.0001,-5e-05,0.00071,0.00035,-6e-05,-9e-05,-8e-05,-2e-05,4,22
19220,-0.0001,-5e-05,0.00071,0.00035,-6e-05,-9e-05,-8e-05,-2e-05,4,22
19221,-0.0001,-5e-05,0.00071,0.00035,-6e-05,-9e-05,-8e-05,-2e-05,4,22
19222,0.00014,2e-05,-0.00041,-0.00017,5e-05,0.00012,5e-05,0.00018,4,22
19223,0.00014,2e-05,-0.00041,-0.00017,5e-05,0.00012,5e-05,0.00018,4,22
19224,-0.0002,-2e-05,0.00018,0.00086,-4e-05,-0.00013,-7e-05,-7e-05,4,22
19225,-0.0002,-2e-05,0.00018,0.00086,-4e-05,-0.00013,-7e-05,-7e-05,4,22
19226,-0.0002,-2e-05,0.00018,0.00086,-4e-05,-0.00013,-7e-05,-7e-05,4,22
19227,-0.0002,-2e-05,0.00018,0.00086,-4e-05,-0.00013,-7e-05,-7e-05,4,22
19228,-0.0002,-2e-05,0.00018,0.00086,-4e-05,-0.00013,-7e-05,-7e-05,4,22
19229,-0.0002,-2e-05,0.00018,0.00086,-4e-05,-0.00013,-7e-05,-7e-05,4,22
19230,-0.0002,-2e-05,0.00018,0.00086,-4e-05,-0.00013,-7e-05,-7e-05,4,22
19231,-0.0002,-2e-05,0.00018,0.00086,-4e-05,-0.00013,-7e-05,-7e-05,4,22
19232,-0.0002,-2e-05,0.00018,0.00086,-4e-05,-0.00013,-7e-05,-7e-05,4,22
19233,-0.0002,-2e-05,0.00018,0.00086,-4e-05,-0.00013,-7e-05,-7e-05,4,22
19234,-0.0002,-2e-05,0.00018,0.00086,-4e-05,-0.00013,-7e-05,-7e-05,4,22
19235,-0.0002,-2e-05,0.00018,0.00086,-4e-05,-0.00013,-7e-05,-7e-05,4,22
19236,-0.0002,-2e-05,0.00018,0.00086,-4e-05,-0.00013,-7e-05,-7e-05,4,22
19239,-0.00019,7e-05,0.00036,-0.00019,-5e-05,-3e-05,-5e-05,-9e-05,4,22
19240,-0.00017,-1e-05,0.00077,0.00033,0.00017,5e-05,-3e-05,-7e-05,4,22
19241,-0.00017,-1e-05,0.00077,0.00033,0.00017,5e-05,-3e-05,-7e-05,4,22
19242,-0.00017,-1e-05,0.00077,0.00033,0.00017,5e-05,-3e-05,-7e-05,4,22
19243,-0.00017,-1e-05,0.00077,0.00033,0.00017,5e-05,-3e-05,-7e-05,4,22
19244,-0.00017,-1e-05,0.00077,0.00033,0.00017,5e-05,-3e-05,-7e-05,4,22
19245,-0.00017,-1e-05,0.00077,0.00033,0.00017,5e-05,-3e-05,-7e-05,4,22
19246,-0.00017,-1e-05,0.00077,0.00033,0.00017,5e-05,-3e-05,-7e-05,4,22
19247,-0.00017,-1e-05,0.00077,0.00033,0.00017,5e-05,-3e-05,-7e-05,4,22
19248,-0.00017,-1e-05,0.00077,0.00033,0.00017,5e-05,-3e-05,-7e-05,4,22
19249,-0.00017,-1e-05,0.00077,0.00033,0.00017,5e-05,-3e-05,-7e-05,4,22
19250,-0.00017,-1e-05,0.00077,0.00033,0.00017,5e-05,-3e-05,-7e-05,4,22
19251,-0.00017,-1e-05,0.00077,0.00033,0.00017,5e-05,-3e-05,-7e-05,4,22
19252,-0.00017,-1e-05,0.00077,0.00033,0.00017,5e-05,-3e-05,-7e-05,4,22
19253,-0.00017,-1e-05,0.00077,0.00033,0.00017,5e-05,-3e-05,-7e-05,4,22
19254,-0.00017,-1e-05,0.00077,0.00033,0.00017,5e-05,-3e-05,-7e-05,4,22
19255,-0.00017,-1e-05,0.00077,0.00033,0.00017,5e-05,-3e-05,-7e-05,4,22
19257,-0.00017,-1e-05,0.00077,0.00033,0.00017,5e-05,-3e-05,-7e-05,4,22
19258,-0.00017,-1e-05,0.00077,0.00033,0.00017,5e-05,-3e-05,-7e-05,4,22
19259,-5e-05,-0.00012,0.00074,0.00094,-8e-05,-0.00018,-0.0001,-0.00011,4,22
19260,-5e-05,-0.00012,0.00074,0.00094,-8e-05,-0.00018,-0.0001,-0.00011,4,22
19261,-0.00018,-0.00053,-0.00111,-0.00108,-0.00018,-0.00013,-0.00012,-0.00037,4,22
19262,-0.00018,-0.00053,-0.00111,-0.00108,-0.00018,-0.00013,-0.00012,-0.00037,4,22
19263,-0.00018,-0.00053,-0.00111,-0.00108,-0.00018,-0.00013,-0.00012,-0.00037,4,22
19264,-0.00018,-0.00053,-0.00111,-0.00108,-0.00018,-0.00013,-0.00012,-0.00037,4,22
19265,-0.00018,-0.00053,-0.00111,-0.00108,-0.00018,-0.00013,-0.00012,-0.00037,4,22
19266,-0.00018,-0.00053,-0.00111,-0.00108,-0.00018,-0.00013,-0.00012,-0.00037,4,22
19267,-0.00018,-0.00053,-0.00111,-0.00108,-0.00018,-0.00013,-0.00012,-0.00037,4,22
19268,-0.00018,-0.00053,-0.00111,-0.00108,-0.00018,-0.00013,-0.00012,-0.00037,4,22
19269,-0.00018,-0.00053,-0.00111,-0.00108,-0.00018,-0.00013,-0.00012,-0.00037,4,22
19270,-0.00018,-0.00053,-0.00111,-0.00108,-0.00018,-0.00013,-0.00012,-0.00037,4,22
19271,-0.00018,-0.00053,-0.00111,-0.00108,-0.00018,-0.00013,-0.00012,-0.00037,4,22
19272,-0.00018,-0.00053,-0.00111,-0.00108,-0.00018,-0.00013,-0.00012,-0.00037,4,22
19273,-3e-05,-0.00012,0.00021,-0.00028,-3e-05,-3e-05,-4e-05,-1e-05,4,22
19274,-0.00014,-0.00015,0.00084,0.0001,-9e-05,-9e-05,-6e-05,-9e-05,4,22
19275,-0.00014,-0.00015,0.00084,0.0001,-9e-05,-9e-05,-6e-05,-9e-05,4,22
19276,-0.00014,-0.00015,0.00084,0.0001,-9e-05,-9e-05,-6e-05,-9e-05,4,22
19277,-0.00014,-0.00015,0.00084,0.0001,-9e-05,-9e-05,-6e-05,-9e-05,4,22
19278,-0.00014,-0.00015,0.00084,0.0001,-9e-05,-9e-05,-6e-05,-9e-05,4,22
19279,-0.00014,-0.00015,0.00084,0.0001,-9e-05,-9e-05,-6e-05,-9e-05,4,22
19280,-0.00014,-0.00015,0.00084,0.0001,-9e-05,-9e-05,-6e-05,-9e-05,4,22
19281,-0.00014,-0.00015,0.00084,0.0001,-9e-05,-9e-05,-6e-05,-9e-05,4,22
19282,7e-05,0.00013,0.00043,0.00063,0.00018,0.00011,5e-05,0.0001,4,22
19283,7e-05,0.00013,0.00043,0.00063,0.00018,0.00011,5e-05,0.0001,4,22
19284,7e-05,0.00013,0.00043,0.00063,0.00018,0.00011,5e-05,0.0001,4,22
19285,7e-05,0.00013,0.00043,0.00063,0.00018,0.00011,5e-05,0.0001,4,22
19286,7e-05,0.00013,0.00043,0.00063,0.00018,0.00011,5e-05,0.0001,4,22
19288,7e-05,0.00013,0.00043,0.00063,0.00018,0.00011,5e-05,0.0001,4,22
19289,7e-05,0.00013,0.00043,0.00063,0.00018,0.00011,5e-05,0.0001,4,22
19290,7e-05,0.00013,0.00043,0.00063,0.00018,0.00011,5e-05,0.0001,4,22
19291,7e-05,0.00013,0.00043,0.00063,0.00018,0.00011,5e-05,0.0001,4,22
19292,7e-05,0.00013,0.00043,0.00063,0.00018,0.00011,5e-05,0.0001,4,22
19293,7e-05,0.00013,0.00043,0.00063,0.00018,0.00011,5e-05,0.0001,4,22
19294,7e-05,0.00013,0.00043,0.00063,0.00018,0.00011,5e-05,0.0001,4,22
19295,7e-05,0.00013,0.00043,0.00063,0.00018,0.00011,5e-05,0.0001,4,22
19296,7e-05,0.00013,0.00043,0.00063,0.00018,0.00011,5e-05,0.0001,4,22
19297,3e-05,-5e-05,-9e-05,-0.0001,5e-05,5e-05,-1e-05,-9e-05,4,22
19298,2e-05,-0.00028,-0.0006,-0.00017,-0.00015,-1e-05,1e-05,2e-05,4,22
19299,-0.00027,-0.00015,0.0005,0.00041,-0.00014,-0.00033,-0.00015,-0.00017,4,22
19300,-0.00027,-0.00015,0.0005,0.00041,-0.00014,-0.00033,-0.00015,-0.00017,4,22
19301,-0.00027,-0.00015,0.0005,0.00041,-0.00014,-0.00033,-0.00015,-0.00017,4,22
19302,-0.00027,-0.00015,0.0005,0.00041,-0.00014,-0.00033,-0.00015,-0.00017,4,22
19303,-0.00027,-0.00015,0.0005,0.00041,-0.00014,-0.00033,-0.00015,-0.00017,4,22
19304,-0.00027,-0.00015,0.0005,0.00041,-0.00014,-0.00033,-0.00015,-0.00017,4,22
19305,-0.00027,-0.00015,0.0005,0.00041,-0.00014,-0.00033,-0.00015,-0.00017,4,22
19306,-0.00027,-0.00015,0.0005,0.00041,-0.00014,-0.00033,-0.00015,-0.00017,4,22
19307,-0.00027,-0.00015,0.0005,0.00041,-0.00014,-0.00033,-0.00015,-0.00017,4,22
19308,-0.00027,-0.00015,0.0005,0.00041,-0.00014,-0.00033,-0.00015,-0.00017,4,22
19309,-0.00027,-0.00015,0.0005,0.00041,-0.00014,-0.00033,-0.00015,-0.00017,4,22
19310,-0.00027,-0.00015,0.0005,0.00041,-0.00014,-0.00033,-0.00015,-0.00017,4,22
19311,-0.00027,-0.00015,0.0005,0.00041,-0.00014,-0.00033,-0.00015,-0.00017,4,22
19312,-0.00027,-0.00015,0.0005,0.00041,-0.00014,-0.00033,-0.00015,-0.00017,4,22
19313,-0.00027,-0.00015,0.0005,0.00041,-0.00014,-0.00033,-0.00015,-0.00017,4,22
19314,-0.00027,-0.00015,0.0005,0.00041,-0.00014,-0.00033,-0.00015,-0.00017,4,22
19315,-0.00027,-0.00015,0.0005,0.00041,-0.00014,-0.00033,-0.00015,-0.00017,4,22
19316,-0.00027,-0.00015,0.0005,0.00041,-0.00014,-0.00033,-0.00015,-0.00017,4,22
19317,-0.00027,-0.00015,0.0005,0.00041,-0.00014,-0.00033,-0.00015,-0.00017,4,22
19318,-0.00027,-0.00015,0.0005,0.00041,-0.00014,-0.00033,-0.00015,-0.00017,4,22
19319,5e-05,4e-05,-0.00063,-0.00044,-5e-05,4e-05,3e-05,8e-05,4,22
19320,5e-05,4e-05,-0.00063,-0.00044,-5e-05,4e-05,3e-05,8e-05,4,22
19321,4e-05,-1e-05,0.00066,0.00033,0.00021,6e-05,5e-05,0.00019,4,22
19322,4e-05,-1e-05,0.00066,0.00033,0.00021,6e-05,5e-05,0.00019,4,22
19323,4e-05,-1e-05,0.00066,0.00033,0.00021,6e-05,5e-05,0.00019,4,22
19324,4e-05,-1e-05,0.00066,0.00033,0.00021,6e-05,5e-05,0.00019,4,22
19325,4e-05,-1e-05,0.00066,0.00033,0.00021,6e-05,5e-05,0.00019,4,22
19326,4e-05,-1e-05,0.00066,0.00033,0.00021,6e-05,5e-05,0.00019,4,22
19327,4e-05,-1e-05,0.00066,0.00033,0.00021,6e-05,5e-05,0.00019,4,22
19328,4e-05,-1e-05,0.00066,0.00033,0.00021,6e-05,5e-05,0.00019,4,22
19329,4e-05,-1e-05,0.00066,0.00033,0.00021,6e-05,5e-05,0.00019,4,22
19330,4e-05,-1e-05,0.00066,0.00033,0.00021,6e-05,5e-05,0.00019,4,22
19331,4e-05,-1e-05,0.00066,0.00033,0.00021,6e-05,5e-05,0.00019,4,22
19332,4e-05,-1e-05,0.00066,0.00033,0.00021,6e-05,5e-05,0.00019,4,22
19333,4e-05,-1e-05,0.00066,0.00033,0.00021,6e-05,5e-05,0.00019,4,22
19334,4e-05,-1e-05,0.00066,0.00033,0.00021,6e-05,5e-05,0.00019,4,22
19335,4e-05,-1e-05,0.00066,0.00033,0.00021,6e-05,5e-05,0.00019,4,22
19336,4e-05,-1e-05,0.00066,0.00033,0.00021,6e-05,5e-05,0.00019,4,22
19338,4e-05,-1e-05,0.00066,0.00033,0.00021,6e-05,5e-05,0.00019,4,22
19339,4e-05,-1e-05,0.00066,0.00033,0.00021,6e-05,5e-05,0.00019,4,22
19340,4e-05,-1e-05,0.00066,0.00033,0.00021,6e-05,5e-05,0.00019,4,22
19341,4e-05,-1e-05,0.00066,0.00033,0.00021,6e-05,5e-05,0.00019,4,22
19342,6e-05,0.00017,-8e-05,0.00012,0.00013,3e-05,3e-05,3e-05,4,22
19343,1e-05,0.00014,0.0005,0.0004,8e-05,4e-05,3e-05,2e-05,4,22
19344,2e-05,9e-05,-0.00066,-0.0003,-0.0001,-2e-05,2e-05,-1e-05,4,22
19345,2e-05,9e-05,-0.00066,-0.0003,-0.0001,-2e-05,2e-05,-1e-05,4,22
19346,2e-05,9e-05,-0.00066,-0.0003,-0.0001,-2e-05,2e-05,-1e-05,4,22
19347,2e-05,9e-05,-0.00066,-0.0003,-0.0001,-2e-05,2e-05,-1e-05,4,22
19348,2e-05,9e-05,-0.00066,-0.0003,-0.0001,-2e-05,2e-05,-1e-05,4,22
19349,2e-05,9e-05,-0.00066,-0.0003,-0.0001,-2e-05,2e-05,-1e-05,4,22
19350,2e-05,9e-05,-0.00066,-0.0003,-0.0001,-2e-05,2e-05,-1e-05,4,22
19351,2e-05,9e-05,-0.00066,-0.0003,-0.0001,-2e-05,2e-05,-1e-05,4,22
19352,2e-05,9e-05,-0.00066,-0.0003,-0.0001,-2e-05,2e-05,-1e-05,4,22
19353,2e-05,9e-05,-0.00066,-0.0003,-0.0001,-2e-05,2e-05,-1e-05,4,22
19354,2e-05,9e-05,-0.00066,-0.0003,-0.0001,-2e-05,2e-05,-1e-05,4,22
19355,2e-05,9e-05,-0.00066,-0.0003,-0.0001,-2e-05,2e-05,-1e-05,4,22
19356,2e-05,9e-05,-0.00066,-0.0003,-0.0001,-2e-05,2e-05,-1e-05,4,22
19357,6e-05,-6e-05,-0.0003,-0.00039,6e-05,0.0001,2e-05,3e-05,4,22
19358,6e-05,-6e-05,-0.0003,-0.00039,6e-05,0.0001,2e-05,3e-05,4,22
19359,-0.00039,-0.00091,-0.00115,0.00044,-0.00036,-0.00028,-0.00015,-0.00022,4,22
19360,-0.00039,-0.00091,-0.00115,0.00044,-0.00036,-0.00028,-0.00015,-0.00022,4,22
19361,-0.00039,-0.00091,-0.00115,0.00044,-0.00036,-0.00028,-0.00015,-0.00022,4,22
19362,-0.00039,-0.00091,-0.00115,0.00044,-0.00036,-0.00028,-0.00015,-0.00022,4,22
19363,-0.00039,-0.00091,-0.00115,0.00044,-0.00036,-0.00028,-0.00015,-0.00022,4,22
19364,-0.00039,-0.00091,-0.00115,0.00044,-0.00036,-0.00028,-0.00015,-0.00022,4,22
19365,-0.00039,-0.00091,-0.00115,0.00044,-0.00036,-0.00028,-0.00015,-0.00022,4,22
19366,-0.00039,-0.00091,-0.00115,0.00044,-0.00036,-0.00028,-0.00015,-0.00022,4,22
19367,-0.00039,-0.00091,-0.00115,0.00044,-0.00036,-0.00028,-0.00015,-0.00022,4,22
19368,-0.00039,-0.00091,-0.00115,0.00044,-0.00036,-0.00028,-0.00015,-0.00022,4,22
19369,-0.00039,-0.00091,-0.00115,0.00044,-0.00036,-0.00028,-0.00015,-0.00022,4,22
19370,-0.00039,-0.00091,-0.00115,0.00044,-0.00036,-0.00028,-0.00015,-0.00022,4,22
19371,-0.00039,-0.00091,-0.00115,0.00044,-0.00036,-0.00028,-0.00015,-0.00022,4,22
19373,-0.00039,-0.00091,-0.00115,0.00044,-0.00036,-0.00028,-0.00015,-0.00022,4,22
19374,-0.00039,-0.00091,-0.00115,0.00044,-0.00036,-0.00028,-0.00015,-0.00022,4,22
19375,-0.00039,-0.00091,-0.00115,0.00044,-0.00036,-0.00028,-0.00015,-0.00022,4,22
19376,-0.00039,-0.00091,-0.00115,0.00044,-0.00036,-0.00028,-0.00015,-0.00022,4,22
19377,-0.00039,-0.00091,-0.00115,0.00044,-0.00036,-0.00028,-0.00015,-0.00022,4,22
19378,-0.00039,-0.00091,-0.00115,0.00044,-0.00036,-0.00028,-0.00015,-0.00022,4,22
19379,0.00017,0.00021,0.00066,0.00073,0.00035,0.00027,9e-05,0.0001,4,22
19381,0.00017,0.00021,0.00066,0.00073,0.00035,0.00027,9e-05,0.0001,4,22
19382,0.00017,0.00021,0.00066,0.00073,0.00035,0.00027,9e-05,0.0001,4,22
19383,0.00017,0.00021,0.00066,0.00073,0.00035,0.00027,9e-05,0.0001,4,22
19384,0.00017,0.00021,0.00066,0.00073,0.00035,0.00027,9e-05,0.0001,4,22
19385,0.00017,0.00021,0.00066,0.00073,0.00035,0.00027,9e-05,0.0001,4,22
19386,0.00017,0.00021,0.00066,0.00073,0.00035,0.00027,9e-05,0.0001,4,22
19388,0.00017,0.00021,0.00066,0.00073,0.00035,0.00027,9e-05,0.0001,4,22
19389,0.00017,0.00021,0.00066,0.00073,0.00035,0.00027,9e-05,0.0001,4,22
19390,0.00017,0.00021,0.00066,0.00073,0.00035,0.00027,9e-05,0.0001,4,22
19391,0.00017,0.00021,0.00066,0.00073,0.00035,0.00027,9e-05,0.0001,4,22
19392,0.00017,0.00021,0.00066,0.00073,0.00035,0.00027,9e-05,0.0001,4,22
19393,0.00017,0.00021,0.00066,0.00073,0.00035,0.00027,9e-05,0.0001,4,22
19394,0.00017,0.00021,0.00066,0.00073,0.00035,0.00027,9e-05,0.0001,4,22
19395,0.00017,0.00021,0.00066,0.00073,0.00035,0.00027,9e-05,0.0001,4,22
19396,0.00017,0.00021,0.00066,0.00073,0.00035,0.00027,9e-05,0.0001,4,22
19397,0.00017,0.00021,0.00066,0.00073,0.00035,0.00027,9e-05,0.0001,4,22
19398,0.00017,0.00021,0.00066,0.00073,0.00035,0.00027,9e-05,0.0001,4,22
19399,0.00017,0.00021,0.00066,0.00073,0.00035,0.00027,9e-05,0.0001,4,22
19400,0.00017,0.00021,0.00066,0.00073,0.00035,0.00027,9e-05,0.0001,4,22
19401,-8e-05,-8e-05,-0.00029,-3e-05,1e-05,2e-05,2e-05,-0.00011,4,22
19402,9e-05,4e-05,0,-0.00045,3e-05,2e-05,-1e-05,-3e-05,4,22
19403,9e-05,4e-05,0,-0.00045,3e-05,2e-05,-1e-05,-3e-05,4,22
19404,9e-05,4e-05,0,-0.00045,3e-05,2e-05,-1e-05,-3e-05,4,22
19405,9e-05,4e-05,0,-0.00045,3e-05,2e-05,-1e-05,-3e-05,4,22
19406,9e-05,4e-05,0,-0.00045,3e-05,2e-05,-1e-05,-3e-05,4,22
19407,9e-05,4e-05,0,-0.00045,3e-05,2e-05,-1e-05,-3e-05,4,22
19408,9e-05,4e-05,0,-0.00045,3e-05,2e-05,-1e-05,-3e-05,4,22
19409,9e-05,4e-05,0,-0.00045,3e-05,2e-05,-1e-05,-3e-05,4,22
19410,9e-05,4e-05,0,-0.00045,3e-05,2e-05,-1e-05,-3e-05,4,22
19411,9e-05,4e-05,0,-0.00045,3e-05,2e-05,-1e-05,-3e-05,4,22
19412,9e-05,4e-05,0,-0.00045,3e-05,2e-05,-1e-05,-3e-05,4,22
19413,9e-05,4e-05,0,-0.00045,3e-05,2e-05,-1e-05,-3e-05,4,22
19414,9e-05,4e-05,0,-0.00045,3e-05,2e-05,-1e-05,-3e-05,4,22
19415,9e-05,4e-05,0,-0.00045,3e-05,2e-05,-1e-05,-3e-05,4,22
19416,6e-05,0.00022,-7e-05,0.00078,-2e-05,-7e-05,-1e-05,8e-05,4,22
19417,6e-05,5e-05,-1e-05,-0.00034,-9e-05,-3e-05,-2e-05,0.00012,4,22
19418,6e-05,5e-05,-1e-05,-0.00034,-9e-05,-3e-05,-2e-05,0.00012,4,22
19419,6e-05,5e-05,-1e-05,-0.00034,-9e-05,-3e-05,-2e-05,0.00012,4,22
19420,6e-05,5e-05,-1e-05,-0.00034,-9e-05,-3e-05,-2e-05,0.00012,4,22
19421,6e-05,5e-05,-1e-05,-0.00034,-9e-05,-3e-05,-2e-05,0.00012,4,22
19422,6e-05,5e-05,-1e-05,-0.00034,-9e-05,-3e-05,-2e-05,0.00012,4,22
19423,6e-05,5e-05,-1e-05,-0.00034,-9e-05,-3e-05,-2e-05,0.00012,4,22
19424,6e-05,5e-05,-1e-05,-0.00034,-9e-05,-3e-05,-2e-05,0.00012,4,22
19425,6e-05,5e-05,-1e-05,-0.00034,-9e-05,-3e-05,-2e-05,0.00012,4,22
19426,6e-05,5e-05,-1e-05,-0.00034,-9e-05,-3e-05,-2e-05,0.00012,4,22
19427,6e-05,5e-05,-1e-05,-0.00034,-9e-05,-3e-05,-2e-05,0.00012,4,22
19428,6e-05,5e-05,-1e-05,-0.00034,-9e-05,-3e-05,-2e-05,0.00012,4,22
19429,6e-05,5e-05,-1e-05,-0.00034,-9e-05,-3e-05,-2e-05,0.00012,4,22
19430,6e-05,5e-05,-1e-05,-0.00034,-9e-05,-3e-05,-2e-05,0.00012,4,22
19431,6e-05,5e-05,-1e-05,-0.00034,-9e-05,-3e-05,-2e-05,0.00012,4,22
19432,6e-05,5e-05,-1e-05,-0.00034,-9e-05,-3e-05,-2e-05,0.00012,4,22
19433,6e-05,5e-05,-1e-05,-0.00034,-9e-05,-3e-05,-2e-05,0.00012,4,22
19434,6e-05,5e-05,-1e-05,-0.00034,-9e-05,-3e-05,-2e-05,0.00012,4,22
19435,6e-05,5e-05,-1e-05,-0.00034,-9e-05,-3e-05,-2e-05,0.00012,4,22
19436,6e-05,5e-05,-1e-05,-0.00034,-9e-05,-3e-05,-2e-05,0.00012,4,22
19439,0.00021,0.00011,-0.00012,6e-05,0,8e-05,6e-05,9e-05,4,22
19440,0.00021,0.00011,-0.00012,6e-05,0,8e-05,6e-05,9e-05,4,22
19441,0.00021,0.00011,-0.00012,6e-05,0,8e-05,6e-05,9e-05,4,22
19442,0.00021,0.00011,-0.00012,6e-05,0,8e-05,6e-05,9e-05,4,22
19443,0.00021,0.00011,-0.00012,6e-05,0,8e-05,6e-05,9e-05,4,22
19444,0.00021,0.00011,-0.00012,6e-05,0,8e-05,6e-05,9e-05,4,22
19445,0.00021,0.00011,-0.00012,6e-05,0,8e-05,6e-05,9e-05,4,22
19446,-0.00079,-0.00086,-0.00041,-0.00097,-0.00083,-0.00084,-0.00041,-0.00044,4,22
19447,-0.00079,-0.00086,-0.00041,-0.00097,-0.00083,-0.00084,-0.00041,-0.00044,4,22
19448,-0.00079,-0.00086,-0.00041,-0.00097,-0.00083,-0.00084,-0.00041,-0.00044,4,22
19449,-0.00079,-0.00086,-0.00041,-0.00097,-0.00083,-0.00084,-0.00041,-0.00044,4,22
19450,-0.00079,-0.00086,-0.00041,-0.00097,-0.00083,-0.00084,-0.00041,-0.00044,4,22
19451,-0.00079,-0.00086,-0.00041,-0.00097,-0.00083,-0.00084,-0.00041,-0.00044,4,22
19452,-0.00079,-0.00086,-0.00041,-0.00097,-0.00083,-0.00084,-0.00041,-0.00044,4,22
19453,-0.00079,-0.00086,-0.00041,-0.00097,-0.00083,-0.00084,-0.00041,-0.00044,4,22
19454,-0.00079,-0.00086,-0.00041,-0.00097,-0.00083,-0.00084,-0.00041,-0.00044,4,22
19455,-0.00079,-0.00086,-0.00041,-0.00097,-0.00083,-0.00084,-0.00041,-0.00044,4,22
19456,-0.00079,-0.00086,-0.00041,-0.00097,-0.00083,-0.00084,-0.00041,-0.00044,4,22
19457,-0.00079,-0.00086,-0.00041,-0.00097,-0.00083,-0.00084,-0.00041,-0.00044,4,22
19458,-0.00079,-0.00086,-0.00041,-0.00097,-0.00083,-0.00084,-0.00041,-0.00044,4,22
19459,-0.00079,-0.00086,-0.00041,-0.00097,-0.00083,-0.00084,-0.00041,-0.00044,4,22
19460,-0.00079,-0.00086,-0.00041,-0.00097,-0.00083,-0.00084,-0.00041,-0.00044,4,22
19461,-8e-05,-4e-05,0.00018,0.00028,0,-1e-05,-7e-05,-0.00021,4,22
19462,0.00022,0.00024,9e-05,0.00055,0.00016,0.00017,8e-05,0.00014,4,22
19463,0.00022,0.00024,9e-05,0.00055,0.00016,0.00017,8e-05,0.00014,4,22
19464,0.00022,0.00024,9e-05,0.00055,0.00016,0.00017,8e-05,0.00014,4,22
19465,0.00022,0.00024,9e-05,0.00055,0.00016,0.00017,8e-05,0.00014,4,22
19466,0.00022,0.00024,9e-05,0.00055,0.00016,0.00017,8e-05,0.00014,4,22
19467,0.00022,0.00024,9e-05,0.00055,0.00016,0.00017,8e-05,0.00014,4,22
19468,0.00022,0.00024,9e-05,0.00055,0.00016,0.00017,8e-05,0.00014,4,22
19469,0.00022,0.00024,9e-05,0.00055,0.00016,0.00017,8e-05,0.00014,4,22
19470,0.00022,0.00024,9e-05,0.00055,0.00016,0.00017,8e-05,0.00014,4,22
19471,0.00022,0.00024,9e-05,0.00055,0.00016,0.00017,8e-05,0.00014,4,22
19472,0.00022,0.00024,9e-05,0.00055,0.00016,0.00017,8e-05,0.00014,4,22
19473,0.00022,0.00024,9e-05,0.00055,0.00016,0.00017,8e-05,0.00014,4,22
19474,0.00022,0.00024,9e-05,0.00055,0.00016,0.00017,8e-05,0.00014,4,22
19475,0.00022,0.00024,9e-05,0.00055,0.00016,0.00017,8e-05,0.00014,4,22
19476,-0.00014,-0.0003,0.00069,-0.00031,-0.00022,-0.00017,-5e-05,5e-05,4,22
19477,-1e-05,-5e-05,-0.00041,-0.00061,-0.0002,-1e-05,-1e-05,-6e-05,4,22
19478,-1e-05,-5e-05,-0.00041,-0.00061,-0.0002,-1e-05,-1e-05,-6e-05,4,22
19479,-1e-05,-5e-05,-0.00041,-0.00061,-0.0002,-1e-05,-1e-05,-6e-05,4,22
19480,-1e-05,-5e-05,-0.00041,-0.00061,-0.0002,-1e-05,-1e-05,-6e-05,4,22
19481,-1e-05,-5e-05,-0.00041,-0.00061,-0.0002,-1e-05,-1e-05,-6e-05,4,22
19482,-1e-05,-5e-05,-0.00041,-0.00061,-0.0002,-1e-05,-1e-05,-6e-05,4,22
19483,-1e-05,-5e-05,-0.00041,-0.00061,-0.0002,-1e-05,-1e-05,-6e-05,4,22
19484,-1e-05,-5e-05,-0.00041,-0.00061,-0.0002,-1e-05,-1e-05,-6e-05,4,22
19485,-1e-05,-5e-05,-0.00041,-0.00061,-0.0002,-1e-05,-1e-05,-6e-05,4,22
19486,-1e-05,-5e-05,-0.00041,-0.00061,-0.0002,-1e-05,-1e-05,-6e-05,4,22
19489,-1e-05,-5e-05,-0.00041,-0.00061,-0.0002,-1e-05,-1e-05,-6e-05,4,22
19490,-1e-05,-5e-05,-0.00041,-0.00061,-0.0002,-1e-05,-1e-05,-6e-05,4,22
19491,-1e-05,-5e-05,-0.00041,-0.00061,-0.0002,-1e-05,-1e-05,-6e-05,4,22
19492,-1e-05,-5e-05,-0.00041,-0.00061,-0.0002,-1e-05,-1e-05,-6e-05,4,22
19493,-1e-05,-5e-05,-0.00041,-0.00061,-0.0002,-1e-05,-1e-05,-6e-05,4,22
19494,-1e-05,-5e-05,-0.00041,-0.00061,-0.0002,-1e-05,-1e-05,-6e-05,4,22
19495,-1e-05,-5e-05,-0.00041,-0.00061,-0.0002,-1e-05,-1e-05,-6e-05,4,22
19496,-1e-05,-5e-05,-0.00041,-0.00061,-0.0002,-1e-05,-1e-05,-6e-05,4,22
19497,-1e-05,-5e-05,-0.00041,-0.00061,-0.0002,-1e-05,-1e-05,-6e-05,4,22
19498,-1e-05,-5e-05,-0.00041,-0.00061,-0.0002,-1e-05,-1e-05,-6e-05,4,22
19499,0.00026,0.00024,-0.00025,-0.00012,0.00037,0.00041,0.0002,0.00017,4,22
19500,0.00026,0.00024,-0.00025,-0.00012,0.00037,0.00041,0.0002,0.00017,4,22
19501,0.00026,0.00024,-0.00025,-0.00012,0.00037,0.00041,0.0002,0.00017,4,22
19502,0.00026,0.00024,-0.00025,-0.00012,0.00037,0.00041,0.0002,0.00017,4,22
19503,0.00026,0.00024,-0.00025,-0.00012,0.00037,0.00041,0.0002,0.00017,4,22
19504,0.00026,0.00024,-0.00025,-0.00012,0.00037,0.00041,0.0002,0.00017,4,22
19505,0.00026,0.00024,-0.00025,-0.00012,0.00037,0.00041,0.0002,0.00017,4,22
19506,0.00026,0.00024,-0.00025,-0.00012,0.00037,0.00041,0.0002,0.00017,4,22
19507,0.00026,0.00024,-0.00025,-0.00012,0.00037,0.00041,0.0002,0.00017,4,22
19508,0.00026,0.00024,-0.00025,-0.00012,0.00037,0.00041,0.0002,0.00017,4,22
19509,0.00026,0.00024,-0.00025,-0.00012,0.00037,0.00041,0.0002,0.00017,4,22
19510,0.00026,0.00024,-0.00025,-0.00012,0.00037,0.00041,0.0002,0.00017,4,22
19511,0.00026,0.00024,-0.00025,-0.00012,0.00037,0.00041,0.0002,0.00017,4,22
19512,0.00026,0.00024,-0.00025,-0.00012,0.00037,0.00041,0.0002,0.00017,4,22
19513,0.00026,0.00024,-0.00025,-0.00012,0.00037,0.00041,0.0002,0.00017,4,22
19514,0.00026,0.00024,-0.00025,-0.00012,0.00037,0.00041,0.0002,0.00017,4,22
19515,0.00026,0.00024,-0.00025,-0.00012,0.00037,0.00041,0.0002,0.00017,4,22
19516,0.00026,0.00024,-0.00025,-0.00012,0.00037,0.00041,0.0002,0.00017,4,22
19517,0.00026,0.00024,-0.00025,-0.00012,0.00037,0.00041,0.0002,0.00017,4,22
19518,0.00026,0.00024,-0.00025,-0.00012,0.00037,0.00041,0.0002,0.00017,4,22
19519,0.00026,0.00024,-0.00025,-0.00012,0.00037,0.00041,0.0002,0.00017,4,22
19520,0.00026,0.00024,-0.00025,-0.00012,0.00037,0.00041,0.0002,0.00017,4,22
19521,0.00018,0.00014,0.00025,-0.00043,0.0002,0.00021,7e-05,0.0001,4,22
19522,0.00015,0.00015,0.0003,-0.00065,6e-05,0.00012,0.00013,4e-05,4,22
19523,0.00015,0.00015,0.0003,-0.00065,6e-05,0.00012,0.00013,4e-05,4,22
19524,0.00015,0.00015,0.0003,-0.00065,6e-05,0.00012,0.00013,4e-05,4,22
19525,0.00015,0.00015,0.0003,-0.00065,6e-05,0.00012,0.00013,4e-05,4,22
19526,0.00015,0.00015,0.0003,-0.00065,6e-05,0.00012,0.00013,4e-05,4,22
19527,0.00015,0.00015,0.0003,-0.00065,6e-05,0.00012,0.00013,4e-05,4,22
19528,0.00015,0.00015,0.0003,-0.00065,6e-05,0.00012,0.00013,4e-05,4,22
19529,0.00015,0.00015,0.0003,-0.00065,6e-05,0.00012,0.00013,4e-05,4,22
19530,0.00015,0.00015,0.0003,-0.00065,6e-05,0.00012,0.00013,4e-05,4,22
19531,0.00015,0.00015,0.0003,-0.00065,6e-05,0.00012,0.00013,4e-05,4,22
19532,0.00015,0.00015,0.0003,-0.00065,6e-05,0.00012,0.00013,4e-05,4,22
19533,0.00015,0.00015,0.0003,-0.00065,6e-05,0.00012,0.00013,4e-05,4,22
19534,0.00015,0.00015,0.0003,-0.00065,6e-05,0.00012,0.00013,4e-05,4,22
19535,0.00015,0.00015,0.0003,-0.00065,6e-05,0.00012,0.00013,4e-05,4,22
19537,0.00016,0.00043,0.00053,0.00076,0.00025,0.00025,7e-05,0.00017,4,22
19540,-0.00026,-0.00052,-0.00035,0.00053,-0.00019,-0.00025,-0.00016,-0.00016,4,22
19541,-0.00026,-0.00052,-0.00035,0.00053,-0.00019,-0.00025,-0.00016,-0.00016,4,22
19542,-0.00026,-0.00052,-0.00035,0.00053,-0.00019,-0.00025,-0.00016,-0.00016,4,22
19543,-0.00026,-0.00052,-0.00035,0.00053,-0.00019,-0.00025,-0.00016,-0.00016,4,22
19544,-0.00026,-0.00052,-0.00035,0.00053,-0.00019,-0.00025,-0.00016,-0.00016,4,22
19545,-0.00026,-0.00052,-0.00035,0.00053,-0.00019,-0.00025,-0.00016,-0.00016,4,22
19546,-0.00026,-0.00052,-0.00035,0.00053,-0.00019,-0.00025,-0.00016,-0.00016,4,22
19547,-0.00026,-0.00052,-0.00035,0.00053,-0.00019,-0.00025,-0.00016,-0.00016,4,22
19548,-0.00026,-0.00052,-0.00035,0.00053,-0.00019,-0.00025,-0.00016,-0.00016,4,22
19549,-0.00026,-0.00052,-0.00035,0.00053,-0.00019,-0.00025,-0.00016,-0.00016,4,22
19550,-0.00026,-0.00052,-0.00035,0.00053,-0.00019,-0.00025,-0.00016,-0.00016,4,22
19551,-0.00026,-0.00052,-0.00035,0.00053,-0.00019,-0.00025,-0.00016,-0.00016,4,22
19552,-0.00026,-0.00052,-0.00035,0.00053,-0.00019,-0.00025,-0.00016,-0.00016,4,22
19553,-0.00026,-0.00052,-0.00035,0.00053,-0.00019,-0.00025,-0.00016,-0.00016,4,22
19554,-0.00026,-0.00052,-0.00035,0.00053,-0.00019,-0.00025,-0.00016,-0.00016,4,22
19555,-0.00026,-0.00052,-0.00035,0.00053,-0.00019,-0.00025,-0.00016,-0.00016,4,22
19556,-0.00026,-0.00052,-0.00035,0.00053,-0.00019,-0.00025,-0.00016,-0.00016,4,22
19557,-0.00026,-0.00052,-0.00035,0.00053,-0.00019,-0.00025,-0.00016,-0.00016,4,22
19558,-0.00026,-0.00052,-0.00035,0.00053,-0.00019,-0.00025,-0.00016,-0.00016,4,22
19559,0.0001,0.00038,0.00127,0.001,0.00017,5e-05,2e-05,6e-05,4,22
19561,0.0001,0.00038,0.00127,0.001,0.00017,5e-05,2e-05,6e-05,4,22
19562,0.0001,0.00038,0.00127,0.001,0.00017,5e-05,2e-05,6e-05,4,22
19563,0.0001,0.00038,0.00127,0.001,0.00017,5e-05,2e-05,6e-05,4,22
19564,0.0001,0.00038,0.00127,0.001,0.00017,5e-05,2e-05,6e-05,4,22
19565,0.0001,0.00038,0.00127,0.001,0.00017,5e-05,2e-05,6e-05,4,22
19566,0.0001,0.00038,0.00127,0.001,0.00017,5e-05,2e-05,6e-05,4,22
19567,0.0001,0.00038,0.00127,0.001,0.00017,5e-05,2e-05,6e-05,4,22
19568,0.0001,0.00038,0.00127,0.001,0.00017,5e-05,2e-05,6e-05,4,22
19569,0.0001,0.00038,0.00127,0.001,0.00017,5e-05,2e-05,6e-05,4,22
19570,0.0001,0.00038,0.00127,0.001,0.00017,5e-05,2e-05,6e-05,4,22
19571,0.0001,0.00038,0.00127,0.001,0.00017,5e-05,2e-05,6e-05,4,22
19572,0.0001,0.00038,0.00127,0.001,0.00017,5e-05,2e-05,6e-05,4,22
19573,0.0001,0.00038,0.00127,0.001,0.00017,5e-05,2e-05,6e-05,4,22
19574,0.0001,0.00038,0.00127,0.001,0.00017,5e-05,2e-05,6e-05,4,22
19575,0.0001,0.00038,0.00127,0.001,0.00017,5e-05,2e-05,6e-05,4,22
19576,0.0001,0.00038,0.00127,0.001,0.00017,5e-05,2e-05,6e-05,4,22
19577,0.0001,0.00038,0.00127,0.001,0.00017,5e-05,2e-05,6e-05,4,22
19578,0.0001,0.00038,0.00127,0.001,0.00017,5e-05,2e-05,6e-05,4,22
19579,0.0001,0.00038,0.00127,0.001,0.00017,5e-05,2e-05,6e-05,4,22
19580,0.0001,0.00038,0.00127,0.001,0.00017,5e-05,2e-05,6e-05,4,22
19583,-0.00023,-0.00036,-0.00051,-0.00101,-0.00029,-0.00023,-8e-05,-0.00016,4,22
19584,-0.00012,9e-05,0.00122,0.00011,7e-05,2e-05,1e-05,-0.00025,4,22
19585,-0.00012,9e-05,0.00122,0.00011,7e-05,2e-05,1e-05,-0.00025,4,22
19586,-0.00012,9e-05,0.00122,0.00011,7e-05,2e-05,1e-05,-0.00025,4,22
19589,-0.00012,9e-05,0.00122,0.00011,7e-05,2e-05,1e-05,-0.00025,4,22
19590,-0.00012,9e-05,0.00122,0.00011,7e-05,2e-05,1e-05,-0.00025,4,22
19591,-0.00012,9e-05,0.00122,0.00011,7e-05,2e-05,1e-05,-0.00025,4,22
19592,-0.00012,9e-05,0.00122,0.00011,7e-05,2e-05,1e-05,-0.00025,4,22
19593,-0.00012,9e-05,0.00122,0.00011,7e-05,2e-05,1e-05,-0.00025,4,22
19594,-0.00012,9e-05,0.00122,0.00011,7e-05,2e-05,1e-05,-0.00025,4,22
19595,-0.00012,9e-05,0.00122,0.00011,7e-05,2e-05,1e-05,-0.00025,4,22
19596,-6e-05,-0.0001,-0.00041,-0.0006,-0.0001,-9e-05,-7e-05,-0.00019,4,22
19597,9e-05,0.00021,-0.00039,4e-05,-1e-05,3e-05,3e-05,9e-05,4,22
19598,9e-05,0.00021,-0.00039,4e-05,-1e-05,3e-05,3e-05,9e-05,4,22
19599,9e-05,0.00021,-0.00039,4e-05,-1e-05,3e-05,3e-05,9e-05,4,22
19600,9e-05,0.00021,-0.00039,4e-05,-1e-05,3e-05,3e-05,9e-05,4,22
19601,9e-05,0.00021,-0.00039,4e-05,-1e-05,3e-05,3e-05,9e-05,4,22
19602,9e-05,0.00021,-0.00039,4e-05,-1e-05,3e-05,3e-05,9e-05,4,22
19603,9e-05,0.00021,-0.00039,4e-05,-1e-05,3e-05,3e-05,9e-05,4,22
19604,9e-05,0.00021,-0.00039,4e-05,-1e-05,3e-05,3e-05,9e-05,4,22
19605,9e-05,0.00021,-0.00039,4e-05,-1e-05,3e-05,3e-05,9e-05,4,22
19606,9e-05,0.00021,-0.00039,4e-05,-1e-05,3e-05,3e-05,9e-05,4,22
19607,9e-05,0.00021,-0.00039,4e-05,-1e-05,3e-05,3e-05,9e-05,4,22
19608,9e-05,0.00021,-0.00039,4e-05,-1e-05,3e-05,3e-05,9e-05,4,22
19609,9e-05,0.00021,-0.00039,4e-05,-1e-05,3e-05,3e-05,9e-05,4,22
19610,9e-05,0.00021,-0.00039,4e-05,-1e-05,3e-05,3e-05,9e-05,4,22
19611,9e-05,0.00021,-0.00039,4e-05,-1e-05,3e-05,3e-05,9e-05,4,22
19612,9e-05,0.00021,-0.00039,4e-05,-1e-05,3e-05,3e-05,9e-05,4,22
19613,9e-05,0.00021,-0.00039,4e-05,-1e-05,3e-05,3e-05,9e-05,4,22
19614,9e-05,0.00021,-0.00039,4e-05,-1e-05,3e-05,3e-05,9e-05,4,22
19615,9e-05,0.00021,-0.00039,4e-05,-1e-05,3e-05,3e-05,9e-05,4,22
19616,9e-05,0.00021,-0.00039,4e-05,-1e-05,3e-05,3e-05,9e-05,4,22
19617,9e-05,0.00021,-0.00039,4e-05,-1e-05,3e-05,3e-05,9e-05,4,22
19618,9e-05,0.00021,-0.00039,4e-05,-1e-05,3e-05,3e-05,9e-05,4,22
19619,9e-05,-0.00011,-0.00065,-0.00011,-1e-05,0,3e-05,0.00022,4,22
19620,9e-05,-0.00011,-0.00065,-0.00011,-1e-05,0,3e-05,0.00022,4,22
19621,9e-05,-0.00011,-0.00065,-0.00011,-1e-05,0,3e-05,0.00022,4,22
19622,9e-05,-0.00011,-0.00065,-0.00011,-1e-05,0,3e-05,0.00022,4,22
19623,9e-05,-0.00011,-0.00065,-0.00011,-1e-05,0,3e-05,0.00022,4,22
19624,9e-05,-0.00011,-0.00065,-0.00011,-1e-05,0,3e-05,0.00022,4,22
19625,9e-05,-0.00011,-0.00065,-0.00011,-1e-05,0,3e-05,0.00022,4,22
19626,9e-05,-0.00011,-0.00065,-0.00011,-1e-05,0,3e-05,0.00022,4,22
19627,9e-05,-0.00011,-0.00065,-0.00011,-1e-05,0,3e-05,0.00022,4,22
19628,9e-05,-0.00011,-0.00065,-0.00011,-1e-05,0,3e-05,0.00022,4,22
19629,9e-05,-0.00011,-0.00065,-0.00011,-1e-05,0,3e-05,0.00022,4,22
19630,9e-05,-0.00011,-0.00065,-0.00011,-1e-05,0,3e-05,0.00022,4,22
19631,9e-05,-0.00011,-0.00065,-0.00011,-1e-05,0,3e-05,0.00022,4,22
19632,9e-05,-0.00011,-0.00065,-0.00011,-1e-05,0,3e-05,0.00022,4,22
19633,9e-05,-0.00011,-0.00065,-0.00011,-1e-05,0,3e-05,0.00022,4,22
19634,9e-05,-0.00011,-0.00065,-0.00011,-1e-05,0,3e-05,0.00022,4,22
19635,9e-05,-0.00011,-0.00065,-0.00011,-1e-05,0,3e-05,0.00022,4,22
19636,9e-05,-0.00011,-0.00065,-0.00011,-1e-05,0,3e-05,0.00022,4,22
19638,9e-05,-0.00011,-0.00065,-0.00011,-1e-05,0,3e-05,0.00022,4,22
19639,9e-05,-0.00011,-0.00065,-0.00011,-1e-05,0,3e-05,0.00022,4,22
19640,9e-05,-0.00011,-0.00065,-0.00011,-1e-05,0,3e-05,0.00022,4,22
19641,9e-05,-0.00011,-0.00065,-0.00011,-1e-05,0,3e-05,0.00022,4,22
19642,9e-05,-0.00011,-0.00065,-0.00011,-1e-05,0,3e-05,0.00022,4,22
19643,9e-05,-0.00011,-0.00065,-0.00011,-1e-05,0,3e-05,0.00022,4,22
19644,9e-05,-0.00011,-0.00065,-0.00011,-1e-05,0,3e-05,0.00022,4,22
19645,9e-05,-0.00011,-0.00065,-0.00011,-1e-05,0,3e-05,0.00022,4,22
19646,9e-05,-0.00011,-0.00065,-0.00011,-1e-05,0,3e-05,0.00022,4,22
19647,9e-05,-0.00011,-0.00065,-0.00011,-1e-05,0,3e-05,0.00022,4,22
19648,9e-05,-0.00011,-0.00065,-0.00011,-1e-05,0,3e-05,0.00022,4,22
19649,-0.00012,-0.00021,-0.00061,0.00023,-0.00011,-5e-05,-3e-05,-3e-05,4,22
19650,4e-05,1e-05,0,-7e-05,2e-05,0,0,1e-05,4,22
19651,4e-05,1e-05,0,-7e-05,2e-05,0,0,1e-05,4,22
19652,4e-05,1e-05,0,-7e-05,2e-05,0,0,1e-05,4,22
19653,4e-05,1e-05,0,-7e-05,2e-05,0,0,1e-05,4,22
19654,4e-05,1e-05,0,-7e-05,2e-05,0,0,1e-05,4,22
19655,4e-05,1e-05,0,-7e-05,2e-05,0,0,1e-05,4,22
19656,4e-05,1e-05,0,-7e-05,2e-05,0,0,1e-05,4,22
19657,4e-05,1e-05,0,-7e-05,2e-05,0,0,1e-05,4,22
19658,4e-05,1e-05,0,-7e-05,2e-05,0,0,1e-05,4,22
19659,4e-05,1e-05,0,-7e-05,2e-05,0,0,1e-05,4,22
19660,4e-05,1e-05,0,-7e-05,2e-05,0,0,1e-05,4,22
19661,4e-05,1e-05,0,-7e-05,2e-05,0,0,1e-05,4,22
19662,4e-05,1e-05,0,-7e-05,2e-05,0,0,1e-05,4,22
19663,4e-05,1e-05,0,-7e-05,2e-05,0,0,1e-05,4,22
19664,-9e-05,0,0.0003,-8e-05,0.0001,3e-05,1e-05,-0.00014,4,22
19665,2e-05,0.00011,-1e-05,-0.00012,-1e-05,-2e-05,-2e-05,-1e-05,4,22
19666,2e-05,0.00011,-1e-05,-0.00012,-1e-05,-2e-05,-2e-05,-1e-05,4,22
19667,2e-05,0.00011,-1e-05,-0.00012,-1e-05,-2e-05,-2e-05,-1e-05,4,22
19668,2e-05,0.00011,-1e-05,-0.00012,-1e-05,-2e-05,-2e-05,-1e-05,4,22
19669,2e-05,0.00011,-1e-05,-0.00012,-1e-05,-2e-05,-2e-05,-1e-05,4,22
19670,2e-05,0.00011,-1e-05,-0.00012,-1e-05,-2e-05,-2e-05,-1e-05,4,22
19671,2e-05,0.00011,-1e-05,-0.00012,-1e-05,-2e-05,-2e-05,-1e-05,4,22
19672,2e-05,0.00011,-1e-05,-0.00012,-1e-05,-2e-05,-2e-05,-1e-05,4,22
19673,2e-05,0.00011,-1e-05,-0.00012,-1e-05,-2e-05,-2e-05,-1e-05,4,22
19674,2e-05,0.00011,-1e-05,-0.00012,-1e-05,-2e-05,-2e-05,-1e-05,4,22
19675,2e-05,0.00011,-1e-05,-0.00012,-1e-05,-2e-05,-2e-05,-1e-05,4,22
19676,2e-05,0.00011,-1e-05,-0.00012,-1e-05,-2e-05,-2e-05,-1e-05,4,22
19677,2e-05,0.00011,-1e-05,-0.00012,-1e-05,-2e-05,-2e-05,-1e-05,4,22
19678,2e-05,0.00011,-1e-05,-0.00012,-1e-05,-2e-05,-2e-05,-1e-05,4,22
19679,0.00015,-9e-05,-0.00074,-0.00075,9e-05,0.00021,7e-05,0,4,22
19680,0.00015,-9e-05,-0.00074,-0.00075,9e-05,0.00021,7e-05,0,4,22
19681,0.00015,-9e-05,-0.00074,-0.00075,9e-05,0.00021,7e-05,0,4,22
19682,0.00015,-9e-05,-0.00074,-0.00075,9e-05,0.00021,7e-05,0,4,22
19683,0.00015,-9e-05,-0.00074,-0.00075,9e-05,0.00021,7e-05,0,4,22
19684,0.00015,-9e-05,-0.00074,-0.00075,9e-05,0.00021,7e-05,0,4,22
19685,0.00015,-9e-05,-0.00074,-0.00075,9e-05,0.00021,7e-05,0,4,22
19686,0.00015,-9e-05,-0.00074,-0.00075,9e-05,0.00021,7e-05,0,4,22
19688,0.00015,-9e-05,-0.00074,-0.00075,9e-05,0.00021,7e-05,0,4,22
19689,0.00015,-9e-05,-0.00074,-0.00075,9e-05,0.00021,7e-05,0,4,22
19690,0.00015,-9e-05,-0.00074,-0.00075,9e-05,0.00021,7e-05,0,4,22
19691,0.00015,-9e-05,-0.00074,-0.00075,9e-05,0.00021,7e-05,0,4,22
19692,0.00015,-9e-05,-0.00074,-0.00075,9e-05,0.00021,7e-05,0,4,22
19693,0.00015,-9e-05,-0.00074,-0.00075,9e-05,0.00021,7e-05,0,4,22
19694,0.00015,-9e-05,-0.00074,-0.00075,9e-05,0.00021,7e-05,0,4,22
19695,0.00015,-9e-05,-0.00074,-0.00075,9e-05,0.00021,7e-05,0,4,22
19696,0.00015,-9e-05,-0.00074,-0.00075,9e-05,0.00021,7e-05,0,4,22
19697,0.00015,-9e-05,-0.00074,-0.00075,9e-05,0.00021,7e-05,0,4,22
19698,0.00015,-9e-05,-0.00074,-0.00075,9e-05,0.00021,7e-05,0,4,22
19699,0.00015,-9e-05,-0.00074,-0.00075,9e-05,0.00021,7e-05,0,4,22
19700,0.00015,-9e-05,-0.00074,-0.00075,9e-05,0.00021,7e-05,0,4,22
19701,0.00015,-9e-05,-0.00074,-0.00075,9e-05,0.00021,7e-05,0,4,22
19702,0.00015,-9e-05,-0.00074,-0.00075,9e-05,0.00021,7e-05,0,4,22
19703,0.00015,-9e-05,-0.00074,-0.00075,9e-05,0.00021,7e-05,0,4,22
19704,0.00015,-9e-05,-0.00074,-0.00075,9e-05,0.00021,7e-05,0,4,22
19705,0.00015,-9e-05,-0.00074,-0.00075,9e-05,0.00021,7e-05,0,4,22
19706,0.00015,-9e-05,-0.00074,-0.00075,9e-05,0.00021,7e-05,0,4,22
19707,0.00015,-9e-05,-0.00074,-0.00075,9e-05,0.00021,7e-05,0,4,22
19708,0.00015,-9e-05,-0.00074,-0.00075,9e-05,0.00021,7e-05,0,4,22
19709,-7e-05,6e-05,0.00046,-0.00039,-7e-05,-0.00014,-8e-05,-7e-05,4,22
19710,8e-05,3e-05,-0.00066,-0.0005,-8e-05,-3e-05,0,4e-05,4,22
19711,8e-05,3e-05,-0.00066,-0.0005,-8e-05,-3e-05,0,4e-05,4,22
19712,8e-05,3e-05,-0.00066,-0.0005,-8e-05,-3e-05,0,4e-05,4,22
19713,8e-05,3e-05,-0.00066,-0.0005,-8e-05,-3e-05,0,4e-05,4,22
19714,8e-05,3e-05,-0.00066,-0.0005,-8e-05,-3e-05,0,4e-05,4,22
19715,8e-05,3e-05,-0.00066,-0.0005,-8e-05,-3e-05,0,4e-05,4,22
19716,8e-05,3e-05,-0.00066,-0.0005,-8e-05,-3e-05,0,4e-05,4,22
19717,8e-05,3e-05,-0.00066,-0.0005,-8e-05,-3e-05,0,4e-05,4,22
19718,8e-05,3e-05,-0.00066,-0.0005,-8e-05,-3e-05,0,4e-05,4,22
19719,8e-05,3e-05,-0.00066,-0.0005,-8e-05,-3e-05,0,4e-05,4,22
19720,8e-05,3e-05,-0.00066,-0.0005,-8e-05,-3e-05,0,4e-05,4,22
19721,8e-05,3e-05,-0.00066,-0.0005,-8e-05,-3e-05,0,4e-05,4,22
19722,8e-05,3e-05,-0.00066,-0.0005,-8e-05,-3e-05,0,4e-05,4,22
19723,8e-05,3e-05,-0.00066,-0.0005,-8e-05,-3e-05,0,4e-05,4,22
19725,8e-05,3e-05,-0.00066,-0.0005,-8e-05,-3e-05,0,4e-05,4,22
19726,8e-05,3e-05,-0.00066,-0.0005,-8e-05,-3e-05,0,4e-05,4,22
19727,8e-05,3e-05,-0.00066,-0.0005,-8e-05,-3e-05,0,4e-05,4,22
19728,8e-05,3e-05,-0.00066,-0.0005,-8e-05,-3e-05,0,4e-05,4,22
19729,8e-05,3e-05,-0.00066,-0.0005,-8e-05,-3e-05,0,4e-05,4,22
19730,8e-05,3e-05,-0.00066,-0.0005,-8e-05,-3e-05,0,4e-05,4,22
19731,8e-05,3e-05,-0.00066,-0.0005,-8e-05,-3e-05,0,4e-05,4,22
19732,8e-05,3e-05,-0.00066,-0.0005,-8e-05,-3e-05,0,4e-05,4,22
19733,8e-05,3e-05,-0.00066,-0.0005,-8e-05,-3e-05,0,4e-05,4,22
19734,8e-05,3e-05,-0.00066,-0.0005,-8e-05,-3e-05,0,4e-05,4,22
19735,8e-05,3e-05,-0.00066,-0.0005,-8e-05,-3e-05,0,4e-05,4,22
19736,8e-05,3e-05,-0.00066,-0.0005,-8e-05,-3e-05,0,4e-05,4,22
19738,8e-05,3e-05,-0.00066,-0.0005,-8e-05,-3e-05,0,4e-05,4,22
19739,8e-05,3e-05,-0.00066,-0.0005,-8e-05,-3e-05,0,4e-05,4,22
19740,8e-05,3e-05,-0.00066,-0.0005,-8e-05,-3e-05,0,4e-05,4,22
19741,4e-05,1e-05,0.00081,0.0003,-1e-05,-1e-05,-1e-05,-6e-05,4,22
19742,-0.00015,9e-05,0.00056,-0.00046,-0.00012,-0.00011,-5e-05,-3e-05,4,22
19743,9e-05,2e-05,0.00016,0.00015,8e-05,7e-05,5e-05,0.00012,4,22
19744,9e-05,2e-05,0.00016,0.00015,8e-05,7e-05,5e-05,0.00012,4,22
19745,9e-05,2e-05,0.00016,0.00015,8e-05,7e-05,5e-05,0.00012,4,22
19746,0.00021,0.00027,8e-05,3e-05,6e-05,0.00018,5e-05,0.00013,4,22
19747,0.00021,0.00027,8e-05,3e-05,6e-05,0.00018,5e-05,0.00013,4,22
19748,0.00021,0.00027,8e-05,3e-05,6e-05,0.00018,5e-05,0.00013,4,22
19749,0.00021,0.00027,8e-05,3e-05,6e-05,0.00018,5e-05,0.00013,4,22
19750,0.00021,0.00027,8e-05,3e-05,6e-05,0.00018,5e-05,0.00013,4,22
19751,0.00021,0.00027,8e-05,3e-05,6e-05,0.00018,5e-05,0.00013,4,22
19752,0.00021,0.00027,8e-05,3e-05,6e-05,0.00018,5e-05,0.00013,4,22
19753,0.00021,0.00027,8e-05,3e-05,6e-05,0.00018,5e-05,0.00013,4,22
19754,0.00021,0.00027,8e-05,3e-05,6e-05,0.00018,5e-05,0.00013,4,22
19755,0.00021,0.00027,8e-05,3e-05,6e-05,0.00018,5e-05,0.00013,4,22
19756,0.00021,0.00027,8e-05,3e-05,6e-05,0.00018,5e-05,0.00013,4,22
19757,0.00021,0.00027,8e-05,3e-05,6e-05,0.00018,5e-05,0.00013,4,22
19758,0.00021,0.00027,8e-05,3e-05,6e-05,0.00018,5e-05,0.00013,4,22
19759,0.00021,0.00027,8e-05,3e-05,6e-05,0.00018,5e-05,0.00013,4,22
19760,0.00021,0.00027,8e-05,3e-05,6e-05,0.00018,5e-05,0.00013,4,22
19761,0.00012,0.00013,0.00014,2e-05,0.00019,0.00013,7e-05,0.00011,4,22
19762,-0.00017,-0.00035,-0.0002,-0.00038,-0.00015,-0.00013,-0.00011,-7e-05,4,22
19763,-0.00017,-0.00035,-0.0002,-0.00038,-0.00015,-0.00013,-0.00011,-7e-05,4,22
19764,-0.00017,-0.00035,-0.0002,-0.00038,-0.00015,-0.00013,-0.00011,-7e-05,4,22
19765,-0.00017,-0.00035,-0.0002,-0.00038,-0.00015,-0.00013,-0.00011,-7e-05,4,22
19766,-0.00017,-0.00035,-0.0002,-0.00038,-0.00015,-0.00013,-0.00011,-7e-05,4,22
19767,-0.00017,-0.00035,-0.0002,-0.00038,-0.00015,-0.00013,-0.00011,-7e-05,4,22
19768,-0.00017,-0.00035,-0.0002,-0.00038,-0.00015,-0.00013,-0.00011,-7e-05,4,22
19769,-0.00017,-0.00035,-0.0002,-0.00038,-0.00015,-0.00013,-0.00011,-7e-05,4,22
19770,-0.00017,-0.00035,-0.0002,-0.00038,-0.00015,-0.00013,-0.00011,-7e-05,4,22
19771,-0.00017,-0.00035,-0.0002,-0.00038,-0.00015,-0.00013,-0.00011,-7e-05,4,22
19773,-0.00017,-0.00035,-0.0002,-0.00038,-0.00015,-0.00013,-0.00011,-7e-05,4,22
19774,-0.00017,-0.00035,-0.0002,-0.00038,-0.00015,-0.00013,-0.00011,-7e-05,4,22
19775,-0.00017,-0.00035,-0.0002,-0.00038,-0.00015,-0.00013,-0.00011,-7e-05,4,22
19776,-0.00017,-0.00035,-0.0002,-0.00038,-0.00015,-0.00013,-0.00011,-7e-05,4,22
19777,-0.00017,-0.00035,-0.0002,-0.00038,-0.00015,-0.00013,-0.00011,-7e-05,4,22
19778,-0.00017,-0.00035,-0.0002,-0.00038,-0.00015,-0.00013,-0.00011,-7e-05,4,22
19779,-0.00017,-0.00035,-0.0002,-0.00038,-0.00015,-0.00013,-0.00011,-7e-05,4,22
19780,-0.00017,-0.00035,-0.0002,-0.00038,-0.00015,-0.00013,-0.00011,-7e-05,4,22
19781,-0.00017,-0.00035,-0.0002,-0.00038,-0.00015,-0.00013,-0.00011,-7e-05,4,22
19782,-0.00017,-0.00035,-0.0002,-0.00038,-0.00015,-0.00013,-0.00011,-7e-05,4,22
19783,-0.00017,-0.00035,-0.0002,-0.00038,-0.00015,-0.00013,-0.00011,-7e-05,4,22
19784,0.00013,0.00037,0.00018,-1e-05,0.00016,0.00018,0.00011,0.00018,4,22
19785,2e-05,0,0.00061,0.00127,0.00014,-2e-05,3e-05,2e-05,4,22
19786,2e-05,0,0.00061,0.00127,0.00014,-2e-05,3e-05,2e-05,4,22
19788,2e-05,0,0.00061,0.00127,0.00014,-2e-05,3e-05,2e-05,4,22
19789,2e-05,0,0.00061,0.00127,0.00014,-2e-05,3e-05,2e-05,4,22
19790,2e-05,0,0.00061,0.00127,0.00014,-2e-05,3e-05,2e-05,4,22
19791,2e-05,0,0.00061,0.00127,0.00014,-2e-05,3e-05,2e-05,4,22
19792,2e-05,0,0.00061,0.00127,0.00014,-2e-05,3e-05,2e-05,4,22
19793,2e-05,0,0.00061,0.00127,0.00014,-2e-05,3e-05,2e-05,4,22
19794,2e-05,0,0.00061,0.00127,0.00014,-2e-05,3e-05,2e-05,4,22
19795,2e-05,0,0.00061,0.00127,0.00014,-2e-05,3e-05,2e-05,4,22
19796,2e-05,0,0.00061,0.00127,0.00014,-2e-05,3e-05,2e-05,4,22
19797,2e-05,0,0.00061,0.00127,0.00014,-2e-05,3e-05,2e-05,4,22
19798,2e-05,0,0.00061,0.00127,0.00014,-2e-05,3e-05,2e-05,4,22
19799,-0.0002,-1e-05,0.00051,2e-05,-4e-05,-8e-05,-5e-05,-0.00038,4,22
19800,-0.0002,-1e-05,0.00051,2e-05,-4e-05,-8e-05,-5e-05,-0.00038,4,22
19801,-0.0002,-1e-05,0.00051,2e-05,-4e-05,-8e-05,-5e-05,-0.00038,4,22
19802,-0.0002,-1e-05,0.00051,2e-05,-4e-05,-8e-05,-5e-05,-0.00038,4,22
19803,-0.0002,-1e-05,0.00051,2e-05,-4e-05,-8e-05,-5e-05,-0.00038,4,22
19804,-0.0002,-1e-05,0.00051,2e-05,-4e-05,-8e-05,-5e-05,-0.00038,4,22
19805,-0.0002,-1e-05,0.00051,2e-05,-4e-05,-8e-05,-5e-05,-0.00038,4,22
19806,-0.0002,-1e-05,0.00051,2e-05,-4e-05,-8e-05,-5e-05,-0.00038,4,22
19807,-0.0002,-1e-05,0.00051,2e-05,-4e-05,-8e-05,-5e-05,-0.00038,4,22
19808,-0.0002,-1e-05,0.00051,2e-05,-4e-05,-8e-05,-5e-05,-0.00038,4,22
19809,-0.0002,-1e-05,0.00051,2e-05,-4e-05,-8e-05,-5e-05,-0.00038,4,22
19810,-0.0002,-1e-05,0.00051,2e-05,-4e-05,-8e-05,-5e-05,-0.00038,4,22
19811,-0.0002,-1e-05,0.00051,2e-05,-4e-05,-8e-05,-5e-05,-0.00038,4,22
19812,-0.0002,-1e-05,0.00051,2e-05,-4e-05,-8e-05,-5e-05,-0.00038,4,22
19813,-0.0002,-1e-05,0.00051,2e-05,-4e-05,-8e-05,-5e-05,-0.00038,4,22
19814,-0.0002,-1e-05,0.00051,2e-05,-4e-05,-8e-05,-5e-05,-0.00038,4,22
19815,-0.0002,-1e-05,0.00051,2e-05,-4e-05,-8e-05,-5e-05,-0.00038,4,22
19817,-0.0002,-1e-05,0.00051,2e-05,-4e-05,-8e-05,-5e-05,-0.00038,4,22
19818,-0.0002,-1e-05,0.00051,2e-05,-4e-05,-8e-05,-5e-05,-0.00038,4,22
19819,-0.0002,-1e-05,0.00051,2e-05,-4e-05,-8e-05,-5e-05,-0.00038,4,22
19820,-0.0002,-1e-05,0.00051,2e-05,-4e-05,-8e-05,-5e-05,-0.00038,4,22
19821,0.00021,0.00024,0.00033,-0.00034,-0.00023,-0.00013,-3e-05,6e-05,4,22
19822,-5e-05,-0.00025,-0.00025,-0.00032,-0.00023,-8e-05,-2e-05,0,4,22
19823,-5e-05,-0.00025,-0.00025,-0.00032,-0.00023,-8e-05,-2e-05,0,4,22
19824,-5e-05,-0.00025,-0.00025,-0.00032,-0.00023,-8e-05,-2e-05,0,4,22
19825,-5e-05,-0.00025,-0.00025,-0.00032,-0.00023,-8e-05,-2e-05,0,4,22
19826,-5e-05,-0.00025,-0.00025,-0.00032,-0.00023,-8e-05,-2e-05,0,4,22
19827,-5e-05,-0.00025,-0.00025,-0.00032,-0.00023,-8e-05,-2e-05,0,4,22
19828,-5e-05,-0.00025,-0.00025,-0.00032,-0.00023,-8e-05,-2e-05,0,4,22
19829,-5e-05,-0.00025,-0.00025,-0.00032,-0.00023,-8e-05,-2e-05,0,4,22
19830,-5e-05,-0.00025,-0.00025,-0.00032,-0.00023,-8e-05,-2e-05,0,4,22
19831,-5e-05,-0.00025,-0.00025,-0.00032,-0.00023,-8e-05,-2e-05,0,4,22
19832,-5e-05,-0.00025,-0.00025,-0.00032,-0.00023,-8e-05,-2e-05,0,4,22
19833,-5e-05,-0.00025,-0.00025,-0.00032,-0.00023,-8e-05,-2e-05,0,4,22
19834,-5e-05,-0.00025,-0.00025,-0.00032,-0.00023,-8e-05,-2e-05,0,4,22
19835,-5e-05,-0.00025,-0.00025,-0.00032,-0.00023,-8e-05,-2e-05,0,4,22
19836,-5e-05,-0.00025,-0.00025,-0.00032,-0.00023,-8e-05,-2e-05,0,4,22
19838,-0.00018,-0.00034,4e-05,-2e-05,-0.0004,-0.00027,-0.00012,-0.0001,4,22
19839,-0.00055,-0.00066,-0.00077,-0.00098,-0.00066,-0.00057,-0.00027,-0.00029,4,22
19840,-0.00055,-0.00066,-0.00077,-0.00098,-0.00066,-0.00057,-0.00027,-0.00029,4,22
19841,-0.00055,-0.00066,-0.00077,-0.00098,-0.00066,-0.00057,-0.00027,-0.00029,4,22
19842,-0.00055,-0.00066,-0.00077,-0.00098,-0.00066,-0.00057,-0.00027,-0.00029,4,22
19843,-0.00055,-0.00066,-0.00077,-0.00098,-0.00066,-0.00057,-0.00027,-0.00029,4,22
19844,-0.00055,-0.00066,-0.00077,-0.00098,-0.00066,-0.00057,-0.00027,-0.00029,4,22
19845,-0.00055,-0.00066,-0.00077,-0.00098,-0.00066,-0.00057,-0.00027,-0.00029,4,22
19846,-0.00055,-0.00066,-0.00077,-0.00098,-0.00066,-0.00057,-0.00027,-0.00029,4,22
19847,-0.00055,-0.00066,-0.00077,-0.00098,-0.00066,-0.00057,-0.00027,-0.00029,4,22
19848,-0.00055,-0.00066,-0.00077,-0.00098,-0.00066,-0.00057,-0.00027,-0.00029,4,22
19849,-0.00055,-0.00066,-0.00077,-0.00098,-0.00066,-0.00057,-0.00027,-0.00029,4,22
19850,-0.00055,-0.00066,-0.00077,-0.00098,-0.00066,-0.00057,-0.00027,-0.00029,4,22
19851,-0.00055,-0.00066,-0.00077,-0.00098,-0.00066,-0.00057,-0.00027,-0.00029,4,22
19852,-0.00055,-0.00066,-0.00077,-0.00098,-0.00066,-0.00057,-0.00027,-0.00029,4,22
19853,-0.00055,-0.00066,-0.00077,-0.00098,-0.00066,-0.00057,-0.00027,-0.00029,4,22
19854,-0.00055,-0.00066,-0.00077,-0.00098,-0.00066,-0.00057,-0.00027,-0.00029,4,22
19855,-0.00055,-0.00066,-0.00077,-0.00098,-0.00066,-0.00057,-0.00027,-0.00029,4,22
19856,-0.00055,-0.00066,-0.00077,-0.00098,-0.00066,-0.00057,-0.00027,-0.00029,4,22
19857,-0.00055,-0.00066,-0.00077,-0.00098,-0.00066,-0.00057,-0.00027,-0.00029,4,22
19858,-0.00055,-0.00066,-0.00077,-0.00098,-0.00066,-0.00057,-0.00027,-0.00029,4,22
19859,-7e-05,-0.00038,-0.00093,-0.00034,1e-05,-3e-05,-2e-05,6e-05,4,22
19860,0.00025,0.00034,0.00064,0.00088,0.00044,0.00035,0.00014,0.00025,4,22
19861,0.00025,0.00034,0.00064,0.00088,0.00044,0.00035,0.00014,0.00025,4,22
19862,0.00025,0.00034,0.00064,0.00088,0.00044,0.00035,0.00014,0.00025,4,22
19863,0.00025,0.00034,0.00064,0.00088,0.00044,0.00035,0.00014,0.00025,4,22
19864,0.00025,0.00034,0.00064,0.00088,0.00044,0.00035,0.00014,0.00025,4,22
19865,0.00025,0.00034,0.00064,0.00088,0.00044,0.00035,0.00014,0.00025,4,22
19866,0.00025,0.00034,0.00064,0.00088,0.00044,0.00035,0.00014,0.00025,4,22
19867,0.00025,0.00034,0.00064,0.00088,0.00044,0.00035,0.00014,0.00025,4,22
19868,0.00025,0.00034,0.00064,0.00088,0.00044,0.00035,0.00014,0.00025,4,22
19869,0.00025,0.00034,0.00064,0.00088,0.00044,0.00035,0.00014,0.00025,4,22
19870,0.00025,0.00034,0.00064,0.00088,0.00044,0.00035,0.00014,0.00025,4,22
19871,0.00025,0.00034,0.00064,0.00088,0.00044,0.00035,0.00014,0.00025,4,22
19872,0.00025,0.00034,0.00064,0.00088,0.00044,0.00035,0.00014,0.00025,4,22
19873,0.00025,0.00034,0.00064,0.00088,0.00044,0.00035,0.00014,0.00025,4,22
19874,0.00025,0.00034,0.00064,0.00088,0.00044,0.00035,0.00014,0.00025,4,22
19875,0.00025,0.00034,0.00064,0.00088,0.00044,0.00035,0.00014,0.00025,4,22
19876,0.00025,0.00034,0.00064,0.00088,0.00044,0.00035,0.00014,0.00025,4,22
19877,0.00025,0.00034,0.00064,0.00088,0.00044,0.00035,0.00014,0.00025,4,22
19878,0.00025,0.00034,0.00064,0.00088,0.00044,0.00035,0.00014,0.00025,4,22
19879,0.00025,0.00034,0.00064,0.00088,0.00044,0.00035,0.00014,0.00025,4,22
19880,0.00025,0.00034,0.00064,0.00088,0.00044,0.00035,0.00014,0.00025,4,22
19881,0.00025,0.00034,0.00064,0.00088,0.00044,0.00035,0.00014,0.00025,4,22
19882,0.00025,0.00034,0.00064,0.00088,0.00044,0.00035,0.00014,0.00025,4,22
19883,0.00025,0.00034,0.00064,0.00088,0.00044,0.00035,0.00014,0.00025,4,22
19884,0.00025,0.00034,0.00064,0.00088,0.00044,0.00035,0.00014,0.00025,4,22
19885,0.00025,0.00034,0.00064,0.00088,0.00044,0.00035,0.00014,0.00025,4,22
19886,0.00025,0.00034,0.00064,0.00088,0.00044,0.00035,0.00014,0.00025,4,22
19888,0.00025,0.00034,0.00064,0.00088,0.00044,0.00035,0.00014,0.00025,4,22
19889,-0.00042,-0.00034,-0.00081,-0.00052,-0.0001,-0.00011,-0.0001,-0.00028,4,22
19890,0.00028,0.00032,-0.00036,7e-05,0.00025,0.00018,8e-05,0.00017,4,22
19891,0.00028,0.00032,-0.00036,7e-05,0.00025,0.00018,8e-05,0.00017,4,22
19892,0.00028,0.00032,-0.00036,7e-05,0.00025,0.00018,8e-05,0.00017,4,22
19893,0.00028,0.00032,-0.00036,7e-05,0.00025,0.00018,8e-05,0.00017,4,22
19894,0.00028,0.00032,-0.00036,7e-05,0.00025,0.00018,8e-05,0.00017,4,22
19895,0.00028,0.00032,-0.00036,7e-05,0.00025,0.00018,8e-05,0.00017,4,22
19896,-6e-05,3e-05,0.00127,0.00124,4e-05,-0.00029,-0.00013,-0.00022,4,22
19897,0.00044,0.00064,0.00051,-0.001,0.00031,0.00045,0.00019,0.00024,4,22
19898,0.00044,0.00064,0.00051,-0.001,0.00031,0.00045,0.00019,0.00024,4,22
19899,0.00044,0.00064,0.00051,-0.001,0.00031,0.00045,0.00019,0.00024,4,22
19900,0.00044,0.00064,0.00051,-0.001,0.00031,0.00045,0.00019,0.00024,4,22
19901,0.00044,0.00064,0.00051,-0.001,0.00031,0.00045,0.00019,0.00024,4,22
19902,0.00044,0.00064,0.00051,-0.001,0.00031,0.00045,0.00019,0.00024,4,22
19903,0.00044,0.00064,0.00051,-0.001,0.00031,0.00045,0.00019,0.00024,4,22
19904,0.00044,0.00064,0.00051,-0.001,0.00031,0.00045,0.00019,0.00024,4,22
19905,0.00044,0.00064,0.00051,-0.001,0.00031,0.00045,0.00019,0.00024,4,22
19906,0.00044,0.00064,0.00051,-0.001,0.00031,0.00045,0.00019,0.00024,4,22
19907,0.00044,0.00064,0.00051,-0.001,0.00031,0.00045,0.00019,0.00024,4,22
19908,0.00044,0.00064,0.00051,-0.001,0.00031,0.00045,0.00019,0.00024,4,22
19910,0.00044,0.00064,0.00051,-0.001,0.00031,0.00045,0.00019,0.00024,4,22
19911,0.00044,0.00064,0.00051,-0.001,0.00031,0.00045,0.00019,0.00024,4,22
19912,0.00044,0.00064,0.00051,-0.001,0.00031,0.00045,0.00019,0.00024,4,22
19913,0.00044,0.00064,0.00051,-0.001,0.00031,0.00045,0.00019,0.00024,4,22
19914,0.00044,0.00064,0.00051,-0.001,0.00031,0.00045,0.00019,0.00024,4,22
19915,0.00044,0.00064,0.00051,-0.001,0.00031,0.00045,0.00019,0.00024,4,22
19916,0.00044,0.00064,0.00051,-0.001,0.00031,0.00045,0.00019,0.00024,4,22
19917,0.00044,0.00064,0.00051,-0.001,0.00031,0.00045,0.00019,0.00024,4,22
19918,0.00044,0.00064,0.00051,-0.001,0.00031,0.00045,0.00019,0.00024,4,22
19919,-3e-05,-0.0003,-0.00011,0.00029,-6e-05,-6e-05,-3e-05,3e-05,4,22
19920,-3e-05,-0.0003,-0.00011,0.00029,-6e-05,-6e-05,-3e-05,3e-05,4,22
19921,-3e-05,-0.0003,-0.00011,0.00029,-6e-05,-6e-05,-3e-05,3e-05,4,22
19922,-3e-05,-0.0003,-0.00011,0.00029,-6e-05,-6e-05,-3e-05,3e-05,4,22
19923,-3e-05,-0.0003,-0.00011,0.00029,-6e-05,-6e-05,-3e-05,3e-05,4,22
19924,-3e-05,-0.0003,-0.00011,0.00029,-6e-05,-6e-05,-3e-05,3e-05,4,22
19925,-3e-05,-0.0003,-0.00011,0.00029,-6e-05,-6e-05,-3e-05,3e-05,4,22
19926,-3e-05,-0.0003,-0.00011,0.00029,-6e-05,-6e-05,-3e-05,3e-05,4,22
19927,-3e-05,-0.0003,-0.00011,0.00029,-6e-05,-6e-05,-3e-05,3e-05,4,22
19928,-3e-05,-0.0003,-0.00011,0.00029,-6e-05,-6e-05,-3e-05,3e-05,4,22
19929,-3e-05,-0.0003,-0.00011,0.00029,-6e-05,-6e-05,-3e-05,3e-05,4,22
19930,-3e-05,-0.0003,-0.00011,0.00029,-6e-05,-6e-05,-3e-05,3e-05,4,22
19931,-3e-05,-0.0003,-0.00011,0.00029,-6e-05,-6e-05,-3e-05,3e-05,4,22
19932,-3e-05,-0.0003,-0.00011,0.00029,-6e-05,-6e-05,-3e-05,3e-05,4,22
19933,-3e-05,-0.0003,-0.00011,0.00029,-6e-05,-6e-05,-3e-05,3e-05,4,22
19934,-3e-05,-0.0003,-0.00011,0.00029,-6e-05,-6e-05,-3e-05,3e-05,4,22
19935,-3e-05,-0.0003,-0.00011,0.00029,-6e-05,-6e-05,-3e-05,3e-05,4,22
19936,-3e-05,-0.0003,-0.00011,0.00029,-6e-05,-6e-05,-3e-05,3e-05,4,22
19938,-3e-05,-0.0003,-0.00011,0.00029,-6e-05,-6e-05,-3e-05,3e-05,4,22
19939,-3e-05,-0.0003,-0.00011,0.00029,-6e-05,-6e-05,-3e-05,3e-05,4,22
19940,-3e-05,-0.0003,-0.00011,0.00029,-6e-05,-6e-05,-3e-05,3e-05,4,22
19941,5e-05,0.00016,-0.00039,-0.00012,-5e-05,0,1e-05,3e-05,4,22
19942,-2e-05,-9e-05,0.00018,5e-05,0,-1e-05,-1e-05,-0.00018,4,22
19943,-2e-05,-9e-05,0.00018,5e-05,0,-1e-05,-1e-05,-0.00018,4,22
19944,-2e-05,-9e-05,0.00018,5e-05,0,-1e-05,-1e-05,-0.00018,4,22
19945,-2e-05,-9e-05,0.00018,5e-05,0,-1e-05,-1e-05,-0.00018,4,22
19946,-2e-05,-9e-05,0.00018,5e-05,0,-1e-05,-1e-05,-0.00018,4,22
19947,-2e-05,-9e-05,0.00018,5e-05,0,-1e-05,-1e-05,-0.00018,4,22
19948,-2e-05,-9e-05,0.00018,5e-05,0,-1e-05,-1e-05,-0.00018,4,22
19949,-2e-05,-9e-05,0.00018,5e-05,0,-1e-05,-1e-05,-0.00018,4,22
19950,-2e-05,-9e-05,0.00018,5e-05,0,-1e-05,-1e-05,-0.00018,4,22
19951,-2e-05,-9e-05,0.00018,5e-05,0,-1e-05,-1e-05,-0.00018,4,22
19952,-2e-05,-9e-05,0.00018,5e-05,0,-1e-05,-1e-05,-0.00018,4,22
19953,-2e-05,-9e-05,0.00018,5e-05,0,-1e-05,-1e-05,-0.00018,4,22
19954,-2e-05,-9e-05,0.00018,5e-05,0,-1e-05,-1e-05,-0.00018,4,22
19955,-2e-05,-9e-05,0.00018,5e-05,0,-1e-05,-1e-05,-0.00018,4,22
19956,-2e-05,-9e-05,0.00018,5e-05,0,-1e-05,-1e-05,-0.00018,4,22
19958,-2e-05,-9e-05,0.00018,5e-05,0,-1e-05,-1e-05,-0.00018,4,22
19959,-2e-05,-9e-05,0.00018,5e-05,0,-1e-05,-1e-05,-0.00018,4,22
19960,-2e-05,-9e-05,0.00018,5e-05,0,-1e-05,-1e-05,-0.00018,4,22
19961,-2e-05,-9e-05,0.00018,5e-05,0,-1e-05,-1e-05,-0.00018,4,22
19962,-2e-05,-9e-05,0.00018,5e-05,0,-1e-05,-1e-05,-0.00018,4,22
19963,-2e-05,-9e-05,0.00018,5e-05,0,-1e-05,-1e-05,-0.00018,4,22
19964,5e-05,-0.00016,0.00032,-1e-05,0.00012,2e-05,-1e-05,0.00013,4,22
19965,-0.00019,-5e-05,0.00045,0.00086,-0.00011,-0.00022,-7e-05,-9e-05,4,22
19966,-0.00019,-5e-05,0.00045,0.00086,-0.00011,-0.00022,-7e-05,-9e-05,4,22
19967,-0.00019,-5e-05,0.00045,0.00086,-0.00011,-0.00022,-7e-05,-9e-05,4,22
19968,-0.00019,-5e-05,0.00045,0.00086,-0.00011,-0.00022,-7e-05,-9e-05,4,22
19969,-0.00019,-5e-05,0.00045,0.00086,-0.00011,-0.00022,-7e-05,-9e-05,4,22
19970,-0.00019,-5e-05,0.00045,0.00086,-0.00011,-0.00022,-7e-05,-9e-05,4,22
19971,-0.00019,-5e-05,0.00045,0.00086,-0.00011,-0.00022,-7e-05,-9e-05,4,22
19972,-0.00019,-5e-05,0.00045,0.00086,-0.00011,-0.00022,-7e-05,-9e-05,4,22
19973,-0.00019,-5e-05,0.00045,0.00086,-0.00011,-0.00022,-7e-05,-9e-05,4,22
19974,-0.00019,-5e-05,0.00045,0.00086,-0.00011,-0.00022,-7e-05,-9e-05,4,22
19975,-0.00019,-5e-05,0.00045,0.00086,-0.00011,-0.00022,-7e-05,-9e-05,4,22
19976,-0.00019,-5e-05,0.00045,0.00086,-0.00011,-0.00022,-7e-05,-9e-05,4,22
19977,-0.00019,-5e-05,0.00045,0.00086,-0.00011,-0.00022,-7e-05,-9e-05,4,22
19978,-0.00019,-5e-05,0.00045,0.00086,-0.00011,-0.00022,-7e-05,-9e-05,4,22
19979,-0.00019,-5e-05,0.00045,0.00086,-0.00011,-0.00022,-7e-05,-9e-05,4,22
19980,-0.00019,-5e-05,0.00045,0.00086,-0.00011,-0.00022,-7e-05,-9e-05,4,22
19981,-0.00019,-5e-05,0.00045,0.00086,-0.00011,-0.00022,-7e-05,-9e-05,4,22
19982,-0.00019,-5e-05,0.00045,0.00086,-0.00011,-0.00022,-7e-05,-9e-05,4,22
19983,-0.00019,-5e-05,0.00045,0.00086,-0.00011,-0.00022,-7e-05,-9e-05,4,22
19984,-0.00019,-5e-05,0.00045,0.00086,-0.00011,-0.00022,-7e-05,-9e-05,4,22
19985,-0.00019,-5e-05,0.00045,0.00086,-0.00011,-0.00022,-7e-05,-9e-05,4,22
19986,-0.00019,-5e-05,0.00045,0.00086,-0.00011,-0.00022,-7e-05,-9e-05,4,22
19988,-0.00072,-0.0007,-4e-05,0.00059,-0.00038,-0.00038,-0.00023,-0.00038,4,22
19989,-0.00072,-0.0007,-4e-05,0.00059,-0.00038,-0.00038,-0.00023,-0.00038,4,22
19990,-0.00072,-0.0007,-4e-05,0.00059,-0.00038,-0.00038,-0.00023,-0.00038,4,22
19991,-0.00072,-0.0007,-4e-05,0.00059,-0.00038,-0.00038,-0.00023,-0.00038,4,22
19992,-0.00072,-0.0007,-4e-05,0.00059,-0.00038,-0.00038,-0.00023,-0.00038,4,22
19993,-0.00072,-0.0007,-4e-05,0.00059,-0.00038,-0.00038,-0.00023,-0.00038,4,22
19994,-0.00072,-0.0007,-4e-05,0.00059,-0.00038,-0.00038,-0.00023,-0.00038,4,22
19995,-0.00072,-0.0007,-4e-05,0.00059,-0.00038,-0.00038,-0.00023,-0.00038,4,22
19996,-0.00072,-0.0007,-4e-05,0.00059,-0.00038,-0.00038,-0.00023,-0.00038,4,22
19997,-0.00072,-0.0007,-4e-05,0.00059,-0.00038,-0.00038,-0.00023,-0.00038,4,22
19998,-0.00072,-0.0007,-4e-05,0.00059,-0.00038,-0.00038,-0.00023,-0.00038,4,22
19999,-0.00072,-0.0007,-4e-05,0.00059,-0.00038,-0.00038,-0.00023,-0.00038,4,22
20000,-0.00072,-0.0007,-4e-05,0.00059,-0.00038,-0.00038,-0.00023,-0.00038,4,22
20001,-0.00072,-0.0007,-4e-05,0.00059,-0.00038,-0.00038,-0.00023,-0.00038,4,22
20002,-0.00072,-0.0007,-4e-05,0.00059,-0.00038,-0.00038,-0.00023,-0.00038,4,22
20003,-0.00072,-0.0007,-4e-05,0.00059,-0.00038,-0.00038,-0.00023,-0.00038,4,22
20005,-0.00072,-0.0007,-4e-05,0.00059,-0.00038,-0.00038,-0.00023,-0.00038,4,22
20006,-0.00072,-0.0007,-4e-05,0.00059,-0.00038,-0.00038,-0.00023,-0.00038,4,22
20007,-0.00072,-0.0007,-4e-05,0.00059,-0.00038,-0.00038,-0.00023,-0.00038,4,22
20008,-0.00072,-0.0007,-4e-05,0.00059,-0.00038,-0.00038,-0.00023,-0.00038,4,22
20009,-0.00042,-0.00066,-0.00128,-0.00095,-0.0007,-0.00051,-0.00024,-0.00023,4,22
20010,0.00021,0.00023,0.00022,0.00067,0.00018,0.00016,4e-05,5e-05,4,22
20011,0.00021,0.00023,0.00022,0.00067,0.00018,0.00016,4e-05,5e-05,4,22
20012,0.00021,0.00023,0.00022,0.00067,0.00018,0.00016,4e-05,5e-05,4,22
20013,0.00021,0.00023,0.00022,0.00067,0.00018,0.00016,4e-05,5e-05,4,22
20014,0.00021,0.00023,0.00022,0.00067,0.00018,0.00016,4e-05,5e-05,4,22
20015,-9e-05,-0.0001,-0.00052,-0.00114,-0.00039,-0.00017,-7e-05,5e-05,4,22
20016,0.00012,-4e-05,-0.00029,0.00038,0.00012,0.00014,3e-05,-0.00014,4,22
20017,0.00012,-4e-05,-0.00029,0.00038,0.00012,0.00014,3e-05,-0.00014,4,22
20018,0.00012,-4e-05,-0.00029,0.00038,0.00012,0.00014,3e-05,-0.00014,4,22
20019,0.00012,-4e-05,-0.00029,0.00038,0.00012,0.00014,3e-05,-0.00014,4,22
20020,0.00012,-4e-05,-0.00029,0.00038,0.00012,0.00014,3e-05,-0.00014,4,22
20021,0.00012,-4e-05,-0.00029,0.00038,0.00012,0.00014,3e-05,-0.00014,4,22
20022,0.00012,-4e-05,-0.00029,0.00038,0.00012,0.00014,3e-05,-0.00014,4,22
20023,0.00012,-4e-05,-0.00029,0.00038,0.00012,0.00014,3e-05,-0.00014,4,22
20024,7e-05,0.00015,0.00024,3e-05,0.00017,0.0001,4e-05,5e-05,4,22
20025,7e-05,0.00015,0.00024,3e-05,0.00017,0.0001,4e-05,5e-05,4,22
20026,7e-05,0.00015,0.00024,3e-05,0.00017,0.0001,4e-05,5e-05,4,22
20027,7e-05,0.00015,0.00024,3e-05,0.00017,0.0001,4e-05,5e-05,4,22
20028,7e-05,0.00015,0.00024,3e-05,0.00017,0.0001,4e-05,5e-05,4,22
20029,7e-05,0.00015,0.00024,3e-05,0.00017,0.0001,4e-05,5e-05,4,22
20030,7e-05,0.00015,0.00024,3e-05,0.00017,0.0001,4e-05,5e-05,4,22
20031,7e-05,0.00015,0.00024,3e-05,0.00017,0.0001,4e-05,5e-05,4,22
20033,7e-05,0.00015,0.00024,3e-05,0.00017,0.0001,4e-05,5e-05,4,22
20034,7e-05,0.00015,0.00024,3e-05,0.00017,0.0001,4e-05,5e-05,4,22
20035,7e-05,0.00015,0.00024,3e-05,0.00017,0.0001,4e-05,5e-05,4,22
20043,0.00013,9e-05,0.00025,-0.00028,-3e-05,-5e-05,2e-05,6e-05,4,22
20045,0.00013,9e-05,0.00025,-0.00028,-3e-05,-5e-05,2e-05,6e-05,4,22
20046,0.00013,9e-05,0.00025,-0.00028,-3e-05,-5e-05,2e-05,6e-05,4,22
20047,0.00013,9e-05,0.00025,-0.00028,-3e-05,-5e-05,2e-05,6e-05,4,22
20048,0.00013,9e-05,0.00025,-0.00028,-3e-05,-5e-05,2e-05,6e-05,4,22
20049,0.00013,9e-05,0.00025,-0.00028,-3e-05,-5e-05,2e-05,6e-05,4,22
20050,0.00013,9e-05,0.00025,-0.00028,-3e-05,-5e-05,2e-05,6e-05,4,22
20051,0.00013,9e-05,0.00025,-0.00028,-3e-05,-5e-05,2e-05,6e-05,4,22
20052,0.00013,9e-05,0.00025,-0.00028,-3e-05,-5e-05,2e-05,6e-05,4,22
20053,0.00013,9e-05,0.00025,-0.00028,-3e-05,-5e-05,2e-05,6e-05,4,22
20054,0.00013,9e-05,0.00025,-0.00028,-3e-05,-5e-05,2e-05,6e-05,4,22
20055,0.00013,9e-05,0.00025,-0.00028,-3e-05,-5e-05,2e-05,6e-05,4,22
20056,0.00013,9e-05,0.00025,-0.00028,-3e-05,-5e-05,2e-05,6e-05,4,22
20057,0.00013,9e-05,0.00025,-0.00028,-3e-05,-5e-05,2e-05,6e-05,4,22
20058,0.00013,9e-05,0.00025,-0.00028,-3e-05,-5e-05,2e-05,6e-05,4,22
20059,0.00013,9e-05,0.00025,-0.00028,-3e-05,-5e-05,2e-05,6e-05,4,22
20060,0.00013,9e-05,0.00025,-0.00028,-3e-05,-5e-05,2e-05,6e-05,4,22
20061,0.00013,9e-05,0.00025,-0.00028,-3e-05,-5e-05,2e-05,6e-05,4,22
20062,0.00011,-2e-05,-0.0001,0.00069,0.00012,6e-05,2e-05,0.00027,4,22
20063,0.00011,-2e-05,-0.0001,0.00069,0.00012,6e-05,2e-05,0.00027,4,22
20064,0.00011,-2e-05,-0.0001,0.00069,0.00012,6e-05,2e-05,0.00027,4,22
20065,0.00011,-2e-05,-0.0001,0.00069,0.00012,6e-05,2e-05,0.00027,4,22
20066,0.00011,-2e-05,-0.0001,0.00069,0.00012,6e-05,2e-05,0.00027,4,22
20067,0.00011,-2e-05,-0.0001,0.00069,0.00012,6e-05,2e-05,0.00027,4,22
20068,0.00011,-2e-05,-0.0001,0.00069,0.00012,6e-05,2e-05,0.00027,4,22
20069,0.00011,-2e-05,-0.0001,0.00069,0.00012,6e-05,2e-05,0.00027,4,22
49999,0.00013,0.00025,-0.00055,-0.00063,-0.00017,0.00012,8e-05,2e-05,4,22
50000,0.00013,0.00025,-0.00055,-0.00063,-0.00017,0.00012,8e-05,2e-05,4,22
50001,0.00013,0.00025,-0.00055,-0.00063,-0.00017,0.00012,8e-05,2e-05,4,22
50002,-2e-05,8e-05,0.00011,0.00114,0.00012,-8e-05,-3e-05,-2e-05,4,22
50003,0.00012,0.00026,0.00047,-0.00075,-0.00018,-7e-05,-2e-05,-8e-05,4,22
50004,1e-05,0.0001,0.00024,7e-05,0.00032,0.00025,8e-05,2e-05,4,22
50005,1e-05,0.0001,0.00024,7e-05,0.00032,0.00025,8e-05,2e-05,4,22
50006,1e-05,0.0001,0.00024,7e-05,0.00032,0.00025,8e-05,2e-05,4,22
50007,1e-05,0.0001,0.00024,7e-05,0.00032,0.00025,8e-05,2e-05,4,22
50008,1e-05,0.0001,0.00024,7e-05,0.00032,0.00025,8e-05,2e-05,4,22
50009,1e-05,0.0001,0.00024,7e-05,0.00032,0.00025,8e-05,2e-05,4,22
50010,1e-05,0.0001,0.00024,7e-05,0.00032,0.00025,8e-05,2e-05,4,22
50011,1e-05,0.0001,0.00024,7e-05,0.00032,0.00025,8e-05,2e-05,4,22
50012,1e-05,0.0001,0.00024,7e-05,0.00032,0.00025,8e-05,2e-05,4,22
50013,1e-05,0.0001,0.00024,7e-05,0.00032,0.00025,8e-05,2e-05,4,22
50014,1e-05,0.0001,0.00024,7e-05,0.00032,0.00025,8e-05,2e-05,4,22
50015,1e-05,0.0001,0.00024,7e-05,0.00032,0.00025,8e-05,2e-05,4,22
50016,1e-05,0.0001,0.00024,7e-05,0.00032,0.00025,8e-05,2e-05,4,22
50017,0.00015,0.00029,-0.00066,-0.00058,0.00021,0.00028,0.00013,0.00011,4,22
50018,0.00015,0.00029,-0.00066,-0.00058,0.00021,0.00028,0.00013,0.00011,4,22
50020,0.00015,0.00029,-0.00066,-0.00058,0.00021,0.00028,0.00013,0.00011,4,22
50021,0.00015,0.00029,-0.00066,-0.00058,0.00021,0.00028,0.00013,0.00011,4,22
50022,0.00015,0.00029,-0.00066,-0.00058,0.00021,0.00028,0.00013,0.00011,4,22
50023,0.00015,0.00029,-0.00066,-0.00058,0.00021,0.00028,0.00013,0.00011,4,22
50024,0.00017,0.00012,-0.00013,8e-05,0.00036,0.00025,8e-05,1e-05,4,22
50025,0.00017,0.00012,-0.00013,8e-05,0.00036,0.00025,8e-05,1e-05,4,22
50026,0.00017,0.00012,-0.00013,8e-05,0.00036,0.00025,8e-05,1e-05,4,22
50027,0.00017,0.00012,-0.00013,8e-05,0.00036,0.00025,8e-05,1e-05,4,22
50028,0.00017,0.00012,-0.00013,8e-05,0.00036,0.00025,8e-05,1e-05,4,22
50029,0.00017,0.00012,-0.00013,8e-05,0.00036,0.00025,8e-05,1e-05,4,22
50030,0.00017,0.00012,-0.00013,8e-05,0.00036,0.00025,8e-05,1e-05,4,22
50031,0.00017,0.00012,-0.00013,8e-05,0.00036,0.00025,8e-05,1e-05,4,22
50033,0.00017,0.00012,-0.00013,8e-05,0.00036,0.00025,8e-05,1e-05,4,22
50034,0.00017,0.00012,-0.00013,8e-05,0.00036,0.00025,8e-05,1e-05,4,22
50035,0.00017,0.00012,-0.00013,8e-05,0.00036,0.00025,8e-05,1e-05,4,22
50043,0.00038,0.00048,0.00037,-0.0005,0.00019,0.00025,0.00012,0.00042,4,22
50044,0.00038,0.00048,0.00037,-0.0005,0.00019,0.00025,0.00012,0.00042,4,22
50045,0.00038,0.00048,0.00037,-0.0005,0.00019,0.00025,0.00012,0.00042,4,22
50046,0.00038,0.00048,0.00037,-0.0005,0.00019,0.00025,0.00012,0.00042,4,22
50047,0.00038,0.00048,0.00037,-0.0005,0.00019,0.00025,0.00012,0.00042,4,22
50048,0.00038,0.00048,0.00037,-0.0005,0.00019,0.00025,0.00012,0.00042,4,22
50049,0.00038,0.00048,0.00037,-0.0005,0.00019,0.00025,0.00012,0.00042,4,22
50050,0.00038,0.00048,0.00037,-0.0005,0.00019,0.00025,0.00012,0.00042,4,22
50051,0.00038,0.00048,0.00037,-0.0005,0.00019,0.00025,0.00012,0.00042,4,22
50052,0.00038,0.00048,0.00037,-0.0005,0.00019,0.00025,0.00012,0.00042,4,22
50053,0.00038,0.00048,0.00037,-0.0005,0.00019,0.00025,0.00012,0.00042,4,22
50054,0.00038,0.00048,0.00037,-0.0005,0.00019,0.00025,0.00012,0.00042,4,22
50055,0.00038,0.00048,0.00037,-0.0005,0.00019,0.00025,0.00012,0.00042,4,22
50056,0.00038,0.00048,0.00037,-0.0005,0.00019,0.00025,0.00012,0.00042,4,22
50057,0.00038,0.00048,0.00037,-0.0005,0.00019,0.00025,0.00012,0.00042,4,22
50058,0.00038,0.00048,0.00037,-0.0005,0.00019,0.00025,0.00012,0.00042,4,22
50059,0.00038,0.00048,0.00037,-0.0005,0.00019,0.00025,0.00012,0.00042,4,22
50060,0.00038,0.00048,0.00037,-0.0005,0.00019,0.00025,0.00012,0.00042,4,22
50061,0.00038,0.00048,0.00037,-0.0005,0.00019,0.00025,0.00012,0.00042,4,22
50062,0.00038,0.00048,0.00037,-0.0005,0.00019,0.00025,0.00012,0.00042,4,22
50063,1e-05,0.00023,0.00036,-0.00021,2e-05,0.00013,0.00011,9e-05,4,22
50064,9e-05,1e-05,0.00041,0.00106,-0.00023,-0.00024,-0.00011,2e-05,4,22
50065,-0.00048,7e-05,-0.0001,0.00097,0.00042,0.00013,3e-05,-0.00037,4,22
50066,-0.00048,7e-05,-0.0001,0.00097,0.00042,0.00013,3e-05,-0.00037,4,22
50067,-0.00048,7e-05,-0.0001,0.00097,0.00042,0.00013,3e-05,-0.00037,4,22
50068,-0.00048,7e-05,-0.0001,0.00097,0.00042,0.00013,3e-05,-0.00037,4,22
50069,-0.00048,7e-05,-0.0001,0.00097,0.00042,0.00013,3e-05,-0.00037,4,22
50070,-0.00048,7e-05,-0.0001,0.00097,0.00042,0.00013,3e-05,-0.00037,4,22
50071,-0.00048,7e-05,-0.0001,0.00097,0.00042,0.00013,3e-05,-0.00037,4,22
50072,-0.00048,7e-05,-0.0001,0.00097,0.00042,0.00013,3e-05,-0.00037,4,22
50073,-0.00048,7e-05,-0.0001,0.00097,0.00042,0.00013,3e-05,-0.00037,4,22
50074,-0.00048,7e-05,-0.0001,0.00097,0.00042,0.00013,3e-05,-0.00037,4,22
50075,-0.00048,7e-05,-0.0001,0.00097,0.00042,0.00013,3e-05,-0.00037,4,22
50076,-0.00048,7e-05,-0.0001,0.00097,0.00042,0.00013,3e-05,-0.00037,4,22
50077,0.00019,0.0002,0.00045,0.00116,0.00035,0.0002,5e-05,0.0001,4,22
50078,0.00019,0.0002,0.00045,0.00116,0.00035,0.0002,5e-05,0.0001,4,22
50079,0.00019,0.0002,0.00045,0.00116,0.00035,0.0002,5e-05,0.0001,4,22
50080,0.00019,0.0002,0.00045,0.00116,0.00035,0.0002,5e-05,0.0001,4,22
50081,0.00019,0.0002,0.00045,0.00116,0.00035,0.0002,5e-05,0.0001,4,22
50082,0.00019,0.0002,0.00045,0.00116,0.00035,0.0002,5e-05,0.0001,4,22
50083,-0.00023,-9e-05,-0.00034,-0.00085,-0.00035,-0.00015,-1e-05,1e-05,4,22
50084,-0.00025,-0.00058,-0.00071,0.00067,-0.00017,-0.00023,-0.00018,-0.00019,4,22
50085,-0.00025,-0.00058,-0.00071,0.00067,-0.00017,-0.00023,-0.00018,-0.00019,4,22
50086,-0.00025,-0.00058,-0.00071,0.00067,-0.00017,-0.00023,-0.00018,-0.00019,4,22
50088,-0.00025,-0.00058,-0.00071,0.00067,-0.00017,-0.00023,-0.00018,-0.00019,4,22
50089,-0.00025,-0.00058,-0.00071,0.00067,-0.00017,-0.00023,-0.00018,-0.00019,4,22
50090,-0.00025,-0.00058,-0.00071,0.00067,-0.00017,-0.00023,-0.00018,-0.00019,4,22
50091,-0.00025,-0.00058,-0.00071,0.00067,-0.00017,-0.00023,-0.00018,-0.00019,4,22
50092,-0.00025,-0.00058,-0.00071,0.00067,-0.00017,-0.00023,-0.00018,-0.00019,4,22
50093,-0.00025,-0.00058,-0.00071,0.00067,-0.00017,-0.00023,-0.00018,-0.00019,4,22
50094,-0.00025,-0.00058,-0.00071,0.00067,-0.00017,-0.00023,-0.00018,-0.00019,4,22
50095,-0.00025,-0.00058,-0.00071,0.00067,-0.00017,-0.00023,-0.00018,-0.00019,4,22
50096,-0.00025,-0.00058,-0.00071,0.00067,-0.00017,-0.00023,-0.00018,-0.00019,4,22
50097,-0.00025,-0.00058,-0.00071,0.00067,-0.00017,-0.00023,-0.00018,-0.00019,4,22
50098,-0.00025,-0.00058,-0.00071,0.00067,-0.00017,-0.00023,-0.00018,-0.00019,4,22
50099,-0.00025,-0.00058,-0.00071,0.00067,-0.00017,-0.00023,-0.00018,-0.00019,4,22
50100,0.00024,0.00017,0.00057,0.00076,0.00036,0.0003,0.0001,7e-05,4,22
50101,0.00024,0.00017,0.00057,0.00076,0.00036,0.0003,0.0001,7e-05,4,22
50102,5e-05,-9e-05,0.00039,0.00062,-1e-05,2e-05,0,-2e-05,4,22
50103,5e-05,-9e-05,0.00039,0.00062,-1e-05,2e-05,0,-2e-05,4,22
50104,5e-05,-9e-05,0.00039,0.00062,-1e-05,2e-05,0,-2e-05,4,22
50105,5e-05,-9e-05,0.00039,0.00062,-1e-05,2e-05,0,-2e-05,4,22
50106,5e-05,-9e-05,0.00039,0.00062,-1e-05,2e-05,0,-2e-05,4,22
50107,5e-05,-9e-05,0.00039,0.00062,-1e-05,2e-05,0,-2e-05,4,22
50108,5e-05,-9e-05,0.00039,0.00062,-1e-05,2e-05,0,-2e-05,4,22
50109,5e-05,-9e-05,0.00039,0.00062,-1e-05,2e-05,0,-2e-05,4,22
50110,5e-05,-9e-05,0.00039,0.00062,-1e-05,2e-05,0,-2e-05,4,22
50111,5e-05,-9e-05,0.00039,0.00062,-1e-05,2e-05,0,-2e-05,4,22
50112,5e-05,-9e-05,0.00039,0.00062,-1e-05,2e-05,0,-2e-05,4,22
50113,5e-05,-9e-05,0.00039,0.00062,-1e-05,2e-05,0,-2e-05,4,22
50114,5e-05,-9e-05,0.00039,0.00062,-1e-05,2e-05,0,-2e-05,4,22
50115,5e-05,-9e-05,0.00039,0.00062,-1e-05,2e-05,0,-2e-05,4,22
50116,5e-05,-9e-05,0.00039,0.00062,-1e-05,2e-05,0,-2e-05,4,22
50117,5e-05,-9e-05,0.00039,0.00062,-1e-05,2e-05,0,-2e-05,4,22
50118,5e-05,-9e-05,0.00039,0.00062,-1e-05,2e-05,0,-2e-05,4,22
50119,5e-05,-9e-05,0.00039,0.00062,-1e-05,2e-05,0,-2e-05,4,22
50120,5e-05,-9e-05,0.00039,0.00062,-1e-05,2e-05,0,-2e-05,4,22
50121,5e-05,-9e-05,0.00039,0.00062,-1e-05,2e-05,0,-2e-05,4,22
50122,5e-05,-9e-05,0.00039,0.00062,-1e-05,2e-05,0,-2e-05,4,22
50123,5e-05,-9e-05,0.00039,0.00062,-1e-05,2e-05,0,-2e-05,4,22
50124,5e-05,-9e-05,0.00039,0.00062,-1e-05,2e-05,0,-2e-05,4,22
50125,5e-05,-9e-05,0.00039,0.00062,-1e-05,2e-05,0,-2e-05,4,22
50126,5e-05,-9e-05,0.00039,0.00062,-1e-05,2e-05,0,-2e-05,4,22
50127,5e-05,-9e-05,0.00039,0.00062,-1e-05,2e-05,0,-2e-05,4,22
50128,5e-05,-9e-05,0.00039,0.00062,-1e-05,2e-05,0,-2e-05,4,22
50129,5e-05,-9e-05,0.00039,0.00062,-1e-05,2e-05,0,-2e-05,4,22
