17679,-2e-05,0,6e-05,-0.00012,3e-05,-4e-05,-1e-05,0,4,24
17680,-2e-05,0,6e-05,-0.00012,3e-05,-4e-05,-1e-05,0,4,24
17681,-2e-05,0,6e-05,-0.00012,3e-05,-4e-05,-1e-05,0,4,24
17682,-2e-05,0,6e-05,-0.00012,3e-05,-4e-05,-1e-05,0,4,24
17683,-2e-05,0,6e-05,-0.00012,3e-05,-4e-05,-1e-05,0,4,24
17684,-2e-05,0,6e-05,-0.00012,3e-05,-4e-05,-1e-05,0,4,24
17685,-2e-05,0,6e-05,-0.00012,3e-05,-4e-05,-1e-05,0,4,24
17686,-2e-05,0,6e-05,-0.00012,3e-05,-4e-05,-1e-05,0,4,24
17688,4e-05,1e-05,0.00011,0.00064,0.00019,7e-05,0.0001,8e-05,4,24
17689,-4e-05,-5e-05,-2e-05,-0.00017,-0.00054,-7e-05,-7e-05,-5e-05,4,24
17690,-4e-05,-5e-05,-2e-05,-0.00017,-0.00054,-7e-05,-7e-05,-5e-05,4,24
17691,-4e-05,-5e-05,-2e-05,-0.00017,-0.00054,-7e-05,-7e-05,-5e-05,4,24
17692,-4e-05,-5e-05,-2e-05,-0.00017,-0.00054,-7e-05,-7e-05,-5e-05,4,24
17693,-4e-05,-5e-05,-2e-05,-0.00017,-0.00054,-7e-05,-7e-05,-5e-05,4,24
17694,-4e-05,-5e-05,-2e-05,-0.00017,-0.00054,-7e-05,-7e-05,-5e-05,4,24
17695,-4e-05,-5e-05,-2e-05,-0.00017,-0.00054,-7e-05,-7e-05,-5e-05,4,24
17696,-4e-05,-5e-05,-2e-05,-0.00017,-0.00054,-7e-05,-7e-05,-5e-05,4,24
17697,-4e-05,-5e-05,-2e-05,-0.00017,-0.00054,-7e-05,-7e-05,-5e-05,4,24
17698,-4e-05,-5e-05,-2e-05,-0.00017,-0.00054,-7e-05,-7e-05,-5e-05,4,24
17699,-4e-05,-5e-05,-2e-05,-0.00017,-0.00054,-7e-05,-7e-05,-5e-05,4,24
17700,-4e-05,-5e-05,-2e-05,-0.00017,-0.00054,-7e-05,-7e-05,-5e-05,4,24
17701,-3e-05,-1e-05,-6e-05,-0.0002,-6e-05,-3e-05,-2e-05,-4e-05,4,24
17702,-3e-05,-1e-05,-6e-05,-0.0002,-6e-05,-3e-05,-2e-05,-4e-05,4,24
17703,-3e-05,-1e-05,-6e-05,-0.0002,-6e-05,-3e-05,-2e-05,-4e-05,4,24
17704,-3e-05,-1e-05,-6e-05,-0.0002,-6e-05,-3e-05,-2e-05,-4e-05,4,24
17705,-3e-05,-1e-05,-6e-05,-0.0002,-6e-05,-3e-05,-2e-05,-4e-05,4,24
17706,-3e-05,-1e-05,-6e-05,-0.0002,-6e-05,-3e-05,-2e-05,-4e-05,4,24
17707,-3e-05,-1e-05,-6e-05,-0.0002,-6e-05,-3e-05,-2e-05,-4e-05,4,24
17708,1e-05,3e-05,7e-05,0.00015,-0.00063,-0.00013,-2e-05,1e-05,4,24
17709,1e-05,3e-05,7e-05,0.00015,-0.00063,-0.00013,-2e-05,1e-05,4,24
17710,1e-05,3e-05,7e-05,0.00015,-0.00063,-0.00013,-2e-05,1e-05,4,24
17711,1e-05,3e-05,7e-05,0.00015,-0.00063,-0.00013,-2e-05,1e-05,4,24
17712,1e-05,3e-05,7e-05,0.00015,-0.00063,-0.00013,-2e-05,1e-05,4,24
17713,1e-05,3e-05,7e-05,0.00015,-0.00063,-0.00013,-2e-05,1e-05,4,24
17714,1e-05,3e-05,7e-05,0.00015,-0.00063,-0.00013,-2e-05,1e-05,4,24
17715,1e-05,3e-05,7e-05,0.00015,-0.00063,-0.00013,-2e-05,1e-05,4,24
17716,1e-05,3e-05,7e-05,0.00015,-0.00063,-0.00013,-2e-05,1e-05,4,24
17717,1e-05,3e-05,7e-05,0.00015,-0.00063,-0.00013,-2e-05,1e-05,4,24
17718,1e-05,3e-05,7e-05,0.00015,-0.00063,-0.00013,-2e-05,1e-05,4,24
17719,1e-05,3e-05,7e-05,0.00015,-0.00063,-0.00013,-2e-05,1e-05,4,24
17720,1e-05,3e-05,7e-05,0.00015,-0.00063,-0.00013,-2e-05,1e-05,4,24
17721,1e-05,3e-05,7e-05,0.00015,-0.00063,-0.00013,-2e-05,1e-05,4,24
17722,1e-05,3e-05,7e-05,0.00015,-0.00063,-0.00013,-2e-05,1e-05,4,24
17723,1e-05,3e-05,7e-05,0.00015,-0.00063,-0.00013,-2e-05,1e-05,4,24
17724,-1e-05,-2e-05,-0.00015,-0.00011,-0.00095,-0.00046,1e-05,2e-05,4,24
17726,-2e-05,-3e-05,-5e-05,-3e-05,0.00029,0,-1e-05,-2e-05,4,24
17727,-2e-05,-3e-05,-5e-05,-3e-05,0.00029,0,-1e-05,-2e-05,4,24
17728,-2e-05,-3e-05,-5e-05,-3e-05,0.00029,0,-1e-05,-2e-05,4,24
17729,-2e-05,-3e-05,-5e-05,-3e-05,0.00029,0,-1e-05,-2e-05,4,24
17730,-2e-05,-3e-05,-5e-05,-3e-05,0.00029,0,-1e-05,-2e-05,4,24
17731,-2e-05,-3e-05,-5e-05,-3e-05,0.00029,0,-1e-05,-2e-05,4,24
17732,-2e-05,-3e-05,-5e-05,-3e-05,0.00029,0,-1e-05,-2e-05,4,24
17733,-2e-05,-3e-05,-5e-05,-3e-05,0.00029,0,-1e-05,-2e-05,4,24
17734,-2e-05,-3e-05,-5e-05,-3e-05,0.00029,0,-1e-05,-2e-05,4,24
17735,-2e-05,-3e-05,-5e-05,-3e-05,0.00029,0,-1e-05,-2e-05,4,24
17736,-2e-05,-3e-05,-5e-05,-3e-05,0.00029,0,-1e-05,-2e-05,4,24
17738,-2e-05,-3e-05,-5e-05,-3e-05,0.00029,0,-1e-05,-2e-05,4,24
17739,-2e-05,-3e-05,-5e-05,-3e-05,0.00029,0,-1e-05,-2e-05,4,24
17740,-2e-05,-3e-05,-5e-05,-3e-05,0.00029,0,-1e-05,-2e-05,4,24
17741,-2e-05,-3e-05,-5e-05,-3e-05,0.00029,0,-1e-05,-2e-05,4,24
17742,-2e-05,-3e-05,-5e-05,-3e-05,0.00029,0,-1e-05,-2e-05,4,24
17743,-2e-05,-3e-05,-5e-05,-3e-05,0.00029,0,-1e-05,-2e-05,4,24
17744,-2e-05,-3e-05,-5e-05,-3e-05,0.00029,0,-1e-05,-2e-05,4,24
17745,-2e-05,-3e-05,-5e-05,-3e-05,0.00029,0,-1e-05,-2e-05,4,24
17746,-2e-05,-3e-05,-5e-05,-3e-05,0.00029,0,-1e-05,-2e-05,4,24
17747,4e-05,4e-05,0.0001,5e-05,7e-05,4e-05,-1e-05,1e-05,4,24
17749,-2e-05,-4e-05,-3e-05,3e-05,-0.00018,-7e-05,-1e-05,0,4,24
17750,-2e-05,-4e-05,-3e-05,3e-05,-0.00018,-7e-05,-1e-05,0,4,24
17751,-2e-05,-4e-05,-3e-05,3e-05,-0.00018,-7e-05,-1e-05,0,4,24
17752,-2e-05,-4e-05,-3e-05,3e-05,-0.00018,-7e-05,-1e-05,0,4,24
17753,-2e-05,-4e-05,-3e-05,3e-05,-0.00018,-7e-05,-1e-05,0,4,24
17754,-2e-05,-4e-05,-3e-05,3e-05,-0.00018,-7e-05,-1e-05,0,4,24
17755,-2e-05,-4e-05,-3e-05,3e-05,-0.00018,-7e-05,-1e-05,0,4,24
17756,-2e-05,-4e-05,-3e-05,3e-05,-0.00018,-7e-05,-1e-05,0,4,24
17757,-2e-05,-4e-05,-3e-05,3e-05,-0.00018,-7e-05,-1e-05,0,4,24
17758,-2e-05,-4e-05,-3e-05,3e-05,-0.00018,-7e-05,-1e-05,0,4,24
17759,-2e-05,-4e-05,-3e-05,3e-05,-0.00018,-7e-05,-1e-05,0,4,24
17760,-2e-05,-4e-05,-3e-05,3e-05,-0.00018,-7e-05,-1e-05,0,4,24
17761,0,-1e-05,0,-2e-05,0,5e-05,0,0,4,24
17762,0,-1e-05,0,-2e-05,0,5e-05,0,0,4,24
17763,0,-1e-05,0,-2e-05,0,5e-05,0,0,4,24
17764,0,-1e-05,0,-2e-05,0,5e-05,0,0,4,24
17765,0,-1e-05,0,-2e-05,0,5e-05,0,0,4,24
17766,0,-1e-05,0,-2e-05,0,5e-05,0,0,4,24
17767,0,-1e-05,0,-2e-05,0,5e-05,0,0,4,24
17768,4e-05,6e-05,4e-05,0.00016,0.00034,0.00014,6e-05,4e-05,4,24
17769,4e-05,6e-05,4e-05,0.00016,0.00034,0.00014,6e-05,4e-05,4,24
17770,4e-05,6e-05,4e-05,0.00016,0.00034,0.00014,6e-05,4e-05,4,24
17771,4e-05,6e-05,4e-05,0.00016,0.00034,0.00014,6e-05,4e-05,4,24
17772,4e-05,6e-05,4e-05,0.00016,0.00034,0.00014,6e-05,4e-05,4,24
17773,4e-05,6e-05,4e-05,0.00016,0.00034,0.00014,6e-05,4e-05,4,24
17774,4e-05,6e-05,4e-05,0.00016,0.00034,0.00014,6e-05,4e-05,4,24
17775,4e-05,6e-05,4e-05,0.00016,0.00034,0.00014,6e-05,4e-05,4,24
17776,4e-05,6e-05,4e-05,0.00016,0.00034,0.00014,6e-05,4e-05,4,24
17777,4e-05,6e-05,4e-05,0.00016,0.00034,0.00014,6e-05,4e-05,4,24
17778,4e-05,6e-05,4e-05,0.00016,0.00034,0.00014,6e-05,4e-05,4,24
17779,4e-05,6e-05,4e-05,0.00016,0.00034,0.00014,6e-05,4e-05,4,24
17780,4e-05,6e-05,4e-05,0.00016,0.00034,0.00014,6e-05,4e-05,4,24
17781,4e-05,6e-05,4e-05,0.00016,0.00034,0.00014,6e-05,4e-05,4,24
17782,4e-05,6e-05,4e-05,0.00016,0.00034,0.00014,6e-05,4e-05,4,24
17783,4e-05,6e-05,4e-05,0.00016,0.00034,0.00014,6e-05,4e-05,4,24
17784,4e-05,6e-05,4e-05,0.00016,0.00034,0.00014,6e-05,4e-05,4,24
17785,4e-05,6e-05,4e-05,0.00016,0.00034,0.00014,6e-05,4e-05,4,24
17786,4e-05,6e-05,4e-05,0.00016,0.00034,0.00014,6e-05,4e-05,4,24
17788,4e-05,6e-05,4e-05,0.00016,0.00034,0.00014,6e-05,4e-05,4,24
17789,4e-05,6e-05,4e-05,0.00016,0.00034,0.00014,6e-05,4e-05,4,24
17790,4e-05,6e-05,4e-05,0.00016,0.00034,0.00014,6e-05,4e-05,4,24
17791,4e-05,6e-05,4e-05,0.00016,0.00034,0.00014,6e-05,4e-05,4,24
17792,-4e-05,0,6e-05,-0.00023,-0.00086,-2e-05,-3e-05,-2e-05,4,24
17793,-1e-05,-5e-05,-9e-05,-0.00012,-0.00034,-9e-05,-5e-05,-4e-05,4,24
17794,-1e-05,-5e-05,-9e-05,-0.00012,-0.00034,-9e-05,-5e-05,-4e-05,4,24
17795,-1e-05,-5e-05,-9e-05,-0.00012,-0.00034,-9e-05,-5e-05,-4e-05,4,24
17796,-1e-05,-5e-05,-9e-05,-0.00012,-0.00034,-9e-05,-5e-05,-4e-05,4,24
17797,-1e-05,-5e-05,-9e-05,-0.00012,-0.00034,-9e-05,-5e-05,-4e-05,4,24
17798,-1e-05,-5e-05,-9e-05,-0.00012,-0.00034,-9e-05,-5e-05,-4e-05,4,24
17799,-1e-05,-5e-05,-9e-05,-0.00012,-0.00034,-9e-05,-5e-05,-4e-05,4,24
17800,-1e-05,-5e-05,-9e-05,-0.00012,-0.00034,-9e-05,-5e-05,-4e-05,4,24
17801,-1e-05,-5e-05,-9e-05,-0.00012,-0.00034,-9e-05,-5e-05,-4e-05,4,24
17802,-1e-05,-5e-05,-9e-05,-0.00012,-0.00034,-9e-05,-5e-05,-4e-05,4,24
17803,-1e-05,-5e-05,-9e-05,-0.00012,-0.00034,-9e-05,-5e-05,-4e-05,4,24
17804,-1e-05,-5e-05,-9e-05,-0.00012,-0.00034,-9e-05,-5e-05,-4e-05,4,24
17805,-1e-05,-5e-05,-9e-05,-0.00012,-0.00034,-9e-05,-5e-05,-4e-05,4,24
17806,-1e-05,-5e-05,-9e-05,-0.00012,-0.00034,-9e-05,-5e-05,-4e-05,4,24
17807,2e-05,-1e-05,-5e-05,-0.00019,0.00017,4e-05,2e-05,0,4,24
17808,-8e-05,-4e-05,-3e-05,9e-05,0.00047,0.00015,-5e-05,-7e-05,4,24
17809,-8e-05,-4e-05,-3e-05,9e-05,0.00047,0.00015,-5e-05,-7e-05,4,24
17810,-8e-05,-4e-05,-3e-05,9e-05,0.00047,0.00015,-5e-05,-7e-05,4,24
17811,-8e-05,-4e-05,-3e-05,9e-05,0.00047,0.00015,-5e-05,-7e-05,4,24
17812,-8e-05,-4e-05,-3e-05,9e-05,0.00047,0.00015,-5e-05,-7e-05,4,24
17813,-8e-05,-4e-05,-3e-05,9e-05,0.00047,0.00015,-5e-05,-7e-05,4,24
17814,-8e-05,-4e-05,-3e-05,9e-05,0.00047,0.00015,-5e-05,-7e-05,4,24
17815,-8e-05,-4e-05,-3e-05,9e-05,0.00047,0.00015,-5e-05,-7e-05,4,24
17816,-8e-05,-4e-05,-3e-05,9e-05,0.00047,0.00015,-5e-05,-7e-05,4,24
17817,-8e-05,-4e-05,-3e-05,9e-05,0.00047,0.00015,-5e-05,-7e-05,4,24
17818,-8e-05,-4e-05,-3e-05,9e-05,0.00047,0.00015,-5e-05,-7e-05,4,24
17819,-8e-05,-4e-05,-3e-05,9e-05,0.00047,0.00015,-5e-05,-7e-05,4,24
17820,-8e-05,-4e-05,-3e-05,9e-05,0.00047,0.00015,-5e-05,-7e-05,4,24
17821,0,-2e-05,-0.0001,-0.0002,-0.00031,-5e-05,-2e-05,-2e-05,4,24
17822,0,-2e-05,-0.0001,-0.0002,-0.00031,-5e-05,-2e-05,-2e-05,4,24
17823,0,-2e-05,-0.0001,-0.0002,-0.00031,-5e-05,-2e-05,-2e-05,4,24
17824,0,-2e-05,-0.0001,-0.0002,-0.00031,-5e-05,-2e-05,-2e-05,4,24
17825,0,-2e-05,-0.0001,-0.0002,-0.00031,-5e-05,-2e-05,-2e-05,4,24
17826,0,-2e-05,-0.0001,-0.0002,-0.00031,-5e-05,-2e-05,-2e-05,4,24
17827,0,-2e-05,-0.0001,-0.0002,-0.00031,-5e-05,-2e-05,-2e-05,4,24
17828,-1e-05,-2e-05,-4e-05,8e-05,-0.00022,-4e-05,-2e-05,-2e-05,4,24
17829,-1e-05,-2e-05,-4e-05,8e-05,-0.00022,-4e-05,-2e-05,-2e-05,4,24
17830,-1e-05,-2e-05,-4e-05,8e-05,-0.00022,-4e-05,-2e-05,-2e-05,4,24
17831,-1e-05,-2e-05,-4e-05,8e-05,-0.00022,-4e-05,-2e-05,-2e-05,4,24
17832,-1e-05,-2e-05,-4e-05,8e-05,-0.00022,-4e-05,-2e-05,-2e-05,4,24
17833,-1e-05,-2e-05,-4e-05,8e-05,-0.00022,-4e-05,-2e-05,-2e-05,4,24
17834,-1e-05,-2e-05,-4e-05,8e-05,-0.00022,-4e-05,-2e-05,-2e-05,4,24
17835,-1e-05,-2e-05,-4e-05,8e-05,-0.00022,-4e-05,-2e-05,-2e-05,4,24
17836,-1e-05,-2e-05,-4e-05,8e-05,-0.00022,-4e-05,-2e-05,-2e-05,4,24
17838,-1e-05,-2e-05,-4e-05,8e-05,-0.00022,-4e-05,-2e-05,-2e-05,4,24
17839,-1e-05,-2e-05,-4e-05,8e-05,-0.00022,-4e-05,-2e-05,-2e-05,4,24
17840,-1e-05,-2e-05,-4e-05,8e-05,-0.00022,-4e-05,-2e-05,-2e-05,4,24
17841,-1e-05,-2e-05,-4e-05,8e-05,-0.00022,-4e-05,-2e-05,-2e-05,4,24
17842,-1e-05,-2e-05,-4e-05,8e-05,-0.00022,-4e-05,-2e-05,-2e-05,4,24
17843,-1e-05,-2e-05,-4e-05,8e-05,-0.00022,-4e-05,-2e-05,-2e-05,4,24
17844,0,3e-05,8e-05,0.00027,0.00032,0.00012,1e-05,0,4,24
17845,0,3e-05,8e-05,0.00027,0.00032,0.00012,1e-05,0,4,24
17846,-5e-05,-5e-05,-0.0001,-0.00032,-0.00038,-8e-05,-4e-05,-5e-05,4,24
17847,-5e-05,-5e-05,-0.0001,-0.00032,-0.00038,-8e-05,-4e-05,-5e-05,4,24
17848,-5e-05,-5e-05,-0.0001,-0.00032,-0.00038,-8e-05,-4e-05,-5e-05,4,24
17849,-5e-05,-5e-05,-0.0001,-0.00032,-0.00038,-8e-05,-4e-05,-5e-05,4,24
17850,-5e-05,-5e-05,-0.0001,-0.00032,-0.00038,-8e-05,-4e-05,-5e-05,4,24
17851,-5e-05,-5e-05,-0.0001,-0.00032,-0.00038,-8e-05,-4e-05,-5e-05,4,24
17852,-5e-05,-5e-05,-0.0001,-0.00032,-0.00038,-8e-05,-4e-05,-5e-05,4,24
17853,-5e-05,-5e-05,-0.0001,-0.00032,-0.00038,-8e-05,-4e-05,-5e-05,4,24
17854,-5e-05,-5e-05,-0.0001,-0.00032,-0.00038,-8e-05,-4e-05,-5e-05,4,24
17855,-5e-05,-5e-05,-0.0001,-0.00032,-0.00038,-8e-05,-4e-05,-5e-05,4,24
17856,-5e-05,-5e-05,-0.0001,-0.00032,-0.00038,-8e-05,-4e-05,-5e-05,4,24
17857,-5e-05,-5e-05,-0.0001,-0.00032,-0.00038,-8e-05,-4e-05,-5e-05,4,24
17858,-5e-05,-5e-05,-0.0001,-0.00032,-0.00038,-8e-05,-4e-05,-5e-05,4,24
17859,-5e-05,-5e-05,-0.0001,-0.00032,-0.00038,-8e-05,-4e-05,-5e-05,4,24
17860,-5e-05,-5e-05,-0.0001,-0.00032,-0.00038,-8e-05,-4e-05,-5e-05,4,24
17861,-5e-05,-5e-05,-0.0001,-0.00032,-0.00038,-8e-05,-4e-05,-5e-05,4,24
17862,-5e-05,-5e-05,-0.0001,-0.00032,-0.00038,-8e-05,-4e-05,-5e-05,4,24
17863,-5e-05,-5e-05,-0.0001,-0.00032,-0.00038,-8e-05,-4e-05,-5e-05,4,24
17864,-5e-05,-5e-05,-0.0001,-0.00032,-0.00038,-8e-05,-4e-05,-5e-05,4,24
17865,-5e-05,-5e-05,-0.0001,-0.00032,-0.00038,-8e-05,-4e-05,-5e-05,4,24
17867,-3e-05,-3e-05,-7e-05,-0.00013,-0.0001,2e-05,-1e-05,-4e-05,4,24
17868,-2e-05,3e-05,0.00012,-0.0003,-0.00068,-7e-05,-2e-05,1e-05,4,24
17869,-2e-05,3e-05,0.00012,-0.0003,-0.00068,-7e-05,-2e-05,1e-05,4,24
17870,-2e-05,3e-05,0.00012,-0.0003,-0.00068,-7e-05,-2e-05,1e-05,4,24
17871,-2e-05,3e-05,0.00012,-0.0003,-0.00068,-7e-05,-2e-05,1e-05,4,24
17872,-2e-05,3e-05,0.00012,-0.0003,-0.00068,-7e-05,-2e-05,1e-05,4,24
17873,-2e-05,3e-05,0.00012,-0.0003,-0.00068,-7e-05,-2e-05,1e-05,4,24
17874,-2e-05,3e-05,0.00012,-0.0003,-0.00068,-7e-05,-2e-05,1e-05,4,24
17875,-2e-05,3e-05,0.00012,-0.0003,-0.00068,-7e-05,-2e-05,1e-05,4,24
17876,-2e-05,3e-05,0.00012,-0.0003,-0.00068,-7e-05,-2e-05,1e-05,4,24
17877,-2e-05,3e-05,0.00012,-0.0003,-0.00068,-7e-05,-2e-05,1e-05,4,24
17878,-2e-05,3e-05,0.00012,-0.0003,-0.00068,-7e-05,-2e-05,1e-05,4,24
17879,-2e-05,3e-05,0.00012,-0.0003,-0.00068,-7e-05,-2e-05,1e-05,4,24
17880,-2e-05,3e-05,0.00012,-0.0003,-0.00068,-7e-05,-2e-05,1e-05,4,24
17881,-2e-05,3e-05,0.00012,-0.0003,-0.00068,-7e-05,-2e-05,1e-05,4,24
17882,1e-05,0,-1e-05,0.00048,-0.00044,-8e-05,-2e-05,-2e-05,4,24
17883,1e-05,-1e-05,2e-05,0.00012,-0.00035,3e-05,0,2e-05,4,24
17884,1e-05,-1e-05,2e-05,0.00012,-0.00035,3e-05,0,2e-05,4,24
17885,1e-05,-1e-05,2e-05,0.00012,-0.00035,3e-05,0,2e-05,4,24
17886,1e-05,-1e-05,2e-05,0.00012,-0.00035,3e-05,0,2e-05,4,24
17889,0.00011,0.00013,0.00017,0.00028,-1e-05,2e-05,0.00013,0.00012,4,24
17890,0.00011,0.00013,0.00017,0.00028,-1e-05,2e-05,0.00013,0.00012,4,24
17891,0.00011,0.00013,0.00017,0.00028,-1e-05,2e-05,0.00013,0.00012,4,24
17892,0.00011,0.00013,0.00017,0.00028,-1e-05,2e-05,0.00013,0.00012,4,24
17893,0.00011,0.00013,0.00017,0.00028,-1e-05,2e-05,0.00013,0.00012,4,24
17894,0.00011,0.00013,0.00017,0.00028,-1e-05,2e-05,0.00013,0.00012,4,24
17895,0.00011,0.00013,0.00017,0.00028,-1e-05,2e-05,0.00013,0.00012,4,24
17896,0.00011,0.00013,0.00017,0.00028,-1e-05,2e-05,0.00013,0.00012,4,24
17897,0.00011,0.00013,0.00017,0.00028,-1e-05,2e-05,0.00013,0.00012,4,24
17898,0.00011,0.00013,0.00017,0.00028,-1e-05,2e-05,0.00013,0.00012,4,24
17899,0.00011,0.00013,0.00017,0.00028,-1e-05,2e-05,0.00013,0.00012,4,24
17900,0.00011,0.00013,0.00017,0.00028,-1e-05,2e-05,0.00013,0.00012,4,24
17901,0.00011,0.00013,0.00017,0.00028,-1e-05,2e-05,0.00013,0.00012,4,24
17902,0.00011,0.00013,0.00017,0.00028,-1e-05,2e-05,0.00013,0.00012,4,24
17903,0.00011,0.00013,0.00017,0.00028,-1e-05,2e-05,0.00013,0.00012,4,24
17904,-3e-05,-1e-05,-4e-05,-4e-05,0.00011,2e-05,-6e-05,-2e-05,4,24
17905,-3e-05,-1e-05,-4e-05,-4e-05,0.00011,2e-05,-6e-05,-2e-05,4,24
17906,1e-05,2e-05,6e-05,0.00024,-0.00015,-4e-05,-2e-05,-1e-05,4,24
17907,1e-05,2e-05,6e-05,0.00024,-0.00015,-4e-05,-2e-05,-1e-05,4,24
17908,1e-05,2e-05,6e-05,0.00024,-0.00015,-4e-05,-2e-05,-1e-05,4,24
17909,1e-05,2e-05,6e-05,0.00024,-0.00015,-4e-05,-2e-05,-1e-05,4,24
17910,1e-05,2e-05,6e-05,0.00024,-0.00015,-4e-05,-2e-05,-1e-05,4,24
17911,1e-05,2e-05,6e-05,0.00024,-0.00015,-4e-05,-2e-05,-1e-05,4,24
17912,1e-05,2e-05,6e-05,0.00024,-0.00015,-4e-05,-2e-05,-1e-05,4,24
17913,1e-05,2e-05,6e-05,0.00024,-0.00015,-4e-05,-2e-05,-1e-05,4,24
17914,1e-05,2e-05,6e-05,0.00024,-0.00015,-4e-05,-2e-05,-1e-05,4,24
17915,1e-05,2e-05,6e-05,0.00024,-0.00015,-4e-05,-2e-05,-1e-05,4,24
17916,1e-05,2e-05,6e-05,0.00024,-0.00015,-4e-05,-2e-05,-1e-05,4,24
17917,1e-05,2e-05,6e-05,0.00024,-0.00015,-4e-05,-2e-05,-1e-05,4,24
17918,1e-05,2e-05,6e-05,0.00024,-0.00015,-4e-05,-2e-05,-1e-05,4,24
17919,1e-05,2e-05,6e-05,0.00024,-0.00015,-4e-05,-2e-05,-1e-05,4,24
17920,1e-05,2e-05,6e-05,0.00024,-0.00015,-4e-05,-2e-05,-1e-05,4,24
17921,1e-05,2e-05,6e-05,0.00024,-0.00015,-4e-05,-2e-05,-1e-05,4,24
17922,1e-05,2e-05,6e-05,0.00024,-0.00015,-4e-05,-2e-05,-1e-05,4,24
17923,1e-05,2e-05,6e-05,0.00024,-0.00015,-4e-05,-2e-05,-1e-05,4,24
17924,1e-05,2e-05,6e-05,0.00024,-0.00015,-4e-05,-2e-05,-1e-05,4,24
17925,1e-05,2e-05,6e-05,0.00024,-0.00015,-4e-05,-2e-05,-1e-05,4,24
17926,1e-05,2e-05,6e-05,0.00024,-0.00015,-4e-05,-2e-05,-1e-05,4,24
17927,-1e-05,-1e-05,9e-05,0.0001,-0.00028,-9e-05,2e-05,-1e-05,4,24
17928,-4e-05,-6e-05,-0.00019,-0.00041,-8e-05,-9e-05,-6e-05,-3e-05,4,24
17929,-4e-05,-6e-05,-0.00019,-0.00041,-8e-05,-9e-05,-6e-05,-3e-05,4,24
17930,-4e-05,-6e-05,-0.00019,-0.00041,-8e-05,-9e-05,-6e-05,-3e-05,4,24
17931,-4e-05,-6e-05,-0.00019,-0.00041,-8e-05,-9e-05,-6e-05,-3e-05,4,24
17932,-4e-05,-6e-05,-0.00019,-0.00041,-8e-05,-9e-05,-6e-05,-3e-05,4,24
17933,-4e-05,-6e-05,-0.00019,-0.00041,-8e-05,-9e-05,-6e-05,-3e-05,4,24
17934,-4e-05,-6e-05,-0.00019,-0.00041,-8e-05,-9e-05,-6e-05,-3e-05,4,24
17935,-4e-05,-6e-05,-0.00019,-0.00041,-8e-05,-9e-05,-6e-05,-3e-05,4,24
17936,-4e-05,-6e-05,-0.00019,-0.00041,-8e-05,-9e-05,-6e-05,-3e-05,4,24
17938,-4e-05,-6e-05,-0.00019,-0.00041,-8e-05,-9e-05,-6e-05,-3e-05,4,24
17939,-4e-05,-6e-05,-0.00019,-0.00041,-8e-05,-9e-05,-6e-05,-3e-05,4,24
17940,-4e-05,-6e-05,-0.00019,-0.00041,-8e-05,-9e-05,-6e-05,-3e-05,4,24
17941,2e-05,0,3e-05,-5e-05,3e-05,-8e-05,-3e-05,0,4,24
17942,2e-05,0,3e-05,-5e-05,3e-05,-8e-05,-3e-05,0,4,24
17943,2e-05,0,3e-05,-5e-05,3e-05,-8e-05,-3e-05,0,4,24
17944,2e-05,0,3e-05,-5e-05,3e-05,-8e-05,-3e-05,0,4,24
17945,2e-05,0,3e-05,-5e-05,3e-05,-8e-05,-3e-05,0,4,24
17946,2e-05,0,3e-05,-5e-05,3e-05,-8e-05,-3e-05,0,4,24
17947,2e-05,0,3e-05,-5e-05,3e-05,-8e-05,-3e-05,0,4,24
17948,-4e-05,-2e-05,-1e-05,6e-05,0.00053,7e-05,0,-3e-05,4,24
17949,-4e-05,-2e-05,-1e-05,6e-05,0.00053,7e-05,0,-3e-05,4,24
17950,-4e-05,-2e-05,-1e-05,6e-05,0.00053,7e-05,0,-3e-05,4,24
17951,-4e-05,-2e-05,-1e-05,6e-05,0.00053,7e-05,0,-3e-05,4,24
17952,-4e-05,-2e-05,-1e-05,6e-05,0.00053,7e-05,0,-3e-05,4,24
17953,-4e-05,-2e-05,-1e-05,6e-05,0.00053,7e-05,0,-3e-05,4,24
17954,-4e-05,-2e-05,-1e-05,6e-05,0.00053,7e-05,0,-3e-05,4,24
17955,-4e-05,-2e-05,-1e-05,6e-05,0.00053,7e-05,0,-3e-05,4,24
17956,-4e-05,-2e-05,-1e-05,6e-05,0.00053,7e-05,0,-3e-05,4,24
17957,-4e-05,-2e-05,-1e-05,6e-05,0.00053,7e-05,0,-3e-05,4,24
17958,-4e-05,-2e-05,-1e-05,6e-05,0.00053,7e-05,0,-3e-05,4,24
17959,-4e-05,-2e-05,-1e-05,6e-05,0.00053,7e-05,0,-3e-05,4,24
17960,-4e-05,-2e-05,-1e-05,6e-05,0.00053,7e-05,0,-3e-05,4,24
17961,-4e-05,-2e-05,-1e-05,6e-05,0.00053,7e-05,0,-3e-05,4,24
17962,-4e-05,-2e-05,-1e-05,6e-05,0.00053,7e-05,0,-3e-05,4,24
17963,-4e-05,-2e-05,-1e-05,6e-05,0.00053,7e-05,0,-3e-05,4,24
17964,1e-05,-3e-05,-4e-05,-3e-05,0.0003,0.00011,2e-05,0,4,24
17965,1e-05,-3e-05,-4e-05,-3e-05,0.0003,0.00011,2e-05,0,4,24
17966,-1e-05,-5e-05,-3e-05,6e-05,0.00045,0,-3e-05,0,4,24
17967,-1e-05,-5e-05,-3e-05,6e-05,0.00045,0,-3e-05,0,4,24
17968,-1e-05,-5e-05,-3e-05,6e-05,0.00045,0,-3e-05,0,4,24
17969,-1e-05,-5e-05,-3e-05,6e-05,0.00045,0,-3e-05,0,4,24
17970,-1e-05,-5e-05,-3e-05,6e-05,0.00045,0,-3e-05,0,4,24
17971,-1e-05,-5e-05,-3e-05,6e-05,0.00045,0,-3e-05,0,4,24
17972,-1e-05,-5e-05,-3e-05,6e-05,0.00045,0,-3e-05,0,4,24
17973,-1e-05,-5e-05,-3e-05,6e-05,0.00045,0,-3e-05,0,4,24
17974,-1e-05,-5e-05,-3e-05,6e-05,0.00045,0,-3e-05,0,4,24
17975,-1e-05,-5e-05,-3e-05,6e-05,0.00045,0,-3e-05,0,4,24
17976,-1e-05,-5e-05,-3e-05,6e-05,0.00045,0,-3e-05,0,4,24
17977,-1e-05,-5e-05,-3e-05,6e-05,0.00045,0,-3e-05,0,4,24
17978,-1e-05,-5e-05,-3e-05,6e-05,0.00045,0,-3e-05,0,4,24
17979,-1e-05,-5e-05,-3e-05,6e-05,0.00045,0,-3e-05,0,4,24
17980,-1e-05,-5e-05,-3e-05,6e-05,0.00045,0,-3e-05,0,4,24
17981,-1e-05,-5e-05,-3e-05,6e-05,0.00045,0,-3e-05,0,4,24
17982,-1e-05,-5e-05,-3e-05,6e-05,0.00045,0,-3e-05,0,4,24
17983,-1e-05,-5e-05,-3e-05,6e-05,0.00045,0,-3e-05,0,4,24
17984,-1e-05,-5e-05,-3e-05,6e-05,0.00045,0,-3e-05,0,4,24
17985,-1e-05,-5e-05,-3e-05,6e-05,0.00045,0,-3e-05,0,4,24
17986,-1e-05,-5e-05,-3e-05,6e-05,0.00045,0,-3e-05,0,4,24
17988,-2e-05,1e-05,1e-05,7e-05,-0.00015,4e-05,1e-05,1e-05,4,24
17989,3e-05,5e-05,8e-05,0.00029,0.00022,4e-05,4e-05,0,4,24
17990,3e-05,5e-05,8e-05,0.00029,0.00022,4e-05,4e-05,0,4,24
17991,3e-05,5e-05,8e-05,0.00029,0.00022,4e-05,4e-05,0,4,24
17992,3e-05,5e-05,8e-05,0.00029,0.00022,4e-05,4e-05,0,4,24
17993,3e-05,5e-05,8e-05,0.00029,0.00022,4e-05,4e-05,0,4,24
17994,3e-05,5e-05,8e-05,0.00029,0.00022,4e-05,4e-05,0,4,24
17995,3e-05,5e-05,8e-05,0.00029,0.00022,4e-05,4e-05,0,4,24
17996,3e-05,5e-05,8e-05,0.00029,0.00022,4e-05,4e-05,0,4,24
17997,3e-05,5e-05,8e-05,0.00029,0.00022,4e-05,4e-05,0,4,24
17998,3e-05,5e-05,8e-05,0.00029,0.00022,4e-05,4e-05,0,4,24
17999,3e-05,5e-05,8e-05,0.00029,0.00022,4e-05,4e-05,0,4,24
18000,3e-05,5e-05,8e-05,0.00029,0.00022,4e-05,4e-05,0,4,24
18001,-1e-05,0,2e-05,0.00026,0.00021,-1e-05,-3e-05,-1e-05,4,24
18002,-1e-05,0,2e-05,0.00026,0.00021,-1e-05,-3e-05,-1e-05,4,24
18003,-1e-05,0,2e-05,0.00026,0.00021,-1e-05,-3e-05,-1e-05,4,24
18004,-1e-05,0,2e-05,0.00026,0.00021,-1e-05,-3e-05,-1e-05,4,24
18005,-1e-05,0,2e-05,0.00026,0.00021,-1e-05,-3e-05,-1e-05,4,24
18006,-1e-05,0,2e-05,0.00026,0.00021,-1e-05,-3e-05,-1e-05,4,24
18007,-1e-05,0,2e-05,0.00026,0.00021,-1e-05,-3e-05,-1e-05,4,24
18008,-4e-05,-2e-05,0,-4e-05,-0.00027,-0.0001,-9e-05,-6e-05,4,24
18009,-4e-05,-2e-05,0,-4e-05,-0.00027,-0.0001,-9e-05,-6e-05,4,24
18010,-4e-05,-2e-05,0,-4e-05,-0.00027,-0.0001,-9e-05,-6e-05,4,24
18011,-4e-05,-2e-05,0,-4e-05,-0.00027,-0.0001,-9e-05,-6e-05,4,24
18012,-4e-05,-2e-05,0,-4e-05,-0.00027,-0.0001,-9e-05,-6e-05,4,24
18013,-4e-05,-2e-05,0,-4e-05,-0.00027,-0.0001,-9e-05,-6e-05,4,24
18014,-4e-05,-2e-05,0,-4e-05,-0.00027,-0.0001,-9e-05,-6e-05,4,24
18015,-4e-05,-2e-05,0,-4e-05,-0.00027,-0.0001,-9e-05,-6e-05,4,24
18016,-4e-05,-2e-05,0,-4e-05,-0.00027,-0.0001,-9e-05,-6e-05,4,24
18017,-4e-05,-2e-05,0,-4e-05,-0.00027,-0.0001,-9e-05,-6e-05,4,24
18018,-4e-05,-2e-05,0,-4e-05,-0.00027,-0.0001,-9e-05,-6e-05,4,24
18019,-4e-05,-2e-05,0,-4e-05,-0.00027,-0.0001,-9e-05,-6e-05,4,24
18020,-4e-05,-2e-05,0,-4e-05,-0.00027,-0.0001,-9e-05,-6e-05,4,24
18021,-4e-05,-2e-05,0,-4e-05,-0.00027,-0.0001,-9e-05,-6e-05,4,24
18022,-4e-05,-2e-05,0,-4e-05,-0.00027,-0.0001,-9e-05,-6e-05,4,24
18023,-4e-05,-2e-05,0,-4e-05,-0.00027,-0.0001,-9e-05,-6e-05,4,24
18024,-3e-05,-3e-05,-4e-05,6e-05,0.00039,2e-05,-2e-05,-2e-05,4,24
18025,-6e-05,-7e-05,-9e-05,-0.00035,-0.00025,-7e-05,-4e-05,-5e-05,4,24
18026,0,-4e-05,-1e-05,0.00017,0.00061,-1e-05,-2e-05,-2e-05,4,24
18027,0,-4e-05,-1e-05,0.00017,0.00061,-1e-05,-2e-05,-2e-05,4,24
18028,0,-4e-05,-1e-05,0.00017,0.00061,-1e-05,-2e-05,-2e-05,4,24
18029,0,-4e-05,-1e-05,0.00017,0.00061,-1e-05,-2e-05,-2e-05,4,24
18030,0,-4e-05,-1e-05,0.00017,0.00061,-1e-05,-2e-05,-2e-05,4,24
18031,0,-4e-05,-1e-05,0.00017,0.00061,-1e-05,-2e-05,-2e-05,4,24
18032,0,-4e-05,-1e-05,0.00017,0.00061,-1e-05,-2e-05,-2e-05,4,24
18033,0,-4e-05,-1e-05,0.00017,0.00061,-1e-05,-2e-05,-2e-05,4,24
18034,0,-4e-05,-1e-05,0.00017,0.00061,-1e-05,-2e-05,-2e-05,4,24
18035,0,-4e-05,-1e-05,0.00017,0.00061,-1e-05,-2e-05,-2e-05,4,24
18036,0,-4e-05,-1e-05,0.00017,0.00061,-1e-05,-2e-05,-2e-05,4,24
18038,0,-4e-05,-1e-05,0.00017,0.00061,-1e-05,-2e-05,-2e-05,4,24
18039,0,-4e-05,-1e-05,0.00017,0.00061,-1e-05,-2e-05,-2e-05,4,24
18040,0,-4e-05,-1e-05,0.00017,0.00061,-1e-05,-2e-05,-2e-05,4,24
18041,0,-4e-05,-1e-05,0.00017,0.00061,-1e-05,-2e-05,-2e-05,4,24
18042,0,-4e-05,-1e-05,0.00017,0.00061,-1e-05,-2e-05,-2e-05,4,24
18043,0,-4e-05,-1e-05,0.00017,0.00061,-1e-05,-2e-05,-2e-05,4,24
18044,0,-4e-05,-1e-05,0.00017,0.00061,-1e-05,-2e-05,-2e-05,4,24
18045,0,-4e-05,-1e-05,0.00017,0.00061,-1e-05,-2e-05,-2e-05,4,24
18046,0,-4e-05,-1e-05,0.00017,0.00061,-1e-05,-2e-05,-2e-05,4,24
18047,-4e-05,-5e-05,0,3e-05,0.00025,0.00011,-3e-05,-3e-05,4,24
18048,-4e-05,-5e-05,0,3e-05,0.00025,0.00011,-3e-05,-3e-05,4,24
18049,-4e-05,-6e-05,-0.00015,-0.00027,-0.00039,-9e-05,-5e-05,-4e-05,4,24
18050,-4e-05,-6e-05,-0.00015,-0.00027,-0.00039,-9e-05,-5e-05,-4e-05,4,24
18051,-4e-05,-6e-05,-0.00015,-0.00027,-0.00039,-9e-05,-5e-05,-4e-05,4,24
18052,-4e-05,-6e-05,-0.00015,-0.00027,-0.00039,-9e-05,-5e-05,-4e-05,4,24
18053,-4e-05,-6e-05,-0.00015,-0.00027,-0.00039,-9e-05,-5e-05,-4e-05,4,24
18054,-4e-05,-6e-05,-0.00015,-0.00027,-0.00039,-9e-05,-5e-05,-4e-05,4,24
18055,-4e-05,-6e-05,-0.00015,-0.00027,-0.00039,-9e-05,-5e-05,-4e-05,4,24
18056,-4e-05,-6e-05,-0.00015,-0.00027,-0.00039,-9e-05,-5e-05,-4e-05,4,24
18057,-4e-05,-6e-05,-0.00015,-0.00027,-0.00039,-9e-05,-5e-05,-4e-05,4,24
18058,-4e-05,-6e-05,-0.00015,-0.00027,-0.00039,-9e-05,-5e-05,-4e-05,4,24
18059,-4e-05,-6e-05,-0.00015,-0.00027,-0.00039,-9e-05,-5e-05,-4e-05,4,24
18060,1e-05,2e-05,0,-7e-05,-0.0001,0,-1e-05,-1e-05,4,24
18061,-1e-05,-1e-05,-2e-05,-0.00012,-1e-05,1e-05,-1e-05,1e-05,4,24
18062,-1e-05,-1e-05,-2e-05,-0.00012,-1e-05,1e-05,-1e-05,1e-05,4,24
18063,-1e-05,-1e-05,-2e-05,-0.00012,-1e-05,1e-05,-1e-05,1e-05,4,24
18064,-1e-05,-1e-05,-2e-05,-0.00012,-1e-05,1e-05,-1e-05,1e-05,4,24
18065,-1e-05,-1e-05,-2e-05,-0.00012,-1e-05,1e-05,-1e-05,1e-05,4,24
18066,-1e-05,-1e-05,-2e-05,-0.00012,-1e-05,1e-05,-1e-05,1e-05,4,24
18067,-1e-05,-1e-05,-2e-05,-0.00012,-1e-05,1e-05,-1e-05,1e-05,4,24
18068,-1e-05,-1e-05,-2e-05,-0.00012,-1e-05,1e-05,-1e-05,1e-05,4,24
18069,1e-05,1e-05,1e-05,-0.00017,0.0001,0.00014,2e-05,0,4,24
18070,1e-05,1e-05,1e-05,-0.00017,0.0001,0.00014,2e-05,0,4,24
18071,1e-05,1e-05,1e-05,-0.00017,0.0001,0.00014,2e-05,0,4,24
18072,1e-05,1e-05,1e-05,-0.00017,0.0001,0.00014,2e-05,0,4,24
18073,1e-05,1e-05,1e-05,-0.00017,0.0001,0.00014,2e-05,0,4,24
18074,1e-05,1e-05,1e-05,-0.00017,0.0001,0.00014,2e-05,0,4,24
18075,1e-05,1e-05,1e-05,-0.00017,0.0001,0.00014,2e-05,0,4,24
18076,1e-05,1e-05,1e-05,-0.00017,0.0001,0.00014,2e-05,0,4,24
18077,1e-05,1e-05,1e-05,-0.00017,0.0001,0.00014,2e-05,0,4,24
18078,1e-05,1e-05,1e-05,-0.00017,0.0001,0.00014,2e-05,0,4,24
18079,1e-05,1e-05,1e-05,-0.00017,0.0001,0.00014,2e-05,0,4,24
18080,1e-05,1e-05,1e-05,-0.00017,0.0001,0.00014,2e-05,0,4,24
18081,1e-05,1e-05,1e-05,-0.00017,0.0001,0.00014,2e-05,0,4,24
18082,1e-05,1e-05,1e-05,-0.00017,0.0001,0.00014,2e-05,0,4,24
18083,1e-05,1e-05,1e-05,-0.00017,0.0001,0.00014,2e-05,0,4,24
18084,-3e-05,-1e-05,-1e-05,-8e-05,0.00018,2e-05,-1e-05,-3e-05,4,24
18085,-3e-05,-1e-05,-1e-05,-8e-05,0.00018,2e-05,-1e-05,-3e-05,4,24
18086,-2e-05,-5e-05,-6e-05,-0.00022,-0.00104,-3e-05,-2e-05,-2e-05,4,24
18088,-2e-05,-5e-05,-6e-05,-0.00022,-0.00104,-3e-05,-2e-05,-2e-05,4,24
18090,-2e-05,-5e-05,-6e-05,-0.00022,-0.00104,-3e-05,-2e-05,-2e-05,4,24
18091,-2e-05,-5e-05,-6e-05,-0.00022,-0.00104,-3e-05,-2e-05,-2e-05,4,24
18092,-2e-05,-5e-05,-6e-05,-0.00022,-0.00104,-3e-05,-2e-05,-2e-05,4,24
18093,-2e-05,-5e-05,-6e-05,-0.00022,-0.00104,-3e-05,-2e-05,-2e-05,4,24
18094,-2e-05,-5e-05,-6e-05,-0.00022,-0.00104,-3e-05,-2e-05,-2e-05,4,24
18095,-2e-05,-5e-05,-6e-05,-0.00022,-0.00104,-3e-05,-2e-05,-2e-05,4,24
18096,-2e-05,-5e-05,-6e-05,-0.00022,-0.00104,-3e-05,-2e-05,-2e-05,4,24
18097,-2e-05,-5e-05,-6e-05,-0.00022,-0.00104,-3e-05,-2e-05,-2e-05,4,24
18098,-2e-05,-5e-05,-6e-05,-0.00022,-0.00104,-3e-05,-2e-05,-2e-05,4,24
18099,-2e-05,-5e-05,-6e-05,-0.00022,-0.00104,-3e-05,-2e-05,-2e-05,4,24
18100,-2e-05,-5e-05,-6e-05,-0.00022,-0.00104,-3e-05,-2e-05,-2e-05,4,24
18101,-2e-05,-5e-05,-6e-05,-0.00022,-0.00104,-3e-05,-2e-05,-2e-05,4,24
18102,-2e-05,-5e-05,-6e-05,-0.00022,-0.00104,-3e-05,-2e-05,-2e-05,4,24
18103,-2e-05,-5e-05,-6e-05,-0.00022,-0.00104,-3e-05,-2e-05,-2e-05,4,24
18104,-2e-05,-5e-05,-6e-05,-0.00022,-0.00104,-3e-05,-2e-05,-2e-05,4,24
18105,-2e-05,-5e-05,-6e-05,-0.00022,-0.00104,-3e-05,-2e-05,-2e-05,4,24
18106,-2e-05,-5e-05,-6e-05,-0.00022,-0.00104,-3e-05,-2e-05,-2e-05,4,24
18107,-3e-05,-9e-05,-8e-05,0.00044,-0.00098,-0.00024,-7e-05,-5e-05,4,24
18108,4e-05,5e-05,1e-05,-0.0001,-0.00106,-7e-05,7e-05,4e-05,4,24
18109,4e-05,5e-05,1e-05,-0.0001,-0.00106,-7e-05,7e-05,4e-05,4,24
18110,4e-05,5e-05,1e-05,-0.0001,-0.00106,-7e-05,7e-05,4e-05,4,24
18111,4e-05,5e-05,1e-05,-0.0001,-0.00106,-7e-05,7e-05,4e-05,4,24
18112,4e-05,5e-05,1e-05,-0.0001,-0.00106,-7e-05,7e-05,4e-05,4,24
18113,4e-05,5e-05,1e-05,-0.0001,-0.00106,-7e-05,7e-05,4e-05,4,24
18114,4e-05,5e-05,1e-05,-0.0001,-0.00106,-7e-05,7e-05,4e-05,4,24
18115,4e-05,5e-05,1e-05,-0.0001,-0.00106,-7e-05,7e-05,4e-05,4,24
18116,4e-05,5e-05,1e-05,-0.0001,-0.00106,-7e-05,7e-05,4e-05,4,24
18117,4e-05,5e-05,1e-05,-0.0001,-0.00106,-7e-05,7e-05,4e-05,4,24
18118,4e-05,5e-05,1e-05,-0.0001,-0.00106,-7e-05,7e-05,4e-05,4,24
18119,4e-05,5e-05,1e-05,-0.0001,-0.00106,-7e-05,7e-05,4e-05,4,24
18120,-2e-05,-1e-05,-9e-05,-2e-05,2e-05,1e-05,-3e-05,0,4,24
18121,-2e-05,-1e-05,-9e-05,-2e-05,2e-05,1e-05,-3e-05,0,4,24
18122,-2e-05,-1e-05,-9e-05,-2e-05,2e-05,1e-05,-3e-05,0,4,24
18123,-2e-05,-1e-05,-9e-05,-2e-05,2e-05,1e-05,-3e-05,0,4,24
18124,-2e-05,-1e-05,-9e-05,-2e-05,2e-05,1e-05,-3e-05,0,4,24
18125,-2e-05,-1e-05,-9e-05,-2e-05,2e-05,1e-05,-3e-05,0,4,24
18126,-2e-05,-1e-05,-9e-05,-2e-05,2e-05,1e-05,-3e-05,0,4,24
18127,-2e-05,-1e-05,-9e-05,-2e-05,2e-05,1e-05,-3e-05,0,4,24
18128,-2e-05,-1e-05,-9e-05,-2e-05,2e-05,1e-05,-3e-05,0,4,24
18129,-5e-05,-6e-05,-0.00011,-0.00032,0.0001,-7e-05,-6e-05,-4e-05,4,24
18130,-4e-05,-3e-05,2e-05,0.00035,0.00026,-3e-05,-3e-05,-2e-05,4,24
18131,-4e-05,-3e-05,2e-05,0.00035,0.00026,-3e-05,-3e-05,-2e-05,4,24
18132,-4e-05,-3e-05,2e-05,0.00035,0.00026,-3e-05,-3e-05,-2e-05,4,24
18133,-4e-05,-3e-05,2e-05,0.00035,0.00026,-3e-05,-3e-05,-2e-05,4,24
18134,-4e-05,-3e-05,2e-05,0.00035,0.00026,-3e-05,-3e-05,-2e-05,4,24
18135,-4e-05,-3e-05,2e-05,0.00035,0.00026,-3e-05,-3e-05,-2e-05,4,24
18136,-4e-05,-3e-05,2e-05,0.00035,0.00026,-3e-05,-3e-05,-2e-05,4,24
18138,-4e-05,-3e-05,2e-05,0.00035,0.00026,-3e-05,-3e-05,-2e-05,4,24
18139,-4e-05,-3e-05,2e-05,0.00035,0.00026,-3e-05,-3e-05,-2e-05,4,24
18140,-4e-05,-3e-05,2e-05,0.00035,0.00026,-3e-05,-3e-05,-2e-05,4,24
18141,-4e-05,-3e-05,2e-05,0.00035,0.00026,-3e-05,-3e-05,-2e-05,4,24
18142,-4e-05,-3e-05,2e-05,0.00035,0.00026,-3e-05,-3e-05,-2e-05,4,24
18143,-4e-05,-3e-05,2e-05,0.00035,0.00026,-3e-05,-3e-05,-2e-05,4,24
18144,1e-05,4e-05,1e-05,-0.00017,-0.00028,-5e-05,2e-05,1e-05,4,24
18145,1e-05,4e-05,1e-05,-0.00017,-0.00028,-5e-05,2e-05,1e-05,4,24
18146,-2e-05,-2e-05,1e-05,0.00013,0.00014,-3e-05,-3e-05,-1e-05,4,24
18147,1e-05,0,-1e-05,0,-0.00027,1e-05,3e-05,-1e-05,4,24
18148,1e-05,0,-1e-05,0,-0.00027,1e-05,3e-05,-1e-05,4,24
18149,1e-05,0,-1e-05,0,-0.00027,1e-05,3e-05,-1e-05,4,24
18150,1e-05,0,-1e-05,0,-0.00027,1e-05,3e-05,-1e-05,4,24
18151,1e-05,0,-1e-05,0,-0.00027,1e-05,3e-05,-1e-05,4,24
18152,1e-05,0,-1e-05,0,-0.00027,1e-05,3e-05,-1e-05,4,24
18153,1e-05,0,-1e-05,0,-0.00027,1e-05,3e-05,-1e-05,4,24
18154,1e-05,0,-1e-05,0,-0.00027,1e-05,3e-05,-1e-05,4,24
18155,1e-05,0,-1e-05,0,-0.00027,1e-05,3e-05,-1e-05,4,24
18156,1e-05,0,-1e-05,0,-0.00027,1e-05,3e-05,-1e-05,4,24
18157,1e-05,0,-1e-05,0,-0.00027,1e-05,3e-05,-1e-05,4,24
18158,1e-05,0,-1e-05,0,-0.00027,1e-05,3e-05,-1e-05,4,24
18159,1e-05,0,-1e-05,0,-0.00027,1e-05,3e-05,-1e-05,4,24
18160,1e-05,0,-1e-05,0,-0.00027,1e-05,3e-05,-1e-05,4,24
18161,1e-05,0,-1e-05,0,-0.00027,1e-05,3e-05,-1e-05,4,24
18162,1e-05,0,-1e-05,0,-0.00027,1e-05,3e-05,-1e-05,4,24
18163,1e-05,0,-1e-05,0,-0.00027,1e-05,3e-05,-1e-05,4,24
18164,1e-05,0,-1e-05,0,-0.00027,1e-05,3e-05,-1e-05,4,24
18165,1e-05,0,-1e-05,0,-0.00027,1e-05,3e-05,-1e-05,4,24
18166,1e-05,0,-1e-05,0,-0.00027,1e-05,3e-05,-1e-05,4,24
18167,0,2e-05,6e-05,0.00024,-0.00012,-2e-05,1e-05,0,4,24
18168,-4e-05,-6e-05,-2e-05,0,0.00018,-9e-05,-6e-05,-4e-05,4,24
18169,-4e-05,-6e-05,-2e-05,0,0.00018,-9e-05,-6e-05,-4e-05,4,24
18170,-4e-05,-6e-05,-2e-05,0,0.00018,-9e-05,-6e-05,-4e-05,4,24
18171,-4e-05,-6e-05,-2e-05,0,0.00018,-9e-05,-6e-05,-4e-05,4,24
18172,-4e-05,-6e-05,-2e-05,0,0.00018,-9e-05,-6e-05,-4e-05,4,24
18173,-4e-05,-6e-05,-2e-05,0,0.00018,-9e-05,-6e-05,-4e-05,4,24
18174,-4e-05,-6e-05,-2e-05,0,0.00018,-9e-05,-6e-05,-4e-05,4,24
18175,-4e-05,-6e-05,-2e-05,0,0.00018,-9e-05,-6e-05,-4e-05,4,24
18176,-4e-05,-6e-05,-2e-05,0,0.00018,-9e-05,-6e-05,-4e-05,4,24
18177,-4e-05,-6e-05,-2e-05,0,0.00018,-9e-05,-6e-05,-4e-05,4,24
18178,-4e-05,-6e-05,-2e-05,0,0.00018,-9e-05,-6e-05,-4e-05,4,24
18179,-4e-05,-6e-05,-2e-05,0,0.00018,-9e-05,-6e-05,-4e-05,4,24
18180,1e-05,0,-2e-05,-3e-05,-9e-05,-2e-05,-3e-05,0,4,24
18181,1e-05,0,-2e-05,-3e-05,-9e-05,-2e-05,-3e-05,0,4,24
18182,1e-05,0,-2e-05,-3e-05,-9e-05,-2e-05,-3e-05,0,4,24
18183,1e-05,0,-2e-05,-3e-05,-9e-05,-2e-05,-3e-05,0,4,24
18184,1e-05,0,-2e-05,-3e-05,-9e-05,-2e-05,-3e-05,0,4,24
18185,1e-05,0,-2e-05,-3e-05,-9e-05,-2e-05,-3e-05,0,4,24
18186,1e-05,0,-2e-05,-3e-05,-9e-05,-2e-05,-3e-05,0,4,24
18188,1e-05,0,-2e-05,-3e-05,-9e-05,-2e-05,-3e-05,0,4,24
18189,-2e-05,-3e-05,-2e-05,1e-05,-1e-05,-4e-05,-3e-05,-2e-05,4,24
18190,-2e-05,-3e-05,-2e-05,1e-05,-1e-05,-4e-05,-3e-05,-2e-05,4,24
18191,-2e-05,-3e-05,-2e-05,1e-05,-1e-05,-4e-05,-3e-05,-2e-05,4,24
18192,-2e-05,-3e-05,-2e-05,1e-05,-1e-05,-4e-05,-3e-05,-2e-05,4,24
18193,-2e-05,-3e-05,-2e-05,1e-05,-1e-05,-4e-05,-3e-05,-2e-05,4,24
18194,-2e-05,-3e-05,-2e-05,1e-05,-1e-05,-4e-05,-3e-05,-2e-05,4,24
18195,-2e-05,-3e-05,-2e-05,1e-05,-1e-05,-4e-05,-3e-05,-2e-05,4,24
18196,-2e-05,-3e-05,-2e-05,1e-05,-1e-05,-4e-05,-3e-05,-2e-05,4,24
18197,-2e-05,-3e-05,-2e-05,1e-05,-1e-05,-4e-05,-3e-05,-2e-05,4,24
18198,-2e-05,-3e-05,-2e-05,1e-05,-1e-05,-4e-05,-3e-05,-2e-05,4,24
18199,-2e-05,-3e-05,-2e-05,1e-05,-1e-05,-4e-05,-3e-05,-2e-05,4,24
18200,-2e-05,-3e-05,-2e-05,1e-05,-1e-05,-4e-05,-3e-05,-2e-05,4,24
18201,-2e-05,-3e-05,-2e-05,1e-05,-1e-05,-4e-05,-3e-05,-2e-05,4,24
18202,-2e-05,-3e-05,-2e-05,1e-05,-1e-05,-4e-05,-3e-05,-2e-05,4,24
18203,-2e-05,-3e-05,-2e-05,1e-05,-1e-05,-4e-05,-3e-05,-2e-05,4,24
18204,6e-05,6e-05,0.00018,0.00018,0.00052,4e-05,8e-05,3e-05,4,24
18205,6e-05,6e-05,0.00018,0.00018,0.00052,4e-05,8e-05,3e-05,4,24
18206,-4e-05,-3e-05,-9e-05,5e-05,9e-05,0,-6e-05,-5e-05,4,24
18207,-4e-05,-3e-05,-9e-05,5e-05,9e-05,0,-6e-05,-5e-05,4,24
18208,-4e-05,-3e-05,-9e-05,5e-05,9e-05,0,-6e-05,-5e-05,4,24
18209,-4e-05,-3e-05,-9e-05,5e-05,9e-05,0,-6e-05,-5e-05,4,24
18210,-4e-05,-3e-05,-9e-05,5e-05,9e-05,0,-6e-05,-5e-05,4,24
18211,-4e-05,-3e-05,-9e-05,5e-05,9e-05,0,-6e-05,-5e-05,4,24
18212,-4e-05,-3e-05,-9e-05,5e-05,9e-05,0,-6e-05,-5e-05,4,24
18213,-4e-05,-3e-05,-9e-05,5e-05,9e-05,0,-6e-05,-5e-05,4,24
18214,-4e-05,-3e-05,-9e-05,5e-05,9e-05,0,-6e-05,-5e-05,4,24
18215,-4e-05,-3e-05,-9e-05,5e-05,9e-05,0,-6e-05,-5e-05,4,24
18216,-4e-05,-3e-05,-9e-05,5e-05,9e-05,0,-6e-05,-5e-05,4,24
18217,-4e-05,-3e-05,-9e-05,5e-05,9e-05,0,-6e-05,-5e-05,4,24
18218,-4e-05,-3e-05,-9e-05,5e-05,9e-05,0,-6e-05,-5e-05,4,24
18219,-4e-05,-3e-05,-9e-05,5e-05,9e-05,0,-6e-05,-5e-05,4,24
18220,-4e-05,-3e-05,-9e-05,5e-05,9e-05,0,-6e-05,-5e-05,4,24
18221,-4e-05,-3e-05,-9e-05,5e-05,9e-05,0,-6e-05,-5e-05,4,24
18222,-4e-05,-3e-05,-9e-05,5e-05,9e-05,0,-6e-05,-5e-05,4,24
18223,-4e-05,-3e-05,-9e-05,5e-05,9e-05,0,-6e-05,-5e-05,4,24
18224,-4e-05,-3e-05,-9e-05,5e-05,9e-05,0,-6e-05,-5e-05,4,24
18225,-4e-05,-3e-05,-9e-05,5e-05,9e-05,0,-6e-05,-5e-05,4,24
18226,-4e-05,-3e-05,-9e-05,5e-05,9e-05,0,-6e-05,-5e-05,4,24
18227,-3e-05,-4e-05,-0.00011,1e-05,0.00077,7e-05,0,-1e-05,4,24
18228,-2e-05,-1e-05,-7e-05,-0.00016,8e-05,-5e-05,-3e-05,-2e-05,4,24
18229,-2e-05,-1e-05,-7e-05,-0.00016,8e-05,-5e-05,-3e-05,-2e-05,4,24
18230,-2e-05,-1e-05,-7e-05,-0.00016,8e-05,-5e-05,-3e-05,-2e-05,4,24
18231,-2e-05,-1e-05,-7e-05,-0.00016,8e-05,-5e-05,-3e-05,-2e-05,4,24
18232,-2e-05,-1e-05,-7e-05,-0.00016,8e-05,-5e-05,-3e-05,-2e-05,4,24
18233,-2e-05,-1e-05,-7e-05,-0.00016,8e-05,-5e-05,-3e-05,-2e-05,4,24
18234,-2e-05,-1e-05,-7e-05,-0.00016,8e-05,-5e-05,-3e-05,-2e-05,4,24
18235,-2e-05,-1e-05,-7e-05,-0.00016,8e-05,-5e-05,-3e-05,-2e-05,4,24
18236,-2e-05,-1e-05,-7e-05,-0.00016,8e-05,-5e-05,-3e-05,-2e-05,4,24
18238,-2e-05,-1e-05,-7e-05,-0.00016,8e-05,-5e-05,-3e-05,-2e-05,4,24
18239,-2e-05,-1e-05,-7e-05,-0.00016,8e-05,-5e-05,-3e-05,-2e-05,4,24
18240,-2e-05,-1e-05,-7e-05,-0.00016,8e-05,-5e-05,-3e-05,-2e-05,4,24
18241,-1e-05,-3e-05,-6e-05,-0.00017,-0.00037,4e-05,0,-1e-05,4,24
18242,-1e-05,-3e-05,-6e-05,-0.00017,-0.00037,4e-05,0,-1e-05,4,24
18243,-1e-05,-3e-05,-6e-05,-0.00017,-0.00037,4e-05,0,-1e-05,4,24
18244,-1e-05,-3e-05,-6e-05,-0.00017,-0.00037,4e-05,0,-1e-05,4,24
18245,-1e-05,-3e-05,-6e-05,-0.00017,-0.00037,4e-05,0,-1e-05,4,24
18246,-1e-05,-3e-05,-6e-05,-0.00017,-0.00037,4e-05,0,-1e-05,4,24
18247,-1e-05,-3e-05,-6e-05,-0.00017,-0.00037,4e-05,0,-1e-05,4,24
18248,-1e-05,-3e-05,-6e-05,-0.00017,-0.00037,4e-05,0,-1e-05,4,24
18249,-5e-05,-4e-05,-6e-05,-0.00014,-0.00081,-0.00012,-6e-05,-4e-05,4,24
18250,4e-05,4e-05,8e-05,-1e-05,0.00035,6e-05,4e-05,4e-05,4,24
18251,4e-05,4e-05,8e-05,-1e-05,0.00035,6e-05,4e-05,4e-05,4,24
18252,4e-05,4e-05,8e-05,-1e-05,0.00035,6e-05,4e-05,4e-05,4,24
18253,4e-05,4e-05,8e-05,-1e-05,0.00035,6e-05,4e-05,4e-05,4,24
18254,4e-05,4e-05,8e-05,-1e-05,0.00035,6e-05,4e-05,4e-05,4,24
18255,4e-05,4e-05,8e-05,-1e-05,0.00035,6e-05,4e-05,4e-05,4,24
18256,4e-05,4e-05,8e-05,-1e-05,0.00035,6e-05,4e-05,4e-05,4,24
18257,4e-05,4e-05,8e-05,-1e-05,0.00035,6e-05,4e-05,4e-05,4,24
18258,4e-05,4e-05,8e-05,-1e-05,0.00035,6e-05,4e-05,4e-05,4,24
18259,4e-05,4e-05,8e-05,-1e-05,0.00035,6e-05,4e-05,4e-05,4,24
18260,4e-05,4e-05,8e-05,-1e-05,0.00035,6e-05,4e-05,4e-05,4,24
18261,4e-05,4e-05,8e-05,-1e-05,0.00035,6e-05,4e-05,4e-05,4,24
18262,4e-05,4e-05,8e-05,-1e-05,0.00035,6e-05,4e-05,4e-05,4,24
18263,4e-05,4e-05,8e-05,-1e-05,0.00035,6e-05,4e-05,4e-05,4,24
18264,-2e-05,-2e-05,-4e-05,-7e-05,-3e-05,-4e-05,-2e-05,0,4,24
18265,-2e-05,-2e-05,-4e-05,-7e-05,-3e-05,-4e-05,-2e-05,0,4,24
18266,-1e-05,-1e-05,-6e-05,-0.00025,0.00014,6e-05,1e-05,-1e-05,4,24
18267,-1e-05,-1e-05,-6e-05,-0.00025,0.00014,6e-05,1e-05,-1e-05,4,24
18268,-1e-05,-1e-05,-6e-05,-0.00025,0.00014,6e-05,1e-05,-1e-05,4,24
18269,-1e-05,-1e-05,-6e-05,-0.00025,0.00014,6e-05,1e-05,-1e-05,4,24
18270,-1e-05,-1e-05,-6e-05,-0.00025,0.00014,6e-05,1e-05,-1e-05,4,24
18271,-1e-05,-1e-05,-6e-05,-0.00025,0.00014,6e-05,1e-05,-1e-05,4,24
18272,-1e-05,-1e-05,-6e-05,-0.00025,0.00014,6e-05,1e-05,-1e-05,4,24
18273,-1e-05,-1e-05,-6e-05,-0.00025,0.00014,6e-05,1e-05,-1e-05,4,24
18274,-1e-05,-1e-05,-6e-05,-0.00025,0.00014,6e-05,1e-05,-1e-05,4,24
18275,-1e-05,-1e-05,-6e-05,-0.00025,0.00014,6e-05,1e-05,-1e-05,4,24
18276,-1e-05,-1e-05,-6e-05,-0.00025,0.00014,6e-05,1e-05,-1e-05,4,24
18277,-1e-05,-1e-05,-6e-05,-0.00025,0.00014,6e-05,1e-05,-1e-05,4,24
18278,-1e-05,-1e-05,-6e-05,-0.00025,0.00014,6e-05,1e-05,-1e-05,4,24
18279,-1e-05,-1e-05,-6e-05,-0.00025,0.00014,6e-05,1e-05,-1e-05,4,24
18280,-1e-05,-1e-05,-6e-05,-0.00025,0.00014,6e-05,1e-05,-1e-05,4,24
18281,-1e-05,-1e-05,-6e-05,-0.00025,0.00014,6e-05,1e-05,-1e-05,4,24
18282,-1e-05,-1e-05,-6e-05,-0.00025,0.00014,6e-05,1e-05,-1e-05,4,24
18283,-1e-05,-1e-05,-6e-05,-0.00025,0.00014,6e-05,1e-05,-1e-05,4,24
18284,-1e-05,-1e-05,-6e-05,-0.00025,0.00014,6e-05,1e-05,-1e-05,4,24
18285,-1e-05,-1e-05,-6e-05,-0.00025,0.00014,6e-05,1e-05,-1e-05,4,24
18286,-1e-05,-1e-05,-6e-05,-0.00025,0.00014,6e-05,1e-05,-1e-05,4,24
18289,-1e-05,0,2e-05,9e-05,-4e-05,-6e-05,-5e-05,0,4,24
18290,-1e-05,0,2e-05,9e-05,-4e-05,-6e-05,-5e-05,0,4,24
18291,-1e-05,0,2e-05,9e-05,-4e-05,-6e-05,-5e-05,0,4,24
18292,-1e-05,0,2e-05,9e-05,-4e-05,-6e-05,-5e-05,0,4,24
18293,-1e-05,0,2e-05,9e-05,-4e-05,-6e-05,-5e-05,0,4,24
18294,-1e-05,0,2e-05,9e-05,-4e-05,-6e-05,-5e-05,0,4,24
18295,-1e-05,0,2e-05,9e-05,-4e-05,-6e-05,-5e-05,0,4,24
18296,-1e-05,0,2e-05,9e-05,-4e-05,-6e-05,-5e-05,0,4,24
18297,-1e-05,0,2e-05,9e-05,-4e-05,-6e-05,-5e-05,0,4,24
18298,-1e-05,0,2e-05,9e-05,-4e-05,-6e-05,-5e-05,0,4,24
18299,-1e-05,0,2e-05,9e-05,-4e-05,-6e-05,-5e-05,0,4,24
18300,-1e-05,0,2e-05,9e-05,-4e-05,-6e-05,-5e-05,0,4,24
18301,-4e-05,-2e-05,6e-05,-5e-05,-0.00061,-5e-05,-4e-05,-3e-05,4,24
18302,-4e-05,-2e-05,6e-05,-5e-05,-0.00061,-5e-05,-4e-05,-3e-05,4,24
18303,-4e-05,-2e-05,6e-05,-5e-05,-0.00061,-5e-05,-4e-05,-3e-05,4,24
18304,-4e-05,-2e-05,6e-05,-5e-05,-0.00061,-5e-05,-4e-05,-3e-05,4,24
18305,-4e-05,-2e-05,6e-05,-5e-05,-0.00061,-5e-05,-4e-05,-3e-05,4,24
18306,-4e-05,-2e-05,6e-05,-5e-05,-0.00061,-5e-05,-4e-05,-3e-05,4,24
18307,-4e-05,-2e-05,6e-05,-5e-05,-0.00061,-5e-05,-4e-05,-3e-05,4,24
18308,-4e-05,-2e-05,6e-05,-5e-05,-0.00061,-5e-05,-4e-05,-3e-05,4,24
18309,-4e-05,-9e-05,-0.00016,2e-05,-0.00056,-0.00014,-4e-05,-5e-05,4,24
18311,-4e-05,-9e-05,-0.00016,2e-05,-0.00056,-0.00014,-4e-05,-5e-05,4,24
18312,-4e-05,-9e-05,-0.00016,2e-05,-0.00056,-0.00014,-4e-05,-5e-05,4,24
18313,-4e-05,-9e-05,-0.00016,2e-05,-0.00056,-0.00014,-4e-05,-5e-05,4,24
18314,-4e-05,-9e-05,-0.00016,2e-05,-0.00056,-0.00014,-4e-05,-5e-05,4,24
18315,-4e-05,-9e-05,-0.00016,2e-05,-0.00056,-0.00014,-4e-05,-5e-05,4,24
18316,-4e-05,-9e-05,-0.00016,2e-05,-0.00056,-0.00014,-4e-05,-5e-05,4,24
18317,-4e-05,-9e-05,-0.00016,2e-05,-0.00056,-0.00014,-4e-05,-5e-05,4,24
18318,-4e-05,-9e-05,-0.00016,2e-05,-0.00056,-0.00014,-4e-05,-5e-05,4,24
18319,-4e-05,-9e-05,-0.00016,2e-05,-0.00056,-0.00014,-4e-05,-5e-05,4,24
18320,-4e-05,-9e-05,-0.00016,2e-05,-0.00056,-0.00014,-4e-05,-5e-05,4,24
18321,-4e-05,-9e-05,-0.00016,2e-05,-0.00056,-0.00014,-4e-05,-5e-05,4,24
18322,-4e-05,-9e-05,-0.00016,2e-05,-0.00056,-0.00014,-4e-05,-5e-05,4,24
18323,-4e-05,-9e-05,-0.00016,2e-05,-0.00056,-0.00014,-4e-05,-5e-05,4,24
18324,2e-05,7e-05,0.00012,0.00026,-0.00056,2e-05,3e-05,0,4,24
18325,2e-05,7e-05,0.00012,0.00026,-0.00056,2e-05,3e-05,0,4,24
18326,-1e-05,-3e-05,-3e-05,-0.00017,6e-05,0,-2e-05,0,4,24
18327,-1e-05,-3e-05,-3e-05,-0.00017,6e-05,0,-2e-05,0,4,24
18328,-1e-05,-3e-05,-3e-05,-0.00017,6e-05,0,-2e-05,0,4,24
18329,-1e-05,-3e-05,-3e-05,-0.00017,6e-05,0,-2e-05,0,4,24
18330,-1e-05,-3e-05,-3e-05,-0.00017,6e-05,0,-2e-05,0,4,24
18331,-1e-05,-3e-05,-3e-05,-0.00017,6e-05,0,-2e-05,0,4,24
18332,-1e-05,-3e-05,-3e-05,-0.00017,6e-05,0,-2e-05,0,4,24
18333,-1e-05,-3e-05,-3e-05,-0.00017,6e-05,0,-2e-05,0,4,24
18334,-1e-05,-3e-05,-3e-05,-0.00017,6e-05,0,-2e-05,0,4,24
18335,-1e-05,-3e-05,-3e-05,-0.00017,6e-05,0,-2e-05,0,4,24
18336,-1e-05,-3e-05,-3e-05,-0.00017,6e-05,0,-2e-05,0,4,24
18338,-1e-05,-3e-05,-3e-05,-0.00017,6e-05,0,-2e-05,0,4,24
18339,-1e-05,-3e-05,-3e-05,-0.00017,6e-05,0,-2e-05,0,4,24
18340,-1e-05,-3e-05,-3e-05,-0.00017,6e-05,0,-2e-05,0,4,24
18341,-1e-05,-3e-05,-3e-05,-0.00017,6e-05,0,-2e-05,0,4,24
18342,-1e-05,-3e-05,-3e-05,-0.00017,6e-05,0,-2e-05,0,4,24
18343,-1e-05,-3e-05,-3e-05,-0.00017,6e-05,0,-2e-05,0,4,24
18344,-1e-05,-3e-05,-3e-05,-0.00017,6e-05,0,-2e-05,0,4,24
18345,-1e-05,-3e-05,-3e-05,-0.00017,6e-05,0,-2e-05,0,4,24
18346,-1e-05,-3e-05,-3e-05,-0.00017,6e-05,0,-2e-05,0,4,24
18347,-5e-05,-7e-05,-0.00011,-0.00024,0.00062,1e-05,-7e-05,-4e-05,4,24
18348,-3e-05,-6e-05,-9e-05,-5e-05,-8e-05,0.00012,2e-05,-4e-05,4,24
18349,-3e-05,-6e-05,-9e-05,-5e-05,-8e-05,0.00012,2e-05,-4e-05,4,24
18350,-3e-05,-6e-05,-9e-05,-5e-05,-8e-05,0.00012,2e-05,-4e-05,4,24
18351,-3e-05,-6e-05,-9e-05,-5e-05,-8e-05,0.00012,2e-05,-4e-05,4,24
18352,-3e-05,-6e-05,-9e-05,-5e-05,-8e-05,0.00012,2e-05,-4e-05,4,24
18353,-3e-05,-6e-05,-9e-05,-5e-05,-8e-05,0.00012,2e-05,-4e-05,4,24
18354,-3e-05,-6e-05,-9e-05,-5e-05,-8e-05,0.00012,2e-05,-4e-05,4,24
18355,-3e-05,-6e-05,-9e-05,-5e-05,-8e-05,0.00012,2e-05,-4e-05,4,24
18356,-3e-05,-6e-05,-9e-05,-5e-05,-8e-05,0.00012,2e-05,-4e-05,4,24
18357,-3e-05,-6e-05,-9e-05,-5e-05,-8e-05,0.00012,2e-05,-4e-05,4,24
18358,-3e-05,-6e-05,-9e-05,-5e-05,-8e-05,0.00012,2e-05,-4e-05,4,24
18359,-3e-05,-6e-05,-9e-05,-5e-05,-8e-05,0.00012,2e-05,-4e-05,4,24
18360,-1e-05,-2e-05,-5e-05,-7e-05,9e-05,6e-05,0,-1e-05,4,24
18361,-1e-05,-2e-05,-5e-05,-7e-05,9e-05,6e-05,0,-1e-05,4,24
18362,-1e-05,-2e-05,-5e-05,-7e-05,9e-05,6e-05,0,-1e-05,4,24
18363,-1e-05,-2e-05,-5e-05,-7e-05,9e-05,6e-05,0,-1e-05,4,24
18364,-1e-05,-2e-05,-5e-05,-7e-05,9e-05,6e-05,0,-1e-05,4,24
18365,-1e-05,-2e-05,-5e-05,-7e-05,9e-05,6e-05,0,-1e-05,4,24
18366,-1e-05,-2e-05,-5e-05,-7e-05,9e-05,6e-05,0,-1e-05,4,24
18367,-1e-05,-2e-05,-5e-05,-7e-05,9e-05,6e-05,0,-1e-05,4,24
18368,-1e-05,-2e-05,-5e-05,-7e-05,9e-05,6e-05,0,-1e-05,4,24
18369,5e-05,7e-05,0.0001,0,-6e-05,2e-05,5e-05,5e-05,4,24
18371,5e-05,7e-05,0.0001,0,-6e-05,2e-05,5e-05,5e-05,4,24
18372,5e-05,7e-05,0.0001,0,-6e-05,2e-05,5e-05,5e-05,4,24
18373,5e-05,7e-05,0.0001,0,-6e-05,2e-05,5e-05,5e-05,4,24
18374,5e-05,7e-05,0.0001,0,-6e-05,2e-05,5e-05,5e-05,4,24
18375,5e-05,7e-05,0.0001,0,-6e-05,2e-05,5e-05,5e-05,4,24
18376,5e-05,7e-05,0.0001,0,-6e-05,2e-05,5e-05,5e-05,4,24
18377,5e-05,7e-05,0.0001,0,-6e-05,2e-05,5e-05,5e-05,4,24
18378,5e-05,7e-05,0.0001,0,-6e-05,2e-05,5e-05,5e-05,4,24
18379,5e-05,7e-05,0.0001,0,-6e-05,2e-05,5e-05,5e-05,4,24
18380,5e-05,7e-05,0.0001,0,-6e-05,2e-05,5e-05,5e-05,4,24
18381,5e-05,7e-05,0.0001,0,-6e-05,2e-05,5e-05,5e-05,4,24
18382,5e-05,7e-05,0.0001,0,-6e-05,2e-05,5e-05,5e-05,4,24
18383,5e-05,7e-05,0.0001,0,-6e-05,2e-05,5e-05,5e-05,4,24
18384,5e-05,7e-05,0.0001,0,-6e-05,2e-05,5e-05,5e-05,4,24
18385,-4e-05,-3e-05,-9e-05,-0.00029,-0.00052,-7e-05,-3e-05,-3e-05,4,24
18386,-4e-05,-3e-05,-7e-05,-7e-05,-0.00042,-4e-05,-2e-05,-1e-05,4,24
18388,-4e-05,-3e-05,-7e-05,-7e-05,-0.00042,-4e-05,-2e-05,-1e-05,4,24
18389,-4e-05,-3e-05,-7e-05,-7e-05,-0.00042,-4e-05,-2e-05,-1e-05,4,24
18390,-4e-05,-3e-05,-7e-05,-7e-05,-0.00042,-4e-05,-2e-05,-1e-05,4,24
18391,-4e-05,-3e-05,-7e-05,-7e-05,-0.00042,-4e-05,-2e-05,-1e-05,4,24
18392,-4e-05,-3e-05,-7e-05,-7e-05,-0.00042,-4e-05,-2e-05,-1e-05,4,24
18393,-4e-05,-3e-05,-7e-05,-7e-05,-0.00042,-4e-05,-2e-05,-1e-05,4,24
18394,-4e-05,-3e-05,-7e-05,-7e-05,-0.00042,-4e-05,-2e-05,-1e-05,4,24
18395,-4e-05,-3e-05,-7e-05,-7e-05,-0.00042,-4e-05,-2e-05,-1e-05,4,24
18396,-4e-05,-3e-05,-7e-05,-7e-05,-0.00042,-4e-05,-2e-05,-1e-05,4,24
18397,-4e-05,-3e-05,-7e-05,-7e-05,-0.00042,-4e-05,-2e-05,-1e-05,4,24
18398,-4e-05,-3e-05,-7e-05,-7e-05,-0.00042,-4e-05,-2e-05,-1e-05,4,24
18399,-4e-05,-3e-05,-7e-05,-7e-05,-0.00042,-4e-05,-2e-05,-1e-05,4,24
18400,-4e-05,-3e-05,-7e-05,-7e-05,-0.00042,-4e-05,-2e-05,-1e-05,4,24
18401,-4e-05,-3e-05,-7e-05,-7e-05,-0.00042,-4e-05,-2e-05,-1e-05,4,24
18402,-4e-05,-3e-05,-7e-05,-7e-05,-0.00042,-4e-05,-2e-05,-1e-05,4,24
18403,-4e-05,-3e-05,-7e-05,-7e-05,-0.00042,-4e-05,-2e-05,-1e-05,4,24
18404,-4e-05,-3e-05,-7e-05,-7e-05,-0.00042,-4e-05,-2e-05,-1e-05,4,24
18405,-4e-05,-3e-05,-7e-05,-7e-05,-0.00042,-4e-05,-2e-05,-1e-05,4,24
18406,-4e-05,-3e-05,-7e-05,-7e-05,-0.00042,-4e-05,-2e-05,-1e-05,4,24
18407,2e-05,1e-05,1e-05,5e-05,4e-05,-0.0001,-4e-05,0,4,24
18408,1e-05,3e-05,-1e-05,0.0001,0.00043,3e-05,2e-05,0,4,24
18409,1e-05,3e-05,-1e-05,0.0001,0.00043,3e-05,2e-05,0,4,24
18410,1e-05,3e-05,-1e-05,0.0001,0.00043,3e-05,2e-05,0,4,24
18411,1e-05,3e-05,-1e-05,0.0001,0.00043,3e-05,2e-05,0,4,24
18412,1e-05,3e-05,-1e-05,0.0001,0.00043,3e-05,2e-05,0,4,24
18413,1e-05,3e-05,-1e-05,0.0001,0.00043,3e-05,2e-05,0,4,24
18414,1e-05,3e-05,-1e-05,0.0001,0.00043,3e-05,2e-05,0,4,24
18415,1e-05,3e-05,-1e-05,0.0001,0.00043,3e-05,2e-05,0,4,24
18416,1e-05,3e-05,-1e-05,0.0001,0.00043,3e-05,2e-05,0,4,24
18417,1e-05,3e-05,-1e-05,0.0001,0.00043,3e-05,2e-05,0,4,24
18418,1e-05,3e-05,-1e-05,0.0001,0.00043,3e-05,2e-05,0,4,24
18419,1e-05,3e-05,-1e-05,0.0001,0.00043,3e-05,2e-05,0,4,24
18420,-8e-05,-5e-05,-0.00018,-0.00068,-0.00087,-0.00016,-0.00015,-0.00012,4,24
18421,-8e-05,-5e-05,-0.00018,-0.00068,-0.00087,-0.00016,-0.00015,-0.00012,4,24
18422,-8e-05,-5e-05,-0.00018,-0.00068,-0.00087,-0.00016,-0.00015,-0.00012,4,24
18423,-8e-05,-5e-05,-0.00018,-0.00068,-0.00087,-0.00016,-0.00015,-0.00012,4,24
18424,-8e-05,-5e-05,-0.00018,-0.00068,-0.00087,-0.00016,-0.00015,-0.00012,4,24
18425,-8e-05,-5e-05,-0.00018,-0.00068,-0.00087,-0.00016,-0.00015,-0.00012,4,24
18426,-8e-05,-5e-05,-0.00018,-0.00068,-0.00087,-0.00016,-0.00015,-0.00012,4,24
18427,-8e-05,-5e-05,-0.00018,-0.00068,-0.00087,-0.00016,-0.00015,-0.00012,4,24
18428,-8e-05,-5e-05,-0.00018,-0.00068,-0.00087,-0.00016,-0.00015,-0.00012,4,24
18429,5e-05,8e-05,0.00013,0.00049,-0.00013,7e-05,3e-05,6e-05,4,24
18430,5e-05,8e-05,0.00013,0.00049,-0.00013,7e-05,3e-05,6e-05,4,24
18431,5e-05,8e-05,0.00013,0.00049,-0.00013,7e-05,3e-05,6e-05,4,24
18432,5e-05,8e-05,0.00013,0.00049,-0.00013,7e-05,3e-05,6e-05,4,24
18433,5e-05,8e-05,0.00013,0.00049,-0.00013,7e-05,3e-05,6e-05,4,24
18434,5e-05,8e-05,0.00013,0.00049,-0.00013,7e-05,3e-05,6e-05,4,24
18435,5e-05,8e-05,0.00013,0.00049,-0.00013,7e-05,3e-05,6e-05,4,24
18436,5e-05,8e-05,0.00013,0.00049,-0.00013,7e-05,3e-05,6e-05,4,24
18438,5e-05,8e-05,0.00013,0.00049,-0.00013,7e-05,3e-05,6e-05,4,24
18439,5e-05,8e-05,0.00013,0.00049,-0.00013,7e-05,3e-05,6e-05,4,24
18440,5e-05,8e-05,0.00013,0.00049,-0.00013,7e-05,3e-05,6e-05,4,24
18441,5e-05,8e-05,0.00013,0.00049,-0.00013,7e-05,3e-05,6e-05,4,24
18442,5e-05,8e-05,0.00013,0.00049,-0.00013,7e-05,3e-05,6e-05,4,24
18443,5e-05,8e-05,0.00013,0.00049,-0.00013,7e-05,3e-05,6e-05,4,24
18444,6e-05,8e-05,0.00013,9e-05,0.0001,0.00011,8e-05,9e-05,4,24
18445,6e-05,8e-05,0.00013,9e-05,0.0001,0.00011,8e-05,9e-05,4,24
18446,0,-1e-05,1e-05,-4e-05,0.00025,-1e-05,-2e-05,-3e-05,4,24
18447,0,-1e-05,1e-05,-4e-05,0.00025,-1e-05,-2e-05,-3e-05,4,24
18448,0,-1e-05,1e-05,-4e-05,0.00025,-1e-05,-2e-05,-3e-05,4,24
18449,0,-1e-05,1e-05,-4e-05,0.00025,-1e-05,-2e-05,-3e-05,4,24
18450,0,-1e-05,1e-05,-4e-05,0.00025,-1e-05,-2e-05,-3e-05,4,24
18451,0,-1e-05,1e-05,-4e-05,0.00025,-1e-05,-2e-05,-3e-05,4,24
18452,0,-1e-05,1e-05,-4e-05,0.00025,-1e-05,-2e-05,-3e-05,4,24
18453,0,-1e-05,1e-05,-4e-05,0.00025,-1e-05,-2e-05,-3e-05,4,24
18454,0,-1e-05,1e-05,-4e-05,0.00025,-1e-05,-2e-05,-3e-05,4,24
18455,0,-1e-05,1e-05,-4e-05,0.00025,-1e-05,-2e-05,-3e-05,4,24
18456,0,-1e-05,1e-05,-4e-05,0.00025,-1e-05,-2e-05,-3e-05,4,24
18457,0,-1e-05,1e-05,-4e-05,0.00025,-1e-05,-2e-05,-3e-05,4,24
18458,0,-1e-05,1e-05,-4e-05,0.00025,-1e-05,-2e-05,-3e-05,4,24
18459,0,-1e-05,1e-05,-4e-05,0.00025,-1e-05,-2e-05,-3e-05,4,24
18460,0,-1e-05,1e-05,-4e-05,0.00025,-1e-05,-2e-05,-3e-05,4,24
18461,0,-1e-05,1e-05,-4e-05,0.00025,-1e-05,-2e-05,-3e-05,4,24
18462,0,-1e-05,1e-05,-4e-05,0.00025,-1e-05,-2e-05,-3e-05,4,24
18463,0,-1e-05,1e-05,-4e-05,0.00025,-1e-05,-2e-05,-3e-05,4,24
18464,0,-1e-05,1e-05,-4e-05,0.00025,-1e-05,-2e-05,-3e-05,4,24
18465,0,-1e-05,1e-05,-4e-05,0.00025,-1e-05,-2e-05,-3e-05,4,24
18466,0,-1e-05,1e-05,-4e-05,0.00025,-1e-05,-2e-05,-3e-05,4,24
18467,0,-1e-05,1e-05,-4e-05,0.00025,-1e-05,-2e-05,-3e-05,4,24
18468,8e-05,9e-05,7e-05,0.00023,-0.00057,-0.00021,6e-05,6e-05,4,24
18469,2e-05,1e-05,0,-2e-05,-0.00011,6e-05,4e-05,4e-05,4,24
18470,2e-05,1e-05,0,-2e-05,-0.00011,6e-05,4e-05,4e-05,4,24
18471,2e-05,1e-05,0,-2e-05,-0.00011,6e-05,4e-05,4e-05,4,24
18472,2e-05,1e-05,0,-2e-05,-0.00011,6e-05,4e-05,4e-05,4,24
18474,2e-05,1e-05,0,-2e-05,-0.00011,6e-05,4e-05,4e-05,4,24
18475,2e-05,1e-05,0,-2e-05,-0.00011,6e-05,4e-05,4e-05,4,24
18476,2e-05,1e-05,0,-2e-05,-0.00011,6e-05,4e-05,4e-05,4,24
18477,2e-05,1e-05,0,-2e-05,-0.00011,6e-05,4e-05,4e-05,4,24
18478,2e-05,1e-05,0,-2e-05,-0.00011,6e-05,4e-05,4e-05,4,24
18479,2e-05,1e-05,0,-2e-05,-0.00011,6e-05,4e-05,4e-05,4,24
18480,3e-05,0,3e-05,1e-05,0.00042,3e-05,4e-05,1e-05,4,24
18481,3e-05,0,3e-05,1e-05,0.00042,3e-05,4e-05,1e-05,4,24
18482,3e-05,0,3e-05,1e-05,0.00042,3e-05,4e-05,1e-05,4,24
18483,3e-05,0,3e-05,1e-05,0.00042,3e-05,4e-05,1e-05,4,24
18484,3e-05,0,3e-05,1e-05,0.00042,3e-05,4e-05,1e-05,4,24
18485,3e-05,0,3e-05,1e-05,0.00042,3e-05,4e-05,1e-05,4,24
18486,3e-05,0,3e-05,1e-05,0.00042,3e-05,4e-05,1e-05,4,24
18489,-3e-05,-2e-05,3e-05,1e-05,-9e-05,-9e-05,-3e-05,-4e-05,4,24
18490,-3e-05,-2e-05,3e-05,1e-05,-9e-05,-9e-05,-3e-05,-4e-05,4,24
18491,-3e-05,-2e-05,3e-05,1e-05,-9e-05,-9e-05,-3e-05,-4e-05,4,24
18492,-3e-05,-2e-05,3e-05,1e-05,-9e-05,-9e-05,-3e-05,-4e-05,4,24
18493,-3e-05,-2e-05,3e-05,1e-05,-9e-05,-9e-05,-3e-05,-4e-05,4,24
18494,-3e-05,-2e-05,3e-05,1e-05,-9e-05,-9e-05,-3e-05,-4e-05,4,24
18495,-3e-05,-2e-05,3e-05,1e-05,-9e-05,-9e-05,-3e-05,-4e-05,4,24
18496,-3e-05,-2e-05,3e-05,1e-05,-9e-05,-9e-05,-3e-05,-4e-05,4,24
18497,-3e-05,-2e-05,3e-05,1e-05,-9e-05,-9e-05,-3e-05,-4e-05,4,24
18498,-3e-05,-2e-05,3e-05,1e-05,-9e-05,-9e-05,-3e-05,-4e-05,4,24
18499,-3e-05,-2e-05,3e-05,1e-05,-9e-05,-9e-05,-3e-05,-4e-05,4,24
18500,-3e-05,-2e-05,3e-05,1e-05,-9e-05,-9e-05,-3e-05,-4e-05,4,24
18501,-3e-05,-2e-05,3e-05,1e-05,-9e-05,-9e-05,-3e-05,-4e-05,4,24
18502,-3e-05,-2e-05,3e-05,1e-05,-9e-05,-9e-05,-3e-05,-4e-05,4,24
18503,-3e-05,-2e-05,3e-05,1e-05,-9e-05,-9e-05,-3e-05,-4e-05,4,24
18504,-6e-05,-6e-05,-5e-05,2e-05,-0.00019,-2e-05,-2e-05,-4e-05,4,24
18505,-6e-05,-6e-05,-5e-05,2e-05,-0.00019,-2e-05,-2e-05,-4e-05,4,24
18506,4e-05,2e-05,0.00012,1e-05,-0.00033,4e-05,3e-05,1e-05,4,24
18507,4e-05,2e-05,0.00012,1e-05,-0.00033,4e-05,3e-05,1e-05,4,24
18508,4e-05,2e-05,0.00012,1e-05,-0.00033,4e-05,3e-05,1e-05,4,24
18509,4e-05,2e-05,0.00012,1e-05,-0.00033,4e-05,3e-05,1e-05,4,24
18510,4e-05,2e-05,0.00012,1e-05,-0.00033,4e-05,3e-05,1e-05,4,24
18511,4e-05,2e-05,0.00012,1e-05,-0.00033,4e-05,3e-05,1e-05,4,24
18512,4e-05,2e-05,0.00012,1e-05,-0.00033,4e-05,3e-05,1e-05,4,24
18513,4e-05,2e-05,0.00012,1e-05,-0.00033,4e-05,3e-05,1e-05,4,24
18514,4e-05,2e-05,0.00012,1e-05,-0.00033,4e-05,3e-05,1e-05,4,24
18515,4e-05,2e-05,0.00012,1e-05,-0.00033,4e-05,3e-05,1e-05,4,24
18516,4e-05,2e-05,0.00012,1e-05,-0.00033,4e-05,3e-05,1e-05,4,24
18517,4e-05,2e-05,0.00012,1e-05,-0.00033,4e-05,3e-05,1e-05,4,24
18518,4e-05,2e-05,0.00012,1e-05,-0.00033,4e-05,3e-05,1e-05,4,24
18519,4e-05,2e-05,0.00012,1e-05,-0.00033,4e-05,3e-05,1e-05,4,24
18520,4e-05,2e-05,0.00012,1e-05,-0.00033,4e-05,3e-05,1e-05,4,24
18521,4e-05,2e-05,0.00012,1e-05,-0.00033,4e-05,3e-05,1e-05,4,24
18522,4e-05,2e-05,0.00012,1e-05,-0.00033,4e-05,3e-05,1e-05,4,24
18523,4e-05,2e-05,0.00012,1e-05,-0.00033,4e-05,3e-05,1e-05,4,24
18524,4e-05,2e-05,0.00012,1e-05,-0.00033,4e-05,3e-05,1e-05,4,24
18525,4e-05,2e-05,0.00012,1e-05,-0.00033,4e-05,3e-05,1e-05,4,24
18526,4e-05,2e-05,0.00012,1e-05,-0.00033,4e-05,3e-05,1e-05,4,24
18527,4e-05,3e-05,2e-05,0.00026,-0.00025,0,3e-05,2e-05,4,24
18528,-5e-05,-7e-05,-4e-05,9e-05,0.00046,-1e-05,-6e-05,-5e-05,4,24
18529,-5e-05,-7e-05,-4e-05,9e-05,0.00046,-1e-05,-6e-05,-5e-05,4,24
18530,-5e-05,-7e-05,-4e-05,9e-05,0.00046,-1e-05,-6e-05,-5e-05,4,24
18531,-5e-05,-7e-05,-4e-05,9e-05,0.00046,-1e-05,-6e-05,-5e-05,4,24
18532,-5e-05,-7e-05,-4e-05,9e-05,0.00046,-1e-05,-6e-05,-5e-05,4,24
18533,-5e-05,-7e-05,-4e-05,9e-05,0.00046,-1e-05,-6e-05,-5e-05,4,24
18534,-5e-05,-7e-05,-4e-05,9e-05,0.00046,-1e-05,-6e-05,-5e-05,4,24
18535,-5e-05,-7e-05,-4e-05,9e-05,0.00046,-1e-05,-6e-05,-5e-05,4,24
18536,-5e-05,-7e-05,-4e-05,9e-05,0.00046,-1e-05,-6e-05,-5e-05,4,24
18538,-5e-05,-7e-05,-4e-05,9e-05,0.00046,-1e-05,-6e-05,-5e-05,4,24
18539,-5e-05,-7e-05,-4e-05,9e-05,0.00046,-1e-05,-6e-05,-5e-05,4,24
18540,-5e-05,-7e-05,-4e-05,9e-05,0.00046,-1e-05,-6e-05,-5e-05,4,24
18541,-5e-05,-7e-05,-4e-05,9e-05,0.00046,-1e-05,-6e-05,-5e-05,4,24
18542,-5e-05,-7e-05,-4e-05,9e-05,0.00046,-1e-05,-6e-05,-5e-05,4,24
18543,-5e-05,-7e-05,-4e-05,9e-05,0.00046,-1e-05,-6e-05,-5e-05,4,24
18544,-5e-05,-7e-05,-4e-05,9e-05,0.00046,-1e-05,-6e-05,-5e-05,4,24
18545,-5e-05,-7e-05,-4e-05,9e-05,0.00046,-1e-05,-6e-05,-5e-05,4,24
18546,-5e-05,-7e-05,-4e-05,9e-05,0.00046,-1e-05,-6e-05,-5e-05,4,24
18547,-5e-05,-7e-05,-4e-05,9e-05,0.00046,-1e-05,-6e-05,-5e-05,4,24
18548,-5e-05,-7e-05,-4e-05,9e-05,0.00046,-1e-05,-6e-05,-5e-05,4,24
18549,5e-05,5e-05,4e-05,0.00026,0.00013,1e-05,5e-05,3e-05,4,24
18550,5e-05,5e-05,4e-05,0.00026,0.00013,1e-05,5e-05,3e-05,4,24
18551,5e-05,5e-05,4e-05,0.00026,0.00013,1e-05,5e-05,3e-05,4,24
18552,-2e-05,-2e-05,-1e-05,1e-05,0.00029,-1e-05,-2e-05,-1e-05,4,24
18553,-2e-05,-2e-05,-1e-05,1e-05,0.00029,-1e-05,-2e-05,-1e-05,4,24
18554,-2e-05,-2e-05,-1e-05,1e-05,0.00029,-1e-05,-2e-05,-1e-05,4,24
18555,-2e-05,-2e-05,-1e-05,1e-05,0.00029,-1e-05,-2e-05,-1e-05,4,24
18556,-2e-05,-2e-05,-1e-05,1e-05,0.00029,-1e-05,-2e-05,-1e-05,4,24
18557,-2e-05,-2e-05,-1e-05,1e-05,0.00029,-1e-05,-2e-05,-1e-05,4,24
18558,-2e-05,-2e-05,-1e-05,1e-05,0.00029,-1e-05,-2e-05,-1e-05,4,24
18559,-2e-05,-2e-05,-1e-05,1e-05,0.00029,-1e-05,-2e-05,-1e-05,4,24
18560,-2e-05,-2e-05,-1e-05,1e-05,0.00029,-1e-05,-2e-05,-1e-05,4,24
18561,-2e-05,-2e-05,-1e-05,1e-05,0.00029,-1e-05,-2e-05,-1e-05,4,24
18562,-2e-05,-2e-05,-1e-05,1e-05,0.00029,-1e-05,-2e-05,-1e-05,4,24
18563,-2e-05,-2e-05,-1e-05,1e-05,0.00029,-1e-05,-2e-05,-1e-05,4,24
18564,-1e-05,-1e-05,2e-05,5e-05,0.00018,-6e-05,-4e-05,0,4,24
18565,-1e-05,-1e-05,2e-05,5e-05,0.00018,-6e-05,-4e-05,0,4,24
18566,1e-05,0,-5e-05,2e-05,-0.00038,-0.00015,0,2e-05,4,24
18568,1e-05,0,-5e-05,2e-05,-0.00038,-0.00015,0,2e-05,4,24
18569,1e-05,0,-5e-05,2e-05,-0.00038,-0.00015,0,2e-05,4,24
18570,1e-05,0,-5e-05,2e-05,-0.00038,-0.00015,0,2e-05,4,24
18571,1e-05,0,-5e-05,2e-05,-0.00038,-0.00015,0,2e-05,4,24
18572,1e-05,0,-5e-05,2e-05,-0.00038,-0.00015,0,2e-05,4,24
18573,1e-05,0,-5e-05,2e-05,-0.00038,-0.00015,0,2e-05,4,24
18574,1e-05,0,-5e-05,2e-05,-0.00038,-0.00015,0,2e-05,4,24
18575,1e-05,0,-5e-05,2e-05,-0.00038,-0.00015,0,2e-05,4,24
18576,1e-05,0,-5e-05,2e-05,-0.00038,-0.00015,0,2e-05,4,24
18577,1e-05,0,-5e-05,2e-05,-0.00038,-0.00015,0,2e-05,4,24
18578,1e-05,0,-5e-05,2e-05,-0.00038,-0.00015,0,2e-05,4,24
18579,1e-05,0,-5e-05,2e-05,-0.00038,-0.00015,0,2e-05,4,24
18580,1e-05,0,-5e-05,2e-05,-0.00038,-0.00015,0,2e-05,4,24
18581,1e-05,0,-5e-05,2e-05,-0.00038,-0.00015,0,2e-05,4,24
18582,1e-05,0,-5e-05,2e-05,-0.00038,-0.00015,0,2e-05,4,24
18583,1e-05,0,-5e-05,2e-05,-0.00038,-0.00015,0,2e-05,4,24
18584,1e-05,0,-5e-05,2e-05,-0.00038,-0.00015,0,2e-05,4,24
18585,1e-05,0,-5e-05,2e-05,-0.00038,-0.00015,0,2e-05,4,24
18586,1e-05,0,-5e-05,2e-05,-0.00038,-0.00015,0,2e-05,4,24
18589,-4e-05,-4e-05,-2e-05,0.0001,-0.00017,-1e-05,-4e-05,-4e-05,4,24
18590,-4e-05,-4e-05,-2e-05,0.0001,-0.00017,-1e-05,-4e-05,-4e-05,4,24
18591,-4e-05,-4e-05,-2e-05,0.0001,-0.00017,-1e-05,-4e-05,-4e-05,4,24
18592,-4e-05,-4e-05,-2e-05,0.0001,-0.00017,-1e-05,-4e-05,-4e-05,4,24
18593,-4e-05,-4e-05,-2e-05,0.0001,-0.00017,-1e-05,-4e-05,-4e-05,4,24
18594,-4e-05,-4e-05,-2e-05,0.0001,-0.00017,-1e-05,-4e-05,-4e-05,4,24
18595,-4e-05,-4e-05,-2e-05,0.0001,-0.00017,-1e-05,-4e-05,-4e-05,4,24
18596,-4e-05,-4e-05,-2e-05,0.0001,-0.00017,-1e-05,-4e-05,-4e-05,4,24
18597,-4e-05,-4e-05,-2e-05,0.0001,-0.00017,-1e-05,-4e-05,-4e-05,4,24
18598,-4e-05,-4e-05,-2e-05,0.0001,-0.00017,-1e-05,-4e-05,-4e-05,4,24
18599,-4e-05,-4e-05,-2e-05,0.0001,-0.00017,-1e-05,-4e-05,-4e-05,4,24
18600,-4e-05,-4e-05,-2e-05,0.0001,-0.00017,-1e-05,-4e-05,-4e-05,4,24
18601,-4e-05,-4e-05,-2e-05,0.0001,-0.00017,-1e-05,-4e-05,-4e-05,4,24
18602,-4e-05,-4e-05,-2e-05,0.0001,-0.00017,-1e-05,-4e-05,-4e-05,4,24
18603,-4e-05,-4e-05,-2e-05,0.0001,-0.00017,-1e-05,-4e-05,-4e-05,4,24
18604,-4e-05,-4e-05,-2e-05,0.0001,-0.00017,-1e-05,-4e-05,-4e-05,4,24
18605,-4e-05,-4e-05,-2e-05,0.0001,-0.00017,-1e-05,-4e-05,-4e-05,4,24
18606,-4e-05,-4e-05,-2e-05,0.0001,-0.00017,-1e-05,-4e-05,-4e-05,4,24
18607,-4e-05,-4e-05,-2e-05,0.0001,-0.00017,-1e-05,-4e-05,-4e-05,4,24
18608,-4e-05,-4e-05,-2e-05,0.0001,-0.00017,-1e-05,-4e-05,-4e-05,4,24
18609,2e-05,4e-05,0.0001,0.00019,-0.00035,-8e-05,2e-05,2e-05,4,24
18610,2e-05,4e-05,0.0001,0.00019,-0.00035,-8e-05,2e-05,2e-05,4,24
18611,0,2e-05,-5e-05,-0.00026,-0.00015,-0.00012,-4e-05,-4e-05,4,24
18612,0,2e-05,-5e-05,-0.00026,-0.00015,-0.00012,-4e-05,-4e-05,4,24
18613,0,2e-05,-5e-05,-0.00026,-0.00015,-0.00012,-4e-05,-4e-05,4,24
18614,0,2e-05,-5e-05,-0.00026,-0.00015,-0.00012,-4e-05,-4e-05,4,24
18615,0,2e-05,-5e-05,-0.00026,-0.00015,-0.00012,-4e-05,-4e-05,4,24
18616,0,2e-05,-5e-05,-0.00026,-0.00015,-0.00012,-4e-05,-4e-05,4,24
18617,0,2e-05,-5e-05,-0.00026,-0.00015,-0.00012,-4e-05,-4e-05,4,24
18618,0,2e-05,-5e-05,-0.00026,-0.00015,-0.00012,-4e-05,-4e-05,4,24
18619,0,2e-05,-5e-05,-0.00026,-0.00015,-0.00012,-4e-05,-4e-05,4,24
18620,0,2e-05,-5e-05,-0.00026,-0.00015,-0.00012,-4e-05,-4e-05,4,24
18621,0,2e-05,-5e-05,-0.00026,-0.00015,-0.00012,-4e-05,-4e-05,4,24
18622,0,2e-05,-5e-05,-0.00026,-0.00015,-0.00012,-4e-05,-4e-05,4,24
18623,0,2e-05,-5e-05,-0.00026,-0.00015,-0.00012,-4e-05,-4e-05,4,24
18624,0,2e-05,-5e-05,-0.00026,-0.00015,-0.00012,-4e-05,-4e-05,4,24
18625,-6e-05,-7e-05,-3e-05,4e-05,0.00102,7e-05,-4e-05,-4e-05,4,24
18626,1e-05,4e-05,0.0002,0.00029,0.00066,0.00018,6e-05,2e-05,4,24
18627,1e-05,4e-05,0.0002,0.00029,0.00066,0.00018,6e-05,2e-05,4,24
18628,1e-05,4e-05,0.0002,0.00029,0.00066,0.00018,6e-05,2e-05,4,24
18629,1e-05,4e-05,0.0002,0.00029,0.00066,0.00018,6e-05,2e-05,4,24
18630,1e-05,4e-05,0.0002,0.00029,0.00066,0.00018,6e-05,2e-05,4,24
18631,1e-05,4e-05,0.0002,0.00029,0.00066,0.00018,6e-05,2e-05,4,24
18632,1e-05,4e-05,0.0002,0.00029,0.00066,0.00018,6e-05,2e-05,4,24
18633,1e-05,4e-05,0.0002,0.00029,0.00066,0.00018,6e-05,2e-05,4,24
18634,1e-05,4e-05,0.0002,0.00029,0.00066,0.00018,6e-05,2e-05,4,24
18635,1e-05,4e-05,0.0002,0.00029,0.00066,0.00018,6e-05,2e-05,4,24
18636,1e-05,4e-05,0.0002,0.00029,0.00066,0.00018,6e-05,2e-05,4,24
18638,1e-05,4e-05,0.0002,0.00029,0.00066,0.00018,6e-05,2e-05,4,24
18639,1e-05,4e-05,0.0002,0.00029,0.00066,0.00018,6e-05,2e-05,4,24
18640,1e-05,4e-05,0.0002,0.00029,0.00066,0.00018,6e-05,2e-05,4,24
18641,1e-05,4e-05,0.0002,0.00029,0.00066,0.00018,6e-05,2e-05,4,24
18642,1e-05,4e-05,0.0002,0.00029,0.00066,0.00018,6e-05,2e-05,4,24
18643,1e-05,4e-05,0.0002,0.00029,0.00066,0.00018,6e-05,2e-05,4,24
18644,1e-05,4e-05,0.0002,0.00029,0.00066,0.00018,6e-05,2e-05,4,24
18645,1e-05,4e-05,0.0002,0.00029,0.00066,0.00018,6e-05,2e-05,4,24
18646,1e-05,4e-05,0.0002,0.00029,0.00066,0.00018,6e-05,2e-05,4,24
18647,-3e-05,-4e-05,-6e-05,-8e-05,-0.00029,-7e-05,-4e-05,-1e-05,4,24
18648,-4e-05,-7e-05,-9e-05,9e-05,5e-05,3e-05,0,-1e-05,4,24
18649,-4e-05,-7e-05,-9e-05,9e-05,5e-05,3e-05,0,-1e-05,4,24
18650,-4e-05,-7e-05,-9e-05,9e-05,5e-05,3e-05,0,-1e-05,4,24
18651,-4e-05,-7e-05,-9e-05,9e-05,5e-05,3e-05,0,-1e-05,4,24
18652,-4e-05,-7e-05,-9e-05,9e-05,5e-05,3e-05,0,-1e-05,4,24
18653,-4e-05,-7e-05,-9e-05,9e-05,5e-05,3e-05,0,-1e-05,4,24
18654,-4e-05,-7e-05,-9e-05,9e-05,5e-05,3e-05,0,-1e-05,4,24
18655,-4e-05,-7e-05,-9e-05,9e-05,5e-05,3e-05,0,-1e-05,4,24
18656,-4e-05,-7e-05,-9e-05,9e-05,5e-05,3e-05,0,-1e-05,4,24
18657,-4e-05,-7e-05,-9e-05,9e-05,5e-05,3e-05,0,-1e-05,4,24
18658,-4e-05,-7e-05,-9e-05,9e-05,5e-05,3e-05,0,-1e-05,4,24
18659,-4e-05,-7e-05,-9e-05,9e-05,5e-05,3e-05,0,-1e-05,4,24
18660,-4e-05,-7e-05,-9e-05,9e-05,5e-05,3e-05,0,-1e-05,4,24
18661,-4e-05,-7e-05,-9e-05,9e-05,5e-05,3e-05,0,-1e-05,4,24
18662,-4e-05,-7e-05,-9e-05,9e-05,5e-05,3e-05,0,-1e-05,4,24
18663,-4e-05,-7e-05,-9e-05,9e-05,5e-05,3e-05,0,-1e-05,4,24
18664,-4e-05,-7e-05,-9e-05,9e-05,5e-05,3e-05,0,-1e-05,4,24
18665,-4e-05,-7e-05,-9e-05,9e-05,5e-05,3e-05,0,-1e-05,4,24
18666,-4e-05,-7e-05,-9e-05,9e-05,5e-05,3e-05,0,-1e-05,4,24
18667,-4e-05,-7e-05,-9e-05,9e-05,5e-05,3e-05,0,-1e-05,4,24
18668,-4e-05,-7e-05,-9e-05,9e-05,5e-05,3e-05,0,-1e-05,4,24
18669,-2e-05,-3e-05,-1e-05,0.00032,0.00014,-4e-05,-2e-05,1e-05,4,24
18670,-2e-05,-3e-05,-1e-05,0.00032,0.00014,-4e-05,-2e-05,1e-05,4,24
18671,1e-05,1e-05,-4e-05,-0.00012,-0.00033,-1e-05,-1e-05,-3e-05,4,24
18672,1e-05,1e-05,-4e-05,-0.00012,-0.00033,-1e-05,-1e-05,-3e-05,4,24
18673,1e-05,1e-05,-4e-05,-0.00012,-0.00033,-1e-05,-1e-05,-3e-05,4,24
18674,1e-05,1e-05,-4e-05,-0.00012,-0.00033,-1e-05,-1e-05,-3e-05,4,24
18675,1e-05,1e-05,-4e-05,-0.00012,-0.00033,-1e-05,-1e-05,-3e-05,4,24
18676,1e-05,1e-05,-4e-05,-0.00012,-0.00033,-1e-05,-1e-05,-3e-05,4,24
18677,1e-05,1e-05,-4e-05,-0.00012,-0.00033,-1e-05,-1e-05,-3e-05,4,24
18678,1e-05,1e-05,-4e-05,-0.00012,-0.00033,-1e-05,-1e-05,-3e-05,4,24
18679,1e-05,1e-05,-4e-05,-0.00012,-0.00033,-1e-05,-1e-05,-3e-05,4,24
18680,1e-05,1e-05,-4e-05,-0.00012,-0.00033,-1e-05,-1e-05,-3e-05,4,24
18681,1e-05,1e-05,-4e-05,-0.00012,-0.00033,-1e-05,-1e-05,-3e-05,4,24
18682,1e-05,1e-05,-4e-05,-0.00012,-0.00033,-1e-05,-1e-05,-3e-05,4,24
18683,1e-05,1e-05,-4e-05,-0.00012,-0.00033,-1e-05,-1e-05,-3e-05,4,24
18684,1e-05,2e-05,1e-05,-0.00028,-0.00049,-6e-05,0,-1e-05,4,24
18685,1e-05,2e-05,1e-05,-0.00028,-0.00049,-6e-05,0,-1e-05,4,24
18686,1e-05,2e-05,1e-05,-0.00028,-0.00049,-6e-05,0,-1e-05,4,24
18688,1e-05,2e-05,1e-05,-0.00028,-0.00049,-6e-05,0,-1e-05,4,24
18689,1e-05,2e-05,1e-05,-0.00028,-0.00049,-6e-05,0,-1e-05,4,24
18690,-1e-05,1e-05,-2e-05,4e-05,-0.00021,0,-2e-05,-2e-05,4,24
18691,-1e-05,1e-05,-2e-05,4e-05,-0.00021,0,-2e-05,-2e-05,4,24
18692,-1e-05,1e-05,-2e-05,4e-05,-0.00021,0,-2e-05,-2e-05,4,24
18693,-1e-05,1e-05,-2e-05,4e-05,-0.00021,0,-2e-05,-2e-05,4,24
18694,-1e-05,1e-05,-2e-05,4e-05,-0.00021,0,-2e-05,-2e-05,4,24
18695,-1e-05,1e-05,-2e-05,4e-05,-0.00021,0,-2e-05,-2e-05,4,24
18696,-1e-05,1e-05,-2e-05,4e-05,-0.00021,0,-2e-05,-2e-05,4,24
18697,-1e-05,1e-05,-2e-05,4e-05,-0.00021,0,-2e-05,-2e-05,4,24
18698,-1e-05,1e-05,-2e-05,4e-05,-0.00021,0,-2e-05,-2e-05,4,24
18699,-1e-05,1e-05,-2e-05,4e-05,-0.00021,0,-2e-05,-2e-05,4,24
18700,-1e-05,1e-05,-2e-05,4e-05,-0.00021,0,-2e-05,-2e-05,4,24
18701,-1e-05,1e-05,-2e-05,4e-05,-0.00021,0,-2e-05,-2e-05,4,24
18702,-1e-05,1e-05,-2e-05,4e-05,-0.00021,0,-2e-05,-2e-05,4,24
18703,-1e-05,1e-05,-2e-05,4e-05,-0.00021,0,-2e-05,-2e-05,4,24
18704,-1e-05,1e-05,-2e-05,4e-05,-0.00021,0,-2e-05,-2e-05,4,24
18705,-1e-05,1e-05,-2e-05,4e-05,-0.00021,0,-2e-05,-2e-05,4,24
18706,-1e-05,1e-05,-2e-05,4e-05,-0.00021,0,-2e-05,-2e-05,4,24
18707,-4e-05,-5e-05,-7e-05,-0.00019,-0.00074,-0.00018,-6e-05,-6e-05,4,24
18708,0,-3e-05,-0.00011,4e-05,-3e-05,6e-05,4e-05,1e-05,4,24
18709,0,-3e-05,-0.00011,4e-05,-3e-05,6e-05,4e-05,1e-05,4,24
18710,0,-3e-05,-0.00011,4e-05,-3e-05,6e-05,4e-05,1e-05,4,24
18711,0,-3e-05,-0.00011,4e-05,-3e-05,6e-05,4e-05,1e-05,4,24
18712,0,-3e-05,-0.00011,4e-05,-3e-05,6e-05,4e-05,1e-05,4,24
18713,0,-3e-05,-0.00011,4e-05,-3e-05,6e-05,4e-05,1e-05,4,24
18714,0,-3e-05,-0.00011,4e-05,-3e-05,6e-05,4e-05,1e-05,4,24
18715,0,-3e-05,-0.00011,4e-05,-3e-05,6e-05,4e-05,1e-05,4,24
18716,0,-3e-05,-0.00011,4e-05,-3e-05,6e-05,4e-05,1e-05,4,24
18717,0,-3e-05,-0.00011,4e-05,-3e-05,6e-05,4e-05,1e-05,4,24
18718,0,-3e-05,-0.00011,4e-05,-3e-05,6e-05,4e-05,1e-05,4,24
18719,0,-3e-05,-0.00011,4e-05,-3e-05,6e-05,4e-05,1e-05,4,24
18720,0,-3e-05,-0.00011,4e-05,-3e-05,6e-05,4e-05,1e-05,4,24
18721,0,-3e-05,-0.00011,4e-05,-3e-05,6e-05,4e-05,1e-05,4,24
18722,0,-3e-05,-0.00011,4e-05,-3e-05,6e-05,4e-05,1e-05,4,24
18723,0,-3e-05,-0.00011,4e-05,-3e-05,6e-05,4e-05,1e-05,4,24
18724,0,-3e-05,-0.00011,4e-05,-3e-05,6e-05,4e-05,1e-05,4,24
18725,0,-3e-05,-0.00011,4e-05,-3e-05,6e-05,4e-05,1e-05,4,24
18726,0,-3e-05,-0.00011,4e-05,-3e-05,6e-05,4e-05,1e-05,4,24
18727,0,-3e-05,-0.00011,4e-05,-3e-05,6e-05,4e-05,1e-05,4,24
18728,0,-3e-05,-0.00011,4e-05,-3e-05,6e-05,4e-05,1e-05,4,24
18729,1e-05,2e-05,-2e-05,-2e-05,-0.00018,-4e-05,-3e-05,-2e-05,4,24
18730,1e-05,2e-05,-2e-05,-2e-05,-0.00018,-4e-05,-3e-05,-2e-05,4,24
18731,-2e-05,4e-05,5e-05,-0.00018,-0.00012,-7e-05,-4e-05,0,4,24
18732,-2e-05,4e-05,5e-05,-0.00018,-0.00012,-7e-05,-4e-05,0,4,24
18733,-2e-05,4e-05,5e-05,-0.00018,-0.00012,-7e-05,-4e-05,0,4,24
18734,-2e-05,4e-05,5e-05,-0.00018,-0.00012,-7e-05,-4e-05,0,4,24
18735,-2e-05,4e-05,5e-05,-0.00018,-0.00012,-7e-05,-4e-05,0,4,24
18736,-2e-05,4e-05,5e-05,-0.00018,-0.00012,-7e-05,-4e-05,0,4,24
18738,-2e-05,4e-05,5e-05,-0.00018,-0.00012,-7e-05,-4e-05,0,4,24
18739,-2e-05,4e-05,5e-05,-0.00018,-0.00012,-7e-05,-4e-05,0,4,24
18740,-2e-05,4e-05,5e-05,-0.00018,-0.00012,-7e-05,-4e-05,0,4,24
18741,-2e-05,4e-05,5e-05,-0.00018,-0.00012,-7e-05,-4e-05,0,4,24
18742,-2e-05,4e-05,5e-05,-0.00018,-0.00012,-7e-05,-4e-05,0,4,24
18743,-2e-05,4e-05,5e-05,-0.00018,-0.00012,-7e-05,-4e-05,0,4,24
18744,3e-05,4e-05,1e-05,-0.0003,-0.00065,9e-05,6e-05,6e-05,4,24
18745,3e-05,4e-05,1e-05,-0.0003,-0.00065,9e-05,6e-05,6e-05,4,24
18746,3e-05,4e-05,1e-05,-0.0003,-0.00065,9e-05,6e-05,6e-05,4,24
18747,3e-05,4e-05,1e-05,-0.0003,-0.00065,9e-05,6e-05,6e-05,4,24
18748,3e-05,4e-05,1e-05,-0.0003,-0.00065,9e-05,6e-05,6e-05,4,24
18749,3e-05,4e-05,1e-05,-0.0003,-0.00065,9e-05,6e-05,6e-05,4,24
18750,-1e-05,-3e-05,-5e-05,-0.00011,-0.00019,-8e-05,-6e-05,-2e-05,4,24
18751,-1e-05,-3e-05,-5e-05,-0.00011,-0.00019,-8e-05,-6e-05,-2e-05,4,24
18752,-1e-05,-3e-05,-5e-05,-0.00011,-0.00019,-8e-05,-6e-05,-2e-05,4,24
18753,-1e-05,-3e-05,-5e-05,-0.00011,-0.00019,-8e-05,-6e-05,-2e-05,4,24
18754,-1e-05,-3e-05,-5e-05,-0.00011,-0.00019,-8e-05,-6e-05,-2e-05,4,24
18755,-1e-05,-3e-05,-5e-05,-0.00011,-0.00019,-8e-05,-6e-05,-2e-05,4,24
18756,-1e-05,-3e-05,-5e-05,-0.00011,-0.00019,-8e-05,-6e-05,-2e-05,4,24
18757,-1e-05,-3e-05,-5e-05,-0.00011,-0.00019,-8e-05,-6e-05,-2e-05,4,24
18758,-1e-05,-3e-05,-5e-05,-0.00011,-0.00019,-8e-05,-6e-05,-2e-05,4,24
18759,-1e-05,-3e-05,-5e-05,-0.00011,-0.00019,-8e-05,-6e-05,-2e-05,4,24
18760,-1e-05,-3e-05,-5e-05,-0.00011,-0.00019,-8e-05,-6e-05,-2e-05,4,24
18761,-1e-05,-3e-05,-5e-05,-0.00011,-0.00019,-8e-05,-6e-05,-2e-05,4,24
18762,-1e-05,-3e-05,-5e-05,-0.00011,-0.00019,-8e-05,-6e-05,-2e-05,4,24
18763,-1e-05,-3e-05,-5e-05,-0.00011,-0.00019,-8e-05,-6e-05,-2e-05,4,24
18764,-1e-05,-3e-05,-5e-05,-0.00011,-0.00019,-8e-05,-6e-05,-2e-05,4,24
18765,-1e-05,-3e-05,-5e-05,-0.00011,-0.00019,-8e-05,-6e-05,-2e-05,4,24
18766,-1e-05,-3e-05,-5e-05,-0.00011,-0.00019,-8e-05,-6e-05,-2e-05,4,24
18767,0,-3e-05,2e-05,3e-05,0.00063,0,1e-05,0,4,24
18768,0,-3e-05,2e-05,3e-05,0.00063,0,1e-05,0,4,24
18769,-2e-05,-5e-05,-6e-05,-6e-05,-3e-05,-5e-05,-4e-05,-2e-05,4,24
18770,-2e-05,-5e-05,-6e-05,-6e-05,-3e-05,-5e-05,-4e-05,-2e-05,4,24
18771,-2e-05,-5e-05,-6e-05,-6e-05,-3e-05,-5e-05,-4e-05,-2e-05,4,24
18772,-2e-05,-5e-05,-6e-05,-6e-05,-3e-05,-5e-05,-4e-05,-2e-05,4,24
18773,-2e-05,-5e-05,-6e-05,-6e-05,-3e-05,-5e-05,-4e-05,-2e-05,4,24
18774,-2e-05,-5e-05,-6e-05,-6e-05,-3e-05,-5e-05,-4e-05,-2e-05,4,24
18775,-2e-05,-5e-05,-6e-05,-6e-05,-3e-05,-5e-05,-4e-05,-2e-05,4,24
18776,-2e-05,-5e-05,-6e-05,-6e-05,-3e-05,-5e-05,-4e-05,-2e-05,4,24
18777,-2e-05,-5e-05,-6e-05,-6e-05,-3e-05,-5e-05,-4e-05,-2e-05,4,24
18778,-2e-05,-5e-05,-6e-05,-6e-05,-3e-05,-5e-05,-4e-05,-2e-05,4,24
18779,-2e-05,-5e-05,-6e-05,-6e-05,-3e-05,-5e-05,-4e-05,-2e-05,4,24
18780,-2e-05,-5e-05,-6e-05,-6e-05,-3e-05,-5e-05,-4e-05,-2e-05,4,24
18781,-2e-05,-5e-05,-6e-05,-6e-05,-3e-05,-5e-05,-4e-05,-2e-05,4,24
18782,-2e-05,-5e-05,-6e-05,-6e-05,-3e-05,-5e-05,-4e-05,-2e-05,4,24
18783,-2e-05,-5e-05,-6e-05,-6e-05,-3e-05,-5e-05,-4e-05,-2e-05,4,24
18784,-2e-05,-5e-05,-6e-05,-6e-05,-3e-05,-5e-05,-4e-05,-2e-05,4,24
18785,-2e-05,-5e-05,-6e-05,-6e-05,-3e-05,-5e-05,-4e-05,-2e-05,4,24
18786,-2e-05,-5e-05,-6e-05,-6e-05,-3e-05,-5e-05,-4e-05,-2e-05,4,24
18788,-2e-05,-5e-05,-6e-05,-6e-05,-3e-05,-5e-05,-4e-05,-2e-05,4,24
18789,-4e-05,-5e-05,-4e-05,0.00015,-0.00016,-9e-05,-5e-05,-2e-05,4,24
18790,-4e-05,-5e-05,-4e-05,0.00015,-0.00016,-9e-05,-5e-05,-2e-05,4,24
18791,5e-05,1e-05,4e-05,0.00017,0.00127,8e-05,4e-05,6e-05,4,24
18792,5e-05,1e-05,4e-05,0.00017,0.00127,8e-05,4e-05,6e-05,4,24
18793,5e-05,1e-05,4e-05,0.00017,0.00127,8e-05,4e-05,6e-05,4,24
18794,5e-05,1e-05,4e-05,0.00017,0.00127,8e-05,4e-05,6e-05,4,24
18795,5e-05,1e-05,4e-05,0.00017,0.00127,8e-05,4e-05,6e-05,4,24
18796,5e-05,1e-05,4e-05,0.00017,0.00127,8e-05,4e-05,6e-05,4,24
18797,5e-05,1e-05,4e-05,0.00017,0.00127,8e-05,4e-05,6e-05,4,24
18798,5e-05,1e-05,4e-05,0.00017,0.00127,8e-05,4e-05,6e-05,4,24
18799,5e-05,1e-05,4e-05,0.00017,0.00127,8e-05,4e-05,6e-05,4,24
18800,5e-05,1e-05,4e-05,0.00017,0.00127,8e-05,4e-05,6e-05,4,24
18801,5e-05,1e-05,4e-05,0.00017,0.00127,8e-05,4e-05,6e-05,4,24
18802,5e-05,1e-05,4e-05,0.00017,0.00127,8e-05,4e-05,6e-05,4,24
18803,5e-05,1e-05,4e-05,0.00017,0.00127,8e-05,4e-05,6e-05,4,24
18804,-2e-05,1e-05,0,-0.00031,-0.00016,1e-05,-1e-05,-2e-05,4,24
18805,-2e-05,1e-05,0,-0.00031,-0.00016,1e-05,-1e-05,-2e-05,4,24
18806,-2e-05,1e-05,0,-0.00031,-0.00016,1e-05,-1e-05,-2e-05,4,24
18807,-2e-05,1e-05,0,-0.00031,-0.00016,1e-05,-1e-05,-2e-05,4,24
18808,-2e-05,1e-05,0,-0.00031,-0.00016,1e-05,-1e-05,-2e-05,4,24
18809,-2e-05,1e-05,0,-0.00031,-0.00016,1e-05,-1e-05,-2e-05,4,24
18810,-5e-05,-2e-05,0,-9e-05,-0.00041,-0.00012,-3e-05,-2e-05,4,24
18811,-5e-05,-2e-05,0,-9e-05,-0.00041,-0.00012,-3e-05,-2e-05,4,24
18812,-5e-05,-2e-05,0,-9e-05,-0.00041,-0.00012,-3e-05,-2e-05,4,24
18813,-5e-05,-2e-05,0,-9e-05,-0.00041,-0.00012,-3e-05,-2e-05,4,24
18814,-5e-05,-2e-05,0,-9e-05,-0.00041,-0.00012,-3e-05,-2e-05,4,24
18815,-5e-05,-2e-05,0,-9e-05,-0.00041,-0.00012,-3e-05,-2e-05,4,24
18816,-5e-05,-2e-05,0,-9e-05,-0.00041,-0.00012,-3e-05,-2e-05,4,24
18817,-5e-05,-2e-05,0,-9e-05,-0.00041,-0.00012,-3e-05,-2e-05,4,24
18818,-5e-05,-2e-05,0,-9e-05,-0.00041,-0.00012,-3e-05,-2e-05,4,24
18819,-5e-05,-2e-05,0,-9e-05,-0.00041,-0.00012,-3e-05,-2e-05,4,24
18820,-5e-05,-2e-05,0,-9e-05,-0.00041,-0.00012,-3e-05,-2e-05,4,24
18821,-5e-05,-2e-05,0,-9e-05,-0.00041,-0.00012,-3e-05,-2e-05,4,24
18822,-5e-05,-2e-05,0,-9e-05,-0.00041,-0.00012,-3e-05,-2e-05,4,24
18823,-5e-05,-2e-05,0,-9e-05,-0.00041,-0.00012,-3e-05,-2e-05,4,24
18824,-5e-05,-2e-05,0,-9e-05,-0.00041,-0.00012,-3e-05,-2e-05,4,24
18825,-5e-05,-2e-05,0,-9e-05,-0.00041,-0.00012,-3e-05,-2e-05,4,24
18826,-5e-05,-2e-05,0,-9e-05,-0.00041,-0.00012,-3e-05,-2e-05,4,24
18827,-2e-05,-5e-05,-3e-05,0.00012,0.00076,5e-05,-4e-05,-4e-05,4,24
18828,-4e-05,-5e-05,-8e-05,0.00015,-0.0003,-1e-05,-3e-05,-4e-05,4,24
18829,-4e-05,-5e-05,-8e-05,0.00015,-0.0003,-1e-05,-3e-05,-4e-05,4,24
18830,-4e-05,-5e-05,-8e-05,0.00015,-0.0003,-1e-05,-3e-05,-4e-05,4,24
18831,-4e-05,-5e-05,-8e-05,0.00015,-0.0003,-1e-05,-3e-05,-4e-05,4,24
18832,-4e-05,-5e-05,-8e-05,0.00015,-0.0003,-1e-05,-3e-05,-4e-05,4,24
18833,-4e-05,-5e-05,-8e-05,0.00015,-0.0003,-1e-05,-3e-05,-4e-05,4,24
18834,-4e-05,-5e-05,-8e-05,0.00015,-0.0003,-1e-05,-3e-05,-4e-05,4,24
18835,-4e-05,-5e-05,-8e-05,0.00015,-0.0003,-1e-05,-3e-05,-4e-05,4,24
18836,-4e-05,-5e-05,-8e-05,0.00015,-0.0003,-1e-05,-3e-05,-4e-05,4,24
18838,-4e-05,-5e-05,-8e-05,0.00015,-0.0003,-1e-05,-3e-05,-4e-05,4,24
18839,-4e-05,-5e-05,-8e-05,0.00015,-0.0003,-1e-05,-3e-05,-4e-05,4,24
18840,-4e-05,-5e-05,-8e-05,0.00015,-0.0003,-1e-05,-3e-05,-4e-05,4,24
18841,-4e-05,-5e-05,-8e-05,0.00015,-0.0003,-1e-05,-3e-05,-4e-05,4,24
18842,-4e-05,-5e-05,-8e-05,0.00015,-0.0003,-1e-05,-3e-05,-4e-05,4,24
18843,-4e-05,-5e-05,-8e-05,0.00015,-0.0003,-1e-05,-3e-05,-4e-05,4,24
18844,-4e-05,-5e-05,-8e-05,0.00015,-0.0003,-1e-05,-3e-05,-4e-05,4,24
18845,-4e-05,-5e-05,-8e-05,0.00015,-0.0003,-1e-05,-3e-05,-4e-05,4,24
18846,-4e-05,-5e-05,-8e-05,0.00015,-0.0003,-1e-05,-3e-05,-4e-05,4,24
18847,-4e-05,-5e-05,-8e-05,0.00015,-0.0003,-1e-05,-3e-05,-4e-05,4,24
18848,-4e-05,-5e-05,-8e-05,0.00015,-0.0003,-1e-05,-3e-05,-4e-05,4,24
18849,1e-05,3e-05,0.00012,0.00089,-0.00064,-3e-05,2e-05,2e-05,4,24
18850,1e-05,3e-05,0.00012,0.00089,-0.00064,-3e-05,2e-05,2e-05,4,24
18851,-3e-05,-6e-05,-9e-05,-0.00027,-0.0001,-7e-05,-4e-05,-4e-05,4,24
18852,-3e-05,-6e-05,-9e-05,-0.00027,-0.0001,-7e-05,-4e-05,-4e-05,4,24
18853,-3e-05,-6e-05,-9e-05,-0.00027,-0.0001,-7e-05,-4e-05,-4e-05,4,24
18854,-3e-05,-6e-05,-9e-05,-0.00027,-0.0001,-7e-05,-4e-05,-4e-05,4,24
18855,-3e-05,-6e-05,-9e-05,-0.00027,-0.0001,-7e-05,-4e-05,-4e-05,4,24
18856,-3e-05,-6e-05,-9e-05,-0.00027,-0.0001,-7e-05,-4e-05,-4e-05,4,24
18857,-3e-05,-6e-05,-9e-05,-0.00027,-0.0001,-7e-05,-4e-05,-4e-05,4,24
18858,-3e-05,-6e-05,-9e-05,-0.00027,-0.0001,-7e-05,-4e-05,-4e-05,4,24
18859,-3e-05,-6e-05,-9e-05,-0.00027,-0.0001,-7e-05,-4e-05,-4e-05,4,24
18860,-3e-05,-6e-05,-9e-05,-0.00027,-0.0001,-7e-05,-4e-05,-4e-05,4,24
18861,-3e-05,-6e-05,-9e-05,-0.00027,-0.0001,-7e-05,-4e-05,-4e-05,4,24
18862,-3e-05,-6e-05,-9e-05,-0.00027,-0.0001,-7e-05,-4e-05,-4e-05,4,24
18863,-3e-05,-6e-05,-9e-05,-0.00027,-0.0001,-7e-05,-4e-05,-4e-05,4,24
18864,-1e-05,1e-05,-2e-05,-0.00026,-0.00038,-3e-05,0,-1e-05,4,24
18865,-1e-05,1e-05,-2e-05,-0.00026,-0.00038,-3e-05,0,-1e-05,4,24
18866,-1e-05,1e-05,-2e-05,-0.00026,-0.00038,-3e-05,0,-1e-05,4,24
18867,-1e-05,1e-05,-2e-05,-0.00026,-0.00038,-3e-05,0,-1e-05,4,24
18868,-1e-05,1e-05,-2e-05,-0.00026,-0.00038,-3e-05,0,-1e-05,4,24
18869,-1e-05,1e-05,-2e-05,-0.00026,-0.00038,-3e-05,0,-1e-05,4,24
18870,2e-05,5e-05,6e-05,0.00014,-0.00017,1e-05,4e-05,1e-05,4,24
18871,2e-05,5e-05,6e-05,0.00014,-0.00017,1e-05,4e-05,1e-05,4,24
18872,2e-05,5e-05,6e-05,0.00014,-0.00017,1e-05,4e-05,1e-05,4,24
18873,2e-05,5e-05,6e-05,0.00014,-0.00017,1e-05,4e-05,1e-05,4,24
18874,2e-05,5e-05,6e-05,0.00014,-0.00017,1e-05,4e-05,1e-05,4,24
18875,2e-05,5e-05,6e-05,0.00014,-0.00017,1e-05,4e-05,1e-05,4,24
18876,2e-05,5e-05,6e-05,0.00014,-0.00017,1e-05,4e-05,1e-05,4,24
18877,2e-05,5e-05,6e-05,0.00014,-0.00017,1e-05,4e-05,1e-05,4,24
18878,2e-05,5e-05,6e-05,0.00014,-0.00017,1e-05,4e-05,1e-05,4,24
18879,2e-05,5e-05,6e-05,0.00014,-0.00017,1e-05,4e-05,1e-05,4,24
18880,2e-05,5e-05,6e-05,0.00014,-0.00017,1e-05,4e-05,1e-05,4,24
18881,2e-05,5e-05,6e-05,0.00014,-0.00017,1e-05,4e-05,1e-05,4,24
18882,2e-05,5e-05,6e-05,0.00014,-0.00017,1e-05,4e-05,1e-05,4,24
18883,2e-05,5e-05,6e-05,0.00014,-0.00017,1e-05,4e-05,1e-05,4,24
18884,2e-05,5e-05,6e-05,0.00014,-0.00017,1e-05,4e-05,1e-05,4,24
18885,2e-05,5e-05,6e-05,0.00014,-0.00017,1e-05,4e-05,1e-05,4,24
18886,2e-05,5e-05,6e-05,0.00014,-0.00017,1e-05,4e-05,1e-05,4,24
18888,-3e-05,0,0,-9e-05,0.00016,5e-05,0,-3e-05,4,24
18889,-3e-05,0,0,-9e-05,0.00016,5e-05,0,-3e-05,4,24
18890,-3e-05,0,0,-9e-05,0.00016,5e-05,0,-3e-05,4,24
18891,-3e-05,0,0,-9e-05,0.00016,5e-05,0,-3e-05,4,24
18892,-3e-05,0,0,-9e-05,0.00016,5e-05,0,-3e-05,4,24
18894,-3e-05,0,0,-9e-05,0.00016,5e-05,0,-3e-05,4,24
18895,-3e-05,0,0,-9e-05,0.00016,5e-05,0,-3e-05,4,24
18896,-3e-05,0,0,-9e-05,0.00016,5e-05,0,-3e-05,4,24
18897,-3e-05,0,0,-9e-05,0.00016,5e-05,0,-3e-05,4,24
18898,-3e-05,0,0,-9e-05,0.00016,5e-05,0,-3e-05,4,24
18899,-3e-05,0,0,-9e-05,0.00016,5e-05,0,-3e-05,4,24
18900,-3e-05,0,0,-9e-05,0.00016,5e-05,0,-3e-05,4,24
18901,-3e-05,0,0,-9e-05,0.00016,5e-05,0,-3e-05,4,24
18902,-3e-05,0,0,-9e-05,0.00016,5e-05,0,-3e-05,4,24
18903,-3e-05,0,0,-9e-05,0.00016,5e-05,0,-3e-05,4,24
18904,-3e-05,0,0,-9e-05,0.00016,5e-05,0,-3e-05,4,24
18905,-3e-05,0,0,-9e-05,0.00016,5e-05,0,-3e-05,4,24
18906,-3e-05,0,0,-9e-05,0.00016,5e-05,0,-3e-05,4,24
18907,-3e-05,0,0,-9e-05,0.00016,5e-05,0,-3e-05,4,24
18908,-3e-05,0,0,-9e-05,0.00016,5e-05,0,-3e-05,4,24
18909,-2e-05,-4e-05,-7e-05,-0.00014,0.00037,-5e-05,0,-2e-05,4,24
18910,-2e-05,-4e-05,-7e-05,-0.00014,0.00037,-5e-05,0,-2e-05,4,24
18911,-3e-05,-8e-05,-0.00012,-0.00019,-0.00042,-5e-05,-5e-05,-3e-05,4,24
18912,-3e-05,-8e-05,-0.00012,-0.00019,-0.00042,-5e-05,-5e-05,-3e-05,4,24
18913,-3e-05,-8e-05,-0.00012,-0.00019,-0.00042,-5e-05,-5e-05,-3e-05,4,24
18914,-3e-05,-8e-05,-0.00012,-0.00019,-0.00042,-5e-05,-5e-05,-3e-05,4,24
18915,-3e-05,-8e-05,-0.00012,-0.00019,-0.00042,-5e-05,-5e-05,-3e-05,4,24
18916,-3e-05,-8e-05,-0.00012,-0.00019,-0.00042,-5e-05,-5e-05,-3e-05,4,24
18917,-3e-05,-8e-05,-0.00012,-0.00019,-0.00042,-5e-05,-5e-05,-3e-05,4,24
18918,-3e-05,-8e-05,-0.00012,-0.00019,-0.00042,-5e-05,-5e-05,-3e-05,4,24
18919,-3e-05,-8e-05,-0.00012,-0.00019,-0.00042,-5e-05,-5e-05,-3e-05,4,24
18920,-3e-05,-8e-05,-0.00012,-0.00019,-0.00042,-5e-05,-5e-05,-3e-05,4,24
18921,-3e-05,-8e-05,-0.00012,-0.00019,-0.00042,-5e-05,-5e-05,-3e-05,4,24
18922,-3e-05,-8e-05,-0.00012,-0.00019,-0.00042,-5e-05,-5e-05,-3e-05,4,24
18923,-2e-05,-3e-05,-5e-05,-0.00031,-7e-05,2e-05,-4e-05,-3e-05,4,24
18924,-2e-05,-3e-05,-5e-05,-0.00031,-7e-05,2e-05,-4e-05,-3e-05,4,24
18925,-2e-05,-3e-05,-5e-05,-0.00031,-7e-05,2e-05,-4e-05,-3e-05,4,24
18926,-2e-05,-3e-05,-5e-05,-0.00031,-7e-05,2e-05,-4e-05,-3e-05,4,24
18927,-2e-05,-3e-05,-5e-05,-0.00031,-7e-05,2e-05,-4e-05,-3e-05,4,24
18928,-2e-05,-3e-05,-5e-05,-0.00031,-7e-05,2e-05,-4e-05,-3e-05,4,24
18929,-2e-05,-3e-05,-5e-05,-0.00031,-7e-05,2e-05,-4e-05,-3e-05,4,24
18930,2e-05,3e-05,8e-05,0.00014,0.00065,5e-05,2e-05,1e-05,4,24
18931,2e-05,3e-05,8e-05,0.00014,0.00065,5e-05,2e-05,1e-05,4,24
18932,2e-05,3e-05,8e-05,0.00014,0.00065,5e-05,2e-05,1e-05,4,24
18933,2e-05,3e-05,8e-05,0.00014,0.00065,5e-05,2e-05,1e-05,4,24
18934,2e-05,3e-05,8e-05,0.00014,0.00065,5e-05,2e-05,1e-05,4,24
18935,2e-05,3e-05,8e-05,0.00014,0.00065,5e-05,2e-05,1e-05,4,24
18936,2e-05,3e-05,8e-05,0.00014,0.00065,5e-05,2e-05,1e-05,4,24
18938,2e-05,3e-05,8e-05,0.00014,0.00065,5e-05,2e-05,1e-05,4,24
18939,2e-05,3e-05,8e-05,0.00014,0.00065,5e-05,2e-05,1e-05,4,24
18940,2e-05,3e-05,8e-05,0.00014,0.00065,5e-05,2e-05,1e-05,4,24
18941,2e-05,3e-05,8e-05,0.00014,0.00065,5e-05,2e-05,1e-05,4,24
18942,2e-05,3e-05,8e-05,0.00014,0.00065,5e-05,2e-05,1e-05,4,24
18943,2e-05,3e-05,8e-05,0.00014,0.00065,5e-05,2e-05,1e-05,4,24
18944,2e-05,3e-05,8e-05,0.00014,0.00065,5e-05,2e-05,1e-05,4,24
18945,2e-05,3e-05,8e-05,0.00014,0.00065,5e-05,2e-05,1e-05,4,24
18946,2e-05,3e-05,8e-05,0.00014,0.00065,5e-05,2e-05,1e-05,4,24
18947,0,-1e-05,-9e-05,-0.00016,-0.00022,-7e-05,-4e-05,-4e-05,4,24
18948,-2e-05,-3e-05,0,-5e-05,2e-05,3e-05,0,-4e-05,4,24
18949,-2e-05,-3e-05,0,-5e-05,2e-05,3e-05,0,-4e-05,4,24
18950,-2e-05,-3e-05,0,-5e-05,2e-05,3e-05,0,-4e-05,4,24
18951,-2e-05,-3e-05,0,-5e-05,2e-05,3e-05,0,-4e-05,4,24
18952,-2e-05,-3e-05,0,-5e-05,2e-05,3e-05,0,-4e-05,4,24
18953,-2e-05,-3e-05,0,-5e-05,2e-05,3e-05,0,-4e-05,4,24
18954,-2e-05,-3e-05,0,-5e-05,2e-05,3e-05,0,-4e-05,4,24
18955,-2e-05,-3e-05,0,-5e-05,2e-05,3e-05,0,-4e-05,4,24
18956,-2e-05,-3e-05,0,-5e-05,2e-05,3e-05,0,-4e-05,4,24
18957,-2e-05,-3e-05,0,-5e-05,2e-05,3e-05,0,-4e-05,4,24
18958,-2e-05,-3e-05,0,-5e-05,2e-05,3e-05,0,-4e-05,4,24
18959,-2e-05,-3e-05,0,-5e-05,2e-05,3e-05,0,-4e-05,4,24
18960,-2e-05,-3e-05,0,-5e-05,2e-05,3e-05,0,-4e-05,4,24
18961,-2e-05,-3e-05,0,-5e-05,2e-05,3e-05,0,-4e-05,4,24
18962,-2e-05,-3e-05,0,-5e-05,2e-05,3e-05,0,-4e-05,4,24
18963,-2e-05,-3e-05,0,-5e-05,2e-05,3e-05,0,-4e-05,4,24
18964,-2e-05,-3e-05,0,-5e-05,2e-05,3e-05,0,-4e-05,4,24
18965,-2e-05,-3e-05,0,-5e-05,2e-05,3e-05,0,-4e-05,4,24
18966,-2e-05,-3e-05,0,-5e-05,2e-05,3e-05,0,-4e-05,4,24
18967,-2e-05,-3e-05,0,-5e-05,2e-05,3e-05,0,-4e-05,4,24
18968,-2e-05,-3e-05,0,-5e-05,2e-05,3e-05,0,-4e-05,4,24
18969,-2e-05,-3e-05,0,-5e-05,2e-05,3e-05,0,-4e-05,4,24
18970,0,1e-05,1e-05,0.00012,-3e-05,9e-05,2e-05,2e-05,4,24
18971,1e-05,1e-05,-2e-05,-0.00019,-0.00054,2e-05,1e-05,1e-05,4,24
18972,1e-05,1e-05,-2e-05,-0.00019,-0.00054,2e-05,1e-05,1e-05,4,24
18973,1e-05,1e-05,-2e-05,-0.00019,-0.00054,2e-05,1e-05,1e-05,4,24
18974,1e-05,1e-05,-2e-05,-0.00019,-0.00054,2e-05,1e-05,1e-05,4,24
18975,1e-05,1e-05,-2e-05,-0.00019,-0.00054,2e-05,1e-05,1e-05,4,24
18976,1e-05,1e-05,-2e-05,-0.00019,-0.00054,2e-05,1e-05,1e-05,4,24
18977,1e-05,1e-05,-2e-05,-0.00019,-0.00054,2e-05,1e-05,1e-05,4,24
18978,1e-05,1e-05,-2e-05,-0.00019,-0.00054,2e-05,1e-05,1e-05,4,24
18979,1e-05,1e-05,-2e-05,-0.00019,-0.00054,2e-05,1e-05,1e-05,4,24
18980,1e-05,1e-05,-2e-05,-0.00019,-0.00054,2e-05,1e-05,1e-05,4,24
18981,1e-05,1e-05,-2e-05,-0.00019,-0.00054,2e-05,1e-05,1e-05,4,24
18982,1e-05,1e-05,-2e-05,-0.00019,-0.00054,2e-05,1e-05,1e-05,4,24
18983,-2e-05,-4e-05,-8e-05,-0.00029,0.00012,5e-05,-2e-05,-2e-05,4,24
18984,-2e-05,-4e-05,-8e-05,-0.00029,0.00012,5e-05,-2e-05,-2e-05,4,24
18985,-2e-05,-4e-05,-8e-05,-0.00029,0.00012,5e-05,-2e-05,-2e-05,4,24
18986,-2e-05,-4e-05,-8e-05,-0.00029,0.00012,5e-05,-2e-05,-2e-05,4,24
18988,-2e-05,-4e-05,-8e-05,-0.00029,0.00012,5e-05,-2e-05,-2e-05,4,24
18989,-2e-05,-4e-05,-8e-05,-0.00029,0.00012,5e-05,-2e-05,-2e-05,4,24
18990,-3e-05,-4e-05,-3e-05,4e-05,-1e-05,-3e-05,-4e-05,-3e-05,4,24
18991,-3e-05,-4e-05,-3e-05,4e-05,-1e-05,-3e-05,-4e-05,-3e-05,4,24
18992,-3e-05,-4e-05,-3e-05,4e-05,-1e-05,-3e-05,-4e-05,-3e-05,4,24
18993,-3e-05,-4e-05,-3e-05,4e-05,-1e-05,-3e-05,-4e-05,-3e-05,4,24
18994,-3e-05,-4e-05,-3e-05,4e-05,-1e-05,-3e-05,-4e-05,-3e-05,4,24
18995,-3e-05,-4e-05,-3e-05,4e-05,-1e-05,-3e-05,-4e-05,-3e-05,4,24
18996,-3e-05,-4e-05,-3e-05,4e-05,-1e-05,-3e-05,-4e-05,-3e-05,4,24
18997,-3e-05,-4e-05,-3e-05,4e-05,-1e-05,-3e-05,-4e-05,-3e-05,4,24
18998,-3e-05,-4e-05,-3e-05,4e-05,-1e-05,-3e-05,-4e-05,-3e-05,4,24
18999,-3e-05,-4e-05,-3e-05,4e-05,-1e-05,-3e-05,-4e-05,-3e-05,4,24
19000,-3e-05,-4e-05,-3e-05,4e-05,-1e-05,-3e-05,-4e-05,-3e-05,4,24
19001,-3e-05,-4e-05,-3e-05,4e-05,-1e-05,-3e-05,-4e-05,-3e-05,4,24
19002,-3e-05,-4e-05,-3e-05,4e-05,-1e-05,-3e-05,-4e-05,-3e-05,4,24
19003,-3e-05,-4e-05,-3e-05,4e-05,-1e-05,-3e-05,-4e-05,-3e-05,4,24
19004,-3e-05,-4e-05,-3e-05,4e-05,-1e-05,-3e-05,-4e-05,-3e-05,4,24
19005,-3e-05,-4e-05,-3e-05,4e-05,-1e-05,-3e-05,-4e-05,-3e-05,4,24
19006,-3e-05,-4e-05,-3e-05,4e-05,-1e-05,-3e-05,-4e-05,-3e-05,4,24
19007,-1e-05,-3e-05,-7e-05,0.00018,-3e-05,-6e-05,-3e-05,-1e-05,4,24
19008,0,-2e-05,1e-05,-0.00018,-0.00046,-8e-05,-3e-05,-3e-05,4,24
19009,0,-2e-05,1e-05,-0.00018,-0.00046,-8e-05,-3e-05,-3e-05,4,24
19010,0,-2e-05,1e-05,-0.00018,-0.00046,-8e-05,-3e-05,-3e-05,4,24
19011,0,-2e-05,1e-05,-0.00018,-0.00046,-8e-05,-3e-05,-3e-05,4,24
19012,0,-2e-05,1e-05,-0.00018,-0.00046,-8e-05,-3e-05,-3e-05,4,24
19013,0,-2e-05,1e-05,-0.00018,-0.00046,-8e-05,-3e-05,-3e-05,4,24
19014,0,-2e-05,1e-05,-0.00018,-0.00046,-8e-05,-3e-05,-3e-05,4,24
19015,0,-2e-05,1e-05,-0.00018,-0.00046,-8e-05,-3e-05,-3e-05,4,24
19016,0,-2e-05,1e-05,-0.00018,-0.00046,-8e-05,-3e-05,-3e-05,4,24
19017,0,-2e-05,1e-05,-0.00018,-0.00046,-8e-05,-3e-05,-3e-05,4,24
19018,0,-2e-05,1e-05,-0.00018,-0.00046,-8e-05,-3e-05,-3e-05,4,24
19019,0,-2e-05,1e-05,-0.00018,-0.00046,-8e-05,-3e-05,-3e-05,4,24
19020,0,-2e-05,1e-05,-0.00018,-0.00046,-8e-05,-3e-05,-3e-05,4,24
19021,0,-2e-05,1e-05,-0.00018,-0.00046,-8e-05,-3e-05,-3e-05,4,24
19022,0,-2e-05,1e-05,-0.00018,-0.00046,-8e-05,-3e-05,-3e-05,4,24
19023,0,-2e-05,1e-05,-0.00018,-0.00046,-8e-05,-3e-05,-3e-05,4,24
19024,0,-2e-05,1e-05,-0.00018,-0.00046,-8e-05,-3e-05,-3e-05,4,24
19025,0,-2e-05,1e-05,-0.00018,-0.00046,-8e-05,-3e-05,-3e-05,4,24
19026,0,-2e-05,1e-05,-0.00018,-0.00046,-8e-05,-3e-05,-3e-05,4,24
19027,0,-2e-05,1e-05,-0.00018,-0.00046,-8e-05,-3e-05,-3e-05,4,24
19028,0,-2e-05,1e-05,-0.00018,-0.00046,-8e-05,-3e-05,-3e-05,4,24
19029,4e-05,5e-05,0.00013,0.0002,0.00059,7e-05,6e-05,4e-05,4,24
19030,4e-05,5e-05,0.00013,0.0002,0.00059,7e-05,6e-05,4e-05,4,24
19031,2e-05,5e-05,0.00013,0.00067,0.00024,6e-05,5e-05,3e-05,4,24
19032,2e-05,5e-05,0.00013,0.00067,0.00024,6e-05,5e-05,3e-05,4,24
19033,2e-05,5e-05,0.00013,0.00067,0.00024,6e-05,5e-05,3e-05,4,24
19034,2e-05,5e-05,0.00013,0.00067,0.00024,6e-05,5e-05,3e-05,4,24
19035,2e-05,5e-05,0.00013,0.00067,0.00024,6e-05,5e-05,3e-05,4,24
19036,2e-05,5e-05,0.00013,0.00067,0.00024,6e-05,5e-05,3e-05,4,24
19039,2e-05,5e-05,0.00013,0.00067,0.00024,6e-05,5e-05,3e-05,4,24
19040,2e-05,5e-05,0.00013,0.00067,0.00024,6e-05,5e-05,3e-05,4,24
19041,2e-05,5e-05,0.00013,0.00067,0.00024,6e-05,5e-05,3e-05,4,24
19042,2e-05,5e-05,0.00013,0.00067,0.00024,6e-05,5e-05,3e-05,4,24
19043,0,2e-05,0,-5e-05,0.00025,4e-05,1e-05,0,4,24
19044,0,2e-05,0,-5e-05,0.00025,4e-05,1e-05,0,4,24
19045,0,2e-05,0,-5e-05,0.00025,4e-05,1e-05,0,4,24
19046,0,2e-05,0,-5e-05,0.00025,4e-05,1e-05,0,4,24
19047,0,2e-05,0,-5e-05,0.00025,4e-05,1e-05,0,4,24
19048,0,2e-05,0,-5e-05,0.00025,4e-05,1e-05,0,4,24
19049,0,2e-05,0,-5e-05,0.00025,4e-05,1e-05,0,4,24
19050,0,2e-05,0,-5e-05,0.00025,4e-05,1e-05,0,4,24
19051,0,2e-05,0,-5e-05,0.00025,4e-05,1e-05,0,4,24
19052,1e-05,-1e-05,0,7e-05,1e-05,-4e-05,2e-05,3e-05,4,24
19053,-5e-05,-5e-05,-1e-05,-8e-05,0.00016,6e-05,-1e-05,-1e-05,4,24
19054,-5e-05,-5e-05,-1e-05,-8e-05,0.00016,6e-05,-1e-05,-1e-05,4,24
19055,-5e-05,-5e-05,-1e-05,-8e-05,0.00016,6e-05,-1e-05,-1e-05,4,24
19056,-5e-05,-5e-05,-1e-05,-8e-05,0.00016,6e-05,-1e-05,-1e-05,4,24
19057,-5e-05,-5e-05,-1e-05,-8e-05,0.00016,6e-05,-1e-05,-1e-05,4,24
19058,-5e-05,-5e-05,-1e-05,-8e-05,0.00016,6e-05,-1e-05,-1e-05,4,24
19059,-5e-05,-5e-05,-1e-05,-8e-05,0.00016,6e-05,-1e-05,-1e-05,4,24
19060,-5e-05,-5e-05,-1e-05,-8e-05,0.00016,6e-05,-1e-05,-1e-05,4,24
19061,-5e-05,-5e-05,-1e-05,-8e-05,0.00016,6e-05,-1e-05,-1e-05,4,24
19062,-5e-05,-5e-05,-1e-05,-8e-05,0.00016,6e-05,-1e-05,-1e-05,4,24
19063,-5e-05,-5e-05,-1e-05,-8e-05,0.00016,6e-05,-1e-05,-1e-05,4,24
19064,-5e-05,-5e-05,-1e-05,-8e-05,0.00016,6e-05,-1e-05,-1e-05,4,24
19065,-5e-05,-5e-05,-1e-05,-8e-05,0.00016,6e-05,-1e-05,-1e-05,4,24
19066,-5e-05,-5e-05,-1e-05,-8e-05,0.00016,6e-05,-1e-05,-1e-05,4,24
19067,2e-05,0,5e-05,0.00018,-0.00019,-2e-05,0,-1e-05,4,24
19068,1e-05,1e-05,-2e-05,-0.00019,-0.00046,-4e-05,0,2e-05,4,24
19069,1e-05,1e-05,-2e-05,-0.00019,-0.00046,-4e-05,0,2e-05,4,24
19070,1e-05,1e-05,-2e-05,-0.00019,-0.00046,-4e-05,0,2e-05,4,24
19071,1e-05,1e-05,-2e-05,-0.00019,-0.00046,-4e-05,0,2e-05,4,24
19072,1e-05,1e-05,-2e-05,-0.00019,-0.00046,-4e-05,0,2e-05,4,24
19073,1e-05,1e-05,-2e-05,-0.00019,-0.00046,-4e-05,0,2e-05,4,24
19074,1e-05,1e-05,-2e-05,-0.00019,-0.00046,-4e-05,0,2e-05,4,24
19075,1e-05,1e-05,-2e-05,-0.00019,-0.00046,-4e-05,0,2e-05,4,24
19076,1e-05,1e-05,-2e-05,-0.00019,-0.00046,-4e-05,0,2e-05,4,24
19077,1e-05,1e-05,-2e-05,-0.00019,-0.00046,-4e-05,0,2e-05,4,24
19078,1e-05,1e-05,-2e-05,-0.00019,-0.00046,-4e-05,0,2e-05,4,24
19079,1e-05,1e-05,-2e-05,-0.00019,-0.00046,-4e-05,0,2e-05,4,24
19080,1e-05,1e-05,-2e-05,-0.00019,-0.00046,-4e-05,0,2e-05,4,24
19081,1e-05,1e-05,-2e-05,-0.00019,-0.00046,-4e-05,0,2e-05,4,24
19082,1e-05,1e-05,-2e-05,-0.00019,-0.00046,-4e-05,0,2e-05,4,24
19083,1e-05,1e-05,-2e-05,-0.00019,-0.00046,-4e-05,0,2e-05,4,24
19084,1e-05,1e-05,-2e-05,-0.00019,-0.00046,-4e-05,0,2e-05,4,24
19085,1e-05,1e-05,-2e-05,-0.00019,-0.00046,-4e-05,0,2e-05,4,24
19086,1e-05,1e-05,-2e-05,-0.00019,-0.00046,-4e-05,0,2e-05,4,24
19088,1e-05,1e-05,-2e-05,-0.00019,-0.00046,-4e-05,0,2e-05,4,24
19089,-3e-05,-4e-05,-8e-05,-0.00036,-0.00032,-4e-05,-1e-05,-2e-05,4,24
19090,-3e-05,-4e-05,-8e-05,-0.00036,-0.00032,-4e-05,-1e-05,-2e-05,4,24
19091,1e-05,0,-2e-05,0.00021,3e-05,-2e-05,-3e-05,-1e-05,4,24
19092,1e-05,0,-2e-05,0.00021,3e-05,-2e-05,-3e-05,-1e-05,4,24
19093,1e-05,0,-2e-05,0.00021,3e-05,-2e-05,-3e-05,-1e-05,4,24
19094,1e-05,0,-2e-05,0.00021,3e-05,-2e-05,-3e-05,-1e-05,4,24
19095,1e-05,0,-2e-05,0.00021,3e-05,-2e-05,-3e-05,-1e-05,4,24
19096,1e-05,0,-2e-05,0.00021,3e-05,-2e-05,-3e-05,-1e-05,4,24
19097,1e-05,0,-2e-05,0.00021,3e-05,-2e-05,-3e-05,-1e-05,4,24
19098,1e-05,0,-2e-05,0.00021,3e-05,-2e-05,-3e-05,-1e-05,4,24
19099,1e-05,0,-2e-05,0.00021,3e-05,-2e-05,-3e-05,-1e-05,4,24
19100,1e-05,0,-2e-05,0.00021,3e-05,-2e-05,-3e-05,-1e-05,4,24
19101,1e-05,0,-2e-05,0.00021,3e-05,-2e-05,-3e-05,-1e-05,4,24
19102,1e-05,0,-2e-05,0.00021,3e-05,-2e-05,-3e-05,-1e-05,4,24
19103,1e-05,0,-2e-05,0.00021,3e-05,-2e-05,-3e-05,-1e-05,4,24
19104,-1e-05,-3e-05,-0.00011,-0.00014,0.00019,2e-05,3e-05,0,4,24
19105,-1e-05,-3e-05,-0.00011,-0.00014,0.00019,2e-05,3e-05,0,4,24
19106,-1e-05,-3e-05,-0.00011,-0.00014,0.00019,2e-05,3e-05,0,4,24
19107,-1e-05,-3e-05,-0.00011,-0.00014,0.00019,2e-05,3e-05,0,4,24
19108,-1e-05,-3e-05,-0.00011,-0.00014,0.00019,2e-05,3e-05,0,4,24
19109,-1e-05,-3e-05,-0.00011,-0.00014,0.00019,2e-05,3e-05,0,4,24
19110,-1e-05,-3e-05,-0.00011,-0.00014,0.00019,2e-05,3e-05,0,4,24
19111,-1e-05,-3e-05,-0.00011,-0.00014,0.00019,2e-05,3e-05,0,4,24
19112,-2e-05,1e-05,1e-05,0.0001,0.00038,-4e-05,-2e-05,-2e-05,4,24
19113,-2e-05,1e-05,1e-05,0.0001,0.00038,-4e-05,-2e-05,-2e-05,4,24
19114,-2e-05,1e-05,1e-05,0.0001,0.00038,-4e-05,-2e-05,-2e-05,4,24
19115,-2e-05,1e-05,1e-05,0.0001,0.00038,-4e-05,-2e-05,-2e-05,4,24
19116,-2e-05,1e-05,1e-05,0.0001,0.00038,-4e-05,-2e-05,-2e-05,4,24
19117,-2e-05,1e-05,1e-05,0.0001,0.00038,-4e-05,-2e-05,-2e-05,4,24
19118,-2e-05,1e-05,1e-05,0.0001,0.00038,-4e-05,-2e-05,-2e-05,4,24
19119,-2e-05,1e-05,1e-05,0.0001,0.00038,-4e-05,-2e-05,-2e-05,4,24
19120,-2e-05,1e-05,1e-05,0.0001,0.00038,-4e-05,-2e-05,-2e-05,4,24
19121,-2e-05,1e-05,1e-05,0.0001,0.00038,-4e-05,-2e-05,-2e-05,4,24
19122,-2e-05,1e-05,1e-05,0.0001,0.00038,-4e-05,-2e-05,-2e-05,4,24
19123,-2e-05,1e-05,1e-05,0.0001,0.00038,-4e-05,-2e-05,-2e-05,4,24
19124,-2e-05,1e-05,1e-05,0.0001,0.00038,-4e-05,-2e-05,-2e-05,4,24
19125,-2e-05,1e-05,1e-05,0.0001,0.00038,-4e-05,-2e-05,-2e-05,4,24
19126,-2e-05,1e-05,1e-05,0.0001,0.00038,-4e-05,-2e-05,-2e-05,4,24
19127,0,0,2e-05,-4e-05,-0.00044,-3e-05,-4e-05,-2e-05,4,24
19128,1e-05,1e-05,2e-05,-5e-05,-0.00033,-5e-05,2e-05,0,4,24
19129,1e-05,1e-05,2e-05,-5e-05,-0.00033,-5e-05,2e-05,0,4,24
19130,1e-05,1e-05,2e-05,-5e-05,-0.00033,-5e-05,2e-05,0,4,24
19131,1e-05,1e-05,2e-05,-5e-05,-0.00033,-5e-05,2e-05,0,4,24
19132,1e-05,1e-05,2e-05,-5e-05,-0.00033,-5e-05,2e-05,0,4,24
19133,1e-05,1e-05,2e-05,-5e-05,-0.00033,-5e-05,2e-05,0,4,24
19134,1e-05,1e-05,2e-05,-5e-05,-0.00033,-5e-05,2e-05,0,4,24
19135,1e-05,1e-05,2e-05,-5e-05,-0.00033,-5e-05,2e-05,0,4,24
19136,1e-05,1e-05,2e-05,-5e-05,-0.00033,-5e-05,2e-05,0,4,24
19138,1e-05,1e-05,2e-05,-5e-05,-0.00033,-5e-05,2e-05,0,4,24
19139,1e-05,1e-05,2e-05,-5e-05,-0.00033,-5e-05,2e-05,0,4,24
19140,1e-05,1e-05,2e-05,-5e-05,-0.00033,-5e-05,2e-05,0,4,24
19141,1e-05,1e-05,2e-05,-5e-05,-0.00033,-5e-05,2e-05,0,4,24
19142,1e-05,1e-05,2e-05,-5e-05,-0.00033,-5e-05,2e-05,0,4,24
19143,1e-05,1e-05,2e-05,-5e-05,-0.00033,-5e-05,2e-05,0,4,24
19144,1e-05,1e-05,2e-05,-5e-05,-0.00033,-5e-05,2e-05,0,4,24
19145,1e-05,1e-05,2e-05,-5e-05,-0.00033,-5e-05,2e-05,0,4,24
19146,1e-05,1e-05,2e-05,-5e-05,-0.00033,-5e-05,2e-05,0,4,24
19147,1e-05,1e-05,2e-05,-5e-05,-0.00033,-5e-05,2e-05,0,4,24
19148,1e-05,1e-05,2e-05,-5e-05,-0.00033,-5e-05,2e-05,0,4,24
19149,1e-05,1e-05,2e-05,-5e-05,-0.00033,-5e-05,2e-05,0,4,24
19150,4e-05,4e-05,0,-2e-05,0.00039,0.00012,9e-05,5e-05,4,24
19151,-1e-05,0,-2e-05,-9e-05,-0.00014,-1e-05,-2e-05,-2e-05,4,24
19152,-1e-05,0,-2e-05,-9e-05,-0.00014,-1e-05,-2e-05,-2e-05,4,24
19153,-1e-05,0,-2e-05,-9e-05,-0.00014,-1e-05,-2e-05,-2e-05,4,24
19154,-1e-05,0,-2e-05,-9e-05,-0.00014,-1e-05,-2e-05,-2e-05,4,24
19155,-1e-05,0,-2e-05,-9e-05,-0.00014,-1e-05,-2e-05,-2e-05,4,24
19156,-1e-05,0,-2e-05,-9e-05,-0.00014,-1e-05,-2e-05,-2e-05,4,24
19157,-1e-05,0,-2e-05,-9e-05,-0.00014,-1e-05,-2e-05,-2e-05,4,24
19158,-1e-05,0,-2e-05,-9e-05,-0.00014,-1e-05,-2e-05,-2e-05,4,24
19159,-1e-05,0,-2e-05,-9e-05,-0.00014,-1e-05,-2e-05,-2e-05,4,24
19160,-1e-05,0,-2e-05,-9e-05,-0.00014,-1e-05,-2e-05,-2e-05,4,24
19161,-1e-05,0,-2e-05,-9e-05,-0.00014,-1e-05,-2e-05,-2e-05,4,24
19162,-1e-05,0,-2e-05,-9e-05,-0.00014,-1e-05,-2e-05,-2e-05,4,24
19163,-4e-05,-5e-05,-2e-05,5e-05,0.00041,-3e-05,-6e-05,-2e-05,4,24
19164,-4e-05,-5e-05,-2e-05,5e-05,0.00041,-3e-05,-6e-05,-2e-05,4,24
19165,-4e-05,-5e-05,-2e-05,5e-05,0.00041,-3e-05,-6e-05,-2e-05,4,24
19166,-4e-05,-5e-05,-2e-05,5e-05,0.00041,-3e-05,-6e-05,-2e-05,4,24
19167,-4e-05,-5e-05,-2e-05,5e-05,0.00041,-3e-05,-6e-05,-2e-05,4,24
19168,-4e-05,-5e-05,-2e-05,5e-05,0.00041,-3e-05,-6e-05,-2e-05,4,24
19169,-4e-05,-5e-05,-2e-05,5e-05,0.00041,-3e-05,-6e-05,-2e-05,4,24
19170,-4e-05,-5e-05,-2e-05,5e-05,0.00041,-3e-05,-6e-05,-2e-05,4,24
19171,-4e-05,-5e-05,-2e-05,5e-05,0.00041,-3e-05,-6e-05,-2e-05,4,24
19172,-1e-05,-7e-05,-5e-05,-0.00016,-2e-05,0,0,1e-05,4,24
19173,-1e-05,-7e-05,-5e-05,-0.00016,-2e-05,0,0,1e-05,4,24
19174,-1e-05,-7e-05,-5e-05,-0.00016,-2e-05,0,0,1e-05,4,24
19175,-1e-05,-7e-05,-5e-05,-0.00016,-2e-05,0,0,1e-05,4,24
19176,-1e-05,-7e-05,-5e-05,-0.00016,-2e-05,0,0,1e-05,4,24
19177,-1e-05,-7e-05,-5e-05,-0.00016,-2e-05,0,0,1e-05,4,24
19178,-1e-05,-7e-05,-5e-05,-0.00016,-2e-05,0,0,1e-05,4,24
19179,-1e-05,-7e-05,-5e-05,-0.00016,-2e-05,0,0,1e-05,4,24
19180,-1e-05,-7e-05,-5e-05,-0.00016,-2e-05,0,0,1e-05,4,24
19181,-1e-05,-7e-05,-5e-05,-0.00016,-2e-05,0,0,1e-05,4,24
19182,-1e-05,-7e-05,-5e-05,-0.00016,-2e-05,0,0,1e-05,4,24
19183,-1e-05,-7e-05,-5e-05,-0.00016,-2e-05,0,0,1e-05,4,24
19184,-1e-05,-7e-05,-5e-05,-0.00016,-2e-05,0,0,1e-05,4,24
19185,-1e-05,-7e-05,-5e-05,-0.00016,-2e-05,0,0,1e-05,4,24
19186,-4e-05,-4e-05,-5e-05,3e-05,-0.0003,0,-2e-05,-4e-05,4,24
19189,3e-05,1e-05,-3e-05,-0.00021,-0.00047,-9e-05,-3e-05,-2e-05,4,24
19190,3e-05,1e-05,-3e-05,-0.00021,-0.00047,-9e-05,-3e-05,-2e-05,4,24
19191,3e-05,1e-05,-3e-05,-0.00021,-0.00047,-9e-05,-3e-05,-2e-05,4,24
19192,3e-05,1e-05,-3e-05,-0.00021,-0.00047,-9e-05,-3e-05,-2e-05,4,24
19193,3e-05,1e-05,-3e-05,-0.00021,-0.00047,-9e-05,-3e-05,-2e-05,4,24
19194,3e-05,1e-05,-3e-05,-0.00021,-0.00047,-9e-05,-3e-05,-2e-05,4,24
19195,3e-05,1e-05,-3e-05,-0.00021,-0.00047,-9e-05,-3e-05,-2e-05,4,24
19196,3e-05,1e-05,-3e-05,-0.00021,-0.00047,-9e-05,-3e-05,-2e-05,4,24
19197,3e-05,1e-05,-3e-05,-0.00021,-0.00047,-9e-05,-3e-05,-2e-05,4,24
19198,3e-05,1e-05,-3e-05,-0.00021,-0.00047,-9e-05,-3e-05,-2e-05,4,24
19199,3e-05,1e-05,-3e-05,-0.00021,-0.00047,-9e-05,-3e-05,-2e-05,4,24
19200,3e-05,1e-05,-3e-05,-0.00021,-0.00047,-9e-05,-3e-05,-2e-05,4,24
19201,3e-05,1e-05,-3e-05,-0.00021,-0.00047,-9e-05,-3e-05,-2e-05,4,24
19202,3e-05,1e-05,-3e-05,-0.00021,-0.00047,-9e-05,-3e-05,-2e-05,4,24
19203,3e-05,1e-05,-3e-05,-0.00021,-0.00047,-9e-05,-3e-05,-2e-05,4,24
19204,3e-05,1e-05,-3e-05,-0.00021,-0.00047,-9e-05,-3e-05,-2e-05,4,24
19205,3e-05,1e-05,-3e-05,-0.00021,-0.00047,-9e-05,-3e-05,-2e-05,4,24
19206,3e-05,1e-05,-3e-05,-0.00021,-0.00047,-9e-05,-3e-05,-2e-05,4,24
19207,3e-05,1e-05,-3e-05,-0.00021,-0.00047,-9e-05,-3e-05,-2e-05,4,24
19208,3e-05,1e-05,-3e-05,-0.00021,-0.00047,-9e-05,-3e-05,-2e-05,4,24
19209,-3e-05,-1e-05,2e-05,-0.00011,-5e-05,-3e-05,-1e-05,0,4,24
19210,-3e-05,-1e-05,2e-05,-0.00011,-5e-05,-3e-05,-1e-05,0,4,24
19211,0,-1e-05,2e-05,-2e-05,-0.00023,-2e-05,2e-05,0,4,24
19212,0,-1e-05,2e-05,-2e-05,-0.00023,-2e-05,2e-05,0,4,24
19213,0,-1e-05,2e-05,-2e-05,-0.00023,-2e-05,2e-05,0,4,24
19214,0,-1e-05,2e-05,-2e-05,-0.00023,-2e-05,2e-05,0,4,24
19215,0,-1e-05,2e-05,-2e-05,-0.00023,-2e-05,2e-05,0,4,24
19216,0,-1e-05,2e-05,-2e-05,-0.00023,-2e-05,2e-05,0,4,24
19217,0,-1e-05,2e-05,-2e-05,-0.00023,-2e-05,2e-05,0,4,24
19218,0,-1e-05,2e-05,-2e-05,-0.00023,-2e-05,2e-05,0,4,24
19219,0,-1e-05,2e-05,-2e-05,-0.00023,-2e-05,2e-05,0,4,24
19220,0,-1e-05,2e-05,-2e-05,-0.00023,-2e-05,2e-05,0,4,24
19221,0,-1e-05,2e-05,-2e-05,-0.00023,-2e-05,2e-05,0,4,24
19222,0,-1e-05,2e-05,-2e-05,-0.00023,-2e-05,2e-05,0,4,24
19223,-2e-05,-1e-05,2e-05,0.00025,0.00061,9e-05,-1e-05,-3e-05,4,24
19224,-2e-05,-1e-05,2e-05,0.00025,0.00061,9e-05,-1e-05,-3e-05,4,24
19225,-2e-05,-1e-05,2e-05,0.00025,0.00061,9e-05,-1e-05,-3e-05,4,24
19226,-2e-05,-1e-05,2e-05,0.00025,0.00061,9e-05,-1e-05,-3e-05,4,24
19227,-2e-05,-1e-05,2e-05,0.00025,0.00061,9e-05,-1e-05,-3e-05,4,24
19228,-2e-05,-1e-05,2e-05,0.00025,0.00061,9e-05,-1e-05,-3e-05,4,24
19229,-2e-05,-1e-05,2e-05,0.00025,0.00061,9e-05,-1e-05,-3e-05,4,24
19230,-2e-05,-1e-05,2e-05,0.00025,0.00061,9e-05,-1e-05,-3e-05,4,24
19231,-2e-05,-1e-05,2e-05,0.00025,0.00061,9e-05,-1e-05,-3e-05,4,24
19232,-3e-05,0,-1e-05,6e-05,0.00027,-2e-05,-2e-05,-1e-05,4,24
19233,-3e-05,0,-1e-05,6e-05,0.00027,-2e-05,-2e-05,-1e-05,4,24
19234,-3e-05,0,-1e-05,6e-05,0.00027,-2e-05,-2e-05,-1e-05,4,24
19235,-3e-05,0,-1e-05,6e-05,0.00027,-2e-05,-2e-05,-1e-05,4,24
19236,-3e-05,0,-1e-05,6e-05,0.00027,-2e-05,-2e-05,-1e-05,4,24
19239,-3e-05,0,-1e-05,6e-05,0.00027,-2e-05,-2e-05,-1e-05,4,24
19240,-3e-05,0,-1e-05,6e-05,0.00027,-2e-05,-2e-05,-1e-05,4,24
19241,-3e-05,0,-1e-05,6e-05,0.00027,-2e-05,-2e-05,-1e-05,4,24
19242,-3e-05,0,-1e-05,6e-05,0.00027,-2e-05,-2e-05,-1e-05,4,24
19243,-3e-05,0,-1e-05,6e-05,0.00027,-2e-05,-2e-05,-1e-05,4,24
19244,-3e-05,0,-1e-05,6e-05,0.00027,-2e-05,-2e-05,-1e-05,4,24
19245,-3e-05,0,-1e-05,6e-05,0.00027,-2e-05,-2e-05,-1e-05,4,24
19246,-3e-05,0,-1e-05,6e-05,0.00027,-2e-05,-2e-05,-1e-05,4,24
19247,-1e-05,-2e-05,0,-0.00012,-0.00023,-2e-05,-1e-05,2e-05,4,24
19248,-1e-05,2e-05,8e-05,0.0004,0.0012,0.00017,1e-05,0,4,24
19249,-1e-05,2e-05,8e-05,0.0004,0.0012,0.00017,1e-05,0,4,24
19250,-1e-05,2e-05,8e-05,0.0004,0.0012,0.00017,1e-05,0,4,24
19251,-1e-05,2e-05,8e-05,0.0004,0.0012,0.00017,1e-05,0,4,24
19252,-1e-05,2e-05,8e-05,0.0004,0.0012,0.00017,1e-05,0,4,24
19253,-1e-05,2e-05,8e-05,0.0004,0.0012,0.00017,1e-05,0,4,24
19254,-1e-05,2e-05,8e-05,0.0004,0.0012,0.00017,1e-05,0,4,24
19255,-1e-05,2e-05,8e-05,0.0004,0.0012,0.00017,1e-05,0,4,24
19256,-1e-05,2e-05,8e-05,0.0004,0.0012,0.00017,1e-05,0,4,24
19257,-1e-05,2e-05,8e-05,0.0004,0.0012,0.00017,1e-05,0,4,24
19258,-1e-05,2e-05,8e-05,0.0004,0.0012,0.00017,1e-05,0,4,24
19259,-1e-05,2e-05,8e-05,0.0004,0.0012,0.00017,1e-05,0,4,24
19260,-1e-05,2e-05,8e-05,0.0004,0.0012,0.00017,1e-05,0,4,24
19261,-1e-05,2e-05,8e-05,0.0004,0.0012,0.00017,1e-05,0,4,24
19262,-1e-05,2e-05,8e-05,0.0004,0.0012,0.00017,1e-05,0,4,24
19263,-1e-05,2e-05,8e-05,0.0004,0.0012,0.00017,1e-05,0,4,24
19264,-1e-05,2e-05,8e-05,0.0004,0.0012,0.00017,1e-05,0,4,24
19265,-1e-05,2e-05,8e-05,0.0004,0.0012,0.00017,1e-05,0,4,24
19266,-1e-05,2e-05,8e-05,0.0004,0.0012,0.00017,1e-05,0,4,24
19267,-1e-05,2e-05,8e-05,0.0004,0.0012,0.00017,1e-05,0,4,24
19268,-1e-05,2e-05,8e-05,0.0004,0.0012,0.00017,1e-05,0,4,24
19269,0,-2e-05,0,0.00016,-2e-05,-6e-05,-1e-05,-3e-05,4,24
19271,1e-05,0,0,0.00027,0.00078,4e-05,3e-05,-1e-05,4,24
19272,1e-05,0,0,0.00027,0.00078,4e-05,3e-05,-1e-05,4,24
19273,1e-05,0,0,0.00027,0.00078,4e-05,3e-05,-1e-05,4,24
19274,1e-05,0,0,0.00027,0.00078,4e-05,3e-05,-1e-05,4,24
19275,1e-05,0,0,0.00027,0.00078,4e-05,3e-05,-1e-05,4,24
19276,1e-05,0,0,0.00027,0.00078,4e-05,3e-05,-1e-05,4,24
19277,1e-05,0,0,0.00027,0.00078,4e-05,3e-05,-1e-05,4,24
19278,1e-05,0,0,0.00027,0.00078,4e-05,3e-05,-1e-05,4,24
19279,1e-05,0,0,0.00027,0.00078,4e-05,3e-05,-1e-05,4,24
19280,1e-05,0,0,0.00027,0.00078,4e-05,3e-05,-1e-05,4,24
19281,1e-05,0,0,0.00027,0.00078,4e-05,3e-05,-1e-05,4,24
19282,1e-05,0,0,0.00027,0.00078,4e-05,3e-05,-1e-05,4,24
19283,1e-05,0,7e-05,0.00028,-6e-05,-2e-05,-2e-05,1e-05,4,24
19284,1e-05,0,7e-05,0.00028,-6e-05,-2e-05,-2e-05,1e-05,4,24
19285,1e-05,0,7e-05,0.00028,-6e-05,-2e-05,-2e-05,1e-05,4,24
19286,1e-05,0,7e-05,0.00028,-6e-05,-2e-05,-2e-05,1e-05,4,24
19289,1e-05,0,7e-05,0.00028,-6e-05,-2e-05,-2e-05,1e-05,4,24
19290,1e-05,0,7e-05,0.00028,-6e-05,-2e-05,-2e-05,1e-05,4,24
19291,1e-05,0,7e-05,0.00028,-6e-05,-2e-05,-2e-05,1e-05,4,24
19292,3e-05,4e-05,8e-05,0.00028,0.00029,6e-05,2e-05,3e-05,4,24
19293,3e-05,4e-05,8e-05,0.00028,0.00029,6e-05,2e-05,3e-05,4,24
19294,3e-05,4e-05,8e-05,0.00028,0.00029,6e-05,2e-05,3e-05,4,24
19295,3e-05,4e-05,8e-05,0.00028,0.00029,6e-05,2e-05,3e-05,4,24
19296,3e-05,4e-05,8e-05,0.00028,0.00029,6e-05,2e-05,3e-05,4,24
19297,3e-05,4e-05,8e-05,0.00028,0.00029,6e-05,2e-05,3e-05,4,24
19298,3e-05,4e-05,8e-05,0.00028,0.00029,6e-05,2e-05,3e-05,4,24
19299,3e-05,4e-05,8e-05,0.00028,0.00029,6e-05,2e-05,3e-05,4,24
19300,3e-05,4e-05,8e-05,0.00028,0.00029,6e-05,2e-05,3e-05,4,24
19301,3e-05,4e-05,8e-05,0.00028,0.00029,6e-05,2e-05,3e-05,4,24
19302,3e-05,4e-05,8e-05,0.00028,0.00029,6e-05,2e-05,3e-05,4,24
19303,3e-05,4e-05,8e-05,0.00028,0.00029,6e-05,2e-05,3e-05,4,24
19304,3e-05,4e-05,8e-05,0.00028,0.00029,6e-05,2e-05,3e-05,4,24
19305,3e-05,4e-05,8e-05,0.00028,0.00029,6e-05,2e-05,3e-05,4,24
19306,3e-05,4e-05,8e-05,0.00028,0.00029,6e-05,2e-05,3e-05,4,24
19307,3e-05,4e-05,8e-05,0.00028,0.00029,6e-05,2e-05,3e-05,4,24
19308,3e-05,4e-05,8e-05,0.00028,0.00029,6e-05,2e-05,3e-05,4,24
19309,3e-05,4e-05,8e-05,0.00028,0.00029,6e-05,2e-05,3e-05,4,24
19310,3e-05,4e-05,8e-05,0.00028,0.00029,6e-05,2e-05,3e-05,4,24
19311,3e-05,4e-05,8e-05,0.00028,0.00029,6e-05,2e-05,3e-05,4,24
19312,3e-05,4e-05,8e-05,0.00028,0.00029,6e-05,2e-05,3e-05,4,24
19313,3e-05,4e-05,8e-05,0.00028,0.00029,6e-05,2e-05,3e-05,4,24
19314,3e-05,4e-05,8e-05,0.00028,0.00029,6e-05,2e-05,3e-05,4,24
19315,0,1e-05,-1e-05,0.00019,5e-05,1e-05,0,-1e-05,4,24
19316,-5e-05,-7e-05,-6e-05,-0.00033,-0.00113,-0.00015,-8e-05,-3e-05,4,24
19317,-5e-05,-7e-05,-6e-05,-0.00033,-0.00113,-0.00015,-8e-05,-3e-05,4,24
19318,-5e-05,-7e-05,-6e-05,-0.00033,-0.00113,-0.00015,-8e-05,-3e-05,4,24
19319,-5e-05,-7e-05,-6e-05,-0.00033,-0.00113,-0.00015,-8e-05,-3e-05,4,24
19320,-5e-05,-7e-05,-6e-05,-0.00033,-0.00113,-0.00015,-8e-05,-3e-05,4,24
19321,-5e-05,-7e-05,-6e-05,-0.00033,-0.00113,-0.00015,-8e-05,-3e-05,4,24
19322,-5e-05,-7e-05,-6e-05,-0.00033,-0.00113,-0.00015,-8e-05,-3e-05,4,24
19323,-5e-05,-7e-05,-6e-05,-0.00033,-0.00113,-0.00015,-8e-05,-3e-05,4,24
19324,-5e-05,-7e-05,-6e-05,-0.00033,-0.00113,-0.00015,-8e-05,-3e-05,4,24
19325,-5e-05,-7e-05,-6e-05,-0.00033,-0.00113,-0.00015,-8e-05,-3e-05,4,24
19326,-5e-05,-7e-05,-6e-05,-0.00033,-0.00113,-0.00015,-8e-05,-3e-05,4,24
19327,-5e-05,-7e-05,-6e-05,-0.00033,-0.00113,-0.00015,-8e-05,-3e-05,4,24
19328,2e-05,-1e-05,-8e-05,-6e-05,0.00026,6e-05,2e-05,0,4,24
19329,1e-05,4e-05,5e-05,-0.00017,7e-05,4e-05,1e-05,0,4,24
19330,1e-05,4e-05,5e-05,-0.00017,7e-05,4e-05,1e-05,0,4,24
19331,1e-05,4e-05,5e-05,-0.00017,7e-05,4e-05,1e-05,0,4,24
19332,1e-05,4e-05,5e-05,-0.00017,7e-05,4e-05,1e-05,0,4,24
19333,1e-05,4e-05,5e-05,-0.00017,7e-05,4e-05,1e-05,0,4,24
19334,1e-05,4e-05,5e-05,-0.00017,7e-05,4e-05,1e-05,0,4,24
19335,1e-05,4e-05,5e-05,-0.00017,7e-05,4e-05,1e-05,0,4,24
19336,1e-05,4e-05,5e-05,-0.00017,7e-05,4e-05,1e-05,0,4,24
19339,1e-05,4e-05,5e-05,-0.00017,7e-05,4e-05,1e-05,0,4,24
19340,1e-05,4e-05,5e-05,-0.00017,7e-05,4e-05,1e-05,0,4,24
19341,1e-05,4e-05,5e-05,-0.00017,7e-05,4e-05,1e-05,0,4,24
19342,1e-05,4e-05,5e-05,-0.00017,7e-05,4e-05,1e-05,0,4,24
19343,1e-05,4e-05,5e-05,-0.00017,7e-05,4e-05,1e-05,0,4,24
19344,1e-05,4e-05,5e-05,-0.00017,7e-05,4e-05,1e-05,0,4,24
19345,1e-05,4e-05,5e-05,-0.00017,7e-05,4e-05,1e-05,0,4,24
19346,1e-05,4e-05,5e-05,-0.00017,7e-05,4e-05,1e-05,0,4,24
19348,1e-05,4e-05,5e-05,-0.00017,7e-05,4e-05,1e-05,0,4,24
19349,1e-05,4e-05,5e-05,-0.00017,7e-05,4e-05,1e-05,0,4,24
19350,1e-05,4e-05,5e-05,-0.00017,7e-05,4e-05,1e-05,0,4,24
19351,-2e-05,-3e-05,-3e-05,5e-05,0.00027,1e-05,-2e-05,-2e-05,4,24
19352,-3e-05,-4e-05,-0.00013,-0.00038,-0.00035,-5e-05,-4e-05,-4e-05,4,24
19353,-3e-05,-4e-05,-0.00013,-0.00038,-0.00035,-5e-05,-4e-05,-4e-05,4,24
19354,-3e-05,-4e-05,-0.00013,-0.00038,-0.00035,-5e-05,-4e-05,-4e-05,4,24
19355,-3e-05,-4e-05,-0.00013,-0.00038,-0.00035,-5e-05,-4e-05,-4e-05,4,24
19356,-3e-05,-4e-05,-0.00013,-0.00038,-0.00035,-5e-05,-4e-05,-4e-05,4,24
19357,-3e-05,-4e-05,-0.00013,-0.00038,-0.00035,-5e-05,-4e-05,-4e-05,4,24
19358,-3e-05,-4e-05,-0.00013,-0.00038,-0.00035,-5e-05,-4e-05,-4e-05,4,24
19359,-3e-05,-4e-05,-0.00013,-0.00038,-0.00035,-5e-05,-4e-05,-4e-05,4,24
19360,-3e-05,-4e-05,-0.00013,-0.00038,-0.00035,-5e-05,-4e-05,-4e-05,4,24
19361,-3e-05,-4e-05,-0.00013,-0.00038,-0.00035,-5e-05,-4e-05,-4e-05,4,24
19362,-3e-05,-4e-05,-0.00013,-0.00038,-0.00035,-5e-05,-4e-05,-4e-05,4,24
19363,-3e-05,-4e-05,-0.00013,-0.00038,-0.00035,-5e-05,-4e-05,-4e-05,4,24
19364,-3e-05,-4e-05,-0.00013,-0.00038,-0.00035,-5e-05,-4e-05,-4e-05,4,24
19365,-3e-05,-4e-05,-0.00013,-0.00038,-0.00035,-5e-05,-4e-05,-4e-05,4,24
19366,0,0,-3e-05,-3e-05,-5e-05,-4e-05,-1e-05,-1e-05,4,24
19367,2e-05,1e-05,-4e-05,-0.00025,-0.0005,-8e-05,-1e-05,-2e-05,4,24
19368,2e-05,1e-05,-4e-05,-0.00025,-0.0005,-8e-05,-1e-05,-2e-05,4,24
19369,2e-05,1e-05,-4e-05,-0.00025,-0.0005,-8e-05,-1e-05,-2e-05,4,24
19370,2e-05,1e-05,-4e-05,-0.00025,-0.0005,-8e-05,-1e-05,-2e-05,4,24
19371,2e-05,1e-05,-4e-05,-0.00025,-0.0005,-8e-05,-1e-05,-2e-05,4,24
19372,2e-05,1e-05,-4e-05,-0.00025,-0.0005,-8e-05,-1e-05,-2e-05,4,24
19373,2e-05,1e-05,-4e-05,-0.00025,-0.0005,-8e-05,-1e-05,-2e-05,4,24
19374,2e-05,1e-05,-4e-05,-0.00025,-0.0005,-8e-05,-1e-05,-2e-05,4,24
19375,2e-05,1e-05,-4e-05,-0.00025,-0.0005,-8e-05,-1e-05,-2e-05,4,24
19376,2e-05,1e-05,-4e-05,-0.00025,-0.0005,-8e-05,-1e-05,-2e-05,4,24
19377,2e-05,1e-05,-4e-05,-0.00025,-0.0005,-8e-05,-1e-05,-2e-05,4,24
19378,2e-05,1e-05,-4e-05,-0.00025,-0.0005,-8e-05,-1e-05,-2e-05,4,24
19379,2e-05,1e-05,-4e-05,-0.00025,-0.0005,-8e-05,-1e-05,-2e-05,4,24
19380,2e-05,1e-05,-4e-05,-0.00025,-0.0005,-8e-05,-1e-05,-2e-05,4,24
19381,2e-05,1e-05,-4e-05,-0.00025,-0.0005,-8e-05,-1e-05,-2e-05,4,24
19382,2e-05,1e-05,-4e-05,-0.00025,-0.0005,-8e-05,-1e-05,-2e-05,4,24
19383,2e-05,1e-05,-4e-05,-0.00025,-0.0005,-8e-05,-1e-05,-2e-05,4,24
19384,2e-05,1e-05,-4e-05,-0.00025,-0.0005,-8e-05,-1e-05,-2e-05,4,24
19385,2e-05,1e-05,-4e-05,-0.00025,-0.0005,-8e-05,-1e-05,-2e-05,4,24
19386,2e-05,1e-05,-4e-05,-0.00025,-0.0005,-8e-05,-1e-05,-2e-05,4,24
19388,2e-05,1e-05,-4e-05,-0.00025,-0.0005,-8e-05,-1e-05,-2e-05,4,24
19389,-1e-05,-5e-05,-2e-05,-0.00011,-0.00037,-7e-05,-4e-05,-2e-05,4,24
19390,-1e-05,-5e-05,-2e-05,-0.00011,-0.00037,-7e-05,-4e-05,-2e-05,4,24
19391,-1e-05,-5e-05,-2e-05,-0.00011,-0.00037,-7e-05,-4e-05,-2e-05,4,24
19392,-1e-05,-5e-05,-2e-05,-0.00011,-0.00037,-7e-05,-4e-05,-2e-05,4,24
19393,-1e-05,-5e-05,-2e-05,-0.00011,-0.00037,-7e-05,-4e-05,-2e-05,4,24
19394,-1e-05,-5e-05,-2e-05,-0.00011,-0.00037,-7e-05,-4e-05,-2e-05,4,24
19395,-1e-05,-5e-05,-2e-05,-0.00011,-0.00037,-7e-05,-4e-05,-2e-05,4,24
19396,-1e-05,-5e-05,-2e-05,-0.00011,-0.00037,-7e-05,-4e-05,-2e-05,4,24
19397,-1e-05,-5e-05,-2e-05,-0.00011,-0.00037,-7e-05,-4e-05,-2e-05,4,24
19398,-1e-05,-5e-05,-2e-05,-0.00011,-0.00037,-7e-05,-4e-05,-2e-05,4,24
19399,-1e-05,-5e-05,-2e-05,-0.00011,-0.00037,-7e-05,-4e-05,-2e-05,4,24
19400,-1e-05,-5e-05,-2e-05,-0.00011,-0.00037,-7e-05,-4e-05,-2e-05,4,24
19401,-1e-05,-5e-05,-2e-05,-0.00011,-0.00037,-7e-05,-4e-05,-2e-05,4,24
19402,-1e-05,-5e-05,-2e-05,-0.00011,-0.00037,-7e-05,-4e-05,-2e-05,4,24
19403,-1e-05,-5e-05,-2e-05,-0.00011,-0.00037,-7e-05,-4e-05,-2e-05,4,24
19404,-1e-05,-5e-05,-2e-05,-0.00011,-0.00037,-7e-05,-4e-05,-2e-05,4,24
19405,-1e-05,-5e-05,-2e-05,-0.00011,-0.00037,-7e-05,-4e-05,-2e-05,4,24
19406,-1e-05,-5e-05,-2e-05,-0.00011,-0.00037,-7e-05,-4e-05,-2e-05,4,24
19407,-1e-05,-5e-05,-2e-05,-0.00011,-0.00037,-7e-05,-4e-05,-2e-05,4,24
19408,-1e-05,-5e-05,-2e-05,-0.00011,-0.00037,-7e-05,-4e-05,-2e-05,4,24
19409,-1e-05,-5e-05,-2e-05,-0.00011,-0.00037,-7e-05,-4e-05,-2e-05,4,24
19410,-1e-05,-5e-05,-2e-05,-0.00011,-0.00037,-7e-05,-4e-05,-2e-05,4,24
19411,-2e-05,1e-05,5e-05,0.00026,0.00072,4e-05,-2e-05,-2e-05,4,24
19412,2e-05,4e-05,0.00013,0.00045,0.00036,0.0001,6e-05,4e-05,4,24
19413,2e-05,4e-05,0.00013,0.00045,0.00036,0.0001,6e-05,4e-05,4,24
19414,2e-05,4e-05,0.00013,0.00045,0.00036,0.0001,6e-05,4e-05,4,24
19415,2e-05,4e-05,0.00013,0.00045,0.00036,0.0001,6e-05,4e-05,4,24
19416,2e-05,4e-05,0.00013,0.00045,0.00036,0.0001,6e-05,4e-05,4,24
19417,2e-05,4e-05,0.00013,0.00045,0.00036,0.0001,6e-05,4e-05,4,24
19418,2e-05,4e-05,0.00013,0.00045,0.00036,0.0001,6e-05,4e-05,4,24
19419,2e-05,4e-05,0.00013,0.00045,0.00036,0.0001,6e-05,4e-05,4,24
19420,2e-05,4e-05,0.00013,0.00045,0.00036,0.0001,6e-05,4e-05,4,24
19421,2e-05,4e-05,0.00013,0.00045,0.00036,0.0001,6e-05,4e-05,4,24
19422,2e-05,4e-05,0.00013,0.00045,0.00036,0.0001,6e-05,4e-05,4,24
19423,2e-05,4e-05,0.00013,0.00045,0.00036,0.0001,6e-05,4e-05,4,24
19424,2e-05,4e-05,0.00013,0.00045,0.00036,0.0001,6e-05,4e-05,4,24
19425,2e-05,4e-05,0.00013,0.00045,0.00036,0.0001,6e-05,4e-05,4,24
19426,2e-05,4e-05,0.00013,0.00045,0.00036,0.0001,6e-05,4e-05,4,24
19427,0,-5e-05,-0.00013,-6e-05,-0.00049,-8e-05,-2e-05,-3e-05,4,24
19428,-3e-05,-2e-05,0,-0.00011,-0.00016,-8e-05,-3e-05,-1e-05,4,24
19429,-3e-05,-2e-05,0,-0.00011,-0.00016,-8e-05,-3e-05,-1e-05,4,24
19430,-3e-05,-2e-05,0,-0.00011,-0.00016,-8e-05,-3e-05,-1e-05,4,24
19431,-3e-05,-2e-05,0,-0.00011,-0.00016,-8e-05,-3e-05,-1e-05,4,24
19432,-3e-05,-2e-05,0,-0.00011,-0.00016,-8e-05,-3e-05,-1e-05,4,24
19433,-3e-05,-2e-05,0,-0.00011,-0.00016,-8e-05,-3e-05,-1e-05,4,24
19434,-3e-05,-2e-05,0,-0.00011,-0.00016,-8e-05,-3e-05,-1e-05,4,24
19435,-3e-05,-2e-05,0,-0.00011,-0.00016,-8e-05,-3e-05,-1e-05,4,24
19436,-3e-05,-2e-05,0,-0.00011,-0.00016,-8e-05,-3e-05,-1e-05,4,24
19438,-3e-05,-2e-05,0,-0.00011,-0.00016,-8e-05,-3e-05,-1e-05,4,24
19439,-3e-05,-2e-05,0,-0.00011,-0.00016,-8e-05,-3e-05,-1e-05,4,24
19440,-3e-05,-2e-05,0,-0.00011,-0.00016,-8e-05,-3e-05,-1e-05,4,24
19441,-3e-05,-2e-05,0,-0.00011,-0.00016,-8e-05,-3e-05,-1e-05,4,24
19442,-3e-05,-2e-05,0,-0.00011,-0.00016,-8e-05,-3e-05,-1e-05,4,24
19443,-3e-05,-2e-05,0,-0.00011,-0.00016,-8e-05,-3e-05,-1e-05,4,24
19444,-3e-05,-2e-05,0,-0.00011,-0.00016,-8e-05,-3e-05,-1e-05,4,24
19445,-3e-05,-2e-05,0,-0.00011,-0.00016,-8e-05,-3e-05,-1e-05,4,24
19446,-3e-05,-2e-05,0,-0.00011,-0.00016,-8e-05,-3e-05,-1e-05,4,24
19447,-3e-05,-2e-05,0,-0.00011,-0.00016,-8e-05,-3e-05,-1e-05,4,24
19448,1e-05,-3e-05,2e-05,0.00014,-0.00024,-3e-05,-2e-05,-3e-05,4,24
19449,1e-05,-3e-05,2e-05,0.00014,-0.00024,-3e-05,-2e-05,-3e-05,4,24
19450,1e-05,-3e-05,2e-05,0.00014,-0.00024,-3e-05,-2e-05,-3e-05,4,24
19451,1e-05,-3e-05,2e-05,0.00014,-0.00024,-3e-05,-2e-05,-3e-05,4,24
19452,1e-05,-3e-05,2e-05,0.00014,-0.00024,-3e-05,-2e-05,-3e-05,4,24
19453,1e-05,-3e-05,2e-05,0.00014,-0.00024,-3e-05,-2e-05,-3e-05,4,24
19454,1e-05,-3e-05,2e-05,0.00014,-0.00024,-3e-05,-2e-05,-3e-05,4,24
19455,1e-05,-3e-05,2e-05,0.00014,-0.00024,-3e-05,-2e-05,-3e-05,4,24
19456,-4e-05,-5e-05,-5e-05,6e-05,-0.0004,-3e-05,-2e-05,-2e-05,4,24
19457,-4e-05,-5e-05,-5e-05,6e-05,-0.0004,-3e-05,-2e-05,-2e-05,4,24
19458,-4e-05,-5e-05,-5e-05,6e-05,-0.0004,-3e-05,-2e-05,-2e-05,4,24
19459,-4e-05,-5e-05,-5e-05,6e-05,-0.0004,-3e-05,-2e-05,-2e-05,4,24
19460,-4e-05,-5e-05,-5e-05,6e-05,-0.0004,-3e-05,-2e-05,-2e-05,4,24
19461,-4e-05,-5e-05,-5e-05,6e-05,-0.0004,-3e-05,-2e-05,-2e-05,4,24
19462,-4e-05,-5e-05,-5e-05,6e-05,-0.0004,-3e-05,-2e-05,-2e-05,4,24
19463,-4e-05,-5e-05,-5e-05,6e-05,-0.0004,-3e-05,-2e-05,-2e-05,4,24
19464,-4e-05,-5e-05,-5e-05,6e-05,-0.0004,-3e-05,-2e-05,-2e-05,4,24
19465,-4e-05,-5e-05,-5e-05,6e-05,-0.0004,-3e-05,-2e-05,-2e-05,4,24
19466,-4e-05,-5e-05,-5e-05,6e-05,-0.0004,-3e-05,-2e-05,-2e-05,4,24
19467,-4e-05,-5e-05,-5e-05,6e-05,-0.0004,-3e-05,-2e-05,-2e-05,4,24
19468,-4e-05,-5e-05,-5e-05,6e-05,-0.0004,-3e-05,-2e-05,-2e-05,4,24
19469,-4e-05,-5e-05,-5e-05,6e-05,-0.0004,-3e-05,-2e-05,-2e-05,4,24
19470,-4e-05,-5e-05,-5e-05,6e-05,-0.0004,-3e-05,-2e-05,-2e-05,4,24
19471,0,3e-05,2e-05,-2e-05,0.00059,5e-05,1e-05,-1e-05,4,24
19472,2e-05,4e-05,4e-05,2e-05,0.0003,4e-05,4e-05,4e-05,4,24
19473,2e-05,4e-05,4e-05,2e-05,0.0003,4e-05,4e-05,4e-05,4,24
19474,2e-05,4e-05,4e-05,2e-05,0.0003,4e-05,4e-05,4e-05,4,24
19475,2e-05,4e-05,4e-05,2e-05,0.0003,4e-05,4e-05,4e-05,4,24
19476,2e-05,4e-05,4e-05,2e-05,0.0003,4e-05,4e-05,4e-05,4,24
19477,2e-05,4e-05,4e-05,2e-05,0.0003,4e-05,4e-05,4e-05,4,24
19478,-4e-05,-1e-05,4e-05,0.00028,0.00044,0,-2e-05,-2e-05,4,24
19479,1e-05,-2e-05,-7e-05,-0.00024,-0.00049,0,1e-05,1e-05,4,24
19480,1e-05,-2e-05,-7e-05,-0.00024,-0.00049,0,1e-05,1e-05,4,24
19481,1e-05,-2e-05,-7e-05,-0.00024,-0.00049,0,1e-05,1e-05,4,24
19482,1e-05,-2e-05,-7e-05,-0.00024,-0.00049,0,1e-05,1e-05,4,24
19483,1e-05,-2e-05,-7e-05,-0.00024,-0.00049,0,1e-05,1e-05,4,24
19484,1e-05,-2e-05,-7e-05,-0.00024,-0.00049,0,1e-05,1e-05,4,24
19485,1e-05,-2e-05,-7e-05,-0.00024,-0.00049,0,1e-05,1e-05,4,24
19486,1e-05,-2e-05,-7e-05,-0.00024,-0.00049,0,1e-05,1e-05,4,24
19489,2e-05,0,3e-05,1e-05,0.00062,0.00016,5e-05,0,4,24
19490,2e-05,0,3e-05,1e-05,0.00062,0.00016,5e-05,0,4,24
19491,2e-05,0,3e-05,1e-05,0.00062,0.00016,5e-05,0,4,24
19492,2e-05,0,3e-05,1e-05,0.00062,0.00016,5e-05,0,4,24
19493,2e-05,0,3e-05,1e-05,0.00062,0.00016,5e-05,0,4,24
19494,2e-05,0,3e-05,1e-05,0.00062,0.00016,5e-05,0,4,24
19495,2e-05,0,3e-05,1e-05,0.00062,0.00016,5e-05,0,4,24
19496,2e-05,0,3e-05,1e-05,0.00062,0.00016,5e-05,0,4,24
19497,2e-05,0,3e-05,1e-05,0.00062,0.00016,5e-05,0,4,24
19498,2e-05,0,3e-05,1e-05,0.00062,0.00016,5e-05,0,4,24
19499,2e-05,0,3e-05,1e-05,0.00062,0.00016,5e-05,0,4,24
19500,2e-05,0,3e-05,1e-05,0.00062,0.00016,5e-05,0,4,24
19501,2e-05,0,3e-05,1e-05,0.00062,0.00016,5e-05,0,4,24
19502,2e-05,0,3e-05,1e-05,0.00062,0.00016,5e-05,0,4,24
19503,2e-05,0,3e-05,1e-05,0.00062,0.00016,5e-05,0,4,24
19504,2e-05,0,3e-05,1e-05,0.00062,0.00016,5e-05,0,4,24
19505,2e-05,0,3e-05,1e-05,0.00062,0.00016,5e-05,0,4,24
19506,2e-05,0,3e-05,1e-05,0.00062,0.00016,5e-05,0,4,24
19507,2e-05,0,3e-05,1e-05,0.00062,0.00016,5e-05,0,4,24
19508,2e-05,0,3e-05,1e-05,0.00062,0.00016,5e-05,0,4,24
19509,-4e-05,-2e-05,-2e-05,0.00021,0.0005,-2e-05,-5e-05,-5e-05,4,24
19510,-4e-05,-2e-05,-2e-05,0.00021,0.0005,-2e-05,-5e-05,-5e-05,4,24
19511,-4e-05,-2e-05,-2e-05,0.00021,0.0005,-2e-05,-5e-05,-5e-05,4,24
19512,-4e-05,-2e-05,-2e-05,0.00021,0.0005,-2e-05,-5e-05,-5e-05,4,24
19513,-4e-05,-2e-05,-2e-05,0.00021,0.0005,-2e-05,-5e-05,-5e-05,4,24
19514,-4e-05,-2e-05,-2e-05,0.00021,0.0005,-2e-05,-5e-05,-5e-05,4,24
19515,-4e-05,-2e-05,-2e-05,0.00021,0.0005,-2e-05,-5e-05,-5e-05,4,24
19516,-4e-05,-2e-05,-2e-05,0.00021,0.0005,-2e-05,-5e-05,-5e-05,4,24
19517,-4e-05,-2e-05,-2e-05,0.00021,0.0005,-2e-05,-5e-05,-5e-05,4,24
48559,0,2e-05,5e-05,0.00021,-1e-05,9e-05,5e-05,2e-05,4,24
48560,0,2e-05,5e-05,0.00021,-1e-05,9e-05,5e-05,2e-05,4,24
48561,0,2e-05,5e-05,0.00021,-1e-05,9e-05,5e-05,2e-05,4,24
48562,0,2e-05,5e-05,0.00021,-1e-05,9e-05,5e-05,2e-05,4,24
48563,0,2e-05,5e-05,0.00021,-1e-05,9e-05,5e-05,2e-05,4,24
48564,0,2e-05,5e-05,0.00021,-1e-05,9e-05,5e-05,2e-05,4,24
48565,0,-1e-05,-3e-05,-0.00018,-0.00094,-8e-05,1e-05,1e-05,4,24
48566,0,-1e-05,-3e-05,-0.00018,-0.00094,-8e-05,1e-05,1e-05,4,24
48567,1e-05,2e-05,6e-05,-0.00029,9e-05,4e-05,1e-05,1e-05,4,24
48568,1e-05,2e-05,6e-05,-0.00029,9e-05,4e-05,1e-05,1e-05,4,24
48569,1e-05,2e-05,6e-05,-0.00029,9e-05,4e-05,1e-05,1e-05,4,24
48570,1e-05,2e-05,6e-05,-0.00029,9e-05,4e-05,1e-05,1e-05,4,24
48571,1e-05,2e-05,6e-05,-0.00029,9e-05,4e-05,1e-05,1e-05,4,24
48572,1e-05,2e-05,6e-05,-0.00029,9e-05,4e-05,1e-05,1e-05,4,24
48573,1e-05,2e-05,6e-05,-0.00029,9e-05,4e-05,1e-05,1e-05,4,24
48574,1e-05,2e-05,6e-05,-0.00029,9e-05,4e-05,1e-05,1e-05,4,24
48575,1e-05,2e-05,6e-05,-0.00029,9e-05,4e-05,1e-05,1e-05,4,24
48576,1e-05,2e-05,6e-05,-0.00029,9e-05,4e-05,1e-05,1e-05,4,24
48577,1e-05,2e-05,6e-05,-0.00029,9e-05,4e-05,1e-05,1e-05,4,24
48578,1e-05,2e-05,6e-05,-0.00029,9e-05,4e-05,1e-05,1e-05,4,24
48579,1e-05,2e-05,6e-05,-0.00029,9e-05,4e-05,1e-05,1e-05,4,24
48580,1e-05,2e-05,6e-05,-0.00029,9e-05,4e-05,1e-05,1e-05,4,24
48581,1e-05,2e-05,6e-05,-0.00029,9e-05,4e-05,1e-05,1e-05,4,24
48582,1e-05,2e-05,6e-05,-0.00029,9e-05,4e-05,1e-05,1e-05,4,24
48583,1e-05,2e-05,6e-05,-0.00029,9e-05,4e-05,1e-05,1e-05,4,24
48584,1e-05,2e-05,6e-05,-0.00029,9e-05,4e-05,1e-05,1e-05,4,24
48585,1e-05,2e-05,6e-05,-0.00029,9e-05,4e-05,1e-05,1e-05,4,24
48586,1e-05,2e-05,6e-05,-0.00029,9e-05,4e-05,1e-05,1e-05,4,24
48589,4e-05,6e-05,0,-0.00013,-0.00023,-9e-05,-1e-05,1e-05,4,24
48590,-8e-05,-0.0001,-0.00011,0.00017,0.00055,2e-05,-6e-05,-6e-05,4,24
48591,-8e-05,-0.0001,-0.00011,0.00017,0.00055,2e-05,-6e-05,-6e-05,4,24
48592,-8e-05,-0.0001,-0.00011,0.00017,0.00055,2e-05,-6e-05,-6e-05,4,24
48593,-8e-05,-0.0001,-0.00011,0.00017,0.00055,2e-05,-6e-05,-6e-05,4,24
48594,-8e-05,-0.0001,-0.00011,0.00017,0.00055,2e-05,-6e-05,-6e-05,4,24
48595,-8e-05,-0.0001,-0.00011,0.00017,0.00055,2e-05,-6e-05,-6e-05,4,24
48596,-8e-05,-0.0001,-0.00011,0.00017,0.00055,2e-05,-6e-05,-6e-05,4,24
48597,-8e-05,-0.0001,-0.00011,0.00017,0.00055,2e-05,-6e-05,-6e-05,4,24
48598,-8e-05,-0.0001,-0.00011,0.00017,0.00055,2e-05,-6e-05,-6e-05,4,24
48599,-8e-05,-0.0001,-0.00011,0.00017,0.00055,2e-05,-6e-05,-6e-05,4,24
48600,-8e-05,-0.0001,-0.00011,0.00017,0.00055,2e-05,-6e-05,-6e-05,4,24
48601,0,0,-2e-05,-0.00037,0.00029,0.00013,0,0,4,24
48602,0,0,-2e-05,-0.00037,0.00029,0.00013,0,0,4,24
48603,0,0,-2e-05,-0.00037,0.00029,0.00013,0,0,4,24
48604,0,0,-2e-05,-0.00037,0.00029,0.00013,0,0,4,24
48605,0,0,-2e-05,-0.00037,0.00029,0.00013,0,0,4,24
48606,0,0,-2e-05,-0.00037,0.00029,0.00013,0,0,4,24
48607,0,0,-2e-05,-0.00037,0.00029,0.00013,0,0,4,24
48608,0,0,-2e-05,-0.00037,0.00029,0.00013,0,0,4,24
48609,0,0,-2e-05,-0.00037,0.00029,0.00013,0,0,4,24
48610,2e-05,1e-05,2e-05,0.00011,0.00075,9e-05,-1e-05,1e-05,4,24
48611,2e-05,1e-05,2e-05,0.00011,0.00075,9e-05,-1e-05,1e-05,4,24
48612,2e-05,1e-05,2e-05,0.00011,0.00075,9e-05,-1e-05,1e-05,4,24
48613,2e-05,1e-05,2e-05,0.00011,0.00075,9e-05,-1e-05,1e-05,4,24
48614,2e-05,1e-05,2e-05,0.00011,0.00075,9e-05,-1e-05,1e-05,4,24
48615,2e-05,1e-05,2e-05,0.00011,0.00075,9e-05,-1e-05,1e-05,4,24
48616,2e-05,1e-05,2e-05,0.00011,0.00075,9e-05,-1e-05,1e-05,4,24
48617,2e-05,1e-05,2e-05,0.00011,0.00075,9e-05,-1e-05,1e-05,4,24
48618,2e-05,1e-05,2e-05,0.00011,0.00075,9e-05,-1e-05,1e-05,4,24
48619,2e-05,1e-05,2e-05,0.00011,0.00075,9e-05,-1e-05,1e-05,4,24
48620,2e-05,1e-05,2e-05,0.00011,0.00075,9e-05,-1e-05,1e-05,4,24
48621,2e-05,1e-05,2e-05,0.00011,0.00075,9e-05,-1e-05,1e-05,4,24
