17545,6e-05,0.00013,0.00033,0.00035,0.00041,0.00023,0.00019,0.00012,4,26
17546,6e-05,0.00013,0.00033,0.00035,0.00041,0.00023,0.00019,0.00012,4,26
17547,6e-05,0.00013,0.00033,0.00035,0.00041,0.00023,0.00019,0.00012,4,26
17548,6e-05,0.00013,0.00033,0.00035,0.00041,0.00023,0.00019,0.00012,4,26
17549,6e-05,0.00013,0.00033,0.00035,0.00041,0.00023,0.00019,0.00012,4,26
17550,2e-05,1e-05,2e-05,-0.00042,0.0001,8e-05,7e-05,3e-05,4,26
17551,2e-05,1e-05,2e-05,-0.00042,0.0001,8e-05,7e-05,3e-05,4,26
17552,2e-05,1e-05,2e-05,-0.00042,0.0001,8e-05,7e-05,3e-05,4,26
17553,2e-05,1e-05,2e-05,-0.00042,0.0001,8e-05,7e-05,3e-05,4,26
17554,2e-05,1e-05,2e-05,-0.00042,0.0001,8e-05,7e-05,3e-05,4,26
17555,2e-05,1e-05,2e-05,-0.00042,0.0001,8e-05,7e-05,3e-05,4,26
17556,2e-05,1e-05,2e-05,-0.00042,0.0001,8e-05,7e-05,3e-05,4,26
17557,2e-05,1e-05,2e-05,-0.00042,0.0001,8e-05,7e-05,3e-05,4,26
17558,2e-05,1e-05,2e-05,-0.00042,0.0001,8e-05,7e-05,3e-05,4,26
17559,2e-05,1e-05,2e-05,-0.00042,0.0001,8e-05,7e-05,3e-05,4,26
17560,2e-05,1e-05,2e-05,-0.00042,0.0001,8e-05,7e-05,3e-05,4,26
17561,2e-05,1e-05,2e-05,-0.00042,0.0001,8e-05,7e-05,3e-05,4,26
17562,2e-05,1e-05,2e-05,-0.00042,0.0001,8e-05,7e-05,3e-05,4,26
17563,2e-05,1e-05,2e-05,-0.00042,0.0001,8e-05,7e-05,3e-05,4,26
17564,2e-05,1e-05,2e-05,-0.00042,0.0001,8e-05,7e-05,3e-05,4,26
17565,2e-05,1e-05,2e-05,-0.00042,0.0001,8e-05,7e-05,3e-05,4,26
17566,0.00026,0.00032,0.00035,-0.00018,8e-05,0.00048,0.00052,0.00032,4,26
17567,0.00026,0.00032,0.00035,-0.00018,8e-05,0.00048,0.00052,0.00032,4,26
17568,0.00026,0.00032,0.00035,-0.00018,8e-05,0.00048,0.00052,0.00032,4,26
17569,0.00026,0.00032,0.00035,-0.00018,8e-05,0.00048,0.00052,0.00032,4,26
17570,0.00026,0.00032,0.00035,-0.00018,8e-05,0.00048,0.00052,0.00032,4,26
17571,0.00026,0.00032,0.00035,-0.00018,8e-05,0.00048,0.00052,0.00032,4,26
17572,0.00026,0.00032,0.00035,-0.00018,8e-05,0.00048,0.00052,0.00032,4,26
17573,7e-05,5e-05,8e-05,0.00027,0.00058,0.00069,0.00018,8e-05,4,26
17574,7e-05,5e-05,8e-05,0.00027,0.00058,0.00069,0.00018,8e-05,4,26
17575,7e-05,5e-05,8e-05,0.00027,0.00058,0.00069,0.00018,8e-05,4,26
17576,7e-05,5e-05,8e-05,0.00027,0.00058,0.00069,0.00018,8e-05,4,26
17577,7e-05,5e-05,8e-05,0.00027,0.00058,0.00069,0.00018,8e-05,4,26
17578,7e-05,5e-05,8e-05,0.00027,0.00058,0.00069,0.00018,8e-05,4,26
17579,7e-05,5e-05,8e-05,0.00027,0.00058,0.00069,0.00018,8e-05,4,26
17580,7e-05,5e-05,8e-05,0.00027,0.00058,0.00069,0.00018,8e-05,4,26
17581,7e-05,5e-05,8e-05,0.00027,0.00058,0.00069,0.00018,8e-05,4,26
17582,7e-05,5e-05,8e-05,0.00027,0.00058,0.00069,0.00018,8e-05,4,26
17583,7e-05,5e-05,8e-05,0.00027,0.00058,0.00069,0.00018,8e-05,4,26
17584,7e-05,5e-05,8e-05,0.00027,0.00058,0.00069,0.00018,8e-05,4,26
17585,7e-05,5e-05,8e-05,0.00027,0.00058,0.00069,0.00018,8e-05,4,26
17586,7e-05,5e-05,8e-05,0.00027,0.00058,0.00069,0.00018,8e-05,4,26
17589,-0.00028,-0.00038,-0.00052,-0.00059,-0.00079,-0.00071,-0.00048,-0.00034,4,26
17590,-0.00028,-0.00038,-0.00052,-0.00059,-0.00079,-0.00071,-0.00048,-0.00034,4,26
17591,-0.00028,-0.00038,-0.00052,-0.00059,-0.00079,-0.00071,-0.00048,-0.00034,4,26
17592,-0.00028,-0.00038,-0.00052,-0.00059,-0.00079,-0.00071,-0.00048,-0.00034,4,26
17593,-0.00028,-0.00038,-0.00052,-0.00059,-0.00079,-0.00071,-0.00048,-0.00034,4,26
17594,-0.00028,-0.00038,-0.00052,-0.00059,-0.00079,-0.00071,-0.00048,-0.00034,4,26
17595,-0.00028,-0.00038,-0.00052,-0.00059,-0.00079,-0.00071,-0.00048,-0.00034,4,26
17596,3e-05,1e-05,-0.00016,-0.0002,0.00057,0.00027,0.00027,0.00012,4,26
17597,3e-05,1e-05,-0.00016,-0.0002,0.00057,0.00027,0.00027,0.00012,4,26
17598,3e-05,1e-05,-0.00016,-0.0002,0.00057,0.00027,0.00027,0.00012,4,26
17599,3e-05,1e-05,-0.00016,-0.0002,0.00057,0.00027,0.00027,0.00012,4,26
17600,3e-05,1e-05,-0.00016,-0.0002,0.00057,0.00027,0.00027,0.00012,4,26
17601,3e-05,1e-05,-0.00016,-0.0002,0.00057,0.00027,0.00027,0.00012,4,26
17602,3e-05,1e-05,-0.00016,-0.0002,0.00057,0.00027,0.00027,0.00012,4,26
17603,3e-05,1e-05,-0.00016,-0.0002,0.00057,0.00027,0.00027,0.00012,4,26
17604,-0.00011,-0.00013,-0.00016,-0.00069,-0.00076,-0.00023,-0.00017,-0.00014,4,26
17605,-0.00011,-0.00013,-0.00016,-0.00069,-0.00076,-0.00023,-0.00017,-0.00014,4,26
17606,-0.00011,-0.00013,-0.00016,-0.00069,-0.00076,-0.00023,-0.00017,-0.00014,4,26
17607,-0.00011,-0.00013,-0.00016,-0.00069,-0.00076,-0.00023,-0.00017,-0.00014,4,26
17608,-0.00011,-0.00013,-0.00016,-0.00069,-0.00076,-0.00023,-0.00017,-0.00014,4,26
17609,-0.00011,-0.00013,-0.00016,-0.00069,-0.00076,-0.00023,-0.00017,-0.00014,4,26
17610,-9e-05,-0.00014,-0.00034,-0.00067,-0.00013,1e-05,-0.00012,-8e-05,4,26
17611,-9e-05,-0.00014,-0.00034,-0.00067,-0.00013,1e-05,-0.00012,-8e-05,4,26
17612,-9e-05,-0.00014,-0.00034,-0.00067,-0.00013,1e-05,-0.00012,-8e-05,4,26
17613,-9e-05,-0.00014,-0.00034,-0.00067,-0.00013,1e-05,-0.00012,-8e-05,4,26
17614,-9e-05,-0.00014,-0.00034,-0.00067,-0.00013,1e-05,-0.00012,-8e-05,4,26
17615,-9e-05,-0.00014,-0.00034,-0.00067,-0.00013,1e-05,-0.00012,-8e-05,4,26
17616,-9e-05,-0.00014,-0.00034,-0.00067,-0.00013,1e-05,-0.00012,-8e-05,4,26
17617,-9e-05,-0.00014,-0.00034,-0.00067,-0.00013,1e-05,-0.00012,-8e-05,4,26
17618,-9e-05,-0.00014,-0.00034,-0.00067,-0.00013,1e-05,-0.00012,-8e-05,4,26
17619,-9e-05,-0.00014,-0.00034,-0.00067,-0.00013,1e-05,-0.00012,-8e-05,4,26
17620,-9e-05,-0.00014,-0.00034,-0.00067,-0.00013,1e-05,-0.00012,-8e-05,4,26
17621,-9e-05,-0.00014,-0.00034,-0.00067,-0.00013,1e-05,-0.00012,-8e-05,4,26
17622,-9e-05,-0.00014,-0.00034,-0.00067,-0.00013,1e-05,-0.00012,-8e-05,4,26
17623,-9e-05,-0.00014,-0.00034,-0.00067,-0.00013,1e-05,-0.00012,-8e-05,4,26
17624,-9e-05,-0.00014,-0.00034,-0.00067,-0.00013,1e-05,-0.00012,-8e-05,4,26
17625,-9e-05,-0.00014,-0.00034,-0.00067,-0.00013,1e-05,-0.00012,-8e-05,4,26
17626,-0.00013,-8e-05,-6e-05,3e-05,-0.00066,-0.00108,-0.00034,-0.00017,4,26
17627,-0.00013,-8e-05,-6e-05,3e-05,-0.00066,-0.00108,-0.00034,-0.00017,4,26
17628,-0.00013,-8e-05,-6e-05,3e-05,-0.00066,-0.00108,-0.00034,-0.00017,4,26
17629,-0.00013,-8e-05,-6e-05,3e-05,-0.00066,-0.00108,-0.00034,-0.00017,4,26
17630,-0.00013,-8e-05,-6e-05,3e-05,-0.00066,-0.00108,-0.00034,-0.00017,4,26
17631,-0.00013,-8e-05,-6e-05,3e-05,-0.00066,-0.00108,-0.00034,-0.00017,4,26
17632,-0.00013,-8e-05,-6e-05,3e-05,-0.00066,-0.00108,-0.00034,-0.00017,4,26
17633,-0.0002,-0.00017,-9e-05,-9e-05,-0.00045,-0.00042,-0.00029,-0.00022,4,26
17634,6e-05,8e-05,0.00031,5e-05,-0.0002,-0.00042,0,6e-05,4,26
17635,6e-05,8e-05,0.00031,5e-05,-0.0002,-0.00042,0,6e-05,4,26
17637,6e-05,8e-05,0.00031,5e-05,-0.0002,-0.00042,0,6e-05,4,26
17639,6e-05,8e-05,0.00031,5e-05,-0.0002,-0.00042,0,6e-05,4,26
17640,6e-05,8e-05,0.00031,5e-05,-0.0002,-0.00042,0,6e-05,4,26
17641,6e-05,8e-05,0.00031,5e-05,-0.0002,-0.00042,0,6e-05,4,26
17642,6e-05,8e-05,0.00031,5e-05,-0.0002,-0.00042,0,6e-05,4,26
17643,6e-05,8e-05,0.00031,5e-05,-0.0002,-0.00042,0,6e-05,4,26
17644,6e-05,8e-05,0.00031,5e-05,-0.0002,-0.00042,0,6e-05,4,26
17645,6e-05,8e-05,0.00031,5e-05,-0.0002,-0.00042,0,6e-05,4,26
17646,6e-05,8e-05,0.00031,5e-05,-0.0002,-0.00042,0,6e-05,4,26
17647,6e-05,8e-05,0.00031,5e-05,-0.0002,-0.00042,0,6e-05,4,26
17648,6e-05,8e-05,0.00031,5e-05,-0.0002,-0.00042,0,6e-05,4,26
17649,-4e-05,-0.00013,-0.00025,0,0.00033,-0.0001,-0.00014,-8e-05,4,26
17650,-4e-05,-0.00013,-0.00025,0,0.00033,-0.0001,-0.00014,-8e-05,4,26
17651,-4e-05,-0.00013,-0.00025,0,0.00033,-0.0001,-0.00014,-8e-05,4,26
17652,-4e-05,-0.00013,-0.00025,0,0.00033,-0.0001,-0.00014,-8e-05,4,26
17653,-4e-05,-0.00013,-0.00025,0,0.00033,-0.0001,-0.00014,-8e-05,4,26
17654,-4e-05,-0.00013,-0.00025,0,0.00033,-0.0001,-0.00014,-8e-05,4,26
17655,-4e-05,-0.00013,-0.00025,0,0.00033,-0.0001,-0.00014,-8e-05,4,26
17656,2e-05,1e-05,8e-05,-0.00029,-0.00047,0.0002,0,-2e-05,4,26
17657,2e-05,1e-05,8e-05,-0.00029,-0.00047,0.0002,0,-2e-05,4,26
17658,2e-05,1e-05,8e-05,-0.00029,-0.00047,0.0002,0,-2e-05,4,26
17659,2e-05,1e-05,8e-05,-0.00029,-0.00047,0.0002,0,-2e-05,4,26
17660,2e-05,1e-05,8e-05,-0.00029,-0.00047,0.0002,0,-2e-05,4,26
17661,2e-05,1e-05,8e-05,-0.00029,-0.00047,0.0002,0,-2e-05,4,26
17662,2e-05,1e-05,8e-05,-0.00029,-0.00047,0.0002,0,-2e-05,4,26
17663,2e-05,1e-05,8e-05,-0.00029,-0.00047,0.0002,0,-2e-05,4,26
17665,2e-05,1e-05,8e-05,-0.00029,-0.00047,0.0002,0,-2e-05,4,26
17666,2e-05,1e-05,8e-05,-0.00029,-0.00047,0.0002,0,-2e-05,4,26
17667,2e-05,1e-05,8e-05,-0.00029,-0.00047,0.0002,0,-2e-05,4,26
17668,2e-05,1e-05,8e-05,-0.00029,-0.00047,0.0002,0,-2e-05,4,26
17669,2e-05,1e-05,8e-05,-0.00029,-0.00047,0.0002,0,-2e-05,4,26
17670,9e-05,0.00015,0.00039,0.00025,-0.00012,-0.00015,-1e-05,9e-05,4,26
17671,-0.0001,-0.00016,-0.00033,-0.00083,-0.00128,-0.00021,-0.0001,-9e-05,4,26
17672,-0.0001,-0.00016,-0.00033,-0.00083,-0.00128,-0.00021,-0.0001,-9e-05,4,26
17673,-0.0001,-0.00016,-0.00033,-0.00083,-0.00128,-0.00021,-0.0001,-9e-05,4,26
17674,-0.0001,-0.00016,-0.00033,-0.00083,-0.00128,-0.00021,-0.0001,-9e-05,4,26
17675,-0.0001,-0.00016,-0.00033,-0.00083,-0.00128,-0.00021,-0.0001,-9e-05,4,26
17676,-0.0001,-0.00016,-0.00033,-0.00083,-0.00128,-0.00021,-0.0001,-9e-05,4,26
17677,-0.0001,-0.00016,-0.00033,-0.00083,-0.00128,-0.00021,-0.0001,-9e-05,4,26
17678,-0.0001,-0.00016,-0.00033,-0.00083,-0.00128,-0.00021,-0.0001,-9e-05,4,26
17679,-0.0001,-0.00016,-0.00033,-0.00083,-0.00128,-0.00021,-0.0001,-9e-05,4,26
17680,-0.0001,-0.00016,-0.00033,-0.00083,-0.00128,-0.00021,-0.0001,-9e-05,4,26
17681,-0.0001,-0.00016,-0.00033,-0.00083,-0.00128,-0.00021,-0.0001,-9e-05,4,26
17682,-0.0001,-0.00016,-0.00033,-0.00083,-0.00128,-0.00021,-0.0001,-9e-05,4,26
17683,-0.0001,-0.00016,-0.00033,-0.00083,-0.00128,-0.00021,-0.0001,-9e-05,4,26
17684,-0.0001,-0.00016,-0.00033,-0.00083,-0.00128,-0.00021,-0.0001,-9e-05,4,26
17685,-4e-05,-6e-05,-9e-05,-4e-05,-0.00057,-0.00035,-9e-05,-7e-05,4,26
17687,-4e-05,-6e-05,-9e-05,-4e-05,-0.00057,-0.00035,-9e-05,-7e-05,4,26
17690,-4e-05,-6e-05,-9e-05,-4e-05,-0.00057,-0.00035,-9e-05,-7e-05,4,26
17691,-4e-05,-6e-05,-9e-05,-4e-05,-0.00057,-0.00035,-9e-05,-7e-05,4,26
17692,-4e-05,-6e-05,-9e-05,-4e-05,-0.00057,-0.00035,-9e-05,-7e-05,4,26
17693,-4e-05,-1e-05,0.00015,-0.00027,1e-05,-0.0001,-0.0001,-6e-05,4,26
17694,-4e-05,-1e-05,0.00015,-0.00027,1e-05,-0.0001,-0.0001,-6e-05,4,26
17695,-4e-05,-1e-05,0.00015,-0.00027,1e-05,-0.0001,-0.0001,-6e-05,4,26
17696,-4e-05,-1e-05,0.00015,-0.00027,1e-05,-0.0001,-0.0001,-6e-05,4,26
17697,-4e-05,-1e-05,0.00015,-0.00027,1e-05,-0.0001,-0.0001,-6e-05,4,26
17698,-4e-05,-1e-05,0.00015,-0.00027,1e-05,-0.0001,-0.0001,-6e-05,4,26
17699,-4e-05,-1e-05,0.00015,-0.00027,1e-05,-0.0001,-0.0001,-6e-05,4,26
17700,-4e-05,-1e-05,0.00015,-0.00027,1e-05,-0.0001,-0.0001,-6e-05,4,26
17701,-4e-05,-1e-05,0.00015,-0.00027,1e-05,-0.0001,-0.0001,-6e-05,4,26
17702,-4e-05,-1e-05,0.00015,-0.00027,1e-05,-0.0001,-0.0001,-6e-05,4,26
17703,-4e-05,-1e-05,0.00015,-0.00027,1e-05,-0.0001,-0.0001,-6e-05,4,26
17704,-4e-05,-1e-05,0.00015,-0.00027,1e-05,-0.0001,-0.0001,-6e-05,4,26
17705,-4e-05,-1e-05,0.00015,-0.00027,1e-05,-0.0001,-0.0001,-6e-05,4,26
17706,-4e-05,-1e-05,0.00015,-0.00027,1e-05,-0.0001,-0.0001,-6e-05,4,26
17707,-4e-05,-1e-05,0.00015,-0.00027,1e-05,-0.0001,-0.0001,-6e-05,4,26
17708,-4e-05,-1e-05,0.00015,-0.00027,1e-05,-0.0001,-0.0001,-6e-05,4,26
17709,-4e-05,-1e-05,0.00015,-0.00027,1e-05,-0.0001,-0.0001,-6e-05,4,26
17710,-4e-05,-1e-05,0.00015,-0.00027,1e-05,-0.0001,-0.0001,-6e-05,4,26
17711,-4e-05,-1e-05,0.00015,-0.00027,1e-05,-0.0001,-0.0001,-6e-05,4,26
17712,-4e-05,-1e-05,0.00015,-0.00027,1e-05,-0.0001,-0.0001,-6e-05,4,26
17713,-4e-05,-1e-05,0.00015,-0.00027,1e-05,-0.0001,-0.0001,-6e-05,4,26
17714,-4e-05,-1e-05,0.00015,-0.00027,1e-05,-0.0001,-0.0001,-6e-05,4,26
17715,-4e-05,-1e-05,0.00015,-0.00027,1e-05,-0.0001,-0.0001,-6e-05,4,26
17716,0.00011,7e-05,-8e-05,0.0004,0.00083,0.00067,0.00035,0.00015,4,26
17717,-3e-05,3e-05,-5e-05,-0.00048,-0.0009,-0.00091,-0.00012,-8e-05,4,26
17718,-3e-05,3e-05,-5e-05,-0.00048,-0.0009,-0.00091,-0.00012,-8e-05,4,26
17719,-3e-05,3e-05,-5e-05,-0.00048,-0.0009,-0.00091,-0.00012,-8e-05,4,26
17720,-3e-05,3e-05,-5e-05,-0.00048,-0.0009,-0.00091,-0.00012,-8e-05,4,26
17721,-3e-05,3e-05,-5e-05,-0.00048,-0.0009,-0.00091,-0.00012,-8e-05,4,26
17722,-3e-05,3e-05,-5e-05,-0.00048,-0.0009,-0.00091,-0.00012,-8e-05,4,26
17723,-3e-05,3e-05,-5e-05,-0.00048,-0.0009,-0.00091,-0.00012,-8e-05,4,26
17724,-3e-05,3e-05,-5e-05,-0.00048,-0.0009,-0.00091,-0.00012,-8e-05,4,26
17725,-3e-05,3e-05,-5e-05,-0.00048,-0.0009,-0.00091,-0.00012,-8e-05,4,26
17726,-3e-05,3e-05,-5e-05,-0.00048,-0.0009,-0.00091,-0.00012,-8e-05,4,26
17727,-3e-05,3e-05,-5e-05,-0.00048,-0.0009,-0.00091,-0.00012,-8e-05,4,26
17728,-3e-05,3e-05,-5e-05,-0.00048,-0.0009,-0.00091,-0.00012,-8e-05,4,26
17729,-3e-05,3e-05,-5e-05,-0.00048,-0.0009,-0.00091,-0.00012,-8e-05,4,26
17730,-1e-05,0.00015,0.00018,-3e-05,-5e-05,3e-05,-2e-05,-3e-05,4,26
17731,-2e-05,2e-05,5e-05,0.00061,0.0002,0.00015,0.00019,4e-05,4,26
17732,-2e-05,2e-05,5e-05,0.00061,0.0002,0.00015,0.00019,4e-05,4,26
17733,-2e-05,2e-05,5e-05,0.00061,0.0002,0.00015,0.00019,4e-05,4,26
17734,-2e-05,2e-05,5e-05,0.00061,0.0002,0.00015,0.00019,4e-05,4,26
17735,-2e-05,2e-05,5e-05,0.00061,0.0002,0.00015,0.00019,4e-05,4,26
17737,-2e-05,2e-05,5e-05,0.00061,0.0002,0.00015,0.00019,4e-05,4,26
17739,-2e-05,2e-05,5e-05,0.00061,0.0002,0.00015,0.00019,4e-05,4,26
17740,-2e-05,2e-05,5e-05,0.00061,0.0002,0.00015,0.00019,4e-05,4,26
17741,-2e-05,2e-05,5e-05,0.00061,0.0002,0.00015,0.00019,4e-05,4,26
17742,-2e-05,2e-05,5e-05,0.00061,0.0002,0.00015,0.00019,4e-05,4,26
17743,-2e-05,2e-05,5e-05,0.00061,0.0002,0.00015,0.00019,4e-05,4,26
17744,-2e-05,2e-05,5e-05,0.00061,0.0002,0.00015,0.00019,4e-05,4,26
17745,-4e-05,4e-05,8e-05,-0.00049,-0.00093,-0.00054,-0.00027,-0.0001,4,26
17746,-4e-05,4e-05,8e-05,-0.00049,-0.00093,-0.00054,-0.00027,-0.0001,4,26
17747,-4e-05,4e-05,8e-05,-0.00049,-0.00093,-0.00054,-0.00027,-0.0001,4,26
17748,-4e-05,4e-05,8e-05,-0.00049,-0.00093,-0.00054,-0.00027,-0.0001,4,26
17749,-4e-05,4e-05,8e-05,-0.00049,-0.00093,-0.00054,-0.00027,-0.0001,4,26
17750,-4e-05,4e-05,8e-05,-0.00049,-0.00093,-0.00054,-0.00027,-0.0001,4,26
17751,-4e-05,4e-05,8e-05,-0.00049,-0.00093,-0.00054,-0.00027,-0.0001,4,26
17752,-4e-05,4e-05,8e-05,-0.00049,-0.00093,-0.00054,-0.00027,-0.0001,4,26
17753,-3e-05,-5e-05,-0.00023,-0.00028,-0.00075,-0.00012,-0.00014,-4e-05,4,26
17754,-3e-05,-5e-05,-0.00023,-0.00028,-0.00075,-0.00012,-0.00014,-4e-05,4,26
17755,-3e-05,-5e-05,-0.00023,-0.00028,-0.00075,-0.00012,-0.00014,-4e-05,4,26
17756,-3e-05,-5e-05,-0.00023,-0.00028,-0.00075,-0.00012,-0.00014,-4e-05,4,26
17758,-3e-05,-5e-05,-0.00023,-0.00028,-0.00075,-0.00012,-0.00014,-4e-05,4,26
17759,-3e-05,-5e-05,-0.00023,-0.00028,-0.00075,-0.00012,-0.00014,-4e-05,4,26
17760,-3e-05,-5e-05,-0.00023,-0.00028,-0.00075,-0.00012,-0.00014,-4e-05,4,26
17761,-3e-05,-5e-05,-0.00023,-0.00028,-0.00075,-0.00012,-0.00014,-4e-05,4,26
17762,-3e-05,-5e-05,-0.00023,-0.00028,-0.00075,-0.00012,-0.00014,-4e-05,4,26
17763,-3e-05,-5e-05,-0.00023,-0.00028,-0.00075,-0.00012,-0.00014,-4e-05,4,26
17764,-3e-05,-5e-05,-0.00023,-0.00028,-0.00075,-0.00012,-0.00014,-4e-05,4,26
17765,-3e-05,-5e-05,-0.00023,-0.00028,-0.00075,-0.00012,-0.00014,-4e-05,4,26
17766,-3e-05,-5e-05,-0.00023,-0.00028,-0.00075,-0.00012,-0.00014,-4e-05,4,26
17767,-4e-05,4e-05,0.0003,0.00094,0.00019,0.0005,-1e-05,-5e-05,4,26
17768,-4e-05,4e-05,0.0003,0.00094,0.00019,0.0005,-1e-05,-5e-05,4,26
17769,-4e-05,4e-05,0.0003,0.00094,0.00019,0.0005,-1e-05,-5e-05,4,26
17770,-4e-05,4e-05,0.0003,0.00094,0.00019,0.0005,-1e-05,-5e-05,4,26
17771,-4e-05,4e-05,0.0003,0.00094,0.00019,0.0005,-1e-05,-5e-05,4,26
17772,-4e-05,4e-05,0.0003,0.00094,0.00019,0.0005,-1e-05,-5e-05,4,26
17773,-4e-05,4e-05,0.0003,0.00094,0.00019,0.0005,-1e-05,-5e-05,4,26
17774,-4e-05,4e-05,0.0003,0.00094,0.00019,0.0005,-1e-05,-5e-05,4,26
17775,0,1e-05,-7e-05,-0.00072,-0.00021,-0.00068,-0.00025,-0.0001,4,26
17776,-6e-05,-5e-05,-7e-05,0.00022,0.00021,0.00048,-0.00012,-5e-05,4,26
17777,-6e-05,-5e-05,-7e-05,0.00022,0.00021,0.00048,-0.00012,-5e-05,4,26
17778,-6e-05,-5e-05,-7e-05,0.00022,0.00021,0.00048,-0.00012,-5e-05,4,26
17779,-6e-05,-5e-05,-7e-05,0.00022,0.00021,0.00048,-0.00012,-5e-05,4,26
17780,-6e-05,-5e-05,-7e-05,0.00022,0.00021,0.00048,-0.00012,-5e-05,4,26
17781,-6e-05,-5e-05,-7e-05,0.00022,0.00021,0.00048,-0.00012,-5e-05,4,26
17782,-6e-05,-5e-05,-7e-05,0.00022,0.00021,0.00048,-0.00012,-5e-05,4,26
17783,-6e-05,-5e-05,-7e-05,0.00022,0.00021,0.00048,-0.00012,-5e-05,4,26
17784,-6e-05,-5e-05,-7e-05,0.00022,0.00021,0.00048,-0.00012,-5e-05,4,26
17785,-6e-05,-5e-05,-7e-05,0.00022,0.00021,0.00048,-0.00012,-5e-05,4,26
17787,-6e-05,-5e-05,-7e-05,0.00022,0.00021,0.00048,-0.00012,-5e-05,4,26
17789,-6e-05,-5e-05,-7e-05,0.00022,0.00021,0.00048,-0.00012,-5e-05,4,26
17790,-6e-05,-5e-05,-7e-05,0.00022,0.00021,0.00048,-0.00012,-5e-05,4,26
17791,0,-4e-05,-0.00019,0.00043,0.00074,1e-05,-2e-05,0,4,26
17792,1e-05,8e-05,0.00022,0.00035,7e-05,-5e-05,-4e-05,0,4,26
17793,1e-05,8e-05,0.00022,0.00035,7e-05,-5e-05,-4e-05,0,4,26
17794,1e-05,8e-05,0.00022,0.00035,7e-05,-5e-05,-4e-05,0,4,26
17795,1e-05,8e-05,0.00022,0.00035,7e-05,-5e-05,-4e-05,0,4,26
17796,1e-05,8e-05,0.00022,0.00035,7e-05,-5e-05,-4e-05,0,4,26
17797,1e-05,8e-05,0.00022,0.00035,7e-05,-5e-05,-4e-05,0,4,26
17798,1e-05,8e-05,0.00022,0.00035,7e-05,-5e-05,-4e-05,0,4,26
17799,1e-05,8e-05,0.00022,0.00035,7e-05,-5e-05,-4e-05,0,4,26
17800,1e-05,8e-05,0.00022,0.00035,7e-05,-5e-05,-4e-05,0,4,26
17801,1e-05,8e-05,0.00022,0.00035,7e-05,-5e-05,-4e-05,0,4,26
17802,1e-05,8e-05,0.00022,0.00035,7e-05,-5e-05,-4e-05,0,4,26
17803,1e-05,8e-05,0.00022,0.00035,7e-05,-5e-05,-4e-05,0,4,26
17804,1e-05,8e-05,0.00022,0.00035,7e-05,-5e-05,-4e-05,0,4,26
17806,1e-05,8e-05,0.00022,0.00035,7e-05,-5e-05,-4e-05,0,4,26
17807,1e-05,8e-05,0.00022,0.00035,7e-05,-5e-05,-4e-05,0,4,26
17808,1e-05,8e-05,0.00022,0.00035,7e-05,-5e-05,-4e-05,0,4,26
17809,1e-05,8e-05,0.00022,0.00035,7e-05,-5e-05,-4e-05,0,4,26
17810,1e-05,8e-05,0.00022,0.00035,7e-05,-5e-05,-4e-05,0,4,26
17811,1e-05,8e-05,0.00022,0.00035,7e-05,-5e-05,-4e-05,0,4,26
17812,1e-05,8e-05,0.00022,0.00035,7e-05,-5e-05,-4e-05,0,4,26
17813,1e-05,8e-05,0.00022,0.00035,7e-05,-5e-05,-4e-05,0,4,26
17814,3e-05,-1e-05,0.00014,0.00031,0.00061,0.00015,0.00015,6e-05,4,26
17815,3e-05,-1e-05,0.00014,0.00031,0.00061,0.00015,0.00015,6e-05,4,26
17816,3e-05,-1e-05,0.00014,0.00031,0.00061,0.00015,0.00015,6e-05,4,26
17817,3e-05,-1e-05,0.00014,0.00031,0.00061,0.00015,0.00015,6e-05,4,26
17818,3e-05,-1e-05,0.00014,0.00031,0.00061,0.00015,0.00015,6e-05,4,26
17819,3e-05,-1e-05,0.00014,0.00031,0.00061,0.00015,0.00015,6e-05,4,26
17820,3e-05,-1e-05,0.00014,0.00031,0.00061,0.00015,0.00015,6e-05,4,26
17821,3e-05,-1e-05,0.00014,0.00031,0.00061,0.00015,0.00015,6e-05,4,26
17822,3e-05,-1e-05,0.00014,0.00031,0.00061,0.00015,0.00015,6e-05,4,26
17823,3e-05,-1e-05,0.00014,0.00031,0.00061,0.00015,0.00015,6e-05,4,26
17824,3e-05,-1e-05,0.00014,0.00031,0.00061,0.00015,0.00015,6e-05,4,26
17825,3e-05,-1e-05,0.00014,0.00031,0.00061,0.00015,0.00015,6e-05,4,26
17826,3e-05,-1e-05,0.00014,0.00031,0.00061,0.00015,0.00015,6e-05,4,26
17827,-0.00015,-0.00029,-0.00052,-0.00122,-0.00099,-0.00121,-0.00034,-0.0002,4,26
17828,-0.00015,-0.00029,-0.00052,-0.00122,-0.00099,-0.00121,-0.00034,-0.0002,4,26
17829,-0.00015,-0.00029,-0.00052,-0.00122,-0.00099,-0.00121,-0.00034,-0.0002,4,26
17830,-0.00015,-0.00029,-0.00052,-0.00122,-0.00099,-0.00121,-0.00034,-0.0002,4,26
17831,-0.00015,-0.00029,-0.00052,-0.00122,-0.00099,-0.00121,-0.00034,-0.0002,4,26
17832,-0.00015,-0.00029,-0.00052,-0.00122,-0.00099,-0.00121,-0.00034,-0.0002,4,26
17833,-0.00015,-0.00029,-0.00052,-0.00122,-0.00099,-0.00121,-0.00034,-0.0002,4,26
17834,-0.00015,-0.00029,-0.00052,-0.00122,-0.00099,-0.00121,-0.00034,-0.0002,4,26
17835,0.00011,0.00024,0.00033,0.00058,0.00039,0.00074,0.00025,0.00012,4,26
17837,-3e-05,-0.00013,-0.00031,-0.00028,-0.00011,-3e-05,-1e-05,-1e-05,4,26
17839,-3e-05,-0.00013,-0.00031,-0.00028,-0.00011,-3e-05,-1e-05,-1e-05,4,26
17840,-3e-05,-0.00013,-0.00031,-0.00028,-0.00011,-3e-05,-1e-05,-1e-05,4,26
17841,-3e-05,-0.00013,-0.00031,-0.00028,-0.00011,-3e-05,-1e-05,-1e-05,4,26
17842,-3e-05,-0.00013,-0.00031,-0.00028,-0.00011,-3e-05,-1e-05,-1e-05,4,26
17843,-3e-05,-0.00013,-0.00031,-0.00028,-0.00011,-3e-05,-1e-05,-1e-05,4,26
17844,-3e-05,-0.00013,-0.00031,-0.00028,-0.00011,-3e-05,-1e-05,-1e-05,4,26
17845,-3e-05,-0.00013,-0.00031,-0.00028,-0.00011,-3e-05,-1e-05,-1e-05,4,26
17846,-3e-05,-0.00013,-0.00031,-0.00028,-0.00011,-3e-05,-1e-05,-1e-05,4,26
17847,-3e-05,-0.00013,-0.00031,-0.00028,-0.00011,-3e-05,-1e-05,-1e-05,4,26
17848,-3e-05,-0.00013,-0.00031,-0.00028,-0.00011,-3e-05,-1e-05,-1e-05,4,26
17849,-3e-05,-0.00013,-0.00031,-0.00028,-0.00011,-3e-05,-1e-05,-1e-05,4,26
17850,-6e-05,-8e-05,-0.00011,0.00016,-0.00037,-0.00031,-0.00012,-0.0001,4,26
17851,-8e-05,-9e-05,-0.00014,5e-05,-0.00014,1e-05,-5e-05,-5e-05,4,26
17852,6e-05,0.0001,0.00012,0.00047,0.00017,4e-05,0.0001,8e-05,4,26
17853,6e-05,0.0001,0.00012,0.00047,0.00017,4e-05,0.0001,8e-05,4,26
17854,6e-05,0.0001,0.00012,0.00047,0.00017,4e-05,0.0001,8e-05,4,26
17855,6e-05,0.0001,0.00012,0.00047,0.00017,4e-05,0.0001,8e-05,4,26
17856,6e-05,0.0001,0.00012,0.00047,0.00017,4e-05,0.0001,8e-05,4,26
17857,6e-05,0.0001,0.00012,0.00047,0.00017,4e-05,0.0001,8e-05,4,26
17858,6e-05,0.0001,0.00012,0.00047,0.00017,4e-05,0.0001,8e-05,4,26
17859,6e-05,0.0001,0.00012,0.00047,0.00017,4e-05,0.0001,8e-05,4,26
17860,6e-05,0.0001,0.00012,0.00047,0.00017,4e-05,0.0001,8e-05,4,26
17861,6e-05,0.0001,0.00012,0.00047,0.00017,4e-05,0.0001,8e-05,4,26
17862,6e-05,0.0001,0.00012,0.00047,0.00017,4e-05,0.0001,8e-05,4,26
17863,6e-05,0.0001,0.00012,0.00047,0.00017,4e-05,0.0001,8e-05,4,26
17864,6e-05,0.0001,0.00012,0.00047,0.00017,4e-05,0.0001,8e-05,4,26
17865,-4e-05,-5e-05,-6e-05,0.00027,0.00024,-6e-05,-0.0001,-6e-05,4,26
17866,-4e-05,-5e-05,-6e-05,0.00027,0.00024,-6e-05,-0.0001,-6e-05,4,26
17867,-4e-05,-5e-05,-6e-05,0.00027,0.00024,-6e-05,-0.0001,-6e-05,4,26
17868,-4e-05,-5e-05,-6e-05,0.00027,0.00024,-6e-05,-0.0001,-6e-05,4,26
17869,-4e-05,-5e-05,-6e-05,0.00027,0.00024,-6e-05,-0.0001,-6e-05,4,26
17870,-4e-05,-5e-05,-6e-05,0.00027,0.00024,-6e-05,-0.0001,-6e-05,4,26
17871,-4e-05,-5e-05,-6e-05,0.00027,0.00024,-6e-05,-0.0001,-6e-05,4,26
17872,-4e-05,-5e-05,-6e-05,0.00027,0.00024,-6e-05,-0.0001,-6e-05,4,26
17873,-5e-05,-9e-05,-0.00039,-0.00061,-0.00059,-6e-05,0,-1e-05,4,26
17874,-5e-05,-9e-05,-0.00039,-0.00061,-0.00059,-6e-05,0,-1e-05,4,26
17875,-5e-05,-9e-05,-0.00039,-0.00061,-0.00059,-6e-05,0,-1e-05,4,26
17876,-5e-05,-9e-05,-0.00039,-0.00061,-0.00059,-6e-05,0,-1e-05,4,26
17877,-5e-05,-9e-05,-0.00039,-0.00061,-0.00059,-6e-05,0,-1e-05,4,26
17878,-5e-05,-9e-05,-0.00039,-0.00061,-0.00059,-6e-05,0,-1e-05,4,26
17879,-5e-05,-9e-05,-0.00039,-0.00061,-0.00059,-6e-05,0,-1e-05,4,26
17880,-5e-05,-9e-05,-0.00039,-0.00061,-0.00059,-6e-05,0,-1e-05,4,26
17881,-5e-05,-9e-05,-0.00039,-0.00061,-0.00059,-6e-05,0,-1e-05,4,26
17882,-5e-05,-9e-05,-0.00039,-0.00061,-0.00059,-6e-05,0,-1e-05,4,26
17883,-5e-05,-9e-05,-0.00039,-0.00061,-0.00059,-6e-05,0,-1e-05,4,26
17884,-5e-05,-9e-05,-0.00039,-0.00061,-0.00059,-6e-05,0,-1e-05,4,26
17885,-5e-05,-9e-05,-0.00039,-0.00061,-0.00059,-6e-05,0,-1e-05,4,26
17886,-5e-05,-9e-05,-0.00039,-0.00061,-0.00059,-6e-05,0,-1e-05,4,26
17889,3e-05,7e-05,0.00016,0.00018,-0.00062,-0.0001,-0.00021,-7e-05,4,26
17890,3e-05,7e-05,0.00016,0.00018,-0.00062,-0.0001,-0.00021,-7e-05,4,26
17891,3e-05,7e-05,0.00016,0.00018,-0.00062,-0.0001,-0.00021,-7e-05,4,26
17892,3e-05,7e-05,0.00016,0.00018,-0.00062,-0.0001,-0.00021,-7e-05,4,26
17893,3e-05,7e-05,0.00016,0.00018,-0.00062,-0.0001,-0.00021,-7e-05,4,26
17894,3e-05,7e-05,0.00016,0.00018,-0.00062,-0.0001,-0.00021,-7e-05,4,26
17895,4e-05,0.00014,0.00018,0,0.00047,0.00017,5e-05,4e-05,4,26
17896,-3e-05,0,0.00028,0.00056,0.00043,0.00014,-5e-05,-5e-05,4,26
17898,-3e-05,0,0.00028,0.00056,0.00043,0.00014,-5e-05,-5e-05,4,26
17899,-3e-05,0,0.00028,0.00056,0.00043,0.00014,-5e-05,-5e-05,4,26
17900,-3e-05,0,0.00028,0.00056,0.00043,0.00014,-5e-05,-5e-05,4,26
17901,-3e-05,0,0.00028,0.00056,0.00043,0.00014,-5e-05,-5e-05,4,26
17902,-3e-05,0,0.00028,0.00056,0.00043,0.00014,-5e-05,-5e-05,4,26
17903,-3e-05,0,0.00028,0.00056,0.00043,0.00014,-5e-05,-5e-05,4,26
17904,-3e-05,0,0.00028,0.00056,0.00043,0.00014,-5e-05,-5e-05,4,26
17905,-3e-05,0,0.00028,0.00056,0.00043,0.00014,-5e-05,-5e-05,4,26
17906,-3e-05,0,0.00028,0.00056,0.00043,0.00014,-5e-05,-5e-05,4,26
17907,-3e-05,0,0.00028,0.00056,0.00043,0.00014,-5e-05,-5e-05,4,26
17908,-3e-05,0,0.00028,0.00056,0.00043,0.00014,-5e-05,-5e-05,4,26
17909,-3e-05,0,0.00028,0.00056,0.00043,0.00014,-5e-05,-5e-05,4,26
17910,-5e-05,-7e-05,-0.00021,-0.001,-7e-05,6e-05,-0.00012,-4e-05,4,26
17911,-5e-05,-7e-05,-0.00021,-0.001,-7e-05,6e-05,-0.00012,-4e-05,4,26
17912,-5e-05,-7e-05,-0.00021,-0.001,-7e-05,6e-05,-0.00012,-4e-05,4,26
17913,-5e-05,-7e-05,-0.00021,-0.001,-7e-05,6e-05,-0.00012,-4e-05,4,26
17914,-5e-05,-7e-05,-0.00021,-0.001,-7e-05,6e-05,-0.00012,-4e-05,4,26
17915,-5e-05,-7e-05,-0.00021,-0.001,-7e-05,6e-05,-0.00012,-4e-05,4,26
17916,-5e-05,-7e-05,-0.00021,-0.001,-7e-05,6e-05,-0.00012,-4e-05,4,26
17917,-5e-05,-7e-05,-0.00021,-0.001,-7e-05,6e-05,-0.00012,-4e-05,4,26
17918,0,3e-05,8e-05,-0.00022,-0.00046,0.0001,-1e-05,-2e-05,4,26
17919,0,3e-05,8e-05,-0.00022,-0.00046,0.0001,-1e-05,-2e-05,4,26
17920,0,3e-05,8e-05,-0.00022,-0.00046,0.0001,-1e-05,-2e-05,4,26
17921,0,3e-05,8e-05,-0.00022,-0.00046,0.0001,-1e-05,-2e-05,4,26
17922,0,3e-05,8e-05,-0.00022,-0.00046,0.0001,-1e-05,-2e-05,4,26
17923,0,3e-05,8e-05,-0.00022,-0.00046,0.0001,-1e-05,-2e-05,4,26
17924,0,3e-05,8e-05,-0.00022,-0.00046,0.0001,-1e-05,-2e-05,4,26
17925,-4e-05,-8e-05,-4e-05,0.00044,0.00032,0.00023,4e-05,-2e-05,4,26
17926,-4e-05,-8e-05,-4e-05,0.00044,0.00032,0.00023,4e-05,-2e-05,4,26
17927,-4e-05,-8e-05,-4e-05,0.00044,0.00032,0.00023,4e-05,-2e-05,4,26
17928,-4e-05,-8e-05,-4e-05,0.00044,0.00032,0.00023,4e-05,-2e-05,4,26
17929,-4e-05,-8e-05,-4e-05,0.00044,0.00032,0.00023,4e-05,-2e-05,4,26
17930,-4e-05,-8e-05,-4e-05,0.00044,0.00032,0.00023,4e-05,-2e-05,4,26
17931,-4e-05,-8e-05,-4e-05,0.00044,0.00032,0.00023,4e-05,-2e-05,4,26
17932,-4e-05,-8e-05,-4e-05,0.00044,0.00032,0.00023,4e-05,-2e-05,4,26
17933,-1e-05,-3e-05,-0.00013,-6e-05,0.00051,-5e-05,-1e-05,-1e-05,4,26
17934,-1e-05,-3e-05,-0.00013,-6e-05,0.00051,-5e-05,-1e-05,-1e-05,4,26
17935,-1e-05,-3e-05,-0.00013,-6e-05,0.00051,-5e-05,-1e-05,-1e-05,4,26
17936,-1e-05,-3e-05,-0.00013,-6e-05,0.00051,-5e-05,-1e-05,-1e-05,4,26
17938,-1e-05,-3e-05,-0.00013,-6e-05,0.00051,-5e-05,-1e-05,-1e-05,4,26
17939,-1e-05,-3e-05,-0.00013,-6e-05,0.00051,-5e-05,-1e-05,-1e-05,4,26
17940,-1e-05,-3e-05,-0.00013,-6e-05,0.00051,-5e-05,-1e-05,-1e-05,4,26
17941,-1e-05,-3e-05,-0.00013,-6e-05,0.00051,-5e-05,-1e-05,-1e-05,4,26
17942,-1e-05,-3e-05,-0.00013,-6e-05,0.00051,-5e-05,-1e-05,-1e-05,4,26
17943,-1e-05,-3e-05,-0.00013,-6e-05,0.00051,-5e-05,-1e-05,-1e-05,4,26
17944,-1e-05,-3e-05,-0.00013,-6e-05,0.00051,-5e-05,-1e-05,-1e-05,4,26
17945,-1e-05,-3e-05,-0.00013,-6e-05,0.00051,-5e-05,-1e-05,-1e-05,4,26
17946,-1e-05,-3e-05,-0.00013,-6e-05,0.00051,-5e-05,-1e-05,-1e-05,4,26
17947,0.00015,5e-05,-0.00021,-0.00049,-0.00017,0.00053,0.00036,0.00022,4,26
17948,0.00015,5e-05,-0.00021,-0.00049,-0.00017,0.00053,0.00036,0.00022,4,26
17949,0.00015,5e-05,-0.00021,-0.00049,-0.00017,0.00053,0.00036,0.00022,4,26
17950,0.00015,5e-05,-0.00021,-0.00049,-0.00017,0.00053,0.00036,0.00022,4,26
17951,0.00015,5e-05,-0.00021,-0.00049,-0.00017,0.00053,0.00036,0.00022,4,26
17952,0.00015,5e-05,-0.00021,-0.00049,-0.00017,0.00053,0.00036,0.00022,4,26
17953,0.00015,5e-05,-0.00021,-0.00049,-0.00017,0.00053,0.00036,0.00022,4,26
17954,0.00015,5e-05,-0.00021,-0.00049,-0.00017,0.00053,0.00036,0.00022,4,26
17955,0.00014,0.00021,-7e-05,0.00015,-0.00056,0,0.00017,0.00016,4,26
17956,3e-05,0.00023,0.00053,0.0002,-0.00029,-0.0002,-0.00012,-3e-05,4,26
17957,3e-05,0.00023,0.00053,0.0002,-0.00029,-0.0002,-0.00012,-3e-05,4,26
17958,3e-05,0.00023,0.00053,0.0002,-0.00029,-0.0002,-0.00012,-3e-05,4,26
17959,3e-05,0.00023,0.00053,0.0002,-0.00029,-0.0002,-0.00012,-3e-05,4,26
17960,3e-05,0.00023,0.00053,0.0002,-0.00029,-0.0002,-0.00012,-3e-05,4,26
17961,3e-05,0.00023,0.00053,0.0002,-0.00029,-0.0002,-0.00012,-3e-05,4,26
17962,3e-05,0.00023,0.00053,0.0002,-0.00029,-0.0002,-0.00012,-3e-05,4,26
17963,3e-05,0.00023,0.00053,0.0002,-0.00029,-0.0002,-0.00012,-3e-05,4,26
17964,3e-05,0.00023,0.00053,0.0002,-0.00029,-0.0002,-0.00012,-3e-05,4,26
17965,3e-05,0.00023,0.00053,0.0002,-0.00029,-0.0002,-0.00012,-3e-05,4,26
17966,3e-05,0.00023,0.00053,0.0002,-0.00029,-0.0002,-0.00012,-3e-05,4,26
17967,3e-05,0.00023,0.00053,0.0002,-0.00029,-0.0002,-0.00012,-3e-05,4,26
17968,3e-05,0.00023,0.00053,0.0002,-0.00029,-0.0002,-0.00012,-3e-05,4,26
17969,3e-05,0.00023,0.00053,0.0002,-0.00029,-0.0002,-0.00012,-3e-05,4,26
17971,3e-05,0.00023,0.00053,0.0002,-0.00029,-0.0002,-0.00012,-3e-05,4,26
17972,1e-05,0.00011,0.00019,0.00017,0.00023,0.0002,1e-05,-2e-05,4,26
17973,1e-05,0.00011,0.00019,0.00017,0.00023,0.0002,1e-05,-2e-05,4,26
17974,1e-05,0.00011,0.00019,0.00017,0.00023,0.0002,1e-05,-2e-05,4,26
17975,1e-05,0.00011,0.00019,0.00017,0.00023,0.0002,1e-05,-2e-05,4,26
17976,1e-05,0.00011,0.00019,0.00017,0.00023,0.0002,1e-05,-2e-05,4,26
17977,1e-05,0.00011,0.00019,0.00017,0.00023,0.0002,1e-05,-2e-05,4,26
17979,1e-05,0.00011,0.00019,0.00017,0.00023,0.0002,1e-05,-2e-05,4,26
17980,1e-05,0.00011,0.00019,0.00017,0.00023,0.0002,1e-05,-2e-05,4,26
17981,1e-05,0.00011,0.00019,0.00017,0.00023,0.0002,1e-05,-2e-05,4,26
17982,1e-05,0.00011,0.00019,0.00017,0.00023,0.0002,1e-05,-2e-05,4,26
17983,1e-05,0.00011,0.00019,0.00017,0.00023,0.0002,1e-05,-2e-05,4,26
17984,1e-05,0.00011,0.00019,0.00017,0.00023,0.0002,1e-05,-2e-05,4,26
17985,0.00013,0.00029,0.00051,0.00033,0.00023,0.00049,0.00021,0.00012,4,26
17986,0.00013,0.00029,0.00051,0.00033,0.00023,0.00049,0.00021,0.00012,4,26
17988,0.00013,0.00029,0.00051,0.00033,0.00023,0.00049,0.00021,0.00012,4,26
17989,0.00013,0.00029,0.00051,0.00033,0.00023,0.00049,0.00021,0.00012,4,26
17990,0.00013,0.00029,0.00051,0.00033,0.00023,0.00049,0.00021,0.00012,4,26
17991,0.00013,0.00029,0.00051,0.00033,0.00023,0.00049,0.00021,0.00012,4,26
17992,0.00013,0.00029,0.00051,0.00033,0.00023,0.00049,0.00021,0.00012,4,26
17993,-0.00011,-0.00019,-0.00018,-0.00016,-0.00034,-0.00031,-2e-05,-0.0001,4,26
17994,-0.00011,-0.00019,-0.00018,-0.00016,-0.00034,-0.00031,-2e-05,-0.0001,4,26
17995,-0.00011,-0.00019,-0.00018,-0.00016,-0.00034,-0.00031,-2e-05,-0.0001,4,26
17996,-0.00011,-0.00019,-0.00018,-0.00016,-0.00034,-0.00031,-2e-05,-0.0001,4,26
17997,-0.00011,-0.00019,-0.00018,-0.00016,-0.00034,-0.00031,-2e-05,-0.0001,4,26
17998,-0.00011,-0.00019,-0.00018,-0.00016,-0.00034,-0.00031,-2e-05,-0.0001,4,26
17999,-0.00011,-0.00019,-0.00018,-0.00016,-0.00034,-0.00031,-2e-05,-0.0001,4,26
18000,-0.00011,-0.00019,-0.00018,-0.00016,-0.00034,-0.00031,-2e-05,-0.0001,4,26
18001,-0.00011,-0.00019,-0.00018,-0.00016,-0.00034,-0.00031,-2e-05,-0.0001,4,26
18003,-0.00011,-0.00019,-0.00018,-0.00016,-0.00034,-0.00031,-2e-05,-0.0001,4,26
18004,-0.00011,-0.00019,-0.00018,-0.00016,-0.00034,-0.00031,-2e-05,-0.0001,4,26
18005,-0.00011,-0.00019,-0.00018,-0.00016,-0.00034,-0.00031,-2e-05,-0.0001,4,26
18006,-0.00011,-0.00019,-0.00018,-0.00016,-0.00034,-0.00031,-2e-05,-0.0001,4,26
18007,0.00017,0.00026,0.00031,0.00056,0.00042,0.00062,0.00037,0.00022,4,26
18008,0.00017,0.00026,0.00031,0.00056,0.00042,0.00062,0.00037,0.00022,4,26
18009,0.00017,0.00026,0.00031,0.00056,0.00042,0.00062,0.00037,0.00022,4,26
18010,0.00017,0.00026,0.00031,0.00056,0.00042,0.00062,0.00037,0.00022,4,26
18011,0.00017,0.00026,0.00031,0.00056,0.00042,0.00062,0.00037,0.00022,4,26
18012,0.00017,0.00026,0.00031,0.00056,0.00042,0.00062,0.00037,0.00022,4,26
18013,0.00017,0.00026,0.00031,0.00056,0.00042,0.00062,0.00037,0.00022,4,26
18014,0.00017,0.00026,0.00031,0.00056,0.00042,0.00062,0.00037,0.00022,4,26
18015,-1e-05,0.0001,0.00019,0.00029,-0.00022,0.00021,-0.0001,-2e-05,4,26
18016,-0.0001,-7e-05,-0.00024,-8e-05,-0.00085,-0.00099,-0.00022,-7e-05,4,26
18017,-0.0001,-7e-05,-0.00024,-8e-05,-0.00085,-0.00099,-0.00022,-7e-05,4,26
18018,-0.0001,-7e-05,-0.00024,-8e-05,-0.00085,-0.00099,-0.00022,-7e-05,4,26
18019,-0.0001,-7e-05,-0.00024,-8e-05,-0.00085,-0.00099,-0.00022,-7e-05,4,26
18020,-0.0001,-7e-05,-0.00024,-8e-05,-0.00085,-0.00099,-0.00022,-7e-05,4,26
18021,-0.0001,-7e-05,-0.00024,-8e-05,-0.00085,-0.00099,-0.00022,-7e-05,4,26
18022,-0.0001,-7e-05,-0.00024,-8e-05,-0.00085,-0.00099,-0.00022,-7e-05,4,26
18023,-0.0001,-7e-05,-0.00024,-8e-05,-0.00085,-0.00099,-0.00022,-7e-05,4,26
18024,-0.0001,-7e-05,-0.00024,-8e-05,-0.00085,-0.00099,-0.00022,-7e-05,4,26
18025,-0.0001,-7e-05,-0.00024,-8e-05,-0.00085,-0.00099,-0.00022,-7e-05,4,26
18026,-0.0001,-7e-05,-0.00024,-8e-05,-0.00085,-0.00099,-0.00022,-7e-05,4,26
18027,-0.0001,-7e-05,-0.00024,-8e-05,-0.00085,-0.00099,-0.00022,-7e-05,4,26
18028,-0.0001,-7e-05,-0.00024,-8e-05,-0.00085,-0.00099,-0.00022,-7e-05,4,26
18029,-0.0001,-7e-05,-0.00024,-8e-05,-0.00085,-0.00099,-0.00022,-7e-05,4,26
18030,-0.00014,-0.00024,-9e-05,-0.00028,-0.00052,-0.00041,-7e-05,-0.00013,4,26
18031,-0.00014,-0.00024,-9e-05,-0.00028,-0.00052,-0.00041,-7e-05,-0.00013,4,26
18032,-0.00014,-0.00024,-9e-05,-0.00028,-0.00052,-0.00041,-7e-05,-0.00013,4,26
18033,-0.00014,-0.00024,-9e-05,-0.00028,-0.00052,-0.00041,-7e-05,-0.00013,4,26
18034,-0.00014,-0.00024,-9e-05,-0.00028,-0.00052,-0.00041,-7e-05,-0.00013,4,26
18035,-0.00014,-0.00024,-9e-05,-0.00028,-0.00052,-0.00041,-7e-05,-0.00013,4,26
18037,-0.00014,-0.00024,-9e-05,-0.00028,-0.00052,-0.00041,-7e-05,-0.00013,4,26
18039,-0.00014,-0.00024,-9e-05,-0.00028,-0.00052,-0.00041,-7e-05,-0.00013,4,26
18040,1e-05,-7e-05,0.00025,0.00045,-0.00013,0.00021,9e-05,0,4,26
18041,1e-05,-7e-05,0.00025,0.00045,-0.00013,0.00021,9e-05,0,4,26
18043,1e-05,-7e-05,0.00025,0.00045,-0.00013,0.00021,9e-05,0,4,26
18044,1e-05,-7e-05,0.00025,0.00045,-0.00013,0.00021,9e-05,0,4,26
18045,7e-05,0.00029,0.00067,0.00041,0.00036,-0.00016,-0.0001,1e-05,4,26
18046,7e-05,0.00029,0.00067,0.00041,0.00036,-0.00016,-0.0001,1e-05,4,26
18047,7e-05,0.00029,0.00067,0.00041,0.00036,-0.00016,-0.0001,1e-05,4,26
18048,7e-05,0.00029,0.00067,0.00041,0.00036,-0.00016,-0.0001,1e-05,4,26
18049,7e-05,0.00029,0.00067,0.00041,0.00036,-0.00016,-0.0001,1e-05,4,26
18050,7e-05,0.00029,0.00067,0.00041,0.00036,-0.00016,-0.0001,1e-05,4,26
18051,7e-05,0.00029,0.00067,0.00041,0.00036,-0.00016,-0.0001,1e-05,4,26
18052,7e-05,0.00029,0.00067,0.00041,0.00036,-0.00016,-0.0001,1e-05,4,26
18053,7e-05,0.00029,0.00067,0.00041,0.00036,-0.00016,-0.0001,1e-05,4,26
18055,-0.00013,-0.00036,-0.00084,-0.00086,-0.00039,-0.0002,2e-05,-7e-05,4,26
18056,-0.00013,-0.00036,-0.00084,-0.00086,-0.00039,-0.0002,2e-05,-7e-05,4,26
18057,-0.00013,-0.00036,-0.00084,-0.00086,-0.00039,-0.0002,2e-05,-7e-05,4,26
18058,-0.00013,-0.00036,-0.00084,-0.00086,-0.00039,-0.0002,2e-05,-7e-05,4,26
18059,-0.00013,-0.00036,-0.00084,-0.00086,-0.00039,-0.0002,2e-05,-7e-05,4,26
18060,-0.00013,-0.00036,-0.00084,-0.00086,-0.00039,-0.0002,2e-05,-7e-05,4,26
18061,-0.00013,-0.00036,-0.00084,-0.00086,-0.00039,-0.0002,2e-05,-7e-05,4,26
18062,-0.00013,-0.00036,-0.00084,-0.00086,-0.00039,-0.0002,2e-05,-7e-05,4,26
18063,-0.00013,-0.00036,-0.00084,-0.00086,-0.00039,-0.0002,2e-05,-7e-05,4,26
18064,-0.00013,-0.00036,-0.00084,-0.00086,-0.00039,-0.0002,2e-05,-7e-05,4,26
18065,-0.00013,-0.00036,-0.00084,-0.00086,-0.00039,-0.0002,2e-05,-7e-05,4,26
18066,-0.00013,-0.00036,-0.00084,-0.00086,-0.00039,-0.0002,2e-05,-7e-05,4,26
18067,-0.00013,-0.00036,-0.00084,-0.00086,-0.00039,-0.0002,2e-05,-7e-05,4,26
18068,-0.00013,-0.00036,-0.00084,-0.00086,-0.00039,-0.0002,2e-05,-7e-05,4,26
18069,-0.00013,-0.00036,-0.00084,-0.00086,-0.00039,-0.0002,2e-05,-7e-05,4,26
18070,-0.00013,-0.00036,-0.00084,-0.00086,-0.00039,-0.0002,2e-05,-7e-05,4,26
18071,-0.00013,-0.00036,-0.00084,-0.00086,-0.00039,-0.0002,2e-05,-7e-05,4,26
18072,-0.00013,-0.00036,-0.00084,-0.00086,-0.00039,-0.0002,2e-05,-7e-05,4,26
18073,-0.00013,-0.00036,-0.00084,-0.00086,-0.00039,-0.0002,2e-05,-7e-05,4,26
18074,-0.00013,-0.00036,-0.00084,-0.00086,-0.00039,-0.0002,2e-05,-7e-05,4,26
18075,-0.00013,-0.00036,-0.00084,-0.00086,-0.00039,-0.0002,2e-05,-7e-05,4,26
18076,-8e-05,6e-05,9e-05,-0.00042,1e-05,0.00012,-0.00026,-0.00014,4,26
18077,-8e-05,6e-05,9e-05,-0.00042,1e-05,0.00012,-0.00026,-0.00014,4,26
18078,0.00015,0.00013,0.00029,0.00112,0.00127,0.00065,9e-05,0.00015,4,26
18079,0.00015,0.00013,0.00029,0.00112,0.00127,0.00065,9e-05,0.00015,4,26
18080,0.00015,0.00013,0.00029,0.00112,0.00127,0.00065,9e-05,0.00015,4,26
18081,0.00015,0.00013,0.00029,0.00112,0.00127,0.00065,9e-05,0.00015,4,26
18082,0.00015,0.00013,0.00029,0.00112,0.00127,0.00065,9e-05,0.00015,4,26
18083,0.00015,0.00013,0.00029,0.00112,0.00127,0.00065,9e-05,0.00015,4,26
18084,0.00015,0.00013,0.00029,0.00112,0.00127,0.00065,9e-05,0.00015,4,26
18085,0.00015,0.00013,0.00029,0.00112,0.00127,0.00065,9e-05,0.00015,4,26
18086,0.00015,0.00013,0.00029,0.00112,0.00127,0.00065,9e-05,0.00015,4,26
18089,0.00015,0.00013,0.00029,0.00112,0.00127,0.00065,9e-05,0.00015,4,26
18090,-5e-05,-3e-05,0.00028,0.00032,-0.00034,-0.0006,-2e-05,-2e-05,4,26
18091,-5e-05,-3e-05,0.00028,0.00032,-0.00034,-0.0006,-2e-05,-2e-05,4,26
18092,-5e-05,-3e-05,0.00028,0.00032,-0.00034,-0.0006,-2e-05,-2e-05,4,26
18093,-5e-05,-3e-05,0.00028,0.00032,-0.00034,-0.0006,-2e-05,-2e-05,4,26
18094,-5e-05,-3e-05,0.00028,0.00032,-0.00034,-0.0006,-2e-05,-2e-05,4,26
18095,-5e-05,-3e-05,0.00028,0.00032,-0.00034,-0.0006,-2e-05,-2e-05,4,26
18096,-5e-05,-3e-05,0.00028,0.00032,-0.00034,-0.0006,-2e-05,-2e-05,4,26
18097,-5e-05,-3e-05,0.00028,0.00032,-0.00034,-0.0006,-2e-05,-2e-05,4,26
18098,-5e-05,-3e-05,0.00028,0.00032,-0.00034,-0.0006,-2e-05,-2e-05,4,26
18099,-9e-05,-8e-05,-0.00029,-0.00021,-0.0007,-0.00047,-0.00027,-0.00011,4,26
18100,-9e-05,-8e-05,-0.00029,-0.00021,-0.0007,-0.00047,-0.00027,-0.00011,4,26
18101,-9e-05,-8e-05,-0.00029,-0.00021,-0.0007,-0.00047,-0.00027,-0.00011,4,26
18103,-9e-05,-8e-05,-0.00029,-0.00021,-0.0007,-0.00047,-0.00027,-0.00011,4,26
18104,-9e-05,-8e-05,-0.00029,-0.00021,-0.0007,-0.00047,-0.00027,-0.00011,4,26
18105,-4e-05,-0.00013,-0.0002,-0.00038,-0.00082,-1e-05,-1e-05,-6e-05,4,26
18106,-4e-05,-0.00013,-0.0002,-0.00038,-0.00082,-1e-05,-1e-05,-6e-05,4,26
18107,-4e-05,-0.00013,-0.0002,-0.00038,-0.00082,-1e-05,-1e-05,-6e-05,4,26
18108,-4e-05,-0.00013,-0.0002,-0.00038,-0.00082,-1e-05,-1e-05,-6e-05,4,26
18109,-4e-05,-0.00013,-0.0002,-0.00038,-0.00082,-1e-05,-1e-05,-6e-05,4,26
18110,-4e-05,-0.00013,-0.0002,-0.00038,-0.00082,-1e-05,-1e-05,-6e-05,4,26
18111,-4e-05,-0.00013,-0.0002,-0.00038,-0.00082,-1e-05,-1e-05,-6e-05,4,26
18112,-4e-05,-0.00013,-0.0002,-0.00038,-0.00082,-1e-05,-1e-05,-6e-05,4,26
18113,-4e-05,-0.00013,-0.0002,-0.00038,-0.00082,-1e-05,-1e-05,-6e-05,4,26
18114,0.00014,0.00017,0.0003,-0.00013,-6e-05,0.00057,0.00035,0.00019,4,26
18115,0.00014,0.00017,0.0003,-0.00013,-6e-05,0.00057,0.00035,0.00019,4,26
18116,0.00014,0.00017,0.0003,-0.00013,-6e-05,0.00057,0.00035,0.00019,4,26
18117,0.00014,0.00017,0.0003,-0.00013,-6e-05,0.00057,0.00035,0.00019,4,26
18118,0.00014,0.00017,0.0003,-0.00013,-6e-05,0.00057,0.00035,0.00019,4,26
18119,0.00014,0.00017,0.0003,-0.00013,-6e-05,0.00057,0.00035,0.00019,4,26
18120,0.00014,0.00017,0.0003,-0.00013,-6e-05,0.00057,0.00035,0.00019,4,26
18121,0.00014,0.00017,0.0003,-0.00013,-6e-05,0.00057,0.00035,0.00019,4,26
18123,0.00014,0.00017,0.0003,-0.00013,-6e-05,0.00057,0.00035,0.00019,4,26
18124,0.00014,0.00017,0.0003,-0.00013,-6e-05,0.00057,0.00035,0.00019,4,26
18125,0.00014,0.00017,0.0003,-0.00013,-6e-05,0.00057,0.00035,0.00019,4,26
18126,0.00014,0.00017,0.0003,-0.00013,-6e-05,0.00057,0.00035,0.00019,4,26
18127,0.00014,0.00017,0.0003,-0.00013,-6e-05,0.00057,0.00035,0.00019,4,26
18128,0.00014,0.00017,0.0003,-0.00013,-6e-05,0.00057,0.00035,0.00019,4,26
18129,0.00014,0.00017,0.0003,-0.00013,-6e-05,0.00057,0.00035,0.00019,4,26
18130,0.00014,0.00017,0.0003,-0.00013,-6e-05,0.00057,0.00035,0.00019,4,26
18131,0.00014,0.00017,0.0003,-0.00013,-6e-05,0.00057,0.00035,0.00019,4,26
18132,0.00014,0.00017,0.0003,-0.00013,-6e-05,0.00057,0.00035,0.00019,4,26
18133,0.00014,0.00017,0.0003,-0.00013,-6e-05,0.00057,0.00035,0.00019,4,26
18134,0.00014,0.00017,0.0003,-0.00013,-6e-05,0.00057,0.00035,0.00019,4,26
18135,0.00014,0.00017,0.0003,-0.00013,-6e-05,0.00057,0.00035,0.00019,4,26
18136,1e-05,4e-05,0.00011,0.0007,0.00016,-0.00068,-0.0001,-4e-05,4,26
18139,5e-05,5e-05,-0.00027,-0.00109,0.00016,9e-05,0.0001,5e-05,4,26
18140,5e-05,5e-05,-0.00027,-0.00109,0.00016,9e-05,0.0001,5e-05,4,26
18141,5e-05,5e-05,-0.00027,-0.00109,0.00016,9e-05,0.0001,5e-05,4,26
18142,5e-05,5e-05,-0.00027,-0.00109,0.00016,9e-05,0.0001,5e-05,4,26
18143,5e-05,5e-05,-0.00027,-0.00109,0.00016,9e-05,0.0001,5e-05,4,26
18144,5e-05,5e-05,-0.00027,-0.00109,0.00016,9e-05,0.0001,5e-05,4,26
18145,5e-05,5e-05,-0.00027,-0.00109,0.00016,9e-05,0.0001,5e-05,4,26
18146,5e-05,5e-05,-0.00027,-0.00109,0.00016,9e-05,0.0001,5e-05,4,26
18147,5e-05,5e-05,-0.00027,-0.00109,0.00016,9e-05,0.0001,5e-05,4,26
18148,5e-05,5e-05,-0.00027,-0.00109,0.00016,9e-05,0.0001,5e-05,4,26
18149,5e-05,5e-05,-0.00027,-0.00109,0.00016,9e-05,0.0001,5e-05,4,26
18150,5e-05,5e-05,-0.00027,-0.00109,0.00016,9e-05,0.0001,5e-05,4,26
18151,5e-05,5e-05,-0.00027,-0.00109,0.00016,9e-05,0.0001,5e-05,4,26
18152,5e-05,5e-05,-0.00027,-0.00109,0.00016,9e-05,0.0001,5e-05,4,26
18153,5e-05,5e-05,-0.00027,-0.00109,0.00016,9e-05,0.0001,5e-05,4,26
18154,5e-05,5e-05,-0.00027,-0.00109,0.00016,9e-05,0.0001,5e-05,4,26
18155,5e-05,5e-05,-0.00027,-0.00109,0.00016,9e-05,0.0001,5e-05,4,26
18156,5e-05,5e-05,-0.00027,-0.00109,0.00016,9e-05,0.0001,5e-05,4,26
18157,5e-05,5e-05,-0.00027,-0.00109,0.00016,9e-05,0.0001,5e-05,4,26
18158,-6e-05,-0.00011,0.00011,0.00016,-0.00088,-0.00013,-2e-05,1e-05,4,26
18159,-2e-05,-6e-05,-4e-05,-0.00026,0.00021,-0.00027,-0.00012,-7e-05,4,26
18160,0,-3e-05,-6e-05,0.00028,-1e-05,0.00046,8e-05,2e-05,4,26
18161,0,-3e-05,-6e-05,0.00028,-1e-05,0.00046,8e-05,2e-05,4,26
18162,0,-3e-05,-6e-05,0.00028,-1e-05,0.00046,8e-05,2e-05,4,26
18163,0,-3e-05,-6e-05,0.00028,-1e-05,0.00046,8e-05,2e-05,4,26
18164,0,-3e-05,-6e-05,0.00028,-1e-05,0.00046,8e-05,2e-05,4,26
18165,0,-3e-05,-6e-05,0.00028,-1e-05,0.00046,8e-05,2e-05,4,26
18166,0,-3e-05,-6e-05,0.00028,-1e-05,0.00046,8e-05,2e-05,4,26
18167,0,-3e-05,-6e-05,0.00028,-1e-05,0.00046,8e-05,2e-05,4,26
18168,0,-3e-05,-6e-05,0.00028,-1e-05,0.00046,8e-05,2e-05,4,26
18169,0,-3e-05,-6e-05,0.00028,-1e-05,0.00046,8e-05,2e-05,4,26
18170,0,-3e-05,-6e-05,0.00028,-1e-05,0.00046,8e-05,2e-05,4,26
18171,0,-3e-05,-6e-05,0.00028,-1e-05,0.00046,8e-05,2e-05,4,26
18172,-0.0001,-2e-05,8e-05,0.00015,-0.00046,-0.001,-0.00023,-0.00016,4,26
18173,-0.0001,-2e-05,8e-05,0.00015,-0.00046,-0.001,-0.00023,-0.00016,4,26
18174,-0.0001,-2e-05,8e-05,0.00015,-0.00046,-0.001,-0.00023,-0.00016,4,26
18175,-0.0001,-2e-05,8e-05,0.00015,-0.00046,-0.001,-0.00023,-0.00016,4,26
18176,-0.0001,-2e-05,8e-05,0.00015,-0.00046,-0.001,-0.00023,-0.00016,4,26
18177,-0.0001,-2e-05,8e-05,0.00015,-0.00046,-0.001,-0.00023,-0.00016,4,26
18178,-0.0001,-2e-05,8e-05,0.00015,-0.00046,-0.001,-0.00023,-0.00016,4,26
18179,-0.0001,-2e-05,8e-05,0.00015,-0.00046,-0.001,-0.00023,-0.00016,4,26
18180,-0.0001,-2e-05,8e-05,0.00015,-0.00046,-0.001,-0.00023,-0.00016,4,26
18181,5e-05,8e-05,0.0003,0.00042,5e-05,-0.00047,-0.00029,-3e-05,4,26
18182,5e-05,8e-05,0.0003,0.00042,5e-05,-0.00047,-0.00029,-3e-05,4,26
18183,5e-05,8e-05,0.0003,0.00042,5e-05,-0.00047,-0.00029,-3e-05,4,26
18184,5e-05,8e-05,0.0003,0.00042,5e-05,-0.00047,-0.00029,-3e-05,4,26
18185,5e-05,8e-05,0.0003,0.00042,5e-05,-0.00047,-0.00029,-3e-05,4,26
18186,5e-05,8e-05,0.0003,0.00042,5e-05,-0.00047,-0.00029,-3e-05,4,26
18188,5e-05,8e-05,0.0003,0.00042,5e-05,-0.00047,-0.00029,-3e-05,4,26
18189,5e-05,8e-05,0.0003,0.00042,5e-05,-0.00047,-0.00029,-3e-05,4,26
18190,5e-05,8e-05,0.0003,0.00042,5e-05,-0.00047,-0.00029,-3e-05,4,26
18191,5e-05,8e-05,0.0003,0.00042,5e-05,-0.00047,-0.00029,-3e-05,4,26
18192,5e-05,8e-05,0.0003,0.00042,5e-05,-0.00047,-0.00029,-3e-05,4,26
18193,5e-05,8e-05,0.0003,0.00042,5e-05,-0.00047,-0.00029,-3e-05,4,26
18194,5e-05,8e-05,0.0003,0.00042,5e-05,-0.00047,-0.00029,-3e-05,4,26
18195,5e-05,8e-05,0.0003,0.00042,5e-05,-0.00047,-0.00029,-3e-05,4,26
18196,-3e-05,-0.00015,-0.00041,0.00032,-0.00014,-0.00056,5e-05,2e-05,4,26
18197,7e-05,0.00016,9e-05,-0.00027,-0.0002,0.00012,4e-05,0,4,26
18198,6e-05,0.00017,0.00058,0.00108,0.00047,0.00016,-0.00012,-4e-05,4,26
18199,6e-05,0.00017,0.00058,0.00108,0.00047,0.00016,-0.00012,-4e-05,4,26
18200,6e-05,0.00017,0.00058,0.00108,0.00047,0.00016,-0.00012,-4e-05,4,26
18201,6e-05,0.00017,0.00058,0.00108,0.00047,0.00016,-0.00012,-4e-05,4,26
18202,6e-05,0.00017,0.00058,0.00108,0.00047,0.00016,-0.00012,-4e-05,4,26
18203,6e-05,0.00017,0.00058,0.00108,0.00047,0.00016,-0.00012,-4e-05,4,26
18204,6e-05,0.00017,0.00058,0.00108,0.00047,0.00016,-0.00012,-4e-05,4,26
18205,6e-05,0.00017,0.00058,0.00108,0.00047,0.00016,-0.00012,-4e-05,4,26
18206,6e-05,0.00017,0.00058,0.00108,0.00047,0.00016,-0.00012,-4e-05,4,26
18207,6e-05,0.00017,0.00058,0.00108,0.00047,0.00016,-0.00012,-4e-05,4,26
18208,6e-05,0.00017,0.00058,0.00108,0.00047,0.00016,-0.00012,-4e-05,4,26
18209,6e-05,0.00017,0.00058,0.00108,0.00047,0.00016,-0.00012,-4e-05,4,26
18210,6e-05,0.00017,0.00058,0.00108,0.00047,0.00016,-0.00012,-4e-05,4,26
18211,6e-05,0.00017,0.00058,0.00108,0.00047,0.00016,-0.00012,-4e-05,4,26
18212,6e-05,0.00017,0.00058,0.00108,0.00047,0.00016,-0.00012,-4e-05,4,26
18214,6e-05,0.00017,0.00058,0.00108,0.00047,0.00016,-0.00012,-4e-05,4,26
18215,6e-05,0.00017,0.00058,0.00108,0.00047,0.00016,-0.00012,-4e-05,4,26
18216,6e-05,0.00017,0.00058,0.00108,0.00047,0.00016,-0.00012,-4e-05,4,26
18217,6e-05,0.00017,0.00058,0.00108,0.00047,0.00016,-0.00012,-4e-05,4,26
18218,6e-05,0.00017,0.00058,0.00108,0.00047,0.00016,-0.00012,-4e-05,4,26
18219,-4e-05,-5e-05,9e-05,0.00012,-0.00046,-8e-05,3e-05,-3e-05,4,26
18221,-4e-05,-5e-05,9e-05,0.00012,-0.00046,-8e-05,3e-05,-3e-05,4,26
18222,-4e-05,-5e-05,9e-05,0.00012,-0.00046,-8e-05,3e-05,-3e-05,4,26
18223,-4e-05,-5e-05,9e-05,0.00012,-0.00046,-8e-05,3e-05,-3e-05,4,26
18224,-4e-05,-5e-05,9e-05,0.00012,-0.00046,-8e-05,3e-05,-3e-05,4,26
18225,-4e-05,-5e-05,9e-05,0.00012,-0.00046,-8e-05,3e-05,-3e-05,4,26
18226,-4e-05,-5e-05,9e-05,0.00012,-0.00046,-8e-05,3e-05,-3e-05,4,26
18227,-4e-05,-5e-05,9e-05,0.00012,-0.00046,-8e-05,3e-05,-3e-05,4,26
18228,-4e-05,-5e-05,9e-05,0.00012,-0.00046,-8e-05,3e-05,-3e-05,4,26
18229,-4e-05,-5e-05,9e-05,0.00012,-0.00046,-8e-05,3e-05,-3e-05,4,26
18230,-4e-05,-5e-05,9e-05,0.00012,-0.00046,-8e-05,3e-05,-3e-05,4,26
18231,-4e-05,-5e-05,9e-05,0.00012,-0.00046,-8e-05,3e-05,-3e-05,4,26
18232,2e-05,6e-05,0.00035,0.0005,0.0001,0.00032,0.00011,6e-05,4,26
18233,2e-05,6e-05,0.00035,0.0005,0.0001,0.00032,0.00011,6e-05,4,26
18234,2e-05,6e-05,0.00035,0.0005,0.0001,0.00032,0.00011,6e-05,4,26
18235,2e-05,6e-05,0.00035,0.0005,0.0001,0.00032,0.00011,6e-05,4,26
18236,2e-05,6e-05,0.00035,0.0005,0.0001,0.00032,0.00011,6e-05,4,26
18238,2e-05,6e-05,0.00035,0.0005,0.0001,0.00032,0.00011,6e-05,4,26
18239,2e-05,6e-05,0.00035,0.0005,0.0001,0.00032,0.00011,6e-05,4,26
18240,2e-05,6e-05,0.00035,0.0005,0.0001,0.00032,0.00011,6e-05,4,26
18241,2e-05,6e-05,0.00035,0.0005,0.0001,0.00032,0.00011,6e-05,4,26
18242,2e-05,6e-05,0.00035,0.0005,0.0001,0.00032,0.00011,6e-05,4,26
18243,-5e-05,-7e-05,6e-05,0.00033,0.0004,0.00029,-2e-05,-3e-05,4,26
18244,-5e-05,-7e-05,6e-05,0.00033,0.0004,0.00029,-2e-05,-3e-05,4,26
18245,-5e-05,-7e-05,6e-05,0.00033,0.0004,0.00029,-2e-05,-3e-05,4,26
18246,-5e-05,-7e-05,6e-05,0.00033,0.0004,0.00029,-2e-05,-3e-05,4,26
18247,-5e-05,-7e-05,6e-05,0.00033,0.0004,0.00029,-2e-05,-3e-05,4,26
18248,-5e-05,-7e-05,6e-05,0.00033,0.0004,0.00029,-2e-05,-3e-05,4,26
18249,-5e-05,-7e-05,6e-05,0.00033,0.0004,0.00029,-2e-05,-3e-05,4,26
18250,-5e-05,-7e-05,6e-05,0.00033,0.0004,0.00029,-2e-05,-3e-05,4,26
18251,-5e-05,-7e-05,6e-05,0.00033,0.0004,0.00029,-2e-05,-3e-05,4,26
18252,-5e-05,-7e-05,6e-05,0.00033,0.0004,0.00029,-2e-05,-3e-05,4,26
18253,-5e-05,-7e-05,6e-05,0.00033,0.0004,0.00029,-2e-05,-3e-05,4,26
18254,-5e-05,-7e-05,6e-05,0.00033,0.0004,0.00029,-2e-05,-3e-05,4,26
18255,-5e-05,-7e-05,6e-05,0.00033,0.0004,0.00029,-2e-05,-3e-05,4,26
18256,0.00017,0.00023,0.00037,0.00091,0.00106,0.00094,0.00036,0.00024,4,26
18257,0.00017,0.00023,0.00037,0.00091,0.00106,0.00094,0.00036,0.00024,4,26
18258,-4e-05,-8e-05,-0.00012,-9e-05,-0.00044,0.00011,0.00011,1e-05,4,26
18259,-4e-05,-8e-05,-0.00012,-9e-05,-0.00044,0.00011,0.00011,1e-05,4,26
18260,-4e-05,-8e-05,-0.00012,-9e-05,-0.00044,0.00011,0.00011,1e-05,4,26
18261,-4e-05,-8e-05,-0.00012,-9e-05,-0.00044,0.00011,0.00011,1e-05,4,26
18262,-4e-05,-8e-05,-0.00012,-9e-05,-0.00044,0.00011,0.00011,1e-05,4,26
18263,-4e-05,-8e-05,-0.00012,-9e-05,-0.00044,0.00011,0.00011,1e-05,4,26
18264,-4e-05,-8e-05,-0.00012,-9e-05,-0.00044,0.00011,0.00011,1e-05,4,26
18265,-4e-05,-8e-05,-0.00012,-9e-05,-0.00044,0.00011,0.00011,1e-05,4,26
18266,-4e-05,-8e-05,-0.00012,-9e-05,-0.00044,0.00011,0.00011,1e-05,4,26
18267,-4e-05,-8e-05,-0.00012,-9e-05,-0.00044,0.00011,0.00011,1e-05,4,26
18268,-4e-05,-8e-05,-0.00012,-9e-05,-0.00044,0.00011,0.00011,1e-05,4,26
18269,-4e-05,-8e-05,-0.00012,-9e-05,-0.00044,0.00011,0.00011,1e-05,4,26
18270,-4e-05,-8e-05,-0.00012,-9e-05,-0.00044,0.00011,0.00011,1e-05,4,26
18271,-4e-05,-8e-05,-0.00012,-9e-05,-0.00044,0.00011,0.00011,1e-05,4,26
18272,-4e-05,-8e-05,-0.00012,-9e-05,-0.00044,0.00011,0.00011,1e-05,4,26
18273,-4e-05,-8e-05,-0.00012,-9e-05,-0.00044,0.00011,0.00011,1e-05,4,26
18274,-4e-05,-8e-05,-0.00012,-9e-05,-0.00044,0.00011,0.00011,1e-05,4,26
18275,-4e-05,-8e-05,-0.00012,-9e-05,-0.00044,0.00011,0.00011,1e-05,4,26
18276,-4e-05,-8e-05,-0.00012,-9e-05,-0.00044,0.00011,0.00011,1e-05,4,26
18277,-4e-05,-8e-05,-0.00012,-9e-05,-0.00044,0.00011,0.00011,1e-05,4,26
18278,-4e-05,-8e-05,-0.00012,-9e-05,-0.00044,0.00011,0.00011,1e-05,4,26
18279,-9e-05,4e-05,0.00016,3e-05,-0.00103,-0.00045,1e-05,-0.0001,4,26
18280,-3e-05,-0.00014,-0.00058,-0.00091,-0.0002,-0.00054,-3e-05,-2e-05,4,26
18281,-3e-05,-0.00014,-0.00058,-0.00091,-0.0002,-0.00054,-3e-05,-2e-05,4,26
18282,-3e-05,-0.00014,-0.00058,-0.00091,-0.0002,-0.00054,-3e-05,-2e-05,4,26
18283,-3e-05,-0.00014,-0.00058,-0.00091,-0.0002,-0.00054,-3e-05,-2e-05,4,26
18284,-3e-05,-0.00014,-0.00058,-0.00091,-0.0002,-0.00054,-3e-05,-2e-05,4,26
18285,-3e-05,-0.00014,-0.00058,-0.00091,-0.0002,-0.00054,-3e-05,-2e-05,4,26
18286,-3e-05,-0.00014,-0.00058,-0.00091,-0.0002,-0.00054,-3e-05,-2e-05,4,26
18289,-3e-05,-0.00014,-0.00058,-0.00091,-0.0002,-0.00054,-3e-05,-2e-05,4,26
18290,-3e-05,-0.00014,-0.00058,-0.00091,-0.0002,-0.00054,-3e-05,-2e-05,4,26
18291,-3e-05,-0.00014,-0.00058,-0.00091,-0.0002,-0.00054,-3e-05,-2e-05,4,26
18292,-6e-05,1e-05,5e-05,-0.0006,-0.00121,-0.00018,-0.00011,-8e-05,4,26
18293,-6e-05,1e-05,5e-05,-0.0006,-0.00121,-0.00018,-0.00011,-8e-05,4,26
18294,-6e-05,1e-05,5e-05,-0.0006,-0.00121,-0.00018,-0.00011,-8e-05,4,26
18295,-6e-05,1e-05,5e-05,-0.0006,-0.00121,-0.00018,-0.00011,-8e-05,4,26
18296,-6e-05,1e-05,5e-05,-0.0006,-0.00121,-0.00018,-0.00011,-8e-05,4,26
18297,-6e-05,1e-05,5e-05,-0.0006,-0.00121,-0.00018,-0.00011,-8e-05,4,26
18298,-6e-05,1e-05,5e-05,-0.0006,-0.00121,-0.00018,-0.00011,-8e-05,4,26
18299,-6e-05,1e-05,5e-05,-0.0006,-0.00121,-0.00018,-0.00011,-8e-05,4,26
18300,-6e-05,1e-05,5e-05,-0.0006,-0.00121,-0.00018,-0.00011,-8e-05,4,26
18301,7e-05,0.00011,0.00023,-0.00075,-5e-05,0.00058,0.00023,0.00014,4,26
18302,7e-05,0.00011,0.00023,-0.00075,-5e-05,0.00058,0.00023,0.00014,4,26
18303,7e-05,0.00011,0.00023,-0.00075,-5e-05,0.00058,0.00023,0.00014,4,26
18304,7e-05,0.00011,0.00023,-0.00075,-5e-05,0.00058,0.00023,0.00014,4,26
18305,7e-05,0.00011,0.00023,-0.00075,-5e-05,0.00058,0.00023,0.00014,4,26
18306,7e-05,0.00011,0.00023,-0.00075,-5e-05,0.00058,0.00023,0.00014,4,26
18307,7e-05,0.00011,0.00023,-0.00075,-5e-05,0.00058,0.00023,0.00014,4,26
18308,7e-05,0.00011,0.00023,-0.00075,-5e-05,0.00058,0.00023,0.00014,4,26
18309,7e-05,0.00011,0.00023,-0.00075,-5e-05,0.00058,0.00023,0.00014,4,26
18310,7e-05,0.00011,0.00023,-0.00075,-5e-05,0.00058,0.00023,0.00014,4,26
18311,7e-05,0.00011,0.00023,-0.00075,-5e-05,0.00058,0.00023,0.00014,4,26
18312,7e-05,0.00011,0.00023,-0.00075,-5e-05,0.00058,0.00023,0.00014,4,26
18313,7e-05,0.00011,0.00023,-0.00075,-5e-05,0.00058,0.00023,0.00014,4,26
18314,7e-05,0.00011,0.00023,-0.00075,-5e-05,0.00058,0.00023,0.00014,4,26
18315,7e-05,0.00011,0.00023,-0.00075,-5e-05,0.00058,0.00023,0.00014,4,26
18316,-3e-05,-0.00031,-0.00128,-0.001,-0.00043,0.0001,-8e-05,0,4,26
18317,-3e-05,-0.00031,-0.00128,-0.001,-0.00043,0.0001,-8e-05,0,4,26
18318,6e-05,0.00014,0.00057,0.00106,-0.00043,-0.00048,-0.0001,1e-05,4,26
18319,6e-05,0.00014,0.00057,0.00106,-0.00043,-0.00048,-0.0001,1e-05,4,26
18320,6e-05,0.00014,0.00057,0.00106,-0.00043,-0.00048,-0.0001,1e-05,4,26
18321,6e-05,0.00014,0.00057,0.00106,-0.00043,-0.00048,-0.0001,1e-05,4,26
18322,6e-05,0.00014,0.00057,0.00106,-0.00043,-0.00048,-0.0001,1e-05,4,26
18323,6e-05,0.00014,0.00057,0.00106,-0.00043,-0.00048,-0.0001,1e-05,4,26
18324,6e-05,0.00014,0.00057,0.00106,-0.00043,-0.00048,-0.0001,1e-05,4,26
18325,6e-05,0.00014,0.00057,0.00106,-0.00043,-0.00048,-0.0001,1e-05,4,26
18326,6e-05,0.00014,0.00057,0.00106,-0.00043,-0.00048,-0.0001,1e-05,4,26
18327,6e-05,0.00014,0.00057,0.00106,-0.00043,-0.00048,-0.0001,1e-05,4,26
18328,6e-05,0.00014,0.00057,0.00106,-0.00043,-0.00048,-0.0001,1e-05,4,26
18329,6e-05,0.00014,0.00057,0.00106,-0.00043,-0.00048,-0.0001,1e-05,4,26
18330,6e-05,0.00014,0.00057,0.00106,-0.00043,-0.00048,-0.0001,1e-05,4,26
18331,6e-05,0.00014,0.00057,0.00106,-0.00043,-0.00048,-0.0001,1e-05,4,26
18332,6e-05,0.00014,0.00057,0.00106,-0.00043,-0.00048,-0.0001,1e-05,4,26
18333,6e-05,0.00014,0.00057,0.00106,-0.00043,-0.00048,-0.0001,1e-05,4,26
18334,6e-05,0.00014,0.00057,0.00106,-0.00043,-0.00048,-0.0001,1e-05,4,26
18335,6e-05,0.00014,0.00057,0.00106,-0.00043,-0.00048,-0.0001,1e-05,4,26
18336,6e-05,0.00014,0.00057,0.00106,-0.00043,-0.00048,-0.0001,1e-05,4,26
18339,-3e-05,5e-05,0.0001,0.00019,0.00017,-0.00056,-9e-05,-1e-05,4,26
18340,-3e-05,5e-05,0.0001,0.00019,0.00017,-0.00056,-9e-05,-1e-05,4,26
18341,-3e-05,5e-05,0.0001,0.00019,0.00017,-0.00056,-9e-05,-1e-05,4,26
18342,-3e-05,5e-05,0.0001,0.00019,0.00017,-0.00056,-9e-05,-1e-05,4,26
18343,-3e-05,5e-05,0.0001,0.00019,0.00017,-0.00056,-9e-05,-1e-05,4,26
18344,-3e-05,5e-05,0.0001,0.00019,0.00017,-0.00056,-9e-05,-1e-05,4,26
18345,-3e-05,5e-05,0.0001,0.00019,0.00017,-0.00056,-9e-05,-1e-05,4,26
18346,-3e-05,5e-05,0.0001,0.00019,0.00017,-0.00056,-9e-05,-1e-05,4,26
18347,-3e-05,5e-05,0.0001,0.00019,0.00017,-0.00056,-9e-05,-1e-05,4,26
18348,-3e-05,5e-05,0.0001,0.00019,0.00017,-0.00056,-9e-05,-1e-05,4,26
18349,-3e-05,5e-05,0.0001,0.00019,0.00017,-0.00056,-9e-05,-1e-05,4,26
18350,-3e-05,5e-05,0.0001,0.00019,0.00017,-0.00056,-9e-05,-1e-05,4,26
18351,-3e-05,5e-05,0.0001,0.00019,0.00017,-0.00056,-9e-05,-1e-05,4,26
18352,-3e-05,5e-05,0.0001,0.00019,0.00017,-0.00056,-9e-05,-1e-05,4,26
18353,0.00012,0.00041,0.00048,-0.00056,-0.00043,0.0002,3e-05,3e-05,4,26
18354,-9e-05,-0.00041,1e-05,0.00025,-0.00014,-0.00016,-6e-05,-7e-05,4,26
18355,-9e-05,-0.00041,1e-05,0.00025,-0.00014,-0.00016,-6e-05,-7e-05,4,26
18356,-9e-05,-0.00041,1e-05,0.00025,-0.00014,-0.00016,-6e-05,-7e-05,4,26
18357,-9e-05,-0.00041,1e-05,0.00025,-0.00014,-0.00016,-6e-05,-7e-05,4,26
18358,-9e-05,-0.00041,1e-05,0.00025,-0.00014,-0.00016,-6e-05,-7e-05,4,26
18359,-9e-05,-0.00041,1e-05,0.00025,-0.00014,-0.00016,-6e-05,-7e-05,4,26
18360,-9e-05,-0.00041,1e-05,0.00025,-0.00014,-0.00016,-6e-05,-7e-05,4,26
18361,-0.00014,-0.00038,-0.00039,-0.00011,-0.00073,-0.00096,-0.00019,-0.00015,4,26
18362,-0.00014,-0.00038,-0.00039,-0.00011,-0.00073,-0.00096,-0.00019,-0.00015,4,26
18363,-0.00014,-0.00038,-0.00039,-0.00011,-0.00073,-0.00096,-0.00019,-0.00015,4,26
18364,-0.00014,-0.00038,-0.00039,-0.00011,-0.00073,-0.00096,-0.00019,-0.00015,4,26
18365,-0.00014,-0.00038,-0.00039,-0.00011,-0.00073,-0.00096,-0.00019,-0.00015,4,26
18366,-0.00014,-0.00038,-0.00039,-0.00011,-0.00073,-0.00096,-0.00019,-0.00015,4,26
18367,-0.00014,-0.00038,-0.00039,-0.00011,-0.00073,-0.00096,-0.00019,-0.00015,4,26
18368,-0.00014,-0.00038,-0.00039,-0.00011,-0.00073,-0.00096,-0.00019,-0.00015,4,26
18369,-0.00014,-0.00038,-0.00039,-0.00011,-0.00073,-0.00096,-0.00019,-0.00015,4,26
18370,-0.00014,-0.00038,-0.00039,-0.00011,-0.00073,-0.00096,-0.00019,-0.00015,4,26
18371,-0.00014,-0.00038,-0.00039,-0.00011,-0.00073,-0.00096,-0.00019,-0.00015,4,26
18372,-0.00014,-0.00038,-0.00039,-0.00011,-0.00073,-0.00096,-0.00019,-0.00015,4,26
18373,-0.00014,-0.00038,-0.00039,-0.00011,-0.00073,-0.00096,-0.00019,-0.00015,4,26
18374,-0.00014,-0.00038,-0.00039,-0.00011,-0.00073,-0.00096,-0.00019,-0.00015,4,26
18375,4e-05,-3e-05,-0.0004,-0.00067,0.00069,0.00043,0.00027,5e-05,4,26
18376,2e-05,0.00025,0.00047,-0.00068,-0.00071,-0.00036,0.00011,2e-05,4,26
18377,2e-05,0.00025,0.00047,-0.00068,-0.00071,-0.00036,0.00011,2e-05,4,26
18378,2e-05,0.00025,0.00047,-0.00068,-0.00071,-0.00036,0.00011,2e-05,4,26
18379,2e-05,0.00025,0.00047,-0.00068,-0.00071,-0.00036,0.00011,2e-05,4,26
18380,2e-05,0.00025,0.00047,-0.00068,-0.00071,-0.00036,0.00011,2e-05,4,26
18381,2e-05,0.00025,0.00047,-0.00068,-0.00071,-0.00036,0.00011,2e-05,4,26
18382,-8e-05,-0.0001,0.00029,0,-0.00019,0.0001,-2e-05,-8e-05,4,26
18383,-6e-05,0,-5e-05,0.00042,0.00081,-9e-05,-2e-05,-6e-05,4,26
18384,-6e-05,0,-5e-05,0.00042,0.00081,-9e-05,-2e-05,-6e-05,4,26
18385,-6e-05,0,-5e-05,0.00042,0.00081,-9e-05,-2e-05,-6e-05,4,26
18386,-6e-05,0,-5e-05,0.00042,0.00081,-9e-05,-2e-05,-6e-05,4,26
18389,-6e-05,0,-5e-05,0.00042,0.00081,-9e-05,-2e-05,-6e-05,4,26
18390,-6e-05,0,-5e-05,0.00042,0.00081,-9e-05,-2e-05,-6e-05,4,26
18391,-6e-05,0,-5e-05,0.00042,0.00081,-9e-05,-2e-05,-6e-05,4,26
18392,-6e-05,0,-5e-05,0.00042,0.00081,-9e-05,-2e-05,-6e-05,4,26
18393,-6e-05,0,-5e-05,0.00042,0.00081,-9e-05,-2e-05,-6e-05,4,26
18394,-6e-05,0,-5e-05,0.00042,0.00081,-9e-05,-2e-05,-6e-05,4,26
18395,-6e-05,0,-5e-05,0.00042,0.00081,-9e-05,-2e-05,-6e-05,4,26
18396,-6e-05,0,-5e-05,0.00042,0.00081,-9e-05,-2e-05,-6e-05,4,26
18397,-6e-05,0,-5e-05,0.00042,0.00081,-9e-05,-2e-05,-6e-05,4,26
18398,-6e-05,0,-5e-05,0.00042,0.00081,-9e-05,-2e-05,-6e-05,4,26
18399,0.00015,0.0002,0.00025,-0.00052,9e-05,0.001,0.00015,0.00018,4,26
18400,0,2e-05,-0.00022,-0.00025,0.00019,9e-05,0.00034,3e-05,4,26
18401,0,2e-05,-0.00022,-0.00025,0.00019,9e-05,0.00034,3e-05,4,26
18402,0,2e-05,-0.00022,-0.00025,0.00019,9e-05,0.00034,3e-05,4,26
18403,0,2e-05,-0.00022,-0.00025,0.00019,9e-05,0.00034,3e-05,4,26
18404,0,2e-05,-0.00022,-0.00025,0.00019,9e-05,0.00034,3e-05,4,26
18405,0,2e-05,-0.00022,-0.00025,0.00019,9e-05,0.00034,3e-05,4,26
18406,0,2e-05,-0.00022,-0.00025,0.00019,9e-05,0.00034,3e-05,4,26
18407,0,2e-05,-0.00022,-0.00025,0.00019,9e-05,0.00034,3e-05,4,26
18408,0,2e-05,-0.00022,-0.00025,0.00019,9e-05,0.00034,3e-05,4,26
18409,0,2e-05,-0.00022,-0.00025,0.00019,9e-05,0.00034,3e-05,4,26
18410,0,2e-05,-0.00022,-0.00025,0.00019,9e-05,0.00034,3e-05,4,26
18411,0,2e-05,-0.00022,-0.00025,0.00019,9e-05,0.00034,3e-05,4,26
18413,0,2e-05,-0.00022,-0.00025,0.00019,9e-05,0.00034,3e-05,4,26
18414,0,2e-05,-0.00022,-0.00025,0.00019,9e-05,0.00034,3e-05,4,26
18415,0,2e-05,-0.00022,-0.00025,0.00019,9e-05,0.00034,3e-05,4,26
18416,0,2e-05,-0.00022,-0.00025,0.00019,9e-05,0.00034,3e-05,4,26
18417,0,2e-05,-0.00022,-0.00025,0.00019,9e-05,0.00034,3e-05,4,26
18418,0,2e-05,-0.00022,-0.00025,0.00019,9e-05,0.00034,3e-05,4,26
18419,0,2e-05,-0.00022,-0.00025,0.00019,9e-05,0.00034,3e-05,4,26
18420,0,2e-05,-0.00022,-0.00025,0.00019,9e-05,0.00034,3e-05,4,26
18421,9e-05,0.0003,0.0007,0.00087,0.00057,-5e-05,4e-05,2e-05,4,26
18422,9e-05,0.0003,0.0007,0.00087,0.00057,-5e-05,4e-05,2e-05,4,26
18423,0.00023,0.00025,0.00037,0.00082,0.00127,0.00096,0.00055,0.00033,4,26
18424,0.00023,0.00025,0.00037,0.00082,0.00127,0.00096,0.00055,0.00033,4,26
18425,0.00023,0.00025,0.00037,0.00082,0.00127,0.00096,0.00055,0.00033,4,26
18426,0.00023,0.00025,0.00037,0.00082,0.00127,0.00096,0.00055,0.00033,4,26
18427,0.00023,0.00025,0.00037,0.00082,0.00127,0.00096,0.00055,0.00033,4,26
18428,0.00023,0.00025,0.00037,0.00082,0.00127,0.00096,0.00055,0.00033,4,26
18429,0.00023,0.00025,0.00037,0.00082,0.00127,0.00096,0.00055,0.00033,4,26
18430,0.00023,0.00025,0.00037,0.00082,0.00127,0.00096,0.00055,0.00033,4,26
18431,0.00023,0.00025,0.00037,0.00082,0.00127,0.00096,0.00055,0.00033,4,26
18432,0.00023,0.00025,0.00037,0.00082,0.00127,0.00096,0.00055,0.00033,4,26
18433,0.00023,0.00025,0.00037,0.00082,0.00127,0.00096,0.00055,0.00033,4,26
18434,0.00023,0.00025,0.00037,0.00082,0.00127,0.00096,0.00055,0.00033,4,26
18435,-0.00011,-0.00036,-0.00082,-0.00035,-0.00015,-0.00089,-0.00016,-8e-05,4,26
18436,-1e-05,-0.00024,-0.00101,-0.00106,-0.00104,-0.00025,7e-05,2e-05,4,26
18439,-1e-05,-0.00024,-0.00101,-0.00106,-0.00104,-0.00025,7e-05,2e-05,4,26
18440,-1e-05,-0.00024,-0.00101,-0.00106,-0.00104,-0.00025,7e-05,2e-05,4,26
18441,-1e-05,-0.00024,-0.00101,-0.00106,-0.00104,-0.00025,7e-05,2e-05,4,26
18442,-7e-05,-0.00013,0.00036,0.00053,0.00039,-0.00028,-8e-05,-6e-05,4,26
18443,-7e-05,-0.00013,0.00036,0.00053,0.00039,-0.00028,-8e-05,-6e-05,4,26
18444,-7e-05,-0.00013,0.00036,0.00053,0.00039,-0.00028,-8e-05,-6e-05,4,26
18445,-7e-05,-0.00013,0.00036,0.00053,0.00039,-0.00028,-8e-05,-6e-05,4,26
18446,-7e-05,-0.00013,0.00036,0.00053,0.00039,-0.00028,-8e-05,-6e-05,4,26
18447,-7e-05,-0.00013,0.00036,0.00053,0.00039,-0.00028,-8e-05,-6e-05,4,26
18448,-7e-05,-0.00013,0.00036,0.00053,0.00039,-0.00028,-8e-05,-6e-05,4,26
18449,-7e-05,-0.00013,0.00036,0.00053,0.00039,-0.00028,-8e-05,-6e-05,4,26
18450,-7e-05,-0.00013,0.00036,0.00053,0.00039,-0.00028,-8e-05,-6e-05,4,26
18451,-7e-05,-0.00013,0.00036,0.00053,0.00039,-0.00028,-8e-05,-6e-05,4,26
18452,-7e-05,-0.00013,0.00036,0.00053,0.00039,-0.00028,-8e-05,-6e-05,4,26
18453,-7e-05,-0.00013,0.00036,0.00053,0.00039,-0.00028,-8e-05,-6e-05,4,26
18454,-7e-05,-0.00013,0.00036,0.00053,0.00039,-0.00028,-8e-05,-6e-05,4,26
18455,-7e-05,-0.00013,0.00036,0.00053,0.00039,-0.00028,-8e-05,-6e-05,4,26
18456,-7e-05,-0.00013,0.00036,0.00053,0.00039,-0.00028,-8e-05,-6e-05,4,26
18457,-7e-05,-0.00013,0.00036,0.00053,0.00039,-0.00028,-8e-05,-6e-05,4,26
18458,-7e-05,-0.00013,0.00036,0.00053,0.00039,-0.00028,-8e-05,-6e-05,4,26
18459,-7e-05,-0.00013,0.00036,0.00053,0.00039,-0.00028,-8e-05,-6e-05,4,26
18460,-8e-05,6e-05,0.00046,0.00045,0.00034,-0.00025,-0.00023,-9e-05,4,26
18461,0,-0.00048,-0.00089,-0.00083,-0.00058,-7e-05,-5e-05,-1e-05,4,26
18462,-0.00025,-0.00044,-0.00109,-0.00128,-0.00116,-0.00072,-0.00023,-0.00017,4,26
18463,-0.00025,-0.00044,-0.00109,-0.00128,-0.00116,-0.00072,-0.00023,-0.00017,4,26
18464,-0.00025,-0.00044,-0.00109,-0.00128,-0.00116,-0.00072,-0.00023,-0.00017,4,26
18465,-0.00025,-0.00044,-0.00109,-0.00128,-0.00116,-0.00072,-0.00023,-0.00017,4,26
18466,-0.00025,-0.00044,-0.00109,-0.00128,-0.00116,-0.00072,-0.00023,-0.00017,4,26
18467,-0.00025,-0.00044,-0.00109,-0.00128,-0.00116,-0.00072,-0.00023,-0.00017,4,26
18468,-0.00025,-0.00044,-0.00109,-0.00128,-0.00116,-0.00072,-0.00023,-0.00017,4,26
18469,-0.00025,-0.00044,-0.00109,-0.00128,-0.00116,-0.00072,-0.00023,-0.00017,4,26
18470,-0.00025,-0.00044,-0.00109,-0.00128,-0.00116,-0.00072,-0.00023,-0.00017,4,26
18471,-0.00025,-0.00044,-0.00109,-0.00128,-0.00116,-0.00072,-0.00023,-0.00017,4,26
18472,-0.00025,-0.00044,-0.00109,-0.00128,-0.00116,-0.00072,-0.00023,-0.00017,4,26
18473,-0.00025,-0.00044,-0.00109,-0.00128,-0.00116,-0.00072,-0.00023,-0.00017,4,26
18474,-0.00025,-0.00044,-0.00109,-0.00128,-0.00116,-0.00072,-0.00023,-0.00017,4,26
18475,-0.00025,-0.00044,-0.00109,-0.00128,-0.00116,-0.00072,-0.00023,-0.00017,4,26
18476,-0.00025,-0.00044,-0.00109,-0.00128,-0.00116,-0.00072,-0.00023,-0.00017,4,26
18477,-0.00025,-0.00044,-0.00109,-0.00128,-0.00116,-0.00072,-0.00023,-0.00017,4,26
18478,-0.00025,-0.00044,-0.00109,-0.00128,-0.00116,-0.00072,-0.00023,-0.00017,4,26
18479,-0.00025,-0.00044,-0.00109,-0.00128,-0.00116,-0.00072,-0.00023,-0.00017,4,26
18480,-0.00025,-0.00044,-0.00109,-0.00128,-0.00116,-0.00072,-0.00023,-0.00017,4,26
18481,2e-05,4e-05,-0.00011,0.00019,2e-05,-0.00022,-0.0001,-6e-05,4,26
18482,2e-05,4e-05,-0.00011,0.00019,2e-05,-0.00022,-0.0001,-6e-05,4,26
18483,-1e-05,0.00013,0.00074,0.00034,-0.00031,-0.00058,-0.00016,-4e-05,4,26
18484,-1e-05,0.00013,0.00074,0.00034,-0.00031,-0.00058,-0.00016,-4e-05,4,26
18485,-1e-05,0.00013,0.00074,0.00034,-0.00031,-0.00058,-0.00016,-4e-05,4,26
18486,-1e-05,0.00013,0.00074,0.00034,-0.00031,-0.00058,-0.00016,-4e-05,4,26
18489,-1e-05,0.00013,0.00074,0.00034,-0.00031,-0.00058,-0.00016,-4e-05,4,26
18490,-1e-05,0.00013,0.00074,0.00034,-0.00031,-0.00058,-0.00016,-4e-05,4,26
18491,-1e-05,0.00013,0.00074,0.00034,-0.00031,-0.00058,-0.00016,-4e-05,4,26
18492,-1e-05,0.00013,0.00074,0.00034,-0.00031,-0.00058,-0.00016,-4e-05,4,26
18493,-1e-05,0.00013,0.00074,0.00034,-0.00031,-0.00058,-0.00016,-4e-05,4,26
18494,-1e-05,0.00013,0.00074,0.00034,-0.00031,-0.00058,-0.00016,-4e-05,4,26
18495,-9e-05,-0.0004,-0.00068,-7e-05,-0.00034,0.00022,-0.00022,-8e-05,4,26
18496,-0.00011,-0.00021,-0.00025,0.00057,0.00042,0.00017,-0.00015,-0.00013,4,26
18497,-0.00011,-0.00021,-0.00025,0.00057,0.00042,0.00017,-0.00015,-0.00013,4,26
18498,-0.00011,-0.00021,-0.00025,0.00057,0.00042,0.00017,-0.00015,-0.00013,4,26
18499,-0.00011,-0.00021,-0.00025,0.00057,0.00042,0.00017,-0.00015,-0.00013,4,26
18500,-0.00011,-0.00021,-0.00025,0.00057,0.00042,0.00017,-0.00015,-0.00013,4,26
18501,-0.00011,-0.00021,-0.00025,0.00057,0.00042,0.00017,-0.00015,-0.00013,4,26
18502,9e-05,0.00037,0.00098,0.0007,-5e-05,-0.00044,-0.0002,-3e-05,4,26
18503,9e-05,0.00037,0.00098,0.0007,-5e-05,-0.00044,-0.0002,-3e-05,4,26
18504,9e-05,0.00037,0.00098,0.0007,-5e-05,-0.00044,-0.0002,-3e-05,4,26
18505,9e-05,0.00037,0.00098,0.0007,-5e-05,-0.00044,-0.0002,-3e-05,4,26
18506,9e-05,0.00037,0.00098,0.0007,-5e-05,-0.00044,-0.0002,-3e-05,4,26
18507,9e-05,0.00037,0.00098,0.0007,-5e-05,-0.00044,-0.0002,-3e-05,4,26
18508,9e-05,0.00037,0.00098,0.0007,-5e-05,-0.00044,-0.0002,-3e-05,4,26
18509,9e-05,0.00037,0.00098,0.0007,-5e-05,-0.00044,-0.0002,-3e-05,4,26
18510,9e-05,0.00037,0.00098,0.0007,-5e-05,-0.00044,-0.0002,-3e-05,4,26
18511,9e-05,0.00037,0.00098,0.0007,-5e-05,-0.00044,-0.0002,-3e-05,4,26
18512,9e-05,0.00037,0.00098,0.0007,-5e-05,-0.00044,-0.0002,-3e-05,4,26
18513,9e-05,0.00037,0.00098,0.0007,-5e-05,-0.00044,-0.0002,-3e-05,4,26
18514,9e-05,0.00037,0.00098,0.0007,-5e-05,-0.00044,-0.0002,-3e-05,4,26
18515,9e-05,0.00037,0.00098,0.0007,-5e-05,-0.00044,-0.0002,-3e-05,4,26
18516,9e-05,0.00037,0.00098,0.0007,-5e-05,-0.00044,-0.0002,-3e-05,4,26
18517,9e-05,0.00037,0.00098,0.0007,-5e-05,-0.00044,-0.0002,-3e-05,4,26
18518,9e-05,0.00037,0.00098,0.0007,-5e-05,-0.00044,-0.0002,-3e-05,4,26
18519,-9e-05,-0.00048,-0.00082,-0.00046,0.00013,0.00024,7e-05,-4e-05,4,26
18520,-4e-05,-1e-05,-0.00032,0.00027,-6e-05,0.00037,-0.00018,-9e-05,4,26
18521,-4e-05,-1e-05,-0.00032,0.00027,-6e-05,0.00037,-0.00018,-9e-05,4,26
18522,-4e-05,-1e-05,-0.00032,0.00027,-6e-05,0.00037,-0.00018,-9e-05,4,26
18523,-4e-05,-1e-05,-0.00032,0.00027,-6e-05,0.00037,-0.00018,-9e-05,4,26
18524,-4e-05,-1e-05,-0.00032,0.00027,-6e-05,0.00037,-0.00018,-9e-05,4,26
18525,-4e-05,-1e-05,-0.00032,0.00027,-6e-05,0.00037,-0.00018,-9e-05,4,26
18526,-4e-05,-1e-05,-0.00032,0.00027,-6e-05,0.00037,-0.00018,-9e-05,4,26
18527,-4e-05,-1e-05,-0.00032,0.00027,-6e-05,0.00037,-0.00018,-9e-05,4,26
18528,-4e-05,-1e-05,-0.00032,0.00027,-6e-05,0.00037,-0.00018,-9e-05,4,26
18529,-4e-05,-1e-05,-0.00032,0.00027,-6e-05,0.00037,-0.00018,-9e-05,4,26
18530,-4e-05,-1e-05,-0.00032,0.00027,-6e-05,0.00037,-0.00018,-9e-05,4,26
18531,-4e-05,-1e-05,-0.00032,0.00027,-6e-05,0.00037,-0.00018,-9e-05,4,26
18532,-4e-05,-1e-05,-0.00032,0.00027,-6e-05,0.00037,-0.00018,-9e-05,4,26
18533,-4e-05,-1e-05,-0.00032,0.00027,-6e-05,0.00037,-0.00018,-9e-05,4,26
18534,-4e-05,-1e-05,-0.00032,0.00027,-6e-05,0.00037,-0.00018,-9e-05,4,26
18535,-4e-05,-1e-05,-0.00032,0.00027,-6e-05,0.00037,-0.00018,-9e-05,4,26
18536,-4e-05,-1e-05,-0.00032,0.00027,-6e-05,0.00037,-0.00018,-9e-05,4,26
18539,-4e-05,-1e-05,-0.00032,0.00027,-6e-05,0.00037,-0.00018,-9e-05,4,26
18540,-4e-05,-1e-05,-0.00032,0.00027,-6e-05,0.00037,-0.00018,-9e-05,4,26
18541,-4e-05,-1e-05,-0.00032,0.00027,-6e-05,0.00037,-0.00018,-9e-05,4,26
18542,3e-05,-4e-05,1e-05,2e-05,0.00051,0.00076,0.00025,7e-05,4,26
18543,-0.00013,-0.00021,-0.00048,0.00035,0.0008,6e-05,-4e-05,-9e-05,4,26
18544,-0.00013,-0.00021,-0.00048,0.00035,0.0008,6e-05,-4e-05,-9e-05,4,26
18545,-0.00013,-0.00021,-0.00048,0.00035,0.0008,6e-05,-4e-05,-9e-05,4,26
18546,-0.00013,-0.00021,-0.00048,0.00035,0.0008,6e-05,-4e-05,-9e-05,4,26
18547,-0.00013,-0.00021,-0.00048,0.00035,0.0008,6e-05,-4e-05,-9e-05,4,26
18548,-0.00013,-0.00021,-0.00048,0.00035,0.0008,6e-05,-4e-05,-9e-05,4,26
18549,-0.00013,-0.00021,-0.00048,0.00035,0.0008,6e-05,-4e-05,-9e-05,4,26
18550,-0.00013,-0.00021,-0.00048,0.00035,0.0008,6e-05,-4e-05,-9e-05,4,26
18551,-0.00013,-0.00021,-0.00048,0.00035,0.0008,6e-05,-4e-05,-9e-05,4,26
18552,-0.00013,-0.00021,-0.00048,0.00035,0.0008,6e-05,-4e-05,-9e-05,4,26
18553,-0.00013,-0.00021,-0.00048,0.00035,0.0008,6e-05,-4e-05,-9e-05,4,26
18554,-0.00013,-0.00021,-0.00048,0.00035,0.0008,6e-05,-4e-05,-9e-05,4,26
18555,-0.00013,2e-05,0.00068,-0.00039,-0.00051,0.00014,-0.00018,-0.0002,4,26
18556,4e-05,4e-05,8e-05,0.0002,0.00109,0.00035,6e-05,0.00013,4,26
18558,4e-05,4e-05,8e-05,0.0002,0.00109,0.00035,6e-05,0.00013,4,26
18559,4e-05,4e-05,8e-05,0.0002,0.00109,0.00035,6e-05,0.00013,4,26
18560,4e-05,4e-05,8e-05,0.0002,0.00109,0.00035,6e-05,0.00013,4,26
18561,4e-05,4e-05,8e-05,0.0002,0.00109,0.00035,6e-05,0.00013,4,26
18562,0.00011,0.00012,6e-05,-0.00027,-0.00066,-0.00048,0.0001,2e-05,4,26
18563,0.00011,0.00012,6e-05,-0.00027,-0.00066,-0.00048,0.0001,2e-05,4,26
18564,0.00011,0.00012,6e-05,-0.00027,-0.00066,-0.00048,0.0001,2e-05,4,26
18565,0.00011,0.00012,6e-05,-0.00027,-0.00066,-0.00048,0.0001,2e-05,4,26
18566,0.00011,0.00012,6e-05,-0.00027,-0.00066,-0.00048,0.0001,2e-05,4,26
18567,0.00011,0.00012,6e-05,-0.00027,-0.00066,-0.00048,0.0001,2e-05,4,26
18569,0.00011,0.00012,6e-05,-0.00027,-0.00066,-0.00048,0.0001,2e-05,4,26
18570,0.00011,0.00012,6e-05,-0.00027,-0.00066,-0.00048,0.0001,2e-05,4,26
18571,0.00011,0.00012,6e-05,-0.00027,-0.00066,-0.00048,0.0001,2e-05,4,26
18572,0.00011,0.00012,6e-05,-0.00027,-0.00066,-0.00048,0.0001,2e-05,4,26
18573,0.00011,0.00012,6e-05,-0.00027,-0.00066,-0.00048,0.0001,2e-05,4,26
18574,0.00011,0.00012,6e-05,-0.00027,-0.00066,-0.00048,0.0001,2e-05,4,26
18575,0.00011,0.00012,6e-05,-0.00027,-0.00066,-0.00048,0.0001,2e-05,4,26
18576,0.00011,0.00012,6e-05,-0.00027,-0.00066,-0.00048,0.0001,2e-05,4,26
18577,0.00011,0.00012,6e-05,-0.00027,-0.00066,-0.00048,0.0001,2e-05,4,26
18578,0.00011,0.00012,6e-05,-0.00027,-0.00066,-0.00048,0.0001,2e-05,4,26
18579,5e-05,0.00014,0.00042,0.00069,-0.00056,0.0003,7e-05,4e-05,4,26
18580,5e-05,0.00014,0.00042,0.00069,-0.00056,0.0003,7e-05,4e-05,4,26
18581,-7e-05,-0.00016,-0.00041,-0.0002,-0.00059,0.00026,-7e-05,2e-05,4,26
18582,-7e-05,-0.00016,-0.00041,-0.0002,-0.00059,0.00026,-7e-05,2e-05,4,26
18583,-7e-05,-0.00016,-0.00041,-0.0002,-0.00059,0.00026,-7e-05,2e-05,4,26
18584,-7e-05,-0.00016,-0.00041,-0.0002,-0.00059,0.00026,-7e-05,2e-05,4,26
18585,-7e-05,-0.00016,-0.00041,-0.0002,-0.00059,0.00026,-7e-05,2e-05,4,26
18586,-7e-05,-0.00016,-0.00041,-0.0002,-0.00059,0.00026,-7e-05,2e-05,4,26
18589,-7e-05,-0.00016,-0.00041,-0.0002,-0.00059,0.00026,-7e-05,2e-05,4,26
18590,-7e-05,-0.00016,-0.00041,-0.0002,-0.00059,0.00026,-7e-05,2e-05,4,26
18591,-7e-05,-0.00016,-0.00041,-0.0002,-0.00059,0.00026,-7e-05,2e-05,4,26
18592,-7e-05,-0.00016,-0.00041,-0.0002,-0.00059,0.00026,-7e-05,2e-05,4,26
18593,-7e-05,-0.00016,-0.00041,-0.0002,-0.00059,0.00026,-7e-05,2e-05,4,26
18594,-7e-05,-0.00016,-0.00041,-0.0002,-0.00059,0.00026,-7e-05,2e-05,4,26
18595,-7e-05,-0.00016,-0.00041,-0.0002,-0.00059,0.00026,-7e-05,2e-05,4,26
18596,-7e-05,-0.00016,-0.00041,-0.0002,-0.00059,0.00026,-7e-05,2e-05,4,26
18597,-7e-05,-0.00016,-0.00041,-0.0002,-0.00059,0.00026,-7e-05,2e-05,4,26
18598,-7e-05,-0.00016,-0.00041,-0.0002,-0.00059,0.00026,-7e-05,2e-05,4,26
18599,-7e-05,-0.00016,-0.00041,-0.0002,-0.00059,0.00026,-7e-05,2e-05,4,26
18600,-7e-05,-0.00016,-0.00041,-0.0002,-0.00059,0.00026,-7e-05,2e-05,4,26
18601,-7e-05,-0.00021,-0.00034,0.00019,0.0002,9e-05,-5e-05,-6e-05,4,26
18602,-7e-05,-0.00021,-0.00034,0.00019,0.0002,9e-05,-5e-05,-6e-05,4,26
18603,0.00014,0.00037,0.00091,0.00112,0.00115,0.00045,-0.00023,2e-05,4,26
18604,0.00014,0.00037,0.00091,0.00112,0.00115,0.00045,-0.00023,2e-05,4,26
18605,0.00014,0.00037,0.00091,0.00112,0.00115,0.00045,-0.00023,2e-05,4,26
18606,0.00014,0.00037,0.00091,0.00112,0.00115,0.00045,-0.00023,2e-05,4,26
18607,0.00014,0.00037,0.00091,0.00112,0.00115,0.00045,-0.00023,2e-05,4,26
18608,0.00014,0.00037,0.00091,0.00112,0.00115,0.00045,-0.00023,2e-05,4,26
18609,0.00014,0.00037,0.00091,0.00112,0.00115,0.00045,-0.00023,2e-05,4,26
18610,0.00014,0.00037,0.00091,0.00112,0.00115,0.00045,-0.00023,2e-05,4,26
18611,0.00014,0.00037,0.00091,0.00112,0.00115,0.00045,-0.00023,2e-05,4,26
18612,0.00014,0.00037,0.00091,0.00112,0.00115,0.00045,-0.00023,2e-05,4,26
18613,0.00014,0.00037,0.00091,0.00112,0.00115,0.00045,-0.00023,2e-05,4,26
18614,0.00014,0.00037,0.00091,0.00112,0.00115,0.00045,-0.00023,2e-05,4,26
18615,0.00014,0.00037,0.00091,0.00112,0.00115,0.00045,-0.00023,2e-05,4,26
18616,0,-0.00023,-0.00075,-0.0005,-7e-05,-0.00098,-2e-05,3e-05,4,26
18617,0,-0.00023,-0.00075,-0.0005,-7e-05,-0.00098,-2e-05,3e-05,4,26
18618,0,-0.00023,-0.00075,-0.0005,-7e-05,-0.00098,-2e-05,3e-05,4,26
18619,0,-0.00023,-0.00075,-0.0005,-7e-05,-0.00098,-2e-05,3e-05,4,26
18620,0,-0.00023,-0.00075,-0.0005,-7e-05,-0.00098,-2e-05,3e-05,4,26
18621,0,-0.00023,-0.00075,-0.0005,-7e-05,-0.00098,-2e-05,3e-05,4,26
18622,0,-0.00023,-0.00075,-0.0005,-7e-05,-0.00098,-2e-05,3e-05,4,26
18623,0,-0.00023,-0.00075,-0.0005,-7e-05,-0.00098,-2e-05,3e-05,4,26
18624,0,-0.00023,-0.00075,-0.0005,-7e-05,-0.00098,-2e-05,3e-05,4,26
18625,0,-0.00023,-0.00075,-0.0005,-7e-05,-0.00098,-2e-05,3e-05,4,26
18626,0,-0.00023,-0.00075,-0.0005,-7e-05,-0.00098,-2e-05,3e-05,4,26
18627,0,-0.00023,-0.00075,-0.0005,-7e-05,-0.00098,-2e-05,3e-05,4,26
18628,0,-0.00023,-0.00075,-0.0005,-7e-05,-0.00098,-2e-05,3e-05,4,26
18629,0,-0.00023,-0.00075,-0.0005,-7e-05,-0.00098,-2e-05,3e-05,4,26
18630,-7e-05,-0.0001,-0.00022,7e-05,-0.00024,0.00014,-0.00014,-0.00011,4,26
18631,-7e-05,-0.0001,-0.00022,7e-05,-0.00024,0.00014,-0.00014,-0.00011,4,26
18632,-7e-05,-0.0001,-0.00022,7e-05,-0.00024,0.00014,-0.00014,-0.00011,4,26
18633,-7e-05,-0.0001,-0.00022,7e-05,-0.00024,0.00014,-0.00014,-0.00011,4,26
18634,-7e-05,-0.0001,-0.00022,7e-05,-0.00024,0.00014,-0.00014,-0.00011,4,26
18635,-7e-05,-0.0001,-0.00022,7e-05,-0.00024,0.00014,-0.00014,-0.00011,4,26
18636,-7e-05,-0.0001,-0.00022,7e-05,-0.00024,0.00014,-0.00014,-0.00011,4,26
18638,-7e-05,-0.0001,-0.00022,7e-05,-0.00024,0.00014,-0.00014,-0.00011,4,26
18640,-0.0002,-0.0004,-0.00059,-0.00069,-0.00034,-0.00037,-0.00023,-0.00019,4,26
18641,0.00012,-2e-05,-0.00051,-0.0002,0.00055,0.00098,0.00034,0.00019,4,26
18642,0.00012,-2e-05,-0.00051,-0.0002,0.00055,0.00098,0.00034,0.00019,4,26
18643,0.00012,-2e-05,-0.00051,-0.0002,0.00055,0.00098,0.00034,0.00019,4,26
18644,0.00012,-2e-05,-0.00051,-0.0002,0.00055,0.00098,0.00034,0.00019,4,26
18645,0.00012,-2e-05,-0.00051,-0.0002,0.00055,0.00098,0.00034,0.00019,4,26
18646,0.00012,-2e-05,-0.00051,-0.0002,0.00055,0.00098,0.00034,0.00019,4,26
18647,0.00012,-2e-05,-0.00051,-0.0002,0.00055,0.00098,0.00034,0.00019,4,26
18648,0.00012,-2e-05,-0.00051,-0.0002,0.00055,0.00098,0.00034,0.00019,4,26
18649,0.00012,-2e-05,-0.00051,-0.0002,0.00055,0.00098,0.00034,0.00019,4,26
18650,0.00012,-2e-05,-0.00051,-0.0002,0.00055,0.00098,0.00034,0.00019,4,26
18651,0.00012,-2e-05,-0.00051,-0.0002,0.00055,0.00098,0.00034,0.00019,4,26
18652,0.00012,-2e-05,-0.00051,-0.0002,0.00055,0.00098,0.00034,0.00019,4,26
18653,0.00012,-2e-05,-0.00051,-0.0002,0.00055,0.00098,0.00034,0.00019,4,26
18654,0.00012,-2e-05,-0.00051,-0.0002,0.00055,0.00098,0.00034,0.00019,4,26
18655,0.00012,-2e-05,-0.00051,-0.0002,0.00055,0.00098,0.00034,0.00019,4,26
18656,0.00012,-2e-05,-0.00051,-0.0002,0.00055,0.00098,0.00034,0.00019,4,26
18657,0.00012,-2e-05,-0.00051,-0.0002,0.00055,0.00098,0.00034,0.00019,4,26
18658,0.00012,-2e-05,-0.00051,-0.0002,0.00055,0.00098,0.00034,0.00019,4,26
18659,0.00012,-2e-05,-0.00051,-0.0002,0.00055,0.00098,0.00034,0.00019,4,26
18660,0.00012,-2e-05,-0.00051,-0.0002,0.00055,0.00098,0.00034,0.00019,4,26
18661,7e-05,7e-05,0.00031,0.00042,-0.0004,-0.00058,-1e-05,3e-05,4,26
18662,7e-05,7e-05,0.00031,0.00042,-0.0004,-0.00058,-1e-05,3e-05,4,26
18663,-6e-05,-7e-05,-0.00013,-0.00071,-0.00058,0.00014,-0.00012,-8e-05,4,26
18664,-6e-05,-7e-05,-0.00013,-0.00071,-0.00058,0.00014,-0.00012,-8e-05,4,26
18665,-6e-05,-7e-05,-0.00013,-0.00071,-0.00058,0.00014,-0.00012,-8e-05,4,26
18666,-6e-05,-7e-05,-0.00013,-0.00071,-0.00058,0.00014,-0.00012,-8e-05,4,26
18667,-6e-05,-7e-05,-0.00013,-0.00071,-0.00058,0.00014,-0.00012,-8e-05,4,26
18668,-6e-05,-7e-05,-0.00013,-0.00071,-0.00058,0.00014,-0.00012,-8e-05,4,26
18669,-6e-05,-7e-05,-0.00013,-0.00071,-0.00058,0.00014,-0.00012,-8e-05,4,26
18670,-6e-05,-7e-05,-0.00013,-0.00071,-0.00058,0.00014,-0.00012,-8e-05,4,26
18671,-6e-05,-7e-05,-0.00013,-0.00071,-0.00058,0.00014,-0.00012,-8e-05,4,26
18672,-6e-05,-7e-05,-0.00013,-0.00071,-0.00058,0.00014,-0.00012,-8e-05,4,26
18673,-6e-05,-7e-05,-0.00013,-0.00071,-0.00058,0.00014,-0.00012,-8e-05,4,26
18674,-6e-05,-7e-05,-0.00013,-0.00071,-0.00058,0.00014,-0.00012,-8e-05,4,26
18675,2e-05,0.00014,0.00034,0.00121,0,0.00033,-4e-05,1e-05,4,26
18676,2e-05,0.00014,0.00034,0.00121,0,0.00033,-4e-05,1e-05,4,26
18677,2e-05,0.00014,0.00034,0.00121,0,0.00033,-4e-05,1e-05,4,26
18678,2e-05,0.00014,0.00034,0.00121,0,0.00033,-4e-05,1e-05,4,26
18679,2e-05,0.00014,0.00034,0.00121,0,0.00033,-4e-05,1e-05,4,26
18680,2e-05,0.00014,0.00034,0.00121,0,0.00033,-4e-05,1e-05,4,26
18681,2e-05,0.00014,0.00034,0.00121,0,0.00033,-4e-05,1e-05,4,26
18682,8e-05,0.00018,-0.00034,-0.00024,0.00011,-3e-05,4e-05,6e-05,4,26
18683,8e-05,0.00018,-0.00034,-0.00024,0.00011,-3e-05,4e-05,6e-05,4,26
18684,8e-05,0.00018,-0.00034,-0.00024,0.00011,-3e-05,4e-05,6e-05,4,26
18685,8e-05,0.00018,-0.00034,-0.00024,0.00011,-3e-05,4e-05,6e-05,4,26
18686,8e-05,0.00018,-0.00034,-0.00024,0.00011,-3e-05,4e-05,6e-05,4,26
18689,8e-05,0.00018,-0.00034,-0.00024,0.00011,-3e-05,4e-05,6e-05,4,26
18690,8e-05,0.00018,-0.00034,-0.00024,0.00011,-3e-05,4e-05,6e-05,4,26
18691,8e-05,0.00018,-0.00034,-0.00024,0.00011,-3e-05,4e-05,6e-05,4,26
18693,8e-05,0.00018,-0.00034,-0.00024,0.00011,-3e-05,4e-05,6e-05,4,26
18694,8e-05,0.00018,-0.00034,-0.00024,0.00011,-3e-05,4e-05,6e-05,4,26
18695,8e-05,0.00018,-0.00034,-0.00024,0.00011,-3e-05,4e-05,6e-05,4,26
18696,8e-05,0.00018,-0.00034,-0.00024,0.00011,-3e-05,4e-05,6e-05,4,26
18697,8e-05,0.00018,-0.00034,-0.00024,0.00011,-3e-05,4e-05,6e-05,4,26
18698,8e-05,0.00018,-0.00034,-0.00024,0.00011,-3e-05,4e-05,6e-05,4,26
18699,-0.00012,-0.00024,-0.00081,-0.0007,-0.00109,-0.00022,-9e-05,-7e-05,4,26
18700,-3e-05,-8e-05,0.0002,-0.00039,-0.00013,0.0001,0.00011,0,4,26
18701,-3e-05,-8e-05,0.0002,-0.00039,-0.00013,0.0001,0.00011,0,4,26
18702,-3e-05,-8e-05,0.0002,-0.00039,-0.00013,0.0001,0.00011,0,4,26
18703,-3e-05,-8e-05,0.0002,-0.00039,-0.00013,0.0001,0.00011,0,4,26
18704,-3e-05,-8e-05,0.0002,-0.00039,-0.00013,0.0001,0.00011,0,4,26
18705,-3e-05,-8e-05,0.0002,-0.00039,-0.00013,0.0001,0.00011,0,4,26
18706,-3e-05,-8e-05,0.0002,-0.00039,-0.00013,0.0001,0.00011,0,4,26
18707,-3e-05,-8e-05,0.0002,-0.00039,-0.00013,0.0001,0.00011,0,4,26
18708,-3e-05,-8e-05,0.0002,-0.00039,-0.00013,0.0001,0.00011,0,4,26
18709,-3e-05,-8e-05,0.0002,-0.00039,-0.00013,0.0001,0.00011,0,4,26
18710,-3e-05,-8e-05,0.0002,-0.00039,-0.00013,0.0001,0.00011,0,4,26
18711,-3e-05,-8e-05,0.0002,-0.00039,-0.00013,0.0001,0.00011,0,4,26
18712,-3e-05,-8e-05,0.0002,-0.00039,-0.00013,0.0001,0.00011,0,4,26
18713,-3e-05,-8e-05,0.0002,-0.00039,-0.00013,0.0001,0.00011,0,4,26
18714,-3e-05,-8e-05,0.0002,-0.00039,-0.00013,0.0001,0.00011,0,4,26
18715,-3e-05,-8e-05,0.0002,-0.00039,-0.00013,0.0001,0.00011,0,4,26
18716,-3e-05,-8e-05,0.0002,-0.00039,-0.00013,0.0001,0.00011,0,4,26
18717,-3e-05,-8e-05,0.0002,-0.00039,-0.00013,0.0001,0.00011,0,4,26
18718,-3e-05,-8e-05,0.0002,-0.00039,-0.00013,0.0001,0.00011,0,4,26
18719,-3e-05,-8e-05,0.0002,-0.00039,-0.00013,0.0001,0.00011,0,4,26
18720,-3e-05,-8e-05,0.0002,-0.00039,-0.00013,0.0001,0.00011,0,4,26
18721,-4e-05,5e-05,0.00056,-0.00035,0.00016,-0.00055,-0.00014,-0.00011,4,26
18722,-4e-05,5e-05,0.00056,-0.00035,0.00016,-0.00055,-0.00014,-0.00011,4,26
18723,-0.00021,-0.00037,-0.00041,-0.00015,0.00017,-0.00011,-0.0002,-0.00013,4,26
18724,-0.00021,-0.00037,-0.00041,-0.00015,0.00017,-0.00011,-0.0002,-0.00013,4,26
18725,-0.00021,-0.00037,-0.00041,-0.00015,0.00017,-0.00011,-0.0002,-0.00013,4,26
18726,-0.00021,-0.00037,-0.00041,-0.00015,0.00017,-0.00011,-0.0002,-0.00013,4,26
18727,-0.00021,-0.00037,-0.00041,-0.00015,0.00017,-0.00011,-0.0002,-0.00013,4,26
18728,-0.00021,-0.00037,-0.00041,-0.00015,0.00017,-0.00011,-0.0002,-0.00013,4,26
18729,-0.00021,-0.00037,-0.00041,-0.00015,0.00017,-0.00011,-0.0002,-0.00013,4,26
18730,-0.00021,-0.00037,-0.00041,-0.00015,0.00017,-0.00011,-0.0002,-0.00013,4,26
18731,-0.00021,-0.00037,-0.00041,-0.00015,0.00017,-0.00011,-0.0002,-0.00013,4,26
18732,-0.00021,-0.00037,-0.00041,-0.00015,0.00017,-0.00011,-0.0002,-0.00013,4,26
18733,-0.00021,-0.00037,-0.00041,-0.00015,0.00017,-0.00011,-0.0002,-0.00013,4,26
18734,-0.00021,-0.00037,-0.00041,-0.00015,0.00017,-0.00011,-0.0002,-0.00013,4,26
18735,8e-05,0.0003,0.00045,-0.00015,-0.00035,-1e-05,-0.00014,-4e-05,4,26
18737,8e-05,0.0003,0.00045,-0.00015,-0.00035,-1e-05,-0.00014,-4e-05,4,26
18739,8e-05,0.0003,0.00045,-0.00015,-0.00035,-1e-05,-0.00014,-4e-05,4,26
18740,8e-05,0.0003,0.00045,-0.00015,-0.00035,-1e-05,-0.00014,-4e-05,4,26
18741,8e-05,0.0003,0.00045,-0.00015,-0.00035,-1e-05,-0.00014,-4e-05,4,26
18742,9e-05,8e-05,0.00049,0.00092,0.00054,0.00011,7e-05,0.00013,4,26
18743,9e-05,8e-05,0.00049,0.00092,0.00054,0.00011,7e-05,0.00013,4,26
18744,9e-05,8e-05,0.00049,0.00092,0.00054,0.00011,7e-05,0.00013,4,26
18745,9e-05,8e-05,0.00049,0.00092,0.00054,0.00011,7e-05,0.00013,4,26
18746,9e-05,8e-05,0.00049,0.00092,0.00054,0.00011,7e-05,0.00013,4,26
18747,9e-05,8e-05,0.00049,0.00092,0.00054,0.00011,7e-05,0.00013,4,26
18748,9e-05,8e-05,0.00049,0.00092,0.00054,0.00011,7e-05,0.00013,4,26
18749,9e-05,8e-05,0.00049,0.00092,0.00054,0.00011,7e-05,0.00013,4,26
18750,9e-05,8e-05,0.00049,0.00092,0.00054,0.00011,7e-05,0.00013,4,26
18751,9e-05,8e-05,0.00049,0.00092,0.00054,0.00011,7e-05,0.00013,4,26
18752,9e-05,8e-05,0.00049,0.00092,0.00054,0.00011,7e-05,0.00013,4,26
18753,9e-05,8e-05,0.00049,0.00092,0.00054,0.00011,7e-05,0.00013,4,26
18754,9e-05,8e-05,0.00049,0.00092,0.00054,0.00011,7e-05,0.00013,4,26
18755,9e-05,8e-05,0.00049,0.00092,0.00054,0.00011,7e-05,0.00013,4,26
18756,9e-05,8e-05,0.00049,0.00092,0.00054,0.00011,7e-05,0.00013,4,26
18757,9e-05,8e-05,0.00049,0.00092,0.00054,0.00011,7e-05,0.00013,4,26
18758,9e-05,8e-05,0.00049,0.00092,0.00054,0.00011,7e-05,0.00013,4,26
18759,-0.00019,-0.00033,-0.00062,-4e-05,-0.0004,-0.00128,-0.00043,-0.00025,4,26
18760,-0.00018,-0.00053,-0.00098,-0.00128,-0.00128,-0.00061,-6e-05,-7e-05,4,26
18761,-0.00018,-0.00053,-0.00098,-0.00128,-0.00128,-0.00061,-6e-05,-7e-05,4,26
18762,-0.00018,-0.00053,-0.00098,-0.00128,-0.00128,-0.00061,-6e-05,-7e-05,4,26
18763,-0.00018,-0.00053,-0.00098,-0.00128,-0.00128,-0.00061,-6e-05,-7e-05,4,26
18764,-0.00018,-0.00053,-0.00098,-0.00128,-0.00128,-0.00061,-6e-05,-7e-05,4,26
18765,-0.00018,-0.00053,-0.00098,-0.00128,-0.00128,-0.00061,-6e-05,-7e-05,4,26
18766,-0.00018,-0.00053,-0.00098,-0.00128,-0.00128,-0.00061,-6e-05,-7e-05,4,26
18767,-0.00018,-0.00053,-0.00098,-0.00128,-0.00128,-0.00061,-6e-05,-7e-05,4,26
18768,-0.00018,-0.00053,-0.00098,-0.00128,-0.00128,-0.00061,-6e-05,-7e-05,4,26
18769,-0.00018,-0.00053,-0.00098,-0.00128,-0.00128,-0.00061,-6e-05,-7e-05,4,26
18770,-0.00018,-0.00053,-0.00098,-0.00128,-0.00128,-0.00061,-6e-05,-7e-05,4,26
18771,-0.00018,-0.00053,-0.00098,-0.00128,-0.00128,-0.00061,-6e-05,-7e-05,4,26
18772,-0.00018,-0.00053,-0.00098,-0.00128,-0.00128,-0.00061,-6e-05,-7e-05,4,26
18773,-0.00018,-0.00053,-0.00098,-0.00128,-0.00128,-0.00061,-6e-05,-7e-05,4,26
18774,-0.00018,-0.00053,-0.00098,-0.00128,-0.00128,-0.00061,-6e-05,-7e-05,4,26
18775,-0.00018,-0.00053,-0.00098,-0.00128,-0.00128,-0.00061,-6e-05,-7e-05,4,26
18776,-0.00018,-0.00053,-0.00098,-0.00128,-0.00128,-0.00061,-6e-05,-7e-05,4,26
18777,-0.00018,-0.00053,-0.00098,-0.00128,-0.00128,-0.00061,-6e-05,-7e-05,4,26
18778,-0.00018,-0.00053,-0.00098,-0.00128,-0.00128,-0.00061,-6e-05,-7e-05,4,26
18779,-0.00018,-0.00053,-0.00098,-0.00128,-0.00128,-0.00061,-6e-05,-7e-05,4,26
18780,-0.00018,-0.00053,-0.00098,-0.00128,-0.00128,-0.00061,-6e-05,-7e-05,4,26
18781,-7e-05,-7e-05,0.0001,0.00012,0.00094,0.00073,0.00021,1e-05,4,26
18782,-7e-05,-7e-05,0.0001,0.00012,0.00094,0.00073,0.00021,1e-05,4,26
18783,0.00029,0.00045,0.00038,0.00075,0.00103,0.00073,0.00043,0.0003,4,26
18784,0.00029,0.00045,0.00038,0.00075,0.00103,0.00073,0.00043,0.0003,4,26
18785,0.00029,0.00045,0.00038,0.00075,0.00103,0.00073,0.00043,0.0003,4,26
18786,0.00029,0.00045,0.00038,0.00075,0.00103,0.00073,0.00043,0.0003,4,26
18788,0.00029,0.00045,0.00038,0.00075,0.00103,0.00073,0.00043,0.0003,4,26
18789,0.00029,0.00045,0.00038,0.00075,0.00103,0.00073,0.00043,0.0003,4,26
18790,0.00029,0.00045,0.00038,0.00075,0.00103,0.00073,0.00043,0.0003,4,26
18791,0.00029,0.00045,0.00038,0.00075,0.00103,0.00073,0.00043,0.0003,4,26
18792,0.00029,0.00045,0.00038,0.00075,0.00103,0.00073,0.00043,0.0003,4,26
18793,0.00029,0.00045,0.00038,0.00075,0.00103,0.00073,0.00043,0.0003,4,26
18794,0.00029,0.00045,0.00038,0.00075,0.00103,0.00073,0.00043,0.0003,4,26
18795,-1e-05,-8e-05,0.00015,-0.00028,0.00012,9e-05,3e-05,-1e-05,4,26
18796,-1e-05,-8e-05,0.00015,-0.00028,0.00012,9e-05,3e-05,-1e-05,4,26
18797,-1e-05,-8e-05,0.00015,-0.00028,0.00012,9e-05,3e-05,-1e-05,4,26
18798,-1e-05,-8e-05,0.00015,-0.00028,0.00012,9e-05,3e-05,-1e-05,4,26
18799,-1e-05,-8e-05,0.00015,-0.00028,0.00012,9e-05,3e-05,-1e-05,4,26
18800,-1e-05,-8e-05,0.00015,-0.00028,0.00012,9e-05,3e-05,-1e-05,4,26
18801,-1e-05,-8e-05,0.00015,-0.00028,0.00012,9e-05,3e-05,-1e-05,4,26
18802,-1e-05,-8e-05,0.00015,-0.00028,0.00012,9e-05,3e-05,-1e-05,4,26
18803,-1e-05,-8e-05,0.00015,-0.00028,0.00012,9e-05,3e-05,-1e-05,4,26
18804,-6e-05,-6e-05,-0.00011,0.00018,0.00072,0.00014,0.00014,0,4,26
18805,-6e-05,-6e-05,-0.00011,0.00018,0.00072,0.00014,0.00014,0,4,26
18806,-6e-05,-6e-05,-0.00011,0.00018,0.00072,0.00014,0.00014,0,4,26
18807,-6e-05,-6e-05,-0.00011,0.00018,0.00072,0.00014,0.00014,0,4,26
18808,-6e-05,-6e-05,-0.00011,0.00018,0.00072,0.00014,0.00014,0,4,26
18809,-6e-05,-6e-05,-0.00011,0.00018,0.00072,0.00014,0.00014,0,4,26
18810,-6e-05,-6e-05,-0.00011,0.00018,0.00072,0.00014,0.00014,0,4,26
18811,-6e-05,-6e-05,-0.00011,0.00018,0.00072,0.00014,0.00014,0,4,26
18813,-6e-05,-6e-05,-0.00011,0.00018,0.00072,0.00014,0.00014,0,4,26
18814,-6e-05,-6e-05,-0.00011,0.00018,0.00072,0.00014,0.00014,0,4,26
18815,-6e-05,-6e-05,-0.00011,0.00018,0.00072,0.00014,0.00014,0,4,26
18816,-6e-05,-6e-05,-0.00011,0.00018,0.00072,0.00014,0.00014,0,4,26
18817,-6e-05,-6e-05,-0.00011,0.00018,0.00072,0.00014,0.00014,0,4,26
18818,-6e-05,-6e-05,-0.00011,0.00018,0.00072,0.00014,0.00014,0,4,26
18819,0,-0.00022,-0.0004,-0.00018,-0.00078,-0.0002,-0.00021,-6e-05,4,26
18820,0,-0.00022,-0.0004,-0.00018,-0.00078,-0.0002,-0.00021,-6e-05,4,26
18821,-3e-05,-2e-05,-9e-05,-4e-05,0.00036,0.00042,-0.00027,-8e-05,4,26
18822,-3e-05,-2e-05,-9e-05,-4e-05,0.00036,0.00042,-0.00027,-8e-05,4,26
18823,-3e-05,-2e-05,-9e-05,-4e-05,0.00036,0.00042,-0.00027,-8e-05,4,26
18824,-3e-05,-2e-05,-9e-05,-4e-05,0.00036,0.00042,-0.00027,-8e-05,4,26
18825,-3e-05,-2e-05,-9e-05,-4e-05,0.00036,0.00042,-0.00027,-8e-05,4,26
18826,-3e-05,-2e-05,-9e-05,-4e-05,0.00036,0.00042,-0.00027,-8e-05,4,26
18827,-3e-05,-2e-05,-9e-05,-4e-05,0.00036,0.00042,-0.00027,-8e-05,4,26
18828,-3e-05,-2e-05,-9e-05,-4e-05,0.00036,0.00042,-0.00027,-8e-05,4,26
18829,-3e-05,-2e-05,-9e-05,-4e-05,0.00036,0.00042,-0.00027,-8e-05,4,26
18830,-3e-05,-2e-05,-9e-05,-4e-05,0.00036,0.00042,-0.00027,-8e-05,4,26
18831,-3e-05,-2e-05,-9e-05,-4e-05,0.00036,0.00042,-0.00027,-8e-05,4,26
18832,-3e-05,-2e-05,-9e-05,-4e-05,0.00036,0.00042,-0.00027,-8e-05,4,26
18833,-3e-05,-2e-05,-9e-05,-4e-05,0.00036,0.00042,-0.00027,-8e-05,4,26
18834,-3e-05,-2e-05,-9e-05,-4e-05,0.00036,0.00042,-0.00027,-8e-05,4,26
18835,-3e-05,-2e-05,-9e-05,-4e-05,0.00036,0.00042,-0.00027,-8e-05,4,26
18836,-3e-05,-2e-05,-9e-05,-4e-05,0.00036,0.00042,-0.00027,-8e-05,4,26
18838,-3e-05,-2e-05,-9e-05,-4e-05,0.00036,0.00042,-0.00027,-8e-05,4,26
18839,-3e-05,-2e-05,-9e-05,-4e-05,0.00036,0.00042,-0.00027,-8e-05,4,26
18840,-3e-05,-2e-05,-9e-05,-4e-05,0.00036,0.00042,-0.00027,-8e-05,4,26
18841,4e-05,0.00034,0.0009,0.00018,2e-05,1e-05,0,0,4,26
18842,-0.0001,-0.00011,-0.0004,-0.0007,-0.00039,-0.00066,-0.00017,-8e-05,4,26
18843,1e-05,-0.00011,-0.00011,0.00045,0.00032,-0.00061,0.00022,3e-05,4,26
18844,1e-05,-0.00011,-0.00011,0.00045,0.00032,-0.00061,0.00022,3e-05,4,26
18845,1e-05,-0.00011,-0.00011,0.00045,0.00032,-0.00061,0.00022,3e-05,4,26
18846,1e-05,-0.00011,-0.00011,0.00045,0.00032,-0.00061,0.00022,3e-05,4,26
18847,1e-05,-0.00011,-0.00011,0.00045,0.00032,-0.00061,0.00022,3e-05,4,26
18848,1e-05,-0.00011,-0.00011,0.00045,0.00032,-0.00061,0.00022,3e-05,4,26
18849,1e-05,-0.00011,-0.00011,0.00045,0.00032,-0.00061,0.00022,3e-05,4,26
18850,1e-05,-0.00011,-0.00011,0.00045,0.00032,-0.00061,0.00022,3e-05,4,26
18851,1e-05,-0.00011,-0.00011,0.00045,0.00032,-0.00061,0.00022,3e-05,4,26
18853,1e-05,-0.00011,-0.00011,0.00045,0.00032,-0.00061,0.00022,3e-05,4,26
18854,1e-05,-0.00011,-0.00011,0.00045,0.00032,-0.00061,0.00022,3e-05,4,26
18855,4e-05,-0.00039,-0.00097,-0.00027,0.0006,0.00105,0.00034,0.0002,4,26
18856,4e-05,-0.00039,-0.00097,-0.00027,0.0006,0.00105,0.00034,0.0002,4,26
18857,4e-05,-0.00039,-0.00097,-0.00027,0.0006,0.00105,0.00034,0.0002,4,26
18858,4e-05,-0.00039,-0.00097,-0.00027,0.0006,0.00105,0.00034,0.0002,4,26
18859,4e-05,-0.00039,-0.00097,-0.00027,0.0006,0.00105,0.00034,0.0002,4,26
18860,4e-05,-0.00039,-0.00097,-0.00027,0.0006,0.00105,0.00034,0.0002,4,26
18861,4e-05,-0.00039,-0.00097,-0.00027,0.0006,0.00105,0.00034,0.0002,4,26
18863,4e-05,-0.00039,-0.00097,-0.00027,0.0006,0.00105,0.00034,0.0002,4,26
18864,-0.00016,-4e-05,0.00033,-2e-05,-0.00083,-0.00068,-0.00013,-0.00013,4,26
18865,-0.00016,-4e-05,0.00033,-2e-05,-0.00083,-0.00068,-0.00013,-0.00013,4,26
18866,-0.00016,-4e-05,0.00033,-2e-05,-0.00083,-0.00068,-0.00013,-0.00013,4,26
18867,-0.00016,-4e-05,0.00033,-2e-05,-0.00083,-0.00068,-0.00013,-0.00013,4,26
18868,-0.00016,-4e-05,0.00033,-2e-05,-0.00083,-0.00068,-0.00013,-0.00013,4,26
18869,-0.00016,-4e-05,0.00033,-2e-05,-0.00083,-0.00068,-0.00013,-0.00013,4,26
18870,-0.00016,-4e-05,0.00033,-2e-05,-0.00083,-0.00068,-0.00013,-0.00013,4,26
18871,-0.00016,-4e-05,0.00033,-2e-05,-0.00083,-0.00068,-0.00013,-0.00013,4,26
18872,-0.00016,-4e-05,0.00033,-2e-05,-0.00083,-0.00068,-0.00013,-0.00013,4,26
18873,-0.00016,-4e-05,0.00033,-2e-05,-0.00083,-0.00068,-0.00013,-0.00013,4,26
18874,-0.00016,-4e-05,0.00033,-2e-05,-0.00083,-0.00068,-0.00013,-0.00013,4,26
18875,-0.00016,-4e-05,0.00033,-2e-05,-0.00083,-0.00068,-0.00013,-0.00013,4,26
18876,-0.00016,-4e-05,0.00033,-2e-05,-0.00083,-0.00068,-0.00013,-0.00013,4,26
18877,-0.00016,-4e-05,0.00033,-2e-05,-0.00083,-0.00068,-0.00013,-0.00013,4,26
18878,-0.00016,-4e-05,0.00033,-2e-05,-0.00083,-0.00068,-0.00013,-0.00013,4,26
18879,-8e-05,-0.00013,-0.00026,0.00015,0.00018,0.00055,0.00012,1e-05,4,26
18880,0.0001,0.00015,3e-05,-0.00016,-5e-05,0.0006,0.00013,4e-05,4,26
18881,0.0001,0.00015,3e-05,-0.00016,-5e-05,0.0006,0.00013,4e-05,4,26
18882,0.0001,0.00015,3e-05,-0.00016,-5e-05,0.0006,0.00013,4e-05,4,26
18883,0.0001,0.00015,3e-05,-0.00016,-5e-05,0.0006,0.00013,4e-05,4,26
18884,0.0001,0.00015,3e-05,-0.00016,-5e-05,0.0006,0.00013,4e-05,4,26
18885,0.0001,0.00015,3e-05,-0.00016,-5e-05,0.0006,0.00013,4e-05,4,26
18886,0.0001,0.00015,3e-05,-0.00016,-5e-05,0.0006,0.00013,4e-05,4,26
18888,0.0001,0.00015,3e-05,-0.00016,-5e-05,0.0006,0.00013,4e-05,4,26
18890,0.0001,0.00015,3e-05,-0.00016,-5e-05,0.0006,0.00013,4e-05,4,26
18891,0.0001,0.00015,3e-05,-0.00016,-5e-05,0.0006,0.00013,4e-05,4,26
18892,0.0001,0.00015,3e-05,-0.00016,-5e-05,0.0006,0.00013,4e-05,4,26
18893,0.0001,0.00015,3e-05,-0.00016,-5e-05,0.0006,0.00013,4e-05,4,26
18894,0.0001,0.00015,3e-05,-0.00016,-5e-05,0.0006,0.00013,4e-05,4,26
18895,0.0001,0.00015,3e-05,-0.00016,-5e-05,0.0006,0.00013,4e-05,4,26
18896,0.0001,0.00015,3e-05,-0.00016,-5e-05,0.0006,0.00013,4e-05,4,26
18897,0.0001,0.00015,3e-05,-0.00016,-5e-05,0.0006,0.00013,4e-05,4,26
18898,0.0001,0.00015,3e-05,-0.00016,-5e-05,0.0006,0.00013,4e-05,4,26
18899,0.0001,0.00015,3e-05,-0.00016,-5e-05,0.0006,0.00013,4e-05,4,26
18900,0.0001,0.00015,3e-05,-0.00016,-5e-05,0.0006,0.00013,4e-05,4,26
18901,0.0001,0.00015,3e-05,-0.00016,-5e-05,0.0006,0.00013,4e-05,4,26
18902,0.0001,0.00015,3e-05,-0.00016,-5e-05,0.0006,0.00013,4e-05,4,26
18903,0.0001,0.00015,3e-05,-0.00016,-5e-05,0.0006,0.00013,4e-05,4,26
18904,0.0001,0.00015,3e-05,-0.00016,-5e-05,0.0006,0.00013,4e-05,4,26
18905,0.0001,0.00015,3e-05,-0.00016,-5e-05,0.0006,0.00013,4e-05,4,26
18906,0.0001,0.00015,3e-05,-0.00016,-5e-05,0.0006,0.00013,4e-05,4,26
18907,0.0001,0.00015,3e-05,-0.00016,-5e-05,0.0006,0.00013,4e-05,4,26
18908,0.0001,0.00015,3e-05,-0.00016,-5e-05,0.0006,0.00013,4e-05,4,26
18909,-0.00019,-0.00022,-0.00022,-0.00019,0.00012,-0.00031,-0.00046,-0.00015,4,26
18910,-2e-05,0.00021,0.00064,-0.0006,-0.00128,-0.00051,-0.00016,-9e-05,4,26
18911,-2e-05,0.00021,0.00064,-0.0006,-0.00128,-0.00051,-0.00016,-9e-05,4,26
18912,-2e-05,0.00021,0.00064,-0.0006,-0.00128,-0.00051,-0.00016,-9e-05,4,26
18913,-2e-05,0.00021,0.00064,-0.0006,-0.00128,-0.00051,-0.00016,-9e-05,4,26
18914,-2e-05,0.00021,0.00064,-0.0006,-0.00128,-0.00051,-0.00016,-9e-05,4,26
18915,8e-05,-0.0001,-0.00023,-0.00011,0.00066,4e-05,3e-05,4e-05,4,26
18916,8e-05,-0.0001,-0.00023,-0.00011,0.00066,4e-05,3e-05,4e-05,4,26
18917,8e-05,-0.0001,-0.00023,-0.00011,0.00066,4e-05,3e-05,4e-05,4,26
18918,8e-05,-0.0001,-0.00023,-0.00011,0.00066,4e-05,3e-05,4e-05,4,26
18919,8e-05,-0.0001,-0.00023,-0.00011,0.00066,4e-05,3e-05,4e-05,4,26
18920,8e-05,-0.0001,-0.00023,-0.00011,0.00066,4e-05,3e-05,4e-05,4,26
18921,8e-05,-0.0001,-0.00023,-0.00011,0.00066,4e-05,3e-05,4e-05,4,26
18923,8e-05,-0.0001,-0.00023,-0.00011,0.00066,4e-05,3e-05,4e-05,4,26
18924,3e-05,0.00012,0.00051,0.00024,-0.00059,-0.00036,0.00011,3e-05,4,26
18925,3e-05,0.00012,0.00051,0.00024,-0.00059,-0.00036,0.00011,3e-05,4,26
18926,3e-05,0.00012,0.00051,0.00024,-0.00059,-0.00036,0.00011,3e-05,4,26
18927,3e-05,0.00012,0.00051,0.00024,-0.00059,-0.00036,0.00011,3e-05,4,26
18928,3e-05,0.00012,0.00051,0.00024,-0.00059,-0.00036,0.00011,3e-05,4,26
18929,3e-05,0.00012,0.00051,0.00024,-0.00059,-0.00036,0.00011,3e-05,4,26
18930,3e-05,0.00012,0.00051,0.00024,-0.00059,-0.00036,0.00011,3e-05,4,26
18931,3e-05,0.00012,0.00051,0.00024,-0.00059,-0.00036,0.00011,3e-05,4,26
18933,3e-05,0.00012,0.00051,0.00024,-0.00059,-0.00036,0.00011,3e-05,4,26
18934,3e-05,0.00012,0.00051,0.00024,-0.00059,-0.00036,0.00011,3e-05,4,26
18935,3e-05,0.00012,0.00051,0.00024,-0.00059,-0.00036,0.00011,3e-05,4,26
18936,3e-05,0.00012,0.00051,0.00024,-0.00059,-0.00036,0.00011,3e-05,4,26
18938,-3e-05,9e-05,0.00031,-4e-05,-0.00039,-0.00087,-0.00023,-6e-05,4,26
18939,0.00021,0.00055,0.00088,-0.00012,-0.0009,-0.00026,3e-05,4e-05,4,26
18940,0,9e-05,-0.0003,-0.00013,0.00071,0,-0.00023,-4e-05,4,26
18942,0,9e-05,-0.0003,-0.00013,0.00071,0,-0.00023,-4e-05,4,26
18944,0,9e-05,-0.0003,-0.00013,0.00071,0,-0.00023,-4e-05,4,26
18945,0,9e-05,-0.0003,-0.00013,0.00071,0,-0.00023,-4e-05,4,26
18946,0,9e-05,-0.0003,-0.00013,0.00071,0,-0.00023,-4e-05,4,26
18947,0,9e-05,-0.0003,-0.00013,0.00071,0,-0.00023,-4e-05,4,26
18948,0,9e-05,-0.0003,-0.00013,0.00071,0,-0.00023,-4e-05,4,26
18949,0,9e-05,-0.0003,-0.00013,0.00071,0,-0.00023,-4e-05,4,26
18950,0,9e-05,-0.0003,-0.00013,0.00071,0,-0.00023,-4e-05,4,26
18951,0,9e-05,-0.0003,-0.00013,0.00071,0,-0.00023,-4e-05,4,26
18952,0,9e-05,-0.0003,-0.00013,0.00071,0,-0.00023,-4e-05,4,26
18953,0,9e-05,-0.0003,-0.00013,0.00071,0,-0.00023,-4e-05,4,26
18954,0,9e-05,-0.0003,-0.00013,0.00071,0,-0.00023,-4e-05,4,26
18955,0,9e-05,-0.0003,-0.00013,0.00071,0,-0.00023,-4e-05,4,26
18956,0,9e-05,-0.0003,-0.00013,0.00071,0,-0.00023,-4e-05,4,26
18957,0,9e-05,-0.0003,-0.00013,0.00071,0,-0.00023,-4e-05,4,26
47015,-0.00016,-0.00014,-9e-05,0.00024,-0.00111,-0.0008,-0.0003,-0.00018,4,26
47016,-0.00016,-0.00014,-9e-05,0.00024,-0.00111,-0.0008,-0.0003,-0.00018,4,26
47017,0,0.00012,0.00015,0.00034,0.00047,-0.00019,2e-05,2e-05,4,26
47018,0,0.00012,0.00015,0.00034,0.00047,-0.00019,2e-05,2e-05,4,26
47019,0,0.00012,0.00015,0.00034,0.00047,-0.00019,2e-05,2e-05,4,26
47020,0,0.00012,0.00015,0.00034,0.00047,-0.00019,2e-05,2e-05,4,26
47021,0,0.00012,0.00015,0.00034,0.00047,-0.00019,2e-05,2e-05,4,26
47022,0,0.00012,0.00015,0.00034,0.00047,-0.00019,2e-05,2e-05,4,26
47023,0,0.00012,0.00015,0.00034,0.00047,-0.00019,2e-05,2e-05,4,26
47024,0,0.00012,0.00015,0.00034,0.00047,-0.00019,2e-05,2e-05,4,26
47025,0,0.00012,0.00015,0.00034,0.00047,-0.00019,2e-05,2e-05,4,26
47026,0,0.00012,0.00015,0.00034,0.00047,-0.00019,2e-05,2e-05,4,26
47027,0,0.00012,0.00015,0.00034,0.00047,-0.00019,2e-05,2e-05,4,26
47028,0,0.00012,0.00015,0.00034,0.00047,-0.00019,2e-05,2e-05,4,26
47029,0,0.00012,0.00015,0.00034,0.00047,-0.00019,2e-05,2e-05,4,26
47030,0,0.00012,0.00015,0.00034,0.00047,-0.00019,2e-05,2e-05,4,26
47031,0,0.00012,0.00015,0.00034,0.00047,-0.00019,2e-05,2e-05,4,26
47032,0,0.00012,0.00015,0.00034,0.00047,-0.00019,2e-05,2e-05,4,26
47033,4e-05,0,2e-05,-0.0001,-0.00057,0.00013,0,4e-05,4,26
47034,-0.00017,-0.00022,-0.00014,-0.00037,-0.00013,-0.00024,-0.00035,-0.00026,4,26
47035,-0.00011,-0.00013,-0.00027,-0.00024,-0.00024,0.00015,4e-05,-1e-05,4,26
47037,-0.00011,-0.00013,-0.00027,-0.00024,-0.00024,0.00015,4e-05,-1e-05,4,26
47040,-0.00011,-0.00013,-0.00027,-0.00024,-0.00024,0.00015,4e-05,-1e-05,4,26
47041,-0.00011,-0.00013,-0.00027,-0.00024,-0.00024,0.00015,4e-05,-1e-05,4,26
47042,-0.00011,-0.00013,-0.00027,-0.00024,-0.00024,0.00015,4e-05,-1e-05,4,26
47043,-0.00011,-0.00013,-0.00027,-0.00024,-0.00024,0.00015,4e-05,-1e-05,4,26
47044,-0.00011,-0.00013,-0.00027,-0.00024,-0.00024,0.00015,4e-05,-1e-05,4,26
47045,-0.00011,-0.00013,-0.00027,-0.00024,-0.00024,0.00015,4e-05,-1e-05,4,26
47046,-0.00011,-0.00013,-0.00027,-0.00024,-0.00024,0.00015,4e-05,-1e-05,4,26
47047,-0.00011,-0.00013,-0.00027,-0.00024,-0.00024,0.00015,4e-05,-1e-05,4,26
47048,-0.00011,-0.00013,-0.00027,-0.00024,-0.00024,0.00015,4e-05,-1e-05,4,26
47049,-0.00011,-0.00013,-0.00027,-0.00024,-0.00024,0.00015,4e-05,-1e-05,4,26
47050,-0.00011,-0.00013,-0.00027,-0.00024,-0.00024,0.00015,4e-05,-1e-05,4,26
47051,-0.00011,-0.00013,-0.00027,-0.00024,-0.00024,0.00015,4e-05,-1e-05,4,26
47052,-0.00011,-0.00013,-0.00027,-0.00024,-0.00024,0.00015,4e-05,-1e-05,4,26
47053,-0.00011,-0.00013,-0.00027,-0.00024,-0.00024,0.00015,4e-05,-1e-05,4,26
47054,-0.00011,-0.00013,-0.00027,-0.00024,-0.00024,0.00015,4e-05,-1e-05,4,26
47055,-0.00011,-0.00013,-0.00027,-0.00024,-0.00024,0.00015,4e-05,-1e-05,4,26
47056,-1e-05,0.00014,0.00032,-0.00017,-0.00016,0.00037,1e-05,-5e-05,4,26
47057,-0.00029,-0.00051,-0.00077,-0.00092,-0.00041,-0.00108,-0.00039,-0.00028,4,26
47058,0.00014,0.00012,0.00012,0.00052,0.00101,0.00094,0.00039,0.00018,4,26
47059,0.00014,0.00012,0.00012,0.00052,0.00101,0.00094,0.00039,0.00018,4,26
47060,0.00014,0.00012,0.00012,0.00052,0.00101,0.00094,0.00039,0.00018,4,26
47061,0.00014,0.00012,0.00012,0.00052,0.00101,0.00094,0.00039,0.00018,4,26
47062,0.00014,0.00012,0.00012,0.00052,0.00101,0.00094,0.00039,0.00018,4,26
47063,0.00014,0.00012,0.00012,0.00052,0.00101,0.00094,0.00039,0.00018,4,26
47064,0.00014,0.00012,0.00012,0.00052,0.00101,0.00094,0.00039,0.00018,4,26
47065,0.00014,0.00012,0.00012,0.00052,0.00101,0.00094,0.00039,0.00018,4,26
47066,0.00014,0.00012,0.00012,0.00052,0.00101,0.00094,0.00039,0.00018,4,26
47067,0.00014,0.00012,0.00012,0.00052,0.00101,0.00094,0.00039,0.00018,4,26
47068,0.00014,0.00012,0.00012,0.00052,0.00101,0.00094,0.00039,0.00018,4,26
47069,0.00014,0.00012,0.00012,0.00052,0.00101,0.00094,0.00039,0.00018,4,26
47070,0.00014,0.00012,0.00012,0.00052,0.00101,0.00094,0.00039,0.00018,4,26
47071,0.0001,0.00019,0.00046,0.00095,8e-05,0.00031,0.00013,8e-05,4,26
47072,0.0001,0.00019,0.00046,0.00095,8e-05,0.00031,0.00013,8e-05,4,26
47073,0.0001,0.00019,0.00046,0.00095,8e-05,0.00031,0.00013,8e-05,4,26
47074,0.0001,0.00019,0.00046,0.00095,8e-05,0.00031,0.00013,8e-05,4,26
47075,0.0001,0.00019,0.00046,0.00095,8e-05,0.00031,0.00013,8e-05,4,26
47076,0.0001,0.00019,0.00046,0.00095,8e-05,0.00031,0.00013,8e-05,4,26
47077,-5e-05,1e-05,-1e-05,0.00019,-0.00098,-0.00111,-0.00035,-0.00012,4,26
47078,-5e-05,1e-05,-1e-05,0.00019,-0.00098,-0.00111,-0.00035,-0.00012,4,26
47079,-5e-05,1e-05,-1e-05,0.00019,-0.00098,-0.00111,-0.00035,-0.00012,4,26
47080,-5e-05,1e-05,-1e-05,0.00019,-0.00098,-0.00111,-0.00035,-0.00012,4,26
47081,-5e-05,1e-05,-1e-05,0.00019,-0.00098,-0.00111,-0.00035,-0.00012,4,26
47082,-5e-05,1e-05,-1e-05,0.00019,-0.00098,-0.00111,-0.00035,-0.00012,4,26
47083,-5e-05,1e-05,-1e-05,0.00019,-0.00098,-0.00111,-0.00035,-0.00012,4,26
47084,-5e-05,1e-05,-1e-05,0.00019,-0.00098,-0.00111,-0.00035,-0.00012,4,26
47085,-5e-05,1e-05,-1e-05,0.00019,-0.00098,-0.00111,-0.00035,-0.00012,4,26
47086,-5e-05,1e-05,-1e-05,0.00019,-0.00098,-0.00111,-0.00035,-0.00012,4,26
47088,-5e-05,1e-05,-1e-05,0.00019,-0.00098,-0.00111,-0.00035,-0.00012,4,26
47090,-5e-05,1e-05,-1e-05,0.00019,-0.00098,-0.00111,-0.00035,-0.00012,4,26
47091,-5e-05,1e-05,-1e-05,0.00019,-0.00098,-0.00111,-0.00035,-0.00012,4,26
47092,-5e-05,1e-05,-1e-05,0.00019,-0.00098,-0.00111,-0.00035,-0.00012,4,26
47093,0.00015,0.00014,0.00018,0.00104,0.00113,0.00075,0.00038,0.00025,4,26
47094,-5e-05,-0.00014,-0.00023,-0.00031,-0.00046,-0.00058,-9e-05,-1e-05,4,26
47095,-5e-05,-1e-05,0,0.00039,0.00021,0.0001,-5e-05,-8e-05,4,26
47096,-0.00022,-0.00035,-0.00056,-0.00128,-0.00081,-0.0006,-0.00028,-0.00025,4,26
47097,-0.00022,-0.00035,-0.00056,-0.00128,-0.00081,-0.0006,-0.00028,-0.00025,4,26
47098,-0.00022,-0.00035,-0.00056,-0.00128,-0.00081,-0.0006,-0.00028,-0.00025,4,26
47099,-0.00022,-0.00035,-0.00056,-0.00128,-0.00081,-0.0006,-0.00028,-0.00025,4,26
47100,-0.00022,-0.00035,-0.00056,-0.00128,-0.00081,-0.0006,-0.00028,-0.00025,4,26
47102,-0.00022,-0.00035,-0.00056,-0.00128,-0.00081,-0.0006,-0.00028,-0.00025,4,26
47103,-0.00022,-0.00035,-0.00056,-0.00128,-0.00081,-0.0006,-0.00028,-0.00025,4,26
47104,-0.00022,-0.00035,-0.00056,-0.00128,-0.00081,-0.0006,-0.00028,-0.00025,4,26
47105,-0.00022,-0.00035,-0.00056,-0.00128,-0.00081,-0.0006,-0.00028,-0.00025,4,26
47106,-0.00022,-0.00035,-0.00056,-0.00128,-0.00081,-0.0006,-0.00028,-0.00025,4,26
47107,-0.00022,-0.00035,-0.00056,-0.00128,-0.00081,-0.0006,-0.00028,-0.00025,4,26
47108,-0.00022,-0.00035,-0.00056,-0.00128,-0.00081,-0.0006,-0.00028,-0.00025,4,26
47109,-0.00022,-0.00035,-0.00056,-0.00128,-0.00081,-0.0006,-0.00028,-0.00025,4,26
47110,-0.00022,-0.00035,-0.00056,-0.00128,-0.00081,-0.0006,-0.00028,-0.00025,4,26
47111,-0.00022,-0.00035,-0.00056,-0.00128,-0.00081,-0.0006,-0.00028,-0.00025,4,26
47112,-0.00022,-0.00035,-0.00056,-0.00128,-0.00081,-0.0006,-0.00028,-0.00025,4,26
47113,-0.00022,-0.00035,-0.00056,-0.00128,-0.00081,-0.0006,-0.00028,-0.00025,4,26
47114,-0.00022,-0.00035,-0.00056,-0.00128,-0.00081,-0.0006,-0.00028,-0.00025,4,26
47115,-0.00022,-0.00035,-0.00056,-0.00128,-0.00081,-0.0006,-0.00028,-0.00025,4,26
47116,-6e-05,-8e-05,-0.00012,-1e-05,8e-05,4e-05,9e-05,0,4,26
47117,-2e-05,0,0.00011,0.00018,0.00011,-0.00046,-0.00019,-4e-05,4,26
47118,2e-05,3e-05,0.00017,-0.00038,-0.00016,0.00042,-5e-05,0,4,26
47119,2e-05,3e-05,0.00017,-0.00038,-0.00016,0.00042,-5e-05,0,4,26
47120,2e-05,3e-05,0.00017,-0.00038,-0.00016,0.00042,-5e-05,0,4,26
47121,2e-05,3e-05,0.00017,-0.00038,-0.00016,0.00042,-5e-05,0,4,26
47122,2e-05,3e-05,0.00017,-0.00038,-0.00016,0.00042,-5e-05,0,4,26
47123,2e-05,3e-05,0.00017,-0.00038,-0.00016,0.00042,-5e-05,0,4,26
47124,2e-05,3e-05,0.00017,-0.00038,-0.00016,0.00042,-5e-05,0,4,26
47125,2e-05,3e-05,0.00017,-0.00038,-0.00016,0.00042,-5e-05,0,4,26
47126,2e-05,3e-05,0.00017,-0.00038,-0.00016,0.00042,-5e-05,0,4,26
47127,2e-05,3e-05,0.00017,-0.00038,-0.00016,0.00042,-5e-05,0,4,26
47128,2e-05,3e-05,0.00017,-0.00038,-0.00016,0.00042,-5e-05,0,4,26
47129,2e-05,3e-05,0.00017,-0.00038,-0.00016,0.00042,-5e-05,0,4,26
47130,0.00014,0.00017,6e-05,0.0002,-0.00023,0.00018,0.00015,0.00011,4,26
47131,0.00014,0.00017,6e-05,0.0002,-0.00023,0.00018,0.00015,0.00011,4,26
47132,0.00014,0.00017,6e-05,0.0002,-0.00023,0.00018,0.00015,0.00011,4,26
47133,0.00014,0.00017,6e-05,0.0002,-0.00023,0.00018,0.00015,0.00011,4,26
47134,0.00014,0.00017,6e-05,0.0002,-0.00023,0.00018,0.00015,0.00011,4,26
47135,0.00014,0.00017,6e-05,0.0002,-0.00023,0.00018,0.00015,0.00011,4,26
47136,0.00014,0.00017,6e-05,0.0002,-0.00023,0.00018,0.00015,0.00011,4,26
47139,2e-05,-3e-05,-9e-05,2e-05,0.00015,-0.00011,9e-05,1e-05,4,26
47140,2e-05,-3e-05,-9e-05,2e-05,0.00015,-0.00011,9e-05,1e-05,4,26
47141,2e-05,-3e-05,-9e-05,2e-05,0.00015,-0.00011,9e-05,1e-05,4,26
47142,2e-05,-3e-05,-9e-05,2e-05,0.00015,-0.00011,9e-05,1e-05,4,26
47143,2e-05,-3e-05,-9e-05,2e-05,0.00015,-0.00011,9e-05,1e-05,4,26
47144,2e-05,-3e-05,-9e-05,2e-05,0.00015,-0.00011,9e-05,1e-05,4,26
47145,2e-05,-3e-05,-9e-05,2e-05,0.00015,-0.00011,9e-05,1e-05,4,26
47146,2e-05,-3e-05,-9e-05,2e-05,0.00015,-0.00011,9e-05,1e-05,4,26
47147,2e-05,-3e-05,-9e-05,2e-05,0.00015,-0.00011,9e-05,1e-05,4,26
47148,2e-05,-3e-05,-9e-05,2e-05,0.00015,-0.00011,9e-05,1e-05,4,26
47149,2e-05,-3e-05,-9e-05,2e-05,0.00015,-0.00011,9e-05,1e-05,4,26
47150,2e-05,-3e-05,-9e-05,2e-05,0.00015,-0.00011,9e-05,1e-05,4,26
47151,2e-05,-3e-05,-9e-05,2e-05,0.00015,-0.00011,9e-05,1e-05,4,26
47152,2e-05,-3e-05,-9e-05,2e-05,0.00015,-0.00011,9e-05,1e-05,4,26
47153,2e-05,-3e-05,-9e-05,2e-05,0.00015,-0.00011,9e-05,1e-05,4,26
47154,-0.0002,-0.00024,-0.00013,0.00039,-4e-05,0.00028,-0.00024,-0.00019,4,26
47155,9e-05,6e-05,-2e-05,-0.0004,-0.00017,0.00072,0.00021,0.00015,4,26
47156,9e-05,6e-05,-2e-05,-0.0004,-0.00017,0.00072,0.00021,0.00015,4,26
47157,9e-05,6e-05,-2e-05,-0.0004,-0.00017,0.00072,0.00021,0.00015,4,26
47158,9e-05,6e-05,-2e-05,-0.0004,-0.00017,0.00072,0.00021,0.00015,4,26
47159,9e-05,6e-05,-2e-05,-0.0004,-0.00017,0.00072,0.00021,0.00015,4,26
47160,5e-05,6e-05,0.00024,0.00042,0.00057,0.00013,0.00011,7e-05,4,26
47161,5e-05,6e-05,0.00024,0.00042,0.00057,0.00013,0.00011,7e-05,4,26
47162,5e-05,6e-05,0.00024,0.00042,0.00057,0.00013,0.00011,7e-05,4,26
47163,5e-05,6e-05,0.00024,0.00042,0.00057,0.00013,0.00011,7e-05,4,26
47164,5e-05,6e-05,0.00024,0.00042,0.00057,0.00013,0.00011,7e-05,4,26
47165,5e-05,6e-05,0.00024,0.00042,0.00057,0.00013,0.00011,7e-05,4,26
47166,5e-05,6e-05,0.00024,0.00042,0.00057,0.00013,0.00011,7e-05,4,26
47167,5e-05,6e-05,0.00024,0.00042,0.00057,0.00013,0.00011,7e-05,4,26
47168,5e-05,6e-05,0.00024,0.00042,0.00057,0.00013,0.00011,7e-05,4,26
47169,5e-05,6e-05,0.00024,0.00042,0.00057,0.00013,0.00011,7e-05,4,26
47170,5e-05,6e-05,0.00024,0.00042,0.00057,0.00013,0.00011,7e-05,4,26
47171,5e-05,6e-05,0.00024,0.00042,0.00057,0.00013,0.00011,7e-05,4,26
47172,5e-05,6e-05,0.00024,0.00042,0.00057,0.00013,0.00011,7e-05,4,26
47173,5e-05,6e-05,0.00024,0.00042,0.00057,0.00013,0.00011,7e-05,4,26
47174,5e-05,6e-05,0.00024,0.00042,0.00057,0.00013,0.00011,7e-05,4,26
47175,5e-05,6e-05,0.00024,0.00042,0.00057,0.00013,0.00011,7e-05,4,26
47176,-9e-05,-0.00013,-6e-05,4e-05,-0.00019,-0.00017,-1e-05,-9e-05,4,26
47177,7e-05,4e-05,-2e-05,0.00024,-0.00027,0.00053,7e-05,0.0001,4,26
47178,8e-05,1e-05,-1e-05,0.00018,0.00017,0.00018,0.00023,0.0001,4,26
47179,8e-05,1e-05,-1e-05,0.00018,0.00017,0.00018,0.00023,0.0001,4,26
47180,8e-05,1e-05,-1e-05,0.00018,0.00017,0.00018,0.00023,0.0001,4,26
47181,8e-05,1e-05,-1e-05,0.00018,0.00017,0.00018,0.00023,0.0001,4,26
47182,8e-05,1e-05,-1e-05,0.00018,0.00017,0.00018,0.00023,0.0001,4,26
47183,8e-05,1e-05,-1e-05,0.00018,0.00017,0.00018,0.00023,0.0001,4,26
47184,8e-05,1e-05,-1e-05,0.00018,0.00017,0.00018,0.00023,0.0001,4,26
47185,8e-05,1e-05,-1e-05,0.00018,0.00017,0.00018,0.00023,0.0001,4,26
47186,8e-05,1e-05,-1e-05,0.00018,0.00017,0.00018,0.00023,0.0001,4,26
47188,8e-05,1e-05,-1e-05,0.00018,0.00017,0.00018,0.00023,0.0001,4,26
47189,8e-05,1e-05,-1e-05,0.00018,0.00017,0.00018,0.00023,0.0001,4,26
47190,-5e-05,-0.00012,-5e-05,-0.00021,-0.00024,-0.00074,-0.00026,-0.00013,4,26
47191,-5e-05,-0.00012,-5e-05,-0.00021,-0.00024,-0.00074,-0.00026,-0.00013,4,26
47192,-5e-05,-0.00012,-5e-05,-0.00021,-0.00024,-0.00074,-0.00026,-0.00013,4,26
47193,-5e-05,-0.00012,-5e-05,-0.00021,-0.00024,-0.00074,-0.00026,-0.00013,4,26
47194,-5e-05,-0.00012,-5e-05,-0.00021,-0.00024,-0.00074,-0.00026,-0.00013,4,26
47195,-5e-05,-0.00012,-5e-05,-0.00021,-0.00024,-0.00074,-0.00026,-0.00013,4,26
47196,-5e-05,-0.00012,-5e-05,-0.00021,-0.00024,-0.00074,-0.00026,-0.00013,4,26
47197,-6e-05,-1e-05,-7e-05,-0.0002,-0.00036,0.0002,-4e-05,-6e-05,4,26
47198,-6e-05,-1e-05,-7e-05,-0.0002,-0.00036,0.0002,-4e-05,-6e-05,4,26
47199,-6e-05,-1e-05,-7e-05,-0.0002,-0.00036,0.0002,-4e-05,-6e-05,4,26
47200,-6e-05,-1e-05,-7e-05,-0.0002,-0.00036,0.0002,-4e-05,-6e-05,4,26
47201,-6e-05,-1e-05,-7e-05,-0.0002,-0.00036,0.0002,-4e-05,-6e-05,4,26
47202,-6e-05,-1e-05,-7e-05,-0.0002,-0.00036,0.0002,-4e-05,-6e-05,4,26
47203,-6e-05,-1e-05,-7e-05,-0.0002,-0.00036,0.0002,-4e-05,-6e-05,4,26
47204,-6e-05,-1e-05,-7e-05,-0.0002,-0.00036,0.0002,-4e-05,-6e-05,4,26
47205,-6e-05,-1e-05,-7e-05,-0.0002,-0.00036,0.0002,-4e-05,-6e-05,4,26
47206,-6e-05,-1e-05,-7e-05,-0.0002,-0.00036,0.0002,-4e-05,-6e-05,4,26
47207,-6e-05,-1e-05,-7e-05,-0.0002,-0.00036,0.0002,-4e-05,-6e-05,4,26
47208,-6e-05,-1e-05,-7e-05,-0.0002,-0.00036,0.0002,-4e-05,-6e-05,4,26
47209,-6e-05,-1e-05,-7e-05,-0.0002,-0.00036,0.0002,-4e-05,-6e-05,4,26
47210,-6e-05,-1e-05,-7e-05,-0.0002,-0.00036,0.0002,-4e-05,-6e-05,4,26
47211,-6e-05,-1e-05,-7e-05,-0.0002,-0.00036,0.0002,-4e-05,-6e-05,4,26
47212,-6e-05,-1e-05,-7e-05,-0.0002,-0.00036,0.0002,-4e-05,-6e-05,4,26
47213,-6e-05,-1e-05,-7e-05,-0.0002,-0.00036,0.0002,-4e-05,-6e-05,4,26
47214,-4e-05,1e-05,-0.00017,-0.00043,-0.00058,-3e-05,-9e-05,-3e-05,4,26
47215,-9e-05,-0.0001,8e-05,0.00054,0.00087,0.00016,3e-05,-5e-05,4,26
47216,-9e-05,-0.00014,-0.00026,-0.00045,-0.00096,-0.00092,-0.00029,-0.00013,4,26
47217,-9e-05,-0.00014,-0.00026,-0.00045,-0.00096,-0.00092,-0.00029,-0.00013,4,26
47218,-9e-05,-0.00014,-0.00026,-0.00045,-0.00096,-0.00092,-0.00029,-0.00013,4,26
47219,-9e-05,-0.00014,-0.00026,-0.00045,-0.00096,-0.00092,-0.00029,-0.00013,4,26
47220,-9e-05,-0.00014,-0.00026,-0.00045,-0.00096,-0.00092,-0.00029,-0.00013,4,26
47221,-9e-05,-0.00014,-0.00026,-0.00045,-0.00096,-0.00092,-0.00029,-0.00013,4,26
47222,-9e-05,-0.00014,-0.00026,-0.00045,-0.00096,-0.00092,-0.00029,-0.00013,4,26
47223,-9e-05,-0.00014,-0.00026,-0.00045,-0.00096,-0.00092,-0.00029,-0.00013,4,26
47224,-9e-05,-0.00014,-0.00026,-0.00045,-0.00096,-0.00092,-0.00029,-0.00013,4,26
47225,-9e-05,-0.00014,-0.00026,-0.00045,-0.00096,-0.00092,-0.00029,-0.00013,4,26
47226,-9e-05,-0.00014,-0.00026,-0.00045,-0.00096,-0.00092,-0.00029,-0.00013,4,26
47227,-9e-05,-0.00014,-0.00026,-0.00045,-0.00096,-0.00092,-0.00029,-0.00013,4,26
47228,-9e-05,-0.00014,-0.00026,-0.00045,-0.00096,-0.00092,-0.00029,-0.00013,4,26
47229,-9e-05,-0.00014,-0.00026,-0.00045,-0.00096,-0.00092,-0.00029,-0.00013,4,26
47230,-9e-05,-0.00014,-0.00026,-0.00045,-0.00096,-0.00092,-0.00029,-0.00013,4,26
47231,-9e-05,-0.00014,-0.00026,-0.00045,-0.00096,-0.00092,-0.00029,-0.00013,4,26
47232,-9e-05,-0.00014,-0.00026,-0.00045,-0.00096,-0.00092,-0.00029,-0.00013,4,26
47233,-9e-05,-0.00014,-0.00026,-0.00045,-0.00096,-0.00092,-0.00029,-0.00013,4,26
47234,-9e-05,-0.00014,-0.00026,-0.00045,-0.00096,-0.00092,-0.00029,-0.00013,4,26
47235,-9e-05,-0.00014,-0.00026,-0.00045,-0.00096,-0.00092,-0.00029,-0.00013,4,26
47236,-9e-05,-0.00014,-0.00026,-0.00045,-0.00096,-0.00092,-0.00029,-0.00013,4,26
47238,1e-05,0.00012,0.00029,0.0003,0.00032,-0.00023,-9e-05,-4e-05,4,26
47239,0.00016,0.00024,0.00034,0.00026,0.00077,0.00018,0.00031,0.00026,4,26
47240,0.00016,0.00024,0.00034,0.00026,0.00077,0.00018,0.00031,0.00026,4,26
47241,0.00016,0.00024,0.00034,0.00026,0.00077,0.00018,0.00031,0.00026,4,26
47242,0.00016,0.00024,0.00034,0.00026,0.00077,0.00018,0.00031,0.00026,4,26
47243,0.00016,0.00024,0.00034,0.00026,0.00077,0.00018,0.00031,0.00026,4,26
47244,0.00016,0.00024,0.00034,0.00026,0.00077,0.00018,0.00031,0.00026,4,26
47245,0.00016,0.00024,0.00034,0.00026,0.00077,0.00018,0.00031,0.00026,4,26
47246,0.00016,0.00024,0.00034,0.00026,0.00077,0.00018,0.00031,0.00026,4,26
47247,0.00016,0.00024,0.00034,0.00026,0.00077,0.00018,0.00031,0.00026,4,26
47248,0.00016,0.00024,0.00034,0.00026,0.00077,0.00018,0.00031,0.00026,4,26
47249,0.00016,0.00024,0.00034,0.00026,0.00077,0.00018,0.00031,0.00026,4,26
47250,-9e-05,-0.00016,-0.00043,3e-05,7e-05,-0.00024,-0.0001,-0.00011,4,26
47251,-9e-05,-0.00016,-0.00043,3e-05,7e-05,-0.00024,-0.0001,-0.00011,4,26
47252,-9e-05,-0.00016,-0.00043,3e-05,7e-05,-0.00024,-0.0001,-0.00011,4,26
47253,-9e-05,-0.00016,-0.00043,3e-05,7e-05,-0.00024,-0.0001,-0.00011,4,26
47254,-9e-05,-0.00016,-0.00043,3e-05,7e-05,-0.00024,-0.0001,-0.00011,4,26
47255,-9e-05,-0.00016,-0.00043,3e-05,7e-05,-0.00024,-0.0001,-0.00011,4,26
47256,-9e-05,-0.00016,-0.00043,3e-05,7e-05,-0.00024,-0.0001,-0.00011,4,26
47257,0,3e-05,8e-05,-3e-05,0.00019,-0.00015,1e-05,-2e-05,4,26
47258,0,3e-05,8e-05,-3e-05,0.00019,-0.00015,1e-05,-2e-05,4,26
47259,0,3e-05,8e-05,-3e-05,0.00019,-0.00015,1e-05,-2e-05,4,26
47260,0,3e-05,8e-05,-3e-05,0.00019,-0.00015,1e-05,-2e-05,4,26
47261,0,3e-05,8e-05,-3e-05,0.00019,-0.00015,1e-05,-2e-05,4,26
47262,0,3e-05,8e-05,-3e-05,0.00019,-0.00015,1e-05,-2e-05,4,26
47263,0,3e-05,8e-05,-3e-05,0.00019,-0.00015,1e-05,-2e-05,4,26
47264,0,3e-05,8e-05,-3e-05,0.00019,-0.00015,1e-05,-2e-05,4,26
47265,0,3e-05,8e-05,-3e-05,0.00019,-0.00015,1e-05,-2e-05,4,26
47266,0,3e-05,8e-05,-3e-05,0.00019,-0.00015,1e-05,-2e-05,4,26
47267,0,3e-05,8e-05,-3e-05,0.00019,-0.00015,1e-05,-2e-05,4,26
47268,0,3e-05,8e-05,-3e-05,0.00019,-0.00015,1e-05,-2e-05,4,26
47269,0,3e-05,8e-05,-3e-05,0.00019,-0.00015,1e-05,-2e-05,4,26
47270,0,3e-05,8e-05,-3e-05,0.00019,-0.00015,1e-05,-2e-05,4,26
47271,0,3e-05,8e-05,-3e-05,0.00019,-0.00015,1e-05,-2e-05,4,26
47272,0,3e-05,8e-05,-3e-05,0.00019,-0.00015,1e-05,-2e-05,4,26
47273,-1e-05,-7e-05,-0.00021,-0.00033,7e-05,-0.00025,2e-05,1e-05,4,26
47274,-1e-05,-7e-05,-0.00021,-0.00033,7e-05,-0.00025,2e-05,1e-05,4,26
47275,6e-05,6e-05,0.0001,-4e-05,-0.00104,0.00011,5e-05,6e-05,4,26
47276,6e-05,6e-05,0.0001,-4e-05,-0.00104,0.00011,5e-05,6e-05,4,26
47277,6e-05,6e-05,0.0001,-4e-05,-0.00104,0.00011,5e-05,6e-05,4,26
47278,6e-05,6e-05,0.0001,-4e-05,-0.00104,0.00011,5e-05,6e-05,4,26
47279,6e-05,6e-05,0.0001,-4e-05,-0.00104,0.00011,5e-05,6e-05,4,26
47280,6e-05,6e-05,0.0001,-4e-05,-0.00104,0.00011,5e-05,6e-05,4,26
47281,6e-05,6e-05,0.0001,-4e-05,-0.00104,0.00011,5e-05,6e-05,4,26
47282,6e-05,6e-05,0.0001,-4e-05,-0.00104,0.00011,5e-05,6e-05,4,26
47283,6e-05,6e-05,0.0001,-4e-05,-0.00104,0.00011,5e-05,6e-05,4,26
47284,6e-05,6e-05,0.0001,-4e-05,-0.00104,0.00011,5e-05,6e-05,4,26
47285,6e-05,6e-05,0.0001,-4e-05,-0.00104,0.00011,5e-05,6e-05,4,26
47286,6e-05,6e-05,0.0001,-4e-05,-0.00104,0.00011,5e-05,6e-05,4,26
47289,6e-05,6e-05,0.0001,-4e-05,-0.00104,0.00011,5e-05,6e-05,4,26
47290,6e-05,6e-05,0.0001,-4e-05,-0.00104,0.00011,5e-05,6e-05,4,26
47291,6e-05,6e-05,0.0001,-4e-05,-0.00104,0.00011,5e-05,6e-05,4,26
47292,6e-05,6e-05,0.0001,-4e-05,-0.00104,0.00011,5e-05,6e-05,4,26
47293,6e-05,6e-05,0.0001,-4e-05,-0.00104,0.00011,5e-05,6e-05,4,26
47294,6e-05,6e-05,0.0001,-4e-05,-0.00104,0.00011,5e-05,6e-05,4,26
47295,6e-05,6e-05,0.0001,-4e-05,-0.00104,0.00011,5e-05,6e-05,4,26
47296,4e-05,0.00011,0.00017,0.00013,-0.00011,6e-05,4e-05,2e-05,4,26
47297,-0.0002,-0.0003,-0.00039,-0.00076,-0.00113,-0.00128,-0.00056,-0.00028,4,26
47298,2e-05,-7e-05,9e-05,0.00078,0.00064,0.00035,0.00012,3e-05,4,26
47299,2e-05,-7e-05,9e-05,0.00078,0.00064,0.00035,0.00012,3e-05,4,26
47300,2e-05,-7e-05,9e-05,0.00078,0.00064,0.00035,0.00012,3e-05,4,26
47301,2e-05,-7e-05,9e-05,0.00078,0.00064,0.00035,0.00012,3e-05,4,26
47302,2e-05,-7e-05,9e-05,0.00078,0.00064,0.00035,0.00012,3e-05,4,26
47303,2e-05,-7e-05,9e-05,0.00078,0.00064,0.00035,0.00012,3e-05,4,26
47304,2e-05,-7e-05,9e-05,0.00078,0.00064,0.00035,0.00012,3e-05,4,26
47305,2e-05,-7e-05,9e-05,0.00078,0.00064,0.00035,0.00012,3e-05,4,26
47306,2e-05,-7e-05,9e-05,0.00078,0.00064,0.00035,0.00012,3e-05,4,26
47307,2e-05,-7e-05,9e-05,0.00078,0.00064,0.00035,0.00012,3e-05,4,26
47308,2e-05,-7e-05,9e-05,0.00078,0.00064,0.00035,0.00012,3e-05,4,26
47309,2e-05,-7e-05,9e-05,0.00078,0.00064,0.00035,0.00012,3e-05,4,26
47310,-0.00026,-0.00034,-0.0004,-0.00058,-0.00121,-0.00019,-0.00034,-0.00023,4,26
47311,-0.00026,-0.00034,-0.0004,-0.00058,-0.00121,-0.00019,-0.00034,-0.00023,4,26
47312,-0.00026,-0.00034,-0.0004,-0.00058,-0.00121,-0.00019,-0.00034,-0.00023,4,26
47313,-0.00026,-0.00034,-0.0004,-0.00058,-0.00121,-0.00019,-0.00034,-0.00023,4,26
47314,-0.00026,-0.00034,-0.0004,-0.00058,-0.00121,-0.00019,-0.00034,-0.00023,4,26
47315,-0.00026,-0.00034,-0.0004,-0.00058,-0.00121,-0.00019,-0.00034,-0.00023,4,26
47316,-0.00026,-0.00034,-0.0004,-0.00058,-0.00121,-0.00019,-0.00034,-0.00023,4,26
47317,-0.00026,-0.00034,-0.0004,-0.00058,-0.00121,-0.00019,-0.00034,-0.00023,4,26
47318,-6e-05,-8e-05,-0.00027,-3e-05,0.00064,-0.00088,-0.00026,-0.0001,4,26
47319,0.0001,0.00015,0.00017,0.00012,0.0008,0.0005,0.00017,0.00012,4,26
47320,0.0001,0.00015,0.00017,0.00012,0.0008,0.0005,0.00017,0.00012,4,26
47321,0.0001,0.00015,0.00017,0.00012,0.0008,0.0005,0.00017,0.00012,4,26
47322,0.0001,0.00015,0.00017,0.00012,0.0008,0.0005,0.00017,0.00012,4,26
47323,0.0001,0.00015,0.00017,0.00012,0.0008,0.0005,0.00017,0.00012,4,26
47324,0.0001,0.00015,0.00017,0.00012,0.0008,0.0005,0.00017,0.00012,4,26
47325,0.0001,0.00015,0.00017,0.00012,0.0008,0.0005,0.00017,0.00012,4,26
47326,0.0001,0.00015,0.00017,0.00012,0.0008,0.0005,0.00017,0.00012,4,26
47327,0.0001,0.00015,0.00017,0.00012,0.0008,0.0005,0.00017,0.00012,4,26
47328,0.0001,0.00015,0.00017,0.00012,0.0008,0.0005,0.00017,0.00012,4,26
47329,0.0001,0.00015,0.00017,0.00012,0.0008,0.0005,0.00017,0.00012,4,26
47330,0.0001,0.00015,0.00017,0.00012,0.0008,0.0005,0.00017,0.00012,4,26
47331,0.0001,0.00015,0.00017,0.00012,0.0008,0.0005,0.00017,0.00012,4,26
47332,0.0001,0.00015,0.00017,0.00012,0.0008,0.0005,0.00017,0.00012,4,26
47333,3e-05,7e-05,0.00027,0.00067,0.00036,-0.00014,-3e-05,-1e-05,4,26
