15007,-4e-05,-8e-05,-0.00013,-0.00061,-8e-05,0.0004,2e-05,-5e-05,4,27
15008,-4e-05,-8e-05,-0.00013,-0.00061,-8e-05,0.0004,2e-05,-5e-05,4,27
15009,-4e-05,-8e-05,-0.00013,-0.00061,-8e-05,0.0004,2e-05,-5e-05,4,27
15010,-4e-05,-8e-05,-0.00013,-0.00061,-8e-05,0.0004,2e-05,-5e-05,4,27
15011,3e-05,1e-05,-0.00012,-0.00041,0.00013,3e-05,6e-05,2e-05,4,27
15012,3e-05,1e-05,-0.00012,-0.00041,0.00013,3e-05,6e-05,2e-05,4,27
15013,-4e-05,-4e-05,-7e-05,-0.00019,0.0005,-0.00028,-1e-05,-4e-05,4,27
15014,-4e-05,-4e-05,-7e-05,-0.00019,0.0005,-0.00028,-1e-05,-4e-05,4,27
15015,-4e-05,-4e-05,-7e-05,-0.00019,0.0005,-0.00028,-1e-05,-4e-05,4,27
15016,-4e-05,-4e-05,-7e-05,-0.00019,0.0005,-0.00028,-1e-05,-4e-05,4,27
15017,-4e-05,-4e-05,-7e-05,-0.00019,0.0005,-0.00028,-1e-05,-4e-05,4,27
15018,-4e-05,-4e-05,-7e-05,-0.00019,0.0005,-0.00028,-1e-05,-4e-05,4,27
15019,-4e-05,-4e-05,-7e-05,-0.00019,0.0005,-0.00028,-1e-05,-4e-05,4,27
15020,-4e-05,-4e-05,-7e-05,-0.00019,0.0005,-0.00028,-1e-05,-4e-05,4,27
15021,-4e-05,-4e-05,-7e-05,-0.00019,0.0005,-0.00028,-1e-05,-4e-05,4,27
15022,-4e-05,-4e-05,-7e-05,-0.00019,0.0005,-0.00028,-1e-05,-4e-05,4,27
15023,-4e-05,-4e-05,-7e-05,-0.00019,0.0005,-0.00028,-1e-05,-4e-05,4,27
15024,-4e-05,-4e-05,-7e-05,-0.00019,0.0005,-0.00028,-1e-05,-4e-05,4,27
15025,1e-05,-5e-05,-9e-05,-8e-05,-0.00032,-6e-05,-0.0001,-4e-05,4,27
15026,-5e-05,-2e-05,2e-05,5e-05,-0.0002,-0.00111,-6e-05,-2e-05,4,27
15027,-5e-05,-2e-05,2e-05,5e-05,-0.0002,-0.00111,-6e-05,-2e-05,4,27
15028,-5e-05,-2e-05,2e-05,5e-05,-0.0002,-0.00111,-6e-05,-2e-05,4,27
15029,-5e-05,-2e-05,2e-05,5e-05,-0.0002,-0.00111,-6e-05,-2e-05,4,27
15030,-5e-05,-2e-05,2e-05,5e-05,-0.0002,-0.00111,-6e-05,-2e-05,4,27
15031,-5e-05,-2e-05,2e-05,5e-05,-0.0002,-0.00111,-6e-05,-2e-05,4,27
15033,1e-05,-1e-05,-3e-05,-0.00027,-0.00044,0.00037,8e-05,4e-05,4,27
15034,1e-05,-1e-05,-3e-05,-0.00027,-0.00044,0.00037,8e-05,4e-05,4,27
15035,1e-05,-1e-05,-3e-05,-0.00027,-0.00044,0.00037,8e-05,4e-05,4,27
15036,1e-05,-1e-05,-3e-05,-0.00027,-0.00044,0.00037,8e-05,4e-05,4,27
15039,1e-05,-1e-05,-3e-05,-0.00027,-0.00044,0.00037,8e-05,4e-05,4,27
15040,1e-05,-1e-05,-3e-05,-0.00027,-0.00044,0.00037,8e-05,4e-05,4,27
15041,1e-05,-1e-05,-3e-05,-0.00027,-0.00044,0.00037,8e-05,4e-05,4,27
15042,1e-05,-1e-05,-3e-05,-0.00027,-0.00044,0.00037,8e-05,4e-05,4,27
15043,1e-05,-1e-05,-3e-05,-0.00027,-0.00044,0.00037,8e-05,4e-05,4,27
15044,1e-05,-1e-05,-3e-05,-0.00027,-0.00044,0.00037,8e-05,4e-05,4,27
15045,1e-05,-1e-05,-3e-05,-0.00027,-0.00044,0.00037,8e-05,4e-05,4,27
15046,1e-05,-1e-05,-3e-05,-0.00027,-0.00044,0.00037,8e-05,4e-05,4,27
15047,1e-05,-1e-05,-3e-05,-0.00027,-0.00044,0.00037,8e-05,4e-05,4,27
15048,5e-05,6e-05,0.0001,0.00029,0.0003,0,-2e-05,0,4,27
15049,5e-05,6e-05,0.0001,0.00029,0.0003,0,-2e-05,0,4,27
15050,5e-05,6e-05,0.0001,0.00029,0.0003,0,-2e-05,0,4,27
15051,5e-05,6e-05,0.0001,0.00029,0.0003,0,-2e-05,0,4,27
15052,5e-05,6e-05,0.0001,0.00029,0.0003,0,-2e-05,0,4,27
15053,5e-05,6e-05,0.0001,0.00029,0.0003,0,-2e-05,0,4,27
15054,5e-05,6e-05,0.0001,0.00029,0.0003,0,-2e-05,0,4,27
15055,-2e-05,3e-05,0,-0.00031,0.00011,-0.00012,-0.00011,-5e-05,4,27
15056,-2e-05,3e-05,0,-0.00031,0.00011,-0.00012,-0.00011,-5e-05,4,27
15057,-2e-05,3e-05,0,-0.00031,0.00011,-0.00012,-0.00011,-5e-05,4,27
15058,-2e-05,3e-05,0,-0.00031,0.00011,-0.00012,-0.00011,-5e-05,4,27
15059,-2e-05,3e-05,0,-0.00031,0.00011,-0.00012,-0.00011,-5e-05,4,27
15060,-2e-05,3e-05,0,-0.00031,0.00011,-0.00012,-0.00011,-5e-05,4,27
15061,-2e-05,3e-05,0,-0.00031,0.00011,-0.00012,-0.00011,-5e-05,4,27
15062,-2e-05,3e-05,0,-0.00031,0.00011,-0.00012,-0.00011,-5e-05,4,27
15063,-2e-05,3e-05,0,-0.00031,0.00011,-0.00012,-0.00011,-5e-05,4,27
15064,-2e-05,3e-05,0,-0.00031,0.00011,-0.00012,-0.00011,-5e-05,4,27
15065,-2e-05,3e-05,0,-0.00031,0.00011,-0.00012,-0.00011,-5e-05,4,27
15066,-2e-05,3e-05,0,-0.00031,0.00011,-0.00012,-0.00011,-5e-05,4,27
15067,-2e-05,3e-05,0,-0.00031,0.00011,-0.00012,-0.00011,-5e-05,4,27
15068,-2e-05,3e-05,0,-0.00031,0.00011,-0.00012,-0.00011,-5e-05,4,27
15069,-2e-05,3e-05,0,-0.00031,0.00011,-0.00012,-0.00011,-5e-05,4,27
15070,-2e-05,3e-05,0,-0.00031,0.00011,-0.00012,-0.00011,-5e-05,4,27
15071,-2e-05,-8e-05,-2e-05,0.00028,0.00071,0.00049,3e-05,-1e-05,4,27
15072,-2e-05,-8e-05,-2e-05,0.00028,0.00071,0.00049,3e-05,-1e-05,4,27
15073,-1e-05,1e-05,0.00012,0.00072,0.0003,-0.00046,-7e-05,1e-05,4,27
15074,-1e-05,1e-05,0.00012,0.00072,0.0003,-0.00046,-7e-05,1e-05,4,27
15075,-1e-05,1e-05,0.00012,0.00072,0.0003,-0.00046,-7e-05,1e-05,4,27
15076,-1e-05,1e-05,0.00012,0.00072,0.0003,-0.00046,-7e-05,1e-05,4,27
15077,-1e-05,1e-05,0.00012,0.00072,0.0003,-0.00046,-7e-05,1e-05,4,27
15078,-1e-05,1e-05,0.00012,0.00072,0.0003,-0.00046,-7e-05,1e-05,4,27
15079,-1e-05,1e-05,0.00012,0.00072,0.0003,-0.00046,-7e-05,1e-05,4,27
15080,-1e-05,1e-05,0.00012,0.00072,0.0003,-0.00046,-7e-05,1e-05,4,27
15081,-1e-05,1e-05,0.00012,0.00072,0.0003,-0.00046,-7e-05,1e-05,4,27
15082,-1e-05,1e-05,0.00012,0.00072,0.0003,-0.00046,-7e-05,1e-05,4,27
15083,-1e-05,1e-05,0.00012,0.00072,0.0003,-0.00046,-7e-05,1e-05,4,27
15084,-1e-05,1e-05,0.00012,0.00072,0.0003,-0.00046,-7e-05,1e-05,4,27
15085,-1e-05,2e-05,3e-05,9e-05,-0.00018,2e-05,-1e-05,-1e-05,4,27
15086,-2e-05,0,-1e-05,-0.00012,0.0005,-0.00012,-1e-05,-3e-05,4,27
15088,-2e-05,0,-1e-05,-0.00012,0.0005,-0.00012,-1e-05,-3e-05,4,27
15089,-2e-05,0,-1e-05,-0.00012,0.0005,-0.00012,-1e-05,-3e-05,4,27
15090,-2e-05,0,-1e-05,-0.00012,0.0005,-0.00012,-1e-05,-3e-05,4,27
15091,-2e-05,0,-1e-05,-0.00012,0.0005,-0.00012,-1e-05,-3e-05,4,27
15092,4e-05,4e-05,0.00011,0.00053,-0.00027,-0.00041,-0.0001,4e-05,4,27
15094,4e-05,4e-05,0.00011,0.00053,-0.00027,-0.00041,-0.0001,4e-05,4,27
15095,4e-05,4e-05,0.00011,0.00053,-0.00027,-0.00041,-0.0001,4e-05,4,27
15096,4e-05,4e-05,0.00011,0.00053,-0.00027,-0.00041,-0.0001,4e-05,4,27
15097,4e-05,4e-05,0.00011,0.00053,-0.00027,-0.00041,-0.0001,4e-05,4,27
15098,4e-05,4e-05,0.00011,0.00053,-0.00027,-0.00041,-0.0001,4e-05,4,27
15099,4e-05,4e-05,0.00011,0.00053,-0.00027,-0.00041,-0.0001,4e-05,4,27
15100,4e-05,4e-05,0.00011,0.00053,-0.00027,-0.00041,-0.0001,4e-05,4,27
15101,4e-05,4e-05,0.00011,0.00053,-0.00027,-0.00041,-0.0001,4e-05,4,27
15102,4e-05,4e-05,0.00011,0.00053,-0.00027,-0.00041,-0.0001,4e-05,4,27
15103,4e-05,4e-05,0.00011,0.00053,-0.00027,-0.00041,-0.0001,4e-05,4,27
15104,4e-05,4e-05,0.00011,0.00053,-0.00027,-0.00041,-0.0001,4e-05,4,27
15105,4e-05,4e-05,0.00011,0.00053,-0.00027,-0.00041,-0.0001,4e-05,4,27
15106,4e-05,4e-05,0.00011,0.00053,-0.00027,-0.00041,-0.0001,4e-05,4,27
15107,4e-05,4e-05,0.00011,0.00053,-0.00027,-0.00041,-0.0001,4e-05,4,27
15108,1e-05,1e-05,0.00012,0.00014,-2e-05,0.0006,7e-05,3e-05,4,27
15109,1e-05,1e-05,0.00012,0.00014,-2e-05,0.0006,7e-05,3e-05,4,27
15110,1e-05,1e-05,0.00012,0.00014,-2e-05,0.0006,7e-05,3e-05,4,27
15111,1e-05,1e-05,0.00012,0.00014,-2e-05,0.0006,7e-05,3e-05,4,27
15112,1e-05,1e-05,0.00012,0.00014,-2e-05,0.0006,7e-05,3e-05,4,27
15113,1e-05,1e-05,0.00012,0.00014,-2e-05,0.0006,7e-05,3e-05,4,27
15114,1e-05,1e-05,0.00012,0.00014,-2e-05,0.0006,7e-05,3e-05,4,27
15115,1e-05,2e-05,6e-05,0.00055,0.00073,2e-05,0,-2e-05,4,27
15116,1e-05,2e-05,6e-05,0.00055,0.00073,2e-05,0,-2e-05,4,27
15117,1e-05,2e-05,6e-05,0.00055,0.00073,2e-05,0,-2e-05,4,27
15118,1e-05,2e-05,6e-05,0.00055,0.00073,2e-05,0,-2e-05,4,27
15119,1e-05,2e-05,6e-05,0.00055,0.00073,2e-05,0,-2e-05,4,27
15120,1e-05,2e-05,6e-05,0.00055,0.00073,2e-05,0,-2e-05,4,27
15121,1e-05,2e-05,6e-05,0.00055,0.00073,2e-05,0,-2e-05,4,27
15122,1e-05,2e-05,6e-05,0.00055,0.00073,2e-05,0,-2e-05,4,27
15123,1e-05,2e-05,6e-05,0.00055,0.00073,2e-05,0,-2e-05,4,27
15124,1e-05,2e-05,6e-05,0.00055,0.00073,2e-05,0,-2e-05,4,27
15125,1e-05,2e-05,6e-05,0.00055,0.00073,2e-05,0,-2e-05,4,27
15126,1e-05,2e-05,6e-05,0.00055,0.00073,2e-05,0,-2e-05,4,27
15127,1e-05,2e-05,6e-05,0.00055,0.00073,2e-05,0,-2e-05,4,27
15128,1e-05,2e-05,6e-05,0.00055,0.00073,2e-05,0,-2e-05,4,27
15129,1e-05,2e-05,6e-05,0.00055,0.00073,2e-05,0,-2e-05,4,27
15130,1e-05,2e-05,6e-05,0.00055,0.00073,2e-05,0,-2e-05,4,27
15131,4e-05,8e-05,0.00014,0.00023,-0.00088,-0.00047,-2e-05,3e-05,4,27
15132,4e-05,8e-05,0.00014,0.00023,-0.00088,-0.00047,-2e-05,3e-05,4,27
15133,1e-05,1e-05,1e-05,-0.00017,7e-05,-0.00021,-0.00013,-7e-05,4,27
15134,1e-05,1e-05,1e-05,-0.00017,7e-05,-0.00021,-0.00013,-7e-05,4,27
15135,1e-05,1e-05,1e-05,-0.00017,7e-05,-0.00021,-0.00013,-7e-05,4,27
15136,1e-05,1e-05,1e-05,-0.00017,7e-05,-0.00021,-0.00013,-7e-05,4,27
15138,1e-05,1e-05,1e-05,-0.00017,7e-05,-0.00021,-0.00013,-7e-05,4,27
15139,1e-05,1e-05,1e-05,-0.00017,7e-05,-0.00021,-0.00013,-7e-05,4,27
15140,1e-05,1e-05,1e-05,-0.00017,7e-05,-0.00021,-0.00013,-7e-05,4,27
15141,1e-05,1e-05,1e-05,-0.00017,7e-05,-0.00021,-0.00013,-7e-05,4,27
15142,1e-05,1e-05,1e-05,-0.00017,7e-05,-0.00021,-0.00013,-7e-05,4,27
15143,1e-05,1e-05,1e-05,-0.00017,7e-05,-0.00021,-0.00013,-7e-05,4,27
15144,1e-05,1e-05,1e-05,-0.00017,7e-05,-0.00021,-0.00013,-7e-05,4,27
15145,0,0,3e-05,0.00014,0.00015,0.00026,3e-05,4e-05,4,27
15146,-5e-05,-3e-05,-9e-05,-8e-05,0.0003,-5e-05,0,-9e-05,4,27
15147,-5e-05,-3e-05,-9e-05,-8e-05,0.0003,-5e-05,0,-9e-05,4,27
15148,-5e-05,-3e-05,-9e-05,-8e-05,0.0003,-5e-05,0,-9e-05,4,27
15149,-5e-05,-3e-05,-9e-05,-8e-05,0.0003,-5e-05,0,-9e-05,4,27
15150,-5e-05,-3e-05,-9e-05,-8e-05,0.0003,-5e-05,0,-9e-05,4,27
15151,-5e-05,-3e-05,-9e-05,-8e-05,0.0003,-5e-05,0,-9e-05,4,27
15152,2e-05,2e-05,-1e-05,-0.00017,-0.00032,-0.00044,1e-05,1e-05,4,27
15153,2e-05,2e-05,-1e-05,-0.00017,-0.00032,-0.00044,1e-05,1e-05,4,27
15154,2e-05,2e-05,-1e-05,-0.00017,-0.00032,-0.00044,1e-05,1e-05,4,27
15155,2e-05,2e-05,-1e-05,-0.00017,-0.00032,-0.00044,1e-05,1e-05,4,27
15156,2e-05,2e-05,-1e-05,-0.00017,-0.00032,-0.00044,1e-05,1e-05,4,27
15157,2e-05,2e-05,-1e-05,-0.00017,-0.00032,-0.00044,1e-05,1e-05,4,27
15158,2e-05,2e-05,-1e-05,-0.00017,-0.00032,-0.00044,1e-05,1e-05,4,27
15159,2e-05,2e-05,-1e-05,-0.00017,-0.00032,-0.00044,1e-05,1e-05,4,27
15160,2e-05,2e-05,-1e-05,-0.00017,-0.00032,-0.00044,1e-05,1e-05,4,27
15161,2e-05,2e-05,-1e-05,-0.00017,-0.00032,-0.00044,1e-05,1e-05,4,27
15162,2e-05,2e-05,-1e-05,-0.00017,-0.00032,-0.00044,1e-05,1e-05,4,27
15163,2e-05,2e-05,-1e-05,-0.00017,-0.00032,-0.00044,1e-05,1e-05,4,27
15164,2e-05,2e-05,-1e-05,-0.00017,-0.00032,-0.00044,1e-05,1e-05,4,27
15165,2e-05,2e-05,-1e-05,-0.00017,-0.00032,-0.00044,1e-05,1e-05,4,27
15166,2e-05,2e-05,-1e-05,-0.00017,-0.00032,-0.00044,1e-05,1e-05,4,27
15167,2e-05,2e-05,-1e-05,-0.00017,-0.00032,-0.00044,1e-05,1e-05,4,27
15168,-1e-05,3e-05,-2e-05,7e-05,-0.00078,-0.0001,-0.00011,-2e-05,4,27
15169,-1e-05,3e-05,-2e-05,7e-05,-0.00078,-0.0001,-0.00011,-2e-05,4,27
15170,-1e-05,3e-05,-2e-05,7e-05,-0.00078,-0.0001,-0.00011,-2e-05,4,27
15171,-1e-05,3e-05,-2e-05,7e-05,-0.00078,-0.0001,-0.00011,-2e-05,4,27
15172,-1e-05,3e-05,-2e-05,7e-05,-0.00078,-0.0001,-0.00011,-2e-05,4,27
15173,-1e-05,3e-05,-2e-05,7e-05,-0.00078,-0.0001,-0.00011,-2e-05,4,27
15174,-1e-05,3e-05,-2e-05,7e-05,-0.00078,-0.0001,-0.00011,-2e-05,4,27
15175,-5e-05,-1e-05,-9e-05,-0.0003,-0.00027,0.0001,-8e-05,-3e-05,4,27
15176,-5e-05,-1e-05,-9e-05,-0.0003,-0.00027,0.0001,-8e-05,-3e-05,4,27
15177,-5e-05,-1e-05,-9e-05,-0.0003,-0.00027,0.0001,-8e-05,-3e-05,4,27
15178,-5e-05,-1e-05,-9e-05,-0.0003,-0.00027,0.0001,-8e-05,-3e-05,4,27
15179,-5e-05,-1e-05,-9e-05,-0.0003,-0.00027,0.0001,-8e-05,-3e-05,4,27
15180,-5e-05,-1e-05,-9e-05,-0.0003,-0.00027,0.0001,-8e-05,-3e-05,4,27
15181,-5e-05,-1e-05,-9e-05,-0.0003,-0.00027,0.0001,-8e-05,-3e-05,4,27
15182,-5e-05,-1e-05,-9e-05,-0.0003,-0.00027,0.0001,-8e-05,-3e-05,4,27
15183,-5e-05,-1e-05,-9e-05,-0.0003,-0.00027,0.0001,-8e-05,-3e-05,4,27
15184,-5e-05,-1e-05,-9e-05,-0.0003,-0.00027,0.0001,-8e-05,-3e-05,4,27
15185,-5e-05,-1e-05,-9e-05,-0.0003,-0.00027,0.0001,-8e-05,-3e-05,4,27
15186,-5e-05,-1e-05,-9e-05,-0.0003,-0.00027,0.0001,-8e-05,-3e-05,4,27
15188,-5e-05,-1e-05,-9e-05,-0.0003,-0.00027,0.0001,-8e-05,-3e-05,4,27
15189,-5e-05,-1e-05,-9e-05,-0.0003,-0.00027,0.0001,-8e-05,-3e-05,4,27
15190,-5e-05,-1e-05,-9e-05,-0.0003,-0.00027,0.0001,-8e-05,-3e-05,4,27
15191,-2e-05,-4e-05,-0.0001,-0.0005,-0.00012,0.00013,3e-05,-2e-05,4,27
15192,-2e-05,-4e-05,-0.0001,-0.0005,-0.00012,0.00013,3e-05,-2e-05,4,27
15193,2e-05,2e-05,9e-05,0.00061,0.00022,0.00028,7e-05,1e-05,4,27
15194,2e-05,2e-05,9e-05,0.00061,0.00022,0.00028,7e-05,1e-05,4,27
15195,2e-05,2e-05,9e-05,0.00061,0.00022,0.00028,7e-05,1e-05,4,27
15196,2e-05,2e-05,9e-05,0.00061,0.00022,0.00028,7e-05,1e-05,4,27
15197,2e-05,2e-05,9e-05,0.00061,0.00022,0.00028,7e-05,1e-05,4,27
15198,2e-05,2e-05,9e-05,0.00061,0.00022,0.00028,7e-05,1e-05,4,27
15199,2e-05,2e-05,9e-05,0.00061,0.00022,0.00028,7e-05,1e-05,4,27
15200,2e-05,2e-05,9e-05,0.00061,0.00022,0.00028,7e-05,1e-05,4,27
15201,2e-05,2e-05,9e-05,0.00061,0.00022,0.00028,7e-05,1e-05,4,27
15202,2e-05,2e-05,9e-05,0.00061,0.00022,0.00028,7e-05,1e-05,4,27
15203,2e-05,2e-05,9e-05,0.00061,0.00022,0.00028,7e-05,1e-05,4,27
15204,2e-05,2e-05,9e-05,0.00061,0.00022,0.00028,7e-05,1e-05,4,27
15205,-8e-05,-0.0001,-0.00022,-0.0007,-0.00036,-2e-05,-7e-05,-9e-05,4,27
15206,5e-05,8e-05,0.00019,0.00057,-0.00028,2e-05,3e-05,8e-05,4,27
15207,5e-05,8e-05,0.00019,0.00057,-0.00028,2e-05,3e-05,8e-05,4,27
15208,5e-05,8e-05,0.00019,0.00057,-0.00028,2e-05,3e-05,8e-05,4,27
15209,5e-05,8e-05,0.00019,0.00057,-0.00028,2e-05,3e-05,8e-05,4,27
15210,5e-05,8e-05,0.00019,0.00057,-0.00028,2e-05,3e-05,8e-05,4,27
15211,5e-05,8e-05,0.00019,0.00057,-0.00028,2e-05,3e-05,8e-05,4,27
15212,-3e-05,-9e-05,-0.00011,-0.00077,-0.00074,-0.00081,-0.00013,1e-05,4,27
15213,-3e-05,-9e-05,-0.00011,-0.00077,-0.00074,-0.00081,-0.00013,1e-05,4,27
15214,-3e-05,-9e-05,-0.00011,-0.00077,-0.00074,-0.00081,-0.00013,1e-05,4,27
15215,-3e-05,-9e-05,-0.00011,-0.00077,-0.00074,-0.00081,-0.00013,1e-05,4,27
15216,-3e-05,-9e-05,-0.00011,-0.00077,-0.00074,-0.00081,-0.00013,1e-05,4,27
15217,-3e-05,-9e-05,-0.00011,-0.00077,-0.00074,-0.00081,-0.00013,1e-05,4,27
15218,-3e-05,-9e-05,-0.00011,-0.00077,-0.00074,-0.00081,-0.00013,1e-05,4,27
15219,-3e-05,-9e-05,-0.00011,-0.00077,-0.00074,-0.00081,-0.00013,1e-05,4,27
15220,-3e-05,-9e-05,-0.00011,-0.00077,-0.00074,-0.00081,-0.00013,1e-05,4,27
15221,-3e-05,-9e-05,-0.00011,-0.00077,-0.00074,-0.00081,-0.00013,1e-05,4,27
15222,-3e-05,-9e-05,-0.00011,-0.00077,-0.00074,-0.00081,-0.00013,1e-05,4,27
15223,-3e-05,-9e-05,-0.00011,-0.00077,-0.00074,-0.00081,-0.00013,1e-05,4,27
15224,-3e-05,-9e-05,-0.00011,-0.00077,-0.00074,-0.00081,-0.00013,1e-05,4,27
15225,-3e-05,-9e-05,-0.00011,-0.00077,-0.00074,-0.00081,-0.00013,1e-05,4,27
15226,-3e-05,-9e-05,-0.00011,-0.00077,-0.00074,-0.00081,-0.00013,1e-05,4,27
15227,-3e-05,-9e-05,-0.00011,-0.00077,-0.00074,-0.00081,-0.00013,1e-05,4,27
15228,1e-05,-6e-05,-2e-05,2e-05,1e-05,0.0004,4e-05,0,4,27
15229,1e-05,-6e-05,-2e-05,2e-05,1e-05,0.0004,4e-05,0,4,27
15230,1e-05,-6e-05,-2e-05,2e-05,1e-05,0.0004,4e-05,0,4,27
15231,1e-05,-6e-05,-2e-05,2e-05,1e-05,0.0004,4e-05,0,4,27
15232,1e-05,-6e-05,-2e-05,2e-05,1e-05,0.0004,4e-05,0,4,27
15233,1e-05,-6e-05,-2e-05,2e-05,1e-05,0.0004,4e-05,0,4,27
15234,1e-05,-6e-05,-2e-05,2e-05,1e-05,0.0004,4e-05,0,4,27
15235,1e-05,0,3e-05,0.00018,-0.00018,-0.00019,0,0,4,27
15236,1e-05,0,3e-05,0.00018,-0.00018,-0.00019,0,0,4,27
15239,1e-05,0,3e-05,0.00018,-0.00018,-0.00019,0,0,4,27
15240,1e-05,0,3e-05,0.00018,-0.00018,-0.00019,0,0,4,27
15241,1e-05,0,3e-05,0.00018,-0.00018,-0.00019,0,0,4,27
15242,1e-05,0,3e-05,0.00018,-0.00018,-0.00019,0,0,4,27
15243,1e-05,0,3e-05,0.00018,-0.00018,-0.00019,0,0,4,27
15244,1e-05,0,3e-05,0.00018,-0.00018,-0.00019,0,0,4,27
15245,1e-05,0,3e-05,0.00018,-0.00018,-0.00019,0,0,4,27
15246,1e-05,0,3e-05,0.00018,-0.00018,-0.00019,0,0,4,27
15247,1e-05,0,3e-05,0.00018,-0.00018,-0.00019,0,0,4,27
15248,1e-05,0,3e-05,0.00018,-0.00018,-0.00019,0,0,4,27
15249,1e-05,0,3e-05,0.00018,-0.00018,-0.00019,0,0,4,27
15250,1e-05,0,3e-05,0.00018,-0.00018,-0.00019,0,0,4,27
15251,-2e-05,-3e-05,-1e-05,-6e-05,0.00077,0.00023,5e-05,-6e-05,4,27
15252,-2e-05,-3e-05,-1e-05,-6e-05,0.00077,0.00023,5e-05,-6e-05,4,27
15253,-4e-05,-7e-05,-3e-05,-6e-05,-0.00036,0.00013,0,-3e-05,4,27
15254,-4e-05,-7e-05,-3e-05,-6e-05,-0.00036,0.00013,0,-3e-05,4,27
15255,-4e-05,-7e-05,-3e-05,-6e-05,-0.00036,0.00013,0,-3e-05,4,27
15256,-4e-05,-7e-05,-3e-05,-6e-05,-0.00036,0.00013,0,-3e-05,4,27
15257,-4e-05,-7e-05,-3e-05,-6e-05,-0.00036,0.00013,0,-3e-05,4,27
15258,-4e-05,-7e-05,-3e-05,-6e-05,-0.00036,0.00013,0,-3e-05,4,27
15259,-4e-05,-7e-05,-3e-05,-6e-05,-0.00036,0.00013,0,-3e-05,4,27
15260,-4e-05,-7e-05,-3e-05,-6e-05,-0.00036,0.00013,0,-3e-05,4,27
15261,-4e-05,-7e-05,-3e-05,-6e-05,-0.00036,0.00013,0,-3e-05,4,27
15262,-4e-05,-7e-05,-3e-05,-6e-05,-0.00036,0.00013,0,-3e-05,4,27
15263,-4e-05,-7e-05,-3e-05,-6e-05,-0.00036,0.00013,0,-3e-05,4,27
15264,-4e-05,-7e-05,-3e-05,-6e-05,-0.00036,0.00013,0,-3e-05,4,27
15265,-1e-05,-1e-05,-0.0001,-0.00019,-4e-05,0.00019,1e-05,-5e-05,4,27
15266,-1e-05,-1e-05,-0.0001,-0.00019,-4e-05,0.00019,1e-05,-5e-05,4,27
15267,-1e-05,-1e-05,-0.0001,-0.00019,-4e-05,0.00019,1e-05,-5e-05,4,27
15268,-1e-05,-1e-05,-0.0001,-0.00019,-4e-05,0.00019,1e-05,-5e-05,4,27
15269,-1e-05,-1e-05,-0.0001,-0.00019,-4e-05,0.00019,1e-05,-5e-05,4,27
15270,-1e-05,-1e-05,-0.0001,-0.00019,-4e-05,0.00019,1e-05,-5e-05,4,27
15271,-1e-05,-1e-05,-0.0001,-0.00019,-4e-05,0.00019,1e-05,-5e-05,4,27
15272,-3e-05,-2e-05,-7e-05,5e-05,-0.0001,-5e-05,-3e-05,-5e-05,4,27
15273,-3e-05,-2e-05,-7e-05,5e-05,-0.0001,-5e-05,-3e-05,-5e-05,4,27
15274,-3e-05,-2e-05,-7e-05,5e-05,-0.0001,-5e-05,-3e-05,-5e-05,4,27
15275,-3e-05,-2e-05,-7e-05,5e-05,-0.0001,-5e-05,-3e-05,-5e-05,4,27
15276,-3e-05,-2e-05,-7e-05,5e-05,-0.0001,-5e-05,-3e-05,-5e-05,4,27
15277,-3e-05,-2e-05,-7e-05,5e-05,-0.0001,-5e-05,-3e-05,-5e-05,4,27
15278,-3e-05,-2e-05,-7e-05,5e-05,-0.0001,-5e-05,-3e-05,-5e-05,4,27
15279,-3e-05,-2e-05,-7e-05,5e-05,-0.0001,-5e-05,-3e-05,-5e-05,4,27
15280,-3e-05,-2e-05,-7e-05,5e-05,-0.0001,-5e-05,-3e-05,-5e-05,4,27
15281,-3e-05,-2e-05,-7e-05,5e-05,-0.0001,-5e-05,-3e-05,-5e-05,4,27
15282,-3e-05,-2e-05,-7e-05,5e-05,-0.0001,-5e-05,-3e-05,-5e-05,4,27
15283,-3e-05,-2e-05,-7e-05,5e-05,-0.0001,-5e-05,-3e-05,-5e-05,4,27
15284,-3e-05,-2e-05,-7e-05,5e-05,-0.0001,-5e-05,-3e-05,-5e-05,4,27
15285,-3e-05,-2e-05,-7e-05,5e-05,-0.0001,-5e-05,-3e-05,-5e-05,4,27
15286,-3e-05,-2e-05,-7e-05,5e-05,-0.0001,-5e-05,-3e-05,-5e-05,4,27
15289,-2e-05,-5e-05,-8e-05,-0.00033,0.00072,7e-05,-5e-05,-1e-05,4,27
15290,-2e-05,-5e-05,-8e-05,-0.00033,0.00072,7e-05,-5e-05,-1e-05,4,27
15291,-2e-05,-5e-05,-8e-05,-0.00033,0.00072,7e-05,-5e-05,-1e-05,4,27
15292,-2e-05,-5e-05,-8e-05,-0.00033,0.00072,7e-05,-5e-05,-1e-05,4,27
15293,-2e-05,-5e-05,-8e-05,-0.00033,0.00072,7e-05,-5e-05,-1e-05,4,27
15294,-2e-05,-5e-05,-8e-05,-0.00033,0.00072,7e-05,-5e-05,-1e-05,4,27
15295,-2e-05,-5e-05,-8e-05,-0.00033,0.00072,7e-05,-5e-05,-1e-05,4,27
15296,-2e-05,-5e-05,-8e-05,-0.00033,0.00072,7e-05,-5e-05,-1e-05,4,27
15297,-2e-05,-5e-05,-8e-05,-0.00033,0.00072,7e-05,-5e-05,-1e-05,4,27
15298,-2e-05,-5e-05,-8e-05,-0.00033,0.00072,7e-05,-5e-05,-1e-05,4,27
15299,-2e-05,-5e-05,-8e-05,-0.00033,0.00072,7e-05,-5e-05,-1e-05,4,27
15300,-2e-05,-5e-05,-8e-05,-0.00033,0.00072,7e-05,-5e-05,-1e-05,4,27
15301,-2e-05,-5e-05,-8e-05,-0.00033,0.00072,7e-05,-5e-05,-1e-05,4,27
15302,-3e-05,-1e-05,1e-05,0.0004,-0.00081,-0.00081,-0.00014,-5e-05,4,27
15303,-3e-05,-1e-05,1e-05,0.0004,-0.00081,-0.00081,-0.00014,-5e-05,4,27
15304,-3e-05,-1e-05,1e-05,0.0004,-0.00081,-0.00081,-0.00014,-5e-05,4,27
15305,-3e-05,-1e-05,1e-05,0.0004,-0.00081,-0.00081,-0.00014,-5e-05,4,27
15306,-3e-05,-1e-05,1e-05,0.0004,-0.00081,-0.00081,-0.00014,-5e-05,4,27
15307,-3e-05,-1e-05,1e-05,0.0004,-0.00081,-0.00081,-0.00014,-5e-05,4,27
15308,-3e-05,-1e-05,1e-05,0.0004,-0.00081,-0.00081,-0.00014,-5e-05,4,27
15309,-3e-05,-1e-05,1e-05,0.0004,-0.00081,-0.00081,-0.00014,-5e-05,4,27
15310,-3e-05,-1e-05,1e-05,0.0004,-0.00081,-0.00081,-0.00014,-5e-05,4,27
15311,-3e-05,-1e-05,1e-05,0.0004,-0.00081,-0.00081,-0.00014,-5e-05,4,27
15312,0,3e-05,3e-05,-0.00017,4e-05,-0.00035,1e-05,4e-05,4,27
15313,-2e-05,-3e-05,-3e-05,-8e-05,-0.00021,0.00039,4e-05,-1e-05,4,27
15314,0,0,-3e-05,-0.00041,6e-05,0.00041,4e-05,0,4,27
15315,0,0,-3e-05,-0.00041,6e-05,0.00041,4e-05,0,4,27
15316,0,0,-3e-05,-0.00041,6e-05,0.00041,4e-05,0,4,27
15317,0,0,-3e-05,-0.00041,6e-05,0.00041,4e-05,0,4,27
15318,0,0,-3e-05,-0.00041,6e-05,0.00041,4e-05,0,4,27
15319,0,0,-3e-05,-0.00041,6e-05,0.00041,4e-05,0,4,27
15320,0,0,-3e-05,-0.00041,6e-05,0.00041,4e-05,0,4,27
15321,0,0,-3e-05,-0.00041,6e-05,0.00041,4e-05,0,4,27
15322,0,0,-3e-05,-0.00041,6e-05,0.00041,4e-05,0,4,27
15323,0,0,-3e-05,-0.00041,6e-05,0.00041,4e-05,0,4,27
15324,0,0,-3e-05,-0.00041,6e-05,0.00041,4e-05,0,4,27
15325,-2e-05,-2e-05,0,8e-05,-0.0005,-0.00059,-1e-05,-2e-05,4,27
15326,-2e-05,-2e-05,0,8e-05,-0.0005,-0.00059,-1e-05,-2e-05,4,27
15327,-2e-05,-2e-05,0,8e-05,-0.0005,-0.00059,-1e-05,-2e-05,4,27
15328,-2e-05,-2e-05,0,8e-05,-0.0005,-0.00059,-1e-05,-2e-05,4,27
15329,-2e-05,-2e-05,0,8e-05,-0.0005,-0.00059,-1e-05,-2e-05,4,27
15330,-2e-05,-2e-05,0,8e-05,-0.0005,-0.00059,-1e-05,-2e-05,4,27
15331,-2e-05,-2e-05,0,8e-05,-0.0005,-0.00059,-1e-05,-2e-05,4,27
15332,-2e-05,-2e-05,0,8e-05,-0.0005,-0.00059,-1e-05,-2e-05,4,27
15333,-2e-05,-2e-05,0,8e-05,-0.0005,-0.00059,-1e-05,-2e-05,4,27
15334,2e-05,1e-05,1e-05,0.00023,0.00067,0.00067,5e-05,1e-05,4,27
15335,2e-05,1e-05,1e-05,0.00023,0.00067,0.00067,5e-05,1e-05,4,27
15336,2e-05,1e-05,1e-05,0.00023,0.00067,0.00067,5e-05,1e-05,4,27
15339,2e-05,1e-05,1e-05,0.00023,0.00067,0.00067,5e-05,1e-05,4,27
15340,2e-05,1e-05,1e-05,0.00023,0.00067,0.00067,5e-05,1e-05,4,27
15341,2e-05,1e-05,1e-05,0.00023,0.00067,0.00067,5e-05,1e-05,4,27
15342,2e-05,1e-05,1e-05,0.00023,0.00067,0.00067,5e-05,1e-05,4,27
15343,2e-05,1e-05,1e-05,0.00023,0.00067,0.00067,5e-05,1e-05,4,27
15344,2e-05,1e-05,1e-05,0.00023,0.00067,0.00067,5e-05,1e-05,4,27
15345,2e-05,1e-05,1e-05,0.00023,0.00067,0.00067,5e-05,1e-05,4,27
15346,2e-05,1e-05,1e-05,0.00023,0.00067,0.00067,5e-05,1e-05,4,27
15347,2e-05,1e-05,1e-05,0.00023,0.00067,0.00067,5e-05,1e-05,4,27
15348,2e-05,1e-05,1e-05,0.00023,0.00067,0.00067,5e-05,1e-05,4,27
15349,-4e-05,-1e-05,-7e-05,0.00049,-0.00015,-5e-05,-6e-05,0,4,27
15350,-4e-05,-1e-05,-7e-05,0.00049,-0.00015,-5e-05,-6e-05,0,4,27
15351,-4e-05,-1e-05,-7e-05,0.00049,-0.00015,-5e-05,-6e-05,0,4,27
15352,-4e-05,-1e-05,-7e-05,0.00049,-0.00015,-5e-05,-6e-05,0,4,27
15353,-4e-05,-1e-05,-7e-05,0.00049,-0.00015,-5e-05,-6e-05,0,4,27
15354,-4e-05,-1e-05,-7e-05,0.00049,-0.00015,-5e-05,-6e-05,0,4,27
15355,0,-2e-05,0,-0.00032,-0.00013,7e-05,-2e-05,0,4,27
15356,0,-2e-05,0,-0.00032,-0.00013,7e-05,-2e-05,0,4,27
15357,0,-2e-05,0,-0.00032,-0.00013,7e-05,-2e-05,0,4,27
15358,0,-2e-05,0,-0.00032,-0.00013,7e-05,-2e-05,0,4,27
15359,0,-2e-05,0,-0.00032,-0.00013,7e-05,-2e-05,0,4,27
15360,0,-2e-05,0,-0.00032,-0.00013,7e-05,-2e-05,0,4,27
15361,0,-2e-05,0,-0.00032,-0.00013,7e-05,-2e-05,0,4,27
15362,0,-2e-05,0,-0.00032,-0.00013,7e-05,-2e-05,0,4,27
15363,0,-2e-05,0,-0.00032,-0.00013,7e-05,-2e-05,0,4,27
15364,0,-2e-05,0,-0.00032,-0.00013,7e-05,-2e-05,0,4,27
15365,0,-2e-05,0,-0.00032,-0.00013,7e-05,-2e-05,0,4,27
15366,0,-2e-05,0,-0.00032,-0.00013,7e-05,-2e-05,0,4,27
15367,0,-2e-05,0,-0.00032,-0.00013,7e-05,-2e-05,0,4,27
15368,0,-2e-05,0,-0.00032,-0.00013,7e-05,-2e-05,0,4,27
15369,0,-2e-05,0,-0.00032,-0.00013,7e-05,-2e-05,0,4,27
15370,1e-05,-3e-05,-3e-05,-0.00017,9e-05,0.00038,0.00014,1e-05,4,27
15371,1e-05,2e-05,1e-05,0.00014,-0.00041,-0.00101,-6e-05,0,4,27
15372,-4e-05,-2e-05,-2e-05,-8e-05,-0.00018,0.00035,0.00013,3e-05,4,27
15373,-4e-05,-2e-05,-2e-05,-8e-05,-0.00018,0.00035,0.00013,3e-05,4,27
15374,-4e-05,-2e-05,-2e-05,-8e-05,-0.00018,0.00035,0.00013,3e-05,4,27
15375,-4e-05,-2e-05,-2e-05,-8e-05,-0.00018,0.00035,0.00013,3e-05,4,27
15376,-4e-05,-2e-05,-2e-05,-8e-05,-0.00018,0.00035,0.00013,3e-05,4,27
15377,-4e-05,-2e-05,-2e-05,-8e-05,-0.00018,0.00035,0.00013,3e-05,4,27
15378,-4e-05,-2e-05,-2e-05,-8e-05,-0.00018,0.00035,0.00013,3e-05,4,27
15379,-4e-05,-2e-05,-2e-05,-8e-05,-0.00018,0.00035,0.00013,3e-05,4,27
15380,-4e-05,-2e-05,-2e-05,-8e-05,-0.00018,0.00035,0.00013,3e-05,4,27
15381,-4e-05,-2e-05,-2e-05,-8e-05,-0.00018,0.00035,0.00013,3e-05,4,27
15382,-4e-05,-2e-05,-2e-05,-8e-05,-0.00018,0.00035,0.00013,3e-05,4,27
15383,-4e-05,-2e-05,-2e-05,-8e-05,-0.00018,0.00035,0.00013,3e-05,4,27
15384,-4e-05,-2e-05,-2e-05,-8e-05,-0.00018,0.00035,0.00013,3e-05,4,27
15385,-4e-05,-2e-05,-2e-05,-8e-05,-0.00018,0.00035,0.00013,3e-05,4,27
15386,0,-4e-05,-6e-05,-0.00049,-0.00054,-0.00014,-2e-05,-1e-05,4,27
15388,0,-4e-05,-6e-05,-0.00049,-0.00054,-0.00014,-2e-05,-1e-05,4,27
15389,0,-4e-05,-6e-05,-0.00049,-0.00054,-0.00014,-2e-05,-1e-05,4,27
15390,0,-4e-05,-6e-05,-0.00049,-0.00054,-0.00014,-2e-05,-1e-05,4,27
15391,0,-4e-05,-6e-05,-0.00049,-0.00054,-0.00014,-2e-05,-1e-05,4,27
15392,1e-05,5e-05,0.00011,0.00043,0.00016,0.00011,3e-05,1e-05,4,27
15393,1e-05,5e-05,0.00011,0.00043,0.00016,0.00011,3e-05,1e-05,4,27
15394,1e-05,5e-05,0.00011,0.00043,0.00016,0.00011,3e-05,1e-05,4,27
15395,1e-05,5e-05,0.00011,0.00043,0.00016,0.00011,3e-05,1e-05,4,27
15396,1e-05,5e-05,0.00011,0.00043,0.00016,0.00011,3e-05,1e-05,4,27
15397,1e-05,5e-05,0.00011,0.00043,0.00016,0.00011,3e-05,1e-05,4,27
15398,1e-05,5e-05,0.00011,0.00043,0.00016,0.00011,3e-05,1e-05,4,27
15399,1e-05,5e-05,0.00011,0.00043,0.00016,0.00011,3e-05,1e-05,4,27
15400,1e-05,5e-05,0.00011,0.00043,0.00016,0.00011,3e-05,1e-05,4,27
15401,1e-05,5e-05,0.00011,0.00043,0.00016,0.00011,3e-05,1e-05,4,27
15402,1e-05,5e-05,0.00011,0.00043,0.00016,0.00011,3e-05,1e-05,4,27
15403,1e-05,5e-05,0.00011,0.00043,0.00016,0.00011,3e-05,1e-05,4,27
15404,1e-05,5e-05,0.00011,0.00043,0.00016,0.00011,3e-05,1e-05,4,27
15405,1e-05,5e-05,0.00011,0.00043,0.00016,0.00011,3e-05,1e-05,4,27
15406,1e-05,5e-05,0.00011,0.00043,0.00016,0.00011,3e-05,1e-05,4,27
15407,1e-05,5e-05,0.00011,0.00043,0.00016,0.00011,3e-05,1e-05,4,27
15408,1e-05,5e-05,0.00011,0.00043,0.00016,0.00011,3e-05,1e-05,4,27
15409,0,0,1e-05,0.00047,-0.00089,-0.00025,-6e-05,1e-05,4,27
15410,0,0,1e-05,0.00047,-0.00089,-0.00025,-6e-05,1e-05,4,27
15411,0,0,1e-05,0.00047,-0.00089,-0.00025,-6e-05,1e-05,4,27
15412,0,0,1e-05,0.00047,-0.00089,-0.00025,-6e-05,1e-05,4,27
15413,0,0,1e-05,0.00047,-0.00089,-0.00025,-6e-05,1e-05,4,27
15414,0,0,1e-05,0.00047,-0.00089,-0.00025,-6e-05,1e-05,4,27
15415,0,-1e-05,3e-05,-7e-05,-0.00053,-0.00016,4e-05,0,4,27
15416,0,-1e-05,3e-05,-7e-05,-0.00053,-0.00016,4e-05,0,4,27
15417,0,-1e-05,3e-05,-7e-05,-0.00053,-0.00016,4e-05,0,4,27
15418,0,-1e-05,3e-05,-7e-05,-0.00053,-0.00016,4e-05,0,4,27
15419,0,-1e-05,3e-05,-7e-05,-0.00053,-0.00016,4e-05,0,4,27
15420,0,-1e-05,3e-05,-7e-05,-0.00053,-0.00016,4e-05,0,4,27
15421,0,-1e-05,3e-05,-7e-05,-0.00053,-0.00016,4e-05,0,4,27
15422,0,-1e-05,3e-05,-7e-05,-0.00053,-0.00016,4e-05,0,4,27
15423,0,-1e-05,3e-05,-7e-05,-0.00053,-0.00016,4e-05,0,4,27
15424,0,-1e-05,3e-05,-7e-05,-0.00053,-0.00016,4e-05,0,4,27
15425,0,-1e-05,3e-05,-7e-05,-0.00053,-0.00016,4e-05,0,4,27
15426,0,-1e-05,3e-05,-7e-05,-0.00053,-0.00016,4e-05,0,4,27
15427,0,-1e-05,3e-05,-7e-05,-0.00053,-0.00016,4e-05,0,4,27
15428,0,-1e-05,3e-05,-7e-05,-0.00053,-0.00016,4e-05,0,4,27
15429,0,-1e-05,3e-05,-7e-05,-0.00053,-0.00016,4e-05,0,4,27
15430,0,-1e-05,-2e-05,-0.00029,-0.00023,-0.0003,-6e-05,0,4,27
15431,2e-05,4e-05,3e-05,-0.00016,-0.00054,-0.00027,-4e-05,5e-05,4,27
15432,2e-05,4e-05,3e-05,-0.00016,-0.00054,-0.00027,-4e-05,5e-05,4,27
15433,2e-05,4e-05,3e-05,-0.00016,-0.00054,-0.00027,-4e-05,5e-05,4,27
15434,2e-05,4e-05,3e-05,-0.00016,-0.00054,-0.00027,-4e-05,5e-05,4,27
15435,2e-05,4e-05,3e-05,-0.00016,-0.00054,-0.00027,-4e-05,5e-05,4,27
15436,2e-05,4e-05,3e-05,-0.00016,-0.00054,-0.00027,-4e-05,5e-05,4,27
15438,2e-05,4e-05,3e-05,-0.00016,-0.00054,-0.00027,-4e-05,5e-05,4,27
15439,2e-05,4e-05,3e-05,-0.00016,-0.00054,-0.00027,-4e-05,5e-05,4,27
15440,2e-05,4e-05,3e-05,-0.00016,-0.00054,-0.00027,-4e-05,5e-05,4,27
15441,2e-05,4e-05,3e-05,-0.00016,-0.00054,-0.00027,-4e-05,5e-05,4,27
15442,2e-05,4e-05,3e-05,-0.00016,-0.00054,-0.00027,-4e-05,5e-05,4,27
15443,2e-05,4e-05,3e-05,-0.00016,-0.00054,-0.00027,-4e-05,5e-05,4,27
15444,2e-05,4e-05,3e-05,-0.00016,-0.00054,-0.00027,-4e-05,5e-05,4,27
15445,2e-05,4e-05,3e-05,-0.00016,-0.00054,-0.00027,-4e-05,5e-05,4,27
15446,3e-05,2e-05,6e-05,0.00014,0.00017,-4e-05,3e-05,7e-05,4,27
15447,3e-05,2e-05,6e-05,0.00014,0.00017,-4e-05,3e-05,7e-05,4,27
15448,3e-05,2e-05,6e-05,0.00014,0.00017,-4e-05,3e-05,7e-05,4,27
15449,3e-05,2e-05,6e-05,0.00014,0.00017,-4e-05,3e-05,7e-05,4,27
15450,3e-05,2e-05,6e-05,0.00014,0.00017,-4e-05,3e-05,7e-05,4,27
15451,3e-05,2e-05,6e-05,0.00014,0.00017,-4e-05,3e-05,7e-05,4,27
15452,-3e-05,-9e-05,-6e-05,0.00044,0.00039,0.00017,-1e-05,-3e-05,4,27
15453,-3e-05,-9e-05,-6e-05,0.00044,0.00039,0.00017,-1e-05,-3e-05,4,27
15454,-3e-05,-9e-05,-6e-05,0.00044,0.00039,0.00017,-1e-05,-3e-05,4,27
15455,-3e-05,-9e-05,-6e-05,0.00044,0.00039,0.00017,-1e-05,-3e-05,4,27
15456,-3e-05,-9e-05,-6e-05,0.00044,0.00039,0.00017,-1e-05,-3e-05,4,27
15457,-3e-05,-9e-05,-6e-05,0.00044,0.00039,0.00017,-1e-05,-3e-05,4,27
15458,-3e-05,-9e-05,-6e-05,0.00044,0.00039,0.00017,-1e-05,-3e-05,4,27
15459,-3e-05,-9e-05,-6e-05,0.00044,0.00039,0.00017,-1e-05,-3e-05,4,27
15460,-3e-05,-9e-05,-6e-05,0.00044,0.00039,0.00017,-1e-05,-3e-05,4,27
15461,-3e-05,-9e-05,-6e-05,0.00044,0.00039,0.00017,-1e-05,-3e-05,4,27
15462,-3e-05,-9e-05,-6e-05,0.00044,0.00039,0.00017,-1e-05,-3e-05,4,27
15463,-3e-05,-9e-05,-6e-05,0.00044,0.00039,0.00017,-1e-05,-3e-05,4,27
15464,-3e-05,-9e-05,-6e-05,0.00044,0.00039,0.00017,-1e-05,-3e-05,4,27
15465,-3e-05,-9e-05,-6e-05,0.00044,0.00039,0.00017,-1e-05,-3e-05,4,27
15466,-3e-05,-9e-05,-6e-05,0.00044,0.00039,0.00017,-1e-05,-3e-05,4,27
15467,-3e-05,-9e-05,-6e-05,0.00044,0.00039,0.00017,-1e-05,-3e-05,4,27
15468,-3e-05,-9e-05,-6e-05,0.00044,0.00039,0.00017,-1e-05,-3e-05,4,27
15469,-1e-05,5e-05,5e-05,0.00021,0.00058,-0.00028,-6e-05,-4e-05,4,27
15470,-1e-05,5e-05,5e-05,0.00021,0.00058,-0.00028,-6e-05,-4e-05,4,27
15471,-1e-05,5e-05,5e-05,0.00021,0.00058,-0.00028,-6e-05,-4e-05,4,27
15472,-1e-05,5e-05,5e-05,0.00021,0.00058,-0.00028,-6e-05,-4e-05,4,27
15473,-1e-05,5e-05,5e-05,0.00021,0.00058,-0.00028,-6e-05,-4e-05,4,27
15474,-1e-05,5e-05,5e-05,0.00021,0.00058,-0.00028,-6e-05,-4e-05,4,27
15475,-2e-05,-3e-05,-7e-05,-6e-05,-0.00021,0.00027,-2e-05,-3e-05,4,27
15476,-2e-05,-3e-05,-7e-05,-6e-05,-0.00021,0.00027,-2e-05,-3e-05,4,27
15477,-2e-05,-3e-05,-7e-05,-6e-05,-0.00021,0.00027,-2e-05,-3e-05,4,27
15478,-2e-05,-3e-05,-7e-05,-6e-05,-0.00021,0.00027,-2e-05,-3e-05,4,27
15479,-2e-05,-3e-05,-7e-05,-6e-05,-0.00021,0.00027,-2e-05,-3e-05,4,27
15480,-2e-05,-3e-05,-7e-05,-6e-05,-0.00021,0.00027,-2e-05,-3e-05,4,27
15481,-2e-05,-3e-05,-7e-05,-6e-05,-0.00021,0.00027,-2e-05,-3e-05,4,27
15482,-2e-05,-3e-05,-7e-05,-6e-05,-0.00021,0.00027,-2e-05,-3e-05,4,27
15483,-2e-05,-3e-05,-7e-05,-6e-05,-0.00021,0.00027,-2e-05,-3e-05,4,27
15484,-2e-05,-3e-05,-7e-05,-6e-05,-0.00021,0.00027,-2e-05,-3e-05,4,27
15485,-2e-05,-3e-05,-7e-05,-6e-05,-0.00021,0.00027,-2e-05,-3e-05,4,27
15486,-2e-05,-3e-05,-7e-05,-6e-05,-0.00021,0.00027,-2e-05,-3e-05,4,27
15488,-2e-05,-3e-05,-7e-05,-6e-05,-0.00021,0.00027,-2e-05,-3e-05,4,27
15489,-2e-05,-3e-05,-7e-05,-6e-05,-0.00021,0.00027,-2e-05,-3e-05,4,27
15490,0,1e-05,8e-05,0.00049,0.00022,-0.00012,1e-05,-1e-05,4,27
15491,0,-1e-05,1e-05,0.00029,0.00047,0.0006,6e-05,-2e-05,4,27
15492,0,-1e-05,1e-05,0.00029,0.00047,0.0006,6e-05,-2e-05,4,27
15493,0,-1e-05,1e-05,0.00029,0.00047,0.0006,6e-05,-2e-05,4,27
15494,0,-1e-05,1e-05,0.00029,0.00047,0.0006,6e-05,-2e-05,4,27
15495,0,-1e-05,1e-05,0.00029,0.00047,0.0006,6e-05,-2e-05,4,27
15496,0,-1e-05,1e-05,0.00029,0.00047,0.0006,6e-05,-2e-05,4,27
15497,0,-1e-05,1e-05,0.00029,0.00047,0.0006,6e-05,-2e-05,4,27
15498,0,-1e-05,1e-05,0.00029,0.00047,0.0006,6e-05,-2e-05,4,27
15499,0,-1e-05,1e-05,0.00029,0.00047,0.0006,6e-05,-2e-05,4,27
15500,0,-1e-05,1e-05,0.00029,0.00047,0.0006,6e-05,-2e-05,4,27
15501,0,-1e-05,1e-05,0.00029,0.00047,0.0006,6e-05,-2e-05,4,27
15502,0,-1e-05,1e-05,0.00029,0.00047,0.0006,6e-05,-2e-05,4,27
15503,0,-1e-05,1e-05,0.00029,0.00047,0.0006,6e-05,-2e-05,4,27
15504,0,-1e-05,1e-05,0.00029,0.00047,0.0006,6e-05,-2e-05,4,27
15505,0,-1e-05,1e-05,0.00029,0.00047,0.0006,6e-05,-2e-05,4,27
15506,-1e-05,2e-05,4e-05,3e-05,0.00021,0.0006,-1e-05,-4e-05,4,27
15507,-1e-05,2e-05,4e-05,3e-05,0.00021,0.0006,-1e-05,-4e-05,4,27
15508,-1e-05,2e-05,4e-05,3e-05,0.00021,0.0006,-1e-05,-4e-05,4,27
15509,-1e-05,2e-05,4e-05,3e-05,0.00021,0.0006,-1e-05,-4e-05,4,27
15510,-1e-05,2e-05,4e-05,3e-05,0.00021,0.0006,-1e-05,-4e-05,4,27
15511,-1e-05,2e-05,4e-05,3e-05,0.00021,0.0006,-1e-05,-4e-05,4,27
15512,-4e-05,-5e-05,-0.00014,-0.00093,6e-05,-5e-05,1e-05,0,4,27
15513,-4e-05,-5e-05,-0.00014,-0.00093,6e-05,-5e-05,1e-05,0,4,27
15514,-4e-05,-5e-05,-0.00014,-0.00093,6e-05,-5e-05,1e-05,0,4,27
15515,-4e-05,-5e-05,-0.00014,-0.00093,6e-05,-5e-05,1e-05,0,4,27
15516,-4e-05,-5e-05,-0.00014,-0.00093,6e-05,-5e-05,1e-05,0,4,27
15517,-4e-05,-5e-05,-0.00014,-0.00093,6e-05,-5e-05,1e-05,0,4,27
15518,-4e-05,-5e-05,-0.00014,-0.00093,6e-05,-5e-05,1e-05,0,4,27
15519,-4e-05,-5e-05,-0.00014,-0.00093,6e-05,-5e-05,1e-05,0,4,27
15520,-4e-05,-5e-05,-0.00014,-0.00093,6e-05,-5e-05,1e-05,0,4,27
15521,-4e-05,-5e-05,-0.00014,-0.00093,6e-05,-5e-05,1e-05,0,4,27
15522,-4e-05,-5e-05,-0.00014,-0.00093,6e-05,-5e-05,1e-05,0,4,27
15523,-4e-05,-5e-05,-0.00014,-0.00093,6e-05,-5e-05,1e-05,0,4,27
15524,-4e-05,-5e-05,-0.00014,-0.00093,6e-05,-5e-05,1e-05,0,4,27
15525,-4e-05,-5e-05,-0.00014,-0.00093,6e-05,-5e-05,1e-05,0,4,27
15526,-4e-05,-5e-05,-0.00014,-0.00093,6e-05,-5e-05,1e-05,0,4,27
15527,-4e-05,-5e-05,-0.00014,-0.00093,6e-05,-5e-05,1e-05,0,4,27
15528,-4e-05,-5e-05,-0.00014,-0.00093,6e-05,-5e-05,1e-05,0,4,27
15529,-4e-05,-3e-05,-7e-05,-0.0002,0.00033,0.00021,5e-05,-2e-05,4,27
15530,-4e-05,-3e-05,-7e-05,-0.0002,0.00033,0.00021,5e-05,-2e-05,4,27
15531,-4e-05,-3e-05,-7e-05,-0.0002,0.00033,0.00021,5e-05,-2e-05,4,27
15532,-4e-05,-3e-05,-7e-05,-0.0002,0.00033,0.00021,5e-05,-2e-05,4,27
15533,-4e-05,-3e-05,-7e-05,-0.0002,0.00033,0.00021,5e-05,-2e-05,4,27
15534,-4e-05,-3e-05,-7e-05,-0.0002,0.00033,0.00021,5e-05,-2e-05,4,27
15535,-1e-05,0,-5e-05,4e-05,5e-05,-1e-05,7e-05,1e-05,4,27
15536,-1e-05,0,-5e-05,4e-05,5e-05,-1e-05,7e-05,1e-05,4,27
15538,-1e-05,0,-5e-05,4e-05,5e-05,-1e-05,7e-05,1e-05,4,27
15539,-1e-05,0,-5e-05,4e-05,5e-05,-1e-05,7e-05,1e-05,4,27
15540,-1e-05,0,-5e-05,4e-05,5e-05,-1e-05,7e-05,1e-05,4,27
15541,-1e-05,0,-5e-05,4e-05,5e-05,-1e-05,7e-05,1e-05,4,27
15542,-1e-05,0,-5e-05,4e-05,5e-05,-1e-05,7e-05,1e-05,4,27
15543,-1e-05,0,-5e-05,4e-05,5e-05,-1e-05,7e-05,1e-05,4,27
15544,-1e-05,0,-5e-05,4e-05,5e-05,-1e-05,7e-05,1e-05,4,27
15545,-1e-05,0,-5e-05,4e-05,5e-05,-1e-05,7e-05,1e-05,4,27
15546,-1e-05,0,-5e-05,4e-05,5e-05,-1e-05,7e-05,1e-05,4,27
15547,-1e-05,0,-5e-05,4e-05,5e-05,-1e-05,7e-05,1e-05,4,27
15548,-1e-05,0,-5e-05,4e-05,5e-05,-1e-05,7e-05,1e-05,4,27
15549,-1e-05,0,-5e-05,4e-05,5e-05,-1e-05,7e-05,1e-05,4,27
15550,-3e-05,-7e-05,-9e-05,-0.00022,-4e-05,-7e-05,3e-05,-2e-05,4,27
15551,3e-05,4e-05,4e-05,-0.00032,0.00028,-5e-05,-7e-05,2e-05,4,27
15552,3e-05,4e-05,4e-05,-0.00032,0.00028,-5e-05,-7e-05,2e-05,4,27
15553,3e-05,4e-05,4e-05,-0.00032,0.00028,-5e-05,-7e-05,2e-05,4,27
15554,3e-05,4e-05,4e-05,-0.00032,0.00028,-5e-05,-7e-05,2e-05,4,27
15555,3e-05,4e-05,4e-05,-0.00032,0.00028,-5e-05,-7e-05,2e-05,4,27
15556,3e-05,4e-05,4e-05,-0.00032,0.00028,-5e-05,-7e-05,2e-05,4,27
15557,3e-05,4e-05,4e-05,-0.00032,0.00028,-5e-05,-7e-05,2e-05,4,27
15558,3e-05,4e-05,4e-05,-0.00032,0.00028,-5e-05,-7e-05,2e-05,4,27
15559,3e-05,4e-05,4e-05,-0.00032,0.00028,-5e-05,-7e-05,2e-05,4,27
15560,3e-05,4e-05,4e-05,-0.00032,0.00028,-5e-05,-7e-05,2e-05,4,27
15561,3e-05,4e-05,4e-05,-0.00032,0.00028,-5e-05,-7e-05,2e-05,4,27
15562,3e-05,4e-05,4e-05,-0.00032,0.00028,-5e-05,-7e-05,2e-05,4,27
15563,3e-05,4e-05,4e-05,-0.00032,0.00028,-5e-05,-7e-05,2e-05,4,27
15564,3e-05,4e-05,4e-05,-0.00032,0.00028,-5e-05,-7e-05,2e-05,4,27
15565,3e-05,4e-05,4e-05,-0.00032,0.00028,-5e-05,-7e-05,2e-05,4,27
15566,1e-05,-1e-05,-1e-05,-9e-05,-0.00034,-0.00068,0,0,4,27
15567,1e-05,-1e-05,-1e-05,-9e-05,-0.00034,-0.00068,0,0,4,27
15568,1e-05,-1e-05,-1e-05,-9e-05,-0.00034,-0.00068,0,0,4,27
15569,1e-05,-1e-05,-1e-05,-9e-05,-0.00034,-0.00068,0,0,4,27
15570,1e-05,-1e-05,-1e-05,-9e-05,-0.00034,-0.00068,0,0,4,27
15571,1e-05,-1e-05,-1e-05,-9e-05,-0.00034,-0.00068,0,0,4,27
15572,-3e-05,1e-05,-2e-05,-0.00012,-0.0001,0.00045,0,-1e-05,4,27
15573,1e-05,-1e-05,2e-05,-7e-05,0.00015,-9e-05,7e-05,1e-05,4,27
15574,1e-05,-1e-05,2e-05,-7e-05,0.00015,-9e-05,7e-05,1e-05,4,27
15575,1e-05,-1e-05,2e-05,-7e-05,0.00015,-9e-05,7e-05,1e-05,4,27
15576,1e-05,-1e-05,2e-05,-7e-05,0.00015,-9e-05,7e-05,1e-05,4,27
15577,1e-05,-1e-05,2e-05,-7e-05,0.00015,-9e-05,7e-05,1e-05,4,27
15578,1e-05,-1e-05,2e-05,-7e-05,0.00015,-9e-05,7e-05,1e-05,4,27
15579,1e-05,-1e-05,2e-05,-7e-05,0.00015,-9e-05,7e-05,1e-05,4,27
15580,1e-05,-1e-05,2e-05,-7e-05,0.00015,-9e-05,7e-05,1e-05,4,27
15581,1e-05,-1e-05,2e-05,-7e-05,0.00015,-9e-05,7e-05,1e-05,4,27
15582,1e-05,-1e-05,2e-05,-7e-05,0.00015,-9e-05,7e-05,1e-05,4,27
15583,1e-05,-1e-05,2e-05,-7e-05,0.00015,-9e-05,7e-05,1e-05,4,27
15584,1e-05,-1e-05,2e-05,-7e-05,0.00015,-9e-05,7e-05,1e-05,4,27
15585,1e-05,-1e-05,2e-05,-7e-05,0.00015,-9e-05,7e-05,1e-05,4,27
15586,1e-05,-1e-05,2e-05,-7e-05,0.00015,-9e-05,7e-05,1e-05,4,27
15589,-1e-05,0,-2e-05,-0.00025,-9e-05,0.00025,0,-1e-05,4,27
15590,-1e-05,0,-2e-05,-0.00025,-9e-05,0.00025,0,-1e-05,4,27
15591,-1e-05,0,-2e-05,-0.00025,-9e-05,0.00025,0,-1e-05,4,27
15592,-1e-05,0,-2e-05,-0.00025,-9e-05,0.00025,0,-1e-05,4,27
15593,-1e-05,0,-2e-05,-0.00025,-9e-05,0.00025,0,-1e-05,4,27
15594,-1e-05,0,-2e-05,-0.00025,-9e-05,0.00025,0,-1e-05,4,27
15595,-1e-05,-2e-05,1e-05,0.0004,-0.0003,-0.00022,-5e-05,-3e-05,4,27
15596,-1e-05,-2e-05,1e-05,0.0004,-0.0003,-0.00022,-5e-05,-3e-05,4,27
15597,-1e-05,-2e-05,1e-05,0.0004,-0.0003,-0.00022,-5e-05,-3e-05,4,27
15598,-1e-05,-2e-05,1e-05,0.0004,-0.0003,-0.00022,-5e-05,-3e-05,4,27
15599,-1e-05,-2e-05,1e-05,0.0004,-0.0003,-0.00022,-5e-05,-3e-05,4,27
15600,-1e-05,-2e-05,1e-05,0.0004,-0.0003,-0.00022,-5e-05,-3e-05,4,27
15601,-1e-05,-2e-05,1e-05,0.0004,-0.0003,-0.00022,-5e-05,-3e-05,4,27
15602,-1e-05,-2e-05,1e-05,0.0004,-0.0003,-0.00022,-5e-05,-3e-05,4,27
15603,-1e-05,-2e-05,1e-05,0.0004,-0.0003,-0.00022,-5e-05,-3e-05,4,27
15604,-1e-05,-2e-05,1e-05,0.0004,-0.0003,-0.00022,-5e-05,-3e-05,4,27
15605,-1e-05,-2e-05,1e-05,0.0004,-0.0003,-0.00022,-5e-05,-3e-05,4,27
15606,-1e-05,-2e-05,1e-05,0.0004,-0.0003,-0.00022,-5e-05,-3e-05,4,27
15607,-1e-05,-2e-05,1e-05,0.0004,-0.0003,-0.00022,-5e-05,-3e-05,4,27
15608,-1e-05,-2e-05,1e-05,0.0004,-0.0003,-0.00022,-5e-05,-3e-05,4,27
15609,-1e-05,-2e-05,1e-05,0.0004,-0.0003,-0.00022,-5e-05,-3e-05,4,27
15610,-1e-05,-2e-05,1e-05,0.0004,-0.0003,-0.00022,-5e-05,-3e-05,4,27
15611,0,3e-05,0.00015,0.00091,4e-05,0.00011,-3e-05,3e-05,4,27
15612,0,3e-05,0.00015,0.00091,4e-05,0.00011,-3e-05,3e-05,4,27
15613,0,3e-05,0.00015,0.00091,4e-05,0.00011,-3e-05,3e-05,4,27
15614,0,3e-05,0.00015,0.00091,4e-05,0.00011,-3e-05,3e-05,4,27
15615,0,3e-05,0.00015,0.00091,4e-05,0.00011,-3e-05,3e-05,4,27
15616,0,3e-05,0.00015,0.00091,4e-05,0.00011,-3e-05,3e-05,4,27
15617,1e-05,-2e-05,-3e-05,-0.00026,-0.00053,-0.00037,-3e-05,-1e-05,4,27
15618,1e-05,-2e-05,-3e-05,-0.00026,-0.00053,-0.00037,-3e-05,-1e-05,4,27
15619,1e-05,-2e-05,-3e-05,-0.00026,-0.00053,-0.00037,-3e-05,-1e-05,4,27
15620,1e-05,-2e-05,-3e-05,-0.00026,-0.00053,-0.00037,-3e-05,-1e-05,4,27
15621,1e-05,-2e-05,-3e-05,-0.00026,-0.00053,-0.00037,-3e-05,-1e-05,4,27
15622,1e-05,-2e-05,-3e-05,-0.00026,-0.00053,-0.00037,-3e-05,-1e-05,4,27
15623,1e-05,-2e-05,-3e-05,-0.00026,-0.00053,-0.00037,-3e-05,-1e-05,4,27
15624,1e-05,-2e-05,-3e-05,-0.00026,-0.00053,-0.00037,-3e-05,-1e-05,4,27
15625,1e-05,-2e-05,-3e-05,-0.00026,-0.00053,-0.00037,-3e-05,-1e-05,4,27
15626,1e-05,-2e-05,-3e-05,-0.00026,-0.00053,-0.00037,-3e-05,-1e-05,4,27
15627,1e-05,-2e-05,-3e-05,-0.00026,-0.00053,-0.00037,-3e-05,-1e-05,4,27
15628,1e-05,-2e-05,-3e-05,-0.00026,-0.00053,-0.00037,-3e-05,-1e-05,4,27
15629,1e-05,-2e-05,-3e-05,-0.00026,-0.00053,-0.00037,-3e-05,-1e-05,4,27
15630,1e-05,-2e-05,-3e-05,-0.00026,-0.00053,-0.00037,-3e-05,-1e-05,4,27
15631,1e-05,-2e-05,-3e-05,-0.00026,-0.00053,-0.00037,-3e-05,-1e-05,4,27
15632,1e-05,-2e-05,-3e-05,-0.00026,-0.00053,-0.00037,-3e-05,-1e-05,4,27
15633,3e-05,5e-05,0.0001,0.00013,-0.00048,0.00023,-3e-05,2e-05,4,27
15634,-4e-05,0,-1e-05,6e-05,-0.00022,8e-05,-7e-05,-5e-05,4,27
15635,-4e-05,0,-1e-05,6e-05,-0.00022,8e-05,-7e-05,-5e-05,4,27
15636,-4e-05,0,-1e-05,6e-05,-0.00022,8e-05,-7e-05,-5e-05,4,27
15638,-4e-05,0,-1e-05,6e-05,-0.00022,8e-05,-7e-05,-5e-05,4,27
15639,-4e-05,0,-1e-05,6e-05,-0.00022,8e-05,-7e-05,-5e-05,4,27
15640,-4e-05,0,-1e-05,6e-05,-0.00022,8e-05,-7e-05,-5e-05,4,27
15641,-4e-05,0,-1e-05,6e-05,-0.00022,8e-05,-7e-05,-5e-05,4,27
15642,-4e-05,0,-1e-05,6e-05,-0.00022,8e-05,-7e-05,-5e-05,4,27
15643,-4e-05,0,-1e-05,6e-05,-0.00022,8e-05,-7e-05,-5e-05,4,27
15644,-4e-05,0,-1e-05,6e-05,-0.00022,8e-05,-7e-05,-5e-05,4,27
15645,-4e-05,0,-1e-05,6e-05,-0.00022,8e-05,-7e-05,-5e-05,4,27
15646,-4e-05,0,-1e-05,6e-05,-0.00022,8e-05,-7e-05,-5e-05,4,27
15647,-2e-05,-3e-05,-9e-05,-0.00036,-0.00031,-0.00012,-2e-05,-5e-05,4,27
15648,-2e-05,-3e-05,-9e-05,-0.00036,-0.00031,-0.00012,-2e-05,-5e-05,4,27
15649,-2e-05,-3e-05,-9e-05,-0.00036,-0.00031,-0.00012,-2e-05,-5e-05,4,27
15650,-2e-05,-3e-05,-9e-05,-0.00036,-0.00031,-0.00012,-2e-05,-5e-05,4,27
15651,-2e-05,-3e-05,-9e-05,-0.00036,-0.00031,-0.00012,-2e-05,-5e-05,4,27
15652,-2e-05,-3e-05,-9e-05,-0.00036,-0.00031,-0.00012,-2e-05,-5e-05,4,27
15653,-2e-05,-3e-05,-9e-05,-0.00036,-0.00031,-0.00012,-2e-05,-5e-05,4,27
15654,-2e-05,-3e-05,-9e-05,-0.00036,-0.00031,-0.00012,-2e-05,-5e-05,4,27
15655,1e-05,-1e-05,0,-0.00034,0.00021,0.00017,4e-05,2e-05,4,27
15656,1e-05,-1e-05,0,-0.00034,0.00021,0.00017,4e-05,2e-05,4,27
15657,1e-05,-1e-05,0,-0.00034,0.00021,0.00017,4e-05,2e-05,4,27
15658,1e-05,-1e-05,0,-0.00034,0.00021,0.00017,4e-05,2e-05,4,27
15659,1e-05,-1e-05,0,-0.00034,0.00021,0.00017,4e-05,2e-05,4,27
15660,1e-05,-1e-05,0,-0.00034,0.00021,0.00017,4e-05,2e-05,4,27
15661,1e-05,-1e-05,0,-0.00034,0.00021,0.00017,4e-05,2e-05,4,27
15662,1e-05,-1e-05,0,-0.00034,0.00021,0.00017,4e-05,2e-05,4,27
15663,1e-05,-1e-05,0,-0.00034,0.00021,0.00017,4e-05,2e-05,4,27
15664,1e-05,-1e-05,0,-0.00034,0.00021,0.00017,4e-05,2e-05,4,27
15665,1e-05,-1e-05,0,-0.00034,0.00021,0.00017,4e-05,2e-05,4,27
15666,1e-05,-1e-05,0,-0.00034,0.00021,0.00017,4e-05,2e-05,4,27
15667,1e-05,-1e-05,0,-0.00034,0.00021,0.00017,4e-05,2e-05,4,27
15668,1e-05,-1e-05,0,-0.00034,0.00021,0.00017,4e-05,2e-05,4,27
15669,1e-05,-1e-05,0,-0.00034,0.00021,0.00017,4e-05,2e-05,4,27
15670,-2e-05,-5e-05,-3e-05,-0.00028,-0.00072,-0.00047,3e-05,-3e-05,4,27
15671,-2e-05,-5e-05,-3e-05,-0.00028,-0.00072,-0.00047,3e-05,-3e-05,4,27
15672,-2e-05,-5e-05,-3e-05,-0.00028,-0.00072,-0.00047,3e-05,-3e-05,4,27
15673,-2e-05,-5e-05,-3e-05,-0.00028,-0.00072,-0.00047,3e-05,-3e-05,4,27
15674,-2e-05,-5e-05,-3e-05,-0.00028,-0.00072,-0.00047,3e-05,-3e-05,4,27
15675,-2e-05,-5e-05,-3e-05,-0.00028,-0.00072,-0.00047,3e-05,-3e-05,4,27
15676,-2e-05,-5e-05,-3e-05,-0.00028,-0.00072,-0.00047,3e-05,-3e-05,4,27
15677,0,1e-05,-6e-05,-0.00025,0.0002,0.00061,-2e-05,3e-05,4,27
15678,0,1e-05,-6e-05,-0.00025,0.0002,0.00061,-2e-05,3e-05,4,27
15679,0,1e-05,-6e-05,-0.00025,0.0002,0.00061,-2e-05,3e-05,4,27
15680,0,1e-05,-6e-05,-0.00025,0.0002,0.00061,-2e-05,3e-05,4,27
15681,0,1e-05,-6e-05,-0.00025,0.0002,0.00061,-2e-05,3e-05,4,27
15682,0,1e-05,-6e-05,-0.00025,0.0002,0.00061,-2e-05,3e-05,4,27
15683,0,1e-05,-6e-05,-0.00025,0.0002,0.00061,-2e-05,3e-05,4,27
15684,0,1e-05,-6e-05,-0.00025,0.0002,0.00061,-2e-05,3e-05,4,27
15685,0,1e-05,-6e-05,-0.00025,0.0002,0.00061,-2e-05,3e-05,4,27
15686,-2e-05,0,-6e-05,-0.00048,5e-05,0.00012,-4e-05,1e-05,4,27
15688,-2e-05,0,-6e-05,-0.00048,5e-05,0.00012,-4e-05,1e-05,4,27
15689,-2e-05,0,-6e-05,-0.00048,5e-05,0.00012,-4e-05,1e-05,4,27
15690,-2e-05,0,-6e-05,-0.00048,5e-05,0.00012,-4e-05,1e-05,4,27
15691,-2e-05,0,-6e-05,-0.00048,5e-05,0.00012,-4e-05,1e-05,4,27
15692,0,1e-05,1e-05,-0.00037,-0.00024,-0.00019,-8e-05,-8e-05,4,27
15693,0,1e-05,1e-05,-0.00037,-0.00024,-0.00019,-8e-05,-8e-05,4,27
15694,0,1e-05,1e-05,-0.00037,-0.00024,-0.00019,-8e-05,-8e-05,4,27
15695,0,1e-05,1e-05,-0.00037,-0.00024,-0.00019,-8e-05,-8e-05,4,27
15696,0,1e-05,1e-05,-0.00037,-0.00024,-0.00019,-8e-05,-8e-05,4,27
15697,0,1e-05,1e-05,-0.00037,-0.00024,-0.00019,-8e-05,-8e-05,4,27
15698,0,1e-05,1e-05,-0.00037,-0.00024,-0.00019,-8e-05,-8e-05,4,27
15699,0,1e-05,1e-05,-0.00037,-0.00024,-0.00019,-8e-05,-8e-05,4,27
15700,0,1e-05,1e-05,-0.00037,-0.00024,-0.00019,-8e-05,-8e-05,4,27
15701,0,1e-05,1e-05,-0.00037,-0.00024,-0.00019,-8e-05,-8e-05,4,27
15702,0,1e-05,1e-05,-0.00037,-0.00024,-0.00019,-8e-05,-8e-05,4,27
15703,0,1e-05,1e-05,-0.00037,-0.00024,-0.00019,-8e-05,-8e-05,4,27
15704,0,1e-05,1e-05,-0.00037,-0.00024,-0.00019,-8e-05,-8e-05,4,27
15705,0,1e-05,1e-05,-0.00037,-0.00024,-0.00019,-8e-05,-8e-05,4,27
15706,0,1e-05,1e-05,-0.00037,-0.00024,-0.00019,-8e-05,-8e-05,4,27
15707,-3e-05,-2e-05,-9e-05,6e-05,-7e-05,0.00063,6e-05,1e-05,4,27
15708,-3e-05,-2e-05,-9e-05,6e-05,-7e-05,0.00063,6e-05,1e-05,4,27
15709,-3e-05,-2e-05,-9e-05,6e-05,-7e-05,0.00063,6e-05,1e-05,4,27
15710,-3e-05,-2e-05,-9e-05,6e-05,-7e-05,0.00063,6e-05,1e-05,4,27
15711,-3e-05,-2e-05,-9e-05,6e-05,-7e-05,0.00063,6e-05,1e-05,4,27
15712,-3e-05,-2e-05,-9e-05,6e-05,-7e-05,0.00063,6e-05,1e-05,4,27
15713,-3e-05,-2e-05,-9e-05,6e-05,-7e-05,0.00063,6e-05,1e-05,4,27
15714,-3e-05,-2e-05,-9e-05,6e-05,-7e-05,0.00063,6e-05,1e-05,4,27
15715,-5e-05,-1e-05,-1e-05,0.00016,0.00105,9e-05,5e-05,-2e-05,4,27
15716,-5e-05,-1e-05,-1e-05,0.00016,0.00105,9e-05,5e-05,-2e-05,4,27
15717,-5e-05,-1e-05,-1e-05,0.00016,0.00105,9e-05,5e-05,-2e-05,4,27
15718,-5e-05,-1e-05,-1e-05,0.00016,0.00105,9e-05,5e-05,-2e-05,4,27
15719,-5e-05,-1e-05,-1e-05,0.00016,0.00105,9e-05,5e-05,-2e-05,4,27
15720,-5e-05,-1e-05,-1e-05,0.00016,0.00105,9e-05,5e-05,-2e-05,4,27
15721,-5e-05,-1e-05,-1e-05,0.00016,0.00105,9e-05,5e-05,-2e-05,4,27
15722,-5e-05,-1e-05,-1e-05,0.00016,0.00105,9e-05,5e-05,-2e-05,4,27
15723,-5e-05,-1e-05,-1e-05,0.00016,0.00105,9e-05,5e-05,-2e-05,4,27
15724,-5e-05,-1e-05,-1e-05,0.00016,0.00105,9e-05,5e-05,-2e-05,4,27
15725,-5e-05,-1e-05,-1e-05,0.00016,0.00105,9e-05,5e-05,-2e-05,4,27
15726,-5e-05,-1e-05,-1e-05,0.00016,0.00105,9e-05,5e-05,-2e-05,4,27
15727,-5e-05,-1e-05,-1e-05,0.00016,0.00105,9e-05,5e-05,-2e-05,4,27
15728,-5e-05,-1e-05,-1e-05,0.00016,0.00105,9e-05,5e-05,-2e-05,4,27
15729,-5e-05,-1e-05,-1e-05,0.00016,0.00105,9e-05,5e-05,-2e-05,4,27
15730,-2e-05,2e-05,2e-05,-0.00015,0.00088,0.00021,-1e-05,-3e-05,4,27
15731,-2e-05,2e-05,2e-05,-0.00015,0.00088,0.00021,-1e-05,-3e-05,4,27
15732,-2e-05,2e-05,2e-05,-0.00015,0.00088,0.00021,-1e-05,-3e-05,4,27
15733,-2e-05,2e-05,2e-05,-0.00015,0.00088,0.00021,-1e-05,-3e-05,4,27
15734,-2e-05,2e-05,2e-05,-0.00015,0.00088,0.00021,-1e-05,-3e-05,4,27
15735,-2e-05,2e-05,2e-05,-0.00015,0.00088,0.00021,-1e-05,-3e-05,4,27
15736,-2e-05,2e-05,2e-05,-0.00015,0.00088,0.00021,-1e-05,-3e-05,4,27
15739,2e-05,1e-05,-2e-05,-6e-05,-0.00034,-0.00019,-1e-05,1e-05,4,27
15740,2e-05,1e-05,-2e-05,-6e-05,-0.00034,-0.00019,-1e-05,1e-05,4,27
15741,2e-05,1e-05,-2e-05,-6e-05,-0.00034,-0.00019,-1e-05,1e-05,4,27
15742,2e-05,1e-05,-2e-05,-6e-05,-0.00034,-0.00019,-1e-05,1e-05,4,27
15743,2e-05,1e-05,-2e-05,-6e-05,-0.00034,-0.00019,-1e-05,1e-05,4,27
15744,2e-05,1e-05,-2e-05,-6e-05,-0.00034,-0.00019,-1e-05,1e-05,4,27
15745,2e-05,1e-05,-2e-05,-6e-05,-0.00034,-0.00019,-1e-05,1e-05,4,27
15746,-2e-05,-1e-05,-6e-05,-0.00013,0.00037,9e-05,1e-05,-2e-05,4,27
15747,-2e-05,-1e-05,-6e-05,-0.00013,0.00037,9e-05,1e-05,-2e-05,4,27
15748,-2e-05,-1e-05,-6e-05,-0.00013,0.00037,9e-05,1e-05,-2e-05,4,27
15749,-2e-05,-1e-05,-6e-05,-0.00013,0.00037,9e-05,1e-05,-2e-05,4,27
15750,-2e-05,-1e-05,-6e-05,-0.00013,0.00037,9e-05,1e-05,-2e-05,4,27
15751,-2e-05,-1e-05,-6e-05,-0.00013,0.00037,9e-05,1e-05,-2e-05,4,27
15752,-1e-05,-3e-05,0,-0.00017,-0.00077,8e-05,-0.0001,-1e-05,4,27
15753,-1e-05,-3e-05,0,-0.00017,-0.00077,8e-05,-0.0001,-1e-05,4,27
15754,-1e-05,-3e-05,0,-0.00017,-0.00077,8e-05,-0.0001,-1e-05,4,27
15755,-1e-05,-3e-05,0,-0.00017,-0.00077,8e-05,-0.0001,-1e-05,4,27
15756,-1e-05,-3e-05,0,-0.00017,-0.00077,8e-05,-0.0001,-1e-05,4,27
15757,-1e-05,-3e-05,0,-0.00017,-0.00077,8e-05,-0.0001,-1e-05,4,27
15758,-1e-05,-3e-05,0,-0.00017,-0.00077,8e-05,-0.0001,-1e-05,4,27
15759,-1e-05,-3e-05,0,-0.00017,-0.00077,8e-05,-0.0001,-1e-05,4,27
15760,-1e-05,-3e-05,0,-0.00017,-0.00077,8e-05,-0.0001,-1e-05,4,27
15761,-1e-05,-3e-05,0,-0.00017,-0.00077,8e-05,-0.0001,-1e-05,4,27
15762,-1e-05,-3e-05,0,-0.00017,-0.00077,8e-05,-0.0001,-1e-05,4,27
15763,-1e-05,-3e-05,0,-0.00017,-0.00077,8e-05,-0.0001,-1e-05,4,27
15764,-1e-05,-3e-05,0,-0.00017,-0.00077,8e-05,-0.0001,-1e-05,4,27
15765,-1e-05,-3e-05,0,-0.00017,-0.00077,8e-05,-0.0001,-1e-05,4,27
15766,-1e-05,-3e-05,0,-0.00017,-0.00077,8e-05,-0.0001,-1e-05,4,27
15767,-2e-05,-3e-05,-1e-05,0.0001,-0.00038,-2e-05,-1e-05,-2e-05,4,27
15768,-2e-05,-3e-05,-1e-05,0.0001,-0.00038,-2e-05,-1e-05,-2e-05,4,27
15769,-2e-05,-3e-05,-1e-05,0.0001,-0.00038,-2e-05,-1e-05,-2e-05,4,27
15770,-2e-05,-3e-05,-1e-05,0.0001,-0.00038,-2e-05,-1e-05,-2e-05,4,27
15771,-2e-05,-3e-05,-1e-05,0.0001,-0.00038,-2e-05,-1e-05,-2e-05,4,27
15772,-2e-05,-3e-05,-1e-05,0.0001,-0.00038,-2e-05,-1e-05,-2e-05,4,27
15773,-2e-05,-3e-05,-1e-05,0.0001,-0.00038,-2e-05,-1e-05,-2e-05,4,27
15774,-2e-05,-3e-05,-1e-05,0.0001,-0.00038,-2e-05,-1e-05,-2e-05,4,27
15775,-2e-05,-3e-05,-9e-05,-0.00011,1e-05,0.00027,2e-05,-1e-05,4,27
15776,-2e-05,-3e-05,-9e-05,-0.00011,1e-05,0.00027,2e-05,-1e-05,4,27
15777,-2e-05,-3e-05,-9e-05,-0.00011,1e-05,0.00027,2e-05,-1e-05,4,27
15778,-2e-05,-3e-05,-9e-05,-0.00011,1e-05,0.00027,2e-05,-1e-05,4,27
15779,-2e-05,-3e-05,-9e-05,-0.00011,1e-05,0.00027,2e-05,-1e-05,4,27
15780,-2e-05,-3e-05,-9e-05,-0.00011,1e-05,0.00027,2e-05,-1e-05,4,27
15781,-2e-05,-3e-05,-9e-05,-0.00011,1e-05,0.00027,2e-05,-1e-05,4,27
15782,-2e-05,-3e-05,-9e-05,-0.00011,1e-05,0.00027,2e-05,-1e-05,4,27
15783,-2e-05,-3e-05,-9e-05,-0.00011,1e-05,0.00027,2e-05,-1e-05,4,27
15784,-2e-05,-3e-05,-9e-05,-0.00011,1e-05,0.00027,2e-05,-1e-05,4,27
15785,-2e-05,-3e-05,-9e-05,-0.00011,1e-05,0.00027,2e-05,-1e-05,4,27
15786,-2e-05,-3e-05,-9e-05,-0.00011,1e-05,0.00027,2e-05,-1e-05,4,27
15788,-2e-05,-3e-05,-9e-05,-0.00011,1e-05,0.00027,2e-05,-1e-05,4,27
15789,-2e-05,-3e-05,-9e-05,-0.00011,1e-05,0.00027,2e-05,-1e-05,4,27
15790,-2e-05,-4e-05,2e-05,0.00062,0.00026,8e-05,0,-1e-05,4,27
15791,-2e-05,-4e-05,2e-05,0.00062,0.00026,8e-05,0,-1e-05,4,27
15792,-2e-05,-4e-05,2e-05,0.00062,0.00026,8e-05,0,-1e-05,4,27
15793,-2e-05,-4e-05,2e-05,0.00062,0.00026,8e-05,0,-1e-05,4,27
15794,-2e-05,-4e-05,2e-05,0.00062,0.00026,8e-05,0,-1e-05,4,27
15795,-2e-05,-4e-05,2e-05,0.00062,0.00026,8e-05,0,-1e-05,4,27
15796,-2e-05,-4e-05,2e-05,0.00062,0.00026,8e-05,0,-1e-05,4,27
15797,-5e-05,-4e-05,-5e-05,-5e-05,-8e-05,0.00012,-8e-05,-5e-05,4,27
15798,-5e-05,-4e-05,-5e-05,-5e-05,-8e-05,0.00012,-8e-05,-5e-05,4,27
15799,-5e-05,-4e-05,-5e-05,-5e-05,-8e-05,0.00012,-8e-05,-5e-05,4,27
15800,-5e-05,-4e-05,-5e-05,-5e-05,-8e-05,0.00012,-8e-05,-5e-05,4,27
15801,-5e-05,-4e-05,-5e-05,-5e-05,-8e-05,0.00012,-8e-05,-5e-05,4,27
15802,-5e-05,-4e-05,-5e-05,-5e-05,-8e-05,0.00012,-8e-05,-5e-05,4,27
15803,-5e-05,-4e-05,-5e-05,-5e-05,-8e-05,0.00012,-8e-05,-5e-05,4,27
15804,-5e-05,-4e-05,-5e-05,-5e-05,-8e-05,0.00012,-8e-05,-5e-05,4,27
15805,-5e-05,-4e-05,-5e-05,-5e-05,-8e-05,0.00012,-8e-05,-5e-05,4,27
15806,-5e-05,-4e-05,-5e-05,-5e-05,-8e-05,0.00012,-8e-05,-5e-05,4,27
15807,-5e-05,-4e-05,-5e-05,-5e-05,-8e-05,0.00012,-8e-05,-5e-05,4,27
15808,-5e-05,-4e-05,-5e-05,-5e-05,-8e-05,0.00012,-8e-05,-5e-05,4,27
15809,-5e-05,-4e-05,-5e-05,-5e-05,-8e-05,0.00012,-8e-05,-5e-05,4,27
15810,-5e-05,-4e-05,-5e-05,-5e-05,-8e-05,0.00012,-8e-05,-5e-05,4,27
15811,-5e-05,-4e-05,-5e-05,-5e-05,-8e-05,0.00012,-8e-05,-5e-05,4,27
15812,-5e-05,-4e-05,-5e-05,-5e-05,-8e-05,0.00012,-8e-05,-5e-05,4,27
15813,-5e-05,-4e-05,-5e-05,-5e-05,-8e-05,0.00012,-8e-05,-5e-05,4,27
15814,-5e-05,-4e-05,-5e-05,-5e-05,-8e-05,0.00012,-8e-05,-5e-05,4,27
15815,-5e-05,-4e-05,-5e-05,-5e-05,-8e-05,0.00012,-8e-05,-5e-05,4,27
15816,-5e-05,-4e-05,-5e-05,-5e-05,-8e-05,0.00012,-8e-05,-5e-05,4,27
15817,-5e-05,-4e-05,-5e-05,-5e-05,-8e-05,0.00012,-8e-05,-5e-05,4,27
15818,-5e-05,-4e-05,-5e-05,-5e-05,-8e-05,0.00012,-8e-05,-5e-05,4,27
15819,-5e-05,-4e-05,-5e-05,-5e-05,-8e-05,0.00012,-8e-05,-5e-05,4,27
15820,-5e-05,-4e-05,-5e-05,-5e-05,-8e-05,0.00012,-8e-05,-5e-05,4,27
15821,1e-05,2e-05,1e-05,0,2e-05,-6e-05,-4e-05,-4e-05,4,27
15822,-2e-05,-2e-05,-4e-05,-0.00026,-0.00052,-0.00058,-0.00011,-5e-05,4,27
15823,-2e-05,-2e-05,-4e-05,-0.00026,-0.00052,-0.00058,-0.00011,-5e-05,4,27
15824,-2e-05,-2e-05,-4e-05,-0.00026,-0.00052,-0.00058,-0.00011,-5e-05,4,27
15825,-2e-05,-2e-05,-4e-05,-0.00026,-0.00052,-0.00058,-0.00011,-5e-05,4,27
15826,-2e-05,-2e-05,-4e-05,-0.00026,-0.00052,-0.00058,-0.00011,-5e-05,4,27
15827,-2e-05,-2e-05,-4e-05,-0.00026,-0.00052,-0.00058,-0.00011,-5e-05,4,27
15828,-2e-05,-2e-05,-4e-05,-0.00026,-0.00052,-0.00058,-0.00011,-5e-05,4,27
15829,-2e-05,-2e-05,-4e-05,-0.00026,-0.00052,-0.00058,-0.00011,-5e-05,4,27
15830,-2e-05,-2e-05,-4e-05,-0.00026,-0.00052,-0.00058,-0.00011,-5e-05,4,27
15831,-2e-05,-2e-05,-4e-05,-0.00026,-0.00052,-0.00058,-0.00011,-5e-05,4,27
15832,-2e-05,-2e-05,-4e-05,-0.00026,-0.00052,-0.00058,-0.00011,-5e-05,4,27
15833,-2e-05,-2e-05,-4e-05,-0.00026,-0.00052,-0.00058,-0.00011,-5e-05,4,27
15834,-2e-05,-2e-05,-4e-05,-0.00026,-0.00052,-0.00058,-0.00011,-5e-05,4,27
15835,1e-05,1e-05,3e-05,0.00015,5e-05,-4e-05,-3e-05,-3e-05,4,27
15836,4e-05,7e-05,0.00013,0.00023,-0.0009,-0.0002,2e-05,2e-05,4,27
15838,4e-05,7e-05,0.00013,0.00023,-0.0009,-0.0002,2e-05,2e-05,4,27
15839,4e-05,7e-05,0.00013,0.00023,-0.0009,-0.0002,2e-05,2e-05,4,27
15840,4e-05,7e-05,0.00013,0.00023,-0.0009,-0.0002,2e-05,2e-05,4,27
15841,4e-05,7e-05,0.00013,0.00023,-0.0009,-0.0002,2e-05,2e-05,4,27
15842,4e-05,7e-05,0.00013,0.00023,-0.0009,-0.0002,2e-05,2e-05,4,27
15844,4e-05,7e-05,0.00013,0.00023,-0.0009,-0.0002,2e-05,2e-05,4,27
15845,4e-05,7e-05,0.00013,0.00023,-0.0009,-0.0002,2e-05,2e-05,4,27
15846,4e-05,7e-05,0.00013,0.00023,-0.0009,-0.0002,2e-05,2e-05,4,27
15847,4e-05,7e-05,0.00013,0.00023,-0.0009,-0.0002,2e-05,2e-05,4,27
15848,4e-05,7e-05,0.00013,0.00023,-0.0009,-0.0002,2e-05,2e-05,4,27
15849,4e-05,7e-05,0.00013,0.00023,-0.0009,-0.0002,2e-05,2e-05,4,27
15850,4e-05,7e-05,0.00013,0.00023,-0.0009,-0.0002,2e-05,2e-05,4,27
15851,4e-05,7e-05,0.00013,0.00023,-0.0009,-0.0002,2e-05,2e-05,4,27
15852,4e-05,7e-05,0.00013,0.00023,-0.0009,-0.0002,2e-05,2e-05,4,27
15853,4e-05,7e-05,0.00013,0.00023,-0.0009,-0.0002,2e-05,2e-05,4,27
15854,4e-05,7e-05,0.00013,0.00023,-0.0009,-0.0002,2e-05,2e-05,4,27
15855,4e-05,7e-05,0.00013,0.00023,-0.0009,-0.0002,2e-05,2e-05,4,27
15856,4e-05,7e-05,0.00013,0.00023,-0.0009,-0.0002,2e-05,2e-05,4,27
15857,4e-05,7e-05,0.00013,0.00023,-0.0009,-0.0002,2e-05,2e-05,4,27
15858,1e-05,-3e-05,-2e-05,-0.00036,-0.0005,-9e-05,1e-05,2e-05,4,27
15859,-3e-05,-4e-05,-8e-05,-0.00062,9e-05,-0.00017,6e-05,0,4,27
15860,-3e-05,-4e-05,-8e-05,-0.00062,9e-05,-0.00017,6e-05,0,4,27
15861,-3e-05,-4e-05,-8e-05,-0.00062,9e-05,-0.00017,6e-05,0,4,27
15862,-3e-05,-4e-05,-8e-05,-0.00062,9e-05,-0.00017,6e-05,0,4,27
15863,-3e-05,-4e-05,-8e-05,-0.00062,9e-05,-0.00017,6e-05,0,4,27
15864,-3e-05,-4e-05,-8e-05,-0.00062,9e-05,-0.00017,6e-05,0,4,27
15865,-3e-05,-4e-05,-8e-05,-0.00062,9e-05,-0.00017,6e-05,0,4,27
15866,-3e-05,-4e-05,-8e-05,-0.00062,9e-05,-0.00017,6e-05,0,4,27
15867,-3e-05,-4e-05,-8e-05,-0.00062,9e-05,-0.00017,6e-05,0,4,27
15868,-3e-05,-4e-05,-8e-05,-0.00062,9e-05,-0.00017,6e-05,0,4,27
15869,-3e-05,-4e-05,-8e-05,-0.00062,9e-05,-0.00017,6e-05,0,4,27
15870,-3e-05,-4e-05,-8e-05,-0.00062,9e-05,-0.00017,6e-05,0,4,27
15871,-3e-05,-4e-05,-8e-05,-0.00062,9e-05,-0.00017,6e-05,0,4,27
15872,-3e-05,-4e-05,-8e-05,-0.00062,9e-05,-0.00017,6e-05,0,4,27
15873,-3e-05,-4e-05,-8e-05,-0.00062,9e-05,-0.00017,6e-05,0,4,27
15874,-3e-05,-4e-05,-8e-05,-0.00062,9e-05,-0.00017,6e-05,0,4,27
15875,-3e-05,-4e-05,-8e-05,-0.00062,9e-05,-0.00017,6e-05,0,4,27
15876,-3e-05,-4e-05,-8e-05,-0.00062,9e-05,-0.00017,6e-05,0,4,27
15877,-3e-05,-4e-05,-8e-05,-0.00062,9e-05,-0.00017,6e-05,0,4,27
15878,-3e-05,-4e-05,-8e-05,-0.00062,9e-05,-0.00017,6e-05,0,4,27
15879,-3e-05,-4e-05,-8e-05,-0.00062,9e-05,-0.00017,6e-05,0,4,27
15880,-3e-05,-4e-05,-8e-05,-0.00062,9e-05,-0.00017,6e-05,0,4,27
15881,2e-05,2e-05,-0.00011,-0.00052,-0.00067,-0.00058,-2e-05,-1e-05,4,27
15882,-5e-05,-6e-05,-5e-05,-0.00016,0.00029,-0.00023,2e-05,-1e-05,4,27
15883,-5e-05,-6e-05,-5e-05,-0.00016,0.00029,-0.00023,2e-05,-1e-05,4,27
15884,-5e-05,-6e-05,-5e-05,-0.00016,0.00029,-0.00023,2e-05,-1e-05,4,27
15885,-5e-05,-6e-05,-5e-05,-0.00016,0.00029,-0.00023,2e-05,-1e-05,4,27
15886,-5e-05,-6e-05,-5e-05,-0.00016,0.00029,-0.00023,2e-05,-1e-05,4,27
15888,-5e-05,-6e-05,-5e-05,-0.00016,0.00029,-0.00023,2e-05,-1e-05,4,27
15889,-5e-05,-6e-05,-5e-05,-0.00016,0.00029,-0.00023,2e-05,-1e-05,4,27
15890,-5e-05,-6e-05,-5e-05,-0.00016,0.00029,-0.00023,2e-05,-1e-05,4,27
15891,-5e-05,-6e-05,-5e-05,-0.00016,0.00029,-0.00023,2e-05,-1e-05,4,27
15892,-5e-05,-6e-05,-5e-05,-0.00016,0.00029,-0.00023,2e-05,-1e-05,4,27
15893,-5e-05,-6e-05,-5e-05,-0.00016,0.00029,-0.00023,2e-05,-1e-05,4,27
15894,-5e-05,-6e-05,-5e-05,-0.00016,0.00029,-0.00023,2e-05,-1e-05,4,27
15895,1e-05,3e-05,-5e-05,-0.00036,-0.0006,-0.00039,0,2e-05,4,27
15896,-1e-05,2e-05,-2e-05,0.00037,0.0009,-7e-05,-1e-05,-1e-05,4,27
15897,-1e-05,2e-05,-2e-05,0.00037,0.0009,-7e-05,-1e-05,-1e-05,4,27
15898,-1e-05,2e-05,-2e-05,0.00037,0.0009,-7e-05,-1e-05,-1e-05,4,27
15899,-1e-05,2e-05,-2e-05,0.00037,0.0009,-7e-05,-1e-05,-1e-05,4,27
15900,-1e-05,2e-05,-2e-05,0.00037,0.0009,-7e-05,-1e-05,-1e-05,4,27
15901,-1e-05,2e-05,-2e-05,0.00037,0.0009,-7e-05,-1e-05,-1e-05,4,27
15902,-1e-05,2e-05,-2e-05,0.00037,0.0009,-7e-05,-1e-05,-1e-05,4,27
15903,-1e-05,2e-05,-2e-05,0.00037,0.0009,-7e-05,-1e-05,-1e-05,4,27
15904,-1e-05,2e-05,-2e-05,0.00037,0.0009,-7e-05,-1e-05,-1e-05,4,27
15905,-1e-05,2e-05,-2e-05,0.00037,0.0009,-7e-05,-1e-05,-1e-05,4,27
15906,-1e-05,2e-05,-2e-05,0.00037,0.0009,-7e-05,-1e-05,-1e-05,4,27
15907,-1e-05,2e-05,-2e-05,0.00037,0.0009,-7e-05,-1e-05,-1e-05,4,27
15908,-1e-05,2e-05,-2e-05,0.00037,0.0009,-7e-05,-1e-05,-1e-05,4,27
15909,-1e-05,2e-05,-2e-05,0.00037,0.0009,-7e-05,-1e-05,-1e-05,4,27
15910,-1e-05,2e-05,-2e-05,0.00037,0.0009,-7e-05,-1e-05,-1e-05,4,27
15911,-1e-05,2e-05,-2e-05,0.00037,0.0009,-7e-05,-1e-05,-1e-05,4,27
15912,-1e-05,2e-05,-2e-05,0.00037,0.0009,-7e-05,-1e-05,-1e-05,4,27
15913,-1e-05,2e-05,-2e-05,0.00037,0.0009,-7e-05,-1e-05,-1e-05,4,27
15914,-1e-05,2e-05,-2e-05,0.00037,0.0009,-7e-05,-1e-05,-1e-05,4,27
15915,-1e-05,2e-05,-2e-05,0.00037,0.0009,-7e-05,-1e-05,-1e-05,4,27
15916,-1e-05,2e-05,-2e-05,0.00037,0.0009,-7e-05,-1e-05,-1e-05,4,27
15917,-1e-05,2e-05,-2e-05,0.00037,0.0009,-7e-05,-1e-05,-1e-05,4,27
15918,-1e-05,-2e-05,4e-05,0.00021,5e-05,-0.0004,-5e-05,-1e-05,4,27
15919,-2e-05,-1e-05,2e-05,0.0005,0.00019,0.00049,2e-05,2e-05,4,27
15920,-2e-05,-1e-05,2e-05,0.0005,0.00019,0.00049,2e-05,2e-05,4,27
15921,-2e-05,-1e-05,2e-05,0.0005,0.00019,0.00049,2e-05,2e-05,4,27
15922,-2e-05,-1e-05,2e-05,0.0005,0.00019,0.00049,2e-05,2e-05,4,27
15923,-2e-05,-1e-05,2e-05,0.0005,0.00019,0.00049,2e-05,2e-05,4,27
15924,-2e-05,-1e-05,2e-05,0.0005,0.00019,0.00049,2e-05,2e-05,4,27
15925,-2e-05,-1e-05,2e-05,0.0005,0.00019,0.00049,2e-05,2e-05,4,27
15926,-2e-05,-1e-05,2e-05,0.0005,0.00019,0.00049,2e-05,2e-05,4,27
15927,-2e-05,-1e-05,2e-05,0.0005,0.00019,0.00049,2e-05,2e-05,4,27
15928,-2e-05,-1e-05,2e-05,0.0005,0.00019,0.00049,2e-05,2e-05,4,27
15929,-2e-05,-1e-05,2e-05,0.0005,0.00019,0.00049,2e-05,2e-05,4,27
15930,-2e-05,-1e-05,2e-05,0.0005,0.00019,0.00049,2e-05,2e-05,4,27
15931,-2e-05,-1e-05,2e-05,0.0005,0.00019,0.00049,2e-05,2e-05,4,27
15932,-2e-05,-1e-05,2e-05,0.0005,0.00019,0.00049,2e-05,2e-05,4,27
15933,-2e-05,-1e-05,2e-05,0.0005,0.00019,0.00049,2e-05,2e-05,4,27
15934,-2e-05,-1e-05,2e-05,0.0005,0.00019,0.00049,2e-05,2e-05,4,27
15935,-2e-05,-1e-05,2e-05,0.0005,0.00019,0.00049,2e-05,2e-05,4,27
15936,-2e-05,-1e-05,2e-05,0.0005,0.00019,0.00049,2e-05,2e-05,4,27
15938,-2e-05,-1e-05,2e-05,0.0005,0.00019,0.00049,2e-05,2e-05,4,27
15939,-2e-05,-1e-05,2e-05,0.0005,0.00019,0.00049,2e-05,2e-05,4,27
15940,-2e-05,-1e-05,2e-05,0.0005,0.00019,0.00049,2e-05,2e-05,4,27
15941,2e-05,-1e-05,0,-0.0002,-0.00012,-5e-05,2e-05,5e-05,4,27
15942,3e-05,1e-05,-3e-05,-0.00044,8e-05,0.00061,4e-05,3e-05,4,27
15943,3e-05,1e-05,-3e-05,-0.00044,8e-05,0.00061,4e-05,3e-05,4,27
15944,3e-05,1e-05,-3e-05,-0.00044,8e-05,0.00061,4e-05,3e-05,4,27
15945,3e-05,1e-05,-3e-05,-0.00044,8e-05,0.00061,4e-05,3e-05,4,27
15946,3e-05,1e-05,-3e-05,-0.00044,8e-05,0.00061,4e-05,3e-05,4,27
15947,3e-05,1e-05,-3e-05,-0.00044,8e-05,0.00061,4e-05,3e-05,4,27
15948,3e-05,1e-05,-3e-05,-0.00044,8e-05,0.00061,4e-05,3e-05,4,27
15949,3e-05,1e-05,-3e-05,-0.00044,8e-05,0.00061,4e-05,3e-05,4,27
15950,3e-05,1e-05,-3e-05,-0.00044,8e-05,0.00061,4e-05,3e-05,4,27
15951,3e-05,1e-05,-3e-05,-0.00044,8e-05,0.00061,4e-05,3e-05,4,27
15952,3e-05,1e-05,-3e-05,-0.00044,8e-05,0.00061,4e-05,3e-05,4,27
15953,3e-05,1e-05,-3e-05,-0.00044,8e-05,0.00061,4e-05,3e-05,4,27
15954,3e-05,1e-05,-3e-05,-0.00044,8e-05,0.00061,4e-05,3e-05,4,27
15955,-1e-05,3e-05,5e-05,0.00067,0.00037,-2e-05,-0.00011,-3e-05,4,27
15956,-3e-05,-1e-05,1e-05,-1e-05,-0.00045,-1e-05,2e-05,4e-05,4,27
15957,1e-05,-3e-05,-9e-05,-0.00015,0.00021,-0.00029,0,-6e-05,4,27
15958,1e-05,-3e-05,-9e-05,-0.00015,0.00021,-0.00029,0,-6e-05,4,27
15959,1e-05,-3e-05,-9e-05,-0.00015,0.00021,-0.00029,0,-6e-05,4,27
15960,1e-05,-3e-05,-9e-05,-0.00015,0.00021,-0.00029,0,-6e-05,4,27
15961,1e-05,-3e-05,-9e-05,-0.00015,0.00021,-0.00029,0,-6e-05,4,27
15962,1e-05,-3e-05,-9e-05,-0.00015,0.00021,-0.00029,0,-6e-05,4,27
15963,1e-05,-3e-05,-9e-05,-0.00015,0.00021,-0.00029,0,-6e-05,4,27
15964,1e-05,-3e-05,-9e-05,-0.00015,0.00021,-0.00029,0,-6e-05,4,27
15965,1e-05,-3e-05,-9e-05,-0.00015,0.00021,-0.00029,0,-6e-05,4,27
15966,1e-05,-3e-05,-9e-05,-0.00015,0.00021,-0.00029,0,-6e-05,4,27
15967,1e-05,-3e-05,-9e-05,-0.00015,0.00021,-0.00029,0,-6e-05,4,27
15968,1e-05,-3e-05,-9e-05,-0.00015,0.00021,-0.00029,0,-6e-05,4,27
15969,1e-05,-3e-05,-9e-05,-0.00015,0.00021,-0.00029,0,-6e-05,4,27
15970,1e-05,-3e-05,-9e-05,-0.00015,0.00021,-0.00029,0,-6e-05,4,27
15971,1e-05,-3e-05,-9e-05,-0.00015,0.00021,-0.00029,0,-6e-05,4,27
15972,1e-05,-3e-05,-9e-05,-0.00015,0.00021,-0.00029,0,-6e-05,4,27
15973,1e-05,-3e-05,-9e-05,-0.00015,0.00021,-0.00029,0,-6e-05,4,27
15974,1e-05,-3e-05,-9e-05,-0.00015,0.00021,-0.00029,0,-6e-05,4,27
15975,1e-05,-3e-05,-9e-05,-0.00015,0.00021,-0.00029,0,-6e-05,4,27
15976,1e-05,-3e-05,-9e-05,-0.00015,0.00021,-0.00029,0,-6e-05,4,27
15977,1e-05,-3e-05,-9e-05,-0.00015,0.00021,-0.00029,0,-6e-05,4,27
15978,1e-05,8e-05,0.0001,0.00031,4e-05,0.0008,1e-05,1e-05,4,27
15979,-4e-05,-2e-05,2e-05,0.00024,-0.00023,-0.0004,-5e-05,-1e-05,4,27
15980,-4e-05,-2e-05,2e-05,0.00024,-0.00023,-0.0004,-5e-05,-1e-05,4,27
15981,-4e-05,-2e-05,2e-05,0.00024,-0.00023,-0.0004,-5e-05,-1e-05,4,27
15982,-4e-05,-2e-05,2e-05,0.00024,-0.00023,-0.0004,-5e-05,-1e-05,4,27
15983,-4e-05,-2e-05,2e-05,0.00024,-0.00023,-0.0004,-5e-05,-1e-05,4,27
15984,-4e-05,-2e-05,2e-05,0.00024,-0.00023,-0.0004,-5e-05,-1e-05,4,27
15985,-4e-05,-2e-05,2e-05,0.00024,-0.00023,-0.0004,-5e-05,-1e-05,4,27
15986,-4e-05,-2e-05,2e-05,0.00024,-0.00023,-0.0004,-5e-05,-1e-05,4,27
15988,-4e-05,-2e-05,2e-05,0.00024,-0.00023,-0.0004,-5e-05,-1e-05,4,27
15989,-4e-05,-2e-05,2e-05,0.00024,-0.00023,-0.0004,-5e-05,-1e-05,4,27
15990,-4e-05,-2e-05,2e-05,0.00024,-0.00023,-0.0004,-5e-05,-1e-05,4,27
15991,-4e-05,-2e-05,2e-05,0.00024,-0.00023,-0.0004,-5e-05,-1e-05,4,27
15992,-4e-05,-2e-05,2e-05,0.00024,-0.00023,-0.0004,-5e-05,-1e-05,4,27
15993,-4e-05,-2e-05,2e-05,0.00024,-0.00023,-0.0004,-5e-05,-1e-05,4,27
15994,-4e-05,-2e-05,2e-05,0.00024,-0.00023,-0.0004,-5e-05,-1e-05,4,27
15995,-4e-05,-2e-05,2e-05,0.00024,-0.00023,-0.0004,-5e-05,-1e-05,4,27
15996,-4e-05,-2e-05,2e-05,0.00024,-0.00023,-0.0004,-5e-05,-1e-05,4,27
15997,-4e-05,-2e-05,2e-05,0.00024,-0.00023,-0.0004,-5e-05,-1e-05,4,27
15998,-4e-05,-2e-05,2e-05,0.00024,-0.00023,-0.0004,-5e-05,-1e-05,4,27
15999,-4e-05,-2e-05,2e-05,0.00024,-0.00023,-0.0004,-5e-05,-1e-05,4,27
16000,-4e-05,-2e-05,2e-05,0.00024,-0.00023,-0.0004,-5e-05,-1e-05,4,27
16001,-4e-05,-2e-05,2e-05,0.00024,-0.00023,-0.0004,-5e-05,-1e-05,4,27
16002,1e-05,-1e-05,-5e-05,-0.00041,-0.00042,0.00016,8e-05,-2e-05,4,27
16003,3e-05,6e-05,0.00012,0.00018,-3e-05,7e-05,4e-05,2e-05,4,27
16004,3e-05,6e-05,0.00012,0.00018,-3e-05,7e-05,4e-05,2e-05,4,27
16005,3e-05,6e-05,0.00012,0.00018,-3e-05,7e-05,4e-05,2e-05,4,27
16006,3e-05,6e-05,0.00012,0.00018,-3e-05,7e-05,4e-05,2e-05,4,27
16007,3e-05,6e-05,0.00012,0.00018,-3e-05,7e-05,4e-05,2e-05,4,27
16008,3e-05,6e-05,0.00012,0.00018,-3e-05,7e-05,4e-05,2e-05,4,27
16009,3e-05,6e-05,0.00012,0.00018,-3e-05,7e-05,4e-05,2e-05,4,27
16010,3e-05,6e-05,0.00012,0.00018,-3e-05,7e-05,4e-05,2e-05,4,27
16011,3e-05,6e-05,0.00012,0.00018,-3e-05,7e-05,4e-05,2e-05,4,27
16012,3e-05,6e-05,0.00012,0.00018,-3e-05,7e-05,4e-05,2e-05,4,27
16013,3e-05,6e-05,0.00012,0.00018,-3e-05,7e-05,4e-05,2e-05,4,27
16014,3e-05,6e-05,0.00012,0.00018,-3e-05,7e-05,4e-05,2e-05,4,27
16015,-4e-05,-5e-05,-7e-05,-0.00045,-0.00049,0.00032,5e-05,-1e-05,4,27
16016,-1e-05,-1e-05,2e-05,7e-05,-0.00059,-3e-05,2e-05,1e-05,4,27
16017,-1e-05,-1e-05,2e-05,7e-05,-0.00059,-3e-05,2e-05,1e-05,4,27
16018,-1e-05,-1e-05,2e-05,7e-05,-0.00059,-3e-05,2e-05,1e-05,4,27
16019,-1e-05,-1e-05,2e-05,7e-05,-0.00059,-3e-05,2e-05,1e-05,4,27
16020,-1e-05,-1e-05,2e-05,7e-05,-0.00059,-3e-05,2e-05,1e-05,4,27
16021,-1e-05,-1e-05,2e-05,7e-05,-0.00059,-3e-05,2e-05,1e-05,4,27
16022,-1e-05,-1e-05,2e-05,7e-05,-0.00059,-3e-05,2e-05,1e-05,4,27
16023,-1e-05,-1e-05,2e-05,7e-05,-0.00059,-3e-05,2e-05,1e-05,4,27
16024,-1e-05,-1e-05,2e-05,7e-05,-0.00059,-3e-05,2e-05,1e-05,4,27
16025,-1e-05,-1e-05,2e-05,7e-05,-0.00059,-3e-05,2e-05,1e-05,4,27
16026,-1e-05,-1e-05,2e-05,7e-05,-0.00059,-3e-05,2e-05,1e-05,4,27
16027,-1e-05,-1e-05,2e-05,7e-05,-0.00059,-3e-05,2e-05,1e-05,4,27
16028,-1e-05,-1e-05,2e-05,7e-05,-0.00059,-3e-05,2e-05,1e-05,4,27
16029,-1e-05,-1e-05,2e-05,7e-05,-0.00059,-3e-05,2e-05,1e-05,4,27
16030,-1e-05,-1e-05,2e-05,7e-05,-0.00059,-3e-05,2e-05,1e-05,4,27
16031,-1e-05,-1e-05,2e-05,7e-05,-0.00059,-3e-05,2e-05,1e-05,4,27
16032,-1e-05,-1e-05,2e-05,7e-05,-0.00059,-3e-05,2e-05,1e-05,4,27
16033,-1e-05,-1e-05,2e-05,7e-05,-0.00059,-3e-05,2e-05,1e-05,4,27
16034,-1e-05,-1e-05,2e-05,7e-05,-0.00059,-3e-05,2e-05,1e-05,4,27
16035,-1e-05,-1e-05,2e-05,7e-05,-0.00059,-3e-05,2e-05,1e-05,4,27
16036,-1e-05,-1e-05,2e-05,7e-05,-0.00059,-3e-05,2e-05,1e-05,4,27
16038,-3e-05,-3e-05,3e-05,-0.00027,-0.00011,0.00011,-4e-05,-1e-05,4,27
16039,2e-05,0,-3e-05,0.00066,0.00089,-0.00014,1e-05,1e-05,4,27
16040,2e-05,0,-3e-05,0.00066,0.00089,-0.00014,1e-05,1e-05,4,27
16041,2e-05,0,-3e-05,0.00066,0.00089,-0.00014,1e-05,1e-05,4,27
16042,2e-05,0,-3e-05,0.00066,0.00089,-0.00014,1e-05,1e-05,4,27
16043,2e-05,0,-3e-05,0.00066,0.00089,-0.00014,1e-05,1e-05,4,27
16044,2e-05,0,-3e-05,0.00066,0.00089,-0.00014,1e-05,1e-05,4,27
16045,2e-05,0,-3e-05,0.00066,0.00089,-0.00014,1e-05,1e-05,4,27
16046,2e-05,0,-3e-05,0.00066,0.00089,-0.00014,1e-05,1e-05,4,27
16047,2e-05,0,-3e-05,0.00066,0.00089,-0.00014,1e-05,1e-05,4,27
16048,2e-05,0,-3e-05,0.00066,0.00089,-0.00014,1e-05,1e-05,4,27
16049,2e-05,0,-3e-05,0.00066,0.00089,-0.00014,1e-05,1e-05,4,27
16050,2e-05,0,-3e-05,0.00066,0.00089,-0.00014,1e-05,1e-05,4,27
16051,2e-05,0,-3e-05,0.00066,0.00089,-0.00014,1e-05,1e-05,4,27
16052,2e-05,0,-3e-05,0.00066,0.00089,-0.00014,1e-05,1e-05,4,27
16053,2e-05,0,-3e-05,0.00066,0.00089,-0.00014,1e-05,1e-05,4,27
16054,2e-05,0,-3e-05,0.00066,0.00089,-0.00014,1e-05,1e-05,4,27
16055,2e-05,0,-3e-05,0.00066,0.00089,-0.00014,1e-05,1e-05,4,27
16056,2e-05,0,-3e-05,0.00066,0.00089,-0.00014,1e-05,1e-05,4,27
16057,2e-05,0,-3e-05,0.00066,0.00089,-0.00014,1e-05,1e-05,4,27
16058,2e-05,0,-3e-05,0.00066,0.00089,-0.00014,1e-05,1e-05,4,27
16059,2e-05,0,-3e-05,0.00066,0.00089,-0.00014,1e-05,1e-05,4,27
16060,2e-05,0,-3e-05,0.00066,0.00089,-0.00014,1e-05,1e-05,4,27
16061,-2e-05,-6e-05,-9e-05,-0.00035,-0.00044,-0.00065,-3e-05,-4e-05,4,27
16062,-4e-05,-3e-05,-1e-05,-8e-05,0.00026,-0.00014,-0.0001,-4e-05,4,27
16063,-4e-05,-3e-05,-1e-05,-8e-05,0.00026,-0.00014,-0.0001,-4e-05,4,27
16064,-4e-05,-3e-05,-1e-05,-8e-05,0.00026,-0.00014,-0.0001,-4e-05,4,27
16065,-4e-05,-3e-05,-1e-05,-8e-05,0.00026,-0.00014,-0.0001,-4e-05,4,27
16066,-4e-05,-3e-05,-1e-05,-8e-05,0.00026,-0.00014,-0.0001,-4e-05,4,27
16067,-4e-05,-3e-05,-1e-05,-8e-05,0.00026,-0.00014,-0.0001,-4e-05,4,27
16068,-4e-05,-3e-05,-1e-05,-8e-05,0.00026,-0.00014,-0.0001,-4e-05,4,27
16069,-4e-05,-3e-05,-1e-05,-8e-05,0.00026,-0.00014,-0.0001,-4e-05,4,27
16070,-4e-05,-3e-05,-1e-05,-8e-05,0.00026,-0.00014,-0.0001,-4e-05,4,27
16071,-4e-05,-3e-05,-1e-05,-8e-05,0.00026,-0.00014,-0.0001,-4e-05,4,27
16072,-4e-05,-3e-05,-1e-05,-8e-05,0.00026,-0.00014,-0.0001,-4e-05,4,27
16073,-4e-05,-3e-05,-1e-05,-8e-05,0.00026,-0.00014,-0.0001,-4e-05,4,27
16074,-4e-05,-3e-05,-1e-05,-8e-05,0.00026,-0.00014,-0.0001,-4e-05,4,27
16075,-2e-05,0,5e-05,0.00028,0.00066,0.00014,-5e-05,-3e-05,4,27
16076,-3e-05,-4e-05,-5e-05,-0.00049,-0.0005,-0.00032,-2e-05,-1e-05,4,27
16077,-3e-05,-4e-05,-5e-05,-0.00049,-0.0005,-0.00032,-2e-05,-1e-05,4,27
16078,-3e-05,-4e-05,-5e-05,-0.00049,-0.0005,-0.00032,-2e-05,-1e-05,4,27
16079,-3e-05,-4e-05,-5e-05,-0.00049,-0.0005,-0.00032,-2e-05,-1e-05,4,27
16080,-3e-05,-4e-05,-5e-05,-0.00049,-0.0005,-0.00032,-2e-05,-1e-05,4,27
16081,-3e-05,-4e-05,-5e-05,-0.00049,-0.0005,-0.00032,-2e-05,-1e-05,4,27
16082,-3e-05,-4e-05,-5e-05,-0.00049,-0.0005,-0.00032,-2e-05,-1e-05,4,27
16083,-3e-05,-4e-05,-5e-05,-0.00049,-0.0005,-0.00032,-2e-05,-1e-05,4,27
16084,-3e-05,-4e-05,-5e-05,-0.00049,-0.0005,-0.00032,-2e-05,-1e-05,4,27
16085,-3e-05,-4e-05,-5e-05,-0.00049,-0.0005,-0.00032,-2e-05,-1e-05,4,27
16086,-3e-05,-4e-05,-5e-05,-0.00049,-0.0005,-0.00032,-2e-05,-1e-05,4,27
16088,-3e-05,-4e-05,-5e-05,-0.00049,-0.0005,-0.00032,-2e-05,-1e-05,4,27
16089,-3e-05,-4e-05,-5e-05,-0.00049,-0.0005,-0.00032,-2e-05,-1e-05,4,27
16090,-3e-05,-4e-05,-5e-05,-0.00049,-0.0005,-0.00032,-2e-05,-1e-05,4,27
16091,-3e-05,-4e-05,-5e-05,-0.00049,-0.0005,-0.00032,-2e-05,-1e-05,4,27
16092,-3e-05,-4e-05,-5e-05,-0.00049,-0.0005,-0.00032,-2e-05,-1e-05,4,27
16093,-3e-05,-4e-05,-5e-05,-0.00049,-0.0005,-0.00032,-2e-05,-1e-05,4,27
16094,-3e-05,-4e-05,-5e-05,-0.00049,-0.0005,-0.00032,-2e-05,-1e-05,4,27
16095,-3e-05,-4e-05,-5e-05,-0.00049,-0.0005,-0.00032,-2e-05,-1e-05,4,27
16096,-3e-05,-4e-05,-5e-05,-0.00049,-0.0005,-0.00032,-2e-05,-1e-05,4,27
16097,-3e-05,-4e-05,-5e-05,-0.00049,-0.0005,-0.00032,-2e-05,-1e-05,4,27
16098,0,-1e-05,-4e-05,-4e-05,9e-05,0.00013,-7e-05,-2e-05,4,27
16099,-1e-05,1e-05,1e-05,-0.0002,-0.0004,-0.00012,-3e-05,4e-05,4,27
16100,-1e-05,1e-05,1e-05,-0.0002,-0.0004,-0.00012,-3e-05,4e-05,4,27
16101,-1e-05,1e-05,1e-05,-0.0002,-0.0004,-0.00012,-3e-05,4e-05,4,27
16102,-1e-05,1e-05,1e-05,-0.0002,-0.0004,-0.00012,-3e-05,4e-05,4,27
16103,-1e-05,1e-05,1e-05,-0.0002,-0.0004,-0.00012,-3e-05,4e-05,4,27
16104,-1e-05,1e-05,1e-05,-0.0002,-0.0004,-0.00012,-3e-05,4e-05,4,27
16105,-1e-05,1e-05,1e-05,-0.0002,-0.0004,-0.00012,-3e-05,4e-05,4,27
16106,-1e-05,1e-05,1e-05,-0.0002,-0.0004,-0.00012,-3e-05,4e-05,4,27
16107,-1e-05,1e-05,1e-05,-0.0002,-0.0004,-0.00012,-3e-05,4e-05,4,27
16108,-1e-05,1e-05,1e-05,-0.0002,-0.0004,-0.00012,-3e-05,4e-05,4,27
16109,-1e-05,1e-05,1e-05,-0.0002,-0.0004,-0.00012,-3e-05,4e-05,4,27
16110,-1e-05,1e-05,1e-05,-0.0002,-0.0004,-0.00012,-3e-05,4e-05,4,27
16111,-1e-05,1e-05,1e-05,-0.0002,-0.0004,-0.00012,-3e-05,4e-05,4,27
16112,-1e-05,1e-05,1e-05,-0.0002,-0.0004,-0.00012,-3e-05,4e-05,4,27
16113,-1e-05,1e-05,1e-05,-0.0002,-0.0004,-0.00012,-3e-05,4e-05,4,27
16114,-1e-05,1e-05,1e-05,-0.0002,-0.0004,-0.00012,-3e-05,4e-05,4,27
16115,-1e-05,1e-05,1e-05,-0.0002,-0.0004,-0.00012,-3e-05,4e-05,4,27
16116,-1e-05,1e-05,1e-05,-0.0002,-0.0004,-0.00012,-3e-05,4e-05,4,27
16117,-1e-05,1e-05,1e-05,-0.0002,-0.0004,-0.00012,-3e-05,4e-05,4,27
16118,-1e-05,1e-05,1e-05,-0.0002,-0.0004,-0.00012,-3e-05,4e-05,4,27
16119,-1e-05,1e-05,1e-05,-0.0002,-0.0004,-0.00012,-3e-05,4e-05,4,27
16120,-1e-05,1e-05,1e-05,-0.0002,-0.0004,-0.00012,-3e-05,4e-05,4,27
16121,2e-05,2e-05,1e-05,-0.00055,-0.00066,-0.00027,0.00011,3e-05,4,27
16122,-2e-05,-2e-05,-5e-05,2e-05,0.00029,0.00059,2e-05,-2e-05,4,27
16123,-2e-05,-2e-05,-5e-05,2e-05,0.00029,0.00059,2e-05,-2e-05,4,27
16124,-2e-05,-2e-05,-5e-05,2e-05,0.00029,0.00059,2e-05,-2e-05,4,27
16125,-2e-05,-2e-05,-5e-05,2e-05,0.00029,0.00059,2e-05,-2e-05,4,27
16126,-2e-05,-2e-05,-5e-05,2e-05,0.00029,0.00059,2e-05,-2e-05,4,27
16127,-2e-05,-2e-05,-5e-05,2e-05,0.00029,0.00059,2e-05,-2e-05,4,27
16128,-2e-05,-2e-05,-5e-05,2e-05,0.00029,0.00059,2e-05,-2e-05,4,27
16129,-2e-05,-2e-05,-5e-05,2e-05,0.00029,0.00059,2e-05,-2e-05,4,27
16130,-2e-05,-2e-05,-5e-05,2e-05,0.00029,0.00059,2e-05,-2e-05,4,27
16131,-2e-05,-2e-05,-5e-05,2e-05,0.00029,0.00059,2e-05,-2e-05,4,27
16132,-2e-05,-2e-05,-5e-05,2e-05,0.00029,0.00059,2e-05,-2e-05,4,27
16133,-2e-05,-2e-05,-5e-05,2e-05,0.00029,0.00059,2e-05,-2e-05,4,27
16134,-2e-05,-2e-05,-5e-05,2e-05,0.00029,0.00059,2e-05,-2e-05,4,27
16135,-2e-05,-2e-05,-9e-05,-0.00069,-0.00033,-0.00011,-2e-05,-1e-05,4,27
16136,-1e-05,-3e-05,1e-05,0.00033,0.00063,0.00042,4e-05,0,4,27
16138,-1e-05,-3e-05,1e-05,0.00033,0.00063,0.00042,4e-05,0,4,27
16139,-1e-05,-3e-05,1e-05,0.00033,0.00063,0.00042,4e-05,0,4,27
16140,-1e-05,-3e-05,1e-05,0.00033,0.00063,0.00042,4e-05,0,4,27
16141,-1e-05,-3e-05,1e-05,0.00033,0.00063,0.00042,4e-05,0,4,27
16142,-1e-05,-3e-05,1e-05,0.00033,0.00063,0.00042,4e-05,0,4,27
16143,-1e-05,-3e-05,1e-05,0.00033,0.00063,0.00042,4e-05,0,4,27
16144,-1e-05,-3e-05,1e-05,0.00033,0.00063,0.00042,4e-05,0,4,27
16145,-1e-05,-3e-05,1e-05,0.00033,0.00063,0.00042,4e-05,0,4,27
16146,-1e-05,-3e-05,1e-05,0.00033,0.00063,0.00042,4e-05,0,4,27
16147,-1e-05,-3e-05,1e-05,0.00033,0.00063,0.00042,4e-05,0,4,27
16148,-1e-05,-3e-05,1e-05,0.00033,0.00063,0.00042,4e-05,0,4,27
16149,-1e-05,-3e-05,1e-05,0.00033,0.00063,0.00042,4e-05,0,4,27
16150,-1e-05,-3e-05,1e-05,0.00033,0.00063,0.00042,4e-05,0,4,27
16151,-1e-05,-3e-05,1e-05,0.00033,0.00063,0.00042,4e-05,0,4,27
16152,-1e-05,-3e-05,1e-05,0.00033,0.00063,0.00042,4e-05,0,4,27
16153,-1e-05,-3e-05,1e-05,0.00033,0.00063,0.00042,4e-05,0,4,27
16154,-1e-05,-3e-05,1e-05,0.00033,0.00063,0.00042,4e-05,0,4,27
16155,-1e-05,-3e-05,1e-05,0.00033,0.00063,0.00042,4e-05,0,4,27
16156,-1e-05,-3e-05,1e-05,0.00033,0.00063,0.00042,4e-05,0,4,27
16157,-1e-05,-3e-05,1e-05,0.00033,0.00063,0.00042,4e-05,0,4,27
16158,-5e-05,-5e-05,-9e-05,-0.00047,-0.00052,-0.00014,-6e-05,-1e-05,4,27
16159,-5e-05,-0.0001,-6e-05,-4e-05,-0.00017,-0.00035,-8e-05,-4e-05,4,27
16160,-5e-05,-0.0001,-6e-05,-4e-05,-0.00017,-0.00035,-8e-05,-4e-05,4,27
16161,-5e-05,-0.0001,-6e-05,-4e-05,-0.00017,-0.00035,-8e-05,-4e-05,4,27
16162,-5e-05,-0.0001,-6e-05,-4e-05,-0.00017,-0.00035,-8e-05,-4e-05,4,27
16163,-5e-05,-0.0001,-6e-05,-4e-05,-0.00017,-0.00035,-8e-05,-4e-05,4,27
16164,-5e-05,-0.0001,-6e-05,-4e-05,-0.00017,-0.00035,-8e-05,-4e-05,4,27
16165,-5e-05,-0.0001,-6e-05,-4e-05,-0.00017,-0.00035,-8e-05,-4e-05,4,27
16166,-5e-05,-0.0001,-6e-05,-4e-05,-0.00017,-0.00035,-8e-05,-4e-05,4,27
16167,-5e-05,-0.0001,-6e-05,-4e-05,-0.00017,-0.00035,-8e-05,-4e-05,4,27
16168,-5e-05,-0.0001,-6e-05,-4e-05,-0.00017,-0.00035,-8e-05,-4e-05,4,27
16169,-5e-05,-0.0001,-6e-05,-4e-05,-0.00017,-0.00035,-8e-05,-4e-05,4,27
16170,-5e-05,-0.0001,-6e-05,-4e-05,-0.00017,-0.00035,-8e-05,-4e-05,4,27
16171,-5e-05,-0.0001,-6e-05,-4e-05,-0.00017,-0.00035,-8e-05,-4e-05,4,27
16172,-5e-05,-0.0001,-6e-05,-4e-05,-0.00017,-0.00035,-8e-05,-4e-05,4,27
16173,-5e-05,-0.0001,-6e-05,-4e-05,-0.00017,-0.00035,-8e-05,-4e-05,4,27
16174,-5e-05,-0.0001,-6e-05,-4e-05,-0.00017,-0.00035,-8e-05,-4e-05,4,27
16175,-5e-05,-0.0001,-6e-05,-4e-05,-0.00017,-0.00035,-8e-05,-4e-05,4,27
16176,-5e-05,-0.0001,-6e-05,-4e-05,-0.00017,-0.00035,-8e-05,-4e-05,4,27
16177,-5e-05,-0.0001,-6e-05,-4e-05,-0.00017,-0.00035,-8e-05,-4e-05,4,27
16178,-5e-05,-0.0001,-6e-05,-4e-05,-0.00017,-0.00035,-8e-05,-4e-05,4,27
16179,-5e-05,-0.0001,-6e-05,-4e-05,-0.00017,-0.00035,-8e-05,-4e-05,4,27
16180,-5e-05,-0.0001,-6e-05,-4e-05,-0.00017,-0.00035,-8e-05,-4e-05,4,27
16181,0,0,4e-05,2e-05,0.00058,0.00036,6e-05,1e-05,4,27
16182,0,3e-05,0,-0.00024,-0.00039,0.00017,0.0001,0,4,27
16183,0,3e-05,0,-0.00024,-0.00039,0.00017,0.0001,0,4,27
16184,0,3e-05,0,-0.00024,-0.00039,0.00017,0.0001,0,4,27
16185,0,3e-05,0,-0.00024,-0.00039,0.00017,0.0001,0,4,27
16186,0,3e-05,0,-0.00024,-0.00039,0.00017,0.0001,0,4,27
16188,0,3e-05,0,-0.00024,-0.00039,0.00017,0.0001,0,4,27
16189,0,3e-05,0,-0.00024,-0.00039,0.00017,0.0001,0,4,27
16190,0,3e-05,0,-0.00024,-0.00039,0.00017,0.0001,0,4,27
16191,0,3e-05,0,-0.00024,-0.00039,0.00017,0.0001,0,4,27
16192,0,3e-05,0,-0.00024,-0.00039,0.00017,0.0001,0,4,27
16193,0,3e-05,0,-0.00024,-0.00039,0.00017,0.0001,0,4,27
16194,0,3e-05,0,-0.00024,-0.00039,0.00017,0.0001,0,4,27
16195,3e-05,5e-05,0.00011,0.00049,0.00033,-0.00042,-3e-05,2e-05,4,27
16196,3e-05,5e-05,0.00011,0.00049,0.00033,-0.00042,-3e-05,2e-05,4,27
16197,3e-05,5e-05,0.00011,0.00049,0.00033,-0.00042,-3e-05,2e-05,4,27
16198,3e-05,5e-05,0.00011,0.00049,0.00033,-0.00042,-3e-05,2e-05,4,27
16199,3e-05,5e-05,0.00011,0.00049,0.00033,-0.00042,-3e-05,2e-05,4,27
16200,3e-05,5e-05,0.00011,0.00049,0.00033,-0.00042,-3e-05,2e-05,4,27
16201,3e-05,5e-05,0.00011,0.00049,0.00033,-0.00042,-3e-05,2e-05,4,27
16202,3e-05,5e-05,0.00011,0.00049,0.00033,-0.00042,-3e-05,2e-05,4,27
16203,3e-05,4e-05,6e-05,7e-05,0.00075,0.00012,2e-05,-3e-05,4,27
16204,3e-05,4e-05,6e-05,7e-05,0.00075,0.00012,2e-05,-3e-05,4,27
16205,3e-05,4e-05,6e-05,7e-05,0.00075,0.00012,2e-05,-3e-05,4,27
16206,3e-05,4e-05,6e-05,7e-05,0.00075,0.00012,2e-05,-3e-05,4,27
16207,3e-05,4e-05,6e-05,7e-05,0.00075,0.00012,2e-05,-3e-05,4,27
16208,3e-05,4e-05,6e-05,7e-05,0.00075,0.00012,2e-05,-3e-05,4,27
16209,3e-05,4e-05,6e-05,7e-05,0.00075,0.00012,2e-05,-3e-05,4,27
16210,3e-05,4e-05,6e-05,7e-05,0.00075,0.00012,2e-05,-3e-05,4,27
16211,3e-05,4e-05,6e-05,7e-05,0.00075,0.00012,2e-05,-3e-05,4,27
16212,3e-05,4e-05,6e-05,7e-05,0.00075,0.00012,2e-05,-3e-05,4,27
16213,3e-05,4e-05,6e-05,7e-05,0.00075,0.00012,2e-05,-3e-05,4,27
16214,3e-05,4e-05,6e-05,7e-05,0.00075,0.00012,2e-05,-3e-05,4,27
16215,3e-05,4e-05,6e-05,7e-05,0.00075,0.00012,2e-05,-3e-05,4,27
16216,3e-05,4e-05,6e-05,7e-05,0.00075,0.00012,2e-05,-3e-05,4,27
16217,3e-05,4e-05,6e-05,7e-05,0.00075,0.00012,2e-05,-3e-05,4,27
16218,1e-05,2e-05,2e-05,0.00018,-4e-05,0.00071,4e-05,1e-05,4,27
16219,-1e-05,3e-05,0.00014,0.00098,0.00038,-0.00027,-4e-05,2e-05,4,27
16220,-1e-05,3e-05,0.00014,0.00098,0.00038,-0.00027,-4e-05,2e-05,4,27
16221,-1e-05,3e-05,0.00014,0.00098,0.00038,-0.00027,-4e-05,2e-05,4,27
16222,-1e-05,3e-05,0.00014,0.00098,0.00038,-0.00027,-4e-05,2e-05,4,27
16223,-1e-05,3e-05,0.00014,0.00098,0.00038,-0.00027,-4e-05,2e-05,4,27
16224,-1e-05,3e-05,0.00014,0.00098,0.00038,-0.00027,-4e-05,2e-05,4,27
16225,-1e-05,3e-05,0.00014,0.00098,0.00038,-0.00027,-4e-05,2e-05,4,27
16226,-1e-05,3e-05,0.00014,0.00098,0.00038,-0.00027,-4e-05,2e-05,4,27
16227,-1e-05,3e-05,0.00014,0.00098,0.00038,-0.00027,-4e-05,2e-05,4,27
16228,-1e-05,3e-05,0.00014,0.00098,0.00038,-0.00027,-4e-05,2e-05,4,27
16229,-1e-05,3e-05,0.00014,0.00098,0.00038,-0.00027,-4e-05,2e-05,4,27
16230,-1e-05,3e-05,0.00014,0.00098,0.00038,-0.00027,-4e-05,2e-05,4,27
16231,-1e-05,3e-05,0.00014,0.00098,0.00038,-0.00027,-4e-05,2e-05,4,27
16232,-1e-05,3e-05,0.00014,0.00098,0.00038,-0.00027,-4e-05,2e-05,4,27
16233,-1e-05,3e-05,0.00014,0.00098,0.00038,-0.00027,-4e-05,2e-05,4,27
16234,-1e-05,3e-05,0.00014,0.00098,0.00038,-0.00027,-4e-05,2e-05,4,27
16235,-1e-05,3e-05,0.00014,0.00098,0.00038,-0.00027,-4e-05,2e-05,4,27
16236,-1e-05,3e-05,0.00014,0.00098,0.00038,-0.00027,-4e-05,2e-05,4,27
16238,-1e-05,3e-05,0.00014,0.00098,0.00038,-0.00027,-4e-05,2e-05,4,27
16239,-1e-05,3e-05,0.00014,0.00098,0.00038,-0.00027,-4e-05,2e-05,4,27
16240,-1e-05,3e-05,0.00014,0.00098,0.00038,-0.00027,-4e-05,2e-05,4,27
16241,-7e-05,-8e-05,-0.00015,-0.00082,-0.00066,0.00011,-3e-05,-5e-05,4,27
16242,0,-2e-05,-3e-05,-0.00022,-0.00083,0.00046,2e-05,1e-05,4,27
16243,0,-2e-05,-3e-05,-0.00022,-0.00083,0.00046,2e-05,1e-05,4,27
16244,0,-2e-05,-3e-05,-0.00022,-0.00083,0.00046,2e-05,1e-05,4,27
16245,0,-2e-05,-3e-05,-0.00022,-0.00083,0.00046,2e-05,1e-05,4,27
16246,0,-2e-05,-3e-05,-0.00022,-0.00083,0.00046,2e-05,1e-05,4,27
16247,0,-2e-05,-3e-05,-0.00022,-0.00083,0.00046,2e-05,1e-05,4,27
16248,0,-2e-05,-3e-05,-0.00022,-0.00083,0.00046,2e-05,1e-05,4,27
16249,0,-2e-05,-3e-05,-0.00022,-0.00083,0.00046,2e-05,1e-05,4,27
16250,0,-2e-05,-3e-05,-0.00022,-0.00083,0.00046,2e-05,1e-05,4,27
16251,0,-2e-05,-3e-05,-0.00022,-0.00083,0.00046,2e-05,1e-05,4,27
16252,0,-2e-05,-3e-05,-0.00022,-0.00083,0.00046,2e-05,1e-05,4,27
16253,0,-2e-05,-3e-05,-0.00022,-0.00083,0.00046,2e-05,1e-05,4,27
16254,0,-2e-05,-3e-05,-0.00022,-0.00083,0.00046,2e-05,1e-05,4,27
16255,0,-2e-05,-3e-05,-0.00022,-0.00083,0.00046,2e-05,1e-05,4,27
16256,0,-2e-05,-3e-05,-0.00022,-0.00083,0.00046,2e-05,1e-05,4,27
16257,0,-2e-05,-3e-05,-0.00022,-0.00083,0.00046,2e-05,1e-05,4,27
16258,0,-2e-05,-3e-05,-0.00022,-0.00083,0.00046,2e-05,1e-05,4,27
16259,0,-2e-05,-3e-05,-0.00022,-0.00083,0.00046,2e-05,1e-05,4,27
16260,0,-2e-05,-3e-05,-0.00022,-0.00083,0.00046,2e-05,1e-05,4,27
16261,0,-2e-05,-3e-05,-0.00022,-0.00083,0.00046,2e-05,1e-05,4,27
16262,0,-2e-05,-3e-05,-0.00022,-0.00083,0.00046,2e-05,1e-05,4,27
16263,0,-2e-05,-3e-05,-0.00022,-0.00083,0.00046,2e-05,1e-05,4,27
16264,-3e-05,-4e-05,-4e-05,6e-05,2e-05,4e-05,3e-05,-2e-05,4,27
16265,-3e-05,-4e-05,-4e-05,6e-05,2e-05,4e-05,3e-05,-2e-05,4,27
16266,-3e-05,-4e-05,-4e-05,6e-05,2e-05,4e-05,3e-05,-2e-05,4,27
16267,-3e-05,-4e-05,-4e-05,6e-05,2e-05,4e-05,3e-05,-2e-05,4,27
16268,-3e-05,-4e-05,-4e-05,6e-05,2e-05,4e-05,3e-05,-2e-05,4,27
16269,-3e-05,-4e-05,-4e-05,6e-05,2e-05,4e-05,3e-05,-2e-05,4,27
16270,-3e-05,-4e-05,-4e-05,6e-05,2e-05,4e-05,3e-05,-2e-05,4,27
16271,-3e-05,-4e-05,-4e-05,6e-05,2e-05,4e-05,3e-05,-2e-05,4,27
16272,-3e-05,-4e-05,-4e-05,6e-05,2e-05,4e-05,3e-05,-2e-05,4,27
16273,-3e-05,-4e-05,-4e-05,6e-05,2e-05,4e-05,3e-05,-2e-05,4,27
16274,-3e-05,-4e-05,-4e-05,6e-05,2e-05,4e-05,3e-05,-2e-05,4,27
16275,-3e-05,-4e-05,-4e-05,6e-05,2e-05,4e-05,3e-05,-2e-05,4,27
16276,-3e-05,-4e-05,-4e-05,6e-05,2e-05,4e-05,3e-05,-2e-05,4,27
16277,-3e-05,-4e-05,-4e-05,6e-05,2e-05,4e-05,3e-05,-2e-05,4,27
16278,-4e-05,-6e-05,-3e-05,0.00012,0.00041,0.00031,1e-05,-7e-05,4,27
16279,1e-05,-1e-05,0,4e-05,7e-05,6e-05,0,-2e-05,4,27
16280,1e-05,-1e-05,0,4e-05,7e-05,6e-05,0,-2e-05,4,27
16281,1e-05,-1e-05,0,4e-05,7e-05,6e-05,0,-2e-05,4,27
16282,1e-05,-1e-05,0,4e-05,7e-05,6e-05,0,-2e-05,4,27
16283,1e-05,-1e-05,0,4e-05,7e-05,6e-05,0,-2e-05,4,27
16284,1e-05,-1e-05,0,4e-05,7e-05,6e-05,0,-2e-05,4,27
16285,1e-05,-1e-05,0,4e-05,7e-05,6e-05,0,-2e-05,4,27
16286,1e-05,-1e-05,0,4e-05,7e-05,6e-05,0,-2e-05,4,27
16288,1e-05,-1e-05,0,4e-05,7e-05,6e-05,0,-2e-05,4,27
16289,1e-05,-1e-05,0,4e-05,7e-05,6e-05,0,-2e-05,4,27
16290,1e-05,-1e-05,0,4e-05,7e-05,6e-05,0,-2e-05,4,27
16291,1e-05,-1e-05,0,4e-05,7e-05,6e-05,0,-2e-05,4,27
16292,1e-05,-1e-05,0,4e-05,7e-05,6e-05,0,-2e-05,4,27
16293,1e-05,-1e-05,0,4e-05,7e-05,6e-05,0,-2e-05,4,27
16294,1e-05,-1e-05,0,4e-05,7e-05,6e-05,0,-2e-05,4,27
16295,1e-05,-1e-05,0,4e-05,7e-05,6e-05,0,-2e-05,4,27
16296,1e-05,-1e-05,0,4e-05,7e-05,6e-05,0,-2e-05,4,27
16297,1e-05,-1e-05,0,4e-05,7e-05,6e-05,0,-2e-05,4,27
16298,1e-05,-1e-05,0,4e-05,7e-05,6e-05,0,-2e-05,4,27
16299,1e-05,-1e-05,0,4e-05,7e-05,6e-05,0,-2e-05,4,27
16300,1e-05,-1e-05,0,4e-05,7e-05,6e-05,0,-2e-05,4,27
16301,4e-05,3e-05,8e-05,0.00038,0.00045,0.0005,3e-05,4e-05,4,27
16302,-5e-05,-5e-05,-7e-05,-9e-05,-0.00044,-0.00013,-7e-05,-6e-05,4,27
16303,-5e-05,-5e-05,-7e-05,-9e-05,-0.00044,-0.00013,-7e-05,-6e-05,4,27
16304,-5e-05,-5e-05,-7e-05,-9e-05,-0.00044,-0.00013,-7e-05,-6e-05,4,27
16305,-5e-05,-5e-05,-7e-05,-9e-05,-0.00044,-0.00013,-7e-05,-6e-05,4,27
16306,-5e-05,-5e-05,-7e-05,-9e-05,-0.00044,-0.00013,-7e-05,-6e-05,4,27
16307,-5e-05,-5e-05,-7e-05,-9e-05,-0.00044,-0.00013,-7e-05,-6e-05,4,27
16308,-5e-05,-5e-05,-7e-05,-9e-05,-0.00044,-0.00013,-7e-05,-6e-05,4,27
16309,-5e-05,-5e-05,-7e-05,-9e-05,-0.00044,-0.00013,-7e-05,-6e-05,4,27
16310,-5e-05,-5e-05,-7e-05,-9e-05,-0.00044,-0.00013,-7e-05,-6e-05,4,27
16311,-5e-05,-5e-05,-7e-05,-9e-05,-0.00044,-0.00013,-7e-05,-6e-05,4,27
16312,-5e-05,-5e-05,-7e-05,-9e-05,-0.00044,-0.00013,-7e-05,-6e-05,4,27
16313,-5e-05,-5e-05,-7e-05,-9e-05,-0.00044,-0.00013,-7e-05,-6e-05,4,27
16314,-5e-05,-5e-05,-7e-05,-9e-05,-0.00044,-0.00013,-7e-05,-6e-05,4,27
16315,0,5e-05,7e-05,0.00053,0.00053,0.00049,6e-05,-1e-05,4,27
16316,0,5e-05,7e-05,0.00053,0.00053,0.00049,6e-05,-1e-05,4,27
16317,0,5e-05,7e-05,0.00053,0.00053,0.00049,6e-05,-1e-05,4,27
16318,0,5e-05,7e-05,0.00053,0.00053,0.00049,6e-05,-1e-05,4,27
16319,0,5e-05,7e-05,0.00053,0.00053,0.00049,6e-05,-1e-05,4,27
16320,0,5e-05,7e-05,0.00053,0.00053,0.00049,6e-05,-1e-05,4,27
16321,0,5e-05,7e-05,0.00053,0.00053,0.00049,6e-05,-1e-05,4,27
16322,0,5e-05,7e-05,0.00053,0.00053,0.00049,6e-05,-1e-05,4,27
16323,-3e-05,-2e-05,-9e-05,-0.0004,-0.00033,-0.00065,-0.00022,-8e-05,4,27
16324,-3e-05,-2e-05,-9e-05,-0.0004,-0.00033,-0.00065,-0.00022,-8e-05,4,27
16325,-3e-05,-2e-05,-9e-05,-0.0004,-0.00033,-0.00065,-0.00022,-8e-05,4,27
16326,-3e-05,-2e-05,-9e-05,-0.0004,-0.00033,-0.00065,-0.00022,-8e-05,4,27
16327,-3e-05,-2e-05,-9e-05,-0.0004,-0.00033,-0.00065,-0.00022,-8e-05,4,27
16328,-3e-05,-2e-05,-9e-05,-0.0004,-0.00033,-0.00065,-0.00022,-8e-05,4,27
16329,-3e-05,-2e-05,-9e-05,-0.0004,-0.00033,-0.00065,-0.00022,-8e-05,4,27
16330,-3e-05,-2e-05,-9e-05,-0.0004,-0.00033,-0.00065,-0.00022,-8e-05,4,27
16331,-3e-05,-2e-05,-9e-05,-0.0004,-0.00033,-0.00065,-0.00022,-8e-05,4,27
16332,-3e-05,-2e-05,-9e-05,-0.0004,-0.00033,-0.00065,-0.00022,-8e-05,4,27
16333,-3e-05,-2e-05,-9e-05,-0.0004,-0.00033,-0.00065,-0.00022,-8e-05,4,27
16334,-3e-05,-2e-05,-9e-05,-0.0004,-0.00033,-0.00065,-0.00022,-8e-05,4,27
16335,-3e-05,-2e-05,-9e-05,-0.0004,-0.00033,-0.00065,-0.00022,-8e-05,4,27
16336,-3e-05,-2e-05,-9e-05,-0.0004,-0.00033,-0.00065,-0.00022,-8e-05,4,27
16338,-2e-05,-3e-05,-3e-05,0.0008,-0.00071,-0.00076,-7e-05,-4e-05,4,27
16339,-1e-05,-3e-05,0,8e-05,0.00029,0.00015,0,1e-05,4,27
16340,-1e-05,-3e-05,0,8e-05,0.00029,0.00015,0,1e-05,4,27
16341,-1e-05,-3e-05,0,8e-05,0.00029,0.00015,0,1e-05,4,27
16342,-1e-05,-3e-05,0,8e-05,0.00029,0.00015,0,1e-05,4,27
16343,-1e-05,-3e-05,0,8e-05,0.00029,0.00015,0,1e-05,4,27
16344,-1e-05,-3e-05,0,8e-05,0.00029,0.00015,0,1e-05,4,27
16345,-1e-05,-3e-05,0,8e-05,0.00029,0.00015,0,1e-05,4,27
16346,-1e-05,-3e-05,0,8e-05,0.00029,0.00015,0,1e-05,4,27
16347,-1e-05,-3e-05,0,8e-05,0.00029,0.00015,0,1e-05,4,27
16348,-1e-05,-3e-05,0,8e-05,0.00029,0.00015,0,1e-05,4,27
16349,-1e-05,-3e-05,0,8e-05,0.00029,0.00015,0,1e-05,4,27
16350,-1e-05,-3e-05,0,8e-05,0.00029,0.00015,0,1e-05,4,27
16351,-1e-05,-3e-05,0,8e-05,0.00029,0.00015,0,1e-05,4,27
16352,-1e-05,-3e-05,0,8e-05,0.00029,0.00015,0,1e-05,4,27
16353,-1e-05,-3e-05,0,8e-05,0.00029,0.00015,0,1e-05,4,27
16354,-1e-05,-3e-05,0,8e-05,0.00029,0.00015,0,1e-05,4,27
16355,-1e-05,-3e-05,0,8e-05,0.00029,0.00015,0,1e-05,4,27
16356,-1e-05,-3e-05,0,8e-05,0.00029,0.00015,0,1e-05,4,27
16357,-1e-05,-3e-05,0,8e-05,0.00029,0.00015,0,1e-05,4,27
16358,-1e-05,-3e-05,0,8e-05,0.00029,0.00015,0,1e-05,4,27
16359,-1e-05,-3e-05,0,8e-05,0.00029,0.00015,0,1e-05,4,27
16360,-1e-05,-3e-05,0,8e-05,0.00029,0.00015,0,1e-05,4,27
16361,0,-1e-05,5e-05,0.00032,0.00011,0.00018,-1e-05,0,4,27
16362,-1e-05,-1e-05,-3e-05,-0.00029,-9e-05,0.00015,4e-05,0,4,27
16363,-1e-05,-1e-05,-3e-05,-0.00029,-9e-05,0.00015,4e-05,0,4,27
16364,-1e-05,-1e-05,-3e-05,-0.00029,-9e-05,0.00015,4e-05,0,4,27
16365,-1e-05,-1e-05,-3e-05,-0.00029,-9e-05,0.00015,4e-05,0,4,27
16366,-1e-05,-1e-05,-3e-05,-0.00029,-9e-05,0.00015,4e-05,0,4,27
16367,-1e-05,-1e-05,-3e-05,-0.00029,-9e-05,0.00015,4e-05,0,4,27
16368,-1e-05,-1e-05,-3e-05,-0.00029,-9e-05,0.00015,4e-05,0,4,27
16369,-1e-05,-1e-05,-3e-05,-0.00029,-9e-05,0.00015,4e-05,0,4,27
16370,-1e-05,-1e-05,-3e-05,-0.00029,-9e-05,0.00015,4e-05,0,4,27
16371,-1e-05,-1e-05,-3e-05,-0.00029,-9e-05,0.00015,4e-05,0,4,27
16372,-1e-05,-1e-05,-3e-05,-0.00029,-9e-05,0.00015,4e-05,0,4,27
16373,-1e-05,-1e-05,-3e-05,-0.00029,-9e-05,0.00015,4e-05,0,4,27
16374,-1e-05,-1e-05,-3e-05,-0.00029,-9e-05,0.00015,4e-05,0,4,27
16375,-2e-05,-2e-05,1e-05,0.00013,0.00017,-0.00049,-4e-05,-2e-05,4,27
16376,1e-05,0,-6e-05,-0.00039,-0.00013,0.00049,4e-05,3e-05,4,27
16377,1e-05,0,-6e-05,-0.00039,-0.00013,0.00049,4e-05,3e-05,4,27
16378,1e-05,0,-6e-05,-0.00039,-0.00013,0.00049,4e-05,3e-05,4,27
16379,1e-05,0,-6e-05,-0.00039,-0.00013,0.00049,4e-05,3e-05,4,27
16380,1e-05,0,-6e-05,-0.00039,-0.00013,0.00049,4e-05,3e-05,4,27
16381,1e-05,0,-6e-05,-0.00039,-0.00013,0.00049,4e-05,3e-05,4,27
16382,1e-05,0,-6e-05,-0.00039,-0.00013,0.00049,4e-05,3e-05,4,27
16383,0,0,0,-0.00033,-0.00019,-0.00033,-5e-05,-4e-05,4,27
16384,0,0,0,-0.00033,-0.00019,-0.00033,-5e-05,-4e-05,4,27
16385,0,0,0,-0.00033,-0.00019,-0.00033,-5e-05,-4e-05,4,27
16386,0,0,0,-0.00033,-0.00019,-0.00033,-5e-05,-4e-05,4,27
16388,0,0,0,-0.00033,-0.00019,-0.00033,-5e-05,-4e-05,4,27
16389,0,0,0,-0.00033,-0.00019,-0.00033,-5e-05,-4e-05,4,27
16390,0,0,0,-0.00033,-0.00019,-0.00033,-5e-05,-4e-05,4,27
16391,0,0,0,-0.00033,-0.00019,-0.00033,-5e-05,-4e-05,4,27
16392,0,0,0,-0.00033,-0.00019,-0.00033,-5e-05,-4e-05,4,27
16393,0,0,0,-0.00033,-0.00019,-0.00033,-5e-05,-4e-05,4,27
16394,0,0,0,-0.00033,-0.00019,-0.00033,-5e-05,-4e-05,4,27
16395,0,0,0,-0.00033,-0.00019,-0.00033,-5e-05,-4e-05,4,27
16396,0,0,0,-0.00033,-0.00019,-0.00033,-5e-05,-4e-05,4,27
16397,0,0,0,-0.00033,-0.00019,-0.00033,-5e-05,-4e-05,4,27
16398,0,-3e-05,-2e-05,7e-05,-0.00059,-2e-05,3e-05,2e-05,4,27
16399,1e-05,4e-05,0.00011,0.00064,6e-05,-5e-05,5e-05,1e-05,4,27
16400,1e-05,4e-05,0.00011,0.00064,6e-05,-5e-05,5e-05,1e-05,4,27
16401,1e-05,4e-05,0.00011,0.00064,6e-05,-5e-05,5e-05,1e-05,4,27
16402,1e-05,4e-05,0.00011,0.00064,6e-05,-5e-05,5e-05,1e-05,4,27
16403,1e-05,4e-05,0.00011,0.00064,6e-05,-5e-05,5e-05,1e-05,4,27
16404,1e-05,4e-05,0.00011,0.00064,6e-05,-5e-05,5e-05,1e-05,4,27
16405,1e-05,4e-05,0.00011,0.00064,6e-05,-5e-05,5e-05,1e-05,4,27
16406,1e-05,4e-05,0.00011,0.00064,6e-05,-5e-05,5e-05,1e-05,4,27
16407,1e-05,4e-05,0.00011,0.00064,6e-05,-5e-05,5e-05,1e-05,4,27
16408,1e-05,4e-05,0.00011,0.00064,6e-05,-5e-05,5e-05,1e-05,4,27
16409,1e-05,4e-05,0.00011,0.00064,6e-05,-5e-05,5e-05,1e-05,4,27
16410,1e-05,4e-05,0.00011,0.00064,6e-05,-5e-05,5e-05,1e-05,4,27
16411,1e-05,4e-05,0.00011,0.00064,6e-05,-5e-05,5e-05,1e-05,4,27
16412,1e-05,4e-05,0.00011,0.00064,6e-05,-5e-05,5e-05,1e-05,4,27
16413,1e-05,4e-05,0.00011,0.00064,6e-05,-5e-05,5e-05,1e-05,4,27
16414,1e-05,4e-05,0.00011,0.00064,6e-05,-5e-05,5e-05,1e-05,4,27
16415,1e-05,4e-05,0.00011,0.00064,6e-05,-5e-05,5e-05,1e-05,4,27
16416,1e-05,4e-05,0.00011,0.00064,6e-05,-5e-05,5e-05,1e-05,4,27
16417,1e-05,4e-05,0.00011,0.00064,6e-05,-5e-05,5e-05,1e-05,4,27
16418,1e-05,4e-05,0.00011,0.00064,6e-05,-5e-05,5e-05,1e-05,4,27
16419,1e-05,4e-05,0.00011,0.00064,6e-05,-5e-05,5e-05,1e-05,4,27
16420,1e-05,4e-05,0.00011,0.00064,6e-05,-5e-05,5e-05,1e-05,4,27
16421,-1e-05,-1e-05,-9e-05,-0.00041,-8e-05,-0.00031,-0.00013,-1e-05,4,27
16422,-2e-05,-3e-05,4e-05,0.00024,0.00042,9e-05,-3e-05,0,4,27
16423,-2e-05,-3e-05,4e-05,0.00024,0.00042,9e-05,-3e-05,0,4,27
16424,-2e-05,-3e-05,4e-05,0.00024,0.00042,9e-05,-3e-05,0,4,27
16425,-2e-05,-3e-05,4e-05,0.00024,0.00042,9e-05,-3e-05,0,4,27
16426,-2e-05,-3e-05,4e-05,0.00024,0.00042,9e-05,-3e-05,0,4,27
16427,-2e-05,-3e-05,4e-05,0.00024,0.00042,9e-05,-3e-05,0,4,27
16428,-2e-05,-3e-05,4e-05,0.00024,0.00042,9e-05,-3e-05,0,4,27
16429,-2e-05,-3e-05,4e-05,0.00024,0.00042,9e-05,-3e-05,0,4,27
16430,-2e-05,-3e-05,4e-05,0.00024,0.00042,9e-05,-3e-05,0,4,27
16431,-2e-05,-3e-05,4e-05,0.00024,0.00042,9e-05,-3e-05,0,4,27
16432,-2e-05,-3e-05,4e-05,0.00024,0.00042,9e-05,-3e-05,0,4,27
16433,-2e-05,-3e-05,4e-05,0.00024,0.00042,9e-05,-3e-05,0,4,27
16434,-2e-05,-3e-05,4e-05,0.00024,0.00042,9e-05,-3e-05,0,4,27
16435,-3e-05,-5e-05,-4e-05,-0.00077,-0.00023,-0.00026,-6e-05,-4e-05,4,27
16436,-3e-05,-5e-05,-4e-05,-0.00077,-0.00023,-0.00026,-6e-05,-4e-05,4,27
16438,-3e-05,-5e-05,-4e-05,-0.00077,-0.00023,-0.00026,-6e-05,-4e-05,4,27
16439,-3e-05,-5e-05,-4e-05,-0.00077,-0.00023,-0.00026,-6e-05,-4e-05,4,27
16440,-3e-05,-5e-05,-4e-05,-0.00077,-0.00023,-0.00026,-6e-05,-4e-05,4,27
16441,-3e-05,-5e-05,-4e-05,-0.00077,-0.00023,-0.00026,-6e-05,-4e-05,4,27
16442,-3e-05,-5e-05,-4e-05,-0.00077,-0.00023,-0.00026,-6e-05,-4e-05,4,27
16443,-2e-05,1e-05,-4e-05,7e-05,-0.00018,0.00016,0.0001,5e-05,4,27
16444,-2e-05,1e-05,-4e-05,7e-05,-0.00018,0.00016,0.0001,5e-05,4,27
16445,-2e-05,1e-05,-4e-05,7e-05,-0.00018,0.00016,0.0001,5e-05,4,27
16446,-2e-05,1e-05,-4e-05,7e-05,-0.00018,0.00016,0.0001,5e-05,4,27
16447,-2e-05,1e-05,-4e-05,7e-05,-0.00018,0.00016,0.0001,5e-05,4,27
16448,-2e-05,1e-05,-4e-05,7e-05,-0.00018,0.00016,0.0001,5e-05,4,27
16449,-2e-05,1e-05,-4e-05,7e-05,-0.00018,0.00016,0.0001,5e-05,4,27
16450,-2e-05,1e-05,-4e-05,7e-05,-0.00018,0.00016,0.0001,5e-05,4,27
16451,-2e-05,1e-05,-4e-05,7e-05,-0.00018,0.00016,0.0001,5e-05,4,27
16452,-2e-05,1e-05,-4e-05,7e-05,-0.00018,0.00016,0.0001,5e-05,4,27
16453,-2e-05,1e-05,-4e-05,7e-05,-0.00018,0.00016,0.0001,5e-05,4,27
16454,-2e-05,1e-05,-4e-05,7e-05,-0.00018,0.00016,0.0001,5e-05,4,27
16455,-2e-05,1e-05,-4e-05,7e-05,-0.00018,0.00016,0.0001,5e-05,4,27
16456,-2e-05,1e-05,-4e-05,7e-05,-0.00018,0.00016,0.0001,5e-05,4,27
16457,-2e-05,1e-05,-4e-05,7e-05,-0.00018,0.00016,0.0001,5e-05,4,27
16458,-2e-05,1e-05,-4e-05,7e-05,-0.00018,0.00016,0.0001,5e-05,4,27
16459,-2e-05,-3e-05,-2e-05,-0.00055,-0.00049,-0.0003,-5e-05,-2e-05,4,27
16460,-2e-05,-3e-05,-2e-05,-0.00055,-0.00049,-0.0003,-5e-05,-2e-05,4,27
16461,-2e-05,-3e-05,-2e-05,-0.00055,-0.00049,-0.0003,-5e-05,-2e-05,4,27
16462,-2e-05,-3e-05,-2e-05,-0.00055,-0.00049,-0.0003,-5e-05,-2e-05,4,27
16463,-2e-05,-3e-05,-2e-05,-0.00055,-0.00049,-0.0003,-5e-05,-2e-05,4,27
16464,-2e-05,-3e-05,-2e-05,-0.00055,-0.00049,-0.0003,-5e-05,-2e-05,4,27
16465,-2e-05,-3e-05,-2e-05,-0.00055,-0.00049,-0.0003,-5e-05,-2e-05,4,27
16466,-2e-05,-3e-05,-2e-05,-0.00055,-0.00049,-0.0003,-5e-05,-2e-05,4,27
16467,-2e-05,-3e-05,-2e-05,-0.00055,-0.00049,-0.0003,-5e-05,-2e-05,4,27
16468,-2e-05,-3e-05,-2e-05,-0.00055,-0.00049,-0.0003,-5e-05,-2e-05,4,27
16469,-2e-05,-3e-05,-2e-05,-0.00055,-0.00049,-0.0003,-5e-05,-2e-05,4,27
16470,-2e-05,-3e-05,-2e-05,-0.00055,-0.00049,-0.0003,-5e-05,-2e-05,4,27
16471,-2e-05,-3e-05,-2e-05,-0.00055,-0.00049,-0.0003,-5e-05,-2e-05,4,27
16472,-2e-05,-3e-05,-2e-05,-0.00055,-0.00049,-0.0003,-5e-05,-2e-05,4,27
16473,-2e-05,-3e-05,-2e-05,-0.00055,-0.00049,-0.0003,-5e-05,-2e-05,4,27
16474,-2e-05,-3e-05,-2e-05,-0.00055,-0.00049,-0.0003,-5e-05,-2e-05,4,27
16475,-2e-05,-3e-05,-2e-05,-0.00055,-0.00049,-0.0003,-5e-05,-2e-05,4,27
16476,-2e-05,-3e-05,-2e-05,-0.00055,-0.00049,-0.0003,-5e-05,-2e-05,4,27
16477,-2e-05,-3e-05,-2e-05,-0.00055,-0.00049,-0.0003,-5e-05,-2e-05,4,27
16478,-2e-05,-3e-05,-2e-05,-0.00055,-0.00049,-0.0003,-5e-05,-2e-05,4,27
16479,-2e-05,-3e-05,-2e-05,-0.00055,-0.00049,-0.0003,-5e-05,-2e-05,4,27
16480,-2e-05,-3e-05,-2e-05,-0.00055,-0.00049,-0.0003,-5e-05,-2e-05,4,27
16481,0,3e-05,-2e-05,-0.00018,-0.00019,-0.00063,-3e-05,-1e-05,4,27
16482,-1e-05,2e-05,4e-05,-0.0003,-0.0004,0.00025,3e-05,4e-05,4,27
16483,-1e-05,2e-05,4e-05,-0.0003,-0.0004,0.00025,3e-05,4e-05,4,27
16484,-1e-05,2e-05,4e-05,-0.0003,-0.0004,0.00025,3e-05,4e-05,4,27
16485,-1e-05,2e-05,4e-05,-0.0003,-0.0004,0.00025,3e-05,4e-05,4,27
16486,-1e-05,2e-05,4e-05,-0.0003,-0.0004,0.00025,3e-05,4e-05,4,27
16488,-1e-05,2e-05,4e-05,-0.0003,-0.0004,0.00025,3e-05,4e-05,4,27
16489,-1e-05,2e-05,4e-05,-0.0003,-0.0004,0.00025,3e-05,4e-05,4,27
16490,-1e-05,2e-05,4e-05,-0.0003,-0.0004,0.00025,3e-05,4e-05,4,27
16491,-1e-05,2e-05,4e-05,-0.0003,-0.0004,0.00025,3e-05,4e-05,4,27
16492,-1e-05,2e-05,4e-05,-0.0003,-0.0004,0.00025,3e-05,4e-05,4,27
16493,-1e-05,2e-05,4e-05,-0.0003,-0.0004,0.00025,3e-05,4e-05,4,27
16494,-1e-05,2e-05,4e-05,-0.0003,-0.0004,0.00025,3e-05,4e-05,4,27
16495,0,-3e-05,-7e-05,-0.00017,-0.00013,-0.0002,-2e-05,-5e-05,4,27
16496,0,-3e-05,-7e-05,-0.00017,-0.00013,-0.0002,-2e-05,-5e-05,4,27
16497,0,-3e-05,-7e-05,-0.00017,-0.00013,-0.0002,-2e-05,-5e-05,4,27
16498,0,-3e-05,-7e-05,-0.00017,-0.00013,-0.0002,-2e-05,-5e-05,4,27
16499,0,-3e-05,-7e-05,-0.00017,-0.00013,-0.0002,-2e-05,-5e-05,4,27
16500,0,-3e-05,-7e-05,-0.00017,-0.00013,-0.0002,-2e-05,-5e-05,4,27
16501,0,-3e-05,-7e-05,-0.00017,-0.00013,-0.0002,-2e-05,-5e-05,4,27
16502,0,-3e-05,-7e-05,-0.00017,-0.00013,-0.0002,-2e-05,-5e-05,4,27
16503,0,-1e-05,-2e-05,0.00022,4e-05,1e-05,-5e-05,-1e-05,4,27
16504,0,-1e-05,-2e-05,0.00022,4e-05,1e-05,-5e-05,-1e-05,4,27
16505,0,-1e-05,-2e-05,0.00022,4e-05,1e-05,-5e-05,-1e-05,4,27
16506,0,-1e-05,-2e-05,0.00022,4e-05,1e-05,-5e-05,-1e-05,4,27
16507,0,-1e-05,-2e-05,0.00022,4e-05,1e-05,-5e-05,-1e-05,4,27
16508,0,-1e-05,-2e-05,0.00022,4e-05,1e-05,-5e-05,-1e-05,4,27
16509,0,-1e-05,-2e-05,0.00022,4e-05,1e-05,-5e-05,-1e-05,4,27
16510,0,-1e-05,-2e-05,0.00022,4e-05,1e-05,-5e-05,-1e-05,4,27
16511,0,-1e-05,-2e-05,0.00022,4e-05,1e-05,-5e-05,-1e-05,4,27
16512,0,-1e-05,-2e-05,0.00022,4e-05,1e-05,-5e-05,-1e-05,4,27
16513,0,-1e-05,-2e-05,0.00022,4e-05,1e-05,-5e-05,-1e-05,4,27
16514,0,-1e-05,-2e-05,0.00022,4e-05,1e-05,-5e-05,-1e-05,4,27
16515,0,-1e-05,-2e-05,0.00022,4e-05,1e-05,-5e-05,-1e-05,4,27
16516,0,-1e-05,-2e-05,0.00022,4e-05,1e-05,-5e-05,-1e-05,4,27
16517,0,-1e-05,-2e-05,0.00022,4e-05,1e-05,-5e-05,-1e-05,4,27
16518,4e-05,2e-05,0,-0.00011,-0.00063,2e-05,4e-05,3e-05,4,27
16519,0,-6e-05,-0.00012,-0.00039,0.00021,0.00017,2e-05,-3e-05,4,27
16520,0,-6e-05,-0.00012,-0.00039,0.00021,0.00017,2e-05,-3e-05,4,27
16521,0,-6e-05,-0.00012,-0.00039,0.00021,0.00017,2e-05,-3e-05,4,27
16522,0,-6e-05,-0.00012,-0.00039,0.00021,0.00017,2e-05,-3e-05,4,27
16523,0,-6e-05,-0.00012,-0.00039,0.00021,0.00017,2e-05,-3e-05,4,27
16524,0,-6e-05,-0.00012,-0.00039,0.00021,0.00017,2e-05,-3e-05,4,27
16525,0,-6e-05,-0.00012,-0.00039,0.00021,0.00017,2e-05,-3e-05,4,27
16526,0,-6e-05,-0.00012,-0.00039,0.00021,0.00017,2e-05,-3e-05,4,27
16527,0,-6e-05,-0.00012,-0.00039,0.00021,0.00017,2e-05,-3e-05,4,27
16528,0,-6e-05,-0.00012,-0.00039,0.00021,0.00017,2e-05,-3e-05,4,27
16529,0,-6e-05,-0.00012,-0.00039,0.00021,0.00017,2e-05,-3e-05,4,27
16530,0,-6e-05,-0.00012,-0.00039,0.00021,0.00017,2e-05,-3e-05,4,27
16531,0,-6e-05,-0.00012,-0.00039,0.00021,0.00017,2e-05,-3e-05,4,27
16532,0,-6e-05,-0.00012,-0.00039,0.00021,0.00017,2e-05,-3e-05,4,27
16533,0,-6e-05,-0.00012,-0.00039,0.00021,0.00017,2e-05,-3e-05,4,27
16534,0,-6e-05,-0.00012,-0.00039,0.00021,0.00017,2e-05,-3e-05,4,27
16535,0,-6e-05,-0.00012,-0.00039,0.00021,0.00017,2e-05,-3e-05,4,27
16536,0,-6e-05,-0.00012,-0.00039,0.00021,0.00017,2e-05,-3e-05,4,27
16538,0,-6e-05,-0.00012,-0.00039,0.00021,0.00017,2e-05,-3e-05,4,27
16539,0,-6e-05,-0.00012,-0.00039,0.00021,0.00017,2e-05,-3e-05,4,27
16540,0,-6e-05,-0.00012,-0.00039,0.00021,0.00017,2e-05,-3e-05,4,27
16541,-3e-05,-7e-05,-6e-05,2e-05,7e-05,-1e-05,-5e-05,-4e-05,4,27
16542,0,3e-05,-1e-05,0.00011,0.00018,-0.00015,3e-05,-1e-05,4,27
16543,0,3e-05,-1e-05,0.00011,0.00018,-0.00015,3e-05,-1e-05,4,27
16544,0,3e-05,-1e-05,0.00011,0.00018,-0.00015,3e-05,-1e-05,4,27
16545,0,3e-05,-1e-05,0.00011,0.00018,-0.00015,3e-05,-1e-05,4,27
16546,0,3e-05,-1e-05,0.00011,0.00018,-0.00015,3e-05,-1e-05,4,27
16547,0,3e-05,-1e-05,0.00011,0.00018,-0.00015,3e-05,-1e-05,4,27
16548,0,3e-05,-1e-05,0.00011,0.00018,-0.00015,3e-05,-1e-05,4,27
16549,0,3e-05,-1e-05,0.00011,0.00018,-0.00015,3e-05,-1e-05,4,27
16550,0,3e-05,-1e-05,0.00011,0.00018,-0.00015,3e-05,-1e-05,4,27
16551,0,3e-05,-1e-05,0.00011,0.00018,-0.00015,3e-05,-1e-05,4,27
16552,0,3e-05,-1e-05,0.00011,0.00018,-0.00015,3e-05,-1e-05,4,27
16553,0,3e-05,-1e-05,0.00011,0.00018,-0.00015,3e-05,-1e-05,4,27
16554,0,3e-05,-1e-05,0.00011,0.00018,-0.00015,3e-05,-1e-05,4,27
16555,0,3e-05,-1e-05,0.00011,0.00018,-0.00015,3e-05,-1e-05,4,27
16556,0,3e-05,-1e-05,0.00011,0.00018,-0.00015,3e-05,-1e-05,4,27
16557,0,3e-05,-1e-05,0.00011,0.00018,-0.00015,3e-05,-1e-05,4,27
16558,0,3e-05,-1e-05,0.00011,0.00018,-0.00015,3e-05,-1e-05,4,27
16559,0,3e-05,-1e-05,0.00011,0.00018,-0.00015,3e-05,-1e-05,4,27
16560,0,3e-05,-1e-05,0.00011,0.00018,-0.00015,3e-05,-1e-05,4,27
16561,0,3e-05,-1e-05,0.00011,0.00018,-0.00015,3e-05,-1e-05,4,27
16562,0,3e-05,-1e-05,0.00011,0.00018,-0.00015,3e-05,-1e-05,4,27
16563,-1e-05,-1e-05,0,-4e-05,0.00019,-0.00012,-9e-05,-1e-05,4,27
16564,-1e-05,2e-05,-0.0001,-9e-05,-0.00048,-0.00028,-5e-05,-6e-05,4,27
16565,-1e-05,2e-05,-0.0001,-9e-05,-0.00048,-0.00028,-5e-05,-6e-05,4,27
16566,-1e-05,2e-05,-0.0001,-9e-05,-0.00048,-0.00028,-5e-05,-6e-05,4,27
16567,-1e-05,2e-05,-0.0001,-9e-05,-0.00048,-0.00028,-5e-05,-6e-05,4,27
16568,-1e-05,2e-05,-0.0001,-9e-05,-0.00048,-0.00028,-5e-05,-6e-05,4,27
16569,-1e-05,2e-05,-0.0001,-9e-05,-0.00048,-0.00028,-5e-05,-6e-05,4,27
16570,-1e-05,2e-05,-0.0001,-9e-05,-0.00048,-0.00028,-5e-05,-6e-05,4,27
16571,-1e-05,2e-05,-0.0001,-9e-05,-0.00048,-0.00028,-5e-05,-6e-05,4,27
16572,-1e-05,2e-05,-0.0001,-9e-05,-0.00048,-0.00028,-5e-05,-6e-05,4,27
16573,-1e-05,2e-05,-0.0001,-9e-05,-0.00048,-0.00028,-5e-05,-6e-05,4,27
16574,-1e-05,2e-05,-0.0001,-9e-05,-0.00048,-0.00028,-5e-05,-6e-05,4,27
16575,-1e-05,2e-05,-0.0001,-9e-05,-0.00048,-0.00028,-5e-05,-6e-05,4,27
16576,-1e-05,2e-05,-0.0001,-9e-05,-0.00048,-0.00028,-5e-05,-6e-05,4,27
16577,-1e-05,2e-05,-0.0001,-9e-05,-0.00048,-0.00028,-5e-05,-6e-05,4,27
16578,-1e-05,0,1e-05,0.00022,0.0007,0.00054,3e-05,2e-05,4,27
16579,-1e-05,2e-05,-2e-05,-0.00037,-0.0004,-7e-05,-8e-05,-2e-05,4,27
16580,-1e-05,2e-05,-2e-05,-0.00037,-0.0004,-7e-05,-8e-05,-2e-05,4,27
16581,-1e-05,2e-05,-2e-05,-0.00037,-0.0004,-7e-05,-8e-05,-2e-05,4,27
16582,-1e-05,2e-05,-2e-05,-0.00037,-0.0004,-7e-05,-8e-05,-2e-05,4,27
16583,-1e-05,2e-05,-2e-05,-0.00037,-0.0004,-7e-05,-8e-05,-2e-05,4,27
16584,-1e-05,2e-05,-2e-05,-0.00037,-0.0004,-7e-05,-8e-05,-2e-05,4,27
16585,-1e-05,2e-05,-2e-05,-0.00037,-0.0004,-7e-05,-8e-05,-2e-05,4,27
16586,-1e-05,2e-05,-2e-05,-0.00037,-0.0004,-7e-05,-8e-05,-2e-05,4,27
16588,-1e-05,2e-05,-2e-05,-0.00037,-0.0004,-7e-05,-8e-05,-2e-05,4,27
16589,-1e-05,2e-05,-2e-05,-0.00037,-0.0004,-7e-05,-8e-05,-2e-05,4,27
16590,-1e-05,2e-05,-2e-05,-0.00037,-0.0004,-7e-05,-8e-05,-2e-05,4,27
16591,-1e-05,2e-05,-2e-05,-0.00037,-0.0004,-7e-05,-8e-05,-2e-05,4,27
16592,-1e-05,2e-05,-2e-05,-0.00037,-0.0004,-7e-05,-8e-05,-2e-05,4,27
16593,-1e-05,2e-05,-2e-05,-0.00037,-0.0004,-7e-05,-8e-05,-2e-05,4,27
16594,-1e-05,2e-05,-2e-05,-0.00037,-0.0004,-7e-05,-8e-05,-2e-05,4,27
16595,-1e-05,2e-05,-2e-05,-0.00037,-0.0004,-7e-05,-8e-05,-2e-05,4,27
16596,-1e-05,2e-05,-2e-05,-0.00037,-0.0004,-7e-05,-8e-05,-2e-05,4,27
16597,-1e-05,2e-05,-2e-05,-0.00037,-0.0004,-7e-05,-8e-05,-2e-05,4,27
16598,-1e-05,2e-05,-2e-05,-0.00037,-0.0004,-7e-05,-8e-05,-2e-05,4,27
16599,-1e-05,2e-05,-2e-05,-0.00037,-0.0004,-7e-05,-8e-05,-2e-05,4,27
16600,-1e-05,2e-05,-2e-05,-0.00037,-0.0004,-7e-05,-8e-05,-2e-05,4,27
16601,-2e-05,-1e-05,-5e-05,-0.00039,0.00057,0.00015,-5e-05,-3e-05,4,27
16602,1e-05,-1e-05,1e-05,-0.00018,-0.00016,-0.00017,0,-1e-05,4,27
16603,1e-05,-1e-05,1e-05,-0.00018,-0.00016,-0.00017,0,-1e-05,4,27
16604,1e-05,-1e-05,1e-05,-0.00018,-0.00016,-0.00017,0,-1e-05,4,27
16605,1e-05,-1e-05,1e-05,-0.00018,-0.00016,-0.00017,0,-1e-05,4,27
16606,1e-05,-1e-05,1e-05,-0.00018,-0.00016,-0.00017,0,-1e-05,4,27
16607,1e-05,-1e-05,1e-05,-0.00018,-0.00016,-0.00017,0,-1e-05,4,27
16608,1e-05,-1e-05,1e-05,-0.00018,-0.00016,-0.00017,0,-1e-05,4,27
16609,1e-05,-1e-05,1e-05,-0.00018,-0.00016,-0.00017,0,-1e-05,4,27
16610,1e-05,-1e-05,1e-05,-0.00018,-0.00016,-0.00017,0,-1e-05,4,27
16611,1e-05,-1e-05,1e-05,-0.00018,-0.00016,-0.00017,0,-1e-05,4,27
16612,1e-05,-1e-05,1e-05,-0.00018,-0.00016,-0.00017,0,-1e-05,4,27
16613,1e-05,-1e-05,1e-05,-0.00018,-0.00016,-0.00017,0,-1e-05,4,27
16614,1e-05,-1e-05,1e-05,-0.00018,-0.00016,-0.00017,0,-1e-05,4,27
16615,1e-05,-1e-05,1e-05,-0.00018,-0.00016,-0.00017,0,-1e-05,4,27
16616,1e-05,-1e-05,1e-05,-0.00018,-0.00016,-0.00017,0,-1e-05,4,27
16617,1e-05,-1e-05,1e-05,-0.00018,-0.00016,-0.00017,0,-1e-05,4,27
16618,1e-05,-1e-05,1e-05,-0.00018,-0.00016,-0.00017,0,-1e-05,4,27
16619,1e-05,-1e-05,1e-05,-0.00018,-0.00016,-0.00017,0,-1e-05,4,27
16620,1e-05,-1e-05,1e-05,-0.00018,-0.00016,-0.00017,0,-1e-05,4,27
16621,1e-05,-1e-05,1e-05,-0.00018,-0.00016,-0.00017,0,-1e-05,4,27
16622,1e-05,-1e-05,1e-05,-0.00018,-0.00016,-0.00017,0,-1e-05,4,27
16623,-2e-05,-3e-05,0,-0.00021,-0.0007,1e-05,-3e-05,4e-05,4,27
16624,-1e-05,-4e-05,4e-05,0.00022,0.00047,-6e-05,-3e-05,0,4,27
16625,-1e-05,-4e-05,4e-05,0.00022,0.00047,-6e-05,-3e-05,0,4,27
16626,-1e-05,-4e-05,4e-05,0.00022,0.00047,-6e-05,-3e-05,0,4,27
16627,-1e-05,-4e-05,4e-05,0.00022,0.00047,-6e-05,-3e-05,0,4,27
16628,-1e-05,-4e-05,4e-05,0.00022,0.00047,-6e-05,-3e-05,0,4,27
16629,-1e-05,-4e-05,4e-05,0.00022,0.00047,-6e-05,-3e-05,0,4,27
16630,-1e-05,-4e-05,4e-05,0.00022,0.00047,-6e-05,-3e-05,0,4,27
16631,-1e-05,-4e-05,4e-05,0.00022,0.00047,-6e-05,-3e-05,0,4,27
16632,-1e-05,-4e-05,4e-05,0.00022,0.00047,-6e-05,-3e-05,0,4,27
16633,-1e-05,-4e-05,4e-05,0.00022,0.00047,-6e-05,-3e-05,0,4,27
16634,-1e-05,-4e-05,4e-05,0.00022,0.00047,-6e-05,-3e-05,0,4,27
16635,-1e-05,-4e-05,4e-05,0.00022,0.00047,-6e-05,-3e-05,0,4,27
16636,-1e-05,-4e-05,4e-05,0.00022,0.00047,-6e-05,-3e-05,0,4,27
16638,4e-05,2e-05,9e-05,0.0001,8e-05,0.00025,6e-05,5e-05,4,27
16639,2e-05,1e-05,0.00011,0.00046,-0.00035,4e-05,0.0001,4e-05,4,27
16640,2e-05,1e-05,0.00011,0.00046,-0.00035,4e-05,0.0001,4e-05,4,27
16641,2e-05,1e-05,0.00011,0.00046,-0.00035,4e-05,0.0001,4e-05,4,27
16642,2e-05,1e-05,0.00011,0.00046,-0.00035,4e-05,0.0001,4e-05,4,27
16643,2e-05,1e-05,0.00011,0.00046,-0.00035,4e-05,0.0001,4e-05,4,27
16644,2e-05,1e-05,0.00011,0.00046,-0.00035,4e-05,0.0001,4e-05,4,27
16645,2e-05,1e-05,0.00011,0.00046,-0.00035,4e-05,0.0001,4e-05,4,27
16646,2e-05,1e-05,0.00011,0.00046,-0.00035,4e-05,0.0001,4e-05,4,27
16647,2e-05,1e-05,0.00011,0.00046,-0.00035,4e-05,0.0001,4e-05,4,27
16648,2e-05,1e-05,0.00011,0.00046,-0.00035,4e-05,0.0001,4e-05,4,27
16649,2e-05,1e-05,0.00011,0.00046,-0.00035,4e-05,0.0001,4e-05,4,27
16650,2e-05,1e-05,0.00011,0.00046,-0.00035,4e-05,0.0001,4e-05,4,27
16651,2e-05,1e-05,0.00011,0.00046,-0.00035,4e-05,0.0001,4e-05,4,27
16652,2e-05,1e-05,0.00011,0.00046,-0.00035,4e-05,0.0001,4e-05,4,27
16653,2e-05,1e-05,0.00011,0.00046,-0.00035,4e-05,0.0001,4e-05,4,27
16654,2e-05,1e-05,0.00011,0.00046,-0.00035,4e-05,0.0001,4e-05,4,27
16655,2e-05,1e-05,0.00011,0.00046,-0.00035,4e-05,0.0001,4e-05,4,27
16656,2e-05,1e-05,0.00011,0.00046,-0.00035,4e-05,0.0001,4e-05,4,27
16657,2e-05,1e-05,0.00011,0.00046,-0.00035,4e-05,0.0001,4e-05,4,27
16658,2e-05,1e-05,0.00011,0.00046,-0.00035,4e-05,0.0001,4e-05,4,27
16659,2e-05,1e-05,0.00011,0.00046,-0.00035,4e-05,0.0001,4e-05,4,27
16660,2e-05,1e-05,0.00011,0.00046,-0.00035,4e-05,0.0001,4e-05,4,27
16661,-2e-05,-3e-05,-9e-05,-0.00047,-0.00026,0.0001,2e-05,-1e-05,4,27
16662,-2e-05,-1e-05,4e-05,0.00043,-0.0001,-0.00021,-6e-05,-2e-05,4,27
16663,-2e-05,-1e-05,4e-05,0.00043,-0.0001,-0.00021,-6e-05,-2e-05,4,27
16664,-2e-05,-1e-05,4e-05,0.00043,-0.0001,-0.00021,-6e-05,-2e-05,4,27
16665,-2e-05,-1e-05,4e-05,0.00043,-0.0001,-0.00021,-6e-05,-2e-05,4,27
16666,-2e-05,-1e-05,4e-05,0.00043,-0.0001,-0.00021,-6e-05,-2e-05,4,27
16667,-2e-05,-1e-05,4e-05,0.00043,-0.0001,-0.00021,-6e-05,-2e-05,4,27
16668,-2e-05,-1e-05,4e-05,0.00043,-0.0001,-0.00021,-6e-05,-2e-05,4,27
16669,-2e-05,-1e-05,4e-05,0.00043,-0.0001,-0.00021,-6e-05,-2e-05,4,27
16670,-2e-05,-1e-05,4e-05,0.00043,-0.0001,-0.00021,-6e-05,-2e-05,4,27
16671,-2e-05,-1e-05,4e-05,0.00043,-0.0001,-0.00021,-6e-05,-2e-05,4,27
16672,-2e-05,-1e-05,4e-05,0.00043,-0.0001,-0.00021,-6e-05,-2e-05,4,27
16673,-2e-05,-1e-05,4e-05,0.00043,-0.0001,-0.00021,-6e-05,-2e-05,4,27
16674,-2e-05,-1e-05,4e-05,0.00043,-0.0001,-0.00021,-6e-05,-2e-05,4,27
16675,-2e-05,-1e-05,4e-05,0.00043,-0.0001,-0.00021,-6e-05,-2e-05,4,27
16676,-2e-05,-1e-05,4e-05,0.00043,-0.0001,-0.00021,-6e-05,-2e-05,4,27
16677,-2e-05,-1e-05,4e-05,0.00043,-0.0001,-0.00021,-6e-05,-2e-05,4,27
16678,-2e-05,-1e-05,4e-05,0.00043,-0.0001,-0.00021,-6e-05,-2e-05,4,27
16679,-2e-05,-1e-05,4e-05,0.00043,-0.0001,-0.00021,-6e-05,-2e-05,4,27
16680,-2e-05,-1e-05,4e-05,0.00043,-0.0001,-0.00021,-6e-05,-2e-05,4,27
16681,-2e-05,-1e-05,4e-05,0.00043,-0.0001,-0.00021,-6e-05,-2e-05,4,27
16682,-2e-05,-1e-05,4e-05,0.00043,-0.0001,-0.00021,-6e-05,-2e-05,4,27
16683,-2e-05,-1e-05,4e-05,0.00043,-0.0001,-0.00021,-6e-05,-2e-05,4,27
16684,0,-1e-05,-4e-05,5e-05,-7e-05,-0.00035,1e-05,1e-05,4,27
16685,0,-1e-05,-4e-05,5e-05,-7e-05,-0.00035,1e-05,1e-05,4,27
16686,0,-1e-05,-4e-05,5e-05,-7e-05,-0.00035,1e-05,1e-05,4,27
16688,0,-1e-05,-4e-05,5e-05,-7e-05,-0.00035,1e-05,1e-05,4,27
16689,0,-1e-05,-4e-05,5e-05,-7e-05,-0.00035,1e-05,1e-05,4,27
16690,0,-1e-05,-4e-05,5e-05,-7e-05,-0.00035,1e-05,1e-05,4,27
16691,0,-1e-05,-4e-05,5e-05,-7e-05,-0.00035,1e-05,1e-05,4,27
16692,0,-1e-05,-4e-05,5e-05,-7e-05,-0.00035,1e-05,1e-05,4,27
16693,0,-1e-05,-4e-05,5e-05,-7e-05,-0.00035,1e-05,1e-05,4,27
16694,0,-1e-05,-4e-05,5e-05,-7e-05,-0.00035,1e-05,1e-05,4,27
16695,0,-1e-05,-4e-05,5e-05,-7e-05,-0.00035,1e-05,1e-05,4,27
16696,0,-1e-05,-4e-05,5e-05,-7e-05,-0.00035,1e-05,1e-05,4,27
16697,0,-1e-05,-4e-05,5e-05,-7e-05,-0.00035,1e-05,1e-05,4,27
16698,-3e-05,-2e-05,0,5e-05,-0.0003,-0.00068,-0.00013,-7e-05,4,27
16699,-3e-05,-4e-05,-0.00019,-0.00071,-0.00026,-0.00036,-7e-05,-3e-05,4,27
16700,-3e-05,-4e-05,-0.00019,-0.00071,-0.00026,-0.00036,-7e-05,-3e-05,4,27
16701,-3e-05,-4e-05,-0.00019,-0.00071,-0.00026,-0.00036,-7e-05,-3e-05,4,27
16702,-3e-05,-4e-05,-0.00019,-0.00071,-0.00026,-0.00036,-7e-05,-3e-05,4,27
16703,-3e-05,-4e-05,-0.00019,-0.00071,-0.00026,-0.00036,-7e-05,-3e-05,4,27
16704,-3e-05,-4e-05,-0.00019,-0.00071,-0.00026,-0.00036,-7e-05,-3e-05,4,27
16705,-3e-05,-4e-05,-0.00019,-0.00071,-0.00026,-0.00036,-7e-05,-3e-05,4,27
16706,-3e-05,-4e-05,-0.00019,-0.00071,-0.00026,-0.00036,-7e-05,-3e-05,4,27
16707,-3e-05,-4e-05,-0.00019,-0.00071,-0.00026,-0.00036,-7e-05,-3e-05,4,27
16708,-3e-05,-4e-05,-0.00019,-0.00071,-0.00026,-0.00036,-7e-05,-3e-05,4,27
16710,-3e-05,-4e-05,-0.00019,-0.00071,-0.00026,-0.00036,-7e-05,-3e-05,4,27
16711,-3e-05,-4e-05,-0.00019,-0.00071,-0.00026,-0.00036,-7e-05,-3e-05,4,27
16712,-3e-05,-4e-05,-0.00019,-0.00071,-0.00026,-0.00036,-7e-05,-3e-05,4,27
16713,-3e-05,-4e-05,-0.00019,-0.00071,-0.00026,-0.00036,-7e-05,-3e-05,4,27
16714,-3e-05,-4e-05,-0.00019,-0.00071,-0.00026,-0.00036,-7e-05,-3e-05,4,27
16715,-3e-05,-4e-05,-0.00019,-0.00071,-0.00026,-0.00036,-7e-05,-3e-05,4,27
16716,-3e-05,-4e-05,-0.00019,-0.00071,-0.00026,-0.00036,-7e-05,-3e-05,4,27
16717,-3e-05,-4e-05,-0.00019,-0.00071,-0.00026,-0.00036,-7e-05,-3e-05,4,27
16718,-3e-05,-4e-05,-0.00019,-0.00071,-0.00026,-0.00036,-7e-05,-3e-05,4,27
16719,-3e-05,-4e-05,-0.00019,-0.00071,-0.00026,-0.00036,-7e-05,-3e-05,4,27
16720,-3e-05,-4e-05,-0.00019,-0.00071,-0.00026,-0.00036,-7e-05,-3e-05,4,27
16721,2e-05,3e-05,2e-05,-0.00029,-0.00034,0.00024,2e-05,1e-05,4,27
16722,0,1e-05,4e-05,0.00049,0.00063,0.00039,3e-05,-1e-05,4,27
16723,0,1e-05,4e-05,0.00049,0.00063,0.00039,3e-05,-1e-05,4,27
16724,0,1e-05,4e-05,0.00049,0.00063,0.00039,3e-05,-1e-05,4,27
16725,0,1e-05,4e-05,0.00049,0.00063,0.00039,3e-05,-1e-05,4,27
16726,0,1e-05,4e-05,0.00049,0.00063,0.00039,3e-05,-1e-05,4,27
16727,0,1e-05,4e-05,0.00049,0.00063,0.00039,3e-05,-1e-05,4,27
16728,0,1e-05,4e-05,0.00049,0.00063,0.00039,3e-05,-1e-05,4,27
16729,0,1e-05,4e-05,0.00049,0.00063,0.00039,3e-05,-1e-05,4,27
16730,0,1e-05,4e-05,0.00049,0.00063,0.00039,3e-05,-1e-05,4,27
16731,0,1e-05,4e-05,0.00049,0.00063,0.00039,3e-05,-1e-05,4,27
16732,0,1e-05,4e-05,0.00049,0.00063,0.00039,3e-05,-1e-05,4,27
16733,0,1e-05,4e-05,0.00049,0.00063,0.00039,3e-05,-1e-05,4,27
16734,0,1e-05,4e-05,0.00049,0.00063,0.00039,3e-05,-1e-05,4,27
16735,0,1e-05,4e-05,0.00049,0.00063,0.00039,3e-05,-1e-05,4,27
16736,0,1e-05,4e-05,0.00049,0.00063,0.00039,3e-05,-1e-05,4,27
16739,0,1e-05,4e-05,0.00049,0.00063,0.00039,3e-05,-1e-05,4,27
16740,0,1e-05,4e-05,0.00049,0.00063,0.00039,3e-05,-1e-05,4,27
16741,0,1e-05,4e-05,0.00049,0.00063,0.00039,3e-05,-1e-05,4,27
16742,0,1e-05,4e-05,0.00049,0.00063,0.00039,3e-05,-1e-05,4,27
16743,0,1e-05,4e-05,0.00049,0.00063,0.00039,3e-05,-1e-05,4,27
16744,-2e-05,-1e-05,0,-0.0002,-0.00059,-0.00016,2e-05,-1e-05,4,27
16745,-2e-05,-1e-05,0,-0.0002,-0.00059,-0.00016,2e-05,-1e-05,4,27
16746,-2e-05,-1e-05,0,-0.0002,-0.00059,-0.00016,2e-05,-1e-05,4,27
16747,-2e-05,-1e-05,0,-0.0002,-0.00059,-0.00016,2e-05,-1e-05,4,27
16748,-2e-05,-1e-05,0,-0.0002,-0.00059,-0.00016,2e-05,-1e-05,4,27
16749,-2e-05,-1e-05,0,-0.0002,-0.00059,-0.00016,2e-05,-1e-05,4,27
16750,-2e-05,-1e-05,0,-0.0002,-0.00059,-0.00016,2e-05,-1e-05,4,27
16751,-2e-05,-1e-05,0,-0.0002,-0.00059,-0.00016,2e-05,-1e-05,4,27
16752,-2e-05,-1e-05,0,-0.0002,-0.00059,-0.00016,2e-05,-1e-05,4,27
16753,-2e-05,-1e-05,0,-0.0002,-0.00059,-0.00016,2e-05,-1e-05,4,27
16754,-2e-05,-1e-05,0,-0.0002,-0.00059,-0.00016,2e-05,-1e-05,4,27
16755,-2e-05,-1e-05,0,-0.0002,-0.00059,-0.00016,2e-05,-1e-05,4,27
16756,-2e-05,-1e-05,0,-0.0002,-0.00059,-0.00016,2e-05,-1e-05,4,27
16757,-2e-05,-1e-05,0,-0.0002,-0.00059,-0.00016,2e-05,-1e-05,4,27
16758,0,-2e-05,-9e-05,-0.00015,-3e-05,0.00051,7e-05,-1e-05,4,27
16759,-2e-05,0,8e-05,0,0.00016,0.00043,4e-05,-2e-05,4,27
16760,-2e-05,0,8e-05,0,0.00016,0.00043,4e-05,-2e-05,4,27
16761,-2e-05,0,8e-05,0,0.00016,0.00043,4e-05,-2e-05,4,27
16762,-2e-05,0,8e-05,0,0.00016,0.00043,4e-05,-2e-05,4,27
16763,-2e-05,0,8e-05,0,0.00016,0.00043,4e-05,-2e-05,4,27
16764,-2e-05,0,8e-05,0,0.00016,0.00043,4e-05,-2e-05,4,27
16765,-2e-05,0,8e-05,0,0.00016,0.00043,4e-05,-2e-05,4,27
16766,-2e-05,0,8e-05,0,0.00016,0.00043,4e-05,-2e-05,4,27
16767,-2e-05,0,8e-05,0,0.00016,0.00043,4e-05,-2e-05,4,27
16768,-2e-05,0,8e-05,0,0.00016,0.00043,4e-05,-2e-05,4,27
16769,-2e-05,0,8e-05,0,0.00016,0.00043,4e-05,-2e-05,4,27
16770,-2e-05,0,8e-05,0,0.00016,0.00043,4e-05,-2e-05,4,27
16771,-2e-05,0,8e-05,0,0.00016,0.00043,4e-05,-2e-05,4,27
16772,-2e-05,0,8e-05,0,0.00016,0.00043,4e-05,-2e-05,4,27
16773,-2e-05,0,8e-05,0,0.00016,0.00043,4e-05,-2e-05,4,27
16774,-2e-05,0,8e-05,0,0.00016,0.00043,4e-05,-2e-05,4,27
16775,-2e-05,0,8e-05,0,0.00016,0.00043,4e-05,-2e-05,4,27
16776,-2e-05,0,8e-05,0,0.00016,0.00043,4e-05,-2e-05,4,27
16777,-2e-05,0,8e-05,0,0.00016,0.00043,4e-05,-2e-05,4,27
16778,-2e-05,0,8e-05,0,0.00016,0.00043,4e-05,-2e-05,4,27
16779,-2e-05,0,8e-05,0,0.00016,0.00043,4e-05,-2e-05,4,27
16780,-2e-05,0,8e-05,0,0.00016,0.00043,4e-05,-2e-05,4,27
16781,-1e-05,-3e-05,5e-05,8e-05,-0.00024,0.00033,0.0001,3e-05,4,27
16782,-3e-05,-2e-05,-0.0001,-0.00024,-5e-05,-1e-05,3e-05,-5e-05,4,27
16783,-3e-05,-2e-05,-0.0001,-0.00024,-5e-05,-1e-05,3e-05,-5e-05,4,27
16784,-3e-05,-2e-05,-0.0001,-0.00024,-5e-05,-1e-05,3e-05,-5e-05,4,27
16785,-3e-05,-2e-05,-0.0001,-0.00024,-5e-05,-1e-05,3e-05,-5e-05,4,27
16786,-3e-05,-2e-05,-0.0001,-0.00024,-5e-05,-1e-05,3e-05,-5e-05,4,27
16788,-3e-05,-2e-05,-0.0001,-0.00024,-5e-05,-1e-05,3e-05,-5e-05,4,27
16789,-3e-05,-2e-05,-0.0001,-0.00024,-5e-05,-1e-05,3e-05,-5e-05,4,27
16790,-3e-05,-2e-05,-0.0001,-0.00024,-5e-05,-1e-05,3e-05,-5e-05,4,27
16791,-3e-05,-2e-05,-0.0001,-0.00024,-5e-05,-1e-05,3e-05,-5e-05,4,27
16792,-3e-05,-2e-05,-0.0001,-0.00024,-5e-05,-1e-05,3e-05,-5e-05,4,27
16793,-3e-05,-2e-05,-0.0001,-0.00024,-5e-05,-1e-05,3e-05,-5e-05,4,27
16794,-3e-05,-2e-05,-0.0001,-0.00024,-5e-05,-1e-05,3e-05,-5e-05,4,27
16795,-3e-05,-2e-05,-0.0001,-0.00024,-5e-05,-1e-05,3e-05,-5e-05,4,27
16796,-3e-05,-2e-05,-0.0001,-0.00024,-5e-05,-1e-05,3e-05,-5e-05,4,27
16797,-3e-05,-2e-05,-0.0001,-0.00024,-5e-05,-1e-05,3e-05,-5e-05,4,27
16798,-3e-05,-2e-05,-0.0001,-0.00024,-5e-05,-1e-05,3e-05,-5e-05,4,27
16799,-3e-05,-2e-05,-0.0001,-0.00024,-5e-05,-1e-05,3e-05,-5e-05,4,27
16800,-3e-05,-2e-05,-0.0001,-0.00024,-5e-05,-1e-05,3e-05,-5e-05,4,27
16801,-3e-05,-2e-05,-0.0001,-0.00024,-5e-05,-1e-05,3e-05,-5e-05,4,27
16802,-3e-05,-2e-05,-0.0001,-0.00024,-5e-05,-1e-05,3e-05,-5e-05,4,27
16803,-3e-05,-2e-05,-0.0001,-0.00024,-5e-05,-1e-05,3e-05,-5e-05,4,27
16804,2e-05,2e-05,8e-05,0.00028,-0.00036,-0.00013,-0.00014,4e-05,4,27
16805,2e-05,2e-05,8e-05,0.00028,-0.00036,-0.00013,-0.00014,4e-05,4,27
16806,2e-05,2e-05,8e-05,0.00028,-0.00036,-0.00013,-0.00014,4e-05,4,27
16807,2e-05,2e-05,8e-05,0.00028,-0.00036,-0.00013,-0.00014,4e-05,4,27
16808,2e-05,2e-05,8e-05,0.00028,-0.00036,-0.00013,-0.00014,4e-05,4,27
16809,2e-05,2e-05,8e-05,0.00028,-0.00036,-0.00013,-0.00014,4e-05,4,27
16810,2e-05,2e-05,8e-05,0.00028,-0.00036,-0.00013,-0.00014,4e-05,4,27
16811,2e-05,2e-05,8e-05,0.00028,-0.00036,-0.00013,-0.00014,4e-05,4,27
16812,2e-05,2e-05,8e-05,0.00028,-0.00036,-0.00013,-0.00014,4e-05,4,27
16813,2e-05,2e-05,8e-05,0.00028,-0.00036,-0.00013,-0.00014,4e-05,4,27
16814,2e-05,2e-05,8e-05,0.00028,-0.00036,-0.00013,-0.00014,4e-05,4,27
16815,2e-05,2e-05,8e-05,0.00028,-0.00036,-0.00013,-0.00014,4e-05,4,27
16816,2e-05,2e-05,8e-05,0.00028,-0.00036,-0.00013,-0.00014,4e-05,4,27
16817,2e-05,2e-05,8e-05,0.00028,-0.00036,-0.00013,-0.00014,4e-05,4,27
16818,1e-05,2e-05,3e-05,-0.00022,-0.00022,0.00026,8e-05,1e-05,4,27
16819,0,1e-05,-1e-05,-1e-05,0.00043,8e-05,1e-05,-1e-05,4,27
16820,0,1e-05,-1e-05,-1e-05,0.00043,8e-05,1e-05,-1e-05,4,27
16821,0,1e-05,-1e-05,-1e-05,0.00043,8e-05,1e-05,-1e-05,4,27
16822,0,1e-05,-1e-05,-1e-05,0.00043,8e-05,1e-05,-1e-05,4,27
16823,0,1e-05,-1e-05,-1e-05,0.00043,8e-05,1e-05,-1e-05,4,27
16824,0,1e-05,-1e-05,-1e-05,0.00043,8e-05,1e-05,-1e-05,4,27
16825,0,1e-05,-1e-05,-1e-05,0.00043,8e-05,1e-05,-1e-05,4,27
16826,0,1e-05,-1e-05,-1e-05,0.00043,8e-05,1e-05,-1e-05,4,27
16827,0,1e-05,-1e-05,-1e-05,0.00043,8e-05,1e-05,-1e-05,4,27
16828,0,1e-05,-1e-05,-1e-05,0.00043,8e-05,1e-05,-1e-05,4,27
16829,0,1e-05,-1e-05,-1e-05,0.00043,8e-05,1e-05,-1e-05,4,27
16830,0,1e-05,-1e-05,-1e-05,0.00043,8e-05,1e-05,-1e-05,4,27
16831,0,1e-05,-1e-05,-1e-05,0.00043,8e-05,1e-05,-1e-05,4,27
16832,0,1e-05,-1e-05,-1e-05,0.00043,8e-05,1e-05,-1e-05,4,27
16833,0,1e-05,-1e-05,-1e-05,0.00043,8e-05,1e-05,-1e-05,4,27
16834,0,1e-05,-1e-05,-1e-05,0.00043,8e-05,1e-05,-1e-05,4,27
16835,0,1e-05,-1e-05,-1e-05,0.00043,8e-05,1e-05,-1e-05,4,27
16836,0,1e-05,-1e-05,-1e-05,0.00043,8e-05,1e-05,-1e-05,4,27
16838,0,1e-05,-1e-05,-1e-05,0.00043,8e-05,1e-05,-1e-05,4,27
16839,0,1e-05,-1e-05,-1e-05,0.00043,8e-05,1e-05,-1e-05,4,27
16840,0,1e-05,-1e-05,-1e-05,0.00043,8e-05,1e-05,-1e-05,4,27
16841,0,1e-05,-3e-05,4e-05,-0.0003,-0.00039,-6e-05,1e-05,4,27
16842,0,-6e-05,-3e-05,-0.00035,-0.00022,0.00018,1e-05,-1e-05,4,27
16843,0,-6e-05,-3e-05,-0.00035,-0.00022,0.00018,1e-05,-1e-05,4,27
16844,0,-6e-05,-3e-05,-0.00035,-0.00022,0.00018,1e-05,-1e-05,4,27
16845,0,-6e-05,-3e-05,-0.00035,-0.00022,0.00018,1e-05,-1e-05,4,27
