13567,2e-05,-6e-05,-1e-05,0.00035,0.00074,0.00099,0.00016,4e-05,4,28
13568,2e-05,-6e-05,-1e-05,0.00035,0.00074,0.00099,0.00016,4e-05,4,28
13569,2e-05,-6e-05,-1e-05,0.00035,0.00074,0.00099,0.00016,4e-05,4,28
13570,2e-05,-6e-05,-1e-05,0.00035,0.00074,0.00099,0.00016,4e-05,4,28
13571,2e-05,-6e-05,-1e-05,0.00035,0.00074,0.00099,0.00016,4e-05,4,28
13572,2e-05,-6e-05,-1e-05,0.00035,0.00074,0.00099,0.00016,4e-05,4,28
13573,2e-05,-6e-05,-1e-05,0.00035,0.00074,0.00099,0.00016,4e-05,4,28
13574,2e-05,-6e-05,-1e-05,0.00035,0.00074,0.00099,0.00016,4e-05,4,28
13575,2e-05,-6e-05,-1e-05,0.00035,0.00074,0.00099,0.00016,4e-05,4,28
13576,2e-05,-6e-05,-1e-05,0.00035,0.00074,0.00099,0.00016,4e-05,4,28
13577,2e-05,-6e-05,-1e-05,0.00035,0.00074,0.00099,0.00016,4e-05,4,28
13578,2e-05,-6e-05,-1e-05,0.00035,0.00074,0.00099,0.00016,4e-05,4,28
13579,2e-05,-6e-05,-1e-05,0.00035,0.00074,0.00099,0.00016,4e-05,4,28
13580,2e-05,-6e-05,-1e-05,0.00035,0.00074,0.00099,0.00016,4e-05,4,28
13581,2e-05,-6e-05,-1e-05,0.00035,0.00074,0.00099,0.00016,4e-05,4,28
13582,2e-05,-6e-05,-1e-05,0.00035,0.00074,0.00099,0.00016,4e-05,4,28
13583,2e-05,-6e-05,-1e-05,0.00035,0.00074,0.00099,0.00016,4e-05,4,28
13584,2e-05,-6e-05,-1e-05,0.00035,0.00074,0.00099,0.00016,4e-05,4,28
13585,2e-05,-6e-05,-1e-05,0.00035,0.00074,0.00099,0.00016,4e-05,4,28
13586,4e-05,1e-05,-6e-05,8e-05,0.00035,0.0003,8e-05,2e-05,4,28
13589,1e-05,7e-05,6e-05,7e-05,0.00033,7e-05,4e-05,-2e-05,4,28
13590,1e-05,7e-05,6e-05,7e-05,0.00033,7e-05,4e-05,-2e-05,4,28
13591,1e-05,7e-05,6e-05,7e-05,0.00033,7e-05,4e-05,-2e-05,4,28
13592,1e-05,7e-05,6e-05,7e-05,0.00033,7e-05,4e-05,-2e-05,4,28
13593,1e-05,7e-05,6e-05,7e-05,0.00033,7e-05,4e-05,-2e-05,4,28
13594,1e-05,7e-05,6e-05,7e-05,0.00033,7e-05,4e-05,-2e-05,4,28
13595,1e-05,7e-05,6e-05,7e-05,0.00033,7e-05,4e-05,-2e-05,4,28
13596,1e-05,7e-05,6e-05,7e-05,0.00033,7e-05,4e-05,-2e-05,4,28
13597,1e-05,7e-05,6e-05,7e-05,0.00033,7e-05,4e-05,-2e-05,4,28
13598,1e-05,7e-05,6e-05,7e-05,0.00033,7e-05,4e-05,-2e-05,4,28
13599,1e-05,7e-05,6e-05,7e-05,0.00033,7e-05,4e-05,-2e-05,4,28
13600,-4e-05,7e-05,5e-05,0.00017,0.00049,0.00049,7e-05,3e-05,4,28
13601,-3e-05,2e-05,6e-05,-0.00013,-0.00037,-5e-05,7e-05,-8e-05,4,28
13602,-3e-05,2e-05,6e-05,-0.00013,-0.00037,-5e-05,7e-05,-8e-05,4,28
13603,-3e-05,2e-05,6e-05,-0.00013,-0.00037,-5e-05,7e-05,-8e-05,4,28
13604,-3e-05,2e-05,6e-05,-0.00013,-0.00037,-5e-05,7e-05,-8e-05,4,28
13605,-3e-05,2e-05,6e-05,-0.00013,-0.00037,-5e-05,7e-05,-8e-05,4,28
13606,-3e-05,2e-05,6e-05,-0.00013,-0.00037,-5e-05,7e-05,-8e-05,4,28
13607,-3e-05,2e-05,6e-05,-0.00013,-0.00037,-5e-05,7e-05,-8e-05,4,28
13608,-3e-05,2e-05,6e-05,-0.00013,-0.00037,-5e-05,7e-05,-8e-05,4,28
13609,-3e-05,2e-05,6e-05,-0.00013,-0.00037,-5e-05,7e-05,-8e-05,4,28
13610,-3e-05,2e-05,6e-05,-0.00013,-0.00037,-5e-05,7e-05,-8e-05,4,28
13611,-3e-05,2e-05,6e-05,-0.00013,-0.00037,-5e-05,7e-05,-8e-05,4,28
13612,-3e-05,2e-05,6e-05,-0.00013,-0.00037,-5e-05,7e-05,-8e-05,4,28
13613,-3e-05,2e-05,6e-05,-0.00013,-0.00037,-5e-05,7e-05,-8e-05,4,28
13614,-3e-05,2e-05,6e-05,-0.00013,-0.00037,-5e-05,7e-05,-8e-05,4,28
13615,-3e-05,2e-05,6e-05,-0.00013,-0.00037,-5e-05,7e-05,-8e-05,4,28
13616,-3e-05,2e-05,6e-05,-0.00013,-0.00037,-5e-05,7e-05,-8e-05,4,28
13617,-3e-05,2e-05,6e-05,-0.00013,-0.00037,-5e-05,7e-05,-8e-05,4,28
13618,-3e-05,2e-05,6e-05,-0.00013,-0.00037,-5e-05,7e-05,-8e-05,4,28
13619,-3e-05,2e-05,6e-05,-0.00013,-0.00037,-5e-05,7e-05,-8e-05,4,28
13620,-3e-05,2e-05,6e-05,-0.00013,-0.00037,-5e-05,7e-05,-8e-05,4,28
13621,-3e-05,2e-05,6e-05,-0.00013,-0.00037,-5e-05,7e-05,-8e-05,4,28
13622,-3e-05,2e-05,6e-05,-0.00013,-0.00037,-5e-05,7e-05,-8e-05,4,28
13623,-3e-05,2e-05,6e-05,-0.00013,-0.00037,-5e-05,7e-05,-8e-05,4,28
13624,1e-05,5e-05,4e-05,0.0001,0.00014,3e-05,4e-05,0.00012,4,28
13625,1e-05,5e-05,4e-05,0.0001,0.00014,3e-05,4e-05,0.00012,4,28
13626,1e-05,5e-05,4e-05,0.0001,0.00014,3e-05,4e-05,0.00012,4,28
13627,1e-05,5e-05,4e-05,0.0001,0.00014,3e-05,4e-05,0.00012,4,28
13628,1e-05,5e-05,4e-05,0.0001,0.00014,3e-05,4e-05,0.00012,4,28
13629,1e-05,5e-05,4e-05,0.0001,0.00014,3e-05,4e-05,0.00012,4,28
13630,1e-05,5e-05,4e-05,0.0001,0.00014,3e-05,4e-05,0.00012,4,28
13631,1e-05,5e-05,4e-05,0.0001,0.00014,3e-05,4e-05,0.00012,4,28
13632,1e-05,5e-05,4e-05,0.0001,0.00014,3e-05,4e-05,0.00012,4,28
13633,1e-05,5e-05,4e-05,0.0001,0.00014,3e-05,4e-05,0.00012,4,28
13634,1e-05,5e-05,4e-05,0.0001,0.00014,3e-05,4e-05,0.00012,4,28
13635,1e-05,5e-05,4e-05,0.0001,0.00014,3e-05,4e-05,0.00012,4,28
13636,1e-05,5e-05,4e-05,0.0001,0.00014,3e-05,4e-05,0.00012,4,28
13639,1e-05,5e-05,4e-05,0.0001,0.00014,3e-05,4e-05,0.00012,4,28
13640,1e-05,5e-05,4e-05,0.0001,0.00014,3e-05,4e-05,0.00012,4,28
13641,1e-05,5e-05,4e-05,0.0001,0.00014,3e-05,4e-05,0.00012,4,28
13642,1e-05,5e-05,4e-05,0.0001,0.00014,3e-05,4e-05,0.00012,4,28
13643,1e-05,5e-05,4e-05,0.0001,0.00014,3e-05,4e-05,0.00012,4,28
13644,1e-05,5e-05,4e-05,0.0001,0.00014,3e-05,4e-05,0.00012,4,28
13645,1e-05,5e-05,4e-05,0.0001,0.00014,3e-05,4e-05,0.00012,4,28
13646,1e-05,5e-05,4e-05,0.0001,0.00014,3e-05,4e-05,0.00012,4,28
13647,1e-05,5e-05,4e-05,0.0001,0.00014,3e-05,4e-05,0.00012,4,28
13648,1e-05,5e-05,4e-05,0.0001,0.00014,3e-05,4e-05,0.00012,4,28
13649,1e-05,5e-05,4e-05,0.0001,0.00014,3e-05,4e-05,0.00012,4,28
13650,1e-05,5e-05,4e-05,0.0001,0.00014,3e-05,4e-05,0.00012,4,28
13651,1e-05,5e-05,4e-05,0.0001,0.00014,3e-05,4e-05,0.00012,4,28
13652,1e-05,5e-05,4e-05,0.0001,0.00014,3e-05,4e-05,0.00012,4,28
13653,1e-05,5e-05,4e-05,0.0001,0.00014,3e-05,4e-05,0.00012,4,28
13654,6e-05,3e-05,-3e-05,0.00034,0.00125,9e-05,6e-05,8e-05,4,28
13656,6e-05,4e-05,0.00023,-7e-05,-0.0007,-0.00033,3e-05,9e-05,4,28
13657,6e-05,4e-05,0.00023,-7e-05,-0.0007,-0.00033,3e-05,9e-05,4,28
13658,6e-05,4e-05,0.00023,-7e-05,-0.0007,-0.00033,3e-05,9e-05,4,28
13659,6e-05,4e-05,0.00023,-7e-05,-0.0007,-0.00033,3e-05,9e-05,4,28
13660,2e-05,-1e-05,2e-05,0,9e-05,0.00019,-3e-05,-8e-05,4,28
13661,-1e-05,0.00012,-0.00015,0.00011,0.00051,-2e-05,-6e-05,-3e-05,4,28
13662,-1e-05,0.00012,-0.00015,0.00011,0.00051,-2e-05,-6e-05,-3e-05,4,28
13663,-1e-05,0.00012,-0.00015,0.00011,0.00051,-2e-05,-6e-05,-3e-05,4,28
13664,-1e-05,0.00012,-0.00015,0.00011,0.00051,-2e-05,-6e-05,-3e-05,4,28
13665,-1e-05,0.00012,-0.00015,0.00011,0.00051,-2e-05,-6e-05,-3e-05,4,28
13666,-1e-05,0.00012,-0.00015,0.00011,0.00051,-2e-05,-6e-05,-3e-05,4,28
13667,-1e-05,0.00012,-0.00015,0.00011,0.00051,-2e-05,-6e-05,-3e-05,4,28
13668,-1e-05,0.00012,-0.00015,0.00011,0.00051,-2e-05,-6e-05,-3e-05,4,28
13669,-1e-05,0.00012,-0.00015,0.00011,0.00051,-2e-05,-6e-05,-3e-05,4,28
13670,-1e-05,0.00012,-0.00015,0.00011,0.00051,-2e-05,-6e-05,-3e-05,4,28
13671,-1e-05,0.00012,-0.00015,0.00011,0.00051,-2e-05,-6e-05,-3e-05,4,28
13672,-1e-05,0.00012,-0.00015,0.00011,0.00051,-2e-05,-6e-05,-3e-05,4,28
13673,-1e-05,0.00012,-0.00015,0.00011,0.00051,-2e-05,-6e-05,-3e-05,4,28
13674,-1e-05,0.00012,-0.00015,0.00011,0.00051,-2e-05,-6e-05,-3e-05,4,28
13675,-1e-05,0.00012,-0.00015,0.00011,0.00051,-2e-05,-6e-05,-3e-05,4,28
13676,-1e-05,0.00012,-0.00015,0.00011,0.00051,-2e-05,-6e-05,-3e-05,4,28
13677,-1e-05,0.00012,-0.00015,0.00011,0.00051,-2e-05,-6e-05,-3e-05,4,28
13678,-1e-05,0.00012,-0.00015,0.00011,0.00051,-2e-05,-6e-05,-3e-05,4,28
13679,-1e-05,0.00012,-0.00015,0.00011,0.00051,-2e-05,-6e-05,-3e-05,4,28
13680,-1e-05,0.00012,-0.00015,0.00011,0.00051,-2e-05,-6e-05,-3e-05,4,28
13681,-1e-05,0.00012,-0.00015,0.00011,0.00051,-2e-05,-6e-05,-3e-05,4,28
13682,-1e-05,0.00012,-0.00015,0.00011,0.00051,-2e-05,-6e-05,-3e-05,4,28
13683,-1e-05,0.00012,-0.00015,0.00011,0.00051,-2e-05,-6e-05,-3e-05,4,28
13684,1e-05,-1e-05,0.00012,-8e-05,-0.00053,-0.00019,2e-05,-5e-05,4,28
13685,0,0,-5e-05,-0.00012,-0.00053,-0.00015,1e-05,2e-05,4,28
13686,0,0,-5e-05,-0.00012,-0.00053,-0.00015,1e-05,2e-05,4,28
13689,0,0,-5e-05,-0.00012,-0.00053,-0.00015,1e-05,2e-05,4,28
13690,0,0,-5e-05,-0.00012,-0.00053,-0.00015,1e-05,2e-05,4,28
13691,0,0,-5e-05,-0.00012,-0.00053,-0.00015,1e-05,2e-05,4,28
13692,0,0,-5e-05,-0.00012,-0.00053,-0.00015,1e-05,2e-05,4,28
13693,0,0,-5e-05,-0.00012,-0.00053,-0.00015,1e-05,2e-05,4,28
13694,0,0,-5e-05,-0.00012,-0.00053,-0.00015,1e-05,2e-05,4,28
13695,0,0,-5e-05,-0.00012,-0.00053,-0.00015,1e-05,2e-05,4,28
13696,0,0,-5e-05,-0.00012,-0.00053,-0.00015,1e-05,2e-05,4,28
13697,0,0,-5e-05,-0.00012,-0.00053,-0.00015,1e-05,2e-05,4,28
13698,0,0,-5e-05,-0.00012,-0.00053,-0.00015,1e-05,2e-05,4,28
13699,0,0,-5e-05,-0.00012,-0.00053,-0.00015,1e-05,2e-05,4,28
13700,0,0,-5e-05,-0.00012,-0.00053,-0.00015,1e-05,2e-05,4,28
13701,0,0,-5e-05,-0.00012,-0.00053,-0.00015,1e-05,2e-05,4,28
13702,0,0,-5e-05,-0.00012,-0.00053,-0.00015,1e-05,2e-05,4,28
13703,0,0,-5e-05,-0.00012,-0.00053,-0.00015,1e-05,2e-05,4,28
13704,0,0,-5e-05,-0.00012,-0.00053,-0.00015,1e-05,2e-05,4,28
13705,0,0,-5e-05,-0.00012,-0.00053,-0.00015,1e-05,2e-05,4,28
13706,-0.00011,-3e-05,-0.00029,-0.00026,0.00023,-0.00056,-0.00025,-0.00014,4,28
13707,-1e-05,-1e-05,4e-05,7e-05,0.00051,0,0,0,4,28
13708,-1e-05,-1e-05,4e-05,7e-05,0.00051,0,0,0,4,28
13709,-1e-05,-1e-05,4e-05,7e-05,0.00051,0,0,0,4,28
13710,-1e-05,-1e-05,4e-05,7e-05,0.00051,0,0,0,4,28
13711,-1e-05,-1e-05,4e-05,7e-05,0.00051,0,0,0,4,28
13712,-1e-05,-1e-05,4e-05,7e-05,0.00051,0,0,0,4,28
13713,-1e-05,-1e-05,4e-05,7e-05,0.00051,0,0,0,4,28
13714,-1e-05,-1e-05,4e-05,7e-05,0.00051,0,0,0,4,28
13715,-1e-05,-1e-05,4e-05,7e-05,0.00051,0,0,0,4,28
13716,-1e-05,-1e-05,4e-05,7e-05,0.00051,0,0,0,4,28
13717,-1e-05,-1e-05,4e-05,7e-05,0.00051,0,0,0,4,28
13718,-1e-05,-1e-05,4e-05,7e-05,0.00051,0,0,0,4,28
13719,-1e-05,-1e-05,4e-05,7e-05,0.00051,0,0,0,4,28
13720,-2e-05,-5e-05,-8e-05,-0.00017,-0.00039,8e-05,-5e-05,-3e-05,4,28
13721,-3e-05,-8e-05,-8e-05,-5e-05,-1e-05,0.00043,7e-05,0.00017,4,28
13722,-3e-05,-8e-05,-8e-05,-5e-05,-1e-05,0.00043,7e-05,0.00017,4,28
13723,-3e-05,-8e-05,-8e-05,-5e-05,-1e-05,0.00043,7e-05,0.00017,4,28
13724,-3e-05,-8e-05,-8e-05,-5e-05,-1e-05,0.00043,7e-05,0.00017,4,28
13725,-3e-05,-8e-05,-8e-05,-5e-05,-1e-05,0.00043,7e-05,0.00017,4,28
13726,-3e-05,-8e-05,-8e-05,-5e-05,-1e-05,0.00043,7e-05,0.00017,4,28
13727,-3e-05,-8e-05,-8e-05,-5e-05,-1e-05,0.00043,7e-05,0.00017,4,28
13728,-3e-05,-8e-05,-8e-05,-5e-05,-1e-05,0.00043,7e-05,0.00017,4,28
13729,-3e-05,-8e-05,-8e-05,-5e-05,-1e-05,0.00043,7e-05,0.00017,4,28
13730,-3e-05,-8e-05,-8e-05,-5e-05,-1e-05,0.00043,7e-05,0.00017,4,28
13731,-3e-05,-8e-05,-8e-05,-5e-05,-1e-05,0.00043,7e-05,0.00017,4,28
13732,-3e-05,-8e-05,-8e-05,-5e-05,-1e-05,0.00043,7e-05,0.00017,4,28
13733,-3e-05,-8e-05,-8e-05,-5e-05,-1e-05,0.00043,7e-05,0.00017,4,28
13734,-3e-05,-8e-05,-8e-05,-5e-05,-1e-05,0.00043,7e-05,0.00017,4,28
13735,-3e-05,-8e-05,-8e-05,-5e-05,-1e-05,0.00043,7e-05,0.00017,4,28
13736,-3e-05,-8e-05,-8e-05,-5e-05,-1e-05,0.00043,7e-05,0.00017,4,28
13739,-3e-05,-8e-05,-8e-05,-5e-05,-1e-05,0.00043,7e-05,0.00017,4,28
13740,-3e-05,-8e-05,-8e-05,-5e-05,-1e-05,0.00043,7e-05,0.00017,4,28
13741,-3e-05,-8e-05,-8e-05,-5e-05,-1e-05,0.00043,7e-05,0.00017,4,28
13742,-3e-05,-8e-05,-8e-05,-5e-05,-1e-05,0.00043,7e-05,0.00017,4,28
13743,-3e-05,-8e-05,-8e-05,-5e-05,-1e-05,0.00043,7e-05,0.00017,4,28
13744,0,-3e-05,-0.0001,-1e-05,-2e-05,-9e-05,-5e-05,-8e-05,4,28
13745,0,-3e-05,-0.0001,-1e-05,-2e-05,-9e-05,-5e-05,-8e-05,4,28
13746,0,-3e-05,-0.0001,-1e-05,-2e-05,-9e-05,-5e-05,-8e-05,4,28
13747,0,-3e-05,-0.0001,-1e-05,-2e-05,-9e-05,-5e-05,-8e-05,4,28
13748,0,-3e-05,-0.0001,-1e-05,-2e-05,-9e-05,-5e-05,-8e-05,4,28
13749,0,-3e-05,-0.0001,-1e-05,-2e-05,-9e-05,-5e-05,-8e-05,4,28
13750,0,-3e-05,-0.0001,-1e-05,-2e-05,-9e-05,-5e-05,-8e-05,4,28
13751,0,-3e-05,-0.0001,-1e-05,-2e-05,-9e-05,-5e-05,-8e-05,4,28
13752,0,-3e-05,-0.0001,-1e-05,-2e-05,-9e-05,-5e-05,-8e-05,4,28
13753,0,-3e-05,-0.0001,-1e-05,-2e-05,-9e-05,-5e-05,-8e-05,4,28
13754,0,-3e-05,-0.0001,-1e-05,-2e-05,-9e-05,-5e-05,-8e-05,4,28
13755,0,-3e-05,-0.0001,-1e-05,-2e-05,-9e-05,-5e-05,-8e-05,4,28
13756,0,-3e-05,-0.0001,-1e-05,-2e-05,-9e-05,-5e-05,-8e-05,4,28
13757,0,-3e-05,-0.0001,-1e-05,-2e-05,-9e-05,-5e-05,-8e-05,4,28
13758,0,-3e-05,-0.0001,-1e-05,-2e-05,-9e-05,-5e-05,-8e-05,4,28
13759,0,-3e-05,-0.0001,-1e-05,-2e-05,-9e-05,-5e-05,-8e-05,4,28
13760,0,-3e-05,-0.0001,-1e-05,-2e-05,-9e-05,-5e-05,-8e-05,4,28
13761,0,-3e-05,-0.0001,-1e-05,-2e-05,-9e-05,-5e-05,-8e-05,4,28
13762,0,-3e-05,-0.0001,-1e-05,-2e-05,-9e-05,-5e-05,-8e-05,4,28
13763,0,-3e-05,-0.0001,-1e-05,-2e-05,-9e-05,-5e-05,-8e-05,4,28
13764,0,-3e-05,-0.0001,-1e-05,-2e-05,-9e-05,-5e-05,-8e-05,4,28
13765,0,-3e-05,-0.0001,-1e-05,-2e-05,-9e-05,-5e-05,-8e-05,4,28
13766,2e-05,4e-05,0,0,-0.00031,0.00025,0.00013,0.00013,4,28
13767,2e-05,-4e-05,-0.00011,-0.00015,-0.00054,-0.0004,-4e-05,0,4,28
13768,2e-05,-4e-05,-0.00011,-0.00015,-0.00054,-0.0004,-4e-05,0,4,28
13769,2e-05,-4e-05,-0.00011,-0.00015,-0.00054,-0.0004,-4e-05,0,4,28
13770,2e-05,-4e-05,-0.00011,-0.00015,-0.00054,-0.0004,-4e-05,0,4,28
13772,2e-05,-4e-05,-0.00011,-0.00015,-0.00054,-0.0004,-4e-05,0,4,28
13773,2e-05,-4e-05,-0.00011,-0.00015,-0.00054,-0.0004,-4e-05,0,4,28
13774,2e-05,-4e-05,-0.00011,-0.00015,-0.00054,-0.0004,-4e-05,0,4,28
13775,2e-05,-4e-05,-0.00011,-0.00015,-0.00054,-0.0004,-4e-05,0,4,28
13776,2e-05,-4e-05,-0.00011,-0.00015,-0.00054,-0.0004,-4e-05,0,4,28
13777,2e-05,-4e-05,-0.00011,-0.00015,-0.00054,-0.0004,-4e-05,0,4,28
13778,2e-05,-4e-05,-0.00011,-0.00015,-0.00054,-0.0004,-4e-05,0,4,28
13779,2e-05,-4e-05,-0.00011,-0.00015,-0.00054,-0.0004,-4e-05,0,4,28
13780,-6e-05,-0.00015,-0.00024,-0.00016,5e-05,-4e-05,-4e-05,-2e-05,4,28
13781,1e-05,8e-05,5e-05,3e-05,-0.00015,0.0003,0.00012,0,4,28
13782,1e-05,8e-05,5e-05,3e-05,-0.00015,0.0003,0.00012,0,4,28
13783,1e-05,8e-05,5e-05,3e-05,-0.00015,0.0003,0.00012,0,4,28
13784,1e-05,8e-05,5e-05,3e-05,-0.00015,0.0003,0.00012,0,4,28
13785,1e-05,8e-05,5e-05,3e-05,-0.00015,0.0003,0.00012,0,4,28
13786,1e-05,8e-05,5e-05,3e-05,-0.00015,0.0003,0.00012,0,4,28
13789,1e-05,8e-05,5e-05,3e-05,-0.00015,0.0003,0.00012,0,4,28
13790,1e-05,8e-05,5e-05,3e-05,-0.00015,0.0003,0.00012,0,4,28
13791,1e-05,8e-05,5e-05,3e-05,-0.00015,0.0003,0.00012,0,4,28
13792,1e-05,8e-05,5e-05,3e-05,-0.00015,0.0003,0.00012,0,4,28
13793,1e-05,8e-05,5e-05,3e-05,-0.00015,0.0003,0.00012,0,4,28
13794,1e-05,8e-05,5e-05,3e-05,-0.00015,0.0003,0.00012,0,4,28
13795,1e-05,8e-05,5e-05,3e-05,-0.00015,0.0003,0.00012,0,4,28
13796,1e-05,8e-05,5e-05,3e-05,-0.00015,0.0003,0.00012,0,4,28
13797,1e-05,8e-05,5e-05,3e-05,-0.00015,0.0003,0.00012,0,4,28
13798,1e-05,8e-05,5e-05,3e-05,-0.00015,0.0003,0.00012,0,4,28
13799,1e-05,8e-05,5e-05,3e-05,-0.00015,0.0003,0.00012,0,4,28
13800,1e-05,8e-05,5e-05,3e-05,-0.00015,0.0003,0.00012,0,4,28
13801,1e-05,8e-05,5e-05,3e-05,-0.00015,0.0003,0.00012,0,4,28
13802,1e-05,8e-05,5e-05,3e-05,-0.00015,0.0003,0.00012,0,4,28
13803,-1e-05,0,3e-05,6e-05,0.00042,3e-05,-1e-05,6e-05,4,28
13804,-2e-05,-8e-05,0,-4e-05,-0.00016,-0.00017,-0.0001,-3e-05,4,28
13805,-2e-05,-8e-05,0,-4e-05,-0.00016,-0.00017,-0.0001,-3e-05,4,28
13806,-2e-05,-8e-05,0,-4e-05,-0.00016,-0.00017,-0.0001,-3e-05,4,28
13807,-2e-05,-8e-05,0,-4e-05,-0.00016,-0.00017,-0.0001,-3e-05,4,28
13808,-2e-05,-8e-05,0,-4e-05,-0.00016,-0.00017,-0.0001,-3e-05,4,28
13809,-2e-05,-8e-05,0,-4e-05,-0.00016,-0.00017,-0.0001,-3e-05,4,28
13810,-2e-05,-8e-05,0,-4e-05,-0.00016,-0.00017,-0.0001,-3e-05,4,28
13811,-2e-05,-8e-05,0,-4e-05,-0.00016,-0.00017,-0.0001,-3e-05,4,28
13812,-2e-05,-8e-05,0,-4e-05,-0.00016,-0.00017,-0.0001,-3e-05,4,28
13813,-2e-05,-8e-05,0,-4e-05,-0.00016,-0.00017,-0.0001,-3e-05,4,28
13814,-2e-05,-8e-05,0,-4e-05,-0.00016,-0.00017,-0.0001,-3e-05,4,28
13815,-2e-05,-8e-05,0,-4e-05,-0.00016,-0.00017,-0.0001,-3e-05,4,28
13816,-2e-05,-8e-05,0,-4e-05,-0.00016,-0.00017,-0.0001,-3e-05,4,28
13817,-2e-05,-8e-05,0,-4e-05,-0.00016,-0.00017,-0.0001,-3e-05,4,28
13818,-2e-05,-8e-05,0,-4e-05,-0.00016,-0.00017,-0.0001,-3e-05,4,28
13819,-2e-05,-8e-05,0,-4e-05,-0.00016,-0.00017,-0.0001,-3e-05,4,28
13820,-2e-05,-8e-05,0,-4e-05,-0.00016,-0.00017,-0.0001,-3e-05,4,28
13821,-2e-05,-8e-05,0,-4e-05,-0.00016,-0.00017,-0.0001,-3e-05,4,28
13822,-2e-05,-8e-05,0,-4e-05,-0.00016,-0.00017,-0.0001,-3e-05,4,28
13823,-2e-05,-8e-05,0,-4e-05,-0.00016,-0.00017,-0.0001,-3e-05,4,28
13824,-2e-05,-8e-05,0,-4e-05,-0.00016,-0.00017,-0.0001,-3e-05,4,28
13825,-2e-05,-8e-05,0,-4e-05,-0.00016,-0.00017,-0.0001,-3e-05,4,28
13826,-3e-05,-5e-05,1e-05,-2e-05,0.00032,-0.00026,-5e-05,7e-05,4,28
13827,5e-05,-3e-05,0.00014,0.00019,0.00072,0.00035,-6e-05,-5e-05,4,28
13828,5e-05,-3e-05,0.00014,0.00019,0.00072,0.00035,-6e-05,-5e-05,4,28
13829,5e-05,-3e-05,0.00014,0.00019,0.00072,0.00035,-6e-05,-5e-05,4,28
13830,5e-05,-3e-05,0.00014,0.00019,0.00072,0.00035,-6e-05,-5e-05,4,28
13831,5e-05,-3e-05,0.00014,0.00019,0.00072,0.00035,-6e-05,-5e-05,4,28
13832,5e-05,-3e-05,0.00014,0.00019,0.00072,0.00035,-6e-05,-5e-05,4,28
13833,5e-05,-3e-05,0.00014,0.00019,0.00072,0.00035,-6e-05,-5e-05,4,28
13834,5e-05,-3e-05,0.00014,0.00019,0.00072,0.00035,-6e-05,-5e-05,4,28
13835,5e-05,-3e-05,0.00014,0.00019,0.00072,0.00035,-6e-05,-5e-05,4,28
13836,5e-05,-3e-05,0.00014,0.00019,0.00072,0.00035,-6e-05,-5e-05,4,28
13838,5e-05,-3e-05,0.00014,0.00019,0.00072,0.00035,-6e-05,-5e-05,4,28
13840,5e-05,-3e-05,0.00014,0.00019,0.00072,0.00035,-6e-05,-5e-05,4,28
13841,-6e-05,-5e-05,-0.00012,-0.00017,-0.00048,0.00015,1e-05,-4e-05,4,28
13842,-6e-05,-5e-05,-0.00012,-0.00017,-0.00048,0.00015,1e-05,-4e-05,4,28
13843,-6e-05,-5e-05,-0.00012,-0.00017,-0.00048,0.00015,1e-05,-4e-05,4,28
13844,-6e-05,-5e-05,-0.00012,-0.00017,-0.00048,0.00015,1e-05,-4e-05,4,28
13845,-6e-05,-5e-05,-0.00012,-0.00017,-0.00048,0.00015,1e-05,-4e-05,4,28
13846,-6e-05,-5e-05,-0.00012,-0.00017,-0.00048,0.00015,1e-05,-4e-05,4,28
13847,-6e-05,-5e-05,-0.00012,-0.00017,-0.00048,0.00015,1e-05,-4e-05,4,28
13849,-6e-05,-5e-05,-0.00012,-0.00017,-0.00048,0.00015,1e-05,-4e-05,4,28
13850,-6e-05,-5e-05,-0.00012,-0.00017,-0.00048,0.00015,1e-05,-4e-05,4,28
13851,-6e-05,-5e-05,-0.00012,-0.00017,-0.00048,0.00015,1e-05,-4e-05,4,28
13852,-6e-05,-5e-05,-0.00012,-0.00017,-0.00048,0.00015,1e-05,-4e-05,4,28
13853,-6e-05,-5e-05,-0.00012,-0.00017,-0.00048,0.00015,1e-05,-4e-05,4,28
13854,-6e-05,-5e-05,-0.00012,-0.00017,-0.00048,0.00015,1e-05,-4e-05,4,28
13855,-6e-05,-5e-05,-0.00012,-0.00017,-0.00048,0.00015,1e-05,-4e-05,4,28
13856,-6e-05,-5e-05,-0.00012,-0.00017,-0.00048,0.00015,1e-05,-4e-05,4,28
13857,-6e-05,-5e-05,-0.00012,-0.00017,-0.00048,0.00015,1e-05,-4e-05,4,28
13858,-6e-05,-5e-05,-0.00012,-0.00017,-0.00048,0.00015,1e-05,-4e-05,4,28
13859,-6e-05,-5e-05,-0.00012,-0.00017,-0.00048,0.00015,1e-05,-4e-05,4,28
13860,-6e-05,-5e-05,-0.00012,-0.00017,-0.00048,0.00015,1e-05,-4e-05,4,28
13861,-6e-05,-5e-05,-0.00012,-0.00017,-0.00048,0.00015,1e-05,-4e-05,4,28
13862,-6e-05,-5e-05,-0.00012,-0.00017,-0.00048,0.00015,1e-05,-4e-05,4,28
13863,-1e-05,-8e-05,-1e-05,0.00019,2e-05,0.00062,0.00013,4e-05,4,28
13864,-1e-05,-8e-05,-1e-05,0.00019,2e-05,0.00062,0.00013,4e-05,4,28
13865,0,-1e-05,7e-05,0.00011,-0.00026,-9e-05,2e-05,-6e-05,4,28
13866,0,-1e-05,7e-05,0.00011,-0.00026,-9e-05,2e-05,-6e-05,4,28
13867,0,-1e-05,7e-05,0.00011,-0.00026,-9e-05,2e-05,-6e-05,4,28
13868,0,-1e-05,7e-05,0.00011,-0.00026,-9e-05,2e-05,-6e-05,4,28
13869,0,-1e-05,7e-05,0.00011,-0.00026,-9e-05,2e-05,-6e-05,4,28
13870,0,-1e-05,7e-05,0.00011,-0.00026,-9e-05,2e-05,-6e-05,4,28
13871,0,-1e-05,7e-05,0.00011,-0.00026,-9e-05,2e-05,-6e-05,4,28
13872,0,-1e-05,7e-05,0.00011,-0.00026,-9e-05,2e-05,-6e-05,4,28
13873,0,-1e-05,7e-05,0.00011,-0.00026,-9e-05,2e-05,-6e-05,4,28
13874,0,-1e-05,7e-05,0.00011,-0.00026,-9e-05,2e-05,-6e-05,4,28
13875,0,-1e-05,7e-05,0.00011,-0.00026,-9e-05,2e-05,-6e-05,4,28
13876,0,-1e-05,7e-05,0.00011,-0.00026,-9e-05,2e-05,-6e-05,4,28
13877,0,-1e-05,7e-05,0.00011,-0.00026,-9e-05,2e-05,-6e-05,4,28
13878,0,-1e-05,7e-05,0.00011,-0.00026,-9e-05,2e-05,-6e-05,4,28
13879,0,-1e-05,7e-05,0.00011,-0.00026,-9e-05,2e-05,-6e-05,4,28
13880,0,-1e-05,7e-05,0.00011,-0.00026,-9e-05,2e-05,-6e-05,4,28
13881,0,-1e-05,7e-05,0.00011,-0.00026,-9e-05,2e-05,-6e-05,4,28
13882,0,-1e-05,7e-05,0.00011,-0.00026,-9e-05,2e-05,-6e-05,4,28
13883,0,-1e-05,7e-05,0.00011,-0.00026,-9e-05,2e-05,-6e-05,4,28
13884,0,-1e-05,7e-05,0.00011,-0.00026,-9e-05,2e-05,-6e-05,4,28
13885,0,-1e-05,7e-05,0.00011,-0.00026,-9e-05,2e-05,-6e-05,4,28
13886,3e-05,9e-05,7e-05,-7e-05,-0.00022,-0.0001,-4e-05,2e-05,4,28
13888,-1e-05,6e-05,-3e-05,-8e-05,-9e-05,0.00035,9e-05,3e-05,4,28
13889,-1e-05,6e-05,-3e-05,-8e-05,-9e-05,0.00035,9e-05,3e-05,4,28
13890,-1e-05,6e-05,-3e-05,-8e-05,-9e-05,0.00035,9e-05,3e-05,4,28
13891,-1e-05,6e-05,-3e-05,-8e-05,-9e-05,0.00035,9e-05,3e-05,4,28
13892,-1e-05,6e-05,-3e-05,-8e-05,-9e-05,0.00035,9e-05,3e-05,4,28
13893,-1e-05,6e-05,-3e-05,-8e-05,-9e-05,0.00035,9e-05,3e-05,4,28
13894,-1e-05,6e-05,-3e-05,-8e-05,-9e-05,0.00035,9e-05,3e-05,4,28
13895,-1e-05,6e-05,-3e-05,-8e-05,-9e-05,0.00035,9e-05,3e-05,4,28
13896,-1e-05,6e-05,-3e-05,-8e-05,-9e-05,0.00035,9e-05,3e-05,4,28
13897,-1e-05,6e-05,-3e-05,-8e-05,-9e-05,0.00035,9e-05,3e-05,4,28
13898,-1e-05,6e-05,-3e-05,-8e-05,-9e-05,0.00035,9e-05,3e-05,4,28
13899,-1e-05,6e-05,-3e-05,-8e-05,-9e-05,0.00035,9e-05,3e-05,4,28
13900,-3e-05,-1e-05,-4e-05,-0.00014,-9e-05,-1e-05,-5e-05,-0.00015,4,28
13901,-8e-05,-9e-05,-0.00011,-6e-05,0.00024,-0.0003,-8e-05,-3e-05,4,28
13902,-8e-05,-9e-05,-0.00011,-6e-05,0.00024,-0.0003,-8e-05,-3e-05,4,28
13903,-8e-05,-9e-05,-0.00011,-6e-05,0.00024,-0.0003,-8e-05,-3e-05,4,28
13904,-8e-05,-9e-05,-0.00011,-6e-05,0.00024,-0.0003,-8e-05,-3e-05,4,28
13905,-8e-05,-9e-05,-0.00011,-6e-05,0.00024,-0.0003,-8e-05,-3e-05,4,28
13906,-8e-05,-9e-05,-0.00011,-6e-05,0.00024,-0.0003,-8e-05,-3e-05,4,28
13907,-8e-05,-9e-05,-0.00011,-6e-05,0.00024,-0.0003,-8e-05,-3e-05,4,28
13908,-8e-05,-9e-05,-0.00011,-6e-05,0.00024,-0.0003,-8e-05,-3e-05,4,28
13909,-8e-05,-9e-05,-0.00011,-6e-05,0.00024,-0.0003,-8e-05,-3e-05,4,28
13910,-8e-05,-9e-05,-0.00011,-6e-05,0.00024,-0.0003,-8e-05,-3e-05,4,28
13911,-8e-05,-9e-05,-0.00011,-6e-05,0.00024,-0.0003,-8e-05,-3e-05,4,28
13913,-8e-05,-9e-05,-0.00011,-6e-05,0.00024,-0.0003,-8e-05,-3e-05,4,28
13914,-8e-05,-9e-05,-0.00011,-6e-05,0.00024,-0.0003,-8e-05,-3e-05,4,28
13915,-8e-05,-9e-05,-0.00011,-6e-05,0.00024,-0.0003,-8e-05,-3e-05,4,28
13916,-8e-05,-9e-05,-0.00011,-6e-05,0.00024,-0.0003,-8e-05,-3e-05,4,28
13917,-8e-05,-9e-05,-0.00011,-6e-05,0.00024,-0.0003,-8e-05,-3e-05,4,28
13918,-8e-05,-9e-05,-0.00011,-6e-05,0.00024,-0.0003,-8e-05,-3e-05,4,28
13919,-8e-05,-9e-05,-0.00011,-6e-05,0.00024,-0.0003,-8e-05,-3e-05,4,28
13920,-8e-05,-9e-05,-0.00011,-6e-05,0.00024,-0.0003,-8e-05,-3e-05,4,28
13921,-8e-05,-9e-05,-0.00011,-6e-05,0.00024,-0.0003,-8e-05,-3e-05,4,28
13922,-8e-05,-9e-05,-0.00011,-6e-05,0.00024,-0.0003,-8e-05,-3e-05,4,28
13923,-8e-05,-9e-05,-0.00011,-6e-05,0.00024,-0.0003,-8e-05,-3e-05,4,28
13924,-8e-05,-9e-05,-0.00011,-6e-05,0.00024,-0.0003,-8e-05,-3e-05,4,28
13925,-8e-05,-9e-05,-0.00011,-6e-05,0.00024,-0.0003,-8e-05,-3e-05,4,28
13926,-8e-05,-9e-05,-0.00011,-6e-05,0.00024,-0.0003,-8e-05,-3e-05,4,28
13927,-8e-05,-9e-05,-0.00011,-6e-05,0.00024,-0.0003,-8e-05,-3e-05,4,28
13928,-8e-05,-9e-05,-0.00011,-6e-05,0.00024,-0.0003,-8e-05,-3e-05,4,28
13929,-8e-05,-9e-05,-0.00011,-6e-05,0.00024,-0.0003,-8e-05,-3e-05,4,28
13930,-8e-05,-9e-05,-0.00011,-6e-05,0.00024,-0.0003,-8e-05,-3e-05,4,28
13931,2e-05,2e-05,0.00016,3e-05,0.00045,0.00043,7e-05,4e-05,4,28
13932,-1e-05,-7e-05,-0.00011,-0.00013,-0.00047,9e-05,-2e-05,-4e-05,4,28
13933,-1e-05,-7e-05,-0.00011,-0.00013,-0.00047,9e-05,-2e-05,-4e-05,4,28
13934,-1e-05,-7e-05,-0.00011,-0.00013,-0.00047,9e-05,-2e-05,-4e-05,4,28
13935,-1e-05,-7e-05,-0.00011,-0.00013,-0.00047,9e-05,-2e-05,-4e-05,4,28
13936,-1e-05,-7e-05,-0.00011,-0.00013,-0.00047,9e-05,-2e-05,-4e-05,4,28
13938,-1e-05,-7e-05,-0.00011,-0.00013,-0.00047,9e-05,-2e-05,-4e-05,4,28
13939,-1e-05,-7e-05,-0.00011,-0.00013,-0.00047,9e-05,-2e-05,-4e-05,4,28
13940,-1e-05,-7e-05,-0.00011,-0.00013,-0.00047,9e-05,-2e-05,-4e-05,4,28
13941,-1e-05,-7e-05,-0.00011,-0.00013,-0.00047,9e-05,-2e-05,-4e-05,4,28
13942,-1e-05,-7e-05,-0.00011,-0.00013,-0.00047,9e-05,-2e-05,-4e-05,4,28
13943,-1e-05,-7e-05,-0.00011,-0.00013,-0.00047,9e-05,-2e-05,-4e-05,4,28
13944,-1e-05,-7e-05,-0.00011,-0.00013,-0.00047,9e-05,-2e-05,-4e-05,4,28
13945,-1e-05,-7e-05,-0.00011,-0.00013,-0.00047,9e-05,-2e-05,-4e-05,4,28
13946,-2e-05,0,6e-05,0.00022,0.0005,0.00027,0,-0.00019,4,28
13947,4e-05,1e-05,5e-05,0.00016,0.00048,-0.00029,2e-05,0.00017,4,28
13948,4e-05,1e-05,5e-05,0.00016,0.00048,-0.00029,2e-05,0.00017,4,28
13949,4e-05,1e-05,5e-05,0.00016,0.00048,-0.00029,2e-05,0.00017,4,28
13950,4e-05,1e-05,5e-05,0.00016,0.00048,-0.00029,2e-05,0.00017,4,28
13951,4e-05,1e-05,5e-05,0.00016,0.00048,-0.00029,2e-05,0.00017,4,28
13952,4e-05,1e-05,5e-05,0.00016,0.00048,-0.00029,2e-05,0.00017,4,28
13953,4e-05,1e-05,5e-05,0.00016,0.00048,-0.00029,2e-05,0.00017,4,28
13954,4e-05,1e-05,5e-05,0.00016,0.00048,-0.00029,2e-05,0.00017,4,28
13955,4e-05,1e-05,5e-05,0.00016,0.00048,-0.00029,2e-05,0.00017,4,28
13956,4e-05,1e-05,5e-05,0.00016,0.00048,-0.00029,2e-05,0.00017,4,28
13957,4e-05,1e-05,5e-05,0.00016,0.00048,-0.00029,2e-05,0.00017,4,28
13958,4e-05,1e-05,5e-05,0.00016,0.00048,-0.00029,2e-05,0.00017,4,28
13959,4e-05,1e-05,5e-05,0.00016,0.00048,-0.00029,2e-05,0.00017,4,28
13960,4e-05,1e-05,5e-05,0.00016,0.00048,-0.00029,2e-05,0.00017,4,28
13961,-5e-05,9e-05,-0.00011,-6e-05,-4e-05,-0.00021,-0.0001,5e-05,4,28
13962,-5e-05,9e-05,-0.00011,-6e-05,-4e-05,-0.00021,-0.0001,5e-05,4,28
13963,-5e-05,9e-05,-0.00011,-6e-05,-4e-05,-0.00021,-0.0001,5e-05,4,28
13964,-5e-05,9e-05,-0.00011,-6e-05,-4e-05,-0.00021,-0.0001,5e-05,4,28
13965,-5e-05,9e-05,-0.00011,-6e-05,-4e-05,-0.00021,-0.0001,5e-05,4,28
13966,-5e-05,9e-05,-0.00011,-6e-05,-4e-05,-0.00021,-0.0001,5e-05,4,28
13967,-5e-05,9e-05,-0.00011,-6e-05,-4e-05,-0.00021,-0.0001,5e-05,4,28
13968,-7e-05,3e-05,2e-05,-4e-05,2e-05,5e-05,1e-05,-0.00011,4,28
13969,-7e-05,3e-05,2e-05,-4e-05,2e-05,5e-05,1e-05,-0.00011,4,28
13970,-7e-05,3e-05,2e-05,-4e-05,2e-05,5e-05,1e-05,-0.00011,4,28
13971,-7e-05,3e-05,2e-05,-4e-05,2e-05,5e-05,1e-05,-0.00011,4,28
13972,-7e-05,3e-05,2e-05,-4e-05,2e-05,5e-05,1e-05,-0.00011,4,28
13973,-7e-05,3e-05,2e-05,-4e-05,2e-05,5e-05,1e-05,-0.00011,4,28
13974,-7e-05,3e-05,2e-05,-4e-05,2e-05,5e-05,1e-05,-0.00011,4,28
13975,-7e-05,3e-05,2e-05,-4e-05,2e-05,5e-05,1e-05,-0.00011,4,28
13976,-7e-05,3e-05,2e-05,-4e-05,2e-05,5e-05,1e-05,-0.00011,4,28
13977,-7e-05,3e-05,2e-05,-4e-05,2e-05,5e-05,1e-05,-0.00011,4,28
13978,-7e-05,3e-05,2e-05,-4e-05,2e-05,5e-05,1e-05,-0.00011,4,28
13979,-7e-05,3e-05,2e-05,-4e-05,2e-05,5e-05,1e-05,-0.00011,4,28
13980,-7e-05,3e-05,2e-05,-4e-05,2e-05,5e-05,1e-05,-0.00011,4,28
13981,-7e-05,3e-05,2e-05,-4e-05,2e-05,5e-05,1e-05,-0.00011,4,28
13982,-7e-05,3e-05,2e-05,-4e-05,2e-05,5e-05,1e-05,-0.00011,4,28
13983,-7e-05,3e-05,2e-05,-4e-05,2e-05,5e-05,1e-05,-0.00011,4,28
13984,3e-05,-1e-05,0.00016,-8e-05,-0.00031,-0.00013,-1e-05,0,4,28
13985,3e-05,-1e-05,0.00016,-8e-05,-0.00031,-0.00013,-1e-05,0,4,28
13986,3e-05,-1e-05,0.00016,-8e-05,-0.00031,-0.00013,-1e-05,0,4,28
13988,3e-05,-1e-05,0.00016,-8e-05,-0.00031,-0.00013,-1e-05,0,4,28
13989,3e-05,-1e-05,0.00016,-8e-05,-0.00031,-0.00013,-1e-05,0,4,28
13990,3e-05,-1e-05,0.00016,-8e-05,-0.00031,-0.00013,-1e-05,0,4,28
13991,3e-05,-1e-05,0.00016,-8e-05,-0.00031,-0.00013,-1e-05,0,4,28
13992,3e-05,-1e-05,0.00016,-8e-05,-0.00031,-0.00013,-1e-05,0,4,28
13993,3e-05,-1e-05,0.00016,-8e-05,-0.00031,-0.00013,-1e-05,0,4,28
13994,3e-05,-1e-05,0.00016,-8e-05,-0.00031,-0.00013,-1e-05,0,4,28
13995,3e-05,-1e-05,0.00016,-8e-05,-0.00031,-0.00013,-1e-05,0,4,28
13996,3e-05,-1e-05,0.00016,-8e-05,-0.00031,-0.00013,-1e-05,0,4,28
13997,3e-05,-1e-05,0.00016,-8e-05,-0.00031,-0.00013,-1e-05,0,4,28
13998,3e-05,-1e-05,0.00016,-8e-05,-0.00031,-0.00013,-1e-05,0,4,28
13999,3e-05,-1e-05,0.00016,-8e-05,-0.00031,-0.00013,-1e-05,0,4,28
14000,3e-05,-1e-05,0.00016,-8e-05,-0.00031,-0.00013,-1e-05,0,4,28
14001,3e-05,-1e-05,0.00016,-8e-05,-0.00031,-0.00013,-1e-05,0,4,28
14002,3e-05,-1e-05,0.00016,-8e-05,-0.00031,-0.00013,-1e-05,0,4,28
14003,3e-05,-1e-05,0.00016,-8e-05,-0.00031,-0.00013,-1e-05,0,4,28
14004,3e-05,-1e-05,0.00016,-8e-05,-0.00031,-0.00013,-1e-05,0,4,28
14005,3e-05,-1e-05,0.00016,-8e-05,-0.00031,-0.00013,-1e-05,0,4,28
14006,3e-05,-1e-05,0.00016,-8e-05,-0.00031,-0.00013,-1e-05,0,4,28
14007,2e-05,3e-05,4e-05,0.00013,9e-05,0.00051,0.0001,1e-05,4,28
14008,-3e-05,-4e-05,4e-05,-0.00019,-0.00099,-0.00042,-0.0001,-2e-05,4,28
14009,-3e-05,-4e-05,4e-05,-0.00019,-0.00099,-0.00042,-0.0001,-2e-05,4,28
14010,-3e-05,-4e-05,4e-05,-0.00019,-0.00099,-0.00042,-0.0001,-2e-05,4,28
14011,-3e-05,-4e-05,4e-05,-0.00019,-0.00099,-0.00042,-0.0001,-2e-05,4,28
14012,-3e-05,-4e-05,4e-05,-0.00019,-0.00099,-0.00042,-0.0001,-2e-05,4,28
14013,-3e-05,-4e-05,4e-05,-0.00019,-0.00099,-0.00042,-0.0001,-2e-05,4,28
14014,-3e-05,-4e-05,4e-05,-0.00019,-0.00099,-0.00042,-0.0001,-2e-05,4,28
14015,-3e-05,-4e-05,4e-05,-0.00019,-0.00099,-0.00042,-0.0001,-2e-05,4,28
14016,-3e-05,-4e-05,4e-05,-0.00019,-0.00099,-0.00042,-0.0001,-2e-05,4,28
14017,-3e-05,-4e-05,4e-05,-0.00019,-0.00099,-0.00042,-0.0001,-2e-05,4,28
14018,-3e-05,-4e-05,4e-05,-0.00019,-0.00099,-0.00042,-0.0001,-2e-05,4,28
14019,-3e-05,-4e-05,4e-05,-0.00019,-0.00099,-0.00042,-0.0001,-2e-05,4,28
14020,0,-0.00011,-0.00025,-0.00013,-0.0004,-0.00032,-8e-05,-3e-05,4,28
14021,0,-0.00011,-0.00025,-0.00013,-0.0004,-0.00032,-8e-05,-3e-05,4,28
14022,0,-0.00011,-0.00025,-0.00013,-0.0004,-0.00032,-8e-05,-3e-05,4,28
14023,0,-0.00011,-0.00025,-0.00013,-0.0004,-0.00032,-8e-05,-3e-05,4,28
14024,0,-0.00011,-0.00025,-0.00013,-0.0004,-0.00032,-8e-05,-3e-05,4,28
14025,0,-0.00011,-0.00025,-0.00013,-0.0004,-0.00032,-8e-05,-3e-05,4,28
14026,0,-0.00011,-0.00025,-0.00013,-0.0004,-0.00032,-8e-05,-3e-05,4,28
14027,0,-0.00011,-0.00025,-0.00013,-0.0004,-0.00032,-8e-05,-3e-05,4,28
14028,0,-0.00011,-0.00025,-0.00013,-0.0004,-0.00032,-8e-05,-3e-05,4,28
14029,0,-1e-05,-7e-05,-4e-05,-0.00019,-9e-05,0,-3e-05,4,28
14030,0,-1e-05,-7e-05,-4e-05,-0.00019,-9e-05,0,-3e-05,4,28
14031,0,-1e-05,-7e-05,-4e-05,-0.00019,-9e-05,0,-3e-05,4,28
14032,0,-1e-05,-7e-05,-4e-05,-0.00019,-9e-05,0,-3e-05,4,28
14033,0,-1e-05,-7e-05,-4e-05,-0.00019,-9e-05,0,-3e-05,4,28
14034,0,-1e-05,-7e-05,-4e-05,-0.00019,-9e-05,0,-3e-05,4,28
14035,0,-1e-05,-7e-05,-4e-05,-0.00019,-9e-05,0,-3e-05,4,28
14036,0,-1e-05,-7e-05,-4e-05,-0.00019,-9e-05,0,-3e-05,4,28
14038,0,-1e-05,-7e-05,-4e-05,-0.00019,-9e-05,0,-3e-05,4,28
14039,0,-1e-05,-7e-05,-4e-05,-0.00019,-9e-05,0,-3e-05,4,28
14040,0,-1e-05,-7e-05,-4e-05,-0.00019,-9e-05,0,-3e-05,4,28
14042,0,-1e-05,-7e-05,-4e-05,-0.00019,-9e-05,0,-3e-05,4,28
14043,4e-05,1e-05,0.00015,-1e-05,-7e-05,-0.00011,-3e-05,-5e-05,4,28
14044,-2e-05,0,-8e-05,-0.00026,-0.00076,-0.00015,-6e-05,1e-05,4,28
14045,0,-5e-05,-3e-05,2e-05,0.00024,-3e-05,-5e-05,-6e-05,4,28
14046,0,-5e-05,-3e-05,2e-05,0.00024,-3e-05,-5e-05,-6e-05,4,28
14047,0,-5e-05,-3e-05,2e-05,0.00024,-3e-05,-5e-05,-6e-05,4,28
14048,0,-5e-05,-3e-05,2e-05,0.00024,-3e-05,-5e-05,-6e-05,4,28
14049,0,-5e-05,-3e-05,2e-05,0.00024,-3e-05,-5e-05,-6e-05,4,28
14050,0,-5e-05,-3e-05,2e-05,0.00024,-3e-05,-5e-05,-6e-05,4,28
14051,0,-5e-05,-3e-05,2e-05,0.00024,-3e-05,-5e-05,-6e-05,4,28
14052,0,-5e-05,-3e-05,2e-05,0.00024,-3e-05,-5e-05,-6e-05,4,28
14053,0,-5e-05,-3e-05,2e-05,0.00024,-3e-05,-5e-05,-6e-05,4,28
14054,0,-5e-05,-3e-05,2e-05,0.00024,-3e-05,-5e-05,-6e-05,4,28
14055,0,-5e-05,-3e-05,2e-05,0.00024,-3e-05,-5e-05,-6e-05,4,28
14056,0,-5e-05,-3e-05,2e-05,0.00024,-3e-05,-5e-05,-6e-05,4,28
14057,0,-5e-05,-3e-05,2e-05,0.00024,-3e-05,-5e-05,-6e-05,4,28
14058,0,-5e-05,-3e-05,2e-05,0.00024,-3e-05,-5e-05,-6e-05,4,28
14059,0,-5e-05,-3e-05,2e-05,0.00024,-3e-05,-5e-05,-6e-05,4,28
14060,0,-5e-05,-3e-05,2e-05,0.00024,-3e-05,-5e-05,-6e-05,4,28
14061,0,-5e-05,-3e-05,2e-05,0.00024,-3e-05,-5e-05,-6e-05,4,28
14062,0,-5e-05,-3e-05,2e-05,0.00024,-3e-05,-5e-05,-6e-05,4,28
14063,0,-5e-05,-3e-05,2e-05,0.00024,-3e-05,-5e-05,-6e-05,4,28
14064,0,-5e-05,-3e-05,2e-05,0.00024,-3e-05,-5e-05,-6e-05,4,28
14065,0,-5e-05,-3e-05,2e-05,0.00024,-3e-05,-5e-05,-6e-05,4,28
14066,0,-5e-05,-3e-05,2e-05,0.00024,-3e-05,-5e-05,-6e-05,4,28
14067,0,-5e-05,-3e-05,2e-05,0.00024,-3e-05,-5e-05,-6e-05,4,28
14068,0,-5e-05,-3e-05,2e-05,0.00024,-3e-05,-5e-05,-6e-05,4,28
14069,0,-5e-05,-3e-05,2e-05,0.00024,-3e-05,-5e-05,-6e-05,4,28
14070,0,-5e-05,-3e-05,2e-05,0.00024,-3e-05,-5e-05,-6e-05,4,28
14071,0,-5e-05,-3e-05,2e-05,0.00024,-3e-05,-5e-05,-6e-05,4,28
14072,0,-5e-05,-3e-05,2e-05,0.00024,-3e-05,-5e-05,-6e-05,4,28
14073,0,-5e-05,-3e-05,2e-05,0.00024,-3e-05,-5e-05,-6e-05,4,28
14074,1e-05,5e-05,0.00012,5e-05,7e-05,0.00032,0.00011,3e-05,4,28
14076,-6e-05,-0.00011,-0.00011,-0.0002,0.00012,5e-05,-0.0001,-9e-05,4,28
14077,-6e-05,-0.00011,-0.00011,-0.0002,0.00012,5e-05,-0.0001,-9e-05,4,28
14078,-6e-05,-0.00011,-0.00011,-0.0002,0.00012,5e-05,-0.0001,-9e-05,4,28
14079,-6e-05,-0.00011,-0.00011,-0.0002,0.00012,5e-05,-0.0001,-9e-05,4,28
14080,-3e-05,0,-0.00014,-5e-05,0.00035,0.00012,4e-05,-4e-05,4,28
14081,-3e-05,0,-0.00014,-5e-05,0.00035,0.00012,4e-05,-4e-05,4,28
14082,-3e-05,0,-0.00014,-5e-05,0.00035,0.00012,4e-05,-4e-05,4,28
14083,-3e-05,0,-0.00014,-5e-05,0.00035,0.00012,4e-05,-4e-05,4,28
14084,-3e-05,0,-0.00014,-5e-05,0.00035,0.00012,4e-05,-4e-05,4,28
14085,-3e-05,0,-0.00014,-5e-05,0.00035,0.00012,4e-05,-4e-05,4,28
14086,-3e-05,0,-0.00014,-5e-05,0.00035,0.00012,4e-05,-4e-05,4,28
14089,5e-05,-0.00016,-0.0001,-9e-05,-0.00015,-8e-05,-1e-05,3e-05,4,28
14090,5e-05,-0.00016,-0.0001,-9e-05,-0.00015,-8e-05,-1e-05,3e-05,4,28
14091,5e-05,-0.00016,-0.0001,-9e-05,-0.00015,-8e-05,-1e-05,3e-05,4,28
14092,5e-05,-0.00016,-0.0001,-9e-05,-0.00015,-8e-05,-1e-05,3e-05,4,28
14093,5e-05,-0.00016,-0.0001,-9e-05,-0.00015,-8e-05,-1e-05,3e-05,4,28
14094,5e-05,-0.00016,-0.0001,-9e-05,-0.00015,-8e-05,-1e-05,3e-05,4,28
14095,5e-05,-0.00016,-0.0001,-9e-05,-0.00015,-8e-05,-1e-05,3e-05,4,28
14096,5e-05,-0.00016,-0.0001,-9e-05,-0.00015,-8e-05,-1e-05,3e-05,4,28
14097,5e-05,-0.00016,-0.0001,-9e-05,-0.00015,-8e-05,-1e-05,3e-05,4,28
14098,5e-05,-0.00016,-0.0001,-9e-05,-0.00015,-8e-05,-1e-05,3e-05,4,28
14099,5e-05,-0.00016,-0.0001,-9e-05,-0.00015,-8e-05,-1e-05,3e-05,4,28
14100,5e-05,-0.00016,-0.0001,-9e-05,-0.00015,-8e-05,-1e-05,3e-05,4,28
14101,5e-05,-0.00016,-0.0001,-9e-05,-0.00015,-8e-05,-1e-05,3e-05,4,28
14102,5e-05,-0.00016,-0.0001,-9e-05,-0.00015,-8e-05,-1e-05,3e-05,4,28
14103,5e-05,-0.00016,-0.0001,-9e-05,-0.00015,-8e-05,-1e-05,3e-05,4,28
14104,2e-05,-2e-05,7e-05,0.00011,0.00012,4e-05,0,-1e-05,4,28
14105,2e-05,-2e-05,7e-05,0.00011,0.00012,4e-05,0,-1e-05,4,28
14106,2e-05,0.00018,0.00011,4e-05,-0.00057,1e-05,5e-05,1e-05,4,28
14107,2e-05,0.00018,0.00011,4e-05,-0.00057,1e-05,5e-05,1e-05,4,28
14108,2e-05,0.00018,0.00011,4e-05,-0.00057,1e-05,5e-05,1e-05,4,28
14109,2e-05,0.00018,0.00011,4e-05,-0.00057,1e-05,5e-05,1e-05,4,28
14110,2e-05,0.00018,0.00011,4e-05,-0.00057,1e-05,5e-05,1e-05,4,28
14111,2e-05,0.00018,0.00011,4e-05,-0.00057,1e-05,5e-05,1e-05,4,28
14112,2e-05,0.00018,0.00011,4e-05,-0.00057,1e-05,5e-05,1e-05,4,28
14113,2e-05,0.00018,0.00011,4e-05,-0.00057,1e-05,5e-05,1e-05,4,28
14114,2e-05,0.00018,0.00011,4e-05,-0.00057,1e-05,5e-05,1e-05,4,28
14115,2e-05,0.00018,0.00011,4e-05,-0.00057,1e-05,5e-05,1e-05,4,28
14116,2e-05,0.00018,0.00011,4e-05,-0.00057,1e-05,5e-05,1e-05,4,28
14117,2e-05,0.00018,0.00011,4e-05,-0.00057,1e-05,5e-05,1e-05,4,28
14118,2e-05,0.00018,0.00011,4e-05,-0.00057,1e-05,5e-05,1e-05,4,28
14119,2e-05,0.00018,0.00011,4e-05,-0.00057,1e-05,5e-05,1e-05,4,28
14120,2e-05,0.00018,0.00011,4e-05,-0.00057,1e-05,5e-05,1e-05,4,28
14121,2e-05,0.00018,0.00011,4e-05,-0.00057,1e-05,5e-05,1e-05,4,28
14122,2e-05,0.00018,0.00011,4e-05,-0.00057,1e-05,5e-05,1e-05,4,28
14123,2e-05,0.00018,0.00011,4e-05,-0.00057,1e-05,5e-05,1e-05,4,28
14124,2e-05,0.00018,0.00011,4e-05,-0.00057,1e-05,5e-05,1e-05,4,28
14125,2e-05,0.00018,0.00011,4e-05,-0.00057,1e-05,5e-05,1e-05,4,28
14126,2e-05,0.00018,0.00011,4e-05,-0.00057,1e-05,5e-05,1e-05,4,28
14127,2e-05,0.00018,0.00011,4e-05,-0.00057,1e-05,5e-05,1e-05,4,28
14128,2e-05,0.00018,0.00011,4e-05,-0.00057,1e-05,5e-05,1e-05,4,28
14129,2e-05,0.00018,0.00011,4e-05,-0.00057,1e-05,5e-05,1e-05,4,28
14130,2e-05,0.00018,0.00011,4e-05,-0.00057,1e-05,5e-05,1e-05,4,28
14131,2e-05,0.00018,0.00011,4e-05,-0.00057,1e-05,5e-05,1e-05,4,28
14132,2e-05,0.00018,0.00011,4e-05,-0.00057,1e-05,5e-05,1e-05,4,28
14133,-2e-05,-7e-05,0,1e-05,0.00026,-0.00023,-3e-05,3e-05,4,28
14134,-2e-05,-7e-05,-1e-05,0.00016,0.00021,2e-05,7e-05,3e-05,4,28
14135,1e-05,5e-05,5e-05,0.00012,9e-05,-0.00014,1e-05,-1e-05,4,28
14136,1e-05,5e-05,5e-05,0.00012,9e-05,-0.00014,1e-05,-1e-05,4,28
14138,1e-05,5e-05,5e-05,0.00012,9e-05,-0.00014,1e-05,-1e-05,4,28
14139,1e-05,5e-05,5e-05,0.00012,9e-05,-0.00014,1e-05,-1e-05,4,28
14140,-8e-05,-8e-05,-0.00011,-0.00014,-0.00048,-0.00012,-0.00014,-8e-05,4,28
14141,7e-05,0.00013,4e-05,0.0001,0.0001,-0.0001,3e-05,6e-05,4,28
14142,7e-05,0.00013,4e-05,0.0001,0.0001,-0.0001,3e-05,6e-05,4,28
14143,7e-05,0.00013,4e-05,0.0001,0.0001,-0.0001,3e-05,6e-05,4,28
14144,7e-05,0.00013,4e-05,0.0001,0.0001,-0.0001,3e-05,6e-05,4,28
14145,7e-05,0.00013,4e-05,0.0001,0.0001,-0.0001,3e-05,6e-05,4,28
14146,7e-05,0.00013,4e-05,0.0001,0.0001,-0.0001,3e-05,6e-05,4,28
14147,7e-05,0.00013,4e-05,0.0001,0.0001,-0.0001,3e-05,6e-05,4,28
14148,7e-05,0.00013,4e-05,0.0001,0.0001,-0.0001,3e-05,6e-05,4,28
14149,7e-05,0.00013,4e-05,0.0001,0.0001,-0.0001,3e-05,6e-05,4,28
14150,7e-05,0.00013,4e-05,0.0001,0.0001,-0.0001,3e-05,6e-05,4,28
14151,7e-05,0.00013,4e-05,0.0001,0.0001,-0.0001,3e-05,6e-05,4,28
14152,7e-05,0.00013,4e-05,0.0001,0.0001,-0.0001,3e-05,6e-05,4,28
14153,7e-05,0.00013,4e-05,0.0001,0.0001,-0.0001,3e-05,6e-05,4,28
14154,7e-05,0.00013,4e-05,0.0001,0.0001,-0.0001,3e-05,6e-05,4,28
14155,-3e-05,-4e-05,-0.00015,0.00019,0.00081,0.0002,-2e-05,0,4,28
14156,-3e-05,-4e-05,-0.00015,0.00019,0.00081,0.0002,-2e-05,0,4,28
14157,-3e-05,-4e-05,-0.00015,0.00019,0.00081,0.0002,-2e-05,0,4,28
14158,-3e-05,-4e-05,-0.00015,0.00019,0.00081,0.0002,-2e-05,0,4,28
14160,-3e-05,-4e-05,-0.00015,0.00019,0.00081,0.0002,-2e-05,0,4,28
14161,-3e-05,-4e-05,-0.00015,0.00019,0.00081,0.0002,-2e-05,0,4,28
14162,-3e-05,-4e-05,-0.00015,0.00019,0.00081,0.0002,-2e-05,0,4,28
14163,-3e-05,-4e-05,-0.00015,0.00019,0.00081,0.0002,-2e-05,0,4,28
14164,-7e-05,-0.00012,-0.0002,-0.00027,-0.00059,-0.00073,-0.00017,-9e-05,4,28
14165,3e-05,-0.00014,-4e-05,-6e-05,-0.00022,0.00015,1e-05,8e-05,4,28
14166,3e-05,-0.00014,-4e-05,-6e-05,-0.00022,0.00015,1e-05,8e-05,4,28
14167,3e-05,-0.00014,-4e-05,-6e-05,-0.00022,0.00015,1e-05,8e-05,4,28
14168,3e-05,-0.00014,-4e-05,-6e-05,-0.00022,0.00015,1e-05,8e-05,4,28
14169,3e-05,-0.00014,-4e-05,-6e-05,-0.00022,0.00015,1e-05,8e-05,4,28
14170,3e-05,-0.00014,-4e-05,-6e-05,-0.00022,0.00015,1e-05,8e-05,4,28
14171,3e-05,-0.00014,-4e-05,-6e-05,-0.00022,0.00015,1e-05,8e-05,4,28
14172,3e-05,-0.00014,-4e-05,-6e-05,-0.00022,0.00015,1e-05,8e-05,4,28
14173,3e-05,-0.00014,-4e-05,-6e-05,-0.00022,0.00015,1e-05,8e-05,4,28
14174,3e-05,-0.00014,-4e-05,-6e-05,-0.00022,0.00015,1e-05,8e-05,4,28
14175,3e-05,-0.00014,-4e-05,-6e-05,-0.00022,0.00015,1e-05,8e-05,4,28
14176,3e-05,-0.00014,-4e-05,-6e-05,-0.00022,0.00015,1e-05,8e-05,4,28
14177,3e-05,-0.00014,-4e-05,-6e-05,-0.00022,0.00015,1e-05,8e-05,4,28
14178,3e-05,-0.00014,-4e-05,-6e-05,-0.00022,0.00015,1e-05,8e-05,4,28
14179,3e-05,-0.00014,-4e-05,-6e-05,-0.00022,0.00015,1e-05,8e-05,4,28
14180,3e-05,-0.00014,-4e-05,-6e-05,-0.00022,0.00015,1e-05,8e-05,4,28
14181,3e-05,-0.00014,-4e-05,-6e-05,-0.00022,0.00015,1e-05,8e-05,4,28
14182,3e-05,-0.00014,-4e-05,-6e-05,-0.00022,0.00015,1e-05,8e-05,4,28
14183,3e-05,-0.00014,-4e-05,-6e-05,-0.00022,0.00015,1e-05,8e-05,4,28
14184,3e-05,-0.00014,-4e-05,-6e-05,-0.00022,0.00015,1e-05,8e-05,4,28
14185,3e-05,-0.00014,-4e-05,-6e-05,-0.00022,0.00015,1e-05,8e-05,4,28
14186,3e-05,4e-05,0.00013,0.00018,-0.00047,-0.00046,-1e-05,-1e-05,4,28
14188,-6e-05,0,-4e-05,-0.0001,6e-05,-0.00037,-8e-05,-8e-05,4,28
14189,-6e-05,0,-4e-05,-0.0001,6e-05,-0.00037,-8e-05,-8e-05,4,28
14190,-6e-05,0,-4e-05,-0.0001,6e-05,-0.00037,-8e-05,-8e-05,4,28
14191,-6e-05,0,-4e-05,-0.0001,6e-05,-0.00037,-8e-05,-8e-05,4,28
14192,-6e-05,0,-4e-05,-0.0001,6e-05,-0.00037,-8e-05,-8e-05,4,28
14193,-6e-05,0,-4e-05,-0.0001,6e-05,-0.00037,-8e-05,-8e-05,4,28
14194,-6e-05,0,-4e-05,-0.0001,6e-05,-0.00037,-8e-05,-8e-05,4,28
14195,-6e-05,0,-4e-05,-0.0001,6e-05,-0.00037,-8e-05,-8e-05,4,28
14196,-6e-05,0,-4e-05,-0.0001,6e-05,-0.00037,-8e-05,-8e-05,4,28
14197,-6e-05,0,-4e-05,-0.0001,6e-05,-0.00037,-8e-05,-8e-05,4,28
14198,-6e-05,0,-4e-05,-0.0001,6e-05,-0.00037,-8e-05,-8e-05,4,28
14199,-6e-05,0,-4e-05,-0.0001,6e-05,-0.00037,-8e-05,-8e-05,4,28
14200,-6e-05,0,-4e-05,-0.0001,6e-05,-0.00037,-8e-05,-8e-05,4,28
14201,-6e-05,0,-4e-05,-0.0001,6e-05,-0.00037,-8e-05,-8e-05,4,28
14202,-6e-05,0,-4e-05,-0.0001,6e-05,-0.00037,-8e-05,-8e-05,4,28
14203,-6e-05,0,-4e-05,-0.0001,6e-05,-0.00037,-8e-05,-8e-05,4,28
14204,-6e-05,0,-4e-05,-0.0001,6e-05,-0.00037,-8e-05,-8e-05,4,28
14205,-6e-05,0,-4e-05,-0.0001,6e-05,-0.00037,-8e-05,-8e-05,4,28
14206,-6e-05,0,-4e-05,-0.0001,6e-05,-0.00037,-8e-05,-8e-05,4,28
14208,5e-05,2e-05,4e-05,0.00011,4e-05,0.00013,0.00012,0.00024,4,28
14209,-6e-05,-9e-05,-0.00022,-7e-05,8e-05,0.00012,-7e-05,-6e-05,4,28
14210,3e-05,3e-05,0,0.00013,0.00025,0.0006,0.00017,9e-05,4,28
14211,3e-05,3e-05,0,0.00013,0.00025,0.0006,0.00017,9e-05,4,28
14212,3e-05,3e-05,0,0.00013,0.00025,0.0006,0.00017,9e-05,4,28
14213,3e-05,3e-05,0,0.00013,0.00025,0.0006,0.00017,9e-05,4,28
14214,3e-05,3e-05,0,0.00013,0.00025,0.0006,0.00017,9e-05,4,28
14215,3e-05,3e-05,0,0.00013,0.00025,0.0006,0.00017,9e-05,4,28
14216,3e-05,3e-05,0,0.00013,0.00025,0.0006,0.00017,9e-05,4,28
14217,3e-05,3e-05,0,0.00013,0.00025,0.0006,0.00017,9e-05,4,28
14218,3e-05,3e-05,0,0.00013,0.00025,0.0006,0.00017,9e-05,4,28
14219,3e-05,3e-05,0,0.00013,0.00025,0.0006,0.00017,9e-05,4,28
14220,3e-05,3e-05,0,0.00013,0.00025,0.0006,0.00017,9e-05,4,28
14221,3e-05,3e-05,0,0.00013,0.00025,0.0006,0.00017,9e-05,4,28
14222,3e-05,3e-05,0,0.00013,0.00025,0.0006,0.00017,9e-05,4,28
14223,3e-05,0,-1e-05,-3e-05,-0.00086,-0.00034,5e-05,-1e-05,4,28
14224,1e-05,7e-05,9e-05,7e-05,0.00029,0.00044,2e-05,-3e-05,4,28
14225,-1e-05,1e-05,-2e-05,-0.00018,-0.00021,-0.00027,-7e-05,8e-05,4,28
14226,-1e-05,1e-05,-2e-05,-0.00018,-0.00021,-0.00027,-7e-05,8e-05,4,28
14227,-1e-05,1e-05,-2e-05,-0.00018,-0.00021,-0.00027,-7e-05,8e-05,4,28
14228,-1e-05,1e-05,-2e-05,-0.00018,-0.00021,-0.00027,-7e-05,8e-05,4,28
14229,-1e-05,1e-05,-2e-05,-0.00018,-0.00021,-0.00027,-7e-05,8e-05,4,28
14230,-1e-05,1e-05,-2e-05,-0.00018,-0.00021,-0.00027,-7e-05,8e-05,4,28
14231,-1e-05,1e-05,-2e-05,-0.00018,-0.00021,-0.00027,-7e-05,8e-05,4,28
14232,-1e-05,1e-05,-2e-05,-0.00018,-0.00021,-0.00027,-7e-05,8e-05,4,28
14233,-1e-05,1e-05,-2e-05,-0.00018,-0.00021,-0.00027,-7e-05,8e-05,4,28
14234,-1e-05,1e-05,-2e-05,-0.00018,-0.00021,-0.00027,-7e-05,8e-05,4,28
14235,-1e-05,1e-05,-2e-05,-0.00018,-0.00021,-0.00027,-7e-05,8e-05,4,28
14236,-1e-05,1e-05,-2e-05,-0.00018,-0.00021,-0.00027,-7e-05,8e-05,4,28
14238,-1e-05,1e-05,-2e-05,-0.00018,-0.00021,-0.00027,-7e-05,8e-05,4,28
14239,-1e-05,1e-05,-2e-05,-0.00018,-0.00021,-0.00027,-7e-05,8e-05,4,28
14240,-1e-05,1e-05,-2e-05,-0.00018,-0.00021,-0.00027,-7e-05,8e-05,4,28
14241,-1e-05,1e-05,-2e-05,-0.00018,-0.00021,-0.00027,-7e-05,8e-05,4,28
14242,-1e-05,1e-05,-2e-05,-0.00018,-0.00021,-0.00027,-7e-05,8e-05,4,28
14243,-1e-05,1e-05,-2e-05,-0.00018,-0.00021,-0.00027,-7e-05,8e-05,4,28
14244,-1e-05,1e-05,-2e-05,-0.00018,-0.00021,-0.00027,-7e-05,8e-05,4,28
14245,-1e-05,1e-05,-2e-05,-0.00018,-0.00021,-0.00027,-7e-05,8e-05,4,28
14246,3e-05,0.0001,0.00028,0.00016,0.00063,0.00065,0.00016,5e-05,4,28
14247,3e-05,0.0001,0.00028,0.00016,0.00063,0.00065,0.00016,5e-05,4,28
14248,-2e-05,-2e-05,-1e-05,-1e-05,-0.00011,-9e-05,4e-05,1e-05,4,28
14249,-2e-05,-2e-05,-1e-05,-1e-05,-0.00011,-9e-05,4e-05,1e-05,4,28
14250,-2e-05,-2e-05,-1e-05,-1e-05,-0.00011,-9e-05,4e-05,1e-05,4,28
14251,-2e-05,-2e-05,-1e-05,-1e-05,-0.00011,-9e-05,4e-05,1e-05,4,28
14252,-2e-05,-2e-05,-1e-05,-1e-05,-0.00011,-9e-05,4e-05,1e-05,4,28
14253,-2e-05,-2e-05,-1e-05,-1e-05,-0.00011,-9e-05,4e-05,1e-05,4,28
14254,-2e-05,-2e-05,-1e-05,-1e-05,-0.00011,-9e-05,4e-05,1e-05,4,28
14255,-2e-05,-2e-05,-1e-05,-1e-05,-0.00011,-9e-05,4e-05,1e-05,4,28
14256,-2e-05,-2e-05,-1e-05,-1e-05,-0.00011,-9e-05,4e-05,1e-05,4,28
14257,-2e-05,-2e-05,-1e-05,-1e-05,-0.00011,-9e-05,4e-05,1e-05,4,28
14259,-2e-05,-2e-05,-1e-05,-1e-05,-0.00011,-9e-05,4e-05,1e-05,4,28
14260,-1e-05,-3e-05,-0.00012,-0.0001,-0.00034,-0.0002,-3e-05,8e-05,4,28
14261,-1e-05,-3e-05,-0.00012,-0.0001,-0.00034,-0.0002,-3e-05,8e-05,4,28
14262,-1e-05,-3e-05,-0.00012,-0.0001,-0.00034,-0.0002,-3e-05,8e-05,4,28
14263,-1e-05,-3e-05,-0.00012,-0.0001,-0.00034,-0.0002,-3e-05,8e-05,4,28
14264,-1e-05,-3e-05,-0.00012,-0.0001,-0.00034,-0.0002,-3e-05,8e-05,4,28
14265,-1e-05,-3e-05,-0.00012,-0.0001,-0.00034,-0.0002,-3e-05,8e-05,4,28
14266,-1e-05,-3e-05,-0.00012,-0.0001,-0.00034,-0.0002,-3e-05,8e-05,4,28
14267,-1e-05,-3e-05,-0.00012,-0.0001,-0.00034,-0.0002,-3e-05,8e-05,4,28
14268,-1e-05,-3e-05,-0.00012,-0.0001,-0.00034,-0.0002,-3e-05,8e-05,4,28
14269,-1e-05,-3e-05,-0.00012,-0.0001,-0.00034,-0.0002,-3e-05,8e-05,4,28
14270,-1e-05,-3e-05,-0.00012,-0.0001,-0.00034,-0.0002,-3e-05,8e-05,4,28
14271,-1e-05,-3e-05,-0.00012,-0.0001,-0.00034,-0.0002,-3e-05,8e-05,4,28
14272,-1e-05,-3e-05,-0.00012,-0.0001,-0.00034,-0.0002,-3e-05,8e-05,4,28
14273,-1e-05,-3e-05,-0.00012,-0.0001,-0.00034,-0.0002,-3e-05,8e-05,4,28
14274,-1e-05,-3e-05,-0.00012,-0.0001,-0.00034,-0.0002,-3e-05,8e-05,4,28
14275,-7e-05,-0.0001,-0.00016,-0.00018,-0.00021,-0.00023,-0.00019,-0.00015,4,28
14276,-1e-05,2e-05,2e-05,9e-05,0.00043,0.00043,3e-05,-8e-05,4,28
14277,-1e-05,2e-05,2e-05,9e-05,0.00043,0.00043,3e-05,-8e-05,4,28
14278,-1e-05,2e-05,2e-05,9e-05,0.00043,0.00043,3e-05,-8e-05,4,28
14279,-1e-05,2e-05,2e-05,9e-05,0.00043,0.00043,3e-05,-8e-05,4,28
14280,-1e-05,2e-05,2e-05,9e-05,0.00043,0.00043,3e-05,-8e-05,4,28
14281,-1e-05,2e-05,2e-05,9e-05,0.00043,0.00043,3e-05,-8e-05,4,28
14282,-1e-05,2e-05,2e-05,9e-05,0.00043,0.00043,3e-05,-8e-05,4,28
14283,-1e-05,2e-05,2e-05,9e-05,0.00043,0.00043,3e-05,-8e-05,4,28
14284,1e-05,1e-05,0.00015,-5e-05,-0.00041,-8e-05,0,-8e-05,4,28
14285,1e-05,1e-05,0.00015,-5e-05,-0.00041,-8e-05,0,-8e-05,4,28
14286,1e-05,1e-05,0.00015,-5e-05,-0.00041,-8e-05,0,-8e-05,4,28
14289,1e-05,1e-05,0.00015,-5e-05,-0.00041,-8e-05,0,-8e-05,4,28
14290,1e-05,1e-05,-8e-05,-8e-05,7e-05,-0.0004,-7e-05,-2e-05,4,28
14291,1e-05,1e-05,-8e-05,-8e-05,7e-05,-0.0004,-7e-05,-2e-05,4,28
14292,1e-05,1e-05,-8e-05,-8e-05,7e-05,-0.0004,-7e-05,-2e-05,4,28
14293,1e-05,1e-05,-8e-05,-8e-05,7e-05,-0.0004,-7e-05,-2e-05,4,28
14294,1e-05,1e-05,-8e-05,-8e-05,7e-05,-0.0004,-7e-05,-2e-05,4,28
14295,1e-05,1e-05,-8e-05,-8e-05,7e-05,-0.0004,-7e-05,-2e-05,4,28
14296,1e-05,1e-05,-8e-05,-8e-05,7e-05,-0.0004,-7e-05,-2e-05,4,28
14297,1e-05,1e-05,-8e-05,-8e-05,7e-05,-0.0004,-7e-05,-2e-05,4,28
14298,1e-05,1e-05,-8e-05,-8e-05,7e-05,-0.0004,-7e-05,-2e-05,4,28
14299,1e-05,1e-05,-8e-05,-8e-05,7e-05,-0.0004,-7e-05,-2e-05,4,28
14300,1e-05,1e-05,-8e-05,-8e-05,7e-05,-0.0004,-7e-05,-2e-05,4,28
14301,1e-05,1e-05,-8e-05,-8e-05,7e-05,-0.0004,-7e-05,-2e-05,4,28
14302,1e-05,1e-05,-8e-05,-8e-05,7e-05,-0.0004,-7e-05,-2e-05,4,28
14303,1e-05,1e-05,-8e-05,-8e-05,7e-05,-0.0004,-7e-05,-2e-05,4,28
14304,1e-05,1e-05,-8e-05,-8e-05,7e-05,-0.0004,-7e-05,-2e-05,4,28
14305,1e-05,1e-05,-8e-05,-8e-05,7e-05,-0.0004,-7e-05,-2e-05,4,28
14306,-2e-05,-0.00012,-6e-05,-8e-05,-0.00043,-0.00019,-4e-05,1e-05,4,28
14307,-2e-05,-0.00012,-6e-05,-8e-05,-0.00043,-0.00019,-4e-05,1e-05,4,28
14308,3e-05,8e-05,7e-05,0.00013,-0.00042,0.00026,4e-05,-2e-05,4,28
14309,3e-05,8e-05,7e-05,0.00013,-0.00042,0.00026,4e-05,-2e-05,4,28
14310,3e-05,8e-05,7e-05,0.00013,-0.00042,0.00026,4e-05,-2e-05,4,28
14311,3e-05,8e-05,7e-05,0.00013,-0.00042,0.00026,4e-05,-2e-05,4,28
14312,3e-05,8e-05,7e-05,0.00013,-0.00042,0.00026,4e-05,-2e-05,4,28
14313,3e-05,8e-05,7e-05,0.00013,-0.00042,0.00026,4e-05,-2e-05,4,28
14314,3e-05,8e-05,7e-05,0.00013,-0.00042,0.00026,4e-05,-2e-05,4,28
14315,3e-05,8e-05,7e-05,0.00013,-0.00042,0.00026,4e-05,-2e-05,4,28
14316,3e-05,8e-05,7e-05,0.00013,-0.00042,0.00026,4e-05,-2e-05,4,28
14317,3e-05,8e-05,7e-05,0.00013,-0.00042,0.00026,4e-05,-2e-05,4,28
14318,3e-05,8e-05,7e-05,0.00013,-0.00042,0.00026,4e-05,-2e-05,4,28
14319,3e-05,8e-05,7e-05,0.00013,-0.00042,0.00026,4e-05,-2e-05,4,28
14320,-6e-05,1e-05,-1e-05,-5e-05,0.00021,-0.0002,-4e-05,-3e-05,4,28
14321,-6e-05,1e-05,-1e-05,-5e-05,0.00021,-0.0002,-4e-05,-3e-05,4,28
14322,-6e-05,1e-05,-1e-05,-5e-05,0.00021,-0.0002,-4e-05,-3e-05,4,28
14323,-6e-05,1e-05,-1e-05,-5e-05,0.00021,-0.0002,-4e-05,-3e-05,4,28
14324,-6e-05,1e-05,-1e-05,-5e-05,0.00021,-0.0002,-4e-05,-3e-05,4,28
14325,-6e-05,1e-05,-1e-05,-5e-05,0.00021,-0.0002,-4e-05,-3e-05,4,28
14326,-6e-05,1e-05,-1e-05,-5e-05,0.00021,-0.0002,-4e-05,-3e-05,4,28
14327,-6e-05,1e-05,-1e-05,-5e-05,0.00021,-0.0002,-4e-05,-3e-05,4,28
14328,-6e-05,1e-05,-1e-05,-5e-05,0.00021,-0.0002,-4e-05,-3e-05,4,28
14329,0,0,0.00043,0.00018,0.00056,-9e-05,-1e-05,-4e-05,4,28
14330,0,0,0.00043,0.00018,0.00056,-9e-05,-1e-05,-4e-05,4,28
14331,0,0,0.00043,0.00018,0.00056,-9e-05,-1e-05,-4e-05,4,28
14332,0,0,0.00043,0.00018,0.00056,-9e-05,-1e-05,-4e-05,4,28
14333,0,0,0.00043,0.00018,0.00056,-9e-05,-1e-05,-4e-05,4,28
14334,0,0,0.00043,0.00018,0.00056,-9e-05,-1e-05,-4e-05,4,28
14335,0,0,0.00043,0.00018,0.00056,-9e-05,-1e-05,-4e-05,4,28
14336,0,0,0.00043,0.00018,0.00056,-9e-05,-1e-05,-4e-05,4,28
14338,0,0,0.00043,0.00018,0.00056,-9e-05,-1e-05,-4e-05,4,28
14339,0,0,0.00043,0.00018,0.00056,-9e-05,-1e-05,-4e-05,4,28
14340,0,0,0.00043,0.00018,0.00056,-9e-05,-1e-05,-4e-05,4,28
14341,0,0,0.00043,0.00018,0.00056,-9e-05,-1e-05,-4e-05,4,28
14342,0,0,0.00043,0.00018,0.00056,-9e-05,-1e-05,-4e-05,4,28
14343,0,0,0.00043,0.00018,0.00056,-9e-05,-1e-05,-4e-05,4,28
14344,0,0,0.00043,0.00018,0.00056,-9e-05,-1e-05,-4e-05,4,28
14345,0,0,0.00043,0.00018,0.00056,-9e-05,-1e-05,-4e-05,4,28
14346,0,0,0.00043,0.00018,0.00056,-9e-05,-1e-05,-4e-05,4,28
14347,0,0,0.00043,0.00018,0.00056,-9e-05,-1e-05,-4e-05,4,28
14348,0,0,0.00043,0.00018,0.00056,-9e-05,-1e-05,-4e-05,4,28
14349,0,0,0.00043,0.00018,0.00056,-9e-05,-1e-05,-4e-05,4,28
14350,0,0,0.00043,0.00018,0.00056,-9e-05,-1e-05,-4e-05,4,28
14351,1e-05,3e-05,6e-05,0.0001,0.00023,-0.00012,-9e-05,-1e-05,4,28
14352,1e-05,3e-05,6e-05,0.0001,0.00023,-0.00012,-9e-05,-1e-05,4,28
14353,-5e-05,-6e-05,-0.00011,-0.00015,-0.00043,-0.00032,-0.00017,-5e-05,4,28
14354,-5e-05,-6e-05,-0.00011,-0.00015,-0.00043,-0.00032,-0.00017,-5e-05,4,28
14355,-5e-05,-6e-05,-0.00011,-0.00015,-0.00043,-0.00032,-0.00017,-5e-05,4,28
14356,-5e-05,-6e-05,-0.00011,-0.00015,-0.00043,-0.00032,-0.00017,-5e-05,4,28
14357,-5e-05,-6e-05,-0.00011,-0.00015,-0.00043,-0.00032,-0.00017,-5e-05,4,28
14358,-5e-05,-6e-05,-0.00011,-0.00015,-0.00043,-0.00032,-0.00017,-5e-05,4,28
14359,-5e-05,-6e-05,-0.00011,-0.00015,-0.00043,-0.00032,-0.00017,-5e-05,4,28
14360,-5e-05,-6e-05,-0.00011,-0.00015,-0.00043,-0.00032,-0.00017,-5e-05,4,28
14361,-5e-05,-6e-05,-0.00011,-0.00015,-0.00043,-0.00032,-0.00017,-5e-05,4,28
14362,-5e-05,-6e-05,-0.00011,-0.00015,-0.00043,-0.00032,-0.00017,-5e-05,4,28
14363,-5e-05,-6e-05,-0.00011,-0.00015,-0.00043,-0.00032,-0.00017,-5e-05,4,28
14364,-5e-05,-6e-05,-0.00011,-0.00015,-0.00043,-0.00032,-0.00017,-5e-05,4,28
14365,-5e-05,-6e-05,-0.00011,-0.00015,-0.00043,-0.00032,-0.00017,-5e-05,4,28
14366,-4e-05,0.00011,-0.00013,-5e-05,0.00044,0.00018,-5e-05,-4e-05,4,28
14367,-6e-05,-0.00021,0,2e-05,0.00023,0.0002,0.00014,1e-05,4,28
14368,-4e-05,6e-05,5e-05,2e-05,8e-05,8e-05,-4e-05,-6e-05,4,28
14369,-4e-05,6e-05,5e-05,2e-05,8e-05,8e-05,-4e-05,-6e-05,4,28
14370,-4e-05,6e-05,5e-05,2e-05,8e-05,8e-05,-4e-05,-6e-05,4,28
14371,-4e-05,6e-05,5e-05,2e-05,8e-05,8e-05,-4e-05,-6e-05,4,28
14372,-4e-05,6e-05,5e-05,2e-05,8e-05,8e-05,-4e-05,-6e-05,4,28
14373,-4e-05,6e-05,5e-05,2e-05,8e-05,8e-05,-4e-05,-6e-05,4,28
14374,-4e-05,6e-05,5e-05,2e-05,8e-05,8e-05,-4e-05,-6e-05,4,28
14375,-4e-05,6e-05,5e-05,2e-05,8e-05,8e-05,-4e-05,-6e-05,4,28
14376,-4e-05,6e-05,5e-05,2e-05,8e-05,8e-05,-4e-05,-6e-05,4,28
14377,-4e-05,6e-05,5e-05,2e-05,8e-05,8e-05,-4e-05,-6e-05,4,28
14378,-4e-05,6e-05,5e-05,2e-05,8e-05,8e-05,-4e-05,-6e-05,4,28
14379,-4e-05,6e-05,5e-05,2e-05,8e-05,8e-05,-4e-05,-6e-05,4,28
14380,-1e-05,-2e-05,-6e-05,-3e-05,-6e-05,5e-05,-6e-05,1e-05,4,28
14381,-1e-05,-2e-05,-6e-05,-3e-05,-6e-05,5e-05,-6e-05,1e-05,4,28
14382,-1e-05,-2e-05,-6e-05,-3e-05,-6e-05,5e-05,-6e-05,1e-05,4,28
14383,-1e-05,-2e-05,-6e-05,-3e-05,-6e-05,5e-05,-6e-05,1e-05,4,28
14384,-1e-05,-2e-05,-6e-05,-3e-05,-6e-05,5e-05,-6e-05,1e-05,4,28
14385,-1e-05,-2e-05,-6e-05,-3e-05,-6e-05,5e-05,-6e-05,1e-05,4,28
14386,-1e-05,-2e-05,-6e-05,-3e-05,-6e-05,5e-05,-6e-05,1e-05,4,28
14389,-4e-05,-1e-05,-8e-05,-7e-05,-0.00048,-0.00017,-5e-05,-0.00019,4,28
14390,-4e-05,-1e-05,-8e-05,-7e-05,-0.00048,-0.00017,-5e-05,-0.00019,4,28
14391,-4e-05,-1e-05,-8e-05,-7e-05,-0.00048,-0.00017,-5e-05,-0.00019,4,28
14392,-4e-05,-1e-05,-8e-05,-7e-05,-0.00048,-0.00017,-5e-05,-0.00019,4,28
14393,-4e-05,-1e-05,-8e-05,-7e-05,-0.00048,-0.00017,-5e-05,-0.00019,4,28
14394,-4e-05,-1e-05,-8e-05,-7e-05,-0.00048,-0.00017,-5e-05,-0.00019,4,28
14395,-4e-05,-1e-05,-8e-05,-7e-05,-0.00048,-0.00017,-5e-05,-0.00019,4,28
14396,-4e-05,-1e-05,-8e-05,-7e-05,-0.00048,-0.00017,-5e-05,-0.00019,4,28
14397,-4e-05,-1e-05,-8e-05,-7e-05,-0.00048,-0.00017,-5e-05,-0.00019,4,28
14398,-4e-05,-1e-05,-8e-05,-7e-05,-0.00048,-0.00017,-5e-05,-0.00019,4,28
14399,-4e-05,-1e-05,-8e-05,-7e-05,-0.00048,-0.00017,-5e-05,-0.00019,4,28
14400,-4e-05,-1e-05,-8e-05,-7e-05,-0.00048,-0.00017,-5e-05,-0.00019,4,28
14401,-4e-05,-1e-05,-8e-05,-7e-05,-0.00048,-0.00017,-5e-05,-0.00019,4,28
14402,-4e-05,-1e-05,-8e-05,-7e-05,-0.00048,-0.00017,-5e-05,-0.00019,4,28
14403,-4e-05,-1e-05,-8e-05,-7e-05,-0.00048,-0.00017,-5e-05,-0.00019,4,28
14404,-4e-05,-1e-05,-8e-05,-7e-05,-0.00048,-0.00017,-5e-05,-0.00019,4,28
14405,-4e-05,-1e-05,-8e-05,-7e-05,-0.00048,-0.00017,-5e-05,-0.00019,4,28
14406,-4e-05,-1e-05,-8e-05,-7e-05,-0.00048,-0.00017,-5e-05,-0.00019,4,28
14407,-4e-05,-1e-05,-8e-05,-7e-05,-0.00048,-0.00017,-5e-05,-0.00019,4,28
14408,-4e-05,-1e-05,-8e-05,-7e-05,-0.00048,-0.00017,-5e-05,-0.00019,4,28
14409,-4e-05,-1e-05,-8e-05,-7e-05,-0.00048,-0.00017,-5e-05,-0.00019,4,28
14410,-4e-05,-1e-05,-8e-05,-7e-05,-0.00048,-0.00017,-5e-05,-0.00019,4,28
14411,-4e-05,-1e-05,0.00017,-5e-05,0.00029,-0.00032,-7e-05,-9e-05,4,28
14412,-4e-05,-1e-05,0.00017,-5e-05,0.00029,-0.00032,-7e-05,-9e-05,4,28
14413,1e-05,-5e-05,-2e-05,4e-05,0.00017,-3e-05,3e-05,4e-05,4,28
14414,1e-05,-5e-05,-2e-05,4e-05,0.00017,-3e-05,3e-05,4e-05,4,28
14415,1e-05,-5e-05,-2e-05,4e-05,0.00017,-3e-05,3e-05,4e-05,4,28
14416,1e-05,-5e-05,-2e-05,4e-05,0.00017,-3e-05,3e-05,4e-05,4,28
14417,1e-05,-5e-05,-2e-05,4e-05,0.00017,-3e-05,3e-05,4e-05,4,28
14418,1e-05,-5e-05,-2e-05,4e-05,0.00017,-3e-05,3e-05,4e-05,4,28
14419,1e-05,-5e-05,-2e-05,4e-05,0.00017,-3e-05,3e-05,4e-05,4,28
14420,1e-05,-5e-05,-2e-05,4e-05,0.00017,-3e-05,3e-05,4e-05,4,28
14421,1e-05,-5e-05,-2e-05,4e-05,0.00017,-3e-05,3e-05,4e-05,4,28
14422,1e-05,-5e-05,-2e-05,4e-05,0.00017,-3e-05,3e-05,4e-05,4,28
14423,1e-05,-5e-05,-2e-05,4e-05,0.00017,-3e-05,3e-05,4e-05,4,28
14424,1e-05,-5e-05,-2e-05,4e-05,0.00017,-3e-05,3e-05,4e-05,4,28
14425,1e-05,-5e-05,-2e-05,4e-05,0.00017,-3e-05,3e-05,4e-05,4,28
14426,-4e-05,-0.00011,-0.00011,2e-05,-0.00013,-2e-05,-1e-05,-4e-05,4,28
14427,-3e-05,-5e-05,4e-05,-1e-05,0.00019,3e-05,-7e-05,-0.00011,4,28
14428,-6e-05,-1e-05,-0.00011,-0.00014,-9e-05,-0.00038,-0.00013,-5e-05,4,28
14429,-6e-05,-1e-05,-0.00011,-0.00014,-9e-05,-0.00038,-0.00013,-5e-05,4,28
14430,-6e-05,-1e-05,-0.00011,-0.00014,-9e-05,-0.00038,-0.00013,-5e-05,4,28
14431,-6e-05,-1e-05,-0.00011,-0.00014,-9e-05,-0.00038,-0.00013,-5e-05,4,28
14432,-6e-05,-1e-05,-0.00011,-0.00014,-9e-05,-0.00038,-0.00013,-5e-05,4,28
14433,-6e-05,-1e-05,-0.00011,-0.00014,-9e-05,-0.00038,-0.00013,-5e-05,4,28
14434,-6e-05,-1e-05,-0.00011,-0.00014,-9e-05,-0.00038,-0.00013,-5e-05,4,28
14435,-6e-05,-1e-05,-0.00011,-0.00014,-9e-05,-0.00038,-0.00013,-5e-05,4,28
14436,-6e-05,-1e-05,-0.00011,-0.00014,-9e-05,-0.00038,-0.00013,-5e-05,4,28
14438,-6e-05,-1e-05,-0.00011,-0.00014,-9e-05,-0.00038,-0.00013,-5e-05,4,28
14439,-6e-05,-1e-05,-0.00011,-0.00014,-9e-05,-0.00038,-0.00013,-5e-05,4,28
14440,7e-05,-0.0001,8e-05,0.00015,0.0002,0.00018,0.00018,6e-05,4,28
14441,7e-05,-0.0001,8e-05,0.00015,0.0002,0.00018,0.00018,6e-05,4,28
14442,7e-05,-0.0001,8e-05,0.00015,0.0002,0.00018,0.00018,6e-05,4,28
14443,7e-05,-0.0001,8e-05,0.00015,0.0002,0.00018,0.00018,6e-05,4,28
14444,7e-05,-0.0001,8e-05,0.00015,0.0002,0.00018,0.00018,6e-05,4,28
14445,7e-05,-0.0001,8e-05,0.00015,0.0002,0.00018,0.00018,6e-05,4,28
14446,7e-05,-0.0001,8e-05,0.00015,0.0002,0.00018,0.00018,6e-05,4,28
14447,7e-05,-0.0001,8e-05,0.00015,0.0002,0.00018,0.00018,6e-05,4,28
14448,7e-05,-0.0001,8e-05,0.00015,0.0002,0.00018,0.00018,6e-05,4,28
14449,-4e-05,-2e-05,-0.00016,-3e-05,-8e-05,3e-05,-1e-05,-1e-05,4,28
14450,-4e-05,-2e-05,-0.00016,-3e-05,-8e-05,3e-05,-1e-05,-1e-05,4,28
14451,-4e-05,-2e-05,-0.00016,-3e-05,-8e-05,3e-05,-1e-05,-1e-05,4,28
14452,-4e-05,-2e-05,-0.00016,-3e-05,-8e-05,3e-05,-1e-05,-1e-05,4,28
14453,-4e-05,-2e-05,-0.00016,-3e-05,-8e-05,3e-05,-1e-05,-1e-05,4,28
14454,-4e-05,-2e-05,-0.00016,-3e-05,-8e-05,3e-05,-1e-05,-1e-05,4,28
14455,-4e-05,-2e-05,-0.00016,-3e-05,-8e-05,3e-05,-1e-05,-1e-05,4,28
14456,-4e-05,-2e-05,-0.00016,-3e-05,-8e-05,3e-05,-1e-05,-1e-05,4,28
14457,-4e-05,-2e-05,-0.00016,-3e-05,-8e-05,3e-05,-1e-05,-1e-05,4,28
14458,-4e-05,-2e-05,-0.00016,-3e-05,-8e-05,3e-05,-1e-05,-1e-05,4,28
14459,-4e-05,-2e-05,-0.00016,-3e-05,-8e-05,3e-05,-1e-05,-1e-05,4,28
14460,-4e-05,-2e-05,-0.00016,-3e-05,-8e-05,3e-05,-1e-05,-1e-05,4,28
14461,-4e-05,-2e-05,-0.00016,-3e-05,-8e-05,3e-05,-1e-05,-1e-05,4,28
14462,-4e-05,-2e-05,-0.00016,-3e-05,-8e-05,3e-05,-1e-05,-1e-05,4,28
14463,-5e-05,-3e-05,4e-05,-0.00014,-8e-05,-0.00029,-0.00016,-7e-05,4,28
14464,2e-05,6e-05,-7e-05,-3e-05,0.0001,-3e-05,0,6e-05,4,28
14465,2e-05,6e-05,-7e-05,-3e-05,0.0001,-3e-05,0,6e-05,4,28
14466,2e-05,6e-05,-7e-05,-3e-05,0.0001,-3e-05,0,6e-05,4,28
14467,2e-05,6e-05,-7e-05,-3e-05,0.0001,-3e-05,0,6e-05,4,28
14468,2e-05,6e-05,-7e-05,-3e-05,0.0001,-3e-05,0,6e-05,4,28
14469,2e-05,6e-05,-7e-05,-3e-05,0.0001,-3e-05,0,6e-05,4,28
14470,2e-05,6e-05,-7e-05,-3e-05,0.0001,-3e-05,0,6e-05,4,28
14471,1e-05,-5e-05,-0.0001,-8e-05,0.0001,-0.00022,2e-05,0.00012,4,28
14472,1e-05,-5e-05,-0.0001,-8e-05,0.0001,-0.00022,2e-05,0.00012,4,28
14473,1e-05,-5e-05,-0.0001,-8e-05,0.0001,-0.00022,2e-05,0.00012,4,28
14474,1e-05,-5e-05,-0.0001,-8e-05,0.0001,-0.00022,2e-05,0.00012,4,28
14475,1e-05,-5e-05,-0.0001,-8e-05,0.0001,-0.00022,2e-05,0.00012,4,28
14476,1e-05,-5e-05,-0.0001,-8e-05,0.0001,-0.00022,2e-05,0.00012,4,28
14477,1e-05,-5e-05,-0.0001,-8e-05,0.0001,-0.00022,2e-05,0.00012,4,28
14478,1e-05,-5e-05,-0.0001,-8e-05,0.0001,-0.00022,2e-05,0.00012,4,28
14479,1e-05,-5e-05,-0.0001,-8e-05,0.0001,-0.00022,2e-05,0.00012,4,28
14480,1e-05,-5e-05,-0.0001,-8e-05,0.0001,-0.00022,2e-05,0.00012,4,28
14481,1e-05,-5e-05,-0.0001,-8e-05,0.0001,-0.00022,2e-05,0.00012,4,28
14482,1e-05,-5e-05,-0.0001,-8e-05,0.0001,-0.00022,2e-05,0.00012,4,28
14483,1e-05,-5e-05,-0.0001,-8e-05,0.0001,-0.00022,2e-05,0.00012,4,28
14484,1e-05,-5e-05,-0.0001,-8e-05,0.0001,-0.00022,2e-05,0.00012,4,28
14485,1e-05,-5e-05,-0.0001,-8e-05,0.0001,-0.00022,2e-05,0.00012,4,28
14486,1e-05,-5e-05,-0.0001,-8e-05,0.0001,-0.00022,2e-05,0.00012,4,28
14489,1e-05,-5e-05,-0.0001,-8e-05,0.0001,-0.00022,2e-05,0.00012,4,28
14490,1e-05,-5e-05,-0.0001,-8e-05,0.0001,-0.00022,2e-05,0.00012,4,28
14491,1e-05,-5e-05,-0.0001,-8e-05,0.0001,-0.00022,2e-05,0.00012,4,28
14492,1e-05,-5e-05,-0.0001,-8e-05,0.0001,-0.00022,2e-05,0.00012,4,28
14493,1e-05,-5e-05,-0.0001,-8e-05,0.0001,-0.00022,2e-05,0.00012,4,28
14494,1e-05,-5e-05,-0.0001,-8e-05,0.0001,-0.00022,2e-05,0.00012,4,28
14495,1e-05,-5e-05,-0.0001,-8e-05,0.0001,-0.00022,2e-05,0.00012,4,28
14496,1e-05,-5e-05,-0.0001,-8e-05,0.0001,-0.00022,2e-05,0.00012,4,28
14497,1e-05,-5e-05,-0.0001,-8e-05,0.0001,-0.00022,2e-05,0.00012,4,28
14498,1e-05,-5e-05,-0.0001,-8e-05,0.0001,-0.00022,2e-05,0.00012,4,28
14499,1e-05,-5e-05,-0.0001,-8e-05,0.0001,-0.00022,2e-05,0.00012,4,28
14500,1e-05,-5e-05,-0.0001,-8e-05,0.0001,-0.00022,2e-05,0.00012,4,28
14501,1e-05,-5e-05,-0.0001,-8e-05,0.0001,-0.00022,2e-05,0.00012,4,28
14502,5e-05,2e-05,1e-05,8e-05,0.00023,0.00044,0.00016,9e-05,4,28
14503,-1e-05,2e-05,1e-05,7e-05,-0.0001,0.00029,0,6e-05,4,28
14504,-8e-05,-8e-05,-0.00013,-6e-05,-0.00018,-0.00027,-0.00012,-1e-05,4,28
14505,-8e-05,-8e-05,-0.00013,-6e-05,-0.00018,-0.00027,-0.00012,-1e-05,4,28
14506,-8e-05,-8e-05,-0.00013,-6e-05,-0.00018,-0.00027,-0.00012,-1e-05,4,28
14507,-8e-05,-8e-05,-0.00013,-6e-05,-0.00018,-0.00027,-0.00012,-1e-05,4,28
14508,-8e-05,-8e-05,-0.00013,-6e-05,-0.00018,-0.00027,-0.00012,-1e-05,4,28
14509,-2e-05,-5e-05,-1e-05,-0.00015,0.00038,-0.00011,-9e-05,-0.0001,4,28
14510,-2e-05,-5e-05,-1e-05,-0.00015,0.00038,-0.00011,-9e-05,-0.0001,4,28
14511,-2e-05,-5e-05,-1e-05,-0.00015,0.00038,-0.00011,-9e-05,-0.0001,4,28
14512,-2e-05,-5e-05,-1e-05,-0.00015,0.00038,-0.00011,-9e-05,-0.0001,4,28
14513,-2e-05,-5e-05,-1e-05,-0.00015,0.00038,-0.00011,-9e-05,-0.0001,4,28
14514,-2e-05,-5e-05,-1e-05,-0.00015,0.00038,-0.00011,-9e-05,-0.0001,4,28
14515,-2e-05,-5e-05,-1e-05,-0.00015,0.00038,-0.00011,-9e-05,-0.0001,4,28
14516,-2e-05,-5e-05,-1e-05,-0.00015,0.00038,-0.00011,-9e-05,-0.0001,4,28
14517,-2e-05,-5e-05,-1e-05,-0.00015,0.00038,-0.00011,-9e-05,-0.0001,4,28
14518,-2e-05,-5e-05,-1e-05,-0.00015,0.00038,-0.00011,-9e-05,-0.0001,4,28
14519,-2e-05,-5e-05,-1e-05,-0.00015,0.00038,-0.00011,-9e-05,-0.0001,4,28
14520,-2e-05,-5e-05,-1e-05,-0.00015,0.00038,-0.00011,-9e-05,-0.0001,4,28
14521,-2e-05,-5e-05,-1e-05,-0.00015,0.00038,-0.00011,-9e-05,-0.0001,4,28
14522,-2e-05,-5e-05,-1e-05,-0.00015,0.00038,-0.00011,-9e-05,-0.0001,4,28
14523,-2e-05,-5e-05,-1e-05,-0.00015,0.00038,-0.00011,-9e-05,-0.0001,4,28
14524,0,-4e-05,-2e-05,-9e-05,-0.00041,-6e-05,-3e-05,-7e-05,4,28
14525,-3e-05,-0.00011,-0.00021,-6e-05,-0.00044,-0.0002,0,3e-05,4,28
14526,-3e-05,3e-05,0.00033,5e-05,-5e-05,7e-05,-2e-05,0,4,28
14527,-3e-05,3e-05,0.00033,5e-05,-5e-05,7e-05,-2e-05,0,4,28
14528,-3e-05,3e-05,0.00033,5e-05,-5e-05,7e-05,-2e-05,0,4,28
14529,-3e-05,3e-05,0.00033,5e-05,-5e-05,7e-05,-2e-05,0,4,28
14530,-3e-05,3e-05,0.00033,5e-05,-5e-05,7e-05,-2e-05,0,4,28
14531,-3e-05,3e-05,0.00033,5e-05,-5e-05,7e-05,-2e-05,0,4,28
14532,-3e-05,3e-05,0.00033,5e-05,-5e-05,7e-05,-2e-05,0,4,28
14533,-3e-05,3e-05,0.00033,5e-05,-5e-05,7e-05,-2e-05,0,4,28
14534,-3e-05,3e-05,0.00033,5e-05,-5e-05,7e-05,-2e-05,0,4,28
14535,-3e-05,3e-05,0.00033,5e-05,-5e-05,7e-05,-2e-05,0,4,28
14536,-3e-05,3e-05,0.00033,5e-05,-5e-05,7e-05,-2e-05,0,4,28
14538,-3e-05,3e-05,0.00033,5e-05,-5e-05,7e-05,-2e-05,0,4,28
14540,-3e-05,3e-05,0.00033,5e-05,-5e-05,7e-05,-2e-05,0,4,28
14541,-3e-05,3e-05,0.00033,5e-05,-5e-05,7e-05,-2e-05,0,4,28
14542,-3e-05,3e-05,0.00033,5e-05,-5e-05,7e-05,-2e-05,0,4,28
14543,-3e-05,3e-05,0.00033,5e-05,-5e-05,7e-05,-2e-05,0,4,28
14544,-3e-05,3e-05,0.00033,5e-05,-5e-05,7e-05,-2e-05,0,4,28
14545,-3e-05,3e-05,0.00033,5e-05,-5e-05,7e-05,-2e-05,0,4,28
14546,-3e-05,3e-05,0.00033,5e-05,-5e-05,7e-05,-2e-05,0,4,28
14547,-3e-05,3e-05,0.00033,5e-05,-5e-05,7e-05,-2e-05,0,4,28
14548,-3e-05,3e-05,0.00033,5e-05,-5e-05,7e-05,-2e-05,0,4,28
14549,-3e-05,3e-05,0.00033,5e-05,-5e-05,7e-05,-2e-05,0,4,28
14550,-3e-05,3e-05,0.00033,5e-05,-5e-05,7e-05,-2e-05,0,4,28
14551,-3e-05,3e-05,0.00033,5e-05,-5e-05,7e-05,-2e-05,0,4,28
14552,-3e-05,3e-05,0.00033,5e-05,-5e-05,7e-05,-2e-05,0,4,28
14553,-4e-05,-8e-05,-7e-05,-0.00012,-0.00035,-0.0003,-8e-05,-3e-05,4,28
14554,2e-05,5e-05,3e-05,0,0.00034,-0.00012,3e-05,-6e-05,4,28
14555,2e-05,4e-05,-0.0001,-6e-05,-0.00015,0.00033,9e-05,0.00019,4,28
14556,2e-05,4e-05,-0.0001,-6e-05,-0.00015,0.00033,9e-05,0.00019,4,28
14557,2e-05,4e-05,-0.0001,-6e-05,-0.00015,0.00033,9e-05,0.00019,4,28
14558,2e-05,4e-05,-0.0001,-6e-05,-0.00015,0.00033,9e-05,0.00019,4,28
14559,2e-05,4e-05,-0.0001,-6e-05,-0.00015,0.00033,9e-05,0.00019,4,28
14560,2e-05,4e-05,-0.0001,-6e-05,-0.00015,0.00033,9e-05,0.00019,4,28
14561,2e-05,4e-05,-0.0001,-6e-05,-0.00015,0.00033,9e-05,0.00019,4,28
14562,2e-05,4e-05,-0.0001,-6e-05,-0.00015,0.00033,9e-05,0.00019,4,28
14563,2e-05,4e-05,-0.0001,-6e-05,-0.00015,0.00033,9e-05,0.00019,4,28
14564,2e-05,4e-05,-0.0001,-6e-05,-0.00015,0.00033,9e-05,0.00019,4,28
14565,2e-05,4e-05,-0.0001,-6e-05,-0.00015,0.00033,9e-05,0.00019,4,28
14566,2e-05,4e-05,-0.0001,-6e-05,-0.00015,0.00033,9e-05,0.00019,4,28
14567,2e-05,4e-05,-0.0001,-6e-05,-0.00015,0.00033,9e-05,0.00019,4,28
14568,2e-05,4e-05,-0.0001,-6e-05,-0.00015,0.00033,9e-05,0.00019,4,28
14569,0,-1e-05,7e-05,4e-05,8e-05,-0.00017,-0.00011,-0.00014,4,28
14570,1e-05,5e-05,8e-05,3e-05,-0.00055,0.00034,8e-05,3e-05,4,28
14571,3e-05,1e-05,7e-05,7e-05,-1e-05,-0.00019,1e-05,0,4,28
14572,3e-05,1e-05,7e-05,7e-05,-1e-05,-0.00019,1e-05,0,4,28
14573,3e-05,1e-05,7e-05,7e-05,-1e-05,-0.00019,1e-05,0,4,28
14574,3e-05,1e-05,7e-05,7e-05,-1e-05,-0.00019,1e-05,0,4,28
14575,3e-05,1e-05,7e-05,7e-05,-1e-05,-0.00019,1e-05,0,4,28
14576,3e-05,1e-05,7e-05,7e-05,-1e-05,-0.00019,1e-05,0,4,28
14577,3e-05,1e-05,7e-05,7e-05,-1e-05,-0.00019,1e-05,0,4,28
14578,3e-05,1e-05,7e-05,7e-05,-1e-05,-0.00019,1e-05,0,4,28
14579,3e-05,1e-05,7e-05,7e-05,-1e-05,-0.00019,1e-05,0,4,28
14580,3e-05,1e-05,7e-05,7e-05,-1e-05,-0.00019,1e-05,0,4,28
14581,3e-05,1e-05,7e-05,7e-05,-1e-05,-0.00019,1e-05,0,4,28
14582,3e-05,1e-05,7e-05,7e-05,-1e-05,-0.00019,1e-05,0,4,28
14583,1e-05,-3e-05,1e-05,6e-05,-0.00036,0.00018,2e-05,9e-05,4,28
14584,-1e-05,0,-6e-05,-8e-05,-0.0005,0.0001,-5e-05,2e-05,4,28
14585,-1e-05,-5e-05,-2e-05,0.00011,-0.00012,0.00042,-3e-05,1e-05,4,28
14586,-1e-05,-5e-05,-2e-05,0.00011,-0.00012,0.00042,-3e-05,1e-05,4,28
14588,-1e-05,-5e-05,-2e-05,0.00011,-0.00012,0.00042,-3e-05,1e-05,4,28
14589,-1e-05,-5e-05,-2e-05,0.00011,-0.00012,0.00042,-3e-05,1e-05,4,28
14590,-1e-05,-5e-05,-2e-05,0.00011,-0.00012,0.00042,-3e-05,1e-05,4,28
14591,-1e-05,-5e-05,-2e-05,0.00011,-0.00012,0.00042,-3e-05,1e-05,4,28
14592,-1e-05,-5e-05,-2e-05,0.00011,-0.00012,0.00042,-3e-05,1e-05,4,28
14593,-1e-05,-5e-05,-2e-05,0.00011,-0.00012,0.00042,-3e-05,1e-05,4,28
14594,-1e-05,-5e-05,-2e-05,0.00011,-0.00012,0.00042,-3e-05,1e-05,4,28
14595,-1e-05,-5e-05,-2e-05,0.00011,-0.00012,0.00042,-3e-05,1e-05,4,28
14596,-1e-05,-5e-05,-2e-05,0.00011,-0.00012,0.00042,-3e-05,1e-05,4,28
14597,-1e-05,-5e-05,-2e-05,0.00011,-0.00012,0.00042,-3e-05,1e-05,4,28
14598,-1e-05,-5e-05,-2e-05,0.00011,-0.00012,0.00042,-3e-05,1e-05,4,28
14599,-1e-05,-5e-05,-2e-05,0.00011,-0.00012,0.00042,-3e-05,1e-05,4,28
14600,-1e-05,-5e-05,-2e-05,0.00011,-0.00012,0.00042,-3e-05,1e-05,4,28
14601,-1e-05,-5e-05,-2e-05,0.00011,-0.00012,0.00042,-3e-05,1e-05,4,28
14602,-1e-05,-5e-05,-2e-05,0.00011,-0.00012,0.00042,-3e-05,1e-05,4,28
14603,-1e-05,-5e-05,-2e-05,0.00011,-0.00012,0.00042,-3e-05,1e-05,4,28
14604,-1e-05,-5e-05,-2e-05,0.00011,-0.00012,0.00042,-3e-05,1e-05,4,28
14605,-1e-05,-5e-05,-2e-05,0.00011,-0.00012,0.00042,-3e-05,1e-05,4,28
14606,2e-05,4e-05,-0.00016,-0.0001,-0.00031,-6e-05,5e-05,6e-05,4,28
14607,2e-05,4e-05,-0.00016,-0.0001,-0.00031,-6e-05,5e-05,6e-05,4,28
14608,-2e-05,1e-05,-8e-05,0,-6e-05,0.00012,-2e-05,-0.0001,4,28
14609,-2e-05,1e-05,-8e-05,0,-6e-05,0.00012,-2e-05,-0.0001,4,28
14610,-2e-05,1e-05,-8e-05,0,-6e-05,0.00012,-2e-05,-0.0001,4,28
14611,-2e-05,1e-05,-8e-05,0,-6e-05,0.00012,-2e-05,-0.0001,4,28
14612,-2e-05,1e-05,-8e-05,0,-6e-05,0.00012,-2e-05,-0.0001,4,28
14613,-2e-05,1e-05,-8e-05,0,-6e-05,0.00012,-2e-05,-0.0001,4,28
14614,-2e-05,1e-05,-8e-05,0,-6e-05,0.00012,-2e-05,-0.0001,4,28
14615,-2e-05,1e-05,-8e-05,0,-6e-05,0.00012,-2e-05,-0.0001,4,28
14616,-2e-05,1e-05,-8e-05,0,-6e-05,0.00012,-2e-05,-0.0001,4,28
14617,-2e-05,1e-05,-8e-05,0,-6e-05,0.00012,-2e-05,-0.0001,4,28
14618,-2e-05,1e-05,-8e-05,0,-6e-05,0.00012,-2e-05,-0.0001,4,28
14619,-2e-05,1e-05,-8e-05,0,-6e-05,0.00012,-2e-05,-0.0001,4,28
14620,-2e-05,1e-05,-8e-05,0,-6e-05,0.00012,-2e-05,-0.0001,4,28
14621,-2e-05,1e-05,-8e-05,0,-6e-05,0.00012,-2e-05,-0.0001,4,28
14622,-2e-05,1e-05,-8e-05,0,-6e-05,0.00012,-2e-05,-0.0001,4,28
14623,-2e-05,1e-05,-8e-05,0,-6e-05,0.00012,-2e-05,-0.0001,4,28
14624,-2e-05,1e-05,-8e-05,0,-6e-05,0.00012,-2e-05,-0.0001,4,28
14625,-2e-05,1e-05,-8e-05,0,-6e-05,0.00012,-2e-05,-0.0001,4,28
14626,-2e-05,1e-05,-8e-05,0,-6e-05,0.00012,-2e-05,-0.0001,4,28
14627,-2e-05,1e-05,-8e-05,0,-6e-05,0.00012,-2e-05,-0.0001,4,28
14628,-2e-05,1e-05,-8e-05,0,-6e-05,0.00012,-2e-05,-0.0001,4,28
14629,-2e-05,1e-05,-8e-05,0,-6e-05,0.00012,-2e-05,-0.0001,4,28
14630,0,5e-05,6e-05,8e-05,0.00029,0.00017,1e-05,-2e-05,4,28
14631,-2e-05,-3e-05,-0.00013,-5e-05,-9e-05,2e-05,7e-05,1e-05,4,28
14632,-2e-05,-3e-05,-0.00013,-5e-05,-9e-05,2e-05,7e-05,1e-05,4,28
14633,-2e-05,-3e-05,-0.00013,-5e-05,-9e-05,2e-05,7e-05,1e-05,4,28
14634,-2e-05,-3e-05,-0.00013,-5e-05,-9e-05,2e-05,7e-05,1e-05,4,28
14635,-2e-05,-3e-05,-0.00013,-5e-05,-9e-05,2e-05,7e-05,1e-05,4,28
14636,-2e-05,-3e-05,-0.00013,-5e-05,-9e-05,2e-05,7e-05,1e-05,4,28
14638,-2e-05,-3e-05,-0.00013,-5e-05,-9e-05,2e-05,7e-05,1e-05,4,28
14640,-2e-05,-3e-05,-0.00013,-5e-05,-9e-05,2e-05,7e-05,1e-05,4,28
14641,-2e-05,-3e-05,-0.00013,-5e-05,-9e-05,2e-05,7e-05,1e-05,4,28
14642,-2e-05,-3e-05,-0.00013,-5e-05,-9e-05,2e-05,7e-05,1e-05,4,28
14643,-2e-05,2e-05,0,4e-05,-9e-05,-0.00015,-3e-05,-1e-05,4,28
14644,-2e-05,2e-05,0,4e-05,-9e-05,-0.00015,-3e-05,-1e-05,4,28
14645,1e-05,2e-05,6e-05,-1e-05,-0.00019,-0.00011,1e-05,-7e-05,4,28
14646,1e-05,2e-05,6e-05,-1e-05,-0.00019,-0.00011,1e-05,-7e-05,4,28
14647,1e-05,2e-05,6e-05,-1e-05,-0.00019,-0.00011,1e-05,-7e-05,4,28
14648,1e-05,2e-05,6e-05,-1e-05,-0.00019,-0.00011,1e-05,-7e-05,4,28
14649,1e-05,2e-05,6e-05,-1e-05,-0.00019,-0.00011,1e-05,-7e-05,4,28
14650,1e-05,2e-05,6e-05,-1e-05,-0.00019,-0.00011,1e-05,-7e-05,4,28
14651,1e-05,2e-05,6e-05,-1e-05,-0.00019,-0.00011,1e-05,-7e-05,4,28
14652,1e-05,2e-05,6e-05,-1e-05,-0.00019,-0.00011,1e-05,-7e-05,4,28
14653,1e-05,2e-05,6e-05,-1e-05,-0.00019,-0.00011,1e-05,-7e-05,4,28
14654,1e-05,2e-05,6e-05,-1e-05,-0.00019,-0.00011,1e-05,-7e-05,4,28
14655,1e-05,2e-05,6e-05,-1e-05,-0.00019,-0.00011,1e-05,-7e-05,4,28
14656,1e-05,2e-05,6e-05,-1e-05,-0.00019,-0.00011,1e-05,-7e-05,4,28
14657,1e-05,2e-05,6e-05,-1e-05,-0.00019,-0.00011,1e-05,-7e-05,4,28
14658,1e-05,2e-05,6e-05,-1e-05,-0.00019,-0.00011,1e-05,-7e-05,4,28
14659,1e-05,2e-05,6e-05,-1e-05,-0.00019,-0.00011,1e-05,-7e-05,4,28
14660,1e-05,2e-05,6e-05,-1e-05,-0.00019,-0.00011,1e-05,-7e-05,4,28
14661,1e-05,2e-05,6e-05,-1e-05,-0.00019,-0.00011,1e-05,-7e-05,4,28
14662,1e-05,2e-05,6e-05,-1e-05,-0.00019,-0.00011,1e-05,-7e-05,4,28
14663,1e-05,2e-05,6e-05,-1e-05,-0.00019,-0.00011,1e-05,-7e-05,4,28
14664,1e-05,2e-05,6e-05,-1e-05,-0.00019,-0.00011,1e-05,-7e-05,4,28
14665,1e-05,2e-05,6e-05,-1e-05,-0.00019,-0.00011,1e-05,-7e-05,4,28
14666,2e-05,6e-05,0.0001,5e-05,-0.00013,8e-05,7e-05,5e-05,4,28
14667,2e-05,6e-05,0.0001,5e-05,-0.00013,8e-05,7e-05,5e-05,4,28
14668,3e-05,-5e-05,-0.00011,0,0.00039,4e-05,2e-05,1e-05,4,28
14669,3e-05,-5e-05,-0.00011,0,0.00039,4e-05,2e-05,1e-05,4,28
14670,3e-05,-5e-05,-0.00011,0,0.00039,4e-05,2e-05,1e-05,4,28
14671,3e-05,-5e-05,-0.00011,0,0.00039,4e-05,2e-05,1e-05,4,28
14672,3e-05,-5e-05,-0.00011,0,0.00039,4e-05,2e-05,1e-05,4,28
14673,3e-05,-5e-05,-0.00011,0,0.00039,4e-05,2e-05,1e-05,4,28
14674,3e-05,-5e-05,-0.00011,0,0.00039,4e-05,2e-05,1e-05,4,28
14675,3e-05,-5e-05,-0.00011,0,0.00039,4e-05,2e-05,1e-05,4,28
14676,3e-05,-5e-05,-0.00011,0,0.00039,4e-05,2e-05,1e-05,4,28
14677,3e-05,-5e-05,-0.00011,0,0.00039,4e-05,2e-05,1e-05,4,28
14678,3e-05,-5e-05,-0.00011,0,0.00039,4e-05,2e-05,1e-05,4,28
14679,3e-05,-5e-05,-0.00011,0,0.00039,4e-05,2e-05,1e-05,4,28
14680,3e-05,-5e-05,-0.00011,0,0.00039,4e-05,2e-05,1e-05,4,28
14681,3e-05,-5e-05,-0.00011,0,0.00039,4e-05,2e-05,1e-05,4,28
14682,3e-05,-5e-05,-0.00011,0,0.00039,4e-05,2e-05,1e-05,4,28
14683,3e-05,-5e-05,-0.00011,0,0.00039,4e-05,2e-05,1e-05,4,28
14684,3e-05,-5e-05,-0.00011,0,0.00039,4e-05,2e-05,1e-05,4,28
14685,3e-05,-5e-05,-0.00011,0,0.00039,4e-05,2e-05,1e-05,4,28
14686,3e-05,-5e-05,-0.00011,0,0.00039,4e-05,2e-05,1e-05,4,28
14689,0,2e-05,4e-05,-5e-05,3e-05,7e-05,-2e-05,-1e-05,4,28
14690,0,2e-05,4e-05,-5e-05,3e-05,7e-05,-2e-05,-1e-05,4,28
14691,-2e-05,1e-05,-0.00012,-8e-05,-0.00086,-0.00037,-5e-05,-1e-05,4,28
14692,-2e-05,1e-05,-0.00012,-8e-05,-0.00086,-0.00037,-5e-05,-1e-05,4,28
14693,-2e-05,1e-05,-0.00012,-8e-05,-0.00086,-0.00037,-5e-05,-1e-05,4,28
14694,-2e-05,1e-05,-0.00012,-8e-05,-0.00086,-0.00037,-5e-05,-1e-05,4,28
14695,-2e-05,1e-05,-0.00012,-8e-05,-0.00086,-0.00037,-5e-05,-1e-05,4,28
14696,-2e-05,1e-05,-0.00012,-8e-05,-0.00086,-0.00037,-5e-05,-1e-05,4,28
14697,-2e-05,1e-05,-0.00012,-8e-05,-0.00086,-0.00037,-5e-05,-1e-05,4,28
14698,-2e-05,1e-05,-0.00012,-8e-05,-0.00086,-0.00037,-5e-05,-1e-05,4,28
14699,-2e-05,1e-05,-0.00012,-8e-05,-0.00086,-0.00037,-5e-05,-1e-05,4,28
14700,-2e-05,1e-05,-0.00012,-8e-05,-0.00086,-0.00037,-5e-05,-1e-05,4,28
14701,-2e-05,1e-05,-0.00012,-8e-05,-0.00086,-0.00037,-5e-05,-1e-05,4,28
14702,-2e-05,1e-05,-0.00012,-8e-05,-0.00086,-0.00037,-5e-05,-1e-05,4,28
14703,-1e-05,-8e-05,0,-6e-05,-0.00067,0.00031,7e-05,3e-05,4,28
14704,-1e-05,-8e-05,0,-6e-05,-0.00067,0.00031,7e-05,3e-05,4,28
14705,-1e-05,-8e-05,0,-6e-05,-0.00067,0.00031,7e-05,3e-05,4,28
14706,-1e-05,-8e-05,0,-6e-05,-0.00067,0.00031,7e-05,3e-05,4,28
14707,-1e-05,-8e-05,0,-6e-05,-0.00067,0.00031,7e-05,3e-05,4,28
14708,-1e-05,-8e-05,0,-6e-05,-0.00067,0.00031,7e-05,3e-05,4,28
14709,-1e-05,-8e-05,0,-6e-05,-0.00067,0.00031,7e-05,3e-05,4,28
14710,-1e-05,-8e-05,0,-6e-05,-0.00067,0.00031,7e-05,3e-05,4,28
14711,-1e-05,-8e-05,0,-6e-05,-0.00067,0.00031,7e-05,3e-05,4,28
14712,-1e-05,-8e-05,0,-6e-05,-0.00067,0.00031,7e-05,3e-05,4,28
14713,-1e-05,-8e-05,0,-6e-05,-0.00067,0.00031,7e-05,3e-05,4,28
14714,-1e-05,-8e-05,0,-6e-05,-0.00067,0.00031,7e-05,3e-05,4,28
14715,-1e-05,-8e-05,0,-6e-05,-0.00067,0.00031,7e-05,3e-05,4,28
14716,-1e-05,-8e-05,0,-6e-05,-0.00067,0.00031,7e-05,3e-05,4,28
14717,-2e-05,-0.0001,-4e-05,6e-05,0.00024,0.00014,8e-05,-2e-05,4,28
14718,-2e-05,-0.0001,-4e-05,6e-05,0.00024,0.00014,8e-05,-2e-05,4,28
14719,-2e-05,-0.0001,-4e-05,6e-05,0.00024,0.00014,8e-05,-2e-05,4,28
14720,-2e-05,-0.0001,-4e-05,6e-05,0.00024,0.00014,8e-05,-2e-05,4,28
14721,-2e-05,-0.0001,-4e-05,6e-05,0.00024,0.00014,8e-05,-2e-05,4,28
14722,-2e-05,-0.0001,-4e-05,6e-05,0.00024,0.00014,8e-05,-2e-05,4,28
14723,-2e-05,-0.0001,-4e-05,6e-05,0.00024,0.00014,8e-05,-2e-05,4,28
14724,-2e-05,-0.0001,-4e-05,6e-05,0.00024,0.00014,8e-05,-2e-05,4,28
14725,-2e-05,-0.0001,-4e-05,6e-05,0.00024,0.00014,8e-05,-2e-05,4,28
14726,-2e-05,-0.0001,-4e-05,6e-05,0.00024,0.00014,8e-05,-2e-05,4,28
14727,-4e-05,5e-05,8e-05,1e-05,0.00047,-0.00039,-7e-05,-7e-05,4,28
14728,-3e-05,-5e-05,-9e-05,-8e-05,0.00055,-0.00019,-8e-05,-4e-05,4,28
14729,-3e-05,-5e-05,-9e-05,-8e-05,0.00055,-0.00019,-8e-05,-4e-05,4,28
14730,-3e-05,-5e-05,-9e-05,-8e-05,0.00055,-0.00019,-8e-05,-4e-05,4,28
14731,-3e-05,-5e-05,-9e-05,-8e-05,0.00055,-0.00019,-8e-05,-4e-05,4,28
14732,-3e-05,-5e-05,-9e-05,-8e-05,0.00055,-0.00019,-8e-05,-4e-05,4,28
14733,-3e-05,-5e-05,-9e-05,-8e-05,0.00055,-0.00019,-8e-05,-4e-05,4,28
14734,-3e-05,-5e-05,-9e-05,-8e-05,0.00055,-0.00019,-8e-05,-4e-05,4,28
14735,-3e-05,-5e-05,-9e-05,-8e-05,0.00055,-0.00019,-8e-05,-4e-05,4,28
14736,-3e-05,-5e-05,-9e-05,-8e-05,0.00055,-0.00019,-8e-05,-4e-05,4,28
14738,-3e-05,-5e-05,-9e-05,-8e-05,0.00055,-0.00019,-8e-05,-4e-05,4,28
14739,-3e-05,-5e-05,-9e-05,-8e-05,0.00055,-0.00019,-8e-05,-4e-05,4,28
14740,-3e-05,-5e-05,-9e-05,-8e-05,0.00055,-0.00019,-8e-05,-4e-05,4,28
14741,-3e-05,-5e-05,-9e-05,-8e-05,0.00055,-0.00019,-8e-05,-4e-05,4,28
14742,-3e-05,-5e-05,-9e-05,-8e-05,0.00055,-0.00019,-8e-05,-4e-05,4,28
14743,-3e-05,-5e-05,-9e-05,-8e-05,0.00055,-0.00019,-8e-05,-4e-05,4,28
14744,-3e-05,-5e-05,-9e-05,-8e-05,0.00055,-0.00019,-8e-05,-4e-05,4,28
14745,-3e-05,-5e-05,-9e-05,-8e-05,0.00055,-0.00019,-8e-05,-4e-05,4,28
14746,-3e-05,-5e-05,-9e-05,-8e-05,0.00055,-0.00019,-8e-05,-4e-05,4,28
14747,-3e-05,-5e-05,-9e-05,-8e-05,0.00055,-0.00019,-8e-05,-4e-05,4,28
14748,-3e-05,-5e-05,-9e-05,-8e-05,0.00055,-0.00019,-8e-05,-4e-05,4,28
14749,-5e-05,7e-05,-8e-05,-4e-05,0.00026,0.0001,-5e-05,0,4,28
14750,5e-05,0.00015,0.00026,-2e-05,1e-05,7e-05,0.00017,6e-05,4,28
14751,-3e-05,-0.00015,-0.00011,4e-05,7e-05,-0.00029,-7e-05,-6e-05,4,28
14752,-3e-05,-0.00015,-0.00011,4e-05,7e-05,-0.00029,-7e-05,-6e-05,4,28
14753,-3e-05,-0.00015,-0.00011,4e-05,7e-05,-0.00029,-7e-05,-6e-05,4,28
14754,-3e-05,-0.00015,-0.00011,4e-05,7e-05,-0.00029,-7e-05,-6e-05,4,28
14755,-3e-05,-0.00015,-0.00011,4e-05,7e-05,-0.00029,-7e-05,-6e-05,4,28
14756,-3e-05,-0.00015,-0.00011,4e-05,7e-05,-0.00029,-7e-05,-6e-05,4,28
14757,-3e-05,-0.00015,-0.00011,4e-05,7e-05,-0.00029,-7e-05,-6e-05,4,28
14758,-3e-05,-0.00015,-0.00011,4e-05,7e-05,-0.00029,-7e-05,-6e-05,4,28
14759,-3e-05,-0.00015,-0.00011,4e-05,7e-05,-0.00029,-7e-05,-6e-05,4,28
14760,-3e-05,-0.00015,-0.00011,4e-05,7e-05,-0.00029,-7e-05,-6e-05,4,28
14761,-3e-05,-0.00015,-0.00011,4e-05,7e-05,-0.00029,-7e-05,-6e-05,4,28
14762,-3e-05,-0.00015,-0.00011,4e-05,7e-05,-0.00029,-7e-05,-6e-05,4,28
14763,0,-6e-05,5e-05,4e-05,0.00017,-0.00022,-0.00011,-4e-05,4,28
14764,0,-6e-05,5e-05,4e-05,0.00017,-0.00022,-0.00011,-4e-05,4,28
14765,0,-6e-05,5e-05,4e-05,0.00017,-0.00022,-0.00011,-4e-05,4,28
14766,0,-6e-05,5e-05,4e-05,0.00017,-0.00022,-0.00011,-4e-05,4,28
14767,0,-6e-05,5e-05,4e-05,0.00017,-0.00022,-0.00011,-4e-05,4,28
14768,0,-6e-05,5e-05,4e-05,0.00017,-0.00022,-0.00011,-4e-05,4,28
14769,0,-6e-05,5e-05,4e-05,0.00017,-0.00022,-0.00011,-4e-05,4,28
14770,-1e-05,-2e-05,0,-7e-05,-0.00027,-0.0001,-6e-05,1e-05,4,28
14771,-1e-05,-2e-05,0,-7e-05,-0.00027,-0.0001,-6e-05,1e-05,4,28
14772,-1e-05,-2e-05,0,-7e-05,-0.00027,-0.0001,-6e-05,1e-05,4,28
14773,-1e-05,-2e-05,0,-7e-05,-0.00027,-0.0001,-6e-05,1e-05,4,28
14774,-1e-05,-2e-05,0,-7e-05,-0.00027,-0.0001,-6e-05,1e-05,4,28
14775,-1e-05,-2e-05,0,-7e-05,-0.00027,-0.0001,-6e-05,1e-05,4,28
14776,-1e-05,-2e-05,0,-7e-05,-0.00027,-0.0001,-6e-05,1e-05,4,28
14777,-1e-05,-2e-05,0,-7e-05,-0.00027,-0.0001,-6e-05,1e-05,4,28
14778,-1e-05,-2e-05,0,-7e-05,-0.00027,-0.0001,-6e-05,1e-05,4,28
14779,-1e-05,-2e-05,0,-7e-05,-0.00027,-0.0001,-6e-05,1e-05,4,28
14780,-1e-05,-2e-05,0,-7e-05,-0.00027,-0.0001,-6e-05,1e-05,4,28
14781,-1e-05,-2e-05,0,-7e-05,-0.00027,-0.0001,-6e-05,1e-05,4,28
14782,-1e-05,-2e-05,0,-7e-05,-0.00027,-0.0001,-6e-05,1e-05,4,28
14783,-1e-05,-2e-05,0,-7e-05,-0.00027,-0.0001,-6e-05,1e-05,4,28
14784,-1e-05,-2e-05,0,-7e-05,-0.00027,-0.0001,-6e-05,1e-05,4,28
14785,-1e-05,-2e-05,0,-7e-05,-0.00027,-0.0001,-6e-05,1e-05,4,28
14786,-3e-05,-4e-05,8e-05,3e-05,-5e-05,9e-05,6e-05,-2e-05,4,28
14788,3e-05,8e-05,0.00014,0.00015,0.00014,0.00021,0.0001,4e-05,4,28
14789,3e-05,8e-05,0.00014,0.00015,0.00014,0.00021,0.0001,4e-05,4,28
14790,3e-05,8e-05,0.00014,0.00015,0.00014,0.00021,0.0001,4e-05,4,28
14791,3e-05,8e-05,0.00014,0.00015,0.00014,0.00021,0.0001,4e-05,4,28
14792,3e-05,8e-05,0.00014,0.00015,0.00014,0.00021,0.0001,4e-05,4,28
14793,3e-05,8e-05,0.00014,0.00015,0.00014,0.00021,0.0001,4e-05,4,28
14794,3e-05,8e-05,0.00014,0.00015,0.00014,0.00021,0.0001,4e-05,4,28
14795,3e-05,8e-05,0.00014,0.00015,0.00014,0.00021,0.0001,4e-05,4,28
14796,3e-05,8e-05,0.00014,0.00015,0.00014,0.00021,0.0001,4e-05,4,28
14797,3e-05,8e-05,0.00014,0.00015,0.00014,0.00021,0.0001,4e-05,4,28
14798,3e-05,8e-05,0.00014,0.00015,0.00014,0.00021,0.0001,4e-05,4,28
14799,3e-05,8e-05,0.00014,0.00015,0.00014,0.00021,0.0001,4e-05,4,28
14800,3e-05,8e-05,0.00014,0.00015,0.00014,0.00021,0.0001,4e-05,4,28
14801,3e-05,8e-05,0.00014,0.00015,0.00014,0.00021,0.0001,4e-05,4,28
14802,3e-05,8e-05,0.00014,0.00015,0.00014,0.00021,0.0001,4e-05,4,28
14803,3e-05,8e-05,0.00014,0.00015,0.00014,0.00021,0.0001,4e-05,4,28
14804,3e-05,8e-05,0.00014,0.00015,0.00014,0.00021,0.0001,4e-05,4,28
14805,3e-05,8e-05,0.00014,0.00015,0.00014,0.00021,0.0001,4e-05,4,28
14806,3e-05,8e-05,0.00014,0.00015,0.00014,0.00021,0.0001,4e-05,4,28
14807,3e-05,8e-05,0.00014,0.00015,0.00014,0.00021,0.0001,4e-05,4,28
14808,-1e-05,-2e-05,-7e-05,-2e-05,0.0001,9e-05,1e-05,3e-05,4,28
14809,-1e-05,-2e-05,-7e-05,-2e-05,0.0001,9e-05,1e-05,3e-05,4,28
14810,0,-2e-05,-0.00018,0,0.00088,0.00015,-3e-05,-2e-05,4,28
14812,0,-2e-05,-0.00018,0,0.00088,0.00015,-3e-05,-2e-05,4,28
14813,0,-2e-05,-0.00018,0,0.00088,0.00015,-3e-05,-2e-05,4,28
14814,0,-2e-05,-0.00018,0,0.00088,0.00015,-3e-05,-2e-05,4,28
14815,0,-2e-05,-0.00018,0,0.00088,0.00015,-3e-05,-2e-05,4,28
14816,0,-2e-05,-0.00018,0,0.00088,0.00015,-3e-05,-2e-05,4,28
14817,0,-2e-05,-0.00018,0,0.00088,0.00015,-3e-05,-2e-05,4,28
14818,0,-2e-05,-0.00018,0,0.00088,0.00015,-3e-05,-2e-05,4,28
14819,0,-2e-05,-0.00018,0,0.00088,0.00015,-3e-05,-2e-05,4,28
14820,0,-2e-05,-0.00018,0,0.00088,0.00015,-3e-05,-2e-05,4,28
14821,0,-2e-05,-0.00018,0,0.00088,0.00015,-3e-05,-2e-05,4,28
14822,0,-2e-05,-0.00018,0,0.00088,0.00015,-3e-05,-2e-05,4,28
14823,-1e-05,-2e-05,3e-05,8e-05,0.00035,-0.00012,3e-05,-4e-05,4,28
14824,-1e-05,-2e-05,3e-05,8e-05,0.00035,-0.00012,3e-05,-4e-05,4,28
14825,-1e-05,-2e-05,3e-05,8e-05,0.00035,-0.00012,3e-05,-4e-05,4,28
14826,-1e-05,-2e-05,3e-05,8e-05,0.00035,-0.00012,3e-05,-4e-05,4,28
14827,-1e-05,-2e-05,3e-05,8e-05,0.00035,-0.00012,3e-05,-4e-05,4,28
14828,-1e-05,-2e-05,3e-05,8e-05,0.00035,-0.00012,3e-05,-4e-05,4,28
14829,-1e-05,-2e-05,3e-05,8e-05,0.00035,-0.00012,3e-05,-4e-05,4,28
14830,-5e-05,-3e-05,0.00014,-1e-05,0.00044,0.00013,-8e-05,-5e-05,4,28
14831,-5e-05,-3e-05,0.00014,-1e-05,0.00044,0.00013,-8e-05,-5e-05,4,28
14832,-5e-05,-3e-05,0.00014,-1e-05,0.00044,0.00013,-8e-05,-5e-05,4,28
14833,-5e-05,-3e-05,0.00014,-1e-05,0.00044,0.00013,-8e-05,-5e-05,4,28
14834,-5e-05,-3e-05,0.00014,-1e-05,0.00044,0.00013,-8e-05,-5e-05,4,28
14835,-5e-05,-3e-05,0.00014,-1e-05,0.00044,0.00013,-8e-05,-5e-05,4,28
14836,-5e-05,-3e-05,0.00014,-1e-05,0.00044,0.00013,-8e-05,-5e-05,4,28
14838,-5e-05,-3e-05,0.00014,-1e-05,0.00044,0.00013,-8e-05,-5e-05,4,28
14839,-5e-05,-3e-05,0.00014,-1e-05,0.00044,0.00013,-8e-05,-5e-05,4,28
14840,-5e-05,-3e-05,0.00014,-1e-05,0.00044,0.00013,-8e-05,-5e-05,4,28
14841,-5e-05,-3e-05,0.00014,-1e-05,0.00044,0.00013,-8e-05,-5e-05,4,28
14842,-5e-05,-3e-05,0.00014,-1e-05,0.00044,0.00013,-8e-05,-5e-05,4,28
14843,-5e-05,-3e-05,0.00014,-1e-05,0.00044,0.00013,-8e-05,-5e-05,4,28
14844,-5e-05,-3e-05,0.00014,-1e-05,0.00044,0.00013,-8e-05,-5e-05,4,28
14845,-5e-05,-3e-05,0.00014,-1e-05,0.00044,0.00013,-8e-05,-5e-05,4,28
14846,-3e-05,-4e-05,0.0002,0,6e-05,0.0001,0,-3e-05,4,28
14847,-3e-05,-4e-05,0.0002,0,6e-05,0.0001,0,-3e-05,4,28
14848,-2e-05,3e-05,-6e-05,-0.00012,-0.00041,-0.00014,-4e-05,-4e-05,4,28
14849,-2e-05,3e-05,-6e-05,-0.00012,-0.00041,-0.00014,-4e-05,-4e-05,4,28
14850,-2e-05,3e-05,-6e-05,-0.00012,-0.00041,-0.00014,-4e-05,-4e-05,4,28
14851,-2e-05,3e-05,-6e-05,-0.00012,-0.00041,-0.00014,-4e-05,-4e-05,4,28
14852,-2e-05,3e-05,-6e-05,-0.00012,-0.00041,-0.00014,-4e-05,-4e-05,4,28
14853,-2e-05,3e-05,-6e-05,-0.00012,-0.00041,-0.00014,-4e-05,-4e-05,4,28
14854,-2e-05,3e-05,-6e-05,-0.00012,-0.00041,-0.00014,-4e-05,-4e-05,4,28
14855,-2e-05,3e-05,-6e-05,-0.00012,-0.00041,-0.00014,-4e-05,-4e-05,4,28
14856,-2e-05,3e-05,-6e-05,-0.00012,-0.00041,-0.00014,-4e-05,-4e-05,4,28
14857,-2e-05,3e-05,-6e-05,-0.00012,-0.00041,-0.00014,-4e-05,-4e-05,4,28
14858,-2e-05,3e-05,-6e-05,-0.00012,-0.00041,-0.00014,-4e-05,-4e-05,4,28
14859,-2e-05,3e-05,-6e-05,-0.00012,-0.00041,-0.00014,-4e-05,-4e-05,4,28
14860,-2e-05,3e-05,-6e-05,-0.00012,-0.00041,-0.00014,-4e-05,-4e-05,4,28
14861,-2e-05,3e-05,-6e-05,-0.00012,-0.00041,-0.00014,-4e-05,-4e-05,4,28
14862,-2e-05,3e-05,-6e-05,-0.00012,-0.00041,-0.00014,-4e-05,-4e-05,4,28
14863,-2e-05,3e-05,-6e-05,-0.00012,-0.00041,-0.00014,-4e-05,-4e-05,4,28
14864,-2e-05,3e-05,-6e-05,-0.00012,-0.00041,-0.00014,-4e-05,-4e-05,4,28
14865,-2e-05,3e-05,-6e-05,-0.00012,-0.00041,-0.00014,-4e-05,-4e-05,4,28
14866,-2e-05,3e-05,-6e-05,-0.00012,-0.00041,-0.00014,-4e-05,-4e-05,4,28
14867,-2e-05,3e-05,-6e-05,-0.00012,-0.00041,-0.00014,-4e-05,-4e-05,4,28
14868,0,-5e-05,-6e-05,-6e-05,-0.00014,-0.00013,-8e-05,-4e-05,4,28
14869,0,-5e-05,-6e-05,-6e-05,-0.00014,-0.00013,-8e-05,-4e-05,4,28
14870,0,-5e-05,-6e-05,-6e-05,-0.00014,-0.00013,-8e-05,-4e-05,4,28
14871,0,-5e-05,-6e-05,-6e-05,-0.00014,-0.00013,-8e-05,-4e-05,4,28
14872,0,-5e-05,-6e-05,-6e-05,-0.00014,-0.00013,-8e-05,-4e-05,4,28
14873,0,-5e-05,-6e-05,-6e-05,-0.00014,-0.00013,-8e-05,-4e-05,4,28
14874,0,-5e-05,-6e-05,-6e-05,-0.00014,-0.00013,-8e-05,-4e-05,4,28
14875,0,-5e-05,-6e-05,-6e-05,-0.00014,-0.00013,-8e-05,-4e-05,4,28
14876,1e-05,8e-05,0.00014,1e-05,-0.00057,5e-05,0.00011,3e-05,4,28
14877,1e-05,8e-05,0.00014,1e-05,-0.00057,5e-05,0.00011,3e-05,4,28
14878,1e-05,8e-05,0.00014,1e-05,-0.00057,5e-05,0.00011,3e-05,4,28
14879,1e-05,8e-05,0.00014,1e-05,-0.00057,5e-05,0.00011,3e-05,4,28
14880,1e-05,8e-05,0.00014,1e-05,-0.00057,5e-05,0.00011,3e-05,4,28
14881,1e-05,8e-05,0.00014,1e-05,-0.00057,5e-05,0.00011,3e-05,4,28
14882,1e-05,8e-05,0.00014,1e-05,-0.00057,5e-05,0.00011,3e-05,4,28
14883,3e-05,4e-05,-7e-05,-3e-05,-0.00013,0.00015,0,4e-05,4,28
14884,3e-05,4e-05,-7e-05,-3e-05,-0.00013,0.00015,0,4e-05,4,28
14885,3e-05,4e-05,-7e-05,-3e-05,-0.00013,0.00015,0,4e-05,4,28
14886,3e-05,4e-05,-7e-05,-3e-05,-0.00013,0.00015,0,4e-05,4,28
14889,3e-05,4e-05,-7e-05,-3e-05,-0.00013,0.00015,0,4e-05,4,28
14890,-2e-05,-1e-05,0.00014,-5e-05,-4e-05,-0.00014,-7e-05,-2e-05,4,28
14891,-2e-05,-1e-05,0.00014,-5e-05,-4e-05,-0.00014,-7e-05,-2e-05,4,28
14892,-2e-05,-1e-05,0.00014,-5e-05,-4e-05,-0.00014,-7e-05,-2e-05,4,28
14893,-2e-05,-1e-05,0.00014,-5e-05,-4e-05,-0.00014,-7e-05,-2e-05,4,28
14894,-2e-05,-1e-05,0.00014,-5e-05,-4e-05,-0.00014,-7e-05,-2e-05,4,28
14895,-2e-05,-1e-05,0.00014,-5e-05,-4e-05,-0.00014,-7e-05,-2e-05,4,28
14896,-2e-05,-1e-05,0.00014,-5e-05,-4e-05,-0.00014,-7e-05,-2e-05,4,28
14897,-2e-05,-1e-05,0.00014,-5e-05,-4e-05,-0.00014,-7e-05,-2e-05,4,28
14898,-2e-05,-1e-05,0.00014,-5e-05,-4e-05,-0.00014,-7e-05,-2e-05,4,28
14899,-2e-05,-1e-05,0.00014,-5e-05,-4e-05,-0.00014,-7e-05,-2e-05,4,28
14900,-2e-05,-1e-05,0.00014,-5e-05,-4e-05,-0.00014,-7e-05,-2e-05,4,28
14901,-2e-05,-1e-05,0.00014,-5e-05,-4e-05,-0.00014,-7e-05,-2e-05,4,28
14902,-2e-05,-1e-05,0.00014,-5e-05,-4e-05,-0.00014,-7e-05,-2e-05,4,28
14903,-2e-05,-1e-05,0.00014,-5e-05,-4e-05,-0.00014,-7e-05,-2e-05,4,28
14904,-2e-05,-1e-05,0.00014,-5e-05,-4e-05,-0.00014,-7e-05,-2e-05,4,28
14905,-2e-05,-1e-05,0.00014,-5e-05,-4e-05,-0.00014,-7e-05,-2e-05,4,28
14906,-8e-05,-0.00012,-0.00012,-8e-05,0.00029,8e-05,3e-05,-3e-05,4,28
14907,-8e-05,-0.00012,-0.00012,-8e-05,0.00029,8e-05,3e-05,-3e-05,4,28
14908,-5e-05,-3e-05,-0.00016,-0.00034,-0.00092,-0.00035,-0.0001,-6e-05,4,28
14909,-5e-05,-3e-05,-0.00016,-0.00034,-0.00092,-0.00035,-0.0001,-6e-05,4,28
14910,-5e-05,-3e-05,-0.00016,-0.00034,-0.00092,-0.00035,-0.0001,-6e-05,4,28
14911,-5e-05,-3e-05,-0.00016,-0.00034,-0.00092,-0.00035,-0.0001,-6e-05,4,28
14912,-5e-05,-3e-05,-0.00016,-0.00034,-0.00092,-0.00035,-0.0001,-6e-05,4,28
14913,-5e-05,-3e-05,-0.00016,-0.00034,-0.00092,-0.00035,-0.0001,-6e-05,4,28
14914,-5e-05,-3e-05,-0.00016,-0.00034,-0.00092,-0.00035,-0.0001,-6e-05,4,28
14915,-5e-05,-3e-05,-0.00016,-0.00034,-0.00092,-0.00035,-0.0001,-6e-05,4,28
14916,-5e-05,-3e-05,-0.00016,-0.00034,-0.00092,-0.00035,-0.0001,-6e-05,4,28
14917,-5e-05,-3e-05,-0.00016,-0.00034,-0.00092,-0.00035,-0.0001,-6e-05,4,28
14918,-5e-05,-3e-05,-0.00016,-0.00034,-0.00092,-0.00035,-0.0001,-6e-05,4,28
14919,-5e-05,-3e-05,-0.00016,-0.00034,-0.00092,-0.00035,-0.0001,-6e-05,4,28
14920,-5e-05,-3e-05,-0.00016,-0.00034,-0.00092,-0.00035,-0.0001,-6e-05,4,28
14921,-5e-05,-3e-05,-0.00016,-0.00034,-0.00092,-0.00035,-0.0001,-6e-05,4,28
14922,-5e-05,-3e-05,-0.00016,-0.00034,-0.00092,-0.00035,-0.0001,-6e-05,4,28
14923,-5e-05,-3e-05,-0.00016,-0.00034,-0.00092,-0.00035,-0.0001,-6e-05,4,28
14924,-5e-05,-3e-05,-0.00016,-0.00034,-0.00092,-0.00035,-0.0001,-6e-05,4,28
14925,-5e-05,-3e-05,-0.00016,-0.00034,-0.00092,-0.00035,-0.0001,-6e-05,4,28
14926,-5e-05,-3e-05,-0.00016,-0.00034,-0.00092,-0.00035,-0.0001,-6e-05,4,28
14927,-5e-05,-3e-05,-0.00016,-0.00034,-0.00092,-0.00035,-0.0001,-6e-05,4,28
14928,-5e-05,-3e-05,-0.00016,-0.00034,-0.00092,-0.00035,-0.0001,-6e-05,4,28
14929,0,-1e-05,-0.00034,-0.00011,0.00022,6e-05,-2e-05,-7e-05,4,28
14930,0,-1e-05,-0.00034,-0.00011,0.00022,6e-05,-2e-05,-7e-05,4,28
14931,0,-1e-05,-0.00034,-0.00011,0.00022,6e-05,-2e-05,-7e-05,4,28
14932,0,-1e-05,-0.00034,-0.00011,0.00022,6e-05,-2e-05,-7e-05,4,28
14933,0,-1e-05,-0.00034,-0.00011,0.00022,6e-05,-2e-05,-7e-05,4,28
14934,0,-1e-05,-0.00034,-0.00011,0.00022,6e-05,-2e-05,-7e-05,4,28
14935,0,-1e-05,-0.00034,-0.00011,0.00022,6e-05,-2e-05,-7e-05,4,28
14936,-1e-05,-3e-05,4e-05,0,-0.00029,-1e-05,3e-05,-2e-05,4,28
14938,-1e-05,-3e-05,4e-05,0,-0.00029,-1e-05,3e-05,-2e-05,4,28
14939,-1e-05,-3e-05,4e-05,0,-0.00029,-1e-05,3e-05,-2e-05,4,28
14940,-1e-05,-3e-05,4e-05,0,-0.00029,-1e-05,3e-05,-2e-05,4,28
14941,-1e-05,-3e-05,4e-05,0,-0.00029,-1e-05,3e-05,-2e-05,4,28
14942,-1e-05,-3e-05,4e-05,0,-0.00029,-1e-05,3e-05,-2e-05,4,28
14943,-1e-05,-3e-05,4e-05,0,-0.00029,-1e-05,3e-05,-2e-05,4,28
14944,3e-05,0.00012,2e-05,9e-05,2e-05,0.00033,9e-05,5e-05,4,28
14945,3e-05,0.00012,2e-05,9e-05,2e-05,0.00033,9e-05,5e-05,4,28
14946,3e-05,0.00012,2e-05,9e-05,2e-05,0.00033,9e-05,5e-05,4,28
14947,3e-05,0.00012,2e-05,9e-05,2e-05,0.00033,9e-05,5e-05,4,28
14948,3e-05,0.00012,2e-05,9e-05,2e-05,0.00033,9e-05,5e-05,4,28
14949,3e-05,0.00012,2e-05,9e-05,2e-05,0.00033,9e-05,5e-05,4,28
14950,5e-05,8e-05,-7e-05,0.00015,0.00023,-5e-05,4e-05,4e-05,4,28
14951,5e-05,8e-05,-7e-05,0.00015,0.00023,-5e-05,4e-05,4e-05,4,28
14952,5e-05,8e-05,-7e-05,0.00015,0.00023,-5e-05,4e-05,4e-05,4,28
14953,5e-05,8e-05,-7e-05,0.00015,0.00023,-5e-05,4e-05,4e-05,4,28
14954,5e-05,8e-05,-7e-05,0.00015,0.00023,-5e-05,4e-05,4e-05,4,28
14955,5e-05,8e-05,-7e-05,0.00015,0.00023,-5e-05,4e-05,4e-05,4,28
14957,5e-05,8e-05,-7e-05,0.00015,0.00023,-5e-05,4e-05,4e-05,4,28
41143,3e-05,3e-05,-0.00013,-4e-05,-0.00059,-0.0005,4e-05,7e-05,4,28
41144,3e-05,3e-05,-0.00013,-4e-05,-0.00059,-0.0005,4e-05,7e-05,4,28
41145,3e-05,3e-05,-0.00013,-4e-05,-0.00059,-0.0005,4e-05,7e-05,4,28
41146,3e-05,3e-05,-0.00013,-4e-05,-0.00059,-0.0005,4e-05,7e-05,4,28
41147,-8e-05,-0.00012,-0.00017,-0.00024,-0.00077,-0.00074,-7e-05,-0.00012,4,28
41148,-8e-05,-0.00012,-0.00017,-0.00024,-0.00077,-0.00074,-7e-05,-0.00012,4,28
41149,-8e-05,-0.00012,-0.00017,-0.00024,-0.00077,-0.00074,-7e-05,-0.00012,4,28
41150,-8e-05,-0.00012,-0.00017,-0.00024,-0.00077,-0.00074,-7e-05,-0.00012,4,28
41151,-8e-05,-0.00012,-0.00017,-0.00024,-0.00077,-0.00074,-7e-05,-0.00012,4,28
41152,-8e-05,-0.00012,-0.00017,-0.00024,-0.00077,-0.00074,-7e-05,-0.00012,4,28
41153,-8e-05,-0.00012,-0.00017,-0.00024,-0.00077,-0.00074,-7e-05,-0.00012,4,28
41154,-8e-05,-0.00012,-0.00017,-0.00024,-0.00077,-0.00074,-7e-05,-0.00012,4,28
41155,-8e-05,-0.00012,-0.00017,-0.00024,-0.00077,-0.00074,-7e-05,-0.00012,4,28
41156,-4e-05,-9e-05,-5e-05,-0.00028,-0.0008,-0.00046,-0.00027,-0.00011,4,28
41157,0,-0.00012,-2e-05,-0.00028,0.00013,-2e-05,1e-05,-8e-05,4,28
41159,0,-0.00012,-2e-05,-0.00028,0.00013,-2e-05,1e-05,-8e-05,4,28
41160,0,-0.00012,-2e-05,-0.00028,0.00013,-2e-05,1e-05,-8e-05,4,28
41161,0,-0.00012,-2e-05,-0.00028,0.00013,-2e-05,1e-05,-8e-05,4,28
41162,0,-0.00012,-2e-05,-0.00028,0.00013,-2e-05,1e-05,-8e-05,4,28
41163,0,-0.00012,-2e-05,-0.00028,0.00013,-2e-05,1e-05,-8e-05,4,28
41164,0,-0.00012,-2e-05,-0.00028,0.00013,-2e-05,1e-05,-8e-05,4,28
41165,0,-0.00012,-2e-05,-0.00028,0.00013,-2e-05,1e-05,-8e-05,4,28
41166,0,-0.00012,-2e-05,-0.00028,0.00013,-2e-05,1e-05,-8e-05,4,28
41167,0,-0.00012,-2e-05,-0.00028,0.00013,-2e-05,1e-05,-8e-05,4,28
41168,0,-0.00012,-2e-05,-0.00028,0.00013,-2e-05,1e-05,-8e-05,4,28
41169,0,-0.00012,-2e-05,-0.00028,0.00013,-2e-05,1e-05,-8e-05,4,28
41170,0,-0.00012,-2e-05,-0.00028,0.00013,-2e-05,1e-05,-8e-05,4,28
41171,0,-0.00012,-2e-05,-0.00028,0.00013,-2e-05,1e-05,-8e-05,4,28
41172,0,-0.00012,-2e-05,-0.00028,0.00013,-2e-05,1e-05,-8e-05,4,28
41173,0,-0.00012,-2e-05,-0.00028,0.00013,-2e-05,1e-05,-8e-05,4,28
41174,0,-0.00012,-2e-05,-0.00028,0.00013,-2e-05,1e-05,-8e-05,4,28
41175,0,-0.00012,-2e-05,-0.00028,0.00013,-2e-05,1e-05,-8e-05,4,28
41176,0,-0.00012,-2e-05,-0.00028,0.00013,-2e-05,1e-05,-8e-05,4,28
41177,0,-0.00012,-2e-05,-0.00028,0.00013,-2e-05,1e-05,-8e-05,4,28
41178,-9e-05,-0.00014,-9e-05,-0.00025,-0.00039,-5e-05,-0.00017,7e-05,4,28
41179,-9e-05,-0.00014,-9e-05,-0.00025,-0.00039,-5e-05,-0.00017,7e-05,4,28
41180,5e-05,9e-05,3e-05,-1e-05,-7e-05,0.00036,1e-05,-3e-05,4,28
41181,5e-05,9e-05,3e-05,-1e-05,-7e-05,0.00036,1e-05,-3e-05,4,28
41182,5e-05,9e-05,3e-05,-1e-05,-7e-05,0.00036,1e-05,-3e-05,4,28
41183,5e-05,9e-05,3e-05,-1e-05,-7e-05,0.00036,1e-05,-3e-05,4,28
41184,5e-05,9e-05,3e-05,-1e-05,-7e-05,0.00036,1e-05,-3e-05,4,28
41185,5e-05,9e-05,3e-05,-1e-05,-7e-05,0.00036,1e-05,-3e-05,4,28
41186,5e-05,9e-05,3e-05,-1e-05,-7e-05,0.00036,1e-05,-3e-05,4,28
41188,5e-05,9e-05,3e-05,-1e-05,-7e-05,0.00036,1e-05,-3e-05,4,28
41189,5e-05,9e-05,3e-05,-1e-05,-7e-05,0.00036,1e-05,-3e-05,4,28
41190,5e-05,9e-05,3e-05,-1e-05,-7e-05,0.00036,1e-05,-3e-05,4,28
41191,5e-05,9e-05,3e-05,-1e-05,-7e-05,0.00036,1e-05,-3e-05,4,28
41192,5e-05,9e-05,3e-05,-1e-05,-7e-05,0.00036,1e-05,-3e-05,4,28
41193,2e-05,-7e-05,-8e-05,3e-05,0.00015,0.00032,0.00022,0.00057,4,28
41194,2e-05,-7e-05,-8e-05,3e-05,0.00015,0.00032,0.00022,0.00057,4,28
41195,0,0,-0.0001,0.00022,0.00055,0.00029,0,-8e-05,4,28
41196,0,0,-0.0001,0.00022,0.00055,0.00029,0,-8e-05,4,28
41197,0,0,-0.0001,0.00022,0.00055,0.00029,0,-8e-05,4,28
41198,0,0,-0.0001,0.00022,0.00055,0.00029,0,-8e-05,4,28
41199,0,0,-0.0001,0.00022,0.00055,0.00029,0,-8e-05,4,28
41200,0,0,-0.0001,0.00022,0.00055,0.00029,0,-8e-05,4,28
41201,0,0,-0.0001,0.00022,0.00055,0.00029,0,-8e-05,4,28
41202,0,0,-0.0001,0.00022,0.00055,0.00029,0,-8e-05,4,28
41203,0,0,-0.0001,0.00022,0.00055,0.00029,0,-8e-05,4,28
41204,0,0,-0.0001,0.00022,0.00055,0.00029,0,-8e-05,4,28
41205,0,0,-0.0001,0.00022,0.00055,0.00029,0,-8e-05,4,28
41206,0,0,-0.0001,0.00022,0.00055,0.00029,0,-8e-05,4,28
41207,0,0,-0.0001,0.00022,0.00055,0.00029,0,-8e-05,4,28
41208,0,0,-0.0001,0.00022,0.00055,0.00029,0,-8e-05,4,28
41209,0,0,-0.0001,0.00022,0.00055,0.00029,0,-8e-05,4,28
41210,0,0,-0.0001,0.00022,0.00055,0.00029,0,-8e-05,4,28
41211,0,0,-0.0001,0.00022,0.00055,0.00029,0,-8e-05,4,28
41212,0,0,-0.0001,0.00022,0.00055,0.00029,0,-8e-05,4,28
41213,0,0,-0.0001,0.00022,0.00055,0.00029,0,-8e-05,4,28
41214,0,0,-0.0001,0.00022,0.00055,0.00029,0,-8e-05,4,28
41215,0,0,-0.0001,0.00022,0.00055,0.00029,0,-8e-05,4,28
41216,-5e-05,-7e-05,0.00012,-9e-05,-0.00048,0.00017,8e-05,-8e-05,4,28
41217,-5e-05,-7e-05,0.00012,-9e-05,-0.00048,0.00017,8e-05,-8e-05,4,28
41218,0,6e-05,0.00015,6e-05,-0.00049,-0.00078,9e-05,6e-05,4,28
41219,0,6e-05,0.00015,6e-05,-0.00049,-0.00078,9e-05,6e-05,4,28
41220,0,6e-05,0.00015,6e-05,-0.00049,-0.00078,9e-05,6e-05,4,28
41221,0,6e-05,0.00015,6e-05,-0.00049,-0.00078,9e-05,6e-05,4,28
41222,0,6e-05,0.00015,6e-05,-0.00049,-0.00078,9e-05,6e-05,4,28
41223,0,6e-05,0.00015,6e-05,-0.00049,-0.00078,9e-05,6e-05,4,28
41224,0,6e-05,0.00015,6e-05,-0.00049,-0.00078,9e-05,6e-05,4,28
41225,0,6e-05,0.00015,6e-05,-0.00049,-0.00078,9e-05,6e-05,4,28
41226,0,6e-05,0.00015,6e-05,-0.00049,-0.00078,9e-05,6e-05,4,28
41227,0,6e-05,0.00015,6e-05,-0.00049,-0.00078,9e-05,6e-05,4,28
41228,0,6e-05,0.00015,6e-05,-0.00049,-0.00078,9e-05,6e-05,4,28
41229,0,6e-05,0.00015,6e-05,-0.00049,-0.00078,9e-05,6e-05,4,28
41230,0,6e-05,0.00015,6e-05,-0.00049,-0.00078,9e-05,6e-05,4,28
41231,0,6e-05,0.00015,6e-05,-0.00049,-0.00078,9e-05,6e-05,4,28
41232,0,6e-05,0.00015,6e-05,-0.00049,-0.00078,9e-05,6e-05,4,28
41233,0,6e-05,0.00015,6e-05,-0.00049,-0.00078,9e-05,6e-05,4,28
41234,0,6e-05,0.00015,6e-05,-0.00049,-0.00078,9e-05,6e-05,4,28
41235,0,6e-05,0.00015,6e-05,-0.00049,-0.00078,9e-05,6e-05,4,28
41236,0,6e-05,0.00015,6e-05,-0.00049,-0.00078,9e-05,6e-05,4,28
41238,-8e-05,-0.00015,-0.00017,-0.00033,0.00014,-0.00035,-0.00017,-0.00022,4,28
41239,-8e-05,-0.00015,-0.00017,-0.00033,0.00014,-0.00035,-0.00017,-0.00022,4,28
41240,0,4e-05,1e-05,0.00017,0.00084,0.00025,-9e-05,-6e-05,4,28
41241,0,4e-05,1e-05,0.00017,0.00084,0.00025,-9e-05,-6e-05,4,28
41242,0,4e-05,1e-05,0.00017,0.00084,0.00025,-9e-05,-6e-05,4,28
41243,0,4e-05,1e-05,0.00017,0.00084,0.00025,-9e-05,-6e-05,4,28
41244,0,4e-05,1e-05,0.00017,0.00084,0.00025,-9e-05,-6e-05,4,28
41245,0,4e-05,1e-05,0.00017,0.00084,0.00025,-9e-05,-6e-05,4,28
41246,0,4e-05,1e-05,0.00017,0.00084,0.00025,-9e-05,-6e-05,4,28
41247,0,4e-05,1e-05,0.00017,0.00084,0.00025,-9e-05,-6e-05,4,28
41248,0,4e-05,1e-05,0.00017,0.00084,0.00025,-9e-05,-6e-05,4,28
41249,0,4e-05,1e-05,0.00017,0.00084,0.00025,-9e-05,-6e-05,4,28
41250,0,4e-05,1e-05,0.00017,0.00084,0.00025,-9e-05,-6e-05,4,28
41251,0,4e-05,1e-05,0.00017,0.00084,0.00025,-9e-05,-6e-05,4,28
41252,0,4e-05,1e-05,0.00017,0.00084,0.00025,-9e-05,-6e-05,4,28
41253,-6e-05,0.00012,-0.00012,-0.00013,0.00049,9e-05,-9e-05,-0.00012,4,28
41254,-6e-05,0.00012,-0.00012,-0.00013,0.00049,9e-05,-9e-05,-0.00012,4,28
41255,-1e-05,9e-05,4e-05,0.00024,0.00018,0.00022,0.00011,-0.00043,4,28
41256,-1e-05,9e-05,4e-05,0.00024,0.00018,0.00022,0.00011,-0.00043,4,28
41257,-1e-05,9e-05,4e-05,0.00024,0.00018,0.00022,0.00011,-0.00043,4,28
41258,-1e-05,9e-05,4e-05,0.00024,0.00018,0.00022,0.00011,-0.00043,4,28
41259,-1e-05,9e-05,4e-05,0.00024,0.00018,0.00022,0.00011,-0.00043,4,28
41260,-1e-05,9e-05,4e-05,0.00024,0.00018,0.00022,0.00011,-0.00043,4,28
41261,-1e-05,9e-05,4e-05,0.00024,0.00018,0.00022,0.00011,-0.00043,4,28
41262,-1e-05,9e-05,4e-05,0.00024,0.00018,0.00022,0.00011,-0.00043,4,28
41263,-1e-05,9e-05,4e-05,0.00024,0.00018,0.00022,0.00011,-0.00043,4,28
41264,-1e-05,9e-05,4e-05,0.00024,0.00018,0.00022,0.00011,-0.00043,4,28
41265,-1e-05,9e-05,4e-05,0.00024,0.00018,0.00022,0.00011,-0.00043,4,28
41266,-1e-05,9e-05,4e-05,0.00024,0.00018,0.00022,0.00011,-0.00043,4,28
41267,-1e-05,9e-05,4e-05,0.00024,0.00018,0.00022,0.00011,-0.00043,4,28
41268,-1e-05,9e-05,4e-05,0.00024,0.00018,0.00022,0.00011,-0.00043,4,28
41269,-1e-05,9e-05,4e-05,0.00024,0.00018,0.00022,0.00011,-0.00043,4,28
41270,-1e-05,9e-05,4e-05,0.00024,0.00018,0.00022,0.00011,-0.00043,4,28
41271,-1e-05,9e-05,4e-05,0.00024,0.00018,0.00022,0.00011,-0.00043,4,28
41272,-1e-05,9e-05,4e-05,0.00024,0.00018,0.00022,0.00011,-0.00043,4,28
41273,-1e-05,9e-05,4e-05,0.00024,0.00018,0.00022,0.00011,-0.00043,4,28
41274,-1e-05,9e-05,4e-05,0.00024,0.00018,0.00022,0.00011,-0.00043,4,28
41275,-1e-05,9e-05,4e-05,0.00024,0.00018,0.00022,0.00011,-0.00043,4,28
41276,-6e-05,0.00012,0.00038,6e-05,0.00027,0.00015,-5e-05,-9e-05,4,28
41277,-3e-05,-8e-05,-8e-05,-6e-05,-0.00036,0.0003,-5e-05,8e-05,4,28
41278,-3e-05,-8e-05,-8e-05,-6e-05,-0.00036,0.0003,-5e-05,8e-05,4,28
41279,-3e-05,-8e-05,-8e-05,-6e-05,-0.00036,0.0003,-5e-05,8e-05,4,28
41280,-3e-05,-8e-05,-8e-05,-6e-05,-0.00036,0.0003,-5e-05,8e-05,4,28
41281,-3e-05,-8e-05,-8e-05,-6e-05,-0.00036,0.0003,-5e-05,8e-05,4,28
41282,-3e-05,-8e-05,-8e-05,-6e-05,-0.00036,0.0003,-5e-05,8e-05,4,28
41283,-3e-05,-8e-05,-8e-05,-6e-05,-0.00036,0.0003,-5e-05,8e-05,4,28
41284,-3e-05,-8e-05,-8e-05,-6e-05,-0.00036,0.0003,-5e-05,8e-05,4,28
41285,-3e-05,-8e-05,-8e-05,-6e-05,-0.00036,0.0003,-5e-05,8e-05,4,28
41286,-3e-05,-8e-05,-8e-05,-6e-05,-0.00036,0.0003,-5e-05,8e-05,4,28
41288,-3e-05,-8e-05,-8e-05,-6e-05,-0.00036,0.0003,-5e-05,8e-05,4,28
41289,-3e-05,-8e-05,-8e-05,-6e-05,-0.00036,0.0003,-5e-05,8e-05,4,28
41290,-3e-05,-8e-05,-8e-05,-6e-05,-0.00036,0.0003,-5e-05,8e-05,4,28
41291,-3e-05,-8e-05,-8e-05,-6e-05,-0.00036,0.0003,-5e-05,8e-05,4,28
41292,-3e-05,-8e-05,-8e-05,-6e-05,-0.00036,0.0003,-5e-05,8e-05,4,28
41293,-3e-05,-8e-05,-8e-05,-6e-05,-0.00036,0.0003,-5e-05,8e-05,4,28
41294,-3e-05,-8e-05,-8e-05,-6e-05,-0.00036,0.0003,-5e-05,8e-05,4,28
41295,-3e-05,-8e-05,-8e-05,-6e-05,-0.00036,0.0003,-5e-05,8e-05,4,28
41296,-3e-05,-8e-05,-8e-05,-6e-05,-0.00036,0.0003,-5e-05,8e-05,4,28
41297,-3e-05,-8e-05,-8e-05,-6e-05,-0.00036,0.0003,-5e-05,8e-05,4,28
41298,-1e-05,-2e-05,-0.0002,-2e-05,-0.00038,0.00011,-0.0002,-0.00015,4,28
41299,-1e-05,-2e-05,-0.0002,-2e-05,-0.00038,0.00011,-0.0002,-0.00015,4,28
41300,0,-7e-05,0.00018,-1e-05,0.00048,6e-05,6e-05,0.00021,4,28
41301,0,-7e-05,0.00018,-1e-05,0.00048,6e-05,6e-05,0.00021,4,28
41302,0,-7e-05,0.00018,-1e-05,0.00048,6e-05,6e-05,0.00021,4,28
41303,0,-7e-05,0.00018,-1e-05,0.00048,6e-05,6e-05,0.00021,4,28
41304,0,-7e-05,0.00018,-1e-05,0.00048,6e-05,6e-05,0.00021,4,28
41305,0,-7e-05,0.00018,-1e-05,0.00048,6e-05,6e-05,0.00021,4,28
41306,0,-7e-05,0.00018,-1e-05,0.00048,6e-05,6e-05,0.00021,4,28
41307,0,-7e-05,0.00018,-1e-05,0.00048,6e-05,6e-05,0.00021,4,28
41308,0,-7e-05,0.00018,-1e-05,0.00048,6e-05,6e-05,0.00021,4,28
41309,0,-7e-05,0.00018,-1e-05,0.00048,6e-05,6e-05,0.00021,4,28
41310,0,-7e-05,0.00018,-1e-05,0.00048,6e-05,6e-05,0.00021,4,28
41311,0,-7e-05,0.00018,-1e-05,0.00048,6e-05,6e-05,0.00021,4,28
41312,0,-7e-05,0.00018,-1e-05,0.00048,6e-05,6e-05,0.00021,4,28
41313,1e-05,5e-05,-7e-05,-0.00012,-1e-05,0.00056,0.00017,5e-05,4,28
41314,1e-05,5e-05,-7e-05,-0.00012,-1e-05,0.00056,0.00017,5e-05,4,28
41315,1e-05,5e-05,-7e-05,-0.00012,-1e-05,0.00056,0.00017,5e-05,4,28
41316,1e-05,5e-05,-7e-05,-0.00012,-1e-05,0.00056,0.00017,5e-05,4,28
41317,1e-05,5e-05,-7e-05,-0.00012,-1e-05,0.00056,0.00017,5e-05,4,28
41318,1e-05,5e-05,-7e-05,-0.00012,-1e-05,0.00056,0.00017,5e-05,4,28
41319,1e-05,5e-05,-7e-05,-0.00012,-1e-05,0.00056,0.00017,5e-05,4,28
41320,1e-05,5e-05,-7e-05,-0.00012,-1e-05,0.00056,0.00017,5e-05,4,28
41321,-3e-05,-6e-05,-9e-05,-0.00014,-0.00031,-6e-05,-0.00018,-0.00016,4,28
41322,-3e-05,-6e-05,-9e-05,-0.00014,-0.00031,-6e-05,-0.00018,-0.00016,4,28
41323,-3e-05,-6e-05,-9e-05,-0.00014,-0.00031,-6e-05,-0.00018,-0.00016,4,28
41324,-3e-05,-6e-05,-9e-05,-0.00014,-0.00031,-6e-05,-0.00018,-0.00016,4,28
41325,-3e-05,-6e-05,-9e-05,-0.00014,-0.00031,-6e-05,-0.00018,-0.00016,4,28
41326,-3e-05,-6e-05,-9e-05,-0.00014,-0.00031,-6e-05,-0.00018,-0.00016,4,28
41327,-3e-05,-6e-05,-9e-05,-0.00014,-0.00031,-6e-05,-0.00018,-0.00016,4,28
41328,-3e-05,-6e-05,-9e-05,-0.00014,-0.00031,-6e-05,-0.00018,-0.00016,4,28
41329,-3e-05,-6e-05,-9e-05,-0.00014,-0.00031,-6e-05,-0.00018,-0.00016,4,28
41330,-3e-05,-6e-05,-9e-05,-0.00014,-0.00031,-6e-05,-0.00018,-0.00016,4,28
41331,-3e-05,-6e-05,-9e-05,-0.00014,-0.00031,-6e-05,-0.00018,-0.00016,4,28
41332,-3e-05,-6e-05,-9e-05,-0.00014,-0.00031,-6e-05,-0.00018,-0.00016,4,28
41333,-3e-05,-6e-05,-9e-05,-0.00014,-0.00031,-6e-05,-0.00018,-0.00016,4,28
41334,-3e-05,-6e-05,-9e-05,-0.00014,-0.00031,-6e-05,-0.00018,-0.00016,4,28
41335,-3e-05,-6e-05,-9e-05,-0.00014,-0.00031,-6e-05,-0.00018,-0.00016,4,28
41336,-4e-05,-7e-05,-0.00011,-8e-05,0.00015,-0.00043,1e-05,-6e-05,4,28
41338,0.0001,0.00012,0.00036,0.00013,0.00036,-7e-05,0.00016,0.00029,4,28
41339,0.0001,0.00012,0.00036,0.00013,0.00036,-7e-05,0.00016,0.00029,4,28
41340,0.0001,0.00012,0.00036,0.00013,0.00036,-7e-05,0.00016,0.00029,4,28
41341,0.0001,0.00012,0.00036,0.00013,0.00036,-7e-05,0.00016,0.00029,4,28
41342,0.0001,0.00012,0.00036,0.00013,0.00036,-7e-05,0.00016,0.00029,4,28
41343,0.0001,0.00012,0.00036,0.00013,0.00036,-7e-05,0.00016,0.00029,4,28
41344,0.0001,0.00012,0.00036,0.00013,0.00036,-7e-05,0.00016,0.00029,4,28
41345,0.0001,0.00012,0.00036,0.00013,0.00036,-7e-05,0.00016,0.00029,4,28
41346,0.0001,0.00012,0.00036,0.00013,0.00036,-7e-05,0.00016,0.00029,4,28
41347,0.0001,0.00012,0.00036,0.00013,0.00036,-7e-05,0.00016,0.00029,4,28
41348,0.0001,0.00012,0.00036,0.00013,0.00036,-7e-05,0.00016,0.00029,4,28
41349,0.0001,0.00012,0.00036,0.00013,0.00036,-7e-05,0.00016,0.00029,4,28
41350,0.0001,0.00012,0.00036,0.00013,0.00036,-7e-05,0.00016,0.00029,4,28
41351,0.0001,0.00012,0.00036,0.00013,0.00036,-7e-05,0.00016,0.00029,4,28
41352,0.0001,0.00012,0.00036,0.00013,0.00036,-7e-05,0.00016,0.00029,4,28
41353,0.0001,0.00012,0.00036,0.00013,0.00036,-7e-05,0.00016,0.00029,4,28
41354,0.0001,0.00012,0.00036,0.00013,0.00036,-7e-05,0.00016,0.00029,4,28
41355,0.0001,0.00012,0.00036,0.00013,0.00036,-7e-05,0.00016,0.00029,4,28
41356,0.0001,0.00012,0.00036,0.00013,0.00036,-7e-05,0.00016,0.00029,4,28
41357,0.0001,0.00012,0.00036,0.00013,0.00036,-7e-05,0.00016,0.00029,4,28
41358,7e-05,7e-05,5e-05,0.00033,0.00073,2e-05,0.00021,0.0005,4,28
41359,7e-05,7e-05,5e-05,0.00033,0.00073,2e-05,0.00021,0.0005,4,28
41360,-3e-05,-0.00012,-0.0001,0.00014,7e-05,0.00079,0.00022,0.00012,4,28
41361,-3e-05,-0.00012,-0.0001,0.00014,7e-05,0.00079,0.00022,0.00012,4,28
41362,-3e-05,-0.00012,-0.0001,0.00014,7e-05,0.00079,0.00022,0.00012,4,28
41363,-3e-05,-0.00012,-0.0001,0.00014,7e-05,0.00079,0.00022,0.00012,4,28
41364,-3e-05,-0.00012,-0.0001,0.00014,7e-05,0.00079,0.00022,0.00012,4,28
41365,-3e-05,-0.00012,-0.0001,0.00014,7e-05,0.00079,0.00022,0.00012,4,28
41366,-3e-05,-0.00012,-0.0001,0.00014,7e-05,0.00079,0.00022,0.00012,4,28
41367,-3e-05,-0.00012,-0.0001,0.00014,7e-05,0.00079,0.00022,0.00012,4,28
41368,-3e-05,-0.00012,-0.0001,0.00014,7e-05,0.00079,0.00022,0.00012,4,28
41369,-3e-05,-0.00012,-0.0001,0.00014,7e-05,0.00079,0.00022,0.00012,4,28
41370,-3e-05,-0.00012,-0.0001,0.00014,7e-05,0.00079,0.00022,0.00012,4,28
41371,-3e-05,-0.00012,-0.0001,0.00014,7e-05,0.00079,0.00022,0.00012,4,28
41372,-3e-05,-0.00012,-0.0001,0.00014,7e-05,0.00079,0.00022,0.00012,4,28
41373,-2e-05,-8e-05,-4e-05,-1e-05,0.00011,-6e-05,-0.0001,-0.00011,4,28
41374,-2e-05,-8e-05,-4e-05,-1e-05,0.00011,-6e-05,-0.0001,-0.00011,4,28
41375,-2e-05,-8e-05,-4e-05,-1e-05,0.00011,-6e-05,-0.0001,-0.00011,4,28
41376,-2e-05,-8e-05,-4e-05,-1e-05,0.00011,-6e-05,-0.0001,-0.00011,4,28
41377,-2e-05,-8e-05,-4e-05,-1e-05,0.00011,-6e-05,-0.0001,-0.00011,4,28
41378,-2e-05,-8e-05,-4e-05,-1e-05,0.00011,-6e-05,-0.0001,-0.00011,4,28
41379,2e-05,0.00013,0.00013,3e-05,-0.00028,-0.00033,1e-05,0.00028,4,28
41380,2e-05,0.00013,0.00013,3e-05,-0.00028,-0.00033,1e-05,0.00028,4,28
41381,2e-05,0.00013,0.00013,3e-05,-0.00028,-0.00033,1e-05,0.00028,4,28
41382,2e-05,0.00013,0.00013,3e-05,-0.00028,-0.00033,1e-05,0.00028,4,28
41383,2e-05,0.00013,0.00013,3e-05,-0.00028,-0.00033,1e-05,0.00028,4,28
41384,2e-05,0.00013,0.00013,3e-05,-0.00028,-0.00033,1e-05,0.00028,4,28
41385,2e-05,0.00013,0.00013,3e-05,-0.00028,-0.00033,1e-05,0.00028,4,28
41386,2e-05,0.00013,0.00013,3e-05,-0.00028,-0.00033,1e-05,0.00028,4,28
41388,2e-05,0.00013,0.00013,3e-05,-0.00028,-0.00033,1e-05,0.00028,4,28
41389,2e-05,0.00013,0.00013,3e-05,-0.00028,-0.00033,1e-05,0.00028,4,28
41390,2e-05,0.00013,0.00013,3e-05,-0.00028,-0.00033,1e-05,0.00028,4,28
41391,2e-05,0.00013,0.00013,3e-05,-0.00028,-0.00033,1e-05,0.00028,4,28
41392,2e-05,0.00013,0.00013,3e-05,-0.00028,-0.00033,1e-05,0.00028,4,28
41393,2e-05,0.00013,0.00013,3e-05,-0.00028,-0.00033,1e-05,0.00028,4,28
41394,2e-05,0.00013,0.00013,3e-05,-0.00028,-0.00033,1e-05,0.00028,4,28
41395,2e-05,-0.0001,-1e-05,2e-05,-0.00015,0.00011,-9e-05,-3e-05,4,28
41396,2e-05,-0.0001,-1e-05,2e-05,-0.00015,0.00011,-9e-05,-3e-05,4,28
41397,2e-05,-0.0001,-1e-05,2e-05,-0.00015,0.00011,-9e-05,-3e-05,4,28
41398,2e-05,-0.0001,-1e-05,2e-05,-0.00015,0.00011,-9e-05,-3e-05,4,28
41399,2e-05,-0.0001,-1e-05,2e-05,-0.00015,0.00011,-9e-05,-3e-05,4,28
41400,2e-05,-0.0001,-1e-05,2e-05,-0.00015,0.00011,-9e-05,-3e-05,4,28
41401,2e-05,-0.0001,-1e-05,2e-05,-0.00015,0.00011,-9e-05,-3e-05,4,28
41402,2e-05,-0.0001,-1e-05,2e-05,-0.00015,0.00011,-9e-05,-3e-05,4,28
41403,-5e-05,-0.00014,-3e-05,-7e-05,-6e-05,-0.0002,-0.00011,-0.0001,4,28
41404,-5e-05,-6e-05,-0.00027,-0.00025,-0.00056,-4e-05,-5e-05,-9e-05,4,28
41405,-5e-05,-6e-05,-0.00027,-0.00025,-0.00056,-4e-05,-5e-05,-9e-05,4,28
41406,-5e-05,-6e-05,-0.00027,-0.00025,-0.00056,-4e-05,-5e-05,-9e-05,4,28
41407,-5e-05,-6e-05,-0.00027,-0.00025,-0.00056,-4e-05,-5e-05,-9e-05,4,28
41408,-5e-05,-6e-05,-0.00027,-0.00025,-0.00056,-4e-05,-5e-05,-9e-05,4,28
41409,-5e-05,-6e-05,-0.00027,-0.00025,-0.00056,-4e-05,-5e-05,-9e-05,4,28
41410,-5e-05,-6e-05,-0.00027,-0.00025,-0.00056,-4e-05,-5e-05,-9e-05,4,28
41411,-5e-05,-6e-05,-0.00027,-0.00025,-0.00056,-4e-05,-5e-05,-9e-05,4,28
41412,-5e-05,-6e-05,-0.00027,-0.00025,-0.00056,-4e-05,-5e-05,-9e-05,4,28
41413,-5e-05,-6e-05,-0.00027,-0.00025,-0.00056,-4e-05,-5e-05,-9e-05,4,28
41414,-5e-05,-6e-05,-0.00027,-0.00025,-0.00056,-4e-05,-5e-05,-9e-05,4,28
41415,-5e-05,-6e-05,-0.00027,-0.00025,-0.00056,-4e-05,-5e-05,-9e-05,4,28
41416,-5e-05,-6e-05,-0.00027,-0.00025,-0.00056,-4e-05,-5e-05,-9e-05,4,28
41417,-5e-05,-6e-05,-0.00027,-0.00025,-0.00056,-4e-05,-5e-05,-9e-05,4,28
41418,-5e-05,-6e-05,-0.00027,-0.00025,-0.00056,-4e-05,-5e-05,-9e-05,4,28
41419,0,-5e-05,-5e-05,0.00025,0.00065,0.0003,1e-05,4e-05,4,28
41420,-1e-05,-3e-05,-0.00024,2e-05,7e-05,5e-05,-1e-05,-0.00015,4,28
41421,-1e-05,-3e-05,-0.00024,2e-05,7e-05,5e-05,-1e-05,-0.00015,4,28
41422,-1e-05,-3e-05,-0.00024,2e-05,7e-05,5e-05,-1e-05,-0.00015,4,28
41423,-1e-05,-3e-05,-0.00024,2e-05,7e-05,5e-05,-1e-05,-0.00015,4,28
41424,-1e-05,-3e-05,-0.00024,2e-05,7e-05,5e-05,-1e-05,-0.00015,4,28
41425,-1e-05,-3e-05,-0.00024,2e-05,7e-05,5e-05,-1e-05,-0.00015,4,28
41426,-1e-05,-3e-05,-0.00024,2e-05,7e-05,5e-05,-1e-05,-0.00015,4,28
41427,-1e-05,-3e-05,-0.00024,2e-05,7e-05,5e-05,-1e-05,-0.00015,4,28
41428,-1e-05,-3e-05,-0.00024,2e-05,7e-05,5e-05,-1e-05,-0.00015,4,28
41429,-1e-05,-3e-05,-0.00024,2e-05,7e-05,5e-05,-1e-05,-0.00015,4,28
41430,-1e-05,-3e-05,-0.00024,2e-05,7e-05,5e-05,-1e-05,-0.00015,4,28
41431,-1e-05,-3e-05,-0.00024,2e-05,7e-05,5e-05,-1e-05,-0.00015,4,28
41432,-1e-05,-3e-05,-0.00024,2e-05,7e-05,5e-05,-1e-05,-0.00015,4,28
41433,7e-05,9e-05,0.0002,0.00016,-0.00082,-0.00016,-4e-05,-7e-05,4,28
41434,7e-05,9e-05,0.0002,0.00016,-0.00082,-0.00016,-4e-05,-7e-05,4,28
41435,7e-05,9e-05,0.0002,0.00016,-0.00082,-0.00016,-4e-05,-7e-05,4,28
41436,7e-05,9e-05,0.0002,0.00016,-0.00082,-0.00016,-4e-05,-7e-05,4,28
41438,7e-05,9e-05,0.0002,0.00016,-0.00082,-0.00016,-4e-05,-7e-05,4,28
41439,1e-05,1e-05,8e-05,0.00014,-0.00061,0.0005,0.00017,1e-05,4,28
41440,1e-05,1e-05,8e-05,0.00014,-0.00061,0.0005,0.00017,1e-05,4,28
41441,1e-05,1e-05,8e-05,0.00014,-0.00061,0.0005,0.00017,1e-05,4,28
41442,1e-05,1e-05,8e-05,0.00014,-0.00061,0.0005,0.00017,1e-05,4,28
41443,1e-05,1e-05,8e-05,0.00014,-0.00061,0.0005,0.00017,1e-05,4,28
41444,1e-05,1e-05,8e-05,0.00014,-0.00061,0.0005,0.00017,1e-05,4,28
41445,1e-05,1e-05,8e-05,0.00014,-0.00061,0.0005,0.00017,1e-05,4,28
41446,1e-05,1e-05,8e-05,0.00014,-0.00061,0.0005,0.00017,1e-05,4,28
41447,1e-05,1e-05,8e-05,0.00014,-0.00061,0.0005,0.00017,1e-05,4,28
41448,1e-05,1e-05,8e-05,0.00014,-0.00061,0.0005,0.00017,1e-05,4,28
41449,1e-05,1e-05,8e-05,0.00014,-0.00061,0.0005,0.00017,1e-05,4,28
41450,1e-05,1e-05,8e-05,0.00014,-0.00061,0.0005,0.00017,1e-05,4,28
41451,1e-05,1e-05,8e-05,0.00014,-0.00061,0.0005,0.00017,1e-05,4,28
41452,1e-05,1e-05,8e-05,0.00014,-0.00061,0.0005,0.00017,1e-05,4,28
41453,1e-05,1e-05,8e-05,0.00014,-0.00061,0.0005,0.00017,1e-05,4,28
41454,1e-05,1e-05,8e-05,0.00014,-0.00061,0.0005,0.00017,1e-05,4,28
41455,1e-05,1e-05,8e-05,0.00014,-0.00061,0.0005,0.00017,1e-05,4,28
41456,-3e-05,1e-05,-2e-05,-1e-05,0.00059,0.00011,-7e-05,9e-05,4,28
41457,-4e-05,2e-05,0,-0.00014,-0.00018,-0.00046,-0.00018,-0.00017,4,28
41458,-4e-05,2e-05,0,-0.00014,-0.00018,-0.00046,-0.00018,-0.00017,4,28
41459,-4e-05,2e-05,0,-0.00014,-0.00018,-0.00046,-0.00018,-0.00017,4,28
41460,-4e-05,2e-05,0,-0.00014,-0.00018,-0.00046,-0.00018,-0.00017,4,28
41462,-4e-05,2e-05,0,-0.00014,-0.00018,-0.00046,-0.00018,-0.00017,4,28
41463,-4e-05,2e-05,0,-0.00014,-0.00018,-0.00046,-0.00018,-0.00017,4,28
41464,-4e-05,2e-05,0,-0.00014,-0.00018,-0.00046,-0.00018,-0.00017,4,28
41465,-4e-05,2e-05,0,-0.00014,-0.00018,-0.00046,-0.00018,-0.00017,4,28
41466,-4e-05,2e-05,0,-0.00014,-0.00018,-0.00046,-0.00018,-0.00017,4,28
41467,-4e-05,2e-05,0,-0.00014,-0.00018,-0.00046,-0.00018,-0.00017,4,28
41468,-4e-05,2e-05,0,-0.00014,-0.00018,-0.00046,-0.00018,-0.00017,4,28
41469,-4e-05,2e-05,0,-0.00014,-0.00018,-0.00046,-0.00018,-0.00017,4,28
41470,-4e-05,2e-05,0,-0.00014,-0.00018,-0.00046,-0.00018,-0.00017,4,28
41471,-4e-05,2e-05,0,-0.00014,-0.00018,-0.00046,-0.00018,-0.00017,4,28
41472,-4e-05,2e-05,0,-0.00014,-0.00018,-0.00046,-0.00018,-0.00017,4,28
41473,-4e-05,2e-05,0,-0.00014,-0.00018,-0.00046,-0.00018,-0.00017,4,28
41474,-4e-05,2e-05,0,-0.00014,-0.00018,-0.00046,-0.00018,-0.00017,4,28
41475,-4e-05,2e-05,0,-0.00014,-0.00018,-0.00046,-0.00018,-0.00017,4,28
41476,-4e-05,2e-05,0,-0.00014,-0.00018,-0.00046,-0.00018,-0.00017,4,28
41477,-4e-05,2e-05,0,-0.00014,-0.00018,-0.00046,-0.00018,-0.00017,4,28
41478,6e-05,0.00016,5e-05,0.00019,0.00017,0.00053,0.00013,-4e-05,4,28
41479,6e-05,0.00016,5e-05,0.00019,0.00017,0.00053,0.00013,-4e-05,4,28
41480,-3e-05,-6e-05,0.00028,3e-05,0.00015,-7e-05,-2e-05,-8e-05,4,28
41481,-3e-05,-6e-05,0.00028,3e-05,0.00015,-7e-05,-2e-05,-8e-05,4,28
41482,-3e-05,-6e-05,0.00028,3e-05,0.00015,-7e-05,-2e-05,-8e-05,4,28
41483,-3e-05,-6e-05,0.00028,3e-05,0.00015,-7e-05,-2e-05,-8e-05,4,28
41484,-3e-05,-6e-05,0.00028,3e-05,0.00015,-7e-05,-2e-05,-8e-05,4,28
41485,-3e-05,-6e-05,0.00028,3e-05,0.00015,-7e-05,-2e-05,-8e-05,4,28
41486,-3e-05,-6e-05,0.00028,3e-05,0.00015,-7e-05,-2e-05,-8e-05,4,28
41488,-3e-05,-6e-05,0.00028,3e-05,0.00015,-7e-05,-2e-05,-8e-05,4,28
41489,-3e-05,-6e-05,0.00028,3e-05,0.00015,-7e-05,-2e-05,-8e-05,4,28
41490,-3e-05,-6e-05,0.00028,3e-05,0.00015,-7e-05,-2e-05,-8e-05,4,28
41491,-3e-05,-6e-05,0.00028,3e-05,0.00015,-7e-05,-2e-05,-8e-05,4,28
41492,-3e-05,-6e-05,0.00028,3e-05,0.00015,-7e-05,-2e-05,-8e-05,4,28
41493,-7e-05,-1e-05,-0.00024,-0.00017,-0.00012,-0.00013,-8e-05,-0.0003,4,28
41494,-7e-05,-1e-05,-0.00024,-0.00017,-0.00012,-0.00013,-8e-05,-0.0003,4,28
41495,-7e-05,-1e-05,-0.00024,-0.00017,-0.00012,-0.00013,-8e-05,-0.0003,4,28
41496,-7e-05,-1e-05,-0.00024,-0.00017,-0.00012,-0.00013,-8e-05,-0.0003,4,28
41497,-7e-05,-1e-05,-0.00024,-0.00017,-0.00012,-0.00013,-8e-05,-0.0003,4,28
41498,-7e-05,-1e-05,-0.00024,-0.00017,-0.00012,-0.00013,-8e-05,-0.0003,4,28
41499,6e-05,8e-05,6e-05,0,0.00066,0.00053,0.00016,0.0003,4,28
41500,6e-05,8e-05,6e-05,0,0.00066,0.00053,0.00016,0.0003,4,28
41501,6e-05,8e-05,6e-05,0,0.00066,0.00053,0.00016,0.0003,4,28
41502,6e-05,8e-05,6e-05,0,0.00066,0.00053,0.00016,0.0003,4,28
41503,6e-05,8e-05,6e-05,0,0.00066,0.00053,0.00016,0.0003,4,28
41504,6e-05,8e-05,6e-05,0,0.00066,0.00053,0.00016,0.0003,4,28
41505,6e-05,8e-05,6e-05,0,0.00066,0.00053,0.00016,0.0003,4,28
41506,6e-05,8e-05,6e-05,0,0.00066,0.00053,0.00016,0.0003,4,28
41507,6e-05,8e-05,6e-05,0,0.00066,0.00053,0.00016,0.0003,4,28
41508,6e-05,8e-05,6e-05,0,0.00066,0.00053,0.00016,0.0003,4,28
41509,6e-05,8e-05,6e-05,0,0.00066,0.00053,0.00016,0.0003,4,28
41510,6e-05,8e-05,6e-05,0,0.00066,0.00053,0.00016,0.0003,4,28
41511,6e-05,8e-05,6e-05,0,0.00066,0.00053,0.00016,0.0003,4,28
41512,6e-05,8e-05,6e-05,0,0.00066,0.00053,0.00016,0.0003,4,28
41513,6e-05,8e-05,6e-05,0,0.00066,0.00053,0.00016,0.0003,4,28
41514,6e-05,8e-05,6e-05,0,0.00066,0.00053,0.00016,0.0003,4,28
41515,6e-05,8e-05,6e-05,0,0.00066,0.00053,0.00016,0.0003,4,28
41516,2e-05,0,8e-05,-0.0001,-0.00069,7e-05,5e-05,2e-05,4,28
41517,-0.0001,-0.00014,-0.00029,-0.00046,-0.00067,-0.00107,-0.00039,-0.00025,4,28
41518,-0.0001,-0.00014,-0.00029,-0.00046,-0.00067,-0.00107,-0.00039,-0.00025,4,28
41519,-0.0001,-0.00014,-0.00029,-0.00046,-0.00067,-0.00107,-0.00039,-0.00025,4,28
41520,-0.0001,-0.00014,-0.00029,-0.00046,-0.00067,-0.00107,-0.00039,-0.00025,4,28
41521,-0.0001,-0.00014,-0.00029,-0.00046,-0.00067,-0.00107,-0.00039,-0.00025,4,28
41522,-0.0001,-0.00014,-0.00029,-0.00046,-0.00067,-0.00107,-0.00039,-0.00025,4,28
41523,-0.0001,-0.00014,-0.00029,-0.00046,-0.00067,-0.00107,-0.00039,-0.00025,4,28
41524,-0.0001,-0.00014,-0.00029,-0.00046,-0.00067,-0.00107,-0.00039,-0.00025,4,28
41525,-0.0001,-0.00014,-0.00029,-0.00046,-0.00067,-0.00107,-0.00039,-0.00025,4,28
41526,-0.0001,-0.00014,-0.00029,-0.00046,-0.00067,-0.00107,-0.00039,-0.00025,4,28
41527,-0.0001,-0.00014,-0.00029,-0.00046,-0.00067,-0.00107,-0.00039,-0.00025,4,28
41528,-0.0001,-0.00014,-0.00029,-0.00046,-0.00067,-0.00107,-0.00039,-0.00025,4,28
41529,-0.0001,-0.00014,-0.00029,-0.00046,-0.00067,-0.00107,-0.00039,-0.00025,4,28
41530,-0.0001,-0.00014,-0.00029,-0.00046,-0.00067,-0.00107,-0.00039,-0.00025,4,28
41531,-0.0001,-0.00014,-0.00029,-0.00046,-0.00067,-0.00107,-0.00039,-0.00025,4,28
41532,-0.0001,-0.00014,-0.00029,-0.00046,-0.00067,-0.00107,-0.00039,-0.00025,4,28
41533,-0.0001,-0.00014,-0.00029,-0.00046,-0.00067,-0.00107,-0.00039,-0.00025,4,28
41534,-0.0001,-0.00014,-0.00029,-0.00046,-0.00067,-0.00107,-0.00039,-0.00025,4,28
41535,-0.0001,-0.00014,-0.00029,-0.00046,-0.00067,-0.00107,-0.00039,-0.00025,4,28
41536,-0.0001,-0.00014,-0.00029,-0.00046,-0.00067,-0.00107,-0.00039,-0.00025,4,28
41538,5e-05,0,7e-05,2e-05,0.0003,-4e-05,-7e-05,6e-05,4,28
41539,1e-05,-1e-05,8e-05,0.00024,0.0003,-0.0003,0.00019,-1e-05,4,28
41540,3e-05,-4e-05,0.00024,0.00014,0,0.00018,0.00016,7e-05,4,28
41541,3e-05,-4e-05,0.00024,0.00014,0,0.00018,0.00016,7e-05,4,28
41542,3e-05,-4e-05,0.00024,0.00014,0,0.00018,0.00016,7e-05,4,28
41543,3e-05,-4e-05,0.00024,0.00014,0,0.00018,0.00016,7e-05,4,28
41544,3e-05,-4e-05,0.00024,0.00014,0,0.00018,0.00016,7e-05,4,28
41545,3e-05,-4e-05,0.00024,0.00014,0,0.00018,0.00016,7e-05,4,28
41546,3e-05,-4e-05,0.00024,0.00014,0,0.00018,0.00016,7e-05,4,28
41547,3e-05,-4e-05,0.00024,0.00014,0,0.00018,0.00016,7e-05,4,28
41548,3e-05,-4e-05,0.00024,0.00014,0,0.00018,0.00016,7e-05,4,28
41549,3e-05,-4e-05,0.00024,0.00014,0,0.00018,0.00016,7e-05,4,28
41550,3e-05,-4e-05,0.00024,0.00014,0,0.00018,0.00016,7e-05,4,28
41551,3e-05,-4e-05,0.00024,0.00014,0,0.00018,0.00016,7e-05,4,28
41552,0.00012,0.00015,1e-05,0.00023,0.00082,0.00104,0.00024,0.00029,4,28
41553,-2e-05,-0.0001,8e-05,-2e-05,-0.00037,-0.0003,7e-05,-6e-05,4,28
41555,-2e-05,-0.0001,8e-05,-2e-05,-0.00037,-0.0003,7e-05,-6e-05,4,28
41556,-2e-05,-0.0001,8e-05,-2e-05,-0.00037,-0.0003,7e-05,-6e-05,4,28
41557,-2e-05,-0.0001,8e-05,-2e-05,-0.00037,-0.0003,7e-05,-6e-05,4,28
41558,-2e-05,-0.0001,8e-05,-2e-05,-0.00037,-0.0003,7e-05,-6e-05,4,28
41559,-4e-05,-0.00011,-0.00023,-0.00018,-0.00023,-0.00031,-0.00011,-4e-05,4,28
41560,-4e-05,-0.00011,-0.00023,-0.00018,-0.00023,-0.00031,-0.00011,-4e-05,4,28
41561,-4e-05,-0.00011,-0.00023,-0.00018,-0.00023,-0.00031,-0.00011,-4e-05,4,28
41562,-4e-05,-0.00011,-0.00023,-0.00018,-0.00023,-0.00031,-0.00011,-4e-05,4,28
41563,-4e-05,-0.00011,-0.00023,-0.00018,-0.00023,-0.00031,-0.00011,-4e-05,4,28
41564,-4e-05,-0.00011,-0.00023,-0.00018,-0.00023,-0.00031,-0.00011,-4e-05,4,28
41565,-4e-05,-0.00011,-0.00023,-0.00018,-0.00023,-0.00031,-0.00011,-4e-05,4,28
41566,-4e-05,-0.00011,-0.00023,-0.00018,-0.00023,-0.00031,-0.00011,-4e-05,4,28
41567,-4e-05,-0.00011,-0.00023,-0.00018,-0.00023,-0.00031,-0.00011,-4e-05,4,28
41568,-4e-05,-0.00011,-0.00023,-0.00018,-0.00023,-0.00031,-0.00011,-4e-05,4,28
41569,-4e-05,-0.00011,-0.00023,-0.00018,-0.00023,-0.00031,-0.00011,-4e-05,4,28
41570,-4e-05,-0.00011,-0.00023,-0.00018,-0.00023,-0.00031,-0.00011,-4e-05,4,28
41571,-4e-05,-0.00011,-0.00023,-0.00018,-0.00023,-0.00031,-0.00011,-4e-05,4,28
