20159,-7e-05,-0.00011,-0.00018,0.00024,-4e-05,-0.00024,-0.00011,-7e-05,4,30
20160,-7e-05,-0.00011,-0.00018,0.00024,-4e-05,-0.00024,-0.00011,-7e-05,4,30
20161,-7e-05,-0.00011,-0.00018,0.00024,-4e-05,-0.00024,-0.00011,-7e-05,4,30
20162,2e-05,7e-05,6e-05,-4e-05,-0.00047,0.00034,6e-05,5e-05,4,30
20163,2e-05,7e-05,6e-05,-4e-05,-0.00047,0.00034,6e-05,5e-05,4,30
20164,2e-05,7e-05,6e-05,-4e-05,-0.00047,0.00034,6e-05,5e-05,4,30
20165,2e-05,7e-05,6e-05,-4e-05,-0.00047,0.00034,6e-05,5e-05,4,30
20166,2e-05,7e-05,6e-05,-4e-05,-0.00047,0.00034,6e-05,5e-05,4,30
20167,2e-05,7e-05,6e-05,-4e-05,-0.00047,0.00034,6e-05,5e-05,4,30
20168,2e-05,7e-05,6e-05,-4e-05,-0.00047,0.00034,6e-05,5e-05,4,30
20169,2e-05,7e-05,6e-05,-4e-05,-0.00047,0.00034,6e-05,5e-05,4,30
20170,2e-05,7e-05,6e-05,-4e-05,-0.00047,0.00034,6e-05,5e-05,4,30
20171,2e-05,7e-05,6e-05,-4e-05,-0.00047,0.00034,6e-05,5e-05,4,30
20172,2e-05,7e-05,6e-05,-4e-05,-0.00047,0.00034,6e-05,5e-05,4,30
20173,2e-05,7e-05,6e-05,-4e-05,-0.00047,0.00034,6e-05,5e-05,4,30
20174,2e-05,7e-05,6e-05,-4e-05,-0.00047,0.00034,6e-05,5e-05,4,30
20175,2e-05,7e-05,6e-05,-4e-05,-0.00047,0.00034,6e-05,5e-05,4,30
20176,4e-05,9e-05,0.00019,0.00011,0.00015,-5e-05,8e-05,5e-05,4,30
20177,-1e-05,0,0,7e-05,0.00029,0.00038,-8e-05,-2e-05,4,30
20178,-1e-05,0,0,7e-05,0.00029,0.00038,-8e-05,-2e-05,4,30
20179,-1e-05,0,0,7e-05,0.00029,0.00038,-8e-05,-2e-05,4,30
20180,-1e-05,0,0,7e-05,0.00029,0.00038,-8e-05,-2e-05,4,30
20181,-1e-05,0,0,7e-05,0.00029,0.00038,-8e-05,-2e-05,4,30
20182,-1e-05,0,0,7e-05,0.00029,0.00038,-8e-05,-2e-05,4,30
20183,-1e-05,0,0,7e-05,0.00029,0.00038,-8e-05,-2e-05,4,30
20184,-1e-05,0,0,7e-05,0.00029,0.00038,-8e-05,-2e-05,4,30
20185,-1e-05,0,0,7e-05,0.00029,0.00038,-8e-05,-2e-05,4,30
20186,-1e-05,0,0,7e-05,0.00029,0.00038,-8e-05,-2e-05,4,30
20188,-1e-05,0,0,7e-05,0.00029,0.00038,-8e-05,-2e-05,4,30
20189,-1e-05,0,0,7e-05,0.00029,0.00038,-8e-05,-2e-05,4,30
20190,-1e-05,0,0,7e-05,0.00029,0.00038,-8e-05,-2e-05,4,30
20191,-1e-05,0,0,7e-05,0.00029,0.00038,-8e-05,-2e-05,4,30
20192,-1e-05,0,0,7e-05,0.00029,0.00038,-8e-05,-2e-05,4,30
20193,-1e-05,0,0,7e-05,0.00029,0.00038,-8e-05,-2e-05,4,30
20194,-1e-05,0,0,7e-05,0.00029,0.00038,-8e-05,-2e-05,4,30
20195,-1e-05,0,0,7e-05,0.00029,0.00038,-8e-05,-2e-05,4,30
20196,-1e-05,0,0,7e-05,0.00029,0.00038,-8e-05,-2e-05,4,30
20197,-1e-05,0,0,7e-05,0.00029,0.00038,-8e-05,-2e-05,4,30
20198,-1e-05,0,0,7e-05,0.00029,0.00038,-8e-05,-2e-05,4,30
20199,-2e-05,-3e-05,3e-05,0.00019,6e-05,-0.00061,-5e-05,-3e-05,4,30
20200,1e-05,0,-6e-05,-0.00019,0.00018,0.0002,-0.00012,-4e-05,4,30
20201,1e-05,0,-6e-05,-0.00019,0.00018,0.0002,-0.00012,-4e-05,4,30
20202,1e-05,0,-6e-05,-0.00019,0.00018,0.0002,-0.00012,-4e-05,4,30
20203,1e-05,0,-6e-05,-0.00019,0.00018,0.0002,-0.00012,-4e-05,4,30
20204,1e-05,0,-6e-05,-0.00019,0.00018,0.0002,-0.00012,-4e-05,4,30
20205,1e-05,0,-6e-05,-0.00019,0.00018,0.0002,-0.00012,-4e-05,4,30
20206,1e-05,0,-6e-05,-0.00019,0.00018,0.0002,-0.00012,-4e-05,4,30
20207,1e-05,0,-6e-05,-0.00019,0.00018,0.0002,-0.00012,-4e-05,4,30
20208,1e-05,0,-6e-05,-0.00019,0.00018,0.0002,-0.00012,-4e-05,4,30
20209,1e-05,0,-6e-05,-0.00019,0.00018,0.0002,-0.00012,-4e-05,4,30
20210,1e-05,0,-6e-05,-0.00019,0.00018,0.0002,-0.00012,-4e-05,4,30
20211,1e-05,0,-6e-05,-0.00019,0.00018,0.0002,-0.00012,-4e-05,4,30
20212,1e-05,0,-6e-05,-0.00019,0.00018,0.0002,-0.00012,-4e-05,4,30
20213,1e-05,0,-6e-05,-0.00019,0.00018,0.0002,-0.00012,-4e-05,4,30
20214,1e-05,0,-6e-05,-0.00019,0.00018,0.0002,-0.00012,-4e-05,4,30
20215,1e-05,0,-6e-05,-0.00019,0.00018,0.0002,-0.00012,-4e-05,4,30
20216,1e-05,0,-6e-05,-0.00019,0.00018,0.0002,-0.00012,-4e-05,4,30
20217,1e-05,0,-6e-05,-0.00019,0.00018,0.0002,-0.00012,-4e-05,4,30
20218,1e-05,0,-6e-05,-0.00019,0.00018,0.0002,-0.00012,-4e-05,4,30
20219,1e-05,0,-6e-05,-0.00019,0.00018,0.0002,-0.00012,-4e-05,4,30
20220,1e-05,0,-6e-05,-0.00019,0.00018,0.0002,-0.00012,-4e-05,4,30
20221,1e-05,0,-6e-05,-0.00019,0.00018,0.0002,-0.00012,-4e-05,4,30
20222,0,-1e-05,0,5e-05,0.00037,-0.00036,-1e-05,-1e-05,4,30
20223,4e-05,6e-05,0.00013,0.00013,-0.00022,0.00026,0.00014,8e-05,4,30
20224,4e-05,6e-05,0.00013,0.00013,-0.00022,0.00026,0.00014,8e-05,4,30
20225,4e-05,6e-05,0.00013,0.00013,-0.00022,0.00026,0.00014,8e-05,4,30
20226,4e-05,6e-05,0.00013,0.00013,-0.00022,0.00026,0.00014,8e-05,4,30
20227,4e-05,6e-05,0.00013,0.00013,-0.00022,0.00026,0.00014,8e-05,4,30
20228,4e-05,6e-05,0.00013,0.00013,-0.00022,0.00026,0.00014,8e-05,4,30
20229,4e-05,6e-05,0.00013,0.00013,-0.00022,0.00026,0.00014,8e-05,4,30
20230,4e-05,6e-05,0.00013,0.00013,-0.00022,0.00026,0.00014,8e-05,4,30
20231,4e-05,6e-05,0.00013,0.00013,-0.00022,0.00026,0.00014,8e-05,4,30
20232,4e-05,6e-05,0.00013,0.00013,-0.00022,0.00026,0.00014,8e-05,4,30
20233,4e-05,6e-05,0.00013,0.00013,-0.00022,0.00026,0.00014,8e-05,4,30
20234,4e-05,6e-05,0.00013,0.00013,-0.00022,0.00026,0.00014,8e-05,4,30
20235,4e-05,6e-05,0.00013,0.00013,-0.00022,0.00026,0.00014,8e-05,4,30
20236,4e-05,6e-05,0.00013,0.00013,-0.00022,0.00026,0.00014,8e-05,4,30
20238,4e-05,6e-05,0.00013,0.00013,-0.00022,0.00026,0.00014,8e-05,4,30
20239,4e-05,6e-05,0.00013,0.00013,-0.00022,0.00026,0.00014,8e-05,4,30
20240,4e-05,6e-05,0.00013,0.00013,-0.00022,0.00026,0.00014,8e-05,4,30
20241,4e-05,6e-05,0.00013,0.00013,-0.00022,0.00026,0.00014,8e-05,4,30
20242,4e-05,6e-05,0.00013,0.00013,-0.00022,0.00026,0.00014,8e-05,4,30
20243,4e-05,6e-05,0.00013,0.00013,-0.00022,0.00026,0.00014,8e-05,4,30
20244,3e-05,3e-05,7e-05,-8e-05,0.00047,-7e-05,2e-05,1e-05,4,30
20245,-3e-05,-6e-05,-0.0002,-0.00014,0.00052,-0.0002,3e-05,-2e-05,4,30
20246,-3e-05,-6e-05,-0.0002,-0.00014,0.00052,-0.0002,3e-05,-2e-05,4,30
20247,-3e-05,-6e-05,-0.0002,-0.00014,0.00052,-0.0002,3e-05,-2e-05,4,30
20248,-3e-05,-6e-05,-0.0002,-0.00014,0.00052,-0.0002,3e-05,-2e-05,4,30
20249,-3e-05,-6e-05,-0.0002,-0.00014,0.00052,-0.0002,3e-05,-2e-05,4,30
20250,-3e-05,-6e-05,-0.0002,-0.00014,0.00052,-0.0002,3e-05,-2e-05,4,30
20251,-3e-05,-6e-05,-0.0002,-0.00014,0.00052,-0.0002,3e-05,-2e-05,4,30
20252,-3e-05,-6e-05,-0.0002,-0.00014,0.00052,-0.0002,3e-05,-2e-05,4,30
20253,-3e-05,-6e-05,-0.0002,-0.00014,0.00052,-0.0002,3e-05,-2e-05,4,30
20254,-3e-05,-6e-05,-0.0002,-0.00014,0.00052,-0.0002,3e-05,-2e-05,4,30
20255,-3e-05,-6e-05,-0.0002,-0.00014,0.00052,-0.0002,3e-05,-2e-05,4,30
20256,-3e-05,-6e-05,-0.0002,-0.00014,0.00052,-0.0002,3e-05,-2e-05,4,30
20257,-3e-05,-6e-05,-0.0002,-0.00014,0.00052,-0.0002,3e-05,-2e-05,4,30
20258,-2e-05,-4e-05,-0.00011,-9e-05,-0.00034,-9e-05,-2e-05,-1e-05,4,30
20259,4e-05,1e-05,0.00012,-3e-05,-0.00024,7e-05,8e-05,6e-05,4,30
20260,4e-05,1e-05,0.00012,-3e-05,-0.00024,7e-05,8e-05,6e-05,4,30
20261,4e-05,1e-05,0.00012,-3e-05,-0.00024,7e-05,8e-05,6e-05,4,30
20262,4e-05,1e-05,0.00012,-3e-05,-0.00024,7e-05,8e-05,6e-05,4,30
20263,4e-05,1e-05,0.00012,-3e-05,-0.00024,7e-05,8e-05,6e-05,4,30
20264,4e-05,1e-05,0.00012,-3e-05,-0.00024,7e-05,8e-05,6e-05,4,30
20265,4e-05,1e-05,0.00012,-3e-05,-0.00024,7e-05,8e-05,6e-05,4,30
20266,4e-05,1e-05,0.00012,-3e-05,-0.00024,7e-05,8e-05,6e-05,4,30
20267,4e-05,1e-05,0.00012,-3e-05,-0.00024,7e-05,8e-05,6e-05,4,30
20268,4e-05,1e-05,0.00012,-3e-05,-0.00024,7e-05,8e-05,6e-05,4,30
20269,4e-05,1e-05,0.00012,-3e-05,-0.00024,7e-05,8e-05,6e-05,4,30
20270,4e-05,1e-05,0.00012,-3e-05,-0.00024,7e-05,8e-05,6e-05,4,30
20271,4e-05,1e-05,0.00012,-3e-05,-0.00024,7e-05,8e-05,6e-05,4,30
20272,4e-05,1e-05,0.00012,-3e-05,-0.00024,7e-05,8e-05,6e-05,4,30
20273,4e-05,1e-05,0.00012,-3e-05,-0.00024,7e-05,8e-05,6e-05,4,30
20274,4e-05,1e-05,0.00012,-3e-05,-0.00024,7e-05,8e-05,6e-05,4,30
20275,4e-05,1e-05,0.00012,-3e-05,-0.00024,7e-05,8e-05,6e-05,4,30
20276,4e-05,1e-05,0.00012,-3e-05,-0.00024,7e-05,8e-05,6e-05,4,30
20277,4e-05,1e-05,0.00012,-3e-05,-0.00024,7e-05,8e-05,6e-05,4,30
20278,4e-05,1e-05,0.00012,-3e-05,-0.00024,7e-05,8e-05,6e-05,4,30
20279,4e-05,1e-05,0.00012,-3e-05,-0.00024,7e-05,8e-05,6e-05,4,30
20280,4e-05,1e-05,0.00012,-3e-05,-0.00024,7e-05,8e-05,6e-05,4,30
20281,4e-05,1e-05,0.00012,-3e-05,-0.00024,7e-05,8e-05,6e-05,4,30
20282,4e-05,1e-05,0.00012,-3e-05,-0.00024,7e-05,8e-05,6e-05,4,30
20283,4e-05,1e-05,0.00012,-3e-05,-0.00024,7e-05,8e-05,6e-05,4,30
20284,4e-05,1e-05,0.00012,-3e-05,-0.00024,7e-05,8e-05,6e-05,4,30
20285,4e-05,1e-05,0.00012,-3e-05,-0.00024,7e-05,8e-05,6e-05,4,30
20286,4e-05,1e-05,0.00012,-3e-05,-0.00024,7e-05,8e-05,6e-05,4,30
20288,4e-05,1e-05,0.00012,-3e-05,-0.00024,7e-05,8e-05,6e-05,4,30
20289,2e-05,6e-05,0.00012,0.00066,0.00021,0.00033,5e-05,2e-05,4,30
20290,-1e-05,-1e-05,-1e-05,-0.00026,-0.00071,-0.00028,-8e-05,-1e-05,4,30
20291,-1e-05,-1e-05,-1e-05,-0.00026,-0.00071,-0.00028,-8e-05,-1e-05,4,30
20292,-1e-05,-1e-05,-1e-05,-0.00026,-0.00071,-0.00028,-8e-05,-1e-05,4,30
20293,-1e-05,-1e-05,-1e-05,-0.00026,-0.00071,-0.00028,-8e-05,-1e-05,4,30
20294,-1e-05,-1e-05,-1e-05,-0.00026,-0.00071,-0.00028,-8e-05,-1e-05,4,30
20295,-1e-05,-1e-05,-1e-05,-0.00026,-0.00071,-0.00028,-8e-05,-1e-05,4,30
20296,-1e-05,4e-05,4e-05,-0.00022,-0.00037,-9e-05,-7e-05,1e-05,4,30
20297,-2e-05,-4e-05,-1e-05,0.00029,0.00053,0,5e-05,-1e-05,4,30
20298,-2e-05,-4e-05,-1e-05,0.00029,0.00053,0,5e-05,-1e-05,4,30
20299,-2e-05,-4e-05,-1e-05,0.00029,0.00053,0,5e-05,-1e-05,4,30
20300,-2e-05,-4e-05,-1e-05,0.00029,0.00053,0,5e-05,-1e-05,4,30
20301,-2e-05,-4e-05,-1e-05,0.00029,0.00053,0,5e-05,-1e-05,4,30
20302,-2e-05,-4e-05,-1e-05,0.00029,0.00053,0,5e-05,-1e-05,4,30
20303,-2e-05,-4e-05,-1e-05,0.00029,0.00053,0,5e-05,-1e-05,4,30
20304,-2e-05,-4e-05,-1e-05,0.00029,0.00053,0,5e-05,-1e-05,4,30
20305,-2e-05,-4e-05,-1e-05,0.00029,0.00053,0,5e-05,-1e-05,4,30
20306,-2e-05,-4e-05,-1e-05,0.00029,0.00053,0,5e-05,-1e-05,4,30
20307,-2e-05,-4e-05,-1e-05,0.00029,0.00053,0,5e-05,-1e-05,4,30
20308,-2e-05,-4e-05,-1e-05,0.00029,0.00053,0,5e-05,-1e-05,4,30
20309,-2e-05,-4e-05,-1e-05,0.00029,0.00053,0,5e-05,-1e-05,4,30
20310,-2e-05,-4e-05,-1e-05,0.00029,0.00053,0,5e-05,-1e-05,4,30
20311,-2e-05,-4e-05,-1e-05,0.00029,0.00053,0,5e-05,-1e-05,4,30
20312,-2e-05,-4e-05,-1e-05,0.00029,0.00053,0,5e-05,-1e-05,4,30
20313,-2e-05,-4e-05,-1e-05,0.00029,0.00053,0,5e-05,-1e-05,4,30
20314,-2e-05,-4e-05,-1e-05,0.00029,0.00053,0,5e-05,-1e-05,4,30
20315,-2e-05,-4e-05,-1e-05,0.00029,0.00053,0,5e-05,-1e-05,4,30
20316,-2e-05,-4e-05,-1e-05,0.00029,0.00053,0,5e-05,-1e-05,4,30
20317,-2e-05,-4e-05,-1e-05,0.00029,0.00053,0,5e-05,-1e-05,4,30
20318,0,-2e-05,-9e-05,-0.00013,-0.0005,0.00048,-1e-05,0,4,30
20319,-3e-05,-1e-05,2e-05,4e-05,0.00061,-0.00027,-3e-05,-2e-05,4,30
20320,-3e-05,-1e-05,2e-05,4e-05,0.00061,-0.00027,-3e-05,-2e-05,4,30
20321,-3e-05,-1e-05,2e-05,4e-05,0.00061,-0.00027,-3e-05,-2e-05,4,30
20322,-3e-05,-1e-05,2e-05,4e-05,0.00061,-0.00027,-3e-05,-2e-05,4,30
20323,-3e-05,-1e-05,2e-05,4e-05,0.00061,-0.00027,-3e-05,-2e-05,4,30
20324,-3e-05,-1e-05,2e-05,4e-05,0.00061,-0.00027,-3e-05,-2e-05,4,30
20325,-3e-05,-1e-05,2e-05,4e-05,0.00061,-0.00027,-3e-05,-2e-05,4,30
20326,-3e-05,-1e-05,2e-05,4e-05,0.00061,-0.00027,-3e-05,-2e-05,4,30
20327,-3e-05,-1e-05,2e-05,4e-05,0.00061,-0.00027,-3e-05,-2e-05,4,30
20328,-3e-05,-1e-05,2e-05,4e-05,0.00061,-0.00027,-3e-05,-2e-05,4,30
20329,-3e-05,-1e-05,2e-05,4e-05,0.00061,-0.00027,-3e-05,-2e-05,4,30
20330,-3e-05,-1e-05,2e-05,4e-05,0.00061,-0.00027,-3e-05,-2e-05,4,30
20331,-3e-05,-1e-05,2e-05,4e-05,0.00061,-0.00027,-3e-05,-2e-05,4,30
20332,-3e-05,-1e-05,2e-05,4e-05,0.00061,-0.00027,-3e-05,-2e-05,4,30
20333,-3e-05,-1e-05,2e-05,4e-05,0.00061,-0.00027,-3e-05,-2e-05,4,30
20334,-3e-05,-1e-05,2e-05,4e-05,0.00061,-0.00027,-3e-05,-2e-05,4,30
20335,-3e-05,-1e-05,2e-05,4e-05,0.00061,-0.00027,-3e-05,-2e-05,4,30
20336,-3e-05,-1e-05,2e-05,4e-05,0.00061,-0.00027,-3e-05,-2e-05,4,30
20338,-3e-05,-1e-05,2e-05,4e-05,0.00061,-0.00027,-3e-05,-2e-05,4,30
20339,-3e-05,-1e-05,2e-05,4e-05,0.00061,-0.00027,-3e-05,-2e-05,4,30
20340,-3e-05,-1e-05,2e-05,4e-05,0.00061,-0.00027,-3e-05,-2e-05,4,30
20341,-3e-05,-1e-05,2e-05,4e-05,0.00061,-0.00027,-3e-05,-2e-05,4,30
20342,4e-05,5e-05,6e-05,0.00022,0.00118,0.00032,9e-05,5e-05,4,30
20343,0,6e-05,0.00012,8e-05,-0.00062,0.00021,5e-05,-1e-05,4,30
20344,0,6e-05,0.00012,8e-05,-0.00062,0.00021,5e-05,-1e-05,4,30
20345,0,6e-05,0.00012,8e-05,-0.00062,0.00021,5e-05,-1e-05,4,30
20346,0,6e-05,0.00012,8e-05,-0.00062,0.00021,5e-05,-1e-05,4,30
20347,0,6e-05,0.00012,8e-05,-0.00062,0.00021,5e-05,-1e-05,4,30
20348,0,6e-05,0.00012,8e-05,-0.00062,0.00021,5e-05,-1e-05,4,30
20349,0,6e-05,0.00012,8e-05,-0.00062,0.00021,5e-05,-1e-05,4,30
20350,0,6e-05,0.00012,8e-05,-0.00062,0.00021,5e-05,-1e-05,4,30
20351,0,6e-05,0.00012,8e-05,-0.00062,0.00021,5e-05,-1e-05,4,30
20352,0,6e-05,0.00012,8e-05,-0.00062,0.00021,5e-05,-1e-05,4,30
20353,0,6e-05,0.00012,8e-05,-0.00062,0.00021,5e-05,-1e-05,4,30
20354,0,6e-05,0.00012,8e-05,-0.00062,0.00021,5e-05,-1e-05,4,30
20355,0,6e-05,0.00012,8e-05,-0.00062,0.00021,5e-05,-1e-05,4,30
20356,1e-05,3e-05,6e-05,5e-05,0.00042,5e-05,0.00011,3e-05,4,30
20357,-3e-05,-1e-05,-5e-05,-0.00036,0.00021,3e-05,-2e-05,-1e-05,4,30
20358,-3e-05,-1e-05,-5e-05,-0.00036,0.00021,3e-05,-2e-05,-1e-05,4,30
20359,-3e-05,-1e-05,-5e-05,-0.00036,0.00021,3e-05,-2e-05,-1e-05,4,30
20360,-3e-05,-1e-05,-5e-05,-0.00036,0.00021,3e-05,-2e-05,-1e-05,4,30
20361,-3e-05,-1e-05,-5e-05,-0.00036,0.00021,3e-05,-2e-05,-1e-05,4,30
20362,-3e-05,-1e-05,-5e-05,-0.00036,0.00021,3e-05,-2e-05,-1e-05,4,30
20363,-3e-05,-1e-05,-5e-05,-0.00036,0.00021,3e-05,-2e-05,-1e-05,4,30
20364,-3e-05,-1e-05,-5e-05,-0.00036,0.00021,3e-05,-2e-05,-1e-05,4,30
20365,-3e-05,-1e-05,-5e-05,-0.00036,0.00021,3e-05,-2e-05,-1e-05,4,30
20366,-3e-05,-1e-05,-5e-05,-0.00036,0.00021,3e-05,-2e-05,-1e-05,4,30
20367,-3e-05,-1e-05,-5e-05,-0.00036,0.00021,3e-05,-2e-05,-1e-05,4,30
20368,-3e-05,-1e-05,-5e-05,-0.00036,0.00021,3e-05,-2e-05,-1e-05,4,30
20369,-3e-05,-1e-05,-5e-05,-0.00036,0.00021,3e-05,-2e-05,-1e-05,4,30
20370,-3e-05,-1e-05,-5e-05,-0.00036,0.00021,3e-05,-2e-05,-1e-05,4,30
20371,-3e-05,-1e-05,-5e-05,-0.00036,0.00021,3e-05,-2e-05,-1e-05,4,30
20372,-3e-05,-1e-05,-5e-05,-0.00036,0.00021,3e-05,-2e-05,-1e-05,4,30
20373,-3e-05,-1e-05,-5e-05,-0.00036,0.00021,3e-05,-2e-05,-1e-05,4,30
20374,-3e-05,-1e-05,-5e-05,-0.00036,0.00021,3e-05,-2e-05,-1e-05,4,30
20375,-3e-05,-1e-05,-5e-05,-0.00036,0.00021,3e-05,-2e-05,-1e-05,4,30
20376,-3e-05,-1e-05,-5e-05,-0.00036,0.00021,3e-05,-2e-05,-1e-05,4,30
20377,-3e-05,-1e-05,-5e-05,-0.00036,0.00021,3e-05,-2e-05,-1e-05,4,30
20378,-6e-05,-0.00013,-0.00025,-0.00067,-0.00029,-0.00051,-3e-05,-9e-05,4,30
20379,0,-1e-05,-4e-05,0.00085,0.00075,0.00034,3e-05,2e-05,4,30
20380,0,-1e-05,-4e-05,0.00085,0.00075,0.00034,3e-05,2e-05,4,30
20381,0,-1e-05,-4e-05,0.00085,0.00075,0.00034,3e-05,2e-05,4,30
20382,0,-1e-05,-4e-05,0.00085,0.00075,0.00034,3e-05,2e-05,4,30
20383,0,-1e-05,-4e-05,0.00085,0.00075,0.00034,3e-05,2e-05,4,30
20384,0,-1e-05,-4e-05,0.00085,0.00075,0.00034,3e-05,2e-05,4,30
20385,0,-1e-05,-4e-05,0.00085,0.00075,0.00034,3e-05,2e-05,4,30
20386,0,-1e-05,-4e-05,0.00085,0.00075,0.00034,3e-05,2e-05,4,30
20388,0,-1e-05,-4e-05,0.00085,0.00075,0.00034,3e-05,2e-05,4,30
20389,0,-1e-05,-4e-05,0.00085,0.00075,0.00034,3e-05,2e-05,4,30
20390,0,-1e-05,-4e-05,0.00085,0.00075,0.00034,3e-05,2e-05,4,30
20391,0,-1e-05,-4e-05,0.00085,0.00075,0.00034,3e-05,2e-05,4,30
20392,0,-1e-05,-4e-05,0.00085,0.00075,0.00034,3e-05,2e-05,4,30
20393,0,-1e-05,-4e-05,0.00085,0.00075,0.00034,3e-05,2e-05,4,30
20394,0,-1e-05,-4e-05,0.00085,0.00075,0.00034,3e-05,2e-05,4,30
20395,0,-1e-05,-4e-05,0.00085,0.00075,0.00034,3e-05,2e-05,4,30
20396,0,-1e-05,-4e-05,0.00085,0.00075,0.00034,3e-05,2e-05,4,30
20397,0,-1e-05,-4e-05,0.00085,0.00075,0.00034,3e-05,2e-05,4,30
20398,0,-1e-05,-4e-05,0.00085,0.00075,0.00034,3e-05,2e-05,4,30
20399,0,-1e-05,-4e-05,0.00085,0.00075,0.00034,3e-05,2e-05,4,30
20400,0,-1e-05,-4e-05,0.00085,0.00075,0.00034,3e-05,2e-05,4,30
20401,0,-1e-05,-4e-05,0.00085,0.00075,0.00034,3e-05,2e-05,4,30
20402,-5e-05,-8e-05,-0.0001,0.00035,-0.00032,-0.00015,-0.00016,-7e-05,4,30
20403,-6e-05,-7e-05,-0.00011,-0.00012,-0.00073,-9e-05,-0.00014,-5e-05,4,30
20404,-6e-05,-7e-05,-0.00011,-0.00012,-0.00073,-9e-05,-0.00014,-5e-05,4,30
20405,-6e-05,-7e-05,-0.00011,-0.00012,-0.00073,-9e-05,-0.00014,-5e-05,4,30
20406,-6e-05,-7e-05,-0.00011,-0.00012,-0.00073,-9e-05,-0.00014,-5e-05,4,30
20407,-6e-05,-7e-05,-0.00011,-0.00012,-0.00073,-9e-05,-0.00014,-5e-05,4,30
20408,-6e-05,-7e-05,-0.00011,-0.00012,-0.00073,-9e-05,-0.00014,-5e-05,4,30
20409,-6e-05,-7e-05,-0.00011,-0.00012,-0.00073,-9e-05,-0.00014,-5e-05,4,30
20410,-6e-05,-7e-05,-0.00011,-0.00012,-0.00073,-9e-05,-0.00014,-5e-05,4,30
20411,-6e-05,-7e-05,-0.00011,-0.00012,-0.00073,-9e-05,-0.00014,-5e-05,4,30
20412,-6e-05,-7e-05,-0.00011,-0.00012,-0.00073,-9e-05,-0.00014,-5e-05,4,30
20413,-6e-05,-7e-05,-0.00011,-0.00012,-0.00073,-9e-05,-0.00014,-5e-05,4,30
20414,-6e-05,-7e-05,-0.00011,-0.00012,-0.00073,-9e-05,-0.00014,-5e-05,4,30
20415,-6e-05,-7e-05,-0.00011,-0.00012,-0.00073,-9e-05,-0.00014,-5e-05,4,30
20416,1e-05,3e-05,2e-05,-0.0005,-0.00014,8e-05,2e-05,-1e-05,4,30
20417,-1e-05,0,-2e-05,-3e-05,-0.00051,-0.00021,-8e-05,-3e-05,4,30
20418,-1e-05,0,-2e-05,-3e-05,-0.00051,-0.00021,-8e-05,-3e-05,4,30
20419,-1e-05,0,-2e-05,-3e-05,-0.00051,-0.00021,-8e-05,-3e-05,4,30
20420,-1e-05,0,-2e-05,-3e-05,-0.00051,-0.00021,-8e-05,-3e-05,4,30
20421,-1e-05,0,-2e-05,-3e-05,-0.00051,-0.00021,-8e-05,-3e-05,4,30
20422,-1e-05,0,-2e-05,-3e-05,-0.00051,-0.00021,-8e-05,-3e-05,4,30
20423,-1e-05,0,-2e-05,-3e-05,-0.00051,-0.00021,-8e-05,-3e-05,4,30
20424,-1e-05,0,-2e-05,-3e-05,-0.00051,-0.00021,-8e-05,-3e-05,4,30
20425,-1e-05,0,-2e-05,-3e-05,-0.00051,-0.00021,-8e-05,-3e-05,4,30
20426,-1e-05,0,-2e-05,-3e-05,-0.00051,-0.00021,-8e-05,-3e-05,4,30
20427,-1e-05,0,-2e-05,-3e-05,-0.00051,-0.00021,-8e-05,-3e-05,4,30
20428,-1e-05,0,-2e-05,-3e-05,-0.00051,-0.00021,-8e-05,-3e-05,4,30
20429,-1e-05,0,-2e-05,-3e-05,-0.00051,-0.00021,-8e-05,-3e-05,4,30
20430,-1e-05,0,-2e-05,-3e-05,-0.00051,-0.00021,-8e-05,-3e-05,4,30
20431,-1e-05,0,-2e-05,-3e-05,-0.00051,-0.00021,-8e-05,-3e-05,4,30
20432,-1e-05,0,-2e-05,-3e-05,-0.00051,-0.00021,-8e-05,-3e-05,4,30
20433,-1e-05,0,-2e-05,-3e-05,-0.00051,-0.00021,-8e-05,-3e-05,4,30
20434,-1e-05,0,-2e-05,-3e-05,-0.00051,-0.00021,-8e-05,-3e-05,4,30
20435,-1e-05,0,-2e-05,-3e-05,-0.00051,-0.00021,-8e-05,-3e-05,4,30
20436,-1e-05,0,-2e-05,-3e-05,-0.00051,-0.00021,-8e-05,-3e-05,4,30
20438,0,-2e-05,9e-05,0.00046,0.00065,-2e-05,0.00011,1e-05,4,30
20439,3e-05,2e-05,0.0001,0.00032,-0.00034,0.00055,4e-05,6e-05,4,30
20440,3e-05,2e-05,0.0001,0.00032,-0.00034,0.00055,4e-05,6e-05,4,30
20441,3e-05,2e-05,0.0001,0.00032,-0.00034,0.00055,4e-05,6e-05,4,30
20442,3e-05,2e-05,0.0001,0.00032,-0.00034,0.00055,4e-05,6e-05,4,30
20443,3e-05,2e-05,0.0001,0.00032,-0.00034,0.00055,4e-05,6e-05,4,30
20444,3e-05,2e-05,0.0001,0.00032,-0.00034,0.00055,4e-05,6e-05,4,30
20445,3e-05,2e-05,0.0001,0.00032,-0.00034,0.00055,4e-05,6e-05,4,30
20446,3e-05,2e-05,0.0001,0.00032,-0.00034,0.00055,4e-05,6e-05,4,30
20447,3e-05,2e-05,0.0001,0.00032,-0.00034,0.00055,4e-05,6e-05,4,30
20448,3e-05,2e-05,0.0001,0.00032,-0.00034,0.00055,4e-05,6e-05,4,30
20449,3e-05,2e-05,0.0001,0.00032,-0.00034,0.00055,4e-05,6e-05,4,30
20450,3e-05,2e-05,0.0001,0.00032,-0.00034,0.00055,4e-05,6e-05,4,30
20451,3e-05,2e-05,0.0001,0.00032,-0.00034,0.00055,4e-05,6e-05,4,30
20452,3e-05,2e-05,0.0001,0.00032,-0.00034,0.00055,4e-05,6e-05,4,30
20453,3e-05,2e-05,0.0001,0.00032,-0.00034,0.00055,4e-05,6e-05,4,30
20454,3e-05,2e-05,0.0001,0.00032,-0.00034,0.00055,4e-05,6e-05,4,30
20455,3e-05,2e-05,0.0001,0.00032,-0.00034,0.00055,4e-05,6e-05,4,30
20456,3e-05,2e-05,0.0001,0.00032,-0.00034,0.00055,4e-05,6e-05,4,30
20457,3e-05,2e-05,0.0001,0.00032,-0.00034,0.00055,4e-05,6e-05,4,30
20458,3e-05,2e-05,0.0001,0.00032,-0.00034,0.00055,4e-05,6e-05,4,30
20459,3e-05,2e-05,0.0001,0.00032,-0.00034,0.00055,4e-05,6e-05,4,30
20460,3e-05,2e-05,0.0001,0.00032,-0.00034,0.00055,4e-05,6e-05,4,30
20461,3e-05,2e-05,0.0001,0.00032,-0.00034,0.00055,4e-05,6e-05,4,30
20462,-4e-05,-6e-05,-8e-05,-0.00055,-0.0001,-0.00016,-1e-05,-7e-05,4,30
20463,-4e-05,-6e-05,-8e-05,-0.00055,-0.0001,-0.00016,-1e-05,-7e-05,4,30
20464,-4e-05,-6e-05,-8e-05,-0.00055,-0.0001,-0.00016,-1e-05,-7e-05,4,30
20465,-4e-05,-6e-05,-8e-05,-0.00055,-0.0001,-0.00016,-1e-05,-7e-05,4,30
20466,-4e-05,-6e-05,-8e-05,-0.00055,-0.0001,-0.00016,-1e-05,-7e-05,4,30
20467,-4e-05,-6e-05,-8e-05,-0.00055,-0.0001,-0.00016,-1e-05,-7e-05,4,30
20468,-4e-05,-6e-05,-8e-05,-0.00055,-0.0001,-0.00016,-1e-05,-7e-05,4,30
20469,-4e-05,-6e-05,-8e-05,-0.00055,-0.0001,-0.00016,-1e-05,-7e-05,4,30
20470,-4e-05,-6e-05,-8e-05,-0.00055,-0.0001,-0.00016,-1e-05,-7e-05,4,30
20471,-4e-05,-6e-05,-8e-05,-0.00055,-0.0001,-0.00016,-1e-05,-7e-05,4,30
20472,-4e-05,-6e-05,-8e-05,-0.00055,-0.0001,-0.00016,-1e-05,-7e-05,4,30
20473,-4e-05,-6e-05,-8e-05,-0.00055,-0.0001,-0.00016,-1e-05,-7e-05,4,30
20474,-4e-05,-6e-05,-8e-05,-0.00055,-0.0001,-0.00016,-1e-05,-7e-05,4,30
20475,2e-05,2e-05,1e-05,-0.00043,-0.00036,-0.00037,7e-05,0,4,30
20476,2e-05,2e-05,1e-05,-0.00043,-0.00036,-0.00037,7e-05,0,4,30
20477,2e-05,2e-05,1e-05,-0.00043,-0.00036,-0.00037,7e-05,0,4,30
20478,2e-05,2e-05,1e-05,-0.00043,-0.00036,-0.00037,7e-05,0,4,30
20479,2e-05,2e-05,1e-05,-0.00043,-0.00036,-0.00037,7e-05,0,4,30
20480,2e-05,2e-05,1e-05,-0.00043,-0.00036,-0.00037,7e-05,0,4,30
20481,2e-05,2e-05,1e-05,-0.00043,-0.00036,-0.00037,7e-05,0,4,30
20482,2e-05,2e-05,1e-05,-0.00043,-0.00036,-0.00037,7e-05,0,4,30
20483,1e-05,1e-05,1e-05,-0.00059,-0.00052,-6e-05,5e-05,-1e-05,4,30
20484,1e-05,1e-05,1e-05,-0.00059,-0.00052,-6e-05,5e-05,-1e-05,4,30
20485,1e-05,1e-05,1e-05,-0.00059,-0.00052,-6e-05,5e-05,-1e-05,4,30
20486,1e-05,1e-05,1e-05,-0.00059,-0.00052,-6e-05,5e-05,-1e-05,4,30
20488,1e-05,1e-05,1e-05,-0.00059,-0.00052,-6e-05,5e-05,-1e-05,4,30
20489,1e-05,1e-05,1e-05,-0.00059,-0.00052,-6e-05,5e-05,-1e-05,4,30
20490,1e-05,1e-05,1e-05,-0.00059,-0.00052,-6e-05,5e-05,-1e-05,4,30
20491,1e-05,1e-05,1e-05,-0.00059,-0.00052,-6e-05,5e-05,-1e-05,4,30
20492,1e-05,1e-05,1e-05,-0.00059,-0.00052,-6e-05,5e-05,-1e-05,4,30
20493,1e-05,1e-05,1e-05,-0.00059,-0.00052,-6e-05,5e-05,-1e-05,4,30
20494,1e-05,1e-05,1e-05,-0.00059,-0.00052,-6e-05,5e-05,-1e-05,4,30
20495,1e-05,1e-05,1e-05,-0.00059,-0.00052,-6e-05,5e-05,-1e-05,4,30
20496,1e-05,1e-05,1e-05,-0.00059,-0.00052,-6e-05,5e-05,-1e-05,4,30
20497,1e-05,1e-05,1e-05,-0.00059,-0.00052,-6e-05,5e-05,-1e-05,4,30
20498,7e-05,0.00016,0.00037,0.00076,0.00043,-3e-05,0.0001,8e-05,4,30
20499,-8e-05,-9e-05,-6e-05,0.00066,0.00065,-0.00072,3e-05,-6e-05,4,30
20500,-8e-05,-9e-05,-6e-05,0.00066,0.00065,-0.00072,3e-05,-6e-05,4,30
20501,-8e-05,-9e-05,-6e-05,0.00066,0.00065,-0.00072,3e-05,-6e-05,4,30
20502,-8e-05,-9e-05,-6e-05,0.00066,0.00065,-0.00072,3e-05,-6e-05,4,30
20503,-8e-05,-9e-05,-6e-05,0.00066,0.00065,-0.00072,3e-05,-6e-05,4,30
20504,-8e-05,-9e-05,-6e-05,0.00066,0.00065,-0.00072,3e-05,-6e-05,4,30
20505,-8e-05,-9e-05,-6e-05,0.00066,0.00065,-0.00072,3e-05,-6e-05,4,30
20506,-8e-05,-9e-05,-6e-05,0.00066,0.00065,-0.00072,3e-05,-6e-05,4,30
20507,-8e-05,-9e-05,-6e-05,0.00066,0.00065,-0.00072,3e-05,-6e-05,4,30
20508,-8e-05,-9e-05,-6e-05,0.00066,0.00065,-0.00072,3e-05,-6e-05,4,30
20509,-8e-05,-9e-05,-6e-05,0.00066,0.00065,-0.00072,3e-05,-6e-05,4,30
20510,-8e-05,-9e-05,-6e-05,0.00066,0.00065,-0.00072,3e-05,-6e-05,4,30
20511,-8e-05,-9e-05,-6e-05,0.00066,0.00065,-0.00072,3e-05,-6e-05,4,30
20512,-8e-05,-9e-05,-6e-05,0.00066,0.00065,-0.00072,3e-05,-6e-05,4,30
20513,-8e-05,-9e-05,-6e-05,0.00066,0.00065,-0.00072,3e-05,-6e-05,4,30
20514,-8e-05,-9e-05,-6e-05,0.00066,0.00065,-0.00072,3e-05,-6e-05,4,30
20515,-8e-05,-9e-05,-6e-05,0.00066,0.00065,-0.00072,3e-05,-6e-05,4,30
20516,-8e-05,-9e-05,-6e-05,0.00066,0.00065,-0.00072,3e-05,-6e-05,4,30
20517,-8e-05,-9e-05,-6e-05,0.00066,0.00065,-0.00072,3e-05,-6e-05,4,30
20518,-8e-05,-9e-05,-6e-05,0.00066,0.00065,-0.00072,3e-05,-6e-05,4,30
20519,-8e-05,-9e-05,-6e-05,0.00066,0.00065,-0.00072,3e-05,-6e-05,4,30
20520,-8e-05,-9e-05,-6e-05,0.00066,0.00065,-0.00072,3e-05,-6e-05,4,30
20521,-8e-05,-9e-05,-6e-05,0.00066,0.00065,-0.00072,3e-05,-6e-05,4,30
20522,-4e-05,-6e-05,-2e-05,0.00079,-0.00032,-6e-05,-8e-05,-5e-05,4,30
20523,4e-05,6e-05,0.00013,0.00059,0.00042,0.00014,2e-05,3e-05,4,30
20524,4e-05,6e-05,0.00013,0.00059,0.00042,0.00014,2e-05,3e-05,4,30
20525,4e-05,6e-05,0.00013,0.00059,0.00042,0.00014,2e-05,3e-05,4,30
20526,4e-05,6e-05,0.00013,0.00059,0.00042,0.00014,2e-05,3e-05,4,30
20527,4e-05,6e-05,0.00013,0.00059,0.00042,0.00014,2e-05,3e-05,4,30
20528,4e-05,6e-05,0.00013,0.00059,0.00042,0.00014,2e-05,3e-05,4,30
20529,4e-05,6e-05,0.00013,0.00059,0.00042,0.00014,2e-05,3e-05,4,30
20530,4e-05,6e-05,0.00013,0.00059,0.00042,0.00014,2e-05,3e-05,4,30
20531,4e-05,6e-05,0.00013,0.00059,0.00042,0.00014,2e-05,3e-05,4,30
20532,4e-05,6e-05,0.00013,0.00059,0.00042,0.00014,2e-05,3e-05,4,30
20533,4e-05,6e-05,0.00013,0.00059,0.00042,0.00014,2e-05,3e-05,4,30
20534,4e-05,6e-05,0.00013,0.00059,0.00042,0.00014,2e-05,3e-05,4,30
20535,4e-05,6e-05,0.00013,0.00059,0.00042,0.00014,2e-05,3e-05,4,30
20536,-4e-05,-7e-05,-0.00017,-5e-05,0.00047,0.00028,-0.00013,-3e-05,4,30
20538,3e-05,4e-05,7e-05,-0.00016,-0.00025,0.00022,3e-05,3e-05,4,30
20539,-3e-05,-5e-05,-9e-05,-0.00031,-0.00082,7e-05,-5e-05,-5e-05,4,30
20540,-3e-05,-5e-05,-9e-05,-0.00031,-0.00082,7e-05,-5e-05,-5e-05,4,30
20541,-3e-05,-5e-05,-9e-05,-0.00031,-0.00082,7e-05,-5e-05,-5e-05,4,30
20542,-3e-05,-5e-05,-9e-05,-0.00031,-0.00082,7e-05,-5e-05,-5e-05,4,30
20543,-3e-05,-5e-05,-9e-05,-0.00031,-0.00082,7e-05,-5e-05,-5e-05,4,30
20544,-3e-05,-5e-05,-9e-05,-0.00031,-0.00082,7e-05,-5e-05,-5e-05,4,30
20545,-3e-05,-5e-05,-9e-05,-0.00031,-0.00082,7e-05,-5e-05,-5e-05,4,30
20546,-3e-05,-5e-05,-9e-05,-0.00031,-0.00082,7e-05,-5e-05,-5e-05,4,30
20547,-3e-05,-5e-05,-9e-05,-0.00031,-0.00082,7e-05,-5e-05,-5e-05,4,30
20548,-3e-05,-5e-05,-9e-05,-0.00031,-0.00082,7e-05,-5e-05,-5e-05,4,30
20549,-3e-05,-5e-05,-9e-05,-0.00031,-0.00082,7e-05,-5e-05,-5e-05,4,30
20550,-3e-05,-5e-05,-9e-05,-0.00031,-0.00082,7e-05,-5e-05,-5e-05,4,30
20551,-3e-05,-5e-05,-9e-05,-0.00031,-0.00082,7e-05,-5e-05,-5e-05,4,30
20552,-3e-05,-5e-05,-9e-05,-0.00031,-0.00082,7e-05,-5e-05,-5e-05,4,30
20553,-3e-05,-5e-05,-9e-05,-0.00031,-0.00082,7e-05,-5e-05,-5e-05,4,30
20554,-3e-05,-5e-05,-9e-05,-0.00031,-0.00082,7e-05,-5e-05,-5e-05,4,30
20555,-3e-05,-5e-05,-9e-05,-0.00031,-0.00082,7e-05,-5e-05,-5e-05,4,30
20556,-3e-05,-5e-05,-9e-05,-0.00031,-0.00082,7e-05,-5e-05,-5e-05,4,30
20557,-3e-05,-5e-05,-9e-05,-0.00031,-0.00082,7e-05,-5e-05,-5e-05,4,30
20558,-3e-05,-5e-05,-9e-05,-0.00031,-0.00082,7e-05,-5e-05,-5e-05,4,30
20559,-3e-05,-5e-05,-9e-05,-0.00031,-0.00082,7e-05,-5e-05,-5e-05,4,30
20560,-3e-05,-5e-05,-9e-05,-0.00031,-0.00082,7e-05,-5e-05,-5e-05,4,30
20561,-3e-05,-5e-05,-9e-05,-0.00031,-0.00082,7e-05,-5e-05,-5e-05,4,30
20562,-3e-05,-5e-05,-9e-05,-0.00031,-0.00082,7e-05,-5e-05,-5e-05,4,30
20563,-3e-05,-5e-05,-9e-05,-0.00031,-0.00082,7e-05,-5e-05,-5e-05,4,30
20564,-3e-05,-5e-05,-9e-05,-0.00031,-0.00082,7e-05,-5e-05,-5e-05,4,30
20565,-3e-05,-5e-05,-9e-05,-0.00031,-0.00082,7e-05,-5e-05,-5e-05,4,30
20566,-3e-05,-5e-05,-9e-05,-0.00031,-0.00082,7e-05,-5e-05,-5e-05,4,30
20567,-1e-05,-5e-05,-9e-05,-3e-05,0.0004,0.00036,3e-05,-1e-05,4,30
20568,3e-05,3e-05,0,-9e-05,0.00014,-0.00018,4e-05,4e-05,4,30
20569,3e-05,3e-05,0,-9e-05,0.00014,-0.00018,4e-05,4e-05,4,30
20570,3e-05,3e-05,0,-9e-05,0.00014,-0.00018,4e-05,4e-05,4,30
20571,3e-05,3e-05,0,-9e-05,0.00014,-0.00018,4e-05,4e-05,4,30
20572,3e-05,3e-05,0,-9e-05,0.00014,-0.00018,4e-05,4e-05,4,30
20573,3e-05,3e-05,0,-9e-05,0.00014,-0.00018,4e-05,4e-05,4,30
20574,3e-05,3e-05,0,-9e-05,0.00014,-0.00018,4e-05,4e-05,4,30
20575,3e-05,3e-05,0,-9e-05,0.00014,-0.00018,4e-05,4e-05,4,30
20576,3e-05,3e-05,0,-9e-05,0.00014,-0.00018,4e-05,4e-05,4,30
20577,3e-05,3e-05,0,-9e-05,0.00014,-0.00018,4e-05,4e-05,4,30
20578,3e-05,3e-05,0,-9e-05,0.00014,-0.00018,4e-05,4e-05,4,30
20579,3e-05,3e-05,0,-9e-05,0.00014,-0.00018,4e-05,4e-05,4,30
20580,3e-05,3e-05,0,-9e-05,0.00014,-0.00018,4e-05,4e-05,4,30
20581,3e-05,3e-05,0,-9e-05,0.00014,-0.00018,4e-05,4e-05,4,30
20582,3e-05,3e-05,0,-9e-05,0.00014,-0.00018,4e-05,4e-05,4,30
20583,3e-05,3e-05,0,-9e-05,0.00014,-0.00018,4e-05,4e-05,4,30
20584,3e-05,3e-05,0,-9e-05,0.00014,-0.00018,4e-05,4e-05,4,30
20585,3e-05,3e-05,0,-9e-05,0.00014,-0.00018,4e-05,4e-05,4,30
20586,3e-05,3e-05,0,-9e-05,0.00014,-0.00018,4e-05,4e-05,4,30
20588,3e-05,3e-05,0,-9e-05,0.00014,-0.00018,4e-05,4e-05,4,30
20589,-2e-05,-1e-05,2e-05,8e-05,-0.00039,0,-4e-05,-2e-05,4,30
20590,-2e-05,-1e-05,-4e-05,0.00014,-2e-05,0.00014,0,2e-05,4,30
20591,-2e-05,-1e-05,-4e-05,0.00014,-2e-05,0.00014,0,2e-05,4,30
20592,-2e-05,-1e-05,-4e-05,0.00014,-2e-05,0.00014,0,2e-05,4,30
20593,-2e-05,-1e-05,-4e-05,0.00014,-2e-05,0.00014,0,2e-05,4,30
20594,-2e-05,-1e-05,-4e-05,0.00014,-2e-05,0.00014,0,2e-05,4,30
20595,4e-05,9e-05,0.00021,0.00019,-0.00037,6e-05,6e-05,4e-05,4,30
20596,4e-05,9e-05,0.00021,0.00019,-0.00037,6e-05,6e-05,4e-05,4,30
20597,4e-05,9e-05,0.00021,0.00019,-0.00037,6e-05,6e-05,4e-05,4,30
20598,4e-05,9e-05,0.00021,0.00019,-0.00037,6e-05,6e-05,4e-05,4,30
20599,4e-05,9e-05,0.00021,0.00019,-0.00037,6e-05,6e-05,4e-05,4,30
20600,4e-05,9e-05,0.00021,0.00019,-0.00037,6e-05,6e-05,4e-05,4,30
20601,4e-05,9e-05,0.00021,0.00019,-0.00037,6e-05,6e-05,4e-05,4,30
20602,4e-05,9e-05,0.00021,0.00019,-0.00037,6e-05,6e-05,4e-05,4,30
20603,4e-05,9e-05,0.00021,0.00019,-0.00037,6e-05,6e-05,4e-05,4,30
20604,4e-05,9e-05,0.00021,0.00019,-0.00037,6e-05,6e-05,4e-05,4,30
20605,4e-05,9e-05,0.00021,0.00019,-0.00037,6e-05,6e-05,4e-05,4,30
20606,4e-05,9e-05,0.00021,0.00019,-0.00037,6e-05,6e-05,4e-05,4,30
20607,4e-05,9e-05,0.00021,0.00019,-0.00037,6e-05,6e-05,4e-05,4,30
20608,4e-05,9e-05,0.00021,0.00019,-0.00037,6e-05,6e-05,4e-05,4,30
20609,4e-05,9e-05,0.00021,0.00019,-0.00037,6e-05,6e-05,4e-05,4,30
20610,4e-05,9e-05,0.00021,0.00019,-0.00037,6e-05,6e-05,4e-05,4,30
20611,0,-3e-05,-1e-05,0.00034,0,0.00018,-2e-05,0,4,30
20612,0,-3e-05,-1e-05,0.00034,0,0.00018,-2e-05,0,4,30
20613,0,-3e-05,-1e-05,0.00034,0,0.00018,-2e-05,0,4,30
20614,0,-3e-05,-1e-05,0.00034,0,0.00018,-2e-05,0,4,30
20615,0,-3e-05,-1e-05,0.00034,0,0.00018,-2e-05,0,4,30
20616,0,-3e-05,-1e-05,0.00034,0,0.00018,-2e-05,0,4,30
20617,0,-3e-05,-1e-05,0.00034,0,0.00018,-2e-05,0,4,30
20618,0,-3e-05,-1e-05,0.00034,0,0.00018,-2e-05,0,4,30
20619,-4e-05,-5e-05,-4e-05,4e-05,0.0006,-0.00025,-0.0001,-5e-05,4,30
20620,-4e-05,-5e-05,-4e-05,4e-05,0.0006,-0.00025,-0.0001,-5e-05,4,30
20621,-4e-05,-5e-05,-4e-05,4e-05,0.0006,-0.00025,-0.0001,-5e-05,4,30
20622,-4e-05,-5e-05,-4e-05,4e-05,0.0006,-0.00025,-0.0001,-5e-05,4,30
20623,-4e-05,-5e-05,-4e-05,4e-05,0.0006,-0.00025,-0.0001,-5e-05,4,30
20624,-4e-05,-5e-05,-4e-05,4e-05,0.0006,-0.00025,-0.0001,-5e-05,4,30
20625,-4e-05,-5e-05,-4e-05,4e-05,0.0006,-0.00025,-0.0001,-5e-05,4,30
20626,-4e-05,-5e-05,-4e-05,4e-05,0.0006,-0.00025,-0.0001,-5e-05,4,30
20627,-4e-05,-5e-05,-4e-05,4e-05,0.0006,-0.00025,-0.0001,-5e-05,4,30
20628,-4e-05,-5e-05,-4e-05,4e-05,0.0006,-0.00025,-0.0001,-5e-05,4,30
20629,-4e-05,-5e-05,-4e-05,4e-05,0.0006,-0.00025,-0.0001,-5e-05,4,30
20630,-4e-05,-5e-05,-4e-05,4e-05,0.0006,-0.00025,-0.0001,-5e-05,4,30
20631,-4e-05,-5e-05,-4e-05,4e-05,0.0006,-0.00025,-0.0001,-5e-05,4,30
20632,-4e-05,-5e-05,-4e-05,4e-05,0.0006,-0.00025,-0.0001,-5e-05,4,30
20633,-4e-05,-5e-05,-4e-05,4e-05,0.0006,-0.00025,-0.0001,-5e-05,4,30
20634,-4e-05,-5e-05,-4e-05,4e-05,0.0006,-0.00025,-0.0001,-5e-05,4,30
20635,-4e-05,-5e-05,-4e-05,4e-05,0.0006,-0.00025,-0.0001,-5e-05,4,30
20636,-4e-05,-5e-05,-4e-05,4e-05,0.0006,-0.00025,-0.0001,-5e-05,4,30
20638,-4e-05,-5e-05,-4e-05,4e-05,0.0006,-0.00025,-0.0001,-5e-05,4,30
20639,-4e-05,-5e-05,-4e-05,4e-05,0.0006,-0.00025,-0.0001,-5e-05,4,30
20640,-4e-05,-5e-05,-4e-05,4e-05,0.0006,-0.00025,-0.0001,-5e-05,4,30
20641,-4e-05,-5e-05,-4e-05,4e-05,0.0006,-0.00025,-0.0001,-5e-05,4,30
20642,1e-05,3e-05,3e-05,-0.00042,0.00016,-0.00061,-5e-05,-3e-05,4,30
20643,1e-05,3e-05,3e-05,-0.00042,0.00016,-0.00061,-5e-05,-3e-05,4,30
20644,1e-05,3e-05,3e-05,-0.00042,0.00016,-0.00061,-5e-05,-3e-05,4,30
20645,1e-05,3e-05,3e-05,-0.00042,0.00016,-0.00061,-5e-05,-3e-05,4,30
20646,1e-05,3e-05,3e-05,-0.00042,0.00016,-0.00061,-5e-05,-3e-05,4,30
20647,1e-05,3e-05,3e-05,-0.00042,0.00016,-0.00061,-5e-05,-3e-05,4,30
20648,1e-05,3e-05,3e-05,-0.00042,0.00016,-0.00061,-5e-05,-3e-05,4,30
20649,1e-05,3e-05,3e-05,-0.00042,0.00016,-0.00061,-5e-05,-3e-05,4,30
20650,1e-05,3e-05,3e-05,-0.00042,0.00016,-0.00061,-5e-05,-3e-05,4,30
20651,1e-05,3e-05,3e-05,-0.00042,0.00016,-0.00061,-5e-05,-3e-05,4,30
20652,1e-05,3e-05,3e-05,-0.00042,0.00016,-0.00061,-5e-05,-3e-05,4,30
20653,1e-05,3e-05,3e-05,-0.00042,0.00016,-0.00061,-5e-05,-3e-05,4,30
20654,1e-05,3e-05,3e-05,-0.00042,0.00016,-0.00061,-5e-05,-3e-05,4,30
20655,-4e-05,1e-05,-5e-05,-6e-05,-0.00023,0.00025,-3e-05,-1e-05,4,30
20656,-4e-05,1e-05,-5e-05,-6e-05,-0.00023,0.00025,-3e-05,-1e-05,4,30
20657,-4e-05,1e-05,-5e-05,-6e-05,-0.00023,0.00025,-3e-05,-1e-05,4,30
20658,-4e-05,1e-05,-5e-05,-6e-05,-0.00023,0.00025,-3e-05,-1e-05,4,30
20659,-4e-05,1e-05,-5e-05,-6e-05,-0.00023,0.00025,-3e-05,-1e-05,4,30
20660,-4e-05,1e-05,-5e-05,-6e-05,-0.00023,0.00025,-3e-05,-1e-05,4,30
20661,-4e-05,1e-05,-5e-05,-6e-05,-0.00023,0.00025,-3e-05,-1e-05,4,30
20662,-4e-05,1e-05,-5e-05,-6e-05,-0.00023,0.00025,-3e-05,-1e-05,4,30
20663,-1e-05,0,-5e-05,-0.0004,0.00022,0.00011,4e-05,4e-05,4,30
20664,-1e-05,0,-5e-05,-0.0004,0.00022,0.00011,4e-05,4e-05,4,30
20665,-1e-05,0,-5e-05,-0.0004,0.00022,0.00011,4e-05,4e-05,4,30
20666,-1e-05,0,-5e-05,-0.0004,0.00022,0.00011,4e-05,4e-05,4,30
20667,-1e-05,0,-5e-05,-0.0004,0.00022,0.00011,4e-05,4e-05,4,30
20668,-1e-05,0,-5e-05,-0.0004,0.00022,0.00011,4e-05,4e-05,4,30
20669,-1e-05,0,-5e-05,-0.0004,0.00022,0.00011,4e-05,4e-05,4,30
20670,-1e-05,0,-5e-05,-0.0004,0.00022,0.00011,4e-05,4e-05,4,30
20671,-1e-05,0,-5e-05,-0.0004,0.00022,0.00011,4e-05,4e-05,4,30
20672,-1e-05,0,-5e-05,-0.0004,0.00022,0.00011,4e-05,4e-05,4,30
20673,-1e-05,0,-5e-05,-0.0004,0.00022,0.00011,4e-05,4e-05,4,30
20674,-1e-05,0,-5e-05,-0.0004,0.00022,0.00011,4e-05,4e-05,4,30
20675,-1e-05,0,-5e-05,-0.0004,0.00022,0.00011,4e-05,4e-05,4,30
20676,-1e-05,0,-5e-05,-0.0004,0.00022,0.00011,4e-05,4e-05,4,30
20677,-1e-05,0,-5e-05,-0.0004,0.00022,0.00011,4e-05,4e-05,4,30
20678,-3e-05,-2e-05,-3e-05,-0.00035,-0.00033,2e-05,-5e-05,-3e-05,4,30
20679,1e-05,1e-05,-2e-05,-0.00012,-0.00031,0.00045,1e-05,-1e-05,4,30
20680,1e-05,1e-05,-2e-05,-0.00012,-0.00031,0.00045,1e-05,-1e-05,4,30
20681,1e-05,1e-05,-2e-05,-0.00012,-0.00031,0.00045,1e-05,-1e-05,4,30
20682,1e-05,1e-05,-2e-05,-0.00012,-0.00031,0.00045,1e-05,-1e-05,4,30
20683,1e-05,1e-05,-2e-05,-0.00012,-0.00031,0.00045,1e-05,-1e-05,4,30
20684,1e-05,1e-05,-2e-05,-0.00012,-0.00031,0.00045,1e-05,-1e-05,4,30
20685,1e-05,1e-05,-2e-05,-0.00012,-0.00031,0.00045,1e-05,-1e-05,4,30
20686,1e-05,1e-05,-2e-05,-0.00012,-0.00031,0.00045,1e-05,-1e-05,4,30
20688,1e-05,1e-05,-2e-05,-0.00012,-0.00031,0.00045,1e-05,-1e-05,4,30
20689,1e-05,1e-05,-2e-05,-0.00012,-0.00031,0.00045,1e-05,-1e-05,4,30
20690,1e-05,1e-05,-2e-05,-0.00012,-0.00031,0.00045,1e-05,-1e-05,4,30
20691,1e-05,1e-05,-2e-05,-0.00012,-0.00031,0.00045,1e-05,-1e-05,4,30
20692,1e-05,1e-05,-2e-05,-0.00012,-0.00031,0.00045,1e-05,-1e-05,4,30
20693,1e-05,1e-05,-2e-05,-0.00012,-0.00031,0.00045,1e-05,-1e-05,4,30
20694,1e-05,1e-05,-2e-05,-0.00012,-0.00031,0.00045,1e-05,-1e-05,4,30
20695,1e-05,1e-05,-2e-05,-0.00012,-0.00031,0.00045,1e-05,-1e-05,4,30
20696,1e-05,1e-05,-2e-05,-0.00012,-0.00031,0.00045,1e-05,-1e-05,4,30
20697,1e-05,1e-05,-2e-05,-0.00012,-0.00031,0.00045,1e-05,-1e-05,4,30
20698,1e-05,1e-05,-2e-05,-0.00012,-0.00031,0.00045,1e-05,-1e-05,4,30
20699,1e-05,1e-05,-2e-05,-0.00012,-0.00031,0.00045,1e-05,-1e-05,4,30
20700,1e-05,1e-05,-2e-05,-0.00012,-0.00031,0.00045,1e-05,-1e-05,4,30
20701,1e-05,1e-05,-2e-05,-0.00012,-0.00031,0.00045,1e-05,-1e-05,4,30
20702,2e-05,-3e-05,3e-05,-0.00019,-0.00023,-0.00022,-1e-05,-1e-05,4,30
20703,1e-05,0,4e-05,-0.00014,-0.0003,0.00014,-1e-05,0,4,30
20704,1e-05,0,4e-05,-0.00014,-0.0003,0.00014,-1e-05,0,4,30
20705,1e-05,0,4e-05,-0.00014,-0.0003,0.00014,-1e-05,0,4,30
20706,1e-05,0,4e-05,-0.00014,-0.0003,0.00014,-1e-05,0,4,30
20707,1e-05,0,4e-05,-0.00014,-0.0003,0.00014,-1e-05,0,4,30
20708,1e-05,0,4e-05,-0.00014,-0.0003,0.00014,-1e-05,0,4,30
20709,1e-05,0,4e-05,-0.00014,-0.0003,0.00014,-1e-05,0,4,30
20710,1e-05,0,4e-05,-0.00014,-0.0003,0.00014,-1e-05,0,4,30
20711,1e-05,0,4e-05,-0.00014,-0.0003,0.00014,-1e-05,0,4,30
20712,1e-05,0,4e-05,-0.00014,-0.0003,0.00014,-1e-05,0,4,30
20713,1e-05,0,4e-05,-0.00014,-0.0003,0.00014,-1e-05,0,4,30
20714,1e-05,0,4e-05,-0.00014,-0.0003,0.00014,-1e-05,0,4,30
20715,-5e-05,-4e-05,-6e-05,8e-05,-7e-05,-0.00023,-0.00011,-5e-05,4,30
20716,-5e-05,-4e-05,-6e-05,8e-05,-7e-05,-0.00023,-0.00011,-5e-05,4,30
20717,-5e-05,-4e-05,-6e-05,8e-05,-7e-05,-0.00023,-0.00011,-5e-05,4,30
20718,-5e-05,-4e-05,-6e-05,8e-05,-7e-05,-0.00023,-0.00011,-5e-05,4,30
20719,-5e-05,-4e-05,-6e-05,8e-05,-7e-05,-0.00023,-0.00011,-5e-05,4,30
20720,-5e-05,-4e-05,-6e-05,8e-05,-7e-05,-0.00023,-0.00011,-5e-05,4,30
20722,-5e-05,-4e-05,-6e-05,8e-05,-7e-05,-0.00023,-0.00011,-5e-05,4,30
20723,-2e-05,-5e-05,1e-05,4e-05,0,-0.00056,3e-05,-3e-05,4,30
20724,-2e-05,-5e-05,1e-05,4e-05,0,-0.00056,3e-05,-3e-05,4,30
20725,-2e-05,-5e-05,1e-05,4e-05,0,-0.00056,3e-05,-3e-05,4,30
20726,-2e-05,-5e-05,1e-05,4e-05,0,-0.00056,3e-05,-3e-05,4,30
20727,-2e-05,-5e-05,1e-05,4e-05,0,-0.00056,3e-05,-3e-05,4,30
20728,-2e-05,-5e-05,1e-05,4e-05,0,-0.00056,3e-05,-3e-05,4,30
20729,-2e-05,-5e-05,1e-05,4e-05,0,-0.00056,3e-05,-3e-05,4,30
20730,-2e-05,-5e-05,1e-05,4e-05,0,-0.00056,3e-05,-3e-05,4,30
20731,-2e-05,-5e-05,1e-05,4e-05,0,-0.00056,3e-05,-3e-05,4,30
20732,-2e-05,-5e-05,1e-05,4e-05,0,-0.00056,3e-05,-3e-05,4,30
20733,-2e-05,-5e-05,1e-05,4e-05,0,-0.00056,3e-05,-3e-05,4,30
20734,-2e-05,-5e-05,1e-05,4e-05,0,-0.00056,3e-05,-3e-05,4,30
20735,-2e-05,-5e-05,1e-05,4e-05,0,-0.00056,3e-05,-3e-05,4,30
20736,-2e-05,-5e-05,1e-05,4e-05,0,-0.00056,3e-05,-3e-05,4,30
20738,-1e-05,-2e-05,-3e-05,2e-05,0.0001,0.0002,-1e-05,-3e-05,4,30
20739,-1e-05,1e-05,4e-05,0.00024,-0.00026,-0.00041,-2e-05,-1e-05,4,30
20740,-1e-05,1e-05,4e-05,0.00024,-0.00026,-0.00041,-2e-05,-1e-05,4,30
20741,-1e-05,1e-05,4e-05,0.00024,-0.00026,-0.00041,-2e-05,-1e-05,4,30
20742,-1e-05,1e-05,4e-05,0.00024,-0.00026,-0.00041,-2e-05,-1e-05,4,30
20743,-1e-05,1e-05,4e-05,0.00024,-0.00026,-0.00041,-2e-05,-1e-05,4,30
20744,-1e-05,1e-05,4e-05,0.00024,-0.00026,-0.00041,-2e-05,-1e-05,4,30
20745,-1e-05,1e-05,4e-05,0.00024,-0.00026,-0.00041,-2e-05,-1e-05,4,30
20746,-1e-05,1e-05,4e-05,0.00024,-0.00026,-0.00041,-2e-05,-1e-05,4,30
20747,-1e-05,1e-05,4e-05,0.00024,-0.00026,-0.00041,-2e-05,-1e-05,4,30
20748,-1e-05,1e-05,4e-05,0.00024,-0.00026,-0.00041,-2e-05,-1e-05,4,30
20749,-1e-05,1e-05,4e-05,0.00024,-0.00026,-0.00041,-2e-05,-1e-05,4,30
20750,-1e-05,1e-05,4e-05,0.00024,-0.00026,-0.00041,-2e-05,-1e-05,4,30
20751,-1e-05,1e-05,4e-05,0.00024,-0.00026,-0.00041,-2e-05,-1e-05,4,30
20752,-1e-05,1e-05,4e-05,0.00024,-0.00026,-0.00041,-2e-05,-1e-05,4,30
20753,-1e-05,1e-05,4e-05,0.00024,-0.00026,-0.00041,-2e-05,-1e-05,4,30
20754,-1e-05,1e-05,4e-05,0.00024,-0.00026,-0.00041,-2e-05,-1e-05,4,30
20755,-1e-05,1e-05,4e-05,0.00024,-0.00026,-0.00041,-2e-05,-1e-05,4,30
20756,-1e-05,1e-05,4e-05,0.00024,-0.00026,-0.00041,-2e-05,-1e-05,4,30
20757,-1e-05,1e-05,4e-05,0.00024,-0.00026,-0.00041,-2e-05,-1e-05,4,30
20758,-1e-05,1e-05,4e-05,0.00024,-0.00026,-0.00041,-2e-05,-1e-05,4,30
20759,-1e-05,1e-05,4e-05,0.00024,-0.00026,-0.00041,-2e-05,-1e-05,4,30
20760,-1e-05,1e-05,4e-05,0.00024,-0.00026,-0.00041,-2e-05,-1e-05,4,30
20761,-1e-05,1e-05,4e-05,0.00024,-0.00026,-0.00041,-2e-05,-1e-05,4,30
20762,-3e-05,-2e-05,-5e-05,-0.00049,-0.00096,-6e-05,-3e-05,-2e-05,4,30
20763,0,0,-3e-05,0.00047,0.00013,0.00023,-2e-05,0,4,30
20764,0,0,-3e-05,0.00047,0.00013,0.00023,-2e-05,0,4,30
20765,0,0,-3e-05,0.00047,0.00013,0.00023,-2e-05,0,4,30
20766,0,0,-3e-05,0.00047,0.00013,0.00023,-2e-05,0,4,30
20767,0,0,-3e-05,0.00047,0.00013,0.00023,-2e-05,0,4,30
20768,0,0,-3e-05,0.00047,0.00013,0.00023,-2e-05,0,4,30
20769,0,0,-3e-05,0.00047,0.00013,0.00023,-2e-05,0,4,30
20770,0,0,-3e-05,0.00047,0.00013,0.00023,-2e-05,0,4,30
20771,0,0,-3e-05,0.00047,0.00013,0.00023,-2e-05,0,4,30
20773,0,0,-3e-05,0.00047,0.00013,0.00023,-2e-05,0,4,30
20774,0,0,-3e-05,0.00047,0.00013,0.00023,-2e-05,0,4,30
20775,-4e-05,-7e-05,-3e-05,0.00011,0.00069,-1e-05,0,0,4,30
20777,-4e-05,-7e-05,-3e-05,0.00011,0.00069,-1e-05,0,0,4,30
20778,-4e-05,-7e-05,-3e-05,0.00011,0.00069,-1e-05,0,0,4,30
20779,-4e-05,-7e-05,-3e-05,0.00011,0.00069,-1e-05,0,0,4,30
20780,-4e-05,-7e-05,-3e-05,0.00011,0.00069,-1e-05,0,0,4,30
20781,-4e-05,-7e-05,-3e-05,0.00011,0.00069,-1e-05,0,0,4,30
20782,-4e-05,-7e-05,-3e-05,0.00011,0.00069,-1e-05,0,0,4,30
20783,0,-1e-05,-1e-05,-0.00012,-0.00052,1e-05,-7e-05,-3e-05,4,30
20784,0,-1e-05,-1e-05,-0.00012,-0.00052,1e-05,-7e-05,-3e-05,4,30
20785,0,-1e-05,-1e-05,-0.00012,-0.00052,1e-05,-7e-05,-3e-05,4,30
20786,0,-1e-05,-1e-05,-0.00012,-0.00052,1e-05,-7e-05,-3e-05,4,30
20788,0,-1e-05,-1e-05,-0.00012,-0.00052,1e-05,-7e-05,-3e-05,4,30
20789,0,-1e-05,-1e-05,-0.00012,-0.00052,1e-05,-7e-05,-3e-05,4,30
20790,0,-1e-05,-1e-05,-0.00012,-0.00052,1e-05,-7e-05,-3e-05,4,30
20791,0,-1e-05,-1e-05,-0.00012,-0.00052,1e-05,-7e-05,-3e-05,4,30
20792,0,-1e-05,-1e-05,-0.00012,-0.00052,1e-05,-7e-05,-3e-05,4,30
20793,0,-1e-05,-1e-05,-0.00012,-0.00052,1e-05,-7e-05,-3e-05,4,30
20794,0,-1e-05,-1e-05,-0.00012,-0.00052,1e-05,-7e-05,-3e-05,4,30
20795,0,-1e-05,-1e-05,-0.00012,-0.00052,1e-05,-7e-05,-3e-05,4,30
20796,0,-1e-05,-1e-05,-0.00012,-0.00052,1e-05,-7e-05,-3e-05,4,30
20797,0,-1e-05,-1e-05,-0.00012,-0.00052,1e-05,-7e-05,-3e-05,4,30
20798,-2e-05,-2e-05,-5e-05,-4e-05,8e-05,-0.00017,-5e-05,-1e-05,4,30
20799,-2e-05,-5e-05,-0.00015,-0.00056,0.00017,8e-05,-3e-05,-2e-05,4,30
20800,-2e-05,-5e-05,-0.00015,-0.00056,0.00017,8e-05,-3e-05,-2e-05,4,30
20801,-2e-05,-5e-05,-0.00015,-0.00056,0.00017,8e-05,-3e-05,-2e-05,4,30
20802,-2e-05,-5e-05,-0.00015,-0.00056,0.00017,8e-05,-3e-05,-2e-05,4,30
20803,-2e-05,-5e-05,-0.00015,-0.00056,0.00017,8e-05,-3e-05,-2e-05,4,30
20804,-2e-05,-5e-05,-0.00015,-0.00056,0.00017,8e-05,-3e-05,-2e-05,4,30
20805,-2e-05,-5e-05,-0.00015,-0.00056,0.00017,8e-05,-3e-05,-2e-05,4,30
20806,-2e-05,-5e-05,-0.00015,-0.00056,0.00017,8e-05,-3e-05,-2e-05,4,30
20807,-2e-05,-5e-05,-0.00015,-0.00056,0.00017,8e-05,-3e-05,-2e-05,4,30
20808,-2e-05,-5e-05,-0.00015,-0.00056,0.00017,8e-05,-3e-05,-2e-05,4,30
20809,-2e-05,-5e-05,-0.00015,-0.00056,0.00017,8e-05,-3e-05,-2e-05,4,30
20810,-2e-05,-5e-05,-0.00015,-0.00056,0.00017,8e-05,-3e-05,-2e-05,4,30
20811,-2e-05,-5e-05,-0.00015,-0.00056,0.00017,8e-05,-3e-05,-2e-05,4,30
20812,-2e-05,-5e-05,-0.00015,-0.00056,0.00017,8e-05,-3e-05,-2e-05,4,30
20813,-2e-05,-5e-05,-0.00015,-0.00056,0.00017,8e-05,-3e-05,-2e-05,4,30
20814,-2e-05,-5e-05,-0.00015,-0.00056,0.00017,8e-05,-3e-05,-2e-05,4,30
20815,-2e-05,-5e-05,-0.00015,-0.00056,0.00017,8e-05,-3e-05,-2e-05,4,30
20816,-2e-05,-5e-05,-0.00015,-0.00056,0.00017,8e-05,-3e-05,-2e-05,4,30
20817,-2e-05,-5e-05,-0.00015,-0.00056,0.00017,8e-05,-3e-05,-2e-05,4,30
20818,-2e-05,-5e-05,-0.00015,-0.00056,0.00017,8e-05,-3e-05,-2e-05,4,30
20819,-2e-05,-5e-05,-0.00015,-0.00056,0.00017,8e-05,-3e-05,-2e-05,4,30
20820,-2e-05,-5e-05,-0.00015,-0.00056,0.00017,8e-05,-3e-05,-2e-05,4,30
20821,-2e-05,-5e-05,-0.00015,-0.00056,0.00017,8e-05,-3e-05,-2e-05,4,30
20822,1e-05,-3e-05,-6e-05,3e-05,-1e-05,0.00017,4e-05,1e-05,4,30
20823,1e-05,-3e-05,-6e-05,3e-05,-1e-05,0.00017,4e-05,1e-05,4,30
20824,1e-05,-3e-05,-6e-05,3e-05,-1e-05,0.00017,4e-05,1e-05,4,30
20825,1e-05,-3e-05,-6e-05,3e-05,-1e-05,0.00017,4e-05,1e-05,4,30
20826,1e-05,-3e-05,-6e-05,3e-05,-1e-05,0.00017,4e-05,1e-05,4,30
20827,1e-05,-3e-05,-6e-05,3e-05,-1e-05,0.00017,4e-05,1e-05,4,30
20828,1e-05,-3e-05,-6e-05,3e-05,-1e-05,0.00017,4e-05,1e-05,4,30
20829,1e-05,-3e-05,-6e-05,3e-05,-1e-05,0.00017,4e-05,1e-05,4,30
20830,1e-05,-3e-05,-6e-05,3e-05,-1e-05,0.00017,4e-05,1e-05,4,30
20831,1e-05,-3e-05,-6e-05,3e-05,-1e-05,0.00017,4e-05,1e-05,4,30
20832,1e-05,-3e-05,-6e-05,3e-05,-1e-05,0.00017,4e-05,1e-05,4,30
20833,1e-05,-3e-05,-6e-05,3e-05,-1e-05,0.00017,4e-05,1e-05,4,30
20834,1e-05,-3e-05,-6e-05,3e-05,-1e-05,0.00017,4e-05,1e-05,4,30
20835,-2e-05,-1e-05,-6e-05,0,-0.00017,-2e-05,-3e-05,-1e-05,4,30
20837,-5e-05,-4e-05,-4e-05,8e-05,0,-0.0002,-8e-05,-7e-05,4,30
20839,-5e-05,-4e-05,-4e-05,8e-05,0,-0.0002,-8e-05,-7e-05,4,30
20840,-5e-05,-4e-05,-4e-05,8e-05,0,-0.0002,-8e-05,-7e-05,4,30
20841,-5e-05,-4e-05,-4e-05,8e-05,0,-0.0002,-8e-05,-7e-05,4,30
20842,-5e-05,-4e-05,-4e-05,8e-05,0,-0.0002,-8e-05,-7e-05,4,30
20843,-1e-05,2e-05,3e-05,-5e-05,-0.0003,-6e-05,2e-05,1e-05,4,30
20844,-2e-05,0,-6e-05,-0.0003,-0.00053,0.00034,2e-05,2e-05,4,30
20845,-2e-05,0,-6e-05,-0.0003,-0.00053,0.00034,2e-05,2e-05,4,30
20846,-2e-05,0,-6e-05,-0.0003,-0.00053,0.00034,2e-05,2e-05,4,30
20847,-2e-05,0,-6e-05,-0.0003,-0.00053,0.00034,2e-05,2e-05,4,30
20848,-2e-05,0,-6e-05,-0.0003,-0.00053,0.00034,2e-05,2e-05,4,30
20849,-2e-05,0,-6e-05,-0.0003,-0.00053,0.00034,2e-05,2e-05,4,30
20850,-2e-05,0,-6e-05,-0.0003,-0.00053,0.00034,2e-05,2e-05,4,30
20851,-2e-05,0,-6e-05,-0.0003,-0.00053,0.00034,2e-05,2e-05,4,30
20852,-2e-05,0,-6e-05,-0.0003,-0.00053,0.00034,2e-05,2e-05,4,30
20853,-2e-05,0,-6e-05,-0.0003,-0.00053,0.00034,2e-05,2e-05,4,30
20854,-2e-05,0,-6e-05,-0.0003,-0.00053,0.00034,2e-05,2e-05,4,30
20855,-2e-05,0,-6e-05,-0.0003,-0.00053,0.00034,2e-05,2e-05,4,30
20856,-2e-05,0,-6e-05,-0.0003,-0.00053,0.00034,2e-05,2e-05,4,30
20857,-2e-05,0,-6e-05,-0.0003,-0.00053,0.00034,2e-05,2e-05,4,30
20858,-2e-05,0,-6e-05,-0.0003,-0.00053,0.00034,2e-05,2e-05,4,30
20859,-2e-05,0,-6e-05,-0.0003,-0.00053,0.00034,2e-05,2e-05,4,30
20860,-2e-05,0,-6e-05,-0.0003,-0.00053,0.00034,2e-05,2e-05,4,30
20861,-2e-05,0,-6e-05,-0.0003,-0.00053,0.00034,2e-05,2e-05,4,30
20862,-2e-05,0,-6e-05,-0.0003,-0.00053,0.00034,2e-05,2e-05,4,30
20863,-2e-05,0,-6e-05,-0.0003,-0.00053,0.00034,2e-05,2e-05,4,30
20864,-2e-05,0,-6e-05,-0.0003,-0.00053,0.00034,2e-05,2e-05,4,30
20865,-2e-05,0,-6e-05,-0.0003,-0.00053,0.00034,2e-05,2e-05,4,30
20866,-2e-05,0,-6e-05,-0.0003,-0.00053,0.00034,2e-05,2e-05,4,30
20867,-2e-05,-5e-05,-0.00013,-0.00015,7e-05,-0.00024,-8e-05,-3e-05,4,30
20868,1e-05,1e-05,4e-05,-0.00011,-0.00024,0.00071,2e-05,1e-05,4,30
20869,1e-05,1e-05,4e-05,-0.00011,-0.00024,0.00071,2e-05,1e-05,4,30
20870,1e-05,1e-05,4e-05,-0.00011,-0.00024,0.00071,2e-05,1e-05,4,30
20872,1e-05,1e-05,4e-05,-0.00011,-0.00024,0.00071,2e-05,1e-05,4,30
20873,1e-05,1e-05,4e-05,-0.00011,-0.00024,0.00071,2e-05,1e-05,4,30
20874,1e-05,1e-05,4e-05,-0.00011,-0.00024,0.00071,2e-05,1e-05,4,30
20875,1e-05,1e-05,4e-05,-0.00011,-0.00024,0.00071,2e-05,1e-05,4,30
20876,1e-05,1e-05,4e-05,-0.00011,-0.00024,0.00071,2e-05,1e-05,4,30
20877,1e-05,1e-05,4e-05,-0.00011,-0.00024,0.00071,2e-05,1e-05,4,30
20878,1e-05,1e-05,4e-05,-0.00011,-0.00024,0.00071,2e-05,1e-05,4,30
20879,1e-05,1e-05,4e-05,-0.00011,-0.00024,0.00071,2e-05,1e-05,4,30
20880,1e-05,1e-05,4e-05,-0.00011,-0.00024,0.00071,2e-05,1e-05,4,30
20881,1e-05,1e-05,4e-05,-0.00011,-0.00024,0.00071,2e-05,1e-05,4,30
20882,1e-05,1e-05,4e-05,-0.00011,-0.00024,0.00071,2e-05,1e-05,4,30
20883,1e-05,1e-05,4e-05,-0.00011,-0.00024,0.00071,2e-05,1e-05,4,30
20884,1e-05,1e-05,4e-05,-0.00011,-0.00024,0.00071,2e-05,1e-05,4,30
20885,1e-05,1e-05,4e-05,-0.00011,-0.00024,0.00071,2e-05,1e-05,4,30
20887,1e-05,1e-05,4e-05,-0.00011,-0.00024,0.00071,2e-05,1e-05,4,30
20889,1e-05,1e-05,4e-05,-0.00011,-0.00024,0.00071,2e-05,1e-05,4,30
20890,-2e-05,-2e-05,2e-05,0.00011,6e-05,-1e-05,-4e-05,-1e-05,4,30
20891,-2e-05,-2e-05,2e-05,0.00011,6e-05,-1e-05,-4e-05,-1e-05,4,30
20892,-2e-05,-2e-05,2e-05,0.00011,6e-05,-1e-05,-4e-05,-1e-05,4,30
20893,-2e-05,-2e-05,2e-05,0.00011,6e-05,-1e-05,-4e-05,-1e-05,4,30
20894,-2e-05,-2e-05,2e-05,0.00011,6e-05,-1e-05,-4e-05,-1e-05,4,30
20895,2e-05,3e-05,0.00011,0.0002,0.00018,0.00011,1e-05,-1e-05,4,30
20896,2e-05,3e-05,0.00011,0.0002,0.00018,0.00011,1e-05,-1e-05,4,30
20897,2e-05,3e-05,0.00011,0.0002,0.00018,0.00011,1e-05,-1e-05,4,30
20898,2e-05,3e-05,0.00011,0.0002,0.00018,0.00011,1e-05,-1e-05,4,30
20899,2e-05,3e-05,0.00011,0.0002,0.00018,0.00011,1e-05,-1e-05,4,30
20900,2e-05,3e-05,0.00011,0.0002,0.00018,0.00011,1e-05,-1e-05,4,30
20901,2e-05,3e-05,0.00011,0.0002,0.00018,0.00011,1e-05,-1e-05,4,30
20902,2e-05,3e-05,0.00011,0.0002,0.00018,0.00011,1e-05,-1e-05,4,30
20903,2e-05,3e-05,0.00011,0.0002,0.00018,0.00011,1e-05,-1e-05,4,30
20904,-6e-05,-0.0001,-0.00022,0.0002,0.00099,-0.00023,-8e-05,-7e-05,4,30
20905,-6e-05,-0.0001,-0.00022,0.0002,0.00099,-0.00023,-8e-05,-7e-05,4,30
20906,-6e-05,-0.0001,-0.00022,0.0002,0.00099,-0.00023,-8e-05,-7e-05,4,30
20907,-6e-05,-0.0001,-0.00022,0.0002,0.00099,-0.00023,-8e-05,-7e-05,4,30
20908,-6e-05,-0.0001,-0.00022,0.0002,0.00099,-0.00023,-8e-05,-7e-05,4,30
20909,-6e-05,-0.0001,-0.00022,0.0002,0.00099,-0.00023,-8e-05,-7e-05,4,30
20910,-6e-05,-0.0001,-0.00022,0.0002,0.00099,-0.00023,-8e-05,-7e-05,4,30
20911,-6e-05,-0.0001,-0.00022,0.0002,0.00099,-0.00023,-8e-05,-7e-05,4,30
20912,-6e-05,-0.0001,-0.00022,0.0002,0.00099,-0.00023,-8e-05,-7e-05,4,30
20913,-6e-05,-0.0001,-0.00022,0.0002,0.00099,-0.00023,-8e-05,-7e-05,4,30
20914,-6e-05,-0.0001,-0.00022,0.0002,0.00099,-0.00023,-8e-05,-7e-05,4,30
20915,-6e-05,-0.0001,-0.00022,0.0002,0.00099,-0.00023,-8e-05,-7e-05,4,30
20916,-6e-05,-0.0001,-0.00022,0.0002,0.00099,-0.00023,-8e-05,-7e-05,4,30
20917,-6e-05,-0.0001,-0.00022,0.0002,0.00099,-0.00023,-8e-05,-7e-05,4,30
20918,-1e-05,-2e-05,-7e-05,-0.0004,-0.00084,-0.00019,-3e-05,-4e-05,4,30
20919,-1e-05,-2e-05,-7e-05,-0.0004,-0.00084,-0.00019,-3e-05,-4e-05,4,30
20920,1e-05,5e-05,0.00015,0.00027,-5e-05,5e-05,1e-05,1e-05,4,30
20921,1e-05,5e-05,0.00015,0.00027,-5e-05,5e-05,1e-05,1e-05,4,30
20922,1e-05,5e-05,0.00015,0.00027,-5e-05,5e-05,1e-05,1e-05,4,30
20923,1e-05,5e-05,0.00015,0.00027,-5e-05,5e-05,1e-05,1e-05,4,30
20924,1e-05,5e-05,0.00015,0.00027,-5e-05,5e-05,1e-05,1e-05,4,30
20925,1e-05,5e-05,0.00015,0.00027,-5e-05,5e-05,1e-05,1e-05,4,30
20926,1e-05,5e-05,0.00015,0.00027,-5e-05,5e-05,1e-05,1e-05,4,30
20927,1e-05,5e-05,0.00015,0.00027,-5e-05,5e-05,1e-05,1e-05,4,30
20928,1e-05,5e-05,0.00015,0.00027,-5e-05,5e-05,1e-05,1e-05,4,30
20929,1e-05,5e-05,0.00015,0.00027,-5e-05,5e-05,1e-05,1e-05,4,30
20930,1e-05,5e-05,0.00015,0.00027,-5e-05,5e-05,1e-05,1e-05,4,30
20931,1e-05,5e-05,0.00015,0.00027,-5e-05,5e-05,1e-05,1e-05,4,30
20932,1e-05,5e-05,0.00015,0.00027,-5e-05,5e-05,1e-05,1e-05,4,30
20933,1e-05,5e-05,0.00015,0.00027,-5e-05,5e-05,1e-05,1e-05,4,30
20934,1e-05,5e-05,0.00015,0.00027,-5e-05,5e-05,1e-05,1e-05,4,30
20935,1e-05,5e-05,0.00015,0.00027,-5e-05,5e-05,1e-05,1e-05,4,30
20937,1e-05,5e-05,0.00015,0.00027,-5e-05,5e-05,1e-05,1e-05,4,30
20939,1e-05,5e-05,0.00015,0.00027,-5e-05,5e-05,1e-05,1e-05,4,30
20940,1e-05,5e-05,0.00015,0.00027,-5e-05,5e-05,1e-05,1e-05,4,30
20941,1e-05,5e-05,0.00015,0.00027,-5e-05,5e-05,1e-05,1e-05,4,30
20942,-5e-05,-8e-05,-9e-05,0,-0.00026,-5e-05,-5e-05,-2e-05,4,30
20943,-5e-05,-8e-05,-9e-05,0,-0.00026,-5e-05,-5e-05,-2e-05,4,30
20944,-5e-05,-8e-05,-9e-05,0,-0.00026,-5e-05,-5e-05,-2e-05,4,30
20945,-5e-05,-8e-05,-9e-05,0,-0.00026,-5e-05,-5e-05,-2e-05,4,30
20946,-5e-05,-8e-05,-9e-05,0,-0.00026,-5e-05,-5e-05,-2e-05,4,30
20947,-5e-05,-8e-05,-9e-05,0,-0.00026,-5e-05,-5e-05,-2e-05,4,30
20948,-5e-05,-8e-05,-9e-05,0,-0.00026,-5e-05,-5e-05,-2e-05,4,30
20949,-5e-05,-8e-05,-9e-05,0,-0.00026,-5e-05,-5e-05,-2e-05,4,30
20950,-5e-05,-8e-05,-9e-05,0,-0.00026,-5e-05,-5e-05,-2e-05,4,30
20951,-5e-05,-8e-05,-9e-05,0,-0.00026,-5e-05,-5e-05,-2e-05,4,30
20952,-5e-05,-8e-05,-9e-05,0,-0.00026,-5e-05,-5e-05,-2e-05,4,30
20953,-5e-05,-8e-05,-9e-05,0,-0.00026,-5e-05,-5e-05,-2e-05,4,30
20954,-5e-05,-8e-05,-9e-05,0,-0.00026,-5e-05,-5e-05,-2e-05,4,30
20955,-5e-05,-8e-05,-9e-05,0,-0.00026,-5e-05,-5e-05,-2e-05,4,30
20956,-5e-05,-8e-05,-9e-05,0,-0.00026,-5e-05,-5e-05,-2e-05,4,30
20957,-5e-05,-8e-05,-9e-05,0,-0.00026,-5e-05,-5e-05,-2e-05,4,30
20958,-5e-05,-8e-05,-9e-05,0,-0.00026,-5e-05,-5e-05,-2e-05,4,30
20959,-5e-05,-8e-05,-9e-05,0,-0.00026,-5e-05,-5e-05,-2e-05,4,30
20960,-5e-05,-8e-05,-9e-05,0,-0.00026,-5e-05,-5e-05,-2e-05,4,30
20961,-5e-05,-8e-05,-9e-05,0,-0.00026,-5e-05,-5e-05,-2e-05,4,30
20962,-5e-05,-8e-05,-9e-05,0,-0.00026,-5e-05,-5e-05,-2e-05,4,30
20963,-5e-05,-8e-05,-9e-05,0,-0.00026,-5e-05,-5e-05,-2e-05,4,30
20964,-5e-05,-8e-05,-0.0001,0.00019,-7e-05,-0.00013,-6e-05,-5e-05,4,30
20965,-2e-05,-3e-05,-3e-05,-0.00018,0.00028,-0.0004,-9e-05,-4e-05,4,30
20966,-2e-05,-3e-05,-3e-05,-0.00018,0.00028,-0.0004,-9e-05,-4e-05,4,30
20967,-2e-05,-3e-05,-3e-05,-0.00018,0.00028,-0.0004,-9e-05,-4e-05,4,30
20968,-2e-05,-3e-05,-3e-05,-0.00018,0.00028,-0.0004,-9e-05,-4e-05,4,30
20969,-2e-05,-3e-05,-3e-05,-0.00018,0.00028,-0.0004,-9e-05,-4e-05,4,30
20970,-2e-05,-3e-05,-3e-05,-0.00018,0.00028,-0.0004,-9e-05,-4e-05,4,30
20971,-2e-05,-3e-05,-3e-05,-0.00018,0.00028,-0.0004,-9e-05,-4e-05,4,30
20972,-2e-05,-3e-05,-3e-05,-0.00018,0.00028,-0.0004,-9e-05,-4e-05,4,30
20973,-2e-05,-3e-05,-3e-05,-0.00018,0.00028,-0.0004,-9e-05,-4e-05,4,30
20974,-2e-05,-3e-05,-3e-05,-0.00018,0.00028,-0.0004,-9e-05,-4e-05,4,30
20975,-2e-05,-3e-05,-3e-05,-0.00018,0.00028,-0.0004,-9e-05,-4e-05,4,30
20976,-2e-05,-3e-05,-3e-05,-0.00018,0.00028,-0.0004,-9e-05,-4e-05,4,30
20977,-2e-05,-3e-05,-3e-05,-0.00018,0.00028,-0.0004,-9e-05,-4e-05,4,30
20978,4e-05,1e-05,2e-05,-0.00037,-0.00071,0.00039,8e-05,3e-05,4,30
20979,0,2e-05,1e-05,-9e-05,0.00032,0.00018,3e-05,1e-05,4,30
20980,0,2e-05,1e-05,-9e-05,0.00032,0.00018,3e-05,1e-05,4,30
20981,0,2e-05,1e-05,-9e-05,0.00032,0.00018,3e-05,1e-05,4,30
20982,0,2e-05,1e-05,-9e-05,0.00032,0.00018,3e-05,1e-05,4,30
20983,0,2e-05,1e-05,-9e-05,0.00032,0.00018,3e-05,1e-05,4,30
20984,0,2e-05,1e-05,-9e-05,0.00032,0.00018,3e-05,1e-05,4,30
20985,0,2e-05,1e-05,-9e-05,0.00032,0.00018,3e-05,1e-05,4,30
20986,0,2e-05,1e-05,-9e-05,0.00032,0.00018,3e-05,1e-05,4,30
20988,0,2e-05,1e-05,-9e-05,0.00032,0.00018,3e-05,1e-05,4,30
20989,0,2e-05,1e-05,-9e-05,0.00032,0.00018,3e-05,1e-05,4,30
20990,0,2e-05,1e-05,-9e-05,0.00032,0.00018,3e-05,1e-05,4,30
20991,0,2e-05,1e-05,-9e-05,0.00032,0.00018,3e-05,1e-05,4,30
20992,0,2e-05,1e-05,-9e-05,0.00032,0.00018,3e-05,1e-05,4,30
20993,0,2e-05,1e-05,-9e-05,0.00032,0.00018,3e-05,1e-05,4,30
20994,0,2e-05,1e-05,-9e-05,0.00032,0.00018,3e-05,1e-05,4,30
20995,0,2e-05,1e-05,-9e-05,0.00032,0.00018,3e-05,1e-05,4,30
20996,0,2e-05,1e-05,-9e-05,0.00032,0.00018,3e-05,1e-05,4,30
20997,0,2e-05,1e-05,-9e-05,0.00032,0.00018,3e-05,1e-05,4,30
20998,0,2e-05,1e-05,-9e-05,0.00032,0.00018,3e-05,1e-05,4,30
20999,0,2e-05,1e-05,-9e-05,0.00032,0.00018,3e-05,1e-05,4,30
21000,0,2e-05,1e-05,-9e-05,0.00032,0.00018,3e-05,1e-05,4,30
21001,0,2e-05,1e-05,-9e-05,0.00032,0.00018,3e-05,1e-05,4,30
21002,-1e-05,3e-05,1e-05,-1e-05,0.00017,0.00048,-3e-05,2e-05,4,30
21003,-1e-05,-3e-05,-6e-05,-0.00037,-0.00064,-0.00044,0,-4e-05,4,30
21004,-1e-05,-3e-05,-6e-05,-0.00037,-0.00064,-0.00044,0,-4e-05,4,30
21005,-1e-05,-3e-05,-6e-05,-0.00037,-0.00064,-0.00044,0,-4e-05,4,30
21006,-1e-05,-3e-05,-6e-05,-0.00037,-0.00064,-0.00044,0,-4e-05,4,30
21007,-1e-05,-3e-05,-6e-05,-0.00037,-0.00064,-0.00044,0,-4e-05,4,30
21008,-1e-05,-3e-05,-6e-05,-0.00037,-0.00064,-0.00044,0,-4e-05,4,30
21009,-1e-05,-3e-05,-6e-05,-0.00037,-0.00064,-0.00044,0,-4e-05,4,30
21010,-1e-05,-3e-05,-6e-05,-0.00037,-0.00064,-0.00044,0,-4e-05,4,30
21011,-1e-05,-3e-05,-6e-05,-0.00037,-0.00064,-0.00044,0,-4e-05,4,30
21012,-1e-05,-3e-05,-6e-05,-0.00037,-0.00064,-0.00044,0,-4e-05,4,30
21013,-1e-05,-3e-05,-6e-05,-0.00037,-0.00064,-0.00044,0,-4e-05,4,30
21014,-1e-05,-3e-05,-6e-05,-0.00037,-0.00064,-0.00044,0,-4e-05,4,30
21015,-1e-05,-3e-05,-6e-05,-0.00037,-0.00064,-0.00044,0,-4e-05,4,30
21016,-1e-05,-3e-05,-6e-05,-0.00037,-0.00064,-0.00044,0,-4e-05,4,30
21017,-1e-05,-3e-05,-6e-05,-0.00037,-0.00064,-0.00044,0,-4e-05,4,30
21018,-1e-05,-3e-05,-6e-05,-0.00037,-0.00064,-0.00044,0,-4e-05,4,30
21019,-1e-05,-3e-05,-6e-05,-0.00037,-0.00064,-0.00044,0,-4e-05,4,30
21020,-1e-05,-3e-05,-6e-05,-0.00037,-0.00064,-0.00044,0,-4e-05,4,30
21021,-1e-05,-3e-05,-6e-05,-0.00037,-0.00064,-0.00044,0,-4e-05,4,30
21022,-1e-05,-3e-05,-6e-05,-0.00037,-0.00064,-0.00044,0,-4e-05,4,30
21023,-1e-05,-3e-05,-6e-05,-0.00037,-0.00064,-0.00044,0,-4e-05,4,30
21024,1e-05,1e-05,7e-05,-1e-05,0.00018,0.00012,4e-05,1e-05,4,30
21025,0,-1e-05,-5e-05,-0.00063,-0.00055,-9e-05,-1e-05,-2e-05,4,30
21026,0,-1e-05,-5e-05,-0.00063,-0.00055,-9e-05,-1e-05,-2e-05,4,30
21027,0,-1e-05,-5e-05,-0.00063,-0.00055,-9e-05,-1e-05,-2e-05,4,30
21028,0,-1e-05,-5e-05,-0.00063,-0.00055,-9e-05,-1e-05,-2e-05,4,30
21029,0,-1e-05,-5e-05,-0.00063,-0.00055,-9e-05,-1e-05,-2e-05,4,30
21030,0,-1e-05,-5e-05,-0.00063,-0.00055,-9e-05,-1e-05,-2e-05,4,30
21031,0,-1e-05,-5e-05,-0.00063,-0.00055,-9e-05,-1e-05,-2e-05,4,30
21032,0,-1e-05,-5e-05,-0.00063,-0.00055,-9e-05,-1e-05,-2e-05,4,30
21033,0,-1e-05,-5e-05,-0.00063,-0.00055,-9e-05,-1e-05,-2e-05,4,30
21034,0,-1e-05,-5e-05,-0.00063,-0.00055,-9e-05,-1e-05,-2e-05,4,30
21035,0,-1e-05,-5e-05,-0.00063,-0.00055,-9e-05,-1e-05,-2e-05,4,30
21036,0,-1e-05,-5e-05,-0.00063,-0.00055,-9e-05,-1e-05,-2e-05,4,30
21038,0,-1e-05,-5e-05,-0.00063,-0.00055,-9e-05,-1e-05,-2e-05,4,30
21039,1e-05,1e-05,0.0001,-4e-05,0.0002,3e-05,-4e-05,-2e-05,4,30
21040,1e-05,1e-05,0.0001,-4e-05,0.0002,3e-05,-4e-05,-2e-05,4,30
21041,1e-05,1e-05,0.0001,-4e-05,0.0002,3e-05,-4e-05,-2e-05,4,30
21042,1e-05,1e-05,0.0001,-4e-05,0.0002,3e-05,-4e-05,-2e-05,4,30
21043,1e-05,1e-05,0.0001,-4e-05,0.0002,3e-05,-4e-05,-2e-05,4,30
21044,1e-05,1e-05,0.0001,-4e-05,0.0002,3e-05,-4e-05,-2e-05,4,30
21045,1e-05,1e-05,0.0001,-4e-05,0.0002,3e-05,-4e-05,-2e-05,4,30
21046,1e-05,1e-05,0.0001,-4e-05,0.0002,3e-05,-4e-05,-2e-05,4,30
21047,1e-05,1e-05,0.0001,-4e-05,0.0002,3e-05,-4e-05,-2e-05,4,30
21048,1e-05,1e-05,0.0001,-4e-05,0.0002,3e-05,-4e-05,-2e-05,4,30
21049,1e-05,1e-05,0.0001,-4e-05,0.0002,3e-05,-4e-05,-2e-05,4,30
21050,1e-05,1e-05,0.0001,-4e-05,0.0002,3e-05,-4e-05,-2e-05,4,30
21051,1e-05,1e-05,0.0001,-4e-05,0.0002,3e-05,-4e-05,-2e-05,4,30
21052,1e-05,1e-05,0.0001,-4e-05,0.0002,3e-05,-4e-05,-2e-05,4,30
21053,1e-05,1e-05,0.0001,-4e-05,0.0002,3e-05,-4e-05,-2e-05,4,30
21054,1e-05,1e-05,0.0001,-4e-05,0.0002,3e-05,-4e-05,-2e-05,4,30
21055,1e-05,1e-05,0.0001,-4e-05,0.0002,3e-05,-4e-05,-2e-05,4,30
21056,1e-05,1e-05,0.0001,-4e-05,0.0002,3e-05,-4e-05,-2e-05,4,30
21057,1e-05,1e-05,0.0001,-4e-05,0.0002,3e-05,-4e-05,-2e-05,4,30
21058,1e-05,1e-05,0.0001,-4e-05,0.0002,3e-05,-4e-05,-2e-05,4,30
21059,1e-05,1e-05,0.0001,-4e-05,0.0002,3e-05,-4e-05,-2e-05,4,30
21060,1e-05,1e-05,0.0001,-4e-05,0.0002,3e-05,-4e-05,-2e-05,4,30
21061,0,-4e-05,-0.00012,-0.00037,-0.00042,-3e-05,-3e-05,-2e-05,4,30
21062,4e-05,9e-05,0.0002,0.00079,-0.00033,0.00025,9e-05,7e-05,4,30
21063,4e-05,9e-05,0.0002,0.00079,-0.00033,0.00025,9e-05,7e-05,4,30
21065,4e-05,9e-05,0.0002,0.00079,-0.00033,0.00025,9e-05,7e-05,4,30
21066,4e-05,9e-05,0.0002,0.00079,-0.00033,0.00025,9e-05,7e-05,4,30
21067,4e-05,9e-05,0.0002,0.00079,-0.00033,0.00025,9e-05,7e-05,4,30
21068,4e-05,9e-05,0.0002,0.00079,-0.00033,0.00025,9e-05,7e-05,4,30
21069,4e-05,9e-05,0.0002,0.00079,-0.00033,0.00025,9e-05,7e-05,4,30
21070,4e-05,9e-05,0.0002,0.00079,-0.00033,0.00025,9e-05,7e-05,4,30
21071,4e-05,9e-05,0.0002,0.00079,-0.00033,0.00025,9e-05,7e-05,4,30
21072,4e-05,9e-05,0.0002,0.00079,-0.00033,0.00025,9e-05,7e-05,4,30
21073,4e-05,9e-05,0.0002,0.00079,-0.00033,0.00025,9e-05,7e-05,4,30
21074,4e-05,9e-05,0.0002,0.00079,-0.00033,0.00025,9e-05,7e-05,4,30
21075,4e-05,9e-05,0.0002,0.00079,-0.00033,0.00025,9e-05,7e-05,4,30
21076,4e-05,9e-05,0.0002,0.00079,-0.00033,0.00025,9e-05,7e-05,4,30
21077,4e-05,9e-05,0.0002,0.00079,-0.00033,0.00025,9e-05,7e-05,4,30
21078,4e-05,9e-05,0.0002,0.00079,-0.00033,0.00025,9e-05,7e-05,4,30
21079,4e-05,9e-05,0.0002,0.00079,-0.00033,0.00025,9e-05,7e-05,4,30
21080,4e-05,9e-05,0.0002,0.00079,-0.00033,0.00025,9e-05,7e-05,4,30
21081,4e-05,9e-05,0.0002,0.00079,-0.00033,0.00025,9e-05,7e-05,4,30
21082,4e-05,9e-05,0.0002,0.00079,-0.00033,0.00025,9e-05,7e-05,4,30
21083,4e-05,9e-05,0.0002,0.00079,-0.00033,0.00025,9e-05,7e-05,4,30
21084,-1e-05,-5e-05,-4e-05,0.00034,0.00021,3e-05,-0.00012,-5e-05,4,30
21085,1e-05,1e-05,-4e-05,0.00017,8e-05,-0.0001,3e-05,-2e-05,4,30
21086,1e-05,1e-05,-4e-05,0.00017,8e-05,-0.0001,3e-05,-2e-05,4,30
21089,1e-05,1e-05,-4e-05,0.00017,8e-05,-0.0001,3e-05,-2e-05,4,30
21090,1e-05,1e-05,-4e-05,0.00017,8e-05,-0.0001,3e-05,-2e-05,4,30
21091,1e-05,1e-05,-4e-05,0.00017,8e-05,-0.0001,3e-05,-2e-05,4,30
21092,1e-05,1e-05,-4e-05,0.00017,8e-05,-0.0001,3e-05,-2e-05,4,30
21093,1e-05,1e-05,-4e-05,0.00017,8e-05,-0.0001,3e-05,-2e-05,4,30
21094,1e-05,1e-05,-4e-05,0.00017,8e-05,-0.0001,3e-05,-2e-05,4,30
21095,1e-05,1e-05,-4e-05,0.00017,8e-05,-0.0001,3e-05,-2e-05,4,30
21096,1e-05,1e-05,-4e-05,0.00017,8e-05,-0.0001,3e-05,-2e-05,4,30
21097,1e-05,1e-05,-4e-05,0.00017,8e-05,-0.0001,3e-05,-2e-05,4,30
21098,1e-05,1e-05,-4e-05,0.00017,8e-05,-0.0001,3e-05,-2e-05,4,30
21099,0,0,3e-05,0.0002,0.00011,-3e-05,-2e-05,0,4,30
21100,2e-05,6e-05,0.00011,-0.00014,-9e-05,0.0003,1e-05,0,4,30
21101,2e-05,6e-05,0.00011,-0.00014,-9e-05,0.0003,1e-05,0,4,30
21102,2e-05,6e-05,0.00011,-0.00014,-9e-05,0.0003,1e-05,0,4,30
21103,2e-05,6e-05,0.00011,-0.00014,-9e-05,0.0003,1e-05,0,4,30
21104,2e-05,6e-05,0.00011,-0.00014,-9e-05,0.0003,1e-05,0,4,30
21105,2e-05,6e-05,0.00011,-0.00014,-9e-05,0.0003,1e-05,0,4,30
21106,2e-05,6e-05,0.00011,-0.00014,-9e-05,0.0003,1e-05,0,4,30
21107,2e-05,6e-05,0.00011,-0.00014,-9e-05,0.0003,1e-05,0,4,30
21108,2e-05,6e-05,0.00011,-0.00014,-9e-05,0.0003,1e-05,0,4,30
21109,2e-05,6e-05,0.00011,-0.00014,-9e-05,0.0003,1e-05,0,4,30
21110,2e-05,6e-05,0.00011,-0.00014,-9e-05,0.0003,1e-05,0,4,30
21111,2e-05,6e-05,0.00011,-0.00014,-9e-05,0.0003,1e-05,0,4,30
21112,2e-05,6e-05,0.00011,-0.00014,-9e-05,0.0003,1e-05,0,4,30
21113,2e-05,6e-05,0.00011,-0.00014,-9e-05,0.0003,1e-05,0,4,30
21114,2e-05,6e-05,0.00011,-0.00014,-9e-05,0.0003,1e-05,0,4,30
21115,2e-05,6e-05,0.00011,-0.00014,-9e-05,0.0003,1e-05,0,4,30
21116,2e-05,6e-05,0.00011,-0.00014,-9e-05,0.0003,1e-05,0,4,30
21117,2e-05,6e-05,0.00011,-0.00014,-9e-05,0.0003,1e-05,0,4,30
21118,2e-05,6e-05,0.00011,-0.00014,-9e-05,0.0003,1e-05,0,4,30
21119,2e-05,6e-05,0.00011,-0.00014,-9e-05,0.0003,1e-05,0,4,30
21120,2e-05,6e-05,0.00011,-0.00014,-9e-05,0.0003,1e-05,0,4,30
21121,2e-05,6e-05,0.00011,-0.00014,-9e-05,0.0003,1e-05,0,4,30
21122,-6e-05,-5e-05,-0.00012,-0.00026,-9e-05,-0.00036,-3e-05,-5e-05,4,30
21123,1e-05,4e-05,0.00011,-1e-05,0,9e-05,2e-05,1e-05,4,30
21124,1e-05,4e-05,0.00011,-1e-05,0,9e-05,2e-05,1e-05,4,30
21125,1e-05,4e-05,0.00011,-1e-05,0,9e-05,2e-05,1e-05,4,30
21126,1e-05,4e-05,0.00011,-1e-05,0,9e-05,2e-05,1e-05,4,30
21127,1e-05,4e-05,0.00011,-1e-05,0,9e-05,2e-05,1e-05,4,30
21128,1e-05,4e-05,0.00011,-1e-05,0,9e-05,2e-05,1e-05,4,30
21129,1e-05,4e-05,0.00011,-1e-05,0,9e-05,2e-05,1e-05,4,30
21130,1e-05,4e-05,0.00011,-1e-05,0,9e-05,2e-05,1e-05,4,30
21131,1e-05,4e-05,0.00011,-1e-05,0,9e-05,2e-05,1e-05,4,30
21133,1e-05,4e-05,0.00011,-1e-05,0,9e-05,2e-05,1e-05,4,30
21134,1e-05,4e-05,0.00011,-1e-05,0,9e-05,2e-05,1e-05,4,30
21135,1e-05,4e-05,0.00011,-1e-05,0,9e-05,2e-05,1e-05,4,30
21136,1e-05,4e-05,0.00011,-1e-05,0,9e-05,2e-05,1e-05,4,30
21138,1e-05,4e-05,0.00011,-1e-05,0,9e-05,2e-05,1e-05,4,30
21140,1e-05,4e-05,0.00011,-1e-05,0,9e-05,2e-05,1e-05,4,30
21141,1e-05,4e-05,0.00011,-1e-05,0,9e-05,2e-05,1e-05,4,30
21142,1e-05,4e-05,0.00011,-1e-05,0,9e-05,2e-05,1e-05,4,30
21143,1e-05,4e-05,0.00011,-1e-05,0,9e-05,2e-05,1e-05,4,30
21144,-6e-05,-7e-05,-8e-05,-0.00026,-0.00055,-0.00024,-9e-05,-5e-05,4,30
21145,-1e-05,-2e-05,-4e-05,0.00044,0.00032,6e-05,-3e-05,-2e-05,4,30
21146,-1e-05,-2e-05,-4e-05,0.00044,0.00032,6e-05,-3e-05,-2e-05,4,30
21147,-1e-05,-2e-05,-4e-05,0.00044,0.00032,6e-05,-3e-05,-2e-05,4,30
21148,-1e-05,-2e-05,-4e-05,0.00044,0.00032,6e-05,-3e-05,-2e-05,4,30
21149,-1e-05,-2e-05,-4e-05,0.00044,0.00032,6e-05,-3e-05,-2e-05,4,30
21150,-1e-05,-2e-05,-4e-05,0.00044,0.00032,6e-05,-3e-05,-2e-05,4,30
21151,-1e-05,-2e-05,-4e-05,0.00044,0.00032,6e-05,-3e-05,-2e-05,4,30
21152,-1e-05,-2e-05,-4e-05,0.00044,0.00032,6e-05,-3e-05,-2e-05,4,30
21153,-1e-05,-2e-05,-4e-05,0.00044,0.00032,6e-05,-3e-05,-2e-05,4,30
21154,-1e-05,-2e-05,-4e-05,0.00044,0.00032,6e-05,-3e-05,-2e-05,4,30
21155,-1e-05,-2e-05,-4e-05,0.00044,0.00032,6e-05,-3e-05,-2e-05,4,30
21156,-1e-05,-2e-05,-4e-05,0.00044,0.00032,6e-05,-3e-05,-2e-05,4,30
21157,-1e-05,-2e-05,-4e-05,0.00044,0.00032,6e-05,-3e-05,-2e-05,4,30
21158,-1e-05,-2e-05,-4e-05,0.00044,0.00032,6e-05,-3e-05,-2e-05,4,30
21159,-1e-05,-2e-05,-4e-05,0.00044,0.00032,6e-05,-3e-05,-2e-05,4,30
21160,-1e-05,-2e-05,-4e-05,0.00044,0.00032,6e-05,-3e-05,-2e-05,4,30
21161,-1e-05,-2e-05,-4e-05,0.00044,0.00032,6e-05,-3e-05,-2e-05,4,30
21162,-1e-05,-2e-05,-4e-05,0.00044,0.00032,6e-05,-3e-05,-2e-05,4,30
21163,-1e-05,-2e-05,-4e-05,0.00044,0.00032,6e-05,-3e-05,-2e-05,4,30
21164,-1e-05,-2e-05,-4e-05,0.00044,0.00032,6e-05,-3e-05,-2e-05,4,30
21165,-1e-05,-2e-05,-4e-05,0.00044,0.00032,6e-05,-3e-05,-2e-05,4,30
21166,-1e-05,-2e-05,-4e-05,0.00044,0.00032,6e-05,-3e-05,-2e-05,4,30
21167,-6e-05,-5e-05,-6e-05,0.00017,5e-05,-0.00013,-7e-05,-5e-05,4,30
21168,-6e-05,-5e-05,-6e-05,0.00017,5e-05,-0.00013,-7e-05,-5e-05,4,30
21169,-6e-05,-5e-05,-6e-05,0.00017,5e-05,-0.00013,-7e-05,-5e-05,4,30
21170,-6e-05,-5e-05,-6e-05,0.00017,5e-05,-0.00013,-7e-05,-5e-05,4,30
21171,-6e-05,-5e-05,-6e-05,0.00017,5e-05,-0.00013,-7e-05,-5e-05,4,30
21172,-6e-05,-5e-05,-6e-05,0.00017,5e-05,-0.00013,-7e-05,-5e-05,4,30
21173,-6e-05,-5e-05,-6e-05,0.00017,5e-05,-0.00013,-7e-05,-5e-05,4,30
21174,-6e-05,-5e-05,-6e-05,0.00017,5e-05,-0.00013,-7e-05,-5e-05,4,30
21175,-6e-05,-5e-05,-6e-05,0.00017,5e-05,-0.00013,-7e-05,-5e-05,4,30
21176,-6e-05,-5e-05,-6e-05,0.00017,5e-05,-0.00013,-7e-05,-5e-05,4,30
21177,-6e-05,-5e-05,-6e-05,0.00017,5e-05,-0.00013,-7e-05,-5e-05,4,30
21178,-6e-05,-5e-05,-6e-05,0.00017,5e-05,-0.00013,-7e-05,-5e-05,4,30
21179,-6e-05,-5e-05,-6e-05,0.00017,5e-05,-0.00013,-7e-05,-5e-05,4,30
21180,-6e-05,-5e-05,-6e-05,0.00017,5e-05,-0.00013,-7e-05,-5e-05,4,30
21181,-6e-05,-5e-05,-6e-05,0.00017,5e-05,-0.00013,-7e-05,-5e-05,4,30
21182,-2e-05,0,1e-05,0.00035,0.00088,-0.00016,-3e-05,2e-05,4,30
21183,-1e-05,2e-05,8e-05,-0.00026,-0.00028,-0.00023,4e-05,3e-05,4,30
21185,-1e-05,2e-05,8e-05,-0.00026,-0.00028,-0.00023,4e-05,3e-05,4,30
21186,-1e-05,2e-05,8e-05,-0.00026,-0.00028,-0.00023,4e-05,3e-05,4,30
21189,-1e-05,2e-05,8e-05,-0.00026,-0.00028,-0.00023,4e-05,3e-05,4,30
21190,-1e-05,2e-05,8e-05,-0.00026,-0.00028,-0.00023,4e-05,3e-05,4,30
21191,-1e-05,2e-05,8e-05,-0.00026,-0.00028,-0.00023,4e-05,3e-05,4,30
21192,-1e-05,2e-05,8e-05,-0.00026,-0.00028,-0.00023,4e-05,3e-05,4,30
21193,-1e-05,2e-05,8e-05,-0.00026,-0.00028,-0.00023,4e-05,3e-05,4,30
21194,-1e-05,2e-05,8e-05,-0.00026,-0.00028,-0.00023,4e-05,3e-05,4,30
21195,-1e-05,2e-05,8e-05,-0.00026,-0.00028,-0.00023,4e-05,3e-05,4,30
21196,-1e-05,2e-05,8e-05,-0.00026,-0.00028,-0.00023,4e-05,3e-05,4,30
21197,-1e-05,2e-05,8e-05,-0.00026,-0.00028,-0.00023,4e-05,3e-05,4,30
21198,-1e-05,2e-05,8e-05,-0.00026,-0.00028,-0.00023,4e-05,3e-05,4,30
21199,-1e-05,2e-05,8e-05,-0.00026,-0.00028,-0.00023,4e-05,3e-05,4,30
21200,-1e-05,2e-05,8e-05,-0.00026,-0.00028,-0.00023,4e-05,3e-05,4,30
21201,-1e-05,2e-05,8e-05,-0.00026,-0.00028,-0.00023,4e-05,3e-05,4,30
21202,-1e-05,2e-05,8e-05,-0.00026,-0.00028,-0.00023,4e-05,3e-05,4,30
21203,-1e-05,2e-05,8e-05,-0.00026,-0.00028,-0.00023,4e-05,3e-05,4,30
21204,2e-05,0,2e-05,-9e-05,0.00014,0.00022,2e-05,0,4,30
21205,0,-4e-05,3e-05,0.00013,7e-05,-3e-05,-2e-05,-1e-05,4,30
21206,0,-4e-05,3e-05,0.00013,7e-05,-3e-05,-2e-05,-1e-05,4,30
21207,0,-4e-05,3e-05,0.00013,7e-05,-3e-05,-2e-05,-1e-05,4,30
21208,0,-4e-05,3e-05,0.00013,7e-05,-3e-05,-2e-05,-1e-05,4,30
21209,0,-4e-05,3e-05,0.00013,7e-05,-3e-05,-2e-05,-1e-05,4,30
21210,0,-4e-05,3e-05,0.00013,7e-05,-3e-05,-2e-05,-1e-05,4,30
21211,0,-4e-05,3e-05,0.00013,7e-05,-3e-05,-2e-05,-1e-05,4,30
21212,0,-4e-05,3e-05,0.00013,7e-05,-3e-05,-2e-05,-1e-05,4,30
21213,0,-4e-05,3e-05,0.00013,7e-05,-3e-05,-2e-05,-1e-05,4,30
21214,0,-4e-05,3e-05,0.00013,7e-05,-3e-05,-2e-05,-1e-05,4,30
21215,0,-4e-05,3e-05,0.00013,7e-05,-3e-05,-2e-05,-1e-05,4,30
21216,0,-4e-05,3e-05,0.00013,7e-05,-3e-05,-2e-05,-1e-05,4,30
21217,0,-4e-05,3e-05,0.00013,7e-05,-3e-05,-2e-05,-1e-05,4,30
21218,-3e-05,5e-05,0.00015,-2e-05,-0.00039,-0.00042,1e-05,2e-05,4,30
21219,-2e-05,0,0,0.00046,0.00053,-0.00025,-4e-05,-3e-05,4,30
21220,-2e-05,0,0,0.00046,0.00053,-0.00025,-4e-05,-3e-05,4,30
21221,-2e-05,0,0,0.00046,0.00053,-0.00025,-4e-05,-3e-05,4,30
21222,-2e-05,0,0,0.00046,0.00053,-0.00025,-4e-05,-3e-05,4,30
21223,-2e-05,0,0,0.00046,0.00053,-0.00025,-4e-05,-3e-05,4,30
21224,-2e-05,0,0,0.00046,0.00053,-0.00025,-4e-05,-3e-05,4,30
21225,-2e-05,0,0,0.00046,0.00053,-0.00025,-4e-05,-3e-05,4,30
21226,-2e-05,0,0,0.00046,0.00053,-0.00025,-4e-05,-3e-05,4,30
21227,-2e-05,0,0,0.00046,0.00053,-0.00025,-4e-05,-3e-05,4,30
21228,-2e-05,0,0,0.00046,0.00053,-0.00025,-4e-05,-3e-05,4,30
21229,-2e-05,0,0,0.00046,0.00053,-0.00025,-4e-05,-3e-05,4,30
21230,-2e-05,0,0,0.00046,0.00053,-0.00025,-4e-05,-3e-05,4,30
21231,-2e-05,0,0,0.00046,0.00053,-0.00025,-4e-05,-3e-05,4,30
21232,-2e-05,0,0,0.00046,0.00053,-0.00025,-4e-05,-3e-05,4,30
21233,-2e-05,0,0,0.00046,0.00053,-0.00025,-4e-05,-3e-05,4,30
21234,-2e-05,0,0,0.00046,0.00053,-0.00025,-4e-05,-3e-05,4,30
21235,-2e-05,0,0,0.00046,0.00053,-0.00025,-4e-05,-3e-05,4,30
21236,-2e-05,0,0,0.00046,0.00053,-0.00025,-4e-05,-3e-05,4,30
21238,-2e-05,0,0,0.00046,0.00053,-0.00025,-4e-05,-3e-05,4,30
21239,-2e-05,0,0,0.00046,0.00053,-0.00025,-4e-05,-3e-05,4,30
21240,-2e-05,0,0,0.00046,0.00053,-0.00025,-4e-05,-3e-05,4,30
21241,-2e-05,0,0,0.00046,0.00053,-0.00025,-4e-05,-3e-05,4,30
21242,2e-05,2e-05,1e-05,-0.00034,0.00063,0.00016,7e-05,3e-05,4,30
21243,2e-05,2e-05,1e-05,-0.00034,0.00063,0.00016,7e-05,3e-05,4,30
21244,2e-05,2e-05,1e-05,-0.00034,0.00063,0.00016,7e-05,3e-05,4,30
21245,2e-05,2e-05,1e-05,-0.00034,0.00063,0.00016,7e-05,3e-05,4,30
21246,2e-05,2e-05,1e-05,-0.00034,0.00063,0.00016,7e-05,3e-05,4,30
21247,2e-05,2e-05,1e-05,-0.00034,0.00063,0.00016,7e-05,3e-05,4,30
21248,2e-05,2e-05,1e-05,-0.00034,0.00063,0.00016,7e-05,3e-05,4,30
21249,2e-05,2e-05,1e-05,-0.00034,0.00063,0.00016,7e-05,3e-05,4,30
21250,2e-05,2e-05,1e-05,-0.00034,0.00063,0.00016,7e-05,3e-05,4,30
21251,2e-05,2e-05,1e-05,-0.00034,0.00063,0.00016,7e-05,3e-05,4,30
21252,2e-05,2e-05,1e-05,-0.00034,0.00063,0.00016,7e-05,3e-05,4,30
21253,2e-05,2e-05,1e-05,-0.00034,0.00063,0.00016,7e-05,3e-05,4,30
21254,2e-05,2e-05,1e-05,-0.00034,0.00063,0.00016,7e-05,3e-05,4,30
21255,2e-05,2e-05,1e-05,-0.00034,0.00063,0.00016,7e-05,3e-05,4,30
21256,2e-05,2e-05,1e-05,-0.00034,0.00063,0.00016,7e-05,3e-05,4,30
21257,2e-05,2e-05,1e-05,-0.00034,0.00063,0.00016,7e-05,3e-05,4,30
21258,2e-05,2e-05,1e-05,-0.00034,0.00063,0.00016,7e-05,3e-05,4,30
21259,2e-05,2e-05,1e-05,-0.00034,0.00063,0.00016,7e-05,3e-05,4,30
21260,2e-05,2e-05,1e-05,-0.00034,0.00063,0.00016,7e-05,3e-05,4,30
21261,2e-05,2e-05,1e-05,-0.00034,0.00063,0.00016,7e-05,3e-05,4,30
21262,2e-05,2e-05,1e-05,-0.00034,0.00063,0.00016,7e-05,3e-05,4,30
21263,2e-05,2e-05,1e-05,-0.00034,0.00063,0.00016,7e-05,3e-05,4,30
21264,-1e-05,-4e-05,-6e-05,4e-05,-0.00031,4e-05,-4e-05,1e-05,4,30
21265,0,-3e-05,-8e-05,-0.0007,-0.00081,1e-05,0,3e-05,4,30
21266,0,-3e-05,-8e-05,-0.0007,-0.00081,1e-05,0,3e-05,4,30
21267,0,-3e-05,-8e-05,-0.0007,-0.00081,1e-05,0,3e-05,4,30
21268,0,-3e-05,-8e-05,-0.0007,-0.00081,1e-05,0,3e-05,4,30
21269,0,-3e-05,-8e-05,-0.0007,-0.00081,1e-05,0,3e-05,4,30
21270,0,-3e-05,-8e-05,-0.0007,-0.00081,1e-05,0,3e-05,4,30
21272,0,-3e-05,-8e-05,-0.0007,-0.00081,1e-05,0,3e-05,4,30
21273,0,-3e-05,-8e-05,-0.0007,-0.00081,1e-05,0,3e-05,4,30
21274,0,-3e-05,-8e-05,-0.0007,-0.00081,1e-05,0,3e-05,4,30
21275,0,-3e-05,-8e-05,-0.0007,-0.00081,1e-05,0,3e-05,4,30
21276,0,-3e-05,-8e-05,-0.0007,-0.00081,1e-05,0,3e-05,4,30
21277,0,-3e-05,-8e-05,-0.0007,-0.00081,1e-05,0,3e-05,4,30
21278,2e-05,4e-05,0.00011,0.00055,0.00054,9e-05,3e-05,2e-05,4,30
21279,-4e-05,-7e-05,-9e-05,-7e-05,-7e-05,-8e-05,-8e-05,-6e-05,4,30
21280,4e-05,9e-05,0.0001,0.00023,-1e-05,0.00023,0.00012,6e-05,4,30
21281,4e-05,9e-05,0.0001,0.00023,-1e-05,0.00023,0.00012,6e-05,4,30
21282,4e-05,9e-05,0.0001,0.00023,-1e-05,0.00023,0.00012,6e-05,4,30
21283,4e-05,9e-05,0.0001,0.00023,-1e-05,0.00023,0.00012,6e-05,4,30
21284,4e-05,9e-05,0.0001,0.00023,-1e-05,0.00023,0.00012,6e-05,4,30
21285,4e-05,9e-05,0.0001,0.00023,-1e-05,0.00023,0.00012,6e-05,4,30
21286,4e-05,9e-05,0.0001,0.00023,-1e-05,0.00023,0.00012,6e-05,4,30
21288,4e-05,9e-05,0.0001,0.00023,-1e-05,0.00023,0.00012,6e-05,4,30
21289,4e-05,9e-05,0.0001,0.00023,-1e-05,0.00023,0.00012,6e-05,4,30
21290,4e-05,9e-05,0.0001,0.00023,-1e-05,0.00023,0.00012,6e-05,4,30
21291,4e-05,9e-05,0.0001,0.00023,-1e-05,0.00023,0.00012,6e-05,4,30
21292,4e-05,9e-05,0.0001,0.00023,-1e-05,0.00023,0.00012,6e-05,4,30
21293,4e-05,9e-05,0.0001,0.00023,-1e-05,0.00023,0.00012,6e-05,4,30
21294,4e-05,9e-05,0.0001,0.00023,-1e-05,0.00023,0.00012,6e-05,4,30
21295,4e-05,9e-05,0.0001,0.00023,-1e-05,0.00023,0.00012,6e-05,4,30
21296,4e-05,9e-05,0.0001,0.00023,-1e-05,0.00023,0.00012,6e-05,4,30
21297,4e-05,9e-05,0.0001,0.00023,-1e-05,0.00023,0.00012,6e-05,4,30
21298,4e-05,9e-05,0.0001,0.00023,-1e-05,0.00023,0.00012,6e-05,4,30
21299,4e-05,9e-05,0.0001,0.00023,-1e-05,0.00023,0.00012,6e-05,4,30
21300,4e-05,9e-05,0.0001,0.00023,-1e-05,0.00023,0.00012,6e-05,4,30
21301,4e-05,9e-05,0.0001,0.00023,-1e-05,0.00023,0.00012,6e-05,4,30
21302,-6e-05,-9e-05,-0.0001,1e-05,0.0006,-0.00019,-9e-05,-7e-05,4,30
21303,-6e-05,-9e-05,-0.0001,1e-05,0.0006,-0.00019,-9e-05,-7e-05,4,30
21304,-6e-05,-9e-05,-0.0001,1e-05,0.0006,-0.00019,-9e-05,-7e-05,4,30
21305,-6e-05,-9e-05,-0.0001,1e-05,0.0006,-0.00019,-9e-05,-7e-05,4,30
21306,-6e-05,-9e-05,-0.0001,1e-05,0.0006,-0.00019,-9e-05,-7e-05,4,30
21307,-6e-05,-9e-05,-0.0001,1e-05,0.0006,-0.00019,-9e-05,-7e-05,4,30
21308,-6e-05,-9e-05,-0.0001,1e-05,0.0006,-0.00019,-9e-05,-7e-05,4,30
21309,-6e-05,-9e-05,-0.0001,1e-05,0.0006,-0.00019,-9e-05,-7e-05,4,30
21310,-6e-05,-9e-05,-0.0001,1e-05,0.0006,-0.00019,-9e-05,-7e-05,4,30
21311,-6e-05,-9e-05,-0.0001,1e-05,0.0006,-0.00019,-9e-05,-7e-05,4,30
21312,-6e-05,-9e-05,-0.0001,1e-05,0.0006,-0.00019,-9e-05,-7e-05,4,30
21313,-6e-05,-9e-05,-0.0001,1e-05,0.0006,-0.00019,-9e-05,-7e-05,4,30
21314,-6e-05,-9e-05,-0.0001,1e-05,0.0006,-0.00019,-9e-05,-7e-05,4,30
21315,-6e-05,-9e-05,-0.0001,1e-05,0.0006,-0.00019,-9e-05,-7e-05,4,30
21316,-6e-05,-9e-05,-0.0001,1e-05,0.0006,-0.00019,-9e-05,-7e-05,4,30
21317,-6e-05,-9e-05,-0.0001,1e-05,0.0006,-0.00019,-9e-05,-7e-05,4,30
21318,-6e-05,-9e-05,-0.0001,1e-05,0.0006,-0.00019,-9e-05,-7e-05,4,30
21319,-6e-05,-9e-05,-0.0001,1e-05,0.0006,-0.00019,-9e-05,-7e-05,4,30
21320,-6e-05,-9e-05,-0.0001,1e-05,0.0006,-0.00019,-9e-05,-7e-05,4,30
21321,-6e-05,-9e-05,-0.0001,1e-05,0.0006,-0.00019,-9e-05,-7e-05,4,30
21322,-6e-05,-9e-05,-0.0001,1e-05,0.0006,-0.00019,-9e-05,-7e-05,4,30
21323,-6e-05,-9e-05,-0.0001,1e-05,0.0006,-0.00019,-9e-05,-7e-05,4,30
21324,1e-05,2e-05,0,9e-05,0.00019,0.00012,0,-1e-05,4,30
21325,-3e-05,-2e-05,-4e-05,-7e-05,-0.00035,0.00018,-1e-05,-2e-05,4,30
21326,-3e-05,-2e-05,-4e-05,-7e-05,-0.00035,0.00018,-1e-05,-2e-05,4,30
21327,-3e-05,-2e-05,-4e-05,-7e-05,-0.00035,0.00018,-1e-05,-2e-05,4,30
21328,-3e-05,-2e-05,-4e-05,-7e-05,-0.00035,0.00018,-1e-05,-2e-05,4,30
21329,-3e-05,-2e-05,-4e-05,-7e-05,-0.00035,0.00018,-1e-05,-2e-05,4,30
21330,-3e-05,-2e-05,-4e-05,-7e-05,-0.00035,0.00018,-1e-05,-2e-05,4,30
21331,-3e-05,-2e-05,-4e-05,-7e-05,-0.00035,0.00018,-1e-05,-2e-05,4,30
21332,-3e-05,-2e-05,-4e-05,-7e-05,-0.00035,0.00018,-1e-05,-2e-05,4,30
21333,-3e-05,-2e-05,-4e-05,-7e-05,-0.00035,0.00018,-1e-05,-2e-05,4,30
21334,-3e-05,-2e-05,-4e-05,-7e-05,-0.00035,0.00018,-1e-05,-2e-05,4,30
21335,-3e-05,-2e-05,-4e-05,-7e-05,-0.00035,0.00018,-1e-05,-2e-05,4,30
21336,-3e-05,-2e-05,-4e-05,-7e-05,-0.00035,0.00018,-1e-05,-2e-05,4,30
21339,-3e-05,-3e-05,-7e-05,-0.00031,-0.00031,-0.00037,-7e-05,-4e-05,4,30
21340,-3e-05,-3e-05,-7e-05,-0.00031,-0.00031,-0.00037,-7e-05,-4e-05,4,30
21341,-3e-05,-3e-05,-7e-05,-0.00031,-0.00031,-0.00037,-7e-05,-4e-05,4,30
21342,-3e-05,-3e-05,-7e-05,-0.00031,-0.00031,-0.00037,-7e-05,-4e-05,4,30
21343,-3e-05,-3e-05,-7e-05,-0.00031,-0.00031,-0.00037,-7e-05,-4e-05,4,30
21344,-3e-05,-3e-05,-7e-05,-0.00031,-0.00031,-0.00037,-7e-05,-4e-05,4,30
21345,-3e-05,-3e-05,-7e-05,-0.00031,-0.00031,-0.00037,-7e-05,-4e-05,4,30
21346,-3e-05,-3e-05,-7e-05,-0.00031,-0.00031,-0.00037,-7e-05,-4e-05,4,30
21347,0,-5e-05,-8e-05,-0.00036,-0.00069,4e-05,-4e-05,-3e-05,4,30
21348,0,-5e-05,-8e-05,-0.00036,-0.00069,4e-05,-4e-05,-3e-05,4,30
21349,0,-5e-05,-8e-05,-0.00036,-0.00069,4e-05,-4e-05,-3e-05,4,30
21350,0,-5e-05,-8e-05,-0.00036,-0.00069,4e-05,-4e-05,-3e-05,4,30
21351,0,-5e-05,-8e-05,-0.00036,-0.00069,4e-05,-4e-05,-3e-05,4,30
21352,0,-5e-05,-8e-05,-0.00036,-0.00069,4e-05,-4e-05,-3e-05,4,30
21353,0,-5e-05,-8e-05,-0.00036,-0.00069,4e-05,-4e-05,-3e-05,4,30
21354,0,-5e-05,-8e-05,-0.00036,-0.00069,4e-05,-4e-05,-3e-05,4,30
21355,0,-5e-05,-8e-05,-0.00036,-0.00069,4e-05,-4e-05,-3e-05,4,30
21356,0,-5e-05,-8e-05,-0.00036,-0.00069,4e-05,-4e-05,-3e-05,4,30
21357,0,-5e-05,-8e-05,-0.00036,-0.00069,4e-05,-4e-05,-3e-05,4,30
21358,0,-5e-05,-8e-05,-0.00036,-0.00069,4e-05,-4e-05,-3e-05,4,30
21359,0,-5e-05,-8e-05,-0.00036,-0.00069,4e-05,-4e-05,-3e-05,4,30
21360,0,-5e-05,-8e-05,-0.00036,-0.00069,4e-05,-4e-05,-3e-05,4,30
21361,0,-5e-05,-8e-05,-0.00036,-0.00069,4e-05,-4e-05,-3e-05,4,30
21362,0,1e-05,1e-05,-0.00018,0.00015,0.00074,5e-05,2e-05,4,30
21363,3e-05,-5e-05,-4e-05,7e-05,0.00026,0.00023,0,1e-05,4,30
21364,3e-05,-5e-05,-4e-05,7e-05,0.00026,0.00023,0,1e-05,4,30
21365,3e-05,-5e-05,-4e-05,7e-05,0.00026,0.00023,0,1e-05,4,30
21366,3e-05,-5e-05,-4e-05,7e-05,0.00026,0.00023,0,1e-05,4,30
21367,3e-05,-5e-05,-4e-05,7e-05,0.00026,0.00023,0,1e-05,4,30
21368,3e-05,-5e-05,-4e-05,7e-05,0.00026,0.00023,0,1e-05,4,30
21369,3e-05,-5e-05,-4e-05,7e-05,0.00026,0.00023,0,1e-05,4,30
21370,3e-05,-5e-05,-4e-05,7e-05,0.00026,0.00023,0,1e-05,4,30
21371,3e-05,-5e-05,-4e-05,7e-05,0.00026,0.00023,0,1e-05,4,30
21372,3e-05,-5e-05,-4e-05,7e-05,0.00026,0.00023,0,1e-05,4,30
21373,3e-05,-5e-05,-4e-05,7e-05,0.00026,0.00023,0,1e-05,4,30
21374,3e-05,-5e-05,-4e-05,7e-05,0.00026,0.00023,0,1e-05,4,30
21375,3e-05,-5e-05,-4e-05,7e-05,0.00026,0.00023,0,1e-05,4,30
21376,3e-05,-5e-05,-4e-05,7e-05,0.00026,0.00023,0,1e-05,4,30
21377,3e-05,-5e-05,-4e-05,7e-05,0.00026,0.00023,0,1e-05,4,30
21378,3e-05,-5e-05,-4e-05,7e-05,0.00026,0.00023,0,1e-05,4,30
21379,3e-05,-5e-05,-4e-05,7e-05,0.00026,0.00023,0,1e-05,4,30
21380,3e-05,-5e-05,-4e-05,7e-05,0.00026,0.00023,0,1e-05,4,30
21381,3e-05,-5e-05,-4e-05,7e-05,0.00026,0.00023,0,1e-05,4,30
21382,3e-05,-5e-05,-4e-05,7e-05,0.00026,0.00023,0,1e-05,4,30
21383,3e-05,-5e-05,-4e-05,7e-05,0.00026,0.00023,0,1e-05,4,30
21384,0,1e-05,0,1e-05,-2e-05,-0.00019,0,1e-05,4,30
21385,0,1e-05,0,1e-05,-2e-05,-0.00019,0,1e-05,4,30
21386,-4e-05,-5e-05,-0.0001,-0.00018,-8e-05,-4e-05,-2e-05,-4e-05,4,30
21389,-4e-05,-5e-05,-0.0001,-0.00018,-8e-05,-4e-05,-2e-05,-4e-05,4,30
21390,-4e-05,-5e-05,-0.0001,-0.00018,-8e-05,-4e-05,-2e-05,-4e-05,4,30
21391,-4e-05,-5e-05,-0.0001,-0.00018,-8e-05,-4e-05,-2e-05,-4e-05,4,30
21392,-4e-05,-5e-05,-0.0001,-0.00018,-8e-05,-4e-05,-2e-05,-4e-05,4,30
21393,-4e-05,-5e-05,-0.0001,-0.00018,-8e-05,-4e-05,-2e-05,-4e-05,4,30
21394,-4e-05,-5e-05,-0.0001,-0.00018,-8e-05,-4e-05,-2e-05,-4e-05,4,30
21395,-4e-05,-5e-05,-0.0001,-0.00018,-8e-05,-4e-05,-2e-05,-4e-05,4,30
21396,-4e-05,-5e-05,-0.0001,-0.00018,-8e-05,-4e-05,-2e-05,-4e-05,4,30
21397,-4e-05,-5e-05,-0.0001,-0.00018,-8e-05,-4e-05,-2e-05,-4e-05,4,30
21398,0,0,-4e-05,-0.00037,0.00026,-3e-05,3e-05,3e-05,4,30
21399,0,0,-4e-05,-0.00037,0.00026,-3e-05,3e-05,3e-05,4,30
21400,0,0,-4e-05,-0.00037,0.00026,-3e-05,3e-05,3e-05,4,30
21401,0,0,-4e-05,-0.00037,0.00026,-3e-05,3e-05,3e-05,4,30
21402,0,0,-4e-05,-0.00037,0.00026,-3e-05,3e-05,3e-05,4,30
21403,0,0,-4e-05,-0.00037,0.00026,-3e-05,3e-05,3e-05,4,30
21404,0,0,-4e-05,-0.00037,0.00026,-3e-05,3e-05,3e-05,4,30
21405,0,0,-4e-05,-0.00037,0.00026,-3e-05,3e-05,3e-05,4,30
21406,0,0,-4e-05,-0.00037,0.00026,-3e-05,3e-05,3e-05,4,30
21407,-2e-05,1e-05,3e-05,0.00038,0.00044,-0.00022,-4e-05,-1e-05,4,30
21408,-2e-05,1e-05,3e-05,0.00038,0.00044,-0.00022,-4e-05,-1e-05,4,30
21409,-2e-05,1e-05,3e-05,0.00038,0.00044,-0.00022,-4e-05,-1e-05,4,30
21410,-2e-05,1e-05,3e-05,0.00038,0.00044,-0.00022,-4e-05,-1e-05,4,30
21411,-2e-05,1e-05,3e-05,0.00038,0.00044,-0.00022,-4e-05,-1e-05,4,30
21412,-2e-05,1e-05,3e-05,0.00038,0.00044,-0.00022,-4e-05,-1e-05,4,30
21413,-2e-05,1e-05,3e-05,0.00038,0.00044,-0.00022,-4e-05,-1e-05,4,30
21414,-2e-05,1e-05,3e-05,0.00038,0.00044,-0.00022,-4e-05,-1e-05,4,30
21415,-2e-05,1e-05,3e-05,0.00038,0.00044,-0.00022,-4e-05,-1e-05,4,30
21416,-2e-05,1e-05,3e-05,0.00038,0.00044,-0.00022,-4e-05,-1e-05,4,30
21417,-2e-05,1e-05,3e-05,0.00038,0.00044,-0.00022,-4e-05,-1e-05,4,30
21418,-2e-05,1e-05,3e-05,0.00038,0.00044,-0.00022,-4e-05,-1e-05,4,30
21419,-2e-05,1e-05,3e-05,0.00038,0.00044,-0.00022,-4e-05,-1e-05,4,30
21420,-2e-05,1e-05,3e-05,0.00038,0.00044,-0.00022,-4e-05,-1e-05,4,30
21421,-2e-05,1e-05,3e-05,0.00038,0.00044,-0.00022,-4e-05,-1e-05,4,30
21422,-1e-05,-4e-05,-5e-05,0.00013,0.00052,7e-05,-1e-05,0,4,30
21423,4e-05,7e-05,0.00014,0.00039,0.00076,0.00029,0.0001,4e-05,4,30
21424,4e-05,7e-05,0.00014,0.00039,0.00076,0.00029,0.0001,4e-05,4,30
21425,4e-05,7e-05,0.00014,0.00039,0.00076,0.00029,0.0001,4e-05,4,30
21426,4e-05,7e-05,0.00014,0.00039,0.00076,0.00029,0.0001,4e-05,4,30
21427,4e-05,7e-05,0.00014,0.00039,0.00076,0.00029,0.0001,4e-05,4,30
21428,4e-05,7e-05,0.00014,0.00039,0.00076,0.00029,0.0001,4e-05,4,30
21429,4e-05,7e-05,0.00014,0.00039,0.00076,0.00029,0.0001,4e-05,4,30
21430,4e-05,7e-05,0.00014,0.00039,0.00076,0.00029,0.0001,4e-05,4,30
21431,4e-05,7e-05,0.00014,0.00039,0.00076,0.00029,0.0001,4e-05,4,30
21432,4e-05,7e-05,0.00014,0.00039,0.00076,0.00029,0.0001,4e-05,4,30
21433,4e-05,7e-05,0.00014,0.00039,0.00076,0.00029,0.0001,4e-05,4,30
21434,4e-05,7e-05,0.00014,0.00039,0.00076,0.00029,0.0001,4e-05,4,30
21435,4e-05,7e-05,0.00014,0.00039,0.00076,0.00029,0.0001,4e-05,4,30
21436,4e-05,7e-05,0.00014,0.00039,0.00076,0.00029,0.0001,4e-05,4,30
21439,4e-05,7e-05,0.00014,0.00039,0.00076,0.00029,0.0001,4e-05,4,30
21440,4e-05,7e-05,0.00014,0.00039,0.00076,0.00029,0.0001,4e-05,4,30
21441,4e-05,7e-05,0.00014,0.00039,0.00076,0.00029,0.0001,4e-05,4,30
21442,4e-05,7e-05,0.00014,0.00039,0.00076,0.00029,0.0001,4e-05,4,30
21443,4e-05,7e-05,0.00014,0.00039,0.00076,0.00029,0.0001,4e-05,4,30
21444,-4e-05,-3e-05,-8e-05,-0.00027,-0.00039,-0.00024,-8e-05,-6e-05,4,30
21445,-4e-05,-3e-05,-8e-05,-0.00027,-0.00039,-0.00024,-8e-05,-6e-05,4,30
21446,-1e-05,0,2e-05,0.00015,-3e-05,3e-05,1e-05,0,4,30
21447,-1e-05,0,2e-05,0.00015,-3e-05,3e-05,1e-05,0,4,30
21448,-1e-05,0,2e-05,0.00015,-3e-05,3e-05,1e-05,0,4,30
21449,-1e-05,0,2e-05,0.00015,-3e-05,3e-05,1e-05,0,4,30
21450,-1e-05,0,2e-05,0.00015,-3e-05,3e-05,1e-05,0,4,30
21451,-1e-05,0,2e-05,0.00015,-3e-05,3e-05,1e-05,0,4,30
21452,-1e-05,0,2e-05,0.00015,-3e-05,3e-05,1e-05,0,4,30
21453,-1e-05,0,2e-05,0.00015,-3e-05,3e-05,1e-05,0,4,30
21454,-1e-05,0,2e-05,0.00015,-3e-05,3e-05,1e-05,0,4,30
21455,-1e-05,0,2e-05,0.00015,-3e-05,3e-05,1e-05,0,4,30
21456,-1e-05,0,2e-05,0.00015,-3e-05,3e-05,1e-05,0,4,30
21457,-1e-05,0,2e-05,0.00015,-3e-05,3e-05,1e-05,0,4,30
21458,4e-05,6e-05,0.00011,8e-05,-0.00034,0.00021,4e-05,3e-05,4,30
21459,4e-05,6e-05,0.00011,8e-05,-0.00034,0.00021,4e-05,3e-05,4,30
21460,4e-05,6e-05,0.00011,8e-05,-0.00034,0.00021,4e-05,3e-05,4,30
21461,4e-05,6e-05,0.00011,8e-05,-0.00034,0.00021,4e-05,3e-05,4,30
21462,4e-05,6e-05,0.00011,8e-05,-0.00034,0.00021,4e-05,3e-05,4,30
21463,4e-05,6e-05,0.00011,8e-05,-0.00034,0.00021,4e-05,3e-05,4,30
21464,4e-05,6e-05,0.00011,8e-05,-0.00034,0.00021,4e-05,3e-05,4,30
21465,4e-05,6e-05,0.00011,8e-05,-0.00034,0.00021,4e-05,3e-05,4,30
21466,4e-05,6e-05,0.00011,8e-05,-0.00034,0.00021,4e-05,3e-05,4,30
21467,4e-05,6e-05,0.00011,8e-05,-0.00034,0.00021,4e-05,3e-05,4,30
21468,4e-05,6e-05,0.00011,8e-05,-0.00034,0.00021,4e-05,3e-05,4,30
21469,4e-05,6e-05,0.00011,8e-05,-0.00034,0.00021,4e-05,3e-05,4,30
21470,4e-05,6e-05,0.00011,8e-05,-0.00034,0.00021,4e-05,3e-05,4,30
21471,4e-05,6e-05,0.00011,8e-05,-0.00034,0.00021,4e-05,3e-05,4,30
21472,4e-05,6e-05,0.00011,8e-05,-0.00034,0.00021,4e-05,3e-05,4,30
21473,-1e-05,-6e-05,-0.00013,-0.0003,-0.00045,-0.00011,-6e-05,-2e-05,4,30
21474,-1e-05,-6e-05,-0.00013,-0.0003,-0.00045,-0.00011,-6e-05,-2e-05,4,30
21475,-1e-05,-6e-05,-0.00013,-0.0003,-0.00045,-0.00011,-6e-05,-2e-05,4,30
21476,-1e-05,-6e-05,-0.00013,-0.0003,-0.00045,-0.00011,-6e-05,-2e-05,4,30
21477,-1e-05,-6e-05,-0.00013,-0.0003,-0.00045,-0.00011,-6e-05,-2e-05,4,30
21478,-1e-05,-6e-05,-0.00013,-0.0003,-0.00045,-0.00011,-6e-05,-2e-05,4,30
21479,-1e-05,-6e-05,-0.00013,-0.0003,-0.00045,-0.00011,-6e-05,-2e-05,4,30
21480,-1e-05,-6e-05,-0.00013,-0.0003,-0.00045,-0.00011,-6e-05,-2e-05,4,30
21481,-1e-05,-6e-05,-0.00013,-0.0003,-0.00045,-0.00011,-6e-05,-2e-05,4,30
21482,0,-1e-05,5e-05,-0.00025,0.00026,2e-05,3e-05,-1e-05,4,30
21483,0,-1e-05,5e-05,-0.00025,0.00026,2e-05,3e-05,-1e-05,4,30
21484,0,-1e-05,5e-05,-0.00025,0.00026,2e-05,3e-05,-1e-05,4,30
21485,0,-1e-05,5e-05,-0.00025,0.00026,2e-05,3e-05,-1e-05,4,30
21486,0,-1e-05,5e-05,-0.00025,0.00026,2e-05,3e-05,-1e-05,4,30
21489,0,-1e-05,5e-05,-0.00025,0.00026,2e-05,3e-05,-1e-05,4,30
21490,0,-1e-05,5e-05,-0.00025,0.00026,2e-05,3e-05,-1e-05,4,30
21491,0,-1e-05,5e-05,-0.00025,0.00026,2e-05,3e-05,-1e-05,4,30
21492,0,-1e-05,5e-05,-0.00025,0.00026,2e-05,3e-05,-1e-05,4,30
21493,0,-1e-05,5e-05,-0.00025,0.00026,2e-05,3e-05,-1e-05,4,30
21494,0,-1e-05,5e-05,-0.00025,0.00026,2e-05,3e-05,-1e-05,4,30
21495,-3e-05,-8e-05,-0.00013,-5e-05,0.00022,-0.00011,-5e-05,-4e-05,4,30
21496,0,3e-05,3e-05,-0.00016,0.00011,-1e-05,2e-05,1e-05,4,30
21497,0,3e-05,3e-05,-0.00016,0.00011,-1e-05,2e-05,1e-05,4,30
21498,0,3e-05,3e-05,-0.00016,0.00011,-1e-05,2e-05,1e-05,4,30
21499,0,3e-05,3e-05,-0.00016,0.00011,-1e-05,2e-05,1e-05,4,30
21500,0,3e-05,3e-05,-0.00016,0.00011,-1e-05,2e-05,1e-05,4,30
21501,0,3e-05,3e-05,-0.00016,0.00011,-1e-05,2e-05,1e-05,4,30
21502,0,3e-05,3e-05,-0.00016,0.00011,-1e-05,2e-05,1e-05,4,30
21503,0,3e-05,3e-05,-0.00016,0.00011,-1e-05,2e-05,1e-05,4,30
21504,2e-05,-1e-05,-2e-05,0.00026,0.00028,0.0001,-1e-05,2e-05,4,30
21505,1e-05,-1e-05,5e-05,8e-05,9e-05,1e-05,1e-05,-1e-05,4,30
21506,-4e-05,-7e-05,-0.00013,-0.00026,-0.00012,-0.00016,-3e-05,-4e-05,4,30
21507,-4e-05,-7e-05,-0.00013,-0.00026,-0.00012,-0.00016,-3e-05,-4e-05,4,30
21508,-4e-05,-7e-05,-0.00013,-0.00026,-0.00012,-0.00016,-3e-05,-4e-05,4,30
21509,-4e-05,-7e-05,-0.00013,-0.00026,-0.00012,-0.00016,-3e-05,-4e-05,4,30
21510,-4e-05,-7e-05,-0.00013,-0.00026,-0.00012,-0.00016,-3e-05,-4e-05,4,30
21511,-4e-05,-7e-05,-0.00013,-0.00026,-0.00012,-0.00016,-3e-05,-4e-05,4,30
21512,-4e-05,-7e-05,-0.00013,-0.00026,-0.00012,-0.00016,-3e-05,-4e-05,4,30
21513,-4e-05,-7e-05,-0.00013,-0.00026,-0.00012,-0.00016,-3e-05,-4e-05,4,30
21514,-4e-05,-7e-05,-0.00013,-0.00026,-0.00012,-0.00016,-3e-05,-4e-05,4,30
21515,-4e-05,-7e-05,-0.00013,-0.00026,-0.00012,-0.00016,-3e-05,-4e-05,4,30
21516,-4e-05,-7e-05,-0.00013,-0.00026,-0.00012,-0.00016,-3e-05,-4e-05,4,30
21517,-4e-05,-7e-05,-0.00013,-0.00026,-0.00012,-0.00016,-3e-05,-4e-05,4,30
21518,-2e-05,0,3e-05,8e-05,-0.00019,-0.0002,-3e-05,-3e-05,4,30
21519,-2e-05,0,3e-05,8e-05,-0.00019,-0.0002,-3e-05,-3e-05,4,30
21520,-2e-05,0,3e-05,8e-05,-0.00019,-0.0002,-3e-05,-3e-05,4,30
21521,-2e-05,0,3e-05,8e-05,-0.00019,-0.0002,-3e-05,-3e-05,4,30
21522,-2e-05,0,3e-05,8e-05,-0.00019,-0.0002,-3e-05,-3e-05,4,30
21523,-2e-05,0,3e-05,8e-05,-0.00019,-0.0002,-3e-05,-3e-05,4,30
21524,-2e-05,0,3e-05,8e-05,-0.00019,-0.0002,-3e-05,-3e-05,4,30
21525,-2e-05,0,3e-05,8e-05,-0.00019,-0.0002,-3e-05,-3e-05,4,30
21526,-2e-05,0,3e-05,8e-05,-0.00019,-0.0002,-3e-05,-3e-05,4,30
21527,0,2e-05,0,-6e-05,-0.0011,5e-05,1e-05,0,4,30
21528,0,2e-05,0,-6e-05,-0.0011,5e-05,1e-05,0,4,30
21529,0,2e-05,0,-6e-05,-0.0011,5e-05,1e-05,0,4,30
21530,0,2e-05,0,-6e-05,-0.0011,5e-05,1e-05,0,4,30
21531,0,2e-05,0,-6e-05,-0.0011,5e-05,1e-05,0,4,30
21532,0,2e-05,0,-6e-05,-0.0011,5e-05,1e-05,0,4,30
21533,0,2e-05,0,-6e-05,-0.0011,5e-05,1e-05,0,4,30
21534,0,2e-05,0,-6e-05,-0.0011,5e-05,1e-05,0,4,30
21535,0,2e-05,0,-6e-05,-0.0011,5e-05,1e-05,0,4,30
21536,0,2e-05,0,-6e-05,-0.0011,5e-05,1e-05,0,4,30
21538,0,2e-05,0,-6e-05,-0.0011,5e-05,1e-05,0,4,30
21540,0,2e-05,0,-6e-05,-0.0011,5e-05,1e-05,0,4,30
21541,2e-05,1e-05,-2e-05,-0.00039,0.00027,-0.00029,-2e-05,1e-05,4,30
21542,-1e-05,0,5e-05,6e-05,-0.00019,1e-05,-3e-05,-1e-05,4,30
21543,-6e-05,-8e-05,-0.00014,-0.00022,-0.00046,-0.00036,-6e-05,-5e-05,4,30
21544,-1e-05,1e-05,3e-05,0.00034,0.00047,-5e-05,-7e-05,-3e-05,4,30
21545,-1e-05,1e-05,3e-05,0.00034,0.00047,-5e-05,-7e-05,-3e-05,4,30
21546,-1e-05,1e-05,3e-05,0.00034,0.00047,-5e-05,-7e-05,-3e-05,4,30
21547,-1e-05,1e-05,3e-05,0.00034,0.00047,-5e-05,-7e-05,-3e-05,4,30
21548,-1e-05,1e-05,3e-05,0.00034,0.00047,-5e-05,-7e-05,-3e-05,4,30
21549,-1e-05,1e-05,3e-05,0.00034,0.00047,-5e-05,-7e-05,-3e-05,4,30
21550,-1e-05,1e-05,3e-05,0.00034,0.00047,-5e-05,-7e-05,-3e-05,4,30
21551,-1e-05,1e-05,3e-05,0.00034,0.00047,-5e-05,-7e-05,-3e-05,4,30
21552,-1e-05,1e-05,3e-05,0.00034,0.00047,-5e-05,-7e-05,-3e-05,4,30
21553,-1e-05,1e-05,3e-05,0.00034,0.00047,-5e-05,-7e-05,-3e-05,4,30
21554,-1e-05,1e-05,3e-05,0.00034,0.00047,-5e-05,-7e-05,-3e-05,4,30
21555,-1e-05,1e-05,3e-05,0.00034,0.00047,-5e-05,-7e-05,-3e-05,4,30
21556,-1e-05,1e-05,3e-05,0.00034,0.00047,-5e-05,-7e-05,-3e-05,4,30
21557,-1e-05,1e-05,3e-05,0.00034,0.00047,-5e-05,-7e-05,-3e-05,4,30
21558,-1e-05,1e-05,3e-05,0.00034,0.00047,-5e-05,-7e-05,-3e-05,4,30
21559,-1e-05,1e-05,3e-05,0.00034,0.00047,-5e-05,-7e-05,-3e-05,4,30
21560,-1e-05,1e-05,3e-05,0.00034,0.00047,-5e-05,-7e-05,-3e-05,4,30
21561,-1e-05,1e-05,3e-05,0.00034,0.00047,-5e-05,-7e-05,-3e-05,4,30
21562,-1e-05,1e-05,3e-05,0.00034,0.00047,-5e-05,-7e-05,-3e-05,4,30
21563,-1e-05,1e-05,3e-05,0.00034,0.00047,-5e-05,-7e-05,-3e-05,4,30
21564,2e-05,-1e-05,1e-05,0.00017,-0.00013,0.00012,3e-05,2e-05,4,30
21565,2e-05,-1e-05,1e-05,0.00017,-0.00013,0.00012,3e-05,2e-05,4,30
21566,-1e-05,-1e-05,-2e-05,-0.00012,0.00012,4e-05,0,-3e-05,4,30
21567,-1e-05,-1e-05,-2e-05,-0.00012,0.00012,4e-05,0,-3e-05,4,30
21568,-1e-05,-1e-05,-2e-05,-0.00012,0.00012,4e-05,0,-3e-05,4,30
21569,-1e-05,-1e-05,-2e-05,-0.00012,0.00012,4e-05,0,-3e-05,4,30
21570,-1e-05,-1e-05,-2e-05,-0.00012,0.00012,4e-05,0,-3e-05,4,30
21571,-1e-05,-1e-05,-2e-05,-0.00012,0.00012,4e-05,0,-3e-05,4,30
21572,-1e-05,-1e-05,-2e-05,-0.00012,0.00012,4e-05,0,-3e-05,4,30
21573,-1e-05,-1e-05,-2e-05,-0.00012,0.00012,4e-05,0,-3e-05,4,30
21574,-1e-05,-1e-05,-2e-05,-0.00012,0.00012,4e-05,0,-3e-05,4,30
21575,-1e-05,-1e-05,-2e-05,-0.00012,0.00012,4e-05,0,-3e-05,4,30
21576,-1e-05,-1e-05,-2e-05,-0.00012,0.00012,4e-05,0,-3e-05,4,30
21577,-1e-05,-1e-05,-2e-05,-0.00012,0.00012,4e-05,0,-3e-05,4,30
21578,-1e-05,-1e-05,-2e-05,-0.00012,0.00012,4e-05,0,-3e-05,4,30
21579,-1e-05,-1e-05,-2e-05,-0.00012,0.00012,4e-05,0,-3e-05,4,30
21580,-1e-05,-1e-05,-2e-05,-0.00012,0.00012,4e-05,0,-3e-05,4,30
21581,-1e-05,-1e-05,-2e-05,-0.00012,0.00012,4e-05,0,-3e-05,4,30
21582,-1e-05,-1e-05,-2e-05,-0.00012,0.00012,4e-05,0,-3e-05,4,30
21583,-1e-05,-1e-05,-2e-05,-0.00012,0.00012,4e-05,0,-3e-05,4,30
21584,-1e-05,-1e-05,-2e-05,-0.00012,0.00012,4e-05,0,-3e-05,4,30
21585,-1e-05,-1e-05,-2e-05,-0.00012,0.00012,4e-05,0,-3e-05,4,30
21586,-1e-05,-1e-05,-2e-05,-0.00012,0.00012,4e-05,0,-3e-05,4,30
21588,0,-3e-05,-4e-05,-0.00034,-0.00032,-6e-05,3e-05,3e-05,4,30
21589,0,-3e-05,-4e-05,-0.00034,-0.00032,-6e-05,3e-05,3e-05,4,30
21590,0,-3e-05,-4e-05,-0.00034,-0.00032,-6e-05,3e-05,3e-05,4,30
21591,0,-3e-05,-4e-05,-0.00034,-0.00032,-6e-05,3e-05,3e-05,4,30
21592,0,-3e-05,-4e-05,-0.00034,-0.00032,-6e-05,3e-05,3e-05,4,30
21593,0,-3e-05,-4e-05,-0.00034,-0.00032,-6e-05,3e-05,3e-05,4,30
21594,0,-3e-05,-4e-05,-0.00034,-0.00032,-6e-05,3e-05,3e-05,4,30
21595,0,-3e-05,-4e-05,-0.00034,-0.00032,-6e-05,3e-05,3e-05,4,30
21596,0,-3e-05,-4e-05,-0.00034,-0.00032,-6e-05,3e-05,3e-05,4,30
21597,0,-3e-05,-4e-05,-0.00034,-0.00032,-6e-05,3e-05,3e-05,4,30
21598,0,-3e-05,-4e-05,-0.00034,-0.00032,-6e-05,3e-05,3e-05,4,30
21599,0,-3e-05,-4e-05,-0.00034,-0.00032,-6e-05,3e-05,3e-05,4,30
21600,0,-3e-05,-4e-05,-0.00034,-0.00032,-6e-05,3e-05,3e-05,4,30
21601,0,-3e-05,-4e-05,-0.00034,-0.00032,-6e-05,3e-05,3e-05,4,30
21602,0,-3e-05,-4e-05,-0.00034,-0.00032,-6e-05,3e-05,3e-05,4,30
21603,0,-3e-05,-4e-05,-0.00034,-0.00032,-6e-05,3e-05,3e-05,4,30
21604,0,-3e-05,-4e-05,-0.00034,-0.00032,-6e-05,3e-05,3e-05,4,30
21605,0,-3e-05,-4e-05,-0.00034,-0.00032,-6e-05,3e-05,3e-05,4,30
21606,0,-3e-05,-4e-05,-0.00034,-0.00032,-6e-05,3e-05,3e-05,4,30
21607,0,-3e-05,-4e-05,-0.00034,-0.00032,-6e-05,3e-05,3e-05,4,30
21608,0,-3e-05,-4e-05,-0.00034,-0.00032,-6e-05,3e-05,3e-05,4,30
21609,-2e-05,-3e-05,-8e-05,-0.00014,-0.00035,-0.0001,0,-5e-05,4,30
21610,-1e-05,0,-4e-05,0.00021,0.00027,-9e-05,-4e-05,-3e-05,4,30
21611,-1e-05,0,-4e-05,0.00021,0.00027,-9e-05,-4e-05,-3e-05,4,30
21612,-1e-05,0,-4e-05,0.00021,0.00027,-9e-05,-4e-05,-3e-05,4,30
21613,-1e-05,0,-4e-05,0.00021,0.00027,-9e-05,-4e-05,-3e-05,4,30
21614,-1e-05,0,-4e-05,0.00021,0.00027,-9e-05,-4e-05,-3e-05,4,30
21615,-6e-05,-9e-05,-0.00017,-0.00041,-6e-05,6e-05,-4e-05,-4e-05,4,30
21616,-6e-05,-9e-05,-0.00017,-0.00041,-6e-05,6e-05,-4e-05,-4e-05,4,30
21617,-6e-05,-9e-05,-0.00017,-0.00041,-6e-05,6e-05,-4e-05,-4e-05,4,30
21618,-6e-05,-9e-05,-0.00017,-0.00041,-6e-05,6e-05,-4e-05,-4e-05,4,30
21619,-6e-05,-9e-05,-0.00017,-0.00041,-6e-05,6e-05,-4e-05,-4e-05,4,30
21620,-6e-05,-9e-05,-0.00017,-0.00041,-6e-05,6e-05,-4e-05,-4e-05,4,30
21621,-6e-05,-9e-05,-0.00017,-0.00041,-6e-05,6e-05,-4e-05,-4e-05,4,30
21622,-6e-05,-9e-05,-0.00017,-0.00041,-6e-05,6e-05,-4e-05,-4e-05,4,30
21623,-6e-05,-9e-05,-0.00017,-0.00041,-6e-05,6e-05,-4e-05,-4e-05,4,30
21624,-6e-05,-9e-05,-0.00017,-0.00041,-6e-05,6e-05,-4e-05,-4e-05,4,30
21625,-6e-05,-9e-05,-0.00017,-0.00041,-6e-05,6e-05,-4e-05,-4e-05,4,30
21626,-6e-05,-9e-05,-0.00017,-0.00041,-6e-05,6e-05,-4e-05,-4e-05,4,30
21627,-6e-05,-9e-05,-0.00017,-0.00041,-6e-05,6e-05,-4e-05,-4e-05,4,30
21628,-6e-05,-9e-05,-0.00017,-0.00041,-6e-05,6e-05,-4e-05,-4e-05,4,30
21629,-6e-05,-9e-05,-0.00017,-0.00041,-6e-05,6e-05,-4e-05,-4e-05,4,30
21630,-6e-05,-9e-05,-0.00017,-0.00041,-6e-05,6e-05,-4e-05,-4e-05,4,30
21631,-1e-05,2e-05,7e-05,0.00064,0.00038,-9e-05,-1e-05,-3e-05,4,30
21632,1e-05,-4e-05,0,-0.0006,-9e-05,0.00027,4e-05,0,4,30
21633,0,1e-05,1e-05,0.00016,0.00034,-5e-05,-3e-05,0,4,30
21634,0,1e-05,1e-05,0.00016,0.00034,-5e-05,-3e-05,0,4,30
21635,0,1e-05,1e-05,0.00016,0.00034,-5e-05,-3e-05,0,4,30
21636,0,1e-05,1e-05,0.00016,0.00034,-5e-05,-3e-05,0,4,30
21638,0,-3e-05,-4e-05,0.00023,0.00021,-0.00017,0,1e-05,4,30
21639,0,-3e-05,-4e-05,0.00023,0.00021,-0.00017,0,1e-05,4,30
21640,0,-3e-05,-4e-05,0.00023,0.00021,-0.00017,0,1e-05,4,30
21641,0,-3e-05,-4e-05,0.00023,0.00021,-0.00017,0,1e-05,4,30
21642,0,-3e-05,-4e-05,0.00023,0.00021,-0.00017,0,1e-05,4,30
21643,0,-3e-05,-4e-05,0.00023,0.00021,-0.00017,0,1e-05,4,30
21644,0,-3e-05,-4e-05,0.00023,0.00021,-0.00017,0,1e-05,4,30
21645,0,-3e-05,-4e-05,0.00023,0.00021,-0.00017,0,1e-05,4,30
21646,0,-3e-05,-4e-05,0.00023,0.00021,-0.00017,0,1e-05,4,30
21647,0,-3e-05,-4e-05,0.00023,0.00021,-0.00017,0,1e-05,4,30
21648,0,-3e-05,-4e-05,0.00023,0.00021,-0.00017,0,1e-05,4,30
21649,0,-3e-05,-4e-05,0.00023,0.00021,-0.00017,0,1e-05,4,30
21650,0,-3e-05,-4e-05,0.00023,0.00021,-0.00017,0,1e-05,4,30
21651,0,-3e-05,-4e-05,0.00023,0.00021,-0.00017,0,1e-05,4,30
21652,0,-3e-05,-4e-05,0.00023,0.00021,-0.00017,0,1e-05,4,30
21653,0,-3e-05,-4e-05,0.00023,0.00021,-0.00017,0,1e-05,4,30
21654,3e-05,6e-05,0.00015,0.00034,-8e-05,6e-05,-1e-05,4e-05,4,30
21655,3e-05,6e-05,0.00015,0.00034,-8e-05,6e-05,-1e-05,4e-05,4,30
21656,3e-05,6e-05,0.00015,0.00034,-8e-05,6e-05,-1e-05,4e-05,4,30
21657,3e-05,6e-05,0.00015,0.00034,-8e-05,6e-05,-1e-05,4e-05,4,30
21658,3e-05,6e-05,0.00015,0.00034,-8e-05,6e-05,-1e-05,4e-05,4,30
21659,3e-05,6e-05,0.00015,0.00034,-8e-05,6e-05,-1e-05,4e-05,4,30
21660,3e-05,6e-05,0.00015,0.00034,-8e-05,6e-05,-1e-05,4e-05,4,30
21661,3e-05,6e-05,0.00015,0.00034,-8e-05,6e-05,-1e-05,4e-05,4,30
21662,-3e-05,-6e-05,-6e-05,-0.00021,-0.00017,-0.0001,-8e-05,-2e-05,4,30
21663,-3e-05,-6e-05,-6e-05,-0.00021,-0.00017,-0.0001,-8e-05,-2e-05,4,30
21664,-1e-05,2e-05,1e-05,0.00012,0.00017,5e-05,-3e-05,0,4,30
21665,-1e-05,2e-05,1e-05,0.00012,0.00017,5e-05,-3e-05,0,4,30
21666,-1e-05,2e-05,1e-05,0.00012,0.00017,5e-05,-3e-05,0,4,30
21667,-1e-05,2e-05,1e-05,0.00012,0.00017,5e-05,-3e-05,0,4,30
21668,-1e-05,2e-05,1e-05,0.00012,0.00017,5e-05,-3e-05,0,4,30
21669,-1e-05,2e-05,1e-05,0.00012,0.00017,5e-05,-3e-05,0,4,30
21670,-1e-05,2e-05,1e-05,0.00012,0.00017,5e-05,-3e-05,0,4,30
21671,-1e-05,2e-05,1e-05,0.00012,0.00017,5e-05,-3e-05,0,4,30
21672,-1e-05,2e-05,1e-05,0.00012,0.00017,5e-05,-3e-05,0,4,30
21673,-1e-05,2e-05,1e-05,0.00012,0.00017,5e-05,-3e-05,0,4,30
21674,-1e-05,2e-05,1e-05,0.00012,0.00017,5e-05,-3e-05,0,4,30
21675,-1e-05,2e-05,1e-05,0.00012,0.00017,5e-05,-3e-05,0,4,30
21676,-1e-05,2e-05,1e-05,0.00012,0.00017,5e-05,-3e-05,0,4,30
21677,-1e-05,2e-05,1e-05,0.00012,0.00017,5e-05,-3e-05,0,4,30
21678,-1e-05,2e-05,1e-05,0.00012,0.00017,5e-05,-3e-05,0,4,30
21679,-1e-05,2e-05,1e-05,0.00012,0.00017,5e-05,-3e-05,0,4,30
21680,-1e-05,2e-05,1e-05,0.00012,0.00017,5e-05,-3e-05,0,4,30
21681,-1e-05,2e-05,1e-05,0.00012,0.00017,5e-05,-3e-05,0,4,30
21682,-1e-05,2e-05,1e-05,0.00012,0.00017,5e-05,-3e-05,0,4,30
21683,-1e-05,2e-05,1e-05,0.00012,0.00017,5e-05,-3e-05,0,4,30
21684,-2e-05,-4e-05,-0.00011,-6e-05,-0.00054,0.00039,-3e-05,-2e-05,4,30
21685,-2e-05,-4e-05,-0.00011,-6e-05,-0.00054,0.00039,-3e-05,-2e-05,4,30
21686,-3e-05,-4e-05,-4e-05,-9e-05,-8e-05,-0.00048,0,-3e-05,4,30
21688,-3e-05,-4e-05,-4e-05,-9e-05,-8e-05,-0.00048,0,-3e-05,4,30
21689,-3e-05,-4e-05,-4e-05,-9e-05,-8e-05,-0.00048,0,-3e-05,4,30
21690,-3e-05,-4e-05,-4e-05,-9e-05,-8e-05,-0.00048,0,-3e-05,4,30
21691,-3e-05,-4e-05,-4e-05,-9e-05,-8e-05,-0.00048,0,-3e-05,4,30
21692,-3e-05,-4e-05,-4e-05,-9e-05,-8e-05,-0.00048,0,-3e-05,4,30
21693,-3e-05,-4e-05,-4e-05,-9e-05,-8e-05,-0.00048,0,-3e-05,4,30
21694,-3e-05,-4e-05,-4e-05,-9e-05,-8e-05,-0.00048,0,-3e-05,4,30
21695,-3e-05,-4e-05,-4e-05,-9e-05,-8e-05,-0.00048,0,-3e-05,4,30
21696,-3e-05,-4e-05,-4e-05,-9e-05,-8e-05,-0.00048,0,-3e-05,4,30
21697,-3e-05,-4e-05,-4e-05,-9e-05,-8e-05,-0.00048,0,-3e-05,4,30
21698,1e-05,6e-05,0.00015,0.00017,0.00013,0.00015,5e-05,1e-05,4,30
21699,1e-05,6e-05,0.00015,0.00017,0.00013,0.00015,5e-05,1e-05,4,30
21700,1e-05,6e-05,0.00015,0.00017,0.00013,0.00015,5e-05,1e-05,4,30
21701,1e-05,6e-05,0.00015,0.00017,0.00013,0.00015,5e-05,1e-05,4,30
21702,1e-05,6e-05,0.00015,0.00017,0.00013,0.00015,5e-05,1e-05,4,30
21703,1e-05,6e-05,0.00015,0.00017,0.00013,0.00015,5e-05,1e-05,4,30
21704,1e-05,6e-05,0.00015,0.00017,0.00013,0.00015,5e-05,1e-05,4,30
21705,1e-05,6e-05,0.00015,0.00017,0.00013,0.00015,5e-05,1e-05,4,30
21706,1e-05,6e-05,0.00015,0.00017,0.00013,0.00015,5e-05,1e-05,4,30
21707,-1e-05,-1e-05,7e-05,-1e-05,-0.00045,0.0004,4e-05,-1e-05,4,30
21708,-1e-05,-1e-05,7e-05,-1e-05,-0.00045,0.0004,4e-05,-1e-05,4,30
21709,-1e-05,-1e-05,7e-05,-1e-05,-0.00045,0.0004,4e-05,-1e-05,4,30
21710,-1e-05,-1e-05,7e-05,-1e-05,-0.00045,0.0004,4e-05,-1e-05,4,30
21711,-1e-05,-1e-05,7e-05,-1e-05,-0.00045,0.0004,4e-05,-1e-05,4,30
21712,-1e-05,-1e-05,7e-05,-1e-05,-0.00045,0.0004,4e-05,-1e-05,4,30
21713,-1e-05,-1e-05,7e-05,-1e-05,-0.00045,0.0004,4e-05,-1e-05,4,30
21714,-1e-05,-1e-05,7e-05,-1e-05,-0.00045,0.0004,4e-05,-1e-05,4,30
21715,-1e-05,-1e-05,7e-05,-1e-05,-0.00045,0.0004,4e-05,-1e-05,4,30
21716,-1e-05,-1e-05,7e-05,-1e-05,-0.00045,0.0004,4e-05,-1e-05,4,30
21717,-1e-05,-1e-05,7e-05,-1e-05,-0.00045,0.0004,4e-05,-1e-05,4,30
21718,-1e-05,-1e-05,7e-05,-1e-05,-0.00045,0.0004,4e-05,-1e-05,4,30
21719,-1e-05,-1e-05,7e-05,-1e-05,-0.00045,0.0004,4e-05,-1e-05,4,30
21720,-1e-05,-1e-05,7e-05,-1e-05,-0.00045,0.0004,4e-05,-1e-05,4,30
21721,-1e-05,-1e-05,7e-05,-1e-05,-0.00045,0.0004,4e-05,-1e-05,4,30
21722,-4e-05,-8e-05,-0.00024,-0.00038,7e-05,-0.0003,-9e-05,-4e-05,4,30
21723,-2e-05,-1e-05,-3e-05,0.00014,0.00045,-0.00016,-2e-05,-3e-05,4,30
21724,-1e-05,-1e-05,-6e-05,-0.00028,-0.00024,-0.0002,-6e-05,-5e-05,4,30
21725,-1e-05,-1e-05,-6e-05,-0.00028,-0.00024,-0.0002,-6e-05,-5e-05,4,30
21726,-1e-05,-1e-05,-6e-05,-0.00028,-0.00024,-0.0002,-6e-05,-5e-05,4,30
21727,-1e-05,-1e-05,-6e-05,-0.00028,-0.00024,-0.0002,-6e-05,-5e-05,4,30
21728,-1e-05,-1e-05,-6e-05,-0.00028,-0.00024,-0.0002,-6e-05,-5e-05,4,30
21729,-1e-05,-1e-05,-6e-05,-0.00028,-0.00024,-0.0002,-6e-05,-5e-05,4,30
21730,-1e-05,-1e-05,-6e-05,-0.00028,-0.00024,-0.0002,-6e-05,-5e-05,4,30
21731,-1e-05,-1e-05,-6e-05,-0.00028,-0.00024,-0.0002,-6e-05,-5e-05,4,30
21732,-1e-05,-1e-05,-6e-05,-0.00028,-0.00024,-0.0002,-6e-05,-5e-05,4,30
21733,-1e-05,-1e-05,-6e-05,-0.00028,-0.00024,-0.0002,-6e-05,-5e-05,4,30
21734,-1e-05,-1e-05,-6e-05,-0.00028,-0.00024,-0.0002,-6e-05,-5e-05,4,30
21735,-1e-05,-1e-05,-6e-05,-0.00028,-0.00024,-0.0002,-6e-05,-5e-05,4,30
21736,-1e-05,-1e-05,-6e-05,-0.00028,-0.00024,-0.0002,-6e-05,-5e-05,4,30
21738,-1e-05,-1e-05,-6e-05,-0.00028,-0.00024,-0.0002,-6e-05,-5e-05,4,30
21739,-1e-05,-1e-05,-6e-05,-0.00028,-0.00024,-0.0002,-6e-05,-5e-05,4,30
21740,-1e-05,-1e-05,-6e-05,-0.00028,-0.00024,-0.0002,-6e-05,-5e-05,4,30
21741,-1e-05,-1e-05,-6e-05,-0.00028,-0.00024,-0.0002,-6e-05,-5e-05,4,30
21742,-1e-05,-1e-05,-6e-05,-0.00028,-0.00024,-0.0002,-6e-05,-5e-05,4,30
21743,-1e-05,-1e-05,-6e-05,-0.00028,-0.00024,-0.0002,-6e-05,-5e-05,4,30
21744,0,-4e-05,4e-05,0.00011,0.0001,0.00025,0,1e-05,4,30
21745,-4e-05,-4e-05,-9e-05,-0.00027,-0.00098,-0.00022,-7e-05,-6e-05,4,30
21746,-3e-05,-4e-05,-5e-05,-4e-05,6e-05,-3e-05,-3e-05,0,4,30
21747,-3e-05,-4e-05,-5e-05,-4e-05,6e-05,-3e-05,-3e-05,0,4,30
21748,-3e-05,-4e-05,-5e-05,-4e-05,6e-05,-3e-05,-3e-05,0,4,30
21749,-3e-05,-4e-05,-5e-05,-4e-05,6e-05,-3e-05,-3e-05,0,4,30
21750,-3e-05,-4e-05,-5e-05,-4e-05,6e-05,-3e-05,-3e-05,0,4,30
21751,-3e-05,-4e-05,-5e-05,-4e-05,6e-05,-3e-05,-3e-05,0,4,30
21752,-3e-05,-4e-05,-5e-05,-4e-05,6e-05,-3e-05,-3e-05,0,4,30
21753,-3e-05,-4e-05,-5e-05,-4e-05,6e-05,-3e-05,-3e-05,0,4,30
21754,-3e-05,-4e-05,-5e-05,-4e-05,6e-05,-3e-05,-3e-05,0,4,30
21755,-3e-05,-4e-05,-5e-05,-4e-05,6e-05,-3e-05,-3e-05,0,4,30
21756,-3e-05,-4e-05,-5e-05,-4e-05,6e-05,-3e-05,-3e-05,0,4,30
21757,-3e-05,-4e-05,-5e-05,-4e-05,6e-05,-3e-05,-3e-05,0,4,30
21758,-3e-05,-4e-05,-5e-05,-4e-05,6e-05,-3e-05,-3e-05,0,4,30
21759,-3e-05,-4e-05,-5e-05,-4e-05,6e-05,-3e-05,-3e-05,0,4,30
21760,-3e-05,-4e-05,-5e-05,-4e-05,6e-05,-3e-05,-3e-05,0,4,30
21761,-3e-05,-4e-05,-5e-05,-4e-05,6e-05,-3e-05,-3e-05,0,4,30
21762,-3e-05,-4e-05,-5e-05,-4e-05,6e-05,-3e-05,-3e-05,0,4,30
21763,-3e-05,-4e-05,-5e-05,-4e-05,6e-05,-3e-05,-3e-05,0,4,30
21764,-3e-05,-4e-05,-5e-05,-4e-05,6e-05,-3e-05,-3e-05,0,4,30
21765,-3e-05,-4e-05,-5e-05,-4e-05,6e-05,-3e-05,-3e-05,0,4,30
21766,-3e-05,-7e-05,-7e-05,-0.00022,-0.00027,-0.0002,-6e-05,-3e-05,4,30
21767,5e-05,9e-05,0.00013,2e-05,0.0002,0.00013,4e-05,4e-05,4,30
21768,-5e-05,-6e-05,2e-05,0.00046,0.00049,-4e-05,0,-3e-05,4,30
21769,-5e-05,-6e-05,2e-05,0.00046,0.00049,-4e-05,0,-3e-05,4,30
21770,-5e-05,-6e-05,2e-05,0.00046,0.00049,-4e-05,0,-3e-05,4,30
21771,-5e-05,-6e-05,2e-05,0.00046,0.00049,-4e-05,0,-3e-05,4,30
21772,-5e-05,-6e-05,2e-05,0.00046,0.00049,-4e-05,0,-3e-05,4,30
21773,-5e-05,-6e-05,2e-05,0.00046,0.00049,-4e-05,0,-3e-05,4,30
21774,-5e-05,-6e-05,2e-05,0.00046,0.00049,-4e-05,0,-3e-05,4,30
21775,-5e-05,-6e-05,2e-05,0.00046,0.00049,-4e-05,0,-3e-05,4,30
21776,-5e-05,-6e-05,2e-05,0.00046,0.00049,-4e-05,0,-3e-05,4,30
21777,-5e-05,-6e-05,2e-05,0.00046,0.00049,-4e-05,0,-3e-05,4,30
21778,-5e-05,-6e-05,2e-05,0.00046,0.00049,-4e-05,0,-3e-05,4,30
21779,-5e-05,-6e-05,2e-05,0.00046,0.00049,-4e-05,0,-3e-05,4,30
21780,-5e-05,-6e-05,2e-05,0.00046,0.00049,-4e-05,0,-3e-05,4,30
21781,-2e-05,-2e-05,-0.00015,-0.00066,-0.00076,-0.00014,-9e-05,-3e-05,4,30
21782,-2e-05,0,-4e-05,2e-05,-0.00017,-1e-05,5e-05,0,4,30
21783,-1e-05,-3e-05,-0.0001,-0.00013,-0.00039,-6e-05,-6e-05,-3e-05,4,30
21784,-1e-05,-3e-05,-0.0001,-0.00013,-0.00039,-6e-05,-6e-05,-3e-05,4,30
21785,-1e-05,-3e-05,-0.0001,-0.00013,-0.00039,-6e-05,-6e-05,-3e-05,4,30
21786,-1e-05,-3e-05,-0.0001,-0.00013,-0.00039,-6e-05,-6e-05,-3e-05,4,30
21788,-1e-05,-3e-05,-0.0001,-0.00013,-0.00039,-6e-05,-6e-05,-3e-05,4,30
21789,-1e-05,-3e-05,-0.0001,-0.00013,-0.00039,-6e-05,-6e-05,-3e-05,4,30
21790,-1e-05,-3e-05,-0.0001,-0.00013,-0.00039,-6e-05,-6e-05,-3e-05,4,30
21791,-1e-05,-3e-05,-0.0001,-0.00013,-0.00039,-6e-05,-6e-05,-3e-05,4,30
21792,-1e-05,-3e-05,-0.0001,-0.00013,-0.00039,-6e-05,-6e-05,-3e-05,4,30
21793,-1e-05,-3e-05,-0.0001,-0.00013,-0.00039,-6e-05,-6e-05,-3e-05,4,30
21794,-1e-05,-3e-05,-0.0001,-0.00013,-0.00039,-6e-05,-6e-05,-3e-05,4,30
21795,-1e-05,-3e-05,-0.0001,-0.00013,-0.00039,-6e-05,-6e-05,-3e-05,4,30
21796,-1e-05,-3e-05,-0.0001,-0.00013,-0.00039,-6e-05,-6e-05,-3e-05,4,30
21797,-1e-05,-3e-05,-0.0001,-0.00013,-0.00039,-6e-05,-6e-05,-3e-05,4,30
21798,-1e-05,-3e-05,-0.0001,-0.00013,-0.00039,-6e-05,-6e-05,-3e-05,4,30
21799,-1e-05,-3e-05,-0.0001,-0.00013,-0.00039,-6e-05,-6e-05,-3e-05,4,30
21800,-1e-05,-3e-05,-0.0001,-0.00013,-0.00039,-6e-05,-6e-05,-3e-05,4,30
21801,-1e-05,-3e-05,-0.0001,-0.00013,-0.00039,-6e-05,-6e-05,-3e-05,4,30
21802,-1e-05,-3e-05,-0.0001,-0.00013,-0.00039,-6e-05,-6e-05,-3e-05,4,30
21803,-1e-05,-3e-05,-0.0001,-0.00013,-0.00039,-6e-05,-6e-05,-3e-05,4,30
21804,-2e-05,0,5e-05,0.00055,0.0002,2e-05,-2e-05,-1e-05,4,30
21805,0,-2e-05,-9e-05,0.00016,0.00046,0.00032,6e-05,1e-05,4,30
21806,-5e-05,-4e-05,1e-05,0.00018,8e-05,-0.00058,-7e-05,-6e-05,4,30
21807,-5e-05,-4e-05,1e-05,0.00018,8e-05,-0.00058,-7e-05,-6e-05,4,30
21808,-5e-05,-4e-05,1e-05,0.00018,8e-05,-0.00058,-7e-05,-6e-05,4,30
21809,-5e-05,-4e-05,1e-05,0.00018,8e-05,-0.00058,-7e-05,-6e-05,4,30
21810,-5e-05,-4e-05,1e-05,0.00018,8e-05,-0.00058,-7e-05,-6e-05,4,30
21811,-5e-05,-4e-05,1e-05,0.00018,8e-05,-0.00058,-7e-05,-6e-05,4,30
21812,-5e-05,-4e-05,1e-05,0.00018,8e-05,-0.00058,-7e-05,-6e-05,4,30
21813,-5e-05,-4e-05,1e-05,0.00018,8e-05,-0.00058,-7e-05,-6e-05,4,30
21814,-5e-05,-4e-05,1e-05,0.00018,8e-05,-0.00058,-7e-05,-6e-05,4,30
21815,-5e-05,-4e-05,1e-05,0.00018,8e-05,-0.00058,-7e-05,-6e-05,4,30
21816,-5e-05,-4e-05,1e-05,0.00018,8e-05,-0.00058,-7e-05,-6e-05,4,30
21817,-5e-05,-4e-05,1e-05,0.00018,8e-05,-0.00058,-7e-05,-6e-05,4,30
21818,0,-1e-05,-3e-05,-0.0002,-0.00019,-4e-05,-1e-05,-1e-05,4,30
21819,0,-1e-05,-3e-05,-0.0002,-0.00019,-4e-05,-1e-05,-1e-05,4,30
21820,0,-1e-05,-3e-05,-0.0002,-0.00019,-4e-05,-1e-05,-1e-05,4,30
21821,0,-1e-05,-3e-05,-0.0002,-0.00019,-4e-05,-1e-05,-1e-05,4,30
21822,0,-1e-05,-3e-05,-0.0002,-0.00019,-4e-05,-1e-05,-1e-05,4,30
21823,0,-1e-05,-3e-05,-0.0002,-0.00019,-4e-05,-1e-05,-1e-05,4,30
21824,0,-1e-05,-3e-05,-0.0002,-0.00019,-4e-05,-1e-05,-1e-05,4,30
21825,0,-1e-05,-3e-05,-0.0002,-0.00019,-4e-05,-1e-05,-1e-05,4,30
21826,0,-1e-05,-3e-05,-0.0002,-0.00019,-4e-05,-1e-05,-1e-05,4,30
21827,2e-05,4e-05,3e-05,0.00022,-9e-05,0.00054,6e-05,5e-05,4,30
21828,2e-05,4e-05,3e-05,0.00022,-9e-05,0.00054,6e-05,5e-05,4,30
21829,2e-05,4e-05,3e-05,0.00022,-9e-05,0.00054,6e-05,5e-05,4,30
21830,2e-05,4e-05,3e-05,0.00022,-9e-05,0.00054,6e-05,5e-05,4,30
21831,2e-05,4e-05,3e-05,0.00022,-9e-05,0.00054,6e-05,5e-05,4,30
21832,2e-05,4e-05,3e-05,0.00022,-9e-05,0.00054,6e-05,5e-05,4,30
21833,2e-05,4e-05,3e-05,0.00022,-9e-05,0.00054,6e-05,5e-05,4,30
21834,2e-05,4e-05,3e-05,0.00022,-9e-05,0.00054,6e-05,5e-05,4,30
21835,2e-05,4e-05,3e-05,0.00022,-9e-05,0.00054,6e-05,5e-05,4,30
21836,2e-05,4e-05,3e-05,0.00022,-9e-05,0.00054,6e-05,5e-05,4,30
21838,2e-05,4e-05,3e-05,0.00022,-9e-05,0.00054,6e-05,5e-05,4,30
21839,2e-05,4e-05,3e-05,0.00022,-9e-05,0.00054,6e-05,5e-05,4,30
21840,2e-05,4e-05,3e-05,0.00022,-9e-05,0.00054,6e-05,5e-05,4,30
21841,-3e-05,-4e-05,-0.0001,-6e-05,-0.00021,-0.00022,-6e-05,-4e-05,4,30
21842,-1e-05,2e-05,5e-05,1e-05,0.0002,-0.00015,-5e-05,-2e-05,4,30
21843,3e-05,-3e-05,-1e-05,0.00078,0.00073,0.00019,3e-05,1e-05,4,30
21844,3e-05,-3e-05,-1e-05,0.00078,0.00073,0.00019,3e-05,1e-05,4,30
21845,3e-05,-3e-05,-1e-05,0.00078,0.00073,0.00019,3e-05,1e-05,4,30
21846,3e-05,-3e-05,-1e-05,0.00078,0.00073,0.00019,3e-05,1e-05,4,30
21847,3e-05,-3e-05,-1e-05,0.00078,0.00073,0.00019,3e-05,1e-05,4,30
21848,3e-05,-3e-05,-1e-05,0.00078,0.00073,0.00019,3e-05,1e-05,4,30
21849,3e-05,-3e-05,-1e-05,0.00078,0.00073,0.00019,3e-05,1e-05,4,30
21850,3e-05,-3e-05,-1e-05,0.00078,0.00073,0.00019,3e-05,1e-05,4,30
21851,3e-05,-3e-05,-1e-05,0.00078,0.00073,0.00019,3e-05,1e-05,4,30
21852,3e-05,-3e-05,-1e-05,0.00078,0.00073,0.00019,3e-05,1e-05,4,30
21853,3e-05,-3e-05,-1e-05,0.00078,0.00073,0.00019,3e-05,1e-05,4,30
21854,3e-05,-3e-05,-1e-05,0.00078,0.00073,0.00019,3e-05,1e-05,4,30
21855,3e-05,-3e-05,-1e-05,0.00078,0.00073,0.00019,3e-05,1e-05,4,30
21856,3e-05,-3e-05,-1e-05,0.00078,0.00073,0.00019,3e-05,1e-05,4,30
21857,3e-05,-3e-05,-1e-05,0.00078,0.00073,0.00019,3e-05,1e-05,4,30
21858,3e-05,-3e-05,-1e-05,0.00078,0.00073,0.00019,3e-05,1e-05,4,30
21859,3e-05,-3e-05,-1e-05,0.00078,0.00073,0.00019,3e-05,1e-05,4,30
21860,3e-05,-3e-05,-1e-05,0.00078,0.00073,0.00019,3e-05,1e-05,4,30
21861,3e-05,-3e-05,-1e-05,0.00078,0.00073,0.00019,3e-05,1e-05,4,30
21862,3e-05,-3e-05,-1e-05,0.00078,0.00073,0.00019,3e-05,1e-05,4,30
21863,3e-05,-3e-05,-1e-05,0.00078,0.00073,0.00019,3e-05,1e-05,4,30
21864,3e-05,-3e-05,-1e-05,0.00078,0.00073,0.00019,3e-05,1e-05,4,30
21865,5e-05,2e-05,-8e-05,-0.0004,-0.0003,0.0001,2e-05,0,4,30
21866,-2e-05,1e-05,1e-05,-0.0001,0.00011,-0.00023,-6e-05,-4e-05,4,30
21867,-2e-05,1e-05,1e-05,-0.0001,0.00011,-0.00023,-6e-05,-4e-05,4,30
21868,-2e-05,1e-05,1e-05,-0.0001,0.00011,-0.00023,-6e-05,-4e-05,4,30
21869,-2e-05,1e-05,1e-05,-0.0001,0.00011,-0.00023,-6e-05,-4e-05,4,30
21870,-2e-05,1e-05,1e-05,-0.0001,0.00011,-0.00023,-6e-05,-4e-05,4,30
21871,-2e-05,1e-05,1e-05,-0.0001,0.00011,-0.00023,-6e-05,-4e-05,4,30
21872,-2e-05,1e-05,1e-05,-0.0001,0.00011,-0.00023,-6e-05,-4e-05,4,30
21873,-2e-05,1e-05,1e-05,-0.0001,0.00011,-0.00023,-6e-05,-4e-05,4,30
21874,-2e-05,1e-05,1e-05,-0.0001,0.00011,-0.00023,-6e-05,-4e-05,4,30
21875,-2e-05,1e-05,1e-05,-0.0001,0.00011,-0.00023,-6e-05,-4e-05,4,30
21876,-2e-05,1e-05,1e-05,-0.0001,0.00011,-0.00023,-6e-05,-4e-05,4,30
21877,-2e-05,1e-05,1e-05,-0.0001,0.00011,-0.00023,-6e-05,-4e-05,4,30
21878,-2e-05,1e-05,1e-05,-0.0001,0.00011,-0.00023,-6e-05,-4e-05,4,30
21879,-2e-05,1e-05,1e-05,-0.0001,0.00011,-0.00023,-6e-05,-4e-05,4,30
21880,-2e-05,1e-05,1e-05,-0.0001,0.00011,-0.00023,-6e-05,-4e-05,4,30
21881,-2e-05,1e-05,1e-05,-0.0001,0.00011,-0.00023,-6e-05,-4e-05,4,30
21882,-2e-05,1e-05,1e-05,-0.0001,0.00011,-0.00023,-6e-05,-4e-05,4,30
21883,-2e-05,1e-05,1e-05,-0.0001,0.00011,-0.00023,-6e-05,-4e-05,4,30
21884,-2e-05,1e-05,1e-05,-0.0001,0.00011,-0.00023,-6e-05,-4e-05,4,30
21885,-2e-05,1e-05,1e-05,-0.0001,0.00011,-0.00023,-6e-05,-4e-05,4,30
21886,-2e-05,1e-05,1e-05,-0.0001,0.00011,-0.00023,-6e-05,-4e-05,4,30
21889,0,0,-2e-05,-0.00055,0.00029,3e-05,5e-05,1e-05,4,30
21890,0,0,-2e-05,-0.00055,0.00029,3e-05,5e-05,1e-05,4,30
21891,0,0,-2e-05,-0.00055,0.00029,3e-05,5e-05,1e-05,4,30
21892,0,0,-2e-05,-0.00055,0.00029,3e-05,5e-05,1e-05,4,30
21893,0,0,-2e-05,-0.00055,0.00029,3e-05,5e-05,1e-05,4,30
21894,0,0,-2e-05,-0.00055,0.00029,3e-05,5e-05,1e-05,4,30
21895,0,0,-2e-05,-0.00055,0.00029,3e-05,5e-05,1e-05,4,30
21896,0,0,-2e-05,-0.00055,0.00029,3e-05,5e-05,1e-05,4,30
21897,0,0,-2e-05,-0.00055,0.00029,3e-05,5e-05,1e-05,4,30
21898,0,0,-2e-05,-0.00055,0.00029,3e-05,5e-05,1e-05,4,30
21899,0,0,-2e-05,-0.00055,0.00029,3e-05,5e-05,1e-05,4,30
21900,0,0,-2e-05,-0.00055,0.00029,3e-05,5e-05,1e-05,4,30
21901,0,0,-2e-05,-0.00055,0.00029,3e-05,5e-05,1e-05,4,30
21902,0,0,-2e-05,-0.00055,0.00029,3e-05,5e-05,1e-05,4,30
21903,0,0,-2e-05,-0.00055,0.00029,3e-05,5e-05,1e-05,4,30
21904,0,0,-2e-05,-0.00055,0.00029,3e-05,5e-05,1e-05,4,30
21905,0,0,-2e-05,-0.00055,0.00029,3e-05,5e-05,1e-05,4,30
21906,0,0,-2e-05,-0.00055,0.00029,3e-05,5e-05,1e-05,4,30
21907,0,0,-2e-05,-0.00055,0.00029,3e-05,5e-05,1e-05,4,30
21908,0,0,-2e-05,-0.00055,0.00029,3e-05,5e-05,1e-05,4,30
21909,2e-05,2e-05,8e-05,0.00013,0.00045,8e-05,4e-05,4e-05,4,30
21910,2e-05,2e-05,8e-05,0.00013,0.00045,8e-05,4e-05,4e-05,4,30
21911,-3e-05,1e-05,-5e-05,-0.00014,-0.00076,0.00018,4e-05,4e-05,4,30
21912,-3e-05,1e-05,-5e-05,-0.00014,-0.00076,0.00018,4e-05,4e-05,4,30
21913,-3e-05,1e-05,-5e-05,-0.00014,-0.00076,0.00018,4e-05,4e-05,4,30
21914,-3e-05,1e-05,-5e-05,-0.00014,-0.00076,0.00018,4e-05,4e-05,4,30
21915,-3e-05,1e-05,-5e-05,-0.00014,-0.00076,0.00018,4e-05,4e-05,4,30
21916,-3e-05,1e-05,-5e-05,-0.00014,-0.00076,0.00018,4e-05,4e-05,4,30
21917,-3e-05,1e-05,-5e-05,-0.00014,-0.00076,0.00018,4e-05,4e-05,4,30
21918,-3e-05,1e-05,-5e-05,-0.00014,-0.00076,0.00018,4e-05,4e-05,4,30
21919,-3e-05,1e-05,-5e-05,-0.00014,-0.00076,0.00018,4e-05,4e-05,4,30
21920,-3e-05,1e-05,-5e-05,-0.00014,-0.00076,0.00018,4e-05,4e-05,4,30
21921,-3e-05,1e-05,-5e-05,-0.00014,-0.00076,0.00018,4e-05,4e-05,4,30
21922,-3e-05,1e-05,-5e-05,-0.00014,-0.00076,0.00018,4e-05,4e-05,4,30
21923,-3e-05,1e-05,-5e-05,-0.00014,-0.00076,0.00018,4e-05,4e-05,4,30
21924,-3e-05,1e-05,-5e-05,-0.00014,-0.00076,0.00018,4e-05,4e-05,4,30
21925,-3e-05,1e-05,-5e-05,-0.00014,-0.00076,0.00018,4e-05,4e-05,4,30
21926,-3e-05,1e-05,-5e-05,-0.00014,-0.00076,0.00018,4e-05,4e-05,4,30
21927,-3e-05,1e-05,-5e-05,-0.00014,-0.00076,0.00018,4e-05,4e-05,4,30
21928,-3e-05,1e-05,-5e-05,-0.00014,-0.00076,0.00018,4e-05,4e-05,4,30
21929,-3e-05,1e-05,-5e-05,-0.00014,-0.00076,0.00018,4e-05,4e-05,4,30
21930,-3e-05,1e-05,-5e-05,-0.00014,-0.00076,0.00018,4e-05,4e-05,4,30
21931,-3e-05,1e-05,-5e-05,-0.00014,-0.00076,0.00018,4e-05,4e-05,4,30
21932,-1e-05,0,5e-05,0.00013,0.00037,0.00024,3e-05,0,4,30
21933,-1e-05,0,5e-05,0.00013,0.00037,0.00024,3e-05,0,4,30
21934,0,2e-05,4e-05,6e-05,-0.00046,-0.00016,-3e-05,-2e-05,4,30
21935,0,2e-05,4e-05,6e-05,-0.00046,-0.00016,-3e-05,-2e-05,4,30
21936,0,2e-05,4e-05,6e-05,-0.00046,-0.00016,-3e-05,-2e-05,4,30
21938,0,2e-05,4e-05,6e-05,-0.00046,-0.00016,-3e-05,-2e-05,4,30
21939,0,2e-05,4e-05,6e-05,-0.00046,-0.00016,-3e-05,-2e-05,4,30
21940,0,2e-05,4e-05,6e-05,-0.00046,-0.00016,-3e-05,-2e-05,4,30
21941,0,2e-05,4e-05,6e-05,-0.00046,-0.00016,-3e-05,-2e-05,4,30
21942,0,2e-05,4e-05,6e-05,-0.00046,-0.00016,-3e-05,-2e-05,4,30
21943,0,2e-05,4e-05,6e-05,-0.00046,-0.00016,-3e-05,-2e-05,4,30
21944,0,2e-05,4e-05,6e-05,-0.00046,-0.00016,-3e-05,-2e-05,4,30
21945,0,2e-05,4e-05,6e-05,-0.00046,-0.00016,-3e-05,-2e-05,4,30
21946,0,2e-05,4e-05,6e-05,-0.00046,-0.00016,-3e-05,-2e-05,4,30
21947,0,2e-05,4e-05,6e-05,-0.00046,-0.00016,-3e-05,-2e-05,4,30
21948,0,2e-05,4e-05,6e-05,-0.00046,-0.00016,-3e-05,-2e-05,4,30
21949,0,2e-05,4e-05,6e-05,-0.00046,-0.00016,-3e-05,-2e-05,4,30
21950,0,2e-05,4e-05,6e-05,-0.00046,-0.00016,-3e-05,-2e-05,4,30
21951,0,2e-05,4e-05,6e-05,-0.00046,-0.00016,-3e-05,-2e-05,4,30
21952,0,2e-05,4e-05,6e-05,-0.00046,-0.00016,-3e-05,-2e-05,4,30
21953,0,2e-05,4e-05,6e-05,-0.00046,-0.00016,-3e-05,-2e-05,4,30
21954,0,2e-05,4e-05,6e-05,-0.00046,-0.00016,-3e-05,-2e-05,4,30
21955,0,-2e-05,0,-0.0001,0.00017,-9e-05,7e-05,-1e-05,4,30
21956,0,-2e-05,0,-0.0001,0.00017,-9e-05,7e-05,-1e-05,4,30
21957,0,-2e-05,0,-0.0001,0.00017,-9e-05,7e-05,-1e-05,4,30
21958,0,-2e-05,0,-0.0001,0.00017,-9e-05,7e-05,-1e-05,4,30
21959,0,-2e-05,0,-0.0001,0.00017,-9e-05,7e-05,-1e-05,4,30
21960,0,-2e-05,0,-0.0001,0.00017,-9e-05,7e-05,-1e-05,4,30
21961,0,-2e-05,0,-0.0001,0.00017,-9e-05,7e-05,-1e-05,4,30
21962,3e-05,-5e-05,-3e-05,-0.0002,-6e-05,2e-05,-3e-05,-1e-05,4,30
21963,-4e-05,-3e-05,-2e-05,-0.00012,0.00046,0.00014,-5e-05,-4e-05,4,30
21964,-4e-05,-3e-05,-2e-05,-0.00012,0.00046,0.00014,-5e-05,-4e-05,4,30
21965,-3e-05,-6e-05,-0.0001,-0.00024,-7e-05,-0.00026,1e-05,-3e-05,4,30
21966,-3e-05,-6e-05,-0.0001,-0.00024,-7e-05,-0.00026,1e-05,-3e-05,4,30
21967,-3e-05,-6e-05,-0.0001,-0.00024,-7e-05,-0.00026,1e-05,-3e-05,4,30
21968,-3e-05,-6e-05,-0.0001,-0.00024,-7e-05,-0.00026,1e-05,-3e-05,4,30
21969,-3e-05,-6e-05,-0.0001,-0.00024,-7e-05,-0.00026,1e-05,-3e-05,4,30
21970,-3e-05,-6e-05,-0.0001,-0.00024,-7e-05,-0.00026,1e-05,-3e-05,4,30
21971,-3e-05,-6e-05,-0.0001,-0.00024,-7e-05,-0.00026,1e-05,-3e-05,4,30
21972,-3e-05,-6e-05,-0.0001,-0.00024,-7e-05,-0.00026,1e-05,-3e-05,4,30
21973,-3e-05,-6e-05,-0.0001,-0.00024,-7e-05,-0.00026,1e-05,-3e-05,4,30
21974,-3e-05,-6e-05,-0.0001,-0.00024,-7e-05,-0.00026,1e-05,-3e-05,4,30
21975,-3e-05,-6e-05,-0.0001,-0.00024,-7e-05,-0.00026,1e-05,-3e-05,4,30
21976,-3e-05,-6e-05,-0.0001,-0.00024,-7e-05,-0.00026,1e-05,-3e-05,4,30
21977,-3e-05,-6e-05,-0.0001,-0.00024,-7e-05,-0.00026,1e-05,-3e-05,4,30
21978,-3e-05,-6e-05,-0.0001,-0.00024,-7e-05,-0.00026,1e-05,-3e-05,4,30
21979,-3e-05,-6e-05,-0.0001,-0.00024,-7e-05,-0.00026,1e-05,-3e-05,4,30
21980,-3e-05,-6e-05,-0.0001,-0.00024,-7e-05,-0.00026,1e-05,-3e-05,4,30
21981,-3e-05,-6e-05,-0.0001,-0.00024,-7e-05,-0.00026,1e-05,-3e-05,4,30
21982,-3e-05,-6e-05,-0.0001,-0.00024,-7e-05,-0.00026,1e-05,-3e-05,4,30
21983,-3e-05,-6e-05,-0.0001,-0.00024,-7e-05,-0.00026,1e-05,-3e-05,4,30
21984,2e-05,5e-05,0.00016,0.00027,-0.00024,0.00011,3e-05,3e-05,4,30
21985,2e-05,5e-05,0.00016,0.00027,-0.00024,0.00011,3e-05,3e-05,4,30
21986,-1e-05,1e-05,3e-05,-0.00012,-0.00018,9e-05,-3e-05,-3e-05,4,30
21988,-1e-05,1e-05,3e-05,-0.00012,-0.00018,9e-05,-3e-05,-3e-05,4,30
21989,-1e-05,1e-05,3e-05,-0.00012,-0.00018,9e-05,-3e-05,-3e-05,4,30
21990,-1e-05,1e-05,3e-05,-0.00012,-0.00018,9e-05,-3e-05,-3e-05,4,30
21991,-1e-05,1e-05,3e-05,-0.00012,-0.00018,9e-05,-3e-05,-3e-05,4,30
21992,-1e-05,1e-05,3e-05,-0.00012,-0.00018,9e-05,-3e-05,-3e-05,4,30
21993,-1e-05,1e-05,3e-05,-0.00012,-0.00018,9e-05,-3e-05,-3e-05,4,30
21994,-1e-05,1e-05,3e-05,-0.00012,-0.00018,9e-05,-3e-05,-3e-05,4,30
21995,-1e-05,1e-05,3e-05,-0.00012,-0.00018,9e-05,-3e-05,-3e-05,4,30
21996,-1e-05,1e-05,3e-05,-0.00012,-0.00018,9e-05,-3e-05,-3e-05,4,30
21997,-1e-05,1e-05,3e-05,-0.00012,-0.00018,9e-05,-3e-05,-3e-05,4,30
58790,2e-05,1e-05,1e-05,-0.00049,-0.00014,-4e-05,-1e-05,-1e-05,4,30
58792,2e-05,1e-05,1e-05,-0.00049,-0.00014,-4e-05,-1e-05,-1e-05,4,30
58793,2e-05,1e-05,1e-05,-0.00049,-0.00014,-4e-05,-1e-05,-1e-05,4,30
58794,2e-05,1e-05,1e-05,-0.00049,-0.00014,-4e-05,-1e-05,-1e-05,4,30
58795,2e-05,1e-05,1e-05,-0.00049,-0.00014,-4e-05,-1e-05,-1e-05,4,30
58796,2e-05,1e-05,1e-05,-0.00049,-0.00014,-4e-05,-1e-05,-1e-05,4,30
58797,2e-05,1e-05,1e-05,-0.00049,-0.00014,-4e-05,-1e-05,-1e-05,4,30
58798,2e-05,1e-05,1e-05,-0.00049,-0.00014,-4e-05,-1e-05,-1e-05,4,30
58799,2e-05,1e-05,1e-05,-0.00049,-0.00014,-4e-05,-1e-05,-1e-05,4,30
58800,2e-05,1e-05,1e-05,-0.00049,-0.00014,-4e-05,-1e-05,-1e-05,4,30
58801,2e-05,1e-05,1e-05,-0.00049,-0.00014,-4e-05,-1e-05,-1e-05,4,30
58802,-4e-05,-7e-05,-0.00014,-0.00024,2e-05,-9e-05,-9e-05,-5e-05,4,30
58803,3e-05,5e-05,6e-05,-0.00018,0.00015,0.00017,6e-05,5e-05,4,30
58804,-6e-05,-6e-05,-3e-05,-1e-05,-0.00036,-0.0002,-0.0001,-7e-05,4,30
58805,-6e-05,-6e-05,-3e-05,-1e-05,-0.00036,-0.0002,-0.0001,-7e-05,4,30
58806,-6e-05,-6e-05,-3e-05,-1e-05,-0.00036,-0.0002,-0.0001,-7e-05,4,30
