12531,-0.0007,-0.00023,-0.00031,-0.00066,-0.00042,-0.00041,-0.00024,-7e-05,4,31
12532,-0.0007,-0.00023,-0.00031,-0.00066,-0.00042,-0.00041,-0.00024,-7e-05,4,31
12533,-0.0007,-0.00023,-0.00031,-0.00066,-0.00042,-0.00041,-0.00024,-7e-05,4,31
12534,-0.0007,-0.00023,-0.00031,-0.00066,-0.00042,-0.00041,-0.00024,-7e-05,4,31
12535,-0.0007,-0.00023,-0.00031,-0.00066,-0.00042,-0.00041,-0.00024,-7e-05,4,31
12536,-0.0007,-0.00023,-0.00031,-0.00066,-0.00042,-0.00041,-0.00024,-7e-05,4,31
12540,-0.0007,-0.00023,-0.00031,-0.00066,-0.00042,-0.00041,-0.00024,-7e-05,4,31
12541,-0.0007,-0.00023,-0.00031,-0.00066,-0.00042,-0.00041,-0.00024,-7e-05,4,31
12542,-0.0007,-0.00023,-0.00031,-0.00066,-0.00042,-0.00041,-0.00024,-7e-05,4,31
12543,-0.0007,-0.00023,-0.00031,-0.00066,-0.00042,-0.00041,-0.00024,-7e-05,4,31
12544,-0.0007,-0.00023,-0.00031,-0.00066,-0.00042,-0.00041,-0.00024,-7e-05,4,31
12545,-2e-05,-4e-05,1e-05,-0.00025,0.00048,0.00102,-0.00019,8e-05,4,31
12546,-2e-05,-4e-05,1e-05,-0.00025,0.00048,0.00102,-0.00019,8e-05,4,31
12547,0.0003,0.00014,8e-05,-0.0003,-0.00037,0.00012,0.0002,0.00023,4,31
12548,0.0003,0.00014,8e-05,-0.0003,-0.00037,0.00012,0.0002,0.00023,4,31
12549,0.0003,0.00014,8e-05,-0.0003,-0.00037,0.00012,0.0002,0.00023,4,31
12550,0.0003,0.00014,8e-05,-0.0003,-0.00037,0.00012,0.0002,0.00023,4,31
12552,0.0003,0.00014,8e-05,-0.0003,-0.00037,0.00012,0.0002,0.00023,4,31
12553,0.0003,0.00014,8e-05,-0.0003,-0.00037,0.00012,0.0002,0.00023,4,31
12554,0.0003,0.00014,8e-05,-0.0003,-0.00037,0.00012,0.0002,0.00023,4,31
12555,0.0003,0.00014,8e-05,-0.0003,-0.00037,0.00012,0.0002,0.00023,4,31
12556,0.0003,0.00014,8e-05,-0.0003,-0.00037,0.00012,0.0002,0.00023,4,31
12557,0.0003,0.00014,8e-05,-0.0003,-0.00037,0.00012,0.0002,0.00023,4,31
12558,0.0003,0.00014,8e-05,-0.0003,-0.00037,0.00012,0.0002,0.00023,4,31
12559,0.0003,0.00014,8e-05,-0.0003,-0.00037,0.00012,0.0002,0.00023,4,31
12560,0.0003,0.00014,8e-05,-0.0003,-0.00037,0.00012,0.0002,0.00023,4,31
12561,0.0003,0.00014,8e-05,-0.0003,-0.00037,0.00012,0.0002,0.00023,4,31
12562,0.0003,0.00014,8e-05,-0.0003,-0.00037,0.00012,0.0002,0.00023,4,31
12563,0.0003,0.00014,8e-05,-0.0003,-0.00037,0.00012,0.0002,0.00023,4,31
12564,0.0003,0.00014,8e-05,-0.0003,-0.00037,0.00012,0.0002,0.00023,4,31
12565,0.0003,0.00014,8e-05,-0.0003,-0.00037,0.00012,0.0002,0.00023,4,31
12566,0.0003,0.00014,8e-05,-0.0003,-0.00037,0.00012,0.0002,0.00023,4,31
12567,0.0003,0.00014,8e-05,-0.0003,-0.00037,0.00012,0.0002,0.00023,4,31
12568,0.00016,0.0001,0,-0.0003,0.00102,0.00059,0.00012,-4e-05,4,31
12569,8e-05,-0.00013,-6e-05,-8e-05,0.00081,0.00045,7e-05,8e-05,4,31
12570,8e-05,-0.00013,-6e-05,-8e-05,0.00081,0.00045,7e-05,8e-05,4,31
12571,8e-05,-0.00013,-6e-05,-8e-05,0.00081,0.00045,7e-05,8e-05,4,31
12572,8e-05,-0.00013,-6e-05,-8e-05,0.00081,0.00045,7e-05,8e-05,4,31
12573,8e-05,-0.00013,-6e-05,-8e-05,0.00081,0.00045,7e-05,8e-05,4,31
12574,8e-05,-0.00013,-6e-05,-8e-05,0.00081,0.00045,7e-05,8e-05,4,31
12575,8e-05,-0.00013,-6e-05,-8e-05,0.00081,0.00045,7e-05,8e-05,4,31
12576,8e-05,-0.00013,-6e-05,-8e-05,0.00081,0.00045,7e-05,8e-05,4,31
12577,8e-05,-0.00013,-6e-05,-8e-05,0.00081,0.00045,7e-05,8e-05,4,31
12578,8e-05,-0.00013,-6e-05,-8e-05,0.00081,0.00045,7e-05,8e-05,4,31
12579,8e-05,-0.00013,-6e-05,-8e-05,0.00081,0.00045,7e-05,8e-05,4,31
12580,8e-05,-0.00013,-6e-05,-8e-05,0.00081,0.00045,7e-05,8e-05,4,31
12581,8e-05,-0.00013,-6e-05,-8e-05,0.00081,0.00045,7e-05,8e-05,4,31
12582,8e-05,-0.00013,-6e-05,-8e-05,0.00081,0.00045,7e-05,8e-05,4,31
12583,6e-05,-6e-05,4e-05,-0.00049,-0.0005,-0.00067,-0.0001,-0.00011,4,31
12584,-3e-05,-5e-05,-0.00021,-0.00037,-0.00097,-0.00025,0.00011,-2e-05,4,31
12585,-3e-05,-5e-05,-0.00021,-0.00037,-0.00097,-0.00025,0.00011,-2e-05,4,31
12586,-3e-05,-5e-05,-0.00021,-0.00037,-0.00097,-0.00025,0.00011,-2e-05,4,31
12589,-3e-05,-5e-05,-0.00021,-0.00037,-0.00097,-0.00025,0.00011,-2e-05,4,31
12590,-3e-05,-5e-05,-0.00021,-0.00037,-0.00097,-0.00025,0.00011,-2e-05,4,31
12591,-3e-05,-5e-05,-0.00021,-0.00037,-0.00097,-0.00025,0.00011,-2e-05,4,31
12592,-3e-05,-5e-05,-0.00021,-0.00037,-0.00097,-0.00025,0.00011,-2e-05,4,31
12593,-3e-05,-5e-05,-0.00021,-0.00037,-0.00097,-0.00025,0.00011,-2e-05,4,31
12594,-3e-05,-5e-05,-0.00021,-0.00037,-0.00097,-0.00025,0.00011,-2e-05,4,31
12595,-3e-05,-5e-05,-0.00021,-0.00037,-0.00097,-0.00025,0.00011,-2e-05,4,31
12596,-3e-05,-5e-05,-0.00021,-0.00037,-0.00097,-0.00025,0.00011,-2e-05,4,31
12597,-3e-05,-5e-05,-0.00021,-0.00037,-0.00097,-0.00025,0.00011,-2e-05,4,31
12599,-3e-05,-5e-05,-0.00021,-0.00037,-0.00097,-0.00025,0.00011,-2e-05,4,31
12600,-3e-05,-5e-05,-0.00021,-0.00037,-0.00097,-0.00025,0.00011,-2e-05,4,31
12601,-3e-05,-5e-05,-0.00021,-0.00037,-0.00097,-0.00025,0.00011,-2e-05,4,31
12602,-3e-05,-5e-05,-0.00021,-0.00037,-0.00097,-0.00025,0.00011,-2e-05,4,31
12603,-3e-05,-5e-05,-0.00021,-0.00037,-0.00097,-0.00025,0.00011,-2e-05,4,31
12604,-3e-05,-5e-05,-0.00021,-0.00037,-0.00097,-0.00025,0.00011,-2e-05,4,31
12605,-0.00013,-0.00028,-0.00034,-0.0007,-0.00128,-0.00082,-0.00027,6e-05,4,31
12606,2e-05,0.00011,0.00015,-8e-05,0.00064,-0.00011,5e-05,-8e-05,4,31
12607,1e-05,-0.00013,-6e-05,-0.00037,-0.00013,-0.00048,-0.00015,-0.00012,4,31
12608,1e-05,-0.00013,-6e-05,-0.00037,-0.00013,-0.00048,-0.00015,-0.00012,4,31
12609,1e-05,-0.00013,-6e-05,-0.00037,-0.00013,-0.00048,-0.00015,-0.00012,4,31
12610,1e-05,-0.00013,-6e-05,-0.00037,-0.00013,-0.00048,-0.00015,-0.00012,4,31
12611,1e-05,-0.00013,-6e-05,-0.00037,-0.00013,-0.00048,-0.00015,-0.00012,4,31
12612,1e-05,-0.00013,-6e-05,-0.00037,-0.00013,-0.00048,-0.00015,-0.00012,4,31
12613,1e-05,-0.00013,-6e-05,-0.00037,-0.00013,-0.00048,-0.00015,-0.00012,4,31
12614,1e-05,-0.00013,-6e-05,-0.00037,-0.00013,-0.00048,-0.00015,-0.00012,4,31
12615,1e-05,-0.00013,-6e-05,-0.00037,-0.00013,-0.00048,-0.00015,-0.00012,4,31
12616,1e-05,-0.00013,-6e-05,-0.00037,-0.00013,-0.00048,-0.00015,-0.00012,4,31
12617,1e-05,-0.00013,-6e-05,-0.00037,-0.00013,-0.00048,-0.00015,-0.00012,4,31
12618,1e-05,-0.00013,-6e-05,-0.00037,-0.00013,-0.00048,-0.00015,-0.00012,4,31
12619,1e-05,-0.00013,-6e-05,-0.00037,-0.00013,-0.00048,-0.00015,-0.00012,4,31
12620,1e-05,-0.00013,-6e-05,-0.00037,-0.00013,-0.00048,-0.00015,-0.00012,4,31
12621,1e-05,-0.00013,-6e-05,-0.00037,-0.00013,-0.00048,-0.00015,-0.00012,4,31
12622,1e-05,-0.00013,-6e-05,-0.00037,-0.00013,-0.00048,-0.00015,-0.00012,4,31
12623,1e-05,-0.00013,-6e-05,-0.00037,-0.00013,-0.00048,-0.00015,-0.00012,4,31
12624,1e-05,-0.00013,-6e-05,-0.00037,-0.00013,-0.00048,-0.00015,-0.00012,4,31
12625,1e-05,-0.00013,-6e-05,-0.00037,-0.00013,-0.00048,-0.00015,-0.00012,4,31
12626,1e-05,-0.00013,-6e-05,-0.00037,-0.00013,-0.00048,-0.00015,-0.00012,4,31
12627,1e-05,-0.00013,-6e-05,-0.00037,-0.00013,-0.00048,-0.00015,-0.00012,4,31
12628,-8e-05,-4e-05,-5e-05,0.00091,-4e-05,-0.00048,0.00072,0.00083,4,31
12629,0.00018,9e-05,7e-05,0.00031,-0.00015,-2e-05,-9e-05,2e-05,4,31
12630,0.00018,9e-05,7e-05,0.00031,-0.00015,-2e-05,-9e-05,2e-05,4,31
12631,0.00018,9e-05,7e-05,0.00031,-0.00015,-2e-05,-9e-05,2e-05,4,31
12632,0.00018,9e-05,7e-05,0.00031,-0.00015,-2e-05,-9e-05,2e-05,4,31
12633,0.00018,9e-05,7e-05,0.00031,-0.00015,-2e-05,-9e-05,2e-05,4,31
12634,0.00018,9e-05,7e-05,0.00031,-0.00015,-2e-05,-9e-05,2e-05,4,31
12635,0.00018,9e-05,7e-05,0.00031,-0.00015,-2e-05,-9e-05,2e-05,4,31
12636,0.00018,9e-05,7e-05,0.00031,-0.00015,-2e-05,-9e-05,2e-05,4,31
12639,0.00018,9e-05,7e-05,0.00031,-0.00015,-2e-05,-9e-05,2e-05,4,31
12640,0.00018,9e-05,7e-05,0.00031,-0.00015,-2e-05,-9e-05,2e-05,4,31
12641,0.00018,9e-05,7e-05,0.00031,-0.00015,-2e-05,-9e-05,2e-05,4,31
12642,0.00018,9e-05,7e-05,0.00031,-0.00015,-2e-05,-9e-05,2e-05,4,31
12643,-4e-05,9e-05,0.00021,0.00021,0.00017,-0.00021,-3e-05,-6e-05,4,31
12644,6e-05,0.0002,6e-05,0.00066,0.00085,0.00022,-0.0001,0.00028,4,31
12645,6e-05,0.0002,6e-05,0.00066,0.00085,0.00022,-0.0001,0.00028,4,31
12646,6e-05,0.0002,6e-05,0.00066,0.00085,0.00022,-0.0001,0.00028,4,31
12647,6e-05,0.0002,6e-05,0.00066,0.00085,0.00022,-0.0001,0.00028,4,31
12648,6e-05,0.0002,6e-05,0.00066,0.00085,0.00022,-0.0001,0.00028,4,31
12649,6e-05,0.0002,6e-05,0.00066,0.00085,0.00022,-0.0001,0.00028,4,31
12650,6e-05,0.0002,6e-05,0.00066,0.00085,0.00022,-0.0001,0.00028,4,31
12651,6e-05,0.0002,6e-05,0.00066,0.00085,0.00022,-0.0001,0.00028,4,31
12652,6e-05,0.0002,6e-05,0.00066,0.00085,0.00022,-0.0001,0.00028,4,31
12653,6e-05,0.0002,6e-05,0.00066,0.00085,0.00022,-0.0001,0.00028,4,31
12654,6e-05,0.0002,6e-05,0.00066,0.00085,0.00022,-0.0001,0.00028,4,31
12655,6e-05,0.0002,6e-05,0.00066,0.00085,0.00022,-0.0001,0.00028,4,31
12656,6e-05,0.0002,6e-05,0.00066,0.00085,0.00022,-0.0001,0.00028,4,31
12657,6e-05,0.0002,6e-05,0.00066,0.00085,0.00022,-0.0001,0.00028,4,31
12658,6e-05,0.0002,6e-05,0.00066,0.00085,0.00022,-0.0001,0.00028,4,31
12659,6e-05,0.0002,6e-05,0.00066,0.00085,0.00022,-0.0001,0.00028,4,31
12660,6e-05,0.0002,6e-05,0.00066,0.00085,0.00022,-0.0001,0.00028,4,31
12661,6e-05,0.0002,6e-05,0.00066,0.00085,0.00022,-0.0001,0.00028,4,31
12662,6e-05,0.0002,6e-05,0.00066,0.00085,0.00022,-0.0001,0.00028,4,31
12663,6e-05,0.0002,6e-05,0.00066,0.00085,0.00022,-0.0001,0.00028,4,31
12664,6e-05,0.0002,6e-05,0.00066,0.00085,0.00022,-0.0001,0.00028,4,31
12665,2e-05,5e-05,0.0001,0.0003,0.00018,0,-0.00026,-0.00018,4,31
12666,2e-05,5e-05,0.0001,0.0003,0.00018,0,-0.00026,-0.00018,4,31
12667,-0.00019,-0.00024,-0.00034,-0.00071,-0.00069,0.00015,-0.00034,-0.00049,4,31
12668,-0.00019,-0.00024,-0.00034,-0.00071,-0.00069,0.00015,-0.00034,-0.00049,4,31
12669,-0.00019,-0.00024,-0.00034,-0.00071,-0.00069,0.00015,-0.00034,-0.00049,4,31
12670,-0.00019,-0.00024,-0.00034,-0.00071,-0.00069,0.00015,-0.00034,-0.00049,4,31
12671,-0.00019,-0.00024,-0.00034,-0.00071,-0.00069,0.00015,-0.00034,-0.00049,4,31
12672,-0.00019,-0.00024,-0.00034,-0.00071,-0.00069,0.00015,-0.00034,-0.00049,4,31
12673,-0.00019,-0.00024,-0.00034,-0.00071,-0.00069,0.00015,-0.00034,-0.00049,4,31
12674,-0.00019,-0.00024,-0.00034,-0.00071,-0.00069,0.00015,-0.00034,-0.00049,4,31
12675,-0.00019,-0.00024,-0.00034,-0.00071,-0.00069,0.00015,-0.00034,-0.00049,4,31
12676,-0.00019,-0.00024,-0.00034,-0.00071,-0.00069,0.00015,-0.00034,-0.00049,4,31
12677,-0.00019,-0.00024,-0.00034,-0.00071,-0.00069,0.00015,-0.00034,-0.00049,4,31
12678,-0.00019,-0.00024,-0.00034,-0.00071,-0.00069,0.00015,-0.00034,-0.00049,4,31
12679,-0.00019,-0.00024,-0.00034,-0.00071,-0.00069,0.00015,-0.00034,-0.00049,4,31
12680,-0.00019,-0.00024,-0.00034,-0.00071,-0.00069,0.00015,-0.00034,-0.00049,4,31
12681,-0.00019,-0.00024,-0.00034,-0.00071,-0.00069,0.00015,-0.00034,-0.00049,4,31
12682,-0.00019,-0.00024,-0.00034,-0.00071,-0.00069,0.00015,-0.00034,-0.00049,4,31
12683,-0.00019,-0.00024,-0.00034,-0.00071,-0.00069,0.00015,-0.00034,-0.00049,4,31
12684,-0.00019,-0.00024,-0.00034,-0.00071,-0.00069,0.00015,-0.00034,-0.00049,4,31
12685,-0.00019,-0.00024,-0.00034,-0.00071,-0.00069,0.00015,-0.00034,-0.00049,4,31
12686,-0.00019,-0.00024,-0.00034,-0.00071,-0.00069,0.00015,-0.00034,-0.00049,4,31
12689,2e-05,2e-05,-0.00018,-0.00051,-0.00122,0.00017,-0.00018,-8e-05,4,31
12690,2e-05,4e-05,0.0001,0.0004,0.00067,0.00022,0.00013,1e-05,4,31
12691,2e-05,4e-05,0.0001,0.0004,0.00067,0.00022,0.00013,1e-05,4,31
12692,2e-05,4e-05,0.0001,0.0004,0.00067,0.00022,0.00013,1e-05,4,31
12693,2e-05,4e-05,0.0001,0.0004,0.00067,0.00022,0.00013,1e-05,4,31
12694,2e-05,4e-05,0.0001,0.0004,0.00067,0.00022,0.00013,1e-05,4,31
12695,2e-05,4e-05,0.0001,0.0004,0.00067,0.00022,0.00013,1e-05,4,31
12696,2e-05,4e-05,0.0001,0.0004,0.00067,0.00022,0.00013,1e-05,4,31
12697,2e-05,4e-05,0.0001,0.0004,0.00067,0.00022,0.00013,1e-05,4,31
12698,2e-05,4e-05,0.0001,0.0004,0.00067,0.00022,0.00013,1e-05,4,31
12699,2e-05,4e-05,0.0001,0.0004,0.00067,0.00022,0.00013,1e-05,4,31
12700,2e-05,4e-05,0.0001,0.0004,0.00067,0.00022,0.00013,1e-05,4,31
12701,2e-05,4e-05,0.0001,0.0004,0.00067,0.00022,0.00013,1e-05,4,31
12702,-0.0001,-1e-05,8e-05,-0.00038,1e-05,5e-05,-0.00032,-0.00045,4,31
12703,-0.0001,-1e-05,8e-05,-0.00038,1e-05,5e-05,-0.00032,-0.00045,4,31
12704,-0.0001,-1e-05,8e-05,-0.00038,1e-05,5e-05,-0.00032,-0.00045,4,31
12705,-0.0001,-1e-05,8e-05,-0.00038,1e-05,5e-05,-0.00032,-0.00045,4,31
12706,-0.0001,-1e-05,8e-05,-0.00038,1e-05,5e-05,-0.00032,-0.00045,4,31
12707,-0.0001,-1e-05,8e-05,-0.00038,1e-05,5e-05,-0.00032,-0.00045,4,31
12708,-0.0001,-1e-05,8e-05,-0.00038,1e-05,5e-05,-0.00032,-0.00045,4,31
12709,-7e-05,-0.00015,-0.00025,0.00063,0.00021,0.00016,-1e-05,-0.00012,4,31
12710,-7e-05,-0.00015,-0.00025,0.00063,0.00021,0.00016,-1e-05,-0.00012,4,31
12711,-7e-05,-0.00015,-0.00025,0.00063,0.00021,0.00016,-1e-05,-0.00012,4,31
12712,-7e-05,-0.00015,-0.00025,0.00063,0.00021,0.00016,-1e-05,-0.00012,4,31
12713,-7e-05,-0.00015,-0.00025,0.00063,0.00021,0.00016,-1e-05,-0.00012,4,31
12714,-7e-05,-0.00015,-0.00025,0.00063,0.00021,0.00016,-1e-05,-0.00012,4,31
12715,-7e-05,-0.00015,-0.00025,0.00063,0.00021,0.00016,-1e-05,-0.00012,4,31
12716,-7e-05,-0.00015,-0.00025,0.00063,0.00021,0.00016,-1e-05,-0.00012,4,31
12717,-7e-05,-0.00015,-0.00025,0.00063,0.00021,0.00016,-1e-05,-0.00012,4,31
12718,-7e-05,-0.00015,-0.00025,0.00063,0.00021,0.00016,-1e-05,-0.00012,4,31
12719,-7e-05,-0.00015,-0.00025,0.00063,0.00021,0.00016,-1e-05,-0.00012,4,31
12720,-7e-05,-0.00015,-0.00025,0.00063,0.00021,0.00016,-1e-05,-0.00012,4,31
12721,-7e-05,-0.00015,-0.00025,0.00063,0.00021,0.00016,-1e-05,-0.00012,4,31
12722,-7e-05,-0.00015,-0.00025,0.00063,0.00021,0.00016,-1e-05,-0.00012,4,31
12723,-7e-05,-0.00015,-0.00025,0.00063,0.00021,0.00016,-1e-05,-0.00012,4,31
12724,-7e-05,-0.00015,-0.00025,0.00063,0.00021,0.00016,-1e-05,-0.00012,4,31
12725,5e-05,-1e-05,-9e-05,-1e-05,0.00065,0.00048,6e-05,0.00016,4,31
12726,5e-05,-1e-05,-9e-05,-1e-05,0.00065,0.00048,6e-05,0.00016,4,31
12727,-5e-05,-0.00012,0.00015,6e-05,0.00045,-0.00034,-0.00016,-2e-05,4,31
12728,-5e-05,-0.00012,0.00015,6e-05,0.00045,-0.00034,-0.00016,-2e-05,4,31
12729,-5e-05,-0.00012,0.00015,6e-05,0.00045,-0.00034,-0.00016,-2e-05,4,31
12730,-5e-05,-0.00012,0.00015,6e-05,0.00045,-0.00034,-0.00016,-2e-05,4,31
12731,-5e-05,-0.00012,0.00015,6e-05,0.00045,-0.00034,-0.00016,-2e-05,4,31
12732,-5e-05,-0.00012,0.00015,6e-05,0.00045,-0.00034,-0.00016,-2e-05,4,31
12733,-5e-05,-0.00012,0.00015,6e-05,0.00045,-0.00034,-0.00016,-2e-05,4,31
12734,-5e-05,-0.00012,0.00015,6e-05,0.00045,-0.00034,-0.00016,-2e-05,4,31
12735,-5e-05,-0.00012,0.00015,6e-05,0.00045,-0.00034,-0.00016,-2e-05,4,31
12736,-5e-05,-0.00012,0.00015,6e-05,0.00045,-0.00034,-0.00016,-2e-05,4,31
12739,-5e-05,-0.00012,0.00015,6e-05,0.00045,-0.00034,-0.00016,-2e-05,4,31
12740,-5e-05,-0.00012,0.00015,6e-05,0.00045,-0.00034,-0.00016,-2e-05,4,31
12741,-5e-05,-0.00012,0.00015,6e-05,0.00045,-0.00034,-0.00016,-2e-05,4,31
12742,-5e-05,-0.00012,0.00015,6e-05,0.00045,-0.00034,-0.00016,-2e-05,4,31
12743,-5e-05,-0.00012,0.00015,6e-05,0.00045,-0.00034,-0.00016,-2e-05,4,31
12744,-5e-05,-0.00012,0.00015,6e-05,0.00045,-0.00034,-0.00016,-2e-05,4,31
12745,-5e-05,-0.00012,0.00015,6e-05,0.00045,-0.00034,-0.00016,-2e-05,4,31
12746,-5e-05,-0.00012,0.00015,6e-05,0.00045,-0.00034,-0.00016,-2e-05,4,31
12747,-5e-05,-0.00012,0.00015,6e-05,0.00045,-0.00034,-0.00016,-2e-05,4,31
12748,-1e-05,-4e-05,-0.00021,-0.00034,-0.00027,-0.00053,0.00014,-0.00013,4,31
12749,-1e-05,-1e-05,7e-05,-2e-05,0.00075,7e-05,0.00014,0.00022,4,31
12750,-1e-05,-1e-05,7e-05,-2e-05,0.00075,7e-05,0.00014,0.00022,4,31
12751,-1e-05,-1e-05,7e-05,-2e-05,0.00075,7e-05,0.00014,0.00022,4,31
12752,-1e-05,-1e-05,7e-05,-2e-05,0.00075,7e-05,0.00014,0.00022,4,31
12753,-1e-05,-1e-05,7e-05,-2e-05,0.00075,7e-05,0.00014,0.00022,4,31
12754,-1e-05,-1e-05,7e-05,-2e-05,0.00075,7e-05,0.00014,0.00022,4,31
12755,-1e-05,-1e-05,7e-05,-2e-05,0.00075,7e-05,0.00014,0.00022,4,31
12756,-1e-05,-1e-05,7e-05,-2e-05,0.00075,7e-05,0.00014,0.00022,4,31
12757,-1e-05,-1e-05,7e-05,-2e-05,0.00075,7e-05,0.00014,0.00022,4,31
12758,-1e-05,-1e-05,7e-05,-2e-05,0.00075,7e-05,0.00014,0.00022,4,31
12759,-1e-05,-1e-05,7e-05,-2e-05,0.00075,7e-05,0.00014,0.00022,4,31
12760,-1e-05,-1e-05,7e-05,-2e-05,0.00075,7e-05,0.00014,0.00022,4,31
12761,-1e-05,-1e-05,7e-05,-2e-05,0.00075,7e-05,0.00014,0.00022,4,31
12762,-7e-05,-0.00012,0.00019,0.00088,0.00108,0.00055,0.0001,-8e-05,4,31
12763,-7e-05,-0.00012,0.00019,0.00088,0.00108,0.00055,0.0001,-8e-05,4,31
12764,-7e-05,-0.00012,0.00019,0.00088,0.00108,0.00055,0.0001,-8e-05,4,31
12765,-7e-05,-0.00012,0.00019,0.00088,0.00108,0.00055,0.0001,-8e-05,4,31
12766,-7e-05,-0.00012,0.00019,0.00088,0.00108,0.00055,0.0001,-8e-05,4,31
12767,-7e-05,-0.00012,0.00019,0.00088,0.00108,0.00055,0.0001,-8e-05,4,31
12768,-7e-05,-0.00012,0.00019,0.00088,0.00108,0.00055,0.0001,-8e-05,4,31
12769,-5e-05,3e-05,-6e-05,0.00076,0.00031,-0.00053,-0.00029,-0.00023,4,31
12770,-5e-05,3e-05,-6e-05,0.00076,0.00031,-0.00053,-0.00029,-0.00023,4,31
12771,-5e-05,3e-05,-6e-05,0.00076,0.00031,-0.00053,-0.00029,-0.00023,4,31
12772,-5e-05,3e-05,-6e-05,0.00076,0.00031,-0.00053,-0.00029,-0.00023,4,31
12773,-5e-05,3e-05,-6e-05,0.00076,0.00031,-0.00053,-0.00029,-0.00023,4,31
12774,-5e-05,3e-05,-6e-05,0.00076,0.00031,-0.00053,-0.00029,-0.00023,4,31
12775,-5e-05,3e-05,-6e-05,0.00076,0.00031,-0.00053,-0.00029,-0.00023,4,31
12776,-5e-05,3e-05,-6e-05,0.00076,0.00031,-0.00053,-0.00029,-0.00023,4,31
12777,-5e-05,3e-05,-6e-05,0.00076,0.00031,-0.00053,-0.00029,-0.00023,4,31
12778,-5e-05,3e-05,-6e-05,0.00076,0.00031,-0.00053,-0.00029,-0.00023,4,31
12779,-5e-05,3e-05,-6e-05,0.00076,0.00031,-0.00053,-0.00029,-0.00023,4,31
12780,-5e-05,3e-05,-6e-05,0.00076,0.00031,-0.00053,-0.00029,-0.00023,4,31
12781,-5e-05,3e-05,-6e-05,0.00076,0.00031,-0.00053,-0.00029,-0.00023,4,31
12782,-5e-05,3e-05,-6e-05,0.00076,0.00031,-0.00053,-0.00029,-0.00023,4,31
12783,-5e-05,3e-05,-6e-05,0.00076,0.00031,-0.00053,-0.00029,-0.00023,4,31
12784,-5e-05,3e-05,-6e-05,0.00076,0.00031,-0.00053,-0.00029,-0.00023,4,31
12785,-4e-05,-0.00013,-0.0003,-4e-05,-0.00016,-5e-05,0.0001,3e-05,4,31
12786,-4e-05,-0.00013,-0.0003,-4e-05,-0.00016,-5e-05,0.0001,3e-05,4,31
12789,0.00011,0.00014,0.00011,-0.001,-0.00107,-0.00045,-2e-05,1e-05,4,31
12790,0.00011,0.00014,0.00011,-0.001,-0.00107,-0.00045,-2e-05,1e-05,4,31
12791,0.00011,0.00014,0.00011,-0.001,-0.00107,-0.00045,-2e-05,1e-05,4,31
12792,0.00011,0.00014,0.00011,-0.001,-0.00107,-0.00045,-2e-05,1e-05,4,31
12793,0.00011,0.00014,0.00011,-0.001,-0.00107,-0.00045,-2e-05,1e-05,4,31
12794,0.00011,0.00014,0.00011,-0.001,-0.00107,-0.00045,-2e-05,1e-05,4,31
12795,0.00011,0.00014,0.00011,-0.001,-0.00107,-0.00045,-2e-05,1e-05,4,31
12796,0.00011,0.00014,0.00011,-0.001,-0.00107,-0.00045,-2e-05,1e-05,4,31
12797,0.00011,0.00014,0.00011,-0.001,-0.00107,-0.00045,-2e-05,1e-05,4,31
12798,0.00011,0.00014,0.00011,-0.001,-0.00107,-0.00045,-2e-05,1e-05,4,31
12799,0.00011,0.00014,0.00011,-0.001,-0.00107,-0.00045,-2e-05,1e-05,4,31
12800,0.00011,0.00014,0.00011,-0.001,-0.00107,-0.00045,-2e-05,1e-05,4,31
12801,0.00011,0.00014,0.00011,-0.001,-0.00107,-0.00045,-2e-05,1e-05,4,31
12802,0.00011,0.00014,0.00011,-0.001,-0.00107,-0.00045,-2e-05,1e-05,4,31
12803,0.00011,0.00014,0.00011,-0.001,-0.00107,-0.00045,-2e-05,1e-05,4,31
12804,0.00011,0.00014,0.00011,-0.001,-0.00107,-0.00045,-2e-05,1e-05,4,31
12805,0.00011,0.00014,0.00011,-0.001,-0.00107,-0.00045,-2e-05,1e-05,4,31
12807,0.00011,0.00014,0.00011,-0.001,-0.00107,-0.00045,-2e-05,1e-05,4,31
12808,-2e-05,7e-05,0.00013,-0.00049,-0.00034,-0.00034,-0.00011,0.00015,4,31
12809,0,4e-05,3e-05,-0.00013,0.00044,-8e-05,-5e-05,-4e-05,4,31
12810,0,4e-05,3e-05,-0.00013,0.00044,-8e-05,-5e-05,-4e-05,4,31
12811,0,4e-05,3e-05,-0.00013,0.00044,-8e-05,-5e-05,-4e-05,4,31
12812,0,4e-05,3e-05,-0.00013,0.00044,-8e-05,-5e-05,-4e-05,4,31
12813,0,4e-05,3e-05,-0.00013,0.00044,-8e-05,-5e-05,-4e-05,4,31
12814,0,4e-05,3e-05,-0.00013,0.00044,-8e-05,-5e-05,-4e-05,4,31
12815,0,4e-05,3e-05,-0.00013,0.00044,-8e-05,-5e-05,-4e-05,4,31
12816,0,4e-05,3e-05,-0.00013,0.00044,-8e-05,-5e-05,-4e-05,4,31
12817,0,4e-05,3e-05,-0.00013,0.00044,-8e-05,-5e-05,-4e-05,4,31
12818,0,4e-05,3e-05,-0.00013,0.00044,-8e-05,-5e-05,-4e-05,4,31
12819,0,4e-05,3e-05,-0.00013,0.00044,-8e-05,-5e-05,-4e-05,4,31
12820,0,4e-05,3e-05,-0.00013,0.00044,-8e-05,-5e-05,-4e-05,4,31
12821,0,4e-05,3e-05,-0.00013,0.00044,-8e-05,-5e-05,-4e-05,4,31
12822,4e-05,6e-05,6e-05,-5e-05,-0.00087,9e-05,-0.00036,-0.00021,4,31
12823,4e-05,6e-05,6e-05,-5e-05,-0.00087,9e-05,-0.00036,-0.00021,4,31
12824,4e-05,6e-05,6e-05,-5e-05,-0.00087,9e-05,-0.00036,-0.00021,4,31
12825,4e-05,6e-05,6e-05,-5e-05,-0.00087,9e-05,-0.00036,-0.00021,4,31
12826,4e-05,6e-05,6e-05,-5e-05,-0.00087,9e-05,-0.00036,-0.00021,4,31
12827,4e-05,6e-05,6e-05,-5e-05,-0.00087,9e-05,-0.00036,-0.00021,4,31
12828,4e-05,6e-05,6e-05,-5e-05,-0.00087,9e-05,-0.00036,-0.00021,4,31
12829,4e-05,-3e-05,-8e-05,-0.00087,-0.00123,0.00075,0.0003,0.00016,4,31
12830,4e-05,-3e-05,-8e-05,-0.00087,-0.00123,0.00075,0.0003,0.00016,4,31
12831,4e-05,-3e-05,-8e-05,-0.00087,-0.00123,0.00075,0.0003,0.00016,4,31
12832,4e-05,-3e-05,-8e-05,-0.00087,-0.00123,0.00075,0.0003,0.00016,4,31
12833,4e-05,-3e-05,-8e-05,-0.00087,-0.00123,0.00075,0.0003,0.00016,4,31
12834,4e-05,-3e-05,-8e-05,-0.00087,-0.00123,0.00075,0.0003,0.00016,4,31
12835,4e-05,-3e-05,-8e-05,-0.00087,-0.00123,0.00075,0.0003,0.00016,4,31
12836,4e-05,-3e-05,-8e-05,-0.00087,-0.00123,0.00075,0.0003,0.00016,4,31
12839,4e-05,-3e-05,-8e-05,-0.00087,-0.00123,0.00075,0.0003,0.00016,4,31
12840,4e-05,-3e-05,-8e-05,-0.00087,-0.00123,0.00075,0.0003,0.00016,4,31
12841,4e-05,-3e-05,-8e-05,-0.00087,-0.00123,0.00075,0.0003,0.00016,4,31
12842,4e-05,-3e-05,-8e-05,-0.00087,-0.00123,0.00075,0.0003,0.00016,4,31
12843,4e-05,-3e-05,-8e-05,-0.00087,-0.00123,0.00075,0.0003,0.00016,4,31
12844,4e-05,-3e-05,-8e-05,-0.00087,-0.00123,0.00075,0.0003,0.00016,4,31
12845,0,-8e-05,-0.00014,-0.00016,-0.00026,0.00024,3e-05,-5e-05,4,31
12846,0,-8e-05,-0.00014,-0.00016,-0.00026,0.00024,3e-05,-5e-05,4,31
12847,8e-05,2e-05,0.00012,-0.00038,-0.00108,-2e-05,9e-05,0.00033,4,31
12848,8e-05,2e-05,0.00012,-0.00038,-0.00108,-2e-05,9e-05,0.00033,4,31
12849,8e-05,2e-05,0.00012,-0.00038,-0.00108,-2e-05,9e-05,0.00033,4,31
12850,8e-05,2e-05,0.00012,-0.00038,-0.00108,-2e-05,9e-05,0.00033,4,31
12851,8e-05,2e-05,0.00012,-0.00038,-0.00108,-2e-05,9e-05,0.00033,4,31
12852,8e-05,2e-05,0.00012,-0.00038,-0.00108,-2e-05,9e-05,0.00033,4,31
12853,8e-05,2e-05,0.00012,-0.00038,-0.00108,-2e-05,9e-05,0.00033,4,31
12854,8e-05,2e-05,0.00012,-0.00038,-0.00108,-2e-05,9e-05,0.00033,4,31
12855,8e-05,2e-05,0.00012,-0.00038,-0.00108,-2e-05,9e-05,0.00033,4,31
12856,8e-05,2e-05,0.00012,-0.00038,-0.00108,-2e-05,9e-05,0.00033,4,31
12857,8e-05,2e-05,0.00012,-0.00038,-0.00108,-2e-05,9e-05,0.00033,4,31
12858,8e-05,2e-05,0.00012,-0.00038,-0.00108,-2e-05,9e-05,0.00033,4,31
12859,8e-05,2e-05,0.00012,-0.00038,-0.00108,-2e-05,9e-05,0.00033,4,31
12860,8e-05,2e-05,0.00012,-0.00038,-0.00108,-2e-05,9e-05,0.00033,4,31
12861,8e-05,2e-05,0.00012,-0.00038,-0.00108,-2e-05,9e-05,0.00033,4,31
12862,8e-05,2e-05,0.00012,-0.00038,-0.00108,-2e-05,9e-05,0.00033,4,31
12863,8e-05,2e-05,0.00012,-0.00038,-0.00108,-2e-05,9e-05,0.00033,4,31
12864,8e-05,2e-05,0.00012,-0.00038,-0.00108,-2e-05,9e-05,0.00033,4,31
12865,8e-05,2e-05,0.00012,-0.00038,-0.00108,-2e-05,9e-05,0.00033,4,31
12866,8e-05,2e-05,0.00012,-0.00038,-0.00108,-2e-05,9e-05,0.00033,4,31
12867,8e-05,2e-05,0.00012,-0.00038,-0.00108,-2e-05,9e-05,0.00033,4,31
12868,-4e-05,-0.00012,-0.0002,0.00023,-3e-05,-5e-05,-1e-05,-1e-05,4,31
12869,6e-05,0.00018,0.00028,0.00066,-0.0001,-8e-05,-0.0002,-0.00027,4,31
12870,6e-05,0.00018,0.00028,0.00066,-0.0001,-8e-05,-0.0002,-0.00027,4,31
12871,6e-05,0.00018,0.00028,0.00066,-0.0001,-8e-05,-0.0002,-0.00027,4,31
12872,6e-05,0.00018,0.00028,0.00066,-0.0001,-8e-05,-0.0002,-0.00027,4,31
12873,6e-05,0.00018,0.00028,0.00066,-0.0001,-8e-05,-0.0002,-0.00027,4,31
12874,6e-05,0.00018,0.00028,0.00066,-0.0001,-8e-05,-0.0002,-0.00027,4,31
12875,6e-05,0.00018,0.00028,0.00066,-0.0001,-8e-05,-0.0002,-0.00027,4,31
12876,6e-05,0.00018,0.00028,0.00066,-0.0001,-8e-05,-0.0002,-0.00027,4,31
12877,6e-05,0.00018,0.00028,0.00066,-0.0001,-8e-05,-0.0002,-0.00027,4,31
12878,6e-05,0.00018,0.00028,0.00066,-0.0001,-8e-05,-0.0002,-0.00027,4,31
12879,6e-05,0.00018,0.00028,0.00066,-0.0001,-8e-05,-0.0002,-0.00027,4,31
12880,6e-05,0.00018,0.00028,0.00066,-0.0001,-8e-05,-0.0002,-0.00027,4,31
12881,6e-05,0.00018,0.00028,0.00066,-0.0001,-8e-05,-0.0002,-0.00027,4,31
12882,3e-05,-2e-05,-6e-05,-0.00105,-0.00081,-0.00037,-2e-05,0.00015,4,31
12883,-4e-05,4e-05,9e-05,0.00048,0.00026,-5e-05,0.00012,5e-05,4,31
12884,-4e-05,4e-05,9e-05,0.00048,0.00026,-5e-05,0.00012,5e-05,4,31
12885,-4e-05,4e-05,9e-05,0.00048,0.00026,-5e-05,0.00012,5e-05,4,31
12886,-4e-05,4e-05,9e-05,0.00048,0.00026,-5e-05,0.00012,5e-05,4,31
12889,-4e-05,4e-05,9e-05,0.00048,0.00026,-5e-05,0.00012,5e-05,4,31
12890,0,0,2e-05,0.00034,3e-05,8e-05,0.00039,9e-05,4,31
12891,0,0,2e-05,0.00034,3e-05,8e-05,0.00039,9e-05,4,31
12892,0,0,2e-05,0.00034,3e-05,8e-05,0.00039,9e-05,4,31
12893,0,0,2e-05,0.00034,3e-05,8e-05,0.00039,9e-05,4,31
12894,0,0,2e-05,0.00034,3e-05,8e-05,0.00039,9e-05,4,31
12895,0,0,2e-05,0.00034,3e-05,8e-05,0.00039,9e-05,4,31
12896,0,0,2e-05,0.00034,3e-05,8e-05,0.00039,9e-05,4,31
12897,0,0,2e-05,0.00034,3e-05,8e-05,0.00039,9e-05,4,31
12898,0,0,2e-05,0.00034,3e-05,8e-05,0.00039,9e-05,4,31
12899,0,0,2e-05,0.00034,3e-05,8e-05,0.00039,9e-05,4,31
12900,0,0,2e-05,0.00034,3e-05,8e-05,0.00039,9e-05,4,31
12901,0,0,2e-05,0.00034,3e-05,8e-05,0.00039,9e-05,4,31
12902,0,0,2e-05,0.00034,3e-05,8e-05,0.00039,9e-05,4,31
12903,0,0,2e-05,0.00034,3e-05,8e-05,0.00039,9e-05,4,31
12904,0,0,2e-05,0.00034,3e-05,8e-05,0.00039,9e-05,4,31
12905,-8e-05,-5e-05,4e-05,-0.0003,0.00042,0.00013,0.00012,-5e-05,4,31
12906,-8e-05,-5e-05,4e-05,-0.0003,0.00042,0.00013,0.00012,-5e-05,4,31
12907,-8e-05,-8e-05,-0.00025,-0.00091,-0.00065,-0.00014,-0.00049,-0.00063,4,31
12908,-8e-05,-8e-05,-0.00025,-0.00091,-0.00065,-0.00014,-0.00049,-0.00063,4,31
12909,-8e-05,-8e-05,-0.00025,-0.00091,-0.00065,-0.00014,-0.00049,-0.00063,4,31
12910,-8e-05,-8e-05,-0.00025,-0.00091,-0.00065,-0.00014,-0.00049,-0.00063,4,31
12911,-8e-05,-8e-05,-0.00025,-0.00091,-0.00065,-0.00014,-0.00049,-0.00063,4,31
12912,-8e-05,-8e-05,-0.00025,-0.00091,-0.00065,-0.00014,-0.00049,-0.00063,4,31
12913,-8e-05,-8e-05,-0.00025,-0.00091,-0.00065,-0.00014,-0.00049,-0.00063,4,31
12914,-8e-05,-8e-05,-0.00025,-0.00091,-0.00065,-0.00014,-0.00049,-0.00063,4,31
12915,-8e-05,-8e-05,-0.00025,-0.00091,-0.00065,-0.00014,-0.00049,-0.00063,4,31
12916,-8e-05,-8e-05,-0.00025,-0.00091,-0.00065,-0.00014,-0.00049,-0.00063,4,31
12917,-8e-05,-8e-05,-0.00025,-0.00091,-0.00065,-0.00014,-0.00049,-0.00063,4,31
12918,-8e-05,-8e-05,-0.00025,-0.00091,-0.00065,-0.00014,-0.00049,-0.00063,4,31
12919,-8e-05,-8e-05,-0.00025,-0.00091,-0.00065,-0.00014,-0.00049,-0.00063,4,31
12920,-8e-05,-8e-05,-0.00025,-0.00091,-0.00065,-0.00014,-0.00049,-0.00063,4,31
12921,-8e-05,-8e-05,-0.00025,-0.00091,-0.00065,-0.00014,-0.00049,-0.00063,4,31
12922,-8e-05,-8e-05,-0.00025,-0.00091,-0.00065,-0.00014,-0.00049,-0.00063,4,31
12923,-8e-05,-8e-05,-0.00025,-0.00091,-0.00065,-0.00014,-0.00049,-0.00063,4,31
12924,-8e-05,-8e-05,-0.00025,-0.00091,-0.00065,-0.00014,-0.00049,-0.00063,4,31
12925,-8e-05,-8e-05,-0.00025,-0.00091,-0.00065,-0.00014,-0.00049,-0.00063,4,31
12926,-8e-05,-8e-05,-0.00025,-0.00091,-0.00065,-0.00014,-0.00049,-0.00063,4,31
12927,-8e-05,-8e-05,-0.00025,-0.00091,-0.00065,-0.00014,-0.00049,-0.00063,4,31
12928,-0.00013,-0.00014,-0.00019,-0.00094,-0.00038,-0.00039,-0.00013,-0.00017,4,31
12929,-4e-05,-6e-05,-0.00012,0.00017,-0.00028,-0.00041,0,0.0002,4,31
12930,-4e-05,-6e-05,-0.00012,0.00017,-0.00028,-0.00041,0,0.0002,4,31
12931,-4e-05,-6e-05,-0.00012,0.00017,-0.00028,-0.00041,0,0.0002,4,31
12932,-4e-05,-6e-05,-0.00012,0.00017,-0.00028,-0.00041,0,0.0002,4,31
12933,-4e-05,-6e-05,-0.00012,0.00017,-0.00028,-0.00041,0,0.0002,4,31
12934,-4e-05,-6e-05,-0.00012,0.00017,-0.00028,-0.00041,0,0.0002,4,31
12935,-4e-05,-6e-05,-0.00012,0.00017,-0.00028,-0.00041,0,0.0002,4,31
12936,-4e-05,-6e-05,-0.00012,0.00017,-0.00028,-0.00041,0,0.0002,4,31
12938,-4e-05,-6e-05,-0.00012,0.00017,-0.00028,-0.00041,0,0.0002,4,31
12940,-4e-05,-6e-05,-0.00012,0.00017,-0.00028,-0.00041,0,0.0002,4,31
12941,0.0001,6e-05,0.00013,-9e-05,-0.00016,0.0001,4e-05,4e-05,4,31
12942,0.0001,6e-05,0.00013,-9e-05,-0.00016,0.0001,4e-05,4e-05,4,31
12943,0.0001,6e-05,0.00013,-9e-05,-0.00016,0.0001,4e-05,4e-05,4,31
12944,0.0001,6e-05,0.00013,-9e-05,-0.00016,0.0001,4e-05,4e-05,4,31
12945,0.0001,6e-05,0.00013,-9e-05,-0.00016,0.0001,4e-05,4e-05,4,31
12946,0.0001,6e-05,0.00013,-9e-05,-0.00016,0.0001,4e-05,4e-05,4,31
12947,0.0001,6e-05,0.00013,-9e-05,-0.00016,0.0001,4e-05,4e-05,4,31
12948,0.0001,6e-05,0.00013,-9e-05,-0.00016,0.0001,4e-05,4e-05,4,31
12949,0.0001,6e-05,0.00013,-9e-05,-0.00016,0.0001,4e-05,4e-05,4,31
12950,-5e-05,-8e-05,-6e-05,-0.00067,-0.0004,0.00013,-0.00024,-0.00018,4,31
12952,-5e-05,-8e-05,-6e-05,-0.00067,-0.0004,0.00013,-0.00024,-0.00018,4,31
12953,-5e-05,-8e-05,-6e-05,-0.00067,-0.0004,0.00013,-0.00024,-0.00018,4,31
12954,-5e-05,-8e-05,-6e-05,-0.00067,-0.0004,0.00013,-0.00024,-0.00018,4,31
12955,-5e-05,-8e-05,-6e-05,-0.00067,-0.0004,0.00013,-0.00024,-0.00018,4,31
12956,-5e-05,-8e-05,-6e-05,-0.00067,-0.0004,0.00013,-0.00024,-0.00018,4,31
12957,-5e-05,-8e-05,-6e-05,-0.00067,-0.0004,0.00013,-0.00024,-0.00018,4,31
12958,-5e-05,-8e-05,-6e-05,-0.00067,-0.0004,0.00013,-0.00024,-0.00018,4,31
12960,-5e-05,-8e-05,-6e-05,-0.00067,-0.0004,0.00013,-0.00024,-0.00018,4,31
12961,-5e-05,-8e-05,-6e-05,-0.00067,-0.0004,0.00013,-0.00024,-0.00018,4,31
12962,-5e-05,-8e-05,-6e-05,-0.00067,-0.0004,0.00013,-0.00024,-0.00018,4,31
12963,-5e-05,-8e-05,-6e-05,-0.00067,-0.0004,0.00013,-0.00024,-0.00018,4,31
12964,0.00013,0.0001,5e-05,0.00015,-0.00042,0.00016,0.00019,0.00024,4,31
12965,-0.00019,-0.00025,-0.00012,0.00047,0.00116,0.00027,0.00012,3e-05,4,31
12966,-0.00019,-0.00025,-0.00012,0.00047,0.00116,0.00027,0.00012,3e-05,4,31
12967,-0.00019,-0.00025,-0.00012,0.00047,0.00116,0.00027,0.00012,3e-05,4,31
12968,-0.00019,-0.00025,-0.00012,0.00047,0.00116,0.00027,0.00012,3e-05,4,31
12969,-0.00019,-0.00025,-0.00012,0.00047,0.00116,0.00027,0.00012,3e-05,4,31
12970,-0.00019,-0.00025,-0.00012,0.00047,0.00116,0.00027,0.00012,3e-05,4,31
12971,-0.00019,-0.00025,-0.00012,0.00047,0.00116,0.00027,0.00012,3e-05,4,31
12972,-0.00019,-0.00025,-0.00012,0.00047,0.00116,0.00027,0.00012,3e-05,4,31
12973,-0.00019,-0.00025,-0.00012,0.00047,0.00116,0.00027,0.00012,3e-05,4,31
12974,-0.00019,-0.00025,-0.00012,0.00047,0.00116,0.00027,0.00012,3e-05,4,31
12975,-0.00019,-0.00025,-0.00012,0.00047,0.00116,0.00027,0.00012,3e-05,4,31
12976,-0.00019,-0.00025,-0.00012,0.00047,0.00116,0.00027,0.00012,3e-05,4,31
12977,-0.00019,-0.00025,-0.00012,0.00047,0.00116,0.00027,0.00012,3e-05,4,31
12978,-0.00019,-0.00025,-0.00012,0.00047,0.00116,0.00027,0.00012,3e-05,4,31
12979,-0.00019,-0.00025,-0.00012,0.00047,0.00116,0.00027,0.00012,3e-05,4,31
12980,-0.00019,-0.00025,-0.00012,0.00047,0.00116,0.00027,0.00012,3e-05,4,31
12981,-0.00019,-0.00025,-0.00012,0.00047,0.00116,0.00027,0.00012,3e-05,4,31
12982,-0.00019,-0.00025,-0.00012,0.00047,0.00116,0.00027,0.00012,3e-05,4,31
12983,-0.00019,-0.00025,-0.00012,0.00047,0.00116,0.00027,0.00012,3e-05,4,31
12984,-0.00019,-0.00025,-0.00012,0.00047,0.00116,0.00027,0.00012,3e-05,4,31
12985,-0.00019,-0.00025,-0.00012,0.00047,0.00116,0.00027,0.00012,3e-05,4,31
12986,-0.00019,-0.00025,-0.00012,0.00047,0.00116,0.00027,0.00012,3e-05,4,31
12989,-0.00011,-0.00011,-0.00011,-0.0002,-0.00031,-0.00048,-0.00025,-9e-05,4,31
12990,-0.00011,-0.00011,-0.00011,-0.0002,-0.00031,-0.00048,-0.00025,-9e-05,4,31
12991,-0.00011,-0.00011,-0.00011,-0.0002,-0.00031,-0.00048,-0.00025,-9e-05,4,31
12992,-0.00011,-0.00011,-0.00011,-0.0002,-0.00031,-0.00048,-0.00025,-9e-05,4,31
12993,-0.00011,-0.00011,-0.00011,-0.0002,-0.00031,-0.00048,-0.00025,-9e-05,4,31
12994,-0.00011,-0.00011,-0.00011,-0.0002,-0.00031,-0.00048,-0.00025,-9e-05,4,31
12995,-0.00011,-0.00011,-0.00011,-0.0002,-0.00031,-0.00048,-0.00025,-9e-05,4,31
12996,-0.00011,-0.00011,-0.00011,-0.0002,-0.00031,-0.00048,-0.00025,-9e-05,4,31
12997,-0.00011,-0.00011,-0.00011,-0.0002,-0.00031,-0.00048,-0.00025,-9e-05,4,31
12998,-0.00011,-0.00011,-0.00011,-0.0002,-0.00031,-0.00048,-0.00025,-9e-05,4,31
12999,-0.00011,-0.00011,-0.00011,-0.0002,-0.00031,-0.00048,-0.00025,-9e-05,4,31
13000,-0.00011,-0.00011,-0.00011,-0.0002,-0.00031,-0.00048,-0.00025,-9e-05,4,31
13001,-7e-05,-1e-05,-2e-05,-0.00011,-4e-05,-0.00012,4e-05,0.00013,4,31
13002,-7e-05,-1e-05,-2e-05,-0.00011,-4e-05,-0.00012,4e-05,0.00013,4,31
13003,-7e-05,-1e-05,-2e-05,-0.00011,-4e-05,-0.00012,4e-05,0.00013,4,31
13004,-7e-05,-1e-05,-2e-05,-0.00011,-4e-05,-0.00012,4e-05,0.00013,4,31
13005,-7e-05,-1e-05,-2e-05,-0.00011,-4e-05,-0.00012,4e-05,0.00013,4,31
13006,-7e-05,-1e-05,-2e-05,-0.00011,-4e-05,-0.00012,4e-05,0.00013,4,31
13007,-7e-05,-1e-05,-2e-05,-0.00011,-4e-05,-0.00012,4e-05,0.00013,4,31
13008,-7e-05,-1e-05,-2e-05,-0.00011,-4e-05,-0.00012,4e-05,0.00013,4,31
13009,-7e-05,-1e-05,-2e-05,-0.00011,-4e-05,-0.00012,4e-05,0.00013,4,31
13010,0.00013,0.00021,-6e-05,0.0001,0,0.00021,7e-05,5e-05,4,31
13011,0.00013,0.00021,-6e-05,0.0001,0,0.00021,7e-05,5e-05,4,31
13012,0.00013,0.00021,-6e-05,0.0001,0,0.00021,7e-05,5e-05,4,31
13013,0.00013,0.00021,-6e-05,0.0001,0,0.00021,7e-05,5e-05,4,31
13014,0.00013,0.00021,-6e-05,0.0001,0,0.00021,7e-05,5e-05,4,31
13015,0.00013,0.00021,-6e-05,0.0001,0,0.00021,7e-05,5e-05,4,31
13016,0.00013,0.00021,-6e-05,0.0001,0,0.00021,7e-05,5e-05,4,31
13017,0.00013,0.00021,-6e-05,0.0001,0,0.00021,7e-05,5e-05,4,31
13018,0.00013,0.00021,-6e-05,0.0001,0,0.00021,7e-05,5e-05,4,31
13019,0.00013,0.00021,-6e-05,0.0001,0,0.00021,7e-05,5e-05,4,31
13020,0.00013,0.00021,-6e-05,0.0001,0,0.00021,7e-05,5e-05,4,31
13021,0.00013,0.00021,-6e-05,0.0001,0,0.00021,7e-05,5e-05,4,31
13022,0.00013,0.00021,-6e-05,0.0001,0,0.00021,7e-05,5e-05,4,31
13023,0.00013,0.00021,-6e-05,0.0001,0,0.00021,7e-05,5e-05,4,31
13024,0.00013,0.00021,-6e-05,0.0001,0,0.00021,7e-05,5e-05,4,31
13025,5e-05,9e-05,0.00013,-0.00021,-0.00038,5e-05,9e-05,0.00024,4,31
13026,5e-05,9e-05,0.00013,-0.00021,-0.00038,5e-05,9e-05,0.00024,4,31
13027,5e-05,9e-05,0.00013,-0.00021,-0.00038,5e-05,9e-05,0.00024,4,31
13028,5e-05,9e-05,0.00013,-0.00021,-0.00038,5e-05,9e-05,0.00024,4,31
13029,5e-05,9e-05,0.00013,-0.00021,-0.00038,5e-05,9e-05,0.00024,4,31
13030,5e-05,9e-05,0.00013,-0.00021,-0.00038,5e-05,9e-05,0.00024,4,31
13031,5e-05,9e-05,0.00013,-0.00021,-0.00038,5e-05,9e-05,0.00024,4,31
13032,5e-05,9e-05,0.00013,-0.00021,-0.00038,5e-05,9e-05,0.00024,4,31
13033,5e-05,9e-05,0.00013,-0.00021,-0.00038,5e-05,9e-05,0.00024,4,31
13034,5e-05,9e-05,0.00013,-0.00021,-0.00038,5e-05,9e-05,0.00024,4,31
13035,5e-05,9e-05,0.00013,-0.00021,-0.00038,5e-05,9e-05,0.00024,4,31
13036,5e-05,9e-05,0.00013,-0.00021,-0.00038,5e-05,9e-05,0.00024,4,31
13038,5e-05,9e-05,0.00013,-0.00021,-0.00038,5e-05,9e-05,0.00024,4,31
13039,5e-05,9e-05,0.00013,-0.00021,-0.00038,5e-05,9e-05,0.00024,4,31
13040,5e-05,9e-05,0.00013,-0.00021,-0.00038,5e-05,9e-05,0.00024,4,31
13041,5e-05,9e-05,0.00013,-0.00021,-0.00038,5e-05,9e-05,0.00024,4,31
13042,5e-05,9e-05,0.00013,-0.00021,-0.00038,5e-05,9e-05,0.00024,4,31
13043,5e-05,9e-05,0.00013,-0.00021,-0.00038,5e-05,9e-05,0.00024,4,31
13044,5e-05,9e-05,0.00013,-0.00021,-0.00038,5e-05,9e-05,0.00024,4,31
13045,5e-05,9e-05,0.00013,-0.00021,-0.00038,5e-05,9e-05,0.00024,4,31
13046,5e-05,9e-05,0.00013,-0.00021,-0.00038,5e-05,9e-05,0.00024,4,31
13047,0,1e-05,-4e-05,3e-05,0.00073,6e-05,-0.00015,8e-05,4,31
13048,4e-05,4e-05,-2e-05,-0.0002,0.00064,0.00084,7e-05,-0.00016,4,31
13049,4e-05,4e-05,-2e-05,-0.0002,0.00064,0.00084,7e-05,-0.00016,4,31
13050,4e-05,4e-05,-2e-05,-0.0002,0.00064,0.00084,7e-05,-0.00016,4,31
13051,4e-05,4e-05,-2e-05,-0.0002,0.00064,0.00084,7e-05,-0.00016,4,31
13052,4e-05,4e-05,-2e-05,-0.0002,0.00064,0.00084,7e-05,-0.00016,4,31
13053,4e-05,4e-05,-2e-05,-0.0002,0.00064,0.00084,7e-05,-0.00016,4,31
13054,4e-05,4e-05,-2e-05,-0.0002,0.00064,0.00084,7e-05,-0.00016,4,31
13055,4e-05,4e-05,-2e-05,-0.0002,0.00064,0.00084,7e-05,-0.00016,4,31
13056,4e-05,4e-05,-2e-05,-0.0002,0.00064,0.00084,7e-05,-0.00016,4,31
13057,4e-05,4e-05,-2e-05,-0.0002,0.00064,0.00084,7e-05,-0.00016,4,31
13058,4e-05,4e-05,-2e-05,-0.0002,0.00064,0.00084,7e-05,-0.00016,4,31
13059,4e-05,4e-05,-2e-05,-0.0002,0.00064,0.00084,7e-05,-0.00016,4,31
13060,4e-05,4e-05,-2e-05,-0.0002,0.00064,0.00084,7e-05,-0.00016,4,31
13061,4e-05,-6e-05,-8e-05,0.00011,0.00043,-4e-05,-3e-05,0.00019,4,31
13062,4e-05,-6e-05,-8e-05,0.00011,0.00043,-4e-05,-3e-05,0.00019,4,31
13063,4e-05,-6e-05,-8e-05,0.00011,0.00043,-4e-05,-3e-05,0.00019,4,31
13064,4e-05,-6e-05,-8e-05,0.00011,0.00043,-4e-05,-3e-05,0.00019,4,31
13065,4e-05,-6e-05,-8e-05,0.00011,0.00043,-4e-05,-3e-05,0.00019,4,31
13066,4e-05,-6e-05,-8e-05,0.00011,0.00043,-4e-05,-3e-05,0.00019,4,31
13067,4e-05,-6e-05,-8e-05,0.00011,0.00043,-4e-05,-3e-05,0.00019,4,31
13068,4e-05,-6e-05,-8e-05,0.00011,0.00043,-4e-05,-3e-05,0.00019,4,31
13069,4e-05,-6e-05,-8e-05,0.00011,0.00043,-4e-05,-3e-05,0.00019,4,31
13070,-4e-05,-0.00013,3e-05,6e-05,0.00061,0.00015,0.00033,9e-05,4,31
13071,-4e-05,-0.00013,3e-05,6e-05,0.00061,0.00015,0.00033,9e-05,4,31
13072,-4e-05,-0.00013,3e-05,6e-05,0.00061,0.00015,0.00033,9e-05,4,31
13073,-4e-05,-0.00013,3e-05,6e-05,0.00061,0.00015,0.00033,9e-05,4,31
13074,-4e-05,-0.00013,3e-05,6e-05,0.00061,0.00015,0.00033,9e-05,4,31
13075,-4e-05,-0.00013,3e-05,6e-05,0.00061,0.00015,0.00033,9e-05,4,31
13076,-4e-05,-0.00013,3e-05,6e-05,0.00061,0.00015,0.00033,9e-05,4,31
13077,-4e-05,-0.00013,3e-05,6e-05,0.00061,0.00015,0.00033,9e-05,4,31
13078,-4e-05,-0.00013,3e-05,6e-05,0.00061,0.00015,0.00033,9e-05,4,31
13079,-4e-05,-0.00013,3e-05,6e-05,0.00061,0.00015,0.00033,9e-05,4,31
13080,-4e-05,-0.00013,3e-05,6e-05,0.00061,0.00015,0.00033,9e-05,4,31
13081,-4e-05,-0.00013,3e-05,6e-05,0.00061,0.00015,0.00033,9e-05,4,31
13082,-4e-05,-0.00013,3e-05,6e-05,0.00061,0.00015,0.00033,9e-05,4,31
13083,-4e-05,-0.00013,3e-05,6e-05,0.00061,0.00015,0.00033,9e-05,4,31
13084,-4e-05,-0.00013,3e-05,6e-05,0.00061,0.00015,0.00033,9e-05,4,31
13085,-9e-05,-7e-05,1e-05,0.00051,0.00047,0.00031,6e-05,5e-05,4,31
13086,-9e-05,-7e-05,1e-05,0.00051,0.00047,0.00031,6e-05,5e-05,4,31
13088,-9e-05,-7e-05,1e-05,0.00051,0.00047,0.00031,6e-05,5e-05,4,31
13089,-9e-05,-7e-05,1e-05,0.00051,0.00047,0.00031,6e-05,5e-05,4,31
13090,-9e-05,-7e-05,1e-05,0.00051,0.00047,0.00031,6e-05,5e-05,4,31
13091,-9e-05,-7e-05,1e-05,0.00051,0.00047,0.00031,6e-05,5e-05,4,31
13092,-9e-05,-7e-05,1e-05,0.00051,0.00047,0.00031,6e-05,5e-05,4,31
13093,-9e-05,-7e-05,1e-05,0.00051,0.00047,0.00031,6e-05,5e-05,4,31
13094,-9e-05,-7e-05,1e-05,0.00051,0.00047,0.00031,6e-05,5e-05,4,31
13095,-9e-05,-7e-05,1e-05,0.00051,0.00047,0.00031,6e-05,5e-05,4,31
13096,-9e-05,-7e-05,1e-05,0.00051,0.00047,0.00031,6e-05,5e-05,4,31
13097,-9e-05,-7e-05,1e-05,0.00051,0.00047,0.00031,6e-05,5e-05,4,31
13098,-9e-05,-7e-05,1e-05,0.00051,0.00047,0.00031,6e-05,5e-05,4,31
13099,-9e-05,-7e-05,1e-05,0.00051,0.00047,0.00031,6e-05,5e-05,4,31
13100,-9e-05,-7e-05,1e-05,0.00051,0.00047,0.00031,6e-05,5e-05,4,31
13101,-9e-05,-7e-05,1e-05,0.00051,0.00047,0.00031,6e-05,5e-05,4,31
13102,-9e-05,-7e-05,1e-05,0.00051,0.00047,0.00031,6e-05,5e-05,4,31
13103,-9e-05,-7e-05,1e-05,0.00051,0.00047,0.00031,6e-05,5e-05,4,31
13104,-9e-05,-7e-05,1e-05,0.00051,0.00047,0.00031,6e-05,5e-05,4,31
13105,-9e-05,-7e-05,1e-05,0.00051,0.00047,0.00031,6e-05,5e-05,4,31
13106,-9e-05,-7e-05,1e-05,0.00051,0.00047,0.00031,6e-05,5e-05,4,31
13107,-9e-05,-7e-05,1e-05,0.00051,0.00047,0.00031,6e-05,5e-05,4,31
13108,4e-05,6e-05,5e-05,-0.00056,-0.00014,5e-05,0.00028,0,4,31
13109,4e-05,6e-05,5e-05,-0.00056,-0.00014,5e-05,0.00028,0,4,31
13110,4e-05,6e-05,5e-05,-0.00056,-0.00014,5e-05,0.00028,0,4,31
13111,4e-05,6e-05,5e-05,-0.00056,-0.00014,5e-05,0.00028,0,4,31
13112,4e-05,6e-05,5e-05,-0.00056,-0.00014,5e-05,0.00028,0,4,31
13113,4e-05,6e-05,5e-05,-0.00056,-0.00014,5e-05,0.00028,0,4,31
13114,4e-05,6e-05,5e-05,-0.00056,-0.00014,5e-05,0.00028,0,4,31
13115,4e-05,6e-05,5e-05,-0.00056,-0.00014,5e-05,0.00028,0,4,31
13116,4e-05,6e-05,5e-05,-0.00056,-0.00014,5e-05,0.00028,0,4,31
13117,4e-05,6e-05,5e-05,-0.00056,-0.00014,5e-05,0.00028,0,4,31
13118,4e-05,6e-05,5e-05,-0.00056,-0.00014,5e-05,0.00028,0,4,31
13119,4e-05,6e-05,5e-05,-0.00056,-0.00014,5e-05,0.00028,0,4,31
13120,4e-05,6e-05,5e-05,-0.00056,-0.00014,5e-05,0.00028,0,4,31
13121,-0.00012,-0.00015,-0.00027,-0.00086,-0.00068,-0.00028,-0.00013,-0.00026,4,31
13122,-0.00012,-0.00015,-0.00027,-0.00086,-0.00068,-0.00028,-0.00013,-0.00026,4,31
13123,-0.00012,-0.00015,-0.00027,-0.00086,-0.00068,-0.00028,-0.00013,-0.00026,4,31
13124,-0.00012,-0.00015,-0.00027,-0.00086,-0.00068,-0.00028,-0.00013,-0.00026,4,31
13125,-0.00012,-0.00015,-0.00027,-0.00086,-0.00068,-0.00028,-0.00013,-0.00026,4,31
13126,-0.00012,-0.00015,-0.00027,-0.00086,-0.00068,-0.00028,-0.00013,-0.00026,4,31
13127,-0.00012,-0.00015,-0.00027,-0.00086,-0.00068,-0.00028,-0.00013,-0.00026,4,31
13128,-0.00012,-0.00015,-0.00027,-0.00086,-0.00068,-0.00028,-0.00013,-0.00026,4,31
13129,-0.00012,-0.00015,-0.00027,-0.00086,-0.00068,-0.00028,-0.00013,-0.00026,4,31
13130,-2e-05,1e-05,-7e-05,-2e-05,-0.00052,-0.0001,-6e-05,-4e-05,4,31
13131,-2e-05,1e-05,-7e-05,-2e-05,-0.00052,-0.0001,-6e-05,-4e-05,4,31
13132,-2e-05,1e-05,-7e-05,-2e-05,-0.00052,-0.0001,-6e-05,-4e-05,4,31
13133,-2e-05,1e-05,-7e-05,-2e-05,-0.00052,-0.0001,-6e-05,-4e-05,4,31
13134,-2e-05,1e-05,-7e-05,-2e-05,-0.00052,-0.0001,-6e-05,-4e-05,4,31
13135,-2e-05,1e-05,-7e-05,-2e-05,-0.00052,-0.0001,-6e-05,-4e-05,4,31
13136,-2e-05,1e-05,-7e-05,-2e-05,-0.00052,-0.0001,-6e-05,-4e-05,4,31
13138,-2e-05,1e-05,-7e-05,-2e-05,-0.00052,-0.0001,-6e-05,-4e-05,4,31
13139,-2e-05,1e-05,-7e-05,-2e-05,-0.00052,-0.0001,-6e-05,-4e-05,4,31
13140,-2e-05,1e-05,-7e-05,-2e-05,-0.00052,-0.0001,-6e-05,-4e-05,4,31
13141,-2e-05,1e-05,-7e-05,-2e-05,-0.00052,-0.0001,-6e-05,-4e-05,4,31
13142,-2e-05,1e-05,-7e-05,-2e-05,-0.00052,-0.0001,-6e-05,-4e-05,4,31
13143,-2e-05,1e-05,-7e-05,-2e-05,-0.00052,-0.0001,-6e-05,-4e-05,4,31
13144,-0.00014,-0.00013,-0.00014,-0.00023,0,0.00018,-0.00018,-0.00021,4,31
13145,-7e-05,-0.00016,0,0.00065,0.00063,-0.00062,-8e-05,-7e-05,4,31
13146,-7e-05,-0.00016,0,0.00065,0.00063,-0.00062,-8e-05,-7e-05,4,31
13147,-7e-05,-0.00016,0,0.00065,0.00063,-0.00062,-8e-05,-7e-05,4,31
13148,-7e-05,-0.00016,0,0.00065,0.00063,-0.00062,-8e-05,-7e-05,4,31
13149,-7e-05,-0.00016,0,0.00065,0.00063,-0.00062,-8e-05,-7e-05,4,31
13150,-7e-05,-0.00016,0,0.00065,0.00063,-0.00062,-8e-05,-7e-05,4,31
13151,-7e-05,-0.00016,0,0.00065,0.00063,-0.00062,-8e-05,-7e-05,4,31
13152,-7e-05,-0.00016,0,0.00065,0.00063,-0.00062,-8e-05,-7e-05,4,31
13153,-7e-05,-0.00016,0,0.00065,0.00063,-0.00062,-8e-05,-7e-05,4,31
13154,-7e-05,-0.00016,0,0.00065,0.00063,-0.00062,-8e-05,-7e-05,4,31
13155,-7e-05,-0.00016,0,0.00065,0.00063,-0.00062,-8e-05,-7e-05,4,31
13156,-7e-05,-0.00016,0,0.00065,0.00063,-0.00062,-8e-05,-7e-05,4,31
13157,-7e-05,-0.00016,0,0.00065,0.00063,-0.00062,-8e-05,-7e-05,4,31
13159,-7e-05,-0.00016,0,0.00065,0.00063,-0.00062,-8e-05,-7e-05,4,31
13160,-7e-05,-0.00016,0,0.00065,0.00063,-0.00062,-8e-05,-7e-05,4,31
13161,-7e-05,-0.00016,0,0.00065,0.00063,-0.00062,-8e-05,-7e-05,4,31
13162,-7e-05,-0.00016,0,0.00065,0.00063,-0.00062,-8e-05,-7e-05,4,31
13163,-7e-05,-0.00016,0,0.00065,0.00063,-0.00062,-8e-05,-7e-05,4,31
13164,-7e-05,-0.00016,0,0.00065,0.00063,-0.00062,-8e-05,-7e-05,4,31
13165,-7e-05,-0.00016,0,0.00065,0.00063,-0.00062,-8e-05,-7e-05,4,31
13166,-7e-05,-0.00016,0,0.00065,0.00063,-0.00062,-8e-05,-7e-05,4,31
13167,3e-05,4e-05,2e-05,8e-05,-0.00021,0.00014,0.0001,1e-05,4,31
13168,6e-05,-3e-05,-0.00013,2e-05,-0.00031,0.00024,0.00019,0.00024,4,31
13169,6e-05,-3e-05,-0.00013,2e-05,-0.00031,0.00024,0.00019,0.00024,4,31
13170,6e-05,-3e-05,-0.00013,2e-05,-0.00031,0.00024,0.00019,0.00024,4,31
13171,6e-05,-3e-05,-0.00013,2e-05,-0.00031,0.00024,0.00019,0.00024,4,31
13172,6e-05,-3e-05,-0.00013,2e-05,-0.00031,0.00024,0.00019,0.00024,4,31
13173,6e-05,-3e-05,-0.00013,2e-05,-0.00031,0.00024,0.00019,0.00024,4,31
13174,6e-05,-3e-05,-0.00013,2e-05,-0.00031,0.00024,0.00019,0.00024,4,31
13175,6e-05,-3e-05,-0.00013,2e-05,-0.00031,0.00024,0.00019,0.00024,4,31
13176,6e-05,-3e-05,-0.00013,2e-05,-0.00031,0.00024,0.00019,0.00024,4,31
13177,6e-05,-3e-05,-0.00013,2e-05,-0.00031,0.00024,0.00019,0.00024,4,31
13178,6e-05,-3e-05,-0.00013,2e-05,-0.00031,0.00024,0.00019,0.00024,4,31
13179,6e-05,-3e-05,-0.00013,2e-05,-0.00031,0.00024,0.00019,0.00024,4,31
13180,6e-05,-3e-05,-0.00013,2e-05,-0.00031,0.00024,0.00019,0.00024,4,31
13181,-0.00015,-0.00012,-0.00014,0.00053,0.00012,-0.00015,-0.00037,-0.00053,4,31
13182,-0.00015,-0.00012,-0.00014,0.00053,0.00012,-0.00015,-0.00037,-0.00053,4,31
13183,-0.00015,-0.00012,-0.00014,0.00053,0.00012,-0.00015,-0.00037,-0.00053,4,31
13184,-0.00015,-0.00012,-0.00014,0.00053,0.00012,-0.00015,-0.00037,-0.00053,4,31
13185,-0.00015,-0.00012,-0.00014,0.00053,0.00012,-0.00015,-0.00037,-0.00053,4,31
13186,-0.00015,-0.00012,-0.00014,0.00053,0.00012,-0.00015,-0.00037,-0.00053,4,31
13188,-0.00015,-0.00012,-0.00014,0.00053,0.00012,-0.00015,-0.00037,-0.00053,4,31
13189,-0.00015,-0.00012,-0.00014,0.00053,0.00012,-0.00015,-0.00037,-0.00053,4,31
13190,-0.00015,-0.00012,-0.00014,0.00053,0.00012,-0.00015,-0.00037,-0.00053,4,31
13191,-0.00015,-0.00012,-0.00014,0.00053,0.00012,-0.00015,-0.00037,-0.00053,4,31
13192,0.00026,0.00042,0.00015,-0.00026,-0.00033,0.00012,5e-05,0.00016,4,31
13193,0.00026,0.00042,0.00015,-0.00026,-0.00033,0.00012,5e-05,0.00016,4,31
13194,0.00026,0.00042,0.00015,-0.00026,-0.00033,0.00012,5e-05,0.00016,4,31
13195,0.00026,0.00042,0.00015,-0.00026,-0.00033,0.00012,5e-05,0.00016,4,31
13196,0.00026,0.00042,0.00015,-0.00026,-0.00033,0.00012,5e-05,0.00016,4,31
13197,0.00026,0.00042,0.00015,-0.00026,-0.00033,0.00012,5e-05,0.00016,4,31
13198,0.00026,0.00042,0.00015,-0.00026,-0.00033,0.00012,5e-05,0.00016,4,31
13199,0.00026,0.00042,0.00015,-0.00026,-0.00033,0.00012,5e-05,0.00016,4,31
13200,0.00026,0.00042,0.00015,-0.00026,-0.00033,0.00012,5e-05,0.00016,4,31
13201,0.00026,0.00042,0.00015,-0.00026,-0.00033,0.00012,5e-05,0.00016,4,31
13202,0.00026,0.00042,0.00015,-0.00026,-0.00033,0.00012,5e-05,0.00016,4,31
13203,0.00026,0.00042,0.00015,-0.00026,-0.00033,0.00012,5e-05,0.00016,4,31
13204,0.00026,0.00042,0.00015,-0.00026,-0.00033,0.00012,5e-05,0.00016,4,31
13205,-6e-05,-6e-05,4e-05,0.00099,0.00081,-0.00032,0.0001,0.00021,4,31
13206,-6e-05,-6e-05,4e-05,0.00099,0.00081,-0.00032,0.0001,0.00021,4,31
13208,-6e-05,-6e-05,4e-05,0.00099,0.00081,-0.00032,0.0001,0.00021,4,31
13209,-6e-05,-6e-05,4e-05,0.00099,0.00081,-0.00032,0.0001,0.00021,4,31
13210,-6e-05,-6e-05,4e-05,0.00099,0.00081,-0.00032,0.0001,0.00021,4,31
13211,-6e-05,-6e-05,4e-05,0.00099,0.00081,-0.00032,0.0001,0.00021,4,31
13212,-6e-05,-6e-05,4e-05,0.00099,0.00081,-0.00032,0.0001,0.00021,4,31
13213,-6e-05,-6e-05,4e-05,0.00099,0.00081,-0.00032,0.0001,0.00021,4,31
13214,-6e-05,-6e-05,4e-05,0.00099,0.00081,-0.00032,0.0001,0.00021,4,31
13215,-6e-05,-6e-05,4e-05,0.00099,0.00081,-0.00032,0.0001,0.00021,4,31
13216,-6e-05,-6e-05,4e-05,0.00099,0.00081,-0.00032,0.0001,0.00021,4,31
13217,-6e-05,-6e-05,4e-05,0.00099,0.00081,-0.00032,0.0001,0.00021,4,31
13218,-6e-05,-6e-05,4e-05,0.00099,0.00081,-0.00032,0.0001,0.00021,4,31
13219,-6e-05,-6e-05,4e-05,0.00099,0.00081,-0.00032,0.0001,0.00021,4,31
13220,-6e-05,-6e-05,4e-05,0.00099,0.00081,-0.00032,0.0001,0.00021,4,31
13221,-6e-05,-6e-05,4e-05,0.00099,0.00081,-0.00032,0.0001,0.00021,4,31
13222,-6e-05,-6e-05,4e-05,0.00099,0.00081,-0.00032,0.0001,0.00021,4,31
13223,-6e-05,-6e-05,4e-05,0.00099,0.00081,-0.00032,0.0001,0.00021,4,31
13224,-6e-05,-6e-05,4e-05,0.00099,0.00081,-0.00032,0.0001,0.00021,4,31
13225,-6e-05,-6e-05,4e-05,0.00099,0.00081,-0.00032,0.0001,0.00021,4,31
13226,-6e-05,-6e-05,4e-05,0.00099,0.00081,-0.00032,0.0001,0.00021,4,31
13227,0.00022,0.00023,8e-05,-0.00057,-0.00102,0.0003,0.00022,0.00039,4,31
13228,0.00011,0.00013,0.00031,0.00087,8e-05,-4e-05,-6e-05,1e-05,4,31
13229,0.00011,0.00013,0.00031,0.00087,8e-05,-4e-05,-6e-05,1e-05,4,31
13230,0.00011,0.00013,0.00031,0.00087,8e-05,-4e-05,-6e-05,1e-05,4,31
13231,0.00011,0.00013,0.00031,0.00087,8e-05,-4e-05,-6e-05,1e-05,4,31
13232,0.00011,0.00013,0.00031,0.00087,8e-05,-4e-05,-6e-05,1e-05,4,31
13233,0.00011,0.00013,0.00031,0.00087,8e-05,-4e-05,-6e-05,1e-05,4,31
13234,0.00011,0.00013,0.00031,0.00087,8e-05,-4e-05,-6e-05,1e-05,4,31
13235,0.00011,0.00013,0.00031,0.00087,8e-05,-4e-05,-6e-05,1e-05,4,31
13236,0.00011,0.00013,0.00031,0.00087,8e-05,-4e-05,-6e-05,1e-05,4,31
13238,0.00011,0.00013,0.00031,0.00087,8e-05,-4e-05,-6e-05,1e-05,4,31
13239,0.00011,0.00013,0.00031,0.00087,8e-05,-4e-05,-6e-05,1e-05,4,31
13240,0.00011,0.00013,0.00031,0.00087,8e-05,-4e-05,-6e-05,1e-05,4,31
13241,-0.0001,-0.00018,-0.00024,-0.00077,-0.00051,-6e-05,0.00011,-3e-05,4,31
13242,-0.00015,-0.00015,-4e-05,0.00111,0.00056,-0.00015,-0.00029,-0.00024,4,31
13243,-0.00015,-0.00015,-4e-05,0.00111,0.00056,-0.00015,-0.00029,-0.00024,4,31
13244,-0.00015,-0.00015,-4e-05,0.00111,0.00056,-0.00015,-0.00029,-0.00024,4,31
13245,-0.00015,-0.00015,-4e-05,0.00111,0.00056,-0.00015,-0.00029,-0.00024,4,31
13246,-0.00015,-0.00015,-4e-05,0.00111,0.00056,-0.00015,-0.00029,-0.00024,4,31
13247,-0.00015,-0.00015,-4e-05,0.00111,0.00056,-0.00015,-0.00029,-0.00024,4,31
13248,-0.00015,-0.00015,-4e-05,0.00111,0.00056,-0.00015,-0.00029,-0.00024,4,31
13249,0.00016,0.00013,5e-05,-0.00056,-0.00092,-0.00021,0.00014,0.00053,4,31
13250,-6e-05,0,-8e-05,-8e-05,0.00031,0.00027,-4e-05,-0.00028,4,31
13251,-6e-05,0,-8e-05,-8e-05,0.00031,0.00027,-4e-05,-0.00028,4,31
13252,-6e-05,0,-8e-05,-8e-05,0.00031,0.00027,-4e-05,-0.00028,4,31
13253,-6e-05,0,-8e-05,-8e-05,0.00031,0.00027,-4e-05,-0.00028,4,31
13255,-6e-05,0,-8e-05,-8e-05,0.00031,0.00027,-4e-05,-0.00028,4,31
13256,-6e-05,0,-8e-05,-8e-05,0.00031,0.00027,-4e-05,-0.00028,4,31
13257,-6e-05,0,-8e-05,-8e-05,0.00031,0.00027,-4e-05,-0.00028,4,31
13258,-6e-05,0,-8e-05,-8e-05,0.00031,0.00027,-4e-05,-0.00028,4,31
13259,-6e-05,0,-8e-05,-8e-05,0.00031,0.00027,-4e-05,-0.00028,4,31
13260,-6e-05,0,-8e-05,-8e-05,0.00031,0.00027,-4e-05,-0.00028,4,31
13261,-6e-05,0,-8e-05,-8e-05,0.00031,0.00027,-4e-05,-0.00028,4,31
13262,-6e-05,0,-8e-05,-8e-05,0.00031,0.00027,-4e-05,-0.00028,4,31
13263,-6e-05,0,-8e-05,-8e-05,0.00031,0.00027,-4e-05,-0.00028,4,31
13264,-6e-05,2e-05,0.00011,0.00046,-0.00026,-0.00019,0.00021,0.00011,4,31
13265,-8e-05,-0.0001,1e-05,-0.00029,0.00022,-0.0003,0.00017,-0.00014,4,31
13266,-8e-05,-0.0001,1e-05,-0.00029,0.00022,-0.0003,0.00017,-0.00014,4,31
13267,-8e-05,-0.0001,1e-05,-0.00029,0.00022,-0.0003,0.00017,-0.00014,4,31
13268,-8e-05,-0.0001,1e-05,-0.00029,0.00022,-0.0003,0.00017,-0.00014,4,31
13269,-8e-05,-0.0001,1e-05,-0.00029,0.00022,-0.0003,0.00017,-0.00014,4,31
13270,-8e-05,-0.0001,1e-05,-0.00029,0.00022,-0.0003,0.00017,-0.00014,4,31
13271,-8e-05,-0.0001,1e-05,-0.00029,0.00022,-0.0003,0.00017,-0.00014,4,31
13272,-8e-05,-0.0001,1e-05,-0.00029,0.00022,-0.0003,0.00017,-0.00014,4,31
13273,-8e-05,-0.0001,1e-05,-0.00029,0.00022,-0.0003,0.00017,-0.00014,4,31
13274,-8e-05,-0.0001,1e-05,-0.00029,0.00022,-0.0003,0.00017,-0.00014,4,31
13275,-8e-05,-0.0001,1e-05,-0.00029,0.00022,-0.0003,0.00017,-0.00014,4,31
13276,-8e-05,-0.0001,1e-05,-0.00029,0.00022,-0.0003,0.00017,-0.00014,4,31
13277,-8e-05,-0.0001,1e-05,-0.00029,0.00022,-0.0003,0.00017,-0.00014,4,31
13278,-8e-05,-0.0001,1e-05,-0.00029,0.00022,-0.0003,0.00017,-0.00014,4,31
13279,-8e-05,-0.0001,1e-05,-0.00029,0.00022,-0.0003,0.00017,-0.00014,4,31
13280,-8e-05,-0.0001,1e-05,-0.00029,0.00022,-0.0003,0.00017,-0.00014,4,31
13281,-8e-05,-0.0001,1e-05,-0.00029,0.00022,-0.0003,0.00017,-0.00014,4,31
13282,-8e-05,-0.0001,1e-05,-0.00029,0.00022,-0.0003,0.00017,-0.00014,4,31
13283,-8e-05,-0.0001,1e-05,-0.00029,0.00022,-0.0003,0.00017,-0.00014,4,31
13284,-8e-05,-0.0001,1e-05,-0.00029,0.00022,-0.0003,0.00017,-0.00014,4,31
13285,-8e-05,-0.0001,1e-05,-0.00029,0.00022,-0.0003,0.00017,-0.00014,4,31
13286,-8e-05,-0.0001,1e-05,-0.00029,0.00022,-0.0003,0.00017,-0.00014,4,31
13288,-8e-05,-0.0001,1e-05,-0.00029,0.00022,-0.0003,0.00017,-0.00014,4,31
13289,-8e-05,-0.0001,1e-05,-0.00029,0.00022,-0.0003,0.00017,-0.00014,4,31
13290,-8e-05,-0.0001,1e-05,-0.00029,0.00022,-0.0003,0.00017,-0.00014,4,31
13291,-8e-05,-0.0001,1e-05,-0.00029,0.00022,-0.0003,0.00017,-0.00014,4,31
13292,-8e-05,-0.0001,1e-05,-0.00029,0.00022,-0.0003,0.00017,-0.00014,4,31
13293,-8e-05,-0.0001,1e-05,-0.00029,0.00022,-0.0003,0.00017,-0.00014,4,31
13294,-8e-05,-0.0001,1e-05,-0.00029,0.00022,-0.0003,0.00017,-0.00014,4,31
13295,-0.00014,-0.00013,-0.0002,-0.00095,3e-05,-0.00032,-0.00022,-8e-05,4,31
13296,5e-05,8e-05,6e-05,-0.00063,-0.00039,0.00015,-3e-05,-0.00018,4,31
13297,5e-05,8e-05,6e-05,-0.00063,-0.00039,0.00015,-3e-05,-0.00018,4,31
13298,5e-05,8e-05,6e-05,-0.00063,-0.00039,0.00015,-3e-05,-0.00018,4,31
13299,5e-05,8e-05,6e-05,-0.00063,-0.00039,0.00015,-3e-05,-0.00018,4,31
13300,5e-05,8e-05,6e-05,-0.00063,-0.00039,0.00015,-3e-05,-0.00018,4,31
13301,-2e-05,5e-05,-3e-05,-0.00086,-0.00063,-8e-05,-6e-05,-4e-05,4,31
13302,-2e-05,5e-05,-3e-05,-0.00086,-0.00063,-8e-05,-6e-05,-4e-05,4,31
13303,-2e-05,5e-05,-3e-05,-0.00086,-0.00063,-8e-05,-6e-05,-4e-05,4,31
13304,-2e-05,5e-05,-3e-05,-0.00086,-0.00063,-8e-05,-6e-05,-4e-05,4,31
13305,-2e-05,5e-05,-3e-05,-0.00086,-0.00063,-8e-05,-6e-05,-4e-05,4,31
13306,-2e-05,5e-05,-3e-05,-0.00086,-0.00063,-8e-05,-6e-05,-4e-05,4,31
13307,-2e-05,5e-05,-3e-05,-0.00086,-0.00063,-8e-05,-6e-05,-4e-05,4,31
13308,-2e-05,5e-05,-3e-05,-0.00086,-0.00063,-8e-05,-6e-05,-4e-05,4,31
13309,-2e-05,5e-05,-3e-05,-0.00086,-0.00063,-8e-05,-6e-05,-4e-05,4,31
13310,-5e-05,-9e-05,-0.00012,-0.00049,-0.00045,1e-05,-0.00012,1e-05,4,31
13311,-5e-05,-9e-05,-0.00012,-0.00049,-0.00045,1e-05,-0.00012,1e-05,4,31
13312,-5e-05,-9e-05,-0.00012,-0.00049,-0.00045,1e-05,-0.00012,1e-05,4,31
13313,-5e-05,-9e-05,-0.00012,-0.00049,-0.00045,1e-05,-0.00012,1e-05,4,31
13314,-5e-05,-9e-05,-0.00012,-0.00049,-0.00045,1e-05,-0.00012,1e-05,4,31
13315,-5e-05,-9e-05,-0.00012,-0.00049,-0.00045,1e-05,-0.00012,1e-05,4,31
13316,-5e-05,-9e-05,-0.00012,-0.00049,-0.00045,1e-05,-0.00012,1e-05,4,31
13317,-5e-05,-9e-05,-0.00012,-0.00049,-0.00045,1e-05,-0.00012,1e-05,4,31
13318,-5e-05,-9e-05,-0.00012,-0.00049,-0.00045,1e-05,-0.00012,1e-05,4,31
13319,-5e-05,-9e-05,-0.00012,-0.00049,-0.00045,1e-05,-0.00012,1e-05,4,31
13320,-5e-05,-9e-05,-0.00012,-0.00049,-0.00045,1e-05,-0.00012,1e-05,4,31
13321,-5e-05,-9e-05,-0.00012,-0.00049,-0.00045,1e-05,-0.00012,1e-05,4,31
13322,-5e-05,-9e-05,-0.00012,-0.00049,-0.00045,1e-05,-0.00012,1e-05,4,31
13323,-5e-05,-9e-05,-0.00012,-0.00049,-0.00045,1e-05,-0.00012,1e-05,4,31
13324,-5e-05,-9e-05,-0.00012,-0.00049,-0.00045,1e-05,-0.00012,1e-05,4,31
13325,-6e-05,-0.00018,-0.00012,-0.00016,-0.00024,-8e-05,-0.00016,1e-05,4,31
13326,-6e-05,-0.00011,-6e-05,1e-05,0.00012,-7e-05,-0.00041,-0.00016,4,31
13327,-6e-05,-0.00011,-6e-05,1e-05,0.00012,-7e-05,-0.00041,-0.00016,4,31
13328,-6e-05,-0.00011,-6e-05,1e-05,0.00012,-7e-05,-0.00041,-0.00016,4,31
13329,-6e-05,-0.00011,-6e-05,1e-05,0.00012,-7e-05,-0.00041,-0.00016,4,31
13330,-6e-05,-0.00011,-6e-05,1e-05,0.00012,-7e-05,-0.00041,-0.00016,4,31
13331,-6e-05,-0.00011,-6e-05,1e-05,0.00012,-7e-05,-0.00041,-0.00016,4,31
13332,-6e-05,-0.00011,-6e-05,1e-05,0.00012,-7e-05,-0.00041,-0.00016,4,31
13333,-6e-05,-0.00011,-6e-05,1e-05,0.00012,-7e-05,-0.00041,-0.00016,4,31
13334,-6e-05,-0.00011,-6e-05,1e-05,0.00012,-7e-05,-0.00041,-0.00016,4,31
13335,-6e-05,-0.00011,-6e-05,1e-05,0.00012,-7e-05,-0.00041,-0.00016,4,31
13336,-6e-05,-0.00011,-6e-05,1e-05,0.00012,-7e-05,-0.00041,-0.00016,4,31
13338,-6e-05,-0.00011,-6e-05,1e-05,0.00012,-7e-05,-0.00041,-0.00016,4,31
13340,-6e-05,-0.00011,-6e-05,1e-05,0.00012,-7e-05,-0.00041,-0.00016,4,31
13341,-6e-05,-0.00011,-6e-05,1e-05,0.00012,-7e-05,-0.00041,-0.00016,4,31
13342,-6e-05,-0.00011,-6e-05,1e-05,0.00012,-7e-05,-0.00041,-0.00016,4,31
13343,-6e-05,-0.00011,-6e-05,1e-05,0.00012,-7e-05,-0.00041,-0.00016,4,31
13344,-6e-05,-0.00011,-6e-05,1e-05,0.00012,-7e-05,-0.00041,-0.00016,4,31
13345,-6e-05,-0.00011,-6e-05,1e-05,0.00012,-7e-05,-0.00041,-0.00016,4,31
13346,-6e-05,-0.00011,-6e-05,1e-05,0.00012,-7e-05,-0.00041,-0.00016,4,31
13347,-6e-05,-0.00011,-6e-05,1e-05,0.00012,-7e-05,-0.00041,-0.00016,4,31
13348,3e-05,5e-05,1e-05,-0.00016,0.00011,-6e-05,2e-05,3e-05,4,31
13349,3e-05,5e-05,1e-05,-0.00016,0.00011,-6e-05,2e-05,3e-05,4,31
13350,3e-05,5e-05,1e-05,-0.00016,0.00011,-6e-05,2e-05,3e-05,4,31
13351,3e-05,5e-05,1e-05,-0.00016,0.00011,-6e-05,2e-05,3e-05,4,31
13352,3e-05,5e-05,1e-05,-0.00016,0.00011,-6e-05,2e-05,3e-05,4,31
13353,3e-05,5e-05,1e-05,-0.00016,0.00011,-6e-05,2e-05,3e-05,4,31
13354,3e-05,5e-05,1e-05,-0.00016,0.00011,-6e-05,2e-05,3e-05,4,31
13355,3e-05,5e-05,1e-05,-0.00016,0.00011,-6e-05,2e-05,3e-05,4,31
13356,3e-05,5e-05,1e-05,-0.00016,0.00011,-6e-05,2e-05,3e-05,4,31
13357,3e-05,5e-05,1e-05,-0.00016,0.00011,-6e-05,2e-05,3e-05,4,31
13358,3e-05,5e-05,1e-05,-0.00016,0.00011,-6e-05,2e-05,3e-05,4,31
13359,3e-05,5e-05,1e-05,-0.00016,0.00011,-6e-05,2e-05,3e-05,4,31
13360,3e-05,5e-05,1e-05,-0.00016,0.00011,-6e-05,2e-05,3e-05,4,31
13361,0.00016,0.00034,-1e-05,-0.00039,-0.00069,-0.00016,0.00028,0.00013,4,31
13362,0.00016,0.00034,-1e-05,-0.00039,-0.00069,-0.00016,0.00028,0.00013,4,31
13363,0.00016,0.00034,-1e-05,-0.00039,-0.00069,-0.00016,0.00028,0.00013,4,31
13364,0.00016,0.00034,-1e-05,-0.00039,-0.00069,-0.00016,0.00028,0.00013,4,31
13365,0.00016,0.00034,-1e-05,-0.00039,-0.00069,-0.00016,0.00028,0.00013,4,31
13366,0.00016,0.00034,-1e-05,-0.00039,-0.00069,-0.00016,0.00028,0.00013,4,31
13367,0.00016,0.00034,-1e-05,-0.00039,-0.00069,-0.00016,0.00028,0.00013,4,31
13368,0.00016,0.00034,-1e-05,-0.00039,-0.00069,-0.00016,0.00028,0.00013,4,31
13369,-1e-05,1e-05,-2e-05,-3e-05,0.00048,-0.00025,-3e-05,-5e-05,4,31
13370,-5e-05,4e-05,0.0001,0.00043,-0.00019,-0.0002,-7e-05,0,4,31
13372,-5e-05,4e-05,0.0001,0.00043,-0.00019,-0.0002,-7e-05,0,4,31
13373,-5e-05,4e-05,0.0001,0.00043,-0.00019,-0.0002,-7e-05,0,4,31
13374,-5e-05,4e-05,0.0001,0.00043,-0.00019,-0.0002,-7e-05,0,4,31
13375,-5e-05,4e-05,0.0001,0.00043,-0.00019,-0.0002,-7e-05,0,4,31
13376,-5e-05,4e-05,0.0001,0.00043,-0.00019,-0.0002,-7e-05,0,4,31
13377,-5e-05,4e-05,0.0001,0.00043,-0.00019,-0.0002,-7e-05,0,4,31
13378,-5e-05,4e-05,0.0001,0.00043,-0.00019,-0.0002,-7e-05,0,4,31
13379,-5e-05,4e-05,0.0001,0.00043,-0.00019,-0.0002,-7e-05,0,4,31
13380,-5e-05,4e-05,0.0001,0.00043,-0.00019,-0.0002,-7e-05,0,4,31
13381,-5e-05,4e-05,0.0001,0.00043,-0.00019,-0.0002,-7e-05,0,4,31
13382,-5e-05,4e-05,0.0001,0.00043,-0.00019,-0.0002,-7e-05,0,4,31
13383,-5e-05,4e-05,0.0001,0.00043,-0.00019,-0.0002,-7e-05,0,4,31
13384,-5e-05,4e-05,0.0001,0.00043,-0.00019,-0.0002,-7e-05,0,4,31
13385,-5e-05,4e-05,0.0001,0.00043,-0.00019,-0.0002,-7e-05,0,4,31
13386,-5e-05,4e-05,0.0001,0.00043,-0.00019,-0.0002,-7e-05,0,4,31
13388,-5e-05,4e-05,0.0001,0.00043,-0.00019,-0.0002,-7e-05,0,4,31
13389,-5e-05,4e-05,0.0001,0.00043,-0.00019,-0.0002,-7e-05,0,4,31
13390,-5e-05,4e-05,0.0001,0.00043,-0.00019,-0.0002,-7e-05,0,4,31
13391,-5e-05,4e-05,0.0001,0.00043,-0.00019,-0.0002,-7e-05,0,4,31
13392,-5e-05,4e-05,0.0001,0.00043,-0.00019,-0.0002,-7e-05,0,4,31
13393,2e-05,0.0001,-0.00012,-0.00054,-0.00073,1e-05,7e-05,0.0002,4,31
13394,2e-05,0.0001,-0.00012,-0.00054,-0.00073,1e-05,7e-05,0.0002,4,31
13395,2e-05,0.0001,-0.00012,-0.00054,-0.00073,1e-05,7e-05,0.0002,4,31
13396,2e-05,0.0001,-0.00012,-0.00054,-0.00073,1e-05,7e-05,0.0002,4,31
13397,2e-05,0.0001,-0.00012,-0.00054,-0.00073,1e-05,7e-05,0.0002,4,31
13398,2e-05,0.0001,-0.00012,-0.00054,-0.00073,1e-05,7e-05,0.0002,4,31
13399,2e-05,0.0001,-0.00012,-0.00054,-0.00073,1e-05,7e-05,0.0002,4,31
13400,2e-05,0.0001,-0.00012,-0.00054,-0.00073,1e-05,7e-05,0.0002,4,31
13401,2e-05,0.0001,-0.00012,-0.00054,-0.00073,1e-05,7e-05,0.0002,4,31
13402,2e-05,0.0001,-0.00012,-0.00054,-0.00073,1e-05,7e-05,0.0002,4,31
13403,2e-05,0.0001,-0.00012,-0.00054,-0.00073,1e-05,7e-05,0.0002,4,31
13404,2e-05,0.0001,-0.00012,-0.00054,-0.00073,1e-05,7e-05,0.0002,4,31
13405,2e-05,0.0001,-0.00012,-0.00054,-0.00073,1e-05,7e-05,0.0002,4,31
13406,2e-05,0.0001,-0.00012,-0.00054,-0.00073,1e-05,7e-05,0.0002,4,31
13407,-4e-05,-1e-05,-0.00013,-0.00039,-0.00058,-0.00026,6e-05,9e-05,4,31
13408,0.00012,0.0002,0.00025,-0.0001,0.0006,0.00066,8e-05,6e-05,4,31
13409,-4e-05,-7e-05,-5e-05,-0.00034,-0.00048,-0.00029,0.00017,-4e-05,4,31
13410,-4e-05,-7e-05,-5e-05,-0.00034,-0.00048,-0.00029,0.00017,-4e-05,4,31
13411,-4e-05,-7e-05,-5e-05,-0.00034,-0.00048,-0.00029,0.00017,-4e-05,4,31
13412,-4e-05,-7e-05,-5e-05,-0.00034,-0.00048,-0.00029,0.00017,-4e-05,4,31
13413,-4e-05,-7e-05,-5e-05,-0.00034,-0.00048,-0.00029,0.00017,-4e-05,4,31
13414,-4e-05,-7e-05,-5e-05,-0.00034,-0.00048,-0.00029,0.00017,-4e-05,4,31
13415,-4e-05,-7e-05,-5e-05,-0.00034,-0.00048,-0.00029,0.00017,-4e-05,4,31
13416,-4e-05,-7e-05,-5e-05,-0.00034,-0.00048,-0.00029,0.00017,-4e-05,4,31
13417,-4e-05,-7e-05,-5e-05,-0.00034,-0.00048,-0.00029,0.00017,-4e-05,4,31
13418,-4e-05,-7e-05,-5e-05,-0.00034,-0.00048,-0.00029,0.00017,-4e-05,4,31
13419,-4e-05,-7e-05,-5e-05,-0.00034,-0.00048,-0.00029,0.00017,-4e-05,4,31
13420,-4e-05,-7e-05,-5e-05,-0.00034,-0.00048,-0.00029,0.00017,-4e-05,4,31
13421,0.00013,0.00012,7e-05,0.00052,0.00049,8e-05,9e-05,0.00015,4,31
13422,0.00013,0.00012,7e-05,0.00052,0.00049,8e-05,9e-05,0.00015,4,31
13423,0.00013,0.00012,7e-05,0.00052,0.00049,8e-05,9e-05,0.00015,4,31
13424,0.00013,0.00012,7e-05,0.00052,0.00049,8e-05,9e-05,0.00015,4,31
13425,0.00013,0.00012,7e-05,0.00052,0.00049,8e-05,9e-05,0.00015,4,31
13426,0.00013,0.00012,7e-05,0.00052,0.00049,8e-05,9e-05,0.00015,4,31
13427,0.00013,0.00012,7e-05,0.00052,0.00049,8e-05,9e-05,0.00015,4,31
13428,0.00013,0.00012,7e-05,0.00052,0.00049,8e-05,9e-05,0.00015,4,31
13429,0.00013,0.00012,7e-05,0.00052,0.00049,8e-05,9e-05,0.00015,4,31
13430,-6e-05,-0.00019,3e-05,-0.00049,-0.00074,-1e-05,-4e-05,-7e-05,4,31
13431,-6e-05,-0.00019,3e-05,-0.00049,-0.00074,-1e-05,-4e-05,-7e-05,4,31
13432,-6e-05,-0.00019,3e-05,-0.00049,-0.00074,-1e-05,-4e-05,-7e-05,4,31
13433,-6e-05,-0.00019,3e-05,-0.00049,-0.00074,-1e-05,-4e-05,-7e-05,4,31
13434,-6e-05,-0.00019,3e-05,-0.00049,-0.00074,-1e-05,-4e-05,-7e-05,4,31
13435,-6e-05,-0.00019,3e-05,-0.00049,-0.00074,-1e-05,-4e-05,-7e-05,4,31
13436,-6e-05,-0.00019,3e-05,-0.00049,-0.00074,-1e-05,-4e-05,-7e-05,4,31
13438,-6e-05,-0.00019,3e-05,-0.00049,-0.00074,-1e-05,-4e-05,-7e-05,4,31
13440,-6e-05,-0.00019,3e-05,-0.00049,-0.00074,-1e-05,-4e-05,-7e-05,4,31
13441,-6e-05,-0.00019,3e-05,-0.00049,-0.00074,-1e-05,-4e-05,-7e-05,4,31
13442,-6e-05,-0.00019,3e-05,-0.00049,-0.00074,-1e-05,-4e-05,-7e-05,4,31
13443,-6e-05,-0.00019,3e-05,-0.00049,-0.00074,-1e-05,-4e-05,-7e-05,4,31
13444,5e-05,0.00027,0.0001,0,0.0005,0.00018,8e-05,0,4,31
13445,9e-05,7e-05,1e-05,0.00057,0.00044,0.00054,5e-05,6e-05,4,31
13446,9e-05,7e-05,1e-05,0.00057,0.00044,0.00054,5e-05,6e-05,4,31
13447,9e-05,7e-05,1e-05,0.00057,0.00044,0.00054,5e-05,6e-05,4,31
13448,9e-05,7e-05,1e-05,0.00057,0.00044,0.00054,5e-05,6e-05,4,31
13449,9e-05,7e-05,1e-05,0.00057,0.00044,0.00054,5e-05,6e-05,4,31
13450,9e-05,7e-05,1e-05,0.00057,0.00044,0.00054,5e-05,6e-05,4,31
13451,9e-05,7e-05,1e-05,0.00057,0.00044,0.00054,5e-05,6e-05,4,31
13452,9e-05,7e-05,1e-05,0.00057,0.00044,0.00054,5e-05,6e-05,4,31
13453,9e-05,7e-05,1e-05,0.00057,0.00044,0.00054,5e-05,6e-05,4,31
13454,9e-05,7e-05,1e-05,0.00057,0.00044,0.00054,5e-05,6e-05,4,31
13455,9e-05,7e-05,1e-05,0.00057,0.00044,0.00054,5e-05,6e-05,4,31
13456,9e-05,7e-05,1e-05,0.00057,0.00044,0.00054,5e-05,6e-05,4,31
13457,9e-05,7e-05,1e-05,0.00057,0.00044,0.00054,5e-05,6e-05,4,31
13458,9e-05,7e-05,1e-05,0.00057,0.00044,0.00054,5e-05,6e-05,4,31
13459,9e-05,7e-05,1e-05,0.00057,0.00044,0.00054,5e-05,6e-05,4,31
13460,9e-05,7e-05,1e-05,0.00057,0.00044,0.00054,5e-05,6e-05,4,31
13461,9e-05,7e-05,1e-05,0.00057,0.00044,0.00054,5e-05,6e-05,4,31
13462,9e-05,7e-05,1e-05,0.00057,0.00044,0.00054,5e-05,6e-05,4,31
13463,9e-05,7e-05,1e-05,0.00057,0.00044,0.00054,5e-05,6e-05,4,31
13464,9e-05,7e-05,1e-05,0.00057,0.00044,0.00054,5e-05,6e-05,4,31
13465,9e-05,7e-05,1e-05,0.00057,0.00044,0.00054,5e-05,6e-05,4,31
13466,9e-05,7e-05,1e-05,0.00057,0.00044,0.00054,5e-05,6e-05,4,31
13467,1e-05,0.00011,0.0002,0.00013,-0.00027,-4e-05,7e-05,-8e-05,4,31
13468,-0.00031,-0.00025,-0.00027,0.00013,-0.00039,-0.00076,-0.00036,-0.00043,4,31
13469,-0.00031,-0.00025,-0.00027,0.00013,-0.00039,-0.00076,-0.00036,-0.00043,4,31
13470,-0.00031,-0.00025,-0.00027,0.00013,-0.00039,-0.00076,-0.00036,-0.00043,4,31
13471,-0.00031,-0.00025,-0.00027,0.00013,-0.00039,-0.00076,-0.00036,-0.00043,4,31
13472,-0.00031,-0.00025,-0.00027,0.00013,-0.00039,-0.00076,-0.00036,-0.00043,4,31
13473,-0.00031,-0.00025,-0.00027,0.00013,-0.00039,-0.00076,-0.00036,-0.00043,4,31
13474,-0.00031,-0.00025,-0.00027,0.00013,-0.00039,-0.00076,-0.00036,-0.00043,4,31
13475,-0.00031,-0.00025,-0.00027,0.00013,-0.00039,-0.00076,-0.00036,-0.00043,4,31
13476,-0.00031,-0.00025,-0.00027,0.00013,-0.00039,-0.00076,-0.00036,-0.00043,4,31
13477,-0.00031,-0.00025,-0.00027,0.00013,-0.00039,-0.00076,-0.00036,-0.00043,4,31
13478,-0.00031,-0.00025,-0.00027,0.00013,-0.00039,-0.00076,-0.00036,-0.00043,4,31
13479,-0.00031,-0.00025,-0.00027,0.00013,-0.00039,-0.00076,-0.00036,-0.00043,4,31
13480,-0.00031,-0.00025,-0.00027,0.00013,-0.00039,-0.00076,-0.00036,-0.00043,4,31
13481,-9e-05,-0.00012,0,0.00024,-0.00011,0.0001,-0.0002,-0.00041,4,31
13483,-9e-05,-0.00012,0,0.00024,-0.00011,0.0001,-0.0002,-0.00041,4,31
13484,-9e-05,-0.00012,0,0.00024,-0.00011,0.0001,-0.0002,-0.00041,4,31
13485,-9e-05,-0.00012,0,0.00024,-0.00011,0.0001,-0.0002,-0.00041,4,31
13486,-9e-05,-0.00012,0,0.00024,-0.00011,0.0001,-0.0002,-0.00041,4,31
13489,-9e-05,-0.00012,0,0.00024,-0.00011,0.0001,-0.0002,-0.00041,4,31
13490,-5e-05,-2e-05,-0.00011,-0.00029,-0.00043,-0.00031,-0.00018,5e-05,4,31
13491,-5e-05,-2e-05,-0.00011,-0.00029,-0.00043,-0.00031,-0.00018,5e-05,4,31
13492,-5e-05,-2e-05,-0.00011,-0.00029,-0.00043,-0.00031,-0.00018,5e-05,4,31
13493,-5e-05,-2e-05,-0.00011,-0.00029,-0.00043,-0.00031,-0.00018,5e-05,4,31
13494,-5e-05,-2e-05,-0.00011,-0.00029,-0.00043,-0.00031,-0.00018,5e-05,4,31
13495,-5e-05,-2e-05,-0.00011,-0.00029,-0.00043,-0.00031,-0.00018,5e-05,4,31
13496,-5e-05,-2e-05,-0.00011,-0.00029,-0.00043,-0.00031,-0.00018,5e-05,4,31
13497,-5e-05,-2e-05,-0.00011,-0.00029,-0.00043,-0.00031,-0.00018,5e-05,4,31
13498,-5e-05,-2e-05,-0.00011,-0.00029,-0.00043,-0.00031,-0.00018,5e-05,4,31
13499,-5e-05,-2e-05,-0.00011,-0.00029,-0.00043,-0.00031,-0.00018,5e-05,4,31
13500,-5e-05,-2e-05,-0.00011,-0.00029,-0.00043,-0.00031,-0.00018,5e-05,4,31
13501,-5e-05,-2e-05,-0.00011,-0.00029,-0.00043,-0.00031,-0.00018,5e-05,4,31
13502,-5e-05,-2e-05,-0.00011,-0.00029,-0.00043,-0.00031,-0.00018,5e-05,4,31
13503,-5e-05,-2e-05,-0.00011,-0.00029,-0.00043,-0.00031,-0.00018,5e-05,4,31
13504,-5e-05,-2e-05,-0.00011,-0.00029,-0.00043,-0.00031,-0.00018,5e-05,4,31
13505,9e-05,4e-05,0.00027,0.00056,0.00024,0.00011,6e-05,0.00014,4,31
13506,9e-05,4e-05,0.00027,0.00056,0.00024,0.00011,6e-05,0.00014,4,31
13507,9e-05,4e-05,0.00027,0.00056,0.00024,0.00011,6e-05,0.00014,4,31
13508,9e-05,4e-05,0.00027,0.00056,0.00024,0.00011,6e-05,0.00014,4,31
13509,9e-05,4e-05,0.00027,0.00056,0.00024,0.00011,6e-05,0.00014,4,31
13510,9e-05,4e-05,0.00027,0.00056,0.00024,0.00011,6e-05,0.00014,4,31
13511,9e-05,4e-05,0.00027,0.00056,0.00024,0.00011,6e-05,0.00014,4,31
13512,9e-05,4e-05,0.00027,0.00056,0.00024,0.00011,6e-05,0.00014,4,31
13513,9e-05,4e-05,0.00027,0.00056,0.00024,0.00011,6e-05,0.00014,4,31
13514,9e-05,4e-05,0.00027,0.00056,0.00024,0.00011,6e-05,0.00014,4,31
13515,9e-05,4e-05,0.00027,0.00056,0.00024,0.00011,6e-05,0.00014,4,31
13516,9e-05,4e-05,0.00027,0.00056,0.00024,0.00011,6e-05,0.00014,4,31
13517,9e-05,4e-05,0.00027,0.00056,0.00024,0.00011,6e-05,0.00014,4,31
13518,9e-05,4e-05,0.00027,0.00056,0.00024,0.00011,6e-05,0.00014,4,31
13519,9e-05,4e-05,0.00027,0.00056,0.00024,0.00011,6e-05,0.00014,4,31
13520,9e-05,4e-05,0.00027,0.00056,0.00024,0.00011,6e-05,0.00014,4,31
13521,9e-05,4e-05,0.00027,0.00056,0.00024,0.00011,6e-05,0.00014,4,31
13522,9e-05,4e-05,0.00027,0.00056,0.00024,0.00011,6e-05,0.00014,4,31
13523,9e-05,4e-05,0.00027,0.00056,0.00024,0.00011,6e-05,0.00014,4,31
13524,9e-05,4e-05,0.00027,0.00056,0.00024,0.00011,6e-05,0.00014,4,31
13525,9e-05,4e-05,0.00027,0.00056,0.00024,0.00011,6e-05,0.00014,4,31
13526,9e-05,4e-05,0.00027,0.00056,0.00024,0.00011,6e-05,0.00014,4,31
13527,4e-05,0,-0.0001,0.00029,3e-05,0.00039,5e-05,0.00016,4,31
13528,-4e-05,-0.0001,-0.00027,-0.00049,-0.00075,-0.00058,-0.00018,-5e-05,4,31
13529,-4e-05,-0.0001,-0.00027,-0.00049,-0.00075,-0.00058,-0.00018,-5e-05,4,31
13530,-4e-05,-0.0001,-0.00027,-0.00049,-0.00075,-0.00058,-0.00018,-5e-05,4,31
13531,-4e-05,-0.0001,-0.00027,-0.00049,-0.00075,-0.00058,-0.00018,-5e-05,4,31
13532,-4e-05,-0.0001,-0.00027,-0.00049,-0.00075,-0.00058,-0.00018,-5e-05,4,31
13533,-4e-05,-0.0001,-0.00027,-0.00049,-0.00075,-0.00058,-0.00018,-5e-05,4,31
13534,-4e-05,-0.0001,-0.00027,-0.00049,-0.00075,-0.00058,-0.00018,-5e-05,4,31
13535,-4e-05,-0.0001,-0.00027,-0.00049,-0.00075,-0.00058,-0.00018,-5e-05,4,31
13536,-4e-05,-0.0001,-0.00027,-0.00049,-0.00075,-0.00058,-0.00018,-5e-05,4,31
13538,-4e-05,-0.0001,-0.00027,-0.00049,-0.00075,-0.00058,-0.00018,-5e-05,4,31
13540,-4e-05,-0.0001,-0.00027,-0.00049,-0.00075,-0.00058,-0.00018,-5e-05,4,31
13541,-4e-05,-0.0001,-0.00027,-0.00049,-0.00075,-0.00058,-0.00018,-5e-05,4,31
13542,-4e-05,-0.0001,-0.00027,-0.00049,-0.00075,-0.00058,-0.00018,-5e-05,4,31
13543,-4e-05,-0.0001,-0.00027,-0.00049,-0.00075,-0.00058,-0.00018,-5e-05,4,31
13544,-4e-05,-0.0001,-0.00027,-0.00049,-0.00075,-0.00058,-0.00018,-5e-05,4,31
13545,-4e-05,-0.0001,-0.00027,-0.00049,-0.00075,-0.00058,-0.00018,-5e-05,4,31
13546,-4e-05,-0.0001,-0.00027,-0.00049,-0.00075,-0.00058,-0.00018,-5e-05,4,31
13547,-4e-05,-0.0001,-0.00027,-0.00049,-0.00075,-0.00058,-0.00018,-5e-05,4,31
13548,-4e-05,-0.0001,-0.00027,-0.00049,-0.00075,-0.00058,-0.00018,-5e-05,4,31
13549,-4e-05,-0.0001,-0.00027,-0.00049,-0.00075,-0.00058,-0.00018,-5e-05,4,31
13550,-1e-05,0.00011,0.00026,0.00104,0.00089,0.00055,9e-05,0.00014,4,31
13551,2e-05,-6e-05,0.00012,0.00033,0.00114,0.00057,0.00011,-4e-05,4,31
13552,2e-05,-6e-05,0.00012,0.00033,0.00114,0.00057,0.00011,-4e-05,4,31
13553,2e-05,-6e-05,0.00012,0.00033,0.00114,0.00057,0.00011,-4e-05,4,31
13554,2e-05,-6e-05,0.00012,0.00033,0.00114,0.00057,0.00011,-4e-05,4,31
13555,2e-05,-6e-05,0.00012,0.00033,0.00114,0.00057,0.00011,-4e-05,4,31
13556,2e-05,-6e-05,0.00012,0.00033,0.00114,0.00057,0.00011,-4e-05,4,31
13557,2e-05,-6e-05,0.00012,0.00033,0.00114,0.00057,0.00011,-4e-05,4,31
13558,2e-05,-6e-05,0.00012,0.00033,0.00114,0.00057,0.00011,-4e-05,4,31
13559,2e-05,-6e-05,0.00012,0.00033,0.00114,0.00057,0.00011,-4e-05,4,31
13560,2e-05,-6e-05,0.00012,0.00033,0.00114,0.00057,0.00011,-4e-05,4,31
13561,2e-05,-6e-05,0.00012,0.00033,0.00114,0.00057,0.00011,-4e-05,4,31
13562,2e-05,-6e-05,0.00012,0.00033,0.00114,0.00057,0.00011,-4e-05,4,31
13563,2e-05,-6e-05,0.00012,0.00033,0.00114,0.00057,0.00011,-4e-05,4,31
13564,-3e-05,-1e-05,-0.00012,0.00019,0.00116,0.00071,9e-05,-9e-05,4,31
13565,0.0001,0.00012,5e-05,0.00023,8e-05,0.0006,0.00013,0.00018,4,31
13566,0.0001,0.00012,5e-05,0.00023,8e-05,0.0006,0.00013,0.00018,4,31
13567,0.0001,0.00012,5e-05,0.00023,8e-05,0.0006,0.00013,0.00018,4,31
13568,0.0001,0.00012,5e-05,0.00023,8e-05,0.0006,0.00013,0.00018,4,31
13569,0.0001,0.00012,5e-05,0.00023,8e-05,0.0006,0.00013,0.00018,4,31
13570,0.0001,0.00012,5e-05,0.00023,8e-05,0.0006,0.00013,0.00018,4,31
13571,0.0001,0.00012,5e-05,0.00023,8e-05,0.0006,0.00013,0.00018,4,31
13572,0.0001,0.00012,5e-05,0.00023,8e-05,0.0006,0.00013,0.00018,4,31
13573,0.0001,0.00012,5e-05,0.00023,8e-05,0.0006,0.00013,0.00018,4,31
13574,0.0001,0.00012,5e-05,0.00023,8e-05,0.0006,0.00013,0.00018,4,31
13575,0.0001,0.00012,5e-05,0.00023,8e-05,0.0006,0.00013,0.00018,4,31
13576,0.0001,0.00012,5e-05,0.00023,8e-05,0.0006,0.00013,0.00018,4,31
13577,0.0001,0.00012,5e-05,0.00023,8e-05,0.0006,0.00013,0.00018,4,31
13578,0.0001,0.00012,5e-05,0.00023,8e-05,0.0006,0.00013,0.00018,4,31
13579,0.0001,0.00012,5e-05,0.00023,8e-05,0.0006,0.00013,0.00018,4,31
13580,0.0001,0.00012,5e-05,0.00023,8e-05,0.0006,0.00013,0.00018,4,31
13581,0.0001,0.00012,5e-05,0.00023,8e-05,0.0006,0.00013,0.00018,4,31
13582,0.0001,0.00012,5e-05,0.00023,8e-05,0.0006,0.00013,0.00018,4,31
13583,0.0001,0.00012,5e-05,0.00023,8e-05,0.0006,0.00013,0.00018,4,31
13584,0.0001,0.00012,5e-05,0.00023,8e-05,0.0006,0.00013,0.00018,4,31
13585,0.0001,0.00012,5e-05,0.00023,8e-05,0.0006,0.00013,0.00018,4,31
13586,0.0001,0.00012,5e-05,0.00023,8e-05,0.0006,0.00013,0.00018,4,31
13589,3e-05,9e-05,0.00022,-0.00034,-0.00059,-0.00021,-0.00011,-0.00011,4,31
13590,3e-05,9e-05,0.00022,-0.00034,-0.00059,-0.00021,-0.00011,-0.00011,4,31
13591,3e-05,9e-05,0.00022,-0.00034,-0.00059,-0.00021,-0.00011,-0.00011,4,31
13592,3e-05,9e-05,0.00022,-0.00034,-0.00059,-0.00021,-0.00011,-0.00011,4,31
13593,3e-05,9e-05,0.00022,-0.00034,-0.00059,-0.00021,-0.00011,-0.00011,4,31
13594,3e-05,9e-05,0.00022,-0.00034,-0.00059,-0.00021,-0.00011,-0.00011,4,31
13595,3e-05,9e-05,0.00022,-0.00034,-0.00059,-0.00021,-0.00011,-0.00011,4,31
13596,3e-05,9e-05,0.00022,-0.00034,-0.00059,-0.00021,-0.00011,-0.00011,4,31
13597,3e-05,9e-05,0.00022,-0.00034,-0.00059,-0.00021,-0.00011,-0.00011,4,31
13598,3e-05,9e-05,0.00022,-0.00034,-0.00059,-0.00021,-0.00011,-0.00011,4,31
13599,3e-05,9e-05,0.00022,-0.00034,-0.00059,-0.00021,-0.00011,-0.00011,4,31
13600,3e-05,9e-05,0.00022,-0.00034,-0.00059,-0.00021,-0.00011,-0.00011,4,31
13601,3e-05,9e-05,0.00022,-0.00034,-0.00059,-0.00021,-0.00011,-0.00011,4,31
13602,3e-05,9e-05,0.00022,-0.00034,-0.00059,-0.00021,-0.00011,-0.00011,4,31
13603,3e-05,9e-05,0.00022,-0.00034,-0.00059,-0.00021,-0.00011,-0.00011,4,31
13604,3e-05,9e-05,0.00022,-0.00034,-0.00059,-0.00021,-0.00011,-0.00011,4,31
13605,3e-05,9e-05,0.00022,-0.00034,-0.00059,-0.00021,-0.00011,-0.00011,4,31
13606,3e-05,9e-05,0.00022,-0.00034,-0.00059,-0.00021,-0.00011,-0.00011,4,31
13607,3e-05,9e-05,0.00022,-0.00034,-0.00059,-0.00021,-0.00011,-0.00011,4,31
13608,3e-05,9e-05,0.00022,-0.00034,-0.00059,-0.00021,-0.00011,-0.00011,4,31
13609,3e-05,9e-05,0.00022,-0.00034,-0.00059,-0.00021,-0.00011,-0.00011,4,31
13610,-0.00011,-0.00014,-0.00027,-0.00044,0.00039,-0.00031,-7e-05,-0.00016,4,31
13611,-5e-05,-0.00014,-6e-05,0.00067,0.00072,0.00037,-2e-05,-2e-05,4,31
13612,-5e-05,-0.00014,-6e-05,0.00067,0.00072,0.00037,-2e-05,-2e-05,4,31
13613,-5e-05,-0.00014,-6e-05,0.00067,0.00072,0.00037,-2e-05,-2e-05,4,31
13614,-5e-05,-0.00014,-6e-05,0.00067,0.00072,0.00037,-2e-05,-2e-05,4,31
13615,-5e-05,-0.00014,-6e-05,0.00067,0.00072,0.00037,-2e-05,-2e-05,4,31
13616,-5e-05,-0.00014,-6e-05,0.00067,0.00072,0.00037,-2e-05,-2e-05,4,31
13617,-5e-05,-0.00014,-6e-05,0.00067,0.00072,0.00037,-2e-05,-2e-05,4,31
13618,-5e-05,-0.00014,-6e-05,0.00067,0.00072,0.00037,-2e-05,-2e-05,4,31
13619,-5e-05,-0.00014,-6e-05,0.00067,0.00072,0.00037,-2e-05,-2e-05,4,31
13620,-5e-05,-0.00014,-6e-05,0.00067,0.00072,0.00037,-2e-05,-2e-05,4,31
13621,-5e-05,-0.00014,-6e-05,0.00067,0.00072,0.00037,-2e-05,-2e-05,4,31
13622,-5e-05,-0.00014,-6e-05,0.00067,0.00072,0.00037,-2e-05,-2e-05,4,31
13623,-5e-05,-0.00014,-6e-05,0.00067,0.00072,0.00037,-2e-05,-2e-05,4,31
13624,-3e-05,2e-05,-6e-05,0,-0.00057,-7e-05,0.00013,-0.00016,4,31
13625,-3e-05,0,-1e-05,0.00026,0.00087,-3e-05,3e-05,0.00024,4,31
13626,-3e-05,0,-1e-05,0.00026,0.00087,-3e-05,3e-05,0.00024,4,31
13627,-3e-05,0,-1e-05,0.00026,0.00087,-3e-05,3e-05,0.00024,4,31
13628,-3e-05,0,-1e-05,0.00026,0.00087,-3e-05,3e-05,0.00024,4,31
13629,-3e-05,0,-1e-05,0.00026,0.00087,-3e-05,3e-05,0.00024,4,31
13630,-3e-05,0,-1e-05,0.00026,0.00087,-3e-05,3e-05,0.00024,4,31
13631,-3e-05,0,-1e-05,0.00026,0.00087,-3e-05,3e-05,0.00024,4,31
13632,-3e-05,0,-1e-05,0.00026,0.00087,-3e-05,3e-05,0.00024,4,31
13633,-3e-05,0,-1e-05,0.00026,0.00087,-3e-05,3e-05,0.00024,4,31
13634,-3e-05,0,-1e-05,0.00026,0.00087,-3e-05,3e-05,0.00024,4,31
13635,-3e-05,0,-1e-05,0.00026,0.00087,-3e-05,3e-05,0.00024,4,31
13636,-3e-05,0,-1e-05,0.00026,0.00087,-3e-05,3e-05,0.00024,4,31
13638,-3e-05,0,-1e-05,0.00026,0.00087,-3e-05,3e-05,0.00024,4,31
13640,-3e-05,0,-1e-05,0.00026,0.00087,-3e-05,3e-05,0.00024,4,31
13641,-3e-05,0,-1e-05,0.00026,0.00087,-3e-05,3e-05,0.00024,4,31
13642,-3e-05,0,-1e-05,0.00026,0.00087,-3e-05,3e-05,0.00024,4,31
13643,-3e-05,0,-1e-05,0.00026,0.00087,-3e-05,3e-05,0.00024,4,31
13644,-3e-05,0,-1e-05,0.00026,0.00087,-3e-05,3e-05,0.00024,4,31
13645,-3e-05,0,-1e-05,0.00026,0.00087,-3e-05,3e-05,0.00024,4,31
13646,-3e-05,0,-1e-05,0.00026,0.00087,-3e-05,3e-05,0.00024,4,31
13647,-3e-05,0,-1e-05,0.00026,0.00087,-3e-05,3e-05,0.00024,4,31
13648,0,-2e-05,-0.00019,0.00019,0.00018,-0.00047,0,-0.00012,4,31
13649,0,-2e-05,-0.00019,0.00019,0.00018,-0.00047,0,-0.00012,4,31
13650,0,-2e-05,-0.00019,0.00019,0.00018,-0.00047,0,-0.00012,4,31
13651,0,-2e-05,-0.00019,0.00019,0.00018,-0.00047,0,-0.00012,4,31
13652,0,-2e-05,-0.00019,0.00019,0.00018,-0.00047,0,-0.00012,4,31
13653,0,-2e-05,-0.00019,0.00019,0.00018,-0.00047,0,-0.00012,4,31
13654,0,-2e-05,-0.00019,0.00019,0.00018,-0.00047,0,-0.00012,4,31
13655,0,-2e-05,-0.00019,0.00019,0.00018,-0.00047,0,-0.00012,4,31
13656,0,-2e-05,-0.00019,0.00019,0.00018,-0.00047,0,-0.00012,4,31
13657,0,-2e-05,-0.00019,0.00019,0.00018,-0.00047,0,-0.00012,4,31
13658,0,-2e-05,-0.00019,0.00019,0.00018,-0.00047,0,-0.00012,4,31
13659,0,-2e-05,-0.00019,0.00019,0.00018,-0.00047,0,-0.00012,4,31
13660,0,-2e-05,-0.00019,0.00019,0.00018,-0.00047,0,-0.00012,4,31
13661,0,-2e-05,-0.00019,0.00019,0.00018,-0.00047,0,-0.00012,4,31
13662,0,-2e-05,-0.00019,0.00019,0.00018,-0.00047,0,-0.00012,4,31
13663,0,-2e-05,-0.00019,0.00019,0.00018,-0.00047,0,-0.00012,4,31
13664,0,-2e-05,-0.00019,0.00019,0.00018,-0.00047,0,-0.00012,4,31
13665,0,-2e-05,-0.00019,0.00019,0.00018,-0.00047,0,-0.00012,4,31
13666,0,-2e-05,-0.00019,0.00019,0.00018,-0.00047,0,-0.00012,4,31
13667,0,-2e-05,-0.00019,0.00019,0.00018,-0.00047,0,-0.00012,4,31
13668,0,-2e-05,-0.00019,0.00019,0.00018,-0.00047,0,-0.00012,4,31
13669,0,-2e-05,-0.00019,0.00019,0.00018,-0.00047,0,-0.00012,4,31
13670,-0.00015,-0.00013,7e-05,-0.00026,-0.00119,-0.00019,6e-05,-4e-05,4,31
13671,1e-05,-2e-05,7e-05,0.00043,0.00048,3e-05,0.00027,0.00016,4,31
13672,1e-05,-2e-05,7e-05,0.00043,0.00048,3e-05,0.00027,0.00016,4,31
13673,1e-05,-2e-05,7e-05,0.00043,0.00048,3e-05,0.00027,0.00016,4,31
13674,1e-05,-2e-05,7e-05,0.00043,0.00048,3e-05,0.00027,0.00016,4,31
13675,1e-05,-2e-05,7e-05,0.00043,0.00048,3e-05,0.00027,0.00016,4,31
13676,1e-05,-2e-05,7e-05,0.00043,0.00048,3e-05,0.00027,0.00016,4,31
13677,1e-05,-2e-05,7e-05,0.00043,0.00048,3e-05,0.00027,0.00016,4,31
13678,1e-05,-2e-05,7e-05,0.00043,0.00048,3e-05,0.00027,0.00016,4,31
13679,1e-05,-2e-05,7e-05,0.00043,0.00048,3e-05,0.00027,0.00016,4,31
13680,1e-05,-2e-05,7e-05,0.00043,0.00048,3e-05,0.00027,0.00016,4,31
13681,1e-05,-2e-05,7e-05,0.00043,0.00048,3e-05,0.00027,0.00016,4,31
13682,1e-05,-2e-05,7e-05,0.00043,0.00048,3e-05,0.00027,0.00016,4,31
13683,1e-05,-2e-05,7e-05,0.00043,0.00048,3e-05,0.00027,0.00016,4,31
13684,-2e-05,-4e-05,8e-05,0.00032,1e-05,-0.00023,-5e-05,5e-05,4,31
13685,0.00012,0.00016,6e-05,-9e-05,0.00047,0.00031,-0.00013,2e-05,4,31
13687,0.00012,0.00016,6e-05,-9e-05,0.00047,0.00031,-0.00013,2e-05,4,31
13689,0.00012,0.00016,6e-05,-9e-05,0.00047,0.00031,-0.00013,2e-05,4,31
13690,0.00012,0.00016,6e-05,-9e-05,0.00047,0.00031,-0.00013,2e-05,4,31
13691,0.00012,0.00016,6e-05,-9e-05,0.00047,0.00031,-0.00013,2e-05,4,31
13692,0.00012,0.00016,6e-05,-9e-05,0.00047,0.00031,-0.00013,2e-05,4,31
13693,0.00012,0.00016,6e-05,-9e-05,0.00047,0.00031,-0.00013,2e-05,4,31
13694,0.00012,0.00016,6e-05,-9e-05,0.00047,0.00031,-0.00013,2e-05,4,31
13695,0.00012,0.00016,6e-05,-9e-05,0.00047,0.00031,-0.00013,2e-05,4,31
13696,0.00012,0.00016,6e-05,-9e-05,0.00047,0.00031,-0.00013,2e-05,4,31
13697,0.00012,0.00016,6e-05,-9e-05,0.00047,0.00031,-0.00013,2e-05,4,31
13698,0.00012,0.00016,6e-05,-9e-05,0.00047,0.00031,-0.00013,2e-05,4,31
13699,0.00012,0.00016,6e-05,-9e-05,0.00047,0.00031,-0.00013,2e-05,4,31
13700,0.00012,0.00016,6e-05,-9e-05,0.00047,0.00031,-0.00013,2e-05,4,31
13701,0.00012,0.00016,6e-05,-9e-05,0.00047,0.00031,-0.00013,2e-05,4,31
13702,0.00012,0.00016,6e-05,-9e-05,0.00047,0.00031,-0.00013,2e-05,4,31
13703,0.00012,0.00016,6e-05,-9e-05,0.00047,0.00031,-0.00013,2e-05,4,31
13704,0.00012,0.00016,6e-05,-9e-05,0.00047,0.00031,-0.00013,2e-05,4,31
13705,0.00012,0.00016,6e-05,-9e-05,0.00047,0.00031,-0.00013,2e-05,4,31
13706,0.00012,0.00016,6e-05,-9e-05,0.00047,0.00031,-0.00013,2e-05,4,31
13707,7e-05,6e-05,0.0001,-0.00028,0.00084,0.00051,0.0002,0.00011,4,31
13708,0,-3e-05,0,-0.00033,-0.00083,-0.00013,0,0.00033,4,31
13709,0,-3e-05,0,-0.00033,-0.00083,-0.00013,0,0.00033,4,31
13710,0,-3e-05,0,-0.00033,-0.00083,-0.00013,0,0.00033,4,31
13711,0,-3e-05,0,-0.00033,-0.00083,-0.00013,0,0.00033,4,31
13712,0,-3e-05,0,-0.00033,-0.00083,-0.00013,0,0.00033,4,31
13713,0,-3e-05,0,-0.00033,-0.00083,-0.00013,0,0.00033,4,31
13714,0,-3e-05,0,-0.00033,-0.00083,-0.00013,0,0.00033,4,31
13715,0,-3e-05,0,-0.00033,-0.00083,-0.00013,0,0.00033,4,31
13716,0,-3e-05,0,-0.00033,-0.00083,-0.00013,0,0.00033,4,31
13717,0,-3e-05,0,-0.00033,-0.00083,-0.00013,0,0.00033,4,31
13718,0,-3e-05,0,-0.00033,-0.00083,-0.00013,0,0.00033,4,31
13719,0,-3e-05,0,-0.00033,-0.00083,-0.00013,0,0.00033,4,31
13720,0,-3e-05,0,-0.00033,-0.00083,-0.00013,0,0.00033,4,31
13721,0,-3e-05,0,-0.00033,-0.00083,-0.00013,0,0.00033,4,31
13722,0,-3e-05,0,-0.00033,-0.00083,-0.00013,0,0.00033,4,31
13723,0,-3e-05,0,-0.00033,-0.00083,-0.00013,0,0.00033,4,31
13724,0,-3e-05,0,-0.00033,-0.00083,-0.00013,0,0.00033,4,31
13725,0,-3e-05,0,-0.00033,-0.00083,-0.00013,0,0.00033,4,31
13726,0,-3e-05,0,-0.00033,-0.00083,-0.00013,0,0.00033,4,31
13727,0,-3e-05,0,-0.00033,-0.00083,-0.00013,0,0.00033,4,31
13728,0,-3e-05,0,-0.00033,-0.00083,-0.00013,0,0.00033,4,31
13729,0,-3e-05,0,-0.00033,-0.00083,-0.00013,0,0.00033,4,31
13730,0.0002,0.00027,0.00023,-0.00072,-0.00056,1e-05,0.0001,0.0002,4,31
13731,-8e-05,0,-0.00014,-0.00036,-0.00091,-0.00049,-0.00029,-0.00028,4,31
13732,-8e-05,0,-0.00014,-0.00036,-0.00091,-0.00049,-0.00029,-0.00028,4,31
13733,-8e-05,0,-0.00014,-0.00036,-0.00091,-0.00049,-0.00029,-0.00028,4,31
13734,-8e-05,0,-0.00014,-0.00036,-0.00091,-0.00049,-0.00029,-0.00028,4,31
13735,-8e-05,0,-0.00014,-0.00036,-0.00091,-0.00049,-0.00029,-0.00028,4,31
13736,-8e-05,0,-0.00014,-0.00036,-0.00091,-0.00049,-0.00029,-0.00028,4,31
13738,-8e-05,0,-0.00014,-0.00036,-0.00091,-0.00049,-0.00029,-0.00028,4,31
13739,-8e-05,0,-0.00014,-0.00036,-0.00091,-0.00049,-0.00029,-0.00028,4,31
13740,-8e-05,0,-0.00014,-0.00036,-0.00091,-0.00049,-0.00029,-0.00028,4,31
13741,-8e-05,0,-0.00014,-0.00036,-0.00091,-0.00049,-0.00029,-0.00028,4,31
13742,-8e-05,0,-0.00014,-0.00036,-0.00091,-0.00049,-0.00029,-0.00028,4,31
13743,-8e-05,0,-0.00014,-0.00036,-0.00091,-0.00049,-0.00029,-0.00028,4,31
13744,-8e-05,0,-0.00014,-0.00036,-0.00091,-0.00049,-0.00029,-0.00028,4,31
13745,-8e-05,0,-0.00014,-0.00036,-0.00091,-0.00049,-0.00029,-0.00028,4,31
13746,-8e-05,0,-0.00014,-0.00036,-0.00091,-0.00049,-0.00029,-0.00028,4,31
13747,-8e-05,0,-0.00014,-0.00036,-0.00091,-0.00049,-0.00029,-0.00028,4,31
13748,-8e-05,0,-0.00014,-0.00036,-0.00091,-0.00049,-0.00029,-0.00028,4,31
13749,-8e-05,0,-0.00014,-0.00036,-0.00091,-0.00049,-0.00029,-0.00028,4,31
13750,-8e-05,0,-0.00014,-0.00036,-0.00091,-0.00049,-0.00029,-0.00028,4,31
13751,-8e-05,0,-0.00014,-0.00036,-0.00091,-0.00049,-0.00029,-0.00028,4,31
13752,-8e-05,0,-0.00014,-0.00036,-0.00091,-0.00049,-0.00029,-0.00028,4,31
13753,8e-05,0.0002,1e-05,-0.00037,-0.00045,-0.00025,-4e-05,1e-05,4,31
13754,-7e-05,-3e-05,2e-05,5e-05,-0.0006,-0.00014,-8e-05,-0.00015,4,31
13755,-7e-05,-3e-05,2e-05,5e-05,-0.0006,-0.00014,-8e-05,-0.00015,4,31
13756,-7e-05,-3e-05,2e-05,5e-05,-0.0006,-0.00014,-8e-05,-0.00015,4,31
13757,-7e-05,-3e-05,2e-05,5e-05,-0.0006,-0.00014,-8e-05,-0.00015,4,31
13758,-7e-05,-3e-05,2e-05,5e-05,-0.0006,-0.00014,-8e-05,-0.00015,4,31
13759,-7e-05,-3e-05,2e-05,5e-05,-0.0006,-0.00014,-8e-05,-0.00015,4,31
13760,-7e-05,-3e-05,2e-05,5e-05,-0.0006,-0.00014,-8e-05,-0.00015,4,31
13761,-7e-05,-3e-05,2e-05,5e-05,-0.0006,-0.00014,-8e-05,-0.00015,4,31
13762,-7e-05,-3e-05,2e-05,5e-05,-0.0006,-0.00014,-8e-05,-0.00015,4,31
13763,-7e-05,-3e-05,2e-05,5e-05,-0.0006,-0.00014,-8e-05,-0.00015,4,31
13764,-7e-05,-3e-05,2e-05,5e-05,-0.0006,-0.00014,-8e-05,-0.00015,4,31
13765,-7e-05,-3e-05,2e-05,5e-05,-0.0006,-0.00014,-8e-05,-0.00015,4,31
13766,-7e-05,-3e-05,2e-05,5e-05,-0.0006,-0.00014,-8e-05,-0.00015,4,31
13767,-7e-05,-3e-05,2e-05,5e-05,-0.0006,-0.00014,-8e-05,-0.00015,4,31
13769,-7e-05,-3e-05,2e-05,5e-05,-0.0006,-0.00014,-8e-05,-0.00015,4,31
13770,-7e-05,-3e-05,2e-05,5e-05,-0.0006,-0.00014,-8e-05,-0.00015,4,31
13771,-7e-05,-3e-05,2e-05,5e-05,-0.0006,-0.00014,-8e-05,-0.00015,4,31
13772,-7e-05,-3e-05,2e-05,5e-05,-0.0006,-0.00014,-8e-05,-0.00015,4,31
13773,-7e-05,-3e-05,2e-05,5e-05,-0.0006,-0.00014,-8e-05,-0.00015,4,31
13774,-7e-05,-3e-05,2e-05,5e-05,-0.0006,-0.00014,-8e-05,-0.00015,4,31
13775,-9e-05,-0.00014,-0.00012,-0.00024,-0.00061,-0.00011,-9e-05,0.00018,4,31
13776,4e-05,-5e-05,-0.00011,0.00095,0.00014,-0.00034,-4e-05,-0.00016,4,31
13777,-9e-05,-0.00014,-5e-05,-0.00036,-0.00022,0.00013,0.00025,0.0002,4,31
13778,-9e-05,-0.00014,-5e-05,-0.00036,-0.00022,0.00013,0.00025,0.0002,4,31
13779,-9e-05,-0.00014,-5e-05,-0.00036,-0.00022,0.00013,0.00025,0.0002,4,31
13780,-9e-05,-0.00014,-5e-05,-0.00036,-0.00022,0.00013,0.00025,0.0002,4,31
13781,-9e-05,-0.00014,-5e-05,-0.00036,-0.00022,0.00013,0.00025,0.0002,4,31
13782,-9e-05,-0.00014,-5e-05,-0.00036,-0.00022,0.00013,0.00025,0.0002,4,31
13783,-9e-05,-0.00014,-5e-05,-0.00036,-0.00022,0.00013,0.00025,0.0002,4,31
13784,-9e-05,-0.00014,-5e-05,-0.00036,-0.00022,0.00013,0.00025,0.0002,4,31
13785,-9e-05,-0.00014,-5e-05,-0.00036,-0.00022,0.00013,0.00025,0.0002,4,31
13786,-9e-05,-0.00014,-5e-05,-0.00036,-0.00022,0.00013,0.00025,0.0002,4,31
13789,-9e-05,-0.00014,-5e-05,-0.00036,-0.00022,0.00013,0.00025,0.0002,4,31
13790,-9e-05,-0.00014,-5e-05,-0.00036,-0.00022,0.00013,0.00025,0.0002,4,31
13791,-9e-05,-0.00014,-5e-05,-0.00036,-0.00022,0.00013,0.00025,0.0002,4,31
13792,-9e-05,-0.00014,-5e-05,-0.00036,-0.00022,0.00013,0.00025,0.0002,4,31
13793,-9e-05,-0.00014,-5e-05,-0.00036,-0.00022,0.00013,0.00025,0.0002,4,31
13794,-9e-05,-0.00014,-5e-05,-0.00036,-0.00022,0.00013,0.00025,0.0002,4,31
13795,-9e-05,-0.00014,-5e-05,-0.00036,-0.00022,0.00013,0.00025,0.0002,4,31
13796,-9e-05,-0.00014,-5e-05,-0.00036,-0.00022,0.00013,0.00025,0.0002,4,31
13797,-9e-05,-0.00014,-5e-05,-0.00036,-0.00022,0.00013,0.00025,0.0002,4,31
13798,-5e-05,-5e-05,-9e-05,0.00032,0.00049,-0.00034,-0.00035,0.00011,4,31
13799,3e-05,-2e-05,0.00012,-0.00036,0.00021,-0.00023,-2e-05,-0.00013,4,31
13800,3e-05,-2e-05,0.00012,-0.00036,0.00021,-0.00023,-2e-05,-0.00013,4,31
13801,3e-05,-2e-05,0.00012,-0.00036,0.00021,-0.00023,-2e-05,-0.00013,4,31
13802,3e-05,-2e-05,0.00012,-0.00036,0.00021,-0.00023,-2e-05,-0.00013,4,31
13803,3e-05,-2e-05,0.00012,-0.00036,0.00021,-0.00023,-2e-05,-0.00013,4,31
13804,-6e-05,-0.00011,-0.00016,-1e-05,0.00041,-0.00066,0.00014,-0.00012,4,31
13805,-6e-05,-8e-05,-0.00023,-0.00014,5e-05,0.00025,-7e-05,-0.0001,4,31
13806,-6e-05,-8e-05,-0.00023,-0.00014,5e-05,0.00025,-7e-05,-0.0001,4,31
13807,-6e-05,-8e-05,-0.00023,-0.00014,5e-05,0.00025,-7e-05,-0.0001,4,31
13808,-6e-05,-8e-05,-0.00023,-0.00014,5e-05,0.00025,-7e-05,-0.0001,4,31
13809,-6e-05,-8e-05,-0.00023,-0.00014,5e-05,0.00025,-7e-05,-0.0001,4,31
13810,-6e-05,-8e-05,-0.00023,-0.00014,5e-05,0.00025,-7e-05,-0.0001,4,31
13811,-6e-05,-8e-05,-0.00023,-0.00014,5e-05,0.00025,-7e-05,-0.0001,4,31
13812,-6e-05,-8e-05,-0.00023,-0.00014,5e-05,0.00025,-7e-05,-0.0001,4,31
13813,-6e-05,-8e-05,-0.00023,-0.00014,5e-05,0.00025,-7e-05,-0.0001,4,31
13814,-6e-05,-8e-05,-0.00023,-0.00014,5e-05,0.00025,-7e-05,-0.0001,4,31
13815,-6e-05,-8e-05,-0.00023,-0.00014,5e-05,0.00025,-7e-05,-0.0001,4,31
13816,-6e-05,-8e-05,-0.00023,-0.00014,5e-05,0.00025,-7e-05,-0.0001,4,31
13817,-6e-05,-8e-05,-0.00023,-0.00014,5e-05,0.00025,-7e-05,-0.0001,4,31
13818,-6e-05,-8e-05,-0.00023,-0.00014,5e-05,0.00025,-7e-05,-0.0001,4,31
13819,-6e-05,-8e-05,-0.00023,-0.00014,5e-05,0.00025,-7e-05,-0.0001,4,31
13820,-6e-05,-8e-05,-0.00023,-0.00014,5e-05,0.00025,-7e-05,-0.0001,4,31
13821,-6e-05,-8e-05,-0.00023,-0.00014,5e-05,0.00025,-7e-05,-0.0001,4,31
13822,-6e-05,-8e-05,-0.00023,-0.00014,5e-05,0.00025,-7e-05,-0.0001,4,31
13823,-6e-05,-8e-05,-0.00023,-0.00014,5e-05,0.00025,-7e-05,-0.0001,4,31
13824,-6e-05,-8e-05,-0.00023,-0.00014,5e-05,0.00025,-7e-05,-0.0001,4,31
13825,-6e-05,-8e-05,-0.00023,-0.00014,5e-05,0.00025,-7e-05,-0.0001,4,31
13826,-6e-05,-8e-05,-0.00023,-0.00014,5e-05,0.00025,-7e-05,-0.0001,4,31
13827,-4e-05,-0.00016,-0.00024,-0.00065,-0.00094,0.00024,-0.00013,-9e-05,4,31
13828,-2e-05,-2e-05,7e-05,-0.00037,-0.00047,-0.00052,4e-05,-0.00015,4,31
13829,-2e-05,-2e-05,7e-05,-0.00037,-0.00047,-0.00052,4e-05,-0.00015,4,31
13830,-2e-05,-2e-05,7e-05,-0.00037,-0.00047,-0.00052,4e-05,-0.00015,4,31
13831,-2e-05,-2e-05,7e-05,-0.00037,-0.00047,-0.00052,4e-05,-0.00015,4,31
13832,-2e-05,-2e-05,7e-05,-0.00037,-0.00047,-0.00052,4e-05,-0.00015,4,31
13833,-2e-05,-2e-05,7e-05,-0.00037,-0.00047,-0.00052,4e-05,-0.00015,4,31
13834,-2e-05,-2e-05,7e-05,-0.00037,-0.00047,-0.00052,4e-05,-0.00015,4,31
13835,-2e-05,-2e-05,7e-05,-0.00037,-0.00047,-0.00052,4e-05,-0.00015,4,31
13836,-2e-05,-2e-05,7e-05,-0.00037,-0.00047,-0.00052,4e-05,-0.00015,4,31
13838,-2e-05,-2e-05,7e-05,-0.00037,-0.00047,-0.00052,4e-05,-0.00015,4,31
13839,-2e-05,-2e-05,7e-05,-0.00037,-0.00047,-0.00052,4e-05,-0.00015,4,31
13840,-2e-05,-2e-05,7e-05,-0.00037,-0.00047,-0.00052,4e-05,-0.00015,4,31
13841,-2e-05,-2e-05,7e-05,-0.00037,-0.00047,-0.00052,4e-05,-0.00015,4,31
13842,-2e-05,-2e-05,7e-05,-0.00037,-0.00047,-0.00052,4e-05,-0.00015,4,31
13843,-2e-05,-2e-05,7e-05,-0.00037,-0.00047,-0.00052,4e-05,-0.00015,4,31
13844,-2e-05,-2e-05,7e-05,-0.00037,-0.00047,-0.00052,4e-05,-0.00015,4,31
13845,-2e-05,-2e-05,7e-05,-0.00037,-0.00047,-0.00052,4e-05,-0.00015,4,31
13846,-2e-05,-2e-05,7e-05,-0.00037,-0.00047,-0.00052,4e-05,-0.00015,4,31
13847,-2e-05,-2e-05,7e-05,-0.00037,-0.00047,-0.00052,4e-05,-0.00015,4,31
13848,-2e-05,-2e-05,7e-05,-0.00037,-0.00047,-0.00052,4e-05,-0.00015,4,31
13849,-2e-05,-2e-05,7e-05,-0.00037,-0.00047,-0.00052,4e-05,-0.00015,4,31
13850,0.00014,0.00022,0.00031,0.00011,0.0002,0.00038,0.0003,9e-05,4,31
13851,5e-05,-1e-05,-8e-05,0.00053,0.00066,0.00071,-7e-05,0.00013,4,31
13852,5e-05,-1e-05,-8e-05,0.00053,0.00066,0.00071,-7e-05,0.00013,4,31
13853,5e-05,-1e-05,-8e-05,0.00053,0.00066,0.00071,-7e-05,0.00013,4,31
13854,5e-05,-1e-05,-8e-05,0.00053,0.00066,0.00071,-7e-05,0.00013,4,31
13855,5e-05,-1e-05,-8e-05,0.00053,0.00066,0.00071,-7e-05,0.00013,4,31
13856,5e-05,-1e-05,-8e-05,0.00053,0.00066,0.00071,-7e-05,0.00013,4,31
13857,5e-05,-1e-05,-8e-05,0.00053,0.00066,0.00071,-7e-05,0.00013,4,31
13858,5e-05,-1e-05,-8e-05,0.00053,0.00066,0.00071,-7e-05,0.00013,4,31
13859,5e-05,-1e-05,-8e-05,0.00053,0.00066,0.00071,-7e-05,0.00013,4,31
13860,5e-05,-1e-05,-8e-05,0.00053,0.00066,0.00071,-7e-05,0.00013,4,31
13861,5e-05,-1e-05,-8e-05,0.00053,0.00066,0.00071,-7e-05,0.00013,4,31
13862,5e-05,-1e-05,-8e-05,0.00053,0.00066,0.00071,-7e-05,0.00013,4,31
13863,5e-05,-1e-05,-8e-05,0.00053,0.00066,0.00071,-7e-05,0.00013,4,31
13864,-5e-05,-7e-05,-0.00015,-0.00048,-0.00069,-0.00019,-6e-05,-5e-05,4,31
13865,7e-05,0.00014,7e-05,-0.00016,8e-05,0.0003,1e-05,-6e-05,4,31
13866,7e-05,0.00014,7e-05,-0.00016,8e-05,0.0003,1e-05,-6e-05,4,31
13867,7e-05,0.00014,7e-05,-0.00016,8e-05,0.0003,1e-05,-6e-05,4,31
13868,7e-05,0.00014,7e-05,-0.00016,8e-05,0.0003,1e-05,-6e-05,4,31
13869,7e-05,0.00014,7e-05,-0.00016,8e-05,0.0003,1e-05,-6e-05,4,31
13870,7e-05,0.00014,7e-05,-0.00016,8e-05,0.0003,1e-05,-6e-05,4,31
13871,7e-05,0.00014,7e-05,-0.00016,8e-05,0.0003,1e-05,-6e-05,4,31
13872,7e-05,0.00014,7e-05,-0.00016,8e-05,0.0003,1e-05,-6e-05,4,31
13873,7e-05,0.00014,7e-05,-0.00016,8e-05,0.0003,1e-05,-6e-05,4,31
13874,7e-05,0.00014,7e-05,-0.00016,8e-05,0.0003,1e-05,-6e-05,4,31
13875,7e-05,0.00014,7e-05,-0.00016,8e-05,0.0003,1e-05,-6e-05,4,31
13876,7e-05,0.00014,7e-05,-0.00016,8e-05,0.0003,1e-05,-6e-05,4,31
13877,7e-05,0.00014,7e-05,-0.00016,8e-05,0.0003,1e-05,-6e-05,4,31
13878,7e-05,0.00014,7e-05,-0.00016,8e-05,0.0003,1e-05,-6e-05,4,31
13879,7e-05,0.00014,7e-05,-0.00016,8e-05,0.0003,1e-05,-6e-05,4,31
13880,7e-05,0.00014,7e-05,-0.00016,8e-05,0.0003,1e-05,-6e-05,4,31
13881,7e-05,0.00014,7e-05,-0.00016,8e-05,0.0003,1e-05,-6e-05,4,31
13882,7e-05,0.00014,7e-05,-0.00016,8e-05,0.0003,1e-05,-6e-05,4,31
13883,7e-05,0.00014,7e-05,-0.00016,8e-05,0.0003,1e-05,-6e-05,4,31
13884,7e-05,0.00014,7e-05,-0.00016,8e-05,0.0003,1e-05,-6e-05,4,31
13885,7e-05,0.00014,7e-05,-0.00016,8e-05,0.0003,1e-05,-6e-05,4,31
13886,7e-05,0.00014,7e-05,-0.00016,8e-05,0.0003,1e-05,-6e-05,4,31
13889,-0.0001,-5e-05,-3e-05,-0.00083,-0.00083,0.00013,-0.00015,-0.00014,4,31
13890,-0.0001,-5e-05,-3e-05,-0.00083,-0.00083,0.00013,-0.00015,-0.00014,4,31
13891,-0.0001,-5e-05,-3e-05,-0.00083,-0.00083,0.00013,-0.00015,-0.00014,4,31
13892,-0.0001,-5e-05,-3e-05,-0.00083,-0.00083,0.00013,-0.00015,-0.00014,4,31
13893,-0.0001,-5e-05,-3e-05,-0.00083,-0.00083,0.00013,-0.00015,-0.00014,4,31
13894,-0.0001,-5e-05,-3e-05,-0.00083,-0.00083,0.00013,-0.00015,-0.00014,4,31
13895,-0.0001,-5e-05,-3e-05,-0.00083,-0.00083,0.00013,-0.00015,-0.00014,4,31
13896,-0.0001,-5e-05,-3e-05,-0.00083,-0.00083,0.00013,-0.00015,-0.00014,4,31
13897,-0.0001,-5e-05,-3e-05,-0.00083,-0.00083,0.00013,-0.00015,-0.00014,4,31
13898,-0.0001,-5e-05,-3e-05,-0.00083,-0.00083,0.00013,-0.00015,-0.00014,4,31
13899,-0.0001,-5e-05,-3e-05,-0.00083,-0.00083,0.00013,-0.00015,-0.00014,4,31
13900,-0.0001,-5e-05,-3e-05,-0.00083,-0.00083,0.00013,-0.00015,-0.00014,4,31
13901,-0.0001,-5e-05,-3e-05,-0.00083,-0.00083,0.00013,-0.00015,-0.00014,4,31
13902,-0.0001,-5e-05,-3e-05,-0.00083,-0.00083,0.00013,-0.00015,-0.00014,4,31
13903,-0.0001,-5e-05,-3e-05,-0.00083,-0.00083,0.00013,-0.00015,-0.00014,4,31
13904,-0.0001,-5e-05,-3e-05,-0.00083,-0.00083,0.00013,-0.00015,-0.00014,4,31
13905,-0.0001,-5e-05,-3e-05,-0.00083,-0.00083,0.00013,-0.00015,-0.00014,4,31
13906,-0.0001,-5e-05,-3e-05,-0.00083,-0.00083,0.00013,-0.00015,-0.00014,4,31
13907,-0.0001,-5e-05,-3e-05,-0.00083,-0.00083,0.00013,-0.00015,-0.00014,4,31
13908,-0.0001,-5e-05,-3e-05,-0.00083,-0.00083,0.00013,-0.00015,-0.00014,4,31
13909,-0.0001,-5e-05,-3e-05,-0.00083,-0.00083,0.00013,-0.00015,-0.00014,4,31
13910,-0.00011,-0.0001,-0.00016,-0.00041,9e-05,0.00016,4e-05,-3e-05,4,31
13911,8e-05,7e-05,0.00013,-0.00037,-0.00019,0.00014,0.00015,0.0001,4,31
13912,8e-05,7e-05,0.00013,-0.00037,-0.00019,0.00014,0.00015,0.0001,4,31
13913,8e-05,7e-05,0.00013,-0.00037,-0.00019,0.00014,0.00015,0.0001,4,31
13914,8e-05,7e-05,0.00013,-0.00037,-0.00019,0.00014,0.00015,0.0001,4,31
13915,8e-05,7e-05,0.00013,-0.00037,-0.00019,0.00014,0.00015,0.0001,4,31
13916,8e-05,7e-05,0.00013,-0.00037,-0.00019,0.00014,0.00015,0.0001,4,31
13917,8e-05,7e-05,0.00013,-0.00037,-0.00019,0.00014,0.00015,0.0001,4,31
13918,8e-05,7e-05,0.00013,-0.00037,-0.00019,0.00014,0.00015,0.0001,4,31
13919,8e-05,7e-05,0.00013,-0.00037,-0.00019,0.00014,0.00015,0.0001,4,31
13920,8e-05,7e-05,0.00013,-0.00037,-0.00019,0.00014,0.00015,0.0001,4,31
13921,8e-05,7e-05,0.00013,-0.00037,-0.00019,0.00014,0.00015,0.0001,4,31
13922,8e-05,7e-05,0.00013,-0.00037,-0.00019,0.00014,0.00015,0.0001,4,31
13923,8e-05,7e-05,0.00013,-0.00037,-0.00019,0.00014,0.00015,0.0001,4,31
13924,-0.00014,-0.00018,0.0001,0.00049,0.00116,0.00028,-8e-05,1e-05,4,31
13925,-1e-05,-5e-05,-1e-05,0.00033,-0.00034,-0.00024,3e-05,3e-05,4,31
13926,-1e-05,-5e-05,-1e-05,0.00033,-0.00034,-0.00024,3e-05,3e-05,4,31
13927,-1e-05,-5e-05,-1e-05,0.00033,-0.00034,-0.00024,3e-05,3e-05,4,31
13928,-1e-05,-5e-05,-1e-05,0.00033,-0.00034,-0.00024,3e-05,3e-05,4,31
13929,-1e-05,-5e-05,-1e-05,0.00033,-0.00034,-0.00024,3e-05,3e-05,4,31
13930,-1e-05,-5e-05,-1e-05,0.00033,-0.00034,-0.00024,3e-05,3e-05,4,31
13931,-1e-05,-5e-05,-1e-05,0.00033,-0.00034,-0.00024,3e-05,3e-05,4,31
13932,-1e-05,-5e-05,-1e-05,0.00033,-0.00034,-0.00024,3e-05,3e-05,4,31
13933,-1e-05,-5e-05,-1e-05,0.00033,-0.00034,-0.00024,3e-05,3e-05,4,31
13934,-1e-05,-5e-05,-1e-05,0.00033,-0.00034,-0.00024,3e-05,3e-05,4,31
13935,-1e-05,-5e-05,-1e-05,0.00033,-0.00034,-0.00024,3e-05,3e-05,4,31
13936,-1e-05,-5e-05,-1e-05,0.00033,-0.00034,-0.00024,3e-05,3e-05,4,31
13938,-1e-05,-5e-05,-1e-05,0.00033,-0.00034,-0.00024,3e-05,3e-05,4,31
13939,-1e-05,-5e-05,-1e-05,0.00033,-0.00034,-0.00024,3e-05,3e-05,4,31
13940,-1e-05,-5e-05,-1e-05,0.00033,-0.00034,-0.00024,3e-05,3e-05,4,31
13941,-1e-05,-5e-05,-1e-05,0.00033,-0.00034,-0.00024,3e-05,3e-05,4,31
13942,-1e-05,-5e-05,-1e-05,0.00033,-0.00034,-0.00024,3e-05,3e-05,4,31
13943,-1e-05,-5e-05,-1e-05,0.00033,-0.00034,-0.00024,3e-05,3e-05,4,31
13944,-1e-05,-5e-05,-1e-05,0.00033,-0.00034,-0.00024,3e-05,3e-05,4,31
13945,-1e-05,-5e-05,-1e-05,0.00033,-0.00034,-0.00024,3e-05,3e-05,4,31
13946,-1e-05,-5e-05,-1e-05,0.00033,-0.00034,-0.00024,3e-05,3e-05,4,31
13947,1e-05,9e-05,-6e-05,0.00024,-0.00022,-0.00032,1e-05,2e-05,4,31
13948,-6e-05,-1e-05,-9e-05,-0.00011,-0.00035,2e-05,-5e-05,2e-05,4,31
13949,-6e-05,-1e-05,-9e-05,-0.00011,-0.00035,2e-05,-5e-05,2e-05,4,31
13950,-6e-05,-1e-05,-9e-05,-0.00011,-0.00035,2e-05,-5e-05,2e-05,4,31
13951,-6e-05,-1e-05,-9e-05,-0.00011,-0.00035,2e-05,-5e-05,2e-05,4,31
13952,-6e-05,-1e-05,-9e-05,-0.00011,-0.00035,2e-05,-5e-05,2e-05,4,31
13953,-6e-05,-1e-05,-9e-05,-0.00011,-0.00035,2e-05,-5e-05,2e-05,4,31
13954,-6e-05,-1e-05,-9e-05,-0.00011,-0.00035,2e-05,-5e-05,2e-05,4,31
13956,-6e-05,-1e-05,-9e-05,-0.00011,-0.00035,2e-05,-5e-05,2e-05,4,31
13957,-6e-05,-1e-05,-9e-05,-0.00011,-0.00035,2e-05,-5e-05,2e-05,4,31
13958,-6e-05,-1e-05,-9e-05,-0.00011,-0.00035,2e-05,-5e-05,2e-05,4,31
13959,-6e-05,-1e-05,-9e-05,-0.00011,-0.00035,2e-05,-5e-05,2e-05,4,31
13960,-6e-05,-1e-05,-9e-05,-0.00011,-0.00035,2e-05,-5e-05,2e-05,4,31
13961,-6e-05,-1e-05,-9e-05,-0.00011,-0.00035,2e-05,-5e-05,2e-05,4,31
13962,-6e-05,-1e-05,-9e-05,-0.00011,-0.00035,2e-05,-5e-05,2e-05,4,31
13963,-6e-05,-1e-05,-9e-05,-0.00011,-0.00035,2e-05,-5e-05,2e-05,4,31
13964,-6e-05,-1e-05,-9e-05,-0.00011,-0.00035,2e-05,-5e-05,2e-05,4,31
13965,-6e-05,-1e-05,-9e-05,-0.00011,-0.00035,2e-05,-5e-05,2e-05,4,31
13966,-6e-05,-1e-05,-9e-05,-0.00011,-0.00035,2e-05,-5e-05,2e-05,4,31
13967,-6e-05,-1e-05,-9e-05,-0.00011,-0.00035,2e-05,-5e-05,2e-05,4,31
13968,-6e-05,-1e-05,-9e-05,-0.00011,-0.00035,2e-05,-5e-05,2e-05,4,31
13969,-6e-05,-1e-05,-9e-05,-0.00011,-0.00035,2e-05,-5e-05,2e-05,4,31
13970,2e-05,5e-05,0.00023,0.00092,0.00127,0.00023,-0.00019,-8e-05,4,31
13971,-4e-05,-6e-05,-0.0001,0,9e-05,-0.00039,5e-05,-9e-05,4,31
13972,-4e-05,-6e-05,-0.0001,0,9e-05,-0.00039,5e-05,-9e-05,4,31
13973,-4e-05,-6e-05,-0.0001,0,9e-05,-0.00039,5e-05,-9e-05,4,31
13974,-4e-05,-6e-05,-0.0001,0,9e-05,-0.00039,5e-05,-9e-05,4,31
13975,-4e-05,-6e-05,-0.0001,0,9e-05,-0.00039,5e-05,-9e-05,4,31
13976,-4e-05,-6e-05,-0.0001,0,9e-05,-0.00039,5e-05,-9e-05,4,31
13977,-4e-05,-6e-05,-0.0001,0,9e-05,-0.00039,5e-05,-9e-05,4,31
13978,-4e-05,-6e-05,-0.0001,0,9e-05,-0.00039,5e-05,-9e-05,4,31
13979,-4e-05,-6e-05,-0.0001,0,9e-05,-0.00039,5e-05,-9e-05,4,31
13980,-4e-05,-6e-05,-0.0001,0,9e-05,-0.00039,5e-05,-9e-05,4,31
13981,-4e-05,-6e-05,-0.0001,0,9e-05,-0.00039,5e-05,-9e-05,4,31
13982,-4e-05,-6e-05,-0.0001,0,9e-05,-0.00039,5e-05,-9e-05,4,31
13983,-4e-05,-6e-05,-0.0001,0,9e-05,-0.00039,5e-05,-9e-05,4,31
13984,1e-05,-3e-05,-3e-05,-0.00018,-0.001,6e-05,-0.00014,9e-05,4,31
13985,3e-05,-4e-05,2e-05,0.00074,0.00027,0.0002,-7e-05,-3e-05,4,31
13986,3e-05,-4e-05,2e-05,0.00074,0.00027,0.0002,-7e-05,-3e-05,4,31
13988,3e-05,-4e-05,2e-05,0.00074,0.00027,0.0002,-7e-05,-3e-05,4,31
13989,3e-05,-4e-05,2e-05,0.00074,0.00027,0.0002,-7e-05,-3e-05,4,31
13990,3e-05,-4e-05,2e-05,0.00074,0.00027,0.0002,-7e-05,-3e-05,4,31
13991,3e-05,-4e-05,2e-05,0.00074,0.00027,0.0002,-7e-05,-3e-05,4,31
13992,3e-05,-4e-05,2e-05,0.00074,0.00027,0.0002,-7e-05,-3e-05,4,31
13993,3e-05,-4e-05,2e-05,0.00074,0.00027,0.0002,-7e-05,-3e-05,4,31
13994,3e-05,-4e-05,2e-05,0.00074,0.00027,0.0002,-7e-05,-3e-05,4,31
13995,3e-05,-4e-05,2e-05,0.00074,0.00027,0.0002,-7e-05,-3e-05,4,31
13996,3e-05,-4e-05,2e-05,0.00074,0.00027,0.0002,-7e-05,-3e-05,4,31
13997,3e-05,-4e-05,2e-05,0.00074,0.00027,0.0002,-7e-05,-3e-05,4,31
13998,3e-05,-4e-05,2e-05,0.00074,0.00027,0.0002,-7e-05,-3e-05,4,31
13999,3e-05,-4e-05,2e-05,0.00074,0.00027,0.0002,-7e-05,-3e-05,4,31
14000,3e-05,-4e-05,2e-05,0.00074,0.00027,0.0002,-7e-05,-3e-05,4,31
14001,3e-05,-4e-05,2e-05,0.00074,0.00027,0.0002,-7e-05,-3e-05,4,31
14002,3e-05,-4e-05,2e-05,0.00074,0.00027,0.0002,-7e-05,-3e-05,4,31
14003,3e-05,-4e-05,2e-05,0.00074,0.00027,0.0002,-7e-05,-3e-05,4,31
14004,3e-05,-4e-05,2e-05,0.00074,0.00027,0.0002,-7e-05,-3e-05,4,31
14005,3e-05,-4e-05,2e-05,0.00074,0.00027,0.0002,-7e-05,-3e-05,4,31
14006,3e-05,-4e-05,2e-05,0.00074,0.00027,0.0002,-7e-05,-3e-05,4,31
14007,-6e-05,-0.00015,-8e-05,0.0002,0.00102,-0.00028,-6e-05,-3e-05,4,31
14008,7e-05,0.00016,0,-0.00044,-0.00072,-0.00024,0.00013,0,4,31
14009,7e-05,0.00016,0,-0.00044,-0.00072,-0.00024,0.00013,0,4,31
14010,7e-05,0.00016,0,-0.00044,-0.00072,-0.00024,0.00013,0,4,31
14011,7e-05,0.00016,0,-0.00044,-0.00072,-0.00024,0.00013,0,4,31
14012,7e-05,0.00016,0,-0.00044,-0.00072,-0.00024,0.00013,0,4,31
14013,7e-05,0.00016,0,-0.00044,-0.00072,-0.00024,0.00013,0,4,31
14014,7e-05,0.00016,0,-0.00044,-0.00072,-0.00024,0.00013,0,4,31
14015,7e-05,0.00016,0,-0.00044,-0.00072,-0.00024,0.00013,0,4,31
14016,7e-05,0.00016,0,-0.00044,-0.00072,-0.00024,0.00013,0,4,31
14017,7e-05,0.00016,0,-0.00044,-0.00072,-0.00024,0.00013,0,4,31
14018,7e-05,0.00016,0,-0.00044,-0.00072,-0.00024,0.00013,0,4,31
14019,7e-05,0.00016,0,-0.00044,-0.00072,-0.00024,0.00013,0,4,31
14020,7e-05,0.00016,0,-0.00044,-0.00072,-0.00024,0.00013,0,4,31
14021,7e-05,0.00016,0,-0.00044,-0.00072,-0.00024,0.00013,0,4,31
14022,7e-05,0.00016,0,-0.00044,-0.00072,-0.00024,0.00013,0,4,31
14023,7e-05,0.00016,0,-0.00044,-0.00072,-0.00024,0.00013,0,4,31
14024,7e-05,0.00016,0,-0.00044,-0.00072,-0.00024,0.00013,0,4,31
14025,7e-05,0.00016,0,-0.00044,-0.00072,-0.00024,0.00013,0,4,31
14026,7e-05,0.00016,0,-0.00044,-0.00072,-0.00024,0.00013,0,4,31
14027,7e-05,0.00016,0,-0.00044,-0.00072,-0.00024,0.00013,0,4,31
14028,7e-05,0.00016,0,-0.00044,-0.00072,-0.00024,0.00013,0,4,31
14029,7e-05,0.00016,0,-0.00044,-0.00072,-0.00024,0.00013,0,4,31
14030,-0.00011,-0.00015,-0.00011,-0.00039,-0.00061,0.0003,0.00027,0.00028,4,31
14031,-1e-05,1e-05,-0.00017,-0.00035,-6e-05,0.00021,-7e-05,-0.00037,4,31
14032,-1e-05,1e-05,-0.00017,-0.00035,-6e-05,0.00021,-7e-05,-0.00037,4,31
14033,-1e-05,1e-05,-0.00017,-0.00035,-6e-05,0.00021,-7e-05,-0.00037,4,31
14034,-1e-05,1e-05,-0.00017,-0.00035,-6e-05,0.00021,-7e-05,-0.00037,4,31
14035,-1e-05,1e-05,-0.00017,-0.00035,-6e-05,0.00021,-7e-05,-0.00037,4,31
14036,-1e-05,1e-05,-0.00017,-0.00035,-6e-05,0.00021,-7e-05,-0.00037,4,31
14038,-1e-05,1e-05,-0.00017,-0.00035,-6e-05,0.00021,-7e-05,-0.00037,4,31
14039,-1e-05,1e-05,-0.00017,-0.00035,-6e-05,0.00021,-7e-05,-0.00037,4,31
14040,-1e-05,1e-05,-0.00017,-0.00035,-6e-05,0.00021,-7e-05,-0.00037,4,31
14041,-1e-05,1e-05,-0.00017,-0.00035,-6e-05,0.00021,-7e-05,-0.00037,4,31
14042,-1e-05,1e-05,-0.00017,-0.00035,-6e-05,0.00021,-7e-05,-0.00037,4,31
14043,-1e-05,1e-05,-0.00017,-0.00035,-6e-05,0.00021,-7e-05,-0.00037,4,31
14044,-1e-05,1e-05,-0.00017,-0.00035,-6e-05,0.00021,-7e-05,-0.00037,4,31
14045,-1e-05,1e-05,-0.00017,-0.00035,-6e-05,0.00021,-7e-05,-0.00037,4,31
14046,-1e-05,1e-05,-0.00017,-0.00035,-6e-05,0.00021,-7e-05,-0.00037,4,31
14047,-1e-05,1e-05,-0.00017,-0.00035,-6e-05,0.00021,-7e-05,-0.00037,4,31
14048,-1e-05,1e-05,-0.00017,-0.00035,-6e-05,0.00021,-7e-05,-0.00037,4,31
14049,-1e-05,1e-05,-0.00017,-0.00035,-6e-05,0.00021,-7e-05,-0.00037,4,31
14050,-1e-05,1e-05,-0.00017,-0.00035,-6e-05,0.00021,-7e-05,-0.00037,4,31
14051,-1e-05,1e-05,-0.00017,-0.00035,-6e-05,0.00021,-7e-05,-0.00037,4,31
14052,-1e-05,1e-05,-0.00017,-0.00035,-6e-05,0.00021,-7e-05,-0.00037,4,31
14053,3e-05,4e-05,0.0001,2e-05,-0.00025,0.00014,-7e-05,1e-05,4,31
14054,-5e-05,-5e-05,-9e-05,-0.00017,-8e-05,-0.00031,-7e-05,-0.0001,4,31
14055,-5e-05,-5e-05,-9e-05,-0.00017,-8e-05,-0.00031,-7e-05,-0.0001,4,31
14056,-5e-05,-5e-05,-9e-05,-0.00017,-8e-05,-0.00031,-7e-05,-0.0001,4,31
14057,-5e-05,-5e-05,-9e-05,-0.00017,-8e-05,-0.00031,-7e-05,-0.0001,4,31
14058,-5e-05,-5e-05,-9e-05,-0.00017,-8e-05,-0.00031,-7e-05,-0.0001,4,31
14059,-5e-05,-5e-05,-9e-05,-0.00017,-8e-05,-0.00031,-7e-05,-0.0001,4,31
14060,-5e-05,-5e-05,-9e-05,-0.00017,-8e-05,-0.00031,-7e-05,-0.0001,4,31
14061,-5e-05,-5e-05,-9e-05,-0.00017,-8e-05,-0.00031,-7e-05,-0.0001,4,31
14062,-5e-05,-5e-05,-9e-05,-0.00017,-8e-05,-0.00031,-7e-05,-0.0001,4,31
14063,-5e-05,-5e-05,-9e-05,-0.00017,-8e-05,-0.00031,-7e-05,-0.0001,4,31
14064,-5e-05,-5e-05,-9e-05,-0.00017,-8e-05,-0.00031,-7e-05,-0.0001,4,31
14065,-5e-05,-5e-05,-9e-05,-0.00017,-8e-05,-0.00031,-7e-05,-0.0001,4,31
14066,-5e-05,-5e-05,-9e-05,-0.00017,-8e-05,-0.00031,-7e-05,-0.0001,4,31
14067,-5e-05,-5e-05,-9e-05,-0.00017,-8e-05,-0.00031,-7e-05,-0.0001,4,31
14068,-5e-05,-5e-05,-9e-05,-0.00017,-8e-05,-0.00031,-7e-05,-0.0001,4,31
14069,-5e-05,-5e-05,-9e-05,-0.00017,-8e-05,-0.00031,-7e-05,-0.0001,4,31
14070,-5e-05,-5e-05,-9e-05,-0.00017,-8e-05,-0.00031,-7e-05,-0.0001,4,31
14071,-5e-05,-5e-05,-9e-05,-0.00017,-8e-05,-0.00031,-7e-05,-0.0001,4,31
14072,-5e-05,-5e-05,-9e-05,-0.00017,-8e-05,-0.00031,-7e-05,-0.0001,4,31
14073,-5e-05,-5e-05,-9e-05,-0.00017,-8e-05,-0.00031,-7e-05,-0.0001,4,31
14074,-5e-05,-5e-05,-9e-05,-0.00017,-8e-05,-0.00031,-7e-05,-0.0001,4,31
14075,7e-05,-1e-05,0.00023,-0.00014,-7e-05,-9e-05,5e-05,0.00018,4,31
14076,7e-05,-1e-05,0.00023,-0.00014,-7e-05,-9e-05,5e-05,0.00018,4,31
14077,7e-05,-1e-05,0.00023,-0.00014,-7e-05,-9e-05,5e-05,0.00018,4,31
14078,7e-05,-1e-05,0.00023,-0.00014,-7e-05,-9e-05,5e-05,0.00018,4,31
14079,7e-05,-1e-05,0.00023,-0.00014,-7e-05,-9e-05,5e-05,0.00018,4,31
14080,7e-05,-1e-05,0.00023,-0.00014,-7e-05,-9e-05,5e-05,0.00018,4,31
14081,7e-05,-1e-05,0.00023,-0.00014,-7e-05,-9e-05,5e-05,0.00018,4,31
14082,7e-05,-1e-05,0.00023,-0.00014,-7e-05,-9e-05,5e-05,0.00018,4,31
14083,7e-05,-1e-05,0.00023,-0.00014,-7e-05,-9e-05,5e-05,0.00018,4,31
14084,7e-05,-1e-05,0.00023,-0.00014,-7e-05,-9e-05,5e-05,0.00018,4,31
14085,7e-05,-1e-05,0.00023,-0.00014,-7e-05,-9e-05,5e-05,0.00018,4,31
14086,7e-05,-1e-05,0.00023,-0.00014,-7e-05,-9e-05,5e-05,0.00018,4,31
14088,7e-05,-1e-05,0.00023,-0.00014,-7e-05,-9e-05,5e-05,0.00018,4,31
14089,7e-05,-1e-05,0.00023,-0.00014,-7e-05,-9e-05,5e-05,0.00018,4,31
14090,7e-05,-1e-05,0.00023,-0.00014,-7e-05,-9e-05,5e-05,0.00018,4,31
14091,7e-05,-1e-05,0.00023,-0.00014,-7e-05,-9e-05,5e-05,0.00018,4,31
14092,7e-05,-1e-05,0.00023,-0.00014,-7e-05,-9e-05,5e-05,0.00018,4,31
14093,7e-05,-1e-05,0.00023,-0.00014,-7e-05,-9e-05,5e-05,0.00018,4,31
14094,7e-05,-1e-05,0.00023,-0.00014,-7e-05,-9e-05,5e-05,0.00018,4,31
14095,7e-05,-1e-05,0.00023,-0.00014,-7e-05,-9e-05,5e-05,0.00018,4,31
14096,7e-05,-1e-05,0.00023,-0.00014,-7e-05,-9e-05,5e-05,0.00018,4,31
14097,7e-05,-1e-05,0.00023,-0.00014,-7e-05,-9e-05,5e-05,0.00018,4,31
14098,9e-05,1e-05,3e-05,0.00037,0.00041,5e-05,0,0.00053,4,31
14099,-7e-05,-0.00017,-0.00011,0.0003,0.00036,-0.00038,-0.00011,0.00013,4,31
14100,-7e-05,-0.00017,-0.00011,0.0003,0.00036,-0.00038,-0.00011,0.00013,4,31
14101,-7e-05,-0.00017,-0.00011,0.0003,0.00036,-0.00038,-0.00011,0.00013,4,31
14102,-7e-05,-0.00017,-0.00011,0.0003,0.00036,-0.00038,-0.00011,0.00013,4,31
14103,-7e-05,-0.00017,-0.00011,0.0003,0.00036,-0.00038,-0.00011,0.00013,4,31
14104,-1e-05,-5e-05,3e-05,-0.00038,-4e-05,0.00055,7e-05,-1e-05,4,31
14105,-1e-05,-5e-05,3e-05,-0.00038,-4e-05,0.00055,7e-05,-1e-05,4,31
14106,-1e-05,-5e-05,3e-05,-0.00038,-4e-05,0.00055,7e-05,-1e-05,4,31
14107,-1e-05,-5e-05,3e-05,-0.00038,-4e-05,0.00055,7e-05,-1e-05,4,31
14108,-1e-05,-5e-05,3e-05,-0.00038,-4e-05,0.00055,7e-05,-1e-05,4,31
14109,-1e-05,-5e-05,3e-05,-0.00038,-4e-05,0.00055,7e-05,-1e-05,4,31
14110,-1e-05,-5e-05,3e-05,-0.00038,-4e-05,0.00055,7e-05,-1e-05,4,31
14111,-1e-05,-5e-05,3e-05,-0.00038,-4e-05,0.00055,7e-05,-1e-05,4,31
14112,5e-05,1e-05,3e-05,0.00034,-3e-05,0.00059,9e-05,4e-05,4,31
14113,5e-05,1e-05,3e-05,0.00034,-3e-05,0.00059,9e-05,4e-05,4,31
14114,5e-05,1e-05,3e-05,0.00034,-3e-05,0.00059,9e-05,4e-05,4,31
14115,5e-05,1e-05,3e-05,0.00034,-3e-05,0.00059,9e-05,4e-05,4,31
14116,5e-05,1e-05,3e-05,0.00034,-3e-05,0.00059,9e-05,4e-05,4,31
14117,5e-05,1e-05,3e-05,0.00034,-3e-05,0.00059,9e-05,4e-05,4,31
14118,5e-05,1e-05,3e-05,0.00034,-3e-05,0.00059,9e-05,4e-05,4,31
14119,5e-05,1e-05,3e-05,0.00034,-3e-05,0.00059,9e-05,4e-05,4,31
14120,5e-05,1e-05,3e-05,0.00034,-3e-05,0.00059,9e-05,4e-05,4,31
14121,5e-05,1e-05,3e-05,0.00034,-3e-05,0.00059,9e-05,4e-05,4,31
14122,5e-05,1e-05,3e-05,0.00034,-3e-05,0.00059,9e-05,4e-05,4,31
14123,5e-05,1e-05,3e-05,0.00034,-3e-05,0.00059,9e-05,4e-05,4,31
14124,5e-05,1e-05,3e-05,0.00034,-3e-05,0.00059,9e-05,4e-05,4,31
14125,5e-05,1e-05,3e-05,0.00034,-3e-05,0.00059,9e-05,4e-05,4,31
14126,5e-05,1e-05,3e-05,0.00034,-3e-05,0.00059,9e-05,4e-05,4,31
14127,5e-05,1e-05,3e-05,0.00034,-3e-05,0.00059,9e-05,4e-05,4,31
14128,-2e-05,-1e-05,-4e-05,0.00039,-0.00017,-0.0003,-0.00014,-9e-05,4,31
14129,8e-05,-0.0002,-4e-05,0.00052,0.0005,0.00049,3e-05,0.00033,4,31
14130,8e-05,-0.0002,-4e-05,0.00052,0.0005,0.00049,3e-05,0.00033,4,31
14131,8e-05,-0.0002,-4e-05,0.00052,0.0005,0.00049,3e-05,0.00033,4,31
14132,8e-05,-0.0002,-4e-05,0.00052,0.0005,0.00049,3e-05,0.00033,4,31
14133,8e-05,-0.0002,-4e-05,0.00052,0.0005,0.00049,3e-05,0.00033,4,31
14134,8e-05,-0.0002,-4e-05,0.00052,0.0005,0.00049,3e-05,0.00033,4,31
14135,8e-05,-0.0002,-4e-05,0.00052,0.0005,0.00049,3e-05,0.00033,4,31
14136,8e-05,-0.0002,-4e-05,0.00052,0.0005,0.00049,3e-05,0.00033,4,31
14138,8e-05,-0.0002,-4e-05,0.00052,0.0005,0.00049,3e-05,0.00033,4,31
14139,8e-05,-0.0002,-4e-05,0.00052,0.0005,0.00049,3e-05,0.00033,4,31
14140,8e-05,-0.0002,-4e-05,0.00052,0.0005,0.00049,3e-05,0.00033,4,31
14141,8e-05,-0.0002,-4e-05,0.00052,0.0005,0.00049,3e-05,0.00033,4,31
14142,8e-05,-0.0002,-4e-05,0.00052,0.0005,0.00049,3e-05,0.00033,4,31
14143,8e-05,-0.0002,-4e-05,0.00052,0.0005,0.00049,3e-05,0.00033,4,31
14144,8e-05,-0.0002,-4e-05,0.00052,0.0005,0.00049,3e-05,0.00033,4,31
14145,8e-05,-0.0002,-4e-05,0.00052,0.0005,0.00049,3e-05,0.00033,4,31
14146,8e-05,-0.0002,-4e-05,0.00052,0.0005,0.00049,3e-05,0.00033,4,31
14147,8e-05,-0.0002,-4e-05,0.00052,0.0005,0.00049,3e-05,0.00033,4,31
14148,8e-05,-0.0002,-4e-05,0.00052,0.0005,0.00049,3e-05,0.00033,4,31
14149,8e-05,-0.0002,-4e-05,0.00052,0.0005,0.00049,3e-05,0.00033,4,31
14150,8e-05,-0.0002,-4e-05,0.00052,0.0005,0.00049,3e-05,0.00033,4,31
14151,8e-05,-0.0002,-4e-05,0.00052,0.0005,0.00049,3e-05,0.00033,4,31
14152,8e-05,-0.0002,-4e-05,0.00052,0.0005,0.00049,3e-05,0.00033,4,31
14153,8e-05,-0.0002,-4e-05,0.00052,0.0005,0.00049,3e-05,0.00033,4,31
14154,8e-05,-0.0002,-4e-05,0.00052,0.0005,0.00049,3e-05,0.00033,4,31
14155,8e-05,-0.0002,-4e-05,0.00052,0.0005,0.00049,3e-05,0.00033,4,31
14156,8e-05,-0.0002,-4e-05,0.00052,0.0005,0.00049,3e-05,0.00033,4,31
14157,8e-05,-0.0002,-4e-05,0.00052,0.0005,0.00049,3e-05,0.00033,4,31
14158,0,-4e-05,6e-05,0.00044,0.00047,0.00017,0,0.00012,4,31
14159,-7e-05,3e-05,0,7e-05,-0.00072,-0.00021,-0.00021,-0.00044,4,31
14160,-7e-05,3e-05,0,7e-05,-0.00072,-0.00021,-0.00021,-0.00044,4,31
14161,-7e-05,3e-05,0,7e-05,-0.00072,-0.00021,-0.00021,-0.00044,4,31
14162,-7e-05,3e-05,0,7e-05,-0.00072,-0.00021,-0.00021,-0.00044,4,31
14163,-7e-05,3e-05,0,7e-05,-0.00072,-0.00021,-0.00021,-0.00044,4,31
14164,3e-05,-2e-05,-2e-05,-0.00021,-2e-05,0.00024,-8e-05,-2e-05,4,31
14166,3e-05,-2e-05,-2e-05,-0.00021,-2e-05,0.00024,-8e-05,-2e-05,4,31
14167,3e-05,-2e-05,-2e-05,-0.00021,-2e-05,0.00024,-8e-05,-2e-05,4,31
14168,3e-05,-2e-05,-2e-05,-0.00021,-2e-05,0.00024,-8e-05,-2e-05,4,31
14169,3e-05,-2e-05,-2e-05,-0.00021,-2e-05,0.00024,-8e-05,-2e-05,4,31
14170,3e-05,-2e-05,-2e-05,-0.00021,-2e-05,0.00024,-8e-05,-2e-05,4,31
14171,3e-05,-2e-05,-2e-05,-0.00021,-2e-05,0.00024,-8e-05,-2e-05,4,31
14172,-0.00013,-9e-05,-0.00016,0.00043,-0.00045,-0.00061,-3e-05,8e-05,4,31
14173,-0.00013,-9e-05,-0.00016,0.00043,-0.00045,-0.00061,-3e-05,8e-05,4,31
14174,-0.00013,-9e-05,-0.00016,0.00043,-0.00045,-0.00061,-3e-05,8e-05,4,31
14175,-0.00013,-9e-05,-0.00016,0.00043,-0.00045,-0.00061,-3e-05,8e-05,4,31
14176,-0.00013,-9e-05,-0.00016,0.00043,-0.00045,-0.00061,-3e-05,8e-05,4,31
14177,-0.00013,-9e-05,-0.00016,0.00043,-0.00045,-0.00061,-3e-05,8e-05,4,31
14178,-0.00013,-9e-05,-0.00016,0.00043,-0.00045,-0.00061,-3e-05,8e-05,4,31
14179,-0.00013,-9e-05,-0.00016,0.00043,-0.00045,-0.00061,-3e-05,8e-05,4,31
14180,-0.00013,-9e-05,-0.00016,0.00043,-0.00045,-0.00061,-3e-05,8e-05,4,31
14181,-0.00013,-9e-05,-0.00016,0.00043,-0.00045,-0.00061,-3e-05,8e-05,4,31
14182,-0.00013,-9e-05,-0.00016,0.00043,-0.00045,-0.00061,-3e-05,8e-05,4,31
14183,-0.00013,-9e-05,-0.00016,0.00043,-0.00045,-0.00061,-3e-05,8e-05,4,31
14184,-0.00013,-9e-05,-0.00016,0.00043,-0.00045,-0.00061,-3e-05,8e-05,4,31
14185,-0.00013,-9e-05,-0.00016,0.00043,-0.00045,-0.00061,-3e-05,8e-05,4,31
14186,-0.00013,-9e-05,-0.00016,0.00043,-0.00045,-0.00061,-3e-05,8e-05,4,31
14189,0,0.0001,0.0001,7e-05,-0.0003,-2e-05,0.00011,0.00013,4,31
14190,0,0.0001,0.0001,7e-05,-0.0003,-2e-05,0.00011,0.00013,4,31
14191,0,0.0001,0.0001,7e-05,-0.0003,-2e-05,0.00011,0.00013,4,31
14192,0,0.0001,0.0001,7e-05,-0.0003,-2e-05,0.00011,0.00013,4,31
14193,0,0.0001,0.0001,7e-05,-0.0003,-2e-05,0.00011,0.00013,4,31
14194,0,0.0001,0.0001,7e-05,-0.0003,-2e-05,0.00011,0.00013,4,31
14195,0,0.0001,0.0001,7e-05,-0.0003,-2e-05,0.00011,0.00013,4,31
14197,0,0.0001,0.0001,7e-05,-0.0003,-2e-05,0.00011,0.00013,4,31
14198,0,0.0001,0.0001,7e-05,-0.0003,-2e-05,0.00011,0.00013,4,31
14199,0,0.0001,0.0001,7e-05,-0.0003,-2e-05,0.00011,0.00013,4,31
14200,0,0.0001,0.0001,7e-05,-0.0003,-2e-05,0.00011,0.00013,4,31
14201,0,0.0001,0.0001,7e-05,-0.0003,-2e-05,0.00011,0.00013,4,31
14202,0,0.0001,0.0001,7e-05,-0.0003,-2e-05,0.00011,0.00013,4,31
14203,0,0.0001,0.0001,7e-05,-0.0003,-2e-05,0.00011,0.00013,4,31
14204,0,0.0001,0.0001,7e-05,-0.0003,-2e-05,0.00011,0.00013,4,31
14205,0,0.0001,0.0001,7e-05,-0.0003,-2e-05,0.00011,0.00013,4,31
14206,0,0.0001,0.0001,7e-05,-0.0003,-2e-05,0.00011,0.00013,4,31
14207,0,0.0001,0.0001,7e-05,-0.0003,-2e-05,0.00011,0.00013,4,31
14208,0,0.0001,0.0001,7e-05,-0.0003,-2e-05,0.00011,0.00013,4,31
14209,0,0.0001,0.0001,7e-05,-0.0003,-2e-05,0.00011,0.00013,4,31
14210,0,0.0001,0.0001,7e-05,-0.0003,-2e-05,0.00011,0.00013,4,31
14211,1e-05,9e-05,0.00011,0.0009,0.00062,-1e-05,3e-05,-1e-05,4,31
14212,2e-05,0.00016,0.00024,0.00062,0.00127,0.00048,-8e-05,-7e-05,4,31
14213,2e-05,0.00016,0.00024,0.00062,0.00127,0.00048,-8e-05,-7e-05,4,31
14214,2e-05,0.00016,0.00024,0.00062,0.00127,0.00048,-8e-05,-7e-05,4,31
14215,2e-05,0.00016,0.00024,0.00062,0.00127,0.00048,-8e-05,-7e-05,4,31
14216,2e-05,0.00016,0.00024,0.00062,0.00127,0.00048,-8e-05,-7e-05,4,31
14217,2e-05,0.00016,0.00024,0.00062,0.00127,0.00048,-8e-05,-7e-05,4,31
14218,2e-05,0.00016,0.00024,0.00062,0.00127,0.00048,-8e-05,-7e-05,4,31
14219,2e-05,0.00016,0.00024,0.00062,0.00127,0.00048,-8e-05,-7e-05,4,31
14220,2e-05,0.00016,0.00024,0.00062,0.00127,0.00048,-8e-05,-7e-05,4,31
14221,2e-05,0.00016,0.00024,0.00062,0.00127,0.00048,-8e-05,-7e-05,4,31
14222,2e-05,0.00016,0.00024,0.00062,0.00127,0.00048,-8e-05,-7e-05,4,31
14223,2e-05,0.00016,0.00024,0.00062,0.00127,0.00048,-8e-05,-7e-05,4,31
14224,-5e-05,-9e-05,0,0.00059,0.00017,-0.00045,-0.00015,-0.00014,4,31
14225,-5e-05,-9e-05,0,0.00059,0.00017,-0.00045,-0.00015,-0.00014,4,31
14226,-5e-05,-9e-05,0,0.00059,0.00017,-0.00045,-0.00015,-0.00014,4,31
14227,-5e-05,-9e-05,0,0.00059,0.00017,-0.00045,-0.00015,-0.00014,4,31
14228,-5e-05,-9e-05,0,0.00059,0.00017,-0.00045,-0.00015,-0.00014,4,31
14229,-5e-05,-9e-05,0,0.00059,0.00017,-0.00045,-0.00015,-0.00014,4,31
14230,-5e-05,-9e-05,0,0.00059,0.00017,-0.00045,-0.00015,-0.00014,4,31
14231,-5e-05,-9e-05,0,0.00059,0.00017,-0.00045,-0.00015,-0.00014,4,31
14232,-5e-05,-2e-05,-0.00015,-0.00081,-1e-05,-5e-05,-8e-05,-6e-05,4,31
14233,-5e-05,-2e-05,-0.00015,-0.00081,-1e-05,-5e-05,-8e-05,-6e-05,4,31
14234,-5e-05,-2e-05,-0.00015,-0.00081,-1e-05,-5e-05,-8e-05,-6e-05,4,31
14235,-5e-05,-2e-05,-0.00015,-0.00081,-1e-05,-5e-05,-8e-05,-6e-05,4,31
14236,-5e-05,-2e-05,-0.00015,-0.00081,-1e-05,-5e-05,-8e-05,-6e-05,4,31
14238,-5e-05,-2e-05,-0.00015,-0.00081,-1e-05,-5e-05,-8e-05,-6e-05,4,31
14239,-5e-05,-2e-05,-0.00015,-0.00081,-1e-05,-5e-05,-8e-05,-6e-05,4,31
14240,-5e-05,-2e-05,-0.00015,-0.00081,-1e-05,-5e-05,-8e-05,-6e-05,4,31
14241,-5e-05,-2e-05,-0.00015,-0.00081,-1e-05,-5e-05,-8e-05,-6e-05,4,31
37050,0,6e-05,1e-05,-0.00041,-0.00125,-0.00013,-7e-05,-0.00013,4,31
37051,0,6e-05,1e-05,-0.00041,-0.00125,-0.00013,-7e-05,-0.00013,4,31
37052,0,6e-05,1e-05,-0.00041,-0.00125,-0.00013,-7e-05,-0.00013,4,31
37053,0,6e-05,1e-05,-0.00041,-0.00125,-0.00013,-7e-05,-0.00013,4,31
37054,0,6e-05,1e-05,-0.00041,-0.00125,-0.00013,-7e-05,-0.00013,4,31
37055,0,6e-05,1e-05,-0.00041,-0.00125,-0.00013,-7e-05,-0.00013,4,31
37056,0,6e-05,1e-05,-0.00041,-0.00125,-0.00013,-7e-05,-0.00013,4,31
37057,0,6e-05,1e-05,-0.00041,-0.00125,-0.00013,-7e-05,-0.00013,4,31
37058,0,6e-05,1e-05,-0.00041,-0.00125,-0.00013,-7e-05,-0.00013,4,31
37059,0,6e-05,1e-05,-0.00041,-0.00125,-0.00013,-7e-05,-0.00013,4,31
37060,0,6e-05,1e-05,-0.00041,-0.00125,-0.00013,-7e-05,-0.00013,4,31
37061,0,6e-05,1e-05,-0.00041,-0.00125,-0.00013,-7e-05,-0.00013,4,31
37062,0,6e-05,1e-05,-0.00041,-0.00125,-0.00013,-7e-05,-0.00013,4,31
37063,0,6e-05,1e-05,-0.00041,-0.00125,-0.00013,-7e-05,-0.00013,4,31
37064,0,6e-05,1e-05,-0.00041,-0.00125,-0.00013,-7e-05,-0.00013,4,31
37065,0,6e-05,1e-05,-0.00041,-0.00125,-0.00013,-7e-05,-0.00013,4,31
37066,0,6e-05,1e-05,-0.00041,-0.00125,-0.00013,-7e-05,-0.00013,4,31
37067,0,6e-05,1e-05,-0.00041,-0.00125,-0.00013,-7e-05,-0.00013,4,31
37068,0,6e-05,1e-05,-0.00041,-0.00125,-0.00013,-7e-05,-0.00013,4,31
37069,0,6e-05,1e-05,-0.00041,-0.00125,-0.00013,-7e-05,-0.00013,4,31
37070,-1e-05,-5e-05,-0.0001,0.00029,0.00037,3e-05,0,3e-05,4,31
37071,-1e-05,-5e-05,-0.0001,0.00029,0.00037,3e-05,0,3e-05,4,31
37072,-6e-05,1e-05,6e-05,0.00022,0.00034,-0.00021,-0.00017,-0.00046,4,31
37073,-6e-05,1e-05,6e-05,0.00022,0.00034,-0.00021,-0.00017,-0.00046,4,31
37074,-6e-05,1e-05,6e-05,0.00022,0.00034,-0.00021,-0.00017,-0.00046,4,31
37075,-6e-05,1e-05,6e-05,0.00022,0.00034,-0.00021,-0.00017,-0.00046,4,31
37076,-6e-05,1e-05,6e-05,0.00022,0.00034,-0.00021,-0.00017,-0.00046,4,31
37077,-6e-05,1e-05,6e-05,0.00022,0.00034,-0.00021,-0.00017,-0.00046,4,31
37078,-6e-05,1e-05,6e-05,0.00022,0.00034,-0.00021,-0.00017,-0.00046,4,31
37079,-6e-05,1e-05,6e-05,0.00022,0.00034,-0.00021,-0.00017,-0.00046,4,31
37080,-6e-05,1e-05,6e-05,0.00022,0.00034,-0.00021,-0.00017,-0.00046,4,31
37081,-6e-05,1e-05,6e-05,0.00022,0.00034,-0.00021,-0.00017,-0.00046,4,31
