17391,-6e-05,-7e-05,-5e-05,0.00064,-3e-05,-6e-05,-0.00011,-7e-05,4,32
17392,-6e-05,-7e-05,-5e-05,0.00064,-3e-05,-6e-05,-0.00011,-7e-05,4,32
17393,-6e-05,-7e-05,-5e-05,0.00064,-3e-05,-6e-05,-0.00011,-7e-05,4,32
17394,-6e-05,-7e-05,-5e-05,0.00064,-3e-05,-6e-05,-0.00011,-7e-05,4,32
17395,-6e-05,-7e-05,-5e-05,0.00064,-3e-05,-6e-05,-0.00011,-7e-05,4,32
17396,-6e-05,-7e-05,-5e-05,0.00064,-3e-05,-6e-05,-0.00011,-7e-05,4,32
17397,-6e-05,-7e-05,-5e-05,0.00064,-3e-05,-6e-05,-0.00011,-7e-05,4,32
17398,-6e-05,-7e-05,-5e-05,0.00064,-3e-05,-6e-05,-0.00011,-7e-05,4,32
17399,-6e-05,-7e-05,-5e-05,0.00064,-3e-05,-6e-05,-0.00011,-7e-05,4,32
17400,-2e-05,-5e-05,-0.00026,-0.00079,-9e-05,0.00041,-4e-05,0,4,32
17401,-2e-05,-5e-05,-0.00026,-0.00079,-9e-05,0.00041,-4e-05,0,4,32
17402,-5e-05,0,5e-05,-0.0002,0.00045,-0.00035,-0.00014,-4e-05,4,32
17403,-5e-05,0,5e-05,-0.0002,0.00045,-0.00035,-0.00014,-4e-05,4,32
17404,-5e-05,0,5e-05,-0.0002,0.00045,-0.00035,-0.00014,-4e-05,4,32
17405,-5e-05,0,5e-05,-0.0002,0.00045,-0.00035,-0.00014,-4e-05,4,32
17406,-5e-05,0,5e-05,-0.0002,0.00045,-0.00035,-0.00014,-4e-05,4,32
17407,-5e-05,0,5e-05,-0.0002,0.00045,-0.00035,-0.00014,-4e-05,4,32
17408,-5e-05,0,5e-05,-0.0002,0.00045,-0.00035,-0.00014,-4e-05,4,32
17409,-5e-05,0,5e-05,-0.0002,0.00045,-0.00035,-0.00014,-4e-05,4,32
17410,-5e-05,0,5e-05,-0.0002,0.00045,-0.00035,-0.00014,-4e-05,4,32
17411,-5e-05,0,5e-05,-0.0002,0.00045,-0.00035,-0.00014,-4e-05,4,32
17412,-5e-05,0,5e-05,-0.0002,0.00045,-0.00035,-0.00014,-4e-05,4,32
17413,-5e-05,0,5e-05,-0.0002,0.00045,-0.00035,-0.00014,-4e-05,4,32
17414,-5e-05,0,5e-05,-0.0002,0.00045,-0.00035,-0.00014,-4e-05,4,32
17415,-5e-05,0,5e-05,-0.0002,0.00045,-0.00035,-0.00014,-4e-05,4,32
17416,-5e-05,0,5e-05,-0.0002,0.00045,-0.00035,-0.00014,-4e-05,4,32
17417,-5e-05,0,5e-05,-0.0002,0.00045,-0.00035,-0.00014,-4e-05,4,32
17418,-5e-05,0,5e-05,-0.0002,0.00045,-0.00035,-0.00014,-4e-05,4,32
17419,-5e-05,0,5e-05,-0.0002,0.00045,-0.00035,-0.00014,-4e-05,4,32
17420,-5e-05,0,5e-05,-0.0002,0.00045,-0.00035,-0.00014,-4e-05,4,32
17421,-5e-05,0,5e-05,-0.0002,0.00045,-0.00035,-0.00014,-4e-05,4,32
17422,-5e-05,0,5e-05,-0.0002,0.00045,-0.00035,-0.00014,-4e-05,4,32
17423,-5e-05,0,5e-05,-0.0002,0.00045,-0.00035,-0.00014,-4e-05,4,32
17424,-5e-05,0,5e-05,-0.0002,0.00045,-0.00035,-0.00014,-4e-05,4,32
17425,-5e-05,0,5e-05,-0.0002,0.00045,-0.00035,-0.00014,-4e-05,4,32
17426,-5e-05,0,5e-05,-0.0002,0.00045,-0.00035,-0.00014,-4e-05,4,32
17427,-5e-05,0,5e-05,-0.0002,0.00045,-0.00035,-0.00014,-4e-05,4,32
17428,-5e-05,0,5e-05,-0.0002,0.00045,-0.00035,-0.00014,-4e-05,4,32
17429,-5e-05,0,5e-05,-0.0002,0.00045,-0.00035,-0.00014,-4e-05,4,32
17430,-7e-05,-6e-05,4e-05,0.00071,0.00037,0.00051,-7e-05,-2e-05,4,32
17431,-7e-05,-6e-05,4e-05,0.00071,0.00037,0.00051,-7e-05,-2e-05,4,32
17432,7e-05,1e-05,-0.00034,-0.00124,-0.00115,-0.0001,2e-05,4e-05,4,32
17433,7e-05,1e-05,-0.00034,-0.00124,-0.00115,-0.0001,2e-05,4e-05,4,32
17434,7e-05,1e-05,-0.00034,-0.00124,-0.00115,-0.0001,2e-05,4e-05,4,32
17435,7e-05,1e-05,-0.00034,-0.00124,-0.00115,-0.0001,2e-05,4e-05,4,32
17437,7e-05,1e-05,-0.00034,-0.00124,-0.00115,-0.0001,2e-05,4e-05,4,32
17440,-0.00013,-0.00012,-0.00012,-0.00031,-0.0005,0.0001,-6e-05,-4e-05,4,32
17441,-0.00013,-0.00012,-0.00012,-0.00031,-0.0005,0.0001,-6e-05,-4e-05,4,32
17442,-0.00013,-0.00012,-0.00012,-0.00031,-0.0005,0.0001,-6e-05,-4e-05,4,32
17443,-0.00013,-0.00012,-0.00012,-0.00031,-0.0005,0.0001,-6e-05,-4e-05,4,32
17444,-0.00013,-0.00012,-0.00012,-0.00031,-0.0005,0.0001,-6e-05,-4e-05,4,32
17445,-0.00013,-0.00012,-0.00012,-0.00031,-0.0005,0.0001,-6e-05,-4e-05,4,32
17446,-0.00013,-0.00012,-0.00012,-0.00031,-0.0005,0.0001,-6e-05,-4e-05,4,32
17447,-0.00013,-0.00012,-0.00012,-0.00031,-0.0005,0.0001,-6e-05,-4e-05,4,32
17448,-0.00013,-0.00012,-0.00012,-0.00031,-0.0005,0.0001,-6e-05,-4e-05,4,32
17449,-0.00013,-0.00012,-0.00012,-0.00031,-0.0005,0.0001,-6e-05,-4e-05,4,32
17450,-0.00013,-0.00012,-0.00012,-0.00031,-0.0005,0.0001,-6e-05,-4e-05,4,32
17451,-0.00013,-0.00012,-0.00012,-0.00031,-0.0005,0.0001,-6e-05,-4e-05,4,32
17452,-0.00013,-0.00012,-0.00012,-0.00031,-0.0005,0.0001,-6e-05,-4e-05,4,32
17453,-0.00013,-0.00012,-0.00012,-0.00031,-0.0005,0.0001,-6e-05,-4e-05,4,32
17454,-0.00013,-0.00012,-0.00012,-0.00031,-0.0005,0.0001,-6e-05,-4e-05,4,32
17455,-0.00013,-0.00012,-0.00012,-0.00031,-0.0005,0.0001,-6e-05,-4e-05,4,32
17456,-0.00013,-0.00012,-0.00012,-0.00031,-0.0005,0.0001,-6e-05,-4e-05,4,32
17457,-0.00013,-0.00012,-0.00012,-0.00031,-0.0005,0.0001,-6e-05,-4e-05,4,32
17458,-0.00013,-0.00012,-0.00012,-0.00031,-0.0005,0.0001,-6e-05,-4e-05,4,32
17459,-0.00013,-0.00012,-0.00012,-0.00031,-0.0005,0.0001,-6e-05,-4e-05,4,32
17460,-0.00013,-0.00012,-0.00012,-0.00031,-0.0005,0.0001,-6e-05,-4e-05,4,32
17461,-0.00013,-0.00012,-0.00023,-0.00042,-0.00128,-0.00059,-0.00017,-0.00011,4,32
17462,-0.00013,-0.00012,-0.00023,-0.00042,-0.00128,-0.00059,-0.00017,-0.00011,4,32
17463,-7e-05,-3e-05,1e-05,0.00026,-0.00069,-0.00023,-0.00022,-9e-05,4,32
17464,-7e-05,-3e-05,1e-05,0.00026,-0.00069,-0.00023,-0.00022,-9e-05,4,32
17465,-7e-05,-3e-05,1e-05,0.00026,-0.00069,-0.00023,-0.00022,-9e-05,4,32
17466,-7e-05,-3e-05,1e-05,0.00026,-0.00069,-0.00023,-0.00022,-9e-05,4,32
17467,-7e-05,-3e-05,1e-05,0.00026,-0.00069,-0.00023,-0.00022,-9e-05,4,32
17468,-7e-05,-3e-05,1e-05,0.00026,-0.00069,-0.00023,-0.00022,-9e-05,4,32
17469,-7e-05,-3e-05,1e-05,0.00026,-0.00069,-0.00023,-0.00022,-9e-05,4,32
17470,-7e-05,-3e-05,1e-05,0.00026,-0.00069,-0.00023,-0.00022,-9e-05,4,32
17471,-7e-05,-3e-05,1e-05,0.00026,-0.00069,-0.00023,-0.00022,-9e-05,4,32
17472,-7e-05,-3e-05,1e-05,0.00026,-0.00069,-0.00023,-0.00022,-9e-05,4,32
17473,-7e-05,-3e-05,1e-05,0.00026,-0.00069,-0.00023,-0.00022,-9e-05,4,32
17474,0,-3e-05,-6e-05,0,0.0006,0.00038,7e-05,0,4,32
17475,0,-3e-05,-6e-05,0,0.0006,0.00038,7e-05,0,4,32
17476,0,-3e-05,-6e-05,0,0.0006,0.00038,7e-05,0,4,32
17477,0,-3e-05,-6e-05,0,0.0006,0.00038,7e-05,0,4,32
17478,0,-3e-05,-6e-05,0,0.0006,0.00038,7e-05,0,4,32
17479,0,-3e-05,-6e-05,0,0.0006,0.00038,7e-05,0,4,32
17480,0,-3e-05,-6e-05,0,0.0006,0.00038,7e-05,0,4,32
17481,0,-3e-05,-6e-05,0,0.0006,0.00038,7e-05,0,4,32
17482,0,-3e-05,-6e-05,0,0.0006,0.00038,7e-05,0,4,32
17483,-5e-05,-8e-05,3e-05,-0.0003,0.00036,0.00061,0.00012,4e-05,4,32
17484,-5e-05,-8e-05,3e-05,-0.0003,0.00036,0.00061,0.00012,4e-05,4,32
17485,-5e-05,-8e-05,3e-05,-0.0003,0.00036,0.00061,0.00012,4e-05,4,32
17487,-5e-05,-8e-05,3e-05,-0.0003,0.00036,0.00061,0.00012,4e-05,4,32
17489,-5e-05,-8e-05,3e-05,-0.0003,0.00036,0.00061,0.00012,4e-05,4,32
17490,-5e-05,-8e-05,3e-05,-0.0003,0.00036,0.00061,0.00012,4e-05,4,32
17491,-5e-05,-8e-05,3e-05,-0.0003,0.00036,0.00061,0.00012,4e-05,4,32
17492,-5e-05,-8e-05,3e-05,-0.0003,0.00036,0.00061,0.00012,4e-05,4,32
17493,-5e-05,-8e-05,3e-05,-0.0003,0.00036,0.00061,0.00012,4e-05,4,32
17494,-5e-05,-8e-05,3e-05,-0.0003,0.00036,0.00061,0.00012,4e-05,4,32
17495,-5e-05,-8e-05,3e-05,-0.0003,0.00036,0.00061,0.00012,4e-05,4,32
17496,-5e-05,-8e-05,3e-05,-0.0003,0.00036,0.00061,0.00012,4e-05,4,32
17497,-5e-05,-8e-05,3e-05,-0.0003,0.00036,0.00061,0.00012,4e-05,4,32
17498,3e-05,6e-05,-3e-05,-6e-05,-0.00012,-0.00031,-6e-05,-1e-05,4,32
17499,3e-05,6e-05,-3e-05,-6e-05,-0.00012,-0.00031,-6e-05,-1e-05,4,32
17500,3e-05,6e-05,-3e-05,-6e-05,-0.00012,-0.00031,-6e-05,-1e-05,4,32
17501,3e-05,6e-05,-3e-05,-6e-05,-0.00012,-0.00031,-6e-05,-1e-05,4,32
17502,3e-05,6e-05,-3e-05,-6e-05,-0.00012,-0.00031,-6e-05,-1e-05,4,32
17503,3e-05,6e-05,-3e-05,-6e-05,-0.00012,-0.00031,-6e-05,-1e-05,4,32
17504,-5e-05,-0.00013,-5e-05,0.00017,0.00072,-0.0001,-6e-05,-3e-05,4,32
17505,-5e-05,-0.00013,-5e-05,0.00017,0.00072,-0.0001,-6e-05,-3e-05,4,32
17506,-5e-05,-0.00013,-5e-05,0.00017,0.00072,-0.0001,-6e-05,-3e-05,4,32
17507,-5e-05,-0.00013,-5e-05,0.00017,0.00072,-0.0001,-6e-05,-3e-05,4,32
17508,-5e-05,-0.00013,-5e-05,0.00017,0.00072,-0.0001,-6e-05,-3e-05,4,32
17509,-5e-05,-0.00013,-5e-05,0.00017,0.00072,-0.0001,-6e-05,-3e-05,4,32
17510,-5e-05,-0.00013,-5e-05,0.00017,0.00072,-0.0001,-6e-05,-3e-05,4,32
17511,-5e-05,-0.00013,-5e-05,0.00017,0.00072,-0.0001,-6e-05,-3e-05,4,32
17512,-5e-05,-0.00013,-5e-05,0.00017,0.00072,-0.0001,-6e-05,-3e-05,4,32
17513,-5e-05,-0.00013,-5e-05,0.00017,0.00072,-0.0001,-6e-05,-3e-05,4,32
17514,-5e-05,-0.00013,-5e-05,0.00017,0.00072,-0.0001,-6e-05,-3e-05,4,32
17515,-5e-05,-0.00013,-5e-05,0.00017,0.00072,-0.0001,-6e-05,-3e-05,4,32
17516,-5e-05,-0.00013,-5e-05,0.00017,0.00072,-0.0001,-6e-05,-3e-05,4,32
17517,-5e-05,-0.00013,-5e-05,0.00017,0.00072,-0.0001,-6e-05,-3e-05,4,32
17518,-5e-05,-0.00013,-5e-05,0.00017,0.00072,-0.0001,-6e-05,-3e-05,4,32
17519,-5e-05,-0.00013,-5e-05,0.00017,0.00072,-0.0001,-6e-05,-3e-05,4,32
17520,-5e-05,-0.00013,-5e-05,0.00017,0.00072,-0.0001,-6e-05,-3e-05,4,32
17521,0.00018,0.00021,0.00046,0.00036,0.00053,0.00081,0.0004,0.00016,4,32
17522,1e-05,-1e-05,-0.00017,-0.00033,-0.00094,-0.00056,-1e-05,-2e-05,4,32
17523,1e-05,-1e-05,-0.00017,-0.00033,-0.00094,-0.00056,-1e-05,-2e-05,4,32
17524,1e-05,-1e-05,-0.00017,-0.00033,-0.00094,-0.00056,-1e-05,-2e-05,4,32
17525,1e-05,-1e-05,-0.00017,-0.00033,-0.00094,-0.00056,-1e-05,-2e-05,4,32
17526,1e-05,-1e-05,-0.00017,-0.00033,-0.00094,-0.00056,-1e-05,-2e-05,4,32
17527,1e-05,-1e-05,-0.00017,-0.00033,-0.00094,-0.00056,-1e-05,-2e-05,4,32
17528,1e-05,-1e-05,-0.00017,-0.00033,-0.00094,-0.00056,-1e-05,-2e-05,4,32
17529,1e-05,-1e-05,-0.00017,-0.00033,-0.00094,-0.00056,-1e-05,-2e-05,4,32
17530,1e-05,-1e-05,-0.00017,-0.00033,-0.00094,-0.00056,-1e-05,-2e-05,4,32
17531,1e-05,-1e-05,-0.00017,-0.00033,-0.00094,-0.00056,-1e-05,-2e-05,4,32
17532,1e-05,-1e-05,-0.00017,-0.00033,-0.00094,-0.00056,-1e-05,-2e-05,4,32
17533,1e-05,-1e-05,-0.00017,-0.00033,-0.00094,-0.00056,-1e-05,-2e-05,4,32
17534,1e-05,-1e-05,-0.00017,-0.00033,-0.00094,-0.00056,-1e-05,-2e-05,4,32
17535,1e-05,-1e-05,-0.00017,-0.00033,-0.00094,-0.00056,-1e-05,-2e-05,4,32
17536,1e-05,-1e-05,-0.00017,-0.00033,-0.00094,-0.00056,-1e-05,-2e-05,4,32
17539,1e-05,-1e-05,-0.00017,-0.00033,-0.00094,-0.00056,-1e-05,-2e-05,4,32
17540,1e-05,-1e-05,-0.00017,-0.00033,-0.00094,-0.00056,-1e-05,-2e-05,4,32
17541,1e-05,-1e-05,-0.00017,-0.00033,-0.00094,-0.00056,-1e-05,-2e-05,4,32
17542,1e-05,-1e-05,-0.00017,-0.00033,-0.00094,-0.00056,-1e-05,-2e-05,4,32
17543,2e-05,-1e-05,-8e-05,0.00017,0.0001,0.00041,0.00012,5e-05,4,32
17544,-4e-05,-2e-05,4e-05,5e-05,-0.00057,0.00026,-7e-05,-6e-05,4,32
17545,5e-05,0.00015,0.00045,0.00111,0.00127,0.00052,0.00014,4e-05,4,32
17546,5e-05,0.00015,0.00045,0.00111,0.00127,0.00052,0.00014,4e-05,4,32
17547,5e-05,0.00015,0.00045,0.00111,0.00127,0.00052,0.00014,4e-05,4,32
17548,5e-05,0.00015,0.00045,0.00111,0.00127,0.00052,0.00014,4e-05,4,32
17549,5e-05,0.00015,0.00045,0.00111,0.00127,0.00052,0.00014,4e-05,4,32
17550,5e-05,0.00015,0.00045,0.00111,0.00127,0.00052,0.00014,4e-05,4,32
17551,5e-05,0.00015,0.00045,0.00111,0.00127,0.00052,0.00014,4e-05,4,32
17552,5e-05,0.00015,0.00045,0.00111,0.00127,0.00052,0.00014,4e-05,4,32
17553,5e-05,0.00015,0.00045,0.00111,0.00127,0.00052,0.00014,4e-05,4,32
17554,5e-05,0.00015,0.00045,0.00111,0.00127,0.00052,0.00014,4e-05,4,32
17555,5e-05,0.00015,0.00045,0.00111,0.00127,0.00052,0.00014,4e-05,4,32
17556,5e-05,0.00015,0.00045,0.00111,0.00127,0.00052,0.00014,4e-05,4,32
17557,5e-05,0.00015,0.00045,0.00111,0.00127,0.00052,0.00014,4e-05,4,32
17558,-0.00015,-0.00019,-0.00037,-0.00059,-0.00036,-0.00067,-0.00025,-0.00012,4,32
17559,3e-05,0,-0.00014,-0.00015,-0.00086,-0.0005,-0.0001,-6e-05,4,32
17560,3e-05,0,-0.00014,-0.00015,-0.00086,-0.0005,-0.0001,-6e-05,4,32
17561,3e-05,0,-0.00014,-0.00015,-0.00086,-0.0005,-0.0001,-6e-05,4,32
17562,3e-05,0,-0.00014,-0.00015,-0.00086,-0.0005,-0.0001,-6e-05,4,32
17563,3e-05,0,-0.00014,-0.00015,-0.00086,-0.0005,-0.0001,-6e-05,4,32
17564,3e-05,0,-0.00014,-0.00015,-0.00086,-0.0005,-0.0001,-6e-05,4,32
17565,3e-05,0,-0.00014,-0.00015,-0.00086,-0.0005,-0.0001,-6e-05,4,32
17566,3e-05,0,-0.00014,-0.00015,-0.00086,-0.0005,-0.0001,-6e-05,4,32
17567,3e-05,0,-0.00014,-0.00015,-0.00086,-0.0005,-0.0001,-6e-05,4,32
17568,3e-05,0,-0.00014,-0.00015,-0.00086,-0.0005,-0.0001,-6e-05,4,32
17569,3e-05,0,-0.00014,-0.00015,-0.00086,-0.0005,-0.0001,-6e-05,4,32
17570,3e-05,0,-0.00014,-0.00015,-0.00086,-0.0005,-0.0001,-6e-05,4,32
17571,3e-05,0,-0.00014,-0.00015,-0.00086,-0.0005,-0.0001,-6e-05,4,32
17572,3e-05,0,-0.00014,-0.00015,-0.00086,-0.0005,-0.0001,-6e-05,4,32
17573,3e-05,0,-0.00014,-0.00015,-0.00086,-0.0005,-0.0001,-6e-05,4,32
17574,3e-05,0,-0.00014,-0.00015,-0.00086,-0.0005,-0.0001,-6e-05,4,32
17575,3e-05,0,-0.00014,-0.00015,-0.00086,-0.0005,-0.0001,-6e-05,4,32
17576,3e-05,0,-0.00014,-0.00015,-0.00086,-0.0005,-0.0001,-6e-05,4,32
17577,3e-05,0,-0.00014,-0.00015,-0.00086,-0.0005,-0.0001,-6e-05,4,32
17578,3e-05,0,-0.00014,-0.00015,-0.00086,-0.0005,-0.0001,-6e-05,4,32
17579,3e-05,0,-0.00014,-0.00015,-0.00086,-0.0005,-0.0001,-6e-05,4,32
17580,3e-05,0,-0.00014,-0.00015,-0.00086,-0.0005,-0.0001,-6e-05,4,32
17581,-8e-05,-7e-05,-7e-05,-0.00015,-0.00055,-0.00054,-0.00011,-5e-05,4,32
17582,-6e-05,-0.00014,-0.00017,-0.00024,-0.00128,-0.00067,-0.00014,-0.0001,4,32
17583,-6e-05,-0.00014,-0.00017,-0.00024,-0.00128,-0.00067,-0.00014,-0.0001,4,32
17584,-6e-05,-0.00014,-0.00017,-0.00024,-0.00128,-0.00067,-0.00014,-0.0001,4,32
17585,-6e-05,-0.00014,-0.00017,-0.00024,-0.00128,-0.00067,-0.00014,-0.0001,4,32
17586,-6e-05,-0.00014,-0.00017,-0.00024,-0.00128,-0.00067,-0.00014,-0.0001,4,32
17589,-6e-05,-0.00014,-0.00017,-0.00024,-0.00128,-0.00067,-0.00014,-0.0001,4,32
17590,-6e-05,-0.00014,-0.00017,-0.00024,-0.00128,-0.00067,-0.00014,-0.0001,4,32
17591,-6e-05,-0.00014,-0.00017,-0.00024,-0.00128,-0.00067,-0.00014,-0.0001,4,32
17592,-6e-05,-0.00014,-0.00017,-0.00024,-0.00128,-0.00067,-0.00014,-0.0001,4,32
17593,-6e-05,-0.00014,-0.00017,-0.00024,-0.00128,-0.00067,-0.00014,-0.0001,4,32
17594,-2e-05,-0.0001,-0.00014,-0.0004,-0.00039,-0.00025,-9e-05,-3e-05,4,32
17595,-2e-05,-0.0001,-0.00014,-0.0004,-0.00039,-0.00025,-9e-05,-3e-05,4,32
17596,-2e-05,-0.0001,-0.00014,-0.0004,-0.00039,-0.00025,-9e-05,-3e-05,4,32
17597,-2e-05,-0.0001,-0.00014,-0.0004,-0.00039,-0.00025,-9e-05,-3e-05,4,32
17598,-2e-05,-0.0001,-0.00014,-0.0004,-0.00039,-0.00025,-9e-05,-3e-05,4,32
17599,-2e-05,-0.0001,-0.00014,-0.0004,-0.00039,-0.00025,-9e-05,-3e-05,4,32
17600,-2e-05,-0.0001,-0.00014,-0.0004,-0.00039,-0.00025,-9e-05,-3e-05,4,32
17601,-2e-05,-0.0001,-0.00014,-0.0004,-0.00039,-0.00025,-9e-05,-3e-05,4,32
17602,-2e-05,-0.0001,-0.00014,-0.0004,-0.00039,-0.00025,-9e-05,-3e-05,4,32
17603,-0.00016,-0.00016,-0.00035,-9e-05,-0.00042,-0.00054,-0.00022,-0.00012,4,32
17604,6e-05,7e-05,0.00022,-0.00026,-0.00029,-0.0002,5e-05,7e-05,4,32
17605,6e-05,7e-05,0.00022,-0.00026,-0.00029,-0.0002,5e-05,7e-05,4,32
17606,6e-05,7e-05,0.00022,-0.00026,-0.00029,-0.0002,5e-05,7e-05,4,32
17607,6e-05,7e-05,0.00022,-0.00026,-0.00029,-0.0002,5e-05,7e-05,4,32
17608,6e-05,7e-05,0.00022,-0.00026,-0.00029,-0.0002,5e-05,7e-05,4,32
17609,6e-05,7e-05,0.00022,-0.00026,-0.00029,-0.0002,5e-05,7e-05,4,32
17610,6e-05,7e-05,0.00022,-0.00026,-0.00029,-0.0002,5e-05,7e-05,4,32
17611,6e-05,7e-05,0.00022,-0.00026,-0.00029,-0.0002,5e-05,7e-05,4,32
17612,6e-05,7e-05,0.00022,-0.00026,-0.00029,-0.0002,5e-05,7e-05,4,32
17613,6e-05,7e-05,0.00022,-0.00026,-0.00029,-0.0002,5e-05,7e-05,4,32
17614,6e-05,7e-05,0.00022,-0.00026,-0.00029,-0.0002,5e-05,7e-05,4,32
17615,6e-05,7e-05,0.00022,-0.00026,-0.00029,-0.0002,5e-05,7e-05,4,32
17616,6e-05,7e-05,0.00022,-0.00026,-0.00029,-0.0002,5e-05,7e-05,4,32
17617,6e-05,7e-05,0.00022,-0.00026,-0.00029,-0.0002,5e-05,7e-05,4,32
17618,6e-05,7e-05,0.00022,-0.00026,-0.00029,-0.0002,5e-05,7e-05,4,32
17619,-5e-05,-0.0001,-0.00012,0.00011,7e-05,-2e-05,-6e-05,-4e-05,4,32
17620,-5e-05,-0.0001,-0.00012,0.00011,7e-05,-2e-05,-6e-05,-4e-05,4,32
17621,-8e-05,-3e-05,0.00015,0.00026,-0.00025,0.00044,3e-05,-2e-05,4,32
17622,-8e-05,-3e-05,0.00015,0.00026,-0.00025,0.00044,3e-05,-2e-05,4,32
17623,-8e-05,-3e-05,0.00015,0.00026,-0.00025,0.00044,3e-05,-2e-05,4,32
17624,-8e-05,-3e-05,0.00015,0.00026,-0.00025,0.00044,3e-05,-2e-05,4,32
17625,-8e-05,-3e-05,0.00015,0.00026,-0.00025,0.00044,3e-05,-2e-05,4,32
17626,-8e-05,-3e-05,0.00015,0.00026,-0.00025,0.00044,3e-05,-2e-05,4,32
17627,-8e-05,-3e-05,0.00015,0.00026,-0.00025,0.00044,3e-05,-2e-05,4,32
17628,-8e-05,-3e-05,0.00015,0.00026,-0.00025,0.00044,3e-05,-2e-05,4,32
17629,-8e-05,-3e-05,0.00015,0.00026,-0.00025,0.00044,3e-05,-2e-05,4,32
17630,-8e-05,-3e-05,0.00015,0.00026,-0.00025,0.00044,3e-05,-2e-05,4,32
17631,-8e-05,-3e-05,0.00015,0.00026,-0.00025,0.00044,3e-05,-2e-05,4,32
17632,-8e-05,-3e-05,0.00015,0.00026,-0.00025,0.00044,3e-05,-2e-05,4,32
17633,-8e-05,-3e-05,0.00015,0.00026,-0.00025,0.00044,3e-05,-2e-05,4,32
17634,-8e-05,-3e-05,0.00015,0.00026,-0.00025,0.00044,3e-05,-2e-05,4,32
17635,-8e-05,-3e-05,0.00015,0.00026,-0.00025,0.00044,3e-05,-2e-05,4,32
17636,-8e-05,-3e-05,0.00015,0.00026,-0.00025,0.00044,3e-05,-2e-05,4,32
17639,-8e-05,-3e-05,0.00015,0.00026,-0.00025,0.00044,3e-05,-2e-05,4,32
17640,2e-05,-2e-05,0,0.00051,4e-05,-3e-05,1e-05,1e-05,4,32
17641,-6e-05,-6e-05,-0.00021,-0.0002,-0.00114,-0.00071,-0.00021,-0.0001,4,32
17642,3e-05,7e-05,0.00015,0.0005,-0.00062,-7e-05,-3e-05,-4e-05,4,32
17643,3e-05,7e-05,0.00015,0.0005,-0.00062,-7e-05,-3e-05,-4e-05,4,32
17644,3e-05,7e-05,0.00015,0.0005,-0.00062,-7e-05,-3e-05,-4e-05,4,32
17645,3e-05,7e-05,0.00015,0.0005,-0.00062,-7e-05,-3e-05,-4e-05,4,32
17646,3e-05,7e-05,0.00015,0.0005,-0.00062,-7e-05,-3e-05,-4e-05,4,32
17647,3e-05,7e-05,0.00015,0.0005,-0.00062,-7e-05,-3e-05,-4e-05,4,32
17648,3e-05,7e-05,0.00015,0.0005,-0.00062,-7e-05,-3e-05,-4e-05,4,32
17649,3e-05,7e-05,0.00015,0.0005,-0.00062,-7e-05,-3e-05,-4e-05,4,32
17650,3e-05,7e-05,0.00015,0.0005,-0.00062,-7e-05,-3e-05,-4e-05,4,32
17651,3e-05,7e-05,0.00015,0.0005,-0.00062,-7e-05,-3e-05,-4e-05,4,32
17652,3e-05,7e-05,0.00015,0.0005,-0.00062,-7e-05,-3e-05,-4e-05,4,32
17653,3e-05,7e-05,0.00015,0.0005,-0.00062,-7e-05,-3e-05,-4e-05,4,32
17654,2e-05,5e-05,0.00012,0.0005,8e-05,0.00031,0.00021,9e-05,4,32
17655,2e-05,5e-05,0.00012,0.0005,8e-05,0.00031,0.00021,9e-05,4,32
17656,2e-05,5e-05,0.00012,0.0005,8e-05,0.00031,0.00021,9e-05,4,32
17657,2e-05,5e-05,0.00012,0.0005,8e-05,0.00031,0.00021,9e-05,4,32
17658,2e-05,5e-05,0.00012,0.0005,8e-05,0.00031,0.00021,9e-05,4,32
17659,2e-05,5e-05,0.00012,0.0005,8e-05,0.00031,0.00021,9e-05,4,32
17660,2e-05,5e-05,0.00012,0.0005,8e-05,0.00031,0.00021,9e-05,4,32
17661,2e-05,5e-05,0.00012,0.0005,8e-05,0.00031,0.00021,9e-05,4,32
17662,2e-05,5e-05,0.00012,0.0005,8e-05,0.00031,0.00021,9e-05,4,32
17663,-2e-05,-2e-05,-0.00022,-0.00055,-0.00034,-5e-05,-0.00012,-3e-05,4,32
17664,-2e-05,-2e-05,-0.00022,-0.00055,-0.00034,-5e-05,-0.00012,-3e-05,4,32
17665,-2e-05,-2e-05,-0.00022,-0.00055,-0.00034,-5e-05,-0.00012,-3e-05,4,32
17666,-2e-05,-2e-05,-0.00022,-0.00055,-0.00034,-5e-05,-0.00012,-3e-05,4,32
17667,-2e-05,-2e-05,-0.00022,-0.00055,-0.00034,-5e-05,-0.00012,-3e-05,4,32
17668,-2e-05,-2e-05,-0.00022,-0.00055,-0.00034,-5e-05,-0.00012,-3e-05,4,32
17669,-2e-05,-2e-05,-0.00022,-0.00055,-0.00034,-5e-05,-0.00012,-3e-05,4,32
17670,-2e-05,-2e-05,-0.00022,-0.00055,-0.00034,-5e-05,-0.00012,-3e-05,4,32
17671,-2e-05,-2e-05,-0.00022,-0.00055,-0.00034,-5e-05,-0.00012,-3e-05,4,32
17672,-2e-05,-2e-05,-0.00022,-0.00055,-0.00034,-5e-05,-0.00012,-3e-05,4,32
17673,-2e-05,-2e-05,-0.00022,-0.00055,-0.00034,-5e-05,-0.00012,-3e-05,4,32
17674,-2e-05,-2e-05,-0.00022,-0.00055,-0.00034,-5e-05,-0.00012,-3e-05,4,32
17675,-2e-05,-2e-05,-0.00022,-0.00055,-0.00034,-5e-05,-0.00012,-3e-05,4,32
17676,-2e-05,-2e-05,-0.00022,-0.00055,-0.00034,-5e-05,-0.00012,-3e-05,4,32
17677,-2e-05,-2e-05,-0.00022,-0.00055,-0.00034,-5e-05,-0.00012,-3e-05,4,32
17678,-8e-05,-9e-05,4e-05,9e-05,4e-05,-0.00062,-0.0002,-5e-05,4,32
17679,0.00015,2e-05,-0.00024,-0.0005,-0.00049,0.00084,0.00036,0.00015,4,32
17680,1e-05,4e-05,0.0001,1e-05,-0.00061,4e-05,-7e-05,-4e-05,4,32
17681,1e-05,4e-05,0.0001,1e-05,-0.00061,4e-05,-7e-05,-4e-05,4,32
17682,1e-05,4e-05,0.0001,1e-05,-0.00061,4e-05,-7e-05,-4e-05,4,32
17683,1e-05,4e-05,0.0001,1e-05,-0.00061,4e-05,-7e-05,-4e-05,4,32
17684,1e-05,4e-05,0.0001,1e-05,-0.00061,4e-05,-7e-05,-4e-05,4,32
17685,1e-05,4e-05,0.0001,1e-05,-0.00061,4e-05,-7e-05,-4e-05,4,32
17686,1e-05,4e-05,0.0001,1e-05,-0.00061,4e-05,-7e-05,-4e-05,4,32
17689,1e-05,4e-05,0.0001,1e-05,-0.00061,4e-05,-7e-05,-4e-05,4,32
17690,1e-05,4e-05,0.0001,1e-05,-0.00061,4e-05,-7e-05,-4e-05,4,32
17691,1e-05,4e-05,0.0001,1e-05,-0.00061,4e-05,-7e-05,-4e-05,4,32
17692,1e-05,4e-05,0.0001,1e-05,-0.00061,4e-05,-7e-05,-4e-05,4,32
17693,1e-05,4e-05,0.0001,1e-05,-0.00061,4e-05,-7e-05,-4e-05,4,32
17694,1e-05,4e-05,0.0001,1e-05,-0.00061,4e-05,-7e-05,-4e-05,4,32
17695,1e-05,4e-05,0.0001,1e-05,-0.00061,4e-05,-7e-05,-4e-05,4,32
17696,1e-05,4e-05,0.0001,1e-05,-0.00061,4e-05,-7e-05,-4e-05,4,32
17697,1e-05,4e-05,0.0001,1e-05,-0.00061,4e-05,-7e-05,-4e-05,4,32
17698,1e-05,4e-05,0.0001,1e-05,-0.00061,4e-05,-7e-05,-4e-05,4,32
17699,1e-05,4e-05,0.0001,1e-05,-0.00061,4e-05,-7e-05,-4e-05,4,32
17700,1e-05,4e-05,0.0001,1e-05,-0.00061,4e-05,-7e-05,-4e-05,4,32
17701,-2e-05,-3e-05,-0.00015,-0.00063,-0.00056,-0.00044,-9e-05,-3e-05,4,32
17702,4e-05,4e-05,-7e-05,-0.00018,0.00088,0.00017,0.00017,7e-05,4,32
17703,4e-05,4e-05,-7e-05,-0.00018,0.00088,0.00017,0.00017,7e-05,4,32
17704,4e-05,4e-05,-7e-05,-0.00018,0.00088,0.00017,0.00017,7e-05,4,32
17705,4e-05,4e-05,-7e-05,-0.00018,0.00088,0.00017,0.00017,7e-05,4,32
17706,4e-05,4e-05,-7e-05,-0.00018,0.00088,0.00017,0.00017,7e-05,4,32
17707,4e-05,4e-05,-7e-05,-0.00018,0.00088,0.00017,0.00017,7e-05,4,32
17708,4e-05,4e-05,-7e-05,-0.00018,0.00088,0.00017,0.00017,7e-05,4,32
17709,4e-05,4e-05,-7e-05,-0.00018,0.00088,0.00017,0.00017,7e-05,4,32
17710,4e-05,4e-05,-7e-05,-0.00018,0.00088,0.00017,0.00017,7e-05,4,32
17711,4e-05,4e-05,-7e-05,-0.00018,0.00088,0.00017,0.00017,7e-05,4,32
17712,4e-05,4e-05,-7e-05,-0.00018,0.00088,0.00017,0.00017,7e-05,4,32
17713,4e-05,4e-05,-7e-05,-0.00018,0.00088,0.00017,0.00017,7e-05,4,32
17714,2e-05,0,1e-05,1e-05,-0.00101,-0.00032,2e-05,0,4,32
17715,2e-05,0,1e-05,1e-05,-0.00101,-0.00032,2e-05,0,4,32
17716,2e-05,0,1e-05,1e-05,-0.00101,-0.00032,2e-05,0,4,32
17717,2e-05,0,1e-05,1e-05,-0.00101,-0.00032,2e-05,0,4,32
17718,2e-05,0,1e-05,1e-05,-0.00101,-0.00032,2e-05,0,4,32
17719,2e-05,0,1e-05,1e-05,-0.00101,-0.00032,2e-05,0,4,32
17720,2e-05,0,1e-05,1e-05,-0.00101,-0.00032,2e-05,0,4,32
17721,2e-05,0,1e-05,1e-05,-0.00101,-0.00032,2e-05,0,4,32
17722,2e-05,0,1e-05,1e-05,-0.00101,-0.00032,2e-05,0,4,32
17723,-7e-05,-0.00013,-0.00015,0.0003,-0.00024,-5e-05,-0.00012,-4e-05,4,32
17724,-7e-05,-0.00013,-0.00015,0.0003,-0.00024,-5e-05,-0.00012,-4e-05,4,32
17725,-7e-05,-0.00013,-0.00015,0.0003,-0.00024,-5e-05,-0.00012,-4e-05,4,32
17726,-7e-05,-0.00013,-0.00015,0.0003,-0.00024,-5e-05,-0.00012,-4e-05,4,32
17727,-7e-05,-0.00013,-0.00015,0.0003,-0.00024,-5e-05,-0.00012,-4e-05,4,32
17728,-7e-05,-0.00013,-0.00015,0.0003,-0.00024,-5e-05,-0.00012,-4e-05,4,32
17729,-7e-05,-0.00013,-0.00015,0.0003,-0.00024,-5e-05,-0.00012,-4e-05,4,32
17730,-7e-05,-0.00013,-0.00015,0.0003,-0.00024,-5e-05,-0.00012,-4e-05,4,32
17731,-7e-05,-0.00013,-0.00015,0.0003,-0.00024,-5e-05,-0.00012,-4e-05,4,32
17732,-7e-05,-0.00013,-0.00015,0.0003,-0.00024,-5e-05,-0.00012,-4e-05,4,32
17733,-7e-05,-0.00013,-0.00015,0.0003,-0.00024,-5e-05,-0.00012,-4e-05,4,32
17734,-7e-05,-0.00013,-0.00015,0.0003,-0.00024,-5e-05,-0.00012,-4e-05,4,32
17735,-7e-05,-0.00013,-0.00015,0.0003,-0.00024,-5e-05,-0.00012,-4e-05,4,32
17736,6e-05,9e-05,7e-05,0.00041,0.00029,3e-05,4e-05,2e-05,4,32
17739,6e-05,9e-05,7e-05,0.00041,0.00029,3e-05,4e-05,2e-05,4,32
17740,6e-05,9e-05,7e-05,0.00041,0.00029,3e-05,4e-05,2e-05,4,32
17741,6e-05,9e-05,7e-05,0.00041,0.00029,3e-05,4e-05,2e-05,4,32
17742,6e-05,9e-05,7e-05,0.00041,0.00029,3e-05,4e-05,2e-05,4,32
17743,6e-05,9e-05,7e-05,0.00041,0.00029,3e-05,4e-05,2e-05,4,32
17744,6e-05,9e-05,7e-05,0.00041,0.00029,3e-05,4e-05,2e-05,4,32
17745,-0.0001,-0.00015,-0.0003,-0.00072,-0.00062,-0.00111,-0.00023,-9e-05,4,32
17746,-2e-05,-4e-05,-7e-05,2e-05,-0.00082,0.00034,1e-05,-6e-05,4,32
17747,-2e-05,-4e-05,-7e-05,2e-05,-0.00082,0.00034,1e-05,-6e-05,4,32
17748,-2e-05,-4e-05,-7e-05,2e-05,-0.00082,0.00034,1e-05,-6e-05,4,32
17749,-2e-05,-4e-05,-7e-05,2e-05,-0.00082,0.00034,1e-05,-6e-05,4,32
17750,-2e-05,-4e-05,-7e-05,2e-05,-0.00082,0.00034,1e-05,-6e-05,4,32
17752,-2e-05,-4e-05,-7e-05,2e-05,-0.00082,0.00034,1e-05,-6e-05,4,32
17753,-2e-05,-4e-05,-7e-05,2e-05,-0.00082,0.00034,1e-05,-6e-05,4,32
17754,-2e-05,-4e-05,-7e-05,2e-05,-0.00082,0.00034,1e-05,-6e-05,4,32
17755,-2e-05,-4e-05,-7e-05,2e-05,-0.00082,0.00034,1e-05,-6e-05,4,32
17756,-2e-05,-4e-05,-7e-05,2e-05,-0.00082,0.00034,1e-05,-6e-05,4,32
17757,-2e-05,-4e-05,-7e-05,2e-05,-0.00082,0.00034,1e-05,-6e-05,4,32
17758,-2e-05,-4e-05,-7e-05,2e-05,-0.00082,0.00034,1e-05,-6e-05,4,32
17759,-2e-05,-4e-05,-7e-05,2e-05,-0.00082,0.00034,1e-05,-6e-05,4,32
17760,-2e-05,-4e-05,-7e-05,2e-05,-0.00082,0.00034,1e-05,-6e-05,4,32
17761,-3e-05,-6e-05,-0.00012,-0.00019,0.00108,0.00052,0,-4e-05,4,32
17762,-5e-05,-4e-05,1e-05,-1e-05,2e-05,4e-05,-6e-05,-1e-05,4,32
17763,-5e-05,-4e-05,1e-05,-1e-05,2e-05,4e-05,-6e-05,-1e-05,4,32
17764,-5e-05,-4e-05,1e-05,-1e-05,2e-05,4e-05,-6e-05,-1e-05,4,32
17765,-5e-05,-4e-05,1e-05,-1e-05,2e-05,4e-05,-6e-05,-1e-05,4,32
17766,-5e-05,-4e-05,1e-05,-1e-05,2e-05,4e-05,-6e-05,-1e-05,4,32
17767,-5e-05,-4e-05,1e-05,-1e-05,2e-05,4e-05,-6e-05,-1e-05,4,32
17768,-5e-05,-4e-05,1e-05,-1e-05,2e-05,4e-05,-6e-05,-1e-05,4,32
17769,-5e-05,-4e-05,1e-05,-1e-05,2e-05,4e-05,-6e-05,-1e-05,4,32
17770,-5e-05,-4e-05,1e-05,-1e-05,2e-05,4e-05,-6e-05,-1e-05,4,32
17771,-5e-05,-4e-05,1e-05,-1e-05,2e-05,4e-05,-6e-05,-1e-05,4,32
17772,-5e-05,-4e-05,1e-05,-1e-05,2e-05,4e-05,-6e-05,-1e-05,4,32
17773,-5e-05,-4e-05,1e-05,-1e-05,2e-05,4e-05,-6e-05,-1e-05,4,32
17774,7e-05,4e-05,3e-05,-0.00021,0.00081,0.00076,0.00023,0.0001,4,32
17775,-1e-05,-3e-05,-3e-05,-0.00029,-0.00089,-0.00049,-7e-05,-2e-05,4,32
17776,-1e-05,-3e-05,-3e-05,-0.00029,-0.00089,-0.00049,-7e-05,-2e-05,4,32
17777,-1e-05,-3e-05,-3e-05,-0.00029,-0.00089,-0.00049,-7e-05,-2e-05,4,32
17778,-1e-05,-3e-05,-3e-05,-0.00029,-0.00089,-0.00049,-7e-05,-2e-05,4,32
17779,-1e-05,-3e-05,-3e-05,-0.00029,-0.00089,-0.00049,-7e-05,-2e-05,4,32
17780,-1e-05,-3e-05,-3e-05,-0.00029,-0.00089,-0.00049,-7e-05,-2e-05,4,32
17781,-1e-05,-3e-05,-3e-05,-0.00029,-0.00089,-0.00049,-7e-05,-2e-05,4,32
17782,-1e-05,-3e-05,-3e-05,-0.00029,-0.00089,-0.00049,-7e-05,-2e-05,4,32
17783,7e-05,0.00011,0.00012,0.00021,-0.00047,-0.00044,-8e-05,1e-05,4,32
17784,7e-05,0.00011,0.00012,0.00021,-0.00047,-0.00044,-8e-05,1e-05,4,32
17785,7e-05,0.00011,0.00012,0.00021,-0.00047,-0.00044,-8e-05,1e-05,4,32
17786,7e-05,0.00011,0.00012,0.00021,-0.00047,-0.00044,-8e-05,1e-05,4,32
17788,7e-05,0.00011,0.00012,0.00021,-0.00047,-0.00044,-8e-05,1e-05,4,32
17789,7e-05,0.00011,0.00012,0.00021,-0.00047,-0.00044,-8e-05,1e-05,4,32
17790,7e-05,0.00011,0.00012,0.00021,-0.00047,-0.00044,-8e-05,1e-05,4,32
17791,7e-05,0.00011,0.00012,0.00021,-0.00047,-0.00044,-8e-05,1e-05,4,32
17792,7e-05,0.00011,0.00012,0.00021,-0.00047,-0.00044,-8e-05,1e-05,4,32
17793,7e-05,0.00011,0.00012,0.00021,-0.00047,-0.00044,-8e-05,1e-05,4,32
17794,7e-05,0.00011,0.00012,0.00021,-0.00047,-0.00044,-8e-05,1e-05,4,32
17795,7e-05,0.00011,0.00012,0.00021,-0.00047,-0.00044,-8e-05,1e-05,4,32
17796,7e-05,0.00011,0.00012,0.00021,-0.00047,-0.00044,-8e-05,1e-05,4,32
17797,-8e-05,2e-05,0.00013,-0.00019,0.00018,-0.00037,-0.00011,-3e-05,4,32
17798,-2e-05,-1e-05,-3e-05,9e-05,-0.00098,-0.00018,4e-05,-2e-05,4,32
17799,-2e-05,-1e-05,-3e-05,9e-05,-0.00098,-0.00018,4e-05,-2e-05,4,32
17800,2e-05,4e-05,0.00013,0.00016,0.00044,0.00013,0.0001,5e-05,4,32
17801,2e-05,4e-05,0.00013,0.00016,0.00044,0.00013,0.0001,5e-05,4,32
17802,2e-05,4e-05,0.00013,0.00016,0.00044,0.00013,0.0001,5e-05,4,32
17803,2e-05,4e-05,0.00013,0.00016,0.00044,0.00013,0.0001,5e-05,4,32
17804,2e-05,4e-05,0.00013,0.00016,0.00044,0.00013,0.0001,5e-05,4,32
17805,2e-05,4e-05,0.00013,0.00016,0.00044,0.00013,0.0001,5e-05,4,32
17806,2e-05,4e-05,0.00013,0.00016,0.00044,0.00013,0.0001,5e-05,4,32
17807,2e-05,4e-05,0.00013,0.00016,0.00044,0.00013,0.0001,5e-05,4,32
17808,2e-05,4e-05,0.00013,0.00016,0.00044,0.00013,0.0001,5e-05,4,32
17809,2e-05,4e-05,0.00013,0.00016,0.00044,0.00013,0.0001,5e-05,4,32
17810,2e-05,4e-05,0.00013,0.00016,0.00044,0.00013,0.0001,5e-05,4,32
17811,2e-05,4e-05,0.00013,0.00016,0.00044,0.00013,0.0001,5e-05,4,32
17812,2e-05,4e-05,0.00013,0.00016,0.00044,0.00013,0.0001,5e-05,4,32
17813,2e-05,4e-05,0.00013,0.00016,0.00044,0.00013,0.0001,5e-05,4,32
17814,2e-05,4e-05,0.00013,0.00016,0.00044,0.00013,0.0001,5e-05,4,32
17815,2e-05,4e-05,0.00013,0.00016,0.00044,0.00013,0.0001,5e-05,4,32
17816,2e-05,4e-05,0.00013,0.00016,0.00044,0.00013,0.0001,5e-05,4,32
17817,2e-05,4e-05,0.00013,0.00016,0.00044,0.00013,0.0001,5e-05,4,32
17818,2e-05,4e-05,0.00013,0.00016,0.00044,0.00013,0.0001,5e-05,4,32
17819,2e-05,4e-05,0.00013,0.00016,0.00044,0.00013,0.0001,5e-05,4,32
17820,2e-05,4e-05,0.00013,0.00016,0.00044,0.00013,0.0001,5e-05,4,32
17821,2e-05,4e-05,0.00013,0.00016,0.00044,0.00013,0.0001,5e-05,4,32
17822,0,-9e-05,-0.00033,-0.00076,4e-05,7e-05,3e-05,1e-05,4,32
17823,0,-9e-05,-0.00033,-0.00076,4e-05,7e-05,3e-05,1e-05,4,32
17824,0,-9e-05,-0.00033,-0.00076,4e-05,7e-05,3e-05,1e-05,4,32
17825,0,-9e-05,-0.00033,-0.00076,4e-05,7e-05,3e-05,1e-05,4,32
17826,0,-9e-05,-0.00033,-0.00076,4e-05,7e-05,3e-05,1e-05,4,32
17827,-2e-05,0,-3e-05,-0.00015,-0.00022,-4e-05,6e-05,-2e-05,4,32
17828,-2e-05,0,-3e-05,-0.00015,-0.00022,-4e-05,6e-05,-2e-05,4,32
17829,-2e-05,0,-3e-05,-0.00015,-0.00022,-4e-05,6e-05,-2e-05,4,32
17830,-2e-05,0,-3e-05,-0.00015,-0.00022,-4e-05,6e-05,-2e-05,4,32
17831,-2e-05,0,-3e-05,-0.00015,-0.00022,-4e-05,6e-05,-2e-05,4,32
17832,-2e-05,0,-3e-05,-0.00015,-0.00022,-4e-05,6e-05,-2e-05,4,32
17833,-2e-05,0,-3e-05,-0.00015,-0.00022,-4e-05,6e-05,-2e-05,4,32
17834,-2e-05,0,-3e-05,-0.00015,-0.00022,-4e-05,6e-05,-2e-05,4,32
17835,-2e-05,0,-3e-05,-0.00015,-0.00022,-4e-05,6e-05,-2e-05,4,32
17836,-2e-05,0,-3e-05,-0.00015,-0.00022,-4e-05,6e-05,-2e-05,4,32
17839,-2e-05,0,-3e-05,-0.00015,-0.00022,-4e-05,6e-05,-2e-05,4,32
17840,-2e-05,0,-3e-05,-0.00015,-0.00022,-4e-05,6e-05,-2e-05,4,32
17841,-2e-05,0,-3e-05,-0.00015,-0.00022,-4e-05,6e-05,-2e-05,4,32
17842,-2e-05,0,-3e-05,-0.00015,-0.00022,-4e-05,6e-05,-2e-05,4,32
17843,-0.0001,-0.00022,-0.00048,-0.00113,-0.00048,3e-05,-8e-05,-9e-05,4,32
17844,-0.0001,-0.00022,-0.00048,-0.00113,-0.00048,3e-05,-8e-05,-9e-05,4,32
17845,-0.0001,-0.00022,-0.00048,-0.00113,-0.00048,3e-05,-8e-05,-9e-05,4,32
17846,-0.0001,-0.00022,-0.00048,-0.00113,-0.00048,3e-05,-8e-05,-9e-05,4,32
17847,-0.0001,-0.00022,-0.00048,-0.00113,-0.00048,3e-05,-8e-05,-9e-05,4,32
17848,-0.0001,-0.00022,-0.00048,-0.00113,-0.00048,3e-05,-8e-05,-9e-05,4,32
17849,1e-05,2e-05,6e-05,0.0004,0.0007,0.00084,0.00018,7e-05,4,32
17850,1e-05,2e-05,6e-05,0.0004,0.0007,0.00084,0.00018,7e-05,4,32
17851,1e-05,2e-05,6e-05,0.0004,0.0007,0.00084,0.00018,7e-05,4,32
17852,1e-05,2e-05,6e-05,0.0004,0.0007,0.00084,0.00018,7e-05,4,32
17853,1e-05,2e-05,6e-05,0.0004,0.0007,0.00084,0.00018,7e-05,4,32
17854,1e-05,2e-05,6e-05,0.0004,0.0007,0.00084,0.00018,7e-05,4,32
17855,1e-05,2e-05,6e-05,0.0004,0.0007,0.00084,0.00018,7e-05,4,32
17856,1e-05,2e-05,6e-05,0.0004,0.0007,0.00084,0.00018,7e-05,4,32
17857,1e-05,2e-05,6e-05,0.0004,0.0007,0.00084,0.00018,7e-05,4,32
17858,2e-05,9e-05,0.00032,0.00069,-0.0004,8e-05,-9e-05,-2e-05,4,32
17860,-6e-05,-0.00021,-0.00061,-0.00123,-0.00049,-0.00021,-7e-05,-4e-05,4,32
17861,-6e-05,-0.00021,-0.00061,-0.00123,-0.00049,-0.00021,-7e-05,-4e-05,4,32
17862,-6e-05,-0.00021,-0.00061,-0.00123,-0.00049,-0.00021,-7e-05,-4e-05,4,32
17863,-6e-05,-0.00021,-0.00061,-0.00123,-0.00049,-0.00021,-7e-05,-4e-05,4,32
17864,-6e-05,-0.00021,-0.00061,-0.00123,-0.00049,-0.00021,-7e-05,-4e-05,4,32
17865,-6e-05,-0.00021,-0.00061,-0.00123,-0.00049,-0.00021,-7e-05,-4e-05,4,32
17866,-6e-05,-0.00021,-0.00061,-0.00123,-0.00049,-0.00021,-7e-05,-4e-05,4,32
17867,-6e-05,-0.00021,-0.00061,-0.00123,-0.00049,-0.00021,-7e-05,-4e-05,4,32
17868,-6e-05,-0.00021,-0.00061,-0.00123,-0.00049,-0.00021,-7e-05,-4e-05,4,32
17869,-6e-05,-0.00021,-0.00061,-0.00123,-0.00049,-0.00021,-7e-05,-4e-05,4,32
17870,-6e-05,-0.00021,-0.00061,-0.00123,-0.00049,-0.00021,-7e-05,-4e-05,4,32
17871,-6e-05,-0.00021,-0.00061,-0.00123,-0.00049,-0.00021,-7e-05,-4e-05,4,32
17872,-6e-05,-0.00021,-0.00061,-0.00123,-0.00049,-0.00021,-7e-05,-4e-05,4,32
17873,-6e-05,-0.00021,-0.00061,-0.00123,-0.00049,-0.00021,-7e-05,-4e-05,4,32
17874,-6e-05,-0.00021,-0.00061,-0.00123,-0.00049,-0.00021,-7e-05,-4e-05,4,32
17875,-6e-05,-0.00021,-0.00061,-0.00123,-0.00049,-0.00021,-7e-05,-4e-05,4,32
17876,-6e-05,-0.00021,-0.00061,-0.00123,-0.00049,-0.00021,-7e-05,-4e-05,4,32
17877,-6e-05,-0.00021,-0.00061,-0.00123,-0.00049,-0.00021,-7e-05,-4e-05,4,32
17878,-6e-05,-0.00021,-0.00061,-0.00123,-0.00049,-0.00021,-7e-05,-4e-05,4,32
17879,-6e-05,-0.00021,-0.00061,-0.00123,-0.00049,-0.00021,-7e-05,-4e-05,4,32
17880,6e-05,0.0001,0.00025,0.00047,0.001,0.00057,0.00014,8e-05,4,32
17881,6e-05,0.0001,0.00025,0.00047,0.001,0.00057,0.00014,8e-05,4,32
17882,-4e-05,1e-05,7e-05,9e-05,-0.00024,-0.00023,-4e-05,-1e-05,4,32
17883,-4e-05,1e-05,7e-05,9e-05,-0.00024,-0.00023,-4e-05,-1e-05,4,32
17884,-4e-05,1e-05,7e-05,9e-05,-0.00024,-0.00023,-4e-05,-1e-05,4,32
17885,-4e-05,1e-05,7e-05,9e-05,-0.00024,-0.00023,-4e-05,-1e-05,4,32
17886,-4e-05,1e-05,7e-05,9e-05,-0.00024,-0.00023,-4e-05,-1e-05,4,32
17889,-4e-05,1e-05,7e-05,9e-05,-0.00024,-0.00023,-4e-05,-1e-05,4,32
17890,-4e-05,1e-05,7e-05,9e-05,-0.00024,-0.00023,-4e-05,-1e-05,4,32
17891,-4e-05,1e-05,7e-05,9e-05,-0.00024,-0.00023,-4e-05,-1e-05,4,32
17892,-4e-05,1e-05,7e-05,9e-05,-0.00024,-0.00023,-4e-05,-1e-05,4,32
17893,-4e-05,1e-05,7e-05,9e-05,-0.00024,-0.00023,-4e-05,-1e-05,4,32
17894,-4e-05,1e-05,7e-05,9e-05,-0.00024,-0.00023,-4e-05,-1e-05,4,32
17895,-4e-05,1e-05,7e-05,9e-05,-0.00024,-0.00023,-4e-05,-1e-05,4,32
17896,-4e-05,1e-05,7e-05,9e-05,-0.00024,-0.00023,-4e-05,-1e-05,4,32
17897,-4e-05,1e-05,7e-05,9e-05,-0.00024,-0.00023,-4e-05,-1e-05,4,32
17898,-4e-05,1e-05,7e-05,9e-05,-0.00024,-0.00023,-4e-05,-1e-05,4,32
17899,-4e-05,1e-05,7e-05,9e-05,-0.00024,-0.00023,-4e-05,-1e-05,4,32
17900,-4e-05,1e-05,7e-05,9e-05,-0.00024,-0.00023,-4e-05,-1e-05,4,32
17901,-4e-05,1e-05,7e-05,9e-05,-0.00024,-0.00023,-4e-05,-1e-05,4,32
17902,-4e-05,1e-05,7e-05,9e-05,-0.00024,-0.00023,-4e-05,-1e-05,4,32
17903,1e-05,3e-05,2e-05,0.00011,-0.00011,9e-05,9e-05,2e-05,4,32
17904,0,-3e-05,-0.00011,-0.00031,-0.00076,-0.0001,0,-3e-05,4,32
17905,1e-05,3e-05,6e-05,-0.00013,-0.00049,-0.00067,-2e-05,-1e-05,4,32
17906,1e-05,3e-05,6e-05,-0.00013,-0.00049,-0.00067,-2e-05,-1e-05,4,32
17907,1e-05,3e-05,6e-05,-0.00013,-0.00049,-0.00067,-2e-05,-1e-05,4,32
17908,1e-05,3e-05,6e-05,-0.00013,-0.00049,-0.00067,-2e-05,-1e-05,4,32
17909,1e-05,3e-05,6e-05,-0.00013,-0.00049,-0.00067,-2e-05,-1e-05,4,32
17910,1e-05,3e-05,6e-05,-0.00013,-0.00049,-0.00067,-2e-05,-1e-05,4,32
17911,1e-05,3e-05,6e-05,-0.00013,-0.00049,-0.00067,-2e-05,-1e-05,4,32
17912,1e-05,3e-05,6e-05,-0.00013,-0.00049,-0.00067,-2e-05,-1e-05,4,32
17913,1e-05,3e-05,6e-05,-0.00013,-0.00049,-0.00067,-2e-05,-1e-05,4,32
17914,1e-05,3e-05,6e-05,-0.00013,-0.00049,-0.00067,-2e-05,-1e-05,4,32
17915,1e-05,3e-05,6e-05,-0.00013,-0.00049,-0.00067,-2e-05,-1e-05,4,32
17916,1e-05,3e-05,6e-05,-0.00013,-0.00049,-0.00067,-2e-05,-1e-05,4,32
17917,-6e-05,-0.00018,-0.00042,-0.00014,0.00047,0.00089,8e-05,-1e-05,4,32
17918,-6e-05,-0.00018,-0.00042,-0.00014,0.00047,0.00089,8e-05,-1e-05,4,32
17919,-6e-05,-0.00018,-0.00042,-0.00014,0.00047,0.00089,8e-05,-1e-05,4,32
17920,-6e-05,-0.00018,-0.00042,-0.00014,0.00047,0.00089,8e-05,-1e-05,4,32
17921,-6e-05,-0.00018,-0.00042,-0.00014,0.00047,0.00089,8e-05,-1e-05,4,32
17922,-6e-05,-0.00018,-0.00042,-0.00014,0.00047,0.00089,8e-05,-1e-05,4,32
17923,-6e-05,-0.00018,-0.00042,-0.00014,0.00047,0.00089,8e-05,-1e-05,4,32
17924,5e-05,0.00011,0.00012,0.00052,-0.00019,0.00024,6e-05,-1e-05,4,32
17925,5e-05,0.00011,0.00012,0.00052,-0.00019,0.00024,6e-05,-1e-05,4,32
17926,5e-05,0.00011,0.00012,0.00052,-0.00019,0.00024,6e-05,-1e-05,4,32
17927,5e-05,0.00011,0.00012,0.00052,-0.00019,0.00024,6e-05,-1e-05,4,32
17928,5e-05,0.00011,0.00012,0.00052,-0.00019,0.00024,6e-05,-1e-05,4,32
17929,5e-05,0.00011,0.00012,0.00052,-0.00019,0.00024,6e-05,-1e-05,4,32
17930,5e-05,0.00011,0.00012,0.00052,-0.00019,0.00024,6e-05,-1e-05,4,32
17931,5e-05,0.00011,0.00012,0.00052,-0.00019,0.00024,6e-05,-1e-05,4,32
17932,5e-05,0.00011,0.00012,0.00052,-0.00019,0.00024,6e-05,-1e-05,4,32
17933,5e-05,0.00011,0.00012,0.00052,-0.00019,0.00024,6e-05,-1e-05,4,32
17934,5e-05,0.00011,0.00012,0.00052,-0.00019,0.00024,6e-05,-1e-05,4,32
17935,5e-05,0.00011,0.00012,0.00052,-0.00019,0.00024,6e-05,-1e-05,4,32
17936,5e-05,0.00011,0.00012,0.00052,-0.00019,0.00024,6e-05,-1e-05,4,32
17939,5e-05,0.00011,0.00012,0.00052,-0.00019,0.00024,6e-05,-1e-05,4,32
17940,5e-05,0.00011,0.00012,0.00052,-0.00019,0.00024,6e-05,-1e-05,4,32
17941,4e-05,6e-05,0.00011,-0.00017,-0.00109,-0.00029,1e-05,1e-05,4,32
17942,4e-05,6e-05,1e-05,0.00021,-9e-05,6e-05,-4e-05,0,4,32
17943,-4e-05,-6e-05,0,0.00013,-0.00025,-0.00032,-0.00013,-7e-05,4,32
17944,-4e-05,-6e-05,0,0.00013,-0.00025,-0.00032,-0.00013,-7e-05,4,32
17945,-4e-05,-6e-05,0,0.00013,-0.00025,-0.00032,-0.00013,-7e-05,4,32
17946,-4e-05,-6e-05,0,0.00013,-0.00025,-0.00032,-0.00013,-7e-05,4,32
17947,-4e-05,-6e-05,0,0.00013,-0.00025,-0.00032,-0.00013,-7e-05,4,32
17948,-4e-05,-6e-05,0,0.00013,-0.00025,-0.00032,-0.00013,-7e-05,4,32
17949,-4e-05,-6e-05,0,0.00013,-0.00025,-0.00032,-0.00013,-7e-05,4,32
17950,-4e-05,-6e-05,0,0.00013,-0.00025,-0.00032,-0.00013,-7e-05,4,32
17951,-4e-05,-6e-05,0,0.00013,-0.00025,-0.00032,-0.00013,-7e-05,4,32
17952,-4e-05,-6e-05,0,0.00013,-0.00025,-0.00032,-0.00013,-7e-05,4,32
17953,-4e-05,-6e-05,0,0.00013,-0.00025,-0.00032,-0.00013,-7e-05,4,32
17954,-4e-05,-6e-05,0,0.00013,-0.00025,-0.00032,-0.00013,-7e-05,4,32
17955,-4e-05,-6e-05,0,0.00013,-0.00025,-0.00032,-0.00013,-7e-05,4,32
17956,-4e-05,-6e-05,0,0.00013,-0.00025,-0.00032,-0.00013,-7e-05,4,32
17957,-4e-05,-6e-05,0,0.00013,-0.00025,-0.00032,-0.00013,-7e-05,4,32
17958,-4e-05,-6e-05,0,0.00013,-0.00025,-0.00032,-0.00013,-7e-05,4,32
17959,-4e-05,-6e-05,0,0.00013,-0.00025,-0.00032,-0.00013,-7e-05,4,32
17960,-4e-05,-6e-05,0,0.00013,-0.00025,-0.00032,-0.00013,-7e-05,4,32
17961,-4e-05,-6e-05,0,0.00013,-0.00025,-0.00032,-0.00013,-7e-05,4,32
17962,-4e-05,-6e-05,0,0.00013,-0.00025,-0.00032,-0.00013,-7e-05,4,32
17963,-4e-05,-2e-05,2e-05,0.00014,3e-05,-0.00024,-7e-05,-7e-05,4,32
17964,7e-05,0.00012,0.00033,0.0006,0.00067,0.00043,0.0001,5e-05,4,32
17965,7e-05,0.00012,0.00033,0.0006,0.00067,0.00043,0.0001,5e-05,4,32
17966,7e-05,0.00012,0.00033,0.0006,0.00067,0.00043,0.0001,5e-05,4,32
17967,7e-05,0.00012,0.00033,0.0006,0.00067,0.00043,0.0001,5e-05,4,32
17968,7e-05,0.00012,0.00033,0.0006,0.00067,0.00043,0.0001,5e-05,4,32
17969,7e-05,0.00012,0.00033,0.0006,0.00067,0.00043,0.0001,5e-05,4,32
17970,7e-05,0.00012,0.00033,0.0006,0.00067,0.00043,0.0001,5e-05,4,32
17971,7e-05,0.00012,0.00033,0.0006,0.00067,0.00043,0.0001,5e-05,4,32
17972,7e-05,0.00012,0.00033,0.0006,0.00067,0.00043,0.0001,5e-05,4,32
17973,7e-05,0.00012,0.00033,0.0006,0.00067,0.00043,0.0001,5e-05,4,32
17974,7e-05,0.00012,0.00033,0.0006,0.00067,0.00043,0.0001,5e-05,4,32
17975,7e-05,0.00012,0.00033,0.0006,0.00067,0.00043,0.0001,5e-05,4,32
17976,7e-05,0.00012,0.00033,0.0006,0.00067,0.00043,0.0001,5e-05,4,32
17977,7e-05,0.00012,0.00033,0.0006,0.00067,0.00043,0.0001,5e-05,4,32
17978,7e-05,0.00012,0.00033,0.0006,0.00067,0.00043,0.0001,5e-05,4,32
17979,7e-05,0.00012,0.00033,0.0006,0.00067,0.00043,0.0001,5e-05,4,32
17980,7e-05,0.00012,0.00033,0.0006,0.00067,0.00043,0.0001,5e-05,4,32
17981,7e-05,0.00012,0.00033,0.0006,0.00067,0.00043,0.0001,5e-05,4,32
17982,7e-05,0.00012,0.00033,0.0006,0.00067,0.00043,0.0001,5e-05,4,32
17983,7e-05,0.00012,0.00033,0.0006,0.00067,0.00043,0.0001,5e-05,4,32
17984,7e-05,0.00012,0.00033,0.0006,0.00067,0.00043,0.0001,5e-05,4,32
17985,2e-05,4e-05,0.00016,-0.00014,-0.00087,-0.00037,-9e-05,-3e-05,4,32
17987,3e-05,6e-05,0.00013,-0.00012,-0.00111,0.00013,2e-05,-1e-05,4,32
17990,-5e-05,-0.00014,-0.00022,0.00026,0.00048,4e-05,-4e-05,-2e-05,4,32
17991,-5e-05,-0.00014,-0.00022,0.00026,0.00048,4e-05,-4e-05,-2e-05,4,32
17992,-5e-05,-0.00014,-0.00022,0.00026,0.00048,4e-05,-4e-05,-2e-05,4,32
17993,-5e-05,-0.00014,-0.00022,0.00026,0.00048,4e-05,-4e-05,-2e-05,4,32
17994,-5e-05,-0.00014,-0.00022,0.00026,0.00048,4e-05,-4e-05,-2e-05,4,32
17995,-5e-05,-0.00014,-0.00022,0.00026,0.00048,4e-05,-4e-05,-2e-05,4,32
17996,-5e-05,-0.00014,-0.00022,0.00026,0.00048,4e-05,-4e-05,-2e-05,4,32
17997,-5e-05,-0.00014,-0.00022,0.00026,0.00048,4e-05,-4e-05,-2e-05,4,32
17998,-5e-05,-0.00014,-0.00022,0.00026,0.00048,4e-05,-4e-05,-2e-05,4,32
17999,-5e-05,-0.00014,-0.00022,0.00026,0.00048,4e-05,-4e-05,-2e-05,4,32
18000,-1e-05,2e-05,0.00011,0.00024,-0.00017,7e-05,-1e-05,2e-05,4,32
18001,-1e-05,2e-05,0.00011,0.00024,-0.00017,7e-05,-1e-05,2e-05,4,32
18002,-4e-05,-2e-05,5e-05,-0.00043,0.00033,0,-5e-05,-2e-05,4,32
18003,-4e-05,-2e-05,5e-05,-0.00043,0.00033,0,-5e-05,-2e-05,4,32
18004,-4e-05,-2e-05,5e-05,-0.00043,0.00033,0,-5e-05,-2e-05,4,32
18005,-4e-05,-2e-05,5e-05,-0.00043,0.00033,0,-5e-05,-2e-05,4,32
18006,-4e-05,-2e-05,5e-05,-0.00043,0.00033,0,-5e-05,-2e-05,4,32
18007,-4e-05,-2e-05,5e-05,-0.00043,0.00033,0,-5e-05,-2e-05,4,32
18008,-4e-05,-2e-05,5e-05,-0.00043,0.00033,0,-5e-05,-2e-05,4,32
18009,-4e-05,-2e-05,5e-05,-0.00043,0.00033,0,-5e-05,-2e-05,4,32
18010,-4e-05,-2e-05,5e-05,-0.00043,0.00033,0,-5e-05,-2e-05,4,32
18011,-4e-05,-2e-05,5e-05,-0.00043,0.00033,0,-5e-05,-2e-05,4,32
18012,-4e-05,-2e-05,5e-05,-0.00043,0.00033,0,-5e-05,-2e-05,4,32
18013,-4e-05,-2e-05,5e-05,-0.00043,0.00033,0,-5e-05,-2e-05,4,32
18014,-4e-05,-2e-05,5e-05,-0.00043,0.00033,0,-5e-05,-2e-05,4,32
18015,-4e-05,-2e-05,5e-05,-0.00043,0.00033,0,-5e-05,-2e-05,4,32
18016,-4e-05,-2e-05,5e-05,-0.00043,0.00033,0,-5e-05,-2e-05,4,32
18017,-4e-05,-2e-05,5e-05,-0.00043,0.00033,0,-5e-05,-2e-05,4,32
18018,-4e-05,-2e-05,5e-05,-0.00043,0.00033,0,-5e-05,-2e-05,4,32
18019,-4e-05,-2e-05,5e-05,-0.00043,0.00033,0,-5e-05,-2e-05,4,32
18020,-4e-05,-2e-05,5e-05,-0.00043,0.00033,0,-5e-05,-2e-05,4,32
18021,-4e-05,-2e-05,5e-05,-0.00043,0.00033,0,-5e-05,-2e-05,4,32
18022,-4e-05,-2e-05,5e-05,-0.00043,0.00033,0,-5e-05,-2e-05,4,32
18023,1e-05,8e-05,8e-05,-9e-05,0.00038,-2e-05,-3e-05,-3e-05,4,32
18024,-4e-05,-6e-05,-4e-05,3e-05,0.00068,0.00046,0.0001,4e-05,4,32
18025,-4e-05,-6e-05,-4e-05,3e-05,0.00068,0.00046,0.0001,4e-05,4,32
18026,-4e-05,-6e-05,-4e-05,3e-05,0.00068,0.00046,0.0001,4e-05,4,32
18027,-4e-05,-6e-05,-4e-05,3e-05,0.00068,0.00046,0.0001,4e-05,4,32
18028,-4e-05,-6e-05,-4e-05,3e-05,0.00068,0.00046,0.0001,4e-05,4,32
18029,-4e-05,-6e-05,-4e-05,3e-05,0.00068,0.00046,0.0001,4e-05,4,32
18030,-4e-05,-6e-05,-4e-05,3e-05,0.00068,0.00046,0.0001,4e-05,4,32
18031,-4e-05,-6e-05,-4e-05,3e-05,0.00068,0.00046,0.0001,4e-05,4,32
18032,-4e-05,-6e-05,-4e-05,3e-05,0.00068,0.00046,0.0001,4e-05,4,32
18033,-4e-05,-6e-05,-4e-05,3e-05,0.00068,0.00046,0.0001,4e-05,4,32
18034,-4e-05,-6e-05,-4e-05,3e-05,0.00068,0.00046,0.0001,4e-05,4,32
18035,-4e-05,-6e-05,-4e-05,3e-05,0.00068,0.00046,0.0001,4e-05,4,32
18036,-4e-05,-6e-05,-4e-05,3e-05,0.00068,0.00046,0.0001,4e-05,4,32
18039,1e-05,-5e-05,4e-05,0.00021,0.00112,0.00031,6e-05,1e-05,4,32
18040,1e-05,-5e-05,4e-05,0.00021,0.00112,0.00031,6e-05,1e-05,4,32
18041,1e-05,-5e-05,4e-05,0.00021,0.00112,0.00031,6e-05,1e-05,4,32
18042,1e-05,-5e-05,4e-05,0.00021,0.00112,0.00031,6e-05,1e-05,4,32
18043,1e-05,-5e-05,4e-05,0.00021,0.00112,0.00031,6e-05,1e-05,4,32
18044,1e-05,-5e-05,4e-05,0.00021,0.00112,0.00031,6e-05,1e-05,4,32
18045,1e-05,-5e-05,4e-05,0.00021,0.00112,0.00031,6e-05,1e-05,4,32
18046,1e-05,-5e-05,4e-05,0.00021,0.00112,0.00031,6e-05,1e-05,4,32
18047,1e-05,-5e-05,4e-05,0.00021,0.00112,0.00031,6e-05,1e-05,4,32
18048,1e-05,-5e-05,4e-05,0.00021,0.00112,0.00031,6e-05,1e-05,4,32
18049,1e-05,-5e-05,4e-05,0.00021,0.00112,0.00031,6e-05,1e-05,4,32
18050,1e-05,-5e-05,4e-05,0.00021,0.00112,0.00031,6e-05,1e-05,4,32
18051,1e-05,-5e-05,4e-05,0.00021,0.00112,0.00031,6e-05,1e-05,4,32
18052,1e-05,-5e-05,4e-05,0.00021,0.00112,0.00031,6e-05,1e-05,4,32
18053,1e-05,-5e-05,4e-05,0.00021,0.00112,0.00031,6e-05,1e-05,4,32
18054,1e-05,-5e-05,4e-05,0.00021,0.00112,0.00031,6e-05,1e-05,4,32
18055,1e-05,-5e-05,4e-05,0.00021,0.00112,0.00031,6e-05,1e-05,4,32
18056,1e-05,-5e-05,4e-05,0.00021,0.00112,0.00031,6e-05,1e-05,4,32
18057,1e-05,-5e-05,4e-05,0.00021,0.00112,0.00031,6e-05,1e-05,4,32
18058,1e-05,-5e-05,4e-05,0.00021,0.00112,0.00031,6e-05,1e-05,4,32
18059,1e-05,-5e-05,4e-05,0.00021,0.00112,0.00031,6e-05,1e-05,4,32
18060,1e-05,-5e-05,4e-05,0.00021,0.00112,0.00031,6e-05,1e-05,4,32
18061,-5e-05,-7e-05,-0.00013,-3e-05,-0.00017,-0.00023,-4e-05,-2e-05,4,32
18062,-1e-05,-3e-05,-0.00016,-0.00045,-0.00024,-0.00036,-8e-05,-1e-05,4,32
18063,-2e-05,-2e-05,1e-05,0.00017,0.00045,-0.00027,-5e-05,-6e-05,4,32
18064,3e-05,7e-05,0.00012,0.00022,0.00017,0.00054,0.00017,5e-05,4,32
18065,3e-05,7e-05,0.00012,0.00022,0.00017,0.00054,0.00017,5e-05,4,32
18066,3e-05,7e-05,0.00012,0.00022,0.00017,0.00054,0.00017,5e-05,4,32
18067,3e-05,7e-05,0.00012,0.00022,0.00017,0.00054,0.00017,5e-05,4,32
18068,3e-05,7e-05,0.00012,0.00022,0.00017,0.00054,0.00017,5e-05,4,32
18069,3e-05,7e-05,0.00012,0.00022,0.00017,0.00054,0.00017,5e-05,4,32
18070,3e-05,7e-05,0.00012,0.00022,0.00017,0.00054,0.00017,5e-05,4,32
18071,3e-05,7e-05,0.00012,0.00022,0.00017,0.00054,0.00017,5e-05,4,32
18072,3e-05,7e-05,0.00012,0.00022,0.00017,0.00054,0.00017,5e-05,4,32
18073,3e-05,7e-05,0.00012,0.00022,0.00017,0.00054,0.00017,5e-05,4,32
18074,3e-05,7e-05,0.00012,0.00022,0.00017,0.00054,0.00017,5e-05,4,32
18075,3e-05,7e-05,0.00012,0.00022,0.00017,0.00054,0.00017,5e-05,4,32
18076,3e-05,7e-05,0.00012,0.00022,0.00017,0.00054,0.00017,5e-05,4,32
18077,3e-05,7e-05,0.00012,0.00022,0.00017,0.00054,0.00017,5e-05,4,32
18078,3e-05,7e-05,0.00012,0.00022,0.00017,0.00054,0.00017,5e-05,4,32
18079,3e-05,7e-05,0.00012,0.00022,0.00017,0.00054,0.00017,5e-05,4,32
18080,3e-05,7e-05,0.00012,0.00022,0.00017,0.00054,0.00017,5e-05,4,32
18081,3e-05,7e-05,0.00012,0.00022,0.00017,0.00054,0.00017,5e-05,4,32
18082,3e-05,7e-05,0.00012,0.00022,0.00017,0.00054,0.00017,5e-05,4,32
18083,-9e-05,-0.00012,-0.00025,-0.00041,-0.00098,-0.00048,-0.00017,-6e-05,4,32
18084,-2e-05,-3e-05,-0.00018,-0.00063,0.00014,6e-05,2e-05,0,4,32
18085,-2e-05,-3e-05,-0.00018,-0.00063,0.00014,6e-05,2e-05,0,4,32
18086,-2e-05,-3e-05,-0.00018,-0.00063,0.00014,6e-05,2e-05,0,4,32
18089,-2e-05,-3e-05,-0.00018,-0.00063,0.00014,6e-05,2e-05,0,4,32
18090,-2e-05,-3e-05,-0.00018,-0.00063,0.00014,6e-05,2e-05,0,4,32
18091,-2e-05,-3e-05,-0.00018,-0.00063,0.00014,6e-05,2e-05,0,4,32
18092,-2e-05,-3e-05,-0.00018,-0.00063,0.00014,6e-05,2e-05,0,4,32
18093,-2e-05,-3e-05,-0.00018,-0.00063,0.00014,6e-05,2e-05,0,4,32
18094,-2e-05,-3e-05,-0.00018,-0.00063,0.00014,6e-05,2e-05,0,4,32
18095,-2e-05,-3e-05,-0.00018,-0.00063,0.00014,6e-05,2e-05,0,4,32
18096,-2e-05,-3e-05,-0.00018,-0.00063,0.00014,6e-05,2e-05,0,4,32
18097,-2e-05,-3e-05,-0.00018,-0.00063,0.00014,6e-05,2e-05,0,4,32
18098,-2e-05,-3e-05,-0.00018,-0.00063,0.00014,6e-05,2e-05,0,4,32
18099,-2e-05,-3e-05,-0.00018,-0.00063,0.00014,6e-05,2e-05,0,4,32
18100,-2e-05,-3e-05,-0.00018,-0.00063,0.00014,6e-05,2e-05,0,4,32
18101,-2e-05,-3e-05,-0.00018,-0.00063,0.00014,6e-05,2e-05,0,4,32
18102,-2e-05,-3e-05,-0.00018,-0.00063,0.00014,6e-05,2e-05,0,4,32
18103,-2e-05,-3e-05,-0.00018,-0.00063,0.00014,6e-05,2e-05,0,4,32
18104,-2e-05,-3e-05,-0.00018,-0.00063,0.00014,6e-05,2e-05,0,4,32
18105,-3e-05,-1e-05,-1e-05,-0.00023,-0.00038,-0.00016,-3e-05,-1e-05,4,32
18106,-3e-05,-1e-05,-1e-05,-0.00023,-0.00038,-0.00016,-3e-05,-1e-05,4,32
18107,1e-05,-2e-05,-5e-05,-2e-05,-0.00016,-0.00031,-5e-05,-3e-05,4,32
18108,1e-05,-2e-05,-5e-05,-2e-05,-0.00016,-0.00031,-5e-05,-3e-05,4,32
18109,1e-05,-2e-05,-5e-05,-2e-05,-0.00016,-0.00031,-5e-05,-3e-05,4,32
18110,1e-05,-2e-05,-5e-05,-2e-05,-0.00016,-0.00031,-5e-05,-3e-05,4,32
18111,1e-05,-2e-05,-5e-05,-2e-05,-0.00016,-0.00031,-5e-05,-3e-05,4,32
18112,1e-05,-2e-05,-5e-05,-2e-05,-0.00016,-0.00031,-5e-05,-3e-05,4,32
18113,1e-05,-2e-05,-5e-05,-2e-05,-0.00016,-0.00031,-5e-05,-3e-05,4,32
18114,1e-05,-2e-05,-5e-05,-2e-05,-0.00016,-0.00031,-5e-05,-3e-05,4,32
18115,1e-05,-2e-05,-5e-05,-2e-05,-0.00016,-0.00031,-5e-05,-3e-05,4,32
18116,1e-05,-2e-05,-5e-05,-2e-05,-0.00016,-0.00031,-5e-05,-3e-05,4,32
18117,1e-05,-2e-05,-5e-05,-2e-05,-0.00016,-0.00031,-5e-05,-3e-05,4,32
18118,1e-05,-2e-05,-5e-05,-2e-05,-0.00016,-0.00031,-5e-05,-3e-05,4,32
18119,1e-05,-2e-05,-5e-05,-2e-05,-0.00016,-0.00031,-5e-05,-3e-05,4,32
18120,-5e-05,-3e-05,7e-05,0.00047,-0.00044,-3e-05,-3e-05,-4e-05,4,32
18121,-5e-05,-3e-05,7e-05,0.00047,-0.00044,-3e-05,-3e-05,-4e-05,4,32
18122,-5e-05,-3e-05,7e-05,0.00047,-0.00044,-3e-05,-3e-05,-4e-05,4,32
18123,4e-05,7e-05,0.00019,9e-05,-0.00056,0.00034,-4e-05,-3e-05,4,32
18124,4e-05,7e-05,0.00019,9e-05,-0.00056,0.00034,-4e-05,-3e-05,4,32
18125,4e-05,7e-05,0.00019,9e-05,-0.00056,0.00034,-4e-05,-3e-05,4,32
18126,4e-05,7e-05,0.00019,9e-05,-0.00056,0.00034,-4e-05,-3e-05,4,32
18127,4e-05,7e-05,0.00019,9e-05,-0.00056,0.00034,-4e-05,-3e-05,4,32
18128,4e-05,7e-05,0.00019,9e-05,-0.00056,0.00034,-4e-05,-3e-05,4,32
18129,4e-05,7e-05,0.00019,9e-05,-0.00056,0.00034,-4e-05,-3e-05,4,32
18130,4e-05,7e-05,0.00019,9e-05,-0.00056,0.00034,-4e-05,-3e-05,4,32
18131,4e-05,7e-05,0.00019,9e-05,-0.00056,0.00034,-4e-05,-3e-05,4,32
18132,4e-05,7e-05,0.00019,9e-05,-0.00056,0.00034,-4e-05,-3e-05,4,32
18133,4e-05,7e-05,0.00019,9e-05,-0.00056,0.00034,-4e-05,-3e-05,4,32
18134,4e-05,7e-05,0.00019,9e-05,-0.00056,0.00034,-4e-05,-3e-05,4,32
18135,4e-05,7e-05,0.00019,9e-05,-0.00056,0.00034,-4e-05,-3e-05,4,32
18136,4e-05,7e-05,0.00019,9e-05,-0.00056,0.00034,-4e-05,-3e-05,4,32
18139,4e-05,7e-05,0.00019,9e-05,-0.00056,0.00034,-4e-05,-3e-05,4,32
18140,4e-05,7e-05,0.00019,9e-05,-0.00056,0.00034,-4e-05,-3e-05,4,32
18141,4e-05,7e-05,0.00019,9e-05,-0.00056,0.00034,-4e-05,-3e-05,4,32
18142,4e-05,7e-05,0.00019,9e-05,-0.00056,0.00034,-4e-05,-3e-05,4,32
18143,0,-8e-05,-0.00023,-0.00043,-0.00049,0.00032,8e-05,-1e-05,4,32
18144,-2e-05,6e-05,0.00017,9e-05,0.00023,-0.00023,-6e-05,-5e-05,4,32
18145,-3e-05,-7e-05,-0.00012,-0.00033,-0.00024,-0.00012,-0.00012,-6e-05,4,32
18146,-3e-05,-7e-05,-0.00012,-0.00033,-0.00024,-0.00012,-0.00012,-6e-05,4,32
18147,-3e-05,-7e-05,-0.00012,-0.00033,-0.00024,-0.00012,-0.00012,-6e-05,4,32
18148,-3e-05,-7e-05,-0.00012,-0.00033,-0.00024,-0.00012,-0.00012,-6e-05,4,32
18149,-3e-05,-7e-05,-0.00012,-0.00033,-0.00024,-0.00012,-0.00012,-6e-05,4,32
18150,-3e-05,-7e-05,-0.00012,-0.00033,-0.00024,-0.00012,-0.00012,-6e-05,4,32
18151,-3e-05,-7e-05,-0.00012,-0.00033,-0.00024,-0.00012,-0.00012,-6e-05,4,32
18152,-3e-05,-7e-05,-0.00012,-0.00033,-0.00024,-0.00012,-0.00012,-6e-05,4,32
18153,-3e-05,-7e-05,-0.00012,-0.00033,-0.00024,-0.00012,-0.00012,-6e-05,4,32
18154,-3e-05,-7e-05,-0.00012,-0.00033,-0.00024,-0.00012,-0.00012,-6e-05,4,32
18155,-3e-05,-7e-05,-0.00012,-0.00033,-0.00024,-0.00012,-0.00012,-6e-05,4,32
18156,-3e-05,-7e-05,-0.00012,-0.00033,-0.00024,-0.00012,-0.00012,-6e-05,4,32
18157,0,8e-05,0.00013,0.0003,6e-05,0.00011,6e-05,1e-05,4,32
18158,0,8e-05,0.00013,0.0003,6e-05,0.00011,6e-05,1e-05,4,32
18159,0,8e-05,0.00013,0.0003,6e-05,0.00011,6e-05,1e-05,4,32
18160,0,8e-05,0.00013,0.0003,6e-05,0.00011,6e-05,1e-05,4,32
18161,0,8e-05,0.00013,0.0003,6e-05,0.00011,6e-05,1e-05,4,32
18162,0,8e-05,0.00013,0.0003,6e-05,0.00011,6e-05,1e-05,4,32
18163,0,8e-05,0.00013,0.0003,6e-05,0.00011,6e-05,1e-05,4,32
18164,0,8e-05,0.00013,0.0003,6e-05,0.00011,6e-05,1e-05,4,32
18165,0,8e-05,0.00013,0.0003,6e-05,0.00011,6e-05,1e-05,4,32
18166,0,8e-05,0.00013,0.0003,6e-05,0.00011,6e-05,1e-05,4,32
18167,0,8e-05,0.00013,0.0003,6e-05,0.00011,6e-05,1e-05,4,32
18168,0,8e-05,0.00013,0.0003,6e-05,0.00011,6e-05,1e-05,4,32
18169,0,8e-05,0.00013,0.0003,6e-05,0.00011,6e-05,1e-05,4,32
18170,0,8e-05,0.00013,0.0003,6e-05,0.00011,6e-05,1e-05,4,32
18171,0,8e-05,0.00013,0.0003,6e-05,0.00011,6e-05,1e-05,4,32
18172,0,8e-05,0.00013,0.0003,6e-05,0.00011,6e-05,1e-05,4,32
18173,0,8e-05,0.00013,0.0003,6e-05,0.00011,6e-05,1e-05,4,32
18174,0,8e-05,0.00013,0.0003,6e-05,0.00011,6e-05,1e-05,4,32
18175,0,8e-05,0.00013,0.0003,6e-05,0.00011,6e-05,1e-05,4,32
18176,0,8e-05,0.00013,0.0003,6e-05,0.00011,6e-05,1e-05,4,32
18177,0,8e-05,0.00013,0.0003,6e-05,0.00011,6e-05,1e-05,4,32
18178,0,8e-05,0.00013,0.0003,6e-05,0.00011,6e-05,1e-05,4,32
18179,0,8e-05,0.00013,0.0003,6e-05,0.00011,6e-05,1e-05,4,32
18180,0,8e-05,0.00013,0.0003,6e-05,0.00011,6e-05,1e-05,4,32
18181,-0.0001,-7e-05,-6e-05,3e-05,0.00057,0.00021,3e-05,-2e-05,4,32
18182,-5e-05,-0.00013,-0.0002,-0.00013,0.00033,5e-05,-4e-05,-2e-05,4,32
18183,-4e-05,-6e-05,-0.0001,-0.00012,-0.00126,-0.00117,-0.00018,-7e-05,4,32
18184,-4e-05,-6e-05,-0.0001,-0.00012,-0.00126,-0.00117,-0.00018,-7e-05,4,32
18185,-4e-05,-6e-05,-0.0001,-0.00012,-0.00126,-0.00117,-0.00018,-7e-05,4,32
18186,-4e-05,-6e-05,-0.0001,-0.00012,-0.00126,-0.00117,-0.00018,-7e-05,4,32
18189,-4e-05,-6e-05,-0.0001,-0.00012,-0.00126,-0.00117,-0.00018,-7e-05,4,32
18190,-4e-05,-6e-05,-0.0001,-0.00012,-0.00126,-0.00117,-0.00018,-7e-05,4,32
18191,-4e-05,-6e-05,-0.0001,-0.00012,-0.00126,-0.00117,-0.00018,-7e-05,4,32
18192,-4e-05,-6e-05,-0.0001,-0.00012,-0.00126,-0.00117,-0.00018,-7e-05,4,32
18193,-4e-05,-6e-05,-0.0001,-0.00012,-0.00126,-0.00117,-0.00018,-7e-05,4,32
18194,-4e-05,-6e-05,-0.0001,-0.00012,-0.00126,-0.00117,-0.00018,-7e-05,4,32
18195,-4e-05,-6e-05,-0.0001,-0.00012,-0.00126,-0.00117,-0.00018,-7e-05,4,32
18196,-4e-05,-6e-05,-0.0001,-0.00012,-0.00126,-0.00117,-0.00018,-7e-05,4,32
18197,-4e-05,-6e-05,-0.0001,-0.00012,-0.00126,-0.00117,-0.00018,-7e-05,4,32
18198,-4e-05,-6e-05,-0.0001,-0.00012,-0.00126,-0.00117,-0.00018,-7e-05,4,32
18199,-4e-05,-6e-05,-0.0001,-0.00012,-0.00126,-0.00117,-0.00018,-7e-05,4,32
18200,-4e-05,-6e-05,-0.0001,-0.00012,-0.00126,-0.00117,-0.00018,-7e-05,4,32
18201,-4e-05,-6e-05,-0.0001,-0.00012,-0.00126,-0.00117,-0.00018,-7e-05,4,32
18202,-4e-05,-6e-05,-0.0001,-0.00012,-0.00126,-0.00117,-0.00018,-7e-05,4,32
18203,2e-05,3e-05,0.00011,0.00034,0.00036,0.00022,-1e-05,1e-05,4,32
18204,2e-05,3e-05,0.00011,0.00034,0.00036,0.00022,-1e-05,1e-05,4,32
18205,-4e-05,-4e-05,-0.00019,-0.00034,-0.00019,4e-05,-4e-05,-2e-05,4,32
18206,-4e-05,-4e-05,-0.00019,-0.00034,-0.00019,4e-05,-4e-05,-2e-05,4,32
18207,-4e-05,-4e-05,-0.00019,-0.00034,-0.00019,4e-05,-4e-05,-2e-05,4,32
18208,-4e-05,-4e-05,-0.00019,-0.00034,-0.00019,4e-05,-4e-05,-2e-05,4,32
18209,-4e-05,-4e-05,-0.00019,-0.00034,-0.00019,4e-05,-4e-05,-2e-05,4,32
18210,-4e-05,-4e-05,-0.00019,-0.00034,-0.00019,4e-05,-4e-05,-2e-05,4,32
18211,-4e-05,-4e-05,-0.00019,-0.00034,-0.00019,4e-05,-4e-05,-2e-05,4,32
18212,-4e-05,-4e-05,-0.00019,-0.00034,-0.00019,4e-05,-4e-05,-2e-05,4,32
18213,-4e-05,-4e-05,-0.00019,-0.00034,-0.00019,4e-05,-4e-05,-2e-05,4,32
18214,-4e-05,-4e-05,-0.00019,-0.00034,-0.00019,4e-05,-4e-05,-2e-05,4,32
18215,-4e-05,-4e-05,-0.00019,-0.00034,-0.00019,4e-05,-4e-05,-2e-05,4,32
18216,-4e-05,-4e-05,-0.00019,-0.00034,-0.00019,4e-05,-4e-05,-2e-05,4,32
18217,-4e-05,-4e-05,-0.00019,-0.00034,-0.00019,4e-05,-4e-05,-2e-05,4,32
18218,-1e-05,-2e-05,-5e-05,-0.00024,0.00015,-0.00061,-6e-05,-2e-05,4,32
18219,-1e-05,-2e-05,-5e-05,-0.00024,0.00015,-0.00061,-6e-05,-2e-05,4,32
18220,-1e-05,-2e-05,-5e-05,-0.00024,0.00015,-0.00061,-6e-05,-2e-05,4,32
18221,-1e-05,-2e-05,-5e-05,-0.00024,0.00015,-0.00061,-6e-05,-2e-05,4,32
18222,-1e-05,-2e-05,-5e-05,-0.00024,0.00015,-0.00061,-6e-05,-2e-05,4,32
18223,-1e-05,-2e-05,-5e-05,-0.00024,0.00015,-0.00061,-6e-05,-2e-05,4,32
18224,3e-05,4e-05,-3e-05,-0.00048,-0.00025,-0.00062,-4e-05,-3e-05,4,32
18225,3e-05,4e-05,-3e-05,-0.00048,-0.00025,-0.00062,-4e-05,-3e-05,4,32
18226,3e-05,4e-05,-3e-05,-0.00048,-0.00025,-0.00062,-4e-05,-3e-05,4,32
18227,3e-05,4e-05,-3e-05,-0.00048,-0.00025,-0.00062,-4e-05,-3e-05,4,32
18228,3e-05,4e-05,-3e-05,-0.00048,-0.00025,-0.00062,-4e-05,-3e-05,4,32
18229,3e-05,4e-05,-3e-05,-0.00048,-0.00025,-0.00062,-4e-05,-3e-05,4,32
18230,3e-05,4e-05,-3e-05,-0.00048,-0.00025,-0.00062,-4e-05,-3e-05,4,32
18231,3e-05,4e-05,-3e-05,-0.00048,-0.00025,-0.00062,-4e-05,-3e-05,4,32
18232,3e-05,4e-05,-3e-05,-0.00048,-0.00025,-0.00062,-4e-05,-3e-05,4,32
18233,3e-05,4e-05,-3e-05,-0.00048,-0.00025,-0.00062,-4e-05,-3e-05,4,32
18234,3e-05,4e-05,-3e-05,-0.00048,-0.00025,-0.00062,-4e-05,-3e-05,4,32
18235,3e-05,4e-05,-3e-05,-0.00048,-0.00025,-0.00062,-4e-05,-3e-05,4,32
18236,3e-05,4e-05,-3e-05,-0.00048,-0.00025,-0.00062,-4e-05,-3e-05,4,32
18238,3e-05,4e-05,-3e-05,-0.00048,-0.00025,-0.00062,-4e-05,-3e-05,4,32
18240,3e-05,4e-05,-3e-05,-0.00048,-0.00025,-0.00062,-4e-05,-3e-05,4,32
18241,0,-0.0001,-0.00015,-0.00061,-0.0007,0.00042,1e-05,-3e-05,4,32
18242,1e-05,3e-05,0.00012,0.00052,0.00012,2e-05,9e-05,3e-05,4,32
18243,1e-05,3e-05,0.00012,0.00052,0.00012,2e-05,9e-05,3e-05,4,32
18244,1e-05,3e-05,0.00012,0.00052,0.00012,2e-05,9e-05,3e-05,4,32
18245,1e-05,3e-05,0.00012,0.00052,0.00012,2e-05,9e-05,3e-05,4,32
18246,1e-05,3e-05,0.00012,0.00052,0.00012,2e-05,9e-05,3e-05,4,32
18247,1e-05,3e-05,0.00012,0.00052,0.00012,2e-05,9e-05,3e-05,4,32
18248,1e-05,3e-05,0.00012,0.00052,0.00012,2e-05,9e-05,3e-05,4,32
18249,1e-05,3e-05,0.00012,0.00052,0.00012,2e-05,9e-05,3e-05,4,32
18250,1e-05,3e-05,0.00012,0.00052,0.00012,2e-05,9e-05,3e-05,4,32
18251,1e-05,3e-05,0.00012,0.00052,0.00012,2e-05,9e-05,3e-05,4,32
18252,1e-05,3e-05,0.00012,0.00052,0.00012,2e-05,9e-05,3e-05,4,32
18253,1e-05,3e-05,0.00012,0.00052,0.00012,2e-05,9e-05,3e-05,4,32
18254,1e-05,3e-05,0.00012,0.00052,0.00012,2e-05,9e-05,3e-05,4,32
18255,1e-05,3e-05,0.00012,0.00052,0.00012,2e-05,9e-05,3e-05,4,32
18256,1e-05,3e-05,0.00012,0.00052,0.00012,2e-05,9e-05,3e-05,4,32
18257,1e-05,3e-05,0.00012,0.00052,0.00012,2e-05,9e-05,3e-05,4,32
18258,1e-05,3e-05,0.00012,0.00052,0.00012,2e-05,9e-05,3e-05,4,32
18259,1e-05,3e-05,0.00012,0.00052,0.00012,2e-05,9e-05,3e-05,4,32
18260,1e-05,3e-05,0.00012,0.00052,0.00012,2e-05,9e-05,3e-05,4,32
18261,1e-05,3e-05,0.00012,0.00052,0.00012,2e-05,9e-05,3e-05,4,32
18262,1e-05,3e-05,0.00012,0.00052,0.00012,2e-05,9e-05,3e-05,4,32
18263,-1e-05,6e-05,0.00019,0.00033,-0.00046,-0.0002,-0.00015,-6e-05,4,32
18264,-1e-05,3e-05,0.00011,0.00019,-0.00057,0,-8e-05,-2e-05,4,32
18265,-1e-05,3e-05,0.00011,0.00019,-0.00057,0,-8e-05,-2e-05,4,32
18266,-1e-05,3e-05,0.00011,0.00019,-0.00057,0,-8e-05,-2e-05,4,32
18267,-1e-05,3e-05,0.00011,0.00019,-0.00057,0,-8e-05,-2e-05,4,32
18268,-1e-05,3e-05,0.00011,0.00019,-0.00057,0,-8e-05,-2e-05,4,32
18269,-1e-05,3e-05,0.00011,0.00019,-0.00057,0,-8e-05,-2e-05,4,32
18270,-1e-05,3e-05,0.00011,0.00019,-0.00057,0,-8e-05,-2e-05,4,32
18271,-1e-05,3e-05,0.00011,0.00019,-0.00057,0,-8e-05,-2e-05,4,32
18272,-1e-05,3e-05,0.00011,0.00019,-0.00057,0,-8e-05,-2e-05,4,32
18273,-1e-05,3e-05,0.00011,0.00019,-0.00057,0,-8e-05,-2e-05,4,32
18274,-1e-05,3e-05,0.00011,0.00019,-0.00057,0,-8e-05,-2e-05,4,32
18275,-1e-05,3e-05,0.00011,0.00019,-0.00057,0,-8e-05,-2e-05,4,32
18276,-1e-05,3e-05,0.00011,0.00019,-0.00057,0,-8e-05,-2e-05,4,32
18277,1e-05,3e-05,0.00016,0.00071,0.00114,0.0004,7e-05,1e-05,4,32
18278,1e-05,3e-05,0.00016,0.00071,0.00114,0.0004,7e-05,1e-05,4,32
18279,1e-05,3e-05,0.00016,0.00071,0.00114,0.0004,7e-05,1e-05,4,32
18280,1e-05,3e-05,0.00016,0.00071,0.00114,0.0004,7e-05,1e-05,4,32
18281,1e-05,3e-05,0.00016,0.00071,0.00114,0.0004,7e-05,1e-05,4,32
18282,1e-05,3e-05,0.00016,0.00071,0.00114,0.0004,7e-05,1e-05,4,32
18283,1e-05,3e-05,0.00016,0.00071,0.00114,0.0004,7e-05,1e-05,4,32
18284,1e-05,3e-05,0.00016,0.00071,0.00114,0.0004,7e-05,1e-05,4,32
18285,-6e-05,-7e-05,-4e-05,0.00047,0.00048,0.00082,-5e-05,-4e-05,4,32
18286,-6e-05,-7e-05,-4e-05,0.00047,0.00048,0.00082,-5e-05,-4e-05,4,32
18288,-6e-05,-7e-05,-4e-05,0.00047,0.00048,0.00082,-5e-05,-4e-05,4,32
18289,-6e-05,-7e-05,-4e-05,0.00047,0.00048,0.00082,-5e-05,-4e-05,4,32
18290,-6e-05,-7e-05,-4e-05,0.00047,0.00048,0.00082,-5e-05,-4e-05,4,32
18291,-6e-05,-7e-05,-4e-05,0.00047,0.00048,0.00082,-5e-05,-4e-05,4,32
18292,-6e-05,-7e-05,-4e-05,0.00047,0.00048,0.00082,-5e-05,-4e-05,4,32
18293,-6e-05,-7e-05,-4e-05,0.00047,0.00048,0.00082,-5e-05,-4e-05,4,32
18294,-6e-05,-7e-05,-4e-05,0.00047,0.00048,0.00082,-5e-05,-4e-05,4,32
18295,-6e-05,-7e-05,-4e-05,0.00047,0.00048,0.00082,-5e-05,-4e-05,4,32
18296,-6e-05,-7e-05,-4e-05,0.00047,0.00048,0.00082,-5e-05,-4e-05,4,32
18297,-6e-05,-7e-05,-4e-05,0.00047,0.00048,0.00082,-5e-05,-4e-05,4,32
18298,-6e-05,-7e-05,-4e-05,0.00047,0.00048,0.00082,-5e-05,-4e-05,4,32
18299,-6e-05,-7e-05,-4e-05,0.00047,0.00048,0.00082,-5e-05,-4e-05,4,32
18300,-6e-05,-7e-05,-4e-05,0.00047,0.00048,0.00082,-5e-05,-4e-05,4,32
18301,-2e-05,4e-05,3e-05,-9e-05,0.0002,-0.00012,-5e-05,-1e-05,4,32
18302,-4e-05,-0.0001,-0.00022,1e-05,-0.00036,-0.00058,3e-05,0,4,32
18303,-4e-05,-0.0001,-0.00022,1e-05,-0.00036,-0.00058,3e-05,0,4,32
18304,-4e-05,-0.0001,-0.00022,1e-05,-0.00036,-0.00058,3e-05,0,4,32
18305,-4e-05,-0.0001,-0.00022,1e-05,-0.00036,-0.00058,3e-05,0,4,32
18306,-4e-05,-0.0001,-0.00022,1e-05,-0.00036,-0.00058,3e-05,0,4,32
18307,-4e-05,-0.0001,-0.00022,1e-05,-0.00036,-0.00058,3e-05,0,4,32
18308,-4e-05,-0.0001,-0.00022,1e-05,-0.00036,-0.00058,3e-05,0,4,32
18309,-4e-05,-0.0001,-0.00022,1e-05,-0.00036,-0.00058,3e-05,0,4,32
18310,-4e-05,-0.0001,-0.00022,1e-05,-0.00036,-0.00058,3e-05,0,4,32
18311,-4e-05,-0.0001,-0.00022,1e-05,-0.00036,-0.00058,3e-05,0,4,32
18312,-4e-05,-0.0001,-0.00022,1e-05,-0.00036,-0.00058,3e-05,0,4,32
18313,-4e-05,-0.0001,-0.00022,1e-05,-0.00036,-0.00058,3e-05,0,4,32
18314,-4e-05,-0.0001,-0.00022,1e-05,-0.00036,-0.00058,3e-05,0,4,32
18315,-4e-05,-0.0001,-0.00022,1e-05,-0.00036,-0.00058,3e-05,0,4,32
18316,-4e-05,-0.0001,-0.00022,1e-05,-0.00036,-0.00058,3e-05,0,4,32
18317,-4e-05,-0.0001,-0.00022,1e-05,-0.00036,-0.00058,3e-05,0,4,32
18318,-4e-05,-0.0001,-0.00022,1e-05,-0.00036,-0.00058,3e-05,0,4,32
18319,-4e-05,-0.0001,-0.00022,1e-05,-0.00036,-0.00058,3e-05,0,4,32
18320,-4e-05,-0.0001,-0.00022,1e-05,-0.00036,-0.00058,3e-05,0,4,32
18321,-4e-05,-0.0001,-0.00022,1e-05,-0.00036,-0.00058,3e-05,0,4,32
18322,-4e-05,-0.0001,-0.00022,1e-05,-0.00036,-0.00058,3e-05,0,4,32
18323,-5e-05,-8e-05,-0.00023,-0.00031,0.00026,-2e-05,-9e-05,-2e-05,4,32
18324,-5e-05,-8e-05,-0.00023,-0.00031,0.00026,-2e-05,-9e-05,-2e-05,4,32
18325,4e-05,5e-05,0.00014,0.00013,-0.00044,-0.00054,3e-05,2e-05,4,32
18326,4e-05,5e-05,0.00014,0.00013,-0.00044,-0.00054,3e-05,2e-05,4,32
18327,4e-05,5e-05,0.00014,0.00013,-0.00044,-0.00054,3e-05,2e-05,4,32
18328,4e-05,5e-05,0.00014,0.00013,-0.00044,-0.00054,3e-05,2e-05,4,32
18329,4e-05,5e-05,0.00014,0.00013,-0.00044,-0.00054,3e-05,2e-05,4,32
18330,4e-05,5e-05,0.00014,0.00013,-0.00044,-0.00054,3e-05,2e-05,4,32
18331,4e-05,5e-05,0.00014,0.00013,-0.00044,-0.00054,3e-05,2e-05,4,32
18332,4e-05,5e-05,0.00014,0.00013,-0.00044,-0.00054,3e-05,2e-05,4,32
18333,4e-05,5e-05,0.00014,0.00013,-0.00044,-0.00054,3e-05,2e-05,4,32
18334,4e-05,5e-05,0.00014,0.00013,-0.00044,-0.00054,3e-05,2e-05,4,32
18335,4e-05,5e-05,0.00014,0.00013,-0.00044,-0.00054,3e-05,2e-05,4,32
18336,-3e-05,3e-05,7e-05,0.00016,-6e-05,-0.00023,-3e-05,-3e-05,4,32
18338,-3e-05,3e-05,7e-05,0.00016,-6e-05,-0.00023,-3e-05,-3e-05,4,32
18339,-3e-05,3e-05,7e-05,0.00016,-6e-05,-0.00023,-3e-05,-3e-05,4,32
18340,-3e-05,3e-05,7e-05,0.00016,-6e-05,-0.00023,-3e-05,-3e-05,4,32
18341,-3e-05,3e-05,7e-05,0.00016,-6e-05,-0.00023,-3e-05,-3e-05,4,32
18342,-3e-05,3e-05,7e-05,0.00016,-6e-05,-0.00023,-3e-05,-3e-05,4,32
18343,-3e-05,3e-05,7e-05,0.00016,-6e-05,-0.00023,-3e-05,-3e-05,4,32
18344,-3e-05,3e-05,7e-05,0.00016,-6e-05,-0.00023,-3e-05,-3e-05,4,32
18345,-2e-05,-4e-05,-8e-05,0.00048,-0.00041,0.00018,0,-3e-05,4,32
18346,-2e-05,-4e-05,-8e-05,0.00048,-0.00041,0.00018,0,-3e-05,4,32
18347,-2e-05,-4e-05,-8e-05,0.00048,-0.00041,0.00018,0,-3e-05,4,32
18348,-2e-05,-4e-05,-8e-05,0.00048,-0.00041,0.00018,0,-3e-05,4,32
18349,-2e-05,-4e-05,-8e-05,0.00048,-0.00041,0.00018,0,-3e-05,4,32
18350,-2e-05,-4e-05,-8e-05,0.00048,-0.00041,0.00018,0,-3e-05,4,32
18351,-2e-05,-4e-05,-8e-05,0.00048,-0.00041,0.00018,0,-3e-05,4,32
18352,-2e-05,-4e-05,-8e-05,0.00048,-0.00041,0.00018,0,-3e-05,4,32
18353,-2e-05,-4e-05,-8e-05,0.00048,-0.00041,0.00018,0,-3e-05,4,32
18354,-2e-05,-4e-05,-8e-05,0.00048,-0.00041,0.00018,0,-3e-05,4,32
18355,-2e-05,-4e-05,-8e-05,0.00048,-0.00041,0.00018,0,-3e-05,4,32
18356,-2e-05,-4e-05,-8e-05,0.00048,-0.00041,0.00018,0,-3e-05,4,32
18357,-2e-05,-4e-05,-8e-05,0.00048,-0.00041,0.00018,0,-3e-05,4,32
18358,-2e-05,-4e-05,-8e-05,0.00048,-0.00041,0.00018,0,-3e-05,4,32
18359,-2e-05,-4e-05,-8e-05,0.00048,-0.00041,0.00018,0,-3e-05,4,32
18360,2e-05,2e-05,4e-05,2e-05,-0.00124,-0.00036,-4e-05,-1e-05,4,32
18361,2e-05,2e-05,4e-05,2e-05,-0.00124,-0.00036,-4e-05,-1e-05,4,32
18362,3e-05,7e-05,0.00016,-0.0001,-0.00045,0,-8e-05,-1e-05,4,32
18363,3e-05,7e-05,0.00016,-0.0001,-0.00045,0,-8e-05,-1e-05,4,32
18364,3e-05,7e-05,0.00016,-0.0001,-0.00045,0,-8e-05,-1e-05,4,32
18365,3e-05,7e-05,0.00016,-0.0001,-0.00045,0,-8e-05,-1e-05,4,32
18366,3e-05,7e-05,0.00016,-0.0001,-0.00045,0,-8e-05,-1e-05,4,32
18367,3e-05,7e-05,0.00016,-0.0001,-0.00045,0,-8e-05,-1e-05,4,32
18368,3e-05,7e-05,0.00016,-0.0001,-0.00045,0,-8e-05,-1e-05,4,32
18369,3e-05,7e-05,0.00016,-0.0001,-0.00045,0,-8e-05,-1e-05,4,32
18370,3e-05,7e-05,0.00016,-0.0001,-0.00045,0,-8e-05,-1e-05,4,32
18371,3e-05,7e-05,0.00016,-0.0001,-0.00045,0,-8e-05,-1e-05,4,32
18372,3e-05,7e-05,0.00016,-0.0001,-0.00045,0,-8e-05,-1e-05,4,32
18373,3e-05,7e-05,0.00016,-0.0001,-0.00045,0,-8e-05,-1e-05,4,32
18374,3e-05,7e-05,0.00016,-0.0001,-0.00045,0,-8e-05,-1e-05,4,32
18375,3e-05,7e-05,0.00016,-0.0001,-0.00045,0,-8e-05,-1e-05,4,32
18376,3e-05,7e-05,0.00016,-0.0001,-0.00045,0,-8e-05,-1e-05,4,32
18377,3e-05,7e-05,0.00016,-0.0001,-0.00045,0,-8e-05,-1e-05,4,32
18378,3e-05,7e-05,0.00016,-0.0001,-0.00045,0,-8e-05,-1e-05,4,32
18379,3e-05,7e-05,0.00016,-0.0001,-0.00045,0,-8e-05,-1e-05,4,32
18380,3e-05,7e-05,0.00016,-0.0001,-0.00045,0,-8e-05,-1e-05,4,32
18381,3e-05,7e-05,0.00016,-0.0001,-0.00045,0,-8e-05,-1e-05,4,32
18382,3e-05,7e-05,0.00016,-0.0001,-0.00045,0,-8e-05,-1e-05,4,32
18383,4e-05,-4e-05,-7e-05,-0.00016,-0.00069,-8e-05,0.00011,4e-05,4,32
18384,2e-05,3e-05,0.00015,0.00045,0.00031,0.00011,-2e-05,2e-05,4,32
18385,1e-05,-1e-05,-0.00011,-0.00049,0.00021,-0.00014,2e-05,-2e-05,4,32
18386,1e-05,-1e-05,-0.00011,-0.00049,0.00021,-0.00014,2e-05,-2e-05,4,32
18388,1e-05,-1e-05,-0.00011,-0.00049,0.00021,-0.00014,2e-05,-2e-05,4,32
18389,1e-05,-1e-05,-0.00011,-0.00049,0.00021,-0.00014,2e-05,-2e-05,4,32
18390,1e-05,-1e-05,-0.00011,-0.00049,0.00021,-0.00014,2e-05,-2e-05,4,32
18391,1e-05,-1e-05,-0.00011,-0.00049,0.00021,-0.00014,2e-05,-2e-05,4,32
18392,1e-05,-1e-05,-0.00011,-0.00049,0.00021,-0.00014,2e-05,-2e-05,4,32
18393,1e-05,-1e-05,-0.00011,-0.00049,0.00021,-0.00014,2e-05,-2e-05,4,32
18394,1e-05,-1e-05,-0.00011,-0.00049,0.00021,-0.00014,2e-05,-2e-05,4,32
18395,1e-05,-1e-05,-0.00011,-0.00049,0.00021,-0.00014,2e-05,-2e-05,4,32
18396,1e-05,-1e-05,-0.00011,-0.00049,0.00021,-0.00014,2e-05,-2e-05,4,32
18397,-9e-05,-7e-05,-0.0001,-0.00032,-0.00087,0.00014,-5e-05,-5e-05,4,32
18398,-9e-05,-7e-05,-0.0001,-0.00032,-0.00087,0.00014,-5e-05,-5e-05,4,32
18399,-9e-05,-7e-05,-0.0001,-0.00032,-0.00087,0.00014,-5e-05,-5e-05,4,32
18400,-9e-05,-7e-05,-0.0001,-0.00032,-0.00087,0.00014,-5e-05,-5e-05,4,32
18401,-9e-05,-7e-05,-0.0001,-0.00032,-0.00087,0.00014,-5e-05,-5e-05,4,32
18402,-9e-05,-7e-05,-0.0001,-0.00032,-0.00087,0.00014,-5e-05,-5e-05,4,32
18403,-9e-05,-7e-05,-0.0001,-0.00032,-0.00087,0.00014,-5e-05,-5e-05,4,32
18404,-9e-05,-7e-05,-0.0001,-0.00032,-0.00087,0.00014,-5e-05,-5e-05,4,32
18405,-9e-05,-7e-05,-0.0001,-0.00032,-0.00087,0.00014,-5e-05,-5e-05,4,32
18406,-9e-05,-7e-05,-0.0001,-0.00032,-0.00087,0.00014,-5e-05,-5e-05,4,32
18407,-9e-05,-7e-05,-0.0001,-0.00032,-0.00087,0.00014,-5e-05,-5e-05,4,32
18408,-9e-05,-7e-05,-0.0001,-0.00032,-0.00087,0.00014,-5e-05,-5e-05,4,32
18409,-9e-05,-7e-05,-0.0001,-0.00032,-0.00087,0.00014,-5e-05,-5e-05,4,32
18410,-9e-05,-7e-05,-0.0001,-0.00032,-0.00087,0.00014,-5e-05,-5e-05,4,32
18411,-9e-05,-7e-05,-0.0001,-0.00032,-0.00087,0.00014,-5e-05,-5e-05,4,32
18412,-9e-05,-7e-05,-0.0001,-0.00032,-0.00087,0.00014,-5e-05,-5e-05,4,32
18413,-9e-05,-7e-05,-0.0001,-0.00032,-0.00087,0.00014,-5e-05,-5e-05,4,32
18414,-9e-05,-7e-05,-0.0001,-0.00032,-0.00087,0.00014,-5e-05,-5e-05,4,32
18415,-9e-05,-7e-05,-0.0001,-0.00032,-0.00087,0.00014,-5e-05,-5e-05,4,32
18416,-9e-05,-7e-05,-0.0001,-0.00032,-0.00087,0.00014,-5e-05,-5e-05,4,32
18417,-9e-05,-7e-05,-0.0001,-0.00032,-0.00087,0.00014,-5e-05,-5e-05,4,32
18418,-9e-05,-7e-05,-0.0001,-0.00032,-0.00087,0.00014,-5e-05,-5e-05,4,32
18419,-9e-05,-7e-05,-0.0001,-0.00032,-0.00087,0.00014,-5e-05,-5e-05,4,32
18420,-9e-05,-7e-05,-0.0001,-0.00032,-0.00087,0.00014,-5e-05,-5e-05,4,32
18421,-2e-05,2e-05,2e-05,-0.00031,-8e-05,0.00033,0,-1e-05,4,32
18422,8e-05,7e-05,0.00017,0.00035,0.00042,0.00087,0.00028,0.0001,4,32
18423,8e-05,7e-05,0.00017,0.00035,0.00042,0.00087,0.00028,0.0001,4,32
18424,1e-05,-2e-05,-0.00024,-0.00056,0.00106,-5e-05,5e-05,3e-05,4,32
18425,1e-05,-2e-05,-0.00024,-0.00056,0.00106,-5e-05,5e-05,3e-05,4,32
18426,1e-05,-2e-05,-0.00024,-0.00056,0.00106,-5e-05,5e-05,3e-05,4,32
18427,1e-05,-2e-05,-0.00024,-0.00056,0.00106,-5e-05,5e-05,3e-05,4,32
18428,1e-05,-2e-05,-0.00024,-0.00056,0.00106,-5e-05,5e-05,3e-05,4,32
18429,1e-05,-2e-05,-0.00024,-0.00056,0.00106,-5e-05,5e-05,3e-05,4,32
18430,1e-05,-2e-05,-0.00024,-0.00056,0.00106,-5e-05,5e-05,3e-05,4,32
18431,1e-05,-2e-05,-0.00024,-0.00056,0.00106,-5e-05,5e-05,3e-05,4,32
18432,1e-05,-2e-05,-0.00024,-0.00056,0.00106,-5e-05,5e-05,3e-05,4,32
18433,1e-05,-2e-05,-0.00024,-0.00056,0.00106,-5e-05,5e-05,3e-05,4,32
18434,1e-05,-2e-05,-0.00024,-0.00056,0.00106,-5e-05,5e-05,3e-05,4,32
18435,1e-05,-2e-05,-0.00024,-0.00056,0.00106,-5e-05,5e-05,3e-05,4,32
18437,1e-05,-2e-05,-0.00024,-0.00056,0.00106,-5e-05,5e-05,3e-05,4,32
18440,1e-05,-2e-05,-0.00024,-0.00056,0.00106,-5e-05,5e-05,3e-05,4,32
18441,1e-05,-2e-05,-0.00024,-0.00056,0.00106,-5e-05,5e-05,3e-05,4,32
18442,1e-05,-2e-05,-0.00024,-0.00056,0.00106,-5e-05,5e-05,3e-05,4,32
18443,1e-05,-2e-05,-0.00024,-0.00056,0.00106,-5e-05,5e-05,3e-05,4,32
18444,1e-05,-2e-05,-0.00024,-0.00056,0.00106,-5e-05,5e-05,3e-05,4,32
18445,1e-05,-2e-05,-0.00024,-0.00056,0.00106,-5e-05,5e-05,3e-05,4,32
18446,1e-05,-2e-05,-0.00024,-0.00056,0.00106,-5e-05,5e-05,3e-05,4,32
18447,1e-05,-2e-05,-0.00024,-0.00056,0.00106,-5e-05,5e-05,3e-05,4,32
18448,1e-05,-2e-05,-0.00024,-0.00056,0.00106,-5e-05,5e-05,3e-05,4,32
18449,1e-05,-2e-05,-0.00024,-0.00056,0.00106,-5e-05,5e-05,3e-05,4,32
18450,-7e-05,-0.00015,-0.00029,-0.00045,-0.00028,-0.00019,-6e-05,-4e-05,4,32
18451,-7e-05,-0.00015,-0.00029,-0.00045,-0.00028,-0.00019,-6e-05,-4e-05,4,32
18452,-2e-05,0,5e-05,-0.00033,-0.00086,1e-05,0,-1e-05,4,32
18453,-2e-05,0,5e-05,-0.00033,-0.00086,1e-05,0,-1e-05,4,32
18454,-2e-05,0,5e-05,-0.00033,-0.00086,1e-05,0,-1e-05,4,32
18455,-2e-05,0,5e-05,-0.00033,-0.00086,1e-05,0,-1e-05,4,32
18456,-2e-05,0,5e-05,-0.00033,-0.00086,1e-05,0,-1e-05,4,32
18457,-7e-05,-9e-05,-0.0001,-2e-05,-0.00035,-0.0005,-0.00018,-7e-05,4,32
18458,-7e-05,-9e-05,-0.0001,-2e-05,-0.00035,-0.0005,-0.00018,-7e-05,4,32
18459,-7e-05,-9e-05,-0.0001,-2e-05,-0.00035,-0.0005,-0.00018,-7e-05,4,32
18460,-7e-05,-9e-05,-0.0001,-2e-05,-0.00035,-0.0005,-0.00018,-7e-05,4,32
18461,-7e-05,-9e-05,-0.0001,-2e-05,-0.00035,-0.0005,-0.00018,-7e-05,4,32
18462,-7e-05,-9e-05,-0.0001,-2e-05,-0.00035,-0.0005,-0.00018,-7e-05,4,32
18463,-7e-05,-9e-05,-0.0001,-2e-05,-0.00035,-0.0005,-0.00018,-7e-05,4,32
18464,-7e-05,-9e-05,-0.0001,-2e-05,-0.00035,-0.0005,-0.00018,-7e-05,4,32
18465,-5e-05,-0.0001,-0.00023,-0.00088,-0.00068,-0.00074,-2e-05,-3e-05,4,32
18466,-6e-05,-4e-05,8e-05,0.00036,-0.0001,-0.00036,-8e-05,-3e-05,4,32
18467,-6e-05,-4e-05,8e-05,0.00036,-0.0001,-0.00036,-8e-05,-3e-05,4,32
18468,-6e-05,-4e-05,8e-05,0.00036,-0.0001,-0.00036,-8e-05,-3e-05,4,32
18469,-6e-05,-4e-05,8e-05,0.00036,-0.0001,-0.00036,-8e-05,-3e-05,4,32
18470,-6e-05,-4e-05,8e-05,0.00036,-0.0001,-0.00036,-8e-05,-3e-05,4,32
18471,-6e-05,-4e-05,8e-05,0.00036,-0.0001,-0.00036,-8e-05,-3e-05,4,32
18472,-6e-05,-4e-05,8e-05,0.00036,-0.0001,-0.00036,-8e-05,-3e-05,4,32
18473,-6e-05,-4e-05,8e-05,0.00036,-0.0001,-0.00036,-8e-05,-3e-05,4,32
18474,-6e-05,-4e-05,8e-05,0.00036,-0.0001,-0.00036,-8e-05,-3e-05,4,32
18475,-6e-05,-4e-05,8e-05,0.00036,-0.0001,-0.00036,-8e-05,-3e-05,4,32
18476,-6e-05,-4e-05,8e-05,0.00036,-0.0001,-0.00036,-8e-05,-3e-05,4,32
18477,-6e-05,-4e-05,8e-05,0.00036,-0.0001,-0.00036,-8e-05,-3e-05,4,32
18478,-6e-05,-4e-05,8e-05,0.00036,-0.0001,-0.00036,-8e-05,-3e-05,4,32
18479,-6e-05,-4e-05,8e-05,0.00036,-0.0001,-0.00036,-8e-05,-3e-05,4,32
18480,-3e-05,2e-05,0.00012,0.00023,-0.00013,0.00017,-1e-05,0,4,32
18481,-1e-05,0,-7e-05,-7e-05,0.00044,7e-05,4e-05,1e-05,4,32
18482,-5e-05,-5e-05,-3e-05,-3e-05,0.00022,-0.00019,-9e-05,-5e-05,4,32
18483,-5e-05,-5e-05,-3e-05,-3e-05,0.00022,-0.00019,-9e-05,-5e-05,4,32
18484,-5e-05,-5e-05,-3e-05,-3e-05,0.00022,-0.00019,-9e-05,-5e-05,4,32
18485,-5e-05,-5e-05,-3e-05,-3e-05,0.00022,-0.00019,-9e-05,-5e-05,4,32
18486,-5e-05,-5e-05,-3e-05,-3e-05,0.00022,-0.00019,-9e-05,-5e-05,4,32
18489,-5e-05,-5e-05,-3e-05,-3e-05,0.00022,-0.00019,-9e-05,-5e-05,4,32
18490,-5e-05,-5e-05,-3e-05,-3e-05,0.00022,-0.00019,-9e-05,-5e-05,4,32
18491,-5e-05,-5e-05,-3e-05,-3e-05,0.00022,-0.00019,-9e-05,-5e-05,4,32
18492,-5e-05,-5e-05,-3e-05,-3e-05,0.00022,-0.00019,-9e-05,-5e-05,4,32
18493,-5e-05,-5e-05,-3e-05,-3e-05,0.00022,-0.00019,-9e-05,-5e-05,4,32
18494,-5e-05,-5e-05,-3e-05,-3e-05,0.00022,-0.00019,-9e-05,-5e-05,4,32
18495,-5e-05,-5e-05,-3e-05,-3e-05,0.00022,-0.00019,-9e-05,-5e-05,4,32
18496,-5e-05,-5e-05,-3e-05,-3e-05,0.00022,-0.00019,-9e-05,-5e-05,4,32
18497,-5e-05,-5e-05,-3e-05,-3e-05,0.00022,-0.00019,-9e-05,-5e-05,4,32
18498,-5e-05,-5e-05,-3e-05,-3e-05,0.00022,-0.00019,-9e-05,-5e-05,4,32
18499,-5e-05,-5e-05,-3e-05,-3e-05,0.00022,-0.00019,-9e-05,-5e-05,4,32
18500,-5e-05,-5e-05,-3e-05,-3e-05,0.00022,-0.00019,-9e-05,-5e-05,4,32
18501,-5e-05,-5e-05,-3e-05,-3e-05,0.00022,-0.00019,-9e-05,-5e-05,4,32
18502,-5e-05,-5e-05,-3e-05,-3e-05,0.00022,-0.00019,-9e-05,-5e-05,4,32
18503,-4e-05,-6e-05,-0.00014,-0.00013,-0.00011,-0.00055,-0.00013,-4e-05,4,32
18504,-2e-05,-2e-05,-0.00015,-0.00013,-0.0008,0.0005,4e-05,0,4,32
18505,-2e-05,-2e-05,-0.00015,-0.00013,-0.0008,0.0005,4e-05,0,4,32
18506,-2e-05,-2e-05,-0.00015,-0.00013,-0.0008,0.0005,4e-05,0,4,32
18507,-2e-05,-2e-05,-0.00015,-0.00013,-0.0008,0.0005,4e-05,0,4,32
18508,-2e-05,-2e-05,-0.00015,-0.00013,-0.0008,0.0005,4e-05,0,4,32
18509,-2e-05,-2e-05,-0.00015,-0.00013,-0.0008,0.0005,4e-05,0,4,32
18510,-2e-05,-2e-05,-0.00015,-0.00013,-0.0008,0.0005,4e-05,0,4,32
18511,-2e-05,-2e-05,-0.00015,-0.00013,-0.0008,0.0005,4e-05,0,4,32
18512,-2e-05,-2e-05,-0.00015,-0.00013,-0.0008,0.0005,4e-05,0,4,32
18513,-2e-05,-2e-05,-0.00015,-0.00013,-0.0008,0.0005,4e-05,0,4,32
18514,-2e-05,-2e-05,-0.00015,-0.00013,-0.0008,0.0005,4e-05,0,4,32
18515,-2e-05,-2e-05,-0.00015,-0.00013,-0.0008,0.0005,4e-05,0,4,32
18516,-2e-05,-1e-05,0.0001,0.00044,-0.00024,0.0001,2e-05,-2e-05,4,32
18517,5e-05,7e-05,0.0002,0.00011,0.0002,2e-05,4e-05,0,4,32
18518,5e-05,7e-05,0.0002,0.00011,0.0002,2e-05,4e-05,0,4,32
18519,5e-05,7e-05,0.0002,0.00011,0.0002,2e-05,4e-05,0,4,32
18520,5e-05,7e-05,0.0002,0.00011,0.0002,2e-05,4e-05,0,4,32
18521,5e-05,7e-05,0.0002,0.00011,0.0002,2e-05,4e-05,0,4,32
18522,5e-05,7e-05,0.0002,0.00011,0.0002,2e-05,4e-05,0,4,32
18523,5e-05,7e-05,0.0002,0.00011,0.0002,2e-05,4e-05,0,4,32
18524,5e-05,7e-05,0.0002,0.00011,0.0002,2e-05,4e-05,0,4,32
18525,6e-05,0.00012,0.00026,0.00033,0.00022,0.00043,3e-05,3e-05,4,32
18526,6e-05,0.00012,0.00026,0.00033,0.00022,0.00043,3e-05,3e-05,4,32
18527,6e-05,0.00012,0.00026,0.00033,0.00022,0.00043,3e-05,3e-05,4,32
18528,6e-05,0.00012,0.00026,0.00033,0.00022,0.00043,3e-05,3e-05,4,32
18529,6e-05,0.00012,0.00026,0.00033,0.00022,0.00043,3e-05,3e-05,4,32
18530,6e-05,0.00012,0.00026,0.00033,0.00022,0.00043,3e-05,3e-05,4,32
18531,6e-05,0.00012,0.00026,0.00033,0.00022,0.00043,3e-05,3e-05,4,32
18532,6e-05,0.00012,0.00026,0.00033,0.00022,0.00043,3e-05,3e-05,4,32
18533,6e-05,0.00012,0.00026,0.00033,0.00022,0.00043,3e-05,3e-05,4,32
18534,6e-05,0.00012,0.00026,0.00033,0.00022,0.00043,3e-05,3e-05,4,32
18535,6e-05,0.00012,0.00026,0.00033,0.00022,0.00043,3e-05,3e-05,4,32
18536,6e-05,0.00012,0.00026,0.00033,0.00022,0.00043,3e-05,3e-05,4,32
18538,6e-05,0.00012,0.00026,0.00033,0.00022,0.00043,3e-05,3e-05,4,32
18539,6e-05,0.00012,0.00026,0.00033,0.00022,0.00043,3e-05,3e-05,4,32
18540,6e-05,0.00012,0.00026,0.00033,0.00022,0.00043,3e-05,3e-05,4,32
18541,-4e-05,-7e-05,-0.00014,-0.00043,-0.00079,0.00049,1e-05,-2e-05,4,32
18542,6e-05,0.0001,0.00023,0.00046,-0.00011,0.00035,0,-1e-05,4,32
18543,6e-05,0.0001,0.00023,0.00046,-0.00011,0.00035,0,-1e-05,4,32
18544,6e-05,0.0001,0.00023,0.00046,-0.00011,0.00035,0,-1e-05,4,32
18545,6e-05,0.0001,0.00023,0.00046,-0.00011,0.00035,0,-1e-05,4,32
18546,6e-05,0.0001,0.00023,0.00046,-0.00011,0.00035,0,-1e-05,4,32
18547,6e-05,0.0001,0.00023,0.00046,-0.00011,0.00035,0,-1e-05,4,32
18548,6e-05,0.0001,0.00023,0.00046,-0.00011,0.00035,0,-1e-05,4,32
18549,6e-05,0.0001,0.00023,0.00046,-0.00011,0.00035,0,-1e-05,4,32
18550,6e-05,0.0001,0.00023,0.00046,-0.00011,0.00035,0,-1e-05,4,32
18551,6e-05,0.0001,0.00023,0.00046,-0.00011,0.00035,0,-1e-05,4,32
18552,6e-05,0.0001,0.00023,0.00046,-0.00011,0.00035,0,-1e-05,4,32
18553,6e-05,0.0001,0.00023,0.00046,-0.00011,0.00035,0,-1e-05,4,32
18554,6e-05,0.0001,0.00023,0.00046,-0.00011,0.00035,0,-1e-05,4,32
18555,6e-05,0.0001,0.00023,0.00046,-0.00011,0.00035,0,-1e-05,4,32
18556,6e-05,0.0001,0.00023,0.00046,-0.00011,0.00035,0,-1e-05,4,32
18557,6e-05,0.0001,0.00023,0.00046,-0.00011,0.00035,0,-1e-05,4,32
18558,6e-05,0.0001,0.00023,0.00046,-0.00011,0.00035,0,-1e-05,4,32
18559,6e-05,0.0001,0.00023,0.00046,-0.00011,0.00035,0,-1e-05,4,32
18560,6e-05,0.0001,0.00023,0.00046,-0.00011,0.00035,0,-1e-05,4,32
18561,6e-05,0.0001,0.00023,0.00046,-0.00011,0.00035,0,-1e-05,4,32
18562,6e-05,0.0001,0.00023,0.00046,-0.00011,0.00035,0,-1e-05,4,32
18563,6e-05,0.0001,0.00023,0.00046,-0.00011,0.00035,0,-1e-05,4,32
18564,0.0001,0.00012,0.00023,0.00063,-0.0004,-0.00015,0,-1e-05,4,32
18565,0.0001,0.00012,0.00023,0.00063,-0.0004,-0.00015,0,-1e-05,4,32
18566,0.0001,0.00012,0.00023,0.00063,-0.0004,-0.00015,0,-1e-05,4,32
18567,0.0001,0.00012,0.00023,0.00063,-0.0004,-0.00015,0,-1e-05,4,32
18568,0.0001,0.00012,0.00023,0.00063,-0.0004,-0.00015,0,-1e-05,4,32
18569,-3e-05,-6e-05,-0.00018,-0.00036,-0.00032,0.0004,6e-05,-1e-05,4,32
18570,-3e-05,-6e-05,-0.00018,-0.00036,-0.00032,0.0004,6e-05,-1e-05,4,32
18571,-3e-05,-6e-05,-0.00018,-0.00036,-0.00032,0.0004,6e-05,-1e-05,4,32
18572,-3e-05,-6e-05,-0.00018,-0.00036,-0.00032,0.0004,6e-05,-1e-05,4,32
18573,-3e-05,-6e-05,-0.00018,-0.00036,-0.00032,0.0004,6e-05,-1e-05,4,32
18574,-3e-05,-6e-05,-0.00018,-0.00036,-0.00032,0.0004,6e-05,-1e-05,4,32
18575,-3e-05,-6e-05,-0.00018,-0.00036,-0.00032,0.0004,6e-05,-1e-05,4,32
18576,-5e-05,-0.00012,-0.00016,-0.00044,0,3e-05,-4e-05,0,4,32
18577,-5e-05,-0.00012,-0.00016,-0.00044,0,3e-05,-4e-05,0,4,32
18578,-5e-05,-0.00012,-0.00016,-0.00044,0,3e-05,-4e-05,0,4,32
18579,-5e-05,-0.00012,-0.00016,-0.00044,0,3e-05,-4e-05,0,4,32
18580,-5e-05,-0.00012,-0.00016,-0.00044,0,3e-05,-4e-05,0,4,32
18581,-5e-05,-0.00012,-0.00016,-0.00044,0,3e-05,-4e-05,0,4,32
18582,-5e-05,-0.00012,-0.00016,-0.00044,0,3e-05,-4e-05,0,4,32
18583,-5e-05,-0.00012,-0.00016,-0.00044,0,3e-05,-4e-05,0,4,32
18584,-5e-05,-0.00012,-0.00016,-0.00044,0,3e-05,-4e-05,0,4,32
18585,5e-05,3e-05,0.00016,0.00054,0.00047,-1e-05,1e-05,2e-05,4,32
18586,5e-05,3e-05,0.00016,0.00054,0.00047,-1e-05,1e-05,2e-05,4,32
18588,5e-05,3e-05,0.00016,0.00054,0.00047,-1e-05,1e-05,2e-05,4,32
18589,5e-05,3e-05,0.00016,0.00054,0.00047,-1e-05,1e-05,2e-05,4,32
18590,5e-05,3e-05,0.00016,0.00054,0.00047,-1e-05,1e-05,2e-05,4,32
18591,5e-05,3e-05,0.00016,0.00054,0.00047,-1e-05,1e-05,2e-05,4,32
18592,5e-05,3e-05,0.00016,0.00054,0.00047,-1e-05,1e-05,2e-05,4,32
18593,5e-05,3e-05,0.00016,0.00054,0.00047,-1e-05,1e-05,2e-05,4,32
18594,5e-05,3e-05,0.00016,0.00054,0.00047,-1e-05,1e-05,2e-05,4,32
18595,5e-05,3e-05,0.00016,0.00054,0.00047,-1e-05,1e-05,2e-05,4,32
18596,5e-05,3e-05,0.00016,0.00054,0.00047,-1e-05,1e-05,2e-05,4,32
18597,5e-05,3e-05,0.00016,0.00054,0.00047,-1e-05,1e-05,2e-05,4,32
18598,5e-05,3e-05,0.00016,0.00054,0.00047,-1e-05,1e-05,2e-05,4,32
18599,5e-05,3e-05,0.00016,0.00054,0.00047,-1e-05,1e-05,2e-05,4,32
18600,1e-05,9e-05,0.00022,0.00091,0.00097,0.00033,4e-05,1e-05,4,32
18601,1e-05,9e-05,0.00022,0.00091,0.00097,0.00033,4e-05,1e-05,4,32
18602,-5e-05,-0.00012,-0.00028,1e-05,0.0001,-6e-05,4e-05,0,4,32
18603,-5e-05,-0.00012,-0.00028,1e-05,0.0001,-6e-05,4e-05,0,4,32
18604,-5e-05,-0.00012,-0.00028,1e-05,0.0001,-6e-05,4e-05,0,4,32
18605,-5e-05,-0.00012,-0.00028,1e-05,0.0001,-6e-05,4e-05,0,4,32
18606,-5e-05,-0.00012,-0.00028,1e-05,0.0001,-6e-05,4e-05,0,4,32
18607,-5e-05,-0.00012,-0.00028,1e-05,0.0001,-6e-05,4e-05,0,4,32
18608,-5e-05,-0.00012,-0.00028,1e-05,0.0001,-6e-05,4e-05,0,4,32
18609,-5e-05,-0.00012,-0.00028,1e-05,0.0001,-6e-05,4e-05,0,4,32
18610,-5e-05,-0.00012,-0.00028,1e-05,0.0001,-6e-05,4e-05,0,4,32
18611,-5e-05,-0.00012,-0.00028,1e-05,0.0001,-6e-05,4e-05,0,4,32
18612,-5e-05,-0.00012,-0.00028,1e-05,0.0001,-6e-05,4e-05,0,4,32
18613,-5e-05,-0.00012,-0.00028,1e-05,0.0001,-6e-05,4e-05,0,4,32
18614,-5e-05,-0.00012,-0.00028,1e-05,0.0001,-6e-05,4e-05,0,4,32
18615,-5e-05,-0.00012,-0.00028,1e-05,0.0001,-6e-05,4e-05,0,4,32
18616,-5e-05,-0.00012,-0.00028,1e-05,0.0001,-6e-05,4e-05,0,4,32
18617,-5e-05,-0.00012,-0.00028,1e-05,0.0001,-6e-05,4e-05,0,4,32
18618,-5e-05,-0.00012,-0.00028,1e-05,0.0001,-6e-05,4e-05,0,4,32
18619,-5e-05,-0.00012,-0.00028,1e-05,0.0001,-6e-05,4e-05,0,4,32
18620,-5e-05,-0.00012,-0.00028,1e-05,0.0001,-6e-05,4e-05,0,4,32
18621,-5e-05,-0.00012,-0.00028,1e-05,0.0001,-6e-05,4e-05,0,4,32
18622,-5e-05,-0.00012,-0.00028,1e-05,0.0001,-6e-05,4e-05,0,4,32
18623,-5e-05,-0.00012,-0.00028,1e-05,0.0001,-6e-05,4e-05,0,4,32
18624,-7e-05,-6e-05,-3e-05,-0.00019,-0.0009,-0.0001,-5e-05,1e-05,4,32
18625,4e-05,-1e-05,9e-05,-5e-05,0.00066,-0.0005,-4e-05,-1e-05,4,32
18626,4e-05,-1e-05,9e-05,-5e-05,0.00066,-0.0005,-4e-05,-1e-05,4,32
18627,4e-05,-1e-05,9e-05,-5e-05,0.00066,-0.0005,-4e-05,-1e-05,4,32
18628,4e-05,-1e-05,9e-05,-5e-05,0.00066,-0.0005,-4e-05,-1e-05,4,32
18629,4e-05,-1e-05,9e-05,-5e-05,0.00066,-0.0005,-4e-05,-1e-05,4,32
18630,4e-05,-1e-05,9e-05,-5e-05,0.00066,-0.0005,-4e-05,-1e-05,4,32
18631,4e-05,-1e-05,9e-05,-5e-05,0.00066,-0.0005,-4e-05,-1e-05,4,32
18632,4e-05,-1e-05,9e-05,-5e-05,0.00066,-0.0005,-4e-05,-1e-05,4,32
18633,4e-05,-1e-05,9e-05,-5e-05,0.00066,-0.0005,-4e-05,-1e-05,4,32
18634,4e-05,-1e-05,9e-05,-5e-05,0.00066,-0.0005,-4e-05,-1e-05,4,32
18635,4e-05,-1e-05,9e-05,-5e-05,0.00066,-0.0005,-4e-05,-1e-05,4,32
18636,-5e-05,-2e-05,3e-05,-3e-05,3e-05,0.00021,-5e-05,-5e-05,4,32
18638,-4e-05,-1e-05,-0.00016,0.00022,0.00057,0.00025,1e-05,-2e-05,4,32
18639,-4e-05,-1e-05,-0.00016,0.00022,0.00057,0.00025,1e-05,-2e-05,4,32
18640,-4e-05,-1e-05,-0.00016,0.00022,0.00057,0.00025,1e-05,-2e-05,4,32
18641,-4e-05,-1e-05,-0.00016,0.00022,0.00057,0.00025,1e-05,-2e-05,4,32
18642,-4e-05,-1e-05,-0.00016,0.00022,0.00057,0.00025,1e-05,-2e-05,4,32
18643,-4e-05,-1e-05,-0.00016,0.00022,0.00057,0.00025,1e-05,-2e-05,4,32
18644,-4e-05,-1e-05,-0.00016,0.00022,0.00057,0.00025,1e-05,-2e-05,4,32
18645,-4e-05,-1e-05,-0.00016,0.00022,0.00057,0.00025,1e-05,-2e-05,4,32
18646,-4e-05,-1e-05,-0.00016,0.00022,0.00057,0.00025,1e-05,-2e-05,4,32
18647,-4e-05,-1e-05,-0.00016,0.00022,0.00057,0.00025,1e-05,-2e-05,4,32
18648,-4e-05,-1e-05,-0.00016,0.00022,0.00057,0.00025,1e-05,-2e-05,4,32
18649,-4e-05,-1e-05,-0.00016,0.00022,0.00057,0.00025,1e-05,-2e-05,4,32
18650,-4e-05,-1e-05,-0.00016,0.00022,0.00057,0.00025,1e-05,-2e-05,4,32
18651,-4e-05,-1e-05,-0.00016,0.00022,0.00057,0.00025,1e-05,-2e-05,4,32
18652,-4e-05,-1e-05,-0.00016,0.00022,0.00057,0.00025,1e-05,-2e-05,4,32
18653,-4e-05,-1e-05,-0.00016,0.00022,0.00057,0.00025,1e-05,-2e-05,4,32
18654,-4e-05,-1e-05,-0.00016,0.00022,0.00057,0.00025,1e-05,-2e-05,4,32
18655,-4e-05,-1e-05,-0.00016,0.00022,0.00057,0.00025,1e-05,-2e-05,4,32
18656,-4e-05,-1e-05,-0.00016,0.00022,0.00057,0.00025,1e-05,-2e-05,4,32
18657,-4e-05,-1e-05,-0.00016,0.00022,0.00057,0.00025,1e-05,-2e-05,4,32
18658,-4e-05,-1e-05,-0.00016,0.00022,0.00057,0.00025,1e-05,-2e-05,4,32
18659,-4e-05,-1e-05,-0.00016,0.00022,0.00057,0.00025,1e-05,-2e-05,4,32
18660,-4e-05,-1e-05,-0.00016,0.00022,0.00057,0.00025,1e-05,-2e-05,4,32
18661,0,6e-05,9e-05,9e-05,0.00022,0.00047,7e-05,1e-05,4,32
18662,1e-05,0,-2e-05,-0.00061,-0.00058,-0.00035,-7e-05,-3e-05,4,32
18663,1e-05,2e-05,-1e-05,-0.00046,9e-05,-0.00032,-5e-05,0,4,32
18664,1e-05,2e-05,-1e-05,-0.00046,9e-05,-0.00032,-5e-05,0,4,32
18665,1e-05,2e-05,-1e-05,-0.00046,9e-05,-0.00032,-5e-05,0,4,32
18666,1e-05,2e-05,-1e-05,-0.00046,9e-05,-0.00032,-5e-05,0,4,32
18667,1e-05,2e-05,-1e-05,-0.00046,9e-05,-0.00032,-5e-05,0,4,32
18668,1e-05,2e-05,-1e-05,-0.00046,9e-05,-0.00032,-5e-05,0,4,32
18669,1e-05,2e-05,-1e-05,-0.00046,9e-05,-0.00032,-5e-05,0,4,32
18670,1e-05,2e-05,-1e-05,-0.00046,9e-05,-0.00032,-5e-05,0,4,32
18671,1e-05,2e-05,-1e-05,-0.00046,9e-05,-0.00032,-5e-05,0,4,32
18672,1e-05,2e-05,-1e-05,-0.00046,9e-05,-0.00032,-5e-05,0,4,32
18673,1e-05,2e-05,-1e-05,-0.00046,9e-05,-0.00032,-5e-05,0,4,32
18674,1e-05,2e-05,-1e-05,-0.00046,9e-05,-0.00032,-5e-05,0,4,32
18675,1e-05,2e-05,-1e-05,-0.00046,9e-05,-0.00032,-5e-05,0,4,32
18676,1e-05,2e-05,-1e-05,-0.00046,9e-05,-0.00032,-5e-05,0,4,32
18677,1e-05,2e-05,-1e-05,-0.00046,9e-05,-0.00032,-5e-05,0,4,32
18678,1e-05,2e-05,-1e-05,-0.00046,9e-05,-0.00032,-5e-05,0,4,32
18679,1e-05,2e-05,-1e-05,-0.00046,9e-05,-0.00032,-5e-05,0,4,32
18680,1e-05,2e-05,-1e-05,-0.00046,9e-05,-0.00032,-5e-05,0,4,32
18681,1e-05,2e-05,-1e-05,-0.00046,9e-05,-0.00032,-5e-05,0,4,32
18682,1e-05,2e-05,-1e-05,-0.00046,9e-05,-0.00032,-5e-05,0,4,32
18683,1e-05,2e-05,-1e-05,-0.00046,9e-05,-0.00032,-5e-05,0,4,32
18684,1e-05,2e-05,-1e-05,-0.00046,9e-05,-0.00032,-5e-05,0,4,32
18685,1e-05,2e-05,-1e-05,-0.00046,9e-05,-0.00032,-5e-05,0,4,32
18686,1e-05,2e-05,-1e-05,-0.00046,9e-05,-0.00032,-5e-05,0,4,32
18688,1e-05,2e-05,-1e-05,-0.00046,9e-05,-0.00032,-5e-05,0,4,32
18689,1e-05,2e-05,-1e-05,-0.00046,9e-05,-0.00032,-5e-05,0,4,32
18690,1e-05,2e-05,-1e-05,-0.00046,9e-05,-0.00032,-5e-05,0,4,32
18691,-8e-05,-8e-05,-4e-05,0.00044,0.00053,-0.00051,-1e-05,-4e-05,4,32
18692,5e-05,4e-05,0.00013,0.00044,0.00093,-0.00012,8e-05,4e-05,4,32
18693,1e-05,3e-05,9e-05,-0.00011,-0.00109,-0.00047,-1e-05,-2e-05,4,32
18694,1e-05,3e-05,9e-05,-0.00011,-0.00109,-0.00047,-1e-05,-2e-05,4,32
18695,1e-05,3e-05,9e-05,-0.00011,-0.00109,-0.00047,-1e-05,-2e-05,4,32
18696,-6e-05,-0.0001,-0.00014,-0.0003,0.00097,-0.00026,-2e-05,-1e-05,4,32
18697,-6e-05,-0.0001,-0.00014,-0.0003,0.00097,-0.00026,-2e-05,-1e-05,4,32
18698,-6e-05,-0.0001,-0.00014,-0.0003,0.00097,-0.00026,-2e-05,-1e-05,4,32
18699,-6e-05,-0.0001,-0.00014,-0.0003,0.00097,-0.00026,-2e-05,-1e-05,4,32
18700,-6e-05,-0.0001,-0.00014,-0.0003,0.00097,-0.00026,-2e-05,-1e-05,4,32
18701,-6e-05,-0.0001,-0.00014,-0.0003,0.00097,-0.00026,-2e-05,-1e-05,4,32
18702,-6e-05,-0.0001,-0.00014,-0.0003,0.00097,-0.00026,-2e-05,-1e-05,4,32
18703,-6e-05,-0.0001,-0.00014,-0.0003,0.00097,-0.00026,-2e-05,-1e-05,4,32
18704,-6e-05,-0.0001,-0.00014,-0.0003,0.00097,-0.00026,-2e-05,-1e-05,4,32
18705,-6e-05,-3e-05,-8e-05,0.00012,0.00036,-0.00034,6e-05,1e-05,4,32
18706,-6e-05,-3e-05,-8e-05,0.00012,0.00036,-0.00034,6e-05,1e-05,4,32
18707,-6e-05,-3e-05,-8e-05,0.00012,0.00036,-0.00034,6e-05,1e-05,4,32
18708,-6e-05,-3e-05,-8e-05,0.00012,0.00036,-0.00034,6e-05,1e-05,4,32
18709,-6e-05,-3e-05,-8e-05,0.00012,0.00036,-0.00034,6e-05,1e-05,4,32
18710,-6e-05,-3e-05,-8e-05,0.00012,0.00036,-0.00034,6e-05,1e-05,4,32
18711,-6e-05,-3e-05,-8e-05,0.00012,0.00036,-0.00034,6e-05,1e-05,4,32
18712,-6e-05,-3e-05,-8e-05,0.00012,0.00036,-0.00034,6e-05,1e-05,4,32
18713,-6e-05,-3e-05,-8e-05,0.00012,0.00036,-0.00034,6e-05,1e-05,4,32
18714,-6e-05,-3e-05,-8e-05,0.00012,0.00036,-0.00034,6e-05,1e-05,4,32
18715,-6e-05,-3e-05,-8e-05,0.00012,0.00036,-0.00034,6e-05,1e-05,4,32
18716,-6e-05,-3e-05,-8e-05,0.00012,0.00036,-0.00034,6e-05,1e-05,4,32
18717,-6e-05,-3e-05,-8e-05,0.00012,0.00036,-0.00034,6e-05,1e-05,4,32
18718,-6e-05,-3e-05,-8e-05,0.00012,0.00036,-0.00034,6e-05,1e-05,4,32
18719,-6e-05,-3e-05,-8e-05,0.00012,0.00036,-0.00034,6e-05,1e-05,4,32
18720,1e-05,2e-05,0.00011,0.00027,-0.0007,-0.00032,7e-05,0,4,32
18721,1e-05,2e-05,0.00011,0.00027,-0.0007,-0.00032,7e-05,0,4,32
18722,1e-05,-1e-05,2e-05,7e-05,0.0004,0.0004,2e-05,3e-05,4,32
18723,1e-05,-1e-05,2e-05,7e-05,0.0004,0.0004,2e-05,3e-05,4,32
18724,1e-05,-1e-05,2e-05,7e-05,0.0004,0.0004,2e-05,3e-05,4,32
18725,1e-05,-1e-05,2e-05,7e-05,0.0004,0.0004,2e-05,3e-05,4,32
18726,1e-05,-1e-05,2e-05,7e-05,0.0004,0.0004,2e-05,3e-05,4,32
18727,1e-05,-1e-05,2e-05,7e-05,0.0004,0.0004,2e-05,3e-05,4,32
18728,1e-05,-1e-05,2e-05,7e-05,0.0004,0.0004,2e-05,3e-05,4,32
18729,1e-05,-1e-05,2e-05,7e-05,0.0004,0.0004,2e-05,3e-05,4,32
18730,1e-05,-1e-05,2e-05,7e-05,0.0004,0.0004,2e-05,3e-05,4,32
18731,1e-05,-1e-05,2e-05,7e-05,0.0004,0.0004,2e-05,3e-05,4,32
18732,1e-05,-1e-05,2e-05,7e-05,0.0004,0.0004,2e-05,3e-05,4,32
18733,1e-05,-1e-05,2e-05,7e-05,0.0004,0.0004,2e-05,3e-05,4,32
18734,1e-05,-1e-05,2e-05,7e-05,0.0004,0.0004,2e-05,3e-05,4,32
18735,1e-05,-1e-05,2e-05,7e-05,0.0004,0.0004,2e-05,3e-05,4,32
18736,1e-05,-1e-05,2e-05,7e-05,0.0004,0.0004,2e-05,3e-05,4,32
18738,1e-05,-1e-05,2e-05,7e-05,0.0004,0.0004,2e-05,3e-05,4,32
18739,1e-05,-1e-05,2e-05,7e-05,0.0004,0.0004,2e-05,3e-05,4,32
18740,1e-05,-1e-05,2e-05,7e-05,0.0004,0.0004,2e-05,3e-05,4,32
18741,1e-05,-1e-05,2e-05,7e-05,0.0004,0.0004,2e-05,3e-05,4,32
18742,1e-05,-1e-05,2e-05,7e-05,0.0004,0.0004,2e-05,3e-05,4,32
18743,0.00015,0.00024,0.00056,0.00103,0.00119,0.0011,0.00041,0.00015,4,32
18744,1e-05,0,-4e-05,-0.0002,-0.00057,-0.0001,-6e-05,-2e-05,4,32
18745,1e-05,0,-4e-05,-0.0002,-0.00057,-0.0001,-6e-05,-2e-05,4,32
18746,1e-05,0,-4e-05,-0.0002,-0.00057,-0.0001,-6e-05,-2e-05,4,32
18747,1e-05,0,-4e-05,-0.0002,-0.00057,-0.0001,-6e-05,-2e-05,4,32
18748,1e-05,0,-4e-05,-0.0002,-0.00057,-0.0001,-6e-05,-2e-05,4,32
18749,1e-05,0,-4e-05,-0.0002,-0.00057,-0.0001,-6e-05,-2e-05,4,32
18750,1e-05,0,-4e-05,-0.0002,-0.00057,-0.0001,-6e-05,-2e-05,4,32
18751,1e-05,0,-4e-05,-0.0002,-0.00057,-0.0001,-6e-05,-2e-05,4,32
18752,1e-05,0,-4e-05,-0.0002,-0.00057,-0.0001,-6e-05,-2e-05,4,32
18753,1e-05,0,-4e-05,-0.0002,-0.00057,-0.0001,-6e-05,-2e-05,4,32
18754,1e-05,0,-4e-05,-0.0002,-0.00057,-0.0001,-6e-05,-2e-05,4,32
18755,1e-05,0,-4e-05,-0.0002,-0.00057,-0.0001,-6e-05,-2e-05,4,32
18756,-3e-05,-0.00012,-0.00061,-0.00077,0.00062,0.00016,0,0,4,32
18757,-3e-05,-0.00012,-0.00061,-0.00077,0.00062,0.00016,0,0,4,32
18758,-3e-05,-0.00012,-0.00061,-0.00077,0.00062,0.00016,0,0,4,32
18759,-3e-05,-0.00012,-0.00061,-0.00077,0.00062,0.00016,0,0,4,32
18760,-3e-05,-0.00012,-0.00061,-0.00077,0.00062,0.00016,0,0,4,32
18761,-3e-05,-0.00012,-0.00061,-0.00077,0.00062,0.00016,0,0,4,32
18762,-3e-05,-0.00012,-0.00061,-0.00077,0.00062,0.00016,0,0,4,32
18763,-3e-05,-0.00012,-0.00061,-0.00077,0.00062,0.00016,0,0,4,32
18764,-3e-05,-0.00012,-0.00061,-0.00077,0.00062,0.00016,0,0,4,32
18765,3e-05,0.00011,0.00018,0.00034,-0.00014,0.00014,2e-05,1e-05,4,32
18766,0,8e-05,0.0002,0.0005,-8e-05,0.00027,-8e-05,-1e-05,4,32
18767,0,8e-05,0.0002,0.0005,-8e-05,0.00027,-8e-05,-1e-05,4,32
18768,0,8e-05,0.0002,0.0005,-8e-05,0.00027,-8e-05,-1e-05,4,32
18769,0,8e-05,0.0002,0.0005,-8e-05,0.00027,-8e-05,-1e-05,4,32
18770,0,8e-05,0.0002,0.0005,-8e-05,0.00027,-8e-05,-1e-05,4,32
18771,0,8e-05,0.0002,0.0005,-8e-05,0.00027,-8e-05,-1e-05,4,32
18772,0,8e-05,0.0002,0.0005,-8e-05,0.00027,-8e-05,-1e-05,4,32
18773,0,8e-05,0.0002,0.0005,-8e-05,0.00027,-8e-05,-1e-05,4,32
18774,0,8e-05,0.0002,0.0005,-8e-05,0.00027,-8e-05,-1e-05,4,32
18775,0,8e-05,0.0002,0.0005,-8e-05,0.00027,-8e-05,-1e-05,4,32
18776,0,8e-05,0.0002,0.0005,-8e-05,0.00027,-8e-05,-1e-05,4,32
18777,0,8e-05,0.0002,0.0005,-8e-05,0.00027,-8e-05,-1e-05,4,32
18778,0,8e-05,0.0002,0.0005,-8e-05,0.00027,-8e-05,-1e-05,4,32
18779,0,8e-05,0.0002,0.0005,-8e-05,0.00027,-8e-05,-1e-05,4,32
18780,-7e-05,-0.0001,1e-05,-0.00016,-0.0002,2e-05,-0.00019,-8e-05,4,32
18781,-7e-05,-0.0001,1e-05,-0.00016,-0.0002,2e-05,-0.00019,-8e-05,4,32
18782,-8e-05,-0.00014,-0.00016,-0.00026,-0.0005,-0.0003,-0.0001,-7e-05,4,32
18783,-8e-05,-0.00014,-0.00016,-0.00026,-0.0005,-0.0003,-0.0001,-7e-05,4,32
18784,-8e-05,-0.00014,-0.00016,-0.00026,-0.0005,-0.0003,-0.0001,-7e-05,4,32
18785,-8e-05,-0.00014,-0.00016,-0.00026,-0.0005,-0.0003,-0.0001,-7e-05,4,32
18786,-8e-05,-0.00014,-0.00016,-0.00026,-0.0005,-0.0003,-0.0001,-7e-05,4,32
18788,-8e-05,-0.00014,-0.00016,-0.00026,-0.0005,-0.0003,-0.0001,-7e-05,4,32
18789,-8e-05,-0.00014,-0.00016,-0.00026,-0.0005,-0.0003,-0.0001,-7e-05,4,32
18790,-8e-05,-0.00014,-0.00016,-0.00026,-0.0005,-0.0003,-0.0001,-7e-05,4,32
18791,-8e-05,-0.00014,-0.00016,-0.00026,-0.0005,-0.0003,-0.0001,-7e-05,4,32
18792,-8e-05,-0.00014,-0.00016,-0.00026,-0.0005,-0.0003,-0.0001,-7e-05,4,32
18793,-8e-05,-0.00014,-0.00016,-0.00026,-0.0005,-0.0003,-0.0001,-7e-05,4,32
18794,-8e-05,-0.00014,-0.00016,-0.00026,-0.0005,-0.0003,-0.0001,-7e-05,4,32
18795,-8e-05,-0.00014,-0.00016,-0.00026,-0.0005,-0.0003,-0.0001,-7e-05,4,32
18796,-8e-05,-0.00014,-0.00016,-0.00026,-0.0005,-0.0003,-0.0001,-7e-05,4,32
18797,-8e-05,-0.00014,-0.00016,-0.00026,-0.0005,-0.0003,-0.0001,-7e-05,4,32
18798,-8e-05,-0.00014,-0.00016,-0.00026,-0.0005,-0.0003,-0.0001,-7e-05,4,32
18799,-8e-05,-0.00014,-0.00016,-0.00026,-0.0005,-0.0003,-0.0001,-7e-05,4,32
18800,-8e-05,-0.00014,-0.00016,-0.00026,-0.0005,-0.0003,-0.0001,-7e-05,4,32
18801,-8e-05,-0.00014,-0.00016,-0.00026,-0.0005,-0.0003,-0.0001,-7e-05,4,32
18802,-8e-05,-0.00014,-0.00016,-0.00026,-0.0005,-0.0003,-0.0001,-7e-05,4,32
18803,2e-05,1e-05,0.00017,9e-05,-0.0011,0.00057,-1e-05,-1e-05,4,32
18804,2e-05,1e-05,0.00017,9e-05,-0.0011,0.00057,-1e-05,-1e-05,4,32
18805,2e-05,1e-05,0.00017,9e-05,-0.0011,0.00057,-1e-05,-1e-05,4,32
18806,2e-05,1e-05,0.00017,9e-05,-0.0011,0.00057,-1e-05,-1e-05,4,32
18807,2e-05,1e-05,0.00017,9e-05,-0.0011,0.00057,-1e-05,-1e-05,4,32
18808,2e-05,1e-05,0.00017,9e-05,-0.0011,0.00057,-1e-05,-1e-05,4,32
18809,0,3e-05,0.0001,0.00029,-7e-05,-0.00011,2e-05,0,4,32
18810,0,3e-05,0.0001,0.00029,-7e-05,-0.00011,2e-05,0,4,32
18811,0,3e-05,0.0001,0.00029,-7e-05,-0.00011,2e-05,0,4,32
18812,0,3e-05,0.0001,0.00029,-7e-05,-0.00011,2e-05,0,4,32
18813,0,3e-05,0.0001,0.00029,-7e-05,-0.00011,2e-05,0,4,32
18814,0,3e-05,0.0001,0.00029,-7e-05,-0.00011,2e-05,0,4,32
18815,0,3e-05,0.0001,0.00029,-7e-05,-0.00011,2e-05,0,4,32
18816,0,3e-05,0.0001,0.00029,-7e-05,-0.00011,2e-05,0,4,32
18817,0,3e-05,0.0001,0.00029,-7e-05,-0.00011,2e-05,0,4,32
18818,0,3e-05,0.0001,0.00029,-7e-05,-0.00011,2e-05,0,4,32
18819,0,3e-05,0.0001,0.00029,-7e-05,-0.00011,2e-05,0,4,32
18820,0,3e-05,0.0001,0.00029,-7e-05,-0.00011,2e-05,0,4,32
18821,0,3e-05,0.0001,0.00029,-7e-05,-0.00011,2e-05,0,4,32
18822,0,3e-05,0.0001,0.00029,-7e-05,-0.00011,2e-05,0,4,32
18823,0,3e-05,0.0001,0.00029,-7e-05,-0.00011,2e-05,0,4,32
18824,0,3e-05,0.0001,0.00029,-7e-05,-0.00011,2e-05,0,4,32
18825,-5e-05,2e-05,0.00012,0.00035,-0.00087,-0.00056,-0.00015,-5e-05,4,32
18826,-5e-05,2e-05,0.00012,0.00035,-0.00087,-0.00056,-0.00015,-5e-05,4,32
18827,8e-05,6e-05,0.00014,0.00032,0.00083,0.00064,4e-05,2e-05,4,32
18828,8e-05,6e-05,0.00014,0.00032,0.00083,0.00064,4e-05,2e-05,4,32
18829,8e-05,6e-05,0.00014,0.00032,0.00083,0.00064,4e-05,2e-05,4,32
18830,8e-05,6e-05,0.00014,0.00032,0.00083,0.00064,4e-05,2e-05,4,32
18831,8e-05,6e-05,0.00014,0.00032,0.00083,0.00064,4e-05,2e-05,4,32
18832,8e-05,6e-05,0.00014,0.00032,0.00083,0.00064,4e-05,2e-05,4,32
18833,8e-05,6e-05,0.00014,0.00032,0.00083,0.00064,4e-05,2e-05,4,32
18834,8e-05,6e-05,0.00014,0.00032,0.00083,0.00064,4e-05,2e-05,4,32
18835,8e-05,6e-05,0.00014,0.00032,0.00083,0.00064,4e-05,2e-05,4,32
18836,8e-05,6e-05,0.00014,0.00032,0.00083,0.00064,4e-05,2e-05,4,32
18838,8e-05,6e-05,0.00014,0.00032,0.00083,0.00064,4e-05,2e-05,4,32
18839,8e-05,6e-05,0.00014,0.00032,0.00083,0.00064,4e-05,2e-05,4,32
18840,-5e-05,-7e-05,-0.00011,4e-05,9e-05,-0.00054,-9e-05,-3e-05,4,32
18841,-5e-05,-7e-05,-0.00011,4e-05,9e-05,-0.00054,-9e-05,-3e-05,4,32
18842,1e-05,4e-05,0.00019,0.00047,-0.00046,0.00054,0,-2e-05,4,32
18843,-5e-05,-7e-05,-0.00018,-0.00053,0.00055,-0.00023,9e-05,2e-05,4,32
18844,-5e-05,-7e-05,-0.00018,-0.00053,0.00055,-0.00023,9e-05,2e-05,4,32
18845,-5e-05,-7e-05,-0.00018,-0.00053,0.00055,-0.00023,9e-05,2e-05,4,32
18846,-5e-05,-7e-05,-0.00018,-0.00053,0.00055,-0.00023,9e-05,2e-05,4,32
18847,-5e-05,-7e-05,-0.00018,-0.00053,0.00055,-0.00023,9e-05,2e-05,4,32
18848,-5e-05,-7e-05,-0.00018,-0.00053,0.00055,-0.00023,9e-05,2e-05,4,32
18849,-5e-05,-7e-05,-0.00018,-0.00053,0.00055,-0.00023,9e-05,2e-05,4,32
18850,-5e-05,-7e-05,-0.00018,-0.00053,0.00055,-0.00023,9e-05,2e-05,4,32
18851,-5e-05,-7e-05,-0.00018,-0.00053,0.00055,-0.00023,9e-05,2e-05,4,32
18852,-5e-05,-7e-05,-0.00018,-0.00053,0.00055,-0.00023,9e-05,2e-05,4,32
18853,-5e-05,-7e-05,-0.00018,-0.00053,0.00055,-0.00023,9e-05,2e-05,4,32
18854,-5e-05,-7e-05,-0.00018,-0.00053,0.00055,-0.00023,9e-05,2e-05,4,32
18855,-5e-05,-7e-05,-0.00018,-0.00053,0.00055,-0.00023,9e-05,2e-05,4,32
18856,-5e-05,-7e-05,-0.00018,-0.00053,0.00055,-0.00023,9e-05,2e-05,4,32
18857,-5e-05,-7e-05,-0.00018,-0.00053,0.00055,-0.00023,9e-05,2e-05,4,32
18858,-5e-05,-7e-05,-0.00018,-0.00053,0.00055,-0.00023,9e-05,2e-05,4,32
18859,-5e-05,-7e-05,-0.00018,-0.00053,0.00055,-0.00023,9e-05,2e-05,4,32
18860,-5e-05,-7e-05,-0.00018,-0.00053,0.00055,-0.00023,9e-05,2e-05,4,32
18861,-5e-05,-7e-05,-0.00018,-0.00053,0.00055,-0.00023,9e-05,2e-05,4,32
18862,-5e-05,-7e-05,-0.00018,-0.00053,0.00055,-0.00023,9e-05,2e-05,4,32
18863,-0.0001,-0.00011,-0.0003,-0.00016,-0.00051,-7e-05,-0.00015,-9e-05,4,32
18864,-5e-05,-8e-05,-0.00021,-0.00022,2e-05,-9e-05,-5e-05,-4e-05,4,32
18865,-5e-05,-8e-05,-0.00021,-0.00022,2e-05,-9e-05,-5e-05,-4e-05,4,32
18866,-5e-05,-8e-05,-0.00021,-0.00022,2e-05,-9e-05,-5e-05,-4e-05,4,32
18867,-5e-05,-8e-05,-0.00021,-0.00022,2e-05,-9e-05,-5e-05,-4e-05,4,32
18868,-5e-05,-8e-05,-0.00021,-0.00022,2e-05,-9e-05,-5e-05,-4e-05,4,32
18869,-5e-05,-8e-05,-0.00021,-0.00022,2e-05,-9e-05,-5e-05,-4e-05,4,32
18870,-5e-05,-8e-05,-0.00021,-0.00022,2e-05,-9e-05,-5e-05,-4e-05,4,32
18871,-5e-05,-8e-05,-0.00021,-0.00022,2e-05,-9e-05,-5e-05,-4e-05,4,32
18872,-5e-05,-8e-05,-0.00021,-0.00022,2e-05,-9e-05,-5e-05,-4e-05,4,32
18873,-5e-05,-8e-05,-0.00021,-0.00022,2e-05,-9e-05,-5e-05,-4e-05,4,32
18874,-5e-05,-8e-05,-0.00021,-0.00022,2e-05,-9e-05,-5e-05,-4e-05,4,32
18875,-5e-05,-8e-05,-0.00021,-0.00022,2e-05,-9e-05,-5e-05,-4e-05,4,32
18876,-5e-05,-8e-05,-0.00021,-0.00022,2e-05,-9e-05,-5e-05,-4e-05,4,32
18877,-5e-05,-8e-05,-0.00021,-0.00022,2e-05,-9e-05,-5e-05,-4e-05,4,32
18878,-5e-05,-8e-05,-0.00021,-0.00022,2e-05,-9e-05,-5e-05,-4e-05,4,32
18879,-5e-05,-8e-05,-0.00021,-0.00022,2e-05,-9e-05,-5e-05,-4e-05,4,32
18880,-5e-05,-8e-05,-0.00021,-0.00022,2e-05,-9e-05,-5e-05,-4e-05,4,32
18881,-5e-05,-8e-05,-0.00021,-0.00022,2e-05,-9e-05,-5e-05,-4e-05,4,32
18882,-5e-05,-8e-05,-0.00021,-0.00022,2e-05,-9e-05,-5e-05,-4e-05,4,32
18883,-5e-05,-8e-05,-0.00021,-0.00022,2e-05,-9e-05,-5e-05,-4e-05,4,32
18884,-5e-05,-8e-05,-0.00021,-0.00022,2e-05,-9e-05,-5e-05,-4e-05,4,32
18885,-5e-05,-8e-05,-0.00021,-0.00022,2e-05,-9e-05,-5e-05,-4e-05,4,32
18886,-5e-05,-8e-05,-0.00021,-0.00022,2e-05,-9e-05,-5e-05,-4e-05,4,32
18888,-5e-05,-8e-05,-0.00021,-0.00022,2e-05,-9e-05,-5e-05,-4e-05,4,32
18889,-5e-05,-8e-05,-0.00021,-0.00022,2e-05,-9e-05,-5e-05,-4e-05,4,32
18890,-5e-05,-8e-05,-0.00021,-0.00022,2e-05,-9e-05,-5e-05,-4e-05,4,32
18891,-5e-05,-8e-05,-0.00021,-0.00022,2e-05,-9e-05,-5e-05,-4e-05,4,32
18892,-5e-05,-8e-05,-0.00021,-0.00022,2e-05,-9e-05,-5e-05,-4e-05,4,32
18893,4e-05,8e-05,5e-05,-0.00014,0.0001,-0.00011,1e-05,2e-05,4,32
18894,4e-05,8e-05,5e-05,-0.00014,0.0001,-0.00011,1e-05,2e-05,4,32
18895,5e-05,7e-05,0.0002,0.00034,0.00055,0.00054,0,5e-05,4,32
18896,5e-05,7e-05,0.0002,0.00034,0.00055,0.00054,0,5e-05,4,32
18897,5e-05,7e-05,0.0002,0.00034,0.00055,0.00054,0,5e-05,4,32
18898,5e-05,7e-05,0.0002,0.00034,0.00055,0.00054,0,5e-05,4,32
18899,5e-05,7e-05,0.0002,0.00034,0.00055,0.00054,0,5e-05,4,32
18900,0,7e-05,0.00018,0.00027,-0.0005,-0.00042,-8e-05,-2e-05,4,32
18901,0,7e-05,0.00018,0.00027,-0.0005,-0.00042,-8e-05,-2e-05,4,32
18902,-4e-05,-5e-05,-8e-05,-0.00047,-0.00025,-0.00028,-0.00014,-7e-05,4,32
18903,-4e-05,-5e-05,-8e-05,-0.00047,-0.00025,-0.00028,-0.00014,-7e-05,4,32
18904,-4e-05,-5e-05,-8e-05,-0.00047,-0.00025,-0.00028,-0.00014,-7e-05,4,32
18905,-4e-05,-5e-05,-8e-05,-0.00047,-0.00025,-0.00028,-0.00014,-7e-05,4,32
18906,-4e-05,-5e-05,-8e-05,-0.00047,-0.00025,-0.00028,-0.00014,-7e-05,4,32
18907,-4e-05,-5e-05,-8e-05,-0.00047,-0.00025,-0.00028,-0.00014,-7e-05,4,32
18908,-4e-05,-5e-05,-8e-05,-0.00047,-0.00025,-0.00028,-0.00014,-7e-05,4,32
18909,-4e-05,-5e-05,-8e-05,-0.00047,-0.00025,-0.00028,-0.00014,-7e-05,4,32
18910,-4e-05,-5e-05,-8e-05,-0.00047,-0.00025,-0.00028,-0.00014,-7e-05,4,32
18911,-4e-05,-5e-05,-8e-05,-0.00047,-0.00025,-0.00028,-0.00014,-7e-05,4,32
18912,-4e-05,-5e-05,-8e-05,-0.00047,-0.00025,-0.00028,-0.00014,-7e-05,4,32
18913,-4e-05,-5e-05,-8e-05,-0.00047,-0.00025,-0.00028,-0.00014,-7e-05,4,32
18914,-4e-05,-5e-05,-8e-05,-0.00047,-0.00025,-0.00028,-0.00014,-7e-05,4,32
18915,-4e-05,-5e-05,-8e-05,-0.00047,-0.00025,-0.00028,-0.00014,-7e-05,4,32
18916,-4e-05,-5e-05,-8e-05,-0.00047,-0.00025,-0.00028,-0.00014,-7e-05,4,32
18917,-4e-05,-5e-05,-8e-05,-0.00047,-0.00025,-0.00028,-0.00014,-7e-05,4,32
18918,-4e-05,-5e-05,-8e-05,-0.00047,-0.00025,-0.00028,-0.00014,-7e-05,4,32
18919,-4e-05,-5e-05,-8e-05,-0.00047,-0.00025,-0.00028,-0.00014,-7e-05,4,32
18920,-4e-05,-5e-05,-8e-05,-0.00047,-0.00025,-0.00028,-0.00014,-7e-05,4,32
18921,-4e-05,-5e-05,-8e-05,-0.00047,-0.00025,-0.00028,-0.00014,-7e-05,4,32
18922,-4e-05,-5e-05,-8e-05,-0.00047,-0.00025,-0.00028,-0.00014,-7e-05,4,32
18923,-4e-05,-5e-05,-8e-05,-0.00047,-0.00025,-0.00028,-0.00014,-7e-05,4,32
18924,-4e-05,-5e-05,-8e-05,-0.00047,-0.00025,-0.00028,-0.00014,-7e-05,4,32
18925,-4e-05,-5e-05,-8e-05,-0.00047,-0.00025,-0.00028,-0.00014,-7e-05,4,32
18926,-4e-05,-5e-05,-8e-05,-0.00047,-0.00025,-0.00028,-0.00014,-7e-05,4,32
18927,-4e-05,-5e-05,-8e-05,-0.00047,-0.00025,-0.00028,-0.00014,-7e-05,4,32
18928,-4e-05,-5e-05,-8e-05,-0.00047,-0.00025,-0.00028,-0.00014,-7e-05,4,32
18929,-4e-05,-5e-05,-8e-05,-0.00047,-0.00025,-0.00028,-0.00014,-7e-05,4,32
18930,-4e-05,-5e-05,-8e-05,-0.00047,-0.00025,-0.00028,-0.00014,-7e-05,4,32
18931,-4e-05,-5e-05,-8e-05,-0.00047,-0.00025,-0.00028,-0.00014,-7e-05,4,32
18932,1e-05,4e-05,0.0002,1e-05,-0.0004,-0.0005,4e-05,4e-05,4,32
18933,1e-05,4e-05,0.0002,1e-05,-0.0004,-0.0005,4e-05,4e-05,4,32
18934,1e-05,4e-05,0.0002,1e-05,-0.0004,-0.0005,4e-05,4e-05,4,32
18935,1e-05,4e-05,0.0002,1e-05,-0.0004,-0.0005,4e-05,4e-05,4,32
18936,0,-6e-05,-8e-05,0,0.00044,0.00027,5e-05,0,4,32
18938,0,-6e-05,-8e-05,0,0.00044,0.00027,5e-05,0,4,32
18939,0,-6e-05,-8e-05,0,0.00044,0.00027,5e-05,0,4,32
18940,0,-6e-05,-8e-05,0,0.00044,0.00027,5e-05,0,4,32
18941,0,-6e-05,-8e-05,0,0.00044,0.00027,5e-05,0,4,32
18942,0,-6e-05,-8e-05,0,0.00044,0.00027,5e-05,0,4,32
18943,0,-6e-05,-8e-05,0,0.00044,0.00027,5e-05,0,4,32
18944,0,-6e-05,-8e-05,0,0.00044,0.00027,5e-05,0,4,32
18945,-1e-05,-4e-05,-0.00015,-0.00035,0.00014,-6e-05,0,-3e-05,4,32
18946,-1e-05,-4e-05,-0.00015,-0.00035,0.00014,-6e-05,0,-3e-05,4,32
18947,-7e-05,-6e-05,-0.0001,0.00043,-0.00065,-0.00037,-9e-05,-6e-05,4,32
18948,-7e-05,-6e-05,-0.0001,0.00043,-0.00065,-0.00037,-9e-05,-6e-05,4,32
18949,-7e-05,-6e-05,-0.0001,0.00043,-0.00065,-0.00037,-9e-05,-6e-05,4,32
18950,-7e-05,-6e-05,-0.0001,0.00043,-0.00065,-0.00037,-9e-05,-6e-05,4,32
18951,-7e-05,-6e-05,-0.0001,0.00043,-0.00065,-0.00037,-9e-05,-6e-05,4,32
18952,-7e-05,-6e-05,-0.0001,0.00043,-0.00065,-0.00037,-9e-05,-6e-05,4,32
18953,-7e-05,-6e-05,-0.0001,0.00043,-0.00065,-0.00037,-9e-05,-6e-05,4,32
18954,-7e-05,-6e-05,-0.0001,0.00043,-0.00065,-0.00037,-9e-05,-6e-05,4,32
18955,-7e-05,-6e-05,-0.0001,0.00043,-0.00065,-0.00037,-9e-05,-6e-05,4,32
18956,-7e-05,-6e-05,-0.0001,0.00043,-0.00065,-0.00037,-9e-05,-6e-05,4,32
18957,-7e-05,-6e-05,-0.0001,0.00043,-0.00065,-0.00037,-9e-05,-6e-05,4,32
18958,-7e-05,-6e-05,-0.0001,0.00043,-0.00065,-0.00037,-9e-05,-6e-05,4,32
18959,-7e-05,-6e-05,-0.0001,0.00043,-0.00065,-0.00037,-9e-05,-6e-05,4,32
18960,0,-4e-05,-5e-05,-3e-05,0.0001,0.0002,1e-05,-2e-05,4,32
18961,0,-4e-05,-5e-05,-3e-05,0.0001,0.0002,1e-05,-2e-05,4,32
18962,0,-4e-05,-5e-05,-3e-05,0.0001,0.0002,1e-05,-2e-05,4,32
18963,0,-4e-05,-5e-05,-3e-05,0.0001,0.0002,1e-05,-2e-05,4,32
18964,0,-4e-05,-5e-05,-3e-05,0.0001,0.0002,1e-05,-2e-05,4,32
18965,0,-4e-05,-5e-05,-3e-05,0.0001,0.0002,1e-05,-2e-05,4,32
18966,0,-4e-05,-5e-05,-3e-05,0.0001,0.0002,1e-05,-2e-05,4,32
18967,0,-4e-05,-5e-05,-3e-05,0.0001,0.0002,1e-05,-2e-05,4,32
18968,0,-4e-05,-5e-05,-3e-05,0.0001,0.0002,1e-05,-2e-05,4,32
18969,0,-4e-05,-5e-05,-3e-05,0.0001,0.0002,1e-05,-2e-05,4,32
18970,0,-4e-05,-5e-05,-3e-05,0.0001,0.0002,1e-05,-2e-05,4,32
18971,0,-4e-05,-5e-05,-3e-05,0.0001,0.0002,1e-05,-2e-05,4,32
18972,0,-4e-05,-5e-05,-3e-05,0.0001,0.0002,1e-05,-2e-05,4,32
18973,0,-4e-05,-5e-05,-3e-05,0.0001,0.0002,1e-05,-2e-05,4,32
18974,0.0001,0.00014,0.00026,0.00052,0.0004,0.00043,0.00018,8e-05,4,32
18975,0.0001,0.00014,0.00026,0.00052,0.0004,0.00043,0.00018,8e-05,4,32
18976,0.0001,0.00014,0.00026,0.00052,0.0004,0.00043,0.00018,8e-05,4,32
18977,0.0001,0.00014,0.00026,0.00052,0.0004,0.00043,0.00018,8e-05,4,32
18978,0.0001,0.00014,0.00026,0.00052,0.0004,0.00043,0.00018,8e-05,4,32
18979,0.0001,0.00014,0.00026,0.00052,0.0004,0.00043,0.00018,8e-05,4,32
18980,0.0001,0.00014,0.00026,0.00052,0.0004,0.00043,0.00018,8e-05,4,32
18981,0.0001,0.00014,0.00026,0.00052,0.0004,0.00043,0.00018,8e-05,4,32
18982,0.0001,0.00014,0.00026,0.00052,0.0004,0.00043,0.00018,8e-05,4,32
18983,0,2e-05,3e-05,7e-05,-0.00055,-9e-05,-2e-05,-1e-05,4,32
18984,-4e-05,-0.0001,-0.00019,-9e-05,-0.00097,6e-05,4e-05,-2e-05,4,32
18985,-4e-05,-0.0001,-0.00019,-9e-05,-0.00097,6e-05,4e-05,-2e-05,4,32
18986,-4e-05,-0.0001,-0.00019,-9e-05,-0.00097,6e-05,4e-05,-2e-05,4,32
18988,-4e-05,-0.0001,-0.00019,-9e-05,-0.00097,6e-05,4e-05,-2e-05,4,32
18989,-4e-05,-0.0001,-0.00019,-9e-05,-0.00097,6e-05,4e-05,-2e-05,4,32
18990,-4e-05,-0.0001,-0.00019,-9e-05,-0.00097,6e-05,4e-05,-2e-05,4,32
18991,-4e-05,-0.0001,-0.00019,-9e-05,-0.00097,6e-05,4e-05,-2e-05,4,32
18992,-4e-05,-0.0001,-0.00019,-9e-05,-0.00097,6e-05,4e-05,-2e-05,4,32
18993,-4e-05,-0.0001,-0.00019,-9e-05,-0.00097,6e-05,4e-05,-2e-05,4,32
18994,-4e-05,-0.0001,-0.00019,-9e-05,-0.00097,6e-05,4e-05,-2e-05,4,32
18995,-4e-05,-0.0001,-0.00019,-9e-05,-0.00097,6e-05,4e-05,-2e-05,4,32
18996,-4e-05,-0.0001,-0.00019,-9e-05,-0.00097,6e-05,4e-05,-2e-05,4,32
18997,-4e-05,-0.0001,-0.00019,-9e-05,-0.00097,6e-05,4e-05,-2e-05,4,32
18998,-4e-05,-0.0001,-0.00019,-9e-05,-0.00097,6e-05,4e-05,-2e-05,4,32
18999,-4e-05,-0.0001,-0.00019,-9e-05,-0.00097,6e-05,4e-05,-2e-05,4,32
19000,-4e-05,-0.0001,-0.00019,-9e-05,-0.00097,6e-05,4e-05,-2e-05,4,32
19001,-4e-05,-0.0001,-0.00019,-9e-05,-0.00097,6e-05,4e-05,-2e-05,4,32
19002,-4e-05,-0.0001,-0.00019,-9e-05,-0.00097,6e-05,4e-05,-2e-05,4,32
19003,-4e-05,-0.0001,-0.00019,-9e-05,-0.00097,6e-05,4e-05,-2e-05,4,32
19004,-4e-05,-0.0001,-0.00019,-9e-05,-0.00097,6e-05,4e-05,-2e-05,4,32
19005,-4e-05,-0.0001,-0.00019,-9e-05,-0.00097,6e-05,4e-05,-2e-05,4,32
19006,-4e-05,-0.0001,-0.00019,-9e-05,-0.00097,6e-05,4e-05,-2e-05,4,32
19007,-4e-05,-0.0001,-0.00019,-9e-05,-0.00097,6e-05,4e-05,-2e-05,4,32
19008,-4e-05,-0.0001,-0.00019,-9e-05,-0.00097,6e-05,4e-05,-2e-05,4,32
19009,-4e-05,-0.0001,-0.00019,-9e-05,-0.00097,6e-05,4e-05,-2e-05,4,32
19010,-4e-05,-0.0001,-0.00019,-9e-05,-0.00097,6e-05,4e-05,-2e-05,4,32
19011,-4e-05,-0.0001,-0.00019,-9e-05,-0.00097,6e-05,4e-05,-2e-05,4,32
19012,-4e-05,-0.0001,-0.00019,-9e-05,-0.00097,6e-05,4e-05,-2e-05,4,32
19013,2e-05,-2e-05,-6e-05,0.0001,2e-05,0.00025,9e-05,3e-05,4,32
19014,-8e-05,-0.00012,-0.00011,-0.00043,-0.0005,-0.00048,-0.00016,-9e-05,4,32
19015,-8e-05,-0.00012,-0.00011,-0.00043,-0.0005,-0.00048,-0.00016,-9e-05,4,32
19016,-8e-05,-0.00012,-0.00011,-0.00043,-0.0005,-0.00048,-0.00016,-9e-05,4,32
19017,-8e-05,-0.00012,-0.00011,-0.00043,-0.0005,-0.00048,-0.00016,-9e-05,4,32
19018,-8e-05,-0.00012,-0.00011,-0.00043,-0.0005,-0.00048,-0.00016,-9e-05,4,32
19019,2e-05,-1e-05,-8e-05,-0.00015,4e-05,-0.00029,-4e-05,-1e-05,4,32
19020,3e-05,3e-05,8e-05,0.00018,0.00057,1e-05,3e-05,3e-05,4,32
19021,3e-05,3e-05,8e-05,0.00018,0.00057,1e-05,3e-05,3e-05,4,32
19022,3e-05,3e-05,8e-05,0.00018,0.00057,1e-05,3e-05,3e-05,4,32
19023,3e-05,3e-05,8e-05,0.00018,0.00057,1e-05,3e-05,3e-05,4,32
19024,3e-05,3e-05,8e-05,0.00018,0.00057,1e-05,3e-05,3e-05,4,32
19025,3e-05,3e-05,8e-05,0.00018,0.00057,1e-05,3e-05,3e-05,4,32
19026,-1e-05,-4e-05,-0.00016,-0.00022,-0.00088,0.0001,-2e-05,-1e-05,4,32
19027,-1e-05,-4e-05,-0.00016,-0.00022,-0.00088,0.0001,-2e-05,-1e-05,4,32
19028,-1e-05,-4e-05,-0.00016,-0.00022,-0.00088,0.0001,-2e-05,-1e-05,4,32
19029,-1e-05,-4e-05,-0.00016,-0.00022,-0.00088,0.0001,-2e-05,-1e-05,4,32
19030,-1e-05,-4e-05,-0.00016,-0.00022,-0.00088,0.0001,-2e-05,-1e-05,4,32
19031,-1e-05,-4e-05,-0.00016,-0.00022,-0.00088,0.0001,-2e-05,-1e-05,4,32
19032,-1e-05,-4e-05,-0.00016,-0.00022,-0.00088,0.0001,-2e-05,-1e-05,4,32
19033,-1e-05,-4e-05,-0.00016,-0.00022,-0.00088,0.0001,-2e-05,-1e-05,4,32
19034,-1e-05,-4e-05,-0.00016,-0.00022,-0.00088,0.0001,-2e-05,-1e-05,4,32
19035,-1e-05,-4e-05,-0.00016,-0.00022,-0.00088,0.0001,-2e-05,-1e-05,4,32
19036,-1e-05,-4e-05,-0.00016,-0.00022,-0.00088,0.0001,-2e-05,-1e-05,4,32
19038,-1e-05,-4e-05,-0.00016,-0.00022,-0.00088,0.0001,-2e-05,-1e-05,4,32
19039,-1e-05,-4e-05,-0.00016,-0.00022,-0.00088,0.0001,-2e-05,-1e-05,4,32
19040,-1e-05,-4e-05,-0.00016,-0.00022,-0.00088,0.0001,-2e-05,-1e-05,4,32
19041,-1e-05,-4e-05,-0.00016,-0.00022,-0.00088,0.0001,-2e-05,-1e-05,4,32
19042,-1e-05,-4e-05,-0.00016,-0.00022,-0.00088,0.0001,-2e-05,-1e-05,4,32
19043,-1e-05,-4e-05,-0.00016,-0.00022,-0.00088,0.0001,-2e-05,-1e-05,4,32
19044,-1e-05,-4e-05,-0.00016,-0.00022,-0.00088,0.0001,-2e-05,-1e-05,4,32
19045,-1e-05,-4e-05,-0.00016,-0.00022,-0.00088,0.0001,-2e-05,-1e-05,4,32
19046,-1e-05,-4e-05,-0.00016,-0.00022,-0.00088,0.0001,-2e-05,-1e-05,4,32
19047,-1e-05,-4e-05,-0.00016,-0.00022,-0.00088,0.0001,-2e-05,-1e-05,4,32
19048,-1e-05,-4e-05,-0.00016,-0.00022,-0.00088,0.0001,-2e-05,-1e-05,4,32
19049,-1e-05,-4e-05,-0.00016,-0.00022,-0.00088,0.0001,-2e-05,-1e-05,4,32
19050,-1e-05,-4e-05,-0.00016,-0.00022,-0.00088,0.0001,-2e-05,-1e-05,4,32
19051,-2e-05,1e-05,-8e-05,-0.00029,-0.00043,-8e-05,-2e-05,-1e-05,4,32
19052,-2e-05,1e-05,-8e-05,-0.00029,-0.00043,-8e-05,-2e-05,-1e-05,4,32
19053,-2e-05,1e-05,-8e-05,-0.00029,-0.00043,-8e-05,-2e-05,-1e-05,4,32
19054,-2e-05,1e-05,-8e-05,-0.00029,-0.00043,-8e-05,-2e-05,-1e-05,4,32
19055,-2e-05,1e-05,-8e-05,-0.00029,-0.00043,-8e-05,-2e-05,-1e-05,4,32
19056,4e-05,0,-6e-05,-0.0003,-0.00047,-0.0004,-7e-05,-2e-05,4,32
19057,4e-05,0,-6e-05,-0.0003,-0.00047,-0.0004,-7e-05,-2e-05,4,32
19058,4e-05,0,-6e-05,-0.0003,-0.00047,-0.0004,-7e-05,-2e-05,4,32
19059,4e-05,0,-6e-05,-0.0003,-0.00047,-0.0004,-7e-05,-2e-05,4,32
19060,4e-05,0,-6e-05,-0.0003,-0.00047,-0.0004,-7e-05,-2e-05,4,32
19061,4e-05,0,-6e-05,-0.0003,-0.00047,-0.0004,-7e-05,-2e-05,4,32
19062,4e-05,0,-6e-05,-0.0003,-0.00047,-0.0004,-7e-05,-2e-05,4,32
19063,4e-05,0,-6e-05,-0.0003,-0.00047,-0.0004,-7e-05,-2e-05,4,32
19064,4e-05,0,-6e-05,-0.0003,-0.00047,-0.0004,-7e-05,-2e-05,4,32
19065,1e-05,2e-05,4e-05,-8e-05,-0.00058,0.00038,5e-05,4e-05,4,32
19066,1e-05,2e-05,4e-05,-8e-05,-0.00058,0.00038,5e-05,4e-05,4,32
19067,1e-05,0.0001,0.00021,0.00016,-0.00063,-0.00012,0,-1e-05,4,32
19068,1e-05,0.0001,0.00021,0.00016,-0.00063,-0.00012,0,-1e-05,4,32
19069,1e-05,0.0001,0.00021,0.00016,-0.00063,-0.00012,0,-1e-05,4,32
19070,1e-05,0.0001,0.00021,0.00016,-0.00063,-0.00012,0,-1e-05,4,32
19071,1e-05,0.0001,0.00021,0.00016,-0.00063,-0.00012,0,-1e-05,4,32
19072,1e-05,0.0001,0.00021,0.00016,-0.00063,-0.00012,0,-1e-05,4,32
19073,1e-05,0.0001,0.00021,0.00016,-0.00063,-0.00012,0,-1e-05,4,32
19074,1e-05,0.0001,0.00021,0.00016,-0.00063,-0.00012,0,-1e-05,4,32
19075,1e-05,0.0001,0.00021,0.00016,-0.00063,-0.00012,0,-1e-05,4,32
19076,1e-05,0.0001,0.00021,0.00016,-0.00063,-0.00012,0,-1e-05,4,32
19077,1e-05,0.0001,0.00021,0.00016,-0.00063,-0.00012,0,-1e-05,4,32
19078,1e-05,0.0001,0.00021,0.00016,-0.00063,-0.00012,0,-1e-05,4,32
19079,1e-05,0.0001,0.00021,0.00016,-0.00063,-0.00012,0,-1e-05,4,32
19080,1e-05,0.0001,0.00021,0.00016,-0.00063,-0.00012,0,-1e-05,4,32
19081,1e-05,0.0001,0.00021,0.00016,-0.00063,-0.00012,0,-1e-05,4,32
19082,1e-05,0.0001,0.00021,0.00016,-0.00063,-0.00012,0,-1e-05,4,32
19083,1e-05,0.0001,0.00021,0.00016,-0.00063,-0.00012,0,-1e-05,4,32
19084,1e-05,0.0001,0.00021,0.00016,-0.00063,-0.00012,0,-1e-05,4,32
19085,1e-05,0.0001,0.00021,0.00016,-0.00063,-0.00012,0,-1e-05,4,32
19086,1e-05,0.0001,0.00021,0.00016,-0.00063,-0.00012,0,-1e-05,4,32
19088,1e-05,0.0001,0.00021,0.00016,-0.00063,-0.00012,0,-1e-05,4,32
19089,1e-05,0.0001,0.00021,0.00016,-0.00063,-0.00012,0,-1e-05,4,32
19090,1e-05,0.0001,0.00021,0.00016,-0.00063,-0.00012,0,-1e-05,4,32
19091,1e-05,0.0001,0.00021,0.00016,-0.00063,-0.00012,0,-1e-05,4,32
19092,1e-05,0.0001,0.00021,0.00016,-0.00063,-0.00012,0,-1e-05,4,32
19093,1e-05,0.0001,0.00021,0.00016,-0.00063,-0.00012,0,-1e-05,4,32
19094,1e-05,0.0001,0.00021,0.00016,-0.00063,-0.00012,0,-1e-05,4,32
19095,1e-05,0.0001,0.00021,0.00016,-0.00063,-0.00012,0,-1e-05,4,32
19096,1e-05,-2e-05,0.00014,0.00023,2e-05,-0.00012,2e-05,-2e-05,4,32
19097,1e-05,-2e-05,0.00014,0.00023,2e-05,-0.00012,2e-05,-2e-05,4,32
19098,1e-05,-2e-05,0.00014,0.00023,2e-05,-0.00012,2e-05,-2e-05,4,32
19099,1e-05,-2e-05,0.00014,0.00023,2e-05,-0.00012,2e-05,-2e-05,4,32
19100,1e-05,-2e-05,0.00014,0.00023,2e-05,-0.00012,2e-05,-2e-05,4,32
19101,1e-05,-2e-05,0.00014,0.00023,2e-05,-0.00012,2e-05,-2e-05,4,32
19102,1e-05,-2e-05,0.00014,0.00023,2e-05,-0.00012,2e-05,-2e-05,4,32
19103,2e-05,0,9e-05,0.00013,0.00065,0.00031,2e-05,5e-05,4,32
19104,0,-3e-05,-4e-05,-7e-05,-0.00013,0.00012,0,1e-05,4,32
19105,0,-3e-05,-4e-05,-7e-05,-0.00013,0.00012,0,1e-05,4,32
19106,1e-05,-1e-05,5e-05,-7e-05,-0.00101,-0.0006,-9e-05,-5e-05,4,32
19107,1e-05,-1e-05,5e-05,-7e-05,-0.00101,-0.0006,-9e-05,-5e-05,4,32
19108,1e-05,-1e-05,5e-05,-7e-05,-0.00101,-0.0006,-9e-05,-5e-05,4,32
19109,1e-05,-1e-05,5e-05,-7e-05,-0.00101,-0.0006,-9e-05,-5e-05,4,32
19110,1e-05,-1e-05,5e-05,-7e-05,-0.00101,-0.0006,-9e-05,-5e-05,4,32
19111,1e-05,-1e-05,5e-05,-7e-05,-0.00101,-0.0006,-9e-05,-5e-05,4,32
19112,1e-05,-1e-05,5e-05,-7e-05,-0.00101,-0.0006,-9e-05,-5e-05,4,32
19113,1e-05,-1e-05,5e-05,-7e-05,-0.00101,-0.0006,-9e-05,-5e-05,4,32
19114,1e-05,-1e-05,5e-05,-7e-05,-0.00101,-0.0006,-9e-05,-5e-05,4,32
19115,1e-05,-1e-05,5e-05,-7e-05,-0.00101,-0.0006,-9e-05,-5e-05,4,32
19116,1e-05,-1e-05,5e-05,-7e-05,-0.00101,-0.0006,-9e-05,-5e-05,4,32
19117,1e-05,-1e-05,5e-05,-7e-05,-0.00101,-0.0006,-9e-05,-5e-05,4,32
19118,1e-05,-1e-05,5e-05,-7e-05,-0.00101,-0.0006,-9e-05,-5e-05,4,32
19119,1e-05,-1e-05,5e-05,-7e-05,-0.00101,-0.0006,-9e-05,-5e-05,4,32
19120,1e-05,-1e-05,5e-05,-7e-05,-0.00101,-0.0006,-9e-05,-5e-05,4,32
19121,1e-05,-1e-05,5e-05,-7e-05,-0.00101,-0.0006,-9e-05,-5e-05,4,32
19122,1e-05,-1e-05,5e-05,-7e-05,-0.00101,-0.0006,-9e-05,-5e-05,4,32
19123,1e-05,-1e-05,5e-05,-7e-05,-0.00101,-0.0006,-9e-05,-5e-05,4,32
19124,1e-05,-1e-05,5e-05,-7e-05,-0.00101,-0.0006,-9e-05,-5e-05,4,32
19125,1e-05,-1e-05,5e-05,-7e-05,-0.00101,-0.0006,-9e-05,-5e-05,4,32
19126,1e-05,-1e-05,5e-05,-7e-05,-0.00101,-0.0006,-9e-05,-5e-05,4,32
19127,1e-05,-1e-05,5e-05,-7e-05,-0.00101,-0.0006,-9e-05,-5e-05,4,32
19128,1e-05,-1e-05,5e-05,-7e-05,-0.00101,-0.0006,-9e-05,-5e-05,4,32
19129,1e-05,-1e-05,5e-05,-7e-05,-0.00101,-0.0006,-9e-05,-5e-05,4,32
19130,1e-05,-1e-05,5e-05,-7e-05,-0.00101,-0.0006,-9e-05,-5e-05,4,32
19131,1e-05,-1e-05,5e-05,-7e-05,-0.00101,-0.0006,-9e-05,-5e-05,4,32
19132,1e-05,-1e-05,5e-05,-7e-05,-0.00101,-0.0006,-9e-05,-5e-05,4,32
19133,-1e-05,2e-05,6e-05,0.0003,-0.00023,-0.00063,-0.00014,-6e-05,4,32
19134,-1e-05,2e-05,6e-05,0.0003,-0.00023,-0.00063,-0.00014,-6e-05,4,32
19135,-2e-05,-3e-05,-0.00019,-0.0001,0.00023,0.00058,9e-05,2e-05,4,32
19136,-2e-05,-3e-05,-0.00019,-0.0001,0.00023,0.00058,9e-05,2e-05,4,32
19138,-2e-05,-3e-05,-0.00019,-0.0001,0.00023,0.00058,9e-05,2e-05,4,32
19139,-2e-05,-3e-05,-0.00019,-0.0001,0.00023,0.00058,9e-05,2e-05,4,32
19140,-3e-05,-3e-05,-6e-05,-0.0003,-0.00064,0.00016,-4e-05,-4e-05,4,32
19142,-3e-05,-3e-05,-6e-05,-0.0003,-0.00064,0.00016,-4e-05,-4e-05,4,32
19143,-3e-05,-3e-05,-6e-05,-0.0003,-0.00064,0.00016,-4e-05,-4e-05,4,32
19144,-3e-05,-3e-05,-6e-05,-0.0003,-0.00064,0.00016,-4e-05,-4e-05,4,32
19145,-3e-05,-3e-05,-6e-05,-0.0003,-0.00064,0.00016,-4e-05,-4e-05,4,32
19146,-3e-05,-3e-05,-6e-05,-0.0003,-0.00064,0.00016,-4e-05,-4e-05,4,32
19147,-3e-05,-3e-05,-6e-05,-0.0003,-0.00064,0.00016,-4e-05,-4e-05,4,32
19148,-3e-05,-3e-05,-6e-05,-0.0003,-0.00064,0.00016,-4e-05,-4e-05,4,32
19149,-3e-05,-3e-05,-6e-05,-0.0003,-0.00064,0.00016,-4e-05,-4e-05,4,32
19150,-3e-05,-3e-05,-6e-05,-0.0003,-0.00064,0.00016,-4e-05,-4e-05,4,32
19151,-3e-05,-3e-05,-6e-05,-0.0003,-0.00064,0.00016,-4e-05,-4e-05,4,32
19152,-3e-05,-3e-05,-6e-05,-0.0003,-0.00064,0.00016,-4e-05,-4e-05,4,32
19153,-3e-05,-3e-05,-6e-05,-0.0003,-0.00064,0.00016,-4e-05,-4e-05,4,32
19154,-3e-05,-3e-05,-6e-05,-0.0003,-0.00064,0.00016,-4e-05,-4e-05,4,32
19155,-3e-05,-3e-05,-6e-05,-0.0003,-0.00064,0.00016,-4e-05,-4e-05,4,32
19156,-3e-05,-3e-05,-6e-05,-0.0003,-0.00064,0.00016,-4e-05,-4e-05,4,32
19157,-3e-05,-3e-05,-6e-05,-0.0003,-0.00064,0.00016,-4e-05,-4e-05,4,32
19158,-3e-05,-3e-05,-6e-05,-0.0003,-0.00064,0.00016,-4e-05,-4e-05,4,32
19159,-3e-05,-3e-05,-6e-05,-0.0003,-0.00064,0.00016,-4e-05,-4e-05,4,32
19160,-3e-05,-3e-05,-6e-05,-0.0003,-0.00064,0.00016,-4e-05,-4e-05,4,32
19161,-3e-05,-3e-05,-6e-05,-0.0003,-0.00064,0.00016,-4e-05,-4e-05,4,32
19162,-3e-05,-3e-05,-6e-05,-0.0003,-0.00064,0.00016,-4e-05,-4e-05,4,32
19163,-3e-05,-3e-05,-6e-05,-0.0003,-0.00064,0.00016,-4e-05,-4e-05,4,32
19164,-3e-05,-3e-05,-6e-05,-0.0003,-0.00064,0.00016,-4e-05,-4e-05,4,32
19165,-3e-05,-3e-05,-6e-05,-0.0003,-0.00064,0.00016,-4e-05,-4e-05,4,32
19166,-3e-05,-3e-05,-6e-05,-0.0003,-0.00064,0.00016,-4e-05,-4e-05,4,32
19167,-3e-05,-3e-05,-6e-05,-0.0003,-0.00064,0.00016,-4e-05,-4e-05,4,32
19168,-3e-05,-3e-05,-6e-05,-0.0003,-0.00064,0.00016,-4e-05,-4e-05,4,32
19169,-3e-05,-3e-05,-6e-05,-0.0003,-0.00064,0.00016,-4e-05,-4e-05,4,32
19170,-3e-05,-3e-05,-6e-05,-0.0003,-0.00064,0.00016,-4e-05,-4e-05,4,32
19171,1e-05,0.00011,0.0003,0.00042,0.00083,-0.00016,-7e-05,-3e-05,4,32
19172,-2e-05,-2e-05,0,0.00012,0.00036,-2e-05,-1e-05,2e-05,4,32
19173,0,1e-05,6e-05,0.00013,5e-05,-0.0002,4e-05,1e-05,4,32
