15033,1e-05,4e-05,0.00028,0.00028,1e-05,-0.0002,-6e-05,-3e-05,4,4
15034,1e-05,4e-05,0.00028,0.00028,1e-05,-0.0002,-6e-05,-3e-05,4,4
15035,1e-05,4e-05,0.00028,0.00028,1e-05,-0.0002,-6e-05,-3e-05,4,4
15036,1e-05,4e-05,0.00028,0.00028,1e-05,-0.0002,-6e-05,-3e-05,4,4
15038,1e-05,4e-05,0.00028,0.00028,1e-05,-0.0002,-6e-05,-3e-05,4,4
15039,1e-05,4e-05,0.00028,0.00028,1e-05,-0.0002,-6e-05,-3e-05,4,4
15040,1e-05,4e-05,0.00028,0.00028,1e-05,-0.0002,-6e-05,-3e-05,4,4
15041,1e-05,4e-05,0.00028,0.00028,1e-05,-0.0002,-6e-05,-3e-05,4,4
15042,1e-05,4e-05,0.00028,0.00028,1e-05,-0.0002,-6e-05,-3e-05,4,4
15043,1e-05,4e-05,0.00028,0.00028,1e-05,-0.0002,-6e-05,-3e-05,4,4
15044,1e-05,4e-05,0.00028,0.00028,1e-05,-0.0002,-6e-05,-3e-05,4,4
15045,1e-05,4e-05,0.00028,0.00028,1e-05,-0.0002,-6e-05,-3e-05,4,4
15046,9e-05,0.00011,0.00015,0.001,0.00127,0.00011,7e-05,3e-05,4,4
15047,-6e-05,-0.00013,-0.00019,-0.00014,-0.00056,-1e-05,-0.0001,-5e-05,4,4
15048,-6e-05,-0.00013,-0.00019,-0.00014,-0.00056,-1e-05,-0.0001,-5e-05,4,4
15049,-6e-05,-0.00013,-0.00019,-0.00014,-0.00056,-1e-05,-0.0001,-5e-05,4,4
15050,-6e-05,-0.00013,-0.00019,-0.00014,-0.00056,-1e-05,-0.0001,-5e-05,4,4
15051,-6e-05,-0.00013,-0.00019,-0.00014,-0.00056,-1e-05,-0.0001,-5e-05,4,4
15052,-6e-05,-0.00013,-0.00019,-0.00014,-0.00056,-1e-05,-0.0001,-5e-05,4,4
15053,-6e-05,-0.00013,-0.00019,-0.00014,-0.00056,-1e-05,-0.0001,-5e-05,4,4
15054,-6e-05,-0.00013,-0.00019,-0.00014,-0.00056,-1e-05,-0.0001,-5e-05,4,4
15055,-6e-05,-0.00013,-0.00019,-0.00014,-0.00056,-1e-05,-0.0001,-5e-05,4,4
15056,-6e-05,-0.00013,-0.00019,-0.00014,-0.00056,-1e-05,-0.0001,-5e-05,4,4
15057,-6e-05,-0.00013,-0.00019,-0.00014,-0.00056,-1e-05,-0.0001,-5e-05,4,4
15058,-6e-05,-0.00013,-0.00019,-0.00014,-0.00056,-1e-05,-0.0001,-5e-05,4,4
15060,-6e-05,-0.00013,-0.00019,-0.00014,-0.00056,-1e-05,-0.0001,-5e-05,4,4
15061,-6e-05,-0.00013,-0.00019,-0.00014,-0.00056,-1e-05,-0.0001,-5e-05,4,4
15062,-6e-05,-0.00013,-0.00019,-0.00014,-0.00056,-1e-05,-0.0001,-5e-05,4,4
15063,-6e-05,-0.00013,-0.00019,-0.00014,-0.00056,-1e-05,-0.0001,-5e-05,4,4
15064,-6e-05,-0.00013,-0.00019,-0.00014,-0.00056,-1e-05,-0.0001,-5e-05,4,4
15065,-6e-05,-0.00013,-0.00019,-0.00014,-0.00056,-1e-05,-0.0001,-5e-05,4,4
15066,-6e-05,-0.00013,-0.00019,-0.00014,-0.00056,-1e-05,-0.0001,-5e-05,4,4
15067,-6e-05,-0.00013,-0.00019,-0.00014,-0.00056,-1e-05,-0.0001,-5e-05,4,4
15068,-9e-05,-0.0001,-0.00011,-0.00068,-0.00084,-5e-05,-8e-05,-4e-05,4,4
15069,-9e-05,-0.0001,-0.00011,-0.00068,-0.00084,-5e-05,-8e-05,-4e-05,4,4
15070,-6e-05,-9e-05,-5e-05,-9e-05,0.00042,-0.00034,-5e-05,-2e-05,4,4
15071,-6e-05,-9e-05,-5e-05,-9e-05,0.00042,-0.00034,-5e-05,-2e-05,4,4
15072,-6e-05,-9e-05,-5e-05,-9e-05,0.00042,-0.00034,-5e-05,-2e-05,4,4
15073,-6e-05,-9e-05,-5e-05,-9e-05,0.00042,-0.00034,-5e-05,-2e-05,4,4
15074,-6e-05,-9e-05,-5e-05,-9e-05,0.00042,-0.00034,-5e-05,-2e-05,4,4
15075,-6e-05,-9e-05,-5e-05,-9e-05,0.00042,-0.00034,-5e-05,-2e-05,4,4
15076,-6e-05,-9e-05,-5e-05,-9e-05,0.00042,-0.00034,-5e-05,-2e-05,4,4
15077,-6e-05,-9e-05,-5e-05,-9e-05,0.00042,-0.00034,-5e-05,-2e-05,4,4
15078,-6e-05,-9e-05,-5e-05,-9e-05,0.00042,-0.00034,-5e-05,-2e-05,4,4
15079,-6e-05,-9e-05,-5e-05,-9e-05,0.00042,-0.00034,-5e-05,-2e-05,4,4
15080,-6e-05,-9e-05,-5e-05,-9e-05,0.00042,-0.00034,-5e-05,-2e-05,4,4
15081,-6e-05,-9e-05,-5e-05,-9e-05,0.00042,-0.00034,-5e-05,-2e-05,4,4
15082,2e-05,8e-05,2e-05,-9e-05,-0.00015,8e-05,0.00013,-1e-05,4,4
15083,2e-05,8e-05,2e-05,-9e-05,-0.00015,8e-05,0.00013,-1e-05,4,4
15084,2e-05,8e-05,2e-05,-9e-05,-0.00015,8e-05,0.00013,-1e-05,4,4
15085,2e-05,8e-05,2e-05,-9e-05,-0.00015,8e-05,0.00013,-1e-05,4,4
15086,2e-05,8e-05,2e-05,-9e-05,-0.00015,8e-05,0.00013,-1e-05,4,4
15087,2e-05,8e-05,2e-05,-9e-05,-0.00015,8e-05,0.00013,-1e-05,4,4
15088,2e-05,8e-05,2e-05,-9e-05,-0.00015,8e-05,0.00013,-1e-05,4,4
15089,2e-05,8e-05,2e-05,-9e-05,-0.00015,8e-05,0.00013,-1e-05,4,4
15090,2e-05,8e-05,2e-05,-9e-05,-0.00015,8e-05,0.00013,-1e-05,4,4
15091,-1e-05,-4e-05,-9e-05,-0.00035,-0.00038,-0.00015,-9e-05,-5e-05,4,4
15092,-1e-05,-4e-05,-9e-05,-0.00035,-0.00038,-0.00015,-9e-05,-5e-05,4,4
15093,-1e-05,-4e-05,-9e-05,-0.00035,-0.00038,-0.00015,-9e-05,-5e-05,4,4
15094,-1e-05,-4e-05,-9e-05,-0.00035,-0.00038,-0.00015,-9e-05,-5e-05,4,4
15095,-1e-05,-4e-05,-9e-05,-0.00035,-0.00038,-0.00015,-9e-05,-5e-05,4,4
15096,-1e-05,-4e-05,-9e-05,-0.00035,-0.00038,-0.00015,-9e-05,-5e-05,4,4
15097,-1e-05,-4e-05,-9e-05,-0.00035,-0.00038,-0.00015,-9e-05,-5e-05,4,4
15098,-1e-05,-4e-05,-9e-05,-0.00035,-0.00038,-0.00015,-9e-05,-5e-05,4,4
15099,-1e-05,-4e-05,-9e-05,-0.00035,-0.00038,-0.00015,-9e-05,-5e-05,4,4
15100,-1e-05,-4e-05,-9e-05,-0.00035,-0.00038,-0.00015,-9e-05,-5e-05,4,4
15101,-1e-05,-4e-05,-9e-05,-0.00035,-0.00038,-0.00015,-9e-05,-5e-05,4,4
15102,-1e-05,-4e-05,-9e-05,-0.00035,-0.00038,-0.00015,-9e-05,-5e-05,4,4
15103,-1e-05,-4e-05,-9e-05,-0.00035,-0.00038,-0.00015,-9e-05,-5e-05,4,4
15104,-1e-05,-4e-05,-9e-05,-0.00035,-0.00038,-0.00015,-9e-05,-5e-05,4,4
15106,-1e-05,-4e-05,-9e-05,-0.00035,-0.00038,-0.00015,-9e-05,-5e-05,4,4
15107,3e-05,7e-05,-1e-05,-0.00046,-0.00081,-0.00018,-1e-05,3e-05,4,4
15108,3e-05,7e-05,-1e-05,-0.00046,-0.00081,-0.00018,-1e-05,3e-05,4,4
15109,3e-05,7e-05,-1e-05,-0.00046,-0.00081,-0.00018,-1e-05,3e-05,4,4
15110,3e-05,7e-05,-1e-05,-0.00046,-0.00081,-0.00018,-1e-05,3e-05,4,4
15111,3e-05,7e-05,-1e-05,-0.00046,-0.00081,-0.00018,-1e-05,3e-05,4,4
15112,3e-05,7e-05,-1e-05,-0.00046,-0.00081,-0.00018,-1e-05,3e-05,4,4
15113,3e-05,7e-05,-1e-05,-0.00046,-0.00081,-0.00018,-1e-05,3e-05,4,4
15114,3e-05,7e-05,-1e-05,-0.00046,-0.00081,-0.00018,-1e-05,3e-05,4,4
15115,3e-05,7e-05,-1e-05,-0.00046,-0.00081,-0.00018,-1e-05,3e-05,4,4
15116,3e-05,7e-05,-1e-05,-0.00046,-0.00081,-0.00018,-1e-05,3e-05,4,4
15117,3e-05,7e-05,-1e-05,-0.00046,-0.00081,-0.00018,-1e-05,3e-05,4,4
15118,3e-05,7e-05,-1e-05,-0.00046,-0.00081,-0.00018,-1e-05,3e-05,4,4
15119,3e-05,7e-05,-1e-05,-0.00046,-0.00081,-0.00018,-1e-05,3e-05,4,4
15120,3e-05,7e-05,-1e-05,-0.00046,-0.00081,-0.00018,-1e-05,3e-05,4,4
15121,3e-05,7e-05,-1e-05,-0.00046,-0.00081,-0.00018,-1e-05,3e-05,4,4
15122,3e-05,7e-05,-1e-05,-0.00046,-0.00081,-0.00018,-1e-05,3e-05,4,4
15123,3e-05,7e-05,-1e-05,-0.00046,-0.00081,-0.00018,-1e-05,3e-05,4,4
15124,3e-05,7e-05,-1e-05,-0.00046,-0.00081,-0.00018,-1e-05,3e-05,4,4
15125,3e-05,7e-05,-1e-05,-0.00046,-0.00081,-0.00018,-1e-05,3e-05,4,4
15126,3e-05,7e-05,-1e-05,-0.00046,-0.00081,-0.00018,-1e-05,3e-05,4,4
15127,3e-05,7e-05,-1e-05,-0.00046,-0.00081,-0.00018,-1e-05,3e-05,4,4
15128,-7e-05,-0.00015,-0.00045,-0.0007,-0.00032,0.00019,-4e-05,-3e-05,4,4
15129,-7e-05,-0.00015,-0.00045,-0.0007,-0.00032,0.00019,-4e-05,-3e-05,4,4
15130,-6e-05,-0.00026,-0.00051,-0.00055,0.00023,0.0002,3e-05,1e-05,4,4
15131,-6e-05,-0.00026,-0.00051,-0.00055,0.00023,0.0002,3e-05,1e-05,4,4
15132,-6e-05,-0.00026,-0.00051,-0.00055,0.00023,0.0002,3e-05,1e-05,4,4
15133,-6e-05,-0.00026,-0.00051,-0.00055,0.00023,0.0002,3e-05,1e-05,4,4
15134,-6e-05,-0.00026,-0.00051,-0.00055,0.00023,0.0002,3e-05,1e-05,4,4
15135,-6e-05,-0.00026,-0.00051,-0.00055,0.00023,0.0002,3e-05,1e-05,4,4
15136,-6e-05,-0.00026,-0.00051,-0.00055,0.00023,0.0002,3e-05,1e-05,4,4
15137,-6e-05,-0.00026,-0.00051,-0.00055,0.00023,0.0002,3e-05,1e-05,4,4
15138,-6e-05,-0.00026,-0.00051,-0.00055,0.00023,0.0002,3e-05,1e-05,4,4
15139,-6e-05,-0.00026,-0.00051,-0.00055,0.00023,0.0002,3e-05,1e-05,4,4
15140,-6e-05,-0.00026,-0.00051,-0.00055,0.00023,0.0002,3e-05,1e-05,4,4
15141,-6e-05,-0.00026,-0.00051,-0.00055,0.00023,0.0002,3e-05,1e-05,4,4
15142,2e-05,0,0.00013,0.00021,0.00055,-8e-05,2e-05,-2e-05,4,4
15143,2e-05,0,0.00013,0.00021,0.00055,-8e-05,2e-05,-2e-05,4,4
15144,2e-05,0,0.00013,0.00021,0.00055,-8e-05,2e-05,-2e-05,4,4
15145,2e-05,0,0.00013,0.00021,0.00055,-8e-05,2e-05,-2e-05,4,4
15146,2e-05,0,0.00013,0.00021,0.00055,-8e-05,2e-05,-2e-05,4,4
15147,2e-05,0,0.00013,0.00021,0.00055,-8e-05,2e-05,-2e-05,4,4
15148,2e-05,0,0.00013,0.00021,0.00055,-8e-05,2e-05,-2e-05,4,4
15149,2e-05,0,0.00013,0.00021,0.00055,-8e-05,2e-05,-2e-05,4,4
15150,2e-05,0,0.00013,0.00021,0.00055,-8e-05,2e-05,-2e-05,4,4
15151,-2e-05,2e-05,0.00016,0.00019,3e-05,-0.00021,3e-05,-4e-05,4,4
15153,-2e-05,2e-05,0.00016,0.00019,3e-05,-0.00021,3e-05,-4e-05,4,4
15154,-2e-05,2e-05,0.00016,0.00019,3e-05,-0.00021,3e-05,-4e-05,4,4
15155,-2e-05,2e-05,0.00016,0.00019,3e-05,-0.00021,3e-05,-4e-05,4,4
15156,-2e-05,2e-05,0.00016,0.00019,3e-05,-0.00021,3e-05,-4e-05,4,4
15157,-2e-05,2e-05,0.00016,0.00019,3e-05,-0.00021,3e-05,-4e-05,4,4
15158,-2e-05,2e-05,0.00016,0.00019,3e-05,-0.00021,3e-05,-4e-05,4,4
15159,-2e-05,2e-05,0.00016,0.00019,3e-05,-0.00021,3e-05,-4e-05,4,4
15160,-2e-05,2e-05,0.00016,0.00019,3e-05,-0.00021,3e-05,-4e-05,4,4
15161,-2e-05,2e-05,0.00016,0.00019,3e-05,-0.00021,3e-05,-4e-05,4,4
15162,-2e-05,2e-05,0.00016,0.00019,3e-05,-0.00021,3e-05,-4e-05,4,4
15163,-2e-05,2e-05,0.00016,0.00019,3e-05,-0.00021,3e-05,-4e-05,4,4
15164,-2e-05,2e-05,0.00016,0.00019,3e-05,-0.00021,3e-05,-4e-05,4,4
15165,-2e-05,2e-05,0.00016,0.00019,3e-05,-0.00021,3e-05,-4e-05,4,4
15166,1e-05,-6e-05,-0.00014,-1e-05,0.00036,0.00018,3e-05,4e-05,4,4
15167,-4e-05,4e-05,0.0001,0.00022,-0.00012,-6e-05,-1e-05,-6e-05,4,4
15168,-4e-05,4e-05,0.0001,0.00022,-0.00012,-6e-05,-1e-05,-6e-05,4,4
15169,-4e-05,4e-05,0.0001,0.00022,-0.00012,-6e-05,-1e-05,-6e-05,4,4
15170,-4e-05,4e-05,0.0001,0.00022,-0.00012,-6e-05,-1e-05,-6e-05,4,4
15171,-4e-05,4e-05,0.0001,0.00022,-0.00012,-6e-05,-1e-05,-6e-05,4,4
15172,-4e-05,4e-05,0.0001,0.00022,-0.00012,-6e-05,-1e-05,-6e-05,4,4
15173,-4e-05,4e-05,0.0001,0.00022,-0.00012,-6e-05,-1e-05,-6e-05,4,4
15174,-4e-05,4e-05,0.0001,0.00022,-0.00012,-6e-05,-1e-05,-6e-05,4,4
15175,-4e-05,4e-05,0.0001,0.00022,-0.00012,-6e-05,-1e-05,-6e-05,4,4
15176,-4e-05,4e-05,0.0001,0.00022,-0.00012,-6e-05,-1e-05,-6e-05,4,4
15177,-4e-05,4e-05,0.0001,0.00022,-0.00012,-6e-05,-1e-05,-6e-05,4,4
15178,-4e-05,4e-05,0.0001,0.00022,-0.00012,-6e-05,-1e-05,-6e-05,4,4
15179,-4e-05,4e-05,0.0001,0.00022,-0.00012,-6e-05,-1e-05,-6e-05,4,4
15180,-4e-05,4e-05,0.0001,0.00022,-0.00012,-6e-05,-1e-05,-6e-05,4,4
15181,-4e-05,4e-05,0.0001,0.00022,-0.00012,-6e-05,-1e-05,-6e-05,4,4
15182,-4e-05,4e-05,0.0001,0.00022,-0.00012,-6e-05,-1e-05,-6e-05,4,4
15183,-4e-05,4e-05,0.0001,0.00022,-0.00012,-6e-05,-1e-05,-6e-05,4,4
15184,-4e-05,4e-05,0.0001,0.00022,-0.00012,-6e-05,-1e-05,-6e-05,4,4
15185,-4e-05,4e-05,0.0001,0.00022,-0.00012,-6e-05,-1e-05,-6e-05,4,4
15186,-4e-05,4e-05,0.0001,0.00022,-0.00012,-6e-05,-1e-05,-6e-05,4,4
15187,-4e-05,4e-05,0.0001,0.00022,-0.00012,-6e-05,-1e-05,-6e-05,4,4
15188,3e-05,0.0001,-1e-05,-5e-05,-2e-05,-9e-05,0,0,4,4
15189,3e-05,0.0001,-1e-05,-5e-05,-2e-05,-9e-05,0,0,4,4
15190,8e-05,0.00012,0.00022,0.00032,0.0003,4e-05,7e-05,5e-05,4,4
15191,8e-05,0.00012,0.00022,0.00032,0.0003,4e-05,7e-05,5e-05,4,4
15192,8e-05,0.00012,0.00022,0.00032,0.0003,4e-05,7e-05,5e-05,4,4
15193,8e-05,0.00012,0.00022,0.00032,0.0003,4e-05,7e-05,5e-05,4,4
15194,8e-05,0.00012,0.00022,0.00032,0.0003,4e-05,7e-05,5e-05,4,4
15195,8e-05,0.00012,0.00022,0.00032,0.0003,4e-05,7e-05,5e-05,4,4
15196,8e-05,0.00012,0.00022,0.00032,0.0003,4e-05,7e-05,5e-05,4,4
15197,8e-05,0.00012,0.00022,0.00032,0.0003,4e-05,7e-05,5e-05,4,4
15198,8e-05,0.00012,0.00022,0.00032,0.0003,4e-05,7e-05,5e-05,4,4
15200,8e-05,0.00012,0.00022,0.00032,0.0003,4e-05,7e-05,5e-05,4,4
15201,8e-05,0.00012,0.00022,0.00032,0.0003,4e-05,7e-05,5e-05,4,4
15202,-3e-05,2e-05,-0.0001,-0.00083,-0.00111,-4e-05,-7e-05,6e-05,4,4
15203,-3e-05,2e-05,-0.0001,-0.00083,-0.00111,-4e-05,-7e-05,6e-05,4,4
15204,-3e-05,2e-05,-0.0001,-0.00083,-0.00111,-4e-05,-7e-05,6e-05,4,4
15205,-3e-05,2e-05,-0.0001,-0.00083,-0.00111,-4e-05,-7e-05,6e-05,4,4
15206,-3e-05,2e-05,-0.0001,-0.00083,-0.00111,-4e-05,-7e-05,6e-05,4,4
15207,-3e-05,2e-05,-0.0001,-0.00083,-0.00111,-4e-05,-7e-05,6e-05,4,4
15208,-3e-05,2e-05,-0.0001,-0.00083,-0.00111,-4e-05,-7e-05,6e-05,4,4
15209,-3e-05,2e-05,-0.0001,-0.00083,-0.00111,-4e-05,-7e-05,6e-05,4,4
15210,-3e-05,2e-05,-0.0001,-0.00083,-0.00111,-4e-05,-7e-05,6e-05,4,4
15211,-6e-05,-0.00012,-0.00035,-0.00077,-0.0004,-9e-05,-7e-05,-8e-05,4,4
15212,-6e-05,-0.00012,-0.00035,-0.00077,-0.0004,-9e-05,-7e-05,-8e-05,4,4
15213,-6e-05,-0.00012,-0.00035,-0.00077,-0.0004,-9e-05,-7e-05,-8e-05,4,4
15214,-6e-05,-0.00012,-0.00035,-0.00077,-0.0004,-9e-05,-7e-05,-8e-05,4,4
15215,-6e-05,-0.00012,-0.00035,-0.00077,-0.0004,-9e-05,-7e-05,-8e-05,4,4
15216,-6e-05,-0.00012,-0.00035,-0.00077,-0.0004,-9e-05,-7e-05,-8e-05,4,4
15217,-6e-05,-0.00012,-0.00035,-0.00077,-0.0004,-9e-05,-7e-05,-8e-05,4,4
15218,-6e-05,-0.00012,-0.00035,-0.00077,-0.0004,-9e-05,-7e-05,-8e-05,4,4
15219,-6e-05,-0.00012,-0.00035,-0.00077,-0.0004,-9e-05,-7e-05,-8e-05,4,4
15220,-6e-05,-0.00012,-0.00035,-0.00077,-0.0004,-9e-05,-7e-05,-8e-05,4,4
15221,-6e-05,-0.00012,-0.00035,-0.00077,-0.0004,-9e-05,-7e-05,-8e-05,4,4
15222,-6e-05,-0.00012,-0.00035,-0.00077,-0.0004,-9e-05,-7e-05,-8e-05,4,4
15223,-6e-05,-0.00012,-0.00035,-0.00077,-0.0004,-9e-05,-7e-05,-8e-05,4,4
15224,-6e-05,-0.00012,-0.00035,-0.00077,-0.0004,-9e-05,-7e-05,-8e-05,4,4
15225,-6e-05,-0.00012,-0.00035,-0.00077,-0.0004,-9e-05,-7e-05,-8e-05,4,4
15226,6e-05,0.00018,0.00036,0.00074,0.00041,7e-05,9e-05,3e-05,4,4
15227,3e-05,0.00016,0.00039,-0.00011,-0.00056,-0.00045,-5e-05,1e-05,4,4
15228,3e-05,0.00016,0.00039,-0.00011,-0.00056,-0.00045,-5e-05,1e-05,4,4
15229,3e-05,0.00016,0.00039,-0.00011,-0.00056,-0.00045,-5e-05,1e-05,4,4
15230,3e-05,0.00016,0.00039,-0.00011,-0.00056,-0.00045,-5e-05,1e-05,4,4
15231,3e-05,0.00016,0.00039,-0.00011,-0.00056,-0.00045,-5e-05,1e-05,4,4
15232,3e-05,0.00016,0.00039,-0.00011,-0.00056,-0.00045,-5e-05,1e-05,4,4
15233,3e-05,0.00016,0.00039,-0.00011,-0.00056,-0.00045,-5e-05,1e-05,4,4
15234,3e-05,0.00016,0.00039,-0.00011,-0.00056,-0.00045,-5e-05,1e-05,4,4
15235,3e-05,0.00016,0.00039,-0.00011,-0.00056,-0.00045,-5e-05,1e-05,4,4
15236,3e-05,0.00016,0.00039,-0.00011,-0.00056,-0.00045,-5e-05,1e-05,4,4
15237,3e-05,0.00016,0.00039,-0.00011,-0.00056,-0.00045,-5e-05,1e-05,4,4
15238,3e-05,0.00016,0.00039,-0.00011,-0.00056,-0.00045,-5e-05,1e-05,4,4
15239,3e-05,0.00016,0.00039,-0.00011,-0.00056,-0.00045,-5e-05,1e-05,4,4
15240,3e-05,0.00016,0.00039,-0.00011,-0.00056,-0.00045,-5e-05,1e-05,4,4
15241,3e-05,0.00016,0.00039,-0.00011,-0.00056,-0.00045,-5e-05,1e-05,4,4
15242,3e-05,0.00016,0.00039,-0.00011,-0.00056,-0.00045,-5e-05,1e-05,4,4
15243,3e-05,0.00016,0.00039,-0.00011,-0.00056,-0.00045,-5e-05,1e-05,4,4
15244,3e-05,0.00016,0.00039,-0.00011,-0.00056,-0.00045,-5e-05,1e-05,4,4
15246,3e-05,0.00016,0.00039,-0.00011,-0.00056,-0.00045,-5e-05,1e-05,4,4
15247,3e-05,0.00016,0.00039,-0.00011,-0.00056,-0.00045,-5e-05,1e-05,4,4
15248,-0.00012,-0.00019,-0.00013,0.00014,0.00023,-0.00025,-6e-05,-7e-05,4,4
15249,-0.00012,-0.00019,-0.00013,0.00014,0.00023,-0.00025,-6e-05,-7e-05,4,4
15250,-2e-05,-0.00012,-1e-05,0.00026,0.00027,0.00025,0,-1e-05,4,4
15251,-2e-05,-0.00012,-1e-05,0.00026,0.00027,0.00025,0,-1e-05,4,4
15252,-2e-05,-0.00012,-1e-05,0.00026,0.00027,0.00025,0,-1e-05,4,4
15253,-2e-05,-0.00012,-1e-05,0.00026,0.00027,0.00025,0,-1e-05,4,4
15254,-2e-05,-0.00012,-1e-05,0.00026,0.00027,0.00025,0,-1e-05,4,4
15255,-2e-05,-0.00012,-1e-05,0.00026,0.00027,0.00025,0,-1e-05,4,4
15256,-2e-05,-0.00012,-1e-05,0.00026,0.00027,0.00025,0,-1e-05,4,4
15257,-2e-05,-0.00012,-1e-05,0.00026,0.00027,0.00025,0,-1e-05,4,4
15258,-2e-05,-0.00012,-1e-05,0.00026,0.00027,0.00025,0,-1e-05,4,4
15259,-2e-05,-0.00012,-1e-05,0.00026,0.00027,0.00025,0,-1e-05,4,4
15260,-2e-05,-0.00012,-1e-05,0.00026,0.00027,0.00025,0,-1e-05,4,4
15261,-2e-05,-0.00012,-1e-05,0.00026,0.00027,0.00025,0,-1e-05,4,4
15262,-5e-05,-4e-05,8e-05,0.00013,-0.00046,0.00022,1e-05,-2e-05,4,4
15263,-5e-05,-4e-05,8e-05,0.00013,-0.00046,0.00022,1e-05,-2e-05,4,4
15264,-5e-05,-4e-05,8e-05,0.00013,-0.00046,0.00022,1e-05,-2e-05,4,4
15265,-5e-05,-4e-05,8e-05,0.00013,-0.00046,0.00022,1e-05,-2e-05,4,4
15266,-5e-05,-4e-05,8e-05,0.00013,-0.00046,0.00022,1e-05,-2e-05,4,4
15267,-5e-05,-4e-05,8e-05,0.00013,-0.00046,0.00022,1e-05,-2e-05,4,4
15268,-5e-05,-4e-05,8e-05,0.00013,-0.00046,0.00022,1e-05,-2e-05,4,4
15269,-5e-05,-4e-05,8e-05,0.00013,-0.00046,0.00022,1e-05,-2e-05,4,4
15270,-5e-05,-4e-05,8e-05,0.00013,-0.00046,0.00022,1e-05,-2e-05,4,4
15271,4e-05,9e-05,1e-05,0.00011,0.00074,0.00019,0,-1e-05,4,4
15272,4e-05,9e-05,1e-05,0.00011,0.00074,0.00019,0,-1e-05,4,4
15273,4e-05,9e-05,1e-05,0.00011,0.00074,0.00019,0,-1e-05,4,4
15274,4e-05,9e-05,1e-05,0.00011,0.00074,0.00019,0,-1e-05,4,4
15275,4e-05,9e-05,1e-05,0.00011,0.00074,0.00019,0,-1e-05,4,4
15276,4e-05,9e-05,1e-05,0.00011,0.00074,0.00019,0,-1e-05,4,4
15277,4e-05,9e-05,1e-05,0.00011,0.00074,0.00019,0,-1e-05,4,4
15278,4e-05,9e-05,1e-05,0.00011,0.00074,0.00019,0,-1e-05,4,4
15279,4e-05,9e-05,1e-05,0.00011,0.00074,0.00019,0,-1e-05,4,4
15280,4e-05,9e-05,1e-05,0.00011,0.00074,0.00019,0,-1e-05,4,4
15281,4e-05,9e-05,1e-05,0.00011,0.00074,0.00019,0,-1e-05,4,4
15282,4e-05,9e-05,1e-05,0.00011,0.00074,0.00019,0,-1e-05,4,4
15283,4e-05,9e-05,1e-05,0.00011,0.00074,0.00019,0,-1e-05,4,4
15284,4e-05,9e-05,1e-05,0.00011,0.00074,0.00019,0,-1e-05,4,4
15285,4e-05,9e-05,1e-05,0.00011,0.00074,0.00019,0,-1e-05,4,4
15286,-7e-05,-0.00018,-0.00022,-6e-05,-4e-05,-5e-05,-0.00011,-0.0001,4,4
15288,-2e-05,3e-05,-4e-05,0.00013,0.00049,0.00023,6e-05,-2e-05,4,4
15289,-2e-05,3e-05,-4e-05,0.00013,0.00049,0.00023,6e-05,-2e-05,4,4
15290,-2e-05,3e-05,-4e-05,0.00013,0.00049,0.00023,6e-05,-2e-05,4,4
15291,-2e-05,3e-05,-4e-05,0.00013,0.00049,0.00023,6e-05,-2e-05,4,4
15293,-2e-05,3e-05,-4e-05,0.00013,0.00049,0.00023,6e-05,-2e-05,4,4
15294,-2e-05,3e-05,-4e-05,0.00013,0.00049,0.00023,6e-05,-2e-05,4,4
15295,-2e-05,3e-05,-4e-05,0.00013,0.00049,0.00023,6e-05,-2e-05,4,4
15296,-2e-05,3e-05,-4e-05,0.00013,0.00049,0.00023,6e-05,-2e-05,4,4
15297,-2e-05,3e-05,-4e-05,0.00013,0.00049,0.00023,6e-05,-2e-05,4,4
15298,-2e-05,3e-05,-4e-05,0.00013,0.00049,0.00023,6e-05,-2e-05,4,4
15299,-2e-05,3e-05,-4e-05,0.00013,0.00049,0.00023,6e-05,-2e-05,4,4
15300,-2e-05,3e-05,-4e-05,0.00013,0.00049,0.00023,6e-05,-2e-05,4,4
15301,-2e-05,3e-05,-4e-05,0.00013,0.00049,0.00023,6e-05,-2e-05,4,4
15302,-2e-05,3e-05,-4e-05,0.00013,0.00049,0.00023,6e-05,-2e-05,4,4
15303,-2e-05,3e-05,-4e-05,0.00013,0.00049,0.00023,6e-05,-2e-05,4,4
15304,-2e-05,3e-05,-4e-05,0.00013,0.00049,0.00023,6e-05,-2e-05,4,4
15305,-2e-05,3e-05,-4e-05,0.00013,0.00049,0.00023,6e-05,-2e-05,4,4
15306,-2e-05,3e-05,-4e-05,0.00013,0.00049,0.00023,6e-05,-2e-05,4,4
15307,-2e-05,3e-05,-4e-05,0.00013,0.00049,0.00023,6e-05,-2e-05,4,4
15308,1e-05,1e-05,-0.00017,-0.0006,-0.00023,-0.00032,-0.00012,0,4,4
15309,1e-05,1e-05,-0.00017,-0.0006,-0.00023,-0.00032,-0.00012,0,4,4
15310,0.00013,0.00013,0.00025,0.00076,0.00081,-9e-05,4e-05,5e-05,4,4
15311,0.00013,0.00013,0.00025,0.00076,0.00081,-9e-05,4e-05,5e-05,4,4
15315,0.00013,0.00013,0.00025,0.00076,0.00081,-9e-05,4e-05,5e-05,4,4
15316,0.00013,0.00013,0.00025,0.00076,0.00081,-9e-05,4e-05,5e-05,4,4
15317,0.00013,0.00013,0.00025,0.00076,0.00081,-9e-05,4e-05,5e-05,4,4
15318,0.00013,0.00013,0.00025,0.00076,0.00081,-9e-05,4e-05,5e-05,4,4
15319,0.00013,0.00013,0.00025,0.00076,0.00081,-9e-05,4e-05,5e-05,4,4
15320,0.00013,0.00013,0.00025,0.00076,0.00081,-9e-05,4e-05,5e-05,4,4
15321,0.00013,0.00013,0.00025,0.00076,0.00081,-9e-05,4e-05,5e-05,4,4
15322,2e-05,-1e-05,0.00015,0.00053,-0.00011,-0.00014,-7e-05,3e-05,4,4
15323,2e-05,-1e-05,0.00015,0.00053,-0.00011,-0.00014,-7e-05,3e-05,4,4
15324,2e-05,-1e-05,0.00015,0.00053,-0.00011,-0.00014,-7e-05,3e-05,4,4
15325,2e-05,-1e-05,0.00015,0.00053,-0.00011,-0.00014,-7e-05,3e-05,4,4
15326,2e-05,-1e-05,0.00015,0.00053,-0.00011,-0.00014,-7e-05,3e-05,4,4
15327,2e-05,-1e-05,0.00015,0.00053,-0.00011,-0.00014,-7e-05,3e-05,4,4
15328,2e-05,-1e-05,0.00015,0.00053,-0.00011,-0.00014,-7e-05,3e-05,4,4
15329,2e-05,-1e-05,0.00015,0.00053,-0.00011,-0.00014,-7e-05,3e-05,4,4
15330,2e-05,-1e-05,0.00015,0.00053,-0.00011,-0.00014,-7e-05,3e-05,4,4
15331,-9e-05,-4e-05,-0.00026,-0.00048,-0.00128,-0.00017,-0.00016,-3e-05,4,4
15332,-9e-05,-4e-05,-0.00026,-0.00048,-0.00128,-0.00017,-0.00016,-3e-05,4,4
15333,-9e-05,-4e-05,-0.00026,-0.00048,-0.00128,-0.00017,-0.00016,-3e-05,4,4
15334,-9e-05,-4e-05,-0.00026,-0.00048,-0.00128,-0.00017,-0.00016,-3e-05,4,4
15335,-9e-05,-4e-05,-0.00026,-0.00048,-0.00128,-0.00017,-0.00016,-3e-05,4,4
15336,-9e-05,-4e-05,-0.00026,-0.00048,-0.00128,-0.00017,-0.00016,-3e-05,4,4
15337,-9e-05,-4e-05,-0.00026,-0.00048,-0.00128,-0.00017,-0.00016,-3e-05,4,4
15338,-9e-05,-4e-05,-0.00026,-0.00048,-0.00128,-0.00017,-0.00016,-3e-05,4,4
15340,-9e-05,-4e-05,-0.00026,-0.00048,-0.00128,-0.00017,-0.00016,-3e-05,4,4
15341,-9e-05,-4e-05,-0.00026,-0.00048,-0.00128,-0.00017,-0.00016,-3e-05,4,4
15342,-9e-05,-4e-05,-0.00026,-0.00048,-0.00128,-0.00017,-0.00016,-3e-05,4,4
15343,-9e-05,-4e-05,-0.00026,-0.00048,-0.00128,-0.00017,-0.00016,-3e-05,4,4
15344,-9e-05,-4e-05,-0.00026,-0.00048,-0.00128,-0.00017,-0.00016,-3e-05,4,4
15345,-9e-05,-4e-05,-0.00026,-0.00048,-0.00128,-0.00017,-0.00016,-3e-05,4,4
15346,1e-05,1e-05,-3e-05,-7e-05,7e-05,0.00022,0,-5e-05,4,4
15347,-4e-05,2e-05,-0.00011,1e-05,-0.00032,-0.0002,-7e-05,-3e-05,4,4
15348,-4e-05,2e-05,-0.00011,1e-05,-0.00032,-0.0002,-7e-05,-3e-05,4,4
15349,-4e-05,2e-05,-0.00011,1e-05,-0.00032,-0.0002,-7e-05,-3e-05,4,4
15350,-4e-05,2e-05,-0.00011,1e-05,-0.00032,-0.0002,-7e-05,-3e-05,4,4
15351,-4e-05,2e-05,-0.00011,1e-05,-0.00032,-0.0002,-7e-05,-3e-05,4,4
15352,-4e-05,2e-05,-0.00011,1e-05,-0.00032,-0.0002,-7e-05,-3e-05,4,4
15353,-4e-05,2e-05,-0.00011,1e-05,-0.00032,-0.0002,-7e-05,-3e-05,4,4
15355,-4e-05,2e-05,-0.00011,1e-05,-0.00032,-0.0002,-7e-05,-3e-05,4,4
15356,-4e-05,2e-05,-0.00011,1e-05,-0.00032,-0.0002,-7e-05,-3e-05,4,4
15357,-4e-05,2e-05,-0.00011,1e-05,-0.00032,-0.0002,-7e-05,-3e-05,4,4
15358,-4e-05,2e-05,-0.00011,1e-05,-0.00032,-0.0002,-7e-05,-3e-05,4,4
15359,-4e-05,2e-05,-0.00011,1e-05,-0.00032,-0.0002,-7e-05,-3e-05,4,4
15360,-4e-05,2e-05,-0.00011,1e-05,-0.00032,-0.0002,-7e-05,-3e-05,4,4
15361,-4e-05,2e-05,-0.00011,1e-05,-0.00032,-0.0002,-7e-05,-3e-05,4,4
15362,-4e-05,2e-05,-0.00011,1e-05,-0.00032,-0.0002,-7e-05,-3e-05,4,4
15363,-4e-05,2e-05,-0.00011,1e-05,-0.00032,-0.0002,-7e-05,-3e-05,4,4
15364,-4e-05,2e-05,-0.00011,1e-05,-0.00032,-0.0002,-7e-05,-3e-05,4,4
15365,-4e-05,2e-05,-0.00011,1e-05,-0.00032,-0.0002,-7e-05,-3e-05,4,4
15366,-4e-05,2e-05,-0.00011,1e-05,-0.00032,-0.0002,-7e-05,-3e-05,4,4
15367,-4e-05,2e-05,-0.00011,1e-05,-0.00032,-0.0002,-7e-05,-3e-05,4,4
15368,-3e-05,-4e-05,1e-05,-0.0001,0.00019,0.00023,1e-05,2e-05,4,4
15369,-3e-05,-4e-05,1e-05,-0.0001,0.00019,0.00023,1e-05,2e-05,4,4
15370,-5e-05,-4e-05,2e-05,-0.00017,-0.00038,-0.00018,-2e-05,-2e-05,4,4
15371,-5e-05,-4e-05,2e-05,-0.00017,-0.00038,-0.00018,-2e-05,-2e-05,4,4
15372,-5e-05,-4e-05,2e-05,-0.00017,-0.00038,-0.00018,-2e-05,-2e-05,4,4
15373,-5e-05,-4e-05,2e-05,-0.00017,-0.00038,-0.00018,-2e-05,-2e-05,4,4
15374,-5e-05,-4e-05,2e-05,-0.00017,-0.00038,-0.00018,-2e-05,-2e-05,4,4
15375,-5e-05,-4e-05,2e-05,-0.00017,-0.00038,-0.00018,-2e-05,-2e-05,4,4
15376,-5e-05,-4e-05,2e-05,-0.00017,-0.00038,-0.00018,-2e-05,-2e-05,4,4
15377,-5e-05,-4e-05,2e-05,-0.00017,-0.00038,-0.00018,-2e-05,-2e-05,4,4
15378,-5e-05,-4e-05,2e-05,-0.00017,-0.00038,-0.00018,-2e-05,-2e-05,4,4
15379,-5e-05,-4e-05,2e-05,-0.00017,-0.00038,-0.00018,-2e-05,-2e-05,4,4
15380,-5e-05,-4e-05,2e-05,-0.00017,-0.00038,-0.00018,-2e-05,-2e-05,4,4
15381,-5e-05,-4e-05,2e-05,-0.00017,-0.00038,-0.00018,-2e-05,-2e-05,4,4
15382,-4e-05,-0.00012,-0.00012,1e-05,0.00032,5e-05,4e-05,-1e-05,4,4
15383,-4e-05,-0.00012,-0.00012,1e-05,0.00032,5e-05,4e-05,-1e-05,4,4
15384,-4e-05,-0.00012,-0.00012,1e-05,0.00032,5e-05,4e-05,-1e-05,4,4
15385,-4e-05,-0.00012,-0.00012,1e-05,0.00032,5e-05,4e-05,-1e-05,4,4
15388,-4e-05,-0.00012,-0.00012,1e-05,0.00032,5e-05,4e-05,-1e-05,4,4
15389,-4e-05,-0.00012,-0.00012,1e-05,0.00032,5e-05,4e-05,-1e-05,4,4
15390,-4e-05,-0.00012,-0.00012,1e-05,0.00032,5e-05,4e-05,-1e-05,4,4
15391,-2e-05,-7e-05,-6e-05,-1e-05,-0.00022,6e-05,1e-05,5e-05,4,4
15392,-2e-05,-7e-05,-6e-05,-1e-05,-0.00022,6e-05,1e-05,5e-05,4,4
15393,-2e-05,-7e-05,-6e-05,-1e-05,-0.00022,6e-05,1e-05,5e-05,4,4
15394,-2e-05,-7e-05,-6e-05,-1e-05,-0.00022,6e-05,1e-05,5e-05,4,4
15395,-2e-05,-7e-05,-6e-05,-1e-05,-0.00022,6e-05,1e-05,5e-05,4,4
15396,-2e-05,-7e-05,-6e-05,-1e-05,-0.00022,6e-05,1e-05,5e-05,4,4
15397,-2e-05,-7e-05,-6e-05,-1e-05,-0.00022,6e-05,1e-05,5e-05,4,4
15398,-2e-05,-7e-05,-6e-05,-1e-05,-0.00022,6e-05,1e-05,5e-05,4,4
15399,-2e-05,-7e-05,-6e-05,-1e-05,-0.00022,6e-05,1e-05,5e-05,4,4
15400,-2e-05,-7e-05,-6e-05,-1e-05,-0.00022,6e-05,1e-05,5e-05,4,4
15401,-2e-05,-7e-05,-6e-05,-1e-05,-0.00022,6e-05,1e-05,5e-05,4,4
15402,-2e-05,-7e-05,-6e-05,-1e-05,-0.00022,6e-05,1e-05,5e-05,4,4
15403,-2e-05,-7e-05,-6e-05,-1e-05,-0.00022,6e-05,1e-05,5e-05,4,4
15404,-2e-05,-7e-05,-6e-05,-1e-05,-0.00022,6e-05,1e-05,5e-05,4,4
15405,-2e-05,-7e-05,-6e-05,-1e-05,-0.00022,6e-05,1e-05,5e-05,4,4
15406,-6e-05,-3e-05,-9e-05,-0.00011,-0.00033,-0.00014,-7e-05,-6e-05,4,4
15407,-2e-05,-1e-05,3e-05,-0.00012,-0.00017,-5e-05,-1e-05,1e-05,4,4
15408,-2e-05,-1e-05,3e-05,-0.00012,-0.00017,-5e-05,-1e-05,1e-05,4,4
15409,-2e-05,-1e-05,3e-05,-0.00012,-0.00017,-5e-05,-1e-05,1e-05,4,4
15410,-2e-05,-1e-05,3e-05,-0.00012,-0.00017,-5e-05,-1e-05,1e-05,4,4
15411,-2e-05,-1e-05,3e-05,-0.00012,-0.00017,-5e-05,-1e-05,1e-05,4,4
15412,-2e-05,-1e-05,3e-05,-0.00012,-0.00017,-5e-05,-1e-05,1e-05,4,4
15413,-2e-05,-1e-05,3e-05,-0.00012,-0.00017,-5e-05,-1e-05,1e-05,4,4
15414,-2e-05,-1e-05,3e-05,-0.00012,-0.00017,-5e-05,-1e-05,1e-05,4,4
15415,-2e-05,-1e-05,3e-05,-0.00012,-0.00017,-5e-05,-1e-05,1e-05,4,4
15416,-2e-05,-1e-05,3e-05,-0.00012,-0.00017,-5e-05,-1e-05,1e-05,4,4
15417,-2e-05,-1e-05,3e-05,-0.00012,-0.00017,-5e-05,-1e-05,1e-05,4,4
15418,-2e-05,-1e-05,3e-05,-0.00012,-0.00017,-5e-05,-1e-05,1e-05,4,4
15419,-2e-05,-1e-05,3e-05,-0.00012,-0.00017,-5e-05,-1e-05,1e-05,4,4
15420,-2e-05,-1e-05,3e-05,-0.00012,-0.00017,-5e-05,-1e-05,1e-05,4,4
15421,-2e-05,-1e-05,3e-05,-0.00012,-0.00017,-5e-05,-1e-05,1e-05,4,4
15422,-2e-05,-1e-05,3e-05,-0.00012,-0.00017,-5e-05,-1e-05,1e-05,4,4
15423,-2e-05,-1e-05,3e-05,-0.00012,-0.00017,-5e-05,-1e-05,1e-05,4,4
15424,-2e-05,-1e-05,3e-05,-0.00012,-0.00017,-5e-05,-1e-05,1e-05,4,4
15425,-2e-05,-1e-05,3e-05,-0.00012,-0.00017,-5e-05,-1e-05,1e-05,4,4
15426,-2e-05,-1e-05,3e-05,-0.00012,-0.00017,-5e-05,-1e-05,1e-05,4,4
15427,-2e-05,-1e-05,3e-05,-0.00012,-0.00017,-5e-05,-1e-05,1e-05,4,4
15428,3e-05,4e-05,-4e-05,-0.00036,-0.00027,-0.00018,-4e-05,-1e-05,4,4
15429,3e-05,4e-05,-4e-05,-0.00036,-0.00027,-0.00018,-4e-05,-1e-05,4,4
15430,4e-05,9e-05,0.00015,9e-05,-0.00019,0.00019,0.0001,0,4,4
15431,4e-05,9e-05,0.00015,9e-05,-0.00019,0.00019,0.0001,0,4,4
15433,4e-05,9e-05,0.00015,9e-05,-0.00019,0.00019,0.0001,0,4,4
15434,4e-05,9e-05,0.00015,9e-05,-0.00019,0.00019,0.0001,0,4,4
15438,4e-05,9e-05,0.00015,9e-05,-0.00019,0.00019,0.0001,0,4,4
15439,4e-05,9e-05,0.00015,9e-05,-0.00019,0.00019,0.0001,0,4,4
15440,4e-05,9e-05,0.00015,9e-05,-0.00019,0.00019,0.0001,0,4,4
15441,4e-05,9e-05,0.00015,9e-05,-0.00019,0.00019,0.0001,0,4,4
15442,-5e-05,-0.00011,-9e-05,3e-05,0.00036,0.00013,5e-05,1e-05,4,4
15443,-5e-05,-0.00011,-9e-05,3e-05,0.00036,0.00013,5e-05,1e-05,4,4
15444,-5e-05,-0.00011,-9e-05,3e-05,0.00036,0.00013,5e-05,1e-05,4,4
15445,-5e-05,-0.00011,-9e-05,3e-05,0.00036,0.00013,5e-05,1e-05,4,4
15446,-5e-05,-0.00011,-9e-05,3e-05,0.00036,0.00013,5e-05,1e-05,4,4
15447,-5e-05,-0.00011,-9e-05,3e-05,0.00036,0.00013,5e-05,1e-05,4,4
15448,-5e-05,-0.00011,-9e-05,3e-05,0.00036,0.00013,5e-05,1e-05,4,4
15449,-5e-05,-0.00011,-9e-05,3e-05,0.00036,0.00013,5e-05,1e-05,4,4
15450,-5e-05,-0.00011,-9e-05,3e-05,0.00036,0.00013,5e-05,1e-05,4,4
15451,2e-05,6e-05,3e-05,-0.00026,-0.0003,-7e-05,4e-05,4e-05,4,4
15452,2e-05,6e-05,3e-05,-0.00026,-0.0003,-7e-05,4e-05,4e-05,4,4
15453,2e-05,6e-05,3e-05,-0.00026,-0.0003,-7e-05,4e-05,4e-05,4,4
15454,2e-05,6e-05,3e-05,-0.00026,-0.0003,-7e-05,4e-05,4e-05,4,4
15455,2e-05,6e-05,3e-05,-0.00026,-0.0003,-7e-05,4e-05,4e-05,4,4
15456,2e-05,6e-05,3e-05,-0.00026,-0.0003,-7e-05,4e-05,4e-05,4,4
15457,2e-05,6e-05,3e-05,-0.00026,-0.0003,-7e-05,4e-05,4e-05,4,4
15458,2e-05,6e-05,3e-05,-0.00026,-0.0003,-7e-05,4e-05,4e-05,4,4
15459,2e-05,6e-05,3e-05,-0.00026,-0.0003,-7e-05,4e-05,4e-05,4,4
15460,2e-05,6e-05,3e-05,-0.00026,-0.0003,-7e-05,4e-05,4e-05,4,4
15461,2e-05,6e-05,3e-05,-0.00026,-0.0003,-7e-05,4e-05,4e-05,4,4
15462,2e-05,6e-05,3e-05,-0.00026,-0.0003,-7e-05,4e-05,4e-05,4,4
15463,2e-05,6e-05,3e-05,-0.00026,-0.0003,-7e-05,4e-05,4e-05,4,4
15464,2e-05,6e-05,3e-05,-0.00026,-0.0003,-7e-05,4e-05,4e-05,4,4
15465,2e-05,6e-05,3e-05,-0.00026,-0.0003,-7e-05,4e-05,4e-05,4,4
15466,-1e-05,0,-1e-05,-8e-05,-0.00027,0.00017,0,2e-05,4,4
15467,-0.0001,-0.00017,-0.00013,-7e-05,-4e-05,-0.00018,-9e-05,-7e-05,4,4
15468,-0.0001,-0.00017,-0.00013,-7e-05,-4e-05,-0.00018,-9e-05,-7e-05,4,4
15469,-0.0001,-0.00017,-0.00013,-7e-05,-4e-05,-0.00018,-9e-05,-7e-05,4,4
15470,-0.0001,-0.00017,-0.00013,-7e-05,-4e-05,-0.00018,-9e-05,-7e-05,4,4
15471,-0.0001,-0.00017,-0.00013,-7e-05,-4e-05,-0.00018,-9e-05,-7e-05,4,4
15472,-0.0001,-0.00017,-0.00013,-7e-05,-4e-05,-0.00018,-9e-05,-7e-05,4,4
15473,-0.0001,-0.00017,-0.00013,-7e-05,-4e-05,-0.00018,-9e-05,-7e-05,4,4
15474,-0.0001,-0.00017,-0.00013,-7e-05,-4e-05,-0.00018,-9e-05,-7e-05,4,4
15475,-0.0001,-0.00017,-0.00013,-7e-05,-4e-05,-0.00018,-9e-05,-7e-05,4,4
15476,-0.0001,-0.00017,-0.00013,-7e-05,-4e-05,-0.00018,-9e-05,-7e-05,4,4
15477,-0.0001,-0.00017,-0.00013,-7e-05,-4e-05,-0.00018,-9e-05,-7e-05,4,4
15478,-0.0001,-0.00017,-0.00013,-7e-05,-4e-05,-0.00018,-9e-05,-7e-05,4,4
15480,-0.0001,-0.00017,-0.00013,-7e-05,-4e-05,-0.00018,-9e-05,-7e-05,4,4
15481,-0.0001,-0.00017,-0.00013,-7e-05,-4e-05,-0.00018,-9e-05,-7e-05,4,4
15482,-0.0001,-0.00017,-0.00013,-7e-05,-4e-05,-0.00018,-9e-05,-7e-05,4,4
15483,-0.0001,-0.00017,-0.00013,-7e-05,-4e-05,-0.00018,-9e-05,-7e-05,4,4
15484,-0.0001,-0.00017,-0.00013,-7e-05,-4e-05,-0.00018,-9e-05,-7e-05,4,4
15485,-0.0001,-0.00017,-0.00013,-7e-05,-4e-05,-0.00018,-9e-05,-7e-05,4,4
15486,-0.0001,-0.00017,-0.00013,-7e-05,-4e-05,-0.00018,-9e-05,-7e-05,4,4
15488,-2e-05,0,2e-05,-0.00019,-0.0003,-0.0003,-8e-05,0,4,4
15489,-2e-05,0,2e-05,-0.00019,-0.0003,-0.0003,-8e-05,0,4,4
15490,0,0,-8e-05,0.00016,-8e-05,-0.00013,-5e-05,-5e-05,4,4
15491,0,0,-8e-05,0.00016,-8e-05,-0.00013,-5e-05,-5e-05,4,4
15492,0,0,-8e-05,0.00016,-8e-05,-0.00013,-5e-05,-5e-05,4,4
15493,0,0,-8e-05,0.00016,-8e-05,-0.00013,-5e-05,-5e-05,4,4
15494,0,0,-8e-05,0.00016,-8e-05,-0.00013,-5e-05,-5e-05,4,4
15495,0,0,-8e-05,0.00016,-8e-05,-0.00013,-5e-05,-5e-05,4,4
15496,0,0,-8e-05,0.00016,-8e-05,-0.00013,-5e-05,-5e-05,4,4
15497,0,0,-8e-05,0.00016,-8e-05,-0.00013,-5e-05,-5e-05,4,4
15498,0,0,-8e-05,0.00016,-8e-05,-0.00013,-5e-05,-5e-05,4,4
15499,0,0,-8e-05,0.00016,-8e-05,-0.00013,-5e-05,-5e-05,4,4
15500,0,0,-8e-05,0.00016,-8e-05,-0.00013,-5e-05,-5e-05,4,4
15501,0,0,-8e-05,0.00016,-8e-05,-0.00013,-5e-05,-5e-05,4,4
15502,1e-05,-1e-05,-7e-05,0.00021,0.00046,0.00023,4e-05,0,4,4
15503,1e-05,-1e-05,-7e-05,0.00021,0.00046,0.00023,4e-05,0,4,4
15504,1e-05,-1e-05,-7e-05,0.00021,0.00046,0.00023,4e-05,0,4,4
15505,1e-05,-1e-05,-7e-05,0.00021,0.00046,0.00023,4e-05,0,4,4
15506,1e-05,-1e-05,-7e-05,0.00021,0.00046,0.00023,4e-05,0,4,4
15507,1e-05,-1e-05,-7e-05,0.00021,0.00046,0.00023,4e-05,0,4,4
15508,1e-05,-1e-05,-7e-05,0.00021,0.00046,0.00023,4e-05,0,4,4
15509,1e-05,-1e-05,-7e-05,0.00021,0.00046,0.00023,4e-05,0,4,4
15510,1e-05,-1e-05,-7e-05,0.00021,0.00046,0.00023,4e-05,0,4,4
15511,-5e-05,-0.00019,-0.0004,-0.00062,-6e-05,0.00018,1e-05,0,4,4
15512,-5e-05,-0.00019,-0.0004,-0.00062,-6e-05,0.00018,1e-05,0,4,4
15513,-5e-05,-0.00019,-0.0004,-0.00062,-6e-05,0.00018,1e-05,0,4,4
15514,-5e-05,-0.00019,-0.0004,-0.00062,-6e-05,0.00018,1e-05,0,4,4
15515,-5e-05,-0.00019,-0.0004,-0.00062,-6e-05,0.00018,1e-05,0,4,4
15516,-5e-05,-0.00019,-0.0004,-0.00062,-6e-05,0.00018,1e-05,0,4,4
15517,-5e-05,-0.00019,-0.0004,-0.00062,-6e-05,0.00018,1e-05,0,4,4
15518,-5e-05,-0.00019,-0.0004,-0.00062,-6e-05,0.00018,1e-05,0,4,4
15519,-5e-05,-0.00019,-0.0004,-0.00062,-6e-05,0.00018,1e-05,0,4,4
15520,-5e-05,-0.00019,-0.0004,-0.00062,-6e-05,0.00018,1e-05,0,4,4
15521,-5e-05,-0.00019,-0.0004,-0.00062,-6e-05,0.00018,1e-05,0,4,4
15522,-5e-05,-0.00019,-0.0004,-0.00062,-6e-05,0.00018,1e-05,0,4,4
15523,-5e-05,-0.00019,-0.0004,-0.00062,-6e-05,0.00018,1e-05,0,4,4
15524,-5e-05,-0.00019,-0.0004,-0.00062,-6e-05,0.00018,1e-05,0,4,4
15525,-5e-05,-0.00019,-0.0004,-0.00062,-6e-05,0.00018,1e-05,0,4,4
15527,-8e-05,-0.00021,-0.00013,-0.0003,-0.00049,-6e-05,-4e-05,-4e-05,4,4
15528,-8e-05,-0.00021,-0.00013,-0.0003,-0.00049,-6e-05,-4e-05,-4e-05,4,4
15529,-8e-05,-0.00021,-0.00013,-0.0003,-0.00049,-6e-05,-4e-05,-4e-05,4,4
15530,-8e-05,-0.00021,-0.00013,-0.0003,-0.00049,-6e-05,-4e-05,-4e-05,4,4
15531,-8e-05,-0.00021,-0.00013,-0.0003,-0.00049,-6e-05,-4e-05,-4e-05,4,4
15532,-8e-05,-0.00021,-0.00013,-0.0003,-0.00049,-6e-05,-4e-05,-4e-05,4,4
15533,-8e-05,-0.00021,-0.00013,-0.0003,-0.00049,-6e-05,-4e-05,-4e-05,4,4
15534,-8e-05,-0.00021,-0.00013,-0.0003,-0.00049,-6e-05,-4e-05,-4e-05,4,4
15535,-8e-05,-0.00021,-0.00013,-0.0003,-0.00049,-6e-05,-4e-05,-4e-05,4,4
15536,-8e-05,-0.00021,-0.00013,-0.0003,-0.00049,-6e-05,-4e-05,-4e-05,4,4
15538,-8e-05,-0.00021,-0.00013,-0.0003,-0.00049,-6e-05,-4e-05,-4e-05,4,4
15539,-8e-05,-0.00021,-0.00013,-0.0003,-0.00049,-6e-05,-4e-05,-4e-05,4,4
15540,-8e-05,-0.00021,-0.00013,-0.0003,-0.00049,-6e-05,-4e-05,-4e-05,4,4
15541,-8e-05,-0.00021,-0.00013,-0.0003,-0.00049,-6e-05,-4e-05,-4e-05,4,4
15542,-8e-05,-0.00021,-0.00013,-0.0003,-0.00049,-6e-05,-4e-05,-4e-05,4,4
15543,-8e-05,-0.00021,-0.00013,-0.0003,-0.00049,-6e-05,-4e-05,-4e-05,4,4
15544,-8e-05,-0.00021,-0.00013,-0.0003,-0.00049,-6e-05,-4e-05,-4e-05,4,4
15545,-8e-05,-0.00021,-0.00013,-0.0003,-0.00049,-6e-05,-4e-05,-4e-05,4,4
15546,-8e-05,-0.00021,-0.00013,-0.0003,-0.00049,-6e-05,-4e-05,-4e-05,4,4
15547,-8e-05,-0.00021,-0.00013,-0.0003,-0.00049,-6e-05,-4e-05,-4e-05,4,4
15548,0,7e-05,5e-05,-0.00013,-0.00042,-0.00016,-7e-05,-1e-05,4,4
15549,0,7e-05,5e-05,-0.00013,-0.00042,-0.00016,-7e-05,-1e-05,4,4
15550,-1e-05,6e-05,9e-05,-7e-05,-0.00026,-0.0002,-0.0001,-3e-05,4,4
15551,-1e-05,6e-05,9e-05,-7e-05,-0.00026,-0.0002,-0.0001,-3e-05,4,4
15552,-1e-05,6e-05,9e-05,-7e-05,-0.00026,-0.0002,-0.0001,-3e-05,4,4
15553,-1e-05,6e-05,9e-05,-7e-05,-0.00026,-0.0002,-0.0001,-3e-05,4,4
15554,-1e-05,6e-05,9e-05,-7e-05,-0.00026,-0.0002,-0.0001,-3e-05,4,4
15555,-1e-05,6e-05,9e-05,-7e-05,-0.00026,-0.0002,-0.0001,-3e-05,4,4
15556,-1e-05,6e-05,9e-05,-7e-05,-0.00026,-0.0002,-0.0001,-3e-05,4,4
15557,-1e-05,6e-05,9e-05,-7e-05,-0.00026,-0.0002,-0.0001,-3e-05,4,4
15558,-1e-05,6e-05,9e-05,-7e-05,-0.00026,-0.0002,-0.0001,-3e-05,4,4
15559,-1e-05,6e-05,9e-05,-7e-05,-0.00026,-0.0002,-0.0001,-3e-05,4,4
15560,-1e-05,6e-05,9e-05,-7e-05,-0.00026,-0.0002,-0.0001,-3e-05,4,4
15561,-1e-05,6e-05,9e-05,-7e-05,-0.00026,-0.0002,-0.0001,-3e-05,4,4
15562,-1e-05,6e-05,9e-05,-7e-05,-0.00026,-0.0002,-0.0001,-3e-05,4,4
15563,-1e-05,6e-05,9e-05,-7e-05,-0.00026,-0.0002,-0.0001,-3e-05,4,4
15564,-1e-05,6e-05,9e-05,-7e-05,-0.00026,-0.0002,-0.0001,-3e-05,4,4
15565,-1e-05,6e-05,9e-05,-7e-05,-0.00026,-0.0002,-0.0001,-3e-05,4,4
15566,-1e-05,6e-05,9e-05,-7e-05,-0.00026,-0.0002,-0.0001,-3e-05,4,4
15567,-1e-05,6e-05,9e-05,-7e-05,-0.00026,-0.0002,-0.0001,-3e-05,4,4
15568,-1e-05,6e-05,9e-05,-7e-05,-0.00026,-0.0002,-0.0001,-3e-05,4,4
15569,-1e-05,6e-05,9e-05,-7e-05,-0.00026,-0.0002,-0.0001,-3e-05,4,4
15570,-1e-05,6e-05,9e-05,-7e-05,-0.00026,-0.0002,-0.0001,-3e-05,4,4
15571,1e-05,3e-05,0.00019,0.0001,-8e-05,-9e-05,0.00018,5e-05,4,4
15572,-1e-05,-9e-05,-0.0001,0.00016,0.00065,0.00034,2e-05,-8e-05,4,4
15574,-1e-05,-9e-05,-0.0001,0.00016,0.00065,0.00034,2e-05,-8e-05,4,4
15575,-1e-05,-9e-05,-0.0001,0.00016,0.00065,0.00034,2e-05,-8e-05,4,4
15576,-1e-05,-9e-05,-0.0001,0.00016,0.00065,0.00034,2e-05,-8e-05,4,4
15577,-1e-05,-9e-05,-0.0001,0.00016,0.00065,0.00034,2e-05,-8e-05,4,4
15578,-1e-05,-9e-05,-0.0001,0.00016,0.00065,0.00034,2e-05,-8e-05,4,4
15579,-1e-05,-9e-05,-0.0001,0.00016,0.00065,0.00034,2e-05,-8e-05,4,4
15580,-1e-05,-9e-05,-0.0001,0.00016,0.00065,0.00034,2e-05,-8e-05,4,4
15581,-1e-05,-9e-05,-0.0001,0.00016,0.00065,0.00034,2e-05,-8e-05,4,4
15582,-1e-05,-9e-05,-0.0001,0.00016,0.00065,0.00034,2e-05,-8e-05,4,4
15583,-1e-05,-9e-05,-0.0001,0.00016,0.00065,0.00034,2e-05,-8e-05,4,4
15584,-1e-05,-9e-05,-0.0001,0.00016,0.00065,0.00034,2e-05,-8e-05,4,4
15585,-1e-05,-9e-05,-0.0001,0.00016,0.00065,0.00034,2e-05,-8e-05,4,4
15586,-7e-05,-0.00011,-5e-05,-4e-05,0.00038,0.0001,-5e-05,-5e-05,4,4
15588,3e-05,2e-05,4e-05,0.00021,0.00031,0.00015,2e-05,-1e-05,4,4
15589,3e-05,2e-05,4e-05,0.00021,0.00031,0.00015,2e-05,-1e-05,4,4
15590,3e-05,2e-05,4e-05,0.00021,0.00031,0.00015,2e-05,-1e-05,4,4
15591,3e-05,2e-05,4e-05,0.00021,0.00031,0.00015,2e-05,-1e-05,4,4
15592,3e-05,2e-05,4e-05,0.00021,0.00031,0.00015,2e-05,-1e-05,4,4
15593,3e-05,2e-05,4e-05,0.00021,0.00031,0.00015,2e-05,-1e-05,4,4
15594,3e-05,2e-05,4e-05,0.00021,0.00031,0.00015,2e-05,-1e-05,4,4
15595,3e-05,2e-05,4e-05,0.00021,0.00031,0.00015,2e-05,-1e-05,4,4
15596,3e-05,2e-05,4e-05,0.00021,0.00031,0.00015,2e-05,-1e-05,4,4
15597,3e-05,2e-05,4e-05,0.00021,0.00031,0.00015,2e-05,-1e-05,4,4
15598,3e-05,2e-05,4e-05,0.00021,0.00031,0.00015,2e-05,-1e-05,4,4
15599,3e-05,2e-05,4e-05,0.00021,0.00031,0.00015,2e-05,-1e-05,4,4
15600,3e-05,2e-05,4e-05,0.00021,0.00031,0.00015,2e-05,-1e-05,4,4
15601,3e-05,2e-05,4e-05,0.00021,0.00031,0.00015,2e-05,-1e-05,4,4
15602,3e-05,2e-05,4e-05,0.00021,0.00031,0.00015,2e-05,-1e-05,4,4
15603,3e-05,2e-05,4e-05,0.00021,0.00031,0.00015,2e-05,-1e-05,4,4
15604,3e-05,2e-05,4e-05,0.00021,0.00031,0.00015,2e-05,-1e-05,4,4
15605,3e-05,2e-05,4e-05,0.00021,0.00031,0.00015,2e-05,-1e-05,4,4
15606,3e-05,2e-05,4e-05,0.00021,0.00031,0.00015,2e-05,-1e-05,4,4
15607,3e-05,2e-05,4e-05,0.00021,0.00031,0.00015,2e-05,-1e-05,4,4
15608,-1e-05,-2e-05,-2e-05,0.00015,-0.00012,4e-05,2e-05,-2e-05,4,4
15609,-1e-05,-2e-05,-2e-05,0.00015,-0.00012,4e-05,2e-05,-2e-05,4,4
15610,1e-05,1e-05,2e-05,0.0003,-6e-05,2e-05,1e-05,-1e-05,4,4
15611,1e-05,1e-05,2e-05,0.0003,-6e-05,2e-05,1e-05,-1e-05,4,4
15612,1e-05,1e-05,2e-05,0.0003,-6e-05,2e-05,1e-05,-1e-05,4,4
15613,1e-05,1e-05,2e-05,0.0003,-6e-05,2e-05,1e-05,-1e-05,4,4
15614,1e-05,1e-05,2e-05,0.0003,-6e-05,2e-05,1e-05,-1e-05,4,4
15615,1e-05,1e-05,2e-05,0.0003,-6e-05,2e-05,1e-05,-1e-05,4,4
15616,1e-05,1e-05,2e-05,0.0003,-6e-05,2e-05,1e-05,-1e-05,4,4
15617,1e-05,1e-05,2e-05,0.0003,-6e-05,2e-05,1e-05,-1e-05,4,4
15618,1e-05,1e-05,2e-05,0.0003,-6e-05,2e-05,1e-05,-1e-05,4,4
15619,1e-05,1e-05,2e-05,0.0003,-6e-05,2e-05,1e-05,-1e-05,4,4
15621,1e-05,1e-05,2e-05,0.0003,-6e-05,2e-05,1e-05,-1e-05,4,4
15622,1e-05,1e-05,2e-05,0.0003,-6e-05,2e-05,1e-05,-1e-05,4,4
15623,1e-05,1e-05,2e-05,0.0003,-6e-05,2e-05,1e-05,-1e-05,4,4
15624,1e-05,1e-05,2e-05,0.0003,-6e-05,2e-05,1e-05,-1e-05,4,4
15625,1e-05,1e-05,2e-05,0.0003,-6e-05,2e-05,1e-05,-1e-05,4,4
15626,1e-05,1e-05,2e-05,0.0003,-6e-05,2e-05,1e-05,-1e-05,4,4
15627,1e-05,1e-05,2e-05,0.0003,-6e-05,2e-05,1e-05,-1e-05,4,4
15628,1e-05,1e-05,2e-05,0.0003,-6e-05,2e-05,1e-05,-1e-05,4,4
15629,1e-05,1e-05,2e-05,0.0003,-6e-05,2e-05,1e-05,-1e-05,4,4
15630,1e-05,1e-05,2e-05,0.0003,-6e-05,2e-05,1e-05,-1e-05,4,4
15631,6e-05,0.00012,0.00028,0.00041,-0.00011,9e-05,-3e-05,2e-05,4,4
15632,5e-05,-1e-05,-1e-05,-0.0003,-0.00032,3e-05,8e-05,2e-05,4,4
15633,5e-05,-1e-05,-1e-05,-0.0003,-0.00032,3e-05,8e-05,2e-05,4,4
15634,5e-05,-1e-05,-1e-05,-0.0003,-0.00032,3e-05,8e-05,2e-05,4,4
15635,5e-05,-1e-05,-1e-05,-0.0003,-0.00032,3e-05,8e-05,2e-05,4,4
15636,5e-05,-1e-05,-1e-05,-0.0003,-0.00032,3e-05,8e-05,2e-05,4,4
15638,5e-05,-1e-05,-1e-05,-0.0003,-0.00032,3e-05,8e-05,2e-05,4,4
15639,5e-05,-1e-05,-1e-05,-0.0003,-0.00032,3e-05,8e-05,2e-05,4,4
15640,5e-05,-1e-05,-1e-05,-0.0003,-0.00032,3e-05,8e-05,2e-05,4,4
15641,5e-05,-1e-05,-1e-05,-0.0003,-0.00032,3e-05,8e-05,2e-05,4,4
15642,5e-05,-1e-05,-1e-05,-0.0003,-0.00032,3e-05,8e-05,2e-05,4,4
15643,5e-05,-1e-05,-1e-05,-0.0003,-0.00032,3e-05,8e-05,2e-05,4,4
15644,-3e-05,-3e-05,1e-05,0.00027,0.00077,0.00019,5e-05,1e-05,4,4
15645,-3e-05,-3e-05,1e-05,0.00027,0.00077,0.00019,5e-05,1e-05,4,4
15646,-3e-05,-3e-05,1e-05,0.00027,0.00077,0.00019,5e-05,1e-05,4,4
15647,-3e-05,-3e-05,1e-05,0.00027,0.00077,0.00019,5e-05,1e-05,4,4
15648,-3e-05,-3e-05,1e-05,0.00027,0.00077,0.00019,5e-05,1e-05,4,4
15649,-3e-05,-3e-05,1e-05,0.00027,0.00077,0.00019,5e-05,1e-05,4,4
15650,-3e-05,-3e-05,1e-05,0.00027,0.00077,0.00019,5e-05,1e-05,4,4
15651,-3e-05,-3e-05,1e-05,0.00027,0.00077,0.00019,5e-05,1e-05,4,4
15652,-3e-05,-3e-05,1e-05,0.00027,0.00077,0.00019,5e-05,1e-05,4,4
15653,-3e-05,-3e-05,1e-05,0.00027,0.00077,0.00019,5e-05,1e-05,4,4
15654,3e-05,0.00011,0.00014,0.00033,-6e-05,0.00016,-2e-05,-2e-05,4,4
15655,3e-05,0.00011,0.00014,0.00033,-6e-05,0.00016,-2e-05,-2e-05,4,4
15657,3e-05,0.00011,0.00014,0.00033,-6e-05,0.00016,-2e-05,-2e-05,4,4
15658,3e-05,0.00011,0.00014,0.00033,-6e-05,0.00016,-2e-05,-2e-05,4,4
15659,3e-05,0.00011,0.00014,0.00033,-6e-05,0.00016,-2e-05,-2e-05,4,4
15660,3e-05,0.00011,0.00014,0.00033,-6e-05,0.00016,-2e-05,-2e-05,4,4
15662,3e-05,0.00011,0.00014,0.00033,-6e-05,0.00016,-2e-05,-2e-05,4,4
15663,3e-05,0.00011,0.00014,0.00033,-6e-05,0.00016,-2e-05,-2e-05,4,4
15664,3e-05,0.00011,0.00014,0.00033,-6e-05,0.00016,-2e-05,-2e-05,4,4
15665,3e-05,0.00011,0.00014,0.00033,-6e-05,0.00016,-2e-05,-2e-05,4,4
15666,3e-05,0.00011,0.00014,0.00033,-6e-05,0.00016,-2e-05,-2e-05,4,4
15667,3e-05,0.00011,0.00014,0.00033,-6e-05,0.00016,-2e-05,-2e-05,4,4
15668,-3e-05,0,4e-05,7e-05,0.00017,-0.00011,-8e-05,-0.00011,4,4
15669,-3e-05,0,4e-05,7e-05,0.00017,-0.00011,-8e-05,-0.00011,4,4
15670,7e-05,6e-05,8e-05,0.00057,0.00057,3e-05,9e-05,1e-05,4,4
15671,7e-05,6e-05,8e-05,0.00057,0.00057,3e-05,9e-05,1e-05,4,4
15672,7e-05,6e-05,8e-05,0.00057,0.00057,3e-05,9e-05,1e-05,4,4
15673,7e-05,6e-05,8e-05,0.00057,0.00057,3e-05,9e-05,1e-05,4,4
15674,7e-05,6e-05,8e-05,0.00057,0.00057,3e-05,9e-05,1e-05,4,4
15675,7e-05,6e-05,8e-05,0.00057,0.00057,3e-05,9e-05,1e-05,4,4
15676,7e-05,6e-05,8e-05,0.00057,0.00057,3e-05,9e-05,1e-05,4,4
15677,7e-05,6e-05,8e-05,0.00057,0.00057,3e-05,9e-05,1e-05,4,4
15678,7e-05,6e-05,8e-05,0.00057,0.00057,3e-05,9e-05,1e-05,4,4
15679,7e-05,6e-05,8e-05,0.00057,0.00057,3e-05,9e-05,1e-05,4,4
15680,7e-05,6e-05,8e-05,0.00057,0.00057,3e-05,9e-05,1e-05,4,4
15681,7e-05,6e-05,8e-05,0.00057,0.00057,3e-05,9e-05,1e-05,4,4
15682,7e-05,6e-05,8e-05,0.00057,0.00057,3e-05,9e-05,1e-05,4,4
15683,7e-05,6e-05,8e-05,0.00057,0.00057,3e-05,9e-05,1e-05,4,4
15684,7e-05,6e-05,8e-05,0.00057,0.00057,3e-05,9e-05,1e-05,4,4
15685,7e-05,6e-05,8e-05,0.00057,0.00057,3e-05,9e-05,1e-05,4,4
15686,7e-05,6e-05,8e-05,0.00057,0.00057,3e-05,9e-05,1e-05,4,4
15687,7e-05,6e-05,8e-05,0.00057,0.00057,3e-05,9e-05,1e-05,4,4
15688,7e-05,6e-05,8e-05,0.00057,0.00057,3e-05,9e-05,1e-05,4,4
15689,7e-05,6e-05,8e-05,0.00057,0.00057,3e-05,9e-05,1e-05,4,4
15690,7e-05,6e-05,8e-05,0.00057,0.00057,3e-05,9e-05,1e-05,4,4
15691,4e-05,5e-05,-8e-05,-0.00017,0.0002,0.00012,-2e-05,1e-05,4,4
15692,3e-05,-2e-05,4e-05,4e-05,-0.00019,-5e-05,5e-05,-2e-05,4,4
15693,3e-05,-2e-05,4e-05,4e-05,-0.00019,-5e-05,5e-05,-2e-05,4,4
15694,3e-05,-2e-05,4e-05,4e-05,-0.00019,-5e-05,5e-05,-2e-05,4,4
15695,3e-05,-2e-05,4e-05,4e-05,-0.00019,-5e-05,5e-05,-2e-05,4,4
15696,3e-05,-2e-05,4e-05,4e-05,-0.00019,-5e-05,5e-05,-2e-05,4,4
15698,3e-05,-2e-05,4e-05,4e-05,-0.00019,-5e-05,5e-05,-2e-05,4,4
15699,3e-05,-2e-05,4e-05,4e-05,-0.00019,-5e-05,5e-05,-2e-05,4,4
15700,3e-05,-2e-05,4e-05,4e-05,-0.00019,-5e-05,5e-05,-2e-05,4,4
15701,3e-05,-2e-05,4e-05,4e-05,-0.00019,-5e-05,5e-05,-2e-05,4,4
15702,3e-05,-2e-05,4e-05,4e-05,-0.00019,-5e-05,5e-05,-2e-05,4,4
15703,3e-05,-2e-05,4e-05,4e-05,-0.00019,-5e-05,5e-05,-2e-05,4,4
15704,3e-05,-2e-05,4e-05,4e-05,-0.00019,-5e-05,5e-05,-2e-05,4,4
15705,-7e-05,-8e-05,-0.0002,-0.00023,-0.00023,-1e-05,-5e-05,-6e-05,4,4
15706,-7e-05,-8e-05,-0.0002,-0.00023,-0.00023,-1e-05,-5e-05,-6e-05,4,4
15707,-7e-05,-8e-05,-0.0002,-0.00023,-0.00023,-1e-05,-5e-05,-6e-05,4,4
15708,-7e-05,-8e-05,-0.0002,-0.00023,-0.00023,-1e-05,-5e-05,-6e-05,4,4
15709,-7e-05,-8e-05,-0.0002,-0.00023,-0.00023,-1e-05,-5e-05,-6e-05,4,4
15710,-7e-05,-8e-05,-0.0002,-0.00023,-0.00023,-1e-05,-5e-05,-6e-05,4,4
15711,-7e-05,-8e-05,-0.0002,-0.00023,-0.00023,-1e-05,-5e-05,-6e-05,4,4
15712,-0.00011,-8e-05,-9e-05,-0.00034,-0.00039,3e-05,-3e-05,0,4,4
15713,-0.00011,-8e-05,-9e-05,-0.00034,-0.00039,3e-05,-3e-05,0,4,4
15714,-0.00011,-8e-05,-9e-05,-0.00034,-0.00039,3e-05,-3e-05,0,4,4
15715,-0.00011,-8e-05,-9e-05,-0.00034,-0.00039,3e-05,-3e-05,0,4,4
15716,-0.00011,-8e-05,-9e-05,-0.00034,-0.00039,3e-05,-3e-05,0,4,4
15717,-0.00011,-8e-05,-9e-05,-0.00034,-0.00039,3e-05,-3e-05,0,4,4
15718,-0.00011,-8e-05,-9e-05,-0.00034,-0.00039,3e-05,-3e-05,0,4,4
15719,-0.00011,-8e-05,-9e-05,-0.00034,-0.00039,3e-05,-3e-05,0,4,4
15720,-0.00011,-8e-05,-9e-05,-0.00034,-0.00039,3e-05,-3e-05,0,4,4
15721,-0.00011,-8e-05,-9e-05,-0.00034,-0.00039,3e-05,-3e-05,0,4,4
15722,-0.00011,-8e-05,-9e-05,-0.00034,-0.00039,3e-05,-3e-05,0,4,4
15723,-0.00011,-8e-05,-9e-05,-0.00034,-0.00039,3e-05,-3e-05,0,4,4
15724,-0.00011,-8e-05,-9e-05,-0.00034,-0.00039,3e-05,-3e-05,0,4,4
15725,-0.00011,-8e-05,-9e-05,-0.00034,-0.00039,3e-05,-3e-05,0,4,4
15726,-0.00011,-8e-05,-9e-05,-0.00034,-0.00039,3e-05,-3e-05,0,4,4
15727,-0.00011,-8e-05,-9e-05,-0.00034,-0.00039,3e-05,-3e-05,0,4,4
15728,-5e-05,-8e-05,-0.00019,-0.00045,-0.00042,-0.00012,0,0,4,4
15729,-5e-05,-8e-05,-0.00019,-0.00045,-0.00042,-0.00012,0,0,4,4
15730,4e-05,9e-05,3e-05,2e-05,7e-05,0.00012,0,3e-05,4,4
15731,4e-05,9e-05,3e-05,2e-05,7e-05,0.00012,0,3e-05,4,4
15732,4e-05,9e-05,3e-05,2e-05,7e-05,0.00012,0,3e-05,4,4
15733,4e-05,9e-05,3e-05,2e-05,7e-05,0.00012,0,3e-05,4,4
15734,4e-05,9e-05,3e-05,2e-05,7e-05,0.00012,0,3e-05,4,4
15735,4e-05,9e-05,3e-05,2e-05,7e-05,0.00012,0,3e-05,4,4
15736,4e-05,9e-05,3e-05,2e-05,7e-05,0.00012,0,3e-05,4,4
15737,4e-05,9e-05,3e-05,2e-05,7e-05,0.00012,0,3e-05,4,4
15738,4e-05,9e-05,3e-05,2e-05,7e-05,0.00012,0,3e-05,4,4
15739,4e-05,9e-05,3e-05,2e-05,7e-05,0.00012,0,3e-05,4,4
15740,4e-05,9e-05,3e-05,2e-05,7e-05,0.00012,0,3e-05,4,4
15741,4e-05,9e-05,3e-05,2e-05,7e-05,0.00012,0,3e-05,4,4
15742,4e-05,9e-05,3e-05,2e-05,7e-05,0.00012,0,3e-05,4,4
15743,4e-05,9e-05,3e-05,2e-05,7e-05,0.00012,0,3e-05,4,4
15745,4e-05,9e-05,3e-05,2e-05,7e-05,0.00012,0,3e-05,4,4
15746,4e-05,9e-05,3e-05,2e-05,7e-05,0.00012,0,3e-05,4,4
15747,4e-05,9e-05,3e-05,2e-05,7e-05,0.00012,0,3e-05,4,4
15748,4e-05,9e-05,3e-05,2e-05,7e-05,0.00012,0,3e-05,4,4
15749,4e-05,9e-05,3e-05,2e-05,7e-05,0.00012,0,3e-05,4,4
15750,4e-05,9e-05,3e-05,2e-05,7e-05,0.00012,0,3e-05,4,4
15751,-4e-05,0,-0.00011,-0.00027,-0.00071,-9e-05,-5e-05,1e-05,4,4
15752,-4e-05,1e-05,-6e-05,-0.00017,-0.00026,-6e-05,-2e-05,2e-05,4,4
15753,-4e-05,1e-05,-6e-05,-0.00017,-0.00026,-6e-05,-2e-05,2e-05,4,4
15754,-4e-05,1e-05,-6e-05,-0.00017,-0.00026,-6e-05,-2e-05,2e-05,4,4
15755,-4e-05,1e-05,-6e-05,-0.00017,-0.00026,-6e-05,-2e-05,2e-05,4,4
15756,-4e-05,1e-05,-6e-05,-0.00017,-0.00026,-6e-05,-2e-05,2e-05,4,4
15757,-4e-05,1e-05,-6e-05,-0.00017,-0.00026,-6e-05,-2e-05,2e-05,4,4
15758,-4e-05,1e-05,-6e-05,-0.00017,-0.00026,-6e-05,-2e-05,2e-05,4,4
15759,-4e-05,1e-05,-6e-05,-0.00017,-0.00026,-6e-05,-2e-05,2e-05,4,4
15760,-4e-05,1e-05,-6e-05,-0.00017,-0.00026,-6e-05,-2e-05,2e-05,4,4
15761,-4e-05,1e-05,-6e-05,-0.00017,-0.00026,-6e-05,-2e-05,2e-05,4,4
15762,-4e-05,1e-05,-6e-05,-0.00017,-0.00026,-6e-05,-2e-05,2e-05,4,4
15763,-4e-05,1e-05,-6e-05,-0.00017,-0.00026,-6e-05,-2e-05,2e-05,4,4
15764,-4e-05,1e-05,-6e-05,-0.00017,-0.00026,-6e-05,-2e-05,2e-05,4,4
15765,5e-05,4e-05,0.00011,0.00031,0.00016,0.0003,7e-05,3e-05,4,4
15766,5e-05,4e-05,0.00011,0.00031,0.00016,0.0003,7e-05,3e-05,4,4
15767,5e-05,4e-05,0.00011,0.00031,0.00016,0.0003,7e-05,3e-05,4,4
15768,5e-05,4e-05,0.00011,0.00031,0.00016,0.0003,7e-05,3e-05,4,4
15769,5e-05,4e-05,0.00011,0.00031,0.00016,0.0003,7e-05,3e-05,4,4
15770,5e-05,4e-05,0.00011,0.00031,0.00016,0.0003,7e-05,3e-05,4,4
15771,5e-05,4e-05,0.00011,0.00031,0.00016,0.0003,7e-05,3e-05,4,4
15772,-3e-05,-2e-05,4e-05,-4e-05,0.00031,-0.00016,-3e-05,-4e-05,4,4
15773,-3e-05,-2e-05,4e-05,-4e-05,0.00031,-0.00016,-3e-05,-4e-05,4,4
15774,-3e-05,-2e-05,4e-05,-4e-05,0.00031,-0.00016,-3e-05,-4e-05,4,4
15775,-3e-05,-2e-05,4e-05,-4e-05,0.00031,-0.00016,-3e-05,-4e-05,4,4
15776,-3e-05,-2e-05,4e-05,-4e-05,0.00031,-0.00016,-3e-05,-4e-05,4,4
15777,-3e-05,-2e-05,4e-05,-4e-05,0.00031,-0.00016,-3e-05,-4e-05,4,4
15778,-3e-05,-2e-05,4e-05,-4e-05,0.00031,-0.00016,-3e-05,-4e-05,4,4
15779,-3e-05,-2e-05,4e-05,-4e-05,0.00031,-0.00016,-3e-05,-4e-05,4,4
15780,-3e-05,-2e-05,4e-05,-4e-05,0.00031,-0.00016,-3e-05,-4e-05,4,4
15781,-3e-05,-2e-05,4e-05,-4e-05,0.00031,-0.00016,-3e-05,-4e-05,4,4
15782,-3e-05,-2e-05,4e-05,-4e-05,0.00031,-0.00016,-3e-05,-4e-05,4,4
15783,-3e-05,-2e-05,4e-05,-4e-05,0.00031,-0.00016,-3e-05,-4e-05,4,4
15784,-3e-05,-2e-05,4e-05,-4e-05,0.00031,-0.00016,-3e-05,-4e-05,4,4
15785,-3e-05,-2e-05,4e-05,-4e-05,0.00031,-0.00016,-3e-05,-4e-05,4,4
15786,-3e-05,-2e-05,4e-05,-4e-05,0.00031,-0.00016,-3e-05,-4e-05,4,4
15787,-3e-05,-2e-05,4e-05,-4e-05,0.00031,-0.00016,-3e-05,-4e-05,4,4
15788,1e-05,-8e-05,-0.00012,3e-05,3e-05,-0.00011,2e-05,1e-05,4,4
15789,1e-05,-8e-05,-0.00012,3e-05,3e-05,-0.00011,2e-05,1e-05,4,4
15790,2e-05,4e-05,0.00019,0.00014,-0.00017,-1e-05,4e-05,5e-05,4,4
15791,2e-05,4e-05,0.00019,0.00014,-0.00017,-1e-05,4e-05,5e-05,4,4
15793,2e-05,4e-05,0.00019,0.00014,-0.00017,-1e-05,4e-05,5e-05,4,4
15794,2e-05,4e-05,0.00019,0.00014,-0.00017,-1e-05,4e-05,5e-05,4,4
15795,2e-05,4e-05,0.00019,0.00014,-0.00017,-1e-05,4e-05,5e-05,4,4
15796,2e-05,4e-05,0.00019,0.00014,-0.00017,-1e-05,4e-05,5e-05,4,4
15797,2e-05,4e-05,0.00019,0.00014,-0.00017,-1e-05,4e-05,5e-05,4,4
15798,2e-05,4e-05,0.00019,0.00014,-0.00017,-1e-05,4e-05,5e-05,4,4
15799,2e-05,4e-05,0.00019,0.00014,-0.00017,-1e-05,4e-05,5e-05,4,4
15800,2e-05,4e-05,0.00019,0.00014,-0.00017,-1e-05,4e-05,5e-05,4,4
15801,2e-05,4e-05,0.00019,0.00014,-0.00017,-1e-05,4e-05,5e-05,4,4
15802,2e-05,4e-05,0.00019,0.00014,-0.00017,-1e-05,4e-05,5e-05,4,4
15803,2e-05,4e-05,0.00019,0.00014,-0.00017,-1e-05,4e-05,5e-05,4,4
15804,2e-05,4e-05,0.00019,0.00014,-0.00017,-1e-05,4e-05,5e-05,4,4
15805,2e-05,4e-05,0.00019,0.00014,-0.00017,-1e-05,4e-05,5e-05,4,4
15806,2e-05,4e-05,0.00019,0.00014,-0.00017,-1e-05,4e-05,5e-05,4,4
15807,2e-05,4e-05,0.00019,0.00014,-0.00017,-1e-05,4e-05,5e-05,4,4
15808,2e-05,4e-05,0.00019,0.00014,-0.00017,-1e-05,4e-05,5e-05,4,4
15809,2e-05,4e-05,0.00019,0.00014,-0.00017,-1e-05,4e-05,5e-05,4,4
15810,2e-05,4e-05,0.00019,0.00014,-0.00017,-1e-05,4e-05,5e-05,4,4
15811,5e-05,0.0001,0.00014,0.00055,0.00096,5e-05,5e-05,1e-05,4,4
15812,-2e-05,-2e-05,-8e-05,0.00013,0.00062,0.00017,1e-05,-3e-05,4,4
15813,-2e-05,-2e-05,-8e-05,0.00013,0.00062,0.00017,1e-05,-3e-05,4,4
15814,-2e-05,-2e-05,-8e-05,0.00013,0.00062,0.00017,1e-05,-3e-05,4,4
15815,-2e-05,-2e-05,-8e-05,0.00013,0.00062,0.00017,1e-05,-3e-05,4,4
15816,-2e-05,-2e-05,-8e-05,0.00013,0.00062,0.00017,1e-05,-3e-05,4,4
15817,-2e-05,-2e-05,-8e-05,0.00013,0.00062,0.00017,1e-05,-3e-05,4,4
15818,-2e-05,-2e-05,-8e-05,0.00013,0.00062,0.00017,1e-05,-3e-05,4,4
15819,-2e-05,-2e-05,-8e-05,0.00013,0.00062,0.00017,1e-05,-3e-05,4,4
15820,-2e-05,-2e-05,-8e-05,0.00013,0.00062,0.00017,1e-05,-3e-05,4,4
15821,-2e-05,-2e-05,-8e-05,0.00013,0.00062,0.00017,1e-05,-3e-05,4,4
15822,-2e-05,-2e-05,-8e-05,0.00013,0.00062,0.00017,1e-05,-3e-05,4,4
15823,-2e-05,-2e-05,-8e-05,0.00013,0.00062,0.00017,1e-05,-3e-05,4,4
15824,-2e-05,-2e-05,-8e-05,0.00013,0.00062,0.00017,1e-05,-3e-05,4,4
15825,5e-05,-1e-05,-1e-05,0.00024,0.00062,0.00045,9e-05,-2e-05,4,4
15826,5e-05,-1e-05,-1e-05,0.00024,0.00062,0.00045,9e-05,-2e-05,4,4
15827,5e-05,-1e-05,-1e-05,0.00024,0.00062,0.00045,9e-05,-2e-05,4,4
15828,5e-05,-1e-05,-1e-05,0.00024,0.00062,0.00045,9e-05,-2e-05,4,4
15829,5e-05,-1e-05,-1e-05,0.00024,0.00062,0.00045,9e-05,-2e-05,4,4
15830,5e-05,-1e-05,-1e-05,0.00024,0.00062,0.00045,9e-05,-2e-05,4,4
15831,5e-05,-1e-05,-1e-05,0.00024,0.00062,0.00045,9e-05,-2e-05,4,4
15832,1e-05,-3e-05,6e-05,-0.00016,-0.00031,-3e-05,-7e-05,-4e-05,4,4
15833,1e-05,-3e-05,6e-05,-0.00016,-0.00031,-3e-05,-7e-05,-4e-05,4,4
15834,1e-05,-3e-05,6e-05,-0.00016,-0.00031,-3e-05,-7e-05,-4e-05,4,4
15835,1e-05,-3e-05,6e-05,-0.00016,-0.00031,-3e-05,-7e-05,-4e-05,4,4
15836,1e-05,-3e-05,6e-05,-0.00016,-0.00031,-3e-05,-7e-05,-4e-05,4,4
15837,1e-05,-3e-05,6e-05,-0.00016,-0.00031,-3e-05,-7e-05,-4e-05,4,4
15838,1e-05,-3e-05,6e-05,-0.00016,-0.00031,-3e-05,-7e-05,-4e-05,4,4
15840,1e-05,-3e-05,6e-05,-0.00016,-0.00031,-3e-05,-7e-05,-4e-05,4,4
15841,1e-05,-3e-05,6e-05,-0.00016,-0.00031,-3e-05,-7e-05,-4e-05,4,4
15842,1e-05,-3e-05,6e-05,-0.00016,-0.00031,-3e-05,-7e-05,-4e-05,4,4
15843,1e-05,-3e-05,6e-05,-0.00016,-0.00031,-3e-05,-7e-05,-4e-05,4,4
15844,1e-05,-3e-05,6e-05,-0.00016,-0.00031,-3e-05,-7e-05,-4e-05,4,4
15845,1e-05,-3e-05,6e-05,-0.00016,-0.00031,-3e-05,-7e-05,-4e-05,4,4
15846,1e-05,-3e-05,6e-05,-0.00016,-0.00031,-3e-05,-7e-05,-4e-05,4,4
15847,1e-05,-3e-05,6e-05,-0.00016,-0.00031,-3e-05,-7e-05,-4e-05,4,4
15848,-2e-05,4e-05,0.00012,-0.00011,0.00035,0.00022,5e-05,0,4,4
15849,-2e-05,4e-05,0.00012,-0.00011,0.00035,0.00022,5e-05,0,4,4
15850,-4e-05,0,-0.00013,-5e-05,0,-6e-05,-6e-05,-2e-05,4,4
15851,-4e-05,0,-0.00013,-5e-05,0,-6e-05,-6e-05,-2e-05,4,4
15852,-4e-05,0,-0.00013,-5e-05,0,-6e-05,-6e-05,-2e-05,4,4
15853,-4e-05,0,-0.00013,-5e-05,0,-6e-05,-6e-05,-2e-05,4,4
15854,-4e-05,0,-0.00013,-5e-05,0,-6e-05,-6e-05,-2e-05,4,4
15855,-4e-05,0,-0.00013,-5e-05,0,-6e-05,-6e-05,-2e-05,4,4
15856,-4e-05,0,-0.00013,-5e-05,0,-6e-05,-6e-05,-2e-05,4,4
15857,-4e-05,0,-0.00013,-5e-05,0,-6e-05,-6e-05,-2e-05,4,4
15858,-4e-05,0,-0.00013,-5e-05,0,-6e-05,-6e-05,-2e-05,4,4
15859,-4e-05,0,-0.00013,-5e-05,0,-6e-05,-6e-05,-2e-05,4,4
15860,-4e-05,0,-0.00013,-5e-05,0,-6e-05,-6e-05,-2e-05,4,4
15861,-4e-05,0,-0.00013,-5e-05,0,-6e-05,-6e-05,-2e-05,4,4
15862,-4e-05,0,-0.00013,-5e-05,0,-6e-05,-6e-05,-2e-05,4,4
15863,-4e-05,0,-0.00013,-5e-05,0,-6e-05,-6e-05,-2e-05,4,4
15864,-4e-05,0,-0.00013,-5e-05,0,-6e-05,-6e-05,-2e-05,4,4
15865,-4e-05,0,-0.00013,-5e-05,0,-6e-05,-6e-05,-2e-05,4,4
15866,-4e-05,0,-0.00013,-5e-05,0,-6e-05,-6e-05,-2e-05,4,4
15867,-4e-05,0,-0.00013,-5e-05,0,-6e-05,-6e-05,-2e-05,4,4
15868,-4e-05,0,-0.00013,-5e-05,0,-6e-05,-6e-05,-2e-05,4,4
15869,-4e-05,0,-0.00013,-5e-05,0,-6e-05,-6e-05,-2e-05,4,4
15870,-4e-05,0,-0.00013,-5e-05,0,-6e-05,-6e-05,-2e-05,4,4
15871,-5e-05,0,6e-05,-0.00036,-0.00108,-0.00025,-0.00016,0,4,4
15872,-1e-05,0,2e-05,0.00021,3e-05,-0.00015,-4e-05,-3e-05,4,4
15873,-1e-05,0,2e-05,0.00021,3e-05,-0.00015,-4e-05,-3e-05,4,4
15874,-1e-05,0,2e-05,0.00021,3e-05,-0.00015,-4e-05,-3e-05,4,4
15875,-1e-05,0,2e-05,0.00021,3e-05,-0.00015,-4e-05,-3e-05,4,4
15876,-1e-05,0,2e-05,0.00021,3e-05,-0.00015,-4e-05,-3e-05,4,4
15877,-1e-05,0,2e-05,0.00021,3e-05,-0.00015,-4e-05,-3e-05,4,4
15878,-1e-05,0,2e-05,0.00021,3e-05,-0.00015,-4e-05,-3e-05,4,4
15879,-1e-05,0,2e-05,0.00021,3e-05,-0.00015,-4e-05,-3e-05,4,4
15880,-1e-05,0,2e-05,0.00021,3e-05,-0.00015,-4e-05,-3e-05,4,4
15881,-1e-05,0,2e-05,0.00021,3e-05,-0.00015,-4e-05,-3e-05,4,4
15882,-1e-05,0,2e-05,0.00021,3e-05,-0.00015,-4e-05,-3e-05,4,4
15883,-1e-05,0,2e-05,0.00021,3e-05,-0.00015,-4e-05,-3e-05,4,4
15884,-1e-05,0,2e-05,0.00021,3e-05,-0.00015,-4e-05,-3e-05,4,4
15885,-1e-05,0,2e-05,0.00021,3e-05,-0.00015,-4e-05,-3e-05,4,4
15887,-2e-05,-5e-05,9e-05,0.00038,0.00018,-0.00026,-6e-05,-3e-05,4,4
15888,-2e-05,-5e-05,9e-05,0.00038,0.00018,-0.00026,-6e-05,-3e-05,4,4
15890,-2e-05,-5e-05,9e-05,0.00038,0.00018,-0.00026,-6e-05,-3e-05,4,4
15891,-2e-05,-5e-05,9e-05,0.00038,0.00018,-0.00026,-6e-05,-3e-05,4,4
15892,5e-05,1e-05,-5e-05,0.00023,0.00047,1e-05,-1e-05,-2e-05,4,4
15893,5e-05,1e-05,-5e-05,0.00023,0.00047,1e-05,-1e-05,-2e-05,4,4
15894,5e-05,1e-05,-5e-05,0.00023,0.00047,1e-05,-1e-05,-2e-05,4,4
15895,5e-05,1e-05,-5e-05,0.00023,0.00047,1e-05,-1e-05,-2e-05,4,4
15896,5e-05,1e-05,-5e-05,0.00023,0.00047,1e-05,-1e-05,-2e-05,4,4
15897,5e-05,1e-05,-5e-05,0.00023,0.00047,1e-05,-1e-05,-2e-05,4,4
15898,5e-05,1e-05,-5e-05,0.00023,0.00047,1e-05,-1e-05,-2e-05,4,4
15899,5e-05,1e-05,-5e-05,0.00023,0.00047,1e-05,-1e-05,-2e-05,4,4
15900,5e-05,1e-05,-5e-05,0.00023,0.00047,1e-05,-1e-05,-2e-05,4,4
15901,5e-05,1e-05,-5e-05,0.00023,0.00047,1e-05,-1e-05,-2e-05,4,4
15902,5e-05,1e-05,-5e-05,0.00023,0.00047,1e-05,-1e-05,-2e-05,4,4
15903,5e-05,1e-05,-5e-05,0.00023,0.00047,1e-05,-1e-05,-2e-05,4,4
15904,5e-05,1e-05,-5e-05,0.00023,0.00047,1e-05,-1e-05,-2e-05,4,4
15905,5e-05,1e-05,-5e-05,0.00023,0.00047,1e-05,-1e-05,-2e-05,4,4
15906,5e-05,1e-05,-5e-05,0.00023,0.00047,1e-05,-1e-05,-2e-05,4,4
15907,5e-05,1e-05,-5e-05,0.00023,0.00047,1e-05,-1e-05,-2e-05,4,4
15908,2e-05,1e-05,4e-05,-7e-05,-0.00046,-0.00011,-6e-05,0,4,4
15909,2e-05,1e-05,4e-05,-7e-05,-0.00046,-0.00011,-6e-05,0,4,4
15910,-7e-05,-8e-05,-0.00011,-0.00015,-0.00022,-3e-05,-1e-05,-3e-05,4,4
15911,-7e-05,-8e-05,-0.00011,-0.00015,-0.00022,-3e-05,-1e-05,-3e-05,4,4
15912,-7e-05,-8e-05,-0.00011,-0.00015,-0.00022,-3e-05,-1e-05,-3e-05,4,4
15913,-7e-05,-8e-05,-0.00011,-0.00015,-0.00022,-3e-05,-1e-05,-3e-05,4,4
15914,-7e-05,-8e-05,-0.00011,-0.00015,-0.00022,-3e-05,-1e-05,-3e-05,4,4
15915,-7e-05,-8e-05,-0.00011,-0.00015,-0.00022,-3e-05,-1e-05,-3e-05,4,4
15916,-7e-05,-8e-05,-0.00011,-0.00015,-0.00022,-3e-05,-1e-05,-3e-05,4,4
15917,-7e-05,-8e-05,-0.00011,-0.00015,-0.00022,-3e-05,-1e-05,-3e-05,4,4
15918,-7e-05,-8e-05,-0.00011,-0.00015,-0.00022,-3e-05,-1e-05,-3e-05,4,4
15919,-7e-05,-8e-05,-0.00011,-0.00015,-0.00022,-3e-05,-1e-05,-3e-05,4,4
15920,-7e-05,-8e-05,-0.00011,-0.00015,-0.00022,-3e-05,-1e-05,-3e-05,4,4
15921,-7e-05,-8e-05,-0.00011,-0.00015,-0.00022,-3e-05,-1e-05,-3e-05,4,4
15922,-7e-05,-8e-05,-0.00011,-0.00015,-0.00022,-3e-05,-1e-05,-3e-05,4,4
15923,-7e-05,-8e-05,-0.00011,-0.00015,-0.00022,-3e-05,-1e-05,-3e-05,4,4
15924,-7e-05,-8e-05,-0.00011,-0.00015,-0.00022,-3e-05,-1e-05,-3e-05,4,4
15925,-7e-05,-8e-05,-0.00011,-0.00015,-0.00022,-3e-05,-1e-05,-3e-05,4,4
15926,-7e-05,-8e-05,-0.00011,-0.00015,-0.00022,-3e-05,-1e-05,-3e-05,4,4
15927,-7e-05,-8e-05,-0.00011,-0.00015,-0.00022,-3e-05,-1e-05,-3e-05,4,4
15928,-7e-05,-8e-05,-0.00011,-0.00015,-0.00022,-3e-05,-1e-05,-3e-05,4,4
15929,-7e-05,-8e-05,-0.00011,-0.00015,-0.00022,-3e-05,-1e-05,-3e-05,4,4
15930,-7e-05,-8e-05,-0.00011,-0.00015,-0.00022,-3e-05,-1e-05,-3e-05,4,4
15931,2e-05,5e-05,2e-05,-4e-05,-4e-05,-0.00014,-2e-05,3e-05,4,4
15932,2e-05,5e-05,2e-05,-4e-05,-4e-05,-0.00014,-2e-05,3e-05,4,4
15933,2e-05,1e-05,-0.00013,1e-05,0.00025,0.00016,0.00012,0,4,4
15934,2e-05,1e-05,-0.00013,1e-05,0.00025,0.00016,0.00012,0,4,4
15935,2e-05,1e-05,-0.00013,1e-05,0.00025,0.00016,0.00012,0,4,4
15936,2e-05,1e-05,-0.00013,1e-05,0.00025,0.00016,0.00012,0,4,4
15938,2e-05,1e-05,-0.00013,1e-05,0.00025,0.00016,0.00012,0,4,4
15939,2e-05,1e-05,-0.00013,1e-05,0.00025,0.00016,0.00012,0,4,4
15940,2e-05,1e-05,-0.00013,1e-05,0.00025,0.00016,0.00012,0,4,4
15941,2e-05,1e-05,-0.00013,1e-05,0.00025,0.00016,0.00012,0,4,4
15942,2e-05,1e-05,-0.00013,1e-05,0.00025,0.00016,0.00012,0,4,4
15943,2e-05,1e-05,-0.00013,1e-05,0.00025,0.00016,0.00012,0,4,4
15944,-7e-05,-0.00021,-0.00022,-0.00038,-0.00072,4e-05,-5e-05,-2e-05,4,4
15945,-7e-05,-0.00021,-0.00022,-0.00038,-0.00072,4e-05,-5e-05,-2e-05,4,4
15946,-7e-05,-0.00021,-0.00022,-0.00038,-0.00072,4e-05,-5e-05,-2e-05,4,4
15947,-7e-05,-0.00021,-0.00022,-0.00038,-0.00072,4e-05,-5e-05,-2e-05,4,4
15948,-7e-05,-0.00021,-0.00022,-0.00038,-0.00072,4e-05,-5e-05,-2e-05,4,4
15949,-7e-05,-0.00021,-0.00022,-0.00038,-0.00072,4e-05,-5e-05,-2e-05,4,4
15950,-7e-05,-0.00021,-0.00022,-0.00038,-0.00072,4e-05,-5e-05,-2e-05,4,4
15951,-7e-05,-0.00021,-0.00022,-0.00038,-0.00072,4e-05,-5e-05,-2e-05,4,4
15952,-7e-05,-0.00021,-0.00022,-0.00038,-0.00072,4e-05,-5e-05,-2e-05,4,4
15953,-7e-05,-0.00021,-0.00022,-0.00038,-0.00072,4e-05,-5e-05,-2e-05,4,4
15954,-2e-05,-4e-05,8e-05,0.0002,-5e-05,-4e-05,-6e-05,-1e-05,4,4
15955,-2e-05,-4e-05,8e-05,0.0002,-5e-05,-4e-05,-6e-05,-1e-05,4,4
15956,-2e-05,-4e-05,8e-05,0.0002,-5e-05,-4e-05,-6e-05,-1e-05,4,4
15957,-2e-05,-4e-05,8e-05,0.0002,-5e-05,-4e-05,-6e-05,-1e-05,4,4
15958,-2e-05,-4e-05,8e-05,0.0002,-5e-05,-4e-05,-6e-05,-1e-05,4,4
15959,-2e-05,-4e-05,8e-05,0.0002,-5e-05,-4e-05,-6e-05,-1e-05,4,4
15960,-2e-05,-4e-05,8e-05,0.0002,-5e-05,-4e-05,-6e-05,-1e-05,4,4
15961,-2e-05,-4e-05,8e-05,0.0002,-5e-05,-4e-05,-6e-05,-1e-05,4,4
15962,-2e-05,-4e-05,8e-05,0.0002,-5e-05,-4e-05,-6e-05,-1e-05,4,4
15963,-2e-05,-4e-05,8e-05,0.0002,-5e-05,-4e-05,-6e-05,-1e-05,4,4
15964,-2e-05,-4e-05,8e-05,0.0002,-5e-05,-4e-05,-6e-05,-1e-05,4,4
15965,-2e-05,-4e-05,8e-05,0.0002,-5e-05,-4e-05,-6e-05,-1e-05,4,4
15966,-2e-05,-4e-05,8e-05,0.0002,-5e-05,-4e-05,-6e-05,-1e-05,4,4
15967,-2e-05,-4e-05,8e-05,0.0002,-5e-05,-4e-05,-6e-05,-1e-05,4,4
15968,-2e-05,4e-05,3e-05,3e-05,0.00015,-8e-05,-1e-05,0,4,4
15969,-2e-05,4e-05,3e-05,3e-05,0.00015,-8e-05,-1e-05,0,4,4
15970,-8e-05,-0.00019,-0.00011,-0.00045,-0.00056,2e-05,0,-1e-05,4,4
15971,-8e-05,-0.00019,-0.00011,-0.00045,-0.00056,2e-05,0,-1e-05,4,4
15972,-8e-05,-0.00019,-0.00011,-0.00045,-0.00056,2e-05,0,-1e-05,4,4
15973,-8e-05,-0.00019,-0.00011,-0.00045,-0.00056,2e-05,0,-1e-05,4,4
15974,-8e-05,-0.00019,-0.00011,-0.00045,-0.00056,2e-05,0,-1e-05,4,4
15975,-8e-05,-0.00019,-0.00011,-0.00045,-0.00056,2e-05,0,-1e-05,4,4
15976,-8e-05,-0.00019,-0.00011,-0.00045,-0.00056,2e-05,0,-1e-05,4,4
15977,-8e-05,-0.00019,-0.00011,-0.00045,-0.00056,2e-05,0,-1e-05,4,4
15979,-8e-05,-0.00019,-0.00011,-0.00045,-0.00056,2e-05,0,-1e-05,4,4
15980,-8e-05,-0.00019,-0.00011,-0.00045,-0.00056,2e-05,0,-1e-05,4,4
15981,-8e-05,-0.00019,-0.00011,-0.00045,-0.00056,2e-05,0,-1e-05,4,4
15982,-8e-05,-0.00019,-0.00011,-0.00045,-0.00056,2e-05,0,-1e-05,4,4
15983,-8e-05,-0.00019,-0.00011,-0.00045,-0.00056,2e-05,0,-1e-05,4,4
15984,-8e-05,-0.00019,-0.00011,-0.00045,-0.00056,2e-05,0,-1e-05,4,4
15985,-8e-05,-0.00019,-0.00011,-0.00045,-0.00056,2e-05,0,-1e-05,4,4
15986,-8e-05,-0.00019,-0.00011,-0.00045,-0.00056,2e-05,0,-1e-05,4,4
15988,-8e-05,-0.00019,-0.00011,-0.00045,-0.00056,2e-05,0,-1e-05,4,4
15989,-8e-05,-0.00019,-0.00011,-0.00045,-0.00056,2e-05,0,-1e-05,4,4
15990,-8e-05,-0.00019,-0.00011,-0.00045,-0.00056,2e-05,0,-1e-05,4,4
15991,1e-05,4e-05,4e-05,0.00011,0.00016,-0.00014,-4e-05,-2e-05,4,4
15992,5e-05,0.00011,0.00022,0.0004,0.00061,1e-05,6e-05,1e-05,4,4
15993,5e-05,0.00011,0.00022,0.0004,0.00061,1e-05,6e-05,1e-05,4,4
15994,5e-05,0.00011,0.00022,0.0004,0.00061,1e-05,6e-05,1e-05,4,4
15995,5e-05,0.00011,0.00022,0.0004,0.00061,1e-05,6e-05,1e-05,4,4
15996,5e-05,0.00011,0.00022,0.0004,0.00061,1e-05,6e-05,1e-05,4,4
15997,5e-05,0.00011,0.00022,0.0004,0.00061,1e-05,6e-05,1e-05,4,4
15998,5e-05,0.00011,0.00022,0.0004,0.00061,1e-05,6e-05,1e-05,4,4
15999,5e-05,0.00011,0.00022,0.0004,0.00061,1e-05,6e-05,1e-05,4,4
16000,5e-05,0.00011,0.00022,0.0004,0.00061,1e-05,6e-05,1e-05,4,4
16001,5e-05,0.00011,0.00022,0.0004,0.00061,1e-05,6e-05,1e-05,4,4
16002,5e-05,0.00011,0.00022,0.0004,0.00061,1e-05,6e-05,1e-05,4,4
16003,5e-05,0.00011,0.00022,0.0004,0.00061,1e-05,6e-05,1e-05,4,4
16004,5e-05,0.00011,0.00022,0.0004,0.00061,1e-05,6e-05,1e-05,4,4
16005,-2e-05,1e-05,2e-05,0,-5e-05,-6e-05,1e-05,-2e-05,4,4
16006,-2e-05,1e-05,2e-05,0,-5e-05,-6e-05,1e-05,-2e-05,4,4
16007,-2e-05,1e-05,2e-05,0,-5e-05,-6e-05,1e-05,-2e-05,4,4
16008,-2e-05,1e-05,2e-05,0,-5e-05,-6e-05,1e-05,-2e-05,4,4
16009,-2e-05,1e-05,2e-05,0,-5e-05,-6e-05,1e-05,-2e-05,4,4
16010,-2e-05,1e-05,2e-05,0,-5e-05,-6e-05,1e-05,-2e-05,4,4
16011,-2e-05,1e-05,2e-05,0,-5e-05,-6e-05,1e-05,-2e-05,4,4
16012,-2e-05,-5e-05,-8e-05,0.0001,2e-05,0.00014,-2e-05,-5e-05,4,4
16013,-2e-05,-5e-05,-8e-05,0.0001,2e-05,0.00014,-2e-05,-5e-05,4,4
16014,-2e-05,-5e-05,-8e-05,0.0001,2e-05,0.00014,-2e-05,-5e-05,4,4
16015,-2e-05,-5e-05,-8e-05,0.0001,2e-05,0.00014,-2e-05,-5e-05,4,4
16016,-2e-05,-5e-05,-8e-05,0.0001,2e-05,0.00014,-2e-05,-5e-05,4,4
16017,-2e-05,-5e-05,-8e-05,0.0001,2e-05,0.00014,-2e-05,-5e-05,4,4
16018,-2e-05,-5e-05,-8e-05,0.0001,2e-05,0.00014,-2e-05,-5e-05,4,4
16019,-2e-05,-5e-05,-8e-05,0.0001,2e-05,0.00014,-2e-05,-5e-05,4,4
16020,-2e-05,-5e-05,-8e-05,0.0001,2e-05,0.00014,-2e-05,-5e-05,4,4
16021,-2e-05,-5e-05,-8e-05,0.0001,2e-05,0.00014,-2e-05,-5e-05,4,4
16022,-2e-05,-5e-05,-8e-05,0.0001,2e-05,0.00014,-2e-05,-5e-05,4,4
16023,-2e-05,-5e-05,-8e-05,0.0001,2e-05,0.00014,-2e-05,-5e-05,4,4
16024,-2e-05,-5e-05,-8e-05,0.0001,2e-05,0.00014,-2e-05,-5e-05,4,4
16026,-2e-05,-5e-05,-8e-05,0.0001,2e-05,0.00014,-2e-05,-5e-05,4,4
16027,-2e-05,-5e-05,-8e-05,0.0001,2e-05,0.00014,-2e-05,-5e-05,4,4
16028,0.0001,6e-05,-3e-05,0.00038,0.00026,5e-05,2e-05,2e-05,4,4
16029,0.0001,6e-05,-3e-05,0.00038,0.00026,5e-05,2e-05,2e-05,4,4
16030,1e-05,0,-0.00014,-0.00056,-0.00077,-1e-05,0,-3e-05,4,4
16031,1e-05,0,-0.00014,-0.00056,-0.00077,-1e-05,0,-3e-05,4,4
16032,1e-05,0,-0.00014,-0.00056,-0.00077,-1e-05,0,-3e-05,4,4
16033,1e-05,0,-0.00014,-0.00056,-0.00077,-1e-05,0,-3e-05,4,4
16034,1e-05,0,-0.00014,-0.00056,-0.00077,-1e-05,0,-3e-05,4,4
16035,1e-05,0,-0.00014,-0.00056,-0.00077,-1e-05,0,-3e-05,4,4
16036,1e-05,0,-0.00014,-0.00056,-0.00077,-1e-05,0,-3e-05,4,4
16038,1e-05,0,-0.00014,-0.00056,-0.00077,-1e-05,0,-3e-05,4,4
16039,1e-05,0,-0.00014,-0.00056,-0.00077,-1e-05,0,-3e-05,4,4
16040,1e-05,0,-0.00014,-0.00056,-0.00077,-1e-05,0,-3e-05,4,4
16041,1e-05,0,-0.00014,-0.00056,-0.00077,-1e-05,0,-3e-05,4,4
16042,1e-05,0,-0.00014,-0.00056,-0.00077,-1e-05,0,-3e-05,4,4
16043,1e-05,0,-0.00014,-0.00056,-0.00077,-1e-05,0,-3e-05,4,4
16044,1e-05,0,-0.00014,-0.00056,-0.00077,-1e-05,0,-3e-05,4,4
16045,1e-05,0,-0.00014,-0.00056,-0.00077,-1e-05,0,-3e-05,4,4
16046,1e-05,0,-0.00014,-0.00056,-0.00077,-1e-05,0,-3e-05,4,4
16047,1e-05,0,-0.00014,-0.00056,-0.00077,-1e-05,0,-3e-05,4,4
16048,1e-05,0,-0.00014,-0.00056,-0.00077,-1e-05,0,-3e-05,4,4
16049,1e-05,0,-0.00014,-0.00056,-0.00077,-1e-05,0,-3e-05,4,4
16050,1e-05,0,-0.00014,-0.00056,-0.00077,-1e-05,0,-3e-05,4,4
16051,4e-05,8e-05,0.00018,0.00017,-0.00038,-6e-05,-7e-05,4e-05,4,4
16052,2e-05,3e-05,0,3e-05,0.00013,-0.00027,2e-05,2e-05,4,4
16053,2e-05,3e-05,0,3e-05,0.00013,-0.00027,2e-05,2e-05,4,4
16054,2e-05,3e-05,0,3e-05,0.00013,-0.00027,2e-05,2e-05,4,4
16055,2e-05,3e-05,0,3e-05,0.00013,-0.00027,2e-05,2e-05,4,4
16056,2e-05,3e-05,0,3e-05,0.00013,-0.00027,2e-05,2e-05,4,4
16057,2e-05,3e-05,0,3e-05,0.00013,-0.00027,2e-05,2e-05,4,4
16058,2e-05,3e-05,0,3e-05,0.00013,-0.00027,2e-05,2e-05,4,4
16059,2e-05,3e-05,0,3e-05,0.00013,-0.00027,2e-05,2e-05,4,4
16060,2e-05,3e-05,0,3e-05,0.00013,-0.00027,2e-05,2e-05,4,4
16061,2e-05,3e-05,0,3e-05,0.00013,-0.00027,2e-05,2e-05,4,4
16062,2e-05,3e-05,0,3e-05,0.00013,-0.00027,2e-05,2e-05,4,4
16063,2e-05,3e-05,0,3e-05,0.00013,-0.00027,2e-05,2e-05,4,4
16064,-4e-05,-9e-05,-0.00019,-0.00071,-0.00023,4e-05,0,0,4,4
16065,-4e-05,-9e-05,-0.00019,-0.00071,-0.00023,4e-05,0,0,4,4
16066,-4e-05,-9e-05,-0.00019,-0.00071,-0.00023,4e-05,0,0,4,4
16067,-4e-05,-9e-05,-0.00019,-0.00071,-0.00023,4e-05,0,0,4,4
16068,-4e-05,-9e-05,-0.00019,-0.00071,-0.00023,4e-05,0,0,4,4
16069,-4e-05,-9e-05,-0.00019,-0.00071,-0.00023,4e-05,0,0,4,4
16070,-4e-05,-9e-05,-0.00019,-0.00071,-0.00023,4e-05,0,0,4,4
16071,-4e-05,-9e-05,-0.00019,-0.00071,-0.00023,4e-05,0,0,4,4
16073,0,0,-1e-05,7e-05,0.00036,-8e-05,-6e-05,-2e-05,4,4
16074,0,0,-1e-05,7e-05,0.00036,-8e-05,-6e-05,-2e-05,4,4
16075,0,0,-1e-05,7e-05,0.00036,-8e-05,-6e-05,-2e-05,4,4
16076,0,0,-1e-05,7e-05,0.00036,-8e-05,-6e-05,-2e-05,4,4
16077,0,0,-1e-05,7e-05,0.00036,-8e-05,-6e-05,-2e-05,4,4
16078,0,0,-1e-05,7e-05,0.00036,-8e-05,-6e-05,-2e-05,4,4
16079,0,0,-1e-05,7e-05,0.00036,-8e-05,-6e-05,-2e-05,4,4
16080,0,0,-1e-05,7e-05,0.00036,-8e-05,-6e-05,-2e-05,4,4
16081,0,0,-1e-05,7e-05,0.00036,-8e-05,-6e-05,-2e-05,4,4
16082,0,0,-1e-05,7e-05,0.00036,-8e-05,-6e-05,-2e-05,4,4
16083,0,0,-1e-05,7e-05,0.00036,-8e-05,-6e-05,-2e-05,4,4
16084,0,0,-1e-05,7e-05,0.00036,-8e-05,-6e-05,-2e-05,4,4
16085,0,0,-1e-05,7e-05,0.00036,-8e-05,-6e-05,-2e-05,4,4
16086,0,0,-1e-05,7e-05,0.00036,-8e-05,-6e-05,-2e-05,4,4
16088,-2e-05,3e-05,6e-05,0.0001,-0.00034,-2e-05,-3e-05,0,4,4
16089,-2e-05,3e-05,6e-05,0.0001,-0.00034,-2e-05,-3e-05,0,4,4
16090,3e-05,5e-05,0.00011,0.00055,0.00053,0.00011,3e-05,2e-05,4,4
16091,3e-05,5e-05,0.00011,0.00055,0.00053,0.00011,3e-05,2e-05,4,4
16092,3e-05,5e-05,0.00011,0.00055,0.00053,0.00011,3e-05,2e-05,4,4
16093,3e-05,5e-05,0.00011,0.00055,0.00053,0.00011,3e-05,2e-05,4,4
16094,3e-05,5e-05,0.00011,0.00055,0.00053,0.00011,3e-05,2e-05,4,4
16095,3e-05,5e-05,0.00011,0.00055,0.00053,0.00011,3e-05,2e-05,4,4
16096,3e-05,5e-05,0.00011,0.00055,0.00053,0.00011,3e-05,2e-05,4,4
16097,3e-05,5e-05,0.00011,0.00055,0.00053,0.00011,3e-05,2e-05,4,4
16098,3e-05,5e-05,0.00011,0.00055,0.00053,0.00011,3e-05,2e-05,4,4
16099,3e-05,5e-05,0.00011,0.00055,0.00053,0.00011,3e-05,2e-05,4,4
16100,3e-05,5e-05,0.00011,0.00055,0.00053,0.00011,3e-05,2e-05,4,4
16101,3e-05,5e-05,0.00011,0.00055,0.00053,0.00011,3e-05,2e-05,4,4
16102,3e-05,5e-05,0.00011,0.00055,0.00053,0.00011,3e-05,2e-05,4,4
16103,3e-05,5e-05,0.00011,0.00055,0.00053,0.00011,3e-05,2e-05,4,4
16104,3e-05,5e-05,0.00011,0.00055,0.00053,0.00011,3e-05,2e-05,4,4
16105,3e-05,5e-05,0.00011,0.00055,0.00053,0.00011,3e-05,2e-05,4,4
16106,3e-05,5e-05,0.00011,0.00055,0.00053,0.00011,3e-05,2e-05,4,4
16107,3e-05,5e-05,0.00011,0.00055,0.00053,0.00011,3e-05,2e-05,4,4
16108,3e-05,5e-05,0.00011,0.00055,0.00053,0.00011,3e-05,2e-05,4,4
16109,3e-05,5e-05,0.00011,0.00055,0.00053,0.00011,3e-05,2e-05,4,4
16110,3e-05,5e-05,0.00011,0.00055,0.00053,0.00011,3e-05,2e-05,4,4
16111,-0.00012,-0.0002,-7e-05,-0.00024,-0.00019,-0.0001,5e-05,-6e-05,4,4
16112,7e-05,0.00017,0.00022,2e-05,-0.0006,-0.0002,-4e-05,5e-05,4,4
16113,7e-05,0.00017,0.00022,2e-05,-0.0006,-0.0002,-4e-05,5e-05,4,4
16114,7e-05,0.00017,0.00022,2e-05,-0.0006,-0.0002,-4e-05,5e-05,4,4
16115,7e-05,0.00017,0.00022,2e-05,-0.0006,-0.0002,-4e-05,5e-05,4,4
16116,7e-05,0.00017,0.00022,2e-05,-0.0006,-0.0002,-4e-05,5e-05,4,4
16117,7e-05,0.00017,0.00022,2e-05,-0.0006,-0.0002,-4e-05,5e-05,4,4
16118,7e-05,0.00017,0.00022,2e-05,-0.0006,-0.0002,-4e-05,5e-05,4,4
16120,7e-05,0.00017,0.00022,2e-05,-0.0006,-0.0002,-4e-05,5e-05,4,4
16121,7e-05,0.00017,0.00022,2e-05,-0.0006,-0.0002,-4e-05,5e-05,4,4
16122,7e-05,0.00017,0.00022,2e-05,-0.0006,-0.0002,-4e-05,5e-05,4,4
16123,7e-05,0.00017,0.00022,2e-05,-0.0006,-0.0002,-4e-05,5e-05,4,4
16124,4e-05,7e-05,0.00012,0.00031,0.0005,0.00014,3e-05,0,4,4
16125,4e-05,7e-05,0.00012,0.00031,0.0005,0.00014,3e-05,0,4,4
16126,4e-05,7e-05,0.00012,0.00031,0.0005,0.00014,3e-05,0,4,4
16127,4e-05,7e-05,0.00012,0.00031,0.0005,0.00014,3e-05,0,4,4
16128,4e-05,7e-05,0.00012,0.00031,0.0005,0.00014,3e-05,0,4,4
16129,4e-05,7e-05,0.00012,0.00031,0.0005,0.00014,3e-05,0,4,4
16130,4e-05,7e-05,0.00012,0.00031,0.0005,0.00014,3e-05,0,4,4
16131,4e-05,7e-05,0.00012,0.00031,0.0005,0.00014,3e-05,0,4,4
16132,4e-05,7e-05,0.00012,0.00031,0.0005,0.00014,3e-05,0,4,4
16133,-7e-05,-9e-05,-7e-05,-0.00011,0.0005,0.00019,2e-05,-5e-05,4,4
16134,-7e-05,-9e-05,-7e-05,-0.00011,0.0005,0.00019,2e-05,-5e-05,4,4
16135,-7e-05,-9e-05,-7e-05,-0.00011,0.0005,0.00019,2e-05,-5e-05,4,4
16136,-7e-05,-9e-05,-7e-05,-0.00011,0.0005,0.00019,2e-05,-5e-05,4,4
16138,-7e-05,-9e-05,-7e-05,-0.00011,0.0005,0.00019,2e-05,-5e-05,4,4
16139,-7e-05,-9e-05,-7e-05,-0.00011,0.0005,0.00019,2e-05,-5e-05,4,4
16140,-7e-05,-9e-05,-7e-05,-0.00011,0.0005,0.00019,2e-05,-5e-05,4,4
16141,-7e-05,-9e-05,-7e-05,-0.00011,0.0005,0.00019,2e-05,-5e-05,4,4
16142,-7e-05,-9e-05,-7e-05,-0.00011,0.0005,0.00019,2e-05,-5e-05,4,4
16143,-7e-05,-9e-05,-7e-05,-0.00011,0.0005,0.00019,2e-05,-5e-05,4,4
16144,-7e-05,-9e-05,-7e-05,-0.00011,0.0005,0.00019,2e-05,-5e-05,4,4
16145,-7e-05,-9e-05,-7e-05,-0.00011,0.0005,0.00019,2e-05,-5e-05,4,4
16146,-7e-05,-9e-05,-7e-05,-0.00011,0.0005,0.00019,2e-05,-5e-05,4,4
16147,-7e-05,-9e-05,-7e-05,-0.00011,0.0005,0.00019,2e-05,-5e-05,4,4
16148,-3e-05,-1e-05,-1e-05,-0.00033,-0.00082,-0.00017,-7e-05,-6e-05,4,4
16149,-3e-05,-1e-05,-1e-05,-0.00033,-0.00082,-0.00017,-7e-05,-6e-05,4,4
16150,1e-05,-1e-05,-0.00017,-0.00015,-0.00058,-0.0001,-6e-05,5e-05,4,4
16151,1e-05,-1e-05,-0.00017,-0.00015,-0.00058,-0.0001,-6e-05,5e-05,4,4
16152,1e-05,-1e-05,-0.00017,-0.00015,-0.00058,-0.0001,-6e-05,5e-05,4,4
16153,1e-05,-1e-05,-0.00017,-0.00015,-0.00058,-0.0001,-6e-05,5e-05,4,4
16154,1e-05,-1e-05,-0.00017,-0.00015,-0.00058,-0.0001,-6e-05,5e-05,4,4
16155,1e-05,-1e-05,-0.00017,-0.00015,-0.00058,-0.0001,-6e-05,5e-05,4,4
16156,1e-05,-1e-05,-0.00017,-0.00015,-0.00058,-0.0001,-6e-05,5e-05,4,4
16157,1e-05,-1e-05,-0.00017,-0.00015,-0.00058,-0.0001,-6e-05,5e-05,4,4
16158,1e-05,-1e-05,-0.00017,-0.00015,-0.00058,-0.0001,-6e-05,5e-05,4,4
16159,1e-05,-1e-05,-0.00017,-0.00015,-0.00058,-0.0001,-6e-05,5e-05,4,4
16160,1e-05,-1e-05,-0.00017,-0.00015,-0.00058,-0.0001,-6e-05,5e-05,4,4
16161,1e-05,-1e-05,-0.00017,-0.00015,-0.00058,-0.0001,-6e-05,5e-05,4,4
16162,1e-05,-1e-05,-0.00017,-0.00015,-0.00058,-0.0001,-6e-05,5e-05,4,4
16163,1e-05,-1e-05,-0.00017,-0.00015,-0.00058,-0.0001,-6e-05,5e-05,4,4
16164,1e-05,-1e-05,-0.00017,-0.00015,-0.00058,-0.0001,-6e-05,5e-05,4,4
16165,1e-05,-1e-05,-0.00017,-0.00015,-0.00058,-0.0001,-6e-05,5e-05,4,4
16167,1e-05,-1e-05,-0.00017,-0.00015,-0.00058,-0.0001,-6e-05,5e-05,4,4
16168,1e-05,-1e-05,-0.00017,-0.00015,-0.00058,-0.0001,-6e-05,5e-05,4,4
16169,1e-05,-1e-05,-0.00017,-0.00015,-0.00058,-0.0001,-6e-05,5e-05,4,4
16170,1e-05,-1e-05,-0.00017,-0.00015,-0.00058,-0.0001,-6e-05,5e-05,4,4
16171,2e-05,3e-05,3e-05,4e-05,0.00019,-1e-05,0,-1e-05,4,4
16172,-3e-05,-3e-05,7e-05,-0.00019,-0.00089,0,0,1e-05,4,4
16173,-3e-05,-3e-05,7e-05,-0.00019,-0.00089,0,0,1e-05,4,4
16174,-3e-05,-3e-05,7e-05,-0.00019,-0.00089,0,0,1e-05,4,4
16175,-3e-05,-3e-05,7e-05,-0.00019,-0.00089,0,0,1e-05,4,4
16176,-3e-05,-3e-05,7e-05,-0.00019,-0.00089,0,0,1e-05,4,4
16177,-3e-05,-3e-05,7e-05,-0.00019,-0.00089,0,0,1e-05,4,4
16178,-3e-05,-3e-05,7e-05,-0.00019,-0.00089,0,0,1e-05,4,4
16179,-3e-05,-3e-05,7e-05,-0.00019,-0.00089,0,0,1e-05,4,4
16180,-3e-05,-3e-05,7e-05,-0.00019,-0.00089,0,0,1e-05,4,4
16181,-3e-05,-3e-05,7e-05,-0.00019,-0.00089,0,0,1e-05,4,4
16182,-3e-05,-3e-05,7e-05,-0.00019,-0.00089,0,0,1e-05,4,4
16183,-3e-05,-3e-05,7e-05,-0.00019,-0.00089,0,0,1e-05,4,4
16184,0,7e-05,-2e-05,-2e-05,0.00018,-3e-05,1e-05,-3e-05,4,4
16185,0,7e-05,-2e-05,-2e-05,0.00018,-3e-05,1e-05,-3e-05,4,4
16186,0,7e-05,-2e-05,-2e-05,0.00018,-3e-05,1e-05,-3e-05,4,4
16187,0,7e-05,-2e-05,-2e-05,0.00018,-3e-05,1e-05,-3e-05,4,4
16188,0,7e-05,-2e-05,-2e-05,0.00018,-3e-05,1e-05,-3e-05,4,4
16189,0,7e-05,-2e-05,-2e-05,0.00018,-3e-05,1e-05,-3e-05,4,4
16190,0,7e-05,-2e-05,-2e-05,0.00018,-3e-05,1e-05,-3e-05,4,4
16191,0,7e-05,-2e-05,-2e-05,0.00018,-3e-05,1e-05,-3e-05,4,4
16192,0,7e-05,-2e-05,-2e-05,0.00018,-3e-05,1e-05,-3e-05,4,4
16193,-3e-05,-6e-05,-9e-05,5e-05,-4e-05,-0.00026,-0.00012,-6e-05,4,4
16194,-3e-05,-6e-05,-9e-05,5e-05,-4e-05,-0.00026,-0.00012,-6e-05,4,4
16195,-3e-05,-6e-05,-9e-05,5e-05,-4e-05,-0.00026,-0.00012,-6e-05,4,4
16196,-3e-05,-6e-05,-9e-05,5e-05,-4e-05,-0.00026,-0.00012,-6e-05,4,4
16197,-3e-05,-6e-05,-9e-05,5e-05,-4e-05,-0.00026,-0.00012,-6e-05,4,4
16198,-3e-05,-6e-05,-9e-05,5e-05,-4e-05,-0.00026,-0.00012,-6e-05,4,4
16199,-3e-05,-6e-05,-9e-05,5e-05,-4e-05,-0.00026,-0.00012,-6e-05,4,4
16200,-3e-05,-6e-05,-9e-05,5e-05,-4e-05,-0.00026,-0.00012,-6e-05,4,4
16201,-3e-05,-6e-05,-9e-05,5e-05,-4e-05,-0.00026,-0.00012,-6e-05,4,4
16202,-3e-05,-6e-05,-9e-05,5e-05,-4e-05,-0.00026,-0.00012,-6e-05,4,4
16203,-3e-05,-6e-05,-9e-05,5e-05,-4e-05,-0.00026,-0.00012,-6e-05,4,4
16204,-3e-05,-6e-05,-9e-05,5e-05,-4e-05,-0.00026,-0.00012,-6e-05,4,4
16205,-3e-05,-6e-05,-9e-05,5e-05,-4e-05,-0.00026,-0.00012,-6e-05,4,4
16206,-3e-05,-6e-05,-9e-05,5e-05,-4e-05,-0.00026,-0.00012,-6e-05,4,4
16207,-3e-05,-6e-05,-9e-05,5e-05,-4e-05,-0.00026,-0.00012,-6e-05,4,4
16208,-4e-05,-7e-05,-0.00016,-0.00031,0.00024,9e-05,0,-3e-05,4,4
16209,-4e-05,-7e-05,-0.00016,-0.00031,0.00024,9e-05,0,-3e-05,4,4
16210,-3e-05,-0.00015,-0.00023,0.00016,0.00095,1e-05,2e-05,-8e-05,4,4
16211,-3e-05,-0.00015,-0.00023,0.00016,0.00095,1e-05,2e-05,-8e-05,4,4
16213,-3e-05,-0.00015,-0.00023,0.00016,0.00095,1e-05,2e-05,-8e-05,4,4
16214,-3e-05,-0.00015,-0.00023,0.00016,0.00095,1e-05,2e-05,-8e-05,4,4
16215,-3e-05,-0.00015,-0.00023,0.00016,0.00095,1e-05,2e-05,-8e-05,4,4
16216,-3e-05,-0.00015,-0.00023,0.00016,0.00095,1e-05,2e-05,-8e-05,4,4
16217,-3e-05,-0.00015,-0.00023,0.00016,0.00095,1e-05,2e-05,-8e-05,4,4
16218,-3e-05,-0.00015,-0.00023,0.00016,0.00095,1e-05,2e-05,-8e-05,4,4
16219,-3e-05,-0.00015,-0.00023,0.00016,0.00095,1e-05,2e-05,-8e-05,4,4
16220,-3e-05,-0.00015,-0.00023,0.00016,0.00095,1e-05,2e-05,-8e-05,4,4
16221,-3e-05,-0.00015,-0.00023,0.00016,0.00095,1e-05,2e-05,-8e-05,4,4
16222,-3e-05,-0.00015,-0.00023,0.00016,0.00095,1e-05,2e-05,-8e-05,4,4
16223,-3e-05,-0.00015,-0.00023,0.00016,0.00095,1e-05,2e-05,-8e-05,4,4
16224,-3e-05,-0.00015,-0.00023,0.00016,0.00095,1e-05,2e-05,-8e-05,4,4
16225,-3e-05,-0.00015,-0.00023,0.00016,0.00095,1e-05,2e-05,-8e-05,4,4
16226,-3e-05,-0.00015,-0.00023,0.00016,0.00095,1e-05,2e-05,-8e-05,4,4
16227,-3e-05,-0.00015,-0.00023,0.00016,0.00095,1e-05,2e-05,-8e-05,4,4
16228,-3e-05,-0.00015,-0.00023,0.00016,0.00095,1e-05,2e-05,-8e-05,4,4
16229,-3e-05,-0.00015,-0.00023,0.00016,0.00095,1e-05,2e-05,-8e-05,4,4
16230,-3e-05,-0.00015,-0.00023,0.00016,0.00095,1e-05,2e-05,-8e-05,4,4
16231,6e-05,1e-05,2e-05,0.00014,0.00017,-8e-05,3e-05,5e-05,4,4
16232,-4e-05,0,-2e-05,-0.00037,-0.00074,1e-05,-0.00012,-3e-05,4,4
16233,-4e-05,0,-2e-05,-0.00037,-0.00074,1e-05,-0.00012,-3e-05,4,4
16234,-4e-05,0,-2e-05,-0.00037,-0.00074,1e-05,-0.00012,-3e-05,4,4
16235,-4e-05,0,-2e-05,-0.00037,-0.00074,1e-05,-0.00012,-3e-05,4,4
16236,-4e-05,0,-2e-05,-0.00037,-0.00074,1e-05,-0.00012,-3e-05,4,4
16237,-4e-05,0,-2e-05,-0.00037,-0.00074,1e-05,-0.00012,-3e-05,4,4
16238,-4e-05,0,-2e-05,-0.00037,-0.00074,1e-05,-0.00012,-3e-05,4,4
16239,-4e-05,0,-2e-05,-0.00037,-0.00074,1e-05,-0.00012,-3e-05,4,4
16240,-4e-05,0,-2e-05,-0.00037,-0.00074,1e-05,-0.00012,-3e-05,4,4
16241,-4e-05,0,-2e-05,-0.00037,-0.00074,1e-05,-0.00012,-3e-05,4,4
16242,-4e-05,0,-2e-05,-0.00037,-0.00074,1e-05,-0.00012,-3e-05,4,4
16243,-4e-05,0,-2e-05,-0.00037,-0.00074,1e-05,-0.00012,-3e-05,4,4
16244,-8e-05,-0.00012,-5e-05,0.00011,-0.0006,-5e-05,2e-05,-1e-05,4,4
16245,-8e-05,-0.00012,-5e-05,0.00011,-0.0006,-5e-05,2e-05,-1e-05,4,4
16246,-8e-05,-0.00012,-5e-05,0.00011,-0.0006,-5e-05,2e-05,-1e-05,4,4
16247,-8e-05,-0.00012,-5e-05,0.00011,-0.0006,-5e-05,2e-05,-1e-05,4,4
16248,-8e-05,-0.00012,-5e-05,0.00011,-0.0006,-5e-05,2e-05,-1e-05,4,4
16249,-8e-05,-0.00012,-5e-05,0.00011,-0.0006,-5e-05,2e-05,-1e-05,4,4
16250,-8e-05,-0.00012,-5e-05,0.00011,-0.0006,-5e-05,2e-05,-1e-05,4,4
16251,-8e-05,-0.00012,-5e-05,0.00011,-0.0006,-5e-05,2e-05,-1e-05,4,4
16252,-8e-05,-0.00012,-5e-05,0.00011,-0.0006,-5e-05,2e-05,-1e-05,4,4
16253,-8e-05,-0.00012,-5e-05,0.00011,-0.0006,-5e-05,2e-05,-1e-05,4,4
16254,-2e-05,-9e-05,-0.00016,-0.0006,-0.00064,-0.00015,-2e-05,-1e-05,4,4
16255,-2e-05,-9e-05,-0.00016,-0.0006,-0.00064,-0.00015,-2e-05,-1e-05,4,4
16256,-2e-05,-9e-05,-0.00016,-0.0006,-0.00064,-0.00015,-2e-05,-1e-05,4,4
16257,-2e-05,-9e-05,-0.00016,-0.0006,-0.00064,-0.00015,-2e-05,-1e-05,4,4
16258,-2e-05,-9e-05,-0.00016,-0.0006,-0.00064,-0.00015,-2e-05,-1e-05,4,4
16260,-2e-05,-9e-05,-0.00016,-0.0006,-0.00064,-0.00015,-2e-05,-1e-05,4,4
16261,-2e-05,-9e-05,-0.00016,-0.0006,-0.00064,-0.00015,-2e-05,-1e-05,4,4
16262,-2e-05,-9e-05,-0.00016,-0.0006,-0.00064,-0.00015,-2e-05,-1e-05,4,4
16263,-2e-05,-9e-05,-0.00016,-0.0006,-0.00064,-0.00015,-2e-05,-1e-05,4,4
16264,-2e-05,-9e-05,-0.00016,-0.0006,-0.00064,-0.00015,-2e-05,-1e-05,4,4
16265,-2e-05,-9e-05,-0.00016,-0.0006,-0.00064,-0.00015,-2e-05,-1e-05,4,4
16266,-2e-05,-9e-05,-0.00016,-0.0006,-0.00064,-0.00015,-2e-05,-1e-05,4,4
16267,-2e-05,-9e-05,-0.00016,-0.0006,-0.00064,-0.00015,-2e-05,-1e-05,4,4
16268,-5e-05,0,-6e-05,-0.00036,-0.00061,-8e-05,-5e-05,2e-05,4,4
16269,-5e-05,0,-6e-05,-0.00036,-0.00061,-8e-05,-5e-05,2e-05,4,4
16270,5e-05,0.00012,0.0001,0.00033,0.00069,0.00015,9e-05,2e-05,4,4
16271,5e-05,0.00012,0.0001,0.00033,0.00069,0.00015,9e-05,2e-05,4,4
16272,5e-05,0.00012,0.0001,0.00033,0.00069,0.00015,9e-05,2e-05,4,4
16273,5e-05,0.00012,0.0001,0.00033,0.00069,0.00015,9e-05,2e-05,4,4
16274,5e-05,0.00012,0.0001,0.00033,0.00069,0.00015,9e-05,2e-05,4,4
16275,5e-05,0.00012,0.0001,0.00033,0.00069,0.00015,9e-05,2e-05,4,4
16276,5e-05,0.00012,0.0001,0.00033,0.00069,0.00015,9e-05,2e-05,4,4
16277,5e-05,0.00012,0.0001,0.00033,0.00069,0.00015,9e-05,2e-05,4,4
16278,5e-05,0.00012,0.0001,0.00033,0.00069,0.00015,9e-05,2e-05,4,4
16279,5e-05,0.00012,0.0001,0.00033,0.00069,0.00015,9e-05,2e-05,4,4
16280,5e-05,0.00012,0.0001,0.00033,0.00069,0.00015,9e-05,2e-05,4,4
16281,5e-05,0.00012,0.0001,0.00033,0.00069,0.00015,9e-05,2e-05,4,4
16282,5e-05,0.00012,0.0001,0.00033,0.00069,0.00015,9e-05,2e-05,4,4
16283,5e-05,0.00012,0.0001,0.00033,0.00069,0.00015,9e-05,2e-05,4,4
16284,5e-05,0.00012,0.0001,0.00033,0.00069,0.00015,9e-05,2e-05,4,4
16285,5e-05,0.00012,0.0001,0.00033,0.00069,0.00015,9e-05,2e-05,4,4
16286,5e-05,0.00012,0.0001,0.00033,0.00069,0.00015,9e-05,2e-05,4,4
16287,5e-05,0.00012,0.0001,0.00033,0.00069,0.00015,9e-05,2e-05,4,4
16288,5e-05,0.00012,0.0001,0.00033,0.00069,0.00015,9e-05,2e-05,4,4
16289,5e-05,0.00012,0.0001,0.00033,0.00069,0.00015,9e-05,2e-05,4,4
16290,5e-05,0.00012,0.0001,0.00033,0.00069,0.00015,9e-05,2e-05,4,4
16291,-7e-05,-7e-05,-0.0003,-0.00086,-0.00056,-0.00015,-3e-05,3e-05,4,4
16292,-7e-05,-7e-05,-0.0003,-0.00086,-0.00056,-0.00015,-3e-05,3e-05,4,4
16293,-7e-05,-7e-05,-0.0003,-0.00086,-0.00056,-0.00015,-3e-05,3e-05,4,4
16294,-7e-05,-7e-05,-0.0003,-0.00086,-0.00056,-0.00015,-3e-05,3e-05,4,4
16295,-7e-05,-7e-05,-0.0003,-0.00086,-0.00056,-0.00015,-3e-05,3e-05,4,4
16296,-7e-05,-7e-05,-0.0003,-0.00086,-0.00056,-0.00015,-3e-05,3e-05,4,4
16297,-7e-05,-7e-05,-0.0003,-0.00086,-0.00056,-0.00015,-3e-05,3e-05,4,4
16298,-7e-05,-7e-05,-0.0003,-0.00086,-0.00056,-0.00015,-3e-05,3e-05,4,4
16299,-7e-05,-7e-05,-0.0003,-0.00086,-0.00056,-0.00015,-3e-05,3e-05,4,4
16300,-7e-05,-7e-05,-0.0003,-0.00086,-0.00056,-0.00015,-3e-05,3e-05,4,4
16301,-7e-05,-7e-05,-0.0003,-0.00086,-0.00056,-0.00015,-3e-05,3e-05,4,4
16302,-7e-05,-7e-05,-0.0003,-0.00086,-0.00056,-0.00015,-3e-05,3e-05,4,4
16303,-7e-05,-7e-05,-0.0003,-0.00086,-0.00056,-0.00015,-3e-05,3e-05,4,4
16304,-5e-05,-3e-05,-3e-05,0,-0.00077,0.00011,-4e-05,-7e-05,4,4
16305,-5e-05,-3e-05,-3e-05,0,-0.00077,0.00011,-4e-05,-7e-05,4,4
16306,-5e-05,-3e-05,-3e-05,0,-0.00077,0.00011,-4e-05,-7e-05,4,4
16308,-5e-05,-3e-05,-3e-05,0,-0.00077,0.00011,-4e-05,-7e-05,4,4
16309,-5e-05,-3e-05,-3e-05,0,-0.00077,0.00011,-4e-05,-7e-05,4,4
16310,-5e-05,-3e-05,-3e-05,0,-0.00077,0.00011,-4e-05,-7e-05,4,4
16311,-5e-05,-3e-05,-3e-05,0,-0.00077,0.00011,-4e-05,-7e-05,4,4
16312,-5e-05,-3e-05,-3e-05,0,-0.00077,0.00011,-4e-05,-7e-05,4,4
16313,2e-05,0.0001,0.00021,0.0002,0.00055,0.00011,0,-1e-05,4,4
16314,2e-05,0.0001,0.00021,0.0002,0.00055,0.00011,0,-1e-05,4,4
16315,2e-05,0.0001,0.00021,0.0002,0.00055,0.00011,0,-1e-05,4,4
16316,2e-05,0.0001,0.00021,0.0002,0.00055,0.00011,0,-1e-05,4,4
16317,2e-05,0.0001,0.00021,0.0002,0.00055,0.00011,0,-1e-05,4,4
16318,2e-05,0.0001,0.00021,0.0002,0.00055,0.00011,0,-1e-05,4,4
16319,2e-05,0.0001,0.00021,0.0002,0.00055,0.00011,0,-1e-05,4,4
16320,2e-05,0.0001,0.00021,0.0002,0.00055,0.00011,0,-1e-05,4,4
16321,2e-05,0.0001,0.00021,0.0002,0.00055,0.00011,0,-1e-05,4,4
16322,2e-05,0.0001,0.00021,0.0002,0.00055,0.00011,0,-1e-05,4,4
16323,2e-05,0.0001,0.00021,0.0002,0.00055,0.00011,0,-1e-05,4,4
16324,2e-05,0.0001,0.00021,0.0002,0.00055,0.00011,0,-1e-05,4,4
16325,2e-05,0.0001,0.00021,0.0002,0.00055,0.00011,0,-1e-05,4,4
16326,2e-05,0.0001,0.00021,0.0002,0.00055,0.00011,0,-1e-05,4,4
16327,2e-05,0.0001,0.00021,0.0002,0.00055,0.00011,0,-1e-05,4,4
16328,-2e-05,7e-05,0,-0.00014,-0.00018,-0.00016,-0.0001,-2e-05,4,4
16329,-2e-05,7e-05,0,-0.00014,-0.00018,-0.00016,-0.0001,-2e-05,4,4
16330,-3e-05,-6e-05,1e-05,0.00052,0.00093,0.00028,5e-05,-9e-05,4,4
16331,-3e-05,-6e-05,1e-05,0.00052,0.00093,0.00028,5e-05,-9e-05,4,4
16332,-3e-05,-6e-05,1e-05,0.00052,0.00093,0.00028,5e-05,-9e-05,4,4
16333,-3e-05,-6e-05,1e-05,0.00052,0.00093,0.00028,5e-05,-9e-05,4,4
16334,-3e-05,-6e-05,1e-05,0.00052,0.00093,0.00028,5e-05,-9e-05,4,4
16335,-3e-05,-6e-05,1e-05,0.00052,0.00093,0.00028,5e-05,-9e-05,4,4
16336,-3e-05,-6e-05,1e-05,0.00052,0.00093,0.00028,5e-05,-9e-05,4,4
16337,-3e-05,-6e-05,1e-05,0.00052,0.00093,0.00028,5e-05,-9e-05,4,4
16338,-3e-05,-6e-05,1e-05,0.00052,0.00093,0.00028,5e-05,-9e-05,4,4
16339,-3e-05,-6e-05,1e-05,0.00052,0.00093,0.00028,5e-05,-9e-05,4,4
16340,-3e-05,-6e-05,1e-05,0.00052,0.00093,0.00028,5e-05,-9e-05,4,4
16341,-3e-05,-6e-05,1e-05,0.00052,0.00093,0.00028,5e-05,-9e-05,4,4
16342,-3e-05,-6e-05,1e-05,0.00052,0.00093,0.00028,5e-05,-9e-05,4,4
16343,-3e-05,-6e-05,1e-05,0.00052,0.00093,0.00028,5e-05,-9e-05,4,4
16344,-3e-05,-6e-05,1e-05,0.00052,0.00093,0.00028,5e-05,-9e-05,4,4
16345,-3e-05,-6e-05,1e-05,0.00052,0.00093,0.00028,5e-05,-9e-05,4,4
16346,-3e-05,-6e-05,1e-05,0.00052,0.00093,0.00028,5e-05,-9e-05,4,4
16347,-3e-05,-6e-05,1e-05,0.00052,0.00093,0.00028,5e-05,-9e-05,4,4
16348,-3e-05,-6e-05,1e-05,0.00052,0.00093,0.00028,5e-05,-9e-05,4,4
16349,-3e-05,-6e-05,1e-05,0.00052,0.00093,0.00028,5e-05,-9e-05,4,4
16350,-3e-05,-6e-05,1e-05,0.00052,0.00093,0.00028,5e-05,-9e-05,4,4
16351,3e-05,-3e-05,4e-05,0.00053,0.00095,1e-05,-1e-05,-3e-05,4,4
16352,3e-05,7e-05,0.00011,0.00026,0.00017,-6e-05,-1e-05,4e-05,4,4
16354,3e-05,7e-05,0.00011,0.00026,0.00017,-6e-05,-1e-05,4e-05,4,4
16355,3e-05,7e-05,0.00011,0.00026,0.00017,-6e-05,-1e-05,4e-05,4,4
16356,3e-05,7e-05,0.00011,0.00026,0.00017,-6e-05,-1e-05,4e-05,4,4
16357,3e-05,7e-05,0.00011,0.00026,0.00017,-6e-05,-1e-05,4e-05,4,4
16358,3e-05,7e-05,0.00011,0.00026,0.00017,-6e-05,-1e-05,4e-05,4,4
16359,3e-05,7e-05,0.00011,0.00026,0.00017,-6e-05,-1e-05,4e-05,4,4
16360,3e-05,7e-05,0.00011,0.00026,0.00017,-6e-05,-1e-05,4e-05,4,4
16361,3e-05,7e-05,0.00011,0.00026,0.00017,-6e-05,-1e-05,4e-05,4,4
16362,3e-05,7e-05,0.00011,0.00026,0.00017,-6e-05,-1e-05,4e-05,4,4
16363,3e-05,7e-05,0.00011,0.00026,0.00017,-6e-05,-1e-05,4e-05,4,4
16364,6e-05,9e-05,5e-05,-0.00012,-0.00018,0.00011,4e-05,2e-05,4,4
16365,6e-05,9e-05,5e-05,-0.00012,-0.00018,0.00011,4e-05,2e-05,4,4
16366,6e-05,9e-05,5e-05,-0.00012,-0.00018,0.00011,4e-05,2e-05,4,4
16367,6e-05,9e-05,5e-05,-0.00012,-0.00018,0.00011,4e-05,2e-05,4,4
16368,6e-05,9e-05,5e-05,-0.00012,-0.00018,0.00011,4e-05,2e-05,4,4
16369,6e-05,9e-05,5e-05,-0.00012,-0.00018,0.00011,4e-05,2e-05,4,4
16370,6e-05,9e-05,5e-05,-0.00012,-0.00018,0.00011,4e-05,2e-05,4,4
16371,6e-05,9e-05,5e-05,-0.00012,-0.00018,0.00011,4e-05,2e-05,4,4
16372,6e-05,9e-05,5e-05,-0.00012,-0.00018,0.00011,4e-05,2e-05,4,4
16373,5e-05,2e-05,4e-05,0.00022,-0.00028,3e-05,5e-05,2e-05,4,4
16374,5e-05,2e-05,4e-05,0.00022,-0.00028,3e-05,5e-05,2e-05,4,4
16375,5e-05,2e-05,4e-05,0.00022,-0.00028,3e-05,5e-05,2e-05,4,4
16376,5e-05,2e-05,4e-05,0.00022,-0.00028,3e-05,5e-05,2e-05,4,4
16377,5e-05,2e-05,4e-05,0.00022,-0.00028,3e-05,5e-05,2e-05,4,4
16378,5e-05,2e-05,4e-05,0.00022,-0.00028,3e-05,5e-05,2e-05,4,4
16379,5e-05,2e-05,4e-05,0.00022,-0.00028,3e-05,5e-05,2e-05,4,4
16380,5e-05,2e-05,4e-05,0.00022,-0.00028,3e-05,5e-05,2e-05,4,4
16381,5e-05,2e-05,4e-05,0.00022,-0.00028,3e-05,5e-05,2e-05,4,4
16382,5e-05,2e-05,4e-05,0.00022,-0.00028,3e-05,5e-05,2e-05,4,4
16383,5e-05,2e-05,4e-05,0.00022,-0.00028,3e-05,5e-05,2e-05,4,4
16384,5e-05,2e-05,4e-05,0.00022,-0.00028,3e-05,5e-05,2e-05,4,4
16385,5e-05,2e-05,4e-05,0.00022,-0.00028,3e-05,5e-05,2e-05,4,4
16386,5e-05,2e-05,4e-05,0.00022,-0.00028,3e-05,5e-05,2e-05,4,4
16387,5e-05,2e-05,4e-05,0.00022,-0.00028,3e-05,5e-05,2e-05,4,4
16388,4e-05,7e-05,0.0001,-9e-05,3e-05,-3e-05,1e-05,5e-05,4,4
16389,4e-05,7e-05,0.0001,-9e-05,3e-05,-3e-05,1e-05,5e-05,4,4
16390,3e-05,4e-05,0.00013,7e-05,-0.00047,-1e-05,2e-05,3e-05,4,4
16391,3e-05,4e-05,0.00013,7e-05,-0.00047,-1e-05,2e-05,3e-05,4,4
16392,3e-05,4e-05,0.00013,7e-05,-0.00047,-1e-05,2e-05,3e-05,4,4
16393,3e-05,4e-05,0.00013,7e-05,-0.00047,-1e-05,2e-05,3e-05,4,4
16394,3e-05,4e-05,0.00013,7e-05,-0.00047,-1e-05,2e-05,3e-05,4,4
16395,3e-05,4e-05,0.00013,7e-05,-0.00047,-1e-05,2e-05,3e-05,4,4
16396,3e-05,4e-05,0.00013,7e-05,-0.00047,-1e-05,2e-05,3e-05,4,4
16397,3e-05,4e-05,0.00013,7e-05,-0.00047,-1e-05,2e-05,3e-05,4,4
16398,3e-05,4e-05,0.00013,7e-05,-0.00047,-1e-05,2e-05,3e-05,4,4
16399,3e-05,4e-05,0.00013,7e-05,-0.00047,-1e-05,2e-05,3e-05,4,4
16401,3e-05,4e-05,0.00013,7e-05,-0.00047,-1e-05,2e-05,3e-05,4,4
16402,3e-05,4e-05,0.00013,7e-05,-0.00047,-1e-05,2e-05,3e-05,4,4
16403,3e-05,4e-05,0.00013,7e-05,-0.00047,-1e-05,2e-05,3e-05,4,4
16404,3e-05,4e-05,0.00013,7e-05,-0.00047,-1e-05,2e-05,3e-05,4,4
16405,3e-05,4e-05,0.00013,7e-05,-0.00047,-1e-05,2e-05,3e-05,4,4
16406,3e-05,4e-05,0.00013,7e-05,-0.00047,-1e-05,2e-05,3e-05,4,4
16407,3e-05,4e-05,0.00013,7e-05,-0.00047,-1e-05,2e-05,3e-05,4,4
16408,3e-05,4e-05,0.00013,7e-05,-0.00047,-1e-05,2e-05,3e-05,4,4
16409,3e-05,4e-05,0.00013,7e-05,-0.00047,-1e-05,2e-05,3e-05,4,4
16410,3e-05,4e-05,0.00013,7e-05,-0.00047,-1e-05,2e-05,3e-05,4,4
16411,-1e-05,-1e-05,1e-05,0.00026,0.00015,-4e-05,-1e-05,-1e-05,4,4
16412,-3e-05,-0.0001,-1e-05,0,0.00025,0.00011,-1e-05,-2e-05,4,4
16413,-3e-05,-0.0001,-1e-05,0,0.00025,0.00011,-1e-05,-2e-05,4,4
16414,-3e-05,-0.0001,-1e-05,0,0.00025,0.00011,-1e-05,-2e-05,4,4
16415,-3e-05,-0.0001,-1e-05,0,0.00025,0.00011,-1e-05,-2e-05,4,4
16416,-3e-05,-0.0001,-1e-05,0,0.00025,0.00011,-1e-05,-2e-05,4,4
16417,-3e-05,-0.0001,-1e-05,0,0.00025,0.00011,-1e-05,-2e-05,4,4
16418,-3e-05,-0.0001,-1e-05,0,0.00025,0.00011,-1e-05,-2e-05,4,4
16419,-3e-05,-0.0001,-1e-05,0,0.00025,0.00011,-1e-05,-2e-05,4,4
16420,-3e-05,-0.0001,-1e-05,0,0.00025,0.00011,-1e-05,-2e-05,4,4
16421,-3e-05,-0.0001,-1e-05,0,0.00025,0.00011,-1e-05,-2e-05,4,4
16422,-3e-05,-0.0001,-1e-05,0,0.00025,0.00011,-1e-05,-2e-05,4,4
16423,-3e-05,-0.0001,-1e-05,0,0.00025,0.00011,-1e-05,-2e-05,4,4
16424,-7e-05,-3e-05,-1e-05,-0.00038,-0.00065,-0.00014,-3e-05,1e-05,4,4
16425,-7e-05,-3e-05,-1e-05,-0.00038,-0.00065,-0.00014,-3e-05,1e-05,4,4
16426,-7e-05,-3e-05,-1e-05,-0.00038,-0.00065,-0.00014,-3e-05,1e-05,4,4
16427,-7e-05,-3e-05,-1e-05,-0.00038,-0.00065,-0.00014,-3e-05,1e-05,4,4
16428,-7e-05,-3e-05,-1e-05,-0.00038,-0.00065,-0.00014,-3e-05,1e-05,4,4
16429,-7e-05,-3e-05,-1e-05,-0.00038,-0.00065,-0.00014,-3e-05,1e-05,4,4
16430,-7e-05,-3e-05,-1e-05,-0.00038,-0.00065,-0.00014,-3e-05,1e-05,4,4
16431,-7e-05,-3e-05,-1e-05,-0.00038,-0.00065,-0.00014,-3e-05,1e-05,4,4
16432,-7e-05,-3e-05,-1e-05,-0.00038,-0.00065,-0.00014,-3e-05,1e-05,4,4
16433,1e-05,-1e-05,-9e-05,-0.00013,0.00039,7e-05,3e-05,-4e-05,4,4
16434,1e-05,-1e-05,-9e-05,-0.00013,0.00039,7e-05,3e-05,-4e-05,4,4
16438,1e-05,-1e-05,-9e-05,-0.00013,0.00039,7e-05,3e-05,-4e-05,4,4
16439,1e-05,-1e-05,-9e-05,-0.00013,0.00039,7e-05,3e-05,-4e-05,4,4
16440,1e-05,-1e-05,-9e-05,-0.00013,0.00039,7e-05,3e-05,-4e-05,4,4
16441,1e-05,-1e-05,-9e-05,-0.00013,0.00039,7e-05,3e-05,-4e-05,4,4
16442,1e-05,-1e-05,-9e-05,-0.00013,0.00039,7e-05,3e-05,-4e-05,4,4
16443,1e-05,-1e-05,-9e-05,-0.00013,0.00039,7e-05,3e-05,-4e-05,4,4
16444,1e-05,-1e-05,-9e-05,-0.00013,0.00039,7e-05,3e-05,-4e-05,4,4
16445,1e-05,-1e-05,-9e-05,-0.00013,0.00039,7e-05,3e-05,-4e-05,4,4
16446,1e-05,-1e-05,-9e-05,-0.00013,0.00039,7e-05,3e-05,-4e-05,4,4
16448,4e-05,5e-05,0.00012,-7e-05,-0.00031,-0.00016,-1e-05,1e-05,4,4
16449,4e-05,5e-05,0.00012,-7e-05,-0.00031,-0.00016,-1e-05,1e-05,4,4
16450,-7e-05,-0.00018,-0.00016,-0.00043,-0.00045,-0.00016,-2e-05,-6e-05,4,4
16451,-7e-05,-0.00018,-0.00016,-0.00043,-0.00045,-0.00016,-2e-05,-6e-05,4,4
16452,-7e-05,-0.00018,-0.00016,-0.00043,-0.00045,-0.00016,-2e-05,-6e-05,4,4
16453,-7e-05,-0.00018,-0.00016,-0.00043,-0.00045,-0.00016,-2e-05,-6e-05,4,4
16454,-7e-05,-0.00018,-0.00016,-0.00043,-0.00045,-0.00016,-2e-05,-6e-05,4,4
16455,-7e-05,-0.00018,-0.00016,-0.00043,-0.00045,-0.00016,-2e-05,-6e-05,4,4
16456,-7e-05,-0.00018,-0.00016,-0.00043,-0.00045,-0.00016,-2e-05,-6e-05,4,4
16457,-7e-05,-0.00018,-0.00016,-0.00043,-0.00045,-0.00016,-2e-05,-6e-05,4,4
16458,-7e-05,-0.00018,-0.00016,-0.00043,-0.00045,-0.00016,-2e-05,-6e-05,4,4
16459,-7e-05,-0.00018,-0.00016,-0.00043,-0.00045,-0.00016,-2e-05,-6e-05,4,4
16460,-7e-05,-0.00018,-0.00016,-0.00043,-0.00045,-0.00016,-2e-05,-6e-05,4,4
16461,-7e-05,-0.00018,-0.00016,-0.00043,-0.00045,-0.00016,-2e-05,-6e-05,4,4
16462,-7e-05,-0.00018,-0.00016,-0.00043,-0.00045,-0.00016,-2e-05,-6e-05,4,4
16463,-7e-05,-0.00018,-0.00016,-0.00043,-0.00045,-0.00016,-2e-05,-6e-05,4,4
16464,-7e-05,-0.00018,-0.00016,-0.00043,-0.00045,-0.00016,-2e-05,-6e-05,4,4
16465,-7e-05,-0.00018,-0.00016,-0.00043,-0.00045,-0.00016,-2e-05,-6e-05,4,4
16466,-7e-05,-0.00018,-0.00016,-0.00043,-0.00045,-0.00016,-2e-05,-6e-05,4,4
16467,-7e-05,-0.00018,-0.00016,-0.00043,-0.00045,-0.00016,-2e-05,-6e-05,4,4
16468,-7e-05,-0.00018,-0.00016,-0.00043,-0.00045,-0.00016,-2e-05,-6e-05,4,4
16469,-7e-05,-0.00018,-0.00016,-0.00043,-0.00045,-0.00016,-2e-05,-6e-05,4,4
16470,-7e-05,-0.00018,-0.00016,-0.00043,-0.00045,-0.00016,-2e-05,-6e-05,4,4
16471,-0.00012,-0.00016,-8e-05,-0.00031,-0.00064,-0.00019,-9e-05,-8e-05,4,4
16472,0,9e-05,0.00011,0.00023,0.00016,-0.00014,3e-05,4e-05,4,4
16473,0,9e-05,0.00011,0.00023,0.00016,-0.00014,3e-05,4e-05,4,4
16474,0,9e-05,0.00011,0.00023,0.00016,-0.00014,3e-05,4e-05,4,4
16475,0,9e-05,0.00011,0.00023,0.00016,-0.00014,3e-05,4e-05,4,4
16476,0,9e-05,0.00011,0.00023,0.00016,-0.00014,3e-05,4e-05,4,4
16477,0,9e-05,0.00011,0.00023,0.00016,-0.00014,3e-05,4e-05,4,4
16478,0,9e-05,0.00011,0.00023,0.00016,-0.00014,3e-05,4e-05,4,4
16479,0,9e-05,0.00011,0.00023,0.00016,-0.00014,3e-05,4e-05,4,4
16480,0,9e-05,0.00011,0.00023,0.00016,-0.00014,3e-05,4e-05,4,4
16481,0,9e-05,0.00011,0.00023,0.00016,-0.00014,3e-05,4e-05,4,4
16482,0,9e-05,0.00011,0.00023,0.00016,-0.00014,3e-05,4e-05,4,4
16483,0,9e-05,0.00011,0.00023,0.00016,-0.00014,3e-05,4e-05,4,4
16484,0,9e-05,0.00011,0.00023,0.00016,-0.00014,3e-05,4e-05,4,4
16485,0,9e-05,0.00011,0.00023,0.00016,-0.00014,3e-05,4e-05,4,4
16486,0,9e-05,0.00011,0.00023,0.00016,-0.00014,3e-05,4e-05,4,4
16487,0,9e-05,0.00011,0.00023,0.00016,-0.00014,3e-05,4e-05,4,4
16488,0,9e-05,0.00011,0.00023,0.00016,-0.00014,3e-05,4e-05,4,4
16489,0,9e-05,0.00011,0.00023,0.00016,-0.00014,3e-05,4e-05,4,4
16490,0,9e-05,0.00011,0.00023,0.00016,-0.00014,3e-05,4e-05,4,4
16491,0,9e-05,0.00011,0.00023,0.00016,-0.00014,3e-05,4e-05,4,4
16492,0,9e-05,0.00011,0.00023,0.00016,-0.00014,3e-05,4e-05,4,4
16493,0,-0.0001,-0.00015,6e-05,0.00018,0.00029,5e-05,1e-05,4,4
16495,-2e-05,5e-05,1e-05,0.00013,-0.00019,-4e-05,-8e-05,-1e-05,4,4
16496,-2e-05,5e-05,1e-05,0.00013,-0.00019,-4e-05,-8e-05,-1e-05,4,4
16497,-2e-05,5e-05,1e-05,0.00013,-0.00019,-4e-05,-8e-05,-1e-05,4,4
16498,-2e-05,5e-05,1e-05,0.00013,-0.00019,-4e-05,-8e-05,-1e-05,4,4
16499,-2e-05,5e-05,1e-05,0.00013,-0.00019,-4e-05,-8e-05,-1e-05,4,4
16500,-2e-05,5e-05,1e-05,0.00013,-0.00019,-4e-05,-8e-05,-1e-05,4,4
16501,-2e-05,5e-05,1e-05,0.00013,-0.00019,-4e-05,-8e-05,-1e-05,4,4
16502,-2e-05,5e-05,1e-05,0.00013,-0.00019,-4e-05,-8e-05,-1e-05,4,4
16504,-2e-05,5e-05,1e-05,0.00013,-0.00019,-4e-05,-8e-05,-1e-05,4,4
16505,-2e-05,5e-05,1e-05,0.00013,-0.00019,-4e-05,-8e-05,-1e-05,4,4
16506,-2e-05,5e-05,1e-05,0.00013,-0.00019,-4e-05,-8e-05,-1e-05,4,4
16507,-2e-05,5e-05,1e-05,0.00013,-0.00019,-4e-05,-8e-05,-1e-05,4,4
16508,-2e-05,-3e-05,0.0001,0.00046,0.00066,0.00011,3e-05,-4e-05,4,4
16509,-2e-05,-3e-05,0.0001,0.00046,0.00066,0.00011,3e-05,-4e-05,4,4
16510,-4e-05,-0.00011,-6e-05,-0.00017,-0.00056,-1e-05,-3e-05,0,4,4
16511,-4e-05,-0.00011,-6e-05,-0.00017,-0.00056,-1e-05,-3e-05,0,4,4
16512,-4e-05,-0.00011,-6e-05,-0.00017,-0.00056,-1e-05,-3e-05,0,4,4
16513,-4e-05,-0.00011,-6e-05,-0.00017,-0.00056,-1e-05,-3e-05,0,4,4
16514,-4e-05,-0.00011,-6e-05,-0.00017,-0.00056,-1e-05,-3e-05,0,4,4
16515,-4e-05,-0.00011,-6e-05,-0.00017,-0.00056,-1e-05,-3e-05,0,4,4
16516,-4e-05,-0.00011,-6e-05,-0.00017,-0.00056,-1e-05,-3e-05,0,4,4
16517,-4e-05,-0.00011,-6e-05,-0.00017,-0.00056,-1e-05,-3e-05,0,4,4
16518,-4e-05,-0.00011,-6e-05,-0.00017,-0.00056,-1e-05,-3e-05,0,4,4
16519,-4e-05,-0.00011,-6e-05,-0.00017,-0.00056,-1e-05,-3e-05,0,4,4
16520,-4e-05,-0.00011,-6e-05,-0.00017,-0.00056,-1e-05,-3e-05,0,4,4
16521,-4e-05,-0.00011,-6e-05,-0.00017,-0.00056,-1e-05,-3e-05,0,4,4
16522,-4e-05,-0.00011,-6e-05,-0.00017,-0.00056,-1e-05,-3e-05,0,4,4
16523,-4e-05,-0.00011,-6e-05,-0.00017,-0.00056,-1e-05,-3e-05,0,4,4
16524,-4e-05,-0.00011,-6e-05,-0.00017,-0.00056,-1e-05,-3e-05,0,4,4
16525,-4e-05,-0.00011,-6e-05,-0.00017,-0.00056,-1e-05,-3e-05,0,4,4
16526,-4e-05,-0.00011,-6e-05,-0.00017,-0.00056,-1e-05,-3e-05,0,4,4
16527,-4e-05,-0.00011,-6e-05,-0.00017,-0.00056,-1e-05,-3e-05,0,4,4
16528,-4e-05,-0.00011,-6e-05,-0.00017,-0.00056,-1e-05,-3e-05,0,4,4
16529,-4e-05,-0.00011,-6e-05,-0.00017,-0.00056,-1e-05,-3e-05,0,4,4
16530,-4e-05,-0.00011,-6e-05,-0.00017,-0.00056,-1e-05,-3e-05,0,4,4
16531,1e-05,1e-05,-9e-05,-0.00022,-8e-05,-2e-05,1e-05,1e-05,4,4
16532,3e-05,9e-05,-3e-05,0.00021,0.00079,0.00017,7e-05,0,4,4
16533,3e-05,9e-05,-3e-05,0.00021,0.00079,0.00017,7e-05,0,4,4
16534,3e-05,9e-05,-3e-05,0.00021,0.00079,0.00017,7e-05,0,4,4
16535,3e-05,9e-05,-3e-05,0.00021,0.00079,0.00017,7e-05,0,4,4
16536,3e-05,9e-05,-3e-05,0.00021,0.00079,0.00017,7e-05,0,4,4
16537,3e-05,9e-05,-3e-05,0.00021,0.00079,0.00017,7e-05,0,4,4
16538,3e-05,9e-05,-3e-05,0.00021,0.00079,0.00017,7e-05,0,4,4
16539,3e-05,9e-05,-3e-05,0.00021,0.00079,0.00017,7e-05,0,4,4
16541,3e-05,9e-05,-3e-05,0.00021,0.00079,0.00017,7e-05,0,4,4
16542,3e-05,9e-05,-3e-05,0.00021,0.00079,0.00017,7e-05,0,4,4
16543,3e-05,9e-05,-3e-05,0.00021,0.00079,0.00017,7e-05,0,4,4
16544,3e-05,9e-05,-3e-05,0.00021,0.00079,0.00017,7e-05,0,4,4
16545,3e-05,9e-05,-3e-05,0.00021,0.00079,0.00017,7e-05,0,4,4
16546,3e-05,9e-05,-3e-05,0.00021,0.00079,0.00017,7e-05,0,4,4
16547,3e-05,9e-05,-3e-05,0.00021,0.00079,0.00017,7e-05,0,4,4
16548,3e-05,9e-05,-3e-05,0.00021,0.00079,0.00017,7e-05,0,4,4
16549,3e-05,9e-05,-3e-05,0.00021,0.00079,0.00017,7e-05,0,4,4
16550,3e-05,9e-05,-3e-05,0.00021,0.00079,0.00017,7e-05,0,4,4
16551,3e-05,9e-05,-3e-05,0.00021,0.00079,0.00017,7e-05,0,4,4
16552,3e-05,9e-05,-3e-05,0.00021,0.00079,0.00017,7e-05,0,4,4
16554,-1e-05,-2e-05,-9e-05,-5e-05,-6e-05,-0.00021,-2e-05,-4e-05,4,4
16555,-1e-05,-3e-05,-2e-05,-0.0002,4e-05,-5e-05,-1e-05,-1e-05,4,4
16556,-1e-05,-3e-05,-2e-05,-0.0002,4e-05,-5e-05,-1e-05,-1e-05,4,4
16557,-1e-05,-3e-05,-2e-05,-0.0002,4e-05,-5e-05,-1e-05,-1e-05,4,4
16558,-1e-05,-3e-05,-2e-05,-0.0002,4e-05,-5e-05,-1e-05,-1e-05,4,4
16559,-1e-05,-3e-05,-2e-05,-0.0002,4e-05,-5e-05,-1e-05,-1e-05,4,4
16560,-1e-05,-3e-05,-2e-05,-0.0002,4e-05,-5e-05,-1e-05,-1e-05,4,4
16561,-1e-05,-3e-05,-2e-05,-0.0002,4e-05,-5e-05,-1e-05,-1e-05,4,4
16562,-1e-05,-3e-05,-2e-05,-0.0002,4e-05,-5e-05,-1e-05,-1e-05,4,4
16563,-1e-05,-3e-05,-2e-05,-0.0002,4e-05,-5e-05,-1e-05,-1e-05,4,4
16564,-1e-05,-3e-05,-2e-05,-0.0002,4e-05,-5e-05,-1e-05,-1e-05,4,4
16565,-1e-05,-3e-05,-2e-05,-0.0002,4e-05,-5e-05,-1e-05,-1e-05,4,4
16566,-1e-05,-3e-05,-2e-05,-0.0002,4e-05,-5e-05,-1e-05,-1e-05,4,4
16567,-1e-05,-3e-05,-2e-05,-0.0002,4e-05,-5e-05,-1e-05,-1e-05,4,4
16568,1e-05,-1e-05,-7e-05,-0.00061,-0.0005,-0.00012,-1e-05,0.00011,4,4
16569,1e-05,-1e-05,-7e-05,-0.00061,-0.0005,-0.00012,-1e-05,0.00011,4,4
16570,-3e-05,-3e-05,-3e-05,0.00013,-0.00037,-8e-05,-2e-05,-8e-05,4,4
16571,-3e-05,-3e-05,-3e-05,0.00013,-0.00037,-8e-05,-2e-05,-8e-05,4,4
16572,-3e-05,-3e-05,-3e-05,0.00013,-0.00037,-8e-05,-2e-05,-8e-05,4,4
16573,-3e-05,-3e-05,-3e-05,0.00013,-0.00037,-8e-05,-2e-05,-8e-05,4,4
16574,-3e-05,-3e-05,-3e-05,0.00013,-0.00037,-8e-05,-2e-05,-8e-05,4,4
16575,-3e-05,-3e-05,-3e-05,0.00013,-0.00037,-8e-05,-2e-05,-8e-05,4,4
16576,-3e-05,-3e-05,-3e-05,0.00013,-0.00037,-8e-05,-2e-05,-8e-05,4,4
16577,-3e-05,-3e-05,-3e-05,0.00013,-0.00037,-8e-05,-2e-05,-8e-05,4,4
16578,-3e-05,-3e-05,-3e-05,0.00013,-0.00037,-8e-05,-2e-05,-8e-05,4,4
16579,-3e-05,-3e-05,-3e-05,0.00013,-0.00037,-8e-05,-2e-05,-8e-05,4,4
16580,-3e-05,-3e-05,-3e-05,0.00013,-0.00037,-8e-05,-2e-05,-8e-05,4,4
16581,-3e-05,-3e-05,-3e-05,0.00013,-0.00037,-8e-05,-2e-05,-8e-05,4,4
16582,-3e-05,-3e-05,-3e-05,0.00013,-0.00037,-8e-05,-2e-05,-8e-05,4,4
16583,-3e-05,-3e-05,-3e-05,0.00013,-0.00037,-8e-05,-2e-05,-8e-05,4,4
16584,-3e-05,-3e-05,-3e-05,0.00013,-0.00037,-8e-05,-2e-05,-8e-05,4,4
16585,-3e-05,-3e-05,-3e-05,0.00013,-0.00037,-8e-05,-2e-05,-8e-05,4,4
16586,-3e-05,-3e-05,-3e-05,0.00013,-0.00037,-8e-05,-2e-05,-8e-05,4,4
16589,-3e-05,-3e-05,-3e-05,0.00013,-0.00037,-8e-05,-2e-05,-8e-05,4,4
16590,-3e-05,-3e-05,-3e-05,0.00013,-0.00037,-8e-05,-2e-05,-8e-05,4,4
16591,-3e-05,-1e-05,0,-0.00021,-0.00027,-6e-05,-7e-05,-4e-05,4,4
16592,0,4e-05,-8e-05,1e-05,-0.00021,-0.00019,-4e-05,0,4,4
16593,0,4e-05,-8e-05,1e-05,-0.00021,-0.00019,-4e-05,0,4,4
16594,0,4e-05,-8e-05,1e-05,-0.00021,-0.00019,-4e-05,0,4,4
16595,0,4e-05,-8e-05,1e-05,-0.00021,-0.00019,-4e-05,0,4,4
16596,0,4e-05,-8e-05,1e-05,-0.00021,-0.00019,-4e-05,0,4,4
16597,0,4e-05,-8e-05,1e-05,-0.00021,-0.00019,-4e-05,0,4,4
16598,0,4e-05,-8e-05,1e-05,-0.00021,-0.00019,-4e-05,0,4,4
16599,0,4e-05,-8e-05,1e-05,-0.00021,-0.00019,-4e-05,0,4,4
16600,0,4e-05,-8e-05,1e-05,-0.00021,-0.00019,-4e-05,0,4,4
16601,0,4e-05,-8e-05,1e-05,-0.00021,-0.00019,-4e-05,0,4,4
16602,0,4e-05,-8e-05,1e-05,-0.00021,-0.00019,-4e-05,0,4,4
16604,0,4e-05,-8e-05,1e-05,-0.00021,-0.00019,-4e-05,0,4,4
16605,0,4e-05,-8e-05,1e-05,-0.00021,-0.00019,-4e-05,0,4,4
16606,0,4e-05,-8e-05,1e-05,-0.00021,-0.00019,-4e-05,0,4,4
16607,0,4e-05,-8e-05,1e-05,-0.00021,-0.00019,-4e-05,0,4,4
16608,0,4e-05,-8e-05,1e-05,-0.00021,-0.00019,-4e-05,0,4,4
16609,0,4e-05,-8e-05,1e-05,-0.00021,-0.00019,-4e-05,0,4,4
16610,0,4e-05,-8e-05,1e-05,-0.00021,-0.00019,-4e-05,0,4,4
16611,0,4e-05,-8e-05,1e-05,-0.00021,-0.00019,-4e-05,0,4,4
16612,0,4e-05,-8e-05,1e-05,-0.00021,-0.00019,-4e-05,0,4,4
16613,4e-05,0.00013,9e-05,0.00043,0.00066,4e-05,1e-05,-4e-05,4,4
16614,4e-05,0.00013,9e-05,0.00043,0.00066,4e-05,1e-05,-4e-05,4,4
16615,2e-05,4e-05,0.00025,0.0005,0.00053,7e-05,-5e-05,-1e-05,4,4
16616,2e-05,4e-05,0.00025,0.0005,0.00053,7e-05,-5e-05,-1e-05,4,4
16617,2e-05,4e-05,0.00025,0.0005,0.00053,7e-05,-5e-05,-1e-05,4,4
16618,2e-05,4e-05,0.00025,0.0005,0.00053,7e-05,-5e-05,-1e-05,4,4
16619,2e-05,4e-05,0.00025,0.0005,0.00053,7e-05,-5e-05,-1e-05,4,4
16620,2e-05,4e-05,0.00025,0.0005,0.00053,7e-05,-5e-05,-1e-05,4,4
16621,2e-05,4e-05,0.00025,0.0005,0.00053,7e-05,-5e-05,-1e-05,4,4
16622,2e-05,4e-05,0.00025,0.0005,0.00053,7e-05,-5e-05,-1e-05,4,4
16623,2e-05,4e-05,0.00025,0.0005,0.00053,7e-05,-5e-05,-1e-05,4,4
16624,2e-05,4e-05,0.00025,0.0005,0.00053,7e-05,-5e-05,-1e-05,4,4
16625,2e-05,4e-05,0.00025,0.0005,0.00053,7e-05,-5e-05,-1e-05,4,4
16626,2e-05,4e-05,0.00025,0.0005,0.00053,7e-05,-5e-05,-1e-05,4,4
16627,-0.0001,-0.00025,-0.00062,-0.00069,-4e-05,7e-05,0,-4e-05,4,4
16628,-0.0001,-0.00025,-0.00062,-0.00069,-4e-05,7e-05,0,-4e-05,4,4
16629,-0.0001,-0.00025,-0.00062,-0.00069,-4e-05,7e-05,0,-4e-05,4,4
16630,-0.0001,-0.00025,-0.00062,-0.00069,-4e-05,7e-05,0,-4e-05,4,4
16631,-0.0001,-0.00025,-0.00062,-0.00069,-4e-05,7e-05,0,-4e-05,4,4
16632,-0.0001,-0.00025,-0.00062,-0.00069,-4e-05,7e-05,0,-4e-05,4,4
16634,3e-05,4e-05,-4e-05,-0.00024,-9e-05,-1e-05,-1e-05,2e-05,4,4
16635,3e-05,4e-05,-4e-05,-0.00024,-9e-05,-1e-05,-1e-05,2e-05,4,4
16636,3e-05,4e-05,-4e-05,-0.00024,-9e-05,-1e-05,-1e-05,2e-05,4,4
16637,3e-05,4e-05,-4e-05,-0.00024,-9e-05,-1e-05,-1e-05,2e-05,4,4
16639,3e-05,4e-05,-4e-05,-0.00024,-9e-05,-1e-05,-1e-05,2e-05,4,4
16640,3e-05,4e-05,-4e-05,-0.00024,-9e-05,-1e-05,-1e-05,2e-05,4,4
16641,3e-05,4e-05,-4e-05,-0.00024,-9e-05,-1e-05,-1e-05,2e-05,4,4
16642,3e-05,4e-05,-4e-05,-0.00024,-9e-05,-1e-05,-1e-05,2e-05,4,4
16643,3e-05,4e-05,-4e-05,-0.00024,-9e-05,-1e-05,-1e-05,2e-05,4,4
16644,3e-05,4e-05,-4e-05,-0.00024,-9e-05,-1e-05,-1e-05,2e-05,4,4
16645,3e-05,4e-05,-4e-05,-0.00024,-9e-05,-1e-05,-1e-05,2e-05,4,4
16646,3e-05,4e-05,-4e-05,-0.00024,-9e-05,-1e-05,-1e-05,2e-05,4,4
16647,3e-05,4e-05,-4e-05,-0.00024,-9e-05,-1e-05,-1e-05,2e-05,4,4
16648,3e-05,4e-05,-4e-05,-0.00024,-9e-05,-1e-05,-1e-05,2e-05,4,4
16649,3e-05,4e-05,-4e-05,-0.00024,-9e-05,-1e-05,-1e-05,2e-05,4,4
16650,3e-05,4e-05,-4e-05,-0.00024,-9e-05,-1e-05,-1e-05,2e-05,4,4
16651,-7e-05,-0.00018,-0.00014,-0.00016,0.00067,0.00016,-2e-05,-8e-05,4,4
16652,-0.0001,-9e-05,-0.00012,-0.00018,-0.00026,0.00014,-1e-05,-4e-05,4,4
16654,-0.0001,-9e-05,-0.00012,-0.00018,-0.00026,0.00014,-1e-05,-4e-05,4,4
16655,-0.0001,-9e-05,-0.00012,-0.00018,-0.00026,0.00014,-1e-05,-4e-05,4,4
16656,-0.0001,-9e-05,-0.00012,-0.00018,-0.00026,0.00014,-1e-05,-4e-05,4,4
16657,-0.0001,-9e-05,-0.00012,-0.00018,-0.00026,0.00014,-1e-05,-4e-05,4,4
16658,-0.0001,-9e-05,-0.00012,-0.00018,-0.00026,0.00014,-1e-05,-4e-05,4,4
16659,-0.0001,-9e-05,-0.00012,-0.00018,-0.00026,0.00014,-1e-05,-4e-05,4,4
16660,-0.0001,-9e-05,-0.00012,-0.00018,-0.00026,0.00014,-1e-05,-4e-05,4,4
16661,-0.0001,-9e-05,-0.00012,-0.00018,-0.00026,0.00014,-1e-05,-4e-05,4,4
16662,-0.0001,-9e-05,-0.00012,-0.00018,-0.00026,0.00014,-1e-05,-4e-05,4,4
16663,-0.0001,-9e-05,-0.00012,-0.00018,-0.00026,0.00014,-1e-05,-4e-05,4,4
16664,-0.0001,-9e-05,-0.00012,-0.00018,-0.00026,0.00014,-1e-05,-4e-05,4,4
16666,-0.0001,-9e-05,-0.00012,-0.00018,-0.00026,0.00014,-1e-05,-4e-05,4,4
16667,-0.0001,-9e-05,-0.00012,-0.00018,-0.00026,0.00014,-1e-05,-4e-05,4,4
16668,-0.0001,-9e-05,-0.00012,-0.00018,-0.00026,0.00014,-1e-05,-4e-05,4,4
16669,-0.0001,-9e-05,-0.00012,-0.00018,-0.00026,0.00014,-1e-05,-4e-05,4,4
16670,-0.0001,-9e-05,-0.00012,-0.00018,-0.00026,0.00014,-1e-05,-4e-05,4,4
16671,-0.0001,-9e-05,-0.00012,-0.00018,-0.00026,0.00014,-1e-05,-4e-05,4,4
16672,-0.0001,-9e-05,-0.00012,-0.00018,-0.00026,0.00014,-1e-05,-4e-05,4,4
16673,0.0001,0.00019,0.00024,0.00053,0.00092,0.0003,0.00013,5e-05,4,4
16674,0.0001,0.00019,0.00024,0.00053,0.00092,0.0003,0.00013,5e-05,4,4
16675,-1e-05,2e-05,6e-05,1e-05,-0.00031,-5e-05,-5e-05,0,4,4
16676,-1e-05,2e-05,6e-05,1e-05,-0.00031,-5e-05,-5e-05,0,4,4
16677,-1e-05,2e-05,6e-05,1e-05,-0.00031,-5e-05,-5e-05,0,4,4
16678,-1e-05,2e-05,6e-05,1e-05,-0.00031,-5e-05,-5e-05,0,4,4
16679,-1e-05,2e-05,6e-05,1e-05,-0.00031,-5e-05,-5e-05,0,4,4
16680,-1e-05,2e-05,6e-05,1e-05,-0.00031,-5e-05,-5e-05,0,4,4
16681,-1e-05,2e-05,6e-05,1e-05,-0.00031,-5e-05,-5e-05,0,4,4
16682,-1e-05,2e-05,6e-05,1e-05,-0.00031,-5e-05,-5e-05,0,4,4
16683,-1e-05,2e-05,6e-05,1e-05,-0.00031,-5e-05,-5e-05,0,4,4
16684,-1e-05,2e-05,6e-05,1e-05,-0.00031,-5e-05,-5e-05,0,4,4
16685,-1e-05,2e-05,6e-05,1e-05,-0.00031,-5e-05,-5e-05,0,4,4
16686,-1e-05,2e-05,6e-05,1e-05,-0.00031,-5e-05,-5e-05,0,4,4
16687,-1e-05,2e-05,6e-05,1e-05,-0.00031,-5e-05,-5e-05,0,4,4
16688,0,6e-05,0.0001,0.00061,0.00083,-8e-05,2e-05,-5e-05,4,4
16689,0,6e-05,0.0001,0.00061,0.00083,-8e-05,2e-05,-5e-05,4,4
16690,0,6e-05,0.0001,0.00061,0.00083,-8e-05,2e-05,-5e-05,4,4
16691,0,6e-05,0.0001,0.00061,0.00083,-8e-05,2e-05,-5e-05,4,4
16692,0,6e-05,0.0001,0.00061,0.00083,-8e-05,2e-05,-5e-05,4,4
16693,0,6e-05,0.0001,0.00061,0.00083,-8e-05,2e-05,-5e-05,4,4
16694,3e-05,0.0001,0.00017,0.00028,0.00022,7e-05,2e-05,-4e-05,4,4
16695,3e-05,0.0001,0.00017,0.00028,0.00022,7e-05,2e-05,-4e-05,4,4
16696,3e-05,0.0001,0.00017,0.00028,0.00022,7e-05,2e-05,-4e-05,4,4
16697,3e-05,0.0001,0.00017,0.00028,0.00022,7e-05,2e-05,-4e-05,4,4
16698,3e-05,0.0001,0.00017,0.00028,0.00022,7e-05,2e-05,-4e-05,4,4
16699,3e-05,0.0001,0.00017,0.00028,0.00022,7e-05,2e-05,-4e-05,4,4
16700,3e-05,0.0001,0.00017,0.00028,0.00022,7e-05,2e-05,-4e-05,4,4
16701,3e-05,0.0001,0.00017,0.00028,0.00022,7e-05,2e-05,-4e-05,4,4
16702,3e-05,0.0001,0.00017,0.00028,0.00022,7e-05,2e-05,-4e-05,4,4
16703,3e-05,0.0001,0.00017,0.00028,0.00022,7e-05,2e-05,-4e-05,4,4
16704,3e-05,0.0001,0.00017,0.00028,0.00022,7e-05,2e-05,-4e-05,4,4
16705,3e-05,0.0001,0.00017,0.00028,0.00022,7e-05,2e-05,-4e-05,4,4
16706,3e-05,0.0001,0.00017,0.00028,0.00022,7e-05,2e-05,-4e-05,4,4
16707,3e-05,0.0001,0.00017,0.00028,0.00022,7e-05,2e-05,-4e-05,4,4
16708,3e-05,0.0001,0.00017,0.00028,0.00022,7e-05,2e-05,-4e-05,4,4
16709,3e-05,0.0001,0.00017,0.00028,0.00022,7e-05,2e-05,-4e-05,4,4
16710,3e-05,0.0001,0.00017,0.00028,0.00022,7e-05,2e-05,-4e-05,4,4
16712,-2e-05,-0.00011,-0.00018,-0.00038,-0.00058,-0.00066,-0.00015,-2e-05,4,4
16713,-2e-05,-3e-05,-0.0001,-0.00023,-0.00089,-0.00013,-5e-05,0,4,4
16714,-2e-05,-3e-05,-0.0001,-0.00023,-0.00089,-0.00013,-5e-05,0,4,4
16715,-2e-05,-3e-05,-0.0001,-0.00023,-0.00089,-0.00013,-5e-05,0,4,4
16716,-2e-05,-3e-05,-0.0001,-0.00023,-0.00089,-0.00013,-5e-05,0,4,4
16717,-2e-05,-3e-05,-0.0001,-0.00023,-0.00089,-0.00013,-5e-05,0,4,4
16718,-2e-05,-3e-05,-0.0001,-0.00023,-0.00089,-0.00013,-5e-05,0,4,4
16719,-2e-05,-3e-05,-0.0001,-0.00023,-0.00089,-0.00013,-5e-05,0,4,4
16720,-2e-05,-3e-05,-0.0001,-0.00023,-0.00089,-0.00013,-5e-05,0,4,4
16721,-2e-05,-3e-05,-0.0001,-0.00023,-0.00089,-0.00013,-5e-05,0,4,4
16722,-2e-05,-3e-05,-0.0001,-0.00023,-0.00089,-0.00013,-5e-05,0,4,4
16723,-2e-05,-3e-05,-0.0001,-0.00023,-0.00089,-0.00013,-5e-05,0,4,4
16724,-2e-05,-3e-05,-0.0001,-0.00023,-0.00089,-0.00013,-5e-05,0,4,4
16725,-2e-05,-3e-05,-0.0001,-0.00023,-0.00089,-0.00013,-5e-05,0,4,4
16726,-2e-05,-3e-05,-0.0001,-0.00023,-0.00089,-0.00013,-5e-05,0,4,4
16727,-2e-05,-3e-05,-0.0001,-0.00023,-0.00089,-0.00013,-5e-05,0,4,4
16728,-2e-05,-3e-05,-0.0001,-0.00023,-0.00089,-0.00013,-5e-05,0,4,4
16729,-2e-05,-3e-05,-0.0001,-0.00023,-0.00089,-0.00013,-5e-05,0,4,4
16730,-2e-05,-3e-05,-0.0001,-0.00023,-0.00089,-0.00013,-5e-05,0,4,4
16731,-2e-05,-3e-05,-0.0001,-0.00023,-0.00089,-0.00013,-5e-05,0,4,4
16732,-2e-05,-3e-05,-0.0001,-0.00023,-0.00089,-0.00013,-5e-05,0,4,4
16733,-5e-05,-0.0001,-6e-05,-0.0005,-0.001,2e-05,1e-05,5e-05,4,4
16734,-5e-05,-0.0001,-6e-05,-0.0005,-0.001,2e-05,1e-05,5e-05,4,4
16735,1e-05,1e-05,4e-05,0.00018,0.00047,-0.00022,-1e-05,1e-05,4,4
16736,1e-05,1e-05,4e-05,0.00018,0.00047,-0.00022,-1e-05,1e-05,4,4
16737,1e-05,1e-05,4e-05,0.00018,0.00047,-0.00022,-1e-05,1e-05,4,4
16738,1e-05,1e-05,4e-05,0.00018,0.00047,-0.00022,-1e-05,1e-05,4,4
16739,1e-05,1e-05,4e-05,0.00018,0.00047,-0.00022,-1e-05,1e-05,4,4
16740,1e-05,1e-05,4e-05,0.00018,0.00047,-0.00022,-1e-05,1e-05,4,4
16741,1e-05,1e-05,4e-05,0.00018,0.00047,-0.00022,-1e-05,1e-05,4,4
16742,1e-05,1e-05,4e-05,0.00018,0.00047,-0.00022,-1e-05,1e-05,4,4
16743,1e-05,1e-05,4e-05,0.00018,0.00047,-0.00022,-1e-05,1e-05,4,4
16744,1e-05,1e-05,4e-05,0.00018,0.00047,-0.00022,-1e-05,1e-05,4,4
16745,1e-05,1e-05,4e-05,0.00018,0.00047,-0.00022,-1e-05,1e-05,4,4
16746,1e-05,1e-05,4e-05,0.00018,0.00047,-0.00022,-1e-05,1e-05,4,4
16747,-2e-05,-1e-05,-2e-05,0.00013,0.00017,1e-05,-1e-05,-4e-05,4,4
16748,-2e-05,-1e-05,-2e-05,0.00013,0.00017,1e-05,-1e-05,-4e-05,4,4
16749,-2e-05,-1e-05,-2e-05,0.00013,0.00017,1e-05,-1e-05,-4e-05,4,4
16750,-2e-05,-1e-05,-2e-05,0.00013,0.00017,1e-05,-1e-05,-4e-05,4,4
16751,-2e-05,-1e-05,-2e-05,0.00013,0.00017,1e-05,-1e-05,-4e-05,4,4
16752,-2e-05,-1e-05,-2e-05,0.00013,0.00017,1e-05,-1e-05,-4e-05,4,4
16753,-2e-05,-1e-05,-2e-05,0.00013,0.00017,1e-05,-1e-05,-4e-05,4,4
16754,-3e-05,-8e-05,-0.00013,-0.00041,0.00042,1e-05,-2e-05,-1e-05,4,4
16755,-3e-05,-8e-05,-0.00013,-0.00041,0.00042,1e-05,-2e-05,-1e-05,4,4
16756,-3e-05,-8e-05,-0.00013,-0.00041,0.00042,1e-05,-2e-05,-1e-05,4,4
16757,-3e-05,-8e-05,-0.00013,-0.00041,0.00042,1e-05,-2e-05,-1e-05,4,4
16758,-3e-05,-8e-05,-0.00013,-0.00041,0.00042,1e-05,-2e-05,-1e-05,4,4
16760,-3e-05,-8e-05,-0.00013,-0.00041,0.00042,1e-05,-2e-05,-1e-05,4,4
16761,-3e-05,-8e-05,-0.00013,-0.00041,0.00042,1e-05,-2e-05,-1e-05,4,4
16762,-3e-05,-8e-05,-0.00013,-0.00041,0.00042,1e-05,-2e-05,-1e-05,4,4
16763,-3e-05,-8e-05,-0.00013,-0.00041,0.00042,1e-05,-2e-05,-1e-05,4,4
16764,-3e-05,-8e-05,-0.00013,-0.00041,0.00042,1e-05,-2e-05,-1e-05,4,4
16765,-3e-05,-8e-05,-0.00013,-0.00041,0.00042,1e-05,-2e-05,-1e-05,4,4
16766,-3e-05,-8e-05,-0.00013,-0.00041,0.00042,1e-05,-2e-05,-1e-05,4,4
16767,-3e-05,-8e-05,-0.00013,-0.00041,0.00042,1e-05,-2e-05,-1e-05,4,4
16768,-3e-05,-8e-05,-0.00013,-0.00041,0.00042,1e-05,-2e-05,-1e-05,4,4
16769,-3e-05,-8e-05,-0.00013,-0.00041,0.00042,1e-05,-2e-05,-1e-05,4,4
16770,-4e-05,-7e-05,-7e-05,-0.00032,-0.00037,-0.0001,-8e-05,-3e-05,4,4
16771,-4e-05,-7e-05,-7e-05,-0.00032,-0.00037,-0.0001,-8e-05,-3e-05,4,4
16772,-5e-05,-5e-05,6e-05,9e-05,-0.00049,5e-05,-5e-05,-3e-05,4,4
16773,-5e-05,-5e-05,6e-05,9e-05,-0.00049,5e-05,-5e-05,-3e-05,4,4
16774,-5e-05,-5e-05,6e-05,9e-05,-0.00049,5e-05,-5e-05,-3e-05,4,4
16775,-5e-05,-5e-05,6e-05,9e-05,-0.00049,5e-05,-5e-05,-3e-05,4,4
16776,-5e-05,-5e-05,6e-05,9e-05,-0.00049,5e-05,-5e-05,-3e-05,4,4
16777,-5e-05,-5e-05,6e-05,9e-05,-0.00049,5e-05,-5e-05,-3e-05,4,4
16778,-5e-05,-5e-05,6e-05,9e-05,-0.00049,5e-05,-5e-05,-3e-05,4,4
16779,-5e-05,-5e-05,6e-05,9e-05,-0.00049,5e-05,-5e-05,-3e-05,4,4
16780,-5e-05,-5e-05,6e-05,9e-05,-0.00049,5e-05,-5e-05,-3e-05,4,4
16781,-5e-05,-5e-05,6e-05,9e-05,-0.00049,5e-05,-5e-05,-3e-05,4,4
16782,-5e-05,-5e-05,6e-05,9e-05,-0.00049,5e-05,-5e-05,-3e-05,4,4
16783,-5e-05,-5e-05,6e-05,9e-05,-0.00049,5e-05,-5e-05,-3e-05,4,4
16784,-5e-05,-5e-05,6e-05,9e-05,-0.00049,5e-05,-5e-05,-3e-05,4,4
16785,-5e-05,-5e-05,6e-05,9e-05,-0.00049,5e-05,-5e-05,-3e-05,4,4
16786,-5e-05,-5e-05,6e-05,9e-05,-0.00049,5e-05,-5e-05,-3e-05,4,4
16787,-5e-05,-5e-05,6e-05,9e-05,-0.00049,5e-05,-5e-05,-3e-05,4,4
16788,-5e-05,-5e-05,6e-05,9e-05,-0.00049,5e-05,-5e-05,-3e-05,4,4
16789,-5e-05,-5e-05,6e-05,9e-05,-0.00049,5e-05,-5e-05,-3e-05,4,4
16790,-5e-05,-5e-05,6e-05,9e-05,-0.00049,5e-05,-5e-05,-3e-05,4,4
16791,-5e-05,-5e-05,6e-05,9e-05,-0.00049,5e-05,-5e-05,-3e-05,4,4
16792,-5e-05,-5e-05,6e-05,9e-05,-0.00049,5e-05,-5e-05,-3e-05,4,4
16793,7e-05,0.00016,0.00026,0.0004,0.00013,0.00032,6e-05,0,4,4
16794,7e-05,0.00016,0.00026,0.0004,0.00013,0.00032,6e-05,0,4,4
16795,0,-6e-05,-1e-05,0.0001,-0.0001,0.00013,5e-05,2e-05,4,4
16796,0,-6e-05,-1e-05,0.0001,-0.0001,0.00013,5e-05,2e-05,4,4
16797,0,-6e-05,-1e-05,0.0001,-0.0001,0.00013,5e-05,2e-05,4,4
16798,0,-6e-05,-1e-05,0.0001,-0.0001,0.00013,5e-05,2e-05,4,4
16799,0,-6e-05,-1e-05,0.0001,-0.0001,0.00013,5e-05,2e-05,4,4
16800,0,-6e-05,-1e-05,0.0001,-0.0001,0.00013,5e-05,2e-05,4,4
16801,0,-6e-05,-1e-05,0.0001,-0.0001,0.00013,5e-05,2e-05,4,4
16802,0,-6e-05,-1e-05,0.0001,-0.0001,0.00013,5e-05,2e-05,4,4
16803,0,-6e-05,-1e-05,0.0001,-0.0001,0.00013,5e-05,2e-05,4,4
16804,0,-6e-05,-1e-05,0.0001,-0.0001,0.00013,5e-05,2e-05,4,4
16805,0,-6e-05,-1e-05,0.0001,-0.0001,0.00013,5e-05,2e-05,4,4
16807,0.00013,0.00012,0.00025,0.00072,0.00054,0.00029,0.00013,5e-05,4,4
16808,0.00013,0.00012,0.00025,0.00072,0.00054,0.00029,0.00013,5e-05,4,4
16809,0.00013,0.00012,0.00025,0.00072,0.00054,0.00029,0.00013,5e-05,4,4
16810,0.00013,0.00012,0.00025,0.00072,0.00054,0.00029,0.00013,5e-05,4,4
16811,0.00013,0.00012,0.00025,0.00072,0.00054,0.00029,0.00013,5e-05,4,4
16812,0.00013,0.00012,0.00025,0.00072,0.00054,0.00029,0.00013,5e-05,4,4
16813,0.00013,0.00012,0.00025,0.00072,0.00054,0.00029,0.00013,5e-05,4,4
16814,0,0,-9e-05,-7e-05,-0.00038,0.00017,2e-05,-1e-05,4,4
16815,0,0,-9e-05,-7e-05,-0.00038,0.00017,2e-05,-1e-05,4,4
16816,0,0,-9e-05,-7e-05,-0.00038,0.00017,2e-05,-1e-05,4,4
16817,0,0,-9e-05,-7e-05,-0.00038,0.00017,2e-05,-1e-05,4,4
16818,0,0,-9e-05,-7e-05,-0.00038,0.00017,2e-05,-1e-05,4,4
16819,0,0,-9e-05,-7e-05,-0.00038,0.00017,2e-05,-1e-05,4,4
16820,0,0,-9e-05,-7e-05,-0.00038,0.00017,2e-05,-1e-05,4,4
16821,0,0,-9e-05,-7e-05,-0.00038,0.00017,2e-05,-1e-05,4,4
16822,0,0,-9e-05,-7e-05,-0.00038,0.00017,2e-05,-1e-05,4,4
16823,0,0,-9e-05,-7e-05,-0.00038,0.00017,2e-05,-1e-05,4,4
16824,0,0,-9e-05,-7e-05,-0.00038,0.00017,2e-05,-1e-05,4,4
16825,0,0,-9e-05,-7e-05,-0.00038,0.00017,2e-05,-1e-05,4,4
16826,0,0,-9e-05,-7e-05,-0.00038,0.00017,2e-05,-1e-05,4,4
16827,0,0,-9e-05,-7e-05,-0.00038,0.00017,2e-05,-1e-05,4,4
16828,0,0,-9e-05,-7e-05,-0.00038,0.00017,2e-05,-1e-05,4,4
16829,0,0,-9e-05,-7e-05,-0.00038,0.00017,2e-05,-1e-05,4,4
16830,0,0,-9e-05,-7e-05,-0.00038,0.00017,2e-05,-1e-05,4,4
16831,0,0,-9e-05,-7e-05,-0.00038,0.00017,2e-05,-1e-05,4,4
16832,3e-05,1e-05,-4e-05,0.00015,-0.00029,8e-05,-2e-05,2e-05,4,4
16833,3e-05,1e-05,-4e-05,0.00015,-0.00029,8e-05,-2e-05,2e-05,4,4
16834,3e-05,1e-05,-4e-05,0.00015,-0.00029,8e-05,-2e-05,2e-05,4,4
16835,3e-05,1e-05,-4e-05,0.00015,-0.00029,8e-05,-2e-05,2e-05,4,4
16836,3e-05,1e-05,-4e-05,0.00015,-0.00029,8e-05,-2e-05,2e-05,4,4
16837,3e-05,1e-05,-4e-05,0.00015,-0.00029,8e-05,-2e-05,2e-05,4,4
16838,3e-05,1e-05,-4e-05,0.00015,-0.00029,8e-05,-2e-05,2e-05,4,4
16839,3e-05,1e-05,-4e-05,0.00015,-0.00029,8e-05,-2e-05,2e-05,4,4
16840,3e-05,1e-05,-4e-05,0.00015,-0.00029,8e-05,-2e-05,2e-05,4,4
16841,3e-05,1e-05,-4e-05,0.00015,-0.00029,8e-05,-2e-05,2e-05,4,4
16842,3e-05,1e-05,-4e-05,0.00015,-0.00029,8e-05,-2e-05,2e-05,4,4
16843,3e-05,1e-05,-4e-05,0.00015,-0.00029,8e-05,-2e-05,2e-05,4,4
16844,3e-05,1e-05,-4e-05,0.00015,-0.00029,8e-05,-2e-05,2e-05,4,4
16845,3e-05,1e-05,-4e-05,0.00015,-0.00029,8e-05,-2e-05,2e-05,4,4
16846,3e-05,1e-05,-4e-05,0.00015,-0.00029,8e-05,-2e-05,2e-05,4,4
16847,3e-05,1e-05,-4e-05,0.00015,-0.00029,8e-05,-2e-05,2e-05,4,4
16848,3e-05,1e-05,-4e-05,0.00015,-0.00029,8e-05,-2e-05,2e-05,4,4
16849,3e-05,1e-05,-4e-05,0.00015,-0.00029,8e-05,-2e-05,2e-05,4,4
16850,3e-05,1e-05,-4e-05,0.00015,-0.00029,8e-05,-2e-05,2e-05,4,4
16851,3e-05,1e-05,-4e-05,0.00015,-0.00029,8e-05,-2e-05,2e-05,4,4
16853,3e-05,1e-05,-4e-05,0.00015,-0.00029,8e-05,-2e-05,2e-05,4,4
16854,-5e-05,3e-05,0.00012,-0.00017,-0.00079,-1e-05,-5e-05,-1e-05,4,4
16855,-4e-05,-5e-05,5e-05,-0.0002,-0.00038,-0.0001,-4e-05,0,4,4
16856,-4e-05,-5e-05,5e-05,-0.0002,-0.00038,-0.0001,-4e-05,0,4,4
16857,-4e-05,-5e-05,5e-05,-0.0002,-0.00038,-0.0001,-4e-05,0,4,4
16858,-4e-05,-5e-05,5e-05,-0.0002,-0.00038,-0.0001,-4e-05,0,4,4
16859,-4e-05,-5e-05,5e-05,-0.0002,-0.00038,-0.0001,-4e-05,0,4,4
16860,-4e-05,-5e-05,5e-05,-0.0002,-0.00038,-0.0001,-4e-05,0,4,4
16861,-4e-05,-5e-05,5e-05,-0.0002,-0.00038,-0.0001,-4e-05,0,4,4
16862,-4e-05,-5e-05,5e-05,-0.0002,-0.00038,-0.0001,-4e-05,0,4,4
16863,-4e-05,-5e-05,5e-05,-0.0002,-0.00038,-0.0001,-4e-05,0,4,4
16864,-4e-05,-5e-05,5e-05,-0.0002,-0.00038,-0.0001,-4e-05,0,4,4
16865,-4e-05,-5e-05,5e-05,-0.0002,-0.00038,-0.0001,-4e-05,0,4,4
16866,-4e-05,-5e-05,5e-05,-0.0002,-0.00038,-0.0001,-4e-05,0,4,4
16867,-7e-05,-5e-05,-0.00021,-0.00056,-0.00047,8e-05,-8e-05,-5e-05,4,4
16868,-7e-05,-5e-05,-0.00021,-0.00056,-0.00047,8e-05,-8e-05,-5e-05,4,4
16869,-7e-05,-5e-05,-0.00021,-0.00056,-0.00047,8e-05,-8e-05,-5e-05,4,4
16870,-7e-05,-5e-05,-0.00021,-0.00056,-0.00047,8e-05,-8e-05,-5e-05,4,4
16871,-7e-05,-5e-05,-0.00021,-0.00056,-0.00047,8e-05,-8e-05,-5e-05,4,4
16872,-7e-05,-5e-05,-0.00021,-0.00056,-0.00047,8e-05,-8e-05,-5e-05,4,4
16873,-7e-05,-5e-05,-0.00021,-0.00056,-0.00047,8e-05,-8e-05,-5e-05,4,4
16874,-2e-05,-7e-05,-4e-05,-8e-05,-4e-05,-9e-05,1e-05,-2e-05,4,4
16875,-2e-05,-7e-05,-4e-05,-8e-05,-4e-05,-9e-05,1e-05,-2e-05,4,4
16876,-2e-05,-7e-05,-4e-05,-8e-05,-4e-05,-9e-05,1e-05,-2e-05,4,4
16877,-2e-05,-7e-05,-4e-05,-8e-05,-4e-05,-9e-05,1e-05,-2e-05,4,4
16878,-2e-05,-7e-05,-4e-05,-8e-05,-4e-05,-9e-05,1e-05,-2e-05,4,4
16879,-2e-05,-7e-05,-4e-05,-8e-05,-4e-05,-9e-05,1e-05,-2e-05,4,4
16880,-2e-05,-7e-05,-4e-05,-8e-05,-4e-05,-9e-05,1e-05,-2e-05,4,4
16881,-2e-05,-7e-05,-4e-05,-8e-05,-4e-05,-9e-05,1e-05,-2e-05,4,4
16882,-2e-05,-7e-05,-4e-05,-8e-05,-4e-05,-9e-05,1e-05,-2e-05,4,4
16883,-2e-05,-7e-05,-4e-05,-8e-05,-4e-05,-9e-05,1e-05,-2e-05,4,4
