15246,-6e-05,-0.00022,-0.00019,-0.00051,-0.00062,-0.00028,-0.00019,-0.00014,4,6
15247,-6e-05,-0.00022,-0.00019,-0.00051,-0.00062,-0.00028,-0.00019,-0.00014,4,6
15248,-6e-05,-0.00022,-0.00019,-0.00051,-0.00062,-0.00028,-0.00019,-0.00014,4,6
15249,-6e-05,-0.00022,-0.00019,-0.00051,-0.00062,-0.00028,-0.00019,-0.00014,4,6
15250,-6e-05,-0.00022,-0.00019,-0.00051,-0.00062,-0.00028,-0.00019,-0.00014,4,6
15251,-6e-05,-0.00022,-0.00019,-0.00051,-0.00062,-0.00028,-0.00019,-0.00014,4,6
15252,-6e-05,-0.00022,-0.00019,-0.00051,-0.00062,-0.00028,-0.00019,-0.00014,4,6
15253,-6e-05,-0.00022,-0.00019,-0.00051,-0.00062,-0.00028,-0.00019,-0.00014,4,6
15254,-6e-05,-0.00022,-0.00019,-0.00051,-0.00062,-0.00028,-0.00019,-0.00014,4,6
15255,-6e-05,-0.00022,-0.00019,-0.00051,-0.00062,-0.00028,-0.00019,-0.00014,4,6
15256,-6e-05,-0.00022,-0.00019,-0.00051,-0.00062,-0.00028,-0.00019,-0.00014,4,6
15257,-6e-05,-0.00022,-0.00019,-0.00051,-0.00062,-0.00028,-0.00019,-0.00014,4,6
15258,-0.00014,-0.00024,-0.0003,-0.00035,-0.0003,-0.00049,-0.00026,-0.00031,4,6
15259,0,0,0.0001,6e-05,-0.00039,-0.00018,-5e-05,-0.00011,4,6
15260,0,0,0.0001,6e-05,-0.00039,-0.00018,-5e-05,-0.00011,4,6
15261,0,0,0.0001,6e-05,-0.00039,-0.00018,-5e-05,-0.00011,4,6
15262,0,0,0.0001,6e-05,-0.00039,-0.00018,-5e-05,-0.00011,4,6
15263,0,0,0.0001,6e-05,-0.00039,-0.00018,-5e-05,-0.00011,4,6
15264,0,0,0.0001,6e-05,-0.00039,-0.00018,-5e-05,-0.00011,4,6
15265,0,0,0.0001,6e-05,-0.00039,-0.00018,-5e-05,-0.00011,4,6
15266,0,0,0.0001,6e-05,-0.00039,-0.00018,-5e-05,-0.00011,4,6
15267,0,0,0.0001,6e-05,-0.00039,-0.00018,-5e-05,-0.00011,4,6
15268,0,0,0.0001,6e-05,-0.00039,-0.00018,-5e-05,-0.00011,4,6
15269,0,0,0.0001,6e-05,-0.00039,-0.00018,-5e-05,-0.00011,4,6
15270,0,0,0.0001,6e-05,-0.00039,-0.00018,-5e-05,-0.00011,4,6
15271,0,0,0.0001,6e-05,-0.00039,-0.00018,-5e-05,-0.00011,4,6
15272,0,0,0.0001,6e-05,-0.00039,-0.00018,-5e-05,-0.00011,4,6
15273,0,0,0.0001,6e-05,-0.00039,-0.00018,-5e-05,-0.00011,4,6
15274,0,0,0.0001,6e-05,-0.00039,-0.00018,-5e-05,-0.00011,4,6
15275,0,0,0.0001,6e-05,-0.00039,-0.00018,-5e-05,-0.00011,4,6
15276,0,0,0.0001,6e-05,-0.00039,-0.00018,-5e-05,-0.00011,4,6
15277,0,0,0.0001,6e-05,-0.00039,-0.00018,-5e-05,-0.00011,4,6
15278,0,0,0.0001,6e-05,-0.00039,-0.00018,-5e-05,-0.00011,4,6
15279,0,0,0.0001,6e-05,-0.00039,-0.00018,-5e-05,-0.00011,4,6
15280,0,5e-05,2e-05,0.00062,-7e-05,-0.00019,-7e-05,-9e-05,4,6
15281,0,5e-05,2e-05,0.00062,-7e-05,-0.00019,-7e-05,-9e-05,4,6
15282,0,5e-05,2e-05,0.00062,-7e-05,-0.00019,-7e-05,-9e-05,4,6
15283,0,5e-05,2e-05,0.00062,-7e-05,-0.00019,-7e-05,-9e-05,4,6
15284,0,5e-05,2e-05,0.00062,-7e-05,-0.00019,-7e-05,-9e-05,4,6
15285,0,5e-05,2e-05,0.00062,-7e-05,-0.00019,-7e-05,-9e-05,4,6
15286,0,5e-05,2e-05,0.00062,-7e-05,-0.00019,-7e-05,-9e-05,4,6
15288,4e-05,0.00012,0.00014,0.00064,0.00033,0.00025,0.00014,6e-05,4,6
15289,4e-05,0.00012,0.00014,0.00064,0.00033,0.00025,0.00014,6e-05,4,6
15290,4e-05,0.00012,0.00014,0.00064,0.00033,0.00025,0.00014,6e-05,4,6
15291,4e-05,0.00012,0.00014,0.00064,0.00033,0.00025,0.00014,6e-05,4,6
15292,4e-05,0.00012,0.00014,0.00064,0.00033,0.00025,0.00014,6e-05,4,6
15293,4e-05,0.00012,0.00014,0.00064,0.00033,0.00025,0.00014,6e-05,4,6
15294,4e-05,0.00012,0.00014,0.00064,0.00033,0.00025,0.00014,6e-05,4,6
15295,6e-05,0.00021,0.00017,-0.00064,-0.0007,-0.00018,2e-05,-2e-05,4,6
15296,6e-05,0.00021,0.00017,-0.00064,-0.0007,-0.00018,2e-05,-2e-05,4,6
15297,-5e-05,-8e-05,-0.00019,-0.0006,-0.00027,-5e-05,-8e-05,-2e-05,4,6
15298,-5e-05,-8e-05,-0.00019,-0.0006,-0.00027,-5e-05,-8e-05,-2e-05,4,6
15299,-5e-05,-8e-05,-0.00019,-0.0006,-0.00027,-5e-05,-8e-05,-2e-05,4,6
15300,-5e-05,-8e-05,-0.00019,-0.0006,-0.00027,-5e-05,-8e-05,-2e-05,4,6
15301,-5e-05,-8e-05,-0.00019,-0.0006,-0.00027,-5e-05,-8e-05,-2e-05,4,6
15302,-5e-05,-8e-05,-0.00019,-0.0006,-0.00027,-5e-05,-8e-05,-2e-05,4,6
15303,-5e-05,-8e-05,-0.00019,-0.0006,-0.00027,-5e-05,-8e-05,-2e-05,4,6
15304,-5e-05,-8e-05,-0.00019,-0.0006,-0.00027,-5e-05,-8e-05,-2e-05,4,6
15305,-5e-05,-8e-05,-0.00019,-0.0006,-0.00027,-5e-05,-8e-05,-2e-05,4,6
15306,-5e-05,-8e-05,-0.00019,-0.0006,-0.00027,-5e-05,-8e-05,-2e-05,4,6
15307,-5e-05,-8e-05,-0.00019,-0.0006,-0.00027,-5e-05,-8e-05,-2e-05,4,6
15308,-5e-05,-8e-05,-0.00019,-0.0006,-0.00027,-5e-05,-8e-05,-2e-05,4,6
15309,-2e-05,-7e-05,7e-05,0.0006,9e-05,-4e-05,4e-05,-1e-05,4,6
15310,3e-05,8e-05,0.00019,7e-05,-0.00042,1e-05,2e-05,7e-05,4,6
15311,3e-05,8e-05,0.00019,7e-05,-0.00042,1e-05,2e-05,7e-05,4,6
15312,3e-05,8e-05,0.00019,7e-05,-0.00042,1e-05,2e-05,7e-05,4,6
15313,3e-05,8e-05,0.00019,7e-05,-0.00042,1e-05,2e-05,7e-05,4,6
15314,3e-05,8e-05,0.00019,7e-05,-0.00042,1e-05,2e-05,7e-05,4,6
15315,3e-05,8e-05,0.00019,7e-05,-0.00042,1e-05,2e-05,7e-05,4,6
15316,3e-05,8e-05,0.00019,7e-05,-0.00042,1e-05,2e-05,7e-05,4,6
15317,3e-05,8e-05,0.00019,7e-05,-0.00042,1e-05,2e-05,7e-05,4,6
15318,3e-05,8e-05,0.00019,7e-05,-0.00042,1e-05,2e-05,7e-05,4,6
15319,3e-05,8e-05,0.00019,7e-05,-0.00042,1e-05,2e-05,7e-05,4,6
15320,3e-05,8e-05,0.00019,7e-05,-0.00042,1e-05,2e-05,7e-05,4,6
15321,3e-05,8e-05,0.00019,7e-05,-0.00042,1e-05,2e-05,7e-05,4,6
15322,3e-05,8e-05,0.00019,7e-05,-0.00042,1e-05,2e-05,7e-05,4,6
15323,3e-05,8e-05,0.00019,7e-05,-0.00042,1e-05,2e-05,7e-05,4,6
15324,3e-05,8e-05,0.00019,7e-05,-0.00042,1e-05,2e-05,7e-05,4,6
15325,3e-05,8e-05,0.00019,7e-05,-0.00042,1e-05,2e-05,7e-05,4,6
15326,3e-05,8e-05,0.00019,7e-05,-0.00042,1e-05,2e-05,7e-05,4,6
15327,3e-05,8e-05,0.00019,7e-05,-0.00042,1e-05,2e-05,7e-05,4,6
15328,3e-05,8e-05,0.00019,7e-05,-0.00042,1e-05,2e-05,7e-05,4,6
15329,3e-05,8e-05,0.00019,7e-05,-0.00042,1e-05,2e-05,7e-05,4,6
15330,3e-05,8e-05,0.00019,7e-05,-0.00042,1e-05,2e-05,7e-05,4,6
15331,3e-05,8e-05,0.00019,7e-05,-0.00042,1e-05,2e-05,7e-05,4,6
15332,3e-05,8e-05,0.00019,7e-05,-0.00042,1e-05,2e-05,7e-05,4,6
15333,3e-05,8e-05,0.00019,7e-05,-0.00042,1e-05,2e-05,7e-05,4,6
15334,3e-05,8e-05,0.00019,7e-05,-0.00042,1e-05,2e-05,7e-05,4,6
15335,3e-05,8e-05,0.00019,7e-05,-0.00042,1e-05,2e-05,7e-05,4,6
15336,3e-05,8e-05,0.00019,7e-05,-0.00042,1e-05,2e-05,7e-05,4,6
15338,3e-05,8e-05,0.00019,7e-05,-0.00042,1e-05,2e-05,7e-05,4,6
15339,3e-05,8e-05,0.00019,7e-05,-0.00042,1e-05,2e-05,7e-05,4,6
15340,-0.0001,-5e-05,9e-05,0.00047,-8e-05,-0.00036,-0.00022,-0.0002,4,6
15341,-8e-05,-8e-05,-0.00021,5e-05,-4e-05,-0.00016,-0.00012,-0.0001,4,6
15342,-8e-05,-8e-05,-0.00021,5e-05,-4e-05,-0.00016,-0.00012,-0.0001,4,6
15343,-8e-05,-8e-05,-0.00021,5e-05,-4e-05,-0.00016,-0.00012,-0.0001,4,6
15344,-8e-05,-8e-05,-0.00021,5e-05,-4e-05,-0.00016,-0.00012,-0.0001,4,6
15345,-8e-05,-8e-05,-0.00021,5e-05,-4e-05,-0.00016,-0.00012,-0.0001,4,6
15346,-8e-05,-8e-05,-0.00021,5e-05,-4e-05,-0.00016,-0.00012,-0.0001,4,6
15347,-8e-05,-8e-05,-0.00021,5e-05,-4e-05,-0.00016,-0.00012,-0.0001,4,6
15348,-8e-05,-8e-05,-0.00021,5e-05,-4e-05,-0.00016,-0.00012,-0.0001,4,6
15349,-8e-05,-8e-05,-0.00021,5e-05,-4e-05,-0.00016,-0.00012,-0.0001,4,6
15350,-8e-05,-8e-05,-0.00021,5e-05,-4e-05,-0.00016,-0.00012,-0.0001,4,6
15351,-8e-05,-8e-05,-0.00021,5e-05,-4e-05,-0.00016,-0.00012,-0.0001,4,6
15352,-8e-05,-8e-05,-0.00021,5e-05,-4e-05,-0.00016,-0.00012,-0.0001,4,6
15353,-8e-05,-8e-05,-0.00021,5e-05,-4e-05,-0.00016,-0.00012,-0.0001,4,6
15354,-8e-05,-8e-05,-0.00021,5e-05,-4e-05,-0.00016,-0.00012,-0.0001,4,6
15355,-4e-05,-0.00013,0.00023,0.00083,-1e-05,-0.00012,-9e-05,-6e-05,4,6
15356,1e-05,8e-05,-1e-05,3e-05,-0.00019,-0.00022,-0.00014,-0.00024,4,6
15357,1e-05,8e-05,-1e-05,3e-05,-0.00019,-0.00022,-0.00014,-0.00024,4,6
15358,1e-05,8e-05,-1e-05,3e-05,-0.00019,-0.00022,-0.00014,-0.00024,4,6
15359,1e-05,8e-05,-1e-05,3e-05,-0.00019,-0.00022,-0.00014,-0.00024,4,6
15360,1e-05,8e-05,-1e-05,3e-05,-0.00019,-0.00022,-0.00014,-0.00024,4,6
15361,1e-05,8e-05,-1e-05,3e-05,-0.00019,-0.00022,-0.00014,-0.00024,4,6
15362,1e-05,8e-05,-1e-05,3e-05,-0.00019,-0.00022,-0.00014,-0.00024,4,6
15363,1e-05,8e-05,-1e-05,3e-05,-0.00019,-0.00022,-0.00014,-0.00024,4,6
15364,1e-05,8e-05,-1e-05,3e-05,-0.00019,-0.00022,-0.00014,-0.00024,4,6
15365,1e-05,8e-05,-1e-05,3e-05,-0.00019,-0.00022,-0.00014,-0.00024,4,6
15366,1e-05,8e-05,-1e-05,3e-05,-0.00019,-0.00022,-0.00014,-0.00024,4,6
15367,1e-05,8e-05,-1e-05,3e-05,-0.00019,-0.00022,-0.00014,-0.00024,4,6
15368,1e-05,8e-05,-1e-05,3e-05,-0.00019,-0.00022,-0.00014,-0.00024,4,6
15369,-1e-05,-5e-05,2e-05,0.00022,0.00034,0.00023,5e-05,0.00028,4,6
15370,-8e-05,-0.0002,-0.00018,-0.00013,-2e-05,-8e-05,-0.00012,-7e-05,4,6
15371,-8e-05,-0.0002,-0.00018,-0.00013,-2e-05,-8e-05,-0.00012,-7e-05,4,6
15372,-8e-05,-0.0002,-0.00018,-0.00013,-2e-05,-8e-05,-0.00012,-7e-05,4,6
15373,-8e-05,-0.0002,-0.00018,-0.00013,-2e-05,-8e-05,-0.00012,-7e-05,4,6
15374,-8e-05,-0.0002,-0.00018,-0.00013,-2e-05,-8e-05,-0.00012,-7e-05,4,6
15375,-8e-05,-0.0002,-0.00018,-0.00013,-2e-05,-8e-05,-0.00012,-7e-05,4,6
15376,-8e-05,-0.0002,-0.00018,-0.00013,-2e-05,-8e-05,-0.00012,-7e-05,4,6
15377,-8e-05,-0.0002,-0.00018,-0.00013,-2e-05,-8e-05,-0.00012,-7e-05,4,6
15378,-8e-05,-0.0002,-0.00018,-0.00013,-2e-05,-8e-05,-0.00012,-7e-05,4,6
15379,-8e-05,-0.0002,-0.00018,-0.00013,-2e-05,-8e-05,-0.00012,-7e-05,4,6
15380,-8e-05,-0.0002,-0.00018,-0.00013,-2e-05,-8e-05,-0.00012,-7e-05,4,6
15381,-8e-05,-0.0002,-0.00018,-0.00013,-2e-05,-8e-05,-0.00012,-7e-05,4,6
15382,-8e-05,-0.0002,-0.00018,-0.00013,-2e-05,-8e-05,-0.00012,-7e-05,4,6
15383,-8e-05,-0.0002,-0.00018,-0.00013,-2e-05,-8e-05,-0.00012,-7e-05,4,6
15384,-8e-05,-0.0002,-0.00018,-0.00013,-2e-05,-8e-05,-0.00012,-7e-05,4,6
15385,-8e-05,-0.0002,-0.00018,-0.00013,-2e-05,-8e-05,-0.00012,-7e-05,4,6
15386,-8e-05,-0.0002,-0.00018,-0.00013,-2e-05,-8e-05,-0.00012,-7e-05,4,6
15388,-8e-05,-0.0002,-0.00018,-0.00013,-2e-05,-8e-05,-0.00012,-7e-05,4,6
15389,-8e-05,-0.0002,-0.00018,-0.00013,-2e-05,-8e-05,-0.00012,-7e-05,4,6
15390,-8e-05,-0.0002,-0.00018,-0.00013,-2e-05,-8e-05,-0.00012,-7e-05,4,6
15391,-8e-05,-0.0002,-0.00018,-0.00013,-2e-05,-8e-05,-0.00012,-7e-05,4,6
15392,-3e-05,-5e-05,-8e-05,-0.0001,0.00016,0.00026,4e-05,-7e-05,4,6
15393,-5e-05,-0.00014,-0.00019,-0.00034,-0.00024,-0.00031,-0.00019,-0.00014,4,6
15394,-5e-05,-0.00014,-0.00019,-0.00034,-0.00024,-0.00031,-0.00019,-0.00014,4,6
15395,-5e-05,-0.00014,-0.00019,-0.00034,-0.00024,-0.00031,-0.00019,-0.00014,4,6
15396,-5e-05,-0.00014,-0.00019,-0.00034,-0.00024,-0.00031,-0.00019,-0.00014,4,6
15397,-5e-05,-0.00014,-0.00019,-0.00034,-0.00024,-0.00031,-0.00019,-0.00014,4,6
15398,-5e-05,-0.00014,-0.00019,-0.00034,-0.00024,-0.00031,-0.00019,-0.00014,4,6
15399,-5e-05,-0.00014,-0.00019,-0.00034,-0.00024,-0.00031,-0.00019,-0.00014,4,6
15400,-5e-05,-0.00014,-0.00019,-0.00034,-0.00024,-0.00031,-0.00019,-0.00014,4,6
15401,-5e-05,-0.00014,-0.00019,-0.00034,-0.00024,-0.00031,-0.00019,-0.00014,4,6
15402,-5e-05,-0.00014,-0.00019,-0.00034,-0.00024,-0.00031,-0.00019,-0.00014,4,6
15403,-5e-05,-0.00014,-0.00019,-0.00034,-0.00024,-0.00031,-0.00019,-0.00014,4,6
15404,-5e-05,-0.00014,-0.00019,-0.00034,-0.00024,-0.00031,-0.00019,-0.00014,4,6
15405,-5e-05,-0.00014,-0.00019,-0.00034,-0.00024,-0.00031,-0.00019,-0.00014,4,6
15406,-5e-05,-0.00014,-0.00019,-0.00034,-0.00024,-0.00031,-0.00019,-0.00014,4,6
15407,-5e-05,-0.00014,-0.00019,-0.00034,-0.00024,-0.00031,-0.00019,-0.00014,4,6
15408,-5e-05,-0.00014,-0.00019,-0.00034,-0.00024,-0.00031,-0.00019,-0.00014,4,6
15409,-5e-05,-0.00014,-0.00019,-0.00034,-0.00024,-0.00031,-0.00019,-0.00014,4,6
15410,-5e-05,-0.00014,-0.00019,-0.00034,-0.00024,-0.00031,-0.00019,-0.00014,4,6
15411,-5e-05,-0.00014,-0.00019,-0.00034,-0.00024,-0.00031,-0.00019,-0.00014,4,6
15412,-5e-05,-0.00014,-0.00019,-0.00034,-0.00024,-0.00031,-0.00019,-0.00014,4,6
15413,-5e-05,-0.00014,-0.00019,-0.00034,-0.00024,-0.00031,-0.00019,-0.00014,4,6
15414,-5e-05,-0.00014,-0.00019,-0.00034,-0.00024,-0.00031,-0.00019,-0.00014,4,6
15415,-2e-05,-1e-05,0,0.00015,0.00021,-1e-05,-6e-05,-4e-05,4,6
15416,-2e-05,-1e-05,0,0.00015,0.00021,-1e-05,-6e-05,-4e-05,4,6
15417,-2e-05,-1e-05,0,0.00015,0.00021,-1e-05,-6e-05,-4e-05,4,6
15418,-2e-05,-1e-05,0,0.00015,0.00021,-1e-05,-6e-05,-4e-05,4,6
15419,-2e-05,-1e-05,0,0.00015,0.00021,-1e-05,-6e-05,-4e-05,4,6
15420,-2e-05,-1e-05,0,0.00015,0.00021,-1e-05,-6e-05,-4e-05,4,6
15421,-2e-05,-1e-05,0,0.00015,0.00021,-1e-05,-6e-05,-4e-05,4,6
15422,-2e-05,-1e-05,0,0.00015,0.00021,-1e-05,-6e-05,-4e-05,4,6
15423,-2e-05,-1e-05,0,0.00015,0.00021,-1e-05,-6e-05,-4e-05,4,6
15424,-2e-05,-1e-05,0,0.00015,0.00021,-1e-05,-6e-05,-4e-05,4,6
15425,-2e-05,-1e-05,0,0.00015,0.00021,-1e-05,-6e-05,-4e-05,4,6
15426,-2e-05,-1e-05,0,0.00015,0.00021,-1e-05,-6e-05,-4e-05,4,6
15427,-2e-05,-1e-05,0,0.00015,0.00021,-1e-05,-6e-05,-4e-05,4,6
15428,-2e-05,-1e-05,0,0.00015,0.00021,-1e-05,-6e-05,-4e-05,4,6
15429,-7e-05,-2e-05,-9e-05,0.00036,0.00066,0.00014,-6e-05,-0.00016,4,6
15430,3e-05,0.00013,0.00028,0.00041,0.00018,0.00013,0.0001,0.00014,4,6
15431,3e-05,0.00013,0.00028,0.00041,0.00018,0.00013,0.0001,0.00014,4,6
15432,3e-05,0.00013,0.00028,0.00041,0.00018,0.00013,0.0001,0.00014,4,6
15433,3e-05,0.00013,0.00028,0.00041,0.00018,0.00013,0.0001,0.00014,4,6
15434,3e-05,0.00013,0.00028,0.00041,0.00018,0.00013,0.0001,0.00014,4,6
15435,3e-05,0.00013,0.00028,0.00041,0.00018,0.00013,0.0001,0.00014,4,6
15436,3e-05,0.00013,0.00028,0.00041,0.00018,0.00013,0.0001,0.00014,4,6
15438,3e-05,0.00013,0.00028,0.00041,0.00018,0.00013,0.0001,0.00014,4,6
15440,3e-05,0.00013,0.00028,0.00041,0.00018,0.00013,0.0001,0.00014,4,6
15441,3e-05,0.00013,0.00028,0.00041,0.00018,0.00013,0.0001,0.00014,4,6
15442,3e-05,0.00013,0.00028,0.00041,0.00018,0.00013,0.0001,0.00014,4,6
15443,3e-05,0.00013,0.00028,0.00041,0.00018,0.00013,0.0001,0.00014,4,6
15444,3e-05,0.00013,0.00028,0.00041,0.00018,0.00013,0.0001,0.00014,4,6
15445,3e-05,0.00013,0.00028,0.00041,0.00018,0.00013,0.0001,0.00014,4,6
15446,3e-05,0.00013,0.00028,0.00041,0.00018,0.00013,0.0001,0.00014,4,6
15447,3e-05,0.00013,0.00028,0.00041,0.00018,0.00013,0.0001,0.00014,4,6
15448,3e-05,0.00013,0.00028,0.00041,0.00018,0.00013,0.0001,0.00014,4,6
15449,3e-05,0.00013,0.00028,0.00041,0.00018,0.00013,0.0001,0.00014,4,6
15450,3e-05,0.00013,0.00028,0.00041,0.00018,0.00013,0.0001,0.00014,4,6
15451,3e-05,0.00013,0.00028,0.00041,0.00018,0.00013,0.0001,0.00014,4,6
15452,0.00011,0.0002,0.00024,0.00086,0.00058,0.00036,6e-05,6e-05,4,6
15453,5e-05,7e-05,0.00014,0.00022,0,4e-05,7e-05,0.00012,4,6
15454,5e-05,7e-05,0.00014,0.00022,0,4e-05,7e-05,0.00012,4,6
15455,5e-05,7e-05,0.00014,0.00022,0,4e-05,7e-05,0.00012,4,6
15456,5e-05,7e-05,0.00014,0.00022,0,4e-05,7e-05,0.00012,4,6
15457,5e-05,7e-05,0.00014,0.00022,0,4e-05,7e-05,0.00012,4,6
15458,5e-05,7e-05,0.00014,0.00022,0,4e-05,7e-05,0.00012,4,6
15459,5e-05,7e-05,0.00014,0.00022,0,4e-05,7e-05,0.00012,4,6
15460,5e-05,7e-05,0.00014,0.00022,0,4e-05,7e-05,0.00012,4,6
15461,5e-05,7e-05,0.00014,0.00022,0,4e-05,7e-05,0.00012,4,6
15462,5e-05,7e-05,0.00014,0.00022,0,4e-05,7e-05,0.00012,4,6
15463,5e-05,7e-05,0.00014,0.00022,0,4e-05,7e-05,0.00012,4,6
15464,5e-05,7e-05,0.00014,0.00022,0,4e-05,7e-05,0.00012,4,6
15465,5e-05,7e-05,0.00014,0.00022,0,4e-05,7e-05,0.00012,4,6
15466,5e-05,7e-05,0.00014,0.00022,0,4e-05,7e-05,0.00012,4,6
15467,5e-05,7e-05,0.00014,0.00022,0,4e-05,7e-05,0.00012,4,6
15469,5e-05,7e-05,0.00014,0.00022,0,4e-05,7e-05,0.00012,4,6
15470,5e-05,7e-05,0.00014,0.00022,0,4e-05,7e-05,0.00012,4,6
15471,5e-05,7e-05,0.00014,0.00022,0,4e-05,7e-05,0.00012,4,6
15472,5e-05,7e-05,0.00014,0.00022,0,4e-05,7e-05,0.00012,4,6
15473,5e-05,7e-05,0.00014,0.00022,0,4e-05,7e-05,0.00012,4,6
15474,5e-05,7e-05,0.00014,0.00022,0,4e-05,7e-05,0.00012,4,6
15475,-4e-05,-5e-05,-2e-05,0.00021,-0.0002,0.00013,-3e-05,-5e-05,4,6
15476,-9e-05,-8e-05,-0.00017,0.00021,0.0006,4e-05,5e-05,-6e-05,4,6
15477,-9e-05,-8e-05,-0.00017,0.00021,0.0006,4e-05,5e-05,-6e-05,4,6
15478,-9e-05,-8e-05,-0.00017,0.00021,0.0006,4e-05,5e-05,-6e-05,4,6
15479,-9e-05,-8e-05,-0.00017,0.00021,0.0006,4e-05,5e-05,-6e-05,4,6
15480,-9e-05,-8e-05,-0.00017,0.00021,0.0006,4e-05,5e-05,-6e-05,4,6
15481,-9e-05,-8e-05,-0.00017,0.00021,0.0006,4e-05,5e-05,-6e-05,4,6
15482,-9e-05,-8e-05,-0.00017,0.00021,0.0006,4e-05,5e-05,-6e-05,4,6
15483,-9e-05,-8e-05,-0.00017,0.00021,0.0006,4e-05,5e-05,-6e-05,4,6
15484,-9e-05,-8e-05,-0.00017,0.00021,0.0006,4e-05,5e-05,-6e-05,4,6
15485,-9e-05,-8e-05,-0.00017,0.00021,0.0006,4e-05,5e-05,-6e-05,4,6
15488,-9e-05,-8e-05,-0.00017,0.00021,0.0006,4e-05,5e-05,-6e-05,4,6
15494,1e-05,1e-05,0,-0.00011,-0.00012,2e-05,0,4e-05,4,6
15495,1e-05,1e-05,0,-0.00011,-0.00012,2e-05,0,4e-05,4,6
15496,1e-05,1e-05,0,-0.00011,-0.00012,2e-05,0,4e-05,4,6
15497,1e-05,1e-05,0,-0.00011,-0.00012,2e-05,0,4e-05,4,6
15498,1e-05,1e-05,0,-0.00011,-0.00012,2e-05,0,4e-05,4,6
15499,1e-05,1e-05,0,-0.00011,-0.00012,2e-05,0,4e-05,4,6
15500,1e-05,1e-05,0,-0.00011,-0.00012,2e-05,0,4e-05,4,6
15503,1e-05,1e-05,0,-0.00011,-0.00012,2e-05,0,4e-05,4,6
15504,1e-05,1e-05,0,-0.00011,-0.00012,2e-05,0,4e-05,4,6
15505,1e-05,1e-05,0,-0.00011,-0.00012,2e-05,0,4e-05,4,6
15506,1e-05,1e-05,0,-0.00011,-0.00012,2e-05,0,4e-05,4,6
15507,1e-05,1e-05,0,-0.00011,-0.00012,2e-05,0,4e-05,4,6
15508,1e-05,1e-05,0,-0.00011,-0.00012,2e-05,0,4e-05,4,6
15509,1e-05,1e-05,0,-0.00011,-0.00012,2e-05,0,4e-05,4,6
15510,1e-05,1e-05,0,-0.00011,-0.00012,2e-05,0,4e-05,4,6
15511,1e-05,1e-05,0,-0.00011,-0.00012,2e-05,0,4e-05,4,6
15512,-4e-05,-6e-05,-9e-05,0.00011,-1e-05,-0.00011,-3e-05,-5e-05,4,6
15513,2e-05,-1e-05,-2e-05,6e-05,-0.0005,-8e-05,4e-05,4e-05,4,6
15514,2e-05,-1e-05,-2e-05,6e-05,-0.0005,-8e-05,4e-05,4e-05,4,6
15515,2e-05,-1e-05,-2e-05,6e-05,-0.0005,-8e-05,4e-05,4e-05,4,6
15516,2e-05,-1e-05,-2e-05,6e-05,-0.0005,-8e-05,4e-05,4e-05,4,6
15517,2e-05,-1e-05,-2e-05,6e-05,-0.0005,-8e-05,4e-05,4e-05,4,6
15519,2e-05,-1e-05,-2e-05,6e-05,-0.0005,-8e-05,4e-05,4e-05,4,6
15520,2e-05,-1e-05,-2e-05,6e-05,-0.0005,-8e-05,4e-05,4e-05,4,6
15521,2e-05,-1e-05,-2e-05,6e-05,-0.0005,-8e-05,4e-05,4e-05,4,6
15522,2e-05,-1e-05,-2e-05,6e-05,-0.0005,-8e-05,4e-05,4e-05,4,6
15523,2e-05,-1e-05,-2e-05,6e-05,-0.0005,-8e-05,4e-05,4e-05,4,6
15524,2e-05,-1e-05,-2e-05,6e-05,-0.0005,-8e-05,4e-05,4e-05,4,6
15525,2e-05,-1e-05,-2e-05,6e-05,-0.0005,-8e-05,4e-05,4e-05,4,6
15526,2e-05,-1e-05,-2e-05,6e-05,-0.0005,-8e-05,4e-05,4e-05,4,6
15527,2e-05,-1e-05,-2e-05,6e-05,-0.0005,-8e-05,4e-05,4e-05,4,6
15528,2e-05,-1e-05,-2e-05,6e-05,-0.0005,-8e-05,4e-05,4e-05,4,6
15529,2e-05,-1e-05,-2e-05,6e-05,-0.0005,-8e-05,4e-05,4e-05,4,6
15530,2e-05,-1e-05,-2e-05,6e-05,-0.0005,-8e-05,4e-05,4e-05,4,6
15531,2e-05,-1e-05,-2e-05,6e-05,-0.0005,-8e-05,4e-05,4e-05,4,6
15532,2e-05,-1e-05,-2e-05,6e-05,-0.0005,-8e-05,4e-05,4e-05,4,6
15533,2e-05,-1e-05,-2e-05,6e-05,-0.0005,-8e-05,4e-05,4e-05,4,6
15534,2e-05,-1e-05,-2e-05,6e-05,-0.0005,-8e-05,4e-05,4e-05,4,6
15537,2e-05,-1e-05,-2e-05,6e-05,-0.0005,-8e-05,4e-05,4e-05,4,6
15538,-4e-05,2e-05,2e-05,-0.00043,-0.00041,-0.00041,0,-3e-05,4,6
15539,-4e-05,2e-05,2e-05,-0.00043,-0.00041,-0.00041,0,-3e-05,4,6
15540,-4e-05,2e-05,2e-05,-0.00043,-0.00041,-0.00041,0,-3e-05,4,6
15541,-4e-05,2e-05,2e-05,-0.00043,-0.00041,-0.00041,0,-3e-05,4,6
15542,-4e-05,2e-05,2e-05,-0.00043,-0.00041,-0.00041,0,-3e-05,4,6
15543,-4e-05,2e-05,2e-05,-0.00043,-0.00041,-0.00041,0,-3e-05,4,6
15544,-4e-05,2e-05,2e-05,-0.00043,-0.00041,-0.00041,0,-3e-05,4,6
15545,-4e-05,2e-05,2e-05,-0.00043,-0.00041,-0.00041,0,-3e-05,4,6
15546,-4e-05,2e-05,2e-05,-0.00043,-0.00041,-0.00041,0,-3e-05,4,6
15547,-4e-05,2e-05,2e-05,-0.00043,-0.00041,-0.00041,0,-3e-05,4,6
15548,-4e-05,2e-05,2e-05,-0.00043,-0.00041,-0.00041,0,-3e-05,4,6
15549,-4e-05,2e-05,2e-05,-0.00043,-0.00041,-0.00041,0,-3e-05,4,6
15550,-4e-05,2e-05,2e-05,-0.00043,-0.00041,-0.00041,0,-3e-05,4,6
15553,-4e-05,2e-05,2e-05,-0.00043,-0.00041,-0.00041,0,-3e-05,4,6
15554,-4e-05,2e-05,2e-05,-0.00043,-0.00041,-0.00041,0,-3e-05,4,6
15555,-4e-05,2e-05,2e-05,-0.00043,-0.00041,-0.00041,0,-3e-05,4,6
15556,-4e-05,2e-05,2e-05,-0.00043,-0.00041,-0.00041,0,-3e-05,4,6
15557,-4e-05,2e-05,2e-05,-0.00043,-0.00041,-0.00041,0,-3e-05,4,6
15558,-4e-05,2e-05,2e-05,-0.00043,-0.00041,-0.00041,0,-3e-05,4,6
15559,-4e-05,2e-05,2e-05,-0.00043,-0.00041,-0.00041,0,-3e-05,4,6
15560,-4e-05,2e-05,2e-05,-0.00043,-0.00041,-0.00041,0,-3e-05,4,6
15561,-4e-05,2e-05,2e-05,-0.00043,-0.00041,-0.00041,0,-3e-05,4,6
15562,-4e-05,2e-05,2e-05,-0.00043,-0.00041,-0.00041,0,-3e-05,4,6
15563,-4e-05,2e-05,2e-05,-0.00043,-0.00041,-0.00041,0,-3e-05,4,6
15564,-4e-05,2e-05,2e-05,-0.00043,-0.00041,-0.00041,0,-3e-05,4,6
15565,-7e-05,-3e-05,-0.00014,-0.00053,-0.00012,-0.00014,-1e-05,-0.00012,4,6
15566,1e-05,5e-05,0.00012,0.00084,0.00052,0.00033,0.00014,6e-05,4,6
15567,1e-05,5e-05,0.00012,0.00084,0.00052,0.00033,0.00014,6e-05,4,6
15568,1e-05,5e-05,0.00012,0.00084,0.00052,0.00033,0.00014,6e-05,4,6
15569,1e-05,5e-05,0.00012,0.00084,0.00052,0.00033,0.00014,6e-05,4,6
15570,1e-05,5e-05,0.00012,0.00084,0.00052,0.00033,0.00014,6e-05,4,6
15571,1e-05,5e-05,0.00012,0.00084,0.00052,0.00033,0.00014,6e-05,4,6
15572,0,-3e-05,-2e-05,-0.00038,2e-05,9e-05,2e-05,1e-05,4,6
15573,0.0001,9e-05,0.00015,0.00023,0.00061,0.00037,8e-05,0.00016,4,6
15574,0.0001,9e-05,0.00015,0.00023,0.00061,0.00037,8e-05,0.00016,4,6
15575,0.0001,9e-05,0.00015,0.00023,0.00061,0.00037,8e-05,0.00016,4,6
15576,0.0001,9e-05,0.00015,0.00023,0.00061,0.00037,8e-05,0.00016,4,6
15577,0.0001,9e-05,0.00015,0.00023,0.00061,0.00037,8e-05,0.00016,4,6
15578,0.0001,9e-05,0.00015,0.00023,0.00061,0.00037,8e-05,0.00016,4,6
15579,0.0001,9e-05,0.00015,0.00023,0.00061,0.00037,8e-05,0.00016,4,6
15580,0.0001,9e-05,0.00015,0.00023,0.00061,0.00037,8e-05,0.00016,4,6
15581,0.0001,9e-05,0.00015,0.00023,0.00061,0.00037,8e-05,0.00016,4,6
15582,0.0001,9e-05,0.00015,0.00023,0.00061,0.00037,8e-05,0.00016,4,6
15583,0.0001,9e-05,0.00015,0.00023,0.00061,0.00037,8e-05,0.00016,4,6
15584,0.0001,9e-05,0.00015,0.00023,0.00061,0.00037,8e-05,0.00016,4,6
15585,0.0001,9e-05,0.00015,0.00023,0.00061,0.00037,8e-05,0.00016,4,6
15587,0.0001,9e-05,0.00015,0.00023,0.00061,0.00037,8e-05,0.00016,4,6
15591,0.0001,9e-05,0.00015,0.00023,0.00061,0.00037,8e-05,0.00016,4,6
15592,0.0001,9e-05,0.00015,0.00023,0.00061,0.00037,8e-05,0.00016,4,6
15593,0.0001,9e-05,0.00015,0.00023,0.00061,0.00037,8e-05,0.00016,4,6
15594,4e-05,-3e-05,-0.00022,-0.00088,-0.00075,-0.00012,-5e-05,0,4,6
15595,0.0001,9e-05,3e-05,-5e-05,0.00051,0.00015,6e-05,2e-05,4,6
15596,0.0001,9e-05,3e-05,-5e-05,0.00051,0.00015,6e-05,2e-05,4,6
15597,0.0001,9e-05,3e-05,-5e-05,0.00051,0.00015,6e-05,2e-05,4,6
15598,0.0001,9e-05,3e-05,-5e-05,0.00051,0.00015,6e-05,2e-05,4,6
15599,0.0001,9e-05,3e-05,-5e-05,0.00051,0.00015,6e-05,2e-05,4,6
15600,0.0001,9e-05,3e-05,-5e-05,0.00051,0.00015,6e-05,2e-05,4,6
15601,0.0001,9e-05,3e-05,-5e-05,0.00051,0.00015,6e-05,2e-05,4,6
15602,0.0001,9e-05,3e-05,-5e-05,0.00051,0.00015,6e-05,2e-05,4,6
15603,0.0001,9e-05,3e-05,-5e-05,0.00051,0.00015,6e-05,2e-05,4,6
15604,0.0001,9e-05,3e-05,-5e-05,0.00051,0.00015,6e-05,2e-05,4,6
15605,0.0001,9e-05,3e-05,-5e-05,0.00051,0.00015,6e-05,2e-05,4,6
15606,0.0001,9e-05,3e-05,-5e-05,0.00051,0.00015,6e-05,2e-05,4,6
15607,0.0001,9e-05,3e-05,-5e-05,0.00051,0.00015,6e-05,2e-05,4,6
15608,0.0001,9e-05,3e-05,-5e-05,0.00051,0.00015,6e-05,2e-05,4,6
15609,0.0001,9e-05,3e-05,-5e-05,0.00051,0.00015,6e-05,2e-05,4,6
15610,0.0001,9e-05,3e-05,-5e-05,0.00051,0.00015,6e-05,2e-05,4,6
15611,0.0001,9e-05,3e-05,-5e-05,0.00051,0.00015,6e-05,2e-05,4,6
15612,0.0001,9e-05,3e-05,-5e-05,0.00051,0.00015,6e-05,2e-05,4,6
15613,0.0001,9e-05,3e-05,-5e-05,0.00051,0.00015,6e-05,2e-05,4,6
15614,0.0001,9e-05,3e-05,-5e-05,0.00051,0.00015,6e-05,2e-05,4,6
15615,0.0001,9e-05,3e-05,-5e-05,0.00051,0.00015,6e-05,2e-05,4,6
15616,0.0001,9e-05,3e-05,-5e-05,0.00051,0.00015,6e-05,2e-05,4,6
15617,0.0001,9e-05,3e-05,-5e-05,0.00051,0.00015,6e-05,2e-05,4,6
15620,0,0,-1e-05,0.0004,1e-05,2e-05,4e-05,0,4,6
15621,-4e-05,-0.00014,-6e-05,-0.00049,-0.00043,0,5e-05,2e-05,4,6
15622,-4e-05,-0.00014,-6e-05,-0.00049,-0.00043,0,5e-05,2e-05,4,6
15623,-4e-05,-0.00014,-6e-05,-0.00049,-0.00043,0,5e-05,2e-05,4,6
15624,-4e-05,-0.00014,-6e-05,-0.00049,-0.00043,0,5e-05,2e-05,4,6
15625,-4e-05,-0.00014,-6e-05,-0.00049,-0.00043,0,5e-05,2e-05,4,6
15626,-4e-05,-0.00014,-6e-05,-0.00049,-0.00043,0,5e-05,2e-05,4,6
15627,-4e-05,-0.00014,-6e-05,-0.00049,-0.00043,0,5e-05,2e-05,4,6
15628,-4e-05,-0.00014,-6e-05,-0.00049,-0.00043,0,5e-05,2e-05,4,6
15629,-4e-05,-0.00014,-6e-05,-0.00049,-0.00043,0,5e-05,2e-05,4,6
15630,-4e-05,-0.00014,-6e-05,-0.00049,-0.00043,0,5e-05,2e-05,4,6
15631,-4e-05,-0.00014,-6e-05,-0.00049,-0.00043,0,5e-05,2e-05,4,6
15632,2e-05,5e-05,0.0002,0.00061,-2e-05,4e-05,3e-05,0,4,6
15633,2e-05,5e-05,0.0002,0.00061,-2e-05,4e-05,3e-05,0,4,6
15634,2e-05,5e-05,0.0002,0.00061,-2e-05,4e-05,3e-05,0,4,6
15636,2e-05,5e-05,0.0002,0.00061,-2e-05,4e-05,3e-05,0,4,6
15637,2e-05,5e-05,0.0002,0.00061,-2e-05,4e-05,3e-05,0,4,6
15638,2e-05,5e-05,0.0002,0.00061,-2e-05,4e-05,3e-05,0,4,6
15639,2e-05,5e-05,0.0002,0.00061,-2e-05,4e-05,3e-05,0,4,6
15640,2e-05,5e-05,0.0002,0.00061,-2e-05,4e-05,3e-05,0,4,6
15641,2e-05,5e-05,0.0002,0.00061,-2e-05,4e-05,3e-05,0,4,6
15642,2e-05,5e-05,0.0002,0.00061,-2e-05,4e-05,3e-05,0,4,6
15643,2e-05,5e-05,0.0002,0.00061,-2e-05,4e-05,3e-05,0,4,6
15644,2e-05,5e-05,0.0002,0.00061,-2e-05,4e-05,3e-05,0,4,6
15645,2e-05,5e-05,0.0002,0.00061,-2e-05,4e-05,3e-05,0,4,6
15646,2e-05,5e-05,0.0002,0.00061,-2e-05,4e-05,3e-05,0,4,6
15647,-7e-05,2e-05,-3e-05,8e-05,0.00017,0.00019,-2e-05,-5e-05,4,6
15648,-7e-05,2e-05,-3e-05,8e-05,0.00017,0.00019,-2e-05,-5e-05,4,6
15649,-7e-05,2e-05,-3e-05,8e-05,0.00017,0.00019,-2e-05,-5e-05,4,6
15650,-7e-05,2e-05,-3e-05,8e-05,0.00017,0.00019,-2e-05,-5e-05,4,6
15653,-7e-05,2e-05,-3e-05,8e-05,0.00017,0.00019,-2e-05,-5e-05,4,6
15654,-7e-05,2e-05,-3e-05,8e-05,0.00017,0.00019,-2e-05,-5e-05,4,6
15655,-7e-05,2e-05,-3e-05,8e-05,0.00017,0.00019,-2e-05,-5e-05,4,6
15656,0,4e-05,0,-0.00025,-0.00035,-0.00022,-0.00014,-0.0001,4,6
15657,0,4e-05,0,-0.00025,-0.00035,-0.00022,-0.00014,-0.0001,4,6
15658,0,4e-05,0,-0.00025,-0.00035,-0.00022,-0.00014,-0.0001,4,6
15659,0,4e-05,0,-0.00025,-0.00035,-0.00022,-0.00014,-0.0001,4,6
15660,0,4e-05,0,-0.00025,-0.00035,-0.00022,-0.00014,-0.0001,4,6
15661,0,4e-05,0,-0.00025,-0.00035,-0.00022,-0.00014,-0.0001,4,6
15662,0,4e-05,0,-0.00025,-0.00035,-0.00022,-0.00014,-0.0001,4,6
15663,0,4e-05,0,-0.00025,-0.00035,-0.00022,-0.00014,-0.0001,4,6
15664,0,4e-05,0,-0.00025,-0.00035,-0.00022,-0.00014,-0.0001,4,6
15665,0,4e-05,0,-0.00025,-0.00035,-0.00022,-0.00014,-0.0001,4,6
15666,0,4e-05,0,-0.00025,-0.00035,-0.00022,-0.00014,-0.0001,4,6
15667,0,4e-05,0,-0.00025,-0.00035,-0.00022,-0.00014,-0.0001,4,6
15669,0,4e-05,0,-0.00025,-0.00035,-0.00022,-0.00014,-0.0001,4,6
15670,0,4e-05,0,-0.00025,-0.00035,-0.00022,-0.00014,-0.0001,4,6
15671,0,4e-05,0,-0.00025,-0.00035,-0.00022,-0.00014,-0.0001,4,6
15672,0,1e-05,-7e-05,0.00011,0.0003,-2e-05,-6e-05,2e-05,4,6
15673,0,1e-05,-7e-05,0.00011,0.0003,-2e-05,-6e-05,2e-05,4,6
15674,0,1e-05,-7e-05,0.00011,0.0003,-2e-05,-6e-05,2e-05,4,6
15675,0,1e-05,-7e-05,0.00011,0.0003,-2e-05,-6e-05,2e-05,4,6
15676,0,1e-05,-7e-05,0.00011,0.0003,-2e-05,-6e-05,2e-05,4,6
15677,-1e-05,-9e-05,-0.00013,-4e-05,-0.0003,-0.0001,-8e-05,-8e-05,4,6
15678,-1e-05,-9e-05,-0.00013,-4e-05,-0.0003,-0.0001,-8e-05,-8e-05,4,6
15679,-1e-05,-9e-05,-0.00013,-4e-05,-0.0003,-0.0001,-8e-05,-8e-05,4,6
15680,-1e-05,-9e-05,-0.00013,-4e-05,-0.0003,-0.0001,-8e-05,-8e-05,4,6
15681,-1e-05,-9e-05,-0.00013,-4e-05,-0.0003,-0.0001,-8e-05,-8e-05,4,6
15682,-1e-05,-9e-05,-0.00013,-4e-05,-0.0003,-0.0001,-8e-05,-8e-05,4,6
15683,-1e-05,-9e-05,-0.00013,-4e-05,-0.0003,-0.0001,-8e-05,-8e-05,4,6
15684,-1e-05,-9e-05,-0.00013,-4e-05,-0.0003,-0.0001,-8e-05,-8e-05,4,6
15686,-1e-05,-9e-05,-0.00013,-4e-05,-0.0003,-0.0001,-8e-05,-8e-05,4,6
15687,-1e-05,-9e-05,-0.00013,-4e-05,-0.0003,-0.0001,-8e-05,-8e-05,4,6
15688,-1e-05,-9e-05,-0.00013,-4e-05,-0.0003,-0.0001,-8e-05,-8e-05,4,6
15689,-1e-05,-9e-05,-0.00013,-4e-05,-0.0003,-0.0001,-8e-05,-8e-05,4,6
15690,-1e-05,-9e-05,-0.00013,-4e-05,-0.0003,-0.0001,-8e-05,-8e-05,4,6
15691,-1e-05,-9e-05,-0.00013,-4e-05,-0.0003,-0.0001,-8e-05,-8e-05,4,6
15692,-1e-05,-9e-05,-0.00013,-4e-05,-0.0003,-0.0001,-8e-05,-8e-05,4,6
15693,-1e-05,-9e-05,-0.00013,-4e-05,-0.0003,-0.0001,-8e-05,-8e-05,4,6
15694,-1e-05,-9e-05,-0.00013,-4e-05,-0.0003,-0.0001,-8e-05,-8e-05,4,6
15695,-1e-05,-9e-05,-0.00013,-4e-05,-0.0003,-0.0001,-8e-05,-8e-05,4,6
15696,-1e-05,-9e-05,-0.00013,-4e-05,-0.0003,-0.0001,-8e-05,-8e-05,4,6
15697,-1e-05,-9e-05,-0.00013,-4e-05,-0.0003,-0.0001,-8e-05,-8e-05,4,6
15698,-1e-05,-9e-05,-0.00013,-4e-05,-0.0003,-0.0001,-8e-05,-8e-05,4,6
15699,-1e-05,-9e-05,-0.00013,-4e-05,-0.0003,-0.0001,-8e-05,-8e-05,4,6
15700,-3e-05,-4e-05,3e-05,0.00029,-9e-05,0.00014,-1e-05,-1e-05,4,6
15701,-3e-05,-4e-05,3e-05,0.00029,-9e-05,0.00014,-1e-05,-1e-05,4,6
15704,5e-05,0.0001,-1e-05,3e-05,-0.00033,-3e-05,-3e-05,4e-05,4,6
15705,5e-05,0.0001,-1e-05,3e-05,-0.00033,-3e-05,-3e-05,4e-05,4,6
15706,5e-05,0.0001,-1e-05,3e-05,-0.00033,-3e-05,-3e-05,4e-05,4,6
15707,5e-05,0.0001,-1e-05,3e-05,-0.00033,-3e-05,-3e-05,4e-05,4,6
15708,5e-05,0.0001,-1e-05,3e-05,-0.00033,-3e-05,-3e-05,4e-05,4,6
15709,5e-05,0.0001,-1e-05,3e-05,-0.00033,-3e-05,-3e-05,4e-05,4,6
15710,5e-05,0.0001,-1e-05,3e-05,-0.00033,-3e-05,-3e-05,4e-05,4,6
15711,5e-05,0.0001,-1e-05,3e-05,-0.00033,-3e-05,-3e-05,4e-05,4,6
15712,5e-05,0.0001,-1e-05,3e-05,-0.00033,-3e-05,-3e-05,4e-05,4,6
15713,5e-05,0.0001,-1e-05,3e-05,-0.00033,-3e-05,-3e-05,4e-05,4,6
15714,5e-05,0.0001,-1e-05,3e-05,-0.00033,-3e-05,-3e-05,4e-05,4,6
15715,-3e-05,-7e-05,-7e-05,-0.00037,-0.00037,-0.00045,-5e-05,-6e-05,4,6
15716,-3e-05,-7e-05,-7e-05,-0.00037,-0.00037,-0.00045,-5e-05,-6e-05,4,6
15717,-3e-05,-7e-05,-7e-05,-0.00037,-0.00037,-0.00045,-5e-05,-6e-05,4,6
15720,-3e-05,-7e-05,-7e-05,-0.00037,-0.00037,-0.00045,-5e-05,-6e-05,4,6
15722,-3e-05,-7e-05,-7e-05,-0.00037,-0.00037,-0.00045,-5e-05,-6e-05,4,6
15723,-3e-05,-7e-05,-7e-05,-0.00037,-0.00037,-0.00045,-5e-05,-6e-05,4,6
15724,-3e-05,-7e-05,-7e-05,-0.00037,-0.00037,-0.00045,-5e-05,-6e-05,4,6
15725,-3e-05,-7e-05,-7e-05,-0.00037,-0.00037,-0.00045,-5e-05,-6e-05,4,6
15726,-3e-05,-7e-05,-7e-05,-0.00037,-0.00037,-0.00045,-5e-05,-6e-05,4,6
15727,-3e-05,-7e-05,-7e-05,-0.00037,-0.00037,-0.00045,-5e-05,-6e-05,4,6
15728,-3e-05,-7e-05,-7e-05,-0.00037,-0.00037,-0.00045,-5e-05,-6e-05,4,6
15729,-3e-05,-7e-05,-7e-05,-0.00037,-0.00037,-0.00045,-5e-05,-6e-05,4,6
15730,-3e-05,-7e-05,-7e-05,-0.00037,-0.00037,-0.00045,-5e-05,-6e-05,4,6
15731,-9e-05,-0.00011,-0.00013,-0.00025,-0.00017,-0.00031,-0.00012,-0.00012,4,6
15732,-5e-05,-9e-05,-0.00015,-0.00029,-0.00033,-1e-05,-4e-05,-6e-05,4,6
15733,4e-05,0,0.00011,0.00015,-7e-05,-2e-05,7e-05,0.0002,4,6
15734,4e-05,0,0.00011,0.00015,-7e-05,-2e-05,7e-05,0.0002,4,6
15736,4e-05,0,0.00011,0.00015,-7e-05,-2e-05,7e-05,0.0002,4,6
15737,4e-05,0,0.00011,0.00015,-7e-05,-2e-05,7e-05,0.0002,4,6
15738,4e-05,0,0.00011,0.00015,-7e-05,-2e-05,7e-05,0.0002,4,6
15739,4e-05,0,0.00011,0.00015,-7e-05,-2e-05,7e-05,0.0002,4,6
15740,4e-05,0,0.00011,0.00015,-7e-05,-2e-05,7e-05,0.0002,4,6
15741,4e-05,0,0.00011,0.00015,-7e-05,-2e-05,7e-05,0.0002,4,6
15742,4e-05,0,0.00011,0.00015,-7e-05,-2e-05,7e-05,0.0002,4,6
15743,4e-05,0,0.00011,0.00015,-7e-05,-2e-05,7e-05,0.0002,4,6
15744,4e-05,0,0.00011,0.00015,-7e-05,-2e-05,7e-05,0.0002,4,6
15745,4e-05,0,0.00011,0.00015,-7e-05,-2e-05,7e-05,0.0002,4,6
15746,4e-05,0,0.00011,0.00015,-7e-05,-2e-05,7e-05,0.0002,4,6
15747,4e-05,0,0.00011,0.00015,-7e-05,-2e-05,7e-05,0.0002,4,6
15748,4e-05,0,0.00011,0.00015,-7e-05,-2e-05,7e-05,0.0002,4,6
15749,4e-05,0,0.00011,0.00015,-7e-05,-2e-05,7e-05,0.0002,4,6
15750,4e-05,0,0.00011,0.00015,-7e-05,-2e-05,7e-05,0.0002,4,6
15751,4e-05,0,0.00011,0.00015,-7e-05,-2e-05,7e-05,0.0002,4,6
15753,4e-05,0,0.00011,0.00015,-7e-05,-2e-05,7e-05,0.0002,4,6
15754,4e-05,0,0.00011,0.00015,-7e-05,-2e-05,7e-05,0.0002,4,6
15755,4e-05,0,0.00011,0.00015,-7e-05,-2e-05,7e-05,0.0002,4,6
15756,4e-05,0,0.00011,0.00015,-7e-05,-2e-05,7e-05,0.0002,4,6
15757,4e-05,0,0.00011,0.00015,-7e-05,-2e-05,7e-05,0.0002,4,6
15758,4e-05,0,0.00011,0.00015,-7e-05,-2e-05,7e-05,0.0002,4,6
15759,4e-05,0,0.00011,0.00015,-7e-05,-2e-05,7e-05,0.0002,4,6
15760,0.00012,0.00018,0.00023,-0.00018,3e-05,0.00037,0.00023,0.00026,4,6
15761,-4e-05,-5e-05,-0.00016,-0.00047,-0.00039,-0.00019,-6e-05,-9e-05,4,6
15762,-4e-05,-5e-05,-0.00016,-0.00047,-0.00039,-0.00019,-6e-05,-9e-05,4,6
15763,-4e-05,-5e-05,-0.00016,-0.00047,-0.00039,-0.00019,-6e-05,-9e-05,4,6
15764,-4e-05,-5e-05,-0.00016,-0.00047,-0.00039,-0.00019,-6e-05,-9e-05,4,6
15765,-4e-05,-5e-05,-0.00016,-0.00047,-0.00039,-0.00019,-6e-05,-9e-05,4,6
15766,-4e-05,-5e-05,-0.00016,-0.00047,-0.00039,-0.00019,-6e-05,-9e-05,4,6
15767,-4e-05,-5e-05,-0.00016,-0.00047,-0.00039,-0.00019,-6e-05,-9e-05,4,6
15768,-4e-05,-5e-05,-0.00016,-0.00047,-0.00039,-0.00019,-6e-05,-9e-05,4,6
15769,-4e-05,-5e-05,-0.00016,-0.00047,-0.00039,-0.00019,-6e-05,-9e-05,4,6
15770,-4e-05,-5e-05,-0.00016,-0.00047,-0.00039,-0.00019,-6e-05,-9e-05,4,6
15771,-4e-05,-5e-05,-0.00016,-0.00047,-0.00039,-0.00019,-6e-05,-9e-05,4,6
15772,-4e-05,-5e-05,-0.00016,-0.00047,-0.00039,-0.00019,-6e-05,-9e-05,4,6
15773,-4e-05,-5e-05,-0.00016,-0.00047,-0.00039,-0.00019,-6e-05,-9e-05,4,6
15774,-4e-05,-5e-05,-0.00016,-0.00047,-0.00039,-0.00019,-6e-05,-9e-05,4,6
15775,-4e-05,-5e-05,-0.00016,-0.00047,-0.00039,-0.00019,-6e-05,-9e-05,4,6
15776,-4e-05,-5e-05,-0.00016,-0.00047,-0.00039,-0.00019,-6e-05,-9e-05,4,6
15777,-4e-05,-5e-05,-0.00016,-0.00047,-0.00039,-0.00019,-6e-05,-9e-05,4,6
15778,-4e-05,-5e-05,-0.00016,-0.00047,-0.00039,-0.00019,-6e-05,-9e-05,4,6
15779,-4e-05,-5e-05,-0.00016,-0.00047,-0.00039,-0.00019,-6e-05,-9e-05,4,6
15780,-4e-05,-5e-05,-0.00016,-0.00047,-0.00039,-0.00019,-6e-05,-9e-05,4,6
15781,-4e-05,-5e-05,-0.00016,-0.00047,-0.00039,-0.00019,-6e-05,-9e-05,4,6
15782,5e-05,7e-05,0.0001,0.00011,-0.0004,3e-05,4e-05,0.00013,4,6
15783,2e-05,-5e-05,0.00012,0.00049,0.00015,0.00016,-1e-05,-1e-05,4,6
15784,2e-05,-5e-05,0.00012,0.00049,0.00015,0.00016,-1e-05,-1e-05,4,6
15785,2e-05,-5e-05,0.00012,0.00049,0.00015,0.00016,-1e-05,-1e-05,4,6
15787,2e-05,-5e-05,0.00012,0.00049,0.00015,0.00016,-1e-05,-1e-05,4,6
15791,-6e-05,-2e-05,3e-05,0.00036,0.00016,-7e-05,-5e-05,-7e-05,4,6
15792,-1e-05,-1e-05,8e-05,0.0004,0.0003,-6e-05,-2e-05,0,4,6
15793,-1e-05,-1e-05,8e-05,0.0004,0.0003,-6e-05,-2e-05,0,4,6
15794,-1e-05,-1e-05,8e-05,0.0004,0.0003,-6e-05,-2e-05,0,4,6
15795,-1e-05,-1e-05,8e-05,0.0004,0.0003,-6e-05,-2e-05,0,4,6
15796,-1e-05,-1e-05,8e-05,0.0004,0.0003,-6e-05,-2e-05,0,4,6
15797,-1e-05,-1e-05,8e-05,0.0004,0.0003,-6e-05,-2e-05,0,4,6
15798,-1e-05,-1e-05,8e-05,0.0004,0.0003,-6e-05,-2e-05,0,4,6
15799,-1e-05,-1e-05,8e-05,0.0004,0.0003,-6e-05,-2e-05,0,4,6
15800,-1e-05,-1e-05,8e-05,0.0004,0.0003,-6e-05,-2e-05,0,4,6
15801,-1e-05,-1e-05,8e-05,0.0004,0.0003,-6e-05,-2e-05,0,4,6
15802,-1e-05,-1e-05,8e-05,0.0004,0.0003,-6e-05,-2e-05,0,4,6
15803,-1e-05,-1e-05,8e-05,0.0004,0.0003,-6e-05,-2e-05,0,4,6
15804,-1e-05,-1e-05,8e-05,0.0004,0.0003,-6e-05,-2e-05,0,4,6
15805,-1e-05,-1e-05,8e-05,0.0004,0.0003,-6e-05,-2e-05,0,4,6
15806,-1e-05,-1e-05,8e-05,0.0004,0.0003,-6e-05,-2e-05,0,4,6
15807,-1e-05,-1e-05,8e-05,0.0004,0.0003,-6e-05,-2e-05,0,4,6
15808,-1e-05,-1e-05,8e-05,0.0004,0.0003,-6e-05,-2e-05,0,4,6
15809,-1e-05,-1e-05,8e-05,0.0004,0.0003,-6e-05,-2e-05,0,4,6
15810,-1e-05,-1e-05,8e-05,0.0004,0.0003,-6e-05,-2e-05,0,4,6
15811,-1e-05,-1e-05,8e-05,0.0004,0.0003,-6e-05,-2e-05,0,4,6
15812,-1e-05,-1e-05,8e-05,0.0004,0.0003,-6e-05,-2e-05,0,4,6
15813,-4e-05,-0.00015,-6e-05,-0.00015,-0.0003,0,-7e-05,-0.00011,4,6
15814,-5e-05,-2e-05,-9e-05,-1e-05,9e-05,-0.00013,-4e-05,1e-05,4,6
15815,-5e-05,-2e-05,-9e-05,-1e-05,9e-05,-0.00013,-4e-05,1e-05,4,6
15816,-5e-05,-2e-05,-9e-05,-1e-05,9e-05,-0.00013,-4e-05,1e-05,4,6
15817,-5e-05,-2e-05,-9e-05,-1e-05,9e-05,-0.00013,-4e-05,1e-05,4,6
15818,-5e-05,-2e-05,-9e-05,-1e-05,9e-05,-0.00013,-4e-05,1e-05,4,6
15821,-5e-05,-2e-05,-9e-05,-1e-05,9e-05,-0.00013,-4e-05,1e-05,4,6
15822,-5e-05,-2e-05,-9e-05,-1e-05,9e-05,-0.00013,-4e-05,1e-05,4,6
15823,-5e-05,-2e-05,-9e-05,-1e-05,9e-05,-0.00013,-4e-05,1e-05,4,6
15824,-5e-05,-2e-05,-9e-05,-1e-05,9e-05,-0.00013,-4e-05,1e-05,4,6
15825,-5e-05,-2e-05,-9e-05,-1e-05,9e-05,-0.00013,-4e-05,1e-05,4,6
15826,-5e-05,-2e-05,-9e-05,-1e-05,9e-05,-0.00013,-4e-05,1e-05,4,6
15827,-5e-05,-2e-05,-9e-05,-1e-05,9e-05,-0.00013,-4e-05,1e-05,4,6
15828,-5e-05,-2e-05,-9e-05,-1e-05,9e-05,-0.00013,-4e-05,1e-05,4,6
15829,-5e-05,-2e-05,-9e-05,-1e-05,9e-05,-0.00013,-4e-05,1e-05,4,6
15830,-5e-05,-2e-05,-9e-05,-1e-05,9e-05,-0.00013,-4e-05,1e-05,4,6
15831,-5e-05,-2e-05,-9e-05,-1e-05,9e-05,-0.00013,-4e-05,1e-05,4,6
15832,-5e-05,-2e-05,-9e-05,-1e-05,9e-05,-0.00013,-4e-05,1e-05,4,6
15833,-5e-05,-2e-05,-9e-05,-1e-05,9e-05,-0.00013,-4e-05,1e-05,4,6
15834,-5e-05,-2e-05,-9e-05,-1e-05,9e-05,-0.00013,-4e-05,1e-05,4,6
15835,-5e-05,-2e-05,-9e-05,-1e-05,9e-05,-0.00013,-4e-05,1e-05,4,6
15838,-5e-05,-2e-05,-9e-05,-1e-05,9e-05,-0.00013,-4e-05,1e-05,4,6
15842,0,5e-05,0.0002,0.00019,0.00034,0.0004,0.00017,9e-05,4,6
15843,-6e-05,-0.00014,-7e-05,-1e-05,-6e-05,8e-05,-1e-05,-9e-05,4,6
15844,1e-05,6e-05,0,0.00033,-0.00039,3e-05,-3e-05,-5e-05,4,6
15845,1e-05,6e-05,0,0.00033,-0.00039,3e-05,-3e-05,-5e-05,4,6
15846,1e-05,6e-05,0,0.00033,-0.00039,3e-05,-3e-05,-5e-05,4,6
15847,1e-05,6e-05,0,0.00033,-0.00039,3e-05,-3e-05,-5e-05,4,6
15848,1e-05,6e-05,0,0.00033,-0.00039,3e-05,-3e-05,-5e-05,4,6
15849,3e-05,0.00011,0.00015,0.00027,-2e-05,4e-05,3e-05,-2e-05,4,6
15850,-5e-05,-0.00011,-7e-05,0.00018,0.00074,0.00026,4e-05,0,4,6
15851,-5e-05,-0.00011,-7e-05,0.00018,0.00074,0.00026,4e-05,0,4,6
15854,-5e-05,-0.00011,-7e-05,0.00018,0.00074,0.00026,4e-05,0,4,6
15855,-5e-05,-0.00011,-7e-05,0.00018,0.00074,0.00026,4e-05,0,4,6
15856,-5e-05,-0.00011,-7e-05,0.00018,0.00074,0.00026,4e-05,0,4,6
15857,-5e-05,-0.00011,-7e-05,0.00018,0.00074,0.00026,4e-05,0,4,6
15858,-5e-05,-0.00011,-7e-05,0.00018,0.00074,0.00026,4e-05,0,4,6
15859,-5e-05,-0.00011,-7e-05,0.00018,0.00074,0.00026,4e-05,0,4,6
15860,-5e-05,-0.00011,-7e-05,0.00018,0.00074,0.00026,4e-05,0,4,6
15861,-5e-05,-0.00011,-7e-05,0.00018,0.00074,0.00026,4e-05,0,4,6
15862,-5e-05,-0.00011,-7e-05,0.00018,0.00074,0.00026,4e-05,0,4,6
15863,-5e-05,-0.00011,-7e-05,0.00018,0.00074,0.00026,4e-05,0,4,6
15864,-5e-05,-0.00011,-7e-05,0.00018,0.00074,0.00026,4e-05,0,4,6
15865,-5e-05,-0.00011,-7e-05,0.00018,0.00074,0.00026,4e-05,0,4,6
15866,-5e-05,-0.00011,-7e-05,0.00018,0.00074,0.00026,4e-05,0,4,6
15867,-5e-05,-0.00011,-7e-05,0.00018,0.00074,0.00026,4e-05,0,4,6
15868,-5e-05,-0.00011,-7e-05,0.00018,0.00074,0.00026,4e-05,0,4,6
15870,-5e-05,-0.00011,-7e-05,0.00018,0.00074,0.00026,4e-05,0,4,6
15871,-5e-05,-0.00011,-7e-05,0.00018,0.00074,0.00026,4e-05,0,4,6
15872,-5e-05,-0.00011,-7e-05,0.00018,0.00074,0.00026,4e-05,0,4,6
15873,7e-05,-2e-05,-0.00015,-0.00083,-0.00019,-5e-05,5e-05,0,4,6
15874,7e-05,-2e-05,-0.00015,-0.00083,-0.00019,-5e-05,5e-05,0,4,6
15875,7e-05,-2e-05,-0.00015,-0.00083,-0.00019,-5e-05,5e-05,0,4,6
15876,7e-05,-2e-05,-0.00015,-0.00083,-0.00019,-5e-05,5e-05,0,4,6
15877,7e-05,-2e-05,-0.00015,-0.00083,-0.00019,-5e-05,5e-05,0,4,6
15878,7e-05,-2e-05,-0.00015,-0.00083,-0.00019,-5e-05,5e-05,0,4,6
15879,7e-05,-2e-05,-0.00015,-0.00083,-0.00019,-5e-05,5e-05,0,4,6
15880,7e-05,-2e-05,-0.00015,-0.00083,-0.00019,-5e-05,5e-05,0,4,6
15881,7e-05,-2e-05,-0.00015,-0.00083,-0.00019,-5e-05,5e-05,0,4,6
15882,7e-05,-2e-05,-0.00015,-0.00083,-0.00019,-5e-05,5e-05,0,4,6
15883,7e-05,-2e-05,-0.00015,-0.00083,-0.00019,-5e-05,5e-05,0,4,6
15884,7e-05,-2e-05,-0.00015,-0.00083,-0.00019,-5e-05,5e-05,0,4,6
15885,7e-05,-2e-05,-0.00015,-0.00083,-0.00019,-5e-05,5e-05,0,4,6
15888,7e-05,-2e-05,-0.00015,-0.00083,-0.00019,-5e-05,5e-05,0,4,6
15892,7e-05,-2e-05,-0.00015,-0.00083,-0.00019,-5e-05,5e-05,0,4,6
15893,7e-05,-2e-05,-0.00015,-0.00083,-0.00019,-5e-05,5e-05,0,4,6
15894,2e-05,0.00014,0.00011,0.00043,0.00031,7e-05,5e-05,1e-05,4,6
15895,2e-05,0,-9e-05,-0.00036,2e-05,1e-05,-3e-05,1e-05,4,6
15896,2e-05,0,-9e-05,-0.00036,2e-05,1e-05,-3e-05,1e-05,4,6
15897,2e-05,0,-9e-05,-0.00036,2e-05,1e-05,-3e-05,1e-05,4,6
15898,2e-05,0,-9e-05,-0.00036,2e-05,1e-05,-3e-05,1e-05,4,6
15899,2e-05,0,-9e-05,-0.00036,2e-05,1e-05,-3e-05,1e-05,4,6
15900,2e-05,0,-9e-05,-0.00036,2e-05,1e-05,-3e-05,1e-05,4,6
15901,2e-05,0,-9e-05,-0.00036,2e-05,1e-05,-3e-05,1e-05,4,6
15905,2e-05,0,-9e-05,-0.00036,2e-05,1e-05,-3e-05,1e-05,4,6
15906,2e-05,0,-9e-05,-0.00036,2e-05,1e-05,-3e-05,1e-05,4,6
15907,2e-05,0,-9e-05,-0.00036,2e-05,1e-05,-3e-05,1e-05,4,6
15908,2e-05,0,-9e-05,-0.00036,2e-05,1e-05,-3e-05,1e-05,4,6
15909,2e-05,0,-9e-05,-0.00036,2e-05,1e-05,-3e-05,1e-05,4,6
15911,2e-05,0,-9e-05,-0.00036,2e-05,1e-05,-3e-05,1e-05,4,6
15912,2e-05,0,-9e-05,-0.00036,2e-05,1e-05,-3e-05,1e-05,4,6
15913,2e-05,0,-9e-05,-0.00036,2e-05,1e-05,-3e-05,1e-05,4,6
15914,2e-05,0,-9e-05,-0.00036,2e-05,1e-05,-3e-05,1e-05,4,6
15915,2e-05,0,-9e-05,-0.00036,2e-05,1e-05,-3e-05,1e-05,4,6
15916,2e-05,0,-9e-05,-0.00036,2e-05,1e-05,-3e-05,1e-05,4,6
15917,2e-05,0,-9e-05,-0.00036,2e-05,1e-05,-3e-05,1e-05,4,6
15918,2e-05,0,-9e-05,-0.00036,2e-05,1e-05,-3e-05,1e-05,4,6
15921,2e-05,0,-9e-05,-0.00036,2e-05,1e-05,-3e-05,1e-05,4,6
15922,-2e-05,-9e-05,5e-05,6e-05,0.00021,2e-05,3e-05,-3e-05,4,6
15923,-2e-05,-9e-05,5e-05,6e-05,0.00021,2e-05,3e-05,-3e-05,4,6
15924,-2e-05,-9e-05,5e-05,6e-05,0.00021,2e-05,3e-05,-3e-05,4,6
15925,-2e-05,-9e-05,5e-05,6e-05,0.00021,2e-05,3e-05,-3e-05,4,6
15926,-2e-05,-9e-05,5e-05,6e-05,0.00021,2e-05,3e-05,-3e-05,4,6
15927,-2e-05,-9e-05,5e-05,6e-05,0.00021,2e-05,3e-05,-3e-05,4,6
15928,-2e-05,-9e-05,5e-05,6e-05,0.00021,2e-05,3e-05,-3e-05,4,6
15929,-2e-05,-9e-05,5e-05,6e-05,0.00021,2e-05,3e-05,-3e-05,4,6
15930,-2e-05,-9e-05,5e-05,6e-05,0.00021,2e-05,3e-05,-3e-05,4,6
15931,-2e-05,-9e-05,5e-05,6e-05,0.00021,2e-05,3e-05,-3e-05,4,6
15932,4e-05,4e-05,-4e-05,-0.00023,-2e-05,-9e-05,2e-05,0,4,6
15933,-3e-05,8e-05,0.00013,0.00035,0.0003,-1e-05,3e-05,-2e-05,4,6
15934,-3e-05,8e-05,0.00013,0.00035,0.0003,-1e-05,3e-05,-2e-05,4,6
15935,-3e-05,8e-05,0.00013,0.00035,0.0003,-1e-05,3e-05,-2e-05,4,6
15938,-3e-05,8e-05,0.00013,0.00035,0.0003,-1e-05,3e-05,-2e-05,4,6
15942,-3e-05,8e-05,0.00013,0.00035,0.0003,-1e-05,3e-05,-2e-05,4,6
15943,-3e-05,8e-05,0.00013,0.00035,0.0003,-1e-05,3e-05,-2e-05,4,6
15944,-3e-05,8e-05,0.00013,0.00035,0.0003,-1e-05,3e-05,-2e-05,4,6
15945,-3e-05,8e-05,0.00013,0.00035,0.0003,-1e-05,3e-05,-2e-05,4,6
15946,-3e-05,8e-05,0.00013,0.00035,0.0003,-1e-05,3e-05,-2e-05,4,6
15947,-3e-05,8e-05,0.00013,0.00035,0.0003,-1e-05,3e-05,-2e-05,4,6
15948,-3e-05,8e-05,0.00013,0.00035,0.0003,-1e-05,3e-05,-2e-05,4,6
15949,-3e-05,8e-05,0.00013,0.00035,0.0003,-1e-05,3e-05,-2e-05,4,6
15950,-3e-05,8e-05,0.00013,0.00035,0.0003,-1e-05,3e-05,-2e-05,4,6
15951,-3e-05,8e-05,0.00013,0.00035,0.0003,-1e-05,3e-05,-2e-05,4,6
15952,-3e-05,8e-05,0.00013,0.00035,0.0003,-1e-05,3e-05,-2e-05,4,6
15954,-3e-05,8e-05,0.00013,0.00035,0.0003,-1e-05,3e-05,-2e-05,4,6
15956,7e-05,3e-05,5e-05,0.00014,-7e-05,-7e-05,-4e-05,5e-05,4,6
15957,-5e-05,-3e-05,-7e-05,-0.00024,-0.00017,-0.00026,-8e-05,-8e-05,4,6
15958,-6e-05,-8e-05,-1e-05,0.00016,-0.00051,-0.00018,-0.0001,-7e-05,4,6
15959,-6e-05,-8e-05,-1e-05,0.00016,-0.00051,-0.00018,-0.0001,-7e-05,4,6
15960,-6e-05,-8e-05,-1e-05,0.00016,-0.00051,-0.00018,-0.0001,-7e-05,4,6
15961,-6e-05,-8e-05,-1e-05,0.00016,-0.00051,-0.00018,-0.0001,-7e-05,4,6
15962,-6e-05,-8e-05,-1e-05,0.00016,-0.00051,-0.00018,-0.0001,-7e-05,4,6
15963,-6e-05,-8e-05,-1e-05,0.00016,-0.00051,-0.00018,-0.0001,-7e-05,4,6
15964,-6e-05,-8e-05,-1e-05,0.00016,-0.00051,-0.00018,-0.0001,-7e-05,4,6
15965,-6e-05,-8e-05,-1e-05,0.00016,-0.00051,-0.00018,-0.0001,-7e-05,4,6
15966,-6e-05,-8e-05,-1e-05,0.00016,-0.00051,-0.00018,-0.0001,-7e-05,4,6
15967,-6e-05,-8e-05,-1e-05,0.00016,-0.00051,-0.00018,-0.0001,-7e-05,4,6
15968,-6e-05,-8e-05,-1e-05,0.00016,-0.00051,-0.00018,-0.0001,-7e-05,4,6
15971,3e-05,0.00011,-7e-05,-0.00035,-9e-05,5e-05,4e-05,6e-05,4,6
15972,3e-05,0.00011,-7e-05,-0.00035,-9e-05,5e-05,4e-05,6e-05,4,6
15973,3e-05,0.00011,-7e-05,-0.00035,-9e-05,5e-05,4e-05,6e-05,4,6
15974,3e-05,0.00011,-7e-05,-0.00035,-9e-05,5e-05,4e-05,6e-05,4,6
15975,3e-05,0.00011,-7e-05,-0.00035,-9e-05,5e-05,4e-05,6e-05,4,6
15976,3e-05,0.00011,-7e-05,-0.00035,-9e-05,5e-05,4e-05,6e-05,4,6
15977,0,1e-05,6e-05,0.00028,0.00021,6e-05,-3e-05,3e-05,4,6
15978,0,1e-05,6e-05,0.00028,0.00021,6e-05,-3e-05,3e-05,4,6
15979,0,1e-05,6e-05,0.00028,0.00021,6e-05,-3e-05,3e-05,4,6
15980,0,1e-05,6e-05,0.00028,0.00021,6e-05,-3e-05,3e-05,4,6
15981,0,1e-05,6e-05,0.00028,0.00021,6e-05,-3e-05,3e-05,4,6
15982,0,1e-05,6e-05,0.00028,0.00021,6e-05,-3e-05,3e-05,4,6
15983,0,1e-05,6e-05,0.00028,0.00021,6e-05,-3e-05,3e-05,4,6
15984,0,1e-05,6e-05,0.00028,0.00021,6e-05,-3e-05,3e-05,4,6
15985,0,1e-05,6e-05,0.00028,0.00021,6e-05,-3e-05,3e-05,4,6
15988,0,1e-05,6e-05,0.00028,0.00021,6e-05,-3e-05,3e-05,4,6
15993,0,1e-05,6e-05,0.00028,0.00021,6e-05,-3e-05,3e-05,4,6
15994,0,1e-05,6e-05,0.00028,0.00021,6e-05,-3e-05,3e-05,4,6
15995,0,1e-05,6e-05,0.00028,0.00021,6e-05,-3e-05,3e-05,4,6
15996,0,1e-05,6e-05,0.00028,0.00021,6e-05,-3e-05,3e-05,4,6
15997,0,1e-05,6e-05,0.00028,0.00021,6e-05,-3e-05,3e-05,4,6
15998,0,1e-05,6e-05,0.00028,0.00021,6e-05,-3e-05,3e-05,4,6
15999,0,1e-05,6e-05,0.00028,0.00021,6e-05,-3e-05,3e-05,4,6
16000,0,1e-05,6e-05,0.00028,0.00021,6e-05,-3e-05,3e-05,4,6
16001,0,1e-05,6e-05,0.00028,0.00021,6e-05,-3e-05,3e-05,4,6
16002,0,1e-05,6e-05,0.00028,0.00021,6e-05,-3e-05,3e-05,4,6
16004,0,1e-05,6e-05,0.00028,0.00021,6e-05,-3e-05,3e-05,4,6
16005,0,1e-05,6e-05,0.00028,0.00021,6e-05,-3e-05,3e-05,4,6
16006,0,1e-05,6e-05,0.00028,0.00021,6e-05,-3e-05,3e-05,4,6
16007,0,1e-05,6e-05,0.00028,0.00021,6e-05,-3e-05,3e-05,4,6
16008,-1e-05,-0.00021,-0.00022,-0.0003,6e-05,0.00012,0,-6e-05,4,6
16010,3e-05,7e-05,2e-05,-0.00039,4e-05,-5e-05,-2e-05,-1e-05,4,6
16011,3e-05,7e-05,2e-05,-0.00039,4e-05,-5e-05,-2e-05,-1e-05,4,6
16012,3e-05,7e-05,2e-05,-0.00039,4e-05,-5e-05,-2e-05,-1e-05,4,6
16013,3e-05,7e-05,2e-05,-0.00039,4e-05,-5e-05,-2e-05,-1e-05,4,6
16014,-6e-05,2e-05,7e-05,0.00021,0.00048,3e-05,-3e-05,-2e-05,4,6
16015,-2e-05,-0.0001,-0.00013,-0.00043,-0.00025,1e-05,-7e-05,-0.00013,4,6
16016,-2e-05,-0.0001,-0.00013,-0.00043,-0.00025,1e-05,-7e-05,-0.00013,4,6
16017,-2e-05,-0.0001,-0.00013,-0.00043,-0.00025,1e-05,-7e-05,-0.00013,4,6
16018,-2e-05,-0.0001,-0.00013,-0.00043,-0.00025,1e-05,-7e-05,-0.00013,4,6
16019,-2e-05,-0.0001,-0.00013,-0.00043,-0.00025,1e-05,-7e-05,-0.00013,4,6
16021,-2e-05,-0.0001,-0.00013,-0.00043,-0.00025,1e-05,-7e-05,-0.00013,4,6
16022,-2e-05,-0.0001,-0.00013,-0.00043,-0.00025,1e-05,-7e-05,-0.00013,4,6
16023,-2e-05,-0.0001,-0.00013,-0.00043,-0.00025,1e-05,-7e-05,-0.00013,4,6
16024,-2e-05,-0.0001,-0.00013,-0.00043,-0.00025,1e-05,-7e-05,-0.00013,4,6
16025,-2e-05,-0.0001,-0.00013,-0.00043,-0.00025,1e-05,-7e-05,-0.00013,4,6
16026,-2e-05,-0.0001,-0.00013,-0.00043,-0.00025,1e-05,-7e-05,-0.00013,4,6
16027,-2e-05,-0.0001,-0.00013,-0.00043,-0.00025,1e-05,-7e-05,-0.00013,4,6
16028,-2e-05,-0.0001,-0.00013,-0.00043,-0.00025,1e-05,-7e-05,-0.00013,4,6
16029,-2e-05,-0.0001,-0.00013,-0.00043,-0.00025,1e-05,-7e-05,-0.00013,4,6
16030,-2e-05,-0.0001,-0.00013,-0.00043,-0.00025,1e-05,-7e-05,-0.00013,4,6
16031,-2e-05,-0.0001,-0.00013,-0.00043,-0.00025,1e-05,-7e-05,-0.00013,4,6
16032,-2e-05,-0.0001,-0.00013,-0.00043,-0.00025,1e-05,-7e-05,-0.00013,4,6
16033,-2e-05,-0.0001,-0.00013,-0.00043,-0.00025,1e-05,-7e-05,-0.00013,4,6
16034,-2e-05,-0.0001,-0.00013,-0.00043,-0.00025,1e-05,-7e-05,-0.00013,4,6
16035,-2e-05,-0.0001,-0.00013,-0.00043,-0.00025,1e-05,-7e-05,-0.00013,4,6
16036,-2e-05,-0.0001,-0.00013,-0.00043,-0.00025,1e-05,-7e-05,-0.00013,4,6
16040,4e-05,9e-05,4e-05,-0.00022,-8e-05,-0.00011,0.00022,6e-05,4,6
16041,0,0.00014,0.00017,0.00067,0.00072,0.00057,0.00014,0.00012,4,6
16042,0,0.00014,0.00017,0.00067,0.00072,0.00057,0.00014,0.00012,4,6
16043,0,0.00014,0.00017,0.00067,0.00072,0.00057,0.00014,0.00012,4,6
16044,0,0.00014,0.00017,0.00067,0.00072,0.00057,0.00014,0.00012,4,6
16045,0,0.00014,0.00017,0.00067,0.00072,0.00057,0.00014,0.00012,4,6
16046,0,0.00014,0.00017,0.00067,0.00072,0.00057,0.00014,0.00012,4,6
16047,0,0.00014,0.00017,0.00067,0.00072,0.00057,0.00014,0.00012,4,6
16048,0,0.00014,0.00017,0.00067,0.00072,0.00057,0.00014,0.00012,4,6
16049,0,0.00014,0.00017,0.00067,0.00072,0.00057,0.00014,0.00012,4,6
16050,0,0.00014,0.00017,0.00067,0.00072,0.00057,0.00014,0.00012,4,6
16051,0,0.00014,0.00017,0.00067,0.00072,0.00057,0.00014,0.00012,4,6
16052,0,0.00014,0.00017,0.00067,0.00072,0.00057,0.00014,0.00012,4,6
16053,0,0.00014,0.00017,0.00067,0.00072,0.00057,0.00014,0.00012,4,6
16054,0,0.00014,0.00017,0.00067,0.00072,0.00057,0.00014,0.00012,4,6
16055,0,0.00014,0.00017,0.00067,0.00072,0.00057,0.00014,0.00012,4,6
16056,0,0.00014,0.00017,0.00067,0.00072,0.00057,0.00014,0.00012,4,6
16057,0,0.00014,0.00017,0.00067,0.00072,0.00057,0.00014,0.00012,4,6
16058,0,0.00014,0.00017,0.00067,0.00072,0.00057,0.00014,0.00012,4,6
16059,0,0.00014,0.00017,0.00067,0.00072,0.00057,0.00014,0.00012,4,6
16060,-2e-05,2e-05,-3e-05,3e-05,-0.00023,-8e-05,-2e-05,-2e-05,4,6
16061,0.00016,0.00032,0.00037,0.00074,0.00054,0.00036,0.00018,0.00018,4,6
16062,0.00016,0.00032,0.00037,0.00074,0.00054,0.00036,0.00018,0.00018,4,6
16063,0.00016,0.00032,0.00037,0.00074,0.00054,0.00036,0.00018,0.00018,4,6
16064,0.00016,0.00032,0.00037,0.00074,0.00054,0.00036,0.00018,0.00018,4,6
16065,0.00016,0.00032,0.00037,0.00074,0.00054,0.00036,0.00018,0.00018,4,6
16066,0.00016,0.00032,0.00037,0.00074,0.00054,0.00036,0.00018,0.00018,4,6
16067,0.00016,0.00032,0.00037,0.00074,0.00054,0.00036,0.00018,0.00018,4,6
16068,0.00016,0.00032,0.00037,0.00074,0.00054,0.00036,0.00018,0.00018,4,6
16071,0.00016,0.00032,0.00037,0.00074,0.00054,0.00036,0.00018,0.00018,4,6
16073,0.00016,0.00032,0.00037,0.00074,0.00054,0.00036,0.00018,0.00018,4,6
16074,0.00016,0.00032,0.00037,0.00074,0.00054,0.00036,0.00018,0.00018,4,6
16075,0.00016,0.00032,0.00037,0.00074,0.00054,0.00036,0.00018,0.00018,4,6
16076,0.00016,0.00032,0.00037,0.00074,0.00054,0.00036,0.00018,0.00018,4,6
16077,0.00016,0.00032,0.00037,0.00074,0.00054,0.00036,0.00018,0.00018,4,6
16078,0.00016,0.00032,0.00037,0.00074,0.00054,0.00036,0.00018,0.00018,4,6
16079,0.00016,0.00032,0.00037,0.00074,0.00054,0.00036,0.00018,0.00018,4,6
16080,0.00016,0.00032,0.00037,0.00074,0.00054,0.00036,0.00018,0.00018,4,6
16081,0.00016,0.00032,0.00037,0.00074,0.00054,0.00036,0.00018,0.00018,4,6
16082,7e-05,4e-05,0.00018,0.00025,0,6e-05,-1e-05,0.00012,4,6
16083,0,-2e-05,-5e-05,-0.00048,-0.00052,-0.0002,0,-1e-05,4,6
16084,0,-2e-05,-5e-05,-0.00048,-0.00052,-0.0002,0,-1e-05,4,6
16085,0,-2e-05,-5e-05,-0.00048,-0.00052,-0.0002,0,-1e-05,4,6
16086,0,-2e-05,-5e-05,-0.00048,-0.00052,-0.0002,0,-1e-05,4,6
16091,0,-2e-05,-5e-05,-0.00048,-0.00052,-0.0002,0,-1e-05,4,6
16093,0,-2e-05,-5e-05,-0.00048,-0.00052,-0.0002,0,-1e-05,4,6
16094,0,-2e-05,-5e-05,-0.00048,-0.00052,-0.0002,0,-1e-05,4,6
16095,0,-2e-05,-5e-05,-0.00048,-0.00052,-0.0002,0,-1e-05,4,6
16096,0,-2e-05,-5e-05,-0.00048,-0.00052,-0.0002,0,-1e-05,4,6
16097,0,-2e-05,-5e-05,-0.00048,-0.00052,-0.0002,0,-1e-05,4,6
16098,-4e-05,-8e-05,-0.0001,-0.00041,-0.00025,-0.00026,-1e-05,-1e-05,4,6
16099,-4e-05,-8e-05,-0.0001,-0.00041,-0.00025,-0.00026,-1e-05,-1e-05,4,6
16100,-4e-05,-8e-05,-0.0001,-0.00041,-0.00025,-0.00026,-1e-05,-1e-05,4,6
16101,-4e-05,-8e-05,-0.0001,-0.00041,-0.00025,-0.00026,-1e-05,-1e-05,4,6
16102,-4e-05,-8e-05,-0.0001,-0.00041,-0.00025,-0.00026,-1e-05,-1e-05,4,6
16103,-4e-05,-8e-05,-0.0001,-0.00041,-0.00025,-0.00026,-1e-05,-1e-05,4,6
16104,-4e-05,-8e-05,-0.0001,-0.00041,-0.00025,-0.00026,-1e-05,-1e-05,4,6
16105,-4e-05,-8e-05,-0.0001,-0.00041,-0.00025,-0.00026,-1e-05,-1e-05,4,6
16106,-4e-05,-8e-05,-0.0001,-0.00041,-0.00025,-0.00026,-1e-05,-1e-05,4,6
16107,-4e-05,-8e-05,-0.0001,-0.00041,-0.00025,-0.00026,-1e-05,-1e-05,4,6
16108,-4e-05,-8e-05,-0.0001,-0.00041,-0.00025,-0.00026,-1e-05,-1e-05,4,6
16109,-4e-05,-8e-05,-0.0001,-0.00041,-0.00025,-0.00026,-1e-05,-1e-05,4,6
16110,-4e-05,-8e-05,-0.0001,-0.00041,-0.00025,-0.00026,-1e-05,-1e-05,4,6
16111,-4e-05,-8e-05,-0.0001,-0.00041,-0.00025,-0.00026,-1e-05,-1e-05,4,6
16112,-4e-05,-8e-05,-0.0001,-0.00041,-0.00025,-0.00026,-1e-05,-1e-05,4,6
16113,-4e-05,-8e-05,-0.0001,-0.00041,-0.00025,-0.00026,-1e-05,-1e-05,4,6
16114,-4e-05,-8e-05,-0.0001,-0.00041,-0.00025,-0.00026,-1e-05,-1e-05,4,6
16115,-4e-05,-8e-05,-0.0001,-0.00041,-0.00025,-0.00026,-1e-05,-1e-05,4,6
16116,-4e-05,-8e-05,-0.0001,-0.00041,-0.00025,-0.00026,-1e-05,-1e-05,4,6
16117,-4e-05,-8e-05,-0.0001,-0.00041,-0.00025,-0.00026,-1e-05,-1e-05,4,6
16118,-4e-05,-8e-05,-0.0001,-0.00041,-0.00025,-0.00026,-1e-05,-1e-05,4,6
16119,-4e-05,-8e-05,-0.0001,-0.00041,-0.00025,-0.00026,-1e-05,-1e-05,4,6
16121,-4e-05,-8e-05,-0.0001,-0.00041,-0.00025,-0.00026,-1e-05,-1e-05,4,6
16122,1e-05,-7e-05,-6e-05,-0.00019,-0.00014,-7e-05,-2e-05,-1e-05,4,6
16123,-8e-05,-0.00014,-0.00011,-0.00012,-0.00022,-0.0001,-0.0001,-5e-05,4,6
16124,-8e-05,-0.00014,-0.00011,-0.00012,-0.00022,-0.0001,-0.0001,-5e-05,4,6
16125,-8e-05,-0.00014,-0.00011,-0.00012,-0.00022,-0.0001,-0.0001,-5e-05,4,6
16126,-8e-05,-0.00014,-0.00011,-0.00012,-0.00022,-0.0001,-0.0001,-5e-05,4,6
16127,-8e-05,-0.00014,-0.00011,-0.00012,-0.00022,-0.0001,-0.0001,-5e-05,4,6
16128,-8e-05,-0.00014,-0.00011,-0.00012,-0.00022,-0.0001,-0.0001,-5e-05,4,6
16129,-8e-05,-0.00014,-0.00011,-0.00012,-0.00022,-0.0001,-0.0001,-5e-05,4,6
16130,-8e-05,-0.00014,-0.00011,-0.00012,-0.00022,-0.0001,-0.0001,-5e-05,4,6
16131,-8e-05,-0.00014,-0.00011,-0.00012,-0.00022,-0.0001,-0.0001,-5e-05,4,6
16132,-8e-05,-0.00014,-0.00011,-0.00012,-0.00022,-0.0001,-0.0001,-5e-05,4,6
16133,-8e-05,-0.00014,-0.00011,-0.00012,-0.00022,-0.0001,-0.0001,-5e-05,4,6
16134,-8e-05,-0.00014,-0.00011,-0.00012,-0.00022,-0.0001,-0.0001,-5e-05,4,6
16135,-8e-05,-0.00014,-0.00011,-0.00012,-0.00022,-0.0001,-0.0001,-5e-05,4,6
16139,3e-05,3e-05,2e-05,-6e-05,0.00048,0.00017,6e-05,1e-05,4,6
16143,1e-05,2e-05,-5e-05,-0.00014,9e-05,-0.00028,-3e-05,-2e-05,4,6
16145,-4e-05,-2e-05,-3e-05,3e-05,-0.00015,-2e-05,8e-05,3e-05,4,6
16146,-4e-05,-2e-05,-3e-05,3e-05,-0.00015,-2e-05,8e-05,3e-05,4,6
16147,-4e-05,-2e-05,-3e-05,3e-05,-0.00015,-2e-05,8e-05,3e-05,4,6
16148,-4e-05,-2e-05,-3e-05,3e-05,-0.00015,-2e-05,8e-05,3e-05,4,6
16149,-4e-05,-2e-05,-3e-05,3e-05,-0.00015,-2e-05,8e-05,3e-05,4,6
16150,-4e-05,-7e-05,-6e-05,-0.00032,-0.00031,-0.00012,-6e-05,-5e-05,4,6
16151,-4e-05,-7e-05,-6e-05,-0.00032,-0.00031,-0.00012,-6e-05,-5e-05,4,6
16152,-4e-05,-7e-05,-6e-05,-0.00032,-0.00031,-0.00012,-6e-05,-5e-05,4,6
16153,-4e-05,-7e-05,-6e-05,-0.00032,-0.00031,-0.00012,-6e-05,-5e-05,4,6
16155,-4e-05,-7e-05,-6e-05,-0.00032,-0.00031,-0.00012,-6e-05,-5e-05,4,6
16156,-4e-05,-7e-05,-6e-05,-0.00032,-0.00031,-0.00012,-6e-05,-5e-05,4,6
16157,-4e-05,5e-05,9e-05,2e-05,0.00012,0.0002,8e-05,-4e-05,4,6
16160,-7e-05,-0.00018,-0.00037,0,-1e-05,-0.00016,-0.00011,-9e-05,4,6
16161,-7e-05,-0.00018,-0.00037,0,-1e-05,-0.00016,-0.00011,-9e-05,4,6
16162,-7e-05,-0.00018,-0.00037,0,-1e-05,-0.00016,-0.00011,-9e-05,4,6
16163,-7e-05,-0.00018,-0.00037,0,-1e-05,-0.00016,-0.00011,-9e-05,4,6
16164,-7e-05,-0.00018,-0.00037,0,-1e-05,-0.00016,-0.00011,-9e-05,4,6
16165,-7e-05,-0.00018,-0.00037,0,-1e-05,-0.00016,-0.00011,-9e-05,4,6
16166,-7e-05,-0.00018,-0.00037,0,-1e-05,-0.00016,-0.00011,-9e-05,4,6
16167,-7e-05,-0.00018,-0.00037,0,-1e-05,-0.00016,-0.00011,-9e-05,4,6
16168,-7e-05,-0.00018,-0.00037,0,-1e-05,-0.00016,-0.00011,-9e-05,4,6
16169,-7e-05,-0.00018,-0.00037,0,-1e-05,-0.00016,-0.00011,-9e-05,4,6
16171,-7e-05,-0.00018,-0.00037,0,-1e-05,-0.00016,-0.00011,-9e-05,4,6
16172,-7e-05,-0.00018,-0.00037,0,-1e-05,-0.00016,-0.00011,-9e-05,4,6
16173,1e-05,5e-05,0.00013,-4e-05,-0.00054,-0.00013,-4e-05,-4e-05,4,6
16174,1e-05,5e-05,0.00013,-4e-05,-0.00054,-0.00013,-4e-05,-4e-05,4,6
16175,1e-05,5e-05,0.00013,-4e-05,-0.00054,-0.00013,-4e-05,-4e-05,4,6
16176,1e-05,5e-05,0.00013,-4e-05,-0.00054,-0.00013,-4e-05,-4e-05,4,6
16177,1e-05,5e-05,0.00013,-4e-05,-0.00054,-0.00013,-4e-05,-4e-05,4,6
16178,1e-05,5e-05,0.00013,-4e-05,-0.00054,-0.00013,-4e-05,-4e-05,4,6
16179,1e-05,5e-05,0.00013,-4e-05,-0.00054,-0.00013,-4e-05,-4e-05,4,6
16180,1e-05,5e-05,0.00013,-4e-05,-0.00054,-0.00013,-4e-05,-4e-05,4,6
16181,1e-05,5e-05,0.00013,-4e-05,-0.00054,-0.00013,-4e-05,-4e-05,4,6
16182,1e-05,5e-05,0.00013,-4e-05,-0.00054,-0.00013,-4e-05,-4e-05,4,6
16183,1e-05,5e-05,0.00013,-4e-05,-0.00054,-0.00013,-4e-05,-4e-05,4,6
16184,1e-05,5e-05,0.00013,-4e-05,-0.00054,-0.00013,-4e-05,-4e-05,4,6
16185,1e-05,5e-05,0.00013,-4e-05,-0.00054,-0.00013,-4e-05,-4e-05,4,6
16187,1e-05,5e-05,0.00013,-4e-05,-0.00054,-0.00013,-4e-05,-4e-05,4,6
16193,1e-05,5e-05,0.00013,-4e-05,-0.00054,-0.00013,-4e-05,-4e-05,4,6
16195,1e-05,5e-05,0.00013,-4e-05,-0.00054,-0.00013,-4e-05,-4e-05,4,6
16196,1e-05,5e-05,0.00013,-4e-05,-0.00054,-0.00013,-4e-05,-4e-05,4,6
16197,1e-05,5e-05,0.00013,-4e-05,-0.00054,-0.00013,-4e-05,-4e-05,4,6
16198,1e-05,5e-05,0.00013,-4e-05,-0.00054,-0.00013,-4e-05,-4e-05,4,6
16199,1e-05,5e-05,0.00013,-4e-05,-0.00054,-0.00013,-4e-05,-4e-05,4,6
16200,1e-05,5e-05,0.00013,-4e-05,-0.00054,-0.00013,-4e-05,-4e-05,4,6
16201,1e-05,5e-05,0.00013,-4e-05,-0.00054,-0.00013,-4e-05,-4e-05,4,6
16202,-3e-05,6e-05,-9e-05,-0.00024,-0.00028,-0.00012,-4e-05,-3e-05,4,6
16203,-3e-05,6e-05,-9e-05,-0.00024,-0.00028,-0.00012,-4e-05,-3e-05,4,6
16204,-3e-05,6e-05,-9e-05,-0.00024,-0.00028,-0.00012,-4e-05,-3e-05,4,6
16205,-4e-05,-0.0001,-0.00014,-0.00018,0,-3e-05,-1e-05,-5e-05,4,6
16206,-4e-05,-0.0001,-0.00014,-0.00018,0,-3e-05,-1e-05,-5e-05,4,6
16207,-4e-05,-0.0001,-0.00014,-0.00018,0,-3e-05,-1e-05,-5e-05,4,6
16208,-4e-05,-0.0001,-0.00014,-0.00018,0,-3e-05,-1e-05,-5e-05,4,6
16209,0,-4e-05,8e-05,0.00023,-7e-05,0.00011,1e-05,-4e-05,4,6
16210,0,-4e-05,8e-05,0.00023,-7e-05,0.00011,1e-05,-4e-05,4,6
16211,0,-4e-05,8e-05,0.00023,-7e-05,0.00011,1e-05,-4e-05,4,6
16212,0,-4e-05,8e-05,0.00023,-7e-05,0.00011,1e-05,-4e-05,4,6
16213,0,-4e-05,8e-05,0.00023,-7e-05,0.00011,1e-05,-4e-05,4,6
16214,0,-4e-05,8e-05,0.00023,-7e-05,0.00011,1e-05,-4e-05,4,6
16215,0,-4e-05,8e-05,0.00023,-7e-05,0.00011,1e-05,-4e-05,4,6
16216,0,-4e-05,8e-05,0.00023,-7e-05,0.00011,1e-05,-4e-05,4,6
16217,0,6e-05,6e-05,0.00036,0.00058,0.00021,2e-05,-2e-05,4,6
16218,0,6e-05,6e-05,0.00036,0.00058,0.00021,2e-05,-2e-05,4,6
16219,0,6e-05,6e-05,0.00036,0.00058,0.00021,2e-05,-2e-05,4,6
16221,0,6e-05,6e-05,0.00036,0.00058,0.00021,2e-05,-2e-05,4,6
16222,0,6e-05,6e-05,0.00036,0.00058,0.00021,2e-05,-2e-05,4,6
16225,0,6e-05,6e-05,0.00036,0.00058,0.00021,2e-05,-2e-05,4,6
16226,0,6e-05,6e-05,0.00036,0.00058,0.00021,2e-05,-2e-05,4,6
16227,0,6e-05,6e-05,0.00036,0.00058,0.00021,2e-05,-2e-05,4,6
16228,0,6e-05,6e-05,0.00036,0.00058,0.00021,2e-05,-2e-05,4,6
16229,0,6e-05,6e-05,0.00036,0.00058,0.00021,2e-05,-2e-05,4,6
16230,0,6e-05,6e-05,0.00036,0.00058,0.00021,2e-05,-2e-05,4,6
16231,0,6e-05,6e-05,0.00036,0.00058,0.00021,2e-05,-2e-05,4,6
16232,-7e-05,-3e-05,-3e-05,-0.00041,-0.00026,-0.00016,-0.00022,-0.00033,4,6
16233,-7e-05,-3e-05,-3e-05,-0.00041,-0.00026,-0.00016,-0.00022,-0.00033,4,6
16234,-7e-05,-3e-05,-3e-05,-0.00041,-0.00026,-0.00016,-0.00022,-0.00033,4,6
16235,-7e-05,-3e-05,-3e-05,-0.00041,-0.00026,-0.00016,-0.00022,-0.00033,4,6
16236,-7e-05,-3e-05,-3e-05,-0.00041,-0.00026,-0.00016,-0.00022,-0.00033,4,6
16241,-7e-05,-3e-05,-3e-05,-0.00041,-0.00026,-0.00016,-0.00022,-0.00033,4,6
16242,-7e-05,-3e-05,-3e-05,-0.00041,-0.00026,-0.00016,-0.00022,-0.00033,4,6
16243,-7e-05,-3e-05,-3e-05,-0.00041,-0.00026,-0.00016,-0.00022,-0.00033,4,6
16244,-7e-05,-3e-05,-3e-05,-0.00041,-0.00026,-0.00016,-0.00022,-0.00033,4,6
16245,-7e-05,-3e-05,-3e-05,-0.00041,-0.00026,-0.00016,-0.00022,-0.00033,4,6
16246,-7e-05,-3e-05,-3e-05,-0.00041,-0.00026,-0.00016,-0.00022,-0.00033,4,6
16247,-7e-05,-3e-05,-3e-05,-0.00041,-0.00026,-0.00016,-0.00022,-0.00033,4,6
16248,-7e-05,-3e-05,-3e-05,-0.00041,-0.00026,-0.00016,-0.00022,-0.00033,4,6
16249,-7e-05,-3e-05,-3e-05,-0.00041,-0.00026,-0.00016,-0.00022,-0.00033,4,6
16250,-7e-05,-3e-05,-3e-05,-0.00041,-0.00026,-0.00016,-0.00022,-0.00033,4,6
16251,-7e-05,-3e-05,-3e-05,-0.00041,-0.00026,-0.00016,-0.00022,-0.00033,4,6
16252,-7e-05,-3e-05,-3e-05,-0.00041,-0.00026,-0.00016,-0.00022,-0.00033,4,6
16253,-7e-05,-3e-05,-3e-05,-0.00041,-0.00026,-0.00016,-0.00022,-0.00033,4,6
16255,-7e-05,-3e-05,-3e-05,-0.00041,-0.00026,-0.00016,-0.00022,-0.00033,4,6
16256,3e-05,4e-05,0.00022,3e-05,8e-05,0.00014,0.00012,0.00013,4,6
16257,3e-05,4e-05,0.00022,3e-05,8e-05,0.00014,0.00012,0.00013,4,6
16258,3e-05,4e-05,0.00022,3e-05,8e-05,0.00014,0.00012,0.00013,4,6
16259,3e-05,4e-05,0.00022,3e-05,8e-05,0.00014,0.00012,0.00013,4,6
16260,3e-05,4e-05,0.00022,3e-05,8e-05,0.00014,0.00012,0.00013,4,6
16261,3e-05,4e-05,0.00022,3e-05,8e-05,0.00014,0.00012,0.00013,4,6
16262,3e-05,4e-05,0.00022,3e-05,8e-05,0.00014,0.00012,0.00013,4,6
16263,3e-05,4e-05,0.00022,3e-05,8e-05,0.00014,0.00012,0.00013,4,6
16264,3e-05,4e-05,0.00022,3e-05,8e-05,0.00014,0.00012,0.00013,4,6
16265,3e-05,4e-05,0.00022,3e-05,8e-05,0.00014,0.00012,0.00013,4,6
16266,3e-05,4e-05,0.00022,3e-05,8e-05,0.00014,0.00012,0.00013,4,6
16267,3e-05,4e-05,0.00022,3e-05,8e-05,0.00014,0.00012,0.00013,4,6
16268,3e-05,4e-05,0.00022,3e-05,8e-05,0.00014,0.00012,0.00013,4,6
16269,3e-05,4e-05,0.00022,3e-05,8e-05,0.00014,0.00012,0.00013,4,6
16270,3e-05,4e-05,0.00022,3e-05,8e-05,0.00014,0.00012,0.00013,4,6
16271,3e-05,4e-05,0.00022,3e-05,8e-05,0.00014,0.00012,0.00013,4,6
16272,3e-05,4e-05,0.00022,3e-05,8e-05,0.00014,0.00012,0.00013,4,6
16273,3e-05,4e-05,0.00022,3e-05,8e-05,0.00014,0.00012,0.00013,4,6
16274,3e-05,4e-05,0.00022,3e-05,8e-05,0.00014,0.00012,0.00013,4,6
16275,3e-05,4e-05,0.00022,3e-05,8e-05,0.00014,0.00012,0.00013,4,6
16276,3e-05,4e-05,0.00022,3e-05,8e-05,0.00014,0.00012,0.00013,4,6
16277,3e-05,4e-05,0.00022,3e-05,8e-05,0.00014,0.00012,0.00013,4,6
16278,3e-05,4e-05,0.00022,3e-05,8e-05,0.00014,0.00012,0.00013,4,6
16279,3e-05,4e-05,0.00022,3e-05,8e-05,0.00014,0.00012,0.00013,4,6
16280,3e-05,4e-05,0.00022,3e-05,8e-05,0.00014,0.00012,0.00013,4,6
16281,3e-05,4e-05,0.00022,3e-05,8e-05,0.00014,0.00012,0.00013,4,6
16282,3e-05,4e-05,0.00022,3e-05,8e-05,0.00014,0.00012,0.00013,4,6
16283,3e-05,4e-05,0.00022,3e-05,8e-05,0.00014,0.00012,0.00013,4,6
16284,3e-05,4e-05,0.00022,3e-05,8e-05,0.00014,0.00012,0.00013,4,6
16285,-8e-05,-0.00011,-0.00016,-0.00047,0.00027,-6e-05,-2e-05,-3e-05,4,6
16287,-6e-05,-0.00015,-0.00013,0.0001,0.00032,0.0001,-2e-05,-0.00014,4,6
16291,-6e-05,-0.00015,-0.00013,0.0001,0.00032,0.0001,-2e-05,-0.00014,4,6
16292,-6e-05,-0.00015,-0.00013,0.0001,0.00032,0.0001,-2e-05,-0.00014,4,6
16293,-4e-05,-7e-05,-0.00024,0.00012,-3e-05,-0.00016,-8e-05,-1e-05,4,6
16294,-4e-05,-7e-05,-0.00024,0.00012,-3e-05,-0.00016,-8e-05,-1e-05,4,6
16295,-4e-05,-7e-05,-0.00024,0.00012,-3e-05,-0.00016,-8e-05,-1e-05,4,6
16296,-4e-05,-7e-05,-0.00024,0.00012,-3e-05,-0.00016,-8e-05,-1e-05,4,6
16297,-4e-05,-7e-05,-0.00024,0.00012,-3e-05,-0.00016,-8e-05,-1e-05,4,6
16298,-4e-05,-7e-05,-0.00024,0.00012,-3e-05,-0.00016,-8e-05,-1e-05,4,6
16299,-4e-05,-7e-05,-0.00024,0.00012,-3e-05,-0.00016,-8e-05,-1e-05,4,6
16300,-4e-05,-7e-05,-0.00024,0.00012,-3e-05,-0.00016,-8e-05,-1e-05,4,6
16301,-4e-05,-7e-05,-0.00024,0.00012,-3e-05,-0.00016,-8e-05,-1e-05,4,6
16302,-4e-05,-7e-05,-0.00024,0.00012,-3e-05,-0.00016,-8e-05,-1e-05,4,6
16303,-4e-05,-7e-05,-0.00024,0.00012,-3e-05,-0.00016,-8e-05,-1e-05,4,6
16304,-4e-05,-7e-05,-0.00024,0.00012,-3e-05,-0.00016,-8e-05,-1e-05,4,6
16305,-4e-05,-7e-05,-0.00024,0.00012,-3e-05,-0.00016,-8e-05,-1e-05,4,6
16306,-4e-05,-7e-05,-0.00024,0.00012,-3e-05,-0.00016,-8e-05,-1e-05,4,6
16307,-4e-05,-7e-05,-0.00024,0.00012,-3e-05,-0.00016,-8e-05,-1e-05,4,6
16308,-4e-05,-7e-05,-0.00024,0.00012,-3e-05,-0.00016,-8e-05,-1e-05,4,6
16309,-4e-05,-7e-05,-0.00024,0.00012,-3e-05,-0.00016,-8e-05,-1e-05,4,6
16310,-4e-05,-7e-05,-0.00024,0.00012,-3e-05,-0.00016,-8e-05,-1e-05,4,6
16311,-4e-05,-7e-05,-0.00024,0.00012,-3e-05,-0.00016,-8e-05,-1e-05,4,6
16312,-4e-05,-7e-05,-0.00024,0.00012,-3e-05,-0.00016,-8e-05,-1e-05,4,6
16313,-4e-05,-7e-05,-0.00024,0.00012,-3e-05,-0.00016,-8e-05,-1e-05,4,6
16314,-4e-05,-7e-05,-0.00024,0.00012,-3e-05,-0.00016,-8e-05,-1e-05,4,6
16315,-4e-05,-7e-05,-0.00024,0.00012,-3e-05,-0.00016,-8e-05,-1e-05,4,6
16316,0.00012,0.00023,0.0003,0.00011,-0.00018,0.00032,0.00017,0.00014,4,6
16317,-1e-05,5e-05,0.00012,0.00024,0.00052,-2e-05,3e-05,4e-05,4,6
16318,-1e-05,5e-05,0.00012,0.00024,0.00052,-2e-05,3e-05,4e-05,4,6
16319,-1e-05,5e-05,0.00012,0.00024,0.00052,-2e-05,3e-05,4e-05,4,6
16320,-1e-05,5e-05,0.00012,0.00024,0.00052,-2e-05,3e-05,4e-05,4,6
16321,-1e-05,5e-05,0.00012,0.00024,0.00052,-2e-05,3e-05,4e-05,4,6
16322,-1e-05,5e-05,0.00012,0.00024,0.00052,-2e-05,3e-05,4e-05,4,6
16323,-1e-05,5e-05,0.00012,0.00024,0.00052,-2e-05,3e-05,4e-05,4,6
16324,-1e-05,5e-05,0.00012,0.00024,0.00052,-2e-05,3e-05,4e-05,4,6
16325,-1e-05,5e-05,0.00012,0.00024,0.00052,-2e-05,3e-05,4e-05,4,6
16326,-1e-05,5e-05,0.00012,0.00024,0.00052,-2e-05,3e-05,4e-05,4,6
16327,-1e-05,5e-05,0.00012,0.00024,0.00052,-2e-05,3e-05,4e-05,4,6
16328,-1e-05,5e-05,0.00012,0.00024,0.00052,-2e-05,3e-05,4e-05,4,6
16329,-1e-05,5e-05,0.00012,0.00024,0.00052,-2e-05,3e-05,4e-05,4,6
16330,-1e-05,5e-05,0.00012,0.00024,0.00052,-2e-05,3e-05,4e-05,4,6
16331,-1e-05,5e-05,0.00012,0.00024,0.00052,-2e-05,3e-05,4e-05,4,6
16332,-1e-05,5e-05,0.00012,0.00024,0.00052,-2e-05,3e-05,4e-05,4,6
16333,-1e-05,5e-05,0.00012,0.00024,0.00052,-2e-05,3e-05,4e-05,4,6
16334,-1e-05,5e-05,0.00012,0.00024,0.00052,-2e-05,3e-05,4e-05,4,6
16335,-1e-05,5e-05,0.00012,0.00024,0.00052,-2e-05,3e-05,4e-05,4,6
16336,-1e-05,5e-05,0.00012,0.00024,0.00052,-2e-05,3e-05,4e-05,4,6
16343,-1e-05,5e-05,0.00012,0.00024,0.00052,-2e-05,3e-05,4e-05,4,6
16344,-1e-05,5e-05,0.00012,0.00024,0.00052,-2e-05,3e-05,4e-05,4,6
16345,0,8e-05,2e-05,-0.00049,-0.00011,-5e-05,0,0.00014,4,6
16346,0,8e-05,2e-05,-0.00049,-0.00011,-5e-05,0,0.00014,4,6
16347,0,8e-05,2e-05,-0.00049,-0.00011,-5e-05,0,0.00014,4,6
16348,0,8e-05,2e-05,-0.00049,-0.00011,-5e-05,0,0.00014,4,6
16349,0,8e-05,2e-05,-0.00049,-0.00011,-5e-05,0,0.00014,4,6
16350,0,8e-05,2e-05,-0.00049,-0.00011,-5e-05,0,0.00014,4,6
16351,0,8e-05,2e-05,-0.00049,-0.00011,-5e-05,0,0.00014,4,6
16352,0,8e-05,2e-05,-0.00049,-0.00011,-5e-05,0,0.00014,4,6
16353,0,8e-05,2e-05,-0.00049,-0.00011,-5e-05,0,0.00014,4,6
16355,0,8e-05,2e-05,-0.00049,-0.00011,-5e-05,0,0.00014,4,6
16356,0,8e-05,2e-05,-0.00049,-0.00011,-5e-05,0,0.00014,4,6
16357,0,8e-05,2e-05,-0.00049,-0.00011,-5e-05,0,0.00014,4,6
16358,0,8e-05,2e-05,-0.00049,-0.00011,-5e-05,0,0.00014,4,6
16359,0,8e-05,2e-05,-0.00049,-0.00011,-5e-05,0,0.00014,4,6
16360,0,8e-05,2e-05,-0.00049,-0.00011,-5e-05,0,0.00014,4,6
16361,0,8e-05,2e-05,-0.00049,-0.00011,-5e-05,0,0.00014,4,6
16362,0,8e-05,2e-05,-0.00049,-0.00011,-5e-05,0,0.00014,4,6
16363,0,8e-05,2e-05,-0.00049,-0.00011,-5e-05,0,0.00014,4,6
16364,0,8e-05,2e-05,-0.00049,-0.00011,-5e-05,0,0.00014,4,6
16365,0,8e-05,2e-05,-0.00049,-0.00011,-5e-05,0,0.00014,4,6
16366,0,8e-05,2e-05,-0.00049,-0.00011,-5e-05,0,0.00014,4,6
16367,1e-05,0.00021,0.00019,0.00079,0.00021,-1e-05,-6e-05,-9e-05,4,6
16368,0.00019,0.00029,0.00038,0.00039,-0.00052,0.00035,0.0002,0.00025,4,6
16369,0.00019,0.00029,0.00038,0.00039,-0.00052,0.00035,0.0002,0.00025,4,6
16370,0.00019,0.00029,0.00038,0.00039,-0.00052,0.00035,0.0002,0.00025,4,6
16371,0.00019,0.00029,0.00038,0.00039,-0.00052,0.00035,0.0002,0.00025,4,6
16372,0.00019,0.00029,0.00038,0.00039,-0.00052,0.00035,0.0002,0.00025,4,6
16373,0.00019,0.00029,0.00038,0.00039,-0.00052,0.00035,0.0002,0.00025,4,6
16374,0.00019,0.00029,0.00038,0.00039,-0.00052,0.00035,0.0002,0.00025,4,6
16375,0.00019,0.00029,0.00038,0.00039,-0.00052,0.00035,0.0002,0.00025,4,6
16376,0.00019,0.00029,0.00038,0.00039,-0.00052,0.00035,0.0002,0.00025,4,6
16379,-9e-05,-0.0002,-0.00032,-0.00061,-0.0008,-0.0005,-0.00011,-0.00012,4,6
16380,-9e-05,-0.0002,-0.00032,-0.00061,-0.0008,-0.0005,-0.00011,-0.00012,4,6
16381,-9e-05,-0.0002,-0.00032,-0.00061,-0.0008,-0.0005,-0.00011,-0.00012,4,6
16382,-9e-05,-0.0002,-0.00032,-0.00061,-0.0008,-0.0005,-0.00011,-0.00012,4,6
16383,-9e-05,-0.0002,-0.00032,-0.00061,-0.0008,-0.0005,-0.00011,-0.00012,4,6
16384,-9e-05,-0.0002,-0.00032,-0.00061,-0.0008,-0.0005,-0.00011,-0.00012,4,6
16385,-9e-05,-0.0002,-0.00032,-0.00061,-0.0008,-0.0005,-0.00011,-0.00012,4,6
16386,-9e-05,-0.0002,-0.00032,-0.00061,-0.0008,-0.0005,-0.00011,-0.00012,4,6
16390,-9e-05,-0.0002,-0.00032,-0.00061,-0.0008,-0.0005,-0.00011,-0.00012,4,6
16391,-9e-05,-0.0002,-0.00032,-0.00061,-0.0008,-0.0005,-0.00011,-0.00012,4,6
16392,-9e-05,-0.0002,-0.00032,-0.00061,-0.0008,-0.0005,-0.00011,-0.00012,4,6
16393,-9e-05,-0.0002,-0.00032,-0.00061,-0.0008,-0.0005,-0.00011,-0.00012,4,6
16394,-9e-05,-0.0002,-0.00032,-0.00061,-0.0008,-0.0005,-0.00011,-0.00012,4,6
16395,-9e-05,-0.0002,-0.00032,-0.00061,-0.0008,-0.0005,-0.00011,-0.00012,4,6
16396,-9e-05,-0.0002,-0.00032,-0.00061,-0.0008,-0.0005,-0.00011,-0.00012,4,6
16397,-9e-05,-0.0002,-0.00032,-0.00061,-0.0008,-0.0005,-0.00011,-0.00012,4,6
16398,1e-05,-2e-05,-9e-05,0.00049,0.00027,3e-05,5e-05,6e-05,4,6
16399,-5e-05,3e-05,0.00012,0.00043,-0.00028,-8e-05,-9e-05,-6e-05,4,6
16400,-5e-05,3e-05,0.00012,0.00043,-0.00028,-8e-05,-9e-05,-6e-05,4,6
16401,-5e-05,3e-05,0.00012,0.00043,-0.00028,-8e-05,-9e-05,-6e-05,4,6
16402,-5e-05,3e-05,0.00012,0.00043,-0.00028,-8e-05,-9e-05,-6e-05,4,6
16403,-5e-05,3e-05,0.00012,0.00043,-0.00028,-8e-05,-9e-05,-6e-05,4,6
16405,-5e-05,3e-05,0.00012,0.00043,-0.00028,-8e-05,-9e-05,-6e-05,4,6
16406,-5e-05,3e-05,0.00012,0.00043,-0.00028,-8e-05,-9e-05,-6e-05,4,6
16407,-5e-05,3e-05,0.00012,0.00043,-0.00028,-8e-05,-9e-05,-6e-05,4,6
16408,-5e-05,3e-05,0.00012,0.00043,-0.00028,-8e-05,-9e-05,-6e-05,4,6
16409,-5e-05,3e-05,0.00012,0.00043,-0.00028,-8e-05,-9e-05,-6e-05,4,6
16410,-5e-05,3e-05,0.00012,0.00043,-0.00028,-8e-05,-9e-05,-6e-05,4,6
16411,-5e-05,3e-05,0.00012,0.00043,-0.00028,-8e-05,-9e-05,-6e-05,4,6
16412,-5e-05,3e-05,0.00012,0.00043,-0.00028,-8e-05,-9e-05,-6e-05,4,6
16413,-5e-05,3e-05,0.00012,0.00043,-0.00028,-8e-05,-9e-05,-6e-05,4,6
16414,-5e-05,3e-05,0.00012,0.00043,-0.00028,-8e-05,-9e-05,-6e-05,4,6
16415,-5e-05,3e-05,0.00012,0.00043,-0.00028,-8e-05,-9e-05,-6e-05,4,6
16416,-5e-05,3e-05,0.00012,0.00043,-0.00028,-8e-05,-9e-05,-6e-05,4,6
16417,-5e-05,3e-05,0.00012,0.00043,-0.00028,-8e-05,-9e-05,-6e-05,4,6
16418,-5e-05,3e-05,0.00012,0.00043,-0.00028,-8e-05,-9e-05,-6e-05,4,6
16419,-5e-05,3e-05,0.00012,0.00043,-0.00028,-8e-05,-9e-05,-6e-05,4,6
16420,-5e-05,3e-05,0.00012,0.00043,-0.00028,-8e-05,-9e-05,-6e-05,4,6
16422,-5e-05,3e-05,0.00012,0.00043,-0.00028,-8e-05,-9e-05,-6e-05,4,6
16425,-7e-05,-0.00014,-0.00027,-0.00018,-0.00027,-5e-05,-1e-05,-1e-05,4,6
16426,-6e-05,-6e-05,-6e-05,-0.00042,1e-05,-3e-05,-0.00011,-0.00012,4,6
16427,-6e-05,-6e-05,-6e-05,-0.00042,1e-05,-3e-05,-0.00011,-0.00012,4,6
16428,-6e-05,-6e-05,-6e-05,-0.00042,1e-05,-3e-05,-0.00011,-0.00012,4,6
16429,-6e-05,-6e-05,-6e-05,-0.00042,1e-05,-3e-05,-0.00011,-0.00012,4,6
16430,-6e-05,-6e-05,-6e-05,-0.00042,1e-05,-3e-05,-0.00011,-0.00012,4,6
16431,-6e-05,-6e-05,-6e-05,-0.00042,1e-05,-3e-05,-0.00011,-0.00012,4,6
16432,-6e-05,-6e-05,-6e-05,-0.00042,1e-05,-3e-05,-0.00011,-0.00012,4,6
16433,-6e-05,-6e-05,-6e-05,-0.00042,1e-05,-3e-05,-0.00011,-0.00012,4,6
16434,-6e-05,-6e-05,-6e-05,-0.00042,1e-05,-3e-05,-0.00011,-0.00012,4,6
16435,-0.00012,-0.00013,-0.00029,-0.0002,-0.00074,-0.00033,-0.00014,-0.00019,4,6
16436,5e-05,1e-05,-0.00013,-0.00028,-0.00019,0.00016,3e-05,2e-05,4,6
16439,5e-05,1e-05,-0.00013,-0.00028,-0.00019,0.00016,3e-05,2e-05,4,6
16440,5e-05,1e-05,-0.00013,-0.00028,-0.00019,0.00016,3e-05,2e-05,4,6
16441,5e-05,1e-05,-0.00013,-0.00028,-0.00019,0.00016,3e-05,2e-05,4,6
16442,5e-05,1e-05,-0.00013,-0.00028,-0.00019,0.00016,3e-05,2e-05,4,6
16444,5e-05,1e-05,-0.00013,-0.00028,-0.00019,0.00016,3e-05,2e-05,4,6
16445,5e-05,1e-05,-0.00013,-0.00028,-0.00019,0.00016,3e-05,2e-05,4,6
16446,5e-05,1e-05,-0.00013,-0.00028,-0.00019,0.00016,3e-05,2e-05,4,6
16447,5e-05,1e-05,-0.00013,-0.00028,-0.00019,0.00016,3e-05,2e-05,4,6
16448,5e-05,1e-05,-0.00013,-0.00028,-0.00019,0.00016,3e-05,2e-05,4,6
16449,5e-05,1e-05,-0.00013,-0.00028,-0.00019,0.00016,3e-05,2e-05,4,6
16450,5e-05,1e-05,-0.00013,-0.00028,-0.00019,0.00016,3e-05,2e-05,4,6
16451,5e-05,1e-05,-0.00013,-0.00028,-0.00019,0.00016,3e-05,2e-05,4,6
16452,5e-05,1e-05,-0.00013,-0.00028,-0.00019,0.00016,3e-05,2e-05,4,6
16453,5e-05,1e-05,-0.00013,-0.00028,-0.00019,0.00016,3e-05,2e-05,4,6
16454,5e-05,1e-05,-0.00013,-0.00028,-0.00019,0.00016,3e-05,2e-05,4,6
16455,5e-05,1e-05,-0.00013,-0.00028,-0.00019,0.00016,3e-05,2e-05,4,6
16457,5e-05,1e-05,-0.00013,-0.00028,-0.00019,0.00016,3e-05,2e-05,4,6
16458,-7e-05,-0.00016,9e-05,0.00039,0.00024,0.00019,1e-05,-8e-05,4,6
16460,-0.0001,-0.00012,-9e-05,-0.00022,-5e-05,-6e-05,-6e-05,-7e-05,4,6
16461,-0.0001,-0.00012,-9e-05,-0.00022,-5e-05,-6e-05,-6e-05,-7e-05,4,6
16462,-0.0001,-0.00012,-9e-05,-0.00022,-5e-05,-6e-05,-6e-05,-7e-05,4,6
16463,-0.0001,-0.00012,-9e-05,-0.00022,-5e-05,-6e-05,-6e-05,-7e-05,4,6
16464,-0.0001,-0.00012,-9e-05,-0.00022,-5e-05,-6e-05,-6e-05,-7e-05,4,6
16465,-0.0001,-0.00012,-9e-05,-0.00022,-5e-05,-6e-05,-6e-05,-7e-05,4,6
16466,-0.0001,-0.00012,-9e-05,-0.00022,-5e-05,-6e-05,-6e-05,-7e-05,4,6
16467,-0.0001,-0.00012,-9e-05,-0.00022,-5e-05,-6e-05,-6e-05,-7e-05,4,6
16468,-0.0001,-0.00012,-9e-05,-0.00022,-5e-05,-6e-05,-6e-05,-7e-05,4,6
16469,-0.0001,-0.00012,-9e-05,-0.00022,-5e-05,-6e-05,-6e-05,-7e-05,4,6
16470,-0.0001,-0.00012,-9e-05,-0.00022,-5e-05,-6e-05,-6e-05,-7e-05,4,6
16472,-0.0001,-0.00012,-9e-05,-0.00022,-5e-05,-6e-05,-6e-05,-7e-05,4,6
16473,-0.0001,-0.00012,-9e-05,-0.00022,-5e-05,-6e-05,-6e-05,-7e-05,4,6
16474,-0.0001,-0.00012,-9e-05,-0.00022,-5e-05,-6e-05,-6e-05,-7e-05,4,6
16475,-0.0001,-0.00012,-9e-05,-0.00022,-5e-05,-6e-05,-6e-05,-7e-05,4,6
16476,-0.0001,-0.00012,-9e-05,-0.00022,-5e-05,-6e-05,-6e-05,-7e-05,4,6
16477,-0.0001,-0.00012,-9e-05,-0.00022,-5e-05,-6e-05,-6e-05,-7e-05,4,6
16478,-0.0001,-0.00012,-9e-05,-0.00022,-5e-05,-6e-05,-6e-05,-7e-05,4,6
16479,-0.0001,-0.00012,-9e-05,-0.00022,-5e-05,-6e-05,-6e-05,-7e-05,4,6
16480,-4e-05,-5e-05,-0.0001,2e-05,7e-05,1e-05,-2e-05,0,4,6
16481,0.00016,0.00018,0.0003,0.00014,-0.0003,0.00013,9e-05,0.00014,4,6
16482,0.00016,0.00018,0.0003,0.00014,-0.0003,0.00013,9e-05,0.00014,4,6
16483,0.00016,0.00018,0.0003,0.00014,-0.0003,0.00013,9e-05,0.00014,4,6
16484,0.00016,0.00018,0.0003,0.00014,-0.0003,0.00013,9e-05,0.00014,4,6
16485,0.00016,0.00018,0.0003,0.00014,-0.0003,0.00013,9e-05,0.00014,4,6
16486,0.00016,0.00018,0.0003,0.00014,-0.0003,0.00013,9e-05,0.00014,4,6
16489,0.00016,0.00018,0.0003,0.00014,-0.0003,0.00013,9e-05,0.00014,4,6
16490,0.00016,0.00018,0.0003,0.00014,-0.0003,0.00013,9e-05,0.00014,4,6
16491,0.00016,0.00018,0.0003,0.00014,-0.0003,0.00013,9e-05,0.00014,4,6
16492,0.00016,0.00018,0.0003,0.00014,-0.0003,0.00013,9e-05,0.00014,4,6
16493,0.00016,0.00018,0.0003,0.00014,-0.0003,0.00013,9e-05,0.00014,4,6
16494,0.00016,0.00018,0.0003,0.00014,-0.0003,0.00013,9e-05,0.00014,4,6
16495,0.00016,0.00018,0.0003,0.00014,-0.0003,0.00013,9e-05,0.00014,4,6
16496,0.00016,0.00018,0.0003,0.00014,-0.0003,0.00013,9e-05,0.00014,4,6
16497,0.00016,0.00018,0.0003,0.00014,-0.0003,0.00013,9e-05,0.00014,4,6
16498,0.00016,0.00018,0.0003,0.00014,-0.0003,0.00013,9e-05,0.00014,4,6
16499,0.00016,0.00018,0.0003,0.00014,-0.0003,0.00013,9e-05,0.00014,4,6
16500,0.00016,0.00018,0.0003,0.00014,-0.0003,0.00013,9e-05,0.00014,4,6
16501,0.00016,0.00018,0.0003,0.00014,-0.0003,0.00013,9e-05,0.00014,4,6
16502,5e-05,4e-05,0.00011,0.00013,4e-05,7e-05,3e-05,6e-05,4,6
16503,5e-05,4e-05,0.00011,0.00013,4e-05,7e-05,3e-05,6e-05,4,6
16504,-5e-05,-4e-05,-4e-05,0.00037,-6e-05,-0.00015,-9e-05,-7e-05,4,6
16506,-5e-05,-4e-05,-4e-05,0.00037,-6e-05,-0.00015,-9e-05,-7e-05,4,6
16507,-5e-05,-4e-05,-4e-05,0.00037,-6e-05,-0.00015,-9e-05,-7e-05,4,6
16508,-5e-05,-4e-05,-4e-05,0.00037,-6e-05,-0.00015,-9e-05,-7e-05,4,6
16509,-5e-05,-4e-05,-4e-05,0.00037,-6e-05,-0.00015,-9e-05,-7e-05,4,6
16510,-5e-05,-4e-05,-4e-05,0.00037,-6e-05,-0.00015,-9e-05,-7e-05,4,6
16511,-5e-05,-4e-05,-4e-05,0.00037,-6e-05,-0.00015,-9e-05,-7e-05,4,6
16512,-5e-05,-4e-05,-4e-05,0.00037,-6e-05,-0.00015,-9e-05,-7e-05,4,6
16513,-5e-05,-4e-05,-4e-05,0.00037,-6e-05,-0.00015,-9e-05,-7e-05,4,6
16514,-5e-05,-4e-05,-4e-05,0.00037,-6e-05,-0.00015,-9e-05,-7e-05,4,6
16515,-5e-05,-4e-05,-4e-05,0.00037,-6e-05,-0.00015,-9e-05,-7e-05,4,6
16516,-5e-05,-4e-05,-4e-05,0.00037,-6e-05,-0.00015,-9e-05,-7e-05,4,6
16517,7e-05,0.00014,0.00017,0.00049,-0.00013,0.00011,4e-05,4e-05,4,6
16518,-6e-05,-0.0001,-0.00021,0.00019,0.00041,-5e-05,-5e-05,-7e-05,4,6
16519,-6e-05,-0.0001,-0.00021,0.00019,0.00041,-5e-05,-5e-05,-7e-05,4,6
16520,-6e-05,-0.0001,-0.00021,0.00019,0.00041,-5e-05,-5e-05,-7e-05,4,6
16521,-6e-05,-0.0001,-0.00021,0.00019,0.00041,-5e-05,-5e-05,-7e-05,4,6
16522,-6e-05,-0.0001,-0.00021,0.00019,0.00041,-5e-05,-5e-05,-7e-05,4,6
16523,-6e-05,-0.0001,-0.00021,0.00019,0.00041,-5e-05,-5e-05,-7e-05,4,6
16524,-6e-05,-0.0001,-0.00021,0.00019,0.00041,-5e-05,-5e-05,-7e-05,4,6
16525,-6e-05,-0.0001,-0.00021,0.00019,0.00041,-5e-05,-5e-05,-7e-05,4,6
16526,-6e-05,-0.0001,-0.00021,0.00019,0.00041,-5e-05,-5e-05,-7e-05,4,6
16527,-6e-05,-0.0001,-0.00021,0.00019,0.00041,-5e-05,-5e-05,-7e-05,4,6
16528,-6e-05,-0.0001,-0.00021,0.00019,0.00041,-5e-05,-5e-05,-7e-05,4,6
16529,-6e-05,-0.0001,-0.00021,0.00019,0.00041,-5e-05,-5e-05,-7e-05,4,6
16530,-6e-05,-0.0001,-0.00021,0.00019,0.00041,-5e-05,-5e-05,-7e-05,4,6
16531,-6e-05,-0.0001,-0.00021,0.00019,0.00041,-5e-05,-5e-05,-7e-05,4,6
16532,3e-05,0.00012,0.00015,0.00057,-2e-05,-4e-05,0,3e-05,4,6
16533,2e-05,1e-05,-1e-05,3e-05,0.0001,2e-05,3e-05,4e-05,4,6
16534,2e-05,1e-05,-1e-05,3e-05,0.0001,2e-05,3e-05,4e-05,4,6
16535,2e-05,1e-05,-1e-05,3e-05,0.0001,2e-05,3e-05,4e-05,4,6
16536,2e-05,1e-05,-1e-05,3e-05,0.0001,2e-05,3e-05,4e-05,4,6
16539,2e-05,1e-05,-1e-05,3e-05,0.0001,2e-05,3e-05,4e-05,4,6
16540,2e-05,1e-05,-1e-05,3e-05,0.0001,2e-05,3e-05,4e-05,4,6
16541,2e-05,1e-05,-1e-05,3e-05,0.0001,2e-05,3e-05,4e-05,4,6
16542,2e-05,1e-05,-1e-05,3e-05,0.0001,2e-05,3e-05,4e-05,4,6
16543,2e-05,1e-05,-1e-05,3e-05,0.0001,2e-05,3e-05,4e-05,4,6
16544,2e-05,1e-05,-1e-05,3e-05,0.0001,2e-05,3e-05,4e-05,4,6
16545,2e-05,1e-05,-1e-05,3e-05,0.0001,2e-05,3e-05,4e-05,4,6
16546,2e-05,1e-05,-1e-05,3e-05,0.0001,2e-05,3e-05,4e-05,4,6
16547,2e-05,1e-05,-1e-05,3e-05,0.0001,2e-05,3e-05,4e-05,4,6
16548,2e-05,1e-05,-1e-05,3e-05,0.0001,2e-05,3e-05,4e-05,4,6
16549,2e-05,1e-05,-1e-05,3e-05,0.0001,2e-05,3e-05,4e-05,4,6
16550,2e-05,1e-05,-1e-05,3e-05,0.0001,2e-05,3e-05,4e-05,4,6
16551,2e-05,1e-05,-1e-05,3e-05,0.0001,2e-05,3e-05,4e-05,4,6
16552,2e-05,1e-05,-1e-05,3e-05,0.0001,2e-05,3e-05,4e-05,4,6
16553,2e-05,1e-05,-1e-05,3e-05,0.0001,2e-05,3e-05,4e-05,4,6
16555,2e-05,1e-05,-1e-05,3e-05,0.0001,2e-05,3e-05,4e-05,4,6
16556,2e-05,1e-05,-1e-05,3e-05,0.0001,2e-05,3e-05,4e-05,4,6
16557,2e-05,1e-05,-1e-05,3e-05,0.0001,2e-05,3e-05,4e-05,4,6
16558,2e-05,1e-05,-1e-05,3e-05,0.0001,2e-05,3e-05,4e-05,4,6
16559,2e-05,1e-05,-1e-05,3e-05,0.0001,2e-05,3e-05,4e-05,4,6
16560,2e-05,1e-05,-1e-05,3e-05,0.0001,2e-05,3e-05,4e-05,4,6
16561,2e-05,1e-05,-1e-05,3e-05,0.0001,2e-05,3e-05,4e-05,4,6
16562,2e-05,1e-05,-1e-05,3e-05,0.0001,2e-05,3e-05,4e-05,4,6
16563,2e-05,1e-05,-1e-05,3e-05,0.0001,2e-05,3e-05,4e-05,4,6
16564,7e-05,0.00013,0.00022,0.00038,0.00083,0.00035,0.00014,9e-05,4,6
16565,7e-05,0.00013,0.00022,0.00038,0.00083,0.00035,0.00014,9e-05,4,6
16566,7e-05,0.00013,0.00022,0.00038,0.00083,0.00035,0.00014,9e-05,4,6
16567,7e-05,0.00013,0.00022,0.00038,0.00083,0.00035,0.00014,9e-05,4,6
16568,7e-05,0.00013,0.00022,0.00038,0.00083,0.00035,0.00014,9e-05,4,6
16569,7e-05,0.00013,0.00022,0.00038,0.00083,0.00035,0.00014,9e-05,4,6
16570,7e-05,0.00013,0.00022,0.00038,0.00083,0.00035,0.00014,9e-05,4,6
16572,7e-05,0.00013,0.00022,0.00038,0.00083,0.00035,0.00014,9e-05,4,6
16573,7e-05,0.00013,0.00022,0.00038,0.00083,0.00035,0.00014,9e-05,4,6
16574,7e-05,0.00013,0.00022,0.00038,0.00083,0.00035,0.00014,9e-05,4,6
16575,7e-05,0.00013,0.00022,0.00038,0.00083,0.00035,0.00014,9e-05,4,6
16576,7e-05,0.00013,0.00022,0.00038,0.00083,0.00035,0.00014,9e-05,4,6
16577,7e-05,0.00013,0.00022,0.00038,0.00083,0.00035,0.00014,9e-05,4,6
16578,7e-05,0.00013,0.00022,0.00038,0.00083,0.00035,0.00014,9e-05,4,6
16579,7e-05,0.00013,0.00022,0.00038,0.00083,0.00035,0.00014,9e-05,4,6
16581,7e-05,0.00013,0.00022,0.00038,0.00083,0.00035,0.00014,9e-05,4,6
16582,7e-05,0.00013,0.00022,0.00038,0.00083,0.00035,0.00014,9e-05,4,6
16583,7e-05,0.00013,0.00022,0.00038,0.00083,0.00035,0.00014,9e-05,4,6
16584,7e-05,0.00013,0.00022,0.00038,0.00083,0.00035,0.00014,9e-05,4,6
16585,7e-05,0.00013,0.00022,0.00038,0.00083,0.00035,0.00014,9e-05,4,6
16586,7e-05,0.00013,0.00022,0.00038,0.00083,0.00035,0.00014,9e-05,4,6
16589,7e-05,0.00013,0.00022,0.00038,0.00083,0.00035,0.00014,9e-05,4,6
16590,7e-05,0.00013,0.00022,0.00038,0.00083,0.00035,0.00014,9e-05,4,6
16591,7e-05,0.00013,0.00022,0.00038,0.00083,0.00035,0.00014,9e-05,4,6
16592,7e-05,0.00013,0.00022,0.00038,0.00083,0.00035,0.00014,9e-05,4,6
16593,7e-05,0.00013,0.00022,0.00038,0.00083,0.00035,0.00014,9e-05,4,6
16594,-0.0001,-7e-05,5e-05,0.00033,-0.00023,-0.00028,-0.00019,-0.00016,4,6
16595,-1e-05,-2e-05,-0.0003,-0.00037,8e-05,2e-05,5e-05,4e-05,4,6
16596,4e-05,-3e-05,-9e-05,-0.00043,-0.00018,-2e-05,-1e-05,3e-05,4,6
16597,-2e-05,4e-05,0.00012,-0.00034,-5e-05,0.00013,0.0001,2e-05,4,6
16598,-2e-05,4e-05,0.00012,-0.00034,-5e-05,0.00013,0.0001,2e-05,4,6
16599,-0.00011,-0.00013,-0.00017,-0.00023,-0.00036,-0.0002,-3e-05,-5e-05,4,6
16600,-0.00011,-0.00013,-0.00017,-0.00023,-0.00036,-0.0002,-3e-05,-5e-05,4,6
16601,-0.00011,-0.00013,-0.00017,-0.00023,-0.00036,-0.0002,-3e-05,-5e-05,4,6
16602,-0.00011,-0.00013,-0.00017,-0.00023,-0.00036,-0.0002,-3e-05,-5e-05,4,6
16603,-0.00011,-0.00013,-0.00017,-0.00023,-0.00036,-0.0002,-3e-05,-5e-05,4,6
16604,-0.00011,-0.00013,-0.00017,-0.00023,-0.00036,-0.0002,-3e-05,-5e-05,4,6
16606,-0.00011,-0.00013,-0.00017,-0.00023,-0.00036,-0.0002,-3e-05,-5e-05,4,6
16607,-0.00011,-0.00013,-0.00017,-0.00023,-0.00036,-0.0002,-3e-05,-5e-05,4,6
16608,-0.00011,-0.00013,-0.00017,-0.00023,-0.00036,-0.0002,-3e-05,-5e-05,4,6
16609,-0.00011,-0.00013,-0.00017,-0.00023,-0.00036,-0.0002,-3e-05,-5e-05,4,6
16610,-0.00011,-0.00013,-0.00017,-0.00023,-0.00036,-0.0002,-3e-05,-5e-05,4,6
16611,-0.00011,-0.00013,-0.00017,-0.00023,-0.00036,-0.0002,-3e-05,-5e-05,4,6
16612,-0.00011,-0.00013,-0.00017,-0.00023,-0.00036,-0.0002,-3e-05,-5e-05,4,6
16613,-0.00011,-0.00013,-0.00017,-0.00023,-0.00036,-0.0002,-3e-05,-5e-05,4,6
16614,-0.00011,-0.00013,-0.00017,-0.00023,-0.00036,-0.0002,-3e-05,-5e-05,4,6
16615,-0.00011,-0.00013,-0.00017,-0.00023,-0.00036,-0.0002,-3e-05,-5e-05,4,6
16616,-0.00014,-0.00026,-0.00031,-0.00042,0.00049,-6e-05,-2e-05,-0.00015,4,6
16617,-0.00014,-0.00026,-0.00031,-0.00042,0.00049,-6e-05,-2e-05,-0.00015,4,6
16618,-0.00014,-0.00026,-0.00031,-0.00042,0.00049,-6e-05,-2e-05,-0.00015,4,6
16619,-0.00014,-0.00026,-0.00031,-0.00042,0.00049,-6e-05,-2e-05,-0.00015,4,6
16620,-0.00014,-0.00026,-0.00031,-0.00042,0.00049,-6e-05,-2e-05,-0.00015,4,6
16623,-0.00014,-0.00026,-0.00031,-0.00042,0.00049,-6e-05,-2e-05,-0.00015,4,6
16626,-0.00014,-0.00026,-0.00031,-0.00042,0.00049,-6e-05,-2e-05,-0.00015,4,6
16627,-0.00014,-0.00026,-0.00031,-0.00042,0.00049,-6e-05,-2e-05,-0.00015,4,6
16628,-0.00014,-0.00026,-0.00031,-0.00042,0.00049,-6e-05,-2e-05,-0.00015,4,6
16629,-0.00014,-0.00026,-0.00031,-0.00042,0.00049,-6e-05,-2e-05,-0.00015,4,6
16630,-0.00014,-0.00026,-0.00031,-0.00042,0.00049,-6e-05,-2e-05,-0.00015,4,6
16631,-0.00014,-0.00026,-0.00031,-0.00042,0.00049,-6e-05,-2e-05,-0.00015,4,6
16632,-0.00014,-0.00026,-0.00031,-0.00042,0.00049,-6e-05,-2e-05,-0.00015,4,6
16633,-0.00014,-0.00026,-0.00031,-0.00042,0.00049,-6e-05,-2e-05,-0.00015,4,6
16634,-0.00014,-0.00026,-0.00031,-0.00042,0.00049,-6e-05,-2e-05,-0.00015,4,6
16635,-0.00014,-0.00026,-0.00031,-0.00042,0.00049,-6e-05,-2e-05,-0.00015,4,6
16636,-0.00014,-0.00026,-0.00031,-0.00042,0.00049,-6e-05,-2e-05,-0.00015,4,6
16639,-0.00014,-0.00026,-0.00031,-0.00042,0.00049,-6e-05,-2e-05,-0.00015,4,6
16641,-0.00014,-0.00026,-0.00031,-0.00042,0.00049,-6e-05,-2e-05,-0.00015,4,6
16642,-0.00014,-0.00026,-0.00031,-0.00042,0.00049,-6e-05,-2e-05,-0.00015,4,6
16643,-0.00014,-0.00026,-0.00031,-0.00042,0.00049,-6e-05,-2e-05,-0.00015,4,6
16644,-0.00014,-0.00026,-0.00031,-0.00042,0.00049,-6e-05,-2e-05,-0.00015,4,6
16645,-0.00014,-0.00026,-0.00031,-0.00042,0.00049,-6e-05,-2e-05,-0.00015,4,6
16646,-0.00014,-0.00026,-0.00031,-0.00042,0.00049,-6e-05,-2e-05,-0.00015,4,6
16647,-3e-05,-4e-05,-2e-05,-0.0005,-0.0007,-0.00011,-2e-05,-1e-05,4,6
16648,-4e-05,-6e-05,6e-05,0.00045,0.00104,0.00032,5e-05,3e-05,4,6
16649,-6e-05,-0.0001,-0.00011,-0.0001,-0.00024,-0.00024,-2e-05,-7e-05,4,6
16650,-6e-05,-0.0001,-0.00011,-0.0001,-0.00024,-0.00024,-2e-05,-7e-05,4,6
16651,-6e-05,-0.0001,-0.00011,-0.0001,-0.00024,-0.00024,-2e-05,-7e-05,4,6
16652,-6e-05,-0.0001,-0.00011,-0.0001,-0.00024,-0.00024,-2e-05,-7e-05,4,6
16653,-2e-05,2e-05,-9e-05,-0.00051,-0.00078,-0.00021,-0.0001,-7e-05,4,6
16654,1e-05,8e-05,0.00014,-0.00013,8e-05,0.00013,5e-05,9e-05,4,6
16655,1e-05,8e-05,0.00014,-0.00013,8e-05,0.00013,5e-05,9e-05,4,6
16657,1e-05,8e-05,0.00014,-0.00013,8e-05,0.00013,5e-05,9e-05,4,6
16658,1e-05,8e-05,0.00014,-0.00013,8e-05,0.00013,5e-05,9e-05,4,6
16659,1e-05,8e-05,0.00014,-0.00013,8e-05,0.00013,5e-05,9e-05,4,6
16660,1e-05,8e-05,0.00014,-0.00013,8e-05,0.00013,5e-05,9e-05,4,6
16661,1e-05,8e-05,0.00014,-0.00013,8e-05,0.00013,5e-05,9e-05,4,6
16662,1e-05,8e-05,0.00014,-0.00013,8e-05,0.00013,5e-05,9e-05,4,6
16663,1e-05,8e-05,0.00014,-0.00013,8e-05,0.00013,5e-05,9e-05,4,6
16664,1e-05,8e-05,0.00014,-0.00013,8e-05,0.00013,5e-05,9e-05,4,6
16665,1e-05,8e-05,0.00014,-0.00013,8e-05,0.00013,5e-05,9e-05,4,6
16666,1e-05,8e-05,0.00014,-0.00013,8e-05,0.00013,5e-05,9e-05,4,6
16667,1e-05,8e-05,0.00014,-0.00013,8e-05,0.00013,5e-05,9e-05,4,6
16668,1e-05,8e-05,0.00014,-0.00013,8e-05,0.00013,5e-05,9e-05,4,6
16669,1e-05,8e-05,0.00014,-0.00013,8e-05,0.00013,5e-05,9e-05,4,6
16670,1e-05,8e-05,0.00014,-0.00013,8e-05,0.00013,5e-05,9e-05,4,6
16671,1e-05,8e-05,0.00014,-0.00013,8e-05,0.00013,5e-05,9e-05,4,6
16673,1e-05,8e-05,0.00014,-0.00013,8e-05,0.00013,5e-05,9e-05,4,6
16674,1e-05,8e-05,0.00014,-0.00013,8e-05,0.00013,5e-05,9e-05,4,6
16675,1e-05,8e-05,0.00014,-0.00013,8e-05,0.00013,5e-05,9e-05,4,6
16676,1e-05,8e-05,0.00014,-0.00013,8e-05,0.00013,5e-05,9e-05,4,6
16677,1e-05,-1e-05,-0.00013,-8e-05,-0.00047,-6e-05,0,-2e-05,4,6
16678,1e-05,-1e-05,-0.00013,-8e-05,-0.00047,-6e-05,0,-2e-05,4,6
16679,1e-05,-1e-05,-0.00013,-8e-05,-0.00047,-6e-05,0,-2e-05,4,6
16680,1e-05,-1e-05,-0.00013,-8e-05,-0.00047,-6e-05,0,-2e-05,4,6
16681,1e-05,-1e-05,-0.00013,-8e-05,-0.00047,-6e-05,0,-2e-05,4,6
16682,1e-05,-1e-05,-0.00013,-8e-05,-0.00047,-6e-05,0,-2e-05,4,6
16683,1e-05,-1e-05,-0.00013,-8e-05,-0.00047,-6e-05,0,-2e-05,4,6
16684,1e-05,-1e-05,-0.00013,-8e-05,-0.00047,-6e-05,0,-2e-05,4,6
16685,1e-05,-1e-05,-0.00013,-8e-05,-0.00047,-6e-05,0,-2e-05,4,6
16686,1e-05,-1e-05,-0.00013,-8e-05,-0.00047,-6e-05,0,-2e-05,4,6
16689,1e-05,-1e-05,-0.00013,-8e-05,-0.00047,-6e-05,0,-2e-05,4,6
16691,1e-05,-1e-05,-0.00013,-8e-05,-0.00047,-6e-05,0,-2e-05,4,6
16693,1e-05,-1e-05,-0.00013,-8e-05,-0.00047,-6e-05,0,-2e-05,4,6
16694,1e-05,-1e-05,-0.00013,-8e-05,-0.00047,-6e-05,0,-2e-05,4,6
16695,1e-05,-1e-05,-0.00013,-8e-05,-0.00047,-6e-05,0,-2e-05,4,6
16696,1e-05,-1e-05,-0.00013,-8e-05,-0.00047,-6e-05,0,-2e-05,4,6
16697,1e-05,-1e-05,-0.00013,-8e-05,-0.00047,-6e-05,0,-2e-05,4,6
16698,1e-05,-1e-05,-0.00013,-8e-05,-0.00047,-6e-05,0,-2e-05,4,6
16699,1e-05,1e-05,-0.0001,-0.00024,-0.00069,-0.00035,-0.00021,-0.00014,4,6
16700,-2e-05,-1e-05,7e-05,0.00043,0.00034,-1e-05,-1e-05,-1e-05,4,6
16701,-3e-05,-2e-05,7e-05,0.00031,0.00039,9e-05,-0.00014,-6e-05,4,6
16702,-3e-05,-2e-05,7e-05,0.00031,0.00039,9e-05,-0.00014,-6e-05,4,6
16703,-3e-05,-2e-05,7e-05,0.00031,0.00039,9e-05,-0.00014,-6e-05,4,6
16704,-3e-05,-2e-05,7e-05,0.00031,0.00039,9e-05,-0.00014,-6e-05,4,6
16705,-3e-05,-2e-05,7e-05,0.00031,0.00039,9e-05,-0.00014,-6e-05,4,6
16707,-3e-05,-2e-05,7e-05,0.00031,0.00039,9e-05,-0.00014,-6e-05,4,6
16708,-3e-05,-2e-05,7e-05,0.00031,0.00039,9e-05,-0.00014,-6e-05,4,6
16709,-3e-05,-2e-05,7e-05,0.00031,0.00039,9e-05,-0.00014,-6e-05,4,6
16710,-3e-05,-2e-05,7e-05,0.00031,0.00039,9e-05,-0.00014,-6e-05,4,6
16711,-3e-05,-2e-05,7e-05,0.00031,0.00039,9e-05,-0.00014,-6e-05,4,6
16712,0.00012,0.00019,0.00017,-0.0003,0.00031,0.00023,0.00012,0.00011,4,6
16713,-2e-05,-2e-05,-0.00014,-0.00017,0,-0.00021,-5e-05,-7e-05,4,6
16714,0.00016,1e-05,-0.00011,-0.00018,-0.00028,9e-05,3e-05,0.00029,4,6
16715,0.00016,1e-05,-0.00011,-0.00018,-0.00028,9e-05,3e-05,0.00029,4,6
16716,0.00016,1e-05,-0.00011,-0.00018,-0.00028,9e-05,3e-05,0.00029,4,6
16717,0.00016,1e-05,-0.00011,-0.00018,-0.00028,9e-05,3e-05,0.00029,4,6
16718,0.00016,1e-05,-0.00011,-0.00018,-0.00028,9e-05,3e-05,0.00029,4,6
16719,0.00016,1e-05,-0.00011,-0.00018,-0.00028,9e-05,3e-05,0.00029,4,6
16720,0.00016,1e-05,-0.00011,-0.00018,-0.00028,9e-05,3e-05,0.00029,4,6
16721,0.00016,1e-05,-0.00011,-0.00018,-0.00028,9e-05,3e-05,0.00029,4,6
16723,0.00016,1e-05,-0.00011,-0.00018,-0.00028,9e-05,3e-05,0.00029,4,6
16724,0.00016,1e-05,-0.00011,-0.00018,-0.00028,9e-05,3e-05,0.00029,4,6
16725,0.00016,1e-05,-0.00011,-0.00018,-0.00028,9e-05,3e-05,0.00029,4,6
16726,0.00016,1e-05,-0.00011,-0.00018,-0.00028,9e-05,3e-05,0.00029,4,6
16727,0.00016,1e-05,-0.00011,-0.00018,-0.00028,9e-05,3e-05,0.00029,4,6
16728,0.00016,1e-05,-0.00011,-0.00018,-0.00028,9e-05,3e-05,0.00029,4,6
16729,0.00016,1e-05,-0.00011,-0.00018,-0.00028,9e-05,3e-05,0.00029,4,6
16730,0.00016,1e-05,-0.00011,-0.00018,-0.00028,9e-05,3e-05,0.00029,4,6
16731,0.00016,1e-05,-0.00011,-0.00018,-0.00028,9e-05,3e-05,0.00029,4,6
16732,0.00016,1e-05,-0.00011,-0.00018,-0.00028,9e-05,3e-05,0.00029,4,6
16733,0.00016,1e-05,-0.00011,-0.00018,-0.00028,9e-05,3e-05,0.00029,4,6
16734,0.00016,1e-05,-0.00011,-0.00018,-0.00028,9e-05,3e-05,0.00029,4,6
16735,-7e-05,6e-05,0.00031,0.00089,0.00065,0.00033,0.0001,0,4,6
16736,-5e-05,-4e-05,0.00012,0.00041,0.0001,2e-05,7e-05,-3e-05,4,6
16738,-5e-05,-4e-05,0.00012,0.00041,0.0001,2e-05,7e-05,-3e-05,4,6
16740,-5e-05,-4e-05,0.00012,0.00041,0.0001,2e-05,7e-05,-3e-05,4,6
16741,-5e-05,-4e-05,0.00012,0.00041,0.0001,2e-05,7e-05,-3e-05,4,6
16742,-5e-05,-4e-05,0.00012,0.00041,0.0001,2e-05,7e-05,-3e-05,4,6
16743,-5e-05,-4e-05,0.00012,0.00041,0.0001,2e-05,7e-05,-3e-05,4,6
16744,-5e-05,-4e-05,0.00012,0.00041,0.0001,2e-05,7e-05,-3e-05,4,6
16745,-5e-05,-4e-05,0.00012,0.00041,0.0001,2e-05,7e-05,-3e-05,4,6
16746,-5e-05,-4e-05,0.00012,0.00041,0.0001,2e-05,7e-05,-3e-05,4,6
16747,-5e-05,-4e-05,0.00012,0.00041,0.0001,2e-05,7e-05,-3e-05,4,6
16748,-5e-05,-4e-05,0.00012,0.00041,0.0001,2e-05,7e-05,-3e-05,4,6
16749,-5e-05,-4e-05,0.00012,0.00041,0.0001,2e-05,7e-05,-3e-05,4,6
16750,-5e-05,-4e-05,0.00012,0.00041,0.0001,2e-05,7e-05,-3e-05,4,6
16751,-5e-05,-4e-05,0.00012,0.00041,0.0001,2e-05,7e-05,-3e-05,4,6
16752,-5e-05,-4e-05,0.00012,0.00041,0.0001,2e-05,7e-05,-3e-05,4,6
16753,-5e-05,-4e-05,0.00012,0.00041,0.0001,2e-05,7e-05,-3e-05,4,6
16754,-5e-05,-4e-05,0.00012,0.00041,0.0001,2e-05,7e-05,-3e-05,4,6
16755,-5e-05,-4e-05,0.00012,0.00041,0.0001,2e-05,7e-05,-3e-05,4,6
16756,-5e-05,-4e-05,0.00012,0.00041,0.0001,2e-05,7e-05,-3e-05,4,6
16757,-5e-05,-4e-05,0.00012,0.00041,0.0001,2e-05,7e-05,-3e-05,4,6
16758,-5e-05,-4e-05,0.00012,0.00041,0.0001,2e-05,7e-05,-3e-05,4,6
16759,0.00011,0.00012,0.00034,0.00062,6e-05,0.00014,9e-05,0.00012,4,6
16760,2e-05,-4e-05,-4e-05,0.00089,0.001,0.00062,0.00019,3e-05,4,6
16761,2e-05,-4e-05,-4e-05,0.00089,0.001,0.00062,0.00019,3e-05,4,6
16762,2e-05,-4e-05,-4e-05,0.00089,0.001,0.00062,0.00019,3e-05,4,6
16763,2e-05,-4e-05,-4e-05,0.00089,0.001,0.00062,0.00019,3e-05,4,6
16764,2e-05,-4e-05,-4e-05,0.00089,0.001,0.00062,0.00019,3e-05,4,6
16765,2e-05,-4e-05,-4e-05,0.00089,0.001,0.00062,0.00019,3e-05,4,6
16766,2e-05,-4e-05,-4e-05,0.00089,0.001,0.00062,0.00019,3e-05,4,6
16767,2e-05,-4e-05,-4e-05,0.00089,0.001,0.00062,0.00019,3e-05,4,6
16768,2e-05,-4e-05,-4e-05,0.00089,0.001,0.00062,0.00019,3e-05,4,6
16769,2e-05,-4e-05,-4e-05,0.00089,0.001,0.00062,0.00019,3e-05,4,6
16770,2e-05,-4e-05,-4e-05,0.00089,0.001,0.00062,0.00019,3e-05,4,6
16771,2e-05,-4e-05,-4e-05,0.00089,0.001,0.00062,0.00019,3e-05,4,6
16772,2e-05,-4e-05,-4e-05,0.00089,0.001,0.00062,0.00019,3e-05,4,6
16773,2e-05,-4e-05,-4e-05,0.00089,0.001,0.00062,0.00019,3e-05,4,6
16774,2e-05,-4e-05,-4e-05,0.00089,0.001,0.00062,0.00019,3e-05,4,6
16775,2e-05,-4e-05,-4e-05,0.00089,0.001,0.00062,0.00019,3e-05,4,6
16776,2e-05,-4e-05,-4e-05,0.00089,0.001,0.00062,0.00019,3e-05,4,6
16777,2e-05,-4e-05,-4e-05,0.00089,0.001,0.00062,0.00019,3e-05,4,6
16778,2e-05,-4e-05,-4e-05,0.00089,0.001,0.00062,0.00019,3e-05,4,6
16779,2e-05,-4e-05,-4e-05,0.00089,0.001,0.00062,0.00019,3e-05,4,6
16780,2e-05,-4e-05,-4e-05,0.00089,0.001,0.00062,0.00019,3e-05,4,6
16781,2e-05,-4e-05,-4e-05,0.00089,0.001,0.00062,0.00019,3e-05,4,6
16782,2e-05,-4e-05,-4e-05,0.00089,0.001,0.00062,0.00019,3e-05,4,6
16783,2e-05,-4e-05,-4e-05,0.00089,0.001,0.00062,0.00019,3e-05,4,6
16784,2e-05,-4e-05,-4e-05,0.00089,0.001,0.00062,0.00019,3e-05,4,6
16785,2e-05,-4e-05,-4e-05,0.00089,0.001,0.00062,0.00019,3e-05,4,6
16786,2e-05,-4e-05,-4e-05,0.00089,0.001,0.00062,0.00019,3e-05,4,6
16788,2e-05,-4e-05,-4e-05,0.00089,0.001,0.00062,0.00019,3e-05,4,6
16789,2e-05,-4e-05,-4e-05,0.00089,0.001,0.00062,0.00019,3e-05,4,6
16792,9e-05,0.00014,0.00036,0.00032,0.00027,0.00018,9e-05,8e-05,4,6
16793,9e-05,0.00014,0.00036,0.00032,0.00027,0.00018,9e-05,8e-05,4,6
16794,9e-05,0.00014,0.00036,0.00032,0.00027,0.00018,9e-05,8e-05,4,6
16795,9e-05,0.00014,0.00036,0.00032,0.00027,0.00018,9e-05,8e-05,4,6
16796,9e-05,0.00014,0.00036,0.00032,0.00027,0.00018,9e-05,8e-05,4,6
16797,9e-05,0.00014,0.00036,0.00032,0.00027,0.00018,9e-05,8e-05,4,6
16798,9e-05,0.00014,0.00036,0.00032,0.00027,0.00018,9e-05,8e-05,4,6
16799,9e-05,0.00014,0.00036,0.00032,0.00027,0.00018,9e-05,8e-05,4,6
16800,9e-05,0.00014,0.00036,0.00032,0.00027,0.00018,9e-05,8e-05,4,6
16801,9e-05,0.00014,0.00036,0.00032,0.00027,0.00018,9e-05,8e-05,4,6
16802,9e-05,0.00014,0.00036,0.00032,0.00027,0.00018,9e-05,8e-05,4,6
16803,9e-05,0.00014,0.00036,0.00032,0.00027,0.00018,9e-05,8e-05,4,6
16804,9e-05,0.00014,0.00036,0.00032,0.00027,0.00018,9e-05,8e-05,4,6
16805,9e-05,0.00014,0.00036,0.00032,0.00027,0.00018,9e-05,8e-05,4,6
16806,9e-05,0.00014,0.00036,0.00032,0.00027,0.00018,9e-05,8e-05,4,6
16807,9e-05,0.00014,0.00036,0.00032,0.00027,0.00018,9e-05,8e-05,4,6
16808,9e-05,0.00014,0.00036,0.00032,0.00027,0.00018,9e-05,8e-05,4,6
16809,9e-05,0.00014,0.00036,0.00032,0.00027,0.00018,9e-05,8e-05,4,6
16810,9e-05,0.00014,0.00036,0.00032,0.00027,0.00018,9e-05,8e-05,4,6
16811,9e-05,0.00014,0.00036,0.00032,0.00027,0.00018,9e-05,8e-05,4,6
16812,-7e-05,-8e-05,-0.00014,0,-0.00011,-0.0002,-0.0001,-0.00012,4,6
16813,-9e-05,-0.00011,-0.00023,-0.00065,-9e-05,-0.00024,-0.00011,-0.00013,4,6
16814,-9e-05,-0.00011,-0.00023,-0.00065,-9e-05,-0.00024,-0.00011,-0.00013,4,6
16815,-9e-05,-0.00011,-0.00023,-0.00065,-9e-05,-0.00024,-0.00011,-0.00013,4,6
16816,-9e-05,-0.00011,-0.00023,-0.00065,-9e-05,-0.00024,-0.00011,-0.00013,4,6
16817,-9e-05,-0.00011,-0.00023,-0.00065,-9e-05,-0.00024,-0.00011,-0.00013,4,6
16818,-9e-05,-0.00011,-0.00023,-0.00065,-9e-05,-0.00024,-0.00011,-0.00013,4,6
16819,1e-05,-2e-05,-1e-05,-0.00033,-0.00027,-0.00018,-6e-05,0,4,6
16820,-0.00013,-0.00013,-5e-05,5e-05,-0.00017,-0.00023,-0.00011,-0.00018,4,6
16821,-0.00013,-0.00013,-5e-05,5e-05,-0.00017,-0.00023,-0.00011,-0.00018,4,6
16824,-0.00013,-0.00013,-5e-05,5e-05,-0.00017,-0.00023,-0.00011,-0.00018,4,6
16825,-0.00013,-0.00013,-5e-05,5e-05,-0.00017,-0.00023,-0.00011,-0.00018,4,6
16826,-0.00013,-0.00013,-5e-05,5e-05,-0.00017,-0.00023,-0.00011,-0.00018,4,6
16827,-0.00013,-0.00013,-5e-05,5e-05,-0.00017,-0.00023,-0.00011,-0.00018,4,6
16828,-0.00013,-0.00013,-5e-05,5e-05,-0.00017,-0.00023,-0.00011,-0.00018,4,6
16829,-0.00013,-0.00013,-5e-05,5e-05,-0.00017,-0.00023,-0.00011,-0.00018,4,6
16830,-0.00013,-0.00013,-5e-05,5e-05,-0.00017,-0.00023,-0.00011,-0.00018,4,6
16831,-0.00013,-0.00013,-5e-05,5e-05,-0.00017,-0.00023,-0.00011,-0.00018,4,6
16832,-0.00013,-0.00013,-5e-05,5e-05,-0.00017,-0.00023,-0.00011,-0.00018,4,6
16833,-0.00013,-0.00013,-5e-05,5e-05,-0.00017,-0.00023,-0.00011,-0.00018,4,6
16834,-0.00013,-0.00013,-5e-05,5e-05,-0.00017,-0.00023,-0.00011,-0.00018,4,6
16835,-0.00013,-0.00013,-5e-05,5e-05,-0.00017,-0.00023,-0.00011,-0.00018,4,6
16836,-0.00013,-0.00013,-5e-05,5e-05,-0.00017,-0.00023,-0.00011,-0.00018,4,6
16838,-0.00013,-0.00013,-5e-05,5e-05,-0.00017,-0.00023,-0.00011,-0.00018,4,6
16839,-0.00013,-0.00013,-5e-05,5e-05,-0.00017,-0.00023,-0.00011,-0.00018,4,6
16841,-0.00013,-0.00013,-5e-05,5e-05,-0.00017,-0.00023,-0.00011,-0.00018,4,6
16842,-0.00013,-0.00013,-5e-05,5e-05,-0.00017,-0.00023,-0.00011,-0.00018,4,6
16843,0.0001,0.00015,0.00021,0.00022,-0.00013,0.00028,0.00013,0.00015,4,6
16844,-2e-05,-1e-05,6e-05,1e-05,-0.00044,-0.00011,-2e-05,0,4,6
16845,-2e-05,-1e-05,6e-05,1e-05,-0.00044,-0.00011,-2e-05,0,4,6
16846,-2e-05,-1e-05,6e-05,1e-05,-0.00044,-0.00011,-2e-05,0,4,6
16847,-2e-05,-1e-05,6e-05,1e-05,-0.00044,-0.00011,-2e-05,0,4,6
16848,-2e-05,-1e-05,6e-05,1e-05,-0.00044,-0.00011,-2e-05,0,4,6
16849,-2e-05,-1e-05,6e-05,1e-05,-0.00044,-0.00011,-2e-05,0,4,6
16850,-2e-05,-1e-05,6e-05,1e-05,-0.00044,-0.00011,-2e-05,0,4,6
16851,-2e-05,-1e-05,6e-05,1e-05,-0.00044,-0.00011,-2e-05,0,4,6
16852,-2e-05,-1e-05,6e-05,1e-05,-0.00044,-0.00011,-2e-05,0,4,6
16853,-2e-05,-1e-05,6e-05,1e-05,-0.00044,-0.00011,-2e-05,0,4,6
16854,-2e-05,-1e-05,6e-05,1e-05,-0.00044,-0.00011,-2e-05,0,4,6
16855,-2e-05,-1e-05,6e-05,1e-05,-0.00044,-0.00011,-2e-05,0,4,6
16857,-2e-05,-1e-05,6e-05,1e-05,-0.00044,-0.00011,-2e-05,0,4,6
16860,-2e-05,-1e-05,6e-05,1e-05,-0.00044,-0.00011,-2e-05,0,4,6
16861,-2e-05,-1e-05,6e-05,1e-05,-0.00044,-0.00011,-2e-05,0,4,6
16862,-2e-05,-1e-05,6e-05,1e-05,-0.00044,-0.00011,-2e-05,0,4,6
16863,-2e-05,-1e-05,6e-05,1e-05,-0.00044,-0.00011,-2e-05,0,4,6
16864,-2e-05,-1e-05,6e-05,1e-05,-0.00044,-0.00011,-2e-05,0,4,6
16865,-2e-05,-1e-05,6e-05,1e-05,-0.00044,-0.00011,-2e-05,0,4,6
16866,-2e-05,-1e-05,6e-05,1e-05,-0.00044,-0.00011,-2e-05,0,4,6
16867,-2e-05,-1e-05,6e-05,1e-05,-0.00044,-0.00011,-2e-05,0,4,6
16868,-2e-05,-1e-05,6e-05,1e-05,-0.00044,-0.00011,-2e-05,0,4,6
16869,-2e-05,-1e-05,6e-05,1e-05,-0.00044,-0.00011,-2e-05,0,4,6
16870,-3e-05,-4e-05,5e-05,0.00044,0.00058,0.00015,-3e-05,2e-05,4,6
16871,-1e-05,1e-05,7e-05,0.00048,-0.00027,-3e-05,6e-05,4e-05,4,6
16872,-1e-05,1e-05,7e-05,0.00048,-0.00027,-3e-05,6e-05,4e-05,4,6
16873,-1e-05,1e-05,7e-05,0.00048,-0.00027,-3e-05,6e-05,4e-05,4,6
16874,-1e-05,1e-05,7e-05,0.00048,-0.00027,-3e-05,6e-05,4e-05,4,6
16875,-1e-05,1e-05,7e-05,0.00048,-0.00027,-3e-05,6e-05,4e-05,4,6
16876,-1e-05,1e-05,7e-05,0.00048,-0.00027,-3e-05,6e-05,4e-05,4,6
16877,-1e-05,1e-05,7e-05,0.00048,-0.00027,-3e-05,6e-05,4e-05,4,6
16878,-1e-05,1e-05,7e-05,0.00048,-0.00027,-3e-05,6e-05,4e-05,4,6
16879,9e-05,0.00019,0.00043,0.00077,-0.00023,0.00024,7e-05,0.00011,4,6
16880,0.00021,0.0003,0.00044,0.00029,0.00025,0.00052,0.00023,0.0002,4,6
16881,0.00021,0.0003,0.00044,0.00029,0.00025,0.00052,0.00023,0.0002,4,6
16882,0.00021,0.0003,0.00044,0.00029,0.00025,0.00052,0.00023,0.0002,4,6
16883,0.00021,0.0003,0.00044,0.00029,0.00025,0.00052,0.00023,0.0002,4,6
16884,0.00021,0.0003,0.00044,0.00029,0.00025,0.00052,0.00023,0.0002,4,6
16885,0.00021,0.0003,0.00044,0.00029,0.00025,0.00052,0.00023,0.0002,4,6
16886,0.00021,0.0003,0.00044,0.00029,0.00025,0.00052,0.00023,0.0002,4,6
16888,0.00021,0.0003,0.00044,0.00029,0.00025,0.00052,0.00023,0.0002,4,6
16889,0.00021,0.0003,0.00044,0.00029,0.00025,0.00052,0.00023,0.0002,4,6
16891,0.00021,0.0003,0.00044,0.00029,0.00025,0.00052,0.00023,0.0002,4,6
16892,0.00021,0.0003,0.00044,0.00029,0.00025,0.00052,0.00023,0.0002,4,6
16893,0.00021,0.0003,0.00044,0.00029,0.00025,0.00052,0.00023,0.0002,4,6
16894,0.00021,0.0003,0.00044,0.00029,0.00025,0.00052,0.00023,0.0002,4,6
16895,0.00021,0.0003,0.00044,0.00029,0.00025,0.00052,0.00023,0.0002,4,6
16896,0.00021,0.0003,0.00044,0.00029,0.00025,0.00052,0.00023,0.0002,4,6
16897,0.00021,0.0003,0.00044,0.00029,0.00025,0.00052,0.00023,0.0002,4,6
16898,0.00021,0.0003,0.00044,0.00029,0.00025,0.00052,0.00023,0.0002,4,6
16899,0.00021,0.0003,0.00044,0.00029,0.00025,0.00052,0.00023,0.0002,4,6
16900,0.00021,0.0003,0.00044,0.00029,0.00025,0.00052,0.00023,0.0002,4,6
16901,0.00021,0.0003,0.00044,0.00029,0.00025,0.00052,0.00023,0.0002,4,6
16902,0.00021,0.0003,0.00044,0.00029,0.00025,0.00052,0.00023,0.0002,4,6
16903,0.00021,0.0003,0.00044,0.00029,0.00025,0.00052,0.00023,0.0002,4,6
16904,0.00021,0.0003,0.00044,0.00029,0.00025,0.00052,0.00023,0.0002,4,6
16905,0.00021,0.0003,0.00044,0.00029,0.00025,0.00052,0.00023,0.0002,4,6
16906,0.00021,0.0003,0.00044,0.00029,0.00025,0.00052,0.00023,0.0002,4,6
16909,0.00021,0.0003,0.00044,0.00029,0.00025,0.00052,0.00023,0.0002,4,6
16910,0.00021,0.0003,0.00044,0.00029,0.00025,0.00052,0.00023,0.0002,4,6
16911,0.00021,0.0003,0.00044,0.00029,0.00025,0.00052,0.00023,0.0002,4,6
16912,0.00021,0.0003,0.00044,0.00029,0.00025,0.00052,0.00023,0.0002,4,6
16913,0.00021,0.0003,0.00044,0.00029,0.00025,0.00052,0.00023,0.0002,4,6
16914,0.00021,0.0003,0.00044,0.00029,0.00025,0.00052,0.00023,0.0002,4,6
16915,0.00021,0.0003,0.00044,0.00029,0.00025,0.00052,0.00023,0.0002,4,6
16916,0.00021,0.0003,0.00044,0.00029,0.00025,0.00052,0.00023,0.0002,4,6
16917,0.00021,0.0003,0.00044,0.00029,0.00025,0.00052,0.00023,0.0002,4,6
16918,0.00021,0.0003,0.00044,0.00029,0.00025,0.00052,0.00023,0.0002,4,6
16919,0.00021,0.0003,0.00044,0.00029,0.00025,0.00052,0.00023,0.0002,4,6
16920,0.00021,0.0003,0.00044,0.00029,0.00025,0.00052,0.00023,0.0002,4,6
16921,0.00021,0.0003,0.00044,0.00029,0.00025,0.00052,0.00023,0.0002,4,6
16924,0.00021,0.0003,0.00044,0.00029,0.00025,0.00052,0.00023,0.0002,4,6
16925,0,-4e-05,-0.00016,-0.00037,0.00077,6e-05,5e-05,-2e-05,4,6
16926,0,-4e-05,-0.00016,-0.00037,0.00077,6e-05,5e-05,-2e-05,4,6
16927,-1e-05,2e-05,8e-05,0.00018,5e-05,-0.00014,2e-05,-2e-05,4,6
16928,-1e-05,2e-05,8e-05,0.00018,5e-05,-0.00014,2e-05,-2e-05,4,6
16929,-1e-05,2e-05,8e-05,0.00018,5e-05,-0.00014,2e-05,-2e-05,4,6
16930,-0.00016,-0.0001,-0.00017,-0.00043,-0.00041,-0.00019,-0.00015,-0.00014,4,6
16931,-0.00016,-0.0001,-0.00017,-0.00043,-0.00041,-0.00019,-0.00015,-0.00014,4,6
16932,-0.00016,-0.0001,-0.00017,-0.00043,-0.00041,-0.00019,-0.00015,-0.00014,4,6
16933,-0.00016,-0.0001,-0.00017,-0.00043,-0.00041,-0.00019,-0.00015,-0.00014,4,6
16934,-0.00016,-0.0001,-0.00017,-0.00043,-0.00041,-0.00019,-0.00015,-0.00014,4,6
16935,-0.00016,-0.0001,-0.00017,-0.00043,-0.00041,-0.00019,-0.00015,-0.00014,4,6
16936,-0.00016,-0.0001,-0.00017,-0.00043,-0.00041,-0.00019,-0.00015,-0.00014,4,6
16938,-0.00016,-0.0001,-0.00017,-0.00043,-0.00041,-0.00019,-0.00015,-0.00014,4,6
16939,-0.00016,-0.0001,-0.00017,-0.00043,-0.00041,-0.00019,-0.00015,-0.00014,4,6
16941,-0.00016,-0.0001,-0.00017,-0.00043,-0.00041,-0.00019,-0.00015,-0.00014,4,6
16942,-0.00016,-0.0001,-0.00017,-0.00043,-0.00041,-0.00019,-0.00015,-0.00014,4,6
16943,-0.00016,-0.0001,-0.00017,-0.00043,-0.00041,-0.00019,-0.00015,-0.00014,4,6
16944,-0.00016,-0.0001,-0.00017,-0.00043,-0.00041,-0.00019,-0.00015,-0.00014,4,6
16945,-0.00016,-0.0001,-0.00017,-0.00043,-0.00041,-0.00019,-0.00015,-0.00014,4,6
16946,-0.00016,-0.0001,-0.00017,-0.00043,-0.00041,-0.00019,-0.00015,-0.00014,4,6
16947,-0.00016,-0.0001,-0.00017,-0.00043,-0.00041,-0.00019,-0.00015,-0.00014,4,6
16948,-0.00016,-0.0001,-0.00017,-0.00043,-0.00041,-0.00019,-0.00015,-0.00014,4,6
16949,-0.00016,-0.0001,-0.00017,-0.00043,-0.00041,-0.00019,-0.00015,-0.00014,4,6
16950,-0.00016,-0.0001,-0.00017,-0.00043,-0.00041,-0.00019,-0.00015,-0.00014,4,6
16951,-0.00016,-0.0001,-0.00017,-0.00043,-0.00041,-0.00019,-0.00015,-0.00014,4,6
16952,-0.00016,-0.0001,-0.00017,-0.00043,-0.00041,-0.00019,-0.00015,-0.00014,4,6
16953,-2e-05,-2e-05,-3e-05,-0.00019,0.00017,0.0001,4e-05,2e-05,4,6
16954,-6e-05,-8e-05,-0.0001,0.00027,-0.00014,-0.00016,-7e-05,-2e-05,4,6
16955,-6e-05,-8e-05,-0.0001,0.00027,-0.00014,-0.00016,-7e-05,-2e-05,4,6
16958,-6e-05,-8e-05,-0.0001,0.00027,-0.00014,-0.00016,-7e-05,-2e-05,4,6
16959,0.00011,0.00018,0.00041,0.0007,-0.00024,0.00035,0.0001,0.00011,4,6
16965,0.00011,0.00018,0.00041,0.0007,-0.00024,0.00035,0.0001,0.00011,4,6
16966,0.00011,0.00018,0.00041,0.0007,-0.00024,0.00035,0.0001,0.00011,4,6
16967,0.00011,0.00018,0.00041,0.0007,-0.00024,0.00035,0.0001,0.00011,4,6
16968,0.00011,0.00018,0.00041,0.0007,-0.00024,0.00035,0.0001,0.00011,4,6
16969,0.00011,0.00018,0.00041,0.0007,-0.00024,0.00035,0.0001,0.00011,4,6
16970,0.00011,0.00018,0.00041,0.0007,-0.00024,0.00035,0.0001,0.00011,4,6
16971,0.00011,0.00018,0.00041,0.0007,-0.00024,0.00035,0.0001,0.00011,4,6
16972,0.00011,0.00018,0.00041,0.0007,-0.00024,0.00035,0.0001,0.00011,4,6
16974,0.00011,0.00018,0.00041,0.0007,-0.00024,0.00035,0.0001,0.00011,4,6
16975,0.00011,0.00018,0.00041,0.0007,-0.00024,0.00035,0.0001,0.00011,4,6
16976,0.00011,0.00018,0.00041,0.0007,-0.00024,0.00035,0.0001,0.00011,4,6
16977,0.00011,0.00018,0.00041,0.0007,-0.00024,0.00035,0.0001,0.00011,4,6
16978,0.00011,0.00018,0.00041,0.0007,-0.00024,0.00035,0.0001,0.00011,4,6
16979,0.00011,0.00018,0.00041,0.0007,-0.00024,0.00035,0.0001,0.00011,4,6
16980,0.00011,0.00018,0.00041,0.0007,-0.00024,0.00035,0.0001,0.00011,4,6
16981,0.00011,0.00018,0.00041,0.0007,-0.00024,0.00035,0.0001,0.00011,4,6
16982,0.00011,0.00018,0.00041,0.0007,-0.00024,0.00035,0.0001,0.00011,4,6
16983,0.00011,0.00018,0.00041,0.0007,-0.00024,0.00035,0.0001,0.00011,4,6
16984,-0.0001,-0.00016,-0.00029,-0.00054,-0.0002,-0.00048,-0.00019,-0.00014,4,6
16985,5e-05,6e-05,-4e-05,-0.00062,-0.00022,-0.00013,-4e-05,3e-05,4,6
16986,5e-05,6e-05,-4e-05,-0.00062,-0.00022,-0.00013,-4e-05,3e-05,4,6
16988,5e-05,6e-05,-4e-05,-0.00062,-0.00022,-0.00013,-4e-05,3e-05,4,6
16989,5e-05,6e-05,-4e-05,-0.00062,-0.00022,-0.00013,-4e-05,3e-05,4,6
16992,-1e-05,-2e-05,-0.00022,-0.00015,-8e-05,0.0001,7e-05,1e-05,4,6
16993,-1e-05,-2e-05,-0.00022,-0.00015,-8e-05,0.0001,7e-05,1e-05,4,6
16994,-1e-05,-2e-05,-0.00022,-0.00015,-8e-05,0.0001,7e-05,1e-05,4,6
16995,-1e-05,-2e-05,-0.00022,-0.00015,-8e-05,0.0001,7e-05,1e-05,4,6
16996,-1e-05,-2e-05,-0.00022,-0.00015,-8e-05,0.0001,7e-05,1e-05,4,6
16997,-1e-05,-2e-05,-0.00022,-0.00015,-8e-05,0.0001,7e-05,1e-05,4,6
16998,-1e-05,-2e-05,-0.00022,-0.00015,-8e-05,0.0001,7e-05,1e-05,4,6
16999,-1e-05,-2e-05,-0.00022,-0.00015,-8e-05,0.0001,7e-05,1e-05,4,6
17000,-1e-05,-2e-05,-0.00022,-0.00015,-8e-05,0.0001,7e-05,1e-05,4,6
17001,-1e-05,-2e-05,-0.00022,-0.00015,-8e-05,0.0001,7e-05,1e-05,4,6
17002,-1e-05,-2e-05,-0.00022,-0.00015,-8e-05,0.0001,7e-05,1e-05,4,6
17003,-1e-05,-2e-05,-0.00022,-0.00015,-8e-05,0.0001,7e-05,1e-05,4,6
17004,-1e-05,-2e-05,-0.00022,-0.00015,-8e-05,0.0001,7e-05,1e-05,4,6
17005,-1e-05,-2e-05,-0.00022,-0.00015,-8e-05,0.0001,7e-05,1e-05,4,6
17006,-1e-05,-2e-05,-0.00022,-0.00015,-8e-05,0.0001,7e-05,1e-05,4,6
17008,-1e-05,-2e-05,-0.00022,-0.00015,-8e-05,0.0001,7e-05,1e-05,4,6
17009,-2e-05,-2e-05,-0.0001,-0.00022,-0.0002,1e-05,-2e-05,-5e-05,4,6
17010,-2e-05,-2e-05,-0.0001,-0.00022,-0.0002,1e-05,-2e-05,-5e-05,4,6
17011,-2e-05,-2e-05,-0.0001,-0.00022,-0.0002,1e-05,-2e-05,-5e-05,4,6
17012,-2e-05,-2e-05,-0.0001,-0.00022,-0.0002,1e-05,-2e-05,-5e-05,4,6
17013,-2e-05,-2e-05,-0.0001,-0.00022,-0.0002,1e-05,-2e-05,-5e-05,4,6
17014,-2e-05,-2e-05,-0.0001,-0.00022,-0.0002,1e-05,-2e-05,-5e-05,4,6
17015,-2e-05,-2e-05,-0.0001,-0.00022,-0.0002,1e-05,-2e-05,-5e-05,4,6
17016,-2e-05,-2e-05,-0.0001,-0.00022,-0.0002,1e-05,-2e-05,-5e-05,4,6
17017,-2e-05,-2e-05,-0.0001,-0.00022,-0.0002,1e-05,-2e-05,-5e-05,4,6
17018,-2e-05,-2e-05,-0.0001,-0.00022,-0.0002,1e-05,-2e-05,-5e-05,4,6
17019,-2e-05,-2e-05,-0.0001,-0.00022,-0.0002,1e-05,-2e-05,-5e-05,4,6
17020,-2e-05,-2e-05,-0.0001,-0.00022,-0.0002,1e-05,-2e-05,-5e-05,4,6
17021,-2e-05,-2e-05,-0.0001,-0.00022,-0.0002,1e-05,-2e-05,-5e-05,4,6
17022,-2e-05,-2e-05,-0.0001,-0.00022,-0.0002,1e-05,-2e-05,-5e-05,4,6
17023,-2e-05,-2e-05,-0.0001,-0.00022,-0.0002,1e-05,-2e-05,-5e-05,4,6
17024,-2e-05,-2e-05,-0.0001,-0.00022,-0.0002,1e-05,-2e-05,-5e-05,4,6
17025,-2e-05,-2e-05,-0.0001,-0.00022,-0.0002,1e-05,-2e-05,-5e-05,4,6
17026,-2e-05,-2e-05,-0.0001,-0.00022,-0.0002,1e-05,-2e-05,-5e-05,4,6
17027,-2e-05,-2e-05,-0.0001,-0.00022,-0.0002,1e-05,-2e-05,-5e-05,4,6
17028,-2e-05,-2e-05,-0.0001,-0.00022,-0.0002,1e-05,-2e-05,-5e-05,4,6
17029,-2e-05,-2e-05,-0.0001,-0.00022,-0.0002,1e-05,-2e-05,-5e-05,4,6
42604,-0.00017,5e-05,7e-05,-0.00016,-0.0005,-0.00018,-4e-05,-0.00013,4,6
42605,-0.00017,5e-05,7e-05,-0.00016,-0.0005,-0.00018,-4e-05,-0.00013,4,6
42606,-0.00017,5e-05,7e-05,-0.00016,-0.0005,-0.00018,-4e-05,-0.00013,4,6
42607,-0.00017,5e-05,7e-05,-0.00016,-0.0005,-0.00018,-4e-05,-0.00013,4,6
42608,-0.00017,5e-05,7e-05,-0.00016,-0.0005,-0.00018,-4e-05,-0.00013,4,6
42609,-0.00017,5e-05,7e-05,-0.00016,-0.0005,-0.00018,-4e-05,-0.00013,4,6
42610,-0.00017,5e-05,7e-05,-0.00016,-0.0005,-0.00018,-4e-05,-0.00013,4,6
42611,-0.00017,5e-05,7e-05,-0.00016,-0.0005,-0.00018,-4e-05,-0.00013,4,6
42612,0.0001,9e-05,2e-05,-0.00034,-8e-05,8e-05,6e-05,2e-05,4,6
42613,0.0001,9e-05,2e-05,-0.00034,-8e-05,8e-05,6e-05,2e-05,4,6
42614,0.0001,9e-05,2e-05,-0.00034,-8e-05,8e-05,6e-05,2e-05,4,6
42615,0.0001,9e-05,2e-05,-0.00034,-8e-05,8e-05,6e-05,2e-05,4,6
42616,0.0001,9e-05,2e-05,-0.00034,-8e-05,8e-05,6e-05,2e-05,4,6
42617,0.0001,9e-05,2e-05,-0.00034,-8e-05,8e-05,6e-05,2e-05,4,6
42618,0.0001,9e-05,2e-05,-0.00034,-8e-05,8e-05,6e-05,2e-05,4,6
42619,0.0001,9e-05,2e-05,-0.00034,-8e-05,8e-05,6e-05,2e-05,4,6
42620,0.0001,9e-05,2e-05,-0.00034,-8e-05,8e-05,6e-05,2e-05,4,6
42621,0.0001,9e-05,2e-05,-0.00034,-8e-05,8e-05,6e-05,2e-05,4,6
42622,0.0001,9e-05,2e-05,-0.00034,-8e-05,8e-05,6e-05,2e-05,4,6
42623,0.0001,9e-05,2e-05,-0.00034,-8e-05,8e-05,6e-05,2e-05,4,6
42624,0.0001,9e-05,2e-05,-0.00034,-8e-05,8e-05,6e-05,2e-05,4,6
42625,0.0001,9e-05,2e-05,-0.00034,-8e-05,8e-05,6e-05,2e-05,4,6
42626,-6e-05,-0.00011,-4e-05,-0.00037,-0.00017,-0.00015,-6e-05,-0.00022,4,6
42627,-0.00017,-0.00039,-0.00041,-0.00024,-0.00091,-0.00069,-0.00025,-0.00017,4,6
42628,-0.00017,-0.00039,-0.00041,-0.00024,-0.00091,-0.00069,-0.00025,-0.00017,4,6
42629,-0.00017,-0.00039,-0.00041,-0.00024,-0.00091,-0.00069,-0.00025,-0.00017,4,6
42630,-0.00017,-0.00039,-0.00041,-0.00024,-0.00091,-0.00069,-0.00025,-0.00017,4,6
42631,-0.00017,-0.00039,-0.00041,-0.00024,-0.00091,-0.00069,-0.00025,-0.00017,4,6
42632,-0.00017,-0.00039,-0.00041,-0.00024,-0.00091,-0.00069,-0.00025,-0.00017,4,6
42633,-0.00017,-0.00039,-0.00041,-0.00024,-0.00091,-0.00069,-0.00025,-0.00017,4,6
42634,-0.00017,-0.00039,-0.00041,-0.00024,-0.00091,-0.00069,-0.00025,-0.00017,4,6
42635,-0.00017,-0.00039,-0.00041,-0.00024,-0.00091,-0.00069,-0.00025,-0.00017,4,6
42636,-0.00017,-0.00039,-0.00041,-0.00024,-0.00091,-0.00069,-0.00025,-0.00017,4,6
42638,-0.00017,-0.00039,-0.00041,-0.00024,-0.00091,-0.00069,-0.00025,-0.00017,4,6
42639,-0.00017,-0.00039,-0.00041,-0.00024,-0.00091,-0.00069,-0.00025,-0.00017,4,6
42640,-0.00017,-0.00039,-0.00041,-0.00024,-0.00091,-0.00069,-0.00025,-0.00017,4,6
42641,-0.00017,-0.00039,-0.00041,-0.00024,-0.00091,-0.00069,-0.00025,-0.00017,4,6
42642,-0.00017,-0.00039,-0.00041,-0.00024,-0.00091,-0.00069,-0.00025,-0.00017,4,6
42643,-0.00017,-0.00039,-0.00041,-0.00024,-0.00091,-0.00069,-0.00025,-0.00017,4,6
42644,-0.00017,-0.00039,-0.00041,-0.00024,-0.00091,-0.00069,-0.00025,-0.00017,4,6
42645,-0.00017,-0.00039,-0.00041,-0.00024,-0.00091,-0.00069,-0.00025,-0.00017,4,6
42646,-0.00017,-0.00039,-0.00041,-0.00024,-0.00091,-0.00069,-0.00025,-0.00017,4,6
42647,-0.00017,-0.00039,-0.00041,-0.00024,-0.00091,-0.00069,-0.00025,-0.00017,4,6
42648,-0.00017,-0.00039,-0.00041,-0.00024,-0.00091,-0.00069,-0.00025,-0.00017,4,6
42649,2e-05,0.0001,0.00015,0.00075,-0.00037,-0.00029,-0.00021,-0.00029,4,6
42650,8e-05,-5e-05,-0.00016,-0.00038,1e-05,8e-05,-0.00013,-7e-05,4,6
42651,8e-05,-5e-05,-0.00016,-0.00038,1e-05,8e-05,-0.00013,-7e-05,4,6
42652,8e-05,-5e-05,-0.00016,-0.00038,1e-05,8e-05,-0.00013,-7e-05,4,6
42653,8e-05,-5e-05,-0.00016,-0.00038,1e-05,8e-05,-0.00013,-7e-05,4,6
42654,8e-05,-5e-05,-0.00016,-0.00038,1e-05,8e-05,-0.00013,-7e-05,4,6
42655,8e-05,-5e-05,-0.00016,-0.00038,1e-05,8e-05,-0.00013,-7e-05,4,6
42656,8e-05,-5e-05,-0.00016,-0.00038,1e-05,8e-05,-0.00013,-7e-05,4,6
42657,8e-05,-5e-05,-0.00016,-0.00038,1e-05,8e-05,-0.00013,-7e-05,4,6
42658,8e-05,-5e-05,-0.00016,-0.00038,1e-05,8e-05,-0.00013,-7e-05,4,6
42659,8e-05,-5e-05,-0.00016,-0.00038,1e-05,8e-05,-0.00013,-7e-05,4,6
42660,8e-05,-5e-05,-0.00016,-0.00038,1e-05,8e-05,-0.00013,-7e-05,4,6
42661,8e-05,-5e-05,-0.00016,-0.00038,1e-05,8e-05,-0.00013,-7e-05,4,6
42662,8e-05,-5e-05,-0.00016,-0.00038,1e-05,8e-05,-0.00013,-7e-05,4,6
42663,8e-05,-5e-05,-0.00016,-0.00038,1e-05,8e-05,-0.00013,-7e-05,4,6
42664,-0.00022,-0.00041,-0.00056,-0.00109,-0.00036,-0.00016,-0.00011,-1e-05,4,6
42665,-0.00022,-0.00041,-0.00056,-0.00109,-0.00036,-0.00016,-0.00011,-1e-05,4,6
42666,-0.00022,-0.00041,-0.00056,-0.00109,-0.00036,-0.00016,-0.00011,-1e-05,4,6
42667,-0.00022,-0.00041,-0.00056,-0.00109,-0.00036,-0.00016,-0.00011,-1e-05,4,6
42668,-0.00022,-0.00041,-0.00056,-0.00109,-0.00036,-0.00016,-0.00011,-1e-05,4,6
42669,-0.00022,-0.00041,-0.00056,-0.00109,-0.00036,-0.00016,-0.00011,-1e-05,4,6
42670,7e-05,0.00014,6e-05,-0.00035,3e-05,0.00025,4e-05,0.00013,4,6
42671,7e-05,0.00014,6e-05,-0.00035,3e-05,0.00025,4e-05,0.00013,4,6
42672,7e-05,0.00014,6e-05,-0.00035,3e-05,0.00025,4e-05,0.00013,4,6
42673,7e-05,0.00014,6e-05,-0.00035,3e-05,0.00025,4e-05,0.00013,4,6
42674,7e-05,0.00014,6e-05,-0.00035,3e-05,0.00025,4e-05,0.00013,4,6
42675,7e-05,0.00014,6e-05,-0.00035,3e-05,0.00025,4e-05,0.00013,4,6
42676,7e-05,0.00014,6e-05,-0.00035,3e-05,0.00025,4e-05,0.00013,4,6
42677,7e-05,0.00014,6e-05,-0.00035,3e-05,0.00025,4e-05,0.00013,4,6
42678,7e-05,0.00014,6e-05,-0.00035,3e-05,0.00025,4e-05,0.00013,4,6
42679,7e-05,0.00014,6e-05,-0.00035,3e-05,0.00025,4e-05,0.00013,4,6
42680,7e-05,0.00014,6e-05,-0.00035,3e-05,0.00025,4e-05,0.00013,4,6
42681,7e-05,0.00014,6e-05,-0.00035,3e-05,0.00025,4e-05,0.00013,4,6
42682,7e-05,0.00014,6e-05,-0.00035,3e-05,0.00025,4e-05,0.00013,4,6
42683,7e-05,0.00014,6e-05,-0.00035,3e-05,0.00025,4e-05,0.00013,4,6
42684,7e-05,0.00014,6e-05,-0.00035,3e-05,0.00025,4e-05,0.00013,4,6
42685,7e-05,0.00014,6e-05,-0.00035,3e-05,0.00025,4e-05,0.00013,4,6
42686,3e-05,4e-05,-0.0001,-0.00018,-0.00034,1e-05,6e-05,8e-05,4,6
42688,8e-05,6e-05,6e-05,0.00049,0.00077,0.00017,8e-05,0.00014,4,6
42689,8e-05,6e-05,6e-05,0.00049,0.00077,0.00017,8e-05,0.00014,4,6
42690,8e-05,6e-05,6e-05,0.00049,0.00077,0.00017,8e-05,0.00014,4,6
42691,8e-05,6e-05,6e-05,0.00049,0.00077,0.00017,8e-05,0.00014,4,6
42692,8e-05,6e-05,6e-05,0.00049,0.00077,0.00017,8e-05,0.00014,4,6
42693,8e-05,6e-05,6e-05,0.00049,0.00077,0.00017,8e-05,0.00014,4,6
42694,8e-05,6e-05,6e-05,0.00049,0.00077,0.00017,8e-05,0.00014,4,6
42695,8e-05,6e-05,6e-05,0.00049,0.00077,0.00017,8e-05,0.00014,4,6
42696,8e-05,6e-05,6e-05,0.00049,0.00077,0.00017,8e-05,0.00014,4,6
42697,8e-05,6e-05,6e-05,0.00049,0.00077,0.00017,8e-05,0.00014,4,6
42698,8e-05,6e-05,6e-05,0.00049,0.00077,0.00017,8e-05,0.00014,4,6
42699,8e-05,6e-05,6e-05,0.00049,0.00077,0.00017,8e-05,0.00014,4,6
42700,8e-05,6e-05,6e-05,0.00049,0.00077,0.00017,8e-05,0.00014,4,6
42701,8e-05,6e-05,6e-05,0.00049,0.00077,0.00017,8e-05,0.00014,4,6
42702,8e-05,6e-05,6e-05,0.00049,0.00077,0.00017,8e-05,0.00014,4,6
42703,8e-05,6e-05,6e-05,0.00049,0.00077,0.00017,8e-05,0.00014,4,6
42704,8e-05,6e-05,6e-05,0.00049,0.00077,0.00017,8e-05,0.00014,4,6
42705,8e-05,6e-05,6e-05,0.00049,0.00077,0.00017,8e-05,0.00014,4,6
42706,8e-05,6e-05,6e-05,0.00049,0.00077,0.00017,8e-05,0.00014,4,6
42707,8e-05,6e-05,6e-05,0.00049,0.00077,0.00017,8e-05,0.00014,4,6
42708,8e-05,6e-05,6e-05,0.00049,0.00077,0.00017,8e-05,0.00014,4,6
42709,5e-05,6e-05,0.00013,0.00052,0.00072,-0.00021,-0.00015,6e-05,4,6
42710,2e-05,5e-05,0.00013,0.00031,-0.00054,-0.00023,-0.0001,4e-05,4,6
42711,2e-05,5e-05,0.00013,0.00031,-0.00054,-0.00023,-0.0001,4e-05,4,6
42712,2e-05,5e-05,0.00013,0.00031,-0.00054,-0.00023,-0.0001,4e-05,4,6
42713,2e-05,5e-05,0.00013,0.00031,-0.00054,-0.00023,-0.0001,4e-05,4,6
42714,2e-05,5e-05,0.00013,0.00031,-0.00054,-0.00023,-0.0001,4e-05,4,6
42715,2e-05,5e-05,0.00013,0.00031,-0.00054,-0.00023,-0.0001,4e-05,4,6
42716,2e-05,5e-05,0.00013,0.00031,-0.00054,-0.00023,-0.0001,4e-05,4,6
42717,2e-05,5e-05,0.00013,0.00031,-0.00054,-0.00023,-0.0001,4e-05,4,6
42718,2e-05,5e-05,0.00013,0.00031,-0.00054,-0.00023,-0.0001,4e-05,4,6
42719,2e-05,5e-05,0.00013,0.00031,-0.00054,-0.00023,-0.0001,4e-05,4,6
42720,2e-05,5e-05,0.00013,0.00031,-0.00054,-0.00023,-0.0001,4e-05,4,6
42721,2e-05,5e-05,0.00013,0.00031,-0.00054,-0.00023,-0.0001,4e-05,4,6
42722,2e-05,5e-05,0.00013,0.00031,-0.00054,-0.00023,-0.0001,4e-05,4,6
42723,2e-05,5e-05,0.00013,0.00031,-0.00054,-0.00023,-0.0001,4e-05,4,6
42724,5e-05,0.00012,0.00025,-8e-05,3e-05,0.00023,0.00017,0.00022,4,6
42725,5e-05,0.00012,0.00025,-8e-05,3e-05,0.00023,0.00017,0.00022,4,6
42726,5e-05,0.00012,0.00025,-8e-05,3e-05,0.00023,0.00017,0.00022,4,6
42727,5e-05,0.00012,0.00025,-8e-05,3e-05,0.00023,0.00017,0.00022,4,6
42728,5e-05,0.00012,0.00025,-8e-05,3e-05,0.00023,0.00017,0.00022,4,6
42729,5e-05,0.00012,0.00025,-8e-05,3e-05,0.00023,0.00017,0.00022,4,6
42730,-4e-05,-7e-05,-2e-05,-0.0002,-0.00029,-0.00037,-0.00015,-0.00013,4,6
42731,-4e-05,-7e-05,-2e-05,-0.0002,-0.00029,-0.00037,-0.00015,-0.00013,4,6
42732,-4e-05,-7e-05,-2e-05,-0.0002,-0.00029,-0.00037,-0.00015,-0.00013,4,6
42733,-4e-05,-7e-05,-2e-05,-0.0002,-0.00029,-0.00037,-0.00015,-0.00013,4,6
42734,-4e-05,-7e-05,-2e-05,-0.0002,-0.00029,-0.00037,-0.00015,-0.00013,4,6
42735,-4e-05,-7e-05,-2e-05,-0.0002,-0.00029,-0.00037,-0.00015,-0.00013,4,6
42736,-4e-05,-7e-05,-2e-05,-0.0002,-0.00029,-0.00037,-0.00015,-0.00013,4,6
42738,-4e-05,-7e-05,-2e-05,-0.0002,-0.00029,-0.00037,-0.00015,-0.00013,4,6
42739,-4e-05,-7e-05,-2e-05,-0.0002,-0.00029,-0.00037,-0.00015,-0.00013,4,6
42740,-4e-05,-7e-05,-2e-05,-0.0002,-0.00029,-0.00037,-0.00015,-0.00013,4,6
42741,-4e-05,-7e-05,-2e-05,-0.0002,-0.00029,-0.00037,-0.00015,-0.00013,4,6
42742,-4e-05,-7e-05,-2e-05,-0.0002,-0.00029,-0.00037,-0.00015,-0.00013,4,6
42743,-4e-05,-7e-05,-2e-05,-0.0002,-0.00029,-0.00037,-0.00015,-0.00013,4,6
42744,-4e-05,-7e-05,-2e-05,-0.0002,-0.00029,-0.00037,-0.00015,-0.00013,4,6
42745,-4e-05,-7e-05,-2e-05,-0.0002,-0.00029,-0.00037,-0.00015,-0.00013,4,6
42746,-4e-05,-7e-05,-2e-05,-0.0002,-0.00029,-0.00037,-0.00015,-0.00013,4,6
42747,-4e-05,-7e-05,-2e-05,-0.0002,-0.00029,-0.00037,-0.00015,-0.00013,4,6
42748,-4e-05,-7e-05,-2e-05,-0.0002,-0.00029,-0.00037,-0.00015,-0.00013,4,6
42749,-4e-05,-7e-05,-2e-05,-0.0002,-0.00029,-0.00037,-0.00015,-0.00013,4,6
42750,-4e-05,-7e-05,-2e-05,-0.0002,-0.00029,-0.00037,-0.00015,-0.00013,4,6
42751,-4e-05,-7e-05,-2e-05,-0.0002,-0.00029,-0.00037,-0.00015,-0.00013,4,6
42752,-4e-05,-7e-05,-2e-05,-0.0002,-0.00029,-0.00037,-0.00015,-0.00013,4,6
42753,-4e-05,-7e-05,-2e-05,-0.0002,-0.00029,-0.00037,-0.00015,-0.00013,4,6
42754,-4e-05,-7e-05,-2e-05,-0.0002,-0.00029,-0.00037,-0.00015,-0.00013,4,6
42755,-4e-05,-7e-05,-2e-05,-0.0002,-0.00029,-0.00037,-0.00015,-0.00013,4,6
42756,-4e-05,-7e-05,-2e-05,-0.0002,-0.00029,-0.00037,-0.00015,-0.00013,4,6
42757,-4e-05,-7e-05,-2e-05,-0.0002,-0.00029,-0.00037,-0.00015,-0.00013,4,6
