18440,-4e-05,-6e-05,0.00021,0.00044,-0.00041,-0.00084,-0.00025,-9e-05,4,8
18441,-4e-05,-6e-05,0.00021,0.00044,-0.00041,-0.00084,-0.00025,-9e-05,4,8
18442,-4e-05,-6e-05,0.00021,0.00044,-0.00041,-0.00084,-0.00025,-9e-05,4,8
18443,-4e-05,-6e-05,0.00021,0.00044,-0.00041,-0.00084,-0.00025,-9e-05,4,8
18444,-4e-05,-6e-05,0.00021,0.00044,-0.00041,-0.00084,-0.00025,-9e-05,4,8
18445,-4e-05,-6e-05,0.00021,0.00044,-0.00041,-0.00084,-0.00025,-9e-05,4,8
18446,-4e-05,-6e-05,0.00021,0.00044,-0.00041,-0.00084,-0.00025,-9e-05,4,8
18447,-4e-05,-6e-05,0.00021,0.00044,-0.00041,-0.00084,-0.00025,-9e-05,4,8
18448,-4e-05,-6e-05,0.00021,0.00044,-0.00041,-0.00084,-0.00025,-9e-05,4,8
18449,-4e-05,-6e-05,0.00021,0.00044,-0.00041,-0.00084,-0.00025,-9e-05,4,8
18450,-4e-05,-6e-05,0.00021,0.00044,-0.00041,-0.00084,-0.00025,-9e-05,4,8
18451,-4e-05,-6e-05,0.00021,0.00044,-0.00041,-0.00084,-0.00025,-9e-05,4,8
18452,-4e-05,-6e-05,0.00021,0.00044,-0.00041,-0.00084,-0.00025,-9e-05,4,8
18453,-4e-05,-6e-05,0.00021,0.00044,-0.00041,-0.00084,-0.00025,-9e-05,4,8
18454,-4e-05,-6e-05,0.00021,0.00044,-0.00041,-0.00084,-0.00025,-9e-05,4,8
18455,-4e-05,-6e-05,0.00021,0.00044,-0.00041,-0.00084,-0.00025,-9e-05,4,8
18456,-4e-05,-6e-05,0.00021,0.00044,-0.00041,-0.00084,-0.00025,-9e-05,4,8
18457,-4e-05,-6e-05,0.00021,0.00044,-0.00041,-0.00084,-0.00025,-9e-05,4,8
18458,-4e-05,-6e-05,0.00021,0.00044,-0.00041,-0.00084,-0.00025,-9e-05,4,8
18459,-4e-05,-6e-05,0.00021,0.00044,-0.00041,-0.00084,-0.00025,-9e-05,4,8
18460,-2e-05,0.00022,6e-05,0.00037,0.0007,0.00037,9e-05,0,4,8
18461,-2e-05,0.00022,6e-05,0.00037,0.0007,0.00037,9e-05,0,4,8
18462,-2e-05,0.00022,6e-05,0.00037,0.0007,0.00037,9e-05,0,4,8
18463,-2e-05,0.00022,6e-05,0.00037,0.0007,0.00037,9e-05,0,4,8
18464,-2e-05,0.00022,6e-05,0.00037,0.0007,0.00037,9e-05,0,4,8
18465,-2e-05,0.00022,6e-05,0.00037,0.0007,0.00037,9e-05,0,4,8
18466,-2e-05,0.00022,6e-05,0.00037,0.0007,0.00037,9e-05,0,4,8
18467,-2e-05,0.00022,6e-05,0.00037,0.0007,0.00037,9e-05,0,4,8
18468,-2e-05,0.00022,6e-05,0.00037,0.0007,0.00037,9e-05,0,4,8
18469,-2e-05,0.00022,6e-05,0.00037,0.0007,0.00037,9e-05,0,4,8
18470,-2e-05,0.00022,6e-05,0.00037,0.0007,0.00037,9e-05,0,4,8
18471,-2e-05,0.00022,6e-05,0.00037,0.0007,0.00037,9e-05,0,4,8
18472,-2e-05,0.00022,6e-05,0.00037,0.0007,0.00037,9e-05,0,4,8
18473,-0.00013,-0.00016,-0.00024,0.00084,-0.00035,0.00015,-8e-05,-0.00013,4,8
18474,0.00013,-6e-05,0.0002,-0.00026,-0.00048,-4e-05,0.00017,0.00016,4,8
18475,0.00013,-6e-05,0.0002,-0.00026,-0.00048,-4e-05,0.00017,0.00016,4,8
18476,0.00013,-6e-05,0.0002,-0.00026,-0.00048,-4e-05,0.00017,0.00016,4,8
18477,0.00013,-6e-05,0.0002,-0.00026,-0.00048,-4e-05,0.00017,0.00016,4,8
18478,0.00013,-6e-05,0.0002,-0.00026,-0.00048,-4e-05,0.00017,0.00016,4,8
18479,0.00013,-6e-05,0.0002,-0.00026,-0.00048,-4e-05,0.00017,0.00016,4,8
18480,0.00013,-6e-05,0.0002,-0.00026,-0.00048,-4e-05,0.00017,0.00016,4,8
18481,0.00013,-6e-05,0.0002,-0.00026,-0.00048,-4e-05,0.00017,0.00016,4,8
18482,0.00013,-6e-05,0.0002,-0.00026,-0.00048,-4e-05,0.00017,0.00016,4,8
18483,0.00013,-6e-05,0.0002,-0.00026,-0.00048,-4e-05,0.00017,0.00016,4,8
18484,0.00013,-6e-05,0.0002,-0.00026,-0.00048,-4e-05,0.00017,0.00016,4,8
18485,0.00013,-6e-05,0.0002,-0.00026,-0.00048,-4e-05,0.00017,0.00016,4,8
18486,0.00013,-6e-05,0.0002,-0.00026,-0.00048,-4e-05,0.00017,0.00016,4,8
18489,0.00013,-6e-05,0.0002,-0.00026,-0.00048,-4e-05,0.00017,0.00016,4,8
18490,0.00013,-6e-05,0.0002,-0.00026,-0.00048,-4e-05,0.00017,0.00016,4,8
18491,0.00013,-6e-05,0.0002,-0.00026,-0.00048,-4e-05,0.00017,0.00016,4,8
18492,0.00013,-6e-05,0.0002,-0.00026,-0.00048,-4e-05,0.00017,0.00016,4,8
18493,0.00013,-6e-05,0.0002,-0.00026,-0.00048,-4e-05,0.00017,0.00016,4,8
18494,0.00013,-6e-05,0.0002,-0.00026,-0.00048,-4e-05,0.00017,0.00016,4,8
18495,-0.00013,-2e-05,-0.00014,5e-05,-0.00034,0.00027,2e-05,-0.00012,4,8
18496,-0.00027,-0.00057,-0.00072,-0.00106,-0.0004,-0.00015,-0.00037,-0.00032,4,8
18497,0.00014,-2e-05,0.00014,-0.00104,-0.00091,0.00021,-0.00011,3e-05,4,8
18498,0.00014,-2e-05,0.00014,-0.00104,-0.00091,0.00021,-0.00011,3e-05,4,8
18499,0.00014,-2e-05,0.00014,-0.00104,-0.00091,0.00021,-0.00011,3e-05,4,8
18500,0.00014,-2e-05,0.00014,-0.00104,-0.00091,0.00021,-0.00011,3e-05,4,8
18501,0.00014,-2e-05,0.00014,-0.00104,-0.00091,0.00021,-0.00011,3e-05,4,8
18502,0.00014,-2e-05,0.00014,-0.00104,-0.00091,0.00021,-0.00011,3e-05,4,8
18503,0.00014,-2e-05,0.00014,-0.00104,-0.00091,0.00021,-0.00011,3e-05,4,8
18504,0.00014,-2e-05,0.00014,-0.00104,-0.00091,0.00021,-0.00011,3e-05,4,8
18505,0.00014,-2e-05,0.00014,-0.00104,-0.00091,0.00021,-0.00011,3e-05,4,8
18506,0.00014,-2e-05,0.00014,-0.00104,-0.00091,0.00021,-0.00011,3e-05,4,8
18507,0.00014,-2e-05,0.00014,-0.00104,-0.00091,0.00021,-0.00011,3e-05,4,8
18508,0.00014,-2e-05,0.00014,-0.00104,-0.00091,0.00021,-0.00011,3e-05,4,8
18509,0.00014,-2e-05,0.00014,-0.00104,-0.00091,0.00021,-0.00011,3e-05,4,8
18510,0.00014,-2e-05,0.00014,-0.00104,-0.00091,0.00021,-0.00011,3e-05,4,8
18511,0.00014,-2e-05,0.00014,-0.00104,-0.00091,0.00021,-0.00011,3e-05,4,8
18512,0.00014,-2e-05,0.00014,-0.00104,-0.00091,0.00021,-0.00011,3e-05,4,8
18513,0.00014,-2e-05,0.00014,-0.00104,-0.00091,0.00021,-0.00011,3e-05,4,8
18514,0.00014,-2e-05,0.00014,-0.00104,-0.00091,0.00021,-0.00011,3e-05,4,8
18515,0.00014,-2e-05,0.00014,-0.00104,-0.00091,0.00021,-0.00011,3e-05,4,8
18516,0.00014,-2e-05,0.00014,-0.00104,-0.00091,0.00021,-0.00011,3e-05,4,8
18517,0.00014,-2e-05,0.00014,-0.00104,-0.00091,0.00021,-0.00011,3e-05,4,8
18518,-1e-05,-0.0001,7e-05,-0.00024,-8e-05,-0.00059,-0.00014,-8e-05,4,8
18519,-0.00014,8e-05,-0.00022,-5e-05,0.0006,0.00074,6e-05,-0.0001,4,8
18520,-0.00014,8e-05,-0.00022,-5e-05,0.0006,0.00074,6e-05,-0.0001,4,8
18521,-0.00014,8e-05,-0.00022,-5e-05,0.0006,0.00074,6e-05,-0.0001,4,8
18522,-0.00014,8e-05,-0.00022,-5e-05,0.0006,0.00074,6e-05,-0.0001,4,8
18523,-0.00014,8e-05,-0.00022,-5e-05,0.0006,0.00074,6e-05,-0.0001,4,8
18524,-0.00014,8e-05,-0.00022,-5e-05,0.0006,0.00074,6e-05,-0.0001,4,8
18525,-0.00014,8e-05,-0.00022,-5e-05,0.0006,0.00074,6e-05,-0.0001,4,8
18526,-0.00014,8e-05,-0.00022,-5e-05,0.0006,0.00074,6e-05,-0.0001,4,8
18527,-0.00014,8e-05,-0.00022,-5e-05,0.0006,0.00074,6e-05,-0.0001,4,8
18528,-0.00014,8e-05,-0.00022,-5e-05,0.0006,0.00074,6e-05,-0.0001,4,8
18529,-0.00014,8e-05,-0.00022,-5e-05,0.0006,0.00074,6e-05,-0.0001,4,8
18530,-0.00014,8e-05,-0.00022,-5e-05,0.0006,0.00074,6e-05,-0.0001,4,8
18531,-0.00014,8e-05,-0.00022,-5e-05,0.0006,0.00074,6e-05,-0.0001,4,8
18532,-0.00014,8e-05,-0.00022,-5e-05,0.0006,0.00074,6e-05,-0.0001,4,8
18533,-9e-05,-0.00031,-0.00046,-0.00128,-0.00128,-0.00049,-7e-05,-0.00011,4,8
18534,-2e-05,0.00015,-9e-05,-0.00032,0.00076,0.00054,0.00015,6e-05,4,8
18535,-2e-05,0.00015,-9e-05,-0.00032,0.00076,0.00054,0.00015,6e-05,4,8
18536,-2e-05,0.00015,-9e-05,-0.00032,0.00076,0.00054,0.00015,6e-05,4,8
18538,-2e-05,0.00015,-9e-05,-0.00032,0.00076,0.00054,0.00015,6e-05,4,8
18540,-2e-05,0.00015,-9e-05,-0.00032,0.00076,0.00054,0.00015,6e-05,4,8
18541,-2e-05,0.00015,-9e-05,-0.00032,0.00076,0.00054,0.00015,6e-05,4,8
18542,-2e-05,0.00015,-9e-05,-0.00032,0.00076,0.00054,0.00015,6e-05,4,8
18543,-2e-05,0.00015,-9e-05,-0.00032,0.00076,0.00054,0.00015,6e-05,4,8
18544,-2e-05,0.00015,-9e-05,-0.00032,0.00076,0.00054,0.00015,6e-05,4,8
18545,-2e-05,0.00015,-9e-05,-0.00032,0.00076,0.00054,0.00015,6e-05,4,8
18546,-2e-05,0.00015,-9e-05,-0.00032,0.00076,0.00054,0.00015,6e-05,4,8
18547,-2e-05,0.00015,-9e-05,-0.00032,0.00076,0.00054,0.00015,6e-05,4,8
18548,-2e-05,0.00015,-9e-05,-0.00032,0.00076,0.00054,0.00015,6e-05,4,8
18549,-2e-05,0.00015,-9e-05,-0.00032,0.00076,0.00054,0.00015,6e-05,4,8
18550,-2e-05,0.00015,-9e-05,-0.00032,0.00076,0.00054,0.00015,6e-05,4,8
18551,-2e-05,0.00015,-9e-05,-0.00032,0.00076,0.00054,0.00015,6e-05,4,8
18552,-2e-05,0.00015,-9e-05,-0.00032,0.00076,0.00054,0.00015,6e-05,4,8
18553,-2e-05,0.00015,-9e-05,-0.00032,0.00076,0.00054,0.00015,6e-05,4,8
18554,-2e-05,0.00015,-9e-05,-0.00032,0.00076,0.00054,0.00015,6e-05,4,8
18555,-2e-05,0.00015,-9e-05,-0.00032,0.00076,0.00054,0.00015,6e-05,4,8
18556,0.00024,0.00056,0.00113,0.00117,0.00046,0.00123,0.00038,0.00022,4,8
18557,-0.0001,-0.00052,-0.00113,-0.00062,-0.00074,-0.0001,-8e-05,-6e-05,4,8
18558,-0.0001,-0.00052,-0.00113,-0.00062,-0.00074,-0.0001,-8e-05,-6e-05,4,8
18559,-0.0001,-0.00052,-0.00113,-0.00062,-0.00074,-0.0001,-8e-05,-6e-05,4,8
18560,-0.0001,-0.00052,-0.00113,-0.00062,-0.00074,-0.0001,-8e-05,-6e-05,4,8
18561,-0.0001,-0.00052,-0.00113,-0.00062,-0.00074,-0.0001,-8e-05,-6e-05,4,8
18562,-0.0001,-0.00052,-0.00113,-0.00062,-0.00074,-0.0001,-8e-05,-6e-05,4,8
18563,-0.0001,-0.00052,-0.00113,-0.00062,-0.00074,-0.0001,-8e-05,-6e-05,4,8
18564,-0.0001,-0.00052,-0.00113,-0.00062,-0.00074,-0.0001,-8e-05,-6e-05,4,8
18565,-0.0001,-0.00052,-0.00113,-0.00062,-0.00074,-0.0001,-8e-05,-6e-05,4,8
18566,-0.0001,-0.00052,-0.00113,-0.00062,-0.00074,-0.0001,-8e-05,-6e-05,4,8
18567,-0.0001,-0.00052,-0.00113,-0.00062,-0.00074,-0.0001,-8e-05,-6e-05,4,8
18568,-0.0001,-0.00052,-0.00113,-0.00062,-0.00074,-0.0001,-8e-05,-6e-05,4,8
18569,-0.0001,-0.00052,-0.00113,-0.00062,-0.00074,-0.0001,-8e-05,-6e-05,4,8
18570,-0.0001,-0.00052,-0.00113,-0.00062,-0.00074,-0.0001,-8e-05,-6e-05,4,8
18571,-0.0001,-0.00052,-0.00113,-0.00062,-0.00074,-0.0001,-8e-05,-6e-05,4,8
18572,-0.0001,-0.00052,-0.00113,-0.00062,-0.00074,-0.0001,-8e-05,-6e-05,4,8
18573,-0.0001,-0.00052,-0.00113,-0.00062,-0.00074,-0.0001,-8e-05,-6e-05,4,8
18574,-0.0001,-0.00052,-0.00113,-0.00062,-0.00074,-0.0001,-8e-05,-6e-05,4,8
18575,-0.0001,-0.00052,-0.00113,-0.00062,-0.00074,-0.0001,-8e-05,-6e-05,4,8
18576,-0.0001,-0.00052,-0.00113,-0.00062,-0.00074,-0.0001,-8e-05,-6e-05,4,8
18577,-0.0001,-0.00052,-0.00113,-0.00062,-0.00074,-0.0001,-8e-05,-6e-05,4,8
18578,-0.0001,-0.00052,-0.00113,-0.00062,-0.00074,-0.0001,-8e-05,-6e-05,4,8
18579,7e-05,0.00015,0.0004,0.0004,9e-05,0.00067,-0.0001,1e-05,4,8
18580,1e-05,-4e-05,0.00038,0.00064,-0.00036,0.00025,0,1e-05,4,8
18581,1e-05,-4e-05,0.00038,0.00064,-0.00036,0.00025,0,1e-05,4,8
18582,1e-05,-4e-05,0.00038,0.00064,-0.00036,0.00025,0,1e-05,4,8
18583,1e-05,-4e-05,0.00038,0.00064,-0.00036,0.00025,0,1e-05,4,8
18584,1e-05,-4e-05,0.00038,0.00064,-0.00036,0.00025,0,1e-05,4,8
18585,1e-05,-4e-05,0.00038,0.00064,-0.00036,0.00025,0,1e-05,4,8
18586,1e-05,-4e-05,0.00038,0.00064,-0.00036,0.00025,0,1e-05,4,8
18588,1e-05,-4e-05,0.00038,0.00064,-0.00036,0.00025,0,1e-05,4,8
18589,1e-05,-4e-05,0.00038,0.00064,-0.00036,0.00025,0,1e-05,4,8
18590,1e-05,-4e-05,0.00038,0.00064,-0.00036,0.00025,0,1e-05,4,8
18591,1e-05,-4e-05,0.00038,0.00064,-0.00036,0.00025,0,1e-05,4,8
18592,1e-05,-4e-05,0.00038,0.00064,-0.00036,0.00025,0,1e-05,4,8
18593,1e-05,-4e-05,0.00038,0.00064,-0.00036,0.00025,0,1e-05,4,8
18594,-9e-05,9e-05,0.0001,0.00094,0.00025,-0.00071,0.00028,3e-05,4,8
18595,-9e-05,9e-05,0.0001,0.00094,0.00025,-0.00071,0.00028,3e-05,4,8
18596,-9e-05,9e-05,0.0001,0.00094,0.00025,-0.00071,0.00028,3e-05,4,8
18597,-9e-05,9e-05,0.0001,0.00094,0.00025,-0.00071,0.00028,3e-05,4,8
18598,-9e-05,9e-05,0.0001,0.00094,0.00025,-0.00071,0.00028,3e-05,4,8
18599,-9e-05,9e-05,0.0001,0.00094,0.00025,-0.00071,0.00028,3e-05,4,8
18600,-9e-05,9e-05,0.0001,0.00094,0.00025,-0.00071,0.00028,3e-05,4,8
18601,-9e-05,9e-05,0.0001,0.00094,0.00025,-0.00071,0.00028,3e-05,4,8
18602,-9e-05,9e-05,0.0001,0.00094,0.00025,-0.00071,0.00028,3e-05,4,8
18603,-9e-05,9e-05,0.0001,0.00094,0.00025,-0.00071,0.00028,3e-05,4,8
18604,-9e-05,9e-05,0.0001,0.00094,0.00025,-0.00071,0.00028,3e-05,4,8
18605,-9e-05,9e-05,0.0001,0.00094,0.00025,-0.00071,0.00028,3e-05,4,8
18606,-9e-05,9e-05,0.0001,0.00094,0.00025,-0.00071,0.00028,3e-05,4,8
18607,-9e-05,9e-05,0.0001,0.00094,0.00025,-0.00071,0.00028,3e-05,4,8
18608,-9e-05,9e-05,0.0001,0.00094,0.00025,-0.00071,0.00028,3e-05,4,8
18609,-9e-05,9e-05,0.0001,0.00094,0.00025,-0.00071,0.00028,3e-05,4,8
18610,-9e-05,9e-05,0.0001,0.00094,0.00025,-0.00071,0.00028,3e-05,4,8
18611,-9e-05,9e-05,0.0001,0.00094,0.00025,-0.00071,0.00028,3e-05,4,8
18612,-9e-05,9e-05,0.0001,0.00094,0.00025,-0.00071,0.00028,3e-05,4,8
18613,-9e-05,9e-05,0.0001,0.00094,0.00025,-0.00071,0.00028,3e-05,4,8
18614,-9e-05,9e-05,0.0001,0.00094,0.00025,-0.00071,0.00028,3e-05,4,8
18615,-9e-05,9e-05,0.0001,0.00094,0.00025,-0.00071,0.00028,3e-05,4,8
18616,-5e-05,1e-05,0.00027,-0.00063,-0.00064,-0.00069,-0.00024,-0.00011,4,8
18617,0.00025,0.00045,0.00079,0.00091,0.00067,0.00063,0.00029,0.00022,4,8
18618,0.00025,0.00045,0.00079,0.00091,0.00067,0.00063,0.00029,0.00022,4,8
18619,0.00025,0.00045,0.00079,0.00091,0.00067,0.00063,0.00029,0.00022,4,8
18620,0.00025,0.00045,0.00079,0.00091,0.00067,0.00063,0.00029,0.00022,4,8
18621,0.00025,0.00045,0.00079,0.00091,0.00067,0.00063,0.00029,0.00022,4,8
18622,0.00025,0.00045,0.00079,0.00091,0.00067,0.00063,0.00029,0.00022,4,8
18623,0.00025,0.00045,0.00079,0.00091,0.00067,0.00063,0.00029,0.00022,4,8
18624,0.00025,0.00045,0.00079,0.00091,0.00067,0.00063,0.00029,0.00022,4,8
18625,0.00025,0.00045,0.00079,0.00091,0.00067,0.00063,0.00029,0.00022,4,8
18626,0.00025,0.00045,0.00079,0.00091,0.00067,0.00063,0.00029,0.00022,4,8
18627,0.00025,0.00045,0.00079,0.00091,0.00067,0.00063,0.00029,0.00022,4,8
18628,0.00025,0.00045,0.00079,0.00091,0.00067,0.00063,0.00029,0.00022,4,8
18629,0.00025,0.00045,0.00079,0.00091,0.00067,0.00063,0.00029,0.00022,4,8
18630,0.00025,0.00045,0.00079,0.00091,0.00067,0.00063,0.00029,0.00022,4,8
18631,0.00025,0.00045,0.00079,0.00091,0.00067,0.00063,0.00029,0.00022,4,8
18632,0.00025,0.00045,0.00079,0.00091,0.00067,0.00063,0.00029,0.00022,4,8
18633,0.00025,0.00045,0.00079,0.00091,0.00067,0.00063,0.00029,0.00022,4,8
18634,0.00025,0.00045,0.00079,0.00091,0.00067,0.00063,0.00029,0.00022,4,8
18635,0.00025,0.00045,0.00079,0.00091,0.00067,0.00063,0.00029,0.00022,4,8
18636,0.00025,0.00045,0.00079,0.00091,0.00067,0.00063,0.00029,0.00022,4,8
18638,0.00025,0.00045,0.00079,0.00091,0.00067,0.00063,0.00029,0.00022,4,8
18639,-6e-05,-0.00016,-0.00023,0.00031,-0.00046,-0.00029,-4e-05,-2e-05,4,8
18640,-1e-05,-6e-05,2e-05,-5e-05,-0.00128,-0.00076,-0.00025,-8e-05,4,8
18641,-1e-05,-6e-05,2e-05,-5e-05,-0.00128,-0.00076,-0.00025,-8e-05,4,8
18642,-1e-05,-6e-05,2e-05,-5e-05,-0.00128,-0.00076,-0.00025,-8e-05,4,8
18643,-1e-05,-6e-05,2e-05,-5e-05,-0.00128,-0.00076,-0.00025,-8e-05,4,8
18644,-1e-05,-6e-05,2e-05,-5e-05,-0.00128,-0.00076,-0.00025,-8e-05,4,8
18645,-1e-05,-6e-05,2e-05,-5e-05,-0.00128,-0.00076,-0.00025,-8e-05,4,8
18646,-1e-05,-6e-05,2e-05,-5e-05,-0.00128,-0.00076,-0.00025,-8e-05,4,8
18647,-1e-05,-6e-05,2e-05,-5e-05,-0.00128,-0.00076,-0.00025,-8e-05,4,8
18648,-1e-05,-6e-05,2e-05,-5e-05,-0.00128,-0.00076,-0.00025,-8e-05,4,8
18649,-1e-05,-6e-05,2e-05,-5e-05,-0.00128,-0.00076,-0.00025,-8e-05,4,8
18650,-1e-05,-6e-05,2e-05,-5e-05,-0.00128,-0.00076,-0.00025,-8e-05,4,8
18651,-1e-05,-6e-05,2e-05,-5e-05,-0.00128,-0.00076,-0.00025,-8e-05,4,8
18652,-0.00012,-6e-05,-0.00028,-0.00029,-0.0008,-0.00033,-0.0003,-0.00017,4,8
18653,0.00026,0.00026,0.00087,0.00097,0.00042,0.00026,0.00031,0.0002,4,8
18654,0.00026,0.00026,0.00087,0.00097,0.00042,0.00026,0.00031,0.0002,4,8
18655,0.00026,0.00026,0.00087,0.00097,0.00042,0.00026,0.00031,0.0002,4,8
18656,0.00026,0.00026,0.00087,0.00097,0.00042,0.00026,0.00031,0.0002,4,8
18657,0.00026,0.00026,0.00087,0.00097,0.00042,0.00026,0.00031,0.0002,4,8
18658,0.00026,0.00026,0.00087,0.00097,0.00042,0.00026,0.00031,0.0002,4,8
18659,0.00026,0.00026,0.00087,0.00097,0.00042,0.00026,0.00031,0.0002,4,8
18660,0.00026,0.00026,0.00087,0.00097,0.00042,0.00026,0.00031,0.0002,4,8
18661,-0.00015,-0.00021,-0.0004,-0.00057,-5e-05,0.00019,-0.00037,-0.00022,4,8
18662,-0.00015,-0.00021,-0.0004,-0.00057,-5e-05,0.00019,-0.00037,-0.00022,4,8
18663,-0.00015,-0.00021,-0.0004,-0.00057,-5e-05,0.00019,-0.00037,-0.00022,4,8
18664,-0.00015,-0.00021,-0.0004,-0.00057,-5e-05,0.00019,-0.00037,-0.00022,4,8
18665,-0.00015,-0.00021,-0.0004,-0.00057,-5e-05,0.00019,-0.00037,-0.00022,4,8
18666,-0.00015,-0.00021,-0.0004,-0.00057,-5e-05,0.00019,-0.00037,-0.00022,4,8
18667,-0.00015,-0.00021,-0.0004,-0.00057,-5e-05,0.00019,-0.00037,-0.00022,4,8
18668,-0.00015,-0.00021,-0.0004,-0.00057,-5e-05,0.00019,-0.00037,-0.00022,4,8
18669,-0.00015,-0.00021,-0.0004,-0.00057,-5e-05,0.00019,-0.00037,-0.00022,4,8
18670,-0.00015,-0.00021,-0.0004,-0.00057,-5e-05,0.00019,-0.00037,-0.00022,4,8
18671,-0.00015,-0.00021,-0.0004,-0.00057,-5e-05,0.00019,-0.00037,-0.00022,4,8
18672,-0.00015,-0.00021,-0.0004,-0.00057,-5e-05,0.00019,-0.00037,-0.00022,4,8
18673,-0.00015,-0.00021,-0.0004,-0.00057,-5e-05,0.00019,-0.00037,-0.00022,4,8
18674,-0.00015,-0.00021,-0.0004,-0.00057,-5e-05,0.00019,-0.00037,-0.00022,4,8
18675,-0.00015,-0.00021,-0.0004,-0.00057,-5e-05,0.00019,-0.00037,-0.00022,4,8
18676,-0.00028,-0.00038,-0.0009,-0.00078,-0.00045,-0.00051,-0.00044,-0.00029,4,8
18678,-0.00028,-0.00038,-0.0009,-0.00078,-0.00045,-0.00051,-0.00044,-0.00029,4,8
18679,-0.00028,-0.00038,-0.0009,-0.00078,-0.00045,-0.00051,-0.00044,-0.00029,4,8
18680,-0.00028,-0.00038,-0.0009,-0.00078,-0.00045,-0.00051,-0.00044,-0.00029,4,8
18681,-0.00028,-0.00038,-0.0009,-0.00078,-0.00045,-0.00051,-0.00044,-0.00029,4,8
18682,-0.00028,-0.00038,-0.0009,-0.00078,-0.00045,-0.00051,-0.00044,-0.00029,4,8
18683,-0.00028,-0.00038,-0.0009,-0.00078,-0.00045,-0.00051,-0.00044,-0.00029,4,8
18684,-0.00028,-0.00038,-0.0009,-0.00078,-0.00045,-0.00051,-0.00044,-0.00029,4,8
18685,-0.00028,-0.00038,-0.0009,-0.00078,-0.00045,-0.00051,-0.00044,-0.00029,4,8
18686,-0.00028,-0.00038,-0.0009,-0.00078,-0.00045,-0.00051,-0.00044,-0.00029,4,8
18688,-0.00028,-0.00038,-0.0009,-0.00078,-0.00045,-0.00051,-0.00044,-0.00029,4,8
18689,-0.00028,-0.00038,-0.0009,-0.00078,-0.00045,-0.00051,-0.00044,-0.00029,4,8
18690,-0.00028,-0.00038,-0.0009,-0.00078,-0.00045,-0.00051,-0.00044,-0.00029,4,8
18691,-0.00028,-0.00038,-0.0009,-0.00078,-0.00045,-0.00051,-0.00044,-0.00029,4,8
18692,-0.00028,-0.00038,-0.0009,-0.00078,-0.00045,-0.00051,-0.00044,-0.00029,4,8
18693,-0.00028,-0.00038,-0.0009,-0.00078,-0.00045,-0.00051,-0.00044,-0.00029,4,8
18694,-0.00028,-0.00038,-0.0009,-0.00078,-0.00045,-0.00051,-0.00044,-0.00029,4,8
18695,-0.00028,-0.00038,-0.0009,-0.00078,-0.00045,-0.00051,-0.00044,-0.00029,4,8
18696,-0.00028,-0.00038,-0.0009,-0.00078,-0.00045,-0.00051,-0.00044,-0.00029,4,8
18697,-0.00028,-0.00038,-0.0009,-0.00078,-0.00045,-0.00051,-0.00044,-0.00029,4,8
18698,-0.00028,-0.00038,-0.0009,-0.00078,-0.00045,-0.00051,-0.00044,-0.00029,4,8
18699,0.00013,0.00013,0.00029,-0.00021,0.00013,0.00083,0.00032,0.00015,4,8
18700,-0.00016,0,0.00031,0.00046,0.00013,0.00042,-0.00025,-0.00019,4,8
18701,-0.00016,0,0.00031,0.00046,0.00013,0.00042,-0.00025,-0.00019,4,8
18702,-0.00016,0,0.00031,0.00046,0.00013,0.00042,-0.00025,-0.00019,4,8
18703,-0.00016,0,0.00031,0.00046,0.00013,0.00042,-0.00025,-0.00019,4,8
18704,-0.00016,0,0.00031,0.00046,0.00013,0.00042,-0.00025,-0.00019,4,8
18705,-0.00016,0,0.00031,0.00046,0.00013,0.00042,-0.00025,-0.00019,4,8
18706,-0.00016,0,0.00031,0.00046,0.00013,0.00042,-0.00025,-0.00019,4,8
18707,-0.00016,0,0.00031,0.00046,0.00013,0.00042,-0.00025,-0.00019,4,8
18708,-0.00016,0,0.00031,0.00046,0.00013,0.00042,-0.00025,-0.00019,4,8
18709,-0.00016,0,0.00031,0.00046,0.00013,0.00042,-0.00025,-0.00019,4,8
18710,-0.00016,0,0.00031,0.00046,0.00013,0.00042,-0.00025,-0.00019,4,8
18711,-0.00016,0,0.00031,0.00046,0.00013,0.00042,-0.00025,-0.00019,4,8
18712,-0.00011,-0.00011,-0.00044,2e-05,0.00059,0.00029,8e-05,1e-05,4,8
18713,-0.00011,-0.00011,-0.00044,2e-05,0.00059,0.00029,8e-05,1e-05,4,8
18714,-0.00011,-0.00011,-0.00044,2e-05,0.00059,0.00029,8e-05,1e-05,4,8
18715,-0.00011,-0.00011,-0.00044,2e-05,0.00059,0.00029,8e-05,1e-05,4,8
18716,-0.00011,-0.00011,-0.00044,2e-05,0.00059,0.00029,8e-05,1e-05,4,8
18717,-0.00011,-0.00011,-0.00044,2e-05,0.00059,0.00029,8e-05,1e-05,4,8
18718,-0.00011,-0.00011,-0.00044,2e-05,0.00059,0.00029,8e-05,1e-05,4,8
18719,-0.00011,-0.00011,-0.00044,2e-05,0.00059,0.00029,8e-05,1e-05,4,8
18720,-0.00011,-0.00011,-0.00044,2e-05,0.00059,0.00029,8e-05,1e-05,4,8
18721,0.0001,0.00018,0.00063,0.00068,0.00029,0.00068,0.00011,3e-05,4,8
18722,0.0001,0.00018,0.00063,0.00068,0.00029,0.00068,0.00011,3e-05,4,8
18723,0.0001,0.00018,0.00063,0.00068,0.00029,0.00068,0.00011,3e-05,4,8
18724,0.0001,0.00018,0.00063,0.00068,0.00029,0.00068,0.00011,3e-05,4,8
18725,0.0001,0.00018,0.00063,0.00068,0.00029,0.00068,0.00011,3e-05,4,8
18726,0.0001,0.00018,0.00063,0.00068,0.00029,0.00068,0.00011,3e-05,4,8
18727,0.0001,0.00018,0.00063,0.00068,0.00029,0.00068,0.00011,3e-05,4,8
18728,0.0001,0.00018,0.00063,0.00068,0.00029,0.00068,0.00011,3e-05,4,8
18729,0.0001,0.00018,0.00063,0.00068,0.00029,0.00068,0.00011,3e-05,4,8
18730,0.0001,0.00018,0.00063,0.00068,0.00029,0.00068,0.00011,3e-05,4,8
18731,0.0001,0.00018,0.00063,0.00068,0.00029,0.00068,0.00011,3e-05,4,8
18732,0.0001,0.00018,0.00063,0.00068,0.00029,0.00068,0.00011,3e-05,4,8
18733,0.0001,0.00018,0.00063,0.00068,0.00029,0.00068,0.00011,3e-05,4,8
18734,0.0001,0.00018,0.00063,0.00068,0.00029,0.00068,0.00011,3e-05,4,8
18735,0.00011,9e-05,4e-05,-0.001,-0.00069,-3e-05,0.00015,0.00013,4,8
18736,-5e-05,-0.00017,-0.00028,-0.00046,0.00019,0.00032,4e-05,0,4,8
18738,-1e-05,7e-05,0.00014,-0.00014,-0.00019,-6e-05,2e-05,4e-05,4,8
18739,-1e-05,7e-05,0.00014,-0.00014,-0.00019,-6e-05,2e-05,4e-05,4,8
18740,-1e-05,7e-05,0.00014,-0.00014,-0.00019,-6e-05,2e-05,4e-05,4,8
18741,-1e-05,7e-05,0.00014,-0.00014,-0.00019,-6e-05,2e-05,4e-05,4,8
18742,-1e-05,7e-05,0.00014,-0.00014,-0.00019,-6e-05,2e-05,4e-05,4,8
18743,-1e-05,7e-05,0.00014,-0.00014,-0.00019,-6e-05,2e-05,4e-05,4,8
18744,-1e-05,7e-05,0.00014,-0.00014,-0.00019,-6e-05,2e-05,4e-05,4,8
18745,-1e-05,7e-05,0.00014,-0.00014,-0.00019,-6e-05,2e-05,4e-05,4,8
18746,-1e-05,7e-05,0.00014,-0.00014,-0.00019,-6e-05,2e-05,4e-05,4,8
18747,-1e-05,7e-05,0.00014,-0.00014,-0.00019,-6e-05,2e-05,4e-05,4,8
18748,-1e-05,7e-05,0.00014,-0.00014,-0.00019,-6e-05,2e-05,4e-05,4,8
18749,-1e-05,7e-05,0.00014,-0.00014,-0.00019,-6e-05,2e-05,4e-05,4,8
18750,-1e-05,7e-05,0.00014,-0.00014,-0.00019,-6e-05,2e-05,4e-05,4,8
18751,-1e-05,7e-05,0.00014,-0.00014,-0.00019,-6e-05,2e-05,4e-05,4,8
18752,-1e-05,7e-05,0.00014,-0.00014,-0.00019,-6e-05,2e-05,4e-05,4,8
18753,-1e-05,7e-05,0.00014,-0.00014,-0.00019,-6e-05,2e-05,4e-05,4,8
18754,-1e-05,7e-05,0.00014,-0.00014,-0.00019,-6e-05,2e-05,4e-05,4,8
18755,-1e-05,7e-05,0.00014,-0.00014,-0.00019,-6e-05,2e-05,4e-05,4,8
18756,-1e-05,7e-05,0.00014,-0.00014,-0.00019,-6e-05,2e-05,4e-05,4,8
18757,-1e-05,7e-05,0.00014,-0.00014,-0.00019,-6e-05,2e-05,4e-05,4,8
18758,-1e-05,7e-05,0.00014,-0.00014,-0.00019,-6e-05,2e-05,4e-05,4,8
18759,4e-05,-0.0001,-0.00017,-0.00024,-0.00114,-0.00032,0.00011,7e-05,4,8
18760,0,0.00017,0.00066,0.00061,0.00042,0.00106,7e-05,-1e-05,4,8
18761,7e-05,-9e-05,-0.00023,-0.00039,-0.00017,-0.00034,-1e-05,4e-05,4,8
18762,7e-05,-9e-05,-0.00023,-0.00039,-0.00017,-0.00034,-1e-05,4e-05,4,8
18763,7e-05,-9e-05,-0.00023,-0.00039,-0.00017,-0.00034,-1e-05,4e-05,4,8
18764,7e-05,-9e-05,-0.00023,-0.00039,-0.00017,-0.00034,-1e-05,4e-05,4,8
18765,7e-05,-9e-05,-0.00023,-0.00039,-0.00017,-0.00034,-1e-05,4e-05,4,8
18766,7e-05,-9e-05,-0.00023,-0.00039,-0.00017,-0.00034,-1e-05,4e-05,4,8
18767,7e-05,-9e-05,-0.00023,-0.00039,-0.00017,-0.00034,-1e-05,4e-05,4,8
18768,7e-05,-9e-05,-0.00023,-0.00039,-0.00017,-0.00034,-1e-05,4e-05,4,8
18769,7e-05,-9e-05,-0.00023,-0.00039,-0.00017,-0.00034,-1e-05,4e-05,4,8
18770,7e-05,-9e-05,-0.00023,-0.00039,-0.00017,-0.00034,-1e-05,4e-05,4,8
18771,7e-05,-9e-05,-0.00023,-0.00039,-0.00017,-0.00034,-1e-05,4e-05,4,8
18772,0.0001,-0.0001,-2e-05,-1e-05,-0.00059,-0.00034,0.00011,1e-05,4,8
18773,-0.00012,-0.00013,-0.00044,-0.00062,0.00025,0.00052,-6e-05,-5e-05,4,8
18774,-0.00012,-0.00013,-0.00044,-0.00062,0.00025,0.00052,-6e-05,-5e-05,4,8
18775,-0.00012,-0.00013,-0.00044,-0.00062,0.00025,0.00052,-6e-05,-5e-05,4,8
18776,-0.00012,-0.00013,-0.00044,-0.00062,0.00025,0.00052,-6e-05,-5e-05,4,8
18777,-0.00012,-0.00013,-0.00044,-0.00062,0.00025,0.00052,-6e-05,-5e-05,4,8
18778,-0.00012,-0.00013,-0.00044,-0.00062,0.00025,0.00052,-6e-05,-5e-05,4,8
18779,-0.00012,-0.00013,-0.00044,-0.00062,0.00025,0.00052,-6e-05,-5e-05,4,8
18780,-0.00012,-0.00013,-0.00044,-0.00062,0.00025,0.00052,-6e-05,-5e-05,4,8
18781,0.00018,0.00014,8e-05,-0.00065,-0.00013,-4e-05,0.00035,0.0002,4,8
18782,0.00018,0.00014,8e-05,-0.00065,-0.00013,-4e-05,0.00035,0.0002,4,8
18783,0.00018,0.00014,8e-05,-0.00065,-0.00013,-4e-05,0.00035,0.0002,4,8
18784,0.00018,0.00014,8e-05,-0.00065,-0.00013,-4e-05,0.00035,0.0002,4,8
18785,0.00018,0.00014,8e-05,-0.00065,-0.00013,-4e-05,0.00035,0.0002,4,8
18786,0.00018,0.00014,8e-05,-0.00065,-0.00013,-4e-05,0.00035,0.0002,4,8
18788,0.00018,0.00014,8e-05,-0.00065,-0.00013,-4e-05,0.00035,0.0002,4,8
18789,0.00018,0.00014,8e-05,-0.00065,-0.00013,-4e-05,0.00035,0.0002,4,8
18790,0.00018,0.00014,8e-05,-0.00065,-0.00013,-4e-05,0.00035,0.0002,4,8
18791,0.00018,0.00014,8e-05,-0.00065,-0.00013,-4e-05,0.00035,0.0002,4,8
18792,0.00018,0.00014,8e-05,-0.00065,-0.00013,-4e-05,0.00035,0.0002,4,8
18793,0.00018,0.00014,8e-05,-0.00065,-0.00013,-4e-05,0.00035,0.0002,4,8
18794,0.00018,0.00014,8e-05,-0.00065,-0.00013,-4e-05,0.00035,0.0002,4,8
18795,0.00018,0.00014,8e-05,-0.00065,-0.00013,-4e-05,0.00035,0.0002,4,8
18796,-3e-05,-0.00015,-0.00029,-0.00083,-0.00047,-0.00011,-0.00011,-7e-05,4,8
18797,-3e-05,-0.00015,-0.00029,-0.00083,-0.00047,-0.00011,-0.00011,-7e-05,4,8
18798,-3e-05,-0.00015,-0.00029,-0.00083,-0.00047,-0.00011,-0.00011,-7e-05,4,8
18799,-3e-05,-0.00015,-0.00029,-0.00083,-0.00047,-0.00011,-0.00011,-7e-05,4,8
18800,-3e-05,-0.00015,-0.00029,-0.00083,-0.00047,-0.00011,-0.00011,-7e-05,4,8
18801,-3e-05,-0.00015,-0.00029,-0.00083,-0.00047,-0.00011,-0.00011,-7e-05,4,8
18802,-3e-05,-0.00015,-0.00029,-0.00083,-0.00047,-0.00011,-0.00011,-7e-05,4,8
18803,-3e-05,-0.00015,-0.00029,-0.00083,-0.00047,-0.00011,-0.00011,-7e-05,4,8
18804,-3e-05,-0.00015,-0.00029,-0.00083,-0.00047,-0.00011,-0.00011,-7e-05,4,8
18805,-3e-05,-0.00015,-0.00029,-0.00083,-0.00047,-0.00011,-0.00011,-7e-05,4,8
18806,-3e-05,-0.00015,-0.00029,-0.00083,-0.00047,-0.00011,-0.00011,-7e-05,4,8
18807,-3e-05,-0.00015,-0.00029,-0.00083,-0.00047,-0.00011,-0.00011,-7e-05,4,8
18808,-3e-05,-0.00015,-0.00029,-0.00083,-0.00047,-0.00011,-0.00011,-7e-05,4,8
18809,-3e-05,-0.00015,-0.00029,-0.00083,-0.00047,-0.00011,-0.00011,-7e-05,4,8
18810,-3e-05,-0.00015,-0.00029,-0.00083,-0.00047,-0.00011,-0.00011,-7e-05,4,8
18811,-3e-05,-0.00015,-0.00029,-0.00083,-0.00047,-0.00011,-0.00011,-7e-05,4,8
18812,-3e-05,-0.00015,-0.00029,-0.00083,-0.00047,-0.00011,-0.00011,-7e-05,4,8
18813,-3e-05,-0.00015,-0.00029,-0.00083,-0.00047,-0.00011,-0.00011,-7e-05,4,8
18814,-3e-05,-0.00015,-0.00029,-0.00083,-0.00047,-0.00011,-0.00011,-7e-05,4,8
18815,-3e-05,-0.00015,-0.00029,-0.00083,-0.00047,-0.00011,-0.00011,-7e-05,4,8
18816,-3e-05,-0.00015,-0.00029,-0.00083,-0.00047,-0.00011,-0.00011,-7e-05,4,8
18817,-3e-05,-0.00015,-0.00029,-0.00083,-0.00047,-0.00011,-0.00011,-7e-05,4,8
18818,-3e-05,-0.00015,-0.00029,-0.00083,-0.00047,-0.00011,-0.00011,-7e-05,4,8
18819,-6e-05,4e-05,0,-0.00022,-7e-05,0.00025,-0.00012,-6e-05,4,8
18820,6e-05,0.00016,0.0005,0.00096,-9e-05,-0.00028,6e-05,6e-05,4,8
18821,6e-05,0.00016,0.0005,0.00096,-9e-05,-0.00028,6e-05,6e-05,4,8
18822,6e-05,0.00016,0.0005,0.00096,-9e-05,-0.00028,6e-05,6e-05,4,8
18823,6e-05,0.00016,0.0005,0.00096,-9e-05,-0.00028,6e-05,6e-05,4,8
18824,6e-05,0.00016,0.0005,0.00096,-9e-05,-0.00028,6e-05,6e-05,4,8
18825,6e-05,0.00016,0.0005,0.00096,-9e-05,-0.00028,6e-05,6e-05,4,8
18826,6e-05,0.00016,0.0005,0.00096,-9e-05,-0.00028,6e-05,6e-05,4,8
18827,6e-05,0.00016,0.0005,0.00096,-9e-05,-0.00028,6e-05,6e-05,4,8
18828,6e-05,0.00016,0.0005,0.00096,-9e-05,-0.00028,6e-05,6e-05,4,8
18829,6e-05,0.00016,0.0005,0.00096,-9e-05,-0.00028,6e-05,6e-05,4,8
18830,6e-05,0.00016,0.0005,0.00096,-9e-05,-0.00028,6e-05,6e-05,4,8
18831,6e-05,0.00016,0.0005,0.00096,-9e-05,-0.00028,6e-05,6e-05,4,8
18832,-4e-05,-8e-05,-9e-05,-0.00082,-0.00062,0.00056,-0.00014,-0.00011,4,8
18833,0,0.00018,0.00058,0.00068,-4e-05,-0.00025,0.0001,4e-05,4,8
18834,0,0.00018,0.00058,0.00068,-4e-05,-0.00025,0.0001,4e-05,4,8
18835,0,0.00018,0.00058,0.00068,-4e-05,-0.00025,0.0001,4e-05,4,8
18836,0,0.00018,0.00058,0.00068,-4e-05,-0.00025,0.0001,4e-05,4,8
18838,0,0.00018,0.00058,0.00068,-4e-05,-0.00025,0.0001,4e-05,4,8
18839,0,0.00018,0.00058,0.00068,-4e-05,-0.00025,0.0001,4e-05,4,8
18840,0,0.00018,0.00058,0.00068,-4e-05,-0.00025,0.0001,4e-05,4,8
18841,-5e-05,-7e-05,-0.00027,-0.00043,-0.00087,-0.00086,-5e-05,-5e-05,4,8
18843,-5e-05,-7e-05,-0.00027,-0.00043,-0.00087,-0.00086,-5e-05,-5e-05,4,8
18844,-5e-05,-7e-05,-0.00027,-0.00043,-0.00087,-0.00086,-5e-05,-5e-05,4,8
18845,-5e-05,-7e-05,-0.00027,-0.00043,-0.00087,-0.00086,-5e-05,-5e-05,4,8
18846,-5e-05,-7e-05,-0.00027,-0.00043,-0.00087,-0.00086,-5e-05,-5e-05,4,8
18847,-5e-05,-7e-05,-0.00027,-0.00043,-0.00087,-0.00086,-5e-05,-5e-05,4,8
18848,-5e-05,-7e-05,-0.00027,-0.00043,-0.00087,-0.00086,-5e-05,-5e-05,4,8
18849,-5e-05,-7e-05,-0.00027,-0.00043,-0.00087,-0.00086,-5e-05,-5e-05,4,8
18850,-5e-05,-7e-05,-0.00027,-0.00043,-0.00087,-0.00086,-5e-05,-5e-05,4,8
18851,-5e-05,-7e-05,-0.00027,-0.00043,-0.00087,-0.00086,-5e-05,-5e-05,4,8
18852,-5e-05,-7e-05,-0.00027,-0.00043,-0.00087,-0.00086,-5e-05,-5e-05,4,8
18853,-5e-05,-7e-05,-0.00027,-0.00043,-0.00087,-0.00086,-5e-05,-5e-05,4,8
18854,-5e-05,-7e-05,-0.00027,-0.00043,-0.00087,-0.00086,-5e-05,-5e-05,4,8
18855,-5e-05,-7e-05,-0.00027,-0.00043,-0.00087,-0.00086,-5e-05,-5e-05,4,8
18856,-9e-05,0.00016,0.00045,0.00016,-0.00127,-0.00035,-6e-05,-3e-05,4,8
18857,-9e-05,0.00016,0.00045,0.00016,-0.00127,-0.00035,-6e-05,-3e-05,4,8
18858,-9e-05,0.00016,0.00045,0.00016,-0.00127,-0.00035,-6e-05,-3e-05,4,8
18859,-9e-05,0.00016,0.00045,0.00016,-0.00127,-0.00035,-6e-05,-3e-05,4,8
18860,-9e-05,0.00016,0.00045,0.00016,-0.00127,-0.00035,-6e-05,-3e-05,4,8
18861,-9e-05,0.00016,0.00045,0.00016,-0.00127,-0.00035,-6e-05,-3e-05,4,8
18862,-9e-05,0.00016,0.00045,0.00016,-0.00127,-0.00035,-6e-05,-3e-05,4,8
18863,-9e-05,0.00016,0.00045,0.00016,-0.00127,-0.00035,-6e-05,-3e-05,4,8
18864,-9e-05,0.00016,0.00045,0.00016,-0.00127,-0.00035,-6e-05,-3e-05,4,8
18865,-9e-05,0.00016,0.00045,0.00016,-0.00127,-0.00035,-6e-05,-3e-05,4,8
18866,-9e-05,0.00016,0.00045,0.00016,-0.00127,-0.00035,-6e-05,-3e-05,4,8
18867,-9e-05,0.00016,0.00045,0.00016,-0.00127,-0.00035,-6e-05,-3e-05,4,8
18868,-9e-05,0.00016,0.00045,0.00016,-0.00127,-0.00035,-6e-05,-3e-05,4,8
18869,-9e-05,0.00016,0.00045,0.00016,-0.00127,-0.00035,-6e-05,-3e-05,4,8
18870,-9e-05,0.00016,0.00045,0.00016,-0.00127,-0.00035,-6e-05,-3e-05,4,8
18871,-9e-05,0.00016,0.00045,0.00016,-0.00127,-0.00035,-6e-05,-3e-05,4,8
18872,-9e-05,0.00016,0.00045,0.00016,-0.00127,-0.00035,-6e-05,-3e-05,4,8
18873,-9e-05,0.00016,0.00045,0.00016,-0.00127,-0.00035,-6e-05,-3e-05,4,8
18874,-9e-05,0.00016,0.00045,0.00016,-0.00127,-0.00035,-6e-05,-3e-05,4,8
18875,-9e-05,0.00016,0.00045,0.00016,-0.00127,-0.00035,-6e-05,-3e-05,4,8
18876,-9e-05,0.00016,0.00045,0.00016,-0.00127,-0.00035,-6e-05,-3e-05,4,8
18877,-9e-05,0.00016,0.00045,0.00016,-0.00127,-0.00035,-6e-05,-3e-05,4,8
18878,-9e-05,0.00016,0.00045,0.00016,-0.00127,-0.00035,-6e-05,-3e-05,4,8
18879,-7e-05,-0.0002,-0.00062,-0.00085,1e-05,-0.0007,1e-05,-7e-05,4,8
18880,-7e-05,-0.0002,-0.00062,-0.00085,1e-05,-0.0007,1e-05,-7e-05,4,8
18882,-7e-05,-0.0002,-0.00062,-0.00085,1e-05,-0.0007,1e-05,-7e-05,4,8
18883,-7e-05,-0.0002,-0.00062,-0.00085,1e-05,-0.0007,1e-05,-7e-05,4,8
18884,-7e-05,-0.0002,-0.00062,-0.00085,1e-05,-0.0007,1e-05,-7e-05,4,8
18885,-7e-05,-0.0002,-0.00062,-0.00085,1e-05,-0.0007,1e-05,-7e-05,4,8
18886,-7e-05,-0.0002,-0.00062,-0.00085,1e-05,-0.0007,1e-05,-7e-05,4,8
18888,-7e-05,-0.0002,-0.00062,-0.00085,1e-05,-0.0007,1e-05,-7e-05,4,8
18890,-7e-05,-0.0002,-0.00062,-0.00085,1e-05,-0.0007,1e-05,-7e-05,4,8
18891,-7e-05,-0.0002,-0.00062,-0.00085,1e-05,-0.0007,1e-05,-7e-05,4,8
18892,6e-05,2e-05,-4e-05,0.00038,0.00042,0.00017,6e-05,7e-05,4,8
18893,6e-05,2e-05,-4e-05,0.00038,0.00042,0.00017,6e-05,7e-05,4,8
18894,6e-05,2e-05,-4e-05,0.00038,0.00042,0.00017,6e-05,7e-05,4,8
18895,6e-05,2e-05,-4e-05,0.00038,0.00042,0.00017,6e-05,7e-05,4,8
18896,6e-05,2e-05,-4e-05,0.00038,0.00042,0.00017,6e-05,7e-05,4,8
18897,6e-05,2e-05,-4e-05,0.00038,0.00042,0.00017,6e-05,7e-05,4,8
18898,6e-05,2e-05,-4e-05,0.00038,0.00042,0.00017,6e-05,7e-05,4,8
18899,6e-05,2e-05,-4e-05,0.00038,0.00042,0.00017,6e-05,7e-05,4,8
18900,6e-05,2e-05,-4e-05,0.00038,0.00042,0.00017,6e-05,7e-05,4,8
18901,9e-05,6e-05,-2e-05,4e-05,0.00016,0.00019,0.00044,0.00016,4,8
18902,9e-05,6e-05,-2e-05,4e-05,0.00016,0.00019,0.00044,0.00016,4,8
18903,9e-05,6e-05,-2e-05,4e-05,0.00016,0.00019,0.00044,0.00016,4,8
18904,9e-05,6e-05,-2e-05,4e-05,0.00016,0.00019,0.00044,0.00016,4,8
18905,9e-05,6e-05,-2e-05,4e-05,0.00016,0.00019,0.00044,0.00016,4,8
18906,9e-05,6e-05,-2e-05,4e-05,0.00016,0.00019,0.00044,0.00016,4,8
18907,9e-05,6e-05,-2e-05,4e-05,0.00016,0.00019,0.00044,0.00016,4,8
18908,9e-05,6e-05,-2e-05,4e-05,0.00016,0.00019,0.00044,0.00016,4,8
18909,9e-05,6e-05,-2e-05,4e-05,0.00016,0.00019,0.00044,0.00016,4,8
18910,9e-05,6e-05,-2e-05,4e-05,0.00016,0.00019,0.00044,0.00016,4,8
18911,9e-05,6e-05,-2e-05,4e-05,0.00016,0.00019,0.00044,0.00016,4,8
18912,9e-05,6e-05,-2e-05,4e-05,0.00016,0.00019,0.00044,0.00016,4,8
18913,9e-05,6e-05,-2e-05,4e-05,0.00016,0.00019,0.00044,0.00016,4,8
18914,9e-05,6e-05,-2e-05,4e-05,0.00016,0.00019,0.00044,0.00016,4,8
18915,9e-05,6e-05,-2e-05,4e-05,0.00016,0.00019,0.00044,0.00016,4,8
18916,-0.00022,-0.00014,-0.00073,0.00017,0.00048,0.0009,6e-05,-9e-05,4,8
18917,-0.00022,-0.00014,-0.00073,0.00017,0.00048,0.0009,6e-05,-9e-05,4,8
18918,-0.00022,-0.00014,-0.00073,0.00017,0.00048,0.0009,6e-05,-9e-05,4,8
18919,-0.00022,-0.00014,-0.00073,0.00017,0.00048,0.0009,6e-05,-9e-05,4,8
18920,-0.00022,-0.00014,-0.00073,0.00017,0.00048,0.0009,6e-05,-9e-05,4,8
18921,-0.00022,-0.00014,-0.00073,0.00017,0.00048,0.0009,6e-05,-9e-05,4,8
18922,-0.00022,-0.00014,-0.00073,0.00017,0.00048,0.0009,6e-05,-9e-05,4,8
18923,-0.00022,-0.00014,-0.00073,0.00017,0.00048,0.0009,6e-05,-9e-05,4,8
18924,-0.00022,-0.00014,-0.00073,0.00017,0.00048,0.0009,6e-05,-9e-05,4,8
18925,-0.00022,-0.00014,-0.00073,0.00017,0.00048,0.0009,6e-05,-9e-05,4,8
18926,-0.00022,-0.00014,-0.00073,0.00017,0.00048,0.0009,6e-05,-9e-05,4,8
18927,-0.00022,-0.00014,-0.00073,0.00017,0.00048,0.0009,6e-05,-9e-05,4,8
18928,-0.00022,-0.00014,-0.00073,0.00017,0.00048,0.0009,6e-05,-9e-05,4,8
18929,-0.00022,-0.00014,-0.00073,0.00017,0.00048,0.0009,6e-05,-9e-05,4,8
18930,-0.00022,-0.00014,-0.00073,0.00017,0.00048,0.0009,6e-05,-9e-05,4,8
18931,-0.00022,-0.00014,-0.00073,0.00017,0.00048,0.0009,6e-05,-9e-05,4,8
18932,-0.00022,-0.00014,-0.00073,0.00017,0.00048,0.0009,6e-05,-9e-05,4,8
18933,-0.00022,-0.00014,-0.00073,0.00017,0.00048,0.0009,6e-05,-9e-05,4,8
18934,-0.00022,-0.00014,-0.00073,0.00017,0.00048,0.0009,6e-05,-9e-05,4,8
18935,-0.00022,-0.00014,-0.00073,0.00017,0.00048,0.0009,6e-05,-9e-05,4,8
18936,-0.00022,-0.00014,-0.00073,0.00017,0.00048,0.0009,6e-05,-9e-05,4,8
18939,8e-05,0.00021,0.00082,0.00091,-0.00062,0.00031,-0.00043,-9e-05,4,8
18940,8e-05,0.00021,0.00082,0.00091,-0.00062,0.00031,-0.00043,-9e-05,4,8
18941,8e-05,0.00021,0.00082,0.00091,-0.00062,0.00031,-0.00043,-9e-05,4,8
18942,8e-05,0.00021,0.00082,0.00091,-0.00062,0.00031,-0.00043,-9e-05,4,8
18943,8e-05,0.00021,0.00082,0.00091,-0.00062,0.00031,-0.00043,-9e-05,4,8
18944,8e-05,0.00021,0.00082,0.00091,-0.00062,0.00031,-0.00043,-9e-05,4,8
18945,8e-05,0.00021,0.00082,0.00091,-0.00062,0.00031,-0.00043,-9e-05,4,8
18946,8e-05,0.00021,0.00082,0.00091,-0.00062,0.00031,-0.00043,-9e-05,4,8
18947,8e-05,0.00021,0.00082,0.00091,-0.00062,0.00031,-0.00043,-9e-05,4,8
18948,8e-05,0.00021,0.00082,0.00091,-0.00062,0.00031,-0.00043,-9e-05,4,8
18949,8e-05,0.00021,0.00082,0.00091,-0.00062,0.00031,-0.00043,-9e-05,4,8
18950,8e-05,0.00021,0.00082,0.00091,-0.00062,0.00031,-0.00043,-9e-05,4,8
18951,8e-05,0.00021,0.00082,0.00091,-0.00062,0.00031,-0.00043,-9e-05,4,8
18952,8e-05,0.00021,0.00082,0.00091,-0.00062,0.00031,-0.00043,-9e-05,4,8
18953,8e-05,0.00021,0.00082,0.00091,-0.00062,0.00031,-0.00043,-9e-05,4,8
18954,8e-05,0.00021,0.00082,0.00091,-0.00062,0.00031,-0.00043,-9e-05,4,8
18955,8e-05,0.00021,0.00082,0.00091,-0.00062,0.00031,-0.00043,-9e-05,4,8
18956,8e-05,0.00021,0.00082,0.00091,-0.00062,0.00031,-0.00043,-9e-05,4,8
18957,8e-05,0.00021,0.00082,0.00091,-0.00062,0.00031,-0.00043,-9e-05,4,8
18958,8e-05,0.00021,0.00082,0.00091,-0.00062,0.00031,-0.00043,-9e-05,4,8
18959,8e-05,0.00021,0.00082,0.00091,-0.00062,0.00031,-0.00043,-9e-05,4,8
18960,8e-05,0.00021,0.00082,0.00091,-0.00062,0.00031,-0.00043,-9e-05,4,8
18961,4e-05,-1e-05,0.00021,1e-05,-0.00084,0.00052,2e-05,-2e-05,4,8
18962,0.0001,0.00019,0.00049,-0.00032,-0.00078,-6e-05,-0.00021,-1e-05,4,8
18963,0.0001,0.00019,0.00049,-0.00032,-0.00078,-6e-05,-0.00021,-1e-05,4,8
18964,0.0001,0.00019,0.00049,-0.00032,-0.00078,-6e-05,-0.00021,-1e-05,4,8
18965,0.0001,0.00019,0.00049,-0.00032,-0.00078,-6e-05,-0.00021,-1e-05,4,8
18966,0.0001,0.00019,0.00049,-0.00032,-0.00078,-6e-05,-0.00021,-1e-05,4,8
18967,0.0001,0.00019,0.00049,-0.00032,-0.00078,-6e-05,-0.00021,-1e-05,4,8
18968,0.0001,0.00019,0.00049,-0.00032,-0.00078,-6e-05,-0.00021,-1e-05,4,8
18969,0.0001,0.00019,0.00049,-0.00032,-0.00078,-6e-05,-0.00021,-1e-05,4,8
18970,0.0001,0.00019,0.00049,-0.00032,-0.00078,-6e-05,-0.00021,-1e-05,4,8
18971,0.0001,0.00019,0.00049,-0.00032,-0.00078,-6e-05,-0.00021,-1e-05,4,8
18972,0.0001,0.00019,0.00049,-0.00032,-0.00078,-6e-05,-0.00021,-1e-05,4,8
18973,0.0001,0.00019,0.00049,-0.00032,-0.00078,-6e-05,-0.00021,-1e-05,4,8
18974,0.0001,0.00019,0.00049,-0.00032,-0.00078,-6e-05,-0.00021,-1e-05,4,8
18975,6e-05,-8e-05,-0.00039,-0.00103,0.00065,0.00011,4e-05,6e-05,4,8
18976,-0.00023,-0.00018,-0.00024,0.00031,-0.00031,-0.00026,-0.00013,-0.00016,4,8
18977,-0.00023,-0.00018,-0.00024,0.00031,-0.00031,-0.00026,-0.00013,-0.00016,4,8
18978,-0.00023,-0.00018,-0.00024,0.00031,-0.00031,-0.00026,-0.00013,-0.00016,4,8
18979,-0.00023,-0.00018,-0.00024,0.00031,-0.00031,-0.00026,-0.00013,-0.00016,4,8
18980,-0.00023,-0.00018,-0.00024,0.00031,-0.00031,-0.00026,-0.00013,-0.00016,4,8
18981,-0.00023,-0.00018,-0.00024,0.00031,-0.00031,-0.00026,-0.00013,-0.00016,4,8
18982,-0.00023,-0.00018,-0.00024,0.00031,-0.00031,-0.00026,-0.00013,-0.00016,4,8
18983,-0.00023,-0.00018,-0.00024,0.00031,-0.00031,-0.00026,-0.00013,-0.00016,4,8
18984,-0.00023,-0.00018,-0.00024,0.00031,-0.00031,-0.00026,-0.00013,-0.00016,4,8
18985,-0.00023,-0.00018,-0.00024,0.00031,-0.00031,-0.00026,-0.00013,-0.00016,4,8
18986,-0.00023,-0.00018,-0.00024,0.00031,-0.00031,-0.00026,-0.00013,-0.00016,4,8
18988,-0.00023,-0.00018,-0.00024,0.00031,-0.00031,-0.00026,-0.00013,-0.00016,4,8
18989,-0.00023,-0.00018,-0.00024,0.00031,-0.00031,-0.00026,-0.00013,-0.00016,4,8
18990,-0.00023,-0.00018,-0.00024,0.00031,-0.00031,-0.00026,-0.00013,-0.00016,4,8
18991,-0.00023,-0.00018,-0.00024,0.00031,-0.00031,-0.00026,-0.00013,-0.00016,4,8
18992,-0.00023,-0.00018,-0.00024,0.00031,-0.00031,-0.00026,-0.00013,-0.00016,4,8
18993,-0.00023,-0.00018,-0.00024,0.00031,-0.00031,-0.00026,-0.00013,-0.00016,4,8
18994,-0.00023,-0.00018,-0.00024,0.00031,-0.00031,-0.00026,-0.00013,-0.00016,4,8
18995,-0.00023,-0.00018,-0.00024,0.00031,-0.00031,-0.00026,-0.00013,-0.00016,4,8
18996,-0.00023,-0.00018,-0.00024,0.00031,-0.00031,-0.00026,-0.00013,-0.00016,4,8
18997,-0.00023,-0.00018,-0.00024,0.00031,-0.00031,-0.00026,-0.00013,-0.00016,4,8
18998,-0.00023,-0.00018,-0.00024,0.00031,-0.00031,-0.00026,-0.00013,-0.00016,4,8
18999,1e-05,-0.00013,-0.00053,-0.0001,6e-05,0.00039,-1e-05,-3e-05,4,8
19000,0.00019,0.00021,0.00031,0.00098,0.00127,0.00068,0.00018,0.00018,4,8
19001,0.00019,0.00021,0.00031,0.00098,0.00127,0.00068,0.00018,0.00018,4,8
19002,0.00019,0.00021,0.00031,0.00098,0.00127,0.00068,0.00018,0.00018,4,8
19003,0.00019,0.00021,0.00031,0.00098,0.00127,0.00068,0.00018,0.00018,4,8
19004,0.00019,0.00021,0.00031,0.00098,0.00127,0.00068,0.00018,0.00018,4,8
19005,0.00019,0.00021,0.00031,0.00098,0.00127,0.00068,0.00018,0.00018,4,8
19006,0.00019,0.00021,0.00031,0.00098,0.00127,0.00068,0.00018,0.00018,4,8
19007,0.00019,0.00021,0.00031,0.00098,0.00127,0.00068,0.00018,0.00018,4,8
19008,0.00019,0.00021,0.00031,0.00098,0.00127,0.00068,0.00018,0.00018,4,8
19009,0.00019,0.00021,0.00031,0.00098,0.00127,0.00068,0.00018,0.00018,4,8
19010,0.00019,0.00021,0.00031,0.00098,0.00127,0.00068,0.00018,0.00018,4,8
19011,0.00019,0.00021,0.00031,0.00098,0.00127,0.00068,0.00018,0.00018,4,8
19012,0.00019,0.00021,0.00031,0.00098,0.00127,0.00068,0.00018,0.00018,4,8
19013,0.00019,0.00021,0.00031,0.00098,0.00127,0.00068,0.00018,0.00018,4,8
19014,0.00019,0.00021,0.00031,0.00098,0.00127,0.00068,0.00018,0.00018,4,8
19015,0.00019,0.00021,0.00031,0.00098,0.00127,0.00068,0.00018,0.00018,4,8
19016,0.00019,0.00021,0.00031,0.00098,0.00127,0.00068,0.00018,0.00018,4,8
19017,0.00019,0.00021,0.00031,0.00098,0.00127,0.00068,0.00018,0.00018,4,8
19018,0.00019,0.00021,0.00031,0.00098,0.00127,0.00068,0.00018,0.00018,4,8
19019,0.00019,0.00021,0.00031,0.00098,0.00127,0.00068,0.00018,0.00018,4,8
19020,0.00019,0.00021,0.00031,0.00098,0.00127,0.00068,0.00018,0.00018,4,8
19021,-0.00029,-0.00023,-0.00066,-0.00089,0.00013,0.00017,6e-05,-0.00014,4,8
19022,7e-05,-4e-05,-0.0001,-0.00065,-0.00019,0.00013,0,3e-05,4,8
19023,7e-05,-4e-05,-0.0001,-0.00065,-0.00019,0.00013,0,3e-05,4,8
19024,7e-05,-4e-05,-0.0001,-0.00065,-0.00019,0.00013,0,3e-05,4,8
19025,7e-05,-4e-05,-0.0001,-0.00065,-0.00019,0.00013,0,3e-05,4,8
19026,7e-05,-4e-05,-0.0001,-0.00065,-0.00019,0.00013,0,3e-05,4,8
19027,7e-05,-4e-05,-0.0001,-0.00065,-0.00019,0.00013,0,3e-05,4,8
19028,7e-05,-4e-05,-0.0001,-0.00065,-0.00019,0.00013,0,3e-05,4,8
19029,7e-05,-4e-05,-0.0001,-0.00065,-0.00019,0.00013,0,3e-05,4,8
19030,7e-05,-4e-05,-0.0001,-0.00065,-0.00019,0.00013,0,3e-05,4,8
19031,7e-05,-4e-05,-0.0001,-0.00065,-0.00019,0.00013,0,3e-05,4,8
19032,7e-05,-4e-05,-0.0001,-0.00065,-0.00019,0.00013,0,3e-05,4,8
19033,7e-05,-4e-05,-0.0001,-0.00065,-0.00019,0.00013,0,3e-05,4,8
19034,7e-05,-4e-05,-0.0001,-0.00065,-0.00019,0.00013,0,3e-05,4,8
19035,7e-05,-4e-05,-0.0001,-0.00065,-0.00019,0.00013,0,3e-05,4,8
19036,0.00016,0.00014,0.00016,0.00055,0.00121,0.00088,0.00035,0.00025,4,8
19038,0.00016,0.00014,0.00016,0.00055,0.00121,0.00088,0.00035,0.00025,4,8
19039,0.00016,0.00014,0.00016,0.00055,0.00121,0.00088,0.00035,0.00025,4,8
19040,0.00016,0.00014,0.00016,0.00055,0.00121,0.00088,0.00035,0.00025,4,8
19041,0.00016,0.00014,0.00016,0.00055,0.00121,0.00088,0.00035,0.00025,4,8
19042,0.00016,0.00014,0.00016,0.00055,0.00121,0.00088,0.00035,0.00025,4,8
19043,0.00016,0.00014,0.00016,0.00055,0.00121,0.00088,0.00035,0.00025,4,8
19044,0.00016,0.00014,0.00016,0.00055,0.00121,0.00088,0.00035,0.00025,4,8
19045,0.00016,0.00014,0.00016,0.00055,0.00121,0.00088,0.00035,0.00025,4,8
19046,0.00016,0.00014,0.00016,0.00055,0.00121,0.00088,0.00035,0.00025,4,8
19047,0.00016,0.00014,0.00016,0.00055,0.00121,0.00088,0.00035,0.00025,4,8
19048,0.00016,0.00014,0.00016,0.00055,0.00121,0.00088,0.00035,0.00025,4,8
19049,0.00016,0.00014,0.00016,0.00055,0.00121,0.00088,0.00035,0.00025,4,8
19050,0.00016,0.00014,0.00016,0.00055,0.00121,0.00088,0.00035,0.00025,4,8
19051,0.00016,0.00014,0.00016,0.00055,0.00121,0.00088,0.00035,0.00025,4,8
19052,0.00016,0.00014,0.00016,0.00055,0.00121,0.00088,0.00035,0.00025,4,8
19053,0.00016,0.00014,0.00016,0.00055,0.00121,0.00088,0.00035,0.00025,4,8
19054,0.00016,0.00014,0.00016,0.00055,0.00121,0.00088,0.00035,0.00025,4,8
19055,0.00016,0.00014,0.00016,0.00055,0.00121,0.00088,0.00035,0.00025,4,8
19056,0.00016,0.00014,0.00016,0.00055,0.00121,0.00088,0.00035,0.00025,4,8
19057,0.00016,0.00014,0.00016,0.00055,0.00121,0.00088,0.00035,0.00025,4,8
19058,0.00016,0.00014,0.00016,0.00055,0.00121,0.00088,0.00035,0.00025,4,8
19059,6e-05,-8e-05,-0.00058,-0.00073,0.00091,-5e-05,9e-05,0.00011,4,8
19060,-1e-05,-9e-05,-2e-05,-0.00013,-0.00114,-0.00035,-0.00015,-6e-05,4,8
19061,-1e-05,-9e-05,-2e-05,-0.00013,-0.00114,-0.00035,-0.00015,-6e-05,4,8
19062,-1e-05,-9e-05,-2e-05,-0.00013,-0.00114,-0.00035,-0.00015,-6e-05,4,8
19063,-1e-05,-9e-05,-2e-05,-0.00013,-0.00114,-0.00035,-0.00015,-6e-05,4,8
19064,-1e-05,-9e-05,-2e-05,-0.00013,-0.00114,-0.00035,-0.00015,-6e-05,4,8
19065,-1e-05,-9e-05,-2e-05,-0.00013,-0.00114,-0.00035,-0.00015,-6e-05,4,8
19066,-1e-05,-9e-05,-2e-05,-0.00013,-0.00114,-0.00035,-0.00015,-6e-05,4,8
19067,-1e-05,-9e-05,-2e-05,-0.00013,-0.00114,-0.00035,-0.00015,-6e-05,4,8
19068,-1e-05,-9e-05,-2e-05,-0.00013,-0.00114,-0.00035,-0.00015,-6e-05,4,8
19069,-1e-05,-9e-05,-2e-05,-0.00013,-0.00114,-0.00035,-0.00015,-6e-05,4,8
19070,-1e-05,-9e-05,-2e-05,-0.00013,-0.00114,-0.00035,-0.00015,-6e-05,4,8
19071,-1e-05,-9e-05,-2e-05,-0.00013,-0.00114,-0.00035,-0.00015,-6e-05,4,8
19072,-1e-05,-9e-05,-2e-05,-0.00013,-0.00114,-0.00035,-0.00015,-6e-05,4,8
19073,-1e-05,-9e-05,-2e-05,-0.00013,-0.00114,-0.00035,-0.00015,-6e-05,4,8
19074,-1e-05,-9e-05,-2e-05,-0.00013,-0.00114,-0.00035,-0.00015,-6e-05,4,8
19075,-1e-05,-9e-05,-2e-05,-0.00013,-0.00114,-0.00035,-0.00015,-6e-05,4,8
19076,-1e-05,-9e-05,-2e-05,-0.00013,-0.00114,-0.00035,-0.00015,-6e-05,4,8
19077,-1e-05,-9e-05,-2e-05,-0.00013,-0.00114,-0.00035,-0.00015,-6e-05,4,8
19078,-1e-05,-9e-05,-2e-05,-0.00013,-0.00114,-0.00035,-0.00015,-6e-05,4,8
19079,-1e-05,-9e-05,-2e-05,-0.00013,-0.00114,-0.00035,-0.00015,-6e-05,4,8
19080,-1e-05,-9e-05,-2e-05,-0.00013,-0.00114,-0.00035,-0.00015,-6e-05,4,8
19081,0.00014,0.00026,0.00034,0.00063,0.00064,0.00059,0.00022,0.00015,4,8
19082,4e-05,-0.0001,-0.00021,-0.00095,-0.00053,-0.00031,-0.0003,-0.00011,4,8
19083,4e-05,-0.0001,-0.00021,-0.00095,-0.00053,-0.00031,-0.0003,-0.00011,4,8
19084,4e-05,-0.0001,-0.00021,-0.00095,-0.00053,-0.00031,-0.0003,-0.00011,4,8
19085,4e-05,-0.0001,-0.00021,-0.00095,-0.00053,-0.00031,-0.0003,-0.00011,4,8
19086,4e-05,-0.0001,-0.00021,-0.00095,-0.00053,-0.00031,-0.0003,-0.00011,4,8
19088,4e-05,-0.0001,-0.00021,-0.00095,-0.00053,-0.00031,-0.0003,-0.00011,4,8
19090,4e-05,-0.0001,-0.00021,-0.00095,-0.00053,-0.00031,-0.0003,-0.00011,4,8
19091,4e-05,-0.0001,-0.00021,-0.00095,-0.00053,-0.00031,-0.0003,-0.00011,4,8
19092,4e-05,-0.0001,-0.00021,-0.00095,-0.00053,-0.00031,-0.0003,-0.00011,4,8
19093,4e-05,-0.0001,-0.00021,-0.00095,-0.00053,-0.00031,-0.0003,-0.00011,4,8
19094,4e-05,-0.0001,-0.00021,-0.00095,-0.00053,-0.00031,-0.0003,-0.00011,4,8
19095,-0.00023,-0.00026,-0.0005,-0.00054,-0.00079,-0.00025,-0.00011,-0.00011,4,8
19096,-9e-05,-6e-05,0.00011,0.00089,-0.00065,0.00039,-6e-05,-8e-05,4,8
19098,-9e-05,-6e-05,0.00011,0.00089,-0.00065,0.00039,-6e-05,-8e-05,4,8
19099,-9e-05,-6e-05,0.00011,0.00089,-0.00065,0.00039,-6e-05,-8e-05,4,8
19100,-9e-05,-6e-05,0.00011,0.00089,-0.00065,0.00039,-6e-05,-8e-05,4,8
19101,-9e-05,-6e-05,0.00011,0.00089,-0.00065,0.00039,-6e-05,-8e-05,4,8
19102,-9e-05,-6e-05,0.00011,0.00089,-0.00065,0.00039,-6e-05,-8e-05,4,8
19103,-9e-05,-6e-05,0.00011,0.00089,-0.00065,0.00039,-6e-05,-8e-05,4,8
19104,-9e-05,-6e-05,0.00011,0.00089,-0.00065,0.00039,-6e-05,-8e-05,4,8
19105,-9e-05,-6e-05,0.00011,0.00089,-0.00065,0.00039,-6e-05,-8e-05,4,8
19106,-9e-05,-6e-05,0.00011,0.00089,-0.00065,0.00039,-6e-05,-8e-05,4,8
19107,-9e-05,-6e-05,0.00011,0.00089,-0.00065,0.00039,-6e-05,-8e-05,4,8
19108,-9e-05,-6e-05,0.00011,0.00089,-0.00065,0.00039,-6e-05,-8e-05,4,8
19109,-9e-05,-6e-05,0.00011,0.00089,-0.00065,0.00039,-6e-05,-8e-05,4,8
19110,-9e-05,-6e-05,0.00011,0.00089,-0.00065,0.00039,-6e-05,-8e-05,4,8
19111,-9e-05,-6e-05,0.00011,0.00089,-0.00065,0.00039,-6e-05,-8e-05,4,8
19112,-9e-05,-6e-05,0.00011,0.00089,-0.00065,0.00039,-6e-05,-8e-05,4,8
19113,-9e-05,-6e-05,0.00011,0.00089,-0.00065,0.00039,-6e-05,-8e-05,4,8
19114,-9e-05,-6e-05,0.00011,0.00089,-0.00065,0.00039,-6e-05,-8e-05,4,8
19115,-9e-05,-6e-05,0.00011,0.00089,-0.00065,0.00039,-6e-05,-8e-05,4,8
19116,-9e-05,-6e-05,0.00011,0.00089,-0.00065,0.00039,-6e-05,-8e-05,4,8
19117,-9e-05,-6e-05,0.00011,0.00089,-0.00065,0.00039,-6e-05,-8e-05,4,8
19118,-9e-05,-6e-05,0.00011,0.00089,-0.00065,0.00039,-6e-05,-8e-05,4,8
19119,0,9e-05,0.00037,0.0008,0.0002,-0.00033,-0.00013,-1e-05,4,8
19120,-1e-05,-0.00016,-0.0004,0.00012,-5e-05,-0.00067,0.00028,0.0001,4,8
19121,-1e-05,-0.00016,-0.0004,0.00012,-5e-05,-0.00067,0.00028,0.0001,4,8
19122,-1e-05,-0.00016,-0.0004,0.00012,-5e-05,-0.00067,0.00028,0.0001,4,8
19123,-1e-05,-0.00016,-0.0004,0.00012,-5e-05,-0.00067,0.00028,0.0001,4,8
19124,-1e-05,-0.00016,-0.0004,0.00012,-5e-05,-0.00067,0.00028,0.0001,4,8
19125,-1e-05,-0.00016,-0.0004,0.00012,-5e-05,-0.00067,0.00028,0.0001,4,8
19126,-1e-05,-0.00016,-0.0004,0.00012,-5e-05,-0.00067,0.00028,0.0001,4,8
19127,-1e-05,-0.00016,-0.0004,0.00012,-5e-05,-0.00067,0.00028,0.0001,4,8
19128,-1e-05,-0.00016,-0.0004,0.00012,-5e-05,-0.00067,0.00028,0.0001,4,8
19129,-1e-05,-0.00016,-0.0004,0.00012,-5e-05,-0.00067,0.00028,0.0001,4,8
19130,-1e-05,-0.00016,-0.0004,0.00012,-5e-05,-0.00067,0.00028,0.0001,4,8
19131,-1e-05,-0.00016,-0.0004,0.00012,-5e-05,-0.00067,0.00028,0.0001,4,8
19132,-1e-05,-0.00016,-0.0004,0.00012,-5e-05,-0.00067,0.00028,0.0001,4,8
19133,-1e-05,-0.00016,-0.0004,0.00012,-5e-05,-0.00067,0.00028,0.0001,4,8
19134,-1e-05,-0.00016,-0.0004,0.00012,-5e-05,-0.00067,0.00028,0.0001,4,8
19135,-1e-05,-0.00016,-0.0004,0.00012,-5e-05,-0.00067,0.00028,0.0001,4,8
19136,-1e-05,-0.00016,-0.0004,0.00012,-5e-05,-0.00067,0.00028,0.0001,4,8
19139,-1e-05,-0.00016,-0.0004,0.00012,-5e-05,-0.00067,0.00028,0.0001,4,8
19140,-1e-05,-0.00016,-0.0004,0.00012,-5e-05,-0.00067,0.00028,0.0001,4,8
19141,3e-05,0,0.0001,1e-05,0.00091,0.0007,9e-05,3e-05,4,8
19142,5e-05,4e-05,4e-05,-0.00025,-0.00032,0.00027,5e-05,2e-05,4,8
19143,5e-05,4e-05,4e-05,-0.00025,-0.00032,0.00027,5e-05,2e-05,4,8
19144,5e-05,4e-05,4e-05,-0.00025,-0.00032,0.00027,5e-05,2e-05,4,8
19145,5e-05,4e-05,4e-05,-0.00025,-0.00032,0.00027,5e-05,2e-05,4,8
19146,5e-05,4e-05,4e-05,-0.00025,-0.00032,0.00027,5e-05,2e-05,4,8
19147,5e-05,4e-05,4e-05,-0.00025,-0.00032,0.00027,5e-05,2e-05,4,8
19148,5e-05,4e-05,4e-05,-0.00025,-0.00032,0.00027,5e-05,2e-05,4,8
19149,5e-05,4e-05,4e-05,-0.00025,-0.00032,0.00027,5e-05,2e-05,4,8
19150,5e-05,4e-05,4e-05,-0.00025,-0.00032,0.00027,5e-05,2e-05,4,8
19151,5e-05,4e-05,4e-05,-0.00025,-0.00032,0.00027,5e-05,2e-05,4,8
19152,5e-05,4e-05,4e-05,-0.00025,-0.00032,0.00027,5e-05,2e-05,4,8
19153,5e-05,4e-05,4e-05,-0.00025,-0.00032,0.00027,5e-05,2e-05,4,8
19154,5e-05,4e-05,4e-05,-0.00025,-0.00032,0.00027,5e-05,2e-05,4,8
19155,5e-05,4e-05,4e-05,-0.00025,-0.00032,0.00027,5e-05,2e-05,4,8
19156,-0.0001,-0.00012,0,0.00067,-0.00094,-0.00021,0.00016,-8e-05,4,8
19158,-0.0001,-0.00012,0,0.00067,-0.00094,-0.00021,0.00016,-8e-05,4,8
19159,-0.0001,-0.00012,0,0.00067,-0.00094,-0.00021,0.00016,-8e-05,4,8
19160,-0.0001,-0.00012,0,0.00067,-0.00094,-0.00021,0.00016,-8e-05,4,8
19161,-0.0001,-0.00012,0,0.00067,-0.00094,-0.00021,0.00016,-8e-05,4,8
19162,-0.0001,-0.00012,0,0.00067,-0.00094,-0.00021,0.00016,-8e-05,4,8
19163,-0.0001,-0.00012,0,0.00067,-0.00094,-0.00021,0.00016,-8e-05,4,8
19164,-0.0001,-0.00012,0,0.00067,-0.00094,-0.00021,0.00016,-8e-05,4,8
19165,-0.0001,-0.00012,0,0.00067,-0.00094,-0.00021,0.00016,-8e-05,4,8
19166,-0.0001,-0.00012,0,0.00067,-0.00094,-0.00021,0.00016,-8e-05,4,8
19167,-0.0001,-0.00012,0,0.00067,-0.00094,-0.00021,0.00016,-8e-05,4,8
19168,-0.0001,-0.00012,0,0.00067,-0.00094,-0.00021,0.00016,-8e-05,4,8
19169,-0.0001,-0.00012,0,0.00067,-0.00094,-0.00021,0.00016,-8e-05,4,8
19170,-0.0001,-0.00012,0,0.00067,-0.00094,-0.00021,0.00016,-8e-05,4,8
19171,-0.0001,-0.00012,0,0.00067,-0.00094,-0.00021,0.00016,-8e-05,4,8
19172,-0.0001,-0.00012,0,0.00067,-0.00094,-0.00021,0.00016,-8e-05,4,8
19173,-0.0001,-0.00012,0,0.00067,-0.00094,-0.00021,0.00016,-8e-05,4,8
19174,-0.0001,-0.00012,0,0.00067,-0.00094,-0.00021,0.00016,-8e-05,4,8
19175,-0.0001,-0.00012,0,0.00067,-0.00094,-0.00021,0.00016,-8e-05,4,8
19176,-0.0001,-0.00012,0,0.00067,-0.00094,-0.00021,0.00016,-8e-05,4,8
19177,-0.0001,-0.00012,0,0.00067,-0.00094,-0.00021,0.00016,-8e-05,4,8
19178,-0.0001,-0.00012,0,0.00067,-0.00094,-0.00021,0.00016,-8e-05,4,8
19179,6e-05,6e-05,0.00017,-0.00018,-0.0008,-0.00018,-0.00018,-2e-05,4,8
19180,-3e-05,-0.0001,-0.00029,0.00021,-6e-05,-0.00036,-0.00012,-3e-05,4,8
19181,-3e-05,-0.0001,-0.00029,0.00021,-6e-05,-0.00036,-0.00012,-3e-05,4,8
19182,-3e-05,-0.0001,-0.00029,0.00021,-6e-05,-0.00036,-0.00012,-3e-05,4,8
19183,-3e-05,-0.0001,-0.00029,0.00021,-6e-05,-0.00036,-0.00012,-3e-05,4,8
19184,-3e-05,-0.0001,-0.00029,0.00021,-6e-05,-0.00036,-0.00012,-3e-05,4,8
19185,-3e-05,-0.0001,-0.00029,0.00021,-6e-05,-0.00036,-0.00012,-3e-05,4,8
19186,-3e-05,-0.0001,-0.00029,0.00021,-6e-05,-0.00036,-0.00012,-3e-05,4,8
19188,-3e-05,-0.0001,-0.00029,0.00021,-6e-05,-0.00036,-0.00012,-3e-05,4,8
19189,-3e-05,-0.0001,-0.00029,0.00021,-6e-05,-0.00036,-0.00012,-3e-05,4,8
19190,-3e-05,-0.0001,-0.00029,0.00021,-6e-05,-0.00036,-0.00012,-3e-05,4,8
19191,-3e-05,-0.0001,-0.00029,0.00021,-6e-05,-0.00036,-0.00012,-3e-05,4,8
19192,-3e-05,-0.0001,-0.00029,0.00021,-6e-05,-0.00036,-0.00012,-3e-05,4,8
19193,-3e-05,-0.0001,-0.00029,0.00021,-6e-05,-0.00036,-0.00012,-3e-05,4,8
19194,-3e-05,-0.0001,-0.00029,0.00021,-6e-05,-0.00036,-0.00012,-3e-05,4,8
19195,-3e-05,-0.0001,-0.00029,0.00021,-6e-05,-0.00036,-0.00012,-3e-05,4,8
19196,-3e-05,-0.0001,-0.00029,0.00021,-6e-05,-0.00036,-0.00012,-3e-05,4,8
19197,-3e-05,-0.0001,-0.00029,0.00021,-6e-05,-0.00036,-0.00012,-3e-05,4,8
19198,-3e-05,-0.0001,-0.00029,0.00021,-6e-05,-0.00036,-0.00012,-3e-05,4,8
19199,-3e-05,-0.0001,-0.00029,0.00021,-6e-05,-0.00036,-0.00012,-3e-05,4,8
19200,-3e-05,-0.0001,-0.00029,0.00021,-6e-05,-0.00036,-0.00012,-3e-05,4,8
19201,7e-05,0.00017,0,0.00051,0.00055,4e-05,0.0002,9e-05,4,8
19202,0,-0.0001,-0.00055,-0.00128,-0.0003,-6e-05,-3e-05,0,4,8
19203,0,-0.0001,-0.00055,-0.00128,-0.0003,-6e-05,-3e-05,0,4,8
19204,0,-0.0001,-0.00055,-0.00128,-0.0003,-6e-05,-3e-05,0,4,8
19205,0,-0.0001,-0.00055,-0.00128,-0.0003,-6e-05,-3e-05,0,4,8
19206,0,-0.0001,-0.00055,-0.00128,-0.0003,-6e-05,-3e-05,0,4,8
19207,0,-0.0001,-0.00055,-0.00128,-0.0003,-6e-05,-3e-05,0,4,8
19208,0,-0.0001,-0.00055,-0.00128,-0.0003,-6e-05,-3e-05,0,4,8
19209,0,-0.0001,-0.00055,-0.00128,-0.0003,-6e-05,-3e-05,0,4,8
19210,0,-0.0001,-0.00055,-0.00128,-0.0003,-6e-05,-3e-05,0,4,8
19211,0,-0.0001,-0.00055,-0.00128,-0.0003,-6e-05,-3e-05,0,4,8
19212,0,-0.0001,-0.00055,-0.00128,-0.0003,-6e-05,-3e-05,0,4,8
19213,0,-0.0001,-0.00055,-0.00128,-0.0003,-6e-05,-3e-05,0,4,8
19214,0,-0.0001,-0.00055,-0.00128,-0.0003,-6e-05,-3e-05,0,4,8
19215,0,-0.0001,-0.00055,-0.00128,-0.0003,-6e-05,-3e-05,0,4,8
19216,0.00011,-2e-05,-4e-05,-0.00025,-0.0002,-6e-05,0.00015,7e-05,4,8
19217,-4e-05,5e-05,0.0002,2e-05,-0.00042,0.00017,-0.00016,-4e-05,4,8
19218,-4e-05,5e-05,0.0002,2e-05,-0.00042,0.00017,-0.00016,-4e-05,4,8
19219,-4e-05,5e-05,0.0002,2e-05,-0.00042,0.00017,-0.00016,-4e-05,4,8
19220,-4e-05,5e-05,0.0002,2e-05,-0.00042,0.00017,-0.00016,-4e-05,4,8
19221,-4e-05,5e-05,0.0002,2e-05,-0.00042,0.00017,-0.00016,-4e-05,4,8
19222,-4e-05,5e-05,0.0002,2e-05,-0.00042,0.00017,-0.00016,-4e-05,4,8
19223,-4e-05,5e-05,0.0002,2e-05,-0.00042,0.00017,-0.00016,-4e-05,4,8
19224,-4e-05,5e-05,0.0002,2e-05,-0.00042,0.00017,-0.00016,-4e-05,4,8
19225,-4e-05,5e-05,0.0002,2e-05,-0.00042,0.00017,-0.00016,-4e-05,4,8
19226,-4e-05,5e-05,0.0002,2e-05,-0.00042,0.00017,-0.00016,-4e-05,4,8
19227,-4e-05,5e-05,0.0002,2e-05,-0.00042,0.00017,-0.00016,-4e-05,4,8
19228,-4e-05,5e-05,0.0002,2e-05,-0.00042,0.00017,-0.00016,-4e-05,4,8
19229,-4e-05,5e-05,0.0002,2e-05,-0.00042,0.00017,-0.00016,-4e-05,4,8
19230,-4e-05,5e-05,0.0002,2e-05,-0.00042,0.00017,-0.00016,-4e-05,4,8
19231,-4e-05,5e-05,0.0002,2e-05,-0.00042,0.00017,-0.00016,-4e-05,4,8
19232,-4e-05,5e-05,0.0002,2e-05,-0.00042,0.00017,-0.00016,-4e-05,4,8
19233,-4e-05,5e-05,0.0002,2e-05,-0.00042,0.00017,-0.00016,-4e-05,4,8
19234,-4e-05,5e-05,0.0002,2e-05,-0.00042,0.00017,-0.00016,-4e-05,4,8
19235,-4e-05,5e-05,0.0002,2e-05,-0.00042,0.00017,-0.00016,-4e-05,4,8
19236,-4e-05,5e-05,0.0002,2e-05,-0.00042,0.00017,-0.00016,-4e-05,4,8
19239,2e-05,5e-05,0.0004,0.00048,-0.00032,-0.00011,0.00019,7e-05,4,8
19240,-0.0002,-0.00019,-0.00045,-0.00128,0.0003,0.0002,-0.00017,-0.00018,4,8
19242,-0.0002,-0.00019,-0.00045,-0.00128,0.0003,0.0002,-0.00017,-0.00018,4,8
19243,-0.0002,-0.00019,-0.00045,-0.00128,0.0003,0.0002,-0.00017,-0.00018,4,8
19244,-0.0002,-0.00019,-0.00045,-0.00128,0.0003,0.0002,-0.00017,-0.00018,4,8
19245,-0.0002,-0.00019,-0.00045,-0.00128,0.0003,0.0002,-0.00017,-0.00018,4,8
19246,-0.0002,-0.00019,-0.00045,-0.00128,0.0003,0.0002,-0.00017,-0.00018,4,8
19247,-0.0002,-0.00019,-0.00045,-0.00128,0.0003,0.0002,-0.00017,-0.00018,4,8
19248,-0.0002,-0.00019,-0.00045,-0.00128,0.0003,0.0002,-0.00017,-0.00018,4,8
19249,-0.0002,-0.00019,-0.00045,-0.00128,0.0003,0.0002,-0.00017,-0.00018,4,8
19250,-0.0002,-0.00019,-0.00045,-0.00128,0.0003,0.0002,-0.00017,-0.00018,4,8
19251,-0.0002,-0.00019,-0.00045,-0.00128,0.0003,0.0002,-0.00017,-0.00018,4,8
19252,-0.0002,-0.00019,-0.00045,-0.00128,0.0003,0.0002,-0.00017,-0.00018,4,8
19253,-0.0002,-0.00019,-0.00045,-0.00128,0.0003,0.0002,-0.00017,-0.00018,4,8
19254,-0.0002,-0.00019,-0.00045,-0.00128,0.0003,0.0002,-0.00017,-0.00018,4,8
19255,-0.0002,-0.00019,-0.00045,-0.00128,0.0003,0.0002,-0.00017,-0.00018,4,8
19256,-0.0002,-0.00019,-0.00045,-0.00128,0.0003,0.0002,-0.00017,-0.00018,4,8
19257,-0.0002,-0.00019,-0.00045,-0.00128,0.0003,0.0002,-0.00017,-0.00018,4,8
19258,-0.0002,-0.00019,-0.00045,-0.00128,0.0003,0.0002,-0.00017,-0.00018,4,8
19259,-0.0002,-0.00019,-0.00045,-0.00128,0.0003,0.0002,-0.00017,-0.00018,4,8
19260,-0.0002,-0.00019,-0.00045,-0.00128,0.0003,0.0002,-0.00017,-0.00018,4,8
19261,-0.0002,-0.00019,-0.00045,-0.00128,0.0003,0.0002,-0.00017,-0.00018,4,8
19262,-0.0002,-0.00019,-0.00045,-0.00128,0.0003,0.0002,-0.00017,-0.00018,4,8
19263,3e-05,-0.00014,0.00011,-0.00017,-6e-05,-3e-05,0,-1e-05,4,8
19264,7e-05,0.00021,0.00046,0.00054,0.00045,0.00054,0.00028,0.00016,4,8
19265,7e-05,0.00021,0.00046,0.00054,0.00045,0.00054,0.00028,0.00016,4,8
19266,7e-05,0.00021,0.00046,0.00054,0.00045,0.00054,0.00028,0.00016,4,8
19267,7e-05,0.00021,0.00046,0.00054,0.00045,0.00054,0.00028,0.00016,4,8
19268,7e-05,0.00021,0.00046,0.00054,0.00045,0.00054,0.00028,0.00016,4,8
19269,7e-05,0.00021,0.00046,0.00054,0.00045,0.00054,0.00028,0.00016,4,8
19270,7e-05,0.00021,0.00046,0.00054,0.00045,0.00054,0.00028,0.00016,4,8
19271,7e-05,0.00021,0.00046,0.00054,0.00045,0.00054,0.00028,0.00016,4,8
19272,7e-05,0.00021,0.00046,0.00054,0.00045,0.00054,0.00028,0.00016,4,8
19273,7e-05,0.00021,0.00046,0.00054,0.00045,0.00054,0.00028,0.00016,4,8
19274,7e-05,0.00021,0.00046,0.00054,0.00045,0.00054,0.00028,0.00016,4,8
19275,7e-05,0.00021,0.00046,0.00054,0.00045,0.00054,0.00028,0.00016,4,8
19276,7e-05,-2e-05,-0.00023,0.00012,0.00055,0.0004,0.00022,0.00012,4,8
19277,7e-05,-2e-05,-0.00023,0.00012,0.00055,0.0004,0.00022,0.00012,4,8
19278,7e-05,-2e-05,-0.00023,0.00012,0.00055,0.0004,0.00022,0.00012,4,8
19279,7e-05,-2e-05,-0.00023,0.00012,0.00055,0.0004,0.00022,0.00012,4,8
19280,7e-05,-2e-05,-0.00023,0.00012,0.00055,0.0004,0.00022,0.00012,4,8
19281,7e-05,-2e-05,-0.00023,0.00012,0.00055,0.0004,0.00022,0.00012,4,8
19282,7e-05,-2e-05,-0.00023,0.00012,0.00055,0.0004,0.00022,0.00012,4,8
19283,7e-05,-2e-05,-0.00023,0.00012,0.00055,0.0004,0.00022,0.00012,4,8
19284,7e-05,-2e-05,-0.00023,0.00012,0.00055,0.0004,0.00022,0.00012,4,8
19285,7e-05,-2e-05,-0.00023,0.00012,0.00055,0.0004,0.00022,0.00012,4,8
19286,7e-05,-2e-05,-0.00023,0.00012,0.00055,0.0004,0.00022,0.00012,4,8
19289,7e-05,-2e-05,-0.00023,0.00012,0.00055,0.0004,0.00022,0.00012,4,8
19290,7e-05,-2e-05,-0.00023,0.00012,0.00055,0.0004,0.00022,0.00012,4,8
19291,7e-05,-2e-05,-0.00023,0.00012,0.00055,0.0004,0.00022,0.00012,4,8
19292,7e-05,-2e-05,-0.00023,0.00012,0.00055,0.0004,0.00022,0.00012,4,8
19293,7e-05,-2e-05,-0.00023,0.00012,0.00055,0.0004,0.00022,0.00012,4,8
19294,7e-05,-2e-05,-0.00023,0.00012,0.00055,0.0004,0.00022,0.00012,4,8
19295,7e-05,-2e-05,-0.00023,0.00012,0.00055,0.0004,0.00022,0.00012,4,8
19296,7e-05,-2e-05,-0.00023,0.00012,0.00055,0.0004,0.00022,0.00012,4,8
19297,7e-05,-2e-05,-0.00023,0.00012,0.00055,0.0004,0.00022,0.00012,4,8
19298,7e-05,-2e-05,-0.00023,0.00012,0.00055,0.0004,0.00022,0.00012,4,8
19299,-5e-05,-0.00015,-0.00037,-0.00049,-0.00047,-0.00012,-0.00014,-0.00012,4,8
19300,2e-05,6e-05,0.00039,0.00013,-0.00026,-0.00059,0.00016,1e-05,4,8
19301,2e-05,6e-05,0.00039,0.00013,-0.00026,-0.00059,0.00016,1e-05,4,8
19302,2e-05,6e-05,0.00039,0.00013,-0.00026,-0.00059,0.00016,1e-05,4,8
19303,2e-05,6e-05,0.00039,0.00013,-0.00026,-0.00059,0.00016,1e-05,4,8
19304,2e-05,6e-05,0.00039,0.00013,-0.00026,-0.00059,0.00016,1e-05,4,8
19305,2e-05,6e-05,0.00039,0.00013,-0.00026,-0.00059,0.00016,1e-05,4,8
19306,2e-05,6e-05,0.00039,0.00013,-0.00026,-0.00059,0.00016,1e-05,4,8
19307,2e-05,6e-05,0.00039,0.00013,-0.00026,-0.00059,0.00016,1e-05,4,8
19308,2e-05,6e-05,0.00039,0.00013,-0.00026,-0.00059,0.00016,1e-05,4,8
19309,2e-05,6e-05,0.00039,0.00013,-0.00026,-0.00059,0.00016,1e-05,4,8
19310,2e-05,6e-05,0.00039,0.00013,-0.00026,-0.00059,0.00016,1e-05,4,8
19311,2e-05,6e-05,0.00039,0.00013,-0.00026,-0.00059,0.00016,1e-05,4,8
19312,2e-05,6e-05,0.00039,0.00013,-0.00026,-0.00059,0.00016,1e-05,4,8
19313,2e-05,6e-05,0.00039,0.00013,-0.00026,-0.00059,0.00016,1e-05,4,8
19314,2e-05,6e-05,0.00039,0.00013,-0.00026,-0.00059,0.00016,1e-05,4,8
19315,2e-05,6e-05,0.00039,0.00013,-0.00026,-0.00059,0.00016,1e-05,4,8
19316,2e-05,6e-05,0.00039,0.00013,-0.00026,-0.00059,0.00016,1e-05,4,8
19317,2e-05,6e-05,0.00039,0.00013,-0.00026,-0.00059,0.00016,1e-05,4,8
19318,2e-05,6e-05,0.00039,0.00013,-0.00026,-0.00059,0.00016,1e-05,4,8
19319,2e-05,6e-05,0.00039,0.00013,-0.00026,-0.00059,0.00016,1e-05,4,8
19320,2e-05,6e-05,0.00039,0.00013,-0.00026,-0.00059,0.00016,1e-05,4,8
19321,4e-05,8e-05,0.00027,0.0001,-0.00088,-0.0004,4e-05,5e-05,4,8
19322,-2e-05,-6e-05,-1e-05,0.00032,-0.00017,-0.00035,-0.00014,-4e-05,4,8
19323,-2e-05,-6e-05,-1e-05,0.00032,-0.00017,-0.00035,-0.00014,-4e-05,4,8
19324,-2e-05,-6e-05,-1e-05,0.00032,-0.00017,-0.00035,-0.00014,-4e-05,4,8
19325,-2e-05,-6e-05,-1e-05,0.00032,-0.00017,-0.00035,-0.00014,-4e-05,4,8
19326,-2e-05,-6e-05,-1e-05,0.00032,-0.00017,-0.00035,-0.00014,-4e-05,4,8
19327,-2e-05,-6e-05,-1e-05,0.00032,-0.00017,-0.00035,-0.00014,-4e-05,4,8
19328,-2e-05,-6e-05,-1e-05,0.00032,-0.00017,-0.00035,-0.00014,-4e-05,4,8
19329,-2e-05,-6e-05,-1e-05,0.00032,-0.00017,-0.00035,-0.00014,-4e-05,4,8
19330,-2e-05,-6e-05,-1e-05,0.00032,-0.00017,-0.00035,-0.00014,-4e-05,4,8
19331,-2e-05,-6e-05,-1e-05,0.00032,-0.00017,-0.00035,-0.00014,-4e-05,4,8
19332,-2e-05,-6e-05,-1e-05,0.00032,-0.00017,-0.00035,-0.00014,-4e-05,4,8
19333,-2e-05,-6e-05,-1e-05,0.00032,-0.00017,-0.00035,-0.00014,-4e-05,4,8
19334,-2e-05,-6e-05,-1e-05,0.00032,-0.00017,-0.00035,-0.00014,-4e-05,4,8
19335,-0.0002,-0.00028,-0.00062,-0.00032,-0.00065,0.00025,-0.00027,-0.00022,4,8
19336,5e-05,8e-05,0.00027,6e-05,-0.0005,-5e-05,-0.0001,-2e-05,4,8
19339,5e-05,8e-05,0.00027,6e-05,-0.0005,-5e-05,-0.0001,-2e-05,4,8
19340,5e-05,8e-05,0.00027,6e-05,-0.0005,-5e-05,-0.0001,-2e-05,4,8
19341,5e-05,8e-05,0.00027,6e-05,-0.0005,-5e-05,-0.0001,-2e-05,4,8
19342,5e-05,8e-05,0.00027,6e-05,-0.0005,-5e-05,-0.0001,-2e-05,4,8
19343,5e-05,8e-05,0.00027,6e-05,-0.0005,-5e-05,-0.0001,-2e-05,4,8
19344,5e-05,8e-05,0.00027,6e-05,-0.0005,-5e-05,-0.0001,-2e-05,4,8
19345,5e-05,8e-05,0.00027,6e-05,-0.0005,-5e-05,-0.0001,-2e-05,4,8
19346,5e-05,8e-05,0.00027,6e-05,-0.0005,-5e-05,-0.0001,-2e-05,4,8
19347,5e-05,8e-05,0.00027,6e-05,-0.0005,-5e-05,-0.0001,-2e-05,4,8
19348,5e-05,8e-05,0.00027,6e-05,-0.0005,-5e-05,-0.0001,-2e-05,4,8
19349,5e-05,8e-05,0.00027,6e-05,-0.0005,-5e-05,-0.0001,-2e-05,4,8
19350,5e-05,8e-05,0.00027,6e-05,-0.0005,-5e-05,-0.0001,-2e-05,4,8
19351,5e-05,8e-05,0.00027,6e-05,-0.0005,-5e-05,-0.0001,-2e-05,4,8
19352,5e-05,8e-05,0.00027,6e-05,-0.0005,-5e-05,-0.0001,-2e-05,4,8
19353,5e-05,8e-05,0.00027,6e-05,-0.0005,-5e-05,-0.0001,-2e-05,4,8
19354,5e-05,8e-05,0.00027,6e-05,-0.0005,-5e-05,-0.0001,-2e-05,4,8
19355,5e-05,8e-05,0.00027,6e-05,-0.0005,-5e-05,-0.0001,-2e-05,4,8
19356,5e-05,8e-05,0.00027,6e-05,-0.0005,-5e-05,-0.0001,-2e-05,4,8
19357,5e-05,8e-05,0.00027,6e-05,-0.0005,-5e-05,-0.0001,-2e-05,4,8
19358,5e-05,8e-05,0.00027,6e-05,-0.0005,-5e-05,-0.0001,-2e-05,4,8
19359,2e-05,-7e-05,-4e-05,-8e-05,-0.00069,-0.00013,-0.00016,3e-05,4,8
19360,-0.00021,-0.00032,-0.00081,-0.00106,-0.00079,-0.00057,-0.00017,-0.0002,4,8
19361,-0.00021,-0.00032,-0.00081,-0.00106,-0.00079,-0.00057,-0.00017,-0.0002,4,8
19362,-0.00021,-0.00032,-0.00081,-0.00106,-0.00079,-0.00057,-0.00017,-0.0002,4,8
19363,-0.00021,-0.00032,-0.00081,-0.00106,-0.00079,-0.00057,-0.00017,-0.0002,4,8
19364,-0.00021,-0.00032,-0.00081,-0.00106,-0.00079,-0.00057,-0.00017,-0.0002,4,8
19365,-0.00021,-0.00032,-0.00081,-0.00106,-0.00079,-0.00057,-0.00017,-0.0002,4,8
19366,-0.00021,-0.00032,-0.00081,-0.00106,-0.00079,-0.00057,-0.00017,-0.0002,4,8
19367,-0.00021,-0.00032,-0.00081,-0.00106,-0.00079,-0.00057,-0.00017,-0.0002,4,8
19368,-0.00021,-0.00032,-0.00081,-0.00106,-0.00079,-0.00057,-0.00017,-0.0002,4,8
19369,-0.00021,-0.00032,-0.00081,-0.00106,-0.00079,-0.00057,-0.00017,-0.0002,4,8
19370,-0.00021,-0.00032,-0.00081,-0.00106,-0.00079,-0.00057,-0.00017,-0.0002,4,8
19371,-0.00021,-0.00032,-0.00081,-0.00106,-0.00079,-0.00057,-0.00017,-0.0002,4,8
19372,-0.00021,-0.00032,-0.00081,-0.00106,-0.00079,-0.00057,-0.00017,-0.0002,4,8
19373,-0.00021,-0.00032,-0.00081,-0.00106,-0.00079,-0.00057,-0.00017,-0.0002,4,8
19374,-0.00021,-0.00032,-0.00081,-0.00106,-0.00079,-0.00057,-0.00017,-0.0002,4,8
19375,-0.00021,-0.00032,-0.00081,-0.00106,-0.00079,-0.00057,-0.00017,-0.0002,4,8
19376,-0.00021,-0.00032,-0.00081,-0.00106,-0.00079,-0.00057,-0.00017,-0.0002,4,8
19377,-0.00021,-0.00032,-0.00081,-0.00106,-0.00079,-0.00057,-0.00017,-0.0002,4,8
19378,-0.00021,-0.00032,-0.00081,-0.00106,-0.00079,-0.00057,-0.00017,-0.0002,4,8
19379,-0.00021,-0.00032,-0.00081,-0.00106,-0.00079,-0.00057,-0.00017,-0.0002,4,8
19380,-0.00021,-0.00032,-0.00081,-0.00106,-0.00079,-0.00057,-0.00017,-0.0002,4,8
19381,-4e-05,-8e-05,-0.0002,-0.0003,-0.0005,-0.0003,1e-05,-2e-05,4,8
19382,-3e-05,-4e-05,-3e-05,9e-05,7e-05,0.00019,-9e-05,-9e-05,4,8
19383,-3e-05,-4e-05,-3e-05,9e-05,7e-05,0.00019,-9e-05,-9e-05,4,8
19384,-3e-05,-4e-05,-3e-05,9e-05,7e-05,0.00019,-9e-05,-9e-05,4,8
19385,-3e-05,-4e-05,-3e-05,9e-05,7e-05,0.00019,-9e-05,-9e-05,4,8
19386,-3e-05,-4e-05,-3e-05,9e-05,7e-05,0.00019,-9e-05,-9e-05,4,8
19388,-3e-05,-4e-05,-3e-05,9e-05,7e-05,0.00019,-9e-05,-9e-05,4,8
19389,-3e-05,-4e-05,-3e-05,9e-05,7e-05,0.00019,-9e-05,-9e-05,4,8
19390,-3e-05,-4e-05,-3e-05,9e-05,7e-05,0.00019,-9e-05,-9e-05,4,8
19391,-3e-05,-4e-05,-3e-05,9e-05,7e-05,0.00019,-9e-05,-9e-05,4,8
19392,-3e-05,-4e-05,-3e-05,9e-05,7e-05,0.00019,-9e-05,-9e-05,4,8
19393,-3e-05,-4e-05,-3e-05,9e-05,7e-05,0.00019,-9e-05,-9e-05,4,8
19394,-3e-05,-4e-05,-3e-05,9e-05,7e-05,0.00019,-9e-05,-9e-05,4,8
19395,-3e-05,-4e-05,-3e-05,9e-05,7e-05,0.00019,-9e-05,-9e-05,4,8
19396,2e-05,8e-05,0.00029,0.00075,0.00026,0.00016,0.00015,5e-05,4,8
19397,9e-05,8e-05,0.00012,-4e-05,0.00097,0.0003,-8e-05,3e-05,4,8
19398,9e-05,8e-05,0.00012,-4e-05,0.00097,0.0003,-8e-05,3e-05,4,8
19399,9e-05,8e-05,0.00012,-4e-05,0.00097,0.0003,-8e-05,3e-05,4,8
19400,9e-05,8e-05,0.00012,-4e-05,0.00097,0.0003,-8e-05,3e-05,4,8
19401,9e-05,8e-05,0.00012,-4e-05,0.00097,0.0003,-8e-05,3e-05,4,8
19402,9e-05,8e-05,0.00012,-4e-05,0.00097,0.0003,-8e-05,3e-05,4,8
19403,9e-05,8e-05,0.00012,-4e-05,0.00097,0.0003,-8e-05,3e-05,4,8
19404,9e-05,8e-05,0.00012,-4e-05,0.00097,0.0003,-8e-05,3e-05,4,8
19405,9e-05,8e-05,0.00012,-4e-05,0.00097,0.0003,-8e-05,3e-05,4,8
19406,9e-05,8e-05,0.00012,-4e-05,0.00097,0.0003,-8e-05,3e-05,4,8
19407,9e-05,8e-05,0.00012,-4e-05,0.00097,0.0003,-8e-05,3e-05,4,8
19408,9e-05,8e-05,0.00012,-4e-05,0.00097,0.0003,-8e-05,3e-05,4,8
19409,9e-05,8e-05,0.00012,-4e-05,0.00097,0.0003,-8e-05,3e-05,4,8
19410,9e-05,8e-05,0.00012,-4e-05,0.00097,0.0003,-8e-05,3e-05,4,8
19411,9e-05,8e-05,0.00012,-4e-05,0.00097,0.0003,-8e-05,3e-05,4,8
19412,9e-05,8e-05,0.00012,-4e-05,0.00097,0.0003,-8e-05,3e-05,4,8
19413,9e-05,8e-05,0.00012,-4e-05,0.00097,0.0003,-8e-05,3e-05,4,8
19414,9e-05,8e-05,0.00012,-4e-05,0.00097,0.0003,-8e-05,3e-05,4,8
19415,9e-05,8e-05,0.00012,-4e-05,0.00097,0.0003,-8e-05,3e-05,4,8
19416,9e-05,8e-05,0.00012,-4e-05,0.00097,0.0003,-8e-05,3e-05,4,8
19417,9e-05,8e-05,0.00012,-4e-05,0.00097,0.0003,-8e-05,3e-05,4,8
19418,9e-05,8e-05,0.00012,-4e-05,0.00097,0.0003,-8e-05,3e-05,4,8
19419,-5e-05,-8e-05,0.00024,-0.0005,0.00024,-7e-05,-0.00024,-0.00014,4,8
19420,-2e-05,-0.00011,-0.00016,-0.00042,-0.00116,-0.00041,-0.00011,1e-05,4,8
19422,-2e-05,-0.00011,-0.00016,-0.00042,-0.00116,-0.00041,-0.00011,1e-05,4,8
19423,-2e-05,-0.00011,-0.00016,-0.00042,-0.00116,-0.00041,-0.00011,1e-05,4,8
19424,-2e-05,-0.00011,-0.00016,-0.00042,-0.00116,-0.00041,-0.00011,1e-05,4,8
19425,-2e-05,-0.00011,-0.00016,-0.00042,-0.00116,-0.00041,-0.00011,1e-05,4,8
19426,-2e-05,-0.00011,-0.00016,-0.00042,-0.00116,-0.00041,-0.00011,1e-05,4,8
19427,-2e-05,-0.00011,-0.00016,-0.00042,-0.00116,-0.00041,-0.00011,1e-05,4,8
19428,-2e-05,-0.00011,-0.00016,-0.00042,-0.00116,-0.00041,-0.00011,1e-05,4,8
19429,-2e-05,-0.00011,-0.00016,-0.00042,-0.00116,-0.00041,-0.00011,1e-05,4,8
19430,-2e-05,-0.00011,-0.00016,-0.00042,-0.00116,-0.00041,-0.00011,1e-05,4,8
19431,-2e-05,-0.00011,-0.00016,-0.00042,-0.00116,-0.00041,-0.00011,1e-05,4,8
19432,-2e-05,-0.00011,-0.00016,-0.00042,-0.00116,-0.00041,-0.00011,1e-05,4,8
19433,-2e-05,-0.00011,-0.00016,-0.00042,-0.00116,-0.00041,-0.00011,1e-05,4,8
19434,-2e-05,-0.00011,-0.00016,-0.00042,-0.00116,-0.00041,-0.00011,1e-05,4,8
19435,-2e-05,-0.00011,-0.00016,-0.00042,-0.00116,-0.00041,-0.00011,1e-05,4,8
19436,-2e-05,-0.00011,-0.00016,-0.00042,-0.00116,-0.00041,-0.00011,1e-05,4,8
19438,-2e-05,-0.00011,-0.00016,-0.00042,-0.00116,-0.00041,-0.00011,1e-05,4,8
19439,-2e-05,-0.00011,-0.00016,-0.00042,-0.00116,-0.00041,-0.00011,1e-05,4,8
19440,-2e-05,-0.00011,-0.00016,-0.00042,-0.00116,-0.00041,-0.00011,1e-05,4,8
19441,0.00017,0.00015,0.00015,-8e-05,8e-05,0.00021,3e-05,0.0001,4,8
19442,5e-05,4e-05,-0.00018,0.00083,0.00073,0.00015,5e-05,5e-05,4,8
19443,5e-05,4e-05,-0.00018,0.00083,0.00073,0.00015,5e-05,5e-05,4,8
19444,5e-05,4e-05,-0.00018,0.00083,0.00073,0.00015,5e-05,5e-05,4,8
19445,5e-05,4e-05,-0.00018,0.00083,0.00073,0.00015,5e-05,5e-05,4,8
19446,5e-05,4e-05,-0.00018,0.00083,0.00073,0.00015,5e-05,5e-05,4,8
19447,5e-05,4e-05,-0.00018,0.00083,0.00073,0.00015,5e-05,5e-05,4,8
19448,5e-05,4e-05,-0.00018,0.00083,0.00073,0.00015,5e-05,5e-05,4,8
19449,5e-05,4e-05,-0.00018,0.00083,0.00073,0.00015,5e-05,5e-05,4,8
19450,5e-05,4e-05,-0.00018,0.00083,0.00073,0.00015,5e-05,5e-05,4,8
19451,5e-05,4e-05,-0.00018,0.00083,0.00073,0.00015,5e-05,5e-05,4,8
19452,5e-05,4e-05,-0.00018,0.00083,0.00073,0.00015,5e-05,5e-05,4,8
19453,5e-05,4e-05,-0.00018,0.00083,0.00073,0.00015,5e-05,5e-05,4,8
19454,5e-05,4e-05,-0.00018,0.00083,0.00073,0.00015,5e-05,5e-05,4,8
19455,5e-05,4e-05,-0.00018,0.00083,0.00073,0.00015,5e-05,5e-05,4,8
19456,1e-05,-3e-05,-0.00021,0.00045,0.0001,0.00033,-2e-05,-4e-05,4,8
19457,-2e-05,8e-05,0.00035,-0.00014,-0.00089,-0.00042,-0.0001,-5e-05,4,8
19458,-2e-05,8e-05,0.00035,-0.00014,-0.00089,-0.00042,-0.0001,-5e-05,4,8
19459,-2e-05,8e-05,0.00035,-0.00014,-0.00089,-0.00042,-0.0001,-5e-05,4,8
19460,-2e-05,8e-05,0.00035,-0.00014,-0.00089,-0.00042,-0.0001,-5e-05,4,8
19461,-2e-05,8e-05,0.00035,-0.00014,-0.00089,-0.00042,-0.0001,-5e-05,4,8
19462,-2e-05,8e-05,0.00035,-0.00014,-0.00089,-0.00042,-0.0001,-5e-05,4,8
19463,-2e-05,8e-05,0.00035,-0.00014,-0.00089,-0.00042,-0.0001,-5e-05,4,8
19464,-2e-05,8e-05,0.00035,-0.00014,-0.00089,-0.00042,-0.0001,-5e-05,4,8
19465,-2e-05,8e-05,0.00035,-0.00014,-0.00089,-0.00042,-0.0001,-5e-05,4,8
19466,-2e-05,8e-05,0.00035,-0.00014,-0.00089,-0.00042,-0.0001,-5e-05,4,8
19467,-2e-05,8e-05,0.00035,-0.00014,-0.00089,-0.00042,-0.0001,-5e-05,4,8
19468,-2e-05,8e-05,0.00035,-0.00014,-0.00089,-0.00042,-0.0001,-5e-05,4,8
19469,-2e-05,8e-05,0.00035,-0.00014,-0.00089,-0.00042,-0.0001,-5e-05,4,8
19470,-2e-05,8e-05,0.00035,-0.00014,-0.00089,-0.00042,-0.0001,-5e-05,4,8
19471,-2e-05,8e-05,0.00035,-0.00014,-0.00089,-0.00042,-0.0001,-5e-05,4,8
19472,-2e-05,8e-05,0.00035,-0.00014,-0.00089,-0.00042,-0.0001,-5e-05,4,8
19473,-2e-05,8e-05,0.00035,-0.00014,-0.00089,-0.00042,-0.0001,-5e-05,4,8
19474,-2e-05,8e-05,0.00035,-0.00014,-0.00089,-0.00042,-0.0001,-5e-05,4,8
19475,-2e-05,8e-05,0.00035,-0.00014,-0.00089,-0.00042,-0.0001,-5e-05,4,8
19476,-2e-05,8e-05,0.00035,-0.00014,-0.00089,-0.00042,-0.0001,-5e-05,4,8
19477,-2e-05,8e-05,0.00035,-0.00014,-0.00089,-0.00042,-0.0001,-5e-05,4,8
19478,-2e-05,8e-05,0.00035,-0.00014,-0.00089,-0.00042,-0.0001,-5e-05,4,8
19479,-8e-05,-0.00014,-0.00049,-0.00015,-0.00065,-0.00077,-0.00023,-0.0001,4,8
19480,8e-05,0.00022,0.00034,0.00045,0.00077,1e-05,0.00023,0.00013,4,8
19481,-3e-05,0.00011,0.00069,0.00108,-0.00067,-0.00021,-7e-05,-3e-05,4,8
19482,-3e-05,0.00011,0.00069,0.00108,-0.00067,-0.00021,-7e-05,-3e-05,4,8
19483,-3e-05,0.00011,0.00069,0.00108,-0.00067,-0.00021,-7e-05,-3e-05,4,8
19484,-3e-05,0.00011,0.00069,0.00108,-0.00067,-0.00021,-7e-05,-3e-05,4,8
19485,-3e-05,0.00011,0.00069,0.00108,-0.00067,-0.00021,-7e-05,-3e-05,4,8
19486,-3e-05,0.00011,0.00069,0.00108,-0.00067,-0.00021,-7e-05,-3e-05,4,8
19489,-3e-05,0.00011,0.00069,0.00108,-0.00067,-0.00021,-7e-05,-3e-05,4,8
19490,-3e-05,0.00011,0.00069,0.00108,-0.00067,-0.00021,-7e-05,-3e-05,4,8
19491,-3e-05,0.00011,0.00069,0.00108,-0.00067,-0.00021,-7e-05,-3e-05,4,8
19492,-3e-05,0.00011,0.00069,0.00108,-0.00067,-0.00021,-7e-05,-3e-05,4,8
19493,-3e-05,0.00011,0.00069,0.00108,-0.00067,-0.00021,-7e-05,-3e-05,4,8
19494,-3e-05,0.00011,0.00069,0.00108,-0.00067,-0.00021,-7e-05,-3e-05,4,8
19495,-3e-05,0.00011,0.00069,0.00108,-0.00067,-0.00021,-7e-05,-3e-05,4,8
19496,-3e-05,0.00011,0.00069,0.00108,-0.00067,-0.00021,-7e-05,-3e-05,4,8
19497,-3e-05,0.00011,0.00069,0.00108,-0.00067,-0.00021,-7e-05,-3e-05,4,8
19498,-3e-05,0.00011,0.00069,0.00108,-0.00067,-0.00021,-7e-05,-3e-05,4,8
19499,-3e-05,0.00011,0.00069,0.00108,-0.00067,-0.00021,-7e-05,-3e-05,4,8
19500,-3e-05,0.00011,0.00069,0.00108,-0.00067,-0.00021,-7e-05,-3e-05,4,8
19501,4e-05,0.00016,0.00068,0.00127,0.0002,-0.00037,-0.00013,-2e-05,4,8
19502,6e-05,1e-05,0.00014,-0.00048,-7e-05,0.00027,0.00013,5e-05,4,8
19503,6e-05,1e-05,0.00014,-0.00048,-7e-05,0.00027,0.00013,5e-05,4,8
19504,6e-05,1e-05,0.00014,-0.00048,-7e-05,0.00027,0.00013,5e-05,4,8
19505,6e-05,1e-05,0.00014,-0.00048,-7e-05,0.00027,0.00013,5e-05,4,8
19506,6e-05,1e-05,0.00014,-0.00048,-7e-05,0.00027,0.00013,5e-05,4,8
19507,6e-05,1e-05,0.00014,-0.00048,-7e-05,0.00027,0.00013,5e-05,4,8
19508,6e-05,1e-05,0.00014,-0.00048,-7e-05,0.00027,0.00013,5e-05,4,8
19509,6e-05,1e-05,0.00014,-0.00048,-7e-05,0.00027,0.00013,5e-05,4,8
19510,6e-05,1e-05,0.00014,-0.00048,-7e-05,0.00027,0.00013,5e-05,4,8
19511,6e-05,1e-05,0.00014,-0.00048,-7e-05,0.00027,0.00013,5e-05,4,8
19512,6e-05,1e-05,0.00014,-0.00048,-7e-05,0.00027,0.00013,5e-05,4,8
19513,6e-05,1e-05,0.00014,-0.00048,-7e-05,0.00027,0.00013,5e-05,4,8
19514,6e-05,1e-05,0.00014,-0.00048,-7e-05,0.00027,0.00013,5e-05,4,8
19515,6e-05,1e-05,0.00014,-0.00048,-7e-05,0.00027,0.00013,5e-05,4,8
19516,4e-05,5e-05,0.00035,0.00092,-0.00049,-1e-05,2e-05,-3e-05,4,8
19517,-7e-05,-0.0001,-5e-05,0.00014,0.00059,0.00098,0.00018,3e-05,4,8
19518,-7e-05,-0.0001,-5e-05,0.00014,0.00059,0.00098,0.00018,3e-05,4,8
19519,-7e-05,-0.0001,-5e-05,0.00014,0.00059,0.00098,0.00018,3e-05,4,8
19520,-7e-05,-0.0001,-5e-05,0.00014,0.00059,0.00098,0.00018,3e-05,4,8
19521,-7e-05,-0.0001,-5e-05,0.00014,0.00059,0.00098,0.00018,3e-05,4,8
19522,-7e-05,-0.0001,-5e-05,0.00014,0.00059,0.00098,0.00018,3e-05,4,8
19523,-7e-05,-0.0001,-5e-05,0.00014,0.00059,0.00098,0.00018,3e-05,4,8
19524,-7e-05,-0.0001,-5e-05,0.00014,0.00059,0.00098,0.00018,3e-05,4,8
19525,-7e-05,-0.0001,-5e-05,0.00014,0.00059,0.00098,0.00018,3e-05,4,8
19526,-7e-05,-0.0001,-5e-05,0.00014,0.00059,0.00098,0.00018,3e-05,4,8
19527,-7e-05,-0.0001,-5e-05,0.00014,0.00059,0.00098,0.00018,3e-05,4,8
19528,-7e-05,-0.0001,-5e-05,0.00014,0.00059,0.00098,0.00018,3e-05,4,8
19529,-7e-05,-0.0001,-5e-05,0.00014,0.00059,0.00098,0.00018,3e-05,4,8
19530,-7e-05,-0.0001,-5e-05,0.00014,0.00059,0.00098,0.00018,3e-05,4,8
19531,-7e-05,-0.0001,-5e-05,0.00014,0.00059,0.00098,0.00018,3e-05,4,8
19532,-7e-05,-0.0001,-5e-05,0.00014,0.00059,0.00098,0.00018,3e-05,4,8
19533,-7e-05,-0.0001,-5e-05,0.00014,0.00059,0.00098,0.00018,3e-05,4,8
19534,-7e-05,-0.0001,-5e-05,0.00014,0.00059,0.00098,0.00018,3e-05,4,8
19535,-7e-05,-0.0001,-5e-05,0.00014,0.00059,0.00098,0.00018,3e-05,4,8
19536,-7e-05,-0.0001,-5e-05,0.00014,0.00059,0.00098,0.00018,3e-05,4,8
19538,0,1e-05,0.00025,-0.00031,-0.00106,-0.00034,-1e-05,-1e-05,4,8
19539,-8e-05,0,0,0.00011,0.00041,-0.00031,-0.00017,-6e-05,4,8
19540,0.00014,0.00026,0.00039,0.00013,-3e-05,0.00045,0.00024,0.00011,4,8
19541,0.00014,0.00026,0.00039,0.00013,-3e-05,0.00045,0.00024,0.00011,4,8
19542,0.00014,0.00026,0.00039,0.00013,-3e-05,0.00045,0.00024,0.00011,4,8
19543,0.00014,0.00026,0.00039,0.00013,-3e-05,0.00045,0.00024,0.00011,4,8
19544,0.00014,0.00026,0.00039,0.00013,-3e-05,0.00045,0.00024,0.00011,4,8
19545,0.00014,0.00026,0.00039,0.00013,-3e-05,0.00045,0.00024,0.00011,4,8
19546,0.00014,0.00026,0.00039,0.00013,-3e-05,0.00045,0.00024,0.00011,4,8
19547,0.00014,0.00026,0.00039,0.00013,-3e-05,0.00045,0.00024,0.00011,4,8
19548,0.00014,0.00026,0.00039,0.00013,-3e-05,0.00045,0.00024,0.00011,4,8
19549,0.00014,0.00026,0.00039,0.00013,-3e-05,0.00045,0.00024,0.00011,4,8
19550,0.00014,0.00026,0.00039,0.00013,-3e-05,0.00045,0.00024,0.00011,4,8
19551,0.00014,0.00026,0.00039,0.00013,-3e-05,0.00045,0.00024,0.00011,4,8
19552,0.00014,0.00026,0.00039,0.00013,-3e-05,0.00045,0.00024,0.00011,4,8
19553,0.00014,0.00026,0.00039,0.00013,-3e-05,0.00045,0.00024,0.00011,4,8
19554,0.00014,0.00026,0.00039,0.00013,-3e-05,0.00045,0.00024,0.00011,4,8
19555,0.00014,0.00026,0.00039,0.00013,-3e-05,0.00045,0.00024,0.00011,4,8
19556,0.00014,0.00026,0.00039,0.00013,-3e-05,0.00045,0.00024,0.00011,4,8
19557,0.00014,0.00026,0.00039,0.00013,-3e-05,0.00045,0.00024,0.00011,4,8
19558,0.00014,0.00026,0.00039,0.00013,-3e-05,0.00045,0.00024,0.00011,4,8
19559,0.00014,0.00026,0.00039,0.00013,-3e-05,0.00045,0.00024,0.00011,4,8
19560,0.00014,0.00026,0.00039,0.00013,-3e-05,0.00045,0.00024,0.00011,4,8
19561,5e-05,-4e-05,-0.0002,-0.00043,0.00041,0.00043,1e-05,0,4,8
19562,5e-05,-4e-05,-0.0002,-0.00043,0.00041,0.00043,1e-05,0,4,8
19563,-6e-05,-5e-05,-0.00025,-0.00068,-7e-05,-0.00021,3e-05,-2e-05,4,8
19564,2e-05,3e-05,-5e-05,0.00072,0.00029,7e-05,-0.00015,-4e-05,4,8
19565,2e-05,3e-05,-5e-05,0.00072,0.00029,7e-05,-0.00015,-4e-05,4,8
19566,2e-05,3e-05,-5e-05,0.00072,0.00029,7e-05,-0.00015,-4e-05,4,8
19567,2e-05,3e-05,-5e-05,0.00072,0.00029,7e-05,-0.00015,-4e-05,4,8
19568,2e-05,3e-05,-5e-05,0.00072,0.00029,7e-05,-0.00015,-4e-05,4,8
19569,2e-05,3e-05,-5e-05,0.00072,0.00029,7e-05,-0.00015,-4e-05,4,8
19570,2e-05,3e-05,-5e-05,0.00072,0.00029,7e-05,-0.00015,-4e-05,4,8
19571,2e-05,3e-05,-5e-05,0.00072,0.00029,7e-05,-0.00015,-4e-05,4,8
19572,2e-05,3e-05,-5e-05,0.00072,0.00029,7e-05,-0.00015,-4e-05,4,8
19573,2e-05,3e-05,-5e-05,0.00072,0.00029,7e-05,-0.00015,-4e-05,4,8
19574,2e-05,3e-05,-5e-05,0.00072,0.00029,7e-05,-0.00015,-4e-05,4,8
19575,0.0002,0.00022,0.00051,0.0008,0.00022,-6e-05,5e-05,0.00011,4,8
19576,0.0002,0.00022,0.00051,0.0008,0.00022,-6e-05,5e-05,0.00011,4,8
19577,0.0002,0.00022,0.00051,0.0008,0.00022,-6e-05,5e-05,0.00011,4,8
19578,0.0002,0.00022,0.00051,0.0008,0.00022,-6e-05,5e-05,0.00011,4,8
19579,0.0002,0.00022,0.00051,0.0008,0.00022,-6e-05,5e-05,0.00011,4,8
19580,0.0002,0.00022,0.00051,0.0008,0.00022,-6e-05,5e-05,0.00011,4,8
19581,0.0002,0.00022,0.00051,0.0008,0.00022,-6e-05,5e-05,0.00011,4,8
19582,0.0002,0.00022,0.00051,0.0008,0.00022,-6e-05,5e-05,0.00011,4,8
19583,0.0002,0.00022,0.00051,0.0008,0.00022,-6e-05,5e-05,0.00011,4,8
19584,-3e-05,-5e-05,7e-05,-0.00067,-0.00108,-0.00128,-0.00018,-9e-05,4,8
19585,-3e-05,-5e-05,7e-05,-0.00067,-0.00108,-0.00128,-0.00018,-9e-05,4,8
19586,-3e-05,-5e-05,7e-05,-0.00067,-0.00108,-0.00128,-0.00018,-9e-05,4,8
19589,-3e-05,-5e-05,7e-05,-0.00067,-0.00108,-0.00128,-0.00018,-9e-05,4,8
19590,-3e-05,-5e-05,7e-05,-0.00067,-0.00108,-0.00128,-0.00018,-9e-05,4,8
19591,-3e-05,-5e-05,7e-05,-0.00067,-0.00108,-0.00128,-0.00018,-9e-05,4,8
19592,-3e-05,-5e-05,7e-05,-0.00067,-0.00108,-0.00128,-0.00018,-9e-05,4,8
19593,-3e-05,-5e-05,7e-05,-0.00067,-0.00108,-0.00128,-0.00018,-9e-05,4,8
19594,-3e-05,-5e-05,7e-05,-0.00067,-0.00108,-0.00128,-0.00018,-9e-05,4,8
19595,-3e-05,-5e-05,7e-05,-0.00067,-0.00108,-0.00128,-0.00018,-9e-05,4,8
19596,-3e-05,-5e-05,7e-05,-0.00067,-0.00108,-0.00128,-0.00018,-9e-05,4,8
19597,-3e-05,-5e-05,7e-05,-0.00067,-0.00108,-0.00128,-0.00018,-9e-05,4,8
19598,-3e-05,-5e-05,7e-05,-0.00067,-0.00108,-0.00128,-0.00018,-9e-05,4,8
19599,3e-05,0.00018,0.00035,0.0005,0.00068,0.00016,-0.00019,1e-05,4,8
19600,0.00014,0.00023,0.00063,0.00101,0.00103,-0.00028,6e-05,0.0001,4,8
19601,0.00014,0.00023,0.00063,0.00101,0.00103,-0.00028,6e-05,0.0001,4,8
19602,0.00014,0.00023,0.00063,0.00101,0.00103,-0.00028,6e-05,0.0001,4,8
19603,0.00014,0.00023,0.00063,0.00101,0.00103,-0.00028,6e-05,0.0001,4,8
19604,0.00014,0.00023,0.00063,0.00101,0.00103,-0.00028,6e-05,0.0001,4,8
19605,0.00014,0.00023,0.00063,0.00101,0.00103,-0.00028,6e-05,0.0001,4,8
19606,0.00014,0.00023,0.00063,0.00101,0.00103,-0.00028,6e-05,0.0001,4,8
19607,0.00014,0.00023,0.00063,0.00101,0.00103,-0.00028,6e-05,0.0001,4,8
19608,0.00014,0.00023,0.00063,0.00101,0.00103,-0.00028,6e-05,0.0001,4,8
19609,0.00014,0.00023,0.00063,0.00101,0.00103,-0.00028,6e-05,0.0001,4,8
19610,0.00014,0.00023,0.00063,0.00101,0.00103,-0.00028,6e-05,0.0001,4,8
19611,0.00014,0.00023,0.00063,0.00101,0.00103,-0.00028,6e-05,0.0001,4,8
19612,0.00014,0.00023,0.00063,0.00101,0.00103,-0.00028,6e-05,0.0001,4,8
19613,0.00014,0.00023,0.00063,0.00101,0.00103,-0.00028,6e-05,0.0001,4,8
19614,0.00014,0.00023,0.00063,0.00101,0.00103,-0.00028,6e-05,0.0001,4,8
19615,0.00014,0.00023,0.00063,0.00101,0.00103,-0.00028,6e-05,0.0001,4,8
19616,0.00014,0.00023,0.00063,0.00101,0.00103,-0.00028,6e-05,0.0001,4,8
19617,0.00014,0.00023,0.00063,0.00101,0.00103,-0.00028,6e-05,0.0001,4,8
19618,0.00014,0.00023,0.00063,0.00101,0.00103,-0.00028,6e-05,0.0001,4,8
19619,0.00014,0.00023,0.00063,0.00101,0.00103,-0.00028,6e-05,0.0001,4,8
19620,0.00014,0.00023,0.00063,0.00101,0.00103,-0.00028,6e-05,0.0001,4,8
19621,-0.00012,-0.00015,-0.00026,-0.00038,-0.00128,-0.00085,-0.00024,-0.00013,4,8
19622,-0.00012,-0.00015,-0.00026,-0.00038,-0.00128,-0.00085,-0.00024,-0.00013,4,8
19623,-1e-05,-5e-05,-0.00027,-0.00011,0.00022,0.00022,4e-05,-1e-05,4,8
19624,-1e-05,-5e-05,-0.00027,-0.00011,0.00022,0.00022,4e-05,-1e-05,4,8
19625,-1e-05,-5e-05,-0.00027,-0.00011,0.00022,0.00022,4e-05,-1e-05,4,8
19626,-1e-05,-5e-05,-0.00027,-0.00011,0.00022,0.00022,4e-05,-1e-05,4,8
19627,-1e-05,-5e-05,-0.00027,-0.00011,0.00022,0.00022,4e-05,-1e-05,4,8
19628,-1e-05,-5e-05,-0.00027,-0.00011,0.00022,0.00022,4e-05,-1e-05,4,8
19629,-1e-05,-5e-05,-0.00027,-0.00011,0.00022,0.00022,4e-05,-1e-05,4,8
19630,-1e-05,-5e-05,-0.00027,-0.00011,0.00022,0.00022,4e-05,-1e-05,4,8
19631,-1e-05,-5e-05,-0.00027,-0.00011,0.00022,0.00022,4e-05,-1e-05,4,8
19632,-1e-05,-5e-05,-0.00027,-0.00011,0.00022,0.00022,4e-05,-1e-05,4,8
19633,-1e-05,-5e-05,-0.00027,-0.00011,0.00022,0.00022,4e-05,-1e-05,4,8
19634,-1e-05,-5e-05,-0.00027,-0.00011,0.00022,0.00022,4e-05,-1e-05,4,8
19635,0.00013,0.00012,-0.00028,-0.00033,0.00099,0.00116,0.0005,0.00028,4,8
19637,0.00013,0.00012,-0.00028,-0.00033,0.00099,0.00116,0.0005,0.00028,4,8
19640,0.00013,0.00012,-0.00028,-0.00033,0.00099,0.00116,0.0005,0.00028,4,8
19641,0.00013,0.00012,-0.00028,-0.00033,0.00099,0.00116,0.0005,0.00028,4,8
19642,0.00013,0.00012,-0.00028,-0.00033,0.00099,0.00116,0.0005,0.00028,4,8
19643,0.00013,0.00012,-0.00028,-0.00033,0.00099,0.00116,0.0005,0.00028,4,8
19644,1e-05,0,-5e-05,-4e-05,0.00043,-2e-05,-4e-05,0,4,8
19645,1e-05,0,-5e-05,-4e-05,0.00043,-2e-05,-4e-05,0,4,8
19646,1e-05,0,-5e-05,-4e-05,0.00043,-2e-05,-4e-05,0,4,8
19647,1e-05,0,-5e-05,-4e-05,0.00043,-2e-05,-4e-05,0,4,8
19648,1e-05,0,-5e-05,-4e-05,0.00043,-2e-05,-4e-05,0,4,8
19649,1e-05,0,-5e-05,-4e-05,0.00043,-2e-05,-4e-05,0,4,8
19650,1e-05,0,-5e-05,-4e-05,0.00043,-2e-05,-4e-05,0,4,8
19651,1e-05,0,-5e-05,-4e-05,0.00043,-2e-05,-4e-05,0,4,8
19652,1e-05,0,-5e-05,-4e-05,0.00043,-2e-05,-4e-05,0,4,8
19653,1e-05,0,-5e-05,-4e-05,0.00043,-2e-05,-4e-05,0,4,8
19654,1e-05,0,-5e-05,-4e-05,0.00043,-2e-05,-4e-05,0,4,8
19655,1e-05,0,-5e-05,-4e-05,0.00043,-2e-05,-4e-05,0,4,8
19656,1e-05,0,-5e-05,-4e-05,0.00043,-2e-05,-4e-05,0,4,8
19657,1e-05,0,-5e-05,-4e-05,0.00043,-2e-05,-4e-05,0,4,8
19658,1e-05,0,-5e-05,-4e-05,0.00043,-2e-05,-4e-05,0,4,8
19659,5e-05,0.00016,-3e-05,-5e-05,0.00031,9e-05,0.00027,0.00013,4,8
19660,-0.00012,-0.00018,-0.00046,-0.00056,-0.00038,-2e-05,-0.00018,-0.00016,4,8
19661,-0.00012,-0.00018,-0.00046,-0.00056,-0.00038,-2e-05,-0.00018,-0.00016,4,8
19662,-0.00012,-0.00018,-0.00046,-0.00056,-0.00038,-2e-05,-0.00018,-0.00016,4,8
19663,-0.00012,-0.00018,-0.00046,-0.00056,-0.00038,-2e-05,-0.00018,-0.00016,4,8
19664,-0.00012,-0.00018,-0.00046,-0.00056,-0.00038,-2e-05,-0.00018,-0.00016,4,8
19665,-0.00012,-0.00018,-0.00046,-0.00056,-0.00038,-2e-05,-0.00018,-0.00016,4,8
19666,-0.00012,-0.00018,-0.00046,-0.00056,-0.00038,-2e-05,-0.00018,-0.00016,4,8
19667,-0.00012,-0.00018,-0.00046,-0.00056,-0.00038,-2e-05,-0.00018,-0.00016,4,8
19668,-0.00012,-0.00018,-0.00046,-0.00056,-0.00038,-2e-05,-0.00018,-0.00016,4,8
19669,-0.00012,-0.00018,-0.00046,-0.00056,-0.00038,-2e-05,-0.00018,-0.00016,4,8
19670,-0.00012,-0.00018,-0.00046,-0.00056,-0.00038,-2e-05,-0.00018,-0.00016,4,8
19671,-0.00012,-0.00018,-0.00046,-0.00056,-0.00038,-2e-05,-0.00018,-0.00016,4,8
19672,-0.00012,-0.00018,-0.00046,-0.00056,-0.00038,-2e-05,-0.00018,-0.00016,4,8
19673,-0.00012,-0.00018,-0.00046,-0.00056,-0.00038,-2e-05,-0.00018,-0.00016,4,8
19674,-0.00012,-0.00018,-0.00046,-0.00056,-0.00038,-2e-05,-0.00018,-0.00016,4,8
19675,-0.00012,-0.00018,-0.00046,-0.00056,-0.00038,-2e-05,-0.00018,-0.00016,4,8
19676,-0.00012,-0.00018,-0.00046,-0.00056,-0.00038,-2e-05,-0.00018,-0.00016,4,8
19677,-0.00012,-0.00018,-0.00046,-0.00056,-0.00038,-2e-05,-0.00018,-0.00016,4,8
19678,-0.00012,-0.00018,-0.00046,-0.00056,-0.00038,-2e-05,-0.00018,-0.00016,4,8
19679,-0.00012,-0.00018,-0.00046,-0.00056,-0.00038,-2e-05,-0.00018,-0.00016,4,8
19680,-0.00012,-0.00018,-0.00046,-0.00056,-0.00038,-2e-05,-0.00018,-0.00016,4,8
19681,-0.00014,-0.00018,-0.00011,-0.00069,-0.00091,-0.00019,-0.00029,-0.00021,4,8
19682,-0.00014,-0.00018,-0.00011,-0.00069,-0.00091,-0.00019,-0.00029,-0.00021,4,8
19683,3e-05,7e-05,-0.00026,-3e-05,0.00033,-0.00014,0.00025,0.00015,4,8
19684,3e-05,7e-05,-0.00026,-3e-05,0.00033,-0.00014,0.00025,0.00015,4,8
19685,3e-05,7e-05,-0.00026,-3e-05,0.00033,-0.00014,0.00025,0.00015,4,8
19686,3e-05,7e-05,-0.00026,-3e-05,0.00033,-0.00014,0.00025,0.00015,4,8
19689,3e-05,7e-05,-0.00026,-3e-05,0.00033,-0.00014,0.00025,0.00015,4,8
19690,3e-05,7e-05,-0.00026,-3e-05,0.00033,-0.00014,0.00025,0.00015,4,8
19691,3e-05,7e-05,-0.00026,-3e-05,0.00033,-0.00014,0.00025,0.00015,4,8
19692,3e-05,7e-05,-0.00026,-3e-05,0.00033,-0.00014,0.00025,0.00015,4,8
19693,3e-05,7e-05,-0.00026,-3e-05,0.00033,-0.00014,0.00025,0.00015,4,8
19694,3e-05,7e-05,-0.00026,-3e-05,0.00033,-0.00014,0.00025,0.00015,4,8
19695,0,-0.00012,-0.00013,-0.00042,-0.0008,-0.00021,-0.0001,-8e-05,4,8
19696,0,-0.00012,-0.00013,-0.00042,-0.0008,-0.00021,-0.0001,-8e-05,4,8
19697,0,-0.00012,-0.00013,-0.00042,-0.0008,-0.00021,-0.0001,-8e-05,4,8
19698,0,-0.00012,-0.00013,-0.00042,-0.0008,-0.00021,-0.0001,-8e-05,4,8
19699,0,-0.00012,-0.00013,-0.00042,-0.0008,-0.00021,-0.0001,-8e-05,4,8
19700,0,-0.00012,-0.00013,-0.00042,-0.0008,-0.00021,-0.0001,-8e-05,4,8
19701,0,-0.00012,-0.00013,-0.00042,-0.0008,-0.00021,-0.0001,-8e-05,4,8
19702,0,-0.00012,-0.00013,-0.00042,-0.0008,-0.00021,-0.0001,-8e-05,4,8
19703,0,-0.00012,-0.00013,-0.00042,-0.0008,-0.00021,-0.0001,-8e-05,4,8
19704,4e-05,6e-05,5e-05,-0.0004,-0.00024,0.00018,-1e-05,3e-05,4,8
19705,4e-05,6e-05,5e-05,-0.0004,-0.00024,0.00018,-1e-05,3e-05,4,8
19706,4e-05,6e-05,5e-05,-0.0004,-0.00024,0.00018,-1e-05,3e-05,4,8
19707,4e-05,6e-05,5e-05,-0.0004,-0.00024,0.00018,-1e-05,3e-05,4,8
19708,4e-05,6e-05,5e-05,-0.0004,-0.00024,0.00018,-1e-05,3e-05,4,8
19709,4e-05,6e-05,5e-05,-0.0004,-0.00024,0.00018,-1e-05,3e-05,4,8
19710,4e-05,6e-05,5e-05,-0.0004,-0.00024,0.00018,-1e-05,3e-05,4,8
19711,4e-05,6e-05,5e-05,-0.0004,-0.00024,0.00018,-1e-05,3e-05,4,8
19712,4e-05,6e-05,5e-05,-0.0004,-0.00024,0.00018,-1e-05,3e-05,4,8
19713,4e-05,6e-05,5e-05,-0.0004,-0.00024,0.00018,-1e-05,3e-05,4,8
19714,4e-05,6e-05,5e-05,-0.0004,-0.00024,0.00018,-1e-05,3e-05,4,8
19715,4e-05,6e-05,5e-05,-0.0004,-0.00024,0.00018,-1e-05,3e-05,4,8
19716,4e-05,6e-05,5e-05,-0.0004,-0.00024,0.00018,-1e-05,3e-05,4,8
19717,4e-05,6e-05,5e-05,-0.0004,-0.00024,0.00018,-1e-05,3e-05,4,8
19718,4e-05,6e-05,5e-05,-0.0004,-0.00024,0.00018,-1e-05,3e-05,4,8
19719,5e-05,0.00013,0.00059,0.00065,-0.00063,-0.00044,-7e-05,-2e-05,4,8
19720,-5e-05,-0.00015,-0.0002,-0.00071,-0.00128,-0.00055,-0.0001,-5e-05,4,8
19721,-5e-05,-0.00015,-0.0002,-0.00071,-0.00128,-0.00055,-0.0001,-5e-05,4,8
19722,-5e-05,-0.00015,-0.0002,-0.00071,-0.00128,-0.00055,-0.0001,-5e-05,4,8
19723,-5e-05,-0.00015,-0.0002,-0.00071,-0.00128,-0.00055,-0.0001,-5e-05,4,8
19724,-5e-05,-0.00015,-0.0002,-0.00071,-0.00128,-0.00055,-0.0001,-5e-05,4,8
19725,-5e-05,-0.00015,-0.0002,-0.00071,-0.00128,-0.00055,-0.0001,-5e-05,4,8
19726,-5e-05,-0.00015,-0.0002,-0.00071,-0.00128,-0.00055,-0.0001,-5e-05,4,8
19727,-5e-05,-0.00015,-0.0002,-0.00071,-0.00128,-0.00055,-0.0001,-5e-05,4,8
19728,-5e-05,-0.00015,-0.0002,-0.00071,-0.00128,-0.00055,-0.0001,-5e-05,4,8
19729,-5e-05,-0.00015,-0.0002,-0.00071,-0.00128,-0.00055,-0.0001,-5e-05,4,8
19730,-5e-05,-0.00015,-0.0002,-0.00071,-0.00128,-0.00055,-0.0001,-5e-05,4,8
19731,-5e-05,-0.00015,-0.0002,-0.00071,-0.00128,-0.00055,-0.0001,-5e-05,4,8
19732,-5e-05,-0.00015,-0.0002,-0.00071,-0.00128,-0.00055,-0.0001,-5e-05,4,8
19733,-5e-05,-0.00015,-0.0002,-0.00071,-0.00128,-0.00055,-0.0001,-5e-05,4,8
19734,-5e-05,-0.00015,-0.0002,-0.00071,-0.00128,-0.00055,-0.0001,-5e-05,4,8
19735,-5e-05,-0.00015,-0.0002,-0.00071,-0.00128,-0.00055,-0.0001,-5e-05,4,8
19736,-5e-05,-0.00015,-0.0002,-0.00071,-0.00128,-0.00055,-0.0001,-5e-05,4,8
19738,-5e-05,-0.00015,-0.0002,-0.00071,-0.00128,-0.00055,-0.0001,-5e-05,4,8
19740,-5e-05,-0.00015,-0.0002,-0.00071,-0.00128,-0.00055,-0.0001,-5e-05,4,8
19741,-0.00015,-0.00016,-0.00022,0.00017,-0.00054,-0.0001,-4e-05,-4e-05,4,8
19742,-0.00015,-0.00016,-0.00022,0.00017,-0.00054,-0.0001,-4e-05,-4e-05,4,8
19743,0.0001,0.00012,0.00043,0.00045,0.00042,0.00042,9e-05,7e-05,4,8
19744,0.0001,0.00012,0.00043,0.00045,0.00042,0.00042,9e-05,7e-05,4,8
19745,0.0001,0.00012,0.00043,0.00045,0.00042,0.00042,9e-05,7e-05,4,8
19746,0.0001,0.00012,0.00043,0.00045,0.00042,0.00042,9e-05,7e-05,4,8
19747,0.0001,0.00012,0.00043,0.00045,0.00042,0.00042,9e-05,7e-05,4,8
19748,0.0001,0.00012,0.00043,0.00045,0.00042,0.00042,9e-05,7e-05,4,8
19749,0.0001,0.00012,0.00043,0.00045,0.00042,0.00042,9e-05,7e-05,4,8
19750,0.0001,0.00012,0.00043,0.00045,0.00042,0.00042,9e-05,7e-05,4,8
19751,0.0001,0.00012,0.00043,0.00045,0.00042,0.00042,9e-05,7e-05,4,8
19752,0.0001,0.00012,0.00043,0.00045,0.00042,0.00042,9e-05,7e-05,4,8
19753,0.0001,0.00012,0.00043,0.00045,0.00042,0.00042,9e-05,7e-05,4,8
19754,0.0001,0.00012,0.00043,0.00045,0.00042,0.00042,9e-05,7e-05,4,8
19755,-0.00015,-0.00015,-0.00016,-0.00078,-0.00025,-6e-05,-1e-05,-0.00012,4,8
19756,-0.00015,-0.00015,-0.00016,-0.00078,-0.00025,-6e-05,-1e-05,-0.00012,4,8
19757,-0.00015,-0.00015,-0.00016,-0.00078,-0.00025,-6e-05,-1e-05,-0.00012,4,8
19758,-0.00015,-0.00015,-0.00016,-0.00078,-0.00025,-6e-05,-1e-05,-0.00012,4,8
19759,-0.00015,-0.00015,-0.00016,-0.00078,-0.00025,-6e-05,-1e-05,-0.00012,4,8
19760,-0.00015,-0.00015,-0.00016,-0.00078,-0.00025,-6e-05,-1e-05,-0.00012,4,8
19761,-0.00015,-0.00015,-0.00016,-0.00078,-0.00025,-6e-05,-1e-05,-0.00012,4,8
19762,-0.00015,-0.00015,-0.00016,-0.00078,-0.00025,-6e-05,-1e-05,-0.00012,4,8
19763,-0.00015,-0.00015,-0.00016,-0.00078,-0.00025,-6e-05,-1e-05,-0.00012,4,8
19764,0,3e-05,-0.00021,-0.0005,-0.00118,0.0007,4e-05,4e-05,4,8
19765,0,3e-05,-0.00021,-0.0005,-0.00118,0.0007,4e-05,4e-05,4,8
19766,0,3e-05,-0.00021,-0.0005,-0.00118,0.0007,4e-05,4e-05,4,8
19767,0,3e-05,-0.00021,-0.0005,-0.00118,0.0007,4e-05,4e-05,4,8
19768,0,3e-05,-0.00021,-0.0005,-0.00118,0.0007,4e-05,4e-05,4,8
19769,0,3e-05,-0.00021,-0.0005,-0.00118,0.0007,4e-05,4e-05,4,8
19770,0,3e-05,-0.00021,-0.0005,-0.00118,0.0007,4e-05,4e-05,4,8
19771,0,3e-05,-0.00021,-0.0005,-0.00118,0.0007,4e-05,4e-05,4,8
19772,0,3e-05,-0.00021,-0.0005,-0.00118,0.0007,4e-05,4e-05,4,8
19773,0,3e-05,-0.00021,-0.0005,-0.00118,0.0007,4e-05,4e-05,4,8
19774,0,3e-05,-0.00021,-0.0005,-0.00118,0.0007,4e-05,4e-05,4,8
19776,0,3e-05,-0.00021,-0.0005,-0.00118,0.0007,4e-05,4e-05,4,8
19777,0,3e-05,-0.00021,-0.0005,-0.00118,0.0007,4e-05,4e-05,4,8
19778,0,3e-05,-0.00021,-0.0005,-0.00118,0.0007,4e-05,4e-05,4,8
19779,-1e-05,-4e-05,-0.00019,4e-05,0.0002,-0.00027,-0.00021,-5e-05,4,8
19780,-0.00027,-0.00041,-0.00059,-0.00046,-0.00117,-0.00081,-0.00043,-0.00022,4,8
19782,-0.00027,-0.00041,-0.00059,-0.00046,-0.00117,-0.00081,-0.00043,-0.00022,4,8
19783,-0.00027,-0.00041,-0.00059,-0.00046,-0.00117,-0.00081,-0.00043,-0.00022,4,8
19784,-0.00027,-0.00041,-0.00059,-0.00046,-0.00117,-0.00081,-0.00043,-0.00022,4,8
19785,-0.00027,-0.00041,-0.00059,-0.00046,-0.00117,-0.00081,-0.00043,-0.00022,4,8
19786,-0.00027,-0.00041,-0.00059,-0.00046,-0.00117,-0.00081,-0.00043,-0.00022,4,8
19788,-0.00027,-0.00041,-0.00059,-0.00046,-0.00117,-0.00081,-0.00043,-0.00022,4,8
19789,-0.00027,-0.00041,-0.00059,-0.00046,-0.00117,-0.00081,-0.00043,-0.00022,4,8
19790,-0.00027,-0.00041,-0.00059,-0.00046,-0.00117,-0.00081,-0.00043,-0.00022,4,8
19791,-0.00027,-0.00041,-0.00059,-0.00046,-0.00117,-0.00081,-0.00043,-0.00022,4,8
19792,-0.00027,-0.00041,-0.00059,-0.00046,-0.00117,-0.00081,-0.00043,-0.00022,4,8
19793,-0.00027,-0.00041,-0.00059,-0.00046,-0.00117,-0.00081,-0.00043,-0.00022,4,8
19794,-0.00027,-0.00041,-0.00059,-0.00046,-0.00117,-0.00081,-0.00043,-0.00022,4,8
19795,-0.00027,-0.00041,-0.00059,-0.00046,-0.00117,-0.00081,-0.00043,-0.00022,4,8
19796,-0.00027,-0.00041,-0.00059,-0.00046,-0.00117,-0.00081,-0.00043,-0.00022,4,8
19797,-0.00027,-0.00041,-0.00059,-0.00046,-0.00117,-0.00081,-0.00043,-0.00022,4,8
19798,-0.00027,-0.00041,-0.00059,-0.00046,-0.00117,-0.00081,-0.00043,-0.00022,4,8
19799,-0.00027,-0.00041,-0.00059,-0.00046,-0.00117,-0.00081,-0.00043,-0.00022,4,8
19800,-0.00027,-0.00041,-0.00059,-0.00046,-0.00117,-0.00081,-0.00043,-0.00022,4,8
19801,0,2e-05,5e-05,0.00061,0.00026,0.00064,2e-05,2e-05,4,8
19802,0,2e-05,5e-05,0.00061,0.00026,0.00064,2e-05,2e-05,4,8
19803,4e-05,-6e-05,-0.00044,0.00011,0.00049,-2e-05,4e-05,3e-05,4,8
19804,4e-05,-6e-05,-0.00044,0.00011,0.00049,-2e-05,4e-05,3e-05,4,8
19805,4e-05,-6e-05,-0.00044,0.00011,0.00049,-2e-05,4e-05,3e-05,4,8
19806,4e-05,-6e-05,-0.00044,0.00011,0.00049,-2e-05,4e-05,3e-05,4,8
19807,4e-05,-6e-05,-0.00044,0.00011,0.00049,-2e-05,4e-05,3e-05,4,8
19808,4e-05,-6e-05,-0.00044,0.00011,0.00049,-2e-05,4e-05,3e-05,4,8
19809,4e-05,-6e-05,-0.00044,0.00011,0.00049,-2e-05,4e-05,3e-05,4,8
19810,4e-05,-6e-05,-0.00044,0.00011,0.00049,-2e-05,4e-05,3e-05,4,8
19811,4e-05,-6e-05,-0.00044,0.00011,0.00049,-2e-05,4e-05,3e-05,4,8
19812,4e-05,-6e-05,-0.00044,0.00011,0.00049,-2e-05,4e-05,3e-05,4,8
19813,4e-05,-6e-05,-0.00044,0.00011,0.00049,-2e-05,4e-05,3e-05,4,8
19814,4e-05,-6e-05,-0.00044,0.00011,0.00049,-2e-05,4e-05,3e-05,4,8
19815,7e-05,7e-05,4e-05,-0.0001,0.00073,0.00022,0.00025,0.00013,4,8
19816,7e-05,7e-05,4e-05,-0.0001,0.00073,0.00022,0.00025,0.00013,4,8
19817,7e-05,7e-05,4e-05,-0.0001,0.00073,0.00022,0.00025,0.00013,4,8
19818,7e-05,7e-05,4e-05,-0.0001,0.00073,0.00022,0.00025,0.00013,4,8
19819,7e-05,7e-05,4e-05,-0.0001,0.00073,0.00022,0.00025,0.00013,4,8
19820,7e-05,7e-05,4e-05,-0.0001,0.00073,0.00022,0.00025,0.00013,4,8
19821,7e-05,7e-05,4e-05,-0.0001,0.00073,0.00022,0.00025,0.00013,4,8
19822,7e-05,7e-05,4e-05,-0.0001,0.00073,0.00022,0.00025,0.00013,4,8
19823,7e-05,7e-05,4e-05,-0.0001,0.00073,0.00022,0.00025,0.00013,4,8
19824,0,0.00011,0.00028,0.00044,0.00026,0.00028,0.00039,0.0001,4,8
19825,0,0.00011,0.00028,0.00044,0.00026,0.00028,0.00039,0.0001,4,8
19826,0,0.00011,0.00028,0.00044,0.00026,0.00028,0.00039,0.0001,4,8
19827,0,0.00011,0.00028,0.00044,0.00026,0.00028,0.00039,0.0001,4,8
19828,0,0.00011,0.00028,0.00044,0.00026,0.00028,0.00039,0.0001,4,8
19829,0,0.00011,0.00028,0.00044,0.00026,0.00028,0.00039,0.0001,4,8
19830,0,0.00011,0.00028,0.00044,0.00026,0.00028,0.00039,0.0001,4,8
19831,0,0.00011,0.00028,0.00044,0.00026,0.00028,0.00039,0.0001,4,8
19832,0,0.00011,0.00028,0.00044,0.00026,0.00028,0.00039,0.0001,4,8
19833,0,0.00011,0.00028,0.00044,0.00026,0.00028,0.00039,0.0001,4,8
19834,0,0.00011,0.00028,0.00044,0.00026,0.00028,0.00039,0.0001,4,8
19835,0,0.00011,0.00028,0.00044,0.00026,0.00028,0.00039,0.0001,4,8
19836,0,0.00011,0.00028,0.00044,0.00026,0.00028,0.00039,0.0001,4,8
19839,-8e-05,-0.00012,-0.00027,-0.00036,-0.00112,-4e-05,-3e-05,-5e-05,4,8
19840,-6e-05,-0.00012,0.00018,0.00038,-0.00038,-0.00095,-0.00011,-9e-05,4,8
19841,-6e-05,-0.00012,0.00018,0.00038,-0.00038,-0.00095,-0.00011,-9e-05,4,8
19842,-6e-05,-0.00012,0.00018,0.00038,-0.00038,-0.00095,-0.00011,-9e-05,4,8
19843,-6e-05,-0.00012,0.00018,0.00038,-0.00038,-0.00095,-0.00011,-9e-05,4,8
19844,-6e-05,-0.00012,0.00018,0.00038,-0.00038,-0.00095,-0.00011,-9e-05,4,8
19845,-6e-05,-0.00012,0.00018,0.00038,-0.00038,-0.00095,-0.00011,-9e-05,4,8
19846,-6e-05,-0.00012,0.00018,0.00038,-0.00038,-0.00095,-0.00011,-9e-05,4,8
19847,-6e-05,-0.00012,0.00018,0.00038,-0.00038,-0.00095,-0.00011,-9e-05,4,8
19848,-6e-05,-0.00012,0.00018,0.00038,-0.00038,-0.00095,-0.00011,-9e-05,4,8
19849,-6e-05,-0.00012,0.00018,0.00038,-0.00038,-0.00095,-0.00011,-9e-05,4,8
19850,-6e-05,-0.00012,0.00018,0.00038,-0.00038,-0.00095,-0.00011,-9e-05,4,8
19851,-6e-05,-0.00012,0.00018,0.00038,-0.00038,-0.00095,-0.00011,-9e-05,4,8
19852,-6e-05,-0.00012,0.00018,0.00038,-0.00038,-0.00095,-0.00011,-9e-05,4,8
19853,-6e-05,-0.00012,0.00018,0.00038,-0.00038,-0.00095,-0.00011,-9e-05,4,8
19854,-6e-05,-0.00012,0.00018,0.00038,-0.00038,-0.00095,-0.00011,-9e-05,4,8
19855,-6e-05,-0.00012,0.00018,0.00038,-0.00038,-0.00095,-0.00011,-9e-05,4,8
19856,-6e-05,-0.00012,0.00018,0.00038,-0.00038,-0.00095,-0.00011,-9e-05,4,8
19857,-6e-05,-0.00012,0.00018,0.00038,-0.00038,-0.00095,-0.00011,-9e-05,4,8
19858,-6e-05,-0.00012,0.00018,0.00038,-0.00038,-0.00095,-0.00011,-9e-05,4,8
19859,-6e-05,-0.00012,0.00018,0.00038,-0.00038,-0.00095,-0.00011,-9e-05,4,8
19860,-6e-05,-0.00012,0.00018,0.00038,-0.00038,-0.00095,-0.00011,-9e-05,4,8
19861,-2e-05,-0.00011,-0.00012,-0.00034,-0.00037,-0.00013,-0.00017,-0.0001,4,8
19862,-2e-05,-0.00011,-0.00012,-0.00034,-0.00037,-0.00013,-0.00017,-0.0001,4,8
19863,2e-05,7e-05,0.00038,0.00087,0.00043,0.0004,-1e-05,0,4,8
19864,2e-05,7e-05,0.00038,0.00087,0.00043,0.0004,-1e-05,0,4,8
19865,2e-05,7e-05,0.00038,0.00087,0.00043,0.0004,-1e-05,0,4,8
19866,2e-05,7e-05,0.00038,0.00087,0.00043,0.0004,-1e-05,0,4,8
19867,2e-05,7e-05,0.00038,0.00087,0.00043,0.0004,-1e-05,0,4,8
19868,2e-05,7e-05,0.00038,0.00087,0.00043,0.0004,-1e-05,0,4,8
19869,2e-05,7e-05,0.00038,0.00087,0.00043,0.0004,-1e-05,0,4,8
19870,2e-05,7e-05,0.00038,0.00087,0.00043,0.0004,-1e-05,0,4,8
19871,2e-05,7e-05,0.00038,0.00087,0.00043,0.0004,-1e-05,0,4,8
19872,2e-05,7e-05,0.00038,0.00087,0.00043,0.0004,-1e-05,0,4,8
19873,2e-05,7e-05,0.00038,0.00087,0.00043,0.0004,-1e-05,0,4,8
19874,2e-05,7e-05,0.00038,0.00087,0.00043,0.0004,-1e-05,0,4,8
19875,1e-05,-8e-05,-0.00026,0.00028,-1e-05,-2e-05,8e-05,1e-05,4,8
19876,1e-05,-8e-05,-0.00026,0.00028,-1e-05,-2e-05,8e-05,1e-05,4,8
19877,1e-05,-8e-05,-0.00026,0.00028,-1e-05,-2e-05,8e-05,1e-05,4,8
19878,1e-05,-8e-05,-0.00026,0.00028,-1e-05,-2e-05,8e-05,1e-05,4,8
19879,1e-05,-8e-05,-0.00026,0.00028,-1e-05,-2e-05,8e-05,1e-05,4,8
19880,1e-05,-8e-05,-0.00026,0.00028,-1e-05,-2e-05,8e-05,1e-05,4,8
19881,1e-05,-8e-05,-0.00026,0.00028,-1e-05,-2e-05,8e-05,1e-05,4,8
19882,1e-05,-8e-05,-0.00026,0.00028,-1e-05,-2e-05,8e-05,1e-05,4,8
19883,1e-05,-8e-05,-0.00026,0.00028,-1e-05,-2e-05,8e-05,1e-05,4,8
19884,-3e-05,-4e-05,0.00023,-0.0001,-0.00071,-0.00021,-0.0002,-7e-05,4,8
19885,-3e-05,-4e-05,0.00023,-0.0001,-0.00071,-0.00021,-0.0002,-7e-05,4,8
19886,-3e-05,-4e-05,0.00023,-0.0001,-0.00071,-0.00021,-0.0002,-7e-05,4,8
19888,-3e-05,-4e-05,0.00023,-0.0001,-0.00071,-0.00021,-0.0002,-7e-05,4,8
19890,-3e-05,-4e-05,0.00023,-0.0001,-0.00071,-0.00021,-0.0002,-7e-05,4,8
19891,-3e-05,-4e-05,0.00023,-0.0001,-0.00071,-0.00021,-0.0002,-7e-05,4,8
19892,-3e-05,-4e-05,0.00023,-0.0001,-0.00071,-0.00021,-0.0002,-7e-05,4,8
19893,-3e-05,-4e-05,0.00023,-0.0001,-0.00071,-0.00021,-0.0002,-7e-05,4,8
19894,-3e-05,-4e-05,0.00023,-0.0001,-0.00071,-0.00021,-0.0002,-7e-05,4,8
19895,-3e-05,-4e-05,0.00023,-0.0001,-0.00071,-0.00021,-0.0002,-7e-05,4,8
19896,-3e-05,-4e-05,0.00023,-0.0001,-0.00071,-0.00021,-0.0002,-7e-05,4,8
19897,-3e-05,-4e-05,0.00023,-0.0001,-0.00071,-0.00021,-0.0002,-7e-05,4,8
19898,-3e-05,-4e-05,0.00023,-0.0001,-0.00071,-0.00021,-0.0002,-7e-05,4,8
19899,4e-05,0.00019,0.00019,0.00059,0.00031,0.00043,0.00013,9e-05,4,8
19900,-0.00019,-0.00024,-0.00032,-0.00018,-0.00128,-0.00015,-0.00027,-0.00018,4,8
19901,-0.00019,-0.00024,-0.00032,-0.00018,-0.00128,-0.00015,-0.00027,-0.00018,4,8
19902,-0.00019,-0.00024,-0.00032,-0.00018,-0.00128,-0.00015,-0.00027,-0.00018,4,8
19903,-0.00019,-0.00024,-0.00032,-0.00018,-0.00128,-0.00015,-0.00027,-0.00018,4,8
19904,-0.00019,-0.00024,-0.00032,-0.00018,-0.00128,-0.00015,-0.00027,-0.00018,4,8
19905,-0.00019,-0.00024,-0.00032,-0.00018,-0.00128,-0.00015,-0.00027,-0.00018,4,8
19906,-0.00019,-0.00024,-0.00032,-0.00018,-0.00128,-0.00015,-0.00027,-0.00018,4,8
19907,-0.00019,-0.00024,-0.00032,-0.00018,-0.00128,-0.00015,-0.00027,-0.00018,4,8
19908,-0.00019,-0.00024,-0.00032,-0.00018,-0.00128,-0.00015,-0.00027,-0.00018,4,8
19909,-0.00019,-0.00024,-0.00032,-0.00018,-0.00128,-0.00015,-0.00027,-0.00018,4,8
19910,-0.00019,-0.00024,-0.00032,-0.00018,-0.00128,-0.00015,-0.00027,-0.00018,4,8
19911,-0.00019,-0.00024,-0.00032,-0.00018,-0.00128,-0.00015,-0.00027,-0.00018,4,8
19912,-0.00019,-0.00024,-0.00032,-0.00018,-0.00128,-0.00015,-0.00027,-0.00018,4,8
19913,-0.00019,-0.00024,-0.00032,-0.00018,-0.00128,-0.00015,-0.00027,-0.00018,4,8
19914,-0.00019,-0.00024,-0.00032,-0.00018,-0.00128,-0.00015,-0.00027,-0.00018,4,8
19915,-0.00019,-0.00024,-0.00032,-0.00018,-0.00128,-0.00015,-0.00027,-0.00018,4,8
19916,-0.00019,-0.00024,-0.00032,-0.00018,-0.00128,-0.00015,-0.00027,-0.00018,4,8
19917,-0.00019,-0.00024,-0.00032,-0.00018,-0.00128,-0.00015,-0.00027,-0.00018,4,8
19918,-0.00019,-0.00024,-0.00032,-0.00018,-0.00128,-0.00015,-0.00027,-0.00018,4,8
19919,-0.00019,-0.00024,-0.00032,-0.00018,-0.00128,-0.00015,-0.00027,-0.00018,4,8
19920,-0.00019,-0.00024,-0.00032,-0.00018,-0.00128,-0.00015,-0.00027,-0.00018,4,8
19921,7e-05,3e-05,0.00032,-0.00011,-0.00063,-0.00051,-0.00015,-4e-05,4,8
19922,7e-05,3e-05,0.00032,-0.00011,-0.00063,-0.00051,-0.00015,-4e-05,4,8
19923,2e-05,4e-05,-0.00016,-9e-05,0.00113,9e-05,1e-05,-3e-05,4,8
19924,2e-05,4e-05,-0.00016,-9e-05,0.00113,9e-05,1e-05,-3e-05,4,8
19925,2e-05,4e-05,-0.00016,-9e-05,0.00113,9e-05,1e-05,-3e-05,4,8
19926,2e-05,4e-05,-0.00016,-9e-05,0.00113,9e-05,1e-05,-3e-05,4,8
19927,2e-05,4e-05,-0.00016,-9e-05,0.00113,9e-05,1e-05,-3e-05,4,8
19928,2e-05,4e-05,-0.00016,-9e-05,0.00113,9e-05,1e-05,-3e-05,4,8
19929,2e-05,4e-05,-0.00016,-9e-05,0.00113,9e-05,1e-05,-3e-05,4,8
19930,2e-05,4e-05,-0.00016,-9e-05,0.00113,9e-05,1e-05,-3e-05,4,8
19931,2e-05,4e-05,-0.00016,-9e-05,0.00113,9e-05,1e-05,-3e-05,4,8
19932,2e-05,4e-05,-0.00016,-9e-05,0.00113,9e-05,1e-05,-3e-05,4,8
19933,2e-05,4e-05,-0.00016,-9e-05,0.00113,9e-05,1e-05,-3e-05,4,8
19934,2e-05,4e-05,-0.00016,-9e-05,0.00113,9e-05,1e-05,-3e-05,4,8
19935,2e-05,4e-05,-0.00016,-9e-05,0.00113,9e-05,1e-05,-3e-05,4,8
19936,2e-05,4e-05,-0.00016,-9e-05,0.00113,9e-05,1e-05,-3e-05,4,8
19938,2e-05,4e-05,-0.00016,-9e-05,0.00113,9e-05,1e-05,-3e-05,4,8
19939,2e-05,4e-05,-0.00016,-9e-05,0.00113,9e-05,1e-05,-3e-05,4,8
19940,2e-05,4e-05,-0.00016,-9e-05,0.00113,9e-05,1e-05,-3e-05,4,8
19941,2e-05,4e-05,-0.00016,-9e-05,0.00113,9e-05,1e-05,-3e-05,4,8
19942,2e-05,4e-05,-0.00016,-9e-05,0.00113,9e-05,1e-05,-3e-05,4,8
19943,2e-05,4e-05,-0.00016,-9e-05,0.00113,9e-05,1e-05,-3e-05,4,8
19944,-7e-05,-3e-05,0.00026,0.00073,0.00052,-3e-05,1e-05,-8e-05,4,8
19945,7e-05,6e-05,-3e-05,-0.00068,-0.00087,5e-05,-4e-05,4e-05,4,8
19946,7e-05,6e-05,-3e-05,-0.00068,-0.00087,5e-05,-4e-05,4e-05,4,8
19947,7e-05,6e-05,-3e-05,-0.00068,-0.00087,5e-05,-4e-05,4e-05,4,8
19948,7e-05,6e-05,-3e-05,-0.00068,-0.00087,5e-05,-4e-05,4e-05,4,8
19949,7e-05,6e-05,-3e-05,-0.00068,-0.00087,5e-05,-4e-05,4e-05,4,8
19950,7e-05,6e-05,-3e-05,-0.00068,-0.00087,5e-05,-4e-05,4e-05,4,8
19951,7e-05,6e-05,-3e-05,-0.00068,-0.00087,5e-05,-4e-05,4e-05,4,8
19952,7e-05,6e-05,-3e-05,-0.00068,-0.00087,5e-05,-4e-05,4e-05,4,8
19953,7e-05,6e-05,-3e-05,-0.00068,-0.00087,5e-05,-4e-05,4e-05,4,8
19954,7e-05,6e-05,-3e-05,-0.00068,-0.00087,5e-05,-4e-05,4e-05,4,8
19955,7e-05,6e-05,-3e-05,-0.00068,-0.00087,5e-05,-4e-05,4e-05,4,8
19956,7e-05,6e-05,-3e-05,-0.00068,-0.00087,5e-05,-4e-05,4e-05,4,8
19957,7e-05,6e-05,-3e-05,-0.00068,-0.00087,5e-05,-4e-05,4e-05,4,8
19958,7e-05,6e-05,-3e-05,-0.00068,-0.00087,5e-05,-4e-05,4e-05,4,8
19959,-0.00012,-0.00011,-0.00013,-7e-05,-0.00018,-0.00028,-0.00021,-0.00012,4,8
19960,4e-05,3e-05,0.00019,6e-05,0.00097,0.00049,-5e-05,3e-05,4,8
19962,4e-05,3e-05,0.00019,6e-05,0.00097,0.00049,-5e-05,3e-05,4,8
19963,4e-05,3e-05,0.00019,6e-05,0.00097,0.00049,-5e-05,3e-05,4,8
19964,4e-05,3e-05,0.00019,6e-05,0.00097,0.00049,-5e-05,3e-05,4,8
19965,4e-05,3e-05,0.00019,6e-05,0.00097,0.00049,-5e-05,3e-05,4,8
19966,4e-05,3e-05,0.00019,6e-05,0.00097,0.00049,-5e-05,3e-05,4,8
19967,4e-05,3e-05,0.00019,6e-05,0.00097,0.00049,-5e-05,3e-05,4,8
19968,4e-05,3e-05,0.00019,6e-05,0.00097,0.00049,-5e-05,3e-05,4,8
19969,4e-05,3e-05,0.00019,6e-05,0.00097,0.00049,-5e-05,3e-05,4,8
19970,4e-05,3e-05,0.00019,6e-05,0.00097,0.00049,-5e-05,3e-05,4,8
19971,4e-05,3e-05,0.00019,6e-05,0.00097,0.00049,-5e-05,3e-05,4,8
19972,4e-05,3e-05,0.00019,6e-05,0.00097,0.00049,-5e-05,3e-05,4,8
19973,4e-05,3e-05,0.00019,6e-05,0.00097,0.00049,-5e-05,3e-05,4,8
19974,4e-05,3e-05,0.00019,6e-05,0.00097,0.00049,-5e-05,3e-05,4,8
19975,4e-05,3e-05,0.00019,6e-05,0.00097,0.00049,-5e-05,3e-05,4,8
19976,4e-05,3e-05,0.00019,6e-05,0.00097,0.00049,-5e-05,3e-05,4,8
19977,4e-05,3e-05,0.00019,6e-05,0.00097,0.00049,-5e-05,3e-05,4,8
19978,4e-05,3e-05,0.00019,6e-05,0.00097,0.00049,-5e-05,3e-05,4,8
19979,4e-05,3e-05,0.00019,6e-05,0.00097,0.00049,-5e-05,3e-05,4,8
19980,4e-05,3e-05,0.00019,6e-05,0.00097,0.00049,-5e-05,3e-05,4,8
19981,4e-05,3e-05,0.00019,6e-05,0.00097,0.00049,-5e-05,3e-05,4,8
19982,-7e-05,-0.00014,-0.00059,-0.001,-0.00023,0.00027,-4e-05,-2e-05,4,8
19983,0.00017,0.00022,0.0001,0.00021,0.00109,0.00064,0.00021,0.00017,4,8
19984,0.00017,0.00022,0.0001,0.00021,0.00109,0.00064,0.00021,0.00017,4,8
19985,0.00017,0.00022,0.0001,0.00021,0.00109,0.00064,0.00021,0.00017,4,8
19986,0.00017,0.00022,0.0001,0.00021,0.00109,0.00064,0.00021,0.00017,4,8
19988,0.00017,0.00022,0.0001,0.00021,0.00109,0.00064,0.00021,0.00017,4,8
19989,0.00017,0.00022,0.0001,0.00021,0.00109,0.00064,0.00021,0.00017,4,8
19990,0.00017,0.00022,0.0001,0.00021,0.00109,0.00064,0.00021,0.00017,4,8
19991,0.00017,0.00022,0.0001,0.00021,0.00109,0.00064,0.00021,0.00017,4,8
19992,0.00017,0.00022,0.0001,0.00021,0.00109,0.00064,0.00021,0.00017,4,8
19993,0.00017,0.00022,0.0001,0.00021,0.00109,0.00064,0.00021,0.00017,4,8
19994,0.00017,0.00022,0.0001,0.00021,0.00109,0.00064,0.00021,0.00017,4,8
19995,0.00017,0.00022,0.0001,0.00021,0.00109,0.00064,0.00021,0.00017,4,8
19996,0.00017,0.00022,0.0001,0.00021,0.00109,0.00064,0.00021,0.00017,4,8
19997,0.00017,0.00022,0.0001,0.00021,0.00109,0.00064,0.00021,0.00017,4,8
49889,-4e-05,1e-05,0.00021,0.00035,0.0008,-8e-05,0.00018,4e-05,4,8
49890,-4e-05,1e-05,0.00021,0.00035,0.0008,-8e-05,0.00018,4e-05,4,8
49891,-4e-05,1e-05,0.00021,0.00035,0.0008,-8e-05,0.00018,4e-05,4,8
49892,-4e-05,1e-05,0.00021,0.00035,0.0008,-8e-05,0.00018,4e-05,4,8
49893,-4e-05,1e-05,0.00021,0.00035,0.0008,-8e-05,0.00018,4e-05,4,8
49894,-4e-05,1e-05,0.00021,0.00035,0.0008,-8e-05,0.00018,4e-05,4,8
49895,-4e-05,1e-05,0.00021,0.00035,0.0008,-8e-05,0.00018,4e-05,4,8
49896,-4e-05,1e-05,0.00021,0.00035,0.0008,-8e-05,0.00018,4e-05,4,8
49897,-4e-05,1e-05,0.00021,0.00035,0.0008,-8e-05,0.00018,4e-05,4,8
49898,-4e-05,1e-05,0.00021,0.00035,0.0008,-8e-05,0.00018,4e-05,4,8
49899,0.00016,-0.00058,0.0005,-0.00113,-0.0004,-0.00034,1e-05,0.00013,4,8
49900,-0.00021,0.00013,-0.00073,-0.00128,-0.00128,-0.00051,0.00014,-7e-05,4,8
49901,-0.00021,0.00013,-0.00073,-0.00128,-0.00128,-0.00051,0.00014,-7e-05,4,8
49902,-0.00021,0.00013,-0.00073,-0.00128,-0.00128,-0.00051,0.00014,-7e-05,4,8
49903,-0.00021,0.00013,-0.00073,-0.00128,-0.00128,-0.00051,0.00014,-7e-05,4,8
49904,-0.00021,0.00013,-0.00073,-0.00128,-0.00128,-0.00051,0.00014,-7e-05,4,8
49905,-0.00021,0.00013,-0.00073,-0.00128,-0.00128,-0.00051,0.00014,-7e-05,4,8
49906,-0.00021,0.00013,-0.00073,-0.00128,-0.00128,-0.00051,0.00014,-7e-05,4,8
49907,-0.00021,0.00013,-0.00073,-0.00128,-0.00128,-0.00051,0.00014,-7e-05,4,8
49908,-0.00021,0.00013,-0.00073,-0.00128,-0.00128,-0.00051,0.00014,-7e-05,4,8
49909,-0.00021,0.00013,-0.00073,-0.00128,-0.00128,-0.00051,0.00014,-7e-05,4,8
49910,-0.00021,0.00013,-0.00073,-0.00128,-0.00128,-0.00051,0.00014,-7e-05,4,8
49911,-0.00021,0.00013,-0.00073,-0.00128,-0.00128,-0.00051,0.00014,-7e-05,4,8
49912,-0.00021,0.00013,-0.00073,-0.00128,-0.00128,-0.00051,0.00014,-7e-05,4,8
49913,-0.00021,0.00013,-0.00073,-0.00128,-0.00128,-0.00051,0.00014,-7e-05,4,8
49914,-0.00021,0.00013,-0.00073,-0.00128,-0.00128,-0.00051,0.00014,-7e-05,4,8
49915,-0.00021,0.00013,-0.00073,-0.00128,-0.00128,-0.00051,0.00014,-7e-05,4,8
49916,-0.00021,0.00013,-0.00073,-0.00128,-0.00128,-0.00051,0.00014,-7e-05,4,8
49917,-0.00021,0.00013,-0.00073,-0.00128,-0.00128,-0.00051,0.00014,-7e-05,4,8
49918,-0.00021,0.00013,-0.00073,-0.00128,-0.00128,-0.00051,0.00014,-7e-05,4,8
49919,-0.00021,0.00013,-0.00073,-0.00128,-0.00128,-0.00051,0.00014,-7e-05,4,8
49920,-0.00021,0.00013,-0.00073,-0.00128,-0.00128,-0.00051,0.00014,-7e-05,4,8
49921,-1e-05,-0.0003,0.00021,0.0002,-0.00058,-0.00025,-4e-05,-4e-05,4,8
49922,9e-05,-0.00033,-0.00013,-0.00091,0.00013,0.00105,-0.00012,3e-05,4,8
49923,9e-05,-0.00033,-0.00013,-0.00091,0.00013,0.00105,-0.00012,3e-05,4,8
49924,9e-05,-0.00033,-0.00013,-0.00091,0.00013,0.00105,-0.00012,3e-05,4,8
49925,9e-05,-0.00033,-0.00013,-0.00091,0.00013,0.00105,-0.00012,3e-05,4,8
49926,9e-05,-0.00033,-0.00013,-0.00091,0.00013,0.00105,-0.00012,3e-05,4,8
49927,9e-05,-0.00033,-0.00013,-0.00091,0.00013,0.00105,-0.00012,3e-05,4,8
49928,9e-05,-0.00033,-0.00013,-0.00091,0.00013,0.00105,-0.00012,3e-05,4,8
49929,9e-05,-0.00033,-0.00013,-0.00091,0.00013,0.00105,-0.00012,3e-05,4,8
49930,9e-05,-0.00033,-0.00013,-0.00091,0.00013,0.00105,-0.00012,3e-05,4,8
49931,9e-05,-0.00033,-0.00013,-0.00091,0.00013,0.00105,-0.00012,3e-05,4,8
49932,9e-05,-0.00033,-0.00013,-0.00091,0.00013,0.00105,-0.00012,3e-05,4,8
49933,9e-05,-0.00033,-0.00013,-0.00091,0.00013,0.00105,-0.00012,3e-05,4,8
49934,9e-05,-0.00033,-0.00013,-0.00091,0.00013,0.00105,-0.00012,3e-05,4,8
49935,9e-05,-0.00033,-0.00013,-0.00091,0.00013,0.00105,-0.00012,3e-05,4,8
49937,4e-05,-0.00033,0.0001,0.00105,0.00016,5e-05,2e-05,4e-05,4,8
49939,4e-05,-0.00033,0.0001,0.00105,0.00016,5e-05,2e-05,4e-05,4,8
49940,4e-05,-0.00033,0.0001,0.00105,0.00016,5e-05,2e-05,4e-05,4,8
49941,4e-05,-0.00033,0.0001,0.00105,0.00016,5e-05,2e-05,4e-05,4,8
49942,4e-05,-0.00033,0.0001,0.00105,0.00016,5e-05,2e-05,4e-05,4,8
49943,4e-05,-0.00033,0.0001,0.00105,0.00016,5e-05,2e-05,4e-05,4,8
49944,4e-05,-0.00033,0.0001,0.00105,0.00016,5e-05,2e-05,4e-05,4,8
49945,4e-05,-0.00033,0.0001,0.00105,0.00016,5e-05,2e-05,4e-05,4,8
49946,4e-05,-0.00033,0.0001,0.00105,0.00016,5e-05,2e-05,4e-05,4,8
49947,4e-05,-0.00033,0.0001,0.00105,0.00016,5e-05,2e-05,4e-05,4,8
49948,4e-05,-0.00033,0.0001,0.00105,0.00016,5e-05,2e-05,4e-05,4,8
49949,4e-05,-0.00033,0.0001,0.00105,0.00016,5e-05,2e-05,4e-05,4,8
49950,4e-05,-0.00033,0.0001,0.00105,0.00016,5e-05,2e-05,4e-05,4,8
49951,4e-05,-0.00033,0.0001,0.00105,0.00016,5e-05,2e-05,4e-05,4,8
49952,4e-05,-0.00033,0.0001,0.00105,0.00016,5e-05,2e-05,4e-05,4,8
49953,4e-05,-0.00033,0.0001,0.00105,0.00016,5e-05,2e-05,4e-05,4,8
49954,4e-05,-0.00033,0.0001,0.00105,0.00016,5e-05,2e-05,4e-05,4,8
49955,4e-05,-0.00033,0.0001,0.00105,0.00016,5e-05,2e-05,4e-05,4,8
49956,4e-05,-0.00033,0.0001,0.00105,0.00016,5e-05,2e-05,4e-05,4,8
49957,4e-05,-0.00033,0.0001,0.00105,0.00016,5e-05,2e-05,4e-05,4,8
49958,4e-05,-0.00033,0.0001,0.00105,0.00016,5e-05,2e-05,4e-05,4,8
49959,-0.00022,-0.00016,-0.00056,-0.00088,2e-05,-0.00013,-0.00025,-8e-05,4,8
49960,-8e-05,0.00017,-1e-05,-0.00071,-0.00075,-0.00035,3e-05,-4e-05,4,8
49961,-8e-05,0.00017,-1e-05,-0.00071,-0.00075,-0.00035,3e-05,-4e-05,4,8
49963,-8e-05,0.00017,-1e-05,-0.00071,-0.00075,-0.00035,3e-05,-4e-05,4,8
49964,-8e-05,0.00017,-1e-05,-0.00071,-0.00075,-0.00035,3e-05,-4e-05,4,8
49965,-8e-05,0.00017,-1e-05,-0.00071,-0.00075,-0.00035,3e-05,-4e-05,4,8
49966,-8e-05,0.00017,-1e-05,-0.00071,-0.00075,-0.00035,3e-05,-4e-05,4,8
49967,-8e-05,0.00017,-1e-05,-0.00071,-0.00075,-0.00035,3e-05,-4e-05,4,8
49968,-8e-05,0.00017,-1e-05,-0.00071,-0.00075,-0.00035,3e-05,-4e-05,4,8
49969,-8e-05,0.00017,-1e-05,-0.00071,-0.00075,-0.00035,3e-05,-4e-05,4,8
49970,-8e-05,0.00017,-1e-05,-0.00071,-0.00075,-0.00035,3e-05,-4e-05,4,8
49971,-8e-05,0.00017,-1e-05,-0.00071,-0.00075,-0.00035,3e-05,-4e-05,4,8
49972,-8e-05,0.00017,-1e-05,-0.00071,-0.00075,-0.00035,3e-05,-4e-05,4,8
49973,-8e-05,0.00017,-1e-05,-0.00071,-0.00075,-0.00035,3e-05,-4e-05,4,8
49974,-8e-05,0.00017,-1e-05,-0.00071,-0.00075,-0.00035,3e-05,-4e-05,4,8
49975,-8e-05,0.00017,-1e-05,-0.00071,-0.00075,-0.00035,3e-05,-4e-05,4,8
49976,-8e-05,0.00017,-1e-05,-0.00071,-0.00075,-0.00035,3e-05,-4e-05,4,8
49977,-8e-05,0.00017,-1e-05,-0.00071,-0.00075,-0.00035,3e-05,-4e-05,4,8
49978,-8e-05,0.00017,-1e-05,-0.00071,-0.00075,-0.00035,3e-05,-4e-05,4,8
49979,-8e-05,0.00017,-1e-05,-0.00071,-0.00075,-0.00035,3e-05,-4e-05,4,8
49980,-8e-05,0.00017,-1e-05,-0.00071,-0.00075,-0.00035,3e-05,-4e-05,4,8
49981,0.00024,-0.00016,0.00071,0.00075,-1e-05,0.00073,0.00014,0.00012,4,8
49982,-6e-05,-0.00039,-0.00086,-0.00088,-0.00064,-1e-05,2e-05,0,4,8
49983,-6e-05,-0.00039,-0.00086,-0.00088,-0.00064,-1e-05,2e-05,0,4,8
49984,-6e-05,-0.00039,-0.00086,-0.00088,-0.00064,-1e-05,2e-05,0,4,8
49985,-6e-05,-0.00039,-0.00086,-0.00088,-0.00064,-1e-05,2e-05,0,4,8
49987,-6e-05,-0.00039,-0.00086,-0.00088,-0.00064,-1e-05,2e-05,0,4,8
49990,-6e-05,-0.00039,-0.00086,-0.00088,-0.00064,-1e-05,2e-05,0,4,8
49991,-6e-05,-0.00039,-0.00086,-0.00088,-0.00064,-1e-05,2e-05,0,4,8
49992,-6e-05,-0.00039,-0.00086,-0.00088,-0.00064,-1e-05,2e-05,0,4,8
49993,-6e-05,-0.00039,-0.00086,-0.00088,-0.00064,-1e-05,2e-05,0,4,8
49994,-6e-05,-0.00039,-0.00086,-0.00088,-0.00064,-1e-05,2e-05,0,4,8
49995,-6e-05,-0.00039,-0.00086,-0.00088,-0.00064,-1e-05,2e-05,0,4,8
49996,0.0001,-0.00064,0.00023,0.00085,-0.00042,0.00071,0.00053,0.00019,4,8
49997,0.0001,-0.00064,0.00023,0.00085,-0.00042,0.00071,0.00053,0.00019,4,8
49998,0.0001,-0.00064,0.00023,0.00085,-0.00042,0.00071,0.00053,0.00019,4,8
49999,0.0001,-0.00064,0.00023,0.00085,-0.00042,0.00071,0.00053,0.00019,4,8
50000,0.0001,-0.00064,0.00023,0.00085,-0.00042,0.00071,0.00053,0.00019,4,8
50001,0.0001,-0.00064,0.00023,0.00085,-0.00042,0.00071,0.00053,0.00019,4,8
50002,0.0001,-0.00064,0.00023,0.00085,-0.00042,0.00071,0.00053,0.00019,4,8
50003,0.0001,-0.00064,0.00023,0.00085,-0.00042,0.00071,0.00053,0.00019,4,8
50004,8e-05,0.00012,0.00022,0.00074,0.0004,0.00072,0.00029,0.00014,4,8
50005,8e-05,0.00012,0.00022,0.00074,0.0004,0.00072,0.00029,0.00014,4,8
50006,8e-05,0.00012,0.00022,0.00074,0.0004,0.00072,0.00029,0.00014,4,8
50007,8e-05,0.00012,0.00022,0.00074,0.0004,0.00072,0.00029,0.00014,4,8
50008,8e-05,0.00012,0.00022,0.00074,0.0004,0.00072,0.00029,0.00014,4,8
50009,8e-05,0.00012,0.00022,0.00074,0.0004,0.00072,0.00029,0.00014,4,8
50010,8e-05,0.00012,0.00022,0.00074,0.0004,0.00072,0.00029,0.00014,4,8
50011,8e-05,0.00012,0.00022,0.00074,0.0004,0.00072,0.00029,0.00014,4,8
50012,8e-05,0.00012,0.00022,0.00074,0.0004,0.00072,0.00029,0.00014,4,8
50013,8e-05,0.00012,0.00022,0.00074,0.0004,0.00072,0.00029,0.00014,4,8
50014,8e-05,0.00012,0.00022,0.00074,0.0004,0.00072,0.00029,0.00014,4,8
50015,8e-05,0.00012,0.00022,0.00074,0.0004,0.00072,0.00029,0.00014,4,8
50016,8e-05,0.00012,0.00022,0.00074,0.0004,0.00072,0.00029,0.00014,4,8
50017,8e-05,0.00012,0.00022,0.00074,0.0004,0.00072,0.00029,0.00014,4,8
50018,8e-05,0.00012,0.00022,0.00074,0.0004,0.00072,0.00029,0.00014,4,8
50019,-8e-05,0.00011,-7e-05,-0.00087,0.00056,-0.00032,-8e-05,-0.00011,4,8
50020,5e-05,0.00039,0.00057,0.00038,0.00045,-0.00033,-7e-05,6e-05,4,8
50021,5e-05,0.00039,0.00057,0.00038,0.00045,-0.00033,-7e-05,6e-05,4,8
50022,5e-05,0.00039,0.00057,0.00038,0.00045,-0.00033,-7e-05,6e-05,4,8
50023,5e-05,0.00039,0.00057,0.00038,0.00045,-0.00033,-7e-05,6e-05,4,8
50024,5e-05,0.00039,0.00057,0.00038,0.00045,-0.00033,-7e-05,6e-05,4,8
50025,5e-05,0.00039,0.00057,0.00038,0.00045,-0.00033,-7e-05,6e-05,4,8
50026,5e-05,0.00039,0.00057,0.00038,0.00045,-0.00033,-7e-05,6e-05,4,8
50027,5e-05,0.00039,0.00057,0.00038,0.00045,-0.00033,-7e-05,6e-05,4,8
50028,5e-05,0.00039,0.00057,0.00038,0.00045,-0.00033,-7e-05,6e-05,4,8
50029,5e-05,0.00039,0.00057,0.00038,0.00045,-0.00033,-7e-05,6e-05,4,8
50030,5e-05,0.00039,0.00057,0.00038,0.00045,-0.00033,-7e-05,6e-05,4,8
50031,5e-05,0.00039,0.00057,0.00038,0.00045,-0.00033,-7e-05,6e-05,4,8
50033,5e-05,0.00039,0.00057,0.00038,0.00045,-0.00033,-7e-05,6e-05,4,8
50034,5e-05,0.00039,0.00057,0.00038,0.00045,-0.00033,-7e-05,6e-05,4,8
50035,5e-05,0.00039,0.00057,0.00038,0.00045,-0.00033,-7e-05,6e-05,4,8
50045,0,-0.00037,-0.00035,-0.00075,-0.00054,-0.00068,-0.00018,-9e-05,4,8
50046,0,-0.00037,-0.00035,-0.00075,-0.00054,-0.00068,-0.00018,-9e-05,4,8
50047,0,-0.00037,-0.00035,-0.00075,-0.00054,-0.00068,-0.00018,-9e-05,4,8
50048,0,-0.00037,-0.00035,-0.00075,-0.00054,-0.00068,-0.00018,-9e-05,4,8
50049,0,-0.00037,-0.00035,-0.00075,-0.00054,-0.00068,-0.00018,-9e-05,4,8
50050,0,-0.00037,-0.00035,-0.00075,-0.00054,-0.00068,-0.00018,-9e-05,4,8
50051,0,-0.00037,-0.00035,-0.00075,-0.00054,-0.00068,-0.00018,-9e-05,4,8
50052,0,-0.00037,-0.00035,-0.00075,-0.00054,-0.00068,-0.00018,-9e-05,4,8
50053,0,-0.00037,-0.00035,-0.00075,-0.00054,-0.00068,-0.00018,-9e-05,4,8
50054,0,-0.00037,-0.00035,-0.00075,-0.00054,-0.00068,-0.00018,-9e-05,4,8
50055,0,-0.00037,-0.00035,-0.00075,-0.00054,-0.00068,-0.00018,-9e-05,4,8
50056,0.00015,-0.00014,0.00056,-6e-05,-0.00062,0.00048,0,3e-05,4,8
