24358,-1e-05,0,7e-05,-0.00031,-0.00042,-0.00018,4e-05,-1e-05,5,1
24359,-1e-05,0,7e-05,-0.00031,-0.00042,-0.00018,4e-05,-1e-05,5,1
24360,-1e-05,0,7e-05,-0.00031,-0.00042,-0.00018,4e-05,-1e-05,5,1
24361,-1e-05,0,7e-05,-0.00031,-0.00042,-0.00018,4e-05,-1e-05,5,1
24362,-1e-05,0,7e-05,-0.00031,-0.00042,-0.00018,4e-05,-1e-05,5,1
24363,-1e-05,0,7e-05,-0.00031,-0.00042,-0.00018,4e-05,-1e-05,5,1
24364,-1e-05,0,7e-05,-0.00031,-0.00042,-0.00018,4e-05,-1e-05,5,1
24365,-1e-05,0,7e-05,-0.00031,-0.00042,-0.00018,4e-05,-1e-05,5,1
24366,-1e-05,0,7e-05,-0.00031,-0.00042,-0.00018,4e-05,-1e-05,5,1
24367,-1e-05,0,7e-05,-0.00031,-0.00042,-0.00018,4e-05,-1e-05,5,1
24368,-1e-05,0,7e-05,-0.00031,-0.00042,-0.00018,4e-05,-1e-05,5,1
24369,2e-05,-0.00012,-0.00014,-0.00023,-0.00017,2e-05,0.00015,7e-05,5,1
24370,2e-05,-0.00012,-0.00014,-0.00023,-0.00017,2e-05,0.00015,7e-05,5,1
24371,2e-05,-0.00012,-0.00014,-0.00023,-0.00017,2e-05,0.00015,7e-05,5,1
24372,2e-05,-0.00012,-0.00014,-0.00023,-0.00017,2e-05,0.00015,7e-05,5,1
24373,2e-05,-0.00012,-0.00014,-0.00023,-0.00017,2e-05,0.00015,7e-05,5,1
24374,2e-05,-0.00012,-0.00014,-0.00023,-0.00017,2e-05,0.00015,7e-05,5,1
24375,2e-05,-0.00012,-0.00014,-0.00023,-0.00017,2e-05,0.00015,7e-05,5,1
24376,2e-05,-0.00012,-0.00014,-0.00023,-0.00017,2e-05,0.00015,7e-05,5,1
24377,2e-05,-0.00012,-0.00014,-0.00023,-0.00017,2e-05,0.00015,7e-05,5,1
24378,2e-05,-0.00012,-0.00014,-0.00023,-0.00017,2e-05,0.00015,7e-05,5,1
24379,2e-05,-0.00012,-0.00014,-0.00023,-0.00017,2e-05,0.00015,7e-05,5,1
24380,2e-05,-0.00012,-0.00014,-0.00023,-0.00017,2e-05,0.00015,7e-05,5,1
24381,2e-05,-0.00012,-0.00014,-0.00023,-0.00017,2e-05,0.00015,7e-05,5,1
24382,2e-05,-0.00012,-0.00014,-0.00023,-0.00017,2e-05,0.00015,7e-05,5,1
24383,2e-05,-0.00012,-0.00014,-0.00023,-0.00017,2e-05,0.00015,7e-05,5,1
24384,2e-05,-0.00012,-0.00014,-0.00023,-0.00017,2e-05,0.00015,7e-05,5,1
24385,2e-05,-0.00012,-0.00014,-0.00023,-0.00017,2e-05,0.00015,7e-05,5,1
24386,2e-05,-0.00012,-0.00014,-0.00023,-0.00017,2e-05,0.00015,7e-05,5,1
24388,2e-05,-0.00012,-0.00014,-0.00023,-0.00017,2e-05,0.00015,7e-05,5,1
24390,2e-05,-0.00012,-0.00014,-0.00023,-0.00017,2e-05,0.00015,7e-05,5,1
24391,2e-05,-0.00012,-0.00014,-0.00023,-0.00017,2e-05,0.00015,7e-05,5,1
24392,2e-05,-0.00012,-0.00014,-0.00023,-0.00017,2e-05,0.00015,7e-05,5,1
24393,2e-05,-0.00012,-0.00014,-0.00023,-0.00017,2e-05,0.00015,7e-05,5,1
24394,-8e-05,-0.00038,-0.00015,0.00021,-0.00014,1e-05,4e-05,4e-05,5,1
24395,-8e-05,-0.00038,-0.00015,0.00021,-0.00014,1e-05,4e-05,4e-05,5,1
24396,-0.00011,-0.00016,-0.00017,4e-05,0.00016,-0.00014,-0.00012,-0.00012,5,1
24397,-0.00011,-0.00016,-0.00017,4e-05,0.00016,-0.00014,-0.00012,-0.00012,5,1
24398,-0.00011,-0.00016,-0.00017,4e-05,0.00016,-0.00014,-0.00012,-0.00012,5,1
24399,-0.00011,-0.00016,-0.00017,4e-05,0.00016,-0.00014,-0.00012,-0.00012,5,1
24400,-0.00011,-0.00016,-0.00017,4e-05,0.00016,-0.00014,-0.00012,-0.00012,5,1
24401,-0.00011,-0.00016,-0.00017,4e-05,0.00016,-0.00014,-0.00012,-0.00012,5,1
24402,-0.00011,-0.00016,-0.00017,4e-05,0.00016,-0.00014,-0.00012,-0.00012,5,1
24403,-0.00011,-0.00016,-0.00017,4e-05,0.00016,-0.00014,-0.00012,-0.00012,5,1
24404,-0.00011,-0.00016,-0.00017,4e-05,0.00016,-0.00014,-0.00012,-0.00012,5,1
24405,-0.00011,-0.00016,-0.00017,4e-05,0.00016,-0.00014,-0.00012,-0.00012,5,1
24406,-0.00011,-0.00016,-0.00017,4e-05,0.00016,-0.00014,-0.00012,-0.00012,5,1
24407,-0.00011,-0.00016,-0.00017,4e-05,0.00016,-0.00014,-0.00012,-0.00012,5,1
24408,-0.00011,-0.00016,-0.00017,4e-05,0.00016,-0.00014,-0.00012,-0.00012,5,1
24409,-0.00011,-0.00016,-0.00017,4e-05,0.00016,-0.00014,-0.00012,-0.00012,5,1
24410,-0.00011,-0.00016,-0.00017,4e-05,0.00016,-0.00014,-0.00012,-0.00012,5,1
24411,-0.00011,-0.00016,-0.00017,4e-05,0.00016,-0.00014,-0.00012,-0.00012,5,1
24412,-0.00011,-0.00016,-0.00017,4e-05,0.00016,-0.00014,-0.00012,-0.00012,5,1
24413,-0.00011,-0.00016,-0.00017,4e-05,0.00016,-0.00014,-0.00012,-0.00012,5,1
24414,-0.00011,-0.00016,-0.00017,4e-05,0.00016,-0.00014,-0.00012,-0.00012,5,1
24415,8e-05,-0.00013,7e-05,0.00036,0.0005,0.00017,4e-05,1e-05,5,1
24416,8e-05,-0.00013,7e-05,0.00036,0.0005,0.00017,4e-05,1e-05,5,1
24417,-5e-05,-0.00011,-0.00015,-0.00028,2e-05,-5e-05,0,2e-05,5,1
24418,-5e-05,-0.00011,-0.00015,-0.00028,2e-05,-5e-05,0,2e-05,5,1
24419,-5e-05,-0.00011,-0.00015,-0.00028,2e-05,-5e-05,0,2e-05,5,1
24420,-5e-05,-0.00011,-0.00015,-0.00028,2e-05,-5e-05,0,2e-05,5,1
24421,-5e-05,-0.00011,-0.00015,-0.00028,2e-05,-5e-05,0,2e-05,5,1
24422,-5e-05,-0.00011,-0.00015,-0.00028,2e-05,-5e-05,0,2e-05,5,1
24423,-5e-05,-0.00011,-0.00015,-0.00028,2e-05,-5e-05,0,2e-05,5,1
24424,-5e-05,-0.00011,-0.00015,-0.00028,2e-05,-5e-05,0,2e-05,5,1
24425,-5e-05,-0.00011,-0.00015,-0.00028,2e-05,-5e-05,0,2e-05,5,1
24426,-5e-05,-0.00011,-0.00015,-0.00028,2e-05,-5e-05,0,2e-05,5,1
24427,-5e-05,-0.00011,-0.00015,-0.00028,2e-05,-5e-05,0,2e-05,5,1
24428,-5e-05,-0.00011,-0.00015,-0.00028,2e-05,-5e-05,0,2e-05,5,1
24429,-5e-05,0.00023,0.00028,0.00049,0.00056,7e-05,0,-4e-05,5,1
24430,-5e-05,0.00023,0.00028,0.00049,0.00056,7e-05,0,-4e-05,5,1
24431,-5e-05,0.00023,0.00028,0.00049,0.00056,7e-05,0,-4e-05,5,1
24432,-5e-05,0.00023,0.00028,0.00049,0.00056,7e-05,0,-4e-05,5,1
24433,-5e-05,0.00023,0.00028,0.00049,0.00056,7e-05,0,-4e-05,5,1
24434,-5e-05,0.00023,0.00028,0.00049,0.00056,7e-05,0,-4e-05,5,1
24435,-5e-05,0.00023,0.00028,0.00049,0.00056,7e-05,0,-4e-05,5,1
24436,-5e-05,0.00023,0.00028,0.00049,0.00056,7e-05,0,-4e-05,5,1
24438,-5e-05,0.00023,0.00028,0.00049,0.00056,7e-05,0,-4e-05,5,1
24439,-5e-05,0.00023,0.00028,0.00049,0.00056,7e-05,0,-4e-05,5,1
24440,-5e-05,0.00023,0.00028,0.00049,0.00056,7e-05,0,-4e-05,5,1
24441,-5e-05,0.00023,0.00028,0.00049,0.00056,7e-05,0,-4e-05,5,1
24442,-5e-05,0.00023,0.00028,0.00049,0.00056,7e-05,0,-4e-05,5,1
24443,-5e-05,0.00023,0.00028,0.00049,0.00056,7e-05,0,-4e-05,5,1
24444,-5e-05,0.00023,0.00028,0.00049,0.00056,7e-05,0,-4e-05,5,1
24445,-5e-05,-3e-05,-4e-05,0.00015,0.00034,2e-05,-0.00012,-0.00012,5,1
24446,-5e-05,-3e-05,-4e-05,0.00015,0.00034,2e-05,-0.00012,-0.00012,5,1
24447,-5e-05,-3e-05,-4e-05,0.00015,0.00034,2e-05,-0.00012,-0.00012,5,1
24448,-5e-05,-3e-05,-4e-05,0.00015,0.00034,2e-05,-0.00012,-0.00012,5,1
24449,-5e-05,-3e-05,-4e-05,0.00015,0.00034,2e-05,-0.00012,-0.00012,5,1
24450,-5e-05,-3e-05,-4e-05,0.00015,0.00034,2e-05,-0.00012,-0.00012,5,1
24451,-5e-05,-3e-05,-4e-05,0.00015,0.00034,2e-05,-0.00012,-0.00012,5,1
24452,-5e-05,-3e-05,-4e-05,0.00015,0.00034,2e-05,-0.00012,-0.00012,5,1
24453,-3e-05,-3e-05,5e-05,-0.00015,-0.00041,-0.00022,6e-05,-2e-05,5,1
24454,-3e-05,-3e-05,5e-05,-0.00015,-0.00041,-0.00022,6e-05,-2e-05,5,1
24455,-3e-05,-3e-05,5e-05,-0.00015,-0.00041,-0.00022,6e-05,-2e-05,5,1
24456,-3e-05,-3e-05,5e-05,-0.00015,-0.00041,-0.00022,6e-05,-2e-05,5,1
24457,-3e-05,-3e-05,5e-05,-0.00015,-0.00041,-0.00022,6e-05,-2e-05,5,1
24458,-3e-05,-3e-05,5e-05,-0.00015,-0.00041,-0.00022,6e-05,-2e-05,5,1
24459,7e-05,0.00017,0.0002,-0.00038,-0.00066,-0.00024,-7e-05,2e-05,5,1
24460,7e-05,0.00017,0.0002,-0.00038,-0.00066,-0.00024,-7e-05,2e-05,5,1
24461,7e-05,0.00017,0.0002,-0.00038,-0.00066,-0.00024,-7e-05,2e-05,5,1
24462,7e-05,0.00017,0.0002,-0.00038,-0.00066,-0.00024,-7e-05,2e-05,5,1
24463,7e-05,0.00017,0.0002,-0.00038,-0.00066,-0.00024,-7e-05,2e-05,5,1
24464,7e-05,0.00017,0.0002,-0.00038,-0.00066,-0.00024,-7e-05,2e-05,5,1
24465,7e-05,0.00017,0.0002,-0.00038,-0.00066,-0.00024,-7e-05,2e-05,5,1
24466,7e-05,0.00017,0.0002,-0.00038,-0.00066,-0.00024,-7e-05,2e-05,5,1
24467,7e-05,0.00017,0.0002,-0.00038,-0.00066,-0.00024,-7e-05,2e-05,5,1
24468,7e-05,0.00017,0.0002,-0.00038,-0.00066,-0.00024,-7e-05,2e-05,5,1
24470,7e-05,0.00017,0.0002,-0.00038,-0.00066,-0.00024,-7e-05,2e-05,5,1
24471,7e-05,0.00017,0.0002,-0.00038,-0.00066,-0.00024,-7e-05,2e-05,5,1
24472,7e-05,0.00017,0.0002,-0.00038,-0.00066,-0.00024,-7e-05,2e-05,5,1
24473,7e-05,0.00017,0.0002,-0.00038,-0.00066,-0.00024,-7e-05,2e-05,5,1
24474,7e-05,0.00017,0.0002,-0.00038,-0.00066,-0.00024,-7e-05,2e-05,5,1
24475,-2e-05,-6e-05,-0.00025,-0.00031,0,0.00015,5e-05,1e-05,5,1
24476,-2e-05,-6e-05,-0.00025,-0.00031,0,0.00015,5e-05,1e-05,5,1
24477,5e-05,0.0001,0.00025,-4e-05,-0.0002,-0.00012,-2e-05,7e-05,5,1
24478,5e-05,0.0001,0.00025,-4e-05,-0.0002,-0.00012,-2e-05,7e-05,5,1
24479,5e-05,0.0001,0.00025,-4e-05,-0.0002,-0.00012,-2e-05,7e-05,5,1
24480,5e-05,0.0001,0.00025,-4e-05,-0.0002,-0.00012,-2e-05,7e-05,5,1
24481,5e-05,0.0001,0.00025,-4e-05,-0.0002,-0.00012,-2e-05,7e-05,5,1
24482,5e-05,0.0001,0.00025,-4e-05,-0.0002,-0.00012,-2e-05,7e-05,5,1
24483,5e-05,0.0001,0.00025,-4e-05,-0.0002,-0.00012,-2e-05,7e-05,5,1
24484,5e-05,0.0001,0.00025,-4e-05,-0.0002,-0.00012,-2e-05,7e-05,5,1
24485,5e-05,0.0001,0.00025,-4e-05,-0.0002,-0.00012,-2e-05,7e-05,5,1
24486,5e-05,0.0001,0.00025,-4e-05,-0.0002,-0.00012,-2e-05,7e-05,5,1
24489,5e-05,0.0001,0.00025,-4e-05,-0.0002,-0.00012,-2e-05,7e-05,5,1
24490,5e-05,0.0001,0.00025,-4e-05,-0.0002,-0.00012,-2e-05,7e-05,5,1
24491,5e-05,0.0001,0.00025,-4e-05,-0.0002,-0.00012,-2e-05,7e-05,5,1
24492,5e-05,0.0001,0.00025,-4e-05,-0.0002,-0.00012,-2e-05,7e-05,5,1
24493,5e-05,0.0001,0.00025,-4e-05,-0.0002,-0.00012,-2e-05,7e-05,5,1
24494,5e-05,0.0001,0.00025,-4e-05,-0.0002,-0.00012,-2e-05,7e-05,5,1
24495,5e-05,0.0001,0.00025,-4e-05,-0.0002,-0.00012,-2e-05,7e-05,5,1
24496,5e-05,0.0001,0.00025,-4e-05,-0.0002,-0.00012,-2e-05,7e-05,5,1
24497,5e-05,0.0001,0.00025,-4e-05,-0.0002,-0.00012,-2e-05,7e-05,5,1
24498,-4e-05,-4e-05,-0.00033,-0.00034,-0.00024,-0.00032,-0.00015,-0.0001,5,1
24499,-0.00011,-0.00027,-0.00021,-0.00015,-0.00022,0.00022,9e-05,2e-05,5,1
24500,-0.00011,-0.00027,-0.00021,-0.00015,-0.00022,0.00022,9e-05,2e-05,5,1
24501,-0.00011,-0.00027,-0.00021,-0.00015,-0.00022,0.00022,9e-05,2e-05,5,1
24502,-0.00011,-0.00027,-0.00021,-0.00015,-0.00022,0.00022,9e-05,2e-05,5,1
24503,-0.00011,-0.00027,-0.00021,-0.00015,-0.00022,0.00022,9e-05,2e-05,5,1
24504,-0.00011,-0.00027,-0.00021,-0.00015,-0.00022,0.00022,9e-05,2e-05,5,1
24505,-0.00011,-0.00027,-0.00021,-0.00015,-0.00022,0.00022,9e-05,2e-05,5,1
24506,-0.00011,-0.00027,-0.00021,-0.00015,-0.00022,0.00022,9e-05,2e-05,5,1
24507,-0.00011,-0.00027,-0.00021,-0.00015,-0.00022,0.00022,9e-05,2e-05,5,1
24508,-0.00011,-0.00027,-0.00021,-0.00015,-0.00022,0.00022,9e-05,2e-05,5,1
24509,-0.00011,-0.00027,-0.00021,-0.00015,-0.00022,0.00022,9e-05,2e-05,5,1
24510,-0.00011,-0.00027,-0.00021,-0.00015,-0.00022,0.00022,9e-05,2e-05,5,1
24511,-0.00011,-0.00027,-0.00021,-0.00015,-0.00022,0.00022,9e-05,2e-05,5,1
24512,-0.00011,-0.00027,-0.00021,-0.00015,-0.00022,0.00022,9e-05,2e-05,5,1
24513,-0.00011,-0.00027,-0.00021,-0.00015,-0.00022,0.00022,9e-05,2e-05,5,1
24514,-0.00011,-0.00027,-0.00021,-0.00015,-0.00022,0.00022,9e-05,2e-05,5,1
24515,-0.00011,-0.00027,-0.00021,-0.00015,-0.00022,0.00022,9e-05,2e-05,5,1
24516,-0.00011,-0.00027,-0.00021,-0.00015,-0.00022,0.00022,9e-05,2e-05,5,1
24517,-0.00011,-0.00027,-0.00021,-0.00015,-0.00022,0.00022,9e-05,2e-05,5,1
24518,-0.00011,-0.00027,-0.00021,-0.00015,-0.00022,0.00022,9e-05,2e-05,5,1
24519,-0.00011,-0.00027,-0.00021,-0.00015,-0.00022,0.00022,9e-05,2e-05,5,1
24520,2e-05,0.00018,0.00034,9e-05,-6e-05,-0.00015,-6e-05,-4e-05,5,1
24521,2e-05,0.00018,0.00034,9e-05,-6e-05,-0.00015,-6e-05,-4e-05,5,1
24522,1e-05,7e-05,0.00026,0.00019,-0.00023,-0.00035,-0.00013,-3e-05,5,1
24523,1e-05,7e-05,0.00026,0.00019,-0.00023,-0.00035,-0.00013,-3e-05,5,1
24524,1e-05,7e-05,0.00026,0.00019,-0.00023,-0.00035,-0.00013,-3e-05,5,1
24525,1e-05,7e-05,0.00026,0.00019,-0.00023,-0.00035,-0.00013,-3e-05,5,1
24526,1e-05,7e-05,0.00026,0.00019,-0.00023,-0.00035,-0.00013,-3e-05,5,1
24527,1e-05,7e-05,0.00026,0.00019,-0.00023,-0.00035,-0.00013,-3e-05,5,1
24528,1e-05,7e-05,0.00026,0.00019,-0.00023,-0.00035,-0.00013,-3e-05,5,1
24529,1e-05,7e-05,0.00026,0.00019,-0.00023,-0.00035,-0.00013,-3e-05,5,1
24530,1e-05,7e-05,0.00026,0.00019,-0.00023,-0.00035,-0.00013,-3e-05,5,1
24531,1e-05,7e-05,0.00026,0.00019,-0.00023,-0.00035,-0.00013,-3e-05,5,1
24532,1e-05,7e-05,0.00026,0.00019,-0.00023,-0.00035,-0.00013,-3e-05,5,1
24533,1e-05,7e-05,0.00026,0.00019,-0.00023,-0.00035,-0.00013,-3e-05,5,1
24534,1e-05,7e-05,0.00026,0.00019,-0.00023,-0.00035,-0.00013,-3e-05,5,1
24535,1e-05,-5e-05,-0.00012,-0.00027,-0.0003,-0.00024,-3e-05,2e-05,5,1
24537,4e-05,6e-05,0.00018,0.00014,-0.00036,-0.00024,-4e-05,-3e-05,5,1
24539,4e-05,6e-05,0.00018,0.00014,-0.00036,-0.00024,-4e-05,-3e-05,5,1
24540,4e-05,6e-05,0.00018,0.00014,-0.00036,-0.00024,-4e-05,-3e-05,5,1
24541,4e-05,6e-05,0.00018,0.00014,-0.00036,-0.00024,-4e-05,-3e-05,5,1
24542,4e-05,6e-05,0.00018,0.00014,-0.00036,-0.00024,-4e-05,-3e-05,5,1
24543,4e-05,6e-05,0.00018,0.00014,-0.00036,-0.00024,-4e-05,-3e-05,5,1
24544,4e-05,6e-05,0.00018,0.00014,-0.00036,-0.00024,-4e-05,-3e-05,5,1
24545,4e-05,6e-05,0.00018,0.00014,-0.00036,-0.00024,-4e-05,-3e-05,5,1
24546,4e-05,6e-05,0.00018,0.00014,-0.00036,-0.00024,-4e-05,-3e-05,5,1
24547,4e-05,6e-05,0.00018,0.00014,-0.00036,-0.00024,-4e-05,-3e-05,5,1
24548,4e-05,6e-05,0.00018,0.00014,-0.00036,-0.00024,-4e-05,-3e-05,5,1
24549,4e-05,6e-05,0.00018,0.00014,-0.00036,-0.00024,-4e-05,-3e-05,5,1
24550,4e-05,6e-05,0.00018,0.00014,-0.00036,-0.00024,-4e-05,-3e-05,5,1
24551,4e-05,6e-05,0.00018,0.00014,-0.00036,-0.00024,-4e-05,-3e-05,5,1
24552,4e-05,6e-05,0.00018,0.00014,-0.00036,-0.00024,-4e-05,-3e-05,5,1
24553,4e-05,6e-05,0.00018,0.00014,-0.00036,-0.00024,-4e-05,-3e-05,5,1
24554,4e-05,6e-05,0.00018,0.00014,-0.00036,-0.00024,-4e-05,-3e-05,5,1
24555,4e-05,6e-05,0.00018,0.00014,-0.00036,-0.00024,-4e-05,-3e-05,5,1
24556,4e-05,6e-05,0.00018,0.00014,-0.00036,-0.00024,-4e-05,-3e-05,5,1
24557,4e-05,6e-05,0.00018,0.00014,-0.00036,-0.00024,-4e-05,-3e-05,5,1
24558,4e-05,6e-05,0.00018,0.00014,-0.00036,-0.00024,-4e-05,-3e-05,5,1
24559,4e-05,6e-05,0.00018,0.00014,-0.00036,-0.00024,-4e-05,-3e-05,5,1
24560,4e-05,6e-05,0.00018,0.00014,-0.00036,-0.00024,-4e-05,-3e-05,5,1
24561,4e-05,6e-05,0.00018,0.00014,-0.00036,-0.00024,-4e-05,-3e-05,5,1
24562,4e-05,6e-05,0.00018,0.00014,-0.00036,-0.00024,-4e-05,-3e-05,5,1
24564,4e-05,6e-05,0.00018,0.00014,-0.00036,-0.00024,-4e-05,-3e-05,5,1
24565,4e-05,6e-05,0.00018,0.00014,-0.00036,-0.00024,-4e-05,-3e-05,5,1
24566,4e-05,6e-05,0.00018,0.00014,-0.00036,-0.00024,-4e-05,-3e-05,5,1
24567,4e-05,6e-05,0.00018,0.00014,-0.00036,-0.00024,-4e-05,-3e-05,5,1
24568,4e-05,6e-05,0.00018,0.00014,-0.00036,-0.00024,-4e-05,-3e-05,5,1
24569,4e-05,6e-05,0.00018,0.00014,-0.00036,-0.00024,-4e-05,-3e-05,5,1
24570,4e-05,6e-05,0.00018,0.00014,-0.00036,-0.00024,-4e-05,-3e-05,5,1
24571,4e-05,6e-05,0.00018,0.00014,-0.00036,-0.00024,-4e-05,-3e-05,5,1
24572,4e-05,6e-05,0.00018,0.00014,-0.00036,-0.00024,-4e-05,-3e-05,5,1
24573,4e-05,6e-05,0.00018,0.00014,-0.00036,-0.00024,-4e-05,-3e-05,5,1
24574,3e-05,-5e-05,-0.00015,-0.0003,-0.00033,1e-05,-1e-05,4e-05,5,1
24575,3e-05,-5e-05,-0.00015,-0.0003,-0.00033,1e-05,-1e-05,4e-05,5,1
24576,-7e-05,-6e-05,-4e-05,-0.0002,-5e-05,0.0002,7e-05,-3e-05,5,1
24577,-2e-05,1e-05,0.00011,-4e-05,-0.00013,-0.00014,-2e-05,-1e-05,5,1
24578,0,0.0001,-9e-05,-0.0001,0.00024,3e-05,2e-05,1e-05,5,1
24579,0,0.0001,-9e-05,-0.0001,0.00024,3e-05,2e-05,1e-05,5,1
24580,0,0.0001,-9e-05,-0.0001,0.00024,3e-05,2e-05,1e-05,5,1
24581,0,0.0001,-9e-05,-0.0001,0.00024,3e-05,2e-05,1e-05,5,1
24582,0,0.0001,-9e-05,-0.0001,0.00024,3e-05,2e-05,1e-05,5,1
24583,0,0.0001,-9e-05,-0.0001,0.00024,3e-05,2e-05,1e-05,5,1
24584,0,0.0001,-9e-05,-0.0001,0.00024,3e-05,2e-05,1e-05,5,1
24585,0,0.0001,-9e-05,-0.0001,0.00024,3e-05,2e-05,1e-05,5,1
24586,0,0.0001,-9e-05,-0.0001,0.00024,3e-05,2e-05,1e-05,5,1
24588,0,0.0001,-9e-05,-0.0001,0.00024,3e-05,2e-05,1e-05,5,1
24589,0,0.0001,-9e-05,-0.0001,0.00024,3e-05,2e-05,1e-05,5,1
24590,0,0.0001,-9e-05,-0.0001,0.00024,3e-05,2e-05,1e-05,5,1
24591,0,0.0001,-9e-05,-0.0001,0.00024,3e-05,2e-05,1e-05,5,1
24592,0,0.0001,-9e-05,-0.0001,0.00024,3e-05,2e-05,1e-05,5,1
24593,0,0.0001,-9e-05,-0.0001,0.00024,3e-05,2e-05,1e-05,5,1
24594,0,0.0001,-9e-05,-0.0001,0.00024,3e-05,2e-05,1e-05,5,1
24595,0,0.0001,-9e-05,-0.0001,0.00024,3e-05,2e-05,1e-05,5,1
24596,0,0.0001,-9e-05,-0.0001,0.00024,3e-05,2e-05,1e-05,5,1
24597,4e-05,7e-05,0.00018,0.00043,0.00065,0.00024,0.00015,9e-05,5,1
24598,-5e-05,-7e-05,-1e-05,0.00051,0.00033,-6e-05,4e-05,-3e-05,5,1
24599,-5e-05,-7e-05,-1e-05,0.00051,0.00033,-6e-05,4e-05,-3e-05,5,1
24600,-5e-05,-7e-05,-1e-05,0.00051,0.00033,-6e-05,4e-05,-3e-05,5,1
24601,-6e-05,-0.00018,-0.00047,-0.00028,-0.00013,-0.00029,-0.00015,-7e-05,5,1
24602,-6e-05,-0.00018,-0.00047,-0.00028,-0.00013,-0.00029,-0.00015,-7e-05,5,1
24603,-6e-05,-0.00018,-0.00047,-0.00028,-0.00013,-0.00029,-0.00015,-7e-05,5,1
24604,-6e-05,-0.00018,-0.00047,-0.00028,-0.00013,-0.00029,-0.00015,-7e-05,5,1
24605,-6e-05,-0.00018,-0.00047,-0.00028,-0.00013,-0.00029,-0.00015,-7e-05,5,1
24606,-6e-05,-0.00018,-0.00047,-0.00028,-0.00013,-0.00029,-0.00015,-7e-05,5,1
24607,-6e-05,-0.00018,-0.00047,-0.00028,-0.00013,-0.00029,-0.00015,-7e-05,5,1
24608,-6e-05,-0.00018,-0.00047,-0.00028,-0.00013,-0.00029,-0.00015,-7e-05,5,1
24609,-6e-05,-0.00018,-0.00047,-0.00028,-0.00013,-0.00029,-0.00015,-7e-05,5,1
24610,-6e-05,-0.00018,-0.00047,-0.00028,-0.00013,-0.00029,-0.00015,-7e-05,5,1
24611,-6e-05,-0.00018,-0.00047,-0.00028,-0.00013,-0.00029,-0.00015,-7e-05,5,1
24612,-6e-05,-0.00018,-0.00047,-0.00028,-0.00013,-0.00029,-0.00015,-7e-05,5,1
24613,-6e-05,-0.00018,-0.00047,-0.00028,-0.00013,-0.00029,-0.00015,-7e-05,5,1
24614,-6e-05,-0.00018,-0.00047,-0.00028,-0.00013,-0.00029,-0.00015,-7e-05,5,1
24615,-6e-05,-0.00018,-0.00047,-0.00028,-0.00013,-0.00029,-0.00015,-7e-05,5,1
24616,-6e-05,-0.00018,-0.00047,-0.00028,-0.00013,-0.00029,-0.00015,-7e-05,5,1
24617,-6e-05,-0.00018,-0.00047,-0.00028,-0.00013,-0.00029,-0.00015,-7e-05,5,1
24618,-5e-05,-0.00025,-0.00014,-0.00049,-0.00045,6e-05,-3e-05,-1e-05,5,1
24619,-5e-05,-0.00025,-0.00014,-0.00049,-0.00045,6e-05,-3e-05,-1e-05,5,1
24620,-5e-05,-0.00025,-0.00014,-0.00049,-0.00045,6e-05,-3e-05,-1e-05,5,1
24621,-5e-05,-0.00025,-0.00014,-0.00049,-0.00045,6e-05,-3e-05,-1e-05,5,1
24622,-5e-05,-0.00025,-0.00014,-0.00049,-0.00045,6e-05,-3e-05,-1e-05,5,1
24623,-5e-05,-0.00025,-0.00014,-0.00049,-0.00045,6e-05,-3e-05,-1e-05,5,1
24624,-1e-05,3e-05,8e-05,0.0002,6e-05,-0.00018,2e-05,-5e-05,5,1
24625,-1e-05,3e-05,8e-05,0.0002,6e-05,-0.00018,2e-05,-5e-05,5,1
24626,-1e-05,3e-05,8e-05,0.0002,6e-05,-0.00018,2e-05,-5e-05,5,1
24627,-1e-05,3e-05,8e-05,0.0002,6e-05,-0.00018,2e-05,-5e-05,5,1
24628,-1e-05,3e-05,8e-05,0.0002,6e-05,-0.00018,2e-05,-5e-05,5,1
24629,-1e-05,3e-05,8e-05,0.0002,6e-05,-0.00018,2e-05,-5e-05,5,1
24630,-1e-05,3e-05,8e-05,0.0002,6e-05,-0.00018,2e-05,-5e-05,5,1
24631,-1e-05,3e-05,8e-05,0.0002,6e-05,-0.00018,2e-05,-5e-05,5,1
24632,-1e-05,3e-05,8e-05,0.0002,6e-05,-0.00018,2e-05,-5e-05,5,1
24633,-1e-05,6e-05,-3e-05,0.00021,0.00017,7e-05,-8e-05,-8e-05,5,1
24634,-9e-05,-0.00031,-0.00063,-0.00055,-9e-05,0.00017,5e-05,0,5,1
24635,-9e-05,-0.00031,-0.00063,-0.00055,-9e-05,0.00017,5e-05,0,5,1
24636,-9e-05,-0.00031,-0.00063,-0.00055,-9e-05,0.00017,5e-05,0,5,1
24638,-9e-05,-0.00031,-0.00063,-0.00055,-9e-05,0.00017,5e-05,0,5,1
24639,-9e-05,-0.00031,-0.00063,-0.00055,-9e-05,0.00017,5e-05,0,5,1
24640,-9e-05,-0.00031,-0.00063,-0.00055,-9e-05,0.00017,5e-05,0,5,1
24641,-9e-05,-0.00031,-0.00063,-0.00055,-9e-05,0.00017,5e-05,0,5,1
24642,-9e-05,-0.00031,-0.00063,-0.00055,-9e-05,0.00017,5e-05,0,5,1
24643,-9e-05,-0.00031,-0.00063,-0.00055,-9e-05,0.00017,5e-05,0,5,1
24644,-9e-05,-0.00031,-0.00063,-0.00055,-9e-05,0.00017,5e-05,0,5,1
24645,-9e-05,-0.00031,-0.00063,-0.00055,-9e-05,0.00017,5e-05,0,5,1
24646,-9e-05,-0.00031,-0.00063,-0.00055,-9e-05,0.00017,5e-05,0,5,1
24647,-9e-05,-0.00031,-0.00063,-0.00055,-9e-05,0.00017,5e-05,0,5,1
24648,-9e-05,-0.00031,-0.00063,-0.00055,-9e-05,0.00017,5e-05,0,5,1
24649,-9e-05,-0.00031,-0.00063,-0.00055,-9e-05,0.00017,5e-05,0,5,1
24650,-9e-05,-0.00031,-0.00063,-0.00055,-9e-05,0.00017,5e-05,0,5,1
24651,-9e-05,-0.00031,-0.00063,-0.00055,-9e-05,0.00017,5e-05,0,5,1
24652,-9e-05,-0.00031,-0.00063,-0.00055,-9e-05,0.00017,5e-05,0,5,1
24653,-9e-05,-0.00031,-0.00063,-0.00055,-9e-05,0.00017,5e-05,0,5,1
24654,-9e-05,-0.00031,-0.00063,-0.00055,-9e-05,0.00017,5e-05,0,5,1
24655,0.0001,0.0002,0.00029,0.0006,0.00059,0.00033,0.00015,8e-05,5,1
24656,4e-05,0.00024,0.00042,6e-05,-9e-05,-0.0003,-0.00019,-8e-05,5,1
24657,0,-1e-05,-0.00024,-0.00048,-0.00025,-1e-05,-9e-05,-4e-05,5,1
24658,0,-1e-05,-0.00024,-0.00048,-0.00025,-1e-05,-9e-05,-4e-05,5,1
24659,0,-1e-05,-0.00024,-0.00048,-0.00025,-1e-05,-9e-05,-4e-05,5,1
24660,0,-1e-05,-0.00024,-0.00048,-0.00025,-1e-05,-9e-05,-4e-05,5,1
24661,0,-1e-05,-0.00024,-0.00048,-0.00025,-1e-05,-9e-05,-4e-05,5,1
24662,0,-1e-05,-0.00024,-0.00048,-0.00025,-1e-05,-9e-05,-4e-05,5,1
24663,0,-1e-05,-0.00024,-0.00048,-0.00025,-1e-05,-9e-05,-4e-05,5,1
24664,0,-1e-05,-0.00024,-0.00048,-0.00025,-1e-05,-9e-05,-4e-05,5,1
24665,0,-1e-05,-0.00024,-0.00048,-0.00025,-1e-05,-9e-05,-4e-05,5,1
24666,0,-1e-05,-0.00024,-0.00048,-0.00025,-1e-05,-9e-05,-4e-05,5,1
24667,0,-1e-05,-0.00024,-0.00048,-0.00025,-1e-05,-9e-05,-4e-05,5,1
24668,0,-1e-05,-0.00024,-0.00048,-0.00025,-1e-05,-9e-05,-4e-05,5,1
24669,0,-1e-05,-0.00024,-0.00048,-0.00025,-1e-05,-9e-05,-4e-05,5,1
24670,0,-1e-05,-0.00024,-0.00048,-0.00025,-1e-05,-9e-05,-4e-05,5,1
24671,0,-1e-05,-0.00024,-0.00048,-0.00025,-1e-05,-9e-05,-4e-05,5,1
24672,0,-1e-05,-0.00024,-0.00048,-0.00025,-1e-05,-9e-05,-4e-05,5,1
24673,0,-1e-05,-0.00024,-0.00048,-0.00025,-1e-05,-9e-05,-4e-05,5,1
24674,0,-1e-05,-0.00024,-0.00048,-0.00025,-1e-05,-9e-05,-4e-05,5,1
24675,0,-1e-05,-0.00024,-0.00048,-0.00025,-1e-05,-9e-05,-4e-05,5,1
24676,0,-1e-05,-0.00024,-0.00048,-0.00025,-1e-05,-9e-05,-4e-05,5,1
24677,0,-1e-05,-0.00024,-0.00048,-0.00025,-1e-05,-9e-05,-4e-05,5,1
24678,-5e-05,0,9e-05,0.00033,0.00011,-0.00027,2e-05,-7e-05,5,1
24679,7e-05,0.00027,0.00059,0.00036,0.00022,-6e-05,-2e-05,4e-05,5,1
24680,7e-05,0.00027,0.00059,0.00036,0.00022,-6e-05,-2e-05,4e-05,5,1
24681,7e-05,0.00027,0.00059,0.00036,0.00022,-6e-05,-2e-05,4e-05,5,1
24682,7e-05,0.00027,0.00059,0.00036,0.00022,-6e-05,-2e-05,4e-05,5,1
24683,7e-05,0.00027,0.00059,0.00036,0.00022,-6e-05,-2e-05,4e-05,5,1
24684,7e-05,0.00027,0.00059,0.00036,0.00022,-6e-05,-2e-05,4e-05,5,1
24685,7e-05,0.00027,0.00059,0.00036,0.00022,-6e-05,-2e-05,4e-05,5,1
24686,7e-05,0.00027,0.00059,0.00036,0.00022,-6e-05,-2e-05,4e-05,5,1
24689,7e-05,0.00027,0.00059,0.00036,0.00022,-6e-05,-2e-05,4e-05,5,1
24690,7e-05,0.00027,0.00059,0.00036,0.00022,-6e-05,-2e-05,4e-05,5,1
24691,7e-05,0.00027,0.00059,0.00036,0.00022,-6e-05,-2e-05,4e-05,5,1
24692,7e-05,0.00027,0.00059,0.00036,0.00022,-6e-05,-2e-05,4e-05,5,1
24693,7e-05,0.00027,0.00059,0.00036,0.00022,-6e-05,-2e-05,4e-05,5,1
24694,7e-05,0.00027,0.00059,0.00036,0.00022,-6e-05,-2e-05,4e-05,5,1
24695,7e-05,0.00027,0.00059,0.00036,0.00022,-6e-05,-2e-05,4e-05,5,1
24696,7e-05,0.00027,0.00059,0.00036,0.00022,-6e-05,-2e-05,4e-05,5,1
24697,7e-05,0.00027,0.00059,0.00036,0.00022,-6e-05,-2e-05,4e-05,5,1
24698,7e-05,0.00027,0.00059,0.00036,0.00022,-6e-05,-2e-05,4e-05,5,1
24699,7e-05,0.00027,0.00059,0.00036,0.00022,-6e-05,-2e-05,4e-05,5,1
24700,-4e-05,-0.00013,-0.0001,-7e-05,0,0.0002,-1e-05,3e-05,5,1
24701,-4e-05,-0.00013,-0.0001,-7e-05,0,0.0002,-1e-05,3e-05,5,1
24702,5e-05,0.00022,0.00051,0.00088,0.00064,0.00039,0.00013,5e-05,5,1
24703,5e-05,0.00022,0.00051,0.00088,0.00064,0.00039,0.00013,5e-05,5,1
24704,5e-05,0.00022,0.00051,0.00088,0.00064,0.00039,0.00013,5e-05,5,1
24705,5e-05,0.00022,0.00051,0.00088,0.00064,0.00039,0.00013,5e-05,5,1
24706,5e-05,0.00022,0.00051,0.00088,0.00064,0.00039,0.00013,5e-05,5,1
24707,5e-05,0.00022,0.00051,0.00088,0.00064,0.00039,0.00013,5e-05,5,1
24708,5e-05,0.00022,0.00051,0.00088,0.00064,0.00039,0.00013,5e-05,5,1
24709,5e-05,0.00022,0.00051,0.00088,0.00064,0.00039,0.00013,5e-05,5,1
24710,5e-05,0.00022,0.00051,0.00088,0.00064,0.00039,0.00013,5e-05,5,1
24711,5e-05,0.00022,0.00051,0.00088,0.00064,0.00039,0.00013,5e-05,5,1
24712,5e-05,0.00022,0.00051,0.00088,0.00064,0.00039,0.00013,5e-05,5,1
24713,5e-05,0.00022,0.00051,0.00088,0.00064,0.00039,0.00013,5e-05,5,1
24714,5e-05,0.00022,0.00051,0.00088,0.00064,0.00039,0.00013,5e-05,5,1
24715,5e-05,0.00022,0.00051,0.00088,0.00064,0.00039,0.00013,5e-05,5,1
24716,5e-05,0.00022,0.00051,0.00088,0.00064,0.00039,0.00013,5e-05,5,1
24717,5e-05,0.00022,0.00051,0.00088,0.00064,0.00039,0.00013,5e-05,5,1
24718,5e-05,0.00022,0.00051,0.00088,0.00064,0.00039,0.00013,5e-05,5,1
24719,5e-05,0.00022,0.00051,0.00088,0.00064,0.00039,0.00013,5e-05,5,1
24720,5e-05,0.00022,0.00051,0.00088,0.00064,0.00039,0.00013,5e-05,5,1
24721,5e-05,0.00022,0.00051,0.00088,0.00064,0.00039,0.00013,5e-05,5,1
24722,5e-05,0.00022,0.00051,0.00088,0.00064,0.00039,0.00013,5e-05,5,1
24723,1e-05,4e-05,9e-05,0.00059,0.00033,-8e-05,8e-05,3e-05,5,1
24724,-5e-05,-0.00016,-0.00032,-6e-05,-0.00025,-0.00017,-0.00015,-8e-05,5,1
24725,-5e-05,-0.00016,-0.00032,-6e-05,-0.00025,-0.00017,-0.00015,-8e-05,5,1
24726,-5e-05,-0.00016,-0.00032,-6e-05,-0.00025,-0.00017,-0.00015,-8e-05,5,1
24727,-5e-05,-0.00016,-0.00032,-6e-05,-0.00025,-0.00017,-0.00015,-8e-05,5,1
24728,-5e-05,-0.00016,-0.00032,-6e-05,-0.00025,-0.00017,-0.00015,-8e-05,5,1
24729,-5e-05,-0.00016,-0.00032,-6e-05,-0.00025,-0.00017,-0.00015,-8e-05,5,1
24730,-5e-05,-0.00016,-0.00032,-6e-05,-0.00025,-0.00017,-0.00015,-8e-05,5,1
24731,-5e-05,-0.00016,-0.00032,-6e-05,-0.00025,-0.00017,-0.00015,-8e-05,5,1
24732,-5e-05,-0.00016,-0.00032,-6e-05,-0.00025,-0.00017,-0.00015,-8e-05,5,1
24733,-5e-05,-0.00016,-0.00032,-6e-05,-0.00025,-0.00017,-0.00015,-8e-05,5,1
24734,-5e-05,-0.00016,-0.00032,-6e-05,-0.00025,-0.00017,-0.00015,-8e-05,5,1
24735,-5e-05,-0.00016,-0.00032,-6e-05,-0.00025,-0.00017,-0.00015,-8e-05,5,1
24736,-5e-05,-0.00016,-0.00032,-6e-05,-0.00025,-0.00017,-0.00015,-8e-05,5,1
24739,0,6e-05,2e-05,-8e-05,-0.00016,-0.00013,-0.00014,-3e-05,5,1
24740,3e-05,6e-05,0.00011,-0.0003,-0.00052,-0.00018,0,1e-05,5,1
24741,3e-05,6e-05,0.00011,-0.0003,-0.00052,-0.00018,0,1e-05,5,1
24742,3e-05,6e-05,0.00011,-0.0003,-0.00052,-0.00018,0,1e-05,5,1
24743,3e-05,6e-05,0.00011,-0.0003,-0.00052,-0.00018,0,1e-05,5,1
24744,3e-05,6e-05,0.00011,-0.0003,-0.00052,-0.00018,0,1e-05,5,1
24745,3e-05,6e-05,0.00011,-0.0003,-0.00052,-0.00018,0,1e-05,5,1
24746,3e-05,6e-05,0.00011,-0.0003,-0.00052,-0.00018,0,1e-05,5,1
24747,3e-05,6e-05,0.00011,-0.0003,-0.00052,-0.00018,0,1e-05,5,1
24748,3e-05,6e-05,0.00011,-0.0003,-0.00052,-0.00018,0,1e-05,5,1
24749,3e-05,6e-05,0.00011,-0.0003,-0.00052,-0.00018,0,1e-05,5,1
24750,3e-05,6e-05,0.00011,-0.0003,-0.00052,-0.00018,0,1e-05,5,1
24751,3e-05,6e-05,0.00011,-0.0003,-0.00052,-0.00018,0,1e-05,5,1
24752,3e-05,6e-05,0.00011,-0.0003,-0.00052,-0.00018,0,1e-05,5,1
24753,3e-05,-0.00013,-0.0002,-0.00023,-0.0002,-0.00015,-0.0001,-3e-05,5,1
24754,3e-05,-0.00013,-0.0002,-0.00023,-0.0002,-0.00015,-0.0001,-3e-05,5,1
24755,3e-05,-0.00013,-0.0002,-0.00023,-0.0002,-0.00015,-0.0001,-3e-05,5,1
24756,3e-05,-0.00013,-0.0002,-0.00023,-0.0002,-0.00015,-0.0001,-3e-05,5,1
24757,3e-05,-0.00013,-0.0002,-0.00023,-0.0002,-0.00015,-0.0001,-3e-05,5,1
24758,3e-05,-0.00013,-0.0002,-0.00023,-0.0002,-0.00015,-0.0001,-3e-05,5,1
24759,3e-05,2e-05,0.00041,0.00044,0.00039,0.00034,6e-05,1e-05,5,1
24760,3e-05,2e-05,0.00041,0.00044,0.00039,0.00034,6e-05,1e-05,5,1
24761,3e-05,2e-05,0.00041,0.00044,0.00039,0.00034,6e-05,1e-05,5,1
24762,3e-05,2e-05,0.00041,0.00044,0.00039,0.00034,6e-05,1e-05,5,1
24763,3e-05,2e-05,0.00041,0.00044,0.00039,0.00034,6e-05,1e-05,5,1
24764,3e-05,2e-05,0.00041,0.00044,0.00039,0.00034,6e-05,1e-05,5,1
24765,3e-05,2e-05,0.00041,0.00044,0.00039,0.00034,6e-05,1e-05,5,1
24766,3e-05,2e-05,0.00041,0.00044,0.00039,0.00034,6e-05,1e-05,5,1
24767,3e-05,2e-05,0.00041,0.00044,0.00039,0.00034,6e-05,1e-05,5,1
24768,3e-05,2e-05,0.00041,0.00044,0.00039,0.00034,6e-05,1e-05,5,1
24769,3e-05,2e-05,0.00041,0.00044,0.00039,0.00034,6e-05,1e-05,5,1
24770,3e-05,2e-05,0.00041,0.00044,0.00039,0.00034,6e-05,1e-05,5,1
24771,3e-05,2e-05,0.00041,0.00044,0.00039,0.00034,6e-05,1e-05,5,1
24772,3e-05,2e-05,0.00041,0.00044,0.00039,0.00034,6e-05,1e-05,5,1
24773,3e-05,2e-05,0.00041,0.00044,0.00039,0.00034,6e-05,1e-05,5,1
24774,3e-05,2e-05,0.00041,0.00044,0.00039,0.00034,6e-05,1e-05,5,1
24775,-5e-05,-0.00019,-0.00052,-0.00052,-0.00016,1e-05,-6e-05,-4e-05,5,1
24776,-5e-05,-0.00019,-0.00052,-0.00052,-0.00016,1e-05,-6e-05,-4e-05,5,1
24777,-5e-05,-0.00014,-3e-05,-0.0001,-9e-05,3e-05,2e-05,-1e-05,5,1
24778,-5e-05,-0.00014,-3e-05,-0.0001,-9e-05,3e-05,2e-05,-1e-05,5,1
24779,-5e-05,-0.00014,-3e-05,-0.0001,-9e-05,3e-05,2e-05,-1e-05,5,1
24781,-5e-05,-0.00014,-3e-05,-0.0001,-9e-05,3e-05,2e-05,-1e-05,5,1
24782,-5e-05,-0.00014,-3e-05,-0.0001,-9e-05,3e-05,2e-05,-1e-05,5,1
24783,-5e-05,-0.00014,-3e-05,-0.0001,-9e-05,3e-05,2e-05,-1e-05,5,1
24784,-5e-05,-0.00014,-3e-05,-0.0001,-9e-05,3e-05,2e-05,-1e-05,5,1
24785,-5e-05,-0.00014,-3e-05,-0.0001,-9e-05,3e-05,2e-05,-1e-05,5,1
24786,-5e-05,-0.00014,-3e-05,-0.0001,-9e-05,3e-05,2e-05,-1e-05,5,1
24788,-5e-05,-0.00014,-3e-05,-0.0001,-9e-05,3e-05,2e-05,-1e-05,5,1
24790,-5e-05,-0.00014,-3e-05,-0.0001,-9e-05,3e-05,2e-05,-1e-05,5,1
24791,-5e-05,-0.00014,-3e-05,-0.0001,-9e-05,3e-05,2e-05,-1e-05,5,1
24792,-5e-05,-0.00014,-3e-05,-0.0001,-9e-05,3e-05,2e-05,-1e-05,5,1
24793,-5e-05,-0.00014,-3e-05,-0.0001,-9e-05,3e-05,2e-05,-1e-05,5,1
24794,-5e-05,-0.00014,-3e-05,-0.0001,-9e-05,3e-05,2e-05,-1e-05,5,1
24795,-5e-05,-0.00014,-3e-05,-0.0001,-9e-05,3e-05,2e-05,-1e-05,5,1
24796,-5e-05,-0.00014,-3e-05,-0.0001,-9e-05,3e-05,2e-05,-1e-05,5,1
24797,-5e-05,-0.00014,-3e-05,-0.0001,-9e-05,3e-05,2e-05,-1e-05,5,1
24798,4e-05,3e-05,-5e-05,-7e-05,0.00018,0.00025,0.00015,8e-05,5,1
24799,4e-05,3e-05,-5e-05,-7e-05,0.00018,0.00025,0.00015,8e-05,5,1
24800,-3e-05,5e-05,-0.00011,0.00021,0.00048,0.00015,3e-05,-2e-05,5,1
24801,-3e-05,5e-05,-0.00011,0.00021,0.00048,0.00015,3e-05,-2e-05,5,1
24802,-3e-05,5e-05,-0.00011,0.00021,0.00048,0.00015,3e-05,-2e-05,5,1
24803,-3e-05,5e-05,-0.00011,0.00021,0.00048,0.00015,3e-05,-2e-05,5,1
24804,-3e-05,5e-05,-0.00011,0.00021,0.00048,0.00015,3e-05,-2e-05,5,1
24805,-3e-05,5e-05,-0.00011,0.00021,0.00048,0.00015,3e-05,-2e-05,5,1
24806,-3e-05,5e-05,-0.00011,0.00021,0.00048,0.00015,3e-05,-2e-05,5,1
24807,-3e-05,5e-05,-0.00011,0.00021,0.00048,0.00015,3e-05,-2e-05,5,1
24808,-3e-05,5e-05,-0.00011,0.00021,0.00048,0.00015,3e-05,-2e-05,5,1
24809,-3e-05,5e-05,-0.00011,0.00021,0.00048,0.00015,3e-05,-2e-05,5,1
24810,-3e-05,5e-05,-0.00011,0.00021,0.00048,0.00015,3e-05,-2e-05,5,1
24811,-3e-05,5e-05,-0.00011,0.00021,0.00048,0.00015,3e-05,-2e-05,5,1
24812,-4e-05,-3e-05,-0.00015,-0.00023,-7e-05,-9e-05,-4e-05,-4e-05,5,1
24813,-4e-05,-3e-05,-0.00015,-0.00023,-7e-05,-9e-05,-4e-05,-4e-05,5,1
24814,-4e-05,-3e-05,-0.00015,-0.00023,-7e-05,-9e-05,-4e-05,-4e-05,5,1
24815,-4e-05,-3e-05,-0.00015,-0.00023,-7e-05,-9e-05,-4e-05,-4e-05,5,1
24816,-4e-05,-3e-05,-0.00015,-0.00023,-7e-05,-9e-05,-4e-05,-4e-05,5,1
24817,-4e-05,-3e-05,-0.00015,-0.00023,-7e-05,-9e-05,-4e-05,-4e-05,5,1
24818,-4e-05,-3e-05,-0.00015,-0.00023,-7e-05,-9e-05,-4e-05,-4e-05,5,1
24819,-3e-05,0.0001,1e-05,-0.00028,-0.00049,-0.00025,-6e-05,-8e-05,5,1
24820,-3e-05,0.0001,1e-05,-0.00028,-0.00049,-0.00025,-6e-05,-8e-05,5,1
24821,-3e-05,0.0001,1e-05,-0.00028,-0.00049,-0.00025,-6e-05,-8e-05,5,1
24822,-3e-05,0.0001,1e-05,-0.00028,-0.00049,-0.00025,-6e-05,-8e-05,5,1
24823,-3e-05,0.0001,1e-05,-0.00028,-0.00049,-0.00025,-6e-05,-8e-05,5,1
24824,-3e-05,0.0001,1e-05,-0.00028,-0.00049,-0.00025,-6e-05,-8e-05,5,1
24825,-3e-05,0.0001,1e-05,-0.00028,-0.00049,-0.00025,-6e-05,-8e-05,5,1
24826,-3e-05,0.0001,1e-05,-0.00028,-0.00049,-0.00025,-6e-05,-8e-05,5,1
24827,-3e-05,0.0001,1e-05,-0.00028,-0.00049,-0.00025,-6e-05,-8e-05,5,1
24828,-3e-05,0.0001,1e-05,-0.00028,-0.00049,-0.00025,-6e-05,-8e-05,5,1
24829,-3e-05,0.0001,1e-05,-0.00028,-0.00049,-0.00025,-6e-05,-8e-05,5,1
24830,-3e-05,0.0001,1e-05,-0.00028,-0.00049,-0.00025,-6e-05,-8e-05,5,1
24831,-3e-05,0.0001,1e-05,-0.00028,-0.00049,-0.00025,-6e-05,-8e-05,5,1
24832,-3e-05,0.0001,1e-05,-0.00028,-0.00049,-0.00025,-6e-05,-8e-05,5,1
24833,-3e-05,0.0001,1e-05,-0.00028,-0.00049,-0.00025,-6e-05,-8e-05,5,1
24834,-3e-05,0.0001,1e-05,-0.00028,-0.00049,-0.00025,-6e-05,-8e-05,5,1
24835,-3e-05,0.0001,1e-05,-0.00028,-0.00049,-0.00025,-6e-05,-8e-05,5,1
24836,1e-05,-6e-05,8e-05,0.00017,6e-05,0.00017,7e-05,5e-05,5,1
24839,-0.00016,-3e-05,2e-05,-0.00028,-0.0002,-0.00032,-0.00022,-0.00022,5,1
24840,-0.00016,-3e-05,2e-05,-0.00028,-0.0002,-0.00032,-0.00022,-0.00022,5,1
24841,-0.00016,-3e-05,2e-05,-0.00028,-0.0002,-0.00032,-0.00022,-0.00022,5,1
24842,-0.00016,-3e-05,2e-05,-0.00028,-0.0002,-0.00032,-0.00022,-0.00022,5,1
24843,-0.00016,-3e-05,2e-05,-0.00028,-0.0002,-0.00032,-0.00022,-0.00022,5,1
24844,-0.00016,-3e-05,2e-05,-0.00028,-0.0002,-0.00032,-0.00022,-0.00022,5,1
24845,-0.00016,-3e-05,2e-05,-0.00028,-0.0002,-0.00032,-0.00022,-0.00022,5,1
24846,-0.00016,-3e-05,2e-05,-0.00028,-0.0002,-0.00032,-0.00022,-0.00022,5,1
24847,-0.00016,-3e-05,2e-05,-0.00028,-0.0002,-0.00032,-0.00022,-0.00022,5,1
24848,-0.00016,-3e-05,2e-05,-0.00028,-0.0002,-0.00032,-0.00022,-0.00022,5,1
24849,-0.00016,-3e-05,2e-05,-0.00028,-0.0002,-0.00032,-0.00022,-0.00022,5,1
24850,-0.00016,-3e-05,2e-05,-0.00028,-0.0002,-0.00032,-0.00022,-0.00022,5,1
24851,-0.00016,-3e-05,2e-05,-0.00028,-0.0002,-0.00032,-0.00022,-0.00022,5,1
24852,-0.00016,-3e-05,2e-05,-0.00028,-0.0002,-0.00032,-0.00022,-0.00022,5,1
24853,-0.00016,-3e-05,2e-05,-0.00028,-0.0002,-0.00032,-0.00022,-0.00022,5,1
24854,-0.00016,-3e-05,2e-05,-0.00028,-0.0002,-0.00032,-0.00022,-0.00022,5,1
24855,-0.00016,-3e-05,2e-05,-0.00028,-0.0002,-0.00032,-0.00022,-0.00022,5,1
24856,-0.00016,-3e-05,2e-05,-0.00028,-0.0002,-0.00032,-0.00022,-0.00022,5,1
24857,-0.00016,-3e-05,2e-05,-0.00028,-0.0002,-0.00032,-0.00022,-0.00022,5,1
24858,-3e-05,0.00012,0.00011,7e-05,-0.00028,-0.00016,-2e-05,5e-05,5,1
24859,-3e-05,0.00012,0.00011,7e-05,-0.00028,-0.00016,-2e-05,5e-05,5,1
24860,-3e-05,0.00012,0.00011,7e-05,-0.00028,-0.00016,-2e-05,5e-05,5,1
24861,-3e-05,0.00012,0.00011,7e-05,-0.00028,-0.00016,-2e-05,5e-05,5,1
24862,-3e-05,0.00012,0.00011,7e-05,-0.00028,-0.00016,-2e-05,5e-05,5,1
24863,-3e-05,0.00012,0.00011,7e-05,-0.00028,-0.00016,-2e-05,5e-05,5,1
24864,-3e-05,0.00012,0.00011,7e-05,-0.00028,-0.00016,-2e-05,5e-05,5,1
24865,-3e-05,0.00012,0.00011,7e-05,-0.00028,-0.00016,-2e-05,5e-05,5,1
24866,-3e-05,0.00012,0.00011,7e-05,-0.00028,-0.00016,-2e-05,5e-05,5,1
24867,-3e-05,0.00012,0.00011,7e-05,-0.00028,-0.00016,-2e-05,5e-05,5,1
24868,-3e-05,0.00012,0.00011,7e-05,-0.00028,-0.00016,-2e-05,5e-05,5,1
24869,-3e-05,0.00012,0.00011,7e-05,-0.00028,-0.00016,-2e-05,5e-05,5,1
24870,-3e-05,0.00012,0.00011,7e-05,-0.00028,-0.00016,-2e-05,5e-05,5,1
24871,-3e-05,0.00012,0.00011,7e-05,-0.00028,-0.00016,-2e-05,5e-05,5,1
24872,-3e-05,0.00012,0.00011,7e-05,-0.00028,-0.00016,-2e-05,5e-05,5,1
24873,2e-05,0.00014,0.00027,-0.00015,-0.0004,7e-05,0.0001,2e-05,5,1
24874,2e-05,0.00014,0.00027,-0.00015,-0.0004,7e-05,0.0001,2e-05,5,1
24875,2e-05,0.00014,0.00027,-0.00015,-0.0004,7e-05,0.0001,2e-05,5,1
24876,2e-05,0.00014,0.00027,-0.00015,-0.0004,7e-05,0.0001,2e-05,5,1
24877,2e-05,0.00014,0.00027,-0.00015,-0.0004,7e-05,0.0001,2e-05,5,1
24878,2e-05,0.00014,0.00027,-0.00015,-0.0004,7e-05,0.0001,2e-05,5,1
24879,0.0001,0.0001,0.00037,0.00035,-0.00014,8e-05,0.00028,0.00015,5,1
24880,0.0001,0.0001,0.00037,0.00035,-0.00014,8e-05,0.00028,0.00015,5,1
24881,0.0001,0.0001,0.00037,0.00035,-0.00014,8e-05,0.00028,0.00015,5,1
24882,0.0001,0.0001,0.00037,0.00035,-0.00014,8e-05,0.00028,0.00015,5,1
24883,0.0001,0.0001,0.00037,0.00035,-0.00014,8e-05,0.00028,0.00015,5,1
24884,0.0001,0.0001,0.00037,0.00035,-0.00014,8e-05,0.00028,0.00015,5,1
24885,0.0001,0.0001,0.00037,0.00035,-0.00014,8e-05,0.00028,0.00015,5,1
24886,0.0001,0.0001,0.00037,0.00035,-0.00014,8e-05,0.00028,0.00015,5,1
24888,0.0001,0.0001,0.00037,0.00035,-0.00014,8e-05,0.00028,0.00015,5,1
24890,0.0001,0.0001,0.00037,0.00035,-0.00014,8e-05,0.00028,0.00015,5,1
24891,0.0001,0.0001,0.00037,0.00035,-0.00014,8e-05,0.00028,0.00015,5,1
24892,0.0001,0.0001,0.00037,0.00035,-0.00014,8e-05,0.00028,0.00015,5,1
24893,0.0001,0.0001,0.00037,0.00035,-0.00014,8e-05,0.00028,0.00015,5,1
24894,0.0001,0.0001,0.00037,0.00035,-0.00014,8e-05,0.00028,0.00015,5,1
24895,7e-05,3e-05,-5e-05,-2e-05,0.00015,0.00018,0.0001,8e-05,5,1
24896,7e-05,3e-05,-5e-05,-2e-05,0.00015,0.00018,0.0001,8e-05,5,1
24897,-8e-05,-0.00028,-0.00036,-0.00036,-0.00036,-0.00025,-0.00013,-8e-05,5,1
24898,-8e-05,-0.00028,-0.00036,-0.00036,-0.00036,-0.00025,-0.00013,-8e-05,5,1
24899,-8e-05,-0.00028,-0.00036,-0.00036,-0.00036,-0.00025,-0.00013,-8e-05,5,1
24900,-8e-05,-0.00028,-0.00036,-0.00036,-0.00036,-0.00025,-0.00013,-8e-05,5,1
24901,-8e-05,-0.00028,-0.00036,-0.00036,-0.00036,-0.00025,-0.00013,-8e-05,5,1
24902,-8e-05,-0.00028,-0.00036,-0.00036,-0.00036,-0.00025,-0.00013,-8e-05,5,1
24903,-8e-05,-0.00028,-0.00036,-0.00036,-0.00036,-0.00025,-0.00013,-8e-05,5,1
24904,-8e-05,-0.00028,-0.00036,-0.00036,-0.00036,-0.00025,-0.00013,-8e-05,5,1
24905,-8e-05,-0.00028,-0.00036,-0.00036,-0.00036,-0.00025,-0.00013,-8e-05,5,1
24906,-8e-05,-0.00028,-0.00036,-0.00036,-0.00036,-0.00025,-0.00013,-8e-05,5,1
24907,-8e-05,-0.00028,-0.00036,-0.00036,-0.00036,-0.00025,-0.00013,-8e-05,5,1
24908,-8e-05,-0.00028,-0.00036,-0.00036,-0.00036,-0.00025,-0.00013,-8e-05,5,1
24909,-8e-05,-0.00028,-0.00036,-0.00036,-0.00036,-0.00025,-0.00013,-8e-05,5,1
24910,-8e-05,-0.00028,-0.00036,-0.00036,-0.00036,-0.00025,-0.00013,-8e-05,5,1
24911,-8e-05,-0.00028,-0.00036,-0.00036,-0.00036,-0.00025,-0.00013,-8e-05,5,1
24912,-8e-05,-0.00028,-0.00036,-0.00036,-0.00036,-0.00025,-0.00013,-8e-05,5,1
24913,-8e-05,-0.00028,-0.00036,-0.00036,-0.00036,-0.00025,-0.00013,-8e-05,5,1
24914,-8e-05,-0.00028,-0.00036,-0.00036,-0.00036,-0.00025,-0.00013,-8e-05,5,1
24915,-8e-05,-0.00028,-0.00036,-0.00036,-0.00036,-0.00025,-0.00013,-8e-05,5,1
24916,-8e-05,-0.00028,-0.00036,-0.00036,-0.00036,-0.00025,-0.00013,-8e-05,5,1
24917,0,4e-05,5e-05,0.00013,0.00017,3e-05,-2e-05,-2e-05,5,1
24918,0,4e-05,5e-05,0.00013,0.00017,3e-05,-2e-05,-2e-05,5,1
24919,0,4e-05,5e-05,0.00013,0.00017,3e-05,-2e-05,-2e-05,5,1
24920,0,4e-05,5e-05,0.00013,0.00017,3e-05,-2e-05,-2e-05,5,1
24921,0,4e-05,5e-05,0.00013,0.00017,3e-05,-2e-05,-2e-05,5,1
24922,0,4e-05,5e-05,0.00013,0.00017,3e-05,-2e-05,-2e-05,5,1
24923,0,4e-05,5e-05,0.00013,0.00017,3e-05,-2e-05,-2e-05,5,1
24924,0,4e-05,5e-05,0.00013,0.00017,3e-05,-2e-05,-2e-05,5,1
24925,5e-05,3e-05,-0.00016,0.00016,0.00038,0.00037,0.00011,7e-05,5,1
24926,5e-05,3e-05,-0.00016,0.00016,0.00038,0.00037,0.00011,7e-05,5,1
24927,5e-05,3e-05,-0.00016,0.00016,0.00038,0.00037,0.00011,7e-05,5,1
24928,5e-05,3e-05,-0.00016,0.00016,0.00038,0.00037,0.00011,7e-05,5,1
24929,5e-05,3e-05,-0.00016,0.00016,0.00038,0.00037,0.00011,7e-05,5,1
24930,5e-05,3e-05,-0.00016,0.00016,0.00038,0.00037,0.00011,7e-05,5,1
24931,5e-05,3e-05,-0.00016,0.00016,0.00038,0.00037,0.00011,7e-05,5,1
24932,-8e-05,-0.00016,-0.00044,-0.00039,3e-05,-1e-05,-7e-05,-6e-05,5,1
24933,-8e-05,-0.00016,-0.00044,-0.00039,3e-05,-1e-05,-7e-05,-6e-05,5,1
24934,-8e-05,-0.00016,-0.00044,-0.00039,3e-05,-1e-05,-7e-05,-6e-05,5,1
24935,-8e-05,-0.00016,-0.00044,-0.00039,3e-05,-1e-05,-7e-05,-6e-05,5,1
24936,-8e-05,-0.00016,-0.00044,-0.00039,3e-05,-1e-05,-7e-05,-6e-05,5,1
24938,-8e-05,-0.00016,-0.00044,-0.00039,3e-05,-1e-05,-7e-05,-6e-05,5,1
24939,-8e-05,-0.00016,-0.00044,-0.00039,3e-05,-1e-05,-7e-05,-6e-05,5,1
24940,-8e-05,-0.00016,-0.00044,-0.00039,3e-05,-1e-05,-7e-05,-6e-05,5,1
24941,-8e-05,-0.00016,-0.00044,-0.00039,3e-05,-1e-05,-7e-05,-6e-05,5,1
24942,-8e-05,-0.00016,-0.00044,-0.00039,3e-05,-1e-05,-7e-05,-6e-05,5,1
24943,-8e-05,-0.00016,-0.00044,-0.00039,3e-05,-1e-05,-7e-05,-6e-05,5,1
24944,-8e-05,-0.00016,-0.00044,-0.00039,3e-05,-1e-05,-7e-05,-6e-05,5,1
24945,-8e-05,-0.00016,-0.00044,-0.00039,3e-05,-1e-05,-7e-05,-6e-05,5,1
24946,2e-05,4e-05,8e-05,-8e-05,-3e-05,4e-05,-4e-05,-1e-05,5,1
24947,2e-05,4e-05,8e-05,-8e-05,-3e-05,4e-05,-4e-05,-1e-05,5,1
24948,2e-05,4e-05,8e-05,-8e-05,-3e-05,4e-05,-4e-05,-1e-05,5,1
24949,2e-05,4e-05,8e-05,-8e-05,-3e-05,4e-05,-4e-05,-1e-05,5,1
24950,2e-05,4e-05,8e-05,-8e-05,-3e-05,4e-05,-4e-05,-1e-05,5,1
24951,2e-05,4e-05,8e-05,-8e-05,-3e-05,4e-05,-4e-05,-1e-05,5,1
24952,2e-05,4e-05,8e-05,-8e-05,-3e-05,4e-05,-4e-05,-1e-05,5,1
24953,2e-05,4e-05,8e-05,-8e-05,-3e-05,4e-05,-4e-05,-1e-05,5,1
24954,2e-05,4e-05,8e-05,-8e-05,-3e-05,4e-05,-4e-05,-1e-05,5,1
24955,-9e-05,-0.00014,-0.00011,0.00014,-0.00025,-0.00021,-0.00011,-9e-05,5,1
24956,-9e-05,-0.00014,-0.00011,0.00014,-0.00025,-0.00021,-0.00011,-9e-05,5,1
24957,1e-05,-4e-05,-0.0002,-0.0002,-3e-05,-0.00011,4e-05,2e-05,5,1
24958,1e-05,-4e-05,-0.0002,-0.0002,-3e-05,-0.00011,4e-05,2e-05,5,1
24959,1e-05,-4e-05,-0.0002,-0.0002,-3e-05,-0.00011,4e-05,2e-05,5,1
24960,1e-05,-4e-05,-0.0002,-0.0002,-3e-05,-0.00011,4e-05,2e-05,5,1
24961,1e-05,-4e-05,-0.0002,-0.0002,-3e-05,-0.00011,4e-05,2e-05,5,1
24962,1e-05,-4e-05,-0.0002,-0.0002,-3e-05,-0.00011,4e-05,2e-05,5,1
24963,1e-05,-4e-05,-0.0002,-0.0002,-3e-05,-0.00011,4e-05,2e-05,5,1
24964,1e-05,-4e-05,-0.0002,-0.0002,-3e-05,-0.00011,4e-05,2e-05,5,1
24965,1e-05,-4e-05,-0.0002,-0.0002,-3e-05,-0.00011,4e-05,2e-05,5,1
24966,1e-05,-4e-05,-0.0002,-0.0002,-3e-05,-0.00011,4e-05,2e-05,5,1
24967,1e-05,-4e-05,-0.0002,-0.0002,-3e-05,-0.00011,4e-05,2e-05,5,1
24968,1e-05,-4e-05,-0.0002,-0.0002,-3e-05,-0.00011,4e-05,2e-05,5,1
24969,1e-05,-4e-05,-0.0002,-0.0002,-3e-05,-0.00011,4e-05,2e-05,5,1
24970,1e-05,-4e-05,-0.0002,-0.0002,-3e-05,-0.00011,4e-05,2e-05,5,1
24971,1e-05,-4e-05,-0.0002,-0.0002,-3e-05,-0.00011,4e-05,2e-05,5,1
24972,1e-05,-4e-05,-0.0002,-0.0002,-3e-05,-0.00011,4e-05,2e-05,5,1
24973,1e-05,-4e-05,-0.0002,-0.0002,-3e-05,-0.00011,4e-05,2e-05,5,1
24974,1e-05,-4e-05,-0.0002,-0.0002,-3e-05,-0.00011,4e-05,2e-05,5,1
24975,1e-05,-4e-05,-0.0002,-0.0002,-3e-05,-0.00011,4e-05,2e-05,5,1
24976,1e-05,-4e-05,-0.0002,-0.0002,-3e-05,-0.00011,4e-05,2e-05,5,1
24977,1e-05,-4e-05,-0.0002,-0.0002,-3e-05,-0.00011,4e-05,2e-05,5,1
24978,3e-05,5e-05,0.00016,9e-05,5e-05,6e-05,0,1e-05,5,1
24979,-6e-05,-0.0001,-0.00017,2e-05,0.00016,-0.00018,-0.00019,-8e-05,5,1
24980,-6e-05,-0.0001,-0.00017,2e-05,0.00016,-0.00018,-0.00019,-8e-05,5,1
24981,-6e-05,-0.0001,-0.00017,2e-05,0.00016,-0.00018,-0.00019,-8e-05,5,1
24982,-6e-05,-0.0001,-0.00017,2e-05,0.00016,-0.00018,-0.00019,-8e-05,5,1
24983,-6e-05,-0.0001,-0.00017,2e-05,0.00016,-0.00018,-0.00019,-8e-05,5,1
24984,-6e-05,-0.0001,-0.00017,2e-05,0.00016,-0.00018,-0.00019,-8e-05,5,1
24985,-6e-05,-0.0001,-0.00017,2e-05,0.00016,-0.00018,-0.00019,-8e-05,5,1
24986,-6e-05,-0.0001,-0.00017,2e-05,0.00016,-0.00018,-0.00019,-8e-05,5,1
24988,-6e-05,-0.0001,-0.00017,2e-05,0.00016,-0.00018,-0.00019,-8e-05,5,1
24989,-6e-05,-0.0001,-0.00017,2e-05,0.00016,-0.00018,-0.00019,-8e-05,5,1
24990,-6e-05,-0.0001,-0.00017,2e-05,0.00016,-0.00018,-0.00019,-8e-05,5,1
24991,-6e-05,-0.0001,-0.00017,2e-05,0.00016,-0.00018,-0.00019,-8e-05,5,1
24992,-6e-05,-0.0001,-0.00017,2e-05,0.00016,-0.00018,-0.00019,-8e-05,5,1
24993,-6e-05,-0.0001,-0.00017,2e-05,0.00016,-0.00018,-0.00019,-8e-05,5,1
24994,-6e-05,-0.0001,-0.00017,2e-05,0.00016,-0.00018,-0.00019,-8e-05,5,1
24995,-6e-05,-0.0001,-0.00017,2e-05,0.00016,-0.00018,-0.00019,-8e-05,5,1
24996,-6e-05,-0.0001,-0.00017,2e-05,0.00016,-0.00018,-0.00019,-8e-05,5,1
24997,-6e-05,-0.0001,-0.00017,2e-05,0.00016,-0.00018,-0.00019,-8e-05,5,1
24998,-6e-05,-0.0001,-0.00017,2e-05,0.00016,-0.00018,-0.00019,-8e-05,5,1
24999,-6e-05,-0.0001,-0.00017,2e-05,0.00016,-0.00018,-0.00019,-8e-05,5,1
25000,0,5e-05,8e-05,0.00013,-9e-05,0.00011,0.00014,3e-05,5,1
25001,-1e-05,-8e-05,-0.00022,-0.0003,0.00017,0.00013,0,-1e-05,5,1
25002,0.00013,0.00016,6e-05,0.00029,0.00027,0.00029,0.00013,0.00011,5,1
25003,0.00013,0.00016,6e-05,0.00029,0.00027,0.00029,0.00013,0.00011,5,1
25004,0.00013,0.00016,6e-05,0.00029,0.00027,0.00029,0.00013,0.00011,5,1
25005,0.00013,0.00016,6e-05,0.00029,0.00027,0.00029,0.00013,0.00011,5,1
25006,0.00013,0.00016,6e-05,0.00029,0.00027,0.00029,0.00013,0.00011,5,1
25007,0.00013,0.00016,6e-05,0.00029,0.00027,0.00029,0.00013,0.00011,5,1
25008,0.00013,0.00016,6e-05,0.00029,0.00027,0.00029,0.00013,0.00011,5,1
25009,0.00013,0.00016,6e-05,0.00029,0.00027,0.00029,0.00013,0.00011,5,1
25010,0.00013,0.00016,6e-05,0.00029,0.00027,0.00029,0.00013,0.00011,5,1
25011,0.00013,0.00016,6e-05,0.00029,0.00027,0.00029,0.00013,0.00011,5,1
25012,0.00013,0.00016,6e-05,0.00029,0.00027,0.00029,0.00013,0.00011,5,1
25013,0.00013,0.00016,6e-05,0.00029,0.00027,0.00029,0.00013,0.00011,5,1
25014,0.00013,0.00016,6e-05,0.00029,0.00027,0.00029,0.00013,0.00011,5,1
25015,-5e-05,-7e-05,-9e-05,0,-2e-05,-2e-05,3e-05,-2e-05,5,1
25016,2e-05,-6e-05,-0.0001,0.00029,0.00072,0.00036,7e-05,4e-05,5,1
25017,-5e-05,6e-05,0.00023,1e-05,-0.0003,-3e-05,-2e-05,-2e-05,5,1
25018,-5e-05,6e-05,0.00023,1e-05,-0.0003,-3e-05,-2e-05,-2e-05,5,1
25019,-5e-05,6e-05,0.00023,1e-05,-0.0003,-3e-05,-2e-05,-2e-05,5,1
25020,-5e-05,6e-05,0.00023,1e-05,-0.0003,-3e-05,-2e-05,-2e-05,5,1
25021,-5e-05,6e-05,0.00023,1e-05,-0.0003,-3e-05,-2e-05,-2e-05,5,1
25022,-5e-05,6e-05,0.00023,1e-05,-0.0003,-3e-05,-2e-05,-2e-05,5,1
25023,-5e-05,6e-05,0.00023,1e-05,-0.0003,-3e-05,-2e-05,-2e-05,5,1
25024,-5e-05,6e-05,0.00023,1e-05,-0.0003,-3e-05,-2e-05,-2e-05,5,1
25025,-5e-05,6e-05,0.00023,1e-05,-0.0003,-3e-05,-2e-05,-2e-05,5,1
25026,-5e-05,6e-05,0.00023,1e-05,-0.0003,-3e-05,-2e-05,-2e-05,5,1
25027,-5e-05,6e-05,0.00023,1e-05,-0.0003,-3e-05,-2e-05,-2e-05,5,1
25028,-5e-05,6e-05,0.00023,1e-05,-0.0003,-3e-05,-2e-05,-2e-05,5,1
25029,-5e-05,6e-05,0.00023,1e-05,-0.0003,-3e-05,-2e-05,-2e-05,5,1
25030,-5e-05,6e-05,0.00023,1e-05,-0.0003,-3e-05,-2e-05,-2e-05,5,1
25031,-5e-05,6e-05,0.00023,1e-05,-0.0003,-3e-05,-2e-05,-2e-05,5,1
25033,-5e-05,6e-05,0.00023,1e-05,-0.0003,-3e-05,-2e-05,-2e-05,5,1
25034,-5e-05,6e-05,0.00023,1e-05,-0.0003,-3e-05,-2e-05,-2e-05,5,1
25035,-5e-05,6e-05,0.00023,1e-05,-0.0003,-3e-05,-2e-05,-2e-05,5,1
25036,-5e-05,6e-05,0.00023,1e-05,-0.0003,-3e-05,-2e-05,-2e-05,5,1
25039,-4e-05,-8e-05,-2e-05,-8e-05,-0.00031,-0.00022,-9e-05,-5e-05,5,1
25040,-4e-05,-8e-05,-2e-05,-8e-05,-0.00031,-0.00022,-9e-05,-5e-05,5,1
25041,-4e-05,-8e-05,-2e-05,-8e-05,-0.00031,-0.00022,-9e-05,-5e-05,5,1
25042,-4e-05,-8e-05,-2e-05,-8e-05,-0.00031,-0.00022,-9e-05,-5e-05,5,1
25043,-4e-05,-8e-05,-2e-05,-8e-05,-0.00031,-0.00022,-9e-05,-5e-05,5,1
25044,-1e-05,7e-05,0.00014,0.00022,0.00032,7e-05,-4e-05,0,5,1
25045,-1e-05,7e-05,0.00014,0.00022,0.00032,7e-05,-4e-05,0,5,1
25046,-1e-05,7e-05,0.00014,0.00022,0.00032,7e-05,-4e-05,0,5,1
25047,-1e-05,7e-05,0.00014,0.00022,0.00032,7e-05,-4e-05,0,5,1
25048,-1e-05,7e-05,0.00014,0.00022,0.00032,7e-05,-4e-05,0,5,1
25049,-1e-05,7e-05,0.00014,0.00022,0.00032,7e-05,-4e-05,0,5,1
25050,-1e-05,7e-05,0.00014,0.00022,0.00032,7e-05,-4e-05,0,5,1
25051,-1e-05,1e-05,-0.00015,-0.00075,-0.00057,-0.00021,-9e-05,-5e-05,5,1
25052,-1e-05,1e-05,-0.00015,-0.00075,-0.00057,-0.00021,-9e-05,-5e-05,5,1
25053,-1e-05,1e-05,-0.00015,-0.00075,-0.00057,-0.00021,-9e-05,-5e-05,5,1
25054,-1e-05,1e-05,-0.00015,-0.00075,-0.00057,-0.00021,-9e-05,-5e-05,5,1
25055,-1e-05,1e-05,-0.00015,-0.00075,-0.00057,-0.00021,-9e-05,-5e-05,5,1
25056,-1e-05,1e-05,-0.00015,-0.00075,-0.00057,-0.00021,-9e-05,-5e-05,5,1
25057,-1e-05,1e-05,-0.00015,-0.00075,-0.00057,-0.00021,-9e-05,-5e-05,5,1
25058,-1e-05,1e-05,-0.00015,-0.00075,-0.00057,-0.00021,-9e-05,-5e-05,5,1
25059,-1e-05,1e-05,-0.00015,-0.00075,-0.00057,-0.00021,-9e-05,-5e-05,5,1
25060,-2e-05,4e-05,0.00013,-0.00019,-0.00032,-0.00039,-0.00018,-8e-05,5,1
25061,-2e-05,4e-05,0.00013,-0.00019,-0.00032,-0.00039,-0.00018,-8e-05,5,1
25062,-2e-05,4e-05,0.00013,-0.00019,-0.00032,-0.00039,-0.00018,-8e-05,5,1
25064,-2e-05,4e-05,0.00013,-0.00019,-0.00032,-0.00039,-0.00018,-8e-05,5,1
25065,-2e-05,4e-05,0.00013,-0.00019,-0.00032,-0.00039,-0.00018,-8e-05,5,1
25066,-2e-05,4e-05,0.00013,-0.00019,-0.00032,-0.00039,-0.00018,-8e-05,5,1
25067,-2e-05,4e-05,0.00013,-0.00019,-0.00032,-0.00039,-0.00018,-8e-05,5,1
25068,-2e-05,4e-05,0.00013,-0.00019,-0.00032,-0.00039,-0.00018,-8e-05,5,1
25069,-2e-05,4e-05,0.00013,-0.00019,-0.00032,-0.00039,-0.00018,-8e-05,5,1
25070,-2e-05,4e-05,0.00013,-0.00019,-0.00032,-0.00039,-0.00018,-8e-05,5,1
25071,-2e-05,4e-05,0.00013,-0.00019,-0.00032,-0.00039,-0.00018,-8e-05,5,1
25072,-2e-05,4e-05,0.00013,-0.00019,-0.00032,-0.00039,-0.00018,-8e-05,5,1
25073,-2e-05,4e-05,0.00013,-0.00019,-0.00032,-0.00039,-0.00018,-8e-05,5,1
25074,-2e-05,4e-05,0.00013,-0.00019,-0.00032,-0.00039,-0.00018,-8e-05,5,1
25075,1e-05,-1e-05,-3e-05,1e-05,3e-05,0.00016,6e-05,3e-05,5,1
25076,0,4e-05,0.0001,0.00015,0.00032,7e-05,2e-05,1e-05,5,1
25077,-0.00012,-0.00017,-0.00032,-0.00023,0.00021,0.00017,2e-05,-7e-05,5,1
25078,-0.00012,-0.00017,-0.00032,-0.00023,0.00021,0.00017,2e-05,-7e-05,5,1
25079,-0.00012,-0.00017,-0.00032,-0.00023,0.00021,0.00017,2e-05,-7e-05,5,1
25080,-0.00012,-0.00017,-0.00032,-0.00023,0.00021,0.00017,2e-05,-7e-05,5,1
25081,-0.00012,-0.00017,-0.00032,-0.00023,0.00021,0.00017,2e-05,-7e-05,5,1
25082,-0.00012,-0.00017,-0.00032,-0.00023,0.00021,0.00017,2e-05,-7e-05,5,1
25083,-0.00012,-0.00017,-0.00032,-0.00023,0.00021,0.00017,2e-05,-7e-05,5,1
25084,-0.00012,-0.00017,-0.00032,-0.00023,0.00021,0.00017,2e-05,-7e-05,5,1
25085,-0.00012,-0.00017,-0.00032,-0.00023,0.00021,0.00017,2e-05,-7e-05,5,1
25086,-0.00012,-0.00017,-0.00032,-0.00023,0.00021,0.00017,2e-05,-7e-05,5,1
25088,-0.00012,-0.00017,-0.00032,-0.00023,0.00021,0.00017,2e-05,-7e-05,5,1
25090,-0.00012,-0.00017,-0.00032,-0.00023,0.00021,0.00017,2e-05,-7e-05,5,1
25091,-0.00012,-0.00017,-0.00032,-0.00023,0.00021,0.00017,2e-05,-7e-05,5,1
25092,-0.00012,-0.00017,-0.00032,-0.00023,0.00021,0.00017,2e-05,-7e-05,5,1
25093,-0.00012,-0.00017,-0.00032,-0.00023,0.00021,0.00017,2e-05,-7e-05,5,1
25094,-0.00012,-0.00017,-0.00032,-0.00023,0.00021,0.00017,2e-05,-7e-05,5,1
25095,-0.00012,-0.00017,-0.00032,-0.00023,0.00021,0.00017,2e-05,-7e-05,5,1
25096,-0.00012,-0.00017,-0.00032,-0.00023,0.00021,0.00017,2e-05,-7e-05,5,1
25097,0.00012,0.00013,0.00041,0.00055,0.00058,0.00053,0.00019,0.0001,5,1
25098,0.00012,0.00013,0.00041,0.00055,0.00058,0.00053,0.00019,0.0001,5,1
25099,0.00012,0.00013,0.00041,0.00055,0.00058,0.00053,0.00019,0.0001,5,1
25100,0.00012,0.00013,0.00041,0.00055,0.00058,0.00053,0.00019,0.0001,5,1
25101,0.00012,0.00013,0.00041,0.00055,0.00058,0.00053,0.00019,0.0001,5,1
25102,0.00012,0.00013,0.00041,0.00055,0.00058,0.00053,0.00019,0.0001,5,1
25103,0.00012,0.00013,0.00041,0.00055,0.00058,0.00053,0.00019,0.0001,5,1
25104,0.00012,0.00013,0.00041,0.00055,0.00058,0.00053,0.00019,0.0001,5,1
25105,0.00012,0.00013,0.00041,0.00055,0.00058,0.00053,0.00019,0.0001,5,1
25106,0.00012,0.00013,0.00041,0.00055,0.00058,0.00053,0.00019,0.0001,5,1
25107,0.00012,0.00013,0.00041,0.00055,0.00058,0.00053,0.00019,0.0001,5,1
25108,0.00012,0.00013,0.00041,0.00055,0.00058,0.00053,0.00019,0.0001,5,1
25109,0.00012,0.00013,0.00041,0.00055,0.00058,0.00053,0.00019,0.0001,5,1
25110,0.00012,0.00013,0.00041,0.00055,0.00058,0.00053,0.00019,0.0001,5,1
25111,0.00012,0.00013,0.00041,0.00055,0.00058,0.00053,0.00019,0.0001,5,1
25112,0.00012,0.00013,0.00041,0.00055,0.00058,0.00053,0.00019,0.0001,5,1
25113,-0.00013,-0.0001,-0.00037,-0.00093,-0.0007,-0.00052,-0.00023,-0.00016,5,1
25114,2e-05,3e-05,0.00013,0.0003,0.00025,0.00014,0,3e-05,5,1
25115,2e-05,3e-05,0.00013,0.0003,0.00025,0.00014,0,3e-05,5,1
25116,2e-05,3e-05,0.00013,0.0003,0.00025,0.00014,0,3e-05,5,1
25117,2e-05,3e-05,0.00013,0.0003,0.00025,0.00014,0,3e-05,5,1
25118,2e-05,3e-05,0.00013,0.0003,0.00025,0.00014,0,3e-05,5,1
25119,2e-05,3e-05,0.00013,0.0003,0.00025,0.00014,0,3e-05,5,1
25120,2e-05,3e-05,0.00013,0.0003,0.00025,0.00014,0,3e-05,5,1
25121,-3e-05,0,7e-05,0.00021,0.0002,-4e-05,-8e-05,-0.00011,5,1
25122,-3e-05,0,7e-05,0.00021,0.0002,-4e-05,-8e-05,-0.00011,5,1
25123,-3e-05,0,7e-05,0.00021,0.0002,-4e-05,-8e-05,-0.00011,5,1
25124,-3e-05,0,7e-05,0.00021,0.0002,-4e-05,-8e-05,-0.00011,5,1
25125,-3e-05,0,7e-05,0.00021,0.0002,-4e-05,-8e-05,-0.00011,5,1
25126,-3e-05,0,7e-05,0.00021,0.0002,-4e-05,-8e-05,-0.00011,5,1
25127,-3e-05,0,7e-05,0.00021,0.0002,-4e-05,-8e-05,-0.00011,5,1
25128,-3e-05,0,7e-05,0.00021,0.0002,-4e-05,-8e-05,-0.00011,5,1
25129,-3e-05,0,7e-05,0.00021,0.0002,-4e-05,-8e-05,-0.00011,5,1
25130,-3e-05,0,7e-05,0.00021,0.0002,-4e-05,-8e-05,-0.00011,5,1
25131,-3e-05,0,7e-05,0.00021,0.0002,-4e-05,-8e-05,-0.00011,5,1
25132,-3e-05,0,7e-05,0.00021,0.0002,-4e-05,-8e-05,-0.00011,5,1
25133,-3e-05,0,7e-05,0.00021,0.0002,-4e-05,-8e-05,-0.00011,5,1
25134,5e-05,0.0001,-0.00011,-0.00057,-0.0004,-0.00019,-9e-05,1e-05,5,1
25135,0.00013,0.00012,0.00012,0.00025,0.00035,0.00043,0.0003,0.00018,5,1
25136,0.00013,0.00012,0.00012,0.00025,0.00035,0.00043,0.0003,0.00018,5,1
25138,0.00013,0.00012,0.00012,0.00025,0.00035,0.00043,0.0003,0.00018,5,1
25139,0.00013,0.00012,0.00012,0.00025,0.00035,0.00043,0.0003,0.00018,5,1
25140,0.00013,0.00012,0.00012,0.00025,0.00035,0.00043,0.0003,0.00018,5,1
25141,0.00013,0.00012,0.00012,0.00025,0.00035,0.00043,0.0003,0.00018,5,1
25142,0.00013,0.00012,0.00012,0.00025,0.00035,0.00043,0.0003,0.00018,5,1
25143,0.00013,0.00012,0.00012,0.00025,0.00035,0.00043,0.0003,0.00018,5,1
25144,0.00013,0.00012,0.00012,0.00025,0.00035,0.00043,0.0003,0.00018,5,1
25145,0.00013,0.00012,0.00012,0.00025,0.00035,0.00043,0.0003,0.00018,5,1
25146,0.00013,0.00012,0.00012,0.00025,0.00035,0.00043,0.0003,0.00018,5,1
25147,0.00013,0.00012,0.00012,0.00025,0.00035,0.00043,0.0003,0.00018,5,1
25148,0.00013,0.00012,0.00012,0.00025,0.00035,0.00043,0.0003,0.00018,5,1
25149,0.00013,0.00012,0.00012,0.00025,0.00035,0.00043,0.0003,0.00018,5,1
25150,0.00013,0.00012,0.00012,0.00025,0.00035,0.00043,0.0003,0.00018,5,1
25151,0.00013,0.00012,0.00012,0.00025,0.00035,0.00043,0.0003,0.00018,5,1
25152,0.00013,0.00012,0.00012,0.00025,0.00035,0.00043,0.0003,0.00018,5,1
25153,0.00013,0.00012,0.00012,0.00025,0.00035,0.00043,0.0003,0.00018,5,1
25154,0.00013,0.00012,0.00012,0.00025,0.00035,0.00043,0.0003,0.00018,5,1
25155,0.00013,0.00012,0.00012,0.00025,0.00035,0.00043,0.0003,0.00018,5,1
25156,0.00013,0.00012,0.00012,0.00025,0.00035,0.00043,0.0003,0.00018,5,1
25157,-1e-05,2e-05,-7e-05,0.00012,-0.00019,-0.00018,-8e-05,-3e-05,5,1
25158,-0.00012,-0.00022,-0.00027,-0.00022,-0.00026,-8e-05,-2e-05,1e-05,5,1
25159,-0.00012,-0.00022,-0.00027,-0.00022,-0.00026,-8e-05,-2e-05,1e-05,5,1
25160,-0.00012,-0.00022,-0.00027,-0.00022,-0.00026,-8e-05,-2e-05,1e-05,5,1
25161,-0.00012,-0.00022,-0.00027,-0.00022,-0.00026,-8e-05,-2e-05,1e-05,5,1
25162,-0.00012,-0.00022,-0.00027,-0.00022,-0.00026,-8e-05,-2e-05,1e-05,5,1
25163,-0.00012,-0.00022,-0.00027,-0.00022,-0.00026,-8e-05,-2e-05,1e-05,5,1
25164,-0.00012,-0.00022,-0.00027,-0.00022,-0.00026,-8e-05,-2e-05,1e-05,5,1
25165,-0.00012,-0.00022,-0.00027,-0.00022,-0.00026,-8e-05,-2e-05,1e-05,5,1
25166,-0.00012,-0.00022,-0.00027,-0.00022,-0.00026,-8e-05,-2e-05,1e-05,5,1
25167,-0.00012,-0.00022,-0.00027,-0.00022,-0.00026,-8e-05,-2e-05,1e-05,5,1
25168,-0.00012,-0.00022,-0.00027,-0.00022,-0.00026,-8e-05,-2e-05,1e-05,5,1
25169,-0.00012,-0.00022,-0.00027,-0.00022,-0.00026,-8e-05,-2e-05,1e-05,5,1
25170,-0.00012,-0.00022,-0.00027,-0.00022,-0.00026,-8e-05,-2e-05,1e-05,5,1
25171,-0.00012,-0.00022,-0.00027,-0.00022,-0.00026,-8e-05,-2e-05,1e-05,5,1
25172,-0.00012,-0.00022,-0.00027,-0.00022,-0.00026,-8e-05,-2e-05,1e-05,5,1
25173,-0.00012,-0.00022,-0.00027,-0.00022,-0.00026,-8e-05,-2e-05,1e-05,5,1
25174,-0.00012,-0.00022,-0.00027,-0.00022,-0.00026,-8e-05,-2e-05,1e-05,5,1
25175,-0.00012,-0.00022,-0.00027,-0.00022,-0.00026,-8e-05,-2e-05,1e-05,5,1
25176,-0.00012,-0.00022,-0.00027,-0.00022,-0.00026,-8e-05,-2e-05,1e-05,5,1
25177,-0.00012,-0.00022,-0.00027,-0.00022,-0.00026,-8e-05,-2e-05,1e-05,5,1
25178,-0.00012,-0.00022,-0.00027,-0.00022,-0.00026,-8e-05,-2e-05,1e-05,5,1
25179,-0.00012,-0.00022,-0.00027,-0.00022,-0.00026,-8e-05,-2e-05,1e-05,5,1
25180,-3e-05,0,-6e-05,-0.00015,0.00026,0.00017,6e-05,-1e-05,5,1
25181,6e-05,0.00023,0.00018,0.00021,5e-05,0.00018,0.00012,7e-05,5,1
25182,6e-05,0.00023,0.00018,0.00021,5e-05,0.00018,0.00012,7e-05,5,1
25183,6e-05,0.00023,0.00018,0.00021,5e-05,0.00018,0.00012,7e-05,5,1
25184,6e-05,0.00023,0.00018,0.00021,5e-05,0.00018,0.00012,7e-05,5,1
25185,6e-05,0.00023,0.00018,0.00021,5e-05,0.00018,0.00012,7e-05,5,1
25186,6e-05,0.00023,0.00018,0.00021,5e-05,0.00018,0.00012,7e-05,5,1
25188,6e-05,0.00023,0.00018,0.00021,5e-05,0.00018,0.00012,7e-05,5,1
25189,6e-05,0.00023,0.00018,0.00021,5e-05,0.00018,0.00012,7e-05,5,1
25190,6e-05,0.00023,0.00018,0.00021,5e-05,0.00018,0.00012,7e-05,5,1
25191,6e-05,0.00023,0.00018,0.00021,5e-05,0.00018,0.00012,7e-05,5,1
25192,6e-05,0.00023,0.00018,0.00021,5e-05,0.00018,0.00012,7e-05,5,1
25193,6e-05,0.00023,0.00018,0.00021,5e-05,0.00018,0.00012,7e-05,5,1
25194,6e-05,0.00023,0.00018,0.00021,5e-05,0.00018,0.00012,7e-05,5,1
25195,6e-05,0.00023,0.00018,0.00021,5e-05,0.00018,0.00012,7e-05,5,1
25196,6e-05,0.00023,0.00018,0.00021,5e-05,0.00018,0.00012,7e-05,5,1
25197,6e-05,0.00023,0.00018,0.00021,5e-05,0.00018,0.00012,7e-05,5,1
25198,6e-05,0.00023,0.00018,0.00021,5e-05,0.00018,0.00012,7e-05,5,1
25199,6e-05,0.00023,0.00018,0.00021,5e-05,0.00018,0.00012,7e-05,5,1
25200,6e-05,0.00023,0.00018,0.00021,5e-05,0.00018,0.00012,7e-05,5,1
25201,6e-05,0.00023,0.00018,0.00021,5e-05,0.00018,0.00012,7e-05,5,1
25202,6e-05,0.00023,0.00018,0.00021,5e-05,0.00018,0.00012,7e-05,5,1
25203,6e-05,0.00023,0.00018,0.00021,5e-05,0.00018,0.00012,7e-05,5,1
25204,-0.0001,-0.00023,-0.00041,-0.00044,0.00011,-0.00014,-0.0002,-0.00015,5,1
25205,-0.0001,-0.00023,-0.00041,-0.00044,0.00011,-0.00014,-0.0002,-0.00015,5,1
25206,-0.0001,-0.00023,-0.00041,-0.00044,0.00011,-0.00014,-0.0002,-0.00015,5,1
25207,-0.0001,-0.00023,-0.00041,-0.00044,0.00011,-0.00014,-0.0002,-0.00015,5,1
25208,-0.0001,-0.00023,-0.00041,-0.00044,0.00011,-0.00014,-0.0002,-0.00015,5,1
25209,-0.0001,-0.00023,-0.00041,-0.00044,0.00011,-0.00014,-0.0002,-0.00015,5,1
25210,-0.0001,-0.00023,-0.00041,-0.00044,0.00011,-0.00014,-0.0002,-0.00015,5,1
25211,-0.0001,-0.00023,-0.00041,-0.00044,0.00011,-0.00014,-0.0002,-0.00015,5,1
25212,-0.0001,-0.00023,-0.00041,-0.00044,0.00011,-0.00014,-0.0002,-0.00015,5,1
25213,-0.0001,-0.00023,-0.00041,-0.00044,0.00011,-0.00014,-0.0002,-0.00015,5,1
25214,-0.0001,-0.00023,-0.00041,-0.00044,0.00011,-0.00014,-0.0002,-0.00015,5,1
25215,-0.0001,-0.00023,-0.00041,-0.00044,0.00011,-0.00014,-0.0002,-0.00015,5,1
25216,-0.0001,-0.00023,-0.00041,-0.00044,0.00011,-0.00014,-0.0002,-0.00015,5,1
25217,-0.0001,-0.00023,-0.00041,-0.00044,0.00011,-0.00014,-0.0002,-0.00015,5,1
25218,-0.0001,-0.00023,-0.00041,-0.00044,0.00011,-0.00014,-0.0002,-0.00015,5,1
25219,-0.0001,-0.00023,-0.00041,-0.00044,0.00011,-0.00014,-0.0002,-0.00015,5,1
25220,-0.0001,-0.00023,-0.00041,-0.00044,0.00011,-0.00014,-0.0002,-0.00015,5,1
25221,-0.0001,-0.00023,-0.00041,-0.00044,0.00011,-0.00014,-0.0002,-0.00015,5,1
25222,-0.0001,-0.00023,-0.00041,-0.00044,0.00011,-0.00014,-0.0002,-0.00015,5,1
25223,-0.0001,-0.00023,-0.00041,-0.00044,0.00011,-0.00014,-0.0002,-0.00015,5,1
25224,-0.0001,-0.00023,-0.00041,-0.00044,0.00011,-0.00014,-0.0002,-0.00015,5,1
25225,-0.0001,-0.00023,-0.00041,-0.00044,0.00011,-0.00014,-0.0002,-0.00015,5,1
25226,6e-05,0.00015,6e-05,0.00012,0.00075,0.00036,0.00015,9e-05,5,1
25227,-8e-05,-0.00018,-0.0003,-0.00078,-0.00052,-0.00051,-0.0002,-0.00011,5,1
25228,-1e-05,-0.00014,-0.00013,0.00018,-1e-05,-1e-05,-3e-05,-4e-05,5,1
25229,-1e-05,-0.00014,-0.00013,0.00018,-1e-05,-1e-05,-3e-05,-4e-05,5,1
25230,-1e-05,-0.00014,-0.00013,0.00018,-1e-05,-1e-05,-3e-05,-4e-05,5,1
25231,-1e-05,-0.00014,-0.00013,0.00018,-1e-05,-1e-05,-3e-05,-4e-05,5,1
25232,-1e-05,-0.00014,-0.00013,0.00018,-1e-05,-1e-05,-3e-05,-4e-05,5,1
25233,-1e-05,-0.00014,-0.00013,0.00018,-1e-05,-1e-05,-3e-05,-4e-05,5,1
25234,-1e-05,-0.00014,-0.00013,0.00018,-1e-05,-1e-05,-3e-05,-4e-05,5,1
25235,-1e-05,-0.00014,-0.00013,0.00018,-1e-05,-1e-05,-3e-05,-4e-05,5,1
25236,-1e-05,-0.00014,-0.00013,0.00018,-1e-05,-1e-05,-3e-05,-4e-05,5,1
25238,-1e-05,-0.00014,-0.00013,0.00018,-1e-05,-1e-05,-3e-05,-4e-05,5,1
25239,3e-05,4e-05,-7e-05,-0.00057,-0.00051,-0.00031,-0.00019,-5e-05,5,1
25240,3e-05,4e-05,-7e-05,-0.00057,-0.00051,-0.00031,-0.00019,-5e-05,5,1
25241,3e-05,4e-05,-7e-05,-0.00057,-0.00051,-0.00031,-0.00019,-5e-05,5,1
25242,3e-05,4e-05,-7e-05,-0.00057,-0.00051,-0.00031,-0.00019,-5e-05,5,1
25243,3e-05,4e-05,-7e-05,-0.00057,-0.00051,-0.00031,-0.00019,-5e-05,5,1
25244,3e-05,4e-05,-7e-05,-0.00057,-0.00051,-0.00031,-0.00019,-5e-05,5,1
25245,3e-05,4e-05,-7e-05,-0.00057,-0.00051,-0.00031,-0.00019,-5e-05,5,1
25246,3e-05,4e-05,-7e-05,-0.00057,-0.00051,-0.00031,-0.00019,-5e-05,5,1
25247,3e-05,4e-05,-7e-05,-0.00057,-0.00051,-0.00031,-0.00019,-5e-05,5,1
25248,3e-05,4e-05,-7e-05,-0.00057,-0.00051,-0.00031,-0.00019,-5e-05,5,1
25249,3e-05,4e-05,-7e-05,-0.00057,-0.00051,-0.00031,-0.00019,-5e-05,5,1
25250,3e-05,4e-05,-7e-05,-0.00057,-0.00051,-0.00031,-0.00019,-5e-05,5,1
25251,3e-05,4e-05,-7e-05,-0.00057,-0.00051,-0.00031,-0.00019,-5e-05,5,1
25252,3e-05,4e-05,-7e-05,-0.00057,-0.00051,-0.00031,-0.00019,-5e-05,5,1
25253,3e-05,4e-05,-7e-05,-0.00057,-0.00051,-0.00031,-0.00019,-5e-05,5,1
25254,3e-05,4e-05,-7e-05,-0.00057,-0.00051,-0.00031,-0.00019,-5e-05,5,1
25255,3e-05,4e-05,-7e-05,-0.00057,-0.00051,-0.00031,-0.00019,-5e-05,5,1
25256,-5e-05,-3e-05,-0.00015,-0.00034,-0.00044,-6e-05,0,-4e-05,5,1
25257,-2e-05,5e-05,4e-05,5e-05,0.00019,-8e-05,-5e-05,1e-05,5,1
25258,1e-05,-6e-05,-8e-05,-0.00024,-7e-05,5e-05,-1e-05,0,5,1
25259,1e-05,-6e-05,-8e-05,-0.00024,-7e-05,5e-05,-1e-05,0,5,1
25260,1e-05,-6e-05,-8e-05,-0.00024,-7e-05,5e-05,-1e-05,0,5,1
25261,1e-05,-6e-05,-8e-05,-0.00024,-7e-05,5e-05,-1e-05,0,5,1
25262,1e-05,-6e-05,-8e-05,-0.00024,-7e-05,5e-05,-1e-05,0,5,1
25263,1e-05,-6e-05,-8e-05,-0.00024,-7e-05,5e-05,-1e-05,0,5,1
25264,1e-05,-6e-05,-8e-05,-0.00024,-7e-05,5e-05,-1e-05,0,5,1
25265,1e-05,-6e-05,-8e-05,-0.00024,-7e-05,5e-05,-1e-05,0,5,1
25266,1e-05,-6e-05,-8e-05,-0.00024,-7e-05,5e-05,-1e-05,0,5,1
25267,1e-05,-6e-05,-8e-05,-0.00024,-7e-05,5e-05,-1e-05,0,5,1
25268,1e-05,-6e-05,-8e-05,-0.00024,-7e-05,5e-05,-1e-05,0,5,1
25269,1e-05,-6e-05,-8e-05,-0.00024,-7e-05,5e-05,-1e-05,0,5,1
25270,1e-05,-6e-05,-8e-05,-0.00024,-7e-05,5e-05,-1e-05,0,5,1
25271,1e-05,-6e-05,-8e-05,-0.00024,-7e-05,5e-05,-1e-05,0,5,1
25272,1e-05,-6e-05,-8e-05,-0.00024,-7e-05,5e-05,-1e-05,0,5,1
25273,1e-05,-6e-05,-8e-05,-0.00024,-7e-05,5e-05,-1e-05,0,5,1
25274,1e-05,-6e-05,-8e-05,-0.00024,-7e-05,5e-05,-1e-05,0,5,1
25275,1e-05,-6e-05,-8e-05,-0.00024,-7e-05,5e-05,-1e-05,0,5,1
25276,1e-05,-6e-05,-8e-05,-0.00024,-7e-05,5e-05,-1e-05,0,5,1
25277,1e-05,-6e-05,-8e-05,-0.00024,-7e-05,5e-05,-1e-05,0,5,1
25278,-6e-05,2e-05,0.00013,0.00021,-2e-05,8e-05,5e-05,-5e-05,5,1
25279,-6e-05,2e-05,0.00013,0.00021,-2e-05,8e-05,5e-05,-5e-05,5,1
25280,3e-05,1e-05,0.00012,0.00025,0.0002,5e-05,8e-05,8e-05,5,1
25281,3e-05,1e-05,0.00012,0.00025,0.0002,5e-05,8e-05,8e-05,5,1
25282,3e-05,1e-05,0.00012,0.00025,0.0002,5e-05,8e-05,8e-05,5,1
25283,3e-05,1e-05,0.00012,0.00025,0.0002,5e-05,8e-05,8e-05,5,1
25284,3e-05,1e-05,0.00012,0.00025,0.0002,5e-05,8e-05,8e-05,5,1
25285,3e-05,1e-05,0.00012,0.00025,0.0002,5e-05,8e-05,8e-05,5,1
25286,3e-05,1e-05,0.00012,0.00025,0.0002,5e-05,8e-05,8e-05,5,1
25289,3e-05,1e-05,0.00012,0.00025,0.0002,5e-05,8e-05,8e-05,5,1
25290,3e-05,1e-05,0.00012,0.00025,0.0002,5e-05,8e-05,8e-05,5,1
25291,3e-05,1e-05,0.00012,0.00025,0.0002,5e-05,8e-05,8e-05,5,1
25292,3e-05,1e-05,0.00012,0.00025,0.0002,5e-05,8e-05,8e-05,5,1
25293,3e-05,1e-05,0.00012,0.00025,0.0002,5e-05,8e-05,8e-05,5,1
25294,3e-05,1e-05,0.00012,0.00025,0.0002,5e-05,8e-05,8e-05,5,1
25295,3e-05,1e-05,0.00012,0.00025,0.0002,5e-05,8e-05,8e-05,5,1
25296,3e-05,1e-05,0.00012,0.00025,0.0002,5e-05,8e-05,8e-05,5,1
25297,3e-05,1e-05,0.00012,0.00025,0.0002,5e-05,8e-05,8e-05,5,1
25298,3e-05,1e-05,0.00012,0.00025,0.0002,5e-05,8e-05,8e-05,5,1
25299,3e-05,1e-05,0.00012,0.00025,0.0002,5e-05,8e-05,8e-05,5,1
25300,3e-05,1e-05,0.00012,0.00025,0.0002,5e-05,8e-05,8e-05,5,1
25301,-5e-05,-0.00013,-0.00017,7e-05,0.00019,0.00031,7e-05,-1e-05,5,1
25302,-2e-05,2e-05,5e-05,0.00026,0.00013,-0.00014,-0.00011,-9e-05,5,1
25303,-2e-05,2e-05,5e-05,0.00026,0.00013,-0.00014,-0.00011,-9e-05,5,1
25304,-2e-05,2e-05,5e-05,0.00026,0.00013,-0.00014,-0.00011,-9e-05,5,1
25305,-2e-05,2e-05,5e-05,0.00026,0.00013,-0.00014,-0.00011,-9e-05,5,1
25306,-2e-05,2e-05,5e-05,0.00026,0.00013,-0.00014,-0.00011,-9e-05,5,1
25307,-2e-05,2e-05,5e-05,0.00026,0.00013,-0.00014,-0.00011,-9e-05,5,1
25308,-2e-05,2e-05,5e-05,0.00026,0.00013,-0.00014,-0.00011,-9e-05,5,1
25309,-2e-05,2e-05,5e-05,0.00026,0.00013,-0.00014,-0.00011,-9e-05,5,1
25310,-2e-05,2e-05,5e-05,0.00026,0.00013,-0.00014,-0.00011,-9e-05,5,1
25311,-2e-05,2e-05,5e-05,0.00026,0.00013,-0.00014,-0.00011,-9e-05,5,1
25312,-2e-05,2e-05,5e-05,0.00026,0.00013,-0.00014,-0.00011,-9e-05,5,1
25313,-2e-05,2e-05,5e-05,0.00026,0.00013,-0.00014,-0.00011,-9e-05,5,1
25314,-2e-05,2e-05,5e-05,0.00026,0.00013,-0.00014,-0.00011,-9e-05,5,1
25315,-2e-05,2e-05,5e-05,0.00026,0.00013,-0.00014,-0.00011,-9e-05,5,1
25316,-2e-05,2e-05,5e-05,0.00026,0.00013,-0.00014,-0.00011,-9e-05,5,1
25317,-2e-05,2e-05,5e-05,0.00026,0.00013,-0.00014,-0.00011,-9e-05,5,1
25318,-2e-05,2e-05,5e-05,0.00026,0.00013,-0.00014,-0.00011,-9e-05,5,1
25319,-2e-05,2e-05,5e-05,0.00026,0.00013,-0.00014,-0.00011,-9e-05,5,1
25320,-2e-05,2e-05,5e-05,0.00026,0.00013,-0.00014,-0.00011,-9e-05,5,1
25321,-2e-05,2e-05,5e-05,0.00026,0.00013,-0.00014,-0.00011,-9e-05,5,1
25322,-2e-05,2e-05,5e-05,0.00026,0.00013,-0.00014,-0.00011,-9e-05,5,1
25323,-2e-05,2e-05,5e-05,0.00026,0.00013,-0.00014,-0.00011,-9e-05,5,1
25324,-2e-05,2e-05,5e-05,0.00026,0.00013,-0.00014,-0.00011,-9e-05,5,1
25325,-2e-05,2e-05,5e-05,0.00026,0.00013,-0.00014,-0.00011,-9e-05,5,1
25326,-2e-05,2e-05,5e-05,0.00026,0.00013,-0.00014,-0.00011,-9e-05,5,1
25327,-2e-05,2e-05,5e-05,0.00026,0.00013,-0.00014,-0.00011,-9e-05,5,1
25328,-2e-05,2e-05,5e-05,0.00026,0.00013,-0.00014,-0.00011,-9e-05,5,1
25329,-2e-05,2e-05,5e-05,0.00026,0.00013,-0.00014,-0.00011,-9e-05,5,1
25330,1e-05,-5e-05,-0.00012,0.00014,0.00042,0.00013,0.0001,3e-05,5,1
25331,-4e-05,-8e-05,-0.00014,-0.00051,-0.0003,-0.00031,-0.00018,-6e-05,5,1
25332,-4e-05,-8e-05,-0.00014,-0.00051,-0.0003,-0.00031,-0.00018,-6e-05,5,1
25333,-4e-05,-8e-05,-0.00014,-0.00051,-0.0003,-0.00031,-0.00018,-6e-05,5,1
25334,-4e-05,-8e-05,-0.00014,-0.00051,-0.0003,-0.00031,-0.00018,-6e-05,5,1
25335,-4e-05,-8e-05,-0.00014,-0.00051,-0.0003,-0.00031,-0.00018,-6e-05,5,1
25336,-4e-05,-8e-05,-0.00014,-0.00051,-0.0003,-0.00031,-0.00018,-6e-05,5,1
25338,-4e-05,-8e-05,-0.00014,-0.00051,-0.0003,-0.00031,-0.00018,-6e-05,5,1
25339,-4e-05,-8e-05,-0.00014,-0.00051,-0.0003,-0.00031,-0.00018,-6e-05,5,1
25340,-4e-05,-8e-05,-0.00014,-0.00051,-0.0003,-0.00031,-0.00018,-6e-05,5,1
25341,-4e-05,-8e-05,-0.00014,-0.00051,-0.0003,-0.00031,-0.00018,-6e-05,5,1
25342,-4e-05,-8e-05,-0.00014,-0.00051,-0.0003,-0.00031,-0.00018,-6e-05,5,1
25343,-4e-05,-8e-05,-0.00014,-0.00051,-0.0003,-0.00031,-0.00018,-6e-05,5,1
25345,-4e-05,-8e-05,-0.00014,-0.00051,-0.0003,-0.00031,-0.00018,-6e-05,5,1
25346,-4e-05,-8e-05,-0.00014,-0.00051,-0.0003,-0.00031,-0.00018,-6e-05,5,1
25347,-4e-05,-8e-05,-0.00014,-0.00051,-0.0003,-0.00031,-0.00018,-6e-05,5,1
25348,-4e-05,-8e-05,-0.00014,-0.00051,-0.0003,-0.00031,-0.00018,-6e-05,5,1
25349,-4e-05,-8e-05,-0.00014,-0.00051,-0.0003,-0.00031,-0.00018,-6e-05,5,1
25350,-4e-05,-8e-05,-0.00014,-0.00051,-0.0003,-0.00031,-0.00018,-6e-05,5,1
25351,-4e-05,-8e-05,-0.00014,-0.00051,-0.0003,-0.00031,-0.00018,-6e-05,5,1
25352,-4e-05,-8e-05,-0.00014,-0.00051,-0.0003,-0.00031,-0.00018,-6e-05,5,1
25353,0,-0.00017,-0.00037,-0.00034,-0.00022,-0.00027,-8e-05,-2e-05,5,1
25354,5e-05,0.00013,0.00026,0.00036,0.00036,0.0001,3e-05,-5e-05,5,1
25355,5e-05,0.00013,0.00026,0.00036,0.00036,0.0001,3e-05,-5e-05,5,1
25356,5e-05,0.00013,0.00026,0.00036,0.00036,0.0001,3e-05,-5e-05,5,1
25357,5e-05,0.00013,0.00026,0.00036,0.00036,0.0001,3e-05,-5e-05,5,1
25358,5e-05,0.00013,0.00026,0.00036,0.00036,0.0001,3e-05,-5e-05,5,1
25359,5e-05,0.00013,0.00026,0.00036,0.00036,0.0001,3e-05,-5e-05,5,1
25360,5e-05,0.00013,0.00026,0.00036,0.00036,0.0001,3e-05,-5e-05,5,1
25361,5e-05,0.00013,0.00026,0.00036,0.00036,0.0001,3e-05,-5e-05,5,1
25362,5e-05,0.00013,0.00026,0.00036,0.00036,0.0001,3e-05,-5e-05,5,1
25363,5e-05,0.00013,0.00026,0.00036,0.00036,0.0001,3e-05,-5e-05,5,1
25364,5e-05,0.00013,0.00026,0.00036,0.00036,0.0001,3e-05,-5e-05,5,1
25365,5e-05,0.00013,0.00026,0.00036,0.00036,0.0001,3e-05,-5e-05,5,1
25366,5e-05,0.00013,0.00026,0.00036,0.00036,0.0001,3e-05,-5e-05,5,1
25367,5e-05,0.00013,0.00026,0.00036,0.00036,0.0001,3e-05,-5e-05,5,1
25368,-0.0001,-0.00011,4e-05,-5e-05,-0.00048,-3e-05,5e-05,3e-05,5,1
25369,-0.0001,-0.00011,4e-05,-5e-05,-0.00048,-3e-05,5e-05,3e-05,5,1
25370,-0.0001,-0.00011,4e-05,-5e-05,-0.00048,-3e-05,5e-05,3e-05,5,1
25371,-0.0001,-0.00011,4e-05,-5e-05,-0.00048,-3e-05,5e-05,3e-05,5,1
25372,-0.0001,-0.00011,4e-05,-5e-05,-0.00048,-3e-05,5e-05,3e-05,5,1
25373,-0.0001,-0.00011,4e-05,-5e-05,-0.00048,-3e-05,5e-05,3e-05,5,1
25374,-0.0001,-0.00011,4e-05,-5e-05,-0.00048,-3e-05,5e-05,3e-05,5,1
25375,1e-05,6e-05,0.00031,0.00045,0.00029,0.00021,0.00011,5e-05,5,1
25376,1e-05,6e-05,0.00031,0.00045,0.00029,0.00021,0.00011,5e-05,5,1
25377,1e-05,6e-05,0.00031,0.00045,0.00029,0.00021,0.00011,5e-05,5,1
25378,1e-05,6e-05,0.00031,0.00045,0.00029,0.00021,0.00011,5e-05,5,1
25379,1e-05,6e-05,0.00031,0.00045,0.00029,0.00021,0.00011,5e-05,5,1
25380,1e-05,6e-05,0.00031,0.00045,0.00029,0.00021,0.00011,5e-05,5,1
25381,1e-05,6e-05,0.00031,0.00045,0.00029,0.00021,0.00011,5e-05,5,1
25382,1e-05,6e-05,0.00031,0.00045,0.00029,0.00021,0.00011,5e-05,5,1
25383,1e-05,0.0001,0.00019,0.00022,-0.00014,-0.0001,-5e-05,-3e-05,5,1
25384,1e-05,0.0001,0.00019,0.00022,-0.00014,-0.0001,-5e-05,-3e-05,5,1
25385,1e-05,0.0001,0.00019,0.00022,-0.00014,-0.0001,-5e-05,-3e-05,5,1
25386,1e-05,0.0001,0.00019,0.00022,-0.00014,-0.0001,-5e-05,-3e-05,5,1
25388,1e-05,0.0001,0.00019,0.00022,-0.00014,-0.0001,-5e-05,-3e-05,5,1
25389,1e-05,0.0001,0.00019,0.00022,-0.00014,-0.0001,-5e-05,-3e-05,5,1
25390,1e-05,0.0001,0.00019,0.00022,-0.00014,-0.0001,-5e-05,-3e-05,5,1
25391,1e-05,0.0001,0.00019,0.00022,-0.00014,-0.0001,-5e-05,-3e-05,5,1
25392,1e-05,0.0001,0.00019,0.00022,-0.00014,-0.0001,-5e-05,-3e-05,5,1
25393,1e-05,0.0001,0.00019,0.00022,-0.00014,-0.0001,-5e-05,-3e-05,5,1
25394,1e-05,0.0001,0.00019,0.00022,-0.00014,-0.0001,-5e-05,-3e-05,5,1
25395,1e-05,0.0001,0.00019,0.00022,-0.00014,-0.0001,-5e-05,-3e-05,5,1
25396,1e-05,0.0001,0.00019,0.00022,-0.00014,-0.0001,-5e-05,-3e-05,5,1
25397,1e-05,0.0001,0.00019,0.00022,-0.00014,-0.0001,-5e-05,-3e-05,5,1
25398,1e-05,0.0001,0.00019,0.00022,-0.00014,-0.0001,-5e-05,-3e-05,5,1
25399,1e-05,0.0001,0.00019,0.00022,-0.00014,-0.0001,-5e-05,-3e-05,5,1
25400,1e-05,0.0001,0.00019,0.00022,-0.00014,-0.0001,-5e-05,-3e-05,5,1
25401,1e-05,0.0001,0.00019,0.00022,-0.00014,-0.0001,-5e-05,-3e-05,5,1
25402,1e-05,0.0001,0.00019,0.00022,-0.00014,-0.0001,-5e-05,-3e-05,5,1
25403,1e-05,0.0001,0.00019,0.00022,-0.00014,-0.0001,-5e-05,-3e-05,5,1
25404,1e-05,0.0001,0.00019,0.00022,-0.00014,-0.0001,-5e-05,-3e-05,5,1
25405,1e-05,0.0001,0.00019,0.00022,-0.00014,-0.0001,-5e-05,-3e-05,5,1
25406,-4e-05,-1e-05,-5e-05,-7e-05,-1e-05,6e-05,-5e-05,-5e-05,5,1
25407,0.00011,0.00012,0.00018,-0.00045,-0.00077,-0.00023,-9e-05,6e-05,5,1
25408,1e-05,-7e-05,-0.00023,-0.00017,0.00023,8e-05,4e-05,-1e-05,5,1
25409,4e-05,0.0003,0.00052,0.00044,0.00047,0.00012,6e-05,-3e-05,5,1
25410,4e-05,0.0003,0.00052,0.00044,0.00047,0.00012,6e-05,-3e-05,5,1
25411,4e-05,0.0003,0.00052,0.00044,0.00047,0.00012,6e-05,-3e-05,5,1
25412,4e-05,0.0003,0.00052,0.00044,0.00047,0.00012,6e-05,-3e-05,5,1
25413,4e-05,0.0003,0.00052,0.00044,0.00047,0.00012,6e-05,-3e-05,5,1
25414,4e-05,0.0003,0.00052,0.00044,0.00047,0.00012,6e-05,-3e-05,5,1
25415,4e-05,0.0003,0.00052,0.00044,0.00047,0.00012,6e-05,-3e-05,5,1
25416,4e-05,0.0003,0.00052,0.00044,0.00047,0.00012,6e-05,-3e-05,5,1
25417,4e-05,0.0003,0.00052,0.00044,0.00047,0.00012,6e-05,-3e-05,5,1
25418,4e-05,0.0003,0.00052,0.00044,0.00047,0.00012,6e-05,-3e-05,5,1
25419,4e-05,0.0003,0.00052,0.00044,0.00047,0.00012,6e-05,-3e-05,5,1
25420,4e-05,0.0003,0.00052,0.00044,0.00047,0.00012,6e-05,-3e-05,5,1
25421,4e-05,0.0003,0.00052,0.00044,0.00047,0.00012,6e-05,-3e-05,5,1
25422,4e-05,0.0003,0.00052,0.00044,0.00047,0.00012,6e-05,-3e-05,5,1
25423,4e-05,0.0003,0.00052,0.00044,0.00047,0.00012,6e-05,-3e-05,5,1
25424,4e-05,0.0003,0.00052,0.00044,0.00047,0.00012,6e-05,-3e-05,5,1
25425,4e-05,0.0003,0.00052,0.00044,0.00047,0.00012,6e-05,-3e-05,5,1
25426,4e-05,0.0003,0.00052,0.00044,0.00047,0.00012,6e-05,-3e-05,5,1
25427,4e-05,0.0003,0.00052,0.00044,0.00047,0.00012,6e-05,-3e-05,5,1
25428,4e-05,0.0003,0.00052,0.00044,0.00047,0.00012,6e-05,-3e-05,5,1
25429,-1e-05,0,0.00011,8e-05,0.0004,0.00022,8e-05,6e-05,5,1
25430,-0.00011,-0.00027,-0.00051,-0.00023,-0.00034,-0.00035,-0.00016,-8e-05,5,1
25431,-0.00011,-0.00027,-0.00051,-0.00023,-0.00034,-0.00035,-0.00016,-8e-05,5,1
25432,-0.00011,-0.00027,-0.00051,-0.00023,-0.00034,-0.00035,-0.00016,-8e-05,5,1
25433,-0.00011,-0.00027,-0.00051,-0.00023,-0.00034,-0.00035,-0.00016,-8e-05,5,1
25434,-0.00011,-0.00027,-0.00051,-0.00023,-0.00034,-0.00035,-0.00016,-8e-05,5,1
25435,-0.00011,-0.00027,-0.00051,-0.00023,-0.00034,-0.00035,-0.00016,-8e-05,5,1
25436,-0.00011,-0.00027,-0.00051,-0.00023,-0.00034,-0.00035,-0.00016,-8e-05,5,1
25439,-0.00011,-0.00027,-0.00051,-0.00023,-0.00034,-0.00035,-0.00016,-8e-05,5,1
25440,-0.00011,-0.00027,-0.00051,-0.00023,-0.00034,-0.00035,-0.00016,-8e-05,5,1
25441,-0.00011,-0.00027,-0.00051,-0.00023,-0.00034,-0.00035,-0.00016,-8e-05,5,1
25442,-0.00011,-0.00027,-0.00051,-0.00023,-0.00034,-0.00035,-0.00016,-8e-05,5,1
25443,-0.00011,-0.00027,-0.00051,-0.00023,-0.00034,-0.00035,-0.00016,-8e-05,5,1
25444,-0.00011,-0.00025,-0.00036,-0.00012,-0.00029,-0.00015,-0.00014,-7e-05,5,1
25445,-0.00011,-0.00025,-0.00036,-0.00012,-0.00029,-0.00015,-0.00014,-7e-05,5,1
25446,-0.00011,-0.00025,-0.00036,-0.00012,-0.00029,-0.00015,-0.00014,-7e-05,5,1
25447,-0.00011,-0.00025,-0.00036,-0.00012,-0.00029,-0.00015,-0.00014,-7e-05,5,1
25448,-0.00011,-0.00025,-0.00036,-0.00012,-0.00029,-0.00015,-0.00014,-7e-05,5,1
25449,-0.00011,-0.00025,-0.00036,-0.00012,-0.00029,-0.00015,-0.00014,-7e-05,5,1
25450,-0.00011,-0.00025,-0.00036,-0.00012,-0.00029,-0.00015,-0.00014,-7e-05,5,1
25451,-0.00011,-0.00025,-0.00036,-0.00012,-0.00029,-0.00015,-0.00014,-7e-05,5,1
25452,-0.00011,-0.00025,-0.00036,-0.00012,-0.00029,-0.00015,-0.00014,-7e-05,5,1
25453,-0.00011,-0.00025,-0.00036,-0.00012,-0.00029,-0.00015,-0.00014,-7e-05,5,1
25454,-0.00011,-0.00025,-0.00036,-0.00012,-0.00029,-0.00015,-0.00014,-7e-05,5,1
25455,-0.00011,-0.00025,-0.00036,-0.00012,-0.00029,-0.00015,-0.00014,-7e-05,5,1
25456,-0.00011,-0.00025,-0.00036,-0.00012,-0.00029,-0.00015,-0.00014,-7e-05,5,1
25457,-0.00011,-0.00025,-0.00036,-0.00012,-0.00029,-0.00015,-0.00014,-7e-05,5,1
25458,7e-05,0.00022,0.00041,0.00058,0.00061,0.00032,0.00013,8e-05,5,1
25459,1e-05,-0.00016,-0.00029,-0.00016,-0.0001,-4e-05,7e-05,5e-05,5,1
25460,1e-05,-0.00016,-0.00029,-0.00016,-0.0001,-4e-05,7e-05,5e-05,5,1
25461,1e-05,-0.00016,-0.00029,-0.00016,-0.0001,-4e-05,7e-05,5e-05,5,1
25462,1e-05,-0.00016,-0.00029,-0.00016,-0.0001,-4e-05,7e-05,5e-05,5,1
25463,1e-05,-0.00016,-0.00029,-0.00016,-0.0001,-4e-05,7e-05,5e-05,5,1
25464,1e-05,-0.00016,-0.00029,-0.00016,-0.0001,-4e-05,7e-05,5e-05,5,1
25465,1e-05,-0.00016,-0.00029,-0.00016,-0.0001,-4e-05,7e-05,5e-05,5,1
25466,1e-05,-0.00016,-0.00029,-0.00016,-0.0001,-4e-05,7e-05,5e-05,5,1
25467,1e-05,-0.00016,-0.00029,-0.00016,-0.0001,-4e-05,7e-05,5e-05,5,1
25468,1e-05,-0.00016,-0.00029,-0.00016,-0.0001,-4e-05,7e-05,5e-05,5,1
25469,1e-05,-0.00016,-0.00029,-0.00016,-0.0001,-4e-05,7e-05,5e-05,5,1
25470,1e-05,-0.00016,-0.00029,-0.00016,-0.0001,-4e-05,7e-05,5e-05,5,1
25471,1e-05,-0.00016,-0.00029,-0.00016,-0.0001,-4e-05,7e-05,5e-05,5,1
25472,1e-05,-0.00016,-0.00029,-0.00016,-0.0001,-4e-05,7e-05,5e-05,5,1
25473,1e-05,-0.00016,-0.00029,-0.00016,-0.0001,-4e-05,7e-05,5e-05,5,1
25474,1e-05,-0.00016,-0.00029,-0.00016,-0.0001,-4e-05,7e-05,5e-05,5,1
25475,1e-05,-0.00016,-0.00029,-0.00016,-0.0001,-4e-05,7e-05,5e-05,5,1
25476,1e-05,-0.00016,-0.00029,-0.00016,-0.0001,-4e-05,7e-05,5e-05,5,1
25477,1e-05,-0.00016,-0.00029,-0.00016,-0.0001,-4e-05,7e-05,5e-05,5,1
25478,1e-05,-0.00016,-0.00029,-0.00016,-0.0001,-4e-05,7e-05,5e-05,5,1
25479,1e-05,-0.00016,-0.00029,-0.00016,-0.0001,-4e-05,7e-05,5e-05,5,1
25480,1e-05,-0.00016,-0.00029,-0.00016,-0.0001,-4e-05,7e-05,5e-05,5,1
25481,1e-05,-0.00016,-0.00029,-0.00016,-0.0001,-4e-05,7e-05,5e-05,5,1
25482,-1e-05,0,-5e-05,0.00011,-4e-05,-0.00014,-0.00011,-3e-05,5,1
25483,-0.00013,-0.00029,-0.00013,0.00031,0.00053,0.0001,4e-05,-4e-05,5,1
25484,-0.00013,-0.00029,-0.00013,0.00031,0.00053,0.0001,4e-05,-4e-05,5,1
25485,-0.00013,-0.00029,-0.00013,0.00031,0.00053,0.0001,4e-05,-4e-05,5,1
25486,-0.00013,-0.00029,-0.00013,0.00031,0.00053,0.0001,4e-05,-4e-05,5,1
25489,-0.00013,-0.00029,-0.00013,0.00031,0.00053,0.0001,4e-05,-4e-05,5,1
25490,-0.00013,-0.00029,-0.00013,0.00031,0.00053,0.0001,4e-05,-4e-05,5,1
25491,-0.00013,-0.00029,-0.00013,0.00031,0.00053,0.0001,4e-05,-4e-05,5,1
25492,-0.00013,-0.00029,-0.00013,0.00031,0.00053,0.0001,4e-05,-4e-05,5,1
25493,-0.00013,-0.00029,-0.00013,0.00031,0.00053,0.0001,4e-05,-4e-05,5,1
25494,-0.00013,-0.00029,-0.00013,0.00031,0.00053,0.0001,4e-05,-4e-05,5,1
25495,-0.00013,-0.00029,-0.00013,0.00031,0.00053,0.0001,4e-05,-4e-05,5,1
25496,-0.00013,-0.00029,-0.00013,0.00031,0.00053,0.0001,4e-05,-4e-05,5,1
25497,-0.00013,-0.00029,-0.00013,0.00031,0.00053,0.0001,4e-05,-4e-05,5,1
25498,-0.00013,-0.00029,-0.00013,0.00031,0.00053,0.0001,4e-05,-4e-05,5,1
25499,-0.00013,-0.00029,-0.00013,0.00031,0.00053,0.0001,4e-05,-4e-05,5,1
25500,-0.00013,-0.00029,-0.00013,0.00031,0.00053,0.0001,4e-05,-4e-05,5,1
25501,-0.00013,-0.00029,-0.00013,0.00031,0.00053,0.0001,4e-05,-4e-05,5,1
25502,-0.00013,-0.00029,-0.00013,0.00031,0.00053,0.0001,4e-05,-4e-05,5,1
25503,-7e-05,-0.00031,-6e-05,-0.0003,-0.00042,-0.00015,-2e-05,2e-05,5,1
25504,6e-05,0.00015,0.00016,0.0003,0.00036,0.00038,9e-05,7e-05,5,1
25505,6e-05,0.00015,0.00016,0.0003,0.00036,0.00038,9e-05,7e-05,5,1
25506,6e-05,0.00015,0.00016,0.0003,0.00036,0.00038,9e-05,7e-05,5,1
25507,6e-05,0.00015,0.00016,0.0003,0.00036,0.00038,9e-05,7e-05,5,1
25508,6e-05,0.00015,0.00016,0.0003,0.00036,0.00038,9e-05,7e-05,5,1
25509,6e-05,0.00015,0.00016,0.0003,0.00036,0.00038,9e-05,7e-05,5,1
25510,6e-05,0.00015,0.00016,0.0003,0.00036,0.00038,9e-05,7e-05,5,1
25511,6e-05,0.00015,0.00016,0.0003,0.00036,0.00038,9e-05,7e-05,5,1
25512,6e-05,0.00015,0.00016,0.0003,0.00036,0.00038,9e-05,7e-05,5,1
25513,6e-05,0.00015,0.00016,0.0003,0.00036,0.00038,9e-05,7e-05,5,1
25514,6e-05,0.00015,0.00016,0.0003,0.00036,0.00038,9e-05,7e-05,5,1
25515,6e-05,0.00015,0.00016,0.0003,0.00036,0.00038,9e-05,7e-05,5,1
25516,6e-05,0.00015,0.00016,0.0003,0.00036,0.00038,9e-05,7e-05,5,1
25517,6e-05,0.00015,0.00016,0.0003,0.00036,0.00038,9e-05,7e-05,5,1
25518,6e-05,0.00015,0.00016,0.0003,0.00036,0.00038,9e-05,7e-05,5,1
25519,6e-05,0.00015,0.00016,0.0003,0.00036,0.00038,9e-05,7e-05,5,1
25520,6e-05,0.00015,0.00016,0.0003,0.00036,0.00038,9e-05,7e-05,5,1
25521,6e-05,0.00015,0.00016,0.0003,0.00036,0.00038,9e-05,7e-05,5,1
25522,6e-05,0.00015,0.00016,0.0003,0.00036,0.00038,9e-05,7e-05,5,1
25523,6e-05,0.00015,0.00016,0.0003,0.00036,0.00038,9e-05,7e-05,5,1
25524,6e-05,0.00015,0.00016,0.0003,0.00036,0.00038,9e-05,7e-05,5,1
25525,6e-05,0.00015,0.00016,0.0003,0.00036,0.00038,9e-05,7e-05,5,1
25526,6e-05,0.00015,0.00016,0.0003,0.00036,0.00038,9e-05,7e-05,5,1
25527,6e-05,0.00015,0.00016,0.0003,0.00036,0.00038,9e-05,7e-05,5,1
25528,6e-05,0.00015,0.00016,0.0003,0.00036,0.00038,9e-05,7e-05,5,1
25529,6e-05,0.00015,0.00016,0.0003,0.00036,0.00038,9e-05,7e-05,5,1
25530,6e-05,0.00015,0.00016,0.0003,0.00036,0.00038,9e-05,7e-05,5,1
25531,6e-05,0.00015,0.00016,0.0003,0.00036,0.00038,9e-05,7e-05,5,1
25532,6e-05,0.00015,0.00016,0.0003,0.00036,0.00038,9e-05,7e-05,5,1
25533,1e-05,1e-05,-6e-05,-0.00011,8e-05,-0.00017,-6e-05,-3e-05,5,1
25534,1e-05,1e-05,-6e-05,-0.00011,8e-05,-0.00017,-6e-05,-3e-05,5,1
25535,1e-05,1e-05,-6e-05,-0.00011,8e-05,-0.00017,-6e-05,-3e-05,5,1
25536,1e-05,1e-05,-6e-05,-0.00011,8e-05,-0.00017,-6e-05,-3e-05,5,1
25539,1e-05,1e-05,-6e-05,-0.00011,8e-05,-0.00017,-6e-05,-3e-05,5,1
25540,1e-05,1e-05,-6e-05,-0.00011,8e-05,-0.00017,-6e-05,-3e-05,5,1
25541,1e-05,1e-05,-6e-05,-0.00011,8e-05,-0.00017,-6e-05,-3e-05,5,1
25542,1e-05,1e-05,-6e-05,-0.00011,8e-05,-0.00017,-6e-05,-3e-05,5,1
25543,1e-05,1e-05,-6e-05,-0.00011,8e-05,-0.00017,-6e-05,-3e-05,5,1
25544,1e-05,1e-05,-6e-05,-0.00011,8e-05,-0.00017,-6e-05,-3e-05,5,1
25545,1e-05,1e-05,-6e-05,-0.00011,8e-05,-0.00017,-6e-05,-3e-05,5,1
25546,1e-05,1e-05,-6e-05,-0.00011,8e-05,-0.00017,-6e-05,-3e-05,5,1
25547,1e-05,1e-05,-6e-05,-0.00011,8e-05,-0.00017,-6e-05,-3e-05,5,1
25548,1e-05,1e-05,-6e-05,-0.00011,8e-05,-0.00017,-6e-05,-3e-05,5,1
25549,1e-05,1e-05,-6e-05,-0.00011,8e-05,-0.00017,-6e-05,-3e-05,5,1
25550,1e-05,1e-05,-6e-05,-0.00011,8e-05,-0.00017,-6e-05,-3e-05,5,1
25551,1e-05,1e-05,-6e-05,-0.00011,8e-05,-0.00017,-6e-05,-3e-05,5,1
25552,1e-05,1e-05,-6e-05,-0.00011,8e-05,-0.00017,-6e-05,-3e-05,5,1
25553,1e-05,1e-05,-6e-05,-0.00011,8e-05,-0.00017,-6e-05,-3e-05,5,1
25554,1e-05,1e-05,-6e-05,-0.00011,8e-05,-0.00017,-6e-05,-3e-05,5,1
25555,1e-05,1e-05,-6e-05,-0.00011,8e-05,-0.00017,-6e-05,-3e-05,5,1
25556,-5e-05,-0.00015,-0.00028,-0.0001,2e-05,-3e-05,-2e-05,-6e-05,5,1
25557,7e-05,0.00011,3e-05,-0.0003,-0.00075,0,9e-05,5e-05,5,1
25558,7e-05,0.00011,3e-05,-0.0003,-0.00075,0,9e-05,5e-05,5,1
25559,-3e-05,1e-05,-4e-05,0.00016,-3e-05,-0.00023,-0.00012,-7e-05,5,1
25560,-3e-05,1e-05,-4e-05,0.00016,-3e-05,-0.00023,-0.00012,-7e-05,5,1
25561,-3e-05,1e-05,-4e-05,0.00016,-3e-05,-0.00023,-0.00012,-7e-05,5,1
25562,-3e-05,1e-05,-4e-05,0.00016,-3e-05,-0.00023,-0.00012,-7e-05,5,1
25563,-3e-05,1e-05,-4e-05,0.00016,-3e-05,-0.00023,-0.00012,-7e-05,5,1
25564,-3e-05,1e-05,-4e-05,0.00016,-3e-05,-0.00023,-0.00012,-7e-05,5,1
25565,-3e-05,1e-05,-4e-05,0.00016,-3e-05,-0.00023,-0.00012,-7e-05,5,1
25566,-3e-05,1e-05,-4e-05,0.00016,-3e-05,-0.00023,-0.00012,-7e-05,5,1
25567,-3e-05,1e-05,-4e-05,0.00016,-3e-05,-0.00023,-0.00012,-7e-05,5,1
25568,-3e-05,1e-05,-4e-05,0.00016,-3e-05,-0.00023,-0.00012,-7e-05,5,1
25569,-3e-05,1e-05,-4e-05,0.00016,-3e-05,-0.00023,-0.00012,-7e-05,5,1
25570,4e-05,0.00012,0.00018,-0.00017,-0.00028,-2e-05,4e-05,5e-05,5,1
25571,4e-05,0.00012,0.00018,-0.00017,-0.00028,-2e-05,4e-05,5e-05,5,1
25572,4e-05,0.00012,0.00018,-0.00017,-0.00028,-2e-05,4e-05,5e-05,5,1
25573,4e-05,0.00012,0.00018,-0.00017,-0.00028,-2e-05,4e-05,5e-05,5,1
25574,4e-05,0.00012,0.00018,-0.00017,-0.00028,-2e-05,4e-05,5e-05,5,1
25575,4e-05,0.00012,0.00018,-0.00017,-0.00028,-2e-05,4e-05,5e-05,5,1
25576,4e-05,0.00012,0.00018,-0.00017,-0.00028,-2e-05,4e-05,5e-05,5,1
25577,4e-05,0.00012,0.00018,-0.00017,-0.00028,-2e-05,4e-05,5e-05,5,1
25578,3e-05,0.00018,0.00035,3e-05,-0.00014,-0.00017,-3e-05,-1e-05,5,1
25579,1e-05,1e-05,-1e-05,0.00017,0.0002,-4e-05,-9e-05,-4e-05,5,1
25580,1e-05,1e-05,-1e-05,0.00017,0.0002,-4e-05,-9e-05,-4e-05,5,1
25581,1e-05,1e-05,-1e-05,0.00017,0.0002,-4e-05,-9e-05,-4e-05,5,1
25582,1e-05,1e-05,-1e-05,0.00017,0.0002,-4e-05,-9e-05,-4e-05,5,1
25583,1e-05,1e-05,-1e-05,0.00017,0.0002,-4e-05,-9e-05,-4e-05,5,1
25584,1e-05,1e-05,-1e-05,0.00017,0.0002,-4e-05,-9e-05,-4e-05,5,1
25585,1e-05,1e-05,-1e-05,0.00017,0.0002,-4e-05,-9e-05,-4e-05,5,1
25586,1e-05,1e-05,-1e-05,0.00017,0.0002,-4e-05,-9e-05,-4e-05,5,1
25588,1e-05,1e-05,-1e-05,0.00017,0.0002,-4e-05,-9e-05,-4e-05,5,1
25589,1e-05,1e-05,-1e-05,0.00017,0.0002,-4e-05,-9e-05,-4e-05,5,1
25590,1e-05,1e-05,-1e-05,0.00017,0.0002,-4e-05,-9e-05,-4e-05,5,1
25591,1e-05,1e-05,-1e-05,0.00017,0.0002,-4e-05,-9e-05,-4e-05,5,1
25592,1e-05,1e-05,-1e-05,0.00017,0.0002,-4e-05,-9e-05,-4e-05,5,1
25593,1e-05,1e-05,-1e-05,0.00017,0.0002,-4e-05,-9e-05,-4e-05,5,1
25594,1e-05,1e-05,-1e-05,0.00017,0.0002,-4e-05,-9e-05,-4e-05,5,1
25595,1e-05,1e-05,-1e-05,0.00017,0.0002,-4e-05,-9e-05,-4e-05,5,1
25596,1e-05,1e-05,-1e-05,0.00017,0.0002,-4e-05,-9e-05,-4e-05,5,1
25597,1e-05,1e-05,-1e-05,0.00017,0.0002,-4e-05,-9e-05,-4e-05,5,1
25598,1e-05,1e-05,-1e-05,0.00017,0.0002,-4e-05,-9e-05,-4e-05,5,1
25599,1e-05,1e-05,-1e-05,0.00017,0.0002,-4e-05,-9e-05,-4e-05,5,1
25600,1e-05,1e-05,-1e-05,0.00017,0.0002,-4e-05,-9e-05,-4e-05,5,1
25601,1e-05,1e-05,-1e-05,0.00017,0.0002,-4e-05,-9e-05,-4e-05,5,1
25602,1e-05,1e-05,-1e-05,0.00017,0.0002,-4e-05,-9e-05,-4e-05,5,1
25603,1e-05,1e-05,-1e-05,0.00017,0.0002,-4e-05,-9e-05,-4e-05,5,1
25604,1e-05,1e-05,-1e-05,0.00017,0.0002,-4e-05,-9e-05,-4e-05,5,1
25605,1e-05,1e-05,-1e-05,0.00017,0.0002,-4e-05,-9e-05,-4e-05,5,1
25606,1e-05,1e-05,-1e-05,0.00017,0.0002,-4e-05,-9e-05,-4e-05,5,1
25607,1e-05,1e-05,-1e-05,0.00017,0.0002,-4e-05,-9e-05,-4e-05,5,1
25608,0,3e-05,-4e-05,9e-05,0.00023,5e-05,-4e-05,-4e-05,5,1
25609,-5e-05,-2e-05,7e-05,-2e-05,6e-05,-0.00013,-8e-05,-6e-05,5,1
25610,-5e-05,-2e-05,7e-05,-2e-05,6e-05,-0.00013,-8e-05,-6e-05,5,1
25611,-5e-05,-2e-05,7e-05,-2e-05,6e-05,-0.00013,-8e-05,-6e-05,5,1
25612,-5e-05,-2e-05,7e-05,-2e-05,6e-05,-0.00013,-8e-05,-6e-05,5,1
25613,-5e-05,-2e-05,7e-05,-2e-05,6e-05,-0.00013,-8e-05,-6e-05,5,1
25614,-5e-05,-2e-05,7e-05,-2e-05,6e-05,-0.00013,-8e-05,-6e-05,5,1
25615,-5e-05,-2e-05,7e-05,-2e-05,6e-05,-0.00013,-8e-05,-6e-05,5,1
25616,-5e-05,-2e-05,7e-05,-2e-05,6e-05,-0.00013,-8e-05,-6e-05,5,1
25617,-5e-05,-2e-05,7e-05,-2e-05,6e-05,-0.00013,-8e-05,-6e-05,5,1
25618,-5e-05,-2e-05,7e-05,-2e-05,6e-05,-0.00013,-8e-05,-6e-05,5,1
25619,-5e-05,-2e-05,7e-05,-2e-05,6e-05,-0.00013,-8e-05,-6e-05,5,1
25620,-5e-05,-2e-05,7e-05,-2e-05,6e-05,-0.00013,-8e-05,-6e-05,5,1
25621,-5e-05,-2e-05,7e-05,-2e-05,6e-05,-0.00013,-8e-05,-6e-05,5,1
25622,-5e-05,-2e-05,7e-05,-2e-05,6e-05,-0.00013,-8e-05,-6e-05,5,1
25623,-5e-05,-2e-05,7e-05,-2e-05,6e-05,-0.00013,-8e-05,-6e-05,5,1
25624,-5e-05,-2e-05,7e-05,-2e-05,6e-05,-0.00013,-8e-05,-6e-05,5,1
25625,-5e-05,-2e-05,7e-05,-2e-05,6e-05,-0.00013,-8e-05,-6e-05,5,1
25626,-5e-05,-2e-05,7e-05,-2e-05,6e-05,-0.00013,-8e-05,-6e-05,5,1
25627,-5e-05,-2e-05,7e-05,-2e-05,6e-05,-0.00013,-8e-05,-6e-05,5,1
25628,-5e-05,-2e-05,7e-05,-2e-05,6e-05,-0.00013,-8e-05,-6e-05,5,1
25629,-5e-05,-2e-05,7e-05,-2e-05,6e-05,-0.00013,-8e-05,-6e-05,5,1
25630,-3e-05,-0.0001,-0.00022,-0.00035,-0.00038,-0.00045,-0.00018,-6e-05,5,1
25631,0,-6e-05,-3e-05,-6e-05,-0.00015,-4e-05,-2e-05,1e-05,5,1
25632,0,-6e-05,-3e-05,-6e-05,-0.00015,-4e-05,-2e-05,1e-05,5,1
25633,0,-6e-05,-3e-05,-6e-05,-0.00015,-4e-05,-2e-05,1e-05,5,1
25634,0,-6e-05,-3e-05,-6e-05,-0.00015,-4e-05,-2e-05,1e-05,5,1
25635,0,-6e-05,-3e-05,-6e-05,-0.00015,-4e-05,-2e-05,1e-05,5,1
25636,0,-6e-05,-3e-05,-6e-05,-0.00015,-4e-05,-2e-05,1e-05,5,1
25638,0,-6e-05,-3e-05,-6e-05,-0.00015,-4e-05,-2e-05,1e-05,5,1
25639,0,-6e-05,-3e-05,-6e-05,-0.00015,-4e-05,-2e-05,1e-05,5,1
25640,0,-6e-05,-3e-05,-6e-05,-0.00015,-4e-05,-2e-05,1e-05,5,1
25641,0,-6e-05,-3e-05,-6e-05,-0.00015,-4e-05,-2e-05,1e-05,5,1
25642,0,-6e-05,-3e-05,-6e-05,-0.00015,-4e-05,-2e-05,1e-05,5,1
25643,0,-6e-05,-3e-05,-6e-05,-0.00015,-4e-05,-2e-05,1e-05,5,1
25644,0,-6e-05,-3e-05,-6e-05,-0.00015,-4e-05,-2e-05,1e-05,5,1
25645,0,-6e-05,-3e-05,-6e-05,-0.00015,-4e-05,-2e-05,1e-05,5,1
25646,1e-05,5e-05,-0.00012,-0.00051,-0.00054,-0.00015,0,6e-05,5,1
25647,1e-05,5e-05,-0.00012,-0.00051,-0.00054,-0.00015,0,6e-05,5,1
25648,-5e-05,4e-05,1e-05,-7e-05,6e-05,1e-05,-2e-05,-3e-05,5,1
25649,-5e-05,4e-05,1e-05,-7e-05,6e-05,1e-05,-2e-05,-3e-05,5,1
25650,-5e-05,4e-05,1e-05,-7e-05,6e-05,1e-05,-2e-05,-3e-05,5,1
25651,-5e-05,4e-05,1e-05,-7e-05,6e-05,1e-05,-2e-05,-3e-05,5,1
25652,-5e-05,4e-05,1e-05,-7e-05,6e-05,1e-05,-2e-05,-3e-05,5,1
25653,-5e-05,4e-05,1e-05,-7e-05,6e-05,1e-05,-2e-05,-3e-05,5,1
25654,-5e-05,4e-05,1e-05,-7e-05,6e-05,1e-05,-2e-05,-3e-05,5,1
25655,-5e-05,4e-05,1e-05,-7e-05,6e-05,1e-05,-2e-05,-3e-05,5,1
25656,-5e-05,4e-05,1e-05,-7e-05,6e-05,1e-05,-2e-05,-3e-05,5,1
25657,-5e-05,4e-05,1e-05,-7e-05,6e-05,1e-05,-2e-05,-3e-05,5,1
25658,-5e-05,4e-05,1e-05,-7e-05,6e-05,1e-05,-2e-05,-3e-05,5,1
25659,-5e-05,4e-05,1e-05,-7e-05,6e-05,1e-05,-2e-05,-3e-05,5,1
25660,-5e-05,4e-05,1e-05,-7e-05,6e-05,1e-05,-2e-05,-3e-05,5,1
25661,-5e-05,4e-05,1e-05,-7e-05,6e-05,1e-05,-2e-05,-3e-05,5,1
25662,-8e-05,-0.0002,-0.00034,-0.00071,-0.00071,-0.00045,-0.00015,-4e-05,5,1
25663,-8e-05,-0.0002,-0.00034,-0.00071,-0.00071,-0.00045,-0.00015,-4e-05,5,1
25664,-8e-05,-0.0002,-0.00034,-0.00071,-0.00071,-0.00045,-0.00015,-4e-05,5,1
25665,-8e-05,-0.0002,-0.00034,-0.00071,-0.00071,-0.00045,-0.00015,-4e-05,5,1
25666,-8e-05,-0.0002,-0.00034,-0.00071,-0.00071,-0.00045,-0.00015,-4e-05,5,1
25667,-8e-05,-0.0002,-0.00034,-0.00071,-0.00071,-0.00045,-0.00015,-4e-05,5,1
25668,-8e-05,-0.0002,-0.00034,-0.00071,-0.00071,-0.00045,-0.00015,-4e-05,5,1
25669,-8e-05,-0.0002,-0.00034,-0.00071,-0.00071,-0.00045,-0.00015,-4e-05,5,1
25670,-8e-05,-0.0002,-0.00034,-0.00071,-0.00071,-0.00045,-0.00015,-4e-05,5,1
25671,-8e-05,-0.0002,-0.00034,-0.00071,-0.00071,-0.00045,-0.00015,-4e-05,5,1
25672,-8e-05,-0.0002,-0.00034,-0.00071,-0.00071,-0.00045,-0.00015,-4e-05,5,1
25673,-8e-05,-0.0002,-0.00034,-0.00071,-0.00071,-0.00045,-0.00015,-4e-05,5,1
25674,-8e-05,-0.0002,-0.00034,-0.00071,-0.00071,-0.00045,-0.00015,-4e-05,5,1
25675,-8e-05,-0.0002,-0.00034,-0.00071,-0.00071,-0.00045,-0.00015,-4e-05,5,1
25676,-8e-05,-0.0002,-0.00034,-0.00071,-0.00071,-0.00045,-0.00015,-4e-05,5,1
25677,-8e-05,-0.0002,-0.00034,-0.00071,-0.00071,-0.00045,-0.00015,-4e-05,5,1
25678,-8e-05,-0.0002,-0.00034,-0.00071,-0.00071,-0.00045,-0.00015,-4e-05,5,1
25679,-8e-05,-0.0002,-0.00034,-0.00071,-0.00071,-0.00045,-0.00015,-4e-05,5,1
25680,-8e-05,-0.0002,-0.00034,-0.00071,-0.00071,-0.00045,-0.00015,-4e-05,5,1
25681,-8e-05,-0.0002,-0.00034,-0.00071,-0.00071,-0.00045,-0.00015,-4e-05,5,1
25682,-8e-05,-0.0002,-0.00034,-0.00071,-0.00071,-0.00045,-0.00015,-4e-05,5,1
25683,2e-05,-1e-05,-2e-05,-1e-05,0.00025,8e-05,3e-05,1e-05,5,1
25684,8e-05,6e-05,0.00017,0.00034,8e-05,0.00029,0.00011,6e-05,5,1
25685,8e-05,6e-05,0.00017,0.00034,8e-05,0.00029,0.00011,6e-05,5,1
25686,8e-05,6e-05,0.00017,0.00034,8e-05,0.00029,0.00011,6e-05,5,1
25689,8e-05,6e-05,0.00017,0.00034,8e-05,0.00029,0.00011,6e-05,5,1
25690,8e-05,6e-05,0.00017,0.00034,8e-05,0.00029,0.00011,6e-05,5,1
25691,8e-05,6e-05,0.00017,0.00034,8e-05,0.00029,0.00011,6e-05,5,1
25692,8e-05,6e-05,0.00017,0.00034,8e-05,0.00029,0.00011,6e-05,5,1
25693,8e-05,6e-05,0.00017,0.00034,8e-05,0.00029,0.00011,6e-05,5,1
25694,8e-05,6e-05,0.00017,0.00034,8e-05,0.00029,0.00011,6e-05,5,1
25695,8e-05,6e-05,0.00017,0.00034,8e-05,0.00029,0.00011,6e-05,5,1
25696,8e-05,6e-05,0.00017,0.00034,8e-05,0.00029,0.00011,6e-05,5,1
25697,8e-05,6e-05,0.00017,0.00034,8e-05,0.00029,0.00011,6e-05,5,1
25698,8e-05,6e-05,0.00017,0.00034,8e-05,0.00029,0.00011,6e-05,5,1
25699,8e-05,6e-05,0.00017,0.00034,8e-05,0.00029,0.00011,6e-05,5,1
25700,8e-05,6e-05,0.00017,0.00034,8e-05,0.00029,0.00011,6e-05,5,1
25701,8e-05,6e-05,0.00017,0.00034,8e-05,0.00029,0.00011,6e-05,5,1
25702,8e-05,6e-05,0.00017,0.00034,8e-05,0.00029,0.00011,6e-05,5,1
25703,8e-05,6e-05,0.00017,0.00034,8e-05,0.00029,0.00011,6e-05,5,1
25704,8e-05,6e-05,0.00017,0.00034,8e-05,0.00029,0.00011,6e-05,5,1
25705,8e-05,6e-05,0.00017,0.00034,8e-05,0.00029,0.00011,6e-05,5,1
25706,2e-05,7e-05,0.00029,0.00048,0.00047,0.00014,5e-05,2e-05,5,1
25707,2e-05,7e-05,0.00029,0.00048,0.00047,0.00014,5e-05,2e-05,5,1
25708,2e-05,7e-05,0.00029,0.00048,0.00047,0.00014,5e-05,2e-05,5,1
25709,2e-05,7e-05,0.00029,0.00048,0.00047,0.00014,5e-05,2e-05,5,1
25710,2e-05,7e-05,0.00029,0.00048,0.00047,0.00014,5e-05,2e-05,5,1
25711,2e-05,7e-05,0.00029,0.00048,0.00047,0.00014,5e-05,2e-05,5,1
25712,2e-05,7e-05,0.00029,0.00048,0.00047,0.00014,5e-05,2e-05,5,1
25713,2e-05,7e-05,0.00029,0.00048,0.00047,0.00014,5e-05,2e-05,5,1
25714,2e-05,7e-05,0.00029,0.00048,0.00047,0.00014,5e-05,2e-05,5,1
25715,2e-05,7e-05,0.00029,0.00048,0.00047,0.00014,5e-05,2e-05,5,1
25716,2e-05,7e-05,0.00029,0.00048,0.00047,0.00014,5e-05,2e-05,5,1
25717,2e-05,7e-05,0.00029,0.00048,0.00047,0.00014,5e-05,2e-05,5,1
25718,2e-05,7e-05,0.00029,0.00048,0.00047,0.00014,5e-05,2e-05,5,1
25719,2e-05,7e-05,0.00029,0.00048,0.00047,0.00014,5e-05,2e-05,5,1
25720,-0.0001,-0.00015,-6e-05,-1e-05,-6e-05,-0.00024,-0.00016,-0.00012,5,1
25721,1e-05,5e-05,1e-05,5e-05,0.00027,-7e-05,4e-05,-1e-05,5,1
25722,1e-05,5e-05,1e-05,5e-05,0.00027,-7e-05,4e-05,-1e-05,5,1
25723,1e-05,5e-05,1e-05,5e-05,0.00027,-7e-05,4e-05,-1e-05,5,1
25724,1e-05,5e-05,1e-05,5e-05,0.00027,-7e-05,4e-05,-1e-05,5,1
25725,1e-05,5e-05,1e-05,5e-05,0.00027,-7e-05,4e-05,-1e-05,5,1
25726,1e-05,5e-05,1e-05,5e-05,0.00027,-7e-05,4e-05,-1e-05,5,1
25727,1e-05,5e-05,1e-05,5e-05,0.00027,-7e-05,4e-05,-1e-05,5,1
25728,1e-05,5e-05,1e-05,5e-05,0.00027,-7e-05,4e-05,-1e-05,5,1
25729,1e-05,5e-05,1e-05,5e-05,0.00027,-7e-05,4e-05,-1e-05,5,1
25730,1e-05,5e-05,1e-05,5e-05,0.00027,-7e-05,4e-05,-1e-05,5,1
25731,1e-05,5e-05,1e-05,5e-05,0.00027,-7e-05,4e-05,-1e-05,5,1
25732,1e-05,5e-05,1e-05,5e-05,0.00027,-7e-05,4e-05,-1e-05,5,1
25733,1e-05,5e-05,1e-05,5e-05,0.00027,-7e-05,4e-05,-1e-05,5,1
25734,-8e-05,-0.00016,-0.00027,-0.00033,-0.0002,-0.00011,-7e-05,-6e-05,5,1
25735,-5e-05,-0.00014,-0.00011,0.00015,0.00048,0.00044,9e-05,-4e-05,5,1
25736,-5e-05,-0.00014,-0.00011,0.00015,0.00048,0.00044,9e-05,-4e-05,5,1
25738,-5e-05,-0.00014,-0.00011,0.00015,0.00048,0.00044,9e-05,-4e-05,5,1
25739,-5e-05,-0.00014,-0.00011,0.00015,0.00048,0.00044,9e-05,-4e-05,5,1
25740,-5e-05,-0.00014,-0.00011,0.00015,0.00048,0.00044,9e-05,-4e-05,5,1
25741,-5e-05,-0.00014,-0.00011,0.00015,0.00048,0.00044,9e-05,-4e-05,5,1
25742,-5e-05,-0.00014,-0.00011,0.00015,0.00048,0.00044,9e-05,-4e-05,5,1
25743,-5e-05,-0.00014,-0.00011,0.00015,0.00048,0.00044,9e-05,-4e-05,5,1
25744,-5e-05,-0.00014,-0.00011,0.00015,0.00048,0.00044,9e-05,-4e-05,5,1
25745,-5e-05,-0.00014,-0.00011,0.00015,0.00048,0.00044,9e-05,-4e-05,5,1
25746,-5e-05,-0.00014,-0.00011,0.00015,0.00048,0.00044,9e-05,-4e-05,5,1
25747,-5e-05,-0.00014,-0.00011,0.00015,0.00048,0.00044,9e-05,-4e-05,5,1
25748,-5e-05,-0.00014,-0.00011,0.00015,0.00048,0.00044,9e-05,-4e-05,5,1
25749,-5e-05,-0.00014,-0.00011,0.00015,0.00048,0.00044,9e-05,-4e-05,5,1
25750,-5e-05,-0.00014,-0.00011,0.00015,0.00048,0.00044,9e-05,-4e-05,5,1
25751,-5e-05,-0.00014,-0.00011,0.00015,0.00048,0.00044,9e-05,-4e-05,5,1
25752,-5e-05,-0.00014,-0.00011,0.00015,0.00048,0.00044,9e-05,-4e-05,5,1
25753,-5e-05,-0.00014,-0.00011,0.00015,0.00048,0.00044,9e-05,-4e-05,5,1
25754,-5e-05,-0.00014,-0.00011,0.00015,0.00048,0.00044,9e-05,-4e-05,5,1
25755,-5e-05,-0.00014,-0.00011,0.00015,0.00048,0.00044,9e-05,-4e-05,5,1
25756,-5e-05,-0.00014,-0.00011,0.00015,0.00048,0.00044,9e-05,-4e-05,5,1
25757,-9e-05,-1e-05,-4e-05,-0.00021,-0.00016,-0.00011,-0.00015,-0.0001,5,1
25758,-2e-05,0.00014,-4e-05,-7e-05,-8e-05,-0.00012,-6e-05,-4e-05,5,1
25759,-2e-05,0.00014,-4e-05,-7e-05,-8e-05,-0.00012,-6e-05,-4e-05,5,1
25760,-2e-05,0.00014,-4e-05,-7e-05,-8e-05,-0.00012,-6e-05,-4e-05,5,1
25761,-2e-05,0.00014,-4e-05,-7e-05,-8e-05,-0.00012,-6e-05,-4e-05,5,1
25762,-2e-05,0.00014,-4e-05,-7e-05,-8e-05,-0.00012,-6e-05,-4e-05,5,1
25763,-2e-05,0.00014,-4e-05,-7e-05,-8e-05,-0.00012,-6e-05,-4e-05,5,1
25764,-2e-05,0.00014,-4e-05,-7e-05,-8e-05,-0.00012,-6e-05,-4e-05,5,1
25765,-2e-05,0.00014,-4e-05,-7e-05,-8e-05,-0.00012,-6e-05,-4e-05,5,1
25766,-2e-05,0.00014,-4e-05,-7e-05,-8e-05,-0.00012,-6e-05,-4e-05,5,1
25767,-2e-05,0.00014,-4e-05,-7e-05,-8e-05,-0.00012,-6e-05,-4e-05,5,1
25768,-2e-05,0.00014,-4e-05,-7e-05,-8e-05,-0.00012,-6e-05,-4e-05,5,1
25769,-2e-05,0.00014,-4e-05,-7e-05,-8e-05,-0.00012,-6e-05,-4e-05,5,1
25770,-2e-05,0.00014,-4e-05,-7e-05,-8e-05,-0.00012,-6e-05,-4e-05,5,1
25771,-2e-05,0.00014,-4e-05,-7e-05,-8e-05,-0.00012,-6e-05,-4e-05,5,1
25772,-2e-05,0.00014,-4e-05,-7e-05,-8e-05,-0.00012,-6e-05,-4e-05,5,1
25773,-2e-05,0.00014,-4e-05,-7e-05,-8e-05,-0.00012,-6e-05,-4e-05,5,1
25774,-2e-05,0.00014,-4e-05,-7e-05,-8e-05,-0.00012,-6e-05,-4e-05,5,1
25775,-2e-05,0.00014,-4e-05,-7e-05,-8e-05,-0.00012,-6e-05,-4e-05,5,1
25776,-2e-05,0.00014,-4e-05,-7e-05,-8e-05,-0.00012,-6e-05,-4e-05,5,1
25777,-2e-05,0.00014,-4e-05,-7e-05,-8e-05,-0.00012,-6e-05,-4e-05,5,1
25778,-2e-05,0.00014,-4e-05,-7e-05,-8e-05,-0.00012,-6e-05,-4e-05,5,1
25779,-2e-05,0.00014,-4e-05,-7e-05,-8e-05,-0.00012,-6e-05,-4e-05,5,1
25780,1e-05,6e-05,0,0.00011,0.00019,0.0002,6e-05,1e-05,5,1
25781,-2e-05,4e-05,6e-05,7e-05,0.0002,-2e-05,-9e-05,-6e-05,5,1
25782,3e-05,0.00025,0.00012,-2e-05,-4e-05,-6e-05,1e-05,2e-05,5,1
25783,3e-05,0.00025,0.00012,-2e-05,-4e-05,-6e-05,1e-05,2e-05,5,1
25784,3e-05,0.00025,0.00012,-2e-05,-4e-05,-6e-05,1e-05,2e-05,5,1
25785,3e-05,0.00025,0.00012,-2e-05,-4e-05,-6e-05,1e-05,2e-05,5,1
25786,3e-05,0.00025,0.00012,-2e-05,-4e-05,-6e-05,1e-05,2e-05,5,1
25788,3e-05,0.00025,0.00012,-2e-05,-4e-05,-6e-05,1e-05,2e-05,5,1
25789,3e-05,0.00025,0.00012,-2e-05,-4e-05,-6e-05,1e-05,2e-05,5,1
25790,3e-05,0.00025,0.00012,-2e-05,-4e-05,-6e-05,1e-05,2e-05,5,1
25791,3e-05,0.00025,0.00012,-2e-05,-4e-05,-6e-05,1e-05,2e-05,5,1
25792,3e-05,0.00025,0.00012,-2e-05,-4e-05,-6e-05,1e-05,2e-05,5,1
25793,3e-05,0.00025,0.00012,-2e-05,-4e-05,-6e-05,1e-05,2e-05,5,1
25794,0,-0.00027,-0.00026,-0.00033,-0.00044,-0.00016,-3e-05,2e-05,5,1
25795,-4e-05,-0.00015,-0.0002,-0.00028,-0.00034,-0.00016,-7e-05,-9e-05,5,1
25796,-4e-05,-0.00015,-0.0002,-0.00028,-0.00034,-0.00016,-7e-05,-9e-05,5,1
25797,-4e-05,-0.00015,-0.0002,-0.00028,-0.00034,-0.00016,-7e-05,-9e-05,5,1
25798,-4e-05,-0.00015,-0.0002,-0.00028,-0.00034,-0.00016,-7e-05,-9e-05,5,1
25799,-4e-05,-0.00015,-0.0002,-0.00028,-0.00034,-0.00016,-7e-05,-9e-05,5,1
25800,-4e-05,-0.00015,-0.0002,-0.00028,-0.00034,-0.00016,-7e-05,-9e-05,5,1
25801,-4e-05,-0.00015,-0.0002,-0.00028,-0.00034,-0.00016,-7e-05,-9e-05,5,1
25802,-4e-05,-0.00015,-0.0002,-0.00028,-0.00034,-0.00016,-7e-05,-9e-05,5,1
25803,-4e-05,-0.00015,-0.0002,-0.00028,-0.00034,-0.00016,-7e-05,-9e-05,5,1
25804,-4e-05,-0.00015,-0.0002,-0.00028,-0.00034,-0.00016,-7e-05,-9e-05,5,1
25805,-4e-05,-0.00015,-0.0002,-0.00028,-0.00034,-0.00016,-7e-05,-9e-05,5,1
25806,-4e-05,-0.00015,-0.0002,-0.00028,-0.00034,-0.00016,-7e-05,-9e-05,5,1
25807,-4e-05,-0.00015,-0.0002,-0.00028,-0.00034,-0.00016,-7e-05,-9e-05,5,1
25808,-4e-05,-0.00015,-0.0002,-0.00028,-0.00034,-0.00016,-7e-05,-9e-05,5,1
25809,-4e-05,-0.00015,-0.0002,-0.00028,-0.00034,-0.00016,-7e-05,-9e-05,5,1
25810,-4e-05,-0.00015,-0.0002,-0.00028,-0.00034,-0.00016,-7e-05,-9e-05,5,1
25811,-4e-05,-0.00015,-0.0002,-0.00028,-0.00034,-0.00016,-7e-05,-9e-05,5,1
25812,-4e-05,-0.00015,-0.0002,-0.00028,-0.00034,-0.00016,-7e-05,-9e-05,5,1
25813,-4e-05,-0.00015,-0.0002,-0.00028,-0.00034,-0.00016,-7e-05,-9e-05,5,1
25814,-4e-05,-0.00015,-0.0002,-0.00028,-0.00034,-0.00016,-7e-05,-9e-05,5,1
25815,-4e-05,-0.00015,-0.0002,-0.00028,-0.00034,-0.00016,-7e-05,-9e-05,5,1
25816,-4e-05,-0.00015,-0.0002,-0.00028,-0.00034,-0.00016,-7e-05,-9e-05,5,1
25817,2e-05,-6e-05,3e-05,-0.00027,-0.00046,-0.00017,0,3e-05,5,1
25818,-1e-05,-3e-05,0,7e-05,3e-05,0.00016,2e-05,0,5,1
25819,-1e-05,-3e-05,0,7e-05,3e-05,0.00016,2e-05,0,5,1
25820,-1e-05,-3e-05,0,7e-05,3e-05,0.00016,2e-05,0,5,1
25821,-1e-05,-3e-05,0,7e-05,3e-05,0.00016,2e-05,0,5,1
25822,-1e-05,-3e-05,0,7e-05,3e-05,0.00016,2e-05,0,5,1
25823,-1e-05,-3e-05,0,7e-05,3e-05,0.00016,2e-05,0,5,1
25824,-1e-05,-3e-05,0,7e-05,3e-05,0.00016,2e-05,0,5,1
25825,-1e-05,-3e-05,0,7e-05,3e-05,0.00016,2e-05,0,5,1
25826,-1e-05,-3e-05,0,7e-05,3e-05,0.00016,2e-05,0,5,1
25827,-1e-05,-3e-05,0,7e-05,3e-05,0.00016,2e-05,0,5,1
25828,-1e-05,-3e-05,0,7e-05,3e-05,0.00016,2e-05,0,5,1
25829,-1e-05,-3e-05,0,7e-05,3e-05,0.00016,2e-05,0,5,1
25830,-1e-05,-3e-05,0,7e-05,3e-05,0.00016,2e-05,0,5,1
25831,-1e-05,-3e-05,0,7e-05,3e-05,0.00016,2e-05,0,5,1
25832,-1e-05,-3e-05,0,7e-05,3e-05,0.00016,2e-05,0,5,1
25833,-1e-05,-3e-05,0,7e-05,3e-05,0.00016,2e-05,0,5,1
25834,-1e-05,-3e-05,0,7e-05,3e-05,0.00016,2e-05,0,5,1
25835,-1e-05,-3e-05,0,7e-05,3e-05,0.00016,2e-05,0,5,1
25836,-1e-05,-3e-05,0,7e-05,3e-05,0.00016,2e-05,0,5,1
25838,-1e-05,-3e-05,0,7e-05,3e-05,0.00016,2e-05,0,5,1
25839,-1e-05,-3e-05,0,7e-05,3e-05,0.00016,2e-05,0,5,1
25840,-1e-05,-3e-05,0,7e-05,3e-05,0.00016,2e-05,0,5,1
25841,-4e-05,-3e-05,-0.00016,-0.00011,-5e-05,-0.00021,5e-05,-4e-05,5,1
25842,3e-05,4e-05,8e-05,-0.00012,-0.00014,-0.00022,-7e-05,1e-05,5,1
25843,3e-05,4e-05,8e-05,-0.00012,-0.00014,-0.00022,-7e-05,1e-05,5,1
25844,3e-05,4e-05,8e-05,-0.00012,-0.00014,-0.00022,-7e-05,1e-05,5,1
25845,3e-05,4e-05,8e-05,-0.00012,-0.00014,-0.00022,-7e-05,1e-05,5,1
25846,3e-05,4e-05,8e-05,-0.00012,-0.00014,-0.00022,-7e-05,1e-05,5,1
25847,3e-05,4e-05,8e-05,-0.00012,-0.00014,-0.00022,-7e-05,1e-05,5,1
25848,3e-05,4e-05,8e-05,-0.00012,-0.00014,-0.00022,-7e-05,1e-05,5,1
25849,3e-05,4e-05,8e-05,-0.00012,-0.00014,-0.00022,-7e-05,1e-05,5,1
25850,3e-05,4e-05,8e-05,-0.00012,-0.00014,-0.00022,-7e-05,1e-05,5,1
25851,3e-05,4e-05,8e-05,-0.00012,-0.00014,-0.00022,-7e-05,1e-05,5,1
25852,3e-05,4e-05,8e-05,-0.00012,-0.00014,-0.00022,-7e-05,1e-05,5,1
25853,3e-05,4e-05,8e-05,-0.00012,-0.00014,-0.00022,-7e-05,1e-05,5,1
25854,-1e-05,-6e-05,-0.00013,-5e-05,0.00019,9e-05,-2e-05,-2e-05,5,1
25855,1e-05,0.00017,0.0002,-0.00013,-0.00024,-3e-05,7e-05,2e-05,5,1
25856,1e-05,0.00017,0.0002,-0.00013,-0.00024,-3e-05,7e-05,2e-05,5,1
25857,1e-05,0.00017,0.0002,-0.00013,-0.00024,-3e-05,7e-05,2e-05,5,1
25858,1e-05,0.00017,0.0002,-0.00013,-0.00024,-3e-05,7e-05,2e-05,5,1
25859,1e-05,0.00017,0.0002,-0.00013,-0.00024,-3e-05,7e-05,2e-05,5,1
25860,1e-05,0.00017,0.0002,-0.00013,-0.00024,-3e-05,7e-05,2e-05,5,1
25861,1e-05,0.00017,0.0002,-0.00013,-0.00024,-3e-05,7e-05,2e-05,5,1
25862,1e-05,0.00017,0.0002,-0.00013,-0.00024,-3e-05,7e-05,2e-05,5,1
25863,1e-05,0.00017,0.0002,-0.00013,-0.00024,-3e-05,7e-05,2e-05,5,1
25864,1e-05,0.00017,0.0002,-0.00013,-0.00024,-3e-05,7e-05,2e-05,5,1
25865,1e-05,0.00017,0.0002,-0.00013,-0.00024,-3e-05,7e-05,2e-05,5,1
25866,1e-05,0.00017,0.0002,-0.00013,-0.00024,-3e-05,7e-05,2e-05,5,1
25867,1e-05,0.00017,0.0002,-0.00013,-0.00024,-3e-05,7e-05,2e-05,5,1
25868,1e-05,0.00017,0.0002,-0.00013,-0.00024,-3e-05,7e-05,2e-05,5,1
25869,1e-05,0.00017,0.0002,-0.00013,-0.00024,-3e-05,7e-05,2e-05,5,1
25870,1e-05,0.00017,0.0002,-0.00013,-0.00024,-3e-05,7e-05,2e-05,5,1
25871,1e-05,0.00017,0.0002,-0.00013,-0.00024,-3e-05,7e-05,2e-05,5,1
25872,1e-05,0.00017,0.0002,-0.00013,-0.00024,-3e-05,7e-05,2e-05,5,1
25873,1e-05,0.00017,0.0002,-0.00013,-0.00024,-3e-05,7e-05,2e-05,5,1
25874,1e-05,0.00017,0.0002,-0.00013,-0.00024,-3e-05,7e-05,2e-05,5,1
25875,1e-05,0.00017,0.0002,-0.00013,-0.00024,-3e-05,7e-05,2e-05,5,1
25876,1e-05,0.00017,0.0002,-0.00013,-0.00024,-3e-05,7e-05,2e-05,5,1
25877,1e-05,0.00017,0.0002,-0.00013,-0.00024,-3e-05,7e-05,2e-05,5,1
25878,1e-05,0.00017,0.0002,-0.00013,-0.00024,-3e-05,7e-05,2e-05,5,1
25879,1e-05,0.00017,0.0002,-0.00013,-0.00024,-3e-05,7e-05,2e-05,5,1
25880,1e-05,0.00017,0.0002,-0.00013,-0.00024,-3e-05,7e-05,2e-05,5,1
25881,1e-05,0.00017,0.0002,-0.00013,-0.00024,-3e-05,7e-05,2e-05,5,1
25882,1e-05,0.00017,0.0002,-0.00013,-0.00024,-3e-05,7e-05,2e-05,5,1
25883,1e-05,0.00017,0.0002,-0.00013,-0.00024,-3e-05,7e-05,2e-05,5,1
25884,1e-05,0.00017,0.0002,-0.00013,-0.00024,-3e-05,7e-05,2e-05,5,1
25885,-5e-05,-0.0001,1e-05,0.00045,0.00046,0.00013,0.0001,6e-05,5,1
25887,1e-05,1e-05,5e-05,-0.0002,-0.00042,-0.00016,-4e-05,2e-05,5,1
25890,1e-05,1e-05,5e-05,-0.0002,-0.00042,-0.00016,-4e-05,2e-05,5,1
25891,1e-05,1e-05,5e-05,-0.0002,-0.00042,-0.00016,-4e-05,2e-05,5,1
25892,1e-05,1e-05,5e-05,-0.0002,-0.00042,-0.00016,-4e-05,2e-05,5,1
25893,1e-05,1e-05,5e-05,-0.0002,-0.00042,-0.00016,-4e-05,2e-05,5,1
25894,1e-05,1e-05,5e-05,-0.0002,-0.00042,-0.00016,-4e-05,2e-05,5,1
25895,1e-05,1e-05,5e-05,-0.0002,-0.00042,-0.00016,-4e-05,2e-05,5,1
25896,1e-05,1e-05,5e-05,-0.0002,-0.00042,-0.00016,-4e-05,2e-05,5,1
25897,1e-05,1e-05,5e-05,-0.0002,-0.00042,-0.00016,-4e-05,2e-05,5,1
25898,1e-05,1e-05,5e-05,-0.0002,-0.00042,-0.00016,-4e-05,2e-05,5,1
25899,1e-05,1e-05,5e-05,-0.0002,-0.00042,-0.00016,-4e-05,2e-05,5,1
25900,1e-05,1e-05,5e-05,-0.0002,-0.00042,-0.00016,-4e-05,2e-05,5,1
25901,1e-05,1e-05,5e-05,-0.0002,-0.00042,-0.00016,-4e-05,2e-05,5,1
25902,1e-05,1e-05,5e-05,-0.0002,-0.00042,-0.00016,-4e-05,2e-05,5,1
25903,1e-05,1e-05,5e-05,-0.0002,-0.00042,-0.00016,-4e-05,2e-05,5,1
25904,1e-05,1e-05,5e-05,-0.0002,-0.00042,-0.00016,-4e-05,2e-05,5,1
25905,1e-05,1e-05,5e-05,-0.0002,-0.00042,-0.00016,-4e-05,2e-05,5,1
25906,1e-05,1e-05,5e-05,-0.0002,-0.00042,-0.00016,-4e-05,2e-05,5,1
25907,1e-05,1e-05,5e-05,-0.0002,-0.00042,-0.00016,-4e-05,2e-05,5,1
25908,-6e-05,-9e-05,-0.00017,0.00013,-2e-05,5e-05,-1e-05,-5e-05,5,1
25909,-5e-05,-0.0001,-7e-05,0.00018,0.0003,5e-05,-1e-05,-6e-05,5,1
25910,-5e-05,-0.0001,-7e-05,0.00018,0.0003,5e-05,-1e-05,-6e-05,5,1
25911,-5e-05,-0.0001,-7e-05,0.00018,0.0003,5e-05,-1e-05,-6e-05,5,1
25912,-5e-05,-0.0001,-7e-05,0.00018,0.0003,5e-05,-1e-05,-6e-05,5,1
25913,-5e-05,-0.0001,-7e-05,0.00018,0.0003,5e-05,-1e-05,-6e-05,5,1
25914,-5e-05,-0.0001,-7e-05,0.00018,0.0003,5e-05,-1e-05,-6e-05,5,1
25915,4e-05,4e-05,4e-05,1e-05,-0.00022,-0.00014,-9e-05,1e-05,5,1
25916,-5e-05,-0.00016,-0.00014,-0.0002,-0.00027,-0.00011,-7e-05,-5e-05,5,1
25917,-5e-05,-0.00016,-0.00014,-0.0002,-0.00027,-0.00011,-7e-05,-5e-05,5,1
25918,-5e-05,-0.00016,-0.00014,-0.0002,-0.00027,-0.00011,-7e-05,-5e-05,5,1
25919,-5e-05,-0.00016,-0.00014,-0.0002,-0.00027,-0.00011,-7e-05,-5e-05,5,1
25920,-5e-05,-0.00016,-0.00014,-0.0002,-0.00027,-0.00011,-7e-05,-5e-05,5,1
25921,-5e-05,-0.00016,-0.00014,-0.0002,-0.00027,-0.00011,-7e-05,-5e-05,5,1
25922,-5e-05,-0.00016,-0.00014,-0.0002,-0.00027,-0.00011,-7e-05,-5e-05,5,1
25923,-5e-05,-0.00016,-0.00014,-0.0002,-0.00027,-0.00011,-7e-05,-5e-05,5,1
25924,-5e-05,-0.00016,-0.00014,-0.0002,-0.00027,-0.00011,-7e-05,-5e-05,5,1
25925,-5e-05,-0.00016,-0.00014,-0.0002,-0.00027,-0.00011,-7e-05,-5e-05,5,1
25926,-5e-05,-0.00016,-0.00014,-0.0002,-0.00027,-0.00011,-7e-05,-5e-05,5,1
25927,-5e-05,-0.00016,-0.00014,-0.0002,-0.00027,-0.00011,-7e-05,-5e-05,5,1
25928,-5e-05,-0.00016,-0.00014,-0.0002,-0.00027,-0.00011,-7e-05,-5e-05,5,1
25929,-5e-05,-0.00016,-0.00014,-0.0002,-0.00027,-0.00011,-7e-05,-5e-05,5,1
25930,-5e-05,-0.00016,-0.00014,-0.0002,-0.00027,-0.00011,-7e-05,-5e-05,5,1
25931,-5e-05,-0.00016,-0.00014,-0.0002,-0.00027,-0.00011,-7e-05,-5e-05,5,1
25932,-5e-05,-0.00016,-0.00014,-0.0002,-0.00027,-0.00011,-7e-05,-5e-05,5,1
25933,-5e-05,-0.00016,-0.00014,-0.0002,-0.00027,-0.00011,-7e-05,-5e-05,5,1
25934,-5e-05,-0.00016,-0.00014,-0.0002,-0.00027,-0.00011,-7e-05,-5e-05,5,1
25935,-5e-05,-0.00016,-0.00014,-0.0002,-0.00027,-0.00011,-7e-05,-5e-05,5,1
25936,-5e-05,-0.00016,-0.00014,-0.0002,-0.00027,-0.00011,-7e-05,-5e-05,5,1
25939,5e-05,0,1e-05,0.0003,0.00028,0.00021,2e-05,6e-05,5,1
25940,5e-05,0,1e-05,0.0003,0.00028,0.00021,2e-05,6e-05,5,1
25941,5e-05,0,1e-05,0.0003,0.00028,0.00021,2e-05,6e-05,5,1
25942,5e-05,0,1e-05,0.0003,0.00028,0.00021,2e-05,6e-05,5,1
25943,5e-05,0,1e-05,0.0003,0.00028,0.00021,2e-05,6e-05,5,1
25944,5e-05,0,1e-05,0.0003,0.00028,0.00021,2e-05,6e-05,5,1
25945,5e-05,0,1e-05,0.0003,0.00028,0.00021,2e-05,6e-05,5,1
25946,5e-05,0,1e-05,0.0003,0.00028,0.00021,2e-05,6e-05,5,1
25947,5e-05,0,1e-05,0.0003,0.00028,0.00021,2e-05,6e-05,5,1
25948,5e-05,0,1e-05,0.0003,0.00028,0.00021,2e-05,6e-05,5,1
25949,5e-05,0,1e-05,0.0003,0.00028,0.00021,2e-05,6e-05,5,1
25950,5e-05,0,1e-05,0.0003,0.00028,0.00021,2e-05,6e-05,5,1
25951,5e-05,0,1e-05,0.0003,0.00028,0.00021,2e-05,6e-05,5,1
25952,5e-05,0,1e-05,0.0003,0.00028,0.00021,2e-05,6e-05,5,1
25953,5e-05,0,1e-05,0.0003,0.00028,0.00021,2e-05,6e-05,5,1
25954,5e-05,0,1e-05,0.0003,0.00028,0.00021,2e-05,6e-05,5,1
25955,5e-05,0,1e-05,0.0003,0.00028,0.00021,2e-05,6e-05,5,1
25956,5e-05,0,1e-05,0.0003,0.00028,0.00021,2e-05,6e-05,5,1
25957,5e-05,0,1e-05,0.0003,0.00028,0.00021,2e-05,6e-05,5,1
25958,5e-05,0,1e-05,0.0003,0.00028,0.00021,2e-05,6e-05,5,1
25959,5e-05,0,1e-05,0.0003,0.00028,0.00021,2e-05,6e-05,5,1
25960,5e-05,0,1e-05,0.0003,0.00028,0.00021,2e-05,6e-05,5,1
25961,-2e-05,-7e-05,-0.00012,-9e-05,4e-05,0.0001,6e-05,1e-05,5,1
25962,-2e-05,-7e-05,-0.00012,-9e-05,4e-05,0.0001,6e-05,1e-05,5,1
25963,-2e-05,-7e-05,-0.00012,-9e-05,4e-05,0.0001,6e-05,1e-05,5,1
25964,-2e-05,-7e-05,-0.00012,-9e-05,4e-05,0.0001,6e-05,1e-05,5,1
25965,-2e-05,-7e-05,-0.00012,-9e-05,4e-05,0.0001,6e-05,1e-05,5,1
25966,-2e-05,-7e-05,-0.00012,-9e-05,4e-05,0.0001,6e-05,1e-05,5,1
25967,-2e-05,-7e-05,-0.00012,-9e-05,4e-05,0.0001,6e-05,1e-05,5,1
25968,-2e-05,-7e-05,-0.00012,-9e-05,4e-05,0.0001,6e-05,1e-05,5,1
25969,-2e-05,-7e-05,-0.00012,-9e-05,4e-05,0.0001,6e-05,1e-05,5,1
25970,-2e-05,-7e-05,-0.00012,-9e-05,4e-05,0.0001,6e-05,1e-05,5,1
25971,-2e-05,-7e-05,-0.00012,-9e-05,4e-05,0.0001,6e-05,1e-05,5,1
25972,-2e-05,-7e-05,-0.00012,-9e-05,4e-05,0.0001,6e-05,1e-05,5,1
25973,-2e-05,-7e-05,-0.00012,-9e-05,4e-05,0.0001,6e-05,1e-05,5,1
25974,-2e-05,-7e-05,-0.00012,-9e-05,4e-05,0.0001,6e-05,1e-05,5,1
25975,-2e-05,-7e-05,-0.00012,-9e-05,4e-05,0.0001,6e-05,1e-05,5,1
25976,-2e-05,-7e-05,-0.00012,-9e-05,4e-05,0.0001,6e-05,1e-05,5,1
25977,-2e-05,-7e-05,-0.00012,-9e-05,4e-05,0.0001,6e-05,1e-05,5,1
25978,-2e-05,-7e-05,-0.00012,-9e-05,4e-05,0.0001,6e-05,1e-05,5,1
25979,-2e-05,-7e-05,-0.00012,-9e-05,4e-05,0.0001,6e-05,1e-05,5,1
25980,-2e-05,-7e-05,-0.00012,-9e-05,4e-05,0.0001,6e-05,1e-05,5,1
25981,-2e-05,-7e-05,-0.00012,-9e-05,4e-05,0.0001,6e-05,1e-05,5,1
25982,-2e-05,-7e-05,-0.00012,-9e-05,4e-05,0.0001,6e-05,1e-05,5,1
25983,3e-05,0.0002,7e-05,0.00017,2e-05,0.0001,0.00012,4e-05,5,1
25984,3e-05,0.0002,7e-05,0.00017,2e-05,0.0001,0.00012,4e-05,5,1
25985,2e-05,0.00012,0.00016,0.00015,0.00013,6e-05,5e-05,4e-05,5,1
25986,2e-05,0.00012,0.00016,0.00015,0.00013,6e-05,5e-05,4e-05,5,1
25989,2e-05,0.00012,0.00016,0.00015,0.00013,6e-05,5e-05,4e-05,5,1
25990,2e-05,0.00012,0.00016,0.00015,0.00013,6e-05,5e-05,4e-05,5,1
25991,2e-05,0.00012,0.00016,0.00015,0.00013,6e-05,5e-05,4e-05,5,1
25992,2e-05,0.00012,0.00016,0.00015,0.00013,6e-05,5e-05,4e-05,5,1
25993,2e-05,0.00012,0.00016,0.00015,0.00013,6e-05,5e-05,4e-05,5,1
25994,2e-05,0.00012,0.00016,0.00015,0.00013,6e-05,5e-05,4e-05,5,1
25995,2e-05,0.00012,0.00016,0.00015,0.00013,6e-05,5e-05,4e-05,5,1
25996,2e-05,0.00012,0.00016,0.00015,0.00013,6e-05,5e-05,4e-05,5,1
25997,2e-05,0.00012,0.00016,0.00015,0.00013,6e-05,5e-05,4e-05,5,1
25998,2e-05,0.00012,0.00016,0.00015,0.00013,6e-05,5e-05,4e-05,5,1
25999,2e-05,0.00012,0.00016,0.00015,0.00013,6e-05,5e-05,4e-05,5,1
26000,2e-05,0.00012,0.00016,0.00015,0.00013,6e-05,5e-05,4e-05,5,1
26001,2e-05,0.00012,0.00016,0.00015,0.00013,6e-05,5e-05,4e-05,5,1
26002,2e-05,0.00012,0.00016,0.00015,0.00013,6e-05,5e-05,4e-05,5,1
26003,2e-05,0.00012,0.00016,0.00015,0.00013,6e-05,5e-05,4e-05,5,1
26004,2e-05,0.00012,0.00016,0.00015,0.00013,6e-05,5e-05,4e-05,5,1
26005,-5e-05,-7e-05,-3e-05,-0.00021,-4e-05,-0.00041,-0.00025,-0.00011,5,1
26006,0,-4e-05,-0.00011,-0.00017,-0.00037,0.00011,0.0001,5e-05,5,1
26007,0,-4e-05,-0.00011,-0.00017,-0.00037,0.00011,0.0001,5e-05,5,1
26008,0,-4e-05,-0.00011,-0.00017,-0.00037,0.00011,0.0001,5e-05,5,1
26009,0,-4e-05,-0.00011,-0.00017,-0.00037,0.00011,0.0001,5e-05,5,1
26010,0,-4e-05,-0.00011,-0.00017,-0.00037,0.00011,0.0001,5e-05,5,1
26011,0,-4e-05,-0.00011,-0.00017,-0.00037,0.00011,0.0001,5e-05,5,1
26012,0,-4e-05,-0.00011,-0.00017,-0.00037,0.00011,0.0001,5e-05,5,1
26013,0,-4e-05,-0.00011,-0.00017,-0.00037,0.00011,0.0001,5e-05,5,1
26014,0,-4e-05,-0.00011,-0.00017,-0.00037,0.00011,0.0001,5e-05,5,1
26015,0,-4e-05,-0.00011,-0.00017,-0.00037,0.00011,0.0001,5e-05,5,1
26016,0,-4e-05,-0.00011,-0.00017,-0.00037,0.00011,0.0001,5e-05,5,1
26017,0,-4e-05,-0.00011,-0.00017,-0.00037,0.00011,0.0001,5e-05,5,1
26018,0,-4e-05,-0.00011,-0.00017,-0.00037,0.00011,0.0001,5e-05,5,1
26019,0,-4e-05,-0.00011,-0.00017,-0.00037,0.00011,0.0001,5e-05,5,1
26020,0,-4e-05,-0.00011,-0.00017,-0.00037,0.00011,0.0001,5e-05,5,1
26021,0,-4e-05,-0.00011,-0.00017,-0.00037,0.00011,0.0001,5e-05,5,1
26022,0,-4e-05,-0.00011,-0.00017,-0.00037,0.00011,0.0001,5e-05,5,1
26023,0,-4e-05,-0.00011,-0.00017,-0.00037,0.00011,0.0001,5e-05,5,1
26024,0,-4e-05,-0.00011,-0.00017,-0.00037,0.00011,0.0001,5e-05,5,1
26025,0,-4e-05,-0.00011,-0.00017,-0.00037,0.00011,0.0001,5e-05,5,1
26026,0,-4e-05,-0.00011,-0.00017,-0.00037,0.00011,0.0001,5e-05,5,1
26027,0,-4e-05,-0.00011,-0.00017,-0.00037,0.00011,0.0001,5e-05,5,1
26028,0,-4e-05,-0.00011,-0.00017,-0.00037,0.00011,0.0001,5e-05,5,1
26029,0,-4e-05,-0.00011,-0.00017,-0.00037,0.00011,0.0001,5e-05,5,1
26030,0,-4e-05,-0.00011,-0.00017,-0.00037,0.00011,0.0001,5e-05,5,1
26031,0,-4e-05,-0.00011,-0.00017,-0.00037,0.00011,0.0001,5e-05,5,1
26032,0,-4e-05,-0.00011,-0.00017,-0.00037,0.00011,0.0001,5e-05,5,1
26033,0,-4e-05,-0.00011,-0.00017,-0.00037,0.00011,0.0001,5e-05,5,1
26034,0,-4e-05,-0.00011,-0.00017,-0.00037,0.00011,0.0001,5e-05,5,1
26035,0,-4e-05,-0.00011,-0.00017,-0.00037,0.00011,0.0001,5e-05,5,1
26037,0.0001,0.00011,0.00014,0.00055,0.0006,0.00044,0.00015,6e-05,5,1
26040,6e-05,2e-05,4e-05,-0.00037,-0.00048,-3e-05,2e-05,4e-05,5,1
26041,6e-05,2e-05,4e-05,-0.00037,-0.00048,-3e-05,2e-05,4e-05,5,1
26042,6e-05,2e-05,4e-05,-0.00037,-0.00048,-3e-05,2e-05,4e-05,5,1
26043,6e-05,2e-05,4e-05,-0.00037,-0.00048,-3e-05,2e-05,4e-05,5,1
26044,6e-05,2e-05,4e-05,-0.00037,-0.00048,-3e-05,2e-05,4e-05,5,1
26045,6e-05,2e-05,4e-05,-0.00037,-0.00048,-3e-05,2e-05,4e-05,5,1
26046,6e-05,2e-05,4e-05,-0.00037,-0.00048,-3e-05,2e-05,4e-05,5,1
26047,6e-05,2e-05,4e-05,-0.00037,-0.00048,-3e-05,2e-05,4e-05,5,1
26048,6e-05,2e-05,4e-05,-0.00037,-0.00048,-3e-05,2e-05,4e-05,5,1
26050,6e-05,2e-05,4e-05,-0.00037,-0.00048,-3e-05,2e-05,4e-05,5,1
26051,6e-05,2e-05,4e-05,-0.00037,-0.00048,-3e-05,2e-05,4e-05,5,1
26052,6e-05,2e-05,4e-05,-0.00037,-0.00048,-3e-05,2e-05,4e-05,5,1
26053,6e-05,2e-05,4e-05,-0.00037,-0.00048,-3e-05,2e-05,4e-05,5,1
26054,6e-05,2e-05,4e-05,-0.00037,-0.00048,-3e-05,2e-05,4e-05,5,1
26055,6e-05,2e-05,4e-05,-0.00037,-0.00048,-3e-05,2e-05,4e-05,5,1
26056,6e-05,2e-05,4e-05,-0.00037,-0.00048,-3e-05,2e-05,4e-05,5,1
26057,6e-05,2e-05,4e-05,-0.00037,-0.00048,-3e-05,2e-05,4e-05,5,1
26058,-3e-05,0.0001,0.00014,-8e-05,-5e-05,-4e-05,-6e-05,-3e-05,5,1
26059,-3e-05,0.0001,0.00014,-8e-05,-5e-05,-4e-05,-6e-05,-3e-05,5,1
26060,-3e-05,-0.00018,-1e-05,0.00015,0.00029,6e-05,0,0,5,1
26061,-4e-05,-0.00011,-0.00016,-0.00013,0.00017,1e-05,-3e-05,-4e-05,5,1
26062,-4e-05,-0.00011,-0.00016,-0.00013,0.00017,1e-05,-3e-05,-4e-05,5,1
26063,-4e-05,-0.00011,-0.00016,-0.00013,0.00017,1e-05,-3e-05,-4e-05,5,1
26064,-4e-05,-0.00011,-0.00016,-0.00013,0.00017,1e-05,-3e-05,-4e-05,5,1
26065,-4e-05,-0.00011,-0.00016,-0.00013,0.00017,1e-05,-3e-05,-4e-05,5,1
26066,-4e-05,-0.00011,-0.00016,-0.00013,0.00017,1e-05,-3e-05,-4e-05,5,1
26067,-4e-05,-0.00011,-0.00016,-0.00013,0.00017,1e-05,-3e-05,-4e-05,5,1
26068,-4e-05,-0.00011,-0.00016,-0.00013,0.00017,1e-05,-3e-05,-4e-05,5,1
26069,-4e-05,-0.00011,-0.00016,-0.00013,0.00017,1e-05,-3e-05,-4e-05,5,1
26070,-4e-05,-0.00011,-0.00016,-0.00013,0.00017,1e-05,-3e-05,-4e-05,5,1
26071,-4e-05,-0.00011,-0.00016,-0.00013,0.00017,1e-05,-3e-05,-4e-05,5,1
26072,-4e-05,-0.00011,-0.00016,-0.00013,0.00017,1e-05,-3e-05,-4e-05,5,1
26073,-4e-05,-0.00011,-0.00016,-0.00013,0.00017,1e-05,-3e-05,-4e-05,5,1
26074,-4e-05,-0.00011,-0.00016,-0.00013,0.00017,1e-05,-3e-05,-4e-05,5,1
26075,-4e-05,-0.00011,-0.00016,-0.00013,0.00017,1e-05,-3e-05,-4e-05,5,1
26076,-4e-05,-0.00011,-0.00016,-0.00013,0.00017,1e-05,-3e-05,-4e-05,5,1
26077,-4e-05,-0.00011,-0.00016,-0.00013,0.00017,1e-05,-3e-05,-4e-05,5,1
26078,-4e-05,-0.00011,-0.00016,-0.00013,0.00017,1e-05,-3e-05,-4e-05,5,1
26079,-4e-05,-0.00011,-0.00016,-0.00013,0.00017,1e-05,-3e-05,-4e-05,5,1
26080,-4e-05,-0.00011,-0.00016,-0.00013,0.00017,1e-05,-3e-05,-4e-05,5,1
26081,-4e-05,-0.00011,-0.00016,-0.00013,0.00017,1e-05,-3e-05,-4e-05,5,1
26082,-4e-05,-0.00011,-0.00016,-0.00013,0.00017,1e-05,-3e-05,-4e-05,5,1
26083,-4e-05,-0.00011,-0.00016,-0.00013,0.00017,1e-05,-3e-05,-4e-05,5,1
26084,-4e-05,-0.00011,-0.00016,-0.00013,0.00017,1e-05,-3e-05,-4e-05,5,1
26085,-4e-05,-0.00011,-0.00016,-0.00013,0.00017,1e-05,-3e-05,-4e-05,5,1
26086,-4e-05,-0.00011,-0.00016,-0.00013,0.00017,1e-05,-3e-05,-4e-05,5,1
26089,-5e-05,-7e-05,-7e-05,-3e-05,5e-05,0.0001,-3e-05,-4e-05,5,1
26090,-5e-05,-7e-05,-7e-05,-3e-05,5e-05,0.0001,-3e-05,-4e-05,5,1
26091,-5e-05,-7e-05,-7e-05,-3e-05,5e-05,0.0001,-3e-05,-4e-05,5,1
26092,-5e-05,-7e-05,-7e-05,-3e-05,5e-05,0.0001,-3e-05,-4e-05,5,1
26093,-5e-05,-7e-05,-7e-05,-3e-05,5e-05,0.0001,-3e-05,-4e-05,5,1
26094,-5e-05,-7e-05,-7e-05,-3e-05,5e-05,0.0001,-3e-05,-4e-05,5,1
26095,-5e-05,-7e-05,-7e-05,-3e-05,5e-05,0.0001,-3e-05,-4e-05,5,1
26096,-5e-05,-7e-05,-7e-05,-3e-05,5e-05,0.0001,-3e-05,-4e-05,5,1
26097,-5e-05,-7e-05,-7e-05,-3e-05,5e-05,0.0001,-3e-05,-4e-05,5,1
26098,-5e-05,-7e-05,-7e-05,-3e-05,5e-05,0.0001,-3e-05,-4e-05,5,1
26099,-5e-05,-7e-05,-7e-05,-3e-05,5e-05,0.0001,-3e-05,-4e-05,5,1
26100,-5e-05,-7e-05,-7e-05,-3e-05,5e-05,0.0001,-3e-05,-4e-05,5,1
26101,-5e-05,-7e-05,-7e-05,-3e-05,5e-05,0.0001,-3e-05,-4e-05,5,1
26102,-5e-05,-7e-05,-7e-05,-3e-05,5e-05,0.0001,-3e-05,-4e-05,5,1
26103,-5e-05,-7e-05,-7e-05,-3e-05,5e-05,0.0001,-3e-05,-4e-05,5,1
26104,-5e-05,-7e-05,-7e-05,-3e-05,5e-05,0.0001,-3e-05,-4e-05,5,1
26105,-5e-05,-7e-05,-7e-05,-3e-05,5e-05,0.0001,-3e-05,-4e-05,5,1
26106,-5e-05,-7e-05,-7e-05,-3e-05,5e-05,0.0001,-3e-05,-4e-05,5,1
26107,-5e-05,-7e-05,-7e-05,-3e-05,5e-05,0.0001,-3e-05,-4e-05,5,1
26108,-5e-05,-7e-05,-7e-05,-3e-05,5e-05,0.0001,-3e-05,-4e-05,5,1
26109,-5e-05,-7e-05,-7e-05,-3e-05,5e-05,0.0001,-3e-05,-4e-05,5,1
26110,-5e-05,-7e-05,-7e-05,-3e-05,5e-05,0.0001,-3e-05,-4e-05,5,1
26111,0.00015,0.00033,0.00042,0.00011,-6e-05,0.00036,0.00027,0.00018,5,1
26112,-8e-05,-0.00027,-0.00043,-0.00023,-0.00028,-4e-05,-4e-05,-4e-05,5,1
26113,-2e-05,0.00013,0.00016,-6e-05,-2e-05,-0.00025,-0.00015,-6e-05,5,1
26114,-2e-05,0.00013,0.00016,-6e-05,-2e-05,-0.00025,-0.00015,-6e-05,5,1
26115,-2e-05,0.00013,0.00016,-6e-05,-2e-05,-0.00025,-0.00015,-6e-05,5,1
26116,-2e-05,0.00013,0.00016,-6e-05,-2e-05,-0.00025,-0.00015,-6e-05,5,1
26117,-2e-05,0.00013,0.00016,-6e-05,-2e-05,-0.00025,-0.00015,-6e-05,5,1
26118,-2e-05,0.00013,0.00016,-6e-05,-2e-05,-0.00025,-0.00015,-6e-05,5,1
26119,-2e-05,0.00013,0.00016,-6e-05,-2e-05,-0.00025,-0.00015,-6e-05,5,1
26120,-2e-05,0.00013,0.00016,-6e-05,-2e-05,-0.00025,-0.00015,-6e-05,5,1
26121,-2e-05,0.00013,0.00016,-6e-05,-2e-05,-0.00025,-0.00015,-6e-05,5,1
26122,-2e-05,0.00013,0.00016,-6e-05,-2e-05,-0.00025,-0.00015,-6e-05,5,1
26123,-2e-05,0.00013,0.00016,-6e-05,-2e-05,-0.00025,-0.00015,-6e-05,5,1
26124,-2e-05,0.00013,0.00016,-6e-05,-2e-05,-0.00025,-0.00015,-6e-05,5,1
26125,-2e-05,0.00013,0.00016,-6e-05,-2e-05,-0.00025,-0.00015,-6e-05,5,1
26126,-2e-05,0.00013,0.00016,-6e-05,-2e-05,-0.00025,-0.00015,-6e-05,5,1
26127,-2e-05,0.00013,0.00016,-6e-05,-2e-05,-0.00025,-0.00015,-6e-05,5,1
26128,-2e-05,0.00013,0.00016,-6e-05,-2e-05,-0.00025,-0.00015,-6e-05,5,1
26129,-2e-05,0.00013,0.00016,-6e-05,-2e-05,-0.00025,-0.00015,-6e-05,5,1
26130,-2e-05,0.00013,0.00016,-6e-05,-2e-05,-0.00025,-0.00015,-6e-05,5,1
26131,-2e-05,0.00013,0.00016,-6e-05,-2e-05,-0.00025,-0.00015,-6e-05,5,1
26132,-2e-05,0.00013,0.00016,-6e-05,-2e-05,-0.00025,-0.00015,-6e-05,5,1
26133,1e-05,-8e-05,0.0002,0,-7e-05,-0.00033,-0.00012,0,5,1
26134,1e-05,-8e-05,0.0002,0,-7e-05,-0.00033,-0.00012,0,5,1
