23135,2e-05,0.00014,0.0002,0.00083,0.00042,-0.00011,0,1e-05,5,11
23138,2e-05,0.00014,0.0002,0.00083,0.00042,-0.00011,0,1e-05,5,11
23139,2e-05,0.00014,0.0002,0.00083,0.00042,-0.00011,0,1e-05,5,11
23140,2e-05,0.00014,0.0002,0.00083,0.00042,-0.00011,0,1e-05,5,11
23141,2e-05,0.00014,0.0002,0.00083,0.00042,-0.00011,0,1e-05,5,11
23142,2e-05,0.00014,0.0002,0.00083,0.00042,-0.00011,0,1e-05,5,11
23143,2e-05,0.00014,0.0002,0.00083,0.00042,-0.00011,0,1e-05,5,11
23144,2e-05,0.00014,0.0002,0.00083,0.00042,-0.00011,0,1e-05,5,11
23145,-0.00014,-9e-05,-9e-05,-0.00012,0.00024,0.00012,0,0,5,11
23146,1e-05,-0.0004,-0.00014,-0.00033,-0.00101,0.00011,5e-05,3e-05,5,11
23148,1e-05,-0.0004,-0.00014,-0.00033,-0.00101,0.00011,5e-05,3e-05,5,11
23149,1e-05,-0.0004,-0.00014,-0.00033,-0.00101,0.00011,5e-05,3e-05,5,11
23150,1e-05,-0.0004,-0.00014,-0.00033,-0.00101,0.00011,5e-05,3e-05,5,11
23151,1e-05,-0.0004,-0.00014,-0.00033,-0.00101,0.00011,5e-05,3e-05,5,11
23152,1e-05,-0.0004,-0.00014,-0.00033,-0.00101,0.00011,5e-05,3e-05,5,11
23153,1e-05,-0.0004,-0.00014,-0.00033,-0.00101,0.00011,5e-05,3e-05,5,11
23154,1e-05,-0.0004,-0.00014,-0.00033,-0.00101,0.00011,5e-05,3e-05,5,11
23155,1e-05,-0.0004,-0.00014,-0.00033,-0.00101,0.00011,5e-05,3e-05,5,11
23156,1e-05,-0.0004,-0.00014,-0.00033,-0.00101,0.00011,5e-05,3e-05,5,11
23157,1e-05,-0.0004,-0.00014,-0.00033,-0.00101,0.00011,5e-05,3e-05,5,11
23158,1e-05,-0.0004,-0.00014,-0.00033,-0.00101,0.00011,5e-05,3e-05,5,11
23159,-0.00056,-0.00078,-3e-05,-0.00063,-0.00063,-0.00016,-6e-05,-9e-05,5,11
23160,-0.00056,-0.00078,-3e-05,-0.00063,-0.00063,-0.00016,-6e-05,-9e-05,5,11
23161,-0.00056,-0.00078,-3e-05,-0.00063,-0.00063,-0.00016,-6e-05,-9e-05,5,11
23162,-0.00056,-0.00078,-3e-05,-0.00063,-0.00063,-0.00016,-6e-05,-9e-05,5,11
23163,-0.00056,-0.00078,-3e-05,-0.00063,-0.00063,-0.00016,-6e-05,-9e-05,5,11
23164,-0.00056,-0.00078,-3e-05,-0.00063,-0.00063,-0.00016,-6e-05,-9e-05,5,11
23165,-0.00056,-0.00078,-3e-05,-0.00063,-0.00063,-0.00016,-6e-05,-9e-05,5,11
23166,-0.00034,-0.00119,7e-05,0.00036,0.00042,0.00024,5e-05,-4e-05,5,11
23167,-0.00034,-0.00119,7e-05,0.00036,0.00042,0.00024,5e-05,-4e-05,5,11
23168,-0.00034,-0.00119,7e-05,0.00036,0.00042,0.00024,5e-05,-4e-05,5,11
23169,-0.00034,-0.00119,7e-05,0.00036,0.00042,0.00024,5e-05,-4e-05,5,11
23170,-0.00034,-0.00119,7e-05,0.00036,0.00042,0.00024,5e-05,-4e-05,5,11
23171,-0.00034,-0.00119,7e-05,0.00036,0.00042,0.00024,5e-05,-4e-05,5,11
23172,-0.00034,-0.00119,7e-05,0.00036,0.00042,0.00024,5e-05,-4e-05,5,11
23173,-0.00034,-0.00119,7e-05,0.00036,0.00042,0.00024,5e-05,-4e-05,5,11
23174,-0.00034,-0.00119,7e-05,0.00036,0.00042,0.00024,5e-05,-4e-05,5,11
23175,-0.00034,-0.00119,7e-05,0.00036,0.00042,0.00024,5e-05,-4e-05,5,11
23176,-0.00034,-0.00119,7e-05,0.00036,0.00042,0.00024,5e-05,-4e-05,5,11
23177,-0.00034,-0.00119,7e-05,0.00036,0.00042,0.00024,5e-05,-4e-05,5,11
23178,-0.00034,-0.00119,7e-05,0.00036,0.00042,0.00024,5e-05,-4e-05,5,11
23179,-0.00034,-0.00119,7e-05,0.00036,0.00042,0.00024,5e-05,-4e-05,5,11
23180,-0.00034,-0.00119,7e-05,0.00036,0.00042,0.00024,5e-05,-4e-05,5,11
23181,-0.00034,-0.00119,7e-05,0.00036,0.00042,0.00024,5e-05,-4e-05,5,11
23182,5e-05,-0.00019,0.00022,0.00031,-0.00081,-0.00011,-4e-05,2e-05,5,11
23183,5e-05,-0.00019,0.00022,0.00031,-0.00081,-0.00011,-4e-05,2e-05,5,11
23184,0,-0.00052,7e-05,-0.0001,0.00083,0.00019,1e-05,-4e-05,5,11
23185,0,-0.00052,7e-05,-0.0001,0.00083,0.00019,1e-05,-4e-05,5,11
23186,0,-0.00052,7e-05,-0.0001,0.00083,0.00019,1e-05,-4e-05,5,11
23188,0,-0.00052,7e-05,-0.0001,0.00083,0.00019,1e-05,-4e-05,5,11
23189,0,-0.00052,7e-05,-0.0001,0.00083,0.00019,1e-05,-4e-05,5,11
23190,0,-0.00052,7e-05,-0.0001,0.00083,0.00019,1e-05,-4e-05,5,11
23191,0,-0.00052,7e-05,-0.0001,0.00083,0.00019,1e-05,-4e-05,5,11
23192,0,-0.00052,7e-05,-0.0001,0.00083,0.00019,1e-05,-4e-05,5,11
23193,0,-0.00052,7e-05,-0.0001,0.00083,0.00019,1e-05,-4e-05,5,11
23194,0,-0.00052,7e-05,-0.0001,0.00083,0.00019,1e-05,-4e-05,5,11
23195,0,-0.00052,7e-05,-0.0001,0.00083,0.00019,1e-05,-4e-05,5,11
23196,0,-0.00052,7e-05,-0.0001,0.00083,0.00019,1e-05,-4e-05,5,11
23197,0,-0.00052,7e-05,-0.0001,0.00083,0.00019,1e-05,-4e-05,5,11
23198,0,-0.00052,7e-05,-0.0001,0.00083,0.00019,1e-05,-4e-05,5,11
23199,0,-0.00052,7e-05,-0.0001,0.00083,0.00019,1e-05,-4e-05,5,11
23200,0,-0.00052,7e-05,-0.0001,0.00083,0.00019,1e-05,-4e-05,5,11
23201,0,-0.00052,7e-05,-0.0001,0.00083,0.00019,1e-05,-4e-05,5,11
23202,0,-0.00052,7e-05,-0.0001,0.00083,0.00019,1e-05,-4e-05,5,11
23203,0,-0.00052,7e-05,-0.0001,0.00083,0.00019,1e-05,-4e-05,5,11
23204,0,-0.00052,7e-05,-0.0001,0.00083,0.00019,1e-05,-4e-05,5,11
23205,0.00013,-4e-05,7e-05,0.00036,0.00018,0,6e-05,5e-05,5,11
23206,0.00013,0.00064,0.00013,0.00036,0.00098,0.00013,0,-4e-05,5,11
23207,0.00013,0.00064,0.00013,0.00036,0.00098,0.00013,0,-4e-05,5,11
23208,0.00013,0.00064,0.00013,0.00036,0.00098,0.00013,0,-4e-05,5,11
23209,0.00013,0.00064,0.00013,0.00036,0.00098,0.00013,0,-4e-05,5,11
23210,0.00013,0.00064,0.00013,0.00036,0.00098,0.00013,0,-4e-05,5,11
23211,0.00013,0.00064,0.00013,0.00036,0.00098,0.00013,0,-4e-05,5,11
23212,0.00013,0.00064,0.00013,0.00036,0.00098,0.00013,0,-4e-05,5,11
23213,0.00013,0.00064,0.00013,0.00036,0.00098,0.00013,0,-4e-05,5,11
23214,0.00013,0.00064,0.00013,0.00036,0.00098,0.00013,0,-4e-05,5,11
23215,0.00013,0.00064,0.00013,0.00036,0.00098,0.00013,0,-4e-05,5,11
23216,0.00013,0.00064,0.00013,0.00036,0.00098,0.00013,0,-4e-05,5,11
23217,0.00013,0.00064,0.00013,0.00036,0.00098,0.00013,0,-4e-05,5,11
23218,0.00013,0.00064,0.00013,0.00036,0.00098,0.00013,0,-4e-05,5,11
23219,0.00028,0.00022,3e-05,-1e-05,0.00043,-3e-05,-2e-05,3e-05,5,11
23220,0.00028,0.00022,3e-05,-1e-05,0.00043,-3e-05,-2e-05,3e-05,5,11
23221,0.00028,0.00022,3e-05,-1e-05,0.00043,-3e-05,-2e-05,3e-05,5,11
23222,0.00028,0.00022,3e-05,-1e-05,0.00043,-3e-05,-2e-05,3e-05,5,11
23223,0.00028,0.00022,3e-05,-1e-05,0.00043,-3e-05,-2e-05,3e-05,5,11
23224,0.00028,0.00022,3e-05,-1e-05,0.00043,-3e-05,-2e-05,3e-05,5,11
23225,0.00028,0.00022,3e-05,-1e-05,0.00043,-3e-05,-2e-05,3e-05,5,11
23226,0.00011,0.00036,-4e-05,0.00039,-0.00041,-0.00023,-3e-05,1e-05,5,11
23227,0.00011,0.00036,-4e-05,0.00039,-0.00041,-0.00023,-3e-05,1e-05,5,11
23228,0.00011,0.00036,-4e-05,0.00039,-0.00041,-0.00023,-3e-05,1e-05,5,11
23229,0.00011,0.00036,-4e-05,0.00039,-0.00041,-0.00023,-3e-05,1e-05,5,11
23230,0.00011,0.00036,-4e-05,0.00039,-0.00041,-0.00023,-3e-05,1e-05,5,11
23231,0.00011,0.00036,-4e-05,0.00039,-0.00041,-0.00023,-3e-05,1e-05,5,11
23232,0.00011,0.00036,-4e-05,0.00039,-0.00041,-0.00023,-3e-05,1e-05,5,11
23233,0.00011,0.00036,-4e-05,0.00039,-0.00041,-0.00023,-3e-05,1e-05,5,11
23234,0.00011,0.00036,-4e-05,0.00039,-0.00041,-0.00023,-3e-05,1e-05,5,11
23235,0.00011,0.00036,-4e-05,0.00039,-0.00041,-0.00023,-3e-05,1e-05,5,11
23236,0.00011,0.00036,-4e-05,0.00039,-0.00041,-0.00023,-3e-05,1e-05,5,11
23238,0.00011,0.00036,-4e-05,0.00039,-0.00041,-0.00023,-3e-05,1e-05,5,11
23239,0.00011,0.00036,-4e-05,0.00039,-0.00041,-0.00023,-3e-05,1e-05,5,11
23240,0.00011,0.00036,-4e-05,0.00039,-0.00041,-0.00023,-3e-05,1e-05,5,11
23241,0.00011,0.00036,-4e-05,0.00039,-0.00041,-0.00023,-3e-05,1e-05,5,11
23242,0.00011,0.00036,-4e-05,0.00039,-0.00041,-0.00023,-3e-05,1e-05,5,11
23243,0.00011,0.00036,-4e-05,0.00039,-0.00041,-0.00023,-3e-05,1e-05,5,11
23244,0.00011,0.00036,-4e-05,0.00039,-0.00041,-0.00023,-3e-05,1e-05,5,11
23245,0.00011,0.00036,-4e-05,0.00039,-0.00041,-0.00023,-3e-05,1e-05,5,11
23246,0.00011,0.00036,-4e-05,0.00039,-0.00041,-0.00023,-3e-05,1e-05,5,11
23247,0.00011,0.00036,-4e-05,0.00039,-0.00041,-0.00023,-3e-05,1e-05,5,11
23248,0.00011,0.00036,-4e-05,0.00039,-0.00041,-0.00023,-3e-05,1e-05,5,11
23249,0.00011,0.00036,-4e-05,0.00039,-0.00041,-0.00023,-3e-05,1e-05,5,11
23250,-5e-05,0.00085,-0.00024,-0.00113,0.00045,-4e-05,0,4e-05,5,11
23251,0.0001,-0.00033,-5e-05,0.00019,0.0001,0,-4e-05,-1e-05,5,11
23252,0.0001,-0.00033,-5e-05,0.00019,0.0001,0,-4e-05,-1e-05,5,11
23253,0.0001,-0.00033,-5e-05,0.00019,0.0001,0,-4e-05,-1e-05,5,11
23254,0.0001,-0.00033,-5e-05,0.00019,0.0001,0,-4e-05,-1e-05,5,11
23255,0.0001,-0.00033,-5e-05,0.00019,0.0001,0,-4e-05,-1e-05,5,11
23256,0.0001,-0.00033,-5e-05,0.00019,0.0001,0,-4e-05,-1e-05,5,11
23257,0.0001,-0.00033,-5e-05,0.00019,0.0001,0,-4e-05,-1e-05,5,11
23258,0.0001,-0.00033,-5e-05,0.00019,0.0001,0,-4e-05,-1e-05,5,11
23259,0.0001,-0.00033,-5e-05,0.00019,0.0001,0,-4e-05,-1e-05,5,11
23260,0.0001,-0.00033,-5e-05,0.00019,0.0001,0,-4e-05,-1e-05,5,11
23261,0.0001,-0.00033,-5e-05,0.00019,0.0001,0,-4e-05,-1e-05,5,11
23262,0.0001,-0.00033,-5e-05,0.00019,0.0001,0,-4e-05,-1e-05,5,11
23263,0.0001,-0.00033,-5e-05,0.00019,0.0001,0,-4e-05,-1e-05,5,11
23264,0.0001,-0.00033,-5e-05,0.00019,0.0001,0,-4e-05,-1e-05,5,11
23265,0.0001,-0.00033,-5e-05,0.00019,0.0001,0,-4e-05,-1e-05,5,11
23266,-0.00018,-0.00056,-0.0001,-0.00025,-0.00079,-7e-05,6e-05,5e-05,5,11
23267,-0.00018,-0.00056,-0.0001,-0.00025,-0.00079,-7e-05,6e-05,5e-05,5,11
23268,-0.00018,-0.00056,-0.0001,-0.00025,-0.00079,-7e-05,6e-05,5e-05,5,11
23269,-0.00018,-0.00056,-0.0001,-0.00025,-0.00079,-7e-05,6e-05,5e-05,5,11
23270,-0.00018,-0.00056,-0.0001,-0.00025,-0.00079,-7e-05,6e-05,5e-05,5,11
23271,-0.00018,-0.00056,-0.0001,-0.00025,-0.00079,-7e-05,6e-05,5e-05,5,11
23272,-0.00018,-0.00056,-0.0001,-0.00025,-0.00079,-7e-05,6e-05,5e-05,5,11
23273,-0.00018,-0.00056,-0.0001,-0.00025,-0.00079,-7e-05,6e-05,5e-05,5,11
23274,-0.00018,-0.00056,-0.0001,-0.00025,-0.00079,-7e-05,6e-05,5e-05,5,11
23275,-0.00018,-0.00056,-0.0001,-0.00025,-0.00079,-7e-05,6e-05,5e-05,5,11
23276,-0.00018,-0.00056,-0.0001,-0.00025,-0.00079,-7e-05,6e-05,5e-05,5,11
23277,-0.00018,-0.00056,-0.0001,-0.00025,-0.00079,-7e-05,6e-05,5e-05,5,11
23278,-0.00018,-0.00056,-0.0001,-0.00025,-0.00079,-7e-05,6e-05,5e-05,5,11
23279,3e-05,-0.00103,0.00013,0.00079,5e-05,4e-05,0,-3e-05,5,11
23280,3e-05,-0.00103,0.00013,0.00079,5e-05,4e-05,0,-3e-05,5,11
23281,3e-05,-0.00103,0.00013,0.00079,5e-05,4e-05,0,-3e-05,5,11
23282,3e-05,-0.00103,0.00013,0.00079,5e-05,4e-05,0,-3e-05,5,11
23283,3e-05,-0.00103,0.00013,0.00079,5e-05,4e-05,0,-3e-05,5,11
23284,3e-05,-0.00103,0.00013,0.00079,5e-05,4e-05,0,-3e-05,5,11
23285,3e-05,-0.00103,0.00013,0.00079,5e-05,4e-05,0,-3e-05,5,11
23286,-0.0001,0.00032,-0.00042,-0.00126,-0.00063,-4e-05,-3e-05,-4e-05,5,11
23289,-0.0001,0.00032,-0.00042,-0.00126,-0.00063,-4e-05,-3e-05,-4e-05,5,11
23290,-0.0001,0.00032,-0.00042,-0.00126,-0.00063,-4e-05,-3e-05,-4e-05,5,11
23291,-0.0001,0.00032,-0.00042,-0.00126,-0.00063,-4e-05,-3e-05,-4e-05,5,11
23292,-0.0001,0.00032,-0.00042,-0.00126,-0.00063,-4e-05,-3e-05,-4e-05,5,11
23293,-0.0001,0.00032,-0.00042,-0.00126,-0.00063,-4e-05,-3e-05,-4e-05,5,11
23294,-0.0001,0.00032,-0.00042,-0.00126,-0.00063,-4e-05,-3e-05,-4e-05,5,11
23295,-0.0001,0.00032,-0.00042,-0.00126,-0.00063,-4e-05,-3e-05,-4e-05,5,11
23296,-0.0001,0.00032,-0.00042,-0.00126,-0.00063,-4e-05,-3e-05,-4e-05,5,11
23297,-0.0001,0.00032,-0.00042,-0.00126,-0.00063,-4e-05,-3e-05,-4e-05,5,11
23298,-0.0001,0.00032,-0.00042,-0.00126,-0.00063,-4e-05,-3e-05,-4e-05,5,11
23299,-0.0001,0.00032,-0.00042,-0.00126,-0.00063,-4e-05,-3e-05,-4e-05,5,11
23300,-0.0001,0.00032,-0.00042,-0.00126,-0.00063,-4e-05,-3e-05,-4e-05,5,11
23301,-0.0001,0.00032,-0.00042,-0.00126,-0.00063,-4e-05,-3e-05,-4e-05,5,11
23302,7e-05,0.00024,-5e-05,0.0001,-0.00103,-0.00026,-0.0001,-5e-05,5,11
23303,7e-05,0.00024,-5e-05,0.0001,-0.00103,-0.00026,-0.0001,-5e-05,5,11
23304,-7e-05,-7e-05,-0.00026,0.00064,0.00033,3e-05,-0.0001,-7e-05,5,11
23305,-7e-05,-7e-05,-0.00026,0.00064,0.00033,3e-05,-0.0001,-7e-05,5,11
23306,-7e-05,-7e-05,-0.00026,0.00064,0.00033,3e-05,-0.0001,-7e-05,5,11
23307,-7e-05,-7e-05,-0.00026,0.00064,0.00033,3e-05,-0.0001,-7e-05,5,11
23308,-7e-05,-7e-05,-0.00026,0.00064,0.00033,3e-05,-0.0001,-7e-05,5,11
23309,-7e-05,-7e-05,-0.00026,0.00064,0.00033,3e-05,-0.0001,-7e-05,5,11
23310,-7e-05,-7e-05,-0.00026,0.00064,0.00033,3e-05,-0.0001,-7e-05,5,11
23311,-7e-05,-7e-05,-0.00026,0.00064,0.00033,3e-05,-0.0001,-7e-05,5,11
23312,-7e-05,-7e-05,-0.00026,0.00064,0.00033,3e-05,-0.0001,-7e-05,5,11
23313,-7e-05,-7e-05,-0.00026,0.00064,0.00033,3e-05,-0.0001,-7e-05,5,11
23314,-7e-05,-7e-05,-0.00026,0.00064,0.00033,3e-05,-0.0001,-7e-05,5,11
23315,-7e-05,-7e-05,-0.00026,0.00064,0.00033,3e-05,-0.0001,-7e-05,5,11
23316,-7e-05,-7e-05,-0.00026,0.00064,0.00033,3e-05,-0.0001,-7e-05,5,11
23317,-7e-05,-7e-05,-0.00026,0.00064,0.00033,3e-05,-0.0001,-7e-05,5,11
23318,-7e-05,-7e-05,-0.00026,0.00064,0.00033,3e-05,-0.0001,-7e-05,5,11
23319,-7e-05,-7e-05,-0.00026,0.00064,0.00033,3e-05,-0.0001,-7e-05,5,11
23320,-7e-05,-7e-05,-0.00026,0.00064,0.00033,3e-05,-0.0001,-7e-05,5,11
23321,-7e-05,-7e-05,-0.00026,0.00064,0.00033,3e-05,-0.0001,-7e-05,5,11
23322,-7e-05,-7e-05,-0.00026,0.00064,0.00033,3e-05,-0.0001,-7e-05,5,11
23323,-7e-05,-7e-05,-0.00026,0.00064,0.00033,3e-05,-0.0001,-7e-05,5,11
23324,-7e-05,-7e-05,-0.00026,0.00064,0.00033,3e-05,-0.0001,-7e-05,5,11
23325,-3e-05,0.0004,-0.00013,-0.00058,-0.00075,-7e-05,1e-05,2e-05,5,11
23326,-1e-05,3e-05,0.00034,0.00028,0.00057,-2e-05,2e-05,5e-05,5,11
23327,-1e-05,3e-05,0.00034,0.00028,0.00057,-2e-05,2e-05,5e-05,5,11
23328,-1e-05,3e-05,0.00034,0.00028,0.00057,-2e-05,2e-05,5e-05,5,11
23329,-1e-05,3e-05,0.00034,0.00028,0.00057,-2e-05,2e-05,5e-05,5,11
23330,-1e-05,3e-05,0.00034,0.00028,0.00057,-2e-05,2e-05,5e-05,5,11
23331,-1e-05,3e-05,0.00034,0.00028,0.00057,-2e-05,2e-05,5e-05,5,11
23332,-1e-05,3e-05,0.00034,0.00028,0.00057,-2e-05,2e-05,5e-05,5,11
23333,-1e-05,3e-05,0.00034,0.00028,0.00057,-2e-05,2e-05,5e-05,5,11
23334,-1e-05,3e-05,0.00034,0.00028,0.00057,-2e-05,2e-05,5e-05,5,11
23335,-1e-05,3e-05,0.00034,0.00028,0.00057,-2e-05,2e-05,5e-05,5,11
23336,-1e-05,3e-05,0.00034,0.00028,0.00057,-2e-05,2e-05,5e-05,5,11
23338,-1e-05,3e-05,0.00034,0.00028,0.00057,-2e-05,2e-05,5e-05,5,11
23339,0.0001,0,-0.00015,5e-05,0.00024,0.00029,1e-05,-5e-05,5,11
23340,-3e-05,9e-05,0.00038,0.00105,0.00012,3e-05,-1e-05,2e-05,5,11
23342,-3e-05,9e-05,0.00038,0.00105,0.00012,3e-05,-1e-05,2e-05,5,11
23343,-3e-05,9e-05,0.00038,0.00105,0.00012,3e-05,-1e-05,2e-05,5,11
23344,-3e-05,9e-05,0.00038,0.00105,0.00012,3e-05,-1e-05,2e-05,5,11
23345,-3e-05,9e-05,0.00038,0.00105,0.00012,3e-05,-1e-05,2e-05,5,11
23346,3e-05,0.00034,0.0001,0.00017,-0.00018,-7e-05,-9e-05,-7e-05,5,11
23347,3e-05,0.00034,0.0001,0.00017,-0.00018,-7e-05,-9e-05,-7e-05,5,11
23348,3e-05,0.00034,0.0001,0.00017,-0.00018,-7e-05,-9e-05,-7e-05,5,11
23349,3e-05,0.00034,0.0001,0.00017,-0.00018,-7e-05,-9e-05,-7e-05,5,11
23350,3e-05,0.00034,0.0001,0.00017,-0.00018,-7e-05,-9e-05,-7e-05,5,11
23351,3e-05,0.00034,0.0001,0.00017,-0.00018,-7e-05,-9e-05,-7e-05,5,11
23352,3e-05,0.00034,0.0001,0.00017,-0.00018,-7e-05,-9e-05,-7e-05,5,11
23353,3e-05,0.00034,0.0001,0.00017,-0.00018,-7e-05,-9e-05,-7e-05,5,11
23354,3e-05,0.00034,0.0001,0.00017,-0.00018,-7e-05,-9e-05,-7e-05,5,11
23355,3e-05,0.00034,0.0001,0.00017,-0.00018,-7e-05,-9e-05,-7e-05,5,11
23356,3e-05,0.00034,0.0001,0.00017,-0.00018,-7e-05,-9e-05,-7e-05,5,11
23357,3e-05,0.00034,0.0001,0.00017,-0.00018,-7e-05,-9e-05,-7e-05,5,11
23358,3e-05,0.00034,0.0001,0.00017,-0.00018,-7e-05,-9e-05,-7e-05,5,11
23359,3e-05,0.00034,0.0001,0.00017,-0.00018,-7e-05,-9e-05,-7e-05,5,11
23360,3e-05,0.00034,0.0001,0.00017,-0.00018,-7e-05,-9e-05,-7e-05,5,11
23361,3e-05,0.00034,0.0001,0.00017,-0.00018,-7e-05,-9e-05,-7e-05,5,11
23362,-0.00018,-0.00074,-6e-05,-0.00028,0.00074,0.00025,8e-05,-2e-05,5,11
23363,-0.00018,-0.00074,-6e-05,-0.00028,0.00074,0.00025,8e-05,-2e-05,5,11
23364,-0.00021,0.00094,-7e-05,-0.00071,2e-05,6e-05,5e-05,3e-05,5,11
23365,-0.00021,0.00094,-7e-05,-0.00071,2e-05,6e-05,5e-05,3e-05,5,11
23366,-0.00021,0.00094,-7e-05,-0.00071,2e-05,6e-05,5e-05,3e-05,5,11
23367,-0.00021,0.00094,-7e-05,-0.00071,2e-05,6e-05,5e-05,3e-05,5,11
23368,-0.00021,0.00094,-7e-05,-0.00071,2e-05,6e-05,5e-05,3e-05,5,11
23369,-0.00021,0.00094,-7e-05,-0.00071,2e-05,6e-05,5e-05,3e-05,5,11
23370,-0.00021,0.00094,-7e-05,-0.00071,2e-05,6e-05,5e-05,3e-05,5,11
23371,-0.00021,0.00094,-7e-05,-0.00071,2e-05,6e-05,5e-05,3e-05,5,11
23372,-0.00021,0.00094,-7e-05,-0.00071,2e-05,6e-05,5e-05,3e-05,5,11
23373,-0.00021,0.00094,-7e-05,-0.00071,2e-05,6e-05,5e-05,3e-05,5,11
23374,-0.00021,0.00094,-7e-05,-0.00071,2e-05,6e-05,5e-05,3e-05,5,11
23375,-0.00021,0.00094,-7e-05,-0.00071,2e-05,6e-05,5e-05,3e-05,5,11
23376,-0.00021,0.00094,-7e-05,-0.00071,2e-05,6e-05,5e-05,3e-05,5,11
23377,-0.00021,0.00094,-7e-05,-0.00071,2e-05,6e-05,5e-05,3e-05,5,11
23378,-0.00021,0.00094,-7e-05,-0.00071,2e-05,6e-05,5e-05,3e-05,5,11
23379,-0.00021,0.00094,-7e-05,-0.00071,2e-05,6e-05,5e-05,3e-05,5,11
23380,-0.00021,0.00094,-7e-05,-0.00071,2e-05,6e-05,5e-05,3e-05,5,11
23381,-0.00021,0.00094,-7e-05,-0.00071,2e-05,6e-05,5e-05,3e-05,5,11
23382,-0.00021,0.00094,-7e-05,-0.00071,2e-05,6e-05,5e-05,3e-05,5,11
23383,-0.00021,0.00094,-7e-05,-0.00071,2e-05,6e-05,5e-05,3e-05,5,11
23384,-0.00021,0.00094,-7e-05,-0.00071,2e-05,6e-05,5e-05,3e-05,5,11
23385,0.0001,0.00029,0.00015,2e-05,-0.0003,-0.00034,-0.0001,-2e-05,5,11
23386,-0.00013,-0.00046,-0.00019,0.0003,0.00013,0.00017,0,-3e-05,5,11
23388,-0.00013,-0.00046,-0.00019,0.0003,0.00013,0.00017,0,-3e-05,5,11
23389,-0.00013,-0.00046,-0.00019,0.0003,0.00013,0.00017,0,-3e-05,5,11
23390,-0.00013,-0.00046,-0.00019,0.0003,0.00013,0.00017,0,-3e-05,5,11
23391,-0.00013,-0.00046,-0.00019,0.0003,0.00013,0.00017,0,-3e-05,5,11
23392,-0.00013,-0.00046,-0.00019,0.0003,0.00013,0.00017,0,-3e-05,5,11
23393,-0.00013,-0.00046,-0.00019,0.0003,0.00013,0.00017,0,-3e-05,5,11
23394,-0.00013,-0.00046,-0.00019,0.0003,0.00013,0.00017,0,-3e-05,5,11
23395,-0.00013,-0.00046,-0.00019,0.0003,0.00013,0.00017,0,-3e-05,5,11
23396,-0.00013,-0.00046,-0.00019,0.0003,0.00013,0.00017,0,-3e-05,5,11
23397,-0.00013,-0.00046,-0.00019,0.0003,0.00013,0.00017,0,-3e-05,5,11
23398,-0.00013,-0.00046,-0.00019,0.0003,0.00013,0.00017,0,-3e-05,5,11
23399,0.00015,-0.00046,-0.00027,-0.00103,0.00017,0.0001,4e-05,-1e-05,5,11
23400,0.00015,-0.00046,-0.00027,-0.00103,0.00017,0.0001,4e-05,-1e-05,5,11
23401,0.00015,-0.00046,-0.00027,-0.00103,0.00017,0.0001,4e-05,-1e-05,5,11
23402,0.00015,-0.00046,-0.00027,-0.00103,0.00017,0.0001,4e-05,-1e-05,5,11
23403,0.00015,-0.00046,-0.00027,-0.00103,0.00017,0.0001,4e-05,-1e-05,5,11
23404,0.00015,-0.00046,-0.00027,-0.00103,0.00017,0.0001,4e-05,-1e-05,5,11
23405,0.00015,-0.00046,-0.00027,-0.00103,0.00017,0.0001,4e-05,-1e-05,5,11
23406,0.00015,-0.00046,-0.00027,-0.00103,0.00017,0.0001,4e-05,-1e-05,5,11
23407,5e-05,-0.00064,0.00018,0.00061,-0.00021,-6e-05,3e-05,2e-05,5,11
23409,5e-05,-0.00064,0.00018,0.00061,-0.00021,-6e-05,3e-05,2e-05,5,11
23410,5e-05,-0.00064,0.00018,0.00061,-0.00021,-6e-05,3e-05,2e-05,5,11
23411,5e-05,-0.00064,0.00018,0.00061,-0.00021,-6e-05,3e-05,2e-05,5,11
23412,5e-05,-0.00064,0.00018,0.00061,-0.00021,-6e-05,3e-05,2e-05,5,11
23413,5e-05,-0.00064,0.00018,0.00061,-0.00021,-6e-05,3e-05,2e-05,5,11
23414,5e-05,-0.00064,0.00018,0.00061,-0.00021,-6e-05,3e-05,2e-05,5,11
23415,5e-05,-0.00064,0.00018,0.00061,-0.00021,-6e-05,3e-05,2e-05,5,11
23416,5e-05,-0.00064,0.00018,0.00061,-0.00021,-6e-05,3e-05,2e-05,5,11
23417,5e-05,-0.00064,0.00018,0.00061,-0.00021,-6e-05,3e-05,2e-05,5,11
23418,5e-05,-0.00064,0.00018,0.00061,-0.00021,-6e-05,3e-05,2e-05,5,11
23419,5e-05,-0.00064,0.00018,0.00061,-0.00021,-6e-05,3e-05,2e-05,5,11
23420,5e-05,-0.00064,0.00018,0.00061,-0.00021,-6e-05,3e-05,2e-05,5,11
23421,5e-05,-0.00064,0.00018,0.00061,-0.00021,-6e-05,3e-05,2e-05,5,11
23422,2e-05,0.00029,-0.00056,-0.00042,-0.00066,-3e-05,-4e-05,-5e-05,5,11
23423,2e-05,0.00029,-0.00056,-0.00042,-0.00066,-3e-05,-4e-05,-5e-05,5,11
23424,-0.0001,-0.00037,-6e-05,-0.0002,-0.00069,-9e-05,-9e-05,-4e-05,5,11
23425,-0.0001,-0.00037,-6e-05,-0.0002,-0.00069,-9e-05,-9e-05,-4e-05,5,11
23426,-0.0001,-0.00037,-6e-05,-0.0002,-0.00069,-9e-05,-9e-05,-4e-05,5,11
23427,-0.0001,-0.00037,-6e-05,-0.0002,-0.00069,-9e-05,-9e-05,-4e-05,5,11
23428,-0.0001,-0.00037,-6e-05,-0.0002,-0.00069,-9e-05,-9e-05,-4e-05,5,11
23429,-0.0001,-0.00037,-6e-05,-0.0002,-0.00069,-9e-05,-9e-05,-4e-05,5,11
23430,-0.0001,-0.00037,-6e-05,-0.0002,-0.00069,-9e-05,-9e-05,-4e-05,5,11
23431,-0.0001,-0.00037,-6e-05,-0.0002,-0.00069,-9e-05,-9e-05,-4e-05,5,11
23432,-0.0001,-0.00037,-6e-05,-0.0002,-0.00069,-9e-05,-9e-05,-4e-05,5,11
23433,-0.0001,-0.00037,-6e-05,-0.0002,-0.00069,-9e-05,-9e-05,-4e-05,5,11
23434,-0.0001,-0.00037,-6e-05,-0.0002,-0.00069,-9e-05,-9e-05,-4e-05,5,11
23435,-0.0001,-0.00037,-6e-05,-0.0002,-0.00069,-9e-05,-9e-05,-4e-05,5,11
23436,-0.0001,-0.00037,-6e-05,-0.0002,-0.00069,-9e-05,-9e-05,-4e-05,5,11
23438,-0.0001,-0.00037,-6e-05,-0.0002,-0.00069,-9e-05,-9e-05,-4e-05,5,11
23439,-0.0001,-0.00037,-6e-05,-0.0002,-0.00069,-9e-05,-9e-05,-4e-05,5,11
23440,-0.0001,-0.00037,-6e-05,-0.0002,-0.00069,-9e-05,-9e-05,-4e-05,5,11
23441,-0.0001,-0.00037,-6e-05,-0.0002,-0.00069,-9e-05,-9e-05,-4e-05,5,11
23442,-0.0001,-0.00037,-6e-05,-0.0002,-0.00069,-9e-05,-9e-05,-4e-05,5,11
23443,-0.0001,-0.00037,-6e-05,-0.0002,-0.00069,-9e-05,-9e-05,-4e-05,5,11
23444,-0.0001,-0.00037,-6e-05,-0.0002,-0.00069,-9e-05,-9e-05,-4e-05,5,11
23445,-0.00014,-0.00037,1e-05,-5e-05,-0.0002,-0.00021,-0.00012,-0.0001,5,11
23446,-0.00013,-0.00015,-0.0002,-0.00046,0.00043,9e-05,1e-05,-5e-05,5,11
23447,-0.00013,-0.00015,-0.0002,-0.00046,0.00043,9e-05,1e-05,-5e-05,5,11
23448,-0.00013,-0.00015,-0.0002,-0.00046,0.00043,9e-05,1e-05,-5e-05,5,11
23449,-0.00013,-0.00015,-0.0002,-0.00046,0.00043,9e-05,1e-05,-5e-05,5,11
23450,-0.00013,-0.00015,-0.0002,-0.00046,0.00043,9e-05,1e-05,-5e-05,5,11
23451,-0.00013,-0.00015,-0.0002,-0.00046,0.00043,9e-05,1e-05,-5e-05,5,11
23452,-0.00013,-0.00015,-0.0002,-0.00046,0.00043,9e-05,1e-05,-5e-05,5,11
23453,-0.00013,-0.00015,-0.0002,-0.00046,0.00043,9e-05,1e-05,-5e-05,5,11
23454,-0.00013,-0.00015,-0.0002,-0.00046,0.00043,9e-05,1e-05,-5e-05,5,11
23455,-0.00013,-0.00015,-0.0002,-0.00046,0.00043,9e-05,1e-05,-5e-05,5,11
23456,-0.00013,-0.00015,-0.0002,-0.00046,0.00043,9e-05,1e-05,-5e-05,5,11
23457,-0.00013,-0.00015,-0.0002,-0.00046,0.00043,9e-05,1e-05,-5e-05,5,11
23458,-5e-05,0.00016,-5e-05,-0.00016,-0.0001,-9e-05,-4e-05,3e-05,5,11
23459,-5e-05,0.00016,-5e-05,-0.00016,-0.0001,-9e-05,-4e-05,3e-05,5,11
23460,-5e-05,0.00016,-5e-05,-0.00016,-0.0001,-9e-05,-4e-05,3e-05,5,11
23461,-5e-05,0.00016,-5e-05,-0.00016,-0.0001,-9e-05,-4e-05,3e-05,5,11
23462,-5e-05,0.00016,-5e-05,-0.00016,-0.0001,-9e-05,-4e-05,3e-05,5,11
23463,-5e-05,0.00016,-5e-05,-0.00016,-0.0001,-9e-05,-4e-05,3e-05,5,11
23464,-5e-05,0.00016,-5e-05,-0.00016,-0.0001,-9e-05,-4e-05,3e-05,5,11
23465,-5e-05,0.00016,-5e-05,-0.00016,-0.0001,-9e-05,-4e-05,3e-05,5,11
23466,-5e-05,0.00016,-5e-05,-0.00016,-0.0001,-9e-05,-4e-05,3e-05,5,11
23467,-0.00015,-0.00052,0.00067,0.00124,-0.00017,-0.00023,-2e-05,1e-05,5,11
23469,-0.00015,-0.00052,0.00067,0.00124,-0.00017,-0.00023,-2e-05,1e-05,5,11
23470,-0.00015,-0.00052,0.00067,0.00124,-0.00017,-0.00023,-2e-05,1e-05,5,11
23471,-0.00015,-0.00052,0.00067,0.00124,-0.00017,-0.00023,-2e-05,1e-05,5,11
23472,-0.00015,-0.00052,0.00067,0.00124,-0.00017,-0.00023,-2e-05,1e-05,5,11
23473,-0.00015,-0.00052,0.00067,0.00124,-0.00017,-0.00023,-2e-05,1e-05,5,11
23474,-0.00015,-0.00052,0.00067,0.00124,-0.00017,-0.00023,-2e-05,1e-05,5,11
23475,-0.00015,-0.00052,0.00067,0.00124,-0.00017,-0.00023,-2e-05,1e-05,5,11
23476,-0.00015,-0.00052,0.00067,0.00124,-0.00017,-0.00023,-2e-05,1e-05,5,11
23477,-0.00015,-0.00052,0.00067,0.00124,-0.00017,-0.00023,-2e-05,1e-05,5,11
23478,-0.00015,-0.00052,0.00067,0.00124,-0.00017,-0.00023,-2e-05,1e-05,5,11
23479,-0.00015,-0.00052,0.00067,0.00124,-0.00017,-0.00023,-2e-05,1e-05,5,11
23480,-0.00015,-0.00052,0.00067,0.00124,-0.00017,-0.00023,-2e-05,1e-05,5,11
23481,-0.00015,-0.00052,0.00067,0.00124,-0.00017,-0.00023,-2e-05,1e-05,5,11
23482,5e-05,-5e-05,-0.0006,-0.00118,0.00015,-5e-05,-7e-05,-2e-05,5,11
23483,-0.0001,0.00054,0.00032,0.00061,0.00021,0.0002,5e-05,-4e-05,5,11
23484,0.00025,-9e-05,2e-05,0.00026,-0.0002,8e-05,9e-05,5e-05,5,11
23485,0.00025,-9e-05,2e-05,0.00026,-0.0002,8e-05,9e-05,5e-05,5,11
23486,0.00025,-9e-05,2e-05,0.00026,-0.0002,8e-05,9e-05,5e-05,5,11
23488,0.00025,-9e-05,2e-05,0.00026,-0.0002,8e-05,9e-05,5e-05,5,11
23489,0.00025,-9e-05,2e-05,0.00026,-0.0002,8e-05,9e-05,5e-05,5,11
23490,0.00025,-9e-05,2e-05,0.00026,-0.0002,8e-05,9e-05,5e-05,5,11
23491,0.00025,-9e-05,2e-05,0.00026,-0.0002,8e-05,9e-05,5e-05,5,11
23492,0.00025,-9e-05,2e-05,0.00026,-0.0002,8e-05,9e-05,5e-05,5,11
23493,0.00025,-9e-05,2e-05,0.00026,-0.0002,8e-05,9e-05,5e-05,5,11
23494,0.00025,-9e-05,2e-05,0.00026,-0.0002,8e-05,9e-05,5e-05,5,11
23495,0.00025,-9e-05,2e-05,0.00026,-0.0002,8e-05,9e-05,5e-05,5,11
23496,0.00025,-9e-05,2e-05,0.00026,-0.0002,8e-05,9e-05,5e-05,5,11
23497,0.00025,-9e-05,2e-05,0.00026,-0.0002,8e-05,9e-05,5e-05,5,11
23498,0.00025,-9e-05,2e-05,0.00026,-0.0002,8e-05,9e-05,5e-05,5,11
23499,0.00025,-9e-05,2e-05,0.00026,-0.0002,8e-05,9e-05,5e-05,5,11
23500,0.00025,-9e-05,2e-05,0.00026,-0.0002,8e-05,9e-05,5e-05,5,11
23501,0.00025,-9e-05,2e-05,0.00026,-0.0002,8e-05,9e-05,5e-05,5,11
23502,0.00025,-9e-05,2e-05,0.00026,-0.0002,8e-05,9e-05,5e-05,5,11
23503,0.00025,-9e-05,2e-05,0.00026,-0.0002,8e-05,9e-05,5e-05,5,11
23504,0.00025,-9e-05,2e-05,0.00026,-0.0002,8e-05,9e-05,5e-05,5,11
23505,8e-05,-5e-05,0.00048,0.00115,0.00042,0.00039,0.00011,5e-05,5,11
23506,0.00033,0.00127,0.00027,0.00052,0.00089,0.00015,0.00011,0.0001,5,11
23507,0.00033,0.00127,0.00027,0.00052,0.00089,0.00015,0.00011,0.0001,5,11
23508,0.00033,0.00127,0.00027,0.00052,0.00089,0.00015,0.00011,0.0001,5,11
23509,0.00033,0.00127,0.00027,0.00052,0.00089,0.00015,0.00011,0.0001,5,11
23510,0.00033,0.00127,0.00027,0.00052,0.00089,0.00015,0.00011,0.0001,5,11
23511,0.00033,0.00127,0.00027,0.00052,0.00089,0.00015,0.00011,0.0001,5,11
23512,0.00033,0.00127,0.00027,0.00052,0.00089,0.00015,0.00011,0.0001,5,11
23513,0.00033,0.00127,0.00027,0.00052,0.00089,0.00015,0.00011,0.0001,5,11
23514,0.00033,0.00127,0.00027,0.00052,0.00089,0.00015,0.00011,0.0001,5,11
23515,0.00033,0.00127,0.00027,0.00052,0.00089,0.00015,0.00011,0.0001,5,11
23516,0.00033,0.00127,0.00027,0.00052,0.00089,0.00015,0.00011,0.0001,5,11
23517,0.00033,0.00127,0.00027,0.00052,0.00089,0.00015,0.00011,0.0001,5,11
23518,0.00043,0.00082,0.0002,0.0005,0.00025,0.00019,6e-05,8e-05,5,11
23519,0.00043,0.00082,0.0002,0.0005,0.00025,0.00019,6e-05,8e-05,5,11
23520,0.00043,0.00082,0.0002,0.0005,0.00025,0.00019,6e-05,8e-05,5,11
23521,0.00043,0.00082,0.0002,0.0005,0.00025,0.00019,6e-05,8e-05,5,11
23522,0.00043,0.00082,0.0002,0.0005,0.00025,0.00019,6e-05,8e-05,5,11
23523,0.00043,0.00082,0.0002,0.0005,0.00025,0.00019,6e-05,8e-05,5,11
23524,0.00043,0.00082,0.0002,0.0005,0.00025,0.00019,6e-05,8e-05,5,11
23525,0.00043,0.00082,0.0002,0.0005,0.00025,0.00019,6e-05,8e-05,5,11
23526,0.00043,0.00082,0.0002,0.0005,0.00025,0.00019,6e-05,8e-05,5,11
23527,0.00036,0.00035,-0.00021,-0.0001,5e-05,0,-0.00013,-9e-05,5,11
23528,0.00036,0.00035,-0.00021,-0.0001,5e-05,0,-0.00013,-9e-05,5,11
23529,0.00036,0.00035,-0.00021,-0.0001,5e-05,0,-0.00013,-9e-05,5,11
23530,0.00036,0.00035,-0.00021,-0.0001,5e-05,0,-0.00013,-9e-05,5,11
23531,0.00036,0.00035,-0.00021,-0.0001,5e-05,0,-0.00013,-9e-05,5,11
23532,0.00036,0.00035,-0.00021,-0.0001,5e-05,0,-0.00013,-9e-05,5,11
23533,0.00036,0.00035,-0.00021,-0.0001,5e-05,0,-0.00013,-9e-05,5,11
23534,0.00036,0.00035,-0.00021,-0.0001,5e-05,0,-0.00013,-9e-05,5,11
23535,0.00036,0.00035,-0.00021,-0.0001,5e-05,0,-0.00013,-9e-05,5,11
23536,0.00036,0.00035,-0.00021,-0.0001,5e-05,0,-0.00013,-9e-05,5,11
23538,0.00036,0.00035,-0.00021,-0.0001,5e-05,0,-0.00013,-9e-05,5,11
23539,0.00036,0.00035,-0.00021,-0.0001,5e-05,0,-0.00013,-9e-05,5,11
23540,0.00036,0.00035,-0.00021,-0.0001,5e-05,0,-0.00013,-9e-05,5,11
23541,0.00036,0.00035,-0.00021,-0.0001,5e-05,0,-0.00013,-9e-05,5,11
23542,-6e-05,-0.00024,2e-05,0.0001,0.00045,0.00024,0.00018,9e-05,5,11
23543,-6e-05,-0.00024,2e-05,0.0001,0.00045,0.00024,0.00018,9e-05,5,11
23544,-6e-05,0.00021,-7e-05,-0.00083,-0.0007,-0.00033,-9e-05,2e-05,5,11
23545,-6e-05,0.00021,-7e-05,-0.00083,-0.0007,-0.00033,-9e-05,2e-05,5,11
23546,-6e-05,0.00021,-7e-05,-0.00083,-0.0007,-0.00033,-9e-05,2e-05,5,11
23547,-6e-05,0.00021,-7e-05,-0.00083,-0.0007,-0.00033,-9e-05,2e-05,5,11
23548,-6e-05,0.00021,-7e-05,-0.00083,-0.0007,-0.00033,-9e-05,2e-05,5,11
23549,-6e-05,0.00021,-7e-05,-0.00083,-0.0007,-0.00033,-9e-05,2e-05,5,11
23550,-6e-05,0.00021,-7e-05,-0.00083,-0.0007,-0.00033,-9e-05,2e-05,5,11
23551,-6e-05,0.00021,-7e-05,-0.00083,-0.0007,-0.00033,-9e-05,2e-05,5,11
23552,-6e-05,0.00021,-7e-05,-0.00083,-0.0007,-0.00033,-9e-05,2e-05,5,11
23553,-6e-05,0.00021,-7e-05,-0.00083,-0.0007,-0.00033,-9e-05,2e-05,5,11
23554,-6e-05,0.00021,-7e-05,-0.00083,-0.0007,-0.00033,-9e-05,2e-05,5,11
23555,-6e-05,0.00021,-7e-05,-0.00083,-0.0007,-0.00033,-9e-05,2e-05,5,11
23556,-6e-05,0.00021,-7e-05,-0.00083,-0.0007,-0.00033,-9e-05,2e-05,5,11
23557,-6e-05,0.00021,-7e-05,-0.00083,-0.0007,-0.00033,-9e-05,2e-05,5,11
23558,-6e-05,0.00021,-7e-05,-0.00083,-0.0007,-0.00033,-9e-05,2e-05,5,11
23559,-6e-05,0.00021,-7e-05,-0.00083,-0.0007,-0.00033,-9e-05,2e-05,5,11
23560,-6e-05,0.00021,-7e-05,-0.00083,-0.0007,-0.00033,-9e-05,2e-05,5,11
23561,-6e-05,0.00021,-7e-05,-0.00083,-0.0007,-0.00033,-9e-05,2e-05,5,11
23562,-6e-05,0.00021,-7e-05,-0.00083,-0.0007,-0.00033,-9e-05,2e-05,5,11
23563,-6e-05,0.00021,-7e-05,-0.00083,-0.0007,-0.00033,-9e-05,2e-05,5,11
23564,-6e-05,0.00021,-7e-05,-0.00083,-0.0007,-0.00033,-9e-05,2e-05,5,11
23565,-6e-05,0.00021,-7e-05,-0.00083,-0.0007,-0.00033,-9e-05,2e-05,5,11
23566,-6e-05,0.00021,-7e-05,-0.00083,-0.0007,-0.00033,-9e-05,2e-05,5,11
23567,-6e-05,0.00021,-7e-05,-0.00083,-0.0007,-0.00033,-9e-05,2e-05,5,11
23568,-6e-05,0.00021,-7e-05,-0.00083,-0.0007,-0.00033,-9e-05,2e-05,5,11
23569,-6e-05,0.00021,-7e-05,-0.00083,-0.0007,-0.00033,-9e-05,2e-05,5,11
23570,-6e-05,0.00021,-7e-05,-0.00083,-0.0007,-0.00033,-9e-05,2e-05,5,11
23571,-6e-05,0.00021,-7e-05,-0.00083,-0.0007,-0.00033,-9e-05,2e-05,5,11
23572,-0.00033,-0.00128,-0.00029,-0.00029,-6e-05,-0.00019,-7e-05,-0.00011,5,11
23573,-0.00033,-0.00128,-0.00029,-0.00029,-6e-05,-0.00019,-7e-05,-0.00011,5,11
23574,-0.00019,-0.00027,-0.00016,0.00021,-0.00061,-0.00017,-0.00016,-9e-05,5,11
23575,-0.00019,-0.00027,-0.00016,0.00021,-0.00061,-0.00017,-0.00016,-9e-05,5,11
23576,-0.00019,-0.00027,-0.00016,0.00021,-0.00061,-0.00017,-0.00016,-9e-05,5,11
23577,-0.00019,-0.00027,-0.00016,0.00021,-0.00061,-0.00017,-0.00016,-9e-05,5,11
23578,4e-05,0.00073,-0.00021,-0.00064,0,-1e-05,0,3e-05,5,11
23579,4e-05,0.00073,-0.00021,-0.00064,0,-1e-05,0,3e-05,5,11
23580,4e-05,0.00073,-0.00021,-0.00064,0,-1e-05,0,3e-05,5,11
23581,4e-05,0.00073,-0.00021,-0.00064,0,-1e-05,0,3e-05,5,11
23582,4e-05,0.00073,-0.00021,-0.00064,0,-1e-05,0,3e-05,5,11
23583,4e-05,0.00073,-0.00021,-0.00064,0,-1e-05,0,3e-05,5,11
23584,4e-05,0.00073,-0.00021,-0.00064,0,-1e-05,0,3e-05,5,11
23585,4e-05,0.00073,-0.00021,-0.00064,0,-1e-05,0,3e-05,5,11
23586,4e-05,0.00073,-0.00021,-0.00064,0,-1e-05,0,3e-05,5,11
23588,-0.00013,-0.00021,0.00029,0.00096,0.00028,0.00042,0.00014,2e-05,5,11
23589,-0.00013,-0.00021,0.00029,0.00096,0.00028,0.00042,0.00014,2e-05,5,11
23590,-0.00013,-0.00021,0.00029,0.00096,0.00028,0.00042,0.00014,2e-05,5,11
23591,-0.00013,-0.00021,0.00029,0.00096,0.00028,0.00042,0.00014,2e-05,5,11
23592,-0.00013,-0.00021,0.00029,0.00096,0.00028,0.00042,0.00014,2e-05,5,11
23593,-0.00013,-0.00021,0.00029,0.00096,0.00028,0.00042,0.00014,2e-05,5,11
23594,-0.00013,-0.00021,0.00029,0.00096,0.00028,0.00042,0.00014,2e-05,5,11
23595,-0.00013,-0.00021,0.00029,0.00096,0.00028,0.00042,0.00014,2e-05,5,11
23596,-0.00013,-0.00021,0.00029,0.00096,0.00028,0.00042,0.00014,2e-05,5,11
23597,-0.00013,-0.00021,0.00029,0.00096,0.00028,0.00042,0.00014,2e-05,5,11
23598,-0.00013,-0.00021,0.00029,0.00096,0.00028,0.00042,0.00014,2e-05,5,11
23599,-0.00013,-0.00021,0.00029,0.00096,0.00028,0.00042,0.00014,2e-05,5,11
23600,-0.00013,-0.00021,0.00029,0.00096,0.00028,0.00042,0.00014,2e-05,5,11
23601,-0.00013,-0.00021,0.00029,0.00096,0.00028,0.00042,0.00014,2e-05,5,11
23602,0.00018,0.00122,0.00018,0.00042,0.00055,-0.00014,-4e-05,0,5,11
23603,0.00018,0.00122,0.00018,0.00042,0.00055,-0.00014,-4e-05,0,5,11
23604,-9e-05,0.00037,0.00014,-0.00066,-6e-05,-2e-05,2e-05,0,5,11
23605,-9e-05,0.00037,0.00014,-0.00066,-6e-05,-2e-05,2e-05,0,5,11
23606,-9e-05,0.00037,0.00014,-0.00066,-6e-05,-2e-05,2e-05,0,5,11
23607,-9e-05,0.00037,0.00014,-0.00066,-6e-05,-2e-05,2e-05,0,5,11
23608,-9e-05,0.00037,0.00014,-0.00066,-6e-05,-2e-05,2e-05,0,5,11
23609,-9e-05,0.00037,0.00014,-0.00066,-6e-05,-2e-05,2e-05,0,5,11
23610,-9e-05,0.00037,0.00014,-0.00066,-6e-05,-2e-05,2e-05,0,5,11
23611,-9e-05,0.00037,0.00014,-0.00066,-6e-05,-2e-05,2e-05,0,5,11
23612,-9e-05,0.00037,0.00014,-0.00066,-6e-05,-2e-05,2e-05,0,5,11
23613,-9e-05,0.00037,0.00014,-0.00066,-6e-05,-2e-05,2e-05,0,5,11
23614,-9e-05,0.00037,0.00014,-0.00066,-6e-05,-2e-05,2e-05,0,5,11
23615,-9e-05,0.00037,0.00014,-0.00066,-6e-05,-2e-05,2e-05,0,5,11
23616,-9e-05,0.00037,0.00014,-0.00066,-6e-05,-2e-05,2e-05,0,5,11
23617,-9e-05,0.00037,0.00014,-0.00066,-6e-05,-2e-05,2e-05,0,5,11
23618,-9e-05,0.00037,0.00014,-0.00066,-6e-05,-2e-05,2e-05,0,5,11
23619,-9e-05,0.00037,0.00014,-0.00066,-6e-05,-2e-05,2e-05,0,5,11
23620,-9e-05,0.00037,0.00014,-0.00066,-6e-05,-2e-05,2e-05,0,5,11
23621,-9e-05,0.00037,0.00014,-0.00066,-6e-05,-2e-05,2e-05,0,5,11
23622,-9e-05,0.00037,0.00014,-0.00066,-6e-05,-2e-05,2e-05,0,5,11
23623,-9e-05,0.00037,0.00014,-0.00066,-6e-05,-2e-05,2e-05,0,5,11
23624,-9e-05,0.00037,0.00014,-0.00066,-6e-05,-2e-05,2e-05,0,5,11
23625,-4e-05,-0.00012,-9e-05,-3e-05,-0.00016,-7e-05,-6e-05,-2e-05,5,11
23626,0.00013,-2e-05,-8e-05,-0.00039,0.00011,-0.00026,-6e-05,0,5,11
23628,0.00013,-2e-05,-8e-05,-0.00039,0.00011,-0.00026,-6e-05,0,5,11
23629,0.00013,-2e-05,-8e-05,-0.00039,0.00011,-0.00026,-6e-05,0,5,11
23630,0.00013,-2e-05,-8e-05,-0.00039,0.00011,-0.00026,-6e-05,0,5,11
23631,0.00013,-2e-05,-8e-05,-0.00039,0.00011,-0.00026,-6e-05,0,5,11
23632,0.00013,-2e-05,-8e-05,-0.00039,0.00011,-0.00026,-6e-05,0,5,11
23633,0.00013,-2e-05,-8e-05,-0.00039,0.00011,-0.00026,-6e-05,0,5,11
23634,0.00013,-2e-05,-8e-05,-0.00039,0.00011,-0.00026,-6e-05,0,5,11
23635,0.00013,-2e-05,-8e-05,-0.00039,0.00011,-0.00026,-6e-05,0,5,11
23636,0.00013,-2e-05,-8e-05,-0.00039,0.00011,-0.00026,-6e-05,0,5,11
23638,-0.00019,-0.00075,-6e-05,-5e-05,-0.00042,-0.00026,-4e-05,-3e-05,5,11
23639,-0.00019,-0.00075,-6e-05,-5e-05,-0.00042,-0.00026,-4e-05,-3e-05,5,11
23640,-0.00019,-0.00075,-6e-05,-5e-05,-0.00042,-0.00026,-4e-05,-3e-05,5,11
23641,-0.00019,-0.00075,-6e-05,-5e-05,-0.00042,-0.00026,-4e-05,-3e-05,5,11
23642,-0.00019,-0.00075,-6e-05,-5e-05,-0.00042,-0.00026,-4e-05,-3e-05,5,11
23643,-0.00019,-0.00075,-6e-05,-5e-05,-0.00042,-0.00026,-4e-05,-3e-05,5,11
23644,-0.00019,-0.00075,-6e-05,-5e-05,-0.00042,-0.00026,-4e-05,-3e-05,5,11
23645,-0.00019,-0.00075,-6e-05,-5e-05,-0.00042,-0.00026,-4e-05,-3e-05,5,11
23646,-0.00019,-0.00075,-6e-05,-5e-05,-0.00042,-0.00026,-4e-05,-3e-05,5,11
23647,6e-05,0.00036,6e-05,-0.00016,-0.00071,-4e-05,2e-05,3e-05,5,11
23648,6e-05,0.00036,6e-05,-0.00016,-0.00071,-4e-05,2e-05,3e-05,5,11
23649,6e-05,0.00036,6e-05,-0.00016,-0.00071,-4e-05,2e-05,3e-05,5,11
23650,6e-05,0.00036,6e-05,-0.00016,-0.00071,-4e-05,2e-05,3e-05,5,11
23651,6e-05,0.00036,6e-05,-0.00016,-0.00071,-4e-05,2e-05,3e-05,5,11
23652,6e-05,0.00036,6e-05,-0.00016,-0.00071,-4e-05,2e-05,3e-05,5,11
23653,6e-05,0.00036,6e-05,-0.00016,-0.00071,-4e-05,2e-05,3e-05,5,11
23654,6e-05,0.00036,6e-05,-0.00016,-0.00071,-4e-05,2e-05,3e-05,5,11
23655,6e-05,0.00036,6e-05,-0.00016,-0.00071,-4e-05,2e-05,3e-05,5,11
23656,6e-05,0.00036,6e-05,-0.00016,-0.00071,-4e-05,2e-05,3e-05,5,11
23657,6e-05,0.00036,6e-05,-0.00016,-0.00071,-4e-05,2e-05,3e-05,5,11
23658,6e-05,0.00036,6e-05,-0.00016,-0.00071,-4e-05,2e-05,3e-05,5,11
23659,6e-05,0.00036,6e-05,-0.00016,-0.00071,-4e-05,2e-05,3e-05,5,11
23660,6e-05,0.00036,6e-05,-0.00016,-0.00071,-4e-05,2e-05,3e-05,5,11
23661,6e-05,0.00036,6e-05,-0.00016,-0.00071,-4e-05,2e-05,3e-05,5,11
23662,-0.00011,0.00047,9e-05,0.00029,-0.00043,-0.00019,-0.00015,-7e-05,5,11
23663,-7e-05,-7e-05,0.00023,0.00074,0.00012,0.00029,0.0001,3e-05,5,11
23664,-1e-05,-9e-05,-0.00046,-8e-05,0.00061,-0.00073,-9e-05,-5e-05,5,11
23665,-1e-05,-9e-05,-0.00046,-8e-05,0.00061,-0.00073,-9e-05,-5e-05,5,11
23666,-1e-05,-9e-05,-0.00046,-8e-05,0.00061,-0.00073,-9e-05,-5e-05,5,11
23667,-1e-05,-9e-05,-0.00046,-8e-05,0.00061,-0.00073,-9e-05,-5e-05,5,11
23668,-1e-05,-9e-05,-0.00046,-8e-05,0.00061,-0.00073,-9e-05,-5e-05,5,11
23669,-1e-05,-9e-05,-0.00046,-8e-05,0.00061,-0.00073,-9e-05,-5e-05,5,11
23670,-1e-05,-9e-05,-0.00046,-8e-05,0.00061,-0.00073,-9e-05,-5e-05,5,11
23671,-1e-05,-9e-05,-0.00046,-8e-05,0.00061,-0.00073,-9e-05,-5e-05,5,11
23672,-1e-05,-9e-05,-0.00046,-8e-05,0.00061,-0.00073,-9e-05,-5e-05,5,11
23673,-1e-05,-9e-05,-0.00046,-8e-05,0.00061,-0.00073,-9e-05,-5e-05,5,11
23674,-1e-05,-9e-05,-0.00046,-8e-05,0.00061,-0.00073,-9e-05,-5e-05,5,11
23675,-1e-05,-9e-05,-0.00046,-8e-05,0.00061,-0.00073,-9e-05,-5e-05,5,11
23676,-1e-05,-9e-05,-0.00046,-8e-05,0.00061,-0.00073,-9e-05,-5e-05,5,11
23677,-1e-05,-9e-05,-0.00046,-8e-05,0.00061,-0.00073,-9e-05,-5e-05,5,11
23678,-1e-05,-9e-05,-0.00046,-8e-05,0.00061,-0.00073,-9e-05,-5e-05,5,11
23679,-1e-05,-9e-05,-0.00046,-8e-05,0.00061,-0.00073,-9e-05,-5e-05,5,11
23680,-1e-05,-9e-05,-0.00046,-8e-05,0.00061,-0.00073,-9e-05,-5e-05,5,11
23681,-1e-05,-9e-05,-0.00046,-8e-05,0.00061,-0.00073,-9e-05,-5e-05,5,11
23682,-1e-05,-9e-05,-0.00046,-8e-05,0.00061,-0.00073,-9e-05,-5e-05,5,11
23683,-1e-05,-9e-05,-0.00046,-8e-05,0.00061,-0.00073,-9e-05,-5e-05,5,11
23684,-1e-05,-9e-05,-0.00046,-8e-05,0.00061,-0.00073,-9e-05,-5e-05,5,11
23685,-1e-05,-0.00021,-0.00028,-0.0005,-7e-05,0.00012,5e-05,1e-05,5,11
23686,-1e-05,-0.00021,-0.00028,-0.0005,-7e-05,0.00012,5e-05,1e-05,5,11
23688,2e-05,0.0003,0.00025,0.00056,-0.00043,-0.00015,0,-1e-05,5,11
23689,2e-05,0.0003,0.00025,0.00056,-0.00043,-0.00015,0,-1e-05,5,11
23690,2e-05,0.0003,0.00025,0.00056,-0.00043,-0.00015,0,-1e-05,5,11
23691,2e-05,0.0003,0.00025,0.00056,-0.00043,-0.00015,0,-1e-05,5,11
23692,2e-05,0.0003,0.00025,0.00056,-0.00043,-0.00015,0,-1e-05,5,11
23693,2e-05,0.0003,0.00025,0.00056,-0.00043,-0.00015,0,-1e-05,5,11
23694,2e-05,0.0003,0.00025,0.00056,-0.00043,-0.00015,0,-1e-05,5,11
23695,2e-05,0.0003,0.00025,0.00056,-0.00043,-0.00015,0,-1e-05,5,11
23696,2e-05,0.0003,0.00025,0.00056,-0.00043,-0.00015,0,-1e-05,5,11
23697,2e-05,0.0003,0.00025,0.00056,-0.00043,-0.00015,0,-1e-05,5,11
23698,2e-05,0.0003,0.00025,0.00056,-0.00043,-0.00015,0,-1e-05,5,11
23699,2e-05,0.0003,0.00025,0.00056,-0.00043,-0.00015,0,-1e-05,5,11
23700,2e-05,0.0003,0.00025,0.00056,-0.00043,-0.00015,0,-1e-05,5,11
23701,2e-05,0.0003,0.00025,0.00056,-0.00043,-0.00015,0,-1e-05,5,11
23702,2e-05,0.0003,0.00025,0.00056,-0.00043,-0.00015,0,-1e-05,5,11
23703,2e-05,0.0003,0.00025,0.00056,-0.00043,-0.00015,0,-1e-05,5,11
23704,2e-05,0.0003,0.00025,0.00056,-0.00043,-0.00015,0,-1e-05,5,11
23705,2e-05,0.0003,0.00025,0.00056,-0.00043,-0.00015,0,-1e-05,5,11
23706,2e-05,0.0003,0.00025,0.00056,-0.00043,-0.00015,0,-1e-05,5,11
23707,-5e-05,0.00064,-0.00012,-0.00063,0.00023,0,3e-05,5e-05,5,11
23708,-5e-05,0.00064,-0.00012,-0.00063,0.00023,0,3e-05,5e-05,5,11
23709,-6e-05,-0.00015,0.00032,0.00065,0.00053,0.0003,6e-05,1e-05,5,11
23710,-6e-05,-0.00015,0.00032,0.00065,0.00053,0.0003,6e-05,1e-05,5,11
23711,-6e-05,-0.00015,0.00032,0.00065,0.00053,0.0003,6e-05,1e-05,5,11
23712,-6e-05,-0.00015,0.00032,0.00065,0.00053,0.0003,6e-05,1e-05,5,11
23713,-6e-05,-0.00015,0.00032,0.00065,0.00053,0.0003,6e-05,1e-05,5,11
23714,-6e-05,-0.00015,0.00032,0.00065,0.00053,0.0003,6e-05,1e-05,5,11
23715,-6e-05,-0.00015,0.00032,0.00065,0.00053,0.0003,6e-05,1e-05,5,11
23716,-6e-05,-0.00015,0.00032,0.00065,0.00053,0.0003,6e-05,1e-05,5,11
23717,-6e-05,-0.00015,0.00032,0.00065,0.00053,0.0003,6e-05,1e-05,5,11
23718,-6e-05,-0.00015,0.00032,0.00065,0.00053,0.0003,6e-05,1e-05,5,11
23719,-6e-05,-0.00015,0.00032,0.00065,0.00053,0.0003,6e-05,1e-05,5,11
23720,-6e-05,-0.00015,0.00032,0.00065,0.00053,0.0003,6e-05,1e-05,5,11
23721,-6e-05,-0.00015,0.00032,0.00065,0.00053,0.0003,6e-05,1e-05,5,11
23722,5e-05,-0.00048,-0.00027,-0.00026,-0.00036,-0.00056,-8e-05,-4e-05,5,11
23723,5e-05,-0.00048,-0.00027,-0.00026,-0.00036,-0.00056,-8e-05,-4e-05,5,11
23724,-4e-05,0.00015,-3e-05,-0.00041,-0.00039,0.00015,6e-05,1e-05,5,11
23725,-4e-05,0.00015,-3e-05,-0.00041,-0.00039,0.00015,6e-05,1e-05,5,11
23726,-4e-05,0.00015,-3e-05,-0.00041,-0.00039,0.00015,6e-05,1e-05,5,11
23727,-4e-05,0.00015,-3e-05,-0.00041,-0.00039,0.00015,6e-05,1e-05,5,11
23728,-4e-05,0.00015,-3e-05,-0.00041,-0.00039,0.00015,6e-05,1e-05,5,11
23729,-4e-05,0.00015,-3e-05,-0.00041,-0.00039,0.00015,6e-05,1e-05,5,11
23730,-4e-05,0.00015,-3e-05,-0.00041,-0.00039,0.00015,6e-05,1e-05,5,11
23731,-4e-05,0.00015,-3e-05,-0.00041,-0.00039,0.00015,6e-05,1e-05,5,11
23732,-4e-05,0.00015,-3e-05,-0.00041,-0.00039,0.00015,6e-05,1e-05,5,11
23733,-4e-05,0.00015,-3e-05,-0.00041,-0.00039,0.00015,6e-05,1e-05,5,11
23734,-4e-05,0.00015,-3e-05,-0.00041,-0.00039,0.00015,6e-05,1e-05,5,11
23735,-4e-05,0.00015,-3e-05,-0.00041,-0.00039,0.00015,6e-05,1e-05,5,11
23736,-4e-05,0.00015,-3e-05,-0.00041,-0.00039,0.00015,6e-05,1e-05,5,11
23738,-4e-05,0.00015,-3e-05,-0.00041,-0.00039,0.00015,6e-05,1e-05,5,11
23739,-4e-05,0.00015,-3e-05,-0.00041,-0.00039,0.00015,6e-05,1e-05,5,11
23740,-4e-05,0.00015,-3e-05,-0.00041,-0.00039,0.00015,6e-05,1e-05,5,11
23741,-4e-05,0.00015,-3e-05,-0.00041,-0.00039,0.00015,6e-05,1e-05,5,11
23742,-4e-05,0.00015,-3e-05,-0.00041,-0.00039,0.00015,6e-05,1e-05,5,11
23743,-4e-05,0.00015,-3e-05,-0.00041,-0.00039,0.00015,6e-05,1e-05,5,11
23744,-4e-05,0.00015,-3e-05,-0.00041,-0.00039,0.00015,6e-05,1e-05,5,11
23745,-0.00025,-0.00068,0.00019,0.00046,0.00035,0.00019,7e-05,1e-05,5,11
23746,0.00017,8e-05,-0.00029,-0.00127,-0.00042,-0.00016,-0.00016,-2e-05,5,11
23747,0.00017,8e-05,-0.00029,-0.00127,-0.00042,-0.00016,-0.00016,-2e-05,5,11
23748,0.00017,8e-05,-0.00029,-0.00127,-0.00042,-0.00016,-0.00016,-2e-05,5,11
23749,0.00017,8e-05,-0.00029,-0.00127,-0.00042,-0.00016,-0.00016,-2e-05,5,11
23751,0.00017,8e-05,-0.00029,-0.00127,-0.00042,-0.00016,-0.00016,-2e-05,5,11
23752,0.00017,8e-05,-0.00029,-0.00127,-0.00042,-0.00016,-0.00016,-2e-05,5,11
23753,0.00017,8e-05,-0.00029,-0.00127,-0.00042,-0.00016,-0.00016,-2e-05,5,11
23754,0.00017,8e-05,-0.00029,-0.00127,-0.00042,-0.00016,-0.00016,-2e-05,5,11
23755,0.00017,8e-05,-0.00029,-0.00127,-0.00042,-0.00016,-0.00016,-2e-05,5,11
23756,0.00017,8e-05,-0.00029,-0.00127,-0.00042,-0.00016,-0.00016,-2e-05,5,11
23757,0.00017,8e-05,-0.00029,-0.00127,-0.00042,-0.00016,-0.00016,-2e-05,5,11
23758,0.00025,-0.00091,6e-05,0.0004,0.00046,0.00043,0.00014,0,5,11
23759,0.00025,-0.00091,6e-05,0.0004,0.00046,0.00043,0.00014,0,5,11
23760,0.00025,-0.00091,6e-05,0.0004,0.00046,0.00043,0.00014,0,5,11
23761,0.00025,-0.00091,6e-05,0.0004,0.00046,0.00043,0.00014,0,5,11
23762,0.00025,-0.00091,6e-05,0.0004,0.00046,0.00043,0.00014,0,5,11
23763,0.00025,-0.00091,6e-05,0.0004,0.00046,0.00043,0.00014,0,5,11
23764,0.00025,-0.00091,6e-05,0.0004,0.00046,0.00043,0.00014,0,5,11
23765,0.00025,-0.00091,6e-05,0.0004,0.00046,0.00043,0.00014,0,5,11
23766,0.00025,-0.00091,6e-05,0.0004,0.00046,0.00043,0.00014,0,5,11
23767,-9e-05,-0.0002,-0.00067,-0.00097,0.00035,0.00037,3e-05,0,5,11
23769,-9e-05,-0.0002,-0.00067,-0.00097,0.00035,0.00037,3e-05,0,5,11
23770,-9e-05,-0.0002,-0.00067,-0.00097,0.00035,0.00037,3e-05,0,5,11
23771,-9e-05,-0.0002,-0.00067,-0.00097,0.00035,0.00037,3e-05,0,5,11
23772,-9e-05,-0.0002,-0.00067,-0.00097,0.00035,0.00037,3e-05,0,5,11
23773,-9e-05,-0.0002,-0.00067,-0.00097,0.00035,0.00037,3e-05,0,5,11
23774,-9e-05,-0.0002,-0.00067,-0.00097,0.00035,0.00037,3e-05,0,5,11
23775,-9e-05,-0.0002,-0.00067,-0.00097,0.00035,0.00037,3e-05,0,5,11
23776,-9e-05,-0.0002,-0.00067,-0.00097,0.00035,0.00037,3e-05,0,5,11
23777,-9e-05,-0.0002,-0.00067,-0.00097,0.00035,0.00037,3e-05,0,5,11
23778,-9e-05,-0.0002,-0.00067,-0.00097,0.00035,0.00037,3e-05,0,5,11
23779,-9e-05,-0.0002,-0.00067,-0.00097,0.00035,0.00037,3e-05,0,5,11
23780,-9e-05,-0.0002,-0.00067,-0.00097,0.00035,0.00037,3e-05,0,5,11
23781,-9e-05,-0.0002,-0.00067,-0.00097,0.00035,0.00037,3e-05,0,5,11
23782,0.00032,0.00098,1e-05,-0.00025,0.00034,-3e-05,-6e-05,2e-05,5,11
23783,0.00032,0.00098,1e-05,-0.00025,0.00034,-3e-05,-6e-05,2e-05,5,11
23784,9e-05,0.00085,0.00033,0.00118,7e-05,-0.00027,-8e-05,-2e-05,5,11
23786,9e-05,0.00085,0.00033,0.00118,7e-05,-0.00027,-8e-05,-2e-05,5,11
23787,9e-05,0.00085,0.00033,0.00118,7e-05,-0.00027,-8e-05,-2e-05,5,11
23788,9e-05,0.00085,0.00033,0.00118,7e-05,-0.00027,-8e-05,-2e-05,5,11
23789,9e-05,0.00085,0.00033,0.00118,7e-05,-0.00027,-8e-05,-2e-05,5,11
23790,9e-05,0.00085,0.00033,0.00118,7e-05,-0.00027,-8e-05,-2e-05,5,11
23791,9e-05,0.00085,0.00033,0.00118,7e-05,-0.00027,-8e-05,-2e-05,5,11
23792,9e-05,0.00085,0.00033,0.00118,7e-05,-0.00027,-8e-05,-2e-05,5,11
23793,9e-05,0.00085,0.00033,0.00118,7e-05,-0.00027,-8e-05,-2e-05,5,11
23794,9e-05,0.00085,0.00033,0.00118,7e-05,-0.00027,-8e-05,-2e-05,5,11
23795,9e-05,0.00085,0.00033,0.00118,7e-05,-0.00027,-8e-05,-2e-05,5,11
23796,9e-05,0.00085,0.00033,0.00118,7e-05,-0.00027,-8e-05,-2e-05,5,11
23797,9e-05,0.00085,0.00033,0.00118,7e-05,-0.00027,-8e-05,-2e-05,5,11
23798,9e-05,0.00085,0.00033,0.00118,7e-05,-0.00027,-8e-05,-2e-05,5,11
23799,9e-05,0.00085,0.00033,0.00118,7e-05,-0.00027,-8e-05,-2e-05,5,11
23800,9e-05,0.00085,0.00033,0.00118,7e-05,-0.00027,-8e-05,-2e-05,5,11
23801,9e-05,0.00085,0.00033,0.00118,7e-05,-0.00027,-8e-05,-2e-05,5,11
23802,9e-05,0.00085,0.00033,0.00118,7e-05,-0.00027,-8e-05,-2e-05,5,11
23803,9e-05,0.00085,0.00033,0.00118,7e-05,-0.00027,-8e-05,-2e-05,5,11
23804,9e-05,0.00085,0.00033,0.00118,7e-05,-0.00027,-8e-05,-2e-05,5,11
23805,-0.00013,0.00045,3e-05,-0.0002,-7e-05,-0.00029,-0.00011,-7e-05,5,11
23806,-0.0002,-0.00016,-0.00012,0.00044,0.00034,5e-05,0,-1e-05,5,11
23807,-0.0002,-0.00016,-0.00012,0.00044,0.00034,5e-05,0,-1e-05,5,11
23808,-0.0002,-0.00016,-0.00012,0.00044,0.00034,5e-05,0,-1e-05,5,11
23809,-0.0002,-0.00016,-0.00012,0.00044,0.00034,5e-05,0,-1e-05,5,11
23810,-0.0002,-0.00016,-0.00012,0.00044,0.00034,5e-05,0,-1e-05,5,11
23811,-0.0002,-0.00016,-0.00012,0.00044,0.00034,5e-05,0,-1e-05,5,11
23812,-0.0002,-0.00016,-0.00012,0.00044,0.00034,5e-05,0,-1e-05,5,11
23813,-0.0002,-0.00016,-0.00012,0.00044,0.00034,5e-05,0,-1e-05,5,11
23814,-0.0002,-0.00016,-0.00012,0.00044,0.00034,5e-05,0,-1e-05,5,11
23815,-0.0002,-0.00016,-0.00012,0.00044,0.00034,5e-05,0,-1e-05,5,11
23816,-0.0002,-0.00016,-0.00012,0.00044,0.00034,5e-05,0,-1e-05,5,11
23817,-0.0002,-0.00016,-0.00012,0.00044,0.00034,5e-05,0,-1e-05,5,11
23818,0.00011,-0.00047,-0.00034,0.00019,0.00018,0.00063,0.00019,1e-05,5,11
23819,0.00011,-0.00047,-0.00034,0.00019,0.00018,0.00063,0.00019,1e-05,5,11
23820,0.00011,-0.00047,-0.00034,0.00019,0.00018,0.00063,0.00019,1e-05,5,11
23821,0.00011,-0.00047,-0.00034,0.00019,0.00018,0.00063,0.00019,1e-05,5,11
23822,0.00011,-0.00047,-0.00034,0.00019,0.00018,0.00063,0.00019,1e-05,5,11
23823,0.00011,-0.00047,-0.00034,0.00019,0.00018,0.00063,0.00019,1e-05,5,11
23824,0.00011,-0.00047,-0.00034,0.00019,0.00018,0.00063,0.00019,1e-05,5,11
23825,0.00011,-0.00047,-0.00034,0.00019,0.00018,0.00063,0.00019,1e-05,5,11
23826,0.00011,-0.00047,-0.00034,0.00019,0.00018,0.00063,0.00019,1e-05,5,11
23827,0.00061,0.00015,0.00015,-0.00022,-2e-05,0.0002,9e-05,8e-05,5,11
23828,0.00061,0.00015,0.00015,-0.00022,-2e-05,0.0002,9e-05,8e-05,5,11
23829,0.00061,0.00015,0.00015,-0.00022,-2e-05,0.0002,9e-05,8e-05,5,11
23830,0.00061,0.00015,0.00015,-0.00022,-2e-05,0.0002,9e-05,8e-05,5,11
23831,0.00061,0.00015,0.00015,-0.00022,-2e-05,0.0002,9e-05,8e-05,5,11
23832,0.00061,0.00015,0.00015,-0.00022,-2e-05,0.0002,9e-05,8e-05,5,11
23833,0.00061,0.00015,0.00015,-0.00022,-2e-05,0.0002,9e-05,8e-05,5,11
23834,0.00061,0.00015,0.00015,-0.00022,-2e-05,0.0002,9e-05,8e-05,5,11
23835,0.00061,0.00015,0.00015,-0.00022,-2e-05,0.0002,9e-05,8e-05,5,11
23836,0.00061,0.00015,0.00015,-0.00022,-2e-05,0.0002,9e-05,8e-05,5,11
23838,0.00061,0.00015,0.00015,-0.00022,-2e-05,0.0002,9e-05,8e-05,5,11
23839,0.00061,0.00015,0.00015,-0.00022,-2e-05,0.0002,9e-05,8e-05,5,11
23840,0.00061,0.00015,0.00015,-0.00022,-2e-05,0.0002,9e-05,8e-05,5,11
23841,0.00061,0.00015,0.00015,-0.00022,-2e-05,0.0002,9e-05,8e-05,5,11
23842,0.00061,0.00015,0.00015,-0.00022,-2e-05,0.0002,9e-05,8e-05,5,11
23843,0.00061,0.00015,0.00015,-0.00022,-2e-05,0.0002,9e-05,8e-05,5,11
23844,0.00061,0.00015,0.00015,-0.00022,-2e-05,0.0002,9e-05,8e-05,5,11
23845,0.00061,0.00015,0.00015,-0.00022,-2e-05,0.0002,9e-05,8e-05,5,11
23846,0.00061,0.00015,0.00015,-0.00022,-2e-05,0.0002,9e-05,8e-05,5,11
23847,0.00061,0.00015,0.00015,-0.00022,-2e-05,0.0002,9e-05,8e-05,5,11
23848,0.00061,0.00015,0.00015,-0.00022,-2e-05,0.0002,9e-05,8e-05,5,11
23849,0.00061,0.00015,0.00015,-0.00022,-2e-05,0.0002,9e-05,8e-05,5,11
23850,0.00011,0.00075,0.00017,-0.00043,-0.00038,-5e-05,-5e-05,1e-05,5,11
23851,0.00011,0.00075,0.00017,-0.00043,-0.00038,-5e-05,-5e-05,1e-05,5,11
23852,-0.00036,-0.00094,-0.0001,-0.00021,0.0002,6e-05,1e-05,-6e-05,5,11
23853,-0.00036,-0.00094,-0.0001,-0.00021,0.0002,6e-05,1e-05,-6e-05,5,11
23854,-0.00036,-0.00094,-0.0001,-0.00021,0.0002,6e-05,1e-05,-6e-05,5,11
23855,-0.00036,-0.00094,-0.0001,-0.00021,0.0002,6e-05,1e-05,-6e-05,5,11
23856,-0.00036,-0.00094,-0.0001,-0.00021,0.0002,6e-05,1e-05,-6e-05,5,11
23857,-0.00036,-0.00094,-0.0001,-0.00021,0.0002,6e-05,1e-05,-6e-05,5,11
23858,-0.00036,-0.00094,-0.0001,-0.00021,0.0002,6e-05,1e-05,-6e-05,5,11
23859,-0.00036,-0.00094,-0.0001,-0.00021,0.0002,6e-05,1e-05,-6e-05,5,11
23860,-0.00036,-0.00094,-0.0001,-0.00021,0.0002,6e-05,1e-05,-6e-05,5,11
23861,-0.00036,-0.00094,-0.0001,-0.00021,0.0002,6e-05,1e-05,-6e-05,5,11
23862,-0.00036,-0.00094,-0.0001,-0.00021,0.0002,6e-05,1e-05,-6e-05,5,11
23863,-0.00036,-0.00094,-0.0001,-0.00021,0.0002,6e-05,1e-05,-6e-05,5,11
23864,-0.00036,-0.00094,-0.0001,-0.00021,0.0002,6e-05,1e-05,-6e-05,5,11
23865,4e-05,-2e-05,0.00024,0.00037,-7e-05,-3e-05,-7e-05,-3e-05,5,11
23866,4e-05,-2e-05,0.00024,0.00037,-7e-05,-3e-05,-7e-05,-3e-05,5,11
23867,-2e-05,5e-05,0.00017,0.00044,-0.00031,-8e-05,-7e-05,-7e-05,5,11
23868,-2e-05,5e-05,0.00017,0.00044,-0.00031,-8e-05,-7e-05,-7e-05,5,11
23869,-2e-05,5e-05,0.00017,0.00044,-0.00031,-8e-05,-7e-05,-7e-05,5,11
23870,-2e-05,5e-05,0.00017,0.00044,-0.00031,-8e-05,-7e-05,-7e-05,5,11
23871,-2e-05,5e-05,0.00017,0.00044,-0.00031,-8e-05,-7e-05,-7e-05,5,11
23872,-2e-05,5e-05,0.00017,0.00044,-0.00031,-8e-05,-7e-05,-7e-05,5,11
23873,-2e-05,5e-05,0.00017,0.00044,-0.00031,-8e-05,-7e-05,-7e-05,5,11
23874,-2e-05,5e-05,0.00017,0.00044,-0.00031,-8e-05,-7e-05,-7e-05,5,11
23875,-2e-05,5e-05,0.00017,0.00044,-0.00031,-8e-05,-7e-05,-7e-05,5,11
23876,-2e-05,5e-05,0.00017,0.00044,-0.00031,-8e-05,-7e-05,-7e-05,5,11
23877,-2e-05,5e-05,0.00017,0.00044,-0.00031,-8e-05,-7e-05,-7e-05,5,11
23878,-2e-05,5e-05,0.00017,0.00044,-0.00031,-8e-05,-7e-05,-7e-05,5,11
23879,-2e-05,5e-05,0.00017,0.00044,-0.00031,-8e-05,-7e-05,-7e-05,5,11
23880,-2e-05,5e-05,0.00017,0.00044,-0.00031,-8e-05,-7e-05,-7e-05,5,11
23881,-2e-05,5e-05,0.00017,0.00044,-0.00031,-8e-05,-7e-05,-7e-05,5,11
23882,-2e-05,5e-05,0.00017,0.00044,-0.00031,-8e-05,-7e-05,-7e-05,5,11
23883,-2e-05,5e-05,0.00017,0.00044,-0.00031,-8e-05,-7e-05,-7e-05,5,11
23884,-2e-05,5e-05,0.00017,0.00044,-0.00031,-8e-05,-7e-05,-7e-05,5,11
23885,-2e-05,5e-05,0.00017,0.00044,-0.00031,-8e-05,-7e-05,-7e-05,5,11
23886,-2e-05,5e-05,0.00017,0.00044,-0.00031,-8e-05,-7e-05,-7e-05,5,11
23889,0.00014,-0.0003,3e-05,-0.00024,0.0006,0.00036,4e-05,3e-05,5,11
23890,0.00014,-0.0003,3e-05,-0.00024,0.0006,0.00036,4e-05,3e-05,5,11
23891,0.00014,-0.0003,3e-05,-0.00024,0.0006,0.00036,4e-05,3e-05,5,11
23892,0.00014,-0.0003,3e-05,-0.00024,0.0006,0.00036,4e-05,3e-05,5,11
23893,0.00014,-0.0003,3e-05,-0.00024,0.0006,0.00036,4e-05,3e-05,5,11
23894,0.00014,-0.0003,3e-05,-0.00024,0.0006,0.00036,4e-05,3e-05,5,11
23895,0.00014,-0.0003,3e-05,-0.00024,0.0006,0.00036,4e-05,3e-05,5,11
23896,0.00014,-0.0003,3e-05,-0.00024,0.0006,0.00036,4e-05,3e-05,5,11
23897,0.00014,-0.0003,3e-05,-0.00024,0.0006,0.00036,4e-05,3e-05,5,11
23898,0.00014,-0.0003,3e-05,-0.00024,0.0006,0.00036,4e-05,3e-05,5,11
23899,0.00014,-0.0003,3e-05,-0.00024,0.0006,0.00036,4e-05,3e-05,5,11
23900,0.00014,-0.0003,3e-05,-0.00024,0.0006,0.00036,4e-05,3e-05,5,11
23901,0.00014,-0.0003,3e-05,-0.00024,0.0006,0.00036,4e-05,3e-05,5,11
23902,-0.0001,0.00052,-0.00013,-0.00063,-0.00041,0,-3e-05,-2e-05,5,11
23903,-0.0001,0.00052,-0.00013,-0.00063,-0.00041,0,-3e-05,-2e-05,5,11
23904,-0.00017,0.00093,0.0001,5e-05,-0.00012,-0.00061,-1e-05,-5e-05,5,11
23905,-0.00017,0.00093,0.0001,5e-05,-0.00012,-0.00061,-1e-05,-5e-05,5,11
23906,-0.00017,0.00093,0.0001,5e-05,-0.00012,-0.00061,-1e-05,-5e-05,5,11
23907,-0.00017,0.00093,0.0001,5e-05,-0.00012,-0.00061,-1e-05,-5e-05,5,11
23908,-0.00017,0.00093,0.0001,5e-05,-0.00012,-0.00061,-1e-05,-5e-05,5,11
23909,-0.00017,0.00093,0.0001,5e-05,-0.00012,-0.00061,-1e-05,-5e-05,5,11
23910,-0.00017,0.00093,0.0001,5e-05,-0.00012,-0.00061,-1e-05,-5e-05,5,11
23911,-0.00017,0.00093,0.0001,5e-05,-0.00012,-0.00061,-1e-05,-5e-05,5,11
23912,-0.00017,0.00093,0.0001,5e-05,-0.00012,-0.00061,-1e-05,-5e-05,5,11
23913,-0.00017,0.00093,0.0001,5e-05,-0.00012,-0.00061,-1e-05,-5e-05,5,11
23914,-0.00017,0.00093,0.0001,5e-05,-0.00012,-0.00061,-1e-05,-5e-05,5,11
23915,-0.00017,0.00093,0.0001,5e-05,-0.00012,-0.00061,-1e-05,-5e-05,5,11
23916,-0.00017,0.00093,0.0001,5e-05,-0.00012,-0.00061,-1e-05,-5e-05,5,11
23917,-0.00017,0.00093,0.0001,5e-05,-0.00012,-0.00061,-1e-05,-5e-05,5,11
23918,-0.00017,0.00093,0.0001,5e-05,-0.00012,-0.00061,-1e-05,-5e-05,5,11
23919,-0.00017,0.00093,0.0001,5e-05,-0.00012,-0.00061,-1e-05,-5e-05,5,11
23920,-0.00017,0.00093,0.0001,5e-05,-0.00012,-0.00061,-1e-05,-5e-05,5,11
23921,-0.00017,0.00093,0.0001,5e-05,-0.00012,-0.00061,-1e-05,-5e-05,5,11
23922,-0.00017,0.00093,0.0001,5e-05,-0.00012,-0.00061,-1e-05,-5e-05,5,11
23923,-0.00017,0.00093,0.0001,5e-05,-0.00012,-0.00061,-1e-05,-5e-05,5,11
23924,-3e-05,-0.00026,0,-0.00012,-0.0001,0.00021,-3e-05,-5e-05,5,11
23925,0,-0.00041,0.0001,0.0007,-0.00077,-0.00014,-2e-05,3e-05,5,11
23926,-0.00023,-0.00059,2e-05,-0.00017,-0.00045,5e-05,-6e-05,-6e-05,5,11
23927,-0.00023,-0.00059,2e-05,-0.00017,-0.00045,5e-05,-6e-05,-6e-05,5,11
23928,-0.00023,-0.00059,2e-05,-0.00017,-0.00045,5e-05,-6e-05,-6e-05,5,11
23929,-0.00023,-0.00059,2e-05,-0.00017,-0.00045,5e-05,-6e-05,-6e-05,5,11
23930,-0.00023,-0.00059,2e-05,-0.00017,-0.00045,5e-05,-6e-05,-6e-05,5,11
23931,-0.00023,-0.00059,2e-05,-0.00017,-0.00045,5e-05,-6e-05,-6e-05,5,11
23932,-0.00023,-0.00059,2e-05,-0.00017,-0.00045,5e-05,-6e-05,-6e-05,5,11
23933,-0.00023,-0.00059,2e-05,-0.00017,-0.00045,5e-05,-6e-05,-6e-05,5,11
23934,-0.00023,-0.00059,2e-05,-0.00017,-0.00045,5e-05,-6e-05,-6e-05,5,11
23935,-0.00023,-0.00059,2e-05,-0.00017,-0.00045,5e-05,-6e-05,-6e-05,5,11
23936,-0.00023,-0.00059,2e-05,-0.00017,-0.00045,5e-05,-6e-05,-6e-05,5,11
23938,-0.00023,-0.00059,2e-05,-0.00017,-0.00045,5e-05,-6e-05,-6e-05,5,11
23939,-0.00023,-0.00059,2e-05,-0.00017,-0.00045,5e-05,-6e-05,-6e-05,5,11
23940,-0.00023,-0.00059,2e-05,-0.00017,-0.00045,5e-05,-6e-05,-6e-05,5,11
23941,-0.00023,-0.00059,2e-05,-0.00017,-0.00045,5e-05,-6e-05,-6e-05,5,11
23942,-0.00023,-0.00059,2e-05,-0.00017,-0.00045,5e-05,-6e-05,-6e-05,5,11
23943,-0.00023,-0.00059,2e-05,-0.00017,-0.00045,5e-05,-6e-05,-6e-05,5,11
23944,-0.00023,-0.00059,2e-05,-0.00017,-0.00045,5e-05,-6e-05,-6e-05,5,11
23945,-0.00023,-0.00059,2e-05,-0.00017,-0.00045,5e-05,-6e-05,-6e-05,5,11
23946,-0.00023,-0.00059,2e-05,-0.00017,-0.00045,5e-05,-6e-05,-6e-05,5,11
23947,2e-05,0.00049,0.00025,0.00072,0.00029,-6e-05,-5e-05,2e-05,5,11
23948,2e-05,0.00049,0.00025,0.00072,0.00029,-6e-05,-5e-05,2e-05,5,11
23949,0.00037,0.00086,0.00017,-0.00047,0.00049,9e-05,8e-05,7e-05,5,11
23950,0.00037,0.00086,0.00017,-0.00047,0.00049,9e-05,8e-05,7e-05,5,11
23951,0.00037,0.00086,0.00017,-0.00047,0.00049,9e-05,8e-05,7e-05,5,11
23952,0.00037,0.00086,0.00017,-0.00047,0.00049,9e-05,8e-05,7e-05,5,11
23953,0.00037,0.00086,0.00017,-0.00047,0.00049,9e-05,8e-05,7e-05,5,11
23954,0.00037,0.00086,0.00017,-0.00047,0.00049,9e-05,8e-05,7e-05,5,11
23955,0.00037,0.00086,0.00017,-0.00047,0.00049,9e-05,8e-05,7e-05,5,11
23956,0.00037,0.00086,0.00017,-0.00047,0.00049,9e-05,8e-05,7e-05,5,11
23957,0.00037,0.00086,0.00017,-0.00047,0.00049,9e-05,8e-05,7e-05,5,11
23958,0.00037,0.00086,0.00017,-0.00047,0.00049,9e-05,8e-05,7e-05,5,11
23959,0.00037,0.00086,0.00017,-0.00047,0.00049,9e-05,8e-05,7e-05,5,11
23960,0.00037,0.00086,0.00017,-0.00047,0.00049,9e-05,8e-05,7e-05,5,11
23961,0.00037,0.00086,0.00017,-0.00047,0.00049,9e-05,8e-05,7e-05,5,11
23962,0.00025,0.00011,-3e-05,-0.00097,-0.00068,-0.00028,-0.00018,-8e-05,5,11
23963,0.00025,0.00011,-3e-05,-0.00097,-0.00068,-0.00028,-0.00018,-8e-05,5,11
23964,-0.00023,-0.00067,-0.00015,0.00075,-0.00047,0,-8e-05,-9e-05,5,11
23965,-0.00023,-0.00067,-0.00015,0.00075,-0.00047,0,-8e-05,-9e-05,5,11
23966,-0.00023,-0.00067,-0.00015,0.00075,-0.00047,0,-8e-05,-9e-05,5,11
23967,-0.00023,-0.00067,-0.00015,0.00075,-0.00047,0,-8e-05,-9e-05,5,11
23968,-0.00023,-0.00067,-0.00015,0.00075,-0.00047,0,-8e-05,-9e-05,5,11
23969,-0.00023,-0.00067,-0.00015,0.00075,-0.00047,0,-8e-05,-9e-05,5,11
23970,-0.00023,-0.00067,-0.00015,0.00075,-0.00047,0,-8e-05,-9e-05,5,11
23971,-0.00023,-0.00067,-0.00015,0.00075,-0.00047,0,-8e-05,-9e-05,5,11
23972,-0.00023,-0.00067,-0.00015,0.00075,-0.00047,0,-8e-05,-9e-05,5,11
23973,-0.00023,-0.00067,-0.00015,0.00075,-0.00047,0,-8e-05,-9e-05,5,11
23974,-0.00023,-0.00067,-0.00015,0.00075,-0.00047,0,-8e-05,-9e-05,5,11
23975,-0.00023,-0.00067,-0.00015,0.00075,-0.00047,0,-8e-05,-9e-05,5,11
23976,-0.00023,-0.00067,-0.00015,0.00075,-0.00047,0,-8e-05,-9e-05,5,11
23977,-0.00023,-0.00067,-0.00015,0.00075,-0.00047,0,-8e-05,-9e-05,5,11
23978,-0.00023,-0.00067,-0.00015,0.00075,-0.00047,0,-8e-05,-9e-05,5,11
23979,-0.00023,-0.00067,-0.00015,0.00075,-0.00047,0,-8e-05,-9e-05,5,11
23980,-0.00023,-0.00067,-0.00015,0.00075,-0.00047,0,-8e-05,-9e-05,5,11
23981,-0.00023,-0.00067,-0.00015,0.00075,-0.00047,0,-8e-05,-9e-05,5,11
23982,-0.00023,-0.00067,-0.00015,0.00075,-0.00047,0,-8e-05,-9e-05,5,11
23983,-0.00023,-0.00067,-0.00015,0.00075,-0.00047,0,-8e-05,-9e-05,5,11
23984,-0.00023,-0.00067,-0.00015,0.00075,-0.00047,0,-8e-05,-9e-05,5,11
23985,0.00012,-0.00048,-0.00019,0.0005,0.00036,-6e-05,5e-05,-1e-05,5,11
23986,0.00012,-0.00048,-0.00019,0.0005,0.00036,-6e-05,5e-05,-1e-05,5,11
23988,-5e-05,-0.00067,-0.00011,-0.00024,-0.0007,-0.00034,3e-05,3e-05,5,11
23989,-5e-05,-0.00067,-0.00011,-0.00024,-0.0007,-0.00034,3e-05,3e-05,5,11
23990,-5e-05,-0.00067,-0.00011,-0.00024,-0.0007,-0.00034,3e-05,3e-05,5,11
23991,-5e-05,-0.00067,-0.00011,-0.00024,-0.0007,-0.00034,3e-05,3e-05,5,11
23992,-5e-05,-0.00067,-0.00011,-0.00024,-0.0007,-0.00034,3e-05,3e-05,5,11
23993,-5e-05,-0.00067,-0.00011,-0.00024,-0.0007,-0.00034,3e-05,3e-05,5,11
23994,-5e-05,-0.00067,-0.00011,-0.00024,-0.0007,-0.00034,3e-05,3e-05,5,11
23995,-5e-05,-0.00067,-0.00011,-0.00024,-0.0007,-0.00034,3e-05,3e-05,5,11
23996,-5e-05,-0.00067,-0.00011,-0.00024,-0.0007,-0.00034,3e-05,3e-05,5,11
23997,-5e-05,-0.00067,-0.00011,-0.00024,-0.0007,-0.00034,3e-05,3e-05,5,11
23998,-5e-05,-0.00067,-0.00011,-0.00024,-0.0007,-0.00034,3e-05,3e-05,5,11
23999,-5e-05,-0.00067,-0.00011,-0.00024,-0.0007,-0.00034,3e-05,3e-05,5,11
24000,-5e-05,-0.00067,-0.00011,-0.00024,-0.0007,-0.00034,3e-05,3e-05,5,11
24001,-5e-05,-0.00067,-0.00011,-0.00024,-0.0007,-0.00034,3e-05,3e-05,5,11
24002,-5e-05,-0.00067,-0.00011,-0.00024,-0.0007,-0.00034,3e-05,3e-05,5,11
24003,-5e-05,-0.00067,-0.00011,-0.00024,-0.0007,-0.00034,3e-05,3e-05,5,11
24004,-5e-05,-0.00067,-0.00011,-0.00024,-0.0007,-0.00034,3e-05,3e-05,5,11
24005,-5e-05,-0.00067,-0.00011,-0.00024,-0.0007,-0.00034,3e-05,3e-05,5,11
24006,-5e-05,-0.00067,-0.00011,-0.00024,-0.0007,-0.00034,3e-05,3e-05,5,11
24007,-0.00035,6e-05,-6e-05,-0.00043,0.00045,8e-05,1e-05,-1e-05,5,11
24008,-0.00035,6e-05,-6e-05,-0.00043,0.00045,8e-05,1e-05,-1e-05,5,11
24009,7e-05,2e-05,0.00022,0.00048,0.00024,0.00031,4e-05,4e-05,5,11
24010,7e-05,2e-05,0.00022,0.00048,0.00024,0.00031,4e-05,4e-05,5,11
24011,7e-05,2e-05,0.00022,0.00048,0.00024,0.00031,4e-05,4e-05,5,11
24012,7e-05,2e-05,0.00022,0.00048,0.00024,0.00031,4e-05,4e-05,5,11
24013,7e-05,2e-05,0.00022,0.00048,0.00024,0.00031,4e-05,4e-05,5,11
24014,7e-05,2e-05,0.00022,0.00048,0.00024,0.00031,4e-05,4e-05,5,11
24015,7e-05,2e-05,0.00022,0.00048,0.00024,0.00031,4e-05,4e-05,5,11
24016,7e-05,2e-05,0.00022,0.00048,0.00024,0.00031,4e-05,4e-05,5,11
24017,7e-05,2e-05,0.00022,0.00048,0.00024,0.00031,4e-05,4e-05,5,11
24018,7e-05,2e-05,0.00022,0.00048,0.00024,0.00031,4e-05,4e-05,5,11
24019,7e-05,2e-05,0.00022,0.00048,0.00024,0.00031,4e-05,4e-05,5,11
24020,7e-05,2e-05,0.00022,0.00048,0.00024,0.00031,4e-05,4e-05,5,11
24021,7e-05,2e-05,0.00022,0.00048,0.00024,0.00031,4e-05,4e-05,5,11
24022,7e-05,2e-05,0.00022,0.00048,0.00024,0.00031,4e-05,4e-05,5,11
24023,7e-05,2e-05,0.00022,0.00048,0.00024,0.00031,4e-05,4e-05,5,11
24024,7e-05,2e-05,0.00022,0.00048,0.00024,0.00031,4e-05,4e-05,5,11
24025,7e-05,2e-05,0.00022,0.00048,0.00024,0.00031,4e-05,4e-05,5,11
24026,7e-05,2e-05,0.00022,0.00048,0.00024,0.00031,4e-05,4e-05,5,11
24027,7e-05,2e-05,0.00022,0.00048,0.00024,0.00031,4e-05,4e-05,5,11
24028,7e-05,2e-05,0.00022,0.00048,0.00024,0.00031,4e-05,4e-05,5,11
24029,2e-05,-0.00038,0.00012,0.00012,0.00019,5e-05,4e-05,2e-05,5,11
24030,0.00013,0.00023,-9e-05,-0.0002,-0.00053,-0.00014,0,-4e-05,5,11
24031,-0.00026,-0.00061,0.00051,0.00071,0.00045,1e-05,5e-05,0,5,11
24032,0.00021,0.00026,-0.00072,-0.0002,-0.00062,4e-05,-8e-05,0,5,11
24033,0.00021,0.00026,-0.00072,-0.0002,-0.00062,4e-05,-8e-05,0,5,11
24034,0.00021,0.00026,-0.00072,-0.0002,-0.00062,4e-05,-8e-05,0,5,11
24035,0.00021,0.00026,-0.00072,-0.0002,-0.00062,4e-05,-8e-05,0,5,11
24036,0.00021,0.00026,-0.00072,-0.0002,-0.00062,4e-05,-8e-05,0,5,11
24038,0.00021,0.00026,-0.00072,-0.0002,-0.00062,4e-05,-8e-05,0,5,11
24039,0.00021,0.00026,-0.00072,-0.0002,-0.00062,4e-05,-8e-05,0,5,11
24040,0.00021,0.00026,-0.00072,-0.0002,-0.00062,4e-05,-8e-05,0,5,11
24041,0.00021,0.00026,-0.00072,-0.0002,-0.00062,4e-05,-8e-05,0,5,11
24042,0.00021,0.00026,-0.00072,-0.0002,-0.00062,4e-05,-8e-05,0,5,11
24043,0.00021,0.00026,-0.00072,-0.0002,-0.00062,4e-05,-8e-05,0,5,11
24044,0.00021,0.00026,-0.00072,-0.0002,-0.00062,4e-05,-8e-05,0,5,11
24045,-0.0001,-0.00082,-0.00059,-0.00065,0.0007,-4e-05,-0.00015,-0.00013,5,11
24046,-0.00011,0.00044,-0.00012,-0.00052,0.00014,-0.00034,-7e-05,-2e-05,5,11
24047,-0.00011,0.00044,-0.00012,-0.00052,0.00014,-0.00034,-7e-05,-2e-05,5,11
24048,-0.00011,0.00044,-0.00012,-0.00052,0.00014,-0.00034,-7e-05,-2e-05,5,11
24049,-0.00011,0.00044,-0.00012,-0.00052,0.00014,-0.00034,-7e-05,-2e-05,5,11
24050,-0.00011,0.00044,-0.00012,-0.00052,0.00014,-0.00034,-7e-05,-2e-05,5,11
24051,-0.00011,0.00044,-0.00012,-0.00052,0.00014,-0.00034,-7e-05,-2e-05,5,11
24052,-0.00011,0.00044,-0.00012,-0.00052,0.00014,-0.00034,-7e-05,-2e-05,5,11
24053,-0.00011,0.00044,-0.00012,-0.00052,0.00014,-0.00034,-7e-05,-2e-05,5,11
24054,-0.00011,0.00044,-0.00012,-0.00052,0.00014,-0.00034,-7e-05,-2e-05,5,11
24055,-0.00011,0.00044,-0.00012,-0.00052,0.00014,-0.00034,-7e-05,-2e-05,5,11
24056,-0.00011,0.00044,-0.00012,-0.00052,0.00014,-0.00034,-7e-05,-2e-05,5,11
24057,-0.00011,0.00044,-0.00012,-0.00052,0.00014,-0.00034,-7e-05,-2e-05,5,11
24058,-0.00011,0.00044,-0.00012,-0.00052,0.00014,-0.00034,-7e-05,-2e-05,5,11
24059,-0.00011,0.00044,-0.00012,-0.00052,0.00014,-0.00034,-7e-05,-2e-05,5,11
24060,-0.00011,0.00044,-0.00012,-0.00052,0.00014,-0.00034,-7e-05,-2e-05,5,11
24061,-0.00011,0.00044,-0.00012,-0.00052,0.00014,-0.00034,-7e-05,-2e-05,5,11
24062,-0.00011,0.00044,-0.00012,-0.00052,0.00014,-0.00034,-7e-05,-2e-05,5,11
24063,-0.00011,0.00044,-0.00012,-0.00052,0.00014,-0.00034,-7e-05,-2e-05,5,11
24064,-0.00011,0.00044,-0.00012,-0.00052,0.00014,-0.00034,-7e-05,-2e-05,5,11
24065,-0.00011,0.00044,-0.00012,-0.00052,0.00014,-0.00034,-7e-05,-2e-05,5,11
24066,-0.00011,0.00044,-0.00012,-0.00052,0.00014,-0.00034,-7e-05,-2e-05,5,11
24067,-0.00011,0.00044,-0.00012,-0.00052,0.00014,-0.00034,-7e-05,-2e-05,5,11
24068,-0.00022,-0.00015,0.00013,0.0002,0.00022,-8e-05,-5e-05,-1e-05,5,11
24069,-7e-05,-0.00048,-6e-05,-0.00023,0.0002,-0.00043,-6e-05,-9e-05,5,11
24070,-7e-05,-0.00048,-6e-05,-0.00023,0.0002,-0.00043,-6e-05,-9e-05,5,11
24071,-7e-05,-0.00048,-6e-05,-0.00023,0.0002,-0.00043,-6e-05,-9e-05,5,11
24072,-7e-05,-0.00048,-6e-05,-0.00023,0.0002,-0.00043,-6e-05,-9e-05,5,11
24073,-7e-05,-0.00048,-6e-05,-0.00023,0.0002,-0.00043,-6e-05,-9e-05,5,11
24074,-7e-05,-0.00048,-6e-05,-0.00023,0.0002,-0.00043,-6e-05,-9e-05,5,11
24075,-7e-05,-0.00048,-6e-05,-0.00023,0.0002,-0.00043,-6e-05,-9e-05,5,11
24076,-7e-05,-0.00048,-6e-05,-0.00023,0.0002,-0.00043,-6e-05,-9e-05,5,11
24077,-7e-05,-0.00048,-6e-05,-0.00023,0.0002,-0.00043,-6e-05,-9e-05,5,11
24078,-7e-05,-0.00048,-6e-05,-0.00023,0.0002,-0.00043,-6e-05,-9e-05,5,11
24079,-7e-05,-0.00048,-6e-05,-0.00023,0.0002,-0.00043,-6e-05,-9e-05,5,11
24080,-7e-05,-0.00048,-6e-05,-0.00023,0.0002,-0.00043,-6e-05,-9e-05,5,11
24081,-1e-05,-0.00041,0.00021,0.00023,0.0004,-0.00025,7e-05,3e-05,5,11
24082,-1e-05,-0.00041,0.00021,0.00023,0.0004,-0.00025,7e-05,3e-05,5,11
24083,-1e-05,-0.00041,0.00021,0.00023,0.0004,-0.00025,7e-05,3e-05,5,11
24084,-1e-05,-0.00041,0.00021,0.00023,0.0004,-0.00025,7e-05,3e-05,5,11
24085,-1e-05,-0.00041,0.00021,0.00023,0.0004,-0.00025,7e-05,3e-05,5,11
24086,-1e-05,-0.00041,0.00021,0.00023,0.0004,-0.00025,7e-05,3e-05,5,11
24088,5e-05,0.00045,0.00033,0.00029,0.00032,-0.00049,4e-05,4e-05,5,11
24090,5e-05,0.00045,0.00033,0.00029,0.00032,-0.00049,4e-05,4e-05,5,11
24091,5e-05,0.00045,0.00033,0.00029,0.00032,-0.00049,4e-05,4e-05,5,11
24092,5e-05,0.00045,0.00033,0.00029,0.00032,-0.00049,4e-05,4e-05,5,11
24093,5e-05,0.00045,0.00033,0.00029,0.00032,-0.00049,4e-05,4e-05,5,11
24094,5e-05,0.00045,0.00033,0.00029,0.00032,-0.00049,4e-05,4e-05,5,11
24095,5e-05,0.00045,0.00033,0.00029,0.00032,-0.00049,4e-05,4e-05,5,11
24096,5e-05,0.00045,0.00033,0.00029,0.00032,-0.00049,4e-05,4e-05,5,11
24097,5e-05,0.00045,0.00033,0.00029,0.00032,-0.00049,4e-05,4e-05,5,11
24098,5e-05,0.00045,0.00033,0.00029,0.00032,-0.00049,4e-05,4e-05,5,11
24099,5e-05,0.00045,0.00033,0.00029,0.00032,-0.00049,4e-05,4e-05,5,11
24100,5e-05,0.00045,0.00033,0.00029,0.00032,-0.00049,4e-05,4e-05,5,11
24101,5e-05,0.00045,0.00033,0.00029,0.00032,-0.00049,4e-05,4e-05,5,11
24102,5e-05,0.00045,0.00033,0.00029,0.00032,-0.00049,4e-05,4e-05,5,11
24103,5e-05,0.00045,0.00033,0.00029,0.00032,-0.00049,4e-05,4e-05,5,11
24104,5e-05,0.00045,0.00033,0.00029,0.00032,-0.00049,4e-05,4e-05,5,11
24105,0.0001,0.00027,-0.00032,-0.00112,-0.00017,-0.00045,-0.00013,-4e-05,5,11
24106,0.00018,0.00035,-0.00034,-0.00018,0.00015,7e-05,3e-05,2e-05,5,11
24107,0.00018,0.00035,-0.00034,-0.00018,0.00015,7e-05,3e-05,2e-05,5,11
24108,0.00018,0.00035,-0.00034,-0.00018,0.00015,7e-05,3e-05,2e-05,5,11
24109,0.00018,0.00035,-0.00034,-0.00018,0.00015,7e-05,3e-05,2e-05,5,11
24110,0.00018,0.00035,-0.00034,-0.00018,0.00015,7e-05,3e-05,2e-05,5,11
24111,0.00018,0.00035,-0.00034,-0.00018,0.00015,7e-05,3e-05,2e-05,5,11
24112,0.00018,0.00035,-0.00034,-0.00018,0.00015,7e-05,3e-05,2e-05,5,11
24113,0.00018,0.00035,-0.00034,-0.00018,0.00015,7e-05,3e-05,2e-05,5,11
24114,0.00018,0.00035,-0.00034,-0.00018,0.00015,7e-05,3e-05,2e-05,5,11
24115,0.00018,0.00035,-0.00034,-0.00018,0.00015,7e-05,3e-05,2e-05,5,11
24116,0.00018,0.00035,-0.00034,-0.00018,0.00015,7e-05,3e-05,2e-05,5,11
24117,0.00018,0.00035,-0.00034,-0.00018,0.00015,7e-05,3e-05,2e-05,5,11
24118,0.00018,0.00035,-0.00034,-0.00018,0.00015,7e-05,3e-05,2e-05,5,11
24119,0.00018,0.00035,-0.00034,-0.00018,0.00015,7e-05,3e-05,2e-05,5,11
24120,0.00018,0.00035,-0.00034,-0.00018,0.00015,7e-05,3e-05,2e-05,5,11
24121,0.00018,0.00035,-0.00034,-0.00018,0.00015,7e-05,3e-05,2e-05,5,11
24122,0.00018,0.00035,-0.00034,-0.00018,0.00015,7e-05,3e-05,2e-05,5,11
24123,0.00018,0.00035,-0.00034,-0.00018,0.00015,7e-05,3e-05,2e-05,5,11
24124,0.00018,0.00035,-0.00034,-0.00018,0.00015,7e-05,3e-05,2e-05,5,11
24125,0.00018,0.00035,-0.00034,-0.00018,0.00015,7e-05,3e-05,2e-05,5,11
24126,0.00018,0.00035,-0.00034,-0.00018,0.00015,7e-05,3e-05,2e-05,5,11
24127,0.0001,0.00021,0.00056,0.00115,2e-05,3e-05,0.0001,6e-05,5,11
24128,0.0001,0.00021,0.00056,0.00115,2e-05,3e-05,0.0001,6e-05,5,11
24129,-8e-05,-0.00031,-0.00092,-0.00096,0.00063,0.00016,-7e-05,-6e-05,5,11
24131,-8e-05,-0.00031,-0.00092,-0.00096,0.00063,0.00016,-7e-05,-6e-05,5,11
24132,-0.00027,0.00047,-5e-05,-0.00022,-0.00039,-0.00035,-0.00021,-5e-05,5,11
24133,-0.00027,0.00047,-5e-05,-0.00022,-0.00039,-0.00035,-0.00021,-5e-05,5,11
24134,-0.00027,0.00047,-5e-05,-0.00022,-0.00039,-0.00035,-0.00021,-5e-05,5,11
24135,-0.00027,0.00047,-5e-05,-0.00022,-0.00039,-0.00035,-0.00021,-5e-05,5,11
24136,-0.00027,0.00047,-5e-05,-0.00022,-0.00039,-0.00035,-0.00021,-5e-05,5,11
24138,-0.00027,0.00047,-5e-05,-0.00022,-0.00039,-0.00035,-0.00021,-5e-05,5,11
24139,-0.00027,0.00047,-5e-05,-0.00022,-0.00039,-0.00035,-0.00021,-5e-05,5,11
24140,-0.00027,0.00047,-5e-05,-0.00022,-0.00039,-0.00035,-0.00021,-5e-05,5,11
24141,-0.00027,0.00047,-5e-05,-0.00022,-0.00039,-0.00035,-0.00021,-5e-05,5,11
24142,-0.00018,-0.00013,0.0003,0.00103,-0.00028,-0.00031,-0.00014,-0.0001,5,11
24143,-0.00018,-0.00013,0.0003,0.00103,-0.00028,-0.00031,-0.00014,-0.0001,5,11
24144,-0.00018,-0.00013,0.0003,0.00103,-0.00028,-0.00031,-0.00014,-0.0001,5,11
24145,-0.00018,-0.00013,0.0003,0.00103,-0.00028,-0.00031,-0.00014,-0.0001,5,11
24146,-0.00018,-0.00013,0.0003,0.00103,-0.00028,-0.00031,-0.00014,-0.0001,5,11
24147,-0.00018,-0.00013,0.0003,0.00103,-0.00028,-0.00031,-0.00014,-0.0001,5,11
24148,-8e-05,0.00068,-2e-05,0.00025,5e-05,0.00057,9e-05,0,5,11
24149,-8e-05,0.00068,-2e-05,0.00025,5e-05,0.00057,9e-05,0,5,11
24150,-8e-05,0.00068,-2e-05,0.00025,5e-05,0.00057,9e-05,0,5,11
24151,-8e-05,0.00068,-2e-05,0.00025,5e-05,0.00057,9e-05,0,5,11
24152,-8e-05,0.00068,-2e-05,0.00025,5e-05,0.00057,9e-05,0,5,11
24153,-8e-05,0.00068,-2e-05,0.00025,5e-05,0.00057,9e-05,0,5,11
24154,-8e-05,0.00068,-2e-05,0.00025,5e-05,0.00057,9e-05,0,5,11
24155,-8e-05,0.00068,-2e-05,0.00025,5e-05,0.00057,9e-05,0,5,11
24156,-8e-05,0.00068,-2e-05,0.00025,5e-05,0.00057,9e-05,0,5,11
24157,-8e-05,0.00068,-2e-05,0.00025,5e-05,0.00057,9e-05,0,5,11
24158,-8e-05,0.00068,-2e-05,0.00025,5e-05,0.00057,9e-05,0,5,11
24159,-8e-05,0.00068,-2e-05,0.00025,5e-05,0.00057,9e-05,0,5,11
24160,-8e-05,0.00068,-2e-05,0.00025,5e-05,0.00057,9e-05,0,5,11
24161,-8e-05,0.00068,-2e-05,0.00025,5e-05,0.00057,9e-05,0,5,11
24162,-8e-05,0.00068,-2e-05,0.00025,5e-05,0.00057,9e-05,0,5,11
24163,-8e-05,0.00068,-2e-05,0.00025,5e-05,0.00057,9e-05,0,5,11
24164,-8e-05,0.00068,-2e-05,0.00025,5e-05,0.00057,9e-05,0,5,11
24165,-8e-05,0.00068,-2e-05,0.00025,5e-05,0.00057,9e-05,0,5,11
24166,-8e-05,0.00068,-2e-05,0.00025,5e-05,0.00057,9e-05,0,5,11
24167,-8e-05,0.00068,-2e-05,0.00025,5e-05,0.00057,9e-05,0,5,11
24168,-8e-05,0.00068,-2e-05,0.00025,5e-05,0.00057,9e-05,0,5,11
24169,-8e-05,0.00068,-2e-05,0.00025,5e-05,0.00057,9e-05,0,5,11
24170,-8e-05,0.00068,-2e-05,0.00025,5e-05,0.00057,9e-05,0,5,11
24171,-8e-05,0.00068,-2e-05,0.00025,5e-05,0.00057,9e-05,0,5,11
24172,7e-05,0.00105,0.00041,0.00051,0.00053,0.0003,0.00019,0.00015,5,11
24173,7e-05,0.00105,0.00041,0.00051,0.00053,0.0003,0.00019,0.00015,5,11
24174,-5e-05,0.00051,0.00072,0.00091,-0.00019,-8e-05,2e-05,2e-05,5,11
24175,-5e-05,0.00051,0.00072,0.00091,-0.00019,-8e-05,2e-05,2e-05,5,11
24176,-5e-05,0.00051,0.00072,0.00091,-0.00019,-8e-05,2e-05,2e-05,5,11
24177,-5e-05,0.00051,0.00072,0.00091,-0.00019,-8e-05,2e-05,2e-05,5,11
24178,-5e-05,0.00051,0.00072,0.00091,-0.00019,-8e-05,2e-05,2e-05,5,11
24179,-5e-05,0.00051,0.00072,0.00091,-0.00019,-8e-05,2e-05,2e-05,5,11
24180,-5e-05,0.00051,0.00072,0.00091,-0.00019,-8e-05,2e-05,2e-05,5,11
24181,-5e-05,0.00051,0.00072,0.00091,-0.00019,-8e-05,2e-05,2e-05,5,11
24182,-5e-05,0.00051,0.00072,0.00091,-0.00019,-8e-05,2e-05,2e-05,5,11
24183,-5e-05,0.00051,0.00072,0.00091,-0.00019,-8e-05,2e-05,2e-05,5,11
24184,-5e-05,0.00051,0.00072,0.00091,-0.00019,-8e-05,2e-05,2e-05,5,11
24185,-5e-05,0.00051,0.00072,0.00091,-0.00019,-8e-05,2e-05,2e-05,5,11
24186,-5e-05,0.00051,0.00072,0.00091,-0.00019,-8e-05,2e-05,2e-05,5,11
24189,-1e-05,-0.00097,0.00026,0.00048,0.00056,0.00108,0.00021,0.00012,5,11
24190,-1e-05,-0.00097,0.00026,0.00048,0.00056,0.00108,0.00021,0.00012,5,11
24191,-1e-05,-0.00097,0.00026,0.00048,0.00056,0.00108,0.00021,0.00012,5,11
24192,-1e-05,-0.00097,0.00026,0.00048,0.00056,0.00108,0.00021,0.00012,5,11
24193,-1e-05,-0.00097,0.00026,0.00048,0.00056,0.00108,0.00021,0.00012,5,11
24194,-1e-05,-0.00097,0.00026,0.00048,0.00056,0.00108,0.00021,0.00012,5,11
24195,-1e-05,-0.00097,0.00026,0.00048,0.00056,0.00108,0.00021,0.00012,5,11
24196,-1e-05,-0.00097,0.00026,0.00048,0.00056,0.00108,0.00021,0.00012,5,11
24197,-1e-05,-0.00097,0.00026,0.00048,0.00056,0.00108,0.00021,0.00012,5,11
24198,-1e-05,-0.00097,0.00026,0.00048,0.00056,0.00108,0.00021,0.00012,5,11
24199,-1e-05,-0.00097,0.00026,0.00048,0.00056,0.00108,0.00021,0.00012,5,11
24200,-1e-05,-0.00097,0.00026,0.00048,0.00056,0.00108,0.00021,0.00012,5,11
24201,-1e-05,-0.00097,0.00026,0.00048,0.00056,0.00108,0.00021,0.00012,5,11
24202,-9e-05,0.00011,-0.00044,-0.00102,-0.00066,-0.00012,-0.00013,-5e-05,5,11
24203,-9e-05,0.00011,-0.00044,-0.00102,-0.00066,-0.00012,-0.00013,-5e-05,5,11
24204,-9e-05,0.00011,-0.00044,-0.00102,-0.00066,-0.00012,-0.00013,-5e-05,5,11
24205,-9e-05,0.00011,-0.00044,-0.00102,-0.00066,-0.00012,-0.00013,-5e-05,5,11
24206,-9e-05,0.00011,-0.00044,-0.00102,-0.00066,-0.00012,-0.00013,-5e-05,5,11
24207,-9e-05,0.00011,-0.00044,-0.00102,-0.00066,-0.00012,-0.00013,-5e-05,5,11
24208,-9e-05,0.00011,-0.00044,-0.00102,-0.00066,-0.00012,-0.00013,-5e-05,5,11
24209,-9e-05,0.00011,-0.00044,-0.00102,-0.00066,-0.00012,-0.00013,-5e-05,5,11
24210,-9e-05,0.00011,-0.00044,-0.00102,-0.00066,-0.00012,-0.00013,-5e-05,5,11
24211,-9e-05,0.00011,-0.00044,-0.00102,-0.00066,-0.00012,-0.00013,-5e-05,5,11
24212,-9e-05,0.00011,-0.00044,-0.00102,-0.00066,-0.00012,-0.00013,-5e-05,5,11
24213,-9e-05,0.00011,-0.00044,-0.00102,-0.00066,-0.00012,-0.00013,-5e-05,5,11
24214,-9e-05,0.00011,-0.00044,-0.00102,-0.00066,-0.00012,-0.00013,-5e-05,5,11
24215,-9e-05,0.00011,-0.00044,-0.00102,-0.00066,-0.00012,-0.00013,-5e-05,5,11
24216,6e-05,7e-05,-0.00053,-0.00046,-0.00057,-0.00053,-0.00016,-0.00013,5,11
24217,6e-05,7e-05,-0.00053,-0.00046,-0.00057,-0.00053,-0.00016,-0.00013,5,11
24218,6e-05,7e-05,-0.00053,-0.00046,-0.00057,-0.00053,-0.00016,-0.00013,5,11
24219,6e-05,7e-05,-0.00053,-0.00046,-0.00057,-0.00053,-0.00016,-0.00013,5,11
24220,6e-05,7e-05,-0.00053,-0.00046,-0.00057,-0.00053,-0.00016,-0.00013,5,11
24221,6e-05,7e-05,-0.00053,-0.00046,-0.00057,-0.00053,-0.00016,-0.00013,5,11
24222,6e-05,7e-05,-0.00053,-0.00046,-0.00057,-0.00053,-0.00016,-0.00013,5,11
24223,6e-05,7e-05,-0.00053,-0.00046,-0.00057,-0.00053,-0.00016,-0.00013,5,11
24224,6e-05,7e-05,-0.00053,-0.00046,-0.00057,-0.00053,-0.00016,-0.00013,5,11
24225,-0.00015,-0.00062,-0.00072,-0.00091,4e-05,8e-05,-3e-05,-6e-05,5,11
24226,-0.00027,-0.00075,0.00029,0.00079,-0.00025,7e-05,5e-05,-3e-05,5,11
24227,-0.00027,-0.00075,0.00029,0.00079,-0.00025,7e-05,5e-05,-3e-05,5,11
24228,-0.00027,-0.00075,0.00029,0.00079,-0.00025,7e-05,5e-05,-3e-05,5,11
24229,-0.00027,-0.00075,0.00029,0.00079,-0.00025,7e-05,5e-05,-3e-05,5,11
24230,-0.00027,-0.00075,0.00029,0.00079,-0.00025,7e-05,5e-05,-3e-05,5,11
24231,-0.00027,-0.00075,0.00029,0.00079,-0.00025,7e-05,5e-05,-3e-05,5,11
24232,-0.00027,-0.00075,0.00029,0.00079,-0.00025,7e-05,5e-05,-3e-05,5,11
24233,-0.00027,-0.00075,0.00029,0.00079,-0.00025,7e-05,5e-05,-3e-05,5,11
24234,-0.00027,-0.00075,0.00029,0.00079,-0.00025,7e-05,5e-05,-3e-05,5,11
24235,-0.00027,-0.00075,0.00029,0.00079,-0.00025,7e-05,5e-05,-3e-05,5,11
24236,-0.00027,-0.00075,0.00029,0.00079,-0.00025,7e-05,5e-05,-3e-05,5,11
24238,-0.00027,-0.00075,0.00029,0.00079,-0.00025,7e-05,5e-05,-3e-05,5,11
24239,-0.00027,-0.00075,0.00029,0.00079,-0.00025,7e-05,5e-05,-3e-05,5,11
24240,-0.00027,-0.00075,0.00029,0.00079,-0.00025,7e-05,5e-05,-3e-05,5,11
24241,-0.00027,-0.00075,0.00029,0.00079,-0.00025,7e-05,5e-05,-3e-05,5,11
24242,-0.00027,-0.00075,0.00029,0.00079,-0.00025,7e-05,5e-05,-3e-05,5,11
24243,-0.00027,-0.00075,0.00029,0.00079,-0.00025,7e-05,5e-05,-3e-05,5,11
24244,-0.00027,-0.00075,0.00029,0.00079,-0.00025,7e-05,5e-05,-3e-05,5,11
24245,-0.00027,-0.00075,0.00029,0.00079,-0.00025,7e-05,5e-05,-3e-05,5,11
24246,-0.00027,-0.00075,0.00029,0.00079,-0.00025,7e-05,5e-05,-3e-05,5,11
24247,0.00012,-0.00016,-6e-05,-0.00056,0.00051,0.00056,3e-05,1e-05,5,11
24248,0.00012,-0.00016,-6e-05,-0.00056,0.00051,0.00056,3e-05,1e-05,5,11
24249,8e-05,-0.00128,-0.00027,-0.00019,0.00019,0.00019,-4e-05,-9e-05,5,11
24250,8e-05,-0.00128,-0.00027,-0.00019,0.00019,0.00019,-4e-05,-9e-05,5,11
24251,8e-05,-0.00128,-0.00027,-0.00019,0.00019,0.00019,-4e-05,-9e-05,5,11
24252,8e-05,-0.00128,-0.00027,-0.00019,0.00019,0.00019,-4e-05,-9e-05,5,11
24253,8e-05,-0.00128,-0.00027,-0.00019,0.00019,0.00019,-4e-05,-9e-05,5,11
24254,8e-05,-0.00128,-0.00027,-0.00019,0.00019,0.00019,-4e-05,-9e-05,5,11
24255,8e-05,-0.00128,-0.00027,-0.00019,0.00019,0.00019,-4e-05,-9e-05,5,11
24256,8e-05,-0.00128,-0.00027,-0.00019,0.00019,0.00019,-4e-05,-9e-05,5,11
24257,8e-05,-0.00128,-0.00027,-0.00019,0.00019,0.00019,-4e-05,-9e-05,5,11
24258,8e-05,-0.00128,-0.00027,-0.00019,0.00019,0.00019,-4e-05,-9e-05,5,11
24259,8e-05,-0.00128,-0.00027,-0.00019,0.00019,0.00019,-4e-05,-9e-05,5,11
24260,8e-05,-0.00128,-0.00027,-0.00019,0.00019,0.00019,-4e-05,-9e-05,5,11
24261,8e-05,-0.00128,-0.00027,-0.00019,0.00019,0.00019,-4e-05,-9e-05,5,11
24262,-3e-05,-0.00014,-0.00075,-0.00067,7e-05,-2e-05,-8e-05,-7e-05,5,11
24263,-3e-05,-0.00014,-0.00075,-0.00067,7e-05,-2e-05,-8e-05,-7e-05,5,11
24264,-3e-05,-0.00014,-0.00075,-0.00067,7e-05,-2e-05,-8e-05,-7e-05,5,11
24265,-3e-05,-0.00014,-0.00075,-0.00067,7e-05,-2e-05,-8e-05,-7e-05,5,11
24266,-3e-05,-0.00014,-0.00075,-0.00067,7e-05,-2e-05,-8e-05,-7e-05,5,11
24267,-3e-05,-0.00014,-0.00075,-0.00067,7e-05,-2e-05,-8e-05,-7e-05,5,11
24268,0.00017,7e-05,0.00015,1e-05,-0.00021,-0.00013,0.00022,9e-05,5,11
24269,-0.00023,2e-05,-0.00035,-0.00119,0.00028,0.00053,-5e-05,-6e-05,5,11
24270,-0.00023,2e-05,-0.00035,-0.00119,0.00028,0.00053,-5e-05,-6e-05,5,11
24271,-0.00023,2e-05,-0.00035,-0.00119,0.00028,0.00053,-5e-05,-6e-05,5,11
24272,-0.00023,2e-05,-0.00035,-0.00119,0.00028,0.00053,-5e-05,-6e-05,5,11
24273,-0.00023,2e-05,-0.00035,-0.00119,0.00028,0.00053,-5e-05,-6e-05,5,11
24274,-0.00023,2e-05,-0.00035,-0.00119,0.00028,0.00053,-5e-05,-6e-05,5,11
24275,-0.00023,2e-05,-0.00035,-0.00119,0.00028,0.00053,-5e-05,-6e-05,5,11
24276,-0.00023,2e-05,-0.00035,-0.00119,0.00028,0.00053,-5e-05,-6e-05,5,11
24277,-0.00023,2e-05,-0.00035,-0.00119,0.00028,0.00053,-5e-05,-6e-05,5,11
24278,-0.00023,2e-05,-0.00035,-0.00119,0.00028,0.00053,-5e-05,-6e-05,5,11
24279,-0.00023,2e-05,-0.00035,-0.00119,0.00028,0.00053,-5e-05,-6e-05,5,11
24280,-0.00023,2e-05,-0.00035,-0.00119,0.00028,0.00053,-5e-05,-6e-05,5,11
24281,-0.00023,2e-05,-0.00035,-0.00119,0.00028,0.00053,-5e-05,-6e-05,5,11
24282,-0.00023,2e-05,-0.00035,-0.00119,0.00028,0.00053,-5e-05,-6e-05,5,11
24283,-0.00023,2e-05,-0.00035,-0.00119,0.00028,0.00053,-5e-05,-6e-05,5,11
24284,-0.00023,2e-05,-0.00035,-0.00119,0.00028,0.00053,-5e-05,-6e-05,5,11
24285,-7e-05,-0.00046,0.00021,0.00049,-0.00045,6e-05,2e-05,-4e-05,5,11
24286,-0.00011,-0.00096,-5e-05,-0.00093,0.00025,0.00046,3e-05,-3e-05,5,11
24288,5e-05,0.00075,0.00023,0.00064,0.00046,-4e-05,4e-05,4e-05,5,11
24289,5e-05,0.00075,0.00023,0.00064,0.00046,-4e-05,4e-05,4e-05,5,11
24290,5e-05,0.00075,0.00023,0.00064,0.00046,-4e-05,4e-05,4e-05,5,11
24291,5e-05,0.00075,0.00023,0.00064,0.00046,-4e-05,4e-05,4e-05,5,11
24292,5e-05,0.00075,0.00023,0.00064,0.00046,-4e-05,4e-05,4e-05,5,11
24293,5e-05,0.00075,0.00023,0.00064,0.00046,-4e-05,4e-05,4e-05,5,11
24294,5e-05,0.00075,0.00023,0.00064,0.00046,-4e-05,4e-05,4e-05,5,11
24295,5e-05,0.00075,0.00023,0.00064,0.00046,-4e-05,4e-05,4e-05,5,11
24296,5e-05,0.00075,0.00023,0.00064,0.00046,-4e-05,4e-05,4e-05,5,11
24297,5e-05,0.00075,0.00023,0.00064,0.00046,-4e-05,4e-05,4e-05,5,11
24298,5e-05,0.00075,0.00023,0.00064,0.00046,-4e-05,4e-05,4e-05,5,11
24299,5e-05,0.00075,0.00023,0.00064,0.00046,-4e-05,4e-05,4e-05,5,11
24300,5e-05,0.00075,0.00023,0.00064,0.00046,-4e-05,4e-05,4e-05,5,11
24301,5e-05,0.00075,0.00023,0.00064,0.00046,-4e-05,4e-05,4e-05,5,11
24302,5e-05,0.00075,0.00023,0.00064,0.00046,-4e-05,4e-05,4e-05,5,11
24303,5e-05,0.00075,0.00023,0.00064,0.00046,-4e-05,4e-05,4e-05,5,11
24304,5e-05,0.00075,0.00023,0.00064,0.00046,-4e-05,4e-05,4e-05,5,11
24305,5e-05,0.00075,0.00023,0.00064,0.00046,-4e-05,4e-05,4e-05,5,11
24306,5e-05,0.00075,0.00023,0.00064,0.00046,-4e-05,4e-05,4e-05,5,11
24307,-5e-05,0.00023,0.00021,0.00046,9e-05,0.00011,0.0001,5e-05,5,11
24308,-5e-05,0.00023,0.00021,0.00046,9e-05,0.00011,0.0001,5e-05,5,11
24309,0.00013,0.00038,-0.00015,-0.00059,-0.00028,-0.00041,-0.00011,2e-05,5,11
24310,0.00013,0.00038,-0.00015,-0.00059,-0.00028,-0.00041,-0.00011,2e-05,5,11
24311,0.00013,0.00038,-0.00015,-0.00059,-0.00028,-0.00041,-0.00011,2e-05,5,11
24312,0.00013,0.00038,-0.00015,-0.00059,-0.00028,-0.00041,-0.00011,2e-05,5,11
24313,0.00013,0.00038,-0.00015,-0.00059,-0.00028,-0.00041,-0.00011,2e-05,5,11
24314,0.00013,0.00038,-0.00015,-0.00059,-0.00028,-0.00041,-0.00011,2e-05,5,11
24315,0.00013,0.00038,-0.00015,-0.00059,-0.00028,-0.00041,-0.00011,2e-05,5,11
24316,0.00013,0.00038,-0.00015,-0.00059,-0.00028,-0.00041,-0.00011,2e-05,5,11
24317,0.00013,0.00038,-0.00015,-0.00059,-0.00028,-0.00041,-0.00011,2e-05,5,11
24318,0.00013,0.00038,-0.00015,-0.00059,-0.00028,-0.00041,-0.00011,2e-05,5,11
24319,0.00013,0.00038,-0.00015,-0.00059,-0.00028,-0.00041,-0.00011,2e-05,5,11
24320,0.00013,0.00038,-0.00015,-0.00059,-0.00028,-0.00041,-0.00011,2e-05,5,11
24321,-7e-05,0.00035,0.00011,0.00029,-0.00025,-0.00044,0,3e-05,5,11
24322,-7e-05,0.00035,0.00011,0.00029,-0.00025,-0.00044,0,3e-05,5,11
24323,-7e-05,0.00035,0.00011,0.00029,-0.00025,-0.00044,0,3e-05,5,11
24324,-7e-05,0.00035,0.00011,0.00029,-0.00025,-0.00044,0,3e-05,5,11
24325,-7e-05,0.00035,0.00011,0.00029,-0.00025,-0.00044,0,3e-05,5,11
24326,-7e-05,0.00035,0.00011,0.00029,-0.00025,-0.00044,0,3e-05,5,11
24327,-7e-05,0.00035,0.00011,0.00029,-0.00025,-0.00044,0,3e-05,5,11
24328,-5e-05,9e-05,0.00014,-0.00067,-0.00059,0.0001,0,1e-05,5,11
24329,-5e-05,9e-05,0.00014,-0.00067,-0.00059,0.0001,0,1e-05,5,11
24330,-5e-05,9e-05,0.00014,-0.00067,-0.00059,0.0001,0,1e-05,5,11
24331,-5e-05,9e-05,0.00014,-0.00067,-0.00059,0.0001,0,1e-05,5,11
24332,-5e-05,9e-05,0.00014,-0.00067,-0.00059,0.0001,0,1e-05,5,11
24333,-5e-05,9e-05,0.00014,-0.00067,-0.00059,0.0001,0,1e-05,5,11
24334,-5e-05,9e-05,0.00014,-0.00067,-0.00059,0.0001,0,1e-05,5,11
24335,-5e-05,9e-05,0.00014,-0.00067,-0.00059,0.0001,0,1e-05,5,11
24336,-5e-05,9e-05,0.00014,-0.00067,-0.00059,0.0001,0,1e-05,5,11
24338,-5e-05,9e-05,0.00014,-0.00067,-0.00059,0.0001,0,1e-05,5,11
24339,-5e-05,9e-05,0.00014,-0.00067,-0.00059,0.0001,0,1e-05,5,11
24340,-5e-05,9e-05,0.00014,-0.00067,-0.00059,0.0001,0,1e-05,5,11
24341,-5e-05,9e-05,0.00014,-0.00067,-0.00059,0.0001,0,1e-05,5,11
24342,-5e-05,9e-05,0.00014,-0.00067,-0.00059,0.0001,0,1e-05,5,11
24343,-5e-05,9e-05,0.00014,-0.00067,-0.00059,0.0001,0,1e-05,5,11
24344,-5e-05,9e-05,0.00014,-0.00067,-0.00059,0.0001,0,1e-05,5,11
24345,-0.00016,-0.0001,-0.00048,-0.00097,0.00011,-3e-05,-6e-05,-6e-05,5,11
24346,-0.00016,-0.0001,-0.00048,-0.00097,0.00011,-3e-05,-6e-05,-6e-05,5,11
24347,-0.00016,-0.0001,-0.00048,-0.00097,0.00011,-3e-05,-6e-05,-6e-05,5,11
24348,-0.00016,-0.0001,-0.00048,-0.00097,0.00011,-3e-05,-6e-05,-6e-05,5,11
24349,-0.00016,-0.0001,-0.00048,-0.00097,0.00011,-3e-05,-6e-05,-6e-05,5,11
24350,-0.00016,-0.0001,-0.00048,-0.00097,0.00011,-3e-05,-6e-05,-6e-05,5,11
24351,-0.00016,-0.0001,-0.00048,-0.00097,0.00011,-3e-05,-6e-05,-6e-05,5,11
24352,-0.00016,-0.0001,-0.00048,-0.00097,0.00011,-3e-05,-6e-05,-6e-05,5,11
24353,-0.00016,-0.0001,-0.00048,-0.00097,0.00011,-3e-05,-6e-05,-6e-05,5,11
24354,-0.00016,-0.0001,-0.00048,-0.00097,0.00011,-3e-05,-6e-05,-6e-05,5,11
24355,-0.00016,-0.0001,-0.00048,-0.00097,0.00011,-3e-05,-6e-05,-6e-05,5,11
24356,-0.00016,-0.0001,-0.00048,-0.00097,0.00011,-3e-05,-6e-05,-6e-05,5,11
24357,-0.00016,-0.0001,-0.00048,-0.00097,0.00011,-3e-05,-6e-05,-6e-05,5,11
24358,-0.00016,-0.0001,-0.00048,-0.00097,0.00011,-3e-05,-6e-05,-6e-05,5,11
24359,-0.00016,-0.0001,-0.00048,-0.00097,0.00011,-3e-05,-6e-05,-6e-05,5,11
24360,-0.00023,-0.00048,-0.00028,0.0002,0.00067,0,-9e-05,-7e-05,5,11
24361,-0.00023,-0.00048,-0.00028,0.0002,0.00067,0,-9e-05,-7e-05,5,11
24362,-0.00023,-0.00048,-0.00028,0.0002,0.00067,0,-9e-05,-7e-05,5,11
24363,-0.00023,-0.00048,-0.00028,0.0002,0.00067,0,-9e-05,-7e-05,5,11
24364,-0.00023,-0.00048,-0.00028,0.0002,0.00067,0,-9e-05,-7e-05,5,11
24365,-0.00023,-0.00048,-0.00028,0.0002,0.00067,0,-9e-05,-7e-05,5,11
24366,-0.00023,-0.00048,-0.00028,0.0002,0.00067,0,-9e-05,-7e-05,5,11
24367,0.00014,0.00041,0.00025,0.00029,0.0003,0.0003,8e-05,5e-05,5,11
24368,0.00014,0.00041,0.00025,0.00029,0.0003,0.0003,8e-05,5e-05,5,11
24369,0.00013,-6e-05,0.00011,4e-05,0.00013,0.00019,0,1e-05,5,11
24370,0.00013,-6e-05,0.00011,4e-05,0.00013,0.00019,0,1e-05,5,11
24371,0.00013,-6e-05,0.00011,4e-05,0.00013,0.00019,0,1e-05,5,11
24372,0.00013,-6e-05,0.00011,4e-05,0.00013,0.00019,0,1e-05,5,11
24373,0.00013,-6e-05,0.00011,4e-05,0.00013,0.00019,0,1e-05,5,11
24374,0.00013,-6e-05,0.00011,4e-05,0.00013,0.00019,0,1e-05,5,11
24375,0.00013,-6e-05,0.00011,4e-05,0.00013,0.00019,0,1e-05,5,11
24376,0.00013,-6e-05,0.00011,4e-05,0.00013,0.00019,0,1e-05,5,11
24377,0.00013,-6e-05,0.00011,4e-05,0.00013,0.00019,0,1e-05,5,11
24378,0.00013,-6e-05,0.00011,4e-05,0.00013,0.00019,0,1e-05,5,11
24379,0.00013,-6e-05,0.00011,4e-05,0.00013,0.00019,0,1e-05,5,11
24380,0.00013,-6e-05,0.00011,4e-05,0.00013,0.00019,0,1e-05,5,11
24381,-0.00034,-0.00086,5e-05,0.0002,-0.00084,-0.0003,-0.00011,-8e-05,5,11
24382,-0.00034,-0.00086,5e-05,0.0002,-0.00084,-0.0003,-0.00011,-8e-05,5,11
24383,-0.00034,-0.00086,5e-05,0.0002,-0.00084,-0.0003,-0.00011,-8e-05,5,11
24384,-0.00034,-0.00086,5e-05,0.0002,-0.00084,-0.0003,-0.00011,-8e-05,5,11
24385,-0.00034,-0.00086,5e-05,0.0002,-0.00084,-0.0003,-0.00011,-8e-05,5,11
24386,-0.00034,-0.00086,5e-05,0.0002,-0.00084,-0.0003,-0.00011,-8e-05,5,11
24388,-0.00034,-0.00086,5e-05,0.0002,-0.00084,-0.0003,-0.00011,-8e-05,5,11
24389,-0.00034,-0.00086,5e-05,0.0002,-0.00084,-0.0003,-0.00011,-8e-05,5,11
24390,-4e-05,-0.0006,0.0004,0.00127,0.00046,0.00067,0.00024,7e-05,5,11
24391,-4e-05,-0.0006,0.0004,0.00127,0.00046,0.00067,0.00024,7e-05,5,11
24392,-4e-05,-0.0006,0.0004,0.00127,0.00046,0.00067,0.00024,7e-05,5,11
24393,-4e-05,-0.0006,0.0004,0.00127,0.00046,0.00067,0.00024,7e-05,5,11
24394,-4e-05,-0.0006,0.0004,0.00127,0.00046,0.00067,0.00024,7e-05,5,11
24395,-4e-05,-0.0006,0.0004,0.00127,0.00046,0.00067,0.00024,7e-05,5,11
24396,-4e-05,-0.0006,0.0004,0.00127,0.00046,0.00067,0.00024,7e-05,5,11
24397,-4e-05,-0.0006,0.0004,0.00127,0.00046,0.00067,0.00024,7e-05,5,11
24398,-4e-05,-0.0006,0.0004,0.00127,0.00046,0.00067,0.00024,7e-05,5,11
24399,-4e-05,-0.0006,0.0004,0.00127,0.00046,0.00067,0.00024,7e-05,5,11
24400,-4e-05,-0.0006,0.0004,0.00127,0.00046,0.00067,0.00024,7e-05,5,11
24401,-4e-05,-0.0006,0.0004,0.00127,0.00046,0.00067,0.00024,7e-05,5,11
24402,-4e-05,-0.0006,0.0004,0.00127,0.00046,0.00067,0.00024,7e-05,5,11
24403,-4e-05,-0.0006,0.0004,0.00127,0.00046,0.00067,0.00024,7e-05,5,11
24404,-4e-05,-0.0006,0.0004,0.00127,0.00046,0.00067,0.00024,7e-05,5,11
24405,0.00042,0.00077,0.00021,0.00064,-5e-05,-0.0001,-8e-05,1e-05,5,11
24406,0.00042,0.00077,0.00021,0.00064,-5e-05,-0.0001,-8e-05,1e-05,5,11
24407,0.00021,0.00046,1e-05,-0.0001,-0.00015,-5e-05,0,-3e-05,5,11
24408,0.00021,0.00046,1e-05,-0.0001,-0.00015,-5e-05,0,-3e-05,5,11
24409,0.00021,0.00046,1e-05,-0.0001,-0.00015,-5e-05,0,-3e-05,5,11
24410,0.00021,0.00046,1e-05,-0.0001,-0.00015,-5e-05,0,-3e-05,5,11
24411,0.00021,0.00046,1e-05,-0.0001,-0.00015,-5e-05,0,-3e-05,5,11
24412,0.00021,0.00046,1e-05,-0.0001,-0.00015,-5e-05,0,-3e-05,5,11
24413,0.00021,0.00046,1e-05,-0.0001,-0.00015,-5e-05,0,-3e-05,5,11
24414,0.00021,0.00046,1e-05,-0.0001,-0.00015,-5e-05,0,-3e-05,5,11
24415,0.00021,0.00046,1e-05,-0.0001,-0.00015,-5e-05,0,-3e-05,5,11
24416,0.00021,0.00046,1e-05,-0.0001,-0.00015,-5e-05,0,-3e-05,5,11
24417,0.00021,0.00046,1e-05,-0.0001,-0.00015,-5e-05,0,-3e-05,5,11
24418,0.00021,0.00046,1e-05,-0.0001,-0.00015,-5e-05,0,-3e-05,5,11
24419,0.00021,0.00046,1e-05,-0.0001,-0.00015,-5e-05,0,-3e-05,5,11
24420,0.00021,0.00046,1e-05,-0.0001,-0.00015,-5e-05,0,-3e-05,5,11
24421,0.00021,0.00046,1e-05,-0.0001,-0.00015,-5e-05,0,-3e-05,5,11
24422,0.00021,0.00046,1e-05,-0.0001,-0.00015,-5e-05,0,-3e-05,5,11
24423,0.00021,0.00046,1e-05,-0.0001,-0.00015,-5e-05,0,-3e-05,5,11
24424,0.00021,0.00046,1e-05,-0.0001,-0.00015,-5e-05,0,-3e-05,5,11
24425,0.00021,0.00046,1e-05,-0.0001,-0.00015,-5e-05,0,-3e-05,5,11
24426,0.00021,0.00046,1e-05,-0.0001,-0.00015,-5e-05,0,-3e-05,5,11
24427,-3e-05,0.00016,8e-05,-0.00031,0.00017,0.0006,0.00012,0,5,11
24428,-3e-05,0.00016,8e-05,-0.00031,0.00017,0.0006,0.00012,0,5,11
24429,0.00015,0.00053,-0.00017,1e-05,5e-05,-0.00012,1e-05,-1e-05,5,11
24430,0.00015,0.00053,-0.00017,1e-05,5e-05,-0.00012,1e-05,-1e-05,5,11
24431,0.00015,0.00053,-0.00017,1e-05,5e-05,-0.00012,1e-05,-1e-05,5,11
24432,0.00015,0.00053,-0.00017,1e-05,5e-05,-0.00012,1e-05,-1e-05,5,11
24433,0.00015,0.00053,-0.00017,1e-05,5e-05,-0.00012,1e-05,-1e-05,5,11
24434,0.00015,0.00053,-0.00017,1e-05,5e-05,-0.00012,1e-05,-1e-05,5,11
24435,0.00015,0.00053,-0.00017,1e-05,5e-05,-0.00012,1e-05,-1e-05,5,11
24436,0.00015,0.00053,-0.00017,1e-05,5e-05,-0.00012,1e-05,-1e-05,5,11
24438,0.00015,0.00053,-0.00017,1e-05,5e-05,-0.00012,1e-05,-1e-05,5,11
24439,0.00015,0.00053,-0.00017,1e-05,5e-05,-0.00012,1e-05,-1e-05,5,11
24440,0.00015,0.00053,-0.00017,1e-05,5e-05,-0.00012,1e-05,-1e-05,5,11
24441,0.00015,0.00053,-0.00017,1e-05,5e-05,-0.00012,1e-05,-1e-05,5,11
24442,0.00015,0.00053,-0.00017,1e-05,5e-05,-0.00012,1e-05,-1e-05,5,11
24443,0.00015,0.00053,-0.00017,1e-05,5e-05,-0.00012,1e-05,-1e-05,5,11
24444,0.00015,0.00053,-0.00017,1e-05,5e-05,-0.00012,1e-05,-1e-05,5,11
24445,0.00015,0.00053,-0.00017,1e-05,5e-05,-0.00012,1e-05,-1e-05,5,11
24446,0.00015,0.00053,-0.00017,1e-05,5e-05,-0.00012,1e-05,-1e-05,5,11
24447,0.00015,0.00053,-0.00017,1e-05,5e-05,-0.00012,1e-05,-1e-05,5,11
24448,0.00015,0.00053,-0.00017,1e-05,5e-05,-0.00012,1e-05,-1e-05,5,11
24449,0.00015,0.00053,-0.00017,1e-05,5e-05,-0.00012,1e-05,-1e-05,5,11
24450,5e-05,-0.00094,6e-05,-9e-05,-4e-05,0.00028,0.00014,0,5,11
24452,5e-05,-0.00094,6e-05,-9e-05,-4e-05,0.00028,0.00014,0,5,11
24453,5e-05,-0.00094,6e-05,-9e-05,-4e-05,0.00028,0.00014,0,5,11
24454,5e-05,-0.00094,6e-05,-9e-05,-4e-05,0.00028,0.00014,0,5,11
24455,5e-05,-0.00094,6e-05,-9e-05,-4e-05,0.00028,0.00014,0,5,11
24456,5e-05,-0.00094,6e-05,-9e-05,-4e-05,0.00028,0.00014,0,5,11
24457,5e-05,-0.00094,6e-05,-9e-05,-4e-05,0.00028,0.00014,0,5,11
24459,5e-05,-0.00094,6e-05,-9e-05,-4e-05,0.00028,0.00014,0,5,11
24460,5e-05,-0.00094,6e-05,-9e-05,-4e-05,0.00028,0.00014,0,5,11
24461,5e-05,-0.00094,6e-05,-9e-05,-4e-05,0.00028,0.00014,0,5,11
24462,5e-05,-0.00094,6e-05,-9e-05,-4e-05,0.00028,0.00014,0,5,11
24463,5e-05,-0.00094,6e-05,-9e-05,-4e-05,0.00028,0.00014,0,5,11
24464,5e-05,-0.00094,6e-05,-9e-05,-4e-05,0.00028,0.00014,0,5,11
24465,5e-05,0.00064,-6e-05,-0.00038,0.00011,0.00026,2e-05,2e-05,5,11
24466,3e-05,0.00043,-0.00036,-0.00115,-0.00026,-0.00022,-2e-05,0,5,11
24467,3e-05,0.00043,-0.00036,-0.00115,-0.00026,-0.00022,-2e-05,0,5,11
24468,3e-05,0.00043,-0.00036,-0.00115,-0.00026,-0.00022,-2e-05,0,5,11
24469,3e-05,0.00043,-0.00036,-0.00115,-0.00026,-0.00022,-2e-05,0,5,11
24470,3e-05,0.00043,-0.00036,-0.00115,-0.00026,-0.00022,-2e-05,0,5,11
24471,3e-05,0.00043,-0.00036,-0.00115,-0.00026,-0.00022,-2e-05,0,5,11
24472,3e-05,0.00043,-0.00036,-0.00115,-0.00026,-0.00022,-2e-05,0,5,11
24473,3e-05,0.00043,-0.00036,-0.00115,-0.00026,-0.00022,-2e-05,0,5,11
24474,3e-05,0.00043,-0.00036,-0.00115,-0.00026,-0.00022,-2e-05,0,5,11
24475,3e-05,0.00043,-0.00036,-0.00115,-0.00026,-0.00022,-2e-05,0,5,11
24476,3e-05,0.00043,-0.00036,-0.00115,-0.00026,-0.00022,-2e-05,0,5,11
24477,3e-05,0.00043,-0.00036,-0.00115,-0.00026,-0.00022,-2e-05,0,5,11
24478,3e-05,0.00043,-0.00036,-0.00115,-0.00026,-0.00022,-2e-05,0,5,11
24479,3e-05,0.00043,-0.00036,-0.00115,-0.00026,-0.00022,-2e-05,0,5,11
24480,3e-05,0.00043,-0.00036,-0.00115,-0.00026,-0.00022,-2e-05,0,5,11
24481,3e-05,0.00043,-0.00036,-0.00115,-0.00026,-0.00022,-2e-05,0,5,11
24482,3e-05,0.00043,-0.00036,-0.00115,-0.00026,-0.00022,-2e-05,0,5,11
24483,3e-05,0.00043,-0.00036,-0.00115,-0.00026,-0.00022,-2e-05,0,5,11
24484,3e-05,0.00043,-0.00036,-0.00115,-0.00026,-0.00022,-2e-05,0,5,11
24485,3e-05,0.00043,-0.00036,-0.00115,-0.00026,-0.00022,-2e-05,0,5,11
24486,3e-05,0.00043,-0.00036,-0.00115,-0.00026,-0.00022,-2e-05,0,5,11
24488,3e-05,0.00043,-0.00036,-0.00115,-0.00026,-0.00022,-2e-05,0,5,11
24489,3e-05,0.00043,-0.00036,-0.00115,-0.00026,-0.00022,-2e-05,0,5,11
24490,3e-05,0.00043,-0.00036,-0.00115,-0.00026,-0.00022,-2e-05,0,5,11
24491,3e-05,0.00043,-0.00036,-0.00115,-0.00026,-0.00022,-2e-05,0,5,11
24492,3e-05,0.00043,-0.00036,-0.00115,-0.00026,-0.00022,-2e-05,0,5,11
24493,3e-05,0.00043,-0.00036,-0.00115,-0.00026,-0.00022,-2e-05,0,5,11
24494,3e-05,0.00043,-0.00036,-0.00115,-0.00026,-0.00022,-2e-05,0,5,11
24495,1e-05,-5e-05,-5e-05,0.00012,0.00027,0.00019,3e-05,-1e-05,5,11
24496,9e-05,0.00068,5e-05,5e-05,6e-05,-0.0003,4e-05,1e-05,5,11
24497,9e-05,0.00068,5e-05,5e-05,6e-05,-0.0003,4e-05,1e-05,5,11
24498,9e-05,0.00068,5e-05,5e-05,6e-05,-0.0003,4e-05,1e-05,5,11
24499,9e-05,0.00068,5e-05,5e-05,6e-05,-0.0003,4e-05,1e-05,5,11
24500,9e-05,0.00068,5e-05,5e-05,6e-05,-0.0003,4e-05,1e-05,5,11
24501,0.0001,0.00011,0.00022,8e-05,-2e-05,-0.00024,-9e-05,0,5,11
24502,0.0001,0.00011,0.00022,8e-05,-2e-05,-0.00024,-9e-05,0,5,11
24503,0.0001,0.00011,0.00022,8e-05,-2e-05,-0.00024,-9e-05,0,5,11
24504,0.0001,0.00011,0.00022,8e-05,-2e-05,-0.00024,-9e-05,0,5,11
24505,0.0001,0.00011,0.00022,8e-05,-2e-05,-0.00024,-9e-05,0,5,11
24506,0.0001,0.00011,0.00022,8e-05,-2e-05,-0.00024,-9e-05,0,5,11
24507,0.0001,0.00011,0.00022,8e-05,-2e-05,-0.00024,-9e-05,0,5,11
24508,0.0001,0.00011,0.00022,8e-05,-2e-05,-0.00024,-9e-05,0,5,11
24509,0.0001,0.00011,0.00022,8e-05,-2e-05,-0.00024,-9e-05,0,5,11
24510,-0.00046,-0.00011,-0.00042,-0.0007,0.00037,0.0002,0.00013,0,5,11
24511,-0.00046,-0.00011,-0.00042,-0.0007,0.00037,0.0002,0.00013,0,5,11
24512,-0.00046,-0.00011,-0.00042,-0.0007,0.00037,0.0002,0.00013,0,5,11
24513,-0.00046,-0.00011,-0.00042,-0.0007,0.00037,0.0002,0.00013,0,5,11
24514,-0.00046,-0.00011,-0.00042,-0.0007,0.00037,0.0002,0.00013,0,5,11
24515,-0.00046,-0.00011,-0.00042,-0.0007,0.00037,0.0002,0.00013,0,5,11
24516,-0.00046,-0.00011,-0.00042,-0.0007,0.00037,0.0002,0.00013,0,5,11
24517,-0.00046,-0.00011,-0.00042,-0.0007,0.00037,0.0002,0.00013,0,5,11
24518,-0.00046,-0.00011,-0.00042,-0.0007,0.00037,0.0002,0.00013,0,5,11
24519,-0.00046,-0.00011,-0.00042,-0.0007,0.00037,0.0002,0.00013,0,5,11
24520,-0.00046,-0.00011,-0.00042,-0.0007,0.00037,0.0002,0.00013,0,5,11
24521,-0.00046,-0.00011,-0.00042,-0.0007,0.00037,0.0002,0.00013,0,5,11
24522,-0.00046,-0.00011,-0.00042,-0.0007,0.00037,0.0002,0.00013,0,5,11
24523,-0.00046,-0.00011,-0.00042,-0.0007,0.00037,0.0002,0.00013,0,5,11
24524,-4e-05,-0.00076,-9e-05,-5e-05,-0.00036,-0.00043,0,1e-05,5,11
24525,0.00026,-3e-05,9e-05,0.00068,-9e-05,0.00035,0,-2e-05,5,11
24526,-5e-05,0.00014,0.00013,-0.00017,-0.00012,-0.00013,-0.00018,-5e-05,5,11
24527,-5e-05,0.00014,0.00013,-0.00017,-0.00012,-0.00013,-0.00018,-5e-05,5,11
24528,-5e-05,0.00014,0.00013,-0.00017,-0.00012,-0.00013,-0.00018,-5e-05,5,11
24529,-5e-05,0.00014,0.00013,-0.00017,-0.00012,-0.00013,-0.00018,-5e-05,5,11
24530,-5e-05,0.00014,0.00013,-0.00017,-0.00012,-0.00013,-0.00018,-5e-05,5,11
24531,-5e-05,0.00014,0.00013,-0.00017,-0.00012,-0.00013,-0.00018,-5e-05,5,11
24532,-5e-05,0.00014,0.00013,-0.00017,-0.00012,-0.00013,-0.00018,-5e-05,5,11
24533,-5e-05,0.00014,0.00013,-0.00017,-0.00012,-0.00013,-0.00018,-5e-05,5,11
24534,-5e-05,0.00014,0.00013,-0.00017,-0.00012,-0.00013,-0.00018,-5e-05,5,11
24535,-5e-05,0.00014,0.00013,-0.00017,-0.00012,-0.00013,-0.00018,-5e-05,5,11
24537,-5e-05,0.00014,0.00013,-0.00017,-0.00012,-0.00013,-0.00018,-5e-05,5,11
24539,-5e-05,0.00014,0.00013,-0.00017,-0.00012,-0.00013,-0.00018,-5e-05,5,11
24540,-5e-05,0.00014,0.00013,-0.00017,-0.00012,-0.00013,-0.00018,-5e-05,5,11
24541,-5e-05,0.00014,0.00013,-0.00017,-0.00012,-0.00013,-0.00018,-5e-05,5,11
24542,-5e-05,0.00014,0.00013,-0.00017,-0.00012,-0.00013,-0.00018,-5e-05,5,11
24543,-5e-05,0.00014,0.00013,-0.00017,-0.00012,-0.00013,-0.00018,-5e-05,5,11
24544,-5e-05,0.00014,0.00013,-0.00017,-0.00012,-0.00013,-0.00018,-5e-05,5,11
24545,-5e-05,0.00014,0.00013,-0.00017,-0.00012,-0.00013,-0.00018,-5e-05,5,11
24546,-5e-05,0.00014,0.00013,-0.00017,-0.00012,-0.00013,-0.00018,-5e-05,5,11
24547,-0.00014,-0.00014,-0.00037,-0.00038,-0.00023,2e-05,-6e-05,-4e-05,5,11
24548,-0.00014,-0.00014,-0.00037,-0.00038,-0.00023,2e-05,-6e-05,-4e-05,5,11
24549,-6e-05,-2e-05,5e-05,-0.00054,9e-05,-4e-05,0,-2e-05,5,11
24550,-6e-05,-2e-05,5e-05,-0.00054,9e-05,-4e-05,0,-2e-05,5,11
24551,-6e-05,-2e-05,5e-05,-0.00054,9e-05,-4e-05,0,-2e-05,5,11
24552,-6e-05,-2e-05,5e-05,-0.00054,9e-05,-4e-05,0,-2e-05,5,11
24553,-6e-05,-2e-05,5e-05,-0.00054,9e-05,-4e-05,0,-2e-05,5,11
24554,-6e-05,-2e-05,5e-05,-0.00054,9e-05,-4e-05,0,-2e-05,5,11
24555,-6e-05,-2e-05,5e-05,-0.00054,9e-05,-4e-05,0,-2e-05,5,11
24556,-6e-05,-2e-05,5e-05,-0.00054,9e-05,-4e-05,0,-2e-05,5,11
24557,-6e-05,-2e-05,5e-05,-0.00054,9e-05,-4e-05,0,-2e-05,5,11
24558,-6e-05,-2e-05,5e-05,-0.00054,9e-05,-4e-05,0,-2e-05,5,11
24559,-6e-05,-2e-05,5e-05,-0.00054,9e-05,-4e-05,0,-2e-05,5,11
24560,-6e-05,-2e-05,5e-05,-0.00054,9e-05,-4e-05,0,-2e-05,5,11
24561,-5e-05,-0.00025,-0.00047,-0.00054,-0.00027,-0.00069,-0.00012,-7e-05,5,11
24562,-5e-05,-0.00025,-0.00047,-0.00054,-0.00027,-0.00069,-0.00012,-7e-05,5,11
24563,-5e-05,-0.00025,-0.00047,-0.00054,-0.00027,-0.00069,-0.00012,-7e-05,5,11
24564,-5e-05,-0.00025,-0.00047,-0.00054,-0.00027,-0.00069,-0.00012,-7e-05,5,11
24565,-5e-05,-0.00025,-0.00047,-0.00054,-0.00027,-0.00069,-0.00012,-7e-05,5,11
24566,-5e-05,-0.00025,-0.00047,-0.00054,-0.00027,-0.00069,-0.00012,-7e-05,5,11
24567,-5e-05,-0.00025,-0.00047,-0.00054,-0.00027,-0.00069,-0.00012,-7e-05,5,11
24568,-5e-05,-0.00025,-0.00047,-0.00054,-0.00027,-0.00069,-0.00012,-7e-05,5,11
24569,-5e-05,-0.00025,-0.00047,-0.00054,-0.00027,-0.00069,-0.00012,-7e-05,5,11
24570,-0.00015,-0.00116,1e-05,0.00038,-0.00029,-0.00031,-4e-05,-5e-05,5,11
24571,-0.00015,-0.00116,1e-05,0.00038,-0.00029,-0.00031,-4e-05,-5e-05,5,11
24572,-0.00015,-0.00116,1e-05,0.00038,-0.00029,-0.00031,-4e-05,-5e-05,5,11
24573,-0.00015,-0.00116,1e-05,0.00038,-0.00029,-0.00031,-4e-05,-5e-05,5,11
24574,-0.00015,-0.00116,1e-05,0.00038,-0.00029,-0.00031,-4e-05,-5e-05,5,11
24575,-0.00015,-0.00116,1e-05,0.00038,-0.00029,-0.00031,-4e-05,-5e-05,5,11
24576,-0.00015,-0.00116,1e-05,0.00038,-0.00029,-0.00031,-4e-05,-5e-05,5,11
24577,-0.00015,-0.00116,1e-05,0.00038,-0.00029,-0.00031,-4e-05,-5e-05,5,11
24578,-0.00015,-0.00116,1e-05,0.00038,-0.00029,-0.00031,-4e-05,-5e-05,5,11
24579,-0.00015,-0.00116,1e-05,0.00038,-0.00029,-0.00031,-4e-05,-5e-05,5,11
24580,-0.00015,-0.00116,1e-05,0.00038,-0.00029,-0.00031,-4e-05,-5e-05,5,11
24581,-0.00015,-0.00116,1e-05,0.00038,-0.00029,-0.00031,-4e-05,-5e-05,5,11
24582,-0.00015,-0.00116,1e-05,0.00038,-0.00029,-0.00031,-4e-05,-5e-05,5,11
24583,-0.00015,-0.00116,1e-05,0.00038,-0.00029,-0.00031,-4e-05,-5e-05,5,11
24584,-0.00015,-0.00116,1e-05,0.00038,-0.00029,-0.00031,-4e-05,-5e-05,5,11
24585,-7e-05,0.00059,0.00016,4e-05,-0.00022,0.00026,4e-05,3e-05,5,11
24587,0.00015,-0.00047,-3e-05,-0.00011,-0.00023,-0.00036,-0.00011,-4e-05,5,11
24589,0.00015,-0.00047,-3e-05,-0.00011,-0.00023,-0.00036,-0.00011,-4e-05,5,11
24590,0.00015,-0.00047,-3e-05,-0.00011,-0.00023,-0.00036,-0.00011,-4e-05,5,11
24591,0.00015,-0.00047,-3e-05,-0.00011,-0.00023,-0.00036,-0.00011,-4e-05,5,11
24592,0.00015,-0.00047,-3e-05,-0.00011,-0.00023,-0.00036,-0.00011,-4e-05,5,11
24593,0.00015,-0.00047,-3e-05,-0.00011,-0.00023,-0.00036,-0.00011,-4e-05,5,11
24594,0.00015,-0.00047,-3e-05,-0.00011,-0.00023,-0.00036,-0.00011,-4e-05,5,11
24595,0.00015,-0.00047,-3e-05,-0.00011,-0.00023,-0.00036,-0.00011,-4e-05,5,11
24596,0.00015,-0.00047,-3e-05,-0.00011,-0.00023,-0.00036,-0.00011,-4e-05,5,11
24597,0.00015,-0.00047,-3e-05,-0.00011,-0.00023,-0.00036,-0.00011,-4e-05,5,11
24598,0.00015,-0.00047,-3e-05,-0.00011,-0.00023,-0.00036,-0.00011,-4e-05,5,11
24599,0.00015,-0.00047,-3e-05,-0.00011,-0.00023,-0.00036,-0.00011,-4e-05,5,11
24600,0.00015,-0.00047,-3e-05,-0.00011,-0.00023,-0.00036,-0.00011,-4e-05,5,11
24601,0.00015,-0.00047,-3e-05,-0.00011,-0.00023,-0.00036,-0.00011,-4e-05,5,11
24602,0.00015,-0.00047,-3e-05,-0.00011,-0.00023,-0.00036,-0.00011,-4e-05,5,11
24603,0.00015,-0.00047,-3e-05,-0.00011,-0.00023,-0.00036,-0.00011,-4e-05,5,11
24604,0.00015,-0.00047,-3e-05,-0.00011,-0.00023,-0.00036,-0.00011,-4e-05,5,11
24605,0.00015,-0.00047,-3e-05,-0.00011,-0.00023,-0.00036,-0.00011,-4e-05,5,11
24606,0.00015,-0.00047,-3e-05,-0.00011,-0.00023,-0.00036,-0.00011,-4e-05,5,11
24607,-7e-05,-0.00039,0.00018,0.00087,0.00067,0.00024,0,-6e-05,5,11
24608,-7e-05,-0.00039,0.00018,0.00087,0.00067,0.00024,0,-6e-05,5,11
24609,0.0003,0.0001,0.00011,0.00046,0.00094,0.00015,-1e-05,2e-05,5,11
24610,0.0003,0.0001,0.00011,0.00046,0.00094,0.00015,-1e-05,2e-05,5,11
24611,0.0003,0.0001,0.00011,0.00046,0.00094,0.00015,-1e-05,2e-05,5,11
24612,0.0003,0.0001,0.00011,0.00046,0.00094,0.00015,-1e-05,2e-05,5,11
24613,0.0003,0.0001,0.00011,0.00046,0.00094,0.00015,-1e-05,2e-05,5,11
24614,0.0003,0.0001,0.00011,0.00046,0.00094,0.00015,-1e-05,2e-05,5,11
24615,0.0003,0.0001,0.00011,0.00046,0.00094,0.00015,-1e-05,2e-05,5,11
24616,0.0003,0.0001,0.00011,0.00046,0.00094,0.00015,-1e-05,2e-05,5,11
24617,0.0003,0.0001,0.00011,0.00046,0.00094,0.00015,-1e-05,2e-05,5,11
24618,0.0003,0.0001,0.00011,0.00046,0.00094,0.00015,-1e-05,2e-05,5,11
24619,0.0003,0.0001,0.00011,0.00046,0.00094,0.00015,-1e-05,2e-05,5,11
24620,0.0003,0.0001,0.00011,0.00046,0.00094,0.00015,-1e-05,2e-05,5,11
24621,5e-05,-0.00034,0.00041,0.00086,0.00012,-0.00016,7e-05,4e-05,5,11
24622,5e-05,-0.00034,0.00041,0.00086,0.00012,-0.00016,7e-05,4e-05,5,11
24623,5e-05,-0.00034,0.00041,0.00086,0.00012,-0.00016,7e-05,4e-05,5,11
24624,5e-05,-0.00034,0.00041,0.00086,0.00012,-0.00016,7e-05,4e-05,5,11
24625,5e-05,-0.00034,0.00041,0.00086,0.00012,-0.00016,7e-05,4e-05,5,11
24626,5e-05,-0.00034,0.00041,0.00086,0.00012,-0.00016,7e-05,4e-05,5,11
24627,5e-05,-0.00034,0.00041,0.00086,0.00012,-0.00016,7e-05,4e-05,5,11
24628,5e-05,-0.00034,0.00041,0.00086,0.00012,-0.00016,7e-05,4e-05,5,11
24629,5e-05,-0.00034,0.00041,0.00086,0.00012,-0.00016,7e-05,4e-05,5,11
24630,-0.00021,-6e-05,-0.00022,-0.00066,-0.00095,-8e-05,-2e-05,1e-05,5,11
24631,-0.00021,-6e-05,-0.00022,-0.00066,-0.00095,-8e-05,-2e-05,1e-05,5,11
24632,-0.00021,-6e-05,-0.00022,-0.00066,-0.00095,-8e-05,-2e-05,1e-05,5,11
24633,-0.00021,-6e-05,-0.00022,-0.00066,-0.00095,-8e-05,-2e-05,1e-05,5,11
24634,-0.00021,-6e-05,-0.00022,-0.00066,-0.00095,-8e-05,-2e-05,1e-05,5,11
24635,-0.00021,-6e-05,-0.00022,-0.00066,-0.00095,-8e-05,-2e-05,1e-05,5,11
24636,-0.00021,-6e-05,-0.00022,-0.00066,-0.00095,-8e-05,-2e-05,1e-05,5,11
24638,-0.00021,-6e-05,-0.00022,-0.00066,-0.00095,-8e-05,-2e-05,1e-05,5,11
24639,-0.00021,-6e-05,-0.00022,-0.00066,-0.00095,-8e-05,-2e-05,1e-05,5,11
24640,-0.00021,-6e-05,-0.00022,-0.00066,-0.00095,-8e-05,-2e-05,1e-05,5,11
24641,-0.00021,-6e-05,-0.00022,-0.00066,-0.00095,-8e-05,-2e-05,1e-05,5,11
24642,-0.00021,-6e-05,-0.00022,-0.00066,-0.00095,-8e-05,-2e-05,1e-05,5,11
24643,-0.00021,-6e-05,-0.00022,-0.00066,-0.00095,-8e-05,-2e-05,1e-05,5,11
24644,-0.00021,-6e-05,-0.00022,-0.00066,-0.00095,-8e-05,-2e-05,1e-05,5,11
24645,9e-05,-1e-05,0.0003,0.00091,0.00069,0.00027,7e-05,-1e-05,5,11
24646,-9e-05,0.00049,-9e-05,-0.00013,-0.00026,-0.00043,-0.00011,0,5,11
24647,-9e-05,0.00049,-9e-05,-0.00013,-0.00026,-0.00043,-0.00011,0,5,11
24648,-9e-05,0.00049,-9e-05,-0.00013,-0.00026,-0.00043,-0.00011,0,5,11
24649,-9e-05,0.00049,-9e-05,-0.00013,-0.00026,-0.00043,-0.00011,0,5,11
24650,-9e-05,0.00049,-9e-05,-0.00013,-0.00026,-0.00043,-0.00011,0,5,11
24651,-9e-05,0.00049,-9e-05,-0.00013,-0.00026,-0.00043,-0.00011,0,5,11
24652,-9e-05,0.00049,-9e-05,-0.00013,-0.00026,-0.00043,-0.00011,0,5,11
24653,-9e-05,0.00049,-9e-05,-0.00013,-0.00026,-0.00043,-0.00011,0,5,11
24654,-9e-05,0.00049,-9e-05,-0.00013,-0.00026,-0.00043,-0.00011,0,5,11
24655,-9e-05,0.00049,-9e-05,-0.00013,-0.00026,-0.00043,-0.00011,0,5,11
24656,-9e-05,0.00049,-9e-05,-0.00013,-0.00026,-0.00043,-0.00011,0,5,11
24657,-9e-05,0.00049,-9e-05,-0.00013,-0.00026,-0.00043,-0.00011,0,5,11
24658,-9e-05,0.00049,-9e-05,-0.00013,-0.00026,-0.00043,-0.00011,0,5,11
24659,-9e-05,0.00049,-9e-05,-0.00013,-0.00026,-0.00043,-0.00011,0,5,11
24660,-9e-05,0.00049,-9e-05,-0.00013,-0.00026,-0.00043,-0.00011,0,5,11
24661,-9e-05,0.00049,-9e-05,-0.00013,-0.00026,-0.00043,-0.00011,0,5,11
24662,-9e-05,0.00049,-9e-05,-0.00013,-0.00026,-0.00043,-0.00011,0,5,11
24663,-9e-05,0.00049,-9e-05,-0.00013,-0.00026,-0.00043,-0.00011,0,5,11
24664,-9e-05,0.00049,-9e-05,-0.00013,-0.00026,-0.00043,-0.00011,0,5,11
24665,-9e-05,0.00049,-9e-05,-0.00013,-0.00026,-0.00043,-0.00011,0,5,11
24666,-9e-05,0.00049,-9e-05,-0.00013,-0.00026,-0.00043,-0.00011,0,5,11
24667,0.00023,0.00026,5e-05,-0.00026,-0.00034,6e-05,1e-05,-3e-05,5,11
24668,0.00023,0.00026,5e-05,-0.00026,-0.00034,6e-05,1e-05,-3e-05,5,11
24669,-2e-05,0.00045,0.00018,0.00039,0.00036,0.00052,-8e-05,-4e-05,5,11
24670,-2e-05,0.00045,0.00018,0.00039,0.00036,0.00052,-8e-05,-4e-05,5,11
24671,-2e-05,0.00045,0.00018,0.00039,0.00036,0.00052,-8e-05,-4e-05,5,11
24672,-2e-05,0.00045,0.00018,0.00039,0.00036,0.00052,-8e-05,-4e-05,5,11
24673,-2e-05,0.00045,0.00018,0.00039,0.00036,0.00052,-8e-05,-4e-05,5,11
24674,-2e-05,0.00045,0.00018,0.00039,0.00036,0.00052,-8e-05,-4e-05,5,11
24675,-2e-05,0.00045,0.00018,0.00039,0.00036,0.00052,-8e-05,-4e-05,5,11
24676,-2e-05,0.00045,0.00018,0.00039,0.00036,0.00052,-8e-05,-4e-05,5,11
24677,-2e-05,0.00045,0.00018,0.00039,0.00036,0.00052,-8e-05,-4e-05,5,11
24678,-2e-05,0.00045,0.00018,0.00039,0.00036,0.00052,-8e-05,-4e-05,5,11
24679,-2e-05,0.00045,0.00018,0.00039,0.00036,0.00052,-8e-05,-4e-05,5,11
24680,-2e-05,0.00045,0.00018,0.00039,0.00036,0.00052,-8e-05,-4e-05,5,11
24681,-0.00013,0.00013,0,0.00019,-0.00029,-7e-05,6e-05,4e-05,5,11
24682,-0.00013,0.00013,0,0.00019,-0.00029,-7e-05,6e-05,4e-05,5,11
24683,-0.00013,0.00013,0,0.00019,-0.00029,-7e-05,6e-05,4e-05,5,11
24684,-0.00013,0.00013,0,0.00019,-0.00029,-7e-05,6e-05,4e-05,5,11
24685,-0.00013,0.00013,0,0.00019,-0.00029,-7e-05,6e-05,4e-05,5,11
24686,-0.00013,0.00013,0,0.00019,-0.00029,-7e-05,6e-05,4e-05,5,11
24688,-0.00013,0.00013,0,0.00019,-0.00029,-7e-05,6e-05,4e-05,5,11
24689,-0.00013,0.00013,0,0.00019,-0.00029,-7e-05,6e-05,4e-05,5,11
24690,-7e-05,0.00084,8e-05,0.00036,-0.00026,-0.00022,-1e-05,-1e-05,5,11
24691,-7e-05,0.00084,8e-05,0.00036,-0.00026,-0.00022,-1e-05,-1e-05,5,11
24692,-7e-05,0.00084,8e-05,0.00036,-0.00026,-0.00022,-1e-05,-1e-05,5,11
24693,-7e-05,0.00084,8e-05,0.00036,-0.00026,-0.00022,-1e-05,-1e-05,5,11
24694,-7e-05,0.00084,8e-05,0.00036,-0.00026,-0.00022,-1e-05,-1e-05,5,11
24695,-7e-05,0.00084,8e-05,0.00036,-0.00026,-0.00022,-1e-05,-1e-05,5,11
24696,-7e-05,0.00084,8e-05,0.00036,-0.00026,-0.00022,-1e-05,-1e-05,5,11
24697,-7e-05,0.00084,8e-05,0.00036,-0.00026,-0.00022,-1e-05,-1e-05,5,11
24698,-7e-05,0.00084,8e-05,0.00036,-0.00026,-0.00022,-1e-05,-1e-05,5,11
24699,-7e-05,0.00084,8e-05,0.00036,-0.00026,-0.00022,-1e-05,-1e-05,5,11
24700,-7e-05,0.00084,8e-05,0.00036,-0.00026,-0.00022,-1e-05,-1e-05,5,11
24701,-7e-05,0.00084,8e-05,0.00036,-0.00026,-0.00022,-1e-05,-1e-05,5,11
24702,-7e-05,0.00084,8e-05,0.00036,-0.00026,-0.00022,-1e-05,-1e-05,5,11
24703,-7e-05,0.00084,8e-05,0.00036,-0.00026,-0.00022,-1e-05,-1e-05,5,11
24704,-7e-05,0.00084,8e-05,0.00036,-0.00026,-0.00022,-1e-05,-1e-05,5,11
24705,7e-05,-0.00046,-1e-05,-0.00102,-0.00045,0.00032,-0.0001,-5e-05,5,11
24706,3e-05,7e-05,-0.00012,0.00095,3e-05,-0.00025,2e-05,-1e-05,5,11
24707,3e-05,7e-05,-0.00012,0.00095,3e-05,-0.00025,2e-05,-1e-05,5,11
24708,3e-05,7e-05,-0.00012,0.00095,3e-05,-0.00025,2e-05,-1e-05,5,11
24709,3e-05,7e-05,-0.00012,0.00095,3e-05,-0.00025,2e-05,-1e-05,5,11
24710,3e-05,7e-05,-0.00012,0.00095,3e-05,-0.00025,2e-05,-1e-05,5,11
24711,3e-05,7e-05,-0.00012,0.00095,3e-05,-0.00025,2e-05,-1e-05,5,11
24712,3e-05,7e-05,-0.00012,0.00095,3e-05,-0.00025,2e-05,-1e-05,5,11
24713,3e-05,7e-05,-0.00012,0.00095,3e-05,-0.00025,2e-05,-1e-05,5,11
24714,3e-05,7e-05,-0.00012,0.00095,3e-05,-0.00025,2e-05,-1e-05,5,11
24715,3e-05,7e-05,-0.00012,0.00095,3e-05,-0.00025,2e-05,-1e-05,5,11
24716,3e-05,7e-05,-0.00012,0.00095,3e-05,-0.00025,2e-05,-1e-05,5,11
24717,3e-05,7e-05,-0.00012,0.00095,3e-05,-0.00025,2e-05,-1e-05,5,11
24718,3e-05,7e-05,-0.00012,0.00095,3e-05,-0.00025,2e-05,-1e-05,5,11
24719,3e-05,7e-05,-0.00012,0.00095,3e-05,-0.00025,2e-05,-1e-05,5,11
24720,3e-05,7e-05,-0.00012,0.00095,3e-05,-0.00025,2e-05,-1e-05,5,11
24721,3e-05,7e-05,-0.00012,0.00095,3e-05,-0.00025,2e-05,-1e-05,5,11
24722,3e-05,7e-05,-0.00012,0.00095,3e-05,-0.00025,2e-05,-1e-05,5,11
24723,3e-05,7e-05,-0.00012,0.00095,3e-05,-0.00025,2e-05,-1e-05,5,11
24724,3e-05,7e-05,-0.00012,0.00095,3e-05,-0.00025,2e-05,-1e-05,5,11
24725,3e-05,7e-05,-0.00012,0.00095,3e-05,-0.00025,2e-05,-1e-05,5,11
24726,3e-05,7e-05,-0.00012,0.00095,3e-05,-0.00025,2e-05,-1e-05,5,11
24727,-0.00026,-0.00093,-0.00031,-0.00029,0.00018,-0.00022,-7e-05,-4e-05,5,11
24728,-0.00026,-0.00093,-0.00031,-0.00029,0.00018,-0.00022,-7e-05,-4e-05,5,11
24729,7e-05,0.00027,-9e-05,-0.00024,-7e-05,-2e-05,4e-05,3e-05,5,11
24730,7e-05,0.00027,-9e-05,-0.00024,-7e-05,-2e-05,4e-05,3e-05,5,11
24731,7e-05,0.00027,-9e-05,-0.00024,-7e-05,-2e-05,4e-05,3e-05,5,11
24732,7e-05,0.00027,-9e-05,-0.00024,-7e-05,-2e-05,4e-05,3e-05,5,11
24733,7e-05,0.00027,-9e-05,-0.00024,-7e-05,-2e-05,4e-05,3e-05,5,11
24734,7e-05,0.00027,-9e-05,-0.00024,-7e-05,-2e-05,4e-05,3e-05,5,11
24735,7e-05,0.00027,-9e-05,-0.00024,-7e-05,-2e-05,4e-05,3e-05,5,11
24736,7e-05,0.00027,-9e-05,-0.00024,-7e-05,-2e-05,4e-05,3e-05,5,11
24738,7e-05,0.00027,-9e-05,-0.00024,-7e-05,-2e-05,4e-05,3e-05,5,11
24739,7e-05,0.00027,-9e-05,-0.00024,-7e-05,-2e-05,4e-05,3e-05,5,11
24740,7e-05,0.00027,-9e-05,-0.00024,-7e-05,-2e-05,4e-05,3e-05,5,11
24741,-0.00024,-0.0011,-0.00021,-0.00019,-6e-05,8e-05,-7e-05,-5e-05,5,11
24742,-0.00024,-0.0011,-0.00021,-0.00019,-6e-05,8e-05,-7e-05,-5e-05,5,11
24743,-0.00024,-0.0011,-0.00021,-0.00019,-6e-05,8e-05,-7e-05,-5e-05,5,11
24744,-0.00024,-0.0011,-0.00021,-0.00019,-6e-05,8e-05,-7e-05,-5e-05,5,11
24745,-0.00024,-0.0011,-0.00021,-0.00019,-6e-05,8e-05,-7e-05,-5e-05,5,11
24746,-0.00024,-0.0011,-0.00021,-0.00019,-6e-05,8e-05,-7e-05,-5e-05,5,11
24747,-0.00024,-0.0011,-0.00021,-0.00019,-6e-05,8e-05,-7e-05,-5e-05,5,11
24748,-0.00024,-0.0011,-0.00021,-0.00019,-6e-05,8e-05,-7e-05,-5e-05,5,11
24749,-0.00024,-0.0011,-0.00021,-0.00019,-6e-05,8e-05,-7e-05,-5e-05,5,11
24750,-5e-05,0.00011,0.00025,0.0004,-0.00041,9e-05,-1e-05,-2e-05,5,11
24751,-5e-05,0.00011,0.00025,0.0004,-0.00041,9e-05,-1e-05,-2e-05,5,11
24752,-5e-05,0.00011,0.00025,0.0004,-0.00041,9e-05,-1e-05,-2e-05,5,11
24753,-5e-05,0.00011,0.00025,0.0004,-0.00041,9e-05,-1e-05,-2e-05,5,11
24754,-5e-05,0.00011,0.00025,0.0004,-0.00041,9e-05,-1e-05,-2e-05,5,11
24755,-5e-05,0.00011,0.00025,0.0004,-0.00041,9e-05,-1e-05,-2e-05,5,11
24756,-5e-05,0.00011,0.00025,0.0004,-0.00041,9e-05,-1e-05,-2e-05,5,11
24757,-5e-05,0.00011,0.00025,0.0004,-0.00041,9e-05,-1e-05,-2e-05,5,11
24758,-5e-05,0.00011,0.00025,0.0004,-0.00041,9e-05,-1e-05,-2e-05,5,11
24759,-5e-05,0.00011,0.00025,0.0004,-0.00041,9e-05,-1e-05,-2e-05,5,11
24760,-5e-05,0.00011,0.00025,0.0004,-0.00041,9e-05,-1e-05,-2e-05,5,11
24761,-5e-05,0.00011,0.00025,0.0004,-0.00041,9e-05,-1e-05,-2e-05,5,11
24762,-5e-05,0.00011,0.00025,0.0004,-0.00041,9e-05,-1e-05,-2e-05,5,11
24763,-5e-05,0.00011,0.00025,0.0004,-0.00041,9e-05,-1e-05,-2e-05,5,11
24764,-5e-05,0.00011,0.00025,0.0004,-0.00041,9e-05,-1e-05,-2e-05,5,11
24765,0.00016,0.0002,0.0001,0.00025,0.00025,-8e-05,0.00017,0.00011,5,11
24766,0.00016,0.0002,0.0001,0.00025,0.00025,-8e-05,0.00017,0.00011,5,11
24767,0.00016,0.0002,0.0001,0.00025,0.00025,-8e-05,0.00017,0.00011,5,11
24768,0.00016,0.0002,0.0001,0.00025,0.00025,-8e-05,0.00017,0.00011,5,11
24769,0.00016,0.0002,0.0001,0.00025,0.00025,-8e-05,0.00017,0.00011,5,11
24770,0.00016,0.0002,0.0001,0.00025,0.00025,-8e-05,0.00017,0.00011,5,11
24771,0.00017,0.00031,8e-05,8e-05,-0.00031,0.00044,4e-05,0,5,11
24772,0.00017,0.00031,8e-05,8e-05,-0.00031,0.00044,4e-05,0,5,11
24773,0.00017,0.00031,8e-05,8e-05,-0.00031,0.00044,4e-05,0,5,11
24774,0.00017,0.00031,8e-05,8e-05,-0.00031,0.00044,4e-05,0,5,11
24775,0.00017,0.00031,8e-05,8e-05,-0.00031,0.00044,4e-05,0,5,11
24776,0.00017,0.00031,8e-05,8e-05,-0.00031,0.00044,4e-05,0,5,11
24777,0.00017,0.00031,8e-05,8e-05,-0.00031,0.00044,4e-05,0,5,11
24778,0.00017,0.00031,8e-05,8e-05,-0.00031,0.00044,4e-05,0,5,11
24779,0.00017,0.00031,8e-05,8e-05,-0.00031,0.00044,4e-05,0,5,11
24780,0.00017,0.00031,8e-05,8e-05,-0.00031,0.00044,4e-05,0,5,11
24781,0.00017,0.00031,8e-05,8e-05,-0.00031,0.00044,4e-05,0,5,11
24782,0.00017,0.00031,8e-05,8e-05,-0.00031,0.00044,4e-05,0,5,11
24783,0.00017,0.00031,8e-05,8e-05,-0.00031,0.00044,4e-05,0,5,11
24784,0.00017,0.00031,8e-05,8e-05,-0.00031,0.00044,4e-05,0,5,11
24785,0.00017,0.00031,8e-05,8e-05,-0.00031,0.00044,4e-05,0,5,11
24786,0.00017,0.00031,8e-05,8e-05,-0.00031,0.00044,4e-05,0,5,11
24789,-0.00028,-0.00043,1e-05,-0.00075,0.00028,-0.00018,-9e-05,-6e-05,5,11
24790,-0.00028,-0.00043,1e-05,-0.00075,0.00028,-0.00018,-9e-05,-6e-05,5,11
24791,-0.00028,-0.00043,1e-05,-0.00075,0.00028,-0.00018,-9e-05,-6e-05,5,11
24792,-0.00028,-0.00043,1e-05,-0.00075,0.00028,-0.00018,-9e-05,-6e-05,5,11
24793,-0.00028,-0.00043,1e-05,-0.00075,0.00028,-0.00018,-9e-05,-6e-05,5,11
24794,-0.00028,-0.00043,1e-05,-0.00075,0.00028,-0.00018,-9e-05,-6e-05,5,11
24795,-0.00028,-0.00043,1e-05,-0.00075,0.00028,-0.00018,-9e-05,-6e-05,5,11
24796,-0.00028,-0.00043,1e-05,-0.00075,0.00028,-0.00018,-9e-05,-6e-05,5,11
24797,-0.00028,-0.00043,1e-05,-0.00075,0.00028,-0.00018,-9e-05,-6e-05,5,11
24798,-0.00028,-0.00043,1e-05,-0.00075,0.00028,-0.00018,-9e-05,-6e-05,5,11
24799,-0.00028,-0.00043,1e-05,-0.00075,0.00028,-0.00018,-9e-05,-6e-05,5,11
24800,-0.00028,-0.00043,1e-05,-0.00075,0.00028,-0.00018,-9e-05,-6e-05,5,11
24801,-0.00028,-0.00043,1e-05,-0.00075,0.00028,-0.00018,-9e-05,-6e-05,5,11
24802,-0.00028,-0.00043,1e-05,-0.00075,0.00028,-0.00018,-9e-05,-6e-05,5,11
24803,-0.00028,-0.00043,1e-05,-0.00075,0.00028,-0.00018,-9e-05,-6e-05,5,11
24804,-0.00028,-0.00043,1e-05,-0.00075,0.00028,-0.00018,-9e-05,-6e-05,5,11
24805,-0.00028,-0.00043,1e-05,-0.00075,0.00028,-0.00018,-9e-05,-6e-05,5,11
24806,-0.00028,-0.00043,1e-05,-0.00075,0.00028,-0.00018,-9e-05,-6e-05,5,11
24807,-0.00028,-0.00043,1e-05,-0.00075,0.00028,-0.00018,-9e-05,-6e-05,5,11
24808,-0.00028,-0.00043,1e-05,-0.00075,0.00028,-0.00018,-9e-05,-6e-05,5,11
24809,-0.00028,-0.00043,1e-05,-0.00075,0.00028,-0.00018,-9e-05,-6e-05,5,11
24810,-0.00028,-0.00043,1e-05,-0.00075,0.00028,-0.00018,-9e-05,-6e-05,5,11
24811,-0.00028,-0.00043,1e-05,-0.00075,0.00028,-0.00018,-9e-05,-6e-05,5,11
24812,-0.00028,-0.00043,1e-05,-0.00075,0.00028,-0.00018,-9e-05,-6e-05,5,11
24813,-0.00028,-0.00043,1e-05,-0.00075,0.00028,-0.00018,-9e-05,-6e-05,5,11
60863,0.00049,0.00028,4e-05,-4e-05,0.00017,-2e-05,0,9e-05,5,11
60864,-0.00051,-0.00075,4e-05,0.00018,-0.00116,-0.00011,-1e-05,-7e-05,5,11
60865,-0.00051,-0.00075,4e-05,0.00018,-0.00116,-0.00011,-1e-05,-7e-05,5,11
60866,-0.00051,-0.00075,4e-05,0.00018,-0.00116,-0.00011,-1e-05,-7e-05,5,11
60867,-0.00051,-0.00075,4e-05,0.00018,-0.00116,-0.00011,-1e-05,-7e-05,5,11
60868,-0.00051,-0.00075,4e-05,0.00018,-0.00116,-0.00011,-1e-05,-7e-05,5,11
60869,-0.00051,-0.00075,4e-05,0.00018,-0.00116,-0.00011,-1e-05,-7e-05,5,11
60870,-0.00051,-0.00075,4e-05,0.00018,-0.00116,-0.00011,-1e-05,-7e-05,5,11
60871,-0.00051,-0.00075,4e-05,0.00018,-0.00116,-0.00011,-1e-05,-7e-05,5,11
60872,-0.00051,-0.00075,4e-05,0.00018,-0.00116,-0.00011,-1e-05,-7e-05,5,11
60873,-0.00051,-0.00075,4e-05,0.00018,-0.00116,-0.00011,-1e-05,-7e-05,5,11
60874,-0.00051,-0.00075,4e-05,0.00018,-0.00116,-0.00011,-1e-05,-7e-05,5,11
60875,-0.00051,-0.00075,4e-05,0.00018,-0.00116,-0.00011,-1e-05,-7e-05,5,11
60876,-0.00051,-0.00075,4e-05,0.00018,-0.00116,-0.00011,-1e-05,-7e-05,5,11
60877,-0.00051,-0.00075,4e-05,0.00018,-0.00116,-0.00011,-1e-05,-7e-05,5,11
60878,-0.00051,-0.00075,4e-05,0.00018,-0.00116,-0.00011,-1e-05,-7e-05,5,11
60879,-0.00051,-0.00075,4e-05,0.00018,-0.00116,-0.00011,-1e-05,-7e-05,5,11
60880,-0.00051,-0.00075,4e-05,0.00018,-0.00116,-0.00011,-1e-05,-7e-05,5,11
60881,-0.00051,-0.00075,4e-05,0.00018,-0.00116,-0.00011,-1e-05,-7e-05,5,11
60882,-0.00051,-0.00075,4e-05,0.00018,-0.00116,-0.00011,-1e-05,-7e-05,5,11
60883,-0.00051,-0.00075,4e-05,0.00018,-0.00116,-0.00011,-1e-05,-7e-05,5,11
60884,-0.00051,-0.00075,4e-05,0.00018,-0.00116,-0.00011,-1e-05,-7e-05,5,11
60885,-0.00025,0.00084,0.00015,0.0001,1e-05,0.0003,0.00011,1e-05,5,11
60886,-0.00025,0.00084,0.00015,0.0001,1e-05,0.0003,0.00011,1e-05,5,11
60888,-0.00048,-0.0007,-9e-05,0.0001,-0.00017,-0.00041,-0.00011,-6e-05,5,11
60889,-0.00048,-0.0007,-9e-05,0.0001,-0.00017,-0.00041,-0.00011,-6e-05,5,11
60890,-0.00048,-0.0007,-9e-05,0.0001,-0.00017,-0.00041,-0.00011,-6e-05,5,11
60891,-0.00048,-0.0007,-9e-05,0.0001,-0.00017,-0.00041,-0.00011,-6e-05,5,11
60892,-0.00048,-0.0007,-9e-05,0.0001,-0.00017,-0.00041,-0.00011,-6e-05,5,11
60893,-0.00048,-0.0007,-9e-05,0.0001,-0.00017,-0.00041,-0.00011,-6e-05,5,11
60894,-0.00048,-0.0007,-9e-05,0.0001,-0.00017,-0.00041,-0.00011,-6e-05,5,11
60895,-0.00048,-0.0007,-9e-05,0.0001,-0.00017,-0.00041,-0.00011,-6e-05,5,11
60896,-0.00048,-0.0007,-9e-05,0.0001,-0.00017,-0.00041,-0.00011,-6e-05,5,11
60897,-0.00048,-0.0007,-9e-05,0.0001,-0.00017,-0.00041,-0.00011,-6e-05,5,11
60898,-0.00048,-0.0007,-9e-05,0.0001,-0.00017,-0.00041,-0.00011,-6e-05,5,11
60899,-0.00048,-0.0007,-9e-05,0.0001,-0.00017,-0.00041,-0.00011,-6e-05,5,11
60900,2e-05,0.00017,0.00027,0.00082,-0.00053,0.00011,0.00011,5e-05,5,11
60901,2e-05,0.00017,0.00027,0.00082,-0.00053,0.00011,0.00011,5e-05,5,11
60902,-0.00011,-0.00064,3e-05,-7e-05,0.00113,0.00024,-3e-05,-2e-05,5,11
60903,-0.00011,-0.00064,3e-05,-7e-05,0.00113,0.00024,-3e-05,-2e-05,5,11
60904,-0.00011,-0.00064,3e-05,-7e-05,0.00113,0.00024,-3e-05,-2e-05,5,11
60905,-0.00011,-0.00064,3e-05,-7e-05,0.00113,0.00024,-3e-05,-2e-05,5,11
60906,-0.00011,-0.00064,3e-05,-7e-05,0.00113,0.00024,-3e-05,-2e-05,5,11
60907,-0.00011,-0.00064,3e-05,-7e-05,0.00113,0.00024,-3e-05,-2e-05,5,11
