21503,-0.00019,-8e-05,-0.00012,0.00014,-8e-05,-0.00038,5e-05,0,5,14
21504,-0.00019,-8e-05,-0.00012,0.00014,-8e-05,-0.00038,5e-05,0,5,14
21505,-0.00019,-8e-05,-0.00012,0.00014,-8e-05,-0.00038,5e-05,0,5,14
21506,-0.00019,-8e-05,-0.00012,0.00014,-8e-05,-0.00038,5e-05,0,5,14
21507,-0.00019,-8e-05,-0.00012,0.00014,-8e-05,-0.00038,5e-05,0,5,14
21508,3e-05,-3e-05,-5e-05,-0.00041,-4e-05,0,-5e-05,-5e-05,5,14
21509,0,-6e-05,-6e-05,-6e-05,2e-05,-8e-05,-8e-05,-6e-05,5,14
21510,0,-6e-05,-6e-05,-6e-05,2e-05,-8e-05,-8e-05,-6e-05,5,14
21511,0,-6e-05,-6e-05,-6e-05,2e-05,-8e-05,-8e-05,-6e-05,5,14
21512,0,-6e-05,-6e-05,-6e-05,2e-05,-8e-05,-8e-05,-6e-05,5,14
21513,0,-6e-05,-6e-05,-6e-05,2e-05,-8e-05,-8e-05,-6e-05,5,14
21514,0,-6e-05,-6e-05,-6e-05,2e-05,-8e-05,-8e-05,-6e-05,5,14
21515,0,-6e-05,-6e-05,-6e-05,2e-05,-8e-05,-8e-05,-6e-05,5,14
21516,0,-6e-05,-6e-05,-6e-05,2e-05,-8e-05,-8e-05,-6e-05,5,14
21517,0,-6e-05,-6e-05,-6e-05,2e-05,-8e-05,-8e-05,-6e-05,5,14
21518,0,-6e-05,-6e-05,-6e-05,2e-05,-8e-05,-8e-05,-6e-05,5,14
21519,0,-6e-05,-6e-05,-6e-05,2e-05,-8e-05,-8e-05,-6e-05,5,14
21520,0,-6e-05,-6e-05,-6e-05,2e-05,-8e-05,-8e-05,-6e-05,5,14
21521,0,-6e-05,-6e-05,-6e-05,2e-05,-8e-05,-8e-05,-6e-05,5,14
21522,0,-6e-05,-6e-05,-6e-05,2e-05,-8e-05,-8e-05,-6e-05,5,14
21523,0,-6e-05,-6e-05,-6e-05,2e-05,-8e-05,-8e-05,-6e-05,5,14
21524,0,-6e-05,-6e-05,-6e-05,2e-05,-8e-05,-8e-05,-6e-05,5,14
21525,0,-6e-05,-6e-05,-6e-05,2e-05,-8e-05,-8e-05,-6e-05,5,14
21526,0,-6e-05,-6e-05,-6e-05,2e-05,-8e-05,-8e-05,-6e-05,5,14
21527,0,-6e-05,-6e-05,-6e-05,2e-05,-8e-05,-8e-05,-6e-05,5,14
21528,0,-6e-05,-6e-05,-6e-05,2e-05,-8e-05,-8e-05,-6e-05,5,14
21529,0,-6e-05,-6e-05,-6e-05,2e-05,-8e-05,-8e-05,-6e-05,5,14
21530,0,-0.00012,3e-05,2e-05,-4e-05,-0.00036,-9e-05,-1e-05,5,14
21531,-4e-05,3e-05,3e-05,-0.0002,1e-05,-6e-05,-0.00011,-7e-05,5,14
21532,-0.00034,-0.00011,-4e-05,-4e-05,-5e-05,-2e-05,-3e-05,-6e-05,5,14
21533,-0.00034,-0.00011,-4e-05,-4e-05,-5e-05,-2e-05,-3e-05,-6e-05,5,14
21534,-0.00034,-0.00011,-4e-05,-4e-05,-5e-05,-2e-05,-3e-05,-6e-05,5,14
21535,-0.00034,-0.00011,-4e-05,-4e-05,-5e-05,-2e-05,-3e-05,-6e-05,5,14
21536,-0.00034,-0.00011,-4e-05,-4e-05,-5e-05,-2e-05,-3e-05,-6e-05,5,14
21538,-0.00034,-0.00011,-4e-05,-4e-05,-5e-05,-2e-05,-3e-05,-6e-05,5,14
21539,-0.00034,-0.00011,-4e-05,-4e-05,-5e-05,-2e-05,-3e-05,-6e-05,5,14
21540,-0.00034,-0.00011,-4e-05,-4e-05,-5e-05,-2e-05,-3e-05,-6e-05,5,14
21541,-0.00034,-0.00011,-4e-05,-4e-05,-5e-05,-2e-05,-3e-05,-6e-05,5,14
21542,-0.00034,-0.00011,-4e-05,-4e-05,-5e-05,-2e-05,-3e-05,-6e-05,5,14
21543,-0.00034,-0.00011,-4e-05,-4e-05,-5e-05,-2e-05,-3e-05,-6e-05,5,14
21544,3e-05,2e-05,-1e-05,0.0001,-2e-05,4e-05,-5e-05,-3e-05,5,14
21545,3e-05,2e-05,-1e-05,0.0001,-2e-05,4e-05,-5e-05,-3e-05,5,14
21546,3e-05,2e-05,-1e-05,0.0001,-2e-05,4e-05,-5e-05,-3e-05,5,14
21547,3e-05,2e-05,-1e-05,0.0001,-2e-05,4e-05,-5e-05,-3e-05,5,14
21548,3e-05,2e-05,-1e-05,0.0001,-2e-05,4e-05,-5e-05,-3e-05,5,14
21549,3e-05,2e-05,-1e-05,0.0001,-2e-05,4e-05,-5e-05,-3e-05,5,14
21550,3e-05,2e-05,-1e-05,0.0001,-2e-05,4e-05,-5e-05,-3e-05,5,14
21551,3e-05,2e-05,-1e-05,0.0001,-2e-05,4e-05,-5e-05,-3e-05,5,14
21552,-0.00051,-3e-05,4e-05,-4e-05,-9e-05,-0.00023,-1e-05,6e-05,5,14
21553,0.00071,-0.00012,6e-05,0.00027,5e-05,0.00016,-7e-05,-1e-05,5,14
21554,0.00071,-0.00012,6e-05,0.00027,5e-05,0.00016,-7e-05,-1e-05,5,14
21555,0.00071,-0.00012,6e-05,0.00027,5e-05,0.00016,-7e-05,-1e-05,5,14
21556,0.00071,-0.00012,6e-05,0.00027,5e-05,0.00016,-7e-05,-1e-05,5,14
21557,0.00071,-0.00012,6e-05,0.00027,5e-05,0.00016,-7e-05,-1e-05,5,14
21558,0.00071,-0.00012,6e-05,0.00027,5e-05,0.00016,-7e-05,-1e-05,5,14
21559,0.00071,-0.00012,6e-05,0.00027,5e-05,0.00016,-7e-05,-1e-05,5,14
21560,0.00071,-0.00012,6e-05,0.00027,5e-05,0.00016,-7e-05,-1e-05,5,14
21561,0.00071,-0.00012,6e-05,0.00027,5e-05,0.00016,-7e-05,-1e-05,5,14
21562,0.00071,-0.00012,6e-05,0.00027,5e-05,0.00016,-7e-05,-1e-05,5,14
21563,0.00071,-0.00012,6e-05,0.00027,5e-05,0.00016,-7e-05,-1e-05,5,14
21564,0.00071,-0.00012,6e-05,0.00027,5e-05,0.00016,-7e-05,-1e-05,5,14
21565,0.00071,-0.00012,6e-05,0.00027,5e-05,0.00016,-7e-05,-1e-05,5,14
21566,0.00071,-0.00012,6e-05,0.00027,5e-05,0.00016,-7e-05,-1e-05,5,14
21567,-0.00046,5e-05,-6e-05,-0.00091,4e-05,-0.00018,-3e-05,-0.0001,5,14
21568,-0.00015,-7e-05,-0.0002,0.00087,-1e-05,-1e-05,4e-05,0,5,14
21569,0.00018,4e-05,8e-05,-0.00038,0,0.00013,6e-05,4e-05,5,14
21570,0.00018,4e-05,8e-05,-0.00038,0,0.00013,6e-05,4e-05,5,14
21571,0.00018,4e-05,8e-05,-0.00038,0,0.00013,6e-05,4e-05,5,14
21572,0.00018,4e-05,8e-05,-0.00038,0,0.00013,6e-05,4e-05,5,14
21573,0.00018,4e-05,8e-05,-0.00038,0,0.00013,6e-05,4e-05,5,14
21574,0.00018,4e-05,8e-05,-0.00038,0,0.00013,6e-05,4e-05,5,14
21575,0.00018,4e-05,8e-05,-0.00038,0,0.00013,6e-05,4e-05,5,14
21576,0.00018,4e-05,8e-05,-0.00038,0,0.00013,6e-05,4e-05,5,14
21577,0.00018,4e-05,8e-05,-0.00038,0,0.00013,6e-05,4e-05,5,14
21578,0.00018,4e-05,8e-05,-0.00038,0,0.00013,6e-05,4e-05,5,14
21579,0.00018,4e-05,8e-05,-0.00038,0,0.00013,6e-05,4e-05,5,14
21580,0.00018,4e-05,8e-05,-0.00038,0,0.00013,6e-05,4e-05,5,14
21581,0.00018,4e-05,8e-05,-0.00038,0,0.00013,6e-05,4e-05,5,14
21582,0.00018,4e-05,8e-05,-0.00038,0,0.00013,6e-05,4e-05,5,14
21583,0.00018,4e-05,8e-05,-0.00038,0,0.00013,6e-05,4e-05,5,14
21584,0.00018,4e-05,8e-05,-0.00038,0,0.00013,6e-05,4e-05,5,14
21585,0.00018,4e-05,8e-05,-0.00038,0,0.00013,6e-05,4e-05,5,14
21586,0.00018,4e-05,8e-05,-0.00038,0,0.00013,6e-05,4e-05,5,14
21588,0.00018,4e-05,8e-05,-0.00038,0,0.00013,6e-05,4e-05,5,14
21589,0.00018,4e-05,8e-05,-0.00038,0,0.00013,6e-05,4e-05,5,14
21590,0.00018,4e-05,8e-05,-0.00038,0,0.00013,6e-05,4e-05,5,14
21591,0.00018,4e-05,8e-05,-0.00038,0,0.00013,6e-05,4e-05,5,14
21592,0.00018,4e-05,8e-05,-0.00038,0,0.00013,6e-05,4e-05,5,14
21593,0.00018,4e-05,8e-05,-0.00038,0,0.00013,6e-05,4e-05,5,14
21594,0.00018,4e-05,8e-05,-0.00038,0,0.00013,6e-05,4e-05,5,14
21595,0.00018,4e-05,8e-05,-0.00038,0,0.00013,6e-05,4e-05,5,14
21596,0.00018,4e-05,8e-05,-0.00038,0,0.00013,6e-05,4e-05,5,14
21597,2e-05,-4e-05,-0.00024,0.00029,0,0.00011,-6e-05,5e-05,5,14
21598,4e-05,4e-05,1e-05,0.00036,0,-2e-05,-7e-05,-6e-05,5,14
21599,-0.00017,-5e-05,-6e-05,-0.00027,5e-05,-0.0005,-0.00012,-6e-05,5,14
21600,-0.00017,-5e-05,-6e-05,-0.00027,5e-05,-0.0005,-0.00012,-6e-05,5,14
21601,-0.00017,-5e-05,-6e-05,-0.00027,5e-05,-0.0005,-0.00012,-6e-05,5,14
21602,-0.00017,-5e-05,-6e-05,-0.00027,5e-05,-0.0005,-0.00012,-6e-05,5,14
21603,-0.00017,-5e-05,-6e-05,-0.00027,5e-05,-0.0005,-0.00012,-6e-05,5,14
21604,-0.00017,-5e-05,-6e-05,-0.00027,5e-05,-0.0005,-0.00012,-6e-05,5,14
21605,-0.00017,-5e-05,-6e-05,-0.00027,5e-05,-0.0005,-0.00012,-6e-05,5,14
21606,-0.00017,-5e-05,-6e-05,-0.00027,5e-05,-0.0005,-0.00012,-6e-05,5,14
21607,-0.00017,-5e-05,-6e-05,-0.00027,5e-05,-0.0005,-0.00012,-6e-05,5,14
21608,-0.00017,-5e-05,-6e-05,-0.00027,5e-05,-0.0005,-0.00012,-6e-05,5,14
21609,-0.00017,-5e-05,-6e-05,-0.00027,5e-05,-0.0005,-0.00012,-6e-05,5,14
21610,-0.00017,-5e-05,-6e-05,-0.00027,5e-05,-0.0005,-0.00012,-6e-05,5,14
21611,-0.00017,-5e-05,-6e-05,-0.00027,5e-05,-0.0005,-0.00012,-6e-05,5,14
21612,0.00021,7e-05,7e-05,-3e-05,-1e-05,0.00021,0.00012,3e-05,5,14
21613,-0.00017,9e-05,-7e-05,-0.00037,4e-05,-0.00025,-0.0001,-8e-05,5,14
21614,-0.00014,0.00018,-6e-05,-6e-05,2e-05,0.00017,1e-05,5e-05,5,14
21615,-0.00014,0.00018,-6e-05,-6e-05,2e-05,0.00017,1e-05,5e-05,5,14
21616,-0.00014,0.00018,-6e-05,-6e-05,2e-05,0.00017,1e-05,5e-05,5,14
21617,-0.00014,0.00018,-6e-05,-6e-05,2e-05,0.00017,1e-05,5e-05,5,14
21618,-0.00014,0.00018,-6e-05,-6e-05,2e-05,0.00017,1e-05,5e-05,5,14
21619,-0.00014,0.00018,-6e-05,-6e-05,2e-05,0.00017,1e-05,5e-05,5,14
21620,-0.00014,0.00018,-6e-05,-6e-05,2e-05,0.00017,1e-05,5e-05,5,14
21621,-0.00014,0.00018,-6e-05,-6e-05,2e-05,0.00017,1e-05,5e-05,5,14
21622,-0.00014,0.00018,-6e-05,-6e-05,2e-05,0.00017,1e-05,5e-05,5,14
21623,-0.00014,0.00018,-6e-05,-6e-05,2e-05,0.00017,1e-05,5e-05,5,14
21624,-0.00014,0.00018,-6e-05,-6e-05,2e-05,0.00017,1e-05,5e-05,5,14
21625,-0.00014,0.00018,-6e-05,-6e-05,2e-05,0.00017,1e-05,5e-05,5,14
21626,-0.00014,0.00018,-6e-05,-6e-05,2e-05,0.00017,1e-05,5e-05,5,14
21627,-0.00029,-6e-05,2e-05,0.00019,0,0.00015,6e-05,-0.00011,5,14
21628,0.0002,2e-05,2e-05,-0.00016,0,-2e-05,3e-05,3e-05,5,14
21629,-0.00038,-4e-05,4e-05,0.00011,6e-05,0.00047,0.00016,4e-05,5,14
21630,-0.00038,-4e-05,4e-05,0.00011,6e-05,0.00047,0.00016,4e-05,5,14
21631,-0.00038,-4e-05,4e-05,0.00011,6e-05,0.00047,0.00016,4e-05,5,14
21632,-0.00038,-4e-05,4e-05,0.00011,6e-05,0.00047,0.00016,4e-05,5,14
21633,-0.00038,-4e-05,4e-05,0.00011,6e-05,0.00047,0.00016,4e-05,5,14
21634,-0.00038,-4e-05,4e-05,0.00011,6e-05,0.00047,0.00016,4e-05,5,14
21635,-0.00038,-4e-05,4e-05,0.00011,6e-05,0.00047,0.00016,4e-05,5,14
21636,-0.00038,-4e-05,4e-05,0.00011,6e-05,0.00047,0.00016,4e-05,5,14
21638,-0.00038,-4e-05,4e-05,0.00011,6e-05,0.00047,0.00016,4e-05,5,14
21639,-0.00038,-4e-05,4e-05,0.00011,6e-05,0.00047,0.00016,4e-05,5,14
21640,-0.00038,-4e-05,4e-05,0.00011,6e-05,0.00047,0.00016,4e-05,5,14
21641,-0.00038,-4e-05,4e-05,0.00011,6e-05,0.00047,0.00016,4e-05,5,14
21642,-0.00038,-4e-05,4e-05,0.00011,6e-05,0.00047,0.00016,4e-05,5,14
21643,-0.00038,-4e-05,4e-05,0.00011,6e-05,0.00047,0.00016,4e-05,5,14
21644,-0.00038,-4e-05,4e-05,0.00011,6e-05,0.00047,0.00016,4e-05,5,14
21645,-0.00038,-4e-05,4e-05,0.00011,6e-05,0.00047,0.00016,4e-05,5,14
21646,-0.00038,-4e-05,4e-05,0.00011,6e-05,0.00047,0.00016,4e-05,5,14
21647,-0.00038,-4e-05,4e-05,0.00011,6e-05,0.00047,0.00016,4e-05,5,14
21648,-0.00038,-4e-05,4e-05,0.00011,6e-05,0.00047,0.00016,4e-05,5,14
21649,-0.00038,-4e-05,4e-05,0.00011,6e-05,0.00047,0.00016,4e-05,5,14
21650,-8e-05,0,0.00016,0.00022,0,0.00013,5e-05,-2e-05,5,14
21651,-8e-05,0,0.00016,0.00022,0,0.00013,5e-05,-2e-05,5,14
21652,0.00023,0,-8e-05,-0.00043,-7e-05,-0.00014,5e-05,5e-05,5,14
21653,0.00023,0,-8e-05,-0.00043,-7e-05,-0.00014,5e-05,5e-05,5,14
21654,0.00023,0,-8e-05,-0.00043,-7e-05,-0.00014,5e-05,5e-05,5,14
21655,0.00023,0,-8e-05,-0.00043,-7e-05,-0.00014,5e-05,5e-05,5,14
21656,0.00023,0,-8e-05,-0.00043,-7e-05,-0.00014,5e-05,5e-05,5,14
21657,0.00023,0,-8e-05,-0.00043,-7e-05,-0.00014,5e-05,5e-05,5,14
21658,0.00023,0,-8e-05,-0.00043,-7e-05,-0.00014,5e-05,5e-05,5,14
21659,0.00023,0,-8e-05,-0.00043,-7e-05,-0.00014,5e-05,5e-05,5,14
21660,0.00023,0,-8e-05,-0.00043,-7e-05,-0.00014,5e-05,5e-05,5,14
21661,0.00023,0,-8e-05,-0.00043,-7e-05,-0.00014,5e-05,5e-05,5,14
21662,0.00023,0,-8e-05,-0.00043,-7e-05,-0.00014,5e-05,5e-05,5,14
21663,0.00023,0,-8e-05,-0.00043,-7e-05,-0.00014,5e-05,5e-05,5,14
21664,0.00023,0,-8e-05,-0.00043,-7e-05,-0.00014,5e-05,5e-05,5,14
21665,0.00023,0,-8e-05,-0.00043,-7e-05,-0.00014,5e-05,5e-05,5,14
21666,0.00023,0,-8e-05,-0.00043,-7e-05,-0.00014,5e-05,5e-05,5,14
21667,0.00023,0,-8e-05,-0.00043,-7e-05,-0.00014,5e-05,5e-05,5,14
21668,0.00023,0,-8e-05,-0.00043,-7e-05,-0.00014,5e-05,5e-05,5,14
21669,0.00023,0,-8e-05,-0.00043,-7e-05,-0.00014,5e-05,5e-05,5,14
21670,0.00023,0,-8e-05,-0.00043,-7e-05,-0.00014,5e-05,5e-05,5,14
21671,0.00023,0,-8e-05,-0.00043,-7e-05,-0.00014,5e-05,5e-05,5,14
21672,8e-05,1e-05,7e-05,0.00037,0,0,5e-05,4e-05,5,14
21673,-0.00014,0,0.00019,-3e-05,4e-05,1e-05,-6e-05,-5e-05,5,14
21674,5e-05,1e-05,1e-05,0.0002,2e-05,-0.00018,-0.00011,-8e-05,5,14
21675,5e-05,1e-05,1e-05,0.0002,2e-05,-0.00018,-0.00011,-8e-05,5,14
21676,5e-05,1e-05,1e-05,0.0002,2e-05,-0.00018,-0.00011,-8e-05,5,14
21677,5e-05,1e-05,1e-05,0.0002,2e-05,-0.00018,-0.00011,-8e-05,5,14
21678,5e-05,1e-05,1e-05,0.0002,2e-05,-0.00018,-0.00011,-8e-05,5,14
21679,5e-05,1e-05,1e-05,0.0002,2e-05,-0.00018,-0.00011,-8e-05,5,14
21680,5e-05,1e-05,1e-05,0.0002,2e-05,-0.00018,-0.00011,-8e-05,5,14
21681,5e-05,1e-05,1e-05,0.0002,2e-05,-0.00018,-0.00011,-8e-05,5,14
21682,5e-05,1e-05,1e-05,0.0002,2e-05,-0.00018,-0.00011,-8e-05,5,14
21683,5e-05,1e-05,1e-05,0.0002,2e-05,-0.00018,-0.00011,-8e-05,5,14
21684,5e-05,1e-05,1e-05,0.0002,2e-05,-0.00018,-0.00011,-8e-05,5,14
21685,5e-05,1e-05,1e-05,0.0002,2e-05,-0.00018,-0.00011,-8e-05,5,14
21686,5e-05,1e-05,1e-05,0.0002,2e-05,-0.00018,-0.00011,-8e-05,5,14
21689,4e-05,-4e-05,1e-05,0.0001,1e-05,0.00015,8e-05,1e-05,5,14
21690,4e-05,-4e-05,1e-05,0.0001,1e-05,0.00015,8e-05,1e-05,5,14
21691,4e-05,-4e-05,1e-05,0.0001,1e-05,0.00015,8e-05,1e-05,5,14
21692,4e-05,-4e-05,1e-05,0.0001,1e-05,0.00015,8e-05,1e-05,5,14
21693,4e-05,-4e-05,1e-05,0.0001,1e-05,0.00015,8e-05,1e-05,5,14
21694,4e-05,-4e-05,1e-05,0.0001,1e-05,0.00015,8e-05,1e-05,5,14
21695,4e-05,-4e-05,1e-05,0.0001,1e-05,0.00015,8e-05,1e-05,5,14
21696,4e-05,-4e-05,1e-05,0.0001,1e-05,0.00015,8e-05,1e-05,5,14
21697,4e-05,-4e-05,1e-05,0.0001,1e-05,0.00015,8e-05,1e-05,5,14
21698,4e-05,-4e-05,1e-05,0.0001,1e-05,0.00015,8e-05,1e-05,5,14
21699,4e-05,-4e-05,1e-05,0.0001,1e-05,0.00015,8e-05,1e-05,5,14
21700,4e-05,-4e-05,1e-05,0.0001,1e-05,0.00015,8e-05,1e-05,5,14
21701,4e-05,-4e-05,1e-05,0.0001,1e-05,0.00015,8e-05,1e-05,5,14
21702,4e-05,-4e-05,1e-05,0.0001,1e-05,0.00015,8e-05,1e-05,5,14
21703,4e-05,-4e-05,1e-05,0.0001,1e-05,0.00015,8e-05,1e-05,5,14
21704,4e-05,-4e-05,1e-05,0.0001,1e-05,0.00015,8e-05,1e-05,5,14
21705,4e-05,-4e-05,1e-05,0.0001,1e-05,0.00015,8e-05,1e-05,5,14
21706,4e-05,-4e-05,1e-05,0.0001,1e-05,0.00015,8e-05,1e-05,5,14
21707,4e-05,-4e-05,1e-05,0.0001,1e-05,0.00015,8e-05,1e-05,5,14
21708,4e-05,-4e-05,1e-05,0.0001,1e-05,0.00015,8e-05,1e-05,5,14
21709,4e-05,-4e-05,1e-05,0.0001,1e-05,0.00015,8e-05,1e-05,5,14
21710,2e-05,3e-05,-0.00016,-0.00015,0,-0.00016,-0.00012,-7e-05,5,14
21711,2e-05,3e-05,-0.00016,-0.00015,0,-0.00016,-0.00012,-7e-05,5,14
21712,-0.00015,0,2e-05,-4e-05,-2e-05,-0.00016,-7e-05,-2e-05,5,14
21713,-0.00015,0,2e-05,-4e-05,-2e-05,-0.00016,-7e-05,-2e-05,5,14
21714,-0.00015,0,2e-05,-4e-05,-2e-05,-0.00016,-7e-05,-2e-05,5,14
21715,-0.00015,0,2e-05,-4e-05,-2e-05,-0.00016,-7e-05,-2e-05,5,14
21716,-0.00015,0,2e-05,-4e-05,-2e-05,-0.00016,-7e-05,-2e-05,5,14
21717,-0.00015,0,2e-05,-4e-05,-2e-05,-0.00016,-7e-05,-2e-05,5,14
21718,-0.00015,0,2e-05,-4e-05,-2e-05,-0.00016,-7e-05,-2e-05,5,14
21719,-0.00015,0,2e-05,-4e-05,-2e-05,-0.00016,-7e-05,-2e-05,5,14
21720,-0.00015,0,2e-05,-4e-05,-2e-05,-0.00016,-7e-05,-2e-05,5,14
21721,-0.00015,0,2e-05,-4e-05,-2e-05,-0.00016,-7e-05,-2e-05,5,14
21722,-0.00015,0,2e-05,-4e-05,-2e-05,-0.00016,-7e-05,-2e-05,5,14
21723,-0.00015,0,2e-05,-4e-05,-2e-05,-0.00016,-7e-05,-2e-05,5,14
21724,-0.00015,0,2e-05,-4e-05,-2e-05,-0.00016,-7e-05,-2e-05,5,14
21725,-0.00015,0,2e-05,-4e-05,-2e-05,-0.00016,-7e-05,-2e-05,5,14
21726,-0.00015,0,2e-05,-4e-05,-2e-05,-0.00016,-7e-05,-2e-05,5,14
21727,-0.00015,0,2e-05,-4e-05,-2e-05,-0.00016,-7e-05,-2e-05,5,14
21728,-0.00015,0,2e-05,-4e-05,-2e-05,-0.00016,-7e-05,-2e-05,5,14
21729,-0.00015,0,2e-05,-4e-05,-2e-05,-0.00016,-7e-05,-2e-05,5,14
21730,-0.00015,0,2e-05,-4e-05,-2e-05,-0.00016,-7e-05,-2e-05,5,14
21731,-0.00015,0,2e-05,-4e-05,-2e-05,-0.00016,-7e-05,-2e-05,5,14
21732,0.0003,0,-9e-05,4e-05,-7e-05,0.00023,0.00011,0.00011,5,14
21733,-5e-05,2e-05,-4e-05,-0.00049,-2e-05,-0.00012,-7e-05,-8e-05,5,14
21734,0.00016,-6e-05,-6e-05,-0.00017,-3e-05,-8e-05,-7e-05,-8e-05,5,14
21735,0.00016,-6e-05,-6e-05,-0.00017,-3e-05,-8e-05,-7e-05,-8e-05,5,14
21736,0.00016,-6e-05,-6e-05,-0.00017,-3e-05,-8e-05,-7e-05,-8e-05,5,14
21738,0.00016,-6e-05,-6e-05,-0.00017,-3e-05,-8e-05,-7e-05,-8e-05,5,14
21739,0.00016,-6e-05,-6e-05,-0.00017,-3e-05,-8e-05,-7e-05,-8e-05,5,14
21740,0.00016,-6e-05,-6e-05,-0.00017,-3e-05,-8e-05,-7e-05,-8e-05,5,14
21741,0.00016,-6e-05,-6e-05,-0.00017,-3e-05,-8e-05,-7e-05,-8e-05,5,14
21742,0.00016,-6e-05,-6e-05,-0.00017,-3e-05,-8e-05,-7e-05,-8e-05,5,14
21743,0.00016,-6e-05,-6e-05,-0.00017,-3e-05,-8e-05,-7e-05,-8e-05,5,14
21744,0.00016,-6e-05,-6e-05,-0.00017,-3e-05,-8e-05,-7e-05,-8e-05,5,14
21745,0.00016,-6e-05,-6e-05,-0.00017,-3e-05,-8e-05,-7e-05,-8e-05,5,14
21746,0.00016,-6e-05,-6e-05,-0.00017,-3e-05,-8e-05,-7e-05,-8e-05,5,14
21747,3e-05,-2e-05,8e-05,0.0003,-0.00012,6e-05,1e-05,-4e-05,5,14
21748,3e-05,-2e-05,8e-05,0.0003,-0.00012,6e-05,1e-05,-4e-05,5,14
21749,-7e-05,-7e-05,-2e-05,-1e-05,-1e-05,0.00034,2e-05,-2e-05,5,14
21750,-7e-05,-7e-05,-2e-05,-1e-05,-1e-05,0.00034,2e-05,-2e-05,5,14
21751,-7e-05,-7e-05,-2e-05,-1e-05,-1e-05,0.00034,2e-05,-2e-05,5,14
21752,-7e-05,-7e-05,-2e-05,-1e-05,-1e-05,0.00034,2e-05,-2e-05,5,14
21753,-7e-05,-7e-05,-2e-05,-1e-05,-1e-05,0.00034,2e-05,-2e-05,5,14
21754,-7e-05,-7e-05,-2e-05,-1e-05,-1e-05,0.00034,2e-05,-2e-05,5,14
21755,-7e-05,-7e-05,-2e-05,-1e-05,-1e-05,0.00034,2e-05,-2e-05,5,14
21756,-7e-05,-7e-05,-2e-05,-1e-05,-1e-05,0.00034,2e-05,-2e-05,5,14
21757,-7e-05,-7e-05,-2e-05,-1e-05,-1e-05,0.00034,2e-05,-2e-05,5,14
21758,-7e-05,-7e-05,-2e-05,-1e-05,-1e-05,0.00034,2e-05,-2e-05,5,14
21759,-7e-05,-7e-05,-2e-05,-1e-05,-1e-05,0.00034,2e-05,-2e-05,5,14
21760,-7e-05,-7e-05,-2e-05,-1e-05,-1e-05,0.00034,2e-05,-2e-05,5,14
21761,-7e-05,-7e-05,-2e-05,-1e-05,-1e-05,0.00034,2e-05,-2e-05,5,14
21762,-7e-05,-7e-05,-2e-05,-1e-05,-1e-05,0.00034,2e-05,-2e-05,5,14
21763,-7e-05,-7e-05,-2e-05,-1e-05,-1e-05,0.00034,2e-05,-2e-05,5,14
21764,-7e-05,-7e-05,-2e-05,-1e-05,-1e-05,0.00034,2e-05,-2e-05,5,14
21765,-7e-05,-7e-05,-2e-05,-1e-05,-1e-05,0.00034,2e-05,-2e-05,5,14
21766,-7e-05,-7e-05,-2e-05,-1e-05,-1e-05,0.00034,2e-05,-2e-05,5,14
21767,-7e-05,-7e-05,-2e-05,-1e-05,-1e-05,0.00034,2e-05,-2e-05,5,14
21768,-7e-05,-7e-05,-2e-05,-1e-05,-1e-05,0.00034,2e-05,-2e-05,5,14
21769,-7e-05,-7e-05,-2e-05,-1e-05,-1e-05,0.00034,2e-05,-2e-05,5,14
21770,2e-05,-6e-05,-7e-05,-0.00014,1e-05,0.0002,7e-05,4e-05,5,14
21771,0.0001,0,-7e-05,0.00015,-6e-05,-9e-05,1e-05,1e-05,5,14
21772,0.0001,0,-7e-05,0.00015,-6e-05,-9e-05,1e-05,1e-05,5,14
21773,0.0001,0,-7e-05,0.00015,-6e-05,-9e-05,1e-05,1e-05,5,14
21774,0.0001,0,-7e-05,0.00015,-6e-05,-9e-05,1e-05,1e-05,5,14
21775,0.0001,0,-7e-05,0.00015,-6e-05,-9e-05,1e-05,1e-05,5,14
21776,0.0001,0,-7e-05,0.00015,-6e-05,-9e-05,1e-05,1e-05,5,14
21777,0.0001,0,-7e-05,0.00015,-6e-05,-9e-05,1e-05,1e-05,5,14
21778,0.0001,0,-7e-05,0.00015,-6e-05,-9e-05,1e-05,1e-05,5,14
21779,0.0001,0,-7e-05,0.00015,-6e-05,-9e-05,1e-05,1e-05,5,14
21780,0.0001,0,-7e-05,0.00015,-6e-05,-9e-05,1e-05,1e-05,5,14
21781,0.0001,0,-7e-05,0.00015,-6e-05,-9e-05,1e-05,1e-05,5,14
21782,0.0001,0,-7e-05,0.00015,-6e-05,-9e-05,1e-05,1e-05,5,14
21783,0.0001,0,-7e-05,0.00015,-6e-05,-9e-05,1e-05,1e-05,5,14
21784,0.0001,0,-7e-05,0.00015,-6e-05,-9e-05,1e-05,1e-05,5,14
21785,0.0001,0,-7e-05,0.00015,-6e-05,-9e-05,1e-05,1e-05,5,14
21786,0.0001,0,-7e-05,0.00015,-6e-05,-9e-05,1e-05,1e-05,5,14
21788,0.0001,0,-7e-05,0.00015,-6e-05,-9e-05,1e-05,1e-05,5,14
21789,0.0001,0,-7e-05,0.00015,-6e-05,-9e-05,1e-05,1e-05,5,14
21790,0.0001,0,-7e-05,0.00015,-6e-05,-9e-05,1e-05,1e-05,5,14
21791,0.0001,0,-7e-05,0.00015,-6e-05,-9e-05,1e-05,1e-05,5,14
21792,-0.00044,-0.00022,-4e-05,0.00016,3e-05,-0.00011,-4e-05,-4e-05,5,14
21793,-8e-05,2e-05,-2e-05,-0.00016,1e-05,-4e-05,-3e-05,-8e-05,5,14
21794,-0.00028,-8e-05,-1e-05,8e-05,1e-05,2e-05,-5e-05,-5e-05,5,14
21795,-0.00028,-8e-05,-1e-05,8e-05,1e-05,2e-05,-5e-05,-5e-05,5,14
21796,-0.00028,-8e-05,-1e-05,8e-05,1e-05,2e-05,-5e-05,-5e-05,5,14
21797,-0.00028,-8e-05,-1e-05,8e-05,1e-05,2e-05,-5e-05,-5e-05,5,14
21798,-0.00028,-8e-05,-1e-05,8e-05,1e-05,2e-05,-5e-05,-5e-05,5,14
21799,-0.00028,-8e-05,-1e-05,8e-05,1e-05,2e-05,-5e-05,-5e-05,5,14
21800,-0.00028,-8e-05,-1e-05,8e-05,1e-05,2e-05,-5e-05,-5e-05,5,14
21801,-0.00028,-8e-05,-1e-05,8e-05,1e-05,2e-05,-5e-05,-5e-05,5,14
21802,-0.00028,-8e-05,-1e-05,8e-05,1e-05,2e-05,-5e-05,-5e-05,5,14
21803,-0.00028,-8e-05,-1e-05,8e-05,1e-05,2e-05,-5e-05,-5e-05,5,14
21804,-0.00028,-8e-05,-1e-05,8e-05,1e-05,2e-05,-5e-05,-5e-05,5,14
21805,-0.00028,-8e-05,-1e-05,8e-05,1e-05,2e-05,-5e-05,-5e-05,5,14
21806,-0.00028,-8e-05,-1e-05,8e-05,1e-05,2e-05,-5e-05,-5e-05,5,14
21807,-0.00028,-8e-05,-1e-05,8e-05,1e-05,2e-05,-5e-05,-5e-05,5,14
21808,-0.00028,-8e-05,-1e-05,8e-05,1e-05,2e-05,-5e-05,-5e-05,5,14
21809,-0.00028,-8e-05,-1e-05,8e-05,1e-05,2e-05,-5e-05,-5e-05,5,14
21810,-0.00028,-8e-05,-1e-05,8e-05,1e-05,2e-05,-5e-05,-5e-05,5,14
21811,-0.00028,-8e-05,-1e-05,8e-05,1e-05,2e-05,-5e-05,-5e-05,5,14
21812,-0.00028,-8e-05,-1e-05,8e-05,1e-05,2e-05,-5e-05,-5e-05,5,14
21813,-0.00028,-8e-05,-1e-05,8e-05,1e-05,2e-05,-5e-05,-5e-05,5,14
21814,-0.00028,-8e-05,-1e-05,8e-05,1e-05,2e-05,-5e-05,-5e-05,5,14
21815,0.00013,-0.00025,6e-05,0.00014,0,7e-05,7e-05,0.00015,5,14
21816,-4e-05,2e-05,-5e-05,-0.00044,-0.0001,-0.00013,-2e-05,1e-05,5,14
21817,3e-05,0.00011,4e-05,0.00026,2e-05,-0.00026,-6e-05,-6e-05,5,14
21818,3e-05,0.00011,4e-05,0.00026,2e-05,-0.00026,-6e-05,-6e-05,5,14
21819,3e-05,0.00011,4e-05,0.00026,2e-05,-0.00026,-6e-05,-6e-05,5,14
21820,3e-05,0.00011,4e-05,0.00026,2e-05,-0.00026,-6e-05,-6e-05,5,14
21821,3e-05,0.00011,4e-05,0.00026,2e-05,-0.00026,-6e-05,-6e-05,5,14
21822,3e-05,0.00011,4e-05,0.00026,2e-05,-0.00026,-6e-05,-6e-05,5,14
21823,3e-05,0.00011,4e-05,0.00026,2e-05,-0.00026,-6e-05,-6e-05,5,14
21824,3e-05,0.00011,4e-05,0.00026,2e-05,-0.00026,-6e-05,-6e-05,5,14
21825,3e-05,0.00011,4e-05,0.00026,2e-05,-0.00026,-6e-05,-6e-05,5,14
21826,3e-05,0.00011,4e-05,0.00026,2e-05,-0.00026,-6e-05,-6e-05,5,14
21827,3e-05,0.00011,4e-05,0.00026,2e-05,-0.00026,-6e-05,-6e-05,5,14
21828,3e-05,0.00011,4e-05,0.00026,2e-05,-0.00026,-6e-05,-6e-05,5,14
21829,3e-05,0.00011,4e-05,0.00026,2e-05,-0.00026,-6e-05,-6e-05,5,14
21830,0.00032,0.00019,0.00028,0.00081,-0.00013,0.00015,8e-05,6e-05,5,14
21831,0.00032,0.00019,0.00028,0.00081,-0.00013,0.00015,8e-05,6e-05,5,14
21832,0.00016,3e-05,0.00018,0.00012,4e-05,-0.0002,-2e-05,3e-05,5,14
21833,0.00016,3e-05,0.00018,0.00012,4e-05,-0.0002,-2e-05,3e-05,5,14
21834,0.00016,3e-05,0.00018,0.00012,4e-05,-0.0002,-2e-05,3e-05,5,14
21835,0.00016,3e-05,0.00018,0.00012,4e-05,-0.0002,-2e-05,3e-05,5,14
21836,0.00016,3e-05,0.00018,0.00012,4e-05,-0.0002,-2e-05,3e-05,5,14
21838,0.00016,3e-05,0.00018,0.00012,4e-05,-0.0002,-2e-05,3e-05,5,14
21839,0.00016,3e-05,0.00018,0.00012,4e-05,-0.0002,-2e-05,3e-05,5,14
21840,0.00016,3e-05,0.00018,0.00012,4e-05,-0.0002,-2e-05,3e-05,5,14
21841,0.00016,3e-05,0.00018,0.00012,4e-05,-0.0002,-2e-05,3e-05,5,14
21842,0.00016,3e-05,0.00018,0.00012,4e-05,-0.0002,-2e-05,3e-05,5,14
21843,0.00016,3e-05,0.00018,0.00012,4e-05,-0.0002,-2e-05,3e-05,5,14
21844,0.00016,3e-05,0.00018,0.00012,4e-05,-0.0002,-2e-05,3e-05,5,14
21845,0.00016,3e-05,0.00018,0.00012,4e-05,-0.0002,-2e-05,3e-05,5,14
21846,0.00016,3e-05,0.00018,0.00012,4e-05,-0.0002,-2e-05,3e-05,5,14
21847,0.00016,3e-05,0.00018,0.00012,4e-05,-0.0002,-2e-05,3e-05,5,14
21848,0.00016,3e-05,0.00018,0.00012,4e-05,-0.0002,-2e-05,3e-05,5,14
21849,0.00016,3e-05,0.00018,0.00012,4e-05,-0.0002,-2e-05,3e-05,5,14
21850,0.00016,3e-05,0.00018,0.00012,4e-05,-0.0002,-2e-05,3e-05,5,14
21851,0.00016,3e-05,0.00018,0.00012,4e-05,-0.0002,-2e-05,3e-05,5,14
21852,-1e-05,-6e-05,-0.00023,-0.00037,-1e-05,0.00013,6e-05,7e-05,5,14
21853,4e-05,1e-05,0,0.00048,-8e-05,-0.00015,3e-05,-1e-05,5,14
21854,-9e-05,2e-05,0,-0.00017,5e-05,-8e-05,-6e-05,-4e-05,5,14
21855,-9e-05,2e-05,0,-0.00017,5e-05,-8e-05,-6e-05,-4e-05,5,14
21856,-9e-05,2e-05,0,-0.00017,5e-05,-8e-05,-6e-05,-4e-05,5,14
21857,-9e-05,2e-05,0,-0.00017,5e-05,-8e-05,-6e-05,-4e-05,5,14
21858,-9e-05,2e-05,0,-0.00017,5e-05,-8e-05,-6e-05,-4e-05,5,14
21859,-9e-05,2e-05,0,-0.00017,5e-05,-8e-05,-6e-05,-4e-05,5,14
21860,-9e-05,2e-05,0,-0.00017,5e-05,-8e-05,-6e-05,-4e-05,5,14
21861,-9e-05,2e-05,0,-0.00017,5e-05,-8e-05,-6e-05,-4e-05,5,14
21862,-9e-05,2e-05,0,-0.00017,5e-05,-8e-05,-6e-05,-4e-05,5,14
21863,-9e-05,2e-05,0,-0.00017,5e-05,-8e-05,-6e-05,-4e-05,5,14
21864,-9e-05,2e-05,0,-0.00017,5e-05,-8e-05,-6e-05,-4e-05,5,14
21865,-9e-05,2e-05,0,-0.00017,5e-05,-8e-05,-6e-05,-4e-05,5,14
21866,-9e-05,2e-05,0,-0.00017,5e-05,-8e-05,-6e-05,-4e-05,5,14
21867,-9e-05,2e-05,0,-0.00017,5e-05,-8e-05,-6e-05,-4e-05,5,14
21868,-9e-05,2e-05,0,-0.00017,5e-05,-8e-05,-6e-05,-4e-05,5,14
21869,-9e-05,2e-05,0,-0.00017,5e-05,-8e-05,-6e-05,-4e-05,5,14
21870,-9e-05,2e-05,0,-0.00017,5e-05,-8e-05,-6e-05,-4e-05,5,14
21871,-9e-05,2e-05,0,-0.00017,5e-05,-8e-05,-6e-05,-4e-05,5,14
21872,-9e-05,2e-05,0,-0.00017,5e-05,-8e-05,-6e-05,-4e-05,5,14
21873,-9e-05,2e-05,0,-0.00017,5e-05,-8e-05,-6e-05,-4e-05,5,14
21874,-9e-05,2e-05,0,-0.00017,5e-05,-8e-05,-6e-05,-4e-05,5,14
21875,-4e-05,-2e-05,-0.00019,-0.00038,5e-05,5e-05,0,-1e-05,5,14
21876,-4e-05,-2e-05,-0.00019,-0.00038,5e-05,5e-05,0,-1e-05,5,14
21877,0,-2e-05,-0.00021,-7e-05,-9e-05,9e-05,-1e-05,1e-05,5,14
21878,0,-2e-05,-0.00021,-7e-05,-9e-05,9e-05,-1e-05,1e-05,5,14
21879,0,-2e-05,-0.00021,-7e-05,-9e-05,9e-05,-1e-05,1e-05,5,14
21880,0,-2e-05,-0.00021,-7e-05,-9e-05,9e-05,-1e-05,1e-05,5,14
21881,0,-2e-05,-0.00021,-7e-05,-9e-05,9e-05,-1e-05,1e-05,5,14
21882,0,-2e-05,-0.00021,-7e-05,-9e-05,9e-05,-1e-05,1e-05,5,14
21883,0,-2e-05,-0.00021,-7e-05,-9e-05,9e-05,-1e-05,1e-05,5,14
21884,0,-2e-05,-0.00021,-7e-05,-9e-05,9e-05,-1e-05,1e-05,5,14
21885,0,-2e-05,-0.00021,-7e-05,-9e-05,9e-05,-1e-05,1e-05,5,14
21886,0,-2e-05,-0.00021,-7e-05,-9e-05,9e-05,-1e-05,1e-05,5,14
21888,0,-2e-05,-0.00021,-7e-05,-9e-05,9e-05,-1e-05,1e-05,5,14
21889,0,-2e-05,-0.00021,-7e-05,-9e-05,9e-05,-1e-05,1e-05,5,14
21890,2e-05,-6e-05,-7e-05,-0.00036,-7e-05,4e-05,3e-05,-2e-05,5,14
21891,2e-05,-6e-05,-7e-05,-0.00036,-7e-05,4e-05,3e-05,-2e-05,5,14
21892,4e-05,-6e-05,-2e-05,0.00018,1e-05,-0.00013,-1e-05,3e-05,5,14
21893,-0.00046,-8e-05,-7e-05,-0.00019,2e-05,1e-05,1e-05,-3e-05,5,14
21894,-0.00046,-8e-05,-7e-05,-0.00019,2e-05,1e-05,1e-05,-3e-05,5,14
21895,-0.00046,-8e-05,-7e-05,-0.00019,2e-05,1e-05,1e-05,-3e-05,5,14
21896,-0.00046,-8e-05,-7e-05,-0.00019,2e-05,1e-05,1e-05,-3e-05,5,14
21897,-0.00046,-8e-05,-7e-05,-0.00019,2e-05,1e-05,1e-05,-3e-05,5,14
21898,-0.00046,-8e-05,-7e-05,-0.00019,2e-05,1e-05,1e-05,-3e-05,5,14
21899,-0.00046,-8e-05,-7e-05,-0.00019,2e-05,1e-05,1e-05,-3e-05,5,14
21900,-0.00046,-8e-05,-7e-05,-0.00019,2e-05,1e-05,1e-05,-3e-05,5,14
21901,-0.00046,-8e-05,-7e-05,-0.00019,2e-05,1e-05,1e-05,-3e-05,5,14
21902,-0.00046,-8e-05,-7e-05,-0.00019,2e-05,1e-05,1e-05,-3e-05,5,14
21903,-0.00046,-8e-05,-7e-05,-0.00019,2e-05,1e-05,1e-05,-3e-05,5,14
21904,-0.00046,-8e-05,-7e-05,-0.00019,2e-05,1e-05,1e-05,-3e-05,5,14
21905,-0.00046,-8e-05,-7e-05,-0.00019,2e-05,1e-05,1e-05,-3e-05,5,14
21906,-0.00046,-8e-05,-7e-05,-0.00019,2e-05,1e-05,1e-05,-3e-05,5,14
21907,-0.00046,-8e-05,-7e-05,-0.00019,2e-05,1e-05,1e-05,-3e-05,5,14
21908,-0.00046,-8e-05,-7e-05,-0.00019,2e-05,1e-05,1e-05,-3e-05,5,14
21909,-0.00046,-8e-05,-7e-05,-0.00019,2e-05,1e-05,1e-05,-3e-05,5,14
21910,-0.00046,-8e-05,-7e-05,-0.00019,2e-05,1e-05,1e-05,-3e-05,5,14
21911,-0.00046,-8e-05,-7e-05,-0.00019,2e-05,1e-05,1e-05,-3e-05,5,14
21912,0.00015,8e-05,-2e-05,0.00038,-9e-05,0.00048,-2e-05,1e-05,5,14
21913,-0.00019,-5e-05,4e-05,0,0,0.00012,2e-05,-1e-05,5,14
21914,0.00016,2e-05,9e-05,0.00036,-3e-05,0.00011,-1e-05,9e-05,5,14
21915,0.00016,2e-05,9e-05,0.00036,-3e-05,0.00011,-1e-05,9e-05,5,14
21916,0.00016,2e-05,9e-05,0.00036,-3e-05,0.00011,-1e-05,9e-05,5,14
21917,0.00016,2e-05,9e-05,0.00036,-3e-05,0.00011,-1e-05,9e-05,5,14
21918,0.00016,2e-05,9e-05,0.00036,-3e-05,0.00011,-1e-05,9e-05,5,14
21919,0.00016,2e-05,9e-05,0.00036,-3e-05,0.00011,-1e-05,9e-05,5,14
21920,0.00016,2e-05,9e-05,0.00036,-3e-05,0.00011,-1e-05,9e-05,5,14
21921,0.00016,2e-05,9e-05,0.00036,-3e-05,0.00011,-1e-05,9e-05,5,14
21922,0.00016,2e-05,9e-05,0.00036,-3e-05,0.00011,-1e-05,9e-05,5,14
21923,0.00016,2e-05,9e-05,0.00036,-3e-05,0.00011,-1e-05,9e-05,5,14
21924,0.00016,2e-05,9e-05,0.00036,-3e-05,0.00011,-1e-05,9e-05,5,14
21925,0.00016,2e-05,9e-05,0.00036,-3e-05,0.00011,-1e-05,9e-05,5,14
21926,0.00016,2e-05,9e-05,0.00036,-3e-05,0.00011,-1e-05,9e-05,5,14
21927,-2e-05,0.00011,-3e-05,-0.00042,-4e-05,6e-05,3e-05,3e-05,5,14
21928,-2e-05,0.00011,-3e-05,-0.00042,-4e-05,6e-05,3e-05,3e-05,5,14
21929,-2e-05,0.00011,-3e-05,-0.00042,-4e-05,6e-05,3e-05,3e-05,5,14
21930,-2e-05,0.00011,-3e-05,-0.00042,-4e-05,6e-05,3e-05,3e-05,5,14
21931,-2e-05,0.00011,-3e-05,-0.00042,-4e-05,6e-05,3e-05,3e-05,5,14
21932,-2e-05,0.00011,-3e-05,-0.00042,-4e-05,6e-05,3e-05,3e-05,5,14
21933,-2e-05,0.00011,-3e-05,-0.00042,-4e-05,6e-05,3e-05,3e-05,5,14
21934,4e-05,-1e-05,7e-05,0.00026,-4e-05,-8e-05,-1e-05,-2e-05,5,14
21935,4e-05,-1e-05,7e-05,0.00026,-4e-05,-8e-05,-1e-05,-2e-05,5,14
21936,4e-05,-1e-05,7e-05,0.00026,-4e-05,-8e-05,-1e-05,-2e-05,5,14
21938,4e-05,-1e-05,7e-05,0.00026,-4e-05,-8e-05,-1e-05,-2e-05,5,14
21939,4e-05,-1e-05,7e-05,0.00026,-4e-05,-8e-05,-1e-05,-2e-05,5,14
21940,4e-05,-1e-05,7e-05,0.00026,-4e-05,-8e-05,-1e-05,-2e-05,5,14
21941,4e-05,-1e-05,7e-05,0.00026,-4e-05,-8e-05,-1e-05,-2e-05,5,14
21942,4e-05,-1e-05,7e-05,0.00026,-4e-05,-8e-05,-1e-05,-2e-05,5,14
21943,4e-05,-1e-05,7e-05,0.00026,-4e-05,-8e-05,-1e-05,-2e-05,5,14
21944,4e-05,-1e-05,7e-05,0.00026,-4e-05,-8e-05,-1e-05,-2e-05,5,14
21945,4e-05,-1e-05,7e-05,0.00026,-4e-05,-8e-05,-1e-05,-2e-05,5,14
21946,4e-05,-1e-05,7e-05,0.00026,-4e-05,-8e-05,-1e-05,-2e-05,5,14
21947,4e-05,-1e-05,7e-05,0.00026,-4e-05,-8e-05,-1e-05,-2e-05,5,14
21948,4e-05,-1e-05,7e-05,0.00026,-4e-05,-8e-05,-1e-05,-2e-05,5,14
21949,4e-05,-1e-05,7e-05,0.00026,-4e-05,-8e-05,-1e-05,-2e-05,5,14
21950,7e-05,0,-2e-05,-9e-05,6e-05,-0.00012,-4e-05,-3e-05,5,14
21951,1e-05,5e-05,2e-05,-0.00056,4e-05,-0.00014,-3e-05,1e-05,5,14
21952,6e-05,6e-05,0.00019,0.00048,-5e-05,0.00027,0.00021,0.00012,5,14
21953,6e-05,6e-05,0.00019,0.00048,-5e-05,0.00027,0.00021,0.00012,5,14
21954,6e-05,6e-05,0.00019,0.00048,-5e-05,0.00027,0.00021,0.00012,5,14
21955,6e-05,6e-05,0.00019,0.00048,-5e-05,0.00027,0.00021,0.00012,5,14
21956,6e-05,6e-05,0.00019,0.00048,-5e-05,0.00027,0.00021,0.00012,5,14
21957,6e-05,6e-05,0.00019,0.00048,-5e-05,0.00027,0.00021,0.00012,5,14
21958,6e-05,6e-05,0.00019,0.00048,-5e-05,0.00027,0.00021,0.00012,5,14
21959,6e-05,6e-05,0.00019,0.00048,-5e-05,0.00027,0.00021,0.00012,5,14
21960,6e-05,6e-05,0.00019,0.00048,-5e-05,0.00027,0.00021,0.00012,5,14
21961,6e-05,6e-05,0.00019,0.00048,-5e-05,0.00027,0.00021,0.00012,5,14
21962,6e-05,6e-05,0.00019,0.00048,-5e-05,0.00027,0.00021,0.00012,5,14
21963,6e-05,6e-05,0.00019,0.00048,-5e-05,0.00027,0.00021,0.00012,5,14
21964,6e-05,6e-05,0.00019,0.00048,-5e-05,0.00027,0.00021,0.00012,5,14
21965,6e-05,6e-05,0.00019,0.00048,-5e-05,0.00027,0.00021,0.00012,5,14
21966,6e-05,6e-05,0.00019,0.00048,-5e-05,0.00027,0.00021,0.00012,5,14
21967,6e-05,6e-05,0.00019,0.00048,-5e-05,0.00027,0.00021,0.00012,5,14
21968,6e-05,6e-05,0.00019,0.00048,-5e-05,0.00027,0.00021,0.00012,5,14
21969,6e-05,6e-05,0.00019,0.00048,-5e-05,0.00027,0.00021,0.00012,5,14
21970,6e-05,6e-05,0.00019,0.00048,-5e-05,0.00027,0.00021,0.00012,5,14
21971,6e-05,6e-05,0.00019,0.00048,-5e-05,0.00027,0.00021,0.00012,5,14
21972,-9e-05,-0.00011,0,0.00019,4e-05,-0.00023,-6e-05,-3e-05,5,14
21973,-2e-05,-4e-05,-0.00013,-0.00022,9e-05,-0.00038,-0.00014,-0.00013,5,14
21974,-6e-05,-5e-05,-5e-05,-0.00046,0.0001,-7e-05,-0.00017,-7e-05,5,14
21975,-6e-05,-5e-05,-5e-05,-0.00046,0.0001,-7e-05,-0.00017,-7e-05,5,14
21976,-6e-05,-5e-05,-5e-05,-0.00046,0.0001,-7e-05,-0.00017,-7e-05,5,14
21977,-6e-05,-5e-05,-5e-05,-0.00046,0.0001,-7e-05,-0.00017,-7e-05,5,14
21978,-6e-05,-5e-05,-5e-05,-0.00046,0.0001,-7e-05,-0.00017,-7e-05,5,14
21979,-6e-05,-5e-05,-5e-05,-0.00046,0.0001,-7e-05,-0.00017,-7e-05,5,14
21980,-6e-05,-5e-05,-5e-05,-0.00046,0.0001,-7e-05,-0.00017,-7e-05,5,14
21981,-6e-05,-5e-05,-5e-05,-0.00046,0.0001,-7e-05,-0.00017,-7e-05,5,14
21982,-6e-05,-5e-05,-5e-05,-0.00046,0.0001,-7e-05,-0.00017,-7e-05,5,14
21983,-6e-05,-5e-05,-5e-05,-0.00046,0.0001,-7e-05,-0.00017,-7e-05,5,14
21984,-6e-05,-5e-05,-5e-05,-0.00046,0.0001,-7e-05,-0.00017,-7e-05,5,14
21985,-6e-05,-5e-05,-5e-05,-0.00046,0.0001,-7e-05,-0.00017,-7e-05,5,14
21986,-6e-05,-5e-05,-5e-05,-0.00046,0.0001,-7e-05,-0.00017,-7e-05,5,14
21988,0.00013,-0.0001,0,0.00021,-8e-05,0.00031,0.0001,7e-05,5,14
21990,0.00013,-0.0001,0,0.00021,-8e-05,0.00031,0.0001,7e-05,5,14
21991,0.00013,-0.0001,0,0.00021,-8e-05,0.00031,0.0001,7e-05,5,14
21992,0.00013,-0.0001,0,0.00021,-8e-05,0.00031,0.0001,7e-05,5,14
21993,0,4e-05,-3e-05,-0.00038,0,5e-05,1e-05,1e-05,5,14
21994,0,-0.00017,-8e-05,0.00063,1e-05,-6e-05,4e-05,-4e-05,5,14
21995,0,-0.00017,-8e-05,0.00063,1e-05,-6e-05,4e-05,-4e-05,5,14
21996,0,-0.00017,-8e-05,0.00063,1e-05,-6e-05,4e-05,-4e-05,5,14
21997,0,-0.00017,-8e-05,0.00063,1e-05,-6e-05,4e-05,-4e-05,5,14
21998,0,-0.00017,-8e-05,0.00063,1e-05,-6e-05,4e-05,-4e-05,5,14
21999,0,-0.00017,-8e-05,0.00063,1e-05,-6e-05,4e-05,-4e-05,5,14
22000,0,-0.00017,-8e-05,0.00063,1e-05,-6e-05,4e-05,-4e-05,5,14
22001,0,-0.00017,-8e-05,0.00063,1e-05,-6e-05,4e-05,-4e-05,5,14
22002,0,-0.00017,-8e-05,0.00063,1e-05,-6e-05,4e-05,-4e-05,5,14
22003,0,-0.00017,-8e-05,0.00063,1e-05,-6e-05,4e-05,-4e-05,5,14
22004,0,-0.00017,-8e-05,0.00063,1e-05,-6e-05,4e-05,-4e-05,5,14
22005,0,-0.00017,-8e-05,0.00063,1e-05,-6e-05,4e-05,-4e-05,5,14
22006,0,-0.00017,-8e-05,0.00063,1e-05,-6e-05,4e-05,-4e-05,5,14
22007,0,-0.00017,-8e-05,0.00063,1e-05,-6e-05,4e-05,-4e-05,5,14
22008,0,-0.00017,-8e-05,0.00063,1e-05,-6e-05,4e-05,-4e-05,5,14
22009,0,-0.00017,-8e-05,0.00063,1e-05,-6e-05,4e-05,-4e-05,5,14
22010,6e-05,0.00013,-4e-05,-0.0002,5e-05,-5e-05,1e-05,5e-05,5,14
22011,-0.00047,-3e-05,-0.00017,-0.00039,-5e-05,0.00025,4e-05,0,5,14
22012,-0.00047,-3e-05,-0.00017,-0.00039,-5e-05,0.00025,4e-05,0,5,14
22013,-0.00047,-3e-05,-0.00017,-0.00039,-5e-05,0.00025,4e-05,0,5,14
22015,-0.00047,-3e-05,-0.00017,-0.00039,-5e-05,0.00025,4e-05,0,5,14
22016,-0.00047,-3e-05,-0.00017,-0.00039,-5e-05,0.00025,4e-05,0,5,14
22017,-0.00047,-3e-05,-0.00017,-0.00039,-5e-05,0.00025,4e-05,0,5,14
22018,-0.00047,-3e-05,-0.00017,-0.00039,-5e-05,0.00025,4e-05,0,5,14
22019,-0.00047,-3e-05,-0.00017,-0.00039,-5e-05,0.00025,4e-05,0,5,14
22020,-0.00047,-3e-05,-0.00017,-0.00039,-5e-05,0.00025,4e-05,0,5,14
22021,-0.00047,-3e-05,-0.00017,-0.00039,-5e-05,0.00025,4e-05,0,5,14
22022,-0.00047,-3e-05,-0.00017,-0.00039,-5e-05,0.00025,4e-05,0,5,14
22023,-0.00047,-3e-05,-0.00017,-0.00039,-5e-05,0.00025,4e-05,0,5,14
22024,-0.00047,-3e-05,-0.00017,-0.00039,-5e-05,0.00025,4e-05,0,5,14
22025,-0.00047,-3e-05,-0.00017,-0.00039,-5e-05,0.00025,4e-05,0,5,14
22026,-0.00047,-3e-05,-0.00017,-0.00039,-5e-05,0.00025,4e-05,0,5,14
22027,-0.00047,-3e-05,-0.00017,-0.00039,-5e-05,0.00025,4e-05,0,5,14
22028,-0.00047,-3e-05,-0.00017,-0.00039,-5e-05,0.00025,4e-05,0,5,14
22029,-0.00047,-3e-05,-0.00017,-0.00039,-5e-05,0.00025,4e-05,0,5,14
22030,-0.00047,-3e-05,-0.00017,-0.00039,-5e-05,0.00025,4e-05,0,5,14
22032,-0.00019,-0.00013,-6e-05,-0.00031,-4e-05,-0.00016,-7e-05,-7e-05,5,14
22033,-0.00019,-0.00013,-6e-05,-0.00031,-4e-05,-0.00016,-7e-05,-7e-05,5,14
22034,-0.00019,-0.00013,-6e-05,-0.00031,-4e-05,-0.00016,-7e-05,-7e-05,5,14
22035,-0.00019,-0.00013,-6e-05,-0.00031,-4e-05,-0.00016,-7e-05,-7e-05,5,14
22036,-0.00019,-0.00013,-6e-05,-0.00031,-4e-05,-0.00016,-7e-05,-7e-05,5,14
22038,1e-05,0.00018,2e-05,0.00023,1e-05,0.00019,1e-05,2e-05,5,14
22039,9e-05,-3e-05,-2e-05,-0.00017,-5e-05,-0.00028,-0.00011,-8e-05,5,14
22040,9e-05,-3e-05,-2e-05,-0.00017,-5e-05,-0.00028,-0.00011,-8e-05,5,14
22041,9e-05,-3e-05,-2e-05,-0.00017,-5e-05,-0.00028,-0.00011,-8e-05,5,14
22042,9e-05,-3e-05,-2e-05,-0.00017,-5e-05,-0.00028,-0.00011,-8e-05,5,14
22043,9e-05,-3e-05,-2e-05,-0.00017,-5e-05,-0.00028,-0.00011,-8e-05,5,14
22044,9e-05,-3e-05,-2e-05,-0.00017,-5e-05,-0.00028,-0.00011,-8e-05,5,14
22045,9e-05,-3e-05,-2e-05,-0.00017,-5e-05,-0.00028,-0.00011,-8e-05,5,14
22046,9e-05,-3e-05,-2e-05,-0.00017,-5e-05,-0.00028,-0.00011,-8e-05,5,14
22047,-8e-05,0,-3e-05,-0.00015,1e-05,-0.00015,-8e-05,-4e-05,5,14
22048,-8e-05,0,-3e-05,-0.00015,1e-05,-0.00015,-8e-05,-4e-05,5,14
22049,-8e-05,0,-3e-05,-0.00015,1e-05,-0.00015,-8e-05,-4e-05,5,14
22050,-8e-05,0,-3e-05,-0.00015,1e-05,-0.00015,-8e-05,-4e-05,5,14
22051,-8e-05,0,-3e-05,-0.00015,1e-05,-0.00015,-8e-05,-4e-05,5,14
22052,-8e-05,0,-3e-05,-0.00015,1e-05,-0.00015,-8e-05,-4e-05,5,14
22053,-8e-05,0,-3e-05,-0.00015,1e-05,-0.00015,-8e-05,-4e-05,5,14
22054,0.00013,0,0,-0.00026,0,-0.00027,-4e-05,0,5,14
22055,0.00013,0,0,-0.00026,0,-0.00027,-4e-05,0,5,14
22056,0.00013,0,0,-0.00026,0,-0.00027,-4e-05,0,5,14
22057,0.00013,0,0,-0.00026,0,-0.00027,-4e-05,0,5,14
22058,0.00013,0,0,-0.00026,0,-0.00027,-4e-05,0,5,14
22060,0.00013,0,0,-0.00026,0,-0.00027,-4e-05,0,5,14
22061,0.00013,0,0,-0.00026,0,-0.00027,-4e-05,0,5,14
22062,0.00013,0,0,-0.00026,0,-0.00027,-4e-05,0,5,14
22063,0.00013,0,0,-0.00026,0,-0.00027,-4e-05,0,5,14
22064,0.00013,0,0,-0.00026,0,-0.00027,-4e-05,0,5,14
22065,0.00013,0,0,-0.00026,0,-0.00027,-4e-05,0,5,14
22066,0.00013,0,0,-0.00026,0,-0.00027,-4e-05,0,5,14
22067,0.00013,0,0,-0.00026,0,-0.00027,-4e-05,0,5,14
22068,0.00013,0,0,-0.00026,0,-0.00027,-4e-05,0,5,14
22069,0.00013,0,0,-0.00026,0,-0.00027,-4e-05,0,5,14
22070,0.00017,6e-05,3e-05,0.00046,-4e-05,0.00023,0.00014,7e-05,5,14
22071,0.00017,6e-05,3e-05,0.00046,-4e-05,0.00023,0.00014,7e-05,5,14
22072,6e-05,0.0001,4e-05,-1e-05,3e-05,-3e-05,-3e-05,-6e-05,5,14
22073,6e-05,0.0001,4e-05,-1e-05,3e-05,-3e-05,-3e-05,-6e-05,5,14
22074,6e-05,0.0001,4e-05,-1e-05,3e-05,-3e-05,-3e-05,-6e-05,5,14
22075,6e-05,0.0001,4e-05,-1e-05,3e-05,-3e-05,-3e-05,-6e-05,5,14
22076,6e-05,0.0001,4e-05,-1e-05,3e-05,-3e-05,-3e-05,-6e-05,5,14
22077,6e-05,0.0001,4e-05,-1e-05,3e-05,-3e-05,-3e-05,-6e-05,5,14
22078,6e-05,0.0001,4e-05,-1e-05,3e-05,-3e-05,-3e-05,-6e-05,5,14
22079,6e-05,0.0001,4e-05,-1e-05,3e-05,-3e-05,-3e-05,-6e-05,5,14
22080,6e-05,0.0001,4e-05,-1e-05,3e-05,-3e-05,-3e-05,-6e-05,5,14
22081,6e-05,0.0001,4e-05,-1e-05,3e-05,-3e-05,-3e-05,-6e-05,5,14
22082,6e-05,0.0001,4e-05,-1e-05,3e-05,-3e-05,-3e-05,-6e-05,5,14
22083,6e-05,0.0001,4e-05,-1e-05,3e-05,-3e-05,-3e-05,-6e-05,5,14
22084,6e-05,0.0001,4e-05,-1e-05,3e-05,-3e-05,-3e-05,-6e-05,5,14
22085,6e-05,0.0001,4e-05,-1e-05,3e-05,-3e-05,-3e-05,-6e-05,5,14
22086,6e-05,0.0001,4e-05,-1e-05,3e-05,-3e-05,-3e-05,-6e-05,5,14
22088,6e-05,0.0001,4e-05,-1e-05,3e-05,-3e-05,-3e-05,-6e-05,5,14
22089,6e-05,0.0001,4e-05,-1e-05,3e-05,-3e-05,-3e-05,-6e-05,5,14
22090,6e-05,0.0001,4e-05,-1e-05,3e-05,-3e-05,-3e-05,-6e-05,5,14
22091,6e-05,0.0001,4e-05,-1e-05,3e-05,-3e-05,-3e-05,-6e-05,5,14
22092,6e-05,0.0001,4e-05,-1e-05,3e-05,-3e-05,-3e-05,-6e-05,5,14
22093,-7e-05,-0.00011,-6e-05,-0.00037,-2e-05,-0.00034,-9e-05,-2e-05,5,14
22094,-9e-05,-9e-05,0,8e-05,2e-05,9e-05,-1e-05,-4e-05,5,14
22095,-9e-05,-9e-05,0,8e-05,2e-05,9e-05,-1e-05,-4e-05,5,14
22096,-9e-05,-9e-05,0,8e-05,2e-05,9e-05,-1e-05,-4e-05,5,14
22097,-9e-05,-9e-05,0,8e-05,2e-05,9e-05,-1e-05,-4e-05,5,14
22098,-9e-05,-9e-05,0,8e-05,2e-05,9e-05,-1e-05,-4e-05,5,14
22099,-9e-05,-9e-05,0,8e-05,2e-05,9e-05,-1e-05,-4e-05,5,14
22100,-9e-05,-9e-05,0,8e-05,2e-05,9e-05,-1e-05,-4e-05,5,14
22101,-9e-05,-9e-05,0,8e-05,2e-05,9e-05,-1e-05,-4e-05,5,14
22102,-9e-05,-9e-05,0,8e-05,2e-05,9e-05,-1e-05,-4e-05,5,14
22103,-9e-05,-9e-05,0,8e-05,2e-05,9e-05,-1e-05,-4e-05,5,14
22104,-9e-05,-9e-05,0,8e-05,2e-05,9e-05,-1e-05,-4e-05,5,14
22105,-9e-05,-9e-05,0,8e-05,2e-05,9e-05,-1e-05,-4e-05,5,14
22106,-9e-05,-9e-05,0,8e-05,2e-05,9e-05,-1e-05,-4e-05,5,14
22107,-0.00015,-0.00012,-4e-05,0.00043,3e-05,-0.00016,-0.00011,-7e-05,5,14
22108,-0.00015,-0.00012,-4e-05,0.00043,3e-05,-0.00016,-0.00011,-7e-05,5,14
22109,-0.00015,-0.00012,-4e-05,0.00043,3e-05,-0.00016,-0.00011,-7e-05,5,14
22110,-0.00015,-0.00012,-4e-05,0.00043,3e-05,-0.00016,-0.00011,-7e-05,5,14
22111,-0.00015,-0.00012,-4e-05,0.00043,3e-05,-0.00016,-0.00011,-7e-05,5,14
22112,-0.00015,-0.00012,-4e-05,0.00043,3e-05,-0.00016,-0.00011,-7e-05,5,14
22113,-0.00015,-0.00012,-4e-05,0.00043,3e-05,-0.00016,-0.00011,-7e-05,5,14
22114,0.00017,1e-05,0,0,-8e-05,0.00017,-2e-05,-4e-05,5,14
22115,0.00017,1e-05,0,0,-8e-05,0.00017,-2e-05,-4e-05,5,14
22116,0.00017,1e-05,0,0,-8e-05,0.00017,-2e-05,-4e-05,5,14
22117,0.00017,1e-05,0,0,-8e-05,0.00017,-2e-05,-4e-05,5,14
22118,0.00017,1e-05,0,0,-8e-05,0.00017,-2e-05,-4e-05,5,14
22119,0.00017,1e-05,0,0,-8e-05,0.00017,-2e-05,-4e-05,5,14
22120,0.00017,1e-05,0,0,-8e-05,0.00017,-2e-05,-4e-05,5,14
22121,0.00017,1e-05,0,0,-8e-05,0.00017,-2e-05,-4e-05,5,14
22122,0.00017,1e-05,0,0,-8e-05,0.00017,-2e-05,-4e-05,5,14
22123,0.00017,1e-05,0,0,-8e-05,0.00017,-2e-05,-4e-05,5,14
22124,0.00017,1e-05,0,0,-8e-05,0.00017,-2e-05,-4e-05,5,14
22125,0.00017,1e-05,0,0,-8e-05,0.00017,-2e-05,-4e-05,5,14
22126,0.00017,1e-05,0,0,-8e-05,0.00017,-2e-05,-4e-05,5,14
22127,0.00017,1e-05,0,0,-8e-05,0.00017,-2e-05,-4e-05,5,14
22128,0.00017,1e-05,0,0,-8e-05,0.00017,-2e-05,-4e-05,5,14
22129,0.00017,1e-05,0,0,-8e-05,0.00017,-2e-05,-4e-05,5,14
22130,0.00013,0.00013,2e-05,-0.00025,6e-05,0.00029,8e-05,7e-05,5,14
22131,1e-05,-6e-05,-8e-05,-0.00014,-3e-05,-0.00024,1e-05,2e-05,5,14
22132,0.0002,0.00018,0.00012,0.00042,-4e-05,0.00053,0.00031,0.00018,5,14
22133,0.0002,0.00018,0.00012,0.00042,-4e-05,0.00053,0.00031,0.00018,5,14
22134,0.0002,0.00018,0.00012,0.00042,-4e-05,0.00053,0.00031,0.00018,5,14
22135,0.0002,0.00018,0.00012,0.00042,-4e-05,0.00053,0.00031,0.00018,5,14
22136,0.0002,0.00018,0.00012,0.00042,-4e-05,0.00053,0.00031,0.00018,5,14
22138,0.0002,0.00018,0.00012,0.00042,-4e-05,0.00053,0.00031,0.00018,5,14
22139,0.0002,0.00018,0.00012,0.00042,-4e-05,0.00053,0.00031,0.00018,5,14
22140,0.0002,0.00018,0.00012,0.00042,-4e-05,0.00053,0.00031,0.00018,5,14
22141,0.0002,0.00018,0.00012,0.00042,-4e-05,0.00053,0.00031,0.00018,5,14
22142,0.0002,0.00018,0.00012,0.00042,-4e-05,0.00053,0.00031,0.00018,5,14
22143,0.0002,0.00018,0.00012,0.00042,-4e-05,0.00053,0.00031,0.00018,5,14
22144,0.0002,0.00018,0.00012,0.00042,-4e-05,0.00053,0.00031,0.00018,5,14
22145,0.0002,0.00018,0.00012,0.00042,-4e-05,0.00053,0.00031,0.00018,5,14
22146,0.0002,0.00018,0.00012,0.00042,-4e-05,0.00053,0.00031,0.00018,5,14
22147,0.0002,0.00018,0.00012,0.00042,-4e-05,0.00053,0.00031,0.00018,5,14
22148,0.0002,0.00018,0.00012,0.00042,-4e-05,0.00053,0.00031,0.00018,5,14
22149,0.0002,0.00018,0.00012,0.00042,-4e-05,0.00053,0.00031,0.00018,5,14
22150,0.0002,0.00018,0.00012,0.00042,-4e-05,0.00053,0.00031,0.00018,5,14
22151,0.0002,0.00018,0.00012,0.00042,-4e-05,0.00053,0.00031,0.00018,5,14
22152,-5e-05,-5e-05,-7e-05,3e-05,1e-05,6e-05,-6e-05,-5e-05,5,14
22153,-5e-05,-5e-05,-7e-05,3e-05,1e-05,6e-05,-6e-05,-5e-05,5,14
22154,-0.0001,-9e-05,3e-05,-0.00018,-4e-05,-0.0002,-7e-05,-1e-05,5,14
22155,-0.0001,-9e-05,3e-05,-0.00018,-4e-05,-0.0002,-7e-05,-1e-05,5,14
22156,-0.0001,-9e-05,3e-05,-0.00018,-4e-05,-0.0002,-7e-05,-1e-05,5,14
22157,-0.0001,-9e-05,3e-05,-0.00018,-4e-05,-0.0002,-7e-05,-1e-05,5,14
22158,-0.0001,-9e-05,3e-05,-0.00018,-4e-05,-0.0002,-7e-05,-1e-05,5,14
22159,-0.0001,-9e-05,3e-05,-0.00018,-4e-05,-0.0002,-7e-05,-1e-05,5,14
22160,-0.0001,-9e-05,3e-05,-0.00018,-4e-05,-0.0002,-7e-05,-1e-05,5,14
22161,-0.0001,-9e-05,3e-05,-0.00018,-4e-05,-0.0002,-7e-05,-1e-05,5,14
22162,-0.0001,-9e-05,3e-05,-0.00018,-4e-05,-0.0002,-7e-05,-1e-05,5,14
22163,-0.0001,-9e-05,3e-05,-0.00018,-4e-05,-0.0002,-7e-05,-1e-05,5,14
22164,-0.0001,-9e-05,3e-05,-0.00018,-4e-05,-0.0002,-7e-05,-1e-05,5,14
22165,-0.0001,-9e-05,3e-05,-0.00018,-4e-05,-0.0002,-7e-05,-1e-05,5,14
22166,3e-05,2e-05,3e-05,9e-05,-9e-05,-2e-05,2e-05,-1e-05,5,14
22167,3e-05,2e-05,3e-05,9e-05,-9e-05,-2e-05,2e-05,-1e-05,5,14
22168,3e-05,2e-05,3e-05,9e-05,-9e-05,-2e-05,2e-05,-1e-05,5,14
22169,3e-05,2e-05,3e-05,9e-05,-9e-05,-2e-05,2e-05,-1e-05,5,14
22170,3e-05,2e-05,3e-05,9e-05,-9e-05,-2e-05,2e-05,-1e-05,5,14
22171,3e-05,2e-05,3e-05,9e-05,-9e-05,-2e-05,2e-05,-1e-05,5,14
22172,3e-05,2e-05,3e-05,9e-05,-9e-05,-2e-05,2e-05,-1e-05,5,14
22173,3e-05,2e-05,3e-05,9e-05,-9e-05,-2e-05,2e-05,-1e-05,5,14
22174,3e-05,2e-05,3e-05,9e-05,-9e-05,-2e-05,2e-05,-1e-05,5,14
22175,-0.00011,-7e-05,6e-05,0.0001,-3e-05,-6e-05,-8e-05,-9e-05,5,14
22176,-0.00011,-7e-05,6e-05,0.0001,-3e-05,-6e-05,-8e-05,-9e-05,5,14
22177,-0.00011,-7e-05,6e-05,0.0001,-3e-05,-6e-05,-8e-05,-9e-05,5,14
22178,-0.00011,-7e-05,6e-05,0.0001,-3e-05,-6e-05,-8e-05,-9e-05,5,14
22179,-0.00011,-7e-05,6e-05,0.0001,-3e-05,-6e-05,-8e-05,-9e-05,5,14
22180,-0.00011,-7e-05,6e-05,0.0001,-3e-05,-6e-05,-8e-05,-9e-05,5,14
22181,-0.00011,-7e-05,6e-05,0.0001,-3e-05,-6e-05,-8e-05,-9e-05,5,14
22182,-0.00011,-7e-05,6e-05,0.0001,-3e-05,-6e-05,-8e-05,-9e-05,5,14
22183,-0.00011,-7e-05,6e-05,0.0001,-3e-05,-6e-05,-8e-05,-9e-05,5,14
22184,-0.00011,-7e-05,6e-05,0.0001,-3e-05,-6e-05,-8e-05,-9e-05,5,14
22185,-0.00011,-7e-05,6e-05,0.0001,-3e-05,-6e-05,-8e-05,-9e-05,5,14
22186,-0.00011,-7e-05,6e-05,0.0001,-3e-05,-6e-05,-8e-05,-9e-05,5,14
22188,-0.00011,-7e-05,6e-05,0.0001,-3e-05,-6e-05,-8e-05,-9e-05,5,14
22189,-0.00011,-7e-05,6e-05,0.0001,-3e-05,-6e-05,-8e-05,-9e-05,5,14
22190,-6e-05,-4e-05,-5e-05,-8e-05,3e-05,-0.00024,-4e-05,-4e-05,5,14
22191,0.00014,6e-05,1e-05,0.00052,-2e-05,-0.00013,-5e-05,1e-05,5,14
22192,0.00014,6e-05,1e-05,0.00052,-2e-05,-0.00013,-5e-05,1e-05,5,14
22193,0.00014,6e-05,1e-05,0.00052,-2e-05,-0.00013,-5e-05,1e-05,5,14
22194,0.00014,6e-05,1e-05,0.00052,-2e-05,-0.00013,-5e-05,1e-05,5,14
22195,0.00014,6e-05,1e-05,0.00052,-2e-05,-0.00013,-5e-05,1e-05,5,14
22196,0.00014,6e-05,1e-05,0.00052,-2e-05,-0.00013,-5e-05,1e-05,5,14
22197,0.00014,6e-05,1e-05,0.00052,-2e-05,-0.00013,-5e-05,1e-05,5,14
22198,0.00014,6e-05,1e-05,0.00052,-2e-05,-0.00013,-5e-05,1e-05,5,14
22199,0.00014,6e-05,1e-05,0.00052,-2e-05,-0.00013,-5e-05,1e-05,5,14
22200,0.00014,6e-05,1e-05,0.00052,-2e-05,-0.00013,-5e-05,1e-05,5,14
22201,0.00014,6e-05,1e-05,0.00052,-2e-05,-0.00013,-5e-05,1e-05,5,14
22202,0.00014,6e-05,1e-05,0.00052,-2e-05,-0.00013,-5e-05,1e-05,5,14
22203,0.00014,6e-05,1e-05,0.00052,-2e-05,-0.00013,-5e-05,1e-05,5,14
22204,0.00014,6e-05,1e-05,0.00052,-2e-05,-0.00013,-5e-05,1e-05,5,14
22205,0.00014,6e-05,1e-05,0.00052,-2e-05,-0.00013,-5e-05,1e-05,5,14
22206,0.00014,6e-05,1e-05,0.00052,-2e-05,-0.00013,-5e-05,1e-05,5,14
22207,0.00014,6e-05,1e-05,0.00052,-2e-05,-0.00013,-5e-05,1e-05,5,14
22208,0.00014,6e-05,1e-05,0.00052,-2e-05,-0.00013,-5e-05,1e-05,5,14
22209,0.00014,6e-05,1e-05,0.00052,-2e-05,-0.00013,-5e-05,1e-05,5,14
22210,0.00014,6e-05,1e-05,0.00052,-2e-05,-0.00013,-5e-05,1e-05,5,14
22211,0.00014,6e-05,1e-05,0.00052,-2e-05,-0.00013,-5e-05,1e-05,5,14
22212,-0.00013,-6e-05,-2e-05,-0.00012,5e-05,-0.00014,2e-05,-4e-05,5,14
22213,4e-05,0,4e-05,-0.00018,2e-05,-0.00019,-7e-05,-2e-05,5,14
22214,7e-05,-1e-05,-0.00018,-0.00081,4e-05,5e-05,3e-05,2e-05,5,14
22215,7e-05,-1e-05,-0.00018,-0.00081,4e-05,5e-05,3e-05,2e-05,5,14
22216,7e-05,-1e-05,-0.00018,-0.00081,4e-05,5e-05,3e-05,2e-05,5,14
22217,7e-05,-1e-05,-0.00018,-0.00081,4e-05,5e-05,3e-05,2e-05,5,14
22218,7e-05,-1e-05,-0.00018,-0.00081,4e-05,5e-05,3e-05,2e-05,5,14
22219,7e-05,-1e-05,-0.00018,-0.00081,4e-05,5e-05,3e-05,2e-05,5,14
22220,7e-05,-1e-05,-0.00018,-0.00081,4e-05,5e-05,3e-05,2e-05,5,14
22221,7e-05,-1e-05,-0.00018,-0.00081,4e-05,5e-05,3e-05,2e-05,5,14
22222,7e-05,-1e-05,-0.00018,-0.00081,4e-05,5e-05,3e-05,2e-05,5,14
22223,7e-05,-1e-05,-0.00018,-0.00081,4e-05,5e-05,3e-05,2e-05,5,14
22224,7e-05,-1e-05,-0.00018,-0.00081,4e-05,5e-05,3e-05,2e-05,5,14
22225,7e-05,-1e-05,-0.00018,-0.00081,4e-05,5e-05,3e-05,2e-05,5,14
22226,3e-05,-4e-05,2e-05,0.0002,-7e-05,-9e-05,-4e-05,3e-05,5,14
22227,-1e-05,2e-05,-4e-05,0.00038,-0.0001,-6e-05,-9e-05,0,5,14
22228,-1e-05,2e-05,-4e-05,0.00038,-0.0001,-6e-05,-9e-05,0,5,14
22229,-1e-05,2e-05,-4e-05,0.00038,-0.0001,-6e-05,-9e-05,0,5,14
22230,-1e-05,2e-05,-4e-05,0.00038,-0.0001,-6e-05,-9e-05,0,5,14
22231,-1e-05,2e-05,-4e-05,0.00038,-0.0001,-6e-05,-9e-05,0,5,14
22232,-1e-05,2e-05,-4e-05,0.00038,-0.0001,-6e-05,-9e-05,0,5,14
22233,-1e-05,2e-05,-4e-05,0.00038,-0.0001,-6e-05,-9e-05,0,5,14
22234,-1e-05,2e-05,-4e-05,0.00038,-0.0001,-6e-05,-9e-05,0,5,14
22235,-5e-05,-5e-05,-0.00015,-8e-05,-2e-05,3e-05,-4e-05,-5e-05,5,14
22236,-5e-05,-5e-05,-0.00015,-8e-05,-2e-05,3e-05,-4e-05,-5e-05,5,14
22238,-5e-05,-5e-05,-0.00015,-8e-05,-2e-05,3e-05,-4e-05,-5e-05,5,14
22239,-5e-05,-5e-05,-0.00015,-8e-05,-2e-05,3e-05,-4e-05,-5e-05,5,14
22240,-5e-05,-5e-05,-0.00015,-8e-05,-2e-05,3e-05,-4e-05,-5e-05,5,14
22241,-5e-05,-5e-05,-0.00015,-8e-05,-2e-05,3e-05,-4e-05,-5e-05,5,14
22242,-5e-05,-5e-05,-0.00015,-8e-05,-2e-05,3e-05,-4e-05,-5e-05,5,14
22243,-5e-05,-5e-05,-0.00015,-8e-05,-2e-05,3e-05,-4e-05,-5e-05,5,14
22244,-5e-05,-5e-05,-0.00015,-8e-05,-2e-05,3e-05,-4e-05,-5e-05,5,14
22245,-5e-05,-5e-05,-0.00015,-8e-05,-2e-05,3e-05,-4e-05,-5e-05,5,14
22246,-5e-05,-5e-05,-0.00015,-8e-05,-2e-05,3e-05,-4e-05,-5e-05,5,14
22247,-5e-05,-5e-05,-0.00015,-8e-05,-2e-05,3e-05,-4e-05,-5e-05,5,14
22248,-5e-05,-5e-05,-0.00015,-8e-05,-2e-05,3e-05,-4e-05,-5e-05,5,14
22249,-5e-05,-5e-05,-0.00015,-8e-05,-2e-05,3e-05,-4e-05,-5e-05,5,14
22250,-0.00012,-0.00013,-0.00023,-0.00057,-5e-05,-0.00014,-0.00011,-0.0001,5,14
22251,-7e-05,-0.00014,-9e-05,0.00032,-0.00011,7e-05,-2e-05,-3e-05,5,14
22252,2e-05,1e-05,-3e-05,-0.00013,-2e-05,-1e-05,-0.00011,-2e-05,5,14
22253,2e-05,1e-05,-3e-05,-0.00013,-2e-05,-1e-05,-0.00011,-2e-05,5,14
22254,2e-05,1e-05,-3e-05,-0.00013,-2e-05,-1e-05,-0.00011,-2e-05,5,14
22255,2e-05,1e-05,-3e-05,-0.00013,-2e-05,-1e-05,-0.00011,-2e-05,5,14
22256,2e-05,1e-05,-3e-05,-0.00013,-2e-05,-1e-05,-0.00011,-2e-05,5,14
22257,2e-05,1e-05,-3e-05,-0.00013,-2e-05,-1e-05,-0.00011,-2e-05,5,14
22258,2e-05,1e-05,-3e-05,-0.00013,-2e-05,-1e-05,-0.00011,-2e-05,5,14
22259,2e-05,1e-05,-3e-05,-0.00013,-2e-05,-1e-05,-0.00011,-2e-05,5,14
22260,2e-05,1e-05,-3e-05,-0.00013,-2e-05,-1e-05,-0.00011,-2e-05,5,14
22261,2e-05,1e-05,-3e-05,-0.00013,-2e-05,-1e-05,-0.00011,-2e-05,5,14
22262,2e-05,1e-05,-3e-05,-0.00013,-2e-05,-1e-05,-0.00011,-2e-05,5,14
22263,2e-05,1e-05,-3e-05,-0.00013,-2e-05,-1e-05,-0.00011,-2e-05,5,14
22264,2e-05,1e-05,-3e-05,-0.00013,-2e-05,-1e-05,-0.00011,-2e-05,5,14
22265,2e-05,1e-05,-3e-05,-0.00013,-2e-05,-1e-05,-0.00011,-2e-05,5,14
22266,2e-05,1e-05,-3e-05,-0.00013,-2e-05,-1e-05,-0.00011,-2e-05,5,14
22267,2e-05,1e-05,-3e-05,-0.00013,-2e-05,-1e-05,-0.00011,-2e-05,5,14
22268,2e-05,1e-05,-3e-05,-0.00013,-2e-05,-1e-05,-0.00011,-2e-05,5,14
22269,2e-05,1e-05,-3e-05,-0.00013,-2e-05,-1e-05,-0.00011,-2e-05,5,14
22270,2e-05,1e-05,-3e-05,-0.00013,-2e-05,-1e-05,-0.00011,-2e-05,5,14
22271,2e-05,1e-05,-3e-05,-0.00013,-2e-05,-1e-05,-0.00011,-2e-05,5,14
22272,-1e-05,-3e-05,8e-05,0.00032,-8e-05,0.00014,9e-05,6e-05,5,14
22273,-1e-05,-3e-05,8e-05,0.00032,-8e-05,0.00014,9e-05,6e-05,5,14
22274,-1e-05,-3e-05,-7e-05,-0.00026,1e-05,-9e-05,-5e-05,-4e-05,5,14
22275,-1e-05,-3e-05,-7e-05,-0.00026,1e-05,-9e-05,-5e-05,-4e-05,5,14
22276,-1e-05,-3e-05,-7e-05,-0.00026,1e-05,-9e-05,-5e-05,-4e-05,5,14
22277,-1e-05,-3e-05,-7e-05,-0.00026,1e-05,-9e-05,-5e-05,-4e-05,5,14
22278,-1e-05,-3e-05,-7e-05,-0.00026,1e-05,-9e-05,-5e-05,-4e-05,5,14
22279,-1e-05,-3e-05,-7e-05,-0.00026,1e-05,-9e-05,-5e-05,-4e-05,5,14
22280,-1e-05,-3e-05,-7e-05,-0.00026,1e-05,-9e-05,-5e-05,-4e-05,5,14
22281,-1e-05,-3e-05,-7e-05,-0.00026,1e-05,-9e-05,-5e-05,-4e-05,5,14
22282,-1e-05,-3e-05,-7e-05,-0.00026,1e-05,-9e-05,-5e-05,-4e-05,5,14
22283,-1e-05,-3e-05,-7e-05,-0.00026,1e-05,-9e-05,-5e-05,-4e-05,5,14
22284,-1e-05,-3e-05,-7e-05,-0.00026,1e-05,-9e-05,-5e-05,-4e-05,5,14
22285,-1e-05,-3e-05,-7e-05,-0.00026,1e-05,-9e-05,-5e-05,-4e-05,5,14
22286,-1e-05,-3e-05,-7e-05,-0.00026,1e-05,-9e-05,-5e-05,-4e-05,5,14
22288,-1e-05,-3e-05,-7e-05,-0.00026,1e-05,-9e-05,-5e-05,-4e-05,5,14
22289,-4e-05,-8e-05,9e-05,0.00012,3e-05,0.00029,5e-05,-8e-05,5,14
22290,-4e-05,-8e-05,9e-05,0.00012,3e-05,0.00029,5e-05,-8e-05,5,14
22291,-4e-05,-8e-05,9e-05,0.00012,3e-05,0.00029,5e-05,-8e-05,5,14
22292,-4e-05,-8e-05,9e-05,0.00012,3e-05,0.00029,5e-05,-8e-05,5,14
22294,-4e-05,-8e-05,9e-05,0.00012,3e-05,0.00029,5e-05,-8e-05,5,14
22296,-4e-05,-8e-05,9e-05,0.00012,3e-05,0.00029,5e-05,-8e-05,5,14
22297,-9e-05,-5e-05,-6e-05,-0.00017,6e-05,1e-05,-4e-05,0,5,14
22298,-9e-05,-5e-05,-6e-05,-0.00017,6e-05,1e-05,-4e-05,0,5,14
22299,-9e-05,-5e-05,-6e-05,-0.00017,6e-05,1e-05,-4e-05,0,5,14
22300,-9e-05,-5e-05,-6e-05,-0.00017,6e-05,1e-05,-4e-05,0,5,14
22301,-9e-05,-5e-05,-6e-05,-0.00017,6e-05,1e-05,-4e-05,0,5,14
22302,-9e-05,-5e-05,-6e-05,-0.00017,6e-05,1e-05,-4e-05,0,5,14
22303,-9e-05,-5e-05,-6e-05,-0.00017,6e-05,1e-05,-4e-05,0,5,14
22304,-9e-05,-5e-05,-6e-05,-0.00017,6e-05,1e-05,-4e-05,0,5,14
22305,-9e-05,-5e-05,-6e-05,-0.00017,6e-05,1e-05,-4e-05,0,5,14
22306,-9e-05,-5e-05,-6e-05,-0.00017,6e-05,1e-05,-4e-05,0,5,14
22307,-9e-05,-5e-05,-6e-05,-0.00017,6e-05,1e-05,-4e-05,0,5,14
22308,-9e-05,-5e-05,-6e-05,-0.00017,6e-05,1e-05,-4e-05,0,5,14
22309,-9e-05,-5e-05,-6e-05,-0.00017,6e-05,1e-05,-4e-05,0,5,14
22310,1e-05,3e-05,1e-05,-0.00016,7e-05,5e-05,1e-05,-4e-05,5,14
22311,1e-05,3e-05,1e-05,-0.00016,7e-05,5e-05,1e-05,-4e-05,5,14
22312,-9e-05,4e-05,9e-05,-0.00024,8e-05,-0.00016,-0.00012,-9e-05,5,14
22313,-9e-05,4e-05,9e-05,-0.00024,8e-05,-0.00016,-0.00012,-9e-05,5,14
22314,-9e-05,4e-05,9e-05,-0.00024,8e-05,-0.00016,-0.00012,-9e-05,5,14
22315,-9e-05,4e-05,9e-05,-0.00024,8e-05,-0.00016,-0.00012,-9e-05,5,14
22316,-9e-05,4e-05,9e-05,-0.00024,8e-05,-0.00016,-0.00012,-9e-05,5,14
22317,-9e-05,4e-05,9e-05,-0.00024,8e-05,-0.00016,-0.00012,-9e-05,5,14
22318,-9e-05,4e-05,9e-05,-0.00024,8e-05,-0.00016,-0.00012,-9e-05,5,14
22319,-9e-05,4e-05,9e-05,-0.00024,8e-05,-0.00016,-0.00012,-9e-05,5,14
22320,-9e-05,4e-05,9e-05,-0.00024,8e-05,-0.00016,-0.00012,-9e-05,5,14
22321,-9e-05,4e-05,9e-05,-0.00024,8e-05,-0.00016,-0.00012,-9e-05,5,14
22322,-9e-05,4e-05,9e-05,-0.00024,8e-05,-0.00016,-0.00012,-9e-05,5,14
22323,-9e-05,4e-05,9e-05,-0.00024,8e-05,-0.00016,-0.00012,-9e-05,5,14
22324,-9e-05,4e-05,9e-05,-0.00024,8e-05,-0.00016,-0.00012,-9e-05,5,14
22325,-9e-05,4e-05,9e-05,-0.00024,8e-05,-0.00016,-0.00012,-9e-05,5,14
22326,-9e-05,4e-05,9e-05,-0.00024,8e-05,-0.00016,-0.00012,-9e-05,5,14
22327,-9e-05,4e-05,9e-05,-0.00024,8e-05,-0.00016,-0.00012,-9e-05,5,14
22328,-9e-05,4e-05,9e-05,-0.00024,8e-05,-0.00016,-0.00012,-9e-05,5,14
22329,-9e-05,4e-05,9e-05,-0.00024,8e-05,-0.00016,-0.00012,-9e-05,5,14
22330,-9e-05,4e-05,9e-05,-0.00024,8e-05,-0.00016,-0.00012,-9e-05,5,14
22331,-9e-05,4e-05,9e-05,-0.00024,8e-05,-0.00016,-0.00012,-9e-05,5,14
22332,0,1e-05,-7e-05,0.00072,1e-05,0.0005,1e-05,3e-05,5,14
22333,0,1e-05,-7e-05,0.00072,1e-05,0.0005,1e-05,3e-05,5,14
22334,0.00015,8e-05,0.00012,0.00057,-0.0001,0.00014,0.00015,0.00012,5,14
22335,0.00015,8e-05,0.00012,0.00057,-0.0001,0.00014,0.00015,0.00012,5,14
22336,0.00015,8e-05,0.00012,0.00057,-0.0001,0.00014,0.00015,0.00012,5,14
22338,0.00015,8e-05,0.00012,0.00057,-0.0001,0.00014,0.00015,0.00012,5,14
22339,0.00015,8e-05,0.00012,0.00057,-0.0001,0.00014,0.00015,0.00012,5,14
22340,0.00015,8e-05,0.00012,0.00057,-0.0001,0.00014,0.00015,0.00012,5,14
22341,0.00015,8e-05,0.00012,0.00057,-0.0001,0.00014,0.00015,0.00012,5,14
22342,0.00015,8e-05,0.00012,0.00057,-0.0001,0.00014,0.00015,0.00012,5,14
22343,0.00015,8e-05,0.00012,0.00057,-0.0001,0.00014,0.00015,0.00012,5,14
22344,0.00015,8e-05,0.00012,0.00057,-0.0001,0.00014,0.00015,0.00012,5,14
22345,0.00015,8e-05,0.00012,0.00057,-0.0001,0.00014,0.00015,0.00012,5,14
22346,7e-05,5e-05,-4e-05,-0.00039,5e-05,-5e-05,0,2e-05,5,14
22347,7e-05,5e-05,-4e-05,-0.00039,5e-05,-5e-05,0,2e-05,5,14
22348,7e-05,5e-05,-4e-05,-0.00039,5e-05,-5e-05,0,2e-05,5,14
22349,7e-05,5e-05,-4e-05,-0.00039,5e-05,-5e-05,0,2e-05,5,14
22350,7e-05,5e-05,-4e-05,-0.00039,5e-05,-5e-05,0,2e-05,5,14
22351,7e-05,5e-05,-4e-05,-0.00039,5e-05,-5e-05,0,2e-05,5,14
22352,7e-05,5e-05,-4e-05,-0.00039,5e-05,-5e-05,0,2e-05,5,14
22353,7e-05,5e-05,-4e-05,-0.00039,5e-05,-5e-05,0,2e-05,5,14
22354,7e-05,5e-05,-4e-05,-0.00039,5e-05,-5e-05,0,2e-05,5,14
22355,0,-7e-05,-7e-05,-0.0002,0,3e-05,3e-05,-1e-05,5,14
22356,0,-7e-05,-7e-05,-0.0002,0,3e-05,3e-05,-1e-05,5,14
22357,0,-7e-05,-7e-05,-0.0002,0,3e-05,3e-05,-1e-05,5,14
22358,0,-7e-05,-7e-05,-0.0002,0,3e-05,3e-05,-1e-05,5,14
22359,0,-7e-05,-7e-05,-0.0002,0,3e-05,3e-05,-1e-05,5,14
22360,0,-7e-05,-7e-05,-0.0002,0,3e-05,3e-05,-1e-05,5,14
22361,0,-7e-05,-7e-05,-0.0002,0,3e-05,3e-05,-1e-05,5,14
22362,0,-7e-05,-7e-05,-0.0002,0,3e-05,3e-05,-1e-05,5,14
22363,0,-7e-05,-7e-05,-0.0002,0,3e-05,3e-05,-1e-05,5,14
22364,0,-7e-05,-7e-05,-0.0002,0,3e-05,3e-05,-1e-05,5,14
22365,0,-7e-05,-7e-05,-0.0002,0,3e-05,3e-05,-1e-05,5,14
22366,0,-7e-05,-7e-05,-0.0002,0,3e-05,3e-05,-1e-05,5,14
22367,0,-7e-05,-7e-05,-0.0002,0,3e-05,3e-05,-1e-05,5,14
22368,0,-7e-05,-7e-05,-0.0002,0,3e-05,3e-05,-1e-05,5,14
22369,0,-7e-05,-7e-05,-0.0002,0,3e-05,3e-05,-1e-05,5,14
22370,-9e-05,9e-05,7e-05,0.00023,-1e-05,-2e-05,3e-05,4e-05,5,14
22371,-9e-05,9e-05,7e-05,0.00023,-1e-05,-2e-05,3e-05,4e-05,5,14
22372,-6e-05,0.00017,3e-05,0.00038,-4e-05,0.00014,5e-05,2e-05,5,14
22373,-6e-05,0.00017,3e-05,0.00038,-4e-05,0.00014,5e-05,2e-05,5,14
22374,-6e-05,0.00017,3e-05,0.00038,-4e-05,0.00014,5e-05,2e-05,5,14
22375,-6e-05,0.00017,3e-05,0.00038,-4e-05,0.00014,5e-05,2e-05,5,14
22376,-6e-05,0.00017,3e-05,0.00038,-4e-05,0.00014,5e-05,2e-05,5,14
22377,-6e-05,0.00017,3e-05,0.00038,-4e-05,0.00014,5e-05,2e-05,5,14
22378,-6e-05,0.00017,3e-05,0.00038,-4e-05,0.00014,5e-05,2e-05,5,14
22379,-6e-05,0.00017,3e-05,0.00038,-4e-05,0.00014,5e-05,2e-05,5,14
22380,-6e-05,0.00017,3e-05,0.00038,-4e-05,0.00014,5e-05,2e-05,5,14
22381,-6e-05,0.00017,3e-05,0.00038,-4e-05,0.00014,5e-05,2e-05,5,14
22382,-6e-05,0.00017,3e-05,0.00038,-4e-05,0.00014,5e-05,2e-05,5,14
22383,-6e-05,0.00017,3e-05,0.00038,-4e-05,0.00014,5e-05,2e-05,5,14
22384,-6e-05,0.00017,3e-05,0.00038,-4e-05,0.00014,5e-05,2e-05,5,14
22385,-6e-05,0.00017,3e-05,0.00038,-4e-05,0.00014,5e-05,2e-05,5,14
22386,-6e-05,0.00017,3e-05,0.00038,-4e-05,0.00014,5e-05,2e-05,5,14
22389,-6e-05,0.00017,3e-05,0.00038,-4e-05,0.00014,5e-05,2e-05,5,14
22390,-6e-05,0.00017,3e-05,0.00038,-4e-05,0.00014,5e-05,2e-05,5,14
22391,-6e-05,0.00017,3e-05,0.00038,-4e-05,0.00014,5e-05,2e-05,5,14
22392,-0.00012,0,-5e-05,-0.00031,1e-05,-7e-05,-1e-05,-3e-05,5,14
22393,-0.00012,0,-5e-05,-0.00031,1e-05,-7e-05,-1e-05,-3e-05,5,14
22394,-0.00012,0,-5e-05,-0.00031,1e-05,-7e-05,-1e-05,-3e-05,5,14
22395,-3e-05,-6e-05,3e-05,0.00014,-3e-05,9e-05,6e-05,3e-05,5,14
22396,-3e-05,-6e-05,3e-05,0.00014,-3e-05,9e-05,6e-05,3e-05,5,14
22397,-3e-05,-6e-05,3e-05,0.00014,-3e-05,9e-05,6e-05,3e-05,5,14
22398,-3e-05,-6e-05,3e-05,0.00014,-3e-05,9e-05,6e-05,3e-05,5,14
22400,-3e-05,-6e-05,3e-05,0.00014,-3e-05,9e-05,6e-05,3e-05,5,14
22401,-3e-05,-6e-05,3e-05,0.00014,-3e-05,9e-05,6e-05,3e-05,5,14
22402,-3e-05,-6e-05,3e-05,0.00014,-3e-05,9e-05,6e-05,3e-05,5,14
22403,-3e-05,-6e-05,3e-05,0.00014,-3e-05,9e-05,6e-05,3e-05,5,14
22404,-3e-05,-6e-05,3e-05,0.00014,-3e-05,9e-05,6e-05,3e-05,5,14
22405,-3e-05,-6e-05,3e-05,0.00014,-3e-05,9e-05,6e-05,3e-05,5,14
22406,0.00011,7e-05,1e-05,-0.00033,-0.00011,-2e-05,9e-05,7e-05,5,14
22407,0.00011,7e-05,1e-05,-0.00033,-0.00011,-2e-05,9e-05,7e-05,5,14
22408,0.00011,7e-05,1e-05,-0.00033,-0.00011,-2e-05,9e-05,7e-05,5,14
22409,0.00011,7e-05,1e-05,-0.00033,-0.00011,-2e-05,9e-05,7e-05,5,14
22410,0.00011,7e-05,1e-05,-0.00033,-0.00011,-2e-05,9e-05,7e-05,5,14
22411,0.00011,7e-05,1e-05,-0.00033,-0.00011,-2e-05,9e-05,7e-05,5,14
22412,0.00011,7e-05,1e-05,-0.00033,-0.00011,-2e-05,9e-05,7e-05,5,14
22413,0.00011,7e-05,1e-05,-0.00033,-0.00011,-2e-05,9e-05,7e-05,5,14
22414,0.00011,7e-05,1e-05,-0.00033,-0.00011,-2e-05,9e-05,7e-05,5,14
22415,4e-05,-5e-05,-2e-05,0.00018,0,-4e-05,-9e-05,-6e-05,5,14
22416,4e-05,-5e-05,-2e-05,0.00018,0,-4e-05,-9e-05,-6e-05,5,14
22417,4e-05,-5e-05,-2e-05,0.00018,0,-4e-05,-9e-05,-6e-05,5,14
22418,4e-05,-5e-05,-2e-05,0.00018,0,-4e-05,-9e-05,-6e-05,5,14
22419,4e-05,-5e-05,-2e-05,0.00018,0,-4e-05,-9e-05,-6e-05,5,14
22420,4e-05,-5e-05,-2e-05,0.00018,0,-4e-05,-9e-05,-6e-05,5,14
22421,4e-05,-5e-05,-2e-05,0.00018,0,-4e-05,-9e-05,-6e-05,5,14
22422,4e-05,-5e-05,-2e-05,0.00018,0,-4e-05,-9e-05,-6e-05,5,14
22423,4e-05,-5e-05,-2e-05,0.00018,0,-4e-05,-9e-05,-6e-05,5,14
22424,4e-05,-5e-05,-2e-05,0.00018,0,-4e-05,-9e-05,-6e-05,5,14
22425,4e-05,-5e-05,-2e-05,0.00018,0,-4e-05,-9e-05,-6e-05,5,14
22426,4e-05,-5e-05,-2e-05,0.00018,0,-4e-05,-9e-05,-6e-05,5,14
22427,4e-05,-5e-05,-2e-05,0.00018,0,-4e-05,-9e-05,-6e-05,5,14
22428,4e-05,-5e-05,-2e-05,0.00018,0,-4e-05,-9e-05,-6e-05,5,14
22429,4e-05,-5e-05,-2e-05,0.00018,0,-4e-05,-9e-05,-6e-05,5,14
22430,0.00011,0,8e-05,7e-05,-3e-05,-1e-05,7e-05,5e-05,5,14
22431,-1e-05,-2e-05,1e-05,0.00012,-3e-05,-0.00023,-2e-05,-2e-05,5,14
22432,-1e-05,-2e-05,1e-05,0.00012,-3e-05,-0.00023,-2e-05,-2e-05,5,14
22433,-1e-05,-2e-05,1e-05,0.00012,-3e-05,-0.00023,-2e-05,-2e-05,5,14
22434,-1e-05,-2e-05,1e-05,0.00012,-3e-05,-0.00023,-2e-05,-2e-05,5,14
22435,-1e-05,-2e-05,1e-05,0.00012,-3e-05,-0.00023,-2e-05,-2e-05,5,14
22436,-1e-05,-2e-05,1e-05,0.00012,-3e-05,-0.00023,-2e-05,-2e-05,5,14
22438,-1e-05,-2e-05,1e-05,0.00012,-3e-05,-0.00023,-2e-05,-2e-05,5,14
22439,-1e-05,-2e-05,1e-05,0.00012,-3e-05,-0.00023,-2e-05,-2e-05,5,14
22440,-1e-05,-2e-05,1e-05,0.00012,-3e-05,-0.00023,-2e-05,-2e-05,5,14
22441,-1e-05,-2e-05,1e-05,0.00012,-3e-05,-0.00023,-2e-05,-2e-05,5,14
22442,-1e-05,-2e-05,1e-05,0.00012,-3e-05,-0.00023,-2e-05,-2e-05,5,14
22443,-1e-05,-2e-05,1e-05,0.00012,-3e-05,-0.00023,-2e-05,-2e-05,5,14
22444,-1e-05,-2e-05,1e-05,0.00012,-3e-05,-0.00023,-2e-05,-2e-05,5,14
22445,-1e-05,-2e-05,1e-05,0.00012,-3e-05,-0.00023,-2e-05,-2e-05,5,14
22446,-1e-05,-2e-05,1e-05,0.00012,-3e-05,-0.00023,-2e-05,-2e-05,5,14
22447,-1e-05,-2e-05,1e-05,0.00012,-3e-05,-0.00023,-2e-05,-2e-05,5,14
22448,-1e-05,-2e-05,1e-05,0.00012,-3e-05,-0.00023,-2e-05,-2e-05,5,14
22449,-1e-05,-2e-05,1e-05,0.00012,-3e-05,-0.00023,-2e-05,-2e-05,5,14
22450,-1e-05,-2e-05,1e-05,0.00012,-3e-05,-0.00023,-2e-05,-2e-05,5,14
22451,-1e-05,-2e-05,1e-05,0.00012,-3e-05,-0.00023,-2e-05,-2e-05,5,14
22452,5e-05,8e-05,0.00017,0.00018,-6e-05,0.00027,4e-05,3e-05,5,14
22453,5e-05,8e-05,0.00017,0.00018,-6e-05,0.00027,4e-05,3e-05,5,14
22454,4e-05,1e-05,-9e-05,-0.00028,1e-05,-6e-05,0,-2e-05,5,14
22455,4e-05,1e-05,-9e-05,-0.00028,1e-05,-6e-05,0,-2e-05,5,14
22456,4e-05,1e-05,-9e-05,-0.00028,1e-05,-6e-05,0,-2e-05,5,14
22457,4e-05,1e-05,-9e-05,-0.00028,1e-05,-6e-05,0,-2e-05,5,14
22458,4e-05,1e-05,-9e-05,-0.00028,1e-05,-6e-05,0,-2e-05,5,14
22459,4e-05,1e-05,-9e-05,-0.00028,1e-05,-6e-05,0,-2e-05,5,14
22460,4e-05,1e-05,-9e-05,-0.00028,1e-05,-6e-05,0,-2e-05,5,14
22461,4e-05,1e-05,-9e-05,-0.00028,1e-05,-6e-05,0,-2e-05,5,14
22462,4e-05,1e-05,-9e-05,-0.00028,1e-05,-6e-05,0,-2e-05,5,14
22463,4e-05,1e-05,-9e-05,-0.00028,1e-05,-6e-05,0,-2e-05,5,14
22464,4e-05,1e-05,-9e-05,-0.00028,1e-05,-6e-05,0,-2e-05,5,14
22465,4e-05,1e-05,-9e-05,-0.00028,1e-05,-6e-05,0,-2e-05,5,14
22466,-0.0001,6e-05,-5e-05,-6e-05,4e-05,-0.00033,-8e-05,-3e-05,5,14
22467,-0.0001,6e-05,-5e-05,-6e-05,4e-05,-0.00033,-8e-05,-3e-05,5,14
22468,-0.0001,6e-05,-5e-05,-6e-05,4e-05,-0.00033,-8e-05,-3e-05,5,14
22469,-0.0001,6e-05,-5e-05,-6e-05,4e-05,-0.00033,-8e-05,-3e-05,5,14
22470,-0.0001,6e-05,-5e-05,-6e-05,4e-05,-0.00033,-8e-05,-3e-05,5,14
22471,-0.0001,6e-05,-5e-05,-6e-05,4e-05,-0.00033,-8e-05,-3e-05,5,14
22472,-0.0001,6e-05,-5e-05,-6e-05,4e-05,-0.00033,-8e-05,-3e-05,5,14
22473,-0.0001,6e-05,-5e-05,-6e-05,4e-05,-0.00033,-8e-05,-3e-05,5,14
22474,-0.0001,6e-05,-5e-05,-6e-05,4e-05,-0.00033,-8e-05,-3e-05,5,14
22475,4e-05,-0.00011,-0.00011,-0.00037,3e-05,-0.00018,-4e-05,-2e-05,5,14
22476,4e-05,-0.00011,-0.00011,-0.00037,3e-05,-0.00018,-4e-05,-2e-05,5,14
22477,4e-05,-0.00011,-0.00011,-0.00037,3e-05,-0.00018,-4e-05,-2e-05,5,14
22478,4e-05,-0.00011,-0.00011,-0.00037,3e-05,-0.00018,-4e-05,-2e-05,5,14
22479,4e-05,-0.00011,-0.00011,-0.00037,3e-05,-0.00018,-4e-05,-2e-05,5,14
22480,4e-05,-0.00011,-0.00011,-0.00037,3e-05,-0.00018,-4e-05,-2e-05,5,14
22481,4e-05,-0.00011,-0.00011,-0.00037,3e-05,-0.00018,-4e-05,-2e-05,5,14
22482,4e-05,-0.00011,-0.00011,-0.00037,3e-05,-0.00018,-4e-05,-2e-05,5,14
22483,4e-05,-0.00011,-0.00011,-0.00037,3e-05,-0.00018,-4e-05,-2e-05,5,14
22484,4e-05,-0.00011,-0.00011,-0.00037,3e-05,-0.00018,-4e-05,-2e-05,5,14
22485,4e-05,-0.00011,-0.00011,-0.00037,3e-05,-0.00018,-4e-05,-2e-05,5,14
22486,4e-05,-0.00011,-0.00011,-0.00037,3e-05,-0.00018,-4e-05,-2e-05,5,14
22490,-2e-05,-0.00024,-2e-05,0.0003,0,-0.00017,4e-05,-4e-05,5,14
22491,-2e-05,-0.00024,-2e-05,0.0003,0,-0.00017,4e-05,-4e-05,5,14
22492,0.00019,5e-05,4e-05,4e-05,3e-05,0.00013,2e-05,2e-05,5,14
22493,0.00019,5e-05,4e-05,4e-05,3e-05,0.00013,2e-05,2e-05,5,14
22494,0.00019,5e-05,4e-05,4e-05,3e-05,0.00013,2e-05,2e-05,5,14
22495,0.00019,5e-05,4e-05,4e-05,3e-05,0.00013,2e-05,2e-05,5,14
22496,0.00019,5e-05,4e-05,4e-05,3e-05,0.00013,2e-05,2e-05,5,14
22497,0.00019,5e-05,4e-05,4e-05,3e-05,0.00013,2e-05,2e-05,5,14
22498,0.00019,5e-05,4e-05,4e-05,3e-05,0.00013,2e-05,2e-05,5,14
22499,0.00019,5e-05,4e-05,4e-05,3e-05,0.00013,2e-05,2e-05,5,14
22500,0.00019,5e-05,4e-05,4e-05,3e-05,0.00013,2e-05,2e-05,5,14
22501,0.00019,5e-05,4e-05,4e-05,3e-05,0.00013,2e-05,2e-05,5,14
22502,0.00019,5e-05,4e-05,4e-05,3e-05,0.00013,2e-05,2e-05,5,14
22503,0.00019,5e-05,4e-05,4e-05,3e-05,0.00013,2e-05,2e-05,5,14
22504,0.00019,5e-05,4e-05,4e-05,3e-05,0.00013,2e-05,2e-05,5,14
22505,0.00019,5e-05,4e-05,4e-05,3e-05,0.00013,2e-05,2e-05,5,14
22506,0.00019,5e-05,4e-05,4e-05,3e-05,0.00013,2e-05,2e-05,5,14
22507,0.00019,5e-05,4e-05,4e-05,3e-05,0.00013,2e-05,2e-05,5,14
22508,0.00019,5e-05,4e-05,4e-05,3e-05,0.00013,2e-05,2e-05,5,14
22509,0.00019,5e-05,4e-05,4e-05,3e-05,0.00013,2e-05,2e-05,5,14
22510,0.00019,5e-05,4e-05,4e-05,3e-05,0.00013,2e-05,2e-05,5,14
22511,0.00019,5e-05,4e-05,4e-05,3e-05,0.00013,2e-05,2e-05,5,14
22512,0.00019,5e-05,4e-05,4e-05,3e-05,0.00013,2e-05,2e-05,5,14
22513,-4e-05,-6e-05,-8e-05,0.00037,-0.00013,0.00032,8e-05,-2e-05,5,14
22514,-1e-05,1e-05,5e-05,0.00039,2e-05,0.00012,3e-05,0,5,14
22515,-1e-05,1e-05,5e-05,0.00039,2e-05,0.00012,3e-05,0,5,14
22516,-1e-05,1e-05,5e-05,0.00039,2e-05,0.00012,3e-05,0,5,14
22517,-1e-05,1e-05,5e-05,0.00039,2e-05,0.00012,3e-05,0,5,14
22518,-1e-05,1e-05,5e-05,0.00039,2e-05,0.00012,3e-05,0,5,14
22519,-1e-05,1e-05,5e-05,0.00039,2e-05,0.00012,3e-05,0,5,14
22520,-1e-05,1e-05,5e-05,0.00039,2e-05,0.00012,3e-05,0,5,14
22521,-1e-05,1e-05,5e-05,0.00039,2e-05,0.00012,3e-05,0,5,14
22522,-1e-05,1e-05,5e-05,0.00039,2e-05,0.00012,3e-05,0,5,14
22523,-1e-05,1e-05,5e-05,0.00039,2e-05,0.00012,3e-05,0,5,14
22524,-1e-05,1e-05,5e-05,0.00039,2e-05,0.00012,3e-05,0,5,14
22525,-1e-05,1e-05,5e-05,0.00039,2e-05,0.00012,3e-05,0,5,14
22526,1e-05,-1e-05,-3e-05,0.00054,4e-05,-0.00029,-5e-05,-4e-05,5,14
22527,1e-05,-1e-05,-3e-05,0.00054,4e-05,-0.00029,-5e-05,-4e-05,5,14
22528,1e-05,-1e-05,-3e-05,0.00054,4e-05,-0.00029,-5e-05,-4e-05,5,14
22529,1e-05,-1e-05,-3e-05,0.00054,4e-05,-0.00029,-5e-05,-4e-05,5,14
22530,1e-05,-1e-05,-3e-05,0.00054,4e-05,-0.00029,-5e-05,-4e-05,5,14
22531,1e-05,-1e-05,-3e-05,0.00054,4e-05,-0.00029,-5e-05,-4e-05,5,14
22532,1e-05,-1e-05,-3e-05,0.00054,4e-05,-0.00029,-5e-05,-4e-05,5,14
22533,1e-05,-1e-05,-3e-05,0.00054,4e-05,-0.00029,-5e-05,-4e-05,5,14
22534,1e-05,-1e-05,-3e-05,0.00054,4e-05,-0.00029,-5e-05,-4e-05,5,14
22535,2e-05,-4e-05,-7e-05,-0.00045,-2e-05,-0.0002,-8e-05,-3e-05,5,14
22536,2e-05,-4e-05,-7e-05,-0.00045,-2e-05,-0.0002,-8e-05,-3e-05,5,14
22539,2e-05,-4e-05,-7e-05,-0.00045,-2e-05,-0.0002,-8e-05,-3e-05,5,14
22540,2e-05,-4e-05,-7e-05,-0.00045,-2e-05,-0.0002,-8e-05,-3e-05,5,14
22541,2e-05,-4e-05,-7e-05,-0.00045,-2e-05,-0.0002,-8e-05,-3e-05,5,14
22542,2e-05,-4e-05,-7e-05,-0.00045,-2e-05,-0.0002,-8e-05,-3e-05,5,14
22543,2e-05,-4e-05,-7e-05,-0.00045,-2e-05,-0.0002,-8e-05,-3e-05,5,14
22544,2e-05,-4e-05,-7e-05,-0.00045,-2e-05,-0.0002,-8e-05,-3e-05,5,14
22545,2e-05,-4e-05,-7e-05,-0.00045,-2e-05,-0.0002,-8e-05,-3e-05,5,14
22546,2e-05,-4e-05,-7e-05,-0.00045,-2e-05,-0.0002,-8e-05,-3e-05,5,14
22547,2e-05,-4e-05,-7e-05,-0.00045,-2e-05,-0.0002,-8e-05,-3e-05,5,14
22548,2e-05,-4e-05,-7e-05,-0.00045,-2e-05,-0.0002,-8e-05,-3e-05,5,14
22549,2e-05,-4e-05,-7e-05,-0.00045,-2e-05,-0.0002,-8e-05,-3e-05,5,14
22550,0,2e-05,3e-05,-0.00039,0,-2e-05,-9e-05,-5e-05,5,14
22551,7e-05,-3e-05,-0.0001,-0.00016,-8e-05,-7e-05,1e-05,2e-05,5,14
22552,-3e-05,0,6e-05,0.0003,-2e-05,7e-05,2e-05,0,5,14
22553,-3e-05,0,6e-05,0.0003,-2e-05,7e-05,2e-05,0,5,14
22554,-3e-05,0,6e-05,0.0003,-2e-05,7e-05,2e-05,0,5,14
22555,-3e-05,0,6e-05,0.0003,-2e-05,7e-05,2e-05,0,5,14
22556,-3e-05,0,6e-05,0.0003,-2e-05,7e-05,2e-05,0,5,14
22557,-3e-05,0,6e-05,0.0003,-2e-05,7e-05,2e-05,0,5,14
22558,-3e-05,0,6e-05,0.0003,-2e-05,7e-05,2e-05,0,5,14
22559,-3e-05,0,6e-05,0.0003,-2e-05,7e-05,2e-05,0,5,14
22560,-3e-05,0,6e-05,0.0003,-2e-05,7e-05,2e-05,0,5,14
22561,-3e-05,0,6e-05,0.0003,-2e-05,7e-05,2e-05,0,5,14
22562,-3e-05,0,6e-05,0.0003,-2e-05,7e-05,2e-05,0,5,14
22563,-3e-05,0,6e-05,0.0003,-2e-05,7e-05,2e-05,0,5,14
22564,-3e-05,0,6e-05,0.0003,-2e-05,7e-05,2e-05,0,5,14
22565,-3e-05,0,6e-05,0.0003,-2e-05,7e-05,2e-05,0,5,14
22566,-3e-05,0,6e-05,0.0003,-2e-05,7e-05,2e-05,0,5,14
22567,-3e-05,0,6e-05,0.0003,-2e-05,7e-05,2e-05,0,5,14
22568,-3e-05,0,6e-05,0.0003,-2e-05,7e-05,2e-05,0,5,14
22569,-3e-05,0,6e-05,0.0003,-2e-05,7e-05,2e-05,0,5,14
22570,-3e-05,0,6e-05,0.0003,-2e-05,7e-05,2e-05,0,5,14
22571,-3e-05,0,6e-05,0.0003,-2e-05,7e-05,2e-05,0,5,14
22572,-9e-05,-5e-05,4e-05,-0.0006,3e-05,-0.00024,-0.0001,-4e-05,5,14
22573,4e-05,2e-05,7e-05,0.00066,0,8e-05,4e-05,3e-05,5,14
22574,-6e-05,-8e-05,-0.00014,-0.00058,2e-05,9e-05,1e-05,-1e-05,5,14
22575,-6e-05,-8e-05,-0.00014,-0.00058,2e-05,9e-05,1e-05,-1e-05,5,14
22576,-6e-05,-8e-05,-0.00014,-0.00058,2e-05,9e-05,1e-05,-1e-05,5,14
22577,-6e-05,-8e-05,-0.00014,-0.00058,2e-05,9e-05,1e-05,-1e-05,5,14
22578,-6e-05,-8e-05,-0.00014,-0.00058,2e-05,9e-05,1e-05,-1e-05,5,14
22579,-6e-05,-8e-05,-0.00014,-0.00058,2e-05,9e-05,1e-05,-1e-05,5,14
22580,-6e-05,-8e-05,-0.00014,-0.00058,2e-05,9e-05,1e-05,-1e-05,5,14
22581,-6e-05,-8e-05,-0.00014,-0.00058,2e-05,9e-05,1e-05,-1e-05,5,14
22582,-6e-05,-8e-05,-0.00014,-0.00058,2e-05,9e-05,1e-05,-1e-05,5,14
22583,-6e-05,-8e-05,-0.00014,-0.00058,2e-05,9e-05,1e-05,-1e-05,5,14
22584,-6e-05,-8e-05,-0.00014,-0.00058,2e-05,9e-05,1e-05,-1e-05,5,14
22585,-6e-05,-8e-05,-0.00014,-0.00058,2e-05,9e-05,1e-05,-1e-05,5,14
22586,-6e-05,-8e-05,-0.00014,-0.00058,2e-05,9e-05,1e-05,-1e-05,5,14
22588,-6e-05,-8e-05,-0.00014,-0.00058,2e-05,9e-05,1e-05,-1e-05,5,14
22589,-6e-05,-8e-05,-0.00014,-0.00058,2e-05,9e-05,1e-05,-1e-05,5,14
22590,-6e-05,-8e-05,-0.00014,-0.00058,2e-05,9e-05,1e-05,-1e-05,5,14
22591,-6e-05,-8e-05,-0.00014,-0.00058,2e-05,9e-05,1e-05,-1e-05,5,14
22592,-6e-05,-8e-05,-0.00014,-0.00058,2e-05,9e-05,1e-05,-1e-05,5,14
22593,-6e-05,-8e-05,-0.00014,-0.00058,2e-05,9e-05,1e-05,-1e-05,5,14
22594,-6e-05,-8e-05,-0.00014,-0.00058,2e-05,9e-05,1e-05,-1e-05,5,14
22595,0,4e-05,-5e-05,-0.00011,5e-05,-6e-05,-7e-05,-2e-05,5,14
22596,0,4e-05,-5e-05,-0.00011,5e-05,-6e-05,-7e-05,-2e-05,5,14
22597,-0.00013,-2e-05,-3e-05,0.00067,-5e-05,-0.0001,-5e-05,-4e-05,5,14
22598,-0.00013,-2e-05,-3e-05,0.00067,-5e-05,-0.0001,-5e-05,-4e-05,5,14
22599,-0.00013,-2e-05,-3e-05,0.00067,-5e-05,-0.0001,-5e-05,-4e-05,5,14
22600,-0.00013,-2e-05,-3e-05,0.00067,-5e-05,-0.0001,-5e-05,-4e-05,5,14
22601,-0.00013,-2e-05,-3e-05,0.00067,-5e-05,-0.0001,-5e-05,-4e-05,5,14
22602,-0.00013,-2e-05,-3e-05,0.00067,-5e-05,-0.0001,-5e-05,-4e-05,5,14
22603,-0.00013,-2e-05,-3e-05,0.00067,-5e-05,-0.0001,-5e-05,-4e-05,5,14
22604,-0.00013,-2e-05,-3e-05,0.00067,-5e-05,-0.0001,-5e-05,-4e-05,5,14
22605,-0.00013,-2e-05,-3e-05,0.00067,-5e-05,-0.0001,-5e-05,-4e-05,5,14
22606,-0.00013,-2e-05,-3e-05,0.00067,-5e-05,-0.0001,-5e-05,-4e-05,5,14
22607,-0.00013,-2e-05,-3e-05,0.00067,-5e-05,-0.0001,-5e-05,-4e-05,5,14
22608,-0.00013,-2e-05,-3e-05,0.00067,-5e-05,-0.0001,-5e-05,-4e-05,5,14
22609,-0.00013,-2e-05,-3e-05,0.00067,-5e-05,-0.0001,-5e-05,-4e-05,5,14
22610,-0.00011,3e-05,0,-0.00048,3e-05,-0.00026,-9e-05,-4e-05,5,14
22611,-0.00011,3e-05,0,-0.00048,3e-05,-0.00026,-9e-05,-4e-05,5,14
22612,0.0001,-0.00011,6e-05,-0.00018,-5e-05,-7e-05,1e-05,0,5,14
22613,0.0001,-0.00011,6e-05,-0.00018,-5e-05,-7e-05,1e-05,0,5,14
22614,0.0001,-0.00011,6e-05,-0.00018,-5e-05,-7e-05,1e-05,0,5,14
22615,0.0001,-0.00011,6e-05,-0.00018,-5e-05,-7e-05,1e-05,0,5,14
22616,0.0001,-0.00011,6e-05,-0.00018,-5e-05,-7e-05,1e-05,0,5,14
22617,0.0001,-0.00011,6e-05,-0.00018,-5e-05,-7e-05,1e-05,0,5,14
22618,0.0001,-0.00011,6e-05,-0.00018,-5e-05,-7e-05,1e-05,0,5,14
22619,0.0001,-0.00011,6e-05,-0.00018,-5e-05,-7e-05,1e-05,0,5,14
22620,0.0001,-0.00011,6e-05,-0.00018,-5e-05,-7e-05,1e-05,0,5,14
22621,0.0001,-0.00011,6e-05,-0.00018,-5e-05,-7e-05,1e-05,0,5,14
22622,0.0001,-0.00011,6e-05,-0.00018,-5e-05,-7e-05,1e-05,0,5,14
22623,0.0001,-0.00011,6e-05,-0.00018,-5e-05,-7e-05,1e-05,0,5,14
22624,0.0001,-0.00011,6e-05,-0.00018,-5e-05,-7e-05,1e-05,0,5,14
22625,0.0001,-0.00011,6e-05,-0.00018,-5e-05,-7e-05,1e-05,0,5,14
22626,0.0001,-0.00011,6e-05,-0.00018,-5e-05,-7e-05,1e-05,0,5,14
22627,0.0001,-0.00011,6e-05,-0.00018,-5e-05,-7e-05,1e-05,0,5,14
22628,0.0001,-0.00011,6e-05,-0.00018,-5e-05,-7e-05,1e-05,0,5,14
22629,0.0001,-0.00011,6e-05,-0.00018,-5e-05,-7e-05,1e-05,0,5,14
22630,0.0001,-0.00011,6e-05,-0.00018,-5e-05,-7e-05,1e-05,0,5,14
22631,0.0001,-0.00011,6e-05,-0.00018,-5e-05,-7e-05,1e-05,0,5,14
22632,0,7e-05,-1e-05,7e-05,-8e-05,-0.00015,-4e-05,-2e-05,5,14
22633,4e-05,-0.00015,0,0.00024,-2e-05,-1e-05,-1e-05,0,5,14
22634,-8e-05,0.00011,2e-05,-2e-05,-0.00011,-0.00029,-7e-05,-2e-05,5,14
22635,-8e-05,0.00011,2e-05,-2e-05,-0.00011,-0.00029,-7e-05,-2e-05,5,14
22636,-8e-05,0.00011,2e-05,-2e-05,-0.00011,-0.00029,-7e-05,-2e-05,5,14
22638,-8e-05,0.00011,2e-05,-2e-05,-0.00011,-0.00029,-7e-05,-2e-05,5,14
22639,-8e-05,0.00011,2e-05,-2e-05,-0.00011,-0.00029,-7e-05,-2e-05,5,14
22640,-8e-05,0.00011,2e-05,-2e-05,-0.00011,-0.00029,-7e-05,-2e-05,5,14
22641,-8e-05,0.00011,2e-05,-2e-05,-0.00011,-0.00029,-7e-05,-2e-05,5,14
22642,-8e-05,0.00011,2e-05,-2e-05,-0.00011,-0.00029,-7e-05,-2e-05,5,14
22643,-8e-05,0.00011,2e-05,-2e-05,-0.00011,-0.00029,-7e-05,-2e-05,5,14
22644,-8e-05,0.00011,2e-05,-2e-05,-0.00011,-0.00029,-7e-05,-2e-05,5,14
22645,-8e-05,0.00011,2e-05,-2e-05,-0.00011,-0.00029,-7e-05,-2e-05,5,14
22646,-8e-05,0.00011,2e-05,-2e-05,-0.00011,-0.00029,-7e-05,-2e-05,5,14
22647,-8e-05,0.00011,2e-05,-2e-05,-0.00011,-0.00029,-7e-05,-2e-05,5,14
22648,-8e-05,0.00011,2e-05,-2e-05,-0.00011,-0.00029,-7e-05,-2e-05,5,14
22649,-8e-05,0.00011,2e-05,-2e-05,-0.00011,-0.00029,-7e-05,-2e-05,5,14
22650,-8e-05,0.00011,2e-05,-2e-05,-0.00011,-0.00029,-7e-05,-2e-05,5,14
22651,-8e-05,0.00011,2e-05,-2e-05,-0.00011,-0.00029,-7e-05,-2e-05,5,14
22652,-8e-05,0.00011,2e-05,-2e-05,-0.00011,-0.00029,-7e-05,-2e-05,5,14
22653,-8e-05,0.00011,2e-05,-2e-05,-0.00011,-0.00029,-7e-05,-2e-05,5,14
22654,-8e-05,0.00011,2e-05,-2e-05,-0.00011,-0.00029,-7e-05,-2e-05,5,14
22655,5e-05,-1e-05,-3e-05,-9e-05,0,3e-05,3e-05,6e-05,5,14
22656,-5e-05,4e-05,6e-05,0.00013,-5e-05,0.00031,3e-05,-3e-05,5,14
22657,-5e-05,4e-05,6e-05,0.00013,-5e-05,0.00031,3e-05,-3e-05,5,14
22658,-5e-05,4e-05,6e-05,0.00013,-5e-05,0.00031,3e-05,-3e-05,5,14
22659,-5e-05,4e-05,6e-05,0.00013,-5e-05,0.00031,3e-05,-3e-05,5,14
22660,-5e-05,4e-05,6e-05,0.00013,-5e-05,0.00031,3e-05,-3e-05,5,14
22661,-5e-05,4e-05,6e-05,0.00013,-5e-05,0.00031,3e-05,-3e-05,5,14
22662,-5e-05,4e-05,6e-05,0.00013,-5e-05,0.00031,3e-05,-3e-05,5,14
22663,-5e-05,4e-05,6e-05,0.00013,-5e-05,0.00031,3e-05,-3e-05,5,14
22664,-5e-05,4e-05,6e-05,0.00013,-5e-05,0.00031,3e-05,-3e-05,5,14
22665,-5e-05,4e-05,6e-05,0.00013,-5e-05,0.00031,3e-05,-3e-05,5,14
22666,-5e-05,4e-05,6e-05,0.00013,-5e-05,0.00031,3e-05,-3e-05,5,14
22667,-5e-05,4e-05,6e-05,0.00013,-5e-05,0.00031,3e-05,-3e-05,5,14
22668,-5e-05,4e-05,6e-05,0.00013,-5e-05,0.00031,3e-05,-3e-05,5,14
22669,-5e-05,4e-05,6e-05,0.00013,-5e-05,0.00031,3e-05,-3e-05,5,14
22670,-3e-05,-1e-05,-7e-05,-0.00023,-2e-05,-1e-05,0,1e-05,5,14
22671,4e-05,3e-05,3e-05,-0.00039,5e-05,-6e-05,0,1e-05,5,14
22672,4e-05,3e-05,3e-05,-0.00039,5e-05,-6e-05,0,1e-05,5,14
22673,4e-05,3e-05,3e-05,-0.00039,5e-05,-6e-05,0,1e-05,5,14
22674,4e-05,3e-05,3e-05,-0.00039,5e-05,-6e-05,0,1e-05,5,14
22675,4e-05,3e-05,3e-05,-0.00039,5e-05,-6e-05,0,1e-05,5,14
22676,4e-05,3e-05,3e-05,-0.00039,5e-05,-6e-05,0,1e-05,5,14
22677,4e-05,3e-05,3e-05,-0.00039,5e-05,-6e-05,0,1e-05,5,14
22678,4e-05,3e-05,3e-05,-0.00039,5e-05,-6e-05,0,1e-05,5,14
22679,4e-05,3e-05,3e-05,-0.00039,5e-05,-6e-05,0,1e-05,5,14
22680,4e-05,3e-05,3e-05,-0.00039,5e-05,-6e-05,0,1e-05,5,14
22681,4e-05,3e-05,3e-05,-0.00039,5e-05,-6e-05,0,1e-05,5,14
22682,4e-05,3e-05,3e-05,-0.00039,5e-05,-6e-05,0,1e-05,5,14
22683,4e-05,3e-05,3e-05,-0.00039,5e-05,-6e-05,0,1e-05,5,14
22684,4e-05,3e-05,3e-05,-0.00039,5e-05,-6e-05,0,1e-05,5,14
22685,4e-05,3e-05,3e-05,-0.00039,5e-05,-6e-05,0,1e-05,5,14
22686,4e-05,3e-05,3e-05,-0.00039,5e-05,-6e-05,0,1e-05,5,14
22688,4e-05,3e-05,3e-05,-0.00039,5e-05,-6e-05,0,1e-05,5,14
22689,4e-05,3e-05,3e-05,-0.00039,5e-05,-6e-05,0,1e-05,5,14
22690,4e-05,3e-05,3e-05,-0.00039,5e-05,-6e-05,0,1e-05,5,14
22691,4e-05,3e-05,3e-05,-0.00039,5e-05,-6e-05,0,1e-05,5,14
22692,-8e-05,-3e-05,5e-05,0.00035,-1e-05,-0.00013,-2e-05,-4e-05,5,14
22693,5e-05,-6e-05,-8e-05,-6e-05,-8e-05,0.00019,3e-05,1e-05,5,14
22694,-2e-05,1e-05,-1e-05,-0.00014,4e-05,8e-05,2e-05,2e-05,5,14
22695,-2e-05,1e-05,-1e-05,-0.00014,4e-05,8e-05,2e-05,2e-05,5,14
22696,-2e-05,1e-05,-1e-05,-0.00014,4e-05,8e-05,2e-05,2e-05,5,14
22697,-2e-05,1e-05,-1e-05,-0.00014,4e-05,8e-05,2e-05,2e-05,5,14
22698,-2e-05,1e-05,-1e-05,-0.00014,4e-05,8e-05,2e-05,2e-05,5,14
22699,-2e-05,1e-05,-1e-05,-0.00014,4e-05,8e-05,2e-05,2e-05,5,14
22700,-2e-05,1e-05,-1e-05,-0.00014,4e-05,8e-05,2e-05,2e-05,5,14
22701,-2e-05,1e-05,-1e-05,-0.00014,4e-05,8e-05,2e-05,2e-05,5,14
22702,-2e-05,1e-05,-1e-05,-0.00014,4e-05,8e-05,2e-05,2e-05,5,14
22703,-2e-05,1e-05,-1e-05,-0.00014,4e-05,8e-05,2e-05,2e-05,5,14
22704,-2e-05,1e-05,-1e-05,-0.00014,4e-05,8e-05,2e-05,2e-05,5,14
22705,-2e-05,1e-05,-1e-05,-0.00014,4e-05,8e-05,2e-05,2e-05,5,14
22706,-2e-05,1e-05,-1e-05,-0.00014,4e-05,8e-05,2e-05,2e-05,5,14
22707,-2e-05,1e-05,-1e-05,-0.00014,4e-05,8e-05,2e-05,2e-05,5,14
22708,-2e-05,1e-05,-1e-05,-0.00014,4e-05,8e-05,2e-05,2e-05,5,14
22709,-2e-05,1e-05,-1e-05,-0.00014,4e-05,8e-05,2e-05,2e-05,5,14
22710,-2e-05,1e-05,-1e-05,-0.00014,4e-05,8e-05,2e-05,2e-05,5,14
22711,-2e-05,1e-05,-1e-05,-0.00014,4e-05,8e-05,2e-05,2e-05,5,14
22712,-2e-05,1e-05,-1e-05,-0.00014,4e-05,8e-05,2e-05,2e-05,5,14
22713,-2e-05,1e-05,-1e-05,-0.00014,4e-05,8e-05,2e-05,2e-05,5,14
22714,-2e-05,1e-05,-1e-05,-0.00014,4e-05,8e-05,2e-05,2e-05,5,14
22715,4e-05,6e-05,8e-05,-0.00055,-4e-05,8e-05,1e-05,-2e-05,5,14
22716,-7e-05,0,-8e-05,-0.00018,-1e-05,-7e-05,-3e-05,-3e-05,5,14
22717,-7e-05,0,-8e-05,-0.00018,-1e-05,-7e-05,-3e-05,-3e-05,5,14
22718,-7e-05,0,-8e-05,-0.00018,-1e-05,-7e-05,-3e-05,-3e-05,5,14
22719,-7e-05,0,-8e-05,-0.00018,-1e-05,-7e-05,-3e-05,-3e-05,5,14
22720,-7e-05,0,-8e-05,-0.00018,-1e-05,-7e-05,-3e-05,-3e-05,5,14
22721,-7e-05,0,-8e-05,-0.00018,-1e-05,-7e-05,-3e-05,-3e-05,5,14
22722,-7e-05,0,-8e-05,-0.00018,-1e-05,-7e-05,-3e-05,-3e-05,5,14
22723,-7e-05,0,-8e-05,-0.00018,-1e-05,-7e-05,-3e-05,-3e-05,5,14
22724,-7e-05,0,-8e-05,-0.00018,-1e-05,-7e-05,-3e-05,-3e-05,5,14
22725,-7e-05,0,-8e-05,-0.00018,-1e-05,-7e-05,-3e-05,-3e-05,5,14
22726,-7e-05,0,-8e-05,-0.00018,-1e-05,-7e-05,-3e-05,-3e-05,5,14
22727,-7e-05,0,-8e-05,-0.00018,-1e-05,-7e-05,-3e-05,-3e-05,5,14
22728,-7e-05,0,-8e-05,-0.00018,-1e-05,-7e-05,-3e-05,-3e-05,5,14
22729,-7e-05,0,-8e-05,-0.00018,-1e-05,-7e-05,-3e-05,-3e-05,5,14
22730,-3e-05,-1e-05,6e-05,8e-05,-2e-05,2e-05,-3e-05,-2e-05,5,14
22731,-3e-05,-3e-05,4e-05,0.0004,-3e-05,0.00021,5e-05,5e-05,5,14
22732,-3e-05,-3e-05,4e-05,0.0004,-3e-05,0.00021,5e-05,5e-05,5,14
22733,-3e-05,-3e-05,4e-05,0.0004,-3e-05,0.00021,5e-05,5e-05,5,14
22734,-3e-05,-3e-05,4e-05,0.0004,-3e-05,0.00021,5e-05,5e-05,5,14
22735,-3e-05,-3e-05,4e-05,0.0004,-3e-05,0.00021,5e-05,5e-05,5,14
22736,-3e-05,-3e-05,4e-05,0.0004,-3e-05,0.00021,5e-05,5e-05,5,14
22738,-3e-05,-3e-05,4e-05,0.0004,-3e-05,0.00021,5e-05,5e-05,5,14
22739,-3e-05,-3e-05,4e-05,0.0004,-3e-05,0.00021,5e-05,5e-05,5,14
22740,-3e-05,-3e-05,4e-05,0.0004,-3e-05,0.00021,5e-05,5e-05,5,14
22741,-3e-05,-3e-05,4e-05,0.0004,-3e-05,0.00021,5e-05,5e-05,5,14
22742,-3e-05,-3e-05,4e-05,0.0004,-3e-05,0.00021,5e-05,5e-05,5,14
22743,-3e-05,-3e-05,4e-05,0.0004,-3e-05,0.00021,5e-05,5e-05,5,14
22744,-3e-05,-3e-05,4e-05,0.0004,-3e-05,0.00021,5e-05,5e-05,5,14
22745,-3e-05,-3e-05,4e-05,0.0004,-3e-05,0.00021,5e-05,5e-05,5,14
22746,-3e-05,-3e-05,4e-05,0.0004,-3e-05,0.00021,5e-05,5e-05,5,14
22747,-3e-05,-3e-05,4e-05,0.0004,-3e-05,0.00021,5e-05,5e-05,5,14
22748,-3e-05,-3e-05,4e-05,0.0004,-3e-05,0.00021,5e-05,5e-05,5,14
22749,-3e-05,-3e-05,4e-05,0.0004,-3e-05,0.00021,5e-05,5e-05,5,14
22750,-3e-05,-3e-05,4e-05,0.0004,-3e-05,0.00021,5e-05,5e-05,5,14
22751,-3e-05,-3e-05,4e-05,0.0004,-3e-05,0.00021,5e-05,5e-05,5,14
22752,6e-05,-2e-05,-8e-05,-0.00029,3e-05,-2e-05,3e-05,-1e-05,5,14
22753,6e-05,-2e-05,-8e-05,-0.00029,3e-05,-2e-05,3e-05,-1e-05,5,14
22754,-2e-05,-0.0001,-0.0001,-0.00017,5e-05,2e-05,2e-05,0,5,14
22755,-2e-05,-0.0001,-0.0001,-0.00017,5e-05,2e-05,2e-05,0,5,14
22756,-2e-05,-0.0001,-0.0001,-0.00017,5e-05,2e-05,2e-05,0,5,14
22757,-2e-05,-0.0001,-0.0001,-0.00017,5e-05,2e-05,2e-05,0,5,14
22758,-2e-05,-0.0001,-0.0001,-0.00017,5e-05,2e-05,2e-05,0,5,14
22759,-2e-05,-0.0001,-0.0001,-0.00017,5e-05,2e-05,2e-05,0,5,14
22760,-2e-05,-0.0001,-0.0001,-0.00017,5e-05,2e-05,2e-05,0,5,14
22761,-2e-05,-0.0001,-0.0001,-0.00017,5e-05,2e-05,2e-05,0,5,14
22762,-2e-05,-0.0001,-0.0001,-0.00017,5e-05,2e-05,2e-05,0,5,14
22763,-2e-05,-0.0001,-0.0001,-0.00017,5e-05,2e-05,2e-05,0,5,14
22764,-2e-05,-0.0001,-0.0001,-0.00017,5e-05,2e-05,2e-05,0,5,14
22765,-2e-05,-0.0001,-0.0001,-0.00017,5e-05,2e-05,2e-05,0,5,14
22766,-2e-05,-0.0001,-0.0001,-0.00017,5e-05,2e-05,2e-05,0,5,14
22767,-2e-05,-0.0001,-0.0001,-0.00017,5e-05,2e-05,2e-05,0,5,14
22768,-2e-05,-0.0001,-0.0001,-0.00017,5e-05,2e-05,2e-05,0,5,14
22769,-2e-05,-0.0001,-0.0001,-0.00017,5e-05,2e-05,2e-05,0,5,14
22770,-2e-05,-0.0001,-0.0001,-0.00017,5e-05,2e-05,2e-05,0,5,14
22771,-2e-05,-0.0001,-0.0001,-0.00017,5e-05,2e-05,2e-05,0,5,14
22772,-2e-05,-0.0001,-0.0001,-0.00017,5e-05,2e-05,2e-05,0,5,14
22773,-2e-05,-0.0001,-0.0001,-0.00017,5e-05,2e-05,2e-05,0,5,14
22774,-2e-05,-0.0001,-0.0001,-0.00017,5e-05,2e-05,2e-05,0,5,14
22775,0,3e-05,-2e-05,0.0001,4e-05,-5e-05,-5e-05,-2e-05,5,14
22776,-0.00014,-1e-05,5e-05,1e-05,-3e-05,-0.0001,-5e-05,-4e-05,5,14
22777,-0.00014,-1e-05,5e-05,1e-05,-3e-05,-0.0001,-5e-05,-4e-05,5,14
22778,-0.00014,-1e-05,5e-05,1e-05,-3e-05,-0.0001,-5e-05,-4e-05,5,14
22779,-0.00014,-1e-05,5e-05,1e-05,-3e-05,-0.0001,-5e-05,-4e-05,5,14
22780,-0.00014,-1e-05,5e-05,1e-05,-3e-05,-0.0001,-5e-05,-4e-05,5,14
22781,-0.00014,-1e-05,5e-05,1e-05,-3e-05,-0.0001,-5e-05,-4e-05,5,14
22782,-0.00014,-1e-05,5e-05,1e-05,-3e-05,-0.0001,-5e-05,-4e-05,5,14
22783,-0.00014,-1e-05,5e-05,1e-05,-3e-05,-0.0001,-5e-05,-4e-05,5,14
22784,-0.00014,-1e-05,5e-05,1e-05,-3e-05,-0.0001,-5e-05,-4e-05,5,14
22785,-0.00014,-1e-05,5e-05,1e-05,-3e-05,-0.0001,-5e-05,-4e-05,5,14
22786,-0.00014,-1e-05,5e-05,1e-05,-3e-05,-0.0001,-5e-05,-4e-05,5,14
22788,-0.00014,-1e-05,5e-05,1e-05,-3e-05,-0.0001,-5e-05,-4e-05,5,14
22789,-3e-05,-4e-05,-8e-05,9e-05,3e-05,8e-05,-3e-05,-3e-05,5,14
22790,-3e-05,-4e-05,-8e-05,9e-05,3e-05,8e-05,-3e-05,-3e-05,5,14
22791,-3e-05,-4e-05,-8e-05,9e-05,3e-05,8e-05,-3e-05,-3e-05,5,14
22792,-3e-05,-4e-05,-8e-05,9e-05,3e-05,8e-05,-3e-05,-3e-05,5,14
22793,-3e-05,-4e-05,-8e-05,9e-05,3e-05,8e-05,-3e-05,-3e-05,5,14
22794,-3e-05,-4e-05,-8e-05,9e-05,3e-05,8e-05,-3e-05,-3e-05,5,14
22795,-3e-05,-4e-05,-8e-05,9e-05,3e-05,8e-05,-3e-05,-3e-05,5,14
22796,8e-05,1e-05,2e-05,0.00014,0,-4e-05,2e-05,-1e-05,5,14
22797,8e-05,1e-05,2e-05,0.00014,0,-4e-05,2e-05,-1e-05,5,14
22798,8e-05,1e-05,2e-05,0.00014,0,-4e-05,2e-05,-1e-05,5,14
22799,8e-05,1e-05,2e-05,0.00014,0,-4e-05,2e-05,-1e-05,5,14
22800,8e-05,1e-05,2e-05,0.00014,0,-4e-05,2e-05,-1e-05,5,14
22801,8e-05,1e-05,2e-05,0.00014,0,-4e-05,2e-05,-1e-05,5,14
22802,8e-05,1e-05,2e-05,0.00014,0,-4e-05,2e-05,-1e-05,5,14
22803,8e-05,1e-05,2e-05,0.00014,0,-4e-05,2e-05,-1e-05,5,14
22804,8e-05,1e-05,2e-05,0.00014,0,-4e-05,2e-05,-1e-05,5,14
22805,8e-05,1e-05,2e-05,0.00014,0,-4e-05,2e-05,-1e-05,5,14
22806,8e-05,1e-05,2e-05,0.00014,0,-4e-05,2e-05,-1e-05,5,14
22807,8e-05,1e-05,2e-05,0.00014,0,-4e-05,2e-05,-1e-05,5,14
22808,8e-05,1e-05,2e-05,0.00014,0,-4e-05,2e-05,-1e-05,5,14
22809,8e-05,1e-05,2e-05,0.00014,0,-4e-05,2e-05,-1e-05,5,14
22810,8e-05,1e-05,2e-05,0.00014,0,-4e-05,2e-05,-1e-05,5,14
22811,8e-05,1e-05,2e-05,0.00014,0,-4e-05,2e-05,-1e-05,5,14
22812,-4e-05,-1e-05,-5e-05,0.00017,-1e-05,1e-05,-4e-05,-1e-05,5,14
22813,-4e-05,-1e-05,-5e-05,0.00017,-1e-05,1e-05,-4e-05,-1e-05,5,14
22814,3e-05,1e-05,-1e-05,0.00012,-3e-05,-2e-05,0,1e-05,5,14
22815,3e-05,1e-05,-1e-05,0.00012,-3e-05,-2e-05,0,1e-05,5,14
22816,3e-05,1e-05,-1e-05,0.00012,-3e-05,-2e-05,0,1e-05,5,14
22817,3e-05,1e-05,-1e-05,0.00012,-3e-05,-2e-05,0,1e-05,5,14
22818,3e-05,1e-05,-1e-05,0.00012,-3e-05,-2e-05,0,1e-05,5,14
22819,3e-05,1e-05,-1e-05,0.00012,-3e-05,-2e-05,0,1e-05,5,14
22820,3e-05,1e-05,-1e-05,0.00012,-3e-05,-2e-05,0,1e-05,5,14
22821,3e-05,1e-05,-1e-05,0.00012,-3e-05,-2e-05,0,1e-05,5,14
22822,3e-05,1e-05,-1e-05,0.00012,-3e-05,-2e-05,0,1e-05,5,14
22823,3e-05,1e-05,-1e-05,0.00012,-3e-05,-2e-05,0,1e-05,5,14
22824,3e-05,1e-05,-1e-05,0.00012,-3e-05,-2e-05,0,1e-05,5,14
22825,3e-05,1e-05,-1e-05,0.00012,-3e-05,-2e-05,0,1e-05,5,14
22826,3e-05,1e-05,-1e-05,0.00012,-3e-05,-2e-05,0,1e-05,5,14
22827,3e-05,1e-05,-1e-05,0.00012,-3e-05,-2e-05,0,1e-05,5,14
22828,3e-05,1e-05,-1e-05,0.00012,-3e-05,-2e-05,0,1e-05,5,14
22829,3e-05,1e-05,-1e-05,0.00012,-3e-05,-2e-05,0,1e-05,5,14
22830,3e-05,1e-05,-1e-05,0.00012,-3e-05,-2e-05,0,1e-05,5,14
22831,3e-05,1e-05,-1e-05,0.00012,-3e-05,-2e-05,0,1e-05,5,14
22832,3e-05,1e-05,-1e-05,0.00012,-3e-05,-2e-05,0,1e-05,5,14
22833,3e-05,1e-05,-1e-05,0.00012,-3e-05,-2e-05,0,1e-05,5,14
22834,3e-05,1e-05,-1e-05,0.00012,-3e-05,-2e-05,0,1e-05,5,14
22835,0,0,4e-05,2e-05,-5e-05,-1e-05,1e-05,1e-05,5,14
22836,4e-05,2e-05,3e-05,3e-05,-5e-05,-0.00013,-1e-05,-1e-05,5,14
22838,-1e-05,-3e-05,-0.0001,-0.00016,-3e-05,-4e-05,-4e-05,1e-05,5,14
22839,-1e-05,-3e-05,-0.0001,-0.00016,-3e-05,-4e-05,-4e-05,1e-05,5,14
22840,-1e-05,-3e-05,-0.0001,-0.00016,-3e-05,-4e-05,-4e-05,1e-05,5,14
22841,-1e-05,-3e-05,-0.0001,-0.00016,-3e-05,-4e-05,-4e-05,1e-05,5,14
22842,-1e-05,-3e-05,-0.0001,-0.00016,-3e-05,-4e-05,-4e-05,1e-05,5,14
22843,-1e-05,-3e-05,-0.0001,-0.00016,-3e-05,-4e-05,-4e-05,1e-05,5,14
22844,-1e-05,-3e-05,-0.0001,-0.00016,-3e-05,-4e-05,-4e-05,1e-05,5,14
22845,-1e-05,-3e-05,-0.0001,-0.00016,-3e-05,-4e-05,-4e-05,1e-05,5,14
22846,-1e-05,-3e-05,-0.0001,-0.00016,-3e-05,-4e-05,-4e-05,1e-05,5,14
22847,-1e-05,-3e-05,-0.0001,-0.00016,-3e-05,-4e-05,-4e-05,1e-05,5,14
22848,-1e-05,-3e-05,-0.0001,-0.00016,-3e-05,-4e-05,-4e-05,1e-05,5,14
22849,-9e-05,2e-05,-1e-05,0.00011,-3e-05,-3e-05,3e-05,1e-05,5,14
22850,-9e-05,2e-05,-1e-05,0.00011,-3e-05,-3e-05,3e-05,1e-05,5,14
22851,-9e-05,2e-05,-1e-05,0.00011,-3e-05,-3e-05,3e-05,1e-05,5,14
22852,-9e-05,2e-05,-1e-05,0.00011,-3e-05,-3e-05,3e-05,1e-05,5,14
22853,-9e-05,2e-05,-1e-05,0.00011,-3e-05,-3e-05,3e-05,1e-05,5,14
22854,-9e-05,2e-05,-1e-05,0.00011,-3e-05,-3e-05,3e-05,1e-05,5,14
22855,-9e-05,2e-05,-1e-05,0.00011,-3e-05,-3e-05,3e-05,1e-05,5,14
22856,1e-05,-3e-05,-2e-05,0.00024,1e-05,2e-05,-3e-05,-3e-05,5,14
22857,1e-05,-3e-05,-2e-05,0.00024,1e-05,2e-05,-3e-05,-3e-05,5,14
22858,1e-05,-3e-05,-2e-05,0.00024,1e-05,2e-05,-3e-05,-3e-05,5,14
22859,1e-05,-3e-05,-2e-05,0.00024,1e-05,2e-05,-3e-05,-3e-05,5,14
22860,1e-05,-3e-05,-2e-05,0.00024,1e-05,2e-05,-3e-05,-3e-05,5,14
22861,1e-05,-3e-05,-2e-05,0.00024,1e-05,2e-05,-3e-05,-3e-05,5,14
22862,1e-05,-3e-05,-2e-05,0.00024,1e-05,2e-05,-3e-05,-3e-05,5,14
22863,1e-05,-3e-05,-2e-05,0.00024,1e-05,2e-05,-3e-05,-3e-05,5,14
22864,1e-05,-3e-05,-2e-05,0.00024,1e-05,2e-05,-3e-05,-3e-05,5,14
22865,1e-05,-3e-05,-2e-05,0.00024,1e-05,2e-05,-3e-05,-3e-05,5,14
22866,1e-05,-3e-05,-2e-05,0.00024,1e-05,2e-05,-3e-05,-3e-05,5,14
22867,1e-05,-3e-05,-2e-05,0.00024,1e-05,2e-05,-3e-05,-3e-05,5,14
22868,1e-05,-3e-05,-2e-05,0.00024,1e-05,2e-05,-3e-05,-3e-05,5,14
22869,1e-05,-3e-05,-2e-05,0.00024,1e-05,2e-05,-3e-05,-3e-05,5,14
22870,1e-05,-3e-05,-2e-05,0.00024,1e-05,2e-05,-3e-05,-3e-05,5,14
22871,1e-05,-3e-05,-2e-05,0.00024,1e-05,2e-05,-3e-05,-3e-05,5,14
22872,1e-05,-3e-05,-2e-05,0.00024,1e-05,2e-05,-3e-05,-3e-05,5,14
22873,0.0001,-2e-05,2e-05,0.00019,-3e-05,1e-05,3e-05,8e-05,5,14
22874,-0.00014,0,-6e-05,-0.00025,2e-05,-7e-05,-3e-05,-4e-05,5,14
22875,-0.00014,0,-6e-05,-0.00025,2e-05,-7e-05,-3e-05,-4e-05,5,14
22876,-0.00014,0,-6e-05,-0.00025,2e-05,-7e-05,-3e-05,-4e-05,5,14
22877,-0.00014,0,-6e-05,-0.00025,2e-05,-7e-05,-3e-05,-4e-05,5,14
22878,-0.00014,0,-6e-05,-0.00025,2e-05,-7e-05,-3e-05,-4e-05,5,14
22879,-0.00014,0,-6e-05,-0.00025,2e-05,-7e-05,-3e-05,-4e-05,5,14
22880,-0.00014,0,-6e-05,-0.00025,2e-05,-7e-05,-3e-05,-4e-05,5,14
22881,-0.00014,0,-6e-05,-0.00025,2e-05,-7e-05,-3e-05,-4e-05,5,14
22882,-0.00014,0,-6e-05,-0.00025,2e-05,-7e-05,-3e-05,-4e-05,5,14
22883,-0.00014,0,-6e-05,-0.00025,2e-05,-7e-05,-3e-05,-4e-05,5,14
22884,-0.00014,0,-6e-05,-0.00025,2e-05,-7e-05,-3e-05,-4e-05,5,14
22885,-0.00014,0,-6e-05,-0.00025,2e-05,-7e-05,-3e-05,-4e-05,5,14
22886,-0.00014,0,-6e-05,-0.00025,2e-05,-7e-05,-3e-05,-4e-05,5,14
22888,-0.00014,0,-6e-05,-0.00025,2e-05,-7e-05,-3e-05,-4e-05,5,14
22889,-0.00014,0,-6e-05,-0.00025,2e-05,-7e-05,-3e-05,-4e-05,5,14
22890,-0.00014,0,-6e-05,-0.00025,2e-05,-7e-05,-3e-05,-4e-05,5,14
22891,-0.00014,0,-6e-05,-0.00025,2e-05,-7e-05,-3e-05,-4e-05,5,14
22892,-0.00014,0,-6e-05,-0.00025,2e-05,-7e-05,-3e-05,-4e-05,5,14
22893,-0.00014,0,-6e-05,-0.00025,2e-05,-7e-05,-3e-05,-4e-05,5,14
22894,-0.00014,0,-6e-05,-0.00025,2e-05,-7e-05,-3e-05,-4e-05,5,14
22895,0,-4e-05,1e-05,-0.00021,-5e-05,0.0001,-2e-05,-1e-05,5,14
22896,-0.00021,-6e-05,-0.00018,-0.00048,9e-05,-0.00058,-0.00018,-8e-05,5,14
22897,7e-05,-8e-05,5e-05,9e-05,-6e-05,0.00011,-3e-05,-3e-05,5,14
22898,7e-05,-8e-05,5e-05,9e-05,-6e-05,0.00011,-3e-05,-3e-05,5,14
22899,7e-05,-8e-05,5e-05,9e-05,-6e-05,0.00011,-3e-05,-3e-05,5,14
22900,7e-05,-8e-05,5e-05,9e-05,-6e-05,0.00011,-3e-05,-3e-05,5,14
22901,7e-05,-8e-05,5e-05,9e-05,-6e-05,0.00011,-3e-05,-3e-05,5,14
22902,7e-05,-8e-05,5e-05,9e-05,-6e-05,0.00011,-3e-05,-3e-05,5,14
22903,7e-05,-8e-05,5e-05,9e-05,-6e-05,0.00011,-3e-05,-3e-05,5,14
22904,7e-05,-8e-05,5e-05,9e-05,-6e-05,0.00011,-3e-05,-3e-05,5,14
22905,7e-05,-8e-05,5e-05,9e-05,-6e-05,0.00011,-3e-05,-3e-05,5,14
22906,7e-05,-8e-05,5e-05,9e-05,-6e-05,0.00011,-3e-05,-3e-05,5,14
22907,7e-05,-8e-05,5e-05,9e-05,-6e-05,0.00011,-3e-05,-3e-05,5,14
22908,7e-05,-8e-05,5e-05,9e-05,-6e-05,0.00011,-3e-05,-3e-05,5,14
22909,0,-3e-05,0,0.00021,-2e-05,-6e-05,3e-05,-1e-05,5,14
22910,0,-3e-05,0,0.00021,-2e-05,-6e-05,3e-05,-1e-05,5,14
22911,0,-3e-05,0,0.00021,-2e-05,-6e-05,3e-05,-1e-05,5,14
22912,0,-3e-05,0,0.00021,-2e-05,-6e-05,3e-05,-1e-05,5,14
22913,0,-3e-05,0,0.00021,-2e-05,-6e-05,3e-05,-1e-05,5,14
22914,0,-3e-05,0,0.00021,-2e-05,-6e-05,3e-05,-1e-05,5,14
22915,0,-3e-05,0,0.00021,-2e-05,-6e-05,3e-05,-1e-05,5,14
22916,-1e-05,2e-05,0,-0.0005,-1e-05,3e-05,3e-05,0,5,14
22917,-1e-05,2e-05,0,-0.0005,-1e-05,3e-05,3e-05,0,5,14
22918,-1e-05,2e-05,0,-0.0005,-1e-05,3e-05,3e-05,0,5,14
22919,-1e-05,2e-05,0,-0.0005,-1e-05,3e-05,3e-05,0,5,14
22920,-1e-05,2e-05,0,-0.0005,-1e-05,3e-05,3e-05,0,5,14
22921,-1e-05,2e-05,0,-0.0005,-1e-05,3e-05,3e-05,0,5,14
22922,-1e-05,2e-05,0,-0.0005,-1e-05,3e-05,3e-05,0,5,14
22923,-1e-05,2e-05,0,-0.0005,-1e-05,3e-05,3e-05,0,5,14
22924,-1e-05,2e-05,0,-0.0005,-1e-05,3e-05,3e-05,0,5,14
22925,-1e-05,2e-05,0,-0.0005,-1e-05,3e-05,3e-05,0,5,14
22926,-1e-05,2e-05,0,-0.0005,-1e-05,3e-05,3e-05,0,5,14
22927,-1e-05,2e-05,0,-0.0005,-1e-05,3e-05,3e-05,0,5,14
22928,-1e-05,2e-05,0,-0.0005,-1e-05,3e-05,3e-05,0,5,14
22929,-1e-05,2e-05,0,-0.0005,-1e-05,3e-05,3e-05,0,5,14
22930,-1e-05,2e-05,0,-0.0005,-1e-05,3e-05,3e-05,0,5,14
22931,-1e-05,2e-05,0,-0.0005,-1e-05,3e-05,3e-05,0,5,14
22932,-6e-05,1e-05,0,9e-05,1e-05,-0.00022,-0.00011,-8e-05,5,14
22933,-6e-05,1e-05,0,9e-05,1e-05,-0.00022,-0.00011,-8e-05,5,14
22934,-9e-05,7e-05,4e-05,6e-05,3e-05,-0.00011,-2e-05,1e-05,5,14
22935,-9e-05,7e-05,4e-05,6e-05,3e-05,-0.00011,-2e-05,1e-05,5,14
22936,-9e-05,7e-05,4e-05,6e-05,3e-05,-0.00011,-2e-05,1e-05,5,14
22938,-9e-05,7e-05,4e-05,6e-05,3e-05,-0.00011,-2e-05,1e-05,5,14
22939,-9e-05,7e-05,4e-05,6e-05,3e-05,-0.00011,-2e-05,1e-05,5,14
22940,-9e-05,7e-05,4e-05,6e-05,3e-05,-0.00011,-2e-05,1e-05,5,14
22941,-9e-05,7e-05,4e-05,6e-05,3e-05,-0.00011,-2e-05,1e-05,5,14
22942,-9e-05,7e-05,4e-05,6e-05,3e-05,-0.00011,-2e-05,1e-05,5,14
22943,-9e-05,7e-05,4e-05,6e-05,3e-05,-0.00011,-2e-05,1e-05,5,14
22944,-9e-05,7e-05,4e-05,6e-05,3e-05,-0.00011,-2e-05,1e-05,5,14
22945,-9e-05,7e-05,4e-05,6e-05,3e-05,-0.00011,-2e-05,1e-05,5,14
22946,-9e-05,7e-05,4e-05,6e-05,3e-05,-0.00011,-2e-05,1e-05,5,14
22947,-9e-05,7e-05,4e-05,6e-05,3e-05,-0.00011,-2e-05,1e-05,5,14
22948,-9e-05,7e-05,4e-05,6e-05,3e-05,-0.00011,-2e-05,1e-05,5,14
22949,-9e-05,7e-05,4e-05,6e-05,3e-05,-0.00011,-2e-05,1e-05,5,14
22950,-9e-05,7e-05,4e-05,6e-05,3e-05,-0.00011,-2e-05,1e-05,5,14
22951,-9e-05,7e-05,4e-05,6e-05,3e-05,-0.00011,-2e-05,1e-05,5,14
22952,-9e-05,7e-05,4e-05,6e-05,3e-05,-0.00011,-2e-05,1e-05,5,14
22953,-9e-05,7e-05,4e-05,6e-05,3e-05,-0.00011,-2e-05,1e-05,5,14
22954,-9e-05,7e-05,4e-05,6e-05,3e-05,-0.00011,-2e-05,1e-05,5,14
22955,2e-05,4e-05,4e-05,-0.00026,-2e-05,-0.00052,0.00011,-1e-05,5,14
22956,4e-05,2e-05,3e-05,1e-05,4e-05,0.00021,0.00011,8e-05,5,14
22957,-1e-05,-5e-05,0,9e-05,-3e-05,0.00011,-2e-05,-3e-05,5,14
22958,-1e-05,-5e-05,0,9e-05,-3e-05,0.00011,-2e-05,-3e-05,5,14
22959,-1e-05,-5e-05,0,9e-05,-3e-05,0.00011,-2e-05,-3e-05,5,14
22960,-1e-05,-5e-05,0,9e-05,-3e-05,0.00011,-2e-05,-3e-05,5,14
22961,-1e-05,-5e-05,0,9e-05,-3e-05,0.00011,-2e-05,-3e-05,5,14
22962,-1e-05,-5e-05,0,9e-05,-3e-05,0.00011,-2e-05,-3e-05,5,14
22963,-1e-05,-5e-05,0,9e-05,-3e-05,0.00011,-2e-05,-3e-05,5,14
22964,-1e-05,-5e-05,0,9e-05,-3e-05,0.00011,-2e-05,-3e-05,5,14
22965,-1e-05,-5e-05,0,9e-05,-3e-05,0.00011,-2e-05,-3e-05,5,14
22966,-1e-05,-5e-05,0,9e-05,-3e-05,0.00011,-2e-05,-3e-05,5,14
22967,-1e-05,-5e-05,0,9e-05,-3e-05,0.00011,-2e-05,-3e-05,5,14
22968,-1e-05,-5e-05,0,9e-05,-3e-05,0.00011,-2e-05,-3e-05,5,14
22969,-0.00012,0.0001,7e-05,0,-9e-05,0.00018,-5e-05,-2e-05,5,14
22970,-0.00012,0.0001,7e-05,0,-9e-05,0.00018,-5e-05,-2e-05,5,14
22971,-0.00012,0.0001,7e-05,0,-9e-05,0.00018,-5e-05,-2e-05,5,14
22972,-0.00012,0.0001,7e-05,0,-9e-05,0.00018,-5e-05,-2e-05,5,14
22973,-0.00012,0.0001,7e-05,0,-9e-05,0.00018,-5e-05,-2e-05,5,14
22974,-0.00012,0.0001,7e-05,0,-9e-05,0.00018,-5e-05,-2e-05,5,14
22975,-0.00012,0.0001,7e-05,0,-9e-05,0.00018,-5e-05,-2e-05,5,14
22976,-0.00012,0.0001,7e-05,0,-9e-05,0.00018,-5e-05,-2e-05,5,14
22977,-0.00012,0.0001,7e-05,0,-9e-05,0.00018,-5e-05,-2e-05,5,14
22978,-0.00012,0.0001,7e-05,0,-9e-05,0.00018,-5e-05,-2e-05,5,14
22979,-0.00012,0.0001,7e-05,0,-9e-05,0.00018,-5e-05,-2e-05,5,14
22980,-0.00012,0.0001,7e-05,0,-9e-05,0.00018,-5e-05,-2e-05,5,14
22981,-0.00012,0.0001,7e-05,0,-9e-05,0.00018,-5e-05,-2e-05,5,14
22982,-0.00012,0.0001,7e-05,0,-9e-05,0.00018,-5e-05,-2e-05,5,14
22983,0.00015,-0.00018,-0.00016,-0.0005,8e-05,3e-05,0,0,5,14
22984,0,1e-05,2e-05,0.00039,1e-05,-9e-05,1e-05,-2e-05,5,14
22985,0,1e-05,2e-05,0.00039,1e-05,-9e-05,1e-05,-2e-05,5,14
22986,0,1e-05,2e-05,0.00039,1e-05,-9e-05,1e-05,-2e-05,5,14
22988,0,1e-05,2e-05,0.00039,1e-05,-9e-05,1e-05,-2e-05,5,14
22989,0,1e-05,2e-05,0.00039,1e-05,-9e-05,1e-05,-2e-05,5,14
22990,0,1e-05,2e-05,0.00039,1e-05,-9e-05,1e-05,-2e-05,5,14
22991,0,1e-05,2e-05,0.00039,1e-05,-9e-05,1e-05,-2e-05,5,14
22992,-3e-05,-2e-05,-6e-05,0,-3e-05,0,-7e-05,-5e-05,5,14
22993,-3e-05,-2e-05,-6e-05,0,-3e-05,0,-7e-05,-5e-05,5,14
22994,3e-05,-5e-05,-3e-05,-0.00031,-4e-05,-2e-05,5e-05,0,5,14
22995,3e-05,-5e-05,-3e-05,-0.00031,-4e-05,-2e-05,5e-05,0,5,14
22996,3e-05,-5e-05,-3e-05,-0.00031,-4e-05,-2e-05,5e-05,0,5,14
22997,3e-05,-5e-05,-3e-05,-0.00031,-4e-05,-2e-05,5e-05,0,5,14
22998,3e-05,-5e-05,-3e-05,-0.00031,-4e-05,-2e-05,5e-05,0,5,14
22999,3e-05,-5e-05,-3e-05,-0.00031,-4e-05,-2e-05,5e-05,0,5,14
23000,3e-05,-5e-05,-3e-05,-0.00031,-4e-05,-2e-05,5e-05,0,5,14
23001,3e-05,-5e-05,-3e-05,-0.00031,-4e-05,-2e-05,5e-05,0,5,14
23002,3e-05,-5e-05,-3e-05,-0.00031,-4e-05,-2e-05,5e-05,0,5,14
23003,3e-05,-5e-05,-3e-05,-0.00031,-4e-05,-2e-05,5e-05,0,5,14
23004,3e-05,-5e-05,-3e-05,-0.00031,-4e-05,-2e-05,5e-05,0,5,14
23005,3e-05,-5e-05,-3e-05,-0.00031,-4e-05,-2e-05,5e-05,0,5,14
23006,3e-05,-5e-05,-3e-05,-0.00031,-4e-05,-2e-05,5e-05,0,5,14
23007,3e-05,-5e-05,-3e-05,-0.00031,-4e-05,-2e-05,5e-05,0,5,14
23008,3e-05,-5e-05,-3e-05,-0.00031,-4e-05,-2e-05,5e-05,0,5,14
23009,3e-05,-5e-05,-3e-05,-0.00031,-4e-05,-2e-05,5e-05,0,5,14
23010,3e-05,-5e-05,-3e-05,-0.00031,-4e-05,-2e-05,5e-05,0,5,14
23011,3e-05,-5e-05,-3e-05,-0.00031,-4e-05,-2e-05,5e-05,0,5,14
23012,3e-05,-5e-05,-3e-05,-0.00031,-4e-05,-2e-05,5e-05,0,5,14
23013,3e-05,-5e-05,-3e-05,-0.00031,-4e-05,-2e-05,5e-05,0,5,14
23014,3e-05,-5e-05,-3e-05,-0.00031,-4e-05,-2e-05,5e-05,0,5,14
23015,1e-05,-7e-05,-0.00018,0.00022,3e-05,0.00012,1e-05,1e-05,5,14
23016,-4e-05,-1e-05,-2e-05,-0.00027,-5e-05,-0.00013,0,-3e-05,5,14
23017,0.0001,-1e-05,0,0.00026,-7e-05,0.00028,9e-05,6e-05,5,14
23018,0.0001,-1e-05,0,0.00026,-7e-05,0.00028,9e-05,6e-05,5,14
23019,0.0001,-1e-05,0,0.00026,-7e-05,0.00028,9e-05,6e-05,5,14
23020,0.0001,-1e-05,0,0.00026,-7e-05,0.00028,9e-05,6e-05,5,14
23021,0.0001,-1e-05,0,0.00026,-7e-05,0.00028,9e-05,6e-05,5,14
23022,0.0001,-1e-05,0,0.00026,-7e-05,0.00028,9e-05,6e-05,5,14
23023,0.0001,-1e-05,0,0.00026,-7e-05,0.00028,9e-05,6e-05,5,14
23024,0.0001,-1e-05,0,0.00026,-7e-05,0.00028,9e-05,6e-05,5,14
23025,0.0001,-1e-05,0,0.00026,-7e-05,0.00028,9e-05,6e-05,5,14
23026,0.0001,-1e-05,0,0.00026,-7e-05,0.00028,9e-05,6e-05,5,14
23027,0.0001,-1e-05,0,0.00026,-7e-05,0.00028,9e-05,6e-05,5,14
23028,0.0001,-1e-05,0,0.00026,-7e-05,0.00028,9e-05,6e-05,5,14
48102,6e-05,0.00016,-2e-05,-0.00022,-2e-05,-0.00024,-3e-05,5e-05,5,14
48103,6e-05,0.00016,-2e-05,-0.00022,-2e-05,-0.00024,-3e-05,5e-05,5,14
48104,0.00034,-0.00016,0.00013,0.00042,-4e-05,0.00018,0.00011,5e-05,5,14
48105,0.00034,-0.00016,0.00013,0.00042,-4e-05,0.00018,0.00011,5e-05,5,14
48106,0.00034,-0.00016,0.00013,0.00042,-4e-05,0.00018,0.00011,5e-05,5,14
48107,0.00034,-0.00016,0.00013,0.00042,-4e-05,0.00018,0.00011,5e-05,5,14
48108,0.00034,-0.00016,0.00013,0.00042,-4e-05,0.00018,0.00011,5e-05,5,14
48109,0.00034,-0.00016,0.00013,0.00042,-4e-05,0.00018,0.00011,5e-05,5,14
48110,0.00034,-0.00016,0.00013,0.00042,-4e-05,0.00018,0.00011,5e-05,5,14
48111,0.00034,-0.00016,0.00013,0.00042,-4e-05,0.00018,0.00011,5e-05,5,14
48112,0.00034,-0.00016,0.00013,0.00042,-4e-05,0.00018,0.00011,5e-05,5,14
48113,0.00034,-0.00016,0.00013,0.00042,-4e-05,0.00018,0.00011,5e-05,5,14
48114,0.00034,-0.00016,0.00013,0.00042,-4e-05,0.00018,0.00011,5e-05,5,14
48115,0.00034,-0.00016,0.00013,0.00042,-4e-05,0.00018,0.00011,5e-05,5,14
48116,0.00034,-0.00016,0.00013,0.00042,-4e-05,0.00018,0.00011,5e-05,5,14
48117,0.00034,-0.00016,0.00013,0.00042,-4e-05,0.00018,0.00011,5e-05,5,14
48118,-0.00036,-1e-05,9e-05,8e-05,-1e-05,-1e-05,-4e-05,-5e-05,5,14
48119,0.00016,0,9e-05,-0.0005,-0.00016,-0.0006,2e-05,0.0001,5,14
48120,0.00016,0,9e-05,-0.0005,-0.00016,-0.0006,2e-05,0.0001,5,14
48121,0.00016,0,9e-05,-0.0005,-0.00016,-0.0006,2e-05,0.0001,5,14
48122,0.00016,0,9e-05,-0.0005,-0.00016,-0.0006,2e-05,0.0001,5,14
48123,0.00016,0,9e-05,-0.0005,-0.00016,-0.0006,2e-05,0.0001,5,14
48124,0.00016,0,9e-05,-0.0005,-0.00016,-0.0006,2e-05,0.0001,5,14
48125,0.00016,0,9e-05,-0.0005,-0.00016,-0.0006,2e-05,0.0001,5,14
48126,0.00016,0,9e-05,-0.0005,-0.00016,-0.0006,2e-05,0.0001,5,14
48127,0.00016,0,9e-05,-0.0005,-0.00016,-0.0006,2e-05,0.0001,5,14
48128,0.00016,0,9e-05,-0.0005,-0.00016,-0.0006,2e-05,0.0001,5,14
48129,0.00016,0,9e-05,-0.0005,-0.00016,-0.0006,2e-05,0.0001,5,14
48130,0.00016,0,9e-05,-0.0005,-0.00016,-0.0006,2e-05,0.0001,5,14
48131,0.00016,0,9e-05,-0.0005,-0.00016,-0.0006,2e-05,0.0001,5,14
48132,0.00016,0,9e-05,-0.0005,-0.00016,-0.0006,2e-05,0.0001,5,14
48133,0.00016,0,9e-05,-0.0005,-0.00016,-0.0006,2e-05,0.0001,5,14
48134,0.00016,0,9e-05,-0.0005,-0.00016,-0.0006,2e-05,0.0001,5,14
48135,0.00016,0,9e-05,-0.0005,-0.00016,-0.0006,2e-05,0.0001,5,14
48136,0.00016,0,9e-05,-0.0005,-0.00016,-0.0006,2e-05,0.0001,5,14
48138,0.00016,0,9e-05,-0.0005,-0.00016,-0.0006,2e-05,0.0001,5,14
48139,0.00016,0,9e-05,-0.0005,-0.00016,-0.0006,2e-05,0.0001,5,14
48140,-9e-05,-9e-05,8e-05,0.00031,1e-05,-0.00017,-6e-05,-5e-05,5,14
48141,-0.00025,-0.0001,1e-05,-4e-05,3e-05,-3e-05,-0.00011,-0.00013,5,14
48142,-0.00025,-0.0001,1e-05,-4e-05,3e-05,-3e-05,-0.00011,-0.00013,5,14
48143,-0.00025,-0.0001,1e-05,-4e-05,3e-05,-3e-05,-0.00011,-0.00013,5,14
48144,-0.00025,-0.0001,1e-05,-4e-05,3e-05,-3e-05,-0.00011,-0.00013,5,14
48145,-0.00025,-0.0001,1e-05,-4e-05,3e-05,-3e-05,-0.00011,-0.00013,5,14
48146,-0.00025,-0.0001,1e-05,-4e-05,3e-05,-3e-05,-0.00011,-0.00013,5,14
48147,-0.00025,-0.0001,1e-05,-4e-05,3e-05,-3e-05,-0.00011,-0.00013,5,14
48148,-0.00025,-0.0001,1e-05,-4e-05,3e-05,-3e-05,-0.00011,-0.00013,5,14
48149,-0.00025,-0.0001,1e-05,-4e-05,3e-05,-3e-05,-0.00011,-0.00013,5,14
48150,-0.00025,-0.0001,1e-05,-4e-05,3e-05,-3e-05,-0.00011,-0.00013,5,14
48151,-0.00025,-0.0001,1e-05,-4e-05,3e-05,-3e-05,-0.00011,-0.00013,5,14
48152,-0.00025,-0.0001,1e-05,-4e-05,3e-05,-3e-05,-0.00011,-0.00013,5,14
48153,-0.00025,-0.0001,1e-05,-4e-05,3e-05,-3e-05,-0.00011,-0.00013,5,14
48154,-0.00025,-0.0001,1e-05,-4e-05,3e-05,-3e-05,-0.00011,-0.00013,5,14
48155,-0.00025,-0.0001,1e-05,-4e-05,3e-05,-3e-05,-0.00011,-0.00013,5,14
48156,-0.00025,-0.0001,1e-05,-4e-05,3e-05,-3e-05,-0.00011,-0.00013,5,14
48157,-0.00025,-0.0001,1e-05,-4e-05,3e-05,-3e-05,-0.00011,-0.00013,5,14
48158,-0.00025,-0.0001,1e-05,-4e-05,3e-05,-3e-05,-0.00011,-0.00013,5,14
48159,-0.00025,-0.0001,1e-05,-4e-05,3e-05,-3e-05,-0.00011,-0.00013,5,14
48160,-0.00025,-0.0001,1e-05,-4e-05,3e-05,-3e-05,-0.00011,-0.00013,5,14
48161,-0.00025,-0.0001,1e-05,-4e-05,3e-05,-3e-05,-0.00011,-0.00013,5,14
48162,-0.00061,-8e-05,5e-05,-0.00027,7e-05,-0.00032,-9e-05,-4e-05,5,14
48163,-0.00061,-8e-05,5e-05,-0.00027,7e-05,-0.00032,-9e-05,-4e-05,5,14
48164,-0.00061,-8e-05,5e-05,-0.00027,7e-05,-0.00032,-9e-05,-4e-05,5,14
48165,-0.00061,-8e-05,5e-05,-0.00027,7e-05,-0.00032,-9e-05,-4e-05,5,14
48166,-0.00061,-8e-05,5e-05,-0.00027,7e-05,-0.00032,-9e-05,-4e-05,5,14
48167,-0.00061,-8e-05,5e-05,-0.00027,7e-05,-0.00032,-9e-05,-4e-05,5,14
48168,-0.00061,-8e-05,5e-05,-0.00027,7e-05,-0.00032,-9e-05,-4e-05,5,14
48169,-0.00061,-8e-05,5e-05,-0.00027,7e-05,-0.00032,-9e-05,-4e-05,5,14
48170,-9e-05,0.00014,9e-05,-7e-05,-3e-05,-2e-05,4e-05,0.0001,5,14
48171,-9e-05,0.00014,9e-05,-7e-05,-3e-05,-2e-05,4e-05,0.0001,5,14
48172,-9e-05,0.00014,9e-05,-7e-05,-3e-05,-2e-05,4e-05,0.0001,5,14
48173,-9e-05,0.00014,9e-05,-7e-05,-3e-05,-2e-05,4e-05,0.0001,5,14
48174,-9e-05,0.00014,9e-05,-7e-05,-3e-05,-2e-05,4e-05,0.0001,5,14
48175,-9e-05,0.00014,9e-05,-7e-05,-3e-05,-2e-05,4e-05,0.0001,5,14
48176,-9e-05,0.00014,9e-05,-7e-05,-3e-05,-2e-05,4e-05,0.0001,5,14
48177,0.00011,9e-05,-8e-05,-0.00028,3e-05,9e-05,9e-05,4e-05,5,14
48178,0.00011,9e-05,-8e-05,-0.00028,3e-05,9e-05,9e-05,4e-05,5,14
48179,0.00019,2e-05,-1e-05,0.00019,0,0.00047,3e-05,1e-05,5,14
48180,0.00019,2e-05,-1e-05,0.00019,0,0.00047,3e-05,1e-05,5,14
48181,0.00019,2e-05,-1e-05,0.00019,0,0.00047,3e-05,1e-05,5,14
48182,0.00019,2e-05,-1e-05,0.00019,0,0.00047,3e-05,1e-05,5,14
48183,0.00019,2e-05,-1e-05,0.00019,0,0.00047,3e-05,1e-05,5,14
48184,0.00019,2e-05,-1e-05,0.00019,0,0.00047,3e-05,1e-05,5,14
48185,0.00019,2e-05,-1e-05,0.00019,0,0.00047,3e-05,1e-05,5,14
48186,0.00019,2e-05,-1e-05,0.00019,0,0.00047,3e-05,1e-05,5,14
48188,0.00019,2e-05,-1e-05,0.00019,0,0.00047,3e-05,1e-05,5,14
48189,0.00019,2e-05,-1e-05,0.00019,0,0.00047,3e-05,1e-05,5,14
48190,0.00019,2e-05,-1e-05,0.00019,0,0.00047,3e-05,1e-05,5,14
48191,0.00019,2e-05,-1e-05,0.00019,0,0.00047,3e-05,1e-05,5,14
48192,0.00019,2e-05,-1e-05,0.00019,0,0.00047,3e-05,1e-05,5,14
48193,0.00019,2e-05,-1e-05,0.00019,0,0.00047,3e-05,1e-05,5,14
48194,0.00019,2e-05,-1e-05,0.00019,0,0.00047,3e-05,1e-05,5,14
48195,0.00019,2e-05,-1e-05,0.00019,0,0.00047,3e-05,1e-05,5,14
48196,0.00019,2e-05,-1e-05,0.00019,0,0.00047,3e-05,1e-05,5,14
48197,0.00019,2e-05,-1e-05,0.00019,0,0.00047,3e-05,1e-05,5,14
48198,0.00019,2e-05,-1e-05,0.00019,0,0.00047,3e-05,1e-05,5,14
48199,0.00019,2e-05,-1e-05,0.00019,0,0.00047,3e-05,1e-05,5,14
48200,0.00019,2e-05,-1e-05,0.00019,0,0.00047,3e-05,1e-05,5,14
48201,0.00041,-6e-05,-0.00011,-0.00032,-2e-05,-0.00019,-8e-05,-1e-05,5,14
48202,0.00041,-6e-05,-0.00011,-0.00032,-2e-05,-0.00019,-8e-05,-1e-05,5,14
48203,0.00012,9e-05,-9e-05,-0.00021,4e-05,-0.00015,-0.0001,-8e-05,5,14
48204,0.00012,9e-05,-9e-05,-0.00021,4e-05,-0.00015,-0.0001,-8e-05,5,14
48205,0.00012,9e-05,-9e-05,-0.00021,4e-05,-0.00015,-0.0001,-8e-05,5,14
48206,0.00012,9e-05,-9e-05,-0.00021,4e-05,-0.00015,-0.0001,-8e-05,5,14
48207,0.00012,9e-05,-9e-05,-0.00021,4e-05,-0.00015,-0.0001,-8e-05,5,14
48208,0.00012,9e-05,-9e-05,-0.00021,4e-05,-0.00015,-0.0001,-8e-05,5,14
48209,0.00012,9e-05,-9e-05,-0.00021,4e-05,-0.00015,-0.0001,-8e-05,5,14
48210,0.00012,9e-05,-9e-05,-0.00021,4e-05,-0.00015,-0.0001,-8e-05,5,14
48211,0.00012,9e-05,-9e-05,-0.00021,4e-05,-0.00015,-0.0001,-8e-05,5,14
48212,0.00012,9e-05,-9e-05,-0.00021,4e-05,-0.00015,-0.0001,-8e-05,5,14
48213,0.00012,9e-05,-9e-05,-0.00021,4e-05,-0.00015,-0.0001,-8e-05,5,14
48214,0.00012,9e-05,-9e-05,-0.00021,4e-05,-0.00015,-0.0001,-8e-05,5,14
48215,0.00012,9e-05,-9e-05,-0.00021,4e-05,-0.00015,-0.0001,-8e-05,5,14
48216,0.00012,9e-05,-9e-05,-0.00021,4e-05,-0.00015,-0.0001,-8e-05,5,14
48217,0.00012,9e-05,-9e-05,-0.00021,4e-05,-0.00015,-0.0001,-8e-05,5,14
48218,0.00012,9e-05,-9e-05,-0.00021,4e-05,-0.00015,-0.0001,-8e-05,5,14
48219,0.00012,9e-05,-9e-05,-0.00021,4e-05,-0.00015,-0.0001,-8e-05,5,14
48220,0.00012,9e-05,-9e-05,-0.00021,4e-05,-0.00015,-0.0001,-8e-05,5,14
48221,0.00012,9e-05,-9e-05,-0.00021,4e-05,-0.00015,-0.0001,-8e-05,5,14
48222,-0.00031,0.00014,0.0001,8e-05,-8e-05,0.00037,0.0001,-2e-05,5,14
48223,-0.00031,0.00014,0.0001,8e-05,-8e-05,0.00037,0.0001,-2e-05,5,14
48224,-4e-05,-3e-05,-0.00017,-0.00031,6e-05,-9e-05,-0.0001,-7e-05,5,14
48225,-4e-05,-3e-05,-0.00017,-0.00031,6e-05,-9e-05,-0.0001,-7e-05,5,14
48226,-4e-05,-3e-05,-0.00017,-0.00031,6e-05,-9e-05,-0.0001,-7e-05,5,14
48227,-4e-05,-3e-05,-0.00017,-0.00031,6e-05,-9e-05,-0.0001,-7e-05,5,14
48228,-4e-05,-3e-05,-0.00017,-0.00031,6e-05,-9e-05,-0.0001,-7e-05,5,14
48229,-4e-05,-3e-05,-0.00017,-0.00031,6e-05,-9e-05,-0.0001,-7e-05,5,14
48230,-4e-05,-3e-05,-0.00017,-0.00031,6e-05,-9e-05,-0.0001,-7e-05,5,14
48231,-4e-05,-3e-05,-0.00017,-0.00031,6e-05,-9e-05,-0.0001,-7e-05,5,14
48232,-4e-05,-3e-05,-0.00017,-0.00031,6e-05,-9e-05,-0.0001,-7e-05,5,14
48233,-4e-05,-3e-05,-0.00017,-0.00031,6e-05,-9e-05,-0.0001,-7e-05,5,14
48234,-4e-05,-3e-05,-0.00017,-0.00031,6e-05,-9e-05,-0.0001,-7e-05,5,14
48235,-4e-05,-3e-05,-0.00017,-0.00031,6e-05,-9e-05,-0.0001,-7e-05,5,14
48236,-4e-05,-3e-05,-0.00017,-0.00031,6e-05,-9e-05,-0.0001,-7e-05,5,14
48238,0.00014,-2e-05,0,-4e-05,-3e-05,-4e-05,0.00014,8e-05,5,14
48239,0.00014,-2e-05,0,-4e-05,-3e-05,-4e-05,0.00014,8e-05,5,14
48240,0.00014,-2e-05,0,-4e-05,-3e-05,-4e-05,0.00014,8e-05,5,14
48241,0.00014,-2e-05,0,-4e-05,-3e-05,-4e-05,0.00014,8e-05,5,14
48242,0.00014,-2e-05,0,-4e-05,-3e-05,-4e-05,0.00014,8e-05,5,14
48243,-5e-05,-2e-05,7e-05,0,-7e-05,9e-05,-5e-05,2e-05,5,14
48244,-0.00041,-0.00012,3e-05,3e-05,3e-05,-0.00022,-0.00012,-9e-05,5,14
48245,-0.00041,-0.00012,3e-05,3e-05,3e-05,-0.00022,-0.00012,-9e-05,5,14
48246,-0.00041,-0.00012,3e-05,3e-05,3e-05,-0.00022,-0.00012,-9e-05,5,14
48247,-0.00041,-0.00012,3e-05,3e-05,3e-05,-0.00022,-0.00012,-9e-05,5,14
48248,-0.00041,-0.00012,3e-05,3e-05,3e-05,-0.00022,-0.00012,-9e-05,5,14
48249,-0.00041,-0.00012,3e-05,3e-05,3e-05,-0.00022,-0.00012,-9e-05,5,14
48250,-0.00041,-0.00012,3e-05,3e-05,3e-05,-0.00022,-0.00012,-9e-05,5,14
48251,-0.00041,-0.00012,3e-05,3e-05,3e-05,-0.00022,-0.00012,-9e-05,5,14
48252,-0.00041,-0.00012,3e-05,3e-05,3e-05,-0.00022,-0.00012,-9e-05,5,14
48253,-0.00041,-0.00012,3e-05,3e-05,3e-05,-0.00022,-0.00012,-9e-05,5,14
48254,-0.00041,-0.00012,3e-05,3e-05,3e-05,-0.00022,-0.00012,-9e-05,5,14
48255,-0.00041,-0.00012,3e-05,3e-05,3e-05,-0.00022,-0.00012,-9e-05,5,14
48256,-0.00041,-0.00012,3e-05,3e-05,3e-05,-0.00022,-0.00012,-9e-05,5,14
48257,-0.00041,-0.00012,3e-05,3e-05,3e-05,-0.00022,-0.00012,-9e-05,5,14
48258,-0.00041,-0.00012,3e-05,3e-05,3e-05,-0.00022,-0.00012,-9e-05,5,14
48259,-0.00041,-0.00012,3e-05,3e-05,3e-05,-0.00022,-0.00012,-9e-05,5,14
48260,-3e-05,0.00012,0.00014,0.00071,5e-05,6e-05,-8e-05,-9e-05,5,14
48261,0.00021,-0.00011,-0.00013,-9e-05,-2e-05,-0.00019,1e-05,1e-05,5,14
48262,0.00021,-0.00011,-0.00013,-9e-05,-2e-05,-0.00019,1e-05,1e-05,5,14
48263,0.00021,-0.00011,-0.00013,-9e-05,-2e-05,-0.00019,1e-05,1e-05,5,14
48264,0.00021,-0.00011,-0.00013,-9e-05,-2e-05,-0.00019,1e-05,1e-05,5,14
48265,0.00021,-0.00011,-0.00013,-9e-05,-2e-05,-0.00019,1e-05,1e-05,5,14
48266,0.00021,-0.00011,-0.00013,-9e-05,-2e-05,-0.00019,1e-05,1e-05,5,14
48267,0.00021,-0.00011,-0.00013,-9e-05,-2e-05,-0.00019,1e-05,1e-05,5,14
48268,0.00021,-0.00011,-0.00013,-9e-05,-2e-05,-0.00019,1e-05,1e-05,5,14
48269,0.00021,-0.00011,-0.00013,-9e-05,-2e-05,-0.00019,1e-05,1e-05,5,14
48270,0.00021,-0.00011,-0.00013,-9e-05,-2e-05,-0.00019,1e-05,1e-05,5,14
48271,0.00021,-0.00011,-0.00013,-9e-05,-2e-05,-0.00019,1e-05,1e-05,5,14
48272,0.00021,-0.00011,-0.00013,-9e-05,-2e-05,-0.00019,1e-05,1e-05,5,14
48273,0.00021,-0.00011,-0.00013,-9e-05,-2e-05,-0.00019,1e-05,1e-05,5,14
48274,0.00021,-0.00011,-0.00013,-9e-05,-2e-05,-0.00019,1e-05,1e-05,5,14
48275,0.00021,-0.00011,-0.00013,-9e-05,-2e-05,-0.00019,1e-05,1e-05,5,14
48276,0.00021,-0.00011,-0.00013,-9e-05,-2e-05,-0.00019,1e-05,1e-05,5,14
48277,0.00021,-0.00011,-0.00013,-9e-05,-2e-05,-0.00019,1e-05,1e-05,5,14
48278,0.00021,-0.00011,-0.00013,-9e-05,-2e-05,-0.00019,1e-05,1e-05,5,14
48279,0.00021,-0.00011,-0.00013,-9e-05,-2e-05,-0.00019,1e-05,1e-05,5,14
48280,0.00021,-0.00011,-0.00013,-9e-05,-2e-05,-0.00019,1e-05,1e-05,5,14
48281,0.00021,-0.00011,-0.00013,-9e-05,-2e-05,-0.00019,1e-05,1e-05,5,14
48282,0.00047,0.00012,-9e-05,0.00024,7e-05,-0.00012,-3e-05,0,5,14
48283,0.00047,0.00012,-9e-05,0.00024,7e-05,-0.00012,-3e-05,0,5,14
48284,-0.00014,6e-05,1e-05,0.00061,-2e-05,0.00028,5e-05,3e-05,5,14
48285,-0.00014,6e-05,1e-05,0.00061,-2e-05,0.00028,5e-05,3e-05,5,14
48286,-0.00014,6e-05,1e-05,0.00061,-2e-05,0.00028,5e-05,3e-05,5,14
48288,-0.00014,6e-05,1e-05,0.00061,-2e-05,0.00028,5e-05,3e-05,5,14
48289,-0.00014,6e-05,1e-05,0.00061,-2e-05,0.00028,5e-05,3e-05,5,14
48290,-0.00014,6e-05,1e-05,0.00061,-2e-05,0.00028,5e-05,3e-05,5,14
48291,-0.00014,6e-05,1e-05,0.00061,-2e-05,0.00028,5e-05,3e-05,5,14
48292,-0.00014,6e-05,1e-05,0.00061,-2e-05,0.00028,5e-05,3e-05,5,14
48293,-0.00014,6e-05,1e-05,0.00061,-2e-05,0.00028,5e-05,3e-05,5,14
48294,-0.00014,6e-05,1e-05,0.00061,-2e-05,0.00028,5e-05,3e-05,5,14
48295,-0.00014,6e-05,1e-05,0.00061,-2e-05,0.00028,5e-05,3e-05,5,14
48296,-0.00014,6e-05,1e-05,0.00061,-2e-05,0.00028,5e-05,3e-05,5,14
48297,-8e-05,-8e-05,-7e-05,-0.00019,6e-05,9e-05,3e-05,3e-05,5,14
48298,-8e-05,-8e-05,-7e-05,-0.00019,6e-05,9e-05,3e-05,3e-05,5,14
48299,-8e-05,-8e-05,-7e-05,-0.00019,6e-05,9e-05,3e-05,3e-05,5,14
48300,-8e-05,-8e-05,-7e-05,-0.00019,6e-05,9e-05,3e-05,3e-05,5,14
48301,-8e-05,-8e-05,-7e-05,-0.00019,6e-05,9e-05,3e-05,3e-05,5,14
48302,-8e-05,-8e-05,-7e-05,-0.00019,6e-05,9e-05,3e-05,3e-05,5,14
48303,6e-05,0,0.00014,-0.00043,-4e-05,-0.00022,-3e-05,0,5,14
48304,-5e-05,-4e-05,-7e-05,3e-05,-4e-05,2e-05,1e-05,1e-05,5,14
48305,-5e-05,-4e-05,-7e-05,3e-05,-4e-05,2e-05,1e-05,1e-05,5,14
48306,-5e-05,-4e-05,-7e-05,3e-05,-4e-05,2e-05,1e-05,1e-05,5,14
48307,-5e-05,-4e-05,-7e-05,3e-05,-4e-05,2e-05,1e-05,1e-05,5,14
48308,-5e-05,-4e-05,-7e-05,3e-05,-4e-05,2e-05,1e-05,1e-05,5,14
48309,-5e-05,-4e-05,-7e-05,3e-05,-4e-05,2e-05,1e-05,1e-05,5,14
48310,-5e-05,-4e-05,-7e-05,3e-05,-4e-05,2e-05,1e-05,1e-05,5,14
48311,-5e-05,-4e-05,-7e-05,3e-05,-4e-05,2e-05,1e-05,1e-05,5,14
48312,-5e-05,-4e-05,-7e-05,3e-05,-4e-05,2e-05,1e-05,1e-05,5,14
48313,-5e-05,-4e-05,-7e-05,3e-05,-4e-05,2e-05,1e-05,1e-05,5,14
48314,-5e-05,-4e-05,-7e-05,3e-05,-4e-05,2e-05,1e-05,1e-05,5,14
48315,-5e-05,-4e-05,-7e-05,3e-05,-4e-05,2e-05,1e-05,1e-05,5,14
48316,-5e-05,-4e-05,-7e-05,3e-05,-4e-05,2e-05,1e-05,1e-05,5,14
48317,-5e-05,-4e-05,-7e-05,3e-05,-4e-05,2e-05,1e-05,1e-05,5,14
48318,-5e-05,-4e-05,-7e-05,3e-05,-4e-05,2e-05,1e-05,1e-05,5,14
48319,-5e-05,-4e-05,-7e-05,3e-05,-4e-05,2e-05,1e-05,1e-05,5,14
48320,7e-05,-1e-05,-0.00017,-0.00058,6e-05,-3e-05,-0.00011,-7e-05,5,14
48321,-0.00025,-5e-05,2e-05,-0.00027,5e-05,1e-05,4e-05,-5e-05,5,14
48322,-0.00025,-5e-05,2e-05,-0.00027,5e-05,1e-05,4e-05,-5e-05,5,14
48323,-0.00025,-5e-05,2e-05,-0.00027,5e-05,1e-05,4e-05,-5e-05,5,14
48324,-0.00025,-5e-05,2e-05,-0.00027,5e-05,1e-05,4e-05,-5e-05,5,14
48325,-0.00025,-5e-05,2e-05,-0.00027,5e-05,1e-05,4e-05,-5e-05,5,14
48326,-0.00025,-5e-05,2e-05,-0.00027,5e-05,1e-05,4e-05,-5e-05,5,14
48327,-0.00025,-5e-05,2e-05,-0.00027,5e-05,1e-05,4e-05,-5e-05,5,14
48328,-0.00025,-5e-05,2e-05,-0.00027,5e-05,1e-05,4e-05,-5e-05,5,14
48329,-0.00025,-5e-05,2e-05,-0.00027,5e-05,1e-05,4e-05,-5e-05,5,14
48330,-0.00025,-5e-05,2e-05,-0.00027,5e-05,1e-05,4e-05,-5e-05,5,14
48331,-0.00025,-5e-05,2e-05,-0.00027,5e-05,1e-05,4e-05,-5e-05,5,14
48332,-0.00025,-5e-05,2e-05,-0.00027,5e-05,1e-05,4e-05,-5e-05,5,14
48333,-0.00025,-5e-05,2e-05,-0.00027,5e-05,1e-05,4e-05,-5e-05,5,14
48334,-0.00025,-5e-05,2e-05,-0.00027,5e-05,1e-05,4e-05,-5e-05,5,14
48335,-0.00025,-5e-05,2e-05,-0.00027,5e-05,1e-05,4e-05,-5e-05,5,14
48336,-0.00025,-5e-05,2e-05,-0.00027,5e-05,1e-05,4e-05,-5e-05,5,14
48338,-0.00025,-5e-05,2e-05,-0.00027,5e-05,1e-05,4e-05,-5e-05,5,14
48339,-0.00025,-5e-05,2e-05,-0.00027,5e-05,1e-05,4e-05,-5e-05,5,14
48340,-0.00025,-5e-05,2e-05,-0.00027,5e-05,1e-05,4e-05,-5e-05,5,14
48341,-0.00025,-5e-05,2e-05,-0.00027,5e-05,1e-05,4e-05,-5e-05,5,14
48342,-9e-05,-1e-05,0,0.00029,-2e-05,-0.00016,-0.00015,-0.0001,5,14
48343,-9e-05,-1e-05,0,0.00029,-2e-05,-0.00016,-0.00015,-0.0001,5,14
48344,9e-05,5e-05,0.0002,0.00044,-7e-05,0.00033,0.00014,4e-05,5,14
48345,9e-05,5e-05,0.0002,0.00044,-7e-05,0.00033,0.00014,4e-05,5,14
48346,9e-05,5e-05,0.0002,0.00044,-7e-05,0.00033,0.00014,4e-05,5,14
48347,9e-05,5e-05,0.0002,0.00044,-7e-05,0.00033,0.00014,4e-05,5,14
48348,9e-05,5e-05,0.0002,0.00044,-7e-05,0.00033,0.00014,4e-05,5,14
48349,9e-05,5e-05,0.0002,0.00044,-7e-05,0.00033,0.00014,4e-05,5,14
48350,9e-05,5e-05,0.0002,0.00044,-7e-05,0.00033,0.00014,4e-05,5,14
48351,9e-05,5e-05,0.0002,0.00044,-7e-05,0.00033,0.00014,4e-05,5,14
48352,9e-05,5e-05,0.0002,0.00044,-7e-05,0.00033,0.00014,4e-05,5,14
48353,9e-05,5e-05,0.0002,0.00044,-7e-05,0.00033,0.00014,4e-05,5,14
48354,9e-05,5e-05,0.0002,0.00044,-7e-05,0.00033,0.00014,4e-05,5,14
48355,9e-05,5e-05,0.0002,0.00044,-7e-05,0.00033,0.00014,4e-05,5,14
48356,9e-05,5e-05,0.0002,0.00044,-7e-05,0.00033,0.00014,4e-05,5,14
48357,6e-05,-0.00029,0,-0.00011,-2e-05,0.00014,0.0001,0.0001,5,14
48358,6e-05,-0.00029,0,-0.00011,-2e-05,0.00014,0.0001,0.0001,5,14
48359,6e-05,-0.00029,0,-0.00011,-2e-05,0.00014,0.0001,0.0001,5,14
48360,6e-05,-0.00029,0,-0.00011,-2e-05,0.00014,0.0001,0.0001,5,14
48361,6e-05,-0.00029,0,-0.00011,-2e-05,0.00014,0.0001,0.0001,5,14
48362,6e-05,-0.00029,0,-0.00011,-2e-05,0.00014,0.0001,0.0001,5,14
48363,-0.00074,4e-05,6e-05,-0.00024,3e-05,0.00023,2e-05,0,5,14
48364,-0.00074,4e-05,6e-05,-0.00024,3e-05,0.00023,2e-05,0,5,14
48365,-0.00074,4e-05,6e-05,-0.00024,3e-05,0.00023,2e-05,0,5,14
48366,-0.00074,4e-05,6e-05,-0.00024,3e-05,0.00023,2e-05,0,5,14
48367,-0.00074,4e-05,6e-05,-0.00024,3e-05,0.00023,2e-05,0,5,14
48368,-0.00074,4e-05,6e-05,-0.00024,3e-05,0.00023,2e-05,0,5,14
48369,-0.00074,4e-05,6e-05,-0.00024,3e-05,0.00023,2e-05,0,5,14
48370,-0.00074,4e-05,6e-05,-0.00024,3e-05,0.00023,2e-05,0,5,14
48371,-0.00074,4e-05,6e-05,-0.00024,3e-05,0.00023,2e-05,0,5,14
48372,-0.00074,4e-05,6e-05,-0.00024,3e-05,0.00023,2e-05,0,5,14
48373,-0.00074,4e-05,6e-05,-0.00024,3e-05,0.00023,2e-05,0,5,14
48374,-0.00074,4e-05,6e-05,-0.00024,3e-05,0.00023,2e-05,0,5,14
48375,-0.00074,4e-05,6e-05,-0.00024,3e-05,0.00023,2e-05,0,5,14
48376,-0.00074,4e-05,6e-05,-0.00024,3e-05,0.00023,2e-05,0,5,14
48377,-0.00074,4e-05,6e-05,-0.00024,3e-05,0.00023,2e-05,0,5,14
48378,-0.00074,4e-05,6e-05,-0.00024,3e-05,0.00023,2e-05,0,5,14
48379,-0.00074,4e-05,6e-05,-0.00024,3e-05,0.00023,2e-05,0,5,14
48380,-0.00012,-0.00013,-6e-05,0.00046,-3e-05,0.00013,-7e-05,-0.00011,5,14
48381,0.00019,-1e-05,-3e-05,-0.00025,-1e-05,-0.0001,-4e-05,0,5,14
48382,0.00019,-1e-05,-3e-05,-0.00025,-1e-05,-0.0001,-4e-05,0,5,14
48383,0.00019,-1e-05,-3e-05,-0.00025,-1e-05,-0.0001,-4e-05,0,5,14
48384,0.00019,-1e-05,-3e-05,-0.00025,-1e-05,-0.0001,-4e-05,0,5,14
48385,0.00019,-1e-05,-3e-05,-0.00025,-1e-05,-0.0001,-4e-05,0,5,14
48386,0.00019,-1e-05,-3e-05,-0.00025,-1e-05,-0.0001,-4e-05,0,5,14
48388,0.00019,-1e-05,-3e-05,-0.00025,-1e-05,-0.0001,-4e-05,0,5,14
48389,0.00019,-1e-05,-3e-05,-0.00025,-1e-05,-0.0001,-4e-05,0,5,14
48390,0.00019,-1e-05,-3e-05,-0.00025,-1e-05,-0.0001,-4e-05,0,5,14
48391,0.00019,-1e-05,-3e-05,-0.00025,-1e-05,-0.0001,-4e-05,0,5,14
48392,0.00019,-1e-05,-3e-05,-0.00025,-1e-05,-0.0001,-4e-05,0,5,14
48393,0.00019,-1e-05,-3e-05,-0.00025,-1e-05,-0.0001,-4e-05,0,5,14
48394,0.00019,-1e-05,-3e-05,-0.00025,-1e-05,-0.0001,-4e-05,0,5,14
48395,0.00019,-1e-05,-3e-05,-0.00025,-1e-05,-0.0001,-4e-05,0,5,14
48396,0.00019,-1e-05,-3e-05,-0.00025,-1e-05,-0.0001,-4e-05,0,5,14
48397,0.00019,-1e-05,-3e-05,-0.00025,-1e-05,-0.0001,-4e-05,0,5,14
48398,0.00019,-1e-05,-3e-05,-0.00025,-1e-05,-0.0001,-4e-05,0,5,14
48399,0.00019,-1e-05,-3e-05,-0.00025,-1e-05,-0.0001,-4e-05,0,5,14
48400,0.00019,-1e-05,-3e-05,-0.00025,-1e-05,-0.0001,-4e-05,0,5,14
48401,0.00019,-1e-05,-3e-05,-0.00025,-1e-05,-0.0001,-4e-05,0,5,14
48402,-0.00039,-6e-05,8e-05,0.00022,-5e-05,0.00023,0.00019,0.0001,5,14
48403,-0.00039,-6e-05,8e-05,0.00022,-5e-05,0.00023,0.00019,0.0001,5,14
48404,0.00027,-5e-05,-6e-05,0.00018,0,-0.00034,-5e-05,-1e-05,5,14
48405,0.00027,-5e-05,-6e-05,0.00018,0,-0.00034,-5e-05,-1e-05,5,14
48406,0.00027,-5e-05,-6e-05,0.00018,0,-0.00034,-5e-05,-1e-05,5,14
48407,0.00027,-5e-05,-6e-05,0.00018,0,-0.00034,-5e-05,-1e-05,5,14
48408,0.00027,-5e-05,-6e-05,0.00018,0,-0.00034,-5e-05,-1e-05,5,14
48409,0.00027,-5e-05,-6e-05,0.00018,0,-0.00034,-5e-05,-1e-05,5,14
48410,0.00027,-5e-05,-6e-05,0.00018,0,-0.00034,-5e-05,-1e-05,5,14
48411,0.00027,-5e-05,-6e-05,0.00018,0,-0.00034,-5e-05,-1e-05,5,14
48412,0.00027,-5e-05,-6e-05,0.00018,0,-0.00034,-5e-05,-1e-05,5,14
48413,0.00027,-5e-05,-6e-05,0.00018,0,-0.00034,-5e-05,-1e-05,5,14
48414,0.00027,-5e-05,-6e-05,0.00018,0,-0.00034,-5e-05,-1e-05,5,14
48415,0.00027,-5e-05,-6e-05,0.00018,0,-0.00034,-5e-05,-1e-05,5,14
48416,0.00027,-5e-05,-6e-05,0.00018,0,-0.00034,-5e-05,-1e-05,5,14
48417,0.0002,8e-05,2e-05,-0.0004,3e-05,0,-3e-05,2e-05,5,14
48418,0.0002,8e-05,2e-05,-0.0004,3e-05,0,-3e-05,2e-05,5,14
48419,0.0002,8e-05,2e-05,-0.0004,3e-05,0,-3e-05,2e-05,5,14
48420,0.0002,8e-05,2e-05,-0.0004,3e-05,0,-3e-05,2e-05,5,14
48421,0.0002,8e-05,2e-05,-0.0004,3e-05,0,-3e-05,2e-05,5,14
48422,0.0002,8e-05,2e-05,-0.0004,3e-05,0,-3e-05,2e-05,5,14
48423,-4e-05,-4e-05,-0.00027,-0.0003,5e-05,-0.00012,-8e-05,-6e-05,5,14
48424,-0.00015,-0.00019,-1e-05,-0.00015,1e-05,0.00034,3e-05,-3e-05,5,14
48425,-0.00015,-0.00019,-1e-05,-0.00015,1e-05,0.00034,3e-05,-3e-05,5,14
48426,-0.00015,-0.00019,-1e-05,-0.00015,1e-05,0.00034,3e-05,-3e-05,5,14
