20840,2e-05,-7e-05,-6e-05,0.00012,-5e-05,-0.00024,-7e-05,-2e-05,5,16
20841,2e-05,-7e-05,-6e-05,0.00012,-5e-05,-0.00024,-7e-05,-2e-05,5,16
20842,2e-05,-7e-05,-6e-05,0.00012,-5e-05,-0.00024,-7e-05,-2e-05,5,16
20843,0,-3e-05,-3e-05,0.00027,0.0002,9e-05,3e-05,2e-05,5,16
20844,0,-3e-05,-3e-05,0.00027,0.0002,9e-05,3e-05,2e-05,5,16
20845,0,-3e-05,-3e-05,0.00027,0.0002,9e-05,3e-05,2e-05,5,16
20846,0,-3e-05,-3e-05,0.00027,0.0002,9e-05,3e-05,2e-05,5,16
20847,0,-3e-05,-3e-05,0.00027,0.0002,9e-05,3e-05,2e-05,5,16
20848,0,-3e-05,-3e-05,0.00027,0.0002,9e-05,3e-05,2e-05,5,16
20849,0,-3e-05,-3e-05,0.00027,0.0002,9e-05,3e-05,2e-05,5,16
20850,0,-3e-05,-3e-05,0.00027,0.0002,9e-05,3e-05,2e-05,5,16
20851,0,-3e-05,-3e-05,0.00027,0.0002,9e-05,3e-05,2e-05,5,16
20852,0,-3e-05,-3e-05,0.00027,0.0002,9e-05,3e-05,2e-05,5,16
20853,0,-3e-05,-3e-05,0.00027,0.0002,9e-05,3e-05,2e-05,5,16
20854,0,-3e-05,-3e-05,0.00027,0.0002,9e-05,3e-05,2e-05,5,16
20855,0,-3e-05,-3e-05,0.00027,0.0002,9e-05,3e-05,2e-05,5,16
20856,0,-3e-05,-3e-05,0.00027,0.0002,9e-05,3e-05,2e-05,5,16
20857,0,-3e-05,-3e-05,0.00027,0.0002,9e-05,3e-05,2e-05,5,16
20858,0,-3e-05,-3e-05,0.00027,0.0002,9e-05,3e-05,2e-05,5,16
20859,-0.0001,4e-05,7e-05,-0.00065,-0.00053,3e-05,-1e-05,4e-05,5,16
20860,-0.0001,4e-05,7e-05,-0.00065,-0.00053,3e-05,-1e-05,4e-05,5,16
20861,-0.0001,4e-05,7e-05,-0.00065,-0.00053,3e-05,-1e-05,4e-05,5,16
20862,-0.0001,4e-05,7e-05,-0.00065,-0.00053,3e-05,-1e-05,4e-05,5,16
20863,-0.0001,4e-05,7e-05,-0.00065,-0.00053,3e-05,-1e-05,4e-05,5,16
20864,-0.0001,4e-05,7e-05,-0.00065,-0.00053,3e-05,-1e-05,4e-05,5,16
20865,-0.0001,4e-05,7e-05,-0.00065,-0.00053,3e-05,-1e-05,4e-05,5,16
20866,-0.0001,4e-05,7e-05,-0.00065,-0.00053,3e-05,-1e-05,4e-05,5,16
20867,-6e-05,-7e-05,-0.00019,0.00019,0.00016,-3e-05,-6e-05,-4e-05,5,16
20868,-5e-05,-3e-05,7e-05,0.0003,0.00014,5e-05,-1e-05,-5e-05,5,16
20869,-5e-05,-3e-05,7e-05,0.0003,0.00014,5e-05,-1e-05,-5e-05,5,16
20870,-5e-05,-3e-05,7e-05,0.0003,0.00014,5e-05,-1e-05,-5e-05,5,16
20871,-5e-05,-3e-05,7e-05,0.0003,0.00014,5e-05,-1e-05,-5e-05,5,16
20872,-5e-05,-3e-05,7e-05,0.0003,0.00014,5e-05,-1e-05,-5e-05,5,16
20873,-5e-05,-3e-05,7e-05,0.0003,0.00014,5e-05,-1e-05,-5e-05,5,16
20874,-5e-05,-3e-05,7e-05,0.0003,0.00014,5e-05,-1e-05,-5e-05,5,16
20875,-5e-05,-3e-05,7e-05,0.0003,0.00014,5e-05,-1e-05,-5e-05,5,16
20876,-5e-05,-3e-05,7e-05,0.0003,0.00014,5e-05,-1e-05,-5e-05,5,16
20877,-5e-05,-3e-05,7e-05,0.0003,0.00014,5e-05,-1e-05,-5e-05,5,16
20878,-5e-05,-3e-05,7e-05,0.0003,0.00014,5e-05,-1e-05,-5e-05,5,16
20879,-5e-05,-3e-05,7e-05,0.0003,0.00014,5e-05,-1e-05,-5e-05,5,16
20880,-5e-05,-3e-05,7e-05,0.0003,0.00014,5e-05,-1e-05,-5e-05,5,16
20881,-5e-05,-3e-05,7e-05,0.0003,0.00014,5e-05,-1e-05,-5e-05,5,16
20882,-5e-05,-3e-05,7e-05,0.0003,0.00014,5e-05,-1e-05,-5e-05,5,16
20883,-5e-05,-3e-05,7e-05,0.0003,0.00014,5e-05,-1e-05,-5e-05,5,16
20884,-5e-05,-3e-05,7e-05,0.0003,0.00014,5e-05,-1e-05,-5e-05,5,16
20885,-5e-05,-3e-05,7e-05,0.0003,0.00014,5e-05,-1e-05,-5e-05,5,16
20886,-5e-05,-3e-05,7e-05,0.0003,0.00014,5e-05,-1e-05,-5e-05,5,16
20888,-5e-05,-3e-05,7e-05,0.0003,0.00014,5e-05,-1e-05,-5e-05,5,16
20889,-5e-05,0,-0.00018,-0.00027,0.00018,0.00012,1e-05,-3e-05,5,16
20890,-5e-05,0,-0.00018,-0.00027,0.00018,0.00012,1e-05,-3e-05,5,16
20891,3e-05,0,2e-05,-0.00067,-0.00012,-0.00018,-4e-05,3e-05,5,16
20892,3e-05,0,2e-05,-0.00067,-0.00012,-0.00018,-4e-05,3e-05,5,16
20893,3e-05,0,2e-05,-0.00067,-0.00012,-0.00018,-4e-05,3e-05,5,16
20894,3e-05,0,2e-05,-0.00067,-0.00012,-0.00018,-4e-05,3e-05,5,16
20895,3e-05,0,2e-05,-0.00067,-0.00012,-0.00018,-4e-05,3e-05,5,16
20896,3e-05,0,2e-05,-0.00067,-0.00012,-0.00018,-4e-05,3e-05,5,16
20897,3e-05,0,2e-05,-0.00067,-0.00012,-0.00018,-4e-05,3e-05,5,16
20898,3e-05,0,2e-05,-0.00067,-0.00012,-0.00018,-4e-05,3e-05,5,16
20899,3e-05,0,2e-05,-0.00067,-0.00012,-0.00018,-4e-05,3e-05,5,16
20900,3e-05,0,2e-05,-0.00067,-0.00012,-0.00018,-4e-05,3e-05,5,16
20901,3e-05,0,2e-05,-0.00067,-0.00012,-0.00018,-4e-05,3e-05,5,16
20902,3e-05,0,2e-05,-0.00067,-0.00012,-0.00018,-4e-05,3e-05,5,16
20903,3e-05,0,2e-05,-0.00067,-0.00012,-0.00018,-4e-05,3e-05,5,16
20904,3e-05,0,2e-05,-0.00067,-0.00012,-0.00018,-4e-05,3e-05,5,16
20905,3e-05,0,2e-05,-0.00067,-0.00012,-0.00018,-4e-05,3e-05,5,16
20906,3e-05,0,2e-05,-0.00067,-0.00012,-0.00018,-4e-05,3e-05,5,16
20907,3e-05,0,2e-05,-0.00067,-0.00012,-0.00018,-4e-05,3e-05,5,16
20908,3e-05,0,2e-05,-0.00067,-0.00012,-0.00018,-4e-05,3e-05,5,16
20909,3e-05,0,2e-05,-0.00067,-0.00012,-0.00018,-4e-05,3e-05,5,16
20910,3e-05,0,2e-05,-0.00067,-0.00012,-0.00018,-4e-05,3e-05,5,16
20911,3e-05,0,2e-05,-0.00067,-0.00012,-0.00018,-4e-05,3e-05,5,16
20912,-6e-05,-5e-05,3e-05,-4e-05,-0.00028,-0.00026,-5e-05,-4e-05,5,16
20913,-2e-05,-9e-05,-0.00011,0.00033,0.00022,9e-05,3e-05,2e-05,5,16
20914,-2e-05,-9e-05,-0.00011,0.00033,0.00022,9e-05,3e-05,2e-05,5,16
20915,-2e-05,-9e-05,-0.00011,0.00033,0.00022,9e-05,3e-05,2e-05,5,16
20916,-2e-05,-9e-05,-0.00011,0.00033,0.00022,9e-05,3e-05,2e-05,5,16
20917,-2e-05,-9e-05,-0.00011,0.00033,0.00022,9e-05,3e-05,2e-05,5,16
20918,-2e-05,-9e-05,-0.00011,0.00033,0.00022,9e-05,3e-05,2e-05,5,16
20919,-2e-05,-9e-05,-0.00011,0.00033,0.00022,9e-05,3e-05,2e-05,5,16
20920,-2e-05,-9e-05,-0.00011,0.00033,0.00022,9e-05,3e-05,2e-05,5,16
20921,-2e-05,-9e-05,-0.00011,0.00033,0.00022,9e-05,3e-05,2e-05,5,16
20922,-2e-05,-9e-05,-0.00011,0.00033,0.00022,9e-05,3e-05,2e-05,5,16
20923,-2e-05,-9e-05,-0.00011,0.00033,0.00022,9e-05,3e-05,2e-05,5,16
20924,-2e-05,-9e-05,-0.00011,0.00033,0.00022,9e-05,3e-05,2e-05,5,16
20925,-2e-05,-9e-05,-0.00011,0.00033,0.00022,9e-05,3e-05,2e-05,5,16
20926,-2e-05,-9e-05,-0.00011,0.00033,0.00022,9e-05,3e-05,2e-05,5,16
20927,0.00011,-3e-05,-2e-05,-0.00045,-0.00022,-0.00027,-5e-05,5e-05,5,16
20928,3e-05,9e-05,1e-05,-0.00027,-0.00052,-0.00014,5e-05,5e-05,5,16
20929,3e-05,9e-05,1e-05,-0.00027,-0.00052,-0.00014,5e-05,5e-05,5,16
20930,3e-05,9e-05,1e-05,-0.00027,-0.00052,-0.00014,5e-05,5e-05,5,16
20931,3e-05,9e-05,1e-05,-0.00027,-0.00052,-0.00014,5e-05,5e-05,5,16
20932,3e-05,9e-05,1e-05,-0.00027,-0.00052,-0.00014,5e-05,5e-05,5,16
20933,3e-05,9e-05,1e-05,-0.00027,-0.00052,-0.00014,5e-05,5e-05,5,16
20934,3e-05,9e-05,1e-05,-0.00027,-0.00052,-0.00014,5e-05,5e-05,5,16
20935,3e-05,9e-05,1e-05,-0.00027,-0.00052,-0.00014,5e-05,5e-05,5,16
20936,3e-05,9e-05,1e-05,-0.00027,-0.00052,-0.00014,5e-05,5e-05,5,16
20938,3e-05,9e-05,1e-05,-0.00027,-0.00052,-0.00014,5e-05,5e-05,5,16
20939,3e-05,9e-05,1e-05,-0.00027,-0.00052,-0.00014,5e-05,5e-05,5,16
20940,3e-05,9e-05,1e-05,-0.00027,-0.00052,-0.00014,5e-05,5e-05,5,16
20941,3e-05,9e-05,1e-05,-0.00027,-0.00052,-0.00014,5e-05,5e-05,5,16
20942,3e-05,9e-05,1e-05,-0.00027,-0.00052,-0.00014,5e-05,5e-05,5,16
20943,3e-05,9e-05,1e-05,-0.00027,-0.00052,-0.00014,5e-05,5e-05,5,16
20944,3e-05,9e-05,1e-05,-0.00027,-0.00052,-0.00014,5e-05,5e-05,5,16
20945,3e-05,9e-05,1e-05,-0.00027,-0.00052,-0.00014,5e-05,5e-05,5,16
20946,3e-05,9e-05,1e-05,-0.00027,-0.00052,-0.00014,5e-05,5e-05,5,16
20947,3e-05,9e-05,1e-05,-0.00027,-0.00052,-0.00014,5e-05,5e-05,5,16
20948,3e-05,9e-05,1e-05,-0.00027,-0.00052,-0.00014,5e-05,5e-05,5,16
20949,3e-05,9e-05,1e-05,-0.00027,-0.00052,-0.00014,5e-05,5e-05,5,16
20950,-1e-05,-1e-05,0.0001,0.00045,0.00031,0.0002,6e-05,1e-05,5,16
20951,-1e-05,-1e-05,0.0001,0.00045,0.00031,0.0002,6e-05,1e-05,5,16
20952,-1e-05,-1e-05,0.0001,0.00045,0.00031,0.0002,6e-05,1e-05,5,16
20953,-1e-05,-1e-05,0.0001,0.00045,0.00031,0.0002,6e-05,1e-05,5,16
20954,-1e-05,-1e-05,0.0001,0.00045,0.00031,0.0002,6e-05,1e-05,5,16
20955,-3e-05,-3e-05,0.00011,0.00041,0.00029,-7e-05,-9e-05,-5e-05,5,16
20956,-3e-05,-3e-05,0.00011,0.00041,0.00029,-7e-05,-9e-05,-5e-05,5,16
20957,-3e-05,-3e-05,0.00011,0.00041,0.00029,-7e-05,-9e-05,-5e-05,5,16
20958,-3e-05,-3e-05,0.00011,0.00041,0.00029,-7e-05,-9e-05,-5e-05,5,16
20959,-3e-05,-3e-05,0.00011,0.00041,0.00029,-7e-05,-9e-05,-5e-05,5,16
20960,-3e-05,-3e-05,0.00011,0.00041,0.00029,-7e-05,-9e-05,-5e-05,5,16
20961,-3e-05,-3e-05,0.00011,0.00041,0.00029,-7e-05,-9e-05,-5e-05,5,16
20962,-3e-05,-3e-05,0.00011,0.00041,0.00029,-7e-05,-9e-05,-5e-05,5,16
20963,-3e-05,-3e-05,0.00011,0.00041,0.00029,-7e-05,-9e-05,-5e-05,5,16
20964,-3e-05,-3e-05,0.00011,0.00041,0.00029,-7e-05,-9e-05,-5e-05,5,16
20965,-3e-05,-3e-05,0.00011,0.00041,0.00029,-7e-05,-9e-05,-5e-05,5,16
20966,-3e-05,-3e-05,0.00011,0.00041,0.00029,-7e-05,-9e-05,-5e-05,5,16
20967,-3e-05,-3e-05,0.00011,0.00041,0.00029,-7e-05,-9e-05,-5e-05,5,16
20968,-3e-05,-3e-05,0.00011,0.00041,0.00029,-7e-05,-9e-05,-5e-05,5,16
20969,-3e-05,-3e-05,0.00011,0.00041,0.00029,-7e-05,-9e-05,-5e-05,5,16
20970,-3e-05,-3e-05,0.00011,0.00041,0.00029,-7e-05,-9e-05,-5e-05,5,16
20971,-3e-05,-3e-05,0.00011,0.00041,0.00029,-7e-05,-9e-05,-5e-05,5,16
20972,-3e-05,-2e-05,7e-05,-6e-05,0.00015,0.00035,0,-2e-05,5,16
20973,0,0.00013,0.00023,-0.0001,-0.00034,-0.00015,2e-05,-2e-05,5,16
20974,0,0.00013,0.00023,-0.0001,-0.00034,-0.00015,2e-05,-2e-05,5,16
20975,0,0.00013,0.00023,-0.0001,-0.00034,-0.00015,2e-05,-2e-05,5,16
20976,0,0.00013,0.00023,-0.0001,-0.00034,-0.00015,2e-05,-2e-05,5,16
20977,0,0.00013,0.00023,-0.0001,-0.00034,-0.00015,2e-05,-2e-05,5,16
20978,0,0.00013,0.00023,-0.0001,-0.00034,-0.00015,2e-05,-2e-05,5,16
20979,0,0.00013,0.00023,-0.0001,-0.00034,-0.00015,2e-05,-2e-05,5,16
20980,0,0.00013,0.00023,-0.0001,-0.00034,-0.00015,2e-05,-2e-05,5,16
20981,0,0.00013,0.00023,-0.0001,-0.00034,-0.00015,2e-05,-2e-05,5,16
20982,0,0.00013,0.00023,-0.0001,-0.00034,-0.00015,2e-05,-2e-05,5,16
20983,0,0.00013,0.00023,-0.0001,-0.00034,-0.00015,2e-05,-2e-05,5,16
20984,0,0.00013,0.00023,-0.0001,-0.00034,-0.00015,2e-05,-2e-05,5,16
20985,0,0.00013,0.00023,-0.0001,-0.00034,-0.00015,2e-05,-2e-05,5,16
20986,2e-05,-5e-05,-2e-05,9e-05,0.00046,0.0001,-4e-05,-6e-05,5,16
20989,-3e-05,-4e-05,-8e-05,0.00034,0.00049,0.00017,1e-05,-3e-05,5,16
20990,-3e-05,-4e-05,-8e-05,0.00034,0.00049,0.00017,1e-05,-3e-05,5,16
20991,-3e-05,-4e-05,-8e-05,0.00034,0.00049,0.00017,1e-05,-3e-05,5,16
20992,-3e-05,-4e-05,-8e-05,0.00034,0.00049,0.00017,1e-05,-3e-05,5,16
20993,-3e-05,-4e-05,-8e-05,0.00034,0.00049,0.00017,1e-05,-3e-05,5,16
20994,-3e-05,-4e-05,-8e-05,0.00034,0.00049,0.00017,1e-05,-3e-05,5,16
20995,-3e-05,-4e-05,-8e-05,0.00034,0.00049,0.00017,1e-05,-3e-05,5,16
20996,-3e-05,-4e-05,-8e-05,0.00034,0.00049,0.00017,1e-05,-3e-05,5,16
20997,-3e-05,-4e-05,-8e-05,0.00034,0.00049,0.00017,1e-05,-3e-05,5,16
20998,-3e-05,-4e-05,-8e-05,0.00034,0.00049,0.00017,1e-05,-3e-05,5,16
20999,-3e-05,-4e-05,-8e-05,0.00034,0.00049,0.00017,1e-05,-3e-05,5,16
21000,-3e-05,-4e-05,-8e-05,0.00034,0.00049,0.00017,1e-05,-3e-05,5,16
21001,-3e-05,-4e-05,-8e-05,0.00034,0.00049,0.00017,1e-05,-3e-05,5,16
21002,-3e-05,-4e-05,-8e-05,0.00034,0.00049,0.00017,1e-05,-3e-05,5,16
21003,-3e-05,-4e-05,-8e-05,0.00034,0.00049,0.00017,1e-05,-3e-05,5,16
21004,-3e-05,-4e-05,-8e-05,0.00034,0.00049,0.00017,1e-05,-3e-05,5,16
21005,-3e-05,-4e-05,-8e-05,0.00034,0.00049,0.00017,1e-05,-3e-05,5,16
21006,-3e-05,-4e-05,-8e-05,0.00034,0.00049,0.00017,1e-05,-3e-05,5,16
21007,-3e-05,-4e-05,-8e-05,0.00034,0.00049,0.00017,1e-05,-3e-05,5,16
21008,-3e-05,-4e-05,-8e-05,0.00034,0.00049,0.00017,1e-05,-3e-05,5,16
21009,-0.00015,-0.00026,-0.00069,-0.0002,7e-05,4e-05,1e-05,-1e-05,5,16
21010,-0.00015,-0.00026,-0.00069,-0.0002,7e-05,4e-05,1e-05,-1e-05,5,16
21011,3e-05,-0.00013,-0.00017,0.00059,0.00084,0.00013,-4e-05,-7e-05,5,16
21012,3e-05,-0.00013,-0.00017,0.00059,0.00084,0.00013,-4e-05,-7e-05,5,16
21013,3e-05,-0.00013,-0.00017,0.00059,0.00084,0.00013,-4e-05,-7e-05,5,16
21014,3e-05,-0.00013,-0.00017,0.00059,0.00084,0.00013,-4e-05,-7e-05,5,16
21015,3e-05,-0.00013,-0.00017,0.00059,0.00084,0.00013,-4e-05,-7e-05,5,16
21016,3e-05,-0.00013,-0.00017,0.00059,0.00084,0.00013,-4e-05,-7e-05,5,16
21017,3e-05,-0.00013,-0.00017,0.00059,0.00084,0.00013,-4e-05,-7e-05,5,16
21018,3e-05,-0.00013,-0.00017,0.00059,0.00084,0.00013,-4e-05,-7e-05,5,16
21019,3e-05,-0.00013,-0.00017,0.00059,0.00084,0.00013,-4e-05,-7e-05,5,16
21020,3e-05,-0.00013,-0.00017,0.00059,0.00084,0.00013,-4e-05,-7e-05,5,16
21021,3e-05,-0.00013,-0.00017,0.00059,0.00084,0.00013,-4e-05,-7e-05,5,16
21022,3e-05,-0.00013,-0.00017,0.00059,0.00084,0.00013,-4e-05,-7e-05,5,16
21023,-0.00011,0.00016,0.00037,0.00027,0.00058,7e-05,0,-8e-05,5,16
21024,-0.00011,0.00016,0.00037,0.00027,0.00058,7e-05,0,-8e-05,5,16
21025,-0.00011,0.00016,0.00037,0.00027,0.00058,7e-05,0,-8e-05,5,16
21026,-0.00011,0.00016,0.00037,0.00027,0.00058,7e-05,0,-8e-05,5,16
21027,-0.00011,0.00016,0.00037,0.00027,0.00058,7e-05,0,-8e-05,5,16
21028,-0.00011,0.00016,0.00037,0.00027,0.00058,7e-05,0,-8e-05,5,16
21029,-0.00011,0.00016,0.00037,0.00027,0.00058,7e-05,0,-8e-05,5,16
21030,-0.00011,0.00016,0.00037,0.00027,0.00058,7e-05,0,-8e-05,5,16
21031,-0.00011,0.00016,0.00037,0.00027,0.00058,7e-05,0,-8e-05,5,16
21032,-6e-05,-9e-05,-0.00014,-0.00022,-0.00015,-9e-05,-6e-05,-5e-05,5,16
21033,-6e-05,-9e-05,-0.00014,-0.00022,-0.00015,-9e-05,-6e-05,-5e-05,5,16
21034,-6e-05,-9e-05,-0.00014,-0.00022,-0.00015,-9e-05,-6e-05,-5e-05,5,16
21035,-6e-05,-9e-05,-0.00014,-0.00022,-0.00015,-9e-05,-6e-05,-5e-05,5,16
21036,-6e-05,-9e-05,-0.00014,-0.00022,-0.00015,-9e-05,-6e-05,-5e-05,5,16
21038,-6e-05,-9e-05,-0.00014,-0.00022,-0.00015,-9e-05,-6e-05,-5e-05,5,16
21039,-6e-05,-9e-05,-0.00014,-0.00022,-0.00015,-9e-05,-6e-05,-5e-05,5,16
21040,-6e-05,-9e-05,-0.00014,-0.00022,-0.00015,-9e-05,-6e-05,-5e-05,5,16
21041,-6e-05,-9e-05,-0.00014,-0.00022,-0.00015,-9e-05,-6e-05,-5e-05,5,16
21042,-6e-05,-9e-05,-0.00014,-0.00022,-0.00015,-9e-05,-6e-05,-5e-05,5,16
21043,-6e-05,-9e-05,-0.00014,-0.00022,-0.00015,-9e-05,-6e-05,-5e-05,5,16
21044,-6e-05,-9e-05,-0.00014,-0.00022,-0.00015,-9e-05,-6e-05,-5e-05,5,16
21045,-6e-05,-9e-05,-0.00014,-0.00022,-0.00015,-9e-05,-6e-05,-5e-05,5,16
21046,-6e-05,-9e-05,-0.00014,-0.00022,-0.00015,-9e-05,-6e-05,-5e-05,5,16
21047,-1e-05,0,7e-05,0.00011,0,-3e-05,-1e-05,-2e-05,5,16
21048,-1e-05,0,7e-05,0.00011,0,-3e-05,-1e-05,-2e-05,5,16
21049,-1e-05,0,7e-05,0.00011,0,-3e-05,-1e-05,-2e-05,5,16
21050,-1e-05,0,7e-05,0.00011,0,-3e-05,-1e-05,-2e-05,5,16
21051,-1e-05,0,7e-05,0.00011,0,-3e-05,-1e-05,-2e-05,5,16
21052,-1e-05,0,7e-05,0.00011,0,-3e-05,-1e-05,-2e-05,5,16
21053,-1e-05,0,7e-05,0.00011,0,-3e-05,-1e-05,-2e-05,5,16
21054,-1e-05,0,7e-05,0.00011,0,-3e-05,-1e-05,-2e-05,5,16
21055,3e-05,4e-05,-0.00018,-4e-05,0.00012,-3e-05,-2e-05,-4e-05,5,16
21056,3e-05,4e-05,-0.00018,-4e-05,0.00012,-3e-05,-2e-05,-4e-05,5,16
21057,3e-05,4e-05,-0.00018,-4e-05,0.00012,-3e-05,-2e-05,-4e-05,5,16
21058,3e-05,4e-05,-0.00018,-4e-05,0.00012,-3e-05,-2e-05,-4e-05,5,16
21059,3e-05,4e-05,-0.00018,-4e-05,0.00012,-3e-05,-2e-05,-4e-05,5,16
21060,3e-05,4e-05,-0.00018,-4e-05,0.00012,-3e-05,-2e-05,-4e-05,5,16
21061,3e-05,4e-05,-0.00018,-4e-05,0.00012,-3e-05,-2e-05,-4e-05,5,16
21062,3e-05,4e-05,-0.00018,-4e-05,0.00012,-3e-05,-2e-05,-4e-05,5,16
21063,3e-05,4e-05,-0.00018,-4e-05,0.00012,-3e-05,-2e-05,-4e-05,5,16
21064,3e-05,4e-05,-0.00018,-4e-05,0.00012,-3e-05,-2e-05,-4e-05,5,16
21065,3e-05,4e-05,-0.00018,-4e-05,0.00012,-3e-05,-2e-05,-4e-05,5,16
21066,3e-05,4e-05,-0.00018,-4e-05,0.00012,-3e-05,-2e-05,-4e-05,5,16
21067,3e-05,4e-05,-0.00018,-4e-05,0.00012,-3e-05,-2e-05,-4e-05,5,16
21068,3e-05,4e-05,-0.00018,-4e-05,0.00012,-3e-05,-2e-05,-4e-05,5,16
21069,-2e-05,4e-05,-0.0001,0.00049,-0.00039,2e-05,1e-05,1e-05,5,16
21070,-2e-05,4e-05,-0.0001,0.00049,-0.00039,2e-05,1e-05,1e-05,5,16
21071,3e-05,9e-05,0.0001,8e-05,0.00051,-4e-05,0,2e-05,5,16
21072,-9e-05,6e-05,0.00031,0.00031,0.00037,0.0005,6e-05,-2e-05,5,16
21073,-9e-05,6e-05,0.00031,0.00031,0.00037,0.0005,6e-05,-2e-05,5,16
21074,-9e-05,6e-05,0.00031,0.00031,0.00037,0.0005,6e-05,-2e-05,5,16
21075,-9e-05,6e-05,0.00031,0.00031,0.00037,0.0005,6e-05,-2e-05,5,16
21076,-9e-05,6e-05,0.00031,0.00031,0.00037,0.0005,6e-05,-2e-05,5,16
21077,-9e-05,6e-05,0.00031,0.00031,0.00037,0.0005,6e-05,-2e-05,5,16
21078,-9e-05,6e-05,0.00031,0.00031,0.00037,0.0005,6e-05,-2e-05,5,16
21079,-9e-05,6e-05,0.00031,0.00031,0.00037,0.0005,6e-05,-2e-05,5,16
21080,-9e-05,6e-05,0.00031,0.00031,0.00037,0.0005,6e-05,-2e-05,5,16
21081,-9e-05,6e-05,0.00031,0.00031,0.00037,0.0005,6e-05,-2e-05,5,16
21082,-9e-05,6e-05,0.00031,0.00031,0.00037,0.0005,6e-05,-2e-05,5,16
21083,-9e-05,6e-05,0.00031,0.00031,0.00037,0.0005,6e-05,-2e-05,5,16
21084,-9e-05,6e-05,0.00031,0.00031,0.00037,0.0005,6e-05,-2e-05,5,16
21085,-9e-05,6e-05,0.00031,0.00031,0.00037,0.0005,6e-05,-2e-05,5,16
21086,-9e-05,6e-05,0.00031,0.00031,0.00037,0.0005,6e-05,-2e-05,5,16
21088,-9e-05,6e-05,0.00031,0.00031,0.00037,0.0005,6e-05,-2e-05,5,16
21089,-9e-05,6e-05,0.00031,0.00031,0.00037,0.0005,6e-05,-2e-05,5,16
21090,-9e-05,6e-05,0.00031,0.00031,0.00037,0.0005,6e-05,-2e-05,5,16
21091,-9e-05,6e-05,0.00031,0.00031,0.00037,0.0005,6e-05,-2e-05,5,16
21092,4e-05,-8e-05,-3e-05,-0.00048,-0.0003,-0.00017,-6e-05,-3e-05,5,16
21093,-0.0001,-0.0001,-0.00014,-0.00021,-0.00024,-0.00019,-1e-05,-1e-05,5,16
21094,-0.0001,-0.0001,-0.00014,-0.00021,-0.00024,-0.00019,-1e-05,-1e-05,5,16
21095,-0.0001,-0.0001,-0.00014,-0.00021,-0.00024,-0.00019,-1e-05,-1e-05,5,16
21096,-0.0001,-0.0001,-0.00014,-0.00021,-0.00024,-0.00019,-1e-05,-1e-05,5,16
21097,-0.0001,-0.0001,-0.00014,-0.00021,-0.00024,-0.00019,-1e-05,-1e-05,5,16
21098,-0.0001,-0.0001,-0.00014,-0.00021,-0.00024,-0.00019,-1e-05,-1e-05,5,16
21099,-0.0001,-0.0001,-0.00014,-0.00021,-0.00024,-0.00019,-1e-05,-1e-05,5,16
21100,-0.0001,-0.0001,-0.00014,-0.00021,-0.00024,-0.00019,-1e-05,-1e-05,5,16
21101,-0.0001,-0.0001,-0.00014,-0.00021,-0.00024,-0.00019,-1e-05,-1e-05,5,16
21102,-0.0001,-0.0001,-0.00014,-0.00021,-0.00024,-0.00019,-1e-05,-1e-05,5,16
21103,-0.0001,-0.0001,-0.00014,-0.00021,-0.00024,-0.00019,-1e-05,-1e-05,5,16
21104,-0.0001,-0.0001,-0.00014,-0.00021,-0.00024,-0.00019,-1e-05,-1e-05,5,16
21105,-0.0001,-0.0001,-0.00014,-0.00021,-0.00024,-0.00019,-1e-05,-1e-05,5,16
21106,-0.0001,-0.0001,-0.00014,-0.00021,-0.00024,-0.00019,-1e-05,-1e-05,5,16
21107,-0.0001,-0.0001,-0.00014,-0.00021,-0.00024,-0.00019,-1e-05,-1e-05,5,16
21108,-0.0001,-0.0001,-0.00014,-0.00021,-0.00024,-0.00019,-1e-05,-1e-05,5,16
21109,-0.0001,-0.0001,-0.00014,-0.00021,-0.00024,-0.00019,-1e-05,-1e-05,5,16
21110,-0.0001,-0.0001,-0.00014,-0.00021,-0.00024,-0.00019,-1e-05,-1e-05,5,16
21111,-0.0001,-0.0001,-0.00014,-0.00021,-0.00024,-0.00019,-1e-05,-1e-05,5,16
21112,-0.0001,-0.0001,-0.00014,-0.00021,-0.00024,-0.00019,-1e-05,-1e-05,5,16
21113,-0.0001,-0.0001,-0.00014,-0.00021,-0.00024,-0.00019,-1e-05,-1e-05,5,16
21114,6e-05,0.00013,0.00027,0.00028,0.00071,4e-05,-1e-05,-2e-05,5,16
21115,6e-05,0.00013,0.00027,0.00028,0.00071,4e-05,-1e-05,-2e-05,5,16
21116,3e-05,-3e-05,-6e-05,-0.0001,-4e-05,-0.00018,-2e-05,-3e-05,5,16
21117,3e-05,-3e-05,-6e-05,-0.0001,-4e-05,-0.00018,-2e-05,-3e-05,5,16
21118,3e-05,-3e-05,-6e-05,-0.0001,-4e-05,-0.00018,-2e-05,-3e-05,5,16
21119,3e-05,-3e-05,-6e-05,-0.0001,-4e-05,-0.00018,-2e-05,-3e-05,5,16
21120,3e-05,-3e-05,-6e-05,-0.0001,-4e-05,-0.00018,-2e-05,-3e-05,5,16
21121,3e-05,-3e-05,-6e-05,-0.0001,-4e-05,-0.00018,-2e-05,-3e-05,5,16
21122,3e-05,-3e-05,-6e-05,-0.0001,-4e-05,-0.00018,-2e-05,-3e-05,5,16
21123,3e-05,-3e-05,-6e-05,-0.0001,-4e-05,-0.00018,-2e-05,-3e-05,5,16
21124,3e-05,-3e-05,-6e-05,-0.0001,-4e-05,-0.00018,-2e-05,-3e-05,5,16
21125,3e-05,-3e-05,-6e-05,-0.0001,-4e-05,-0.00018,-2e-05,-3e-05,5,16
21126,3e-05,-3e-05,-6e-05,-0.0001,-4e-05,-0.00018,-2e-05,-3e-05,5,16
21127,3e-05,-3e-05,-6e-05,-0.0001,-4e-05,-0.00018,-2e-05,-3e-05,5,16
21128,3e-05,-3e-05,-6e-05,-0.0001,-4e-05,-0.00018,-2e-05,-3e-05,5,16
21129,3e-05,-3e-05,-6e-05,-0.0001,-4e-05,-0.00018,-2e-05,-3e-05,5,16
21130,3e-05,-3e-05,-6e-05,-0.0001,-4e-05,-0.00018,-2e-05,-3e-05,5,16
21131,3e-05,-3e-05,-6e-05,-0.0001,-4e-05,-0.00018,-2e-05,-3e-05,5,16
21132,3e-05,-3e-05,-6e-05,-0.0001,-4e-05,-0.00018,-2e-05,-3e-05,5,16
21133,3e-05,-3e-05,-6e-05,-0.0001,-4e-05,-0.00018,-2e-05,-3e-05,5,16
21134,3e-05,-3e-05,-6e-05,-0.0001,-4e-05,-0.00018,-2e-05,-3e-05,5,16
21135,3e-05,-3e-05,-6e-05,-0.0001,-4e-05,-0.00018,-2e-05,-3e-05,5,16
21136,3e-05,-3e-05,-6e-05,-0.0001,-4e-05,-0.00018,-2e-05,-3e-05,5,16
21138,0.00013,0.00016,0.00018,0.00056,0.00069,0.0002,0.0001,7e-05,5,16
21139,-7e-05,-0.00016,-0.00046,0.00033,0.00017,3e-05,-6e-05,-8e-05,5,16
21140,-7e-05,-0.00016,-0.00046,0.00033,0.00017,3e-05,-6e-05,-8e-05,5,16
21141,-7e-05,-0.00016,-0.00046,0.00033,0.00017,3e-05,-6e-05,-8e-05,5,16
21142,-7e-05,-0.00016,-0.00046,0.00033,0.00017,3e-05,-6e-05,-8e-05,5,16
21143,-7e-05,-0.00016,-0.00046,0.00033,0.00017,3e-05,-6e-05,-8e-05,5,16
21144,-7e-05,-0.00016,-0.00046,0.00033,0.00017,3e-05,-6e-05,-8e-05,5,16
21145,-7e-05,-0.00016,-0.00046,0.00033,0.00017,3e-05,-6e-05,-8e-05,5,16
21146,-7e-05,-0.00016,-0.00046,0.00033,0.00017,3e-05,-6e-05,-8e-05,5,16
21147,-7e-05,-0.00016,-0.00046,0.00033,0.00017,3e-05,-6e-05,-8e-05,5,16
21148,-7e-05,-0.00016,-0.00046,0.00033,0.00017,3e-05,-6e-05,-8e-05,5,16
21149,-7e-05,-0.00016,-0.00046,0.00033,0.00017,3e-05,-6e-05,-8e-05,5,16
21150,-7e-05,-0.00016,-0.00046,0.00033,0.00017,3e-05,-6e-05,-8e-05,5,16
21151,-7e-05,-0.00016,-0.00046,0.00033,0.00017,3e-05,-6e-05,-8e-05,5,16
21152,-3e-05,-1e-05,-0.00013,8e-05,0.00012,0.00039,5e-05,1e-05,5,16
21153,4e-05,-8e-05,-5e-05,-0.00069,-0.0003,-6e-05,-1e-05,3e-05,5,16
21154,4e-05,-8e-05,-5e-05,-0.00069,-0.0003,-6e-05,-1e-05,3e-05,5,16
21155,4e-05,-8e-05,-5e-05,-0.00069,-0.0003,-6e-05,-1e-05,3e-05,5,16
21156,4e-05,-8e-05,-5e-05,-0.00069,-0.0003,-6e-05,-1e-05,3e-05,5,16
21157,4e-05,-8e-05,-5e-05,-0.00069,-0.0003,-6e-05,-1e-05,3e-05,5,16
21158,4e-05,-8e-05,-5e-05,-0.00069,-0.0003,-6e-05,-1e-05,3e-05,5,16
21159,4e-05,-8e-05,-5e-05,-0.00069,-0.0003,-6e-05,-1e-05,3e-05,5,16
21160,4e-05,-8e-05,-5e-05,-0.00069,-0.0003,-6e-05,-1e-05,3e-05,5,16
21161,4e-05,-8e-05,-5e-05,-0.00069,-0.0003,-6e-05,-1e-05,3e-05,5,16
21162,4e-05,-8e-05,-5e-05,-0.00069,-0.0003,-6e-05,-1e-05,3e-05,5,16
21163,4e-05,-8e-05,-5e-05,-0.00069,-0.0003,-6e-05,-1e-05,3e-05,5,16
21164,4e-05,-8e-05,-5e-05,-0.00069,-0.0003,-6e-05,-1e-05,3e-05,5,16
21165,4e-05,-8e-05,-5e-05,-0.00069,-0.0003,-6e-05,-1e-05,3e-05,5,16
21166,4e-05,-8e-05,-5e-05,-0.00069,-0.0003,-6e-05,-1e-05,3e-05,5,16
21167,-3e-05,-3e-05,0,-0.00059,-0.00056,-0.00029,-7e-05,-2e-05,5,16
21168,3e-05,9e-05,0.00014,0,-0.0002,0,3e-05,2e-05,5,16
21169,3e-05,9e-05,0.00014,0,-0.0002,0,3e-05,2e-05,5,16
21170,3e-05,9e-05,0.00014,0,-0.0002,0,3e-05,2e-05,5,16
21171,3e-05,9e-05,0.00014,0,-0.0002,0,3e-05,2e-05,5,16
21172,3e-05,9e-05,0.00014,0,-0.0002,0,3e-05,2e-05,5,16
21173,3e-05,9e-05,0.00014,0,-0.0002,0,3e-05,2e-05,5,16
21174,3e-05,9e-05,0.00014,0,-0.0002,0,3e-05,2e-05,5,16
21175,3e-05,9e-05,0.00014,0,-0.0002,0,3e-05,2e-05,5,16
21176,3e-05,9e-05,0.00014,0,-0.0002,0,3e-05,2e-05,5,16
21177,3e-05,9e-05,0.00014,0,-0.0002,0,3e-05,2e-05,5,16
21178,3e-05,9e-05,0.00014,0,-0.0002,0,3e-05,2e-05,5,16
21179,3e-05,9e-05,0.00014,0,-0.0002,0,3e-05,2e-05,5,16
21180,3e-05,9e-05,0.00014,0,-0.0002,0,3e-05,2e-05,5,16
21181,3e-05,9e-05,0.00014,0,-0.0002,0,3e-05,2e-05,5,16
21182,3e-05,9e-05,0.00014,0,-0.0002,0,3e-05,2e-05,5,16
21183,3e-05,9e-05,0.00014,0,-0.0002,0,3e-05,2e-05,5,16
21184,3e-05,9e-05,0.00014,0,-0.0002,0,3e-05,2e-05,5,16
21185,3e-05,9e-05,0.00014,0,-0.0002,0,3e-05,2e-05,5,16
21186,3e-05,9e-05,0.00014,0,-0.0002,0,3e-05,2e-05,5,16
21188,3e-05,9e-05,0.00014,0,-0.0002,0,3e-05,2e-05,5,16
21189,3e-05,9e-05,0.00014,0,-0.0002,0,3e-05,2e-05,5,16
21190,1e-05,-2e-05,2e-05,-5e-05,4e-05,0.00022,4e-05,2e-05,5,16
21191,-5e-05,-6e-05,5e-05,-4e-05,-6e-05,-0.00011,-6e-05,-5e-05,5,16
21192,-5e-05,-6e-05,5e-05,-4e-05,-6e-05,-0.00011,-6e-05,-5e-05,5,16
21193,-5e-05,-6e-05,5e-05,-4e-05,-6e-05,-0.00011,-6e-05,-5e-05,5,16
21194,-5e-05,-6e-05,5e-05,-4e-05,-6e-05,-0.00011,-6e-05,-5e-05,5,16
21195,-5e-05,-6e-05,5e-05,-4e-05,-6e-05,-0.00011,-6e-05,-5e-05,5,16
21196,-5e-05,-6e-05,5e-05,-4e-05,-6e-05,-0.00011,-6e-05,-5e-05,5,16
21197,-5e-05,-6e-05,5e-05,-4e-05,-6e-05,-0.00011,-6e-05,-5e-05,5,16
21198,-5e-05,-6e-05,5e-05,-4e-05,-6e-05,-0.00011,-6e-05,-5e-05,5,16
21199,-5e-05,-6e-05,5e-05,-4e-05,-6e-05,-0.00011,-6e-05,-5e-05,5,16
21200,-5e-05,-6e-05,5e-05,-4e-05,-6e-05,-0.00011,-6e-05,-5e-05,5,16
21201,-5e-05,-6e-05,5e-05,-4e-05,-6e-05,-0.00011,-6e-05,-5e-05,5,16
21202,-5e-05,-6e-05,5e-05,-4e-05,-6e-05,-0.00011,-6e-05,-5e-05,5,16
21203,-5e-05,-6e-05,5e-05,-4e-05,-6e-05,-0.00011,-6e-05,-5e-05,5,16
21204,-5e-05,-6e-05,5e-05,-4e-05,-6e-05,-0.00011,-6e-05,-5e-05,5,16
21205,-5e-05,-6e-05,5e-05,-4e-05,-6e-05,-0.00011,-6e-05,-5e-05,5,16
21206,-5e-05,-6e-05,5e-05,-4e-05,-6e-05,-0.00011,-6e-05,-5e-05,5,16
21207,-5e-05,-6e-05,5e-05,-4e-05,-6e-05,-0.00011,-6e-05,-5e-05,5,16
21208,-5e-05,-6e-05,5e-05,-4e-05,-6e-05,-0.00011,-6e-05,-5e-05,5,16
21209,-5e-05,-6e-05,5e-05,-4e-05,-6e-05,-0.00011,-6e-05,-5e-05,5,16
21210,-5e-05,-6e-05,5e-05,-4e-05,-6e-05,-0.00011,-6e-05,-5e-05,5,16
21211,-5e-05,-6e-05,5e-05,-4e-05,-6e-05,-0.00011,-6e-05,-5e-05,5,16
21212,-3e-05,-9e-05,-0.00011,-0.00015,-0.00011,-1e-05,0,-4e-05,5,16
21213,-0.00014,0.00016,0.0002,0.00025,0.00036,0.00047,0.00019,4e-05,5,16
21214,-0.00014,0.00016,0.0002,0.00025,0.00036,0.00047,0.00019,4e-05,5,16
21215,-0.00014,0.00016,0.0002,0.00025,0.00036,0.00047,0.00019,4e-05,5,16
21216,-0.00014,0.00016,0.0002,0.00025,0.00036,0.00047,0.00019,4e-05,5,16
21217,-0.00014,0.00016,0.0002,0.00025,0.00036,0.00047,0.00019,4e-05,5,16
21218,-0.00014,0.00016,0.0002,0.00025,0.00036,0.00047,0.00019,4e-05,5,16
21219,-0.00014,0.00016,0.0002,0.00025,0.00036,0.00047,0.00019,4e-05,5,16
21220,-0.00014,0.00016,0.0002,0.00025,0.00036,0.00047,0.00019,4e-05,5,16
21221,-0.00014,0.00016,0.0002,0.00025,0.00036,0.00047,0.00019,4e-05,5,16
21222,-0.00014,0.00016,0.0002,0.00025,0.00036,0.00047,0.00019,4e-05,5,16
21223,-0.00014,0.00016,0.0002,0.00025,0.00036,0.00047,0.00019,4e-05,5,16
21224,-0.00014,0.00016,0.0002,0.00025,0.00036,0.00047,0.00019,4e-05,5,16
21225,-0.00014,0.00016,0.0002,0.00025,0.00036,0.00047,0.00019,4e-05,5,16
21226,2e-05,-0.0001,-8e-05,-0.00022,-0.00028,-0.00014,-0.00012,-7e-05,5,16
21227,2e-05,5e-05,0.00013,9e-05,-0.00014,-6e-05,-4e-05,-2e-05,5,16
21228,2e-05,5e-05,0.00013,9e-05,-0.00014,-6e-05,-4e-05,-2e-05,5,16
21229,2e-05,5e-05,0.00013,9e-05,-0.00014,-6e-05,-4e-05,-2e-05,5,16
21230,2e-05,5e-05,0.00013,9e-05,-0.00014,-6e-05,-4e-05,-2e-05,5,16
21231,2e-05,5e-05,0.00013,9e-05,-0.00014,-6e-05,-4e-05,-2e-05,5,16
21232,2e-05,5e-05,0.00013,9e-05,-0.00014,-6e-05,-4e-05,-2e-05,5,16
21233,0.00012,3e-05,-8e-05,0.00044,0.00045,0.00056,0.00014,4e-05,5,16
21234,0.00012,3e-05,-8e-05,0.00044,0.00045,0.00056,0.00014,4e-05,5,16
21235,0.00012,3e-05,-8e-05,0.00044,0.00045,0.00056,0.00014,4e-05,5,16
21236,0.00012,3e-05,-8e-05,0.00044,0.00045,0.00056,0.00014,4e-05,5,16
21238,0.00012,3e-05,-8e-05,0.00044,0.00045,0.00056,0.00014,4e-05,5,16
21239,0.00012,3e-05,-8e-05,0.00044,0.00045,0.00056,0.00014,4e-05,5,16
21240,0.00012,3e-05,-8e-05,0.00044,0.00045,0.00056,0.00014,4e-05,5,16
21241,0.00012,3e-05,-8e-05,0.00044,0.00045,0.00056,0.00014,4e-05,5,16
21242,0.00012,3e-05,-8e-05,0.00044,0.00045,0.00056,0.00014,4e-05,5,16
21243,0.00012,3e-05,-8e-05,0.00044,0.00045,0.00056,0.00014,4e-05,5,16
21244,0.00012,3e-05,-8e-05,0.00044,0.00045,0.00056,0.00014,4e-05,5,16
21245,0.00012,3e-05,-8e-05,0.00044,0.00045,0.00056,0.00014,4e-05,5,16
21246,0.00012,3e-05,-8e-05,0.00044,0.00045,0.00056,0.00014,4e-05,5,16
21247,0.00012,3e-05,-8e-05,0.00044,0.00045,0.00056,0.00014,4e-05,5,16
21248,0.00012,3e-05,-8e-05,0.00044,0.00045,0.00056,0.00014,4e-05,5,16
21249,-3e-05,-5e-05,-8e-05,-0.0004,-0.0003,-8e-05,-4e-05,-2e-05,5,16
21250,-6e-05,-9e-05,-0.00018,-0.0002,-0.00046,-0.00028,-6e-05,-1e-05,5,16
21251,-6e-05,-9e-05,-0.00018,-0.0002,-0.00046,-0.00028,-6e-05,-1e-05,5,16
21252,-6e-05,-9e-05,-0.00018,-0.0002,-0.00046,-0.00028,-6e-05,-1e-05,5,16
21253,-6e-05,-9e-05,-0.00018,-0.0002,-0.00046,-0.00028,-6e-05,-1e-05,5,16
21254,-6e-05,-9e-05,-0.00018,-0.0002,-0.00046,-0.00028,-6e-05,-1e-05,5,16
21255,-2e-05,6e-05,-5e-05,-0.00027,-0.00072,-0.00056,-0.00014,-3e-05,5,16
21257,-2e-05,6e-05,-5e-05,-0.00027,-0.00072,-0.00056,-0.00014,-3e-05,5,16
21258,-2e-05,6e-05,-5e-05,-0.00027,-0.00072,-0.00056,-0.00014,-3e-05,5,16
21259,-2e-05,6e-05,-5e-05,-0.00027,-0.00072,-0.00056,-0.00014,-3e-05,5,16
21260,-2e-05,6e-05,-5e-05,-0.00027,-0.00072,-0.00056,-0.00014,-3e-05,5,16
21261,-2e-05,6e-05,-5e-05,-0.00027,-0.00072,-0.00056,-0.00014,-3e-05,5,16
21262,-2e-05,6e-05,-5e-05,-0.00027,-0.00072,-0.00056,-0.00014,-3e-05,5,16
21263,-2e-05,6e-05,-5e-05,-0.00027,-0.00072,-0.00056,-0.00014,-3e-05,5,16
21264,-2e-05,6e-05,-5e-05,-0.00027,-0.00072,-0.00056,-0.00014,-3e-05,5,16
21265,-2e-05,6e-05,-5e-05,-0.00027,-0.00072,-0.00056,-0.00014,-3e-05,5,16
21266,-2e-05,6e-05,-5e-05,-0.00027,-0.00072,-0.00056,-0.00014,-3e-05,5,16
21267,-2e-05,6e-05,-5e-05,-0.00027,-0.00072,-0.00056,-0.00014,-3e-05,5,16
21268,-2e-05,6e-05,-5e-05,-0.00027,-0.00072,-0.00056,-0.00014,-3e-05,5,16
21269,-2e-05,6e-05,-5e-05,-0.00027,-0.00072,-0.00056,-0.00014,-3e-05,5,16
21270,-2e-05,6e-05,-5e-05,-0.00027,-0.00072,-0.00056,-0.00014,-3e-05,5,16
21271,-2e-05,6e-05,-5e-05,-0.00027,-0.00072,-0.00056,-0.00014,-3e-05,5,16
21272,0.0001,2e-05,-2e-05,-0.00018,-7e-05,-5e-05,-5e-05,0,5,16
21273,0.0001,2e-05,-2e-05,-0.00018,-7e-05,-5e-05,-5e-05,0,5,16
21274,0.0001,2e-05,-2e-05,-0.00018,-7e-05,-5e-05,-5e-05,0,5,16
21275,0.0001,2e-05,-2e-05,-0.00018,-7e-05,-5e-05,-5e-05,0,5,16
21276,0.0001,2e-05,-2e-05,-0.00018,-7e-05,-5e-05,-5e-05,0,5,16
21277,0.0001,2e-05,-2e-05,-0.00018,-7e-05,-5e-05,-5e-05,0,5,16
21278,0.0001,2e-05,-2e-05,-0.00018,-7e-05,-5e-05,-5e-05,0,5,16
21279,0.0001,2e-05,-2e-05,-0.00018,-7e-05,-5e-05,-5e-05,0,5,16
21280,1e-05,-0.00016,-0.00018,-0.00047,-0.00026,-0.00053,-0.00012,-2e-05,5,16
21281,1e-05,-0.00016,-0.00018,-0.00047,-0.00026,-0.00053,-0.00012,-2e-05,5,16
21282,1e-05,-0.00016,-0.00018,-0.00047,-0.00026,-0.00053,-0.00012,-2e-05,5,16
21283,1e-05,-0.00016,-0.00018,-0.00047,-0.00026,-0.00053,-0.00012,-2e-05,5,16
21284,1e-05,-0.00016,-0.00018,-0.00047,-0.00026,-0.00053,-0.00012,-2e-05,5,16
21285,1e-05,-0.00016,-0.00018,-0.00047,-0.00026,-0.00053,-0.00012,-2e-05,5,16
21286,1e-05,-0.00016,-0.00018,-0.00047,-0.00026,-0.00053,-0.00012,-2e-05,5,16
21289,-0.00013,-5e-05,-2e-05,-0.00032,-0.0003,-0.00027,-0.0001,-2e-05,5,16
21290,-0.00013,-5e-05,-2e-05,-0.00032,-0.0003,-0.00027,-0.0001,-2e-05,5,16
21291,-0.00013,-5e-05,-2e-05,-0.00032,-0.0003,-0.00027,-0.0001,-2e-05,5,16
21292,-0.00013,-5e-05,-2e-05,-0.00032,-0.0003,-0.00027,-0.0001,-2e-05,5,16
21293,0,-7e-05,-4e-05,0.00032,0.00016,-9e-05,-0.00012,-7e-05,5,16
21294,0,-7e-05,-4e-05,0.00032,0.00016,-9e-05,-0.00012,-7e-05,5,16
21295,0,-7e-05,-4e-05,0.00032,0.00016,-9e-05,-0.00012,-7e-05,5,16
21296,0,-7e-05,-4e-05,0.00032,0.00016,-9e-05,-0.00012,-7e-05,5,16
21297,0,-7e-05,-4e-05,0.00032,0.00016,-9e-05,-0.00012,-7e-05,5,16
21298,0,-7e-05,-4e-05,0.00032,0.00016,-9e-05,-0.00012,-7e-05,5,16
21299,0,-7e-05,-4e-05,0.00032,0.00016,-9e-05,-0.00012,-7e-05,5,16
21300,0,-7e-05,-4e-05,0.00032,0.00016,-9e-05,-0.00012,-7e-05,5,16
21301,0,-7e-05,-4e-05,0.00032,0.00016,-9e-05,-0.00012,-7e-05,5,16
21302,0,-7e-05,-4e-05,0.00032,0.00016,-9e-05,-0.00012,-7e-05,5,16
21303,0,-7e-05,-4e-05,0.00032,0.00016,-9e-05,-0.00012,-7e-05,5,16
21304,0,-7e-05,-4e-05,0.00032,0.00016,-9e-05,-0.00012,-7e-05,5,16
21305,0,-7e-05,-4e-05,0.00032,0.00016,-9e-05,-0.00012,-7e-05,5,16
21306,0,-7e-05,-4e-05,0.00032,0.00016,-9e-05,-0.00012,-7e-05,5,16
21307,0,-7e-05,-4e-05,0.00032,0.00016,-9e-05,-0.00012,-7e-05,5,16
21308,0,-7e-05,-4e-05,0.00032,0.00016,-9e-05,-0.00012,-7e-05,5,16
21309,-5e-05,3e-05,-4e-05,-3e-05,-0.0002,-0.00015,1e-05,-2e-05,5,16
21310,-5e-05,3e-05,-4e-05,-3e-05,-0.0002,-0.00015,1e-05,-2e-05,5,16
21311,5e-05,1e-05,8e-05,0.00012,8e-05,0.00028,7e-05,5e-05,5,16
21312,5e-05,1e-05,8e-05,0.00012,8e-05,0.00028,7e-05,5e-05,5,16
21313,5e-05,1e-05,8e-05,0.00012,8e-05,0.00028,7e-05,5e-05,5,16
21314,5e-05,1e-05,8e-05,0.00012,8e-05,0.00028,7e-05,5e-05,5,16
21315,5e-05,1e-05,8e-05,0.00012,8e-05,0.00028,7e-05,5e-05,5,16
21316,5e-05,1e-05,8e-05,0.00012,8e-05,0.00028,7e-05,5e-05,5,16
21317,5e-05,1e-05,8e-05,0.00012,8e-05,0.00028,7e-05,5e-05,5,16
21318,5e-05,1e-05,8e-05,0.00012,8e-05,0.00028,7e-05,5e-05,5,16
21319,5e-05,1e-05,8e-05,0.00012,8e-05,0.00028,7e-05,5e-05,5,16
21320,5e-05,1e-05,8e-05,0.00012,8e-05,0.00028,7e-05,5e-05,5,16
21321,5e-05,1e-05,8e-05,0.00012,8e-05,0.00028,7e-05,5e-05,5,16
21322,5e-05,1e-05,8e-05,0.00012,8e-05,0.00028,7e-05,5e-05,5,16
21323,5e-05,1e-05,8e-05,0.00012,8e-05,0.00028,7e-05,5e-05,5,16
21324,5e-05,1e-05,8e-05,0.00012,8e-05,0.00028,7e-05,5e-05,5,16
21325,5e-05,1e-05,8e-05,0.00012,8e-05,0.00028,7e-05,5e-05,5,16
21326,5e-05,1e-05,8e-05,0.00012,8e-05,0.00028,7e-05,5e-05,5,16
21327,5e-05,1e-05,8e-05,0.00012,8e-05,0.00028,7e-05,5e-05,5,16
21328,5e-05,1e-05,8e-05,0.00012,8e-05,0.00028,7e-05,5e-05,5,16
21329,5e-05,1e-05,8e-05,0.00012,8e-05,0.00028,7e-05,5e-05,5,16
21330,5e-05,1e-05,8e-05,0.00012,8e-05,0.00028,7e-05,5e-05,5,16
21331,5e-05,1e-05,8e-05,0.00012,8e-05,0.00028,7e-05,5e-05,5,16
21332,-6e-05,-0.00015,-0.00039,-0.00027,0,-2e-05,-3e-05,-6e-05,5,16
21333,-6e-05,-0.00015,-0.00039,-0.00027,0,-2e-05,-3e-05,-6e-05,5,16
21334,-1e-05,9e-05,0.00012,0.00014,-0.00014,-0.00034,-8e-05,-1e-05,5,16
21335,-1e-05,9e-05,0.00012,0.00014,-0.00014,-0.00034,-8e-05,-1e-05,5,16
21336,-1e-05,9e-05,0.00012,0.00014,-0.00014,-0.00034,-8e-05,-1e-05,5,16
21339,-1e-05,9e-05,0.00012,0.00014,-0.00014,-0.00034,-8e-05,-1e-05,5,16
21340,-1e-05,9e-05,0.00012,0.00014,-0.00014,-0.00034,-8e-05,-1e-05,5,16
21341,-1e-05,9e-05,0.00012,0.00014,-0.00014,-0.00034,-8e-05,-1e-05,5,16
21342,-1e-05,9e-05,0.00012,0.00014,-0.00014,-0.00034,-8e-05,-1e-05,5,16
21343,-1e-05,9e-05,0.00012,0.00014,-0.00014,-0.00034,-8e-05,-1e-05,5,16
21344,-1e-05,9e-05,0.00012,0.00014,-0.00014,-0.00034,-8e-05,-1e-05,5,16
21345,-1e-05,9e-05,0.00012,0.00014,-0.00014,-0.00034,-8e-05,-1e-05,5,16
21346,-5e-05,3e-05,0.00022,0.00051,0.00031,0.00037,9e-05,-1e-05,5,16
21347,-5e-05,3e-05,0.00022,0.00051,0.00031,0.00037,9e-05,-1e-05,5,16
21348,-5e-05,3e-05,0.00022,0.00051,0.00031,0.00037,9e-05,-1e-05,5,16
21349,-5e-05,3e-05,0.00022,0.00051,0.00031,0.00037,9e-05,-1e-05,5,16
21350,-5e-05,3e-05,0.00022,0.00051,0.00031,0.00037,9e-05,-1e-05,5,16
21351,-5e-05,3e-05,0.00022,0.00051,0.00031,0.00037,9e-05,-1e-05,5,16
21352,-5e-05,3e-05,0.00022,0.00051,0.00031,0.00037,9e-05,-1e-05,5,16
21353,-5e-05,0,-0.00014,-0.00026,-7e-05,-7e-05,-1e-05,0,5,16
21354,-5e-05,0,-0.00014,-0.00026,-7e-05,-7e-05,-1e-05,0,5,16
21355,-5e-05,0,-0.00014,-0.00026,-7e-05,-7e-05,-1e-05,0,5,16
21356,-5e-05,0,-0.00014,-0.00026,-7e-05,-7e-05,-1e-05,0,5,16
21357,-5e-05,0,-0.00014,-0.00026,-7e-05,-7e-05,-1e-05,0,5,16
21358,-5e-05,0,-0.00014,-0.00026,-7e-05,-7e-05,-1e-05,0,5,16
21359,-5e-05,0,-0.00014,-0.00026,-7e-05,-7e-05,-1e-05,0,5,16
21360,-5e-05,0,-0.00014,-0.00026,-7e-05,-7e-05,-1e-05,0,5,16
21361,-5e-05,0,-0.00014,-0.00026,-7e-05,-7e-05,-1e-05,0,5,16
21362,-5e-05,0,-0.00014,-0.00026,-7e-05,-7e-05,-1e-05,0,5,16
21363,-5e-05,0,-0.00014,-0.00026,-7e-05,-7e-05,-1e-05,0,5,16
21364,-5e-05,0,-0.00014,-0.00026,-7e-05,-7e-05,-1e-05,0,5,16
21365,-5e-05,0,-0.00014,-0.00026,-7e-05,-7e-05,-1e-05,0,5,16
21366,-5e-05,0,-0.00014,-0.00026,-7e-05,-7e-05,-1e-05,0,5,16
21367,-5e-05,0,-0.00014,-0.00026,-7e-05,-7e-05,-1e-05,0,5,16
21368,-5e-05,0,-0.00014,-0.00026,-7e-05,-7e-05,-1e-05,0,5,16
21369,3e-05,5e-05,-2e-05,9e-05,-0.00018,-8e-05,-2e-05,-2e-05,5,16
21370,1e-05,1e-05,4e-05,8e-05,-0.00018,-8e-05,0,5e-05,5,16
21371,1e-05,1e-05,4e-05,8e-05,-0.00018,-8e-05,0,5e-05,5,16
21372,-5e-05,0,-2e-05,-7e-05,-1e-05,7e-05,2e-05,-3e-05,5,16
21373,-5e-05,0,-2e-05,-7e-05,-1e-05,7e-05,2e-05,-3e-05,5,16
21374,-5e-05,0,-2e-05,-7e-05,-1e-05,7e-05,2e-05,-3e-05,5,16
21375,-5e-05,0,-2e-05,-7e-05,-1e-05,7e-05,2e-05,-3e-05,5,16
21376,-5e-05,0,-2e-05,-7e-05,-1e-05,7e-05,2e-05,-3e-05,5,16
21377,-5e-05,0,-2e-05,-7e-05,-1e-05,7e-05,2e-05,-3e-05,5,16
21378,-5e-05,0,-2e-05,-7e-05,-1e-05,7e-05,2e-05,-3e-05,5,16
21379,-5e-05,0,-2e-05,-7e-05,-1e-05,7e-05,2e-05,-3e-05,5,16
21380,-5e-05,0,-2e-05,-7e-05,-1e-05,7e-05,2e-05,-3e-05,5,16
21381,-5e-05,0,-2e-05,-7e-05,-1e-05,7e-05,2e-05,-3e-05,5,16
21382,-5e-05,0,-2e-05,-7e-05,-1e-05,7e-05,2e-05,-3e-05,5,16
21383,-5e-05,0,-2e-05,-7e-05,-1e-05,7e-05,2e-05,-3e-05,5,16
21384,-5e-05,0,-2e-05,-7e-05,-1e-05,7e-05,2e-05,-3e-05,5,16
21385,-5e-05,0,-2e-05,-7e-05,-1e-05,7e-05,2e-05,-3e-05,5,16
21386,-5e-05,0,-2e-05,-7e-05,-1e-05,7e-05,2e-05,-3e-05,5,16
21389,-5e-05,0,-2e-05,-7e-05,-1e-05,7e-05,2e-05,-3e-05,5,16
21390,-5e-05,0,-2e-05,-7e-05,-1e-05,7e-05,2e-05,-3e-05,5,16
21391,-5e-05,0,-2e-05,-7e-05,-1e-05,7e-05,2e-05,-3e-05,5,16
21392,-1e-05,4e-05,0.00013,4e-05,4e-05,-6e-05,1e-05,1e-05,5,16
21393,0,-9e-05,-2e-05,0.00029,9e-05,-1e-05,0,2e-05,5,16
21394,0,-9e-05,-2e-05,0.00029,9e-05,-1e-05,0,2e-05,5,16
21395,0,-9e-05,-2e-05,0.00029,9e-05,-1e-05,0,2e-05,5,16
21396,0,-9e-05,-2e-05,0.00029,9e-05,-1e-05,0,2e-05,5,16
21397,0,-9e-05,-2e-05,0.00029,9e-05,-1e-05,0,2e-05,5,16
21398,0,-9e-05,-2e-05,0.00029,9e-05,-1e-05,0,2e-05,5,16
21399,0,-9e-05,-2e-05,0.00029,9e-05,-1e-05,0,2e-05,5,16
21400,0,-9e-05,-2e-05,0.00029,9e-05,-1e-05,0,2e-05,5,16
21401,0,-9e-05,-2e-05,0.00029,9e-05,-1e-05,0,2e-05,5,16
21402,0,-9e-05,-2e-05,0.00029,9e-05,-1e-05,0,2e-05,5,16
21403,0,-9e-05,-2e-05,0.00029,9e-05,-1e-05,0,2e-05,5,16
21404,0,-9e-05,-2e-05,0.00029,9e-05,-1e-05,0,2e-05,5,16
21405,0,-9e-05,-2e-05,0.00029,9e-05,-1e-05,0,2e-05,5,16
21406,6e-05,-1e-05,0,-0.00012,0.00024,9e-05,-1e-05,-3e-05,5,16
21407,6e-05,-1e-05,0,-0.00012,0.00024,9e-05,-1e-05,-3e-05,5,16
21408,6e-05,-1e-05,0,-0.00012,0.00024,9e-05,-1e-05,-3e-05,5,16
21409,6e-05,-1e-05,0,-0.00012,0.00024,9e-05,-1e-05,-3e-05,5,16
21410,6e-05,-1e-05,0,-0.00012,0.00024,9e-05,-1e-05,-3e-05,5,16
21411,6e-05,-1e-05,0,-0.00012,0.00024,9e-05,-1e-05,-3e-05,5,16
21412,6e-05,-1e-05,0,-0.00012,0.00024,9e-05,-1e-05,-3e-05,5,16
21413,6e-05,-1e-05,0,-0.00012,0.00024,9e-05,-1e-05,-3e-05,5,16
21414,-5e-05,1e-05,0.0001,2e-05,1e-05,-0.00017,-6e-05,-4e-05,5,16
21415,-5e-05,1e-05,0.0001,2e-05,1e-05,-0.00017,-6e-05,-4e-05,5,16
21416,-5e-05,1e-05,0.0001,2e-05,1e-05,-0.00017,-6e-05,-4e-05,5,16
21417,-5e-05,1e-05,0.0001,2e-05,1e-05,-0.00017,-6e-05,-4e-05,5,16
21418,-5e-05,1e-05,0.0001,2e-05,1e-05,-0.00017,-6e-05,-4e-05,5,16
21419,-5e-05,1e-05,0.0001,2e-05,1e-05,-0.00017,-6e-05,-4e-05,5,16
21420,-5e-05,1e-05,0.0001,2e-05,1e-05,-0.00017,-6e-05,-4e-05,5,16
21421,-5e-05,1e-05,0.0001,2e-05,1e-05,-0.00017,-6e-05,-4e-05,5,16
21422,-5e-05,1e-05,0.0001,2e-05,1e-05,-0.00017,-6e-05,-4e-05,5,16
21423,-5e-05,1e-05,0.0001,2e-05,1e-05,-0.00017,-6e-05,-4e-05,5,16
21424,-5e-05,1e-05,0.0001,2e-05,1e-05,-0.00017,-6e-05,-4e-05,5,16
21425,-5e-05,1e-05,0.0001,2e-05,1e-05,-0.00017,-6e-05,-4e-05,5,16
21426,-5e-05,1e-05,0.0001,2e-05,1e-05,-0.00017,-6e-05,-4e-05,5,16
21427,-5e-05,1e-05,0.0001,2e-05,1e-05,-0.00017,-6e-05,-4e-05,5,16
21428,-5e-05,1e-05,0.0001,2e-05,1e-05,-0.00017,-6e-05,-4e-05,5,16
21429,0,-3e-05,5e-05,-0.00022,7e-05,-3e-05,0,3e-05,5,16
21430,0,-3e-05,5e-05,-0.00022,7e-05,-3e-05,0,3e-05,5,16
21431,1e-05,0,8e-05,0.00051,0.00025,0.00014,4e-05,4e-05,5,16
21432,1e-05,0,8e-05,0.00051,0.00025,0.00014,4e-05,4e-05,5,16
21433,1e-05,0,8e-05,0.00051,0.00025,0.00014,4e-05,4e-05,5,16
21434,1e-05,0,8e-05,0.00051,0.00025,0.00014,4e-05,4e-05,5,16
21435,1e-05,0,8e-05,0.00051,0.00025,0.00014,4e-05,4e-05,5,16
21436,1e-05,0,8e-05,0.00051,0.00025,0.00014,4e-05,4e-05,5,16
21439,1e-05,0,8e-05,0.00051,0.00025,0.00014,4e-05,4e-05,5,16
21440,1e-05,0,8e-05,0.00051,0.00025,0.00014,4e-05,4e-05,5,16
21441,1e-05,0,8e-05,0.00051,0.00025,0.00014,4e-05,4e-05,5,16
21442,1e-05,0,8e-05,0.00051,0.00025,0.00014,4e-05,4e-05,5,16
21443,1e-05,0,8e-05,0.00051,0.00025,0.00014,4e-05,4e-05,5,16
21444,1e-05,0,8e-05,0.00051,0.00025,0.00014,4e-05,4e-05,5,16
21445,1e-05,0,8e-05,0.00051,0.00025,0.00014,4e-05,4e-05,5,16
21446,1e-05,0,8e-05,0.00051,0.00025,0.00014,4e-05,4e-05,5,16
21447,1e-05,0,8e-05,0.00051,0.00025,0.00014,4e-05,4e-05,5,16
21448,1e-05,0,8e-05,0.00051,0.00025,0.00014,4e-05,4e-05,5,16
21449,1e-05,0,8e-05,0.00051,0.00025,0.00014,4e-05,4e-05,5,16
21450,1e-05,0,8e-05,0.00051,0.00025,0.00014,4e-05,4e-05,5,16
21451,1e-05,0,8e-05,0.00051,0.00025,0.00014,4e-05,4e-05,5,16
21452,-7e-05,-0.0001,-0.00015,-0.00027,-0.00043,-0.00024,-7e-05,-5e-05,5,16
21453,5e-05,0,-5e-05,-0.00045,0,0.00018,2e-05,-3e-05,5,16
21454,5e-05,0,-5e-05,-0.00045,0,0.00018,2e-05,-3e-05,5,16
21455,5e-05,0,-5e-05,-0.00045,0,0.00018,2e-05,-3e-05,5,16
21456,5e-05,0,-5e-05,-0.00045,0,0.00018,2e-05,-3e-05,5,16
21457,5e-05,0,-5e-05,-0.00045,0,0.00018,2e-05,-3e-05,5,16
21458,5e-05,0,-5e-05,-0.00045,0,0.00018,2e-05,-3e-05,5,16
21459,5e-05,0,-5e-05,-0.00045,0,0.00018,2e-05,-3e-05,5,16
21460,5e-05,0,-5e-05,-0.00045,0,0.00018,2e-05,-3e-05,5,16
21461,5e-05,0,-5e-05,-0.00045,0,0.00018,2e-05,-3e-05,5,16
21462,5e-05,0,-5e-05,-0.00045,0,0.00018,2e-05,-3e-05,5,16
21463,5e-05,0,-5e-05,-0.00045,0,0.00018,2e-05,-3e-05,5,16
21464,5e-05,0,-5e-05,-0.00045,0,0.00018,2e-05,-3e-05,5,16
21465,5e-05,0,-5e-05,-0.00045,0,0.00018,2e-05,-3e-05,5,16
21466,6e-05,2e-05,-2e-05,0.00013,-2e-05,-3e-05,4e-05,7e-05,5,16
21467,6e-05,2e-05,-2e-05,0.00013,-2e-05,-3e-05,4e-05,7e-05,5,16
21468,6e-05,2e-05,-2e-05,0.00013,-2e-05,-3e-05,4e-05,7e-05,5,16
21469,6e-05,2e-05,-2e-05,0.00013,-2e-05,-3e-05,4e-05,7e-05,5,16
21470,6e-05,2e-05,-2e-05,0.00013,-2e-05,-3e-05,4e-05,7e-05,5,16
21471,6e-05,2e-05,-2e-05,0.00013,-2e-05,-3e-05,4e-05,7e-05,5,16
21472,6e-05,2e-05,-2e-05,0.00013,-2e-05,-3e-05,4e-05,7e-05,5,16
21473,1e-05,4e-05,4e-05,0,-3e-05,-6e-05,-6e-05,-5e-05,5,16
21474,1e-05,4e-05,4e-05,0,-3e-05,-6e-05,-6e-05,-5e-05,5,16
21475,1e-05,4e-05,4e-05,0,-3e-05,-6e-05,-6e-05,-5e-05,5,16
21476,1e-05,4e-05,4e-05,0,-3e-05,-6e-05,-6e-05,-5e-05,5,16
21477,1e-05,4e-05,4e-05,0,-3e-05,-6e-05,-6e-05,-5e-05,5,16
21478,1e-05,4e-05,4e-05,0,-3e-05,-6e-05,-6e-05,-5e-05,5,16
21479,1e-05,4e-05,4e-05,0,-3e-05,-6e-05,-6e-05,-5e-05,5,16
21480,1e-05,4e-05,4e-05,0,-3e-05,-6e-05,-6e-05,-5e-05,5,16
21481,1e-05,4e-05,4e-05,0,-3e-05,-6e-05,-6e-05,-5e-05,5,16
21482,1e-05,4e-05,4e-05,0,-3e-05,-6e-05,-6e-05,-5e-05,5,16
21483,1e-05,4e-05,4e-05,0,-3e-05,-6e-05,-6e-05,-5e-05,5,16
21484,1e-05,4e-05,4e-05,0,-3e-05,-6e-05,-6e-05,-5e-05,5,16
21485,1e-05,4e-05,4e-05,0,-3e-05,-6e-05,-6e-05,-5e-05,5,16
21486,1e-05,4e-05,4e-05,0,-3e-05,-6e-05,-6e-05,-5e-05,5,16
21488,1e-05,4e-05,4e-05,0,-3e-05,-6e-05,-6e-05,-5e-05,5,16
21489,1e-05,4e-05,4e-05,0,-3e-05,-6e-05,-6e-05,-5e-05,5,16
21490,-1e-05,-2e-05,-9e-05,-0.00079,-0.00016,0.00019,-1e-05,-1e-05,5,16
21491,1e-05,-4e-05,0.00011,-0.00021,-0.00044,-0.00021,-4e-05,2e-05,5,16
21492,1e-05,-4e-05,0.00011,-0.00021,-0.00044,-0.00021,-4e-05,2e-05,5,16
21493,1e-05,-4e-05,0.00011,-0.00021,-0.00044,-0.00021,-4e-05,2e-05,5,16
21494,1e-05,-4e-05,0.00011,-0.00021,-0.00044,-0.00021,-4e-05,2e-05,5,16
21495,1e-05,-4e-05,0.00011,-0.00021,-0.00044,-0.00021,-4e-05,2e-05,5,16
21496,1e-05,-4e-05,0.00011,-0.00021,-0.00044,-0.00021,-4e-05,2e-05,5,16
21497,1e-05,-4e-05,0.00011,-0.00021,-0.00044,-0.00021,-4e-05,2e-05,5,16
21498,1e-05,-4e-05,0.00011,-0.00021,-0.00044,-0.00021,-4e-05,2e-05,5,16
21499,1e-05,-4e-05,0.00011,-0.00021,-0.00044,-0.00021,-4e-05,2e-05,5,16
21500,1e-05,-4e-05,0.00011,-0.00021,-0.00044,-0.00021,-4e-05,2e-05,5,16
21501,1e-05,-4e-05,0.00011,-0.00021,-0.00044,-0.00021,-4e-05,2e-05,5,16
21502,1e-05,-4e-05,0.00011,-0.00021,-0.00044,-0.00021,-4e-05,2e-05,5,16
21503,1e-05,-4e-05,0.00011,-0.00021,-0.00044,-0.00021,-4e-05,2e-05,5,16
21504,1e-05,-4e-05,0.00011,-0.00021,-0.00044,-0.00021,-4e-05,2e-05,5,16
21505,1e-05,-4e-05,0.00011,-0.00021,-0.00044,-0.00021,-4e-05,2e-05,5,16
21506,1e-05,-4e-05,0.00011,-0.00021,-0.00044,-0.00021,-4e-05,2e-05,5,16
21507,1e-05,-4e-05,0.00011,-0.00021,-0.00044,-0.00021,-4e-05,2e-05,5,16
21508,1e-05,-4e-05,0.00011,-0.00021,-0.00044,-0.00021,-4e-05,2e-05,5,16
21509,1e-05,-4e-05,0.00011,-0.00021,-0.00044,-0.00021,-4e-05,2e-05,5,16
21510,1e-05,-4e-05,0.00011,-0.00021,-0.00044,-0.00021,-4e-05,2e-05,5,16
21511,1e-05,-4e-05,0.00011,-0.00021,-0.00044,-0.00021,-4e-05,2e-05,5,16
21512,-5e-05,-0.00017,-0.00032,-0.00074,-0.00022,-0.0001,0,0,5,16
21513,1e-05,0.00012,0.00018,2e-05,1e-05,0.00017,3e-05,6e-05,5,16
21514,1e-05,0.00012,0.00018,2e-05,1e-05,0.00017,3e-05,6e-05,5,16
21515,1e-05,0.00012,0.00018,2e-05,1e-05,0.00017,3e-05,6e-05,5,16
21516,1e-05,0.00012,0.00018,2e-05,1e-05,0.00017,3e-05,6e-05,5,16
21517,1e-05,0.00012,0.00018,2e-05,1e-05,0.00017,3e-05,6e-05,5,16
21518,1e-05,0.00012,0.00018,2e-05,1e-05,0.00017,3e-05,6e-05,5,16
21519,1e-05,0.00012,0.00018,2e-05,1e-05,0.00017,3e-05,6e-05,5,16
21520,1e-05,0.00012,0.00018,2e-05,1e-05,0.00017,3e-05,6e-05,5,16
21521,1e-05,0.00012,0.00018,2e-05,1e-05,0.00017,3e-05,6e-05,5,16
21522,1e-05,0.00012,0.00018,2e-05,1e-05,0.00017,3e-05,6e-05,5,16
21523,1e-05,0.00012,0.00018,2e-05,1e-05,0.00017,3e-05,6e-05,5,16
21524,1e-05,0.00012,0.00018,2e-05,1e-05,0.00017,3e-05,6e-05,5,16
21525,1e-05,0.00012,0.00018,2e-05,1e-05,0.00017,3e-05,6e-05,5,16
21526,3e-05,3e-05,-6e-05,0.00014,-0.00015,-0.00019,-8e-05,-4e-05,5,16
21527,3e-05,3e-05,-6e-05,0.00014,-0.00015,-0.00019,-8e-05,-4e-05,5,16
21528,3e-05,3e-05,-6e-05,0.00014,-0.00015,-0.00019,-8e-05,-4e-05,5,16
21529,3e-05,3e-05,-6e-05,0.00014,-0.00015,-0.00019,-8e-05,-4e-05,5,16
21530,3e-05,3e-05,-6e-05,0.00014,-0.00015,-0.00019,-8e-05,-4e-05,5,16
21531,3e-05,3e-05,-6e-05,0.00014,-0.00015,-0.00019,-8e-05,-4e-05,5,16
21532,3e-05,3e-05,-6e-05,0.00014,-0.00015,-0.00019,-8e-05,-4e-05,5,16
21533,-0.00011,0.00011,0.00025,0.00019,-2e-05,0.00036,0.0001,1e-05,5,16
21534,-0.00011,0.00011,0.00025,0.00019,-2e-05,0.00036,0.0001,1e-05,5,16
21535,-0.00011,0.00011,0.00025,0.00019,-2e-05,0.00036,0.0001,1e-05,5,16
21536,-0.00011,0.00011,0.00025,0.00019,-2e-05,0.00036,0.0001,1e-05,5,16
21538,-0.00011,0.00011,0.00025,0.00019,-2e-05,0.00036,0.0001,1e-05,5,16
21539,-0.00011,0.00011,0.00025,0.00019,-2e-05,0.00036,0.0001,1e-05,5,16
21540,-0.00011,0.00011,0.00025,0.00019,-2e-05,0.00036,0.0001,1e-05,5,16
21541,-0.00011,0.00011,0.00025,0.00019,-2e-05,0.00036,0.0001,1e-05,5,16
21542,-0.00011,0.00011,0.00025,0.00019,-2e-05,0.00036,0.0001,1e-05,5,16
21543,-0.00011,0.00011,0.00025,0.00019,-2e-05,0.00036,0.0001,1e-05,5,16
21544,-0.00011,0.00011,0.00025,0.00019,-2e-05,0.00036,0.0001,1e-05,5,16
21545,-0.00011,0.00011,0.00025,0.00019,-2e-05,0.00036,0.0001,1e-05,5,16
21546,-0.00011,0.00011,0.00025,0.00019,-2e-05,0.00036,0.0001,1e-05,5,16
21547,-0.00011,0.00011,0.00025,0.00019,-2e-05,0.00036,0.0001,1e-05,5,16
21548,-0.00011,0.00011,0.00025,0.00019,-2e-05,0.00036,0.0001,1e-05,5,16
21549,0,7e-05,0.00018,0.00034,0.00017,7e-05,-2e-05,0,5,16
21550,0,-7e-05,-0.00011,-6e-05,2e-05,-3e-05,-1e-05,0,5,16
21551,0,-7e-05,-0.00011,-6e-05,2e-05,-3e-05,-1e-05,0,5,16
21552,0,-7e-05,-0.00011,-6e-05,2e-05,-3e-05,-1e-05,0,5,16
21553,0,-7e-05,-0.00011,-6e-05,2e-05,-3e-05,-1e-05,0,5,16
21554,0,-7e-05,-0.00011,-6e-05,2e-05,-3e-05,-1e-05,0,5,16
21555,0,-7e-05,-0.00011,-6e-05,2e-05,-3e-05,-1e-05,0,5,16
21556,0,-7e-05,-0.00011,-6e-05,2e-05,-3e-05,-1e-05,0,5,16
21557,0,-7e-05,-0.00011,-6e-05,2e-05,-3e-05,-1e-05,0,5,16
21558,0,-7e-05,-0.00011,-6e-05,2e-05,-3e-05,-1e-05,0,5,16
21559,0,-7e-05,-0.00011,-6e-05,2e-05,-3e-05,-1e-05,0,5,16
21560,0,-7e-05,-0.00011,-6e-05,2e-05,-3e-05,-1e-05,0,5,16
21561,0,-7e-05,-0.00011,-6e-05,2e-05,-3e-05,-1e-05,0,5,16
21562,0,-7e-05,-0.00011,-6e-05,2e-05,-3e-05,-1e-05,0,5,16
21563,0,-7e-05,-0.00011,-6e-05,2e-05,-3e-05,-1e-05,0,5,16
21564,0,-7e-05,-0.00011,-6e-05,2e-05,-3e-05,-1e-05,0,5,16
21565,0,-7e-05,-0.00011,-6e-05,2e-05,-3e-05,-1e-05,0,5,16
21566,0,-7e-05,-0.00011,-6e-05,2e-05,-3e-05,-1e-05,0,5,16
21567,0,-7e-05,-0.00011,-6e-05,2e-05,-3e-05,-1e-05,0,5,16
21568,0,-7e-05,-0.00011,-6e-05,2e-05,-3e-05,-1e-05,0,5,16
21569,0,-7e-05,-0.00011,-6e-05,2e-05,-3e-05,-1e-05,0,5,16
21570,0,-7e-05,-0.00011,-6e-05,2e-05,-3e-05,-1e-05,0,5,16
21571,0,2e-05,-2e-05,1e-05,-0.00013,3e-05,-2e-05,-1e-05,5,16
21572,-6e-05,3e-05,0.00017,0.00024,8e-05,6e-05,-1e-05,-2e-05,5,16
21573,0,-2e-05,-5e-05,-1e-05,4e-05,-5e-05,-3e-05,0,5,16
21574,0,-2e-05,-5e-05,-1e-05,4e-05,-5e-05,-3e-05,0,5,16
21575,0,-2e-05,-5e-05,-1e-05,4e-05,-5e-05,-3e-05,0,5,16
21576,0,-2e-05,-5e-05,-1e-05,4e-05,-5e-05,-3e-05,0,5,16
21577,0,-2e-05,-5e-05,-1e-05,4e-05,-5e-05,-3e-05,0,5,16
21578,0,-2e-05,-5e-05,-1e-05,4e-05,-5e-05,-3e-05,0,5,16
21579,0,-2e-05,-5e-05,-1e-05,4e-05,-5e-05,-3e-05,0,5,16
21580,0,-2e-05,-5e-05,-1e-05,4e-05,-5e-05,-3e-05,0,5,16
21581,0,-2e-05,-5e-05,-1e-05,4e-05,-5e-05,-3e-05,0,5,16
21582,0,-2e-05,-5e-05,-1e-05,4e-05,-5e-05,-3e-05,0,5,16
21583,0,-2e-05,-5e-05,-1e-05,4e-05,-5e-05,-3e-05,0,5,16
21584,0,-2e-05,-5e-05,-1e-05,4e-05,-5e-05,-3e-05,0,5,16
21585,9e-05,-0.00022,-0.00029,-0.00058,-6e-05,-0.00014,-2e-05,0,5,16
21586,9e-05,-0.00022,-0.00029,-0.00058,-6e-05,-0.00014,-2e-05,0,5,16
21588,9e-05,-0.00022,-0.00029,-0.00058,-6e-05,-0.00014,-2e-05,0,5,16
21589,9e-05,-0.00022,-0.00029,-0.00058,-6e-05,-0.00014,-2e-05,0,5,16
21590,9e-05,-0.00022,-0.00029,-0.00058,-6e-05,-0.00014,-2e-05,0,5,16
21591,9e-05,-0.00022,-0.00029,-0.00058,-6e-05,-0.00014,-2e-05,0,5,16
21592,9e-05,-0.00022,-0.00029,-0.00058,-6e-05,-0.00014,-2e-05,0,5,16
21593,9e-05,-0.00022,-0.00029,-0.00058,-6e-05,-0.00014,-2e-05,0,5,16
21594,-9e-05,-0.0001,-0.0002,-0.00042,-0.00015,-0.00015,2e-05,-6e-05,5,16
21595,-9e-05,-0.0001,-0.0002,-0.00042,-0.00015,-0.00015,2e-05,-6e-05,5,16
21596,-9e-05,-0.0001,-0.0002,-0.00042,-0.00015,-0.00015,2e-05,-6e-05,5,16
21597,-9e-05,-0.0001,-0.0002,-0.00042,-0.00015,-0.00015,2e-05,-6e-05,5,16
21598,-9e-05,-0.0001,-0.0002,-0.00042,-0.00015,-0.00015,2e-05,-6e-05,5,16
21599,-9e-05,-0.0001,-0.0002,-0.00042,-0.00015,-0.00015,2e-05,-6e-05,5,16
21600,-9e-05,-0.0001,-0.0002,-0.00042,-0.00015,-0.00015,2e-05,-6e-05,5,16
21601,-9e-05,-0.0001,-0.0002,-0.00042,-0.00015,-0.00015,2e-05,-6e-05,5,16
21602,-9e-05,-0.0001,-0.0002,-0.00042,-0.00015,-0.00015,2e-05,-6e-05,5,16
21603,-9e-05,-0.0001,-0.0002,-0.00042,-0.00015,-0.00015,2e-05,-6e-05,5,16
21604,-9e-05,-0.0001,-0.0002,-0.00042,-0.00015,-0.00015,2e-05,-6e-05,5,16
21605,-9e-05,-0.0001,-0.0002,-0.00042,-0.00015,-0.00015,2e-05,-6e-05,5,16
21606,-9e-05,-0.0001,-0.0002,-0.00042,-0.00015,-0.00015,2e-05,-6e-05,5,16
21607,-9e-05,-0.0001,-0.0002,-0.00042,-0.00015,-0.00015,2e-05,-6e-05,5,16
21608,-9e-05,-0.0001,-0.0002,-0.00042,-0.00015,-0.00015,2e-05,-6e-05,5,16
21609,-3e-05,0.0001,0.0002,-2e-05,-0.00017,-3e-05,2e-05,1e-05,5,16
21610,-3e-05,0.0001,0.0002,-2e-05,-0.00017,-3e-05,2e-05,1e-05,5,16
21611,3e-05,0,-1e-05,8e-05,0.00013,7e-05,0,-4e-05,5,16
21612,3e-05,0,-1e-05,8e-05,0.00013,7e-05,0,-4e-05,5,16
21613,3e-05,0,-1e-05,8e-05,0.00013,7e-05,0,-4e-05,5,16
21614,3e-05,0,-1e-05,8e-05,0.00013,7e-05,0,-4e-05,5,16
21615,3e-05,0,-1e-05,8e-05,0.00013,7e-05,0,-4e-05,5,16
21616,3e-05,0,-1e-05,8e-05,0.00013,7e-05,0,-4e-05,5,16
21617,3e-05,0,-1e-05,8e-05,0.00013,7e-05,0,-4e-05,5,16
21618,3e-05,0,-1e-05,8e-05,0.00013,7e-05,0,-4e-05,5,16
21619,3e-05,0,-1e-05,8e-05,0.00013,7e-05,0,-4e-05,5,16
21620,3e-05,0,-1e-05,8e-05,0.00013,7e-05,0,-4e-05,5,16
21621,3e-05,0,-1e-05,8e-05,0.00013,7e-05,0,-4e-05,5,16
21622,3e-05,0,-1e-05,8e-05,0.00013,7e-05,0,-4e-05,5,16
21623,3e-05,0,-1e-05,8e-05,0.00013,7e-05,0,-4e-05,5,16
21624,3e-05,0,-1e-05,8e-05,0.00013,7e-05,0,-4e-05,5,16
21625,3e-05,0,-1e-05,8e-05,0.00013,7e-05,0,-4e-05,5,16
21626,3e-05,0,-1e-05,8e-05,0.00013,7e-05,0,-4e-05,5,16
21627,3e-05,0,-1e-05,8e-05,0.00013,7e-05,0,-4e-05,5,16
21628,3e-05,0,-1e-05,8e-05,0.00013,7e-05,0,-4e-05,5,16
21629,3e-05,0,-1e-05,8e-05,0.00013,7e-05,0,-4e-05,5,16
21630,3e-05,0,-1e-05,8e-05,0.00013,7e-05,0,-4e-05,5,16
21631,3e-05,0,-1e-05,8e-05,0.00013,7e-05,0,-4e-05,5,16
21632,-4e-05,2e-05,8e-05,0.00024,4e-05,1e-05,-5e-05,-2e-05,5,16
21633,-1e-05,-1e-05,2e-05,0.00011,8e-05,-6e-05,-2e-05,2e-05,5,16
21634,-1e-05,-1e-05,2e-05,0.00011,8e-05,-6e-05,-2e-05,2e-05,5,16
21635,-1e-05,-1e-05,2e-05,0.00011,8e-05,-6e-05,-2e-05,2e-05,5,16
21636,-1e-05,-1e-05,2e-05,0.00011,8e-05,-6e-05,-2e-05,2e-05,5,16
21638,-1e-05,-1e-05,2e-05,0.00011,8e-05,-6e-05,-2e-05,2e-05,5,16
21639,-1e-05,-1e-05,2e-05,0.00011,8e-05,-6e-05,-2e-05,2e-05,5,16
21640,-1e-05,-1e-05,2e-05,0.00011,8e-05,-6e-05,-2e-05,2e-05,5,16
21641,-1e-05,-1e-05,2e-05,0.00011,8e-05,-6e-05,-2e-05,2e-05,5,16
21642,-1e-05,-1e-05,2e-05,0.00011,8e-05,-6e-05,-2e-05,2e-05,5,16
21643,-1e-05,-1e-05,2e-05,0.00011,8e-05,-6e-05,-2e-05,2e-05,5,16
21644,-1e-05,-1e-05,2e-05,0.00011,8e-05,-6e-05,-2e-05,2e-05,5,16
21645,9e-05,-0.00014,-0.00037,-4e-05,-0.0002,0.00031,4e-05,2e-05,5,16
21646,9e-05,-0.00014,-0.00037,-4e-05,-0.0002,0.00031,4e-05,2e-05,5,16
21647,9e-05,-0.00014,-0.00037,-4e-05,-0.0002,0.00031,4e-05,2e-05,5,16
21648,9e-05,-0.00014,-0.00037,-4e-05,-0.0002,0.00031,4e-05,2e-05,5,16
21649,9e-05,-0.00014,-0.00037,-4e-05,-0.0002,0.00031,4e-05,2e-05,5,16
21650,9e-05,-0.00014,-0.00037,-4e-05,-0.0002,0.00031,4e-05,2e-05,5,16
21651,9e-05,-0.00014,-0.00037,-4e-05,-0.0002,0.00031,4e-05,2e-05,5,16
21652,9e-05,-0.00014,-0.00037,-4e-05,-0.0002,0.00031,4e-05,2e-05,5,16
21653,9e-05,-0.00014,-0.00037,-4e-05,-0.0002,0.00031,4e-05,2e-05,5,16
21654,0,-1e-05,-0.00012,-0.00013,0.00035,4e-05,-1e-05,2e-05,5,16
21655,0,-1e-05,-0.00012,-0.00013,0.00035,4e-05,-1e-05,2e-05,5,16
21656,0,-1e-05,-0.00012,-0.00013,0.00035,4e-05,-1e-05,2e-05,5,16
21657,0,-1e-05,-0.00012,-0.00013,0.00035,4e-05,-1e-05,2e-05,5,16
21658,0,-1e-05,-0.00012,-0.00013,0.00035,4e-05,-1e-05,2e-05,5,16
21659,0,-1e-05,-0.00012,-0.00013,0.00035,4e-05,-1e-05,2e-05,5,16
21660,0,-1e-05,-0.00012,-0.00013,0.00035,4e-05,-1e-05,2e-05,5,16
21661,0,-1e-05,-0.00012,-0.00013,0.00035,4e-05,-1e-05,2e-05,5,16
21662,0,-1e-05,-0.00012,-0.00013,0.00035,4e-05,-1e-05,2e-05,5,16
21663,0,-1e-05,-0.00012,-0.00013,0.00035,4e-05,-1e-05,2e-05,5,16
21664,0,-1e-05,-0.00012,-0.00013,0.00035,4e-05,-1e-05,2e-05,5,16
21665,0,-1e-05,-0.00012,-0.00013,0.00035,4e-05,-1e-05,2e-05,5,16
21666,0,-1e-05,-0.00012,-0.00013,0.00035,4e-05,-1e-05,2e-05,5,16
21667,0,-1e-05,-0.00012,-0.00013,0.00035,4e-05,-1e-05,2e-05,5,16
21668,0.00013,0.00017,0.00034,0.00034,0.00016,0.00041,0.00012,6e-05,5,16
21669,-3e-05,6e-05,0.0001,-8e-05,9e-05,0.0001,-1e-05,-4e-05,5,16
21670,-3e-05,6e-05,0.0001,-8e-05,9e-05,0.0001,-1e-05,-4e-05,5,16
21671,-3e-05,6e-05,0.0001,-8e-05,9e-05,0.0001,-1e-05,-4e-05,5,16
21672,-3e-05,6e-05,0.0001,-8e-05,9e-05,0.0001,-1e-05,-4e-05,5,16
21673,-3e-05,6e-05,0.0001,-8e-05,9e-05,0.0001,-1e-05,-4e-05,5,16
21674,-3e-05,6e-05,0.0001,-8e-05,9e-05,0.0001,-1e-05,-4e-05,5,16
21675,5e-05,-2e-05,2e-05,-7e-05,-0.00023,-1e-05,1e-05,-2e-05,5,16
21676,5e-05,-2e-05,2e-05,-7e-05,-0.00023,-1e-05,1e-05,-2e-05,5,16
21677,5e-05,-2e-05,2e-05,-7e-05,-0.00023,-1e-05,1e-05,-2e-05,5,16
21678,5e-05,-2e-05,2e-05,-7e-05,-0.00023,-1e-05,1e-05,-2e-05,5,16
21679,5e-05,-2e-05,2e-05,-7e-05,-0.00023,-1e-05,1e-05,-2e-05,5,16
21680,5e-05,-2e-05,2e-05,-7e-05,-0.00023,-1e-05,1e-05,-2e-05,5,16
21681,5e-05,-2e-05,2e-05,-7e-05,-0.00023,-1e-05,1e-05,-2e-05,5,16
21682,5e-05,-2e-05,2e-05,-7e-05,-0.00023,-1e-05,1e-05,-2e-05,5,16
21683,5e-05,-2e-05,2e-05,-7e-05,-0.00023,-1e-05,1e-05,-2e-05,5,16
21684,5e-05,-2e-05,2e-05,-7e-05,-0.00023,-1e-05,1e-05,-2e-05,5,16
21685,5e-05,-2e-05,2e-05,-7e-05,-0.00023,-1e-05,1e-05,-2e-05,5,16
21686,5e-05,-2e-05,2e-05,-7e-05,-0.00023,-1e-05,1e-05,-2e-05,5,16
21688,5e-05,-2e-05,2e-05,-7e-05,-0.00023,-1e-05,1e-05,-2e-05,5,16
21689,5e-05,-2e-05,2e-05,-7e-05,-0.00023,-1e-05,1e-05,-2e-05,5,16
21690,5e-05,-2e-05,2e-05,-7e-05,-0.00023,-1e-05,1e-05,-2e-05,5,16
21691,5e-05,-2e-05,2e-05,-7e-05,-0.00023,-1e-05,1e-05,-2e-05,5,16
21692,-4e-05,3e-05,4e-05,-0.00016,-2e-05,-0.00012,-1e-05,-1e-05,5,16
21693,-4e-05,3e-05,4e-05,-0.00016,-2e-05,-0.00012,-1e-05,-1e-05,5,16
21694,-4e-05,3e-05,4e-05,-0.00016,-2e-05,-0.00012,-1e-05,-1e-05,5,16
21695,-4e-05,3e-05,4e-05,-0.00016,-2e-05,-0.00012,-1e-05,-1e-05,5,16
21696,-4e-05,3e-05,4e-05,-0.00016,-2e-05,-0.00012,-1e-05,-1e-05,5,16
21697,-4e-05,3e-05,4e-05,-0.00016,-2e-05,-0.00012,-1e-05,-1e-05,5,16
21698,2e-05,2e-05,-7e-05,-0.00014,3e-05,5e-05,-3e-05,0,5,16
21699,2e-05,2e-05,-7e-05,-0.00014,3e-05,5e-05,-3e-05,0,5,16
21700,2e-05,2e-05,-7e-05,-0.00014,3e-05,5e-05,-3e-05,0,5,16
21701,2e-05,2e-05,-7e-05,-0.00014,3e-05,5e-05,-3e-05,0,5,16
21702,2e-05,2e-05,-7e-05,-0.00014,3e-05,5e-05,-3e-05,0,5,16
21703,2e-05,2e-05,-7e-05,-0.00014,3e-05,5e-05,-3e-05,0,5,16
21704,2e-05,2e-05,-7e-05,-0.00014,3e-05,5e-05,-3e-05,0,5,16
21705,-3e-05,0.00011,0.00017,0.00022,0.00016,0.00028,0.00011,4e-05,5,16
21706,1e-05,4e-05,1e-05,1e-05,-0.00021,-0.00023,-4e-05,-1e-05,5,16
21707,1e-05,4e-05,1e-05,1e-05,-0.00021,-0.00023,-4e-05,-1e-05,5,16
21708,1e-05,4e-05,1e-05,1e-05,-0.00021,-0.00023,-4e-05,-1e-05,5,16
21709,1e-05,4e-05,1e-05,1e-05,-0.00021,-0.00023,-4e-05,-1e-05,5,16
21710,1e-05,4e-05,1e-05,1e-05,-0.00021,-0.00023,-4e-05,-1e-05,5,16
21711,1e-05,4e-05,1e-05,1e-05,-0.00021,-0.00023,-4e-05,-1e-05,5,16
21712,1e-05,4e-05,1e-05,1e-05,-0.00021,-0.00023,-4e-05,-1e-05,5,16
21713,1e-05,4e-05,1e-05,1e-05,-0.00021,-0.00023,-4e-05,-1e-05,5,16
21714,-1e-05,-9e-05,-2e-05,2e-05,-0.00022,-0.00021,-0.00011,-5e-05,5,16
21715,-1e-05,-9e-05,-2e-05,2e-05,-0.00022,-0.00021,-0.00011,-5e-05,5,16
21716,-1e-05,-9e-05,-2e-05,2e-05,-0.00022,-0.00021,-0.00011,-5e-05,5,16
21717,-1e-05,-9e-05,-2e-05,2e-05,-0.00022,-0.00021,-0.00011,-5e-05,5,16
21718,-1e-05,-9e-05,-2e-05,2e-05,-0.00022,-0.00021,-0.00011,-5e-05,5,16
21719,-1e-05,-9e-05,-2e-05,2e-05,-0.00022,-0.00021,-0.00011,-5e-05,5,16
21720,-1e-05,-9e-05,-2e-05,2e-05,-0.00022,-0.00021,-0.00011,-5e-05,5,16
21721,-1e-05,-9e-05,-2e-05,2e-05,-0.00022,-0.00021,-0.00011,-5e-05,5,16
21722,-1e-05,-9e-05,-2e-05,2e-05,-0.00022,-0.00021,-0.00011,-5e-05,5,16
21723,-1e-05,-9e-05,-2e-05,2e-05,-0.00022,-0.00021,-0.00011,-5e-05,5,16
21724,-1e-05,-9e-05,-2e-05,2e-05,-0.00022,-0.00021,-0.00011,-5e-05,5,16
21725,-1e-05,-9e-05,-2e-05,2e-05,-0.00022,-0.00021,-0.00011,-5e-05,5,16
21726,-1e-05,-9e-05,-2e-05,2e-05,-0.00022,-0.00021,-0.00011,-5e-05,5,16
21727,-1e-05,-9e-05,-2e-05,2e-05,-0.00022,-0.00021,-0.00011,-5e-05,5,16
21728,-1e-05,-9e-05,-2e-05,2e-05,-0.00022,-0.00021,-0.00011,-5e-05,5,16
21729,5e-05,7e-05,0.00012,0.00019,0,0.0003,8e-05,1e-05,5,16
21730,5e-05,7e-05,0.00012,0.00019,0,0.0003,8e-05,1e-05,5,16
21731,3e-05,-9e-05,-0.00028,-0.00019,-0.00029,-0.00022,-8e-05,-3e-05,5,16
21732,3e-05,-9e-05,-0.00028,-0.00019,-0.00029,-0.00022,-8e-05,-3e-05,5,16
21733,3e-05,-9e-05,-0.00028,-0.00019,-0.00029,-0.00022,-8e-05,-3e-05,5,16
21734,3e-05,-9e-05,-0.00028,-0.00019,-0.00029,-0.00022,-8e-05,-3e-05,5,16
21735,3e-05,-9e-05,-0.00028,-0.00019,-0.00029,-0.00022,-8e-05,-3e-05,5,16
21736,3e-05,-9e-05,-0.00028,-0.00019,-0.00029,-0.00022,-8e-05,-3e-05,5,16
21738,3e-05,-9e-05,-0.00028,-0.00019,-0.00029,-0.00022,-8e-05,-3e-05,5,16
21739,3e-05,-9e-05,-0.00028,-0.00019,-0.00029,-0.00022,-8e-05,-3e-05,5,16
21740,3e-05,-9e-05,-0.00028,-0.00019,-0.00029,-0.00022,-8e-05,-3e-05,5,16
21741,3e-05,-9e-05,-0.00028,-0.00019,-0.00029,-0.00022,-8e-05,-3e-05,5,16
21742,3e-05,-9e-05,-0.00028,-0.00019,-0.00029,-0.00022,-8e-05,-3e-05,5,16
21743,3e-05,-9e-05,-0.00028,-0.00019,-0.00029,-0.00022,-8e-05,-3e-05,5,16
21744,3e-05,-9e-05,-0.00028,-0.00019,-0.00029,-0.00022,-8e-05,-3e-05,5,16
21745,3e-05,-9e-05,-0.00028,-0.00019,-0.00029,-0.00022,-8e-05,-3e-05,5,16
21746,3e-05,-9e-05,-0.00028,-0.00019,-0.00029,-0.00022,-8e-05,-3e-05,5,16
21747,3e-05,-9e-05,-0.00028,-0.00019,-0.00029,-0.00022,-8e-05,-3e-05,5,16
21748,3e-05,-9e-05,-0.00028,-0.00019,-0.00029,-0.00022,-8e-05,-3e-05,5,16
21749,3e-05,-9e-05,-0.00028,-0.00019,-0.00029,-0.00022,-8e-05,-3e-05,5,16
21750,3e-05,-9e-05,-0.00028,-0.00019,-0.00029,-0.00022,-8e-05,-3e-05,5,16
21751,3e-05,-9e-05,-0.00028,-0.00019,-0.00029,-0.00022,-8e-05,-3e-05,5,16
21752,-0.00016,-0.00023,-0.00059,6e-05,0.0002,0,-2e-05,-5e-05,5,16
21753,-3e-05,-1e-05,-6e-05,-0.00049,-0.00039,-9e-05,2e-05,0,5,16
21754,-3e-05,-1e-05,-6e-05,-0.00049,-0.00039,-9e-05,2e-05,0,5,16
21755,-3e-05,-1e-05,-6e-05,-0.00049,-0.00039,-9e-05,2e-05,0,5,16
21756,-3e-05,-1e-05,-6e-05,-0.00049,-0.00039,-9e-05,2e-05,0,5,16
21757,-3e-05,-1e-05,-6e-05,-0.00049,-0.00039,-9e-05,2e-05,0,5,16
21758,-3e-05,-1e-05,-6e-05,-0.00049,-0.00039,-9e-05,2e-05,0,5,16
21759,-3e-05,-1e-05,-6e-05,-0.00049,-0.00039,-9e-05,2e-05,0,5,16
21760,-3e-05,-1e-05,-6e-05,-0.00049,-0.00039,-9e-05,2e-05,0,5,16
21761,-3e-05,-1e-05,-6e-05,-0.00049,-0.00039,-9e-05,2e-05,0,5,16
21762,-3e-05,-1e-05,-6e-05,-0.00049,-0.00039,-9e-05,2e-05,0,5,16
21763,-3e-05,-1e-05,-6e-05,-0.00049,-0.00039,-9e-05,2e-05,0,5,16
21764,-3e-05,-1e-05,-6e-05,-0.00049,-0.00039,-9e-05,2e-05,0,5,16
21765,-1e-05,6e-05,0.00019,0.00015,0.00035,-2e-05,1e-05,0,5,16
21766,-1e-05,6e-05,0.00019,0.00015,0.00035,-2e-05,1e-05,0,5,16
21767,-1e-05,6e-05,0.00019,0.00015,0.00035,-2e-05,1e-05,0,5,16
21768,-1e-05,6e-05,0.00019,0.00015,0.00035,-2e-05,1e-05,0,5,16
21769,-1e-05,6e-05,0.00019,0.00015,0.00035,-2e-05,1e-05,0,5,16
21770,-1e-05,6e-05,0.00019,0.00015,0.00035,-2e-05,1e-05,0,5,16
21771,-1e-05,6e-05,0.00019,0.00015,0.00035,-2e-05,1e-05,0,5,16
21772,-1e-05,6e-05,0.00019,0.00015,0.00035,-2e-05,1e-05,0,5,16
21773,-1e-05,6e-05,0.00019,0.00015,0.00035,-2e-05,1e-05,0,5,16
21774,6e-05,0.00013,0.00013,-7e-05,5e-05,0.00019,0.00013,5e-05,5,16
21775,6e-05,0.00013,0.00013,-7e-05,5e-05,0.00019,0.00013,5e-05,5,16
21776,6e-05,0.00013,0.00013,-7e-05,5e-05,0.00019,0.00013,5e-05,5,16
21777,6e-05,0.00013,0.00013,-7e-05,5e-05,0.00019,0.00013,5e-05,5,16
21778,6e-05,0.00013,0.00013,-7e-05,5e-05,0.00019,0.00013,5e-05,5,16
21779,6e-05,0.00013,0.00013,-7e-05,5e-05,0.00019,0.00013,5e-05,5,16
21780,6e-05,0.00013,0.00013,-7e-05,5e-05,0.00019,0.00013,5e-05,5,16
21781,6e-05,0.00013,0.00013,-7e-05,5e-05,0.00019,0.00013,5e-05,5,16
21782,6e-05,0.00013,0.00013,-7e-05,5e-05,0.00019,0.00013,5e-05,5,16
21783,6e-05,0.00013,0.00013,-7e-05,5e-05,0.00019,0.00013,5e-05,5,16
21784,6e-05,0.00013,0.00013,-7e-05,5e-05,0.00019,0.00013,5e-05,5,16
21785,6e-05,0.00013,0.00013,-7e-05,5e-05,0.00019,0.00013,5e-05,5,16
21786,6e-05,0.00013,0.00013,-7e-05,5e-05,0.00019,0.00013,5e-05,5,16
21788,6e-05,0.00013,0.00013,-7e-05,5e-05,0.00019,0.00013,5e-05,5,16
21789,6e-05,0.00013,0.00013,-7e-05,5e-05,0.00019,0.00013,5e-05,5,16
21790,2e-05,5e-05,0.00019,-3e-05,-4e-05,-6e-05,-1e-05,2e-05,5,16
21791,7e-05,7e-05,0.00012,0.00022,6e-05,-4e-05,1e-05,-2e-05,5,16
21792,7e-05,7e-05,0.00012,0.00022,6e-05,-4e-05,1e-05,-2e-05,5,16
21793,7e-05,7e-05,0.00012,0.00022,6e-05,-4e-05,1e-05,-2e-05,5,16
21794,7e-05,7e-05,0.00012,0.00022,6e-05,-4e-05,1e-05,-2e-05,5,16
21795,7e-05,7e-05,0.00012,0.00022,6e-05,-4e-05,1e-05,-2e-05,5,16
21796,7e-05,7e-05,0.00012,0.00022,6e-05,-4e-05,1e-05,-2e-05,5,16
21797,7e-05,7e-05,0.00012,0.00022,6e-05,-4e-05,1e-05,-2e-05,5,16
21798,7e-05,7e-05,0.00012,0.00022,6e-05,-4e-05,1e-05,-2e-05,5,16
21799,7e-05,7e-05,0.00012,0.00022,6e-05,-4e-05,1e-05,-2e-05,5,16
21800,7e-05,7e-05,0.00012,0.00022,6e-05,-4e-05,1e-05,-2e-05,5,16
21801,7e-05,7e-05,0.00012,0.00022,6e-05,-4e-05,1e-05,-2e-05,5,16
21802,7e-05,7e-05,0.00012,0.00022,6e-05,-4e-05,1e-05,-2e-05,5,16
21803,7e-05,7e-05,0.00012,0.00022,6e-05,-4e-05,1e-05,-2e-05,5,16
21804,7e-05,7e-05,0.00012,0.00022,6e-05,-4e-05,1e-05,-2e-05,5,16
21805,7e-05,7e-05,0.00012,0.00022,6e-05,-4e-05,1e-05,-2e-05,5,16
21806,7e-05,7e-05,0.00012,0.00022,6e-05,-4e-05,1e-05,-2e-05,5,16
21807,7e-05,7e-05,0.00012,0.00022,6e-05,-4e-05,1e-05,-2e-05,5,16
21808,7e-05,7e-05,0.00012,0.00022,6e-05,-4e-05,1e-05,-2e-05,5,16
21809,7e-05,7e-05,0.00012,0.00022,6e-05,-4e-05,1e-05,-2e-05,5,16
21810,7e-05,7e-05,0.00012,0.00022,6e-05,-4e-05,1e-05,-2e-05,5,16
21811,7e-05,7e-05,0.00012,0.00022,6e-05,-4e-05,1e-05,-2e-05,5,16
21812,-0.00014,2e-05,0.00011,0.0002,0.00014,1e-05,2e-05,-2e-05,5,16
21813,-8e-05,-8e-05,-9e-05,-0.00039,-0.00019,-1e-05,-2e-05,0,5,16
21814,-8e-05,-8e-05,-9e-05,-0.00039,-0.00019,-1e-05,-2e-05,0,5,16
21815,-8e-05,-8e-05,-9e-05,-0.00039,-0.00019,-1e-05,-2e-05,0,5,16
21816,-8e-05,-8e-05,-9e-05,-0.00039,-0.00019,-1e-05,-2e-05,0,5,16
21817,-8e-05,-8e-05,-9e-05,-0.00039,-0.00019,-1e-05,-2e-05,0,5,16
21818,-8e-05,-8e-05,-9e-05,-0.00039,-0.00019,-1e-05,-2e-05,0,5,16
21819,-8e-05,-8e-05,-9e-05,-0.00039,-0.00019,-1e-05,-2e-05,0,5,16
21820,-8e-05,-8e-05,-9e-05,-0.00039,-0.00019,-1e-05,-2e-05,0,5,16
21821,-8e-05,-8e-05,-9e-05,-0.00039,-0.00019,-1e-05,-2e-05,0,5,16
21822,-8e-05,-8e-05,-9e-05,-0.00039,-0.00019,-1e-05,-2e-05,0,5,16
21823,-8e-05,-8e-05,-9e-05,-0.00039,-0.00019,-1e-05,-2e-05,0,5,16
21824,-8e-05,-8e-05,-9e-05,-0.00039,-0.00019,-1e-05,-2e-05,0,5,16
21825,-2e-05,2e-05,4e-05,0.00039,-2e-05,-0.00036,-0.00017,-7e-05,5,16
21826,-2e-05,2e-05,4e-05,0.00039,-2e-05,-0.00036,-0.00017,-7e-05,5,16
21827,-2e-05,2e-05,4e-05,0.00039,-2e-05,-0.00036,-0.00017,-7e-05,5,16
21828,-2e-05,2e-05,4e-05,0.00039,-2e-05,-0.00036,-0.00017,-7e-05,5,16
21829,-2e-05,2e-05,4e-05,0.00039,-2e-05,-0.00036,-0.00017,-7e-05,5,16
21830,-2e-05,2e-05,4e-05,0.00039,-2e-05,-0.00036,-0.00017,-7e-05,5,16
21831,-2e-05,2e-05,4e-05,0.00039,-2e-05,-0.00036,-0.00017,-7e-05,5,16
21832,-2e-05,2e-05,4e-05,0.00039,-2e-05,-0.00036,-0.00017,-7e-05,5,16
21833,-2e-05,2e-05,4e-05,0.00039,-2e-05,-0.00036,-0.00017,-7e-05,5,16
21834,-9e-05,-0.00011,-0.00012,0.0002,0.00011,-8e-05,-9e-05,-6e-05,5,16
21835,-9e-05,-0.00011,-0.00012,0.0002,0.00011,-8e-05,-9e-05,-6e-05,5,16
21836,-9e-05,-0.00011,-0.00012,0.0002,0.00011,-8e-05,-9e-05,-6e-05,5,16
21838,-9e-05,-0.00011,-0.00012,0.0002,0.00011,-8e-05,-9e-05,-6e-05,5,16
21839,-9e-05,-0.00011,-0.00012,0.0002,0.00011,-8e-05,-9e-05,-6e-05,5,16
21840,-9e-05,-0.00011,-0.00012,0.0002,0.00011,-8e-05,-9e-05,-6e-05,5,16
21841,-9e-05,-0.00011,-0.00012,0.0002,0.00011,-8e-05,-9e-05,-6e-05,5,16
21842,-9e-05,-0.00011,-0.00012,0.0002,0.00011,-8e-05,-9e-05,-6e-05,5,16
21843,-9e-05,-0.00011,-0.00012,0.0002,0.00011,-8e-05,-9e-05,-6e-05,5,16
21844,-9e-05,-0.00011,-0.00012,0.0002,0.00011,-8e-05,-9e-05,-6e-05,5,16
21845,-9e-05,-0.00011,-0.00012,0.0002,0.00011,-8e-05,-9e-05,-6e-05,5,16
21846,-9e-05,-0.00011,-0.00012,0.0002,0.00011,-8e-05,-9e-05,-6e-05,5,16
21847,-9e-05,-0.00011,-0.00012,0.0002,0.00011,-8e-05,-9e-05,-6e-05,5,16
21848,-9e-05,-0.00011,-0.00012,0.0002,0.00011,-8e-05,-9e-05,-6e-05,5,16
21849,-9e-05,-0.00011,-0.00012,0.0002,0.00011,-8e-05,-9e-05,-6e-05,5,16
21850,0,1e-05,0.00017,-0.00024,-0.00032,-0.00015,-4e-05,0,5,16
21851,-3e-05,-3e-05,6e-05,0.00027,0.00017,0.00011,2e-05,-2e-05,5,16
21852,-3e-05,-3e-05,6e-05,0.00027,0.00017,0.00011,2e-05,-2e-05,5,16
21853,-3e-05,-3e-05,6e-05,0.00027,0.00017,0.00011,2e-05,-2e-05,5,16
21854,-3e-05,-3e-05,6e-05,0.00027,0.00017,0.00011,2e-05,-2e-05,5,16
21855,-3e-05,-3e-05,6e-05,0.00027,0.00017,0.00011,2e-05,-2e-05,5,16
21856,-3e-05,-3e-05,6e-05,0.00027,0.00017,0.00011,2e-05,-2e-05,5,16
21857,-3e-05,-3e-05,6e-05,0.00027,0.00017,0.00011,2e-05,-2e-05,5,16
21858,-3e-05,-3e-05,6e-05,0.00027,0.00017,0.00011,2e-05,-2e-05,5,16
21859,-3e-05,-3e-05,6e-05,0.00027,0.00017,0.00011,2e-05,-2e-05,5,16
21860,-3e-05,-3e-05,6e-05,0.00027,0.00017,0.00011,2e-05,-2e-05,5,16
21861,-3e-05,-3e-05,6e-05,0.00027,0.00017,0.00011,2e-05,-2e-05,5,16
21862,-3e-05,-3e-05,6e-05,0.00027,0.00017,0.00011,2e-05,-2e-05,5,16
21863,-3e-05,-3e-05,6e-05,0.00027,0.00017,0.00011,2e-05,-2e-05,5,16
21864,-3e-05,-3e-05,6e-05,0.00027,0.00017,0.00011,2e-05,-2e-05,5,16
21865,-3e-05,-3e-05,6e-05,0.00027,0.00017,0.00011,2e-05,-2e-05,5,16
21866,-3e-05,-3e-05,6e-05,0.00027,0.00017,0.00011,2e-05,-2e-05,5,16
21867,-3e-05,-3e-05,6e-05,0.00027,0.00017,0.00011,2e-05,-2e-05,5,16
21868,-3e-05,-3e-05,6e-05,0.00027,0.00017,0.00011,2e-05,-2e-05,5,16
21869,-3e-05,-3e-05,6e-05,0.00027,0.00017,0.00011,2e-05,-2e-05,5,16
21870,-3e-05,-3e-05,6e-05,0.00027,0.00017,0.00011,2e-05,-2e-05,5,16
21871,-3e-05,-3e-05,6e-05,0.00027,0.00017,0.00011,2e-05,-2e-05,5,16
21872,-3e-05,-3e-05,6e-05,0.00027,0.00017,0.00011,2e-05,-2e-05,5,16
21873,-3e-05,-3e-05,6e-05,0.00027,0.00017,0.00011,2e-05,-2e-05,5,16
21874,-3e-05,-3e-05,6e-05,0.00027,0.00017,0.00011,2e-05,-2e-05,5,16
21875,-3e-05,-3e-05,6e-05,0.00027,0.00017,0.00011,2e-05,-2e-05,5,16
21876,-3e-05,-3e-05,6e-05,0.00027,0.00017,0.00011,2e-05,-2e-05,5,16
21877,-3e-05,-3e-05,6e-05,0.00027,0.00017,0.00011,2e-05,-2e-05,5,16
21878,-3e-05,-3e-05,6e-05,0.00027,0.00017,0.00011,2e-05,-2e-05,5,16
21879,5e-05,1e-05,8e-05,0.00062,0.00028,0.00033,0.00012,0,5,16
21880,5e-05,1e-05,8e-05,0.00062,0.00028,0.00033,0.00012,0,5,16
21881,-6e-05,1e-05,2e-05,4e-05,-1e-05,4e-05,-2e-05,-4e-05,5,16
21882,-6e-05,1e-05,2e-05,4e-05,-1e-05,4e-05,-2e-05,-4e-05,5,16
21883,-6e-05,1e-05,2e-05,4e-05,-1e-05,4e-05,-2e-05,-4e-05,5,16
21884,-6e-05,1e-05,2e-05,4e-05,-1e-05,4e-05,-2e-05,-4e-05,5,16
21885,0.00015,6e-05,6e-05,0.00055,0.00064,6e-05,2e-05,7e-05,5,16
21886,0.00015,6e-05,6e-05,0.00055,0.00064,6e-05,2e-05,7e-05,5,16
21888,0.00015,6e-05,6e-05,0.00055,0.00064,6e-05,2e-05,7e-05,5,16
21889,0.00015,6e-05,6e-05,0.00055,0.00064,6e-05,2e-05,7e-05,5,16
21890,0.00015,6e-05,6e-05,0.00055,0.00064,6e-05,2e-05,7e-05,5,16
21891,0.00015,6e-05,6e-05,0.00055,0.00064,6e-05,2e-05,7e-05,5,16
21892,0.00015,6e-05,6e-05,0.00055,0.00064,6e-05,2e-05,7e-05,5,16
21893,0.00015,6e-05,6e-05,0.00055,0.00064,6e-05,2e-05,7e-05,5,16
21894,0.00011,-1e-05,-6e-05,-0.00033,-0.00028,-6e-05,-4e-05,0,5,16
21895,0.00011,-1e-05,-6e-05,-0.00033,-0.00028,-6e-05,-4e-05,0,5,16
21896,0.00011,-1e-05,-6e-05,-0.00033,-0.00028,-6e-05,-4e-05,0,5,16
21897,0.00011,-1e-05,-6e-05,-0.00033,-0.00028,-6e-05,-4e-05,0,5,16
21898,0.00011,-1e-05,-6e-05,-0.00033,-0.00028,-6e-05,-4e-05,0,5,16
21899,0.00011,-1e-05,-6e-05,-0.00033,-0.00028,-6e-05,-4e-05,0,5,16
21900,0.00011,-1e-05,-6e-05,-0.00033,-0.00028,-6e-05,-4e-05,0,5,16
21901,0.00011,-1e-05,-6e-05,-0.00033,-0.00028,-6e-05,-4e-05,0,5,16
21902,0.00011,-1e-05,-6e-05,-0.00033,-0.00028,-6e-05,-4e-05,0,5,16
21903,0.00011,-1e-05,-6e-05,-0.00033,-0.00028,-6e-05,-4e-05,0,5,16
21904,0.00011,-1e-05,-6e-05,-0.00033,-0.00028,-6e-05,-4e-05,0,5,16
21905,0.00011,-1e-05,-6e-05,-0.00033,-0.00028,-6e-05,-4e-05,0,5,16
21906,0.00011,-1e-05,-6e-05,-0.00033,-0.00028,-6e-05,-4e-05,0,5,16
21907,0.00011,-1e-05,-6e-05,-0.00033,-0.00028,-6e-05,-4e-05,0,5,16
21908,0.00011,-1e-05,-6e-05,-0.00033,-0.00028,-6e-05,-4e-05,0,5,16
21909,-1e-05,0,-1e-05,-0.00044,-0.00033,-0.00029,-3e-05,-4e-05,5,16
21910,-1e-05,0,-1e-05,-0.00044,-0.00033,-0.00029,-3e-05,-4e-05,5,16
21911,2e-05,2e-05,-8e-05,-0.0001,0.00024,1e-05,1e-05,3e-05,5,16
21912,2e-05,2e-05,-8e-05,-0.0001,0.00024,1e-05,1e-05,3e-05,5,16
21913,2e-05,2e-05,-8e-05,-0.0001,0.00024,1e-05,1e-05,3e-05,5,16
21914,2e-05,2e-05,-8e-05,-0.0001,0.00024,1e-05,1e-05,3e-05,5,16
21915,2e-05,2e-05,-8e-05,-0.0001,0.00024,1e-05,1e-05,3e-05,5,16
21916,2e-05,2e-05,-8e-05,-0.0001,0.00024,1e-05,1e-05,3e-05,5,16
21917,2e-05,2e-05,-8e-05,-0.0001,0.00024,1e-05,1e-05,3e-05,5,16
21918,2e-05,2e-05,-8e-05,-0.0001,0.00024,1e-05,1e-05,3e-05,5,16
21919,2e-05,2e-05,-8e-05,-0.0001,0.00024,1e-05,1e-05,3e-05,5,16
21920,2e-05,2e-05,-8e-05,-0.0001,0.00024,1e-05,1e-05,3e-05,5,16
21921,2e-05,2e-05,-8e-05,-0.0001,0.00024,1e-05,1e-05,3e-05,5,16
21922,2e-05,2e-05,-8e-05,-0.0001,0.00024,1e-05,1e-05,3e-05,5,16
21923,2e-05,2e-05,-8e-05,-0.0001,0.00024,1e-05,1e-05,3e-05,5,16
21924,2e-05,2e-05,-8e-05,-0.0001,0.00024,1e-05,1e-05,3e-05,5,16
21925,2e-05,2e-05,-8e-05,-0.0001,0.00024,1e-05,1e-05,3e-05,5,16
21926,2e-05,2e-05,-8e-05,-0.0001,0.00024,1e-05,1e-05,3e-05,5,16
21927,2e-05,2e-05,-8e-05,-0.0001,0.00024,1e-05,1e-05,3e-05,5,16
21928,2e-05,2e-05,-8e-05,-0.0001,0.00024,1e-05,1e-05,3e-05,5,16
21929,2e-05,2e-05,-8e-05,-0.0001,0.00024,1e-05,1e-05,3e-05,5,16
21930,2e-05,2e-05,-8e-05,-0.0001,0.00024,1e-05,1e-05,3e-05,5,16
21931,2e-05,2e-05,-8e-05,-0.0001,0.00024,1e-05,1e-05,3e-05,5,16
21932,-8e-05,-0.00011,-0.00015,3e-05,-3e-05,-2e-05,-5e-05,0,5,16
21933,-2e-05,7e-05,7e-05,0,-0.00033,-0.0002,-3e-05,-2e-05,5,16
21934,-2e-05,7e-05,7e-05,0,-0.00033,-0.0002,-3e-05,-2e-05,5,16
21935,-2e-05,7e-05,7e-05,0,-0.00033,-0.0002,-3e-05,-2e-05,5,16
21936,-2e-05,7e-05,7e-05,0,-0.00033,-0.0002,-3e-05,-2e-05,5,16
21938,-2e-05,7e-05,7e-05,0,-0.00033,-0.0002,-3e-05,-2e-05,5,16
21939,-2e-05,7e-05,7e-05,0,-0.00033,-0.0002,-3e-05,-2e-05,5,16
21940,-2e-05,7e-05,7e-05,0,-0.00033,-0.0002,-3e-05,-2e-05,5,16
21941,-2e-05,7e-05,7e-05,0,-0.00033,-0.0002,-3e-05,-2e-05,5,16
21942,-2e-05,7e-05,7e-05,0,-0.00033,-0.0002,-3e-05,-2e-05,5,16
21943,-2e-05,7e-05,7e-05,0,-0.00033,-0.0002,-3e-05,-2e-05,5,16
21944,-2e-05,7e-05,7e-05,0,-0.00033,-0.0002,-3e-05,-2e-05,5,16
21945,-5e-05,2e-05,8e-05,-3e-05,-6e-05,1e-05,0,-6e-05,5,16
21946,-5e-05,2e-05,8e-05,-3e-05,-6e-05,1e-05,0,-6e-05,5,16
21947,-5e-05,2e-05,8e-05,-3e-05,-6e-05,1e-05,0,-6e-05,5,16
21948,-5e-05,2e-05,8e-05,-3e-05,-6e-05,1e-05,0,-6e-05,5,16
21949,-5e-05,2e-05,8e-05,-3e-05,-6e-05,1e-05,0,-6e-05,5,16
21950,-5e-05,2e-05,8e-05,-3e-05,-6e-05,1e-05,0,-6e-05,5,16
21951,-5e-05,2e-05,8e-05,-3e-05,-6e-05,1e-05,0,-6e-05,5,16
21952,-5e-05,2e-05,8e-05,-3e-05,-6e-05,1e-05,0,-6e-05,5,16
21953,-5e-05,2e-05,8e-05,-3e-05,-6e-05,1e-05,0,-6e-05,5,16
21954,-4e-05,-8e-05,0,0.00016,0.0002,4e-05,0,-1e-05,5,16
21955,-4e-05,-8e-05,0,0.00016,0.0002,4e-05,0,-1e-05,5,16
21956,-4e-05,-8e-05,0,0.00016,0.0002,4e-05,0,-1e-05,5,16
21957,-4e-05,-8e-05,0,0.00016,0.0002,4e-05,0,-1e-05,5,16
21958,-4e-05,-8e-05,0,0.00016,0.0002,4e-05,0,-1e-05,5,16
21959,-4e-05,-8e-05,0,0.00016,0.0002,4e-05,0,-1e-05,5,16
21960,-4e-05,-8e-05,0,0.00016,0.0002,4e-05,0,-1e-05,5,16
21961,-4e-05,-8e-05,0,0.00016,0.0002,4e-05,0,-1e-05,5,16
21962,-4e-05,-8e-05,0,0.00016,0.0002,4e-05,0,-1e-05,5,16
21963,-4e-05,-8e-05,0,0.00016,0.0002,4e-05,0,-1e-05,5,16
21964,-4e-05,-8e-05,0,0.00016,0.0002,4e-05,0,-1e-05,5,16
21965,-4e-05,-8e-05,0,0.00016,0.0002,4e-05,0,-1e-05,5,16
21966,-4e-05,-8e-05,0,0.00016,0.0002,4e-05,0,-1e-05,5,16
21967,-4e-05,-8e-05,0,0.00016,0.0002,4e-05,0,-1e-05,5,16
21968,-4e-05,-8e-05,0,0.00016,0.0002,4e-05,0,-1e-05,5,16
21969,-4e-05,-8e-05,0,0.00016,0.0002,4e-05,0,-1e-05,5,16
21970,-3e-05,5e-05,6e-05,0.00011,0.00013,9e-05,7e-05,-1e-05,5,16
21971,-3e-05,5e-05,6e-05,0.00011,0.00013,9e-05,7e-05,-1e-05,5,16
21972,-0.0001,-6e-05,-1e-05,-0.0001,6e-05,-4e-05,-7e-05,-5e-05,5,16
21973,-0.0001,-6e-05,-1e-05,-0.0001,6e-05,-4e-05,-7e-05,-5e-05,5,16
21974,-0.0001,-6e-05,-1e-05,-0.0001,6e-05,-4e-05,-7e-05,-5e-05,5,16
21975,-0.0001,-6e-05,-1e-05,-0.0001,6e-05,-4e-05,-7e-05,-5e-05,5,16
21976,-0.0001,-6e-05,-1e-05,-0.0001,6e-05,-4e-05,-7e-05,-5e-05,5,16
21977,-0.0001,-6e-05,-1e-05,-0.0001,6e-05,-4e-05,-7e-05,-5e-05,5,16
21978,-0.0001,-6e-05,-1e-05,-0.0001,6e-05,-4e-05,-7e-05,-5e-05,5,16
21979,-0.0001,-6e-05,-1e-05,-0.0001,6e-05,-4e-05,-7e-05,-5e-05,5,16
21980,-0.0001,-6e-05,-1e-05,-0.0001,6e-05,-4e-05,-7e-05,-5e-05,5,16
21981,-0.0001,-6e-05,-1e-05,-0.0001,6e-05,-4e-05,-7e-05,-5e-05,5,16
21982,-0.0001,-6e-05,-1e-05,-0.0001,6e-05,-4e-05,-7e-05,-5e-05,5,16
21983,-0.0001,-6e-05,-1e-05,-0.0001,6e-05,-4e-05,-7e-05,-5e-05,5,16
21984,-0.0001,-6e-05,-1e-05,-0.0001,6e-05,-4e-05,-7e-05,-5e-05,5,16
21985,-0.0001,-6e-05,-1e-05,-0.0001,6e-05,-4e-05,-7e-05,-5e-05,5,16
21986,-0.0001,-6e-05,-1e-05,-0.0001,6e-05,-4e-05,-7e-05,-5e-05,5,16
21988,-0.0001,-6e-05,-1e-05,-0.0001,6e-05,-4e-05,-7e-05,-5e-05,5,16
21989,-0.0001,-6e-05,-1e-05,-0.0001,6e-05,-4e-05,-7e-05,-5e-05,5,16
21991,-0.0001,-6e-05,-1e-05,-0.0001,6e-05,-4e-05,-7e-05,-5e-05,5,16
21992,-1e-05,-5e-05,-4e-05,-0.00023,-0.0001,4e-05,-2e-05,-4e-05,5,16
21993,5e-05,0.00013,0.0001,1e-05,0.00043,0.00016,0.0001,4e-05,5,16
21994,5e-05,0.00013,0.0001,1e-05,0.00043,0.00016,0.0001,4e-05,5,16
21995,5e-05,0.00013,0.0001,1e-05,0.00043,0.00016,0.0001,4e-05,5,16
21996,5e-05,0.00013,0.0001,1e-05,0.00043,0.00016,0.0001,4e-05,5,16
21997,5e-05,0.00013,0.0001,1e-05,0.00043,0.00016,0.0001,4e-05,5,16
21998,5e-05,0.00013,0.0001,1e-05,0.00043,0.00016,0.0001,4e-05,5,16
21999,5e-05,0.00013,0.0001,1e-05,0.00043,0.00016,0.0001,4e-05,5,16
22000,5e-05,0.00013,0.0001,1e-05,0.00043,0.00016,0.0001,4e-05,5,16
22001,5e-05,0.00013,0.0001,1e-05,0.00043,0.00016,0.0001,4e-05,5,16
22002,5e-05,0.00013,0.0001,1e-05,0.00043,0.00016,0.0001,4e-05,5,16
22003,5e-05,0.00013,0.0001,1e-05,0.00043,0.00016,0.0001,4e-05,5,16
22004,5e-05,0.00013,0.0001,1e-05,0.00043,0.00016,0.0001,4e-05,5,16
22005,4e-05,7e-05,4e-05,-0.00043,0.0005,0.00016,1e-05,7e-05,5,16
22006,4e-05,7e-05,4e-05,-0.00043,0.0005,0.00016,1e-05,7e-05,5,16
22007,4e-05,7e-05,4e-05,-0.00043,0.0005,0.00016,1e-05,7e-05,5,16
22008,4e-05,7e-05,4e-05,-0.00043,0.0005,0.00016,1e-05,7e-05,5,16
22009,4e-05,7e-05,4e-05,-0.00043,0.0005,0.00016,1e-05,7e-05,5,16
22010,4e-05,7e-05,4e-05,-0.00043,0.0005,0.00016,1e-05,7e-05,5,16
22011,4e-05,7e-05,4e-05,-0.00043,0.0005,0.00016,1e-05,7e-05,5,16
22012,4e-05,7e-05,4e-05,-0.00043,0.0005,0.00016,1e-05,7e-05,5,16
22013,4e-05,7e-05,4e-05,-0.00043,0.0005,0.00016,1e-05,7e-05,5,16
22014,-1e-05,-0.0001,-0.00018,0.00024,0.0004,9e-05,-4e-05,-4e-05,5,16
22015,-1e-05,-0.0001,-0.00018,0.00024,0.0004,9e-05,-4e-05,-4e-05,5,16
22016,-1e-05,-0.0001,-0.00018,0.00024,0.0004,9e-05,-4e-05,-4e-05,5,16
22017,-1e-05,-0.0001,-0.00018,0.00024,0.0004,9e-05,-4e-05,-4e-05,5,16
22018,-1e-05,-0.0001,-0.00018,0.00024,0.0004,9e-05,-4e-05,-4e-05,5,16
22019,-1e-05,-0.0001,-0.00018,0.00024,0.0004,9e-05,-4e-05,-4e-05,5,16
22020,-1e-05,-0.0001,-0.00018,0.00024,0.0004,9e-05,-4e-05,-4e-05,5,16
22021,-1e-05,-0.0001,-0.00018,0.00024,0.0004,9e-05,-4e-05,-4e-05,5,16
22022,-1e-05,-0.0001,-0.00018,0.00024,0.0004,9e-05,-4e-05,-4e-05,5,16
22023,-1e-05,-0.0001,-0.00018,0.00024,0.0004,9e-05,-4e-05,-4e-05,5,16
22024,-1e-05,-0.0001,-0.00018,0.00024,0.0004,9e-05,-4e-05,-4e-05,5,16
22025,-1e-05,-0.0001,-0.00018,0.00024,0.0004,9e-05,-4e-05,-4e-05,5,16
22026,-1e-05,-0.0001,-0.00018,0.00024,0.0004,9e-05,-4e-05,-4e-05,5,16
22027,-1e-05,-0.0001,-0.00018,0.00024,0.0004,9e-05,-4e-05,-4e-05,5,16
22028,-1e-05,-0.0001,-0.00018,0.00024,0.0004,9e-05,-4e-05,-4e-05,5,16
22029,-7e-05,-0.00012,-0.00029,0.00019,0.00011,-6e-05,-3e-05,-2e-05,5,16
22030,-7e-05,-0.00012,-0.00029,0.00019,0.00011,-6e-05,-3e-05,-2e-05,5,16
22031,0,-7e-05,-0.00019,0.00018,-0.00026,-0.00026,-6e-05,2e-05,5,16
22032,0,-7e-05,-0.00019,0.00018,-0.00026,-0.00026,-6e-05,2e-05,5,16
22033,0,-7e-05,-0.00019,0.00018,-0.00026,-0.00026,-6e-05,2e-05,5,16
22034,0,-7e-05,-0.00019,0.00018,-0.00026,-0.00026,-6e-05,2e-05,5,16
22035,0,-7e-05,-0.00019,0.00018,-0.00026,-0.00026,-6e-05,2e-05,5,16
22036,0,-7e-05,-0.00019,0.00018,-0.00026,-0.00026,-6e-05,2e-05,5,16
22038,0,-7e-05,-0.00019,0.00018,-0.00026,-0.00026,-6e-05,2e-05,5,16
22039,0,-7e-05,-0.00019,0.00018,-0.00026,-0.00026,-6e-05,2e-05,5,16
22040,0,-7e-05,-0.00019,0.00018,-0.00026,-0.00026,-6e-05,2e-05,5,16
22041,0,-7e-05,-0.00019,0.00018,-0.00026,-0.00026,-6e-05,2e-05,5,16
22042,0,-7e-05,-0.00019,0.00018,-0.00026,-0.00026,-6e-05,2e-05,5,16
22043,0,-7e-05,-0.00019,0.00018,-0.00026,-0.00026,-6e-05,2e-05,5,16
22044,0,-7e-05,-0.00019,0.00018,-0.00026,-0.00026,-6e-05,2e-05,5,16
22045,0,-7e-05,-0.00019,0.00018,-0.00026,-0.00026,-6e-05,2e-05,5,16
22046,0,-7e-05,-0.00019,0.00018,-0.00026,-0.00026,-6e-05,2e-05,5,16
22047,0,-7e-05,-0.00019,0.00018,-0.00026,-0.00026,-6e-05,2e-05,5,16
22048,0,-7e-05,-0.00019,0.00018,-0.00026,-0.00026,-6e-05,2e-05,5,16
22049,0,-7e-05,-0.00019,0.00018,-0.00026,-0.00026,-6e-05,2e-05,5,16
22050,0,-7e-05,-0.00019,0.00018,-0.00026,-0.00026,-6e-05,2e-05,5,16
22051,0,-7e-05,-0.00019,0.00018,-0.00026,-0.00026,-6e-05,2e-05,5,16
22052,-6e-05,4e-05,7e-05,0.0002,-2e-05,1e-05,-9e-05,-4e-05,5,16
22053,1e-05,-3e-05,1e-05,0,-2e-05,0.00033,9e-05,-2e-05,5,16
22054,1e-05,-3e-05,1e-05,0,-2e-05,0.00033,9e-05,-2e-05,5,16
22055,1e-05,-3e-05,1e-05,0,-2e-05,0.00033,9e-05,-2e-05,5,16
22056,1e-05,-3e-05,1e-05,0,-2e-05,0.00033,9e-05,-2e-05,5,16
22057,1e-05,-3e-05,1e-05,0,-2e-05,0.00033,9e-05,-2e-05,5,16
22058,1e-05,-3e-05,1e-05,0,-2e-05,0.00033,9e-05,-2e-05,5,16
22059,1e-05,-3e-05,1e-05,0,-2e-05,0.00033,9e-05,-2e-05,5,16
22060,1e-05,-3e-05,1e-05,0,-2e-05,0.00033,9e-05,-2e-05,5,16
22061,1e-05,-3e-05,1e-05,0,-2e-05,0.00033,9e-05,-2e-05,5,16
22062,1e-05,-3e-05,1e-05,0,-2e-05,0.00033,9e-05,-2e-05,5,16
22063,1e-05,-3e-05,1e-05,0,-2e-05,0.00033,9e-05,-2e-05,5,16
22064,1e-05,-3e-05,1e-05,0,-2e-05,0.00033,9e-05,-2e-05,5,16
22065,1e-05,-3e-05,1e-05,0,-2e-05,0.00033,9e-05,-2e-05,5,16
22066,1e-05,-3e-05,1e-05,0,-2e-05,0.00033,9e-05,-2e-05,5,16
22067,1e-05,-3e-05,1e-05,0,-2e-05,0.00033,9e-05,-2e-05,5,16
22068,1e-05,-3e-05,1e-05,0,-2e-05,0.00033,9e-05,-2e-05,5,16
22069,1e-05,-3e-05,1e-05,0,-2e-05,0.00033,9e-05,-2e-05,5,16
22070,1e-05,-3e-05,1e-05,0,-2e-05,0.00033,9e-05,-2e-05,5,16
22071,1e-05,-3e-05,1e-05,0,-2e-05,0.00033,9e-05,-2e-05,5,16
22072,1e-05,-3e-05,1e-05,0,-2e-05,0.00033,9e-05,-2e-05,5,16
22073,1e-05,-3e-05,1e-05,0,-2e-05,0.00033,9e-05,-2e-05,5,16
22074,-0.00016,-5e-05,1e-05,0.00023,-0.00029,-0.00043,-0.00014,-5e-05,5,16
22075,3e-05,1e-05,5e-05,7e-05,-0.0002,-0.0002,1e-05,-4e-05,5,16
22076,6e-05,-2e-05,8e-05,-5e-05,-9e-05,-7e-05,0,4e-05,5,16
22077,6e-05,-2e-05,8e-05,-5e-05,-9e-05,-7e-05,0,4e-05,5,16
22078,6e-05,-2e-05,8e-05,-5e-05,-9e-05,-7e-05,0,4e-05,5,16
22079,6e-05,-2e-05,8e-05,-5e-05,-9e-05,-7e-05,0,4e-05,5,16
22080,6e-05,-2e-05,8e-05,-5e-05,-9e-05,-7e-05,0,4e-05,5,16
22081,6e-05,-2e-05,8e-05,-5e-05,-9e-05,-7e-05,0,4e-05,5,16
22082,6e-05,-2e-05,8e-05,-5e-05,-9e-05,-7e-05,0,4e-05,5,16
22083,6e-05,-2e-05,8e-05,-5e-05,-9e-05,-7e-05,0,4e-05,5,16
22084,6e-05,-2e-05,8e-05,-5e-05,-9e-05,-7e-05,0,4e-05,5,16
22085,6e-05,-2e-05,8e-05,-5e-05,-9e-05,-7e-05,0,4e-05,5,16
22086,6e-05,-2e-05,8e-05,-5e-05,-9e-05,-7e-05,0,4e-05,5,16
22088,6e-05,-2e-05,8e-05,-5e-05,-9e-05,-7e-05,0,4e-05,5,16
22089,-8e-05,-0.00012,-0.00016,-0.00024,-0.00026,7e-05,-3e-05,-7e-05,5,16
22090,-8e-05,-0.00012,-0.00016,-0.00024,-0.00026,7e-05,-3e-05,-7e-05,5,16
22091,1e-05,6e-05,0.00016,0.00046,0.00043,0.00031,9e-05,0,5,16
22092,1e-05,6e-05,0.00016,0.00046,0.00043,0.00031,9e-05,0,5,16
22093,1e-05,6e-05,0.00016,0.00046,0.00043,0.00031,9e-05,0,5,16
22094,1e-05,6e-05,0.00016,0.00046,0.00043,0.00031,9e-05,0,5,16
22095,1e-05,6e-05,0.00016,0.00046,0.00043,0.00031,9e-05,0,5,16
22096,1e-05,6e-05,0.00016,0.00046,0.00043,0.00031,9e-05,0,5,16
22097,1e-05,6e-05,0.00016,0.00046,0.00043,0.00031,9e-05,0,5,16
22098,1e-05,6e-05,0.00016,0.00046,0.00043,0.00031,9e-05,0,5,16
22099,1e-05,6e-05,0.00016,0.00046,0.00043,0.00031,9e-05,0,5,16
22100,1e-05,6e-05,0.00016,0.00046,0.00043,0.00031,9e-05,0,5,16
22101,1e-05,6e-05,0.00016,0.00046,0.00043,0.00031,9e-05,0,5,16
22102,1e-05,6e-05,0.00016,0.00046,0.00043,0.00031,9e-05,0,5,16
22103,1e-05,6e-05,0.00016,0.00046,0.00043,0.00031,9e-05,0,5,16
22104,1e-05,6e-05,0.00016,0.00046,0.00043,0.00031,9e-05,0,5,16
22105,1e-05,6e-05,0.00016,0.00046,0.00043,0.00031,9e-05,0,5,16
22106,1e-05,6e-05,0.00016,0.00046,0.00043,0.00031,9e-05,0,5,16
22107,1e-05,6e-05,0.00016,0.00046,0.00043,0.00031,9e-05,0,5,16
22108,1e-05,6e-05,0.00016,0.00046,0.00043,0.00031,9e-05,0,5,16
22109,1e-05,6e-05,0.00016,0.00046,0.00043,0.00031,9e-05,0,5,16
22110,1e-05,6e-05,0.00016,0.00046,0.00043,0.00031,9e-05,0,5,16
22111,1e-05,6e-05,0.00016,0.00046,0.00043,0.00031,9e-05,0,5,16
22112,2e-05,-1e-05,-0.00026,5e-05,-0.00017,-0.00015,-2e-05,2e-05,5,16
22113,2e-05,-1e-05,-0.00026,5e-05,-0.00017,-0.00015,-2e-05,2e-05,5,16
22114,-5e-05,-2e-05,-3e-05,8e-05,0.00015,-0.00011,-7e-05,-5e-05,5,16
22115,-5e-05,-2e-05,-3e-05,8e-05,0.00015,-0.00011,-7e-05,-5e-05,5,16
22116,-5e-05,-2e-05,-3e-05,8e-05,0.00015,-0.00011,-7e-05,-5e-05,5,16
22117,-5e-05,-2e-05,-3e-05,8e-05,0.00015,-0.00011,-7e-05,-5e-05,5,16
22118,-5e-05,-2e-05,-3e-05,8e-05,0.00015,-0.00011,-7e-05,-5e-05,5,16
22119,-5e-05,-2e-05,-3e-05,8e-05,0.00015,-0.00011,-7e-05,-5e-05,5,16
22120,-5e-05,-2e-05,-3e-05,8e-05,0.00015,-0.00011,-7e-05,-5e-05,5,16
22121,-5e-05,-2e-05,-3e-05,8e-05,0.00015,-0.00011,-7e-05,-5e-05,5,16
22122,-5e-05,-2e-05,-3e-05,8e-05,0.00015,-0.00011,-7e-05,-5e-05,5,16
22123,-5e-05,-2e-05,-3e-05,8e-05,0.00015,-0.00011,-7e-05,-5e-05,5,16
22124,-5e-05,-2e-05,-3e-05,8e-05,0.00015,-0.00011,-7e-05,-5e-05,5,16
22125,-5e-05,-2e-05,-3e-05,8e-05,0.00015,-0.00011,-7e-05,-5e-05,5,16
22126,-5e-05,-2e-05,-3e-05,8e-05,0.00015,-0.00011,-7e-05,-5e-05,5,16
22127,-5e-05,-2e-05,-3e-05,8e-05,0.00015,-0.00011,-7e-05,-5e-05,5,16
22128,-5e-05,-2e-05,-3e-05,8e-05,0.00015,-0.00011,-7e-05,-5e-05,5,16
22129,-5e-05,-2e-05,-3e-05,8e-05,0.00015,-0.00011,-7e-05,-5e-05,5,16
22130,-5e-05,-2e-05,-3e-05,8e-05,0.00015,-0.00011,-7e-05,-5e-05,5,16
22131,-5e-05,-2e-05,-3e-05,8e-05,0.00015,-0.00011,-7e-05,-5e-05,5,16
22132,-5e-05,-2e-05,-3e-05,8e-05,0.00015,-0.00011,-7e-05,-5e-05,5,16
22133,-5e-05,-2e-05,-3e-05,8e-05,0.00015,-0.00011,-7e-05,-5e-05,5,16
22134,5e-05,0.00012,0.00022,0.00012,-2e-05,7e-05,2e-05,2e-05,5,16
22135,5e-05,0.00012,0.00022,0.00012,-2e-05,7e-05,2e-05,2e-05,5,16
22136,-0.0001,-6e-05,2e-05,5e-05,-9e-05,-0.00013,-5e-05,-3e-05,5,16
22138,-0.0001,-6e-05,2e-05,5e-05,-9e-05,-0.00013,-5e-05,-3e-05,5,16
22139,-0.0001,-6e-05,2e-05,5e-05,-9e-05,-0.00013,-5e-05,-3e-05,5,16
22140,-0.0001,-6e-05,2e-05,5e-05,-9e-05,-0.00013,-5e-05,-3e-05,5,16
22141,-0.0001,-6e-05,2e-05,5e-05,-9e-05,-0.00013,-5e-05,-3e-05,5,16
22142,-0.0001,-6e-05,2e-05,5e-05,-9e-05,-0.00013,-5e-05,-3e-05,5,16
22143,-0.0001,-6e-05,2e-05,5e-05,-9e-05,-0.00013,-5e-05,-3e-05,5,16
22144,-0.0001,-6e-05,2e-05,5e-05,-9e-05,-0.00013,-5e-05,-3e-05,5,16
22145,-0.0001,-6e-05,2e-05,5e-05,-9e-05,-0.00013,-5e-05,-3e-05,5,16
22146,-0.0001,-6e-05,2e-05,5e-05,-9e-05,-0.00013,-5e-05,-3e-05,5,16
22147,-0.0001,-6e-05,2e-05,5e-05,-9e-05,-0.00013,-5e-05,-3e-05,5,16
22148,-0.0001,-6e-05,2e-05,5e-05,-9e-05,-0.00013,-5e-05,-3e-05,5,16
22149,-0.0001,-6e-05,2e-05,5e-05,-9e-05,-0.00013,-5e-05,-3e-05,5,16
22150,-0.0001,-6e-05,2e-05,5e-05,-9e-05,-0.00013,-5e-05,-3e-05,5,16
22151,-0.0001,-6e-05,2e-05,5e-05,-9e-05,-0.00013,-5e-05,-3e-05,5,16
22152,-0.0001,-6e-05,2e-05,5e-05,-9e-05,-0.00013,-5e-05,-3e-05,5,16
22153,-0.0001,-6e-05,2e-05,5e-05,-9e-05,-0.00013,-5e-05,-3e-05,5,16
22154,-0.0001,-6e-05,2e-05,5e-05,-9e-05,-0.00013,-5e-05,-3e-05,5,16
22155,-0.0001,-6e-05,2e-05,5e-05,-9e-05,-0.00013,-5e-05,-3e-05,5,16
22156,-0.0001,-6e-05,2e-05,5e-05,-9e-05,-0.00013,-5e-05,-3e-05,5,16
22157,-0.0001,-6e-05,2e-05,5e-05,-9e-05,-0.00013,-5e-05,-3e-05,5,16
22158,-5e-05,1e-05,3e-05,-0.00036,-0.00064,-0.00015,-4e-05,-5e-05,5,16
22159,0.00011,3e-05,-1e-05,-0.0001,-0.00019,0.00015,4e-05,1e-05,5,16
22160,0.00011,3e-05,-1e-05,-0.0001,-0.00019,0.00015,4e-05,1e-05,5,16
22161,0.00011,3e-05,-1e-05,-0.0001,-0.00019,0.00015,4e-05,1e-05,5,16
22162,0.00011,3e-05,-1e-05,-0.0001,-0.00019,0.00015,4e-05,1e-05,5,16
22163,0.00011,3e-05,-1e-05,-0.0001,-0.00019,0.00015,4e-05,1e-05,5,16
22164,0.00011,3e-05,-1e-05,-0.0001,-0.00019,0.00015,4e-05,1e-05,5,16
22165,0.00011,3e-05,-1e-05,-0.0001,-0.00019,0.00015,4e-05,1e-05,5,16
22166,0.00011,3e-05,-1e-05,-0.0001,-0.00019,0.00015,4e-05,1e-05,5,16
22167,0.00011,3e-05,-1e-05,-0.0001,-0.00019,0.00015,4e-05,1e-05,5,16
22168,0.00011,3e-05,-1e-05,-0.0001,-0.00019,0.00015,4e-05,1e-05,5,16
22169,0.00011,3e-05,-1e-05,-0.0001,-0.00019,0.00015,4e-05,1e-05,5,16
22170,0.00011,3e-05,-1e-05,-0.0001,-0.00019,0.00015,4e-05,1e-05,5,16
22171,0.00011,3e-05,-1e-05,-0.0001,-0.00019,0.00015,4e-05,1e-05,5,16
22172,0.00011,3e-05,-1e-05,-0.0001,-0.00019,0.00015,4e-05,1e-05,5,16
22173,0.00011,3e-05,-1e-05,-0.0001,-0.00019,0.00015,4e-05,1e-05,5,16
22174,0.00011,3e-05,-1e-05,-0.0001,-0.00019,0.00015,4e-05,1e-05,5,16
22175,0.00011,3e-05,-1e-05,-0.0001,-0.00019,0.00015,4e-05,1e-05,5,16
22176,0.00011,3e-05,-1e-05,-0.0001,-0.00019,0.00015,4e-05,1e-05,5,16
22177,0.00011,3e-05,-1e-05,-0.0001,-0.00019,0.00015,4e-05,1e-05,5,16
22178,0.00011,3e-05,-1e-05,-0.0001,-0.00019,0.00015,4e-05,1e-05,5,16
22179,0.00017,7e-05,0.00013,0.00044,0.00061,0.00025,7e-05,0.00011,5,16
22180,0.00017,7e-05,0.00013,0.00044,0.00061,0.00025,7e-05,0.00011,5,16
22181,-3e-05,0,-4e-05,-0.00012,5e-05,-0.00018,-6e-05,4e-05,5,16
22182,-3e-05,0,-4e-05,-0.00012,5e-05,-0.00018,-6e-05,4e-05,5,16
22183,-3e-05,0,-4e-05,-0.00012,5e-05,-0.00018,-6e-05,4e-05,5,16
22184,-3e-05,0,-4e-05,-0.00012,5e-05,-0.00018,-6e-05,4e-05,5,16
22185,-3e-05,0,-4e-05,-0.00012,5e-05,-0.00018,-6e-05,4e-05,5,16
22186,-3e-05,0,-4e-05,-0.00012,5e-05,-0.00018,-6e-05,4e-05,5,16
22188,-3e-05,0,-4e-05,-0.00012,5e-05,-0.00018,-6e-05,4e-05,5,16
22189,-3e-05,0,-4e-05,-0.00012,5e-05,-0.00018,-6e-05,4e-05,5,16
22190,-3e-05,0,-4e-05,-0.00012,5e-05,-0.00018,-6e-05,4e-05,5,16
22191,-3e-05,0,-4e-05,-0.00012,5e-05,-0.00018,-6e-05,4e-05,5,16
22192,-3e-05,0,-4e-05,-0.00012,5e-05,-0.00018,-6e-05,4e-05,5,16
22193,-3e-05,0,-4e-05,-0.00012,5e-05,-0.00018,-6e-05,4e-05,5,16
22194,-3e-05,0,-4e-05,-0.00012,5e-05,-0.00018,-6e-05,4e-05,5,16
22195,-3e-05,0,-4e-05,-0.00012,5e-05,-0.00018,-6e-05,4e-05,5,16
22196,-3e-05,0,-4e-05,-0.00012,5e-05,-0.00018,-6e-05,4e-05,5,16
22197,-3e-05,0,-4e-05,-0.00012,5e-05,-0.00018,-6e-05,4e-05,5,16
22198,-3e-05,0,-4e-05,-0.00012,5e-05,-0.00018,-6e-05,4e-05,5,16
22199,-3e-05,0,-4e-05,-0.00012,5e-05,-0.00018,-6e-05,4e-05,5,16
22200,-3e-05,0,-4e-05,-0.00012,5e-05,-0.00018,-6e-05,4e-05,5,16
22201,-3e-05,0,-4e-05,-0.00012,5e-05,-0.00018,-6e-05,4e-05,5,16
22202,-5e-05,-9e-05,-1e-05,-0.00073,-0.00087,-0.00034,-7e-05,-2e-05,5,16
22203,-6e-05,2e-05,1e-05,0.00013,-2e-05,-1e-05,0,-3e-05,5,16
22204,-6e-05,2e-05,1e-05,0.00013,-2e-05,-1e-05,0,-3e-05,5,16
22205,-6e-05,2e-05,1e-05,0.00013,-2e-05,-1e-05,0,-3e-05,5,16
22206,-6e-05,2e-05,1e-05,0.00013,-2e-05,-1e-05,0,-3e-05,5,16
22207,-6e-05,2e-05,1e-05,0.00013,-2e-05,-1e-05,0,-3e-05,5,16
22208,-6e-05,2e-05,1e-05,0.00013,-2e-05,-1e-05,0,-3e-05,5,16
22209,-6e-05,-5e-05,-2e-05,-0.00018,-0.00057,-0.00015,3e-05,-1e-05,5,16
22210,-6e-05,-5e-05,-2e-05,-0.00018,-0.00057,-0.00015,3e-05,-1e-05,5,16
22211,-6e-05,-5e-05,-2e-05,-0.00018,-0.00057,-0.00015,3e-05,-1e-05,5,16
22212,-6e-05,-5e-05,-2e-05,-0.00018,-0.00057,-0.00015,3e-05,-1e-05,5,16
22213,-6e-05,-5e-05,-2e-05,-0.00018,-0.00057,-0.00015,3e-05,-1e-05,5,16
22214,-6e-05,-5e-05,-2e-05,-0.00018,-0.00057,-0.00015,3e-05,-1e-05,5,16
22215,-6e-05,-5e-05,-2e-05,-0.00018,-0.00057,-0.00015,3e-05,-1e-05,5,16
22216,-6e-05,-5e-05,-2e-05,-0.00018,-0.00057,-0.00015,3e-05,-1e-05,5,16
22217,-6e-05,-5e-05,-2e-05,-0.00018,-0.00057,-0.00015,3e-05,-1e-05,5,16
22218,-6e-05,-5e-05,-2e-05,-0.00018,-0.00057,-0.00015,3e-05,-1e-05,5,16
22219,-6e-05,-5e-05,-2e-05,-0.00018,-0.00057,-0.00015,3e-05,-1e-05,5,16
22220,-6e-05,-5e-05,-2e-05,-0.00018,-0.00057,-0.00015,3e-05,-1e-05,5,16
22221,-6e-05,-5e-05,-2e-05,-0.00018,-0.00057,-0.00015,3e-05,-1e-05,5,16
22222,-6e-05,-5e-05,-2e-05,-0.00018,-0.00057,-0.00015,3e-05,-1e-05,5,16
22223,-4e-05,-7e-05,-0.00017,-0.00041,-0.00034,-0.00028,-9e-05,-4e-05,5,16
22224,-4e-05,-7e-05,-0.00017,-0.00041,-0.00034,-0.00028,-9e-05,-4e-05,5,16
22225,-4e-05,-7e-05,-0.00017,-0.00041,-0.00034,-0.00028,-9e-05,-4e-05,5,16
22226,-4e-05,-7e-05,-0.00017,-0.00041,-0.00034,-0.00028,-9e-05,-4e-05,5,16
22227,-4e-05,-7e-05,-0.00017,-0.00041,-0.00034,-0.00028,-9e-05,-4e-05,5,16
22228,-4e-05,-7e-05,-0.00017,-0.00041,-0.00034,-0.00028,-9e-05,-4e-05,5,16
22229,-4e-05,-7e-05,-0.00017,-0.00041,-0.00034,-0.00028,-9e-05,-4e-05,5,16
22230,-4e-05,-7e-05,-0.00017,-0.00041,-0.00034,-0.00028,-9e-05,-4e-05,5,16
22231,2e-05,7e-05,1e-05,0.00047,0.00017,0.00013,2e-05,0,5,16
22232,4e-05,0,-5e-05,-0.00033,-0.00023,-0.00015,-8e-05,-1e-05,5,16
22233,8e-05,-1e-05,-9e-05,-0.00035,-0.00052,0.00019,0.00011,2e-05,5,16
22234,8e-05,-1e-05,-9e-05,-0.00035,-0.00052,0.00019,0.00011,2e-05,5,16
22235,8e-05,-1e-05,-9e-05,-0.00035,-0.00052,0.00019,0.00011,2e-05,5,16
22236,8e-05,-1e-05,-9e-05,-0.00035,-0.00052,0.00019,0.00011,2e-05,5,16
22238,8e-05,-1e-05,-9e-05,-0.00035,-0.00052,0.00019,0.00011,2e-05,5,16
22239,8e-05,-1e-05,-9e-05,-0.00035,-0.00052,0.00019,0.00011,2e-05,5,16
22240,8e-05,-1e-05,-9e-05,-0.00035,-0.00052,0.00019,0.00011,2e-05,5,16
22241,8e-05,-1e-05,-9e-05,-0.00035,-0.00052,0.00019,0.00011,2e-05,5,16
22242,8e-05,-1e-05,-9e-05,-0.00035,-0.00052,0.00019,0.00011,2e-05,5,16
22243,8e-05,-1e-05,-9e-05,-0.00035,-0.00052,0.00019,0.00011,2e-05,5,16
22244,8e-05,-1e-05,-9e-05,-0.00035,-0.00052,0.00019,0.00011,2e-05,5,16
22245,8e-05,-1e-05,-9e-05,-0.00035,-0.00052,0.00019,0.00011,2e-05,5,16
22246,8e-05,-1e-05,-9e-05,-0.00035,-0.00052,0.00019,0.00011,2e-05,5,16
22247,8e-05,-1e-05,-9e-05,-0.00035,-0.00052,0.00019,0.00011,2e-05,5,16
22248,8e-05,-1e-05,-9e-05,-0.00035,-0.00052,0.00019,0.00011,2e-05,5,16
22249,8e-05,-1e-05,-9e-05,-0.00035,-0.00052,0.00019,0.00011,2e-05,5,16
22250,8e-05,-1e-05,-9e-05,-0.00035,-0.00052,0.00019,0.00011,2e-05,5,16
22251,8e-05,-1e-05,-9e-05,-0.00035,-0.00052,0.00019,0.00011,2e-05,5,16
22252,8e-05,-1e-05,-9e-05,-0.00035,-0.00052,0.00019,0.00011,2e-05,5,16
22253,8e-05,-1e-05,-9e-05,-0.00035,-0.00052,0.00019,0.00011,2e-05,5,16
22254,7e-05,-1e-05,-0.0001,-2e-05,-0.00011,4e-05,0,1e-05,5,16
22255,7e-05,-1e-05,-0.0001,-2e-05,-0.00011,4e-05,0,1e-05,5,16
22256,-0.00014,-1e-05,0.00022,0.0001,-8e-05,-0.00011,-7e-05,-4e-05,5,16
22257,-0.00014,-1e-05,0.00022,0.0001,-8e-05,-0.00011,-7e-05,-4e-05,5,16
22258,-0.00014,-1e-05,0.00022,0.0001,-8e-05,-0.00011,-7e-05,-4e-05,5,16
22259,-0.00014,-1e-05,0.00022,0.0001,-8e-05,-0.00011,-7e-05,-4e-05,5,16
22260,-0.00014,-1e-05,0.00022,0.0001,-8e-05,-0.00011,-7e-05,-4e-05,5,16
22261,-0.00014,-1e-05,0.00022,0.0001,-8e-05,-0.00011,-7e-05,-4e-05,5,16
22262,-0.00014,-1e-05,0.00022,0.0001,-8e-05,-0.00011,-7e-05,-4e-05,5,16
22263,-0.00014,-1e-05,0.00022,0.0001,-8e-05,-0.00011,-7e-05,-4e-05,5,16
22264,-0.00014,-1e-05,0.00022,0.0001,-8e-05,-0.00011,-7e-05,-4e-05,5,16
22265,-0.00014,-1e-05,0.00022,0.0001,-8e-05,-0.00011,-7e-05,-4e-05,5,16
22266,-0.00014,-1e-05,0.00022,0.0001,-8e-05,-0.00011,-7e-05,-4e-05,5,16
22267,-0.00014,-1e-05,0.00022,0.0001,-8e-05,-0.00011,-7e-05,-4e-05,5,16
22268,-1e-05,4e-05,0.0001,8e-05,0.0001,0.00013,-2e-05,1e-05,5,16
22269,-1e-05,4e-05,0.0001,8e-05,0.0001,0.00013,-2e-05,1e-05,5,16
22270,-1e-05,4e-05,0.0001,8e-05,0.0001,0.00013,-2e-05,1e-05,5,16
22271,-1e-05,4e-05,0.0001,8e-05,0.0001,0.00013,-2e-05,1e-05,5,16
22272,-1e-05,4e-05,0.0001,8e-05,0.0001,0.00013,-2e-05,1e-05,5,16
22273,-1e-05,4e-05,0.0001,8e-05,0.0001,0.00013,-2e-05,1e-05,5,16
22274,-1e-05,4e-05,0.0001,8e-05,0.0001,0.00013,-2e-05,1e-05,5,16
22275,0,-5e-05,-4e-05,0.00038,0.00023,0.00013,3e-05,-2e-05,5,16
22276,0,-5e-05,-4e-05,0.00038,0.00023,0.00013,3e-05,-2e-05,5,16
22277,0,-5e-05,-4e-05,0.00038,0.00023,0.00013,3e-05,-2e-05,5,16
22278,0,-5e-05,-4e-05,0.00038,0.00023,0.00013,3e-05,-2e-05,5,16
22279,0,-5e-05,-4e-05,0.00038,0.00023,0.00013,3e-05,-2e-05,5,16
22280,0,-5e-05,-4e-05,0.00038,0.00023,0.00013,3e-05,-2e-05,5,16
22281,0,-5e-05,-4e-05,0.00038,0.00023,0.00013,3e-05,-2e-05,5,16
22282,0,-5e-05,-4e-05,0.00038,0.00023,0.00013,3e-05,-2e-05,5,16
22283,0,-5e-05,-4e-05,0.00038,0.00023,0.00013,3e-05,-2e-05,5,16
22284,0,-5e-05,-4e-05,0.00038,0.00023,0.00013,3e-05,-2e-05,5,16
22285,0,-5e-05,-4e-05,0.00038,0.00023,0.00013,3e-05,-2e-05,5,16
22286,0,-5e-05,-4e-05,0.00038,0.00023,0.00013,3e-05,-2e-05,5,16
22288,0,-5e-05,-4e-05,0.00038,0.00023,0.00013,3e-05,-2e-05,5,16
22289,0,-5e-05,-4e-05,0.00038,0.00023,0.00013,3e-05,-2e-05,5,16
22290,0,-5e-05,-4e-05,0.00038,0.00023,0.00013,3e-05,-2e-05,5,16
22291,0,-5e-05,-4e-05,0.00038,0.00023,0.00013,3e-05,-2e-05,5,16
22292,-7e-05,6e-05,0.00025,0.00019,0.00012,2e-05,-1e-05,-3e-05,5,16
22293,-7e-05,6e-05,0.00025,0.00019,0.00012,2e-05,-1e-05,-3e-05,5,16
22294,-7e-05,6e-05,0.00025,0.00019,0.00012,2e-05,-1e-05,-3e-05,5,16
22295,-7e-05,6e-05,0.00025,0.00019,0.00012,2e-05,-1e-05,-3e-05,5,16
22296,-7e-05,6e-05,0.00025,0.00019,0.00012,2e-05,-1e-05,-3e-05,5,16
22297,-7e-05,6e-05,0.00025,0.00019,0.00012,2e-05,-1e-05,-3e-05,5,16
22298,-7e-05,6e-05,0.00025,0.00019,0.00012,2e-05,-1e-05,-3e-05,5,16
22299,-2e-05,-6e-05,-7e-05,0.00029,0.00032,-4e-05,-6e-05,-2e-05,5,16
22300,-2e-05,-6e-05,-7e-05,0.00029,0.00032,-4e-05,-6e-05,-2e-05,5,16
22301,-2e-05,-6e-05,-7e-05,0.00029,0.00032,-4e-05,-6e-05,-2e-05,5,16
22302,-2e-05,-6e-05,-7e-05,0.00029,0.00032,-4e-05,-6e-05,-2e-05,5,16
22303,-2e-05,-6e-05,-7e-05,0.00029,0.00032,-4e-05,-6e-05,-2e-05,5,16
22304,-2e-05,-6e-05,-7e-05,0.00029,0.00032,-4e-05,-6e-05,-2e-05,5,16
22305,-2e-05,-6e-05,-7e-05,0.00029,0.00032,-4e-05,-6e-05,-2e-05,5,16
22306,-2e-05,-6e-05,-7e-05,0.00029,0.00032,-4e-05,-6e-05,-2e-05,5,16
22307,-2e-05,-6e-05,-7e-05,0.00029,0.00032,-4e-05,-6e-05,-2e-05,5,16
22308,-2e-05,-6e-05,-7e-05,0.00029,0.00032,-4e-05,-6e-05,-2e-05,5,16
22309,-2e-05,-6e-05,-7e-05,0.00029,0.00032,-4e-05,-6e-05,-2e-05,5,16
22310,-2e-05,-6e-05,-7e-05,0.00029,0.00032,-4e-05,-6e-05,-2e-05,5,16
22311,-2e-05,-6e-05,-7e-05,0.00029,0.00032,-4e-05,-6e-05,-2e-05,5,16
22312,-2e-05,-6e-05,-7e-05,0.00029,0.00032,-4e-05,-6e-05,-2e-05,5,16
22313,-2e-05,-6e-05,-7e-05,0.00029,0.00032,-4e-05,-6e-05,-2e-05,5,16
22314,-4e-05,-8e-05,3e-05,0.00059,0.00038,-1e-05,-9e-05,-5e-05,5,16
22315,-4e-05,-8e-05,3e-05,0.00059,0.00038,-1e-05,-9e-05,-5e-05,5,16
22316,-5e-05,7e-05,-0.00015,-6e-05,-0.00021,-0.00016,-2e-05,-3e-05,5,16
22317,-5e-05,7e-05,-0.00015,-6e-05,-0.00021,-0.00016,-2e-05,-3e-05,5,16
22318,-5e-05,7e-05,-0.00015,-6e-05,-0.00021,-0.00016,-2e-05,-3e-05,5,16
22319,-5e-05,7e-05,-0.00015,-6e-05,-0.00021,-0.00016,-2e-05,-3e-05,5,16
22320,-5e-05,7e-05,-0.00015,-6e-05,-0.00021,-0.00016,-2e-05,-3e-05,5,16
22321,-5e-05,7e-05,-0.00015,-6e-05,-0.00021,-0.00016,-2e-05,-3e-05,5,16
22322,-5e-05,7e-05,-0.00015,-6e-05,-0.00021,-0.00016,-2e-05,-3e-05,5,16
22323,-5e-05,7e-05,-0.00015,-6e-05,-0.00021,-0.00016,-2e-05,-3e-05,5,16
22324,-5e-05,7e-05,-0.00015,-6e-05,-0.00021,-0.00016,-2e-05,-3e-05,5,16
22325,-5e-05,7e-05,-0.00015,-6e-05,-0.00021,-0.00016,-2e-05,-3e-05,5,16
22326,-5e-05,7e-05,-0.00015,-6e-05,-0.00021,-0.00016,-2e-05,-3e-05,5,16
22327,-5e-05,7e-05,-0.00015,-6e-05,-0.00021,-0.00016,-2e-05,-3e-05,5,16
22328,3e-05,-2e-05,-1e-05,0.00013,9e-05,2e-05,2e-05,0,5,16
22329,3e-05,-2e-05,-1e-05,0.00013,9e-05,2e-05,2e-05,0,5,16
22330,3e-05,-2e-05,-1e-05,0.00013,9e-05,2e-05,2e-05,0,5,16
22331,3e-05,-2e-05,-1e-05,0.00013,9e-05,2e-05,2e-05,0,5,16
22332,3e-05,-2e-05,-1e-05,0.00013,9e-05,2e-05,2e-05,0,5,16
22333,3e-05,-2e-05,-1e-05,0.00013,9e-05,2e-05,2e-05,0,5,16
22334,3e-05,-2e-05,-1e-05,0.00013,9e-05,2e-05,2e-05,0,5,16
22335,3e-05,-2e-05,-1e-05,0.00013,9e-05,2e-05,2e-05,0,5,16
22336,3e-05,-2e-05,-1e-05,0.00013,9e-05,2e-05,2e-05,0,5,16
22338,3e-05,-2e-05,-1e-05,0.00013,9e-05,2e-05,2e-05,0,5,16
22339,3e-05,-2e-05,-1e-05,0.00013,9e-05,2e-05,2e-05,0,5,16
22340,3e-05,-2e-05,-1e-05,0.00013,9e-05,2e-05,2e-05,0,5,16
22341,3e-05,-2e-05,-1e-05,0.00013,9e-05,2e-05,2e-05,0,5,16
22342,3e-05,-2e-05,-1e-05,0.00013,9e-05,2e-05,2e-05,0,5,16
22343,-1e-05,-2e-05,-0.00011,0.00018,-0.00018,-7e-05,-6e-05,1e-05,5,16
22344,-1e-05,-2e-05,-0.00011,0.00018,-0.00018,-7e-05,-6e-05,1e-05,5,16
22345,-1e-05,-2e-05,-0.00011,0.00018,-0.00018,-7e-05,-6e-05,1e-05,5,16
22346,-1e-05,-2e-05,-0.00011,0.00018,-0.00018,-7e-05,-6e-05,1e-05,5,16
22347,-1e-05,-2e-05,-0.00011,0.00018,-0.00018,-7e-05,-6e-05,1e-05,5,16
22348,-1e-05,-2e-05,-0.00011,0.00018,-0.00018,-7e-05,-6e-05,1e-05,5,16
22349,-1e-05,-2e-05,-0.00011,0.00018,-0.00018,-7e-05,-6e-05,1e-05,5,16
22350,-1e-05,-2e-05,-0.00011,0.00018,-0.00018,-7e-05,-6e-05,1e-05,5,16
22351,8e-05,3e-05,6e-05,-9e-05,-0.00014,-0.00017,-9e-05,-3e-05,5,16
22352,3e-05,0.00011,0.0001,-0.0004,-0.00035,7e-05,8e-05,7e-05,5,16
22353,1e-05,4e-05,0.00019,-0.0001,0.00027,0.00022,7e-05,2e-05,5,16
22354,1e-05,4e-05,0.00019,-0.0001,0.00027,0.00022,7e-05,2e-05,5,16
22355,1e-05,4e-05,0.00019,-0.0001,0.00027,0.00022,7e-05,2e-05,5,16
22356,1e-05,4e-05,0.00019,-0.0001,0.00027,0.00022,7e-05,2e-05,5,16
22357,1e-05,4e-05,0.00019,-0.0001,0.00027,0.00022,7e-05,2e-05,5,16
22358,1e-05,4e-05,0.00019,-0.0001,0.00027,0.00022,7e-05,2e-05,5,16
22359,1e-05,4e-05,0.00019,-0.0001,0.00027,0.00022,7e-05,2e-05,5,16
22360,1e-05,4e-05,0.00019,-0.0001,0.00027,0.00022,7e-05,2e-05,5,16
22361,1e-05,4e-05,0.00019,-0.0001,0.00027,0.00022,7e-05,2e-05,5,16
22362,1e-05,4e-05,0.00019,-0.0001,0.00027,0.00022,7e-05,2e-05,5,16
22363,1e-05,4e-05,0.00019,-0.0001,0.00027,0.00022,7e-05,2e-05,5,16
22364,1e-05,4e-05,0.00019,-0.0001,0.00027,0.00022,7e-05,2e-05,5,16
22365,1e-05,4e-05,0.00019,-0.0001,0.00027,0.00022,7e-05,2e-05,5,16
22366,1e-05,4e-05,0.00019,-0.0001,0.00027,0.00022,7e-05,2e-05,5,16
22367,1e-05,4e-05,0.00019,-0.0001,0.00027,0.00022,7e-05,2e-05,5,16
22368,1e-05,4e-05,0.00019,-0.0001,0.00027,0.00022,7e-05,2e-05,5,16
22369,1e-05,4e-05,0.00019,-0.0001,0.00027,0.00022,7e-05,2e-05,5,16
22370,1e-05,4e-05,0.00019,-0.0001,0.00027,0.00022,7e-05,2e-05,5,16
22371,1e-05,4e-05,0.00019,-0.0001,0.00027,0.00022,7e-05,2e-05,5,16
22372,1e-05,4e-05,0.00019,-0.0001,0.00027,0.00022,7e-05,2e-05,5,16
22373,1e-05,4e-05,0.00019,-0.0001,0.00027,0.00022,7e-05,2e-05,5,16
22374,-0.00013,0,-1e-05,0.00025,0.00021,0.00016,2e-05,-2e-05,5,16
22375,-0.00013,0,-1e-05,0.00025,0.00021,0.00016,2e-05,-2e-05,5,16
22376,-1e-05,-9e-05,-4e-05,-0.00054,-0.00052,-0.00033,-8e-05,-1e-05,5,16
22377,-1e-05,-9e-05,-4e-05,-0.00054,-0.00052,-0.00033,-8e-05,-1e-05,5,16
22378,-1e-05,-9e-05,-4e-05,-0.00054,-0.00052,-0.00033,-8e-05,-1e-05,5,16
22379,-1e-05,-9e-05,-4e-05,-0.00054,-0.00052,-0.00033,-8e-05,-1e-05,5,16
22380,-1e-05,-9e-05,-4e-05,-0.00054,-0.00052,-0.00033,-8e-05,-1e-05,5,16
22381,-1e-05,-9e-05,-4e-05,-0.00054,-0.00052,-0.00033,-8e-05,-1e-05,5,16
22382,-1e-05,-9e-05,-4e-05,-0.00054,-0.00052,-0.00033,-8e-05,-1e-05,5,16
22383,-1e-05,-9e-05,-4e-05,-0.00054,-0.00052,-0.00033,-8e-05,-1e-05,5,16
22384,-1e-05,-9e-05,-4e-05,-0.00054,-0.00052,-0.00033,-8e-05,-1e-05,5,16
22385,-1e-05,-9e-05,-4e-05,-0.00054,-0.00052,-0.00033,-8e-05,-1e-05,5,16
22386,-1e-05,-9e-05,-4e-05,-0.00054,-0.00052,-0.00033,-8e-05,-1e-05,5,16
22388,-1e-05,-9e-05,-4e-05,-0.00054,-0.00052,-0.00033,-8e-05,-1e-05,5,16
22389,-1e-05,-9e-05,-4e-05,-0.00054,-0.00052,-0.00033,-8e-05,-1e-05,5,16
22390,-1e-05,-9e-05,-4e-05,-0.00054,-0.00052,-0.00033,-8e-05,-1e-05,5,16
22391,-1e-05,-9e-05,-4e-05,-0.00054,-0.00052,-0.00033,-8e-05,-1e-05,5,16
22392,-1e-05,-9e-05,-4e-05,-0.00054,-0.00052,-0.00033,-8e-05,-1e-05,5,16
22393,-1e-05,-9e-05,-4e-05,-0.00054,-0.00052,-0.00033,-8e-05,-1e-05,5,16
22394,-1e-05,-9e-05,-4e-05,-0.00054,-0.00052,-0.00033,-8e-05,-1e-05,5,16
22395,-1e-05,-9e-05,-4e-05,-0.00054,-0.00052,-0.00033,-8e-05,-1e-05,5,16
22396,-1e-05,-9e-05,-4e-05,-0.00054,-0.00052,-0.00033,-8e-05,-1e-05,5,16
22397,8e-05,0.0001,2e-05,-0.00064,-0.00027,0.00015,0.00011,0,5,16
22398,-3e-05,-0.00017,-4e-05,0.0005,0.00035,-0.00016,-0.00011,-8e-05,5,16
22399,-3e-05,-0.00017,-4e-05,0.0005,0.00035,-0.00016,-0.00011,-8e-05,5,16
22400,-3e-05,-0.00017,-4e-05,0.0005,0.00035,-0.00016,-0.00011,-8e-05,5,16
22401,-3e-05,-0.00017,-4e-05,0.0005,0.00035,-0.00016,-0.00011,-8e-05,5,16
22402,-3e-05,-0.00017,-4e-05,0.0005,0.00035,-0.00016,-0.00011,-8e-05,5,16
22403,-3e-05,-0.00017,-4e-05,0.0005,0.00035,-0.00016,-0.00011,-8e-05,5,16
22404,-3e-05,-0.00017,-4e-05,0.0005,0.00035,-0.00016,-0.00011,-8e-05,5,16
22405,-3e-05,-0.00017,-4e-05,0.0005,0.00035,-0.00016,-0.00011,-8e-05,5,16
22406,-3e-05,-0.00017,-4e-05,0.0005,0.00035,-0.00016,-0.00011,-8e-05,5,16
22407,-3e-05,-0.00017,-4e-05,0.0005,0.00035,-0.00016,-0.00011,-8e-05,5,16
22408,-3e-05,-0.00017,-4e-05,0.0005,0.00035,-0.00016,-0.00011,-8e-05,5,16
22409,-3e-05,-0.00017,-4e-05,0.0005,0.00035,-0.00016,-0.00011,-8e-05,5,16
22410,-3e-05,-0.00017,-4e-05,0.0005,0.00035,-0.00016,-0.00011,-8e-05,5,16
22411,-3e-05,-0.00017,-4e-05,0.0005,0.00035,-0.00016,-0.00011,-8e-05,5,16
22412,-2e-05,-9e-05,-0.00012,-0.00027,-0.00036,-0.00022,-0.00012,-3e-05,5,16
22413,0.0001,0.00021,0.00021,-0.00023,0.0004,0.00052,0.00017,6e-05,5,16
22414,0.0001,0.00021,0.00021,-0.00023,0.0004,0.00052,0.00017,6e-05,5,16
22415,0.0001,0.00021,0.00021,-0.00023,0.0004,0.00052,0.00017,6e-05,5,16
22416,0.0001,0.00021,0.00021,-0.00023,0.0004,0.00052,0.00017,6e-05,5,16
22417,0.0001,0.00021,0.00021,-0.00023,0.0004,0.00052,0.00017,6e-05,5,16
22418,0.0001,0.00021,0.00021,-0.00023,0.0004,0.00052,0.00017,6e-05,5,16
22419,0.0001,0.00021,0.00021,-0.00023,0.0004,0.00052,0.00017,6e-05,5,16
22420,0.0001,0.00021,0.00021,-0.00023,0.0004,0.00052,0.00017,6e-05,5,16
22421,0.0001,0.00021,0.00021,-0.00023,0.0004,0.00052,0.00017,6e-05,5,16
22422,0.0001,0.00021,0.00021,-0.00023,0.0004,0.00052,0.00017,6e-05,5,16
22423,0.0001,0.00021,0.00021,-0.00023,0.0004,0.00052,0.00017,6e-05,5,16
22424,0.0001,0.00021,0.00021,-0.00023,0.0004,0.00052,0.00017,6e-05,5,16
22425,0.0001,0.00021,0.00021,-0.00023,0.0004,0.00052,0.00017,6e-05,5,16
22426,0.0001,0.00021,0.00021,-0.00023,0.0004,0.00052,0.00017,6e-05,5,16
22427,0.0001,0.00021,0.00021,-0.00023,0.0004,0.00052,0.00017,6e-05,5,16
22428,0.0001,0.00021,0.00021,-0.00023,0.0004,0.00052,0.00017,6e-05,5,16
22429,0.0001,0.00021,0.00021,-0.00023,0.0004,0.00052,0.00017,6e-05,5,16
22430,0.0001,0.00021,0.00021,-0.00023,0.0004,0.00052,0.00017,6e-05,5,16
22431,0.0001,0.00021,0.00021,-0.00023,0.0004,0.00052,0.00017,6e-05,5,16
22432,0.0001,0.00021,0.00021,-0.00023,0.0004,0.00052,0.00017,6e-05,5,16
22433,0.0001,0.00021,0.00021,-0.00023,0.0004,0.00052,0.00017,6e-05,5,16
22434,0.0001,0.00021,0.00021,-0.00023,0.0004,0.00052,0.00017,6e-05,5,16
22435,-5e-05,-8e-05,-0.0002,-0.00051,-0.00036,-0.00017,-5e-05,-3e-05,5,16
22437,4e-05,8e-05,-1e-05,-0.00038,-0.00032,2e-05,4e-05,7e-05,5,16
22439,4e-05,8e-05,-1e-05,-0.00038,-0.00032,2e-05,4e-05,7e-05,5,16
22440,4e-05,8e-05,-1e-05,-0.00038,-0.00032,2e-05,4e-05,7e-05,5,16
22441,4e-05,8e-05,-1e-05,-0.00038,-0.00032,2e-05,4e-05,7e-05,5,16
22442,4e-05,8e-05,-1e-05,-0.00038,-0.00032,2e-05,4e-05,7e-05,5,16
22443,4e-05,8e-05,-1e-05,-0.00038,-0.00032,2e-05,4e-05,7e-05,5,16
22444,4e-05,8e-05,-1e-05,-0.00038,-0.00032,2e-05,4e-05,7e-05,5,16
22445,4e-05,8e-05,-1e-05,-0.00038,-0.00032,2e-05,4e-05,7e-05,5,16
22446,4e-05,8e-05,-1e-05,-0.00038,-0.00032,2e-05,4e-05,7e-05,5,16
22447,4e-05,8e-05,-1e-05,-0.00038,-0.00032,2e-05,4e-05,7e-05,5,16
22448,4e-05,8e-05,-1e-05,-0.00038,-0.00032,2e-05,4e-05,7e-05,5,16
22449,4e-05,8e-05,-1e-05,-0.00038,-0.00032,2e-05,4e-05,7e-05,5,16
22450,4e-05,8e-05,-1e-05,-0.00038,-0.00032,2e-05,4e-05,7e-05,5,16
22451,4e-05,8e-05,-1e-05,-0.00038,-0.00032,2e-05,4e-05,7e-05,5,16
22452,4e-05,8e-05,-1e-05,-0.00038,-0.00032,2e-05,4e-05,7e-05,5,16
22453,4e-05,8e-05,-1e-05,-0.00038,-0.00032,2e-05,4e-05,7e-05,5,16
22454,4e-05,8e-05,-1e-05,-0.00038,-0.00032,2e-05,4e-05,7e-05,5,16
22455,4e-05,8e-05,-1e-05,-0.00038,-0.00032,2e-05,4e-05,7e-05,5,16
22456,4e-05,8e-05,-1e-05,-0.00038,-0.00032,2e-05,4e-05,7e-05,5,16
22457,-2e-05,-6e-05,-5e-05,0.00029,0.00034,8e-05,1e-05,-6e-05,5,16
22458,-2e-05,-6e-05,-5e-05,0.00029,0.00034,8e-05,1e-05,-6e-05,5,16
22459,-4e-05,-3e-05,3e-05,0.00016,2e-05,-0.00014,1e-05,2e-05,5,16
22460,-4e-05,-3e-05,3e-05,0.00016,2e-05,-0.00014,1e-05,2e-05,5,16
22461,-4e-05,-3e-05,3e-05,0.00016,2e-05,-0.00014,1e-05,2e-05,5,16
22462,-4e-05,-3e-05,3e-05,0.00016,2e-05,-0.00014,1e-05,2e-05,5,16
22463,-4e-05,-3e-05,3e-05,0.00016,2e-05,-0.00014,1e-05,2e-05,5,16
22464,-4e-05,-3e-05,3e-05,0.00016,2e-05,-0.00014,1e-05,2e-05,5,16
22465,-4e-05,-3e-05,3e-05,0.00016,2e-05,-0.00014,1e-05,2e-05,5,16
22466,-4e-05,-3e-05,3e-05,0.00016,2e-05,-0.00014,1e-05,2e-05,5,16
22467,-4e-05,-3e-05,3e-05,0.00016,2e-05,-0.00014,1e-05,2e-05,5,16
22468,-4e-05,-3e-05,3e-05,0.00016,2e-05,-0.00014,1e-05,2e-05,5,16
22469,-4e-05,-3e-05,3e-05,0.00016,2e-05,-0.00014,1e-05,2e-05,5,16
22470,-4e-05,-3e-05,3e-05,0.00016,2e-05,-0.00014,1e-05,2e-05,5,16
22471,-4e-05,-3e-05,3e-05,0.00016,2e-05,-0.00014,1e-05,2e-05,5,16
22472,-4e-05,-3e-05,3e-05,0.00016,2e-05,-0.00014,1e-05,2e-05,5,16
22473,-4e-05,-3e-05,3e-05,0.00016,2e-05,-0.00014,1e-05,2e-05,5,16
22474,-4e-05,-3e-05,3e-05,0.00016,2e-05,-0.00014,1e-05,2e-05,5,16
22475,-4e-05,-3e-05,3e-05,0.00016,2e-05,-0.00014,1e-05,2e-05,5,16
22476,-4e-05,-3e-05,3e-05,0.00016,2e-05,-0.00014,1e-05,2e-05,5,16
22477,-4e-05,-3e-05,3e-05,0.00016,2e-05,-0.00014,1e-05,2e-05,5,16
22478,-4e-05,-3e-05,3e-05,0.00016,2e-05,-0.00014,1e-05,2e-05,5,16
22479,-4e-05,-3e-05,3e-05,0.00016,2e-05,-0.00014,1e-05,2e-05,5,16
22480,-7e-05,0,7e-05,0.00025,0.0003,0.00011,1e-05,-1e-05,5,16
22481,4e-05,0,-6e-05,-9e-05,-0.0001,-0.00013,-6e-05,-7e-05,5,16
22482,4e-05,0,-6e-05,-9e-05,-0.0001,-0.00013,-6e-05,-7e-05,5,16
22483,4e-05,0,-6e-05,-9e-05,-0.0001,-0.00013,-6e-05,-7e-05,5,16
22484,4e-05,0,-6e-05,-9e-05,-0.0001,-0.00013,-6e-05,-7e-05,5,16
22485,4e-05,0,-6e-05,-9e-05,-0.0001,-0.00013,-6e-05,-7e-05,5,16
22486,4e-05,0,-6e-05,-9e-05,-0.0001,-0.00013,-6e-05,-7e-05,5,16
22488,4e-05,0,-6e-05,-9e-05,-0.0001,-0.00013,-6e-05,-7e-05,5,16
22489,4e-05,0,-6e-05,-9e-05,-0.0001,-0.00013,-6e-05,-7e-05,5,16
22490,4e-05,0,-6e-05,-9e-05,-0.0001,-0.00013,-6e-05,-7e-05,5,16
22491,4e-05,0,-6e-05,-9e-05,-0.0001,-0.00013,-6e-05,-7e-05,5,16
22492,4e-05,0,-6e-05,-9e-05,-0.0001,-0.00013,-6e-05,-7e-05,5,16
22493,4e-05,0,-6e-05,-9e-05,-0.0001,-0.00013,-6e-05,-7e-05,5,16
22494,4e-05,0,-6e-05,-9e-05,-0.0001,-0.00013,-6e-05,-7e-05,5,16
22495,4e-05,0,-6e-05,-9e-05,-0.0001,-0.00013,-6e-05,-7e-05,5,16
22496,4e-05,0,-6e-05,-9e-05,-0.0001,-0.00013,-6e-05,-7e-05,5,16
22497,4e-05,0,-6e-05,-9e-05,-0.0001,-0.00013,-6e-05,-7e-05,5,16
22498,4e-05,0,-6e-05,-9e-05,-0.0001,-0.00013,-6e-05,-7e-05,5,16
22499,4e-05,0,-6e-05,-9e-05,-0.0001,-0.00013,-6e-05,-7e-05,5,16
22500,4e-05,0,-6e-05,-9e-05,-0.0001,-0.00013,-6e-05,-7e-05,5,16
22501,-2e-05,-4e-05,-9e-05,-0.00014,-3e-05,0,-4e-05,2e-05,5,16
22502,1e-05,-5e-05,0.00013,0.00024,-9e-05,-8e-05,-1e-05,3e-05,5,16
22503,-0.0001,-6e-05,-0.00019,0.00012,3e-05,-9e-05,-6e-05,-5e-05,5,16
22504,-0.0001,-6e-05,-0.00019,0.00012,3e-05,-9e-05,-6e-05,-5e-05,5,16
22505,-0.0001,-6e-05,-0.00019,0.00012,3e-05,-9e-05,-6e-05,-5e-05,5,16
22506,-0.0001,-6e-05,-0.00019,0.00012,3e-05,-9e-05,-6e-05,-5e-05,5,16
22507,-0.0001,-6e-05,-0.00019,0.00012,3e-05,-9e-05,-6e-05,-5e-05,5,16
22508,-0.0001,-6e-05,-0.00019,0.00012,3e-05,-9e-05,-6e-05,-5e-05,5,16
22509,-3e-05,5e-05,-0.0001,7e-05,-0.00016,-0.00018,-2e-05,-2e-05,5,16
22510,-3e-05,5e-05,-0.0001,7e-05,-0.00016,-0.00018,-2e-05,-2e-05,5,16
22511,-3e-05,5e-05,-0.0001,7e-05,-0.00016,-0.00018,-2e-05,-2e-05,5,16
22512,-3e-05,5e-05,-0.0001,7e-05,-0.00016,-0.00018,-2e-05,-2e-05,5,16
22513,-3e-05,5e-05,-0.0001,7e-05,-0.00016,-0.00018,-2e-05,-2e-05,5,16
22514,-3e-05,5e-05,-0.0001,7e-05,-0.00016,-0.00018,-2e-05,-2e-05,5,16
22515,-3e-05,5e-05,-0.0001,7e-05,-0.00016,-0.00018,-2e-05,-2e-05,5,16
22516,-3e-05,5e-05,-0.0001,7e-05,-0.00016,-0.00018,-2e-05,-2e-05,5,16
22517,-3e-05,5e-05,-0.0001,7e-05,-0.00016,-0.00018,-2e-05,-2e-05,5,16
22518,-3e-05,5e-05,-0.0001,7e-05,-0.00016,-0.00018,-2e-05,-2e-05,5,16
22519,-3e-05,5e-05,-0.0001,7e-05,-0.00016,-0.00018,-2e-05,-2e-05,5,16
22520,-3e-05,5e-05,-0.0001,7e-05,-0.00016,-0.00018,-2e-05,-2e-05,5,16
22521,-3e-05,5e-05,-0.0001,7e-05,-0.00016,-0.00018,-2e-05,-2e-05,5,16
22522,-3e-05,5e-05,-0.0001,7e-05,-0.00016,-0.00018,-2e-05,-2e-05,5,16
22523,-7e-05,-2e-05,0.00015,0.00048,0.0001,2e-05,-3e-05,-5e-05,5,16
22524,-7e-05,-2e-05,0.00015,0.00048,0.0001,2e-05,-3e-05,-5e-05,5,16
22525,-7e-05,-2e-05,0.00015,0.00048,0.0001,2e-05,-3e-05,-5e-05,5,16
22526,-7e-05,-2e-05,0.00015,0.00048,0.0001,2e-05,-3e-05,-5e-05,5,16
22527,-7e-05,-2e-05,0.00015,0.00048,0.0001,2e-05,-3e-05,-5e-05,5,16
22528,-7e-05,-2e-05,0.00015,0.00048,0.0001,2e-05,-3e-05,-5e-05,5,16
22529,-7e-05,-2e-05,0.00015,0.00048,0.0001,2e-05,-3e-05,-5e-05,5,16
22530,-7e-05,-2e-05,0.00015,0.00048,0.0001,2e-05,-3e-05,-5e-05,5,16
22531,-1e-05,2e-05,-0.00014,-0.00039,-9e-05,-3e-05,1e-05,-2e-05,5,16
22532,-4e-05,-0.00012,-0.00019,-0.00015,-0.00014,-0.00025,-0.0001,-7e-05,5,16
22533,3e-05,-1e-05,1e-05,-1e-05,0.00016,-3e-05,-1e-05,1e-05,5,16
22534,3e-05,-1e-05,1e-05,-1e-05,0.00016,-3e-05,-1e-05,1e-05,5,16
22535,3e-05,-1e-05,1e-05,-1e-05,0.00016,-3e-05,-1e-05,1e-05,5,16
22536,3e-05,-1e-05,1e-05,-1e-05,0.00016,-3e-05,-1e-05,1e-05,5,16
22538,3e-05,-1e-05,1e-05,-1e-05,0.00016,-3e-05,-1e-05,1e-05,5,16
22539,3e-05,-1e-05,1e-05,-1e-05,0.00016,-3e-05,-1e-05,1e-05,5,16
22540,3e-05,-1e-05,1e-05,-1e-05,0.00016,-3e-05,-1e-05,1e-05,5,16
22541,3e-05,-1e-05,1e-05,-1e-05,0.00016,-3e-05,-1e-05,1e-05,5,16
22542,3e-05,-1e-05,1e-05,-1e-05,0.00016,-3e-05,-1e-05,1e-05,5,16
22543,3e-05,-1e-05,1e-05,-1e-05,0.00016,-3e-05,-1e-05,1e-05,5,16
22544,3e-05,-1e-05,1e-05,-1e-05,0.00016,-3e-05,-1e-05,1e-05,5,16
22545,3e-05,-1e-05,1e-05,-1e-05,0.00016,-3e-05,-1e-05,1e-05,5,16
22546,3e-05,-1e-05,1e-05,-1e-05,0.00016,-3e-05,-1e-05,1e-05,5,16
22547,3e-05,-1e-05,1e-05,-1e-05,0.00016,-3e-05,-1e-05,1e-05,5,16
22548,3e-05,-1e-05,1e-05,-1e-05,0.00016,-3e-05,-1e-05,1e-05,5,16
22549,3e-05,-1e-05,1e-05,-1e-05,0.00016,-3e-05,-1e-05,1e-05,5,16
22550,3e-05,-1e-05,1e-05,-1e-05,0.00016,-3e-05,-1e-05,1e-05,5,16
22551,3e-05,-1e-05,1e-05,-1e-05,0.00016,-3e-05,-1e-05,1e-05,5,16
22552,3e-05,-1e-05,1e-05,-1e-05,0.00016,-3e-05,-1e-05,1e-05,5,16
22553,3e-05,-1e-05,1e-05,-1e-05,0.00016,-3e-05,-1e-05,1e-05,5,16
22554,-0.00013,3e-05,-2e-05,4e-05,-0.00048,-0.00046,-0.00013,-4e-05,5,16
22555,-0.00013,3e-05,-2e-05,4e-05,-0.00048,-0.00046,-0.00013,-4e-05,5,16
22556,-2e-05,2e-05,-4e-05,-0.00012,9e-05,0.0001,0.00012,0,5,16
22557,-2e-05,2e-05,-4e-05,-0.00012,9e-05,0.0001,0.00012,0,5,16
22558,-2e-05,2e-05,-4e-05,-0.00012,9e-05,0.0001,0.00012,0,5,16
22559,-2e-05,2e-05,-4e-05,-0.00012,9e-05,0.0001,0.00012,0,5,16
22560,-2e-05,2e-05,-4e-05,-0.00012,9e-05,0.0001,0.00012,0,5,16
22561,-2e-05,2e-05,-4e-05,-0.00012,9e-05,0.0001,0.00012,0,5,16
22562,-2e-05,2e-05,-4e-05,-0.00012,9e-05,0.0001,0.00012,0,5,16
22563,-2e-05,2e-05,-4e-05,-0.00012,9e-05,0.0001,0.00012,0,5,16
22564,-2e-05,2e-05,-4e-05,-0.00012,9e-05,0.0001,0.00012,0,5,16
22565,-2e-05,2e-05,-4e-05,-0.00012,9e-05,0.0001,0.00012,0,5,16
22566,-2e-05,2e-05,-4e-05,-0.00012,9e-05,0.0001,0.00012,0,5,16
22567,-2e-05,2e-05,-4e-05,-0.00012,9e-05,0.0001,0.00012,0,5,16
22568,-2e-05,2e-05,-4e-05,-0.00012,9e-05,0.0001,0.00012,0,5,16
22569,-2e-05,2e-05,-4e-05,-0.00012,9e-05,0.0001,0.00012,0,5,16
22570,-2e-05,2e-05,-4e-05,-0.00012,9e-05,0.0001,0.00012,0,5,16
22571,-2e-05,2e-05,-4e-05,-0.00012,9e-05,0.0001,0.00012,0,5,16
22572,-2e-05,2e-05,-4e-05,-0.00012,9e-05,0.0001,0.00012,0,5,16
22573,-2e-05,2e-05,-4e-05,-0.00012,9e-05,0.0001,0.00012,0,5,16
22574,-2e-05,2e-05,-4e-05,-0.00012,9e-05,0.0001,0.00012,0,5,16
22575,-2e-05,2e-05,-4e-05,-0.00012,9e-05,0.0001,0.00012,0,5,16
22576,-2e-05,2e-05,-4e-05,-0.00012,9e-05,0.0001,0.00012,0,5,16
22577,-2e-05,2e-05,-4e-05,-0.00012,9e-05,0.0001,0.00012,0,5,16
22578,4e-05,0,-5e-05,-0.00054,-0.00016,5e-05,0,9e-05,5,16
22579,4e-05,0,-5e-05,-0.00054,-0.00016,5e-05,0,9e-05,5,16
22580,4e-05,0,-5e-05,-0.00054,-0.00016,5e-05,0,9e-05,5,16
22581,4e-05,0,-5e-05,-0.00054,-0.00016,5e-05,0,9e-05,5,16
22582,4e-05,0,-5e-05,-0.00054,-0.00016,5e-05,0,9e-05,5,16
22583,1e-05,0,2e-05,-9e-05,-5e-05,7e-05,-2e-05,-2e-05,5,16
22584,1e-05,0,2e-05,-9e-05,-5e-05,7e-05,-2e-05,-2e-05,5,16
22585,1e-05,0,2e-05,-9e-05,-5e-05,7e-05,-2e-05,-2e-05,5,16
22586,1e-05,0,2e-05,-9e-05,-5e-05,7e-05,-2e-05,-2e-05,5,16
22588,1e-05,0,2e-05,-9e-05,-5e-05,7e-05,-2e-05,-2e-05,5,16
22589,1e-05,0,2e-05,-9e-05,-5e-05,7e-05,-2e-05,-2e-05,5,16
22590,1e-05,0,2e-05,-9e-05,-5e-05,7e-05,-2e-05,-2e-05,5,16
22591,1e-05,0,2e-05,-9e-05,-5e-05,7e-05,-2e-05,-2e-05,5,16
22592,1e-05,0,2e-05,-9e-05,-5e-05,7e-05,-2e-05,-2e-05,5,16
22593,-4e-05,-1e-05,-5e-05,-0.00032,-3e-05,6e-05,0,-4e-05,5,16
22594,-4e-05,-1e-05,-5e-05,-0.00032,-3e-05,6e-05,0,-4e-05,5,16
22595,-4e-05,-1e-05,-5e-05,-0.00032,-3e-05,6e-05,0,-4e-05,5,16
22596,-4e-05,-1e-05,-5e-05,-0.00032,-3e-05,6e-05,0,-4e-05,5,16
22597,-4e-05,-1e-05,-5e-05,-0.00032,-3e-05,6e-05,0,-4e-05,5,16
22598,-4e-05,-1e-05,-5e-05,-0.00032,-3e-05,6e-05,0,-4e-05,5,16
22599,-4e-05,-1e-05,-5e-05,-0.00032,-3e-05,6e-05,0,-4e-05,5,16
22600,-4e-05,-1e-05,-5e-05,-0.00032,-3e-05,6e-05,0,-4e-05,5,16
22601,-4e-05,-1e-05,-5e-05,-0.00032,-3e-05,6e-05,0,-4e-05,5,16
22602,-4e-05,-1e-05,-5e-05,-0.00032,-3e-05,6e-05,0,-4e-05,5,16
22603,-4e-05,-1e-05,-5e-05,-0.00032,-3e-05,6e-05,0,-4e-05,5,16
22604,-4e-05,-1e-05,-5e-05,-0.00032,-3e-05,6e-05,0,-4e-05,5,16
22605,-4e-05,-1e-05,-5e-05,-0.00032,-3e-05,6e-05,0,-4e-05,5,16
22606,-4e-05,-1e-05,-5e-05,-0.00032,-3e-05,6e-05,0,-4e-05,5,16
22607,-4e-05,-1e-05,-5e-05,-0.00032,-3e-05,6e-05,0,-4e-05,5,16
22608,-4e-05,-1e-05,-5e-05,-0.00032,-3e-05,6e-05,0,-4e-05,5,16
22609,-4e-05,-1e-05,-5e-05,-0.00032,-3e-05,6e-05,0,-4e-05,5,16
22610,-4e-05,-1e-05,-5e-05,-0.00032,-3e-05,6e-05,0,-4e-05,5,16
22611,-4e-05,-1e-05,-5e-05,-0.00032,-3e-05,6e-05,0,-4e-05,5,16
22613,-4e-05,-1e-05,-5e-05,-0.00032,-3e-05,6e-05,0,-4e-05,5,16
22614,-4e-05,-1e-05,-5e-05,-0.00032,-3e-05,6e-05,0,-4e-05,5,16
22615,5e-05,0.0001,5e-05,2e-05,0.00039,8e-05,7e-05,0,5,16
22616,5e-05,0.0001,5e-05,2e-05,0.00039,8e-05,7e-05,0,5,16
22617,5e-05,0.0001,5e-05,2e-05,0.00039,8e-05,7e-05,0,5,16
22618,5e-05,0.0001,5e-05,2e-05,0.00039,8e-05,7e-05,0,5,16
22619,5e-05,0.0001,5e-05,2e-05,0.00039,8e-05,7e-05,0,5,16
22620,-4e-05,-0.00014,-0.00011,-0.00015,-0.00024,-0.00025,-0.0001,-3e-05,5,16
22621,-4e-05,-0.00014,-0.00011,-0.00015,-0.00024,-0.00025,-0.0001,-3e-05,5,16
22622,-4e-05,-0.00014,-0.00011,-0.00015,-0.00024,-0.00025,-0.0001,-3e-05,5,16
22623,-4e-05,-0.00014,-0.00011,-0.00015,-0.00024,-0.00025,-0.0001,-3e-05,5,16
22624,-4e-05,-0.00014,-0.00011,-0.00015,-0.00024,-0.00025,-0.0001,-3e-05,5,16
22625,-4e-05,-0.00014,-0.00011,-0.00015,-0.00024,-0.00025,-0.0001,-3e-05,5,16
22626,-4e-05,-0.00014,-0.00011,-0.00015,-0.00024,-0.00025,-0.0001,-3e-05,5,16
22627,-4e-05,-0.00014,-0.00011,-0.00015,-0.00024,-0.00025,-0.0001,-3e-05,5,16
22628,6e-05,-1e-05,2e-05,-5e-05,-5e-05,2e-05,-4e-05,1e-05,5,16
22629,6e-05,-1e-05,2e-05,-5e-05,-5e-05,2e-05,-4e-05,1e-05,5,16
22630,6e-05,-1e-05,2e-05,-5e-05,-5e-05,2e-05,-4e-05,1e-05,5,16
22631,6e-05,-1e-05,2e-05,-5e-05,-5e-05,2e-05,-4e-05,1e-05,5,16
22632,6e-05,-1e-05,2e-05,-5e-05,-5e-05,2e-05,-4e-05,1e-05,5,16
22633,6e-05,-1e-05,2e-05,-5e-05,-5e-05,2e-05,-4e-05,1e-05,5,16
22634,6e-05,-1e-05,2e-05,-5e-05,-5e-05,2e-05,-4e-05,1e-05,5,16
22635,6e-05,-1e-05,2e-05,-5e-05,-5e-05,2e-05,-4e-05,1e-05,5,16
22636,6e-05,-1e-05,2e-05,-5e-05,-5e-05,2e-05,-4e-05,1e-05,5,16
22638,0.00016,4e-05,-3e-05,0.00022,-1e-05,1e-05,3e-05,3e-05,5,16
22639,0.00016,4e-05,-3e-05,0.00022,-1e-05,1e-05,3e-05,3e-05,5,16
22640,0.00016,4e-05,-3e-05,0.00022,-1e-05,1e-05,3e-05,3e-05,5,16
22641,0.00016,4e-05,-3e-05,0.00022,-1e-05,1e-05,3e-05,3e-05,5,16
22642,0.00016,4e-05,-3e-05,0.00022,-1e-05,1e-05,3e-05,3e-05,5,16
22643,0.00016,4e-05,-3e-05,0.00022,-1e-05,1e-05,3e-05,3e-05,5,16
22644,0.00016,4e-05,-3e-05,0.00022,-1e-05,1e-05,3e-05,3e-05,5,16
22645,0.00016,4e-05,-3e-05,0.00022,-1e-05,1e-05,3e-05,3e-05,5,16
22646,0.00016,4e-05,-3e-05,0.00022,-1e-05,1e-05,3e-05,3e-05,5,16
22647,0.00016,4e-05,-3e-05,0.00022,-1e-05,1e-05,3e-05,3e-05,5,16
22648,0.00016,4e-05,-3e-05,0.00022,-1e-05,1e-05,3e-05,3e-05,5,16
22649,0.00016,4e-05,-3e-05,0.00022,-1e-05,1e-05,3e-05,3e-05,5,16
22650,0.00016,4e-05,-3e-05,0.00022,-1e-05,1e-05,3e-05,3e-05,5,16
22651,0.00016,4e-05,-3e-05,0.00022,-1e-05,1e-05,3e-05,3e-05,5,16
22652,9e-05,4e-05,4e-05,0.00011,7e-05,0.00026,2e-05,-4e-05,5,16
22653,2e-05,4e-05,0.00013,0.0003,0.00034,0.00038,9e-05,3e-05,5,16
22654,2e-05,4e-05,0.00013,0.0003,0.00034,0.00038,9e-05,3e-05,5,16
22655,2e-05,4e-05,0.00013,0.0003,0.00034,0.00038,9e-05,3e-05,5,16
22656,2e-05,4e-05,0.00013,0.0003,0.00034,0.00038,9e-05,3e-05,5,16
22657,2e-05,4e-05,0.00013,0.0003,0.00034,0.00038,9e-05,3e-05,5,16
22658,2e-05,4e-05,0.00013,0.0003,0.00034,0.00038,9e-05,3e-05,5,16
22659,2e-05,4e-05,0.00013,0.0003,0.00034,0.00038,9e-05,3e-05,5,16
22660,2e-05,4e-05,0.00013,0.0003,0.00034,0.00038,9e-05,3e-05,5,16
22661,2e-05,4e-05,0.00013,0.0003,0.00034,0.00038,9e-05,3e-05,5,16
