24551,9e-05,0.00011,2e-05,0.00073,-8e-05,-0.00013,-4e-05,1e-05,5,21
24552,9e-05,0.00011,2e-05,0.00073,-8e-05,-0.00013,-4e-05,1e-05,5,21
24553,9e-05,0.00011,2e-05,0.00073,-8e-05,-0.00013,-4e-05,1e-05,5,21
24554,9e-05,0.00011,2e-05,0.00073,-8e-05,-0.00013,-4e-05,1e-05,5,21
24555,9e-05,0.00011,2e-05,0.00073,-8e-05,-0.00013,-4e-05,1e-05,5,21
24556,9e-05,0.00011,2e-05,0.00073,-8e-05,-0.00013,-4e-05,1e-05,5,21
24557,9e-05,0.00011,2e-05,0.00073,-8e-05,-0.00013,-4e-05,1e-05,5,21
24558,9e-05,0.00011,2e-05,0.00073,-8e-05,-0.00013,-4e-05,1e-05,5,21
24559,9e-05,0.00011,2e-05,0.00073,-8e-05,-0.00013,-4e-05,1e-05,5,21
24560,9e-05,0.00011,2e-05,0.00073,-8e-05,-0.00013,-4e-05,1e-05,5,21
24561,9e-05,0.00011,2e-05,0.00073,-8e-05,-0.00013,-4e-05,1e-05,5,21
24562,-0.00043,-1e-05,0.00018,0.00044,-0.00043,-8e-05,-3e-05,-8e-05,5,21
24563,-0.00043,-1e-05,0.00018,0.00044,-0.00043,-8e-05,-3e-05,-8e-05,5,21
24564,-0.0002,-0.00011,-5e-05,-0.0004,-0.00039,2e-05,2e-05,1e-05,5,21
24565,-0.0002,-0.00011,-5e-05,-0.0004,-0.00039,2e-05,2e-05,1e-05,5,21
24566,-0.0002,-0.00011,-5e-05,-0.0004,-0.00039,2e-05,2e-05,1e-05,5,21
24567,-0.0002,-0.00011,-5e-05,-0.0004,-0.00039,2e-05,2e-05,1e-05,5,21
24568,-0.0002,-0.00011,-5e-05,-0.0004,-0.00039,2e-05,2e-05,1e-05,5,21
24569,-0.0002,-0.00011,-5e-05,-0.0004,-0.00039,2e-05,2e-05,1e-05,5,21
24570,-0.0002,-0.00011,-5e-05,-0.0004,-0.00039,2e-05,2e-05,1e-05,5,21
24571,-0.0002,-0.00011,-5e-05,-0.0004,-0.00039,2e-05,2e-05,1e-05,5,21
24572,-0.0002,-0.00011,-5e-05,-0.0004,-0.00039,2e-05,2e-05,1e-05,5,21
24573,-0.0002,-0.00011,-5e-05,-0.0004,-0.00039,2e-05,2e-05,1e-05,5,21
24574,-0.0002,-0.00011,-5e-05,-0.0004,-0.00039,2e-05,2e-05,1e-05,5,21
24575,-0.0002,-0.00011,-5e-05,-0.0004,-0.00039,2e-05,2e-05,1e-05,5,21
24576,-0.0002,-0.00011,-5e-05,-0.0004,-0.00039,2e-05,2e-05,1e-05,5,21
24577,-0.00017,-4e-05,0.0001,8e-05,0.0004,6e-05,0,-2e-05,5,21
24578,-0.00017,-4e-05,0.0001,8e-05,0.0004,6e-05,0,-2e-05,5,21
24579,-0.00011,0.00014,0.00038,0.00038,-0.00024,-2e-05,0,1e-05,5,21
24580,-0.00011,0.00014,0.00038,0.00038,-0.00024,-2e-05,0,1e-05,5,21
24581,-0.00011,0.00014,0.00038,0.00038,-0.00024,-2e-05,0,1e-05,5,21
24582,-0.00011,0.00014,0.00038,0.00038,-0.00024,-2e-05,0,1e-05,5,21
24583,-0.00011,0.00014,0.00038,0.00038,-0.00024,-2e-05,0,1e-05,5,21
24584,-0.00011,0.00014,0.00038,0.00038,-0.00024,-2e-05,0,1e-05,5,21
24585,-0.00011,0.00014,0.00038,0.00038,-0.00024,-2e-05,0,1e-05,5,21
24587,-0.00011,0.00014,0.00038,0.00038,-0.00024,-2e-05,0,1e-05,5,21
24589,-0.00011,0.00014,0.00038,0.00038,-0.00024,-2e-05,0,1e-05,5,21
24590,-0.00011,0.00014,0.00038,0.00038,-0.00024,-2e-05,0,1e-05,5,21
24591,-0.00011,0.00014,0.00038,0.00038,-0.00024,-2e-05,0,1e-05,5,21
24592,-0.00011,0.00014,0.00038,0.00038,-0.00024,-2e-05,0,1e-05,5,21
24593,-0.00011,0.00014,0.00038,0.00038,-0.00024,-2e-05,0,1e-05,5,21
24594,-0.00011,0.00014,0.00038,0.00038,-0.00024,-2e-05,0,1e-05,5,21
24595,-0.00011,0.00014,0.00038,0.00038,-0.00024,-2e-05,0,1e-05,5,21
24596,-0.00011,0.00014,0.00038,0.00038,-0.00024,-2e-05,0,1e-05,5,21
24597,-0.00011,0.00014,0.00038,0.00038,-0.00024,-2e-05,0,1e-05,5,21
24598,-0.00011,0.00014,0.00038,0.00038,-0.00024,-2e-05,0,1e-05,5,21
24599,-0.00011,0.00014,0.00038,0.00038,-0.00024,-2e-05,0,1e-05,5,21
24600,0.00013,-7e-05,-0.00026,-0.00101,4e-05,-3e-05,-1e-05,-1e-05,5,21
24601,0.00019,0,-0.00024,-0.00049,-0.00023,-0.00012,-2e-05,0,5,21
24602,3e-05,-6e-05,0.00035,-5e-05,1e-05,-4e-05,-4e-05,-1e-05,5,21
24603,3e-05,-6e-05,0.00035,-5e-05,1e-05,-4e-05,-4e-05,-1e-05,5,21
24604,3e-05,-6e-05,0.00035,-5e-05,1e-05,-4e-05,-4e-05,-1e-05,5,21
24605,3e-05,-6e-05,0.00035,-5e-05,1e-05,-4e-05,-4e-05,-1e-05,5,21
24606,3e-05,-6e-05,0.00035,-5e-05,1e-05,-4e-05,-4e-05,-1e-05,5,21
24607,3e-05,-6e-05,0.00035,-5e-05,1e-05,-4e-05,-4e-05,-1e-05,5,21
24608,3e-05,-6e-05,0.00035,-5e-05,1e-05,-4e-05,-4e-05,-1e-05,5,21
24609,3e-05,-6e-05,0.00035,-5e-05,1e-05,-4e-05,-4e-05,-1e-05,5,21
24610,3e-05,-6e-05,0.00035,-5e-05,1e-05,-4e-05,-4e-05,-1e-05,5,21
24611,3e-05,-6e-05,0.00035,-5e-05,1e-05,-4e-05,-4e-05,-1e-05,5,21
24612,3e-05,-6e-05,0.00035,-5e-05,1e-05,-4e-05,-4e-05,-1e-05,5,21
24613,3e-05,-6e-05,0.00035,-5e-05,1e-05,-4e-05,-4e-05,-1e-05,5,21
24614,3e-05,-6e-05,0.00035,-5e-05,1e-05,-4e-05,-4e-05,-1e-05,5,21
24615,3e-05,-6e-05,0.00035,-5e-05,1e-05,-4e-05,-4e-05,-1e-05,5,21
24616,3e-05,-6e-05,0.00035,-5e-05,1e-05,-4e-05,-4e-05,-1e-05,5,21
24617,3e-05,-6e-05,0.00035,-5e-05,1e-05,-4e-05,-4e-05,-1e-05,5,21
24618,3e-05,-6e-05,0.00035,-5e-05,1e-05,-4e-05,-4e-05,-1e-05,5,21
24619,3e-05,-6e-05,0.00035,-5e-05,1e-05,-4e-05,-4e-05,-1e-05,5,21
24620,3e-05,-6e-05,0.00035,-5e-05,1e-05,-4e-05,-4e-05,-1e-05,5,21
24621,3e-05,-6e-05,0.00035,-5e-05,1e-05,-4e-05,-4e-05,-1e-05,5,21
24622,0.0005,1e-05,0.00014,0.00053,-9e-05,3e-05,-1e-05,0,5,21
24623,0.0005,1e-05,0.00014,0.00053,-9e-05,3e-05,-1e-05,0,5,21
24624,6e-05,-3e-05,-7e-05,0.00022,0.00028,-1e-05,-3e-05,-3e-05,5,21
24625,6e-05,-3e-05,-7e-05,0.00022,0.00028,-1e-05,-3e-05,-3e-05,5,21
24626,6e-05,-3e-05,-7e-05,0.00022,0.00028,-1e-05,-3e-05,-3e-05,5,21
24627,6e-05,-3e-05,-7e-05,0.00022,0.00028,-1e-05,-3e-05,-3e-05,5,21
24628,6e-05,-3e-05,-7e-05,0.00022,0.00028,-1e-05,-3e-05,-3e-05,5,21
24629,6e-05,-3e-05,-7e-05,0.00022,0.00028,-1e-05,-3e-05,-3e-05,5,21
24630,6e-05,-3e-05,-7e-05,0.00022,0.00028,-1e-05,-3e-05,-3e-05,5,21
24631,6e-05,-3e-05,-7e-05,0.00022,0.00028,-1e-05,-3e-05,-3e-05,5,21
24632,6e-05,-3e-05,-7e-05,0.00022,0.00028,-1e-05,-3e-05,-3e-05,5,21
24633,6e-05,-3e-05,-7e-05,0.00022,0.00028,-1e-05,-3e-05,-3e-05,5,21
24634,6e-05,-3e-05,-7e-05,0.00022,0.00028,-1e-05,-3e-05,-3e-05,5,21
24635,6e-05,-3e-05,-7e-05,0.00022,0.00028,-1e-05,-3e-05,-3e-05,5,21
24637,0.00011,-4e-05,2e-05,0.00034,7e-05,-5e-05,-6e-05,-2e-05,5,21
24639,0.00011,-4e-05,2e-05,0.00034,7e-05,-5e-05,-6e-05,-2e-05,5,21
24640,0.00011,-4e-05,2e-05,0.00034,7e-05,-5e-05,-6e-05,-2e-05,5,21
24641,0.00011,-4e-05,2e-05,0.00034,7e-05,-5e-05,-6e-05,-2e-05,5,21
24642,0.00011,-4e-05,2e-05,0.00034,7e-05,-5e-05,-6e-05,-2e-05,5,21
24643,0.00011,-4e-05,2e-05,0.00034,7e-05,-5e-05,-6e-05,-2e-05,5,21
24644,-0.00045,-6e-05,-7e-05,-2e-05,-0.00015,-3e-05,-4e-05,-5e-05,5,21
24645,-0.00045,-6e-05,-7e-05,-2e-05,-0.00015,-3e-05,-4e-05,-5e-05,5,21
24646,-0.00045,-6e-05,-7e-05,-2e-05,-0.00015,-3e-05,-4e-05,-5e-05,5,21
24647,-0.00045,-6e-05,-7e-05,-2e-05,-0.00015,-3e-05,-4e-05,-5e-05,5,21
24648,-0.00045,-6e-05,-7e-05,-2e-05,-0.00015,-3e-05,-4e-05,-5e-05,5,21
24649,-0.00045,-6e-05,-7e-05,-2e-05,-0.00015,-3e-05,-4e-05,-5e-05,5,21
24650,-0.00045,-6e-05,-7e-05,-2e-05,-0.00015,-3e-05,-4e-05,-5e-05,5,21
24651,-0.00045,-6e-05,-7e-05,-2e-05,-0.00015,-3e-05,-4e-05,-5e-05,5,21
24652,-0.00045,-6e-05,-7e-05,-2e-05,-0.00015,-3e-05,-4e-05,-5e-05,5,21
24653,-0.00045,-6e-05,-7e-05,-2e-05,-0.00015,-3e-05,-4e-05,-5e-05,5,21
24654,-0.00045,-6e-05,-7e-05,-2e-05,-0.00015,-3e-05,-4e-05,-5e-05,5,21
24655,-0.00045,-6e-05,-7e-05,-2e-05,-0.00015,-3e-05,-4e-05,-5e-05,5,21
24656,-0.00045,-6e-05,-7e-05,-2e-05,-0.00015,-3e-05,-4e-05,-5e-05,5,21
24657,-0.00045,-6e-05,-7e-05,-2e-05,-0.00015,-3e-05,-4e-05,-5e-05,5,21
24658,-0.00045,-6e-05,-7e-05,-2e-05,-0.00015,-3e-05,-4e-05,-5e-05,5,21
24659,-0.00045,-6e-05,-7e-05,-2e-05,-0.00015,-3e-05,-4e-05,-5e-05,5,21
24660,-9e-05,-6e-05,-0.0001,-0.00128,0.0001,0.0001,6e-05,1e-05,5,21
24661,-7e-05,-4e-05,0.00017,-0.00019,0.00025,0.00017,1e-05,-3e-05,5,21
24662,-7e-05,-4e-05,0.00017,-0.00019,0.00025,0.00017,1e-05,-3e-05,5,21
24663,-7e-05,-4e-05,0.00017,-0.00019,0.00025,0.00017,1e-05,-3e-05,5,21
24664,-7e-05,-4e-05,0.00017,-0.00019,0.00025,0.00017,1e-05,-3e-05,5,21
24665,-7e-05,-4e-05,0.00017,-0.00019,0.00025,0.00017,1e-05,-3e-05,5,21
24666,-7e-05,-4e-05,0.00017,-0.00019,0.00025,0.00017,1e-05,-3e-05,5,21
24667,-7e-05,-4e-05,0.00017,-0.00019,0.00025,0.00017,1e-05,-3e-05,5,21
24668,-7e-05,-4e-05,0.00017,-0.00019,0.00025,0.00017,1e-05,-3e-05,5,21
24669,-7e-05,-4e-05,0.00017,-0.00019,0.00025,0.00017,1e-05,-3e-05,5,21
24670,-7e-05,-4e-05,0.00017,-0.00019,0.00025,0.00017,1e-05,-3e-05,5,21
24671,-7e-05,-4e-05,0.00017,-0.00019,0.00025,0.00017,1e-05,-3e-05,5,21
24672,-7e-05,-4e-05,0.00017,-0.00019,0.00025,0.00017,1e-05,-3e-05,5,21
24673,-7e-05,-4e-05,0.00017,-0.00019,0.00025,0.00017,1e-05,-3e-05,5,21
24674,-7e-05,-4e-05,0.00017,-0.00019,0.00025,0.00017,1e-05,-3e-05,5,21
24675,-7e-05,-4e-05,0.00017,-0.00019,0.00025,0.00017,1e-05,-3e-05,5,21
24676,-7e-05,-4e-05,0.00017,-0.00019,0.00025,0.00017,1e-05,-3e-05,5,21
24677,-7e-05,-4e-05,0.00017,-0.00019,0.00025,0.00017,1e-05,-3e-05,5,21
24678,-7e-05,-4e-05,0.00017,-0.00019,0.00025,0.00017,1e-05,-3e-05,5,21
24679,-7e-05,-4e-05,0.00017,-0.00019,0.00025,0.00017,1e-05,-3e-05,5,21
24680,-7e-05,-4e-05,0.00017,-0.00019,0.00025,0.00017,1e-05,-3e-05,5,21
24681,-7e-05,-4e-05,0.00017,-0.00019,0.00025,0.00017,1e-05,-3e-05,5,21
24682,-0.0002,-9e-05,-9e-05,-0.00086,0.0003,-9e-05,-4e-05,0,5,21
24683,-0.0002,-9e-05,-9e-05,-0.00086,0.0003,-9e-05,-4e-05,0,5,21
24684,9e-05,1e-05,3e-05,0.00042,3e-05,-7e-05,-2e-05,0,5,21
24685,9e-05,1e-05,3e-05,0.00042,3e-05,-7e-05,-2e-05,0,5,21
24687,9e-05,1e-05,3e-05,0.00042,3e-05,-7e-05,-2e-05,0,5,21
24689,9e-05,1e-05,3e-05,0.00042,3e-05,-7e-05,-2e-05,0,5,21
24690,9e-05,1e-05,3e-05,0.00042,3e-05,-7e-05,-2e-05,0,5,21
24691,9e-05,1e-05,3e-05,0.00042,3e-05,-7e-05,-2e-05,0,5,21
24692,9e-05,1e-05,3e-05,0.00042,3e-05,-7e-05,-2e-05,0,5,21
24693,9e-05,1e-05,3e-05,0.00042,3e-05,-7e-05,-2e-05,0,5,21
24694,9e-05,1e-05,3e-05,0.00042,3e-05,-7e-05,-2e-05,0,5,21
24695,9e-05,1e-05,3e-05,0.00042,3e-05,-7e-05,-2e-05,0,5,21
24696,9e-05,1e-05,3e-05,0.00042,3e-05,-7e-05,-2e-05,0,5,21
24697,8e-05,-3e-05,-8e-05,0.00092,0.00032,-1e-05,-2e-05,4e-05,5,21
24698,8e-05,-3e-05,-8e-05,0.00092,0.00032,-1e-05,-2e-05,4e-05,5,21
24699,8e-05,-3e-05,-8e-05,0.00092,0.00032,-1e-05,-2e-05,4e-05,5,21
24700,8e-05,-3e-05,-8e-05,0.00092,0.00032,-1e-05,-2e-05,4e-05,5,21
24701,8e-05,-3e-05,-8e-05,0.00092,0.00032,-1e-05,-2e-05,4e-05,5,21
24702,8e-05,-3e-05,-8e-05,0.00092,0.00032,-1e-05,-2e-05,4e-05,5,21
24703,0.00015,-8e-05,0.00015,6e-05,0.00087,0.00028,4e-05,-2e-05,5,21
24704,0,-0.00016,-0.00046,-0.00086,-0.00065,-0.00013,-4e-05,-1e-05,5,21
24705,0,-0.00016,-0.00046,-0.00086,-0.00065,-0.00013,-4e-05,-1e-05,5,21
24706,0,-0.00016,-0.00046,-0.00086,-0.00065,-0.00013,-4e-05,-1e-05,5,21
24707,0,-0.00016,-0.00046,-0.00086,-0.00065,-0.00013,-4e-05,-1e-05,5,21
24708,0,-0.00016,-0.00046,-0.00086,-0.00065,-0.00013,-4e-05,-1e-05,5,21
24709,0,-0.00016,-0.00046,-0.00086,-0.00065,-0.00013,-4e-05,-1e-05,5,21
24710,0,-0.00016,-0.00046,-0.00086,-0.00065,-0.00013,-4e-05,-1e-05,5,21
24711,0,-0.00016,-0.00046,-0.00086,-0.00065,-0.00013,-4e-05,-1e-05,5,21
24712,0,-0.00016,-0.00046,-0.00086,-0.00065,-0.00013,-4e-05,-1e-05,5,21
24713,0,-0.00016,-0.00046,-0.00086,-0.00065,-0.00013,-4e-05,-1e-05,5,21
24714,0,-0.00016,-0.00046,-0.00086,-0.00065,-0.00013,-4e-05,-1e-05,5,21
24715,0,-0.00016,-0.00046,-0.00086,-0.00065,-0.00013,-4e-05,-1e-05,5,21
24716,0,-0.00016,-0.00046,-0.00086,-0.00065,-0.00013,-4e-05,-1e-05,5,21
24717,0,-0.00016,-0.00046,-0.00086,-0.00065,-0.00013,-4e-05,-1e-05,5,21
24718,0,-0.00016,-0.00046,-0.00086,-0.00065,-0.00013,-4e-05,-1e-05,5,21
24719,0,-0.00016,-0.00046,-0.00086,-0.00065,-0.00013,-4e-05,-1e-05,5,21
24720,0.00044,0.00012,-0.00015,-3e-05,-0.00019,-1e-05,4e-05,9e-05,5,21
24721,-0.0003,1e-05,0.00033,-0.00026,-0.00075,-5e-05,-1e-05,1e-05,5,21
24722,-0.0001,-3e-05,-1e-05,0.00075,0.00045,8e-05,3e-05,-3e-05,5,21
24723,-0.0001,-3e-05,-1e-05,0.00075,0.00045,8e-05,3e-05,-3e-05,5,21
24724,-0.0001,-3e-05,-1e-05,0.00075,0.00045,8e-05,3e-05,-3e-05,5,21
24725,-0.0001,-3e-05,-1e-05,0.00075,0.00045,8e-05,3e-05,-3e-05,5,21
24726,-0.0001,-3e-05,-1e-05,0.00075,0.00045,8e-05,3e-05,-3e-05,5,21
24727,-0.0001,-3e-05,-1e-05,0.00075,0.00045,8e-05,3e-05,-3e-05,5,21
24728,-0.0001,-3e-05,-1e-05,0.00075,0.00045,8e-05,3e-05,-3e-05,5,21
24729,-0.0001,-3e-05,-1e-05,0.00075,0.00045,8e-05,3e-05,-3e-05,5,21
24730,-0.0001,-3e-05,-1e-05,0.00075,0.00045,8e-05,3e-05,-3e-05,5,21
24731,-0.0001,-3e-05,-1e-05,0.00075,0.00045,8e-05,3e-05,-3e-05,5,21
24732,-0.0001,-3e-05,-1e-05,0.00075,0.00045,8e-05,3e-05,-3e-05,5,21
24733,-0.0001,-3e-05,-1e-05,0.00075,0.00045,8e-05,3e-05,-3e-05,5,21
24734,-0.0001,-3e-05,-1e-05,0.00075,0.00045,8e-05,3e-05,-3e-05,5,21
24735,-0.0001,-3e-05,-1e-05,0.00075,0.00045,8e-05,3e-05,-3e-05,5,21
24737,-0.0001,-3e-05,-1e-05,0.00075,0.00045,8e-05,3e-05,-3e-05,5,21
24739,-0.0001,-3e-05,-1e-05,0.00075,0.00045,8e-05,3e-05,-3e-05,5,21
24740,-0.0001,-3e-05,-1e-05,0.00075,0.00045,8e-05,3e-05,-3e-05,5,21
24741,-0.0001,-3e-05,-1e-05,0.00075,0.00045,8e-05,3e-05,-3e-05,5,21
24742,-0.0001,-3e-05,-1e-05,0.00075,0.00045,8e-05,3e-05,-3e-05,5,21
24743,4e-05,8e-05,-0.00014,0.00019,0.00023,-1e-05,0,0,5,21
24744,3e-05,-2e-05,8e-05,9e-05,-0.00072,-0.0001,-1e-05,3e-05,5,21
24745,3e-05,-2e-05,8e-05,9e-05,-0.00072,-0.0001,-1e-05,3e-05,5,21
24746,3e-05,-2e-05,8e-05,9e-05,-0.00072,-0.0001,-1e-05,3e-05,5,21
24747,3e-05,-2e-05,8e-05,9e-05,-0.00072,-0.0001,-1e-05,3e-05,5,21
24748,3e-05,-2e-05,8e-05,9e-05,-0.00072,-0.0001,-1e-05,3e-05,5,21
24749,3e-05,-2e-05,8e-05,9e-05,-0.00072,-0.0001,-1e-05,3e-05,5,21
24750,3e-05,-2e-05,8e-05,9e-05,-0.00072,-0.0001,-1e-05,3e-05,5,21
24751,3e-05,-2e-05,8e-05,9e-05,-0.00072,-0.0001,-1e-05,3e-05,5,21
24752,3e-05,-2e-05,8e-05,9e-05,-0.00072,-0.0001,-1e-05,3e-05,5,21
24753,3e-05,-2e-05,8e-05,9e-05,-0.00072,-0.0001,-1e-05,3e-05,5,21
24754,3e-05,-2e-05,8e-05,9e-05,-0.00072,-0.0001,-1e-05,3e-05,5,21
24755,3e-05,-2e-05,8e-05,9e-05,-0.00072,-0.0001,-1e-05,3e-05,5,21
24756,3e-05,-2e-05,8e-05,9e-05,-0.00072,-0.0001,-1e-05,3e-05,5,21
24757,-0.00019,-0.00011,0.00011,0.00013,-0.00018,-8e-05,-9e-05,-0.00011,5,21
24758,-0.00019,-0.00011,0.00011,0.00013,-0.00018,-8e-05,-9e-05,-0.00011,5,21
24759,-0.00019,-0.00011,0.00011,0.00013,-0.00018,-8e-05,-9e-05,-0.00011,5,21
24760,-0.00019,-0.00011,0.00011,0.00013,-0.00018,-8e-05,-9e-05,-0.00011,5,21
24761,-0.00019,-0.00011,0.00011,0.00013,-0.00018,-8e-05,-9e-05,-0.00011,5,21
24762,-0.00019,-0.00011,0.00011,0.00013,-0.00018,-8e-05,-9e-05,-0.00011,5,21
24763,0.00014,3e-05,-0.0003,0.00024,2e-05,-4e-05,2e-05,3e-05,5,21
24764,-0.00016,4e-05,0.0001,0.00033,0.00049,-4e-05,0,0,5,21
24765,-0.00016,4e-05,0.0001,0.00033,0.00049,-4e-05,0,0,5,21
24766,-0.00016,4e-05,0.0001,0.00033,0.00049,-4e-05,0,0,5,21
24767,-0.00016,4e-05,0.0001,0.00033,0.00049,-4e-05,0,0,5,21
24768,-0.00016,4e-05,0.0001,0.00033,0.00049,-4e-05,0,0,5,21
24769,-0.00016,4e-05,0.0001,0.00033,0.00049,-4e-05,0,0,5,21
24770,-0.00016,4e-05,0.0001,0.00033,0.00049,-4e-05,0,0,5,21
24771,-0.00016,4e-05,0.0001,0.00033,0.00049,-4e-05,0,0,5,21
24772,-0.00016,4e-05,0.0001,0.00033,0.00049,-4e-05,0,0,5,21
24773,-0.00016,4e-05,0.0001,0.00033,0.00049,-4e-05,0,0,5,21
24774,-0.00016,4e-05,0.0001,0.00033,0.00049,-4e-05,0,0,5,21
24775,-0.00016,4e-05,0.0001,0.00033,0.00049,-4e-05,0,0,5,21
24776,-0.00016,4e-05,0.0001,0.00033,0.00049,-4e-05,0,0,5,21
24777,-0.00016,4e-05,0.0001,0.00033,0.00049,-4e-05,0,0,5,21
24778,-0.00016,4e-05,0.0001,0.00033,0.00049,-4e-05,0,0,5,21
24779,-0.00016,4e-05,0.0001,0.00033,0.00049,-4e-05,0,0,5,21
24780,2e-05,-3e-05,-0.00013,-0.00029,-0.00024,2e-05,3e-05,4e-05,5,21
24781,2e-05,-3e-05,-0.00013,-0.00029,-0.00024,2e-05,3e-05,4e-05,5,21
24782,-0.00028,-0.00017,2e-05,0.0002,-0.00028,0,-1e-05,-8e-05,5,21
24783,-0.00028,-0.00017,2e-05,0.0002,-0.00028,0,-1e-05,-8e-05,5,21
24784,-0.00028,-0.00017,2e-05,0.0002,-0.00028,0,-1e-05,-8e-05,5,21
24785,-0.00028,-0.00017,2e-05,0.0002,-0.00028,0,-1e-05,-8e-05,5,21
24787,-0.00028,-0.00017,2e-05,0.0002,-0.00028,0,-1e-05,-8e-05,5,21
24789,-0.00028,-0.00017,2e-05,0.0002,-0.00028,0,-1e-05,-8e-05,5,21
24790,-0.00028,-0.00017,2e-05,0.0002,-0.00028,0,-1e-05,-8e-05,5,21
24791,-0.00028,-0.00017,2e-05,0.0002,-0.00028,0,-1e-05,-8e-05,5,21
24792,-0.00028,-0.00017,2e-05,0.0002,-0.00028,0,-1e-05,-8e-05,5,21
24793,-0.00028,-0.00017,2e-05,0.0002,-0.00028,0,-1e-05,-8e-05,5,21
24794,-0.00028,-0.00017,2e-05,0.0002,-0.00028,0,-1e-05,-8e-05,5,21
24795,-0.00028,-0.00017,2e-05,0.0002,-0.00028,0,-1e-05,-8e-05,5,21
24796,-0.00028,-0.00017,2e-05,0.0002,-0.00028,0,-1e-05,-8e-05,5,21
24797,-0.00028,-0.00017,2e-05,0.0002,-0.00028,0,-1e-05,-8e-05,5,21
24798,-0.00028,-0.00017,2e-05,0.0002,-0.00028,0,-1e-05,-8e-05,5,21
24799,-0.00028,-0.00017,2e-05,0.0002,-0.00028,0,-1e-05,-8e-05,5,21
24800,-0.00028,-0.00017,2e-05,0.0002,-0.00028,0,-1e-05,-8e-05,5,21
24801,-0.00028,-0.00017,2e-05,0.0002,-0.00028,0,-1e-05,-8e-05,5,21
24802,-5e-05,-0.00012,-0.00056,0.0004,0.00046,-2e-05,-3e-05,-6e-05,5,21
24803,-5e-05,-0.00012,-0.00056,0.0004,0.00046,-2e-05,-3e-05,-6e-05,5,21
24804,-0.00019,-4e-05,-0.0001,-0.00034,6e-05,4e-05,-1e-05,-1e-05,5,21
24805,-0.00019,-4e-05,-0.0001,-0.00034,6e-05,4e-05,-1e-05,-1e-05,5,21
24806,-0.00019,-4e-05,-0.0001,-0.00034,6e-05,4e-05,-1e-05,-1e-05,5,21
24807,-0.00019,-4e-05,-0.0001,-0.00034,6e-05,4e-05,-1e-05,-1e-05,5,21
24808,-0.00019,-4e-05,-0.0001,-0.00034,6e-05,4e-05,-1e-05,-1e-05,5,21
24809,-0.00019,-4e-05,-0.0001,-0.00034,6e-05,4e-05,-1e-05,-1e-05,5,21
24810,-0.00019,-4e-05,-0.0001,-0.00034,6e-05,4e-05,-1e-05,-1e-05,5,21
24811,-0.00019,-4e-05,-0.0001,-0.00034,6e-05,4e-05,-1e-05,-1e-05,5,21
24812,-0.00019,-4e-05,-0.0001,-0.00034,6e-05,4e-05,-1e-05,-1e-05,5,21
24813,-0.00019,-4e-05,-0.0001,-0.00034,6e-05,4e-05,-1e-05,-1e-05,5,21
24814,-0.00019,-4e-05,-0.0001,-0.00034,6e-05,4e-05,-1e-05,-1e-05,5,21
24815,-0.00019,-4e-05,-0.0001,-0.00034,6e-05,4e-05,-1e-05,-1e-05,5,21
24816,-0.00019,-4e-05,-0.0001,-0.00034,6e-05,4e-05,-1e-05,-1e-05,5,21
24817,-0.00015,-2e-05,-0.00014,-0.00042,-0.00046,0,-2e-05,-8e-05,5,21
24818,-0.00015,-2e-05,-0.00014,-0.00042,-0.00046,0,-2e-05,-8e-05,5,21
24819,-0.00015,-2e-05,-0.00014,-0.00042,-0.00046,0,-2e-05,-8e-05,5,21
24820,-0.00015,-2e-05,-0.00014,-0.00042,-0.00046,0,-2e-05,-8e-05,5,21
24821,-0.00015,-2e-05,-0.00014,-0.00042,-0.00046,0,-2e-05,-8e-05,5,21
24822,-0.00015,-2e-05,-0.00014,-0.00042,-0.00046,0,-2e-05,-8e-05,5,21
24823,0.00022,7e-05,0.00024,0.00015,0.00032,0.00014,6e-05,9e-05,5,21
24824,5e-05,-7e-05,-0.00027,0.00022,0.00021,-3e-05,-2e-05,-8e-05,5,21
24825,5e-05,-7e-05,-0.00027,0.00022,0.00021,-3e-05,-2e-05,-8e-05,5,21
24826,5e-05,-7e-05,-0.00027,0.00022,0.00021,-3e-05,-2e-05,-8e-05,5,21
24827,5e-05,-7e-05,-0.00027,0.00022,0.00021,-3e-05,-2e-05,-8e-05,5,21
24828,5e-05,-7e-05,-0.00027,0.00022,0.00021,-3e-05,-2e-05,-8e-05,5,21
24829,5e-05,-7e-05,-0.00027,0.00022,0.00021,-3e-05,-2e-05,-8e-05,5,21
24830,5e-05,-7e-05,-0.00027,0.00022,0.00021,-3e-05,-2e-05,-8e-05,5,21
24831,5e-05,-7e-05,-0.00027,0.00022,0.00021,-3e-05,-2e-05,-8e-05,5,21
24832,5e-05,-7e-05,-0.00027,0.00022,0.00021,-3e-05,-2e-05,-8e-05,5,21
24833,5e-05,-7e-05,-0.00027,0.00022,0.00021,-3e-05,-2e-05,-8e-05,5,21
24834,5e-05,-7e-05,-0.00027,0.00022,0.00021,-3e-05,-2e-05,-8e-05,5,21
24835,5e-05,-7e-05,-0.00027,0.00022,0.00021,-3e-05,-2e-05,-8e-05,5,21
24837,5e-05,-7e-05,-0.00027,0.00022,0.00021,-3e-05,-2e-05,-8e-05,5,21
24839,5e-05,-7e-05,-0.00027,0.00022,0.00021,-3e-05,-2e-05,-8e-05,5,21
24840,-0.00013,2e-05,0.00023,-0.00056,0.00016,-3e-05,-4e-05,-6e-05,5,21
24841,-0.00086,-0.00024,0.00012,-0.00043,-0.00014,0.00014,3e-05,-0.00017,5,21
24842,-0.00086,-0.00024,0.00012,-0.00043,-0.00014,0.00014,3e-05,-0.00017,5,21
24843,-0.00086,-0.00024,0.00012,-0.00043,-0.00014,0.00014,3e-05,-0.00017,5,21
24844,-0.00086,-0.00024,0.00012,-0.00043,-0.00014,0.00014,3e-05,-0.00017,5,21
24845,-0.00086,-0.00024,0.00012,-0.00043,-0.00014,0.00014,3e-05,-0.00017,5,21
24846,-0.00086,-0.00024,0.00012,-0.00043,-0.00014,0.00014,3e-05,-0.00017,5,21
24847,-0.00086,-0.00024,0.00012,-0.00043,-0.00014,0.00014,3e-05,-0.00017,5,21
24848,-0.00086,-0.00024,0.00012,-0.00043,-0.00014,0.00014,3e-05,-0.00017,5,21
24849,-0.00086,-0.00024,0.00012,-0.00043,-0.00014,0.00014,3e-05,-0.00017,5,21
24850,-0.00086,-0.00024,0.00012,-0.00043,-0.00014,0.00014,3e-05,-0.00017,5,21
24851,-0.00086,-0.00024,0.00012,-0.00043,-0.00014,0.00014,3e-05,-0.00017,5,21
24852,-0.00086,-0.00024,0.00012,-0.00043,-0.00014,0.00014,3e-05,-0.00017,5,21
24855,-0.00086,-0.00024,0.00012,-0.00043,-0.00014,0.00014,3e-05,-0.00017,5,21
24856,-0.00086,-0.00024,0.00012,-0.00043,-0.00014,0.00014,3e-05,-0.00017,5,21
24857,-0.00086,-0.00024,0.00012,-0.00043,-0.00014,0.00014,3e-05,-0.00017,5,21
24858,-0.00086,-0.00024,0.00012,-0.00043,-0.00014,0.00014,3e-05,-0.00017,5,21
24859,-0.00086,-0.00024,0.00012,-0.00043,-0.00014,0.00014,3e-05,-0.00017,5,21
24860,-0.00086,-0.00024,0.00012,-0.00043,-0.00014,0.00014,3e-05,-0.00017,5,21
24861,-0.00086,-0.00024,0.00012,-0.00043,-0.00014,0.00014,3e-05,-0.00017,5,21
24862,0.00012,-5e-05,-0.00013,0.00108,4e-05,2e-05,-1e-05,0,5,21
24863,-0.00012,5e-05,0.00021,8e-05,-0.0001,-2e-05,0,-1e-05,5,21
24864,0.00031,3e-05,-9e-05,0.00041,-0.00017,-6e-05,-1e-05,8e-05,5,21
24865,0.00031,3e-05,-9e-05,0.00041,-0.00017,-6e-05,-1e-05,8e-05,5,21
24866,0.00031,3e-05,-9e-05,0.00041,-0.00017,-6e-05,-1e-05,8e-05,5,21
24867,0.00031,3e-05,-9e-05,0.00041,-0.00017,-6e-05,-1e-05,8e-05,5,21
24868,0.00031,3e-05,-9e-05,0.00041,-0.00017,-6e-05,-1e-05,8e-05,5,21
24869,0.00031,3e-05,-9e-05,0.00041,-0.00017,-6e-05,-1e-05,8e-05,5,21
24870,0.00031,3e-05,-9e-05,0.00041,-0.00017,-6e-05,-1e-05,8e-05,5,21
24871,0.00031,3e-05,-9e-05,0.00041,-0.00017,-6e-05,-1e-05,8e-05,5,21
24872,0.00031,3e-05,-9e-05,0.00041,-0.00017,-6e-05,-1e-05,8e-05,5,21
24873,0.00031,3e-05,-9e-05,0.00041,-0.00017,-6e-05,-1e-05,8e-05,5,21
24874,0.00031,3e-05,-9e-05,0.00041,-0.00017,-6e-05,-1e-05,8e-05,5,21
24875,0.00031,3e-05,-9e-05,0.00041,-0.00017,-6e-05,-1e-05,8e-05,5,21
24876,0.00031,3e-05,-9e-05,0.00041,-0.00017,-6e-05,-1e-05,8e-05,5,21
24877,0.00013,0.00013,0.00057,0.00012,-0.00033,5e-05,5e-05,2e-05,5,21
24878,0.00013,0.00013,0.00057,0.00012,-0.00033,5e-05,5e-05,2e-05,5,21
24879,0.00013,0.00013,0.00057,0.00012,-0.00033,5e-05,5e-05,2e-05,5,21
24880,0.00013,0.00013,0.00057,0.00012,-0.00033,5e-05,5e-05,2e-05,5,21
24881,0.00013,0.00013,0.00057,0.00012,-0.00033,5e-05,5e-05,2e-05,5,21
24882,0.00013,0.00013,0.00057,0.00012,-0.00033,5e-05,5e-05,2e-05,5,21
24883,-0.0002,-0.00017,-0.00037,-0.00011,-0.00022,-8e-05,-2e-05,-3e-05,5,21
24884,0.00024,9e-05,-5e-05,-0.0011,0.00058,8e-05,4e-05,6e-05,5,21
24885,0.00024,9e-05,-5e-05,-0.0011,0.00058,8e-05,4e-05,6e-05,5,21
24887,0.00024,9e-05,-5e-05,-0.0011,0.00058,8e-05,4e-05,6e-05,5,21
24889,0.00024,9e-05,-5e-05,-0.0011,0.00058,8e-05,4e-05,6e-05,5,21
24890,0.00024,9e-05,-5e-05,-0.0011,0.00058,8e-05,4e-05,6e-05,5,21
24891,0.00024,9e-05,-5e-05,-0.0011,0.00058,8e-05,4e-05,6e-05,5,21
24892,0.00024,9e-05,-5e-05,-0.0011,0.00058,8e-05,4e-05,6e-05,5,21
24893,0.00024,9e-05,-5e-05,-0.0011,0.00058,8e-05,4e-05,6e-05,5,21
24894,0.00024,9e-05,-5e-05,-0.0011,0.00058,8e-05,4e-05,6e-05,5,21
24895,0.00024,9e-05,-5e-05,-0.0011,0.00058,8e-05,4e-05,6e-05,5,21
24896,0.00024,9e-05,-5e-05,-0.0011,0.00058,8e-05,4e-05,6e-05,5,21
24897,0.00024,9e-05,-5e-05,-0.0011,0.00058,8e-05,4e-05,6e-05,5,21
24898,0.00024,9e-05,-5e-05,-0.0011,0.00058,8e-05,4e-05,6e-05,5,21
24899,0.00024,9e-05,-5e-05,-0.0011,0.00058,8e-05,4e-05,6e-05,5,21
24900,9e-05,9e-05,0.0003,0.00038,-0.0002,1e-05,-1e-05,1e-05,5,21
24901,-1e-05,8e-05,-8e-05,0.0005,-0.00017,-8e-05,-5e-05,-2e-05,5,21
24902,-1e-05,8e-05,-8e-05,0.0005,-0.00017,-8e-05,-5e-05,-2e-05,5,21
24903,-1e-05,8e-05,-8e-05,0.0005,-0.00017,-8e-05,-5e-05,-2e-05,5,21
24904,-1e-05,8e-05,-8e-05,0.0005,-0.00017,-8e-05,-5e-05,-2e-05,5,21
24905,-1e-05,8e-05,-8e-05,0.0005,-0.00017,-8e-05,-5e-05,-2e-05,5,21
24906,-1e-05,8e-05,-8e-05,0.0005,-0.00017,-8e-05,-5e-05,-2e-05,5,21
24907,-1e-05,8e-05,-8e-05,0.0005,-0.00017,-8e-05,-5e-05,-2e-05,5,21
24908,-1e-05,8e-05,-8e-05,0.0005,-0.00017,-8e-05,-5e-05,-2e-05,5,21
24909,-1e-05,8e-05,-8e-05,0.0005,-0.00017,-8e-05,-5e-05,-2e-05,5,21
24910,-1e-05,8e-05,-8e-05,0.0005,-0.00017,-8e-05,-5e-05,-2e-05,5,21
24911,-1e-05,8e-05,-8e-05,0.0005,-0.00017,-8e-05,-5e-05,-2e-05,5,21
24912,-1e-05,8e-05,-8e-05,0.0005,-0.00017,-8e-05,-5e-05,-2e-05,5,21
24913,-1e-05,8e-05,-8e-05,0.0005,-0.00017,-8e-05,-5e-05,-2e-05,5,21
24914,-1e-05,8e-05,-8e-05,0.0005,-0.00017,-8e-05,-5e-05,-2e-05,5,21
24915,-1e-05,8e-05,-8e-05,0.0005,-0.00017,-8e-05,-5e-05,-2e-05,5,21
24916,-1e-05,8e-05,-8e-05,0.0005,-0.00017,-8e-05,-5e-05,-2e-05,5,21
24917,-1e-05,8e-05,-8e-05,0.0005,-0.00017,-8e-05,-5e-05,-2e-05,5,21
24918,-1e-05,8e-05,-8e-05,0.0005,-0.00017,-8e-05,-5e-05,-2e-05,5,21
24919,-1e-05,8e-05,-8e-05,0.0005,-0.00017,-8e-05,-5e-05,-2e-05,5,21
24920,-1e-05,8e-05,-8e-05,0.0005,-0.00017,-8e-05,-5e-05,-2e-05,5,21
24921,-1e-05,8e-05,-8e-05,0.0005,-0.00017,-8e-05,-5e-05,-2e-05,5,21
24922,6e-05,-9e-05,-0.00018,0.00011,-0.00036,3e-05,0,-2e-05,5,21
24923,6e-05,-9e-05,-0.00018,0.00011,-0.00036,3e-05,0,-2e-05,5,21
24924,1e-05,-3e-05,-0.00025,0.00028,-0.00019,-2e-05,-2e-05,0,5,21
24925,1e-05,-3e-05,-0.00025,0.00028,-0.00019,-2e-05,-2e-05,0,5,21
24926,1e-05,-3e-05,-0.00025,0.00028,-0.00019,-2e-05,-2e-05,0,5,21
24927,1e-05,-3e-05,-0.00025,0.00028,-0.00019,-2e-05,-2e-05,0,5,21
24928,1e-05,-3e-05,-0.00025,0.00028,-0.00019,-2e-05,-2e-05,0,5,21
24929,1e-05,-3e-05,-0.00025,0.00028,-0.00019,-2e-05,-2e-05,0,5,21
24930,1e-05,-3e-05,-0.00025,0.00028,-0.00019,-2e-05,-2e-05,0,5,21
24931,1e-05,-3e-05,-0.00025,0.00028,-0.00019,-2e-05,-2e-05,0,5,21
24932,1e-05,-3e-05,-0.00025,0.00028,-0.00019,-2e-05,-2e-05,0,5,21
24933,1e-05,-3e-05,-0.00025,0.00028,-0.00019,-2e-05,-2e-05,0,5,21
24934,1e-05,-3e-05,-0.00025,0.00028,-0.00019,-2e-05,-2e-05,0,5,21
24935,1e-05,-3e-05,-0.00025,0.00028,-0.00019,-2e-05,-2e-05,0,5,21
24937,-0.00028,-6e-05,-0.00029,0.00018,0.00017,-7e-05,-5e-05,-8e-05,5,21
24939,-0.00028,-6e-05,-0.00029,0.00018,0.00017,-7e-05,-5e-05,-8e-05,5,21
24940,-0.00028,-6e-05,-0.00029,0.00018,0.00017,-7e-05,-5e-05,-8e-05,5,21
24941,-0.00028,-6e-05,-0.00029,0.00018,0.00017,-7e-05,-5e-05,-8e-05,5,21
24942,-0.00028,-6e-05,-0.00029,0.00018,0.00017,-7e-05,-5e-05,-8e-05,5,21
24943,-0.00024,-7e-05,6e-05,-0.00045,-0.00057,-8e-05,-5e-05,-5e-05,5,21
24944,0.00033,0.00012,9e-05,0.00033,0.00041,0.00017,5e-05,9e-05,5,21
24945,0.00033,0.00012,9e-05,0.00033,0.00041,0.00017,5e-05,9e-05,5,21
24946,0.00033,0.00012,9e-05,0.00033,0.00041,0.00017,5e-05,9e-05,5,21
24947,0.00033,0.00012,9e-05,0.00033,0.00041,0.00017,5e-05,9e-05,5,21
24948,0.00033,0.00012,9e-05,0.00033,0.00041,0.00017,5e-05,9e-05,5,21
24949,0.00033,0.00012,9e-05,0.00033,0.00041,0.00017,5e-05,9e-05,5,21
24950,0.00033,0.00012,9e-05,0.00033,0.00041,0.00017,5e-05,9e-05,5,21
24951,0.00033,0.00012,9e-05,0.00033,0.00041,0.00017,5e-05,9e-05,5,21
24952,0.00033,0.00012,9e-05,0.00033,0.00041,0.00017,5e-05,9e-05,5,21
24953,0.00033,0.00012,9e-05,0.00033,0.00041,0.00017,5e-05,9e-05,5,21
24954,0.00033,0.00012,9e-05,0.00033,0.00041,0.00017,5e-05,9e-05,5,21
24955,0.00033,0.00012,9e-05,0.00033,0.00041,0.00017,5e-05,9e-05,5,21
24956,0.00033,0.00012,9e-05,0.00033,0.00041,0.00017,5e-05,9e-05,5,21
24957,0.00033,0.00012,9e-05,0.00033,0.00041,0.00017,5e-05,9e-05,5,21
24958,0.00033,0.00012,9e-05,0.00033,0.00041,0.00017,5e-05,9e-05,5,21
24959,0.00033,0.00012,9e-05,0.00033,0.00041,0.00017,5e-05,9e-05,5,21
24960,4e-05,1e-05,0.00012,-0.00063,-0.00019,2e-05,3e-05,3e-05,5,21
24961,-0.00022,0,-5e-05,0.00014,0.00012,6e-05,1e-05,-4e-05,5,21
24962,0.00019,-2e-05,-6e-05,-0.00031,8e-05,-7e-05,-1e-05,2e-05,5,21
24963,0.00019,-2e-05,-6e-05,-0.00031,8e-05,-7e-05,-1e-05,2e-05,5,21
24964,0.00019,-2e-05,-6e-05,-0.00031,8e-05,-7e-05,-1e-05,2e-05,5,21
24965,0.00019,-2e-05,-6e-05,-0.00031,8e-05,-7e-05,-1e-05,2e-05,5,21
24966,0.00019,-2e-05,-6e-05,-0.00031,8e-05,-7e-05,-1e-05,2e-05,5,21
24967,0.00019,-2e-05,-6e-05,-0.00031,8e-05,-7e-05,-1e-05,2e-05,5,21
24968,0.00019,-2e-05,-6e-05,-0.00031,8e-05,-7e-05,-1e-05,2e-05,5,21
24969,0.00019,-2e-05,-6e-05,-0.00031,8e-05,-7e-05,-1e-05,2e-05,5,21
24970,0.00019,-2e-05,-6e-05,-0.00031,8e-05,-7e-05,-1e-05,2e-05,5,21
24971,0.00019,-2e-05,-6e-05,-0.00031,8e-05,-7e-05,-1e-05,2e-05,5,21
24972,0.00019,-2e-05,-6e-05,-0.00031,8e-05,-7e-05,-1e-05,2e-05,5,21
24973,0.00019,-2e-05,-6e-05,-0.00031,8e-05,-7e-05,-1e-05,2e-05,5,21
24974,0.00019,-2e-05,-6e-05,-0.00031,8e-05,-7e-05,-1e-05,2e-05,5,21
24975,0.00019,-2e-05,-6e-05,-0.00031,8e-05,-7e-05,-1e-05,2e-05,5,21
24976,0.00019,-2e-05,-6e-05,-0.00031,8e-05,-7e-05,-1e-05,2e-05,5,21
24977,0.00019,-2e-05,-6e-05,-0.00031,8e-05,-7e-05,-1e-05,2e-05,5,21
24978,0.00019,-2e-05,-6e-05,-0.00031,8e-05,-7e-05,-1e-05,2e-05,5,21
24979,0.00019,-2e-05,-6e-05,-0.00031,8e-05,-7e-05,-1e-05,2e-05,5,21
24980,0.00019,-2e-05,-6e-05,-0.00031,8e-05,-7e-05,-1e-05,2e-05,5,21
24981,0.00019,-2e-05,-6e-05,-0.00031,8e-05,-7e-05,-1e-05,2e-05,5,21
24982,-2e-05,8e-05,0.00027,0.00085,0.00053,8e-05,0,-2e-05,5,21
24983,0.00019,1e-05,9e-05,-0.00041,-0.00021,-0.00013,-3e-05,2e-05,5,21
24984,0.00019,1e-05,9e-05,-0.00041,-0.00021,-0.00013,-3e-05,2e-05,5,21
24985,0.00019,1e-05,9e-05,-0.00041,-0.00021,-0.00013,-3e-05,2e-05,5,21
24987,0.00019,1e-05,9e-05,-0.00041,-0.00021,-0.00013,-3e-05,2e-05,5,21
24989,0.00019,1e-05,9e-05,-0.00041,-0.00021,-0.00013,-3e-05,2e-05,5,21
24990,0.00019,1e-05,9e-05,-0.00041,-0.00021,-0.00013,-3e-05,2e-05,5,21
24991,0.00019,1e-05,9e-05,-0.00041,-0.00021,-0.00013,-3e-05,2e-05,5,21
24992,0.00019,1e-05,9e-05,-0.00041,-0.00021,-0.00013,-3e-05,2e-05,5,21
24993,0.00019,1e-05,9e-05,-0.00041,-0.00021,-0.00013,-3e-05,2e-05,5,21
24994,0.00019,1e-05,9e-05,-0.00041,-0.00021,-0.00013,-3e-05,2e-05,5,21
24995,0.00019,1e-05,9e-05,-0.00041,-0.00021,-0.00013,-3e-05,2e-05,5,21
24996,0.00028,0.0001,-7e-05,-0.00048,-0.00041,5e-05,2e-05,8e-05,5,21
24997,0.00028,0.0001,-7e-05,-0.00048,-0.00041,5e-05,2e-05,8e-05,5,21
24998,0.00028,0.0001,-7e-05,-0.00048,-0.00041,5e-05,2e-05,8e-05,5,21
24999,0.00028,0.0001,-7e-05,-0.00048,-0.00041,5e-05,2e-05,8e-05,5,21
25000,0.00028,0.0001,-7e-05,-0.00048,-0.00041,5e-05,2e-05,8e-05,5,21
25001,0.00028,0.0001,-7e-05,-0.00048,-0.00041,5e-05,2e-05,8e-05,5,21
25002,0.00028,0.0001,-7e-05,-0.00048,-0.00041,5e-05,2e-05,8e-05,5,21
25003,0.00028,0.0001,-7e-05,-0.00048,-0.00041,5e-05,2e-05,8e-05,5,21
25004,-0.0001,-8e-05,-0.0001,-0.00086,-0.00055,-6e-05,-4e-05,3e-05,5,21
25005,-0.0001,-8e-05,-0.0001,-0.00086,-0.00055,-6e-05,-4e-05,3e-05,5,21
25006,-0.0001,-8e-05,-0.0001,-0.00086,-0.00055,-6e-05,-4e-05,3e-05,5,21
25007,-0.0001,-8e-05,-0.0001,-0.00086,-0.00055,-6e-05,-4e-05,3e-05,5,21
25008,-0.0001,-8e-05,-0.0001,-0.00086,-0.00055,-6e-05,-4e-05,3e-05,5,21
25009,-0.0001,-8e-05,-0.0001,-0.00086,-0.00055,-6e-05,-4e-05,3e-05,5,21
25010,-0.0001,-8e-05,-0.0001,-0.00086,-0.00055,-6e-05,-4e-05,3e-05,5,21
25011,-0.0001,-8e-05,-0.0001,-0.00086,-0.00055,-6e-05,-4e-05,3e-05,5,21
25012,-0.0001,-8e-05,-0.0001,-0.00086,-0.00055,-6e-05,-4e-05,3e-05,5,21
25013,-0.0001,-8e-05,-0.0001,-0.00086,-0.00055,-6e-05,-4e-05,3e-05,5,21
25014,-0.0001,-8e-05,-0.0001,-0.00086,-0.00055,-6e-05,-4e-05,3e-05,5,21
25015,-0.0001,-8e-05,-0.0001,-0.00086,-0.00055,-6e-05,-4e-05,3e-05,5,21
25016,-0.0001,-8e-05,-0.0001,-0.00086,-0.00055,-6e-05,-4e-05,3e-05,5,21
25017,-0.0001,-8e-05,-0.0001,-0.00086,-0.00055,-6e-05,-4e-05,3e-05,5,21
25018,-0.0001,-8e-05,-0.0001,-0.00086,-0.00055,-6e-05,-4e-05,3e-05,5,21
25019,-9e-05,1e-05,0.00017,-0.00042,0.00013,-4e-05,-3e-05,7e-05,5,21
25020,-0.00015,-8e-05,-5e-05,0.00015,-0.0007,-8e-05,-3e-05,-4e-05,5,21
25021,-0.00015,-8e-05,-5e-05,0.00015,-0.0007,-8e-05,-3e-05,-4e-05,5,21
25022,-0.00015,-8e-05,-5e-05,0.00015,-0.0007,-8e-05,-3e-05,-4e-05,5,21
25023,-0.00015,-8e-05,-5e-05,0.00015,-0.0007,-8e-05,-3e-05,-4e-05,5,21
25024,-0.00015,-8e-05,-5e-05,0.00015,-0.0007,-8e-05,-3e-05,-4e-05,5,21
25025,-0.00015,-8e-05,-5e-05,0.00015,-0.0007,-8e-05,-3e-05,-4e-05,5,21
25026,-0.00015,-8e-05,-5e-05,0.00015,-0.0007,-8e-05,-3e-05,-4e-05,5,21
25027,-0.00015,-8e-05,-5e-05,0.00015,-0.0007,-8e-05,-3e-05,-4e-05,5,21
25028,-0.00015,-8e-05,-5e-05,0.00015,-0.0007,-8e-05,-3e-05,-4e-05,5,21
25029,-0.00015,-8e-05,-5e-05,0.00015,-0.0007,-8e-05,-3e-05,-4e-05,5,21
25030,-0.00015,-8e-05,-5e-05,0.00015,-0.0007,-8e-05,-3e-05,-4e-05,5,21
25031,-0.00015,-8e-05,-5e-05,0.00015,-0.0007,-8e-05,-3e-05,-4e-05,5,21
25033,-0.00015,-8e-05,-5e-05,0.00015,-0.0007,-8e-05,-3e-05,-4e-05,5,21
25034,-0.00015,-8e-05,-5e-05,0.00015,-0.0007,-8e-05,-3e-05,-4e-05,5,21
25035,-0.00015,-8e-05,-5e-05,0.00015,-0.0007,-8e-05,-3e-05,-4e-05,5,21
25037,-0.00015,-8e-05,-5e-05,0.00015,-0.0007,-8e-05,-3e-05,-4e-05,5,21
25039,-0.00015,-8e-05,-5e-05,0.00015,-0.0007,-8e-05,-3e-05,-4e-05,5,21
25040,-0.00015,-8e-05,-5e-05,0.00015,-0.0007,-8e-05,-3e-05,-4e-05,5,21
25041,-0.00015,-8e-05,-5e-05,0.00015,-0.0007,-8e-05,-3e-05,-4e-05,5,21
25042,2e-05,-3e-05,1e-05,0.00053,0.00014,0,2e-05,2e-05,5,21
25043,-0.00017,2e-05,0.00017,0.00016,0.00018,-2e-05,0,1e-05,5,21
25044,-0.00017,2e-05,0.00017,0.00016,0.00018,-2e-05,0,1e-05,5,21
25045,-0.00017,2e-05,0.00017,0.00016,0.00018,-2e-05,0,1e-05,5,21
25046,-0.00017,2e-05,0.00017,0.00016,0.00018,-2e-05,0,1e-05,5,21
25047,-0.00017,2e-05,0.00017,0.00016,0.00018,-2e-05,0,1e-05,5,21
25048,-0.00017,2e-05,0.00017,0.00016,0.00018,-2e-05,0,1e-05,5,21
25049,-0.00017,2e-05,0.00017,0.00016,0.00018,-2e-05,0,1e-05,5,21
25050,-0.00017,2e-05,0.00017,0.00016,0.00018,-2e-05,0,1e-05,5,21
25051,-0.00017,2e-05,0.00017,0.00016,0.00018,-2e-05,0,1e-05,5,21
25052,-0.00017,2e-05,0.00017,0.00016,0.00018,-2e-05,0,1e-05,5,21
25053,-0.00017,2e-05,0.00017,0.00016,0.00018,-2e-05,0,1e-05,5,21
25054,-0.00017,2e-05,0.00017,0.00016,0.00018,-2e-05,0,1e-05,5,21
25055,-0.00017,2e-05,0.00017,0.00016,0.00018,-2e-05,0,1e-05,5,21
25056,-9e-05,-6e-05,8e-05,-0.00034,0.0001,-6e-05,-4e-05,-4e-05,5,21
25057,-9e-05,-6e-05,8e-05,-0.00034,0.0001,-6e-05,-4e-05,-4e-05,5,21
25058,-9e-05,-6e-05,8e-05,-0.00034,0.0001,-6e-05,-4e-05,-4e-05,5,21
25059,-9e-05,-6e-05,8e-05,-0.00034,0.0001,-6e-05,-4e-05,-4e-05,5,21
25060,-9e-05,-6e-05,8e-05,-0.00034,0.0001,-6e-05,-4e-05,-4e-05,5,21
25061,-9e-05,-6e-05,8e-05,-0.00034,0.0001,-6e-05,-4e-05,-4e-05,5,21
25062,-9e-05,-6e-05,8e-05,-0.00034,0.0001,-6e-05,-4e-05,-4e-05,5,21
25063,-9e-05,-6e-05,8e-05,-0.00034,0.0001,-6e-05,-4e-05,-4e-05,5,21
25064,9e-05,8e-05,4e-05,0.00022,0.00018,0.00014,0,-2e-05,5,21
25065,9e-05,8e-05,4e-05,0.00022,0.00018,0.00014,0,-2e-05,5,21
25066,9e-05,8e-05,4e-05,0.00022,0.00018,0.00014,0,-2e-05,5,21
25067,9e-05,8e-05,4e-05,0.00022,0.00018,0.00014,0,-2e-05,5,21
25068,9e-05,8e-05,4e-05,0.00022,0.00018,0.00014,0,-2e-05,5,21
25069,9e-05,8e-05,4e-05,0.00022,0.00018,0.00014,0,-2e-05,5,21
25070,9e-05,8e-05,4e-05,0.00022,0.00018,0.00014,0,-2e-05,5,21
25071,9e-05,8e-05,4e-05,0.00022,0.00018,0.00014,0,-2e-05,5,21
25072,9e-05,8e-05,4e-05,0.00022,0.00018,0.00014,0,-2e-05,5,21
25073,9e-05,8e-05,4e-05,0.00022,0.00018,0.00014,0,-2e-05,5,21
25074,9e-05,8e-05,4e-05,0.00022,0.00018,0.00014,0,-2e-05,5,21
25075,9e-05,8e-05,4e-05,0.00022,0.00018,0.00014,0,-2e-05,5,21
25076,9e-05,8e-05,4e-05,0.00022,0.00018,0.00014,0,-2e-05,5,21
25077,9e-05,8e-05,4e-05,0.00022,0.00018,0.00014,0,-2e-05,5,21
25078,9e-05,8e-05,4e-05,0.00022,0.00018,0.00014,0,-2e-05,5,21
25079,0.00012,-4e-05,9e-05,-0.0008,0.00082,6e-05,-1e-05,-2e-05,5,21
25080,0.00029,-3e-05,-2e-05,0.00027,0.00051,8e-05,4e-05,5e-05,5,21
25081,0.00029,-3e-05,-2e-05,0.00027,0.00051,8e-05,4e-05,5e-05,5,21
25082,0.00029,-3e-05,-2e-05,0.00027,0.00051,8e-05,4e-05,5e-05,5,21
25083,0.00029,-3e-05,-2e-05,0.00027,0.00051,8e-05,4e-05,5e-05,5,21
25084,0.00029,-3e-05,-2e-05,0.00027,0.00051,8e-05,4e-05,5e-05,5,21
25085,0.00029,-3e-05,-2e-05,0.00027,0.00051,8e-05,4e-05,5e-05,5,21
25087,0.00029,-3e-05,-2e-05,0.00027,0.00051,8e-05,4e-05,5e-05,5,21
25089,0.00029,-3e-05,-2e-05,0.00027,0.00051,8e-05,4e-05,5e-05,5,21
25090,0.00029,-3e-05,-2e-05,0.00027,0.00051,8e-05,4e-05,5e-05,5,21
25091,0.00029,-3e-05,-2e-05,0.00027,0.00051,8e-05,4e-05,5e-05,5,21
25092,0.00029,-3e-05,-2e-05,0.00027,0.00051,8e-05,4e-05,5e-05,5,21
25093,0.00029,-3e-05,-2e-05,0.00027,0.00051,8e-05,4e-05,5e-05,5,21
25094,0.00029,-3e-05,-2e-05,0.00027,0.00051,8e-05,4e-05,5e-05,5,21
25095,0.00029,-3e-05,-2e-05,0.00027,0.00051,8e-05,4e-05,5e-05,5,21
25096,0.00029,-3e-05,-2e-05,0.00027,0.00051,8e-05,4e-05,5e-05,5,21
25097,0.00029,-3e-05,-2e-05,0.00027,0.00051,8e-05,4e-05,5e-05,5,21
25098,0.00029,-3e-05,-2e-05,0.00027,0.00051,8e-05,4e-05,5e-05,5,21
25099,0.00029,-3e-05,-2e-05,0.00027,0.00051,8e-05,4e-05,5e-05,5,21
25100,0.00029,-3e-05,-2e-05,0.00027,0.00051,8e-05,4e-05,5e-05,5,21
25101,0.00029,-3e-05,-2e-05,0.00027,0.00051,8e-05,4e-05,5e-05,5,21
25102,-0.00025,5e-05,0.00017,6e-05,-8e-05,2e-05,0,3e-05,5,21
25103,0.0001,5e-05,3e-05,0.0004,5e-05,-2e-05,1e-05,5e-05,5,21
25104,0.0001,5e-05,3e-05,0.0004,5e-05,-2e-05,1e-05,5e-05,5,21
25105,0.0001,5e-05,3e-05,0.0004,5e-05,-2e-05,1e-05,5e-05,5,21
25106,0.0001,5e-05,3e-05,0.0004,5e-05,-2e-05,1e-05,5e-05,5,21
25107,0.0001,5e-05,3e-05,0.0004,5e-05,-2e-05,1e-05,5e-05,5,21
25108,0.0001,5e-05,3e-05,0.0004,5e-05,-2e-05,1e-05,5e-05,5,21
25109,0.0001,5e-05,3e-05,0.0004,5e-05,-2e-05,1e-05,5e-05,5,21
25110,0.0001,5e-05,3e-05,0.0004,5e-05,-2e-05,1e-05,5e-05,5,21
25111,0.0001,5e-05,3e-05,0.0004,5e-05,-2e-05,1e-05,5e-05,5,21
25112,0.0001,5e-05,3e-05,0.0004,5e-05,-2e-05,1e-05,5e-05,5,21
25113,0.0001,5e-05,3e-05,0.0004,5e-05,-2e-05,1e-05,5e-05,5,21
25114,0.0001,5e-05,3e-05,0.0004,5e-05,-2e-05,1e-05,5e-05,5,21
25115,0.0001,5e-05,3e-05,0.0004,5e-05,-2e-05,1e-05,5e-05,5,21
25116,0.0001,5e-05,3e-05,0.0004,5e-05,-2e-05,1e-05,5e-05,5,21
25117,0.0001,5e-05,3e-05,0.0004,5e-05,-2e-05,1e-05,5e-05,5,21
25118,0.0001,5e-05,3e-05,0.0004,5e-05,-2e-05,1e-05,5e-05,5,21
25119,0.0001,5e-05,3e-05,0.0004,5e-05,-2e-05,1e-05,5e-05,5,21
25120,0.0001,5e-05,3e-05,0.0004,5e-05,-2e-05,1e-05,5e-05,5,21
25121,0.0001,5e-05,3e-05,0.0004,5e-05,-2e-05,1e-05,5e-05,5,21
25122,0.0001,5e-05,3e-05,0.0004,5e-05,-2e-05,1e-05,5e-05,5,21
25123,0.0001,5e-05,3e-05,0.0004,5e-05,-2e-05,1e-05,5e-05,5,21
25124,0.0001,5e-05,3e-05,0.0004,5e-05,-2e-05,1e-05,5e-05,5,21
25125,0.00025,7e-05,0.00013,0.00064,0.00014,0.00014,6e-05,4e-05,5,21
25126,-0.00017,-1e-05,0.00017,0.00016,-0.00025,-1e-05,-1e-05,-4e-05,5,21
25127,-0.00017,-1e-05,0.00017,0.00016,-0.00025,-1e-05,-1e-05,-4e-05,5,21
25128,-0.00017,-1e-05,0.00017,0.00016,-0.00025,-1e-05,-1e-05,-4e-05,5,21
25129,-0.00017,-1e-05,0.00017,0.00016,-0.00025,-1e-05,-1e-05,-4e-05,5,21
25130,-0.00017,-1e-05,0.00017,0.00016,-0.00025,-1e-05,-1e-05,-4e-05,5,21
25131,-0.00017,-1e-05,0.00017,0.00016,-0.00025,-1e-05,-1e-05,-4e-05,5,21
25132,-0.00017,-1e-05,0.00017,0.00016,-0.00025,-1e-05,-1e-05,-4e-05,5,21
25133,-0.00017,-1e-05,0.00017,0.00016,-0.00025,-1e-05,-1e-05,-4e-05,5,21
25134,-0.00017,-1e-05,0.00017,0.00016,-0.00025,-1e-05,-1e-05,-4e-05,5,21
25135,-0.00017,-1e-05,0.00017,0.00016,-0.00025,-1e-05,-1e-05,-4e-05,5,21
25137,-0.00017,-1e-05,0.00017,0.00016,-0.00025,-1e-05,-1e-05,-4e-05,5,21
25139,3e-05,1e-05,0.00034,0.00016,0.00039,6e-05,4e-05,-1e-05,5,21
25140,-0.00025,-0.00017,-5e-05,0.00056,-0.00018,-0.00013,-5e-05,-9e-05,5,21
25141,-0.00025,-0.00017,-5e-05,0.00056,-0.00018,-0.00013,-5e-05,-9e-05,5,21
25142,-0.00025,-0.00017,-5e-05,0.00056,-0.00018,-0.00013,-5e-05,-9e-05,5,21
25143,-0.00025,-0.00017,-5e-05,0.00056,-0.00018,-0.00013,-5e-05,-9e-05,5,21
25144,-0.00025,-0.00017,-5e-05,0.00056,-0.00018,-0.00013,-5e-05,-9e-05,5,21
25145,-0.00025,-0.00017,-5e-05,0.00056,-0.00018,-0.00013,-5e-05,-9e-05,5,21
25146,-0.00025,-0.00017,-5e-05,0.00056,-0.00018,-0.00013,-5e-05,-9e-05,5,21
25147,-0.00025,-0.00017,-5e-05,0.00056,-0.00018,-0.00013,-5e-05,-9e-05,5,21
25148,-0.00025,-0.00017,-5e-05,0.00056,-0.00018,-0.00013,-5e-05,-9e-05,5,21
25149,-0.00025,-0.00017,-5e-05,0.00056,-0.00018,-0.00013,-5e-05,-9e-05,5,21
25150,-0.00025,-0.00017,-5e-05,0.00056,-0.00018,-0.00013,-5e-05,-9e-05,5,21
25151,-0.00025,-0.00017,-5e-05,0.00056,-0.00018,-0.00013,-5e-05,-9e-05,5,21
25152,-0.00025,-0.00017,-5e-05,0.00056,-0.00018,-0.00013,-5e-05,-9e-05,5,21
25153,-0.00025,-0.00017,-5e-05,0.00056,-0.00018,-0.00013,-5e-05,-9e-05,5,21
25154,-0.00025,-0.00017,-5e-05,0.00056,-0.00018,-0.00013,-5e-05,-9e-05,5,21
25155,-0.00025,-0.00017,-5e-05,0.00056,-0.00018,-0.00013,-5e-05,-9e-05,5,21
25156,-0.00025,-0.00017,-5e-05,0.00056,-0.00018,-0.00013,-5e-05,-9e-05,5,21
25157,-0.00025,-0.00017,-5e-05,0.00056,-0.00018,-0.00013,-5e-05,-9e-05,5,21
25158,-0.00025,-0.00017,-5e-05,0.00056,-0.00018,-0.00013,-5e-05,-9e-05,5,21
25159,-0.00025,-0.00017,-5e-05,0.00056,-0.00018,-0.00013,-5e-05,-9e-05,5,21
25160,-0.00025,-0.00017,-5e-05,0.00056,-0.00018,-0.00013,-5e-05,-9e-05,5,21
25161,-8e-05,-0.00014,-3e-05,-0.00034,0.00024,4e-05,0,-3e-05,5,21
25162,-0.00011,-2e-05,-0.00015,-0.0002,0.00075,0.00018,2e-05,0,5,21
25163,0.00042,2e-05,-0.00011,-0.0001,0.00027,-2e-05,-3e-05,3e-05,5,21
25164,0.00042,2e-05,-0.00011,-0.0001,0.00027,-2e-05,-3e-05,3e-05,5,21
25165,0.00042,2e-05,-0.00011,-0.0001,0.00027,-2e-05,-3e-05,3e-05,5,21
25166,0.00042,2e-05,-0.00011,-0.0001,0.00027,-2e-05,-3e-05,3e-05,5,21
25167,0.00042,2e-05,-0.00011,-0.0001,0.00027,-2e-05,-3e-05,3e-05,5,21
25168,0.00042,2e-05,-0.00011,-0.0001,0.00027,-2e-05,-3e-05,3e-05,5,21
25169,0.00042,2e-05,-0.00011,-0.0001,0.00027,-2e-05,-3e-05,3e-05,5,21
25170,0.00042,2e-05,-0.00011,-0.0001,0.00027,-2e-05,-3e-05,3e-05,5,21
25171,0.00042,2e-05,-0.00011,-0.0001,0.00027,-2e-05,-3e-05,3e-05,5,21
25172,0.00042,2e-05,-0.00011,-0.0001,0.00027,-2e-05,-3e-05,3e-05,5,21
25173,0.00042,2e-05,-0.00011,-0.0001,0.00027,-2e-05,-3e-05,3e-05,5,21
25174,0.00042,2e-05,-0.00011,-0.0001,0.00027,-2e-05,-3e-05,3e-05,5,21
25175,0.00042,2e-05,-0.00011,-0.0001,0.00027,-2e-05,-3e-05,3e-05,5,21
25176,0.00025,6e-05,-3e-05,-0.0002,-0.00044,-3e-05,-1e-05,6e-05,5,21
25177,0.00025,6e-05,-3e-05,-0.0002,-0.00044,-3e-05,-1e-05,6e-05,5,21
25178,0.00025,6e-05,-3e-05,-0.0002,-0.00044,-3e-05,-1e-05,6e-05,5,21
25179,0.00025,6e-05,-3e-05,-0.0002,-0.00044,-3e-05,-1e-05,6e-05,5,21
25180,0.00025,6e-05,-3e-05,-0.0002,-0.00044,-3e-05,-1e-05,6e-05,5,21
25181,0.00025,6e-05,-3e-05,-0.0002,-0.00044,-3e-05,-1e-05,6e-05,5,21
25182,0.00025,6e-05,-3e-05,-0.0002,-0.00044,-3e-05,-1e-05,6e-05,5,21
25183,0.00025,6e-05,-3e-05,-0.0002,-0.00044,-3e-05,-1e-05,6e-05,5,21
25184,-0.00016,-3e-05,4e-05,-0.00043,-0.00064,-5e-05,-3e-05,-0.00011,5,21
25185,-0.00016,-3e-05,4e-05,-0.00043,-0.00064,-5e-05,-3e-05,-0.00011,5,21
25187,-0.00016,-3e-05,4e-05,-0.00043,-0.00064,-5e-05,-3e-05,-0.00011,5,21
25189,-0.00016,-3e-05,4e-05,-0.00043,-0.00064,-5e-05,-3e-05,-0.00011,5,21
25190,-0.00016,-3e-05,4e-05,-0.00043,-0.00064,-5e-05,-3e-05,-0.00011,5,21
25191,-0.00016,-3e-05,4e-05,-0.00043,-0.00064,-5e-05,-3e-05,-0.00011,5,21
25192,-0.00016,-3e-05,4e-05,-0.00043,-0.00064,-5e-05,-3e-05,-0.00011,5,21
25193,-0.00016,-3e-05,4e-05,-0.00043,-0.00064,-5e-05,-3e-05,-0.00011,5,21
25194,-0.00016,-3e-05,4e-05,-0.00043,-0.00064,-5e-05,-3e-05,-0.00011,5,21
25195,-0.00016,-3e-05,4e-05,-0.00043,-0.00064,-5e-05,-3e-05,-0.00011,5,21
25196,-0.00016,-3e-05,4e-05,-0.00043,-0.00064,-5e-05,-3e-05,-0.00011,5,21
25197,-0.00016,-3e-05,4e-05,-0.00043,-0.00064,-5e-05,-3e-05,-0.00011,5,21
25198,-0.00016,-3e-05,4e-05,-0.00043,-0.00064,-5e-05,-3e-05,-0.00011,5,21
25199,-6e-05,-1e-05,-0.00021,-0.00038,0.00038,0.00011,5e-05,0.00018,5,21
25200,-0.00015,-3e-05,-9e-05,-0.0003,0.00026,-2e-05,0,-1e-05,5,21
25201,-0.00015,-3e-05,-9e-05,-0.0003,0.00026,-2e-05,0,-1e-05,5,21
25202,-0.00015,-3e-05,-9e-05,-0.0003,0.00026,-2e-05,0,-1e-05,5,21
25203,-0.00015,-3e-05,-9e-05,-0.0003,0.00026,-2e-05,0,-1e-05,5,21
25204,-0.00015,-3e-05,-9e-05,-0.0003,0.00026,-2e-05,0,-1e-05,5,21
25205,-0.00015,-3e-05,-9e-05,-0.0003,0.00026,-2e-05,0,-1e-05,5,21
25206,-0.00015,-3e-05,-9e-05,-0.0003,0.00026,-2e-05,0,-1e-05,5,21
25207,-0.00015,-3e-05,-9e-05,-0.0003,0.00026,-2e-05,0,-1e-05,5,21
25208,-0.00015,-3e-05,-9e-05,-0.0003,0.00026,-2e-05,0,-1e-05,5,21
25209,-0.00015,-3e-05,-9e-05,-0.0003,0.00026,-2e-05,0,-1e-05,5,21
25210,-0.00015,-3e-05,-9e-05,-0.0003,0.00026,-2e-05,0,-1e-05,5,21
25211,-0.00015,-3e-05,-9e-05,-0.0003,0.00026,-2e-05,0,-1e-05,5,21
25212,-0.00015,-3e-05,-9e-05,-0.0003,0.00026,-2e-05,0,-1e-05,5,21
25213,-0.00015,-3e-05,-9e-05,-0.0003,0.00026,-2e-05,0,-1e-05,5,21
25214,-0.00015,-3e-05,-9e-05,-0.0003,0.00026,-2e-05,0,-1e-05,5,21
25215,-0.00015,-3e-05,-9e-05,-0.0003,0.00026,-2e-05,0,-1e-05,5,21
25216,-0.00015,-3e-05,-9e-05,-0.0003,0.00026,-2e-05,0,-1e-05,5,21
25217,-0.00015,-3e-05,-9e-05,-0.0003,0.00026,-2e-05,0,-1e-05,5,21
25218,-0.00015,-3e-05,-9e-05,-0.0003,0.00026,-2e-05,0,-1e-05,5,21
25219,-0.00015,-3e-05,-9e-05,-0.0003,0.00026,-2e-05,0,-1e-05,5,21
25220,-0.00015,-3e-05,-9e-05,-0.0003,0.00026,-2e-05,0,-1e-05,5,21
25221,-0.00015,-3e-05,-9e-05,-0.0003,0.00026,-2e-05,0,-1e-05,5,21
25222,-3e-05,-2e-05,-9e-05,-0.00051,0.0002,6e-05,0,2e-05,5,21
25223,-3e-05,-2e-05,-9e-05,-0.00051,0.0002,6e-05,0,2e-05,5,21
25224,-3e-05,-2e-05,-9e-05,-0.00051,0.0002,6e-05,0,2e-05,5,21
25225,-3e-05,-2e-05,-9e-05,-0.00051,0.0002,6e-05,0,2e-05,5,21
25226,-3e-05,-2e-05,-9e-05,-0.00051,0.0002,6e-05,0,2e-05,5,21
25227,-3e-05,-2e-05,-9e-05,-0.00051,0.0002,6e-05,0,2e-05,5,21
25228,-3e-05,-2e-05,-9e-05,-0.00051,0.0002,6e-05,0,2e-05,5,21
25229,-3e-05,-2e-05,-9e-05,-0.00051,0.0002,6e-05,0,2e-05,5,21
25230,-3e-05,-2e-05,-9e-05,-0.00051,0.0002,6e-05,0,2e-05,5,21
25231,-3e-05,-2e-05,-9e-05,-0.00051,0.0002,6e-05,0,2e-05,5,21
25232,-3e-05,-2e-05,-9e-05,-0.00051,0.0002,6e-05,0,2e-05,5,21
25233,-3e-05,-2e-05,-9e-05,-0.00051,0.0002,6e-05,0,2e-05,5,21
25234,-3e-05,-2e-05,-9e-05,-0.00051,0.0002,6e-05,0,2e-05,5,21
25235,-3e-05,-2e-05,-9e-05,-0.00051,0.0002,6e-05,0,2e-05,5,21
25237,0.00014,6e-05,0.00017,0.00052,0.00019,4e-05,1e-05,2e-05,5,21
25239,0.00014,6e-05,0.00017,0.00052,0.00019,4e-05,1e-05,2e-05,5,21
25240,0.00014,6e-05,0.00017,0.00052,0.00019,4e-05,1e-05,2e-05,5,21
25241,0.00014,6e-05,0.00017,0.00052,0.00019,4e-05,1e-05,2e-05,5,21
25242,0.00014,6e-05,0.00017,0.00052,0.00019,4e-05,1e-05,2e-05,5,21
25243,0.00014,6e-05,0.00017,0.00052,0.00019,4e-05,1e-05,2e-05,5,21
25244,0.00018,0.0001,0.00026,-0.00021,0.00014,2e-05,-2e-05,-3e-05,5,21
25245,0.00018,0.0001,0.00026,-0.00021,0.00014,2e-05,-2e-05,-3e-05,5,21
25246,0.00018,0.0001,0.00026,-0.00021,0.00014,2e-05,-2e-05,-3e-05,5,21
25247,0.00018,0.0001,0.00026,-0.00021,0.00014,2e-05,-2e-05,-3e-05,5,21
25248,0.00018,0.0001,0.00026,-0.00021,0.00014,2e-05,-2e-05,-3e-05,5,21
25249,0.00018,0.0001,0.00026,-0.00021,0.00014,2e-05,-2e-05,-3e-05,5,21
25250,0.00018,0.0001,0.00026,-0.00021,0.00014,2e-05,-2e-05,-3e-05,5,21
25251,0.00018,0.0001,0.00026,-0.00021,0.00014,2e-05,-2e-05,-3e-05,5,21
25252,0.00018,0.0001,0.00026,-0.00021,0.00014,2e-05,-2e-05,-3e-05,5,21
25253,0.00018,0.0001,0.00026,-0.00021,0.00014,2e-05,-2e-05,-3e-05,5,21
25254,0.00018,0.0001,0.00026,-0.00021,0.00014,2e-05,-2e-05,-3e-05,5,21
25255,0.00018,0.0001,0.00026,-0.00021,0.00014,2e-05,-2e-05,-3e-05,5,21
25256,0.00018,0.0001,0.00026,-0.00021,0.00014,2e-05,-2e-05,-3e-05,5,21
25257,0.00018,0.0001,0.00026,-0.00021,0.00014,2e-05,-2e-05,-3e-05,5,21
25258,0.00018,0.0001,0.00026,-0.00021,0.00014,2e-05,-2e-05,-3e-05,5,21
25259,-0.00029,-0.00018,-9e-05,2e-05,-0.00048,-2e-05,-2e-05,-8e-05,5,21
25260,-0.00018,7e-05,8e-05,-0.00016,0,-7e-05,-4e-05,-4e-05,5,21
25261,-0.00018,7e-05,8e-05,-0.00016,0,-7e-05,-4e-05,-4e-05,5,21
25262,-0.00018,7e-05,8e-05,-0.00016,0,-7e-05,-4e-05,-4e-05,5,21
25263,-0.00018,7e-05,8e-05,-0.00016,0,-7e-05,-4e-05,-4e-05,5,21
25264,-0.00018,7e-05,8e-05,-0.00016,0,-7e-05,-4e-05,-4e-05,5,21
25265,-0.00018,7e-05,8e-05,-0.00016,0,-7e-05,-4e-05,-4e-05,5,21
25266,-0.00018,7e-05,8e-05,-0.00016,0,-7e-05,-4e-05,-4e-05,5,21
25267,-0.00018,7e-05,8e-05,-0.00016,0,-7e-05,-4e-05,-4e-05,5,21
25268,-0.00018,7e-05,8e-05,-0.00016,0,-7e-05,-4e-05,-4e-05,5,21
25269,-0.00018,7e-05,8e-05,-0.00016,0,-7e-05,-4e-05,-4e-05,5,21
25270,-0.00018,7e-05,8e-05,-0.00016,0,-7e-05,-4e-05,-4e-05,5,21
25271,-0.00018,7e-05,8e-05,-0.00016,0,-7e-05,-4e-05,-4e-05,5,21
25272,-0.00018,7e-05,8e-05,-0.00016,0,-7e-05,-4e-05,-4e-05,5,21
25273,-0.00018,7e-05,8e-05,-0.00016,0,-7e-05,-4e-05,-4e-05,5,21
25274,-0.00018,7e-05,8e-05,-0.00016,0,-7e-05,-4e-05,-4e-05,5,21
25275,-0.00018,7e-05,8e-05,-0.00016,0,-7e-05,-4e-05,-4e-05,5,21
25276,-0.00018,7e-05,8e-05,-0.00016,0,-7e-05,-4e-05,-4e-05,5,21
25277,-0.00018,7e-05,8e-05,-0.00016,0,-7e-05,-4e-05,-4e-05,5,21
25278,-0.00018,7e-05,8e-05,-0.00016,0,-7e-05,-4e-05,-4e-05,5,21
25279,-0.00018,7e-05,8e-05,-0.00016,0,-7e-05,-4e-05,-4e-05,5,21
25280,-0.00018,7e-05,8e-05,-0.00016,0,-7e-05,-4e-05,-4e-05,5,21
25281,-0.00018,7e-05,8e-05,-0.00016,0,-7e-05,-4e-05,-4e-05,5,21
25282,7e-05,6e-05,1e-05,0.00051,-0.00024,0,0,-3e-05,5,21
25283,-3e-05,-3e-05,0,-0.00021,-0.00014,2e-05,0,4e-05,5,21
25284,-3e-05,-3e-05,0,-0.00021,-0.00014,2e-05,0,4e-05,5,21
25285,-3e-05,-3e-05,0,-0.00021,-0.00014,2e-05,0,4e-05,5,21
25287,-3e-05,-3e-05,0,-0.00021,-0.00014,2e-05,0,4e-05,5,21
25289,-3e-05,-3e-05,0,-0.00021,-0.00014,2e-05,0,4e-05,5,21
25290,-3e-05,-3e-05,0,-0.00021,-0.00014,2e-05,0,4e-05,5,21
25291,-3e-05,-3e-05,0,-0.00021,-0.00014,2e-05,0,4e-05,5,21
25292,-3e-05,-3e-05,0,-0.00021,-0.00014,2e-05,0,4e-05,5,21
25293,-3e-05,-3e-05,0,-0.00021,-0.00014,2e-05,0,4e-05,5,21
25294,-3e-05,-3e-05,0,-0.00021,-0.00014,2e-05,0,4e-05,5,21
25295,-3e-05,-3e-05,0,-0.00021,-0.00014,2e-05,0,4e-05,5,21
25296,4e-05,-0.00015,-3e-05,-0.00019,-7e-05,-8e-05,-5e-05,-3e-05,5,21
25297,4e-05,-0.00015,-3e-05,-0.00019,-7e-05,-8e-05,-5e-05,-3e-05,5,21
25298,4e-05,-0.00015,-3e-05,-0.00019,-7e-05,-8e-05,-5e-05,-3e-05,5,21
25299,4e-05,-0.00015,-3e-05,-0.00019,-7e-05,-8e-05,-5e-05,-3e-05,5,21
25300,4e-05,-0.00015,-3e-05,-0.00019,-7e-05,-8e-05,-5e-05,-3e-05,5,21
25301,4e-05,-0.00015,-3e-05,-0.00019,-7e-05,-8e-05,-5e-05,-3e-05,5,21
25302,4e-05,-0.00015,-3e-05,-0.00019,-7e-05,-8e-05,-5e-05,-3e-05,5,21
25303,4e-05,-0.00015,-3e-05,-0.00019,-7e-05,-8e-05,-5e-05,-3e-05,5,21
25304,-0.00025,-0.00021,-0.00039,-0.00038,-0.00011,-4e-05,-1e-05,-4e-05,5,21
25305,-0.00025,-0.00021,-0.00039,-0.00038,-0.00011,-4e-05,-1e-05,-4e-05,5,21
25306,-0.00025,-0.00021,-0.00039,-0.00038,-0.00011,-4e-05,-1e-05,-4e-05,5,21
25307,-0.00025,-0.00021,-0.00039,-0.00038,-0.00011,-4e-05,-1e-05,-4e-05,5,21
25308,-0.00025,-0.00021,-0.00039,-0.00038,-0.00011,-4e-05,-1e-05,-4e-05,5,21
25309,-0.00025,-0.00021,-0.00039,-0.00038,-0.00011,-4e-05,-1e-05,-4e-05,5,21
25310,-0.00025,-0.00021,-0.00039,-0.00038,-0.00011,-4e-05,-1e-05,-4e-05,5,21
25311,-0.00025,-0.00021,-0.00039,-0.00038,-0.00011,-4e-05,-1e-05,-4e-05,5,21
25312,-0.00025,-0.00021,-0.00039,-0.00038,-0.00011,-4e-05,-1e-05,-4e-05,5,21
25313,-0.00025,-0.00021,-0.00039,-0.00038,-0.00011,-4e-05,-1e-05,-4e-05,5,21
25314,-0.00025,-0.00021,-0.00039,-0.00038,-0.00011,-4e-05,-1e-05,-4e-05,5,21
25315,-0.00025,-0.00021,-0.00039,-0.00038,-0.00011,-4e-05,-1e-05,-4e-05,5,21
25316,-0.00025,-0.00021,-0.00039,-0.00038,-0.00011,-4e-05,-1e-05,-4e-05,5,21
25317,-0.00025,-0.00021,-0.00039,-0.00038,-0.00011,-4e-05,-1e-05,-4e-05,5,21
25318,-0.00025,-0.00021,-0.00039,-0.00038,-0.00011,-4e-05,-1e-05,-4e-05,5,21
25319,6e-05,5e-05,2e-05,-0.00042,-0.00049,-2e-05,-1e-05,4e-05,5,21
25320,5e-05,-0.0001,-0.00024,0.00084,0.00025,0.00012,3e-05,1e-05,5,21
25321,5e-05,-0.0001,-0.00024,0.00084,0.00025,0.00012,3e-05,1e-05,5,21
25322,5e-05,-0.0001,-0.00024,0.00084,0.00025,0.00012,3e-05,1e-05,5,21
25323,5e-05,-0.0001,-0.00024,0.00084,0.00025,0.00012,3e-05,1e-05,5,21
25324,5e-05,-0.0001,-0.00024,0.00084,0.00025,0.00012,3e-05,1e-05,5,21
25325,5e-05,-0.0001,-0.00024,0.00084,0.00025,0.00012,3e-05,1e-05,5,21
25326,5e-05,-0.0001,-0.00024,0.00084,0.00025,0.00012,3e-05,1e-05,5,21
25327,5e-05,-0.0001,-0.00024,0.00084,0.00025,0.00012,3e-05,1e-05,5,21
25328,5e-05,-0.0001,-0.00024,0.00084,0.00025,0.00012,3e-05,1e-05,5,21
25329,5e-05,-0.0001,-0.00024,0.00084,0.00025,0.00012,3e-05,1e-05,5,21
25330,5e-05,-0.0001,-0.00024,0.00084,0.00025,0.00012,3e-05,1e-05,5,21
25331,5e-05,-0.0001,-0.00024,0.00084,0.00025,0.00012,3e-05,1e-05,5,21
25332,5e-05,-0.0001,-0.00024,0.00084,0.00025,0.00012,3e-05,1e-05,5,21
25333,5e-05,-0.0001,-0.00024,0.00084,0.00025,0.00012,3e-05,1e-05,5,21
25334,5e-05,-0.0001,-0.00024,0.00084,0.00025,0.00012,3e-05,1e-05,5,21
25335,5e-05,-0.0001,-0.00024,0.00084,0.00025,0.00012,3e-05,1e-05,5,21
25337,5e-05,-0.0001,-0.00024,0.00084,0.00025,0.00012,3e-05,1e-05,5,21
25339,5e-05,-0.0001,-0.00024,0.00084,0.00025,0.00012,3e-05,1e-05,5,21
25340,5e-05,-0.0001,-0.00024,0.00084,0.00025,0.00012,3e-05,1e-05,5,21
25341,5e-05,-0.0001,-0.00024,0.00084,0.00025,0.00012,3e-05,1e-05,5,21
25342,-6e-05,0,1e-05,-0.00048,-1e-05,3e-05,-2e-05,-1e-05,5,21
25343,-0.0001,6e-05,0.00016,0.00083,0.00019,-0.00011,-3e-05,0,5,21
25344,-0.0001,6e-05,0.00016,0.00083,0.00019,-0.00011,-3e-05,0,5,21
25345,-0.0001,6e-05,0.00016,0.00083,0.00019,-0.00011,-3e-05,0,5,21
25346,-0.0001,6e-05,0.00016,0.00083,0.00019,-0.00011,-3e-05,0,5,21
25347,-0.0001,6e-05,0.00016,0.00083,0.00019,-0.00011,-3e-05,0,5,21
25348,-0.0001,6e-05,0.00016,0.00083,0.00019,-0.00011,-3e-05,0,5,21
25349,-0.0001,6e-05,0.00016,0.00083,0.00019,-0.00011,-3e-05,0,5,21
25350,-0.0001,6e-05,0.00016,0.00083,0.00019,-0.00011,-3e-05,0,5,21
25351,-0.0001,6e-05,0.00016,0.00083,0.00019,-0.00011,-3e-05,0,5,21
25352,-0.0001,6e-05,0.00016,0.00083,0.00019,-0.00011,-3e-05,0,5,21
25353,-0.0001,6e-05,0.00016,0.00083,0.00019,-0.00011,-3e-05,0,5,21
25354,-0.0001,6e-05,0.00016,0.00083,0.00019,-0.00011,-3e-05,0,5,21
25355,-0.0001,6e-05,0.00016,0.00083,0.00019,-0.00011,-3e-05,0,5,21
25356,-8e-05,-0.00014,5e-05,0.00043,0.00067,3e-05,-1e-05,-6e-05,5,21
25357,-8e-05,-0.00014,5e-05,0.00043,0.00067,3e-05,-1e-05,-6e-05,5,21
25358,-8e-05,-0.00014,5e-05,0.00043,0.00067,3e-05,-1e-05,-6e-05,5,21
25359,-8e-05,-0.00014,5e-05,0.00043,0.00067,3e-05,-1e-05,-6e-05,5,21
25360,-8e-05,-0.00014,5e-05,0.00043,0.00067,3e-05,-1e-05,-6e-05,5,21
25361,-8e-05,-0.00014,5e-05,0.00043,0.00067,3e-05,-1e-05,-6e-05,5,21
25362,-8e-05,-0.00014,5e-05,0.00043,0.00067,3e-05,-1e-05,-6e-05,5,21
25363,-8e-05,-0.00014,5e-05,0.00043,0.00067,3e-05,-1e-05,-6e-05,5,21
25364,0.00037,-2e-05,-9e-05,-0.00083,9e-05,-3e-05,-2e-05,1e-05,5,21
25365,0.00037,-2e-05,-9e-05,-0.00083,9e-05,-3e-05,-2e-05,1e-05,5,21
25366,0.00037,-2e-05,-9e-05,-0.00083,9e-05,-3e-05,-2e-05,1e-05,5,21
25367,0.00037,-2e-05,-9e-05,-0.00083,9e-05,-3e-05,-2e-05,1e-05,5,21
25368,0.00037,-2e-05,-9e-05,-0.00083,9e-05,-3e-05,-2e-05,1e-05,5,21
25369,0.00037,-2e-05,-9e-05,-0.00083,9e-05,-3e-05,-2e-05,1e-05,5,21
25370,0.00037,-2e-05,-9e-05,-0.00083,9e-05,-3e-05,-2e-05,1e-05,5,21
25371,0.00037,-2e-05,-9e-05,-0.00083,9e-05,-3e-05,-2e-05,1e-05,5,21
25372,0.00037,-2e-05,-9e-05,-0.00083,9e-05,-3e-05,-2e-05,1e-05,5,21
25373,0.00037,-2e-05,-9e-05,-0.00083,9e-05,-3e-05,-2e-05,1e-05,5,21
25374,0.00037,-2e-05,-9e-05,-0.00083,9e-05,-3e-05,-2e-05,1e-05,5,21
25375,0.00037,-2e-05,-9e-05,-0.00083,9e-05,-3e-05,-2e-05,1e-05,5,21
25376,0.00037,-2e-05,-9e-05,-0.00083,9e-05,-3e-05,-2e-05,1e-05,5,21
25377,0.00037,-2e-05,-9e-05,-0.00083,9e-05,-3e-05,-2e-05,1e-05,5,21
25378,0.00037,-2e-05,-9e-05,-0.00083,9e-05,-3e-05,-2e-05,1e-05,5,21
25379,0.00013,0.00017,0.0002,0.0006,-0.00023,2e-05,1e-05,-1e-05,5,21
25380,0.0004,4e-05,4e-05,-8e-05,-0.00031,-4e-05,-1e-05,3e-05,5,21
25381,0.0004,4e-05,4e-05,-8e-05,-0.00031,-4e-05,-1e-05,3e-05,5,21
25382,0.0004,4e-05,4e-05,-8e-05,-0.00031,-4e-05,-1e-05,3e-05,5,21
25383,0.0004,4e-05,4e-05,-8e-05,-0.00031,-4e-05,-1e-05,3e-05,5,21
25384,0.0004,4e-05,4e-05,-8e-05,-0.00031,-4e-05,-1e-05,3e-05,5,21
25385,0.0004,4e-05,4e-05,-8e-05,-0.00031,-4e-05,-1e-05,3e-05,5,21
25387,0.0004,4e-05,4e-05,-8e-05,-0.00031,-4e-05,-1e-05,3e-05,5,21
25389,0.0004,4e-05,4e-05,-8e-05,-0.00031,-4e-05,-1e-05,3e-05,5,21
25390,0.0004,4e-05,4e-05,-8e-05,-0.00031,-4e-05,-1e-05,3e-05,5,21
25391,0.0004,4e-05,4e-05,-8e-05,-0.00031,-4e-05,-1e-05,3e-05,5,21
25392,0.0004,4e-05,4e-05,-8e-05,-0.00031,-4e-05,-1e-05,3e-05,5,21
25393,0.0004,4e-05,4e-05,-8e-05,-0.00031,-4e-05,-1e-05,3e-05,5,21
25394,0.0004,4e-05,4e-05,-8e-05,-0.00031,-4e-05,-1e-05,3e-05,5,21
25395,0.0004,4e-05,4e-05,-8e-05,-0.00031,-4e-05,-1e-05,3e-05,5,21
25396,0.0004,4e-05,4e-05,-8e-05,-0.00031,-4e-05,-1e-05,3e-05,5,21
25397,0.0004,4e-05,4e-05,-8e-05,-0.00031,-4e-05,-1e-05,3e-05,5,21
25398,0.0004,4e-05,4e-05,-8e-05,-0.00031,-4e-05,-1e-05,3e-05,5,21
25399,0.0004,4e-05,4e-05,-8e-05,-0.00031,-4e-05,-1e-05,3e-05,5,21
25400,0.0004,4e-05,4e-05,-8e-05,-0.00031,-4e-05,-1e-05,3e-05,5,21
25401,0.0004,4e-05,4e-05,-8e-05,-0.00031,-4e-05,-1e-05,3e-05,5,21
25402,-8e-05,-4e-05,-0.00015,-0.00049,0.00037,0,-2e-05,2e-05,5,21
25403,-0.0001,0.0001,0.0001,-0.00015,0.00026,-3e-05,0,-1e-05,5,21
25404,-0.0001,0.0001,0.0001,-0.00015,0.00026,-3e-05,0,-1e-05,5,21
25405,-0.0001,0.0001,0.0001,-0.00015,0.00026,-3e-05,0,-1e-05,5,21
25406,-0.0001,0.0001,0.0001,-0.00015,0.00026,-3e-05,0,-1e-05,5,21
25407,-0.0001,0.0001,0.0001,-0.00015,0.00026,-3e-05,0,-1e-05,5,21
25408,-0.0001,0.0001,0.0001,-0.00015,0.00026,-3e-05,0,-1e-05,5,21
25409,-0.0001,0.0001,0.0001,-0.00015,0.00026,-3e-05,0,-1e-05,5,21
25410,-0.0001,0.0001,0.0001,-0.00015,0.00026,-3e-05,0,-1e-05,5,21
25411,-0.0001,0.0001,0.0001,-0.00015,0.00026,-3e-05,0,-1e-05,5,21
25412,-0.0001,0.0001,0.0001,-0.00015,0.00026,-3e-05,0,-1e-05,5,21
25413,-0.0001,0.0001,0.0001,-0.00015,0.00026,-3e-05,0,-1e-05,5,21
25414,-0.0001,0.0001,0.0001,-0.00015,0.00026,-3e-05,0,-1e-05,5,21
25415,-0.0001,0.0001,0.0001,-0.00015,0.00026,-3e-05,0,-1e-05,5,21
25416,-0.0001,-4e-05,0.0002,-7e-05,-0.00048,-2e-05,-3e-05,-6e-05,5,21
25417,-0.0001,-4e-05,0.0002,-7e-05,-0.00048,-2e-05,-3e-05,-6e-05,5,21
25418,-0.0001,-4e-05,0.0002,-7e-05,-0.00048,-2e-05,-3e-05,-6e-05,5,21
25419,-0.0001,-4e-05,0.0002,-7e-05,-0.00048,-2e-05,-3e-05,-6e-05,5,21
25420,-0.0001,-4e-05,0.0002,-7e-05,-0.00048,-2e-05,-3e-05,-6e-05,5,21
25421,-0.0001,-4e-05,0.0002,-7e-05,-0.00048,-2e-05,-3e-05,-6e-05,5,21
25422,-0.0001,-4e-05,0.0002,-7e-05,-0.00048,-2e-05,-3e-05,-6e-05,5,21
25423,-0.0001,-4e-05,0.0002,-7e-05,-0.00048,-2e-05,-3e-05,-6e-05,5,21
25424,-0.00017,-6e-05,5e-05,2e-05,-0.00016,-2e-05,1e-05,-5e-05,5,21
25425,-0.00017,-6e-05,5e-05,2e-05,-0.00016,-2e-05,1e-05,-5e-05,5,21
25426,-0.00017,-6e-05,5e-05,2e-05,-0.00016,-2e-05,1e-05,-5e-05,5,21
25427,-0.00017,-6e-05,5e-05,2e-05,-0.00016,-2e-05,1e-05,-5e-05,5,21
25428,-0.00017,-6e-05,5e-05,2e-05,-0.00016,-2e-05,1e-05,-5e-05,5,21
25429,-0.00017,-6e-05,5e-05,2e-05,-0.00016,-2e-05,1e-05,-5e-05,5,21
25430,-0.00017,-6e-05,5e-05,2e-05,-0.00016,-2e-05,1e-05,-5e-05,5,21
25431,-0.00017,-6e-05,5e-05,2e-05,-0.00016,-2e-05,1e-05,-5e-05,5,21
25432,-0.00017,-6e-05,5e-05,2e-05,-0.00016,-2e-05,1e-05,-5e-05,5,21
25433,-0.00017,-6e-05,5e-05,2e-05,-0.00016,-2e-05,1e-05,-5e-05,5,21
25434,-0.00017,-6e-05,5e-05,2e-05,-0.00016,-2e-05,1e-05,-5e-05,5,21
25435,-0.00017,-6e-05,5e-05,2e-05,-0.00016,-2e-05,1e-05,-5e-05,5,21
25437,-0.00017,-6e-05,5e-05,2e-05,-0.00016,-2e-05,1e-05,-5e-05,5,21
25439,4e-05,0.00014,1e-05,0.00025,0.00029,3e-05,2e-05,2e-05,5,21
25440,-0.00029,-0.00016,-0.00011,-0.0001,-0.00019,-8e-05,-3e-05,-7e-05,5,21
25441,-0.00029,-0.00016,-0.00011,-0.0001,-0.00019,-8e-05,-3e-05,-7e-05,5,21
25442,-0.00029,-0.00016,-0.00011,-0.0001,-0.00019,-8e-05,-3e-05,-7e-05,5,21
25443,-0.00029,-0.00016,-0.00011,-0.0001,-0.00019,-8e-05,-3e-05,-7e-05,5,21
25444,-0.00029,-0.00016,-0.00011,-0.0001,-0.00019,-8e-05,-3e-05,-7e-05,5,21
25445,-0.00029,-0.00016,-0.00011,-0.0001,-0.00019,-8e-05,-3e-05,-7e-05,5,21
25446,-0.00029,-0.00016,-0.00011,-0.0001,-0.00019,-8e-05,-3e-05,-7e-05,5,21
25447,-0.00029,-0.00016,-0.00011,-0.0001,-0.00019,-8e-05,-3e-05,-7e-05,5,21
25448,-0.00029,-0.00016,-0.00011,-0.0001,-0.00019,-8e-05,-3e-05,-7e-05,5,21
25449,-0.00029,-0.00016,-0.00011,-0.0001,-0.00019,-8e-05,-3e-05,-7e-05,5,21
25450,-0.00029,-0.00016,-0.00011,-0.0001,-0.00019,-8e-05,-3e-05,-7e-05,5,21
25451,-0.00029,-0.00016,-0.00011,-0.0001,-0.00019,-8e-05,-3e-05,-7e-05,5,21
25452,-0.00029,-0.00016,-0.00011,-0.0001,-0.00019,-8e-05,-3e-05,-7e-05,5,21
25453,-0.00029,-0.00016,-0.00011,-0.0001,-0.00019,-8e-05,-3e-05,-7e-05,5,21
25454,-0.00029,-0.00016,-0.00011,-0.0001,-0.00019,-8e-05,-3e-05,-7e-05,5,21
25455,-0.00029,-0.00016,-0.00011,-0.0001,-0.00019,-8e-05,-3e-05,-7e-05,5,21
25456,-0.00029,-0.00016,-0.00011,-0.0001,-0.00019,-8e-05,-3e-05,-7e-05,5,21
25457,-0.00029,-0.00016,-0.00011,-0.0001,-0.00019,-8e-05,-3e-05,-7e-05,5,21
25458,-0.00029,-0.00016,-0.00011,-0.0001,-0.00019,-8e-05,-3e-05,-7e-05,5,21
25459,-0.00029,-0.00016,-0.00011,-0.0001,-0.00019,-8e-05,-3e-05,-7e-05,5,21
25460,-0.00029,-0.00016,-0.00011,-0.0001,-0.00019,-8e-05,-3e-05,-7e-05,5,21
25461,-0.00029,-0.00016,-0.00011,-0.0001,-0.00019,-8e-05,-3e-05,-7e-05,5,21
25462,-0.00032,-7e-05,2e-05,0.00061,1e-05,0.00012,0,-0.00016,5,21
25463,-0.00032,-7e-05,2e-05,0.00061,1e-05,0.00012,0,-0.00016,5,21
25464,-0.00032,-7e-05,2e-05,0.00061,1e-05,0.00012,0,-0.00016,5,21
25465,-0.00032,-7e-05,2e-05,0.00061,1e-05,0.00012,0,-0.00016,5,21
25466,-0.00032,-7e-05,2e-05,0.00061,1e-05,0.00012,0,-0.00016,5,21
25467,-0.00032,-7e-05,2e-05,0.00061,1e-05,0.00012,0,-0.00016,5,21
25468,-0.00032,-7e-05,2e-05,0.00061,1e-05,0.00012,0,-0.00016,5,21
25469,-0.00032,-7e-05,2e-05,0.00061,1e-05,0.00012,0,-0.00016,5,21
25470,-0.00032,-7e-05,2e-05,0.00061,1e-05,0.00012,0,-0.00016,5,21
25471,-0.00032,-7e-05,2e-05,0.00061,1e-05,0.00012,0,-0.00016,5,21
25472,-0.00032,-7e-05,2e-05,0.00061,1e-05,0.00012,0,-0.00016,5,21
25473,-0.00032,-7e-05,2e-05,0.00061,1e-05,0.00012,0,-0.00016,5,21
25474,-0.00032,-7e-05,2e-05,0.00061,1e-05,0.00012,0,-0.00016,5,21
25475,-0.00032,-7e-05,2e-05,0.00061,1e-05,0.00012,0,-0.00016,5,21
25476,-0.00032,-7e-05,2e-05,0.00061,1e-05,0.00012,0,-0.00016,5,21
25477,-0.00032,-7e-05,2e-05,0.00061,1e-05,0.00012,0,-0.00016,5,21
25478,-0.00032,-7e-05,2e-05,0.00061,1e-05,0.00012,0,-0.00016,5,21
25479,-0.00032,-7e-05,2e-05,0.00061,1e-05,0.00012,0,-0.00016,5,21
25480,-0.00032,-7e-05,2e-05,0.00061,1e-05,0.00012,0,-0.00016,5,21
25481,-0.00032,-7e-05,2e-05,0.00061,1e-05,0.00012,0,-0.00016,5,21
25482,-0.00032,-7e-05,2e-05,0.00061,1e-05,0.00012,0,-0.00016,5,21
25483,-0.00032,-7e-05,2e-05,0.00061,1e-05,0.00012,0,-0.00016,5,21
25484,-0.00032,-7e-05,2e-05,0.00061,1e-05,0.00012,0,-0.00016,5,21
25485,0,-0.00014,-0.00041,0.0004,0.001,0.00014,-2e-05,-6e-05,5,21
25487,1e-05,2e-05,3e-05,-0.00043,4e-05,2e-05,2e-05,0,5,21
25489,1e-05,2e-05,3e-05,-0.00043,4e-05,2e-05,2e-05,0,5,21
25490,1e-05,2e-05,3e-05,-0.00043,4e-05,2e-05,2e-05,0,5,21
25491,1e-05,2e-05,3e-05,-0.00043,4e-05,2e-05,2e-05,0,5,21
25492,1e-05,2e-05,3e-05,-0.00043,4e-05,2e-05,2e-05,0,5,21
25493,1e-05,2e-05,3e-05,-0.00043,4e-05,2e-05,2e-05,0,5,21
25494,1e-05,2e-05,3e-05,-0.00043,4e-05,2e-05,2e-05,0,5,21
25495,1e-05,2e-05,3e-05,-0.00043,4e-05,2e-05,2e-05,0,5,21
25496,1e-05,2e-05,3e-05,-0.00043,4e-05,2e-05,2e-05,0,5,21
25497,1e-05,2e-05,3e-05,-0.00043,4e-05,2e-05,2e-05,0,5,21
25498,1e-05,2e-05,3e-05,-0.00043,4e-05,2e-05,2e-05,0,5,21
25499,0,0.00011,0.00022,0.00051,-0.00043,-9e-05,0,2e-05,5,21
25500,7e-05,5e-05,3e-05,7e-05,-0.00038,-6e-05,-1e-05,2e-05,5,21
25501,7e-05,5e-05,3e-05,7e-05,-0.00038,-6e-05,-1e-05,2e-05,5,21
25502,7e-05,5e-05,3e-05,7e-05,-0.00038,-6e-05,-1e-05,2e-05,5,21
25503,7e-05,5e-05,3e-05,7e-05,-0.00038,-6e-05,-1e-05,2e-05,5,21
25504,7e-05,5e-05,3e-05,7e-05,-0.00038,-6e-05,-1e-05,2e-05,5,21
25505,7e-05,5e-05,3e-05,7e-05,-0.00038,-6e-05,-1e-05,2e-05,5,21
25506,7e-05,5e-05,3e-05,7e-05,-0.00038,-6e-05,-1e-05,2e-05,5,21
25507,7e-05,5e-05,3e-05,7e-05,-0.00038,-6e-05,-1e-05,2e-05,5,21
25508,7e-05,5e-05,3e-05,7e-05,-0.00038,-6e-05,-1e-05,2e-05,5,21
25509,7e-05,5e-05,3e-05,7e-05,-0.00038,-6e-05,-1e-05,2e-05,5,21
25510,7e-05,5e-05,3e-05,7e-05,-0.00038,-6e-05,-1e-05,2e-05,5,21
25511,7e-05,5e-05,3e-05,7e-05,-0.00038,-6e-05,-1e-05,2e-05,5,21
25512,7e-05,5e-05,3e-05,7e-05,-0.00038,-6e-05,-1e-05,2e-05,5,21
25513,7e-05,5e-05,3e-05,7e-05,-0.00038,-6e-05,-1e-05,2e-05,5,21
25514,7e-05,5e-05,3e-05,7e-05,-0.00038,-6e-05,-1e-05,2e-05,5,21
25515,7e-05,5e-05,3e-05,7e-05,-0.00038,-6e-05,-1e-05,2e-05,5,21
25516,7e-05,5e-05,3e-05,7e-05,-0.00038,-6e-05,-1e-05,2e-05,5,21
25517,7e-05,5e-05,3e-05,7e-05,-0.00038,-6e-05,-1e-05,2e-05,5,21
25518,7e-05,5e-05,3e-05,7e-05,-0.00038,-6e-05,-1e-05,2e-05,5,21
25519,7e-05,5e-05,3e-05,7e-05,-0.00038,-6e-05,-1e-05,2e-05,5,21
25520,7e-05,5e-05,3e-05,7e-05,-0.00038,-6e-05,-1e-05,2e-05,5,21
25521,-0.00012,-3e-05,-4e-05,-0.0006,-0.00044,1e-05,1e-05,-1e-05,5,21
25522,1e-05,-3e-05,0.00048,-0.00023,-0.00069,8e-05,1e-05,-2e-05,5,21
25523,-2e-05,-5e-05,-6e-05,4e-05,0.00025,-5e-05,-5e-05,-1e-05,5,21
25524,-2e-05,-5e-05,-6e-05,4e-05,0.00025,-5e-05,-5e-05,-1e-05,5,21
25525,-2e-05,-5e-05,-6e-05,4e-05,0.00025,-5e-05,-5e-05,-1e-05,5,21
25526,-2e-05,-5e-05,-6e-05,4e-05,0.00025,-5e-05,-5e-05,-1e-05,5,21
25527,-2e-05,-5e-05,-6e-05,4e-05,0.00025,-5e-05,-5e-05,-1e-05,5,21
25528,-2e-05,-5e-05,-6e-05,4e-05,0.00025,-5e-05,-5e-05,-1e-05,5,21
25529,-2e-05,-5e-05,-6e-05,4e-05,0.00025,-5e-05,-5e-05,-1e-05,5,21
25530,-2e-05,-5e-05,-6e-05,4e-05,0.00025,-5e-05,-5e-05,-1e-05,5,21
25531,-2e-05,-5e-05,-6e-05,4e-05,0.00025,-5e-05,-5e-05,-1e-05,5,21
25532,-2e-05,-5e-05,-6e-05,4e-05,0.00025,-5e-05,-5e-05,-1e-05,5,21
25533,-2e-05,-5e-05,-6e-05,4e-05,0.00025,-5e-05,-5e-05,-1e-05,5,21
25534,-2e-05,-5e-05,-6e-05,4e-05,0.00025,-5e-05,-5e-05,-1e-05,5,21
25535,-2e-05,-5e-05,-6e-05,4e-05,0.00025,-5e-05,-5e-05,-1e-05,5,21
25537,-2e-05,-5e-05,-6e-05,4e-05,0.00025,-5e-05,-5e-05,-1e-05,5,21
25539,-2e-05,-5e-05,-6e-05,4e-05,0.00025,-5e-05,-5e-05,-1e-05,5,21
25540,-2e-05,-5e-05,-6e-05,4e-05,0.00025,-5e-05,-5e-05,-1e-05,5,21
25541,-2e-05,-5e-05,-6e-05,4e-05,0.00025,-5e-05,-5e-05,-1e-05,5,21
25542,-2e-05,-5e-05,-6e-05,4e-05,0.00025,-5e-05,-5e-05,-1e-05,5,21
25543,-2e-05,-5e-05,-6e-05,4e-05,0.00025,-5e-05,-5e-05,-1e-05,5,21
25544,-2e-05,-5e-05,-6e-05,4e-05,0.00025,-5e-05,-5e-05,-1e-05,5,21
25545,-6e-05,-7e-05,-0.00015,-0.00076,-0.00047,-0.00033,-0.0001,-7e-05,5,21
25546,5e-05,-3e-05,-0.00024,-0.00037,-8e-05,3e-05,-1e-05,1e-05,5,21
25547,5e-05,-3e-05,-0.00024,-0.00037,-8e-05,3e-05,-1e-05,1e-05,5,21
25548,5e-05,-3e-05,-0.00024,-0.00037,-8e-05,3e-05,-1e-05,1e-05,5,21
25549,5e-05,-3e-05,-0.00024,-0.00037,-8e-05,3e-05,-1e-05,1e-05,5,21
25550,5e-05,-3e-05,-0.00024,-0.00037,-8e-05,3e-05,-1e-05,1e-05,5,21
25551,5e-05,-3e-05,-0.00024,-0.00037,-8e-05,3e-05,-1e-05,1e-05,5,21
25552,5e-05,-3e-05,-0.00024,-0.00037,-8e-05,3e-05,-1e-05,1e-05,5,21
25553,5e-05,-3e-05,-0.00024,-0.00037,-8e-05,3e-05,-1e-05,1e-05,5,21
25554,5e-05,-3e-05,-0.00024,-0.00037,-8e-05,3e-05,-1e-05,1e-05,5,21
25555,5e-05,-3e-05,-0.00024,-0.00037,-8e-05,3e-05,-1e-05,1e-05,5,21
25556,5e-05,-3e-05,-0.00024,-0.00037,-8e-05,3e-05,-1e-05,1e-05,5,21
25557,5e-05,-3e-05,-0.00024,-0.00037,-8e-05,3e-05,-1e-05,1e-05,5,21
25558,5e-05,-3e-05,-0.00024,-0.00037,-8e-05,3e-05,-1e-05,1e-05,5,21
25559,-3e-05,-9e-05,-0.00015,-0.00016,-0.00047,-4e-05,-4e-05,-2e-05,5,21
25560,8e-05,8e-05,7e-05,-0.00017,-0.00022,-5e-05,-3e-05,3e-05,5,21
25561,8e-05,8e-05,7e-05,-0.00017,-0.00022,-5e-05,-3e-05,3e-05,5,21
25562,8e-05,8e-05,7e-05,-0.00017,-0.00022,-5e-05,-3e-05,3e-05,5,21
25563,8e-05,8e-05,7e-05,-0.00017,-0.00022,-5e-05,-3e-05,3e-05,5,21
25564,8e-05,8e-05,7e-05,-0.00017,-0.00022,-5e-05,-3e-05,3e-05,5,21
25565,8e-05,8e-05,7e-05,-0.00017,-0.00022,-5e-05,-3e-05,3e-05,5,21
25566,8e-05,8e-05,7e-05,-0.00017,-0.00022,-5e-05,-3e-05,3e-05,5,21
25567,8e-05,8e-05,7e-05,-0.00017,-0.00022,-5e-05,-3e-05,3e-05,5,21
25568,8e-05,8e-05,7e-05,-0.00017,-0.00022,-5e-05,-3e-05,3e-05,5,21
25569,8e-05,8e-05,7e-05,-0.00017,-0.00022,-5e-05,-3e-05,3e-05,5,21
25570,8e-05,8e-05,7e-05,-0.00017,-0.00022,-5e-05,-3e-05,3e-05,5,21
25571,8e-05,8e-05,7e-05,-0.00017,-0.00022,-5e-05,-3e-05,3e-05,5,21
25572,8e-05,8e-05,7e-05,-0.00017,-0.00022,-5e-05,-3e-05,3e-05,5,21
25573,8e-05,8e-05,7e-05,-0.00017,-0.00022,-5e-05,-3e-05,3e-05,5,21
25574,8e-05,8e-05,7e-05,-0.00017,-0.00022,-5e-05,-3e-05,3e-05,5,21
25575,8e-05,8e-05,7e-05,-0.00017,-0.00022,-5e-05,-3e-05,3e-05,5,21
25576,8e-05,8e-05,7e-05,-0.00017,-0.00022,-5e-05,-3e-05,3e-05,5,21
25577,8e-05,8e-05,7e-05,-0.00017,-0.00022,-5e-05,-3e-05,3e-05,5,21
25578,8e-05,8e-05,7e-05,-0.00017,-0.00022,-5e-05,-3e-05,3e-05,5,21
25579,8e-05,8e-05,7e-05,-0.00017,-0.00022,-5e-05,-3e-05,3e-05,5,21
25580,8e-05,8e-05,7e-05,-0.00017,-0.00022,-5e-05,-3e-05,3e-05,5,21
25581,8e-05,8e-05,7e-05,-0.00017,-0.00022,-5e-05,-3e-05,3e-05,5,21
25582,1e-05,-2e-05,2e-05,-3e-05,0.00026,9e-05,3e-05,-1e-05,5,21
25583,1e-05,-2e-05,2e-05,-3e-05,0.00026,9e-05,3e-05,-1e-05,5,21
25584,1e-05,-2e-05,2e-05,-3e-05,0.00026,9e-05,3e-05,-1e-05,5,21
25585,1e-05,-2e-05,2e-05,-3e-05,0.00026,9e-05,3e-05,-1e-05,5,21
25587,1e-05,-2e-05,2e-05,-3e-05,0.00026,9e-05,3e-05,-1e-05,5,21
25589,1e-05,-2e-05,2e-05,-3e-05,0.00026,9e-05,3e-05,-1e-05,5,21
25590,1e-05,-2e-05,2e-05,-3e-05,0.00026,9e-05,3e-05,-1e-05,5,21
25591,1e-05,-2e-05,2e-05,-3e-05,0.00026,9e-05,3e-05,-1e-05,5,21
25592,1e-05,-2e-05,2e-05,-3e-05,0.00026,9e-05,3e-05,-1e-05,5,21
25593,1e-05,-2e-05,2e-05,-3e-05,0.00026,9e-05,3e-05,-1e-05,5,21
25594,1e-05,-2e-05,2e-05,-3e-05,0.00026,9e-05,3e-05,-1e-05,5,21
25595,1e-05,-2e-05,2e-05,-3e-05,0.00026,9e-05,3e-05,-1e-05,5,21
25596,1e-05,-2e-05,2e-05,-3e-05,0.00026,9e-05,3e-05,-1e-05,5,21
25597,1e-05,-2e-05,2e-05,-3e-05,0.00026,9e-05,3e-05,-1e-05,5,21
25598,1e-05,-2e-05,2e-05,-3e-05,0.00026,9e-05,3e-05,-1e-05,5,21
25599,1e-05,-2e-05,2e-05,-3e-05,0.00026,9e-05,3e-05,-1e-05,5,21
25600,1e-05,-2e-05,2e-05,-3e-05,0.00026,9e-05,3e-05,-1e-05,5,21
25601,1e-05,-2e-05,2e-05,-3e-05,0.00026,9e-05,3e-05,-1e-05,5,21
25602,1e-05,-2e-05,2e-05,-3e-05,0.00026,9e-05,3e-05,-1e-05,5,21
25603,1e-05,-2e-05,2e-05,-3e-05,0.00026,9e-05,3e-05,-1e-05,5,21
25604,1e-05,-2e-05,2e-05,-3e-05,0.00026,9e-05,3e-05,-1e-05,5,21
25605,-1e-05,5e-05,0.00011,0.00013,-0.00028,-4e-05,-3e-05,-1e-05,5,21
25606,2e-05,0.00012,0.00027,-0.00014,-4e-05,-9e-05,-4e-05,2e-05,5,21
25607,2e-05,0.00012,0.00027,-0.00014,-4e-05,-9e-05,-4e-05,2e-05,5,21
25608,2e-05,0.00012,0.00027,-0.00014,-4e-05,-9e-05,-4e-05,2e-05,5,21
25609,2e-05,0.00012,0.00027,-0.00014,-4e-05,-9e-05,-4e-05,2e-05,5,21
25610,2e-05,0.00012,0.00027,-0.00014,-4e-05,-9e-05,-4e-05,2e-05,5,21
25611,2e-05,0.00012,0.00027,-0.00014,-4e-05,-9e-05,-4e-05,2e-05,5,21
25612,2e-05,0.00012,0.00027,-0.00014,-4e-05,-9e-05,-4e-05,2e-05,5,21
25613,2e-05,0.00012,0.00027,-0.00014,-4e-05,-9e-05,-4e-05,2e-05,5,21
25614,2e-05,0.00012,0.00027,-0.00014,-4e-05,-9e-05,-4e-05,2e-05,5,21
25615,2e-05,0.00012,0.00027,-0.00014,-4e-05,-9e-05,-4e-05,2e-05,5,21
25616,2e-05,0.00012,0.00027,-0.00014,-4e-05,-9e-05,-4e-05,2e-05,5,21
25617,2e-05,0.00012,0.00027,-0.00014,-4e-05,-9e-05,-4e-05,2e-05,5,21
25618,2e-05,0.00012,0.00027,-0.00014,-4e-05,-9e-05,-4e-05,2e-05,5,21
25619,-0.00011,-5e-05,-0.00026,-0.00023,4e-05,-3e-05,-3e-05,-2e-05,5,21
25620,-0.00021,1e-05,0.00026,4e-05,-1e-05,-4e-05,-1e-05,0,5,21
25621,-0.00021,1e-05,0.00026,4e-05,-1e-05,-4e-05,-1e-05,0,5,21
25622,-0.00021,1e-05,0.00026,4e-05,-1e-05,-4e-05,-1e-05,0,5,21
25623,-0.00021,1e-05,0.00026,4e-05,-1e-05,-4e-05,-1e-05,0,5,21
25624,-0.00021,1e-05,0.00026,4e-05,-1e-05,-4e-05,-1e-05,0,5,21
25625,-0.00021,1e-05,0.00026,4e-05,-1e-05,-4e-05,-1e-05,0,5,21
25626,-0.00021,1e-05,0.00026,4e-05,-1e-05,-4e-05,-1e-05,0,5,21
25627,-0.00021,1e-05,0.00026,4e-05,-1e-05,-4e-05,-1e-05,0,5,21
25628,-0.00021,1e-05,0.00026,4e-05,-1e-05,-4e-05,-1e-05,0,5,21
25629,-0.00021,1e-05,0.00026,4e-05,-1e-05,-4e-05,-1e-05,0,5,21
25630,-0.00021,1e-05,0.00026,4e-05,-1e-05,-4e-05,-1e-05,0,5,21
25631,-0.00021,1e-05,0.00026,4e-05,-1e-05,-4e-05,-1e-05,0,5,21
25632,-0.00021,1e-05,0.00026,4e-05,-1e-05,-4e-05,-1e-05,0,5,21
25633,-0.00021,1e-05,0.00026,4e-05,-1e-05,-4e-05,-1e-05,0,5,21
25634,-0.00021,1e-05,0.00026,4e-05,-1e-05,-4e-05,-1e-05,0,5,21
25635,-0.00021,1e-05,0.00026,4e-05,-1e-05,-4e-05,-1e-05,0,5,21
25637,-0.00021,1e-05,0.00026,4e-05,-1e-05,-4e-05,-1e-05,0,5,21
25639,-0.00021,1e-05,0.00026,4e-05,-1e-05,-4e-05,-1e-05,0,5,21
25640,-0.00021,1e-05,0.00026,4e-05,-1e-05,-4e-05,-1e-05,0,5,21
25641,-0.00021,1e-05,0.00026,4e-05,-1e-05,-4e-05,-1e-05,0,5,21
25642,-9e-05,0.0001,0.00032,-0.00057,0.00049,0.00025,9e-05,4e-05,5,21
25643,7e-05,-4e-05,-8e-05,9e-05,-5e-05,3e-05,-2e-05,-3e-05,5,21
25644,7e-05,-4e-05,-8e-05,9e-05,-5e-05,3e-05,-2e-05,-3e-05,5,21
25645,7e-05,-4e-05,-8e-05,9e-05,-5e-05,3e-05,-2e-05,-3e-05,5,21
25646,7e-05,-4e-05,-8e-05,9e-05,-5e-05,3e-05,-2e-05,-3e-05,5,21
25647,7e-05,-4e-05,-8e-05,9e-05,-5e-05,3e-05,-2e-05,-3e-05,5,21
25648,7e-05,-4e-05,-8e-05,9e-05,-5e-05,3e-05,-2e-05,-3e-05,5,21
25649,7e-05,-4e-05,-8e-05,9e-05,-5e-05,3e-05,-2e-05,-3e-05,5,21
25650,7e-05,-4e-05,-8e-05,9e-05,-5e-05,3e-05,-2e-05,-3e-05,5,21
25651,7e-05,-4e-05,-8e-05,9e-05,-5e-05,3e-05,-2e-05,-3e-05,5,21
25652,7e-05,-4e-05,-8e-05,9e-05,-5e-05,3e-05,-2e-05,-3e-05,5,21
25653,7e-05,-4e-05,-8e-05,9e-05,-5e-05,3e-05,-2e-05,-3e-05,5,21
25654,7e-05,-4e-05,-8e-05,9e-05,-5e-05,3e-05,-2e-05,-3e-05,5,21
25655,7e-05,-4e-05,-8e-05,9e-05,-5e-05,3e-05,-2e-05,-3e-05,5,21
25656,7e-05,-4e-05,-8e-05,9e-05,-5e-05,3e-05,-2e-05,-3e-05,5,21
25657,7e-05,-4e-05,-8e-05,9e-05,-5e-05,3e-05,-2e-05,-3e-05,5,21
25658,7e-05,-4e-05,-8e-05,9e-05,-5e-05,3e-05,-2e-05,-3e-05,5,21
25659,7e-05,-4e-05,-8e-05,9e-05,-5e-05,3e-05,-2e-05,-3e-05,5,21
25660,7e-05,-4e-05,-8e-05,9e-05,-5e-05,3e-05,-2e-05,-3e-05,5,21
25661,7e-05,-4e-05,-8e-05,9e-05,-5e-05,3e-05,-2e-05,-3e-05,5,21
25662,7e-05,-4e-05,-8e-05,9e-05,-5e-05,3e-05,-2e-05,-3e-05,5,21
25663,7e-05,-4e-05,-8e-05,9e-05,-5e-05,3e-05,-2e-05,-3e-05,5,21
25664,7e-05,-4e-05,-8e-05,9e-05,-5e-05,3e-05,-2e-05,-3e-05,5,21
25665,-0.00055,2e-05,0.00048,-0.00024,-0.00012,-0.00012,-4e-05,-7e-05,5,21
25666,7e-05,-0.00021,-0.00083,-0.00039,-0.00032,1e-05,-2e-05,-3e-05,5,21
25667,7e-05,-0.00021,-0.00083,-0.00039,-0.00032,1e-05,-2e-05,-3e-05,5,21
25668,7e-05,-0.00021,-0.00083,-0.00039,-0.00032,1e-05,-2e-05,-3e-05,5,21
25669,7e-05,-0.00021,-0.00083,-0.00039,-0.00032,1e-05,-2e-05,-3e-05,5,21
25670,7e-05,-0.00021,-0.00083,-0.00039,-0.00032,1e-05,-2e-05,-3e-05,5,21
25671,7e-05,-0.00021,-0.00083,-0.00039,-0.00032,1e-05,-2e-05,-3e-05,5,21
25672,7e-05,-0.00021,-0.00083,-0.00039,-0.00032,1e-05,-2e-05,-3e-05,5,21
25673,7e-05,-0.00021,-0.00083,-0.00039,-0.00032,1e-05,-2e-05,-3e-05,5,21
25674,7e-05,-0.00021,-0.00083,-0.00039,-0.00032,1e-05,-2e-05,-3e-05,5,21
25675,7e-05,-0.00021,-0.00083,-0.00039,-0.00032,1e-05,-2e-05,-3e-05,5,21
25676,7e-05,-0.00021,-0.00083,-0.00039,-0.00032,1e-05,-2e-05,-3e-05,5,21
25677,7e-05,-0.00021,-0.00083,-0.00039,-0.00032,1e-05,-2e-05,-3e-05,5,21
25678,7e-05,-0.00021,-0.00083,-0.00039,-0.00032,1e-05,-2e-05,-3e-05,5,21
25679,-0.00012,0.00012,0.00014,0.0005,0.00039,0.0001,4e-05,5e-05,5,21
25680,-0.00021,2e-05,0.00023,0.00082,0.00015,-5e-05,-1e-05,-1e-05,5,21
25681,-0.00021,2e-05,0.00023,0.00082,0.00015,-5e-05,-1e-05,-1e-05,5,21
25682,-0.00021,2e-05,0.00023,0.00082,0.00015,-5e-05,-1e-05,-1e-05,5,21
25683,-0.00021,2e-05,0.00023,0.00082,0.00015,-5e-05,-1e-05,-1e-05,5,21
25684,-0.00021,2e-05,0.00023,0.00082,0.00015,-5e-05,-1e-05,-1e-05,5,21
25685,-0.00021,2e-05,0.00023,0.00082,0.00015,-5e-05,-1e-05,-1e-05,5,21
25687,-0.00021,2e-05,0.00023,0.00082,0.00015,-5e-05,-1e-05,-1e-05,5,21
25689,-0.00021,2e-05,0.00023,0.00082,0.00015,-5e-05,-1e-05,-1e-05,5,21
25690,-0.00021,2e-05,0.00023,0.00082,0.00015,-5e-05,-1e-05,-1e-05,5,21
25691,-0.00021,2e-05,0.00023,0.00082,0.00015,-5e-05,-1e-05,-1e-05,5,21
25692,-0.00021,2e-05,0.00023,0.00082,0.00015,-5e-05,-1e-05,-1e-05,5,21
25693,-0.00021,2e-05,0.00023,0.00082,0.00015,-5e-05,-1e-05,-1e-05,5,21
25694,-0.00021,2e-05,0.00023,0.00082,0.00015,-5e-05,-1e-05,-1e-05,5,21
25695,-0.00021,2e-05,0.00023,0.00082,0.00015,-5e-05,-1e-05,-1e-05,5,21
25696,-0.00021,2e-05,0.00023,0.00082,0.00015,-5e-05,-1e-05,-1e-05,5,21
25697,-0.00021,2e-05,0.00023,0.00082,0.00015,-5e-05,-1e-05,-1e-05,5,21
25698,-0.00021,2e-05,0.00023,0.00082,0.00015,-5e-05,-1e-05,-1e-05,5,21
25699,-0.00021,2e-05,0.00023,0.00082,0.00015,-5e-05,-1e-05,-1e-05,5,21
25700,-0.00021,2e-05,0.00023,0.00082,0.00015,-5e-05,-1e-05,-1e-05,5,21
25701,-0.00021,2e-05,0.00023,0.00082,0.00015,-5e-05,-1e-05,-1e-05,5,21
25702,2e-05,-3e-05,6e-05,0.00032,-0.00016,-4e-05,-3e-05,-3e-05,5,21
25703,8e-05,7e-05,-0.00013,-9e-05,0.00027,-5e-05,-1e-05,1e-05,5,21
25704,8e-05,7e-05,-0.00013,-9e-05,0.00027,-5e-05,-1e-05,1e-05,5,21
25705,8e-05,7e-05,-0.00013,-9e-05,0.00027,-5e-05,-1e-05,1e-05,5,21
25706,8e-05,7e-05,-0.00013,-9e-05,0.00027,-5e-05,-1e-05,1e-05,5,21
25707,8e-05,7e-05,-0.00013,-9e-05,0.00027,-5e-05,-1e-05,1e-05,5,21
25708,8e-05,7e-05,-0.00013,-9e-05,0.00027,-5e-05,-1e-05,1e-05,5,21
25709,8e-05,7e-05,-0.00013,-9e-05,0.00027,-5e-05,-1e-05,1e-05,5,21
25710,8e-05,7e-05,-0.00013,-9e-05,0.00027,-5e-05,-1e-05,1e-05,5,21
25711,8e-05,7e-05,-0.00013,-9e-05,0.00027,-5e-05,-1e-05,1e-05,5,21
25712,8e-05,7e-05,-0.00013,-9e-05,0.00027,-5e-05,-1e-05,1e-05,5,21
25713,8e-05,7e-05,-0.00013,-9e-05,0.00027,-5e-05,-1e-05,1e-05,5,21
25714,8e-05,7e-05,-0.00013,-9e-05,0.00027,-5e-05,-1e-05,1e-05,5,21
25715,8e-05,7e-05,-0.00013,-9e-05,0.00027,-5e-05,-1e-05,1e-05,5,21
25716,8e-05,7e-05,-0.00013,-9e-05,0.00027,-5e-05,-1e-05,1e-05,5,21
25717,8e-05,7e-05,-0.00013,-9e-05,0.00027,-5e-05,-1e-05,1e-05,5,21
25718,8e-05,7e-05,-0.00013,-9e-05,0.00027,-5e-05,-1e-05,1e-05,5,21
25719,8e-05,7e-05,-0.00013,-9e-05,0.00027,-5e-05,-1e-05,1e-05,5,21
25720,8e-05,7e-05,-0.00013,-9e-05,0.00027,-5e-05,-1e-05,1e-05,5,21
25721,8e-05,7e-05,-0.00013,-9e-05,0.00027,-5e-05,-1e-05,1e-05,5,21
25722,8e-05,7e-05,-0.00013,-9e-05,0.00027,-5e-05,-1e-05,1e-05,5,21
25723,8e-05,7e-05,-0.00013,-9e-05,0.00027,-5e-05,-1e-05,1e-05,5,21
25724,8e-05,7e-05,-0.00013,-9e-05,0.00027,-5e-05,-1e-05,1e-05,5,21
25725,0.00014,9e-05,2e-05,-0.00021,0.00021,1e-05,-3e-05,-1e-05,5,21
25726,-0.0002,-6e-05,-1e-05,-0.00113,0.00018,7e-05,2e-05,-3e-05,5,21
25727,-0.0002,-6e-05,-1e-05,-0.00113,0.00018,7e-05,2e-05,-3e-05,5,21
25728,-0.0002,-6e-05,-1e-05,-0.00113,0.00018,7e-05,2e-05,-3e-05,5,21
25729,-0.0002,-6e-05,-1e-05,-0.00113,0.00018,7e-05,2e-05,-3e-05,5,21
25730,-0.0002,-6e-05,-1e-05,-0.00113,0.00018,7e-05,2e-05,-3e-05,5,21
25731,-0.0002,-6e-05,-1e-05,-0.00113,0.00018,7e-05,2e-05,-3e-05,5,21
25732,-0.0002,-6e-05,-1e-05,-0.00113,0.00018,7e-05,2e-05,-3e-05,5,21
25733,-0.0002,-6e-05,-1e-05,-0.00113,0.00018,7e-05,2e-05,-3e-05,5,21
25734,-0.0002,-6e-05,-1e-05,-0.00113,0.00018,7e-05,2e-05,-3e-05,5,21
25735,-0.0002,-6e-05,-1e-05,-0.00113,0.00018,7e-05,2e-05,-3e-05,5,21
25737,-0.0002,-6e-05,-1e-05,-0.00113,0.00018,7e-05,2e-05,-3e-05,5,21
25739,-0.00029,-0.00023,-0.0003,0.00012,-0.00028,0,-3e-05,-5e-05,5,21
25740,0.00011,0,-5e-05,0.00028,-0.00024,-4e-05,-2e-05,1e-05,5,21
25742,0.00011,0,-5e-05,0.00028,-0.00024,-4e-05,-2e-05,1e-05,5,21
25743,0.00011,0,-5e-05,0.00028,-0.00024,-4e-05,-2e-05,1e-05,5,21
25744,0.00011,0,-5e-05,0.00028,-0.00024,-4e-05,-2e-05,1e-05,5,21
25745,0.00011,0,-5e-05,0.00028,-0.00024,-4e-05,-2e-05,1e-05,5,21
25746,0.00011,0,-5e-05,0.00028,-0.00024,-4e-05,-2e-05,1e-05,5,21
25747,0.00011,0,-5e-05,0.00028,-0.00024,-4e-05,-2e-05,1e-05,5,21
25748,0.00011,0,-5e-05,0.00028,-0.00024,-4e-05,-2e-05,1e-05,5,21
25749,0.00011,0,-5e-05,0.00028,-0.00024,-4e-05,-2e-05,1e-05,5,21
25750,0.00011,0,-5e-05,0.00028,-0.00024,-4e-05,-2e-05,1e-05,5,21
25751,0.00011,0,-5e-05,0.00028,-0.00024,-4e-05,-2e-05,1e-05,5,21
25752,0.00011,0,-5e-05,0.00028,-0.00024,-4e-05,-2e-05,1e-05,5,21
25753,0.00011,0,-5e-05,0.00028,-0.00024,-4e-05,-2e-05,1e-05,5,21
25754,0.00011,0,-5e-05,0.00028,-0.00024,-4e-05,-2e-05,1e-05,5,21
25755,0.00011,0,-5e-05,0.00028,-0.00024,-4e-05,-2e-05,1e-05,5,21
25756,0.00011,0,-5e-05,0.00028,-0.00024,-4e-05,-2e-05,1e-05,5,21
25757,0.00011,0,-5e-05,0.00028,-0.00024,-4e-05,-2e-05,1e-05,5,21
25758,0.00011,0,-5e-05,0.00028,-0.00024,-4e-05,-2e-05,1e-05,5,21
25759,0.00011,0,-5e-05,0.00028,-0.00024,-4e-05,-2e-05,1e-05,5,21
25760,0.00011,0,-5e-05,0.00028,-0.00024,-4e-05,-2e-05,1e-05,5,21
25761,0.00017,-5e-05,-0.00028,-0.00081,0.0001,5e-05,3e-05,1e-05,5,21
25762,2e-05,-0.00017,-0.00025,5e-05,0.00012,1e-05,1e-05,0,5,21
25763,1e-05,0.00016,0.00051,0.00048,6e-05,8e-05,5e-05,2e-05,5,21
25764,1e-05,0.00016,0.00051,0.00048,6e-05,8e-05,5e-05,2e-05,5,21
25765,1e-05,0.00016,0.00051,0.00048,6e-05,8e-05,5e-05,2e-05,5,21
25766,1e-05,0.00016,0.00051,0.00048,6e-05,8e-05,5e-05,2e-05,5,21
25767,1e-05,0.00016,0.00051,0.00048,6e-05,8e-05,5e-05,2e-05,5,21
25768,1e-05,0.00016,0.00051,0.00048,6e-05,8e-05,5e-05,2e-05,5,21
25769,1e-05,0.00016,0.00051,0.00048,6e-05,8e-05,5e-05,2e-05,5,21
25770,1e-05,0.00016,0.00051,0.00048,6e-05,8e-05,5e-05,2e-05,5,21
25771,1e-05,0.00016,0.00051,0.00048,6e-05,8e-05,5e-05,2e-05,5,21
25772,1e-05,0.00016,0.00051,0.00048,6e-05,8e-05,5e-05,2e-05,5,21
25773,1e-05,0.00016,0.00051,0.00048,6e-05,8e-05,5e-05,2e-05,5,21
25774,1e-05,0.00016,0.00051,0.00048,6e-05,8e-05,5e-05,2e-05,5,21
25775,1e-05,0.00016,0.00051,0.00048,6e-05,8e-05,5e-05,2e-05,5,21
25776,1e-05,0.00016,0.00051,0.00048,6e-05,8e-05,5e-05,2e-05,5,21
25777,1e-05,0.00016,0.00051,0.00048,6e-05,8e-05,5e-05,2e-05,5,21
25778,1e-05,0.00016,0.00051,0.00048,6e-05,8e-05,5e-05,2e-05,5,21
25779,1e-05,0.00016,0.00051,0.00048,6e-05,8e-05,5e-05,2e-05,5,21
25780,1e-05,0.00016,0.00051,0.00048,6e-05,8e-05,5e-05,2e-05,5,21
25781,1e-05,0.00016,0.00051,0.00048,6e-05,8e-05,5e-05,2e-05,5,21
25782,1e-05,0.00016,0.00051,0.00048,6e-05,8e-05,5e-05,2e-05,5,21
25783,1e-05,0.00016,0.00051,0.00048,6e-05,8e-05,5e-05,2e-05,5,21
25784,1e-05,0.00016,0.00051,0.00048,6e-05,8e-05,5e-05,2e-05,5,21
25785,9e-05,-2e-05,-0.00014,-0.00056,-0.00029,1e-05,0,0,5,21
25787,0.00017,3e-05,0.00011,0.00037,5e-05,-8e-05,-3e-05,-3e-05,5,21
25789,0.00017,3e-05,0.00011,0.00037,5e-05,-8e-05,-3e-05,-3e-05,5,21
25790,0.00017,3e-05,0.00011,0.00037,5e-05,-8e-05,-3e-05,-3e-05,5,21
25791,0.00017,3e-05,0.00011,0.00037,5e-05,-8e-05,-3e-05,-3e-05,5,21
25792,0.00017,3e-05,0.00011,0.00037,5e-05,-8e-05,-3e-05,-3e-05,5,21
25793,0.00017,3e-05,0.00011,0.00037,5e-05,-8e-05,-3e-05,-3e-05,5,21
25794,0.00017,3e-05,0.00011,0.00037,5e-05,-8e-05,-3e-05,-3e-05,5,21
25795,0.00017,3e-05,0.00011,0.00037,5e-05,-8e-05,-3e-05,-3e-05,5,21
25796,0.00017,3e-05,0.00011,0.00037,5e-05,-8e-05,-3e-05,-3e-05,5,21
25797,0.00017,3e-05,0.00011,0.00037,5e-05,-8e-05,-3e-05,-3e-05,5,21
25798,0.00017,3e-05,0.00011,0.00037,5e-05,-8e-05,-3e-05,-3e-05,5,21
25799,0.00013,-3e-05,8e-05,0.00079,0.00012,-5e-05,-3e-05,1e-05,5,21
25800,5e-05,-8e-05,-0.00023,0.00015,-0.00015,-4e-05,0,-2e-05,5,21
25801,5e-05,-8e-05,-0.00023,0.00015,-0.00015,-4e-05,0,-2e-05,5,21
25802,5e-05,-8e-05,-0.00023,0.00015,-0.00015,-4e-05,0,-2e-05,5,21
25803,5e-05,-8e-05,-0.00023,0.00015,-0.00015,-4e-05,0,-2e-05,5,21
25804,5e-05,-8e-05,-0.00023,0.00015,-0.00015,-4e-05,0,-2e-05,5,21
25805,5e-05,-8e-05,-0.00023,0.00015,-0.00015,-4e-05,0,-2e-05,5,21
25806,5e-05,-8e-05,-0.00023,0.00015,-0.00015,-4e-05,0,-2e-05,5,21
25807,5e-05,-8e-05,-0.00023,0.00015,-0.00015,-4e-05,0,-2e-05,5,21
25808,5e-05,-8e-05,-0.00023,0.00015,-0.00015,-4e-05,0,-2e-05,5,21
25809,5e-05,-8e-05,-0.00023,0.00015,-0.00015,-4e-05,0,-2e-05,5,21
25810,5e-05,-8e-05,-0.00023,0.00015,-0.00015,-4e-05,0,-2e-05,5,21
25811,5e-05,-8e-05,-0.00023,0.00015,-0.00015,-4e-05,0,-2e-05,5,21
25812,5e-05,-8e-05,-0.00023,0.00015,-0.00015,-4e-05,0,-2e-05,5,21
25813,5e-05,-8e-05,-0.00023,0.00015,-0.00015,-4e-05,0,-2e-05,5,21
25814,5e-05,-8e-05,-0.00023,0.00015,-0.00015,-4e-05,0,-2e-05,5,21
25815,5e-05,-8e-05,-0.00023,0.00015,-0.00015,-4e-05,0,-2e-05,5,21
25816,5e-05,-8e-05,-0.00023,0.00015,-0.00015,-4e-05,0,-2e-05,5,21
25817,5e-05,-8e-05,-0.00023,0.00015,-0.00015,-4e-05,0,-2e-05,5,21
25818,5e-05,-8e-05,-0.00023,0.00015,-0.00015,-4e-05,0,-2e-05,5,21
25819,5e-05,-8e-05,-0.00023,0.00015,-0.00015,-4e-05,0,-2e-05,5,21
25820,5e-05,-8e-05,-0.00023,0.00015,-0.00015,-4e-05,0,-2e-05,5,21
25821,5e-05,-8e-05,-0.00023,0.00015,-0.00015,-4e-05,0,-2e-05,5,21
25822,0.00021,1e-05,4e-05,8e-05,-4e-05,-1e-05,-2e-05,0,5,21
25823,0.00021,1e-05,4e-05,8e-05,-4e-05,-1e-05,-2e-05,0,5,21
25824,0.00021,1e-05,4e-05,8e-05,-4e-05,-1e-05,-2e-05,0,5,21
25825,0.00021,1e-05,4e-05,8e-05,-4e-05,-1e-05,-2e-05,0,5,21
25826,0.00021,1e-05,4e-05,8e-05,-4e-05,-1e-05,-2e-05,0,5,21
25827,0.00021,1e-05,4e-05,8e-05,-4e-05,-1e-05,-2e-05,0,5,21
25828,0.00021,1e-05,4e-05,8e-05,-4e-05,-1e-05,-2e-05,0,5,21
25829,0.00021,1e-05,4e-05,8e-05,-4e-05,-1e-05,-2e-05,0,5,21
25830,0.00021,1e-05,4e-05,8e-05,-4e-05,-1e-05,-2e-05,0,5,21
25831,0.00021,1e-05,4e-05,8e-05,-4e-05,-1e-05,-2e-05,0,5,21
25832,0.00021,1e-05,4e-05,8e-05,-4e-05,-1e-05,-2e-05,0,5,21
25833,0.00021,1e-05,4e-05,8e-05,-4e-05,-1e-05,-2e-05,0,5,21
25834,0.00021,1e-05,4e-05,8e-05,-4e-05,-1e-05,-2e-05,0,5,21
25835,0.00021,1e-05,4e-05,8e-05,-4e-05,-1e-05,-2e-05,0,5,21
25837,0.00021,1e-05,4e-05,8e-05,-4e-05,-1e-05,-2e-05,0,5,21
25839,0.00021,1e-05,4e-05,8e-05,-4e-05,-1e-05,-2e-05,0,5,21
25840,0.00021,1e-05,4e-05,8e-05,-4e-05,-1e-05,-2e-05,0,5,21
25841,0.00021,1e-05,4e-05,8e-05,-4e-05,-1e-05,-2e-05,0,5,21
25842,0.00021,1e-05,4e-05,8e-05,-4e-05,-1e-05,-2e-05,0,5,21
25843,0.00021,1e-05,4e-05,8e-05,-4e-05,-1e-05,-2e-05,0,5,21
25844,0.00021,1e-05,4e-05,8e-05,-4e-05,-1e-05,-2e-05,0,5,21
25845,9e-05,-3e-05,-0.00014,0.00087,-0.00013,-0.00016,-9e-05,-5e-05,5,21
25846,-5e-05,3e-05,-0.00016,-0.00076,-0.00037,-2e-05,1e-05,0,5,21
25847,-5e-05,3e-05,-0.00016,-0.00076,-0.00037,-2e-05,1e-05,0,5,21
25848,-5e-05,3e-05,-0.00016,-0.00076,-0.00037,-2e-05,1e-05,0,5,21
25849,-5e-05,3e-05,-0.00016,-0.00076,-0.00037,-2e-05,1e-05,0,5,21
25850,-5e-05,3e-05,-0.00016,-0.00076,-0.00037,-2e-05,1e-05,0,5,21
25851,-5e-05,3e-05,-0.00016,-0.00076,-0.00037,-2e-05,1e-05,0,5,21
25852,-5e-05,3e-05,-0.00016,-0.00076,-0.00037,-2e-05,1e-05,0,5,21
25853,-5e-05,3e-05,-0.00016,-0.00076,-0.00037,-2e-05,1e-05,0,5,21
25854,-5e-05,3e-05,-0.00016,-0.00076,-0.00037,-2e-05,1e-05,0,5,21
25855,-5e-05,3e-05,-0.00016,-0.00076,-0.00037,-2e-05,1e-05,0,5,21
25856,-5e-05,3e-05,-0.00016,-0.00076,-0.00037,-2e-05,1e-05,0,5,21
25857,-5e-05,3e-05,-0.00016,-0.00076,-0.00037,-2e-05,1e-05,0,5,21
25858,-5e-05,3e-05,-0.00016,-0.00076,-0.00037,-2e-05,1e-05,0,5,21
25859,1e-05,-6e-05,-0.00011,0.00081,0.00015,5e-05,0,-2e-05,5,21
25860,8e-05,2e-05,0.00016,0.00032,-3e-05,1e-05,0,0,5,21
25861,8e-05,2e-05,0.00016,0.00032,-3e-05,1e-05,0,0,5,21
25862,8e-05,2e-05,0.00016,0.00032,-3e-05,1e-05,0,0,5,21
25863,8e-05,2e-05,0.00016,0.00032,-3e-05,1e-05,0,0,5,21
25864,8e-05,2e-05,0.00016,0.00032,-3e-05,1e-05,0,0,5,21
25865,8e-05,2e-05,0.00016,0.00032,-3e-05,1e-05,0,0,5,21
25866,8e-05,2e-05,0.00016,0.00032,-3e-05,1e-05,0,0,5,21
25867,8e-05,2e-05,0.00016,0.00032,-3e-05,1e-05,0,0,5,21
25868,8e-05,2e-05,0.00016,0.00032,-3e-05,1e-05,0,0,5,21
25869,8e-05,2e-05,0.00016,0.00032,-3e-05,1e-05,0,0,5,21
25870,8e-05,2e-05,0.00016,0.00032,-3e-05,1e-05,0,0,5,21
25871,8e-05,2e-05,0.00016,0.00032,-3e-05,1e-05,0,0,5,21
25872,8e-05,2e-05,0.00016,0.00032,-3e-05,1e-05,0,0,5,21
25873,8e-05,2e-05,0.00016,0.00032,-3e-05,1e-05,0,0,5,21
25874,8e-05,2e-05,0.00016,0.00032,-3e-05,1e-05,0,0,5,21
25875,8e-05,2e-05,0.00016,0.00032,-3e-05,1e-05,0,0,5,21
25876,8e-05,2e-05,0.00016,0.00032,-3e-05,1e-05,0,0,5,21
25877,8e-05,2e-05,0.00016,0.00032,-3e-05,1e-05,0,0,5,21
25878,8e-05,2e-05,0.00016,0.00032,-3e-05,1e-05,0,0,5,21
25879,8e-05,2e-05,0.00016,0.00032,-3e-05,1e-05,0,0,5,21
25880,8e-05,2e-05,0.00016,0.00032,-3e-05,1e-05,0,0,5,21
25881,-0.00018,-9e-05,-2e-05,-4e-05,-0.00027,3e-05,3e-05,-2e-05,5,21
25882,-0.00017,-0.0001,-7e-05,0.00061,0.00012,-1e-05,-3e-05,-3e-05,5,21
25883,-0.00017,-0.0001,-7e-05,0.00061,0.00012,-1e-05,-3e-05,-3e-05,5,21
25884,-0.00017,-0.0001,-7e-05,0.00061,0.00012,-1e-05,-3e-05,-3e-05,5,21
25885,-0.00017,-0.0001,-7e-05,0.00061,0.00012,-1e-05,-3e-05,-3e-05,5,21
25887,-0.00017,-0.0001,-7e-05,0.00061,0.00012,-1e-05,-3e-05,-3e-05,5,21
25889,-0.00017,-0.0001,-7e-05,0.00061,0.00012,-1e-05,-3e-05,-3e-05,5,21
25890,-0.00017,-0.0001,-7e-05,0.00061,0.00012,-1e-05,-3e-05,-3e-05,5,21
25891,-0.00017,-0.0001,-7e-05,0.00061,0.00012,-1e-05,-3e-05,-3e-05,5,21
25892,-0.00017,-0.0001,-7e-05,0.00061,0.00012,-1e-05,-3e-05,-3e-05,5,21
25893,-0.00017,-0.0001,-7e-05,0.00061,0.00012,-1e-05,-3e-05,-3e-05,5,21
25894,-0.00017,-0.0001,-7e-05,0.00061,0.00012,-1e-05,-3e-05,-3e-05,5,21
25895,-0.00017,-0.0001,-7e-05,0.00061,0.00012,-1e-05,-3e-05,-3e-05,5,21
25896,-0.00017,-0.0001,-7e-05,0.00061,0.00012,-1e-05,-3e-05,-3e-05,5,21
25897,-0.00017,-0.0001,-7e-05,0.00061,0.00012,-1e-05,-3e-05,-3e-05,5,21
25898,-0.00017,-0.0001,-7e-05,0.00061,0.00012,-1e-05,-3e-05,-3e-05,5,21
25899,-0.00017,-0.0001,-7e-05,0.00061,0.00012,-1e-05,-3e-05,-3e-05,5,21
25900,-0.00017,-0.0001,-7e-05,0.00061,0.00012,-1e-05,-3e-05,-3e-05,5,21
25901,-0.00017,-0.0001,-7e-05,0.00061,0.00012,-1e-05,-3e-05,-3e-05,5,21
25902,-0.00017,-0.0001,-7e-05,0.00061,0.00012,-1e-05,-3e-05,-3e-05,5,21
25903,-0.00017,-0.0001,-7e-05,0.00061,0.00012,-1e-05,-3e-05,-3e-05,5,21
25904,-0.00017,-0.0001,-7e-05,0.00061,0.00012,-1e-05,-3e-05,-3e-05,5,21
25905,-0.0002,2e-05,2e-05,4e-05,0.00011,-6e-05,-2e-05,-2e-05,5,21
25906,7e-05,0.00012,0.00045,0.0009,0.00078,0.0001,4e-05,0,5,21
25907,7e-05,0.00012,0.00045,0.0009,0.00078,0.0001,4e-05,0,5,21
25908,7e-05,0.00012,0.00045,0.0009,0.00078,0.0001,4e-05,0,5,21
25909,7e-05,0.00012,0.00045,0.0009,0.00078,0.0001,4e-05,0,5,21
25910,7e-05,0.00012,0.00045,0.0009,0.00078,0.0001,4e-05,0,5,21
25911,7e-05,0.00012,0.00045,0.0009,0.00078,0.0001,4e-05,0,5,21
25912,7e-05,0.00012,0.00045,0.0009,0.00078,0.0001,4e-05,0,5,21
25913,7e-05,0.00012,0.00045,0.0009,0.00078,0.0001,4e-05,0,5,21
25914,7e-05,0.00012,0.00045,0.0009,0.00078,0.0001,4e-05,0,5,21
25915,7e-05,0.00012,0.00045,0.0009,0.00078,0.0001,4e-05,0,5,21
25916,7e-05,0.00012,0.00045,0.0009,0.00078,0.0001,4e-05,0,5,21
25917,7e-05,0.00012,0.00045,0.0009,0.00078,0.0001,4e-05,0,5,21
25918,7e-05,0.00012,0.00045,0.0009,0.00078,0.0001,4e-05,0,5,21
25919,0.00011,-2e-05,6e-05,4e-05,-1e-05,-2e-05,-4e-05,-5e-05,5,21
25920,-9e-05,-4e-05,-2e-05,-0.00015,0.00015,-8e-05,-4e-05,-5e-05,5,21
25921,-9e-05,-4e-05,-2e-05,-0.00015,0.00015,-8e-05,-4e-05,-5e-05,5,21
25922,-9e-05,-4e-05,-2e-05,-0.00015,0.00015,-8e-05,-4e-05,-5e-05,5,21
25923,-9e-05,-4e-05,-2e-05,-0.00015,0.00015,-8e-05,-4e-05,-5e-05,5,21
25924,-9e-05,-4e-05,-2e-05,-0.00015,0.00015,-8e-05,-4e-05,-5e-05,5,21
25925,-9e-05,-4e-05,-2e-05,-0.00015,0.00015,-8e-05,-4e-05,-5e-05,5,21
25926,-9e-05,-4e-05,-2e-05,-0.00015,0.00015,-8e-05,-4e-05,-5e-05,5,21
25927,-9e-05,-4e-05,-2e-05,-0.00015,0.00015,-8e-05,-4e-05,-5e-05,5,21
25928,-9e-05,-4e-05,-2e-05,-0.00015,0.00015,-8e-05,-4e-05,-5e-05,5,21
25929,-9e-05,-4e-05,-2e-05,-0.00015,0.00015,-8e-05,-4e-05,-5e-05,5,21
25930,-9e-05,-4e-05,-2e-05,-0.00015,0.00015,-8e-05,-4e-05,-5e-05,5,21
25931,-9e-05,-4e-05,-2e-05,-0.00015,0.00015,-8e-05,-4e-05,-5e-05,5,21
25932,-9e-05,-4e-05,-2e-05,-0.00015,0.00015,-8e-05,-4e-05,-5e-05,5,21
25933,-9e-05,-4e-05,-2e-05,-0.00015,0.00015,-8e-05,-4e-05,-5e-05,5,21
25934,-9e-05,-4e-05,-2e-05,-0.00015,0.00015,-8e-05,-4e-05,-5e-05,5,21
25935,-9e-05,-4e-05,-2e-05,-0.00015,0.00015,-8e-05,-4e-05,-5e-05,5,21
25937,-9e-05,-4e-05,-2e-05,-0.00015,0.00015,-8e-05,-4e-05,-5e-05,5,21
25939,-9e-05,-4e-05,-2e-05,-0.00015,0.00015,-8e-05,-4e-05,-5e-05,5,21
25940,-9e-05,-4e-05,-2e-05,-0.00015,0.00015,-8e-05,-4e-05,-5e-05,5,21
25941,-9e-05,-4e-05,-2e-05,-0.00015,0.00015,-8e-05,-4e-05,-5e-05,5,21
25942,-9e-05,-4e-05,-2e-05,-0.00015,0.00015,-8e-05,-4e-05,-5e-05,5,21
25943,-0.00017,-7e-05,-1e-05,-0.00013,-0.0001,-2e-05,-2e-05,-1e-05,5,21
25944,-0.00017,-7e-05,-1e-05,-0.00013,-0.0001,-2e-05,-2e-05,-1e-05,5,21
25945,-0.00017,-7e-05,-1e-05,-0.00013,-0.0001,-2e-05,-2e-05,-1e-05,5,21
25946,-0.00017,-7e-05,-1e-05,-0.00013,-0.0001,-2e-05,-2e-05,-1e-05,5,21
25947,-0.00017,-7e-05,-1e-05,-0.00013,-0.0001,-2e-05,-2e-05,-1e-05,5,21
25948,-0.00017,-7e-05,-1e-05,-0.00013,-0.0001,-2e-05,-2e-05,-1e-05,5,21
25949,-0.00017,-7e-05,-1e-05,-0.00013,-0.0001,-2e-05,-2e-05,-1e-05,5,21
25950,-0.00017,-7e-05,-1e-05,-0.00013,-0.0001,-2e-05,-2e-05,-1e-05,5,21
25951,-0.00017,-7e-05,-1e-05,-0.00013,-0.0001,-2e-05,-2e-05,-1e-05,5,21
25952,-0.00017,-7e-05,-1e-05,-0.00013,-0.0001,-2e-05,-2e-05,-1e-05,5,21
25953,-0.00017,-7e-05,-1e-05,-0.00013,-0.0001,-2e-05,-2e-05,-1e-05,5,21
25954,-0.00017,-7e-05,-1e-05,-0.00013,-0.0001,-2e-05,-2e-05,-1e-05,5,21
25955,-0.00017,-7e-05,-1e-05,-0.00013,-0.0001,-2e-05,-2e-05,-1e-05,5,21
25956,-0.00017,-7e-05,-1e-05,-0.00013,-0.0001,-2e-05,-2e-05,-1e-05,5,21
25957,-0.00017,-7e-05,-1e-05,-0.00013,-0.0001,-2e-05,-2e-05,-1e-05,5,21
25958,-0.00017,-7e-05,-1e-05,-0.00013,-0.0001,-2e-05,-2e-05,-1e-05,5,21
25959,-0.00017,-7e-05,-1e-05,-0.00013,-0.0001,-2e-05,-2e-05,-1e-05,5,21
25960,-0.00017,-7e-05,-1e-05,-0.00013,-0.0001,-2e-05,-2e-05,-1e-05,5,21
25961,-0.00017,-7e-05,-1e-05,-0.00013,-0.0001,-2e-05,-2e-05,-1e-05,5,21
25962,-0.00017,-7e-05,-1e-05,-0.00013,-0.0001,-2e-05,-2e-05,-1e-05,5,21
25963,-0.00017,-7e-05,-1e-05,-0.00013,-0.0001,-2e-05,-2e-05,-1e-05,5,21
25964,-0.00017,-7e-05,-1e-05,-0.00013,-0.0001,-2e-05,-2e-05,-1e-05,5,21
25965,0,0.00011,0.00025,0.00048,0.00025,7e-05,2e-05,2e-05,5,21
25966,-1e-05,-0.00015,-0.00046,-0.00103,-0.00052,-5e-05,0,1e-05,5,21
25967,-1e-05,-0.00015,-0.00046,-0.00103,-0.00052,-5e-05,0,1e-05,5,21
25968,-1e-05,-0.00015,-0.00046,-0.00103,-0.00052,-5e-05,0,1e-05,5,21
25969,-1e-05,-0.00015,-0.00046,-0.00103,-0.00052,-5e-05,0,1e-05,5,21
25970,-1e-05,-0.00015,-0.00046,-0.00103,-0.00052,-5e-05,0,1e-05,5,21
25971,-1e-05,-0.00015,-0.00046,-0.00103,-0.00052,-5e-05,0,1e-05,5,21
25972,-1e-05,-0.00015,-0.00046,-0.00103,-0.00052,-5e-05,0,1e-05,5,21
25973,-1e-05,-0.00015,-0.00046,-0.00103,-0.00052,-5e-05,0,1e-05,5,21
25974,-1e-05,-0.00015,-0.00046,-0.00103,-0.00052,-5e-05,0,1e-05,5,21
25975,-1e-05,-0.00015,-0.00046,-0.00103,-0.00052,-5e-05,0,1e-05,5,21
25976,-1e-05,-0.00015,-0.00046,-0.00103,-0.00052,-5e-05,0,1e-05,5,21
25977,-1e-05,-0.00015,-0.00046,-0.00103,-0.00052,-5e-05,0,1e-05,5,21
25978,-1e-05,-0.00015,-0.00046,-0.00103,-0.00052,-5e-05,0,1e-05,5,21
25979,1e-05,5e-05,0.00025,2e-05,0.00012,-7e-05,-3e-05,-2e-05,5,21
25980,-6e-05,0,0,2e-05,-0.00012,-4e-05,-2e-05,-1e-05,5,21
25981,-6e-05,0,0,2e-05,-0.00012,-4e-05,-2e-05,-1e-05,5,21
25982,-6e-05,0,0,2e-05,-0.00012,-4e-05,-2e-05,-1e-05,5,21
25983,-6e-05,0,0,2e-05,-0.00012,-4e-05,-2e-05,-1e-05,5,21
25984,-6e-05,0,0,2e-05,-0.00012,-4e-05,-2e-05,-1e-05,5,21
25985,-6e-05,0,0,2e-05,-0.00012,-4e-05,-2e-05,-1e-05,5,21
25987,-6e-05,0,0,2e-05,-0.00012,-4e-05,-2e-05,-1e-05,5,21
25989,-6e-05,0,0,2e-05,-0.00012,-4e-05,-2e-05,-1e-05,5,21
25990,-6e-05,0,0,2e-05,-0.00012,-4e-05,-2e-05,-1e-05,5,21
25991,-6e-05,0,0,2e-05,-0.00012,-4e-05,-2e-05,-1e-05,5,21
25992,-6e-05,0,0,2e-05,-0.00012,-4e-05,-2e-05,-1e-05,5,21
25993,-6e-05,0,0,2e-05,-0.00012,-4e-05,-2e-05,-1e-05,5,21
25994,-6e-05,0,0,2e-05,-0.00012,-4e-05,-2e-05,-1e-05,5,21
25995,-6e-05,0,0,2e-05,-0.00012,-4e-05,-2e-05,-1e-05,5,21
25996,-6e-05,0,0,2e-05,-0.00012,-4e-05,-2e-05,-1e-05,5,21
25997,-6e-05,0,0,2e-05,-0.00012,-4e-05,-2e-05,-1e-05,5,21
25998,-6e-05,0,0,2e-05,-0.00012,-4e-05,-2e-05,-1e-05,5,21
25999,-6e-05,0,0,2e-05,-0.00012,-4e-05,-2e-05,-1e-05,5,21
26000,-6e-05,0,0,2e-05,-0.00012,-4e-05,-2e-05,-1e-05,5,21
26001,-6e-05,0,0,2e-05,-0.00012,-4e-05,-2e-05,-1e-05,5,21
26002,-0.00017,-3e-05,7e-05,-0.00058,0.00075,2e-05,-2e-05,-2e-05,5,21
26003,-3e-05,-2e-05,-0.00017,-1e-05,-0.00017,1e-05,0,2e-05,5,21
26004,-3e-05,-2e-05,-0.00017,-1e-05,-0.00017,1e-05,0,2e-05,5,21
26005,-3e-05,-2e-05,-0.00017,-1e-05,-0.00017,1e-05,0,2e-05,5,21
26006,-3e-05,-2e-05,-0.00017,-1e-05,-0.00017,1e-05,0,2e-05,5,21
26007,-3e-05,-2e-05,-0.00017,-1e-05,-0.00017,1e-05,0,2e-05,5,21
26008,-3e-05,-2e-05,-0.00017,-1e-05,-0.00017,1e-05,0,2e-05,5,21
26009,-3e-05,-2e-05,-0.00017,-1e-05,-0.00017,1e-05,0,2e-05,5,21
26010,-3e-05,-2e-05,-0.00017,-1e-05,-0.00017,1e-05,0,2e-05,5,21
26011,-3e-05,-2e-05,-0.00017,-1e-05,-0.00017,1e-05,0,2e-05,5,21
26012,-3e-05,-2e-05,-0.00017,-1e-05,-0.00017,1e-05,0,2e-05,5,21
26013,-3e-05,-2e-05,-0.00017,-1e-05,-0.00017,1e-05,0,2e-05,5,21
26014,-3e-05,-2e-05,-0.00017,-1e-05,-0.00017,1e-05,0,2e-05,5,21
26015,-3e-05,-2e-05,-0.00017,-1e-05,-0.00017,1e-05,0,2e-05,5,21
26016,-3e-05,-2e-05,-0.00017,-1e-05,-0.00017,1e-05,0,2e-05,5,21
26017,-3e-05,-2e-05,-0.00017,-1e-05,-0.00017,1e-05,0,2e-05,5,21
26018,-3e-05,-2e-05,-0.00017,-1e-05,-0.00017,1e-05,0,2e-05,5,21
26019,-3e-05,-2e-05,-0.00017,-1e-05,-0.00017,1e-05,0,2e-05,5,21
26020,-3e-05,-2e-05,-0.00017,-1e-05,-0.00017,1e-05,0,2e-05,5,21
26021,-3e-05,-2e-05,-0.00017,-1e-05,-0.00017,1e-05,0,2e-05,5,21
26022,-3e-05,-2e-05,-0.00017,-1e-05,-0.00017,1e-05,0,2e-05,5,21
26023,-3e-05,-2e-05,-0.00017,-1e-05,-0.00017,1e-05,0,2e-05,5,21
26024,-3e-05,-2e-05,-0.00017,-1e-05,-0.00017,1e-05,0,2e-05,5,21
26025,7e-05,3e-05,0.00036,0.00052,0.00068,6e-05,-1e-05,-1e-05,5,21
26026,-4e-05,2e-05,0.00014,0.00023,3e-05,-3e-05,0,-1e-05,5,21
26027,-4e-05,2e-05,0.00014,0.00023,3e-05,-3e-05,0,-1e-05,5,21
26028,-4e-05,2e-05,0.00014,0.00023,3e-05,-3e-05,0,-1e-05,5,21
26029,-4e-05,2e-05,0.00014,0.00023,3e-05,-3e-05,0,-1e-05,5,21
26030,-4e-05,2e-05,0.00014,0.00023,3e-05,-3e-05,0,-1e-05,5,21
26031,-4e-05,2e-05,0.00014,0.00023,3e-05,-3e-05,0,-1e-05,5,21
26032,-4e-05,2e-05,0.00014,0.00023,3e-05,-3e-05,0,-1e-05,5,21
26033,-4e-05,2e-05,0.00014,0.00023,3e-05,-3e-05,0,-1e-05,5,21
26034,-4e-05,2e-05,0.00014,0.00023,3e-05,-3e-05,0,-1e-05,5,21
26035,-4e-05,2e-05,0.00014,0.00023,3e-05,-3e-05,0,-1e-05,5,21
26037,-4e-05,2e-05,0.00014,0.00023,3e-05,-3e-05,0,-1e-05,5,21
26039,2e-05,-2e-05,6e-05,0.0003,-0.00023,-2e-05,-3e-05,-1e-05,5,21
26040,2e-05,-2e-05,-6e-05,0.00037,-3e-05,8e-05,1e-05,1e-05,5,21
26041,2e-05,-2e-05,-6e-05,0.00037,-3e-05,8e-05,1e-05,1e-05,5,21
26042,2e-05,-2e-05,-6e-05,0.00037,-3e-05,8e-05,1e-05,1e-05,5,21
26043,2e-05,-2e-05,-6e-05,0.00037,-3e-05,8e-05,1e-05,1e-05,5,21
26044,2e-05,-2e-05,-6e-05,0.00037,-3e-05,8e-05,1e-05,1e-05,5,21
26045,2e-05,-2e-05,-6e-05,0.00037,-3e-05,8e-05,1e-05,1e-05,5,21
26046,2e-05,-2e-05,-6e-05,0.00037,-3e-05,8e-05,1e-05,1e-05,5,21
26047,2e-05,-2e-05,-6e-05,0.00037,-3e-05,8e-05,1e-05,1e-05,5,21
26048,2e-05,-2e-05,-6e-05,0.00037,-3e-05,8e-05,1e-05,1e-05,5,21
26049,2e-05,-2e-05,-6e-05,0.00037,-3e-05,8e-05,1e-05,1e-05,5,21
26050,2e-05,-2e-05,-6e-05,0.00037,-3e-05,8e-05,1e-05,1e-05,5,21
26051,2e-05,-2e-05,-6e-05,0.00037,-3e-05,8e-05,1e-05,1e-05,5,21
26052,2e-05,-2e-05,-6e-05,0.00037,-3e-05,8e-05,1e-05,1e-05,5,21
26053,2e-05,-2e-05,-6e-05,0.00037,-3e-05,8e-05,1e-05,1e-05,5,21
26054,2e-05,-2e-05,-6e-05,0.00037,-3e-05,8e-05,1e-05,1e-05,5,21
26055,2e-05,-2e-05,-6e-05,0.00037,-3e-05,8e-05,1e-05,1e-05,5,21
26056,2e-05,-2e-05,-6e-05,0.00037,-3e-05,8e-05,1e-05,1e-05,5,21
26057,2e-05,-2e-05,-6e-05,0.00037,-3e-05,8e-05,1e-05,1e-05,5,21
26058,2e-05,-2e-05,-6e-05,0.00037,-3e-05,8e-05,1e-05,1e-05,5,21
26059,2e-05,-2e-05,-6e-05,0.00037,-3e-05,8e-05,1e-05,1e-05,5,21
26060,2e-05,-2e-05,-6e-05,0.00037,-3e-05,8e-05,1e-05,1e-05,5,21
26061,2e-05,-2e-05,-6e-05,0.00037,-3e-05,8e-05,1e-05,1e-05,5,21
26062,-6e-05,-3e-05,6e-05,0.00044,-1e-05,4e-05,1e-05,-1e-05,5,21
26063,0.00021,4e-05,4e-05,0.0002,0.00019,-0.00011,-4e-05,3e-05,5,21
26064,0.00021,4e-05,4e-05,0.0002,0.00019,-0.00011,-4e-05,3e-05,5,21
26065,0.00021,4e-05,4e-05,0.0002,0.00019,-0.00011,-4e-05,3e-05,5,21
26066,0.00021,4e-05,4e-05,0.0002,0.00019,-0.00011,-4e-05,3e-05,5,21
26067,0.00021,4e-05,4e-05,0.0002,0.00019,-0.00011,-4e-05,3e-05,5,21
26068,0.00021,4e-05,4e-05,0.0002,0.00019,-0.00011,-4e-05,3e-05,5,21
26069,0.00021,4e-05,4e-05,0.0002,0.00019,-0.00011,-4e-05,3e-05,5,21
26070,0.00021,4e-05,4e-05,0.0002,0.00019,-0.00011,-4e-05,3e-05,5,21
26071,0.00021,4e-05,4e-05,0.0002,0.00019,-0.00011,-4e-05,3e-05,5,21
26072,0.00021,4e-05,4e-05,0.0002,0.00019,-0.00011,-4e-05,3e-05,5,21
26073,0.00021,4e-05,4e-05,0.0002,0.00019,-0.00011,-4e-05,3e-05,5,21
26074,0.00021,4e-05,4e-05,0.0002,0.00019,-0.00011,-4e-05,3e-05,5,21
26075,0.00021,4e-05,4e-05,0.0002,0.00019,-0.00011,-4e-05,3e-05,5,21
26076,0.00021,4e-05,4e-05,0.0002,0.00019,-0.00011,-4e-05,3e-05,5,21
26077,0.00021,4e-05,4e-05,0.0002,0.00019,-0.00011,-4e-05,3e-05,5,21
26078,0.00021,4e-05,4e-05,0.0002,0.00019,-0.00011,-4e-05,3e-05,5,21
26079,0.00021,4e-05,4e-05,0.0002,0.00019,-0.00011,-4e-05,3e-05,5,21
26080,0.00021,4e-05,4e-05,0.0002,0.00019,-0.00011,-4e-05,3e-05,5,21
26081,0.00021,4e-05,4e-05,0.0002,0.00019,-0.00011,-4e-05,3e-05,5,21
26082,0.00021,4e-05,4e-05,0.0002,0.00019,-0.00011,-4e-05,3e-05,5,21
26083,0.00021,4e-05,4e-05,0.0002,0.00019,-0.00011,-4e-05,3e-05,5,21
26084,0.00021,4e-05,4e-05,0.0002,0.00019,-0.00011,-4e-05,3e-05,5,21
26085,0.00018,8e-05,2e-05,-6e-05,0.00035,0,-1e-05,2e-05,5,21
26087,-3e-05,5e-05,-1e-05,-0.00051,4e-05,4e-05,1e-05,2e-05,5,21
26089,-3e-05,5e-05,-1e-05,-0.00051,4e-05,4e-05,1e-05,2e-05,5,21
26090,-3e-05,5e-05,-1e-05,-0.00051,4e-05,4e-05,1e-05,2e-05,5,21
26091,-3e-05,5e-05,-1e-05,-0.00051,4e-05,4e-05,1e-05,2e-05,5,21
26092,-3e-05,5e-05,-1e-05,-0.00051,4e-05,4e-05,1e-05,2e-05,5,21
26093,-3e-05,5e-05,-1e-05,-0.00051,4e-05,4e-05,1e-05,2e-05,5,21
26094,-3e-05,5e-05,-1e-05,-0.00051,4e-05,4e-05,1e-05,2e-05,5,21
26095,-3e-05,5e-05,-1e-05,-0.00051,4e-05,4e-05,1e-05,2e-05,5,21
26096,-3e-05,5e-05,-1e-05,-0.00051,4e-05,4e-05,1e-05,2e-05,5,21
26097,-3e-05,5e-05,-1e-05,-0.00051,4e-05,4e-05,1e-05,2e-05,5,21
26098,1e-05,-6e-05,-0.00021,9e-05,-9e-05,-0.00016,-4e-05,0,5,21
26099,4e-05,1e-05,-0.0002,-0.0001,0.00019,4e-05,2e-05,1e-05,5,21
26100,4e-05,1e-05,-0.0002,-0.0001,0.00019,4e-05,2e-05,1e-05,5,21
26101,4e-05,1e-05,-0.0002,-0.0001,0.00019,4e-05,2e-05,1e-05,5,21
26102,4e-05,1e-05,-0.0002,-0.0001,0.00019,4e-05,2e-05,1e-05,5,21
26103,4e-05,1e-05,-0.0002,-0.0001,0.00019,4e-05,2e-05,1e-05,5,21
26104,4e-05,1e-05,-0.0002,-0.0001,0.00019,4e-05,2e-05,1e-05,5,21
26105,4e-05,1e-05,-0.0002,-0.0001,0.00019,4e-05,2e-05,1e-05,5,21
26106,-4e-05,-1e-05,0.00015,0.0007,0.00023,1e-05,-2e-05,-3e-05,5,21
26107,-4e-05,-1e-05,0.0001,-0.00044,0.00013,-8e-05,-5e-05,-6e-05,5,21
26108,-4e-05,-1e-05,0.0001,-0.00044,0.00013,-8e-05,-5e-05,-6e-05,5,21
26109,-4e-05,-1e-05,0.0001,-0.00044,0.00013,-8e-05,-5e-05,-6e-05,5,21
26110,-4e-05,-1e-05,0.0001,-0.00044,0.00013,-8e-05,-5e-05,-6e-05,5,21
26111,-4e-05,-1e-05,0.0001,-0.00044,0.00013,-8e-05,-5e-05,-6e-05,5,21
26112,-4e-05,-1e-05,0.0001,-0.00044,0.00013,-8e-05,-5e-05,-6e-05,5,21
26113,-4e-05,-1e-05,0.0001,-0.00044,0.00013,-8e-05,-5e-05,-6e-05,5,21
26114,-4e-05,-1e-05,0.0001,-0.00044,0.00013,-8e-05,-5e-05,-6e-05,5,21
26115,-4e-05,-1e-05,0.0001,-0.00044,0.00013,-8e-05,-5e-05,-6e-05,5,21
26116,-4e-05,-1e-05,0.0001,-0.00044,0.00013,-8e-05,-5e-05,-6e-05,5,21
26117,-4e-05,-1e-05,0.0001,-0.00044,0.00013,-8e-05,-5e-05,-6e-05,5,21
26118,-4e-05,-1e-05,0.0001,-0.00044,0.00013,-8e-05,-5e-05,-6e-05,5,21
26119,-4e-05,-1e-05,0.0001,-0.00044,0.00013,-8e-05,-5e-05,-6e-05,5,21
26120,-4e-05,-1e-05,0.0001,-0.00044,0.00013,-8e-05,-5e-05,-6e-05,5,21
26121,-4e-05,-1e-05,0.0001,-0.00044,0.00013,-8e-05,-5e-05,-6e-05,5,21
26122,-0.00026,7e-05,8e-05,-0.00034,3e-05,0,-3e-05,-6e-05,5,21
26123,-0.00017,-0.00016,-2e-05,0.00022,-0.00018,-5e-05,-2e-05,-3e-05,5,21
26124,-0.00017,-0.00016,-2e-05,0.00022,-0.00018,-5e-05,-2e-05,-3e-05,5,21
26125,-0.00017,-0.00016,-2e-05,0.00022,-0.00018,-5e-05,-2e-05,-3e-05,5,21
26126,-0.00017,-0.00016,-2e-05,0.00022,-0.00018,-5e-05,-2e-05,-3e-05,5,21
26127,-0.00017,-0.00016,-2e-05,0.00022,-0.00018,-5e-05,-2e-05,-3e-05,5,21
26128,-0.00017,-0.00016,-2e-05,0.00022,-0.00018,-5e-05,-2e-05,-3e-05,5,21
26129,-0.00017,-0.00016,-2e-05,0.00022,-0.00018,-5e-05,-2e-05,-3e-05,5,21
26130,-0.00017,-0.00016,-2e-05,0.00022,-0.00018,-5e-05,-2e-05,-3e-05,5,21
26131,-0.00017,-0.00016,-2e-05,0.00022,-0.00018,-5e-05,-2e-05,-3e-05,5,21
26132,-0.00017,-0.00016,-2e-05,0.00022,-0.00018,-5e-05,-2e-05,-3e-05,5,21
26133,-0.00017,-0.00016,-2e-05,0.00022,-0.00018,-5e-05,-2e-05,-3e-05,5,21
26134,-0.00017,-0.00016,-2e-05,0.00022,-0.00018,-5e-05,-2e-05,-3e-05,5,21
26135,-0.00017,-0.00016,-2e-05,0.00022,-0.00018,-5e-05,-2e-05,-3e-05,5,21
26137,-0.00017,-0.00016,-2e-05,0.00022,-0.00018,-5e-05,-2e-05,-3e-05,5,21
26139,-0.00017,-0.00016,-2e-05,0.00022,-0.00018,-5e-05,-2e-05,-3e-05,5,21
26140,-0.00017,-0.00016,-2e-05,0.00022,-0.00018,-5e-05,-2e-05,-3e-05,5,21
26141,-0.00017,-0.00016,-2e-05,0.00022,-0.00018,-5e-05,-2e-05,-3e-05,5,21
26142,-0.00017,-0.00016,-2e-05,0.00022,-0.00018,-5e-05,-2e-05,-3e-05,5,21
26143,-0.00017,-0.00016,-2e-05,0.00022,-0.00018,-5e-05,-2e-05,-3e-05,5,21
26144,-0.00017,-0.00016,-2e-05,0.00022,-0.00018,-5e-05,-2e-05,-3e-05,5,21
26145,0.00019,0,-2e-05,0.00015,7e-05,5e-05,4e-05,1e-05,5,21
26146,0.00014,0.0001,-8e-05,0.00011,-0.00016,6e-05,3e-05,0,5,21
26147,0.00014,0.0001,-8e-05,0.00011,-0.00016,6e-05,3e-05,0,5,21
26148,0.00014,0.0001,-8e-05,0.00011,-0.00016,6e-05,3e-05,0,5,21
26149,0.00014,0.0001,-8e-05,0.00011,-0.00016,6e-05,3e-05,0,5,21
26150,0.00014,0.0001,-8e-05,0.00011,-0.00016,6e-05,3e-05,0,5,21
26151,0.00014,0.0001,-8e-05,0.00011,-0.00016,6e-05,3e-05,0,5,21
26152,0.00014,0.0001,-8e-05,0.00011,-0.00016,6e-05,3e-05,0,5,21
26153,0.00014,0.0001,-8e-05,0.00011,-0.00016,6e-05,3e-05,0,5,21
26154,0.00014,0.0001,-8e-05,0.00011,-0.00016,6e-05,3e-05,0,5,21
26155,0.00014,0.0001,-8e-05,0.00011,-0.00016,6e-05,3e-05,0,5,21
26156,0.00014,0.0001,-8e-05,0.00011,-0.00016,6e-05,3e-05,0,5,21
26157,0.00014,0.0001,-8e-05,0.00011,-0.00016,6e-05,3e-05,0,5,21
26158,-0.00027,-0.0001,0.0002,0.00037,7e-05,8e-05,3e-05,2e-05,5,21
26159,0,5e-05,2e-05,0.0002,2e-05,0,-1e-05,0,5,21
26160,0,5e-05,2e-05,0.0002,2e-05,0,-1e-05,0,5,21
26161,0,5e-05,2e-05,0.0002,2e-05,0,-1e-05,0,5,21
26162,0,5e-05,2e-05,0.0002,2e-05,0,-1e-05,0,5,21
26163,0,5e-05,2e-05,0.0002,2e-05,0,-1e-05,0,5,21
26164,0,5e-05,2e-05,0.0002,2e-05,0,-1e-05,0,5,21
26165,0,5e-05,2e-05,0.0002,2e-05,0,-1e-05,0,5,21
26166,-7e-05,-2e-05,5e-05,0.00055,4e-05,-1e-05,-1e-05,0,5,21
26167,0,-5e-05,-0.00011,-0.00036,3e-05,3e-05,0,-2e-05,5,21
26168,0,-5e-05,-0.00011,-0.00036,3e-05,3e-05,0,-2e-05,5,21
26169,0,-5e-05,-0.00011,-0.00036,3e-05,3e-05,0,-2e-05,5,21
26170,0,-5e-05,-0.00011,-0.00036,3e-05,3e-05,0,-2e-05,5,21
26171,0,-5e-05,-0.00011,-0.00036,3e-05,3e-05,0,-2e-05,5,21
26172,0,-5e-05,-0.00011,-0.00036,3e-05,3e-05,0,-2e-05,5,21
26173,0,-5e-05,-0.00011,-0.00036,3e-05,3e-05,0,-2e-05,5,21
26174,0,-5e-05,-0.00011,-0.00036,3e-05,3e-05,0,-2e-05,5,21
26175,0,-5e-05,-0.00011,-0.00036,3e-05,3e-05,0,-2e-05,5,21
26176,0,-5e-05,-0.00011,-0.00036,3e-05,3e-05,0,-2e-05,5,21
26177,0,-5e-05,-0.00011,-0.00036,3e-05,3e-05,0,-2e-05,5,21
26178,0,-5e-05,-0.00011,-0.00036,3e-05,3e-05,0,-2e-05,5,21
26179,0,-5e-05,-0.00011,-0.00036,3e-05,3e-05,0,-2e-05,5,21
26180,0,-5e-05,-0.00011,-0.00036,3e-05,3e-05,0,-2e-05,5,21
26181,0.00016,1e-05,0,0.00011,-0.00013,0,2e-05,1e-05,5,21
26182,0.00016,1e-05,-5e-05,0.00044,-0.00011,-2e-05,1e-05,2e-05,5,21
26183,0,8e-05,0.00019,0.00087,-1e-05,0,0,1e-05,5,21
26184,0,8e-05,0.00019,0.00087,-1e-05,0,0,1e-05,5,21
26185,0,8e-05,0.00019,0.00087,-1e-05,0,0,1e-05,5,21
26187,0,8e-05,0.00019,0.00087,-1e-05,0,0,1e-05,5,21
26189,0,8e-05,0.00019,0.00087,-1e-05,0,0,1e-05,5,21
26190,0,8e-05,0.00019,0.00087,-1e-05,0,0,1e-05,5,21
26191,0,8e-05,0.00019,0.00087,-1e-05,0,0,1e-05,5,21
26192,0,8e-05,0.00019,0.00087,-1e-05,0,0,1e-05,5,21
26193,0,8e-05,0.00019,0.00087,-1e-05,0,0,1e-05,5,21
26194,0,8e-05,0.00019,0.00087,-1e-05,0,0,1e-05,5,21
26195,0,8e-05,0.00019,0.00087,-1e-05,0,0,1e-05,5,21
26196,0,8e-05,0.00019,0.00087,-1e-05,0,0,1e-05,5,21
26197,0,8e-05,0.00019,0.00087,-1e-05,0,0,1e-05,5,21
26198,0,8e-05,0.00019,0.00087,-1e-05,0,0,1e-05,5,21
26199,0,8e-05,0.00019,0.00087,-1e-05,0,0,1e-05,5,21
26200,0,8e-05,0.00019,0.00087,-1e-05,0,0,1e-05,5,21
26201,0,8e-05,0.00019,0.00087,-1e-05,0,0,1e-05,5,21
26202,0,8e-05,0.00019,0.00087,-1e-05,0,0,1e-05,5,21
26203,0,8e-05,0.00019,0.00087,-1e-05,0,0,1e-05,5,21
26204,0,8e-05,0.00019,0.00087,-1e-05,0,0,1e-05,5,21
26205,-1e-05,2e-05,0.0001,0.00014,-0.00017,4e-05,2e-05,3e-05,5,21
26206,2e-05,3e-05,0.00018,0.00044,-0.00021,-4e-05,-3e-05,-4e-05,5,21
26207,2e-05,3e-05,0.00018,0.00044,-0.00021,-4e-05,-3e-05,-4e-05,5,21
26208,2e-05,3e-05,0.00018,0.00044,-0.00021,-4e-05,-3e-05,-4e-05,5,21
26209,2e-05,3e-05,0.00018,0.00044,-0.00021,-4e-05,-3e-05,-4e-05,5,21
26210,2e-05,3e-05,0.00018,0.00044,-0.00021,-4e-05,-3e-05,-4e-05,5,21
26211,2e-05,3e-05,0.00018,0.00044,-0.00021,-4e-05,-3e-05,-4e-05,5,21
26212,2e-05,3e-05,0.00018,0.00044,-0.00021,-4e-05,-3e-05,-4e-05,5,21
26213,2e-05,3e-05,0.00018,0.00044,-0.00021,-4e-05,-3e-05,-4e-05,5,21
26214,2e-05,3e-05,0.00018,0.00044,-0.00021,-4e-05,-3e-05,-4e-05,5,21
26215,2e-05,3e-05,0.00018,0.00044,-0.00021,-4e-05,-3e-05,-4e-05,5,21
26216,2e-05,3e-05,0.00018,0.00044,-0.00021,-4e-05,-3e-05,-4e-05,5,21
26217,2e-05,3e-05,0.00018,0.00044,-0.00021,-4e-05,-3e-05,-4e-05,5,21
26218,0.00019,4e-05,-8e-05,-1e-05,0.00047,1e-05,1e-05,2e-05,5,21
26219,-0.00019,7e-05,0.00038,0.00017,2e-05,-2e-05,0,-1e-05,5,21
26220,-0.00019,7e-05,0.00038,0.00017,2e-05,-2e-05,0,-1e-05,5,21
26221,-0.00019,7e-05,0.00038,0.00017,2e-05,-2e-05,0,-1e-05,5,21
26222,-0.00019,7e-05,0.00038,0.00017,2e-05,-2e-05,0,-1e-05,5,21
26223,-0.00019,7e-05,0.00038,0.00017,2e-05,-2e-05,0,-1e-05,5,21
26224,-0.00019,7e-05,0.00038,0.00017,2e-05,-2e-05,0,-1e-05,5,21
26225,-0.00019,7e-05,0.00038,0.00017,2e-05,-2e-05,0,-1e-05,5,21
26226,-0.00019,7e-05,0.00038,0.00017,2e-05,-2e-05,0,-1e-05,5,21
26227,0.00015,8e-05,9e-05,0.0001,0.00015,2e-05,1e-05,-3e-05,5,21
26228,0.00015,8e-05,9e-05,0.0001,0.00015,2e-05,1e-05,-3e-05,5,21
26229,0.00015,8e-05,9e-05,0.0001,0.00015,2e-05,1e-05,-3e-05,5,21
26230,0.00015,8e-05,9e-05,0.0001,0.00015,2e-05,1e-05,-3e-05,5,21
26231,0.00015,8e-05,9e-05,0.0001,0.00015,2e-05,1e-05,-3e-05,5,21
26232,0.00015,8e-05,9e-05,0.0001,0.00015,2e-05,1e-05,-3e-05,5,21
26233,0.00015,8e-05,9e-05,0.0001,0.00015,2e-05,1e-05,-3e-05,5,21
26234,0.00015,8e-05,9e-05,0.0001,0.00015,2e-05,1e-05,-3e-05,5,21
26235,0.00015,8e-05,9e-05,0.0001,0.00015,2e-05,1e-05,-3e-05,5,21
26237,0.00015,8e-05,9e-05,0.0001,0.00015,2e-05,1e-05,-3e-05,5,21
26239,0.00015,8e-05,9e-05,0.0001,0.00015,2e-05,1e-05,-3e-05,5,21
26240,0.00015,8e-05,9e-05,0.0001,0.00015,2e-05,1e-05,-3e-05,5,21
26241,0.00015,8e-05,9e-05,0.0001,0.00015,2e-05,1e-05,-3e-05,5,21
26242,-0.00011,1e-05,3e-05,-0.00028,-0.00037,-3e-05,0,4e-05,5,21
26243,-8e-05,-8e-05,0,-0.00015,0.00039,8e-05,-3e-05,-8e-05,5,21
26244,-8e-05,-8e-05,0,-0.00015,0.00039,8e-05,-3e-05,-8e-05,5,21
26245,-8e-05,-8e-05,0,-0.00015,0.00039,8e-05,-3e-05,-8e-05,5,21
26246,-8e-05,-8e-05,0,-0.00015,0.00039,8e-05,-3e-05,-8e-05,5,21
26247,-8e-05,-8e-05,0,-0.00015,0.00039,8e-05,-3e-05,-8e-05,5,21
26248,-8e-05,-8e-05,0,-0.00015,0.00039,8e-05,-3e-05,-8e-05,5,21
26249,-8e-05,-8e-05,0,-0.00015,0.00039,8e-05,-3e-05,-8e-05,5,21
26250,-8e-05,-8e-05,0,-0.00015,0.00039,8e-05,-3e-05,-8e-05,5,21
26251,-8e-05,-8e-05,0,-0.00015,0.00039,8e-05,-3e-05,-8e-05,5,21
26252,-8e-05,-8e-05,0,-0.00015,0.00039,8e-05,-3e-05,-8e-05,5,21
26253,-8e-05,-8e-05,0,-0.00015,0.00039,8e-05,-3e-05,-8e-05,5,21
26254,-8e-05,-8e-05,0,-0.00015,0.00039,8e-05,-3e-05,-8e-05,5,21
26255,-8e-05,-8e-05,0,-0.00015,0.00039,8e-05,-3e-05,-8e-05,5,21
26256,-8e-05,-8e-05,0,-0.00015,0.00039,8e-05,-3e-05,-8e-05,5,21
26257,-8e-05,-8e-05,0,-0.00015,0.00039,8e-05,-3e-05,-8e-05,5,21
26258,-8e-05,-8e-05,0,-0.00015,0.00039,8e-05,-3e-05,-8e-05,5,21
26259,-8e-05,-8e-05,0,-0.00015,0.00039,8e-05,-3e-05,-8e-05,5,21
26260,-8e-05,-8e-05,0,-0.00015,0.00039,8e-05,-3e-05,-8e-05,5,21
26261,-8e-05,-8e-05,0,-0.00015,0.00039,8e-05,-3e-05,-8e-05,5,21
26262,-8e-05,-8e-05,0,-0.00015,0.00039,8e-05,-3e-05,-8e-05,5,21
26263,-8e-05,-8e-05,0,-0.00015,0.00039,8e-05,-3e-05,-8e-05,5,21
26264,-8e-05,-8e-05,0,-0.00015,0.00039,8e-05,-3e-05,-8e-05,5,21
26265,-3e-05,-9e-05,3e-05,6e-05,-0.00027,-1e-05,1e-05,-1e-05,5,21
26266,1e-05,-4e-05,-0.00011,0.00042,0.00047,-8e-05,-1e-05,-1e-05,5,21
26267,1e-05,-4e-05,-0.00011,0.00042,0.00047,-8e-05,-1e-05,-1e-05,5,21
26268,1e-05,-4e-05,-0.00011,0.00042,0.00047,-8e-05,-1e-05,-1e-05,5,21
26269,1e-05,-4e-05,-0.00011,0.00042,0.00047,-8e-05,-1e-05,-1e-05,5,21
26270,1e-05,-4e-05,-0.00011,0.00042,0.00047,-8e-05,-1e-05,-1e-05,5,21
26271,1e-05,-4e-05,-0.00011,0.00042,0.00047,-8e-05,-1e-05,-1e-05,5,21
26272,1e-05,-4e-05,-0.00011,0.00042,0.00047,-8e-05,-1e-05,-1e-05,5,21
56752,5e-05,-2e-05,-0.0001,-0.00012,-0.00031,-0.00014,-1e-05,-0.00012,5,21
56753,5e-05,-2e-05,-0.0001,-0.00012,-0.00031,-0.00014,-1e-05,-0.00012,5,21
56754,5e-05,-2e-05,-0.0001,-0.00012,-0.00031,-0.00014,-1e-05,-0.00012,5,21
56755,5e-05,-2e-05,-0.0001,-0.00012,-0.00031,-0.00014,-1e-05,-0.00012,5,21
56756,5e-05,-2e-05,-0.0001,-0.00012,-0.00031,-0.00014,-1e-05,-0.00012,5,21
56757,5e-05,-2e-05,-0.0001,-0.00012,-0.00031,-0.00014,-1e-05,-0.00012,5,21
56758,-0.00052,6e-05,0.00015,-0.00075,-0.00089,-0.00013,-3e-05,0.00014,5,21
56759,0,-2e-05,-0.00035,-2e-05,-0.00078,1e-05,3e-05,0.00012,5,21
56760,0,-2e-05,-0.00035,-2e-05,-0.00078,1e-05,3e-05,0.00012,5,21
56761,0,-2e-05,-0.00035,-2e-05,-0.00078,1e-05,3e-05,0.00012,5,21
56762,0,-2e-05,-0.00035,-2e-05,-0.00078,1e-05,3e-05,0.00012,5,21
56763,0,-2e-05,-0.00035,-2e-05,-0.00078,1e-05,3e-05,0.00012,5,21
56764,0,-2e-05,-0.00035,-2e-05,-0.00078,1e-05,3e-05,0.00012,5,21
56765,0,-2e-05,-0.00035,-2e-05,-0.00078,1e-05,3e-05,0.00012,5,21
56766,6e-05,-2e-05,0.00017,0.00053,0.0003,0.00022,7e-05,4e-05,5,21
56767,-0.00024,0.0001,0.00024,-0.00028,-0.00035,-0.00015,-0.00013,-0.00011,5,21
56768,-0.00024,0.0001,0.00024,-0.00028,-0.00035,-0.00015,-0.00013,-0.00011,5,21
56769,-0.00024,0.0001,0.00024,-0.00028,-0.00035,-0.00015,-0.00013,-0.00011,5,21
56770,-0.00024,0.0001,0.00024,-0.00028,-0.00035,-0.00015,-0.00013,-0.00011,5,21
56771,-0.00024,0.0001,0.00024,-0.00028,-0.00035,-0.00015,-0.00013,-0.00011,5,21
56772,-0.00024,0.0001,0.00024,-0.00028,-0.00035,-0.00015,-0.00013,-0.00011,5,21
56773,-0.00024,0.0001,0.00024,-0.00028,-0.00035,-0.00015,-0.00013,-0.00011,5,21
56774,-0.00024,0.0001,0.00024,-0.00028,-0.00035,-0.00015,-0.00013,-0.00011,5,21
56775,-0.00024,0.0001,0.00024,-0.00028,-0.00035,-0.00015,-0.00013,-0.00011,5,21
56776,-0.00024,0.0001,0.00024,-0.00028,-0.00035,-0.00015,-0.00013,-0.00011,5,21
56777,-0.00024,0.0001,0.00024,-0.00028,-0.00035,-0.00015,-0.00013,-0.00011,5,21
56778,-0.00024,0.0001,0.00024,-0.00028,-0.00035,-0.00015,-0.00013,-0.00011,5,21
56779,-0.00024,0.0001,0.00024,-0.00028,-0.00035,-0.00015,-0.00013,-0.00011,5,21
56780,-0.00024,0.0001,0.00024,-0.00028,-0.00035,-0.00015,-0.00013,-0.00011,5,21
56781,-0.00024,0.0001,0.00024,-0.00028,-0.00035,-0.00015,-0.00013,-0.00011,5,21
56782,-0.00084,0,0.00012,0.00044,-0.00031,1e-05,-0.0001,-0.00023,5,21
56783,-0.00084,0,0.00012,0.00044,-0.00031,1e-05,-0.0001,-0.00023,5,21
56784,-0.00084,0,0.00012,0.00044,-0.00031,1e-05,-0.0001,-0.00023,5,21
56785,-0.00084,0,0.00012,0.00044,-0.00031,1e-05,-0.0001,-0.00023,5,21
56787,-0.00084,0,0.00012,0.00044,-0.00031,1e-05,-0.0001,-0.00023,5,21
56789,-0.00084,0,0.00012,0.00044,-0.00031,1e-05,-0.0001,-0.00023,5,21
56790,-0.00084,0,0.00012,0.00044,-0.00031,1e-05,-0.0001,-0.00023,5,21
56791,-0.00084,0,0.00012,0.00044,-0.00031,1e-05,-0.0001,-0.00023,5,21
56792,-0.00084,0,0.00012,0.00044,-0.00031,1e-05,-0.0001,-0.00023,5,21
56793,-0.00084,0,0.00012,0.00044,-0.00031,1e-05,-0.0001,-0.00023,5,21
56794,-0.00084,0,0.00012,0.00044,-0.00031,1e-05,-0.0001,-0.00023,5,21
56795,-0.00084,0,0.00012,0.00044,-0.00031,1e-05,-0.0001,-0.00023,5,21
56796,-0.00084,0,0.00012,0.00044,-0.00031,1e-05,-0.0001,-0.00023,5,21
56797,-0.00084,0,0.00012,0.00044,-0.00031,1e-05,-0.0001,-0.00023,5,21
56798,-0.00084,0,0.00012,0.00044,-0.00031,1e-05,-0.0001,-0.00023,5,21
56799,-0.00084,0,0.00012,0.00044,-0.00031,1e-05,-0.0001,-0.00023,5,21
56800,-0.00084,0,0.00012,0.00044,-0.00031,1e-05,-0.0001,-0.00023,5,21
56801,-0.00084,0,0.00012,0.00044,-0.00031,1e-05,-0.0001,-0.00023,5,21
56802,-0.00084,0,0.00012,0.00044,-0.00031,1e-05,-0.0001,-0.00023,5,21
56803,-0.00084,0,0.00012,0.00044,-0.00031,1e-05,-0.0001,-0.00023,5,21
56804,-0.00084,0,0.00012,0.00044,-0.00031,1e-05,-0.0001,-0.00023,5,21
56805,-0.00033,-1e-05,-8e-05,0.00013,3e-05,2e-05,1e-05,8e-05,5,21
56806,-6e-05,-0.00017,-0.00051,-9e-05,5e-05,-4e-05,-5e-05,4e-05,5,21
56807,-6e-05,-0.00017,-0.00051,-9e-05,5e-05,-4e-05,-5e-05,4e-05,5,21
56808,-6e-05,-0.00017,-0.00051,-9e-05,5e-05,-4e-05,-5e-05,4e-05,5,21
56809,-6e-05,-0.00017,-0.00051,-9e-05,5e-05,-4e-05,-5e-05,4e-05,5,21
56810,-6e-05,-0.00017,-0.00051,-9e-05,5e-05,-4e-05,-5e-05,4e-05,5,21
56811,-6e-05,-0.00017,-0.00051,-9e-05,5e-05,-4e-05,-5e-05,4e-05,5,21
56812,-6e-05,-0.00017,-0.00051,-9e-05,5e-05,-4e-05,-5e-05,4e-05,5,21
56813,-6e-05,-0.00017,-0.00051,-9e-05,5e-05,-4e-05,-5e-05,4e-05,5,21
56814,-6e-05,-0.00017,-0.00051,-9e-05,5e-05,-4e-05,-5e-05,4e-05,5,21
56815,-6e-05,-0.00017,-0.00051,-9e-05,5e-05,-4e-05,-5e-05,4e-05,5,21
56816,-6e-05,-0.00017,-0.00051,-9e-05,5e-05,-4e-05,-5e-05,4e-05,5,21
56817,-6e-05,-0.00017,-0.00051,-9e-05,5e-05,-4e-05,-5e-05,4e-05,5,21
56818,-6e-05,-0.00017,-0.00051,-9e-05,5e-05,-4e-05,-5e-05,4e-05,5,21
56819,-6e-05,-0.00017,-0.00051,-9e-05,5e-05,-4e-05,-5e-05,4e-05,5,21
56820,-6e-05,-0.00017,-0.00051,-9e-05,5e-05,-4e-05,-5e-05,4e-05,5,21
56821,-6e-05,-0.00017,-0.00051,-9e-05,5e-05,-4e-05,-5e-05,4e-05,5,21
56822,-6e-05,-0.00017,-0.00051,-9e-05,5e-05,-4e-05,-5e-05,4e-05,5,21
56823,-6e-05,-0.00017,-0.00051,-9e-05,5e-05,-4e-05,-5e-05,4e-05,5,21
56824,-6e-05,-0.00017,-0.00051,-9e-05,5e-05,-4e-05,-5e-05,4e-05,5,21
56825,-6e-05,-0.00017,-0.00051,-9e-05,5e-05,-4e-05,-5e-05,4e-05,5,21
56826,-6e-05,-0.00017,-0.00051,-9e-05,5e-05,-4e-05,-5e-05,4e-05,5,21
56827,-0.00017,0,-8e-05,-0.00017,-0.00025,9e-05,3e-05,-4e-05,5,21
56828,-0.00014,-4e-05,9e-05,-0.00075,-0.00048,7e-05,0,0.00012,5,21
56829,-0.00014,-4e-05,9e-05,-0.00075,-0.00048,7e-05,0,0.00012,5,21
56830,-0.00014,-4e-05,9e-05,-0.00075,-0.00048,7e-05,0,0.00012,5,21
56831,-0.00014,-4e-05,9e-05,-0.00075,-0.00048,7e-05,0,0.00012,5,21
56832,-0.00014,-4e-05,9e-05,-0.00075,-0.00048,7e-05,0,0.00012,5,21
56833,-0.00014,-4e-05,9e-05,-0.00075,-0.00048,7e-05,0,0.00012,5,21
56834,-0.00014,-4e-05,9e-05,-0.00075,-0.00048,7e-05,0,0.00012,5,21
56835,-0.00014,-4e-05,9e-05,-0.00075,-0.00048,7e-05,0,0.00012,5,21
56837,-0.00014,-4e-05,9e-05,-0.00075,-0.00048,7e-05,0,0.00012,5,21
56839,-0.00014,-4e-05,9e-05,-0.00075,-0.00048,7e-05,0,0.00012,5,21
56840,-0.00014,-4e-05,9e-05,-0.00075,-0.00048,7e-05,0,0.00012,5,21
56841,-0.00014,-4e-05,9e-05,-0.00075,-0.00048,7e-05,0,0.00012,5,21
56842,0.00012,-0.0001,1e-05,0.00028,0.00115,0.00018,3e-05,-7e-05,5,21
56843,0.00012,-0.0001,1e-05,0.00028,0.00115,0.00018,3e-05,-7e-05,5,21
56844,0.00012,-0.0001,1e-05,0.00028,0.00115,0.00018,3e-05,-7e-05,5,21
56845,0.00012,-0.0001,1e-05,0.00028,0.00115,0.00018,3e-05,-7e-05,5,21
56846,0.00012,-0.0001,1e-05,0.00028,0.00115,0.00018,3e-05,-7e-05,5,21
56847,0.00012,-0.0001,1e-05,0.00028,0.00115,0.00018,3e-05,-7e-05,5,21
56848,0.00012,-0.0001,1e-05,0.00028,0.00115,0.00018,3e-05,-7e-05,5,21
56849,0.00012,-0.0001,1e-05,0.00028,0.00115,0.00018,3e-05,-7e-05,5,21
56850,0.00012,-0.0001,1e-05,0.00028,0.00115,0.00018,3e-05,-7e-05,5,21
56851,0.00012,-0.0001,1e-05,0.00028,0.00115,0.00018,3e-05,-7e-05,5,21
56852,0.00012,-0.0001,1e-05,0.00028,0.00115,0.00018,3e-05,-7e-05,5,21
56853,0.00012,-0.0001,1e-05,0.00028,0.00115,0.00018,3e-05,-7e-05,5,21
56854,0.00012,-0.0001,1e-05,0.00028,0.00115,0.00018,3e-05,-7e-05,5,21
56855,0.00012,-0.0001,1e-05,0.00028,0.00115,0.00018,3e-05,-7e-05,5,21
56856,0.00012,-0.0001,1e-05,0.00028,0.00115,0.00018,3e-05,-7e-05,5,21
56857,0.00012,-0.0001,1e-05,0.00028,0.00115,0.00018,3e-05,-7e-05,5,21
56858,0.00012,-0.0001,1e-05,0.00028,0.00115,0.00018,3e-05,-7e-05,5,21
56859,0.00012,-0.0001,1e-05,0.00028,0.00115,0.00018,3e-05,-7e-05,5,21
56860,0.00012,-0.0001,1e-05,0.00028,0.00115,0.00018,3e-05,-7e-05,5,21
56861,0.00012,-0.0001,1e-05,0.00028,0.00115,0.00018,3e-05,-7e-05,5,21
56862,0.00012,-0.0001,1e-05,0.00028,0.00115,0.00018,3e-05,-7e-05,5,21
56863,0.00012,-0.0001,1e-05,0.00028,0.00115,0.00018,3e-05,-7e-05,5,21
