21847,7e-05,0.00012,0.00037,0,0.00031,-0.00011,-1e-05,3e-05,5,26
21848,9e-05,5e-05,0.00027,-0.00065,-0.00045,0.00025,-2e-05,7e-05,5,26
21849,7e-05,6e-05,3e-05,1e-05,0,-3e-05,0.00023,3e-05,5,26
21850,7e-05,0.00028,0.00086,0.00018,-0.00064,-0.00042,0.00018,4e-05,5,26
21851,7e-05,0.00028,0.00086,0.00018,-0.00064,-0.00042,0.00018,4e-05,5,26
21852,7e-05,0.00028,0.00086,0.00018,-0.00064,-0.00042,0.00018,4e-05,5,26
21853,7e-05,0.00028,0.00086,0.00018,-0.00064,-0.00042,0.00018,4e-05,5,26
21854,7e-05,0.00028,0.00086,0.00018,-0.00064,-0.00042,0.00018,4e-05,5,26
21855,7e-05,0.00028,0.00086,0.00018,-0.00064,-0.00042,0.00018,4e-05,5,26
21856,7e-05,0.00028,0.00086,0.00018,-0.00064,-0.00042,0.00018,4e-05,5,26
21857,7e-05,0.00028,0.00086,0.00018,-0.00064,-0.00042,0.00018,4e-05,5,26
21858,7e-05,0.00028,0.00086,0.00018,-0.00064,-0.00042,0.00018,4e-05,5,26
21859,7e-05,0.00028,0.00086,0.00018,-0.00064,-0.00042,0.00018,4e-05,5,26
21860,7e-05,0.00028,0.00086,0.00018,-0.00064,-0.00042,0.00018,4e-05,5,26
21861,7e-05,0.00028,0.00086,0.00018,-0.00064,-0.00042,0.00018,4e-05,5,26
21862,-0.00016,-0.00028,-0.00034,0.0001,0.00027,-6e-05,-3e-05,-5e-05,5,26
21863,-0.00011,-0.00016,-0.0001,-0.00036,-0.00024,-8e-05,-0.00015,-9e-05,5,26
21864,-0.00011,-0.00016,-0.0001,-0.00036,-0.00024,-8e-05,-0.00015,-9e-05,5,26
21865,-0.00011,-0.00016,-0.0001,-0.00036,-0.00024,-8e-05,-0.00015,-9e-05,5,26
21866,-0.00011,-0.00016,-0.0001,-0.00036,-0.00024,-8e-05,-0.00015,-9e-05,5,26
21867,-0.00011,-0.00016,-0.0001,-0.00036,-0.00024,-8e-05,-0.00015,-9e-05,5,26
21868,-0.00011,-0.00016,-0.0001,-0.00036,-0.00024,-8e-05,-0.00015,-9e-05,5,26
21869,-0.00011,-0.00016,-0.0001,-0.00036,-0.00024,-8e-05,-0.00015,-9e-05,5,26
21870,-2e-05,-2e-05,-0.0002,-0.00015,0.00017,-0.00011,-8e-05,-2e-05,5,26
21871,0.0001,0.00047,0.00092,0.00089,0.00042,0.00029,-4e-05,3e-05,5,26
21872,0.0001,0.00047,0.00092,0.00089,0.00042,0.00029,-4e-05,3e-05,5,26
21873,0.0001,0.00047,0.00092,0.00089,0.00042,0.00029,-4e-05,3e-05,5,26
21874,0.0001,0.00047,0.00092,0.00089,0.00042,0.00029,-4e-05,3e-05,5,26
21875,0.0001,0.00047,0.00092,0.00089,0.00042,0.00029,-4e-05,3e-05,5,26
21876,0.0001,0.00047,0.00092,0.00089,0.00042,0.00029,-4e-05,3e-05,5,26
21877,0.0001,0.00047,0.00092,0.00089,0.00042,0.00029,-4e-05,3e-05,5,26
21878,0.0001,0.00047,0.00092,0.00089,0.00042,0.00029,-4e-05,3e-05,5,26
21879,0.0001,0.00047,0.00092,0.00089,0.00042,0.00029,-4e-05,3e-05,5,26
21880,0.0001,0.00047,0.00092,0.00089,0.00042,0.00029,-4e-05,3e-05,5,26
21881,0.0001,0.00047,0.00092,0.00089,0.00042,0.00029,-4e-05,3e-05,5,26
21882,0.0001,0.00047,0.00092,0.00089,0.00042,0.00029,-4e-05,3e-05,5,26
21883,0.0001,0.00047,0.00092,0.00089,0.00042,0.00029,-4e-05,3e-05,5,26
21884,0.0001,0.00047,0.00092,0.00089,0.00042,0.00029,-4e-05,3e-05,5,26
21885,-4e-05,-9e-05,3e-05,0.00035,0.00029,0.00014,0,-1e-05,5,26
21887,0,6e-05,-9e-05,-1e-05,-0.00017,-0.0002,-0.00016,-0.00011,5,26
21889,0,6e-05,-9e-05,-1e-05,-0.00017,-0.0002,-0.00016,-0.00011,5,26
21890,0,6e-05,-9e-05,-1e-05,-0.00017,-0.0002,-0.00016,-0.00011,5,26
21891,0,6e-05,-9e-05,-1e-05,-0.00017,-0.0002,-0.00016,-0.00011,5,26
21892,0,6e-05,-9e-05,-1e-05,-0.00017,-0.0002,-0.00016,-0.00011,5,26
21894,0,6e-05,-9e-05,-1e-05,-0.00017,-0.0002,-0.00016,-0.00011,5,26
21895,0,6e-05,-9e-05,-1e-05,-0.00017,-0.0002,-0.00016,-0.00011,5,26
21896,0,6e-05,-9e-05,-1e-05,-0.00017,-0.0002,-0.00016,-0.00011,5,26
21897,0,6e-05,-9e-05,-1e-05,-0.00017,-0.0002,-0.00016,-0.00011,5,26
21898,0,6e-05,-9e-05,-1e-05,-0.00017,-0.0002,-0.00016,-0.00011,5,26
21899,0,6e-05,-9e-05,-1e-05,-0.00017,-0.0002,-0.00016,-0.00011,5,26
21900,0,6e-05,-9e-05,-1e-05,-0.00017,-0.0002,-0.00016,-0.00011,5,26
21901,0,6e-05,-9e-05,-1e-05,-0.00017,-0.0002,-0.00016,-0.00011,5,26
21902,0,6e-05,-9e-05,-1e-05,-0.00017,-0.0002,-0.00016,-0.00011,5,26
21903,0,6e-05,-9e-05,-1e-05,-0.00017,-0.0002,-0.00016,-0.00011,5,26
21904,0,6e-05,-9e-05,-1e-05,-0.00017,-0.0002,-0.00016,-0.00011,5,26
21905,0,6e-05,-9e-05,-1e-05,-0.00017,-0.0002,-0.00016,-0.00011,5,26
21906,0,6e-05,-9e-05,-1e-05,-0.00017,-0.0002,-0.00016,-0.00011,5,26
21907,0,6e-05,-9e-05,-1e-05,-0.00017,-0.0002,-0.00016,-0.00011,5,26
21908,0.0002,0.00043,0.0008,0.00028,0.00017,8e-05,0.00012,0.00011,5,26
21909,-3e-05,-0.0002,-0.00067,-0.00118,-0.0009,4e-05,-0.00017,-5e-05,5,26
21910,-3e-05,-0.0002,-0.00067,-0.00118,-0.0009,4e-05,-0.00017,-5e-05,5,26
21911,-3e-05,-0.0002,-0.00067,-0.00118,-0.0009,4e-05,-0.00017,-5e-05,5,26
21912,-3e-05,-0.0002,-0.00067,-0.00118,-0.0009,4e-05,-0.00017,-5e-05,5,26
21913,-3e-05,-0.0002,-0.00067,-0.00118,-0.0009,4e-05,-0.00017,-5e-05,5,26
21914,-3e-05,-0.0002,-0.00067,-0.00118,-0.0009,4e-05,-0.00017,-5e-05,5,26
21915,-3e-05,-0.0002,-0.00067,-0.00118,-0.0009,4e-05,-0.00017,-5e-05,5,26
21916,-3e-05,-0.0002,-0.00067,-0.00118,-0.0009,4e-05,-0.00017,-5e-05,5,26
21917,-3e-05,-0.0002,-0.00067,-0.00118,-0.0009,4e-05,-0.00017,-5e-05,5,26
21918,-3e-05,-0.0002,-0.00067,-0.00118,-0.0009,4e-05,-0.00017,-5e-05,5,26
21919,-3e-05,-0.0002,-0.00067,-0.00118,-0.0009,4e-05,-0.00017,-5e-05,5,26
21920,-3e-05,-0.0002,-0.00067,-0.00118,-0.0009,4e-05,-0.00017,-5e-05,5,26
21921,-3e-05,-0.0002,-0.00067,-0.00118,-0.0009,4e-05,-0.00017,-5e-05,5,26
21922,1e-05,0.00012,0.00014,-0.00011,5e-05,5e-05,-2e-05,-5e-05,5,26
21923,1e-05,0.00012,0.00014,-0.00011,5e-05,5e-05,-2e-05,-5e-05,5,26
21924,1e-05,0.00012,0.00014,-0.00011,5e-05,5e-05,-2e-05,-5e-05,5,26
21925,1e-05,0.00012,0.00014,-0.00011,5e-05,5e-05,-2e-05,-5e-05,5,26
21926,1e-05,0.00012,0.00014,-0.00011,5e-05,5e-05,-2e-05,-5e-05,5,26
21927,1e-05,0.00012,0.00014,-0.00011,5e-05,5e-05,-2e-05,-5e-05,5,26
21928,1e-05,0.00012,0.00014,-0.00011,5e-05,5e-05,-2e-05,-5e-05,5,26
21929,1e-05,0.00012,0.00014,-0.00011,5e-05,5e-05,-2e-05,-5e-05,5,26
21930,-1e-05,-0.00021,-0.00029,8e-05,0.0001,0.00015,-1e-05,-1e-05,5,26
21931,-1e-05,-0.00021,-0.00029,8e-05,0.0001,0.00015,-1e-05,-1e-05,5,26
21932,-1e-05,-0.00021,-0.00029,8e-05,0.0001,0.00015,-1e-05,-1e-05,5,26
21933,-1e-05,-0.00021,-0.00029,8e-05,0.0001,0.00015,-1e-05,-1e-05,5,26
21934,-1e-05,-0.00021,-0.00029,8e-05,0.0001,0.00015,-1e-05,-1e-05,5,26
21935,-1e-05,-0.00021,-0.00029,8e-05,0.0001,0.00015,-1e-05,-1e-05,5,26
21936,-1e-05,-0.00021,-0.00029,8e-05,0.0001,0.00015,-1e-05,-1e-05,5,26
21938,-1e-05,-0.00021,-0.00029,8e-05,0.0001,0.00015,-1e-05,-1e-05,5,26
21939,-1e-05,-0.00021,-0.00029,8e-05,0.0001,0.00015,-1e-05,-1e-05,5,26
21940,-1e-05,-0.00021,-0.00029,8e-05,0.0001,0.00015,-1e-05,-1e-05,5,26
21941,-1e-05,-0.00021,-0.00029,8e-05,0.0001,0.00015,-1e-05,-1e-05,5,26
21942,-1e-05,-0.00021,-0.00029,8e-05,0.0001,0.00015,-1e-05,-1e-05,5,26
21943,-1e-05,-0.00021,-0.00029,8e-05,0.0001,0.00015,-1e-05,-1e-05,5,26
21944,-1e-05,-0.00021,-0.00029,8e-05,0.0001,0.00015,-1e-05,-1e-05,5,26
21945,7e-05,0.00019,0.00042,-0.00015,-0.00012,-0.00019,0.00016,7e-05,5,26
21946,-8e-05,-8e-05,-0.00036,-2e-05,0.00021,6e-05,-1e-05,-2e-05,5,26
21947,-8e-05,-8e-05,-0.00036,-2e-05,0.00021,6e-05,-1e-05,-2e-05,5,26
21948,-8e-05,-8e-05,-0.00036,-2e-05,0.00021,6e-05,-1e-05,-2e-05,5,26
21949,-8e-05,-8e-05,-0.00036,-2e-05,0.00021,6e-05,-1e-05,-2e-05,5,26
21950,-8e-05,-8e-05,-0.00036,-2e-05,0.00021,6e-05,-1e-05,-2e-05,5,26
21951,-8e-05,-8e-05,-0.00036,-2e-05,0.00021,6e-05,-1e-05,-2e-05,5,26
21952,-8e-05,-8e-05,-0.00036,-2e-05,0.00021,6e-05,-1e-05,-2e-05,5,26
21953,-8e-05,-8e-05,-0.00036,-2e-05,0.00021,6e-05,-1e-05,-2e-05,5,26
21954,-8e-05,-8e-05,-0.00036,-2e-05,0.00021,6e-05,-1e-05,-2e-05,5,26
21955,-8e-05,-8e-05,-0.00036,-2e-05,0.00021,6e-05,-1e-05,-2e-05,5,26
21956,-8e-05,-8e-05,-0.00036,-2e-05,0.00021,6e-05,-1e-05,-2e-05,5,26
21957,-8e-05,-8e-05,-0.00036,-2e-05,0.00021,6e-05,-1e-05,-2e-05,5,26
21958,-8e-05,-8e-05,-0.00036,-2e-05,0.00021,6e-05,-1e-05,-2e-05,5,26
21959,-8e-05,-8e-05,-0.00036,-2e-05,0.00021,6e-05,-1e-05,-2e-05,5,26
21960,-8e-05,-8e-05,-0.00036,-2e-05,0.00021,6e-05,-1e-05,-2e-05,5,26
21961,-8e-05,-8e-05,-0.00036,-2e-05,0.00021,6e-05,-1e-05,-2e-05,5,26
21962,-8e-05,-8e-05,-0.00036,-2e-05,0.00021,6e-05,-1e-05,-2e-05,5,26
21963,-8e-05,-8e-05,-0.00036,-2e-05,0.00021,6e-05,-1e-05,-2e-05,5,26
21964,-8e-05,-8e-05,-0.00036,-2e-05,0.00021,6e-05,-1e-05,-2e-05,5,26
21965,-8e-05,-8e-05,-0.00036,-2e-05,0.00021,6e-05,-1e-05,-2e-05,5,26
21966,-8e-05,-8e-05,-0.00036,-2e-05,0.00021,6e-05,-1e-05,-2e-05,5,26
21967,-8e-05,-8e-05,-0.00036,-2e-05,0.00021,6e-05,-1e-05,-2e-05,5,26
21968,-8e-05,-8e-05,-0.00036,-2e-05,0.00021,6e-05,-1e-05,-2e-05,5,26
21969,-0.00018,-0.00044,-0.00046,0.00035,0.00018,-0.00022,-0.00015,-0.00011,5,26
21970,-0.00018,-0.00044,-0.00046,0.00035,0.00018,-0.00022,-0.00015,-0.00011,5,26
21971,-0.00018,-0.00044,-0.00046,0.00035,0.00018,-0.00022,-0.00015,-0.00011,5,26
21972,-0.00018,-0.00044,-0.00046,0.00035,0.00018,-0.00022,-0.00015,-0.00011,5,26
21973,-0.00018,-0.00044,-0.00046,0.00035,0.00018,-0.00022,-0.00015,-0.00011,5,26
21974,-0.00018,-0.00044,-0.00046,0.00035,0.00018,-0.00022,-0.00015,-0.00011,5,26
21975,-0.00018,-0.00044,-0.00046,0.00035,0.00018,-0.00022,-0.00015,-0.00011,5,26
21976,-0.00018,-0.00044,-0.00046,0.00035,0.00018,-0.00022,-0.00015,-0.00011,5,26
21977,-0.00018,-0.00044,-0.00046,0.00035,0.00018,-0.00022,-0.00015,-0.00011,5,26
21978,-0.00018,-0.00044,-0.00046,0.00035,0.00018,-0.00022,-0.00015,-0.00011,5,26
21979,-0.00018,-0.00044,-0.00046,0.00035,0.00018,-0.00022,-0.00015,-0.00011,5,26
21980,-0.00018,-0.00044,-0.00046,0.00035,0.00018,-0.00022,-0.00015,-0.00011,5,26
21981,-0.00018,-0.00044,-0.00046,0.00035,0.00018,-0.00022,-0.00015,-0.00011,5,26
21982,-1e-05,-0.00017,-0.00019,8e-05,0.00023,0.00012,3e-05,3e-05,5,26
21983,-1e-05,-0.00017,-0.00019,8e-05,0.00023,0.00012,3e-05,3e-05,5,26
21984,-1e-05,-0.00017,-0.00019,8e-05,0.00023,0.00012,3e-05,3e-05,5,26
21985,-1e-05,-0.00017,-0.00019,8e-05,0.00023,0.00012,3e-05,3e-05,5,26
21986,-1e-05,-0.00017,-0.00019,8e-05,0.00023,0.00012,3e-05,3e-05,5,26
21988,-1e-05,-0.00017,-0.00019,8e-05,0.00023,0.00012,3e-05,3e-05,5,26
21989,-1e-05,-0.00017,-0.00019,8e-05,0.00023,0.00012,3e-05,3e-05,5,26
21990,-3e-05,6e-05,0.0001,0.00017,0.00013,-3e-05,-5e-05,-2e-05,5,26
21991,-3e-05,6e-05,0.0001,0.00017,0.00013,-3e-05,-5e-05,-2e-05,5,26
21992,-3e-05,6e-05,0.0001,0.00017,0.00013,-3e-05,-5e-05,-2e-05,5,26
21993,-3e-05,6e-05,0.0001,0.00017,0.00013,-3e-05,-5e-05,-2e-05,5,26
21994,-3e-05,6e-05,0.0001,0.00017,0.00013,-3e-05,-5e-05,-2e-05,5,26
21995,-3e-05,6e-05,0.0001,0.00017,0.00013,-3e-05,-5e-05,-2e-05,5,26
21996,-3e-05,6e-05,0.0001,0.00017,0.00013,-3e-05,-5e-05,-2e-05,5,26
21997,-3e-05,6e-05,0.0001,0.00017,0.00013,-3e-05,-5e-05,-2e-05,5,26
21998,-3e-05,6e-05,0.0001,0.00017,0.00013,-3e-05,-5e-05,-2e-05,5,26
21999,-3e-05,6e-05,0.0001,0.00017,0.00013,-3e-05,-5e-05,-2e-05,5,26
22000,-3e-05,6e-05,0.0001,0.00017,0.00013,-3e-05,-5e-05,-2e-05,5,26
22001,-3e-05,6e-05,0.0001,0.00017,0.00013,-3e-05,-5e-05,-2e-05,5,26
22002,-3e-05,6e-05,0.0001,0.00017,0.00013,-3e-05,-5e-05,-2e-05,5,26
22003,-3e-05,6e-05,0.0001,0.00017,0.00013,-3e-05,-5e-05,-2e-05,5,26
22004,-3e-05,6e-05,0.0001,0.00017,0.00013,-3e-05,-5e-05,-2e-05,5,26
22005,3e-05,-2e-05,-0.0005,-0.0002,-0.00036,4e-05,2e-05,4e-05,5,26
22006,-0.0001,-1e-05,-4e-05,-0.00037,-0.0001,-3e-05,7e-05,-5e-05,5,26
22007,-0.0001,-1e-05,-4e-05,-0.00037,-0.0001,-3e-05,7e-05,-5e-05,5,26
22008,-0.0001,-1e-05,-4e-05,-0.00037,-0.0001,-3e-05,7e-05,-5e-05,5,26
22009,-0.0001,-1e-05,-4e-05,-0.00037,-0.0001,-3e-05,7e-05,-5e-05,5,26
22010,-0.0001,-1e-05,-4e-05,-0.00037,-0.0001,-3e-05,7e-05,-5e-05,5,26
22011,-0.0001,-1e-05,-4e-05,-0.00037,-0.0001,-3e-05,7e-05,-5e-05,5,26
22012,-0.0001,-1e-05,-4e-05,-0.00037,-0.0001,-3e-05,7e-05,-5e-05,5,26
22013,-0.0001,-1e-05,-4e-05,-0.00037,-0.0001,-3e-05,7e-05,-5e-05,5,26
22014,-0.0001,-1e-05,-4e-05,-0.00037,-0.0001,-3e-05,7e-05,-5e-05,5,26
22015,-0.0001,-1e-05,-4e-05,-0.00037,-0.0001,-3e-05,7e-05,-5e-05,5,26
22016,-0.0001,-1e-05,-4e-05,-0.00037,-0.0001,-3e-05,7e-05,-5e-05,5,26
22017,-0.0001,-1e-05,-4e-05,-0.00037,-0.0001,-3e-05,7e-05,-5e-05,5,26
22018,-0.0001,-1e-05,-4e-05,-0.00037,-0.0001,-3e-05,7e-05,-5e-05,5,26
22019,-0.0001,-1e-05,-4e-05,-0.00037,-0.0001,-3e-05,7e-05,-5e-05,5,26
22020,-0.0001,-1e-05,-4e-05,-0.00037,-0.0001,-3e-05,7e-05,-5e-05,5,26
22021,-0.0001,-1e-05,-4e-05,-0.00037,-0.0001,-3e-05,7e-05,-5e-05,5,26
22022,-0.0001,-1e-05,-4e-05,-0.00037,-0.0001,-3e-05,7e-05,-5e-05,5,26
22023,-0.0001,-1e-05,-4e-05,-0.00037,-0.0001,-3e-05,7e-05,-5e-05,5,26
22024,-0.0001,-1e-05,-4e-05,-0.00037,-0.0001,-3e-05,7e-05,-5e-05,5,26
22025,-0.0001,-1e-05,-4e-05,-0.00037,-0.0001,-3e-05,7e-05,-5e-05,5,26
22026,-0.0001,-1e-05,-4e-05,-0.00037,-0.0001,-3e-05,7e-05,-5e-05,5,26
22027,-0.0001,-1e-05,-4e-05,-0.00037,-0.0001,-3e-05,7e-05,-5e-05,5,26
22028,-0.0001,-1e-05,-4e-05,-0.00037,-0.0001,-3e-05,7e-05,-5e-05,5,26
22029,-0.00016,-3e-05,-8e-05,-0.00028,-0.00023,-8e-05,-4e-05,-8e-05,5,26
22030,-0.00016,-3e-05,-8e-05,-0.00028,-0.00023,-8e-05,-4e-05,-8e-05,5,26
22031,-0.00016,-3e-05,-8e-05,-0.00028,-0.00023,-8e-05,-4e-05,-8e-05,5,26
22032,-0.00016,-3e-05,-8e-05,-0.00028,-0.00023,-8e-05,-4e-05,-8e-05,5,26
22033,-0.00016,-3e-05,-8e-05,-0.00028,-0.00023,-8e-05,-4e-05,-8e-05,5,26
22034,-0.00016,-3e-05,-8e-05,-0.00028,-0.00023,-8e-05,-4e-05,-8e-05,5,26
22035,-0.00016,-3e-05,-8e-05,-0.00028,-0.00023,-8e-05,-4e-05,-8e-05,5,26
22036,-0.00016,-3e-05,-8e-05,-0.00028,-0.00023,-8e-05,-4e-05,-8e-05,5,26
22038,-0.00016,-3e-05,-8e-05,-0.00028,-0.00023,-8e-05,-4e-05,-8e-05,5,26
22039,-0.00016,-3e-05,-8e-05,-0.00028,-0.00023,-8e-05,-4e-05,-8e-05,5,26
22040,-0.00016,-3e-05,-8e-05,-0.00028,-0.00023,-8e-05,-4e-05,-8e-05,5,26
22041,-0.00016,-3e-05,-8e-05,-0.00028,-0.00023,-8e-05,-4e-05,-8e-05,5,26
22042,-9e-05,-0.00025,-0.00047,-0.00011,-2e-05,-0.00032,-9e-05,-6e-05,5,26
22043,-9e-05,-0.00025,-0.00047,-0.00011,-2e-05,-0.00032,-9e-05,-6e-05,5,26
22044,-9e-05,-0.00025,-0.00047,-0.00011,-2e-05,-0.00032,-9e-05,-6e-05,5,26
22045,-9e-05,-0.00025,-0.00047,-0.00011,-2e-05,-0.00032,-9e-05,-6e-05,5,26
22046,-9e-05,-0.00025,-0.00047,-0.00011,-2e-05,-0.00032,-9e-05,-6e-05,5,26
22047,-9e-05,-0.00025,-0.00047,-0.00011,-2e-05,-0.00032,-9e-05,-6e-05,5,26
22048,-9e-05,-0.00025,-0.00047,-0.00011,-2e-05,-0.00032,-9e-05,-6e-05,5,26
22049,-9e-05,-0.00025,-0.00047,-0.00011,-2e-05,-0.00032,-9e-05,-6e-05,5,26
22050,0.0001,4e-05,0.00018,-0.00025,-0.00052,-0.00062,7e-05,7e-05,5,26
22051,0.0001,4e-05,0.00018,-0.00025,-0.00052,-0.00062,7e-05,7e-05,5,26
22052,0.0001,4e-05,0.00018,-0.00025,-0.00052,-0.00062,7e-05,7e-05,5,26
22053,0.0001,4e-05,0.00018,-0.00025,-0.00052,-0.00062,7e-05,7e-05,5,26
22054,0.0001,4e-05,0.00018,-0.00025,-0.00052,-0.00062,7e-05,7e-05,5,26
22055,0.0001,4e-05,0.00018,-0.00025,-0.00052,-0.00062,7e-05,7e-05,5,26
22056,0.0001,4e-05,0.00018,-0.00025,-0.00052,-0.00062,7e-05,7e-05,5,26
22057,0.0001,4e-05,0.00018,-0.00025,-0.00052,-0.00062,7e-05,7e-05,5,26
22058,0.0001,4e-05,0.00018,-0.00025,-0.00052,-0.00062,7e-05,7e-05,5,26
22059,0.0001,4e-05,0.00018,-0.00025,-0.00052,-0.00062,7e-05,7e-05,5,26
22060,0.0001,4e-05,0.00018,-0.00025,-0.00052,-0.00062,7e-05,7e-05,5,26
22061,0.0001,4e-05,0.00018,-0.00025,-0.00052,-0.00062,7e-05,7e-05,5,26
22062,0.0001,4e-05,0.00018,-0.00025,-0.00052,-0.00062,7e-05,7e-05,5,26
22063,0.0001,4e-05,0.00018,-0.00025,-0.00052,-0.00062,7e-05,7e-05,5,26
22064,0.0001,4e-05,0.00018,-0.00025,-0.00052,-0.00062,7e-05,7e-05,5,26
22065,0.0001,4e-05,0.00018,-0.00025,-0.00052,-0.00062,7e-05,7e-05,5,26
22066,0.0001,4e-05,0.00018,-0.00025,-0.00052,-0.00062,7e-05,7e-05,5,26
22067,0.0001,4e-05,0.00018,-0.00025,-0.00052,-0.00062,7e-05,7e-05,5,26
22068,0.0001,4e-05,0.00018,-0.00025,-0.00052,-0.00062,7e-05,7e-05,5,26
22069,0.0001,4e-05,0.00018,-0.00025,-0.00052,-0.00062,7e-05,7e-05,5,26
22070,0.0001,4e-05,0.00018,-0.00025,-0.00052,-0.00062,7e-05,7e-05,5,26
22071,0.0001,4e-05,0.00018,-0.00025,-0.00052,-0.00062,7e-05,7e-05,5,26
22072,0.0001,4e-05,0.00018,-0.00025,-0.00052,-0.00062,7e-05,7e-05,5,26
22073,-5e-05,-1e-05,0.00013,0.00029,0.00013,0.00023,-0.00014,-2e-05,5,26
22074,0.00011,0.00014,1e-05,9e-05,8e-05,0.00025,7e-05,8e-05,5,26
22075,0.00011,0.00014,1e-05,9e-05,8e-05,0.00025,7e-05,8e-05,5,26
22076,0.00011,0.00014,1e-05,9e-05,8e-05,0.00025,7e-05,8e-05,5,26
22077,0.00011,0.00014,1e-05,9e-05,8e-05,0.00025,7e-05,8e-05,5,26
22078,0.00011,0.00014,1e-05,9e-05,8e-05,0.00025,7e-05,8e-05,5,26
22079,0.00011,0.00014,1e-05,9e-05,8e-05,0.00025,7e-05,8e-05,5,26
22080,0.00011,0.00014,1e-05,9e-05,8e-05,0.00025,7e-05,8e-05,5,26
22081,0.00011,0.00014,1e-05,9e-05,8e-05,0.00025,7e-05,8e-05,5,26
22082,0.00011,0.00014,1e-05,9e-05,8e-05,0.00025,7e-05,8e-05,5,26
22083,0.00011,0.00014,1e-05,9e-05,8e-05,0.00025,7e-05,8e-05,5,26
22084,0.00011,0.00014,1e-05,9e-05,8e-05,0.00025,7e-05,8e-05,5,26
22085,0.00011,0.00014,1e-05,9e-05,8e-05,0.00025,7e-05,8e-05,5,26
22086,0.00011,0.00014,1e-05,9e-05,8e-05,0.00025,7e-05,8e-05,5,26
22089,0.0001,0.00017,-4e-05,-0.00061,-0.00051,3e-05,-0.00014,0,5,26
22090,0.0001,0.00017,-4e-05,-0.00061,-0.00051,3e-05,-0.00014,0,5,26
22091,0.0001,0.00017,-4e-05,-0.00061,-0.00051,3e-05,-0.00014,0,5,26
22092,0.0001,0.00017,-4e-05,-0.00061,-0.00051,3e-05,-0.00014,0,5,26
22093,0.0001,0.00017,-4e-05,-0.00061,-0.00051,3e-05,-0.00014,0,5,26
22094,0.0001,0.00017,-4e-05,-0.00061,-0.00051,3e-05,-0.00014,0,5,26
22095,0.0001,0.00017,-4e-05,-0.00061,-0.00051,3e-05,-0.00014,0,5,26
22096,0.0001,0.00017,-4e-05,-0.00061,-0.00051,3e-05,-0.00014,0,5,26
22097,0.0001,0.00017,-4e-05,-0.00061,-0.00051,3e-05,-0.00014,0,5,26
22098,0.0001,0.00017,-4e-05,-0.00061,-0.00051,3e-05,-0.00014,0,5,26
22099,0.0001,0.00017,-4e-05,-0.00061,-0.00051,3e-05,-0.00014,0,5,26
22100,0.0001,0.00017,-4e-05,-0.00061,-0.00051,3e-05,-0.00014,0,5,26
22101,0.0001,0.00017,-4e-05,-0.00061,-0.00051,3e-05,-0.00014,0,5,26
22102,0,0.00014,0.00021,0.00081,2e-05,0.00024,5e-05,3e-05,5,26
22103,0,0.00014,0.00021,0.00081,2e-05,0.00024,5e-05,3e-05,5,26
22104,0,0.00014,0.00021,0.00081,2e-05,0.00024,5e-05,3e-05,5,26
22105,0,0.00014,0.00021,0.00081,2e-05,0.00024,5e-05,3e-05,5,26
22106,0,0.00014,0.00021,0.00081,2e-05,0.00024,5e-05,3e-05,5,26
22107,0,0.00014,0.00021,0.00081,2e-05,0.00024,5e-05,3e-05,5,26
22108,0,0.00014,0.00021,0.00081,2e-05,0.00024,5e-05,3e-05,5,26
22109,0,0.00014,0.00021,0.00081,2e-05,0.00024,5e-05,3e-05,5,26
22110,-0.0002,-0.0003,-0.00031,-0.00032,-0.00047,9e-05,-3e-05,-0.0001,5,26
22111,-0.0002,-0.0003,-0.00031,-0.00032,-0.00047,9e-05,-3e-05,-0.0001,5,26
22112,-0.0002,-0.0003,-0.00031,-0.00032,-0.00047,9e-05,-3e-05,-0.0001,5,26
22113,-0.0002,-0.0003,-0.00031,-0.00032,-0.00047,9e-05,-3e-05,-0.0001,5,26
22114,-0.0002,-0.0003,-0.00031,-0.00032,-0.00047,9e-05,-3e-05,-0.0001,5,26
22115,-0.0002,-0.0003,-0.00031,-0.00032,-0.00047,9e-05,-3e-05,-0.0001,5,26
22116,-0.0002,-0.0003,-0.00031,-0.00032,-0.00047,9e-05,-3e-05,-0.0001,5,26
22117,-0.0002,-0.0003,-0.00031,-0.00032,-0.00047,9e-05,-3e-05,-0.0001,5,26
22118,-0.0002,-0.0003,-0.00031,-0.00032,-0.00047,9e-05,-3e-05,-0.0001,5,26
22119,-0.0002,-0.0003,-0.00031,-0.00032,-0.00047,9e-05,-3e-05,-0.0001,5,26
22120,-0.0002,-0.0003,-0.00031,-0.00032,-0.00047,9e-05,-3e-05,-0.0001,5,26
22121,-0.0002,-0.0003,-0.00031,-0.00032,-0.00047,9e-05,-3e-05,-0.0001,5,26
22122,-0.0002,-0.0003,-0.00031,-0.00032,-0.00047,9e-05,-3e-05,-0.0001,5,26
22123,-0.0002,-0.0003,-0.00031,-0.00032,-0.00047,9e-05,-3e-05,-0.0001,5,26
22124,-0.0002,-0.0003,-0.00031,-0.00032,-0.00047,9e-05,-3e-05,-0.0001,5,26
22125,0,-6e-05,-0.00056,-0.00056,0.00012,0.00021,-7e-05,-1e-05,5,26
22126,6e-05,0.00018,0.00039,0.00046,0.00026,5e-05,0,1e-05,5,26
22127,6e-05,0.00018,0.00039,0.00046,0.00026,5e-05,0,1e-05,5,26
22128,6e-05,0.00018,0.00039,0.00046,0.00026,5e-05,0,1e-05,5,26
22129,6e-05,0.00018,0.00039,0.00046,0.00026,5e-05,0,1e-05,5,26
22130,6e-05,0.00018,0.00039,0.00046,0.00026,5e-05,0,1e-05,5,26
22131,6e-05,0.00018,0.00039,0.00046,0.00026,5e-05,0,1e-05,5,26
22132,6e-05,0.00018,0.00039,0.00046,0.00026,5e-05,0,1e-05,5,26
22133,6e-05,0.00018,0.00039,0.00046,0.00026,5e-05,0,1e-05,5,26
22134,6e-05,0.00018,0.00039,0.00046,0.00026,5e-05,0,1e-05,5,26
22135,6e-05,0.00018,0.00039,0.00046,0.00026,5e-05,0,1e-05,5,26
22136,6e-05,0.00018,0.00039,0.00046,0.00026,5e-05,0,1e-05,5,26
22138,6e-05,0.00018,0.00039,0.00046,0.00026,5e-05,0,1e-05,5,26
22139,6e-05,0.00018,0.00039,0.00046,0.00026,5e-05,0,1e-05,5,26
22140,6e-05,0.00018,0.00039,0.00046,0.00026,5e-05,0,1e-05,5,26
22142,6e-05,0.00018,0.00039,0.00046,0.00026,5e-05,0,1e-05,5,26
22143,6e-05,0.00018,0.00039,0.00046,0.00026,5e-05,0,1e-05,5,26
22144,6e-05,0.00018,0.00039,0.00046,0.00026,5e-05,0,1e-05,5,26
22145,6e-05,0.00018,0.00039,0.00046,0.00026,5e-05,0,1e-05,5,26
22146,6e-05,0.00018,0.00039,0.00046,0.00026,5e-05,0,1e-05,5,26
22147,6e-05,0.00018,0.00039,0.00046,0.00026,5e-05,0,1e-05,5,26
22148,6e-05,0.00018,0.00039,0.00046,0.00026,5e-05,0,1e-05,5,26
22149,-6e-05,-0.00015,5e-05,-4e-05,-0.00015,5e-05,6e-05,-3e-05,5,26
22150,5e-05,0.00011,0.00047,0.00096,0.00033,9e-05,5e-05,5e-05,5,26
22151,5e-05,0.00011,0.00047,0.00096,0.00033,9e-05,5e-05,5e-05,5,26
22152,5e-05,0.00011,0.00047,0.00096,0.00033,9e-05,5e-05,5e-05,5,26
22153,5e-05,0.00011,0.00047,0.00096,0.00033,9e-05,5e-05,5e-05,5,26
22154,5e-05,0.00011,0.00047,0.00096,0.00033,9e-05,5e-05,5e-05,5,26
22155,5e-05,0.00011,0.00047,0.00096,0.00033,9e-05,5e-05,5e-05,5,26
22156,5e-05,0.00011,0.00047,0.00096,0.00033,9e-05,5e-05,5e-05,5,26
22157,5e-05,0.00011,0.00047,0.00096,0.00033,9e-05,5e-05,5e-05,5,26
22158,5e-05,0.00011,0.00047,0.00096,0.00033,9e-05,5e-05,5e-05,5,26
22159,5e-05,0.00011,0.00047,0.00096,0.00033,9e-05,5e-05,5e-05,5,26
22160,5e-05,0.00011,0.00047,0.00096,0.00033,9e-05,5e-05,5e-05,5,26
22161,5e-05,0.00011,0.00047,0.00096,0.00033,9e-05,5e-05,5e-05,5,26
22162,5e-05,0.00011,0.00047,0.00096,0.00033,9e-05,5e-05,5e-05,5,26
22163,5e-05,0.00011,0.00047,0.00096,0.00033,9e-05,5e-05,5e-05,5,26
22164,5e-05,0.00011,0.00047,0.00096,0.00033,9e-05,5e-05,5e-05,5,26
22165,5e-05,0.00011,0.00047,0.00096,0.00033,9e-05,5e-05,5e-05,5,26
22166,5e-05,0.00011,0.00047,0.00096,0.00033,9e-05,5e-05,5e-05,5,26
22167,5e-05,0.00011,0.00047,0.00096,0.00033,9e-05,5e-05,5e-05,5,26
22168,5e-05,0.00011,0.00047,0.00096,0.00033,9e-05,5e-05,5e-05,5,26
22169,5e-05,0.00011,0.00047,0.00096,0.00033,9e-05,5e-05,5e-05,5,26
22170,5e-05,0.00011,0.00047,0.00096,0.00033,9e-05,5e-05,5e-05,5,26
22171,3e-05,0.00018,0.00024,0.00044,0.0002,4e-05,-7e-05,-1e-05,5,26
22172,4e-05,2e-05,0,0.00027,0.00066,6e-05,0.00018,7e-05,5,26
22173,4e-05,2e-05,0,0.00027,0.00066,6e-05,0.00018,7e-05,5,26
22174,4e-05,2e-05,0,0.00027,0.00066,6e-05,0.00018,7e-05,5,26
22175,4e-05,2e-05,0,0.00027,0.00066,6e-05,0.00018,7e-05,5,26
22176,4e-05,2e-05,0,0.00027,0.00066,6e-05,0.00018,7e-05,5,26
22177,4e-05,2e-05,0,0.00027,0.00066,6e-05,0.00018,7e-05,5,26
22178,4e-05,2e-05,0,0.00027,0.00066,6e-05,0.00018,7e-05,5,26
22179,4e-05,2e-05,0,0.00027,0.00066,6e-05,0.00018,7e-05,5,26
22180,4e-05,2e-05,0,0.00027,0.00066,6e-05,0.00018,7e-05,5,26
22181,4e-05,2e-05,0,0.00027,0.00066,6e-05,0.00018,7e-05,5,26
22182,4e-05,2e-05,0,0.00027,0.00066,6e-05,0.00018,7e-05,5,26
22183,4e-05,2e-05,0,0.00027,0.00066,6e-05,0.00018,7e-05,5,26
22184,4e-05,2e-05,0,0.00027,0.00066,6e-05,0.00018,7e-05,5,26
22185,-6e-05,0,-5e-05,0.00039,-0.00014,-4e-05,-0.00014,-0.00012,5,26
22186,0.0001,9e-05,7e-05,0.0002,0.00043,0.00019,2e-05,9e-05,5,26
22190,0.0001,9e-05,7e-05,0.0002,0.00043,0.00019,2e-05,9e-05,5,26
22191,0.0001,9e-05,7e-05,0.0002,0.00043,0.00019,2e-05,9e-05,5,26
22192,0.0001,9e-05,7e-05,0.0002,0.00043,0.00019,2e-05,9e-05,5,26
22194,0.0001,9e-05,7e-05,0.0002,0.00043,0.00019,2e-05,9e-05,5,26
22195,0.0001,9e-05,7e-05,0.0002,0.00043,0.00019,2e-05,9e-05,5,26
22196,0.0001,9e-05,7e-05,0.0002,0.00043,0.00019,2e-05,9e-05,5,26
22197,0.0001,9e-05,7e-05,0.0002,0.00043,0.00019,2e-05,9e-05,5,26
22198,0.0001,9e-05,7e-05,0.0002,0.00043,0.00019,2e-05,9e-05,5,26
22199,0.0001,9e-05,7e-05,0.0002,0.00043,0.00019,2e-05,9e-05,5,26
22200,0.0001,9e-05,7e-05,0.0002,0.00043,0.00019,2e-05,9e-05,5,26
22201,0.0001,9e-05,7e-05,0.0002,0.00043,0.00019,2e-05,9e-05,5,26
22203,0.0001,9e-05,7e-05,0.0002,0.00043,0.00019,2e-05,9e-05,5,26
22204,0.0001,9e-05,7e-05,0.0002,0.00043,0.00019,2e-05,9e-05,5,26
22205,0.0001,9e-05,7e-05,0.0002,0.00043,0.00019,2e-05,9e-05,5,26
22206,0.0001,9e-05,7e-05,0.0002,0.00043,0.00019,2e-05,9e-05,5,26
22207,0.0001,9e-05,7e-05,0.0002,0.00043,0.00019,2e-05,9e-05,5,26
22208,7e-05,0.00021,0.00042,6e-05,-0.00014,-8e-05,-7e-05,1e-05,5,26
22209,4e-05,-0.00012,0.0002,0.00015,-0.00027,2e-05,-3e-05,9e-05,5,26
22210,4e-05,-0.00012,0.0002,0.00015,-0.00027,2e-05,-3e-05,9e-05,5,26
22211,4e-05,-0.00012,0.0002,0.00015,-0.00027,2e-05,-3e-05,9e-05,5,26
22212,4e-05,-0.00012,0.0002,0.00015,-0.00027,2e-05,-3e-05,9e-05,5,26
22213,4e-05,-0.00012,0.0002,0.00015,-0.00027,2e-05,-3e-05,9e-05,5,26
22214,4e-05,-0.00012,0.0002,0.00015,-0.00027,2e-05,-3e-05,9e-05,5,26
22215,4e-05,-0.00012,0.0002,0.00015,-0.00027,2e-05,-3e-05,9e-05,5,26
22216,4e-05,-0.00012,0.0002,0.00015,-0.00027,2e-05,-3e-05,9e-05,5,26
22217,4e-05,-0.00012,0.0002,0.00015,-0.00027,2e-05,-3e-05,9e-05,5,26
22218,4e-05,-0.00012,0.0002,0.00015,-0.00027,2e-05,-3e-05,9e-05,5,26
22219,4e-05,-0.00012,0.0002,0.00015,-0.00027,2e-05,-3e-05,9e-05,5,26
22220,4e-05,-0.00012,0.0002,0.00015,-0.00027,2e-05,-3e-05,9e-05,5,26
22221,4e-05,-0.00012,0.0002,0.00015,-0.00027,2e-05,-3e-05,9e-05,5,26
22222,4e-05,-0.00012,0.0002,0.00015,-0.00027,2e-05,-3e-05,9e-05,5,26
22223,4e-05,-0.00012,0.0002,0.00015,-0.00027,2e-05,-3e-05,9e-05,5,26
22224,4e-05,-0.00012,0.0002,0.00015,-0.00027,2e-05,-3e-05,9e-05,5,26
22225,4e-05,-0.00012,0.0002,0.00015,-0.00027,2e-05,-3e-05,9e-05,5,26
22226,4e-05,-0.00012,0.0002,0.00015,-0.00027,2e-05,-3e-05,9e-05,5,26
22227,4e-05,-0.00012,0.0002,0.00015,-0.00027,2e-05,-3e-05,9e-05,5,26
22228,4e-05,-0.00012,0.0002,0.00015,-0.00027,2e-05,-3e-05,9e-05,5,26
22229,4e-05,-0.00012,0.0002,0.00015,-0.00027,2e-05,-3e-05,9e-05,5,26
22230,4e-05,-0.00012,0.0002,0.00015,-0.00027,2e-05,-3e-05,9e-05,5,26
22231,9e-05,0.00023,0.00019,-0.00019,-7e-05,-0.00022,1e-05,-1e-05,5,26
22232,-0.00011,-0.0002,-0.00018,-0.00032,-0.00011,2e-05,5e-05,-8e-05,5,26
22233,-0.00011,-0.0002,-0.00018,-0.00032,-0.00011,2e-05,5e-05,-8e-05,5,26
22234,-0.00011,-0.0002,-0.00018,-0.00032,-0.00011,2e-05,5e-05,-8e-05,5,26
22235,-0.00011,-0.0002,-0.00018,-0.00032,-0.00011,2e-05,5e-05,-8e-05,5,26
22236,-0.00011,-0.0002,-0.00018,-0.00032,-0.00011,2e-05,5e-05,-8e-05,5,26
22239,-0.00011,-0.0002,-0.00018,-0.00032,-0.00011,2e-05,5e-05,-8e-05,5,26
22240,-0.00011,-0.0002,-0.00018,-0.00032,-0.00011,2e-05,5e-05,-8e-05,5,26
22241,-0.00011,-0.0002,-0.00018,-0.00032,-0.00011,2e-05,5e-05,-8e-05,5,26
22242,-0.00011,-0.0002,-0.00018,-0.00032,-0.00011,2e-05,5e-05,-8e-05,5,26
22243,-0.00011,-0.0002,-0.00018,-0.00032,-0.00011,2e-05,5e-05,-8e-05,5,26
22244,-0.00011,-0.0002,-0.00018,-0.00032,-0.00011,2e-05,5e-05,-8e-05,5,26
22245,-0.00011,-0.0002,-0.00018,-0.00032,-0.00011,2e-05,5e-05,-8e-05,5,26
22246,9e-05,-8e-05,-0.00014,-0.00065,-0.00023,-1e-05,5e-05,5e-05,5,26
22247,9e-05,-8e-05,-0.00014,-0.00065,-0.00023,-1e-05,5e-05,5e-05,5,26
22248,9e-05,-8e-05,-0.00014,-0.00065,-0.00023,-1e-05,5e-05,5e-05,5,26
22249,9e-05,-8e-05,-0.00014,-0.00065,-0.00023,-1e-05,5e-05,5e-05,5,26
22250,9e-05,-8e-05,-0.00014,-0.00065,-0.00023,-1e-05,5e-05,5e-05,5,26
22251,9e-05,-8e-05,-0.00014,-0.00065,-0.00023,-1e-05,5e-05,5e-05,5,26
22252,9e-05,-8e-05,-0.00014,-0.00065,-0.00023,-1e-05,5e-05,5e-05,5,26
22253,-8e-05,-9e-05,-0.00052,-0.00054,-0.00033,0,4e-05,-3e-05,5,26
22254,-8e-05,-9e-05,-0.00052,-0.00054,-0.00033,0,4e-05,-3e-05,5,26
22255,-8e-05,-9e-05,-0.00052,-0.00054,-0.00033,0,4e-05,-3e-05,5,26
22256,-8e-05,-9e-05,-0.00052,-0.00054,-0.00033,0,4e-05,-3e-05,5,26
22257,-8e-05,-9e-05,-0.00052,-0.00054,-0.00033,0,4e-05,-3e-05,5,26
22258,-8e-05,-9e-05,-0.00052,-0.00054,-0.00033,0,4e-05,-3e-05,5,26
22259,-8e-05,-9e-05,-0.00052,-0.00054,-0.00033,0,4e-05,-3e-05,5,26
22260,-8e-05,-9e-05,-0.00052,-0.00054,-0.00033,0,4e-05,-3e-05,5,26
22261,-8e-05,-9e-05,-0.00052,-0.00054,-0.00033,0,4e-05,-3e-05,5,26
22262,-8e-05,-9e-05,-0.00052,-0.00054,-0.00033,0,4e-05,-3e-05,5,26
22263,-8e-05,-9e-05,-0.00052,-0.00054,-0.00033,0,4e-05,-3e-05,5,26
22264,-8e-05,-9e-05,-0.00052,-0.00054,-0.00033,0,4e-05,-3e-05,5,26
22265,-8e-05,-9e-05,-0.00052,-0.00054,-0.00033,0,4e-05,-3e-05,5,26
22266,-8e-05,-9e-05,-0.00052,-0.00054,-0.00033,0,4e-05,-3e-05,5,26
22267,-8e-05,-9e-05,-0.00052,-0.00054,-0.00033,0,4e-05,-3e-05,5,26
22268,9e-05,0.00017,0.00022,0.00035,0.00023,-7e-05,-2e-05,-1e-05,5,26
22269,-1e-05,-0.00015,-0.00016,0.00049,0.00029,2e-05,0,0,5,26
22270,-1e-05,-0.00015,-0.00016,0.00049,0.00029,2e-05,0,0,5,26
22271,-1e-05,-0.00015,-0.00016,0.00049,0.00029,2e-05,0,0,5,26
22272,-1e-05,-0.00015,-0.00016,0.00049,0.00029,2e-05,0,0,5,26
22273,-1e-05,-0.00015,-0.00016,0.00049,0.00029,2e-05,0,0,5,26
22274,-1e-05,-0.00015,-0.00016,0.00049,0.00029,2e-05,0,0,5,26
22275,-1e-05,-0.00015,-0.00016,0.00049,0.00029,2e-05,0,0,5,26
22276,-1e-05,-0.00015,-0.00016,0.00049,0.00029,2e-05,0,0,5,26
22277,-1e-05,-0.00015,-0.00016,0.00049,0.00029,2e-05,0,0,5,26
22278,-1e-05,-0.00015,-0.00016,0.00049,0.00029,2e-05,0,0,5,26
22279,-1e-05,-0.00015,-0.00016,0.00049,0.00029,2e-05,0,0,5,26
22280,-1e-05,-0.00015,-0.00016,0.00049,0.00029,2e-05,0,0,5,26
22282,-1e-05,-0.00015,-0.00016,0.00049,0.00029,2e-05,0,0,5,26
22283,-1e-05,-0.00015,-0.00016,0.00049,0.00029,2e-05,0,0,5,26
22284,-1e-05,-0.00015,-0.00016,0.00049,0.00029,2e-05,0,0,5,26
22285,-1e-05,-0.00015,-0.00016,0.00049,0.00029,2e-05,0,0,5,26
22286,-1e-05,-0.00015,-0.00016,0.00049,0.00029,2e-05,0,0,5,26
22288,-1e-05,-0.00015,-0.00016,0.00049,0.00029,2e-05,0,0,5,26
22290,-1e-05,-0.00015,-0.00016,0.00049,0.00029,2e-05,0,0,5,26
22291,-9e-05,-0.00017,-3e-05,0.00033,0.00033,-0.00027,0,-3e-05,5,26
22292,0.00013,0.00031,0.00059,0.00063,0.00034,0.00015,-5e-05,1e-05,5,26
22293,0.00013,0.00031,0.00059,0.00063,0.00034,0.00015,-5e-05,1e-05,5,26
22294,0.00013,0.00031,0.00059,0.00063,0.00034,0.00015,-5e-05,1e-05,5,26
22295,0.00013,0.00031,0.00059,0.00063,0.00034,0.00015,-5e-05,1e-05,5,26
22296,0.00013,0.00031,0.00059,0.00063,0.00034,0.00015,-5e-05,1e-05,5,26
22297,0.00013,0.00031,0.00059,0.00063,0.00034,0.00015,-5e-05,1e-05,5,26
22298,0.00013,0.00031,0.00059,0.00063,0.00034,0.00015,-5e-05,1e-05,5,26
22299,0.00013,0.00031,0.00059,0.00063,0.00034,0.00015,-5e-05,1e-05,5,26
22300,0.00013,0.00031,0.00059,0.00063,0.00034,0.00015,-5e-05,1e-05,5,26
22301,0.00013,0.00031,0.00059,0.00063,0.00034,0.00015,-5e-05,1e-05,5,26
22303,0.00013,0.00031,0.00059,0.00063,0.00034,0.00015,-5e-05,1e-05,5,26
22304,0.00013,0.00031,0.00059,0.00063,0.00034,0.00015,-5e-05,1e-05,5,26
22305,-0.00013,-0.0003,-0.0003,-8e-05,-0.00058,-0.0001,-4e-05,-5e-05,5,26
22306,0,7e-05,0.00029,0.00036,-0.0005,-0.00025,3e-05,-1e-05,5,26
22307,0,7e-05,0.00029,0.00036,-0.0005,-0.00025,3e-05,-1e-05,5,26
22308,0,7e-05,0.00029,0.00036,-0.0005,-0.00025,3e-05,-1e-05,5,26
22309,0,7e-05,0.00029,0.00036,-0.0005,-0.00025,3e-05,-1e-05,5,26
22310,0,7e-05,0.00029,0.00036,-0.0005,-0.00025,3e-05,-1e-05,5,26
22311,0,7e-05,0.00029,0.00036,-0.0005,-0.00025,3e-05,-1e-05,5,26
22312,0,7e-05,0.00029,0.00036,-0.0005,-0.00025,3e-05,-1e-05,5,26
22313,0,7e-05,0.00029,0.00036,-0.0005,-0.00025,3e-05,-1e-05,5,26
22314,0,7e-05,0.00029,0.00036,-0.0005,-0.00025,3e-05,-1e-05,5,26
22315,0,7e-05,0.00029,0.00036,-0.0005,-0.00025,3e-05,-1e-05,5,26
22316,0,7e-05,0.00029,0.00036,-0.0005,-0.00025,3e-05,-1e-05,5,26
22317,0,7e-05,0.00029,0.00036,-0.0005,-0.00025,3e-05,-1e-05,5,26
22318,0,7e-05,0.00029,0.00036,-0.0005,-0.00025,3e-05,-1e-05,5,26
22319,0,7e-05,0.00029,0.00036,-0.0005,-0.00025,3e-05,-1e-05,5,26
22320,0,7e-05,0.00029,0.00036,-0.0005,-0.00025,3e-05,-1e-05,5,26
22321,0,7e-05,0.00029,0.00036,-0.0005,-0.00025,3e-05,-1e-05,5,26
22322,0,7e-05,0.00029,0.00036,-0.0005,-0.00025,3e-05,-1e-05,5,26
22324,0,7e-05,0.00029,0.00036,-0.0005,-0.00025,3e-05,-1e-05,5,26
22325,0,7e-05,0.00029,0.00036,-0.0005,-0.00025,3e-05,-1e-05,5,26
22326,0,7e-05,0.00029,0.00036,-0.0005,-0.00025,3e-05,-1e-05,5,26
22327,0,7e-05,0.00029,0.00036,-0.0005,-0.00025,3e-05,-1e-05,5,26
22328,0,7e-05,0.00029,0.00036,-0.0005,-0.00025,3e-05,-1e-05,5,26
22329,-4e-05,-5e-05,0.00022,-2e-05,-7e-05,-2e-05,-6e-05,-6e-05,5,26
22330,-4e-05,-5e-05,0.00022,-2e-05,-7e-05,-2e-05,-6e-05,-6e-05,5,26
22331,-4e-05,-5e-05,0.00022,-2e-05,-7e-05,-2e-05,-6e-05,-6e-05,5,26
22332,-4e-05,-5e-05,0.00022,-2e-05,-7e-05,-2e-05,-6e-05,-6e-05,5,26
22333,-4e-05,-5e-05,0.00022,-2e-05,-7e-05,-2e-05,-6e-05,-6e-05,5,26
22334,-4e-05,-5e-05,0.00022,-2e-05,-7e-05,-2e-05,-6e-05,-6e-05,5,26
22335,-4e-05,-5e-05,0.00022,-2e-05,-7e-05,-2e-05,-6e-05,-6e-05,5,26
22336,-4e-05,-5e-05,0.00022,-2e-05,-7e-05,-2e-05,-6e-05,-6e-05,5,26
22338,-4e-05,-5e-05,0.00022,-2e-05,-7e-05,-2e-05,-6e-05,-6e-05,5,26
22339,-4e-05,-5e-05,0.00022,-2e-05,-7e-05,-2e-05,-6e-05,-6e-05,5,26
22340,-4e-05,-5e-05,0.00022,-2e-05,-7e-05,-2e-05,-6e-05,-6e-05,5,26
22341,-4e-05,-5e-05,0.00022,-2e-05,-7e-05,-2e-05,-6e-05,-6e-05,5,26
22342,-4e-05,-5e-05,0.00022,-2e-05,-7e-05,-2e-05,-6e-05,-6e-05,5,26
22343,-4e-05,-5e-05,0.00022,-2e-05,-7e-05,-2e-05,-6e-05,-6e-05,5,26
22344,-4e-05,-5e-05,0.00022,-2e-05,-7e-05,-2e-05,-6e-05,-6e-05,5,26
22345,-4e-05,-5e-05,0.00022,-2e-05,-7e-05,-2e-05,-6e-05,-6e-05,5,26
22346,-4e-05,-5e-05,0.00022,-2e-05,-7e-05,-2e-05,-6e-05,-6e-05,5,26
22347,-4e-05,-5e-05,0.00022,-2e-05,-7e-05,-2e-05,-6e-05,-6e-05,5,26
22348,-4e-05,-5e-05,0.00022,-2e-05,-7e-05,-2e-05,-6e-05,-6e-05,5,26
22349,-4e-05,-5e-05,0.00022,-2e-05,-7e-05,-2e-05,-6e-05,-6e-05,5,26
22350,-4e-05,-5e-05,0.00022,-2e-05,-7e-05,-2e-05,-6e-05,-6e-05,5,26
22351,-4e-05,-5e-05,0.00022,-2e-05,-7e-05,-2e-05,-6e-05,-6e-05,5,26
22352,9e-05,0.00015,-6e-05,-0.00051,-8e-05,4e-05,5e-05,5e-05,5,26
22353,9e-05,0.00015,-6e-05,-0.00051,-8e-05,4e-05,5e-05,5e-05,5,26
22354,9e-05,0.00015,-6e-05,-0.00051,-8e-05,4e-05,5e-05,5e-05,5,26
22355,9e-05,0.00015,-6e-05,-0.00051,-8e-05,4e-05,5e-05,5e-05,5,26
22356,9e-05,0.00015,-6e-05,-0.00051,-8e-05,4e-05,5e-05,5e-05,5,26
22357,9e-05,0.00015,-6e-05,-0.00051,-8e-05,4e-05,5e-05,5e-05,5,26
22358,9e-05,0.00015,-6e-05,-0.00051,-8e-05,4e-05,5e-05,5e-05,5,26
22359,9e-05,0.00015,-6e-05,-0.00051,-8e-05,4e-05,5e-05,5e-05,5,26
22360,9e-05,0.00015,-6e-05,-0.00051,-8e-05,4e-05,5e-05,5e-05,5,26
22361,9e-05,0.00015,-6e-05,-0.00051,-8e-05,4e-05,5e-05,5e-05,5,26
22362,9e-05,0.00015,-6e-05,-0.00051,-8e-05,4e-05,5e-05,5e-05,5,26
22363,9e-05,0.00015,-6e-05,-0.00051,-8e-05,4e-05,5e-05,5e-05,5,26
22364,9e-05,0.00015,-6e-05,-0.00051,-8e-05,4e-05,5e-05,5e-05,5,26
22365,8e-05,0.00028,3e-05,0.00013,0.00047,3e-05,2e-05,2e-05,5,26
22366,-0.0001,-0.00026,-0.00054,-0.00023,3e-05,-5e-05,-6e-05,-8e-05,5,26
22367,-0.0001,-0.00026,-0.00054,-0.00023,3e-05,-5e-05,-6e-05,-8e-05,5,26
22368,-0.0001,-0.00026,-0.00054,-0.00023,3e-05,-5e-05,-6e-05,-8e-05,5,26
22369,-0.0001,-0.00026,-0.00054,-0.00023,3e-05,-5e-05,-6e-05,-8e-05,5,26
22370,-0.0001,-0.00026,-0.00054,-0.00023,3e-05,-5e-05,-6e-05,-8e-05,5,26
22371,-0.0001,-0.00026,-0.00054,-0.00023,3e-05,-5e-05,-6e-05,-8e-05,5,26
22372,-0.0001,-0.00026,-0.00054,-0.00023,3e-05,-5e-05,-6e-05,-8e-05,5,26
22373,-0.0001,-0.00026,-0.00054,-0.00023,3e-05,-5e-05,-6e-05,-8e-05,5,26
22374,-0.0001,-0.00026,-0.00054,-0.00023,3e-05,-5e-05,-6e-05,-8e-05,5,26
22375,-0.0001,-0.00026,-0.00054,-0.00023,3e-05,-5e-05,-6e-05,-8e-05,5,26
22376,-0.0001,-0.00026,-0.00054,-0.00023,3e-05,-5e-05,-6e-05,-8e-05,5,26
22377,-0.0001,-0.00026,-0.00054,-0.00023,3e-05,-5e-05,-6e-05,-8e-05,5,26
22378,-0.0001,-0.00026,-0.00054,-0.00023,3e-05,-5e-05,-6e-05,-8e-05,5,26
22379,-0.0001,-0.00026,-0.00054,-0.00023,3e-05,-5e-05,-6e-05,-8e-05,5,26
22380,-0.0001,-0.00026,-0.00054,-0.00023,3e-05,-5e-05,-6e-05,-8e-05,5,26
22381,-0.0001,-0.00026,-0.00054,-0.00023,3e-05,-5e-05,-6e-05,-8e-05,5,26
22383,-0.0001,-0.00026,-0.00054,-0.00023,3e-05,-5e-05,-6e-05,-8e-05,5,26
22384,-0.0001,-0.00026,-0.00054,-0.00023,3e-05,-5e-05,-6e-05,-8e-05,5,26
22385,-0.0001,-0.00026,-0.00054,-0.00023,3e-05,-5e-05,-6e-05,-8e-05,5,26
22386,-0.0001,-0.00026,-0.00054,-0.00023,3e-05,-5e-05,-6e-05,-8e-05,5,26
22389,2e-05,8e-05,8e-05,-7e-05,1e-05,-5e-05,-0.00011,-5e-05,5,26
22390,2e-05,8e-05,8e-05,-7e-05,1e-05,-5e-05,-0.00011,-5e-05,5,26
22391,2e-05,8e-05,8e-05,-7e-05,1e-05,-5e-05,-0.00011,-5e-05,5,26
22392,2e-05,8e-05,8e-05,-7e-05,1e-05,-5e-05,-0.00011,-5e-05,5,26
22393,2e-05,8e-05,8e-05,-7e-05,1e-05,-5e-05,-0.00011,-5e-05,5,26
22394,2e-05,8e-05,8e-05,-7e-05,1e-05,-5e-05,-0.00011,-5e-05,5,26
22395,2e-05,8e-05,8e-05,-7e-05,1e-05,-5e-05,-0.00011,-5e-05,5,26
22396,2e-05,8e-05,8e-05,-7e-05,1e-05,-5e-05,-0.00011,-5e-05,5,26
22397,2e-05,8e-05,8e-05,-7e-05,1e-05,-5e-05,-0.00011,-5e-05,5,26
22398,2e-05,8e-05,8e-05,-7e-05,1e-05,-5e-05,-0.00011,-5e-05,5,26
22399,2e-05,8e-05,8e-05,-7e-05,1e-05,-5e-05,-0.00011,-5e-05,5,26
22400,2e-05,8e-05,8e-05,-7e-05,1e-05,-5e-05,-0.00011,-5e-05,5,26
22401,2e-05,8e-05,8e-05,-7e-05,1e-05,-5e-05,-0.00011,-5e-05,5,26
22402,2e-05,8e-05,8e-05,-7e-05,1e-05,-5e-05,-0.00011,-5e-05,5,26
22403,2e-05,8e-05,8e-05,-7e-05,1e-05,-5e-05,-0.00011,-5e-05,5,26
22404,2e-05,8e-05,8e-05,-7e-05,1e-05,-5e-05,-0.00011,-5e-05,5,26
22405,2e-05,8e-05,8e-05,-7e-05,1e-05,-5e-05,-0.00011,-5e-05,5,26
22406,2e-05,8e-05,8e-05,-7e-05,1e-05,-5e-05,-0.00011,-5e-05,5,26
22407,2e-05,8e-05,8e-05,-7e-05,1e-05,-5e-05,-0.00011,-5e-05,5,26
22408,2e-05,8e-05,8e-05,-7e-05,1e-05,-5e-05,-0.00011,-5e-05,5,26
22409,2e-05,8e-05,8e-05,-7e-05,1e-05,-5e-05,-0.00011,-5e-05,5,26
22410,2e-05,8e-05,8e-05,-7e-05,1e-05,-5e-05,-0.00011,-5e-05,5,26
22411,-8e-05,-0.00011,6e-05,0.00015,-8e-05,5e-05,-3e-05,-3e-05,5,26
22412,-4e-05,1e-05,0.00024,0.00014,0.00047,0.00014,0.00014,2e-05,5,26
22413,-9e-05,-0.0002,-0.00056,-0.00025,-7e-05,-1e-05,5e-05,-3e-05,5,26
22414,-9e-05,-0.0002,-0.00056,-0.00025,-7e-05,-1e-05,5e-05,-3e-05,5,26
22415,-9e-05,-0.0002,-0.00056,-0.00025,-7e-05,-1e-05,5e-05,-3e-05,5,26
22416,-9e-05,-0.0002,-0.00056,-0.00025,-7e-05,-1e-05,5e-05,-3e-05,5,26
22417,-9e-05,-0.0002,-0.00056,-0.00025,-7e-05,-1e-05,5e-05,-3e-05,5,26
22418,-9e-05,-0.0002,-0.00056,-0.00025,-7e-05,-1e-05,5e-05,-3e-05,5,26
22419,-9e-05,-0.0002,-0.00056,-0.00025,-7e-05,-1e-05,5e-05,-3e-05,5,26
22420,-9e-05,-0.0002,-0.00056,-0.00025,-7e-05,-1e-05,5e-05,-3e-05,5,26
22421,-9e-05,-0.0002,-0.00056,-0.00025,-7e-05,-1e-05,5e-05,-3e-05,5,26
22422,-9e-05,-0.0002,-0.00056,-0.00025,-7e-05,-1e-05,5e-05,-3e-05,5,26
22423,-9e-05,-0.0002,-0.00056,-0.00025,-7e-05,-1e-05,5e-05,-3e-05,5,26
22424,-9e-05,-0.0002,-0.00056,-0.00025,-7e-05,-1e-05,5e-05,-3e-05,5,26
22425,-9e-05,-0.0002,-0.00056,-0.00025,-7e-05,-1e-05,5e-05,-3e-05,5,26
22426,-6e-05,-7e-05,-3e-05,8e-05,0.00048,5e-05,-6e-05,-4e-05,5,26
22427,-6e-05,-7e-05,-3e-05,8e-05,0.00048,5e-05,-6e-05,-4e-05,5,26
22428,-6e-05,-7e-05,-3e-05,8e-05,0.00048,5e-05,-6e-05,-4e-05,5,26
22429,-6e-05,-7e-05,-3e-05,8e-05,0.00048,5e-05,-6e-05,-4e-05,5,26
22430,-6e-05,-7e-05,-3e-05,8e-05,0.00048,5e-05,-6e-05,-4e-05,5,26
22431,-6e-05,-7e-05,-3e-05,8e-05,0.00048,5e-05,-6e-05,-4e-05,5,26
22432,-6e-05,-7e-05,-3e-05,8e-05,0.00048,5e-05,-6e-05,-4e-05,5,26
22433,-6e-05,-7e-05,-3e-05,8e-05,0.00048,5e-05,-6e-05,-4e-05,5,26
22434,-6e-05,-7e-05,-3e-05,8e-05,0.00048,5e-05,-6e-05,-4e-05,5,26
22435,-6e-05,-7e-05,-3e-05,8e-05,0.00048,5e-05,-6e-05,-4e-05,5,26
22436,-6e-05,-7e-05,-3e-05,8e-05,0.00048,5e-05,-6e-05,-4e-05,5,26
22438,-6e-05,-7e-05,-3e-05,8e-05,0.00048,5e-05,-6e-05,-4e-05,5,26
22439,-6e-05,-7e-05,-3e-05,8e-05,0.00048,5e-05,-6e-05,-4e-05,5,26
22440,-6e-05,-7e-05,-3e-05,8e-05,0.00048,5e-05,-6e-05,-4e-05,5,26
22441,-6e-05,-7e-05,-3e-05,8e-05,0.00048,5e-05,-6e-05,-4e-05,5,26
22442,-6e-05,-7e-05,-3e-05,8e-05,0.00048,5e-05,-6e-05,-4e-05,5,26
22443,-6e-05,-7e-05,-3e-05,8e-05,0.00048,5e-05,-6e-05,-4e-05,5,26
22444,-6e-05,-7e-05,-3e-05,8e-05,0.00048,5e-05,-6e-05,-4e-05,5,26
22445,-6e-05,-7e-05,-3e-05,8e-05,0.00048,5e-05,-6e-05,-4e-05,5,26
22446,-6e-05,-7e-05,-3e-05,8e-05,0.00048,5e-05,-6e-05,-4e-05,5,26
22447,-6e-05,-7e-05,-3e-05,8e-05,0.00048,5e-05,-6e-05,-4e-05,5,26
22448,-1e-05,1e-05,-0.00047,-0.00015,-0.00011,-5e-05,0,-1e-05,5,26
22449,-4e-05,-7e-05,-0.0002,-0.00019,0.00015,0.00023,-6e-05,-3e-05,5,26
22450,0.00015,0.00031,0.00016,0.00055,0.0004,-0.00011,5e-05,3e-05,5,26
22451,0.00015,0.00031,0.00016,0.00055,0.0004,-0.00011,5e-05,3e-05,5,26
22453,0.00015,0.00031,0.00016,0.00055,0.0004,-0.00011,5e-05,3e-05,5,26
22454,0.00015,0.00031,0.00016,0.00055,0.0004,-0.00011,5e-05,3e-05,5,26
22455,0.00015,0.00031,0.00016,0.00055,0.0004,-0.00011,5e-05,3e-05,5,26
22456,0.00015,0.00031,0.00016,0.00055,0.0004,-0.00011,5e-05,3e-05,5,26
22457,0.00015,0.00031,0.00016,0.00055,0.0004,-0.00011,5e-05,3e-05,5,26
22458,0.00015,0.00031,0.00016,0.00055,0.0004,-0.00011,5e-05,3e-05,5,26
22459,0.00015,0.00031,0.00016,0.00055,0.0004,-0.00011,5e-05,3e-05,5,26
22460,0.00015,0.00031,0.00016,0.00055,0.0004,-0.00011,5e-05,3e-05,5,26
22461,0.00015,0.00031,0.00016,0.00055,0.0004,-0.00011,5e-05,3e-05,5,26
22462,0.00015,0.00031,0.00016,0.00055,0.0004,-0.00011,5e-05,3e-05,5,26
22463,0.00015,0.00031,0.00016,0.00055,0.0004,-0.00011,5e-05,3e-05,5,26
22464,0.00015,0.00031,0.00016,0.00055,0.0004,-0.00011,5e-05,3e-05,5,26
22465,0.00015,0.00031,0.00016,0.00055,0.0004,-0.00011,5e-05,3e-05,5,26
22466,0.00015,0.00031,0.00016,0.00055,0.0004,-0.00011,5e-05,3e-05,5,26
22467,0.00015,0.00031,0.00016,0.00055,0.0004,-0.00011,5e-05,3e-05,5,26
22468,0.00015,0.00031,0.00016,0.00055,0.0004,-0.00011,5e-05,3e-05,5,26
22469,0.00015,0.00031,0.00016,0.00055,0.0004,-0.00011,5e-05,3e-05,5,26
22470,0.00015,0.00031,0.00016,0.00055,0.0004,-0.00011,5e-05,3e-05,5,26
22471,1e-05,0.00015,-0.00013,-0.00015,0.00039,0.0001,-2e-05,0,5,26
22472,6e-05,9e-05,0.00033,-6e-05,-0.00034,5e-05,9e-05,5e-05,5,26
22473,6e-05,9e-05,0.00033,-6e-05,-0.00034,5e-05,9e-05,5e-05,5,26
22474,6e-05,9e-05,0.00033,-6e-05,-0.00034,5e-05,9e-05,5e-05,5,26
22475,6e-05,9e-05,0.00033,-6e-05,-0.00034,5e-05,9e-05,5e-05,5,26
22476,6e-05,9e-05,0.00033,-6e-05,-0.00034,5e-05,9e-05,5e-05,5,26
22477,6e-05,9e-05,0.00033,-6e-05,-0.00034,5e-05,9e-05,5e-05,5,26
22478,6e-05,9e-05,0.00033,-6e-05,-0.00034,5e-05,9e-05,5e-05,5,26
22479,6e-05,9e-05,0.00033,-6e-05,-0.00034,5e-05,9e-05,5e-05,5,26
22480,6e-05,9e-05,0.00033,-6e-05,-0.00034,5e-05,9e-05,5e-05,5,26
22481,6e-05,9e-05,0.00033,-6e-05,-0.00034,5e-05,9e-05,5e-05,5,26
22483,6e-05,9e-05,0.00033,-6e-05,-0.00034,5e-05,9e-05,5e-05,5,26
22484,-2e-05,-0.00018,-0.00019,-0.0003,-0.00031,9e-05,4e-05,7e-05,5,26
22485,-2e-05,-0.00018,-0.00019,-0.0003,-0.00031,9e-05,4e-05,7e-05,5,26
22487,-2e-05,-0.00018,-0.00019,-0.0003,-0.00031,9e-05,4e-05,7e-05,5,26
22489,-2e-05,-0.00018,-0.00019,-0.0003,-0.00031,9e-05,4e-05,7e-05,5,26
22490,-2e-05,-0.00018,-0.00019,-0.0003,-0.00031,9e-05,4e-05,7e-05,5,26
22491,-2e-05,-0.00018,-0.00019,-0.0003,-0.00031,9e-05,4e-05,7e-05,5,26
22493,-2e-05,-0.00018,-0.00019,-0.0003,-0.00031,9e-05,4e-05,7e-05,5,26
22494,-2e-05,-0.00018,-0.00019,-0.0003,-0.00031,9e-05,4e-05,7e-05,5,26
22495,-2e-05,-0.00018,-0.00019,-0.0003,-0.00031,9e-05,4e-05,7e-05,5,26
22496,-2e-05,-0.00018,-0.00019,-0.0003,-0.00031,9e-05,4e-05,7e-05,5,26
22497,-2e-05,-0.00018,-0.00019,-0.0003,-0.00031,9e-05,4e-05,7e-05,5,26
22498,-2e-05,-0.00018,-0.00019,-0.0003,-0.00031,9e-05,4e-05,7e-05,5,26
22499,-2e-05,-0.00018,-0.00019,-0.0003,-0.00031,9e-05,4e-05,7e-05,5,26
22500,-2e-05,-0.00018,-0.00019,-0.0003,-0.00031,9e-05,4e-05,7e-05,5,26
22501,-2e-05,-8e-05,-0.00016,1e-05,0.00028,0.00016,3e-05,-2e-05,5,26
22502,-2e-05,-8e-05,-0.00016,1e-05,0.00028,0.00016,3e-05,-2e-05,5,26
22503,-2e-05,-8e-05,-0.00016,1e-05,0.00028,0.00016,3e-05,-2e-05,5,26
22504,-2e-05,-8e-05,-0.00016,1e-05,0.00028,0.00016,3e-05,-2e-05,5,26
22505,-2e-05,-8e-05,-0.00016,1e-05,0.00028,0.00016,3e-05,-2e-05,5,26
22506,-2e-05,-8e-05,-0.00016,1e-05,0.00028,0.00016,3e-05,-2e-05,5,26
22507,-2e-05,-8e-05,-0.00016,1e-05,0.00028,0.00016,3e-05,-2e-05,5,26
22508,-2e-05,-8e-05,-0.00016,1e-05,0.00028,0.00016,3e-05,-2e-05,5,26
22509,-2e-05,-8e-05,-0.00016,1e-05,0.00028,0.00016,3e-05,-2e-05,5,26
22510,-2e-05,-8e-05,-0.00016,1e-05,0.00028,0.00016,3e-05,-2e-05,5,26
22511,-2e-05,-8e-05,-0.00016,1e-05,0.00028,0.00016,3e-05,-2e-05,5,26
22512,-2e-05,-8e-05,-0.00016,1e-05,0.00028,0.00016,3e-05,-2e-05,5,26
22513,-2e-05,-8e-05,-0.00016,1e-05,0.00028,0.00016,3e-05,-2e-05,5,26
22514,-2e-05,-8e-05,-0.00016,1e-05,0.00028,0.00016,3e-05,-2e-05,5,26
22515,-2e-05,-8e-05,-0.00016,1e-05,0.00028,0.00016,3e-05,-2e-05,5,26
22516,3e-05,0.00016,0.0002,-0.0002,-0.00011,0.00013,-5e-05,0,5,26
22517,3e-05,0.00016,0.0002,-0.0002,-0.00011,0.00013,-5e-05,0,5,26
22518,3e-05,0.00016,0.0002,-0.0002,-0.00011,0.00013,-5e-05,0,5,26
22519,3e-05,0.00016,0.0002,-0.0002,-0.00011,0.00013,-5e-05,0,5,26
22520,3e-05,0.00016,0.0002,-0.0002,-0.00011,0.00013,-5e-05,0,5,26
22521,3e-05,0.00016,0.0002,-0.0002,-0.00011,0.00013,-5e-05,0,5,26
22522,3e-05,0.00016,0.0002,-0.0002,-0.00011,0.00013,-5e-05,0,5,26
22523,-2e-05,-7e-05,0.00017,0.00052,-0.00023,-0.0001,-2e-05,-1e-05,5,26
22524,-0.0001,-0.00029,-0.00061,-0.0006,-4e-05,-0.00018,-0.00014,-7e-05,5,26
22525,-0.0001,-0.00029,-0.00061,-0.0006,-4e-05,-0.00018,-0.00014,-7e-05,5,26
22526,-0.0001,-0.00029,-0.00061,-0.0006,-4e-05,-0.00018,-0.00014,-7e-05,5,26
22527,-0.0001,-0.00029,-0.00061,-0.0006,-4e-05,-0.00018,-0.00014,-7e-05,5,26
22528,-0.0001,-0.00029,-0.00061,-0.0006,-4e-05,-0.00018,-0.00014,-7e-05,5,26
22529,-0.0001,-0.00029,-0.00061,-0.0006,-4e-05,-0.00018,-0.00014,-7e-05,5,26
22530,-0.0001,-0.00029,-0.00061,-0.0006,-4e-05,-0.00018,-0.00014,-7e-05,5,26
22531,7e-05,-2e-05,-6e-05,-7e-05,-0.00013,-5e-05,4e-05,1e-05,5,26
22532,7e-05,-2e-05,-6e-05,-7e-05,-0.00013,-5e-05,4e-05,1e-05,5,26
22533,-1e-05,-7e-05,5e-05,-0.00031,-0.0004,-0.00034,7e-05,2e-05,5,26
22534,-1e-05,-7e-05,5e-05,-0.00031,-0.0004,-0.00034,7e-05,2e-05,5,26
22535,-1e-05,-7e-05,5e-05,-0.00031,-0.0004,-0.00034,7e-05,2e-05,5,26
22537,-1e-05,-7e-05,5e-05,-0.00031,-0.0004,-0.00034,7e-05,2e-05,5,26
22539,-1e-05,-7e-05,5e-05,-0.00031,-0.0004,-0.00034,7e-05,2e-05,5,26
22540,-1e-05,-7e-05,5e-05,-0.00031,-0.0004,-0.00034,7e-05,2e-05,5,26
22541,-1e-05,-7e-05,5e-05,-0.00031,-0.0004,-0.00034,7e-05,2e-05,5,26
22542,-1e-05,-7e-05,5e-05,-0.00031,-0.0004,-0.00034,7e-05,2e-05,5,26
22543,-1e-05,-7e-05,5e-05,-0.00031,-0.0004,-0.00034,7e-05,2e-05,5,26
22544,-1e-05,-7e-05,5e-05,-0.00031,-0.0004,-0.00034,7e-05,2e-05,5,26
22545,4e-05,9e-05,-8e-05,0.00027,0.00038,9e-05,0,-2e-05,5,26
22546,4e-05,9e-05,-8e-05,0.00027,0.00038,9e-05,0,-2e-05,5,26
22547,4e-05,9e-05,-8e-05,0.00027,0.00038,9e-05,0,-2e-05,5,26
22548,4e-05,9e-05,-8e-05,0.00027,0.00038,9e-05,0,-2e-05,5,26
22549,4e-05,9e-05,-8e-05,0.00027,0.00038,9e-05,0,-2e-05,5,26
22550,4e-05,9e-05,-8e-05,0.00027,0.00038,9e-05,0,-2e-05,5,26
22551,4e-05,9e-05,-8e-05,0.00027,0.00038,9e-05,0,-2e-05,5,26
22552,4e-05,9e-05,-8e-05,0.00027,0.00038,9e-05,0,-2e-05,5,26
22553,-4e-05,-0.00012,-7e-05,3e-05,5e-05,-0.00019,1e-05,0,5,26
22554,1e-05,0.00011,0.00013,5e-05,4e-05,7e-05,-4e-05,1e-05,5,26
22555,1e-05,0.00011,0.00013,5e-05,4e-05,7e-05,-4e-05,1e-05,5,26
22556,1e-05,0.00011,0.00013,5e-05,4e-05,7e-05,-4e-05,1e-05,5,26
22557,1e-05,0.00011,0.00013,5e-05,4e-05,7e-05,-4e-05,1e-05,5,26
22558,1e-05,0.00011,0.00013,5e-05,4e-05,7e-05,-4e-05,1e-05,5,26
22559,1e-05,0.00011,0.00013,5e-05,4e-05,7e-05,-4e-05,1e-05,5,26
22560,1e-05,0.00011,0.00013,5e-05,4e-05,7e-05,-4e-05,1e-05,5,26
22561,1e-05,0.00011,0.00013,5e-05,4e-05,7e-05,-4e-05,1e-05,5,26
22563,1e-05,0.00011,0.00013,5e-05,4e-05,7e-05,-4e-05,1e-05,5,26
22564,1e-05,0.00011,0.00013,5e-05,4e-05,7e-05,-4e-05,1e-05,5,26
22565,1e-05,0.00011,0.00013,5e-05,4e-05,7e-05,-4e-05,1e-05,5,26
22566,1e-05,0.00011,0.00013,5e-05,4e-05,7e-05,-4e-05,1e-05,5,26
22567,1e-05,0.00011,0.00013,5e-05,4e-05,7e-05,-4e-05,1e-05,5,26
22568,-1e-05,0.00013,0.00042,0.00016,0.00031,7e-05,-1e-05,4e-05,5,26
22569,-1e-05,0.00013,0.00042,0.00016,0.00031,7e-05,-1e-05,4e-05,5,26
22570,0,6e-05,0.00015,9e-05,9e-05,4e-05,-3e-05,1e-05,5,26
22571,0,6e-05,0.00015,9e-05,9e-05,4e-05,-3e-05,1e-05,5,26
22572,0,6e-05,0.00015,9e-05,9e-05,4e-05,-3e-05,1e-05,5,26
22573,0,6e-05,0.00015,9e-05,9e-05,4e-05,-3e-05,1e-05,5,26
22574,0,6e-05,0.00015,9e-05,9e-05,4e-05,-3e-05,1e-05,5,26
22575,0,6e-05,0.00015,9e-05,9e-05,4e-05,-3e-05,1e-05,5,26
22576,0,6e-05,0.00015,9e-05,9e-05,4e-05,-3e-05,1e-05,5,26
22577,0,6e-05,0.00015,9e-05,9e-05,4e-05,-3e-05,1e-05,5,26
22578,0,6e-05,0.00015,9e-05,9e-05,4e-05,-3e-05,1e-05,5,26
22579,0,6e-05,0.00015,9e-05,9e-05,4e-05,-3e-05,1e-05,5,26
22580,0,6e-05,0.00015,9e-05,9e-05,4e-05,-3e-05,1e-05,5,26
22581,0,6e-05,0.00015,9e-05,9e-05,4e-05,-3e-05,1e-05,5,26
22582,0,6e-05,0.00015,9e-05,9e-05,4e-05,-3e-05,1e-05,5,26
22583,0,6e-05,0.00015,9e-05,9e-05,4e-05,-3e-05,1e-05,5,26
22584,0,6e-05,0.00015,9e-05,9e-05,4e-05,-3e-05,1e-05,5,26
22585,0,6e-05,0.00015,9e-05,9e-05,4e-05,-3e-05,1e-05,5,26
22587,0,6e-05,0.00015,9e-05,9e-05,4e-05,-3e-05,1e-05,5,26
22589,0,6e-05,0.00015,9e-05,9e-05,4e-05,-3e-05,1e-05,5,26
22590,0,6e-05,0.00015,9e-05,9e-05,4e-05,-3e-05,1e-05,5,26
22591,-0.00013,-9e-05,-0.00053,-0.00027,1e-05,8e-05,2e-05,-2e-05,5,26
22592,-0.00013,-9e-05,-0.00053,-0.00027,1e-05,8e-05,2e-05,-2e-05,5,26
22593,-4e-05,-0.0001,-0.00021,-0.0003,-0.00016,8e-05,-0.00013,-3e-05,5,26
22594,-4e-05,-0.0001,-0.00021,-0.0003,-0.00016,8e-05,-0.00013,-3e-05,5,26
22595,-4e-05,-0.0001,-0.00021,-0.0003,-0.00016,8e-05,-0.00013,-3e-05,5,26
22596,-4e-05,-0.0001,-0.00021,-0.0003,-0.00016,8e-05,-0.00013,-3e-05,5,26
22597,-4e-05,-0.0001,-0.00021,-0.0003,-0.00016,8e-05,-0.00013,-3e-05,5,26
22598,-4e-05,-0.0001,-0.00021,-0.0003,-0.00016,8e-05,-0.00013,-3e-05,5,26
22599,-4e-05,-0.0001,-0.00021,-0.0003,-0.00016,8e-05,-0.00013,-3e-05,5,26
22600,-4e-05,-0.0001,-0.00021,-0.0003,-0.00016,8e-05,-0.00013,-3e-05,5,26
22601,-4e-05,-0.0001,-0.00021,-0.0003,-0.00016,8e-05,-0.00013,-3e-05,5,26
22602,-4e-05,-0.0001,-0.00021,-0.0003,-0.00016,8e-05,-0.00013,-3e-05,5,26
22603,-4e-05,-0.0001,-0.00021,-0.0003,-0.00016,8e-05,-0.00013,-3e-05,5,26
22604,-4e-05,-0.0001,-0.00021,-0.0003,-0.00016,8e-05,-0.00013,-3e-05,5,26
22605,0,0,0.00028,-0.00062,-0.00049,0.00018,-1e-05,0,5,26
22606,0,0,0.00028,-0.00062,-0.00049,0.00018,-1e-05,0,5,26
22607,0,0,0.00028,-0.00062,-0.00049,0.00018,-1e-05,0,5,26
22608,0,0,0.00028,-0.00062,-0.00049,0.00018,-1e-05,0,5,26
22609,0,0,0.00028,-0.00062,-0.00049,0.00018,-1e-05,0,5,26
22610,0,0,0.00028,-0.00062,-0.00049,0.00018,-1e-05,0,5,26
22611,0,0,0.00028,-0.00062,-0.00049,0.00018,-1e-05,0,5,26
22612,0,0,0.00028,-0.00062,-0.00049,0.00018,-1e-05,0,5,26
22613,-7e-05,-0.0001,-0.00015,-0.00041,-0.00056,-0.00029,-4e-05,-6e-05,5,26
22614,-1e-05,8e-05,5e-05,0.00015,0.00018,0,-6e-05,-5e-05,5,26
22615,-1e-05,8e-05,5e-05,0.00015,0.00018,0,-6e-05,-5e-05,5,26
22616,-1e-05,8e-05,5e-05,0.00015,0.00018,0,-6e-05,-5e-05,5,26
22617,-1e-05,8e-05,5e-05,0.00015,0.00018,0,-6e-05,-5e-05,5,26
22618,-1e-05,8e-05,5e-05,0.00015,0.00018,0,-6e-05,-5e-05,5,26
22619,-1e-05,8e-05,5e-05,0.00015,0.00018,0,-6e-05,-5e-05,5,26
22620,-1e-05,8e-05,5e-05,0.00015,0.00018,0,-6e-05,-5e-05,5,26
22621,-1e-05,8e-05,5e-05,0.00015,0.00018,0,-6e-05,-5e-05,5,26
22623,-1e-05,8e-05,5e-05,0.00015,0.00018,0,-6e-05,-5e-05,5,26
22624,-1e-05,8e-05,5e-05,0.00015,0.00018,0,-6e-05,-5e-05,5,26
22625,-1e-05,8e-05,5e-05,0.00015,0.00018,0,-6e-05,-5e-05,5,26
22626,-1e-05,8e-05,5e-05,0.00015,0.00018,0,-6e-05,-5e-05,5,26
22627,-1e-05,8e-05,5e-05,0.00015,0.00018,0,-6e-05,-5e-05,5,26
22628,3e-05,0.00033,0.00047,0.00038,0.00042,0.00016,0.00012,4e-05,5,26
22629,-0.00013,-0.00023,-3e-05,-0.00016,-0.00028,-0.00015,-7e-05,-4e-05,5,26
22630,-1e-05,0.00014,0.00012,0.00022,0.00022,-0.00011,8e-05,6e-05,5,26
22631,-1e-05,0.00014,0.00012,0.00022,0.00022,-0.00011,8e-05,6e-05,5,26
22632,-1e-05,0.00014,0.00012,0.00022,0.00022,-0.00011,8e-05,6e-05,5,26
22633,-1e-05,0.00014,0.00012,0.00022,0.00022,-0.00011,8e-05,6e-05,5,26
22634,-1e-05,0.00014,0.00012,0.00022,0.00022,-0.00011,8e-05,6e-05,5,26
22635,-1e-05,0.00014,0.00012,0.00022,0.00022,-0.00011,8e-05,6e-05,5,26
22637,-1e-05,0.00014,0.00012,0.00022,0.00022,-0.00011,8e-05,6e-05,5,26
22639,-1e-05,0.00014,0.00012,0.00022,0.00022,-0.00011,8e-05,6e-05,5,26
22640,-1e-05,0.00014,0.00012,0.00022,0.00022,-0.00011,8e-05,6e-05,5,26
22641,-1e-05,0.00014,0.00012,0.00022,0.00022,-0.00011,8e-05,6e-05,5,26
22643,-1e-05,0.00014,0.00012,0.00022,0.00022,-0.00011,8e-05,6e-05,5,26
22644,-1e-05,0.00014,0.00012,0.00022,0.00022,-0.00011,8e-05,6e-05,5,26
22645,-1e-05,0.00014,0.00012,0.00022,0.00022,-0.00011,8e-05,6e-05,5,26
22646,-1e-05,0.00014,0.00012,0.00022,0.00022,-0.00011,8e-05,6e-05,5,26
22647,-1e-05,0.00014,0.00012,0.00022,0.00022,-0.00011,8e-05,6e-05,5,26
22648,-1e-05,0.00014,0.00012,0.00022,0.00022,-0.00011,8e-05,6e-05,5,26
22649,-1e-05,0.00014,0.00012,0.00022,0.00022,-0.00011,8e-05,6e-05,5,26
22650,-1e-05,0.00014,0.00012,0.00022,0.00022,-0.00011,8e-05,6e-05,5,26
22651,4e-05,0.00017,2e-05,0.00011,0.00011,1e-05,1e-05,2e-05,5,26
22652,4e-05,0.00017,2e-05,0.00011,0.00011,1e-05,1e-05,2e-05,5,26
22653,-2e-05,-4e-05,-0.00014,0.00019,-4e-05,-5e-05,0.0002,-1e-05,5,26
22654,-2e-05,-4e-05,-0.00014,0.00019,-4e-05,-5e-05,0.0002,-1e-05,5,26
22655,-2e-05,-4e-05,-0.00014,0.00019,-4e-05,-5e-05,0.0002,-1e-05,5,26
22656,-2e-05,-4e-05,-0.00014,0.00019,-4e-05,-5e-05,0.0002,-1e-05,5,26
22657,-2e-05,-4e-05,-0.00014,0.00019,-4e-05,-5e-05,0.0002,-1e-05,5,26
22658,-2e-05,-4e-05,-0.00014,0.00019,-4e-05,-5e-05,0.0002,-1e-05,5,26
22659,-2e-05,-4e-05,-0.00014,0.00019,-4e-05,-5e-05,0.0002,-1e-05,5,26
22660,-2e-05,-4e-05,-0.00014,0.00019,-4e-05,-5e-05,0.0002,-1e-05,5,26
22661,-2e-05,-4e-05,-0.00014,0.00019,-4e-05,-5e-05,0.0002,-1e-05,5,26
22662,-2e-05,-4e-05,-0.00014,0.00019,-4e-05,-5e-05,0.0002,-1e-05,5,26
22663,-2e-05,-4e-05,-0.00014,0.00019,-4e-05,-5e-05,0.0002,-1e-05,5,26
22664,-2e-05,-4e-05,-0.00014,0.00019,-4e-05,-5e-05,0.0002,-1e-05,5,26
22665,-1e-05,-4e-05,0.00011,-8e-05,0.0005,2e-05,2e-05,0,5,26
22666,-1e-05,-4e-05,0.00011,-8e-05,0.0005,2e-05,2e-05,0,5,26
22667,-1e-05,-4e-05,0.00011,-8e-05,0.0005,2e-05,2e-05,0,5,26
22668,-1e-05,-4e-05,0.00011,-8e-05,0.0005,2e-05,2e-05,0,5,26
22669,-1e-05,-4e-05,0.00011,-8e-05,0.0005,2e-05,2e-05,0,5,26
22670,-1e-05,-4e-05,0.00011,-8e-05,0.0005,2e-05,2e-05,0,5,26
22671,-1e-05,-4e-05,0.00011,-8e-05,0.0005,2e-05,2e-05,0,5,26
22672,-1e-05,-4e-05,0.00011,-8e-05,0.0005,2e-05,2e-05,0,5,26
22673,-4e-05,-9e-05,-0.0002,0.00034,0.00013,0.00011,-3e-05,-6e-05,5,26
22674,2e-05,-7e-05,0.00019,0.00015,0.00018,-0.00018,4e-05,6e-05,5,26
22675,2e-05,-7e-05,0.00019,0.00015,0.00018,-0.00018,4e-05,6e-05,5,26
22676,2e-05,-7e-05,0.00019,0.00015,0.00018,-0.00018,4e-05,6e-05,5,26
22677,2e-05,-7e-05,0.00019,0.00015,0.00018,-0.00018,4e-05,6e-05,5,26
22678,2e-05,-7e-05,0.00019,0.00015,0.00018,-0.00018,4e-05,6e-05,5,26
22679,2e-05,-7e-05,0.00019,0.00015,0.00018,-0.00018,4e-05,6e-05,5,26
22680,2e-05,-7e-05,0.00019,0.00015,0.00018,-0.00018,4e-05,6e-05,5,26
22681,2e-05,-7e-05,0.00019,0.00015,0.00018,-0.00018,4e-05,6e-05,5,26
22682,2e-05,-7e-05,0.00019,0.00015,0.00018,-0.00018,4e-05,6e-05,5,26
22683,2e-05,-7e-05,0.00019,0.00015,0.00018,-0.00018,4e-05,6e-05,5,26
22684,2e-05,-7e-05,0.00019,0.00015,0.00018,-0.00018,4e-05,6e-05,5,26
22685,2e-05,-7e-05,0.00019,0.00015,0.00018,-0.00018,4e-05,6e-05,5,26
22687,2e-05,-7e-05,0.00019,0.00015,0.00018,-0.00018,4e-05,6e-05,5,26
22690,-2e-05,-9e-05,0.0001,8e-05,0.00052,0.00028,-4e-05,0,5,26
22691,-2e-05,-9e-05,0.0001,8e-05,0.00052,0.00028,-4e-05,0,5,26
22692,-2e-05,-9e-05,0.0001,8e-05,0.00052,0.00028,-4e-05,0,5,26
22693,-2e-05,-9e-05,0.0001,8e-05,0.00052,0.00028,-4e-05,0,5,26
22694,-2e-05,-9e-05,0.0001,8e-05,0.00052,0.00028,-4e-05,0,5,26
22695,-2e-05,-9e-05,0.0001,8e-05,0.00052,0.00028,-4e-05,0,5,26
22696,-2e-05,-9e-05,0.0001,8e-05,0.00052,0.00028,-4e-05,0,5,26
22697,-2e-05,-9e-05,0.0001,8e-05,0.00052,0.00028,-4e-05,0,5,26
22698,-2e-05,-9e-05,0.0001,8e-05,0.00052,0.00028,-4e-05,0,5,26
22699,-2e-05,-9e-05,0.0001,8e-05,0.00052,0.00028,-4e-05,0,5,26
22700,-2e-05,-9e-05,0.0001,8e-05,0.00052,0.00028,-4e-05,0,5,26
22701,-2e-05,-9e-05,0.0001,8e-05,0.00052,0.00028,-4e-05,0,5,26
22702,-2e-05,-9e-05,0.0001,8e-05,0.00052,0.00028,-4e-05,0,5,26
22703,-2e-05,-9e-05,0.0001,8e-05,0.00052,0.00028,-4e-05,0,5,26
22704,-2e-05,-9e-05,0.0001,8e-05,0.00052,0.00028,-4e-05,0,5,26
22705,-2e-05,-9e-05,0.0001,8e-05,0.00052,0.00028,-4e-05,0,5,26
22706,-2e-05,-9e-05,0.0001,8e-05,0.00052,0.00028,-4e-05,0,5,26
22707,-2e-05,-9e-05,0.0001,8e-05,0.00052,0.00028,-4e-05,0,5,26
22708,-2e-05,-9e-05,0.0001,8e-05,0.00052,0.00028,-4e-05,0,5,26
22709,-2e-05,-9e-05,0.0001,8e-05,0.00052,0.00028,-4e-05,0,5,26
22710,-2e-05,-9e-05,0.0001,8e-05,0.00052,0.00028,-4e-05,0,5,26
22711,-6e-05,-0.00011,-4e-05,0.00015,0.00026,2e-05,-6e-05,-3e-05,5,26
22712,1e-05,6e-05,-0.00011,-0.00036,-0.00027,1e-05,4e-05,1e-05,5,26
22713,-1e-05,4e-05,0.00023,-2e-05,-0.00028,1e-05,-0.00012,-4e-05,5,26
22714,-1e-05,4e-05,0.00023,-2e-05,-0.00028,1e-05,-0.00012,-4e-05,5,26
22715,-1e-05,4e-05,0.00023,-2e-05,-0.00028,1e-05,-0.00012,-4e-05,5,26
22716,-1e-05,4e-05,0.00023,-2e-05,-0.00028,1e-05,-0.00012,-4e-05,5,26
22717,-1e-05,4e-05,0.00023,-2e-05,-0.00028,1e-05,-0.00012,-4e-05,5,26
22718,-1e-05,4e-05,0.00023,-2e-05,-0.00028,1e-05,-0.00012,-4e-05,5,26
22719,-1e-05,4e-05,0.00023,-2e-05,-0.00028,1e-05,-0.00012,-4e-05,5,26
22720,-1e-05,4e-05,0.00023,-2e-05,-0.00028,1e-05,-0.00012,-4e-05,5,26
22721,-1e-05,4e-05,0.00023,-2e-05,-0.00028,1e-05,-0.00012,-4e-05,5,26
22722,-1e-05,4e-05,0.00023,-2e-05,-0.00028,1e-05,-0.00012,-4e-05,5,26
22723,-1e-05,4e-05,0.00023,-2e-05,-0.00028,1e-05,-0.00012,-4e-05,5,26
22724,-7e-05,-0.00016,-0.00054,-0.00031,9e-05,5e-05,8e-05,-2e-05,5,26
22725,0,-7e-05,0,0.00025,0.00032,0.00017,-5e-05,2e-05,5,26
22726,0,-7e-05,0,0.00025,0.00032,0.00017,-5e-05,2e-05,5,26
22727,0,-7e-05,0,0.00025,0.00032,0.00017,-5e-05,2e-05,5,26
22728,0,-7e-05,0,0.00025,0.00032,0.00017,-5e-05,2e-05,5,26
22729,0,-7e-05,0,0.00025,0.00032,0.00017,-5e-05,2e-05,5,26
22730,0,-7e-05,0,0.00025,0.00032,0.00017,-5e-05,2e-05,5,26
22731,0,-7e-05,0,0.00025,0.00032,0.00017,-5e-05,2e-05,5,26
22732,0,-7e-05,0,0.00025,0.00032,0.00017,-5e-05,2e-05,5,26
22733,1e-05,-3e-05,-0.00017,-9e-05,0.0002,-6e-05,2e-05,-1e-05,5,26
22734,3e-05,3e-05,0.00011,0.00018,-0.00023,-3e-05,0,-1e-05,5,26
22735,3e-05,3e-05,0.00011,0.00018,-0.00023,-3e-05,0,-1e-05,5,26
22736,3e-05,3e-05,0.00011,0.00018,-0.00023,-3e-05,0,-1e-05,5,26
22738,3e-05,3e-05,0.00011,0.00018,-0.00023,-3e-05,0,-1e-05,5,26
22740,3e-05,3e-05,0.00011,0.00018,-0.00023,-3e-05,0,-1e-05,5,26
22741,3e-05,3e-05,0.00011,0.00018,-0.00023,-3e-05,0,-1e-05,5,26
22742,3e-05,3e-05,0.00011,0.00018,-0.00023,-3e-05,0,-1e-05,5,26
22743,3e-05,3e-05,0.00011,0.00018,-0.00023,-3e-05,0,-1e-05,5,26
22744,3e-05,3e-05,0.00011,0.00018,-0.00023,-3e-05,0,-1e-05,5,26
22745,3e-05,3e-05,0.00011,0.00018,-0.00023,-3e-05,0,-1e-05,5,26
22746,3e-05,3e-05,0.00011,0.00018,-0.00023,-3e-05,0,-1e-05,5,26
22747,1e-05,9e-05,0.0005,0.00068,0.00012,-6e-05,-1e-05,-3e-05,5,26
22751,-8e-05,-0.00019,-0.00084,-0.00092,-0.00043,-6e-05,-5e-05,-5e-05,5,26
22752,-8e-05,-0.00019,-0.00084,-0.00092,-0.00043,-6e-05,-5e-05,-5e-05,5,26
22753,-8e-05,-0.00019,-0.00084,-0.00092,-0.00043,-6e-05,-5e-05,-5e-05,5,26
22754,-8e-05,-0.00019,-0.00084,-0.00092,-0.00043,-6e-05,-5e-05,-5e-05,5,26
22755,-8e-05,-0.00019,-0.00084,-0.00092,-0.00043,-6e-05,-5e-05,-5e-05,5,26
22756,-8e-05,-0.00019,-0.00084,-0.00092,-0.00043,-6e-05,-5e-05,-5e-05,5,26
22757,-8e-05,-0.00019,-0.00084,-0.00092,-0.00043,-6e-05,-5e-05,-5e-05,5,26
22758,-8e-05,-0.00019,-0.00084,-0.00092,-0.00043,-6e-05,-5e-05,-5e-05,5,26
22759,-8e-05,-0.00019,-0.00084,-0.00092,-0.00043,-6e-05,-5e-05,-5e-05,5,26
22760,-8e-05,-0.00019,-0.00084,-0.00092,-0.00043,-6e-05,-5e-05,-5e-05,5,26
22761,-8e-05,-0.00019,-0.00084,-0.00092,-0.00043,-6e-05,-5e-05,-5e-05,5,26
22762,-8e-05,-0.00019,-0.00084,-0.00092,-0.00043,-6e-05,-5e-05,-5e-05,5,26
22763,-8e-05,-0.00019,-0.00084,-0.00092,-0.00043,-6e-05,-5e-05,-5e-05,5,26
22764,-8e-05,-0.00019,-0.00084,-0.00092,-0.00043,-6e-05,-5e-05,-5e-05,5,26
22765,-8e-05,-0.00019,-0.00084,-0.00092,-0.00043,-6e-05,-5e-05,-5e-05,5,26
22766,-8e-05,-0.00019,-0.00084,-0.00092,-0.00043,-6e-05,-5e-05,-5e-05,5,26
22767,-8e-05,-0.00019,-0.00084,-0.00092,-0.00043,-6e-05,-5e-05,-5e-05,5,26
22768,-8e-05,-0.00019,-0.00084,-0.00092,-0.00043,-6e-05,-5e-05,-5e-05,5,26
22769,-8e-05,-0.00019,-0.00084,-0.00092,-0.00043,-6e-05,-5e-05,-5e-05,5,26
22770,-8e-05,-0.00019,-0.00084,-0.00092,-0.00043,-6e-05,-5e-05,-5e-05,5,26
22771,-1e-05,0.0001,0.00011,0.0002,0.00018,-1e-05,0.00011,0,5,26
22772,9e-05,3e-05,0.00013,0.0002,0.00031,0,9e-05,0.00011,5,26
22773,-2e-05,4e-05,0.00014,-0.00042,-0.00038,-4e-05,-9e-05,-5e-05,5,26
22774,-2e-05,4e-05,0.00014,-0.00042,-0.00038,-4e-05,-9e-05,-5e-05,5,26
22775,-2e-05,4e-05,0.00014,-0.00042,-0.00038,-4e-05,-9e-05,-5e-05,5,26
22776,-2e-05,4e-05,0.00014,-0.00042,-0.00038,-4e-05,-9e-05,-5e-05,5,26
22777,-2e-05,4e-05,0.00014,-0.00042,-0.00038,-4e-05,-9e-05,-5e-05,5,26
22778,-2e-05,4e-05,0.00014,-0.00042,-0.00038,-4e-05,-9e-05,-5e-05,5,26
22779,-2e-05,4e-05,0.00014,-0.00042,-0.00038,-4e-05,-9e-05,-5e-05,5,26
22780,-2e-05,4e-05,0.00014,-0.00042,-0.00038,-4e-05,-9e-05,-5e-05,5,26
22781,-2e-05,4e-05,0.00014,-0.00042,-0.00038,-4e-05,-9e-05,-5e-05,5,26
22782,-2e-05,4e-05,0.00014,-0.00042,-0.00038,-4e-05,-9e-05,-5e-05,5,26
22783,-2e-05,4e-05,0.00014,-0.00042,-0.00038,-4e-05,-9e-05,-5e-05,5,26
22784,5e-05,0.00021,0.00027,0.0006,0.00048,8e-05,0,1e-05,5,26
22785,-3e-05,-0.00016,-0.00045,-0.00029,-0.00033,6e-05,9e-05,0,5,26
22786,-3e-05,-0.00016,-0.00045,-0.00029,-0.00033,6e-05,9e-05,0,5,26
22788,-3e-05,-0.00016,-0.00045,-0.00029,-0.00033,6e-05,9e-05,0,5,26
22789,-3e-05,-0.00016,-0.00045,-0.00029,-0.00033,6e-05,9e-05,0,5,26
22790,-3e-05,-0.00016,-0.00045,-0.00029,-0.00033,6e-05,9e-05,0,5,26
22791,-3e-05,-0.00016,-0.00045,-0.00029,-0.00033,6e-05,9e-05,0,5,26
22792,-3e-05,-0.00016,-0.00045,-0.00029,-0.00033,6e-05,9e-05,0,5,26
22793,-5e-05,-9e-05,-2e-05,-0.0004,-0.00023,-0.00014,1e-05,-4e-05,5,26
22794,-1e-05,5e-05,0.0001,-0.00016,0,4e-05,-4e-05,0,5,26
22795,-1e-05,5e-05,0.0001,-0.00016,0,4e-05,-4e-05,0,5,26
22796,-1e-05,5e-05,0.0001,-0.00016,0,4e-05,-4e-05,0,5,26
22797,-1e-05,5e-05,0.0001,-0.00016,0,4e-05,-4e-05,0,5,26
22798,-1e-05,5e-05,0.0001,-0.00016,0,4e-05,-4e-05,0,5,26
22799,-1e-05,5e-05,0.0001,-0.00016,0,4e-05,-4e-05,0,5,26
22800,-1e-05,5e-05,0.0001,-0.00016,0,4e-05,-4e-05,0,5,26
22801,-1e-05,5e-05,0.0001,-0.00016,0,4e-05,-4e-05,0,5,26
22802,-1e-05,5e-05,0.0001,-0.00016,0,4e-05,-4e-05,0,5,26
22803,-1e-05,5e-05,0.0001,-0.00016,0,4e-05,-4e-05,0,5,26
22804,-1e-05,5e-05,0.0001,-0.00016,0,4e-05,-4e-05,0,5,26
22805,-1e-05,5e-05,0.0001,-0.00016,0,4e-05,-4e-05,0,5,26
22806,-1e-05,5e-05,0.0001,-0.00016,0,4e-05,-4e-05,0,5,26
22807,-1e-05,5e-05,0.0001,-0.00016,0,4e-05,-4e-05,0,5,26
22808,2e-05,0,0.00016,-0.00054,-0.00022,-5e-05,0.00016,2e-05,5,26
22809,4e-05,2e-05,0.0001,0.00042,1e-05,-0.00016,-5e-05,2e-05,5,26
22810,6e-05,-5e-05,-0.00031,-0.00024,0.00036,0.00051,7e-05,6e-05,5,26
22811,6e-05,-5e-05,-0.00031,-0.00024,0.00036,0.00051,7e-05,6e-05,5,26
22812,6e-05,-5e-05,-0.00031,-0.00024,0.00036,0.00051,7e-05,6e-05,5,26
22813,6e-05,-5e-05,-0.00031,-0.00024,0.00036,0.00051,7e-05,6e-05,5,26
22814,6e-05,-5e-05,-0.00031,-0.00024,0.00036,0.00051,7e-05,6e-05,5,26
22815,6e-05,-5e-05,-0.00031,-0.00024,0.00036,0.00051,7e-05,6e-05,5,26
22816,6e-05,-5e-05,-0.00031,-0.00024,0.00036,0.00051,7e-05,6e-05,5,26
22817,6e-05,-5e-05,-0.00031,-0.00024,0.00036,0.00051,7e-05,6e-05,5,26
22818,6e-05,-5e-05,-0.00031,-0.00024,0.00036,0.00051,7e-05,6e-05,5,26
22819,6e-05,-5e-05,-0.00031,-0.00024,0.00036,0.00051,7e-05,6e-05,5,26
22820,6e-05,-5e-05,-0.00031,-0.00024,0.00036,0.00051,7e-05,6e-05,5,26
22821,6e-05,-5e-05,-0.00031,-0.00024,0.00036,0.00051,7e-05,6e-05,5,26
22822,6e-05,-5e-05,-0.00031,-0.00024,0.00036,0.00051,7e-05,6e-05,5,26
22823,6e-05,-5e-05,-0.00031,-0.00024,0.00036,0.00051,7e-05,6e-05,5,26
22824,6e-05,-5e-05,-0.00031,-0.00024,0.00036,0.00051,7e-05,6e-05,5,26
22825,6e-05,-5e-05,-0.00031,-0.00024,0.00036,0.00051,7e-05,6e-05,5,26
22826,6e-05,-5e-05,-0.00031,-0.00024,0.00036,0.00051,7e-05,6e-05,5,26
22827,6e-05,-5e-05,-0.00031,-0.00024,0.00036,0.00051,7e-05,6e-05,5,26
22828,6e-05,-5e-05,-0.00031,-0.00024,0.00036,0.00051,7e-05,6e-05,5,26
22829,6e-05,-5e-05,-0.00031,-0.00024,0.00036,0.00051,7e-05,6e-05,5,26
22830,6e-05,-5e-05,-0.00031,-0.00024,0.00036,0.00051,7e-05,6e-05,5,26
22831,-2e-05,2e-05,-4e-05,-0.00015,0.00016,-0.00015,-5e-05,-5e-05,5,26
22832,-2e-05,2e-05,-4e-05,-0.00015,0.00016,-0.00015,-5e-05,-5e-05,5,26
22833,2e-05,0.00018,0.00029,0.00046,1e-05,0,0,-4e-05,5,26
22834,2e-05,0.00018,0.00029,0.00046,1e-05,0,0,-4e-05,5,26
22835,2e-05,0.00018,0.00029,0.00046,1e-05,0,0,-4e-05,5,26
22837,2e-05,0.00018,0.00029,0.00046,1e-05,0,0,-4e-05,5,26
22839,2e-05,0.00018,0.00029,0.00046,1e-05,0,0,-4e-05,5,26
22840,2e-05,0.00018,0.00029,0.00046,1e-05,0,0,-4e-05,5,26
22841,2e-05,0.00018,0.00029,0.00046,1e-05,0,0,-4e-05,5,26
22842,2e-05,0.00018,0.00029,0.00046,1e-05,0,0,-4e-05,5,26
22843,2e-05,0.00018,0.00029,0.00046,1e-05,0,0,-4e-05,5,26
22844,2e-05,0.00018,0.00029,0.00046,1e-05,0,0,-4e-05,5,26
22845,-1e-05,-2e-05,-0.00046,-0.00123,-0.0007,-7e-05,-9e-05,-2e-05,5,26
22846,-1e-05,-2e-05,-0.00046,-0.00123,-0.0007,-7e-05,-9e-05,-2e-05,5,26
22847,-1e-05,-2e-05,-0.00046,-0.00123,-0.0007,-7e-05,-9e-05,-2e-05,5,26
22848,-1e-05,-2e-05,-0.00046,-0.00123,-0.0007,-7e-05,-9e-05,-2e-05,5,26
22849,-1e-05,-2e-05,-0.00046,-0.00123,-0.0007,-7e-05,-9e-05,-2e-05,5,26
22850,-1e-05,-2e-05,-0.00046,-0.00123,-0.0007,-7e-05,-9e-05,-2e-05,5,26
22851,-1e-05,-2e-05,-0.00046,-0.00123,-0.0007,-7e-05,-9e-05,-2e-05,5,26
22852,-1e-05,-2e-05,-0.00046,-0.00123,-0.0007,-7e-05,-9e-05,-2e-05,5,26
22853,-1e-05,-2e-05,-0.00046,-0.00123,-0.0007,-7e-05,-9e-05,-2e-05,5,26
22854,-9e-05,-0.00026,1e-05,-1e-05,-5e-05,-0.00015,-2e-05,-2e-05,5,26
22855,-9e-05,-0.00026,1e-05,-1e-05,-5e-05,-0.00015,-2e-05,-2e-05,5,26
22856,-9e-05,-0.00026,1e-05,-1e-05,-5e-05,-0.00015,-2e-05,-2e-05,5,26
22857,-9e-05,-0.00026,1e-05,-1e-05,-5e-05,-0.00015,-2e-05,-2e-05,5,26
22858,-9e-05,-0.00026,1e-05,-1e-05,-5e-05,-0.00015,-2e-05,-2e-05,5,26
22859,-9e-05,-0.00026,1e-05,-1e-05,-5e-05,-0.00015,-2e-05,-2e-05,5,26
22860,-9e-05,-0.00026,1e-05,-1e-05,-5e-05,-0.00015,-2e-05,-2e-05,5,26
22861,-9e-05,-0.00026,1e-05,-1e-05,-5e-05,-0.00015,-2e-05,-2e-05,5,26
22863,-9e-05,-0.00026,1e-05,-1e-05,-5e-05,-0.00015,-2e-05,-2e-05,5,26
22864,-9e-05,-0.00026,1e-05,-1e-05,-5e-05,-0.00015,-2e-05,-2e-05,5,26
22865,-9e-05,-0.00026,1e-05,-1e-05,-5e-05,-0.00015,-2e-05,-2e-05,5,26
22866,-9e-05,-0.00026,1e-05,-1e-05,-5e-05,-0.00015,-2e-05,-2e-05,5,26
22867,-9e-05,-0.00026,1e-05,-1e-05,-5e-05,-0.00015,-2e-05,-2e-05,5,26
22868,3e-05,-0.00011,-0.00045,3e-05,0.00032,0.00017,-7e-05,-4e-05,5,26
22869,-3e-05,7e-05,0.00014,0.0002,-0.00033,-0.00012,1e-05,0,5,26
22870,-2e-05,-1e-05,0.0001,-0.00016,0.00014,0.00026,-3e-05,-1e-05,5,26
22871,-3e-05,-4e-05,-9e-05,0.00052,0.00073,8e-05,-9e-05,1e-05,5,26
22872,-3e-05,-4e-05,-9e-05,0.00052,0.00073,8e-05,-9e-05,1e-05,5,26
22873,-3e-05,-4e-05,-9e-05,0.00052,0.00073,8e-05,-9e-05,1e-05,5,26
22874,-3e-05,-4e-05,-9e-05,0.00052,0.00073,8e-05,-9e-05,1e-05,5,26
22875,-3e-05,-4e-05,-9e-05,0.00052,0.00073,8e-05,-9e-05,1e-05,5,26
22876,-3e-05,-4e-05,-9e-05,0.00052,0.00073,8e-05,-9e-05,1e-05,5,26
22877,-3e-05,-4e-05,-9e-05,0.00052,0.00073,8e-05,-9e-05,1e-05,5,26
22878,-3e-05,-4e-05,-9e-05,0.00052,0.00073,8e-05,-9e-05,1e-05,5,26
22879,-3e-05,-4e-05,-9e-05,0.00052,0.00073,8e-05,-9e-05,1e-05,5,26
22880,-3e-05,-4e-05,-9e-05,0.00052,0.00073,8e-05,-9e-05,1e-05,5,26
22881,-3e-05,-4e-05,-9e-05,0.00052,0.00073,8e-05,-9e-05,1e-05,5,26
22882,-3e-05,-4e-05,-9e-05,0.00052,0.00073,8e-05,-9e-05,1e-05,5,26
22883,-3e-05,-4e-05,-9e-05,0.00052,0.00073,8e-05,-9e-05,1e-05,5,26
22884,-3e-05,-4e-05,-9e-05,0.00052,0.00073,8e-05,-9e-05,1e-05,5,26
22885,-3e-05,-4e-05,-9e-05,0.00052,0.00073,8e-05,-9e-05,1e-05,5,26
22886,-3e-05,-4e-05,-9e-05,0.00052,0.00073,8e-05,-9e-05,1e-05,5,26
22888,-3e-05,-4e-05,-9e-05,0.00052,0.00073,8e-05,-9e-05,1e-05,5,26
22889,-3e-05,-4e-05,-9e-05,0.00052,0.00073,8e-05,-9e-05,1e-05,5,26
22890,-3e-05,-4e-05,-9e-05,0.00052,0.00073,8e-05,-9e-05,1e-05,5,26
22891,2e-05,-0.00011,-0.00021,-0.00047,-0.00055,0,-3e-05,-1e-05,5,26
22892,1e-05,-6e-05,-0.00012,-0.00021,0.0002,2e-05,-2e-05,-3e-05,5,26
22893,3e-05,9e-05,1e-05,-0.00015,-2e-05,-2e-05,-3e-05,-3e-05,5,26
22894,3e-05,9e-05,1e-05,-0.00015,-2e-05,-2e-05,-3e-05,-3e-05,5,26
22895,3e-05,9e-05,1e-05,-0.00015,-2e-05,-2e-05,-3e-05,-3e-05,5,26
22896,3e-05,9e-05,1e-05,-0.00015,-2e-05,-2e-05,-3e-05,-3e-05,5,26
22897,3e-05,9e-05,1e-05,-0.00015,-2e-05,-2e-05,-3e-05,-3e-05,5,26
22898,3e-05,9e-05,1e-05,-0.00015,-2e-05,-2e-05,-3e-05,-3e-05,5,26
22899,3e-05,9e-05,1e-05,-0.00015,-2e-05,-2e-05,-3e-05,-3e-05,5,26
22900,3e-05,9e-05,1e-05,-0.00015,-2e-05,-2e-05,-3e-05,-3e-05,5,26
22901,3e-05,9e-05,1e-05,-0.00015,-2e-05,-2e-05,-3e-05,-3e-05,5,26
22902,3e-05,9e-05,1e-05,-0.00015,-2e-05,-2e-05,-3e-05,-3e-05,5,26
22903,3e-05,9e-05,1e-05,-0.00015,-2e-05,-2e-05,-3e-05,-3e-05,5,26
22904,1e-05,0.00013,0.00028,-5e-05,-0.00019,-0.00013,0.00011,4e-05,5,26
22905,1e-05,1e-05,0.00024,0.00011,-0.00025,7e-05,7e-05,3e-05,5,26
22906,1e-05,1e-05,0.00024,0.00011,-0.00025,7e-05,7e-05,3e-05,5,26
22907,1e-05,1e-05,0.00024,0.00011,-0.00025,7e-05,7e-05,3e-05,5,26
22908,1e-05,1e-05,0.00024,0.00011,-0.00025,7e-05,7e-05,3e-05,5,26
22909,1e-05,1e-05,0.00024,0.00011,-0.00025,7e-05,7e-05,3e-05,5,26
22910,1e-05,1e-05,0.00024,0.00011,-0.00025,7e-05,7e-05,3e-05,5,26
22911,1e-05,1e-05,0.00024,0.00011,-0.00025,7e-05,7e-05,3e-05,5,26
22912,1e-05,1e-05,0.00024,0.00011,-0.00025,7e-05,7e-05,3e-05,5,26
22913,-0.00012,-0.00027,-9e-05,0.00024,0.00012,-0.00015,-6e-05,-6e-05,5,26
22914,-8e-05,-6e-05,-0.00017,-0.00035,-0.00026,-0.00016,-1e-05,-5e-05,5,26
22915,-8e-05,-6e-05,-0.00017,-0.00035,-0.00026,-0.00016,-1e-05,-5e-05,5,26
22916,-8e-05,-6e-05,-0.00017,-0.00035,-0.00026,-0.00016,-1e-05,-5e-05,5,26
22917,-8e-05,-6e-05,-0.00017,-0.00035,-0.00026,-0.00016,-1e-05,-5e-05,5,26
22918,-8e-05,-6e-05,-0.00017,-0.00035,-0.00026,-0.00016,-1e-05,-5e-05,5,26
22919,-8e-05,-6e-05,-0.00017,-0.00035,-0.00026,-0.00016,-1e-05,-5e-05,5,26
22920,-8e-05,-6e-05,-0.00017,-0.00035,-0.00026,-0.00016,-1e-05,-5e-05,5,26
22921,-8e-05,-6e-05,-0.00017,-0.00035,-0.00026,-0.00016,-1e-05,-5e-05,5,26
22922,-8e-05,-6e-05,-0.00017,-0.00035,-0.00026,-0.00016,-1e-05,-5e-05,5,26
22923,-8e-05,-6e-05,-0.00017,-0.00035,-0.00026,-0.00016,-1e-05,-5e-05,5,26
22924,-8e-05,-6e-05,-0.00017,-0.00035,-0.00026,-0.00016,-1e-05,-5e-05,5,26
22925,-8e-05,-6e-05,-0.00017,-0.00035,-0.00026,-0.00016,-1e-05,-5e-05,5,26
22926,-8e-05,-6e-05,-0.00017,-0.00035,-0.00026,-0.00016,-1e-05,-5e-05,5,26
22927,-8e-05,-6e-05,-0.00017,-0.00035,-0.00026,-0.00016,-1e-05,-5e-05,5,26
22928,-7e-05,4e-05,5e-05,0.00033,-5e-05,0,-3e-05,-6e-05,5,26
22929,4e-05,0.00016,0.00013,-0.00031,0,3e-05,-2e-05,1e-05,5,26
22930,0.00013,7e-05,0.00017,0.00049,0.00014,3e-05,9e-05,0.00025,5,26
22931,0.00013,7e-05,0.00017,0.00049,0.00014,3e-05,9e-05,0.00025,5,26
22932,0.00013,7e-05,0.00017,0.00049,0.00014,3e-05,9e-05,0.00025,5,26
22933,0.00013,7e-05,0.00017,0.00049,0.00014,3e-05,9e-05,0.00025,5,26
22934,0.00013,7e-05,0.00017,0.00049,0.00014,3e-05,9e-05,0.00025,5,26
22935,0.00013,7e-05,0.00017,0.00049,0.00014,3e-05,9e-05,0.00025,5,26
22936,0.00013,7e-05,0.00017,0.00049,0.00014,3e-05,9e-05,0.00025,5,26
22938,0.00013,7e-05,0.00017,0.00049,0.00014,3e-05,9e-05,0.00025,5,26
22939,0.00013,7e-05,0.00017,0.00049,0.00014,3e-05,9e-05,0.00025,5,26
22940,0.00013,7e-05,0.00017,0.00049,0.00014,3e-05,9e-05,0.00025,5,26
22941,0.00013,7e-05,0.00017,0.00049,0.00014,3e-05,9e-05,0.00025,5,26
22942,0.00013,7e-05,0.00017,0.00049,0.00014,3e-05,9e-05,0.00025,5,26
22943,0.00013,7e-05,0.00017,0.00049,0.00014,3e-05,9e-05,0.00025,5,26
22944,0.00013,7e-05,0.00017,0.00049,0.00014,3e-05,9e-05,0.00025,5,26
22945,0.00013,7e-05,0.00017,0.00049,0.00014,3e-05,9e-05,0.00025,5,26
22946,0.00013,7e-05,0.00017,0.00049,0.00014,3e-05,9e-05,0.00025,5,26
22947,0.00013,7e-05,0.00017,0.00049,0.00014,3e-05,9e-05,0.00025,5,26
22948,0.00013,7e-05,0.00017,0.00049,0.00014,3e-05,9e-05,0.00025,5,26
22949,0.00013,7e-05,0.00017,0.00049,0.00014,3e-05,9e-05,0.00025,5,26
22950,0.00013,7e-05,0.00017,0.00049,0.00014,3e-05,9e-05,0.00025,5,26
22951,0,0,0.00014,5e-05,0.00047,0.00021,-0.00013,-5e-05,5,26
22952,-4e-05,0.00011,0.00037,4e-05,-0.0001,2e-05,0.00013,-1e-05,5,26
22953,-7e-05,-0.00011,-0.00033,0.00024,-0.00016,1e-05,-0.00011,-6e-05,5,26
22954,-7e-05,-0.00011,-0.00033,0.00024,-0.00016,1e-05,-0.00011,-6e-05,5,26
22955,-7e-05,-0.00011,-0.00033,0.00024,-0.00016,1e-05,-0.00011,-6e-05,5,26
22956,-7e-05,-0.00011,-0.00033,0.00024,-0.00016,1e-05,-0.00011,-6e-05,5,26
22957,-7e-05,-0.00011,-0.00033,0.00024,-0.00016,1e-05,-0.00011,-6e-05,5,26
22958,-7e-05,-0.00011,-0.00033,0.00024,-0.00016,1e-05,-0.00011,-6e-05,5,26
22959,-7e-05,-0.00011,-0.00033,0.00024,-0.00016,1e-05,-0.00011,-6e-05,5,26
22960,-7e-05,-0.00011,-0.00033,0.00024,-0.00016,1e-05,-0.00011,-6e-05,5,26
22961,-7e-05,-0.00011,-0.00033,0.00024,-0.00016,1e-05,-0.00011,-6e-05,5,26
22962,-7e-05,-0.00011,-0.00033,0.00024,-0.00016,1e-05,-0.00011,-6e-05,5,26
22964,-7e-05,-0.00011,-0.00033,0.00024,-0.00016,1e-05,-0.00011,-6e-05,5,26
22965,0,-7e-05,-7e-05,-4e-05,0.00017,-7e-05,4e-05,3e-05,5,26
22966,0,-7e-05,-7e-05,-4e-05,0.00017,-7e-05,4e-05,3e-05,5,26
22967,0,-7e-05,-7e-05,-4e-05,0.00017,-7e-05,4e-05,3e-05,5,26
22968,0,-7e-05,-7e-05,-4e-05,0.00017,-7e-05,4e-05,3e-05,5,26
22969,0,-7e-05,-7e-05,-4e-05,0.00017,-7e-05,4e-05,3e-05,5,26
22970,0,-7e-05,-7e-05,-4e-05,0.00017,-7e-05,4e-05,3e-05,5,26
22971,0,-7e-05,-7e-05,-4e-05,0.00017,-7e-05,4e-05,3e-05,5,26
22972,0,-7e-05,-7e-05,-4e-05,0.00017,-7e-05,4e-05,3e-05,5,26
22973,0,-7e-05,-7e-05,-4e-05,0.00017,-7e-05,4e-05,3e-05,5,26
22974,0,-7e-05,-7e-05,-4e-05,0.00017,-7e-05,4e-05,3e-05,5,26
22975,0,-7e-05,-7e-05,-4e-05,0.00017,-7e-05,4e-05,3e-05,5,26
22976,0,-7e-05,-7e-05,-4e-05,0.00017,-7e-05,4e-05,3e-05,5,26
22977,0,-7e-05,-7e-05,-4e-05,0.00017,-7e-05,4e-05,3e-05,5,26
22978,0,-7e-05,-7e-05,-4e-05,0.00017,-7e-05,4e-05,3e-05,5,26
22979,0,-7e-05,-7e-05,-4e-05,0.00017,-7e-05,4e-05,3e-05,5,26
22980,-4e-05,4e-05,-1e-05,-0.00011,0.00028,2e-05,-4e-05,-5e-05,5,26
22981,-0.00011,-0.0002,-0.00038,-0.0003,0.00018,-1e-05,-9e-05,-0.00013,5,26
22982,-0.00011,-0.0002,-0.00038,-0.0003,0.00018,-1e-05,-9e-05,-0.00013,5,26
22983,-0.00011,-0.0002,-0.00038,-0.0003,0.00018,-1e-05,-9e-05,-0.00013,5,26
22984,-0.00011,-0.0002,-0.00038,-0.0003,0.00018,-1e-05,-9e-05,-0.00013,5,26
22985,-0.00011,-0.0002,-0.00038,-0.0003,0.00018,-1e-05,-9e-05,-0.00013,5,26
22986,-0.00011,-0.0002,-0.00038,-0.0003,0.00018,-1e-05,-9e-05,-0.00013,5,26
22989,2e-05,2e-05,0.00011,0.00088,0.00038,0.0002,3e-05,-1e-05,5,26
22990,0,0.00024,0.00038,0.00014,-3e-05,-0.00013,3e-05,-2e-05,5,26
22991,0,0.00024,0.00038,0.00014,-3e-05,-0.00013,3e-05,-2e-05,5,26
22992,0,0.00024,0.00038,0.00014,-3e-05,-0.00013,3e-05,-2e-05,5,26
22993,0,0.00024,0.00038,0.00014,-3e-05,-0.00013,3e-05,-2e-05,5,26
22994,0,0.00024,0.00038,0.00014,-3e-05,-0.00013,3e-05,-2e-05,5,26
22995,0,0.00024,0.00038,0.00014,-3e-05,-0.00013,3e-05,-2e-05,5,26
22996,0,0.00024,0.00038,0.00014,-3e-05,-0.00013,3e-05,-2e-05,5,26
22997,0,0.00024,0.00038,0.00014,-3e-05,-0.00013,3e-05,-2e-05,5,26
22998,0,0.00024,0.00038,0.00014,-3e-05,-0.00013,3e-05,-2e-05,5,26
22999,0,0.00024,0.00038,0.00014,-3e-05,-0.00013,3e-05,-2e-05,5,26
23000,0,0.00024,0.00038,0.00014,-3e-05,-0.00013,3e-05,-2e-05,5,26
23001,0,0.00024,0.00038,0.00014,-3e-05,-0.00013,3e-05,-2e-05,5,26
23002,0,0.00024,0.00038,0.00014,-3e-05,-0.00013,3e-05,-2e-05,5,26
23003,0,0.00024,0.00038,0.00014,-3e-05,-0.00013,3e-05,-2e-05,5,26
23004,0,0.00024,0.00038,0.00014,-3e-05,-0.00013,3e-05,-2e-05,5,26
23005,0,0.00024,0.00038,0.00014,-3e-05,-0.00013,3e-05,-2e-05,5,26
23006,0,0.00024,0.00038,0.00014,-3e-05,-0.00013,3e-05,-2e-05,5,26
23007,0,0.00024,0.00038,0.00014,-3e-05,-0.00013,3e-05,-2e-05,5,26
23008,0,0.00024,0.00038,0.00014,-3e-05,-0.00013,3e-05,-2e-05,5,26
23009,0,0.00024,0.00038,0.00014,-3e-05,-0.00013,3e-05,-2e-05,5,26
23010,0,0.00024,0.00038,0.00014,-3e-05,-0.00013,3e-05,-2e-05,5,26
23011,0,-2e-05,-0.00018,-0.00031,-0.00022,-0.00011,1e-05,-2e-05,5,26
23012,-2e-05,-7e-05,3e-05,4e-05,-0.00021,0,-4e-05,1e-05,5,26
23013,4e-05,6e-05,8e-05,-0.00026,-0.00048,-0.0001,0,0,5,26
23014,4e-05,6e-05,8e-05,-0.00026,-0.00048,-0.0001,0,0,5,26
23015,4e-05,6e-05,8e-05,-0.00026,-0.00048,-0.0001,0,0,5,26
23016,4e-05,6e-05,8e-05,-0.00026,-0.00048,-0.0001,0,0,5,26
23017,4e-05,6e-05,8e-05,-0.00026,-0.00048,-0.0001,0,0,5,26
23018,4e-05,6e-05,8e-05,-0.00026,-0.00048,-0.0001,0,0,5,26
23019,4e-05,6e-05,8e-05,-0.00026,-0.00048,-0.0001,0,0,5,26
23020,4e-05,6e-05,8e-05,-0.00026,-0.00048,-0.0001,0,0,5,26
23021,4e-05,6e-05,8e-05,-0.00026,-0.00048,-0.0001,0,0,5,26
23023,4e-05,6e-05,8e-05,-0.00026,-0.00048,-0.0001,0,0,5,26
23024,4e-05,6e-05,8e-05,-0.00026,-0.00048,-0.0001,0,0,5,26
23025,-7e-05,-0.00019,-0.00011,0.00045,0.0005,-0.00015,5e-05,0,5,26
23026,-7e-05,-0.00019,-0.00011,0.00045,0.0005,-0.00015,5e-05,0,5,26
23027,-7e-05,-0.00019,-0.00011,0.00045,0.0005,-0.00015,5e-05,0,5,26
23028,-7e-05,-0.00019,-0.00011,0.00045,0.0005,-0.00015,5e-05,0,5,26
23029,-7e-05,-0.00019,-0.00011,0.00045,0.0005,-0.00015,5e-05,0,5,26
23030,-7e-05,-0.00019,-0.00011,0.00045,0.0005,-0.00015,5e-05,0,5,26
23031,-7e-05,-0.00019,-0.00011,0.00045,0.0005,-0.00015,5e-05,0,5,26
23032,-7e-05,-0.00019,-0.00011,0.00045,0.0005,-0.00015,5e-05,0,5,26
23033,-7e-05,-0.00019,-0.00011,0.00045,0.0005,-0.00015,5e-05,0,5,26
23034,4e-05,8e-05,0.00025,0.00076,0.0009,0.00036,0.00021,5e-05,5,26
23035,4e-05,8e-05,0.00025,0.00076,0.0009,0.00036,0.00021,5e-05,5,26
23037,4e-05,8e-05,0.00025,0.00076,0.0009,0.00036,0.00021,5e-05,5,26
23040,4e-05,8e-05,0.00025,0.00076,0.0009,0.00036,0.00021,5e-05,5,26
23041,4e-05,8e-05,0.00025,0.00076,0.0009,0.00036,0.00021,5e-05,5,26
23042,4e-05,8e-05,0.00025,0.00076,0.0009,0.00036,0.00021,5e-05,5,26
23043,4e-05,8e-05,0.00025,0.00076,0.0009,0.00036,0.00021,5e-05,5,26
23044,4e-05,8e-05,0.00025,0.00076,0.0009,0.00036,0.00021,5e-05,5,26
23045,4e-05,8e-05,0.00025,0.00076,0.0009,0.00036,0.00021,5e-05,5,26
23046,4e-05,8e-05,0.00025,0.00076,0.0009,0.00036,0.00021,5e-05,5,26
23047,4e-05,8e-05,0.00025,0.00076,0.0009,0.00036,0.00021,5e-05,5,26
23048,4e-05,8e-05,0.00025,0.00076,0.0009,0.00036,0.00021,5e-05,5,26
23049,4e-05,8e-05,0.00025,0.00076,0.0009,0.00036,0.00021,5e-05,5,26
23050,4e-05,8e-05,0.00025,0.00076,0.0009,0.00036,0.00021,5e-05,5,26
23051,4e-05,8e-05,0.00025,0.00076,0.0009,0.00036,0.00021,5e-05,5,26
23052,4e-05,8e-05,0.00025,0.00076,0.0009,0.00036,0.00021,5e-05,5,26
23053,4e-05,8e-05,0.00025,0.00076,0.0009,0.00036,0.00021,5e-05,5,26
23054,4e-05,8e-05,0.00025,0.00076,0.0009,0.00036,0.00021,5e-05,5,26
23055,4e-05,8e-05,0.00025,0.00076,0.0009,0.00036,0.00021,5e-05,5,26
23056,-9e-05,-8e-05,-0.00032,-0.00017,-0.00018,3e-05,-0.00014,-9e-05,5,26
23057,0.0001,0.00023,-0.00021,-0.00018,0.00025,4e-05,1e-05,4e-05,5,26
23058,-2e-05,-5e-05,0,-0.00026,-0.00039,-0.0005,3e-05,-3e-05,5,26
23059,-2e-05,-5e-05,0,-0.00026,-0.00039,-0.0005,3e-05,-3e-05,5,26
23060,-2e-05,-5e-05,0,-0.00026,-0.00039,-0.0005,3e-05,-3e-05,5,26
23061,-2e-05,-5e-05,0,-0.00026,-0.00039,-0.0005,3e-05,-3e-05,5,26
23062,-2e-05,-5e-05,0,-0.00026,-0.00039,-0.0005,3e-05,-3e-05,5,26
23063,-2e-05,-5e-05,0,-0.00026,-0.00039,-0.0005,3e-05,-3e-05,5,26
23064,-2e-05,-5e-05,0,-0.00026,-0.00039,-0.0005,3e-05,-3e-05,5,26
23065,-2e-05,-5e-05,0,-0.00026,-0.00039,-0.0005,3e-05,-3e-05,5,26
23066,-2e-05,-5e-05,0,-0.00026,-0.00039,-0.0005,3e-05,-3e-05,5,26
23067,-2e-05,-5e-05,0,-0.00026,-0.00039,-0.0005,3e-05,-3e-05,5,26
23068,-2e-05,-5e-05,0,-0.00026,-0.00039,-0.0005,3e-05,-3e-05,5,26
23069,-2e-05,-5e-05,0,-0.00026,-0.00039,-0.0005,3e-05,-3e-05,5,26
23070,-2e-05,-5e-05,0,-0.00026,-0.00039,-0.0005,3e-05,-3e-05,5,26
23071,-2e-05,-5e-05,0,-0.00026,-0.00039,-0.0005,3e-05,-3e-05,5,26
23072,8e-05,0.00012,0.00027,0.00022,0.00036,8e-05,1e-05,8e-05,5,26
23073,-2e-05,0.00012,0.00015,-0.00033,-0.00048,-7e-05,-8e-05,-6e-05,5,26
23074,-2e-05,0.00012,0.00015,-0.00033,-0.00048,-7e-05,-8e-05,-6e-05,5,26
23075,-2e-05,0.00012,0.00015,-0.00033,-0.00048,-7e-05,-8e-05,-6e-05,5,26
23077,-2e-05,0.00012,0.00015,-0.00033,-0.00048,-7e-05,-8e-05,-6e-05,5,26
23078,-2e-05,0.00012,0.00015,-0.00033,-0.00048,-7e-05,-8e-05,-6e-05,5,26
23079,-2e-05,0.00012,0.00015,-0.00033,-0.00048,-7e-05,-8e-05,-6e-05,5,26
23080,-2e-05,0.00012,0.00015,-0.00033,-0.00048,-7e-05,-8e-05,-6e-05,5,26
23081,-2e-05,0.00012,0.00015,-0.00033,-0.00048,-7e-05,-8e-05,-6e-05,5,26
23082,-2e-05,0.00012,0.00015,-0.00033,-0.00048,-7e-05,-8e-05,-6e-05,5,26
23083,-2e-05,0.00012,0.00015,-0.00033,-0.00048,-7e-05,-8e-05,-6e-05,5,26
23084,-2e-05,0.00012,0.00015,-0.00033,-0.00048,-7e-05,-8e-05,-6e-05,5,26
23085,-3e-05,0,-1e-05,0.00013,-0.00048,-0.00023,-3e-05,-3e-05,5,26
23086,-3e-05,0,-1e-05,0.00013,-0.00048,-0.00023,-3e-05,-3e-05,5,26
23089,-3e-05,0,-1e-05,0.00013,-0.00048,-0.00023,-3e-05,-3e-05,5,26
23090,-3e-05,0,-1e-05,0.00013,-0.00048,-0.00023,-3e-05,-3e-05,5,26
23091,-3e-05,0,-1e-05,0.00013,-0.00048,-0.00023,-3e-05,-3e-05,5,26
23092,-3e-05,0,-1e-05,0.00013,-0.00048,-0.00023,-3e-05,-3e-05,5,26
23093,-3e-05,0,-1e-05,0.00013,-0.00048,-0.00023,-3e-05,-3e-05,5,26
23094,1e-05,5e-05,0.00042,0.00019,-0.00016,0.00014,2e-05,-4e-05,5,26
23095,1e-05,5e-05,0.00042,0.00019,-0.00016,0.00014,2e-05,-4e-05,5,26
23096,1e-05,5e-05,0.00042,0.00019,-0.00016,0.00014,2e-05,-4e-05,5,26
23097,1e-05,5e-05,0.00042,0.00019,-0.00016,0.00014,2e-05,-4e-05,5,26
23098,1e-05,5e-05,0.00042,0.00019,-0.00016,0.00014,2e-05,-4e-05,5,26
23099,1e-05,5e-05,0.00042,0.00019,-0.00016,0.00014,2e-05,-4e-05,5,26
23100,1e-05,5e-05,0.00042,0.00019,-0.00016,0.00014,2e-05,-4e-05,5,26
23101,1e-05,5e-05,0.00042,0.00019,-0.00016,0.00014,2e-05,-4e-05,5,26
23102,1e-05,5e-05,0.00042,0.00019,-0.00016,0.00014,2e-05,-4e-05,5,26
23103,1e-05,5e-05,0.00042,0.00019,-0.00016,0.00014,2e-05,-4e-05,5,26
23104,1e-05,5e-05,0.00042,0.00019,-0.00016,0.00014,2e-05,-4e-05,5,26
23105,1e-05,5e-05,0.00042,0.00019,-0.00016,0.00014,2e-05,-4e-05,5,26
23106,1e-05,5e-05,0.00042,0.00019,-0.00016,0.00014,2e-05,-4e-05,5,26
23107,1e-05,5e-05,0.00042,0.00019,-0.00016,0.00014,2e-05,-4e-05,5,26
23108,-3e-05,0,-0.00035,-0.00025,0.00014,-3e-05,0,-3e-05,5,26
23109,-3e-05,0,-0.00035,-0.00025,0.00014,-3e-05,0,-3e-05,5,26
23110,1e-05,9e-05,0.00038,0.0004,0.00016,5e-05,-6e-05,1e-05,5,26
23111,1e-05,9e-05,0.00038,0.0004,0.00016,5e-05,-6e-05,1e-05,5,26
23112,1e-05,9e-05,0.00038,0.0004,0.00016,5e-05,-6e-05,1e-05,5,26
23113,1e-05,9e-05,0.00038,0.0004,0.00016,5e-05,-6e-05,1e-05,5,26
23114,1e-05,9e-05,0.00038,0.0004,0.00016,5e-05,-6e-05,1e-05,5,26
23115,1e-05,9e-05,0.00038,0.0004,0.00016,5e-05,-6e-05,1e-05,5,26
23116,1e-05,9e-05,0.00038,0.0004,0.00016,5e-05,-6e-05,1e-05,5,26
23117,1e-05,9e-05,0.00038,0.0004,0.00016,5e-05,-6e-05,1e-05,5,26
23118,1e-05,9e-05,0.00038,0.0004,0.00016,5e-05,-6e-05,1e-05,5,26
23119,1e-05,9e-05,0.00038,0.0004,0.00016,5e-05,-6e-05,1e-05,5,26
23120,1e-05,9e-05,0.00038,0.0004,0.00016,5e-05,-6e-05,1e-05,5,26
23121,1e-05,9e-05,0.00038,0.0004,0.00016,5e-05,-6e-05,1e-05,5,26
23122,1e-05,9e-05,0.00038,0.0004,0.00016,5e-05,-6e-05,1e-05,5,26
23123,1e-05,9e-05,0.00038,0.0004,0.00016,5e-05,-6e-05,1e-05,5,26
23124,1e-05,9e-05,0.00038,0.0004,0.00016,5e-05,-6e-05,1e-05,5,26
23125,1e-05,9e-05,0.00038,0.0004,0.00016,5e-05,-6e-05,1e-05,5,26
23126,1e-05,9e-05,0.00038,0.0004,0.00016,5e-05,-6e-05,1e-05,5,26
23127,1e-05,9e-05,0.00038,0.0004,0.00016,5e-05,-6e-05,1e-05,5,26
23128,1e-05,9e-05,0.00038,0.0004,0.00016,5e-05,-6e-05,1e-05,5,26
23129,1e-05,9e-05,0.00038,0.0004,0.00016,5e-05,-6e-05,1e-05,5,26
23130,1e-05,9e-05,0.00038,0.0004,0.00016,5e-05,-6e-05,1e-05,5,26
23131,-2e-05,-0.00011,-7e-05,-0.00024,-0.00046,3e-05,4e-05,1e-05,5,26
23132,6e-05,3e-05,-0.00022,0.00014,8e-05,0,-1e-05,1e-05,5,26
23133,-6e-05,-0.00016,3e-05,0.00047,0.00014,-0.00022,0,-4e-05,5,26
23134,-6e-05,-0.00016,3e-05,0.00047,0.00014,-0.00022,0,-4e-05,5,26
23135,-6e-05,-0.00016,3e-05,0.00047,0.00014,-0.00022,0,-4e-05,5,26
23136,-6e-05,-0.00016,3e-05,0.00047,0.00014,-0.00022,0,-4e-05,5,26
23139,-6e-05,-0.00016,3e-05,0.00047,0.00014,-0.00022,0,-4e-05,5,26
23140,-6e-05,-0.00016,3e-05,0.00047,0.00014,-0.00022,0,-4e-05,5,26
23141,-6e-05,-0.00016,3e-05,0.00047,0.00014,-0.00022,0,-4e-05,5,26
23143,-6e-05,-0.00016,3e-05,0.00047,0.00014,-0.00022,0,-4e-05,5,26
23144,-6e-05,-0.00016,3e-05,0.00047,0.00014,-0.00022,0,-4e-05,5,26
23145,-6e-05,-0.00016,3e-05,0.00047,0.00014,-0.00022,0,-4e-05,5,26
23146,-6e-05,-0.00016,3e-05,0.00047,0.00014,-0.00022,0,-4e-05,5,26
23147,-6e-05,-0.00016,3e-05,0.00047,0.00014,-0.00022,0,-4e-05,5,26
23148,-6e-05,-0.00016,3e-05,0.00047,0.00014,-0.00022,0,-4e-05,5,26
23149,-6e-05,-0.00016,3e-05,0.00047,0.00014,-0.00022,0,-4e-05,5,26
23150,-6e-05,-0.00016,3e-05,0.00047,0.00014,-0.00022,0,-4e-05,5,26
23151,-6e-05,-0.00016,3e-05,0.00047,0.00014,-0.00022,0,-4e-05,5,26
23152,-6e-05,-0.00016,3e-05,0.00047,0.00014,-0.00022,0,-4e-05,5,26
23153,-2e-05,0,0.00035,-3e-05,0.00033,7e-05,8e-05,4e-05,5,26
23154,-2e-05,0,0.00035,-3e-05,0.00033,7e-05,8e-05,4e-05,5,26
23155,0,-0.00017,-0.0002,-0.00033,0.0001,0.00022,3e-05,2e-05,5,26
23156,0,-0.00017,-0.0002,-0.00033,0.0001,0.00022,3e-05,2e-05,5,26
23157,0,-0.00017,-0.0002,-0.00033,0.0001,0.00022,3e-05,2e-05,5,26
23158,0,-0.00017,-0.0002,-0.00033,0.0001,0.00022,3e-05,2e-05,5,26
23159,0,-0.00017,-0.0002,-0.00033,0.0001,0.00022,3e-05,2e-05,5,26
23160,0,-0.00017,-0.0002,-0.00033,0.0001,0.00022,3e-05,2e-05,5,26
23161,0,-0.00017,-0.0002,-0.00033,0.0001,0.00022,3e-05,2e-05,5,26
23162,0,-0.00017,-0.0002,-0.00033,0.0001,0.00022,3e-05,2e-05,5,26
23163,0,-0.00017,-0.0002,-0.00033,0.0001,0.00022,3e-05,2e-05,5,26
23164,0,-0.00017,-0.0002,-0.00033,0.0001,0.00022,3e-05,2e-05,5,26
23165,0,-0.00017,-0.0002,-0.00033,0.0001,0.00022,3e-05,2e-05,5,26
23166,0,-0.00017,-0.0002,-0.00033,0.0001,0.00022,3e-05,2e-05,5,26
23167,0,-0.00017,-0.0002,-0.00033,0.0001,0.00022,3e-05,2e-05,5,26
23168,3e-05,3e-05,4e-05,0.00054,0.00017,-2e-05,-8e-05,-1e-05,5,26
23169,0.00015,0.00018,0.00034,-0.00056,-0.00012,-0.00016,-4e-05,1e-05,5,26
23170,-5e-05,-0.00012,-0.00039,-0.00079,-0.00048,-0.0001,5e-05,-1e-05,5,26
23172,-5e-05,-0.00012,-0.00039,-0.00079,-0.00048,-0.0001,5e-05,-1e-05,5,26
23173,-5e-05,-0.00012,-0.00039,-0.00079,-0.00048,-0.0001,5e-05,-1e-05,5,26
23174,-5e-05,-0.00012,-0.00039,-0.00079,-0.00048,-0.0001,5e-05,-1e-05,5,26
23175,-5e-05,-0.00012,-0.00039,-0.00079,-0.00048,-0.0001,5e-05,-1e-05,5,26
23176,-5e-05,-0.00012,-0.00039,-0.00079,-0.00048,-0.0001,5e-05,-1e-05,5,26
23177,-5e-05,-0.00012,-0.00039,-0.00079,-0.00048,-0.0001,5e-05,-1e-05,5,26
23178,-5e-05,-0.00012,-0.00039,-0.00079,-0.00048,-0.0001,5e-05,-1e-05,5,26
23179,-5e-05,-0.00012,-0.00039,-0.00079,-0.00048,-0.0001,5e-05,-1e-05,5,26
23180,-5e-05,-0.00012,-0.00039,-0.00079,-0.00048,-0.0001,5e-05,-1e-05,5,26
23181,-5e-05,-0.00012,-0.00039,-0.00079,-0.00048,-0.0001,5e-05,-1e-05,5,26
23182,-5e-05,-0.00012,-0.00039,-0.00079,-0.00048,-0.0001,5e-05,-1e-05,5,26
23183,-5e-05,-0.00012,-0.00039,-0.00079,-0.00048,-0.0001,5e-05,-1e-05,5,26
23184,-5e-05,-0.00012,-0.00039,-0.00079,-0.00048,-0.0001,5e-05,-1e-05,5,26
23185,-5e-05,-0.00012,-0.00039,-0.00079,-0.00048,-0.0001,5e-05,-1e-05,5,26
23186,-5e-05,-0.00012,-0.00039,-0.00079,-0.00048,-0.0001,5e-05,-1e-05,5,26
23189,-5e-05,-0.00012,-0.00039,-0.00079,-0.00048,-0.0001,5e-05,-1e-05,5,26
23190,-5e-05,-0.00012,-0.00039,-0.00079,-0.00048,-0.0001,5e-05,-1e-05,5,26
23191,5e-05,3e-05,5e-05,-0.00054,5e-05,0.00011,4e-05,2e-05,5,26
23192,5e-05,3e-05,5e-05,-0.00054,5e-05,0.00011,4e-05,2e-05,5,26
23193,5e-05,3e-05,5e-05,-0.00054,5e-05,0.00011,4e-05,2e-05,5,26
23194,5e-05,3e-05,5e-05,-0.00054,5e-05,0.00011,4e-05,2e-05,5,26
23195,5e-05,3e-05,5e-05,-0.00054,5e-05,0.00011,4e-05,2e-05,5,26
23196,5e-05,3e-05,5e-05,-0.00054,5e-05,0.00011,4e-05,2e-05,5,26
23197,-1e-05,-0.00014,-0.0003,0.00025,0.00021,2e-05,-0.00011,-2e-05,5,26
23198,-1e-05,-0.00014,-0.0003,0.00025,0.00021,2e-05,-0.00011,-2e-05,5,26
23199,-1e-05,-0.00014,-0.0003,0.00025,0.00021,2e-05,-0.00011,-2e-05,5,26
23200,-1e-05,-0.00014,-0.0003,0.00025,0.00021,2e-05,-0.00011,-2e-05,5,26
23201,-1e-05,-0.00014,-0.0003,0.00025,0.00021,2e-05,-0.00011,-2e-05,5,26
23203,-1e-05,-0.00014,-0.0003,0.00025,0.00021,2e-05,-0.00011,-2e-05,5,26
23204,-1e-05,-0.00014,-0.0003,0.00025,0.00021,2e-05,-0.00011,-2e-05,5,26
23205,-1e-05,-0.00014,-0.0003,0.00025,0.00021,2e-05,-0.00011,-2e-05,5,26
23206,-1e-05,-0.00014,-0.0003,0.00025,0.00021,2e-05,-0.00011,-2e-05,5,26
23207,-1e-05,-0.00014,-0.0003,0.00025,0.00021,2e-05,-0.00011,-2e-05,5,26
23208,-1e-05,-0.00014,-0.0003,0.00025,0.00021,2e-05,-0.00011,-2e-05,5,26
23209,-1e-05,-0.00014,-0.0003,0.00025,0.00021,2e-05,-0.00011,-2e-05,5,26
23210,-1e-05,-0.00014,-0.0003,0.00025,0.00021,2e-05,-0.00011,-2e-05,5,26
23211,-1e-05,-0.00014,-0.0003,0.00025,0.00021,2e-05,-0.00011,-2e-05,5,26
23212,-1e-05,-0.00014,-0.0003,0.00025,0.00021,2e-05,-0.00011,-2e-05,5,26
23213,-3e-05,-2e-05,-0.00013,0.00016,-0.00017,-0.00013,0.00014,-4e-05,5,26
23214,-3e-05,-2e-05,-0.00013,0.00016,-0.00017,-0.00013,0.00014,-4e-05,5,26
23215,0,3e-05,0.0001,0.00051,6e-05,0.00016,9e-05,4e-05,5,26
23216,0,3e-05,0.0001,0.00051,6e-05,0.00016,9e-05,4e-05,5,26
23217,0,3e-05,0.0001,0.00051,6e-05,0.00016,9e-05,4e-05,5,26
23218,0,3e-05,0.0001,0.00051,6e-05,0.00016,9e-05,4e-05,5,26
23219,0,3e-05,0.0001,0.00051,6e-05,0.00016,9e-05,4e-05,5,26
23220,0,3e-05,0.0001,0.00051,6e-05,0.00016,9e-05,4e-05,5,26
23221,0,3e-05,0.0001,0.00051,6e-05,0.00016,9e-05,4e-05,5,26
23222,0,3e-05,0.0001,0.00051,6e-05,0.00016,9e-05,4e-05,5,26
23223,0,3e-05,0.0001,0.00051,6e-05,0.00016,9e-05,4e-05,5,26
23224,0,3e-05,0.0001,0.00051,6e-05,0.00016,9e-05,4e-05,5,26
23225,0,3e-05,0.0001,0.00051,6e-05,0.00016,9e-05,4e-05,5,26
23226,0,3e-05,0.0001,0.00051,6e-05,0.00016,9e-05,4e-05,5,26
23227,0,3e-05,0.0001,0.00051,6e-05,0.00016,9e-05,4e-05,5,26
23228,-0.00016,-0.00011,-8e-05,0.00052,8e-05,-3e-05,-0.00016,-7e-05,5,26
23229,-0.00016,-0.00011,-8e-05,0.00052,8e-05,-3e-05,-0.00016,-7e-05,5,26
23230,-0.00016,-0.00011,-8e-05,0.00052,8e-05,-3e-05,-0.00016,-7e-05,5,26
23231,-0.00016,-0.00011,-8e-05,0.00052,8e-05,-3e-05,-0.00016,-7e-05,5,26
23232,-0.00016,-0.00011,-8e-05,0.00052,8e-05,-3e-05,-0.00016,-7e-05,5,26
23233,-0.00016,-0.00011,-8e-05,0.00052,8e-05,-3e-05,-0.00016,-7e-05,5,26
23234,-4e-05,-0.0001,-3e-05,-0.0004,-0.00028,-0.0001,-4e-05,-6e-05,5,26
23235,-1e-05,0,-0.00012,-7e-05,6e-05,6e-05,3e-05,0,5,26
23236,-1e-05,0,-0.00012,-7e-05,6e-05,6e-05,3e-05,0,5,26
23239,-1e-05,0,-0.00012,-7e-05,6e-05,6e-05,3e-05,0,5,26
23240,-1e-05,0,-0.00012,-7e-05,6e-05,6e-05,3e-05,0,5,26
23241,-1e-05,0,-0.00012,-7e-05,6e-05,6e-05,3e-05,0,5,26
23243,-1e-05,0,-0.00012,-7e-05,6e-05,6e-05,3e-05,0,5,26
23244,-1e-05,0,-0.00012,-7e-05,6e-05,6e-05,3e-05,0,5,26
23245,-1e-05,0,-0.00012,-7e-05,6e-05,6e-05,3e-05,0,5,26
23246,-1e-05,0,-0.00012,-7e-05,6e-05,6e-05,3e-05,0,5,26
23247,-1e-05,0,-0.00012,-7e-05,6e-05,6e-05,3e-05,0,5,26
23248,-1e-05,0,-0.00012,-7e-05,6e-05,6e-05,3e-05,0,5,26
23249,-1e-05,0,-0.00012,-7e-05,6e-05,6e-05,3e-05,0,5,26
23250,-1e-05,0,-0.00012,-7e-05,6e-05,6e-05,3e-05,0,5,26
23251,-1e-05,0,-0.00012,-7e-05,6e-05,6e-05,3e-05,0,5,26
23252,-1e-05,0,-0.00012,-7e-05,6e-05,6e-05,3e-05,0,5,26
23253,-1e-05,0,-0.00012,-7e-05,6e-05,6e-05,3e-05,0,5,26
23254,-1e-05,0,-0.00012,-7e-05,6e-05,6e-05,3e-05,0,5,26
23255,-1e-05,0,-0.00012,-7e-05,6e-05,6e-05,3e-05,0,5,26
23256,-1e-05,0,-0.00012,-7e-05,6e-05,6e-05,3e-05,0,5,26
23257,-1e-05,0,-0.00012,-7e-05,6e-05,6e-05,3e-05,0,5,26
23258,4e-05,0.0001,0.00029,0.00044,0.00028,0.00015,0,-1e-05,5,26
23259,2e-05,3e-05,-0.00019,0.00029,0.0007,2e-05,0,-3e-05,5,26
23260,0,5e-05,-4e-05,-0.00017,2e-05,-8e-05,-0.00014,-5e-05,5,26
23261,0,5e-05,-4e-05,-0.00017,2e-05,-8e-05,-0.00014,-5e-05,5,26
23262,0,5e-05,-4e-05,-0.00017,2e-05,-8e-05,-0.00014,-5e-05,5,26
23263,0,5e-05,-4e-05,-0.00017,2e-05,-8e-05,-0.00014,-5e-05,5,26
23264,0,5e-05,-4e-05,-0.00017,2e-05,-8e-05,-0.00014,-5e-05,5,26
23265,0,5e-05,-4e-05,-0.00017,2e-05,-8e-05,-0.00014,-5e-05,5,26
23266,0,5e-05,-4e-05,-0.00017,2e-05,-8e-05,-0.00014,-5e-05,5,26
23267,0,5e-05,-4e-05,-0.00017,2e-05,-8e-05,-0.00014,-5e-05,5,26
23268,0,5e-05,-4e-05,-0.00017,2e-05,-8e-05,-0.00014,-5e-05,5,26
23269,0,5e-05,-4e-05,-0.00017,2e-05,-8e-05,-0.00014,-5e-05,5,26
23270,0,5e-05,-4e-05,-0.00017,2e-05,-8e-05,-0.00014,-5e-05,5,26
23271,0,5e-05,-4e-05,-0.00017,2e-05,-8e-05,-0.00014,-5e-05,5,26
23272,0,5e-05,-4e-05,-0.00017,2e-05,-8e-05,-0.00014,-5e-05,5,26
23273,-3e-05,-3e-05,-4e-05,0.00025,-0.0002,-5e-05,-5e-05,0,5,26
23274,-3e-05,-3e-05,-4e-05,0.00025,-0.0002,-5e-05,-5e-05,0,5,26
23275,-1e-05,1e-05,1e-05,-0.00013,0.00015,0.00012,7e-05,2e-05,5,26
23276,-1e-05,1e-05,1e-05,-0.00013,0.00015,0.00012,7e-05,2e-05,5,26
23277,-1e-05,1e-05,1e-05,-0.00013,0.00015,0.00012,7e-05,2e-05,5,26
23278,-1e-05,1e-05,1e-05,-0.00013,0.00015,0.00012,7e-05,2e-05,5,26
23279,-1e-05,1e-05,1e-05,-0.00013,0.00015,0.00012,7e-05,2e-05,5,26
23280,-1e-05,1e-05,1e-05,-0.00013,0.00015,0.00012,7e-05,2e-05,5,26
23281,-1e-05,1e-05,1e-05,-0.00013,0.00015,0.00012,7e-05,2e-05,5,26
23282,-1e-05,1e-05,1e-05,-0.00013,0.00015,0.00012,7e-05,2e-05,5,26
23283,-1e-05,1e-05,1e-05,-0.00013,0.00015,0.00012,7e-05,2e-05,5,26
23284,-1e-05,1e-05,1e-05,-0.00013,0.00015,0.00012,7e-05,2e-05,5,26
23285,-1e-05,1e-05,1e-05,-0.00013,0.00015,0.00012,7e-05,2e-05,5,26
23286,-1e-05,1e-05,1e-05,-0.00013,0.00015,0.00012,7e-05,2e-05,5,26
23289,-6e-05,-0.00013,-0.0002,-0.00016,-0.00015,-0.0002,-8e-05,-5e-05,5,26
23290,-6e-05,-0.00013,-0.0002,-0.00016,-0.00015,-0.0002,-8e-05,-5e-05,5,26
23291,-6e-05,-0.00013,-0.0002,-0.00016,-0.00015,-0.0002,-8e-05,-5e-05,5,26
23292,-6e-05,-0.00013,-0.0002,-0.00016,-0.00015,-0.0002,-8e-05,-5e-05,5,26
23293,-6e-05,-0.00013,-0.0002,-0.00016,-0.00015,-0.0002,-8e-05,-5e-05,5,26
23294,-2e-05,0,-3e-05,-0.0001,-0.00059,-4e-05,-6e-05,-6e-05,5,26
23295,4e-05,0.00019,0.00039,0.00086,0.00092,0.00017,3e-05,3e-05,5,26
23296,4e-05,0.00019,0.00039,0.00086,0.00092,0.00017,3e-05,3e-05,5,26
23297,4e-05,0.00019,0.00039,0.00086,0.00092,0.00017,3e-05,3e-05,5,26
23298,4e-05,0.00019,0.00039,0.00086,0.00092,0.00017,3e-05,3e-05,5,26
23299,4e-05,0.00019,0.00039,0.00086,0.00092,0.00017,3e-05,3e-05,5,26
23300,4e-05,0.00019,0.00039,0.00086,0.00092,0.00017,3e-05,3e-05,5,26
23301,4e-05,0.00019,0.00039,0.00086,0.00092,0.00017,3e-05,3e-05,5,26
23303,4e-05,0.00019,0.00039,0.00086,0.00092,0.00017,3e-05,3e-05,5,26
23304,4e-05,0.00019,0.00039,0.00086,0.00092,0.00017,3e-05,3e-05,5,26
23305,4e-05,0.00019,0.00039,0.00086,0.00092,0.00017,3e-05,3e-05,5,26
23306,4e-05,0.00019,0.00039,0.00086,0.00092,0.00017,3e-05,3e-05,5,26
23307,4e-05,0.00019,0.00039,0.00086,0.00092,0.00017,3e-05,3e-05,5,26
23308,4e-05,0.00019,0.00039,0.00086,0.00092,0.00017,3e-05,3e-05,5,26
23309,4e-05,0.00019,0.00039,0.00086,0.00092,0.00017,3e-05,3e-05,5,26
23310,4e-05,0.00019,0.00039,0.00086,0.00092,0.00017,3e-05,3e-05,5,26
23311,-5e-05,9e-05,3e-05,0.00068,0.00047,0.00021,-7e-05,-5e-05,5,26
23312,-5e-05,9e-05,3e-05,0.00068,0.00047,0.00021,-7e-05,-5e-05,5,26
23313,-0.00017,-0.00029,-0.00039,-0.00041,-0.00038,-0.0002,-0.00019,-9e-05,5,26
23314,-0.00017,-0.00029,-0.00039,-0.00041,-0.00038,-0.0002,-0.00019,-9e-05,5,26
23315,-0.00017,-0.00029,-0.00039,-0.00041,-0.00038,-0.0002,-0.00019,-9e-05,5,26
23316,-0.00017,-0.00029,-0.00039,-0.00041,-0.00038,-0.0002,-0.00019,-9e-05,5,26
23317,-0.00017,-0.00029,-0.00039,-0.00041,-0.00038,-0.0002,-0.00019,-9e-05,5,26
23318,-0.00017,-0.00029,-0.00039,-0.00041,-0.00038,-0.0002,-0.00019,-9e-05,5,26
23319,-0.00017,-0.00029,-0.00039,-0.00041,-0.00038,-0.0002,-0.00019,-9e-05,5,26
23320,-0.00017,-0.00029,-0.00039,-0.00041,-0.00038,-0.0002,-0.00019,-9e-05,5,26
23321,-0.00017,-0.00029,-0.00039,-0.00041,-0.00038,-0.0002,-0.00019,-9e-05,5,26
23322,-0.00017,-0.00029,-0.00039,-0.00041,-0.00038,-0.0002,-0.00019,-9e-05,5,26
23323,-0.00017,-0.00029,-0.00039,-0.00041,-0.00038,-0.0002,-0.00019,-9e-05,5,26
23324,-0.00017,-0.00029,-0.00039,-0.00041,-0.00038,-0.0002,-0.00019,-9e-05,5,26
23325,-0.00017,-0.00029,-0.00039,-0.00041,-0.00038,-0.0002,-0.00019,-9e-05,5,26
23326,-0.00017,-0.00029,-0.00039,-0.00041,-0.00038,-0.0002,-0.00019,-9e-05,5,26
23327,-0.00017,-0.00029,-0.00039,-0.00041,-0.00038,-0.0002,-0.00019,-9e-05,5,26
23328,-0.00017,-0.00029,-0.00039,-0.00041,-0.00038,-0.0002,-0.00019,-9e-05,5,26
23329,-0.00017,-0.00029,-0.00039,-0.00041,-0.00038,-0.0002,-0.00019,-9e-05,5,26
23330,-0.00017,-0.00029,-0.00039,-0.00041,-0.00038,-0.0002,-0.00019,-9e-05,5,26
23331,-0.00017,-0.00029,-0.00039,-0.00041,-0.00038,-0.0002,-0.00019,-9e-05,5,26
23332,-0.00017,-0.00029,-0.00039,-0.00041,-0.00038,-0.0002,-0.00019,-9e-05,5,26
23333,0,-4e-05,6e-05,-9e-05,-4e-05,0.00012,3e-05,2e-05,5,26
23334,-1e-05,0.00015,6e-05,-0.00015,-0.00022,-0.0003,-0.00014,-5e-05,5,26
23335,7e-05,6e-05,-1e-05,-0.00021,-0.00054,1e-05,4e-05,2e-05,5,26
23336,7e-05,6e-05,-1e-05,-0.00021,-0.00054,1e-05,4e-05,2e-05,5,26
23338,7e-05,6e-05,-1e-05,-0.00021,-0.00054,1e-05,4e-05,2e-05,5,26
23340,7e-05,6e-05,-1e-05,-0.00021,-0.00054,1e-05,4e-05,2e-05,5,26
23341,7e-05,6e-05,-1e-05,-0.00021,-0.00054,1e-05,4e-05,2e-05,5,26
23342,7e-05,6e-05,-1e-05,-0.00021,-0.00054,1e-05,4e-05,2e-05,5,26
23343,7e-05,6e-05,-1e-05,-0.00021,-0.00054,1e-05,4e-05,2e-05,5,26
23344,7e-05,6e-05,-1e-05,-0.00021,-0.00054,1e-05,4e-05,2e-05,5,26
23345,7e-05,6e-05,-1e-05,-0.00021,-0.00054,1e-05,4e-05,2e-05,5,26
23346,7e-05,6e-05,-1e-05,-0.00021,-0.00054,1e-05,4e-05,2e-05,5,26
23347,7e-05,6e-05,-1e-05,-0.00021,-0.00054,1e-05,4e-05,2e-05,5,26
23348,-1e-05,9e-05,0.00037,-0.00021,-0.0003,6e-05,-0.00013,-0.0001,5,26
23349,-1e-05,9e-05,0.00037,-0.00021,-0.0003,6e-05,-0.00013,-0.0001,5,26
51751,0.00013,0.00019,0.0006,0.00027,9e-05,0.0001,7e-05,0.0001,5,26
51752,0.00013,0.00019,0.0006,0.00027,9e-05,0.0001,7e-05,0.0001,5,26
51753,0.00013,0.00019,0.0006,0.00027,9e-05,0.0001,7e-05,0.0001,5,26
51754,0.00013,0.00019,0.0006,0.00027,9e-05,0.0001,7e-05,0.0001,5,26
51755,0.00013,0.00019,0.0006,0.00027,9e-05,0.0001,7e-05,0.0001,5,26
51756,0.00013,0.00019,0.0006,0.00027,9e-05,0.0001,7e-05,0.0001,5,26
51757,0.00013,0.00019,0.0006,0.00027,9e-05,0.0001,7e-05,0.0001,5,26
51758,0.00013,0.00019,0.0006,0.00027,9e-05,0.0001,7e-05,0.0001,5,26
51759,0.00013,0.00019,0.0006,0.00027,9e-05,0.0001,7e-05,0.0001,5,26
51760,0.00013,0.00019,0.0006,0.00027,9e-05,0.0001,7e-05,0.0001,5,26
51761,0.00013,0.00019,0.0006,0.00027,9e-05,0.0001,7e-05,0.0001,5,26
51762,0.00013,0.00019,0.0006,0.00027,9e-05,0.0001,7e-05,0.0001,5,26
51763,0.00013,0.00019,0.0006,0.00027,9e-05,0.0001,7e-05,0.0001,5,26
51764,0.00013,0.00019,0.0006,0.00027,9e-05,0.0001,7e-05,0.0001,5,26
51765,0.00013,0.00019,0.0006,0.00027,9e-05,0.0001,7e-05,0.0001,5,26
51766,0.00013,0.00019,0.0006,0.00027,9e-05,0.0001,7e-05,0.0001,5,26
51767,7e-05,0.00018,0.00029,-4e-05,-0.0001,0.0001,-1e-05,3e-05,5,26
51768,-7e-05,-0.00016,-0.00054,-8e-05,-9e-05,6e-05,5e-05,2e-05,5,26
51769,-0.00012,-0.00027,-0.00025,-9e-05,-0.00039,-0.0004,-0.00016,-0.00019,5,26
51770,-0.00012,-0.00027,-0.00025,-9e-05,-0.00039,-0.0004,-0.00016,-0.00019,5,26
51771,-0.00012,-0.00027,-0.00025,-9e-05,-0.00039,-0.0004,-0.00016,-0.00019,5,26
51772,-0.00012,-0.00027,-0.00025,-9e-05,-0.00039,-0.0004,-0.00016,-0.00019,5,26
51773,-0.00012,-0.00027,-0.00025,-9e-05,-0.00039,-0.0004,-0.00016,-0.00019,5,26
51774,-0.00012,-0.00027,-0.00025,-9e-05,-0.00039,-0.0004,-0.00016,-0.00019,5,26
51775,-0.00012,-0.00027,-0.00025,-9e-05,-0.00039,-0.0004,-0.00016,-0.00019,5,26
51776,-0.00012,-0.00027,-0.00025,-9e-05,-0.00039,-0.0004,-0.00016,-0.00019,5,26
51777,-0.00012,-0.00027,-0.00025,-9e-05,-0.00039,-0.0004,-0.00016,-0.00019,5,26
51778,-0.00012,-0.00027,-0.00025,-9e-05,-0.00039,-0.0004,-0.00016,-0.00019,5,26
51779,-0.00012,-0.00027,-0.00025,-9e-05,-0.00039,-0.0004,-0.00016,-0.00019,5,26
51780,-0.00012,-0.00027,-0.00025,-9e-05,-0.00039,-0.0004,-0.00016,-0.00019,5,26
51781,-0.00012,-0.00027,-0.00025,-9e-05,-0.00039,-0.0004,-0.00016,-0.00019,5,26
51782,-0.00012,-0.00027,-0.00025,-9e-05,-0.00039,-0.0004,-0.00016,-0.00019,5,26
51783,-0.00012,-0.00027,-0.00025,-9e-05,-0.00039,-0.0004,-0.00016,-0.00019,5,26
51784,-0.00012,-0.00027,-0.00025,-9e-05,-0.00039,-0.0004,-0.00016,-0.00019,5,26
51785,-0.00012,-0.00027,-0.00025,-9e-05,-0.00039,-0.0004,-0.00016,-0.00019,5,26
51786,-0.00012,-0.00027,-0.00025,-9e-05,-0.00039,-0.0004,-0.00016,-0.00019,5,26
51789,8e-05,0.00011,0.00026,8e-05,3e-05,4e-05,4e-05,9e-05,5,26
51790,0,3e-05,-7e-05,-0.00072,-0.00015,-1e-05,-3e-05,3e-05,5,26
51791,2e-05,-0.00016,2e-05,0.00038,-3e-05,0.0002,-1e-05,6e-05,5,26
51792,2e-05,-0.00016,2e-05,0.00038,-3e-05,0.0002,-1e-05,6e-05,5,26
51793,2e-05,-0.00016,2e-05,0.00038,-3e-05,0.0002,-1e-05,6e-05,5,26
51794,2e-05,-0.00016,2e-05,0.00038,-3e-05,0.0002,-1e-05,6e-05,5,26
51795,2e-05,-0.00016,2e-05,0.00038,-3e-05,0.0002,-1e-05,6e-05,5,26
51796,2e-05,-0.00016,2e-05,0.00038,-3e-05,0.0002,-1e-05,6e-05,5,26
51797,2e-05,-0.00016,2e-05,0.00038,-3e-05,0.0002,-1e-05,6e-05,5,26
51798,2e-05,-0.00016,2e-05,0.00038,-3e-05,0.0002,-1e-05,6e-05,5,26
51799,2e-05,-0.00016,2e-05,0.00038,-3e-05,0.0002,-1e-05,6e-05,5,26
51800,2e-05,-0.00016,2e-05,0.00038,-3e-05,0.0002,-1e-05,6e-05,5,26
51801,2e-05,-0.00016,2e-05,0.00038,-3e-05,0.0002,-1e-05,6e-05,5,26
51802,2e-05,-0.00016,2e-05,0.00038,-3e-05,0.0002,-1e-05,6e-05,5,26
51803,2e-05,-0.00016,2e-05,0.00038,-3e-05,0.0002,-1e-05,6e-05,5,26
51804,3e-05,7e-05,0.00019,0.00018,-4e-05,-0.00017,1e-05,-4e-05,5,26
51805,-0.00011,1e-05,0,0.0007,0.0002,5e-05,-6e-05,-0.00015,5,26
51806,-0.00011,1e-05,0,0.0007,0.0002,5e-05,-6e-05,-0.00015,5,26
51807,-0.00011,1e-05,0,0.0007,0.0002,5e-05,-6e-05,-0.00015,5,26
51808,-0.00011,1e-05,0,0.0007,0.0002,5e-05,-6e-05,-0.00015,5,26
51809,-0.00011,1e-05,0,0.0007,0.0002,5e-05,-6e-05,-0.00015,5,26
51810,2e-05,0,-0.0002,-4e-05,0.0006,0.00041,-5e-05,2e-05,5,26
51812,2e-05,0,-0.0002,-4e-05,0.0006,0.00041,-5e-05,2e-05,5,26
51813,2e-05,0,-0.0002,-4e-05,0.0006,0.00041,-5e-05,2e-05,5,26
51814,2e-05,0,-0.0002,-4e-05,0.0006,0.00041,-5e-05,2e-05,5,26
51815,2e-05,0,-0.0002,-4e-05,0.0006,0.00041,-5e-05,2e-05,5,26
51816,2e-05,0,-0.0002,-4e-05,0.0006,0.00041,-5e-05,2e-05,5,26
51817,2e-05,0,-0.0002,-4e-05,0.0006,0.00041,-5e-05,2e-05,5,26
51818,2e-05,0,-0.0002,-4e-05,0.0006,0.00041,-5e-05,2e-05,5,26
51819,2e-05,0,-0.0002,-4e-05,0.0006,0.00041,-5e-05,2e-05,5,26
51820,2e-05,0,-0.0002,-4e-05,0.0006,0.00041,-5e-05,2e-05,5,26
51821,2e-05,0,-0.0002,-4e-05,0.0006,0.00041,-5e-05,2e-05,5,26
51822,2e-05,0,-0.0002,-4e-05,0.0006,0.00041,-5e-05,2e-05,5,26
51823,2e-05,0,-0.0002,-4e-05,0.0006,0.00041,-5e-05,2e-05,5,26
51824,2e-05,0,-0.0002,-4e-05,0.0006,0.00041,-5e-05,2e-05,5,26
51825,2e-05,0,-0.0002,-4e-05,0.0006,0.00041,-5e-05,2e-05,5,26
51826,2e-05,0,-0.0002,-4e-05,0.0006,0.00041,-5e-05,2e-05,5,26
51827,-7e-05,-9e-05,2e-05,0.00041,0.00028,9e-05,-1e-05,-7e-05,5,26
51828,8e-05,9e-05,7e-05,-4e-05,-0.00085,-0.00025,-1e-05,6e-05,5,26
51829,8e-05,9e-05,7e-05,-4e-05,-0.00085,-0.00025,-1e-05,6e-05,5,26
51830,8e-05,9e-05,7e-05,-4e-05,-0.00085,-0.00025,-1e-05,6e-05,5,26
51831,8e-05,9e-05,7e-05,-4e-05,-0.00085,-0.00025,-1e-05,6e-05,5,26
51832,8e-05,9e-05,7e-05,-4e-05,-0.00085,-0.00025,-1e-05,6e-05,5,26
51833,8e-05,9e-05,7e-05,-4e-05,-0.00085,-0.00025,-1e-05,6e-05,5,26
51834,8e-05,9e-05,7e-05,-4e-05,-0.00085,-0.00025,-1e-05,6e-05,5,26
51835,8e-05,9e-05,7e-05,-4e-05,-0.00085,-0.00025,-1e-05,6e-05,5,26
51836,8e-05,9e-05,7e-05,-4e-05,-0.00085,-0.00025,-1e-05,6e-05,5,26
51839,8e-05,9e-05,7e-05,-4e-05,-0.00085,-0.00025,-1e-05,6e-05,5,26
51840,8e-05,9e-05,7e-05,-4e-05,-0.00085,-0.00025,-1e-05,6e-05,5,26
51841,8e-05,9e-05,7e-05,-4e-05,-0.00085,-0.00025,-1e-05,6e-05,5,26
51842,8e-05,9e-05,7e-05,-4e-05,-0.00085,-0.00025,-1e-05,6e-05,5,26
51843,8e-05,9e-05,7e-05,-4e-05,-0.00085,-0.00025,-1e-05,6e-05,5,26
51844,8e-05,9e-05,7e-05,-4e-05,-0.00085,-0.00025,-1e-05,6e-05,5,26
51845,8e-05,9e-05,7e-05,-4e-05,-0.00085,-0.00025,-1e-05,6e-05,5,26
51846,8e-05,9e-05,7e-05,-4e-05,-0.00085,-0.00025,-1e-05,6e-05,5,26
51847,8e-05,9e-05,7e-05,-4e-05,-0.00085,-0.00025,-1e-05,6e-05,5,26
51848,8e-05,9e-05,7e-05,-4e-05,-0.00085,-0.00025,-1e-05,6e-05,5,26
51849,8e-05,9e-05,7e-05,-4e-05,-0.00085,-0.00025,-1e-05,6e-05,5,26
51850,8e-05,9e-05,7e-05,-4e-05,-0.00085,-0.00025,-1e-05,6e-05,5,26
51851,8e-05,9e-05,7e-05,-4e-05,-0.00085,-0.00025,-1e-05,6e-05,5,26
51852,8e-05,9e-05,7e-05,-4e-05,-0.00085,-0.00025,-1e-05,6e-05,5,26
51853,8e-05,9e-05,7e-05,-4e-05,-0.00085,-0.00025,-1e-05,6e-05,5,26
51854,8e-05,9e-05,7e-05,-4e-05,-0.00085,-0.00025,-1e-05,6e-05,5,26
51855,8e-05,9e-05,7e-05,-4e-05,-0.00085,-0.00025,-1e-05,6e-05,5,26
51856,8e-05,9e-05,7e-05,-4e-05,-0.00085,-0.00025,-1e-05,6e-05,5,26
51857,0.00016,0.00035,0.00066,0.00035,0.00063,0.00027,0.00011,9e-05,5,26
51858,-4e-05,-0.0001,-2e-05,-0.00041,-0.00085,-0.00027,-0.00016,-5e-05,5,26
51859,-4e-05,-0.0001,-2e-05,-0.00041,-0.00085,-0.00027,-0.00016,-5e-05,5,26
51860,-4e-05,-0.0001,-2e-05,-0.00041,-0.00085,-0.00027,-0.00016,-5e-05,5,26
51861,-4e-05,-0.0001,-2e-05,-0.00041,-0.00085,-0.00027,-0.00016,-5e-05,5,26
51862,-4e-05,-0.0001,-2e-05,-0.00041,-0.00085,-0.00027,-0.00016,-5e-05,5,26
51863,-3e-05,9e-05,-5e-05,0.00047,0.00043,7e-05,-1e-05,-5e-05,5,26
51864,-0.00015,-0.00028,-0.00039,-0.00095,-0.0009,-0.0003,-0.00011,-9e-05,5,26
51865,-0.00015,-0.00028,-0.00039,-0.00095,-0.0009,-0.0003,-0.00011,-9e-05,5,26
51866,-0.00015,-0.00028,-0.00039,-0.00095,-0.0009,-0.0003,-0.00011,-9e-05,5,26
51867,-0.00015,-0.00028,-0.00039,-0.00095,-0.0009,-0.0003,-0.00011,-9e-05,5,26
51868,-0.00015,-0.00028,-0.00039,-0.00095,-0.0009,-0.0003,-0.00011,-9e-05,5,26
51869,-0.00015,-0.00028,-0.00039,-0.00095,-0.0009,-0.0003,-0.00011,-9e-05,5,26
51870,-5e-05,3e-05,0.00022,0.00021,0.00034,2e-05,0,-4e-05,5,26
51871,-5e-05,3e-05,0.00022,0.00021,0.00034,2e-05,0,-4e-05,5,26
51872,-5e-05,3e-05,0.00022,0.00021,0.00034,2e-05,0,-4e-05,5,26
51873,-5e-05,3e-05,0.00022,0.00021,0.00034,2e-05,0,-4e-05,5,26
51874,-5e-05,3e-05,0.00022,0.00021,0.00034,2e-05,0,-4e-05,5,26
51875,-5e-05,3e-05,0.00022,0.00021,0.00034,2e-05,0,-4e-05,5,26
51876,-5e-05,3e-05,0.00022,0.00021,0.00034,2e-05,0,-4e-05,5,26
51877,-5e-05,3e-05,0.00022,0.00021,0.00034,2e-05,0,-4e-05,5,26
51878,-5e-05,3e-05,0.00022,0.00021,0.00034,2e-05,0,-4e-05,5,26
51879,-5e-05,3e-05,0.00022,0.00021,0.00034,2e-05,0,-4e-05,5,26
51880,-5e-05,3e-05,0.00022,0.00021,0.00034,2e-05,0,-4e-05,5,26
51881,-5e-05,3e-05,0.00022,0.00021,0.00034,2e-05,0,-4e-05,5,26
51882,-5e-05,3e-05,0.00022,0.00021,0.00034,2e-05,0,-4e-05,5,26
51883,-5e-05,3e-05,0.00022,0.00021,0.00034,2e-05,0,-4e-05,5,26
51884,-5e-05,3e-05,0.00022,0.00021,0.00034,2e-05,0,-4e-05,5,26
51885,-5e-05,3e-05,0.00022,0.00021,0.00034,2e-05,0,-4e-05,5,26
51886,-5e-05,3e-05,0.00022,0.00021,0.00034,2e-05,0,-4e-05,5,26
51888,-1e-05,-0.0001,-3e-05,0.0006,7e-05,0.00018,-7e-05,-3e-05,5,26
51889,4e-05,0.00012,4e-05,7e-05,-0.00028,-6e-05,6e-05,2e-05,5,26
51891,4e-05,0.00012,4e-05,7e-05,-0.00028,-6e-05,6e-05,2e-05,5,26
51892,4e-05,0.00012,4e-05,7e-05,-0.00028,-6e-05,6e-05,2e-05,5,26
51893,4e-05,0.00012,4e-05,7e-05,-0.00028,-6e-05,6e-05,2e-05,5,26
51894,4e-05,0.00012,4e-05,7e-05,-0.00028,-6e-05,6e-05,2e-05,5,26
51895,4e-05,0.00012,4e-05,7e-05,-0.00028,-6e-05,6e-05,2e-05,5,26
51896,4e-05,0.00012,4e-05,7e-05,-0.00028,-6e-05,6e-05,2e-05,5,26
51897,4e-05,0.00012,4e-05,7e-05,-0.00028,-6e-05,6e-05,2e-05,5,26
51898,4e-05,0.00012,4e-05,7e-05,-0.00028,-6e-05,6e-05,2e-05,5,26
51899,4e-05,0.00012,4e-05,7e-05,-0.00028,-6e-05,6e-05,2e-05,5,26
51900,4e-05,0.00012,4e-05,7e-05,-0.00028,-6e-05,6e-05,2e-05,5,26
51901,4e-05,0.00012,4e-05,7e-05,-0.00028,-6e-05,6e-05,2e-05,5,26
51902,4e-05,0.00012,4e-05,7e-05,-0.00028,-6e-05,6e-05,2e-05,5,26
51903,4e-05,0.00012,4e-05,7e-05,-0.00028,-6e-05,6e-05,2e-05,5,26
51904,4e-05,0.00012,4e-05,7e-05,-0.00028,-6e-05,6e-05,2e-05,5,26
51905,4e-05,0.00012,4e-05,7e-05,-0.00028,-6e-05,6e-05,2e-05,5,26
51906,4e-05,0.00012,4e-05,7e-05,-0.00028,-6e-05,6e-05,2e-05,5,26
51907,4e-05,0.00012,4e-05,7e-05,-0.00028,-6e-05,6e-05,2e-05,5,26
51908,4e-05,0.00012,4e-05,7e-05,-0.00028,-6e-05,6e-05,2e-05,5,26
51909,4e-05,0.00012,4e-05,7e-05,-0.00028,-6e-05,6e-05,2e-05,5,26
51910,4e-05,0.00012,4e-05,7e-05,-0.00028,-6e-05,6e-05,2e-05,5,26
51911,4e-05,0.00012,4e-05,7e-05,-0.00028,-6e-05,6e-05,2e-05,5,26
51913,4e-05,0.00012,4e-05,7e-05,-0.00028,-6e-05,6e-05,2e-05,5,26
51914,4e-05,0.00012,4e-05,7e-05,-0.00028,-6e-05,6e-05,2e-05,5,26
51915,4e-05,0.00012,4e-05,7e-05,-0.00028,-6e-05,6e-05,2e-05,5,26
51916,4e-05,0.00012,4e-05,7e-05,-0.00028,-6e-05,6e-05,2e-05,5,26
51917,5e-05,3e-05,-0.00014,-3e-05,-0.00023,-0.00015,9e-05,6e-05,5,26
51918,4e-05,0.0001,0.00022,0.00018,7e-05,-6e-05,3e-05,1e-05,5,26
51919,4e-05,0.0001,0.00022,0.00018,7e-05,-6e-05,3e-05,1e-05,5,26
51920,4e-05,0.0001,0.00022,0.00018,7e-05,-6e-05,3e-05,1e-05,5,26
51921,4e-05,0.0001,0.00022,0.00018,7e-05,-6e-05,3e-05,1e-05,5,26
51922,4e-05,0.0001,0.00022,0.00018,7e-05,-6e-05,3e-05,1e-05,5,26
51923,4e-05,0.0001,0.00022,0.00018,7e-05,-6e-05,3e-05,1e-05,5,26
51924,0,-3e-05,-0.00018,-0.00029,-0.00018,0.00015,-1e-05,3e-05,5,26
51925,0,-3e-05,-0.00018,-0.00029,-0.00018,0.00015,-1e-05,3e-05,5,26
51926,0,-3e-05,-0.00018,-0.00029,-0.00018,0.00015,-1e-05,3e-05,5,26
51927,0,-3e-05,-0.00018,-0.00029,-0.00018,0.00015,-1e-05,3e-05,5,26
51928,0,-3e-05,-0.00018,-0.00029,-0.00018,0.00015,-1e-05,3e-05,5,26
51929,0,-3e-05,-0.00018,-0.00029,-0.00018,0.00015,-1e-05,3e-05,5,26
51930,-3e-05,-3e-05,0.00017,-0.00012,9e-05,-8e-05,0.00016,0,5,26
51931,-3e-05,-3e-05,0.00017,-0.00012,9e-05,-8e-05,0.00016,0,5,26
51933,-3e-05,-3e-05,0.00017,-0.00012,9e-05,-8e-05,0.00016,0,5,26
51934,-3e-05,-3e-05,0.00017,-0.00012,9e-05,-8e-05,0.00016,0,5,26
51935,-3e-05,-3e-05,0.00017,-0.00012,9e-05,-8e-05,0.00016,0,5,26
51936,-3e-05,-3e-05,0.00017,-0.00012,9e-05,-8e-05,0.00016,0,5,26
51939,-3e-05,-3e-05,0.00017,-0.00012,9e-05,-8e-05,0.00016,0,5,26
51940,-3e-05,-3e-05,0.00017,-0.00012,9e-05,-8e-05,0.00016,0,5,26
51941,-3e-05,-3e-05,0.00017,-0.00012,9e-05,-8e-05,0.00016,0,5,26
51943,-3e-05,-3e-05,0.00017,-0.00012,9e-05,-8e-05,0.00016,0,5,26
51944,-3e-05,-3e-05,0.00017,-0.00012,9e-05,-8e-05,0.00016,0,5,26
51945,-3e-05,-3e-05,0.00017,-0.00012,9e-05,-8e-05,0.00016,0,5,26
51946,-3e-05,-3e-05,0.00017,-0.00012,9e-05,-8e-05,0.00016,0,5,26
51947,1e-05,-6e-05,-0.00024,-0.00017,0.00026,-6e-05,3e-05,-1e-05,5,26
51948,-5e-05,-5e-05,-2e-05,0.00051,0.00028,0.00011,-4e-05,-5e-05,5,26
51949,-5e-05,-5e-05,-2e-05,0.00051,0.00028,0.00011,-4e-05,-5e-05,5,26
51950,-5e-05,-5e-05,-2e-05,0.00051,0.00028,0.00011,-4e-05,-5e-05,5,26
51951,-5e-05,-5e-05,-2e-05,0.00051,0.00028,0.00011,-4e-05,-5e-05,5,26
51952,-5e-05,-5e-05,-2e-05,0.00051,0.00028,0.00011,-4e-05,-5e-05,5,26
51953,-5e-05,-5e-05,-2e-05,0.00051,0.00028,0.00011,-4e-05,-5e-05,5,26
51954,-5e-05,-5e-05,-2e-05,0.00051,0.00028,0.00011,-4e-05,-5e-05,5,26
51955,-5e-05,-5e-05,-2e-05,0.00051,0.00028,0.00011,-4e-05,-5e-05,5,26
51956,-5e-05,-5e-05,-2e-05,0.00051,0.00028,0.00011,-4e-05,-5e-05,5,26
51957,-5e-05,-5e-05,-2e-05,0.00051,0.00028,0.00011,-4e-05,-5e-05,5,26
51958,-5e-05,-5e-05,-2e-05,0.00051,0.00028,0.00011,-4e-05,-5e-05,5,26
51959,-5e-05,-5e-05,-2e-05,0.00051,0.00028,0.00011,-4e-05,-5e-05,5,26
51960,-5e-05,-5e-05,-2e-05,0.00051,0.00028,0.00011,-4e-05,-5e-05,5,26
51961,-5e-05,-5e-05,-2e-05,0.00051,0.00028,0.00011,-4e-05,-5e-05,5,26
51963,-5e-05,-5e-05,-2e-05,0.00051,0.00028,0.00011,-4e-05,-5e-05,5,26
51964,-5e-05,-5e-05,-2e-05,0.00051,0.00028,0.00011,-4e-05,-5e-05,5,26
51965,-5e-05,-5e-05,-2e-05,0.00051,0.00028,0.00011,-4e-05,-5e-05,5,26
51966,-5e-05,-5e-05,-2e-05,0.00051,0.00028,0.00011,-4e-05,-5e-05,5,26
51967,-5e-05,-5e-05,-2e-05,0.00051,0.00028,0.00011,-4e-05,-5e-05,5,26
51968,-5e-05,-5e-05,-2e-05,0.00051,0.00028,0.00011,-4e-05,-5e-05,5,26
51969,-0.0001,-6e-05,-2e-05,0.0002,-0.00012,-8e-05,-5e-05,-0.00012,5,26
51970,-0.0001,-6e-05,-2e-05,0.0002,-0.00012,-8e-05,-5e-05,-0.00012,5,26
51971,0,-8e-05,-0.0002,0,0.00043,-4e-05,-5e-05,-5e-05,5,26
51972,0,-8e-05,-0.0002,0,0.00043,-4e-05,-5e-05,-5e-05,5,26
51973,0,-8e-05,-0.0002,0,0.00043,-4e-05,-5e-05,-5e-05,5,26
51974,0,-8e-05,-0.0002,0,0.00043,-4e-05,-5e-05,-5e-05,5,26
51975,0,-8e-05,-0.0002,0,0.00043,-4e-05,-5e-05,-5e-05,5,26
51976,0,-8e-05,-0.0002,0,0.00043,-4e-05,-5e-05,-5e-05,5,26
51977,0,-8e-05,-0.0002,0,0.00043,-4e-05,-5e-05,-5e-05,5,26
51978,0,-8e-05,-0.0002,0,0.00043,-4e-05,-5e-05,-5e-05,5,26
51979,0,-8e-05,-0.0002,0,0.00043,-4e-05,-5e-05,-5e-05,5,26
51980,0,-8e-05,-0.0002,0,0.00043,-4e-05,-5e-05,-5e-05,5,26
51981,0,-8e-05,-0.0002,0,0.00043,-4e-05,-5e-05,-5e-05,5,26
51982,0,-8e-05,-0.0002,0,0.00043,-4e-05,-5e-05,-5e-05,5,26
51983,-8e-05,-3e-05,0.00031,3e-05,-0.00028,-0.00024,-4e-05,-8e-05,5,26
51984,-3e-05,1e-05,0.00017,0.00036,0.00023,7e-05,-2e-05,1e-05,5,26
51985,-3e-05,1e-05,0.00017,0.00036,0.00023,7e-05,-2e-05,1e-05,5,26
51986,-3e-05,1e-05,0.00017,0.00036,0.00023,7e-05,-2e-05,1e-05,5,26
51989,-3e-05,1e-05,0.00017,0.00036,0.00023,7e-05,-2e-05,1e-05,5,26
51990,-4e-05,8e-05,-0.00015,-0.00024,-0.00023,-0.00031,-2e-05,-2e-05,5,26
51991,-4e-05,8e-05,-0.00015,-0.00024,-0.00023,-0.00031,-2e-05,-2e-05,5,26
51992,-4e-05,8e-05,-0.00015,-0.00024,-0.00023,-0.00031,-2e-05,-2e-05,5,26
51993,-4e-05,8e-05,-0.00015,-0.00024,-0.00023,-0.00031,-2e-05,-2e-05,5,26
51994,-4e-05,8e-05,-0.00015,-0.00024,-0.00023,-0.00031,-2e-05,-2e-05,5,26
51995,-4e-05,8e-05,-0.00015,-0.00024,-0.00023,-0.00031,-2e-05,-2e-05,5,26
51996,-4e-05,8e-05,-0.00015,-0.00024,-0.00023,-0.00031,-2e-05,-2e-05,5,26
51997,-4e-05,8e-05,-0.00015,-0.00024,-0.00023,-0.00031,-2e-05,-2e-05,5,26
51998,-4e-05,8e-05,-0.00015,-0.00024,-0.00023,-0.00031,-2e-05,-2e-05,5,26
51999,-4e-05,8e-05,-0.00015,-0.00024,-0.00023,-0.00031,-2e-05,-2e-05,5,26
52000,-4e-05,8e-05,-0.00015,-0.00024,-0.00023,-0.00031,-2e-05,-2e-05,5,26
52001,-4e-05,8e-05,-0.00015,-0.00024,-0.00023,-0.00031,-2e-05,-2e-05,5,26
52002,-4e-05,8e-05,-0.00015,-0.00024,-0.00023,-0.00031,-2e-05,-2e-05,5,26
52003,-4e-05,8e-05,-0.00015,-0.00024,-0.00023,-0.00031,-2e-05,-2e-05,5,26
52004,-4e-05,8e-05,-0.00015,-0.00024,-0.00023,-0.00031,-2e-05,-2e-05,5,26
52005,-4e-05,8e-05,-0.00015,-0.00024,-0.00023,-0.00031,-2e-05,-2e-05,5,26
52006,-4e-05,8e-05,-0.00015,-0.00024,-0.00023,-0.00031,-2e-05,-2e-05,5,26
52007,6e-05,-4e-05,-9e-05,0.00031,0.00079,-1e-05,0.00012,9e-05,5,26
52008,5e-05,6e-05,5e-05,0.00011,0.00026,7e-05,8e-05,6e-05,5,26
52009,5e-05,6e-05,5e-05,0.00011,0.00026,7e-05,8e-05,6e-05,5,26
52010,5e-05,6e-05,5e-05,0.00011,0.00026,7e-05,8e-05,6e-05,5,26
52011,5e-05,6e-05,5e-05,0.00011,0.00026,7e-05,8e-05,6e-05,5,26
52013,5e-05,6e-05,5e-05,0.00011,0.00026,7e-05,8e-05,6e-05,5,26
52014,5e-05,6e-05,5e-05,0.00011,0.00026,7e-05,8e-05,6e-05,5,26
52015,5e-05,6e-05,5e-05,0.00011,0.00026,7e-05,8e-05,6e-05,5,26
52016,5e-05,6e-05,5e-05,0.00011,0.00026,7e-05,8e-05,6e-05,5,26
52017,5e-05,6e-05,5e-05,0.00011,0.00026,7e-05,8e-05,6e-05,5,26
52018,5e-05,6e-05,5e-05,0.00011,0.00026,7e-05,8e-05,6e-05,5,26
52019,5e-05,6e-05,5e-05,0.00011,0.00026,7e-05,8e-05,6e-05,5,26
52020,5e-05,6e-05,5e-05,0.00011,0.00026,7e-05,8e-05,6e-05,5,26
52021,5e-05,6e-05,5e-05,0.00011,0.00026,7e-05,8e-05,6e-05,5,26
52022,5e-05,6e-05,5e-05,0.00011,0.00026,7e-05,8e-05,6e-05,5,26
52023,5e-05,6e-05,5e-05,0.00011,0.00026,7e-05,8e-05,6e-05,5,26
52024,5e-05,6e-05,5e-05,0.00011,0.00026,7e-05,8e-05,6e-05,5,26
52025,5e-05,6e-05,5e-05,0.00011,0.00026,7e-05,8e-05,6e-05,5,26
52026,5e-05,6e-05,5e-05,0.00011,0.00026,7e-05,8e-05,6e-05,5,26
52027,5e-05,6e-05,5e-05,0.00011,0.00026,7e-05,8e-05,6e-05,5,26
52028,5e-05,6e-05,5e-05,0.00011,0.00026,7e-05,8e-05,6e-05,5,26
52029,-0.00016,-0.00031,-0.00034,-0.00026,-0.00045,-0.00019,-2e-05,-9e-05,5,26
52030,-0.00016,-0.00031,-0.00034,-0.00026,-0.00045,-0.00019,-2e-05,-9e-05,5,26
52031,-2e-05,-0.0001,-0.00039,-0.00055,-0.00016,-0.00014,-4e-05,-1e-05,5,26
52032,-2e-05,-0.0001,-0.00039,-0.00055,-0.00016,-0.00014,-4e-05,-1e-05,5,26
52033,-2e-05,-0.0001,-0.00039,-0.00055,-0.00016,-0.00014,-4e-05,-1e-05,5,26
52034,-2e-05,-0.0001,-0.00039,-0.00055,-0.00016,-0.00014,-4e-05,-1e-05,5,26
52035,-2e-05,-0.0001,-0.00039,-0.00055,-0.00016,-0.00014,-4e-05,-1e-05,5,26
52036,-2e-05,-0.0001,-0.00039,-0.00055,-0.00016,-0.00014,-4e-05,-1e-05,5,26
52040,-2e-05,-0.0001,-0.00039,-0.00055,-0.00016,-0.00014,-4e-05,-1e-05,5,26
52041,-2e-05,-0.0001,-0.00039,-0.00055,-0.00016,-0.00014,-4e-05,-1e-05,5,26
52042,-2e-05,-0.0001,-0.00039,-0.00055,-0.00016,-0.00014,-4e-05,-1e-05,5,26
52043,-2e-05,-0.0001,-0.00039,-0.00055,-0.00016,-0.00014,-4e-05,-1e-05,5,26
52044,2e-05,6e-05,0.00011,5e-05,5e-05,0.00012,2e-05,0,5,26
52045,2e-05,6e-05,0.00011,5e-05,5e-05,0.00012,2e-05,0,5,26
52046,2e-05,6e-05,0.00011,5e-05,5e-05,0.00012,2e-05,0,5,26
52047,2e-05,6e-05,0.00011,5e-05,5e-05,0.00012,2e-05,0,5,26
52048,2e-05,6e-05,0.00011,5e-05,5e-05,0.00012,2e-05,0,5,26
52049,2e-05,6e-05,0.00011,5e-05,5e-05,0.00012,2e-05,0,5,26
52050,-3e-05,6e-05,0.00043,0.00014,6e-05,5e-05,-8e-05,-8e-05,5,26
52051,-3e-05,6e-05,0.00043,0.00014,6e-05,5e-05,-8e-05,-8e-05,5,26
52052,-3e-05,6e-05,0.00043,0.00014,6e-05,5e-05,-8e-05,-8e-05,5,26
52053,-3e-05,6e-05,0.00043,0.00014,6e-05,5e-05,-8e-05,-8e-05,5,26
52054,-3e-05,6e-05,0.00043,0.00014,6e-05,5e-05,-8e-05,-8e-05,5,26
52055,-3e-05,6e-05,0.00043,0.00014,6e-05,5e-05,-8e-05,-8e-05,5,26
52056,-3e-05,6e-05,0.00043,0.00014,6e-05,5e-05,-8e-05,-8e-05,5,26
52057,-3e-05,6e-05,0.00043,0.00014,6e-05,5e-05,-8e-05,-8e-05,5,26
52058,-3e-05,6e-05,0.00043,0.00014,6e-05,5e-05,-8e-05,-8e-05,5,26
52059,-3e-05,6e-05,0.00043,0.00014,6e-05,5e-05,-8e-05,-8e-05,5,26
52060,-3e-05,6e-05,0.00043,0.00014,6e-05,5e-05,-8e-05,-8e-05,5,26
52061,-3e-05,6e-05,0.00043,0.00014,6e-05,5e-05,-8e-05,-8e-05,5,26
52062,-3e-05,6e-05,0.00043,0.00014,6e-05,5e-05,-8e-05,-8e-05,5,26
52064,-3e-05,6e-05,0.00043,0.00014,6e-05,5e-05,-8e-05,-8e-05,5,26
52065,-3e-05,6e-05,0.00043,0.00014,6e-05,5e-05,-8e-05,-8e-05,5,26
52066,-3e-05,6e-05,0.00043,0.00014,6e-05,5e-05,-8e-05,-8e-05,5,26
52067,-0.00014,-0.00032,-0.00037,-0.00071,-0.00126,-0.00076,-0.0001,-7e-05,5,26
52068,-0.00014,-0.00032,-0.00037,-0.00071,-0.00126,-0.00076,-0.0001,-7e-05,5,26
52069,-3e-05,-0.00011,-0.00031,-0.0009,-0.00061,-0.00019,-5e-05,-2e-05,5,26
52070,-3e-05,-0.00011,-0.00031,-0.0009,-0.00061,-0.00019,-5e-05,-2e-05,5,26
52071,-3e-05,-0.00011,-0.00031,-0.0009,-0.00061,-0.00019,-5e-05,-2e-05,5,26
52072,-3e-05,-0.00011,-0.00031,-0.0009,-0.00061,-0.00019,-5e-05,-2e-05,5,26
52073,-3e-05,-0.00011,-0.00031,-0.0009,-0.00061,-0.00019,-5e-05,-2e-05,5,26
52074,-3e-05,-0.00011,-0.00031,-0.0009,-0.00061,-0.00019,-5e-05,-2e-05,5,26
52075,-3e-05,-0.00011,-0.00031,-0.0009,-0.00061,-0.00019,-5e-05,-2e-05,5,26
52076,-3e-05,-0.00011,-0.00031,-0.0009,-0.00061,-0.00019,-5e-05,-2e-05,5,26
52077,-3e-05,-0.00011,-0.00031,-0.0009,-0.00061,-0.00019,-5e-05,-2e-05,5,26
52078,-3e-05,-0.00011,-0.00031,-0.0009,-0.00061,-0.00019,-5e-05,-2e-05,5,26
52079,-3e-05,-0.00011,-0.00031,-0.0009,-0.00061,-0.00019,-5e-05,-2e-05,5,26
52080,-3e-05,-0.00011,-0.00031,-0.0009,-0.00061,-0.00019,-5e-05,-2e-05,5,26
52081,-3e-05,-0.00011,-0.00031,-0.0009,-0.00061,-0.00019,-5e-05,-2e-05,5,26
52082,-3e-05,-0.00011,-0.00031,-0.0009,-0.00061,-0.00019,-5e-05,-2e-05,5,26
52083,-3e-05,-0.00011,-0.00031,-0.0009,-0.00061,-0.00019,-5e-05,-2e-05,5,26
52084,-3e-05,-0.00011,-0.00031,-0.0009,-0.00061,-0.00019,-5e-05,-2e-05,5,26
52085,-3e-05,-0.00011,-0.00031,-0.0009,-0.00061,-0.00019,-5e-05,-2e-05,5,26
