18127,1e-05,-9e-05,-0.00013,-0.00013,-4e-05,-0.00013,-1e-05,-3e-05,5,28
18128,1e-05,-9e-05,-0.00013,-0.00013,-4e-05,-0.00013,-1e-05,-3e-05,5,28
18129,1e-05,-9e-05,-0.00013,-0.00013,-4e-05,-0.00013,-1e-05,-3e-05,5,28
18130,1e-05,-9e-05,-0.00013,-0.00013,-4e-05,-0.00013,-1e-05,-3e-05,5,28
18131,1e-05,-9e-05,-0.00013,-0.00013,-4e-05,-0.00013,-1e-05,-3e-05,5,28
18132,1e-05,-9e-05,-0.00013,-0.00013,-4e-05,-0.00013,-1e-05,-3e-05,5,28
18133,1e-05,-9e-05,-0.00013,-0.00013,-4e-05,-0.00013,-1e-05,-3e-05,5,28
18134,1e-05,-9e-05,-0.00013,-0.00013,-4e-05,-0.00013,-1e-05,-3e-05,5,28
18135,1e-05,-9e-05,-0.00013,-0.00013,-4e-05,-0.00013,-1e-05,-3e-05,5,28
18136,1e-05,-9e-05,-0.00013,-0.00013,-4e-05,-0.00013,-1e-05,-3e-05,5,28
18139,1e-05,-9e-05,-0.00013,-0.00013,-4e-05,-0.00013,-1e-05,-3e-05,5,28
18140,1e-05,-9e-05,-0.00013,-0.00013,-4e-05,-0.00013,-1e-05,-3e-05,5,28
18141,1e-05,-9e-05,-0.00013,-0.00013,-4e-05,-0.00013,-1e-05,-3e-05,5,28
18142,1e-05,-9e-05,-0.00013,-0.00013,-4e-05,-0.00013,-1e-05,-3e-05,5,28
18143,1e-05,-9e-05,-0.00013,-0.00013,-4e-05,-0.00013,-1e-05,-3e-05,5,28
18144,1e-05,-9e-05,-0.00013,-0.00013,-4e-05,-0.00013,-1e-05,-3e-05,5,28
18145,1e-05,-9e-05,-0.00013,-0.00013,-4e-05,-0.00013,-1e-05,-3e-05,5,28
18146,-2e-05,3e-05,0.00016,0.00018,-0.00012,0.00013,0.00012,0,5,28
18147,-7e-05,-0.00018,-0.00024,-0.00016,-0.00017,-3e-05,-2e-05,-3e-05,5,28
18148,-7e-05,-0.00018,-0.00024,-0.00016,-0.00017,-3e-05,-2e-05,-3e-05,5,28
18149,-7e-05,-0.00018,-0.00024,-0.00016,-0.00017,-3e-05,-2e-05,-3e-05,5,28
18150,-7e-05,-0.00018,-0.00024,-0.00016,-0.00017,-3e-05,-2e-05,-3e-05,5,28
18151,-7e-05,-0.00018,-0.00024,-0.00016,-0.00017,-3e-05,-2e-05,-3e-05,5,28
18152,-7e-05,-0.00018,-0.00024,-0.00016,-0.00017,-3e-05,-2e-05,-3e-05,5,28
18153,1e-05,6e-05,0.0001,9e-05,-0.00016,0.00013,4e-05,0,5,28
18154,1e-05,6e-05,0.0001,9e-05,-0.00016,0.00013,4e-05,0,5,28
18155,1e-05,6e-05,0.0001,9e-05,-0.00016,0.00013,4e-05,0,5,28
18156,1e-05,6e-05,0.0001,9e-05,-0.00016,0.00013,4e-05,0,5,28
18157,1e-05,6e-05,0.0001,9e-05,-0.00016,0.00013,4e-05,0,5,28
18158,1e-05,6e-05,0.0001,9e-05,-0.00016,0.00013,4e-05,0,5,28
18159,1e-05,6e-05,0.0001,9e-05,-0.00016,0.00013,4e-05,0,5,28
18160,1e-05,6e-05,0.0001,9e-05,-0.00016,0.00013,4e-05,0,5,28
18161,1e-05,6e-05,0.0001,9e-05,-0.00016,0.00013,4e-05,0,5,28
18162,1e-05,6e-05,0.0001,9e-05,-0.00016,0.00013,4e-05,0,5,28
18163,1e-05,6e-05,0.0001,9e-05,-0.00016,0.00013,4e-05,0,5,28
18164,1e-05,6e-05,0.0001,9e-05,-0.00016,0.00013,4e-05,0,5,28
18165,1e-05,6e-05,0.0001,9e-05,-0.00016,0.00013,4e-05,0,5,28
18166,1e-05,6e-05,0.0001,9e-05,-0.00016,0.00013,4e-05,0,5,28
18167,1e-05,6e-05,0.0001,9e-05,-0.00016,0.00013,4e-05,0,5,28
18168,1e-05,6e-05,0.0001,9e-05,-0.00016,0.00013,4e-05,0,5,28
18169,1e-05,6e-05,0.0001,9e-05,-0.00016,0.00013,4e-05,0,5,28
18170,1e-05,6e-05,0.0001,9e-05,-0.00016,0.00013,4e-05,0,5,28
18171,1e-05,6e-05,0.0001,9e-05,-0.00016,0.00013,4e-05,0,5,28
18172,1e-05,6e-05,0.0001,9e-05,-0.00016,0.00013,4e-05,0,5,28
18173,1e-05,6e-05,0.0001,9e-05,-0.00016,0.00013,4e-05,0,5,28
18174,1e-05,6e-05,0.0001,9e-05,-0.00016,0.00013,4e-05,0,5,28
18175,1e-05,-4e-05,-4e-05,-0.00014,-0.00024,4e-05,-3e-05,2e-05,5,28
18176,-5e-05,-1e-05,0.0002,5e-05,-0.00041,-0.0001,-0.00015,-5e-05,5,28
18177,-5e-05,-1e-05,0.0002,5e-05,-0.00041,-0.0001,-0.00015,-5e-05,5,28
18178,-5e-05,-1e-05,0.0002,5e-05,-0.00041,-0.0001,-0.00015,-5e-05,5,28
18179,-5e-05,-1e-05,0.0002,5e-05,-0.00041,-0.0001,-0.00015,-5e-05,5,28
18180,-5e-05,-1e-05,0.0002,5e-05,-0.00041,-0.0001,-0.00015,-5e-05,5,28
18181,-5e-05,-1e-05,0.0002,5e-05,-0.00041,-0.0001,-0.00015,-5e-05,5,28
18182,-5e-05,-1e-05,0.0002,5e-05,-0.00041,-0.0001,-0.00015,-5e-05,5,28
18183,-5e-05,-1e-05,0.0002,5e-05,-0.00041,-0.0001,-0.00015,-5e-05,5,28
18184,-5e-05,-1e-05,0.0002,5e-05,-0.00041,-0.0001,-0.00015,-5e-05,5,28
18185,-5e-05,-1e-05,0.0002,5e-05,-0.00041,-0.0001,-0.00015,-5e-05,5,28
18186,-5e-05,-1e-05,0.0002,5e-05,-0.00041,-0.0001,-0.00015,-5e-05,5,28
18189,-5e-05,-1e-05,0.0002,5e-05,-0.00041,-0.0001,-0.00015,-5e-05,5,28
18190,-3e-05,-3e-05,-0.00012,-7e-05,6e-05,-0.00017,4e-05,0,5,28
18191,-3e-05,-3e-05,-0.00012,-7e-05,6e-05,-0.00017,4e-05,0,5,28
18192,-3e-05,-3e-05,-0.00012,-7e-05,6e-05,-0.00017,4e-05,0,5,28
18193,-3e-05,-3e-05,-0.00012,-7e-05,6e-05,-0.00017,4e-05,0,5,28
18194,-3e-05,-3e-05,-0.00012,-7e-05,6e-05,-0.00017,4e-05,0,5,28
18195,-3e-05,-3e-05,-0.00012,-7e-05,6e-05,-0.00017,4e-05,0,5,28
18196,-3e-05,-3e-05,-0.00012,-7e-05,6e-05,-0.00017,4e-05,0,5,28
18197,-3e-05,-3e-05,-0.00012,-7e-05,6e-05,-0.00017,4e-05,0,5,28
18198,-2e-05,6e-05,0.00014,2e-05,-0.00031,-0.00018,-9e-05,0,5,28
18199,-2e-05,6e-05,0.00014,2e-05,-0.00031,-0.00018,-9e-05,0,5,28
18200,-2e-05,6e-05,0.00014,2e-05,-0.00031,-0.00018,-9e-05,0,5,28
18201,-2e-05,6e-05,0.00014,2e-05,-0.00031,-0.00018,-9e-05,0,5,28
18202,-2e-05,6e-05,0.00014,2e-05,-0.00031,-0.00018,-9e-05,0,5,28
18203,-2e-05,6e-05,0.00014,2e-05,-0.00031,-0.00018,-9e-05,0,5,28
18204,-2e-05,6e-05,0.00014,2e-05,-0.00031,-0.00018,-9e-05,0,5,28
18205,-2e-05,6e-05,0.00014,2e-05,-0.00031,-0.00018,-9e-05,0,5,28
18206,-2e-05,6e-05,0.00014,2e-05,-0.00031,-0.00018,-9e-05,0,5,28
18207,-2e-05,6e-05,0.00014,2e-05,-0.00031,-0.00018,-9e-05,0,5,28
18208,-2e-05,6e-05,0.00014,2e-05,-0.00031,-0.00018,-9e-05,0,5,28
18209,-2e-05,6e-05,0.00014,2e-05,-0.00031,-0.00018,-9e-05,0,5,28
18210,-2e-05,6e-05,0.00014,2e-05,-0.00031,-0.00018,-9e-05,0,5,28
18211,-2e-05,6e-05,0.00014,2e-05,-0.00031,-0.00018,-9e-05,0,5,28
18212,-2e-05,6e-05,0.00014,2e-05,-0.00031,-0.00018,-9e-05,0,5,28
18213,-8e-05,-0.00015,-0.00017,-5e-05,-0.0003,-5e-05,-5e-05,-6e-05,5,28
18214,2e-05,2e-05,3e-05,-0.0001,9e-05,0.0001,-3e-05,2e-05,5,28
18215,2e-05,2e-05,3e-05,-0.0001,9e-05,0.0001,-3e-05,2e-05,5,28
18216,2e-05,2e-05,3e-05,-0.0001,9e-05,0.0001,-3e-05,2e-05,5,28
18217,2e-05,2e-05,3e-05,-0.0001,9e-05,0.0001,-3e-05,2e-05,5,28
18218,2e-05,2e-05,3e-05,-0.0001,9e-05,0.0001,-3e-05,2e-05,5,28
18219,2e-05,2e-05,3e-05,-0.0001,9e-05,0.0001,-3e-05,2e-05,5,28
18220,2e-05,2e-05,3e-05,-0.0001,9e-05,0.0001,-3e-05,2e-05,5,28
18221,2e-05,2e-05,3e-05,-0.0001,9e-05,0.0001,-3e-05,2e-05,5,28
18222,2e-05,2e-05,3e-05,-0.0001,9e-05,0.0001,-3e-05,2e-05,5,28
18223,2e-05,2e-05,3e-05,-0.0001,9e-05,0.0001,-3e-05,2e-05,5,28
18224,2e-05,2e-05,3e-05,-0.0001,9e-05,0.0001,-3e-05,2e-05,5,28
18225,2e-05,2e-05,3e-05,-0.0001,9e-05,0.0001,-3e-05,2e-05,5,28
18226,2e-05,2e-05,3e-05,-0.0001,9e-05,0.0001,-3e-05,2e-05,5,28
18227,2e-05,2e-05,3e-05,-0.0001,9e-05,0.0001,-3e-05,2e-05,5,28
18228,2e-05,2e-05,3e-05,-0.0001,9e-05,0.0001,-3e-05,2e-05,5,28
18229,2e-05,2e-05,3e-05,-0.0001,9e-05,0.0001,-3e-05,2e-05,5,28
18230,2e-05,2e-05,3e-05,-0.0001,9e-05,0.0001,-3e-05,2e-05,5,28
18231,2e-05,2e-05,3e-05,-0.0001,9e-05,0.0001,-3e-05,2e-05,5,28
18232,2e-05,2e-05,3e-05,-0.0001,9e-05,0.0001,-3e-05,2e-05,5,28
18233,2e-05,2e-05,3e-05,-0.0001,9e-05,0.0001,-3e-05,2e-05,5,28
18234,2e-05,2e-05,3e-05,-0.0001,9e-05,0.0001,-3e-05,2e-05,5,28
18235,-6e-05,-0.0001,-0.0002,0,0.00088,9e-05,-1e-05,-4e-05,5,28
18236,7e-05,-2e-05,3e-05,5e-05,-3e-05,0.00014,-1e-05,1e-05,5,28
18239,7e-05,-2e-05,3e-05,5e-05,-3e-05,0.00014,-1e-05,1e-05,5,28
18240,7e-05,-2e-05,3e-05,5e-05,-3e-05,0.00014,-1e-05,1e-05,5,28
18241,7e-05,-2e-05,3e-05,5e-05,-3e-05,0.00014,-1e-05,1e-05,5,28
18242,7e-05,-2e-05,3e-05,5e-05,-3e-05,0.00014,-1e-05,1e-05,5,28
18243,7e-05,-2e-05,3e-05,5e-05,-3e-05,0.00014,-1e-05,1e-05,5,28
18244,7e-05,-2e-05,3e-05,5e-05,-3e-05,0.00014,-1e-05,1e-05,5,28
18245,7e-05,-2e-05,3e-05,5e-05,-3e-05,0.00014,-1e-05,1e-05,5,28
18246,7e-05,-2e-05,3e-05,5e-05,-3e-05,0.00014,-1e-05,1e-05,5,28
18247,7e-05,-2e-05,3e-05,5e-05,-3e-05,0.00014,-1e-05,1e-05,5,28
18248,7e-05,-2e-05,3e-05,5e-05,-3e-05,0.00014,-1e-05,1e-05,5,28
18249,7e-05,-2e-05,3e-05,5e-05,-3e-05,0.00014,-1e-05,1e-05,5,28
18250,5e-05,5e-05,-5e-05,-5e-05,-0.00015,-0.00021,0.00013,-8e-05,5,28
18251,5e-05,5e-05,-5e-05,-5e-05,-0.00015,-0.00021,0.00013,-8e-05,5,28
18252,5e-05,5e-05,-5e-05,-5e-05,-0.00015,-0.00021,0.00013,-8e-05,5,28
18253,5e-05,5e-05,-5e-05,-5e-05,-0.00015,-0.00021,0.00013,-8e-05,5,28
18254,5e-05,5e-05,-5e-05,-5e-05,-0.00015,-0.00021,0.00013,-8e-05,5,28
18255,5e-05,5e-05,-5e-05,-5e-05,-0.00015,-0.00021,0.00013,-8e-05,5,28
18256,5e-05,5e-05,-5e-05,-5e-05,-0.00015,-0.00021,0.00013,-8e-05,5,28
18257,5e-05,5e-05,-5e-05,-5e-05,-0.00015,-0.00021,0.00013,-8e-05,5,28
18258,5e-05,-1e-05,-6e-05,-1e-05,0.00016,4e-05,3e-05,9e-05,5,28
18259,5e-05,-1e-05,-6e-05,-1e-05,0.00016,4e-05,3e-05,9e-05,5,28
18260,5e-05,-1e-05,-6e-05,-1e-05,0.00016,4e-05,3e-05,9e-05,5,28
18261,5e-05,-1e-05,-6e-05,-1e-05,0.00016,4e-05,3e-05,9e-05,5,28
18262,5e-05,-1e-05,-6e-05,-1e-05,0.00016,4e-05,3e-05,9e-05,5,28
18263,5e-05,-1e-05,-6e-05,-1e-05,0.00016,4e-05,3e-05,9e-05,5,28
18264,5e-05,-1e-05,-6e-05,-1e-05,0.00016,4e-05,3e-05,9e-05,5,28
18265,5e-05,-1e-05,-6e-05,-1e-05,0.00016,4e-05,3e-05,9e-05,5,28
18266,5e-05,-1e-05,-6e-05,-1e-05,0.00016,4e-05,3e-05,9e-05,5,28
18267,5e-05,-1e-05,-6e-05,-1e-05,0.00016,4e-05,3e-05,9e-05,5,28
18268,5e-05,-1e-05,-6e-05,-1e-05,0.00016,4e-05,3e-05,9e-05,5,28
18269,5e-05,-1e-05,-6e-05,-1e-05,0.00016,4e-05,3e-05,9e-05,5,28
18270,5e-05,-1e-05,-6e-05,-1e-05,0.00016,4e-05,3e-05,9e-05,5,28
18271,5e-05,-1e-05,-6e-05,-1e-05,0.00016,4e-05,3e-05,9e-05,5,28
18272,5e-05,-1e-05,-6e-05,-1e-05,0.00016,4e-05,3e-05,9e-05,5,28
18273,-0.00014,-4e-05,-7e-05,-0.00013,-0.0002,-2e-05,7e-05,-2e-05,5,28
18274,-0.00014,-4e-05,-7e-05,-0.00013,-0.0002,-2e-05,7e-05,-2e-05,5,28
18275,-0.00014,-4e-05,-7e-05,-0.00013,-0.0002,-2e-05,7e-05,-2e-05,5,28
18276,-0.00014,-4e-05,-7e-05,-0.00013,-0.0002,-2e-05,7e-05,-2e-05,5,28
18277,-0.00014,-4e-05,-7e-05,-0.00013,-0.0002,-2e-05,7e-05,-2e-05,5,28
18278,-0.00014,-4e-05,-7e-05,-0.00013,-0.0002,-2e-05,7e-05,-2e-05,5,28
18279,-0.00014,-4e-05,-7e-05,-0.00013,-0.0002,-2e-05,7e-05,-2e-05,5,28
18280,-0.00014,-4e-05,-7e-05,-0.00013,-0.0002,-2e-05,7e-05,-2e-05,5,28
18281,-0.00014,-4e-05,-7e-05,-0.00013,-0.0002,-2e-05,7e-05,-2e-05,5,28
18282,-0.00014,-4e-05,-7e-05,-0.00013,-0.0002,-2e-05,7e-05,-2e-05,5,28
18283,-0.00014,-4e-05,-7e-05,-0.00013,-0.0002,-2e-05,7e-05,-2e-05,5,28
18284,-0.00014,-4e-05,-7e-05,-0.00013,-0.0002,-2e-05,7e-05,-2e-05,5,28
18285,-0.00014,-4e-05,-7e-05,-0.00013,-0.0002,-2e-05,7e-05,-2e-05,5,28
18286,-0.00014,-4e-05,-7e-05,-0.00013,-0.0002,-2e-05,7e-05,-2e-05,5,28
18289,-0.00014,-4e-05,-7e-05,-0.00013,-0.0002,-2e-05,7e-05,-2e-05,5,28
18290,-0.00014,-4e-05,-7e-05,-0.00013,-0.0002,-2e-05,7e-05,-2e-05,5,28
18291,-0.00014,-4e-05,-7e-05,-0.00013,-0.0002,-2e-05,7e-05,-2e-05,5,28
18292,-0.00014,-4e-05,-7e-05,-0.00013,-0.0002,-2e-05,7e-05,-2e-05,5,28
18293,-0.00014,-4e-05,-7e-05,-0.00013,-0.0002,-2e-05,7e-05,-2e-05,5,28
18294,-0.00014,-4e-05,-7e-05,-0.00013,-0.0002,-2e-05,7e-05,-2e-05,5,28
18295,9e-05,0.00015,4e-05,6e-05,3e-05,-0.00014,-5e-05,2e-05,5,28
18296,4e-05,5e-05,0.00017,5e-05,0.00032,-4e-05,-0.00012,3e-05,5,28
18297,4e-05,5e-05,0.00017,5e-05,0.00032,-4e-05,-0.00012,3e-05,5,28
18298,4e-05,5e-05,0.00017,5e-05,0.00032,-4e-05,-0.00012,3e-05,5,28
18299,4e-05,5e-05,0.00017,5e-05,0.00032,-4e-05,-0.00012,3e-05,5,28
18300,4e-05,5e-05,0.00017,5e-05,0.00032,-4e-05,-0.00012,3e-05,5,28
18301,4e-05,5e-05,0.00017,5e-05,0.00032,-4e-05,-0.00012,3e-05,5,28
18302,4e-05,5e-05,0.00017,5e-05,0.00032,-4e-05,-0.00012,3e-05,5,28
18303,4e-05,5e-05,0.00017,5e-05,0.00032,-4e-05,-0.00012,3e-05,5,28
18304,4e-05,5e-05,0.00017,5e-05,0.00032,-4e-05,-0.00012,3e-05,5,28
18305,4e-05,5e-05,0.00017,5e-05,0.00032,-4e-05,-0.00012,3e-05,5,28
18306,4e-05,5e-05,0.00017,5e-05,0.00032,-4e-05,-0.00012,3e-05,5,28
18307,4e-05,5e-05,0.00017,5e-05,0.00032,-4e-05,-0.00012,3e-05,5,28
18308,4e-05,5e-05,0.00017,5e-05,0.00032,-4e-05,-0.00012,3e-05,5,28
18309,4e-05,5e-05,0.00017,5e-05,0.00032,-4e-05,-0.00012,3e-05,5,28
18310,4e-05,5e-05,0.00017,5e-05,0.00032,-4e-05,-0.00012,3e-05,5,28
18311,4e-05,5e-05,0.00017,5e-05,0.00032,-4e-05,-0.00012,3e-05,5,28
18312,4e-05,5e-05,0.00017,5e-05,0.00032,-4e-05,-0.00012,3e-05,5,28
18313,4e-05,5e-05,0.00017,5e-05,0.00032,-4e-05,-0.00012,3e-05,5,28
18314,4e-05,5e-05,0.00017,5e-05,0.00032,-4e-05,-0.00012,3e-05,5,28
18315,4e-05,5e-05,0.00017,5e-05,0.00032,-4e-05,-0.00012,3e-05,5,28
18316,4e-05,5e-05,0.00017,5e-05,0.00032,-4e-05,-0.00012,3e-05,5,28
18317,4e-05,5e-05,0.00017,5e-05,0.00032,-4e-05,-0.00012,3e-05,5,28
18318,4e-05,5e-05,0.00017,5e-05,0.00032,-4e-05,-0.00012,3e-05,5,28
18319,2e-05,8e-05,-0.00015,-2e-05,0.00027,-3e-05,-4e-05,-3e-05,5,28
18320,2e-05,8e-05,-0.00015,-2e-05,0.00027,-3e-05,-4e-05,-3e-05,5,28
18321,2e-05,8e-05,-0.00015,-2e-05,0.00027,-3e-05,-4e-05,-3e-05,5,28
18322,2e-05,8e-05,-0.00015,-2e-05,0.00027,-3e-05,-4e-05,-3e-05,5,28
18323,2e-05,8e-05,-0.00015,-2e-05,0.00027,-3e-05,-4e-05,-3e-05,5,28
18324,2e-05,8e-05,-0.00015,-2e-05,0.00027,-3e-05,-4e-05,-3e-05,5,28
18325,2e-05,8e-05,-0.00015,-2e-05,0.00027,-3e-05,-4e-05,-3e-05,5,28
18326,2e-05,8e-05,-0.00015,-2e-05,0.00027,-3e-05,-4e-05,-3e-05,5,28
18327,2e-05,8e-05,-0.00015,-2e-05,0.00027,-3e-05,-4e-05,-3e-05,5,28
18328,2e-05,8e-05,-0.00015,-2e-05,0.00027,-3e-05,-4e-05,-3e-05,5,28
18329,2e-05,8e-05,-0.00015,-2e-05,0.00027,-3e-05,-4e-05,-3e-05,5,28
18330,2e-05,8e-05,-0.00015,-2e-05,0.00027,-3e-05,-4e-05,-3e-05,5,28
18331,2e-05,8e-05,-0.00015,-2e-05,0.00027,-3e-05,-4e-05,-3e-05,5,28
18332,2e-05,8e-05,-0.00015,-2e-05,0.00027,-3e-05,-4e-05,-3e-05,5,28
18333,-2e-05,-0.00015,-0.0002,-7e-05,0.00053,3e-05,-5e-05,-7e-05,5,28
18334,1e-05,-1e-05,-9e-05,-2e-05,-0.00038,9e-05,-6e-05,-2e-05,5,28
18335,1e-05,-1e-05,-9e-05,-2e-05,-0.00038,9e-05,-6e-05,-2e-05,5,28
18336,1e-05,-1e-05,-9e-05,-2e-05,-0.00038,9e-05,-6e-05,-2e-05,5,28
18339,1e-05,-1e-05,-9e-05,-2e-05,-0.00038,9e-05,-6e-05,-2e-05,5,28
18340,1e-05,-1e-05,-9e-05,-2e-05,-0.00038,9e-05,-6e-05,-2e-05,5,28
18342,1e-05,-1e-05,-9e-05,-2e-05,-0.00038,9e-05,-6e-05,-2e-05,5,28
18343,1e-05,-1e-05,-9e-05,-2e-05,-0.00038,9e-05,-6e-05,-2e-05,5,28
18344,1e-05,-1e-05,-9e-05,-2e-05,-0.00038,9e-05,-6e-05,-2e-05,5,28
18345,1e-05,-1e-05,-9e-05,-2e-05,-0.00038,9e-05,-6e-05,-2e-05,5,28
18346,1e-05,-1e-05,-9e-05,-2e-05,-0.00038,9e-05,-6e-05,-2e-05,5,28
18347,1e-05,-1e-05,-9e-05,-2e-05,-0.00038,9e-05,-6e-05,-2e-05,5,28
18348,1e-05,-1e-05,-9e-05,-2e-05,-0.00038,9e-05,-6e-05,-2e-05,5,28
18349,1e-05,-1e-05,-9e-05,-2e-05,-0.00038,9e-05,-6e-05,-2e-05,5,28
18350,1e-05,-1e-05,-9e-05,-2e-05,-0.00038,9e-05,-6e-05,-2e-05,5,28
18351,1e-05,-1e-05,-9e-05,-2e-05,-0.00038,9e-05,-6e-05,-2e-05,5,28
18352,1e-05,-1e-05,-9e-05,-2e-05,-0.00038,9e-05,-6e-05,-2e-05,5,28
18353,1e-05,-1e-05,-9e-05,-2e-05,-0.00038,9e-05,-6e-05,-2e-05,5,28
18354,1e-05,-1e-05,-9e-05,-2e-05,-0.00038,9e-05,-6e-05,-2e-05,5,28
18355,7e-05,2e-05,-5e-05,0,-3e-05,-1e-05,1e-05,0.00011,5,28
18356,-4e-05,2e-05,5e-05,3e-05,-2e-05,-3e-05,-3e-05,-8e-05,5,28
18357,-4e-05,2e-05,5e-05,3e-05,-2e-05,-3e-05,-3e-05,-8e-05,5,28
18358,-4e-05,2e-05,5e-05,3e-05,-2e-05,-3e-05,-3e-05,-8e-05,5,28
18359,-4e-05,2e-05,5e-05,3e-05,-2e-05,-3e-05,-3e-05,-8e-05,5,28
18360,-4e-05,2e-05,5e-05,3e-05,-2e-05,-3e-05,-3e-05,-8e-05,5,28
18361,-4e-05,2e-05,5e-05,3e-05,-2e-05,-3e-05,-3e-05,-8e-05,5,28
18362,-4e-05,2e-05,5e-05,3e-05,-2e-05,-3e-05,-3e-05,-8e-05,5,28
18363,-4e-05,2e-05,5e-05,3e-05,-2e-05,-3e-05,-3e-05,-8e-05,5,28
18364,-4e-05,2e-05,5e-05,3e-05,-2e-05,-3e-05,-3e-05,-8e-05,5,28
18365,-4e-05,2e-05,5e-05,3e-05,-2e-05,-3e-05,-3e-05,-8e-05,5,28
18366,-4e-05,2e-05,5e-05,3e-05,-2e-05,-3e-05,-3e-05,-8e-05,5,28
18367,-4e-05,2e-05,5e-05,3e-05,-2e-05,-3e-05,-3e-05,-8e-05,5,28
18368,-4e-05,2e-05,5e-05,3e-05,-2e-05,-3e-05,-3e-05,-8e-05,5,28
18369,-4e-05,2e-05,5e-05,3e-05,-2e-05,-3e-05,-3e-05,-8e-05,5,28
18370,-4e-05,2e-05,5e-05,3e-05,-2e-05,-3e-05,-3e-05,-8e-05,5,28
18371,-4e-05,2e-05,5e-05,3e-05,-2e-05,-3e-05,-3e-05,-8e-05,5,28
18372,-4e-05,2e-05,5e-05,3e-05,-2e-05,-3e-05,-3e-05,-8e-05,5,28
18373,-4e-05,2e-05,5e-05,3e-05,-2e-05,-3e-05,-3e-05,-8e-05,5,28
18374,-4e-05,2e-05,5e-05,3e-05,-2e-05,-3e-05,-3e-05,-8e-05,5,28
18375,-4e-05,2e-05,5e-05,3e-05,-2e-05,-3e-05,-3e-05,-8e-05,5,28
18376,-4e-05,2e-05,5e-05,3e-05,-2e-05,-3e-05,-3e-05,-8e-05,5,28
18377,-4e-05,2e-05,5e-05,3e-05,-2e-05,-3e-05,-3e-05,-8e-05,5,28
18378,-4e-05,2e-05,5e-05,3e-05,-2e-05,-3e-05,-3e-05,-8e-05,5,28
18379,-4e-05,2e-05,5e-05,3e-05,-2e-05,-3e-05,-3e-05,-8e-05,5,28
18380,-4e-05,2e-05,5e-05,3e-05,-2e-05,-3e-05,-3e-05,-8e-05,5,28
18381,-4e-05,2e-05,5e-05,3e-05,-2e-05,-3e-05,-3e-05,-8e-05,5,28
18382,-4e-05,2e-05,5e-05,3e-05,-2e-05,-3e-05,-3e-05,-8e-05,5,28
18383,-4e-05,2e-05,5e-05,3e-05,-2e-05,-3e-05,-3e-05,-8e-05,5,28
18384,-4e-05,2e-05,5e-05,3e-05,-2e-05,-3e-05,-3e-05,-8e-05,5,28
18385,-4e-05,2e-05,5e-05,3e-05,-2e-05,-3e-05,-3e-05,-8e-05,5,28
18386,-3e-05,-0.00019,-7e-05,-0.0001,-0.00014,-8e-05,6e-05,2e-05,5,28
18389,1e-05,-6e-05,-0.00023,-7e-05,0.00016,-2e-05,8e-05,-0.00013,5,28
18391,1e-05,-6e-05,-0.00023,-7e-05,0.00016,-2e-05,8e-05,-0.00013,5,28
18392,1e-05,-6e-05,-0.00023,-7e-05,0.00016,-2e-05,8e-05,-0.00013,5,28
18393,1e-05,-6e-05,-0.00023,-7e-05,0.00016,-2e-05,8e-05,-0.00013,5,28
18394,1e-05,0,-1e-05,5e-05,-1e-05,-2e-05,-2e-05,-3e-05,5,28
18395,-4e-05,-0.00012,-3e-05,-8e-05,-0.00028,-0.00022,-4e-05,-0.00011,5,28
18396,-4e-05,-0.00012,-3e-05,-8e-05,-0.00028,-0.00022,-4e-05,-0.00011,5,28
18397,-4e-05,-0.00012,-3e-05,-8e-05,-0.00028,-0.00022,-4e-05,-0.00011,5,28
18398,-4e-05,-0.00012,-3e-05,-8e-05,-0.00028,-0.00022,-4e-05,-0.00011,5,28
18399,-4e-05,-0.00012,-3e-05,-8e-05,-0.00028,-0.00022,-4e-05,-0.00011,5,28
18400,-4e-05,-0.00012,-3e-05,-8e-05,-0.00028,-0.00022,-4e-05,-0.00011,5,28
18401,-4e-05,-0.00012,-3e-05,-8e-05,-0.00028,-0.00022,-4e-05,-0.00011,5,28
18402,-4e-05,-0.00012,-3e-05,-8e-05,-0.00028,-0.00022,-4e-05,-0.00011,5,28
18403,-4e-05,-0.00012,-3e-05,-8e-05,-0.00028,-0.00022,-4e-05,-0.00011,5,28
18404,-4e-05,-0.00012,-3e-05,-8e-05,-0.00028,-0.00022,-4e-05,-0.00011,5,28
18405,-4e-05,-0.00012,-3e-05,-8e-05,-0.00028,-0.00022,-4e-05,-0.00011,5,28
18406,-4e-05,-0.00012,-3e-05,-8e-05,-0.00028,-0.00022,-4e-05,-0.00011,5,28
18407,-4e-05,-0.00012,-3e-05,-8e-05,-0.00028,-0.00022,-4e-05,-0.00011,5,28
18408,-4e-05,-0.00012,-3e-05,-8e-05,-0.00028,-0.00022,-4e-05,-0.00011,5,28
18409,-4e-05,-0.00012,-3e-05,-8e-05,-0.00028,-0.00022,-4e-05,-0.00011,5,28
18410,-4e-05,-0.00012,-3e-05,-8e-05,-0.00028,-0.00022,-4e-05,-0.00011,5,28
18411,-4e-05,-0.00012,-3e-05,-8e-05,-0.00028,-0.00022,-4e-05,-0.00011,5,28
18412,-4e-05,-0.00012,-3e-05,-8e-05,-0.00028,-0.00022,-4e-05,-0.00011,5,28
18413,-4e-05,-0.00012,-3e-05,-8e-05,-0.00028,-0.00022,-4e-05,-0.00011,5,28
18414,-4e-05,-0.00012,-3e-05,-8e-05,-0.00028,-0.00022,-4e-05,-0.00011,5,28
18415,-6e-05,-5e-05,-6e-05,-3e-05,4e-05,0.00012,6e-05,-2e-05,5,28
18416,-4e-05,0,0.00025,7e-05,-0.00028,-3e-05,6e-05,6e-05,5,28
18417,-4e-05,0,0.00025,7e-05,-0.00028,-3e-05,6e-05,6e-05,5,28
18418,-4e-05,0,0.00025,7e-05,-0.00028,-3e-05,6e-05,6e-05,5,28
18419,-4e-05,0,0.00025,7e-05,-0.00028,-3e-05,6e-05,6e-05,5,28
18420,-4e-05,0,0.00025,7e-05,-0.00028,-3e-05,6e-05,6e-05,5,28
18421,-4e-05,0,0.00025,7e-05,-0.00028,-3e-05,6e-05,6e-05,5,28
18422,-4e-05,0,0.00025,7e-05,-0.00028,-3e-05,6e-05,6e-05,5,28
18423,-4e-05,0,0.00025,7e-05,-0.00028,-3e-05,6e-05,6e-05,5,28
18424,-4e-05,0,0.00025,7e-05,-0.00028,-3e-05,6e-05,6e-05,5,28
18425,-4e-05,0,0.00025,7e-05,-0.00028,-3e-05,6e-05,6e-05,5,28
18426,-4e-05,0,0.00025,7e-05,-0.00028,-3e-05,6e-05,6e-05,5,28
18427,-4e-05,0,0.00025,7e-05,-0.00028,-3e-05,6e-05,6e-05,5,28
18428,-4e-05,0,0.00025,7e-05,-0.00028,-3e-05,6e-05,6e-05,5,28
18429,-4e-05,0,0.00025,7e-05,-0.00028,-3e-05,6e-05,6e-05,5,28
18430,-4e-05,0,0.00025,7e-05,-0.00028,-3e-05,6e-05,6e-05,5,28
18431,-4e-05,0,0.00025,7e-05,-0.00028,-3e-05,6e-05,6e-05,5,28
18432,-4e-05,0,0.00025,7e-05,-0.00028,-3e-05,6e-05,6e-05,5,28
18433,-4e-05,0,0.00025,7e-05,-0.00028,-3e-05,6e-05,6e-05,5,28
18434,-4e-05,0,0.00025,7e-05,-0.00028,-3e-05,6e-05,6e-05,5,28
18435,-4e-05,0,0.00025,7e-05,-0.00028,-3e-05,6e-05,6e-05,5,28
18436,-4e-05,0,0.00025,7e-05,-0.00028,-3e-05,6e-05,6e-05,5,28
18439,-2e-05,-6e-05,4e-05,1e-05,0.00022,-5e-05,-0.0001,-5e-05,5,28
18440,4e-05,-6e-05,8e-05,-0.00014,-1e-05,4e-05,0,3e-05,5,28
18441,4e-05,-6e-05,8e-05,-0.00014,-1e-05,4e-05,0,3e-05,5,28
18442,4e-05,-6e-05,8e-05,-0.00014,-1e-05,4e-05,0,3e-05,5,28
18443,4e-05,-6e-05,8e-05,-0.00014,-1e-05,4e-05,0,3e-05,5,28
18444,4e-05,-6e-05,8e-05,-0.00014,-1e-05,4e-05,0,3e-05,5,28
18445,4e-05,-6e-05,8e-05,-0.00014,-1e-05,4e-05,0,3e-05,5,28
18446,4e-05,-6e-05,8e-05,-0.00014,-1e-05,4e-05,0,3e-05,5,28
18447,4e-05,-6e-05,8e-05,-0.00014,-1e-05,4e-05,0,3e-05,5,28
18448,4e-05,-6e-05,8e-05,-0.00014,-1e-05,4e-05,0,3e-05,5,28
18449,4e-05,-6e-05,8e-05,-0.00014,-1e-05,4e-05,0,3e-05,5,28
18450,4e-05,-6e-05,8e-05,-0.00014,-1e-05,4e-05,0,3e-05,5,28
18451,4e-05,-6e-05,8e-05,-0.00014,-1e-05,4e-05,0,3e-05,5,28
18452,4e-05,-6e-05,8e-05,-0.00014,-1e-05,4e-05,0,3e-05,5,28
18453,-1e-05,0,-8e-05,2e-05,0.00017,-3e-05,-8e-05,-2e-05,5,28
18454,3e-05,0.00013,0.0002,-2e-05,6e-05,0.00015,4e-05,0,5,28
18455,3e-05,0.00013,0.0002,-2e-05,6e-05,0.00015,4e-05,0,5,28
18456,3e-05,0.00013,0.0002,-2e-05,6e-05,0.00015,4e-05,0,5,28
18457,3e-05,0.00013,0.0002,-2e-05,6e-05,0.00015,4e-05,0,5,28
18458,3e-05,0.00013,0.0002,-2e-05,6e-05,0.00015,4e-05,0,5,28
18459,3e-05,0.00013,0.0002,-2e-05,6e-05,0.00015,4e-05,0,5,28
18460,-0.00011,-0.00027,-0.00011,6e-05,0.00025,0.0001,4e-05,4e-05,5,28
18461,-0.00011,-0.00027,-0.00011,6e-05,0.00025,0.0001,4e-05,4e-05,5,28
18462,-0.00011,-0.00027,-0.00011,6e-05,0.00025,0.0001,4e-05,4e-05,5,28
18463,-0.00011,-0.00027,-0.00011,6e-05,0.00025,0.0001,4e-05,4e-05,5,28
18464,-0.00011,-0.00027,-0.00011,6e-05,0.00025,0.0001,4e-05,4e-05,5,28
18465,-0.00011,-0.00027,-0.00011,6e-05,0.00025,0.0001,4e-05,4e-05,5,28
18466,-0.00011,-0.00027,-0.00011,6e-05,0.00025,0.0001,4e-05,4e-05,5,28
18467,-0.00011,-0.00027,-0.00011,6e-05,0.00025,0.0001,4e-05,4e-05,5,28
18468,-0.00011,-0.00027,-0.00011,6e-05,0.00025,0.0001,4e-05,4e-05,5,28
18469,-0.00011,-0.00027,-0.00011,6e-05,0.00025,0.0001,4e-05,4e-05,5,28
18470,-0.00011,-0.00027,-0.00011,6e-05,0.00025,0.0001,4e-05,4e-05,5,28
18471,-0.00011,-0.00027,-0.00011,6e-05,0.00025,0.0001,4e-05,4e-05,5,28
18472,-0.00011,-0.00027,-0.00011,6e-05,0.00025,0.0001,4e-05,4e-05,5,28
18473,-0.00011,-0.00027,-0.00011,6e-05,0.00025,0.0001,4e-05,4e-05,5,28
18474,-0.00011,-0.00027,-0.00011,6e-05,0.00025,0.0001,4e-05,4e-05,5,28
18475,-0.00011,-0.00027,-0.00011,6e-05,0.00025,0.0001,4e-05,4e-05,5,28
18476,-0.00011,-0.00027,-0.00011,6e-05,0.00025,0.0001,4e-05,4e-05,5,28
18477,-0.00011,-0.00027,-0.00011,6e-05,0.00025,0.0001,4e-05,4e-05,5,28
18478,-0.00011,-0.00027,-0.00011,6e-05,0.00025,0.0001,4e-05,4e-05,5,28
18479,-0.00011,-0.00027,-0.00011,6e-05,0.00025,0.0001,4e-05,4e-05,5,28
18480,-0.00011,-0.00027,-0.00011,6e-05,0.00025,0.0001,4e-05,4e-05,5,28
18481,-0.00011,-0.00027,-0.00011,6e-05,0.00025,0.0001,4e-05,4e-05,5,28
18483,7e-05,0.00018,0,-0.0001,-0.00017,-0.00022,4e-05,-3e-05,5,28
18484,5e-05,2e-05,-3e-05,-1e-05,1e-05,-0.0001,-8e-05,2e-05,5,28
18485,5e-05,2e-05,-3e-05,-1e-05,1e-05,-0.0001,-8e-05,2e-05,5,28
18486,5e-05,2e-05,-3e-05,-1e-05,1e-05,-0.0001,-8e-05,2e-05,5,28
18489,5e-05,2e-05,-3e-05,-1e-05,1e-05,-0.0001,-8e-05,2e-05,5,28
18490,5e-05,2e-05,-3e-05,-1e-05,1e-05,-0.0001,-8e-05,2e-05,5,28
18491,5e-05,2e-05,-3e-05,-1e-05,1e-05,-0.0001,-8e-05,2e-05,5,28
18492,5e-05,2e-05,-3e-05,-1e-05,1e-05,-0.0001,-8e-05,2e-05,5,28
18493,5e-05,2e-05,-3e-05,-1e-05,1e-05,-0.0001,-8e-05,2e-05,5,28
18494,5e-05,2e-05,-3e-05,-1e-05,1e-05,-0.0001,-8e-05,2e-05,5,28
18495,5e-05,2e-05,-3e-05,-1e-05,1e-05,-0.0001,-8e-05,2e-05,5,28
18496,5e-05,2e-05,-3e-05,-1e-05,1e-05,-0.0001,-8e-05,2e-05,5,28
18497,5e-05,2e-05,-3e-05,-1e-05,1e-05,-0.0001,-8e-05,2e-05,5,28
18498,-8e-05,3e-05,-2e-05,-4e-05,-0.00027,-0.00019,2e-05,0,5,28
18499,-3e-05,9e-05,6e-05,9e-05,-5e-05,0.00021,1e-05,-3e-05,5,28
18500,-3e-05,9e-05,6e-05,9e-05,-5e-05,0.00021,1e-05,-3e-05,5,28
18501,-3e-05,9e-05,6e-05,9e-05,-5e-05,0.00021,1e-05,-3e-05,5,28
18502,-3e-05,9e-05,6e-05,9e-05,-5e-05,0.00021,1e-05,-3e-05,5,28
18503,-3e-05,9e-05,6e-05,9e-05,-5e-05,0.00021,1e-05,-3e-05,5,28
18504,-3e-05,9e-05,6e-05,9e-05,-5e-05,0.00021,1e-05,-3e-05,5,28
18505,-3e-05,9e-05,6e-05,9e-05,-5e-05,0.00021,1e-05,-3e-05,5,28
18506,-3e-05,9e-05,6e-05,9e-05,-5e-05,0.00021,1e-05,-3e-05,5,28
18507,-3e-05,9e-05,6e-05,9e-05,-5e-05,0.00021,1e-05,-3e-05,5,28
18508,-3e-05,9e-05,6e-05,9e-05,-5e-05,0.00021,1e-05,-3e-05,5,28
18509,-3e-05,9e-05,6e-05,9e-05,-5e-05,0.00021,1e-05,-3e-05,5,28
18510,-3e-05,9e-05,6e-05,9e-05,-5e-05,0.00021,1e-05,-3e-05,5,28
18511,-3e-05,9e-05,6e-05,9e-05,-5e-05,0.00021,1e-05,-3e-05,5,28
18512,-3e-05,9e-05,6e-05,9e-05,-5e-05,0.00021,1e-05,-3e-05,5,28
18513,-3e-05,9e-05,6e-05,9e-05,-5e-05,0.00021,1e-05,-3e-05,5,28
18514,0.00015,0,-3e-05,-4e-05,-0.00032,4e-05,9e-05,3e-05,5,28
18515,-0.00011,-3e-05,0.00032,-1e-05,7e-05,4e-05,-0.0001,-9e-05,5,28
18516,-0.00011,-3e-05,0.00032,-1e-05,7e-05,4e-05,-0.0001,-9e-05,5,28
18517,-0.00011,-3e-05,0.00032,-1e-05,7e-05,4e-05,-0.0001,-9e-05,5,28
18518,-0.00011,-3e-05,0.00032,-1e-05,7e-05,4e-05,-0.0001,-9e-05,5,28
18519,-0.00011,-3e-05,0.00032,-1e-05,7e-05,4e-05,-0.0001,-9e-05,5,28
18520,-0.00011,-3e-05,0.00032,-1e-05,7e-05,4e-05,-0.0001,-9e-05,5,28
18521,-0.00011,-3e-05,0.00032,-1e-05,7e-05,4e-05,-0.0001,-9e-05,5,28
18522,-0.00011,-3e-05,0.00032,-1e-05,7e-05,4e-05,-0.0001,-9e-05,5,28
18523,-0.00011,-3e-05,0.00032,-1e-05,7e-05,4e-05,-0.0001,-9e-05,5,28
18524,-0.00011,-3e-05,0.00032,-1e-05,7e-05,4e-05,-0.0001,-9e-05,5,28
18525,-0.00011,-3e-05,0.00032,-1e-05,7e-05,4e-05,-0.0001,-9e-05,5,28
18526,-0.00011,-3e-05,0.00032,-1e-05,7e-05,4e-05,-0.0001,-9e-05,5,28
18527,-0.00011,-3e-05,0.00032,-1e-05,7e-05,4e-05,-0.0001,-9e-05,5,28
18528,-0.00011,-3e-05,0.00032,-1e-05,7e-05,4e-05,-0.0001,-9e-05,5,28
18529,-0.00011,-3e-05,0.00032,-1e-05,7e-05,4e-05,-0.0001,-9e-05,5,28
18530,-0.00011,-3e-05,0.00032,-1e-05,7e-05,4e-05,-0.0001,-9e-05,5,28
18531,-0.00011,-3e-05,0.00032,-1e-05,7e-05,4e-05,-0.0001,-9e-05,5,28
18532,-0.00011,-3e-05,0.00032,-1e-05,7e-05,4e-05,-0.0001,-9e-05,5,28
18533,-0.00011,-3e-05,0.00032,-1e-05,7e-05,4e-05,-0.0001,-9e-05,5,28
18534,-0.00011,-3e-05,0.00032,-1e-05,7e-05,4e-05,-0.0001,-9e-05,5,28
18535,-0.00011,-3e-05,0.00032,-1e-05,7e-05,4e-05,-0.0001,-9e-05,5,28
18536,-0.00011,-3e-05,0.00032,-1e-05,7e-05,4e-05,-0.0001,-9e-05,5,28
18539,-0.00011,-3e-05,0.00032,-1e-05,7e-05,4e-05,-0.0001,-9e-05,5,28
18540,-0.00011,-3e-05,0.00032,-1e-05,7e-05,4e-05,-0.0001,-9e-05,5,28
18541,-0.00011,-3e-05,0.00032,-1e-05,7e-05,4e-05,-0.0001,-9e-05,5,28
18542,-0.00011,-3e-05,0.00032,-1e-05,7e-05,4e-05,-0.0001,-9e-05,5,28
18543,2e-05,-8e-05,-0.00022,-8e-05,-1e-05,-9e-05,-8e-05,-3e-05,5,28
18544,4e-05,-0.00014,-0.00024,-0.00018,-0.00032,-0.00023,2e-05,4e-05,5,28
18545,4e-05,-0.00014,-0.00024,-0.00018,-0.00032,-0.00023,2e-05,4e-05,5,28
18546,4e-05,-0.00014,-0.00024,-0.00018,-0.00032,-0.00023,2e-05,4e-05,5,28
18547,4e-05,-0.00014,-0.00024,-0.00018,-0.00032,-0.00023,2e-05,4e-05,5,28
18548,4e-05,-0.00014,-0.00024,-0.00018,-0.00032,-0.00023,2e-05,4e-05,5,28
18549,4e-05,-0.00014,-0.00024,-0.00018,-0.00032,-0.00023,2e-05,4e-05,5,28
18550,4e-05,-0.00014,-0.00024,-0.00018,-0.00032,-0.00023,2e-05,4e-05,5,28
18551,4e-05,-0.00014,-0.00024,-0.00018,-0.00032,-0.00023,2e-05,4e-05,5,28
18552,4e-05,-0.00014,-0.00024,-0.00018,-0.00032,-0.00023,2e-05,4e-05,5,28
18553,4e-05,-0.00014,-0.00024,-0.00018,-0.00032,-0.00023,2e-05,4e-05,5,28
18554,4e-05,-0.00014,-0.00024,-0.00018,-0.00032,-0.00023,2e-05,4e-05,5,28
18555,4e-05,-0.00014,-0.00024,-0.00018,-0.00032,-0.00023,2e-05,4e-05,5,28
18556,4e-05,-0.00014,-0.00024,-0.00018,-0.00032,-0.00023,2e-05,4e-05,5,28
18557,4e-05,-0.00014,-0.00024,-0.00018,-0.00032,-0.00023,2e-05,4e-05,5,28
18558,-7e-05,-5e-05,5e-05,0.00015,0.00031,0.0002,-5e-05,-3e-05,5,28
18559,0,0.00011,6e-05,8e-05,0.00012,2e-05,-1e-05,-1e-05,5,28
18560,0,0.00011,6e-05,8e-05,0.00012,2e-05,-1e-05,-1e-05,5,28
18561,0,0.00011,6e-05,8e-05,0.00012,2e-05,-1e-05,-1e-05,5,28
18562,0,0.00011,6e-05,8e-05,0.00012,2e-05,-1e-05,-1e-05,5,28
18563,0,0.00011,6e-05,8e-05,0.00012,2e-05,-1e-05,-1e-05,5,28
18564,0,0.00011,6e-05,8e-05,0.00012,2e-05,-1e-05,-1e-05,5,28
18565,0,0.00011,6e-05,8e-05,0.00012,2e-05,-1e-05,-1e-05,5,28
18566,0,0.00011,6e-05,8e-05,0.00012,2e-05,-1e-05,-1e-05,5,28
18567,0,0.00011,6e-05,8e-05,0.00012,2e-05,-1e-05,-1e-05,5,28
18568,0,0.00011,6e-05,8e-05,0.00012,2e-05,-1e-05,-1e-05,5,28
18569,0,0.00011,6e-05,8e-05,0.00012,2e-05,-1e-05,-1e-05,5,28
18570,0,0.00011,6e-05,8e-05,0.00012,2e-05,-1e-05,-1e-05,5,28
18571,0,0.00011,6e-05,8e-05,0.00012,2e-05,-1e-05,-1e-05,5,28
18572,0,0.00011,6e-05,8e-05,0.00012,2e-05,-1e-05,-1e-05,5,28
18573,4e-05,7e-05,5e-05,-0.00014,-0.00016,-5e-05,-7e-05,-1e-05,5,28
18574,1e-05,3e-05,-0.00014,-7e-05,0.00014,-0.00016,0.0002,6e-05,5,28
18575,1e-05,3e-05,-0.00014,-7e-05,0.00014,-0.00016,0.0002,6e-05,5,28
18576,1e-05,3e-05,-0.00014,-7e-05,0.00014,-0.00016,0.0002,6e-05,5,28
18577,1e-05,3e-05,-0.00014,-7e-05,0.00014,-0.00016,0.0002,6e-05,5,28
18578,1e-05,3e-05,-0.00014,-7e-05,0.00014,-0.00016,0.0002,6e-05,5,28
18579,1e-05,3e-05,-0.00014,-7e-05,0.00014,-0.00016,0.0002,6e-05,5,28
18580,1e-05,3e-05,-0.00014,-7e-05,0.00014,-0.00016,0.0002,6e-05,5,28
18581,1e-05,3e-05,-0.00014,-7e-05,0.00014,-0.00016,0.0002,6e-05,5,28
18582,1e-05,3e-05,-0.00014,-7e-05,0.00014,-0.00016,0.0002,6e-05,5,28
18583,1e-05,3e-05,-0.00014,-7e-05,0.00014,-0.00016,0.0002,6e-05,5,28
18584,1e-05,3e-05,-0.00014,-7e-05,0.00014,-0.00016,0.0002,6e-05,5,28
18585,1e-05,3e-05,-0.00014,-7e-05,0.00014,-0.00016,0.0002,6e-05,5,28
18586,1e-05,3e-05,-0.00014,-7e-05,0.00014,-0.00016,0.0002,6e-05,5,28
18589,1e-05,3e-05,-0.00014,-7e-05,0.00014,-0.00016,0.0002,6e-05,5,28
18590,1e-05,3e-05,-0.00014,-7e-05,0.00014,-0.00016,0.0002,6e-05,5,28
18591,1e-05,3e-05,-0.00014,-7e-05,0.00014,-0.00016,0.0002,6e-05,5,28
18592,1e-05,3e-05,-0.00014,-7e-05,0.00014,-0.00016,0.0002,6e-05,5,28
18593,1e-05,3e-05,-0.00014,-7e-05,0.00014,-0.00016,0.0002,6e-05,5,28
18594,1e-05,3e-05,-0.00014,-7e-05,0.00014,-0.00016,0.0002,6e-05,5,28
18595,1e-05,3e-05,-0.00014,-7e-05,0.00014,-0.00016,0.0002,6e-05,5,28
18596,1e-05,3e-05,-0.00014,-7e-05,0.00014,-0.00016,0.0002,6e-05,5,28
18597,1e-05,3e-05,-0.00014,-7e-05,0.00014,-0.00016,0.0002,6e-05,5,28
18598,1e-05,3e-05,-0.00014,-7e-05,0.00014,-0.00016,0.0002,6e-05,5,28
18599,1e-05,3e-05,-0.00014,-7e-05,0.00014,-0.00016,0.0002,6e-05,5,28
18600,1e-05,3e-05,-0.00014,-7e-05,0.00014,-0.00016,0.0002,6e-05,5,28
18601,1e-05,3e-05,-0.00014,-7e-05,0.00014,-0.00016,0.0002,6e-05,5,28
18602,1e-05,3e-05,-0.00014,-7e-05,0.00014,-0.00016,0.0002,6e-05,5,28
18603,8e-05,0.00018,0.00015,0.00017,0.0001,0.0001,-7e-05,-1e-05,5,28
18604,-9e-05,-6e-05,-0.0001,0,0.00066,0.00012,-3e-05,-6e-05,5,28
18605,-9e-05,-6e-05,-0.0001,0,0.00066,0.00012,-3e-05,-6e-05,5,28
18606,-9e-05,-6e-05,-0.0001,0,0.00066,0.00012,-3e-05,-6e-05,5,28
18607,-9e-05,-6e-05,-0.0001,0,0.00066,0.00012,-3e-05,-6e-05,5,28
18608,-9e-05,-6e-05,-0.0001,0,0.00066,0.00012,-3e-05,-6e-05,5,28
18609,-9e-05,-6e-05,-0.0001,0,0.00066,0.00012,-3e-05,-6e-05,5,28
18610,-9e-05,-6e-05,-0.0001,0,0.00066,0.00012,-3e-05,-6e-05,5,28
18611,-9e-05,-6e-05,-0.0001,0,0.00066,0.00012,-3e-05,-6e-05,5,28
18612,-9e-05,-6e-05,-0.0001,0,0.00066,0.00012,-3e-05,-6e-05,5,28
18613,-9e-05,-6e-05,-0.0001,0,0.00066,0.00012,-3e-05,-6e-05,5,28
18614,-9e-05,-6e-05,-0.0001,0,0.00066,0.00012,-3e-05,-6e-05,5,28
18615,-9e-05,-6e-05,-0.0001,0,0.00066,0.00012,-3e-05,-6e-05,5,28
18616,-9e-05,-6e-05,-0.0001,0,0.00066,0.00012,-3e-05,-6e-05,5,28
18617,-9e-05,-6e-05,-0.0001,0,0.00066,0.00012,-3e-05,-6e-05,5,28
18618,1e-05,0.00015,8e-05,0.0001,0.00027,-9e-05,2e-05,-3e-05,5,28
18619,-1e-05,6e-05,-2e-05,6e-05,9e-05,-3e-05,-8e-05,2e-05,5,28
18620,-1e-05,6e-05,-2e-05,6e-05,9e-05,-3e-05,-8e-05,2e-05,5,28
18622,-1e-05,6e-05,-2e-05,6e-05,9e-05,-3e-05,-8e-05,2e-05,5,28
18623,-1e-05,6e-05,-2e-05,6e-05,9e-05,-3e-05,-8e-05,2e-05,5,28
18624,-1e-05,6e-05,-2e-05,6e-05,9e-05,-3e-05,-8e-05,2e-05,5,28
18625,-1e-05,6e-05,-2e-05,6e-05,9e-05,-3e-05,-8e-05,2e-05,5,28
18626,-1e-05,6e-05,-2e-05,6e-05,9e-05,-3e-05,-8e-05,2e-05,5,28
18627,-1e-05,6e-05,-2e-05,6e-05,9e-05,-3e-05,-8e-05,2e-05,5,28
18628,-1e-05,6e-05,-2e-05,6e-05,9e-05,-3e-05,-8e-05,2e-05,5,28
18629,-1e-05,6e-05,-2e-05,6e-05,9e-05,-3e-05,-8e-05,2e-05,5,28
18630,-1e-05,6e-05,-2e-05,6e-05,9e-05,-3e-05,-8e-05,2e-05,5,28
18631,-1e-05,6e-05,-2e-05,6e-05,9e-05,-3e-05,-8e-05,2e-05,5,28
18632,-1e-05,6e-05,-2e-05,6e-05,9e-05,-3e-05,-8e-05,2e-05,5,28
18633,-6e-05,-0.00014,-0.00015,-4e-05,0.00015,7e-05,-1e-05,1e-05,5,28
18634,2e-05,-8e-05,-0.00019,-7e-05,-0.00019,-6e-05,-1e-05,-1e-05,5,28
18635,2e-05,-8e-05,-0.00019,-7e-05,-0.00019,-6e-05,-1e-05,-1e-05,5,28
18636,2e-05,-8e-05,-0.00019,-7e-05,-0.00019,-6e-05,-1e-05,-1e-05,5,28
18639,2e-05,-8e-05,-0.00019,-7e-05,-0.00019,-6e-05,-1e-05,-1e-05,5,28
18640,2e-05,-8e-05,-0.00019,-7e-05,-0.00019,-6e-05,-1e-05,-1e-05,5,28
18641,2e-05,-8e-05,-0.00019,-7e-05,-0.00019,-6e-05,-1e-05,-1e-05,5,28
18642,2e-05,-8e-05,-0.00019,-7e-05,-0.00019,-6e-05,-1e-05,-1e-05,5,28
18643,2e-05,-8e-05,-0.00019,-7e-05,-0.00019,-6e-05,-1e-05,-1e-05,5,28
18644,2e-05,-8e-05,-0.00019,-7e-05,-0.00019,-6e-05,-1e-05,-1e-05,5,28
18645,2e-05,-8e-05,-0.00019,-7e-05,-0.00019,-6e-05,-1e-05,-1e-05,5,28
18646,2e-05,-8e-05,-0.00019,-7e-05,-0.00019,-6e-05,-1e-05,-1e-05,5,28
18647,2e-05,-8e-05,-0.00019,-7e-05,-0.00019,-6e-05,-1e-05,-1e-05,5,28
18648,2e-05,-8e-05,-0.00019,-7e-05,-0.00019,-6e-05,-1e-05,-1e-05,5,28
18649,2e-05,-8e-05,-0.00019,-7e-05,-0.00019,-6e-05,-1e-05,-1e-05,5,28
18650,2e-05,-8e-05,-0.00019,-7e-05,-0.00019,-6e-05,-1e-05,-1e-05,5,28
18651,2e-05,-8e-05,-0.00019,-7e-05,-0.00019,-6e-05,-1e-05,-1e-05,5,28
18652,2e-05,-8e-05,-0.00019,-7e-05,-0.00019,-6e-05,-1e-05,-1e-05,5,28
18653,2e-05,-8e-05,-0.00019,-7e-05,-0.00019,-6e-05,-1e-05,-1e-05,5,28
18654,2e-05,-8e-05,-0.00019,-7e-05,-0.00019,-6e-05,-1e-05,-1e-05,5,28
18655,2e-05,-8e-05,-0.00019,-7e-05,-0.00019,-6e-05,-1e-05,-1e-05,5,28
18656,2e-05,-8e-05,-0.00019,-7e-05,-0.00019,-6e-05,-1e-05,-1e-05,5,28
18657,2e-05,-8e-05,-0.00019,-7e-05,-0.00019,-6e-05,-1e-05,-1e-05,5,28
18658,2e-05,-8e-05,-0.00019,-7e-05,-0.00019,-6e-05,-1e-05,-1e-05,5,28
18659,2e-05,-8e-05,-0.00019,-7e-05,-0.00019,-6e-05,-1e-05,-1e-05,5,28
18660,2e-05,-8e-05,-0.00019,-7e-05,-0.00019,-6e-05,-1e-05,-1e-05,5,28
18661,2e-05,-8e-05,-0.00019,-7e-05,-0.00019,-6e-05,-1e-05,-1e-05,5,28
18662,2e-05,-8e-05,-0.00019,-7e-05,-0.00019,-6e-05,-1e-05,-1e-05,5,28
18663,2e-05,-8e-05,-0.00019,-7e-05,-0.00019,-6e-05,-1e-05,-1e-05,5,28
18664,3e-05,6e-05,0.00013,7e-05,-0.00024,-0.00024,7e-05,-1e-05,5,28
18665,1e-05,-7e-05,-3e-05,-5e-05,-0.00015,4e-05,-4e-05,-3e-05,5,28
18666,1e-05,-7e-05,-3e-05,-5e-05,-0.00015,4e-05,-4e-05,-3e-05,5,28
18667,1e-05,-7e-05,-3e-05,-5e-05,-0.00015,4e-05,-4e-05,-3e-05,5,28
18669,1e-05,-7e-05,-3e-05,-5e-05,-0.00015,4e-05,-4e-05,-3e-05,5,28
18670,1e-05,-7e-05,-3e-05,-5e-05,-0.00015,4e-05,-4e-05,-3e-05,5,28
18671,1e-05,-7e-05,-3e-05,-5e-05,-0.00015,4e-05,-4e-05,-3e-05,5,28
18672,1e-05,-7e-05,-3e-05,-5e-05,-0.00015,4e-05,-4e-05,-3e-05,5,28
18673,1e-05,-7e-05,-3e-05,-5e-05,-0.00015,4e-05,-4e-05,-3e-05,5,28
18674,1e-05,-7e-05,-3e-05,-5e-05,-0.00015,4e-05,-4e-05,-3e-05,5,28
18675,1e-05,-7e-05,-3e-05,-5e-05,-0.00015,4e-05,-4e-05,-3e-05,5,28
18676,1e-05,-7e-05,-3e-05,-5e-05,-0.00015,4e-05,-4e-05,-3e-05,5,28
18677,1e-05,-7e-05,-3e-05,-5e-05,-0.00015,4e-05,-4e-05,-3e-05,5,28
18678,-1e-05,-8e-05,-8e-05,-0.0001,-1e-05,3e-05,0,-2e-05,5,28
18679,4e-05,0.00011,6e-05,6e-05,-0.00018,-0.00011,-0.0001,-1e-05,5,28
18680,4e-05,0.00011,6e-05,6e-05,-0.00018,-0.00011,-0.0001,-1e-05,5,28
18681,4e-05,0.00011,6e-05,6e-05,-0.00018,-0.00011,-0.0001,-1e-05,5,28
18682,4e-05,0.00011,6e-05,6e-05,-0.00018,-0.00011,-0.0001,-1e-05,5,28
18683,4e-05,0.00011,6e-05,6e-05,-0.00018,-0.00011,-0.0001,-1e-05,5,28
18684,4e-05,0.00011,6e-05,6e-05,-0.00018,-0.00011,-0.0001,-1e-05,5,28
18685,4e-05,0.00011,6e-05,6e-05,-0.00018,-0.00011,-0.0001,-1e-05,5,28
18686,4e-05,0.00011,6e-05,6e-05,-0.00018,-0.00011,-0.0001,-1e-05,5,28
18689,4e-05,0.00011,6e-05,6e-05,-0.00018,-0.00011,-0.0001,-1e-05,5,28
18690,4e-05,0.00011,6e-05,6e-05,-0.00018,-0.00011,-0.0001,-1e-05,5,28
18691,4e-05,0.00011,6e-05,6e-05,-0.00018,-0.00011,-0.0001,-1e-05,5,28
18692,4e-05,0.00011,6e-05,6e-05,-0.00018,-0.00011,-0.0001,-1e-05,5,28
18693,-8e-05,-0.00015,5e-05,2e-05,-5e-05,-2e-05,-0.0001,0,5,28
18694,6e-05,-6e-05,-0.00017,-4e-05,-0.0002,1e-05,-6e-05,1e-05,5,28
18695,6e-05,-6e-05,-0.00017,-4e-05,-0.0002,1e-05,-6e-05,1e-05,5,28
18696,6e-05,-6e-05,-0.00017,-4e-05,-0.0002,1e-05,-6e-05,1e-05,5,28
18697,6e-05,-6e-05,-0.00017,-4e-05,-0.0002,1e-05,-6e-05,1e-05,5,28
18698,6e-05,-6e-05,-0.00017,-4e-05,-0.0002,1e-05,-6e-05,1e-05,5,28
18699,6e-05,-6e-05,-0.00017,-4e-05,-0.0002,1e-05,-6e-05,1e-05,5,28
18700,6e-05,-6e-05,-0.00017,-4e-05,-0.0002,1e-05,-6e-05,1e-05,5,28
18701,6e-05,-6e-05,-0.00017,-4e-05,-0.0002,1e-05,-6e-05,1e-05,5,28
18702,6e-05,-6e-05,-0.00017,-4e-05,-0.0002,1e-05,-6e-05,1e-05,5,28
18703,6e-05,-6e-05,-0.00017,-4e-05,-0.0002,1e-05,-6e-05,1e-05,5,28
18704,6e-05,-6e-05,-0.00017,-4e-05,-0.0002,1e-05,-6e-05,1e-05,5,28
18705,6e-05,-6e-05,-0.00017,-4e-05,-0.0002,1e-05,-6e-05,1e-05,5,28
18706,6e-05,-6e-05,-0.00017,-4e-05,-0.0002,1e-05,-6e-05,1e-05,5,28
18707,6e-05,-6e-05,-0.00017,-4e-05,-0.0002,1e-05,-6e-05,1e-05,5,28
18708,6e-05,-6e-05,-0.00017,-4e-05,-0.0002,1e-05,-6e-05,1e-05,5,28
18709,6e-05,-6e-05,-0.00017,-4e-05,-0.0002,1e-05,-6e-05,1e-05,5,28
18710,6e-05,-6e-05,-0.00017,-4e-05,-0.0002,1e-05,-6e-05,1e-05,5,28
18711,6e-05,-6e-05,-0.00017,-4e-05,-0.0002,1e-05,-6e-05,1e-05,5,28
18712,6e-05,-6e-05,-0.00017,-4e-05,-0.0002,1e-05,-6e-05,1e-05,5,28
18713,6e-05,-6e-05,-0.00017,-4e-05,-0.0002,1e-05,-6e-05,1e-05,5,28
18714,6e-05,-6e-05,-0.00017,-4e-05,-0.0002,1e-05,-6e-05,1e-05,5,28
18715,-6e-05,-0.00013,-0.00037,-0.00012,-8e-05,6e-05,6e-05,0,5,28
18716,-7e-05,3e-05,0.00041,1e-05,0.00019,-0.00012,-3e-05,-5e-05,5,28
18717,-7e-05,3e-05,0.00041,1e-05,0.00019,-0.00012,-3e-05,-5e-05,5,28
18718,-7e-05,3e-05,0.00041,1e-05,0.00019,-0.00012,-3e-05,-5e-05,5,28
18719,-7e-05,3e-05,0.00041,1e-05,0.00019,-0.00012,-3e-05,-5e-05,5,28
18720,-7e-05,3e-05,0.00041,1e-05,0.00019,-0.00012,-3e-05,-5e-05,5,28
18721,-7e-05,3e-05,0.00041,1e-05,0.00019,-0.00012,-3e-05,-5e-05,5,28
18722,-7e-05,3e-05,0.00041,1e-05,0.00019,-0.00012,-3e-05,-5e-05,5,28
18723,-7e-05,3e-05,0.00041,1e-05,0.00019,-0.00012,-3e-05,-5e-05,5,28
18724,-7e-05,3e-05,0.00041,1e-05,0.00019,-0.00012,-3e-05,-5e-05,5,28
18725,-7e-05,3e-05,0.00041,1e-05,0.00019,-0.00012,-3e-05,-5e-05,5,28
18726,-7e-05,3e-05,0.00041,1e-05,0.00019,-0.00012,-3e-05,-5e-05,5,28
18727,-7e-05,3e-05,0.00041,1e-05,0.00019,-0.00012,-3e-05,-5e-05,5,28
18728,-7e-05,3e-05,0.00041,1e-05,0.00019,-0.00012,-3e-05,-5e-05,5,28
18729,-7e-05,3e-05,0.00041,1e-05,0.00019,-0.00012,-3e-05,-5e-05,5,28
18730,-7e-05,3e-05,0.00041,1e-05,0.00019,-0.00012,-3e-05,-5e-05,5,28
18731,-1e-05,-2e-05,-0.00016,-2e-05,6e-05,1e-05,3e-05,-2e-05,5,28
18732,-1e-05,-2e-05,-0.00016,-2e-05,6e-05,1e-05,3e-05,-2e-05,5,28
18733,-1e-05,-2e-05,-0.00016,-2e-05,6e-05,1e-05,3e-05,-2e-05,5,28
18734,-1e-05,-2e-05,-0.00016,-2e-05,6e-05,1e-05,3e-05,-2e-05,5,28
18735,-1e-05,-2e-05,-0.00016,-2e-05,6e-05,1e-05,3e-05,-2e-05,5,28
18736,-1e-05,-2e-05,-0.00016,-2e-05,6e-05,1e-05,3e-05,-2e-05,5,28
18738,-1e-05,-2e-05,-0.00016,-2e-05,6e-05,1e-05,3e-05,-2e-05,5,28
18739,-1e-05,-2e-05,-0.00016,-2e-05,6e-05,1e-05,3e-05,-2e-05,5,28
18740,2e-05,0.00012,-0.00012,-0.00011,0.00037,0.00017,2e-05,-3e-05,5,28
18741,-0.00015,-0.00015,0.00017,0.00012,-0.00016,7e-05,3e-05,4e-05,5,28
18742,-0.00015,-0.00015,0.00017,0.00012,-0.00016,7e-05,3e-05,4e-05,5,28
18743,-0.00015,-0.00015,0.00017,0.00012,-0.00016,7e-05,3e-05,4e-05,5,28
18744,-0.00015,-0.00015,0.00017,0.00012,-0.00016,7e-05,3e-05,4e-05,5,28
18745,-0.00015,-0.00015,0.00017,0.00012,-0.00016,7e-05,3e-05,4e-05,5,28
18746,-0.00015,-0.00015,0.00017,0.00012,-0.00016,7e-05,3e-05,4e-05,5,28
18747,-0.00015,-0.00015,0.00017,0.00012,-0.00016,7e-05,3e-05,4e-05,5,28
18748,-0.00015,-0.00015,0.00017,0.00012,-0.00016,7e-05,3e-05,4e-05,5,28
18749,-0.00015,-0.00015,0.00017,0.00012,-0.00016,7e-05,3e-05,4e-05,5,28
18750,-0.00015,-0.00015,0.00017,0.00012,-0.00016,7e-05,3e-05,4e-05,5,28
18751,-0.00015,-0.00015,0.00017,0.00012,-0.00016,7e-05,3e-05,4e-05,5,28
18752,-0.00015,-0.00015,0.00017,0.00012,-0.00016,7e-05,3e-05,4e-05,5,28
18753,-0.00015,-0.00015,0.00017,0.00012,-0.00016,7e-05,3e-05,4e-05,5,28
18754,-0.00015,-0.00015,0.00017,0.00012,-0.00016,7e-05,3e-05,4e-05,5,28
18755,-0.00015,-0.00015,0.00017,0.00012,-0.00016,7e-05,3e-05,4e-05,5,28
18756,-0.00015,-0.00015,0.00017,0.00012,-0.00016,7e-05,3e-05,4e-05,5,28
18757,-0.00015,-0.00015,0.00017,0.00012,-0.00016,7e-05,3e-05,4e-05,5,28
18758,-0.00015,-0.00015,0.00017,0.00012,-0.00016,7e-05,3e-05,4e-05,5,28
18759,-0.00015,-0.00015,0.00017,0.00012,-0.00016,7e-05,3e-05,4e-05,5,28
18760,-0.00015,-0.00015,0.00017,0.00012,-0.00016,7e-05,3e-05,4e-05,5,28
18761,0,-1e-05,-0.00015,-0.00013,-0.00037,1e-05,-4e-05,-3e-05,5,28
18762,0,-1e-05,-0.00015,-0.00013,-0.00037,1e-05,-4e-05,-3e-05,5,28
18763,0,-1e-05,-0.00015,-0.00013,-0.00037,1e-05,-4e-05,-3e-05,5,28
18764,0,-1e-05,-0.00015,-0.00013,-0.00037,1e-05,-4e-05,-3e-05,5,28
18765,0,-1e-05,-0.00015,-0.00013,-0.00037,1e-05,-4e-05,-3e-05,5,28
18766,0,-1e-05,-0.00015,-0.00013,-0.00037,1e-05,-4e-05,-3e-05,5,28
18767,0,-1e-05,-0.00015,-0.00013,-0.00037,1e-05,-4e-05,-3e-05,5,28
18768,0,-1e-05,-0.00015,-0.00013,-0.00037,1e-05,-4e-05,-3e-05,5,28
18769,0,-1e-05,-0.00015,-0.00013,-0.00037,1e-05,-4e-05,-3e-05,5,28
18770,0,-1e-05,-0.00015,-0.00013,-0.00037,1e-05,-4e-05,-3e-05,5,28
18771,0,-1e-05,-0.00015,-0.00013,-0.00037,1e-05,-4e-05,-3e-05,5,28
18772,0,-1e-05,-0.00015,-0.00013,-0.00037,1e-05,-4e-05,-3e-05,5,28
18773,0,-1e-05,-0.00015,-0.00013,-0.00037,1e-05,-4e-05,-3e-05,5,28
18774,0,-1e-05,-0.00015,-0.00013,-0.00037,1e-05,-4e-05,-3e-05,5,28
18775,1e-05,-1e-05,-7e-05,1e-05,0.00047,-0.00011,0.00012,1e-05,5,28
18776,3e-05,0.00011,-3e-05,-0.00013,-0.0004,-8e-05,3e-05,-3e-05,5,28
18777,3e-05,0.00011,-3e-05,-0.00013,-0.0004,-8e-05,3e-05,-3e-05,5,28
18778,3e-05,0.00011,-3e-05,-0.00013,-0.0004,-8e-05,3e-05,-3e-05,5,28
18779,3e-05,0.00011,-3e-05,-0.00013,-0.0004,-8e-05,3e-05,-3e-05,5,28
18780,3e-05,0.00011,-3e-05,-0.00013,-0.0004,-8e-05,3e-05,-3e-05,5,28
18781,3e-05,0.00011,-3e-05,-0.00013,-0.0004,-8e-05,3e-05,-3e-05,5,28
18782,3e-05,0.00011,-3e-05,-0.00013,-0.0004,-8e-05,3e-05,-3e-05,5,28
18783,3e-05,0.00011,-3e-05,-0.00013,-0.0004,-8e-05,3e-05,-3e-05,5,28
18784,3e-05,0.00011,-3e-05,-0.00013,-0.0004,-8e-05,3e-05,-3e-05,5,28
18785,3e-05,0.00011,-3e-05,-0.00013,-0.0004,-8e-05,3e-05,-3e-05,5,28
18786,3e-05,0.00011,-3e-05,-0.00013,-0.0004,-8e-05,3e-05,-3e-05,5,28
18788,3e-05,0.00011,-3e-05,-0.00013,-0.0004,-8e-05,3e-05,-3e-05,5,28
18789,3e-05,0.00011,-3e-05,-0.00013,-0.0004,-8e-05,3e-05,-3e-05,5,28
18790,3e-05,0.00011,-3e-05,-0.00013,-0.0004,-8e-05,3e-05,-3e-05,5,28
18791,3e-05,0.00011,-3e-05,-0.00013,-0.0004,-8e-05,3e-05,-3e-05,5,28
18792,3e-05,0.00011,-3e-05,-0.00013,-0.0004,-8e-05,3e-05,-3e-05,5,28
18793,3e-05,0.00011,-3e-05,-0.00013,-0.0004,-8e-05,3e-05,-3e-05,5,28
18794,3e-05,0.00011,-3e-05,-0.00013,-0.0004,-8e-05,3e-05,-3e-05,5,28
18795,3e-05,0.00011,-3e-05,-0.00013,-0.0004,-8e-05,3e-05,-3e-05,5,28
18796,3e-05,0.00011,-3e-05,-0.00013,-0.0004,-8e-05,3e-05,-3e-05,5,28
18797,3e-05,0.00011,-3e-05,-0.00013,-0.0004,-8e-05,3e-05,-3e-05,5,28
18798,-2e-05,-8e-05,-1e-05,0.00022,0.00065,0,-0.0001,-2e-05,5,28
18799,-4e-05,3e-05,-3e-05,-0.00022,-0.00012,0,2e-05,-2e-05,5,28
18800,-4e-05,3e-05,-3e-05,-0.00022,-0.00012,0,2e-05,-2e-05,5,28
18801,-4e-05,3e-05,-3e-05,-0.00022,-0.00012,0,2e-05,-2e-05,5,28
18802,-4e-05,3e-05,-3e-05,-0.00022,-0.00012,0,2e-05,-2e-05,5,28
18803,-4e-05,3e-05,-3e-05,-0.00022,-0.00012,0,2e-05,-2e-05,5,28
18804,-4e-05,3e-05,-3e-05,-0.00022,-0.00012,0,2e-05,-2e-05,5,28
18805,-4e-05,3e-05,-3e-05,-0.00022,-0.00012,0,2e-05,-2e-05,5,28
18806,-4e-05,3e-05,-3e-05,-0.00022,-0.00012,0,2e-05,-2e-05,5,28
18807,-4e-05,3e-05,-3e-05,-0.00022,-0.00012,0,2e-05,-2e-05,5,28
18808,-4e-05,3e-05,-3e-05,-0.00022,-0.00012,0,2e-05,-2e-05,5,28
18810,-4e-05,3e-05,-3e-05,-0.00022,-0.00012,0,2e-05,-2e-05,5,28
18811,-4e-05,3e-05,-3e-05,-0.00022,-0.00012,0,2e-05,-2e-05,5,28
18812,-4e-05,3e-05,-3e-05,-0.00022,-0.00012,0,2e-05,-2e-05,5,28
18813,-2e-05,7e-05,0.00012,0.00014,-0.00011,-6e-05,2e-05,0,5,28
18814,0.00012,7e-05,-6e-05,4e-05,0.00048,8e-05,-4e-05,-2e-05,5,28
18815,0.00012,7e-05,-6e-05,4e-05,0.00048,8e-05,-4e-05,-2e-05,5,28
18816,0.00012,7e-05,-6e-05,4e-05,0.00048,8e-05,-4e-05,-2e-05,5,28
18817,0.00012,7e-05,-6e-05,4e-05,0.00048,8e-05,-4e-05,-2e-05,5,28
18818,0.00012,7e-05,-6e-05,4e-05,0.00048,8e-05,-4e-05,-2e-05,5,28
18819,0.00012,7e-05,-6e-05,4e-05,0.00048,8e-05,-4e-05,-2e-05,5,28
18820,0.00012,7e-05,-6e-05,4e-05,0.00048,8e-05,-4e-05,-2e-05,5,28
18821,0.00012,7e-05,-6e-05,4e-05,0.00048,8e-05,-4e-05,-2e-05,5,28
18822,0.00012,7e-05,-6e-05,4e-05,0.00048,8e-05,-4e-05,-2e-05,5,28
18823,0.00012,7e-05,-6e-05,4e-05,0.00048,8e-05,-4e-05,-2e-05,5,28
18824,0.00012,7e-05,-6e-05,4e-05,0.00048,8e-05,-4e-05,-2e-05,5,28
18825,0.00012,7e-05,-6e-05,4e-05,0.00048,8e-05,-4e-05,-2e-05,5,28
18826,0.00012,7e-05,-6e-05,4e-05,0.00048,8e-05,-4e-05,-2e-05,5,28
18827,0.00012,7e-05,-6e-05,4e-05,0.00048,8e-05,-4e-05,-2e-05,5,28
18828,0.00012,7e-05,-6e-05,4e-05,0.00048,8e-05,-4e-05,-2e-05,5,28
18829,0.00012,7e-05,-6e-05,4e-05,0.00048,8e-05,-4e-05,-2e-05,5,28
18830,0.00012,7e-05,-6e-05,4e-05,0.00048,8e-05,-4e-05,-2e-05,5,28
18831,0.00012,7e-05,-6e-05,4e-05,0.00048,8e-05,-4e-05,-2e-05,5,28
18832,0.00012,7e-05,-6e-05,4e-05,0.00048,8e-05,-4e-05,-2e-05,5,28
18833,0.00012,7e-05,-6e-05,4e-05,0.00048,8e-05,-4e-05,-2e-05,5,28
18834,0.00012,7e-05,-6e-05,4e-05,0.00048,8e-05,-4e-05,-2e-05,5,28
18835,-5e-05,2e-05,-0.00012,-0.00012,-0.00022,-4e-05,-5e-05,-2e-05,5,28
18836,-0.00014,-1e-05,-0.00011,-3e-05,-5e-05,-2e-05,-4e-05,0,5,28
18838,-0.00014,-1e-05,-0.00011,-3e-05,-5e-05,-2e-05,-4e-05,0,5,28
18839,-0.00014,-1e-05,-0.00011,-3e-05,-5e-05,-2e-05,-4e-05,0,5,28
18840,-0.00014,-1e-05,-0.00011,-3e-05,-5e-05,-2e-05,-4e-05,0,5,28
18841,-0.00014,-1e-05,-0.00011,-3e-05,-5e-05,-2e-05,-4e-05,0,5,28
18842,-0.00014,-1e-05,-0.00011,-3e-05,-5e-05,-2e-05,-4e-05,0,5,28
18843,-0.00014,-1e-05,-0.00011,-3e-05,-5e-05,-2e-05,-4e-05,0,5,28
18844,-0.00014,-1e-05,-0.00011,-3e-05,-5e-05,-2e-05,-4e-05,0,5,28
18845,-0.00014,-1e-05,-0.00011,-3e-05,-5e-05,-2e-05,-4e-05,0,5,28
18846,-0.00014,-1e-05,-0.00011,-3e-05,-5e-05,-2e-05,-4e-05,0,5,28
18847,-0.00014,-1e-05,-0.00011,-3e-05,-5e-05,-2e-05,-4e-05,0,5,28
18848,-0.00014,-1e-05,-0.00011,-3e-05,-5e-05,-2e-05,-4e-05,0,5,28
18849,-0.00014,-1e-05,-0.00011,-3e-05,-5e-05,-2e-05,-4e-05,0,5,28
18850,5e-05,2e-05,0.00015,6e-05,0.00016,1e-05,4e-05,-1e-05,5,28
18851,5e-05,2e-05,0.00015,6e-05,0.00016,1e-05,4e-05,-1e-05,5,28
18852,5e-05,2e-05,0.00015,6e-05,0.00016,1e-05,4e-05,-1e-05,5,28
18853,5e-05,2e-05,0.00015,6e-05,0.00016,1e-05,4e-05,-1e-05,5,28
18854,5e-05,2e-05,0.00015,6e-05,0.00016,1e-05,4e-05,-1e-05,5,28
18855,5e-05,2e-05,0.00015,6e-05,0.00016,1e-05,4e-05,-1e-05,5,28
18856,5e-05,2e-05,0.00015,6e-05,0.00016,1e-05,4e-05,-1e-05,5,28
18857,5e-05,2e-05,0.00015,6e-05,0.00016,1e-05,4e-05,-1e-05,5,28
18858,0.00012,6e-05,-6e-05,-7e-05,-2e-05,-1e-05,-0.00013,-4e-05,5,28
18859,-7e-05,-5e-05,-2e-05,5e-05,0.00011,-9e-05,-1e-05,0,5,28
18860,-7e-05,-5e-05,-2e-05,5e-05,0.00011,-9e-05,-1e-05,0,5,28
18861,-7e-05,-5e-05,-2e-05,5e-05,0.00011,-9e-05,-1e-05,0,5,28
18862,-7e-05,-5e-05,-2e-05,5e-05,0.00011,-9e-05,-1e-05,0,5,28
18863,-7e-05,-5e-05,-2e-05,5e-05,0.00011,-9e-05,-1e-05,0,5,28
18864,-7e-05,-5e-05,-2e-05,5e-05,0.00011,-9e-05,-1e-05,0,5,28
18865,-7e-05,-5e-05,-2e-05,5e-05,0.00011,-9e-05,-1e-05,0,5,28
18866,-7e-05,-5e-05,-2e-05,5e-05,0.00011,-9e-05,-1e-05,0,5,28
18867,-7e-05,-5e-05,-2e-05,5e-05,0.00011,-9e-05,-1e-05,0,5,28
18868,-7e-05,-5e-05,-2e-05,5e-05,0.00011,-9e-05,-1e-05,0,5,28
18869,-7e-05,-5e-05,-2e-05,5e-05,0.00011,-9e-05,-1e-05,0,5,28
18870,-7e-05,-5e-05,-2e-05,5e-05,0.00011,-9e-05,-1e-05,0,5,28
18871,-7e-05,-5e-05,-2e-05,5e-05,0.00011,-9e-05,-1e-05,0,5,28
18872,-7e-05,-5e-05,-2e-05,5e-05,0.00011,-9e-05,-1e-05,0,5,28
18873,-2e-05,-0.00016,-7e-05,0.00022,0.00021,1e-05,-3e-05,-5e-05,5,28
18874,-2e-05,-0.00016,-7e-05,0.00022,0.00021,1e-05,-3e-05,-5e-05,5,28
18875,-2e-05,-0.00016,-7e-05,0.00022,0.00021,1e-05,-3e-05,-5e-05,5,28
18876,-2e-05,-0.00016,-7e-05,0.00022,0.00021,1e-05,-3e-05,-5e-05,5,28
18877,-2e-05,-0.00016,-7e-05,0.00022,0.00021,1e-05,-3e-05,-5e-05,5,28
18878,-2e-05,-0.00016,-7e-05,0.00022,0.00021,1e-05,-3e-05,-5e-05,5,28
18879,-2e-05,-0.00016,-7e-05,0.00022,0.00021,1e-05,-3e-05,-5e-05,5,28
18880,0,-3e-05,-8e-05,0.0001,1e-05,-7e-05,4e-05,-1e-05,5,28
18881,0,-3e-05,-8e-05,0.0001,1e-05,-7e-05,4e-05,-1e-05,5,28
18882,0,-3e-05,-8e-05,0.0001,1e-05,-7e-05,4e-05,-1e-05,5,28
18883,0,-3e-05,-8e-05,0.0001,1e-05,-7e-05,4e-05,-1e-05,5,28
18884,0,-3e-05,-8e-05,0.0001,1e-05,-7e-05,4e-05,-1e-05,5,28
18885,0,-3e-05,-8e-05,0.0001,1e-05,-7e-05,4e-05,-1e-05,5,28
18886,0,-3e-05,-8e-05,0.0001,1e-05,-7e-05,4e-05,-1e-05,5,28
18888,0,-3e-05,-8e-05,0.0001,1e-05,-7e-05,4e-05,-1e-05,5,28
18890,0,-3e-05,-8e-05,0.0001,1e-05,-7e-05,4e-05,-1e-05,5,28
18891,0,-3e-05,-8e-05,0.0001,1e-05,-7e-05,4e-05,-1e-05,5,28
18892,0,-3e-05,-8e-05,0.0001,1e-05,-7e-05,4e-05,-1e-05,5,28
18893,0,-3e-05,-8e-05,0.0001,1e-05,-7e-05,4e-05,-1e-05,5,28
18894,0,-3e-05,-8e-05,0.0001,1e-05,-7e-05,4e-05,-1e-05,5,28
18895,0,-3e-05,-8e-05,0.0001,1e-05,-7e-05,4e-05,-1e-05,5,28
18896,-9e-05,-9e-05,0.00025,7e-05,-6e-05,0.00013,1e-05,0,5,28
18897,-0.00015,-0.00017,-0.0003,-0.00023,-0.00012,-0.00012,-4e-05,-3e-05,5,28
18898,-0.00015,-0.00017,-0.0003,-0.00023,-0.00012,-0.00012,-4e-05,-3e-05,5,28
18899,-0.00015,-0.00017,-0.0003,-0.00023,-0.00012,-0.00012,-4e-05,-3e-05,5,28
18900,-0.00015,-0.00017,-0.0003,-0.00023,-0.00012,-0.00012,-4e-05,-3e-05,5,28
18901,-0.00015,-0.00017,-0.0003,-0.00023,-0.00012,-0.00012,-4e-05,-3e-05,5,28
18902,-0.00015,-0.00017,-0.0003,-0.00023,-0.00012,-0.00012,-4e-05,-3e-05,5,28
18903,-0.00015,-0.00017,-0.0003,-0.00023,-0.00012,-0.00012,-4e-05,-3e-05,5,28
18904,-0.00015,-0.00017,-0.0003,-0.00023,-0.00012,-0.00012,-4e-05,-3e-05,5,28
18905,-0.00015,-0.00017,-0.0003,-0.00023,-0.00012,-0.00012,-4e-05,-3e-05,5,28
18906,-0.00015,-0.00017,-0.0003,-0.00023,-0.00012,-0.00012,-4e-05,-3e-05,5,28
18907,-0.00015,-0.00017,-0.0003,-0.00023,-0.00012,-0.00012,-4e-05,-3e-05,5,28
18908,-0.00015,-0.00017,-0.0003,-0.00023,-0.00012,-0.00012,-4e-05,-3e-05,5,28
18909,-0.00015,-0.00017,-0.0003,-0.00023,-0.00012,-0.00012,-4e-05,-3e-05,5,28
18910,-0.00015,-0.00017,-0.0003,-0.00023,-0.00012,-0.00012,-4e-05,-3e-05,5,28
18911,-0.00015,-0.00017,-0.0003,-0.00023,-0.00012,-0.00012,-4e-05,-3e-05,5,28
18912,-0.00015,-0.00017,-0.0003,-0.00023,-0.00012,-0.00012,-4e-05,-3e-05,5,28
18913,-0.00015,-0.00017,-0.0003,-0.00023,-0.00012,-0.00012,-4e-05,-3e-05,5,28
18914,-0.00015,-0.00017,-0.0003,-0.00023,-0.00012,-0.00012,-4e-05,-3e-05,5,28
18915,-0.00015,-0.00017,-0.0003,-0.00023,-0.00012,-0.00012,-4e-05,-3e-05,5,28
18916,-0.00015,-0.00017,-0.0003,-0.00023,-0.00012,-0.00012,-4e-05,-3e-05,5,28
18917,-0.00015,-0.00017,-0.0003,-0.00023,-0.00012,-0.00012,-4e-05,-3e-05,5,28
18918,-0.00015,-0.00017,-0.0003,-0.00023,-0.00012,-0.00012,-4e-05,-3e-05,5,28
18919,-0.00015,-0.00017,-0.0003,-0.00023,-0.00012,-0.00012,-4e-05,-3e-05,5,28
18920,-0.00015,-0.00017,-0.0003,-0.00023,-0.00012,-0.00012,-4e-05,-3e-05,5,28
18921,-0.00015,-0.00017,-0.0003,-0.00023,-0.00012,-0.00012,-4e-05,-3e-05,5,28
18922,-0.00015,-0.00017,-0.0003,-0.00023,-0.00012,-0.00012,-4e-05,-3e-05,5,28
18923,-0.00015,-0.00017,-0.0003,-0.00023,-0.00012,-0.00012,-4e-05,-3e-05,5,28
18924,-0.00015,-0.00017,-0.0003,-0.00023,-0.00012,-0.00012,-4e-05,-3e-05,5,28
18925,-0.00015,-0.00017,-0.0003,-0.00023,-0.00012,-0.00012,-4e-05,-3e-05,5,28
18926,-0.0001,-4e-05,2e-05,6e-05,-0.00013,-0.00022,-4e-05,-3e-05,5,28
18927,0.0001,6e-05,0.00016,0.00015,0.00028,0.00025,7e-05,5e-05,5,28
18928,0.0001,6e-05,0.00016,0.00015,0.00028,0.00025,7e-05,5e-05,5,28
18929,0.0001,6e-05,0.00016,0.00015,0.00028,0.00025,7e-05,5e-05,5,28
18930,0.0001,6e-05,0.00016,0.00015,0.00028,0.00025,7e-05,5e-05,5,28
18931,0.0001,6e-05,0.00016,0.00015,0.00028,0.00025,7e-05,5e-05,5,28
18932,3e-05,-0.0001,-0.00019,-0.00015,-0.00024,-0.00011,0,-3e-05,5,28
18933,3e-05,-0.0001,-0.00019,-0.00015,-0.00024,-0.00011,0,-3e-05,5,28
18934,3e-05,-0.0001,-0.00019,-0.00015,-0.00024,-0.00011,0,-3e-05,5,28
18935,3e-05,-0.0001,-0.00019,-0.00015,-0.00024,-0.00011,0,-3e-05,5,28
18936,3e-05,-0.0001,-0.00019,-0.00015,-0.00024,-0.00011,0,-3e-05,5,28
18938,3e-05,-0.0001,-0.00019,-0.00015,-0.00024,-0.00011,0,-3e-05,5,28
18939,3e-05,-0.0001,-0.00019,-0.00015,-0.00024,-0.00011,0,-3e-05,5,28
18940,3e-05,-0.0001,-0.00019,-0.00015,-0.00024,-0.00011,0,-3e-05,5,28
18941,1e-05,0.0001,6e-05,6e-05,-0.00015,0.00014,-6e-05,-2e-05,5,28
18942,1e-05,0.0001,6e-05,6e-05,-0.00015,0.00014,-6e-05,-2e-05,5,28
18943,1e-05,0.0001,6e-05,6e-05,-0.00015,0.00014,-6e-05,-2e-05,5,28
18944,1e-05,0.0001,6e-05,6e-05,-0.00015,0.00014,-6e-05,-2e-05,5,28
18945,1e-05,0.0001,6e-05,6e-05,-0.00015,0.00014,-6e-05,-2e-05,5,28
18946,1e-05,0.0001,6e-05,6e-05,-0.00015,0.00014,-6e-05,-2e-05,5,28
18947,1e-05,0.0001,6e-05,6e-05,-0.00015,0.00014,-6e-05,-2e-05,5,28
18948,1e-05,0.0001,6e-05,6e-05,-0.00015,0.00014,-6e-05,-2e-05,5,28
18949,1e-05,0.0001,6e-05,6e-05,-0.00015,0.00014,-6e-05,-2e-05,5,28
18950,1e-05,0.0001,6e-05,6e-05,-0.00015,0.00014,-6e-05,-2e-05,5,28
18951,1e-05,0.0001,6e-05,6e-05,-0.00015,0.00014,-6e-05,-2e-05,5,28
18952,1e-05,0.0001,6e-05,6e-05,-0.00015,0.00014,-6e-05,-2e-05,5,28
18953,1e-05,0.0001,6e-05,6e-05,-0.00015,0.00014,-6e-05,-2e-05,5,28
18954,1e-05,0.0001,6e-05,6e-05,-0.00015,0.00014,-6e-05,-2e-05,5,28
18955,1e-05,0.0001,6e-05,6e-05,-0.00015,0.00014,-6e-05,-2e-05,5,28
18956,3e-05,-2e-05,7e-05,-5e-05,7e-05,4e-05,3e-05,1e-05,5,28
18957,3e-05,-2e-05,7e-05,-5e-05,7e-05,4e-05,3e-05,1e-05,5,28
18958,-1e-05,9e-05,0.00042,1e-05,-0.00021,-7e-05,-1e-05,-2e-05,5,28
18959,-1e-05,9e-05,0.00042,1e-05,-0.00021,-7e-05,-1e-05,-2e-05,5,28
18960,-1e-05,9e-05,0.00042,1e-05,-0.00021,-7e-05,-1e-05,-2e-05,5,28
18961,-1e-05,9e-05,0.00042,1e-05,-0.00021,-7e-05,-1e-05,-2e-05,5,28
18962,-1e-05,9e-05,0.00042,1e-05,-0.00021,-7e-05,-1e-05,-2e-05,5,28
18963,-1e-05,9e-05,0.00042,1e-05,-0.00021,-7e-05,-1e-05,-2e-05,5,28
18964,-1e-05,9e-05,0.00042,1e-05,-0.00021,-7e-05,-1e-05,-2e-05,5,28
18965,-1e-05,9e-05,0.00042,1e-05,-0.00021,-7e-05,-1e-05,-2e-05,5,28
18966,-1e-05,9e-05,0.00042,1e-05,-0.00021,-7e-05,-1e-05,-2e-05,5,28
18967,-1e-05,9e-05,0.00042,1e-05,-0.00021,-7e-05,-1e-05,-2e-05,5,28
18968,-1e-05,9e-05,0.00042,1e-05,-0.00021,-7e-05,-1e-05,-2e-05,5,28
18969,-1e-05,9e-05,0.00042,1e-05,-0.00021,-7e-05,-1e-05,-2e-05,5,28
18970,-1e-05,9e-05,0.00042,1e-05,-0.00021,-7e-05,-1e-05,-2e-05,5,28
18971,-1e-05,9e-05,0.00042,1e-05,-0.00021,-7e-05,-1e-05,-2e-05,5,28
18972,-1e-05,9e-05,0.00042,1e-05,-0.00021,-7e-05,-1e-05,-2e-05,5,28
18973,-1e-05,9e-05,0.00042,1e-05,-0.00021,-7e-05,-1e-05,-2e-05,5,28
18974,-1e-05,9e-05,0.00042,1e-05,-0.00021,-7e-05,-1e-05,-2e-05,5,28
18975,-1e-05,9e-05,0.00042,1e-05,-0.00021,-7e-05,-1e-05,-2e-05,5,28
18976,-1e-05,9e-05,0.00042,1e-05,-0.00021,-7e-05,-1e-05,-2e-05,5,28
18977,-1e-05,9e-05,0.00042,1e-05,-0.00021,-7e-05,-1e-05,-2e-05,5,28
18978,3e-05,8e-05,-0.00013,4e-05,4e-05,0.00011,2e-05,0,5,28
18979,-4e-05,3e-05,-8e-05,-2e-05,6e-05,-4e-05,-5e-05,-2e-05,5,28
18980,-4e-05,3e-05,-8e-05,-2e-05,6e-05,-4e-05,-5e-05,-2e-05,5,28
18981,-4e-05,3e-05,-8e-05,-2e-05,6e-05,-4e-05,-5e-05,-2e-05,5,28
18982,-4e-05,3e-05,-8e-05,-2e-05,6e-05,-4e-05,-5e-05,-2e-05,5,28
18983,-4e-05,3e-05,-8e-05,-2e-05,6e-05,-4e-05,-5e-05,-2e-05,5,28
18984,-4e-05,3e-05,-8e-05,-2e-05,6e-05,-4e-05,-5e-05,-2e-05,5,28
18985,-4e-05,3e-05,-8e-05,-2e-05,6e-05,-4e-05,-5e-05,-2e-05,5,28
18986,-4e-05,3e-05,-8e-05,-2e-05,6e-05,-4e-05,-5e-05,-2e-05,5,28
18988,-4e-05,3e-05,-8e-05,-2e-05,6e-05,-4e-05,-5e-05,-2e-05,5,28
18989,-4e-05,3e-05,-8e-05,-2e-05,6e-05,-4e-05,-5e-05,-2e-05,5,28
18990,-4e-05,3e-05,-8e-05,-2e-05,6e-05,-4e-05,-5e-05,-2e-05,5,28
18991,-4e-05,3e-05,-8e-05,-2e-05,6e-05,-4e-05,-5e-05,-2e-05,5,28
18992,-7e-05,-4e-05,-0.00012,-8e-05,-7e-05,-0.00018,-0.00015,-9e-05,5,28
18993,-7e-05,-4e-05,-0.00012,-8e-05,-7e-05,-0.00018,-0.00015,-9e-05,5,28
18994,-7e-05,-4e-05,-0.00012,-8e-05,-7e-05,-0.00018,-0.00015,-9e-05,5,28
18995,-7e-05,-4e-05,-0.00012,-8e-05,-7e-05,-0.00018,-0.00015,-9e-05,5,28
18997,-7e-05,-4e-05,-0.00012,-8e-05,-7e-05,-0.00018,-0.00015,-9e-05,5,28
18998,-7e-05,-4e-05,-0.00012,-8e-05,-7e-05,-0.00018,-0.00015,-9e-05,5,28
18999,-7e-05,-4e-05,-0.00012,-8e-05,-7e-05,-0.00018,-0.00015,-9e-05,5,28
19000,3e-05,-3e-05,3e-05,0.00025,0.0002,3e-05,0,-1e-05,5,28
19001,3e-05,-3e-05,3e-05,0.00025,0.0002,3e-05,0,-1e-05,5,28
19002,3e-05,-3e-05,3e-05,0.00025,0.0002,3e-05,0,-1e-05,5,28
19003,3e-05,-3e-05,3e-05,0.00025,0.0002,3e-05,0,-1e-05,5,28
19004,3e-05,-3e-05,3e-05,0.00025,0.0002,3e-05,0,-1e-05,5,28
19005,3e-05,-3e-05,3e-05,0.00025,0.0002,3e-05,0,-1e-05,5,28
19006,3e-05,-3e-05,3e-05,0.00025,0.0002,3e-05,0,-1e-05,5,28
19007,3e-05,-3e-05,3e-05,0.00025,0.0002,3e-05,0,-1e-05,5,28
19008,3e-05,-3e-05,3e-05,0.00025,0.0002,3e-05,0,-1e-05,5,28
19009,3e-05,-3e-05,3e-05,0.00025,0.0002,3e-05,0,-1e-05,5,28
19010,3e-05,-3e-05,3e-05,0.00025,0.0002,3e-05,0,-1e-05,5,28
19011,3e-05,-3e-05,3e-05,0.00025,0.0002,3e-05,0,-1e-05,5,28
19012,3e-05,-3e-05,3e-05,0.00025,0.0002,3e-05,0,-1e-05,5,28
19013,3e-05,-3e-05,3e-05,0.00025,0.0002,3e-05,0,-1e-05,5,28
19014,3e-05,-3e-05,3e-05,0.00025,0.0002,3e-05,0,-1e-05,5,28
19015,3e-05,-3e-05,3e-05,0.00025,0.0002,3e-05,0,-1e-05,5,28
19016,-4e-05,-5e-05,3e-05,-7e-05,-0.00038,6e-05,8e-05,0,5,28
19017,-5e-05,-4e-05,-1e-05,1e-05,0.00021,-6e-05,2e-05,-1e-05,5,28
19018,-5e-05,-4e-05,-1e-05,1e-05,0.00021,-6e-05,2e-05,-1e-05,5,28
19019,-5e-05,-4e-05,-1e-05,1e-05,0.00021,-6e-05,2e-05,-1e-05,5,28
19020,-5e-05,-4e-05,-1e-05,1e-05,0.00021,-6e-05,2e-05,-1e-05,5,28
19021,-5e-05,-4e-05,-1e-05,1e-05,0.00021,-6e-05,2e-05,-1e-05,5,28
19022,-5e-05,-4e-05,-1e-05,1e-05,0.00021,-6e-05,2e-05,-1e-05,5,28
19023,-5e-05,-4e-05,-1e-05,1e-05,0.00021,-6e-05,2e-05,-1e-05,5,28
19024,-5e-05,-4e-05,-1e-05,1e-05,0.00021,-6e-05,2e-05,-1e-05,5,28
19025,-5e-05,-4e-05,-1e-05,1e-05,0.00021,-6e-05,2e-05,-1e-05,5,28
19026,-5e-05,-4e-05,-1e-05,1e-05,0.00021,-6e-05,2e-05,-1e-05,5,28
19027,-5e-05,-4e-05,-1e-05,1e-05,0.00021,-6e-05,2e-05,-1e-05,5,28
19028,-5e-05,-4e-05,-1e-05,1e-05,0.00021,-6e-05,2e-05,-1e-05,5,28
19029,-5e-05,-4e-05,-1e-05,1e-05,0.00021,-6e-05,2e-05,-1e-05,5,28
19030,-5e-05,-4e-05,-1e-05,1e-05,0.00021,-6e-05,2e-05,-1e-05,5,28
19031,-5e-05,-4e-05,-1e-05,1e-05,0.00021,-6e-05,2e-05,-1e-05,5,28
19032,-5e-05,-4e-05,-1e-05,1e-05,0.00021,-6e-05,2e-05,-1e-05,5,28
19033,-5e-05,-4e-05,-1e-05,1e-05,0.00021,-6e-05,2e-05,-1e-05,5,28
19034,-5e-05,-4e-05,-1e-05,1e-05,0.00021,-6e-05,2e-05,-1e-05,5,28
19035,-5e-05,-4e-05,-1e-05,1e-05,0.00021,-6e-05,2e-05,-1e-05,5,28
19036,-5e-05,-4e-05,-1e-05,1e-05,0.00021,-6e-05,2e-05,-1e-05,5,28
19039,2e-05,-2e-05,-0.00012,-0.0001,-6e-05,-3e-05,-7e-05,-1e-05,5,28
19040,2e-05,-2e-05,-0.00012,-0.0001,-6e-05,-3e-05,-7e-05,-1e-05,5,28
19041,2e-05,-2e-05,-0.00012,-0.0001,-6e-05,-3e-05,-7e-05,-1e-05,5,28
19042,2e-05,-2e-05,-0.00012,-0.0001,-6e-05,-3e-05,-7e-05,-1e-05,5,28
19043,2e-05,-2e-05,-0.00012,-0.0001,-6e-05,-3e-05,-7e-05,-1e-05,5,28
19044,2e-05,-2e-05,-0.00012,-0.0001,-6e-05,-3e-05,-7e-05,-1e-05,5,28
19045,2e-05,-2e-05,-0.00012,-0.0001,-6e-05,-3e-05,-7e-05,-1e-05,5,28
19046,2e-05,-2e-05,-0.00012,-0.0001,-6e-05,-3e-05,-7e-05,-1e-05,5,28
19047,2e-05,-2e-05,-0.00012,-0.0001,-6e-05,-3e-05,-7e-05,-1e-05,5,28
19048,2e-05,-2e-05,-0.00012,-0.0001,-6e-05,-3e-05,-7e-05,-1e-05,5,28
19049,2e-05,-2e-05,-0.00012,-0.0001,-6e-05,-3e-05,-7e-05,-1e-05,5,28
19050,2e-05,-2e-05,-0.00012,-0.0001,-6e-05,-3e-05,-7e-05,-1e-05,5,28
19051,2e-05,-2e-05,-0.00012,-0.0001,-6e-05,-3e-05,-7e-05,-1e-05,5,28
19052,-4e-05,0,5e-05,-1e-05,2e-05,-6e-05,-9e-05,2e-05,5,28
19053,-4e-05,0,5e-05,-1e-05,2e-05,-6e-05,-9e-05,2e-05,5,28
19054,-4e-05,0,5e-05,-1e-05,2e-05,-6e-05,-9e-05,2e-05,5,28
19055,-4e-05,0,5e-05,-1e-05,2e-05,-6e-05,-9e-05,2e-05,5,28
19056,-4e-05,0,5e-05,-1e-05,2e-05,-6e-05,-9e-05,2e-05,5,28
19057,-4e-05,0,5e-05,-1e-05,2e-05,-6e-05,-9e-05,2e-05,5,28
19058,-4e-05,0,5e-05,-1e-05,2e-05,-6e-05,-9e-05,2e-05,5,28
19059,-4e-05,0,5e-05,-1e-05,2e-05,-6e-05,-9e-05,2e-05,5,28
19060,-4e-05,0,5e-05,-1e-05,2e-05,-6e-05,-9e-05,2e-05,5,28
19061,-1e-05,-8e-05,0,-2e-05,5e-05,-1e-05,0,1e-05,5,28
19062,-1e-05,-8e-05,0,-2e-05,5e-05,-1e-05,0,1e-05,5,28
19063,-1e-05,-8e-05,0,-2e-05,5e-05,-1e-05,0,1e-05,5,28
19064,-1e-05,-8e-05,0,-2e-05,5e-05,-1e-05,0,1e-05,5,28
19065,-1e-05,-8e-05,0,-2e-05,5e-05,-1e-05,0,1e-05,5,28
19066,-1e-05,-8e-05,0,-2e-05,5e-05,-1e-05,0,1e-05,5,28
19067,-1e-05,-8e-05,0,-2e-05,5e-05,-1e-05,0,1e-05,5,28
19068,-1e-05,-8e-05,0,-2e-05,5e-05,-1e-05,0,1e-05,5,28
19069,-1e-05,-8e-05,0,-2e-05,5e-05,-1e-05,0,1e-05,5,28
19070,-1e-05,-8e-05,0,-2e-05,5e-05,-1e-05,0,1e-05,5,28
19071,-1e-05,-8e-05,0,-2e-05,5e-05,-1e-05,0,1e-05,5,28
19072,-1e-05,-8e-05,0,-2e-05,5e-05,-1e-05,0,1e-05,5,28
19073,-1e-05,-8e-05,0,-2e-05,5e-05,-1e-05,0,1e-05,5,28
19074,-1e-05,-8e-05,0,-2e-05,5e-05,-1e-05,0,1e-05,5,28
19075,-1e-05,-8e-05,0,-2e-05,5e-05,-1e-05,0,1e-05,5,28
19076,0.00019,-0.00011,0.00022,0.00017,0.00014,0.00014,7e-05,1e-05,5,28
19077,-0.00012,6e-05,-0.00021,-0.00021,9e-05,2e-05,-4e-05,-3e-05,5,28
19078,-0.00012,6e-05,-0.00021,-0.00021,9e-05,2e-05,-4e-05,-3e-05,5,28
19079,-0.00012,6e-05,-0.00021,-0.00021,9e-05,2e-05,-4e-05,-3e-05,5,28
19080,-0.00012,6e-05,-0.00021,-0.00021,9e-05,2e-05,-4e-05,-3e-05,5,28
19081,-0.00012,6e-05,-0.00021,-0.00021,9e-05,2e-05,-4e-05,-3e-05,5,28
19082,-0.00012,6e-05,-0.00021,-0.00021,9e-05,2e-05,-4e-05,-3e-05,5,28
19083,-0.00012,6e-05,-0.00021,-0.00021,9e-05,2e-05,-4e-05,-3e-05,5,28
19084,-0.00012,6e-05,-0.00021,-0.00021,9e-05,2e-05,-4e-05,-3e-05,5,28
19085,-0.00012,6e-05,-0.00021,-0.00021,9e-05,2e-05,-4e-05,-3e-05,5,28
19086,-0.00012,6e-05,-0.00021,-0.00021,9e-05,2e-05,-4e-05,-3e-05,5,28
19088,-0.00012,6e-05,-0.00021,-0.00021,9e-05,2e-05,-4e-05,-3e-05,5,28
19090,-0.00012,6e-05,-0.00021,-0.00021,9e-05,2e-05,-4e-05,-3e-05,5,28
19091,-0.00012,6e-05,-0.00021,-0.00021,9e-05,2e-05,-4e-05,-3e-05,5,28
19092,-0.00012,6e-05,-0.00021,-0.00021,9e-05,2e-05,-4e-05,-3e-05,5,28
19093,-0.00012,6e-05,-0.00021,-0.00021,9e-05,2e-05,-4e-05,-3e-05,5,28
19094,-0.00012,6e-05,-0.00021,-0.00021,9e-05,2e-05,-4e-05,-3e-05,5,28
19095,-0.00012,6e-05,-0.00021,-0.00021,9e-05,2e-05,-4e-05,-3e-05,5,28
19096,-0.00012,6e-05,-0.00021,-0.00021,9e-05,2e-05,-4e-05,-3e-05,5,28
19097,-0.00012,6e-05,-0.00021,-0.00021,9e-05,2e-05,-4e-05,-3e-05,5,28
19098,-0.00012,6e-05,-0.00021,-0.00021,9e-05,2e-05,-4e-05,-3e-05,5,28
19099,-9e-05,-9e-05,-0.00019,4e-05,-6e-05,0,1e-05,3e-05,5,28
19100,-3e-05,-0.00024,3e-05,7e-05,-0.00014,-7e-05,-2e-05,-4e-05,5,28
19101,-3e-05,-0.00024,3e-05,7e-05,-0.00014,-7e-05,-2e-05,-4e-05,5,28
19102,-3e-05,-0.00024,3e-05,7e-05,-0.00014,-7e-05,-2e-05,-4e-05,5,28
19103,-3e-05,-0.00024,3e-05,7e-05,-0.00014,-7e-05,-2e-05,-4e-05,5,28
19104,-3e-05,-0.00024,3e-05,7e-05,-0.00014,-7e-05,-2e-05,-4e-05,5,28
19105,-3e-05,-0.00024,3e-05,7e-05,-0.00014,-7e-05,-2e-05,-4e-05,5,28
19106,-3e-05,-0.00024,3e-05,7e-05,-0.00014,-7e-05,-2e-05,-4e-05,5,28
19107,-3e-05,-0.00024,3e-05,7e-05,-0.00014,-7e-05,-2e-05,-4e-05,5,28
19108,-3e-05,-0.00024,3e-05,7e-05,-0.00014,-7e-05,-2e-05,-4e-05,5,28
19109,-3e-05,-0.00024,3e-05,7e-05,-0.00014,-7e-05,-2e-05,-4e-05,5,28
19110,-3e-05,-0.00024,3e-05,7e-05,-0.00014,-7e-05,-2e-05,-4e-05,5,28
19111,-3e-05,-0.00024,3e-05,7e-05,-0.00014,-7e-05,-2e-05,-4e-05,5,28
19112,-0.00011,5e-05,0.00014,7e-05,-0.00011,5e-05,-3e-05,-3e-05,5,28
19113,-0.00011,5e-05,0.00014,7e-05,-0.00011,5e-05,-3e-05,-3e-05,5,28
19114,-0.00011,5e-05,0.00014,7e-05,-0.00011,5e-05,-3e-05,-3e-05,5,28
19115,-0.00011,5e-05,0.00014,7e-05,-0.00011,5e-05,-3e-05,-3e-05,5,28
19116,-0.00011,5e-05,0.00014,7e-05,-0.00011,5e-05,-3e-05,-3e-05,5,28
19117,-0.00011,5e-05,0.00014,7e-05,-0.00011,5e-05,-3e-05,-3e-05,5,28
19118,-0.00011,5e-05,0.00014,7e-05,-0.00011,5e-05,-3e-05,-3e-05,5,28
19119,-0.00011,5e-05,0.00014,7e-05,-0.00011,5e-05,-3e-05,-3e-05,5,28
19120,-0.00011,5e-05,0.00014,7e-05,-0.00011,5e-05,-3e-05,-3e-05,5,28
19121,-0.00011,5e-05,0.00014,7e-05,-0.00011,5e-05,-3e-05,-3e-05,5,28
19122,-0.00011,5e-05,0.00014,7e-05,-0.00011,5e-05,-3e-05,-3e-05,5,28
19123,-0.00011,5e-05,0.00014,7e-05,-0.00011,5e-05,-3e-05,-3e-05,5,28
19124,-0.00011,5e-05,0.00014,7e-05,-0.00011,5e-05,-3e-05,-3e-05,5,28
19125,-0.00011,5e-05,0.00014,7e-05,-0.00011,5e-05,-3e-05,-3e-05,5,28
19126,-0.00011,5e-05,0.00014,7e-05,-0.00011,5e-05,-3e-05,-3e-05,5,28
19127,-0.00011,5e-05,0.00014,7e-05,-0.00011,5e-05,-3e-05,-3e-05,5,28
19128,4e-05,-4e-05,1e-05,8e-05,2e-05,-2e-05,0,-1e-05,5,28
19129,4e-05,-4e-05,1e-05,8e-05,2e-05,-2e-05,0,-1e-05,5,28
19130,4e-05,-4e-05,1e-05,8e-05,2e-05,-2e-05,0,-1e-05,5,28
19131,4e-05,-4e-05,1e-05,8e-05,2e-05,-2e-05,0,-1e-05,5,28
19132,4e-05,-4e-05,1e-05,8e-05,2e-05,-2e-05,0,-1e-05,5,28
19133,4e-05,-4e-05,1e-05,8e-05,2e-05,-2e-05,0,-1e-05,5,28
19134,4e-05,-4e-05,1e-05,8e-05,2e-05,-2e-05,0,-1e-05,5,28
19135,4e-05,-4e-05,1e-05,8e-05,2e-05,-2e-05,0,-1e-05,5,28
19136,4e-05,-1e-05,0.0003,2e-05,-7e-05,-0.00012,2e-05,-2e-05,5,28
19139,3e-05,0.00012,6e-05,-4e-05,5e-05,0.00013,4e-05,2e-05,5,28
19140,3e-05,0.00012,6e-05,-4e-05,5e-05,0.00013,4e-05,2e-05,5,28
19141,3e-05,0.00012,6e-05,-4e-05,5e-05,0.00013,4e-05,2e-05,5,28
19142,3e-05,0.00012,6e-05,-4e-05,5e-05,0.00013,4e-05,2e-05,5,28
19143,3e-05,0.00012,6e-05,-4e-05,5e-05,0.00013,4e-05,2e-05,5,28
19144,3e-05,0.00012,6e-05,-4e-05,5e-05,0.00013,4e-05,2e-05,5,28
19145,3e-05,0.00012,6e-05,-4e-05,5e-05,0.00013,4e-05,2e-05,5,28
19146,3e-05,0.00012,6e-05,-4e-05,5e-05,0.00013,4e-05,2e-05,5,28
19147,3e-05,0.00012,6e-05,-4e-05,5e-05,0.00013,4e-05,2e-05,5,28
19148,3e-05,0.00012,6e-05,-4e-05,5e-05,0.00013,4e-05,2e-05,5,28
19149,3e-05,0.00012,6e-05,-4e-05,5e-05,0.00013,4e-05,2e-05,5,28
19150,3e-05,0.00012,6e-05,-4e-05,5e-05,0.00013,4e-05,2e-05,5,28
19151,3e-05,0.00012,6e-05,-4e-05,5e-05,0.00013,4e-05,2e-05,5,28
19152,3e-05,0.00012,6e-05,-4e-05,5e-05,0.00013,4e-05,2e-05,5,28
19153,3e-05,0.00012,6e-05,-4e-05,5e-05,0.00013,4e-05,2e-05,5,28
19154,3e-05,0.00012,6e-05,-4e-05,5e-05,0.00013,4e-05,2e-05,5,28
19155,3e-05,0.00012,6e-05,-4e-05,5e-05,0.00013,4e-05,2e-05,5,28
19156,3e-05,0.00012,6e-05,-4e-05,5e-05,0.00013,4e-05,2e-05,5,28
19158,3e-05,0.00012,6e-05,-4e-05,5e-05,0.00013,4e-05,2e-05,5,28
19159,3e-05,0.00012,6e-05,-4e-05,5e-05,0.00013,4e-05,2e-05,5,28
19160,0,5e-05,4e-05,0.00015,5e-05,0.00016,0.00011,3e-05,5,28
19161,0,5e-05,4e-05,0.00015,5e-05,0.00016,0.00011,3e-05,5,28
19162,-2e-05,1e-05,0,-5e-05,-2e-05,-9e-05,2e-05,1e-05,5,28
19163,-2e-05,1e-05,0,-5e-05,-2e-05,-9e-05,2e-05,1e-05,5,28
19164,-2e-05,1e-05,0,-5e-05,-2e-05,-9e-05,2e-05,1e-05,5,28
19165,-2e-05,1e-05,0,-5e-05,-2e-05,-9e-05,2e-05,1e-05,5,28
19166,-2e-05,1e-05,0,-5e-05,-2e-05,-9e-05,2e-05,1e-05,5,28
19167,-2e-05,1e-05,0,-5e-05,-2e-05,-9e-05,2e-05,1e-05,5,28
19168,-2e-05,1e-05,0,-5e-05,-2e-05,-9e-05,2e-05,1e-05,5,28
19169,-2e-05,1e-05,0,-5e-05,-2e-05,-9e-05,2e-05,1e-05,5,28
19170,-2e-05,1e-05,0,-5e-05,-2e-05,-9e-05,2e-05,1e-05,5,28
19171,-2e-05,1e-05,0,-5e-05,-2e-05,-9e-05,2e-05,1e-05,5,28
19172,-0.00013,-2e-05,-5e-05,0,-0.00022,3e-05,1e-05,-1e-05,5,28
19173,-0.00013,-2e-05,-5e-05,0,-0.00022,3e-05,1e-05,-1e-05,5,28
19174,-0.00013,-2e-05,-5e-05,0,-0.00022,3e-05,1e-05,-1e-05,5,28
19175,-0.00013,-2e-05,-5e-05,0,-0.00022,3e-05,1e-05,-1e-05,5,28
19176,-0.00013,-2e-05,-5e-05,0,-0.00022,3e-05,1e-05,-1e-05,5,28
19177,-0.00013,-2e-05,-5e-05,0,-0.00022,3e-05,1e-05,-1e-05,5,28
19178,-0.00013,-2e-05,-5e-05,0,-0.00022,3e-05,1e-05,-1e-05,5,28
19179,-0.00013,-2e-05,-5e-05,0,-0.00022,3e-05,1e-05,-1e-05,5,28
19180,-1e-05,1e-05,-4e-05,1e-05,-0.0001,1e-05,-4e-05,0,5,28
19181,-1e-05,1e-05,-4e-05,1e-05,-0.0001,1e-05,-4e-05,0,5,28
19182,-1e-05,1e-05,-4e-05,1e-05,-0.0001,1e-05,-4e-05,0,5,28
19183,-1e-05,1e-05,-4e-05,1e-05,-0.0001,1e-05,-4e-05,0,5,28
19185,-1e-05,1e-05,-4e-05,1e-05,-0.0001,1e-05,-4e-05,0,5,28
19186,-1e-05,1e-05,-4e-05,1e-05,-0.0001,1e-05,-4e-05,0,5,28
19188,-1e-05,1e-05,-4e-05,1e-05,-0.0001,1e-05,-4e-05,0,5,28
19190,-1e-05,1e-05,-4e-05,1e-05,-0.0001,1e-05,-4e-05,0,5,28
19191,-1e-05,1e-05,-4e-05,1e-05,-0.0001,1e-05,-4e-05,0,5,28
19192,-1e-05,1e-05,-4e-05,1e-05,-0.0001,1e-05,-4e-05,0,5,28
19193,-1e-05,1e-05,-4e-05,1e-05,-0.0001,1e-05,-4e-05,0,5,28
19194,-1e-05,1e-05,-4e-05,1e-05,-0.0001,1e-05,-4e-05,0,5,28
19195,0.0001,0.00013,0.00033,6e-05,-0.0002,-0.00016,-5e-05,3e-05,5,28
19196,0.0001,0.00013,0.00033,6e-05,-0.0002,-0.00016,-5e-05,3e-05,5,28
19197,0.0001,0.00013,0.00033,6e-05,-0.0002,-0.00016,-5e-05,3e-05,5,28
19198,0.0001,0.00013,0.00033,6e-05,-0.0002,-0.00016,-5e-05,3e-05,5,28
19199,0.0001,0.00013,0.00033,6e-05,-0.0002,-0.00016,-5e-05,3e-05,5,28
19200,0.0001,0.00013,0.00033,6e-05,-0.0002,-0.00016,-5e-05,3e-05,5,28
19201,0.0001,0.00013,0.00033,6e-05,-0.0002,-0.00016,-5e-05,3e-05,5,28
19202,-8e-05,6e-05,-2e-05,7e-05,0.00013,0,3e-05,-2e-05,5,28
19203,1e-05,7e-05,-5e-05,0,0.00011,1e-05,-4e-05,-3e-05,5,28
19204,1e-05,7e-05,-5e-05,0,0.00011,1e-05,-4e-05,-3e-05,5,28
19205,1e-05,7e-05,-5e-05,0,0.00011,1e-05,-4e-05,-3e-05,5,28
19206,1e-05,7e-05,-5e-05,0,0.00011,1e-05,-4e-05,-3e-05,5,28
19207,1e-05,7e-05,-5e-05,0,0.00011,1e-05,-4e-05,-3e-05,5,28
19208,1e-05,7e-05,-5e-05,0,0.00011,1e-05,-4e-05,-3e-05,5,28
19209,1e-05,7e-05,-5e-05,0,0.00011,1e-05,-4e-05,-3e-05,5,28
19210,1e-05,7e-05,-5e-05,0,0.00011,1e-05,-4e-05,-3e-05,5,28
19211,1e-05,7e-05,-5e-05,0,0.00011,1e-05,-4e-05,-3e-05,5,28
19212,1e-05,7e-05,-5e-05,0,0.00011,1e-05,-4e-05,-3e-05,5,28
19213,1e-05,7e-05,-5e-05,0,0.00011,1e-05,-4e-05,-3e-05,5,28
19214,1e-05,7e-05,-5e-05,0,0.00011,1e-05,-4e-05,-3e-05,5,28
19215,1e-05,7e-05,-5e-05,0,0.00011,1e-05,-4e-05,-3e-05,5,28
19216,1e-05,7e-05,-5e-05,0,0.00011,1e-05,-4e-05,-3e-05,5,28
19217,1e-05,7e-05,-5e-05,0,0.00011,1e-05,-4e-05,-3e-05,5,28
19218,1e-05,7e-05,-5e-05,0,0.00011,1e-05,-4e-05,-3e-05,5,28
19219,2e-05,5e-05,-0.00027,-0.00012,0.00022,8e-05,-9e-05,-4e-05,5,28
19220,-7e-05,-7e-05,-1e-05,-0.00013,-0.00038,-0.00024,0,-5e-05,5,28
19221,-7e-05,-7e-05,-1e-05,-0.00013,-0.00038,-0.00024,0,-5e-05,5,28
19222,-7e-05,-7e-05,-1e-05,-0.00013,-0.00038,-0.00024,0,-5e-05,5,28
19223,-7e-05,-7e-05,-1e-05,-0.00013,-0.00038,-0.00024,0,-5e-05,5,28
19224,-7e-05,-7e-05,-1e-05,-0.00013,-0.00038,-0.00024,0,-5e-05,5,28
19225,-7e-05,-7e-05,-1e-05,-0.00013,-0.00038,-0.00024,0,-5e-05,5,28
19226,-7e-05,-7e-05,-1e-05,-0.00013,-0.00038,-0.00024,0,-5e-05,5,28
19227,-7e-05,-7e-05,-1e-05,-0.00013,-0.00038,-0.00024,0,-5e-05,5,28
19228,-7e-05,-7e-05,-1e-05,-0.00013,-0.00038,-0.00024,0,-5e-05,5,28
19229,-7e-05,-7e-05,-1e-05,-0.00013,-0.00038,-0.00024,0,-5e-05,5,28
19230,-7e-05,-7e-05,-1e-05,-0.00013,-0.00038,-0.00024,0,-5e-05,5,28
19231,-7e-05,-7e-05,-1e-05,-0.00013,-0.00038,-0.00024,0,-5e-05,5,28
19232,5e-05,-1e-05,4e-05,6e-05,1e-05,5e-05,0,1e-05,5,28
19233,5e-05,-1e-05,4e-05,6e-05,1e-05,5e-05,0,1e-05,5,28
19234,5e-05,-1e-05,4e-05,6e-05,1e-05,5e-05,0,1e-05,5,28
19235,5e-05,-1e-05,4e-05,6e-05,1e-05,5e-05,0,1e-05,5,28
19236,5e-05,-1e-05,4e-05,6e-05,1e-05,5e-05,0,1e-05,5,28
19239,5e-05,-1e-05,4e-05,6e-05,1e-05,5e-05,0,1e-05,5,28
19240,0.00012,-2e-05,-0.00017,-9e-05,-0.00045,-0.00016,-4e-05,0,5,28
19241,0.00012,-2e-05,-0.00017,-9e-05,-0.00045,-0.00016,-4e-05,0,5,28
19242,0.00012,-2e-05,-0.00017,-9e-05,-0.00045,-0.00016,-4e-05,0,5,28
19243,0.00012,-2e-05,-0.00017,-9e-05,-0.00045,-0.00016,-4e-05,0,5,28
19244,0.00012,-2e-05,-0.00017,-9e-05,-0.00045,-0.00016,-4e-05,0,5,28
19245,0.00012,-2e-05,-0.00017,-9e-05,-0.00045,-0.00016,-4e-05,0,5,28
19246,0.00012,-2e-05,-0.00017,-9e-05,-0.00045,-0.00016,-4e-05,0,5,28
19247,0.00012,-2e-05,-0.00017,-9e-05,-0.00045,-0.00016,-4e-05,0,5,28
19248,0.00012,-2e-05,-0.00017,-9e-05,-0.00045,-0.00016,-4e-05,0,5,28
19249,0.00012,-2e-05,-0.00017,-9e-05,-0.00045,-0.00016,-4e-05,0,5,28
19250,0.00012,-2e-05,-0.00017,-9e-05,-0.00045,-0.00016,-4e-05,0,5,28
19251,0.00012,-2e-05,-0.00017,-9e-05,-0.00045,-0.00016,-4e-05,0,5,28
19252,0.00012,-2e-05,-0.00017,-9e-05,-0.00045,-0.00016,-4e-05,0,5,28
19253,0.00012,-2e-05,-0.00017,-9e-05,-0.00045,-0.00016,-4e-05,0,5,28
19254,0.00012,-2e-05,-0.00017,-9e-05,-0.00045,-0.00016,-4e-05,0,5,28
19255,0.00012,-2e-05,-0.00017,-9e-05,-0.00045,-0.00016,-4e-05,0,5,28
19259,0.00012,-2e-05,-0.00017,-9e-05,-0.00045,-0.00016,-4e-05,0,5,28
19260,0.00012,-2e-05,-0.00017,-9e-05,-0.00045,-0.00016,-4e-05,0,5,28
19262,0.00012,-2e-05,-0.00017,-9e-05,-0.00045,-0.00016,-4e-05,0,5,28
19263,-0.00014,-3e-05,0.00028,0.00013,0.00065,0.00025,9e-05,2e-05,5,28
19264,-2e-05,6e-05,4e-05,1e-05,-0.00013,-1e-05,-8e-05,-3e-05,5,28
19265,-2e-05,6e-05,4e-05,1e-05,-0.00013,-1e-05,-8e-05,-3e-05,5,28
19266,-2e-05,6e-05,4e-05,1e-05,-0.00013,-1e-05,-8e-05,-3e-05,5,28
19267,-2e-05,6e-05,4e-05,1e-05,-0.00013,-1e-05,-8e-05,-3e-05,5,28
19268,-2e-05,6e-05,4e-05,1e-05,-0.00013,-1e-05,-8e-05,-3e-05,5,28
19269,-2e-05,6e-05,4e-05,1e-05,-0.00013,-1e-05,-8e-05,-3e-05,5,28
19270,-2e-05,6e-05,4e-05,1e-05,-0.00013,-1e-05,-8e-05,-3e-05,5,28
19271,-2e-05,6e-05,4e-05,1e-05,-0.00013,-1e-05,-8e-05,-3e-05,5,28
19272,-2e-05,6e-05,4e-05,1e-05,-0.00013,-1e-05,-8e-05,-3e-05,5,28
19273,-2e-05,6e-05,4e-05,1e-05,-0.00013,-1e-05,-8e-05,-3e-05,5,28
19274,-2e-05,6e-05,4e-05,1e-05,-0.00013,-1e-05,-8e-05,-3e-05,5,28
19275,-2e-05,6e-05,4e-05,1e-05,-0.00013,-1e-05,-8e-05,-3e-05,5,28
19276,-2e-05,6e-05,4e-05,1e-05,-0.00013,-1e-05,-8e-05,-3e-05,5,28
19277,-2e-05,6e-05,4e-05,1e-05,-0.00013,-1e-05,-8e-05,-3e-05,5,28
19278,-1e-05,0,-5e-05,1e-05,2e-05,-1e-05,1e-05,-2e-05,5,28
19279,-2e-05,-8e-05,4e-05,0.00011,0.00015,1e-05,-6e-05,0,5,28
19280,-2e-05,-8e-05,4e-05,0.00011,0.00015,1e-05,-6e-05,0,5,28
19281,-2e-05,-8e-05,4e-05,0.00011,0.00015,1e-05,-6e-05,0,5,28
19282,-2e-05,-8e-05,4e-05,0.00011,0.00015,1e-05,-6e-05,0,5,28
19283,-2e-05,-8e-05,4e-05,0.00011,0.00015,1e-05,-6e-05,0,5,28
19284,-2e-05,-8e-05,4e-05,0.00011,0.00015,1e-05,-6e-05,0,5,28
19285,-2e-05,-8e-05,4e-05,0.00011,0.00015,1e-05,-6e-05,0,5,28
19286,-2e-05,-8e-05,4e-05,0.00011,0.00015,1e-05,-6e-05,0,5,28
19289,-2e-05,-8e-05,4e-05,0.00011,0.00015,1e-05,-6e-05,0,5,28
19290,-2e-05,-8e-05,4e-05,0.00011,0.00015,1e-05,-6e-05,0,5,28
19291,-2e-05,-8e-05,4e-05,0.00011,0.00015,1e-05,-6e-05,0,5,28
19292,-2e-05,-8e-05,4e-05,0.00011,0.00015,1e-05,-6e-05,0,5,28
19293,-2e-05,-8e-05,4e-05,0.00011,0.00015,1e-05,-6e-05,0,5,28
19294,-2e-05,-8e-05,4e-05,0.00011,0.00015,1e-05,-6e-05,0,5,28
19295,-2e-05,-8e-05,4e-05,0.00011,0.00015,1e-05,-6e-05,0,5,28
19296,-2e-05,-8e-05,4e-05,0.00011,0.00015,1e-05,-6e-05,0,5,28
19297,-2e-05,-8e-05,4e-05,0.00011,0.00015,1e-05,-6e-05,0,5,28
19298,-2e-05,-8e-05,4e-05,0.00011,0.00015,1e-05,-6e-05,0,5,28
19299,-2e-05,-8e-05,4e-05,0.00011,0.00015,1e-05,-6e-05,0,5,28
19300,-2e-05,-8e-05,4e-05,0.00011,0.00015,1e-05,-6e-05,0,5,28
19301,-0.00013,-7e-05,-0.00022,-0.00016,-6e-05,-8e-05,2e-05,-4e-05,5,28
19302,1e-05,0.00024,0.0001,2e-05,7e-05,-9e-05,5e-05,0,5,28
19303,1e-05,0.00024,0.0001,2e-05,7e-05,-9e-05,5e-05,0,5,28
19304,1e-05,0.00024,0.0001,2e-05,7e-05,-9e-05,5e-05,0,5,28
19305,1e-05,0.00024,0.0001,2e-05,7e-05,-9e-05,5e-05,0,5,28
19306,1e-05,0.00024,0.0001,2e-05,7e-05,-9e-05,5e-05,0,5,28
19307,1e-05,0.00024,0.0001,2e-05,7e-05,-9e-05,5e-05,0,5,28
19308,1e-05,0.00024,0.0001,2e-05,7e-05,-9e-05,5e-05,0,5,28
19309,1e-05,0.00024,0.0001,2e-05,7e-05,-9e-05,5e-05,0,5,28
19310,1e-05,0.00024,0.0001,2e-05,7e-05,-9e-05,5e-05,0,5,28
19311,1e-05,0.00024,0.0001,2e-05,7e-05,-9e-05,5e-05,0,5,28
19312,1e-05,0.00024,0.0001,2e-05,7e-05,-9e-05,5e-05,0,5,28
19313,1e-05,0.00024,0.0001,2e-05,7e-05,-9e-05,5e-05,0,5,28
19314,-6e-05,-8e-05,-5e-05,1e-05,-0.00018,-2e-05,-8e-05,-2e-05,5,28
19315,-3e-05,0,7e-05,6e-05,9e-05,-0.00031,5e-05,-4e-05,5,28
19316,-3e-05,0,7e-05,6e-05,9e-05,-0.00031,5e-05,-4e-05,5,28
19317,-3e-05,0,7e-05,6e-05,9e-05,-0.00031,5e-05,-4e-05,5,28
19318,-3e-05,0,7e-05,6e-05,9e-05,-0.00031,5e-05,-4e-05,5,28
19319,-3e-05,0,7e-05,6e-05,9e-05,-0.00031,5e-05,-4e-05,5,28
19320,-3e-05,0,7e-05,6e-05,9e-05,-0.00031,5e-05,-4e-05,5,28
19321,-3e-05,0,7e-05,6e-05,9e-05,-0.00031,5e-05,-4e-05,5,28
19322,-3e-05,0,7e-05,6e-05,9e-05,-0.00031,5e-05,-4e-05,5,28
19323,-1e-05,-3e-05,0.0001,-1e-05,1e-05,5e-05,1e-05,0,5,28
19324,-1e-05,-3e-05,0.0001,-1e-05,1e-05,5e-05,1e-05,0,5,28
19325,-1e-05,-3e-05,0.0001,-1e-05,1e-05,5e-05,1e-05,0,5,28
19326,-1e-05,-3e-05,0.0001,-1e-05,1e-05,5e-05,1e-05,0,5,28
19327,-1e-05,-3e-05,0.0001,-1e-05,1e-05,5e-05,1e-05,0,5,28
19328,-1e-05,-3e-05,0.0001,-1e-05,1e-05,5e-05,1e-05,0,5,28
19329,-1e-05,-3e-05,0.0001,-1e-05,1e-05,5e-05,1e-05,0,5,28
19330,-1e-05,-3e-05,0.0001,-1e-05,1e-05,5e-05,1e-05,0,5,28
19331,-1e-05,-3e-05,0.0001,-1e-05,1e-05,5e-05,1e-05,0,5,28
19332,-1e-05,-3e-05,0.0001,-1e-05,1e-05,5e-05,1e-05,0,5,28
19333,-1e-05,-3e-05,0.0001,-1e-05,1e-05,5e-05,1e-05,0,5,28
19334,-1e-05,-3e-05,0.0001,-1e-05,1e-05,5e-05,1e-05,0,5,28
19335,-1e-05,-3e-05,0.0001,-1e-05,1e-05,5e-05,1e-05,0,5,28
19336,-1e-05,-3e-05,0.0001,-1e-05,1e-05,5e-05,1e-05,0,5,28
19339,1e-05,-4e-05,0.00015,-0.00017,-0.00028,3e-05,0,0,5,28
19340,0,0,5e-05,0.00012,0.00031,0.00011,0,2e-05,5,28
19341,0,0,5e-05,0.00012,0.00031,0.00011,0,2e-05,5,28
19342,0,0,5e-05,0.00012,0.00031,0.00011,0,2e-05,5,28
19343,0,0,5e-05,0.00012,0.00031,0.00011,0,2e-05,5,28
19344,0,0,5e-05,0.00012,0.00031,0.00011,0,2e-05,5,28
19345,0,0,5e-05,0.00012,0.00031,0.00011,0,2e-05,5,28
19346,0,0,5e-05,0.00012,0.00031,0.00011,0,2e-05,5,28
19347,0,0,5e-05,0.00012,0.00031,0.00011,0,2e-05,5,28
19348,0,0,5e-05,0.00012,0.00031,0.00011,0,2e-05,5,28
19349,0,0,5e-05,0.00012,0.00031,0.00011,0,2e-05,5,28
19350,0,0,5e-05,0.00012,0.00031,0.00011,0,2e-05,5,28
19351,0,0,5e-05,0.00012,0.00031,0.00011,0,2e-05,5,28
19352,0,0,5e-05,0.00012,0.00031,0.00011,0,2e-05,5,28
19353,0,0,5e-05,0.00012,0.00031,0.00011,0,2e-05,5,28
19354,0,0,5e-05,0.00012,0.00031,0.00011,0,2e-05,5,28
19355,0,0,5e-05,0.00012,0.00031,0.00011,0,2e-05,5,28
19356,0,0,5e-05,0.00012,0.00031,0.00011,0,2e-05,5,28
19357,0,0,5e-05,0.00012,0.00031,0.00011,0,2e-05,5,28
19358,0,0,5e-05,0.00012,0.00031,0.00011,0,2e-05,5,28
19359,0,0,5e-05,0.00012,0.00031,0.00011,0,2e-05,5,28
19360,0,0,5e-05,0.00012,0.00031,0.00011,0,2e-05,5,28
19361,-7e-05,-0.00012,-3e-05,0.00016,0.00038,9e-05,-8e-05,-3e-05,5,28
19362,-1e-05,-0.00012,6e-05,-4e-05,-9e-05,-2e-05,-5e-05,1e-05,5,28
19363,-1e-05,-0.00012,6e-05,-4e-05,-9e-05,-2e-05,-5e-05,1e-05,5,28
19364,-1e-05,-0.00012,6e-05,-4e-05,-9e-05,-2e-05,-5e-05,1e-05,5,28
19365,-1e-05,-0.00012,6e-05,-4e-05,-9e-05,-2e-05,-5e-05,1e-05,5,28
19366,-1e-05,-0.00012,6e-05,-4e-05,-9e-05,-2e-05,-5e-05,1e-05,5,28
19367,-1e-05,-0.00012,6e-05,-4e-05,-9e-05,-2e-05,-5e-05,1e-05,5,28
19368,-1e-05,-0.00012,6e-05,-4e-05,-9e-05,-2e-05,-5e-05,1e-05,5,28
19369,-1e-05,-0.00012,6e-05,-4e-05,-9e-05,-2e-05,-5e-05,1e-05,5,28
19370,-1e-05,-0.00012,6e-05,-4e-05,-9e-05,-2e-05,-5e-05,1e-05,5,28
19371,-1e-05,-0.00012,6e-05,-4e-05,-9e-05,-2e-05,-5e-05,1e-05,5,28
19372,-1e-05,-0.00012,6e-05,-4e-05,-9e-05,-2e-05,-5e-05,1e-05,5,28
19373,-1e-05,-0.00012,6e-05,-4e-05,-9e-05,-2e-05,-5e-05,1e-05,5,28
19374,-1e-05,-0.00012,6e-05,-4e-05,-9e-05,-2e-05,-5e-05,1e-05,5,28
19375,-1e-05,-0.00012,6e-05,-4e-05,-9e-05,-2e-05,-5e-05,1e-05,5,28
19376,-1e-05,3e-05,-7e-05,-0.0001,0,5e-05,-6e-05,-3e-05,5,28
19377,-1e-05,3e-05,-7e-05,-0.0001,0,5e-05,-6e-05,-3e-05,5,28
19378,-1e-05,3e-05,-7e-05,-0.0001,0,5e-05,-6e-05,-3e-05,5,28
19379,-1e-05,3e-05,-7e-05,-0.0001,0,5e-05,-6e-05,-3e-05,5,28
19380,-1e-05,3e-05,-7e-05,-0.0001,0,5e-05,-6e-05,-3e-05,5,28
19381,-1e-05,3e-05,-7e-05,-0.0001,0,5e-05,-6e-05,-3e-05,5,28
19382,0,8e-05,2e-05,9e-05,0.00055,0.0002,2e-05,3e-05,5,28
19383,0,8e-05,2e-05,9e-05,0.00055,0.0002,2e-05,3e-05,5,28
19384,0,8e-05,2e-05,9e-05,0.00055,0.0002,2e-05,3e-05,5,28
19385,0,8e-05,2e-05,9e-05,0.00055,0.0002,2e-05,3e-05,5,28
19386,0,8e-05,2e-05,9e-05,0.00055,0.0002,2e-05,3e-05,5,28
19388,0,8e-05,2e-05,9e-05,0.00055,0.0002,2e-05,3e-05,5,28
19389,0,8e-05,2e-05,9e-05,0.00055,0.0002,2e-05,3e-05,5,28
19390,0,8e-05,2e-05,9e-05,0.00055,0.0002,2e-05,3e-05,5,28
19391,0,8e-05,2e-05,9e-05,0.00055,0.0002,2e-05,3e-05,5,28
19392,0,8e-05,2e-05,9e-05,0.00055,0.0002,2e-05,3e-05,5,28
19393,0,8e-05,2e-05,9e-05,0.00055,0.0002,2e-05,3e-05,5,28
19394,0,8e-05,2e-05,9e-05,0.00055,0.0002,2e-05,3e-05,5,28
19395,0,8e-05,2e-05,9e-05,0.00055,0.0002,2e-05,3e-05,5,28
19396,0,8e-05,2e-05,9e-05,0.00055,0.0002,2e-05,3e-05,5,28
19397,0,8e-05,2e-05,9e-05,0.00055,0.0002,2e-05,3e-05,5,28
19398,-4e-05,0,-0.00028,-9e-05,0.00012,-1e-05,-9e-05,-4e-05,5,28
19399,-4e-05,0,-0.00028,-9e-05,0.00012,-1e-05,-9e-05,-4e-05,5,28
19400,0.0001,5e-05,-0.00013,-0.00014,-0.00012,-4e-05,-2e-05,2e-05,5,28
19401,0.0001,5e-05,-0.00013,-0.00014,-0.00012,-4e-05,-2e-05,2e-05,5,28
19402,0.0001,5e-05,-0.00013,-0.00014,-0.00012,-4e-05,-2e-05,2e-05,5,28
19403,0.0001,5e-05,-0.00013,-0.00014,-0.00012,-4e-05,-2e-05,2e-05,5,28
19404,0.0001,5e-05,-0.00013,-0.00014,-0.00012,-4e-05,-2e-05,2e-05,5,28
19405,0.0001,5e-05,-0.00013,-0.00014,-0.00012,-4e-05,-2e-05,2e-05,5,28
19406,0.0001,5e-05,-0.00013,-0.00014,-0.00012,-4e-05,-2e-05,2e-05,5,28
19407,0.0001,5e-05,-0.00013,-0.00014,-0.00012,-4e-05,-2e-05,2e-05,5,28
19408,0.0001,5e-05,-0.00013,-0.00014,-0.00012,-4e-05,-2e-05,2e-05,5,28
19409,0.0001,5e-05,-0.00013,-0.00014,-0.00012,-4e-05,-2e-05,2e-05,5,28
19410,0.0001,5e-05,-0.00013,-0.00014,-0.00012,-4e-05,-2e-05,2e-05,5,28
19411,0.0001,5e-05,-0.00013,-0.00014,-0.00012,-4e-05,-2e-05,2e-05,5,28
19412,0.0001,5e-05,-0.00013,-0.00014,-0.00012,-4e-05,-2e-05,2e-05,5,28
19413,0.0001,5e-05,-0.00013,-0.00014,-0.00012,-4e-05,-2e-05,2e-05,5,28
19414,0.0001,5e-05,-0.00013,-0.00014,-0.00012,-4e-05,-2e-05,2e-05,5,28
19415,0.0001,5e-05,-0.00013,-0.00014,-0.00012,-4e-05,-2e-05,2e-05,5,28
19416,0.0001,5e-05,-0.00013,-0.00014,-0.00012,-4e-05,-2e-05,2e-05,5,28
19417,0.0001,5e-05,-0.00013,-0.00014,-0.00012,-4e-05,-2e-05,2e-05,5,28
19418,0.0001,5e-05,-0.00013,-0.00014,-0.00012,-4e-05,-2e-05,2e-05,5,28
19419,0.0001,5e-05,-0.00013,-0.00014,-0.00012,-4e-05,-2e-05,2e-05,5,28
19420,0.0001,5e-05,-0.00013,-0.00014,-0.00012,-4e-05,-2e-05,2e-05,5,28
19421,0,-3e-05,-0.00018,-9e-05,-8e-05,0,-3e-05,-3e-05,5,28
19422,-9e-05,-8e-05,-3e-05,-1e-05,5e-05,2e-05,8e-05,-2e-05,5,28
19423,-9e-05,-8e-05,-3e-05,-1e-05,5e-05,2e-05,8e-05,-2e-05,5,28
19424,-9e-05,-8e-05,-3e-05,-1e-05,5e-05,2e-05,8e-05,-2e-05,5,28
19425,-9e-05,-8e-05,-3e-05,-1e-05,5e-05,2e-05,8e-05,-2e-05,5,28
19426,-9e-05,-8e-05,-3e-05,-1e-05,5e-05,2e-05,8e-05,-2e-05,5,28
19427,-9e-05,-8e-05,-3e-05,-1e-05,5e-05,2e-05,8e-05,-2e-05,5,28
19428,-9e-05,-8e-05,-3e-05,-1e-05,5e-05,2e-05,8e-05,-2e-05,5,28
19429,-9e-05,-8e-05,-3e-05,-1e-05,5e-05,2e-05,8e-05,-2e-05,5,28
19430,-9e-05,-8e-05,-3e-05,-1e-05,5e-05,2e-05,8e-05,-2e-05,5,28
19431,-9e-05,-8e-05,-3e-05,-1e-05,5e-05,2e-05,8e-05,-2e-05,5,28
19432,-9e-05,-8e-05,-3e-05,-1e-05,5e-05,2e-05,8e-05,-2e-05,5,28
19433,-9e-05,-8e-05,-3e-05,-1e-05,5e-05,2e-05,8e-05,-2e-05,5,28
19434,-9e-05,-8e-05,-3e-05,-1e-05,5e-05,2e-05,8e-05,-2e-05,5,28
19435,0.0001,0.00015,0.00015,0.00013,-5e-05,1e-05,4e-05,2e-05,5,28
19436,0.0001,0.00015,0.00015,0.00013,-5e-05,1e-05,4e-05,2e-05,5,28
19438,0.0001,0.00015,0.00015,0.00013,-5e-05,1e-05,4e-05,2e-05,5,28
19439,0.0001,0.00015,0.00015,0.00013,-5e-05,1e-05,4e-05,2e-05,5,28
19440,0.0001,0.00015,0.00015,0.00013,-5e-05,1e-05,4e-05,2e-05,5,28
19441,0.0001,0.00015,0.00015,0.00013,-5e-05,1e-05,4e-05,2e-05,5,28
19442,-2e-05,-0.00012,-0.00016,-0.00021,-0.00055,-8e-05,4e-05,-2e-05,5,28
19443,-2e-05,-0.00012,-0.00016,-0.00021,-0.00055,-8e-05,4e-05,-2e-05,5,28
19444,-2e-05,-0.00012,-0.00016,-0.00021,-0.00055,-8e-05,4e-05,-2e-05,5,28
19445,-2e-05,-0.00012,-0.00016,-0.00021,-0.00055,-8e-05,4e-05,-2e-05,5,28
19446,-2e-05,-0.00012,-0.00016,-0.00021,-0.00055,-8e-05,4e-05,-2e-05,5,28
19447,-2e-05,-0.00012,-0.00016,-0.00021,-0.00055,-8e-05,4e-05,-2e-05,5,28
19448,-2e-05,-0.00012,-0.00016,-0.00021,-0.00055,-8e-05,4e-05,-2e-05,5,28
19449,-2e-05,-0.00012,-0.00016,-0.00021,-0.00055,-8e-05,4e-05,-2e-05,5,28
19450,-2e-05,-0.00012,-0.00016,-0.00021,-0.00055,-8e-05,4e-05,-2e-05,5,28
19451,-2e-05,-0.00012,-0.00016,-0.00021,-0.00055,-8e-05,4e-05,-2e-05,5,28
19452,-2e-05,-0.00012,-0.00016,-0.00021,-0.00055,-8e-05,4e-05,-2e-05,5,28
19453,-2e-05,-0.00012,-0.00016,-0.00021,-0.00055,-8e-05,4e-05,-2e-05,5,28
19454,-2e-05,-0.00012,-0.00016,-0.00021,-0.00055,-8e-05,4e-05,-2e-05,5,28
19455,-2e-05,-0.00012,-0.00016,-0.00021,-0.00055,-8e-05,4e-05,-2e-05,5,28
19456,-2e-05,-0.00012,-0.00016,-0.00021,-0.00055,-8e-05,4e-05,-2e-05,5,28
19457,-2e-05,-0.00012,-0.00016,-0.00021,-0.00055,-8e-05,4e-05,-2e-05,5,28
19458,-2e-05,-0.00012,-0.00016,-0.00021,-0.00055,-8e-05,4e-05,-2e-05,5,28
19459,-0.00011,-5e-05,-4e-05,-9e-05,-0.00018,-4e-05,-3e-05,-5e-05,5,28
19460,-5e-05,-2e-05,-0.00023,2e-05,0.00016,9e-05,-1e-05,-1e-05,5,28
19461,-5e-05,-2e-05,-0.00023,2e-05,0.00016,9e-05,-1e-05,-1e-05,5,28
19462,-5e-05,-2e-05,-0.00023,2e-05,0.00016,9e-05,-1e-05,-1e-05,5,28
19463,-5e-05,-2e-05,-0.00023,2e-05,0.00016,9e-05,-1e-05,-1e-05,5,28
19464,-5e-05,-2e-05,-0.00023,2e-05,0.00016,9e-05,-1e-05,-1e-05,5,28
19465,-5e-05,-2e-05,-0.00023,2e-05,0.00016,9e-05,-1e-05,-1e-05,5,28
19466,-5e-05,-2e-05,-0.00023,2e-05,0.00016,9e-05,-1e-05,-1e-05,5,28
19467,-5e-05,-2e-05,-0.00023,2e-05,0.00016,9e-05,-1e-05,-1e-05,5,28
19468,-5e-05,-2e-05,-0.00023,2e-05,0.00016,9e-05,-1e-05,-1e-05,5,28
19469,-5e-05,-2e-05,-0.00023,2e-05,0.00016,9e-05,-1e-05,-1e-05,5,28
19470,-5e-05,-2e-05,-0.00023,2e-05,0.00016,9e-05,-1e-05,-1e-05,5,28
19471,-5e-05,-2e-05,-0.00023,2e-05,0.00016,9e-05,-1e-05,-1e-05,5,28
19472,-5e-05,-2e-05,-0.00023,2e-05,0.00016,9e-05,-1e-05,-1e-05,5,28
19473,-5e-05,-2e-05,-0.00023,2e-05,0.00016,9e-05,-1e-05,-1e-05,5,28
19474,-5e-05,-2e-05,-0.00023,2e-05,0.00016,9e-05,-1e-05,-1e-05,5,28
19475,-5e-05,-2e-05,-0.00023,2e-05,0.00016,9e-05,-1e-05,-1e-05,5,28
19476,-5e-05,-2e-05,-0.00023,2e-05,0.00016,9e-05,-1e-05,-1e-05,5,28
19477,-5e-05,-2e-05,-0.00023,2e-05,0.00016,9e-05,-1e-05,-1e-05,5,28
19478,-5e-05,-2e-05,-0.00023,2e-05,0.00016,9e-05,-1e-05,-1e-05,5,28
19479,-5e-05,-2e-05,-0.00023,2e-05,0.00016,9e-05,-1e-05,-1e-05,5,28
19480,-5e-05,-2e-05,-0.00023,2e-05,0.00016,9e-05,-1e-05,-1e-05,5,28
19481,-1e-05,1e-05,0.00019,7e-05,-0.00023,-4e-05,0,0,5,28
19482,3e-05,3e-05,8e-05,0.00011,0,-4e-05,2e-05,1e-05,5,28
19483,3e-05,3e-05,8e-05,0.00011,0,-4e-05,2e-05,1e-05,5,28
19484,3e-05,3e-05,8e-05,0.00011,0,-4e-05,2e-05,1e-05,5,28
19485,3e-05,3e-05,8e-05,0.00011,0,-4e-05,2e-05,1e-05,5,28
19486,3e-05,3e-05,8e-05,0.00011,0,-4e-05,2e-05,1e-05,5,28
19489,3e-05,3e-05,8e-05,0.00011,0,-4e-05,2e-05,1e-05,5,28
19490,3e-05,3e-05,8e-05,0.00011,0,-4e-05,2e-05,1e-05,5,28
19491,3e-05,3e-05,8e-05,0.00011,0,-4e-05,2e-05,1e-05,5,28
19492,3e-05,3e-05,8e-05,0.00011,0,-4e-05,2e-05,1e-05,5,28
19493,3e-05,3e-05,8e-05,0.00011,0,-4e-05,2e-05,1e-05,5,28
19494,3e-05,3e-05,8e-05,0.00011,0,-4e-05,2e-05,1e-05,5,28
19495,-1e-05,-0.00012,-6e-05,0,8e-05,5e-05,-3e-05,-3e-05,5,28
19496,-1e-05,-0.00012,-6e-05,0,8e-05,5e-05,-3e-05,-3e-05,5,28
19497,-1e-05,-0.00012,-6e-05,0,8e-05,5e-05,-3e-05,-3e-05,5,28
19498,-1e-05,-0.00012,-6e-05,0,8e-05,5e-05,-3e-05,-3e-05,5,28
19499,-1e-05,-0.00012,-6e-05,0,8e-05,5e-05,-3e-05,-3e-05,5,28
19500,-1e-05,-0.00012,-6e-05,0,8e-05,5e-05,-3e-05,-3e-05,5,28
19501,-1e-05,-0.00012,-6e-05,0,8e-05,5e-05,-3e-05,-3e-05,5,28
19502,-6e-05,3e-05,0.00016,-1e-05,0,2e-05,-9e-05,-5e-05,5,28
19503,-6e-05,3e-05,0.00016,-1e-05,0,2e-05,-9e-05,-5e-05,5,28
19504,-6e-05,3e-05,0.00016,-1e-05,0,2e-05,-9e-05,-5e-05,5,28
19505,-6e-05,3e-05,0.00016,-1e-05,0,2e-05,-9e-05,-5e-05,5,28
19506,-6e-05,3e-05,0.00016,-1e-05,0,2e-05,-9e-05,-5e-05,5,28
19507,-6e-05,3e-05,0.00016,-1e-05,0,2e-05,-9e-05,-5e-05,5,28
19508,-6e-05,3e-05,0.00016,-1e-05,0,2e-05,-9e-05,-5e-05,5,28
19509,-6e-05,3e-05,0.00016,-1e-05,0,2e-05,-9e-05,-5e-05,5,28
19510,-6e-05,3e-05,0.00016,-1e-05,0,2e-05,-9e-05,-5e-05,5,28
19511,-6e-05,3e-05,0.00016,-1e-05,0,2e-05,-9e-05,-5e-05,5,28
19512,-6e-05,3e-05,0.00016,-1e-05,0,2e-05,-9e-05,-5e-05,5,28
19513,-6e-05,3e-05,0.00016,-1e-05,0,2e-05,-9e-05,-5e-05,5,28
19514,-6e-05,3e-05,0.00016,-1e-05,0,2e-05,-9e-05,-5e-05,5,28
19515,-6e-05,3e-05,0.00016,-1e-05,0,2e-05,-9e-05,-5e-05,5,28
19516,-6e-05,3e-05,0.00016,-1e-05,0,2e-05,-9e-05,-5e-05,5,28
19517,-6e-05,3e-05,0.00016,-1e-05,0,2e-05,-9e-05,-5e-05,5,28
19518,-2e-05,2e-05,3e-05,-5e-05,-0.00016,-0.00014,0,-2e-05,5,28
19519,-2e-05,2e-05,3e-05,-5e-05,-0.00016,-0.00014,0,-2e-05,5,28
19520,-0.0001,-4e-05,-3e-05,-6e-05,-0.00012,-8e-05,3e-05,-1e-05,5,28
19521,-0.0001,-4e-05,-3e-05,-6e-05,-0.00012,-8e-05,3e-05,-1e-05,5,28
19522,-0.0001,-4e-05,-3e-05,-6e-05,-0.00012,-8e-05,3e-05,-1e-05,5,28
19523,-0.0001,-4e-05,-3e-05,-6e-05,-0.00012,-8e-05,3e-05,-1e-05,5,28
19524,-0.0001,-4e-05,-3e-05,-6e-05,-0.00012,-8e-05,3e-05,-1e-05,5,28
19525,-0.0001,-4e-05,-3e-05,-6e-05,-0.00012,-8e-05,3e-05,-1e-05,5,28
19526,-0.0001,-4e-05,-3e-05,-6e-05,-0.00012,-8e-05,3e-05,-1e-05,5,28
19527,-0.0001,-4e-05,-3e-05,-6e-05,-0.00012,-8e-05,3e-05,-1e-05,5,28
19528,-0.0001,-4e-05,-3e-05,-6e-05,-0.00012,-8e-05,3e-05,-1e-05,5,28
19529,-0.0001,-4e-05,-3e-05,-6e-05,-0.00012,-8e-05,3e-05,-1e-05,5,28
19530,-0.0001,-4e-05,-3e-05,-6e-05,-0.00012,-8e-05,3e-05,-1e-05,5,28
19531,-0.0001,-4e-05,-3e-05,-6e-05,-0.00012,-8e-05,3e-05,-1e-05,5,28
19532,-0.0001,-4e-05,-3e-05,-6e-05,-0.00012,-8e-05,3e-05,-1e-05,5,28
19533,-0.0001,-4e-05,-3e-05,-6e-05,-0.00012,-8e-05,3e-05,-1e-05,5,28
19534,-0.0001,-4e-05,-3e-05,-6e-05,-0.00012,-8e-05,3e-05,-1e-05,5,28
19535,-0.0001,-4e-05,-3e-05,-6e-05,-0.00012,-8e-05,3e-05,-1e-05,5,28
19536,-0.0001,-4e-05,-3e-05,-6e-05,-0.00012,-8e-05,3e-05,-1e-05,5,28
19538,-0.0001,-4e-05,-3e-05,-6e-05,-0.00012,-8e-05,3e-05,-1e-05,5,28
19539,-0.0001,-4e-05,-3e-05,-6e-05,-0.00012,-8e-05,3e-05,-1e-05,5,28
19540,-0.0001,-4e-05,-3e-05,-6e-05,-0.00012,-8e-05,3e-05,-1e-05,5,28
19541,-5e-05,-1e-05,9e-05,0.00021,0.00076,1e-05,6e-05,-1e-05,5,28
19542,-5e-05,-1e-05,9e-05,0.00021,0.00076,1e-05,6e-05,-1e-05,5,28
19543,4e-05,1e-05,-2e-05,-2e-05,-0.00014,-1e-05,-6e-05,-2e-05,5,28
19544,4e-05,1e-05,-2e-05,-2e-05,-0.00014,-1e-05,-6e-05,-2e-05,5,28
19545,4e-05,1e-05,-2e-05,-2e-05,-0.00014,-1e-05,-6e-05,-2e-05,5,28
19546,4e-05,1e-05,-2e-05,-2e-05,-0.00014,-1e-05,-6e-05,-2e-05,5,28
19547,4e-05,1e-05,-2e-05,-2e-05,-0.00014,-1e-05,-6e-05,-2e-05,5,28
19548,4e-05,1e-05,-2e-05,-2e-05,-0.00014,-1e-05,-6e-05,-2e-05,5,28
19549,4e-05,1e-05,-2e-05,-2e-05,-0.00014,-1e-05,-6e-05,-2e-05,5,28
19550,4e-05,1e-05,-2e-05,-2e-05,-0.00014,-1e-05,-6e-05,-2e-05,5,28
19551,4e-05,1e-05,-2e-05,-2e-05,-0.00014,-1e-05,-6e-05,-2e-05,5,28
19552,4e-05,1e-05,-2e-05,-2e-05,-0.00014,-1e-05,-6e-05,-2e-05,5,28
19553,4e-05,1e-05,-2e-05,-2e-05,-0.00014,-1e-05,-6e-05,-2e-05,5,28
19554,4e-05,1e-05,-2e-05,-2e-05,-0.00014,-1e-05,-6e-05,-2e-05,5,28
19555,4e-05,1e-05,-2e-05,-2e-05,-0.00014,-1e-05,-6e-05,-2e-05,5,28
19556,-3e-05,2e-05,-0.00013,-2e-05,3e-05,5e-05,2e-05,3e-05,5,28
19557,-3e-05,2e-05,-0.00013,-2e-05,3e-05,5e-05,2e-05,3e-05,5,28
19558,-3e-05,2e-05,-0.00013,-2e-05,3e-05,5e-05,2e-05,3e-05,5,28
19559,-3e-05,2e-05,-0.00013,-2e-05,3e-05,5e-05,2e-05,3e-05,5,28
19560,-3e-05,2e-05,-0.00013,-2e-05,3e-05,5e-05,2e-05,3e-05,5,28
19561,-3e-05,2e-05,-0.00013,-2e-05,3e-05,5e-05,2e-05,3e-05,5,28
19562,-1e-05,-0.0001,-0.00016,-0.00018,6e-05,-5e-05,-6e-05,-3e-05,5,28
19563,-1e-05,-0.0001,-0.00016,-0.00018,6e-05,-5e-05,-6e-05,-3e-05,5,28
19564,-1e-05,-0.0001,-0.00016,-0.00018,6e-05,-5e-05,-6e-05,-3e-05,5,28
19565,-1e-05,-0.0001,-0.00016,-0.00018,6e-05,-5e-05,-6e-05,-3e-05,5,28
19566,-1e-05,-0.0001,-0.00016,-0.00018,6e-05,-5e-05,-6e-05,-3e-05,5,28
19567,-1e-05,-0.0001,-0.00016,-0.00018,6e-05,-5e-05,-6e-05,-3e-05,5,28
19568,-1e-05,-0.0001,-0.00016,-0.00018,6e-05,-5e-05,-6e-05,-3e-05,5,28
19569,-1e-05,-0.0001,-0.00016,-0.00018,6e-05,-5e-05,-6e-05,-3e-05,5,28
19570,-1e-05,-0.0001,-0.00016,-0.00018,6e-05,-5e-05,-6e-05,-3e-05,5,28
19571,-1e-05,-0.0001,-0.00016,-0.00018,6e-05,-5e-05,-6e-05,-3e-05,5,28
19572,-1e-05,-0.0001,-0.00016,-0.00018,6e-05,-5e-05,-6e-05,-3e-05,5,28
19573,-1e-05,-0.0001,-0.00016,-0.00018,6e-05,-5e-05,-6e-05,-3e-05,5,28
45975,1e-05,-0.00026,-0.00016,-9e-05,6e-05,-0.00021,-0.00012,-0.00011,5,28
45976,1e-05,-0.00026,-0.00016,-9e-05,6e-05,-0.00021,-0.00012,-0.00011,5,28
45977,1e-05,-0.00026,-0.00016,-9e-05,6e-05,-0.00021,-0.00012,-0.00011,5,28
45978,1e-05,-0.00026,-0.00016,-9e-05,6e-05,-0.00021,-0.00012,-0.00011,5,28
45979,1e-05,-0.00026,-0.00016,-9e-05,6e-05,-0.00021,-0.00012,-0.00011,5,28
45980,1e-05,-0.00026,-0.00016,-9e-05,6e-05,-0.00021,-0.00012,-0.00011,5,28
45981,1e-05,-0.00026,-0.00016,-9e-05,6e-05,-0.00021,-0.00012,-0.00011,5,28
45982,1e-05,-0.00026,-0.00016,-9e-05,6e-05,-0.00021,-0.00012,-0.00011,5,28
45983,1e-05,-0.00026,-0.00016,-9e-05,6e-05,-0.00021,-0.00012,-0.00011,5,28
45984,1e-05,-0.00026,-0.00016,-9e-05,6e-05,-0.00021,-0.00012,-0.00011,5,28
45985,-1e-05,6e-05,-0.00027,-9e-05,-0.00014,-0.00025,-0.00011,-0.00016,5,28
45986,0.00011,0.00015,5e-05,8e-05,1e-05,0.00032,9e-05,0.00011,5,28
45989,1e-05,0.00031,0.00033,-6e-05,-0.0003,-6e-05,-3e-05,3e-05,5,28
45990,1e-05,0.00031,0.00033,-6e-05,-0.0003,-6e-05,-3e-05,3e-05,5,28
45991,1e-05,0.00031,0.00033,-6e-05,-0.0003,-6e-05,-3e-05,3e-05,5,28
45992,1e-05,0.00031,0.00033,-6e-05,-0.0003,-6e-05,-3e-05,3e-05,5,28
45993,1e-05,0.00031,0.00033,-6e-05,-0.0003,-6e-05,-3e-05,3e-05,5,28
45994,1e-05,0.00031,0.00033,-6e-05,-0.0003,-6e-05,-3e-05,3e-05,5,28
45995,1e-05,0.00031,0.00033,-6e-05,-0.0003,-6e-05,-3e-05,3e-05,5,28
45996,1e-05,0.00031,0.00033,-6e-05,-0.0003,-6e-05,-3e-05,3e-05,5,28
45997,1e-05,0.00031,0.00033,-6e-05,-0.0003,-6e-05,-3e-05,3e-05,5,28
45998,1e-05,0.00031,0.00033,-6e-05,-0.0003,-6e-05,-3e-05,3e-05,5,28
45999,1e-05,0.00031,0.00033,-6e-05,-0.0003,-6e-05,-3e-05,3e-05,5,28
46000,1e-05,0.00031,0.00033,-6e-05,-0.0003,-6e-05,-3e-05,3e-05,5,28
46001,1e-05,0.00031,0.00033,-6e-05,-0.0003,-6e-05,-3e-05,3e-05,5,28
46002,1e-05,0.00031,0.00033,-6e-05,-0.0003,-6e-05,-3e-05,3e-05,5,28
46003,1e-05,0.00031,0.00033,-6e-05,-0.0003,-6e-05,-3e-05,3e-05,5,28
46004,1e-05,0.00031,0.00033,-6e-05,-0.0003,-6e-05,-3e-05,3e-05,5,28
46005,1e-05,0.00031,0.00033,-6e-05,-0.0003,-6e-05,-3e-05,3e-05,5,28
46006,1e-05,0.00031,0.00033,-6e-05,-0.0003,-6e-05,-3e-05,3e-05,5,28
46007,1e-05,0.00031,0.00033,-6e-05,-0.0003,-6e-05,-3e-05,3e-05,5,28
46008,-0.00017,-0.00013,-0.00014,-0.00017,0.00027,-0.00013,-2e-05,0.00011,5,28
46009,-0.00017,-0.00013,-0.00014,-0.00017,0.00027,-0.00013,-2e-05,0.00011,5,28
46010,1e-05,0.0002,7e-05,0.00013,0.00033,0.0001,-4e-05,-1e-05,5,28
46011,1e-05,0.0002,7e-05,0.00013,0.00033,0.0001,-4e-05,-1e-05,5,28
46012,1e-05,0.0002,7e-05,0.00013,0.00033,0.0001,-4e-05,-1e-05,5,28
46013,1e-05,0.0002,7e-05,0.00013,0.00033,0.0001,-4e-05,-1e-05,5,28
46014,1e-05,0.0002,7e-05,0.00013,0.00033,0.0001,-4e-05,-1e-05,5,28
46015,1e-05,0.0002,7e-05,0.00013,0.00033,0.0001,-4e-05,-1e-05,5,28
46016,1e-05,0.0002,7e-05,0.00013,0.00033,0.0001,-4e-05,-1e-05,5,28
46017,1e-05,0.0002,7e-05,0.00013,0.00033,0.0001,-4e-05,-1e-05,5,28
46018,1e-05,0.0002,7e-05,0.00013,0.00033,0.0001,-4e-05,-1e-05,5,28
46019,1e-05,0.0002,7e-05,0.00013,0.00033,0.0001,-4e-05,-1e-05,5,28
46020,1e-05,0.0002,7e-05,0.00013,0.00033,0.0001,-4e-05,-1e-05,5,28
46021,1e-05,0.0002,7e-05,0.00013,0.00033,0.0001,-4e-05,-1e-05,5,28
46022,1e-05,0.0002,7e-05,0.00013,0.00033,0.0001,-4e-05,-1e-05,5,28
46023,1e-05,0.0002,7e-05,0.00013,0.00033,0.0001,-4e-05,-1e-05,5,28
46024,1e-05,0.0002,7e-05,0.00013,0.00033,0.0001,-4e-05,-1e-05,5,28
46025,1e-05,0.0002,7e-05,0.00013,0.00033,0.0001,-4e-05,-1e-05,5,28
46026,1e-05,0.0002,7e-05,0.00013,0.00033,0.0001,-4e-05,-1e-05,5,28
46027,1e-05,0.0002,7e-05,0.00013,0.00033,0.0001,-4e-05,-1e-05,5,28
46028,1e-05,0.0002,7e-05,0.00013,0.00033,0.0001,-4e-05,-1e-05,5,28
46029,1e-05,0.0002,7e-05,0.00013,0.00033,0.0001,-4e-05,-1e-05,5,28
46030,-0.00023,-0.00018,-7e-05,-0.00034,-0.00036,-7e-05,-0.0001,-0.00016,5,28
46031,2e-05,-0.00017,-0.00036,-7e-05,-4e-05,-0.00025,-8e-05,-9e-05,5,28
46032,-1e-05,-0.00012,0.00054,0.0004,1e-05,0.00011,6e-05,1e-05,5,28
46033,7e-05,0.00026,7e-05,0.00023,0.00026,0.00019,-3e-05,7e-05,5,28
46034,7e-05,0.00026,7e-05,0.00023,0.00026,0.00019,-3e-05,7e-05,5,28
46035,7e-05,0.00026,7e-05,0.00023,0.00026,0.00019,-3e-05,7e-05,5,28
46036,7e-05,0.00026,7e-05,0.00023,0.00026,0.00019,-3e-05,7e-05,5,28
46038,7e-05,0.00026,7e-05,0.00023,0.00026,0.00019,-3e-05,7e-05,5,28
46039,7e-05,0.00026,7e-05,0.00023,0.00026,0.00019,-3e-05,7e-05,5,28
46040,7e-05,0.00026,7e-05,0.00023,0.00026,0.00019,-3e-05,7e-05,5,28
46041,7e-05,0.00026,7e-05,0.00023,0.00026,0.00019,-3e-05,7e-05,5,28
46042,7e-05,0.00026,7e-05,0.00023,0.00026,0.00019,-3e-05,7e-05,5,28
46043,7e-05,0.00026,7e-05,0.00023,0.00026,0.00019,-3e-05,7e-05,5,28
46044,7e-05,0.00026,7e-05,0.00023,0.00026,0.00019,-3e-05,7e-05,5,28
46046,-3e-05,3e-05,-0.0002,-7e-05,-0.00036,0.00012,-0.0001,3e-05,5,28
46047,-3e-05,3e-05,-0.0002,-7e-05,-0.00036,0.00012,-0.0001,3e-05,5,28
46048,-3e-05,3e-05,-0.0002,-7e-05,-0.00036,0.00012,-0.0001,3e-05,5,28
46049,-3e-05,3e-05,-0.0002,-7e-05,-0.00036,0.00012,-0.0001,3e-05,5,28
46050,-3e-05,3e-05,-0.0002,-7e-05,-0.00036,0.00012,-0.0001,3e-05,5,28
46051,-3e-05,3e-05,-0.0002,-7e-05,-0.00036,0.00012,-0.0001,3e-05,5,28
46052,-3e-05,3e-05,-0.0002,-7e-05,-0.00036,0.00012,-0.0001,3e-05,5,28
46053,-4e-05,0.0002,-4e-05,-1e-05,-0.00032,-6e-05,9e-05,4e-05,5,28
46054,-4e-05,0.0002,-4e-05,-1e-05,-0.00032,-6e-05,9e-05,4e-05,5,28
46055,-4e-05,0.0002,-4e-05,-1e-05,-0.00032,-6e-05,9e-05,4e-05,5,28
46056,-4e-05,0.0002,-4e-05,-1e-05,-0.00032,-6e-05,9e-05,4e-05,5,28
46057,-4e-05,0.0002,-4e-05,-1e-05,-0.00032,-6e-05,9e-05,4e-05,5,28
46058,-4e-05,0.0002,-4e-05,-1e-05,-0.00032,-6e-05,9e-05,4e-05,5,28
46059,-4e-05,0.0002,-4e-05,-1e-05,-0.00032,-6e-05,9e-05,4e-05,5,28
46060,-4e-05,0.0002,-4e-05,-1e-05,-0.00032,-6e-05,9e-05,4e-05,5,28
46061,-4e-05,0.0002,-4e-05,-1e-05,-0.00032,-6e-05,9e-05,4e-05,5,28
46062,-4e-05,0.0002,-4e-05,-1e-05,-0.00032,-6e-05,9e-05,4e-05,5,28
46063,-4e-05,0.0002,-4e-05,-1e-05,-0.00032,-6e-05,9e-05,4e-05,5,28
46064,-4e-05,0.0002,-4e-05,-1e-05,-0.00032,-6e-05,9e-05,4e-05,5,28
46065,-4e-05,0.0002,-4e-05,-1e-05,-0.00032,-6e-05,9e-05,4e-05,5,28
46066,-4e-05,0.0002,-4e-05,-1e-05,-0.00032,-6e-05,9e-05,4e-05,5,28
46067,-4e-05,0.0002,-4e-05,-1e-05,-0.00032,-6e-05,9e-05,4e-05,5,28
46068,-4e-05,0.0002,-4e-05,-1e-05,-0.00032,-6e-05,9e-05,4e-05,5,28
46069,2e-05,-8e-05,-8e-05,-0.00015,0.00048,5e-05,-1e-05,-6e-05,5,28
46070,2e-05,-8e-05,-8e-05,-0.00015,0.00048,5e-05,-1e-05,-6e-05,5,28
46071,0.00023,1e-05,0.00024,-0.00012,-0.00033,-0.00013,2e-05,-7e-05,5,28
46072,0.00023,1e-05,0.00024,-0.00012,-0.00033,-0.00013,2e-05,-7e-05,5,28
46073,0.00023,1e-05,0.00024,-0.00012,-0.00033,-0.00013,2e-05,-7e-05,5,28
46074,0.00023,1e-05,0.00024,-0.00012,-0.00033,-0.00013,2e-05,-7e-05,5,28
46075,0.00023,1e-05,0.00024,-0.00012,-0.00033,-0.00013,2e-05,-7e-05,5,28
46076,0.00023,1e-05,0.00024,-0.00012,-0.00033,-0.00013,2e-05,-7e-05,5,28
46077,0.00023,1e-05,0.00024,-0.00012,-0.00033,-0.00013,2e-05,-7e-05,5,28
46078,0.00023,1e-05,0.00024,-0.00012,-0.00033,-0.00013,2e-05,-7e-05,5,28
46079,0.00023,1e-05,0.00024,-0.00012,-0.00033,-0.00013,2e-05,-7e-05,5,28
46080,0.00023,1e-05,0.00024,-0.00012,-0.00033,-0.00013,2e-05,-7e-05,5,28
46081,0.00023,1e-05,0.00024,-0.00012,-0.00033,-0.00013,2e-05,-7e-05,5,28
46082,0.00023,1e-05,0.00024,-0.00012,-0.00033,-0.00013,2e-05,-7e-05,5,28
46083,0.00023,1e-05,0.00024,-0.00012,-0.00033,-0.00013,2e-05,-7e-05,5,28
46084,0.00023,1e-05,0.00024,-0.00012,-0.00033,-0.00013,2e-05,-7e-05,5,28
46085,0.00023,1e-05,0.00024,-0.00012,-0.00033,-0.00013,2e-05,-7e-05,5,28
46086,0.00023,1e-05,0.00024,-0.00012,-0.00033,-0.00013,2e-05,-7e-05,5,28
46088,0.00023,1e-05,0.00024,-0.00012,-0.00033,-0.00013,2e-05,-7e-05,5,28
46089,0.00023,1e-05,0.00024,-0.00012,-0.00033,-0.00013,2e-05,-7e-05,5,28
46090,0.00023,1e-05,0.00024,-0.00012,-0.00033,-0.00013,2e-05,-7e-05,5,28
46091,0.00023,1e-05,0.00024,-0.00012,-0.00033,-0.00013,2e-05,-7e-05,5,28
46092,0.00015,3e-05,0.00025,0.00038,0.00077,0.00014,-1e-05,7e-05,5,28
46093,-8e-05,3e-05,-1e-05,-9e-05,-0.00014,-0.00012,-4e-05,-7e-05,5,28
46094,-8e-05,3e-05,-1e-05,-9e-05,-0.00014,-0.00012,-4e-05,-7e-05,5,28
46095,-8e-05,3e-05,-1e-05,-9e-05,-0.00014,-0.00012,-4e-05,-7e-05,5,28
46096,-8e-05,3e-05,-1e-05,-9e-05,-0.00014,-0.00012,-4e-05,-7e-05,5,28
46097,-8e-05,3e-05,-1e-05,-9e-05,-0.00014,-0.00012,-4e-05,-7e-05,5,28
46098,-8e-05,3e-05,-1e-05,-9e-05,-0.00014,-0.00012,-4e-05,-7e-05,5,28
46099,-8e-05,3e-05,-1e-05,-9e-05,-0.00014,-0.00012,-4e-05,-7e-05,5,28
46100,-8e-05,3e-05,-1e-05,-9e-05,-0.00014,-0.00012,-4e-05,-7e-05,5,28
46101,-8e-05,3e-05,-1e-05,-9e-05,-0.00014,-0.00012,-4e-05,-7e-05,5,28
46102,-8e-05,3e-05,-1e-05,-9e-05,-0.00014,-0.00012,-4e-05,-7e-05,5,28
46103,-8e-05,3e-05,-1e-05,-9e-05,-0.00014,-0.00012,-4e-05,-7e-05,5,28
46104,-8e-05,3e-05,-1e-05,-9e-05,-0.00014,-0.00012,-4e-05,-7e-05,5,28
46105,-8e-05,3e-05,-1e-05,-9e-05,-0.00014,-0.00012,-4e-05,-7e-05,5,28
46106,-8e-05,3e-05,-1e-05,-9e-05,-0.00014,-0.00012,-4e-05,-7e-05,5,28
46107,-8e-05,3e-05,-1e-05,-9e-05,-0.00014,-0.00012,-4e-05,-7e-05,5,28
46108,-8e-05,3e-05,-1e-05,-9e-05,-0.00014,-0.00012,-4e-05,-7e-05,5,28
46109,-8e-05,3e-05,-1e-05,-9e-05,-0.00014,-0.00012,-4e-05,-7e-05,5,28
46110,-8e-05,3e-05,-1e-05,-9e-05,-0.00014,-0.00012,-4e-05,-7e-05,5,28
46111,-8e-05,3e-05,-1e-05,-9e-05,-0.00014,-0.00012,-4e-05,-7e-05,5,28
46112,-8e-05,3e-05,-1e-05,-9e-05,-0.00014,-0.00012,-4e-05,-7e-05,5,28
46113,1e-05,7e-05,-7e-05,-9e-05,-0.00028,-4e-05,9e-05,1e-05,5,28
46114,1e-05,7e-05,-7e-05,-9e-05,-0.00028,-4e-05,9e-05,1e-05,5,28
46115,1e-05,7e-05,-7e-05,-9e-05,-0.00028,-4e-05,9e-05,1e-05,5,28
46116,1e-05,7e-05,-7e-05,-9e-05,-0.00028,-4e-05,9e-05,1e-05,5,28
46117,1e-05,7e-05,-7e-05,-9e-05,-0.00028,-4e-05,9e-05,1e-05,5,28
46118,1e-05,7e-05,-7e-05,-9e-05,-0.00028,-4e-05,9e-05,1e-05,5,28
46119,1e-05,7e-05,-7e-05,-9e-05,-0.00028,-4e-05,9e-05,1e-05,5,28
46120,1e-05,7e-05,-7e-05,-9e-05,-0.00028,-4e-05,9e-05,1e-05,5,28
46121,1e-05,7e-05,-7e-05,-9e-05,-0.00028,-4e-05,9e-05,1e-05,5,28
46122,1e-05,-8e-05,0.00015,0.00012,-0.00017,-5e-05,-1e-05,7e-05,5,28
46123,1e-05,-8e-05,0.00015,0.00012,-0.00017,-5e-05,-1e-05,7e-05,5,28
46124,1e-05,-8e-05,0.00015,0.00012,-0.00017,-5e-05,-1e-05,7e-05,5,28
46125,1e-05,-8e-05,0.00015,0.00012,-0.00017,-5e-05,-1e-05,7e-05,5,28
46126,1e-05,-8e-05,0.00015,0.00012,-0.00017,-5e-05,-1e-05,7e-05,5,28
46127,1e-05,-8e-05,0.00015,0.00012,-0.00017,-5e-05,-1e-05,7e-05,5,28
46128,1e-05,-8e-05,0.00015,0.00012,-0.00017,-5e-05,-1e-05,7e-05,5,28
46129,-0.00018,5e-05,0.00013,-2e-05,0.00047,0.00016,-3e-05,-0.00017,5,28
46130,-0.00018,5e-05,0.00013,-2e-05,0.00047,0.00016,-3e-05,-0.00017,5,28
46131,0,-0.00032,-0.00022,-0.0001,0.0002,0.00011,-4e-05,-3e-05,5,28
46132,0,-0.00032,-0.00022,-0.0001,0.0002,0.00011,-4e-05,-3e-05,5,28
46133,0,-0.00032,-0.00022,-0.0001,0.0002,0.00011,-4e-05,-3e-05,5,28
46134,0,-0.00032,-0.00022,-0.0001,0.0002,0.00011,-4e-05,-3e-05,5,28
46135,0,-0.00032,-0.00022,-0.0001,0.0002,0.00011,-4e-05,-3e-05,5,28
46136,0,-0.00032,-0.00022,-0.0001,0.0002,0.00011,-4e-05,-3e-05,5,28
46138,0,-0.00032,-0.00022,-0.0001,0.0002,0.00011,-4e-05,-3e-05,5,28
46139,0,-0.00032,-0.00022,-0.0001,0.0002,0.00011,-4e-05,-3e-05,5,28
46140,0,-0.00032,-0.00022,-0.0001,0.0002,0.00011,-4e-05,-3e-05,5,28
46141,0,-0.00032,-0.00022,-0.0001,0.0002,0.00011,-4e-05,-3e-05,5,28
46142,0,-0.00032,-0.00022,-0.0001,0.0002,0.00011,-4e-05,-3e-05,5,28
46143,0,-0.00032,-0.00022,-0.0001,0.0002,0.00011,-4e-05,-3e-05,5,28
46144,0,-0.00032,-0.00022,-0.0001,0.0002,0.00011,-4e-05,-3e-05,5,28
46145,0,-0.00032,-0.00022,-0.0001,0.0002,0.00011,-4e-05,-3e-05,5,28
46146,0,-0.00032,-0.00022,-0.0001,0.0002,0.00011,-4e-05,-3e-05,5,28
46147,0,-0.00032,-0.00022,-0.0001,0.0002,0.00011,-4e-05,-3e-05,5,28
46148,0,-0.00032,-0.00022,-0.0001,0.0002,0.00011,-4e-05,-3e-05,5,28
46149,0,-0.00032,-0.00022,-0.0001,0.0002,0.00011,-4e-05,-3e-05,5,28
46150,0,-0.00032,-0.00022,-0.0001,0.0002,0.00011,-4e-05,-3e-05,5,28
46151,0,-0.00032,-0.00022,-0.0001,0.0002,0.00011,-4e-05,-3e-05,5,28
46152,-0.00012,-0.00012,8e-05,0.00012,-0.00029,0.0001,6e-05,0.00024,5,28
46153,6e-05,0.00035,0.00022,0.00023,0.00018,-9e-05,-6e-05,5e-05,5,28
46154,6e-05,0.00035,0.00022,0.00023,0.00018,-9e-05,-6e-05,5e-05,5,28
46155,6e-05,0.00035,0.00022,0.00023,0.00018,-9e-05,-6e-05,5e-05,5,28
46156,6e-05,0.00035,0.00022,0.00023,0.00018,-9e-05,-6e-05,5e-05,5,28
46157,6e-05,0.00035,0.00022,0.00023,0.00018,-9e-05,-6e-05,5e-05,5,28
46158,6e-05,0.00035,0.00022,0.00023,0.00018,-9e-05,-6e-05,5e-05,5,28
46159,6e-05,0.00035,0.00022,0.00023,0.00018,-9e-05,-6e-05,5e-05,5,28
46160,6e-05,0.00035,0.00022,0.00023,0.00018,-9e-05,-6e-05,5e-05,5,28
46161,6e-05,0.00035,0.00022,0.00023,0.00018,-9e-05,-6e-05,5e-05,5,28
46162,6e-05,0.00035,0.00022,0.00023,0.00018,-9e-05,-6e-05,5e-05,5,28
46163,6e-05,0.00035,0.00022,0.00023,0.00018,-9e-05,-6e-05,5e-05,5,28
46164,6e-05,0.00035,0.00022,0.00023,0.00018,-9e-05,-6e-05,5e-05,5,28
46165,6e-05,0.00035,0.00022,0.00023,0.00018,-9e-05,-6e-05,5e-05,5,28
46166,6e-05,0.00035,0.00022,0.00023,0.00018,-9e-05,-6e-05,5e-05,5,28
46167,6e-05,0.00035,0.00022,0.00023,0.00018,-9e-05,-6e-05,5e-05,5,28
46168,6e-05,0.00035,0.00022,0.00023,0.00018,-9e-05,-6e-05,5e-05,5,28
46169,6e-05,0.00035,0.00022,0.00023,0.00018,-9e-05,-6e-05,5e-05,5,28
46170,6e-05,0.00035,0.00022,0.00023,0.00018,-9e-05,-6e-05,5e-05,5,28
46171,6e-05,0.00035,0.00022,0.00023,0.00018,-9e-05,-6e-05,5e-05,5,28
46172,6e-05,0.00035,0.00022,0.00023,0.00018,-9e-05,-6e-05,5e-05,5,28
46173,6e-05,0.00035,0.00022,0.00023,0.00018,-9e-05,-6e-05,5e-05,5,28
46174,-4e-05,-0.00012,-0.0003,-0.00029,-0.00026,-4e-05,-8e-05,-8e-05,5,28
46175,-4e-05,-0.00012,-0.0003,-0.00029,-0.00026,-4e-05,-8e-05,-8e-05,5,28
46176,-0.0001,-0.00017,-0.0002,4e-05,0.00025,-8e-05,7e-05,1e-05,5,28
46177,-0.0001,-0.00017,-0.0002,4e-05,0.00025,-8e-05,7e-05,1e-05,5,28
46178,-0.0001,-0.00017,-0.0002,4e-05,0.00025,-8e-05,7e-05,1e-05,5,28
46179,-0.0001,-0.00017,-0.0002,4e-05,0.00025,-8e-05,7e-05,1e-05,5,28
46180,-0.0001,-0.00017,-0.0002,4e-05,0.00025,-8e-05,7e-05,1e-05,5,28
46181,-0.0001,-0.00017,-0.0002,4e-05,0.00025,-8e-05,7e-05,1e-05,5,28
46182,-0.0001,-0.00017,-0.0002,4e-05,0.00025,-8e-05,7e-05,1e-05,5,28
46183,-0.0001,-0.00017,-0.0002,4e-05,0.00025,-8e-05,7e-05,1e-05,5,28
46184,-0.0001,-0.00017,-0.0002,4e-05,0.00025,-8e-05,7e-05,1e-05,5,28
46185,-0.0001,-0.00017,-0.0002,4e-05,0.00025,-8e-05,7e-05,1e-05,5,28
46186,-0.0001,-0.00017,-0.0002,4e-05,0.00025,-8e-05,7e-05,1e-05,5,28
46188,-0.0001,-0.00017,-0.0002,4e-05,0.00025,-8e-05,7e-05,1e-05,5,28
46189,-0.00014,0.00011,6e-05,-0.00018,-0.00055,-0.0001,-7e-05,-0.00015,5,28
46190,-0.00014,0.00011,6e-05,-0.00018,-0.00055,-0.0001,-7e-05,-0.00015,5,28
46191,-0.00016,-8e-05,-4e-05,1e-05,-7e-05,-3e-05,-8e-05,-5e-05,5,28
46192,-0.00016,-8e-05,-4e-05,1e-05,-7e-05,-3e-05,-8e-05,-5e-05,5,28
46193,-0.00016,-8e-05,-4e-05,1e-05,-7e-05,-3e-05,-8e-05,-5e-05,5,28
46194,-0.00016,-8e-05,-4e-05,1e-05,-7e-05,-3e-05,-8e-05,-5e-05,5,28
46195,-0.00016,-8e-05,-4e-05,1e-05,-7e-05,-3e-05,-8e-05,-5e-05,5,28
46196,-0.00016,-8e-05,-4e-05,1e-05,-7e-05,-3e-05,-8e-05,-5e-05,5,28
46197,-0.00016,-8e-05,-4e-05,1e-05,-7e-05,-3e-05,-8e-05,-5e-05,5,28
46198,-0.00016,-8e-05,-4e-05,1e-05,-7e-05,-3e-05,-8e-05,-5e-05,5,28
46199,-0.00016,-8e-05,-4e-05,1e-05,-7e-05,-3e-05,-8e-05,-5e-05,5,28
46200,-0.00016,-8e-05,-4e-05,1e-05,-7e-05,-3e-05,-8e-05,-5e-05,5,28
46201,-0.00016,-8e-05,-4e-05,1e-05,-7e-05,-3e-05,-8e-05,-5e-05,5,28
46202,-0.00016,-8e-05,-4e-05,1e-05,-7e-05,-3e-05,-8e-05,-5e-05,5,28
46203,-0.00016,-8e-05,-4e-05,1e-05,-7e-05,-3e-05,-8e-05,-5e-05,5,28
46204,-0.00016,-8e-05,-4e-05,1e-05,-7e-05,-3e-05,-8e-05,-5e-05,5,28
46205,-0.00016,-8e-05,-4e-05,1e-05,-7e-05,-3e-05,-8e-05,-5e-05,5,28
46206,-0.00016,-8e-05,-4e-05,1e-05,-7e-05,-3e-05,-8e-05,-5e-05,5,28
46207,-0.00016,-8e-05,-4e-05,1e-05,-7e-05,-3e-05,-8e-05,-5e-05,5,28
46208,-0.00016,-8e-05,-4e-05,1e-05,-7e-05,-3e-05,-8e-05,-5e-05,5,28
46209,-0.00016,-8e-05,-4e-05,1e-05,-7e-05,-3e-05,-8e-05,-5e-05,5,28
46210,-0.00016,-8e-05,-4e-05,1e-05,-7e-05,-3e-05,-8e-05,-5e-05,5,28
46211,-0.00016,-8e-05,-4e-05,1e-05,-7e-05,-3e-05,-8e-05,-5e-05,5,28
46212,0.00013,0.00024,-0.0001,-0.00022,0.00043,0.00023,0.00026,8e-05,5,28
46213,-0.00013,-5e-05,7e-05,6e-05,-6e-05,-4e-05,-0.0001,-3e-05,5,28
46214,-0.00013,-5e-05,7e-05,6e-05,-6e-05,-4e-05,-0.0001,-3e-05,5,28
46215,-0.00013,-5e-05,7e-05,6e-05,-6e-05,-4e-05,-0.0001,-3e-05,5,28
46216,-0.00013,-5e-05,7e-05,6e-05,-6e-05,-4e-05,-0.0001,-3e-05,5,28
46217,-0.00013,-5e-05,7e-05,6e-05,-6e-05,-4e-05,-0.0001,-3e-05,5,28
46218,-0.00013,-5e-05,7e-05,6e-05,-6e-05,-4e-05,-0.0001,-3e-05,5,28
46219,-0.00013,-5e-05,7e-05,6e-05,-6e-05,-4e-05,-0.0001,-3e-05,5,28
46220,-0.00013,-5e-05,7e-05,6e-05,-6e-05,-4e-05,-0.0001,-3e-05,5,28
46221,-0.00013,-5e-05,7e-05,6e-05,-6e-05,-4e-05,-0.0001,-3e-05,5,28
46222,-0.00013,-5e-05,7e-05,6e-05,-6e-05,-4e-05,-0.0001,-3e-05,5,28
46223,-0.00013,-5e-05,7e-05,6e-05,-6e-05,-4e-05,-0.0001,-3e-05,5,28
46224,-0.00013,-5e-05,7e-05,6e-05,-6e-05,-4e-05,-0.0001,-3e-05,5,28
46225,-0.00013,-5e-05,7e-05,6e-05,-6e-05,-4e-05,-0.0001,-3e-05,5,28
46226,0.0001,-6e-05,2e-05,0,-0.00059,-4e-05,-6e-05,2e-05,5,28
46227,0.0001,-6e-05,2e-05,0,-0.00059,-4e-05,-6e-05,2e-05,5,28
46228,0.0001,-6e-05,2e-05,0,-0.00059,-4e-05,-6e-05,2e-05,5,28
46229,0.0001,-6e-05,2e-05,0,-0.00059,-4e-05,-6e-05,2e-05,5,28
46230,0.0001,-6e-05,2e-05,0,-0.00059,-4e-05,-6e-05,2e-05,5,28
46231,0.0001,-6e-05,2e-05,0,-0.00059,-4e-05,-6e-05,2e-05,5,28
46232,0.0001,-6e-05,2e-05,0,-0.00059,-4e-05,-6e-05,2e-05,5,28
46233,0.0001,-6e-05,2e-05,0,-0.00059,-4e-05,-6e-05,2e-05,5,28
46234,5e-05,3e-05,-6e-05,-2e-05,7e-05,-4e-05,4e-05,0.00016,5,28
46235,5e-05,3e-05,-6e-05,-2e-05,7e-05,-4e-05,4e-05,0.00016,5,28
46236,5e-05,3e-05,-6e-05,-2e-05,7e-05,-4e-05,4e-05,0.00016,5,28
46238,5e-05,3e-05,-6e-05,-2e-05,7e-05,-4e-05,4e-05,0.00016,5,28
46239,5e-05,3e-05,-6e-05,-2e-05,7e-05,-4e-05,4e-05,0.00016,5,28
46240,5e-05,3e-05,-6e-05,-2e-05,7e-05,-4e-05,4e-05,0.00016,5,28
46241,5e-05,3e-05,-6e-05,-2e-05,7e-05,-4e-05,4e-05,0.00016,5,28
46242,5e-05,3e-05,-6e-05,-2e-05,7e-05,-4e-05,4e-05,0.00016,5,28
46243,5e-05,3e-05,-6e-05,-2e-05,7e-05,-4e-05,4e-05,0.00016,5,28
46244,5e-05,3e-05,-6e-05,-2e-05,7e-05,-4e-05,4e-05,0.00016,5,28
46245,5e-05,3e-05,-6e-05,-2e-05,7e-05,-4e-05,4e-05,0.00016,5,28
46246,5e-05,3e-05,-6e-05,-2e-05,7e-05,-4e-05,4e-05,0.00016,5,28
46247,5e-05,3e-05,-6e-05,-2e-05,7e-05,-4e-05,4e-05,0.00016,5,28
46248,5e-05,3e-05,-6e-05,-2e-05,7e-05,-4e-05,4e-05,0.00016,5,28
46249,-1e-05,-0.00031,0.00015,6e-05,-0.00033,-0.0001,-0.00011,-3e-05,5,28
46250,-1e-05,-0.00031,0.00015,6e-05,-0.00033,-0.0001,-0.00011,-3e-05,5,28
46251,-0.00011,-0.00019,6e-05,3e-05,-0.00022,0.00017,6e-05,1e-05,5,28
46252,-0.00011,-0.00019,6e-05,3e-05,-0.00022,0.00017,6e-05,1e-05,5,28
46253,-0.00011,-0.00019,6e-05,3e-05,-0.00022,0.00017,6e-05,1e-05,5,28
46254,-0.00011,-0.00019,6e-05,3e-05,-0.00022,0.00017,6e-05,1e-05,5,28
46255,-0.00011,-0.00019,6e-05,3e-05,-0.00022,0.00017,6e-05,1e-05,5,28
46256,-0.00011,-0.00019,6e-05,3e-05,-0.00022,0.00017,6e-05,1e-05,5,28
46257,-0.00011,-0.00019,6e-05,3e-05,-0.00022,0.00017,6e-05,1e-05,5,28
46258,-0.00011,-0.00019,6e-05,3e-05,-0.00022,0.00017,6e-05,1e-05,5,28
46259,-0.00011,-0.00019,6e-05,3e-05,-0.00022,0.00017,6e-05,1e-05,5,28
46260,-0.00011,-0.00019,6e-05,3e-05,-0.00022,0.00017,6e-05,1e-05,5,28
46261,-0.00011,-0.00019,6e-05,3e-05,-0.00022,0.00017,6e-05,1e-05,5,28
46262,-0.00011,-0.00019,6e-05,3e-05,-0.00022,0.00017,6e-05,1e-05,5,28
46263,-0.00011,-0.00019,6e-05,3e-05,-0.00022,0.00017,6e-05,1e-05,5,28
46264,-0.00011,-0.00019,6e-05,3e-05,-0.00022,0.00017,6e-05,1e-05,5,28
46265,-0.00011,-0.00019,6e-05,3e-05,-0.00022,0.00017,6e-05,1e-05,5,28
46266,-0.00011,-0.00019,6e-05,3e-05,-0.00022,0.00017,6e-05,1e-05,5,28
46267,-0.00011,-0.00019,6e-05,3e-05,-0.00022,0.00017,6e-05,1e-05,5,28
46268,-0.00011,-0.00019,6e-05,3e-05,-0.00022,0.00017,6e-05,1e-05,5,28
46269,-0.00011,-0.00019,6e-05,3e-05,-0.00022,0.00017,6e-05,1e-05,5,28
46270,-0.00011,-0.00019,6e-05,3e-05,-0.00022,0.00017,6e-05,1e-05,5,28
46271,-0.00011,-0.00019,6e-05,3e-05,-0.00022,0.00017,6e-05,1e-05,5,28
46272,-2e-05,-4e-05,-0.00022,-0.0001,0.00015,0.00035,-0.00014,-4e-05,5,28
46273,0.00016,0.00016,9e-05,0.00015,0.00043,7e-05,-7e-05,0.00017,5,28
46274,0.00016,0.00016,9e-05,0.00015,0.00043,7e-05,-7e-05,0.00017,5,28
46275,0.00016,0.00016,9e-05,0.00015,0.00043,7e-05,-7e-05,0.00017,5,28
46276,0.00016,0.00016,9e-05,0.00015,0.00043,7e-05,-7e-05,0.00017,5,28
46277,0.00016,0.00016,9e-05,0.00015,0.00043,7e-05,-7e-05,0.00017,5,28
46278,0.00016,0.00016,9e-05,0.00015,0.00043,7e-05,-7e-05,0.00017,5,28
46279,0.00016,0.00016,9e-05,0.00015,0.00043,7e-05,-7e-05,0.00017,5,28
46280,0.00016,0.00016,9e-05,0.00015,0.00043,7e-05,-7e-05,0.00017,5,28
46281,0.00016,0.00016,9e-05,0.00015,0.00043,7e-05,-7e-05,0.00017,5,28
46282,0.00016,0.00016,9e-05,0.00015,0.00043,7e-05,-7e-05,0.00017,5,28
46283,0.00016,0.00016,9e-05,0.00015,0.00043,7e-05,-7e-05,0.00017,5,28
46284,0.00016,0.00016,9e-05,0.00015,0.00043,7e-05,-7e-05,0.00017,5,28
46285,0.00016,0.00016,9e-05,0.00015,0.00043,7e-05,-7e-05,0.00017,5,28
46287,-3e-05,0.00018,0.00039,0.00023,-0.00021,-0.00023,-6e-05,-4e-05,5,28
46289,-3e-05,0.00018,0.00039,0.00023,-0.00021,-0.00023,-6e-05,-4e-05,5,28
46290,-3e-05,0.00018,0.00039,0.00023,-0.00021,-0.00023,-6e-05,-4e-05,5,28
46291,-3e-05,0.00018,0.00039,0.00023,-0.00021,-0.00023,-6e-05,-4e-05,5,28
46292,-3e-05,0.00018,0.00039,0.00023,-0.00021,-0.00023,-6e-05,-4e-05,5,28
46293,-4e-05,-8e-05,-0.00027,-0.00011,-0.00019,0.0001,7e-05,-6e-05,5,28
46294,-4e-05,-8e-05,-0.00027,-0.00011,-0.00019,0.0001,7e-05,-6e-05,5,28
46295,-4e-05,-8e-05,-0.00027,-0.00011,-0.00019,0.0001,7e-05,-6e-05,5,28
46296,-4e-05,-8e-05,-0.00027,-0.00011,-0.00019,0.0001,7e-05,-6e-05,5,28
46297,-4e-05,-8e-05,-0.00027,-0.00011,-0.00019,0.0001,7e-05,-6e-05,5,28
46298,-4e-05,-8e-05,-0.00027,-0.00011,-0.00019,0.0001,7e-05,-6e-05,5,28
46299,-4e-05,-8e-05,-0.00027,-0.00011,-0.00019,0.0001,7e-05,-6e-05,5,28
46300,-4e-05,-8e-05,-0.00027,-0.00011,-0.00019,0.0001,7e-05,-6e-05,5,28
46301,-4e-05,-8e-05,-0.00027,-0.00011,-0.00019,0.0001,7e-05,-6e-05,5,28
46302,-4e-05,-8e-05,-0.00027,-0.00011,-0.00019,0.0001,7e-05,-6e-05,5,28
46303,-4e-05,-8e-05,-0.00027,-0.00011,-0.00019,0.0001,7e-05,-6e-05,5,28
46304,-4e-05,-8e-05,-0.00027,-0.00011,-0.00019,0.0001,7e-05,-6e-05,5,28
46305,-4e-05,-8e-05,-0.00027,-0.00011,-0.00019,0.0001,7e-05,-6e-05,5,28
46306,-4e-05,-8e-05,-0.00027,-0.00011,-0.00019,0.0001,7e-05,-6e-05,5,28
46307,-4e-05,-8e-05,-0.00027,-0.00011,-0.00019,0.0001,7e-05,-6e-05,5,28
46308,-4e-05,-8e-05,-0.00027,-0.00011,-0.00019,0.0001,7e-05,-6e-05,5,28
46309,0.00013,0.00016,0.00013,0.00021,0.0004,-0.00013,1e-05,5e-05,5,28
46310,0.00013,0.00016,0.00013,0.00021,0.0004,-0.00013,1e-05,5e-05,5,28
46311,5e-05,0.00044,0.00018,3e-05,-5e-05,-5e-05,0,-0.00013,5,28
46312,5e-05,0.00044,0.00018,3e-05,-5e-05,-5e-05,0,-0.00013,5,28
46313,5e-05,0.00044,0.00018,3e-05,-5e-05,-5e-05,0,-0.00013,5,28
46314,5e-05,0.00044,0.00018,3e-05,-5e-05,-5e-05,0,-0.00013,5,28
46315,5e-05,0.00044,0.00018,3e-05,-5e-05,-5e-05,0,-0.00013,5,28
46316,5e-05,0.00044,0.00018,3e-05,-5e-05,-5e-05,0,-0.00013,5,28
46317,5e-05,0.00044,0.00018,3e-05,-5e-05,-5e-05,0,-0.00013,5,28
46318,5e-05,0.00044,0.00018,3e-05,-5e-05,-5e-05,0,-0.00013,5,28
46319,5e-05,0.00044,0.00018,3e-05,-5e-05,-5e-05,0,-0.00013,5,28
46320,5e-05,0.00044,0.00018,3e-05,-5e-05,-5e-05,0,-0.00013,5,28
46321,5e-05,0.00044,0.00018,3e-05,-5e-05,-5e-05,0,-0.00013,5,28
46322,5e-05,0.00044,0.00018,3e-05,-5e-05,-5e-05,0,-0.00013,5,28
46323,5e-05,0.00044,0.00018,3e-05,-5e-05,-5e-05,0,-0.00013,5,28
46324,5e-05,0.00044,0.00018,3e-05,-5e-05,-5e-05,0,-0.00013,5,28
46325,5e-05,0.00044,0.00018,3e-05,-5e-05,-5e-05,0,-0.00013,5,28
46326,5e-05,0.00044,0.00018,3e-05,-5e-05,-5e-05,0,-0.00013,5,28
46327,5e-05,0.00044,0.00018,3e-05,-5e-05,-5e-05,0,-0.00013,5,28
46328,5e-05,0.00044,0.00018,3e-05,-5e-05,-5e-05,0,-0.00013,5,28
46329,5e-05,0.00044,0.00018,3e-05,-5e-05,-5e-05,0,-0.00013,5,28
46330,5e-05,0.00044,0.00018,3e-05,-5e-05,-5e-05,0,-0.00013,5,28
46331,5e-05,0.00044,0.00018,3e-05,-5e-05,-5e-05,0,-0.00013,5,28
46332,-0.0001,-8e-05,-0.00013,7e-05,0,-0.00014,-7e-05,-2e-05,5,28
46333,-0.0001,-8e-05,-0.00013,7e-05,0,-0.00014,-7e-05,-2e-05,5,28
46334,-4e-05,2e-05,-3e-05,-6e-05,9e-05,-1e-05,1e-05,4e-05,5,28
46335,-4e-05,2e-05,-3e-05,-6e-05,9e-05,-1e-05,1e-05,4e-05,5,28
46337,-4e-05,2e-05,-3e-05,-6e-05,9e-05,-1e-05,1e-05,4e-05,5,28
46339,-4e-05,2e-05,-3e-05,-6e-05,9e-05,-1e-05,1e-05,4e-05,5,28
46340,-4e-05,2e-05,-3e-05,-6e-05,9e-05,-1e-05,1e-05,4e-05,5,28
46341,-4e-05,2e-05,-3e-05,-6e-05,9e-05,-1e-05,1e-05,4e-05,5,28
46342,-4e-05,2e-05,-3e-05,-6e-05,9e-05,-1e-05,1e-05,4e-05,5,28
46343,-4e-05,2e-05,-3e-05,-6e-05,9e-05,-1e-05,1e-05,4e-05,5,28
46344,-4e-05,2e-05,-3e-05,-6e-05,9e-05,-1e-05,1e-05,4e-05,5,28
46345,-4e-05,2e-05,-3e-05,-6e-05,9e-05,-1e-05,1e-05,4e-05,5,28
46346,-0.0001,0,0.00021,-8e-05,-0.0004,1e-05,3e-05,-6e-05,5,28
46347,-0.0001,0,0.00021,-8e-05,-0.0004,1e-05,3e-05,-6e-05,5,28
46348,-0.0001,0,0.00021,-8e-05,-0.0004,1e-05,3e-05,-6e-05,5,28
46349,-0.0001,0,0.00021,-8e-05,-0.0004,1e-05,3e-05,-6e-05,5,28
46350,-0.0001,0,0.00021,-8e-05,-0.0004,1e-05,3e-05,-6e-05,5,28
46351,-0.0001,0,0.00021,-8e-05,-0.0004,1e-05,3e-05,-6e-05,5,28
46352,-0.0001,0,0.00021,-8e-05,-0.0004,1e-05,3e-05,-6e-05,5,28
46353,-0.0001,0,0.00021,-8e-05,-0.0004,1e-05,3e-05,-6e-05,5,28
46354,-0.0001,0,0.00021,-8e-05,-0.0004,1e-05,3e-05,-6e-05,5,28
46355,-0.0001,0,0.00021,-8e-05,-0.0004,1e-05,3e-05,-6e-05,5,28
46356,-0.0001,0,0.00021,-8e-05,-0.0004,1e-05,3e-05,-6e-05,5,28
46357,-0.0001,0,0.00021,-8e-05,-0.0004,1e-05,3e-05,-6e-05,5,28
46358,-0.0001,0,0.00021,-8e-05,-0.0004,1e-05,3e-05,-6e-05,5,28
46359,-0.0001,0,0.00021,-8e-05,-0.0004,1e-05,3e-05,-6e-05,5,28
46360,-2e-05,-0.00018,0.00025,7e-05,2e-05,2e-05,5e-05,-2e-05,5,28
46361,-2e-05,-0.00018,0.00025,7e-05,2e-05,2e-05,5e-05,-2e-05,5,28
46362,-2e-05,-0.00018,0.00025,7e-05,2e-05,2e-05,5e-05,-2e-05,5,28
46363,-2e-05,-0.00018,0.00025,7e-05,2e-05,2e-05,5e-05,-2e-05,5,28
46364,-2e-05,-0.00018,0.00025,7e-05,2e-05,2e-05,5e-05,-2e-05,5,28
46365,-2e-05,-0.00018,0.00025,7e-05,2e-05,2e-05,5e-05,-2e-05,5,28
46366,-2e-05,-0.00018,0.00025,7e-05,2e-05,2e-05,5e-05,-2e-05,5,28
46367,-2e-05,-0.00018,0.00025,7e-05,2e-05,2e-05,5e-05,-2e-05,5,28
46368,-2e-05,-0.00018,0.00025,7e-05,2e-05,2e-05,5e-05,-2e-05,5,28
46369,-2e-05,-0.00018,0.00025,7e-05,2e-05,2e-05,5e-05,-2e-05,5,28
46370,-0.00011,-0.00042,-0.00014,-0.00015,0.00021,-0.0002,-7e-05,-3e-05,5,28
46371,-2e-05,-0.0002,-0.00017,-0.00018,8e-05,0,-1e-05,-2e-05,5,28
46372,-2e-05,-0.0002,-0.00017,-0.00018,8e-05,0,-1e-05,-2e-05,5,28
46373,-2e-05,-0.0002,-0.00017,-0.00018,8e-05,0,-1e-05,-2e-05,5,28
46374,-2e-05,-0.0002,-0.00017,-0.00018,8e-05,0,-1e-05,-2e-05,5,28
46375,-2e-05,-0.0002,-0.00017,-0.00018,8e-05,0,-1e-05,-2e-05,5,28
46376,-2e-05,-0.0002,-0.00017,-0.00018,8e-05,0,-1e-05,-2e-05,5,28
46377,-2e-05,-0.0002,-0.00017,-0.00018,8e-05,0,-1e-05,-2e-05,5,28
46378,-2e-05,-0.0002,-0.00017,-0.00018,8e-05,0,-1e-05,-2e-05,5,28
