21047,-3e-05,5e-05,0.00018,0.00061,0.00041,1e-05,1e-05,-1e-05,5,29
21048,-3e-05,5e-05,0.00018,0.00061,0.00041,1e-05,1e-05,-1e-05,5,29
21049,-3e-05,5e-05,0.00018,0.00061,0.00041,1e-05,1e-05,-1e-05,5,29
21050,-3e-05,5e-05,0.00018,0.00061,0.00041,1e-05,1e-05,-1e-05,5,29
21051,-3e-05,5e-05,0.00018,0.00061,0.00041,1e-05,1e-05,-1e-05,5,29
21052,-3e-05,5e-05,0.00018,0.00061,0.00041,1e-05,1e-05,-1e-05,5,29
21053,-3e-05,5e-05,0.00018,0.00061,0.00041,1e-05,1e-05,-1e-05,5,29
21054,-3e-05,5e-05,0.00018,0.00061,0.00041,1e-05,1e-05,-1e-05,5,29
21055,-3e-05,5e-05,0.00018,0.00061,0.00041,1e-05,1e-05,-1e-05,5,29
21056,-3e-05,5e-05,0.00018,0.00061,0.00041,1e-05,1e-05,-1e-05,5,29
21057,-3e-05,5e-05,0.00018,0.00061,0.00041,1e-05,1e-05,-1e-05,5,29
21058,-3e-05,5e-05,0.00018,0.00061,0.00041,1e-05,1e-05,-1e-05,5,29
21059,-3e-05,5e-05,0.00018,0.00061,0.00041,1e-05,1e-05,-1e-05,5,29
21060,-3e-05,5e-05,0.00018,0.00061,0.00041,1e-05,1e-05,-1e-05,5,29
21061,-3e-05,5e-05,0.00018,0.00061,0.00041,1e-05,1e-05,-1e-05,5,29
21062,-3e-05,5e-05,0.00018,0.00061,0.00041,1e-05,1e-05,-1e-05,5,29
21063,-3e-05,5e-05,0.00018,0.00061,0.00041,1e-05,1e-05,-1e-05,5,29
21064,-3e-05,5e-05,0.00018,0.00061,0.00041,1e-05,1e-05,-1e-05,5,29
21065,-3e-05,5e-05,0.00018,0.00061,0.00041,1e-05,1e-05,-1e-05,5,29
21066,0.00016,0.00022,0.00021,0.00022,0.00011,0.00024,0.00013,5e-05,5,29
21067,0,-3e-05,4e-05,0.00037,0.00034,0.00011,5e-05,3e-05,5,29
21068,0,-3e-05,4e-05,0.00037,0.00034,0.00011,5e-05,3e-05,5,29
21069,0,-3e-05,4e-05,0.00037,0.00034,0.00011,5e-05,3e-05,5,29
21070,0,-3e-05,4e-05,0.00037,0.00034,0.00011,5e-05,3e-05,5,29
21071,0,-3e-05,4e-05,0.00037,0.00034,0.00011,5e-05,3e-05,5,29
21072,0,-3e-05,4e-05,0.00037,0.00034,0.00011,5e-05,3e-05,5,29
21073,0,-3e-05,4e-05,0.00037,0.00034,0.00011,5e-05,3e-05,5,29
21074,0,-3e-05,4e-05,0.00037,0.00034,0.00011,5e-05,3e-05,5,29
21075,0,-3e-05,4e-05,0.00037,0.00034,0.00011,5e-05,3e-05,5,29
21076,0,-3e-05,4e-05,0.00037,0.00034,0.00011,5e-05,3e-05,5,29
21077,0,-3e-05,4e-05,0.00037,0.00034,0.00011,5e-05,3e-05,5,29
21078,0,-3e-05,4e-05,0.00037,0.00034,0.00011,5e-05,3e-05,5,29
21079,0,-3e-05,4e-05,0.00037,0.00034,0.00011,5e-05,3e-05,5,29
21080,0,-3e-05,4e-05,0.00037,0.00034,0.00011,5e-05,3e-05,5,29
21081,0,-3e-05,4e-05,0.00037,0.00034,0.00011,5e-05,3e-05,5,29
21082,0,-3e-05,4e-05,0.00037,0.00034,0.00011,5e-05,3e-05,5,29
21083,0,-3e-05,4e-05,0.00037,0.00034,0.00011,5e-05,3e-05,5,29
21084,0,-3e-05,4e-05,0.00037,0.00034,0.00011,5e-05,3e-05,5,29
21085,0,-3e-05,4e-05,0.00037,0.00034,0.00011,5e-05,3e-05,5,29
21086,0,-3e-05,4e-05,0.00037,0.00034,0.00011,5e-05,3e-05,5,29
21088,0,-3e-05,4e-05,0.00037,0.00034,0.00011,5e-05,3e-05,5,29
21089,-0.00011,-0.00018,-0.00018,-1e-05,0.00044,1e-05,-7e-05,-5e-05,5,29
21090,0.00011,0.00018,0.00015,0.00041,0.00046,0.00015,6e-05,3e-05,5,29
21091,0.00011,0.00018,0.00015,0.00041,0.00046,0.00015,6e-05,3e-05,5,29
21092,0.00011,0.00018,0.00015,0.00041,0.00046,0.00015,6e-05,3e-05,5,29
21093,0.00011,0.00018,0.00015,0.00041,0.00046,0.00015,6e-05,3e-05,5,29
21094,0.00011,0.00018,0.00015,0.00041,0.00046,0.00015,6e-05,3e-05,5,29
21095,0.00011,0.00018,0.00015,0.00041,0.00046,0.00015,6e-05,3e-05,5,29
21096,0.00011,0.00018,0.00015,0.00041,0.00046,0.00015,6e-05,3e-05,5,29
21097,0.00011,0.00018,0.00015,0.00041,0.00046,0.00015,6e-05,3e-05,5,29
21098,0.00011,0.00018,0.00015,0.00041,0.00046,0.00015,6e-05,3e-05,5,29
21099,0.00011,0.00018,0.00015,0.00041,0.00046,0.00015,6e-05,3e-05,5,29
21100,0.00011,0.00018,0.00015,0.00041,0.00046,0.00015,6e-05,3e-05,5,29
21101,0.00011,0.00018,0.00015,0.00041,0.00046,0.00015,6e-05,3e-05,5,29
21102,0.00011,0.00018,0.00015,0.00041,0.00046,0.00015,6e-05,3e-05,5,29
21103,-9e-05,-0.00016,-0.00034,-0.00104,-0.00022,-0.00011,-7e-05,-6e-05,5,29
21104,-6e-05,0,-7e-05,-0.00032,-0.00025,-9e-05,-3e-05,-3e-05,5,29
21105,-6e-05,0,-7e-05,-0.00032,-0.00025,-9e-05,-3e-05,-3e-05,5,29
21106,-6e-05,0,-7e-05,-0.00032,-0.00025,-9e-05,-3e-05,-3e-05,5,29
21107,-6e-05,0,-7e-05,-0.00032,-0.00025,-9e-05,-3e-05,-3e-05,5,29
21108,-6e-05,0,-7e-05,-0.00032,-0.00025,-9e-05,-3e-05,-3e-05,5,29
21109,-6e-05,0,-7e-05,-0.00032,-0.00025,-9e-05,-3e-05,-3e-05,5,29
21110,-6e-05,0,-7e-05,-0.00032,-0.00025,-9e-05,-3e-05,-3e-05,5,29
21111,-6e-05,0,-7e-05,-0.00032,-0.00025,-9e-05,-3e-05,-3e-05,5,29
21112,-6e-05,0,-7e-05,-0.00032,-0.00025,-9e-05,-3e-05,-3e-05,5,29
21113,-6e-05,0,-7e-05,-0.00032,-0.00025,-9e-05,-3e-05,-3e-05,5,29
21114,-6e-05,0,-7e-05,-0.00032,-0.00025,-9e-05,-3e-05,-3e-05,5,29
21115,-6e-05,0,-7e-05,-0.00032,-0.00025,-9e-05,-3e-05,-3e-05,5,29
21116,-6e-05,0,-7e-05,-0.00032,-0.00025,-9e-05,-3e-05,-3e-05,5,29
21117,-6e-05,0,-7e-05,-0.00032,-0.00025,-9e-05,-3e-05,-3e-05,5,29
21118,-6e-05,0,-7e-05,-0.00032,-0.00025,-9e-05,-3e-05,-3e-05,5,29
21119,-6e-05,0,-7e-05,-0.00032,-0.00025,-9e-05,-3e-05,-3e-05,5,29
21120,-6e-05,0,-7e-05,-0.00032,-0.00025,-9e-05,-3e-05,-3e-05,5,29
21121,-6e-05,0,-7e-05,-0.00032,-0.00025,-9e-05,-3e-05,-3e-05,5,29
21122,-6e-05,0,-7e-05,-0.00032,-0.00025,-9e-05,-3e-05,-3e-05,5,29
21123,-6e-05,0,-7e-05,-0.00032,-0.00025,-9e-05,-3e-05,-3e-05,5,29
21124,-6e-05,0,-7e-05,-0.00032,-0.00025,-9e-05,-3e-05,-3e-05,5,29
21125,-6e-05,0,-7e-05,-0.00032,-0.00025,-9e-05,-3e-05,-3e-05,5,29
21126,-6e-05,0,-7e-05,-0.00032,-0.00025,-9e-05,-3e-05,-3e-05,5,29
21127,-6e-05,0,-7e-05,-0.00032,-0.00025,-9e-05,-3e-05,-3e-05,5,29
21128,-6e-05,0,-7e-05,-0.00032,-0.00025,-9e-05,-3e-05,-3e-05,5,29
21129,-6e-05,0,-7e-05,-0.00032,-0.00025,-9e-05,-3e-05,-3e-05,5,29
21130,-6e-05,0,-7e-05,-0.00032,-0.00025,-9e-05,-3e-05,-3e-05,5,29
21131,-6e-05,0,-7e-05,-0.00032,-0.00025,-9e-05,-3e-05,-3e-05,5,29
21132,-6e-05,0,-7e-05,-0.00032,-0.00025,-9e-05,-3e-05,-3e-05,5,29
21133,-6e-05,0,-7e-05,-0.00032,-0.00025,-9e-05,-3e-05,-3e-05,5,29
21134,-4e-05,-8e-05,-9e-05,-0.00049,-0.00044,-0.00011,-2e-05,-1e-05,5,29
21135,-4e-05,-8e-05,-9e-05,-0.00049,-0.00044,-0.00011,-2e-05,-1e-05,5,29
21136,-4e-05,-8e-05,-9e-05,-0.00049,-0.00044,-0.00011,-2e-05,-1e-05,5,29
21138,-4e-05,-8e-05,-9e-05,-0.00049,-0.00044,-0.00011,-2e-05,-1e-05,5,29
21139,-4e-05,-8e-05,-9e-05,-0.00049,-0.00044,-0.00011,-2e-05,-1e-05,5,29
21140,-4e-05,-8e-05,-9e-05,-0.00049,-0.00044,-0.00011,-2e-05,-1e-05,5,29
21141,-4e-05,-8e-05,-9e-05,-0.00049,-0.00044,-0.00011,-2e-05,-1e-05,5,29
21142,-3e-05,-4e-05,9e-05,0.00103,0.00089,0,1e-05,-2e-05,5,29
21143,6e-05,5e-05,-6e-05,0.00018,-0.00017,-2e-05,-1e-05,2e-05,5,29
21145,6e-05,5e-05,-6e-05,0.00018,-0.00017,-2e-05,-1e-05,2e-05,5,29
21146,6e-05,5e-05,-6e-05,0.00018,-0.00017,-2e-05,-1e-05,2e-05,5,29
21147,6e-05,5e-05,-6e-05,0.00018,-0.00017,-2e-05,-1e-05,2e-05,5,29
21148,6e-05,5e-05,-6e-05,0.00018,-0.00017,-2e-05,-1e-05,2e-05,5,29
21149,6e-05,5e-05,-6e-05,0.00018,-0.00017,-2e-05,-1e-05,2e-05,5,29
21150,6e-05,5e-05,-6e-05,0.00018,-0.00017,-2e-05,-1e-05,2e-05,5,29
21151,6e-05,5e-05,-6e-05,0.00018,-0.00017,-2e-05,-1e-05,2e-05,5,29
21152,6e-05,5e-05,-6e-05,0.00018,-0.00017,-2e-05,-1e-05,2e-05,5,29
21153,6e-05,5e-05,-6e-05,0.00018,-0.00017,-2e-05,-1e-05,2e-05,5,29
21154,6e-05,5e-05,-6e-05,0.00018,-0.00017,-2e-05,-1e-05,2e-05,5,29
21155,6e-05,5e-05,-6e-05,0.00018,-0.00017,-2e-05,-1e-05,2e-05,5,29
21156,6e-05,5e-05,-6e-05,0.00018,-0.00017,-2e-05,-1e-05,2e-05,5,29
21157,6e-05,5e-05,-6e-05,0.00018,-0.00017,-2e-05,-1e-05,2e-05,5,29
21158,6e-05,5e-05,-6e-05,0.00018,-0.00017,-2e-05,-1e-05,2e-05,5,29
21159,6e-05,5e-05,-6e-05,0.00018,-0.00017,-2e-05,-1e-05,2e-05,5,29
21160,6e-05,5e-05,-6e-05,0.00018,-0.00017,-2e-05,-1e-05,2e-05,5,29
21161,6e-05,5e-05,-6e-05,0.00018,-0.00017,-2e-05,-1e-05,2e-05,5,29
21162,6e-05,5e-05,-6e-05,0.00018,-0.00017,-2e-05,-1e-05,2e-05,5,29
21163,6e-05,5e-05,-6e-05,0.00018,-0.00017,-2e-05,-1e-05,2e-05,5,29
21164,6e-05,5e-05,-6e-05,0.00018,-0.00017,-2e-05,-1e-05,2e-05,5,29
21165,6e-05,5e-05,-6e-05,0.00018,-0.00017,-2e-05,-1e-05,2e-05,5,29
21166,6e-05,5e-05,-6e-05,0.00018,-0.00017,-2e-05,-1e-05,2e-05,5,29
21167,6e-05,5e-05,-6e-05,0.00018,-0.00017,-2e-05,-1e-05,2e-05,5,29
21168,6e-05,5e-05,-6e-05,0.00018,-0.00017,-2e-05,-1e-05,2e-05,5,29
21169,6e-05,5e-05,-6e-05,0.00018,-0.00017,-2e-05,-1e-05,2e-05,5,29
21170,6e-05,5e-05,-6e-05,0.00018,-0.00017,-2e-05,-1e-05,2e-05,5,29
21171,-2e-05,-9e-05,-7e-05,-0.00037,-0.00044,-0.00011,-7e-05,-4e-05,5,29
21172,0,1e-05,-1e-05,0.00033,0.00064,7e-05,-2e-05,0,5,29
21173,0,1e-05,-1e-05,0.00033,0.00064,7e-05,-2e-05,0,5,29
21174,0,1e-05,-1e-05,0.00033,0.00064,7e-05,-2e-05,0,5,29
21175,0,1e-05,-1e-05,0.00033,0.00064,7e-05,-2e-05,0,5,29
21176,0,1e-05,-1e-05,0.00033,0.00064,7e-05,-2e-05,0,5,29
21177,0,1e-05,-1e-05,0.00033,0.00064,7e-05,-2e-05,0,5,29
21178,0,1e-05,-1e-05,0.00033,0.00064,7e-05,-2e-05,0,5,29
21179,0,1e-05,-1e-05,0.00033,0.00064,7e-05,-2e-05,0,5,29
21180,0,1e-05,-1e-05,0.00033,0.00064,7e-05,-2e-05,0,5,29
21181,0,1e-05,-1e-05,0.00033,0.00064,7e-05,-2e-05,0,5,29
21182,0,1e-05,-1e-05,0.00033,0.00064,7e-05,-2e-05,0,5,29
21183,0,1e-05,-1e-05,0.00033,0.00064,7e-05,-2e-05,0,5,29
21184,0,1e-05,-1e-05,0.00033,0.00064,7e-05,-2e-05,0,5,29
21185,0,1e-05,-1e-05,0.00033,0.00064,7e-05,-2e-05,0,5,29
21186,-1e-05,5e-05,7e-05,0.0003,0.00025,6e-05,4e-05,-3e-05,5,29
21188,-2e-05,-5e-05,-5e-05,-0.00046,-0.00051,-9e-05,-2e-05,4e-05,5,29
21189,-2e-05,-5e-05,-5e-05,-0.00046,-0.00051,-9e-05,-2e-05,4e-05,5,29
21190,-2e-05,-5e-05,-5e-05,-0.00046,-0.00051,-9e-05,-2e-05,4e-05,5,29
21191,-2e-05,-5e-05,-5e-05,-0.00046,-0.00051,-9e-05,-2e-05,4e-05,5,29
21192,-2e-05,-5e-05,-5e-05,-0.00046,-0.00051,-9e-05,-2e-05,4e-05,5,29
21193,-2e-05,-5e-05,-5e-05,-0.00046,-0.00051,-9e-05,-2e-05,4e-05,5,29
21194,-2e-05,-5e-05,-5e-05,-0.00046,-0.00051,-9e-05,-2e-05,4e-05,5,29
21195,-2e-05,-5e-05,-5e-05,-0.00046,-0.00051,-9e-05,-2e-05,4e-05,5,29
21196,-2e-05,-5e-05,-5e-05,-0.00046,-0.00051,-9e-05,-2e-05,4e-05,5,29
21197,-2e-05,-5e-05,-5e-05,-0.00046,-0.00051,-9e-05,-2e-05,4e-05,5,29
21198,-2e-05,-5e-05,-5e-05,-0.00046,-0.00051,-9e-05,-2e-05,4e-05,5,29
21199,-2e-05,-5e-05,-5e-05,-0.00046,-0.00051,-9e-05,-2e-05,4e-05,5,29
21200,-2e-05,-5e-05,-5e-05,-0.00046,-0.00051,-9e-05,-2e-05,4e-05,5,29
21201,5e-05,3e-05,-4e-05,0.00023,0.00041,0,-1e-05,1e-05,5,29
21202,0,4e-05,0.0001,-4e-05,0.00018,-3e-05,2e-05,-1e-05,5,29
21203,0,4e-05,0.0001,-4e-05,0.00018,-3e-05,2e-05,-1e-05,5,29
21204,0,4e-05,0.0001,-4e-05,0.00018,-3e-05,2e-05,-1e-05,5,29
21205,0,4e-05,0.0001,-4e-05,0.00018,-3e-05,2e-05,-1e-05,5,29
21206,0,4e-05,0.0001,-4e-05,0.00018,-3e-05,2e-05,-1e-05,5,29
21207,0,4e-05,0.0001,-4e-05,0.00018,-3e-05,2e-05,-1e-05,5,29
21208,0,4e-05,0.0001,-4e-05,0.00018,-3e-05,2e-05,-1e-05,5,29
21209,0,4e-05,0.0001,-4e-05,0.00018,-3e-05,2e-05,-1e-05,5,29
21210,0,4e-05,0.0001,-4e-05,0.00018,-3e-05,2e-05,-1e-05,5,29
21211,0,4e-05,0.0001,-4e-05,0.00018,-3e-05,2e-05,-1e-05,5,29
21212,0,4e-05,0.0001,-4e-05,0.00018,-3e-05,2e-05,-1e-05,5,29
21213,0,4e-05,0.0001,-4e-05,0.00018,-3e-05,2e-05,-1e-05,5,29
21214,0,4e-05,0.0001,-4e-05,0.00018,-3e-05,2e-05,-1e-05,5,29
21215,0,4e-05,0.0001,-4e-05,0.00018,-3e-05,2e-05,-1e-05,5,29
21216,0,4e-05,0.0001,-4e-05,0.00018,-3e-05,2e-05,-1e-05,5,29
21217,0,4e-05,0.0001,-4e-05,0.00018,-3e-05,2e-05,-1e-05,5,29
21218,0,4e-05,0.0001,-4e-05,0.00018,-3e-05,2e-05,-1e-05,5,29
21219,0,4e-05,0.0001,-4e-05,0.00018,-3e-05,2e-05,-1e-05,5,29
21220,0,4e-05,0.0001,-4e-05,0.00018,-3e-05,2e-05,-1e-05,5,29
21221,0,4e-05,0.0001,-4e-05,0.00018,-3e-05,2e-05,-1e-05,5,29
21222,0,4e-05,0.0001,-4e-05,0.00018,-3e-05,2e-05,-1e-05,5,29
21223,-7e-05,-0.0002,-0.00018,-0.00021,-0.00032,-0.00014,-0.0001,-9e-05,5,29
21224,5e-05,8e-05,0.00018,0.00062,-0.00014,9e-05,6e-05,4e-05,5,29
21225,5e-05,8e-05,0.00018,0.00062,-0.00014,9e-05,6e-05,4e-05,5,29
21226,5e-05,8e-05,0.00018,0.00062,-0.00014,9e-05,6e-05,4e-05,5,29
21227,5e-05,8e-05,0.00018,0.00062,-0.00014,9e-05,6e-05,4e-05,5,29
21228,5e-05,8e-05,0.00018,0.00062,-0.00014,9e-05,6e-05,4e-05,5,29
21229,5e-05,8e-05,0.00018,0.00062,-0.00014,9e-05,6e-05,4e-05,5,29
21230,5e-05,8e-05,0.00018,0.00062,-0.00014,9e-05,6e-05,4e-05,5,29
21231,5e-05,8e-05,0.00018,0.00062,-0.00014,9e-05,6e-05,4e-05,5,29
21232,5e-05,8e-05,0.00018,0.00062,-0.00014,9e-05,6e-05,4e-05,5,29
21233,5e-05,8e-05,0.00018,0.00062,-0.00014,9e-05,6e-05,4e-05,5,29
21234,5e-05,8e-05,0.00018,0.00062,-0.00014,9e-05,6e-05,4e-05,5,29
21235,5e-05,8e-05,0.00018,0.00062,-0.00014,9e-05,6e-05,4e-05,5,29
21236,5e-05,8e-05,0.00018,0.00062,-0.00014,9e-05,6e-05,4e-05,5,29
21238,5e-05,8e-05,0.00018,0.00062,-0.00014,9e-05,6e-05,4e-05,5,29
21239,5e-05,8e-05,0.00018,0.00062,-0.00014,9e-05,6e-05,4e-05,5,29
21240,5e-05,8e-05,0.00018,0.00062,-0.00014,9e-05,6e-05,4e-05,5,29
21241,5e-05,8e-05,0.00018,0.00062,-0.00014,9e-05,6e-05,4e-05,5,29
21242,5e-05,8e-05,0.00018,0.00062,-0.00014,9e-05,6e-05,4e-05,5,29
21243,5e-05,8e-05,0.00018,0.00062,-0.00014,9e-05,6e-05,4e-05,5,29
21244,5e-05,8e-05,0.00018,0.00062,-0.00014,9e-05,6e-05,4e-05,5,29
21245,5e-05,8e-05,0.00018,0.00062,-0.00014,9e-05,6e-05,4e-05,5,29
21246,-0.0001,-8e-05,0,0.00037,6e-05,-0.00011,-0.00011,-6e-05,5,29
21247,1e-05,-4e-05,0,-0.00035,0.00023,0.00015,5e-05,0,5,29
21248,1e-05,-4e-05,0,-0.00035,0.00023,0.00015,5e-05,0,5,29
21249,1e-05,-4e-05,0,-0.00035,0.00023,0.00015,5e-05,0,5,29
21250,1e-05,-4e-05,0,-0.00035,0.00023,0.00015,5e-05,0,5,29
21251,1e-05,-4e-05,0,-0.00035,0.00023,0.00015,5e-05,0,5,29
21252,1e-05,-4e-05,0,-0.00035,0.00023,0.00015,5e-05,0,5,29
21253,1e-05,-4e-05,0,-0.00035,0.00023,0.00015,5e-05,0,5,29
21254,1e-05,-4e-05,0,-0.00035,0.00023,0.00015,5e-05,0,5,29
21255,1e-05,-4e-05,0,-0.00035,0.00023,0.00015,5e-05,0,5,29
21256,1e-05,-4e-05,0,-0.00035,0.00023,0.00015,5e-05,0,5,29
21257,1e-05,-4e-05,0,-0.00035,0.00023,0.00015,5e-05,0,5,29
21258,1e-05,-4e-05,0,-0.00035,0.00023,0.00015,5e-05,0,5,29
21259,1e-05,-4e-05,0,-0.00035,0.00023,0.00015,5e-05,0,5,29
21260,1e-05,-4e-05,0,-0.00035,0.00023,0.00015,5e-05,0,5,29
21261,4e-05,3e-05,-8e-05,0.00014,0.00038,0.0001,5e-05,-2e-05,5,29
21262,-0.00015,-0.00013,-0.00012,-0.00012,0.00019,-3e-05,-3e-05,-6e-05,5,29
21263,-0.00015,-0.00013,-0.00012,-0.00012,0.00019,-3e-05,-3e-05,-6e-05,5,29
21264,-0.00015,-0.00013,-0.00012,-0.00012,0.00019,-3e-05,-3e-05,-6e-05,5,29
21265,-0.00015,-0.00013,-0.00012,-0.00012,0.00019,-3e-05,-3e-05,-6e-05,5,29
21266,-0.00015,-0.00013,-0.00012,-0.00012,0.00019,-3e-05,-3e-05,-6e-05,5,29
21267,-0.00015,-0.00013,-0.00012,-0.00012,0.00019,-3e-05,-3e-05,-6e-05,5,29
21268,-0.00015,-0.00013,-0.00012,-0.00012,0.00019,-3e-05,-3e-05,-6e-05,5,29
21269,-0.00015,-0.00013,-0.00012,-0.00012,0.00019,-3e-05,-3e-05,-6e-05,5,29
21270,-0.00015,-0.00013,-0.00012,-0.00012,0.00019,-3e-05,-3e-05,-6e-05,5,29
21271,-0.00015,-0.00013,-0.00012,-0.00012,0.00019,-3e-05,-3e-05,-6e-05,5,29
21272,-0.00015,-0.00013,-0.00012,-0.00012,0.00019,-3e-05,-3e-05,-6e-05,5,29
21273,-0.00015,-0.00013,-0.00012,-0.00012,0.00019,-3e-05,-3e-05,-6e-05,5,29
21274,-0.00015,-0.00013,-0.00012,-0.00012,0.00019,-3e-05,-3e-05,-6e-05,5,29
21275,-0.00015,-0.00013,-0.00012,-0.00012,0.00019,-3e-05,-3e-05,-6e-05,5,29
21276,-0.00015,-0.00013,-0.00012,-0.00012,0.00019,-3e-05,-3e-05,-6e-05,5,29
21277,-0.00015,-0.00013,-0.00012,-0.00012,0.00019,-3e-05,-3e-05,-6e-05,5,29
21278,-0.00015,-0.00013,-0.00012,-0.00012,0.00019,-3e-05,-3e-05,-6e-05,5,29
21279,-0.00015,-0.00013,-0.00012,-0.00012,0.00019,-3e-05,-3e-05,-6e-05,5,29
21280,-0.00015,-0.00013,-0.00012,-0.00012,0.00019,-3e-05,-3e-05,-6e-05,5,29
21281,-0.00015,-0.00013,-0.00012,-0.00012,0.00019,-3e-05,-3e-05,-6e-05,5,29
21282,-0.00015,-0.00013,-0.00012,-0.00012,0.00019,-3e-05,-3e-05,-6e-05,5,29
21283,-0.00013,-0.0002,-0.0002,0,-5e-05,-0.00024,-0.00015,-9e-05,5,29
21284,4e-05,7e-05,0,-0.00025,0.00048,0.00011,4e-05,1e-05,5,29
21285,4e-05,7e-05,0,-0.00025,0.00048,0.00011,4e-05,1e-05,5,29
21286,4e-05,7e-05,0,-0.00025,0.00048,0.00011,4e-05,1e-05,5,29
21288,4e-05,7e-05,0,-0.00025,0.00048,0.00011,4e-05,1e-05,5,29
21289,4e-05,7e-05,0,-0.00025,0.00048,0.00011,4e-05,1e-05,5,29
21290,4e-05,7e-05,0,-0.00025,0.00048,0.00011,4e-05,1e-05,5,29
21291,4e-05,7e-05,0,-0.00025,0.00048,0.00011,4e-05,1e-05,5,29
21292,4e-05,7e-05,0,-0.00025,0.00048,0.00011,4e-05,1e-05,5,29
21293,4e-05,7e-05,0,-0.00025,0.00048,0.00011,4e-05,1e-05,5,29
21294,4e-05,7e-05,0,-0.00025,0.00048,0.00011,4e-05,1e-05,5,29
21295,4e-05,7e-05,0,-0.00025,0.00048,0.00011,4e-05,1e-05,5,29
21296,4e-05,7e-05,0,-0.00025,0.00048,0.00011,4e-05,1e-05,5,29
21297,4e-05,7e-05,0,-0.00025,0.00048,0.00011,4e-05,1e-05,5,29
21298,4e-05,7e-05,0,-0.00025,0.00048,0.00011,4e-05,1e-05,5,29
21299,4e-05,7e-05,0,-0.00025,0.00048,0.00011,4e-05,1e-05,5,29
21300,4e-05,7e-05,0,-0.00025,0.00048,0.00011,4e-05,1e-05,5,29
21301,4e-05,7e-05,0,-0.00025,0.00048,0.00011,4e-05,1e-05,5,29
21302,4e-05,7e-05,0,-0.00025,0.00048,0.00011,4e-05,1e-05,5,29
21303,4e-05,7e-05,0,-0.00025,0.00048,0.00011,4e-05,1e-05,5,29
21304,4e-05,7e-05,0,-0.00025,0.00048,0.00011,4e-05,1e-05,5,29
21305,4e-05,7e-05,0,-0.00025,0.00048,0.00011,4e-05,1e-05,5,29
21306,-4e-05,-6e-05,-0.0002,-0.00033,-0.00024,-2e-05,-1e-05,-3e-05,5,29
21307,2e-05,0,-4e-05,0.00014,-0.00047,-8e-05,-5e-05,0,5,29
21308,2e-05,0,-4e-05,0.00014,-0.00047,-8e-05,-5e-05,0,5,29
21309,2e-05,0,-4e-05,0.00014,-0.00047,-8e-05,-5e-05,0,5,29
21310,2e-05,0,-4e-05,0.00014,-0.00047,-8e-05,-5e-05,0,5,29
21311,2e-05,0,-4e-05,0.00014,-0.00047,-8e-05,-5e-05,0,5,29
21312,2e-05,0,-4e-05,0.00014,-0.00047,-8e-05,-5e-05,0,5,29
21313,2e-05,0,-4e-05,0.00014,-0.00047,-8e-05,-5e-05,0,5,29
21314,2e-05,0,-4e-05,0.00014,-0.00047,-8e-05,-5e-05,0,5,29
21315,2e-05,0,-4e-05,0.00014,-0.00047,-8e-05,-5e-05,0,5,29
21316,2e-05,0,-4e-05,0.00014,-0.00047,-8e-05,-5e-05,0,5,29
21317,2e-05,0,-4e-05,0.00014,-0.00047,-8e-05,-5e-05,0,5,29
21318,2e-05,0,-4e-05,0.00014,-0.00047,-8e-05,-5e-05,0,5,29
21319,2e-05,0,-4e-05,0.00014,-0.00047,-8e-05,-5e-05,0,5,29
21320,4e-05,3e-05,0.00012,-0.00057,0.00016,4e-05,1e-05,1e-05,5,29
21321,4e-05,3e-05,0.00012,-0.00057,0.00016,4e-05,1e-05,1e-05,5,29
21322,4e-05,3e-05,0.00012,-0.00057,0.00016,4e-05,1e-05,1e-05,5,29
21323,4e-05,3e-05,0.00012,-0.00057,0.00016,4e-05,1e-05,1e-05,5,29
21324,4e-05,3e-05,0.00012,-0.00057,0.00016,4e-05,1e-05,1e-05,5,29
21325,4e-05,3e-05,0.00012,-0.00057,0.00016,4e-05,1e-05,1e-05,5,29
21326,4e-05,3e-05,0.00012,-0.00057,0.00016,4e-05,1e-05,1e-05,5,29
21327,4e-05,3e-05,0.00012,-0.00057,0.00016,4e-05,1e-05,1e-05,5,29
21328,-3e-05,-8e-05,-0.00016,-0.00054,-0.00026,-9e-05,-5e-05,-4e-05,5,29
21329,-3e-05,-8e-05,-0.00016,-0.00054,-0.00026,-9e-05,-5e-05,-4e-05,5,29
21330,-3e-05,-8e-05,-0.00016,-0.00054,-0.00026,-9e-05,-5e-05,-4e-05,5,29
21331,-3e-05,-8e-05,-0.00016,-0.00054,-0.00026,-9e-05,-5e-05,-4e-05,5,29
21332,-3e-05,-8e-05,-0.00016,-0.00054,-0.00026,-9e-05,-5e-05,-4e-05,5,29
21333,-3e-05,-8e-05,-0.00016,-0.00054,-0.00026,-9e-05,-5e-05,-4e-05,5,29
21334,-3e-05,-8e-05,-0.00016,-0.00054,-0.00026,-9e-05,-5e-05,-4e-05,5,29
21335,-3e-05,-8e-05,-0.00016,-0.00054,-0.00026,-9e-05,-5e-05,-4e-05,5,29
21336,-3e-05,-8e-05,-0.00016,-0.00054,-0.00026,-9e-05,-5e-05,-4e-05,5,29
21338,-3e-05,-8e-05,-0.00016,-0.00054,-0.00026,-9e-05,-5e-05,-4e-05,5,29
21339,-3e-05,-8e-05,-0.00016,-0.00054,-0.00026,-9e-05,-5e-05,-4e-05,5,29
21340,-3e-05,-8e-05,-0.00016,-0.00054,-0.00026,-9e-05,-5e-05,-4e-05,5,29
21341,-3e-05,-8e-05,-0.00016,-0.00054,-0.00026,-9e-05,-5e-05,-4e-05,5,29
21342,-3e-05,-8e-05,-0.00016,-0.00054,-0.00026,-9e-05,-5e-05,-4e-05,5,29
21343,-1e-05,-2e-05,-5e-05,-0.00054,-0.00023,2e-05,1e-05,2e-05,5,29
21344,0.00011,0.00017,0.00031,0.0005,0.00025,6e-05,5e-05,7e-05,5,29
21345,0.00011,0.00017,0.00031,0.0005,0.00025,6e-05,5e-05,7e-05,5,29
21346,0.00011,0.00017,0.00031,0.0005,0.00025,6e-05,5e-05,7e-05,5,29
21347,0.00011,0.00017,0.00031,0.0005,0.00025,6e-05,5e-05,7e-05,5,29
21348,0.00011,0.00017,0.00031,0.0005,0.00025,6e-05,5e-05,7e-05,5,29
21349,0.00011,0.00017,0.00031,0.0005,0.00025,6e-05,5e-05,7e-05,5,29
21350,0.00011,0.00017,0.00031,0.0005,0.00025,6e-05,5e-05,7e-05,5,29
21351,0.00011,0.00017,0.00031,0.0005,0.00025,6e-05,5e-05,7e-05,5,29
21352,0.00011,0.00017,0.00031,0.0005,0.00025,6e-05,5e-05,7e-05,5,29
21353,0.00011,0.00017,0.00031,0.0005,0.00025,6e-05,5e-05,7e-05,5,29
21354,0.00011,0.00017,0.00031,0.0005,0.00025,6e-05,5e-05,7e-05,5,29
21355,0.00011,0.00017,0.00031,0.0005,0.00025,6e-05,5e-05,7e-05,5,29
21356,0.00011,0.00017,0.00031,0.0005,0.00025,6e-05,5e-05,7e-05,5,29
21357,0.00011,0.00017,0.00031,0.0005,0.00025,6e-05,5e-05,7e-05,5,29
21358,0.00011,0.00017,0.00031,0.0005,0.00025,6e-05,5e-05,7e-05,5,29
21359,0.00011,0.00017,0.00031,0.0005,0.00025,6e-05,5e-05,7e-05,5,29
21360,0.00011,0.00017,0.00031,0.0005,0.00025,6e-05,5e-05,7e-05,5,29
21361,0.00011,0.00017,0.00031,0.0005,0.00025,6e-05,5e-05,7e-05,5,29
21362,0.00011,0.00017,0.00031,0.0005,0.00025,6e-05,5e-05,7e-05,5,29
21363,0.00011,0.00017,0.00031,0.0005,0.00025,6e-05,5e-05,7e-05,5,29
21364,0.00011,0.00017,0.00031,0.0005,0.00025,6e-05,5e-05,7e-05,5,29
21365,0.00011,0.00017,0.00031,0.0005,0.00025,6e-05,5e-05,7e-05,5,29
21366,-2e-05,4e-05,0.00017,0.001,0.00054,0.00014,8e-05,4e-05,5,29
21367,4e-05,1e-05,2e-05,2e-05,0.00014,0.00015,4e-05,5e-05,5,29
21368,4e-05,1e-05,2e-05,2e-05,0.00014,0.00015,4e-05,5e-05,5,29
21369,4e-05,1e-05,2e-05,2e-05,0.00014,0.00015,4e-05,5e-05,5,29
21370,4e-05,1e-05,2e-05,2e-05,0.00014,0.00015,4e-05,5e-05,5,29
21371,4e-05,1e-05,2e-05,2e-05,0.00014,0.00015,4e-05,5e-05,5,29
21372,4e-05,1e-05,2e-05,2e-05,0.00014,0.00015,4e-05,5e-05,5,29
21373,4e-05,1e-05,2e-05,2e-05,0.00014,0.00015,4e-05,5e-05,5,29
21374,4e-05,1e-05,2e-05,2e-05,0.00014,0.00015,4e-05,5e-05,5,29
21375,4e-05,1e-05,2e-05,2e-05,0.00014,0.00015,4e-05,5e-05,5,29
21376,4e-05,1e-05,2e-05,2e-05,0.00014,0.00015,4e-05,5e-05,5,29
21377,4e-05,1e-05,2e-05,2e-05,0.00014,0.00015,4e-05,5e-05,5,29
21378,4e-05,1e-05,2e-05,2e-05,0.00014,0.00015,4e-05,5e-05,5,29
21379,4e-05,1e-05,2e-05,2e-05,0.00014,0.00015,4e-05,5e-05,5,29
21380,3e-05,0.00012,0.00017,0.00021,0,7e-05,6e-05,0,5,29
21381,3e-05,0.00012,0.00017,0.00021,0,7e-05,6e-05,0,5,29
21382,3e-05,0.00012,0.00017,0.00021,0,7e-05,6e-05,0,5,29
21383,3e-05,0.00012,0.00017,0.00021,0,7e-05,6e-05,0,5,29
21384,3e-05,0.00012,0.00017,0.00021,0,7e-05,6e-05,0,5,29
21385,3e-05,0.00012,0.00017,0.00021,0,7e-05,6e-05,0,5,29
21386,3e-05,0.00012,0.00017,0.00021,0,7e-05,6e-05,0,5,29
21388,-3e-05,-4e-05,-0.00015,-0.00019,-0.00018,1e-05,0,-2e-05,5,29
21389,-3e-05,-4e-05,-0.00015,-0.00019,-0.00018,1e-05,0,-2e-05,5,29
21390,-3e-05,-4e-05,-0.00015,-0.00019,-0.00018,1e-05,0,-2e-05,5,29
21391,-3e-05,-4e-05,-0.00015,-0.00019,-0.00018,1e-05,0,-2e-05,5,29
21392,-3e-05,-4e-05,-0.00015,-0.00019,-0.00018,1e-05,0,-2e-05,5,29
21393,-3e-05,-4e-05,-0.00015,-0.00019,-0.00018,1e-05,0,-2e-05,5,29
21394,-3e-05,-4e-05,-0.00015,-0.00019,-0.00018,1e-05,0,-2e-05,5,29
21395,-3e-05,-4e-05,-0.00015,-0.00019,-0.00018,1e-05,0,-2e-05,5,29
21396,-3e-05,-4e-05,-0.00015,-0.00019,-0.00018,1e-05,0,-2e-05,5,29
21397,-3e-05,-4e-05,-0.00015,-0.00019,-0.00018,1e-05,0,-2e-05,5,29
21398,-3e-05,-4e-05,-0.00015,-0.00019,-0.00018,1e-05,0,-2e-05,5,29
21399,-3e-05,-4e-05,-0.00015,-0.00019,-0.00018,1e-05,0,-2e-05,5,29
21400,-3e-05,-4e-05,-0.00015,-0.00019,-0.00018,1e-05,0,-2e-05,5,29
21401,-3e-05,-4e-05,-0.00015,-0.00019,-0.00018,1e-05,0,-2e-05,5,29
21402,-3e-05,-4e-05,-0.00015,-0.00019,-0.00018,1e-05,0,-2e-05,5,29
21403,7e-05,0.0001,0.00021,0.00103,0.00041,9e-05,5e-05,4e-05,5,29
21404,0,-3e-05,-2e-05,-1e-05,-0.0002,-0.00014,-3e-05,-3e-05,5,29
21405,0,-3e-05,-2e-05,-1e-05,-0.0002,-0.00014,-3e-05,-3e-05,5,29
21406,0,-3e-05,-2e-05,-1e-05,-0.0002,-0.00014,-3e-05,-3e-05,5,29
21407,0,-3e-05,-2e-05,-1e-05,-0.0002,-0.00014,-3e-05,-3e-05,5,29
21408,0,-3e-05,-2e-05,-1e-05,-0.0002,-0.00014,-3e-05,-3e-05,5,29
21409,0,-3e-05,-2e-05,-1e-05,-0.0002,-0.00014,-3e-05,-3e-05,5,29
21410,0,-3e-05,-2e-05,-1e-05,-0.0002,-0.00014,-3e-05,-3e-05,5,29
21411,0,-3e-05,-2e-05,-1e-05,-0.0002,-0.00014,-3e-05,-3e-05,5,29
21412,0,-3e-05,-2e-05,-1e-05,-0.0002,-0.00014,-3e-05,-3e-05,5,29
21413,0,-3e-05,-2e-05,-1e-05,-0.0002,-0.00014,-3e-05,-3e-05,5,29
21414,0,-3e-05,-2e-05,-1e-05,-0.0002,-0.00014,-3e-05,-3e-05,5,29
21415,0,-3e-05,-2e-05,-1e-05,-0.0002,-0.00014,-3e-05,-3e-05,5,29
21416,0,-3e-05,-2e-05,-1e-05,-0.0002,-0.00014,-3e-05,-3e-05,5,29
21417,0,-3e-05,-2e-05,-1e-05,-0.0002,-0.00014,-3e-05,-3e-05,5,29
21418,0,-3e-05,-2e-05,-1e-05,-0.0002,-0.00014,-3e-05,-3e-05,5,29
21419,0,-3e-05,-2e-05,-1e-05,-0.0002,-0.00014,-3e-05,-3e-05,5,29
21420,0,-3e-05,-2e-05,-1e-05,-0.0002,-0.00014,-3e-05,-3e-05,5,29
21421,0,-3e-05,-2e-05,-1e-05,-0.0002,-0.00014,-3e-05,-3e-05,5,29
21422,0,-3e-05,-2e-05,-1e-05,-0.0002,-0.00014,-3e-05,-3e-05,5,29
21423,0,-3e-05,-2e-05,-1e-05,-0.0002,-0.00014,-3e-05,-3e-05,5,29
21424,0,-3e-05,-2e-05,-1e-05,-0.0002,-0.00014,-3e-05,-3e-05,5,29
21425,0,-3e-05,-2e-05,-1e-05,-0.0002,-0.00014,-3e-05,-3e-05,5,29
21426,0,-3e-05,-2e-05,-1e-05,-0.0002,-0.00014,-3e-05,-3e-05,5,29
21427,0,-3e-05,-2e-05,-1e-05,-0.0002,-0.00014,-3e-05,-3e-05,5,29
21428,3e-05,-1e-05,-3e-05,0.0002,0,0.00013,7e-05,3e-05,5,29
21429,-1e-05,-5e-05,-9e-05,0.00012,5e-05,-0.00014,-8e-05,-3e-05,5,29
21430,-1e-05,-5e-05,-9e-05,0.00012,5e-05,-0.00014,-8e-05,-3e-05,5,29
21431,-1e-05,-5e-05,-9e-05,0.00012,5e-05,-0.00014,-8e-05,-3e-05,5,29
21432,-1e-05,-5e-05,-9e-05,0.00012,5e-05,-0.00014,-8e-05,-3e-05,5,29
21433,-1e-05,-5e-05,-9e-05,0.00012,5e-05,-0.00014,-8e-05,-3e-05,5,29
21434,-1e-05,-5e-05,-9e-05,0.00012,5e-05,-0.00014,-8e-05,-3e-05,5,29
21435,-1e-05,-5e-05,-9e-05,0.00012,5e-05,-0.00014,-8e-05,-3e-05,5,29
21436,-1e-05,-5e-05,-9e-05,0.00012,5e-05,-0.00014,-8e-05,-3e-05,5,29
21438,-1e-05,-5e-05,-9e-05,0.00012,5e-05,-0.00014,-8e-05,-3e-05,5,29
21439,-1e-05,-5e-05,-9e-05,0.00012,5e-05,-0.00014,-8e-05,-3e-05,5,29
21440,-3e-05,-8e-05,3e-05,0.00018,-0.00019,-0.00014,-9e-05,-5e-05,5,29
21441,-3e-05,-8e-05,3e-05,0.00018,-0.00019,-0.00014,-9e-05,-5e-05,5,29
21442,-3e-05,-8e-05,3e-05,0.00018,-0.00019,-0.00014,-9e-05,-5e-05,5,29
21443,-3e-05,-8e-05,3e-05,0.00018,-0.00019,-0.00014,-9e-05,-5e-05,5,29
21444,-3e-05,-8e-05,3e-05,0.00018,-0.00019,-0.00014,-9e-05,-5e-05,5,29
21445,-3e-05,-8e-05,3e-05,0.00018,-0.00019,-0.00014,-9e-05,-5e-05,5,29
21446,-3e-05,-8e-05,3e-05,0.00018,-0.00019,-0.00014,-9e-05,-5e-05,5,29
21447,-3e-05,-8e-05,3e-05,0.00018,-0.00019,-0.00014,-9e-05,-5e-05,5,29
21448,-1e-05,-8e-05,3e-05,3e-05,-0.00028,-0.00013,-5e-05,-3e-05,5,29
21449,-1e-05,-8e-05,3e-05,3e-05,-0.00028,-0.00013,-5e-05,-3e-05,5,29
21450,-1e-05,-8e-05,3e-05,3e-05,-0.00028,-0.00013,-5e-05,-3e-05,5,29
21451,-1e-05,-8e-05,3e-05,3e-05,-0.00028,-0.00013,-5e-05,-3e-05,5,29
21452,-1e-05,-8e-05,3e-05,3e-05,-0.00028,-0.00013,-5e-05,-3e-05,5,29
21453,-1e-05,-8e-05,3e-05,3e-05,-0.00028,-0.00013,-5e-05,-3e-05,5,29
21454,-1e-05,-8e-05,3e-05,3e-05,-0.00028,-0.00013,-5e-05,-3e-05,5,29
21455,-1e-05,-8e-05,3e-05,3e-05,-0.00028,-0.00013,-5e-05,-3e-05,5,29
21456,-1e-05,-8e-05,3e-05,3e-05,-0.00028,-0.00013,-5e-05,-3e-05,5,29
21457,-1e-05,-8e-05,3e-05,3e-05,-0.00028,-0.00013,-5e-05,-3e-05,5,29
21458,-1e-05,-8e-05,3e-05,3e-05,-0.00028,-0.00013,-5e-05,-3e-05,5,29
21459,-1e-05,-8e-05,3e-05,3e-05,-0.00028,-0.00013,-5e-05,-3e-05,5,29
21460,-1e-05,-8e-05,3e-05,3e-05,-0.00028,-0.00013,-5e-05,-3e-05,5,29
21461,-1e-05,-8e-05,3e-05,3e-05,-0.00028,-0.00013,-5e-05,-3e-05,5,29
21462,-1e-05,-8e-05,3e-05,3e-05,-0.00028,-0.00013,-5e-05,-3e-05,5,29
21463,-1e-05,-8e-05,3e-05,3e-05,-0.00028,-0.00013,-5e-05,-3e-05,5,29
21464,-9e-05,-0.00012,-0.00011,-0.00045,-0.00033,-0.00011,-7e-05,-8e-05,5,29
21465,-9e-05,-0.00012,-0.00011,-0.00045,-0.00033,-0.00011,-7e-05,-8e-05,5,29
21467,-9e-05,-0.00012,-0.00011,-0.00045,-0.00033,-0.00011,-7e-05,-8e-05,5,29
21468,-9e-05,-0.00012,-0.00011,-0.00045,-0.00033,-0.00011,-7e-05,-8e-05,5,29
21469,-9e-05,-0.00012,-0.00011,-0.00045,-0.00033,-0.00011,-7e-05,-8e-05,5,29
21470,-9e-05,-0.00012,-0.00011,-0.00045,-0.00033,-0.00011,-7e-05,-8e-05,5,29
21471,-9e-05,-0.00012,-0.00011,-0.00045,-0.00033,-0.00011,-7e-05,-8e-05,5,29
21472,-9e-05,-0.00012,-0.00011,-0.00045,-0.00033,-0.00011,-7e-05,-8e-05,5,29
21473,-9e-05,-0.00012,-0.00011,-0.00045,-0.00033,-0.00011,-7e-05,-8e-05,5,29
21474,-9e-05,-0.00012,-0.00011,-0.00045,-0.00033,-0.00011,-7e-05,-8e-05,5,29
21475,-9e-05,-0.00012,-0.00011,-0.00045,-0.00033,-0.00011,-7e-05,-8e-05,5,29
21476,-9e-05,-0.00012,-0.00011,-0.00045,-0.00033,-0.00011,-7e-05,-8e-05,5,29
21477,-9e-05,-0.00012,-0.00011,-0.00045,-0.00033,-0.00011,-7e-05,-8e-05,5,29
21478,-9e-05,-0.00012,-0.00011,-0.00045,-0.00033,-0.00011,-7e-05,-8e-05,5,29
21479,-9e-05,-0.00012,-0.00011,-0.00045,-0.00033,-0.00011,-7e-05,-8e-05,5,29
21480,-9e-05,-0.00012,-0.00011,-0.00045,-0.00033,-0.00011,-7e-05,-8e-05,5,29
21481,-9e-05,-0.00012,-0.00011,-0.00045,-0.00033,-0.00011,-7e-05,-8e-05,5,29
21482,-9e-05,-0.00012,-0.00011,-0.00045,-0.00033,-0.00011,-7e-05,-8e-05,5,29
21483,-9e-05,-0.00012,-0.00011,-0.00045,-0.00033,-0.00011,-7e-05,-8e-05,5,29
21484,-9e-05,-0.00012,-0.00011,-0.00045,-0.00033,-0.00011,-7e-05,-8e-05,5,29
21485,0.00022,9e-05,0.0001,0.00046,6e-05,3e-05,4e-05,0.00016,5,29
21486,0.00023,4e-05,-5e-05,-0.00013,-0.00013,-5e-05,0,0.00025,5,29
21488,0.00023,4e-05,-5e-05,-0.00013,-0.00013,-5e-05,0,0.00025,5,29
21489,0.00023,4e-05,-5e-05,-0.00013,-0.00013,-5e-05,0,0.00025,5,29
21490,0.00023,4e-05,-5e-05,-0.00013,-0.00013,-5e-05,0,0.00025,5,29
21491,0.00023,4e-05,-5e-05,-0.00013,-0.00013,-5e-05,0,0.00025,5,29
21492,0.00023,4e-05,-5e-05,-0.00013,-0.00013,-5e-05,0,0.00025,5,29
21493,-0.00027,-0.00011,-0.00027,-0.00089,-0.00022,-0.0002,-0.00013,-0.00021,5,29
21494,-0.00027,-0.00011,-0.00027,-0.00089,-0.00022,-0.0002,-0.00013,-0.00021,5,29
21495,-0.00027,-0.00011,-0.00027,-0.00089,-0.00022,-0.0002,-0.00013,-0.00021,5,29
21496,-0.00027,-0.00011,-0.00027,-0.00089,-0.00022,-0.0002,-0.00013,-0.00021,5,29
21497,-0.00027,-0.00011,-0.00027,-0.00089,-0.00022,-0.0002,-0.00013,-0.00021,5,29
21498,-0.00027,-0.00011,-0.00027,-0.00089,-0.00022,-0.0002,-0.00013,-0.00021,5,29
21499,-0.00027,-0.00011,-0.00027,-0.00089,-0.00022,-0.0002,-0.00013,-0.00021,5,29
21500,-4e-05,-2e-05,-8e-05,-8e-05,0.00011,6e-05,2e-05,0,5,29
21501,-4e-05,-2e-05,-8e-05,-8e-05,0.00011,6e-05,2e-05,0,5,29
21502,-4e-05,-2e-05,-8e-05,-8e-05,0.00011,6e-05,2e-05,0,5,29
21503,-4e-05,-2e-05,-8e-05,-8e-05,0.00011,6e-05,2e-05,0,5,29
21504,-4e-05,-2e-05,-8e-05,-8e-05,0.00011,6e-05,2e-05,0,5,29
21505,-4e-05,-2e-05,-8e-05,-8e-05,0.00011,6e-05,2e-05,0,5,29
21506,-4e-05,-2e-05,-8e-05,-8e-05,0.00011,6e-05,2e-05,0,5,29
21507,-4e-05,-2e-05,-8e-05,-8e-05,0.00011,6e-05,2e-05,0,5,29
21508,0,8e-05,0.00019,0.00083,0.00062,0.00025,9e-05,7e-05,5,29
21509,0,8e-05,0.00019,0.00083,0.00062,0.00025,9e-05,7e-05,5,29
21510,0,8e-05,0.00019,0.00083,0.00062,0.00025,9e-05,7e-05,5,29
21511,0,8e-05,0.00019,0.00083,0.00062,0.00025,9e-05,7e-05,5,29
21512,0,8e-05,0.00019,0.00083,0.00062,0.00025,9e-05,7e-05,5,29
21513,0,8e-05,0.00019,0.00083,0.00062,0.00025,9e-05,7e-05,5,29
21514,0,8e-05,0.00019,0.00083,0.00062,0.00025,9e-05,7e-05,5,29
21515,0,8e-05,0.00019,0.00083,0.00062,0.00025,9e-05,7e-05,5,29
21516,0,8e-05,0.00019,0.00083,0.00062,0.00025,9e-05,7e-05,5,29
21517,0,8e-05,0.00019,0.00083,0.00062,0.00025,9e-05,7e-05,5,29
21518,0,8e-05,0.00019,0.00083,0.00062,0.00025,9e-05,7e-05,5,29
21519,0,8e-05,0.00019,0.00083,0.00062,0.00025,9e-05,7e-05,5,29
21520,0,8e-05,0.00019,0.00083,0.00062,0.00025,9e-05,7e-05,5,29
21521,0,8e-05,0.00019,0.00083,0.00062,0.00025,9e-05,7e-05,5,29
21522,0,8e-05,0.00019,0.00083,0.00062,0.00025,9e-05,7e-05,5,29
21523,0,8e-05,0.00019,0.00083,0.00062,0.00025,9e-05,7e-05,5,29
21524,-3e-05,-7e-05,-8e-05,-0.00023,0.00016,-8e-05,-8e-05,-1e-05,5,29
21525,1e-05,6e-05,5e-05,0.00021,-0.00015,-4e-05,1e-05,1e-05,5,29
21526,1e-05,6e-05,5e-05,0.00021,-0.00015,-4e-05,1e-05,1e-05,5,29
21527,1e-05,6e-05,5e-05,0.00021,-0.00015,-4e-05,1e-05,1e-05,5,29
21528,1e-05,6e-05,5e-05,0.00021,-0.00015,-4e-05,1e-05,1e-05,5,29
21529,1e-05,6e-05,5e-05,0.00021,-0.00015,-4e-05,1e-05,1e-05,5,29
21530,1e-05,6e-05,5e-05,0.00021,-0.00015,-4e-05,1e-05,1e-05,5,29
21531,1e-05,6e-05,5e-05,0.00021,-0.00015,-4e-05,1e-05,1e-05,5,29
21532,1e-05,6e-05,5e-05,0.00021,-0.00015,-4e-05,1e-05,1e-05,5,29
21533,1e-05,6e-05,5e-05,0.00021,-0.00015,-4e-05,1e-05,1e-05,5,29
21534,1e-05,6e-05,5e-05,0.00021,-0.00015,-4e-05,1e-05,1e-05,5,29
21535,1e-05,6e-05,5e-05,0.00021,-0.00015,-4e-05,1e-05,1e-05,5,29
21536,1e-05,6e-05,5e-05,0.00021,-0.00015,-4e-05,1e-05,1e-05,5,29
21538,1e-05,6e-05,5e-05,0.00021,-0.00015,-4e-05,1e-05,1e-05,5,29
21539,1e-05,6e-05,5e-05,0.00021,-0.00015,-4e-05,1e-05,1e-05,5,29
21540,1e-05,6e-05,5e-05,0.00021,-0.00015,-4e-05,1e-05,1e-05,5,29
21541,1e-05,6e-05,5e-05,0.00021,-0.00015,-4e-05,1e-05,1e-05,5,29
21542,1e-05,6e-05,5e-05,0.00021,-0.00015,-4e-05,1e-05,1e-05,5,29
21543,1e-05,6e-05,5e-05,0.00021,-0.00015,-4e-05,1e-05,1e-05,5,29
21544,1e-05,6e-05,5e-05,0.00021,-0.00015,-4e-05,1e-05,1e-05,5,29
21545,1e-05,6e-05,5e-05,0.00021,-0.00015,-4e-05,1e-05,1e-05,5,29
21546,-7e-05,3e-05,0.00015,0.00014,-0.00017,3e-05,-3e-05,-0.0001,5,29
21547,5e-05,1e-05,0.00012,0.00036,-3e-05,5e-05,1e-05,0.00013,5,29
21548,5e-05,1e-05,0.00012,0.00036,-3e-05,5e-05,1e-05,0.00013,5,29
21549,5e-05,1e-05,0.00012,0.00036,-3e-05,5e-05,1e-05,0.00013,5,29
21550,5e-05,1e-05,0.00012,0.00036,-3e-05,5e-05,1e-05,0.00013,5,29
21551,5e-05,1e-05,0.00012,0.00036,-3e-05,5e-05,1e-05,0.00013,5,29
21552,5e-05,1e-05,0.00012,0.00036,-3e-05,5e-05,1e-05,0.00013,5,29
21553,5e-05,1e-05,0.00012,0.00036,-3e-05,5e-05,1e-05,0.00013,5,29
21554,5e-05,1e-05,0.00012,0.00036,-3e-05,5e-05,1e-05,0.00013,5,29
21555,5e-05,1e-05,0.00012,0.00036,-3e-05,5e-05,1e-05,0.00013,5,29
21556,5e-05,1e-05,0.00012,0.00036,-3e-05,5e-05,1e-05,0.00013,5,29
21557,5e-05,1e-05,0.00012,0.00036,-3e-05,5e-05,1e-05,0.00013,5,29
21558,5e-05,1e-05,0.00012,0.00036,-3e-05,5e-05,1e-05,0.00013,5,29
21559,5e-05,1e-05,0.00012,0.00036,-3e-05,5e-05,1e-05,0.00013,5,29
21560,-0.00016,-4e-05,-0.00014,-0.00031,-7e-05,-0.0001,-5e-05,-0.00011,5,29
21561,-0.00016,-4e-05,-0.00014,-0.00031,-7e-05,-0.0001,-5e-05,-0.00011,5,29
21562,-0.00016,-4e-05,-0.00014,-0.00031,-7e-05,-0.0001,-5e-05,-0.00011,5,29
21563,-0.00016,-4e-05,-0.00014,-0.00031,-7e-05,-0.0001,-5e-05,-0.00011,5,29
21564,-0.00016,-4e-05,-0.00014,-0.00031,-7e-05,-0.0001,-5e-05,-0.00011,5,29
21565,-0.00016,-4e-05,-0.00014,-0.00031,-7e-05,-0.0001,-5e-05,-0.00011,5,29
21566,-0.00016,-4e-05,-0.00014,-0.00031,-7e-05,-0.0001,-5e-05,-0.00011,5,29
21567,-0.00016,-4e-05,-0.00014,-0.00031,-7e-05,-0.0001,-5e-05,-0.00011,5,29
21568,-6e-05,-0.00013,-0.0002,-0.00065,-4e-05,-0.00012,-6e-05,-5e-05,5,29
21569,-6e-05,-0.00013,-0.0002,-0.00065,-4e-05,-0.00012,-6e-05,-5e-05,5,29
21570,-6e-05,-0.00013,-0.0002,-0.00065,-4e-05,-0.00012,-6e-05,-5e-05,5,29
21571,-6e-05,-0.00013,-0.0002,-0.00065,-4e-05,-0.00012,-6e-05,-5e-05,5,29
21572,-6e-05,-0.00013,-0.0002,-0.00065,-4e-05,-0.00012,-6e-05,-5e-05,5,29
21573,-6e-05,-0.00013,-0.0002,-0.00065,-4e-05,-0.00012,-6e-05,-5e-05,5,29
21574,-6e-05,-0.00013,-0.0002,-0.00065,-4e-05,-0.00012,-6e-05,-5e-05,5,29
21575,-6e-05,-0.00013,-0.0002,-0.00065,-4e-05,-0.00012,-6e-05,-5e-05,5,29
21576,-6e-05,-0.00013,-0.0002,-0.00065,-4e-05,-0.00012,-6e-05,-5e-05,5,29
21577,-6e-05,-0.00013,-0.0002,-0.00065,-4e-05,-0.00012,-6e-05,-5e-05,5,29
21578,-6e-05,-0.00013,-0.0002,-0.00065,-4e-05,-0.00012,-6e-05,-5e-05,5,29
21579,-6e-05,-0.00013,-0.0002,-0.00065,-4e-05,-0.00012,-6e-05,-5e-05,5,29
21580,-6e-05,-0.00013,-0.0002,-0.00065,-4e-05,-0.00012,-6e-05,-5e-05,5,29
21581,-6e-05,-0.00013,-0.0002,-0.00065,-4e-05,-0.00012,-6e-05,-5e-05,5,29
21582,-6e-05,-0.00013,-0.0002,-0.00065,-4e-05,-0.00012,-6e-05,-5e-05,5,29
21583,-6e-05,-0.00013,-0.0002,-0.00065,-4e-05,-0.00012,-6e-05,-5e-05,5,29
21584,8e-05,-4e-05,0,0.0005,0.0003,1e-05,-2e-05,8e-05,5,29
21585,2e-05,-5e-05,-9e-05,-0.00015,-0.00032,0,1e-05,-1e-05,5,29
21586,2e-05,-5e-05,-9e-05,-0.00015,-0.00032,0,1e-05,-1e-05,5,29
21588,2e-05,-5e-05,-9e-05,-0.00015,-0.00032,0,1e-05,-1e-05,5,29
21589,2e-05,-5e-05,-9e-05,-0.00015,-0.00032,0,1e-05,-1e-05,5,29
21590,2e-05,-5e-05,-9e-05,-0.00015,-0.00032,0,1e-05,-1e-05,5,29
21591,2e-05,-5e-05,-9e-05,-0.00015,-0.00032,0,1e-05,-1e-05,5,29
21592,2e-05,-5e-05,-9e-05,-0.00015,-0.00032,0,1e-05,-1e-05,5,29
21593,2e-05,-5e-05,-9e-05,-0.00015,-0.00032,0,1e-05,-1e-05,5,29
21594,2e-05,-5e-05,-9e-05,-0.00015,-0.00032,0,1e-05,-1e-05,5,29
21595,2e-05,-5e-05,-9e-05,-0.00015,-0.00032,0,1e-05,-1e-05,5,29
21596,2e-05,-5e-05,-9e-05,-0.00015,-0.00032,0,1e-05,-1e-05,5,29
21597,2e-05,-5e-05,-9e-05,-0.00015,-0.00032,0,1e-05,-1e-05,5,29
21598,2e-05,-5e-05,-9e-05,-0.00015,-0.00032,0,1e-05,-1e-05,5,29
21599,2e-05,-5e-05,-9e-05,-0.00015,-0.00032,0,1e-05,-1e-05,5,29
21600,2e-05,-5e-05,-9e-05,-0.00015,-0.00032,0,1e-05,-1e-05,5,29
21601,2e-05,-5e-05,-9e-05,-0.00015,-0.00032,0,1e-05,-1e-05,5,29
21602,2e-05,-5e-05,-9e-05,-0.00015,-0.00032,0,1e-05,-1e-05,5,29
21603,2e-05,-5e-05,-9e-05,-0.00015,-0.00032,0,1e-05,-1e-05,5,29
21604,2e-05,-5e-05,-9e-05,-0.00015,-0.00032,0,1e-05,-1e-05,5,29
21605,2e-05,-5e-05,-9e-05,-0.00015,-0.00032,0,1e-05,-1e-05,5,29
21606,0.00013,4e-05,0.0001,0.00039,0.00021,0,2e-05,9e-05,5,29
21607,6e-05,5e-05,3e-05,-0.00035,0.00029,3e-05,2e-05,4e-05,5,29
21608,6e-05,5e-05,3e-05,-0.00035,0.00029,3e-05,2e-05,4e-05,5,29
21609,6e-05,5e-05,3e-05,-0.00035,0.00029,3e-05,2e-05,4e-05,5,29
21610,6e-05,5e-05,3e-05,-0.00035,0.00029,3e-05,2e-05,4e-05,5,29
21611,6e-05,5e-05,3e-05,-0.00035,0.00029,3e-05,2e-05,4e-05,5,29
21612,6e-05,5e-05,3e-05,-0.00035,0.00029,3e-05,2e-05,4e-05,5,29
21613,6e-05,5e-05,3e-05,-0.00035,0.00029,3e-05,2e-05,4e-05,5,29
21614,6e-05,5e-05,3e-05,-0.00035,0.00029,3e-05,2e-05,4e-05,5,29
21615,6e-05,5e-05,3e-05,-0.00035,0.00029,3e-05,2e-05,4e-05,5,29
21616,6e-05,5e-05,3e-05,-0.00035,0.00029,3e-05,2e-05,4e-05,5,29
21617,6e-05,5e-05,3e-05,-0.00035,0.00029,3e-05,2e-05,4e-05,5,29
21618,6e-05,5e-05,3e-05,-0.00035,0.00029,3e-05,2e-05,4e-05,5,29
21619,6e-05,5e-05,3e-05,-0.00035,0.00029,3e-05,2e-05,4e-05,5,29
21620,6e-05,5e-05,3e-05,-0.00035,0.00029,3e-05,2e-05,4e-05,5,29
21621,6e-05,5e-05,3e-05,-0.00035,0.00029,3e-05,2e-05,4e-05,5,29
21622,6e-05,5e-05,3e-05,-0.00035,0.00029,3e-05,2e-05,4e-05,5,29
21623,6e-05,5e-05,3e-05,-0.00035,0.00029,3e-05,2e-05,4e-05,5,29
21624,6e-05,5e-05,3e-05,-0.00035,0.00029,3e-05,2e-05,4e-05,5,29
21625,6e-05,5e-05,3e-05,-0.00035,0.00029,3e-05,2e-05,4e-05,5,29
21626,6e-05,5e-05,3e-05,-0.00035,0.00029,3e-05,2e-05,4e-05,5,29
21627,6e-05,5e-05,3e-05,-0.00035,0.00029,3e-05,2e-05,4e-05,5,29
21628,6e-05,5e-05,3e-05,-0.00035,0.00029,3e-05,2e-05,4e-05,5,29
21629,-3e-05,-1e-05,-4e-05,-1e-05,-4e-05,-3e-05,-6e-05,-9e-05,5,29
21630,-2e-05,-1e-05,3e-05,0.00044,0.00044,0.00013,8e-05,6e-05,5,29
21631,-2e-05,-1e-05,3e-05,0.00044,0.00044,0.00013,8e-05,6e-05,5,29
21632,-2e-05,-1e-05,3e-05,0.00044,0.00044,0.00013,8e-05,6e-05,5,29
21633,-2e-05,-1e-05,3e-05,0.00044,0.00044,0.00013,8e-05,6e-05,5,29
21634,-2e-05,-1e-05,3e-05,0.00044,0.00044,0.00013,8e-05,6e-05,5,29
21635,-2e-05,-1e-05,3e-05,0.00044,0.00044,0.00013,8e-05,6e-05,5,29
21636,-2e-05,-1e-05,3e-05,0.00044,0.00044,0.00013,8e-05,6e-05,5,29
21638,-2e-05,-1e-05,3e-05,0.00044,0.00044,0.00013,8e-05,6e-05,5,29
21639,-2e-05,-1e-05,3e-05,0.00044,0.00044,0.00013,8e-05,6e-05,5,29
21640,-2e-05,-1e-05,3e-05,0.00044,0.00044,0.00013,8e-05,6e-05,5,29
21641,-2e-05,-1e-05,3e-05,0.00044,0.00044,0.00013,8e-05,6e-05,5,29
21642,-2e-05,-1e-05,3e-05,0.00044,0.00044,0.00013,8e-05,6e-05,5,29
21643,-2e-05,-1e-05,3e-05,0.00044,0.00044,0.00013,8e-05,6e-05,5,29
21644,1e-05,-4e-05,-9e-05,-0.00024,-0.00021,-7e-05,-4e-05,-7e-05,5,29
21645,6e-05,5e-05,0.00016,0.00045,6e-05,8e-05,5e-05,6e-05,5,29
21646,6e-05,5e-05,0.00016,0.00045,6e-05,8e-05,5e-05,6e-05,5,29
21647,6e-05,5e-05,0.00016,0.00045,6e-05,8e-05,5e-05,6e-05,5,29
21648,6e-05,5e-05,0.00016,0.00045,6e-05,8e-05,5e-05,6e-05,5,29
21649,6e-05,5e-05,0.00016,0.00045,6e-05,8e-05,5e-05,6e-05,5,29
21650,6e-05,5e-05,0.00016,0.00045,6e-05,8e-05,5e-05,6e-05,5,29
21651,6e-05,5e-05,0.00016,0.00045,6e-05,8e-05,5e-05,6e-05,5,29
21652,6e-05,5e-05,0.00016,0.00045,6e-05,8e-05,5e-05,6e-05,5,29
21653,6e-05,5e-05,0.00016,0.00045,6e-05,8e-05,5e-05,6e-05,5,29
21654,6e-05,5e-05,0.00016,0.00045,6e-05,8e-05,5e-05,6e-05,5,29
21655,6e-05,5e-05,0.00016,0.00045,6e-05,8e-05,5e-05,6e-05,5,29
21656,6e-05,5e-05,0.00016,0.00045,6e-05,8e-05,5e-05,6e-05,5,29
21657,6e-05,5e-05,0.00016,0.00045,6e-05,8e-05,5e-05,6e-05,5,29
21658,6e-05,5e-05,0.00016,0.00045,6e-05,8e-05,5e-05,6e-05,5,29
21659,6e-05,5e-05,0.00016,0.00045,6e-05,8e-05,5e-05,6e-05,5,29
21660,6e-05,5e-05,0.00016,0.00045,6e-05,8e-05,5e-05,6e-05,5,29
21661,6e-05,5e-05,0.00016,0.00045,6e-05,8e-05,5e-05,6e-05,5,29
21662,6e-05,5e-05,0.00016,0.00045,6e-05,8e-05,5e-05,6e-05,5,29
21663,6e-05,5e-05,0.00016,0.00045,6e-05,8e-05,5e-05,6e-05,5,29
21664,6e-05,5e-05,0.00016,0.00045,6e-05,8e-05,5e-05,6e-05,5,29
21665,6e-05,5e-05,0.00016,0.00045,6e-05,8e-05,5e-05,6e-05,5,29
21666,-0.00023,-0.0001,-0.00011,-9e-05,-0.00022,-4e-05,-8e-05,-0.00024,5,29
21667,0,0,-1e-05,-0.00015,-0.00041,-5e-05,-3e-05,0,5,29
21668,0,0,-1e-05,-0.00015,-0.00041,-5e-05,-3e-05,0,5,29
21669,0,0,-1e-05,-0.00015,-0.00041,-5e-05,-3e-05,0,5,29
21670,0,0,-1e-05,-0.00015,-0.00041,-5e-05,-3e-05,0,5,29
21671,0,0,-1e-05,-0.00015,-0.00041,-5e-05,-3e-05,0,5,29
21672,0,0,-1e-05,-0.00015,-0.00041,-5e-05,-3e-05,0,5,29
21673,0,0,-1e-05,-0.00015,-0.00041,-5e-05,-3e-05,0,5,29
21674,0,0,-1e-05,-0.00015,-0.00041,-5e-05,-3e-05,0,5,29
21675,0,0,-1e-05,-0.00015,-0.00041,-5e-05,-3e-05,0,5,29
21676,0,0,-1e-05,-0.00015,-0.00041,-5e-05,-3e-05,0,5,29
21677,0,0,-1e-05,-0.00015,-0.00041,-5e-05,-3e-05,0,5,29
21678,0,0,-1e-05,-0.00015,-0.00041,-5e-05,-3e-05,0,5,29
21679,0,0,-1e-05,-0.00015,-0.00041,-5e-05,-3e-05,0,5,29
21680,0,0,-1e-05,-0.00015,-0.00041,-5e-05,-3e-05,0,5,29
21681,0,0,-1e-05,-0.00015,-0.00041,-5e-05,-3e-05,0,5,29
21682,0,0,-1e-05,-0.00015,-0.00041,-5e-05,-3e-05,0,5,29
21683,0,0,-1e-05,-0.00015,-0.00041,-5e-05,-3e-05,0,5,29
21684,0,0,-1e-05,-0.00015,-0.00041,-5e-05,-3e-05,0,5,29
21685,0,0,-1e-05,-0.00015,-0.00041,-5e-05,-3e-05,0,5,29
21686,0,0,-1e-05,-0.00015,-0.00041,-5e-05,-3e-05,0,5,29
21688,0,0,-1e-05,-0.00015,-0.00041,-5e-05,-3e-05,0,5,29
21689,3e-05,5e-05,7e-05,0.00021,8e-05,-2e-05,-3e-05,3e-05,5,29
21690,6e-05,5e-05,5e-05,8e-05,-0.0001,-8e-05,-4e-05,-4e-05,5,29
21691,6e-05,5e-05,5e-05,8e-05,-0.0001,-8e-05,-4e-05,-4e-05,5,29
21692,6e-05,5e-05,5e-05,8e-05,-0.0001,-8e-05,-4e-05,-4e-05,5,29
21693,6e-05,5e-05,5e-05,8e-05,-0.0001,-8e-05,-4e-05,-4e-05,5,29
21694,6e-05,5e-05,5e-05,8e-05,-0.0001,-8e-05,-4e-05,-4e-05,5,29
21695,6e-05,5e-05,5e-05,8e-05,-0.0001,-8e-05,-4e-05,-4e-05,5,29
21696,6e-05,5e-05,5e-05,8e-05,-0.0001,-8e-05,-4e-05,-4e-05,5,29
21697,6e-05,5e-05,5e-05,8e-05,-0.0001,-8e-05,-4e-05,-4e-05,5,29
21698,6e-05,5e-05,5e-05,8e-05,-0.0001,-8e-05,-4e-05,-4e-05,5,29
21699,6e-05,5e-05,5e-05,8e-05,-0.0001,-8e-05,-4e-05,-4e-05,5,29
21700,6e-05,5e-05,5e-05,8e-05,-0.0001,-8e-05,-4e-05,-4e-05,5,29
21701,6e-05,5e-05,5e-05,8e-05,-0.0001,-8e-05,-4e-05,-4e-05,5,29
21702,-5e-05,-7e-05,-0.00011,-0.00045,9e-05,5e-05,1e-05,-5e-05,5,29
21703,-3e-05,-5e-05,-2e-05,0.00021,-3e-05,-6e-05,-5e-05,0,5,29
21704,-3e-05,-5e-05,-2e-05,0.00021,-3e-05,-6e-05,-5e-05,0,5,29
21705,-3e-05,-5e-05,-2e-05,0.00021,-3e-05,-6e-05,-5e-05,0,5,29
21706,-3e-05,-5e-05,-2e-05,0.00021,-3e-05,-6e-05,-5e-05,0,5,29
21707,-3e-05,-5e-05,-2e-05,0.00021,-3e-05,-6e-05,-5e-05,0,5,29
21708,-3e-05,-5e-05,-2e-05,0.00021,-3e-05,-6e-05,-5e-05,0,5,29
21709,-3e-05,-5e-05,-2e-05,0.00021,-3e-05,-6e-05,-5e-05,0,5,29
21710,-3e-05,-5e-05,-2e-05,0.00021,-3e-05,-6e-05,-5e-05,0,5,29
21711,6e-05,2e-05,-2e-05,-3e-05,3e-05,0,-1e-05,2e-05,5,29
21712,6e-05,2e-05,-2e-05,-3e-05,3e-05,0,-1e-05,2e-05,5,29
21713,6e-05,2e-05,-2e-05,-3e-05,3e-05,0,-1e-05,2e-05,5,29
21714,6e-05,2e-05,-2e-05,-3e-05,3e-05,0,-1e-05,2e-05,5,29
21715,6e-05,2e-05,-2e-05,-3e-05,3e-05,0,-1e-05,2e-05,5,29
21716,6e-05,2e-05,-2e-05,-3e-05,3e-05,0,-1e-05,2e-05,5,29
21717,6e-05,2e-05,-2e-05,-3e-05,3e-05,0,-1e-05,2e-05,5,29
21718,6e-05,2e-05,-2e-05,-3e-05,3e-05,0,-1e-05,2e-05,5,29
21719,6e-05,2e-05,-2e-05,-3e-05,3e-05,0,-1e-05,2e-05,5,29
21720,6e-05,2e-05,-2e-05,-3e-05,3e-05,0,-1e-05,2e-05,5,29
21721,6e-05,2e-05,-2e-05,-3e-05,3e-05,0,-1e-05,2e-05,5,29
21722,6e-05,2e-05,-2e-05,-3e-05,3e-05,0,-1e-05,2e-05,5,29
21723,6e-05,2e-05,-2e-05,-3e-05,3e-05,0,-1e-05,2e-05,5,29
21724,6e-05,2e-05,-2e-05,-3e-05,3e-05,0,-1e-05,2e-05,5,29
21725,6e-05,2e-05,-2e-05,-3e-05,3e-05,0,-1e-05,2e-05,5,29
21726,-8e-05,-9e-05,-1e-05,-0.0008,-0.00022,-3e-05,4e-05,0,5,29
21727,-8e-05,-9e-05,-1e-05,-0.0008,-0.00022,-3e-05,4e-05,0,5,29
21728,-2e-05,0,-5e-05,-0.00039,-0.00027,0.00012,2e-05,-4e-05,5,29
21729,-2e-05,0,-5e-05,-0.00039,-0.00027,0.00012,2e-05,-4e-05,5,29
21730,-2e-05,0,-5e-05,-0.00039,-0.00027,0.00012,2e-05,-4e-05,5,29
21731,-2e-05,0,-5e-05,-0.00039,-0.00027,0.00012,2e-05,-4e-05,5,29
21732,-2e-05,0,-5e-05,-0.00039,-0.00027,0.00012,2e-05,-4e-05,5,29
21733,-2e-05,0,-5e-05,-0.00039,-0.00027,0.00012,2e-05,-4e-05,5,29
21734,-2e-05,0,-5e-05,-0.00039,-0.00027,0.00012,2e-05,-4e-05,5,29
21735,-2e-05,0,-5e-05,-0.00039,-0.00027,0.00012,2e-05,-4e-05,5,29
21736,-2e-05,0,-5e-05,-0.00039,-0.00027,0.00012,2e-05,-4e-05,5,29
21738,-2e-05,0,-5e-05,-0.00039,-0.00027,0.00012,2e-05,-4e-05,5,29
21739,-2e-05,0,-5e-05,-0.00039,-0.00027,0.00012,2e-05,-4e-05,5,29
21740,-2e-05,0,-5e-05,-0.00039,-0.00027,0.00012,2e-05,-4e-05,5,29
21741,-2e-05,0,-5e-05,-0.00039,-0.00027,0.00012,2e-05,-4e-05,5,29
21742,-2e-05,0,-5e-05,-0.00039,-0.00027,0.00012,2e-05,-4e-05,5,29
21743,-2e-05,0,-5e-05,-0.00039,-0.00027,0.00012,2e-05,-4e-05,5,29
21744,-2e-05,0,-5e-05,-0.00039,-0.00027,0.00012,2e-05,-4e-05,5,29
21745,-2e-05,0,-5e-05,-0.00039,-0.00027,0.00012,2e-05,-4e-05,5,29
21746,-2e-05,0,-5e-05,-0.00039,-0.00027,0.00012,2e-05,-4e-05,5,29
21747,-2e-05,0,-5e-05,-0.00039,-0.00027,0.00012,2e-05,-4e-05,5,29
21748,-2e-05,0,-5e-05,-0.00039,-0.00027,0.00012,2e-05,-4e-05,5,29
21749,-2e-05,0,-5e-05,-0.00039,-0.00027,0.00012,2e-05,-4e-05,5,29
21750,-2e-05,0,-5e-05,-0.00039,-0.00027,0.00012,2e-05,-4e-05,5,29
21751,-2e-05,0,-5e-05,-0.00039,-0.00027,0.00012,2e-05,-4e-05,5,29
21752,-2e-05,0,-5e-05,-0.00039,-0.00027,0.00012,2e-05,-4e-05,5,29
21753,-2e-05,0,-5e-05,-0.00039,-0.00027,0.00012,2e-05,-4e-05,5,29
21754,-2e-05,0,-5e-05,-0.00039,-0.00027,0.00012,2e-05,-4e-05,5,29
21755,-2e-05,0,-5e-05,-0.00039,-0.00027,0.00012,2e-05,-4e-05,5,29
21756,4e-05,-5e-05,-9e-05,-0.00023,5e-05,-3e-05,-5e-05,1e-05,5,29
21757,4e-05,-5e-05,-9e-05,-0.00023,5e-05,-3e-05,-5e-05,1e-05,5,29
21758,-2e-05,0,6e-05,0.0006,0.00017,5e-05,0,-4e-05,5,29
21759,-2e-05,0,6e-05,0.0006,0.00017,5e-05,0,-4e-05,5,29
21760,-2e-05,0,6e-05,0.0006,0.00017,5e-05,0,-4e-05,5,29
21761,-2e-05,0,6e-05,0.0006,0.00017,5e-05,0,-4e-05,5,29
21762,-2e-05,0,6e-05,0.0006,0.00017,5e-05,0,-4e-05,5,29
21763,-2e-05,0,6e-05,0.0006,0.00017,5e-05,0,-4e-05,5,29
21764,-2e-05,0,6e-05,0.0006,0.00017,5e-05,0,-4e-05,5,29
21765,-2e-05,0,6e-05,0.0006,0.00017,5e-05,0,-4e-05,5,29
21766,-2e-05,0,6e-05,0.0006,0.00017,5e-05,0,-4e-05,5,29
21767,-2e-05,0,6e-05,0.0006,0.00017,5e-05,0,-4e-05,5,29
21768,-2e-05,0,6e-05,0.0006,0.00017,5e-05,0,-4e-05,5,29
21769,-2e-05,0,6e-05,0.0006,0.00017,5e-05,0,-4e-05,5,29
21770,-2e-05,0,6e-05,0.0006,0.00017,5e-05,0,-4e-05,5,29
21771,-0.00013,1e-05,-6e-05,0.00027,0.00021,8e-05,3e-05,-5e-05,5,29
21772,-0.00013,1e-05,-6e-05,0.00027,0.00021,8e-05,3e-05,-5e-05,5,29
21773,5e-05,4e-05,-3e-05,0.00062,0.00013,-5e-05,-1e-05,-8e-05,5,29
21774,5e-05,4e-05,-3e-05,0.00062,0.00013,-5e-05,-1e-05,-8e-05,5,29
21775,5e-05,4e-05,-3e-05,0.00062,0.00013,-5e-05,-1e-05,-8e-05,5,29
21776,5e-05,4e-05,-3e-05,0.00062,0.00013,-5e-05,-1e-05,-8e-05,5,29
21777,5e-05,4e-05,-3e-05,0.00062,0.00013,-5e-05,-1e-05,-8e-05,5,29
21778,5e-05,4e-05,-3e-05,0.00062,0.00013,-5e-05,-1e-05,-8e-05,5,29
21779,5e-05,4e-05,-3e-05,0.00062,0.00013,-5e-05,-1e-05,-8e-05,5,29
21780,5e-05,4e-05,-3e-05,0.00062,0.00013,-5e-05,-1e-05,-8e-05,5,29
21781,5e-05,4e-05,-3e-05,0.00062,0.00013,-5e-05,-1e-05,-8e-05,5,29
21782,5e-05,4e-05,-3e-05,0.00062,0.00013,-5e-05,-1e-05,-8e-05,5,29
21783,5e-05,4e-05,-3e-05,0.00062,0.00013,-5e-05,-1e-05,-8e-05,5,29
21784,5e-05,4e-05,-3e-05,0.00062,0.00013,-5e-05,-1e-05,-8e-05,5,29
21785,5e-05,4e-05,-3e-05,0.00062,0.00013,-5e-05,-1e-05,-8e-05,5,29
21786,5e-05,4e-05,-3e-05,0.00062,0.00013,-5e-05,-1e-05,-8e-05,5,29
21788,-3e-05,-3e-05,1e-05,-8e-05,1e-05,-4e-05,-0.0001,3e-05,5,29
21789,-3e-05,-3e-05,1e-05,-8e-05,1e-05,-4e-05,-0.0001,3e-05,5,29
21790,-3e-05,-3e-05,1e-05,-8e-05,1e-05,-4e-05,-0.0001,3e-05,5,29
21791,-3e-05,-3e-05,1e-05,-8e-05,1e-05,-4e-05,-0.0001,3e-05,5,29
21792,-3e-05,-3e-05,1e-05,-8e-05,1e-05,-4e-05,-0.0001,3e-05,5,29
21793,-3e-05,-3e-05,1e-05,-8e-05,1e-05,-4e-05,-0.0001,3e-05,5,29
21794,-3e-05,-3e-05,1e-05,-8e-05,1e-05,-4e-05,-0.0001,3e-05,5,29
21795,-3e-05,-3e-05,1e-05,-8e-05,1e-05,-4e-05,-0.0001,3e-05,5,29
21796,-3e-05,-3e-05,1e-05,-8e-05,1e-05,-4e-05,-0.0001,3e-05,5,29
21797,-3e-05,-3e-05,1e-05,-8e-05,1e-05,-4e-05,-0.0001,3e-05,5,29
21798,-3e-05,-3e-05,1e-05,-8e-05,1e-05,-4e-05,-0.0001,3e-05,5,29
21799,-3e-05,-3e-05,1e-05,-8e-05,1e-05,-4e-05,-0.0001,3e-05,5,29
21800,-3e-05,-3e-05,1e-05,-8e-05,1e-05,-4e-05,-0.0001,3e-05,5,29
21801,-3e-05,-3e-05,1e-05,-8e-05,1e-05,-4e-05,-0.0001,3e-05,5,29
21802,-3e-05,-3e-05,1e-05,-8e-05,1e-05,-4e-05,-0.0001,3e-05,5,29
21803,-3e-05,-3e-05,1e-05,-8e-05,1e-05,-4e-05,-0.0001,3e-05,5,29
21804,-3e-05,-3e-05,1e-05,-8e-05,1e-05,-4e-05,-0.0001,3e-05,5,29
21805,-3e-05,-3e-05,1e-05,-8e-05,1e-05,-4e-05,-0.0001,3e-05,5,29
21806,-3e-05,-3e-05,1e-05,-8e-05,1e-05,-4e-05,-0.0001,3e-05,5,29
21807,-3e-05,-3e-05,1e-05,-8e-05,1e-05,-4e-05,-0.0001,3e-05,5,29
21808,-3e-05,-3e-05,1e-05,-8e-05,1e-05,-4e-05,-0.0001,3e-05,5,29
21809,7e-05,-1e-05,-7e-05,0.00013,-0.00043,-0.00015,-9e-05,5e-05,5,29
21810,-0.0001,-0.00013,-2e-05,-0.00044,-0.0002,-0.00016,-6e-05,-7e-05,5,29
21811,-0.0001,-0.00013,-2e-05,-0.00044,-0.0002,-0.00016,-6e-05,-7e-05,5,29
21812,-0.0001,-0.00013,-2e-05,-0.00044,-0.0002,-0.00016,-6e-05,-7e-05,5,29
21813,-0.0001,-0.00013,-2e-05,-0.00044,-0.0002,-0.00016,-6e-05,-7e-05,5,29
21814,-0.0001,-0.00013,-2e-05,-0.00044,-0.0002,-0.00016,-6e-05,-7e-05,5,29
21815,-0.0001,-0.00013,-2e-05,-0.00044,-0.0002,-0.00016,-6e-05,-7e-05,5,29
21816,-0.0001,-0.00013,-2e-05,-0.00044,-0.0002,-0.00016,-6e-05,-7e-05,5,29
21817,-0.0001,-0.00013,-2e-05,-0.00044,-0.0002,-0.00016,-6e-05,-7e-05,5,29
21818,-0.0001,-0.00013,-2e-05,-0.00044,-0.0002,-0.00016,-6e-05,-7e-05,5,29
21819,-0.0001,-0.00013,-2e-05,-0.00044,-0.0002,-0.00016,-6e-05,-7e-05,5,29
21820,-0.0001,-0.00013,-2e-05,-0.00044,-0.0002,-0.00016,-6e-05,-7e-05,5,29
21821,-0.0001,-0.00013,-2e-05,-0.00044,-0.0002,-0.00016,-6e-05,-7e-05,5,29
21822,-0.0001,-0.00013,-2e-05,-0.00044,-0.0002,-0.00016,-6e-05,-7e-05,5,29
21823,6e-05,5e-05,3e-05,9e-05,-2e-05,-2e-05,1e-05,4e-05,5,29
21824,6e-05,5e-05,3e-05,9e-05,-2e-05,-2e-05,1e-05,4e-05,5,29
21825,6e-05,5e-05,3e-05,9e-05,-2e-05,-2e-05,1e-05,4e-05,5,29
21826,6e-05,5e-05,3e-05,9e-05,-2e-05,-2e-05,1e-05,4e-05,5,29
21827,6e-05,5e-05,3e-05,9e-05,-2e-05,-2e-05,1e-05,4e-05,5,29
21828,6e-05,5e-05,3e-05,9e-05,-2e-05,-2e-05,1e-05,4e-05,5,29
21829,6e-05,5e-05,3e-05,9e-05,-2e-05,-2e-05,1e-05,4e-05,5,29
21830,1e-05,5e-05,5e-05,0,0.00014,0.0001,1e-05,2e-05,5,29
21831,1e-05,5e-05,5e-05,0,0.00014,0.0001,1e-05,2e-05,5,29
21832,1e-05,5e-05,5e-05,0,0.00014,0.0001,1e-05,2e-05,5,29
21833,1e-05,5e-05,5e-05,0,0.00014,0.0001,1e-05,2e-05,5,29
21834,1e-05,5e-05,5e-05,0,0.00014,0.0001,1e-05,2e-05,5,29
21835,1e-05,5e-05,5e-05,0,0.00014,0.0001,1e-05,2e-05,5,29
21836,1e-05,5e-05,5e-05,0,0.00014,0.0001,1e-05,2e-05,5,29
21838,1e-05,5e-05,5e-05,0,0.00014,0.0001,1e-05,2e-05,5,29
21839,1e-05,5e-05,5e-05,0,0.00014,0.0001,1e-05,2e-05,5,29
21840,1e-05,5e-05,5e-05,0,0.00014,0.0001,1e-05,2e-05,5,29
21841,1e-05,5e-05,5e-05,0,0.00014,0.0001,1e-05,2e-05,5,29
21842,1e-05,5e-05,5e-05,0,0.00014,0.0001,1e-05,2e-05,5,29
21843,1e-05,5e-05,5e-05,0,0.00014,0.0001,1e-05,2e-05,5,29
21844,1e-05,5e-05,5e-05,0,0.00014,0.0001,1e-05,2e-05,5,29
21845,1e-05,5e-05,5e-05,0,0.00014,0.0001,1e-05,2e-05,5,29
21846,0.00012,4e-05,1e-05,-0.00013,0.00029,0.00018,8e-05,0.00012,5,29
21847,0.00012,4e-05,1e-05,-0.00013,0.00029,0.00018,8e-05,0.00012,5,29
21848,0.00023,5e-05,6e-05,-0.00015,0.00018,0.00012,6e-05,0.00013,5,29
21849,0.00023,5e-05,6e-05,-0.00015,0.00018,0.00012,6e-05,0.00013,5,29
21850,0.00023,5e-05,6e-05,-0.00015,0.00018,0.00012,6e-05,0.00013,5,29
21851,0.00023,5e-05,6e-05,-0.00015,0.00018,0.00012,6e-05,0.00013,5,29
21852,0.00023,5e-05,6e-05,-0.00015,0.00018,0.00012,6e-05,0.00013,5,29
21853,0.00023,5e-05,6e-05,-0.00015,0.00018,0.00012,6e-05,0.00013,5,29
21854,0.00023,5e-05,6e-05,-0.00015,0.00018,0.00012,6e-05,0.00013,5,29
21855,0.00023,5e-05,6e-05,-0.00015,0.00018,0.00012,6e-05,0.00013,5,29
21856,0.00023,5e-05,6e-05,-0.00015,0.00018,0.00012,6e-05,0.00013,5,29
21857,0.00023,5e-05,6e-05,-0.00015,0.00018,0.00012,6e-05,0.00013,5,29
21858,0.00023,5e-05,6e-05,-0.00015,0.00018,0.00012,6e-05,0.00013,5,29
21859,0.00023,5e-05,6e-05,-0.00015,0.00018,0.00012,6e-05,0.00013,5,29
21860,0.00023,5e-05,6e-05,-0.00015,0.00018,0.00012,6e-05,0.00013,5,29
21861,0.00023,5e-05,6e-05,-0.00015,0.00018,0.00012,6e-05,0.00013,5,29
21862,0.00023,5e-05,6e-05,-0.00015,0.00018,0.00012,6e-05,0.00013,5,29
21863,0.00023,5e-05,6e-05,-0.00015,0.00018,0.00012,6e-05,0.00013,5,29
21864,0.00023,5e-05,6e-05,-0.00015,0.00018,0.00012,6e-05,0.00013,5,29
21865,0.00023,5e-05,6e-05,-0.00015,0.00018,0.00012,6e-05,0.00013,5,29
21866,0.00023,5e-05,6e-05,-0.00015,0.00018,0.00012,6e-05,0.00013,5,29
21867,0.00023,5e-05,6e-05,-0.00015,0.00018,0.00012,6e-05,0.00013,5,29
21868,0.00023,5e-05,6e-05,-0.00015,0.00018,0.00012,6e-05,0.00013,5,29
21869,-0.00017,-0.00011,-8e-05,0.00011,3e-05,-6e-05,-6e-05,-3e-05,5,29
21870,2e-05,0,-1e-05,0,-3e-05,-4e-05,1e-05,7e-05,5,29
21871,2e-05,0,-1e-05,0,-3e-05,-4e-05,1e-05,7e-05,5,29
21872,2e-05,0,-1e-05,0,-3e-05,-4e-05,1e-05,7e-05,5,29
21873,2e-05,0,-1e-05,0,-3e-05,-4e-05,1e-05,7e-05,5,29
21874,2e-05,0,-1e-05,0,-3e-05,-4e-05,1e-05,7e-05,5,29
21875,2e-05,0,-1e-05,0,-3e-05,-4e-05,1e-05,7e-05,5,29
21876,2e-05,0,-1e-05,0,-3e-05,-4e-05,1e-05,7e-05,5,29
21877,2e-05,0,-1e-05,0,-3e-05,-4e-05,1e-05,7e-05,5,29
21878,2e-05,0,-1e-05,0,-3e-05,-4e-05,1e-05,7e-05,5,29
21879,2e-05,0,-1e-05,0,-3e-05,-4e-05,1e-05,7e-05,5,29
21880,2e-05,0,-1e-05,0,-3e-05,-4e-05,1e-05,7e-05,5,29
21881,2e-05,0,-1e-05,0,-3e-05,-4e-05,1e-05,7e-05,5,29
21882,2e-05,0,-1e-05,0,-3e-05,-4e-05,1e-05,7e-05,5,29
21883,0.0001,-3e-05,0.00012,0.00038,-0.00011,-7e-05,-1e-05,4e-05,5,29
21884,0.0001,-3e-05,0.00012,0.00038,-0.00011,-7e-05,-1e-05,4e-05,5,29
21885,0.0001,-3e-05,0.00012,0.00038,-0.00011,-7e-05,-1e-05,4e-05,5,29
21886,0.0001,-3e-05,0.00012,0.00038,-0.00011,-7e-05,-1e-05,4e-05,5,29
21888,0.0001,-3e-05,0.00012,0.00038,-0.00011,-7e-05,-1e-05,4e-05,5,29
21889,0.0001,-3e-05,0.00012,0.00038,-0.00011,-7e-05,-1e-05,4e-05,5,29
21890,-0.00014,-7e-05,-0.0001,-2e-05,-0.00043,-0.00012,-7e-05,-0.0001,5,29
21891,-0.00014,-7e-05,-0.0001,-2e-05,-0.00043,-0.00012,-7e-05,-0.0001,5,29
21892,-0.00014,-7e-05,-0.0001,-2e-05,-0.00043,-0.00012,-7e-05,-0.0001,5,29
21893,-0.00014,-7e-05,-0.0001,-2e-05,-0.00043,-0.00012,-7e-05,-0.0001,5,29
21894,-0.00014,-7e-05,-0.0001,-2e-05,-0.00043,-0.00012,-7e-05,-0.0001,5,29
21895,-0.00014,-7e-05,-0.0001,-2e-05,-0.00043,-0.00012,-7e-05,-0.0001,5,29
21896,-0.00014,-7e-05,-0.0001,-2e-05,-0.00043,-0.00012,-7e-05,-0.0001,5,29
21897,-0.00014,-7e-05,-0.0001,-2e-05,-0.00043,-0.00012,-7e-05,-0.0001,5,29
21898,-0.00014,-7e-05,-0.0001,-2e-05,-0.00043,-0.00012,-7e-05,-0.0001,5,29
21899,-0.00014,-7e-05,-0.0001,-2e-05,-0.00043,-0.00012,-7e-05,-0.0001,5,29
21900,-0.00014,-7e-05,-0.0001,-2e-05,-0.00043,-0.00012,-7e-05,-0.0001,5,29
21901,-0.00014,-7e-05,-0.0001,-2e-05,-0.00043,-0.00012,-7e-05,-0.0001,5,29
21902,-0.00014,-7e-05,-0.0001,-2e-05,-0.00043,-0.00012,-7e-05,-0.0001,5,29
21903,-0.00014,-7e-05,-0.0001,-2e-05,-0.00043,-0.00012,-7e-05,-0.0001,5,29
21904,-0.00014,-7e-05,-0.0001,-2e-05,-0.00043,-0.00012,-7e-05,-0.0001,5,29
21905,-0.00014,-7e-05,-0.0001,-2e-05,-0.00043,-0.00012,-7e-05,-0.0001,5,29
21906,-5e-05,5e-05,0.00015,0.00047,0.00088,0.00027,6e-05,-2e-05,5,29
21907,-5e-05,5e-05,0.00015,0.00047,0.00088,0.00027,6e-05,-2e-05,5,29
21908,-3e-05,3e-05,-9e-05,-0.00098,-0.00057,-7e-05,3e-05,-3e-05,5,29
21909,-3e-05,3e-05,-9e-05,-0.00098,-0.00057,-7e-05,3e-05,-3e-05,5,29
21910,-3e-05,3e-05,-9e-05,-0.00098,-0.00057,-7e-05,3e-05,-3e-05,5,29
21911,-3e-05,3e-05,-9e-05,-0.00098,-0.00057,-7e-05,3e-05,-3e-05,5,29
21912,-3e-05,3e-05,-9e-05,-0.00098,-0.00057,-7e-05,3e-05,-3e-05,5,29
21913,-3e-05,3e-05,-9e-05,-0.00098,-0.00057,-7e-05,3e-05,-3e-05,5,29
21914,-3e-05,3e-05,-9e-05,-0.00098,-0.00057,-7e-05,3e-05,-3e-05,5,29
21915,-3e-05,3e-05,-9e-05,-0.00098,-0.00057,-7e-05,3e-05,-3e-05,5,29
21916,-3e-05,3e-05,-9e-05,-0.00098,-0.00057,-7e-05,3e-05,-3e-05,5,29
21917,-3e-05,3e-05,-9e-05,-0.00098,-0.00057,-7e-05,3e-05,-3e-05,5,29
21918,-3e-05,3e-05,-9e-05,-0.00098,-0.00057,-7e-05,3e-05,-3e-05,5,29
21919,-3e-05,3e-05,-9e-05,-0.00098,-0.00057,-7e-05,3e-05,-3e-05,5,29
21920,-3e-05,3e-05,-9e-05,-0.00098,-0.00057,-7e-05,3e-05,-3e-05,5,29
21921,-3e-05,3e-05,-9e-05,-0.00098,-0.00057,-7e-05,3e-05,-3e-05,5,29
21922,-3e-05,3e-05,-9e-05,-0.00098,-0.00057,-7e-05,3e-05,-3e-05,5,29
21923,-3e-05,3e-05,-9e-05,-0.00098,-0.00057,-7e-05,3e-05,-3e-05,5,29
21924,-3e-05,3e-05,-9e-05,-0.00098,-0.00057,-7e-05,3e-05,-3e-05,5,29
21926,-3e-05,3e-05,-9e-05,-0.00098,-0.00057,-7e-05,3e-05,-3e-05,5,29
21927,-3e-05,3e-05,-9e-05,-0.00098,-0.00057,-7e-05,3e-05,-3e-05,5,29
21928,-3e-05,3e-05,-9e-05,-0.00098,-0.00057,-7e-05,3e-05,-3e-05,5,29
21929,7e-05,-3e-05,-8e-05,-0.00043,-0.00017,1e-05,0,3e-05,5,29
21930,7e-05,-3e-05,-8e-05,-0.00043,-0.00017,1e-05,0,3e-05,5,29
21931,-2e-05,-4e-05,-2e-05,0.00014,0.00032,-5e-05,-5e-05,0,5,29
21932,-2e-05,-4e-05,-2e-05,0.00014,0.00032,-5e-05,-5e-05,0,5,29
21933,-2e-05,-4e-05,-2e-05,0.00014,0.00032,-5e-05,-5e-05,0,5,29
21934,-2e-05,-4e-05,-2e-05,0.00014,0.00032,-5e-05,-5e-05,0,5,29
21935,-2e-05,-4e-05,-2e-05,0.00014,0.00032,-5e-05,-5e-05,0,5,29
21936,-2e-05,-4e-05,-2e-05,0.00014,0.00032,-5e-05,-5e-05,0,5,29
21938,-2e-05,-4e-05,-2e-05,0.00014,0.00032,-5e-05,-5e-05,0,5,29
21939,-2e-05,-4e-05,-2e-05,0.00014,0.00032,-5e-05,-5e-05,0,5,29
21940,-2e-05,-4e-05,-2e-05,0.00014,0.00032,-5e-05,-5e-05,0,5,29
21941,-2e-05,-4e-05,-2e-05,0.00014,0.00032,-5e-05,-5e-05,0,5,29
21942,-2e-05,-4e-05,-2e-05,0.00014,0.00032,-5e-05,-5e-05,0,5,29
21943,3e-05,4e-05,8e-05,0.00015,0.00025,7e-05,7e-05,9e-05,5,29
21944,3e-05,4e-05,8e-05,0.00015,0.00025,7e-05,7e-05,9e-05,5,29
21945,3e-05,4e-05,8e-05,0.00015,0.00025,7e-05,7e-05,9e-05,5,29
21946,3e-05,4e-05,8e-05,0.00015,0.00025,7e-05,7e-05,9e-05,5,29
21947,3e-05,4e-05,8e-05,0.00015,0.00025,7e-05,7e-05,9e-05,5,29
21948,3e-05,4e-05,8e-05,0.00015,0.00025,7e-05,7e-05,9e-05,5,29
21949,3e-05,4e-05,8e-05,0.00015,0.00025,7e-05,7e-05,9e-05,5,29
21950,-0.00029,-0.00012,-7e-05,9e-05,2e-05,-0.00013,-6e-05,-0.00015,5,29
21951,-0.00029,-0.00012,-7e-05,9e-05,2e-05,-0.00013,-6e-05,-0.00015,5,29
21952,-0.00029,-0.00012,-7e-05,9e-05,2e-05,-0.00013,-6e-05,-0.00015,5,29
21953,-0.00029,-0.00012,-7e-05,9e-05,2e-05,-0.00013,-6e-05,-0.00015,5,29
21954,-0.00029,-0.00012,-7e-05,9e-05,2e-05,-0.00013,-6e-05,-0.00015,5,29
21955,-0.00029,-0.00012,-7e-05,9e-05,2e-05,-0.00013,-6e-05,-0.00015,5,29
21956,-0.00029,-0.00012,-7e-05,9e-05,2e-05,-0.00013,-6e-05,-0.00015,5,29
21957,-0.00029,-0.00012,-7e-05,9e-05,2e-05,-0.00013,-6e-05,-0.00015,5,29
21958,-0.00029,-0.00012,-7e-05,9e-05,2e-05,-0.00013,-6e-05,-0.00015,5,29
21959,-0.00029,-0.00012,-7e-05,9e-05,2e-05,-0.00013,-6e-05,-0.00015,5,29
21960,-0.00029,-0.00012,-7e-05,9e-05,2e-05,-0.00013,-6e-05,-0.00015,5,29
21961,-0.00029,-0.00012,-7e-05,9e-05,2e-05,-0.00013,-6e-05,-0.00015,5,29
21962,-0.00029,-0.00012,-7e-05,9e-05,2e-05,-0.00013,-6e-05,-0.00015,5,29
21963,-0.00029,-0.00012,-7e-05,9e-05,2e-05,-0.00013,-6e-05,-0.00015,5,29
21964,-0.00029,-0.00012,-7e-05,9e-05,2e-05,-0.00013,-6e-05,-0.00015,5,29
21965,-0.00029,-0.00012,-7e-05,9e-05,2e-05,-0.00013,-6e-05,-0.00015,5,29
21966,-6e-05,-4e-05,-0.00011,7e-05,-0.00034,-0.00011,-7e-05,-9e-05,5,29
21967,-6e-05,-4e-05,-0.00011,7e-05,-0.00034,-0.00011,-7e-05,-9e-05,5,29
21968,4e-05,3e-05,9e-05,0.00076,-0.00023,-8e-05,-2e-05,0,5,29
21969,4e-05,3e-05,9e-05,0.00076,-0.00023,-8e-05,-2e-05,0,5,29
21970,4e-05,3e-05,9e-05,0.00076,-0.00023,-8e-05,-2e-05,0,5,29
21971,4e-05,3e-05,9e-05,0.00076,-0.00023,-8e-05,-2e-05,0,5,29
21972,4e-05,3e-05,9e-05,0.00076,-0.00023,-8e-05,-2e-05,0,5,29
21973,4e-05,3e-05,9e-05,0.00076,-0.00023,-8e-05,-2e-05,0,5,29
21974,4e-05,3e-05,9e-05,0.00076,-0.00023,-8e-05,-2e-05,0,5,29
21975,4e-05,3e-05,9e-05,0.00076,-0.00023,-8e-05,-2e-05,0,5,29
21976,4e-05,3e-05,9e-05,0.00076,-0.00023,-8e-05,-2e-05,0,5,29
21977,4e-05,3e-05,9e-05,0.00076,-0.00023,-8e-05,-2e-05,0,5,29
21978,4e-05,3e-05,9e-05,0.00076,-0.00023,-8e-05,-2e-05,0,5,29
21979,4e-05,3e-05,9e-05,0.00076,-0.00023,-8e-05,-2e-05,0,5,29
21980,4e-05,3e-05,9e-05,0.00076,-0.00023,-8e-05,-2e-05,0,5,29
21981,4e-05,3e-05,9e-05,0.00076,-0.00023,-8e-05,-2e-05,0,5,29
21982,4e-05,3e-05,9e-05,0.00076,-0.00023,-8e-05,-2e-05,0,5,29
21983,4e-05,3e-05,9e-05,0.00076,-0.00023,-8e-05,-2e-05,0,5,29
21984,4e-05,3e-05,9e-05,0.00076,-0.00023,-8e-05,-2e-05,0,5,29
21985,4e-05,3e-05,9e-05,0.00076,-0.00023,-8e-05,-2e-05,0,5,29
21986,4e-05,3e-05,9e-05,0.00076,-0.00023,-8e-05,-2e-05,0,5,29
21988,4e-05,3e-05,9e-05,0.00076,-0.00023,-8e-05,-2e-05,0,5,29
21989,-4e-05,-3e-05,-4e-05,-0.00045,-0.0004,-0.00012,-2e-05,-2e-05,5,29
21990,4e-05,-5e-05,-8e-05,-0.00024,0.00024,1e-05,-1e-05,1e-05,5,29
21991,4e-05,-5e-05,-8e-05,-0.00024,0.00024,1e-05,-1e-05,1e-05,5,29
21992,4e-05,-5e-05,-8e-05,-0.00024,0.00024,1e-05,-1e-05,1e-05,5,29
21993,4e-05,-5e-05,-8e-05,-0.00024,0.00024,1e-05,-1e-05,1e-05,5,29
21994,4e-05,-5e-05,-8e-05,-0.00024,0.00024,1e-05,-1e-05,1e-05,5,29
21995,4e-05,-5e-05,-8e-05,-0.00024,0.00024,1e-05,-1e-05,1e-05,5,29
21996,4e-05,-5e-05,-8e-05,-0.00024,0.00024,1e-05,-1e-05,1e-05,5,29
21997,4e-05,-5e-05,-8e-05,-0.00024,0.00024,1e-05,-1e-05,1e-05,5,29
21998,4e-05,-5e-05,-8e-05,-0.00024,0.00024,1e-05,-1e-05,1e-05,5,29
21999,4e-05,-5e-05,-8e-05,-0.00024,0.00024,1e-05,-1e-05,1e-05,5,29
22000,4e-05,-5e-05,-8e-05,-0.00024,0.00024,1e-05,-1e-05,1e-05,5,29
22001,4e-05,-5e-05,-8e-05,-0.00024,0.00024,1e-05,-1e-05,1e-05,5,29
22002,4e-05,-5e-05,-8e-05,-0.00024,0.00024,1e-05,-1e-05,1e-05,5,29
22003,-7e-05,-5e-05,-0.00016,-0.0002,9e-05,0,2e-05,-2e-05,5,29
22004,-7e-05,-5e-05,-0.00016,-0.0002,9e-05,0,2e-05,-2e-05,5,29
22005,-7e-05,-5e-05,-0.00016,-0.0002,9e-05,0,2e-05,-2e-05,5,29
22006,-7e-05,-5e-05,-0.00016,-0.0002,9e-05,0,2e-05,-2e-05,5,29
22007,-7e-05,-5e-05,-0.00016,-0.0002,9e-05,0,2e-05,-2e-05,5,29
22008,-7e-05,-5e-05,-0.00016,-0.0002,9e-05,0,2e-05,-2e-05,5,29
22009,-7e-05,-5e-05,-0.00016,-0.0002,9e-05,0,2e-05,-2e-05,5,29
22010,-4e-05,-3e-05,-2e-05,3e-05,-3e-05,3e-05,-2e-05,-4e-05,5,29
22011,-4e-05,-3e-05,-2e-05,3e-05,-3e-05,3e-05,-2e-05,-4e-05,5,29
22012,-4e-05,-3e-05,-2e-05,3e-05,-3e-05,3e-05,-2e-05,-4e-05,5,29
22013,-4e-05,-3e-05,-2e-05,3e-05,-3e-05,3e-05,-2e-05,-4e-05,5,29
22014,-4e-05,-3e-05,-2e-05,3e-05,-3e-05,3e-05,-2e-05,-4e-05,5,29
22015,-4e-05,-3e-05,-2e-05,3e-05,-3e-05,3e-05,-2e-05,-4e-05,5,29
22016,-4e-05,-3e-05,-2e-05,3e-05,-3e-05,3e-05,-2e-05,-4e-05,5,29
22017,-4e-05,-3e-05,-2e-05,3e-05,-3e-05,3e-05,-2e-05,-4e-05,5,29
22018,-4e-05,-3e-05,-2e-05,3e-05,-3e-05,3e-05,-2e-05,-4e-05,5,29
22019,-4e-05,-3e-05,-2e-05,3e-05,-3e-05,3e-05,-2e-05,-4e-05,5,29
22020,-4e-05,-3e-05,-2e-05,3e-05,-3e-05,3e-05,-2e-05,-4e-05,5,29
22021,-4e-05,-3e-05,-2e-05,3e-05,-3e-05,3e-05,-2e-05,-4e-05,5,29
22022,-4e-05,-3e-05,-2e-05,3e-05,-3e-05,3e-05,-2e-05,-4e-05,5,29
22023,-4e-05,-3e-05,-2e-05,3e-05,-3e-05,3e-05,-2e-05,-4e-05,5,29
22024,-4e-05,-3e-05,-2e-05,3e-05,-3e-05,3e-05,-2e-05,-4e-05,5,29
22027,-4e-05,-3e-05,-2e-05,3e-05,-3e-05,3e-05,-2e-05,-4e-05,5,29
22028,-4e-05,-3e-05,-2e-05,3e-05,-3e-05,3e-05,-2e-05,-4e-05,5,29
22029,-4e-05,-3e-05,-2e-05,3e-05,-3e-05,3e-05,-2e-05,-4e-05,5,29
22030,-4e-05,-3e-05,-2e-05,3e-05,-3e-05,3e-05,-2e-05,-4e-05,5,29
22031,-4e-05,-3e-05,-2e-05,3e-05,-3e-05,3e-05,-2e-05,-4e-05,5,29
22032,-4e-05,-3e-05,-2e-05,3e-05,-3e-05,3e-05,-2e-05,-4e-05,5,29
22033,-4e-05,-3e-05,-2e-05,3e-05,-3e-05,3e-05,-2e-05,-4e-05,5,29
22034,-1e-05,-2e-05,-7e-05,-0.0001,-5e-05,1e-05,-5e-05,0,5,29
22035,0.00015,-1e-05,-0.00014,-4e-05,0.00018,8e-05,4e-05,0.00014,5,29
22036,0.00015,-1e-05,-0.00014,-4e-05,0.00018,8e-05,4e-05,0.00014,5,29
22038,0.00015,-1e-05,-0.00014,-4e-05,0.00018,8e-05,4e-05,0.00014,5,29
22039,0.00015,-1e-05,-0.00014,-4e-05,0.00018,8e-05,4e-05,0.00014,5,29
22040,0.00015,-1e-05,-0.00014,-4e-05,0.00018,8e-05,4e-05,0.00014,5,29
22041,0.00015,-1e-05,-0.00014,-4e-05,0.00018,8e-05,4e-05,0.00014,5,29
22042,0.00015,-1e-05,-0.00014,-4e-05,0.00018,8e-05,4e-05,0.00014,5,29
22043,0.00015,-1e-05,-0.00014,-4e-05,0.00018,8e-05,4e-05,0.00014,5,29
22044,0.00015,-1e-05,-0.00014,-4e-05,0.00018,8e-05,4e-05,0.00014,5,29
22045,0.00015,-1e-05,-0.00014,-4e-05,0.00018,8e-05,4e-05,0.00014,5,29
22046,0.00015,-1e-05,-0.00014,-4e-05,0.00018,8e-05,4e-05,0.00014,5,29
22047,0.00015,-1e-05,-0.00014,-4e-05,0.00018,8e-05,4e-05,0.00014,5,29
22048,0.00015,-1e-05,-0.00014,-4e-05,0.00018,8e-05,4e-05,0.00014,5,29
22049,2e-05,-5e-05,3e-05,4e-05,-0.00033,-0.00014,-8e-05,-4e-05,5,29
22050,2e-05,0,-4e-05,-0.0004,0.0001,1e-05,0,9e-05,5,29
22051,2e-05,0,-4e-05,-0.0004,0.0001,1e-05,0,9e-05,5,29
22052,2e-05,0,-4e-05,-0.0004,0.0001,1e-05,0,9e-05,5,29
22053,2e-05,0,-4e-05,-0.0004,0.0001,1e-05,0,9e-05,5,29
22054,2e-05,0,-4e-05,-0.0004,0.0001,1e-05,0,9e-05,5,29
22055,2e-05,0,-4e-05,-0.0004,0.0001,1e-05,0,9e-05,5,29
22056,2e-05,0,-4e-05,-0.0004,0.0001,1e-05,0,9e-05,5,29
22057,2e-05,0,-4e-05,-0.0004,0.0001,1e-05,0,9e-05,5,29
22058,2e-05,0,-4e-05,-0.0004,0.0001,1e-05,0,9e-05,5,29
22059,2e-05,0,-4e-05,-0.0004,0.0001,1e-05,0,9e-05,5,29
22060,2e-05,0,-4e-05,-0.0004,0.0001,1e-05,0,9e-05,5,29
22061,2e-05,0,-4e-05,-0.0004,0.0001,1e-05,0,9e-05,5,29
22062,2e-05,0,-4e-05,-0.0004,0.0001,1e-05,0,9e-05,5,29
22063,-5e-05,2e-05,4e-05,-0.00016,0.00018,7e-05,0,-6e-05,5,29
22064,-5e-05,2e-05,4e-05,-0.00016,0.00018,7e-05,0,-6e-05,5,29
22065,-5e-05,2e-05,4e-05,-0.00016,0.00018,7e-05,0,-6e-05,5,29
22066,-5e-05,2e-05,4e-05,-0.00016,0.00018,7e-05,0,-6e-05,5,29
22067,-5e-05,2e-05,4e-05,-0.00016,0.00018,7e-05,0,-6e-05,5,29
22068,-5e-05,2e-05,4e-05,-0.00016,0.00018,7e-05,0,-6e-05,5,29
22069,-5e-05,2e-05,4e-05,-0.00016,0.00018,7e-05,0,-6e-05,5,29
22070,0.00011,1e-05,-4e-05,-0.00016,-9e-05,-1e-05,1e-05,0,5,29
22071,0.00011,1e-05,-4e-05,-0.00016,-9e-05,-1e-05,1e-05,0,5,29
22072,0.00011,1e-05,-4e-05,-0.00016,-9e-05,-1e-05,1e-05,0,5,29
22073,0.00011,1e-05,-4e-05,-0.00016,-9e-05,-1e-05,1e-05,0,5,29
22074,0.00011,1e-05,-4e-05,-0.00016,-9e-05,-1e-05,1e-05,0,5,29
22075,0.00011,1e-05,-4e-05,-0.00016,-9e-05,-1e-05,1e-05,0,5,29
22076,0.00011,1e-05,-4e-05,-0.00016,-9e-05,-1e-05,1e-05,0,5,29
22077,0.00011,1e-05,-4e-05,-0.00016,-9e-05,-1e-05,1e-05,0,5,29
22078,0.00011,1e-05,-4e-05,-0.00016,-9e-05,-1e-05,1e-05,0,5,29
22079,0.00011,1e-05,-4e-05,-0.00016,-9e-05,-1e-05,1e-05,0,5,29
22080,0.00011,1e-05,-4e-05,-0.00016,-9e-05,-1e-05,1e-05,0,5,29
22081,0.00011,1e-05,-4e-05,-0.00016,-9e-05,-1e-05,1e-05,0,5,29
22082,0.00011,1e-05,-4e-05,-0.00016,-9e-05,-1e-05,1e-05,0,5,29
22083,0.00011,1e-05,-4e-05,-0.00016,-9e-05,-1e-05,1e-05,0,5,29
22084,0.00011,1e-05,-4e-05,-0.00016,-9e-05,-1e-05,1e-05,0,5,29
22085,0.00011,1e-05,-4e-05,-0.00016,-9e-05,-1e-05,1e-05,0,5,29
22086,5e-05,0.00012,8e-05,-0.0002,0.00011,2e-05,4e-05,3e-05,5,29
22088,-0.00013,7e-05,0.00013,0.00063,0.0004,0.00016,5e-05,-0.0001,5,29
22089,-0.00013,7e-05,0.00013,0.00063,0.0004,0.00016,5e-05,-0.0001,5,29
22090,-0.00013,7e-05,0.00013,0.00063,0.0004,0.00016,5e-05,-0.0001,5,29
22091,-0.00013,7e-05,0.00013,0.00063,0.0004,0.00016,5e-05,-0.0001,5,29
22092,-0.00013,7e-05,0.00013,0.00063,0.0004,0.00016,5e-05,-0.0001,5,29
22093,-0.00013,7e-05,0.00013,0.00063,0.0004,0.00016,5e-05,-0.0001,5,29
22094,-0.00013,7e-05,0.00013,0.00063,0.0004,0.00016,5e-05,-0.0001,5,29
22095,-0.00013,7e-05,0.00013,0.00063,0.0004,0.00016,5e-05,-0.0001,5,29
22096,-0.00013,7e-05,0.00013,0.00063,0.0004,0.00016,5e-05,-0.0001,5,29
22097,-0.00013,7e-05,0.00013,0.00063,0.0004,0.00016,5e-05,-0.0001,5,29
22098,-0.00013,7e-05,0.00013,0.00063,0.0004,0.00016,5e-05,-0.0001,5,29
22099,-0.00013,7e-05,0.00013,0.00063,0.0004,0.00016,5e-05,-0.0001,5,29
22100,-0.00013,7e-05,0.00013,0.00063,0.0004,0.00016,5e-05,-0.0001,5,29
22101,-0.00013,7e-05,0.00013,0.00063,0.0004,0.00016,5e-05,-0.0001,5,29
22102,-0.00013,7e-05,0.00013,0.00063,0.0004,0.00016,5e-05,-0.0001,5,29
22103,-0.00013,7e-05,0.00013,0.00063,0.0004,0.00016,5e-05,-0.0001,5,29
22104,-0.00013,7e-05,0.00013,0.00063,0.0004,0.00016,5e-05,-0.0001,5,29
22105,-0.00013,7e-05,0.00013,0.00063,0.0004,0.00016,5e-05,-0.0001,5,29
22106,-0.00013,7e-05,0.00013,0.00063,0.0004,0.00016,5e-05,-0.0001,5,29
22107,-0.00013,7e-05,0.00013,0.00063,0.0004,0.00016,5e-05,-0.0001,5,29
22108,-0.00013,7e-05,0.00013,0.00063,0.0004,0.00016,5e-05,-0.0001,5,29
22109,-3e-05,-4e-05,4e-05,0.00019,-0.00013,-8e-05,-5e-05,-7e-05,5,29
22110,-0.00011,-2e-05,4e-05,-0.00041,-0.00039,-3e-05,-2e-05,-0.00015,5,29
22111,-0.00011,-2e-05,4e-05,-0.00041,-0.00039,-3e-05,-2e-05,-0.00015,5,29
22112,-0.00011,-2e-05,4e-05,-0.00041,-0.00039,-3e-05,-2e-05,-0.00015,5,29
22113,-0.00011,-2e-05,4e-05,-0.00041,-0.00039,-3e-05,-2e-05,-0.00015,5,29
22114,-0.00011,-2e-05,4e-05,-0.00041,-0.00039,-3e-05,-2e-05,-0.00015,5,29
22115,-0.00011,-2e-05,4e-05,-0.00041,-0.00039,-3e-05,-2e-05,-0.00015,5,29
22116,-0.00011,-2e-05,4e-05,-0.00041,-0.00039,-3e-05,-2e-05,-0.00015,5,29
22117,-0.00011,-2e-05,4e-05,-0.00041,-0.00039,-3e-05,-2e-05,-0.00015,5,29
22118,-0.00011,-2e-05,4e-05,-0.00041,-0.00039,-3e-05,-2e-05,-0.00015,5,29
22119,-0.00011,-2e-05,4e-05,-0.00041,-0.00039,-3e-05,-2e-05,-0.00015,5,29
22120,-0.00011,-2e-05,4e-05,-0.00041,-0.00039,-3e-05,-2e-05,-0.00015,5,29
22121,-0.00011,-2e-05,4e-05,-0.00041,-0.00039,-3e-05,-2e-05,-0.00015,5,29
22122,4e-05,-0.0001,-0.00016,-0.00023,-0.00025,-0.00015,-6e-05,8e-05,5,29
22123,4e-05,-3e-05,-4e-05,-0.00049,3e-05,5e-05,0,-4e-05,5,29
22124,4e-05,-3e-05,-4e-05,-0.00049,3e-05,5e-05,0,-4e-05,5,29
22125,4e-05,-3e-05,-4e-05,-0.00049,3e-05,5e-05,0,-4e-05,5,29
22126,4e-05,-3e-05,-4e-05,-0.00049,3e-05,5e-05,0,-4e-05,5,29
22127,4e-05,-3e-05,-4e-05,-0.00049,3e-05,5e-05,0,-4e-05,5,29
22128,4e-05,-3e-05,-4e-05,-0.00049,3e-05,5e-05,0,-4e-05,5,29
22129,4e-05,-3e-05,-4e-05,-0.00049,3e-05,5e-05,0,-4e-05,5,29
22130,4e-05,-3e-05,-4e-05,-0.00049,3e-05,5e-05,0,-4e-05,5,29
22131,-3e-05,6e-05,7e-05,0.00036,0.00018,0,0,-0.0001,5,29
22132,-3e-05,6e-05,7e-05,0.00036,0.00018,0,0,-0.0001,5,29
22133,-3e-05,6e-05,7e-05,0.00036,0.00018,0,0,-0.0001,5,29
22134,-3e-05,6e-05,7e-05,0.00036,0.00018,0,0,-0.0001,5,29
22135,-3e-05,6e-05,7e-05,0.00036,0.00018,0,0,-0.0001,5,29
22136,-3e-05,6e-05,7e-05,0.00036,0.00018,0,0,-0.0001,5,29
22138,-3e-05,6e-05,7e-05,0.00036,0.00018,0,0,-0.0001,5,29
22139,-3e-05,6e-05,7e-05,0.00036,0.00018,0,0,-0.0001,5,29
22140,-3e-05,6e-05,7e-05,0.00036,0.00018,0,0,-0.0001,5,29
22141,-3e-05,6e-05,7e-05,0.00036,0.00018,0,0,-0.0001,5,29
22142,-3e-05,6e-05,7e-05,0.00036,0.00018,0,0,-0.0001,5,29
22143,-3e-05,6e-05,7e-05,0.00036,0.00018,0,0,-0.0001,5,29
22144,-3e-05,6e-05,7e-05,0.00036,0.00018,0,0,-0.0001,5,29
22145,0,-5e-05,1e-05,0.00024,0,-5e-05,-1e-05,0,5,29
22146,1e-05,-6e-05,-0.00012,-9e-05,-7e-05,-2e-05,0,4e-05,5,29
22147,1e-05,-6e-05,-0.00012,-9e-05,-7e-05,-2e-05,0,4e-05,5,29
22148,1e-05,-6e-05,-0.00012,-9e-05,-7e-05,-2e-05,0,4e-05,5,29
22149,1e-05,-6e-05,-0.00012,-9e-05,-7e-05,-2e-05,0,4e-05,5,29
22150,1e-05,-6e-05,-0.00012,-9e-05,-7e-05,-2e-05,0,4e-05,5,29
22151,1e-05,-6e-05,-0.00012,-9e-05,-7e-05,-2e-05,0,4e-05,5,29
22152,1e-05,-6e-05,-0.00012,-9e-05,-7e-05,-2e-05,0,4e-05,5,29
22153,1e-05,-6e-05,-0.00012,-9e-05,-7e-05,-2e-05,0,4e-05,5,29
22154,-2e-05,4e-05,0.00011,-1e-05,0.00014,5e-05,2e-05,3e-05,5,29
22155,-2e-05,4e-05,0.00011,-1e-05,0.00014,5e-05,2e-05,3e-05,5,29
22156,-2e-05,4e-05,0.00011,-1e-05,0.00014,5e-05,2e-05,3e-05,5,29
22157,-2e-05,4e-05,0.00011,-1e-05,0.00014,5e-05,2e-05,3e-05,5,29
22158,-2e-05,4e-05,0.00011,-1e-05,0.00014,5e-05,2e-05,3e-05,5,29
22159,-2e-05,4e-05,0.00011,-1e-05,0.00014,5e-05,2e-05,3e-05,5,29
22160,-2e-05,4e-05,0.00011,-1e-05,0.00014,5e-05,2e-05,3e-05,5,29
22161,-2e-05,4e-05,0.00011,-1e-05,0.00014,5e-05,2e-05,3e-05,5,29
22162,-2e-05,4e-05,0.00011,-1e-05,0.00014,5e-05,2e-05,3e-05,5,29
22163,-2e-05,4e-05,0.00011,-1e-05,0.00014,5e-05,2e-05,3e-05,5,29
22164,-2e-05,4e-05,0.00011,-1e-05,0.00014,5e-05,2e-05,3e-05,5,29
22165,-2e-05,4e-05,0.00011,-1e-05,0.00014,5e-05,2e-05,3e-05,5,29
22166,-2e-05,4e-05,0.00011,-1e-05,0.00014,5e-05,2e-05,3e-05,5,29
22167,-2e-05,4e-05,0.00011,-1e-05,0.00014,5e-05,2e-05,3e-05,5,29
22168,-2e-05,4e-05,0.00011,-1e-05,0.00014,5e-05,2e-05,3e-05,5,29
22169,-3e-05,-1e-05,-8e-05,-0.00018,-0.00017,-7e-05,-1e-05,-1e-05,5,29
22170,7e-05,2e-05,-3e-05,-0.00033,-4e-05,6e-05,2e-05,5e-05,5,29
22171,7e-05,2e-05,-3e-05,-0.00033,-4e-05,6e-05,2e-05,5e-05,5,29
22172,7e-05,2e-05,-3e-05,-0.00033,-4e-05,6e-05,2e-05,5e-05,5,29
22173,7e-05,2e-05,-3e-05,-0.00033,-4e-05,6e-05,2e-05,5e-05,5,29
22174,7e-05,2e-05,-3e-05,-0.00033,-4e-05,6e-05,2e-05,5e-05,5,29
22175,7e-05,2e-05,-3e-05,-0.00033,-4e-05,6e-05,2e-05,5e-05,5,29
22176,7e-05,2e-05,-3e-05,-0.00033,-4e-05,6e-05,2e-05,5e-05,5,29
22177,7e-05,2e-05,-3e-05,-0.00033,-4e-05,6e-05,2e-05,5e-05,5,29
22178,7e-05,2e-05,-3e-05,-0.00033,-4e-05,6e-05,2e-05,5e-05,5,29
22179,7e-05,2e-05,-3e-05,-0.00033,-4e-05,6e-05,2e-05,5e-05,5,29
22180,7e-05,2e-05,-3e-05,-0.00033,-4e-05,6e-05,2e-05,5e-05,5,29
22181,7e-05,2e-05,-3e-05,-0.00033,-4e-05,6e-05,2e-05,5e-05,5,29
22182,-3e-05,-4e-05,-4e-05,0,0.00061,0.00014,4e-05,-6e-05,5,29
22183,-3e-05,-4e-05,-4e-05,0,0.00061,0.00014,4e-05,-6e-05,5,29
22184,-3e-05,-4e-05,-4e-05,0,0.00061,0.00014,4e-05,-6e-05,5,29
22185,-3e-05,-4e-05,-4e-05,0,0.00061,0.00014,4e-05,-6e-05,5,29
22186,-3e-05,-4e-05,-4e-05,0,0.00061,0.00014,4e-05,-6e-05,5,29
22188,-3e-05,-4e-05,-4e-05,0,0.00061,0.00014,4e-05,-6e-05,5,29
22189,-3e-05,-4e-05,-4e-05,0,0.00061,0.00014,4e-05,-6e-05,5,29
22190,-3e-05,-4e-05,-4e-05,0,0.00061,0.00014,4e-05,-6e-05,5,29
22191,-3e-05,-4e-05,-4e-05,0,0.00061,0.00014,4e-05,-6e-05,5,29
22192,-3e-05,-4e-05,-4e-05,0,0.00061,0.00014,4e-05,-6e-05,5,29
22193,-3e-05,-4e-05,-4e-05,0,0.00061,0.00014,4e-05,-6e-05,5,29
22194,-3e-05,-4e-05,-4e-05,0,0.00061,0.00014,4e-05,-6e-05,5,29
22195,-3e-05,-4e-05,-4e-05,0,0.00061,0.00014,4e-05,-6e-05,5,29
22196,-3e-05,-4e-05,-4e-05,0,0.00061,0.00014,4e-05,-6e-05,5,29
22197,-3e-05,-4e-05,-4e-05,0,0.00061,0.00014,4e-05,-6e-05,5,29
22198,-3e-05,-4e-05,-4e-05,0,0.00061,0.00014,4e-05,-6e-05,5,29
22199,-3e-05,-4e-05,-4e-05,0,0.00061,0.00014,4e-05,-6e-05,5,29
22200,-3e-05,-4e-05,-4e-05,0,0.00061,0.00014,4e-05,-6e-05,5,29
22201,-3e-05,-4e-05,-4e-05,0,0.00061,0.00014,4e-05,-6e-05,5,29
22202,-3e-05,-4e-05,-4e-05,0,0.00061,0.00014,4e-05,-6e-05,5,29
22203,-3e-05,-4e-05,-4e-05,0,0.00061,0.00014,4e-05,-6e-05,5,29
22204,-3e-05,-4e-05,-4e-05,0,0.00061,0.00014,4e-05,-6e-05,5,29
22205,-3e-05,-4e-05,-4e-05,0,0.00061,0.00014,4e-05,-6e-05,5,29
22207,-3e-05,0,-7e-05,-0.00018,7e-05,-3e-05,-3e-05,-6e-05,5,29
22208,4e-05,1e-05,6e-05,0.00031,-0.00012,-7e-05,-6e-05,5e-05,5,29
22209,0,3e-05,1e-05,1e-05,-5e-05,2e-05,3e-05,3e-05,5,29
22210,0,3e-05,1e-05,1e-05,-5e-05,2e-05,3e-05,3e-05,5,29
22211,0,3e-05,1e-05,1e-05,-5e-05,2e-05,3e-05,3e-05,5,29
22212,0,3e-05,1e-05,1e-05,-5e-05,2e-05,3e-05,3e-05,5,29
22213,0,3e-05,1e-05,1e-05,-5e-05,2e-05,3e-05,3e-05,5,29
22214,0,3e-05,1e-05,1e-05,-5e-05,2e-05,3e-05,3e-05,5,29
22215,0,3e-05,1e-05,1e-05,-5e-05,2e-05,3e-05,3e-05,5,29
22216,0,3e-05,1e-05,1e-05,-5e-05,2e-05,3e-05,3e-05,5,29
22217,0,3e-05,1e-05,1e-05,-5e-05,2e-05,3e-05,3e-05,5,29
22218,0,3e-05,1e-05,1e-05,-5e-05,2e-05,3e-05,3e-05,5,29
22219,0,3e-05,1e-05,1e-05,-5e-05,2e-05,3e-05,3e-05,5,29
22220,0,3e-05,1e-05,1e-05,-5e-05,2e-05,3e-05,3e-05,5,29
22221,0,3e-05,1e-05,1e-05,-5e-05,2e-05,3e-05,3e-05,5,29
22222,0,3e-05,1e-05,1e-05,-5e-05,2e-05,3e-05,3e-05,5,29
22223,0,3e-05,1e-05,1e-05,-5e-05,2e-05,3e-05,3e-05,5,29
22224,0,3e-05,1e-05,1e-05,-5e-05,2e-05,3e-05,3e-05,5,29
22225,0,3e-05,1e-05,1e-05,-5e-05,2e-05,3e-05,3e-05,5,29
22226,0,3e-05,1e-05,1e-05,-5e-05,2e-05,3e-05,3e-05,5,29
22227,0,3e-05,1e-05,1e-05,-5e-05,2e-05,3e-05,3e-05,5,29
22228,0,3e-05,1e-05,1e-05,-5e-05,2e-05,3e-05,3e-05,5,29
22229,0.00015,0,5e-05,0.0005,0.00011,-1e-05,-2e-05,0.00019,5,29
22230,-5e-05,2e-05,2e-05,-0.00053,-0.0006,0,1e-05,-7e-05,5,29
22231,4e-05,2e-05,5e-05,0.0004,0.00029,5e-05,4e-05,6e-05,5,29
22232,4e-05,2e-05,5e-05,0.0004,0.00029,5e-05,4e-05,6e-05,5,29
22233,4e-05,2e-05,5e-05,0.0004,0.00029,5e-05,4e-05,6e-05,5,29
22234,4e-05,2e-05,5e-05,0.0004,0.00029,5e-05,4e-05,6e-05,5,29
22235,4e-05,2e-05,5e-05,0.0004,0.00029,5e-05,4e-05,6e-05,5,29
22236,4e-05,2e-05,5e-05,0.0004,0.00029,5e-05,4e-05,6e-05,5,29
22238,4e-05,2e-05,5e-05,0.0004,0.00029,5e-05,4e-05,6e-05,5,29
22239,4e-05,2e-05,5e-05,0.0004,0.00029,5e-05,4e-05,6e-05,5,29
22240,4e-05,2e-05,5e-05,0.0004,0.00029,5e-05,4e-05,6e-05,5,29
22241,4e-05,2e-05,5e-05,0.0004,0.00029,5e-05,4e-05,6e-05,5,29
22242,-3e-05,-4e-05,-9e-05,-0.00016,-1e-05,4e-05,-4e-05,-1e-05,5,29
22243,-2e-05,-4e-05,-0.00014,-0.00042,0.00028,2e-05,2e-05,-1e-05,5,29
22244,-2e-05,-4e-05,-0.00014,-0.00042,0.00028,2e-05,2e-05,-1e-05,5,29
22245,-2e-05,-4e-05,-0.00014,-0.00042,0.00028,2e-05,2e-05,-1e-05,5,29
22246,-2e-05,-4e-05,-0.00014,-0.00042,0.00028,2e-05,2e-05,-1e-05,5,29
22247,-2e-05,-4e-05,-0.00014,-0.00042,0.00028,2e-05,2e-05,-1e-05,5,29
22248,-2e-05,-4e-05,-0.00014,-0.00042,0.00028,2e-05,2e-05,-1e-05,5,29
22249,-2e-05,-4e-05,-0.00014,-0.00042,0.00028,2e-05,2e-05,-1e-05,5,29
22250,-2e-05,-4e-05,-0.00014,-0.00042,0.00028,2e-05,2e-05,-1e-05,5,29
22251,-7e-05,-9e-05,-0.00013,-0.00033,-0.00025,-0.00016,-9e-05,-9e-05,5,29
22252,-7e-05,-9e-05,-0.00013,-0.00033,-0.00025,-0.00016,-9e-05,-9e-05,5,29
22253,-7e-05,-9e-05,-0.00013,-0.00033,-0.00025,-0.00016,-9e-05,-9e-05,5,29
22254,-7e-05,-9e-05,-0.00013,-0.00033,-0.00025,-0.00016,-9e-05,-9e-05,5,29
22255,-7e-05,-9e-05,-0.00013,-0.00033,-0.00025,-0.00016,-9e-05,-9e-05,5,29
22256,-7e-05,-9e-05,-0.00013,-0.00033,-0.00025,-0.00016,-9e-05,-9e-05,5,29
22257,-7e-05,-9e-05,-0.00013,-0.00033,-0.00025,-0.00016,-9e-05,-9e-05,5,29
22258,-7e-05,-9e-05,-0.00013,-0.00033,-0.00025,-0.00016,-9e-05,-9e-05,5,29
22259,-7e-05,-9e-05,-0.00013,-0.00033,-0.00025,-0.00016,-9e-05,-9e-05,5,29
22260,-7e-05,-9e-05,-0.00013,-0.00033,-0.00025,-0.00016,-9e-05,-9e-05,5,29
22261,-7e-05,-9e-05,-0.00013,-0.00033,-0.00025,-0.00016,-9e-05,-9e-05,5,29
22262,-7e-05,-9e-05,-0.00013,-0.00033,-0.00025,-0.00016,-9e-05,-9e-05,5,29
22263,-7e-05,-9e-05,-0.00013,-0.00033,-0.00025,-0.00016,-9e-05,-9e-05,5,29
22264,-7e-05,-9e-05,-0.00013,-0.00033,-0.00025,-0.00016,-9e-05,-9e-05,5,29
22265,-7e-05,-9e-05,-0.00013,-0.00033,-0.00025,-0.00016,-9e-05,-9e-05,5,29
22266,-7e-05,-9e-05,-0.00013,-0.00033,-0.00025,-0.00016,-9e-05,-9e-05,5,29
22267,0,1e-05,4e-05,-0.00018,-0.00046,-9e-05,-5e-05,-4e-05,5,29
22268,8e-05,0.0001,0.0002,0.00081,7e-05,3e-05,3e-05,9e-05,5,29
22269,8e-05,0.0001,0.0002,0.00081,7e-05,3e-05,3e-05,9e-05,5,29
22270,8e-05,0.0001,0.0002,0.00081,7e-05,3e-05,3e-05,9e-05,5,29
22271,8e-05,0.0001,0.0002,0.00081,7e-05,3e-05,3e-05,9e-05,5,29
22272,8e-05,0.0001,0.0002,0.00081,7e-05,3e-05,3e-05,9e-05,5,29
22273,8e-05,0.0001,0.0002,0.00081,7e-05,3e-05,3e-05,9e-05,5,29
22274,8e-05,0.0001,0.0002,0.00081,7e-05,3e-05,3e-05,9e-05,5,29
22275,8e-05,0.0001,0.0002,0.00081,7e-05,3e-05,3e-05,9e-05,5,29
22276,8e-05,0.0001,0.0002,0.00081,7e-05,3e-05,3e-05,9e-05,5,29
22277,8e-05,0.0001,0.0002,0.00081,7e-05,3e-05,3e-05,9e-05,5,29
22278,8e-05,0.0001,0.0002,0.00081,7e-05,3e-05,3e-05,9e-05,5,29
22279,8e-05,0.0001,0.0002,0.00081,7e-05,3e-05,3e-05,9e-05,5,29
22280,8e-05,0.0001,0.0002,0.00081,7e-05,3e-05,3e-05,9e-05,5,29
22281,8e-05,0.0001,0.0002,0.00081,7e-05,3e-05,3e-05,9e-05,5,29
22282,8e-05,0.0001,0.0002,0.00081,7e-05,3e-05,3e-05,9e-05,5,29
22283,8e-05,0.0001,0.0002,0.00081,7e-05,3e-05,3e-05,9e-05,5,29
22284,8e-05,0.0001,0.0002,0.00081,7e-05,3e-05,3e-05,9e-05,5,29
22285,8e-05,0.0001,0.0002,0.00081,7e-05,3e-05,3e-05,9e-05,5,29
22286,8e-05,0.0001,0.0002,0.00081,7e-05,3e-05,3e-05,9e-05,5,29
22288,8e-05,0.0001,0.0002,0.00081,7e-05,3e-05,3e-05,9e-05,5,29
22289,8e-05,0.0001,0.0002,0.00081,7e-05,3e-05,3e-05,9e-05,5,29
22290,8e-05,0.0001,0.0002,0.00081,7e-05,3e-05,3e-05,9e-05,5,29
22291,8e-05,0.0001,0.0002,0.00081,7e-05,3e-05,3e-05,9e-05,5,29
22292,8e-05,0.0001,0.0002,0.00081,7e-05,3e-05,3e-05,9e-05,5,29
22293,8e-05,0.0001,0.0002,0.00081,7e-05,3e-05,3e-05,9e-05,5,29
22294,8e-05,0.0001,0.0002,0.00081,7e-05,3e-05,3e-05,9e-05,5,29
22295,8e-05,0.0001,0.0002,0.00081,7e-05,3e-05,3e-05,9e-05,5,29
22296,8e-05,0.0001,0.0002,0.00081,7e-05,3e-05,3e-05,9e-05,5,29
22297,-0.00023,-9e-05,-6e-05,5e-05,-0.0001,-5e-05,-5e-05,-0.00013,5,29
22298,-2e-05,-1e-05,3e-05,-0.00055,-0.00051,2e-05,2e-05,2e-05,5,29
22299,-2e-05,-1e-05,3e-05,-0.00055,-0.00051,2e-05,2e-05,2e-05,5,29
22300,-2e-05,-1e-05,3e-05,-0.00055,-0.00051,2e-05,2e-05,2e-05,5,29
22301,-2e-05,-1e-05,3e-05,-0.00055,-0.00051,2e-05,2e-05,2e-05,5,29
22302,-2e-05,-1e-05,3e-05,-0.00055,-0.00051,2e-05,2e-05,2e-05,5,29
22303,-2e-05,-1e-05,3e-05,-0.00055,-0.00051,2e-05,2e-05,2e-05,5,29
22304,-2e-05,-1e-05,3e-05,-0.00055,-0.00051,2e-05,2e-05,2e-05,5,29
22305,-2e-05,-1e-05,3e-05,-0.00055,-0.00051,2e-05,2e-05,2e-05,5,29
22306,-2e-05,-1e-05,3e-05,-0.00055,-0.00051,2e-05,2e-05,2e-05,5,29
22307,-2e-05,-1e-05,3e-05,-0.00055,-0.00051,2e-05,2e-05,2e-05,5,29
22308,-2e-05,-1e-05,3e-05,-0.00055,-0.00051,2e-05,2e-05,2e-05,5,29
22309,-2e-05,-1e-05,3e-05,-0.00055,-0.00051,2e-05,2e-05,2e-05,5,29
22310,-2e-05,-1e-05,3e-05,-0.00055,-0.00051,2e-05,2e-05,2e-05,5,29
22311,-1e-05,5e-05,8e-05,-5e-05,-0.00027,-2e-05,1e-05,-6e-05,5,29
22312,-1e-05,5e-05,8e-05,-5e-05,-0.00027,-2e-05,1e-05,-6e-05,5,29
22313,1e-05,-5e-05,-7e-05,0.00016,0.00023,-2e-05,-2e-05,-1e-05,5,29
22314,1e-05,-5e-05,-7e-05,0.00016,0.00023,-2e-05,-2e-05,-1e-05,5,29
22315,1e-05,-5e-05,-7e-05,0.00016,0.00023,-2e-05,-2e-05,-1e-05,5,29
22316,1e-05,-5e-05,-7e-05,0.00016,0.00023,-2e-05,-2e-05,-1e-05,5,29
22317,1e-05,-5e-05,-7e-05,0.00016,0.00023,-2e-05,-2e-05,-1e-05,5,29
22318,1e-05,-5e-05,-7e-05,0.00016,0.00023,-2e-05,-2e-05,-1e-05,5,29
22319,1e-05,-5e-05,-7e-05,0.00016,0.00023,-2e-05,-2e-05,-1e-05,5,29
22320,1e-05,-5e-05,-7e-05,0.00016,0.00023,-2e-05,-2e-05,-1e-05,5,29
22321,1e-05,-5e-05,-7e-05,0.00016,0.00023,-2e-05,-2e-05,-1e-05,5,29
22322,1e-05,-5e-05,-7e-05,0.00016,0.00023,-2e-05,-2e-05,-1e-05,5,29
22323,1e-05,-5e-05,-7e-05,0.00016,0.00023,-2e-05,-2e-05,-1e-05,5,29
22324,1e-05,-5e-05,-7e-05,0.00016,0.00023,-2e-05,-2e-05,-1e-05,5,29
22325,1e-05,-5e-05,-7e-05,0.00016,0.00023,-2e-05,-2e-05,-1e-05,5,29
22326,1e-05,-5e-05,-7e-05,0.00016,0.00023,-2e-05,-2e-05,-1e-05,5,29
22327,0.00015,0.0001,7e-05,-0.0002,-0.00039,6e-05,9e-05,-2e-05,5,29
22328,0.00015,0.0001,7e-05,-0.0002,-0.00039,6e-05,9e-05,-2e-05,5,29
22329,0.00015,0.0001,7e-05,-0.0002,-0.00039,6e-05,9e-05,-2e-05,5,29
22330,0.00015,0.0001,7e-05,-0.0002,-0.00039,6e-05,9e-05,-2e-05,5,29
22331,0.00015,0.0001,7e-05,-0.0002,-0.00039,6e-05,9e-05,-2e-05,5,29
22332,-1e-05,-0.00014,-0.00025,-0.00048,-0.00019,0,-5e-05,-1e-05,5,29
22333,-1e-05,-0.00014,-0.00025,-0.00048,-0.00019,0,-5e-05,-1e-05,5,29
22334,-1e-05,-0.00014,-0.00025,-0.00048,-0.00019,0,-5e-05,-1e-05,5,29
22335,-1e-05,-0.00014,-0.00025,-0.00048,-0.00019,0,-5e-05,-1e-05,5,29
22336,-1e-05,-0.00014,-0.00025,-0.00048,-0.00019,0,-5e-05,-1e-05,5,29
22339,-1e-05,-0.00014,-0.00025,-0.00048,-0.00019,0,-5e-05,-1e-05,5,29
22340,-1e-05,-0.00014,-0.00025,-0.00048,-0.00019,0,-5e-05,-1e-05,5,29
22341,-1e-05,-0.00014,-0.00025,-0.00048,-0.00019,0,-5e-05,-1e-05,5,29
22342,-1e-05,-0.00014,-0.00025,-0.00048,-0.00019,0,-5e-05,-1e-05,5,29
22343,-1e-05,-0.00014,-0.00025,-0.00048,-0.00019,0,-5e-05,-1e-05,5,29
22344,-1e-05,-0.00014,-0.00025,-0.00048,-0.00019,0,-5e-05,-1e-05,5,29
22345,-1e-05,-0.00014,-0.00025,-0.00048,-0.00019,0,-5e-05,-1e-05,5,29
22346,-1e-05,-0.00014,-0.00025,-0.00048,-0.00019,0,-5e-05,-1e-05,5,29
22347,-1e-05,-0.00014,-0.00025,-0.00048,-0.00019,0,-5e-05,-1e-05,5,29
22348,-1e-05,-0.00014,-0.00025,-0.00048,-0.00019,0,-5e-05,-1e-05,5,29
22349,-1e-05,-0.00014,-0.00025,-0.00048,-0.00019,0,-5e-05,-1e-05,5,29
22350,-1e-05,-0.00014,-0.00025,-0.00048,-0.00019,0,-5e-05,-1e-05,5,29
22351,-4e-05,4e-05,8e-05,0.0002,0.00053,0.00012,4e-05,5e-05,5,29
22352,-4e-05,4e-05,8e-05,0.0002,0.00053,0.00012,4e-05,5e-05,5,29
22353,-4e-05,4e-05,8e-05,0.0002,0.00053,0.00012,4e-05,5e-05,5,29
22354,-4e-05,4e-05,8e-05,0.0002,0.00053,0.00012,4e-05,5e-05,5,29
22355,-4e-05,4e-05,8e-05,0.0002,0.00053,0.00012,4e-05,5e-05,5,29
22356,-0.0001,-8e-05,-9e-05,-0.00043,-0.00023,-0.00014,-0.0001,-0.0001,5,29
22357,-0.0001,-8e-05,-9e-05,-0.00043,-0.00023,-0.00014,-0.0001,-0.0001,5,29
22358,-0.0001,-8e-05,-9e-05,-0.00043,-0.00023,-0.00014,-0.0001,-0.0001,5,29
22359,-0.0001,-8e-05,-9e-05,-0.00043,-0.00023,-0.00014,-0.0001,-0.0001,5,29
22360,-0.0001,-8e-05,-9e-05,-0.00043,-0.00023,-0.00014,-0.0001,-0.0001,5,29
22361,-0.0001,-8e-05,-9e-05,-0.00043,-0.00023,-0.00014,-0.0001,-0.0001,5,29
22362,-0.0001,-8e-05,-9e-05,-0.00043,-0.00023,-0.00014,-0.0001,-0.0001,5,29
22363,0.0001,8e-05,6e-05,0.00014,-0.00013,0,2e-05,7e-05,5,29
22364,0.0001,8e-05,6e-05,0.00014,-0.00013,0,2e-05,7e-05,5,29
22365,0.0001,8e-05,6e-05,0.00014,-0.00013,0,2e-05,7e-05,5,29
22366,0.0001,8e-05,6e-05,0.00014,-0.00013,0,2e-05,7e-05,5,29
22367,0.0001,8e-05,6e-05,0.00014,-0.00013,0,2e-05,7e-05,5,29
22368,0.0001,8e-05,6e-05,0.00014,-0.00013,0,2e-05,7e-05,5,29
22369,0.0001,8e-05,6e-05,0.00014,-0.00013,0,2e-05,7e-05,5,29
22370,0.0001,8e-05,6e-05,0.00014,-0.00013,0,2e-05,7e-05,5,29
22371,0.0001,8e-05,6e-05,0.00014,-0.00013,0,2e-05,7e-05,5,29
22372,0.0001,8e-05,6e-05,0.00014,-0.00013,0,2e-05,7e-05,5,29
22373,1e-05,-1e-05,1e-05,0.00014,-1e-05,-5e-05,-2e-05,1e-05,5,29
22374,1e-05,-1e-05,1e-05,0.00014,-1e-05,-5e-05,-2e-05,1e-05,5,29
22375,1e-05,-1e-05,1e-05,0.00014,-1e-05,-5e-05,-2e-05,1e-05,5,29
22376,1e-05,-1e-05,1e-05,0.00014,-1e-05,-5e-05,-2e-05,1e-05,5,29
22377,1e-05,-1e-05,1e-05,0.00014,-1e-05,-5e-05,-2e-05,1e-05,5,29
22378,1e-05,-1e-05,1e-05,0.00014,-1e-05,-5e-05,-2e-05,1e-05,5,29
22379,1e-05,-1e-05,1e-05,0.00014,-1e-05,-5e-05,-2e-05,1e-05,5,29
22380,1e-05,-1e-05,1e-05,0.00014,-1e-05,-5e-05,-2e-05,1e-05,5,29
22381,1e-05,-1e-05,1e-05,0.00014,-1e-05,-5e-05,-2e-05,1e-05,5,29
22382,1e-05,-1e-05,1e-05,0.00014,-1e-05,-5e-05,-2e-05,1e-05,5,29
22383,1e-05,-1e-05,1e-05,0.00014,-1e-05,-5e-05,-2e-05,1e-05,5,29
22384,1e-05,-1e-05,1e-05,0.00014,-1e-05,-5e-05,-2e-05,1e-05,5,29
22385,1e-05,-1e-05,1e-05,0.00014,-1e-05,-5e-05,-2e-05,1e-05,5,29
22386,1e-05,-1e-05,1e-05,0.00014,-1e-05,-5e-05,-2e-05,1e-05,5,29
22388,-0.0001,-5e-05,-6e-05,-0.0006,-0.00038,-7e-05,-3e-05,-5e-05,5,29
22389,8e-05,6e-05,9e-05,0.00057,0.00067,7e-05,3e-05,5e-05,5,29
22390,8e-05,6e-05,9e-05,0.00057,0.00067,7e-05,3e-05,5e-05,5,29
22391,8e-05,6e-05,9e-05,0.00057,0.00067,7e-05,3e-05,5e-05,5,29
22392,8e-05,6e-05,9e-05,0.00057,0.00067,7e-05,3e-05,5e-05,5,29
22393,8e-05,6e-05,9e-05,0.00057,0.00067,7e-05,3e-05,5e-05,5,29
22394,8e-05,6e-05,9e-05,0.00057,0.00067,7e-05,3e-05,5e-05,5,29
22395,8e-05,6e-05,9e-05,0.00057,0.00067,7e-05,3e-05,5e-05,5,29
22396,8e-05,6e-05,9e-05,0.00057,0.00067,7e-05,3e-05,5e-05,5,29
22397,8e-05,6e-05,9e-05,0.00057,0.00067,7e-05,3e-05,5e-05,5,29
22398,8e-05,6e-05,9e-05,0.00057,0.00067,7e-05,3e-05,5e-05,5,29
22399,8e-05,6e-05,9e-05,0.00057,0.00067,7e-05,3e-05,5e-05,5,29
22400,8e-05,6e-05,9e-05,0.00057,0.00067,7e-05,3e-05,5e-05,5,29
22401,8e-05,6e-05,9e-05,0.00057,0.00067,7e-05,3e-05,5e-05,5,29
22402,8e-05,6e-05,9e-05,0.00057,0.00067,7e-05,3e-05,5e-05,5,29
22403,8e-05,6e-05,9e-05,0.00057,0.00067,7e-05,3e-05,5e-05,5,29
22404,8e-05,6e-05,9e-05,0.00057,0.00067,7e-05,3e-05,5e-05,5,29
22405,8e-05,6e-05,9e-05,0.00057,0.00067,7e-05,3e-05,5e-05,5,29
22406,8e-05,6e-05,9e-05,0.00057,0.00067,7e-05,3e-05,5e-05,5,29
22407,8e-05,6e-05,9e-05,0.00057,0.00067,7e-05,3e-05,5e-05,5,29
22408,8e-05,6e-05,9e-05,0.00057,0.00067,7e-05,3e-05,5e-05,5,29
22409,0.00011,5e-05,4e-05,-6e-05,6e-05,7e-05,1e-05,4e-05,5,29
22410,-6e-05,-9e-05,-0.00012,-5e-05,-0.00025,-7e-05,-3e-05,-4e-05,5,29
22411,-0.00021,-0.00015,-0.00011,-0.00017,-0.0001,-0.00014,-7e-05,-0.00016,5,29
22412,-0.00021,-0.00015,-0.00011,-0.00017,-0.0001,-0.00014,-7e-05,-0.00016,5,29
22413,-0.00021,-0.00015,-0.00011,-0.00017,-0.0001,-0.00014,-7e-05,-0.00016,5,29
22414,-0.00021,-0.00015,-0.00011,-0.00017,-0.0001,-0.00014,-7e-05,-0.00016,5,29
22415,-0.00021,-0.00015,-0.00011,-0.00017,-0.0001,-0.00014,-7e-05,-0.00016,5,29
22416,-0.00021,-0.00015,-0.00011,-0.00017,-0.0001,-0.00014,-7e-05,-0.00016,5,29
22417,-0.00021,-0.00015,-0.00011,-0.00017,-0.0001,-0.00014,-7e-05,-0.00016,5,29
22418,-0.00021,-0.00015,-0.00011,-0.00017,-0.0001,-0.00014,-7e-05,-0.00016,5,29
22419,-0.00021,-0.00015,-0.00011,-0.00017,-0.0001,-0.00014,-7e-05,-0.00016,5,29
22420,-0.00021,-0.00015,-0.00011,-0.00017,-0.0001,-0.00014,-7e-05,-0.00016,5,29
22421,-0.00021,-0.00015,-0.00011,-0.00017,-0.0001,-0.00014,-7e-05,-0.00016,5,29
22422,-0.00021,-0.00015,-0.00011,-0.00017,-0.0001,-0.00014,-7e-05,-0.00016,5,29
22423,-0.00021,-0.00015,-0.00011,-0.00017,-0.0001,-0.00014,-7e-05,-0.00016,5,29
22424,-0.00021,-0.00015,-0.00011,-0.00017,-0.0001,-0.00014,-7e-05,-0.00016,5,29
22425,-0.00021,-0.00015,-0.00011,-0.00017,-0.0001,-0.00014,-7e-05,-0.00016,5,29
22426,-0.00021,-0.00015,-0.00011,-0.00017,-0.0001,-0.00014,-7e-05,-0.00016,5,29
22427,-0.00021,-0.00015,-0.00011,-0.00017,-0.0001,-0.00014,-7e-05,-0.00016,5,29
22428,-0.00021,-0.00015,-0.00011,-0.00017,-0.0001,-0.00014,-7e-05,-0.00016,5,29
22429,-0.00021,-0.00015,-0.00011,-0.00017,-0.0001,-0.00014,-7e-05,-0.00016,5,29
22430,-0.00021,-0.00015,-0.00011,-0.00017,-0.0001,-0.00014,-7e-05,-0.00016,5,29
22431,-0.00021,-0.00015,-0.00011,-0.00017,-0.0001,-0.00014,-7e-05,-0.00016,5,29
22432,-0.0001,-1e-05,-1e-05,-3e-05,0.00029,-8e-05,-6e-05,-9e-05,5,29
22433,-0.0001,-1e-05,-1e-05,-3e-05,0.00029,-8e-05,-6e-05,-9e-05,5,29
22434,4e-05,0,-1e-05,0.00025,0.00029,7e-05,6e-05,2e-05,5,29
22435,4e-05,0,-1e-05,0.00025,0.00029,7e-05,6e-05,2e-05,5,29
22436,4e-05,0,-1e-05,0.00025,0.00029,7e-05,6e-05,2e-05,5,29
22438,4e-05,0,-1e-05,0.00025,0.00029,7e-05,6e-05,2e-05,5,29
22439,4e-05,0,-1e-05,0.00025,0.00029,7e-05,6e-05,2e-05,5,29
22440,4e-05,0,-1e-05,0.00025,0.00029,7e-05,6e-05,2e-05,5,29
22441,4e-05,0,-1e-05,0.00025,0.00029,7e-05,6e-05,2e-05,5,29
22442,4e-05,0,-1e-05,0.00025,0.00029,7e-05,6e-05,2e-05,5,29
22443,4e-05,0,-1e-05,0.00025,0.00029,7e-05,6e-05,2e-05,5,29
22444,4e-05,0,-1e-05,0.00025,0.00029,7e-05,6e-05,2e-05,5,29
22445,4e-05,0,-1e-05,0.00025,0.00029,7e-05,6e-05,2e-05,5,29
22446,4e-05,0,-1e-05,0.00025,0.00029,7e-05,6e-05,2e-05,5,29
22447,4e-05,0,-1e-05,0.00025,0.00029,7e-05,6e-05,2e-05,5,29
22448,-6e-05,-5e-05,-3e-05,0.00017,0.00015,-4e-05,-4e-05,-1e-05,5,29
22449,-6e-05,-5e-05,-3e-05,0.00017,0.00015,-4e-05,-4e-05,-1e-05,5,29
22450,-6e-05,-5e-05,-3e-05,0.00017,0.00015,-4e-05,-4e-05,-1e-05,5,29
22451,-6e-05,-5e-05,-3e-05,0.00017,0.00015,-4e-05,-4e-05,-1e-05,5,29
22452,-6e-05,-5e-05,-3e-05,0.00017,0.00015,-4e-05,-4e-05,-1e-05,5,29
22453,3e-05,-3e-05,-0.0001,-0.00024,5e-05,-1e-05,-1e-05,4e-05,5,29
22454,3e-05,-3e-05,-0.0001,-0.00024,5e-05,-1e-05,-1e-05,4e-05,5,29
22455,3e-05,-3e-05,-0.0001,-0.00024,5e-05,-1e-05,-1e-05,4e-05,5,29
22456,3e-05,-3e-05,-0.0001,-0.00024,5e-05,-1e-05,-1e-05,4e-05,5,29
22457,3e-05,-3e-05,-0.0001,-0.00024,5e-05,-1e-05,-1e-05,4e-05,5,29
22458,3e-05,-3e-05,-0.0001,-0.00024,5e-05,-1e-05,-1e-05,4e-05,5,29
22459,3e-05,-3e-05,-0.0001,-0.00024,5e-05,-1e-05,-1e-05,4e-05,5,29
22460,3e-05,-3e-05,-0.0001,-0.00024,5e-05,-1e-05,-1e-05,4e-05,5,29
22461,3e-05,-3e-05,-0.0001,-0.00024,5e-05,-1e-05,-1e-05,4e-05,5,29
22462,3e-05,-3e-05,-0.0001,-0.00024,5e-05,-1e-05,-1e-05,4e-05,5,29
22463,3e-05,-3e-05,-0.0001,-0.00024,5e-05,-1e-05,-1e-05,4e-05,5,29
22464,3e-05,-3e-05,-0.0001,-0.00024,5e-05,-1e-05,-1e-05,4e-05,5,29
22465,3e-05,-3e-05,-0.0001,-0.00024,5e-05,-1e-05,-1e-05,4e-05,5,29
22466,3e-05,-3e-05,-0.0001,-0.00024,5e-05,-1e-05,-1e-05,4e-05,5,29
22467,3e-05,-3e-05,-0.0001,-0.00024,5e-05,-1e-05,-1e-05,4e-05,5,29
22468,3e-05,-3e-05,-0.0001,-0.00024,5e-05,-1e-05,-1e-05,4e-05,5,29
22469,3e-05,-3e-05,-0.0001,-0.00024,5e-05,-1e-05,-1e-05,4e-05,5,29
22470,3e-05,-3e-05,-0.0001,-0.00024,5e-05,-1e-05,-1e-05,4e-05,5,29
22471,-1e-05,-1e-05,-0.00011,-0.00038,-0.00012,6e-05,0,0,5,29
22472,-1e-05,-1e-05,-0.00011,-0.00038,-0.00012,6e-05,0,0,5,29
22473,-1e-05,-1e-05,-0.00011,-0.00038,-0.00012,6e-05,0,0,5,29
22474,-1e-05,-1e-05,-0.00011,-0.00038,-0.00012,6e-05,0,0,5,29
22475,-1e-05,-1e-05,-0.00011,-0.00038,-0.00012,6e-05,0,0,5,29
22476,2e-05,1e-05,2e-05,-0.00036,-0.00019,-3e-05,-5e-05,0,5,29
22477,2e-05,1e-05,2e-05,-0.00036,-0.00019,-3e-05,-5e-05,0,5,29
22478,2e-05,1e-05,2e-05,-0.00036,-0.00019,-3e-05,-5e-05,0,5,29
22479,2e-05,1e-05,2e-05,-0.00036,-0.00019,-3e-05,-5e-05,0,5,29
22480,2e-05,1e-05,2e-05,-0.00036,-0.00019,-3e-05,-5e-05,0,5,29
22481,2e-05,1e-05,2e-05,-0.00036,-0.00019,-3e-05,-5e-05,0,5,29
22482,2e-05,1e-05,2e-05,-0.00036,-0.00019,-3e-05,-5e-05,0,5,29
22483,-4e-05,0,-1e-05,0.00029,0.00026,-2e-05,1e-05,3e-05,5,29
22484,0,-1e-05,2e-05,0.0005,-0.00019,-5e-05,-3e-05,-2e-05,5,29
22485,0,-1e-05,2e-05,0.0005,-0.00019,-5e-05,-3e-05,-2e-05,5,29
22486,0,-1e-05,2e-05,0.0005,-0.00019,-5e-05,-3e-05,-2e-05,5,29
22488,0,-1e-05,2e-05,0.0005,-0.00019,-5e-05,-3e-05,-2e-05,5,29
22489,0,-1e-05,2e-05,0.0005,-0.00019,-5e-05,-3e-05,-2e-05,5,29
22490,0,-1e-05,2e-05,0.0005,-0.00019,-5e-05,-3e-05,-2e-05,5,29
22491,0,-1e-05,2e-05,0.0005,-0.00019,-5e-05,-3e-05,-2e-05,5,29
22492,-5e-05,-5e-05,-2e-05,0.00021,-0.00018,-6e-05,-3e-05,-7e-05,5,29
22494,-5e-05,-5e-05,-2e-05,0.00021,-0.00018,-6e-05,-3e-05,-7e-05,5,29
22495,-5e-05,-5e-05,-2e-05,0.00021,-0.00018,-6e-05,-3e-05,-7e-05,5,29
22496,-5e-05,-5e-05,-2e-05,0.00021,-0.00018,-6e-05,-3e-05,-7e-05,5,29
22497,-5e-05,-5e-05,-2e-05,0.00021,-0.00018,-6e-05,-3e-05,-7e-05,5,29
22498,-5e-05,-5e-05,-2e-05,0.00021,-0.00018,-6e-05,-3e-05,-7e-05,5,29
22499,-5e-05,-5e-05,-2e-05,0.00021,-0.00018,-6e-05,-3e-05,-7e-05,5,29
22500,-5e-05,-5e-05,-2e-05,0.00021,-0.00018,-6e-05,-3e-05,-7e-05,5,29
22501,-5e-05,-5e-05,-2e-05,0.00021,-0.00018,-6e-05,-3e-05,-7e-05,5,29
22502,-5e-05,-5e-05,-2e-05,0.00021,-0.00018,-6e-05,-3e-05,-7e-05,5,29
22503,-5e-05,-5e-05,-2e-05,0.00021,-0.00018,-6e-05,-3e-05,-7e-05,5,29
22504,-5e-05,-5e-05,-2e-05,0.00021,-0.00018,-6e-05,-3e-05,-7e-05,5,29
22505,-5e-05,-5e-05,-2e-05,0.00021,-0.00018,-6e-05,-3e-05,-7e-05,5,29
22506,-5e-05,-5e-05,-2e-05,0.00021,-0.00018,-6e-05,-3e-05,-7e-05,5,29
22507,-2e-05,-4e-05,-1e-05,-0.00012,-4e-05,-3e-05,-2e-05,-1e-05,5,29
22508,-2e-05,-4e-05,-1e-05,-0.00012,-4e-05,-3e-05,-2e-05,-1e-05,5,29
22509,0.00011,2e-05,6e-05,5e-05,-0.00024,2e-05,0,-3e-05,5,29
22510,0.00011,2e-05,6e-05,5e-05,-0.00024,2e-05,0,-3e-05,5,29
22511,0.00011,2e-05,6e-05,5e-05,-0.00024,2e-05,0,-3e-05,5,29
22512,0.00011,2e-05,6e-05,5e-05,-0.00024,2e-05,0,-3e-05,5,29
22513,0.00011,2e-05,6e-05,5e-05,-0.00024,2e-05,0,-3e-05,5,29
22514,0.00011,2e-05,6e-05,5e-05,-0.00024,2e-05,0,-3e-05,5,29
22515,0.00011,2e-05,6e-05,5e-05,-0.00024,2e-05,0,-3e-05,5,29
22516,0.00011,2e-05,6e-05,5e-05,-0.00024,2e-05,0,-3e-05,5,29
22517,0.00011,2e-05,6e-05,5e-05,-0.00024,2e-05,0,-3e-05,5,29
22518,0.00011,2e-05,6e-05,5e-05,-0.00024,2e-05,0,-3e-05,5,29
22519,0.00011,2e-05,6e-05,5e-05,-0.00024,2e-05,0,-3e-05,5,29
22520,0.00011,2e-05,6e-05,5e-05,-0.00024,2e-05,0,-3e-05,5,29
22521,0.00011,2e-05,6e-05,5e-05,-0.00024,2e-05,0,-3e-05,5,29
22522,0.00011,2e-05,6e-05,5e-05,-0.00024,2e-05,0,-3e-05,5,29
22523,0.00011,2e-05,6e-05,5e-05,-0.00024,2e-05,0,-3e-05,5,29
22524,0.00011,2e-05,6e-05,5e-05,-0.00024,2e-05,0,-3e-05,5,29
22525,0.00011,2e-05,6e-05,5e-05,-0.00024,2e-05,0,-3e-05,5,29
22526,0.00011,2e-05,6e-05,5e-05,-0.00024,2e-05,0,-3e-05,5,29
22527,0.00011,2e-05,6e-05,5e-05,-0.00024,2e-05,0,-3e-05,5,29
22528,0.00011,2e-05,6e-05,5e-05,-0.00024,2e-05,0,-3e-05,5,29
22529,0.00011,2e-05,6e-05,5e-05,-0.00024,2e-05,0,-3e-05,5,29
22530,2e-05,-2e-05,-9e-05,-0.00045,8e-05,3e-05,1e-05,1e-05,5,29
22531,-4e-05,-7e-05,-6e-05,-0.0003,-1e-05,-3e-05,-5e-05,-1e-05,5,29
22533,-4e-05,-7e-05,-6e-05,-0.0003,-1e-05,-3e-05,-5e-05,-1e-05,5,29
22534,-4e-05,-7e-05,-6e-05,-0.0003,-1e-05,-3e-05,-5e-05,-1e-05,5,29
48199,-1e-05,0.00012,5e-05,-0.00025,-9e-05,0.0001,7e-05,3e-05,5,29
48200,-1e-05,0.00012,5e-05,-0.00025,-9e-05,0.0001,7e-05,3e-05,5,29
48201,-1e-05,0.00012,5e-05,-0.00025,-9e-05,0.0001,7e-05,3e-05,5,29
48202,-1e-05,0.00012,5e-05,-0.00025,-9e-05,0.0001,7e-05,3e-05,5,29
48203,-1e-05,0.00012,5e-05,-0.00025,-9e-05,0.0001,7e-05,3e-05,5,29
48204,-1e-05,0.00012,5e-05,-0.00025,-9e-05,0.0001,7e-05,3e-05,5,29
48205,-1e-05,0.00012,5e-05,-0.00025,-9e-05,0.0001,7e-05,3e-05,5,29
48206,-1e-05,0.00012,5e-05,-0.00025,-9e-05,0.0001,7e-05,3e-05,5,29
48207,-1e-05,0.00012,5e-05,-0.00025,-9e-05,0.0001,7e-05,3e-05,5,29
48208,-1e-05,0.00012,5e-05,-0.00025,-9e-05,0.0001,7e-05,3e-05,5,29
48209,-1e-05,0.00012,5e-05,-0.00025,-9e-05,0.0001,7e-05,3e-05,5,29
48210,-1e-05,0.00012,5e-05,-0.00025,-9e-05,0.0001,7e-05,3e-05,5,29
48211,-1e-05,0.00012,5e-05,-0.00025,-9e-05,0.0001,7e-05,3e-05,5,29
48212,-1e-05,0.00012,5e-05,-0.00025,-9e-05,0.0001,7e-05,3e-05,5,29
48213,-1e-05,0.00012,5e-05,-0.00025,-9e-05,0.0001,7e-05,3e-05,5,29
48214,-1e-05,0.00012,5e-05,-0.00025,-9e-05,0.0001,7e-05,3e-05,5,29
48215,-1e-05,0.00012,5e-05,-0.00025,-9e-05,0.0001,7e-05,3e-05,5,29
48216,-1e-05,0.00012,5e-05,-0.00025,-9e-05,0.0001,7e-05,3e-05,5,29
48217,1e-05,-2e-05,4e-05,0.00034,0.00042,8e-05,0,1e-05,5,29
48218,4e-05,0.0001,0.00015,0.00033,0.00021,0.00015,8e-05,7e-05,5,29
48219,4e-05,0.0001,0.00015,0.00033,0.00021,0.00015,8e-05,7e-05,5,29
48220,4e-05,0.0001,0.00015,0.00033,0.00021,0.00015,8e-05,7e-05,5,29
48221,4e-05,0.0001,0.00015,0.00033,0.00021,0.00015,8e-05,7e-05,5,29
48222,4e-05,0.0001,0.00015,0.00033,0.00021,0.00015,8e-05,7e-05,5,29
48223,4e-05,0.0001,0.00015,0.00033,0.00021,0.00015,8e-05,7e-05,5,29
48224,4e-05,0.0001,0.00015,0.00033,0.00021,0.00015,8e-05,7e-05,5,29
48225,4e-05,0.0001,0.00015,0.00033,0.00021,0.00015,8e-05,7e-05,5,29
48226,4e-05,0.0001,0.00015,0.00033,0.00021,0.00015,8e-05,7e-05,5,29
48227,4e-05,0.0001,0.00015,0.00033,0.00021,0.00015,8e-05,7e-05,5,29
48228,4e-05,0.0001,0.00015,0.00033,0.00021,0.00015,8e-05,7e-05,5,29
48229,4e-05,0.0001,0.00015,0.00033,0.00021,0.00015,8e-05,7e-05,5,29
48230,4e-05,0.0001,0.00015,0.00033,0.00021,0.00015,8e-05,7e-05,5,29
48231,4e-05,0.0001,0.00015,0.00033,0.00021,0.00015,8e-05,7e-05,5,29
48232,4e-05,0.0001,0.00015,0.00033,0.00021,0.00015,8e-05,7e-05,5,29
48233,4e-05,0.0001,0.00015,0.00033,0.00021,0.00015,8e-05,7e-05,5,29
48234,4e-05,0.0001,0.00015,0.00033,0.00021,0.00015,8e-05,7e-05,5,29
48235,4e-05,0.0001,0.00015,0.00033,0.00021,0.00015,8e-05,7e-05,5,29
48236,4e-05,0.0001,0.00015,0.00033,0.00021,0.00015,8e-05,7e-05,5,29
48238,4e-05,0.0001,0.00015,0.00033,0.00021,0.00015,8e-05,7e-05,5,29
48240,-6e-05,-4e-05,-8e-05,0.00085,0.00015,-0.00018,-8e-05,-5e-05,5,29
48241,-3e-05,-3e-05,-6e-05,-0.0003,-0.00043,-9e-05,-5e-05,-5e-05,5,29
48242,-3e-05,-3e-05,-6e-05,-0.0003,-0.00043,-9e-05,-5e-05,-5e-05,5,29
48243,-3e-05,-3e-05,-6e-05,-0.0003,-0.00043,-9e-05,-5e-05,-5e-05,5,29
48244,-3e-05,-3e-05,-6e-05,-0.0003,-0.00043,-9e-05,-5e-05,-5e-05,5,29
48245,-3e-05,-3e-05,-6e-05,-0.0003,-0.00043,-9e-05,-5e-05,-5e-05,5,29
48246,-3e-05,-3e-05,-6e-05,-0.0003,-0.00043,-9e-05,-5e-05,-5e-05,5,29
48247,-3e-05,-3e-05,-6e-05,-0.0003,-0.00043,-9e-05,-5e-05,-5e-05,5,29
48248,-3e-05,-3e-05,-6e-05,-0.0003,-0.00043,-9e-05,-5e-05,-5e-05,5,29
48249,-3e-05,-3e-05,-6e-05,-0.0003,-0.00043,-9e-05,-5e-05,-5e-05,5,29
48250,-3e-05,-3e-05,-6e-05,-0.0003,-0.00043,-9e-05,-5e-05,-5e-05,5,29
48251,-3e-05,-3e-05,-6e-05,-0.0003,-0.00043,-9e-05,-5e-05,-5e-05,5,29
48252,-3e-05,-3e-05,-6e-05,-0.0003,-0.00043,-9e-05,-5e-05,-5e-05,5,29
48253,-3e-05,-3e-05,-6e-05,-0.0003,-0.00043,-9e-05,-5e-05,-5e-05,5,29
48254,-1e-05,6e-05,-0.00023,-0.0012,-0.00053,-0.0002,-7e-05,0,5,29
48255,1e-05,3e-05,0.00019,0.00032,-0.00071,-0.00013,-7e-05,2e-05,5,29
48256,8e-05,0.00014,0.00032,0.00024,0.00062,0.00015,8e-05,3e-05,5,29
48257,8e-05,0.00014,0.00032,0.00024,0.00062,0.00015,8e-05,3e-05,5,29
48258,8e-05,0.00014,0.00032,0.00024,0.00062,0.00015,8e-05,3e-05,5,29
48259,8e-05,0.00014,0.00032,0.00024,0.00062,0.00015,8e-05,3e-05,5,29
48260,8e-05,0.00014,0.00032,0.00024,0.00062,0.00015,8e-05,3e-05,5,29
48261,8e-05,0.00014,0.00032,0.00024,0.00062,0.00015,8e-05,3e-05,5,29
48262,8e-05,0.00014,0.00032,0.00024,0.00062,0.00015,8e-05,3e-05,5,29
48263,8e-05,0.00014,0.00032,0.00024,0.00062,0.00015,8e-05,3e-05,5,29
48264,8e-05,0.00014,0.00032,0.00024,0.00062,0.00015,8e-05,3e-05,5,29
48265,8e-05,0.00014,0.00032,0.00024,0.00062,0.00015,8e-05,3e-05,5,29
48266,8e-05,0.00014,0.00032,0.00024,0.00062,0.00015,8e-05,3e-05,5,29
48267,8e-05,0.00014,0.00032,0.00024,0.00062,0.00015,8e-05,3e-05,5,29
48268,8e-05,0.00014,0.00032,0.00024,0.00062,0.00015,8e-05,3e-05,5,29
48269,8e-05,0.00014,0.00032,0.00024,0.00062,0.00015,8e-05,3e-05,5,29
48270,8e-05,0.00014,0.00032,0.00024,0.00062,0.00015,8e-05,3e-05,5,29
48271,8e-05,0.00014,0.00032,0.00024,0.00062,0.00015,8e-05,3e-05,5,29
48272,8e-05,0.00014,0.00032,0.00024,0.00062,0.00015,8e-05,3e-05,5,29
48273,8e-05,0.00014,0.00032,0.00024,0.00062,0.00015,8e-05,3e-05,5,29
48274,8e-05,0.00014,0.00032,0.00024,0.00062,0.00015,8e-05,3e-05,5,29
48275,8e-05,0.00014,0.00032,0.00024,0.00062,0.00015,8e-05,3e-05,5,29
48276,8e-05,0.00014,0.00032,0.00024,0.00062,0.00015,8e-05,3e-05,5,29
48277,-0.00015,-0.0002,-0.00026,-0.00061,-0.00018,-4e-05,-5e-05,-6e-05,5,29
48278,0.00017,0.00018,8e-05,-0.00038,-0.00088,-0.0001,1e-05,6e-05,5,29
48279,0.00017,0.00018,8e-05,-0.00038,-0.00088,-0.0001,1e-05,6e-05,5,29
48280,0.00017,0.00018,8e-05,-0.00038,-0.00088,-0.0001,1e-05,6e-05,5,29
48281,0.00017,0.00018,8e-05,-0.00038,-0.00088,-0.0001,1e-05,6e-05,5,29
48282,0.00017,0.00018,8e-05,-0.00038,-0.00088,-0.0001,1e-05,6e-05,5,29
48283,0.00017,0.00018,8e-05,-0.00038,-0.00088,-0.0001,1e-05,6e-05,5,29
48284,0.00017,0.00018,8e-05,-0.00038,-0.00088,-0.0001,1e-05,6e-05,5,29
48285,0.00017,0.00018,8e-05,-0.00038,-0.00088,-0.0001,1e-05,6e-05,5,29
48286,0.00017,0.00018,8e-05,-0.00038,-0.00088,-0.0001,1e-05,6e-05,5,29
48289,0.00017,0.00018,8e-05,-0.00038,-0.00088,-0.0001,1e-05,6e-05,5,29
48290,0.00017,0.00018,8e-05,-0.00038,-0.00088,-0.0001,1e-05,6e-05,5,29
48291,0.00017,0.00018,8e-05,-0.00038,-0.00088,-0.0001,1e-05,6e-05,5,29
48292,0.00017,0.00018,8e-05,-0.00038,-0.00088,-0.0001,1e-05,6e-05,5,29
48293,0.00017,0.00018,8e-05,-0.00038,-0.00088,-0.0001,1e-05,6e-05,5,29
48294,0.00017,0.00018,8e-05,-0.00038,-0.00088,-0.0001,1e-05,6e-05,5,29
48295,0.00017,0.00018,8e-05,-0.00038,-0.00088,-0.0001,1e-05,6e-05,5,29
48296,0.00017,0.00018,8e-05,-0.00038,-0.00088,-0.0001,1e-05,6e-05,5,29
48297,0.00017,0.00018,8e-05,-0.00038,-0.00088,-0.0001,1e-05,6e-05,5,29
48298,0.00017,0.00018,8e-05,-0.00038,-0.00088,-0.0001,1e-05,6e-05,5,29
48299,0.00017,0.00018,8e-05,-0.00038,-0.00088,-0.0001,1e-05,6e-05,5,29
48300,-0.00014,-0.00016,-0.00028,-0.0006,-9e-05,-5e-05,-5e-05,-7e-05,5,29
48301,8e-05,0.0002,0.00014,-0.00089,-0.00069,-7e-05,2e-05,5e-05,5,29
48302,8e-05,0.0002,0.00014,-0.00089,-0.00069,-7e-05,2e-05,5e-05,5,29
48303,8e-05,0.0002,0.00014,-0.00089,-0.00069,-7e-05,2e-05,5e-05,5,29
48304,8e-05,0.0002,0.00014,-0.00089,-0.00069,-7e-05,2e-05,5e-05,5,29
48305,8e-05,0.0002,0.00014,-0.00089,-0.00069,-7e-05,2e-05,5e-05,5,29
48306,8e-05,0.0002,0.00014,-0.00089,-0.00069,-7e-05,2e-05,5e-05,5,29
48307,8e-05,0.0002,0.00014,-0.00089,-0.00069,-7e-05,2e-05,5e-05,5,29
48308,8e-05,0.0002,0.00014,-0.00089,-0.00069,-7e-05,2e-05,5e-05,5,29
48309,8e-05,0.0002,0.00014,-0.00089,-0.00069,-7e-05,2e-05,5e-05,5,29
48310,8e-05,0.0002,0.00014,-0.00089,-0.00069,-7e-05,2e-05,5e-05,5,29
48311,8e-05,0.0002,0.00014,-0.00089,-0.00069,-7e-05,2e-05,5e-05,5,29
48312,8e-05,0.0002,0.00014,-0.00089,-0.00069,-7e-05,2e-05,5e-05,5,29
48313,8e-05,0.0002,0.00014,-0.00089,-0.00069,-7e-05,2e-05,5e-05,5,29
48314,1e-05,-2e-05,7e-05,9e-05,8e-05,0.00011,3e-05,2e-05,5,29
48315,-7e-05,-5e-05,-3e-05,0.00055,0.00041,0.00013,3e-05,-3e-05,5,29
48316,-7e-05,-5e-05,-3e-05,0.00055,0.00041,0.00013,3e-05,-3e-05,5,29
48317,-7e-05,-5e-05,-3e-05,0.00055,0.00041,0.00013,3e-05,-3e-05,5,29
48318,-7e-05,-5e-05,-3e-05,0.00055,0.00041,0.00013,3e-05,-3e-05,5,29
48319,-7e-05,-5e-05,-3e-05,0.00055,0.00041,0.00013,3e-05,-3e-05,5,29
48320,-7e-05,-5e-05,-3e-05,0.00055,0.00041,0.00013,3e-05,-3e-05,5,29
48321,-7e-05,-5e-05,-3e-05,0.00055,0.00041,0.00013,3e-05,-3e-05,5,29
48322,-7e-05,-5e-05,-3e-05,0.00055,0.00041,0.00013,3e-05,-3e-05,5,29
48323,-7e-05,-5e-05,-3e-05,0.00055,0.00041,0.00013,3e-05,-3e-05,5,29
48324,-7e-05,-5e-05,-3e-05,0.00055,0.00041,0.00013,3e-05,-3e-05,5,29
48325,-7e-05,-5e-05,-3e-05,0.00055,0.00041,0.00013,3e-05,-3e-05,5,29
48326,-7e-05,-5e-05,-3e-05,0.00055,0.00041,0.00013,3e-05,-3e-05,5,29
48327,-7e-05,-5e-05,-3e-05,0.00055,0.00041,0.00013,3e-05,-3e-05,5,29
48328,-7e-05,-5e-05,-3e-05,0.00055,0.00041,0.00013,3e-05,-3e-05,5,29
48329,-7e-05,-5e-05,-3e-05,0.00055,0.00041,0.00013,3e-05,-3e-05,5,29
48330,-7e-05,-5e-05,-3e-05,0.00055,0.00041,0.00013,3e-05,-3e-05,5,29
48331,-7e-05,-5e-05,-3e-05,0.00055,0.00041,0.00013,3e-05,-3e-05,5,29
48332,-7e-05,-5e-05,-3e-05,0.00055,0.00041,0.00013,3e-05,-3e-05,5,29
48333,-7e-05,-5e-05,-3e-05,0.00055,0.00041,0.00013,3e-05,-3e-05,5,29
48334,-7e-05,-5e-05,-3e-05,0.00055,0.00041,0.00013,3e-05,-3e-05,5,29
48335,-7e-05,-5e-05,-3e-05,0.00055,0.00041,0.00013,3e-05,-3e-05,5,29
48336,-7e-05,-5e-05,-3e-05,0.00055,0.00041,0.00013,3e-05,-3e-05,5,29
48340,-4e-05,0,0.00013,0.00061,0.00107,0.00033,8e-05,-5e-05,5,29
48341,-4e-05,0,0.00013,0.00061,0.00107,0.00033,8e-05,-5e-05,5,29
48342,-4e-05,0,0.00013,0.00061,0.00107,0.00033,8e-05,-5e-05,5,29
48343,-4e-05,0,0.00013,0.00061,0.00107,0.00033,8e-05,-5e-05,5,29
48344,-4e-05,0,0.00013,0.00061,0.00107,0.00033,8e-05,-5e-05,5,29
48345,-4e-05,0,0.00013,0.00061,0.00107,0.00033,8e-05,-5e-05,5,29
48346,-4e-05,0,0.00013,0.00061,0.00107,0.00033,8e-05,-5e-05,5,29
48347,-4e-05,0,0.00013,0.00061,0.00107,0.00033,8e-05,-5e-05,5,29
48348,-4e-05,0,0.00013,0.00061,0.00107,0.00033,8e-05,-5e-05,5,29
48349,-4e-05,0,0.00013,0.00061,0.00107,0.00033,8e-05,-5e-05,5,29
48350,-4e-05,0,0.00013,0.00061,0.00107,0.00033,8e-05,-5e-05,5,29
48351,-4e-05,0,0.00013,0.00061,0.00107,0.00033,8e-05,-5e-05,5,29
48352,-4e-05,0,0.00013,0.00061,0.00107,0.00033,8e-05,-5e-05,5,29
48353,-4e-05,0,0.00013,0.00061,0.00107,0.00033,8e-05,-5e-05,5,29
48354,-4e-05,0,0.00013,0.00061,0.00107,0.00033,8e-05,-5e-05,5,29
48355,-4e-05,0,0.00013,0.00061,0.00107,0.00033,8e-05,-5e-05,5,29
48356,-4e-05,0,0.00013,0.00061,0.00107,0.00033,8e-05,-5e-05,5,29
48357,-4e-05,0,0.00013,0.00061,0.00107,0.00033,8e-05,-5e-05,5,29
48358,-4e-05,0,0.00013,0.00061,0.00107,0.00033,8e-05,-5e-05,5,29
48359,-4e-05,0,0.00013,0.00061,0.00107,0.00033,8e-05,-5e-05,5,29
48360,-0.00011,-0.0001,-1e-05,0.00018,4e-05,-3e-05,-6e-05,-3e-05,5,29
48361,-2e-05,2e-05,6e-05,0.0002,-0.00022,1e-05,7e-05,1e-05,5,29
48362,-2e-05,2e-05,6e-05,0.0002,-0.00022,1e-05,7e-05,1e-05,5,29
48363,-2e-05,2e-05,6e-05,0.0002,-0.00022,1e-05,7e-05,1e-05,5,29
48364,-2e-05,2e-05,6e-05,0.0002,-0.00022,1e-05,7e-05,1e-05,5,29
48365,-2e-05,2e-05,6e-05,0.0002,-0.00022,1e-05,7e-05,1e-05,5,29
48366,-2e-05,2e-05,6e-05,0.0002,-0.00022,1e-05,7e-05,1e-05,5,29
48367,-2e-05,2e-05,6e-05,0.0002,-0.00022,1e-05,7e-05,1e-05,5,29
48368,-2e-05,2e-05,6e-05,0.0002,-0.00022,1e-05,7e-05,1e-05,5,29
48369,-2e-05,2e-05,6e-05,0.0002,-0.00022,1e-05,7e-05,1e-05,5,29
48370,-2e-05,2e-05,6e-05,0.0002,-0.00022,1e-05,7e-05,1e-05,5,29
48371,-2e-05,2e-05,6e-05,0.0002,-0.00022,1e-05,7e-05,1e-05,5,29
48372,-2e-05,2e-05,6e-05,0.0002,-0.00022,1e-05,7e-05,1e-05,5,29
48373,-2e-05,2e-05,6e-05,0.0002,-0.00022,1e-05,7e-05,1e-05,5,29
48374,1e-05,5e-05,1e-05,8e-05,-8e-05,-4e-05,3e-05,-2e-05,5,29
48375,-9e-05,-0.00018,-0.00015,2e-05,0.00022,-8e-05,-7e-05,-5e-05,5,29
48376,-9e-05,-0.00018,-0.00015,2e-05,0.00022,-8e-05,-7e-05,-5e-05,5,29
48377,-9e-05,-0.00018,-0.00015,2e-05,0.00022,-8e-05,-7e-05,-5e-05,5,29
48378,-9e-05,-0.00018,-0.00015,2e-05,0.00022,-8e-05,-7e-05,-5e-05,5,29
48379,-9e-05,-0.00018,-0.00015,2e-05,0.00022,-8e-05,-7e-05,-5e-05,5,29
48380,-9e-05,-0.00018,-0.00015,2e-05,0.00022,-8e-05,-7e-05,-5e-05,5,29
48381,-9e-05,-0.00018,-0.00015,2e-05,0.00022,-8e-05,-7e-05,-5e-05,5,29
48382,-9e-05,-0.00018,-0.00015,2e-05,0.00022,-8e-05,-7e-05,-5e-05,5,29
48383,-9e-05,-0.00018,-0.00015,2e-05,0.00022,-8e-05,-7e-05,-5e-05,5,29
48384,-9e-05,-0.00018,-0.00015,2e-05,0.00022,-8e-05,-7e-05,-5e-05,5,29
48385,-9e-05,-0.00018,-0.00015,2e-05,0.00022,-8e-05,-7e-05,-5e-05,5,29
48386,-9e-05,-0.00018,-0.00015,2e-05,0.00022,-8e-05,-7e-05,-5e-05,5,29
48388,-9e-05,-0.00018,-0.00015,2e-05,0.00022,-8e-05,-7e-05,-5e-05,5,29
48389,-9e-05,-0.00018,-0.00015,2e-05,0.00022,-8e-05,-7e-05,-5e-05,5,29
48390,-9e-05,-0.00018,-0.00015,2e-05,0.00022,-8e-05,-7e-05,-5e-05,5,29
48391,-9e-05,-0.00018,-0.00015,2e-05,0.00022,-8e-05,-7e-05,-5e-05,5,29
48392,-9e-05,-0.00018,-0.00015,2e-05,0.00022,-8e-05,-7e-05,-5e-05,5,29
48393,-9e-05,-0.00018,-0.00015,2e-05,0.00022,-8e-05,-7e-05,-5e-05,5,29
48394,-9e-05,-0.00018,-0.00015,2e-05,0.00022,-8e-05,-7e-05,-5e-05,5,29
48395,-9e-05,-0.00018,-0.00015,2e-05,0.00022,-8e-05,-7e-05,-5e-05,5,29
48396,-9e-05,-0.00018,-0.00015,2e-05,0.00022,-8e-05,-7e-05,-5e-05,5,29
48397,0.00017,0.00024,0.00045,0.00078,0.00029,0.00035,0.00019,0.00017,5,29
48399,0.00017,0.00024,0.00045,0.00078,0.00029,0.00035,0.00019,0.00017,5,29
48400,0.00017,0.00024,0.00045,0.00078,0.00029,0.00035,0.00019,0.00017,5,29
48401,0.00017,0.00024,0.00045,0.00078,0.00029,0.00035,0.00019,0.00017,5,29
48402,0.00017,0.00024,0.00045,0.00078,0.00029,0.00035,0.00019,0.00017,5,29
48403,0.00017,0.00024,0.00045,0.00078,0.00029,0.00035,0.00019,0.00017,5,29
48404,0.00017,0.00024,0.00045,0.00078,0.00029,0.00035,0.00019,0.00017,5,29
48405,0.00017,0.00024,0.00045,0.00078,0.00029,0.00035,0.00019,0.00017,5,29
48406,0.00017,0.00024,0.00045,0.00078,0.00029,0.00035,0.00019,0.00017,5,29
48407,0.00017,0.00024,0.00045,0.00078,0.00029,0.00035,0.00019,0.00017,5,29
48408,0.00017,0.00024,0.00045,0.00078,0.00029,0.00035,0.00019,0.00017,5,29
48409,0.00017,0.00024,0.00045,0.00078,0.00029,0.00035,0.00019,0.00017,5,29
48410,0.00017,0.00024,0.00045,0.00078,0.00029,0.00035,0.00019,0.00017,5,29
48411,0.00017,0.00024,0.00045,0.00078,0.00029,0.00035,0.00019,0.00017,5,29
48412,0.00017,0.00024,0.00045,0.00078,0.00029,0.00035,0.00019,0.00017,5,29
48413,0.00017,0.00024,0.00045,0.00078,0.00029,0.00035,0.00019,0.00017,5,29
48414,0.00017,0.00024,0.00045,0.00078,0.00029,0.00035,0.00019,0.00017,5,29
48415,0.00017,0.00024,0.00045,0.00078,0.00029,0.00035,0.00019,0.00017,5,29
48416,0.00017,0.00024,0.00045,0.00078,0.00029,0.00035,0.00019,0.00017,5,29
48417,0.00017,0.00024,0.00045,0.00078,0.00029,0.00035,0.00019,0.00017,5,29
48418,0.00017,0.00024,0.00045,0.00078,0.00029,0.00035,0.00019,0.00017,5,29
48419,0.00017,0.00024,0.00045,0.00078,0.00029,0.00035,0.00019,0.00017,5,29
48420,-4e-05,2e-05,5e-05,-9e-05,-0.00031,-3e-05,0,1e-05,5,29
48421,0,-4e-05,-0.00013,-0.00053,-0.00038,-9e-05,-3e-05,-1e-05,5,29
48422,0,-4e-05,-0.00013,-0.00053,-0.00038,-9e-05,-3e-05,-1e-05,5,29
48423,0,-4e-05,-0.00013,-0.00053,-0.00038,-9e-05,-3e-05,-1e-05,5,29
48424,0,-4e-05,-0.00013,-0.00053,-0.00038,-9e-05,-3e-05,-1e-05,5,29
48425,0,-4e-05,-0.00013,-0.00053,-0.00038,-9e-05,-3e-05,-1e-05,5,29
48426,0,-4e-05,-0.00013,-0.00053,-0.00038,-9e-05,-3e-05,-1e-05,5,29
48427,0,-4e-05,-0.00013,-0.00053,-0.00038,-9e-05,-3e-05,-1e-05,5,29
48428,0,-4e-05,-0.00013,-0.00053,-0.00038,-9e-05,-3e-05,-1e-05,5,29
48429,0,-4e-05,-0.00013,-0.00053,-0.00038,-9e-05,-3e-05,-1e-05,5,29
48430,0,-4e-05,-0.00013,-0.00053,-0.00038,-9e-05,-3e-05,-1e-05,5,29
48431,0,-4e-05,-0.00013,-0.00053,-0.00038,-9e-05,-3e-05,-1e-05,5,29
48432,0,-4e-05,-0.00013,-0.00053,-0.00038,-9e-05,-3e-05,-1e-05,5,29
48433,0,-4e-05,-0.00013,-0.00053,-0.00038,-9e-05,-3e-05,-1e-05,5,29
48434,-0.00015,-9e-05,-0.00012,0.00021,0.00057,-4e-05,-5e-05,-9e-05,5,29
48435,-2e-05,-0.00011,-4e-05,-0.00016,-0.00029,2e-05,-1e-05,0,5,29
48436,-2e-05,-0.00011,-4e-05,-0.00016,-0.00029,2e-05,-1e-05,0,5,29
48439,-2e-05,-0.00011,-4e-05,-0.00016,-0.00029,2e-05,-1e-05,0,5,29
48440,-2e-05,-0.00011,-4e-05,-0.00016,-0.00029,2e-05,-1e-05,0,5,29
48441,-2e-05,-0.00011,-4e-05,-0.00016,-0.00029,2e-05,-1e-05,0,5,29
48442,-2e-05,-0.00011,-4e-05,-0.00016,-0.00029,2e-05,-1e-05,0,5,29
48443,-2e-05,-0.00011,-4e-05,-0.00016,-0.00029,2e-05,-1e-05,0,5,29
48444,-2e-05,-0.00011,-4e-05,-0.00016,-0.00029,2e-05,-1e-05,0,5,29
48447,-2e-05,-0.00011,-4e-05,-0.00016,-0.00029,2e-05,-1e-05,0,5,29
48448,-2e-05,-0.00011,-4e-05,-0.00016,-0.00029,2e-05,-1e-05,0,5,29
48449,-2e-05,-0.00011,-4e-05,-0.00016,-0.00029,2e-05,-1e-05,0,5,29
48450,-2e-05,-0.00011,-4e-05,-0.00016,-0.00029,2e-05,-1e-05,0,5,29
48451,-2e-05,-0.00011,-4e-05,-0.00016,-0.00029,2e-05,-1e-05,0,5,29
48452,-2e-05,-0.00011,-4e-05,-0.00016,-0.00029,2e-05,-1e-05,0,5,29
48453,-2e-05,-0.00011,-4e-05,-0.00016,-0.00029,2e-05,-1e-05,0,5,29
48454,-2e-05,-0.00011,-4e-05,-0.00016,-0.00029,2e-05,-1e-05,0,5,29
48455,-2e-05,-0.00011,-4e-05,-0.00016,-0.00029,2e-05,-1e-05,0,5,29
48456,-2e-05,-0.00011,-4e-05,-0.00016,-0.00029,2e-05,-1e-05,0,5,29
48457,-8e-05,-0.00011,-5e-05,0.00023,0.00082,0.00026,5e-05,-4e-05,5,29
48458,-8e-05,-0.00011,-5e-05,0.00023,0.00082,0.00026,5e-05,-4e-05,5,29
48459,0,9e-05,0.00011,0.00052,-0.0001,-9e-05,1e-05,2e-05,5,29
48460,0,9e-05,0.00011,0.00052,-0.0001,-9e-05,1e-05,2e-05,5,29
48461,0,9e-05,0.00011,0.00052,-0.0001,-9e-05,1e-05,2e-05,5,29
48462,0,9e-05,0.00011,0.00052,-0.0001,-9e-05,1e-05,2e-05,5,29
48463,0,9e-05,0.00011,0.00052,-0.0001,-9e-05,1e-05,2e-05,5,29
48464,0,9e-05,0.00011,0.00052,-0.0001,-9e-05,1e-05,2e-05,5,29
48465,0,9e-05,0.00011,0.00052,-0.0001,-9e-05,1e-05,2e-05,5,29
48466,0,9e-05,0.00011,0.00052,-0.0001,-9e-05,1e-05,2e-05,5,29
48467,0,9e-05,0.00011,0.00052,-0.0001,-9e-05,1e-05,2e-05,5,29
48468,0,9e-05,0.00011,0.00052,-0.0001,-9e-05,1e-05,2e-05,5,29
48469,0,9e-05,0.00011,0.00052,-0.0001,-9e-05,1e-05,2e-05,5,29
48470,0,9e-05,0.00011,0.00052,-0.0001,-9e-05,1e-05,2e-05,5,29
48471,0,9e-05,0.00011,0.00052,-0.0001,-9e-05,1e-05,2e-05,5,29
48472,0,9e-05,0.00011,0.00052,-0.0001,-9e-05,1e-05,2e-05,5,29
48473,0,9e-05,0.00011,0.00052,-0.0001,-9e-05,1e-05,2e-05,5,29
48474,0,9e-05,0.00011,0.00052,-0.0001,-9e-05,1e-05,2e-05,5,29
48475,0,9e-05,0.00011,0.00052,-0.0001,-9e-05,1e-05,2e-05,5,29
48476,0,9e-05,0.00011,0.00052,-0.0001,-9e-05,1e-05,2e-05,5,29
48477,0,9e-05,0.00011,0.00052,-0.0001,-9e-05,1e-05,2e-05,5,29
48478,0,9e-05,0.00011,0.00052,-0.0001,-9e-05,1e-05,2e-05,5,29
48479,0,9e-05,0.00011,0.00052,-0.0001,-9e-05,1e-05,2e-05,5,29
48480,2e-05,5e-05,0.00015,0.00021,-0.00028,-4e-05,-4e-05,-5e-05,5,29
48481,-3e-05,-8e-05,-0.00013,-0.00089,-0.00042,-0.00012,-8e-05,-3e-05,5,29
48482,-3e-05,-8e-05,-0.00013,-0.00089,-0.00042,-0.00012,-8e-05,-3e-05,5,29
48483,-3e-05,-8e-05,-0.00013,-0.00089,-0.00042,-0.00012,-8e-05,-3e-05,5,29
48484,-3e-05,-8e-05,-0.00013,-0.00089,-0.00042,-0.00012,-8e-05,-3e-05,5,29
48485,-3e-05,-8e-05,-0.00013,-0.00089,-0.00042,-0.00012,-8e-05,-3e-05,5,29
48486,-3e-05,-8e-05,-0.00013,-0.00089,-0.00042,-0.00012,-8e-05,-3e-05,5,29
48488,-3e-05,-8e-05,-0.00013,-0.00089,-0.00042,-0.00012,-8e-05,-3e-05,5,29
48489,-3e-05,-8e-05,-0.00013,-0.00089,-0.00042,-0.00012,-8e-05,-3e-05,5,29
48490,-3e-05,-8e-05,-0.00013,-0.00089,-0.00042,-0.00012,-8e-05,-3e-05,5,29
48491,-3e-05,-8e-05,-0.00013,-0.00089,-0.00042,-0.00012,-8e-05,-3e-05,5,29
48492,-3e-05,-8e-05,-0.00013,-0.00089,-0.00042,-0.00012,-8e-05,-3e-05,5,29
48493,-2e-05,-8e-05,2e-05,0.00036,-0.00039,-0.00012,-2e-05,0,5,29
48494,4e-05,0.00015,0.00021,0.00045,0.00054,9e-05,6e-05,-2e-05,5,29
48495,4e-05,0.00015,0.00021,0.00045,0.00054,9e-05,6e-05,-2e-05,5,29
48496,4e-05,0.00015,0.00021,0.00045,0.00054,9e-05,6e-05,-2e-05,5,29
48497,4e-05,0.00015,0.00021,0.00045,0.00054,9e-05,6e-05,-2e-05,5,29
48498,4e-05,0.00015,0.00021,0.00045,0.00054,9e-05,6e-05,-2e-05,5,29
48499,4e-05,0.00015,0.00021,0.00045,0.00054,9e-05,6e-05,-2e-05,5,29
48500,4e-05,0.00015,0.00021,0.00045,0.00054,9e-05,6e-05,-2e-05,5,29
48501,4e-05,0.00015,0.00021,0.00045,0.00054,9e-05,6e-05,-2e-05,5,29
48502,-4e-05,-0.00011,-0.00034,-0.00093,-0.00036,-0.00014,-9e-05,-7e-05,5,29
48503,-4e-05,-0.00011,-0.00034,-0.00093,-0.00036,-0.00014,-9e-05,-7e-05,5,29
48504,-4e-05,-0.00011,-0.00034,-0.00093,-0.00036,-0.00014,-9e-05,-7e-05,5,29
48505,-4e-05,-0.00011,-0.00034,-0.00093,-0.00036,-0.00014,-9e-05,-7e-05,5,29
48506,-4e-05,-0.00011,-0.00034,-0.00093,-0.00036,-0.00014,-9e-05,-7e-05,5,29
48507,-4e-05,-0.00011,-0.00034,-0.00093,-0.00036,-0.00014,-9e-05,-7e-05,5,29
48508,-4e-05,-0.00011,-0.00034,-0.00093,-0.00036,-0.00014,-9e-05,-7e-05,5,29
48509,-4e-05,-0.00011,-0.00034,-0.00093,-0.00036,-0.00014,-9e-05,-7e-05,5,29
48510,-4e-05,-0.00011,-0.00034,-0.00093,-0.00036,-0.00014,-9e-05,-7e-05,5,29
48511,-4e-05,-0.00011,-0.00034,-0.00093,-0.00036,-0.00014,-9e-05,-7e-05,5,29
48512,-4e-05,-0.00011,-0.00034,-0.00093,-0.00036,-0.00014,-9e-05,-7e-05,5,29
48513,-4e-05,-0.00011,-0.00034,-0.00093,-0.00036,-0.00014,-9e-05,-7e-05,5,29
48514,-4e-05,-0.00011,-0.00034,-0.00093,-0.00036,-0.00014,-9e-05,-7e-05,5,29
48515,-4e-05,-0.00011,-0.00034,-0.00093,-0.00036,-0.00014,-9e-05,-7e-05,5,29
48516,-4e-05,-0.00011,-0.00034,-0.00093,-0.00036,-0.00014,-9e-05,-7e-05,5,29
48517,-3e-05,-2e-05,-7e-05,-0.00017,-0.00037,-8e-05,-2e-05,1e-05,5,29
48518,-3e-05,-2e-05,-7e-05,-0.00017,-0.00037,-8e-05,-2e-05,1e-05,5,29
48519,5e-05,-5e-05,-0.0001,0.00042,0.0007,3e-05,-3e-05,-3e-05,5,29
48520,5e-05,-5e-05,-0.0001,0.00042,0.0007,3e-05,-3e-05,-3e-05,5,29
48521,5e-05,-5e-05,-0.0001,0.00042,0.0007,3e-05,-3e-05,-3e-05,5,29
48522,5e-05,-5e-05,-0.0001,0.00042,0.0007,3e-05,-3e-05,-3e-05,5,29
48523,5e-05,-5e-05,-0.0001,0.00042,0.0007,3e-05,-3e-05,-3e-05,5,29
48524,5e-05,-5e-05,-0.0001,0.00042,0.0007,3e-05,-3e-05,-3e-05,5,29
48525,5e-05,-5e-05,-0.0001,0.00042,0.0007,3e-05,-3e-05,-3e-05,5,29
48526,5e-05,-5e-05,-0.0001,0.00042,0.0007,3e-05,-3e-05,-3e-05,5,29
48527,5e-05,-5e-05,-0.0001,0.00042,0.0007,3e-05,-3e-05,-3e-05,5,29
48528,5e-05,-5e-05,-0.0001,0.00042,0.0007,3e-05,-3e-05,-3e-05,5,29
48529,5e-05,-5e-05,-0.0001,0.00042,0.0007,3e-05,-3e-05,-3e-05,5,29
48530,5e-05,-5e-05,-0.0001,0.00042,0.0007,3e-05,-3e-05,-3e-05,5,29
48531,5e-05,-5e-05,-0.0001,0.00042,0.0007,3e-05,-3e-05,-3e-05,5,29
48532,5e-05,-5e-05,-0.0001,0.00042,0.0007,3e-05,-3e-05,-3e-05,5,29
48533,5e-05,-5e-05,-0.0001,0.00042,0.0007,3e-05,-3e-05,-3e-05,5,29
48534,5e-05,-5e-05,-0.0001,0.00042,0.0007,3e-05,-3e-05,-3e-05,5,29
48535,5e-05,-5e-05,-0.0001,0.00042,0.0007,3e-05,-3e-05,-3e-05,5,29
48536,5e-05,-5e-05,-0.0001,0.00042,0.0007,3e-05,-3e-05,-3e-05,5,29
48538,5e-05,-5e-05,-0.0001,0.00042,0.0007,3e-05,-3e-05,-3e-05,5,29
48539,5e-05,-5e-05,-0.0001,0.00042,0.0007,3e-05,-3e-05,-3e-05,5,29
48540,2e-05,-9e-05,-0.00025,-0.0007,-0.00082,-0.00013,-6e-05,0,5,29
48541,-6e-05,-5e-05,-1e-05,0.0001,-0.00014,-0.00017,-7e-05,-3e-05,5,29
48542,-6e-05,-5e-05,-1e-05,0.0001,-0.00014,-0.00017,-7e-05,-3e-05,5,29
48543,-6e-05,-5e-05,-1e-05,0.0001,-0.00014,-0.00017,-7e-05,-3e-05,5,29
