26710,-4e-05,-6e-05,-2e-05,2e-05,0.00022,0.00014,0.00016,-2e-05,5,30
26711,-4e-05,-6e-05,-2e-05,2e-05,0.00022,0.00014,0.00016,-2e-05,5,30
26712,-4e-05,-6e-05,-2e-05,2e-05,0.00022,0.00014,0.00016,-2e-05,5,30
26713,-4e-05,-6e-05,-2e-05,2e-05,0.00022,0.00014,0.00016,-2e-05,5,30
26714,-4e-05,-6e-05,-2e-05,2e-05,0.00022,0.00014,0.00016,-2e-05,5,30
26715,-4e-05,-6e-05,-2e-05,2e-05,0.00022,0.00014,0.00016,-2e-05,5,30
26716,3e-05,0,-6e-05,-0.00026,-0.0003,0.00042,-2e-05,1e-05,5,30
26717,3e-05,0,-6e-05,-0.00026,-0.0003,0.00042,-2e-05,1e-05,5,30
26718,-1e-05,8e-05,0.00014,-2e-05,-0.00031,9e-05,-3e-05,0,5,30
26719,-1e-05,8e-05,0.00014,-2e-05,-0.00031,9e-05,-3e-05,0,5,30
26720,-1e-05,8e-05,0.00014,-2e-05,-0.00031,9e-05,-3e-05,0,5,30
26721,-1e-05,8e-05,0.00014,-2e-05,-0.00031,9e-05,-3e-05,0,5,30
26722,-1e-05,8e-05,0.00014,-2e-05,-0.00031,9e-05,-3e-05,0,5,30
26723,-1e-05,8e-05,0.00014,-2e-05,-0.00031,9e-05,-3e-05,0,5,30
26724,-1e-05,8e-05,0.00014,-2e-05,-0.00031,9e-05,-3e-05,0,5,30
26725,-1e-05,8e-05,0.00014,-2e-05,-0.00031,9e-05,-3e-05,0,5,30
26726,-1e-05,8e-05,0.00014,-2e-05,-0.00031,9e-05,-3e-05,0,5,30
26727,-1e-05,8e-05,0.00014,-2e-05,-0.00031,9e-05,-3e-05,0,5,30
26728,-1e-05,8e-05,0.00014,-2e-05,-0.00031,9e-05,-3e-05,0,5,30
26729,-1e-05,8e-05,0.00014,-2e-05,-0.00031,9e-05,-3e-05,0,5,30
26730,-1e-05,8e-05,0.00014,-2e-05,-0.00031,9e-05,-3e-05,0,5,30
26731,-1e-05,8e-05,0.00014,-2e-05,-0.00031,9e-05,-3e-05,0,5,30
26732,-1e-05,8e-05,0.00014,-2e-05,-0.00031,9e-05,-3e-05,0,5,30
26733,-1e-05,8e-05,0.00014,-2e-05,-0.00031,9e-05,-3e-05,0,5,30
26734,-1e-05,8e-05,0.00014,-2e-05,-0.00031,9e-05,-3e-05,0,5,30
26735,-1e-05,8e-05,0.00014,-2e-05,-0.00031,9e-05,-3e-05,0,5,30
26736,-1e-05,8e-05,0.00014,-2e-05,-0.00031,9e-05,-3e-05,0,5,30
26738,-1e-05,8e-05,0.00014,-2e-05,-0.00031,9e-05,-3e-05,0,5,30
26739,-1e-05,8e-05,0.00014,-2e-05,-0.00031,9e-05,-3e-05,0,5,30
26740,-7e-05,-0.00014,-0.0001,7e-05,-0.00023,6e-05,-4e-05,-4e-05,5,30
26741,-6e-05,3e-05,0.00014,0.00036,0.00026,0.00015,9e-05,0,5,30
26742,-6e-05,3e-05,0.00014,0.00036,0.00026,0.00015,9e-05,0,5,30
26743,-6e-05,3e-05,0.00014,0.00036,0.00026,0.00015,9e-05,0,5,30
26744,-6e-05,3e-05,0.00014,0.00036,0.00026,0.00015,9e-05,0,5,30
26745,-6e-05,3e-05,0.00014,0.00036,0.00026,0.00015,9e-05,0,5,30
26746,-6e-05,3e-05,0.00014,0.00036,0.00026,0.00015,9e-05,0,5,30
26747,-6e-05,3e-05,0.00014,0.00036,0.00026,0.00015,9e-05,0,5,30
26748,-6e-05,3e-05,0.00014,0.00036,0.00026,0.00015,9e-05,0,5,30
26749,-6e-05,3e-05,0.00014,0.00036,0.00026,0.00015,9e-05,0,5,30
26750,-6e-05,3e-05,0.00014,0.00036,0.00026,0.00015,9e-05,0,5,30
26751,-6e-05,3e-05,0.00014,0.00036,0.00026,0.00015,9e-05,0,5,30
26752,-6e-05,3e-05,0.00014,0.00036,0.00026,0.00015,9e-05,0,5,30
26753,-6e-05,3e-05,0.00014,0.00036,0.00026,0.00015,9e-05,0,5,30
26754,1e-05,-9e-05,-0.00018,7e-05,8e-05,-0.00034,-5e-05,-3e-05,5,30
26755,1e-05,-9e-05,-0.00018,7e-05,8e-05,-0.00034,-5e-05,-3e-05,5,30
26756,1e-05,2e-05,3e-05,0.00047,0.00017,-0.00044,0.00018,5e-05,5,30
26757,1e-05,2e-05,3e-05,0.00047,0.00017,-0.00044,0.00018,5e-05,5,30
26758,1e-05,2e-05,3e-05,0.00047,0.00017,-0.00044,0.00018,5e-05,5,30
26759,1e-05,2e-05,3e-05,0.00047,0.00017,-0.00044,0.00018,5e-05,5,30
26760,1e-05,2e-05,3e-05,0.00047,0.00017,-0.00044,0.00018,5e-05,5,30
26761,1e-05,2e-05,3e-05,0.00047,0.00017,-0.00044,0.00018,5e-05,5,30
26762,1e-05,2e-05,3e-05,0.00047,0.00017,-0.00044,0.00018,5e-05,5,30
26763,1e-05,2e-05,3e-05,0.00047,0.00017,-0.00044,0.00018,5e-05,5,30
26764,1e-05,2e-05,3e-05,0.00047,0.00017,-0.00044,0.00018,5e-05,5,30
26765,1e-05,2e-05,3e-05,0.00047,0.00017,-0.00044,0.00018,5e-05,5,30
26766,1e-05,2e-05,3e-05,0.00047,0.00017,-0.00044,0.00018,5e-05,5,30
26767,1e-05,2e-05,3e-05,0.00047,0.00017,-0.00044,0.00018,5e-05,5,30
26768,1e-05,2e-05,3e-05,0.00047,0.00017,-0.00044,0.00018,5e-05,5,30
26769,1e-05,2e-05,3e-05,0.00047,0.00017,-0.00044,0.00018,5e-05,5,30
26770,1e-05,2e-05,3e-05,0.00047,0.00017,-0.00044,0.00018,5e-05,5,30
26771,1e-05,2e-05,3e-05,0.00047,0.00017,-0.00044,0.00018,5e-05,5,30
26772,1e-05,2e-05,3e-05,0.00047,0.00017,-0.00044,0.00018,5e-05,5,30
26773,1e-05,2e-05,3e-05,0.00047,0.00017,-0.00044,0.00018,5e-05,5,30
26774,1e-05,2e-05,3e-05,0.00047,0.00017,-0.00044,0.00018,5e-05,5,30
26775,1e-05,2e-05,3e-05,0.00047,0.00017,-0.00044,0.00018,5e-05,5,30
26776,-2e-05,3e-05,0.00012,0.00025,0.00043,-0.00023,-2e-05,-2e-05,5,30
26777,1e-05,-2e-05,2e-05,-0.00018,-0.00046,6e-05,0.00012,3e-05,5,30
26778,-2e-05,3e-05,-9e-05,-0.00046,2e-05,2e-05,-0.00017,-3e-05,5,30
26779,-2e-05,3e-05,-9e-05,-0.00046,2e-05,2e-05,-0.00017,-3e-05,5,30
26780,-2e-05,3e-05,-9e-05,-0.00046,2e-05,2e-05,-0.00017,-3e-05,5,30
26781,-2e-05,3e-05,-9e-05,-0.00046,2e-05,2e-05,-0.00017,-3e-05,5,30
26782,-2e-05,3e-05,-9e-05,-0.00046,2e-05,2e-05,-0.00017,-3e-05,5,30
26783,-2e-05,3e-05,-9e-05,-0.00046,2e-05,2e-05,-0.00017,-3e-05,5,30
26784,-2e-05,3e-05,-9e-05,-0.00046,2e-05,2e-05,-0.00017,-3e-05,5,30
26785,-2e-05,3e-05,-9e-05,-0.00046,2e-05,2e-05,-0.00017,-3e-05,5,30
26786,-2e-05,3e-05,-9e-05,-0.00046,2e-05,2e-05,-0.00017,-3e-05,5,30
26788,-2e-05,3e-05,-9e-05,-0.00046,2e-05,2e-05,-0.00017,-3e-05,5,30
26789,-2e-05,3e-05,-9e-05,-0.00046,2e-05,2e-05,-0.00017,-3e-05,5,30
26790,-2e-05,3e-05,-9e-05,-0.00046,2e-05,2e-05,-0.00017,-3e-05,5,30
26791,-2e-05,3e-05,-9e-05,-0.00046,2e-05,2e-05,-0.00017,-3e-05,5,30
26792,-2e-05,3e-05,-9e-05,-0.00046,2e-05,2e-05,-0.00017,-3e-05,5,30
26793,-2e-05,3e-05,-9e-05,-0.00046,2e-05,2e-05,-0.00017,-3e-05,5,30
26794,-2e-05,3e-05,-9e-05,-0.00046,2e-05,2e-05,-0.00017,-3e-05,5,30
26795,-2e-05,3e-05,-9e-05,-0.00046,2e-05,2e-05,-0.00017,-3e-05,5,30
26796,-2e-05,3e-05,-9e-05,-0.00046,2e-05,2e-05,-0.00017,-3e-05,5,30
26797,-2e-05,3e-05,-9e-05,-0.00046,2e-05,2e-05,-0.00017,-3e-05,5,30
26798,-2e-05,3e-05,-9e-05,-0.00046,2e-05,2e-05,-0.00017,-3e-05,5,30
26799,-6e-05,-4e-05,0.00014,-9e-05,-0.00011,-0.00013,-5e-05,-5e-05,5,30
26800,-1e-05,-2e-05,-6e-05,-0.00018,-0.00036,0.00047,-5e-05,-5e-05,5,30
26801,-1e-05,-2e-05,-6e-05,-0.00018,-0.00036,0.00047,-5e-05,-5e-05,5,30
26802,-1e-05,-2e-05,-6e-05,-0.00018,-0.00036,0.00047,-5e-05,-5e-05,5,30
26803,-1e-05,-2e-05,-6e-05,-0.00018,-0.00036,0.00047,-5e-05,-5e-05,5,30
26804,-1e-05,-2e-05,-6e-05,-0.00018,-0.00036,0.00047,-5e-05,-5e-05,5,30
26805,-1e-05,-2e-05,-6e-05,-0.00018,-0.00036,0.00047,-5e-05,-5e-05,5,30
26806,-1e-05,-2e-05,-6e-05,-0.00018,-0.00036,0.00047,-5e-05,-5e-05,5,30
26807,-1e-05,-2e-05,-6e-05,-0.00018,-0.00036,0.00047,-5e-05,-5e-05,5,30
26808,-1e-05,-2e-05,-6e-05,-0.00018,-0.00036,0.00047,-5e-05,-5e-05,5,30
26809,-1e-05,-2e-05,-6e-05,-0.00018,-0.00036,0.00047,-5e-05,-5e-05,5,30
26810,-1e-05,-2e-05,-6e-05,-0.00018,-0.00036,0.00047,-5e-05,-5e-05,5,30
26811,-1e-05,-2e-05,-6e-05,-0.00018,-0.00036,0.00047,-5e-05,-5e-05,5,30
26812,-1e-05,-2e-05,-6e-05,-0.00018,-0.00036,0.00047,-5e-05,-5e-05,5,30
26813,-5e-05,2e-05,-6e-05,-0.00035,-0.00068,0.0002,3e-05,-3e-05,5,30
26814,-5e-05,2e-05,-6e-05,-0.00035,-0.00068,0.0002,3e-05,-3e-05,5,30
26815,-5e-05,2e-05,-6e-05,-0.00035,-0.00068,0.0002,3e-05,-3e-05,5,30
26816,-5e-05,2e-05,-6e-05,-0.00035,-0.00068,0.0002,3e-05,-3e-05,5,30
26817,-5e-05,2e-05,-6e-05,-0.00035,-0.00068,0.0002,3e-05,-3e-05,5,30
26818,-5e-05,2e-05,-6e-05,-0.00035,-0.00068,0.0002,3e-05,-3e-05,5,30
26819,-5e-05,2e-05,-6e-05,-0.00035,-0.00068,0.0002,3e-05,-3e-05,5,30
26820,2e-05,0,-1e-05,-0.00058,-0.00027,2e-05,4e-05,3e-05,5,30
26821,2e-05,0,-1e-05,-0.00058,-0.00027,2e-05,4e-05,3e-05,5,30
26822,2e-05,0,-1e-05,-0.00058,-0.00027,2e-05,4e-05,3e-05,5,30
26823,2e-05,0,-1e-05,-0.00058,-0.00027,2e-05,4e-05,3e-05,5,30
26824,2e-05,0,-1e-05,-0.00058,-0.00027,2e-05,4e-05,3e-05,5,30
26825,2e-05,0,-1e-05,-0.00058,-0.00027,2e-05,4e-05,3e-05,5,30
26826,2e-05,0,-1e-05,-0.00058,-0.00027,2e-05,4e-05,3e-05,5,30
26827,2e-05,0,-1e-05,-0.00058,-0.00027,2e-05,4e-05,3e-05,5,30
26828,2e-05,0,-1e-05,-0.00058,-0.00027,2e-05,4e-05,3e-05,5,30
26829,2e-05,0,-1e-05,-0.00058,-0.00027,2e-05,4e-05,3e-05,5,30
26830,2e-05,0,-1e-05,-0.00058,-0.00027,2e-05,4e-05,3e-05,5,30
26831,2e-05,0,-1e-05,-0.00058,-0.00027,2e-05,4e-05,3e-05,5,30
26832,2e-05,0,-1e-05,-0.00058,-0.00027,2e-05,4e-05,3e-05,5,30
26833,2e-05,0,-1e-05,-0.00058,-0.00027,2e-05,4e-05,3e-05,5,30
26834,2e-05,0,-1e-05,-0.00058,-0.00027,2e-05,4e-05,3e-05,5,30
26835,2e-05,0,-1e-05,-0.00058,-0.00027,2e-05,4e-05,3e-05,5,30
26836,2e-05,0,-1e-05,-0.00058,-0.00027,2e-05,4e-05,3e-05,5,30
26839,2e-05,0,-1e-05,-0.00058,-0.00027,2e-05,4e-05,3e-05,5,30
26841,-2e-05,-7e-05,-0.00029,-0.00041,-0.00058,-0.00029,-0.00012,-5e-05,5,30
26842,-2e-05,-7e-05,-0.00029,-0.00041,-0.00058,-0.00029,-0.00012,-5e-05,5,30
26843,-2e-05,-7e-05,-0.00029,-0.00041,-0.00058,-0.00029,-0.00012,-5e-05,5,30
26844,-2e-05,-7e-05,-0.00029,-0.00041,-0.00058,-0.00029,-0.00012,-5e-05,5,30
26846,-2e-05,-7e-05,-0.00029,-0.00041,-0.00058,-0.00029,-0.00012,-5e-05,5,30
26847,-2e-05,-7e-05,-0.00029,-0.00041,-0.00058,-0.00029,-0.00012,-5e-05,5,30
26848,-2e-05,-7e-05,-0.00029,-0.00041,-0.00058,-0.00029,-0.00012,-5e-05,5,30
26849,-2e-05,-7e-05,-0.00029,-0.00041,-0.00058,-0.00029,-0.00012,-5e-05,5,30
26850,-2e-05,-7e-05,-0.00029,-0.00041,-0.00058,-0.00029,-0.00012,-5e-05,5,30
26851,-2e-05,-7e-05,-0.00029,-0.00041,-0.00058,-0.00029,-0.00012,-5e-05,5,30
26852,-2e-05,-7e-05,-0.00029,-0.00041,-0.00058,-0.00029,-0.00012,-5e-05,5,30
26853,-2e-05,-7e-05,-0.00029,-0.00041,-0.00058,-0.00029,-0.00012,-5e-05,5,30
26854,-2e-05,-7e-05,-0.00029,-0.00041,-0.00058,-0.00029,-0.00012,-5e-05,5,30
26855,-2e-05,-7e-05,-0.00029,-0.00041,-0.00058,-0.00029,-0.00012,-5e-05,5,30
26856,-2e-05,-7e-05,-0.00029,-0.00041,-0.00058,-0.00029,-0.00012,-5e-05,5,30
26857,-2e-05,-7e-05,-0.00029,-0.00041,-0.00058,-0.00029,-0.00012,-5e-05,5,30
26858,-2e-05,-7e-05,-0.00029,-0.00041,-0.00058,-0.00029,-0.00012,-5e-05,5,30
26859,-2e-05,-7e-05,-0.00029,-0.00041,-0.00058,-0.00029,-0.00012,-5e-05,5,30
26860,2e-05,7e-05,0.00012,0.00044,0.00011,-0.00013,-0.0001,-3e-05,5,30
26861,2e-05,-1e-05,-3e-05,-0.00017,0.00032,0.00029,0.0001,5e-05,5,30
26862,-2e-05,2e-05,2e-05,-0.00036,-0.00065,-0.00027,-6e-05,-2e-05,5,30
26863,-2e-05,2e-05,2e-05,-0.00036,-0.00065,-0.00027,-6e-05,-2e-05,5,30
26864,-2e-05,2e-05,2e-05,-0.00036,-0.00065,-0.00027,-6e-05,-2e-05,5,30
26865,-2e-05,2e-05,2e-05,-0.00036,-0.00065,-0.00027,-6e-05,-2e-05,5,30
26866,-2e-05,2e-05,2e-05,-0.00036,-0.00065,-0.00027,-6e-05,-2e-05,5,30
26867,-2e-05,2e-05,2e-05,-0.00036,-0.00065,-0.00027,-6e-05,-2e-05,5,30
26868,-2e-05,2e-05,2e-05,-0.00036,-0.00065,-0.00027,-6e-05,-2e-05,5,30
26869,-2e-05,2e-05,2e-05,-0.00036,-0.00065,-0.00027,-6e-05,-2e-05,5,30
26870,-2e-05,2e-05,2e-05,-0.00036,-0.00065,-0.00027,-6e-05,-2e-05,5,30
26871,-2e-05,2e-05,2e-05,-0.00036,-0.00065,-0.00027,-6e-05,-2e-05,5,30
26872,-2e-05,2e-05,2e-05,-0.00036,-0.00065,-0.00027,-6e-05,-2e-05,5,30
26873,-2e-05,2e-05,2e-05,-0.00036,-0.00065,-0.00027,-6e-05,-2e-05,5,30
26874,-2e-05,2e-05,2e-05,-0.00036,-0.00065,-0.00027,-6e-05,-2e-05,5,30
26875,0,-8e-05,2e-05,0.00014,-0.00061,0.00056,4e-05,2e-05,5,30
26876,0,-8e-05,2e-05,0.00014,-0.00061,0.00056,4e-05,2e-05,5,30
26877,0,-8e-05,2e-05,0.00014,-0.00061,0.00056,4e-05,2e-05,5,30
26878,0,-8e-05,2e-05,0.00014,-0.00061,0.00056,4e-05,2e-05,5,30
26879,0,-8e-05,2e-05,0.00014,-0.00061,0.00056,4e-05,2e-05,5,30
26880,0,-8e-05,2e-05,0.00014,-0.00061,0.00056,4e-05,2e-05,5,30
26881,-0.0001,-0.00012,2e-05,0.00019,0.00035,-0.00021,-6e-05,-4e-05,5,30
26882,-0.0001,-0.00012,2e-05,0.00019,0.00035,-0.00021,-6e-05,-4e-05,5,30
26883,-0.0001,-0.00012,2e-05,0.00019,0.00035,-0.00021,-6e-05,-4e-05,5,30
26884,-0.0001,-0.00012,2e-05,0.00019,0.00035,-0.00021,-6e-05,-4e-05,5,30
26885,-0.0001,-0.00012,2e-05,0.00019,0.00035,-0.00021,-6e-05,-4e-05,5,30
26886,-0.0001,-0.00012,2e-05,0.00019,0.00035,-0.00021,-6e-05,-4e-05,5,30
26889,-0.0001,-0.00012,2e-05,0.00019,0.00035,-0.00021,-6e-05,-4e-05,5,30
26890,-0.0001,-0.00012,2e-05,0.00019,0.00035,-0.00021,-6e-05,-4e-05,5,30
26891,-0.0001,-0.00012,2e-05,0.00019,0.00035,-0.00021,-6e-05,-4e-05,5,30
26892,-0.0001,-0.00012,2e-05,0.00019,0.00035,-0.00021,-6e-05,-4e-05,5,30
26893,-0.0001,-0.00012,2e-05,0.00019,0.00035,-0.00021,-6e-05,-4e-05,5,30
26894,-0.0001,-0.00012,2e-05,0.00019,0.00035,-0.00021,-6e-05,-4e-05,5,30
26895,-0.0001,-0.00012,2e-05,0.00019,0.00035,-0.00021,-6e-05,-4e-05,5,30
26896,-0.0001,-0.00012,2e-05,0.00019,0.00035,-0.00021,-6e-05,-4e-05,5,30
26897,6e-05,6e-05,9e-05,1e-05,-0.00025,0.00041,1e-05,3e-05,5,30
26898,6e-05,6e-05,9e-05,1e-05,-0.00025,0.00041,1e-05,3e-05,5,30
26899,-2e-05,4e-05,0,-5e-05,0.00029,2e-05,0,1e-05,5,30
26900,-2e-05,4e-05,0,-5e-05,0.00029,2e-05,0,1e-05,5,30
26901,-2e-05,4e-05,0,-5e-05,0.00029,2e-05,0,1e-05,5,30
26902,-2e-05,4e-05,0,-5e-05,0.00029,2e-05,0,1e-05,5,30
26903,-2e-05,4e-05,0,-5e-05,0.00029,2e-05,0,1e-05,5,30
26904,-2e-05,4e-05,0,-5e-05,0.00029,2e-05,0,1e-05,5,30
26905,-2e-05,4e-05,0,-5e-05,0.00029,2e-05,0,1e-05,5,30
26906,-2e-05,4e-05,0,-5e-05,0.00029,2e-05,0,1e-05,5,30
26907,-2e-05,4e-05,0,-5e-05,0.00029,2e-05,0,1e-05,5,30
26908,-2e-05,4e-05,0,-5e-05,0.00029,2e-05,0,1e-05,5,30
26909,-2e-05,4e-05,0,-5e-05,0.00029,2e-05,0,1e-05,5,30
26910,-2e-05,4e-05,0,-5e-05,0.00029,2e-05,0,1e-05,5,30
26911,-2e-05,4e-05,0,-5e-05,0.00029,2e-05,0,1e-05,5,30
26912,-2e-05,4e-05,0,-5e-05,0.00029,2e-05,0,1e-05,5,30
26913,-2e-05,4e-05,0,-5e-05,0.00029,2e-05,0,1e-05,5,30
26914,-2e-05,4e-05,0,-5e-05,0.00029,2e-05,0,1e-05,5,30
26915,-2e-05,4e-05,0,-5e-05,0.00029,2e-05,0,1e-05,5,30
26916,-2e-05,4e-05,0,-5e-05,0.00029,2e-05,0,1e-05,5,30
26917,-2e-05,4e-05,0,-5e-05,0.00029,2e-05,0,1e-05,5,30
26918,-2e-05,4e-05,0,-5e-05,0.00029,2e-05,0,1e-05,5,30
26919,-2e-05,4e-05,0,-5e-05,0.00029,2e-05,0,1e-05,5,30
26920,1e-05,-2e-05,-3e-05,0.00019,0.00045,-0.00031,0.0001,1e-05,5,30
26921,-3e-05,-4e-05,-0.00013,0.00024,0.00035,-9e-05,6e-05,-1e-05,5,30
26922,-3e-05,-4e-05,-0.00013,0.00024,0.00035,-9e-05,6e-05,-1e-05,5,30
26923,-3e-05,-4e-05,-0.00013,0.00024,0.00035,-9e-05,6e-05,-1e-05,5,30
26924,-3e-05,-4e-05,-0.00013,0.00024,0.00035,-9e-05,6e-05,-1e-05,5,30
26925,-3e-05,-4e-05,-0.00013,0.00024,0.00035,-9e-05,6e-05,-1e-05,5,30
26926,-3e-05,-4e-05,-0.00013,0.00024,0.00035,-9e-05,6e-05,-1e-05,5,30
26927,-3e-05,-4e-05,-0.00013,0.00024,0.00035,-9e-05,6e-05,-1e-05,5,30
26928,-3e-05,-4e-05,-0.00013,0.00024,0.00035,-9e-05,6e-05,-1e-05,5,30
26929,-3e-05,-4e-05,-0.00013,0.00024,0.00035,-9e-05,6e-05,-1e-05,5,30
26930,-3e-05,-4e-05,-0.00013,0.00024,0.00035,-9e-05,6e-05,-1e-05,5,30
26931,-3e-05,-4e-05,-0.00013,0.00024,0.00035,-9e-05,6e-05,-1e-05,5,30
26932,-3e-05,-4e-05,-0.00013,0.00024,0.00035,-9e-05,6e-05,-1e-05,5,30
26933,-3e-05,-4e-05,-0.00013,0.00024,0.00035,-9e-05,6e-05,-1e-05,5,30
26934,-3e-05,-4e-05,-0.00013,0.00024,0.00035,-9e-05,6e-05,-1e-05,5,30
26936,-3e-05,-4e-05,-0.00013,0.00024,0.00035,-9e-05,6e-05,-1e-05,5,30
26937,-3e-05,-4e-05,-0.00013,0.00024,0.00035,-9e-05,6e-05,-1e-05,5,30
26938,-3e-05,-4e-05,-0.00013,0.00024,0.00035,-9e-05,6e-05,-1e-05,5,30
26939,-3e-05,-4e-05,-0.00013,0.00024,0.00035,-9e-05,6e-05,-1e-05,5,30
26940,-3e-05,-4e-05,-0.00013,0.00024,0.00035,-9e-05,6e-05,-1e-05,5,30
26941,-3e-05,-4e-05,-0.00013,0.00024,0.00035,-9e-05,6e-05,-1e-05,5,30
26942,-7e-05,0,-4e-05,1e-05,-2e-05,-0.00091,0,-4e-05,5,30
26943,-7e-05,0,-4e-05,1e-05,-2e-05,-0.00091,0,-4e-05,5,30
26944,0,-3e-05,0.00011,0.0005,7e-05,4e-05,-9e-05,-3e-05,5,30
26945,0,-3e-05,0.00011,0.0005,7e-05,4e-05,-9e-05,-3e-05,5,30
26946,0,-3e-05,0.00011,0.0005,7e-05,4e-05,-9e-05,-3e-05,5,30
26947,0,-3e-05,0.00011,0.0005,7e-05,4e-05,-9e-05,-3e-05,5,30
26948,0,-3e-05,0.00011,0.0005,7e-05,4e-05,-9e-05,-3e-05,5,30
26949,0,-3e-05,0.00011,0.0005,7e-05,4e-05,-9e-05,-3e-05,5,30
26950,0,-3e-05,0.00011,0.0005,7e-05,4e-05,-9e-05,-3e-05,5,30
26951,0,-3e-05,0.00011,0.0005,7e-05,4e-05,-9e-05,-3e-05,5,30
26952,0,-3e-05,0.00011,0.0005,7e-05,4e-05,-9e-05,-3e-05,5,30
26953,0,-3e-05,0.00011,0.0005,7e-05,4e-05,-9e-05,-3e-05,5,30
26954,0,-3e-05,0.00011,0.0005,7e-05,4e-05,-9e-05,-3e-05,5,30
26955,0,-3e-05,0.00011,0.0005,7e-05,4e-05,-9e-05,-3e-05,5,30
26956,0,-3e-05,0.00011,0.0005,7e-05,4e-05,-9e-05,-3e-05,5,30
26957,3e-05,2e-05,-1e-05,-0.00026,-9e-05,-0.00014,-2e-05,2e-05,5,30
26959,-1e-05,-0.00011,-8e-05,-0.00019,7e-05,-0.00053,2e-05,-4e-05,5,30
26960,-1e-05,-0.00011,-8e-05,-0.00019,7e-05,-0.00053,2e-05,-4e-05,5,30
26961,-1e-05,-0.00011,-8e-05,-0.00019,7e-05,-0.00053,2e-05,-4e-05,5,30
26962,-1e-05,-0.00011,-8e-05,-0.00019,7e-05,-0.00053,2e-05,-4e-05,5,30
26963,-1e-05,-0.00011,-8e-05,-0.00019,7e-05,-0.00053,2e-05,-4e-05,5,30
26964,-1e-05,-0.00011,-8e-05,-0.00019,7e-05,-0.00053,2e-05,-4e-05,5,30
26965,-1e-05,-0.00011,-8e-05,-0.00019,7e-05,-0.00053,2e-05,-4e-05,5,30
26966,-1e-05,-0.00011,-8e-05,-0.00019,7e-05,-0.00053,2e-05,-4e-05,5,30
26967,-1e-05,-0.00011,-8e-05,-0.00019,7e-05,-0.00053,2e-05,-4e-05,5,30
26968,-1e-05,-0.00011,-8e-05,-0.00019,7e-05,-0.00053,2e-05,-4e-05,5,30
26969,-1e-05,-0.00011,-8e-05,-0.00019,7e-05,-0.00053,2e-05,-4e-05,5,30
26970,-1e-05,-0.00011,-8e-05,-0.00019,7e-05,-0.00053,2e-05,-4e-05,5,30
26971,-1e-05,-0.00011,-8e-05,-0.00019,7e-05,-0.00053,2e-05,-4e-05,5,30
26972,-1e-05,-0.00011,-8e-05,-0.00019,7e-05,-0.00053,2e-05,-4e-05,5,30
26973,-1e-05,-0.00011,-8e-05,-0.00019,7e-05,-0.00053,2e-05,-4e-05,5,30
26974,-1e-05,-0.00011,-8e-05,-0.00019,7e-05,-0.00053,2e-05,-4e-05,5,30
26975,-1e-05,-0.00011,-8e-05,-0.00019,7e-05,-0.00053,2e-05,-4e-05,5,30
26976,-1e-05,-0.00011,-8e-05,-0.00019,7e-05,-0.00053,2e-05,-4e-05,5,30
26977,-1e-05,-0.00011,-8e-05,-0.00019,7e-05,-0.00053,2e-05,-4e-05,5,30
26978,-1e-05,-0.00011,-8e-05,-0.00019,7e-05,-0.00053,2e-05,-4e-05,5,30
26979,-1e-05,-0.00011,-8e-05,-0.00019,7e-05,-0.00053,2e-05,-4e-05,5,30
26980,0,4e-05,0.00014,0.00016,2e-05,-0.0001,-9e-05,-2e-05,5,30
26981,2e-05,-2e-05,-0.00011,-0.00019,2e-05,0.00024,2e-05,-1e-05,5,30
26982,-2e-05,0,-5e-05,-0.00011,6e-05,7e-05,3e-05,0,5,30
26983,-2e-05,0,-5e-05,-0.00011,6e-05,7e-05,3e-05,0,5,30
26984,-2e-05,0,-5e-05,-0.00011,6e-05,7e-05,3e-05,0,5,30
26985,-2e-05,0,-5e-05,-0.00011,6e-05,7e-05,3e-05,0,5,30
26986,-2e-05,0,-5e-05,-0.00011,6e-05,7e-05,3e-05,0,5,30
26988,-2e-05,0,-5e-05,-0.00011,6e-05,7e-05,3e-05,0,5,30
26989,-2e-05,0,-5e-05,-0.00011,6e-05,7e-05,3e-05,0,5,30
26990,-2e-05,0,-5e-05,-0.00011,6e-05,7e-05,3e-05,0,5,30
26991,-2e-05,0,-5e-05,-0.00011,6e-05,7e-05,3e-05,0,5,30
26992,-2e-05,0,-5e-05,-0.00011,6e-05,7e-05,3e-05,0,5,30
26993,-2e-05,0,-5e-05,-0.00011,6e-05,7e-05,3e-05,0,5,30
26994,0,-6e-05,-2e-05,2e-05,-0.00012,0.00058,0.00014,4e-05,5,30
26995,0,-6e-05,-2e-05,2e-05,-0.00012,0.00058,0.00014,4e-05,5,30
26996,0,-6e-05,-2e-05,2e-05,-0.00012,0.00058,0.00014,4e-05,5,30
26997,0,-6e-05,-2e-05,2e-05,-0.00012,0.00058,0.00014,4e-05,5,30
26998,0,-6e-05,-2e-05,2e-05,-0.00012,0.00058,0.00014,4e-05,5,30
26999,0,-6e-05,-2e-05,2e-05,-0.00012,0.00058,0.00014,4e-05,5,30
27000,0,-6e-05,-2e-05,2e-05,-0.00012,0.00058,0.00014,4e-05,5,30
27001,5e-05,6e-05,-2e-05,0.00012,-0.00015,-9e-05,0,3e-05,5,30
27002,5e-05,6e-05,-2e-05,0.00012,-0.00015,-9e-05,0,3e-05,5,30
27003,5e-05,6e-05,-2e-05,0.00012,-0.00015,-9e-05,0,3e-05,5,30
27004,5e-05,6e-05,-2e-05,0.00012,-0.00015,-9e-05,0,3e-05,5,30
27005,5e-05,6e-05,-2e-05,0.00012,-0.00015,-9e-05,0,3e-05,5,30
27006,5e-05,6e-05,-2e-05,0.00012,-0.00015,-9e-05,0,3e-05,5,30
27007,5e-05,6e-05,-2e-05,0.00012,-0.00015,-9e-05,0,3e-05,5,30
27008,5e-05,6e-05,-2e-05,0.00012,-0.00015,-9e-05,0,3e-05,5,30
27009,5e-05,6e-05,-2e-05,0.00012,-0.00015,-9e-05,0,3e-05,5,30
27010,5e-05,6e-05,-2e-05,0.00012,-0.00015,-9e-05,0,3e-05,5,30
27011,5e-05,6e-05,-2e-05,0.00012,-0.00015,-9e-05,0,3e-05,5,30
27012,5e-05,6e-05,-2e-05,0.00012,-0.00015,-9e-05,0,3e-05,5,30
27013,5e-05,6e-05,-2e-05,0.00012,-0.00015,-9e-05,0,3e-05,5,30
27014,5e-05,6e-05,-2e-05,0.00012,-0.00015,-9e-05,0,3e-05,5,30
27015,5e-05,6e-05,-2e-05,0.00012,-0.00015,-9e-05,0,3e-05,5,30
27016,5e-05,6e-05,-2e-05,0.00012,-0.00015,-9e-05,0,3e-05,5,30
27017,-3e-05,-4e-05,-0.00016,-0.00067,-0.00016,-5e-05,-1e-05,3e-05,5,30
27018,-3e-05,-4e-05,-0.00016,-0.00067,-0.00016,-5e-05,-1e-05,3e-05,5,30
27019,-6e-05,-7e-05,-2e-05,0.00032,-6e-05,0.00015,-7e-05,-6e-05,5,30
27020,-6e-05,-7e-05,-2e-05,0.00032,-6e-05,0.00015,-7e-05,-6e-05,5,30
27021,-6e-05,-7e-05,-2e-05,0.00032,-6e-05,0.00015,-7e-05,-6e-05,5,30
27022,-6e-05,-7e-05,-2e-05,0.00032,-6e-05,0.00015,-7e-05,-6e-05,5,30
27023,-6e-05,-7e-05,-2e-05,0.00032,-6e-05,0.00015,-7e-05,-6e-05,5,30
27024,-6e-05,-7e-05,-2e-05,0.00032,-6e-05,0.00015,-7e-05,-6e-05,5,30
27025,-6e-05,-7e-05,-2e-05,0.00032,-6e-05,0.00015,-7e-05,-6e-05,5,30
27026,-6e-05,-7e-05,-2e-05,0.00032,-6e-05,0.00015,-7e-05,-6e-05,5,30
27027,-6e-05,-7e-05,-2e-05,0.00032,-6e-05,0.00015,-7e-05,-6e-05,5,30
27028,-6e-05,-7e-05,-2e-05,0.00032,-6e-05,0.00015,-7e-05,-6e-05,5,30
27029,-6e-05,-7e-05,-2e-05,0.00032,-6e-05,0.00015,-7e-05,-6e-05,5,30
27030,-6e-05,-7e-05,-2e-05,0.00032,-6e-05,0.00015,-7e-05,-6e-05,5,30
27031,-6e-05,-7e-05,-2e-05,0.00032,-6e-05,0.00015,-7e-05,-6e-05,5,30
27032,-6e-05,-7e-05,-2e-05,0.00032,-6e-05,0.00015,-7e-05,-6e-05,5,30
27033,-6e-05,-7e-05,-2e-05,0.00032,-6e-05,0.00015,-7e-05,-6e-05,5,30
27034,-6e-05,-7e-05,-2e-05,0.00032,-6e-05,0.00015,-7e-05,-6e-05,5,30
27035,-6e-05,-7e-05,-2e-05,0.00032,-6e-05,0.00015,-7e-05,-6e-05,5,30
27036,-6e-05,-7e-05,-2e-05,0.00032,-6e-05,0.00015,-7e-05,-6e-05,5,30
27038,-6e-05,-7e-05,-2e-05,0.00032,-6e-05,0.00015,-7e-05,-6e-05,5,30
27039,-6e-05,-7e-05,-2e-05,0.00032,-6e-05,0.00015,-7e-05,-6e-05,5,30
27040,1e-05,0,-1e-05,0.00025,9e-05,0.00062,0,0,5,30
27041,1e-05,0,-1e-05,0.00025,9e-05,0.00062,0,0,5,30
27042,2e-05,2e-05,-1e-05,-0.00032,9e-05,0.00017,-7e-05,-1e-05,5,30
27043,2e-05,2e-05,-1e-05,-0.00032,9e-05,0.00017,-7e-05,-1e-05,5,30
27044,2e-05,2e-05,-1e-05,-0.00032,9e-05,0.00017,-7e-05,-1e-05,5,30
27045,2e-05,2e-05,-1e-05,-0.00032,9e-05,0.00017,-7e-05,-1e-05,5,30
27046,2e-05,2e-05,-1e-05,-0.00032,9e-05,0.00017,-7e-05,-1e-05,5,30
27047,2e-05,2e-05,-1e-05,-0.00032,9e-05,0.00017,-7e-05,-1e-05,5,30
27048,2e-05,2e-05,-1e-05,-0.00032,9e-05,0.00017,-7e-05,-1e-05,5,30
27049,2e-05,2e-05,-1e-05,-0.00032,9e-05,0.00017,-7e-05,-1e-05,5,30
27050,2e-05,2e-05,-1e-05,-0.00032,9e-05,0.00017,-7e-05,-1e-05,5,30
27051,2e-05,2e-05,-1e-05,-0.00032,9e-05,0.00017,-7e-05,-1e-05,5,30
27052,2e-05,2e-05,-1e-05,-0.00032,9e-05,0.00017,-7e-05,-1e-05,5,30
27053,2e-05,2e-05,-1e-05,-0.00032,9e-05,0.00017,-7e-05,-1e-05,5,30
27054,2e-05,-2e-05,1e-05,0.0004,0.00088,6e-05,0.0001,2e-05,5,30
27055,2e-05,-2e-05,1e-05,0.0004,0.00088,6e-05,0.0001,2e-05,5,30
27056,2e-05,-2e-05,1e-05,0.0004,0.00088,6e-05,0.0001,2e-05,5,30
27057,2e-05,-2e-05,1e-05,0.0004,0.00088,6e-05,0.0001,2e-05,5,30
27058,2e-05,-2e-05,1e-05,0.0004,0.00088,6e-05,0.0001,2e-05,5,30
27059,2e-05,-2e-05,1e-05,0.0004,0.00088,6e-05,0.0001,2e-05,5,30
27060,2e-05,-2e-05,1e-05,0.0004,0.00088,6e-05,0.0001,2e-05,5,30
27061,3e-05,-1e-05,-6e-05,0.00022,3e-05,-0.00028,7e-05,0,5,30
27062,3e-05,-1e-05,-6e-05,0.00022,3e-05,-0.00028,7e-05,0,5,30
27063,3e-05,-1e-05,-6e-05,0.00022,3e-05,-0.00028,7e-05,0,5,30
27064,3e-05,-1e-05,-6e-05,0.00022,3e-05,-0.00028,7e-05,0,5,30
27065,3e-05,-1e-05,-6e-05,0.00022,3e-05,-0.00028,7e-05,0,5,30
27066,3e-05,-1e-05,-6e-05,0.00022,3e-05,-0.00028,7e-05,0,5,30
27067,3e-05,-1e-05,-6e-05,0.00022,3e-05,-0.00028,7e-05,0,5,30
27068,3e-05,-1e-05,-6e-05,0.00022,3e-05,-0.00028,7e-05,0,5,30
27069,3e-05,-1e-05,-6e-05,0.00022,3e-05,-0.00028,7e-05,0,5,30
27070,3e-05,-1e-05,-6e-05,0.00022,3e-05,-0.00028,7e-05,0,5,30
27071,3e-05,-1e-05,-6e-05,0.00022,3e-05,-0.00028,7e-05,0,5,30
27072,3e-05,-1e-05,-6e-05,0.00022,3e-05,-0.00028,7e-05,0,5,30
27073,3e-05,-1e-05,-6e-05,0.00022,3e-05,-0.00028,7e-05,0,5,30
27074,3e-05,-1e-05,-6e-05,0.00022,3e-05,-0.00028,7e-05,0,5,30
27075,3e-05,-1e-05,-6e-05,0.00022,3e-05,-0.00028,7e-05,0,5,30
27076,3e-05,-1e-05,-6e-05,0.00022,3e-05,-0.00028,7e-05,0,5,30
27077,-3e-05,-7e-05,-6e-05,-0.00025,-0.00021,-0.00033,-9e-05,-4e-05,5,30
27078,-3e-05,-7e-05,-6e-05,-0.00025,-0.00021,-0.00033,-9e-05,-4e-05,5,30
27079,-6e-05,-5e-05,5e-05,-0.0001,-0.00021,0.00014,-5e-05,-3e-05,5,30
27080,-6e-05,-5e-05,5e-05,-0.0001,-0.00021,0.00014,-5e-05,-3e-05,5,30
27081,-6e-05,-5e-05,5e-05,-0.0001,-0.00021,0.00014,-5e-05,-3e-05,5,30
27082,-6e-05,-5e-05,5e-05,-0.0001,-0.00021,0.00014,-5e-05,-3e-05,5,30
27083,-6e-05,-5e-05,5e-05,-0.0001,-0.00021,0.00014,-5e-05,-3e-05,5,30
27084,-6e-05,-5e-05,5e-05,-0.0001,-0.00021,0.00014,-5e-05,-3e-05,5,30
27085,-6e-05,-5e-05,5e-05,-0.0001,-0.00021,0.00014,-5e-05,-3e-05,5,30
27086,-6e-05,-5e-05,5e-05,-0.0001,-0.00021,0.00014,-5e-05,-3e-05,5,30
27088,-6e-05,-5e-05,5e-05,-0.0001,-0.00021,0.00014,-5e-05,-3e-05,5,30
27089,-6e-05,-5e-05,5e-05,-0.0001,-0.00021,0.00014,-5e-05,-3e-05,5,30
27090,-6e-05,-5e-05,5e-05,-0.0001,-0.00021,0.00014,-5e-05,-3e-05,5,30
27091,-6e-05,-5e-05,5e-05,-0.0001,-0.00021,0.00014,-5e-05,-3e-05,5,30
27092,-6e-05,-5e-05,5e-05,-0.0001,-0.00021,0.00014,-5e-05,-3e-05,5,30
27093,-6e-05,-5e-05,5e-05,-0.0001,-0.00021,0.00014,-5e-05,-3e-05,5,30
27094,-6e-05,-5e-05,5e-05,-0.0001,-0.00021,0.00014,-5e-05,-3e-05,5,30
27095,-6e-05,-5e-05,5e-05,-0.0001,-0.00021,0.00014,-5e-05,-3e-05,5,30
27096,-6e-05,-5e-05,5e-05,-0.0001,-0.00021,0.00014,-5e-05,-3e-05,5,30
27097,-6e-05,-5e-05,5e-05,-0.0001,-0.00021,0.00014,-5e-05,-3e-05,5,30
27098,-6e-05,-5e-05,5e-05,-0.0001,-0.00021,0.00014,-5e-05,-3e-05,5,30
27099,-6e-05,-5e-05,5e-05,-0.0001,-0.00021,0.00014,-5e-05,-3e-05,5,30
27100,0,-1e-05,-6e-05,-0.00013,-0.00012,0.00029,-5e-05,-3e-05,5,30
27101,3e-05,6e-05,7e-05,0.00021,0.00046,0.00037,0,-1e-05,5,30
27102,0,-8e-05,-4e-05,-2e-05,-3e-05,-0.00072,-0.00021,-4e-05,5,30
27103,0,-8e-05,-4e-05,-2e-05,-3e-05,-0.00072,-0.00021,-4e-05,5,30
27104,0,-8e-05,-4e-05,-2e-05,-3e-05,-0.00072,-0.00021,-4e-05,5,30
27105,0,-8e-05,-4e-05,-2e-05,-3e-05,-0.00072,-0.00021,-4e-05,5,30
27106,0,-8e-05,-4e-05,-2e-05,-3e-05,-0.00072,-0.00021,-4e-05,5,30
27107,0,-8e-05,-4e-05,-2e-05,-3e-05,-0.00072,-0.00021,-4e-05,5,30
27108,0,-8e-05,-4e-05,-2e-05,-3e-05,-0.00072,-0.00021,-4e-05,5,30
27109,0,-8e-05,-4e-05,-2e-05,-3e-05,-0.00072,-0.00021,-4e-05,5,30
27110,0,-8e-05,-4e-05,-2e-05,-3e-05,-0.00072,-0.00021,-4e-05,5,30
27111,0,-8e-05,-4e-05,-2e-05,-3e-05,-0.00072,-0.00021,-4e-05,5,30
27112,0,-8e-05,-4e-05,-2e-05,-3e-05,-0.00072,-0.00021,-4e-05,5,30
27113,0,-8e-05,-4e-05,-2e-05,-3e-05,-0.00072,-0.00021,-4e-05,5,30
27114,-3e-05,-1e-05,-4e-05,-0.00016,0.00022,2e-05,-2e-05,1e-05,5,30
27115,-3e-05,-1e-05,-4e-05,-0.00016,0.00022,2e-05,-2e-05,1e-05,5,30
27116,-3e-05,-1e-05,-4e-05,-0.00016,0.00022,2e-05,-2e-05,1e-05,5,30
27117,-3e-05,-1e-05,-4e-05,-0.00016,0.00022,2e-05,-2e-05,1e-05,5,30
27118,-3e-05,-1e-05,-4e-05,-0.00016,0.00022,2e-05,-2e-05,1e-05,5,30
27119,-3e-05,-1e-05,-4e-05,-0.00016,0.00022,2e-05,-2e-05,1e-05,5,30
27120,-3e-05,-1e-05,-4e-05,-0.00016,0.00022,2e-05,-2e-05,1e-05,5,30
27121,1e-05,2e-05,2e-05,0.00015,0.00053,0.00019,1e-05,3e-05,5,30
27122,1e-05,2e-05,2e-05,0.00015,0.00053,0.00019,1e-05,3e-05,5,30
27123,1e-05,2e-05,2e-05,0.00015,0.00053,0.00019,1e-05,3e-05,5,30
27125,1e-05,2e-05,2e-05,0.00015,0.00053,0.00019,1e-05,3e-05,5,30
27126,1e-05,2e-05,2e-05,0.00015,0.00053,0.00019,1e-05,3e-05,5,30
27127,1e-05,2e-05,2e-05,0.00015,0.00053,0.00019,1e-05,3e-05,5,30
27128,1e-05,2e-05,2e-05,0.00015,0.00053,0.00019,1e-05,3e-05,5,30
27129,1e-05,2e-05,2e-05,0.00015,0.00053,0.00019,1e-05,3e-05,5,30
27130,1e-05,2e-05,2e-05,0.00015,0.00053,0.00019,1e-05,3e-05,5,30
27131,1e-05,2e-05,2e-05,0.00015,0.00053,0.00019,1e-05,3e-05,5,30
27132,1e-05,2e-05,2e-05,0.00015,0.00053,0.00019,1e-05,3e-05,5,30
27133,1e-05,2e-05,2e-05,0.00015,0.00053,0.00019,1e-05,3e-05,5,30
27134,1e-05,2e-05,2e-05,0.00015,0.00053,0.00019,1e-05,3e-05,5,30
27135,1e-05,2e-05,2e-05,0.00015,0.00053,0.00019,1e-05,3e-05,5,30
27136,1e-05,2e-05,2e-05,0.00015,0.00053,0.00019,1e-05,3e-05,5,30
27139,9e-05,0.00011,0.0001,-0.0005,5e-05,0.00027,9e-05,8e-05,5,30
27140,9e-05,0.00011,0.0001,-0.0005,5e-05,0.00027,9e-05,8e-05,5,30
27141,9e-05,0.00011,0.0001,-0.0005,5e-05,0.00027,9e-05,8e-05,5,30
27142,9e-05,0.00011,0.0001,-0.0005,5e-05,0.00027,9e-05,8e-05,5,30
27143,9e-05,0.00011,0.0001,-0.0005,5e-05,0.00027,9e-05,8e-05,5,30
27144,9e-05,0.00011,0.0001,-0.0005,5e-05,0.00027,9e-05,8e-05,5,30
27145,9e-05,0.00011,0.0001,-0.0005,5e-05,0.00027,9e-05,8e-05,5,30
27146,9e-05,0.00011,0.0001,-0.0005,5e-05,0.00027,9e-05,8e-05,5,30
27147,9e-05,0.00011,0.0001,-0.0005,5e-05,0.00027,9e-05,8e-05,5,30
27148,9e-05,0.00011,0.0001,-0.0005,5e-05,0.00027,9e-05,8e-05,5,30
27149,9e-05,0.00011,0.0001,-0.0005,5e-05,0.00027,9e-05,8e-05,5,30
27150,9e-05,0.00011,0.0001,-0.0005,5e-05,0.00027,9e-05,8e-05,5,30
27151,9e-05,0.00011,0.0001,-0.0005,5e-05,0.00027,9e-05,8e-05,5,30
27152,9e-05,0.00011,0.0001,-0.0005,5e-05,0.00027,9e-05,8e-05,5,30
27153,9e-05,0.00011,0.0001,-0.0005,5e-05,0.00027,9e-05,8e-05,5,30
27154,9e-05,0.00011,0.0001,-0.0005,5e-05,0.00027,9e-05,8e-05,5,30
27155,9e-05,0.00011,0.0001,-0.0005,5e-05,0.00027,9e-05,8e-05,5,30
27156,9e-05,0.00011,0.0001,-0.0005,5e-05,0.00027,9e-05,8e-05,5,30
27157,9e-05,0.00011,0.0001,-0.0005,5e-05,0.00027,9e-05,8e-05,5,30
27158,9e-05,0.00011,0.0001,-0.0005,5e-05,0.00027,9e-05,8e-05,5,30
27159,9e-05,0.00011,0.0001,-0.0005,5e-05,0.00027,9e-05,8e-05,5,30
27160,-4e-05,-3e-05,-5e-05,-0.00019,-0.0002,-3e-05,-5e-05,-3e-05,5,30
27161,2e-05,2e-05,0.00012,0.00016,-0.00031,0.00045,-4e-05,-1e-05,5,30
27162,2e-05,2e-05,0.00012,0.00016,-0.00031,0.00045,-4e-05,-1e-05,5,30
27163,2e-05,2e-05,0.00012,0.00016,-0.00031,0.00045,-4e-05,-1e-05,5,30
27164,2e-05,2e-05,0.00012,0.00016,-0.00031,0.00045,-4e-05,-1e-05,5,30
27165,2e-05,2e-05,0.00012,0.00016,-0.00031,0.00045,-4e-05,-1e-05,5,30
27166,2e-05,2e-05,0.00012,0.00016,-0.00031,0.00045,-4e-05,-1e-05,5,30
27167,2e-05,2e-05,0.00012,0.00016,-0.00031,0.00045,-4e-05,-1e-05,5,30
27168,2e-05,2e-05,0.00012,0.00016,-0.00031,0.00045,-4e-05,-1e-05,5,30
27169,2e-05,2e-05,0.00012,0.00016,-0.00031,0.00045,-4e-05,-1e-05,5,30
27170,2e-05,2e-05,0.00012,0.00016,-0.00031,0.00045,-4e-05,-1e-05,5,30
27171,2e-05,2e-05,0.00012,0.00016,-0.00031,0.00045,-4e-05,-1e-05,5,30
27172,2e-05,2e-05,0.00012,0.00016,-0.00031,0.00045,-4e-05,-1e-05,5,30
27173,0,0,5e-05,0.00033,0.00015,6e-05,-1e-05,-1e-05,5,30
27174,-3e-05,-6e-05,-0.00012,-0.00041,-7e-05,-0.00061,-9e-05,-6e-05,5,30
27175,-3e-05,-6e-05,-0.00012,-0.00041,-7e-05,-0.00061,-9e-05,-6e-05,5,30
27176,-3e-05,-6e-05,-0.00012,-0.00041,-7e-05,-0.00061,-9e-05,-6e-05,5,30
27177,-3e-05,-6e-05,-0.00012,-0.00041,-7e-05,-0.00061,-9e-05,-6e-05,5,30
27178,-3e-05,-6e-05,-0.00012,-0.00041,-7e-05,-0.00061,-9e-05,-6e-05,5,30
27179,-3e-05,-6e-05,-0.00012,-0.00041,-7e-05,-0.00061,-9e-05,-6e-05,5,30
27180,-3e-05,-6e-05,-0.00012,-0.00041,-7e-05,-0.00061,-9e-05,-6e-05,5,30
27181,-3e-05,-6e-05,-0.00012,-0.00041,-7e-05,-0.00061,-9e-05,-6e-05,5,30
27182,-5e-05,-5e-05,-4e-05,0.00022,0.00031,8e-05,3e-05,1e-05,5,30
27183,-5e-05,-5e-05,-4e-05,0.00022,0.00031,8e-05,3e-05,1e-05,5,30
27184,-5e-05,-5e-05,-4e-05,0.00022,0.00031,8e-05,3e-05,1e-05,5,30
27185,-5e-05,-5e-05,-4e-05,0.00022,0.00031,8e-05,3e-05,1e-05,5,30
27186,-5e-05,-5e-05,-4e-05,0.00022,0.00031,8e-05,3e-05,1e-05,5,30
27188,-5e-05,-5e-05,-4e-05,0.00022,0.00031,8e-05,3e-05,1e-05,5,30
27189,-5e-05,-5e-05,-4e-05,0.00022,0.00031,8e-05,3e-05,1e-05,5,30
27190,-5e-05,-5e-05,-4e-05,0.00022,0.00031,8e-05,3e-05,1e-05,5,30
27191,-5e-05,-5e-05,-4e-05,0.00022,0.00031,8e-05,3e-05,1e-05,5,30
27192,-5e-05,-5e-05,-4e-05,0.00022,0.00031,8e-05,3e-05,1e-05,5,30
27193,-5e-05,-5e-05,-4e-05,0.00022,0.00031,8e-05,3e-05,1e-05,5,30
27194,-5e-05,-5e-05,-4e-05,0.00022,0.00031,8e-05,3e-05,1e-05,5,30
27195,-5e-05,-5e-05,-4e-05,0.00022,0.00031,8e-05,3e-05,1e-05,5,30
27196,-5e-05,-5e-05,-4e-05,0.00022,0.00031,8e-05,3e-05,1e-05,5,30
27197,8e-05,7e-05,5e-05,-7e-05,-0.00016,0.00016,-1e-05,-2e-05,5,30
27198,-8e-05,-4e-05,-3e-05,1e-05,-6e-05,1e-05,-3e-05,-3e-05,5,30
27199,-3e-05,2e-05,1e-05,-0.00029,-0.00014,0.00025,2e-05,-3e-05,5,30
27200,-3e-05,2e-05,1e-05,-0.00029,-0.00014,0.00025,2e-05,-3e-05,5,30
27201,-3e-05,2e-05,1e-05,-0.00029,-0.00014,0.00025,2e-05,-3e-05,5,30
27202,-3e-05,2e-05,1e-05,-0.00029,-0.00014,0.00025,2e-05,-3e-05,5,30
27203,-3e-05,2e-05,1e-05,-0.00029,-0.00014,0.00025,2e-05,-3e-05,5,30
27204,-3e-05,2e-05,1e-05,-0.00029,-0.00014,0.00025,2e-05,-3e-05,5,30
27205,-3e-05,2e-05,1e-05,-0.00029,-0.00014,0.00025,2e-05,-3e-05,5,30
27206,-3e-05,2e-05,1e-05,-0.00029,-0.00014,0.00025,2e-05,-3e-05,5,30
27207,-3e-05,2e-05,1e-05,-0.00029,-0.00014,0.00025,2e-05,-3e-05,5,30
27208,-3e-05,2e-05,1e-05,-0.00029,-0.00014,0.00025,2e-05,-3e-05,5,30
27209,-3e-05,2e-05,1e-05,-0.00029,-0.00014,0.00025,2e-05,-3e-05,5,30
27210,-3e-05,2e-05,1e-05,-0.00029,-0.00014,0.00025,2e-05,-3e-05,5,30
27211,-3e-05,2e-05,1e-05,-0.00029,-0.00014,0.00025,2e-05,-3e-05,5,30
27212,-3e-05,2e-05,1e-05,-0.00029,-0.00014,0.00025,2e-05,-3e-05,5,30
27213,-3e-05,2e-05,1e-05,-0.00029,-0.00014,0.00025,2e-05,-3e-05,5,30
27214,-3e-05,2e-05,1e-05,-0.00029,-0.00014,0.00025,2e-05,-3e-05,5,30
27215,-3e-05,2e-05,1e-05,-0.00029,-0.00014,0.00025,2e-05,-3e-05,5,30
27217,-3e-05,2e-05,1e-05,-0.00029,-0.00014,0.00025,2e-05,-3e-05,5,30
27218,-3e-05,2e-05,1e-05,-0.00029,-0.00014,0.00025,2e-05,-3e-05,5,30
27219,-3e-05,2e-05,1e-05,-0.00029,-0.00014,0.00025,2e-05,-3e-05,5,30
27220,-1e-05,-2e-05,4e-05,0.00034,-0.00017,0.00025,-1e-05,-1e-05,5,30
27221,-2e-05,-2e-05,-0.00016,-0.00047,-0.0003,8e-05,0,-2e-05,5,30
27222,-2e-05,-2e-05,-0.00016,-0.00047,-0.0003,8e-05,0,-2e-05,5,30
27223,-2e-05,-2e-05,-0.00016,-0.00047,-0.0003,8e-05,0,-2e-05,5,30
27224,-2e-05,-2e-05,-0.00016,-0.00047,-0.0003,8e-05,0,-2e-05,5,30
27225,-2e-05,-2e-05,-0.00016,-0.00047,-0.0003,8e-05,0,-2e-05,5,30
27226,-2e-05,-2e-05,-0.00016,-0.00047,-0.0003,8e-05,0,-2e-05,5,30
27227,-2e-05,-2e-05,-0.00016,-0.00047,-0.0003,8e-05,0,-2e-05,5,30
27228,-2e-05,-2e-05,-0.00016,-0.00047,-0.0003,8e-05,0,-2e-05,5,30
27229,-2e-05,-2e-05,-0.00016,-0.00047,-0.0003,8e-05,0,-2e-05,5,30
27230,-2e-05,-2e-05,-0.00016,-0.00047,-0.0003,8e-05,0,-2e-05,5,30
27231,-2e-05,-2e-05,-0.00016,-0.00047,-0.0003,8e-05,0,-2e-05,5,30
27232,-2e-05,-2e-05,-0.00016,-0.00047,-0.0003,8e-05,0,-2e-05,5,30
27233,1e-05,4e-05,6e-05,0.00013,-0.00011,0.00017,-8e-05,-2e-05,5,30
27234,-5e-05,-0.00014,-0.00012,0.0004,0.00038,-8e-05,0.00014,2e-05,5,30
27235,-5e-05,-0.00014,-0.00012,0.0004,0.00038,-8e-05,0.00014,2e-05,5,30
27236,-5e-05,-0.00014,-0.00012,0.0004,0.00038,-8e-05,0.00014,2e-05,5,30
27238,-5e-05,-0.00014,-0.00012,0.0004,0.00038,-8e-05,0.00014,2e-05,5,30
27239,-5e-05,-0.00014,-0.00012,0.0004,0.00038,-8e-05,0.00014,2e-05,5,30
27240,-5e-05,-0.00014,-0.00012,0.0004,0.00038,-8e-05,0.00014,2e-05,5,30
27241,-5e-05,-0.00014,-0.00012,0.0004,0.00038,-8e-05,0.00014,2e-05,5,30
27242,-5e-05,-0.00014,-0.00012,0.0004,0.00038,-8e-05,0.00014,2e-05,5,30
27243,0,-3e-05,-6e-05,-0.0001,-0.00031,-0.00012,-5e-05,0,5,30
27244,0,-3e-05,-6e-05,-0.0001,-0.00031,-0.00012,-5e-05,0,5,30
27245,0,-3e-05,-6e-05,-0.0001,-0.00031,-0.00012,-5e-05,0,5,30
27246,0,-3e-05,-6e-05,-0.0001,-0.00031,-0.00012,-5e-05,0,5,30
27247,0,-3e-05,-6e-05,-0.0001,-0.00031,-0.00012,-5e-05,0,5,30
27248,0,-3e-05,-6e-05,-0.0001,-0.00031,-0.00012,-5e-05,0,5,30
27249,0,-3e-05,-6e-05,-0.0001,-0.00031,-0.00012,-5e-05,0,5,30
27250,0,-3e-05,-6e-05,-0.0001,-0.00031,-0.00012,-5e-05,0,5,30
27251,0,-3e-05,-6e-05,-0.0001,-0.00031,-0.00012,-5e-05,0,5,30
27252,0,-3e-05,-6e-05,-0.0001,-0.00031,-0.00012,-5e-05,0,5,30
27253,0,-3e-05,-6e-05,-0.0001,-0.00031,-0.00012,-5e-05,0,5,30
27254,0,-3e-05,-6e-05,-0.0001,-0.00031,-0.00012,-5e-05,0,5,30
27255,0,-3e-05,-6e-05,-0.0001,-0.00031,-0.00012,-5e-05,0,5,30
27256,0,-3e-05,-6e-05,-0.0001,-0.00031,-0.00012,-5e-05,0,5,30
27257,3e-05,-4e-05,-2e-05,0.00023,0.00019,-0.00033,-5e-05,0,5,30
27258,-9e-05,-0.0001,-0.00018,0.00018,-4e-05,-0.00032,1e-05,-6e-05,5,30
27259,-1e-05,1e-05,0.00013,0.00021,0.00018,0.00014,6e-05,2e-05,5,30
27260,-1e-05,1e-05,0.00013,0.00021,0.00018,0.00014,6e-05,2e-05,5,30
27261,-1e-05,1e-05,0.00013,0.00021,0.00018,0.00014,6e-05,2e-05,5,30
27262,-1e-05,1e-05,0.00013,0.00021,0.00018,0.00014,6e-05,2e-05,5,30
27264,-1e-05,1e-05,0.00013,0.00021,0.00018,0.00014,6e-05,2e-05,5,30
27265,-1e-05,1e-05,0.00013,0.00021,0.00018,0.00014,6e-05,2e-05,5,30
27266,-1e-05,1e-05,0.00013,0.00021,0.00018,0.00014,6e-05,2e-05,5,30
27267,-1e-05,1e-05,0.00013,0.00021,0.00018,0.00014,6e-05,2e-05,5,30
27268,-1e-05,1e-05,0.00013,0.00021,0.00018,0.00014,6e-05,2e-05,5,30
27269,-1e-05,1e-05,0.00013,0.00021,0.00018,0.00014,6e-05,2e-05,5,30
27270,-1e-05,1e-05,0.00013,0.00021,0.00018,0.00014,6e-05,2e-05,5,30
27271,-1e-05,1e-05,0.00013,0.00021,0.00018,0.00014,6e-05,2e-05,5,30
27272,-1e-05,1e-05,0.00013,0.00021,0.00018,0.00014,6e-05,2e-05,5,30
27273,-1e-05,1e-05,0.00013,0.00021,0.00018,0.00014,6e-05,2e-05,5,30
27274,-1e-05,1e-05,0.00013,0.00021,0.00018,0.00014,6e-05,2e-05,5,30
27275,-1e-05,1e-05,0.00013,0.00021,0.00018,0.00014,6e-05,2e-05,5,30
27276,-1e-05,1e-05,0.00013,0.00021,0.00018,0.00014,6e-05,2e-05,5,30
27277,-1e-05,1e-05,0.00013,0.00021,0.00018,0.00014,6e-05,2e-05,5,30
27278,-1e-05,1e-05,0.00013,0.00021,0.00018,0.00014,6e-05,2e-05,5,30
27279,-1e-05,1e-05,0.00013,0.00021,0.00018,0.00014,6e-05,2e-05,5,30
27280,-2e-05,-3e-05,-1e-05,0.00015,-5e-05,-6e-05,-7e-05,-4e-05,5,30
27281,4e-05,1e-05,-2e-05,-0.00036,9e-05,0.00023,-1e-05,1e-05,5,30
27282,3e-05,1e-05,-3e-05,0.00018,0,-0.00023,-4e-05,-1e-05,5,30
27283,3e-05,1e-05,-3e-05,0.00018,0,-0.00023,-4e-05,-1e-05,5,30
27284,3e-05,1e-05,-3e-05,0.00018,0,-0.00023,-4e-05,-1e-05,5,30
27285,3e-05,1e-05,-3e-05,0.00018,0,-0.00023,-4e-05,-1e-05,5,30
27286,3e-05,1e-05,-3e-05,0.00018,0,-0.00023,-4e-05,-1e-05,5,30
27288,3e-05,1e-05,-3e-05,0.00018,0,-0.00023,-4e-05,-1e-05,5,30
27289,3e-05,1e-05,-3e-05,0.00018,0,-0.00023,-4e-05,-1e-05,5,30
27290,3e-05,1e-05,-3e-05,0.00018,0,-0.00023,-4e-05,-1e-05,5,30
27291,3e-05,1e-05,-3e-05,0.00018,0,-0.00023,-4e-05,-1e-05,5,30
27292,3e-05,1e-05,-3e-05,0.00018,0,-0.00023,-4e-05,-1e-05,5,30
27293,3e-05,1e-05,-3e-05,0.00018,0,-0.00023,-4e-05,-1e-05,5,30
27294,6e-05,0.0001,0.00016,0.00046,0.00037,0.00058,0.0001,7e-05,5,30
27295,6e-05,0.0001,0.00016,0.00046,0.00037,0.00058,0.0001,7e-05,5,30
27296,6e-05,0.0001,0.00016,0.00046,0.00037,0.00058,0.0001,7e-05,5,30
27297,6e-05,0.0001,0.00016,0.00046,0.00037,0.00058,0.0001,7e-05,5,30
27298,6e-05,0.0001,0.00016,0.00046,0.00037,0.00058,0.0001,7e-05,5,30
27299,6e-05,0.0001,0.00016,0.00046,0.00037,0.00058,0.0001,7e-05,5,30
27300,6e-05,0.0001,0.00016,0.00046,0.00037,0.00058,0.0001,7e-05,5,30
27301,6e-05,0.0001,0.00016,0.00046,0.00037,0.00058,0.0001,7e-05,5,30
27302,-1e-05,-2e-05,-1e-05,3e-05,7e-05,0.00054,0.00018,4e-05,5,30
27303,-1e-05,-2e-05,-1e-05,3e-05,7e-05,0.00054,0.00018,4e-05,5,30
27304,-1e-05,-2e-05,-1e-05,3e-05,7e-05,0.00054,0.00018,4e-05,5,30
27305,-1e-05,-2e-05,-1e-05,3e-05,7e-05,0.00054,0.00018,4e-05,5,30
27306,-1e-05,-2e-05,-1e-05,3e-05,7e-05,0.00054,0.00018,4e-05,5,30
27307,-1e-05,-2e-05,-1e-05,3e-05,7e-05,0.00054,0.00018,4e-05,5,30
27308,-1e-05,-2e-05,-1e-05,3e-05,7e-05,0.00054,0.00018,4e-05,5,30
27309,-1e-05,-2e-05,-1e-05,3e-05,7e-05,0.00054,0.00018,4e-05,5,30
27310,-1e-05,-2e-05,-1e-05,3e-05,7e-05,0.00054,0.00018,4e-05,5,30
27311,-1e-05,-2e-05,-1e-05,3e-05,7e-05,0.00054,0.00018,4e-05,5,30
27312,-1e-05,-2e-05,-1e-05,3e-05,7e-05,0.00054,0.00018,4e-05,5,30
27313,-1e-05,-2e-05,-1e-05,3e-05,7e-05,0.00054,0.00018,4e-05,5,30
27314,-1e-05,-2e-05,-1e-05,3e-05,7e-05,0.00054,0.00018,4e-05,5,30
27315,-1e-05,-2e-05,-1e-05,3e-05,7e-05,0.00054,0.00018,4e-05,5,30
27316,-1e-05,-2e-05,-1e-05,3e-05,7e-05,0.00054,0.00018,4e-05,5,30
27317,-1e-05,2e-05,5e-05,1e-05,-3e-05,1e-05,1e-05,0,5,30
27318,5e-05,5e-05,-4e-05,-0.00016,-2e-05,-9e-05,-3e-05,2e-05,5,30
27319,-5e-05,-2e-05,3e-05,0.00029,9e-05,-0.00045,-3e-05,-5e-05,5,30
27320,-5e-05,-2e-05,3e-05,0.00029,9e-05,-0.00045,-3e-05,-5e-05,5,30
27321,-5e-05,-2e-05,3e-05,0.00029,9e-05,-0.00045,-3e-05,-5e-05,5,30
27322,-5e-05,-2e-05,3e-05,0.00029,9e-05,-0.00045,-3e-05,-5e-05,5,30
27323,-5e-05,-2e-05,3e-05,0.00029,9e-05,-0.00045,-3e-05,-5e-05,5,30
27324,-5e-05,-2e-05,3e-05,0.00029,9e-05,-0.00045,-3e-05,-5e-05,5,30
27325,-5e-05,-2e-05,3e-05,0.00029,9e-05,-0.00045,-3e-05,-5e-05,5,30
27326,-5e-05,-2e-05,3e-05,0.00029,9e-05,-0.00045,-3e-05,-5e-05,5,30
27327,-5e-05,-2e-05,3e-05,0.00029,9e-05,-0.00045,-3e-05,-5e-05,5,30
27328,-5e-05,-2e-05,3e-05,0.00029,9e-05,-0.00045,-3e-05,-5e-05,5,30
27329,-5e-05,-2e-05,3e-05,0.00029,9e-05,-0.00045,-3e-05,-5e-05,5,30
27330,-5e-05,-2e-05,3e-05,0.00029,9e-05,-0.00045,-3e-05,-5e-05,5,30
27331,-5e-05,-2e-05,3e-05,0.00029,9e-05,-0.00045,-3e-05,-5e-05,5,30
27332,-5e-05,-2e-05,3e-05,0.00029,9e-05,-0.00045,-3e-05,-5e-05,5,30
27333,-5e-05,-2e-05,3e-05,0.00029,9e-05,-0.00045,-3e-05,-5e-05,5,30
27334,-5e-05,-2e-05,3e-05,0.00029,9e-05,-0.00045,-3e-05,-5e-05,5,30
27335,-5e-05,-2e-05,3e-05,0.00029,9e-05,-0.00045,-3e-05,-5e-05,5,30
27336,-5e-05,-2e-05,3e-05,0.00029,9e-05,-0.00045,-3e-05,-5e-05,5,30
27338,-5e-05,-2e-05,3e-05,0.00029,9e-05,-0.00045,-3e-05,-5e-05,5,30
27339,-5e-05,-2e-05,3e-05,0.00029,9e-05,-0.00045,-3e-05,-5e-05,5,30
27340,6e-05,2e-05,-7e-05,-0.00043,1e-05,-0.00018,3e-05,2e-05,5,30
27341,2e-05,4e-05,0.00011,0.00028,0.00045,0.00068,-3e-05,0,5,30
27342,2e-05,1e-05,1e-05,-0.00037,-2e-05,-0.00016,-2e-05,0,5,30
27343,2e-05,1e-05,1e-05,-0.00037,-2e-05,-0.00016,-2e-05,0,5,30
27344,2e-05,1e-05,1e-05,-0.00037,-2e-05,-0.00016,-2e-05,0,5,30
27345,2e-05,1e-05,1e-05,-0.00037,-2e-05,-0.00016,-2e-05,0,5,30
27346,2e-05,1e-05,1e-05,-0.00037,-2e-05,-0.00016,-2e-05,0,5,30
27347,2e-05,1e-05,1e-05,-0.00037,-2e-05,-0.00016,-2e-05,0,5,30
27348,2e-05,1e-05,1e-05,-0.00037,-2e-05,-0.00016,-2e-05,0,5,30
27349,2e-05,1e-05,1e-05,-0.00037,-2e-05,-0.00016,-2e-05,0,5,30
27350,2e-05,1e-05,1e-05,-0.00037,-2e-05,-0.00016,-2e-05,0,5,30
27351,2e-05,1e-05,1e-05,-0.00037,-2e-05,-0.00016,-2e-05,0,5,30
27352,2e-05,1e-05,1e-05,-0.00037,-2e-05,-0.00016,-2e-05,0,5,30
27353,-7e-05,-0.0001,-6e-05,-3e-05,0.00021,0.00015,-2e-05,-2e-05,5,30
27354,-4e-05,-9e-05,-9e-05,0.0001,0.00035,-0.00071,8e-05,-4e-05,5,30
27355,-4e-05,-9e-05,-9e-05,0.0001,0.00035,-0.00071,8e-05,-4e-05,5,30
27356,-4e-05,-9e-05,-9e-05,0.0001,0.00035,-0.00071,8e-05,-4e-05,5,30
27357,-4e-05,-9e-05,-9e-05,0.0001,0.00035,-0.00071,8e-05,-4e-05,5,30
27358,-4e-05,-9e-05,-9e-05,0.0001,0.00035,-0.00071,8e-05,-4e-05,5,30
27359,-4e-05,-9e-05,-9e-05,0.0001,0.00035,-0.00071,8e-05,-4e-05,5,30
27360,-4e-05,-9e-05,-9e-05,0.0001,0.00035,-0.00071,8e-05,-4e-05,5,30
27361,-4e-05,-9e-05,-9e-05,0.0001,0.00035,-0.00071,8e-05,-4e-05,5,30
27362,1e-05,0,2e-05,-0.00024,-0.00053,0.00011,-5e-05,3e-05,5,30
27363,1e-05,0,2e-05,-0.00024,-0.00053,0.00011,-5e-05,3e-05,5,30
27364,1e-05,0,2e-05,-0.00024,-0.00053,0.00011,-5e-05,3e-05,5,30
27365,1e-05,0,2e-05,-0.00024,-0.00053,0.00011,-5e-05,3e-05,5,30
27366,1e-05,0,2e-05,-0.00024,-0.00053,0.00011,-5e-05,3e-05,5,30
27367,1e-05,0,2e-05,-0.00024,-0.00053,0.00011,-5e-05,3e-05,5,30
27368,1e-05,0,2e-05,-0.00024,-0.00053,0.00011,-5e-05,3e-05,5,30
27369,1e-05,0,2e-05,-0.00024,-0.00053,0.00011,-5e-05,3e-05,5,30
27370,1e-05,0,2e-05,-0.00024,-0.00053,0.00011,-5e-05,3e-05,5,30
27371,1e-05,0,2e-05,-0.00024,-0.00053,0.00011,-5e-05,3e-05,5,30
27372,1e-05,0,2e-05,-0.00024,-0.00053,0.00011,-5e-05,3e-05,5,30
27373,1e-05,0,2e-05,-0.00024,-0.00053,0.00011,-5e-05,3e-05,5,30
27374,1e-05,0,2e-05,-0.00024,-0.00053,0.00011,-5e-05,3e-05,5,30
27375,1e-05,0,2e-05,-0.00024,-0.00053,0.00011,-5e-05,3e-05,5,30
27376,1e-05,0,2e-05,-0.00024,-0.00053,0.00011,-5e-05,3e-05,5,30
27377,-3e-05,-0.00011,-0.00019,-0.00069,-0.00049,0.00045,-7e-05,-2e-05,5,30
27378,-3e-05,-0.00011,-0.00019,-0.00069,-0.00049,0.00045,-7e-05,-2e-05,5,30
27379,2e-05,3e-05,9e-05,0.00034,0.00025,-0.00072,8e-05,-1e-05,5,30
27380,2e-05,3e-05,9e-05,0.00034,0.00025,-0.00072,8e-05,-1e-05,5,30
27381,2e-05,3e-05,9e-05,0.00034,0.00025,-0.00072,8e-05,-1e-05,5,30
27382,2e-05,3e-05,9e-05,0.00034,0.00025,-0.00072,8e-05,-1e-05,5,30
27383,2e-05,3e-05,9e-05,0.00034,0.00025,-0.00072,8e-05,-1e-05,5,30
27384,2e-05,3e-05,9e-05,0.00034,0.00025,-0.00072,8e-05,-1e-05,5,30
27385,2e-05,3e-05,9e-05,0.00034,0.00025,-0.00072,8e-05,-1e-05,5,30
27386,2e-05,3e-05,9e-05,0.00034,0.00025,-0.00072,8e-05,-1e-05,5,30
27388,2e-05,3e-05,9e-05,0.00034,0.00025,-0.00072,8e-05,-1e-05,5,30
27389,2e-05,3e-05,9e-05,0.00034,0.00025,-0.00072,8e-05,-1e-05,5,30
27390,2e-05,3e-05,9e-05,0.00034,0.00025,-0.00072,8e-05,-1e-05,5,30
27391,2e-05,3e-05,9e-05,0.00034,0.00025,-0.00072,8e-05,-1e-05,5,30
27392,2e-05,3e-05,9e-05,0.00034,0.00025,-0.00072,8e-05,-1e-05,5,30
27393,2e-05,3e-05,9e-05,0.00034,0.00025,-0.00072,8e-05,-1e-05,5,30
27394,2e-05,3e-05,9e-05,0.00034,0.00025,-0.00072,8e-05,-1e-05,5,30
27395,2e-05,3e-05,9e-05,0.00034,0.00025,-0.00072,8e-05,-1e-05,5,30
27396,2e-05,3e-05,9e-05,0.00034,0.00025,-0.00072,8e-05,-1e-05,5,30
27397,2e-05,3e-05,9e-05,0.00034,0.00025,-0.00072,8e-05,-1e-05,5,30
27398,2e-05,3e-05,9e-05,0.00034,0.00025,-0.00072,8e-05,-1e-05,5,30
27399,2e-05,3e-05,9e-05,0.00034,0.00025,-0.00072,8e-05,-1e-05,5,30
27400,-3e-05,-6e-05,-8e-05,-8e-05,-0.00019,-0.00034,-0.00013,-6e-05,5,30
27401,2e-05,-2e-05,5e-05,0.00054,0.00072,0.00028,1e-05,5e-05,5,30
27402,2e-05,-2e-05,5e-05,0.00054,0.00072,0.00028,1e-05,5e-05,5,30
27403,2e-05,-2e-05,5e-05,0.00054,0.00072,0.00028,1e-05,5e-05,5,30
27404,2e-05,-2e-05,5e-05,0.00054,0.00072,0.00028,1e-05,5e-05,5,30
27405,2e-05,-2e-05,5e-05,0.00054,0.00072,0.00028,1e-05,5e-05,5,30
27406,2e-05,-2e-05,5e-05,0.00054,0.00072,0.00028,1e-05,5e-05,5,30
27407,2e-05,-2e-05,5e-05,0.00054,0.00072,0.00028,1e-05,5e-05,5,30
27408,2e-05,-2e-05,5e-05,0.00054,0.00072,0.00028,1e-05,5e-05,5,30
27409,2e-05,-2e-05,5e-05,0.00054,0.00072,0.00028,1e-05,5e-05,5,30
27410,2e-05,-2e-05,5e-05,0.00054,0.00072,0.00028,1e-05,5e-05,5,30
27411,2e-05,-2e-05,5e-05,0.00054,0.00072,0.00028,1e-05,5e-05,5,30
27412,2e-05,-2e-05,5e-05,0.00054,0.00072,0.00028,1e-05,5e-05,5,30
27413,-2e-05,-3e-05,-3e-05,2e-05,8e-05,-1e-05,-4e-05,-1e-05,5,30
27414,5e-05,6e-05,1e-05,-0.00028,0.00012,0.00046,-8e-05,0,5,30
27415,5e-05,6e-05,1e-05,-0.00028,0.00012,0.00046,-8e-05,0,5,30
27416,5e-05,6e-05,1e-05,-0.00028,0.00012,0.00046,-8e-05,0,5,30
27417,5e-05,6e-05,1e-05,-0.00028,0.00012,0.00046,-8e-05,0,5,30
27418,5e-05,6e-05,1e-05,-0.00028,0.00012,0.00046,-8e-05,0,5,30
27419,5e-05,6e-05,1e-05,-0.00028,0.00012,0.00046,-8e-05,0,5,30
27420,5e-05,6e-05,1e-05,-0.00028,0.00012,0.00046,-8e-05,0,5,30
27421,5e-05,6e-05,1e-05,-0.00028,0.00012,0.00046,-8e-05,0,5,30
27422,-2e-05,-1e-05,-4e-05,-1e-05,-0.00019,0.00034,-7e-05,-3e-05,5,30
27423,-2e-05,-1e-05,-4e-05,-1e-05,-0.00019,0.00034,-7e-05,-3e-05,5,30
27424,-2e-05,-1e-05,-4e-05,-1e-05,-0.00019,0.00034,-7e-05,-3e-05,5,30
27425,-2e-05,-1e-05,-4e-05,-1e-05,-0.00019,0.00034,-7e-05,-3e-05,5,30
27426,-2e-05,-1e-05,-4e-05,-1e-05,-0.00019,0.00034,-7e-05,-3e-05,5,30
27427,-2e-05,-1e-05,-4e-05,-1e-05,-0.00019,0.00034,-7e-05,-3e-05,5,30
27428,-2e-05,-1e-05,-4e-05,-1e-05,-0.00019,0.00034,-7e-05,-3e-05,5,30
27429,-2e-05,-1e-05,-4e-05,-1e-05,-0.00019,0.00034,-7e-05,-3e-05,5,30
27430,-2e-05,-1e-05,-4e-05,-1e-05,-0.00019,0.00034,-7e-05,-3e-05,5,30
27431,-2e-05,-1e-05,-4e-05,-1e-05,-0.00019,0.00034,-7e-05,-3e-05,5,30
27432,-2e-05,-1e-05,-4e-05,-1e-05,-0.00019,0.00034,-7e-05,-3e-05,5,30
27433,-2e-05,-1e-05,-4e-05,-1e-05,-0.00019,0.00034,-7e-05,-3e-05,5,30
27434,-2e-05,-1e-05,-4e-05,-1e-05,-0.00019,0.00034,-7e-05,-3e-05,5,30
27435,-2e-05,-1e-05,-4e-05,-1e-05,-0.00019,0.00034,-7e-05,-3e-05,5,30
27436,-2e-05,-1e-05,-4e-05,-1e-05,-0.00019,0.00034,-7e-05,-3e-05,5,30
27439,-2e-05,-2e-05,-0.00015,-0.00048,-0.00049,-3e-05,-3e-05,-5e-05,5,30
27440,-2e-05,-2e-05,-0.00015,-0.00048,-0.00049,-3e-05,-3e-05,-5e-05,5,30
27441,-2e-05,-2e-05,-0.00015,-0.00048,-0.00049,-3e-05,-3e-05,-5e-05,5,30
27442,-2e-05,-2e-05,-0.00015,-0.00048,-0.00049,-3e-05,-3e-05,-5e-05,5,30
27443,-2e-05,-2e-05,-0.00015,-0.00048,-0.00049,-3e-05,-3e-05,-5e-05,5,30
27444,-2e-05,-2e-05,-0.00015,-0.00048,-0.00049,-3e-05,-3e-05,-5e-05,5,30
27445,-2e-05,-2e-05,-0.00015,-0.00048,-0.00049,-3e-05,-3e-05,-5e-05,5,30
27446,-2e-05,-2e-05,-0.00015,-0.00048,-0.00049,-3e-05,-3e-05,-5e-05,5,30
27447,-2e-05,-2e-05,-0.00015,-0.00048,-0.00049,-3e-05,-3e-05,-5e-05,5,30
27448,-2e-05,-2e-05,-0.00015,-0.00048,-0.00049,-3e-05,-3e-05,-5e-05,5,30
27449,-2e-05,-2e-05,-0.00015,-0.00048,-0.00049,-3e-05,-3e-05,-5e-05,5,30
27450,-2e-05,-2e-05,-0.00015,-0.00048,-0.00049,-3e-05,-3e-05,-5e-05,5,30
27451,-2e-05,-2e-05,-0.00015,-0.00048,-0.00049,-3e-05,-3e-05,-5e-05,5,30
27452,-2e-05,-2e-05,-0.00015,-0.00048,-0.00049,-3e-05,-3e-05,-5e-05,5,30
27453,-2e-05,-2e-05,-0.00015,-0.00048,-0.00049,-3e-05,-3e-05,-5e-05,5,30
27454,-2e-05,-2e-05,-0.00015,-0.00048,-0.00049,-3e-05,-3e-05,-5e-05,5,30
27455,-2e-05,-2e-05,-0.00015,-0.00048,-0.00049,-3e-05,-3e-05,-5e-05,5,30
27456,-2e-05,-2e-05,-0.00015,-0.00048,-0.00049,-3e-05,-3e-05,-5e-05,5,30
27457,-2e-05,-2e-05,-0.00015,-0.00048,-0.00049,-3e-05,-3e-05,-5e-05,5,30
27458,-2e-05,-2e-05,-0.00015,-0.00048,-0.00049,-3e-05,-3e-05,-5e-05,5,30
27459,-2e-05,-2e-05,-0.00015,-0.00048,-0.00049,-3e-05,-3e-05,-5e-05,5,30
27460,-5e-05,-4e-05,7e-05,-9e-05,4e-05,0.00014,-3e-05,-5e-05,5,30
27461,7e-05,6e-05,0.00016,0.00062,0.00081,-0.0008,-2e-05,5e-05,5,30
27462,-8e-05,-3e-05,-0.0001,-8e-05,-0.00031,-0.00016,0,-4e-05,5,30
27463,-8e-05,-3e-05,-0.0001,-8e-05,-0.00031,-0.00016,0,-4e-05,5,30
27464,-8e-05,-3e-05,-0.0001,-8e-05,-0.00031,-0.00016,0,-4e-05,5,30
27465,-8e-05,-3e-05,-0.0001,-8e-05,-0.00031,-0.00016,0,-4e-05,5,30
27466,-8e-05,-3e-05,-0.0001,-8e-05,-0.00031,-0.00016,0,-4e-05,5,30
27467,-8e-05,-3e-05,-0.0001,-8e-05,-0.00031,-0.00016,0,-4e-05,5,30
27468,-8e-05,-3e-05,-0.0001,-8e-05,-0.00031,-0.00016,0,-4e-05,5,30
27469,-8e-05,-3e-05,-0.0001,-8e-05,-0.00031,-0.00016,0,-4e-05,5,30
27470,-8e-05,-3e-05,-0.0001,-8e-05,-0.00031,-0.00016,0,-4e-05,5,30
27471,-8e-05,-3e-05,-0.0001,-8e-05,-0.00031,-0.00016,0,-4e-05,5,30
27472,-8e-05,-3e-05,-0.0001,-8e-05,-0.00031,-0.00016,0,-4e-05,5,30
27473,0,5e-05,0,-0.00041,-0.00013,4e-05,-1e-05,-1e-05,5,30
27474,0,6e-05,2e-05,0.00011,-0.00017,-0.0001,2e-05,0,5,30
27475,0,6e-05,2e-05,0.00011,-0.00017,-0.0001,2e-05,0,5,30
27476,0,6e-05,2e-05,0.00011,-0.00017,-0.0001,2e-05,0,5,30
27477,0,6e-05,2e-05,0.00011,-0.00017,-0.0001,2e-05,0,5,30
27478,0,6e-05,2e-05,0.00011,-0.00017,-0.0001,2e-05,0,5,30
27479,0,6e-05,2e-05,0.00011,-0.00017,-0.0001,2e-05,0,5,30
27480,0,6e-05,2e-05,0.00011,-0.00017,-0.0001,2e-05,0,5,30
27481,0,6e-05,2e-05,0.00011,-0.00017,-0.0001,2e-05,0,5,30
27482,-3e-05,-5e-05,-8e-05,-2e-05,0.00076,0.00018,-7e-05,-3e-05,5,30
27483,-3e-05,-5e-05,-8e-05,-2e-05,0.00076,0.00018,-7e-05,-3e-05,5,30
27484,-3e-05,-5e-05,-8e-05,-2e-05,0.00076,0.00018,-7e-05,-3e-05,5,30
27485,-3e-05,-5e-05,-8e-05,-2e-05,0.00076,0.00018,-7e-05,-3e-05,5,30
27486,-3e-05,-5e-05,-8e-05,-2e-05,0.00076,0.00018,-7e-05,-3e-05,5,30
27488,-3e-05,-5e-05,-8e-05,-2e-05,0.00076,0.00018,-7e-05,-3e-05,5,30
27489,-3e-05,-5e-05,-8e-05,-2e-05,0.00076,0.00018,-7e-05,-3e-05,5,30
27490,-3e-05,-5e-05,-8e-05,-2e-05,0.00076,0.00018,-7e-05,-3e-05,5,30
27491,-3e-05,-5e-05,-8e-05,-2e-05,0.00076,0.00018,-7e-05,-3e-05,5,30
27492,-3e-05,-5e-05,-8e-05,-2e-05,0.00076,0.00018,-7e-05,-3e-05,5,30
27493,-3e-05,-5e-05,-8e-05,-2e-05,0.00076,0.00018,-7e-05,-3e-05,5,30
27494,-3e-05,-5e-05,-8e-05,-2e-05,0.00076,0.00018,-7e-05,-3e-05,5,30
27495,-3e-05,-5e-05,-8e-05,-2e-05,0.00076,0.00018,-7e-05,-3e-05,5,30
27496,-3e-05,-5e-05,-8e-05,-2e-05,0.00076,0.00018,-7e-05,-3e-05,5,30
27497,-3e-05,-5e-05,-8e-05,-2e-05,0.00076,0.00018,-7e-05,-3e-05,5,30
27498,-3e-05,0,-2e-05,0.00011,0.00036,0.00037,6e-05,1e-05,5,30
27499,1e-05,1e-05,5e-05,0.00013,0.00015,3e-05,-4e-05,0,5,30
27500,1e-05,1e-05,5e-05,0.00013,0.00015,3e-05,-4e-05,0,5,30
27501,1e-05,1e-05,5e-05,0.00013,0.00015,3e-05,-4e-05,0,5,30
27502,1e-05,1e-05,5e-05,0.00013,0.00015,3e-05,-4e-05,0,5,30
27503,1e-05,1e-05,5e-05,0.00013,0.00015,3e-05,-4e-05,0,5,30
27504,1e-05,1e-05,5e-05,0.00013,0.00015,3e-05,-4e-05,0,5,30
27505,1e-05,1e-05,5e-05,0.00013,0.00015,3e-05,-4e-05,0,5,30
27506,1e-05,1e-05,5e-05,0.00013,0.00015,3e-05,-4e-05,0,5,30
27507,1e-05,1e-05,5e-05,0.00013,0.00015,3e-05,-4e-05,0,5,30
27508,1e-05,1e-05,5e-05,0.00013,0.00015,3e-05,-4e-05,0,5,30
27509,1e-05,1e-05,5e-05,0.00013,0.00015,3e-05,-4e-05,0,5,30
27510,1e-05,1e-05,5e-05,0.00013,0.00015,3e-05,-4e-05,0,5,30
27511,1e-05,1e-05,5e-05,0.00013,0.00015,3e-05,-4e-05,0,5,30
27512,1e-05,1e-05,5e-05,0.00013,0.00015,3e-05,-4e-05,0,5,30
27513,1e-05,1e-05,5e-05,0.00013,0.00015,3e-05,-4e-05,0,5,30
27514,1e-05,1e-05,5e-05,0.00013,0.00015,3e-05,-4e-05,0,5,30
27515,1e-05,1e-05,5e-05,0.00013,0.00015,3e-05,-4e-05,0,5,30
27516,1e-05,1e-05,5e-05,0.00013,0.00015,3e-05,-4e-05,0,5,30
27517,1e-05,1e-05,5e-05,0.00013,0.00015,3e-05,-4e-05,0,5,30
27518,1e-05,1e-05,5e-05,0.00013,0.00015,3e-05,-4e-05,0,5,30
27519,1e-05,1e-05,5e-05,0.00013,0.00015,3e-05,-4e-05,0,5,30
27520,5e-05,3e-05,3e-05,-2e-05,0.00027,3e-05,2e-05,1e-05,5,30
27521,-4e-05,-4e-05,-3e-05,-1e-05,-0.00042,-0.00034,-6e-05,-2e-05,5,30
27522,-4e-05,-4e-05,-3e-05,-1e-05,-0.00042,-0.00034,-6e-05,-2e-05,5,30
27523,-4e-05,-4e-05,-3e-05,-1e-05,-0.00042,-0.00034,-6e-05,-2e-05,5,30
27524,-4e-05,-4e-05,-3e-05,-1e-05,-0.00042,-0.00034,-6e-05,-2e-05,5,30
27525,-4e-05,-4e-05,-3e-05,-1e-05,-0.00042,-0.00034,-6e-05,-2e-05,5,30
27526,-4e-05,-4e-05,-3e-05,-1e-05,-0.00042,-0.00034,-6e-05,-2e-05,5,30
27527,-4e-05,-4e-05,-3e-05,-1e-05,-0.00042,-0.00034,-6e-05,-2e-05,5,30
27528,-4e-05,-4e-05,-3e-05,-1e-05,-0.00042,-0.00034,-6e-05,-2e-05,5,30
27529,-4e-05,-4e-05,-3e-05,-1e-05,-0.00042,-0.00034,-6e-05,-2e-05,5,30
27530,-4e-05,-4e-05,-3e-05,-1e-05,-0.00042,-0.00034,-6e-05,-2e-05,5,30
27531,-4e-05,-4e-05,-3e-05,-1e-05,-0.00042,-0.00034,-6e-05,-2e-05,5,30
27532,-4e-05,-4e-05,-3e-05,-1e-05,-0.00042,-0.00034,-6e-05,-2e-05,5,30
27533,-2e-05,1e-05,3e-05,1e-05,-0.0004,0.00091,2e-05,-1e-05,5,30
27534,-2e-05,1e-05,3e-05,1e-05,-0.0004,0.00091,2e-05,-1e-05,5,30
27535,-2e-05,1e-05,3e-05,1e-05,-0.0004,0.00091,2e-05,-1e-05,5,30
27536,-2e-05,1e-05,3e-05,1e-05,-0.0004,0.00091,2e-05,-1e-05,5,30
27538,-2e-05,1e-05,3e-05,1e-05,-0.0004,0.00091,2e-05,-1e-05,5,30
27539,-2e-05,1e-05,3e-05,1e-05,-0.0004,0.00091,2e-05,-1e-05,5,30
27540,-2e-05,1e-05,3e-05,1e-05,-0.0004,0.00091,2e-05,-1e-05,5,30
27541,-2e-05,1e-05,3e-05,1e-05,-0.0004,0.00091,2e-05,-1e-05,5,30
27542,-2e-05,1e-05,3e-05,1e-05,-0.0004,0.00091,2e-05,-1e-05,5,30
27543,-1e-05,-1e-05,1e-05,0.00011,-8e-05,-1e-05,-4e-05,-3e-05,5,30
27544,-1e-05,-1e-05,1e-05,0.00011,-8e-05,-1e-05,-4e-05,-3e-05,5,30
27545,-1e-05,-1e-05,1e-05,0.00011,-8e-05,-1e-05,-4e-05,-3e-05,5,30
27546,-1e-05,-1e-05,1e-05,0.00011,-8e-05,-1e-05,-4e-05,-3e-05,5,30
27547,-1e-05,-1e-05,1e-05,0.00011,-8e-05,-1e-05,-4e-05,-3e-05,5,30
27548,-1e-05,-1e-05,1e-05,0.00011,-8e-05,-1e-05,-4e-05,-3e-05,5,30
27549,-1e-05,-1e-05,1e-05,0.00011,-8e-05,-1e-05,-4e-05,-3e-05,5,30
27550,-1e-05,-1e-05,1e-05,0.00011,-8e-05,-1e-05,-4e-05,-3e-05,5,30
27551,-1e-05,-1e-05,1e-05,0.00011,-8e-05,-1e-05,-4e-05,-3e-05,5,30
27552,-1e-05,-1e-05,1e-05,0.00011,-8e-05,-1e-05,-4e-05,-3e-05,5,30
27553,-1e-05,-1e-05,1e-05,0.00011,-8e-05,-1e-05,-4e-05,-3e-05,5,30
27554,-1e-05,-1e-05,1e-05,0.00011,-8e-05,-1e-05,-4e-05,-3e-05,5,30
27555,-1e-05,-1e-05,1e-05,0.00011,-8e-05,-1e-05,-4e-05,-3e-05,5,30
27556,-1e-05,-1e-05,1e-05,0.00011,-8e-05,-1e-05,-4e-05,-3e-05,5,30
27557,-9e-05,-7e-05,-1e-05,0.00024,-0.00023,-2e-05,-7e-05,-4e-05,5,30
27558,-9e-05,-7e-05,-1e-05,0.00024,-0.00023,-2e-05,-7e-05,-4e-05,5,30
27559,-3e-05,-4e-05,-3e-05,0.00017,-0.00017,0.00018,-3e-05,-4e-05,5,30
27560,-3e-05,-4e-05,-3e-05,0.00017,-0.00017,0.00018,-3e-05,-4e-05,5,30
27561,-3e-05,-4e-05,-3e-05,0.00017,-0.00017,0.00018,-3e-05,-4e-05,5,30
27562,-3e-05,-4e-05,-3e-05,0.00017,-0.00017,0.00018,-3e-05,-4e-05,5,30
27563,-3e-05,-4e-05,-3e-05,0.00017,-0.00017,0.00018,-3e-05,-4e-05,5,30
27564,-3e-05,-4e-05,-3e-05,0.00017,-0.00017,0.00018,-3e-05,-4e-05,5,30
27565,-3e-05,-4e-05,-3e-05,0.00017,-0.00017,0.00018,-3e-05,-4e-05,5,30
27566,-3e-05,-4e-05,-3e-05,0.00017,-0.00017,0.00018,-3e-05,-4e-05,5,30
27567,-3e-05,-4e-05,-3e-05,0.00017,-0.00017,0.00018,-3e-05,-4e-05,5,30
27568,-3e-05,-4e-05,-3e-05,0.00017,-0.00017,0.00018,-3e-05,-4e-05,5,30
27569,-3e-05,-4e-05,-3e-05,0.00017,-0.00017,0.00018,-3e-05,-4e-05,5,30
27570,-3e-05,-4e-05,-3e-05,0.00017,-0.00017,0.00018,-3e-05,-4e-05,5,30
27571,-3e-05,-4e-05,-3e-05,0.00017,-0.00017,0.00018,-3e-05,-4e-05,5,30
27572,-3e-05,-4e-05,-3e-05,0.00017,-0.00017,0.00018,-3e-05,-4e-05,5,30
27573,-3e-05,-4e-05,-3e-05,0.00017,-0.00017,0.00018,-3e-05,-4e-05,5,30
27574,-3e-05,-4e-05,-3e-05,0.00017,-0.00017,0.00018,-3e-05,-4e-05,5,30
27575,-3e-05,-4e-05,-3e-05,0.00017,-0.00017,0.00018,-3e-05,-4e-05,5,30
27576,-3e-05,-4e-05,-3e-05,0.00017,-0.00017,0.00018,-3e-05,-4e-05,5,30
27577,-3e-05,-4e-05,-3e-05,0.00017,-0.00017,0.00018,-3e-05,-4e-05,5,30
27578,-3e-05,-4e-05,-3e-05,0.00017,-0.00017,0.00018,-3e-05,-4e-05,5,30
27579,-3e-05,-4e-05,-3e-05,0.00017,-0.00017,0.00018,-3e-05,-4e-05,5,30
27580,-5e-05,0,3e-05,0.00016,0.00022,-0.00036,-5e-05,-4e-05,5,30
27581,-5e-05,-0.00014,-9e-05,8e-05,1e-05,-0.00013,-7e-05,-1e-05,5,30
27582,-5e-05,-0.00014,-9e-05,8e-05,1e-05,-0.00013,-7e-05,-1e-05,5,30
27583,-5e-05,-0.00014,-9e-05,8e-05,1e-05,-0.00013,-7e-05,-1e-05,5,30
27584,-5e-05,-0.00014,-9e-05,8e-05,1e-05,-0.00013,-7e-05,-1e-05,5,30
27585,-5e-05,-0.00014,-9e-05,8e-05,1e-05,-0.00013,-7e-05,-1e-05,5,30
27586,-5e-05,-0.00014,-9e-05,8e-05,1e-05,-0.00013,-7e-05,-1e-05,5,30
27588,-5e-05,-0.00014,-9e-05,8e-05,1e-05,-0.00013,-7e-05,-1e-05,5,30
27590,-5e-05,-0.00014,-9e-05,8e-05,1e-05,-0.00013,-7e-05,-1e-05,5,30
27591,-5e-05,-0.00014,-9e-05,8e-05,1e-05,-0.00013,-7e-05,-1e-05,5,30
27592,-5e-05,-0.00014,-9e-05,8e-05,1e-05,-0.00013,-7e-05,-1e-05,5,30
27593,-5e-05,-0.00014,-9e-05,8e-05,1e-05,-0.00013,-7e-05,-1e-05,5,30
27594,-5e-05,-0.00014,-9e-05,8e-05,1e-05,-0.00013,-7e-05,-1e-05,5,30
27595,-5e-05,-0.00014,-9e-05,8e-05,1e-05,-0.00013,-7e-05,-1e-05,5,30
27596,-5e-05,-0.00014,-9e-05,8e-05,1e-05,-0.00013,-7e-05,-1e-05,5,30
27597,-5e-05,-0.00014,-9e-05,8e-05,1e-05,-0.00013,-7e-05,-1e-05,5,30
27598,-5e-05,-0.00014,-9e-05,8e-05,1e-05,-0.00013,-7e-05,-1e-05,5,30
27599,-5e-05,-0.00014,-9e-05,8e-05,1e-05,-0.00013,-7e-05,-1e-05,5,30
27600,-5e-05,-0.00014,-9e-05,8e-05,1e-05,-0.00013,-7e-05,-1e-05,5,30
27601,-5e-05,-0.00014,-9e-05,8e-05,1e-05,-0.00013,-7e-05,-1e-05,5,30
27602,-5e-05,0,2e-05,0.00019,-0.00027,-0.00062,-6e-05,-3e-05,5,30
27603,-5e-05,0,2e-05,0.00019,-0.00027,-0.00062,-6e-05,-3e-05,5,30
27604,-4e-05,1e-05,3e-05,-2e-05,-5e-05,0.00026,3e-05,-2e-05,5,30
27605,-4e-05,1e-05,3e-05,-2e-05,-5e-05,0.00026,3e-05,-2e-05,5,30
27606,-4e-05,1e-05,3e-05,-2e-05,-5e-05,0.00026,3e-05,-2e-05,5,30
27607,-4e-05,1e-05,3e-05,-2e-05,-5e-05,0.00026,3e-05,-2e-05,5,30
27608,-4e-05,1e-05,3e-05,-2e-05,-5e-05,0.00026,3e-05,-2e-05,5,30
27609,-4e-05,1e-05,3e-05,-2e-05,-5e-05,0.00026,3e-05,-2e-05,5,30
27610,-4e-05,1e-05,3e-05,-2e-05,-5e-05,0.00026,3e-05,-2e-05,5,30
27611,-4e-05,1e-05,3e-05,-2e-05,-5e-05,0.00026,3e-05,-2e-05,5,30
27612,-4e-05,1e-05,3e-05,-2e-05,-5e-05,0.00026,3e-05,-2e-05,5,30
27613,-4e-05,1e-05,3e-05,-2e-05,-5e-05,0.00026,3e-05,-2e-05,5,30
27614,-4e-05,1e-05,3e-05,-2e-05,-5e-05,0.00026,3e-05,-2e-05,5,30
27615,-4e-05,1e-05,3e-05,-2e-05,-5e-05,0.00026,3e-05,-2e-05,5,30
27616,-4e-05,1e-05,3e-05,-2e-05,-5e-05,0.00026,3e-05,-2e-05,5,30
27617,-5e-05,-7e-05,-0.00015,-0.00023,-0.00033,-0.00029,-1e-05,-2e-05,5,30
27618,-5e-05,-7e-05,-0.00015,-0.00023,-0.00033,-0.00029,-1e-05,-2e-05,5,30
27619,5e-05,0.00011,0.00011,0.00029,0.00041,0.00055,5e-05,4e-05,5,30
27620,5e-05,0.00011,0.00011,0.00029,0.00041,0.00055,5e-05,4e-05,5,30
27621,5e-05,0.00011,0.00011,0.00029,0.00041,0.00055,5e-05,4e-05,5,30
27622,5e-05,0.00011,0.00011,0.00029,0.00041,0.00055,5e-05,4e-05,5,30
27623,5e-05,0.00011,0.00011,0.00029,0.00041,0.00055,5e-05,4e-05,5,30
27624,5e-05,0.00011,0.00011,0.00029,0.00041,0.00055,5e-05,4e-05,5,30
27625,5e-05,0.00011,0.00011,0.00029,0.00041,0.00055,5e-05,4e-05,5,30
27626,5e-05,0.00011,0.00011,0.00029,0.00041,0.00055,5e-05,4e-05,5,30
27627,5e-05,0.00011,0.00011,0.00029,0.00041,0.00055,5e-05,4e-05,5,30
27628,5e-05,0.00011,0.00011,0.00029,0.00041,0.00055,5e-05,4e-05,5,30
27629,5e-05,0.00011,0.00011,0.00029,0.00041,0.00055,5e-05,4e-05,5,30
27630,5e-05,0.00011,0.00011,0.00029,0.00041,0.00055,5e-05,4e-05,5,30
27631,5e-05,0.00011,0.00011,0.00029,0.00041,0.00055,5e-05,4e-05,5,30
27632,5e-05,0.00011,0.00011,0.00029,0.00041,0.00055,5e-05,4e-05,5,30
27633,5e-05,0.00011,0.00011,0.00029,0.00041,0.00055,5e-05,4e-05,5,30
27634,5e-05,0.00011,0.00011,0.00029,0.00041,0.00055,5e-05,4e-05,5,30
27635,5e-05,0.00011,0.00011,0.00029,0.00041,0.00055,5e-05,4e-05,5,30
27636,5e-05,0.00011,0.00011,0.00029,0.00041,0.00055,5e-05,4e-05,5,30
27638,5e-05,0.00011,0.00011,0.00029,0.00041,0.00055,5e-05,4e-05,5,30
27639,5e-05,0.00011,0.00011,0.00029,0.00041,0.00055,5e-05,4e-05,5,30
27640,5e-05,4e-05,5e-05,0.00027,0.00027,0.0003,0,-3e-05,5,30
27641,0,0,-5e-05,-0.00018,0.00042,-0.0003,-2e-05,-3e-05,5,30
27642,0,0,-5e-05,-0.00018,0.00042,-0.0003,-2e-05,-3e-05,5,30
27643,0,0,-5e-05,-0.00018,0.00042,-0.0003,-2e-05,-3e-05,5,30
27644,0,0,-5e-05,-0.00018,0.00042,-0.0003,-2e-05,-3e-05,5,30
27645,0,0,-5e-05,-0.00018,0.00042,-0.0003,-2e-05,-3e-05,5,30
27646,0,0,-5e-05,-0.00018,0.00042,-0.0003,-2e-05,-3e-05,5,30
27647,0,0,-5e-05,-0.00018,0.00042,-0.0003,-2e-05,-3e-05,5,30
27648,0,0,-5e-05,-0.00018,0.00042,-0.0003,-2e-05,-3e-05,5,30
27649,0,0,-5e-05,-0.00018,0.00042,-0.0003,-2e-05,-3e-05,5,30
27650,0,0,-5e-05,-0.00018,0.00042,-0.0003,-2e-05,-3e-05,5,30
27651,0,0,-5e-05,-0.00018,0.00042,-0.0003,-2e-05,-3e-05,5,30
27652,0,0,-5e-05,-0.00018,0.00042,-0.0003,-2e-05,-3e-05,5,30
27653,0,0,-5e-05,-0.00018,0.00042,-0.0003,-2e-05,-3e-05,5,30
27654,0,0,-5e-05,-0.00018,0.00042,-0.0003,-2e-05,-3e-05,5,30
27655,0,0,-5e-05,-0.00018,0.00042,-0.0003,-2e-05,-3e-05,5,30
27656,0,0,-5e-05,-0.00018,0.00042,-0.0003,-2e-05,-3e-05,5,30
27657,0,0,-5e-05,-0.00018,0.00042,-0.0003,-2e-05,-3e-05,5,30
27658,0,0,-5e-05,-0.00018,0.00042,-0.0003,-2e-05,-3e-05,5,30
27659,0,0,-5e-05,-0.00018,0.00042,-0.0003,-2e-05,-3e-05,5,30
27660,0,0,-5e-05,-0.00018,0.00042,-0.0003,-2e-05,-3e-05,5,30
27661,0,0,-5e-05,-0.00018,0.00042,-0.0003,-2e-05,-3e-05,5,30
27662,0,-4e-05,-0.00014,-0.00046,-0.00039,0.00027,2e-05,1e-05,5,30
27663,0,-4e-05,-0.00014,-0.00046,-0.00039,0.00027,2e-05,1e-05,5,30
27664,0,-6e-05,-0.00013,-0.00021,-5e-05,0.00015,-5e-05,-1e-05,5,30
27665,0,-6e-05,-0.00013,-0.00021,-5e-05,0.00015,-5e-05,-1e-05,5,30
27666,0,-6e-05,-0.00013,-0.00021,-5e-05,0.00015,-5e-05,-1e-05,5,30
27667,0,-6e-05,-0.00013,-0.00021,-5e-05,0.00015,-5e-05,-1e-05,5,30
27668,0,-6e-05,-0.00013,-0.00021,-5e-05,0.00015,-5e-05,-1e-05,5,30
27669,0,-6e-05,-0.00013,-0.00021,-5e-05,0.00015,-5e-05,-1e-05,5,30
27670,0,-6e-05,-0.00013,-0.00021,-5e-05,0.00015,-5e-05,-1e-05,5,30
27671,0,-6e-05,-0.00013,-0.00021,-5e-05,0.00015,-5e-05,-1e-05,5,30
27672,0,-6e-05,-0.00013,-0.00021,-5e-05,0.00015,-5e-05,-1e-05,5,30
27673,0,-6e-05,-0.00013,-0.00021,-5e-05,0.00015,-5e-05,-1e-05,5,30
27674,0,-6e-05,-0.00013,-0.00021,-5e-05,0.00015,-5e-05,-1e-05,5,30
27675,0,-6e-05,-0.00013,-0.00021,-5e-05,0.00015,-5e-05,-1e-05,5,30
27676,0,-6e-05,-0.00013,-0.00021,-5e-05,0.00015,-5e-05,-1e-05,5,30
27677,2e-05,3e-05,3e-05,0.00017,0.00042,-0.0004,-1e-05,-1e-05,5,30
27678,2e-05,3e-05,3e-05,0.00017,0.00042,-0.0004,-1e-05,-1e-05,5,30
27679,2e-05,3e-05,3e-05,-0.00028,4e-05,-0.00059,0,0,5,30
27680,2e-05,3e-05,3e-05,-0.00028,4e-05,-0.00059,0,0,5,30
27681,2e-05,3e-05,3e-05,-0.00028,4e-05,-0.00059,0,0,5,30
27682,2e-05,3e-05,3e-05,-0.00028,4e-05,-0.00059,0,0,5,30
27683,2e-05,3e-05,3e-05,-0.00028,4e-05,-0.00059,0,0,5,30
27684,2e-05,3e-05,3e-05,-0.00028,4e-05,-0.00059,0,0,5,30
27685,2e-05,3e-05,3e-05,-0.00028,4e-05,-0.00059,0,0,5,30
27686,2e-05,3e-05,3e-05,-0.00028,4e-05,-0.00059,0,0,5,30
27688,2e-05,3e-05,3e-05,-0.00028,4e-05,-0.00059,0,0,5,30
27689,2e-05,3e-05,3e-05,-0.00028,4e-05,-0.00059,0,0,5,30
27690,2e-05,3e-05,3e-05,-0.00028,4e-05,-0.00059,0,0,5,30
27691,2e-05,3e-05,3e-05,-0.00028,4e-05,-0.00059,0,0,5,30
27692,2e-05,3e-05,3e-05,-0.00028,4e-05,-0.00059,0,0,5,30
27693,2e-05,3e-05,3e-05,-0.00028,4e-05,-0.00059,0,0,5,30
27694,2e-05,3e-05,3e-05,-0.00028,4e-05,-0.00059,0,0,5,30
27695,2e-05,3e-05,3e-05,-0.00028,4e-05,-0.00059,0,0,5,30
27696,2e-05,3e-05,3e-05,-0.00028,4e-05,-0.00059,0,0,5,30
27697,2e-05,3e-05,3e-05,-0.00028,4e-05,-0.00059,0,0,5,30
27698,2e-05,3e-05,3e-05,-0.00028,4e-05,-0.00059,0,0,5,30
27699,2e-05,3e-05,3e-05,-0.00028,4e-05,-0.00059,0,0,5,30
27700,-6e-05,-1e-05,-5e-05,-0.00033,-0.00033,-0.0003,-2e-05,-4e-05,5,30
27701,-3e-05,0,0,2e-05,0.00013,-0.00029,7e-05,-1e-05,5,30
27702,-3e-05,0,0,2e-05,0.00013,-0.00029,7e-05,-1e-05,5,30
27703,-3e-05,0,0,2e-05,0.00013,-0.00029,7e-05,-1e-05,5,30
27704,-3e-05,0,0,2e-05,0.00013,-0.00029,7e-05,-1e-05,5,30
27705,-3e-05,0,0,2e-05,0.00013,-0.00029,7e-05,-1e-05,5,30
27706,-3e-05,0,0,2e-05,0.00013,-0.00029,7e-05,-1e-05,5,30
27707,-3e-05,0,0,2e-05,0.00013,-0.00029,7e-05,-1e-05,5,30
27708,-3e-05,0,0,2e-05,0.00013,-0.00029,7e-05,-1e-05,5,30
27709,-3e-05,0,0,2e-05,0.00013,-0.00029,7e-05,-1e-05,5,30
27710,-3e-05,0,0,2e-05,0.00013,-0.00029,7e-05,-1e-05,5,30
27711,-3e-05,0,0,2e-05,0.00013,-0.00029,7e-05,-1e-05,5,30
27712,-3e-05,0,0,2e-05,0.00013,-0.00029,7e-05,-1e-05,5,30
27713,-3e-05,0,0,2e-05,0.00013,-0.00029,7e-05,-1e-05,5,30
27714,-3e-05,0,0,2e-05,0.00013,-0.00029,7e-05,-1e-05,5,30
27715,-3e-05,0,0,2e-05,0.00013,-0.00029,7e-05,-1e-05,5,30
27716,-3e-05,0,0,2e-05,0.00013,-0.00029,7e-05,-1e-05,5,30
27717,-3e-05,0,0,2e-05,0.00013,-0.00029,7e-05,-1e-05,5,30
27718,-3e-05,0,0,2e-05,0.00013,-0.00029,7e-05,-1e-05,5,30
27719,-3e-05,0,0,2e-05,0.00013,-0.00029,7e-05,-1e-05,5,30
27720,-3e-05,0,0,2e-05,0.00013,-0.00029,7e-05,-1e-05,5,30
27721,-3e-05,0,0,2e-05,0.00013,-0.00029,7e-05,-1e-05,5,30
27722,0,0,1e-05,4e-05,0.0008,0.00031,3e-05,2e-05,5,30
27723,0,0,1e-05,4e-05,0.0008,0.00031,3e-05,2e-05,5,30
27724,2e-05,0,1e-05,-7e-05,-2e-05,0.00026,1e-05,1e-05,5,30
27725,2e-05,0,1e-05,-7e-05,-2e-05,0.00026,1e-05,1e-05,5,30
27726,2e-05,0,1e-05,-7e-05,-2e-05,0.00026,1e-05,1e-05,5,30
27727,2e-05,0,1e-05,-7e-05,-2e-05,0.00026,1e-05,1e-05,5,30
27728,2e-05,0,1e-05,-7e-05,-2e-05,0.00026,1e-05,1e-05,5,30
27729,2e-05,0,1e-05,-7e-05,-2e-05,0.00026,1e-05,1e-05,5,30
27730,2e-05,0,1e-05,-7e-05,-2e-05,0.00026,1e-05,1e-05,5,30
27731,2e-05,0,1e-05,-7e-05,-2e-05,0.00026,1e-05,1e-05,5,30
27732,2e-05,0,1e-05,-7e-05,-2e-05,0.00026,1e-05,1e-05,5,30
27733,2e-05,0,1e-05,-7e-05,-2e-05,0.00026,1e-05,1e-05,5,30
27734,2e-05,0,1e-05,-7e-05,-2e-05,0.00026,1e-05,1e-05,5,30
27735,2e-05,0,1e-05,-7e-05,-2e-05,0.00026,1e-05,1e-05,5,30
27736,2e-05,0,1e-05,-7e-05,-2e-05,0.00026,1e-05,1e-05,5,30
27739,-4e-05,-9e-05,-6e-05,0.00046,-4e-05,-9e-05,-5e-05,-5e-05,5,30
27740,-4e-05,-9e-05,-6e-05,0.00046,-4e-05,-9e-05,-5e-05,-5e-05,5,30
27741,-4e-05,-9e-05,-6e-05,0.00046,-4e-05,-9e-05,-5e-05,-5e-05,5,30
27742,-4e-05,-9e-05,-6e-05,0.00046,-4e-05,-9e-05,-5e-05,-5e-05,5,30
27743,-4e-05,-9e-05,-6e-05,0.00046,-4e-05,-9e-05,-5e-05,-5e-05,5,30
27744,-4e-05,-9e-05,-6e-05,0.00046,-4e-05,-9e-05,-5e-05,-5e-05,5,30
27745,-4e-05,-9e-05,-6e-05,0.00046,-4e-05,-9e-05,-5e-05,-5e-05,5,30
27746,-4e-05,-9e-05,-6e-05,0.00046,-4e-05,-9e-05,-5e-05,-5e-05,5,30
27747,-4e-05,-9e-05,-6e-05,0.00046,-4e-05,-9e-05,-5e-05,-5e-05,5,30
27748,-4e-05,-9e-05,-6e-05,0.00046,-4e-05,-9e-05,-5e-05,-5e-05,5,30
27749,-4e-05,-9e-05,-6e-05,0.00046,-4e-05,-9e-05,-5e-05,-5e-05,5,30
27750,-4e-05,-9e-05,-6e-05,0.00046,-4e-05,-9e-05,-5e-05,-5e-05,5,30
27751,-4e-05,-9e-05,-6e-05,0.00046,-4e-05,-9e-05,-5e-05,-5e-05,5,30
27752,-4e-05,-9e-05,-6e-05,0.00046,-4e-05,-9e-05,-5e-05,-5e-05,5,30
27753,-4e-05,-9e-05,-6e-05,0.00046,-4e-05,-9e-05,-5e-05,-5e-05,5,30
27754,-4e-05,-9e-05,-6e-05,0.00046,-4e-05,-9e-05,-5e-05,-5e-05,5,30
27755,-4e-05,-9e-05,-6e-05,0.00046,-4e-05,-9e-05,-5e-05,-5e-05,5,30
27756,-4e-05,-9e-05,-6e-05,0.00046,-4e-05,-9e-05,-5e-05,-5e-05,5,30
27757,-4e-05,-9e-05,-6e-05,0.00046,-4e-05,-9e-05,-5e-05,-5e-05,5,30
27758,-4e-05,-9e-05,-6e-05,0.00046,-4e-05,-9e-05,-5e-05,-5e-05,5,30
27759,-4e-05,-9e-05,-6e-05,0.00046,-4e-05,-9e-05,-5e-05,-5e-05,5,30
27760,-2e-05,1e-05,4e-05,-0.00028,-0.00038,0.00028,3e-05,0,5,30
27761,-6e-05,-3e-05,-9e-05,-7e-05,-0.00025,5e-05,1e-05,-3e-05,5,30
27763,-6e-05,-3e-05,-9e-05,-7e-05,-0.00025,5e-05,1e-05,-3e-05,5,30
27764,-6e-05,-3e-05,-9e-05,-7e-05,-0.00025,5e-05,1e-05,-3e-05,5,30
27765,-6e-05,-3e-05,-9e-05,-7e-05,-0.00025,5e-05,1e-05,-3e-05,5,30
27766,-6e-05,-3e-05,-9e-05,-7e-05,-0.00025,5e-05,1e-05,-3e-05,5,30
27767,-6e-05,-3e-05,-9e-05,-7e-05,-0.00025,5e-05,1e-05,-3e-05,5,30
27768,-6e-05,-3e-05,-9e-05,-7e-05,-0.00025,5e-05,1e-05,-3e-05,5,30
27769,-6e-05,-3e-05,-9e-05,-7e-05,-0.00025,5e-05,1e-05,-3e-05,5,30
27770,-6e-05,-3e-05,-9e-05,-7e-05,-0.00025,5e-05,1e-05,-3e-05,5,30
27771,-6e-05,-3e-05,-9e-05,-7e-05,-0.00025,5e-05,1e-05,-3e-05,5,30
27772,-6e-05,-3e-05,-9e-05,-7e-05,-0.00025,5e-05,1e-05,-3e-05,5,30
27773,-6e-05,-3e-05,-9e-05,-7e-05,-0.00025,5e-05,1e-05,-3e-05,5,30
27774,-6e-05,-3e-05,-9e-05,-7e-05,-0.00025,5e-05,1e-05,-3e-05,5,30
27775,-6e-05,-3e-05,-9e-05,-7e-05,-0.00025,5e-05,1e-05,-3e-05,5,30
27776,-6e-05,-3e-05,-9e-05,-7e-05,-0.00025,5e-05,1e-05,-3e-05,5,30
27777,-6e-05,-3e-05,-9e-05,-7e-05,-0.00025,5e-05,1e-05,-3e-05,5,30
27778,-6e-05,-3e-05,-9e-05,-7e-05,-0.00025,5e-05,1e-05,-3e-05,5,30
27779,-6e-05,-3e-05,-9e-05,-7e-05,-0.00025,5e-05,1e-05,-3e-05,5,30
27780,-6e-05,-3e-05,-9e-05,-7e-05,-0.00025,5e-05,1e-05,-3e-05,5,30
27781,-6e-05,-3e-05,-9e-05,-7e-05,-0.00025,5e-05,1e-05,-3e-05,5,30
27782,1e-05,2e-05,0.0001,5e-05,-0.00083,-1e-05,4e-05,1e-05,5,30
27783,1e-05,2e-05,0.0001,5e-05,-0.00083,-1e-05,4e-05,1e-05,5,30
27784,0,3e-05,3e-05,7e-05,5e-05,-0.00011,-8e-05,-2e-05,5,30
27785,0,3e-05,3e-05,7e-05,5e-05,-0.00011,-8e-05,-2e-05,5,30
27786,0,3e-05,3e-05,7e-05,5e-05,-0.00011,-8e-05,-2e-05,5,30
27788,0,3e-05,3e-05,7e-05,5e-05,-0.00011,-8e-05,-2e-05,5,30
27789,0,3e-05,3e-05,7e-05,5e-05,-0.00011,-8e-05,-2e-05,5,30
27790,0,3e-05,3e-05,7e-05,5e-05,-0.00011,-8e-05,-2e-05,5,30
27791,0,3e-05,3e-05,7e-05,5e-05,-0.00011,-8e-05,-2e-05,5,30
27792,0,3e-05,3e-05,7e-05,5e-05,-0.00011,-8e-05,-2e-05,5,30
27793,0,3e-05,3e-05,7e-05,5e-05,-0.00011,-8e-05,-2e-05,5,30
27794,0,3e-05,3e-05,7e-05,5e-05,-0.00011,-8e-05,-2e-05,5,30
27795,0,3e-05,3e-05,7e-05,5e-05,-0.00011,-8e-05,-2e-05,5,30
27796,0,3e-05,3e-05,7e-05,5e-05,-0.00011,-8e-05,-2e-05,5,30
27797,1e-05,-3e-05,-1e-05,-0.0001,0.00023,-0.00016,-9e-05,-2e-05,5,30
27798,1e-05,-3e-05,-1e-05,-0.0001,0.00023,-0.00016,-9e-05,-2e-05,5,30
27799,1e-05,-3e-05,-1e-05,-0.0001,0.00023,-0.00016,-9e-05,-2e-05,5,30
27800,1e-05,-3e-05,-1e-05,-0.0001,0.00023,-0.00016,-9e-05,-2e-05,5,30
27801,1e-05,-3e-05,-1e-05,-0.0001,0.00023,-0.00016,-9e-05,-2e-05,5,30
27802,1e-05,-3e-05,-1e-05,-0.0001,0.00023,-0.00016,-9e-05,-2e-05,5,30
27803,6e-05,3e-05,0.0001,0.00022,-0.00026,0.00014,0,2e-05,5,30
27804,6e-05,3e-05,0.0001,0.00022,-0.00026,0.00014,0,2e-05,5,30
27805,6e-05,3e-05,0.0001,0.00022,-0.00026,0.00014,0,2e-05,5,30
27806,6e-05,3e-05,0.0001,0.00022,-0.00026,0.00014,0,2e-05,5,30
27807,6e-05,3e-05,0.0001,0.00022,-0.00026,0.00014,0,2e-05,5,30
27808,6e-05,3e-05,0.0001,0.00022,-0.00026,0.00014,0,2e-05,5,30
27809,6e-05,3e-05,0.0001,0.00022,-0.00026,0.00014,0,2e-05,5,30
27810,6e-05,3e-05,0.0001,0.00022,-0.00026,0.00014,0,2e-05,5,30
27811,6e-05,3e-05,0.0001,0.00022,-0.00026,0.00014,0,2e-05,5,30
27812,6e-05,3e-05,0.0001,0.00022,-0.00026,0.00014,0,2e-05,5,30
27813,6e-05,3e-05,0.0001,0.00022,-0.00026,0.00014,0,2e-05,5,30
27814,6e-05,3e-05,0.0001,0.00022,-0.00026,0.00014,0,2e-05,5,30
27815,6e-05,3e-05,0.0001,0.00022,-0.00026,0.00014,0,2e-05,5,30
27816,6e-05,3e-05,0.0001,0.00022,-0.00026,0.00014,0,2e-05,5,30
27817,6e-05,3e-05,0.0001,0.00022,-0.00026,0.00014,0,2e-05,5,30
27818,6e-05,3e-05,0.0001,0.00022,-0.00026,0.00014,0,2e-05,5,30
27819,6e-05,3e-05,0.0001,0.00022,-0.00026,0.00014,0,2e-05,5,30
27820,3e-05,0,3e-05,0.00035,0.00023,-0.00058,-7e-05,-1e-05,5,30
27821,-2e-05,0,2e-05,-0.00014,0,0.0002,4e-05,2e-05,5,30
27822,-2e-05,0,2e-05,-0.00014,0,0.0002,4e-05,2e-05,5,30
27823,-2e-05,0,2e-05,-0.00014,0,0.0002,4e-05,2e-05,5,30
27825,-2e-05,0,2e-05,-0.00014,0,0.0002,4e-05,2e-05,5,30
27826,-2e-05,0,2e-05,-0.00014,0,0.0002,4e-05,2e-05,5,30
27827,-2e-05,0,2e-05,-0.00014,0,0.0002,4e-05,2e-05,5,30
27828,-2e-05,0,2e-05,-0.00014,0,0.0002,4e-05,2e-05,5,30
27829,-2e-05,0,2e-05,-0.00014,0,0.0002,4e-05,2e-05,5,30
27830,-2e-05,0,2e-05,-0.00014,0,0.0002,4e-05,2e-05,5,30
27831,-2e-05,0,2e-05,-0.00014,0,0.0002,4e-05,2e-05,5,30
27832,-2e-05,0,2e-05,-0.00014,0,0.0002,4e-05,2e-05,5,30
27833,-2e-05,0,2e-05,-0.00014,0,0.0002,4e-05,2e-05,5,30
27834,-2e-05,0,2e-05,-0.00014,0,0.0002,4e-05,2e-05,5,30
27835,-2e-05,0,2e-05,-0.00014,0,0.0002,4e-05,2e-05,5,30
27836,-2e-05,0,2e-05,-0.00014,0,0.0002,4e-05,2e-05,5,30
27838,-2e-05,0,2e-05,-0.00014,0,0.0002,4e-05,2e-05,5,30
27839,-2e-05,0,2e-05,-0.00014,0,0.0002,4e-05,2e-05,5,30
27840,-2e-05,0,2e-05,-0.00014,0,0.0002,4e-05,2e-05,5,30
27841,-2e-05,0,2e-05,-0.00014,0,0.0002,4e-05,2e-05,5,30
27842,3e-05,-2e-05,-8e-05,0,-5e-05,7e-05,-4e-05,-2e-05,5,30
27843,3e-05,-2e-05,-8e-05,0,-5e-05,7e-05,-4e-05,-2e-05,5,30
27845,3e-05,-2e-05,-8e-05,0,-5e-05,7e-05,-4e-05,-2e-05,5,30
27846,0,1e-05,5e-05,8e-05,0.00027,-6e-05,2e-05,1e-05,5,30
27847,0,1e-05,5e-05,8e-05,0.00027,-6e-05,2e-05,1e-05,5,30
27848,0,1e-05,5e-05,8e-05,0.00027,-6e-05,2e-05,1e-05,5,30
27849,0,1e-05,5e-05,8e-05,0.00027,-6e-05,2e-05,1e-05,5,30
27850,0,1e-05,5e-05,8e-05,0.00027,-6e-05,2e-05,1e-05,5,30
27851,0,1e-05,5e-05,8e-05,0.00027,-6e-05,2e-05,1e-05,5,30
27852,0,1e-05,5e-05,8e-05,0.00027,-6e-05,2e-05,1e-05,5,30
27853,0,1e-05,5e-05,8e-05,0.00027,-6e-05,2e-05,1e-05,5,30
27854,0,1e-05,5e-05,8e-05,0.00027,-6e-05,2e-05,1e-05,5,30
27855,0,1e-05,5e-05,8e-05,0.00027,-6e-05,2e-05,1e-05,5,30
27856,0,1e-05,5e-05,8e-05,0.00027,-6e-05,2e-05,1e-05,5,30
27857,-5e-05,-2e-05,-5e-05,-0.00029,-0.00056,0.00037,3e-05,-2e-05,5,30
27858,-5e-05,-2e-05,-5e-05,-0.00029,-0.00056,0.00037,3e-05,-2e-05,5,30
27859,-5e-05,-2e-05,-5e-05,-0.00029,-0.00056,0.00037,3e-05,-2e-05,5,30
27860,-5e-05,-2e-05,-5e-05,-0.00029,-0.00056,0.00037,3e-05,-2e-05,5,30
27861,-5e-05,-2e-05,-5e-05,-0.00029,-0.00056,0.00037,3e-05,-2e-05,5,30
27862,-5e-05,-2e-05,-5e-05,-0.00029,-0.00056,0.00037,3e-05,-2e-05,5,30
27863,-1e-05,-2e-05,2e-05,8e-05,0.00015,-0.00012,-6e-05,-2e-05,5,30
27864,2e-05,-5e-05,-6e-05,-0.00031,-8e-05,0.00055,-0.00015,-2e-05,5,30
27865,2e-05,-5e-05,-6e-05,-0.00031,-8e-05,0.00055,-0.00015,-2e-05,5,30
27866,2e-05,-5e-05,-6e-05,-0.00031,-8e-05,0.00055,-0.00015,-2e-05,5,30
27867,2e-05,-5e-05,-6e-05,-0.00031,-8e-05,0.00055,-0.00015,-2e-05,5,30
27868,2e-05,-5e-05,-6e-05,-0.00031,-8e-05,0.00055,-0.00015,-2e-05,5,30
27869,2e-05,-5e-05,-6e-05,-0.00031,-8e-05,0.00055,-0.00015,-2e-05,5,30
27870,2e-05,-5e-05,-6e-05,-0.00031,-8e-05,0.00055,-0.00015,-2e-05,5,30
27871,2e-05,-5e-05,-6e-05,-0.00031,-8e-05,0.00055,-0.00015,-2e-05,5,30
27872,2e-05,-5e-05,-6e-05,-0.00031,-8e-05,0.00055,-0.00015,-2e-05,5,30
27873,2e-05,-5e-05,-6e-05,-0.00031,-8e-05,0.00055,-0.00015,-2e-05,5,30
27874,2e-05,-5e-05,-6e-05,-0.00031,-8e-05,0.00055,-0.00015,-2e-05,5,30
27875,2e-05,-5e-05,-6e-05,-0.00031,-8e-05,0.00055,-0.00015,-2e-05,5,30
27876,2e-05,-5e-05,-6e-05,-0.00031,-8e-05,0.00055,-0.00015,-2e-05,5,30
27877,2e-05,-5e-05,-6e-05,-0.00031,-8e-05,0.00055,-0.00015,-2e-05,5,30
27878,2e-05,-5e-05,-6e-05,-0.00031,-8e-05,0.00055,-0.00015,-2e-05,5,30
27879,2e-05,-5e-05,-6e-05,-0.00031,-8e-05,0.00055,-0.00015,-2e-05,5,30
27880,1e-05,0,4e-05,-8e-05,-0.00013,-0.00022,-1e-05,1e-05,5,30
27881,1e-05,-3e-05,-6e-05,0.00013,0.0002,0.0005,0.00015,1e-05,5,30
27882,1e-05,-3e-05,-6e-05,0.00013,0.0002,0.0005,0.00015,1e-05,5,30
27883,1e-05,-3e-05,-6e-05,0.00013,0.0002,0.0005,0.00015,1e-05,5,30
27884,1e-05,-3e-05,-6e-05,0.00013,0.0002,0.0005,0.00015,1e-05,5,30
27885,1e-05,-3e-05,-6e-05,0.00013,0.0002,0.0005,0.00015,1e-05,5,30
27886,1e-05,-3e-05,-6e-05,0.00013,0.0002,0.0005,0.00015,1e-05,5,30
27888,1e-05,-3e-05,-6e-05,0.00013,0.0002,0.0005,0.00015,1e-05,5,30
27889,1e-05,-3e-05,-6e-05,0.00013,0.0002,0.0005,0.00015,1e-05,5,30
27890,1e-05,-3e-05,-6e-05,0.00013,0.0002,0.0005,0.00015,1e-05,5,30
27891,1e-05,-3e-05,-6e-05,0.00013,0.0002,0.0005,0.00015,1e-05,5,30
27892,1e-05,-3e-05,-6e-05,0.00013,0.0002,0.0005,0.00015,1e-05,5,30
27893,1e-05,-3e-05,-6e-05,0.00013,0.0002,0.0005,0.00015,1e-05,5,30
27894,1e-05,-3e-05,-6e-05,0.00013,0.0002,0.0005,0.00015,1e-05,5,30
27895,1e-05,-3e-05,-6e-05,0.00013,0.0002,0.0005,0.00015,1e-05,5,30
27896,1e-05,-3e-05,-6e-05,0.00013,0.0002,0.0005,0.00015,1e-05,5,30
27897,1e-05,-3e-05,-6e-05,0.00013,0.0002,0.0005,0.00015,1e-05,5,30
27898,1e-05,-3e-05,-6e-05,0.00013,0.0002,0.0005,0.00015,1e-05,5,30
27899,1e-05,-3e-05,-6e-05,0.00013,0.0002,0.0005,0.00015,1e-05,5,30
27900,1e-05,-3e-05,-6e-05,0.00013,0.0002,0.0005,0.00015,1e-05,5,30
27901,1e-05,-3e-05,-6e-05,0.00013,0.0002,0.0005,0.00015,1e-05,5,30
27902,-1e-05,-4e-05,-6e-05,-0.00017,-0.00022,0.00012,0,0,5,30
27903,-1e-05,-4e-05,-6e-05,-0.00017,-0.00022,0.00012,0,0,5,30
27904,3e-05,6e-05,7e-05,0.00013,0.00036,0.0002,1e-05,3e-05,5,30
27905,3e-05,6e-05,7e-05,0.00013,0.00036,0.0002,1e-05,3e-05,5,30
27906,3e-05,6e-05,7e-05,0.00013,0.00036,0.0002,1e-05,3e-05,5,30
27907,3e-05,6e-05,7e-05,0.00013,0.00036,0.0002,1e-05,3e-05,5,30
27908,3e-05,6e-05,7e-05,0.00013,0.00036,0.0002,1e-05,3e-05,5,30
27909,3e-05,6e-05,7e-05,0.00013,0.00036,0.0002,1e-05,3e-05,5,30
27910,3e-05,6e-05,7e-05,0.00013,0.00036,0.0002,1e-05,3e-05,5,30
27911,3e-05,6e-05,7e-05,0.00013,0.00036,0.0002,1e-05,3e-05,5,30
27912,3e-05,6e-05,7e-05,0.00013,0.00036,0.0002,1e-05,3e-05,5,30
27913,3e-05,6e-05,7e-05,0.00013,0.00036,0.0002,1e-05,3e-05,5,30
27914,3e-05,6e-05,7e-05,0.00013,0.00036,0.0002,1e-05,3e-05,5,30
27915,3e-05,6e-05,7e-05,0.00013,0.00036,0.0002,1e-05,3e-05,5,30
27916,-6e-05,-1e-05,2e-05,-0.00038,-0.00018,4e-05,-3e-05,0,5,30
27917,-2e-05,-5e-05,-5e-05,0.00029,0.00019,-7e-05,3e-05,-1e-05,5,30
27918,-2e-05,-5e-05,-5e-05,0.00029,0.00019,-7e-05,3e-05,-1e-05,5,30
27919,-2e-05,-5e-05,-5e-05,0.00029,0.00019,-7e-05,3e-05,-1e-05,5,30
27920,-2e-05,-5e-05,-5e-05,0.00029,0.00019,-7e-05,3e-05,-1e-05,5,30
27921,-2e-05,-5e-05,-5e-05,0.00029,0.00019,-7e-05,3e-05,-1e-05,5,30
27922,-2e-05,-5e-05,-5e-05,0.00029,0.00019,-7e-05,3e-05,-1e-05,5,30
27923,-3e-05,0,-1e-05,7e-05,-0.00025,-0.00023,-0.00011,-3e-05,5,30
27924,-3e-05,0,-1e-05,7e-05,-0.00025,-0.00023,-0.00011,-3e-05,5,30
27925,-3e-05,0,-1e-05,7e-05,-0.00025,-0.00023,-0.00011,-3e-05,5,30
27926,-3e-05,0,-1e-05,7e-05,-0.00025,-0.00023,-0.00011,-3e-05,5,30
27927,-3e-05,0,-1e-05,7e-05,-0.00025,-0.00023,-0.00011,-3e-05,5,30
27928,-3e-05,0,-1e-05,7e-05,-0.00025,-0.00023,-0.00011,-3e-05,5,30
27929,-3e-05,0,-1e-05,7e-05,-0.00025,-0.00023,-0.00011,-3e-05,5,30
27930,-3e-05,0,-1e-05,7e-05,-0.00025,-0.00023,-0.00011,-3e-05,5,30
27931,-3e-05,0,-1e-05,7e-05,-0.00025,-0.00023,-0.00011,-3e-05,5,30
27932,-3e-05,0,-1e-05,7e-05,-0.00025,-0.00023,-0.00011,-3e-05,5,30
27934,-3e-05,0,-1e-05,7e-05,-0.00025,-0.00023,-0.00011,-3e-05,5,30
27935,-3e-05,0,-1e-05,7e-05,-0.00025,-0.00023,-0.00011,-3e-05,5,30
27936,-3e-05,0,-1e-05,7e-05,-0.00025,-0.00023,-0.00011,-3e-05,5,30
27938,-3e-05,0,-1e-05,7e-05,-0.00025,-0.00023,-0.00011,-3e-05,5,30
27939,-3e-05,0,-1e-05,7e-05,-0.00025,-0.00023,-0.00011,-3e-05,5,30
27940,-7e-05,-4e-05,-4e-05,-0.0001,-0.0001,0.00045,-0.00013,-3e-05,5,30
27941,-6e-05,-0.00011,-9e-05,-0.00028,-0.00019,-0.00069,1e-05,-3e-05,5,30
27942,-6e-05,-0.00011,-9e-05,-0.00028,-0.00019,-0.00069,1e-05,-3e-05,5,30
27943,-6e-05,-0.00011,-9e-05,-0.00028,-0.00019,-0.00069,1e-05,-3e-05,5,30
27944,-6e-05,-0.00011,-9e-05,-0.00028,-0.00019,-0.00069,1e-05,-3e-05,5,30
27945,-6e-05,-0.00011,-9e-05,-0.00028,-0.00019,-0.00069,1e-05,-3e-05,5,30
27946,-6e-05,-0.00011,-9e-05,-0.00028,-0.00019,-0.00069,1e-05,-3e-05,5,30
27947,-6e-05,-0.00011,-9e-05,-0.00028,-0.00019,-0.00069,1e-05,-3e-05,5,30
27948,-6e-05,-0.00011,-9e-05,-0.00028,-0.00019,-0.00069,1e-05,-3e-05,5,30
27949,-6e-05,-0.00011,-9e-05,-0.00028,-0.00019,-0.00069,1e-05,-3e-05,5,30
27950,-6e-05,-0.00011,-9e-05,-0.00028,-0.00019,-0.00069,1e-05,-3e-05,5,30
27951,-6e-05,-0.00011,-9e-05,-0.00028,-0.00019,-0.00069,1e-05,-3e-05,5,30
27952,-6e-05,-0.00011,-9e-05,-0.00028,-0.00019,-0.00069,1e-05,-3e-05,5,30
27953,-6e-05,-0.00011,-9e-05,-0.00028,-0.00019,-0.00069,1e-05,-3e-05,5,30
27954,-6e-05,-0.00011,-9e-05,-0.00028,-0.00019,-0.00069,1e-05,-3e-05,5,30
27955,-6e-05,-0.00011,-9e-05,-0.00028,-0.00019,-0.00069,1e-05,-3e-05,5,30
27956,-6e-05,-0.00011,-9e-05,-0.00028,-0.00019,-0.00069,1e-05,-3e-05,5,30
27957,-6e-05,-0.00011,-9e-05,-0.00028,-0.00019,-0.00069,1e-05,-3e-05,5,30
27958,-6e-05,-0.00011,-9e-05,-0.00028,-0.00019,-0.00069,1e-05,-3e-05,5,30
27959,-6e-05,-0.00011,-9e-05,-0.00028,-0.00019,-0.00069,1e-05,-3e-05,5,30
27960,-6e-05,-0.00011,-9e-05,-0.00028,-0.00019,-0.00069,1e-05,-3e-05,5,30
27961,-6e-05,-0.00011,-9e-05,-0.00028,-0.00019,-0.00069,1e-05,-3e-05,5,30
27962,1e-05,1e-05,2e-05,7e-05,0.00035,6e-05,4e-05,0,5,30
27963,1e-05,1e-05,2e-05,7e-05,0.00035,6e-05,4e-05,0,5,30
27964,-2e-05,0,-1e-05,-0.00045,-0.00022,-0.00018,-2e-05,-1e-05,5,30
27965,-2e-05,0,-1e-05,-0.00045,-0.00022,-0.00018,-2e-05,-1e-05,5,30
27966,-2e-05,0,-1e-05,-0.00045,-0.00022,-0.00018,-2e-05,-1e-05,5,30
27967,-2e-05,0,-1e-05,-0.00045,-0.00022,-0.00018,-2e-05,-1e-05,5,30
27968,-2e-05,0,-1e-05,-0.00045,-0.00022,-0.00018,-2e-05,-1e-05,5,30
27969,-2e-05,0,-1e-05,-0.00045,-0.00022,-0.00018,-2e-05,-1e-05,5,30
27970,-2e-05,0,-1e-05,-0.00045,-0.00022,-0.00018,-2e-05,-1e-05,5,30
27971,-2e-05,0,-1e-05,-0.00045,-0.00022,-0.00018,-2e-05,-1e-05,5,30
27972,-2e-05,0,-1e-05,-0.00045,-0.00022,-0.00018,-2e-05,-1e-05,5,30
27973,-2e-05,0,-1e-05,-0.00045,-0.00022,-0.00018,-2e-05,-1e-05,5,30
27974,-2e-05,0,-1e-05,-0.00045,-0.00022,-0.00018,-2e-05,-1e-05,5,30
27975,-2e-05,0,-1e-05,-0.00045,-0.00022,-0.00018,-2e-05,-1e-05,5,30
27976,0,-2e-05,-2e-05,0.00028,3e-05,2e-05,-7e-05,-3e-05,5,30
27977,5e-05,7e-05,6e-05,-0.00051,-8e-05,-0.00011,8e-05,3e-05,5,30
27978,5e-05,7e-05,6e-05,-0.00051,-8e-05,-0.00011,8e-05,3e-05,5,30
27979,5e-05,7e-05,6e-05,-0.00051,-8e-05,-0.00011,8e-05,3e-05,5,30
27980,5e-05,7e-05,6e-05,-0.00051,-8e-05,-0.00011,8e-05,3e-05,5,30
27981,5e-05,7e-05,6e-05,-0.00051,-8e-05,-0.00011,8e-05,3e-05,5,30
27982,5e-05,7e-05,6e-05,-0.00051,-8e-05,-0.00011,8e-05,3e-05,5,30
27983,-5e-05,-7e-05,-0.00012,-1e-05,6e-05,-6e-05,-2e-05,-1e-05,5,30
27984,-4e-05,-3e-05,-2e-05,-0.00014,-0.00022,-0.00018,-2e-05,-4e-05,5,30
27985,-4e-05,-3e-05,-2e-05,-0.00014,-0.00022,-0.00018,-2e-05,-4e-05,5,30
27986,-4e-05,-3e-05,-2e-05,-0.00014,-0.00022,-0.00018,-2e-05,-4e-05,5,30
27988,-4e-05,-3e-05,-2e-05,-0.00014,-0.00022,-0.00018,-2e-05,-4e-05,5,30
27989,-4e-05,-3e-05,-2e-05,-0.00014,-0.00022,-0.00018,-2e-05,-4e-05,5,30
27990,-4e-05,-3e-05,-2e-05,-0.00014,-0.00022,-0.00018,-2e-05,-4e-05,5,30
27991,-4e-05,-3e-05,-2e-05,-0.00014,-0.00022,-0.00018,-2e-05,-4e-05,5,30
27992,-4e-05,-3e-05,-2e-05,-0.00014,-0.00022,-0.00018,-2e-05,-4e-05,5,30
27993,-4e-05,-3e-05,-2e-05,-0.00014,-0.00022,-0.00018,-2e-05,-4e-05,5,30
27994,-4e-05,-3e-05,-2e-05,-0.00014,-0.00022,-0.00018,-2e-05,-4e-05,5,30
27995,-4e-05,-3e-05,-2e-05,-0.00014,-0.00022,-0.00018,-2e-05,-4e-05,5,30
27996,-4e-05,-3e-05,-2e-05,-0.00014,-0.00022,-0.00018,-2e-05,-4e-05,5,30
27997,-4e-05,-3e-05,-2e-05,-0.00014,-0.00022,-0.00018,-2e-05,-4e-05,5,30
27998,-4e-05,-3e-05,-2e-05,-0.00014,-0.00022,-0.00018,-2e-05,-4e-05,5,30
27999,-4e-05,-3e-05,-2e-05,-0.00014,-0.00022,-0.00018,-2e-05,-4e-05,5,30
28000,1e-05,4e-05,0.0001,0.00032,0.00053,-0.00014,-1e-05,-1e-05,5,30
28001,-3e-05,-8e-05,-5e-05,0,-0.00038,-1e-05,-4e-05,-2e-05,5,30
28002,-3e-05,-8e-05,-5e-05,0,-0.00038,-1e-05,-4e-05,-2e-05,5,30
28003,-3e-05,-8e-05,-5e-05,0,-0.00038,-1e-05,-4e-05,-2e-05,5,30
28004,-3e-05,-8e-05,-5e-05,0,-0.00038,-1e-05,-4e-05,-2e-05,5,30
28005,-3e-05,-8e-05,-5e-05,0,-0.00038,-1e-05,-4e-05,-2e-05,5,30
28006,-3e-05,-8e-05,-5e-05,0,-0.00038,-1e-05,-4e-05,-2e-05,5,30
28007,-3e-05,-8e-05,-5e-05,0,-0.00038,-1e-05,-4e-05,-2e-05,5,30
28008,-3e-05,-8e-05,-5e-05,0,-0.00038,-1e-05,-4e-05,-2e-05,5,30
28009,-3e-05,-8e-05,-5e-05,0,-0.00038,-1e-05,-4e-05,-2e-05,5,30
28010,-3e-05,-8e-05,-5e-05,0,-0.00038,-1e-05,-4e-05,-2e-05,5,30
28011,-3e-05,-8e-05,-5e-05,0,-0.00038,-1e-05,-4e-05,-2e-05,5,30
28012,-3e-05,-8e-05,-5e-05,0,-0.00038,-1e-05,-4e-05,-2e-05,5,30
28013,-3e-05,-8e-05,-5e-05,0,-0.00038,-1e-05,-4e-05,-2e-05,5,30
28014,-3e-05,-8e-05,-5e-05,0,-0.00038,-1e-05,-4e-05,-2e-05,5,30
28015,-3e-05,-8e-05,-5e-05,0,-0.00038,-1e-05,-4e-05,-2e-05,5,30
28016,-3e-05,-8e-05,-5e-05,0,-0.00038,-1e-05,-4e-05,-2e-05,5,30
28017,-3e-05,-8e-05,-5e-05,0,-0.00038,-1e-05,-4e-05,-2e-05,5,30
28018,-3e-05,-8e-05,-5e-05,0,-0.00038,-1e-05,-4e-05,-2e-05,5,30
28019,-3e-05,-8e-05,-5e-05,0,-0.00038,-1e-05,-4e-05,-2e-05,5,30
28020,-3e-05,-8e-05,-5e-05,0,-0.00038,-1e-05,-4e-05,-2e-05,5,30
28021,-3e-05,-8e-05,-5e-05,0,-0.00038,-1e-05,-4e-05,-2e-05,5,30
28022,-1e-05,-1e-05,6e-05,0.00032,0.00016,-0.00069,1e-05,-2e-05,5,30
28023,-1e-05,-1e-05,6e-05,0.00032,0.00016,-0.00069,1e-05,-2e-05,5,30
28024,-1e-05,-1e-05,6e-05,0.00032,0.00016,-0.00069,1e-05,-2e-05,5,30
28025,-1e-05,-1e-05,6e-05,0.00032,0.00016,-0.00069,1e-05,-2e-05,5,30
28026,-1e-05,-1e-05,6e-05,0.00032,0.00016,-0.00069,1e-05,-2e-05,5,30
28027,-1e-05,-1e-05,6e-05,0.00032,0.00016,-0.00069,1e-05,-2e-05,5,30
28028,3e-05,8e-05,5e-05,0.0001,0.00043,0.0001,-7e-05,2e-05,5,30
28029,-1e-05,2e-05,3e-05,-6e-05,-0.00039,-0.00067,1e-05,-3e-05,5,30
28030,-1e-05,2e-05,3e-05,-6e-05,-0.00039,-0.00067,1e-05,-3e-05,5,30
28031,-1e-05,2e-05,3e-05,-6e-05,-0.00039,-0.00067,1e-05,-3e-05,5,30
28032,-1e-05,2e-05,3e-05,-6e-05,-0.00039,-0.00067,1e-05,-3e-05,5,30
28033,-1e-05,2e-05,3e-05,-6e-05,-0.00039,-0.00067,1e-05,-3e-05,5,30
28034,-1e-05,2e-05,3e-05,-6e-05,-0.00039,-0.00067,1e-05,-3e-05,5,30
28035,-1e-05,2e-05,3e-05,-6e-05,-0.00039,-0.00067,1e-05,-3e-05,5,30
28036,-4e-05,-4e-05,-3e-05,0.00011,0.0001,1e-05,-2e-05,-1e-05,5,30
28038,-4e-05,-4e-05,-3e-05,0.00011,0.0001,1e-05,-2e-05,-1e-05,5,30
28039,-4e-05,-4e-05,-3e-05,0.00011,0.0001,1e-05,-2e-05,-1e-05,5,30
28040,-4e-05,-4e-05,-3e-05,0.00011,0.0001,1e-05,-2e-05,-1e-05,5,30
28041,-4e-05,-4e-05,-3e-05,0.00011,0.0001,1e-05,-2e-05,-1e-05,5,30
28042,-4e-05,-4e-05,-3e-05,0.00011,0.0001,1e-05,-2e-05,-1e-05,5,30
28043,-4e-05,-4e-05,-3e-05,0.00011,0.0001,1e-05,-2e-05,-1e-05,5,30
28044,-4e-05,-4e-05,-3e-05,0.00011,0.0001,1e-05,-2e-05,-1e-05,5,30
28045,-4e-05,-4e-05,-3e-05,0.00011,0.0001,1e-05,-2e-05,-1e-05,5,30
28046,-4e-05,-4e-05,-3e-05,0.00011,0.0001,1e-05,-2e-05,-1e-05,5,30
28047,-4e-05,-4e-05,-3e-05,0.00011,0.0001,1e-05,-2e-05,-1e-05,5,30
28048,-4e-05,-4e-05,-3e-05,0.00011,0.0001,1e-05,-2e-05,-1e-05,5,30
28049,-4e-05,-4e-05,-3e-05,0.00011,0.0001,1e-05,-2e-05,-1e-05,5,30
28050,-4e-05,-4e-05,-3e-05,0.00011,0.0001,1e-05,-2e-05,-1e-05,5,30
28051,5e-05,4e-05,0.00013,0.00081,0.0003,4e-05,0.00018,2e-05,5,30
28052,5e-05,4e-05,0.00013,0.00081,0.0003,4e-05,0.00018,2e-05,5,30
28053,5e-05,4e-05,0.00013,0.00081,0.0003,4e-05,0.00018,2e-05,5,30
28054,5e-05,4e-05,0.00013,0.00081,0.0003,4e-05,0.00018,2e-05,5,30
28055,5e-05,4e-05,0.00013,0.00081,0.0003,4e-05,0.00018,2e-05,5,30
28056,5e-05,4e-05,0.00013,0.00081,0.0003,4e-05,0.00018,2e-05,5,30
28057,5e-05,4e-05,0.00013,0.00081,0.0003,4e-05,0.00018,2e-05,5,30
28058,5e-05,4e-05,0.00013,0.00081,0.0003,4e-05,0.00018,2e-05,5,30
28059,5e-05,4e-05,0.00013,0.00081,0.0003,4e-05,0.00018,2e-05,5,30
28060,-2e-05,-3e-05,2e-05,0.00052,-3e-05,0.00042,0,-3e-05,5,30
28061,-2e-05,-3e-05,2e-05,0.00052,-3e-05,0.00042,0,-3e-05,5,30
28062,-4e-05,0,-0.0001,3e-05,4e-05,0.00023,-0.00013,-5e-05,5,30
28063,-4e-05,0,-0.0001,3e-05,4e-05,0.00023,-0.00013,-5e-05,5,30
28064,-4e-05,0,-0.0001,3e-05,4e-05,0.00023,-0.00013,-5e-05,5,30
28065,-4e-05,0,-0.0001,3e-05,4e-05,0.00023,-0.00013,-5e-05,5,30
28066,-4e-05,0,-0.0001,3e-05,4e-05,0.00023,-0.00013,-5e-05,5,30
28067,-4e-05,0,-0.0001,3e-05,4e-05,0.00023,-0.00013,-5e-05,5,30
28068,-4e-05,0,-0.0001,3e-05,4e-05,0.00023,-0.00013,-5e-05,5,30
28069,-4e-05,0,-0.0001,3e-05,4e-05,0.00023,-0.00013,-5e-05,5,30
28070,-4e-05,0,-0.0001,3e-05,4e-05,0.00023,-0.00013,-5e-05,5,30
28071,-4e-05,0,-0.0001,3e-05,4e-05,0.00023,-0.00013,-5e-05,5,30
28072,-4e-05,0,-0.0001,3e-05,4e-05,0.00023,-0.00013,-5e-05,5,30
28073,-4e-05,0,-0.0001,3e-05,4e-05,0.00023,-0.00013,-5e-05,5,30
28074,-4e-05,0,-0.0001,3e-05,4e-05,0.00023,-0.00013,-5e-05,5,30
28075,-4e-05,0,-0.0001,3e-05,4e-05,0.00023,-0.00013,-5e-05,5,30
28076,-4e-05,0,-0.0001,3e-05,4e-05,0.00023,-0.00013,-5e-05,5,30
28077,-4e-05,0,-0.0001,3e-05,4e-05,0.00023,-0.00013,-5e-05,5,30
28078,-4e-05,0,-0.0001,3e-05,4e-05,0.00023,-0.00013,-5e-05,5,30
28079,-4e-05,0,-0.0001,3e-05,4e-05,0.00023,-0.00013,-5e-05,5,30
28080,-4e-05,0,-0.0001,3e-05,4e-05,0.00023,-0.00013,-5e-05,5,30
28081,-4e-05,0,-0.0001,3e-05,4e-05,0.00023,-0.00013,-5e-05,5,30
28082,-5e-05,-0.00011,-0.00012,2e-05,3e-05,-9e-05,-3e-05,-3e-05,5,30
28083,-5e-05,-0.00011,-0.00012,2e-05,3e-05,-9e-05,-3e-05,-3e-05,5,30
28084,-3e-05,-5e-05,-6e-05,-0.00038,0.00027,0.00021,-4e-05,-1e-05,5,30
28085,-3e-05,-5e-05,-6e-05,-0.00038,0.00027,0.00021,-4e-05,-1e-05,5,30
28086,-3e-05,-5e-05,-6e-05,-0.00038,0.00027,0.00021,-4e-05,-1e-05,5,30
28088,-3e-05,-5e-05,-6e-05,-0.00038,0.00027,0.00021,-4e-05,-1e-05,5,30
28089,-3e-05,-5e-05,-6e-05,-0.00038,0.00027,0.00021,-4e-05,-1e-05,5,30
28090,-3e-05,-5e-05,-6e-05,-0.00038,0.00027,0.00021,-4e-05,-1e-05,5,30
28091,-3e-05,-5e-05,-6e-05,-0.00038,0.00027,0.00021,-4e-05,-1e-05,5,30
28092,-3e-05,-5e-05,-6e-05,-0.00038,0.00027,0.00021,-4e-05,-1e-05,5,30
28093,-3e-05,-5e-05,-6e-05,-0.00038,0.00027,0.00021,-4e-05,-1e-05,5,30
28094,-3e-05,-5e-05,-6e-05,-0.00038,0.00027,0.00021,-4e-05,-1e-05,5,30
28095,-3e-05,-5e-05,-6e-05,-0.00038,0.00027,0.00021,-4e-05,-1e-05,5,30
28096,-3e-05,-5e-05,-6e-05,-0.00038,0.00027,0.00021,-4e-05,-1e-05,5,30
28097,-1e-05,1e-05,-2e-05,-0.00028,-0.00053,-2e-05,-3e-05,-1e-05,5,30
28099,-1e-05,1e-05,-2e-05,-0.00028,-0.00053,-2e-05,-3e-05,-1e-05,5,30
28100,-1e-05,1e-05,-2e-05,-0.00028,-0.00053,-2e-05,-3e-05,-1e-05,5,30
28101,-1e-05,1e-05,-2e-05,-0.00028,-0.00053,-2e-05,-3e-05,-1e-05,5,30
28102,-1e-05,1e-05,-2e-05,-0.00028,-0.00053,-2e-05,-3e-05,-1e-05,5,30
28103,-3e-05,-3e-05,-0.0001,-8e-05,-0.00017,6e-05,2e-05,-1e-05,5,30
28104,-3e-05,-3e-05,-0.0001,-8e-05,-0.00017,6e-05,2e-05,-1e-05,5,30
28105,-3e-05,-3e-05,-0.0001,-8e-05,-0.00017,6e-05,2e-05,-1e-05,5,30
28106,-3e-05,-3e-05,-0.0001,-8e-05,-0.00017,6e-05,2e-05,-1e-05,5,30
28107,-3e-05,-3e-05,-0.0001,-8e-05,-0.00017,6e-05,2e-05,-1e-05,5,30
28108,-3e-05,-3e-05,-0.0001,-8e-05,-0.00017,6e-05,2e-05,-1e-05,5,30
28109,-3e-05,-3e-05,-0.0001,-8e-05,-0.00017,6e-05,2e-05,-1e-05,5,30
28110,-3e-05,-3e-05,-0.0001,-8e-05,-0.00017,6e-05,2e-05,-1e-05,5,30
28111,-3e-05,-3e-05,-0.0001,-8e-05,-0.00017,6e-05,2e-05,-1e-05,5,30
28112,-3e-05,-3e-05,-0.0001,-8e-05,-0.00017,6e-05,2e-05,-1e-05,5,30
28113,-3e-05,-3e-05,-0.0001,-8e-05,-0.00017,6e-05,2e-05,-1e-05,5,30
28114,-3e-05,-3e-05,-0.0001,-8e-05,-0.00017,6e-05,2e-05,-1e-05,5,30
28115,-3e-05,-3e-05,-0.0001,-8e-05,-0.00017,6e-05,2e-05,-1e-05,5,30
28116,-3e-05,-3e-05,-0.0001,-8e-05,-0.00017,6e-05,2e-05,-1e-05,5,30
28117,-3e-05,-3e-05,-0.0001,-8e-05,-0.00017,6e-05,2e-05,-1e-05,5,30
28118,-3e-05,-3e-05,-0.0001,-8e-05,-0.00017,6e-05,2e-05,-1e-05,5,30
28119,-3e-05,-3e-05,-0.0001,-8e-05,-0.00017,6e-05,2e-05,-1e-05,5,30
28120,-2e-05,0,-1e-05,3e-05,0.00019,-0.00048,3e-05,-2e-05,5,30
28121,-3e-05,-2e-05,-7e-05,-0.00024,0.00014,0.00022,-1e-05,1e-05,5,30
28122,-3e-05,-2e-05,-7e-05,-0.00024,0.00014,0.00022,-1e-05,1e-05,5,30
28123,-3e-05,-2e-05,-7e-05,-0.00024,0.00014,0.00022,-1e-05,1e-05,5,30
28124,-3e-05,-2e-05,-7e-05,-0.00024,0.00014,0.00022,-1e-05,1e-05,5,30
28125,-3e-05,-2e-05,-7e-05,-0.00024,0.00014,0.00022,-1e-05,1e-05,5,30
28126,-3e-05,-2e-05,-7e-05,-0.00024,0.00014,0.00022,-1e-05,1e-05,5,30
28127,-3e-05,-2e-05,-7e-05,-0.00024,0.00014,0.00022,-1e-05,1e-05,5,30
28128,-3e-05,-2e-05,-7e-05,-0.00024,0.00014,0.00022,-1e-05,1e-05,5,30
28129,-3e-05,-2e-05,-7e-05,-0.00024,0.00014,0.00022,-1e-05,1e-05,5,30
28130,-3e-05,-2e-05,-7e-05,-0.00024,0.00014,0.00022,-1e-05,1e-05,5,30
28131,-3e-05,-2e-05,-7e-05,-0.00024,0.00014,0.00022,-1e-05,1e-05,5,30
28132,-3e-05,-2e-05,-7e-05,-0.00024,0.00014,0.00022,-1e-05,1e-05,5,30
28133,-3e-05,-2e-05,-7e-05,-0.00024,0.00014,0.00022,-1e-05,1e-05,5,30
28134,-3e-05,-2e-05,-7e-05,-0.00024,0.00014,0.00022,-1e-05,1e-05,5,30
28135,-3e-05,-2e-05,-7e-05,-0.00024,0.00014,0.00022,-1e-05,1e-05,5,30
28136,-3e-05,-2e-05,-7e-05,-0.00024,0.00014,0.00022,-1e-05,1e-05,5,30
28138,-3e-05,-2e-05,-7e-05,-0.00024,0.00014,0.00022,-1e-05,1e-05,5,30
28139,-3e-05,-2e-05,-7e-05,-0.00024,0.00014,0.00022,-1e-05,1e-05,5,30
28140,-3e-05,-2e-05,-7e-05,-0.00024,0.00014,0.00022,-1e-05,1e-05,5,30
28141,-3e-05,-2e-05,-7e-05,-0.00024,0.00014,0.00022,-1e-05,1e-05,5,30
28142,-1e-05,1e-05,7e-05,-0.0001,3e-05,-0.00035,-7e-05,-2e-05,5,30
28143,-1e-05,1e-05,7e-05,-0.0001,3e-05,-0.00035,-7e-05,-2e-05,5,30
28144,3e-05,0,7e-05,0.00028,0.00027,0.00012,3e-05,1e-05,5,30
28145,3e-05,0,7e-05,0.00028,0.00027,0.00012,3e-05,1e-05,5,30
28146,3e-05,0,7e-05,0.00028,0.00027,0.00012,3e-05,1e-05,5,30
28147,3e-05,0,7e-05,0.00028,0.00027,0.00012,3e-05,1e-05,5,30
28148,3e-05,0,7e-05,0.00028,0.00027,0.00012,3e-05,1e-05,5,30
28149,3e-05,0,7e-05,0.00028,0.00027,0.00012,3e-05,1e-05,5,30
28150,3e-05,0,7e-05,0.00028,0.00027,0.00012,3e-05,1e-05,5,30
28151,3e-05,0,7e-05,0.00028,0.00027,0.00012,3e-05,1e-05,5,30
28152,3e-05,0,7e-05,0.00028,0.00027,0.00012,3e-05,1e-05,5,30
28153,3e-05,0,7e-05,0.00028,0.00027,0.00012,3e-05,1e-05,5,30
28154,3e-05,0,7e-05,0.00028,0.00027,0.00012,3e-05,1e-05,5,30
28155,3e-05,0,7e-05,0.00028,0.00027,0.00012,3e-05,1e-05,5,30
28156,-5e-05,-0.00012,-0.0002,-0.0003,6e-05,0.00012,3e-05,-3e-05,5,30
28157,-5e-05,-0.00012,-0.0002,-0.0003,6e-05,0.00012,3e-05,-3e-05,5,30
28158,-5e-05,-0.00012,-0.0002,-0.0003,6e-05,0.00012,3e-05,-3e-05,5,30
28159,-5e-05,-0.00012,-0.0002,-0.0003,6e-05,0.00012,3e-05,-3e-05,5,30
28160,-5e-05,-0.00012,-0.0002,-0.0003,6e-05,0.00012,3e-05,-3e-05,5,30
28161,-5e-05,-0.00012,-0.0002,-0.0003,6e-05,0.00012,3e-05,-3e-05,5,30
28162,-5e-05,-0.00012,-0.0002,-0.0003,6e-05,0.00012,3e-05,-3e-05,5,30
28163,-5e-05,-0.00012,-0.0002,-0.0003,6e-05,0.00012,3e-05,-3e-05,5,30
28164,-5e-05,-0.00012,-0.0002,-0.0003,6e-05,0.00012,3e-05,-3e-05,5,30
28165,5e-05,5e-05,5e-05,0.00027,7e-05,0.00011,-4e-05,1e-05,5,30
28166,5e-05,5e-05,5e-05,0.00027,7e-05,0.00011,-4e-05,1e-05,5,30
28167,5e-05,5e-05,5e-05,0.00027,7e-05,0.00011,-4e-05,1e-05,5,30
28168,5e-05,5e-05,5e-05,0.00027,7e-05,0.00011,-4e-05,1e-05,5,30
28169,5e-05,5e-05,5e-05,0.00027,7e-05,0.00011,-4e-05,1e-05,5,30
28170,5e-05,5e-05,5e-05,0.00027,7e-05,0.00011,-4e-05,1e-05,5,30
28171,5e-05,5e-05,5e-05,0.00027,7e-05,0.00011,-4e-05,1e-05,5,30
28172,5e-05,5e-05,5e-05,0.00027,7e-05,0.00011,-4e-05,1e-05,5,30
28173,5e-05,5e-05,5e-05,0.00027,7e-05,0.00011,-4e-05,1e-05,5,30
28174,5e-05,5e-05,5e-05,0.00027,7e-05,0.00011,-4e-05,1e-05,5,30
28175,5e-05,5e-05,5e-05,0.00027,7e-05,0.00011,-4e-05,1e-05,5,30
28176,5e-05,5e-05,5e-05,0.00027,7e-05,0.00011,-4e-05,1e-05,5,30
28177,5e-05,5e-05,5e-05,0.00027,7e-05,0.00011,-4e-05,1e-05,5,30
28178,5e-05,5e-05,5e-05,0.00027,7e-05,0.00011,-4e-05,1e-05,5,30
28179,5e-05,5e-05,5e-05,0.00027,7e-05,0.00011,-4e-05,1e-05,5,30
28180,1e-05,3e-05,2e-05,0.00018,0.00026,0.00035,3e-05,1e-05,5,30
28181,1e-05,2e-05,2e-05,-0.0001,-0.00024,-4e-05,-2e-05,-1e-05,5,30
28182,1e-05,2e-05,2e-05,-0.0001,-0.00024,-4e-05,-2e-05,-1e-05,5,30
28183,1e-05,2e-05,2e-05,-0.0001,-0.00024,-4e-05,-2e-05,-1e-05,5,30
28184,1e-05,2e-05,2e-05,-0.0001,-0.00024,-4e-05,-2e-05,-1e-05,5,30
28185,1e-05,2e-05,2e-05,-0.0001,-0.00024,-4e-05,-2e-05,-1e-05,5,30
28186,1e-05,2e-05,2e-05,-0.0001,-0.00024,-4e-05,-2e-05,-1e-05,5,30
28188,1e-05,2e-05,2e-05,-0.0001,-0.00024,-4e-05,-2e-05,-1e-05,5,30
28189,1e-05,2e-05,2e-05,-0.0001,-0.00024,-4e-05,-2e-05,-1e-05,5,30
28190,1e-05,2e-05,2e-05,-0.0001,-0.00024,-4e-05,-2e-05,-1e-05,5,30
28191,1e-05,2e-05,2e-05,-0.0001,-0.00024,-4e-05,-2e-05,-1e-05,5,30
28192,1e-05,2e-05,2e-05,-0.0001,-0.00024,-4e-05,-2e-05,-1e-05,5,30
28193,1e-05,2e-05,2e-05,-0.0001,-0.00024,-4e-05,-2e-05,-1e-05,5,30
28194,1e-05,2e-05,2e-05,-0.0001,-0.00024,-4e-05,-2e-05,-1e-05,5,30
28195,1e-05,2e-05,2e-05,-0.0001,-0.00024,-4e-05,-2e-05,-1e-05,5,30
28196,1e-05,2e-05,2e-05,-0.0001,-0.00024,-4e-05,-2e-05,-1e-05,5,30
28197,1e-05,2e-05,2e-05,-0.0001,-0.00024,-4e-05,-2e-05,-1e-05,5,30
28198,1e-05,2e-05,2e-05,-0.0001,-0.00024,-4e-05,-2e-05,-1e-05,5,30
28199,1e-05,2e-05,2e-05,-0.0001,-0.00024,-4e-05,-2e-05,-1e-05,5,30
28200,1e-05,2e-05,2e-05,-0.0001,-0.00024,-4e-05,-2e-05,-1e-05,5,30
28201,1e-05,2e-05,2e-05,-0.0001,-0.00024,-4e-05,-2e-05,-1e-05,5,30
28202,1e-05,3e-05,2e-05,0,1e-05,6e-05,0.0001,3e-05,5,30
28203,1e-05,3e-05,2e-05,0,1e-05,6e-05,0.0001,3e-05,5,30
28204,-1e-05,1e-05,1e-05,-7e-05,7e-05,-0.0005,-2e-05,-1e-05,5,30
28205,-1e-05,1e-05,1e-05,-7e-05,7e-05,-0.0005,-2e-05,-1e-05,5,30
28206,-1e-05,1e-05,1e-05,-7e-05,7e-05,-0.0005,-2e-05,-1e-05,5,30
28207,-1e-05,1e-05,1e-05,-7e-05,7e-05,-0.0005,-2e-05,-1e-05,5,30
28208,-1e-05,1e-05,1e-05,-7e-05,7e-05,-0.0005,-2e-05,-1e-05,5,30
28209,-1e-05,1e-05,1e-05,-7e-05,7e-05,-0.0005,-2e-05,-1e-05,5,30
28210,-1e-05,1e-05,1e-05,-7e-05,7e-05,-0.0005,-2e-05,-1e-05,5,30
28211,-1e-05,1e-05,1e-05,-7e-05,7e-05,-0.0005,-2e-05,-1e-05,5,30
28212,-1e-05,1e-05,1e-05,-7e-05,7e-05,-0.0005,-2e-05,-1e-05,5,30
28213,-1e-05,1e-05,1e-05,-7e-05,7e-05,-0.0005,-2e-05,-1e-05,5,30
28215,-1e-05,1e-05,1e-05,-7e-05,7e-05,-0.0005,-2e-05,-1e-05,5,30
28216,2e-05,2e-05,-3e-05,-0.0002,0.00013,8e-05,1e-05,1e-05,5,30
28217,2e-05,2e-05,-3e-05,-0.0002,0.00013,8e-05,1e-05,1e-05,5,30
28218,2e-05,2e-05,-3e-05,-0.0002,0.00013,8e-05,1e-05,1e-05,5,30
28219,2e-05,2e-05,-3e-05,-0.0002,0.00013,8e-05,1e-05,1e-05,5,30
28220,2e-05,2e-05,-3e-05,-0.0002,0.00013,8e-05,1e-05,1e-05,5,30
28221,2e-05,2e-05,-3e-05,-0.0002,0.00013,8e-05,1e-05,1e-05,5,30
28222,2e-05,2e-05,-3e-05,-0.0002,0.00013,8e-05,1e-05,1e-05,5,30
28223,2e-05,2e-05,-3e-05,-0.0002,0.00013,8e-05,1e-05,1e-05,5,30
28224,2e-05,2e-05,-3e-05,-0.0002,0.00013,8e-05,1e-05,1e-05,5,30
28225,-4e-05,-0.00013,-0.0001,7e-05,-0.00021,0.00022,0,-1e-05,5,30
28226,-4e-05,-0.00013,-0.0001,7e-05,-0.00021,0.00022,0,-1e-05,5,30
28227,-4e-05,-0.00013,-0.0001,7e-05,-0.00021,0.00022,0,-1e-05,5,30
28228,-4e-05,-0.00013,-0.0001,7e-05,-0.00021,0.00022,0,-1e-05,5,30
28229,-4e-05,-0.00013,-0.0001,7e-05,-0.00021,0.00022,0,-1e-05,5,30
28230,-4e-05,-0.00013,-0.0001,7e-05,-0.00021,0.00022,0,-1e-05,5,30
28231,-4e-05,-0.00013,-0.0001,7e-05,-0.00021,0.00022,0,-1e-05,5,30
28232,-4e-05,-0.00013,-0.0001,7e-05,-0.00021,0.00022,0,-1e-05,5,30
28233,-4e-05,-0.00013,-0.0001,7e-05,-0.00021,0.00022,0,-1e-05,5,30
28234,-4e-05,-0.00013,-0.0001,7e-05,-0.00021,0.00022,0,-1e-05,5,30
28235,-4e-05,-0.00013,-0.0001,7e-05,-0.00021,0.00022,0,-1e-05,5,30
28236,-4e-05,-0.00013,-0.0001,7e-05,-0.00021,0.00022,0,-1e-05,5,30
28238,-4e-05,-0.00013,-0.0001,7e-05,-0.00021,0.00022,0,-1e-05,5,30
28239,-4e-05,-0.00013,-0.0001,7e-05,-0.00021,0.00022,0,-1e-05,5,30
28240,-4e-05,-3e-05,-6e-05,2e-05,-0.00046,0.00023,-2e-05,-1e-05,5,30
28241,0,7e-05,9e-05,-4e-05,0.00015,-0.0006,0.00022,6e-05,5,30
28242,-1e-05,3e-05,1e-05,-0.00034,-0.0002,-0.00012,-3e-05,1e-05,5,30
28243,-1e-05,3e-05,1e-05,-0.00034,-0.0002,-0.00012,-3e-05,1e-05,5,30
28244,-1e-05,3e-05,1e-05,-0.00034,-0.0002,-0.00012,-3e-05,1e-05,5,30
28245,-1e-05,3e-05,1e-05,-0.00034,-0.0002,-0.00012,-3e-05,1e-05,5,30
28246,-1e-05,3e-05,1e-05,-0.00034,-0.0002,-0.00012,-3e-05,1e-05,5,30
28247,-1e-05,3e-05,1e-05,-0.00034,-0.0002,-0.00012,-3e-05,1e-05,5,30
28248,-1e-05,3e-05,1e-05,-0.00034,-0.0002,-0.00012,-3e-05,1e-05,5,30
28249,-1e-05,3e-05,1e-05,-0.00034,-0.0002,-0.00012,-3e-05,1e-05,5,30
28250,-1e-05,3e-05,1e-05,-0.00034,-0.0002,-0.00012,-3e-05,1e-05,5,30
28251,-1e-05,3e-05,1e-05,-0.00034,-0.0002,-0.00012,-3e-05,1e-05,5,30
28252,-1e-05,3e-05,1e-05,-0.00034,-0.0002,-0.00012,-3e-05,1e-05,5,30
28253,-1e-05,3e-05,1e-05,-0.00034,-0.0002,-0.00012,-3e-05,1e-05,5,30
28254,-1e-05,3e-05,1e-05,-0.00034,-0.0002,-0.00012,-3e-05,1e-05,5,30
28255,-1e-05,3e-05,1e-05,-0.00034,-0.0002,-0.00012,-3e-05,1e-05,5,30
28256,-1e-05,3e-05,1e-05,-0.00034,-0.0002,-0.00012,-3e-05,1e-05,5,30
28257,-1e-05,3e-05,1e-05,-0.00034,-0.0002,-0.00012,-3e-05,1e-05,5,30
28258,-1e-05,3e-05,1e-05,-0.00034,-0.0002,-0.00012,-3e-05,1e-05,5,30
28259,-1e-05,3e-05,1e-05,-0.00034,-0.0002,-0.00012,-3e-05,1e-05,5,30
28260,-1e-05,3e-05,1e-05,-0.00034,-0.0002,-0.00012,-3e-05,1e-05,5,30
28261,-1e-05,3e-05,1e-05,-0.00034,-0.0002,-0.00012,-3e-05,1e-05,5,30
28262,-1e-05,3e-05,1e-05,-0.00034,-0.0002,-0.00012,-3e-05,1e-05,5,30
28263,1e-05,0,1e-05,0.00014,8e-05,0.00069,-7e-05,-1e-05,5,30
28264,-4e-05,-5e-05,-1e-05,0.00029,0.00046,0.00019,0,-2e-05,5,30
28265,-4e-05,-5e-05,-1e-05,0.00029,0.00046,0.00019,0,-2e-05,5,30
28266,-4e-05,-5e-05,-1e-05,0.00029,0.00046,0.00019,0,-2e-05,5,30
28267,-4e-05,-5e-05,-1e-05,0.00029,0.00046,0.00019,0,-2e-05,5,30
28268,-4e-05,-5e-05,-1e-05,0.00029,0.00046,0.00019,0,-2e-05,5,30
28269,-4e-05,-5e-05,-1e-05,0.00029,0.00046,0.00019,0,-2e-05,5,30
28270,-4e-05,-5e-05,-1e-05,0.00029,0.00046,0.00019,0,-2e-05,5,30
28271,-4e-05,-5e-05,-1e-05,0.00029,0.00046,0.00019,0,-2e-05,5,30
28272,-4e-05,-5e-05,-1e-05,0.00029,0.00046,0.00019,0,-2e-05,5,30
28273,-4e-05,-5e-05,-1e-05,0.00029,0.00046,0.00019,0,-2e-05,5,30
28274,-4e-05,-5e-05,-1e-05,0.00029,0.00046,0.00019,0,-2e-05,5,30
28275,-4e-05,-5e-05,-1e-05,0.00029,0.00046,0.00019,0,-2e-05,5,30
28276,1e-05,-8e-05,-6e-05,9e-05,-6e-05,-0.00026,-4e-05,0,5,30
28277,1e-05,-8e-05,-6e-05,9e-05,-6e-05,-0.00026,-4e-05,0,5,30
28278,1e-05,-8e-05,-6e-05,9e-05,-6e-05,-0.00026,-4e-05,0,5,30
28279,1e-05,-8e-05,-6e-05,9e-05,-6e-05,-0.00026,-4e-05,0,5,30
28280,1e-05,-8e-05,-6e-05,9e-05,-6e-05,-0.00026,-4e-05,0,5,30
28281,1e-05,-8e-05,-6e-05,9e-05,-6e-05,-0.00026,-4e-05,0,5,30
28282,1e-05,-8e-05,-6e-05,9e-05,-6e-05,-0.00026,-4e-05,0,5,30
28283,1e-05,-8e-05,-6e-05,9e-05,-6e-05,-0.00026,-4e-05,0,5,30
28284,1e-05,-8e-05,-6e-05,9e-05,-6e-05,-0.00026,-4e-05,0,5,30
28285,1e-05,2e-05,-2e-05,-0.00013,0,2e-05,-6e-05,-2e-05,5,30
28286,1e-05,2e-05,-2e-05,-0.00013,0,2e-05,-6e-05,-2e-05,5,30
28288,1e-05,2e-05,-2e-05,-0.00013,0,2e-05,-6e-05,-2e-05,5,30
28289,1e-05,2e-05,-2e-05,-0.00013,0,2e-05,-6e-05,-2e-05,5,30
28290,1e-05,2e-05,-2e-05,-0.00013,0,2e-05,-6e-05,-2e-05,5,30
28291,1e-05,2e-05,-2e-05,-0.00013,0,2e-05,-6e-05,-2e-05,5,30
28292,1e-05,2e-05,-2e-05,-0.00013,0,2e-05,-6e-05,-2e-05,5,30
28293,1e-05,2e-05,-2e-05,-0.00013,0,2e-05,-6e-05,-2e-05,5,30
28294,1e-05,2e-05,-2e-05,-0.00013,0,2e-05,-6e-05,-2e-05,5,30
28295,1e-05,2e-05,-2e-05,-0.00013,0,2e-05,-6e-05,-2e-05,5,30
28296,1e-05,2e-05,-2e-05,-0.00013,0,2e-05,-6e-05,-2e-05,5,30
28297,1e-05,2e-05,-2e-05,-0.00013,0,2e-05,-6e-05,-2e-05,5,30
28298,1e-05,2e-05,-2e-05,-0.00013,0,2e-05,-6e-05,-2e-05,5,30
28299,1e-05,2e-05,-2e-05,-0.00013,0,2e-05,-6e-05,-2e-05,5,30
28300,-3e-05,5e-05,0,2e-05,6e-05,-0.0004,-6e-05,1e-05,5,30
28301,0,-0.00011,-0.00011,-5e-05,3e-05,-0.00011,0.00017,-1e-05,5,30
28302,1e-05,0,3e-05,9e-05,-0.0003,-7e-05,1e-05,0,5,30
28303,1e-05,0,3e-05,9e-05,-0.0003,-7e-05,1e-05,0,5,30
28304,1e-05,0,3e-05,9e-05,-0.0003,-7e-05,1e-05,0,5,30
28305,1e-05,0,3e-05,9e-05,-0.0003,-7e-05,1e-05,0,5,30
28306,1e-05,0,3e-05,9e-05,-0.0003,-7e-05,1e-05,0,5,30
28307,1e-05,0,3e-05,9e-05,-0.0003,-7e-05,1e-05,0,5,30
28308,1e-05,0,3e-05,9e-05,-0.0003,-7e-05,1e-05,0,5,30
28309,1e-05,0,3e-05,9e-05,-0.0003,-7e-05,1e-05,0,5,30
28310,1e-05,0,3e-05,9e-05,-0.0003,-7e-05,1e-05,0,5,30
28311,1e-05,0,3e-05,9e-05,-0.0003,-7e-05,1e-05,0,5,30
28312,1e-05,0,3e-05,9e-05,-0.0003,-7e-05,1e-05,0,5,30
28313,1e-05,0,3e-05,9e-05,-0.0003,-7e-05,1e-05,0,5,30
28314,1e-05,0,3e-05,9e-05,-0.0003,-7e-05,1e-05,0,5,30
28315,1e-05,0,3e-05,9e-05,-0.0003,-7e-05,1e-05,0,5,30
28316,1e-05,0,3e-05,9e-05,-0.0003,-7e-05,1e-05,0,5,30
28317,1e-05,0,3e-05,9e-05,-0.0003,-7e-05,1e-05,0,5,30
28318,1e-05,0,3e-05,9e-05,-0.0003,-7e-05,1e-05,0,5,30
28319,1e-05,0,3e-05,9e-05,-0.0003,-7e-05,1e-05,0,5,30
28320,1e-05,0,3e-05,9e-05,-0.0003,-7e-05,1e-05,0,5,30
28321,1e-05,0,3e-05,9e-05,-0.0003,-7e-05,1e-05,0,5,30
28322,1e-05,0,3e-05,9e-05,-0.0003,-7e-05,1e-05,0,5,30
28323,1e-05,0,3e-05,9e-05,-0.0003,-7e-05,1e-05,0,5,30
28324,1e-05,0,3e-05,9e-05,-0.0003,-7e-05,1e-05,0,5,30
28325,1e-05,0,3e-05,9e-05,-0.0003,-7e-05,1e-05,0,5,30
28326,1e-05,0,3e-05,9e-05,-0.0003,-7e-05,1e-05,0,5,30
28327,1e-05,0,3e-05,9e-05,-0.0003,-7e-05,1e-05,0,5,30
28328,1e-05,0,3e-05,9e-05,-0.0003,-7e-05,1e-05,0,5,30
28329,1e-05,0,3e-05,9e-05,-0.0003,-7e-05,1e-05,0,5,30
28330,-2e-05,2e-05,-3e-05,-0.00022,-0.00016,2e-05,0,-2e-05,5,30
28331,0,-1e-05,0,4e-05,-7e-05,-2e-05,-4e-05,-3e-05,5,30
28332,1e-05,-4e-05,-5e-05,-3e-05,-3e-05,-0.00043,-0.00019,-3e-05,5,30
28333,1e-05,-4e-05,-5e-05,-3e-05,-3e-05,-0.00043,-0.00019,-3e-05,5,30
28334,1e-05,-4e-05,-5e-05,-3e-05,-3e-05,-0.00043,-0.00019,-3e-05,5,30
28335,1e-05,-4e-05,-5e-05,-3e-05,-3e-05,-0.00043,-0.00019,-3e-05,5,30
28336,1e-05,-4e-05,-5e-05,-3e-05,-3e-05,-0.00043,-0.00019,-3e-05,5,30
28338,1e-05,-4e-05,-5e-05,-3e-05,-3e-05,-0.00043,-0.00019,-3e-05,5,30
28339,1e-05,-4e-05,-5e-05,-3e-05,-3e-05,-0.00043,-0.00019,-3e-05,5,30
28340,1e-05,-4e-05,-5e-05,-3e-05,-3e-05,-0.00043,-0.00019,-3e-05,5,30
28341,1e-05,-4e-05,-5e-05,-3e-05,-3e-05,-0.00043,-0.00019,-3e-05,5,30
28342,1e-05,-4e-05,-5e-05,-3e-05,-3e-05,-0.00043,-0.00019,-3e-05,5,30
28343,1e-05,-4e-05,-5e-05,-3e-05,-3e-05,-0.00043,-0.00019,-3e-05,5,30
28344,1e-05,-4e-05,-5e-05,-3e-05,-3e-05,-0.00043,-0.00019,-3e-05,5,30
28345,1e-05,6e-05,6e-05,-0.00031,0.00043,0.00027,5e-05,4e-05,5,30
28346,0,1e-05,1e-05,7e-05,-0.00011,-4e-05,-3e-05,-2e-05,5,30
28347,0,1e-05,1e-05,7e-05,-0.00011,-4e-05,-3e-05,-2e-05,5,30
28348,0,1e-05,1e-05,7e-05,-0.00011,-4e-05,-3e-05,-2e-05,5,30
28349,0,1e-05,1e-05,7e-05,-0.00011,-4e-05,-3e-05,-2e-05,5,30
28350,0,1e-05,1e-05,7e-05,-0.00011,-4e-05,-3e-05,-2e-05,5,30
28351,0,1e-05,1e-05,7e-05,-0.00011,-4e-05,-3e-05,-2e-05,5,30
28352,0,1e-05,1e-05,7e-05,-0.00011,-4e-05,-3e-05,-2e-05,5,30
28353,0,1e-05,1e-05,7e-05,-0.00011,-4e-05,-3e-05,-2e-05,5,30
28354,0,1e-05,1e-05,7e-05,-0.00011,-4e-05,-3e-05,-2e-05,5,30
28355,0,1e-05,1e-05,7e-05,-0.00011,-4e-05,-3e-05,-2e-05,5,30
28356,0,1e-05,1e-05,7e-05,-0.00011,-4e-05,-3e-05,-2e-05,5,30
28357,0,1e-05,1e-05,7e-05,-0.00011,-4e-05,-3e-05,-2e-05,5,30
28358,0,1e-05,1e-05,7e-05,-0.00011,-4e-05,-3e-05,-2e-05,5,30
28359,0,1e-05,1e-05,7e-05,-0.00011,-4e-05,-3e-05,-2e-05,5,30
28360,-1e-05,-0.00013,-0.00018,-0.00022,-0.00036,0.00028,0,0,5,30
28361,0,3e-05,-1e-05,-0.0004,-0.00012,0.00041,0.00012,2e-05,5,30
28362,0,3e-05,-1e-05,-0.0004,-0.00012,0.00041,0.00012,2e-05,5,30
28363,0,3e-05,-1e-05,-0.0004,-0.00012,0.00041,0.00012,2e-05,5,30
28364,0,3e-05,-1e-05,-0.0004,-0.00012,0.00041,0.00012,2e-05,5,30
28365,0,3e-05,-1e-05,-0.0004,-0.00012,0.00041,0.00012,2e-05,5,30
28366,0,3e-05,-1e-05,-0.0004,-0.00012,0.00041,0.00012,2e-05,5,30
28367,0,3e-05,-1e-05,-0.0004,-0.00012,0.00041,0.00012,2e-05,5,30
28368,0,3e-05,-1e-05,-0.0004,-0.00012,0.00041,0.00012,2e-05,5,30
28369,0,3e-05,-1e-05,-0.0004,-0.00012,0.00041,0.00012,2e-05,5,30
28370,0,3e-05,-1e-05,-0.0004,-0.00012,0.00041,0.00012,2e-05,5,30
28371,0,3e-05,-1e-05,-0.0004,-0.00012,0.00041,0.00012,2e-05,5,30
28372,0,3e-05,-1e-05,-0.0004,-0.00012,0.00041,0.00012,2e-05,5,30
28373,0,3e-05,-1e-05,-0.0004,-0.00012,0.00041,0.00012,2e-05,5,30
28374,0,3e-05,-1e-05,-0.0004,-0.00012,0.00041,0.00012,2e-05,5,30
28375,0,3e-05,-1e-05,-0.0004,-0.00012,0.00041,0.00012,2e-05,5,30
28376,0,3e-05,-1e-05,-0.0004,-0.00012,0.00041,0.00012,2e-05,5,30
28377,0,3e-05,-1e-05,-0.0004,-0.00012,0.00041,0.00012,2e-05,5,30
28378,0,3e-05,-1e-05,-0.0004,-0.00012,0.00041,0.00012,2e-05,5,30
28379,0,3e-05,-1e-05,-0.0004,-0.00012,0.00041,0.00012,2e-05,5,30
28380,0,3e-05,-1e-05,-0.0004,-0.00012,0.00041,0.00012,2e-05,5,30
28381,0,3e-05,-1e-05,-0.0004,-0.00012,0.00041,0.00012,2e-05,5,30
28382,-3e-05,2e-05,-6e-05,-0.00085,-0.00031,0.00011,-1e-05,-4e-05,5,30
28383,-3e-05,2e-05,-6e-05,-0.00085,-0.00031,0.00011,-1e-05,-4e-05,5,30
28384,-6e-05,-2e-05,-0.00013,-0.00018,-1e-05,-0.00011,-3e-05,-3e-05,5,30
28385,-6e-05,-2e-05,-0.00013,-0.00018,-1e-05,-0.00011,-3e-05,-3e-05,5,30
28386,-6e-05,-2e-05,-0.00013,-0.00018,-1e-05,-0.00011,-3e-05,-3e-05,5,30
28388,-6e-05,-2e-05,-0.00013,-0.00018,-1e-05,-0.00011,-3e-05,-3e-05,5,30
28389,-6e-05,-2e-05,-0.00013,-0.00018,-1e-05,-0.00011,-3e-05,-3e-05,5,30
28390,-6e-05,-2e-05,-0.00013,-0.00018,-1e-05,-0.00011,-3e-05,-3e-05,5,30
28391,-6e-05,-2e-05,-0.00013,-0.00018,-1e-05,-0.00011,-3e-05,-3e-05,5,30
28392,-6e-05,-2e-05,-0.00013,-0.00018,-1e-05,-0.00011,-3e-05,-3e-05,5,30
28393,-6e-05,-2e-05,-0.00013,-0.00018,-1e-05,-0.00011,-3e-05,-3e-05,5,30
28394,-6e-05,-2e-05,-0.00013,-0.00018,-1e-05,-0.00011,-3e-05,-3e-05,5,30
28395,-6e-05,-2e-05,-0.00013,-0.00018,-1e-05,-0.00011,-3e-05,-3e-05,5,30
28396,-2e-05,-2e-05,3e-05,0.00023,1e-05,-0.00029,-7e-05,-3e-05,5,30
28397,-2e-05,-2e-05,3e-05,0.00023,1e-05,-0.00029,-7e-05,-3e-05,5,30
28398,-2e-05,-2e-05,3e-05,0.00023,1e-05,-0.00029,-7e-05,-3e-05,5,30
28399,-2e-05,-2e-05,3e-05,0.00023,1e-05,-0.00029,-7e-05,-3e-05,5,30
28400,-2e-05,-2e-05,3e-05,0.00023,1e-05,-0.00029,-7e-05,-3e-05,5,30
28401,-2e-05,-2e-05,3e-05,0.00023,1e-05,-0.00029,-7e-05,-3e-05,5,30
28402,-2e-05,-2e-05,3e-05,0.00023,1e-05,-0.00029,-7e-05,-3e-05,5,30
28403,-2e-05,-2e-05,3e-05,0.00023,1e-05,-0.00029,-7e-05,-3e-05,5,30
28404,-2e-05,-2e-05,3e-05,0.00023,1e-05,-0.00029,-7e-05,-3e-05,5,30
28405,-1e-05,2e-05,2e-05,-8e-05,1e-05,-0.00061,-3e-05,-2e-05,5,30
28406,-1e-05,2e-05,2e-05,-8e-05,1e-05,-0.00061,-3e-05,-2e-05,5,30
28407,-1e-05,2e-05,2e-05,-8e-05,1e-05,-0.00061,-3e-05,-2e-05,5,30
28408,-1e-05,2e-05,2e-05,-8e-05,1e-05,-0.00061,-3e-05,-2e-05,5,30
28409,-1e-05,2e-05,2e-05,-8e-05,1e-05,-0.00061,-3e-05,-2e-05,5,30
28410,-1e-05,2e-05,2e-05,-8e-05,1e-05,-0.00061,-3e-05,-2e-05,5,30
28411,-1e-05,2e-05,2e-05,-8e-05,1e-05,-0.00061,-3e-05,-2e-05,5,30
28412,-1e-05,2e-05,2e-05,-8e-05,1e-05,-0.00061,-3e-05,-2e-05,5,30
28413,-1e-05,2e-05,2e-05,-8e-05,1e-05,-0.00061,-3e-05,-2e-05,5,30
28414,-1e-05,2e-05,2e-05,-8e-05,1e-05,-0.00061,-3e-05,-2e-05,5,30
28415,-1e-05,2e-05,2e-05,-8e-05,1e-05,-0.00061,-3e-05,-2e-05,5,30
28416,-1e-05,2e-05,2e-05,-8e-05,1e-05,-0.00061,-3e-05,-2e-05,5,30
28417,-1e-05,2e-05,2e-05,-8e-05,1e-05,-0.00061,-3e-05,-2e-05,5,30
28418,-1e-05,2e-05,2e-05,-8e-05,1e-05,-0.00061,-3e-05,-2e-05,5,30
28419,-1e-05,2e-05,2e-05,-8e-05,1e-05,-0.00061,-3e-05,-2e-05,5,30
28420,6e-05,3e-05,5e-05,0.00018,0.00029,0.00035,-2e-05,0,5,30
28421,-1e-05,4e-05,6e-05,-3e-05,-0.00028,4e-05,-5e-05,1e-05,5,30
28422,-1e-05,4e-05,6e-05,-3e-05,-0.00028,4e-05,-5e-05,1e-05,5,30
28423,-1e-05,4e-05,6e-05,-3e-05,-0.00028,4e-05,-5e-05,1e-05,5,30
28424,-1e-05,4e-05,6e-05,-3e-05,-0.00028,4e-05,-5e-05,1e-05,5,30
28425,-1e-05,4e-05,6e-05,-3e-05,-0.00028,4e-05,-5e-05,1e-05,5,30
28426,-1e-05,4e-05,6e-05,-3e-05,-0.00028,4e-05,-5e-05,1e-05,5,30
28427,-1e-05,4e-05,6e-05,-3e-05,-0.00028,4e-05,-5e-05,1e-05,5,30
28428,-1e-05,4e-05,6e-05,-3e-05,-0.00028,4e-05,-5e-05,1e-05,5,30
28429,-1e-05,4e-05,6e-05,-3e-05,-0.00028,4e-05,-5e-05,1e-05,5,30
28430,-1e-05,4e-05,6e-05,-3e-05,-0.00028,4e-05,-5e-05,1e-05,5,30
28431,-1e-05,4e-05,6e-05,-3e-05,-0.00028,4e-05,-5e-05,1e-05,5,30
28432,-1e-05,4e-05,6e-05,-3e-05,-0.00028,4e-05,-5e-05,1e-05,5,30
28433,-1e-05,4e-05,6e-05,-3e-05,-0.00028,4e-05,-5e-05,1e-05,5,30
28434,-1e-05,4e-05,6e-05,-3e-05,-0.00028,4e-05,-5e-05,1e-05,5,30
28435,-1e-05,4e-05,6e-05,-3e-05,-0.00028,4e-05,-5e-05,1e-05,5,30
28436,-1e-05,4e-05,6e-05,-3e-05,-0.00028,4e-05,-5e-05,1e-05,5,30
28438,-1e-05,4e-05,6e-05,-3e-05,-0.00028,4e-05,-5e-05,1e-05,5,30
28439,-1e-05,4e-05,6e-05,-3e-05,-0.00028,4e-05,-5e-05,1e-05,5,30
28440,-1e-05,4e-05,6e-05,-3e-05,-0.00028,4e-05,-5e-05,1e-05,5,30
28441,-1e-05,4e-05,6e-05,-3e-05,-0.00028,4e-05,-5e-05,1e-05,5,30
28442,0,1e-05,-7e-05,0.00016,-0.0002,-1e-05,1e-05,-3e-05,5,30
28443,0,1e-05,-7e-05,0.00016,-0.0002,-1e-05,1e-05,-3e-05,5,30
28444,-1e-05,3e-05,8e-05,0,0.00012,0.00039,-3e-05,1e-05,5,30
28445,-1e-05,3e-05,8e-05,0,0.00012,0.00039,-3e-05,1e-05,5,30
28446,-1e-05,3e-05,8e-05,0,0.00012,0.00039,-3e-05,1e-05,5,30
28447,-1e-05,3e-05,8e-05,0,0.00012,0.00039,-3e-05,1e-05,5,30
28448,-1e-05,3e-05,8e-05,0,0.00012,0.00039,-3e-05,1e-05,5,30
28449,-1e-05,3e-05,8e-05,0,0.00012,0.00039,-3e-05,1e-05,5,30
28450,-1e-05,3e-05,8e-05,0,0.00012,0.00039,-3e-05,1e-05,5,30
28451,-1e-05,3e-05,8e-05,0,0.00012,0.00039,-3e-05,1e-05,5,30
28452,-1e-05,3e-05,8e-05,0,0.00012,0.00039,-3e-05,1e-05,5,30
28453,-1e-05,3e-05,8e-05,0,0.00012,0.00039,-3e-05,1e-05,5,30
28454,-1e-05,3e-05,8e-05,0,0.00012,0.00039,-3e-05,1e-05,5,30
28455,-1e-05,3e-05,8e-05,0,0.00012,0.00039,-3e-05,1e-05,5,30
28456,-2e-05,-4e-05,8e-05,0.00045,0.00019,0.00052,2e-05,1e-05,5,30
28457,-2e-05,-4e-05,8e-05,0.00045,0.00019,0.00052,2e-05,1e-05,5,30
28458,-2e-05,-4e-05,8e-05,0.00045,0.00019,0.00052,2e-05,1e-05,5,30
28459,-2e-05,-4e-05,8e-05,0.00045,0.00019,0.00052,2e-05,1e-05,5,30
28460,-2e-05,-4e-05,8e-05,0.00045,0.00019,0.00052,2e-05,1e-05,5,30
28461,-2e-05,-4e-05,8e-05,0.00045,0.00019,0.00052,2e-05,1e-05,5,30
28462,-2e-05,-4e-05,8e-05,0.00045,0.00019,0.00052,2e-05,1e-05,5,30
28463,-2e-05,-4e-05,8e-05,0.00045,0.00019,0.00052,2e-05,1e-05,5,30
28464,-2e-05,-4e-05,8e-05,0.00045,0.00019,0.00052,2e-05,1e-05,5,30
28465,0,-5e-05,-0.00011,-5e-05,-0.00038,0.00012,0,-1e-05,5,30
28466,0,-5e-05,-0.00011,-5e-05,-0.00038,0.00012,0,-1e-05,5,30
28467,0,-5e-05,-0.00011,-5e-05,-0.00038,0.00012,0,-1e-05,5,30
28468,0,-5e-05,-0.00011,-5e-05,-0.00038,0.00012,0,-1e-05,5,30
28469,0,-5e-05,-0.00011,-5e-05,-0.00038,0.00012,0,-1e-05,5,30
28470,0,-5e-05,-0.00011,-5e-05,-0.00038,0.00012,0,-1e-05,5,30
28471,0,-5e-05,-0.00011,-5e-05,-0.00038,0.00012,0,-1e-05,5,30
28472,0,-5e-05,-0.00011,-5e-05,-0.00038,0.00012,0,-1e-05,5,30
28473,0,-5e-05,-0.00011,-5e-05,-0.00038,0.00012,0,-1e-05,5,30
28474,0,-5e-05,-0.00011,-5e-05,-0.00038,0.00012,0,-1e-05,5,30
28475,0,-5e-05,-0.00011,-5e-05,-0.00038,0.00012,0,-1e-05,5,30
28476,0,-5e-05,-0.00011,-5e-05,-0.00038,0.00012,0,-1e-05,5,30
28477,0,-5e-05,-0.00011,-5e-05,-0.00038,0.00012,0,-1e-05,5,30
28478,0,-5e-05,-0.00011,-5e-05,-0.00038,0.00012,0,-1e-05,5,30
28479,0,-5e-05,-0.00011,-5e-05,-0.00038,0.00012,0,-1e-05,5,30
28480,-2e-05,0,4e-05,0.00019,0.00014,-0.00017,2e-05,-3e-05,5,30
28481,-2e-05,-0.00011,-2e-05,6e-05,-0.00038,-0.00067,0.00013,-1e-05,5,30
28482,-2e-05,-0.00011,-2e-05,6e-05,-0.00038,-0.00067,0.00013,-1e-05,5,30
28483,-2e-05,-0.00011,-2e-05,6e-05,-0.00038,-0.00067,0.00013,-1e-05,5,30
28484,-2e-05,-0.00011,-2e-05,6e-05,-0.00038,-0.00067,0.00013,-1e-05,5,30
28485,-2e-05,-0.00011,-2e-05,6e-05,-0.00038,-0.00067,0.00013,-1e-05,5,30
28486,-2e-05,-0.00011,-2e-05,6e-05,-0.00038,-0.00067,0.00013,-1e-05,5,30
28488,-2e-05,-0.00011,-2e-05,6e-05,-0.00038,-0.00067,0.00013,-1e-05,5,30
28489,-2e-05,-0.00011,-2e-05,6e-05,-0.00038,-0.00067,0.00013,-1e-05,5,30
28490,-2e-05,-0.00011,-2e-05,6e-05,-0.00038,-0.00067,0.00013,-1e-05,5,30
28491,-2e-05,-0.00011,-2e-05,6e-05,-0.00038,-0.00067,0.00013,-1e-05,5,30
28492,-2e-05,-0.00011,-2e-05,6e-05,-0.00038,-0.00067,0.00013,-1e-05,5,30
28493,-2e-05,-0.00011,-2e-05,6e-05,-0.00038,-0.00067,0.00013,-1e-05,5,30
28494,-2e-05,-0.00011,-2e-05,6e-05,-0.00038,-0.00067,0.00013,-1e-05,5,30
28495,-2e-05,-0.00011,-2e-05,6e-05,-0.00038,-0.00067,0.00013,-1e-05,5,30
28496,-2e-05,-0.00011,-2e-05,6e-05,-0.00038,-0.00067,0.00013,-1e-05,5,30
28497,-2e-05,-0.00011,-2e-05,6e-05,-0.00038,-0.00067,0.00013,-1e-05,5,30
28498,-2e-05,-0.00011,-2e-05,6e-05,-0.00038,-0.00067,0.00013,-1e-05,5,30
28499,-2e-05,-0.00011,-2e-05,6e-05,-0.00038,-0.00067,0.00013,-1e-05,5,30
28500,-2e-05,-0.00011,-2e-05,6e-05,-0.00038,-0.00067,0.00013,-1e-05,5,30
28501,-2e-05,-0.00011,-2e-05,6e-05,-0.00038,-0.00067,0.00013,-1e-05,5,30
28502,-1e-05,-3e-05,-6e-05,-0.00018,-9e-05,-0.0003,-5e-05,-2e-05,5,30
28503,-1e-05,-3e-05,-6e-05,-0.00018,-9e-05,-0.0003,-5e-05,-2e-05,5,30
28504,5e-05,0,1e-05,-8e-05,0.0001,5e-05,0,0,5,30
28505,5e-05,0,1e-05,-8e-05,0.0001,5e-05,0,0,5,30
28506,5e-05,0,1e-05,-8e-05,0.0001,5e-05,0,0,5,30
28507,5e-05,0,1e-05,-8e-05,0.0001,5e-05,0,0,5,30
28508,5e-05,0,1e-05,-8e-05,0.0001,5e-05,0,0,5,30
28509,5e-05,0,1e-05,-8e-05,0.0001,5e-05,0,0,5,30
28510,5e-05,0,1e-05,-8e-05,0.0001,5e-05,0,0,5,30
28511,5e-05,0,1e-05,-8e-05,0.0001,5e-05,0,0,5,30
28512,5e-05,0,1e-05,-8e-05,0.0001,5e-05,0,0,5,30
28513,5e-05,0,1e-05,-8e-05,0.0001,5e-05,0,0,5,30
28514,5e-05,0,1e-05,-8e-05,0.0001,5e-05,0,0,5,30
28515,5e-05,0,1e-05,-8e-05,0.0001,5e-05,0,0,5,30
28516,5e-05,0,1e-05,-8e-05,0.0001,5e-05,0,0,5,30
28517,5e-05,0,1e-05,-8e-05,0.0001,5e-05,0,0,5,30
28518,5e-05,0,1e-05,-8e-05,0.0001,5e-05,0,0,5,30
28519,5e-05,0,1e-05,-8e-05,0.0001,5e-05,0,0,5,30
28520,5e-05,0,1e-05,-8e-05,0.0001,5e-05,0,0,5,30
28521,5e-05,0,1e-05,-8e-05,0.0001,5e-05,0,0,5,30
28522,5e-05,0,1e-05,-8e-05,0.0001,5e-05,0,0,5,30
28523,5e-05,0,1e-05,-8e-05,0.0001,5e-05,0,0,5,30
28524,5e-05,0,1e-05,-8e-05,0.0001,5e-05,0,0,5,30
28525,-1e-05,-6e-05,0,2e-05,-0.00032,-0.00028,0,-1e-05,5,30
28526,-2e-05,-1e-05,4e-05,-9e-05,-6e-05,7e-05,0.0001,0,5,30
28527,0,2e-05,3e-05,-0.00021,0.00016,-0.00062,7e-05,-2e-05,5,30
28528,0,2e-05,3e-05,-0.00021,0.00016,-0.00062,7e-05,-2e-05,5,30
28529,0,2e-05,3e-05,-0.00021,0.00016,-0.00062,7e-05,-2e-05,5,30
28530,0,2e-05,3e-05,-0.00021,0.00016,-0.00062,7e-05,-2e-05,5,30
28531,0,2e-05,3e-05,-0.00021,0.00016,-0.00062,7e-05,-2e-05,5,30
28532,0,2e-05,3e-05,-0.00021,0.00016,-0.00062,7e-05,-2e-05,5,30
28533,0,2e-05,3e-05,-0.00021,0.00016,-0.00062,7e-05,-2e-05,5,30
64489,-2e-05,-2e-05,-0.00018,-0.00088,-0.00041,-0.0011,0.0001,-3e-05,5,30
64490,-2e-05,-2e-05,-0.00018,-0.00088,-0.00041,-0.0011,0.0001,-3e-05,5,30
64491,-2e-05,-2e-05,-0.00018,-0.00088,-0.00041,-0.0011,0.0001,-3e-05,5,30
64492,-2e-05,-2e-05,-0.00018,-0.00088,-0.00041,-0.0011,0.0001,-3e-05,5,30
64493,-2e-05,-2e-05,-0.00018,-0.00088,-0.00041,-0.0011,0.0001,-3e-05,5,30
64494,-2e-05,-2e-05,-0.00018,-0.00088,-0.00041,-0.0011,0.0001,-3e-05,5,30
64495,-3e-05,3e-05,0.00016,0.00079,0.00054,-0.00014,3e-05,2e-05,5,30
64496,8e-05,-2e-05,-9e-05,-0.00026,1e-05,-8e-05,9e-05,3e-05,5,30
64497,-1e-05,3e-05,-8e-05,-0.0004,-8e-05,0.00043,-5e-05,1e-05,5,30
64498,-1e-05,3e-05,-8e-05,-0.0004,-8e-05,0.00043,-5e-05,1e-05,5,30
64499,-1e-05,3e-05,-8e-05,-0.0004,-8e-05,0.00043,-5e-05,1e-05,5,30
64500,-1e-05,3e-05,-8e-05,-0.0004,-8e-05,0.00043,-5e-05,1e-05,5,30
64501,-1e-05,3e-05,-8e-05,-0.0004,-8e-05,0.00043,-5e-05,1e-05,5,30
64502,-1e-05,3e-05,-8e-05,-0.0004,-8e-05,0.00043,-5e-05,1e-05,5,30
64503,-1e-05,3e-05,-8e-05,-0.0004,-8e-05,0.00043,-5e-05,1e-05,5,30
64504,-1e-05,3e-05,-8e-05,-0.0004,-8e-05,0.00043,-5e-05,1e-05,5,30
64505,-1e-05,3e-05,-8e-05,-0.0004,-8e-05,0.00043,-5e-05,1e-05,5,30
64506,-1e-05,3e-05,-8e-05,-0.0004,-8e-05,0.00043,-5e-05,1e-05,5,30
64507,-1e-05,3e-05,-8e-05,-0.0004,-8e-05,0.00043,-5e-05,1e-05,5,30
64508,-1e-05,3e-05,-8e-05,-0.0004,-8e-05,0.00043,-5e-05,1e-05,5,30
64509,-1e-05,3e-05,-8e-05,-0.0004,-8e-05,0.00043,-5e-05,1e-05,5,30
64510,-1e-05,3e-05,-8e-05,-0.0004,-8e-05,0.00043,-5e-05,1e-05,5,30
64511,-1e-05,3e-05,-8e-05,-0.0004,-8e-05,0.00043,-5e-05,1e-05,5,30
64512,-1e-05,3e-05,-8e-05,-0.0004,-8e-05,0.00043,-5e-05,1e-05,5,30
64513,-1e-05,3e-05,-8e-05,-0.0004,-8e-05,0.00043,-5e-05,1e-05,5,30
64514,-1e-05,3e-05,-8e-05,-0.0004,-8e-05,0.00043,-5e-05,1e-05,5,30
