17052,-4e-05,-8e-05,0.00031,0.00113,0.00014,0.00013,-7e-05,-2e-05,5,31
17053,-4e-05,-8e-05,0.00031,0.00113,0.00014,0.00013,-7e-05,-2e-05,5,31
17054,-4e-05,-8e-05,0.00031,0.00113,0.00014,0.00013,-7e-05,-2e-05,5,31
17055,-4e-05,-8e-05,0.00031,0.00113,0.00014,0.00013,-7e-05,-2e-05,5,31
17056,-4e-05,-8e-05,0.00031,0.00113,0.00014,0.00013,-7e-05,-2e-05,5,31
17057,-4e-05,-8e-05,0.00031,0.00113,0.00014,0.00013,-7e-05,-2e-05,5,31
17058,-4e-05,-8e-05,0.00031,0.00113,0.00014,0.00013,-7e-05,-2e-05,5,31
17059,-4e-05,-8e-05,0.00031,0.00113,0.00014,0.00013,-7e-05,-2e-05,5,31
17060,0.00024,0.00024,0.00023,0.00067,0.00054,-0.00036,5e-05,8e-05,5,31
17061,0.00024,0.00024,0.00023,0.00067,0.00054,-0.00036,5e-05,8e-05,5,31
17062,0.00024,0.00024,0.00023,0.00067,0.00054,-0.00036,5e-05,8e-05,5,31
17063,0.00024,0.00024,0.00023,0.00067,0.00054,-0.00036,5e-05,8e-05,5,31
17064,0.00024,0.00024,0.00023,0.00067,0.00054,-0.00036,5e-05,8e-05,5,31
17065,0.00024,0.00024,0.00023,0.00067,0.00054,-0.00036,5e-05,8e-05,5,31
17066,0.00024,0.00024,0.00023,0.00067,0.00054,-0.00036,5e-05,8e-05,5,31
17067,0.00024,0.00024,0.00023,0.00067,0.00054,-0.00036,5e-05,8e-05,5,31
17068,0.00024,0.00024,0.00023,0.00067,0.00054,-0.00036,5e-05,8e-05,5,31
17069,0.00024,0.00024,0.00023,0.00067,0.00054,-0.00036,5e-05,8e-05,5,31
17070,0.00024,0.00024,0.00023,0.00067,0.00054,-0.00036,5e-05,8e-05,5,31
17071,0.00024,0.00024,0.00023,0.00067,0.00054,-0.00036,5e-05,8e-05,5,31
17072,0.00024,0.00024,0.00023,0.00067,0.00054,-0.00036,5e-05,8e-05,5,31
17073,0.00024,0.00024,0.00023,0.00067,0.00054,-0.00036,5e-05,8e-05,5,31
17074,0.00024,0.00024,0.00023,0.00067,0.00054,-0.00036,5e-05,8e-05,5,31
17075,0.00087,0.00056,0.00029,0.0001,0.00047,0.0001,7e-05,0.00019,5,31
17076,0.00087,0.00056,0.00029,0.0001,0.00047,0.0001,7e-05,0.00019,5,31
17077,0.0001,5e-05,0.00019,-0.00019,-0.00089,4e-05,-3e-05,3e-05,5,31
17078,0.0001,5e-05,0.00019,-0.00019,-0.00089,4e-05,-3e-05,3e-05,5,31
17079,0.0001,5e-05,0.00019,-0.00019,-0.00089,4e-05,-3e-05,3e-05,5,31
17080,0.0001,5e-05,0.00019,-0.00019,-0.00089,4e-05,-3e-05,3e-05,5,31
17081,0.0001,5e-05,0.00019,-0.00019,-0.00089,4e-05,-3e-05,3e-05,5,31
17082,0.0001,5e-05,0.00019,-0.00019,-0.00089,4e-05,-3e-05,3e-05,5,31
17083,0.0001,5e-05,0.00019,-0.00019,-0.00089,4e-05,-3e-05,3e-05,5,31
17084,0.0001,5e-05,0.00019,-0.00019,-0.00089,4e-05,-3e-05,3e-05,5,31
17085,0.0001,5e-05,0.00019,-0.00019,-0.00089,4e-05,-3e-05,3e-05,5,31
17087,0.0001,5e-05,0.00019,-0.00019,-0.00089,4e-05,-3e-05,3e-05,5,31
17089,0.0001,5e-05,0.00019,-0.00019,-0.00089,4e-05,-3e-05,3e-05,5,31
17091,0.0001,5e-05,0.00019,-0.00019,-0.00089,4e-05,-3e-05,3e-05,5,31
17092,0.0001,5e-05,0.00019,-0.00019,-0.00089,4e-05,-3e-05,3e-05,5,31
17093,0.0001,5e-05,0.00019,-0.00019,-0.00089,4e-05,-3e-05,3e-05,5,31
17094,0.0001,5e-05,0.00019,-0.00019,-0.00089,4e-05,-3e-05,3e-05,5,31
17095,0.0001,5e-05,0.00019,-0.00019,-0.00089,4e-05,-3e-05,3e-05,5,31
17096,0.0001,5e-05,0.00019,-0.00019,-0.00089,4e-05,-3e-05,3e-05,5,31
17097,-0.00024,-1e-05,0.00035,0.0004,0.00019,0.00017,2e-05,-5e-05,5,31
17098,-0.00021,-0.00027,-0.00021,-0.00038,-0.00074,-0.00021,-9e-05,-7e-05,5,31
17099,3e-05,0.00024,-5e-05,-0.00088,-0.0005,0.00017,3e-05,0.00013,5,31
17100,3e-05,0.00024,-5e-05,-0.00088,-0.0005,0.00017,3e-05,0.00013,5,31
17101,3e-05,0.00024,-5e-05,-0.00088,-0.0005,0.00017,3e-05,0.00013,5,31
17102,3e-05,0.00024,-5e-05,-0.00088,-0.0005,0.00017,3e-05,0.00013,5,31
17103,3e-05,0.00024,-5e-05,-0.00088,-0.0005,0.00017,3e-05,0.00013,5,31
17104,3e-05,0.00024,-5e-05,-0.00088,-0.0005,0.00017,3e-05,0.00013,5,31
17105,3e-05,0.00024,-5e-05,-0.00088,-0.0005,0.00017,3e-05,0.00013,5,31
17106,3e-05,0.00024,-5e-05,-0.00088,-0.0005,0.00017,3e-05,0.00013,5,31
17107,3e-05,0.00024,-5e-05,-0.00088,-0.0005,0.00017,3e-05,0.00013,5,31
17108,3e-05,0.00024,-5e-05,-0.00088,-0.0005,0.00017,3e-05,0.00013,5,31
17109,3e-05,0.00024,-5e-05,-0.00088,-0.0005,0.00017,3e-05,0.00013,5,31
17110,3e-05,0.00024,-5e-05,-0.00088,-0.0005,0.00017,3e-05,0.00013,5,31
17111,0.00015,0.00016,0.00019,-9e-05,0.00081,-0.00018,6e-05,3e-05,5,31
17112,-0.00036,-0.0005,-0.00047,-0.00044,3e-05,8e-05,-0.0001,-0.00014,5,31
17113,-0.00036,-0.0005,-0.00047,-0.00044,3e-05,8e-05,-0.0001,-0.00014,5,31
17114,-0.00036,-0.0005,-0.00047,-0.00044,3e-05,8e-05,-0.0001,-0.00014,5,31
17115,-0.00036,-0.0005,-0.00047,-0.00044,3e-05,8e-05,-0.0001,-0.00014,5,31
17116,-0.00036,-0.0005,-0.00047,-0.00044,3e-05,8e-05,-0.0001,-0.00014,5,31
17117,-0.00036,-0.0005,-0.00047,-0.00044,3e-05,8e-05,-0.0001,-0.00014,5,31
17118,-0.00036,-0.0005,-0.00047,-0.00044,3e-05,8e-05,-0.0001,-0.00014,5,31
17119,-0.00036,-0.0005,-0.00047,-0.00044,3e-05,8e-05,-0.0001,-0.00014,5,31
17120,0,0.00018,0.00029,0.00085,0.00043,0.00017,0.00017,0.0001,5,31
17121,0.00034,0.00045,0.00012,0.00023,0.00054,0.00026,-8e-05,1e-05,5,31
17122,0.00034,0.00045,0.00012,0.00023,0.00054,0.00026,-8e-05,1e-05,5,31
17123,0.00034,0.00045,0.00012,0.00023,0.00054,0.00026,-8e-05,1e-05,5,31
17124,0.00034,0.00045,0.00012,0.00023,0.00054,0.00026,-8e-05,1e-05,5,31
17125,0.00034,0.00045,0.00012,0.00023,0.00054,0.00026,-8e-05,1e-05,5,31
17126,0.00034,0.00045,0.00012,0.00023,0.00054,0.00026,-8e-05,1e-05,5,31
17127,0.00034,0.00045,0.00012,0.00023,0.00054,0.00026,-8e-05,1e-05,5,31
17128,0.00034,0.00045,0.00012,0.00023,0.00054,0.00026,-8e-05,1e-05,5,31
17129,0.00034,0.00045,0.00012,0.00023,0.00054,0.00026,-8e-05,1e-05,5,31
17130,0.00034,0.00045,0.00012,0.00023,0.00054,0.00026,-8e-05,1e-05,5,31
17131,0.00034,0.00045,0.00012,0.00023,0.00054,0.00026,-8e-05,1e-05,5,31
17132,0.00034,0.00045,0.00012,0.00023,0.00054,0.00026,-8e-05,1e-05,5,31
17133,0.00034,0.00045,0.00012,0.00023,0.00054,0.00026,-8e-05,1e-05,5,31
17134,0.00034,0.00045,0.00012,0.00023,0.00054,0.00026,-8e-05,1e-05,5,31
17135,-0.00044,-0.00036,2e-05,0.00036,0.00012,0.00018,8e-05,-7e-05,5,31
17136,-0.00015,-0.00023,-2e-05,-0.00086,-0.00061,-0.00038,-0.00026,-0.00014,5,31
17140,-0.00015,-0.00023,-2e-05,-0.00086,-0.00061,-0.00038,-0.00026,-0.00014,5,31
17141,-0.00015,-0.00023,-2e-05,-0.00086,-0.00061,-0.00038,-0.00026,-0.00014,5,31
17142,-0.00015,-0.00023,-2e-05,-0.00086,-0.00061,-0.00038,-0.00026,-0.00014,5,31
17143,-0.00015,-0.00023,-2e-05,-0.00086,-0.00061,-0.00038,-0.00026,-0.00014,5,31
17144,-0.00015,-0.00023,-2e-05,-0.00086,-0.00061,-0.00038,-0.00026,-0.00014,5,31
17145,-0.00015,-0.00023,-2e-05,-0.00086,-0.00061,-0.00038,-0.00026,-0.00014,5,31
17146,-0.00015,-0.00023,-2e-05,-0.00086,-0.00061,-0.00038,-0.00026,-0.00014,5,31
17147,-0.00015,-0.00023,-2e-05,-0.00086,-0.00061,-0.00038,-0.00026,-0.00014,5,31
17148,-0.00015,-0.00023,-2e-05,-0.00086,-0.00061,-0.00038,-0.00026,-0.00014,5,31
17149,-0.00015,-0.00023,-2e-05,-0.00086,-0.00061,-0.00038,-0.00026,-0.00014,5,31
17150,-0.00015,-0.00023,-2e-05,-0.00086,-0.00061,-0.00038,-0.00026,-0.00014,5,31
17151,-0.00015,-0.00023,-2e-05,-0.00086,-0.00061,-0.00038,-0.00026,-0.00014,5,31
17152,-0.00015,-0.00023,-2e-05,-0.00086,-0.00061,-0.00038,-0.00026,-0.00014,5,31
17153,-0.00015,-0.00023,-2e-05,-0.00086,-0.00061,-0.00038,-0.00026,-0.00014,5,31
17154,-0.00015,-0.00023,-2e-05,-0.00086,-0.00061,-0.00038,-0.00026,-0.00014,5,31
17155,-0.00015,-0.00023,-2e-05,-0.00086,-0.00061,-0.00038,-0.00026,-0.00014,5,31
17156,-0.00015,-0.00023,-2e-05,-0.00086,-0.00061,-0.00038,-0.00026,-0.00014,5,31
17157,-0.00015,-0.00023,-2e-05,-0.00086,-0.00061,-0.00038,-0.00026,-0.00014,5,31
17158,-0.0005,-0.00021,-1e-05,-0.00044,-0.00063,5e-05,5e-05,-3e-05,5,31
17159,1e-05,0.00011,-0.0001,0.00037,-0.00032,-0.0001,-0.00011,-9e-05,5,31
17160,1e-05,0.00011,-0.0001,0.00037,-0.00032,-0.0001,-0.00011,-9e-05,5,31
17161,1e-05,0.00011,-0.0001,0.00037,-0.00032,-0.0001,-0.00011,-9e-05,5,31
17162,1e-05,0.00011,-0.0001,0.00037,-0.00032,-0.0001,-0.00011,-9e-05,5,31
17163,1e-05,0.00011,-0.0001,0.00037,-0.00032,-0.0001,-0.00011,-9e-05,5,31
17164,1e-05,0.00011,-0.0001,0.00037,-0.00032,-0.0001,-0.00011,-9e-05,5,31
17165,1e-05,0.00011,-0.0001,0.00037,-0.00032,-0.0001,-0.00011,-9e-05,5,31
17166,1e-05,0.00011,-0.0001,0.00037,-0.00032,-0.0001,-0.00011,-9e-05,5,31
17167,1e-05,0.00011,-0.0001,0.00037,-0.00032,-0.0001,-0.00011,-9e-05,5,31
17168,1e-05,0.00011,-0.0001,0.00037,-0.00032,-0.0001,-0.00011,-9e-05,5,31
17169,1e-05,0.00011,-0.0001,0.00037,-0.00032,-0.0001,-0.00011,-9e-05,5,31
17170,1e-05,0.00011,-0.0001,0.00037,-0.00032,-0.0001,-0.00011,-9e-05,5,31
17171,-6e-05,-5e-05,-0.00022,-0.00111,-0.0011,-0.0005,-0.00015,-9e-05,5,31
17172,-0.00035,2e-05,-0.00018,0.00015,0.00021,-4e-05,-0.00012,-2e-05,5,31
17173,-0.00035,2e-05,-0.00018,0.00015,0.00021,-4e-05,-0.00012,-2e-05,5,31
17174,-0.00035,2e-05,-0.00018,0.00015,0.00021,-4e-05,-0.00012,-2e-05,5,31
17175,-0.00035,2e-05,-0.00018,0.00015,0.00021,-4e-05,-0.00012,-2e-05,5,31
17176,-0.00035,2e-05,-0.00018,0.00015,0.00021,-4e-05,-0.00012,-2e-05,5,31
17177,-0.00035,2e-05,-0.00018,0.00015,0.00021,-4e-05,-0.00012,-2e-05,5,31
17178,-0.00035,2e-05,-0.00018,0.00015,0.00021,-4e-05,-0.00012,-2e-05,5,31
17179,-0.00035,2e-05,-0.00018,0.00015,0.00021,-4e-05,-0.00012,-2e-05,5,31
17180,-3e-05,-7e-05,-0.00019,0.00031,8e-05,-0.00021,0.00011,4e-05,5,31
17181,-3e-05,-7e-05,-0.00019,0.00031,8e-05,-0.00021,0.00011,4e-05,5,31
17182,-3e-05,-7e-05,-0.00019,0.00031,8e-05,-0.00021,0.00011,4e-05,5,31
17183,-3e-05,-7e-05,-0.00019,0.00031,8e-05,-0.00021,0.00011,4e-05,5,31
17184,-3e-05,-7e-05,-0.00019,0.00031,8e-05,-0.00021,0.00011,4e-05,5,31
17185,-3e-05,-7e-05,-0.00019,0.00031,8e-05,-0.00021,0.00011,4e-05,5,31
17186,-3e-05,-7e-05,-0.00019,0.00031,8e-05,-0.00021,0.00011,4e-05,5,31
17189,-3e-05,-7e-05,-0.00019,0.00031,8e-05,-0.00021,0.00011,4e-05,5,31
17190,-3e-05,-7e-05,-0.00019,0.00031,8e-05,-0.00021,0.00011,4e-05,5,31
17191,-3e-05,-7e-05,-0.00019,0.00031,8e-05,-0.00021,0.00011,4e-05,5,31
17192,-3e-05,-7e-05,-0.00019,0.00031,8e-05,-0.00021,0.00011,4e-05,5,31
17193,-3e-05,-7e-05,-0.00019,0.00031,8e-05,-0.00021,0.00011,4e-05,5,31
17194,-3e-05,-7e-05,-0.00019,0.00031,8e-05,-0.00021,0.00011,4e-05,5,31
17195,0.00027,0.00021,0.00025,0.0008,0.00013,0.00023,-0.00016,-2e-05,5,31
17196,0.00027,0.00021,0.00025,0.0008,0.00013,0.00023,-0.00016,-2e-05,5,31
17197,-0.00026,5e-05,2e-05,-0.00043,0.00059,-4e-05,9e-05,1e-05,5,31
17198,-0.00026,5e-05,2e-05,-0.00043,0.00059,-4e-05,9e-05,1e-05,5,31
17199,-0.00026,5e-05,2e-05,-0.00043,0.00059,-4e-05,9e-05,1e-05,5,31
17200,-0.00026,5e-05,2e-05,-0.00043,0.00059,-4e-05,9e-05,1e-05,5,31
17201,-0.00026,5e-05,2e-05,-0.00043,0.00059,-4e-05,9e-05,1e-05,5,31
17202,-0.00026,5e-05,2e-05,-0.00043,0.00059,-4e-05,9e-05,1e-05,5,31
17203,-0.00026,5e-05,2e-05,-0.00043,0.00059,-4e-05,9e-05,1e-05,5,31
17204,-0.00026,5e-05,2e-05,-0.00043,0.00059,-4e-05,9e-05,1e-05,5,31
17205,-0.00026,5e-05,2e-05,-0.00043,0.00059,-4e-05,9e-05,1e-05,5,31
17206,-0.00026,5e-05,2e-05,-0.00043,0.00059,-4e-05,9e-05,1e-05,5,31
17207,-0.00026,5e-05,2e-05,-0.00043,0.00059,-4e-05,9e-05,1e-05,5,31
17208,-0.00026,5e-05,2e-05,-0.00043,0.00059,-4e-05,9e-05,1e-05,5,31
17209,-0.00026,5e-05,2e-05,-0.00043,0.00059,-4e-05,9e-05,1e-05,5,31
17210,-0.00026,5e-05,2e-05,-0.00043,0.00059,-4e-05,9e-05,1e-05,5,31
17211,-0.00026,5e-05,2e-05,-0.00043,0.00059,-4e-05,9e-05,1e-05,5,31
17212,-0.00026,5e-05,2e-05,-0.00043,0.00059,-4e-05,9e-05,1e-05,5,31
17213,-0.00026,5e-05,2e-05,-0.00043,0.00059,-4e-05,9e-05,1e-05,5,31
17214,-0.00026,5e-05,2e-05,-0.00043,0.00059,-4e-05,9e-05,1e-05,5,31
17215,-0.00026,5e-05,2e-05,-0.00043,0.00059,-4e-05,9e-05,1e-05,5,31
17216,-0.00026,5e-05,2e-05,-0.00043,0.00059,-4e-05,9e-05,1e-05,5,31
17217,-0.00026,5e-05,2e-05,-0.00043,0.00059,-4e-05,9e-05,1e-05,5,31
17218,9e-05,-0.00012,-1e-05,0.00031,0.00015,-0.00012,-7e-05,-5e-05,5,31
17219,0.00016,5e-05,-0.0001,-0.00063,-0.00063,3e-05,-0.00012,-0.00012,5,31
17220,0.00016,5e-05,-0.0001,-0.00063,-0.00063,3e-05,-0.00012,-0.00012,5,31
17221,0.00016,5e-05,-0.0001,-0.00063,-0.00063,3e-05,-0.00012,-0.00012,5,31
17222,0.00016,5e-05,-0.0001,-0.00063,-0.00063,3e-05,-0.00012,-0.00012,5,31
17223,0.00016,5e-05,-0.0001,-0.00063,-0.00063,3e-05,-0.00012,-0.00012,5,31
17225,0.00016,5e-05,-0.0001,-0.00063,-0.00063,3e-05,-0.00012,-0.00012,5,31
17226,0.00016,5e-05,-0.0001,-0.00063,-0.00063,3e-05,-0.00012,-0.00012,5,31
17227,0.00016,5e-05,-0.0001,-0.00063,-0.00063,3e-05,-0.00012,-0.00012,5,31
17228,0.00016,5e-05,-0.0001,-0.00063,-0.00063,3e-05,-0.00012,-0.00012,5,31
17229,0.00016,5e-05,-0.0001,-0.00063,-0.00063,3e-05,-0.00012,-0.00012,5,31
17230,0.00016,5e-05,-0.0001,-0.00063,-0.00063,3e-05,-0.00012,-0.00012,5,31
17231,0.00016,5e-05,-0.0001,-0.00063,-0.00063,3e-05,-0.00012,-0.00012,5,31
17232,0.00028,0.00035,0.00032,0.00076,0.00105,0.00018,0.00021,0.00012,5,31
17233,0.00028,0.00035,0.00032,0.00076,0.00105,0.00018,0.00021,0.00012,5,31
17234,0.00028,0.00035,0.00032,0.00076,0.00105,0.00018,0.00021,0.00012,5,31
17235,0.00028,0.00035,0.00032,0.00076,0.00105,0.00018,0.00021,0.00012,5,31
17236,0.00028,0.00035,0.00032,0.00076,0.00105,0.00018,0.00021,0.00012,5,31
17240,-5e-05,-0.00013,-0.00014,-8e-05,-0.00051,-0.00033,-0.00013,-5e-05,5,31
17241,-5e-05,-0.00013,-0.00014,-8e-05,-0.00051,-0.00033,-0.00013,-5e-05,5,31
17242,-5e-05,-0.00013,-0.00014,-8e-05,-0.00051,-0.00033,-0.00013,-5e-05,5,31
17243,-5e-05,-0.00013,-0.00014,-8e-05,-0.00051,-0.00033,-0.00013,-5e-05,5,31
17244,-5e-05,-0.00013,-0.00014,-8e-05,-0.00051,-0.00033,-0.00013,-5e-05,5,31
17245,-5e-05,-0.00013,-0.00014,-8e-05,-0.00051,-0.00033,-0.00013,-5e-05,5,31
17246,-5e-05,-0.00013,-0.00014,-8e-05,-0.00051,-0.00033,-0.00013,-5e-05,5,31
17247,-5e-05,-0.00013,-0.00014,-8e-05,-0.00051,-0.00033,-0.00013,-5e-05,5,31
17248,-5e-05,-0.00013,-0.00014,-8e-05,-0.00051,-0.00033,-0.00013,-5e-05,5,31
17249,-5e-05,-0.00013,-0.00014,-8e-05,-0.00051,-0.00033,-0.00013,-5e-05,5,31
17250,-5e-05,-0.00013,-0.00014,-8e-05,-0.00051,-0.00033,-0.00013,-5e-05,5,31
17251,-5e-05,-0.00013,-0.00014,-8e-05,-0.00051,-0.00033,-0.00013,-5e-05,5,31
17252,-5e-05,-0.00013,-0.00014,-8e-05,-0.00051,-0.00033,-0.00013,-5e-05,5,31
17253,-5e-05,-0.00013,-0.00014,-8e-05,-0.00051,-0.00033,-0.00013,-5e-05,5,31
17254,-5e-05,-0.00013,-0.00014,-8e-05,-0.00051,-0.00033,-0.00013,-5e-05,5,31
17255,-5e-05,-8e-05,-0.00011,0.0002,-0.00032,-0.00036,-0.00019,-0.00014,5,31
17256,9e-05,0.00032,0.00015,-0.00046,4e-05,0.0002,3e-05,-1e-05,5,31
17257,-0.00014,-0.00013,-8e-05,-0.00067,-0.00079,0.0001,1e-05,3e-05,5,31
17258,-0.00014,-0.00013,-8e-05,-0.00067,-0.00079,0.0001,1e-05,3e-05,5,31
17259,-0.00014,-0.00013,-8e-05,-0.00067,-0.00079,0.0001,1e-05,3e-05,5,31
17260,-0.00014,-0.00013,-8e-05,-0.00067,-0.00079,0.0001,1e-05,3e-05,5,31
17261,-0.00014,-0.00013,-8e-05,-0.00067,-0.00079,0.0001,1e-05,3e-05,5,31
17262,-0.00014,-0.00013,-8e-05,-0.00067,-0.00079,0.0001,1e-05,3e-05,5,31
17263,-0.00014,-0.00013,-8e-05,-0.00067,-0.00079,0.0001,1e-05,3e-05,5,31
17264,-0.00014,-0.00013,-8e-05,-0.00067,-0.00079,0.0001,1e-05,3e-05,5,31
17265,-0.00014,-0.00013,-8e-05,-0.00067,-0.00079,0.0001,1e-05,3e-05,5,31
17266,-0.00014,-0.00013,-8e-05,-0.00067,-0.00079,0.0001,1e-05,3e-05,5,31
17267,-0.00014,-0.00013,-8e-05,-0.00067,-0.00079,0.0001,1e-05,3e-05,5,31
17268,-0.00014,-0.00013,-8e-05,-0.00067,-0.00079,0.0001,1e-05,3e-05,5,31
17269,-0.00014,-0.00013,-8e-05,-0.00067,-0.00079,0.0001,1e-05,3e-05,5,31
17270,-0.00014,-0.00013,-8e-05,-0.00067,-0.00079,0.0001,1e-05,3e-05,5,31
17271,-0.00014,-0.00013,-8e-05,-0.00067,-0.00079,0.0001,1e-05,3e-05,5,31
17272,-0.00014,-0.00013,-8e-05,-0.00067,-0.00079,0.0001,1e-05,3e-05,5,31
17273,-0.00014,-0.00013,-8e-05,-0.00067,-0.00079,0.0001,1e-05,3e-05,5,31
17274,-0.00014,-0.00013,-8e-05,-0.00067,-0.00079,0.0001,1e-05,3e-05,5,31
17275,-0.00014,-0.00013,-8e-05,-0.00067,-0.00079,0.0001,1e-05,3e-05,5,31
17276,-0.00014,-0.00013,-8e-05,-0.00067,-0.00079,0.0001,1e-05,3e-05,5,31
17277,0.0001,7e-05,-0.00032,-0.00034,-0.00031,-0.00015,3e-05,4e-05,5,31
17278,0.0001,7e-05,-0.00032,-0.00034,-0.00031,-0.00015,3e-05,4e-05,5,31
17279,2e-05,-0.00026,-0.00021,-0.00036,-0.00027,-6e-05,-0.00013,-7e-05,5,31
17280,2e-05,-0.00026,-0.00021,-0.00036,-0.00027,-6e-05,-0.00013,-7e-05,5,31
17281,2e-05,-0.00026,-0.00021,-0.00036,-0.00027,-6e-05,-0.00013,-7e-05,5,31
17282,2e-05,-0.00026,-0.00021,-0.00036,-0.00027,-6e-05,-0.00013,-7e-05,5,31
17283,2e-05,-0.00026,-0.00021,-0.00036,-0.00027,-6e-05,-0.00013,-7e-05,5,31
17284,2e-05,-0.00026,-0.00021,-0.00036,-0.00027,-6e-05,-0.00013,-7e-05,5,31
17285,2e-05,-0.00026,-0.00021,-0.00036,-0.00027,-6e-05,-0.00013,-7e-05,5,31
17286,2e-05,-0.00026,-0.00021,-0.00036,-0.00027,-6e-05,-0.00013,-7e-05,5,31
17289,2e-05,-0.00026,-0.00021,-0.00036,-0.00027,-6e-05,-0.00013,-7e-05,5,31
17290,2e-05,-0.00026,-0.00021,-0.00036,-0.00027,-6e-05,-0.00013,-7e-05,5,31
17291,2e-05,-0.00026,-0.00021,-0.00036,-0.00027,-6e-05,-0.00013,-7e-05,5,31
17292,2e-05,-0.00026,-0.00021,-0.00036,-0.00027,-6e-05,-0.00013,-7e-05,5,31
17293,2e-05,-0.00026,-0.00021,-0.00036,-0.00027,-6e-05,-0.00013,-7e-05,5,31
17294,2e-05,-0.00026,-0.00021,-0.00036,-0.00027,-6e-05,-0.00013,-7e-05,5,31
17295,2e-05,-0.00026,-0.00021,-0.00036,-0.00027,-6e-05,-0.00013,-7e-05,5,31
17296,2e-05,-0.00026,-0.00021,-0.00036,-0.00027,-6e-05,-0.00013,-7e-05,5,31
17297,2e-05,-0.00026,-0.00021,-0.00036,-0.00027,-6e-05,-0.00013,-7e-05,5,31
17298,2e-05,-0.00026,-0.00021,-0.00036,-0.00027,-6e-05,-0.00013,-7e-05,5,31
17299,2e-05,-0.00026,-0.00021,-0.00036,-0.00027,-6e-05,-0.00013,-7e-05,5,31
17300,0.00044,0.00036,2e-05,-0.00021,0.00033,0.00019,0.00013,0.00023,5,31
17301,0.00032,0.00043,0.00021,0.00026,-0.00061,0.00012,5e-05,8e-05,5,31
17302,-0.00018,-0.00033,-0.00039,-0.0007,-0.00052,-0.00037,-9e-05,-8e-05,5,31
17303,-0.00018,-0.00033,-0.00039,-0.0007,-0.00052,-0.00037,-9e-05,-8e-05,5,31
17304,-0.00018,-0.00033,-0.00039,-0.0007,-0.00052,-0.00037,-9e-05,-8e-05,5,31
17305,-0.00018,-0.00033,-0.00039,-0.0007,-0.00052,-0.00037,-9e-05,-8e-05,5,31
17306,-0.00018,-0.00033,-0.00039,-0.0007,-0.00052,-0.00037,-9e-05,-8e-05,5,31
17307,-0.00018,-0.00033,-0.00039,-0.0007,-0.00052,-0.00037,-9e-05,-8e-05,5,31
17308,-0.00018,-0.00033,-0.00039,-0.0007,-0.00052,-0.00037,-9e-05,-8e-05,5,31
17309,-0.00018,-0.00033,-0.00039,-0.0007,-0.00052,-0.00037,-9e-05,-8e-05,5,31
17310,-0.00018,-0.00033,-0.00039,-0.0007,-0.00052,-0.00037,-9e-05,-8e-05,5,31
17311,-0.00018,-0.00033,-0.00039,-0.0007,-0.00052,-0.00037,-9e-05,-8e-05,5,31
17312,-0.00018,-0.00033,-0.00039,-0.0007,-0.00052,-0.00037,-9e-05,-8e-05,5,31
17313,-0.00018,-0.00033,-0.00039,-0.0007,-0.00052,-0.00037,-9e-05,-8e-05,5,31
17314,-0.00018,-0.00033,-0.00039,-0.0007,-0.00052,-0.00037,-9e-05,-8e-05,5,31
17315,-0.00016,-6e-05,-1e-05,-0.0005,-0.00034,2e-05,8e-05,1e-05,5,31
17316,0.00014,0.00012,3e-05,-4e-05,1e-05,-4e-05,-5e-05,1e-05,5,31
17317,0,-9e-05,4e-05,-0.00065,-0.0003,0.00022,0.0001,8e-05,5,31
17318,0,-9e-05,4e-05,-0.00065,-0.0003,0.00022,0.0001,8e-05,5,31
17319,0,-9e-05,4e-05,-0.00065,-0.0003,0.00022,0.0001,8e-05,5,31
17320,0,-9e-05,4e-05,-0.00065,-0.0003,0.00022,0.0001,8e-05,5,31
17321,0,-9e-05,4e-05,-0.00065,-0.0003,0.00022,0.0001,8e-05,5,31
17322,0,-9e-05,4e-05,-0.00065,-0.0003,0.00022,0.0001,8e-05,5,31
17323,0,-9e-05,4e-05,-0.00065,-0.0003,0.00022,0.0001,8e-05,5,31
17324,0,-9e-05,4e-05,-0.00065,-0.0003,0.00022,0.0001,8e-05,5,31
17325,0,-9e-05,4e-05,-0.00065,-0.0003,0.00022,0.0001,8e-05,5,31
17326,0,-9e-05,4e-05,-0.00065,-0.0003,0.00022,0.0001,8e-05,5,31
17327,0,-9e-05,4e-05,-0.00065,-0.0003,0.00022,0.0001,8e-05,5,31
17328,0,-9e-05,4e-05,-0.00065,-0.0003,0.00022,0.0001,8e-05,5,31
17329,0,-9e-05,4e-05,-0.00065,-0.0003,0.00022,0.0001,8e-05,5,31
17330,0,-9e-05,4e-05,-0.00065,-0.0003,0.00022,0.0001,8e-05,5,31
17331,0,-9e-05,4e-05,-0.00065,-0.0003,0.00022,0.0001,8e-05,5,31
17332,0,-9e-05,4e-05,-0.00065,-0.0003,0.00022,0.0001,8e-05,5,31
17333,0,-9e-05,4e-05,-0.00065,-0.0003,0.00022,0.0001,8e-05,5,31
17334,0,-9e-05,4e-05,-0.00065,-0.0003,0.00022,0.0001,8e-05,5,31
17335,0,-9e-05,4e-05,-0.00065,-0.0003,0.00022,0.0001,8e-05,5,31
17336,0,-9e-05,4e-05,-0.00065,-0.0003,0.00022,0.0001,8e-05,5,31
17339,0.00031,0.00027,0.00038,0.00015,0.00066,0.00025,2e-05,9e-05,5,31
17340,3e-05,4e-05,0.00021,0.0009,0.00055,0.00038,0.00013,2e-05,5,31
17341,3e-05,4e-05,0.00021,0.0009,0.00055,0.00038,0.00013,2e-05,5,31
17342,3e-05,4e-05,0.00021,0.0009,0.00055,0.00038,0.00013,2e-05,5,31
17343,3e-05,4e-05,0.00021,0.0009,0.00055,0.00038,0.00013,2e-05,5,31
17344,3e-05,4e-05,0.00021,0.0009,0.00055,0.00038,0.00013,2e-05,5,31
17345,3e-05,4e-05,0.00021,0.0009,0.00055,0.00038,0.00013,2e-05,5,31
17346,3e-05,4e-05,0.00021,0.0009,0.00055,0.00038,0.00013,2e-05,5,31
17347,3e-05,4e-05,0.00021,0.0009,0.00055,0.00038,0.00013,2e-05,5,31
17348,3e-05,4e-05,0.00021,0.0009,0.00055,0.00038,0.00013,2e-05,5,31
17349,3e-05,4e-05,0.00021,0.0009,0.00055,0.00038,0.00013,2e-05,5,31
17350,3e-05,4e-05,0.00021,0.0009,0.00055,0.00038,0.00013,2e-05,5,31
17351,3e-05,4e-05,0.00021,0.0009,0.00055,0.00038,0.00013,2e-05,5,31
17352,3e-05,4e-05,0.00021,0.0009,0.00055,0.00038,0.00013,2e-05,5,31
17353,3e-05,4e-05,0.00021,0.0009,0.00055,0.00038,0.00013,2e-05,5,31
17354,3e-05,4e-05,0.00021,0.0009,0.00055,0.00038,0.00013,2e-05,5,31
17355,3e-05,4e-05,0.00021,0.0009,0.00055,0.00038,0.00013,2e-05,5,31
17356,3e-05,4e-05,0.00021,0.0009,0.00055,0.00038,0.00013,2e-05,5,31
17357,3e-05,4e-05,0.00021,0.0009,0.00055,0.00038,0.00013,2e-05,5,31
17358,3e-05,4e-05,0.00021,0.0009,0.00055,0.00038,0.00013,2e-05,5,31
17359,3e-05,4e-05,0.00021,0.0009,0.00055,0.00038,0.00013,2e-05,5,31
17360,0.00011,9e-05,0.00011,0.00013,-0.00031,-0.00016,-0.0001,-5e-05,5,31
17361,-2e-05,-1e-05,0.00019,0.00081,0.00104,0.00036,8e-05,7e-05,5,31
17362,-0.00027,-0.00013,0.00021,0.00094,0.00068,0.00014,4e-05,-6e-05,5,31
17363,-0.00027,-0.00013,0.00021,0.00094,0.00068,0.00014,4e-05,-6e-05,5,31
17364,-0.00027,-0.00013,0.00021,0.00094,0.00068,0.00014,4e-05,-6e-05,5,31
17365,-0.00027,-0.00013,0.00021,0.00094,0.00068,0.00014,4e-05,-6e-05,5,31
17366,-0.00027,-0.00013,0.00021,0.00094,0.00068,0.00014,4e-05,-6e-05,5,31
17367,-0.00027,-0.00013,0.00021,0.00094,0.00068,0.00014,4e-05,-6e-05,5,31
17368,-0.00027,-0.00013,0.00021,0.00094,0.00068,0.00014,4e-05,-6e-05,5,31
17369,-0.00027,-0.00013,0.00021,0.00094,0.00068,0.00014,4e-05,-6e-05,5,31
17370,-0.00027,-0.00013,0.00021,0.00094,0.00068,0.00014,4e-05,-6e-05,5,31
17372,-0.00027,-0.00013,0.00021,0.00094,0.00068,0.00014,4e-05,-6e-05,5,31
17373,-0.00027,-0.00013,0.00021,0.00094,0.00068,0.00014,4e-05,-6e-05,5,31
17374,-0.00027,-0.00013,0.00021,0.00094,0.00068,0.00014,4e-05,-6e-05,5,31
17375,-7e-05,-0.00019,-0.00014,-0.00032,-0.00074,-0.00025,-0.00012,-9e-05,5,31
17376,-7e-05,-0.00019,-0.00014,-0.00032,-0.00074,-0.00025,-0.00012,-9e-05,5,31
17377,0.00021,0.00027,0.0003,0.00111,0.00102,0.00079,6e-05,9e-05,5,31
17378,0.00021,0.00027,0.0003,0.00111,0.00102,0.00079,6e-05,9e-05,5,31
17379,0.00021,0.00027,0.0003,0.00111,0.00102,0.00079,6e-05,9e-05,5,31
17380,0.00021,0.00027,0.0003,0.00111,0.00102,0.00079,6e-05,9e-05,5,31
17381,0.00021,0.00027,0.0003,0.00111,0.00102,0.00079,6e-05,9e-05,5,31
17382,0.00021,0.00027,0.0003,0.00111,0.00102,0.00079,6e-05,9e-05,5,31
17383,0.00021,0.00027,0.0003,0.00111,0.00102,0.00079,6e-05,9e-05,5,31
17384,0.00021,0.00027,0.0003,0.00111,0.00102,0.00079,6e-05,9e-05,5,31
17385,0.00021,0.00027,0.0003,0.00111,0.00102,0.00079,6e-05,9e-05,5,31
17386,0.00021,0.00027,0.0003,0.00111,0.00102,0.00079,6e-05,9e-05,5,31
17389,0.00021,0.00027,0.0003,0.00111,0.00102,0.00079,6e-05,9e-05,5,31
17390,0.00021,0.00027,0.0003,0.00111,0.00102,0.00079,6e-05,9e-05,5,31
17391,0.00021,0.00027,0.0003,0.00111,0.00102,0.00079,6e-05,9e-05,5,31
17392,0.00021,0.00027,0.0003,0.00111,0.00102,0.00079,6e-05,9e-05,5,31
17393,0.00021,0.00027,0.0003,0.00111,0.00102,0.00079,6e-05,9e-05,5,31
17394,0.00021,0.00027,0.0003,0.00111,0.00102,0.00079,6e-05,9e-05,5,31
17395,0.00021,0.00027,0.0003,0.00111,0.00102,0.00079,6e-05,9e-05,5,31
17396,0.00021,0.00027,0.0003,0.00111,0.00102,0.00079,6e-05,9e-05,5,31
17397,0.00021,0.00027,0.0003,0.00111,0.00102,0.00079,6e-05,9e-05,5,31
17398,-0.0003,-0.00033,-3e-05,-0.0001,-0.00014,5e-05,-6e-05,-9e-05,5,31
17399,0.00037,0.00025,-8e-05,-0.0004,-0.00038,-0.00019,-6e-05,0,5,31
17400,0.00037,0.00025,-8e-05,-0.0004,-0.00038,-0.00019,-6e-05,0,5,31
17401,0.00037,0.00025,-8e-05,-0.0004,-0.00038,-0.00019,-6e-05,0,5,31
17402,0.00037,0.00025,-8e-05,-0.0004,-0.00038,-0.00019,-6e-05,0,5,31
17403,0.00037,0.00025,-8e-05,-0.0004,-0.00038,-0.00019,-6e-05,0,5,31
17404,0.00037,0.00025,-8e-05,-0.0004,-0.00038,-0.00019,-6e-05,0,5,31
17405,0.00037,0.00025,-8e-05,-0.0004,-0.00038,-0.00019,-6e-05,0,5,31
17406,0.00037,0.00025,-8e-05,-0.0004,-0.00038,-0.00019,-6e-05,0,5,31
17407,0.00037,0.00025,-8e-05,-0.0004,-0.00038,-0.00019,-6e-05,0,5,31
17408,0.00037,0.00025,-8e-05,-0.0004,-0.00038,-0.00019,-6e-05,0,5,31
17409,0.00037,0.00025,-8e-05,-0.0004,-0.00038,-0.00019,-6e-05,0,5,31
17410,0.00037,0.00025,-8e-05,-0.0004,-0.00038,-0.00019,-6e-05,0,5,31
17411,0.00037,0.00025,-8e-05,-0.0004,-0.00038,-0.00019,-6e-05,0,5,31
17412,0.00037,0.00025,-8e-05,-0.0004,-0.00038,-0.00019,-6e-05,0,5,31
17413,0.00037,0.00025,-8e-05,-0.0004,-0.00038,-0.00019,-6e-05,0,5,31
17414,0.00037,0.00025,-8e-05,-0.0004,-0.00038,-0.00019,-6e-05,0,5,31
17415,0.00037,0.00025,-8e-05,-0.0004,-0.00038,-0.00019,-6e-05,0,5,31
17416,0.00037,0.00025,-8e-05,-0.0004,-0.00038,-0.00019,-6e-05,0,5,31
17417,0.00037,0.00025,-8e-05,-0.0004,-0.00038,-0.00019,-6e-05,0,5,31
17418,0.00037,0.00025,-8e-05,-0.0004,-0.00038,-0.00019,-6e-05,0,5,31
17419,0.00037,0.00025,-8e-05,-0.0004,-0.00038,-0.00019,-6e-05,0,5,31
17420,-5e-05,0.00012,0.00016,0.00071,0.00074,0,5e-05,1e-05,5,31
17422,-0.0001,-0.00012,-0.0001,-7e-05,2e-05,-3e-05,6e-05,1e-05,5,31
17423,-0.00016,-0.00022,-0.00014,-2e-05,3e-05,-0.00019,0,-2e-05,5,31
17424,-0.00016,-0.00022,-0.00014,-2e-05,3e-05,-0.00019,0,-2e-05,5,31
17425,-0.00016,-0.00022,-0.00014,-2e-05,3e-05,-0.00019,0,-2e-05,5,31
17426,-0.00016,-0.00022,-0.00014,-2e-05,3e-05,-0.00019,0,-2e-05,5,31
17427,-0.00016,-0.00022,-0.00014,-2e-05,3e-05,-0.00019,0,-2e-05,5,31
17428,-0.00016,-0.00022,-0.00014,-2e-05,3e-05,-0.00019,0,-2e-05,5,31
17429,-0.00016,-0.00022,-0.00014,-2e-05,3e-05,-0.00019,0,-2e-05,5,31
17430,-0.00016,-0.00022,-0.00014,-2e-05,3e-05,-0.00019,0,-2e-05,5,31
17431,-0.00016,-0.00022,-0.00014,-2e-05,3e-05,-0.00019,0,-2e-05,5,31
17432,-0.00016,-0.00022,-0.00014,-2e-05,3e-05,-0.00019,0,-2e-05,5,31
17433,-0.00016,-0.00022,-0.00014,-2e-05,3e-05,-0.00019,0,-2e-05,5,31
17434,-0.00016,-0.00022,-0.00014,-2e-05,3e-05,-0.00019,0,-2e-05,5,31
17435,-6e-05,-0.00029,-0.00045,-0.00102,-0.00091,-0.00025,-0.00011,-0.00011,5,31
17436,-6e-05,-0.00029,-0.00045,-0.00102,-0.00091,-0.00025,-0.00011,-0.00011,5,31
17439,0.00026,0.00027,-0.00013,-0.00033,-4e-05,-0.00019,-3e-05,5e-05,5,31
17440,0.00026,0.00027,-0.00013,-0.00033,-4e-05,-0.00019,-3e-05,5e-05,5,31
17441,0.00026,0.00027,-0.00013,-0.00033,-4e-05,-0.00019,-3e-05,5e-05,5,31
17442,0.00026,0.00027,-0.00013,-0.00033,-4e-05,-0.00019,-3e-05,5e-05,5,31
17443,0.00026,0.00027,-0.00013,-0.00033,-4e-05,-0.00019,-3e-05,5e-05,5,31
17444,0.00026,0.00027,-0.00013,-0.00033,-4e-05,-0.00019,-3e-05,5e-05,5,31
17445,0.00026,0.00027,-0.00013,-0.00033,-4e-05,-0.00019,-3e-05,5e-05,5,31
17446,0.00026,0.00027,-0.00013,-0.00033,-4e-05,-0.00019,-3e-05,5e-05,5,31
17447,0.00026,0.00027,-0.00013,-0.00033,-4e-05,-0.00019,-3e-05,5e-05,5,31
17448,0.00026,0.00027,-0.00013,-0.00033,-4e-05,-0.00019,-3e-05,5e-05,5,31
17449,0.00026,0.00027,-0.00013,-0.00033,-4e-05,-0.00019,-3e-05,5e-05,5,31
17450,0.00026,0.00027,-0.00013,-0.00033,-4e-05,-0.00019,-3e-05,5e-05,5,31
17451,0.00026,0.00027,-0.00013,-0.00033,-4e-05,-0.00019,-3e-05,5e-05,5,31
17452,0.00026,0.00027,-0.00013,-0.00033,-4e-05,-0.00019,-3e-05,5e-05,5,31
17453,0.00026,0.00027,-0.00013,-0.00033,-4e-05,-0.00019,-3e-05,5e-05,5,31
17454,0.00026,0.00027,-0.00013,-0.00033,-4e-05,-0.00019,-3e-05,5e-05,5,31
17455,0.00026,0.00027,-0.00013,-0.00033,-4e-05,-0.00019,-3e-05,5e-05,5,31
17456,0.00026,0.00027,-0.00013,-0.00033,-4e-05,-0.00019,-3e-05,5e-05,5,31
17457,0.00026,0.00027,-0.00013,-0.00033,-4e-05,-0.00019,-3e-05,5e-05,5,31
17458,-0.00051,-0.0003,6e-05,0.00029,-0.00022,-0.00018,-0.00011,-9e-05,5,31
17459,-0.00016,-0.00029,-0.00012,-0.00019,-0.00029,-7e-05,-5e-05,-8e-05,5,31
17460,-0.00016,-0.00029,-0.00012,-0.00019,-0.00029,-7e-05,-5e-05,-8e-05,5,31
17461,-0.00016,-0.00029,-0.00012,-0.00019,-0.00029,-7e-05,-5e-05,-8e-05,5,31
17462,-0.00016,-0.00029,-0.00012,-0.00019,-0.00029,-7e-05,-5e-05,-8e-05,5,31
17463,-0.00016,-0.00029,-0.00012,-0.00019,-0.00029,-7e-05,-5e-05,-8e-05,5,31
17464,-0.00016,-0.00029,-0.00012,-0.00019,-0.00029,-7e-05,-5e-05,-8e-05,5,31
17465,-0.00016,-0.00029,-0.00012,-0.00019,-0.00029,-7e-05,-5e-05,-8e-05,5,31
17466,-0.00016,-0.00029,-0.00012,-0.00019,-0.00029,-7e-05,-5e-05,-8e-05,5,31
17467,-0.00016,-0.00029,-0.00012,-0.00019,-0.00029,-7e-05,-5e-05,-8e-05,5,31
17468,-0.00016,-0.00029,-0.00012,-0.00019,-0.00029,-7e-05,-5e-05,-8e-05,5,31
17469,-0.00016,-0.00029,-0.00012,-0.00019,-0.00029,-7e-05,-5e-05,-8e-05,5,31
17470,-0.00016,-0.00029,-0.00012,-0.00019,-0.00029,-7e-05,-5e-05,-8e-05,5,31
17471,-0.00016,-0.00029,-0.00012,-0.00019,-0.00029,-7e-05,-5e-05,-8e-05,5,31
17472,-0.00016,-0.00029,-0.00012,-0.00019,-0.00029,-7e-05,-5e-05,-8e-05,5,31
17473,-0.00016,-0.00029,-0.00012,-0.00019,-0.00029,-7e-05,-5e-05,-8e-05,5,31
17474,-0.00016,-0.00029,-0.00012,-0.00019,-0.00029,-7e-05,-5e-05,-8e-05,5,31
17475,-0.00016,-0.00029,-0.00012,-0.00019,-0.00029,-7e-05,-5e-05,-8e-05,5,31
17476,-0.00016,-0.00029,-0.00012,-0.00019,-0.00029,-7e-05,-5e-05,-8e-05,5,31
17477,-0.00016,-0.00029,-0.00012,-0.00019,-0.00029,-7e-05,-5e-05,-8e-05,5,31
17478,-0.00016,-0.00029,-0.00012,-0.00019,-0.00029,-7e-05,-5e-05,-8e-05,5,31
17479,-0.00016,-0.00029,-0.00012,-0.00019,-0.00029,-7e-05,-5e-05,-8e-05,5,31
17480,5e-05,0.00034,0.00021,2e-05,0.0001,1e-05,4e-05,4e-05,5,31
17481,5e-05,0.00034,0.00021,2e-05,0.0001,1e-05,4e-05,4e-05,5,31
17482,5e-05,0.00034,0.00021,2e-05,0.0001,1e-05,4e-05,4e-05,5,31
17483,5e-05,0.00034,0.00021,2e-05,0.0001,1e-05,4e-05,4e-05,5,31
17484,5e-05,0.00034,0.00021,2e-05,0.0001,1e-05,4e-05,4e-05,5,31
17485,5e-05,0.00034,0.00021,2e-05,0.0001,1e-05,4e-05,4e-05,5,31
17487,-2e-05,-5e-05,-0.00018,0.00018,0.00026,0.00031,-4e-05,-7e-05,5,31
17490,-2e-05,-5e-05,-0.00018,0.00018,0.00026,0.00031,-4e-05,-7e-05,5,31
17491,-2e-05,-5e-05,-0.00018,0.00018,0.00026,0.00031,-4e-05,-7e-05,5,31
17492,-2e-05,-5e-05,-0.00018,0.00018,0.00026,0.00031,-4e-05,-7e-05,5,31
17493,-2e-05,-5e-05,-0.00018,0.00018,0.00026,0.00031,-4e-05,-7e-05,5,31
17494,-0.00035,-0.00027,-7e-05,-0.00025,-5e-05,-5e-05,-5e-05,-5e-05,5,31
17495,-0.00035,-0.00027,-7e-05,-0.00025,-5e-05,-5e-05,-5e-05,-5e-05,5,31
17496,-0.00035,-0.00027,-7e-05,-0.00025,-5e-05,-5e-05,-5e-05,-5e-05,5,31
17497,-0.00035,-0.00027,-7e-05,-0.00025,-5e-05,-5e-05,-5e-05,-5e-05,5,31
17498,-0.00035,-0.00027,-7e-05,-0.00025,-5e-05,-5e-05,-5e-05,-5e-05,5,31
17499,-0.00035,-0.00027,-7e-05,-0.00025,-5e-05,-5e-05,-5e-05,-5e-05,5,31
17500,-0.00035,-0.00027,-7e-05,-0.00025,-5e-05,-5e-05,-5e-05,-5e-05,5,31
17501,-0.00015,-0.00019,7e-05,0.00016,0.00022,-0.00019,-0.00017,-0.00011,5,31
17502,-0.00015,-0.00019,7e-05,0.00016,0.00022,-0.00019,-0.00017,-0.00011,5,31
17503,-0.00015,-0.00019,7e-05,0.00016,0.00022,-0.00019,-0.00017,-0.00011,5,31
17504,-0.00015,-0.00019,7e-05,0.00016,0.00022,-0.00019,-0.00017,-0.00011,5,31
17505,-0.00015,-0.00019,7e-05,0.00016,0.00022,-0.00019,-0.00017,-0.00011,5,31
17506,-0.00015,-0.00019,7e-05,0.00016,0.00022,-0.00019,-0.00017,-0.00011,5,31
17507,-0.00015,-0.00019,7e-05,0.00016,0.00022,-0.00019,-0.00017,-0.00011,5,31
17508,-0.00015,-0.00019,7e-05,0.00016,0.00022,-0.00019,-0.00017,-0.00011,5,31
17509,-0.00015,-0.00019,7e-05,0.00016,0.00022,-0.00019,-0.00017,-0.00011,5,31
17510,-0.00015,-0.00019,7e-05,0.00016,0.00022,-0.00019,-0.00017,-0.00011,5,31
17511,-0.00015,-0.00019,7e-05,0.00016,0.00022,-0.00019,-0.00017,-0.00011,5,31
17512,-0.00015,-0.00019,7e-05,0.00016,0.00022,-0.00019,-0.00017,-0.00011,5,31
17513,-0.00015,-0.00019,7e-05,0.00016,0.00022,-0.00019,-0.00017,-0.00011,5,31
17514,-0.00015,-0.00019,7e-05,0.00016,0.00022,-0.00019,-0.00017,-0.00011,5,31
17515,-0.00015,-0.00019,7e-05,0.00016,0.00022,-0.00019,-0.00017,-0.00011,5,31
17516,-0.00015,-0.00019,7e-05,0.00016,0.00022,-0.00019,-0.00017,-0.00011,5,31
17517,-0.00011,-0.00027,-0.00032,-0.00054,-0.00079,-0.00024,-4e-05,-8e-05,5,31
17518,0.0003,0.00015,6e-05,0.00028,0.00077,0.00014,0.00019,0.00013,5,31
17519,-0.00014,-0.00011,-0.00011,0.00033,0.0004,4e-05,0.0001,4e-05,5,31
17520,-0.00014,-0.00011,-0.00011,0.00033,0.0004,4e-05,0.0001,4e-05,5,31
17521,-0.00014,-0.00011,-0.00011,0.00033,0.0004,4e-05,0.0001,4e-05,5,31
17522,-0.00014,-0.00011,-0.00011,0.00033,0.0004,4e-05,0.0001,4e-05,5,31
17523,-0.00014,-0.00011,-0.00011,0.00033,0.0004,4e-05,0.0001,4e-05,5,31
17524,-0.00014,-0.00011,-0.00011,0.00033,0.0004,4e-05,0.0001,4e-05,5,31
17525,-0.00014,-0.00011,-0.00011,0.00033,0.0004,4e-05,0.0001,4e-05,5,31
17526,-0.00014,-0.00011,-0.00011,0.00033,0.0004,4e-05,0.0001,4e-05,5,31
17527,-0.00014,-0.00011,-0.00011,0.00033,0.0004,4e-05,0.0001,4e-05,5,31
17528,-0.00014,-0.00011,-0.00011,0.00033,0.0004,4e-05,0.0001,4e-05,5,31
17529,-0.00014,-0.00011,-0.00011,0.00033,0.0004,4e-05,0.0001,4e-05,5,31
17530,-0.00014,-0.00011,-0.00011,0.00033,0.0004,4e-05,0.0001,4e-05,5,31
17531,-0.00014,-0.00011,-0.00011,0.00033,0.0004,4e-05,0.0001,4e-05,5,31
17532,-0.00014,-0.00011,-0.00011,0.00033,0.0004,4e-05,0.0001,4e-05,5,31
17533,-0.00014,-0.00011,-0.00011,0.00033,0.0004,4e-05,0.0001,4e-05,5,31
17534,-0.00014,-0.00011,-0.00011,0.00033,0.0004,4e-05,0.0001,4e-05,5,31
17535,-0.00014,-0.00011,-0.00011,0.00033,0.0004,4e-05,0.0001,4e-05,5,31
17536,-0.00014,-0.00011,-0.00011,0.00033,0.0004,4e-05,0.0001,4e-05,5,31
17539,-0.00014,-0.00011,-0.00011,0.00033,0.0004,4e-05,0.0001,4e-05,5,31
17540,-0.00047,-0.00027,-0.00016,-0.00011,-0.00031,0.00018,3e-05,-5e-05,5,31
17541,-0.00047,-0.00027,-0.00016,-0.00011,-0.00031,0.00018,3e-05,-5e-05,5,31
17542,0.00027,0.00019,0,-0.00079,0.00012,0.00016,0.00022,0.00013,5,31
17543,0.00027,0.00019,0,-0.00079,0.00012,0.00016,0.00022,0.00013,5,31
17544,0.00027,0.00019,0,-0.00079,0.00012,0.00016,0.00022,0.00013,5,31
17545,0.00027,0.00019,0,-0.00079,0.00012,0.00016,0.00022,0.00013,5,31
17546,0.00027,0.00019,0,-0.00079,0.00012,0.00016,0.00022,0.00013,5,31
17547,0.00027,0.00019,0,-0.00079,0.00012,0.00016,0.00022,0.00013,5,31
17548,0.00027,0.00019,0,-0.00079,0.00012,0.00016,0.00022,0.00013,5,31
17549,0.00027,0.00019,0,-0.00079,0.00012,0.00016,0.00022,0.00013,5,31
17550,0.00027,0.00019,0,-0.00079,0.00012,0.00016,0.00022,0.00013,5,31
17551,0.00027,0.00019,0,-0.00079,0.00012,0.00016,0.00022,0.00013,5,31
17552,0.00027,0.00019,0,-0.00079,0.00012,0.00016,0.00022,0.00013,5,31
17553,0.00027,0.00019,0,-0.00079,0.00012,0.00016,0.00022,0.00013,5,31
17554,-7e-05,6e-05,5e-05,0.00039,0.00056,-4e-05,0,0,5,31
17555,6e-05,-0.0001,0,6e-05,-0.0005,0.00022,-0.0001,-2e-05,5,31
17556,6e-05,-0.0001,0,6e-05,-0.0005,0.00022,-0.0001,-2e-05,5,31
17557,6e-05,-0.0001,0,6e-05,-0.0005,0.00022,-0.0001,-2e-05,5,31
17558,6e-05,-0.0001,0,6e-05,-0.0005,0.00022,-0.0001,-2e-05,5,31
17559,6e-05,-0.0001,0,6e-05,-0.0005,0.00022,-0.0001,-2e-05,5,31
17560,6e-05,-0.0001,0,6e-05,-0.0005,0.00022,-0.0001,-2e-05,5,31
17561,-0.00015,0,-0.00014,-0.00077,-0.00044,-0.00022,-6e-05,0,5,31
17562,-0.00015,0,-0.00014,-0.00077,-0.00044,-0.00022,-6e-05,0,5,31
17563,-0.00015,0,-0.00014,-0.00077,-0.00044,-0.00022,-6e-05,0,5,31
17564,-0.00015,0,-0.00014,-0.00077,-0.00044,-0.00022,-6e-05,0,5,31
17565,-0.00015,0,-0.00014,-0.00077,-0.00044,-0.00022,-6e-05,0,5,31
17566,-0.00015,0,-0.00014,-0.00077,-0.00044,-0.00022,-6e-05,0,5,31
17567,-0.00015,0,-0.00014,-0.00077,-0.00044,-0.00022,-6e-05,0,5,31
17568,-0.00015,0,-0.00014,-0.00077,-0.00044,-0.00022,-6e-05,0,5,31
17569,-0.00015,0,-0.00014,-0.00077,-0.00044,-0.00022,-6e-05,0,5,31
17570,-0.00015,0,-0.00014,-0.00077,-0.00044,-0.00022,-6e-05,0,5,31
17571,-0.00015,0,-0.00014,-0.00077,-0.00044,-0.00022,-6e-05,0,5,31
17572,-0.00015,0,-0.00014,-0.00077,-0.00044,-0.00022,-6e-05,0,5,31
17573,-0.00015,0,-0.00014,-0.00077,-0.00044,-0.00022,-6e-05,0,5,31
17574,-0.00015,0,-0.00014,-0.00077,-0.00044,-0.00022,-6e-05,0,5,31
17575,-0.00015,0,-0.00014,-0.00077,-0.00044,-0.00022,-6e-05,0,5,31
17576,-0.00015,0,-0.00014,-0.00077,-0.00044,-0.00022,-6e-05,0,5,31
17577,0.00012,0.0001,-0.00011,-0.0009,-0.00083,-0.00022,-0.00016,-6e-05,5,31
17578,0.00012,0.0001,-0.00011,-0.0009,-0.00083,-0.00022,-0.00016,-6e-05,5,31
17579,-3e-05,-6e-05,0.00014,0.00043,0.00054,0.00012,5e-05,0,5,31
17580,-3e-05,-6e-05,0.00014,0.00043,0.00054,0.00012,5e-05,0,5,31
17581,-3e-05,-6e-05,0.00014,0.00043,0.00054,0.00012,5e-05,0,5,31
17582,-3e-05,-6e-05,0.00014,0.00043,0.00054,0.00012,5e-05,0,5,31
17583,-3e-05,-6e-05,0.00014,0.00043,0.00054,0.00012,5e-05,0,5,31
17584,-3e-05,-6e-05,0.00014,0.00043,0.00054,0.00012,5e-05,0,5,31
17585,-3e-05,-6e-05,0.00014,0.00043,0.00054,0.00012,5e-05,0,5,31
17586,-3e-05,-6e-05,0.00014,0.00043,0.00054,0.00012,5e-05,0,5,31
17589,-3e-05,-6e-05,0.00014,0.00043,0.00054,0.00012,5e-05,0,5,31
17590,-3e-05,-6e-05,0.00014,0.00043,0.00054,0.00012,5e-05,0,5,31
17591,-3e-05,-6e-05,0.00014,0.00043,0.00054,0.00012,5e-05,0,5,31
17592,-3e-05,-6e-05,0.00014,0.00043,0.00054,0.00012,5e-05,0,5,31
17593,-3e-05,-6e-05,0.00014,0.00043,0.00054,0.00012,5e-05,0,5,31
17594,-3e-05,-6e-05,0.00014,0.00043,0.00054,0.00012,5e-05,0,5,31
17595,-3e-05,-6e-05,0.00014,0.00043,0.00054,0.00012,5e-05,0,5,31
17596,-3e-05,-6e-05,0.00014,0.00043,0.00054,0.00012,5e-05,0,5,31
17597,-3e-05,-6e-05,0.00014,0.00043,0.00054,0.00012,5e-05,0,5,31
17598,-3e-05,-6e-05,0.00014,0.00043,0.00054,0.00012,5e-05,0,5,31
17599,-3e-05,-6e-05,0.00014,0.00043,0.00054,0.00012,5e-05,0,5,31
17600,0.00026,-1e-05,-0.00033,5e-05,-0.00012,-0.00041,-5e-05,-5e-05,5,31
17601,0.00026,-1e-05,-0.00033,5e-05,-0.00012,-0.00041,-5e-05,-5e-05,5,31
17602,0.00015,0.00033,7e-05,0.0001,-0.00029,0.00048,6e-05,7e-05,5,31
17603,0.00015,0.00033,7e-05,0.0001,-0.00029,0.00048,6e-05,7e-05,5,31
17604,0.00015,0.00033,7e-05,0.0001,-0.00029,0.00048,6e-05,7e-05,5,31
17605,0.00015,0.00033,7e-05,0.0001,-0.00029,0.00048,6e-05,7e-05,5,31
17606,0.00015,0.00033,7e-05,0.0001,-0.00029,0.00048,6e-05,7e-05,5,31
17607,0.00015,0.00033,7e-05,0.0001,-0.00029,0.00048,6e-05,7e-05,5,31
17608,0.00015,0.00033,7e-05,0.0001,-0.00029,0.00048,6e-05,7e-05,5,31
17609,0.00015,0.00033,7e-05,0.0001,-0.00029,0.00048,6e-05,7e-05,5,31
17610,0.00015,0.00033,7e-05,0.0001,-0.00029,0.00048,6e-05,7e-05,5,31
17611,0.00015,0.00033,7e-05,0.0001,-0.00029,0.00048,6e-05,7e-05,5,31
17612,0.00015,0.00033,7e-05,0.0001,-0.00029,0.00048,6e-05,7e-05,5,31
17613,0.00015,0.00033,7e-05,0.0001,-0.00029,0.00048,6e-05,7e-05,5,31
17614,-8e-05,0.00023,0.00024,0.00045,0.00127,0.00049,0.0001,3e-05,5,31
17615,-8e-05,0.00023,0.00024,0.00045,0.00127,0.00049,0.0001,3e-05,5,31
17616,-8e-05,0.00023,0.00024,0.00045,0.00127,0.00049,0.0001,3e-05,5,31
17617,-8e-05,0.00023,0.00024,0.00045,0.00127,0.00049,0.0001,3e-05,5,31
17618,-8e-05,0.00023,0.00024,0.00045,0.00127,0.00049,0.0001,3e-05,5,31
17619,-8e-05,0.00023,0.00024,0.00045,0.00127,0.00049,0.0001,3e-05,5,31
17620,-8e-05,0.00023,0.00024,0.00045,0.00127,0.00049,0.0001,3e-05,5,31
17621,0.00038,-7e-05,-0.00011,-0.00025,-0.0003,-0.00029,-0.00013,-3e-05,5,31
17622,0.00038,-7e-05,-0.00011,-0.00025,-0.0003,-0.00029,-0.00013,-3e-05,5,31
17623,0.00038,-7e-05,-0.00011,-0.00025,-0.0003,-0.00029,-0.00013,-3e-05,5,31
17624,0.00038,-7e-05,-0.00011,-0.00025,-0.0003,-0.00029,-0.00013,-3e-05,5,31
17625,0.00038,-7e-05,-0.00011,-0.00025,-0.0003,-0.00029,-0.00013,-3e-05,5,31
17626,0.00038,-7e-05,-0.00011,-0.00025,-0.0003,-0.00029,-0.00013,-3e-05,5,31
17627,0.00038,-7e-05,-0.00011,-0.00025,-0.0003,-0.00029,-0.00013,-3e-05,5,31
17628,0.00038,-7e-05,-0.00011,-0.00025,-0.0003,-0.00029,-0.00013,-3e-05,5,31
17629,0.00038,-7e-05,-0.00011,-0.00025,-0.0003,-0.00029,-0.00013,-3e-05,5,31
17630,0.00038,-7e-05,-0.00011,-0.00025,-0.0003,-0.00029,-0.00013,-3e-05,5,31
17631,0.00038,-7e-05,-0.00011,-0.00025,-0.0003,-0.00029,-0.00013,-3e-05,5,31
17632,0.00038,-7e-05,-0.00011,-0.00025,-0.0003,-0.00029,-0.00013,-3e-05,5,31
17633,0.00038,-7e-05,-0.00011,-0.00025,-0.0003,-0.00029,-0.00013,-3e-05,5,31
17634,0.00038,-7e-05,-0.00011,-0.00025,-0.0003,-0.00029,-0.00013,-3e-05,5,31
17635,0.00038,-7e-05,-0.00011,-0.00025,-0.0003,-0.00029,-0.00013,-3e-05,5,31
17636,0.00038,-7e-05,-0.00011,-0.00025,-0.0003,-0.00029,-0.00013,-3e-05,5,31
17639,7e-05,5e-05,-0.00011,-0.0009,-0.00059,-0.00019,-3e-05,2e-05,5,31
17640,7e-05,5e-05,-0.00011,-0.0009,-0.00059,-0.00019,-3e-05,2e-05,5,31
17641,0.00013,5e-05,-0.00016,-0.00072,0.00019,0.00024,0.00011,5e-05,5,31
17642,-0.00025,-0.00017,0.00024,0.00127,0.0008,0.0001,5e-05,-2e-05,5,31
17643,-0.00025,-0.00017,0.00024,0.00127,0.0008,0.0001,5e-05,-2e-05,5,31
17644,-0.00025,-0.00017,0.00024,0.00127,0.0008,0.0001,5e-05,-2e-05,5,31
17645,-0.00025,-0.00017,0.00024,0.00127,0.0008,0.0001,5e-05,-2e-05,5,31
17646,-0.00025,-0.00017,0.00024,0.00127,0.0008,0.0001,5e-05,-2e-05,5,31
17647,-0.00025,-0.00017,0.00024,0.00127,0.0008,0.0001,5e-05,-2e-05,5,31
17648,-0.00025,-0.00017,0.00024,0.00127,0.0008,0.0001,5e-05,-2e-05,5,31
17649,-0.00025,-0.00017,0.00024,0.00127,0.0008,0.0001,5e-05,-2e-05,5,31
17650,-0.00025,-0.00017,0.00024,0.00127,0.0008,0.0001,5e-05,-2e-05,5,31
17651,-0.00025,-0.00017,0.00024,0.00127,0.0008,0.0001,5e-05,-2e-05,5,31
17652,-0.00025,-0.00017,0.00024,0.00127,0.0008,0.0001,5e-05,-2e-05,5,31
17653,-0.00025,-0.00017,0.00024,0.00127,0.0008,0.0001,5e-05,-2e-05,5,31
17654,-0.00025,-0.00017,0.00024,0.00127,0.0008,0.0001,5e-05,-2e-05,5,31
17655,-0.00025,-0.00017,0.00024,0.00127,0.0008,0.0001,5e-05,-2e-05,5,31
17657,-0.00025,-0.00017,0.00024,0.00127,0.0008,0.0001,5e-05,-2e-05,5,31
17658,-0.00025,-0.00017,0.00024,0.00127,0.0008,0.0001,5e-05,-2e-05,5,31
17659,-0.00025,-0.00017,0.00024,0.00127,0.0008,0.0001,5e-05,-2e-05,5,31
17660,0.00021,0.0002,0.00021,-7e-05,0.00038,1e-05,0,3e-05,5,31
17661,0.00021,0.0002,0.00021,-7e-05,0.00038,1e-05,0,3e-05,5,31
17662,-0.00013,-0.00026,-0.00032,-0.00128,-0.00064,0.00013,1e-05,-2e-05,5,31
17663,-0.00013,-0.00026,-0.00032,-0.00128,-0.00064,0.00013,1e-05,-2e-05,5,31
17664,-0.00013,-0.00026,-0.00032,-0.00128,-0.00064,0.00013,1e-05,-2e-05,5,31
17665,-0.00013,-0.00026,-0.00032,-0.00128,-0.00064,0.00013,1e-05,-2e-05,5,31
17666,-0.00013,-0.00026,-0.00032,-0.00128,-0.00064,0.00013,1e-05,-2e-05,5,31
17667,-0.00013,-0.00026,-0.00032,-0.00128,-0.00064,0.00013,1e-05,-2e-05,5,31
17668,-0.00013,-0.00026,-0.00032,-0.00128,-0.00064,0.00013,1e-05,-2e-05,5,31
17669,-0.00013,-0.00026,-0.00032,-0.00128,-0.00064,0.00013,1e-05,-2e-05,5,31
17670,-0.00013,-0.00026,-0.00032,-0.00128,-0.00064,0.00013,1e-05,-2e-05,5,31
17671,-0.00013,-0.00026,-0.00032,-0.00128,-0.00064,0.00013,1e-05,-2e-05,5,31
17672,-0.00013,-0.00026,-0.00032,-0.00128,-0.00064,0.00013,1e-05,-2e-05,5,31
17673,-0.00013,-0.00026,-0.00032,-0.00128,-0.00064,0.00013,1e-05,-2e-05,5,31
17674,0,0.00019,3e-05,-0.00015,0.00042,7e-05,3e-05,0.00011,5,31
17675,-5e-05,0.0002,0.00025,0.00057,0.00018,0.00011,2e-05,-4e-05,5,31
17676,-5e-05,0.0002,0.00025,0.00057,0.00018,0.00011,2e-05,-4e-05,5,31
17677,-5e-05,0.0002,0.00025,0.00057,0.00018,0.00011,2e-05,-4e-05,5,31
17678,-5e-05,0.0002,0.00025,0.00057,0.00018,0.00011,2e-05,-4e-05,5,31
17679,-5e-05,0.0002,0.00025,0.00057,0.00018,0.00011,2e-05,-4e-05,5,31
17680,-5e-05,0.0002,0.00025,0.00057,0.00018,0.00011,2e-05,-4e-05,5,31
17681,-0.00028,7e-05,0.00018,-0.00035,-0.00078,-4e-05,5e-05,-2e-05,5,31
17682,-0.00028,7e-05,0.00018,-0.00035,-0.00078,-4e-05,5e-05,-2e-05,5,31
17683,-0.00028,7e-05,0.00018,-0.00035,-0.00078,-4e-05,5e-05,-2e-05,5,31
17684,-0.00028,7e-05,0.00018,-0.00035,-0.00078,-4e-05,5e-05,-2e-05,5,31
17685,-0.00028,7e-05,0.00018,-0.00035,-0.00078,-4e-05,5e-05,-2e-05,5,31
17686,-0.00028,7e-05,0.00018,-0.00035,-0.00078,-4e-05,5e-05,-2e-05,5,31
17689,-0.00028,7e-05,0.00018,-0.00035,-0.00078,-4e-05,5e-05,-2e-05,5,31
17690,-0.00028,7e-05,0.00018,-0.00035,-0.00078,-4e-05,5e-05,-2e-05,5,31
17691,-0.00028,7e-05,0.00018,-0.00035,-0.00078,-4e-05,5e-05,-2e-05,5,31
17692,-0.00028,7e-05,0.00018,-0.00035,-0.00078,-4e-05,5e-05,-2e-05,5,31
17693,-0.00028,7e-05,0.00018,-0.00035,-0.00078,-4e-05,5e-05,-2e-05,5,31
17694,-0.00028,7e-05,0.00018,-0.00035,-0.00078,-4e-05,5e-05,-2e-05,5,31
17695,-0.00028,7e-05,0.00018,-0.00035,-0.00078,-4e-05,5e-05,-2e-05,5,31
17696,-0.00028,7e-05,0.00018,-0.00035,-0.00078,-4e-05,5e-05,-2e-05,5,31
17697,-0.00028,7e-05,0.00018,-0.00035,-0.00078,-4e-05,5e-05,-2e-05,5,31
17698,-0.00016,-7e-05,0.00011,0.00027,0.00027,1e-05,-3e-05,-1e-05,5,31
17699,-0.00016,-7e-05,0.00011,0.00027,0.00027,1e-05,-3e-05,-1e-05,5,31
17700,-3e-05,-0.00015,-0.00024,-8e-05,0.00035,-0.0003,-5e-05,-6e-05,5,31
17701,-3e-05,-0.00015,-0.00024,-8e-05,0.00035,-0.0003,-5e-05,-6e-05,5,31
17702,-3e-05,-0.00015,-0.00024,-8e-05,0.00035,-0.0003,-5e-05,-6e-05,5,31
17703,-3e-05,-0.00015,-0.00024,-8e-05,0.00035,-0.0003,-5e-05,-6e-05,5,31
17705,-3e-05,-0.00015,-0.00024,-8e-05,0.00035,-0.0003,-5e-05,-6e-05,5,31
17706,-3e-05,-0.00015,-0.00024,-8e-05,0.00035,-0.0003,-5e-05,-6e-05,5,31
17707,-3e-05,-0.00015,-0.00024,-8e-05,0.00035,-0.0003,-5e-05,-6e-05,5,31
17708,-3e-05,-0.00015,-0.00024,-8e-05,0.00035,-0.0003,-5e-05,-6e-05,5,31
17709,-3e-05,-0.00015,-0.00024,-8e-05,0.00035,-0.0003,-5e-05,-6e-05,5,31
17710,-3e-05,-0.00015,-0.00024,-8e-05,0.00035,-0.0003,-5e-05,-6e-05,5,31
17711,-3e-05,-0.00015,-0.00024,-8e-05,0.00035,-0.0003,-5e-05,-6e-05,5,31
17712,-3e-05,-0.00015,-0.00024,-8e-05,0.00035,-0.0003,-5e-05,-6e-05,5,31
17713,-3e-05,-0.00015,-0.00024,-8e-05,0.00035,-0.0003,-5e-05,-6e-05,5,31
17714,-3e-05,-0.00015,-0.00024,-8e-05,0.00035,-0.0003,-5e-05,-6e-05,5,31
17715,-3e-05,-0.00015,-0.00024,-8e-05,0.00035,-0.0003,-5e-05,-6e-05,5,31
17716,-3e-05,-0.00015,-0.00024,-8e-05,0.00035,-0.0003,-5e-05,-6e-05,5,31
17717,-3e-05,-0.00015,-0.00024,-8e-05,0.00035,-0.0003,-5e-05,-6e-05,5,31
17718,-3e-05,-0.00015,-0.00024,-8e-05,0.00035,-0.0003,-5e-05,-6e-05,5,31
17719,-3e-05,-0.00015,-0.00024,-8e-05,0.00035,-0.0003,-5e-05,-6e-05,5,31
17720,0.00014,1e-05,0.00031,0.00022,-0.00015,0.00013,0.00014,0.00011,5,31
17721,9e-05,6e-05,7e-05,-0.00021,-4e-05,0.00022,-3e-05,1e-05,5,31
17722,9e-05,-8e-05,-0.0002,-0.00019,-0.00027,-0.00032,-4e-05,-4e-05,5,31
17723,9e-05,-8e-05,-0.0002,-0.00019,-0.00027,-0.00032,-4e-05,-4e-05,5,31
17724,9e-05,-8e-05,-0.0002,-0.00019,-0.00027,-0.00032,-4e-05,-4e-05,5,31
17725,9e-05,-8e-05,-0.0002,-0.00019,-0.00027,-0.00032,-4e-05,-4e-05,5,31
17726,9e-05,-8e-05,-0.0002,-0.00019,-0.00027,-0.00032,-4e-05,-4e-05,5,31
17727,9e-05,-8e-05,-0.0002,-0.00019,-0.00027,-0.00032,-4e-05,-4e-05,5,31
17728,9e-05,-8e-05,-0.0002,-0.00019,-0.00027,-0.00032,-4e-05,-4e-05,5,31
17729,9e-05,-8e-05,-0.0002,-0.00019,-0.00027,-0.00032,-4e-05,-4e-05,5,31
17730,9e-05,-8e-05,-0.0002,-0.00019,-0.00027,-0.00032,-4e-05,-4e-05,5,31
17731,9e-05,-8e-05,-0.0002,-0.00019,-0.00027,-0.00032,-4e-05,-4e-05,5,31
17732,9e-05,-8e-05,-0.0002,-0.00019,-0.00027,-0.00032,-4e-05,-4e-05,5,31
17733,9e-05,-8e-05,-0.0002,-0.00019,-0.00027,-0.00032,-4e-05,-4e-05,5,31
17734,3e-05,-0.00019,-0.00017,0.00023,0.00034,0.00044,-2e-05,-1e-05,5,31
17735,3e-05,-0.00019,-0.00017,0.00023,0.00034,0.00044,-2e-05,-1e-05,5,31
17736,3e-05,-0.00019,-0.00017,0.00023,0.00034,0.00044,-2e-05,-1e-05,5,31
17739,3e-05,-0.00019,-0.00017,0.00023,0.00034,0.00044,-2e-05,-1e-05,5,31
17740,3e-05,-0.00019,-0.00017,0.00023,0.00034,0.00044,-2e-05,-1e-05,5,31
17741,-0.00047,-0.00041,-7e-05,0.0002,-0.00012,-3e-05,-1e-05,-7e-05,5,31
17742,-0.00047,-0.00041,-7e-05,0.0002,-0.00012,-3e-05,-1e-05,-7e-05,5,31
17743,-0.00047,-0.00041,-7e-05,0.0002,-0.00012,-3e-05,-1e-05,-7e-05,5,31
17745,-0.00047,-0.00041,-7e-05,0.0002,-0.00012,-3e-05,-1e-05,-7e-05,5,31
17746,-0.00047,-0.00041,-7e-05,0.0002,-0.00012,-3e-05,-1e-05,-7e-05,5,31
17747,-0.00047,-0.00041,-7e-05,0.0002,-0.00012,-3e-05,-1e-05,-7e-05,5,31
17748,-0.00047,-0.00041,-7e-05,0.0002,-0.00012,-3e-05,-1e-05,-7e-05,5,31
17749,-0.00047,-0.00041,-7e-05,0.0002,-0.00012,-3e-05,-1e-05,-7e-05,5,31
17750,-0.00047,-0.00041,-7e-05,0.0002,-0.00012,-3e-05,-1e-05,-7e-05,5,31
17751,-0.00047,-0.00041,-7e-05,0.0002,-0.00012,-3e-05,-1e-05,-7e-05,5,31
17752,-0.00047,-0.00041,-7e-05,0.0002,-0.00012,-3e-05,-1e-05,-7e-05,5,31
17753,-0.00047,-0.00041,-7e-05,0.0002,-0.00012,-3e-05,-1e-05,-7e-05,5,31
17755,-0.00047,-0.00041,-7e-05,0.0002,-0.00012,-3e-05,-1e-05,-7e-05,5,31
17756,-0.00047,-0.00041,-7e-05,0.0002,-0.00012,-3e-05,-1e-05,-7e-05,5,31
17757,0.00031,0.00058,0.00022,0,-0.00011,5e-05,2e-05,6e-05,5,31
17758,-7e-05,-0.00018,-0.00021,-6e-05,-0.00057,-0.00036,-0.00017,-8e-05,5,31
17759,0.0003,0.00017,0.00029,0.00115,0.00066,4e-05,-7e-05,0,5,31
17760,0.0003,0.00017,0.00029,0.00115,0.00066,4e-05,-7e-05,0,5,31
17761,0.0003,0.00017,0.00029,0.00115,0.00066,4e-05,-7e-05,0,5,31
17762,0.0003,0.00017,0.00029,0.00115,0.00066,4e-05,-7e-05,0,5,31
17763,0.0003,0.00017,0.00029,0.00115,0.00066,4e-05,-7e-05,0,5,31
17764,0.0003,0.00017,0.00029,0.00115,0.00066,4e-05,-7e-05,0,5,31
17765,0.0003,0.00017,0.00029,0.00115,0.00066,4e-05,-7e-05,0,5,31
17766,0.0003,0.00017,0.00029,0.00115,0.00066,4e-05,-7e-05,0,5,31
17767,0.0003,0.00017,0.00029,0.00115,0.00066,4e-05,-7e-05,0,5,31
17768,0.0003,0.00017,0.00029,0.00115,0.00066,4e-05,-7e-05,0,5,31
17769,0.0003,0.00017,0.00029,0.00115,0.00066,4e-05,-7e-05,0,5,31
17770,0.0003,0.00017,0.00029,0.00115,0.00066,4e-05,-7e-05,0,5,31
17771,0.0003,0.00017,0.00029,0.00115,0.00066,4e-05,-7e-05,0,5,31
17772,0.0003,0.00017,0.00029,0.00115,0.00066,4e-05,-7e-05,0,5,31
17773,0.0003,0.00017,0.00029,0.00115,0.00066,4e-05,-7e-05,0,5,31
17774,0.0003,0.00017,0.00029,0.00115,0.00066,4e-05,-7e-05,0,5,31
17775,0.0003,0.00017,0.00029,0.00115,0.00066,4e-05,-7e-05,0,5,31
17776,0.0003,0.00017,0.00029,0.00115,0.00066,4e-05,-7e-05,0,5,31
17777,0.0003,0.00017,0.00029,0.00115,0.00066,4e-05,-7e-05,0,5,31
17778,0.0003,0.00017,0.00029,0.00115,0.00066,4e-05,-7e-05,0,5,31
17779,0.0003,0.00017,0.00029,0.00115,0.00066,4e-05,-7e-05,0,5,31
17780,0.00025,-0.00012,-6e-05,-0.00018,-0.00051,-0.00014,-3e-05,0,5,31
17781,6e-05,-1e-05,-0.00022,-0.00022,0.00012,0.00011,-3e-05,-1e-05,5,31
17782,0,0.00023,0.00017,0,0.00011,5e-05,0.00013,4e-05,5,31
17783,0,0.00023,0.00017,0,0.00011,5e-05,0.00013,4e-05,5,31
17785,0,0.00023,0.00017,0,0.00011,5e-05,0.00013,4e-05,5,31
17786,0,0.00023,0.00017,0,0.00011,5e-05,0.00013,4e-05,5,31
17788,0,0.00023,0.00017,0,0.00011,5e-05,0.00013,4e-05,5,31
17789,0,0.00023,0.00017,0,0.00011,5e-05,0.00013,4e-05,5,31
17790,0,0.00023,0.00017,0,0.00011,5e-05,0.00013,4e-05,5,31
17791,0,0.00023,0.00017,0,0.00011,5e-05,0.00013,4e-05,5,31
17792,0,0.00023,0.00017,0,0.00011,5e-05,0.00013,4e-05,5,31
17793,0,0.00023,0.00017,0,0.00011,5e-05,0.00013,4e-05,5,31
17794,-5e-05,6e-05,-0.00012,6e-05,0.00036,0.00015,0.00014,3e-05,5,31
17795,-5e-05,6e-05,-0.00012,6e-05,0.00036,0.00015,0.00014,3e-05,5,31
17796,-5e-05,6e-05,-0.00012,6e-05,0.00036,0.00015,0.00014,3e-05,5,31
17797,-5e-05,6e-05,-0.00012,6e-05,0.00036,0.00015,0.00014,3e-05,5,31
17798,-5e-05,6e-05,-0.00012,6e-05,0.00036,0.00015,0.00014,3e-05,5,31
17799,-5e-05,6e-05,-0.00012,6e-05,0.00036,0.00015,0.00014,3e-05,5,31
17800,-5e-05,6e-05,-0.00012,6e-05,0.00036,0.00015,0.00014,3e-05,5,31
17801,-5e-05,6e-05,-0.00012,6e-05,0.00036,0.00015,0.00014,3e-05,5,31
17802,-5e-05,6e-05,-0.00012,6e-05,0.00036,0.00015,0.00014,3e-05,5,31
17803,0.00016,7e-05,0,0.00028,-0.00026,9e-05,-2e-05,3e-05,5,31
17804,0.00016,7e-05,0,0.00028,-0.00026,9e-05,-2e-05,3e-05,5,31
17805,0.00016,7e-05,0,0.00028,-0.00026,9e-05,-2e-05,3e-05,5,31
17806,0.00016,7e-05,0,0.00028,-0.00026,9e-05,-2e-05,3e-05,5,31
17807,0.00016,7e-05,0,0.00028,-0.00026,9e-05,-2e-05,3e-05,5,31
17808,0.00016,7e-05,0,0.00028,-0.00026,9e-05,-2e-05,3e-05,5,31
17809,0.00016,7e-05,0,0.00028,-0.00026,9e-05,-2e-05,3e-05,5,31
17810,0.00016,7e-05,0,0.00028,-0.00026,9e-05,-2e-05,3e-05,5,31
17811,0.00016,7e-05,0,0.00028,-0.00026,9e-05,-2e-05,3e-05,5,31
17812,0.00016,7e-05,0,0.00028,-0.00026,9e-05,-2e-05,3e-05,5,31
17813,0.00016,7e-05,0,0.00028,-0.00026,9e-05,-2e-05,3e-05,5,31
17814,0.00016,7e-05,0,0.00028,-0.00026,9e-05,-2e-05,3e-05,5,31
17815,0.00016,7e-05,0,0.00028,-0.00026,9e-05,-2e-05,3e-05,5,31
17816,0.00016,7e-05,0,0.00028,-0.00026,9e-05,-2e-05,3e-05,5,31
17817,2e-05,-2e-05,0.00016,0.00021,0.00014,0.00022,5e-05,1e-05,5,31
17818,-6e-05,7e-05,5e-05,-0.00068,-0.00073,-0.00021,-2e-05,2e-05,5,31
17819,-0.00016,0.00022,0.00011,-7e-05,0.00063,2e-05,-1e-05,-1e-05,5,31
17820,-0.00016,0.00022,0.00011,-7e-05,0.00063,2e-05,-1e-05,-1e-05,5,31
17821,-0.00016,0.00022,0.00011,-7e-05,0.00063,2e-05,-1e-05,-1e-05,5,31
17822,-0.00016,0.00022,0.00011,-7e-05,0.00063,2e-05,-1e-05,-1e-05,5,31
17823,-0.00016,0.00022,0.00011,-7e-05,0.00063,2e-05,-1e-05,-1e-05,5,31
17824,-0.00016,0.00022,0.00011,-7e-05,0.00063,2e-05,-1e-05,-1e-05,5,31
17825,-0.00016,0.00022,0.00011,-7e-05,0.00063,2e-05,-1e-05,-1e-05,5,31
17826,-0.00016,0.00022,0.00011,-7e-05,0.00063,2e-05,-1e-05,-1e-05,5,31
17827,-0.00016,0.00022,0.00011,-7e-05,0.00063,2e-05,-1e-05,-1e-05,5,31
17828,-0.00016,0.00022,0.00011,-7e-05,0.00063,2e-05,-1e-05,-1e-05,5,31
17829,-0.00016,0.00022,0.00011,-7e-05,0.00063,2e-05,-1e-05,-1e-05,5,31
17830,-0.00016,0.00022,0.00011,-7e-05,0.00063,2e-05,-1e-05,-1e-05,5,31
17831,-0.00016,0.00022,0.00011,-7e-05,0.00063,2e-05,-1e-05,-1e-05,5,31
17832,-0.00016,0.00022,0.00011,-7e-05,0.00063,2e-05,-1e-05,-1e-05,5,31
17833,-0.00016,0.00022,0.00011,-7e-05,0.00063,2e-05,-1e-05,-1e-05,5,31
17834,-0.00016,0.00022,0.00011,-7e-05,0.00063,2e-05,-1e-05,-1e-05,5,31
17835,-0.00016,0.00022,0.00011,-7e-05,0.00063,2e-05,-1e-05,-1e-05,5,31
17836,-0.00016,0.00022,0.00011,-7e-05,0.00063,2e-05,-1e-05,-1e-05,5,31
17839,-0.00016,0.00022,0.00011,-7e-05,0.00063,2e-05,-1e-05,-1e-05,5,31
17840,-3e-05,-0.00017,-9e-05,-4e-05,-0.00035,-0.0001,-3e-05,2e-05,5,31
17841,4e-05,3e-05,-0.00019,-8e-05,0.00016,-0.00017,-5e-05,-5e-05,5,31
17842,-0.00025,8e-05,4e-05,6e-05,0.00011,-9e-05,-4e-05,-4e-05,5,31
17843,-0.00025,8e-05,4e-05,6e-05,0.00011,-9e-05,-4e-05,-4e-05,5,31
17845,-0.00025,8e-05,4e-05,6e-05,0.00011,-9e-05,-4e-05,-4e-05,5,31
17846,-0.00025,8e-05,4e-05,6e-05,0.00011,-9e-05,-4e-05,-4e-05,5,31
17847,-0.00025,8e-05,4e-05,6e-05,0.00011,-9e-05,-4e-05,-4e-05,5,31
17848,-0.00025,8e-05,4e-05,6e-05,0.00011,-9e-05,-4e-05,-4e-05,5,31
17849,-0.00025,8e-05,4e-05,6e-05,0.00011,-9e-05,-4e-05,-4e-05,5,31
17850,-0.00025,8e-05,4e-05,6e-05,0.00011,-9e-05,-4e-05,-4e-05,5,31
17851,-0.00025,8e-05,4e-05,6e-05,0.00011,-9e-05,-4e-05,-4e-05,5,31
17852,-0.00025,8e-05,4e-05,6e-05,0.00011,-9e-05,-4e-05,-4e-05,5,31
17853,-0.00025,8e-05,4e-05,6e-05,0.00011,-9e-05,-4e-05,-4e-05,5,31
17854,-0.00022,4e-05,0.00011,0.00044,0.00088,0.00018,2e-05,-3e-05,5,31
17855,-0.00022,4e-05,0.00011,0.00044,0.00088,0.00018,2e-05,-3e-05,5,31
17856,-0.00022,4e-05,0.00011,0.00044,0.00088,0.00018,2e-05,-3e-05,5,31
17857,-0.00022,4e-05,0.00011,0.00044,0.00088,0.00018,2e-05,-3e-05,5,31
17858,-0.00022,4e-05,0.00011,0.00044,0.00088,0.00018,2e-05,-3e-05,5,31
17859,-0.00022,4e-05,0.00011,0.00044,0.00088,0.00018,2e-05,-3e-05,5,31
17860,-0.00022,4e-05,0.00011,0.00044,0.00088,0.00018,2e-05,-3e-05,5,31
17861,-0.00022,4e-05,0.00011,0.00044,0.00088,0.00018,2e-05,-3e-05,5,31
17862,-0.00022,4e-05,0.00011,0.00044,0.00088,0.00018,2e-05,-3e-05,5,31
17863,7e-05,-2e-05,4e-05,-0.00054,0.00016,0.00027,-1e-05,2e-05,5,31
17864,7e-05,-2e-05,4e-05,-0.00054,0.00016,0.00027,-1e-05,2e-05,5,31
17865,7e-05,-2e-05,4e-05,-0.00054,0.00016,0.00027,-1e-05,2e-05,5,31
17866,7e-05,-2e-05,4e-05,-0.00054,0.00016,0.00027,-1e-05,2e-05,5,31
17867,7e-05,-2e-05,4e-05,-0.00054,0.00016,0.00027,-1e-05,2e-05,5,31
17868,7e-05,-2e-05,4e-05,-0.00054,0.00016,0.00027,-1e-05,2e-05,5,31
17869,7e-05,-2e-05,4e-05,-0.00054,0.00016,0.00027,-1e-05,2e-05,5,31
17870,7e-05,-2e-05,4e-05,-0.00054,0.00016,0.00027,-1e-05,2e-05,5,31
17871,7e-05,-2e-05,4e-05,-0.00054,0.00016,0.00027,-1e-05,2e-05,5,31
17872,7e-05,-2e-05,4e-05,-0.00054,0.00016,0.00027,-1e-05,2e-05,5,31
17873,7e-05,-2e-05,4e-05,-0.00054,0.00016,0.00027,-1e-05,2e-05,5,31
17874,7e-05,-2e-05,4e-05,-0.00054,0.00016,0.00027,-1e-05,2e-05,5,31
17875,7e-05,-2e-05,4e-05,-0.00054,0.00016,0.00027,-1e-05,2e-05,5,31
17876,7e-05,-2e-05,4e-05,-0.00054,0.00016,0.00027,-1e-05,2e-05,5,31
17877,7e-05,-2e-05,4e-05,-0.00054,0.00016,0.00027,-1e-05,2e-05,5,31
17878,-0.00012,-0.00026,-0.0001,-0.00015,0.00041,-0.00011,-5e-05,-4e-05,5,31
17879,0,-6e-05,4e-05,-0.00012,-0.00082,0.00012,6e-05,-3e-05,5,31
17880,0,-6e-05,4e-05,-0.00012,-0.00082,0.00012,6e-05,-3e-05,5,31
17881,0,-6e-05,4e-05,-0.00012,-0.00082,0.00012,6e-05,-3e-05,5,31
17882,0,-6e-05,4e-05,-0.00012,-0.00082,0.00012,6e-05,-3e-05,5,31
17883,0,-6e-05,4e-05,-0.00012,-0.00082,0.00012,6e-05,-3e-05,5,31
17884,0,-6e-05,4e-05,-0.00012,-0.00082,0.00012,6e-05,-3e-05,5,31
17885,0,-6e-05,4e-05,-0.00012,-0.00082,0.00012,6e-05,-3e-05,5,31
17886,0,-6e-05,4e-05,-0.00012,-0.00082,0.00012,6e-05,-3e-05,5,31
17888,0,-6e-05,4e-05,-0.00012,-0.00082,0.00012,6e-05,-3e-05,5,31
17889,0,-6e-05,4e-05,-0.00012,-0.00082,0.00012,6e-05,-3e-05,5,31
17890,0,-6e-05,4e-05,-0.00012,-0.00082,0.00012,6e-05,-3e-05,5,31
17891,0,-6e-05,4e-05,-0.00012,-0.00082,0.00012,6e-05,-3e-05,5,31
17892,0,-6e-05,4e-05,-0.00012,-0.00082,0.00012,6e-05,-3e-05,5,31
17893,0,-6e-05,4e-05,-0.00012,-0.00082,0.00012,6e-05,-3e-05,5,31
17894,0,-6e-05,4e-05,-0.00012,-0.00082,0.00012,6e-05,-3e-05,5,31
17895,0,-6e-05,4e-05,-0.00012,-0.00082,0.00012,6e-05,-3e-05,5,31
17896,0,-6e-05,4e-05,-0.00012,-0.00082,0.00012,6e-05,-3e-05,5,31
17897,0,-6e-05,4e-05,-0.00012,-0.00082,0.00012,6e-05,-3e-05,5,31
17898,0,-6e-05,4e-05,-0.00012,-0.00082,0.00012,6e-05,-3e-05,5,31
17899,0,-6e-05,4e-05,-0.00012,-0.00082,0.00012,6e-05,-3e-05,5,31
17900,-0.00012,-8e-05,-0.00022,-0.00034,0.00012,-5e-05,3e-05,0,5,31
17901,0.0003,6e-05,2e-05,0.00042,-3e-05,-2e-05,-2e-05,2e-05,5,31
17902,0.00028,0.00012,0.00023,0.0005,0.00041,-0.0002,-6e-05,-4e-05,5,31
17903,0.00028,0.00012,0.00023,0.0005,0.00041,-0.0002,-6e-05,-4e-05,5,31
17905,0.00028,0.00012,0.00023,0.0005,0.00041,-0.0002,-6e-05,-4e-05,5,31
17906,0.00028,0.00012,0.00023,0.0005,0.00041,-0.0002,-6e-05,-4e-05,5,31
17907,0.00028,0.00012,0.00023,0.0005,0.00041,-0.0002,-6e-05,-4e-05,5,31
17908,0.00028,0.00012,0.00023,0.0005,0.00041,-0.0002,-6e-05,-4e-05,5,31
17909,0.00028,0.00012,0.00023,0.0005,0.00041,-0.0002,-6e-05,-4e-05,5,31
17910,0.00028,0.00012,0.00023,0.0005,0.00041,-0.0002,-6e-05,-4e-05,5,31
17911,0.00028,0.00012,0.00023,0.0005,0.00041,-0.0002,-6e-05,-4e-05,5,31
17912,0.00028,0.00012,0.00023,0.0005,0.00041,-0.0002,-6e-05,-4e-05,5,31
17913,0.00028,0.00012,0.00023,0.0005,0.00041,-0.0002,-6e-05,-4e-05,5,31
17914,-0.00022,-1e-05,3e-05,0.00024,-0.0001,9e-05,6e-05,-3e-05,5,31
17915,-0.00022,-1e-05,3e-05,0.00024,-0.0001,9e-05,6e-05,-3e-05,5,31
17916,-0.00022,-1e-05,3e-05,0.00024,-0.0001,9e-05,6e-05,-3e-05,5,31
17917,-0.00022,-1e-05,3e-05,0.00024,-0.0001,9e-05,6e-05,-3e-05,5,31
17918,-0.00022,-1e-05,3e-05,0.00024,-0.0001,9e-05,6e-05,-3e-05,5,31
17919,-0.00022,-1e-05,3e-05,0.00024,-0.0001,9e-05,6e-05,-3e-05,5,31
17920,-0.00022,-1e-05,3e-05,0.00024,-0.0001,9e-05,6e-05,-3e-05,5,31
17921,-0.00022,-1e-05,3e-05,0.00024,-0.0001,9e-05,6e-05,-3e-05,5,31
17922,-0.00022,-1e-05,3e-05,0.00024,-0.0001,9e-05,6e-05,-3e-05,5,31
17923,0.00011,9e-05,4e-05,0.00041,-6e-05,-2e-05,0,6e-05,5,31
17924,0.00011,9e-05,4e-05,0.00041,-6e-05,-2e-05,0,6e-05,5,31
17925,0.00011,9e-05,4e-05,0.00041,-6e-05,-2e-05,0,6e-05,5,31
17926,0.00011,9e-05,4e-05,0.00041,-6e-05,-2e-05,0,6e-05,5,31
17927,0.00011,9e-05,4e-05,0.00041,-6e-05,-2e-05,0,6e-05,5,31
17928,0.00011,9e-05,4e-05,0.00041,-6e-05,-2e-05,0,6e-05,5,31
17929,0.00011,9e-05,4e-05,0.00041,-6e-05,-2e-05,0,6e-05,5,31
17930,0.00011,9e-05,4e-05,0.00041,-6e-05,-2e-05,0,6e-05,5,31
17931,0.00011,9e-05,4e-05,0.00041,-6e-05,-2e-05,0,6e-05,5,31
17932,0.00011,9e-05,4e-05,0.00041,-6e-05,-2e-05,0,6e-05,5,31
17933,0.00011,9e-05,4e-05,0.00041,-6e-05,-2e-05,0,6e-05,5,31
17935,0.00011,9e-05,4e-05,0.00041,-6e-05,-2e-05,0,6e-05,5,31
17936,0.00011,9e-05,4e-05,0.00041,-6e-05,-2e-05,0,6e-05,5,31
17939,-0.00013,-2e-05,3e-05,-0.00015,-0.0003,-0.00019,1e-05,-1e-05,5,31
17940,-0.0001,-5e-05,-0.00017,-0.00094,-0.00029,-0.00035,6e-05,3e-05,5,31
17941,-0.0001,-5e-05,-0.00017,-0.00094,-0.00029,-0.00035,6e-05,3e-05,5,31
17942,-0.0001,-5e-05,-0.00017,-0.00094,-0.00029,-0.00035,6e-05,3e-05,5,31
17943,-0.0001,-5e-05,-0.00017,-0.00094,-0.00029,-0.00035,6e-05,3e-05,5,31
17944,-0.0001,-5e-05,-0.00017,-0.00094,-0.00029,-0.00035,6e-05,3e-05,5,31
17945,-0.0001,-5e-05,-0.00017,-0.00094,-0.00029,-0.00035,6e-05,3e-05,5,31
17946,-0.0001,-5e-05,-0.00017,-0.00094,-0.00029,-0.00035,6e-05,3e-05,5,31
17947,-0.0001,-5e-05,-0.00017,-0.00094,-0.00029,-0.00035,6e-05,3e-05,5,31
17948,-0.0001,-5e-05,-0.00017,-0.00094,-0.00029,-0.00035,6e-05,3e-05,5,31
17949,-0.0001,-5e-05,-0.00017,-0.00094,-0.00029,-0.00035,6e-05,3e-05,5,31
17950,-0.0001,-5e-05,-0.00017,-0.00094,-0.00029,-0.00035,6e-05,3e-05,5,31
17951,-0.0001,-5e-05,-0.00017,-0.00094,-0.00029,-0.00035,6e-05,3e-05,5,31
17952,-0.0001,-5e-05,-0.00017,-0.00094,-0.00029,-0.00035,6e-05,3e-05,5,31
17953,-0.0001,-5e-05,-0.00017,-0.00094,-0.00029,-0.00035,6e-05,3e-05,5,31
17955,-0.0001,-5e-05,-0.00017,-0.00094,-0.00029,-0.00035,6e-05,3e-05,5,31
17956,-0.0001,-5e-05,-0.00017,-0.00094,-0.00029,-0.00035,6e-05,3e-05,5,31
17957,-0.0001,-5e-05,-0.00017,-0.00094,-0.00029,-0.00035,6e-05,3e-05,5,31
17958,-0.0001,-5e-05,-0.00017,-0.00094,-0.00029,-0.00035,6e-05,3e-05,5,31
17959,-0.0001,-5e-05,-0.00017,-0.00094,-0.00029,-0.00035,6e-05,3e-05,5,31
17960,-1e-05,-4e-05,-9e-05,-1e-05,0.00023,0.00023,0.00011,3e-05,5,31
17961,-1e-05,-4e-05,-9e-05,-1e-05,0.00023,0.00023,0.00011,3e-05,5,31
17962,2e-05,8e-05,-0.00022,-0.00052,-0.00034,1e-05,0,3e-05,5,31
17963,2e-05,8e-05,-0.00022,-0.00052,-0.00034,1e-05,0,3e-05,5,31
17965,2e-05,8e-05,-0.00022,-0.00052,-0.00034,1e-05,0,3e-05,5,31
17966,2e-05,8e-05,-0.00022,-0.00052,-0.00034,1e-05,0,3e-05,5,31
17967,2e-05,8e-05,-0.00022,-0.00052,-0.00034,1e-05,0,3e-05,5,31
17968,2e-05,8e-05,-0.00022,-0.00052,-0.00034,1e-05,0,3e-05,5,31
17969,2e-05,8e-05,-0.00022,-0.00052,-0.00034,1e-05,0,3e-05,5,31
17970,2e-05,8e-05,-0.00022,-0.00052,-0.00034,1e-05,0,3e-05,5,31
17971,2e-05,8e-05,-0.00022,-0.00052,-0.00034,1e-05,0,3e-05,5,31
17972,2e-05,8e-05,-0.00022,-0.00052,-0.00034,1e-05,0,3e-05,5,31
17973,2e-05,8e-05,-0.00022,-0.00052,-0.00034,1e-05,0,3e-05,5,31
17974,-3e-05,-5e-05,4e-05,0.00039,-0.00026,-0.00017,-9e-05,-7e-05,5,31
17975,5e-05,-7e-05,-6e-05,5e-05,0.00018,0.00033,3e-05,1e-05,5,31
17976,5e-05,-7e-05,-6e-05,5e-05,0.00018,0.00033,3e-05,1e-05,5,31
17977,5e-05,-7e-05,-6e-05,5e-05,0.00018,0.00033,3e-05,1e-05,5,31
17978,5e-05,-7e-05,-6e-05,5e-05,0.00018,0.00033,3e-05,1e-05,5,31
17979,5e-05,-7e-05,-6e-05,5e-05,0.00018,0.00033,3e-05,1e-05,5,31
17980,5e-05,-7e-05,-6e-05,5e-05,0.00018,0.00033,3e-05,1e-05,5,31
17981,5e-05,-7e-05,-6e-05,5e-05,0.00018,0.00033,3e-05,1e-05,5,31
17982,5e-05,-7e-05,-6e-05,5e-05,0.00018,0.00033,3e-05,1e-05,5,31
17983,-0.00023,-4e-05,4e-05,5e-05,0.0001,6e-05,-2e-05,-4e-05,5,31
17984,-0.00023,-4e-05,4e-05,5e-05,0.0001,6e-05,-2e-05,-4e-05,5,31
17985,-0.00023,-4e-05,4e-05,5e-05,0.0001,6e-05,-2e-05,-4e-05,5,31
17986,-0.00023,-4e-05,4e-05,5e-05,0.0001,6e-05,-2e-05,-4e-05,5,31
17988,-0.00023,-4e-05,4e-05,5e-05,0.0001,6e-05,-2e-05,-4e-05,5,31
17989,-0.00023,-4e-05,4e-05,5e-05,0.0001,6e-05,-2e-05,-4e-05,5,31
17990,-0.00023,-4e-05,4e-05,5e-05,0.0001,6e-05,-2e-05,-4e-05,5,31
17991,-0.00023,-4e-05,4e-05,5e-05,0.0001,6e-05,-2e-05,-4e-05,5,31
17992,-0.00023,-4e-05,4e-05,5e-05,0.0001,6e-05,-2e-05,-4e-05,5,31
17993,-0.00023,-4e-05,4e-05,5e-05,0.0001,6e-05,-2e-05,-4e-05,5,31
17994,-0.00023,-4e-05,4e-05,5e-05,0.0001,6e-05,-2e-05,-4e-05,5,31
17995,-0.00023,-4e-05,4e-05,5e-05,0.0001,6e-05,-2e-05,-4e-05,5,31
17996,-0.00023,-4e-05,4e-05,5e-05,0.0001,6e-05,-2e-05,-4e-05,5,31
17997,0.00034,1e-05,0.00014,0.00053,0.0002,-2e-05,-2e-05,3e-05,5,31
17998,-1e-05,0.00019,-8e-05,-0.00067,-0.00036,-0.00013,-0.00012,-5e-05,5,31
17999,9e-05,-4e-05,1e-05,-0.00015,3e-05,2e-05,0,-3e-05,5,31
18000,9e-05,-4e-05,1e-05,-0.00015,3e-05,2e-05,0,-3e-05,5,31
18001,9e-05,-4e-05,1e-05,-0.00015,3e-05,2e-05,0,-3e-05,5,31
18002,9e-05,-4e-05,1e-05,-0.00015,3e-05,2e-05,0,-3e-05,5,31
18003,9e-05,-4e-05,1e-05,-0.00015,3e-05,2e-05,0,-3e-05,5,31
18004,9e-05,-4e-05,1e-05,-0.00015,3e-05,2e-05,0,-3e-05,5,31
18005,9e-05,-4e-05,1e-05,-0.00015,3e-05,2e-05,0,-3e-05,5,31
18006,9e-05,-4e-05,1e-05,-0.00015,3e-05,2e-05,0,-3e-05,5,31
18007,9e-05,-4e-05,1e-05,-0.00015,3e-05,2e-05,0,-3e-05,5,31
18008,9e-05,-4e-05,1e-05,-0.00015,3e-05,2e-05,0,-3e-05,5,31
18009,9e-05,-4e-05,1e-05,-0.00015,3e-05,2e-05,0,-3e-05,5,31
18010,9e-05,-4e-05,1e-05,-0.00015,3e-05,2e-05,0,-3e-05,5,31
18011,9e-05,-4e-05,1e-05,-0.00015,3e-05,2e-05,0,-3e-05,5,31
18012,9e-05,-4e-05,1e-05,-0.00015,3e-05,2e-05,0,-3e-05,5,31
18013,9e-05,-4e-05,1e-05,-0.00015,3e-05,2e-05,0,-3e-05,5,31
18014,9e-05,-4e-05,1e-05,-0.00015,3e-05,2e-05,0,-3e-05,5,31
18015,9e-05,-4e-05,1e-05,-0.00015,3e-05,2e-05,0,-3e-05,5,31
18016,9e-05,-4e-05,1e-05,-0.00015,3e-05,2e-05,0,-3e-05,5,31
18017,9e-05,-4e-05,1e-05,-0.00015,3e-05,2e-05,0,-3e-05,5,31
18018,9e-05,-4e-05,1e-05,-0.00015,3e-05,2e-05,0,-3e-05,5,31
18019,9e-05,-4e-05,1e-05,-0.00015,3e-05,2e-05,0,-3e-05,5,31
18020,5e-05,0,-5e-05,-0.00062,-0.00078,-0.00039,-0.00013,-3e-05,5,31
18021,5e-05,0,-5e-05,-0.00062,-0.00078,-0.00039,-0.00013,-3e-05,5,31
18022,-0.00015,-0.00029,-0.00054,-0.00047,0.0002,4e-05,-0.0001,-7e-05,5,31
18023,-0.00015,-0.00029,-0.00054,-0.00047,0.0002,4e-05,-0.0001,-7e-05,5,31
18024,-0.00015,-0.00029,-0.00054,-0.00047,0.0002,4e-05,-0.0001,-7e-05,5,31
18025,-0.00015,-0.00029,-0.00054,-0.00047,0.0002,4e-05,-0.0001,-7e-05,5,31
18026,-0.00015,-0.00029,-0.00054,-0.00047,0.0002,4e-05,-0.0001,-7e-05,5,31
18027,-0.00015,-0.00029,-0.00054,-0.00047,0.0002,4e-05,-0.0001,-7e-05,5,31
18028,-0.00015,-0.00029,-0.00054,-0.00047,0.0002,4e-05,-0.0001,-7e-05,5,31
18029,-0.00015,-0.00029,-0.00054,-0.00047,0.0002,4e-05,-0.0001,-7e-05,5,31
18030,-0.00015,-0.00029,-0.00054,-0.00047,0.0002,4e-05,-0.0001,-7e-05,5,31
18031,-0.00015,-0.00029,-0.00054,-0.00047,0.0002,4e-05,-0.0001,-7e-05,5,31
18032,-0.00015,-0.00029,-0.00054,-0.00047,0.0002,4e-05,-0.0001,-7e-05,5,31
18033,-0.00015,-0.00029,-0.00054,-0.00047,0.0002,4e-05,-0.0001,-7e-05,5,31
18034,-0.00015,-0.00029,-0.00054,-0.00047,0.0002,4e-05,-0.0001,-7e-05,5,31
18035,-0.00015,-0.00029,-0.00054,-0.00047,0.0002,4e-05,-0.0001,-7e-05,5,31
18036,-0.00015,-0.00029,-0.00054,-0.00047,0.0002,4e-05,-0.0001,-7e-05,5,31
18038,-0.00015,-0.00029,-0.00054,-0.00047,0.0002,4e-05,-0.0001,-7e-05,5,31
18039,-0.00015,-0.00029,-0.00054,-0.00047,0.0002,4e-05,-0.0001,-7e-05,5,31
18040,-0.00015,-0.00029,-0.00054,-0.00047,0.0002,4e-05,-0.0001,-7e-05,5,31
18041,-0.00015,-0.00029,-0.00054,-0.00047,0.0002,4e-05,-0.0001,-7e-05,5,31
18042,-0.00015,-0.00029,-0.00054,-0.00047,0.0002,4e-05,-0.0001,-7e-05,5,31
18043,0.00025,0.00019,0.00016,0.00031,-7e-05,-0.00012,-6e-05,3e-05,5,31
18044,3e-05,0,0.00026,0.00042,-3e-05,-0.00019,-0.0001,-8e-05,5,31
18045,3e-05,0,0.00026,0.00042,-3e-05,-0.00019,-0.0001,-8e-05,5,31
18046,3e-05,0,0.00026,0.00042,-3e-05,-0.00019,-0.0001,-8e-05,5,31
18047,3e-05,0,0.00026,0.00042,-3e-05,-0.00019,-0.0001,-8e-05,5,31
18048,3e-05,0,0.00026,0.00042,-3e-05,-0.00019,-0.0001,-8e-05,5,31
18049,3e-05,0,0.00026,0.00042,-3e-05,-0.00019,-0.0001,-8e-05,5,31
18050,3e-05,0,0.00026,0.00042,-3e-05,-0.00019,-0.0001,-8e-05,5,31
18051,3e-05,0,0.00026,0.00042,-3e-05,-0.00019,-0.0001,-8e-05,5,31
18052,3e-05,0,0.00026,0.00042,-3e-05,-0.00019,-0.0001,-8e-05,5,31
18053,3e-05,0,0.00026,0.00042,-3e-05,-0.00019,-0.0001,-8e-05,5,31
18054,3e-05,0,0.00026,0.00042,-3e-05,-0.00019,-0.0001,-8e-05,5,31
18055,3e-05,0,0.00026,0.00042,-3e-05,-0.00019,-0.0001,-8e-05,5,31
18056,3e-05,0,0.00026,0.00042,-3e-05,-0.00019,-0.0001,-8e-05,5,31
18057,3e-05,0,0.00026,0.00042,-3e-05,-0.00019,-0.0001,-8e-05,5,31
18058,0.00015,-2e-05,-0.0002,6e-05,-0.00025,-0.00014,0.0001,-1e-05,5,31
18059,-0.0001,0,0.00011,0.00085,0.00085,0.00014,5e-05,2e-05,5,31
18060,-0.0001,0,0.00011,0.00085,0.00085,0.00014,5e-05,2e-05,5,31
18061,-0.0001,0,0.00011,0.00085,0.00085,0.00014,5e-05,2e-05,5,31
18062,-0.0001,0,0.00011,0.00085,0.00085,0.00014,5e-05,2e-05,5,31
18063,-0.0001,0,0.00011,0.00085,0.00085,0.00014,5e-05,2e-05,5,31
18064,-0.0001,0,0.00011,0.00085,0.00085,0.00014,5e-05,2e-05,5,31
18065,-0.0001,0,0.00011,0.00085,0.00085,0.00014,5e-05,2e-05,5,31
18066,-0.0001,0,0.00011,0.00085,0.00085,0.00014,5e-05,2e-05,5,31
18067,-0.0001,0,0.00011,0.00085,0.00085,0.00014,5e-05,2e-05,5,31
18068,-0.0001,0,0.00011,0.00085,0.00085,0.00014,5e-05,2e-05,5,31
18069,-0.0001,0,0.00011,0.00085,0.00085,0.00014,5e-05,2e-05,5,31
18070,-0.0001,0,0.00011,0.00085,0.00085,0.00014,5e-05,2e-05,5,31
18071,-0.0001,0,0.00011,0.00085,0.00085,0.00014,5e-05,2e-05,5,31
18072,-0.0001,0,0.00011,0.00085,0.00085,0.00014,5e-05,2e-05,5,31
18073,-0.0001,0,0.00011,0.00085,0.00085,0.00014,5e-05,2e-05,5,31
18074,-0.0001,0,0.00011,0.00085,0.00085,0.00014,5e-05,2e-05,5,31
18075,-0.0001,0,0.00011,0.00085,0.00085,0.00014,5e-05,2e-05,5,31
18076,-0.0001,0,0.00011,0.00085,0.00085,0.00014,5e-05,2e-05,5,31
18077,-0.0001,0,0.00011,0.00085,0.00085,0.00014,5e-05,2e-05,5,31
18078,-0.0001,0,0.00011,0.00085,0.00085,0.00014,5e-05,2e-05,5,31
18079,-0.0001,0,0.00011,0.00085,0.00085,0.00014,5e-05,2e-05,5,31
18080,-0.00017,-0.00022,-0.00018,-0.00066,-0.00026,2e-05,-4e-05,-5e-05,5,31
18081,-0.00017,-0.00022,-0.00018,-0.00066,-0.00026,2e-05,-4e-05,-5e-05,5,31
18082,-2e-05,-0.00015,-0.00014,-0.00056,-0.00074,-0.00037,-9e-05,-9e-05,5,31
18083,-2e-05,-0.00015,-0.00014,-0.00056,-0.00074,-0.00037,-9e-05,-9e-05,5,31
18084,-2e-05,-0.00015,-0.00014,-0.00056,-0.00074,-0.00037,-9e-05,-9e-05,5,31
18085,-2e-05,-0.00015,-0.00014,-0.00056,-0.00074,-0.00037,-9e-05,-9e-05,5,31
18086,-2e-05,-0.00015,-0.00014,-0.00056,-0.00074,-0.00037,-9e-05,-9e-05,5,31
18089,-2e-05,-0.00015,-0.00014,-0.00056,-0.00074,-0.00037,-9e-05,-9e-05,5,31
18091,-2e-05,-0.00015,-0.00014,-0.00056,-0.00074,-0.00037,-9e-05,-9e-05,5,31
18092,-2e-05,-0.00015,-0.00014,-0.00056,-0.00074,-0.00037,-9e-05,-9e-05,5,31
18093,-2e-05,-0.00015,-0.00014,-0.00056,-0.00074,-0.00037,-9e-05,-9e-05,5,31
18094,-0.00019,-6e-05,-0.00017,0.00087,0.00062,5e-05,-2e-05,-5e-05,5,31
18095,-0.00019,-6e-05,-0.00017,0.00087,0.00062,5e-05,-2e-05,-5e-05,5,31
18096,-0.00019,-6e-05,-0.00017,0.00087,0.00062,5e-05,-2e-05,-5e-05,5,31
18097,-0.00019,-6e-05,-0.00017,0.00087,0.00062,5e-05,-2e-05,-5e-05,5,31
18098,-0.00019,-6e-05,-0.00017,0.00087,0.00062,5e-05,-2e-05,-5e-05,5,31
18099,-0.00019,-6e-05,-0.00017,0.00087,0.00062,5e-05,-2e-05,-5e-05,5,31
18100,-0.00019,-6e-05,-0.00017,0.00087,0.00062,5e-05,-2e-05,-5e-05,5,31
18101,-0.00019,-6e-05,-0.00017,0.00087,0.00062,5e-05,-2e-05,-5e-05,5,31
18102,-0.00019,-6e-05,-0.00017,0.00087,0.00062,5e-05,-2e-05,-5e-05,5,31
18103,7e-05,-2e-05,-6e-05,-0.00014,-0.00029,0.0001,5e-05,3e-05,5,31
18104,7e-05,-2e-05,-6e-05,-0.00014,-0.00029,0.0001,5e-05,3e-05,5,31
18105,7e-05,-2e-05,-6e-05,-0.00014,-0.00029,0.0001,5e-05,3e-05,5,31
18106,7e-05,-2e-05,-6e-05,-0.00014,-0.00029,0.0001,5e-05,3e-05,5,31
18107,7e-05,-2e-05,-6e-05,-0.00014,-0.00029,0.0001,5e-05,3e-05,5,31
18108,7e-05,-2e-05,-6e-05,-0.00014,-0.00029,0.0001,5e-05,3e-05,5,31
18109,7e-05,-2e-05,-6e-05,-0.00014,-0.00029,0.0001,5e-05,3e-05,5,31
18110,7e-05,-2e-05,-6e-05,-0.00014,-0.00029,0.0001,5e-05,3e-05,5,31
18111,7e-05,-2e-05,-6e-05,-0.00014,-0.00029,0.0001,5e-05,3e-05,5,31
18112,7e-05,-2e-05,-6e-05,-0.00014,-0.00029,0.0001,5e-05,3e-05,5,31
18113,7e-05,-2e-05,-6e-05,-0.00014,-0.00029,0.0001,5e-05,3e-05,5,31
18114,7e-05,-2e-05,-6e-05,-0.00014,-0.00029,0.0001,5e-05,3e-05,5,31
18115,7e-05,-2e-05,-6e-05,-0.00014,-0.00029,0.0001,5e-05,3e-05,5,31
18116,7e-05,-2e-05,-6e-05,-0.00014,-0.00029,0.0001,5e-05,3e-05,5,31
18117,0.00018,-7e-05,-0.00013,-0.00069,-0.00063,-4e-05,5e-05,-2e-05,5,31
18118,-2e-05,0.0001,-4e-05,-0.00058,-0.00041,-0.00015,-3e-05,-6e-05,5,31
18119,0.00011,-4e-05,0.00012,0.0008,-0.00017,8e-05,-4e-05,-1e-05,5,31
18120,0.00011,-4e-05,0.00012,0.0008,-0.00017,8e-05,-4e-05,-1e-05,5,31
18121,0.00011,-4e-05,0.00012,0.0008,-0.00017,8e-05,-4e-05,-1e-05,5,31
18122,0.00011,-4e-05,0.00012,0.0008,-0.00017,8e-05,-4e-05,-1e-05,5,31
18123,0.00011,-4e-05,0.00012,0.0008,-0.00017,8e-05,-4e-05,-1e-05,5,31
18124,0.00011,-4e-05,0.00012,0.0008,-0.00017,8e-05,-4e-05,-1e-05,5,31
18125,0.00011,-4e-05,0.00012,0.0008,-0.00017,8e-05,-4e-05,-1e-05,5,31
18126,0.00011,-4e-05,0.00012,0.0008,-0.00017,8e-05,-4e-05,-1e-05,5,31
18127,0.00011,-4e-05,0.00012,0.0008,-0.00017,8e-05,-4e-05,-1e-05,5,31
18128,0.00011,-4e-05,0.00012,0.0008,-0.00017,8e-05,-4e-05,-1e-05,5,31
18129,0.00011,-4e-05,0.00012,0.0008,-0.00017,8e-05,-4e-05,-1e-05,5,31
18130,0.00011,-4e-05,0.00012,0.0008,-0.00017,8e-05,-4e-05,-1e-05,5,31
18131,0.00011,-4e-05,0.00012,0.0008,-0.00017,8e-05,-4e-05,-1e-05,5,31
18132,0.00011,-4e-05,0.00012,0.0008,-0.00017,8e-05,-4e-05,-1e-05,5,31
18133,0.00011,-4e-05,0.00012,0.0008,-0.00017,8e-05,-4e-05,-1e-05,5,31
18134,0.00011,-4e-05,0.00012,0.0008,-0.00017,8e-05,-4e-05,-1e-05,5,31
18135,0.00011,-4e-05,0.00012,0.0008,-0.00017,8e-05,-4e-05,-1e-05,5,31
18137,0.00011,-4e-05,0.00012,0.0008,-0.00017,8e-05,-4e-05,-1e-05,5,31
18140,0.00011,-4e-05,0.00012,0.0008,-0.00017,8e-05,-4e-05,-1e-05,5,31
18142,-8e-05,0.00029,2e-05,0.00038,0.0007,5e-05,-1e-05,5e-05,5,31
18143,-7e-05,-2e-05,-5e-05,0.00013,-4e-05,-0.00022,-8e-05,-4e-05,5,31
18144,-7e-05,-2e-05,-5e-05,0.00013,-4e-05,-0.00022,-8e-05,-4e-05,5,31
18145,-7e-05,-2e-05,-5e-05,0.00013,-4e-05,-0.00022,-8e-05,-4e-05,5,31
18146,-7e-05,-2e-05,-5e-05,0.00013,-4e-05,-0.00022,-8e-05,-4e-05,5,31
18147,-7e-05,-2e-05,-5e-05,0.00013,-4e-05,-0.00022,-8e-05,-4e-05,5,31
18148,-7e-05,-2e-05,-5e-05,0.00013,-4e-05,-0.00022,-8e-05,-4e-05,5,31
18149,-7e-05,-2e-05,-5e-05,0.00013,-4e-05,-0.00022,-8e-05,-4e-05,5,31
18150,-7e-05,-2e-05,-5e-05,0.00013,-4e-05,-0.00022,-8e-05,-4e-05,5,31
18151,-7e-05,-2e-05,-5e-05,0.00013,-4e-05,-0.00022,-8e-05,-4e-05,5,31
18152,-7e-05,-2e-05,-5e-05,0.00013,-4e-05,-0.00022,-8e-05,-4e-05,5,31
18153,-7e-05,-2e-05,-5e-05,0.00013,-4e-05,-0.00022,-8e-05,-4e-05,5,31
18154,-0.00016,-0.00017,7e-05,-0.00027,-0.00128,-0.0003,0,-5e-05,5,31
18155,-0.00016,-0.00017,7e-05,-0.00027,-0.00128,-0.0003,0,-5e-05,5,31
18156,-0.00016,-0.00017,7e-05,-0.00027,-0.00128,-0.0003,0,-5e-05,5,31
18157,-0.00016,-0.00017,7e-05,-0.00027,-0.00128,-0.0003,0,-5e-05,5,31
18158,-0.00016,-0.00017,7e-05,-0.00027,-0.00128,-0.0003,0,-5e-05,5,31
18159,-0.00016,-0.00017,7e-05,-0.00027,-0.00128,-0.0003,0,-5e-05,5,31
18160,-0.00016,-0.00017,7e-05,-0.00027,-0.00128,-0.0003,0,-5e-05,5,31
18161,-0.00016,-0.00017,7e-05,-0.00027,-0.00128,-0.0003,0,-5e-05,5,31
18162,-0.00016,-0.00017,7e-05,-0.00027,-0.00128,-0.0003,0,-5e-05,5,31
18163,-0.00015,-5e-05,5e-05,2e-05,-0.00038,-0.00012,-4e-05,-3e-05,5,31
18164,-0.00015,-5e-05,5e-05,2e-05,-0.00038,-0.00012,-4e-05,-3e-05,5,31
18165,-0.00015,-5e-05,5e-05,2e-05,-0.00038,-0.00012,-4e-05,-3e-05,5,31
18166,-0.00015,-5e-05,5e-05,2e-05,-0.00038,-0.00012,-4e-05,-3e-05,5,31
18167,-0.00015,-5e-05,5e-05,2e-05,-0.00038,-0.00012,-4e-05,-3e-05,5,31
18168,-0.00015,-5e-05,5e-05,2e-05,-0.00038,-0.00012,-4e-05,-3e-05,5,31
18169,-0.00015,-5e-05,5e-05,2e-05,-0.00038,-0.00012,-4e-05,-3e-05,5,31
18170,-0.00015,-5e-05,5e-05,2e-05,-0.00038,-0.00012,-4e-05,-3e-05,5,31
18171,-0.00015,-5e-05,5e-05,2e-05,-0.00038,-0.00012,-4e-05,-3e-05,5,31
18172,-0.00015,-5e-05,5e-05,2e-05,-0.00038,-0.00012,-4e-05,-3e-05,5,31
18173,-0.00015,-5e-05,5e-05,2e-05,-0.00038,-0.00012,-4e-05,-3e-05,5,31
18174,-0.00015,-5e-05,5e-05,2e-05,-0.00038,-0.00012,-4e-05,-3e-05,5,31
18175,-0.00015,-5e-05,5e-05,2e-05,-0.00038,-0.00012,-4e-05,-3e-05,5,31
18176,-0.00015,-5e-05,5e-05,2e-05,-0.00038,-0.00012,-4e-05,-3e-05,5,31
18177,2e-05,-3e-05,-2e-05,-4e-05,0.00047,0.00016,9e-05,6e-05,5,31
18178,-0.00015,-1e-05,-2e-05,0.00014,-0.00027,-0.00013,-0.00014,-0.00012,5,31
18179,-3e-05,-0.00015,-0.00025,-0.00057,-0.00022,-1e-05,6e-05,5e-05,5,31
18180,-3e-05,-0.00015,-0.00025,-0.00057,-0.00022,-1e-05,6e-05,5e-05,5,31
18181,-3e-05,-0.00015,-0.00025,-0.00057,-0.00022,-1e-05,6e-05,5e-05,5,31
18182,-3e-05,-0.00015,-0.00025,-0.00057,-0.00022,-1e-05,6e-05,5e-05,5,31
18183,-3e-05,-0.00015,-0.00025,-0.00057,-0.00022,-1e-05,6e-05,5e-05,5,31
18184,-3e-05,-0.00015,-0.00025,-0.00057,-0.00022,-1e-05,6e-05,5e-05,5,31
18185,-3e-05,-0.00015,-0.00025,-0.00057,-0.00022,-1e-05,6e-05,5e-05,5,31
18186,-3e-05,-0.00015,-0.00025,-0.00057,-0.00022,-1e-05,6e-05,5e-05,5,31
18188,-3e-05,-0.00015,-0.00025,-0.00057,-0.00022,-1e-05,6e-05,5e-05,5,31
18190,-3e-05,-0.00015,-0.00025,-0.00057,-0.00022,-1e-05,6e-05,5e-05,5,31
18191,-3e-05,-0.00015,-0.00025,-0.00057,-0.00022,-1e-05,6e-05,5e-05,5,31
18192,-3e-05,-0.00015,-0.00025,-0.00057,-0.00022,-1e-05,6e-05,5e-05,5,31
18193,-3e-05,-0.00015,-0.00025,-0.00057,-0.00022,-1e-05,6e-05,5e-05,5,31
18194,-3e-05,-0.00015,-0.00025,-0.00057,-0.00022,-1e-05,6e-05,5e-05,5,31
18195,-3e-05,-0.00015,-0.00025,-0.00057,-0.00022,-1e-05,6e-05,5e-05,5,31
18196,-3e-05,-0.00015,-0.00025,-0.00057,-0.00022,-1e-05,6e-05,5e-05,5,31
18197,-3e-05,-0.00015,-0.00025,-0.00057,-0.00022,-1e-05,6e-05,5e-05,5,31
18198,-3e-05,-0.00015,-0.00025,-0.00057,-0.00022,-1e-05,6e-05,5e-05,5,31
18199,-3e-05,-0.00015,-0.00025,-0.00057,-0.00022,-1e-05,6e-05,5e-05,5,31
18200,-7e-05,-0.00012,0.0003,0.00103,0.00043,9e-05,4e-05,-4e-05,5,31
18201,-0.00026,-0.00023,-0.00022,-0.00065,-0.00083,-0.00031,-0.00013,-6e-05,5,31
18202,0.00086,0.00031,1e-05,4e-05,0.00045,0.00013,0,6e-05,5,31
18203,0.00086,0.00031,1e-05,4e-05,0.00045,0.00013,0,6e-05,5,31
18204,0.00086,0.00031,1e-05,4e-05,0.00045,0.00013,0,6e-05,5,31
18205,0.00086,0.00031,1e-05,4e-05,0.00045,0.00013,0,6e-05,5,31
18206,0.00086,0.00031,1e-05,4e-05,0.00045,0.00013,0,6e-05,5,31
18207,0.00086,0.00031,1e-05,4e-05,0.00045,0.00013,0,6e-05,5,31
18208,0.00086,0.00031,1e-05,4e-05,0.00045,0.00013,0,6e-05,5,31
18209,0.00086,0.00031,1e-05,4e-05,0.00045,0.00013,0,6e-05,5,31
18210,0.00086,0.00031,1e-05,4e-05,0.00045,0.00013,0,6e-05,5,31
18211,0.00086,0.00031,1e-05,4e-05,0.00045,0.00013,0,6e-05,5,31
18212,0.00086,0.00031,1e-05,4e-05,0.00045,0.00013,0,6e-05,5,31
18213,0.00086,0.00031,1e-05,4e-05,0.00045,0.00013,0,6e-05,5,31
18214,-4e-05,-0.0001,-0.00014,-0.0011,-0.00059,4e-05,0.0001,4e-05,5,31
18215,-4e-05,-0.0001,-0.00014,-0.0011,-0.00059,4e-05,0.0001,4e-05,5,31
18216,-4e-05,-0.0001,-0.00014,-0.0011,-0.00059,4e-05,0.0001,4e-05,5,31
18217,-4e-05,-0.0001,-0.00014,-0.0011,-0.00059,4e-05,0.0001,4e-05,5,31
18218,-4e-05,-0.0001,-0.00014,-0.0011,-0.00059,4e-05,0.0001,4e-05,5,31
18219,-4e-05,-0.0001,-0.00014,-0.0011,-0.00059,4e-05,0.0001,4e-05,5,31
18220,-4e-05,-0.0001,-0.00014,-0.0011,-0.00059,4e-05,0.0001,4e-05,5,31
18221,-4e-05,-0.0001,-0.00014,-0.0011,-0.00059,4e-05,0.0001,4e-05,5,31
18222,-4e-05,-0.0001,-0.00014,-0.0011,-0.00059,4e-05,0.0001,4e-05,5,31
18223,-0.00018,-0.00022,-0.00018,-0.00041,-0.00092,-0.00019,-7e-05,-8e-05,5,31
18224,-0.00018,-0.00022,-0.00018,-0.00041,-0.00092,-0.00019,-7e-05,-8e-05,5,31
18225,-0.00018,-0.00022,-0.00018,-0.00041,-0.00092,-0.00019,-7e-05,-8e-05,5,31
18226,-0.00018,-0.00022,-0.00018,-0.00041,-0.00092,-0.00019,-7e-05,-8e-05,5,31
18227,-0.00018,-0.00022,-0.00018,-0.00041,-0.00092,-0.00019,-7e-05,-8e-05,5,31
18228,-0.00018,-0.00022,-0.00018,-0.00041,-0.00092,-0.00019,-7e-05,-8e-05,5,31
18229,-0.00018,-0.00022,-0.00018,-0.00041,-0.00092,-0.00019,-7e-05,-8e-05,5,31
18230,-0.00018,-0.00022,-0.00018,-0.00041,-0.00092,-0.00019,-7e-05,-8e-05,5,31
18231,-0.00018,-0.00022,-0.00018,-0.00041,-0.00092,-0.00019,-7e-05,-8e-05,5,31
18232,-0.00018,-0.00022,-0.00018,-0.00041,-0.00092,-0.00019,-7e-05,-8e-05,5,31
18233,-0.00018,-0.00022,-0.00018,-0.00041,-0.00092,-0.00019,-7e-05,-8e-05,5,31
18234,-0.00018,-0.00022,-0.00018,-0.00041,-0.00092,-0.00019,-7e-05,-8e-05,5,31
18235,-0.00018,-0.00022,-0.00018,-0.00041,-0.00092,-0.00019,-7e-05,-8e-05,5,31
18236,-0.00018,-0.00022,-0.00018,-0.00041,-0.00092,-0.00019,-7e-05,-8e-05,5,31
18239,-0.00011,7e-05,0.0003,0.00068,-5e-05,6e-05,-9e-05,-3e-05,5,31
18240,-0.00015,-4e-05,-0.00024,-0.00041,-1e-05,4e-05,2e-05,-1e-05,5,31
18241,-0.00015,-4e-05,-0.00024,-0.00041,-1e-05,4e-05,2e-05,-1e-05,5,31
18242,-0.00015,-4e-05,-0.00024,-0.00041,-1e-05,4e-05,2e-05,-1e-05,5,31
18243,-0.00015,-4e-05,-0.00024,-0.00041,-1e-05,4e-05,2e-05,-1e-05,5,31
18244,-0.00015,-4e-05,-0.00024,-0.00041,-1e-05,4e-05,2e-05,-1e-05,5,31
18245,-0.00015,-4e-05,-0.00024,-0.00041,-1e-05,4e-05,2e-05,-1e-05,5,31
18246,-0.00015,-4e-05,-0.00024,-0.00041,-1e-05,4e-05,2e-05,-1e-05,5,31
18247,-0.00015,-4e-05,-0.00024,-0.00041,-1e-05,4e-05,2e-05,-1e-05,5,31
18248,-0.00015,-4e-05,-0.00024,-0.00041,-1e-05,4e-05,2e-05,-1e-05,5,31
18249,-0.00015,-4e-05,-0.00024,-0.00041,-1e-05,4e-05,2e-05,-1e-05,5,31
18250,-0.00015,-4e-05,-0.00024,-0.00041,-1e-05,4e-05,2e-05,-1e-05,5,31
18251,-0.00015,-4e-05,-0.00024,-0.00041,-1e-05,4e-05,2e-05,-1e-05,5,31
18252,-0.00015,-4e-05,-0.00024,-0.00041,-1e-05,4e-05,2e-05,-1e-05,5,31
18253,-0.00015,-4e-05,-0.00024,-0.00041,-1e-05,4e-05,2e-05,-1e-05,5,31
18254,-0.00015,-4e-05,-0.00024,-0.00041,-1e-05,4e-05,2e-05,-1e-05,5,31
18255,-0.00015,-4e-05,-0.00024,-0.00041,-1e-05,4e-05,2e-05,-1e-05,5,31
18256,-0.00015,-4e-05,-0.00024,-0.00041,-1e-05,4e-05,2e-05,-1e-05,5,31
18257,-0.00015,-4e-05,-0.00024,-0.00041,-1e-05,4e-05,2e-05,-1e-05,5,31
18258,-0.00015,-4e-05,-0.00024,-0.00041,-1e-05,4e-05,2e-05,-1e-05,5,31
18259,-0.00015,-4e-05,-0.00024,-0.00041,-1e-05,4e-05,2e-05,-1e-05,5,31
18260,0.00011,4e-05,-0.00015,-0.00087,-0.00037,-8e-05,-7e-05,-1e-05,5,31
18261,0.00011,4e-05,-0.00015,-0.00087,-0.00037,-8e-05,-7e-05,-1e-05,5,31
18262,0.00016,1e-05,0,0.00034,0.00012,-5e-05,-1e-05,1e-05,5,31
18263,0.00016,1e-05,0,0.00034,0.00012,-5e-05,-1e-05,1e-05,5,31
18264,0.00016,1e-05,0,0.00034,0.00012,-5e-05,-1e-05,1e-05,5,31
18265,0.00016,1e-05,0,0.00034,0.00012,-5e-05,-1e-05,1e-05,5,31
18266,0.00016,1e-05,0,0.00034,0.00012,-5e-05,-1e-05,1e-05,5,31
18267,0.00016,1e-05,0,0.00034,0.00012,-5e-05,-1e-05,1e-05,5,31
18268,0.00016,1e-05,0,0.00034,0.00012,-5e-05,-1e-05,1e-05,5,31
18269,0.00016,1e-05,0,0.00034,0.00012,-5e-05,-1e-05,1e-05,5,31
18270,0.00016,1e-05,0,0.00034,0.00012,-5e-05,-1e-05,1e-05,5,31
18271,0.00016,1e-05,0,0.00034,0.00012,-5e-05,-1e-05,1e-05,5,31
18272,0.00016,1e-05,0,0.00034,0.00012,-5e-05,-1e-05,1e-05,5,31
18273,0.00016,1e-05,0,0.00034,0.00012,-5e-05,-1e-05,1e-05,5,31
18274,0.00016,1e-05,0,0.00034,0.00012,-5e-05,-1e-05,1e-05,5,31
18275,0.00016,1e-05,0,0.00034,0.00012,-5e-05,-1e-05,1e-05,5,31
18276,0.00016,1e-05,0,0.00034,0.00012,-5e-05,-1e-05,1e-05,5,31
18277,0.00016,1e-05,0,0.00034,0.00012,-5e-05,-1e-05,1e-05,5,31
18278,0.00016,1e-05,0,0.00034,0.00012,-5e-05,-1e-05,1e-05,5,31
18279,0.00016,1e-05,0,0.00034,0.00012,-5e-05,-1e-05,1e-05,5,31
18280,0.00016,1e-05,0,0.00034,0.00012,-5e-05,-1e-05,1e-05,5,31
18281,0.00016,1e-05,0,0.00034,0.00012,-5e-05,-1e-05,1e-05,5,31
18282,0.00018,0.00023,0.00027,-0.00062,0.00064,0.00041,0.00011,0.0001,5,31
18283,-0.00021,-5e-05,0.00021,-0.00015,-2e-05,4e-05,-6e-05,-5e-05,5,31
18284,-0.00021,-5e-05,0.00021,-0.00015,-2e-05,4e-05,-6e-05,-5e-05,5,31
18285,-0.00021,-5e-05,0.00021,-0.00015,-2e-05,4e-05,-6e-05,-5e-05,5,31
18286,-0.00021,-5e-05,0.00021,-0.00015,-2e-05,4e-05,-6e-05,-5e-05,5,31
18289,-0.00021,-5e-05,0.00021,-0.00015,-2e-05,4e-05,-6e-05,-5e-05,5,31
18290,-0.00021,-5e-05,0.00021,-0.00015,-2e-05,4e-05,-6e-05,-5e-05,5,31
18291,-0.00021,-5e-05,0.00021,-0.00015,-2e-05,4e-05,-6e-05,-5e-05,5,31
18292,-0.00021,-5e-05,0.00021,-0.00015,-2e-05,4e-05,-6e-05,-5e-05,5,31
18293,-0.00021,-5e-05,0.00021,-0.00015,-2e-05,4e-05,-6e-05,-5e-05,5,31
18294,-0.00021,-5e-05,0.00021,-0.00015,-2e-05,4e-05,-6e-05,-5e-05,5,31
18295,-0.00021,-5e-05,0.00021,-0.00015,-2e-05,4e-05,-6e-05,-5e-05,5,31
18296,-0.00021,-5e-05,0.00021,-0.00015,-2e-05,4e-05,-6e-05,-5e-05,5,31
18297,-0.00018,-0.00017,-2e-05,0.00014,0.00017,-0.00012,-8e-05,-0.00011,5,31
18298,-0.00033,-2e-05,8e-05,-0.00047,-0.0003,0.00014,9e-05,-1e-05,5,31
18299,-0.00033,-2e-05,8e-05,-0.00047,-0.0003,0.00014,9e-05,-1e-05,5,31
18300,-0.00033,-2e-05,8e-05,-0.00047,-0.0003,0.00014,9e-05,-1e-05,5,31
18301,-0.00033,-2e-05,8e-05,-0.00047,-0.0003,0.00014,9e-05,-1e-05,5,31
18302,-0.00033,-2e-05,8e-05,-0.00047,-0.0003,0.00014,9e-05,-1e-05,5,31
18303,-0.00033,-2e-05,8e-05,-0.00047,-0.0003,0.00014,9e-05,-1e-05,5,31
18304,-0.00033,-2e-05,8e-05,-0.00047,-0.0003,0.00014,9e-05,-1e-05,5,31
18305,-0.00033,-2e-05,8e-05,-0.00047,-0.0003,0.00014,9e-05,-1e-05,5,31
18306,-0.00033,-2e-05,8e-05,-0.00047,-0.0003,0.00014,9e-05,-1e-05,5,31
18307,-0.00033,-2e-05,8e-05,-0.00047,-0.0003,0.00014,9e-05,-1e-05,5,31
18308,-0.00033,-2e-05,8e-05,-0.00047,-0.0003,0.00014,9e-05,-1e-05,5,31
18309,-0.00033,-2e-05,8e-05,-0.00047,-0.0003,0.00014,9e-05,-1e-05,5,31
18310,-0.00033,-2e-05,8e-05,-0.00047,-0.0003,0.00014,9e-05,-1e-05,5,31
18311,-0.00033,-2e-05,8e-05,-0.00047,-0.0003,0.00014,9e-05,-1e-05,5,31
18312,-0.00033,-2e-05,8e-05,-0.00047,-0.0003,0.00014,9e-05,-1e-05,5,31
18313,-0.00033,-2e-05,8e-05,-0.00047,-0.0003,0.00014,9e-05,-1e-05,5,31
18314,-0.00033,-2e-05,8e-05,-0.00047,-0.0003,0.00014,9e-05,-1e-05,5,31
18315,-0.00033,-2e-05,8e-05,-0.00047,-0.0003,0.00014,9e-05,-1e-05,5,31
18316,-0.00033,-2e-05,8e-05,-0.00047,-0.0003,0.00014,9e-05,-1e-05,5,31
18317,-0.00033,-2e-05,8e-05,-0.00047,-0.0003,0.00014,9e-05,-1e-05,5,31
18318,-0.00033,-2e-05,8e-05,-0.00047,-0.0003,0.00014,9e-05,-1e-05,5,31
18319,-0.00033,-2e-05,8e-05,-0.00047,-0.0003,0.00014,9e-05,-1e-05,5,31
18320,0.00025,0.00028,0.00019,0.00093,5e-05,-0.00012,0.00011,0.00011,5,31
18321,0.00014,0.0001,0.0002,0.00085,0.00029,0.00012,8e-05,6e-05,5,31
18322,0.00014,0.0001,0.0002,0.00085,0.00029,0.00012,8e-05,6e-05,5,31
18323,0.00014,0.0001,0.0002,0.00085,0.00029,0.00012,8e-05,6e-05,5,31
18324,0.00014,0.0001,0.0002,0.00085,0.00029,0.00012,8e-05,6e-05,5,31
18325,0.00014,0.0001,0.0002,0.00085,0.00029,0.00012,8e-05,6e-05,5,31
18326,0.00014,0.0001,0.0002,0.00085,0.00029,0.00012,8e-05,6e-05,5,31
18327,0.00014,0.0001,0.0002,0.00085,0.00029,0.00012,8e-05,6e-05,5,31
18328,0.00014,0.0001,0.0002,0.00085,0.00029,0.00012,8e-05,6e-05,5,31
18329,0.00014,0.0001,0.0002,0.00085,0.00029,0.00012,8e-05,6e-05,5,31
18330,0.00014,0.0001,0.0002,0.00085,0.00029,0.00012,8e-05,6e-05,5,31
18331,0.00014,0.0001,0.0002,0.00085,0.00029,0.00012,8e-05,6e-05,5,31
18332,0.00014,0.0001,0.0002,0.00085,0.00029,0.00012,8e-05,6e-05,5,31
18333,0.00014,0.0001,0.0002,0.00085,0.00029,0.00012,8e-05,6e-05,5,31
18334,0.00014,0.0001,0.0002,0.00085,0.00029,0.00012,8e-05,6e-05,5,31
18335,0.00014,0.0001,0.0002,0.00085,0.00029,0.00012,8e-05,6e-05,5,31
18336,0.00014,0.0001,0.0002,0.00085,0.00029,0.00012,8e-05,6e-05,5,31
18339,0.00014,0.0001,0.0002,0.00085,0.00029,0.00012,8e-05,6e-05,5,31
18340,0.00014,0.0001,0.0002,0.00085,0.00029,0.00012,8e-05,6e-05,5,31
18341,0.00014,0.0001,0.0002,0.00085,0.00029,0.00012,8e-05,6e-05,5,31
18342,0.00014,0.0001,0.0002,0.00085,0.00029,0.00012,8e-05,6e-05,5,31
18343,-4e-05,0.00023,1e-05,0.00017,-0.00055,0.00013,0.00022,6e-05,5,31
18344,-4e-05,0.00023,1e-05,0.00017,-0.00055,0.00013,0.00022,6e-05,5,31
18345,-4e-05,0.00023,1e-05,0.00017,-0.00055,0.00013,0.00022,6e-05,5,31
18346,-4e-05,0.00023,1e-05,0.00017,-0.00055,0.00013,0.00022,6e-05,5,31
18347,-4e-05,0.00023,1e-05,0.00017,-0.00055,0.00013,0.00022,6e-05,5,31
18348,-4e-05,0.00023,1e-05,0.00017,-0.00055,0.00013,0.00022,6e-05,5,31
18349,-4e-05,0.00023,1e-05,0.00017,-0.00055,0.00013,0.00022,6e-05,5,31
18350,-4e-05,0.00023,1e-05,0.00017,-0.00055,0.00013,0.00022,6e-05,5,31
18351,-4e-05,0.00023,1e-05,0.00017,-0.00055,0.00013,0.00022,6e-05,5,31
18352,-4e-05,0.00023,1e-05,0.00017,-0.00055,0.00013,0.00022,6e-05,5,31
18354,-4e-05,0.00023,1e-05,0.00017,-0.00055,0.00013,0.00022,6e-05,5,31
18355,-4e-05,0.00023,1e-05,0.00017,-0.00055,0.00013,0.00022,6e-05,5,31
18356,-4e-05,0.00023,1e-05,0.00017,-0.00055,0.00013,0.00022,6e-05,5,31
18357,-0.00014,-1e-05,-6e-05,-5e-05,-8e-05,5e-05,-2e-05,0,5,31
18358,0.0002,-0.00015,-2e-05,-0.00056,3e-05,0.00017,7e-05,2e-05,5,31
18359,-0.00036,-0.00018,-8e-05,-0.00018,3e-05,-0.00028,-0.00025,-0.00017,5,31
18360,-0.00036,-0.00018,-8e-05,-0.00018,3e-05,-0.00028,-0.00025,-0.00017,5,31
18361,-0.00036,-0.00018,-8e-05,-0.00018,3e-05,-0.00028,-0.00025,-0.00017,5,31
18362,-0.00036,-0.00018,-8e-05,-0.00018,3e-05,-0.00028,-0.00025,-0.00017,5,31
18363,-0.00036,-0.00018,-8e-05,-0.00018,3e-05,-0.00028,-0.00025,-0.00017,5,31
18364,-0.00036,-0.00018,-8e-05,-0.00018,3e-05,-0.00028,-0.00025,-0.00017,5,31
18365,-0.00036,-0.00018,-8e-05,-0.00018,3e-05,-0.00028,-0.00025,-0.00017,5,31
18366,-0.00036,-0.00018,-8e-05,-0.00018,3e-05,-0.00028,-0.00025,-0.00017,5,31
18367,-0.00036,-0.00018,-8e-05,-0.00018,3e-05,-0.00028,-0.00025,-0.00017,5,31
18368,-0.00036,-0.00018,-8e-05,-0.00018,3e-05,-0.00028,-0.00025,-0.00017,5,31
18369,-0.00036,-0.00018,-8e-05,-0.00018,3e-05,-0.00028,-0.00025,-0.00017,5,31
18370,-0.00036,-0.00018,-8e-05,-0.00018,3e-05,-0.00028,-0.00025,-0.00017,5,31
18371,-0.00036,-0.00018,-8e-05,-0.00018,3e-05,-0.00028,-0.00025,-0.00017,5,31
18372,-0.00036,-0.00018,-8e-05,-0.00018,3e-05,-0.00028,-0.00025,-0.00017,5,31
18373,-0.00036,-0.00018,-8e-05,-0.00018,3e-05,-0.00028,-0.00025,-0.00017,5,31
18374,-0.00036,-0.00018,-8e-05,-0.00018,3e-05,-0.00028,-0.00025,-0.00017,5,31
18375,-0.00036,-0.00018,-8e-05,-0.00018,3e-05,-0.00028,-0.00025,-0.00017,5,31
18376,-0.00036,-0.00018,-8e-05,-0.00018,3e-05,-0.00028,-0.00025,-0.00017,5,31
18377,-0.00036,-0.00018,-8e-05,-0.00018,3e-05,-0.00028,-0.00025,-0.00017,5,31
18378,-0.00036,-0.00018,-8e-05,-0.00018,3e-05,-0.00028,-0.00025,-0.00017,5,31
18379,0.00028,0.00024,0.0002,-0.00021,0.00012,0.00021,0.00013,0.00011,5,31
18380,-5e-05,3e-05,0.0001,-9e-05,0.00087,0.00031,6e-05,1e-05,5,31
18381,-5e-05,3e-05,0.0001,-9e-05,0.00087,0.00031,6e-05,1e-05,5,31
18382,-5e-05,3e-05,0.0001,-9e-05,0.00087,0.00031,6e-05,1e-05,5,31
18383,-5e-05,3e-05,0.0001,-9e-05,0.00087,0.00031,6e-05,1e-05,5,31
18385,-5e-05,3e-05,0.0001,-9e-05,0.00087,0.00031,6e-05,1e-05,5,31
18386,-5e-05,3e-05,0.0001,-9e-05,0.00087,0.00031,6e-05,1e-05,5,31
18389,-5e-05,3e-05,0.0001,-9e-05,0.00087,0.00031,6e-05,1e-05,5,31
18390,-5e-05,3e-05,0.0001,-9e-05,0.00087,0.00031,6e-05,1e-05,5,31
18391,-5e-05,3e-05,0.0001,-9e-05,0.00087,0.00031,6e-05,1e-05,5,31
18392,-5e-05,3e-05,0.0001,-9e-05,0.00087,0.00031,6e-05,1e-05,5,31
18393,-5e-05,3e-05,0.0001,-9e-05,0.00087,0.00031,6e-05,1e-05,5,31
18394,-5e-05,3e-05,0.0001,-9e-05,0.00087,0.00031,6e-05,1e-05,5,31
18395,-5e-05,3e-05,0.0001,-9e-05,0.00087,0.00031,6e-05,1e-05,5,31
18396,-5e-05,3e-05,0.0001,-9e-05,0.00087,0.00031,6e-05,1e-05,5,31
18397,-5e-05,3e-05,0.0001,-9e-05,0.00087,0.00031,6e-05,1e-05,5,31
18398,-5e-05,3e-05,0.0001,-9e-05,0.00087,0.00031,6e-05,1e-05,5,31
18399,-5e-05,3e-05,0.0001,-9e-05,0.00087,0.00031,6e-05,1e-05,5,31
18400,-5e-05,3e-05,0.0001,-9e-05,0.00087,0.00031,6e-05,1e-05,5,31
18401,-5e-05,3e-05,0.0001,-9e-05,0.00087,0.00031,6e-05,1e-05,5,31
18402,-0.00017,0.00016,3e-05,0.00068,0.00011,-0.00011,-1e-05,-1e-05,5,31
18403,9e-05,3e-05,-2e-05,-0.00062,7e-05,-0.00035,3e-05,4e-05,5,31
18404,9e-05,3e-05,-2e-05,-0.00062,7e-05,-0.00035,3e-05,4e-05,5,31
18405,9e-05,3e-05,-2e-05,-0.00062,7e-05,-0.00035,3e-05,4e-05,5,31
18406,9e-05,3e-05,-2e-05,-0.00062,7e-05,-0.00035,3e-05,4e-05,5,31
18407,9e-05,3e-05,-2e-05,-0.00062,7e-05,-0.00035,3e-05,4e-05,5,31
18408,9e-05,3e-05,-2e-05,-0.00062,7e-05,-0.00035,3e-05,4e-05,5,31
18409,9e-05,3e-05,-2e-05,-0.00062,7e-05,-0.00035,3e-05,4e-05,5,31
18410,9e-05,3e-05,-2e-05,-0.00062,7e-05,-0.00035,3e-05,4e-05,5,31
18411,9e-05,3e-05,-2e-05,-0.00062,7e-05,-0.00035,3e-05,4e-05,5,31
18412,9e-05,3e-05,-2e-05,-0.00062,7e-05,-0.00035,3e-05,4e-05,5,31
18413,9e-05,3e-05,-2e-05,-0.00062,7e-05,-0.00035,3e-05,4e-05,5,31
18414,9e-05,3e-05,-2e-05,-0.00062,7e-05,-0.00035,3e-05,4e-05,5,31
18415,9e-05,3e-05,-2e-05,-0.00062,7e-05,-0.00035,3e-05,4e-05,5,31
18416,9e-05,3e-05,-2e-05,-0.00062,7e-05,-0.00035,3e-05,4e-05,5,31
18417,-3e-05,-6e-05,-0.0002,-0.00073,-0.00017,0.0002,0.00018,0.00012,5,31
18418,-3e-05,-6e-05,-0.00013,-0.00031,-0.00059,-0.00019,-0.00013,-0.0001,5,31
18419,-3e-05,-6e-05,-0.00013,-0.00031,-0.00059,-0.00019,-0.00013,-0.0001,5,31
18420,-3e-05,-6e-05,-0.00013,-0.00031,-0.00059,-0.00019,-0.00013,-0.0001,5,31
18421,-3e-05,-6e-05,-0.00013,-0.00031,-0.00059,-0.00019,-0.00013,-0.0001,5,31
18422,-3e-05,-6e-05,-0.00013,-0.00031,-0.00059,-0.00019,-0.00013,-0.0001,5,31
18423,-3e-05,-6e-05,-0.00013,-0.00031,-0.00059,-0.00019,-0.00013,-0.0001,5,31
18424,-3e-05,-6e-05,-0.00013,-0.00031,-0.00059,-0.00019,-0.00013,-0.0001,5,31
18425,-3e-05,-6e-05,-0.00013,-0.00031,-0.00059,-0.00019,-0.00013,-0.0001,5,31
18426,-3e-05,-6e-05,-0.00013,-0.00031,-0.00059,-0.00019,-0.00013,-0.0001,5,31
18427,-3e-05,-6e-05,-0.00013,-0.00031,-0.00059,-0.00019,-0.00013,-0.0001,5,31
18428,-3e-05,-6e-05,-0.00013,-0.00031,-0.00059,-0.00019,-0.00013,-0.0001,5,31
18429,-3e-05,-6e-05,-0.00013,-0.00031,-0.00059,-0.00019,-0.00013,-0.0001,5,31
18430,-3e-05,-6e-05,-0.00013,-0.00031,-0.00059,-0.00019,-0.00013,-0.0001,5,31
18431,-3e-05,-6e-05,-0.00013,-0.00031,-0.00059,-0.00019,-0.00013,-0.0001,5,31
18432,-3e-05,-6e-05,-0.00013,-0.00031,-0.00059,-0.00019,-0.00013,-0.0001,5,31
18434,-3e-05,-6e-05,-0.00013,-0.00031,-0.00059,-0.00019,-0.00013,-0.0001,5,31
18435,-3e-05,-6e-05,-0.00013,-0.00031,-0.00059,-0.00019,-0.00013,-0.0001,5,31
18436,-3e-05,-6e-05,-0.00013,-0.00031,-0.00059,-0.00019,-0.00013,-0.0001,5,31
18438,-3e-05,-6e-05,-0.00013,-0.00031,-0.00059,-0.00019,-0.00013,-0.0001,5,31
18439,-0.00021,-0.00011,-0.00012,6e-05,-0.00016,-0.00019,1e-05,-9e-05,5,31
18440,5e-05,3e-05,-1e-05,0.0003,0.00037,0.00039,0.0001,9e-05,5,31
18441,5e-05,3e-05,-1e-05,0.0003,0.00037,0.00039,0.0001,9e-05,5,31
18442,5e-05,3e-05,-1e-05,0.0003,0.00037,0.00039,0.0001,9e-05,5,31
18443,5e-05,3e-05,-1e-05,0.0003,0.00037,0.00039,0.0001,9e-05,5,31
18444,5e-05,3e-05,-1e-05,0.0003,0.00037,0.00039,0.0001,9e-05,5,31
18445,5e-05,3e-05,-1e-05,0.0003,0.00037,0.00039,0.0001,9e-05,5,31
18446,5e-05,3e-05,-1e-05,0.0003,0.00037,0.00039,0.0001,9e-05,5,31
18447,5e-05,3e-05,-1e-05,0.0003,0.00037,0.00039,0.0001,9e-05,5,31
18448,5e-05,3e-05,-1e-05,0.0003,0.00037,0.00039,0.0001,9e-05,5,31
18449,5e-05,3e-05,-1e-05,0.0003,0.00037,0.00039,0.0001,9e-05,5,31
18450,5e-05,3e-05,-1e-05,0.0003,0.00037,0.00039,0.0001,9e-05,5,31
18451,5e-05,3e-05,-1e-05,0.0003,0.00037,0.00039,0.0001,9e-05,5,31
18452,5e-05,3e-05,-1e-05,0.0003,0.00037,0.00039,0.0001,9e-05,5,31
18453,5e-05,3e-05,-1e-05,0.0003,0.00037,0.00039,0.0001,9e-05,5,31
18454,5e-05,3e-05,-1e-05,0.0003,0.00037,0.00039,0.0001,9e-05,5,31
18455,5e-05,3e-05,-1e-05,0.0003,0.00037,0.00039,0.0001,9e-05,5,31
18456,5e-05,3e-05,-1e-05,0.0003,0.00037,0.00039,0.0001,9e-05,5,31
18457,5e-05,3e-05,-1e-05,0.0003,0.00037,0.00039,0.0001,9e-05,5,31
18458,5e-05,3e-05,-1e-05,0.0003,0.00037,0.00039,0.0001,9e-05,5,31
18459,5e-05,3e-05,-1e-05,0.0003,0.00037,0.00039,0.0001,9e-05,5,31
18460,5e-05,3e-05,-1e-05,0.0003,0.00037,0.00039,0.0001,9e-05,5,31
18461,5e-05,3e-05,-1e-05,0.0003,0.00037,0.00039,0.0001,9e-05,5,31
18462,-6e-05,7e-05,8e-05,0.00047,0.00016,4e-05,-7e-05,0,5,31
18463,0.00017,-0.00018,-0.00014,-0.00025,-0.00067,-0.0002,-6e-05,-3e-05,5,31
18464,0.00017,-0.00018,-0.00014,-0.00025,-0.00067,-0.0002,-6e-05,-3e-05,5,31
18465,0.00017,-0.00018,-0.00014,-0.00025,-0.00067,-0.0002,-6e-05,-3e-05,5,31
18466,0.00017,-0.00018,-0.00014,-0.00025,-0.00067,-0.0002,-6e-05,-3e-05,5,31
18467,0.00017,-0.00018,-0.00014,-0.00025,-0.00067,-0.0002,-6e-05,-3e-05,5,31
18468,0.00017,-0.00018,-0.00014,-0.00025,-0.00067,-0.0002,-6e-05,-3e-05,5,31
18469,0.00017,-0.00018,-0.00014,-0.00025,-0.00067,-0.0002,-6e-05,-3e-05,5,31
18470,0.00017,-0.00018,-0.00014,-0.00025,-0.00067,-0.0002,-6e-05,-3e-05,5,31
18471,0.00017,-0.00018,-0.00014,-0.00025,-0.00067,-0.0002,-6e-05,-3e-05,5,31
18472,0.00017,-0.00018,-0.00014,-0.00025,-0.00067,-0.0002,-6e-05,-3e-05,5,31
18473,0.00017,-0.00018,-0.00014,-0.00025,-0.00067,-0.0002,-6e-05,-3e-05,5,31
18474,0.00017,-0.00018,-0.00014,-0.00025,-0.00067,-0.0002,-6e-05,-3e-05,5,31
18475,0.00017,-0.00018,-0.00014,-0.00025,-0.00067,-0.0002,-6e-05,-3e-05,5,31
18476,0.00017,-0.00018,-0.00014,-0.00025,-0.00067,-0.0002,-6e-05,-3e-05,5,31
18477,0.00039,0.00028,4e-05,8e-05,-0.00049,9e-05,-3e-05,0,5,31
18478,0.00012,0.00022,0.00013,0.00011,-8e-05,0.00027,7e-05,5e-05,5,31
18479,0.00012,0.00022,0.00013,0.00011,-8e-05,0.00027,7e-05,5e-05,5,31
18480,0.00012,0.00022,0.00013,0.00011,-8e-05,0.00027,7e-05,5e-05,5,31
18481,0.00012,0.00022,0.00013,0.00011,-8e-05,0.00027,7e-05,5e-05,5,31
18482,0.00012,0.00022,0.00013,0.00011,-8e-05,0.00027,7e-05,5e-05,5,31
18483,0.00012,0.00022,0.00013,0.00011,-8e-05,0.00027,7e-05,5e-05,5,31
18484,0.00012,0.00022,0.00013,0.00011,-8e-05,0.00027,7e-05,5e-05,5,31
18485,0.00012,0.00022,0.00013,0.00011,-8e-05,0.00027,7e-05,5e-05,5,31
18486,0.00012,0.00022,0.00013,0.00011,-8e-05,0.00027,7e-05,5e-05,5,31
18488,0.00012,0.00022,0.00013,0.00011,-8e-05,0.00027,7e-05,5e-05,5,31
18489,0.00012,0.00022,0.00013,0.00011,-8e-05,0.00027,7e-05,5e-05,5,31
18490,0.00012,0.00022,0.00013,0.00011,-8e-05,0.00027,7e-05,5e-05,5,31
18491,0.00012,0.00022,0.00013,0.00011,-8e-05,0.00027,7e-05,5e-05,5,31
18492,0.00012,0.00022,0.00013,0.00011,-8e-05,0.00027,7e-05,5e-05,5,31
18493,0.00012,0.00022,0.00013,0.00011,-8e-05,0.00027,7e-05,5e-05,5,31
18494,0.00012,0.00022,0.00013,0.00011,-8e-05,0.00027,7e-05,5e-05,5,31
18495,0.00012,0.00022,0.00013,0.00011,-8e-05,0.00027,7e-05,5e-05,5,31
18496,0.00012,0.00022,0.00013,0.00011,-8e-05,0.00027,7e-05,5e-05,5,31
18497,0.00012,0.00022,0.00013,0.00011,-8e-05,0.00027,7e-05,5e-05,5,31
18498,0.00012,0.00022,0.00013,0.00011,-8e-05,0.00027,7e-05,5e-05,5,31
18499,0.00011,-6e-05,-9e-05,0.0005,0.00061,-0.00026,4e-05,-2e-05,5,31
18500,9e-05,0.00025,0.0004,0.00058,0.00052,9e-05,3e-05,7e-05,5,31
18501,9e-05,0.00025,0.0004,0.00058,0.00052,9e-05,3e-05,7e-05,5,31
18502,9e-05,0.00025,0.0004,0.00058,0.00052,9e-05,3e-05,7e-05,5,31
18503,9e-05,0.00025,0.0004,0.00058,0.00052,9e-05,3e-05,7e-05,5,31
18504,9e-05,0.00025,0.0004,0.00058,0.00052,9e-05,3e-05,7e-05,5,31
18505,9e-05,0.00025,0.0004,0.00058,0.00052,9e-05,3e-05,7e-05,5,31
18506,9e-05,0.00025,0.0004,0.00058,0.00052,9e-05,3e-05,7e-05,5,31
18507,9e-05,0.00025,0.0004,0.00058,0.00052,9e-05,3e-05,7e-05,5,31
18508,9e-05,0.00025,0.0004,0.00058,0.00052,9e-05,3e-05,7e-05,5,31
18509,9e-05,0.00025,0.0004,0.00058,0.00052,9e-05,3e-05,7e-05,5,31
18510,9e-05,0.00025,0.0004,0.00058,0.00052,9e-05,3e-05,7e-05,5,31
18511,9e-05,0.00025,0.0004,0.00058,0.00052,9e-05,3e-05,7e-05,5,31
18512,9e-05,0.00025,0.0004,0.00058,0.00052,9e-05,3e-05,7e-05,5,31
18513,9e-05,0.00025,0.0004,0.00058,0.00052,9e-05,3e-05,7e-05,5,31
18514,9e-05,0.00025,0.0004,0.00058,0.00052,9e-05,3e-05,7e-05,5,31
18515,9e-05,0.00025,0.0004,0.00058,0.00052,9e-05,3e-05,7e-05,5,31
18516,9e-05,0.00025,0.0004,0.00058,0.00052,9e-05,3e-05,7e-05,5,31
18517,9e-05,0.00025,0.0004,0.00058,0.00052,9e-05,3e-05,7e-05,5,31
18518,9e-05,0.00025,0.0004,0.00058,0.00052,9e-05,3e-05,7e-05,5,31
18519,9e-05,0.00025,0.0004,0.00058,0.00052,9e-05,3e-05,7e-05,5,31
18520,9e-05,0.00025,0.0004,0.00058,0.00052,9e-05,3e-05,7e-05,5,31
18521,9e-05,0.00025,0.0004,0.00058,0.00052,9e-05,3e-05,7e-05,5,31
18522,-0.00022,-0.00012,0.00028,0.00045,3e-05,-2e-05,-9e-05,-0.00011,5,31
18523,-0.00011,-9e-05,-0.0001,-0.00035,-0.00027,8e-05,7e-05,2e-05,5,31
18524,-0.00011,-9e-05,-0.0001,-0.00035,-0.00027,8e-05,7e-05,2e-05,5,31
18525,-0.00011,-9e-05,-0.0001,-0.00035,-0.00027,8e-05,7e-05,2e-05,5,31
18526,-0.00011,-9e-05,-0.0001,-0.00035,-0.00027,8e-05,7e-05,2e-05,5,31
18527,-0.00011,-9e-05,-0.0001,-0.00035,-0.00027,8e-05,7e-05,2e-05,5,31
18528,-0.00011,-9e-05,-0.0001,-0.00035,-0.00027,8e-05,7e-05,2e-05,5,31
18529,-0.00011,-9e-05,-0.0001,-0.00035,-0.00027,8e-05,7e-05,2e-05,5,31
18530,-0.00011,-9e-05,-0.0001,-0.00035,-0.00027,8e-05,7e-05,2e-05,5,31
18531,-0.00011,-9e-05,-0.0001,-0.00035,-0.00027,8e-05,7e-05,2e-05,5,31
18532,-0.00011,-9e-05,-0.0001,-0.00035,-0.00027,8e-05,7e-05,2e-05,5,31
18534,-0.00011,-9e-05,-0.0001,-0.00035,-0.00027,8e-05,7e-05,2e-05,5,31
18535,-0.00011,-9e-05,-0.0001,-0.00035,-0.00027,8e-05,7e-05,2e-05,5,31
18536,-0.00011,-9e-05,-0.0001,-0.00035,-0.00027,8e-05,7e-05,2e-05,5,31
18539,-0.0002,-0.0001,-5e-05,-4e-05,0.00014,0.00026,0,-4e-05,5,31
18540,-0.0002,-0.0001,-5e-05,-4e-05,0.00014,0.00026,0,-4e-05,5,31
18541,-0.0002,-0.0001,-5e-05,-4e-05,0.00014,0.00026,0,-4e-05,5,31
18542,-0.0002,-0.0001,-5e-05,-4e-05,0.00014,0.00026,0,-4e-05,5,31
18543,-0.0002,-0.0001,-5e-05,-4e-05,0.00014,0.00026,0,-4e-05,5,31
18544,-0.0002,-0.0001,-5e-05,-4e-05,0.00014,0.00026,0,-4e-05,5,31
18545,-0.0002,-0.0001,-5e-05,-4e-05,0.00014,0.00026,0,-4e-05,5,31
18546,-0.0002,-0.0001,-5e-05,-4e-05,0.00014,0.00026,0,-4e-05,5,31
18547,-0.0002,-0.0001,-5e-05,-4e-05,0.00014,0.00026,0,-4e-05,5,31
18548,-0.0002,-0.0001,-5e-05,-4e-05,0.00014,0.00026,0,-4e-05,5,31
18549,-0.0002,-0.0001,-5e-05,-4e-05,0.00014,0.00026,0,-4e-05,5,31
18550,-0.0002,-0.0001,-5e-05,-4e-05,0.00014,0.00026,0,-4e-05,5,31
18551,-0.0002,-0.0001,-5e-05,-4e-05,0.00014,0.00026,0,-4e-05,5,31
18552,-0.0002,-0.0001,-5e-05,-4e-05,0.00014,0.00026,0,-4e-05,5,31
18553,-0.0002,-0.0001,-5e-05,-4e-05,0.00014,0.00026,0,-4e-05,5,31
18554,-0.0002,-0.0001,-5e-05,-4e-05,0.00014,0.00026,0,-4e-05,5,31
18555,-0.0002,-0.0001,-5e-05,-4e-05,0.00014,0.00026,0,-4e-05,5,31
18556,-0.0002,-0.0001,-5e-05,-4e-05,0.00014,0.00026,0,-4e-05,5,31
18557,-0.0002,-0.0001,-5e-05,-4e-05,0.00014,0.00026,0,-4e-05,5,31
18558,-0.0002,-0.0001,-5e-05,-4e-05,0.00014,0.00026,0,-4e-05,5,31
18559,0.00023,0.00015,0.00014,3e-05,-0.00033,-0.00081,3e-05,4e-05,5,31
18560,-0.00016,-2e-05,5e-05,0.00091,-0.00034,-0.00012,-7e-05,-0.0001,5,31
18561,-0.00016,-2e-05,5e-05,0.00091,-0.00034,-0.00012,-7e-05,-0.0001,5,31
18562,-0.00016,-2e-05,5e-05,0.00091,-0.00034,-0.00012,-7e-05,-0.0001,5,31
18563,-0.00016,-2e-05,5e-05,0.00091,-0.00034,-0.00012,-7e-05,-0.0001,5,31
18564,-0.00016,-2e-05,5e-05,0.00091,-0.00034,-0.00012,-7e-05,-0.0001,5,31
18565,-0.00016,-2e-05,5e-05,0.00091,-0.00034,-0.00012,-7e-05,-0.0001,5,31
18566,-0.00016,-2e-05,5e-05,0.00091,-0.00034,-0.00012,-7e-05,-0.0001,5,31
18567,-0.00016,-2e-05,5e-05,0.00091,-0.00034,-0.00012,-7e-05,-0.0001,5,31
18568,-0.00016,-2e-05,5e-05,0.00091,-0.00034,-0.00012,-7e-05,-0.0001,5,31
18569,-0.00016,-2e-05,5e-05,0.00091,-0.00034,-0.00012,-7e-05,-0.0001,5,31
18570,-0.00016,-2e-05,5e-05,0.00091,-0.00034,-0.00012,-7e-05,-0.0001,5,31
18571,-0.00016,-2e-05,5e-05,0.00091,-0.00034,-0.00012,-7e-05,-0.0001,5,31
18572,-0.00016,-2e-05,5e-05,0.00091,-0.00034,-0.00012,-7e-05,-0.0001,5,31
18573,-0.00016,-2e-05,5e-05,0.00091,-0.00034,-0.00012,-7e-05,-0.0001,5,31
18574,-0.00016,-2e-05,5e-05,0.00091,-0.00034,-0.00012,-7e-05,-0.0001,5,31
18575,-0.00016,-2e-05,5e-05,0.00091,-0.00034,-0.00012,-7e-05,-0.0001,5,31
18576,-0.00016,-2e-05,5e-05,0.00091,-0.00034,-0.00012,-7e-05,-0.0001,5,31
18577,-0.00016,-2e-05,5e-05,0.00091,-0.00034,-0.00012,-7e-05,-0.0001,5,31
18578,-0.00016,-2e-05,5e-05,0.00091,-0.00034,-0.00012,-7e-05,-0.0001,5,31
18579,-0.00016,-2e-05,5e-05,0.00091,-0.00034,-0.00012,-7e-05,-0.0001,5,31
18580,-0.00016,-2e-05,5e-05,0.00091,-0.00034,-0.00012,-7e-05,-0.0001,5,31
18581,-0.00016,-2e-05,5e-05,0.00091,-0.00034,-0.00012,-7e-05,-0.0001,5,31
18582,-6e-05,0,-6e-05,-0.00019,-0.00087,-0.00023,-4e-05,-2e-05,5,31
18583,-0.00012,-3e-05,0.00012,-0.00025,0.0003,4e-05,5e-05,-1e-05,5,31
18584,-0.00012,-3e-05,0.00012,-0.00025,0.0003,4e-05,5e-05,-1e-05,5,31
18585,-0.00012,-3e-05,0.00012,-0.00025,0.0003,4e-05,5e-05,-1e-05,5,31
18586,-0.00012,-3e-05,0.00012,-0.00025,0.0003,4e-05,5e-05,-1e-05,5,31
18588,-0.00012,-3e-05,0.00012,-0.00025,0.0003,4e-05,5e-05,-1e-05,5,31
18589,-0.00012,-3e-05,0.00012,-0.00025,0.0003,4e-05,5e-05,-1e-05,5,31
18590,-0.00012,-3e-05,0.00012,-0.00025,0.0003,4e-05,5e-05,-1e-05,5,31
18591,-0.00012,-3e-05,0.00012,-0.00025,0.0003,4e-05,5e-05,-1e-05,5,31
18592,-0.00012,-3e-05,0.00012,-0.00025,0.0003,4e-05,5e-05,-1e-05,5,31
18593,-0.00012,-3e-05,0.00012,-0.00025,0.0003,4e-05,5e-05,-1e-05,5,31
18594,-0.00012,-3e-05,0.00012,-0.00025,0.0003,4e-05,5e-05,-1e-05,5,31
18595,-0.00012,-3e-05,0.00012,-0.00025,0.0003,4e-05,5e-05,-1e-05,5,31
18596,-0.00012,-3e-05,0.00012,-0.00025,0.0003,4e-05,5e-05,-1e-05,5,31
18597,0.00028,-2e-05,1e-05,-0.00064,-0.00066,3e-05,0,7e-05,5,31
18598,0.0004,0.00011,-0.00024,-0.00128,-0.00085,-0.0005,-5e-05,1e-05,5,31
18599,0.0004,0.00011,-0.00024,-0.00128,-0.00085,-0.0005,-5e-05,1e-05,5,31
18600,0.0004,0.00011,-0.00024,-0.00128,-0.00085,-0.0005,-5e-05,1e-05,5,31
18601,0.0004,0.00011,-0.00024,-0.00128,-0.00085,-0.0005,-5e-05,1e-05,5,31
18602,0.0004,0.00011,-0.00024,-0.00128,-0.00085,-0.0005,-5e-05,1e-05,5,31
18603,0.0004,0.00011,-0.00024,-0.00128,-0.00085,-0.0005,-5e-05,1e-05,5,31
18604,0.0004,0.00011,-0.00024,-0.00128,-0.00085,-0.0005,-5e-05,1e-05,5,31
18605,0.0004,0.00011,-0.00024,-0.00128,-0.00085,-0.0005,-5e-05,1e-05,5,31
18606,0.0004,0.00011,-0.00024,-0.00128,-0.00085,-0.0005,-5e-05,1e-05,5,31
18607,0.0004,0.00011,-0.00024,-0.00128,-0.00085,-0.0005,-5e-05,1e-05,5,31
18608,0.0004,0.00011,-0.00024,-0.00128,-0.00085,-0.0005,-5e-05,1e-05,5,31
18609,0.0004,0.00011,-0.00024,-0.00128,-0.00085,-0.0005,-5e-05,1e-05,5,31
18610,0.0004,0.00011,-0.00024,-0.00128,-0.00085,-0.0005,-5e-05,1e-05,5,31
18611,0.0004,0.00011,-0.00024,-0.00128,-0.00085,-0.0005,-5e-05,1e-05,5,31
18612,0.0004,0.00011,-0.00024,-0.00128,-0.00085,-0.0005,-5e-05,1e-05,5,31
18613,0.0004,0.00011,-0.00024,-0.00128,-0.00085,-0.0005,-5e-05,1e-05,5,31
18614,0.0004,0.00011,-0.00024,-0.00128,-0.00085,-0.0005,-5e-05,1e-05,5,31
18615,0.0004,0.00011,-0.00024,-0.00128,-0.00085,-0.0005,-5e-05,1e-05,5,31
18616,0.0004,0.00011,-0.00024,-0.00128,-0.00085,-0.0005,-5e-05,1e-05,5,31
18617,0.0004,0.00011,-0.00024,-0.00128,-0.00085,-0.0005,-5e-05,1e-05,5,31
18618,0.0004,0.00011,-0.00024,-0.00128,-0.00085,-0.0005,-5e-05,1e-05,5,31
18619,0.00018,3e-05,0.00012,-0.00027,-0.00064,-0.0003,-3e-05,-1e-05,5,31
18620,0.0002,0.00017,0.0003,9e-05,8e-05,0.00023,1e-05,5e-05,5,31
18621,0.0002,0.00017,0.0003,9e-05,8e-05,0.00023,1e-05,5e-05,5,31
18622,0.0002,0.00017,0.0003,9e-05,8e-05,0.00023,1e-05,5e-05,5,31
18623,0.0002,0.00017,0.0003,9e-05,8e-05,0.00023,1e-05,5e-05,5,31
18624,0.0002,0.00017,0.0003,9e-05,8e-05,0.00023,1e-05,5e-05,5,31
18625,0.0002,0.00017,0.0003,9e-05,8e-05,0.00023,1e-05,5e-05,5,31
18626,0.0002,0.00017,0.0003,9e-05,8e-05,0.00023,1e-05,5e-05,5,31
18627,0.0002,0.00017,0.0003,9e-05,8e-05,0.00023,1e-05,5e-05,5,31
18628,0.0002,0.00017,0.0003,9e-05,8e-05,0.00023,1e-05,5e-05,5,31
18629,0.0002,0.00017,0.0003,9e-05,8e-05,0.00023,1e-05,5e-05,5,31
18630,0.0002,0.00017,0.0003,9e-05,8e-05,0.00023,1e-05,5e-05,5,31
18631,0.0002,0.00017,0.0003,9e-05,8e-05,0.00023,1e-05,5e-05,5,31
18632,0.0002,0.00017,0.0003,9e-05,8e-05,0.00023,1e-05,5e-05,5,31
18633,0.0002,0.00017,0.0003,9e-05,8e-05,0.00023,1e-05,5e-05,5,31
18634,0.0002,0.00017,0.0003,9e-05,8e-05,0.00023,1e-05,5e-05,5,31
18635,0.0002,0.00017,0.0003,9e-05,8e-05,0.00023,1e-05,5e-05,5,31
18636,0.0002,0.00017,0.0003,9e-05,8e-05,0.00023,1e-05,5e-05,5,31
18638,0.0002,0.00017,0.0003,9e-05,8e-05,0.00023,1e-05,5e-05,5,31
18639,0.0002,0.00017,0.0003,9e-05,8e-05,0.00023,1e-05,5e-05,5,31
18640,0.0002,0.00017,0.0003,9e-05,8e-05,0.00023,1e-05,5e-05,5,31
18641,0.0002,0.00017,0.0003,9e-05,8e-05,0.00023,1e-05,5e-05,5,31
18642,-9e-05,-8e-05,2e-05,0.00021,-6e-05,0.00012,1e-05,1e-05,5,31
18643,-0.00011,-7e-05,-3e-05,-0.00042,-0.00063,-0.00027,-0.00013,1e-05,5,31
18644,-0.00011,-7e-05,-3e-05,-0.00042,-0.00063,-0.00027,-0.00013,1e-05,5,31
18645,-0.00011,-7e-05,-3e-05,-0.00042,-0.00063,-0.00027,-0.00013,1e-05,5,31
18646,-0.00011,-7e-05,-3e-05,-0.00042,-0.00063,-0.00027,-0.00013,1e-05,5,31
18647,-0.00011,-7e-05,-3e-05,-0.00042,-0.00063,-0.00027,-0.00013,1e-05,5,31
18648,-0.00011,-7e-05,-3e-05,-0.00042,-0.00063,-0.00027,-0.00013,1e-05,5,31
18649,-0.00011,-7e-05,-3e-05,-0.00042,-0.00063,-0.00027,-0.00013,1e-05,5,31
18650,-0.00011,-7e-05,-3e-05,-0.00042,-0.00063,-0.00027,-0.00013,1e-05,5,31
18651,-0.00011,-7e-05,-3e-05,-0.00042,-0.00063,-0.00027,-0.00013,1e-05,5,31
18652,-0.00011,-7e-05,-3e-05,-0.00042,-0.00063,-0.00027,-0.00013,1e-05,5,31
18653,-0.00011,-7e-05,-3e-05,-0.00042,-0.00063,-0.00027,-0.00013,1e-05,5,31
18655,-0.00011,-7e-05,-3e-05,-0.00042,-0.00063,-0.00027,-0.00013,1e-05,5,31
18656,-0.00011,-7e-05,-3e-05,-0.00042,-0.00063,-0.00027,-0.00013,1e-05,5,31
18657,0.00018,4e-05,-0.00013,-0.0009,-0.00096,-0.00054,8e-05,3e-05,5,31
18658,-4e-05,1e-05,3e-05,0.00066,0.00035,6e-05,-6e-05,-5e-05,5,31
18659,-4e-05,1e-05,3e-05,0.00066,0.00035,6e-05,-6e-05,-5e-05,5,31
18660,-4e-05,1e-05,3e-05,0.00066,0.00035,6e-05,-6e-05,-5e-05,5,31
18661,-4e-05,1e-05,3e-05,0.00066,0.00035,6e-05,-6e-05,-5e-05,5,31
18662,-4e-05,1e-05,3e-05,0.00066,0.00035,6e-05,-6e-05,-5e-05,5,31
18663,-4e-05,1e-05,3e-05,0.00066,0.00035,6e-05,-6e-05,-5e-05,5,31
18664,-4e-05,1e-05,3e-05,0.00066,0.00035,6e-05,-6e-05,-5e-05,5,31
18665,-4e-05,1e-05,3e-05,0.00066,0.00035,6e-05,-6e-05,-5e-05,5,31
18666,-4e-05,1e-05,3e-05,0.00066,0.00035,6e-05,-6e-05,-5e-05,5,31
18667,-4e-05,1e-05,3e-05,0.00066,0.00035,6e-05,-6e-05,-5e-05,5,31
18668,-4e-05,1e-05,3e-05,0.00066,0.00035,6e-05,-6e-05,-5e-05,5,31
18669,-4e-05,1e-05,3e-05,0.00066,0.00035,6e-05,-6e-05,-5e-05,5,31
18670,-4e-05,1e-05,3e-05,0.00066,0.00035,6e-05,-6e-05,-5e-05,5,31
18671,-4e-05,1e-05,3e-05,0.00066,0.00035,6e-05,-6e-05,-5e-05,5,31
18672,-4e-05,1e-05,3e-05,0.00066,0.00035,6e-05,-6e-05,-5e-05,5,31
18674,-4e-05,1e-05,3e-05,0.00066,0.00035,6e-05,-6e-05,-5e-05,5,31
18675,-4e-05,1e-05,3e-05,0.00066,0.00035,6e-05,-6e-05,-5e-05,5,31
18676,-4e-05,1e-05,3e-05,0.00066,0.00035,6e-05,-6e-05,-5e-05,5,31
18677,-4e-05,1e-05,3e-05,0.00066,0.00035,6e-05,-6e-05,-5e-05,5,31
18678,-4e-05,1e-05,3e-05,0.00066,0.00035,6e-05,-6e-05,-5e-05,5,31
18679,0.00023,1e-05,-0.00016,-0.00082,-0.00014,-0.00027,-1e-05,1e-05,5,31
18680,-0.00017,-0.00015,-0.00012,0.00041,0.0007,0.00011,3e-05,-5e-05,5,31
18681,-0.00017,-0.00015,-0.00012,0.00041,0.0007,0.00011,3e-05,-5e-05,5,31
18682,-0.00017,-0.00015,-0.00012,0.00041,0.0007,0.00011,3e-05,-5e-05,5,31
18684,-0.00017,-0.00015,-0.00012,0.00041,0.0007,0.00011,3e-05,-5e-05,5,31
18685,-0.00017,-0.00015,-0.00012,0.00041,0.0007,0.00011,3e-05,-5e-05,5,31
18686,-0.00017,-0.00015,-0.00012,0.00041,0.0007,0.00011,3e-05,-5e-05,5,31
18688,-0.00017,-0.00015,-0.00012,0.00041,0.0007,0.00011,3e-05,-5e-05,5,31
18689,-0.00017,-0.00015,-0.00012,0.00041,0.0007,0.00011,3e-05,-5e-05,5,31
18690,-0.00017,-0.00015,-0.00012,0.00041,0.0007,0.00011,3e-05,-5e-05,5,31
18691,-0.00017,-0.00015,-0.00012,0.00041,0.0007,0.00011,3e-05,-5e-05,5,31
18692,-0.00017,-0.00015,-0.00012,0.00041,0.0007,0.00011,3e-05,-5e-05,5,31
18693,-0.00017,-0.00015,-0.00012,0.00041,0.0007,0.00011,3e-05,-5e-05,5,31
18694,-0.00017,-0.00015,-0.00012,0.00041,0.0007,0.00011,3e-05,-5e-05,5,31
18695,-0.00017,-0.00015,-0.00012,0.00041,0.0007,0.00011,3e-05,-5e-05,5,31
18696,-0.00017,-0.00015,-0.00012,0.00041,0.0007,0.00011,3e-05,-5e-05,5,31
18697,-0.00017,-0.00015,-0.00012,0.00041,0.0007,0.00011,3e-05,-5e-05,5,31
18698,-0.00017,-0.00015,-0.00012,0.00041,0.0007,0.00011,3e-05,-5e-05,5,31
18699,-0.00017,-0.00015,-0.00012,0.00041,0.0007,0.00011,3e-05,-5e-05,5,31
18700,-0.00017,-0.00015,-0.00012,0.00041,0.0007,0.00011,3e-05,-5e-05,5,31
18701,-0.00017,-0.00015,-0.00012,0.00041,0.0007,0.00011,3e-05,-5e-05,5,31
18702,-0.0002,0.00018,0.00015,0.00079,0.00033,0.00052,0.00018,0.00011,5,31
18703,-0.00024,-0.00029,-0.00034,-0.00108,-0.00092,-0.00048,-9e-05,-9e-05,5,31
18704,-0.00024,-0.00029,-0.00034,-0.00108,-0.00092,-0.00048,-9e-05,-9e-05,5,31
18705,-0.00024,-0.00029,-0.00034,-0.00108,-0.00092,-0.00048,-9e-05,-9e-05,5,31
18706,-0.00024,-0.00029,-0.00034,-0.00108,-0.00092,-0.00048,-9e-05,-9e-05,5,31
18707,-0.00024,-0.00029,-0.00034,-0.00108,-0.00092,-0.00048,-9e-05,-9e-05,5,31
18708,-0.00024,-0.00029,-0.00034,-0.00108,-0.00092,-0.00048,-9e-05,-9e-05,5,31
18709,-0.00024,-0.00029,-0.00034,-0.00108,-0.00092,-0.00048,-9e-05,-9e-05,5,31
18710,-0.00024,-0.00029,-0.00034,-0.00108,-0.00092,-0.00048,-9e-05,-9e-05,5,31
18711,-0.00024,-0.00029,-0.00034,-0.00108,-0.00092,-0.00048,-9e-05,-9e-05,5,31
18712,-0.00024,-0.00029,-0.00034,-0.00108,-0.00092,-0.00048,-9e-05,-9e-05,5,31
18713,-0.00024,-0.00029,-0.00034,-0.00108,-0.00092,-0.00048,-9e-05,-9e-05,5,31
18714,-0.00024,-0.00029,-0.00034,-0.00108,-0.00092,-0.00048,-9e-05,-9e-05,5,31
18715,-0.00024,-0.00029,-0.00034,-0.00108,-0.00092,-0.00048,-9e-05,-9e-05,5,31
18716,-0.00024,-0.00029,-0.00034,-0.00108,-0.00092,-0.00048,-9e-05,-9e-05,5,31
18717,0.00032,0.00033,0.00012,-0.00036,-0.00012,4e-05,0.00012,0.00012,5,31
18718,-0.00037,-0.0001,-0.0001,0.00077,0.00097,0.0002,9e-05,-4e-05,5,31
18719,-0.00037,-0.0001,-0.0001,0.00077,0.00097,0.0002,9e-05,-4e-05,5,31
18720,-0.00037,-0.0001,-0.0001,0.00077,0.00097,0.0002,9e-05,-4e-05,5,31
18721,-0.00037,-0.0001,-0.0001,0.00077,0.00097,0.0002,9e-05,-4e-05,5,31
18722,-0.00037,-0.0001,-0.0001,0.00077,0.00097,0.0002,9e-05,-4e-05,5,31
18723,-0.00037,-0.0001,-0.0001,0.00077,0.00097,0.0002,9e-05,-4e-05,5,31
18724,-0.00037,-0.0001,-0.0001,0.00077,0.00097,0.0002,9e-05,-4e-05,5,31
18725,-0.00037,-0.0001,-0.0001,0.00077,0.00097,0.0002,9e-05,-4e-05,5,31
18726,-0.00037,-0.0001,-0.0001,0.00077,0.00097,0.0002,9e-05,-4e-05,5,31
18727,-0.00037,-0.0001,-0.0001,0.00077,0.00097,0.0002,9e-05,-4e-05,5,31
18728,-0.00037,-0.0001,-0.0001,0.00077,0.00097,0.0002,9e-05,-4e-05,5,31
18729,-0.00037,-0.0001,-0.0001,0.00077,0.00097,0.0002,9e-05,-4e-05,5,31
18730,-0.00037,-0.0001,-0.0001,0.00077,0.00097,0.0002,9e-05,-4e-05,5,31
18731,-0.00037,-0.0001,-0.0001,0.00077,0.00097,0.0002,9e-05,-4e-05,5,31
18732,-0.00037,-0.0001,-0.0001,0.00077,0.00097,0.0002,9e-05,-4e-05,5,31
18733,-0.00037,-0.0001,-0.0001,0.00077,0.00097,0.0002,9e-05,-4e-05,5,31
18734,-0.00037,-0.0001,-0.0001,0.00077,0.00097,0.0002,9e-05,-4e-05,5,31
18735,-0.00037,-0.0001,-0.0001,0.00077,0.00097,0.0002,9e-05,-4e-05,5,31
18736,-0.00037,-0.0001,-0.0001,0.00077,0.00097,0.0002,9e-05,-4e-05,5,31
18739,2e-05,0.00011,0.0002,-0.00022,-4e-05,0.00025,0.00021,0.0001,5,31
18740,-0.0001,2e-05,0,-0.00011,-0.00011,-8e-05,-7e-05,-6e-05,5,31
18741,-0.0001,2e-05,0,-0.00011,-0.00011,-8e-05,-7e-05,-6e-05,5,31
18742,-0.0001,2e-05,0,-0.00011,-0.00011,-8e-05,-7e-05,-6e-05,5,31
18744,-0.0001,2e-05,0,-0.00011,-0.00011,-8e-05,-7e-05,-6e-05,5,31
18745,-0.0001,2e-05,0,-0.00011,-0.00011,-8e-05,-7e-05,-6e-05,5,31
18746,-0.0001,2e-05,0,-0.00011,-0.00011,-8e-05,-7e-05,-6e-05,5,31
18747,-0.0001,2e-05,0,-0.00011,-0.00011,-8e-05,-7e-05,-6e-05,5,31
18748,-0.0001,2e-05,0,-0.00011,-0.00011,-8e-05,-7e-05,-6e-05,5,31
18749,-0.0001,2e-05,0,-0.00011,-0.00011,-8e-05,-7e-05,-6e-05,5,31
18750,-0.0001,2e-05,0,-0.00011,-0.00011,-8e-05,-7e-05,-6e-05,5,31
18751,-0.0001,2e-05,0,-0.00011,-0.00011,-8e-05,-7e-05,-6e-05,5,31
18752,-0.0001,2e-05,0,-0.00011,-0.00011,-8e-05,-7e-05,-6e-05,5,31
18753,-0.0001,2e-05,0,-0.00011,-0.00011,-8e-05,-7e-05,-6e-05,5,31
18754,-0.0001,2e-05,0,-0.00011,-0.00011,-8e-05,-7e-05,-6e-05,5,31
18755,-0.0001,2e-05,0,-0.00011,-0.00011,-8e-05,-7e-05,-6e-05,5,31
18756,-0.0001,2e-05,0,-0.00011,-0.00011,-8e-05,-7e-05,-6e-05,5,31
18757,-0.0001,2e-05,0,-0.00011,-0.00011,-8e-05,-7e-05,-6e-05,5,31
18758,-0.0001,2e-05,0,-0.00011,-0.00011,-8e-05,-7e-05,-6e-05,5,31
18759,-0.0001,2e-05,0,-0.00011,-0.00011,-8e-05,-7e-05,-6e-05,5,31
18760,-0.0001,2e-05,0,-0.00011,-0.00011,-8e-05,-7e-05,-6e-05,5,31
18761,-0.0001,2e-05,0,-0.00011,-0.00011,-8e-05,-7e-05,-6e-05,5,31
18762,-6e-05,0.00023,1e-05,0.00043,0.0007,1e-05,-2e-05,-1e-05,5,31
18763,0.00013,-4e-05,1e-05,4e-05,0.00028,4e-05,-2e-05,0,5,31
18764,0.00013,-4e-05,1e-05,4e-05,0.00028,4e-05,-2e-05,0,5,31
18765,0.00013,-4e-05,1e-05,4e-05,0.00028,4e-05,-2e-05,0,5,31
18766,0.00013,-4e-05,1e-05,4e-05,0.00028,4e-05,-2e-05,0,5,31
18767,0.00013,-4e-05,1e-05,4e-05,0.00028,4e-05,-2e-05,0,5,31
18768,0.00013,-4e-05,1e-05,4e-05,0.00028,4e-05,-2e-05,0,5,31
18769,0.00013,-4e-05,1e-05,4e-05,0.00028,4e-05,-2e-05,0,5,31
18770,0.00013,-4e-05,1e-05,4e-05,0.00028,4e-05,-2e-05,0,5,31
18771,0.00013,-4e-05,1e-05,4e-05,0.00028,4e-05,-2e-05,0,5,31
18772,0.00013,-4e-05,1e-05,4e-05,0.00028,4e-05,-2e-05,0,5,31
18774,0.00013,-4e-05,1e-05,4e-05,0.00028,4e-05,-2e-05,0,5,31
18775,0.00013,-4e-05,1e-05,4e-05,0.00028,4e-05,-2e-05,0,5,31
18776,0.00013,-4e-05,1e-05,4e-05,0.00028,4e-05,-2e-05,0,5,31
18777,0.00013,-4e-05,1e-05,4e-05,0.00028,4e-05,-2e-05,0,5,31
18778,0.00013,-4e-05,1e-05,4e-05,0.00028,4e-05,-2e-05,0,5,31
18779,0.00013,-4e-05,1e-05,4e-05,0.00028,4e-05,-2e-05,0,5,31
18780,0.00013,-4e-05,1e-05,4e-05,0.00028,4e-05,-2e-05,0,5,31
18781,0.00013,-4e-05,1e-05,4e-05,0.00028,4e-05,-2e-05,0,5,31
18782,0.00013,-4e-05,1e-05,4e-05,0.00028,4e-05,-2e-05,0,5,31
18784,0.00013,-4e-05,1e-05,4e-05,0.00028,4e-05,-2e-05,0,5,31
18785,0.00015,-7e-05,-0.00026,9e-05,-0.00036,-4e-05,-0.00013,-3e-05,5,31
18787,0.00019,0.00019,0.00033,0.00045,-0.00085,-0.00018,-5e-05,3e-05,5,31
18789,0.00019,0.00019,0.00033,0.00045,-0.00085,-0.00018,-5e-05,3e-05,5,31
18790,0.00019,0.00019,0.00033,0.00045,-0.00085,-0.00018,-5e-05,3e-05,5,31
18791,0.00019,0.00019,0.00033,0.00045,-0.00085,-0.00018,-5e-05,3e-05,5,31
18792,0.00019,0.00019,0.00033,0.00045,-0.00085,-0.00018,-5e-05,3e-05,5,31
18793,0.00019,0.00019,0.00033,0.00045,-0.00085,-0.00018,-5e-05,3e-05,5,31
18794,0.00019,0.00019,0.00033,0.00045,-0.00085,-0.00018,-5e-05,3e-05,5,31
18795,0.00019,0.00019,0.00033,0.00045,-0.00085,-0.00018,-5e-05,3e-05,5,31
18796,0.00019,0.00019,0.00033,0.00045,-0.00085,-0.00018,-5e-05,3e-05,5,31
18797,0.00019,0.00019,0.00033,0.00045,-0.00085,-0.00018,-5e-05,3e-05,5,31
18798,0.00019,0.00019,0.00033,0.00045,-0.00085,-0.00018,-5e-05,3e-05,5,31
18799,-0.00023,6e-05,-2e-05,0.00047,0.00015,-9e-05,-1e-05,-2e-05,5,31
18800,8e-05,-0.00016,-3e-05,-0.00039,0.00051,0.00017,6e-05,1e-05,5,31
18801,8e-05,-0.00016,-3e-05,-0.00039,0.00051,0.00017,6e-05,1e-05,5,31
18802,8e-05,-0.00016,-3e-05,-0.00039,0.00051,0.00017,6e-05,1e-05,5,31
18803,8e-05,-0.00016,-3e-05,-0.00039,0.00051,0.00017,6e-05,1e-05,5,31
18804,8e-05,-0.00016,-3e-05,-0.00039,0.00051,0.00017,6e-05,1e-05,5,31
18805,8e-05,-0.00016,-3e-05,-0.00039,0.00051,0.00017,6e-05,1e-05,5,31
18806,8e-05,-0.00016,-3e-05,-0.00039,0.00051,0.00017,6e-05,1e-05,5,31
18807,8e-05,-0.00016,-3e-05,-0.00039,0.00051,0.00017,6e-05,1e-05,5,31
18808,8e-05,-0.00016,-3e-05,-0.00039,0.00051,0.00017,6e-05,1e-05,5,31
18809,8e-05,-0.00016,-3e-05,-0.00039,0.00051,0.00017,6e-05,1e-05,5,31
18810,8e-05,-0.00016,-3e-05,-0.00039,0.00051,0.00017,6e-05,1e-05,5,31
18811,8e-05,-0.00016,-3e-05,-0.00039,0.00051,0.00017,6e-05,1e-05,5,31
18812,8e-05,-0.00016,-3e-05,-0.00039,0.00051,0.00017,6e-05,1e-05,5,31
18813,8e-05,-0.00016,-3e-05,-0.00039,0.00051,0.00017,6e-05,1e-05,5,31
18814,8e-05,-0.00016,-3e-05,-0.00039,0.00051,0.00017,6e-05,1e-05,5,31
18815,8e-05,-0.00016,-3e-05,-0.00039,0.00051,0.00017,6e-05,1e-05,5,31
18816,8e-05,-0.00016,-3e-05,-0.00039,0.00051,0.00017,6e-05,1e-05,5,31
18817,8e-05,-0.00016,-3e-05,-0.00039,0.00051,0.00017,6e-05,1e-05,5,31
18818,8e-05,-0.00016,-3e-05,-0.00039,0.00051,0.00017,6e-05,1e-05,5,31
18819,8e-05,-0.00016,-3e-05,-0.00039,0.00051,0.00017,6e-05,1e-05,5,31
18820,8e-05,-0.00016,-3e-05,-0.00039,0.00051,0.00017,6e-05,1e-05,5,31
18821,8e-05,-0.00016,-3e-05,-0.00039,0.00051,0.00017,6e-05,1e-05,5,31
