23047,0.00024,0.00021,5e-05,0,-0.00017,-6e-05,-3e-05,-1e-05,5,32
23048,0.00024,0.00021,5e-05,0,-0.00017,-6e-05,-3e-05,-1e-05,5,32
23049,0.00024,0.00021,5e-05,0,-0.00017,-6e-05,-3e-05,-1e-05,5,32
23050,0.00024,0.00021,5e-05,0,-0.00017,-6e-05,-3e-05,-1e-05,5,32
23051,0.00024,0.00021,5e-05,0,-0.00017,-6e-05,-3e-05,-1e-05,5,32
23052,0.00024,0.00021,5e-05,0,-0.00017,-6e-05,-3e-05,-1e-05,5,32
23053,0.00024,0.00021,5e-05,0,-0.00017,-6e-05,-3e-05,-1e-05,5,32
23054,0.00024,0.00021,5e-05,0,-0.00017,-6e-05,-3e-05,-1e-05,5,32
23055,-0.00011,-2e-05,-9e-05,-0.00018,-0.00017,-1e-05,-3e-05,-5e-05,5,32
23056,1e-05,-5e-05,-2e-05,6e-05,8e-05,0.00015,-5e-05,-3e-05,5,32
23057,-6e-05,-5e-05,-0.00011,8e-05,-0.00012,-0.00013,-4e-05,-7e-05,5,32
23058,-6e-05,-5e-05,-0.00011,8e-05,-0.00012,-0.00013,-4e-05,-7e-05,5,32
23059,-6e-05,-5e-05,-0.00011,8e-05,-0.00012,-0.00013,-4e-05,-7e-05,5,32
23060,-6e-05,-5e-05,-0.00011,8e-05,-0.00012,-0.00013,-4e-05,-7e-05,5,32
23061,-6e-05,-5e-05,-0.00011,8e-05,-0.00012,-0.00013,-4e-05,-7e-05,5,32
23062,-6e-05,-5e-05,-0.00011,8e-05,-0.00012,-0.00013,-4e-05,-7e-05,5,32
23063,-6e-05,-5e-05,-0.00011,8e-05,-0.00012,-0.00013,-4e-05,-7e-05,5,32
23064,-6e-05,-5e-05,-0.00011,8e-05,-0.00012,-0.00013,-4e-05,-7e-05,5,32
23065,-6e-05,-5e-05,-0.00011,8e-05,-0.00012,-0.00013,-4e-05,-7e-05,5,32
23066,-6e-05,-5e-05,-0.00011,8e-05,-0.00012,-0.00013,-4e-05,-7e-05,5,32
23067,-6e-05,-5e-05,-0.00011,8e-05,-0.00012,-0.00013,-4e-05,-7e-05,5,32
23068,-6e-05,-5e-05,-0.00011,8e-05,-0.00012,-0.00013,-4e-05,-7e-05,5,32
23069,1e-05,5e-05,-4e-05,-7e-05,0.00012,5e-05,-7e-05,-5e-05,5,32
23070,1e-05,5e-05,-4e-05,-7e-05,0.00012,5e-05,-7e-05,-5e-05,5,32
23071,1e-05,5e-05,-4e-05,-7e-05,0.00012,5e-05,-7e-05,-5e-05,5,32
23072,1e-05,5e-05,-4e-05,-7e-05,0.00012,5e-05,-7e-05,-5e-05,5,32
23073,1e-05,5e-05,-4e-05,-7e-05,0.00012,5e-05,-7e-05,-5e-05,5,32
23074,1e-05,5e-05,-4e-05,-7e-05,0.00012,5e-05,-7e-05,-5e-05,5,32
23075,1e-05,5e-05,-4e-05,-7e-05,0.00012,5e-05,-7e-05,-5e-05,5,32
23076,1e-05,5e-05,-4e-05,-7e-05,0.00012,5e-05,-7e-05,-5e-05,5,32
23077,1e-05,5e-05,-4e-05,-7e-05,0.00012,5e-05,-7e-05,-5e-05,5,32
23078,1e-05,5e-05,-4e-05,-7e-05,0.00012,5e-05,-7e-05,-5e-05,5,32
23079,1e-05,5e-05,-4e-05,-7e-05,0.00012,5e-05,-7e-05,-5e-05,5,32
23080,1e-05,5e-05,-4e-05,-7e-05,0.00012,5e-05,-7e-05,-5e-05,5,32
23081,1e-05,5e-05,-4e-05,-7e-05,0.00012,5e-05,-7e-05,-5e-05,5,32
23082,1e-05,5e-05,-4e-05,-7e-05,0.00012,5e-05,-7e-05,-5e-05,5,32
23083,1e-05,5e-05,-4e-05,-7e-05,0.00012,5e-05,-7e-05,-5e-05,5,32
23084,-0.00011,2e-05,5e-05,-0.00017,0.00042,7e-05,0,0,5,32
23085,-0.00011,2e-05,5e-05,-0.00017,0.00042,7e-05,0,0,5,32
23086,-0.00011,2e-05,5e-05,-0.00017,0.00042,7e-05,0,0,5,32
23088,-0.00011,2e-05,5e-05,-0.00017,0.00042,7e-05,0,0,5,32
23089,-0.00011,2e-05,5e-05,-0.00017,0.00042,7e-05,0,0,5,32
23090,-0.00011,2e-05,5e-05,-0.00017,0.00042,7e-05,0,0,5,32
23091,-0.00011,2e-05,5e-05,-0.00017,0.00042,7e-05,0,0,5,32
23092,-0.00011,2e-05,5e-05,-0.00017,0.00042,7e-05,0,0,5,32
23093,-0.00011,2e-05,5e-05,-0.00017,0.00042,7e-05,0,0,5,32
23094,8e-05,-0.00012,1e-05,-6e-05,-0.00013,0.00023,8e-05,3e-05,5,32
23095,-0.00021,-0.00017,-0.00017,-0.00012,-0.00037,-5e-05,-4e-05,-4e-05,5,32
23096,0.0001,7e-05,-1e-05,0.00013,0.00061,-7e-05,-3e-05,2e-05,5,32
23097,0.0001,7e-05,-1e-05,0.00013,0.00061,-7e-05,-3e-05,2e-05,5,32
23098,0.0001,7e-05,-1e-05,0.00013,0.00061,-7e-05,-3e-05,2e-05,5,32
23099,0.0001,7e-05,-1e-05,0.00013,0.00061,-7e-05,-3e-05,2e-05,5,32
23100,0.0001,7e-05,-1e-05,0.00013,0.00061,-7e-05,-3e-05,2e-05,5,32
23101,0.0001,7e-05,-1e-05,0.00013,0.00061,-7e-05,-3e-05,2e-05,5,32
23102,0.0001,7e-05,-1e-05,0.00013,0.00061,-7e-05,-3e-05,2e-05,5,32
23103,0.0001,7e-05,-1e-05,0.00013,0.00061,-7e-05,-3e-05,2e-05,5,32
23104,0.0001,7e-05,-1e-05,0.00013,0.00061,-7e-05,-3e-05,2e-05,5,32
23105,0.0001,7e-05,-1e-05,0.00013,0.00061,-7e-05,-3e-05,2e-05,5,32
23106,0.0001,7e-05,-1e-05,0.00013,0.00061,-7e-05,-3e-05,2e-05,5,32
23107,0.0001,7e-05,-1e-05,0.00013,0.00061,-7e-05,-3e-05,2e-05,5,32
23108,0.0001,7e-05,-1e-05,0.00013,0.00061,-7e-05,-3e-05,2e-05,5,32
23109,0.0001,7e-05,-1e-05,0.00013,0.00061,-7e-05,-3e-05,2e-05,5,32
23110,0.0001,7e-05,-1e-05,0.00013,0.00061,-7e-05,-3e-05,2e-05,5,32
23111,0.0001,7e-05,-1e-05,0.00013,0.00061,-7e-05,-3e-05,2e-05,5,32
23112,0.0001,7e-05,-1e-05,0.00013,0.00061,-7e-05,-3e-05,2e-05,5,32
23113,0.0001,7e-05,-1e-05,0.00013,0.00061,-7e-05,-3e-05,2e-05,5,32
23114,0.0001,7e-05,-1e-05,0.00013,0.00061,-7e-05,-3e-05,2e-05,5,32
23115,0.0001,7e-05,-1e-05,0.00013,0.00061,-7e-05,-3e-05,2e-05,5,32
23116,0.0001,7e-05,-1e-05,0.00013,0.00061,-7e-05,-3e-05,2e-05,5,32
23117,0.0001,7e-05,-1e-05,0.00013,0.00061,-7e-05,-3e-05,2e-05,5,32
23118,0.0001,7e-05,-1e-05,0.00013,0.00061,-7e-05,-3e-05,2e-05,5,32
23119,0.0001,7e-05,-1e-05,0.00013,0.00061,-7e-05,-3e-05,2e-05,5,32
23120,0.0001,7e-05,-1e-05,0.00013,0.00061,-7e-05,-3e-05,2e-05,5,32
23121,0.0001,7e-05,-1e-05,0.00013,0.00061,-7e-05,-3e-05,2e-05,5,32
23122,0.0001,7e-05,-1e-05,0.00013,0.00061,-7e-05,-3e-05,2e-05,5,32
23123,0.0001,8e-05,7e-05,0.00012,0.00016,-5e-05,-3e-05,-3e-05,5,32
23124,0.0001,8e-05,7e-05,0.00012,0.00016,-5e-05,-3e-05,-3e-05,5,32
23125,0.0001,8e-05,7e-05,0.00012,0.00016,-5e-05,-3e-05,-3e-05,5,32
23126,0.0001,8e-05,7e-05,0.00012,0.00016,-5e-05,-3e-05,-3e-05,5,32
23127,0.0001,8e-05,7e-05,0.00012,0.00016,-5e-05,-3e-05,-3e-05,5,32
23128,0.0001,8e-05,7e-05,0.00012,0.00016,-5e-05,-3e-05,-3e-05,5,32
23129,0.0001,8e-05,7e-05,0.00012,0.00016,-5e-05,-3e-05,-3e-05,5,32
23130,0.0001,8e-05,7e-05,0.00012,0.00016,-5e-05,-3e-05,-3e-05,5,32
23131,0.00018,8e-05,-6e-05,-0.0001,-1e-05,3e-05,-1e-05,4e-05,5,32
23132,-7e-05,-7e-05,0,0,6e-05,-0.00017,-5e-05,-2e-05,5,32
23133,-7e-05,-7e-05,0,0,6e-05,-0.00017,-5e-05,-2e-05,5,32
23134,-7e-05,-7e-05,0,0,6e-05,-0.00017,-5e-05,-2e-05,5,32
23135,-7e-05,-7e-05,0,0,6e-05,-0.00017,-5e-05,-2e-05,5,32
23136,-7e-05,-7e-05,0,0,6e-05,-0.00017,-5e-05,-2e-05,5,32
23139,-7e-05,-7e-05,0,0,6e-05,-0.00017,-5e-05,-2e-05,5,32
23140,-7e-05,-7e-05,0,0,6e-05,-0.00017,-5e-05,-2e-05,5,32
23141,-7e-05,-7e-05,0,0,6e-05,-0.00017,-5e-05,-2e-05,5,32
23142,-7e-05,-7e-05,0,0,6e-05,-0.00017,-5e-05,-2e-05,5,32
23143,-7e-05,-7e-05,0,0,6e-05,-0.00017,-5e-05,-2e-05,5,32
23144,-7e-05,-7e-05,0,0,6e-05,-0.00017,-5e-05,-2e-05,5,32
23145,-7e-05,-7e-05,0,0,6e-05,-0.00017,-5e-05,-2e-05,5,32
23146,-7e-05,-7e-05,0,0,6e-05,-0.00017,-5e-05,-2e-05,5,32
23147,-7e-05,-7e-05,0,0,6e-05,-0.00017,-5e-05,-2e-05,5,32
23148,-7e-05,-7e-05,0,0,6e-05,-0.00017,-5e-05,-2e-05,5,32
23149,-7e-05,-7e-05,0,0,6e-05,-0.00017,-5e-05,-2e-05,5,32
23150,-7e-05,-7e-05,0,0,6e-05,-0.00017,-5e-05,-2e-05,5,32
23151,-7e-05,-7e-05,0,0,6e-05,-0.00017,-5e-05,-2e-05,5,32
23152,-7e-05,-7e-05,0,0,6e-05,-0.00017,-5e-05,-2e-05,5,32
23153,-7e-05,-7e-05,0,0,6e-05,-0.00017,-5e-05,-2e-05,5,32
23154,-7e-05,-7e-05,0,0,6e-05,-0.00017,-5e-05,-2e-05,5,32
23155,-7e-05,-7e-05,0,0,6e-05,-0.00017,-5e-05,-2e-05,5,32
23156,-7e-05,-7e-05,0,0,6e-05,-0.00017,-5e-05,-2e-05,5,32
23157,-7e-05,-7e-05,0,0,6e-05,-0.00017,-5e-05,-2e-05,5,32
23158,-7e-05,-7e-05,0,0,6e-05,-0.00017,-5e-05,-2e-05,5,32
23159,-7e-05,-7e-05,0,0,6e-05,-0.00017,-5e-05,-2e-05,5,32
23160,-7e-05,-7e-05,0,0,6e-05,-0.00017,-5e-05,-2e-05,5,32
23161,-7e-05,-7e-05,0,0,6e-05,-0.00017,-5e-05,-2e-05,5,32
23162,-7e-05,-7e-05,0,0,6e-05,-0.00017,-5e-05,-2e-05,5,32
23163,-7e-05,-7e-05,0,0,6e-05,-0.00017,-5e-05,-2e-05,5,32
23164,-7e-05,-7e-05,0,0,6e-05,-0.00017,-5e-05,-2e-05,5,32
23165,-7e-05,-7e-05,0,0,6e-05,-0.00017,-5e-05,-2e-05,5,32
23166,-7e-05,-7e-05,0,0,6e-05,-0.00017,-5e-05,-2e-05,5,32
23167,-7e-05,-7e-05,0,0,6e-05,-0.00017,-5e-05,-2e-05,5,32
23168,0,8e-05,3e-05,0.00018,0.00026,0,-6e-05,-4e-05,5,32
23169,-1e-05,5e-05,9e-05,8e-05,-0.00028,-8e-05,5e-05,3e-05,5,32
23170,-1e-05,5e-05,9e-05,8e-05,-0.00028,-8e-05,5e-05,3e-05,5,32
23171,7e-05,-2e-05,-6e-05,-5e-05,-0.00026,1e-05,0,2e-05,5,32
23172,7e-05,-2e-05,-6e-05,-5e-05,-0.00026,1e-05,0,2e-05,5,32
23173,7e-05,-2e-05,-6e-05,-5e-05,-0.00026,1e-05,0,2e-05,5,32
23174,7e-05,-2e-05,-6e-05,-5e-05,-0.00026,1e-05,0,2e-05,5,32
23175,-0.00016,-0.00012,3e-05,5e-05,-0.00037,0.00015,4e-05,-6e-05,5,32
23176,-0.00016,-0.00012,3e-05,5e-05,-0.00037,0.00015,4e-05,-6e-05,5,32
23177,-8e-05,2e-05,3e-05,7e-05,-0.00039,0.00012,3e-05,-6e-05,5,32
23179,-8e-05,2e-05,3e-05,7e-05,-0.00039,0.00012,3e-05,-6e-05,5,32
23180,-8e-05,2e-05,3e-05,7e-05,-0.00039,0.00012,3e-05,-6e-05,5,32
23181,-8e-05,2e-05,3e-05,7e-05,-0.00039,0.00012,3e-05,-6e-05,5,32
23182,-8e-05,2e-05,3e-05,7e-05,-0.00039,0.00012,3e-05,-6e-05,5,32
23183,-8e-05,2e-05,3e-05,7e-05,-0.00039,0.00012,3e-05,-6e-05,5,32
23184,-8e-05,2e-05,3e-05,7e-05,-0.00039,0.00012,3e-05,-6e-05,5,32
23185,-8e-05,2e-05,3e-05,7e-05,-0.00039,0.00012,3e-05,-6e-05,5,32
23186,-8e-05,2e-05,3e-05,7e-05,-0.00039,0.00012,3e-05,-6e-05,5,32
23188,-8e-05,2e-05,3e-05,7e-05,-0.00039,0.00012,3e-05,-6e-05,5,32
23189,-8e-05,2e-05,3e-05,7e-05,-0.00039,0.00012,3e-05,-6e-05,5,32
23190,0.00011,-8e-05,7e-05,0.00023,7e-05,0.00011,0,0,5,32
23191,0.00011,-8e-05,7e-05,0.00023,7e-05,0.00011,0,0,5,32
23192,0.00011,-8e-05,7e-05,0.00023,7e-05,0.00011,0,0,5,32
23193,0.00011,-8e-05,7e-05,0.00023,7e-05,0.00011,0,0,5,32
23194,0.00011,-8e-05,7e-05,0.00023,7e-05,0.00011,0,0,5,32
23195,0.00011,-8e-05,7e-05,0.00023,7e-05,0.00011,0,0,5,32
23196,0.00011,-8e-05,7e-05,0.00023,7e-05,0.00011,0,0,5,32
23197,0.00011,-8e-05,7e-05,0.00023,7e-05,0.00011,0,0,5,32
23198,0.00011,-8e-05,7e-05,0.00023,7e-05,0.00011,0,0,5,32
23199,0.00011,-8e-05,7e-05,0.00023,7e-05,0.00011,0,0,5,32
23200,0.00011,-8e-05,7e-05,0.00023,7e-05,0.00011,0,0,5,32
23201,0.00011,-8e-05,7e-05,0.00023,7e-05,0.00011,0,0,5,32
23202,0.00011,-8e-05,7e-05,0.00023,7e-05,0.00011,0,0,5,32
23203,0.00011,-8e-05,7e-05,0.00023,7e-05,0.00011,0,0,5,32
23204,0.00011,-8e-05,7e-05,0.00023,7e-05,0.00011,0,0,5,32
23205,-0.00012,-0.00019,-0.00025,-1e-05,0.0005,-1e-05,-1e-05,-6e-05,5,32
23206,-0.00012,-0.00019,-0.00025,-1e-05,0.0005,-1e-05,-1e-05,-6e-05,5,32
23207,-0.00012,-0.00019,-0.00025,-1e-05,0.0005,-1e-05,-1e-05,-6e-05,5,32
23208,-0.00012,-0.00019,-0.00025,-1e-05,0.0005,-1e-05,-1e-05,-6e-05,5,32
23209,-0.00012,-0.00019,-0.00025,-1e-05,0.0005,-1e-05,-1e-05,-6e-05,5,32
23210,-0.00012,-0.00019,-0.00025,-1e-05,0.0005,-1e-05,-1e-05,-6e-05,5,32
23211,-0.00012,-0.00019,-0.00025,-1e-05,0.0005,-1e-05,-1e-05,-6e-05,5,32
23212,-0.00012,-0.00019,-0.00025,-1e-05,0.0005,-1e-05,-1e-05,-6e-05,5,32
23213,0.00015,6e-05,0,-7e-05,-3e-05,-1e-05,-2e-05,2e-05,5,32
23214,0.00015,6e-05,0,-7e-05,-3e-05,-1e-05,-2e-05,2e-05,5,32
23215,0.00015,6e-05,0,-7e-05,-3e-05,-1e-05,-2e-05,2e-05,5,32
23216,0.00015,6e-05,0,-7e-05,-3e-05,-1e-05,-2e-05,2e-05,5,32
23217,0.00015,6e-05,0,-7e-05,-3e-05,-1e-05,-2e-05,2e-05,5,32
23218,0.00015,6e-05,0,-7e-05,-3e-05,-1e-05,-2e-05,2e-05,5,32
23219,0.00015,6e-05,0,-7e-05,-3e-05,-1e-05,-2e-05,2e-05,5,32
23220,0.00015,6e-05,0,-7e-05,-3e-05,-1e-05,-2e-05,2e-05,5,32
23221,0.00015,6e-05,0,-7e-05,-3e-05,-1e-05,-2e-05,2e-05,5,32
23222,0.00015,6e-05,0,-7e-05,-3e-05,-1e-05,-2e-05,2e-05,5,32
23223,0.00015,6e-05,0,-7e-05,-3e-05,-1e-05,-2e-05,2e-05,5,32
23224,0.00015,6e-05,0,-7e-05,-3e-05,-1e-05,-2e-05,2e-05,5,32
23225,0.00015,6e-05,0,-7e-05,-3e-05,-1e-05,-2e-05,2e-05,5,32
23226,-9e-05,4e-05,0,-9e-05,-0.00027,-0.00013,-3e-05,-2e-05,5,32
23227,-9e-05,4e-05,0,-9e-05,-0.00027,-0.00013,-3e-05,-2e-05,5,32
23228,-9e-05,4e-05,0,-9e-05,-0.00027,-0.00013,-3e-05,-2e-05,5,32
23229,-9e-05,4e-05,0,-9e-05,-0.00027,-0.00013,-3e-05,-2e-05,5,32
23230,-9e-05,4e-05,0,-9e-05,-0.00027,-0.00013,-3e-05,-2e-05,5,32
23231,-9e-05,4e-05,0,-9e-05,-0.00027,-0.00013,-3e-05,-2e-05,5,32
23232,-9e-05,4e-05,0,-9e-05,-0.00027,-0.00013,-3e-05,-2e-05,5,32
23233,-9e-05,4e-05,0,-9e-05,-0.00027,-0.00013,-3e-05,-2e-05,5,32
23234,-9e-05,4e-05,0,-9e-05,-0.00027,-0.00013,-3e-05,-2e-05,5,32
23235,-9e-05,4e-05,0,-9e-05,-0.00027,-0.00013,-3e-05,-2e-05,5,32
23236,-9e-05,4e-05,0,-9e-05,-0.00027,-0.00013,-3e-05,-2e-05,5,32
23238,-9e-05,4e-05,0,-9e-05,-0.00027,-0.00013,-3e-05,-2e-05,5,32
23239,-9e-05,4e-05,0,-9e-05,-0.00027,-0.00013,-3e-05,-2e-05,5,32
23240,-9e-05,4e-05,0,-9e-05,-0.00027,-0.00013,-3e-05,-2e-05,5,32
23241,-9e-05,4e-05,0,-9e-05,-0.00027,-0.00013,-3e-05,-2e-05,5,32
23242,-9e-05,4e-05,0,-9e-05,-0.00027,-0.00013,-3e-05,-2e-05,5,32
23243,-4e-05,0,3e-05,-3e-05,-0.00013,-6e-05,-5e-05,-4e-05,5,32
23244,-2e-05,6e-05,2e-05,-0.0001,-0.00019,-5e-05,-1e-05,-1e-05,5,32
23245,-2e-05,6e-05,2e-05,-0.0001,-0.00019,-5e-05,-1e-05,-1e-05,5,32
23246,-2e-05,6e-05,2e-05,-0.0001,-0.00019,-5e-05,-1e-05,-1e-05,5,32
23247,-2e-05,6e-05,2e-05,-0.0001,-0.00019,-5e-05,-1e-05,-1e-05,5,32
23248,-2e-05,6e-05,2e-05,-0.0001,-0.00019,-5e-05,-1e-05,-1e-05,5,32
23249,0,-3e-05,-0.00021,-0.00018,0.00084,0.00025,-1e-05,-1e-05,5,32
23250,0,-3e-05,-0.00021,-0.00018,0.00084,0.00025,-1e-05,-1e-05,5,32
23251,0,-3e-05,-0.00021,-0.00018,0.00084,0.00025,-1e-05,-1e-05,5,32
23252,0,-3e-05,-0.00021,-0.00018,0.00084,0.00025,-1e-05,-1e-05,5,32
23253,0,-3e-05,-0.00021,-0.00018,0.00084,0.00025,-1e-05,-1e-05,5,32
23254,0,-3e-05,-0.00021,-0.00018,0.00084,0.00025,-1e-05,-1e-05,5,32
23255,0,-3e-05,-0.00021,-0.00018,0.00084,0.00025,-1e-05,-1e-05,5,32
23256,0,-3e-05,-0.00021,-0.00018,0.00084,0.00025,-1e-05,-1e-05,5,32
23257,0,-3e-05,-0.00021,-0.00018,0.00084,0.00025,-1e-05,-1e-05,5,32
23258,0,-3e-05,-0.00021,-0.00018,0.00084,0.00025,-1e-05,-1e-05,5,32
23259,0,-3e-05,-0.00021,-0.00018,0.00084,0.00025,-1e-05,-1e-05,5,32
23260,0,-3e-05,-0.00021,-0.00018,0.00084,0.00025,-1e-05,-1e-05,5,32
23261,0,-3e-05,-0.00021,-0.00018,0.00084,0.00025,-1e-05,-1e-05,5,32
23262,0,-3e-05,-0.00021,-0.00018,0.00084,0.00025,-1e-05,-1e-05,5,32
23263,0,-3e-05,-0.00021,-0.00018,0.00084,0.00025,-1e-05,-1e-05,5,32
23264,0,-3e-05,-0.00021,-0.00018,0.00084,0.00025,-1e-05,-1e-05,5,32
23265,-1e-05,-3e-05,8e-05,0.0001,2e-05,1e-05,2e-05,-2e-05,5,32
23266,-1e-05,-3e-05,8e-05,0.0001,2e-05,1e-05,2e-05,-2e-05,5,32
23267,-1e-05,-3e-05,8e-05,0.0001,2e-05,1e-05,2e-05,-2e-05,5,32
23268,-1e-05,-3e-05,8e-05,0.0001,2e-05,1e-05,2e-05,-2e-05,5,32
23269,-1e-05,-3e-05,8e-05,0.0001,2e-05,1e-05,2e-05,-2e-05,5,32
23270,-1e-05,-3e-05,8e-05,0.0001,2e-05,1e-05,2e-05,-2e-05,5,32
23271,-1e-05,-3e-05,8e-05,0.0001,2e-05,1e-05,2e-05,-2e-05,5,32
23272,-1e-05,-3e-05,8e-05,0.0001,2e-05,1e-05,2e-05,-2e-05,5,32
23273,-1e-05,-3e-05,8e-05,0.0001,2e-05,1e-05,2e-05,-2e-05,5,32
23274,-1e-05,-3e-05,8e-05,0.0001,2e-05,1e-05,2e-05,-2e-05,5,32
23275,-1e-05,-3e-05,8e-05,0.0001,2e-05,1e-05,2e-05,-2e-05,5,32
23276,-1e-05,-3e-05,8e-05,0.0001,2e-05,1e-05,2e-05,-2e-05,5,32
23277,-1e-05,-3e-05,8e-05,0.0001,2e-05,1e-05,2e-05,-2e-05,5,32
23278,-1e-05,-3e-05,8e-05,0.0001,2e-05,1e-05,2e-05,-2e-05,5,32
23279,-1e-05,-3e-05,8e-05,0.0001,2e-05,1e-05,2e-05,-2e-05,5,32
23280,-1e-05,-3e-05,8e-05,0.0001,2e-05,1e-05,2e-05,-2e-05,5,32
23281,-1e-05,-3e-05,8e-05,0.0001,2e-05,1e-05,2e-05,-2e-05,5,32
23282,-1e-05,-3e-05,8e-05,0.0001,2e-05,1e-05,2e-05,-2e-05,5,32
23283,-1e-05,-3e-05,8e-05,0.0001,2e-05,1e-05,2e-05,-2e-05,5,32
23284,-1e-05,-3e-05,8e-05,0.0001,2e-05,1e-05,2e-05,-2e-05,5,32
23285,-1e-05,-3e-05,8e-05,0.0001,2e-05,1e-05,2e-05,-2e-05,5,32
23286,-1e-05,-3e-05,8e-05,0.0001,2e-05,1e-05,2e-05,-2e-05,5,32
23289,-0.00012,7e-05,5e-05,-4e-05,-0.00013,-0.0002,-5e-05,-3e-05,5,32
23290,-0.00012,7e-05,5e-05,-4e-05,-0.00013,-0.0002,-5e-05,-3e-05,5,32
23291,-0.00012,-0.00012,-0.00012,-0.00011,-0.00048,-8e-05,-3e-05,-4e-05,5,32
23292,-0.00012,-0.00012,-0.00012,-0.00011,-0.00048,-8e-05,-3e-05,-4e-05,5,32
23293,-0.00012,-0.00012,-0.00012,-0.00011,-0.00048,-8e-05,-3e-05,-4e-05,5,32
23294,-0.00012,-0.00012,-0.00012,-0.00011,-0.00048,-8e-05,-3e-05,-4e-05,5,32
23295,0.00016,-0.00014,-3e-05,-3e-05,-0.00025,-9e-05,-2e-05,-4e-05,5,32
23296,0.00016,-0.00014,-3e-05,-3e-05,-0.00025,-9e-05,-2e-05,-4e-05,5,32
23297,0.00016,-0.00014,-3e-05,-3e-05,-0.00025,-9e-05,-2e-05,-4e-05,5,32
23298,0.00016,-0.00014,-3e-05,-3e-05,-0.00025,-9e-05,-2e-05,-4e-05,5,32
23299,0.00016,-0.00014,-3e-05,-3e-05,-0.00025,-9e-05,-2e-05,-4e-05,5,32
23300,0.00016,-0.00014,-3e-05,-3e-05,-0.00025,-9e-05,-2e-05,-4e-05,5,32
23301,0.00016,-0.00014,-3e-05,-3e-05,-0.00025,-9e-05,-2e-05,-4e-05,5,32
23302,0.00016,-0.00014,-3e-05,-3e-05,-0.00025,-9e-05,-2e-05,-4e-05,5,32
23303,0.00016,-0.00014,-3e-05,-3e-05,-0.00025,-9e-05,-2e-05,-4e-05,5,32
23304,0.00016,-0.00014,-3e-05,-3e-05,-0.00025,-9e-05,-2e-05,-4e-05,5,32
23305,0.00016,-0.00014,-3e-05,-3e-05,-0.00025,-9e-05,-2e-05,-4e-05,5,32
23306,0.00016,-0.00014,-3e-05,-3e-05,-0.00025,-9e-05,-2e-05,-4e-05,5,32
23307,0.00016,-0.00014,-3e-05,-3e-05,-0.00025,-9e-05,-2e-05,-4e-05,5,32
23308,0.00016,-0.00014,-3e-05,-3e-05,-0.00025,-9e-05,-2e-05,-4e-05,5,32
23309,0.00016,-0.00014,-3e-05,-3e-05,-0.00025,-9e-05,-2e-05,-4e-05,5,32
23310,0.00016,-0.00014,-3e-05,-3e-05,-0.00025,-9e-05,-2e-05,-4e-05,5,32
23311,0.00016,-0.00014,-3e-05,-3e-05,-0.00025,-9e-05,-2e-05,-4e-05,5,32
23312,0.00016,-0.00014,-3e-05,-3e-05,-0.00025,-9e-05,-2e-05,-4e-05,5,32
23313,0.00016,-0.00014,-3e-05,-3e-05,-0.00025,-9e-05,-2e-05,-4e-05,5,32
23314,0.00016,-0.00014,-3e-05,-3e-05,-0.00025,-9e-05,-2e-05,-4e-05,5,32
23315,0.00016,-0.00014,-3e-05,-3e-05,-0.00025,-9e-05,-2e-05,-4e-05,5,32
23316,0.00016,-0.00014,-3e-05,-3e-05,-0.00025,-9e-05,-2e-05,-4e-05,5,32
23317,0.00016,-0.00014,-3e-05,-3e-05,-0.00025,-9e-05,-2e-05,-4e-05,5,32
23318,0.00016,-0.00014,-3e-05,-3e-05,-0.00025,-9e-05,-2e-05,-4e-05,5,32
23319,0.00016,-0.00014,-3e-05,-3e-05,-0.00025,-9e-05,-2e-05,-4e-05,5,32
23320,0.00016,-0.00014,-3e-05,-3e-05,-0.00025,-9e-05,-2e-05,-4e-05,5,32
23321,0.00016,-0.00014,-3e-05,-3e-05,-0.00025,-9e-05,-2e-05,-4e-05,5,32
23322,0.00016,-0.00014,-3e-05,-3e-05,-0.00025,-9e-05,-2e-05,-4e-05,5,32
23323,0.00016,-0.00014,-3e-05,-3e-05,-0.00025,-9e-05,-2e-05,-4e-05,5,32
23324,0.00016,-0.00014,-3e-05,-3e-05,-0.00025,-9e-05,-2e-05,-4e-05,5,32
23325,0.00016,-0.00014,-3e-05,-3e-05,-0.00025,-9e-05,-2e-05,-4e-05,5,32
23326,-5e-05,-1e-05,-4e-05,-0.00011,7e-05,-0.00018,2e-05,-5e-05,5,32
23327,1e-05,0.00012,1e-05,6e-05,0,-0.00013,0,7e-05,5,32
23328,-5e-05,-1e-05,-7e-05,-4e-05,0.00025,9e-05,1e-05,-3e-05,5,32
23329,-5e-05,-1e-05,-7e-05,-4e-05,0.00025,9e-05,1e-05,-3e-05,5,32
23330,-5e-05,-1e-05,-7e-05,-4e-05,0.00025,9e-05,1e-05,-3e-05,5,32
23331,-5e-05,-1e-05,-7e-05,-4e-05,0.00025,9e-05,1e-05,-3e-05,5,32
23332,4e-05,-6e-05,-7e-05,-6e-05,-0.00024,-0.00013,-5e-05,1e-05,5,32
23333,-2e-05,-1e-05,-3e-05,4e-05,0.00025,-1e-05,-1e-05,-2e-05,5,32
23334,-0.00013,-1e-05,-6e-05,1e-05,-0.00016,-4e-05,-4e-05,-4e-05,5,32
23335,-0.00013,-1e-05,-6e-05,1e-05,-0.00016,-4e-05,-4e-05,-4e-05,5,32
23336,-0.00013,-1e-05,-6e-05,1e-05,-0.00016,-4e-05,-4e-05,-4e-05,5,32
23338,-0.00013,-1e-05,-6e-05,1e-05,-0.00016,-4e-05,-4e-05,-4e-05,5,32
23339,-0.00013,-1e-05,-6e-05,1e-05,-0.00016,-4e-05,-4e-05,-4e-05,5,32
23340,-0.00013,-1e-05,-6e-05,1e-05,-0.00016,-4e-05,-4e-05,-4e-05,5,32
23341,-0.00013,-1e-05,-6e-05,1e-05,-0.00016,-4e-05,-4e-05,-4e-05,5,32
23342,-0.00013,-1e-05,-6e-05,1e-05,-0.00016,-4e-05,-4e-05,-4e-05,5,32
23343,-0.00013,-1e-05,-6e-05,1e-05,-0.00016,-4e-05,-4e-05,-4e-05,5,32
23344,-0.00013,-1e-05,-6e-05,1e-05,-0.00016,-4e-05,-4e-05,-4e-05,5,32
23345,-0.00013,-1e-05,-6e-05,1e-05,-0.00016,-4e-05,-4e-05,-4e-05,5,32
23346,-0.00013,-1e-05,-6e-05,1e-05,-0.00016,-4e-05,-4e-05,-4e-05,5,32
23347,-0.00013,-1e-05,-6e-05,1e-05,-0.00016,-4e-05,-4e-05,-4e-05,5,32
23348,-0.00013,-1e-05,-6e-05,1e-05,-0.00016,-4e-05,-4e-05,-4e-05,5,32
23349,-0.00013,-1e-05,-6e-05,1e-05,-0.00016,-4e-05,-4e-05,-4e-05,5,32
23350,-0.00013,-1e-05,-6e-05,1e-05,-0.00016,-4e-05,-4e-05,-4e-05,5,32
23351,-0.00013,-1e-05,-6e-05,1e-05,-0.00016,-4e-05,-4e-05,-4e-05,5,32
23352,-0.00013,-1e-05,-6e-05,1e-05,-0.00016,-4e-05,-4e-05,-4e-05,5,32
23353,-0.00013,-1e-05,-6e-05,1e-05,-0.00016,-4e-05,-4e-05,-4e-05,5,32
23354,-0.00013,-1e-05,-6e-05,1e-05,-0.00016,-4e-05,-4e-05,-4e-05,5,32
23355,-0.00013,-1e-05,-6e-05,1e-05,-0.00016,-4e-05,-4e-05,-4e-05,5,32
23356,-0.00013,-1e-05,-6e-05,1e-05,-0.00016,-4e-05,-4e-05,-4e-05,5,32
23357,-0.00013,-1e-05,-6e-05,1e-05,-0.00016,-4e-05,-4e-05,-4e-05,5,32
23358,-0.00013,-1e-05,-6e-05,1e-05,-0.00016,-4e-05,-4e-05,-4e-05,5,32
23359,-0.00013,-1e-05,-6e-05,1e-05,-0.00016,-4e-05,-4e-05,-4e-05,5,32
23360,-0.00013,-1e-05,-6e-05,1e-05,-0.00016,-4e-05,-4e-05,-4e-05,5,32
23361,-0.00013,-1e-05,-6e-05,1e-05,-0.00016,-4e-05,-4e-05,-4e-05,5,32
23362,-0.00013,-1e-05,-6e-05,1e-05,-0.00016,-4e-05,-4e-05,-4e-05,5,32
23363,-8e-05,0,-0.00016,-3e-05,0.0001,8e-05,7e-05,1e-05,5,32
23364,-8e-05,0,-0.00016,-3e-05,0.0001,8e-05,7e-05,1e-05,5,32
23365,-4e-05,-0.00011,0.00012,8e-05,-0.00036,6e-05,6e-05,3e-05,5,32
23366,-4e-05,-0.00011,0.00012,8e-05,-0.00036,6e-05,6e-05,3e-05,5,32
23367,-4e-05,-0.00011,0.00012,8e-05,-0.00036,6e-05,6e-05,3e-05,5,32
23368,-4e-05,-0.00011,0.00012,8e-05,-0.00036,6e-05,6e-05,3e-05,5,32
23369,-4e-05,-0.00011,0.00012,8e-05,-0.00036,6e-05,6e-05,3e-05,5,32
23370,-4e-05,-0.00011,0.00012,8e-05,-0.00036,6e-05,6e-05,3e-05,5,32
23371,-4e-05,-0.00011,0.00012,8e-05,-0.00036,6e-05,6e-05,3e-05,5,32
23372,-4e-05,-0.00011,0.00012,8e-05,-0.00036,6e-05,6e-05,3e-05,5,32
23373,-4e-05,-0.00011,0.00012,8e-05,-0.00036,6e-05,6e-05,3e-05,5,32
23374,-4e-05,-0.00011,0.00012,8e-05,-0.00036,6e-05,6e-05,3e-05,5,32
23375,-4e-05,-0.00011,0.00012,8e-05,-0.00036,6e-05,6e-05,3e-05,5,32
23376,-4e-05,-0.00011,0.00012,8e-05,-0.00036,6e-05,6e-05,3e-05,5,32
23377,-4e-05,-0.00011,0.00012,8e-05,-0.00036,6e-05,6e-05,3e-05,5,32
23378,-0.0001,0,7e-05,0.00013,0.00026,9e-05,0,-1e-05,5,32
23379,-0.0001,0,7e-05,0.00013,0.00026,9e-05,0,-1e-05,5,32
23380,-0.0001,0,7e-05,0.00013,0.00026,9e-05,0,-1e-05,5,32
23381,-0.0001,0,7e-05,0.00013,0.00026,9e-05,0,-1e-05,5,32
23382,-0.0001,0,7e-05,0.00013,0.00026,9e-05,0,-1e-05,5,32
23383,-0.0001,0,7e-05,0.00013,0.00026,9e-05,0,-1e-05,5,32
23384,-1e-05,7e-05,7e-05,6e-05,2e-05,-0.0001,7e-05,-3e-05,5,32
23385,-1e-05,7e-05,7e-05,6e-05,2e-05,-0.0001,7e-05,-3e-05,5,32
23386,-1e-05,7e-05,7e-05,6e-05,2e-05,-0.0001,7e-05,-3e-05,5,32
23388,-1e-05,7e-05,7e-05,6e-05,2e-05,-0.0001,7e-05,-3e-05,5,32
23389,-1e-05,7e-05,7e-05,6e-05,2e-05,-0.0001,7e-05,-3e-05,5,32
23390,-1e-05,7e-05,7e-05,6e-05,2e-05,-0.0001,7e-05,-3e-05,5,32
23391,-1e-05,7e-05,7e-05,6e-05,2e-05,-0.0001,7e-05,-3e-05,5,32
23392,-1e-05,7e-05,7e-05,6e-05,2e-05,-0.0001,7e-05,-3e-05,5,32
23393,-1e-05,7e-05,7e-05,6e-05,2e-05,-0.0001,7e-05,-3e-05,5,32
23394,-1e-05,7e-05,7e-05,6e-05,2e-05,-0.0001,7e-05,-3e-05,5,32
23395,-1e-05,7e-05,7e-05,6e-05,2e-05,-0.0001,7e-05,-3e-05,5,32
23396,-1e-05,7e-05,7e-05,6e-05,2e-05,-0.0001,7e-05,-3e-05,5,32
23397,-1e-05,7e-05,7e-05,6e-05,2e-05,-0.0001,7e-05,-3e-05,5,32
23398,-1e-05,7e-05,7e-05,6e-05,2e-05,-0.0001,7e-05,-3e-05,5,32
23399,-1e-05,7e-05,7e-05,6e-05,2e-05,-0.0001,7e-05,-3e-05,5,32
23400,-0.0002,-0.00019,-0.00012,-7e-05,8e-05,-4e-05,-3e-05,-7e-05,5,32
23401,8e-05,3e-05,4e-05,-8e-05,-0.00026,-0.00018,-4e-05,1e-05,5,32
23402,8e-05,3e-05,4e-05,-8e-05,-0.00026,-0.00018,-4e-05,1e-05,5,32
23403,8e-05,3e-05,4e-05,-8e-05,-0.00026,-0.00018,-4e-05,1e-05,5,32
23404,8e-05,3e-05,4e-05,-8e-05,-0.00026,-0.00018,-4e-05,1e-05,5,32
23405,8e-05,3e-05,4e-05,-8e-05,-0.00026,-0.00018,-4e-05,1e-05,5,32
23406,8e-05,3e-05,4e-05,-8e-05,-0.00026,-0.00018,-4e-05,1e-05,5,32
23407,8e-05,3e-05,4e-05,-8e-05,-0.00026,-0.00018,-4e-05,1e-05,5,32
23408,-0.00012,6e-05,0.00011,-1e-05,4e-05,-8e-05,-6e-05,-6e-05,5,32
23409,-0.00012,6e-05,0.00011,-1e-05,4e-05,-8e-05,-6e-05,-6e-05,5,32
23410,-0.00012,6e-05,0.00011,-1e-05,4e-05,-8e-05,-6e-05,-6e-05,5,32
23411,-0.00012,6e-05,0.00011,-1e-05,4e-05,-8e-05,-6e-05,-6e-05,5,32
23412,-0.00012,6e-05,0.00011,-1e-05,4e-05,-8e-05,-6e-05,-6e-05,5,32
23413,-0.00012,6e-05,0.00011,-1e-05,4e-05,-8e-05,-6e-05,-6e-05,5,32
23414,-0.00012,6e-05,0.00011,-1e-05,4e-05,-8e-05,-6e-05,-6e-05,5,32
23415,8e-05,2e-05,2e-05,-3e-05,-6e-05,4e-05,-1e-05,-1e-05,5,32
23416,8e-05,-1e-05,4e-05,1e-05,-0.00017,-0.0001,-4e-05,-3e-05,5,32
23417,-9e-05,5e-05,-7e-05,-0.00011,-8e-05,2e-05,-2e-05,0,5,32
23418,-9e-05,5e-05,-7e-05,-0.00011,-8e-05,2e-05,-2e-05,0,5,32
23419,-9e-05,5e-05,-7e-05,-0.00011,-8e-05,2e-05,-2e-05,0,5,32
23420,-9e-05,5e-05,-7e-05,-0.00011,-8e-05,2e-05,-2e-05,0,5,32
23421,-9e-05,5e-05,-7e-05,-0.00011,-8e-05,2e-05,-2e-05,0,5,32
23422,-9e-05,5e-05,-7e-05,-0.00011,-8e-05,2e-05,-2e-05,0,5,32
23423,-9e-05,5e-05,-7e-05,-0.00011,-8e-05,2e-05,-2e-05,0,5,32
23424,-9e-05,5e-05,-7e-05,-0.00011,-8e-05,2e-05,-2e-05,0,5,32
23425,-9e-05,5e-05,-7e-05,-0.00011,-8e-05,2e-05,-2e-05,0,5,32
23426,-9e-05,5e-05,-7e-05,-0.00011,-8e-05,2e-05,-2e-05,0,5,32
23427,-9e-05,5e-05,-7e-05,-0.00011,-8e-05,2e-05,-2e-05,0,5,32
23428,-9e-05,5e-05,-7e-05,-0.00011,-8e-05,2e-05,-2e-05,0,5,32
23429,-9e-05,5e-05,-7e-05,-0.00011,-8e-05,2e-05,-2e-05,0,5,32
23430,-9e-05,5e-05,-7e-05,-0.00011,-8e-05,2e-05,-2e-05,0,5,32
23431,-9e-05,5e-05,-7e-05,-0.00011,-8e-05,2e-05,-2e-05,0,5,32
23432,-9e-05,5e-05,-7e-05,-0.00011,-8e-05,2e-05,-2e-05,0,5,32
23433,-9e-05,5e-05,-7e-05,-0.00011,-8e-05,2e-05,-2e-05,0,5,32
23434,-9e-05,5e-05,-7e-05,-0.00011,-8e-05,2e-05,-2e-05,0,5,32
23435,-9e-05,5e-05,-7e-05,-0.00011,-8e-05,2e-05,-2e-05,0,5,32
23436,-9e-05,5e-05,-7e-05,-0.00011,-8e-05,2e-05,-2e-05,0,5,32
23438,-9e-05,5e-05,-7e-05,-0.00011,-8e-05,2e-05,-2e-05,0,5,32
23439,-9e-05,5e-05,-7e-05,-0.00011,-8e-05,2e-05,-2e-05,0,5,32
23440,-9e-05,5e-05,-7e-05,-0.00011,-8e-05,2e-05,-2e-05,0,5,32
23441,-9e-05,5e-05,-7e-05,-0.00011,-8e-05,2e-05,-2e-05,0,5,32
23442,-9e-05,5e-05,-7e-05,-0.00011,-8e-05,2e-05,-2e-05,0,5,32
23443,-9e-05,5e-05,-7e-05,-0.00011,-8e-05,2e-05,-2e-05,0,5,32
23444,-9e-05,5e-05,-7e-05,-0.00011,-8e-05,2e-05,-2e-05,0,5,32
23445,-0.00011,-1e-05,6e-05,2e-05,-0.00028,-6e-05,-2e-05,-4e-05,5,32
23446,-0.00011,-1e-05,6e-05,2e-05,-0.00028,-6e-05,-2e-05,-4e-05,5,32
23447,0.0001,-1e-05,-9e-05,-0.00019,0.00027,-9e-05,-3e-05,2e-05,5,32
23448,0.0001,-1e-05,-9e-05,-0.00019,0.00027,-9e-05,-3e-05,2e-05,5,32
23449,0.0001,-1e-05,-9e-05,-0.00019,0.00027,-9e-05,-3e-05,2e-05,5,32
23450,0.0001,-1e-05,-9e-05,-0.00019,0.00027,-9e-05,-3e-05,2e-05,5,32
23451,0.0001,-1e-05,-9e-05,-0.00019,0.00027,-9e-05,-3e-05,2e-05,5,32
23452,-3e-05,0,-4e-05,0.00026,0.00044,9e-05,-5e-05,-3e-05,5,32
23453,-9e-05,-8e-05,-7e-05,-0.00026,-0.00016,6e-05,-1e-05,-2e-05,5,32
23454,0.00011,3e-05,2e-05,-8e-05,2e-05,0,-3e-05,3e-05,5,32
23455,0.00011,3e-05,2e-05,-8e-05,2e-05,0,-3e-05,3e-05,5,32
23456,0.00011,3e-05,2e-05,-8e-05,2e-05,0,-3e-05,3e-05,5,32
23457,0.00011,3e-05,2e-05,-8e-05,2e-05,0,-3e-05,3e-05,5,32
23458,0.00011,3e-05,2e-05,-8e-05,2e-05,0,-3e-05,3e-05,5,32
23460,0.00011,3e-05,2e-05,-8e-05,2e-05,0,-3e-05,3e-05,5,32
23461,0.00011,3e-05,2e-05,-8e-05,2e-05,0,-3e-05,3e-05,5,32
23462,0.00011,3e-05,2e-05,-8e-05,2e-05,0,-3e-05,3e-05,5,32
23463,0.00011,3e-05,2e-05,-8e-05,2e-05,0,-3e-05,3e-05,5,32
23464,0.00011,3e-05,2e-05,-8e-05,2e-05,0,-3e-05,3e-05,5,32
23465,0.00011,3e-05,2e-05,-8e-05,2e-05,0,-3e-05,3e-05,5,32
23466,0.00011,3e-05,2e-05,-8e-05,2e-05,0,-3e-05,3e-05,5,32
23467,0.00011,3e-05,2e-05,-8e-05,2e-05,0,-3e-05,3e-05,5,32
23468,0.00011,3e-05,2e-05,-8e-05,2e-05,0,-3e-05,3e-05,5,32
23469,0.00011,3e-05,2e-05,-8e-05,2e-05,0,-3e-05,3e-05,5,32
23470,0.00011,3e-05,2e-05,-8e-05,2e-05,0,-3e-05,3e-05,5,32
23471,0.00011,3e-05,2e-05,-8e-05,2e-05,0,-3e-05,3e-05,5,32
23472,0.00011,3e-05,2e-05,-8e-05,2e-05,0,-3e-05,3e-05,5,32
23473,0.00011,3e-05,2e-05,-8e-05,2e-05,0,-3e-05,3e-05,5,32
23474,0.00011,3e-05,2e-05,-8e-05,2e-05,0,-3e-05,3e-05,5,32
23475,0.00011,3e-05,2e-05,-8e-05,2e-05,0,-3e-05,3e-05,5,32
23476,0.00011,3e-05,2e-05,-8e-05,2e-05,0,-3e-05,3e-05,5,32
23477,0.00011,3e-05,2e-05,-8e-05,2e-05,0,-3e-05,3e-05,5,32
23478,0.00011,3e-05,2e-05,-8e-05,2e-05,0,-3e-05,3e-05,5,32
23479,0.00011,3e-05,2e-05,-8e-05,2e-05,0,-3e-05,3e-05,5,32
23480,0.00011,3e-05,2e-05,-8e-05,2e-05,0,-3e-05,3e-05,5,32
23481,0.00011,3e-05,2e-05,-8e-05,2e-05,0,-3e-05,3e-05,5,32
23482,0.00011,3e-05,2e-05,-8e-05,2e-05,0,-3e-05,3e-05,5,32
23483,0.00021,0.00019,1e-05,-2e-05,-0.00031,-4e-05,0,-1e-05,5,32
23484,0.00017,-4e-05,-6e-05,0,0.00015,0.00014,1e-05,-2e-05,5,32
23485,0.00017,-4e-05,-6e-05,0,0.00015,0.00014,1e-05,-2e-05,5,32
23486,0.00017,-4e-05,-6e-05,0,0.00015,0.00014,1e-05,-2e-05,5,32
23488,0.00017,-4e-05,-6e-05,0,0.00015,0.00014,1e-05,-2e-05,5,32
23489,0.00017,-4e-05,-6e-05,0,0.00015,0.00014,1e-05,-2e-05,5,32
23490,0.00017,-4e-05,-6e-05,0,0.00015,0.00014,1e-05,-2e-05,5,32
23491,0.00017,-4e-05,-6e-05,0,0.00015,0.00014,1e-05,-2e-05,5,32
23492,0.00017,-4e-05,-6e-05,0,0.00015,0.00014,1e-05,-2e-05,5,32
23493,0.00017,-4e-05,-6e-05,0,0.00015,0.00014,1e-05,-2e-05,5,32
23494,0.00017,-4e-05,-6e-05,0,0.00015,0.00014,1e-05,-2e-05,5,32
23495,0.00017,-4e-05,-6e-05,0,0.00015,0.00014,1e-05,-2e-05,5,32
23496,0.00017,-4e-05,-6e-05,0,0.00015,0.00014,1e-05,-2e-05,5,32
23497,0.00017,-4e-05,-6e-05,0,0.00015,0.00014,1e-05,-2e-05,5,32
23498,0.00017,-4e-05,-6e-05,0,0.00015,0.00014,1e-05,-2e-05,5,32
23499,0.00017,-4e-05,-6e-05,0,0.00015,0.00014,1e-05,-2e-05,5,32
23500,0.00017,-4e-05,-6e-05,0,0.00015,0.00014,1e-05,-2e-05,5,32
23501,0.00017,-4e-05,-6e-05,0,0.00015,0.00014,1e-05,-2e-05,5,32
23502,0.00017,-4e-05,-6e-05,0,0.00015,0.00014,1e-05,-2e-05,5,32
23503,0.00017,-4e-05,-6e-05,0,0.00015,0.00014,1e-05,-2e-05,5,32
23504,0.00017,-4e-05,-6e-05,0,0.00015,0.00014,1e-05,-2e-05,5,32
23505,-8e-05,-8e-05,-2e-05,-3e-05,-8e-05,0.00014,2e-05,7e-05,5,32
23506,-8e-05,-8e-05,-2e-05,-3e-05,-8e-05,0.00014,2e-05,7e-05,5,32
23508,0.00033,4e-05,3e-05,9e-05,0.00054,4e-05,-1e-05,0.00012,5,32
23509,0.00033,4e-05,3e-05,9e-05,0.00054,4e-05,-1e-05,0.00012,5,32
23510,0.00033,4e-05,3e-05,9e-05,0.00054,4e-05,-1e-05,0.00012,5,32
23511,0.00033,4e-05,3e-05,9e-05,0.00054,4e-05,-1e-05,0.00012,5,32
23512,0.00033,4e-05,3e-05,9e-05,0.00054,4e-05,-1e-05,0.00012,5,32
23513,0.00033,4e-05,3e-05,9e-05,0.00054,4e-05,-1e-05,0.00012,5,32
23514,0.00033,4e-05,3e-05,9e-05,0.00054,4e-05,-1e-05,0.00012,5,32
23515,0.00033,4e-05,3e-05,9e-05,0.00054,4e-05,-1e-05,0.00012,5,32
23516,0.00033,4e-05,3e-05,9e-05,0.00054,4e-05,-1e-05,0.00012,5,32
23517,0.00033,4e-05,3e-05,9e-05,0.00054,4e-05,-1e-05,0.00012,5,32
23518,0.00033,4e-05,3e-05,9e-05,0.00054,4e-05,-1e-05,0.00012,5,32
23519,0.00033,4e-05,3e-05,9e-05,0.00054,4e-05,-1e-05,0.00012,5,32
23520,-6e-05,-2e-05,-6e-05,-6e-05,0,-0.0001,-4e-05,1e-05,5,32
23521,-6e-05,-2e-05,-6e-05,-6e-05,0,-0.0001,-4e-05,1e-05,5,32
23522,-0.00013,2e-05,3e-05,0.00016,0.00017,-1e-05,4e-05,-2e-05,5,32
23523,-0.00013,2e-05,3e-05,0.00016,0.00017,-1e-05,4e-05,-2e-05,5,32
23524,-0.00013,2e-05,3e-05,0.00016,0.00017,-1e-05,4e-05,-2e-05,5,32
23525,-0.00013,2e-05,3e-05,0.00016,0.00017,-1e-05,4e-05,-2e-05,5,32
23526,-0.00013,2e-05,3e-05,0.00016,0.00017,-1e-05,4e-05,-2e-05,5,32
23527,-0.00013,2e-05,3e-05,0.00016,0.00017,-1e-05,4e-05,-2e-05,5,32
23528,-0.00013,2e-05,3e-05,0.00016,0.00017,-1e-05,4e-05,-2e-05,5,32
23529,-0.00013,2e-05,3e-05,0.00016,0.00017,-1e-05,4e-05,-2e-05,5,32
23530,-0.00013,2e-05,3e-05,0.00016,0.00017,-1e-05,4e-05,-2e-05,5,32
23531,-0.00013,2e-05,3e-05,0.00016,0.00017,-1e-05,4e-05,-2e-05,5,32
23532,-0.00013,2e-05,3e-05,0.00016,0.00017,-1e-05,4e-05,-2e-05,5,32
23533,-0.00013,2e-05,3e-05,0.00016,0.00017,-1e-05,4e-05,-2e-05,5,32
23534,-0.00013,2e-05,3e-05,0.00016,0.00017,-1e-05,4e-05,-2e-05,5,32
23535,0,-0.00016,-0.00023,-0.00017,0.00042,9e-05,2e-05,-2e-05,5,32
23536,0,-0.00016,-0.00023,-0.00017,0.00042,9e-05,2e-05,-2e-05,5,32
23538,-8e-05,-1e-05,3e-05,-7e-05,0.00014,0.00019,2e-05,-5e-05,5,32
23539,-8e-05,-1e-05,3e-05,-7e-05,0.00014,0.00019,2e-05,-5e-05,5,32
23540,-8e-05,-1e-05,3e-05,-7e-05,0.00014,0.00019,2e-05,-5e-05,5,32
23541,-8e-05,-1e-05,3e-05,-7e-05,0.00014,0.00019,2e-05,-5e-05,5,32
23542,-8e-05,-1e-05,3e-05,-7e-05,0.00014,0.00019,2e-05,-5e-05,5,32
23543,-8e-05,-1e-05,3e-05,-7e-05,0.00014,0.00019,2e-05,-5e-05,5,32
23544,-8e-05,-1e-05,3e-05,-7e-05,0.00014,0.00019,2e-05,-5e-05,5,32
23545,-8e-05,-1e-05,3e-05,-7e-05,0.00014,0.00019,2e-05,-5e-05,5,32
23546,-8e-05,-1e-05,3e-05,-7e-05,0.00014,0.00019,2e-05,-5e-05,5,32
23547,-8e-05,-1e-05,3e-05,-7e-05,0.00014,0.00019,2e-05,-5e-05,5,32
23548,-8e-05,-1e-05,3e-05,-7e-05,0.00014,0.00019,2e-05,-5e-05,5,32
23549,-8e-05,-1e-05,3e-05,-7e-05,0.00014,0.00019,2e-05,-5e-05,5,32
23550,-8e-05,-1e-05,3e-05,-7e-05,0.00014,0.00019,2e-05,-5e-05,5,32
23551,-8e-05,-1e-05,3e-05,-7e-05,0.00014,0.00019,2e-05,-5e-05,5,32
23552,-8e-05,-1e-05,3e-05,-7e-05,0.00014,0.00019,2e-05,-5e-05,5,32
23553,-8e-05,-1e-05,3e-05,-7e-05,0.00014,0.00019,2e-05,-5e-05,5,32
23554,-8e-05,-1e-05,3e-05,-7e-05,0.00014,0.00019,2e-05,-5e-05,5,32
23555,-8e-05,-1e-05,3e-05,-7e-05,0.00014,0.00019,2e-05,-5e-05,5,32
23556,-8e-05,-1e-05,3e-05,-7e-05,0.00014,0.00019,2e-05,-5e-05,5,32
23557,-8e-05,-1e-05,3e-05,-7e-05,0.00014,0.00019,2e-05,-5e-05,5,32
23558,-0.00016,-0.00013,-7e-05,6e-05,-0.00055,-9e-05,-5e-05,-6e-05,5,32
23559,-0.00016,-0.00013,-7e-05,6e-05,-0.00055,-9e-05,-5e-05,-6e-05,5,32
23560,-0.00016,-0.00013,-7e-05,6e-05,-0.00055,-9e-05,-5e-05,-6e-05,5,32
23561,-0.00016,-0.00013,-7e-05,6e-05,-0.00055,-9e-05,-5e-05,-6e-05,5,32
23562,-0.00016,-0.00013,-7e-05,6e-05,-0.00055,-9e-05,-5e-05,-6e-05,5,32
23563,-0.00016,-0.00013,-7e-05,6e-05,-0.00055,-9e-05,-5e-05,-6e-05,5,32
23564,-0.00016,-0.00013,-7e-05,6e-05,-0.00055,-9e-05,-5e-05,-6e-05,5,32
23565,-6e-05,-3e-05,-7e-05,-6e-05,-0.00036,5e-05,-1e-05,1e-05,5,32
23566,-6e-05,-3e-05,-7e-05,-6e-05,-0.00036,5e-05,-1e-05,1e-05,5,32
23567,-6e-05,-3e-05,-7e-05,-6e-05,-0.00036,5e-05,-1e-05,1e-05,5,32
23568,-6e-05,-3e-05,-7e-05,-6e-05,-0.00036,5e-05,-1e-05,1e-05,5,32
23569,-6e-05,-3e-05,-7e-05,-6e-05,-0.00036,5e-05,-1e-05,1e-05,5,32
23570,-6e-05,-3e-05,-7e-05,-6e-05,-0.00036,5e-05,-1e-05,1e-05,5,32
23571,-6e-05,-3e-05,-7e-05,-6e-05,-0.00036,5e-05,-1e-05,1e-05,5,32
23572,-0.00012,-0.00012,-6e-05,5e-05,5e-05,-0.00011,-5e-05,-6e-05,5,32
23573,-0.00012,-0.00012,-6e-05,5e-05,5e-05,-0.00011,-5e-05,-6e-05,5,32
23574,-0.00012,-0.00012,-6e-05,5e-05,5e-05,-0.00011,-5e-05,-6e-05,5,32
23575,-0.00012,-0.00012,-6e-05,5e-05,5e-05,-0.00011,-5e-05,-6e-05,5,32
23576,-0.00012,-0.00012,-6e-05,5e-05,5e-05,-0.00011,-5e-05,-6e-05,5,32
23577,-0.00012,-0.00012,-6e-05,5e-05,5e-05,-0.00011,-5e-05,-6e-05,5,32
23578,-0.00012,-0.00012,-6e-05,5e-05,5e-05,-0.00011,-5e-05,-6e-05,5,32
23579,0.00015,-1e-05,2e-05,2e-05,-0.00013,0,-3e-05,1e-05,5,32
23580,0.00015,-1e-05,2e-05,2e-05,-0.00013,0,-3e-05,1e-05,5,32
23581,0.00015,-1e-05,2e-05,2e-05,-0.00013,0,-3e-05,1e-05,5,32
23582,0.00015,-1e-05,2e-05,2e-05,-0.00013,0,-3e-05,1e-05,5,32
23583,0.00015,-1e-05,2e-05,2e-05,-0.00013,0,-3e-05,1e-05,5,32
23584,0.00015,-1e-05,2e-05,2e-05,-0.00013,0,-3e-05,1e-05,5,32
23585,0.00015,-1e-05,2e-05,2e-05,-0.00013,0,-3e-05,1e-05,5,32
23586,0.00015,-1e-05,2e-05,2e-05,-0.00013,0,-3e-05,1e-05,5,32
23588,0.00015,-1e-05,2e-05,2e-05,-0.00013,0,-3e-05,1e-05,5,32
23589,0.00015,-1e-05,2e-05,2e-05,-0.00013,0,-3e-05,1e-05,5,32
23590,0.00015,-1e-05,2e-05,2e-05,-0.00013,0,-3e-05,1e-05,5,32
23591,0.00015,-1e-05,2e-05,2e-05,-0.00013,0,-3e-05,1e-05,5,32
23592,0.00015,-1e-05,2e-05,2e-05,-0.00013,0,-3e-05,1e-05,5,32
23593,0.00015,-1e-05,2e-05,2e-05,-0.00013,0,-3e-05,1e-05,5,32
23594,0.00015,-1e-05,2e-05,2e-05,-0.00013,0,-3e-05,1e-05,5,32
23595,-8e-05,3e-05,3e-05,3e-05,-4e-05,-3e-05,0,-6e-05,5,32
23596,-8e-05,3e-05,3e-05,3e-05,-4e-05,-3e-05,0,-6e-05,5,32
23597,-0.00022,2e-05,-3e-05,5e-05,0.00013,-0.00012,-3e-05,-5e-05,5,32
23598,-0.00022,2e-05,-3e-05,5e-05,0.00013,-0.00012,-3e-05,-5e-05,5,32
23599,-0.00022,2e-05,-3e-05,5e-05,0.00013,-0.00012,-3e-05,-5e-05,5,32
23601,-0.00022,2e-05,-3e-05,5e-05,0.00013,-0.00012,-3e-05,-5e-05,5,32
23602,-0.00022,2e-05,-3e-05,5e-05,0.00013,-0.00012,-3e-05,-5e-05,5,32
23603,-0.00022,2e-05,-3e-05,5e-05,0.00013,-0.00012,-3e-05,-5e-05,5,32
23604,-0.00022,2e-05,-3e-05,5e-05,0.00013,-0.00012,-3e-05,-5e-05,5,32
23605,-0.00022,2e-05,-3e-05,5e-05,0.00013,-0.00012,-3e-05,-5e-05,5,32
23606,-0.00022,2e-05,-3e-05,5e-05,0.00013,-0.00012,-3e-05,-5e-05,5,32
23607,-0.00022,2e-05,-3e-05,5e-05,0.00013,-0.00012,-3e-05,-5e-05,5,32
23608,-0.00022,2e-05,-3e-05,5e-05,0.00013,-0.00012,-3e-05,-5e-05,5,32
23609,-0.00022,2e-05,-3e-05,5e-05,0.00013,-0.00012,-3e-05,-5e-05,5,32
23610,-0.00022,2e-05,-3e-05,5e-05,0.00013,-0.00012,-3e-05,-5e-05,5,32
23611,-0.00022,2e-05,-3e-05,5e-05,0.00013,-0.00012,-3e-05,-5e-05,5,32
23612,-0.00022,2e-05,-3e-05,5e-05,0.00013,-0.00012,-3e-05,-5e-05,5,32
23613,-0.00022,2e-05,-3e-05,5e-05,0.00013,-0.00012,-3e-05,-5e-05,5,32
23614,-0.00022,2e-05,-3e-05,5e-05,0.00013,-0.00012,-3e-05,-5e-05,5,32
23615,-0.00022,2e-05,-3e-05,5e-05,0.00013,-0.00012,-3e-05,-5e-05,5,32
23616,-0.00022,2e-05,-3e-05,5e-05,0.00013,-0.00012,-3e-05,-5e-05,5,32
23617,-0.00022,2e-05,-3e-05,5e-05,0.00013,-0.00012,-3e-05,-5e-05,5,32
23618,-0.00022,2e-05,-3e-05,5e-05,0.00013,-0.00012,-3e-05,-5e-05,5,32
23619,-0.00022,2e-05,-3e-05,5e-05,0.00013,-0.00012,-3e-05,-5e-05,5,32
23620,-0.00022,2e-05,-3e-05,5e-05,0.00013,-0.00012,-3e-05,-5e-05,5,32
23621,-0.00022,2e-05,-3e-05,5e-05,0.00013,-0.00012,-3e-05,-5e-05,5,32
23622,-0.00022,2e-05,-3e-05,5e-05,0.00013,-0.00012,-3e-05,-5e-05,5,32
23623,-0.00022,2e-05,-3e-05,5e-05,0.00013,-0.00012,-3e-05,-5e-05,5,32
23624,-0.00022,2e-05,-3e-05,5e-05,0.00013,-0.00012,-3e-05,-5e-05,5,32
23625,-4e-05,-6e-05,9e-05,0.00019,0.00047,-7e-05,4e-05,3e-05,5,32
23626,3e-05,6e-05,-0.0001,-0.00021,-0.00031,-3e-05,0,1e-05,5,32
23627,8e-05,1e-05,1e-05,-9e-05,-0.00039,-0.00014,-1e-05,-3e-05,5,32
23628,8e-05,1e-05,1e-05,-9e-05,-0.00039,-0.00014,-1e-05,-3e-05,5,32
23629,8e-05,1e-05,1e-05,-9e-05,-0.00039,-0.00014,-1e-05,-3e-05,5,32
23630,8e-05,1e-05,1e-05,-9e-05,-0.00039,-0.00014,-1e-05,-3e-05,5,32
23631,8e-05,1e-05,1e-05,-9e-05,-0.00039,-0.00014,-1e-05,-3e-05,5,32
23632,8e-05,1e-05,1e-05,-9e-05,-0.00039,-0.00014,-1e-05,-3e-05,5,32
23633,8e-05,1e-05,1e-05,-9e-05,-0.00039,-0.00014,-1e-05,-3e-05,5,32
23634,8e-05,1e-05,1e-05,-9e-05,-0.00039,-0.00014,-1e-05,-3e-05,5,32
23635,8e-05,1e-05,1e-05,-9e-05,-0.00039,-0.00014,-1e-05,-3e-05,5,32
23636,8e-05,1e-05,1e-05,-9e-05,-0.00039,-0.00014,-1e-05,-3e-05,5,32
23638,8e-05,1e-05,1e-05,-9e-05,-0.00039,-0.00014,-1e-05,-3e-05,5,32
23639,8e-05,1e-05,1e-05,-9e-05,-0.00039,-0.00014,-1e-05,-3e-05,5,32
23640,6e-05,8e-05,0.00012,0.00017,0.00039,0,-3e-05,0,5,32
23641,6e-05,8e-05,0.00012,0.00017,0.00039,0,-3e-05,0,5,32
23642,1e-05,1e-05,1e-05,7e-05,-0.00037,-5e-05,5e-05,2e-05,5,32
23643,1e-05,1e-05,1e-05,7e-05,-0.00037,-5e-05,5e-05,2e-05,5,32
23644,1e-05,1e-05,1e-05,7e-05,-0.00037,-5e-05,5e-05,2e-05,5,32
23645,1e-05,1e-05,1e-05,7e-05,-0.00037,-5e-05,5e-05,2e-05,5,32
23646,1e-05,1e-05,1e-05,7e-05,-0.00037,-5e-05,5e-05,2e-05,5,32
23647,1e-05,1e-05,1e-05,7e-05,-0.00037,-5e-05,5e-05,2e-05,5,32
23648,1e-05,1e-05,1e-05,7e-05,-0.00037,-5e-05,5e-05,2e-05,5,32
23649,1e-05,1e-05,1e-05,7e-05,-0.00037,-5e-05,5e-05,2e-05,5,32
23650,1e-05,1e-05,1e-05,7e-05,-0.00037,-5e-05,5e-05,2e-05,5,32
23651,1e-05,1e-05,1e-05,7e-05,-0.00037,-5e-05,5e-05,2e-05,5,32
23652,1e-05,1e-05,1e-05,7e-05,-0.00037,-5e-05,5e-05,2e-05,5,32
23653,1e-05,1e-05,1e-05,7e-05,-0.00037,-5e-05,5e-05,2e-05,5,32
23654,1e-05,1e-05,1e-05,7e-05,-0.00037,-5e-05,5e-05,2e-05,5,32
23655,-0.00013,-8e-05,1e-05,-4e-05,-5e-05,-2e-05,-3e-05,-5e-05,5,32
23656,-0.00013,-8e-05,1e-05,-4e-05,-5e-05,-2e-05,-3e-05,-5e-05,5,32
23657,-4e-05,6e-05,-4e-05,-0.00017,-0.00035,-2e-05,-6e-05,-3e-05,5,32
23658,-4e-05,6e-05,-4e-05,-0.00017,-0.00035,-2e-05,-6e-05,-3e-05,5,32
23659,-4e-05,6e-05,-4e-05,-0.00017,-0.00035,-2e-05,-6e-05,-3e-05,5,32
23660,-4e-05,6e-05,-4e-05,-0.00017,-0.00035,-2e-05,-6e-05,-3e-05,5,32
23661,-4e-05,6e-05,-4e-05,-0.00017,-0.00035,-2e-05,-6e-05,-3e-05,5,32
23662,-4e-05,6e-05,-4e-05,-0.00017,-0.00035,-2e-05,-6e-05,-3e-05,5,32
23663,-4e-05,6e-05,-4e-05,-0.00017,-0.00035,-2e-05,-6e-05,-3e-05,5,32
23664,-4e-05,6e-05,-4e-05,-0.00017,-0.00035,-2e-05,-6e-05,-3e-05,5,32
23665,-4e-05,6e-05,-4e-05,-0.00017,-0.00035,-2e-05,-6e-05,-3e-05,5,32
23666,-4e-05,6e-05,-4e-05,-0.00017,-0.00035,-2e-05,-6e-05,-3e-05,5,32
23667,-4e-05,6e-05,-4e-05,-0.00017,-0.00035,-2e-05,-6e-05,-3e-05,5,32
23668,-4e-05,6e-05,-4e-05,-0.00017,-0.00035,-2e-05,-6e-05,-3e-05,5,32
23669,-4e-05,6e-05,-4e-05,-0.00017,-0.00035,-2e-05,-6e-05,-3e-05,5,32
23670,-4e-05,6e-05,-4e-05,-0.00017,-0.00035,-2e-05,-6e-05,-3e-05,5,32
23671,-4e-05,6e-05,-4e-05,-0.00017,-0.00035,-2e-05,-6e-05,-3e-05,5,32
23672,-4e-05,6e-05,-4e-05,-0.00017,-0.00035,-2e-05,-6e-05,-3e-05,5,32
23673,-4e-05,6e-05,-4e-05,-0.00017,-0.00035,-2e-05,-6e-05,-3e-05,5,32
23674,-4e-05,6e-05,-4e-05,-0.00017,-0.00035,-2e-05,-6e-05,-3e-05,5,32
23675,-4e-05,6e-05,-4e-05,-0.00017,-0.00035,-2e-05,-6e-05,-3e-05,5,32
23676,-4e-05,6e-05,-4e-05,-0.00017,-0.00035,-2e-05,-6e-05,-3e-05,5,32
23677,-4e-05,6e-05,-4e-05,-0.00017,-0.00035,-2e-05,-6e-05,-3e-05,5,32
23678,-4e-05,6e-05,-4e-05,-0.00017,-0.00035,-2e-05,-6e-05,-3e-05,5,32
23679,4e-05,-0.00012,-6e-05,-1e-05,-0.00021,0,-1e-05,-3e-05,5,32
23680,4e-05,-0.00012,-6e-05,-1e-05,-0.00021,0,-1e-05,-3e-05,5,32
23681,4e-05,-0.00012,-6e-05,-1e-05,-0.00021,0,-1e-05,-3e-05,5,32
23682,4e-05,-0.00012,-6e-05,-1e-05,-0.00021,0,-1e-05,-3e-05,5,32
23683,4e-05,-0.00012,-6e-05,-1e-05,-0.00021,0,-1e-05,-3e-05,5,32
23684,-0.00041,-0.00028,1e-05,5e-05,0,-9e-05,-4e-05,-8e-05,5,32
23685,-0.00041,-0.00028,1e-05,5e-05,0,-9e-05,-4e-05,-8e-05,5,32
23686,-0.00041,-0.00028,1e-05,5e-05,0,-9e-05,-4e-05,-8e-05,5,32
23688,-0.00041,-0.00028,1e-05,5e-05,0,-9e-05,-4e-05,-8e-05,5,32
23689,-0.00041,-0.00028,1e-05,5e-05,0,-9e-05,-4e-05,-8e-05,5,32
23690,-0.00041,-0.00028,1e-05,5e-05,0,-9e-05,-4e-05,-8e-05,5,32
23691,-0.00041,-0.00028,1e-05,5e-05,0,-9e-05,-4e-05,-8e-05,5,32
23692,0,0.00018,-5e-05,-0.00017,-0.00037,-0.0005,0,0,5,32
23693,0,0.00018,-5e-05,-0.00017,-0.00037,-0.0005,0,0,5,32
23694,0,0.00018,-5e-05,-0.00017,-0.00037,-0.0005,0,0,5,32
23695,0,0.00018,-5e-05,-0.00017,-0.00037,-0.0005,0,0,5,32
23696,0,0.00018,-5e-05,-0.00017,-0.00037,-0.0005,0,0,5,32
23697,0,0.00018,-5e-05,-0.00017,-0.00037,-0.0005,0,0,5,32
23698,0,0.00018,-5e-05,-0.00017,-0.00037,-0.0005,0,0,5,32
23699,1e-05,4e-05,-8e-05,1e-05,0.00019,0.00025,2e-05,-1e-05,5,32
23700,1e-05,4e-05,-8e-05,1e-05,0.00019,0.00025,2e-05,-1e-05,5,32
23701,1e-05,4e-05,-8e-05,1e-05,0.00019,0.00025,2e-05,-1e-05,5,32
23702,1e-05,4e-05,-8e-05,1e-05,0.00019,0.00025,2e-05,-1e-05,5,32
23703,1e-05,4e-05,-8e-05,1e-05,0.00019,0.00025,2e-05,-1e-05,5,32
23704,1e-05,4e-05,-8e-05,1e-05,0.00019,0.00025,2e-05,-1e-05,5,32
23705,1e-05,4e-05,-8e-05,1e-05,0.00019,0.00025,2e-05,-1e-05,5,32
23706,1e-05,4e-05,-8e-05,1e-05,0.00019,0.00025,2e-05,-1e-05,5,32
23707,1e-05,4e-05,-8e-05,1e-05,0.00019,0.00025,2e-05,-1e-05,5,32
23708,1e-05,4e-05,-8e-05,1e-05,0.00019,0.00025,2e-05,-1e-05,5,32
23709,1e-05,4e-05,-8e-05,1e-05,0.00019,0.00025,2e-05,-1e-05,5,32
23710,1e-05,4e-05,-8e-05,1e-05,0.00019,0.00025,2e-05,-1e-05,5,32
23711,1e-05,4e-05,-8e-05,1e-05,0.00019,0.00025,2e-05,-1e-05,5,32
23712,1e-05,4e-05,-8e-05,1e-05,0.00019,0.00025,2e-05,-1e-05,5,32
23713,1e-05,4e-05,-8e-05,1e-05,0.00019,0.00025,2e-05,-1e-05,5,32
23714,-4e-05,-6e-05,2e-05,0.00013,0.00012,7e-05,-3e-05,-3e-05,5,32
23715,-4e-05,-6e-05,2e-05,0.00013,0.00012,7e-05,-3e-05,-3e-05,5,32
23716,-4e-05,-6e-05,2e-05,0.00013,0.00012,7e-05,-3e-05,-3e-05,5,32
23717,-4e-05,-6e-05,2e-05,0.00013,0.00012,7e-05,-3e-05,-3e-05,5,32
23718,-4e-05,-6e-05,2e-05,0.00013,0.00012,7e-05,-3e-05,-3e-05,5,32
23719,-4e-05,-6e-05,2e-05,0.00013,0.00012,7e-05,-3e-05,-3e-05,5,32
23720,-4e-05,-6e-05,2e-05,0.00013,0.00012,7e-05,-3e-05,-3e-05,5,32
23721,-4e-05,-6e-05,2e-05,0.00013,0.00012,7e-05,-3e-05,-3e-05,5,32
23722,-4e-05,-6e-05,2e-05,0.00013,0.00012,7e-05,-3e-05,-3e-05,5,32
23723,6e-05,3e-05,1e-05,5e-05,0.00063,-6e-05,2e-05,3e-05,5,32
23724,6e-05,3e-05,1e-05,5e-05,0.00063,-6e-05,2e-05,3e-05,5,32
23725,6e-05,3e-05,1e-05,5e-05,0.00063,-6e-05,2e-05,3e-05,5,32
23726,6e-05,3e-05,1e-05,5e-05,0.00063,-6e-05,2e-05,3e-05,5,32
23727,6e-05,3e-05,1e-05,5e-05,0.00063,-6e-05,2e-05,3e-05,5,32
23728,6e-05,3e-05,1e-05,5e-05,0.00063,-6e-05,2e-05,3e-05,5,32
23729,6e-05,3e-05,1e-05,5e-05,0.00063,-6e-05,2e-05,3e-05,5,32
23730,6e-05,3e-05,1e-05,5e-05,0.00063,-6e-05,2e-05,3e-05,5,32
23731,6e-05,3e-05,1e-05,5e-05,0.00063,-6e-05,2e-05,3e-05,5,32
23732,6e-05,3e-05,1e-05,5e-05,0.00063,-6e-05,2e-05,3e-05,5,32
23733,6e-05,3e-05,1e-05,5e-05,0.00063,-6e-05,2e-05,3e-05,5,32
23734,6e-05,3e-05,1e-05,5e-05,0.00063,-6e-05,2e-05,3e-05,5,32
23735,6e-05,3e-05,1e-05,5e-05,0.00063,-6e-05,2e-05,3e-05,5,32
23736,6e-05,3e-05,1e-05,5e-05,0.00063,-6e-05,2e-05,3e-05,5,32
23738,9e-05,-2e-05,-5e-05,-0.0002,-0.00045,6e-05,0,3e-05,5,32
23739,9e-05,-2e-05,-5e-05,-0.0002,-0.00045,6e-05,0,3e-05,5,32
23740,8e-05,5e-05,1e-05,-2e-05,-6e-05,0,-3e-05,0,5,32
23741,8e-05,5e-05,1e-05,-2e-05,-6e-05,0,-3e-05,0,5,32
23742,8e-05,5e-05,1e-05,-2e-05,-6e-05,0,-3e-05,0,5,32
23743,8e-05,5e-05,1e-05,-2e-05,-6e-05,0,-3e-05,0,5,32
23744,8e-05,5e-05,1e-05,-2e-05,-6e-05,0,-3e-05,0,5,32
23745,8e-05,5e-05,1e-05,-2e-05,-6e-05,0,-3e-05,0,5,32
23746,8e-05,5e-05,1e-05,-2e-05,-6e-05,0,-3e-05,0,5,32
23747,8e-05,5e-05,1e-05,-2e-05,-6e-05,0,-3e-05,0,5,32
23748,8e-05,5e-05,1e-05,-2e-05,-6e-05,0,-3e-05,0,5,32
23749,8e-05,5e-05,1e-05,-2e-05,-6e-05,0,-3e-05,0,5,32
23750,8e-05,5e-05,1e-05,-2e-05,-6e-05,0,-3e-05,0,5,32
23751,8e-05,5e-05,1e-05,-2e-05,-6e-05,0,-3e-05,0,5,32
23753,-2e-05,8e-05,7e-05,0,-0.00014,-4e-05,0,-4e-05,5,32
23754,0.00012,1e-05,0,1e-05,0.00017,0.00011,2e-05,5e-05,5,32
23755,0.00012,1e-05,0,1e-05,0.00017,0.00011,2e-05,5e-05,5,32
23756,0.00012,1e-05,0,1e-05,0.00017,0.00011,2e-05,5e-05,5,32
23757,0.00012,1e-05,0,1e-05,0.00017,0.00011,2e-05,5e-05,5,32
23758,0.00012,1e-05,0,1e-05,0.00017,0.00011,2e-05,5e-05,5,32
23759,0.00012,1e-05,0,1e-05,0.00017,0.00011,2e-05,5e-05,5,32
23760,-0.00011,-6e-05,-2e-05,-5e-05,-2e-05,-6e-05,-4e-05,-1e-05,5,32
23761,-0.00011,-6e-05,-2e-05,-5e-05,-2e-05,-6e-05,-4e-05,-1e-05,5,32
23762,-0.00011,-6e-05,-2e-05,-5e-05,-2e-05,-6e-05,-4e-05,-1e-05,5,32
23763,-0.00011,-6e-05,-2e-05,-5e-05,-2e-05,-6e-05,-4e-05,-1e-05,5,32
23764,-0.00011,-6e-05,-2e-05,-5e-05,-2e-05,-6e-05,-4e-05,-1e-05,5,32
23765,-0.00011,-6e-05,-2e-05,-5e-05,-2e-05,-6e-05,-4e-05,-1e-05,5,32
23766,-0.00011,-6e-05,-2e-05,-5e-05,-2e-05,-6e-05,-4e-05,-1e-05,5,32
23767,-0.00011,-6e-05,-2e-05,-5e-05,-2e-05,-6e-05,-4e-05,-1e-05,5,32
23768,-0.00011,-6e-05,-2e-05,-5e-05,-2e-05,-6e-05,-4e-05,-1e-05,5,32
23769,-0.00011,-6e-05,-2e-05,-5e-05,-2e-05,-6e-05,-4e-05,-1e-05,5,32
23770,-0.00011,-6e-05,-2e-05,-5e-05,-2e-05,-6e-05,-4e-05,-1e-05,5,32
23771,-0.00011,-6e-05,-2e-05,-5e-05,-2e-05,-6e-05,-4e-05,-1e-05,5,32
23772,-0.00011,-6e-05,-2e-05,-5e-05,-2e-05,-6e-05,-4e-05,-1e-05,5,32
23773,-0.00011,-6e-05,-2e-05,-5e-05,-2e-05,-6e-05,-4e-05,-1e-05,5,32
23774,-0.00011,-6e-05,-2e-05,-5e-05,-2e-05,-6e-05,-4e-05,-1e-05,5,32
23775,-0.00011,-6e-05,-2e-05,-5e-05,-2e-05,-6e-05,-4e-05,-1e-05,5,32
23776,1e-05,0.0001,8e-05,6e-05,0.00061,6e-05,3e-05,2e-05,5,32
23777,1e-05,0.0001,8e-05,6e-05,0.00061,6e-05,3e-05,2e-05,5,32
23778,0.00021,2e-05,-0.00011,-0.0001,-0.00033,0,1e-05,0,5,32
23779,0.00021,2e-05,-0.00011,-0.0001,-0.00033,0,1e-05,0,5,32
23780,0.00021,2e-05,-0.00011,-0.0001,-0.00033,0,1e-05,0,5,32
23781,0.00021,2e-05,-0.00011,-0.0001,-0.00033,0,1e-05,0,5,32
23782,0.00021,2e-05,-0.00011,-0.0001,-0.00033,0,1e-05,0,5,32
23783,0.00021,2e-05,-0.00011,-0.0001,-0.00033,0,1e-05,0,5,32
23784,0.00021,2e-05,-0.00011,-0.0001,-0.00033,0,1e-05,0,5,32
23785,0.00021,2e-05,-0.00011,-0.0001,-0.00033,0,1e-05,0,5,32
23786,0.00021,2e-05,-0.00011,-0.0001,-0.00033,0,1e-05,0,5,32
23788,0.00021,2e-05,-0.00011,-0.0001,-0.00033,0,1e-05,0,5,32
23789,0.00021,2e-05,-0.00011,-0.0001,-0.00033,0,1e-05,0,5,32
23790,0.00021,2e-05,-0.00011,-0.0001,-0.00033,0,1e-05,0,5,32
23791,0.00021,2e-05,-0.00011,-0.0001,-0.00033,0,1e-05,0,5,32
23792,0.00021,2e-05,-0.00011,-0.0001,-0.00033,0,1e-05,0,5,32
23793,0.00021,2e-05,-0.00011,-0.0001,-0.00033,0,1e-05,0,5,32
23794,0.00021,2e-05,-0.00011,-0.0001,-0.00033,0,1e-05,0,5,32
23795,0.00021,2e-05,-0.00011,-0.0001,-0.00033,0,1e-05,0,5,32
23796,0.00021,2e-05,-0.00011,-0.0001,-0.00033,0,1e-05,0,5,32
23797,0.00021,2e-05,-0.00011,-0.0001,-0.00033,0,1e-05,0,5,32
23798,0.00021,2e-05,-0.00011,-0.0001,-0.00033,0,1e-05,0,5,32
23799,2e-05,2e-05,0,-1e-05,-0.00038,0.00025,3e-05,2e-05,5,32
23800,2e-05,2e-05,0,-1e-05,-0.00038,0.00025,3e-05,2e-05,5,32
23801,-4e-05,-7e-05,-3e-05,-3e-05,-0.00015,-0.00033,3e-05,1e-05,5,32
23802,-4e-05,-7e-05,-3e-05,-3e-05,-0.00015,-0.00033,3e-05,1e-05,5,32
23803,-4e-05,-7e-05,-3e-05,-3e-05,-0.00015,-0.00033,3e-05,1e-05,5,32
23804,-4e-05,-7e-05,-3e-05,-3e-05,-0.00015,-0.00033,3e-05,1e-05,5,32
23805,-4e-05,-7e-05,-3e-05,-3e-05,-0.00015,-0.00033,3e-05,1e-05,5,32
23806,-4e-05,-7e-05,-3e-05,-3e-05,-0.00015,-0.00033,3e-05,1e-05,5,32
23807,-4e-05,-7e-05,-3e-05,-3e-05,-0.00015,-0.00033,3e-05,1e-05,5,32
23808,-4e-05,-7e-05,-3e-05,-3e-05,-0.00015,-0.00033,3e-05,1e-05,5,32
23809,-4e-05,-7e-05,-3e-05,-3e-05,-0.00015,-0.00033,3e-05,1e-05,5,32
23810,-4e-05,-7e-05,-3e-05,-3e-05,-0.00015,-0.00033,3e-05,1e-05,5,32
23811,-4e-05,-7e-05,-3e-05,-3e-05,-0.00015,-0.00033,3e-05,1e-05,5,32
23812,-4e-05,-7e-05,-3e-05,-3e-05,-0.00015,-0.00033,3e-05,1e-05,5,32
23813,-9e-05,-4e-05,3e-05,4e-05,-6e-05,-1e-05,-7e-05,-1e-05,5,32
23814,-9e-05,-4e-05,3e-05,4e-05,-6e-05,-1e-05,-7e-05,-1e-05,5,32
23815,-9e-05,-4e-05,3e-05,4e-05,-6e-05,-1e-05,-7e-05,-1e-05,5,32
23816,-9e-05,-4e-05,3e-05,4e-05,-6e-05,-1e-05,-7e-05,-1e-05,5,32
23817,-9e-05,-4e-05,3e-05,4e-05,-6e-05,-1e-05,-7e-05,-1e-05,5,32
23818,-9e-05,-4e-05,3e-05,4e-05,-6e-05,-1e-05,-7e-05,-1e-05,5,32
23819,-9e-05,-4e-05,3e-05,4e-05,-6e-05,-1e-05,-7e-05,-1e-05,5,32
23820,0,-3e-05,-4e-05,-5e-05,-3e-05,6e-05,2e-05,0,5,32
23821,0,-3e-05,-4e-05,-5e-05,-3e-05,6e-05,2e-05,0,5,32
23822,0,-3e-05,-4e-05,-5e-05,-3e-05,6e-05,2e-05,0,5,32
23823,0,-3e-05,-4e-05,-5e-05,-3e-05,6e-05,2e-05,0,5,32
23824,0,-3e-05,-4e-05,-5e-05,-3e-05,6e-05,2e-05,0,5,32
23825,0,-3e-05,-4e-05,-5e-05,-3e-05,6e-05,2e-05,0,5,32
23826,0,-3e-05,-4e-05,-5e-05,-3e-05,6e-05,2e-05,0,5,32
23827,0,-3e-05,-4e-05,-5e-05,-3e-05,6e-05,2e-05,0,5,32
23828,0,-3e-05,-4e-05,-5e-05,-3e-05,6e-05,2e-05,0,5,32
23829,0,-3e-05,-4e-05,-5e-05,-3e-05,6e-05,2e-05,0,5,32
23830,0,-3e-05,-4e-05,-5e-05,-3e-05,6e-05,2e-05,0,5,32
23831,0,-3e-05,-4e-05,-5e-05,-3e-05,6e-05,2e-05,0,5,32
23832,0,-3e-05,-4e-05,-5e-05,-3e-05,6e-05,2e-05,0,5,32
23833,0,-3e-05,-4e-05,-5e-05,-3e-05,6e-05,2e-05,0,5,32
23834,0,-3e-05,-4e-05,-5e-05,-3e-05,6e-05,2e-05,0,5,32
23835,0,-3e-05,-4e-05,-5e-05,-3e-05,6e-05,2e-05,0,5,32
23836,-4e-05,1e-05,-3e-05,3e-05,0.0003,-0.00011,-4e-05,-3e-05,5,32
23838,-4e-05,1e-05,-3e-05,3e-05,0.0003,-0.00011,-4e-05,-3e-05,5,32
23839,-4e-05,1e-05,-3e-05,3e-05,0.0003,-0.00011,-4e-05,-3e-05,5,32
23840,-4e-05,1e-05,-3e-05,3e-05,0.0003,-0.00011,-4e-05,-3e-05,5,32
23841,-4e-05,1e-05,-3e-05,3e-05,0.0003,-0.00011,-4e-05,-3e-05,5,32
23842,-4e-05,1e-05,-3e-05,3e-05,0.0003,-0.00011,-4e-05,-3e-05,5,32
23843,-4e-05,1e-05,-3e-05,3e-05,0.0003,-0.00011,-4e-05,-3e-05,5,32
23844,-4e-05,3e-05,9e-05,9e-05,6e-05,-9e-05,-2e-05,-3e-05,5,32
23845,-4e-05,3e-05,9e-05,9e-05,6e-05,-9e-05,-2e-05,-3e-05,5,32
23846,-4e-05,3e-05,9e-05,9e-05,6e-05,-9e-05,-2e-05,-3e-05,5,32
23847,-4e-05,3e-05,9e-05,9e-05,6e-05,-9e-05,-2e-05,-3e-05,5,32
23848,-4e-05,3e-05,9e-05,9e-05,6e-05,-9e-05,-2e-05,-3e-05,5,32
23849,-4e-05,3e-05,9e-05,9e-05,6e-05,-9e-05,-2e-05,-3e-05,5,32
23850,-4e-05,3e-05,9e-05,9e-05,6e-05,-9e-05,-2e-05,-3e-05,5,32
23851,-4e-05,3e-05,9e-05,9e-05,6e-05,-9e-05,-2e-05,-3e-05,5,32
23852,-4e-05,3e-05,9e-05,9e-05,6e-05,-9e-05,-2e-05,-3e-05,5,32
23853,-4e-05,3e-05,9e-05,9e-05,6e-05,-9e-05,-2e-05,-3e-05,5,32
23854,-4e-05,3e-05,9e-05,9e-05,6e-05,-9e-05,-2e-05,-3e-05,5,32
23855,-4e-05,3e-05,9e-05,9e-05,6e-05,-9e-05,-2e-05,-3e-05,5,32
23856,-4e-05,3e-05,9e-05,9e-05,6e-05,-9e-05,-2e-05,-3e-05,5,32
23857,-4e-05,3e-05,9e-05,9e-05,6e-05,-9e-05,-2e-05,-3e-05,5,32
23858,-0.00021,-5e-05,2e-05,1e-05,0.0003,5e-05,0,-3e-05,5,32
23859,-0.00021,-5e-05,2e-05,1e-05,0.0003,5e-05,0,-3e-05,5,32
23860,-5e-05,-0.0001,7e-05,6e-05,3e-05,0.00011,-3e-05,-2e-05,5,32
23861,-5e-05,-0.0001,7e-05,6e-05,3e-05,0.00011,-3e-05,-2e-05,5,32
23862,-5e-05,-0.0001,7e-05,6e-05,3e-05,0.00011,-3e-05,-2e-05,5,32
23863,-5e-05,-0.0001,7e-05,6e-05,3e-05,0.00011,-3e-05,-2e-05,5,32
23864,-5e-05,-0.0001,7e-05,6e-05,3e-05,0.00011,-3e-05,-2e-05,5,32
23865,-5e-05,-0.0001,7e-05,6e-05,3e-05,0.00011,-3e-05,-2e-05,5,32
23866,-5e-05,-0.0001,7e-05,6e-05,3e-05,0.00011,-3e-05,-2e-05,5,32
23867,-5e-05,-0.0001,7e-05,6e-05,3e-05,0.00011,-3e-05,-2e-05,5,32
23868,-5e-05,-0.0001,7e-05,6e-05,3e-05,0.00011,-3e-05,-2e-05,5,32
23869,-5e-05,-0.0001,7e-05,6e-05,3e-05,0.00011,-3e-05,-2e-05,5,32
23870,-5e-05,-0.0001,7e-05,6e-05,3e-05,0.00011,-3e-05,-2e-05,5,32
23871,-5e-05,-0.0001,7e-05,6e-05,3e-05,0.00011,-3e-05,-2e-05,5,32
23872,-5e-05,-0.0001,7e-05,6e-05,3e-05,0.00011,-3e-05,-2e-05,5,32
23873,0.00011,0.0001,5e-05,1e-05,-0.00036,-6e-05,1e-05,2e-05,5,32
23874,0.00011,0.0001,5e-05,1e-05,-0.00036,-6e-05,1e-05,2e-05,5,32
23875,0.00011,0.0001,5e-05,1e-05,-0.00036,-6e-05,1e-05,2e-05,5,32
23876,0.00011,0.0001,5e-05,1e-05,-0.00036,-6e-05,1e-05,2e-05,5,32
23877,0.00011,0.0001,5e-05,1e-05,-0.00036,-6e-05,1e-05,2e-05,5,32
23878,0.00011,0.0001,5e-05,1e-05,-0.00036,-6e-05,1e-05,2e-05,5,32
23879,0.00011,0.0001,5e-05,1e-05,-0.00036,-6e-05,1e-05,2e-05,5,32
23880,0.00011,0.0001,5e-05,1e-05,-0.00036,-6e-05,1e-05,2e-05,5,32
23881,6e-05,2e-05,-1e-05,5e-05,0.00019,6e-05,-2e-05,-1e-05,5,32
23882,6e-05,2e-05,-1e-05,5e-05,0.00019,6e-05,-2e-05,-1e-05,5,32
23883,6e-05,2e-05,-1e-05,5e-05,0.00019,6e-05,-2e-05,-1e-05,5,32
23884,6e-05,2e-05,-1e-05,5e-05,0.00019,6e-05,-2e-05,-1e-05,5,32
23885,6e-05,2e-05,-1e-05,5e-05,0.00019,6e-05,-2e-05,-1e-05,5,32
23886,6e-05,2e-05,-1e-05,5e-05,0.00019,6e-05,-2e-05,-1e-05,5,32
23888,6e-05,2e-05,-1e-05,5e-05,0.00019,6e-05,-2e-05,-1e-05,5,32
23889,6e-05,2e-05,-1e-05,5e-05,0.00019,6e-05,-2e-05,-1e-05,5,32
23890,6e-05,2e-05,-1e-05,5e-05,0.00019,6e-05,-2e-05,-1e-05,5,32
23891,6e-05,2e-05,-1e-05,5e-05,0.00019,6e-05,-2e-05,-1e-05,5,32
23892,6e-05,2e-05,-1e-05,5e-05,0.00019,6e-05,-2e-05,-1e-05,5,32
23893,6e-05,2e-05,-1e-05,5e-05,0.00019,6e-05,-2e-05,-1e-05,5,32
23894,6e-05,2e-05,-1e-05,5e-05,0.00019,6e-05,-2e-05,-1e-05,5,32
23895,6e-05,2e-05,-1e-05,5e-05,0.00019,6e-05,-2e-05,-1e-05,5,32
23896,6e-05,2e-05,-1e-05,5e-05,0.00019,6e-05,-2e-05,-1e-05,5,32
23897,6e-05,2e-05,-1e-05,5e-05,0.00019,6e-05,-2e-05,-1e-05,5,32
23898,6e-05,2e-05,-1e-05,5e-05,0.00019,6e-05,-2e-05,-1e-05,5,32
23899,6e-05,2e-05,-1e-05,5e-05,0.00019,6e-05,-2e-05,-1e-05,5,32
23900,6e-05,2e-05,-1e-05,5e-05,0.00019,6e-05,-2e-05,-1e-05,5,32
23901,6e-05,2e-05,-1e-05,5e-05,0.00019,6e-05,-2e-05,-1e-05,5,32
23902,6e-05,2e-05,-1e-05,5e-05,0.00019,6e-05,-2e-05,-1e-05,5,32
23903,6e-05,2e-05,-1e-05,5e-05,0.00019,6e-05,-2e-05,-1e-05,5,32
23904,-0.00011,-3e-05,-7e-05,-9e-05,-0.00015,-0.0001,-3e-05,-7e-05,5,32
23905,0.00012,0.00019,-6e-05,-0.00016,-0.00026,-6e-05,-4e-05,-1e-05,5,32
23906,0.00012,0.00019,-6e-05,-0.00016,-0.00026,-6e-05,-4e-05,-1e-05,5,32
23907,0.00012,0.00019,-6e-05,-0.00016,-0.00026,-6e-05,-4e-05,-1e-05,5,32
23908,0.00012,0.00019,-6e-05,-0.00016,-0.00026,-6e-05,-4e-05,-1e-05,5,32
23909,0.00012,0.00019,-6e-05,-0.00016,-0.00026,-6e-05,-4e-05,-1e-05,5,32
23910,0.00012,0.00019,-6e-05,-0.00016,-0.00026,-6e-05,-4e-05,-1e-05,5,32
23911,0.00012,0.00019,-6e-05,-0.00016,-0.00026,-6e-05,-4e-05,-1e-05,5,32
23912,0.00012,0.00019,-6e-05,-0.00016,-0.00026,-6e-05,-4e-05,-1e-05,5,32
23913,0.00012,0.00019,-6e-05,-0.00016,-0.00026,-6e-05,-4e-05,-1e-05,5,32
23914,0.00012,0.00019,-6e-05,-0.00016,-0.00026,-6e-05,-4e-05,-1e-05,5,32
23915,0.00012,0.00019,-6e-05,-0.00016,-0.00026,-6e-05,-4e-05,-1e-05,5,32
23916,0.00012,0.00019,-6e-05,-0.00016,-0.00026,-6e-05,-4e-05,-1e-05,5,32
23917,0.00012,0.00019,-6e-05,-0.00016,-0.00026,-6e-05,-4e-05,-1e-05,5,32
23918,0.0001,-0.00013,-3e-05,0,0.00022,-3e-05,0,2e-05,5,32
23919,-0.00031,-2e-05,1e-05,3e-05,0.00031,0.00019,-1e-05,-5e-05,5,32
23920,0,-5e-05,-0.0001,-4e-05,9e-05,-1e-05,5e-05,2e-05,5,32
23921,0,-5e-05,-0.0001,-4e-05,9e-05,-1e-05,5e-05,2e-05,5,32
23922,0,-5e-05,-0.0001,-4e-05,9e-05,-1e-05,5e-05,2e-05,5,32
23923,0,-5e-05,-0.0001,-4e-05,9e-05,-1e-05,5e-05,2e-05,5,32
23924,0,-5e-05,-0.0001,-4e-05,9e-05,-1e-05,5e-05,2e-05,5,32
23925,0,-5e-05,-0.0001,-4e-05,9e-05,-1e-05,5e-05,2e-05,5,32
23926,0,-5e-05,-0.0001,-4e-05,9e-05,-1e-05,5e-05,2e-05,5,32
23927,0,-5e-05,-0.0001,-4e-05,9e-05,-1e-05,5e-05,2e-05,5,32
23928,0,-5e-05,-0.0001,-4e-05,9e-05,-1e-05,5e-05,2e-05,5,32
23929,0,-5e-05,-0.0001,-4e-05,9e-05,-1e-05,5e-05,2e-05,5,32
23930,0,-5e-05,-0.0001,-4e-05,9e-05,-1e-05,5e-05,2e-05,5,32
23931,0,-5e-05,-0.0001,-4e-05,9e-05,-1e-05,5e-05,2e-05,5,32
23932,0,-5e-05,-0.0001,-4e-05,9e-05,-1e-05,5e-05,2e-05,5,32
23933,0.0001,-1e-05,-7e-05,5e-05,0.00049,0,-1e-05,2e-05,5,32
23934,0.0001,-1e-05,-7e-05,5e-05,0.00049,0,-1e-05,2e-05,5,32
23935,0.0001,-1e-05,-7e-05,5e-05,0.00049,0,-1e-05,2e-05,5,32
23936,0.0001,-1e-05,-7e-05,5e-05,0.00049,0,-1e-05,2e-05,5,32
23938,0.0001,-1e-05,-7e-05,5e-05,0.00049,0,-1e-05,2e-05,5,32
23939,0.0001,-1e-05,-7e-05,5e-05,0.00049,0,-1e-05,2e-05,5,32
23940,-3e-05,-1e-05,0,-7e-05,-8e-05,-6e-05,-4e-05,1e-05,5,32
23941,-3e-05,-1e-05,0,-7e-05,-8e-05,-6e-05,-4e-05,1e-05,5,32
23942,-3e-05,-1e-05,0,-7e-05,-8e-05,-6e-05,-4e-05,1e-05,5,32
23943,-3e-05,-1e-05,0,-7e-05,-8e-05,-6e-05,-4e-05,1e-05,5,32
23944,-3e-05,-1e-05,0,-7e-05,-8e-05,-6e-05,-4e-05,1e-05,5,32
23945,-3e-05,-1e-05,0,-7e-05,-8e-05,-6e-05,-4e-05,1e-05,5,32
23946,-3e-05,-1e-05,0,-7e-05,-8e-05,-6e-05,-4e-05,1e-05,5,32
23947,-3e-05,-1e-05,0,-7e-05,-8e-05,-6e-05,-4e-05,1e-05,5,32
23948,-3e-05,-1e-05,0,-7e-05,-8e-05,-6e-05,-4e-05,1e-05,5,32
23949,-3e-05,-1e-05,0,-7e-05,-8e-05,-6e-05,-4e-05,1e-05,5,32
23950,-3e-05,-1e-05,0,-7e-05,-8e-05,-6e-05,-4e-05,1e-05,5,32
23951,-3e-05,-1e-05,0,-7e-05,-8e-05,-6e-05,-4e-05,1e-05,5,32
23952,-3e-05,-1e-05,0,-7e-05,-8e-05,-6e-05,-4e-05,1e-05,5,32
23953,-3e-05,-1e-05,0,-7e-05,-8e-05,-6e-05,-4e-05,1e-05,5,32
23954,-3e-05,-1e-05,0,-7e-05,-8e-05,-6e-05,-4e-05,1e-05,5,32
23955,-3e-05,-1e-05,0,-7e-05,-8e-05,-6e-05,-4e-05,1e-05,5,32
23956,8e-05,4e-05,-1e-05,-7e-05,-0.00042,-0.00011,0,-1e-05,5,32
23957,8e-05,4e-05,-1e-05,-7e-05,-0.00042,-0.00011,0,-1e-05,5,32
23958,-7e-05,-0.00014,-5e-05,-1e-05,-4e-05,3e-05,-2e-05,-2e-05,5,32
23959,-7e-05,-0.00014,-5e-05,-1e-05,-4e-05,3e-05,-2e-05,-2e-05,5,32
23960,-7e-05,-0.00014,-5e-05,-1e-05,-4e-05,3e-05,-2e-05,-2e-05,5,32
23961,-7e-05,-0.00014,-5e-05,-1e-05,-4e-05,3e-05,-2e-05,-2e-05,5,32
23962,-7e-05,-0.00014,-5e-05,-1e-05,-4e-05,3e-05,-2e-05,-2e-05,5,32
23963,-7e-05,-0.00014,-5e-05,-1e-05,-4e-05,3e-05,-2e-05,-2e-05,5,32
23964,-7e-05,-0.00014,-5e-05,-1e-05,-4e-05,3e-05,-2e-05,-2e-05,5,32
23965,-7e-05,-0.00014,-5e-05,-1e-05,-4e-05,3e-05,-2e-05,-2e-05,5,32
23966,-7e-05,-0.00014,-5e-05,-1e-05,-4e-05,3e-05,-2e-05,-2e-05,5,32
23967,-7e-05,-0.00014,-5e-05,-1e-05,-4e-05,3e-05,-2e-05,-2e-05,5,32
23968,-7e-05,-0.00014,-5e-05,-1e-05,-4e-05,3e-05,-2e-05,-2e-05,5,32
23969,-7e-05,-0.00014,-5e-05,-1e-05,-4e-05,3e-05,-2e-05,-2e-05,5,32
23970,-7e-05,-0.00014,-5e-05,-1e-05,-4e-05,3e-05,-2e-05,-2e-05,5,32
23971,-7e-05,-0.00014,-5e-05,-1e-05,-4e-05,3e-05,-2e-05,-2e-05,5,32
23972,-7e-05,-0.00014,-5e-05,-1e-05,-4e-05,3e-05,-2e-05,-2e-05,5,32
23973,-7e-05,-0.00014,-5e-05,-1e-05,-4e-05,3e-05,-2e-05,-2e-05,5,32
23974,-7e-05,-0.00014,-5e-05,-1e-05,-4e-05,3e-05,-2e-05,-2e-05,5,32
23975,-7e-05,-0.00014,-5e-05,-1e-05,-4e-05,3e-05,-2e-05,-2e-05,5,32
23976,-7e-05,-0.00014,-5e-05,-1e-05,-4e-05,3e-05,-2e-05,-2e-05,5,32
23977,-7e-05,-0.00014,-5e-05,-1e-05,-4e-05,3e-05,-2e-05,-2e-05,5,32
23978,-6e-05,1e-05,-6e-05,-3e-05,0.00019,0,-1e-05,-3e-05,5,32
23979,8e-05,0,6e-05,2e-05,-0.00033,-1e-05,1e-05,1e-05,5,32
23980,-0.00017,-1e-05,7e-05,8e-05,0.00038,0,-2e-05,1e-05,5,32
23981,-0.00017,-1e-05,7e-05,8e-05,0.00038,0,-2e-05,1e-05,5,32
23982,-0.00017,-1e-05,7e-05,8e-05,0.00038,0,-2e-05,1e-05,5,32
23983,-0.00017,-1e-05,7e-05,8e-05,0.00038,0,-2e-05,1e-05,5,32
23984,-0.00017,-1e-05,7e-05,8e-05,0.00038,0,-2e-05,1e-05,5,32
23985,-0.00017,-1e-05,7e-05,8e-05,0.00038,0,-2e-05,1e-05,5,32
23986,-0.00017,-1e-05,7e-05,8e-05,0.00038,0,-2e-05,1e-05,5,32
23988,-0.00017,-1e-05,7e-05,8e-05,0.00038,0,-2e-05,1e-05,5,32
23989,-0.00017,-1e-05,7e-05,8e-05,0.00038,0,-2e-05,1e-05,5,32
23990,-0.00017,-1e-05,7e-05,8e-05,0.00038,0,-2e-05,1e-05,5,32
23991,-0.00017,-1e-05,7e-05,8e-05,0.00038,0,-2e-05,1e-05,5,32
23992,-0.00017,-1e-05,7e-05,8e-05,0.00038,0,-2e-05,1e-05,5,32
23993,3e-05,-2e-05,-5e-05,-8e-05,-0.00022,-0.00028,-3e-05,-2e-05,5,32
23994,3e-05,-2e-05,-5e-05,-8e-05,-0.00022,-0.00028,-3e-05,-2e-05,5,32
23995,3e-05,-2e-05,-5e-05,-8e-05,-0.00022,-0.00028,-3e-05,-2e-05,5,32
23996,3e-05,-2e-05,-5e-05,-8e-05,-0.00022,-0.00028,-3e-05,-2e-05,5,32
23997,3e-05,-2e-05,-5e-05,-8e-05,-0.00022,-0.00028,-3e-05,-2e-05,5,32
23998,3e-05,-2e-05,-5e-05,-8e-05,-0.00022,-0.00028,-3e-05,-2e-05,5,32
23999,3e-05,-2e-05,-5e-05,-8e-05,-0.00022,-0.00028,-3e-05,-2e-05,5,32
24000,3e-05,-2e-05,-5e-05,-8e-05,-0.00022,-0.00028,-3e-05,-2e-05,5,32
24001,-1e-05,1e-05,1e-05,-2e-05,-0.0003,0.0001,1e-05,-1e-05,5,32
24002,-1e-05,1e-05,1e-05,-2e-05,-0.0003,0.0001,1e-05,-1e-05,5,32
24003,-1e-05,1e-05,1e-05,-2e-05,-0.0003,0.0001,1e-05,-1e-05,5,32
24004,-1e-05,1e-05,1e-05,-2e-05,-0.0003,0.0001,1e-05,-1e-05,5,32
24005,-1e-05,1e-05,1e-05,-2e-05,-0.0003,0.0001,1e-05,-1e-05,5,32
24006,-1e-05,1e-05,1e-05,-2e-05,-0.0003,0.0001,1e-05,-1e-05,5,32
24007,-1e-05,1e-05,1e-05,-2e-05,-0.0003,0.0001,1e-05,-1e-05,5,32
24008,-1e-05,1e-05,1e-05,-2e-05,-0.0003,0.0001,1e-05,-1e-05,5,32
24009,-1e-05,1e-05,1e-05,-2e-05,-0.0003,0.0001,1e-05,-1e-05,5,32
24010,-1e-05,1e-05,1e-05,-2e-05,-0.0003,0.0001,1e-05,-1e-05,5,32
24011,-1e-05,1e-05,1e-05,-2e-05,-0.0003,0.0001,1e-05,-1e-05,5,32
24012,-1e-05,1e-05,1e-05,-2e-05,-0.0003,0.0001,1e-05,-1e-05,5,32
24013,-1e-05,1e-05,1e-05,-2e-05,-0.0003,0.0001,1e-05,-1e-05,5,32
24014,-1e-05,1e-05,1e-05,-2e-05,-0.0003,0.0001,1e-05,-1e-05,5,32
24015,-1e-05,1e-05,1e-05,-2e-05,-0.0003,0.0001,1e-05,-1e-05,5,32
24016,7e-05,-1e-05,-5e-05,-0.00014,-0.00014,5e-05,-1e-05,2e-05,5,32
24017,-8e-05,-7e-05,-4e-05,1e-05,-0.00034,-0.00012,-4e-05,-3e-05,5,32
24018,7e-05,6e-05,1e-05,0.00012,0.00041,0.0001,9e-05,0,5,32
24019,7e-05,6e-05,1e-05,0.00012,0.00041,0.0001,9e-05,0,5,32
24020,7e-05,6e-05,1e-05,0.00012,0.00041,0.0001,9e-05,0,5,32
24021,7e-05,6e-05,1e-05,0.00012,0.00041,0.0001,9e-05,0,5,32
24022,7e-05,6e-05,1e-05,0.00012,0.00041,0.0001,9e-05,0,5,32
24023,7e-05,6e-05,1e-05,0.00012,0.00041,0.0001,9e-05,0,5,32
24024,7e-05,6e-05,1e-05,0.00012,0.00041,0.0001,9e-05,0,5,32
24025,7e-05,6e-05,1e-05,0.00012,0.00041,0.0001,9e-05,0,5,32
24026,7e-05,6e-05,1e-05,0.00012,0.00041,0.0001,9e-05,0,5,32
24027,7e-05,6e-05,1e-05,0.00012,0.00041,0.0001,9e-05,0,5,32
24028,7e-05,6e-05,1e-05,0.00012,0.00041,0.0001,9e-05,0,5,32
24029,7e-05,6e-05,1e-05,0.00012,0.00041,0.0001,9e-05,0,5,32
24030,7e-05,6e-05,1e-05,0.00012,0.00041,0.0001,9e-05,0,5,32
24031,7e-05,6e-05,1e-05,0.00012,0.00041,0.0001,9e-05,0,5,32
24032,7e-05,6e-05,1e-05,0.00012,0.00041,0.0001,9e-05,0,5,32
24033,7e-05,6e-05,1e-05,0.00012,0.00041,0.0001,9e-05,0,5,32
24034,7e-05,6e-05,1e-05,0.00012,0.00041,0.0001,9e-05,0,5,32
24035,7e-05,6e-05,1e-05,0.00012,0.00041,0.0001,9e-05,0,5,32
24036,7e-05,6e-05,1e-05,0.00012,0.00041,0.0001,9e-05,0,5,32
24038,7e-05,6e-05,1e-05,0.00012,0.00041,0.0001,9e-05,0,5,32
24039,5e-05,-6e-05,-0.00012,-0.0002,-0.00039,-4e-05,-1e-05,2e-05,5,32
24040,5e-05,-6e-05,-0.00012,-0.0002,-0.00039,-4e-05,-1e-05,2e-05,5,32
24041,5e-05,-6e-05,-0.00012,-0.0002,-0.00039,-4e-05,-1e-05,2e-05,5,32
24042,5e-05,-6e-05,-0.00012,-0.0002,-0.00039,-4e-05,-1e-05,2e-05,5,32
24043,5e-05,-6e-05,-0.00012,-0.0002,-0.00039,-4e-05,-1e-05,2e-05,5,32
24044,5e-05,-6e-05,-0.00012,-0.0002,-0.00039,-4e-05,-1e-05,2e-05,5,32
24045,5e-05,-6e-05,-0.00012,-0.0002,-0.00039,-4e-05,-1e-05,2e-05,5,32
24046,5e-05,-6e-05,-0.00012,-0.0002,-0.00039,-4e-05,-1e-05,2e-05,5,32
24047,5e-05,-6e-05,-0.00012,-0.0002,-0.00039,-4e-05,-1e-05,2e-05,5,32
24048,5e-05,-6e-05,-0.00012,-0.0002,-0.00039,-4e-05,-1e-05,2e-05,5,32
24049,5e-05,-6e-05,-0.00012,-0.0002,-0.00039,-4e-05,-1e-05,2e-05,5,32
24050,5e-05,-6e-05,-0.00012,-0.0002,-0.00039,-4e-05,-1e-05,2e-05,5,32
24051,5e-05,-6e-05,-0.00012,-0.0002,-0.00039,-4e-05,-1e-05,2e-05,5,32
24052,5e-05,-6e-05,-0.00012,-0.0002,-0.00039,-4e-05,-1e-05,2e-05,5,32
24053,2e-05,1e-05,-2e-05,-0.00011,-0.00021,-8e-05,-5e-05,0,5,32
24054,2e-05,1e-05,-2e-05,-0.00011,-0.00021,-8e-05,-5e-05,0,5,32
24055,2e-05,1e-05,-2e-05,-0.00011,-0.00021,-8e-05,-5e-05,0,5,32
24056,2e-05,1e-05,-2e-05,-0.00011,-0.00021,-8e-05,-5e-05,0,5,32
24057,2e-05,1e-05,-2e-05,-0.00011,-0.00021,-8e-05,-5e-05,0,5,32
24058,2e-05,1e-05,-2e-05,-0.00011,-0.00021,-8e-05,-5e-05,0,5,32
24059,2e-05,1e-05,-2e-05,-0.00011,-0.00021,-8e-05,-5e-05,0,5,32
24060,2e-05,1e-05,-2e-05,-0.00011,-0.00021,-8e-05,-5e-05,0,5,32
24061,-0.00023,-0.00017,-2e-05,0.0001,0,4e-05,1e-05,-2e-05,5,32
24062,-0.00023,-0.00017,-2e-05,0.0001,0,4e-05,1e-05,-2e-05,5,32
24063,0.00017,0,-4e-05,-6e-05,-3e-05,-2e-05,-1e-05,-1e-05,5,32
24064,0.00017,0,-4e-05,-6e-05,-3e-05,-2e-05,-1e-05,-1e-05,5,32
24065,0.00017,0,-4e-05,-6e-05,-3e-05,-2e-05,-1e-05,-1e-05,5,32
24066,0.00017,0,-4e-05,-6e-05,-3e-05,-2e-05,-1e-05,-1e-05,5,32
24067,0.00017,0,-4e-05,-6e-05,-3e-05,-2e-05,-1e-05,-1e-05,5,32
24068,0.00017,0,-4e-05,-6e-05,-3e-05,-2e-05,-1e-05,-1e-05,5,32
24069,0.00017,0,-4e-05,-6e-05,-3e-05,-2e-05,-1e-05,-1e-05,5,32
24070,0.00017,0,-4e-05,-6e-05,-3e-05,-2e-05,-1e-05,-1e-05,5,32
24071,0.00017,0,-4e-05,-6e-05,-3e-05,-2e-05,-1e-05,-1e-05,5,32
24072,0.00017,0,-4e-05,-6e-05,-3e-05,-2e-05,-1e-05,-1e-05,5,32
24073,0.00017,0,-4e-05,-6e-05,-3e-05,-2e-05,-1e-05,-1e-05,5,32
24074,0.00017,0,-4e-05,-6e-05,-3e-05,-2e-05,-1e-05,-1e-05,5,32
24075,0.00017,0,-4e-05,-6e-05,-3e-05,-2e-05,-1e-05,-1e-05,5,32
24076,0.00017,0,-4e-05,-6e-05,-3e-05,-2e-05,-1e-05,-1e-05,5,32
24077,0.00017,0,-4e-05,-6e-05,-3e-05,-2e-05,-1e-05,-1e-05,5,32
24078,0.00014,6e-05,0.0001,0.00016,-9e-05,0.00015,-6e-05,1e-05,5,32
24080,0.00014,6e-05,0.0001,0.00016,-9e-05,0.00015,-6e-05,1e-05,5,32
24081,0.00014,6e-05,0.0001,0.00016,-9e-05,0.00015,-6e-05,1e-05,5,32
24082,0.00014,6e-05,0.0001,0.00016,-9e-05,0.00015,-6e-05,1e-05,5,32
24083,0.00014,6e-05,0.0001,0.00016,-9e-05,0.00015,-6e-05,1e-05,5,32
24084,0.00014,6e-05,0.0001,0.00016,-9e-05,0.00015,-6e-05,1e-05,5,32
24085,0.00014,6e-05,0.0001,0.00016,-9e-05,0.00015,-6e-05,1e-05,5,32
24086,0.00014,6e-05,0.0001,0.00016,-9e-05,0.00015,-6e-05,1e-05,5,32
24088,0.00014,6e-05,0.0001,0.00016,-9e-05,0.00015,-6e-05,1e-05,5,32
24089,0.00014,6e-05,0.0001,0.00016,-9e-05,0.00015,-6e-05,1e-05,5,32
24090,0.00014,6e-05,0.0001,0.00016,-9e-05,0.00015,-6e-05,1e-05,5,32
24091,0.00014,6e-05,0.0001,0.00016,-9e-05,0.00015,-6e-05,1e-05,5,32
24092,0.00014,6e-05,0.0001,0.00016,-9e-05,0.00015,-6e-05,1e-05,5,32
24093,0.00014,6e-05,0.0001,0.00016,-9e-05,0.00015,-6e-05,1e-05,5,32
24094,0.00014,6e-05,0.0001,0.00016,-9e-05,0.00015,-6e-05,1e-05,5,32
24095,0.00014,6e-05,0.0001,0.00016,-9e-05,0.00015,-6e-05,1e-05,5,32
24096,0.00014,6e-05,0.0001,0.00016,-9e-05,0.00015,-6e-05,1e-05,5,32
24097,0.00014,6e-05,0.0001,0.00016,-9e-05,0.00015,-6e-05,1e-05,5,32
24098,0.00014,6e-05,0.0001,0.00016,-9e-05,0.00015,-6e-05,1e-05,5,32
24099,3e-05,8e-05,0.00013,8e-05,0.00018,7e-05,-2e-05,-1e-05,5,32
24100,3e-05,8e-05,0.00013,8e-05,0.00018,7e-05,-2e-05,-1e-05,5,32
24101,-1e-05,8e-05,5e-05,-4e-05,-0.00056,-3e-05,-1e-05,-2e-05,5,32
24102,-1e-05,8e-05,5e-05,-4e-05,-0.00056,-3e-05,-1e-05,-2e-05,5,32
24103,-1e-05,8e-05,5e-05,-4e-05,-0.00056,-3e-05,-1e-05,-2e-05,5,32
24104,-1e-05,8e-05,5e-05,-4e-05,-0.00056,-3e-05,-1e-05,-2e-05,5,32
24105,-1e-05,8e-05,5e-05,-4e-05,-0.00056,-3e-05,-1e-05,-2e-05,5,32
24106,-1e-05,8e-05,5e-05,-4e-05,-0.00056,-3e-05,-1e-05,-2e-05,5,32
24107,-1e-05,8e-05,5e-05,-4e-05,-0.00056,-3e-05,-1e-05,-2e-05,5,32
24108,-1e-05,8e-05,5e-05,-4e-05,-0.00056,-3e-05,-1e-05,-2e-05,5,32
24109,-1e-05,8e-05,5e-05,-4e-05,-0.00056,-3e-05,-1e-05,-2e-05,5,32
24110,-1e-05,8e-05,5e-05,-4e-05,-0.00056,-3e-05,-1e-05,-2e-05,5,32
24111,-1e-05,8e-05,5e-05,-4e-05,-0.00056,-3e-05,-1e-05,-2e-05,5,32
24112,-1e-05,8e-05,5e-05,-4e-05,-0.00056,-3e-05,-1e-05,-2e-05,5,32
24113,-1e-05,8e-05,5e-05,-4e-05,-0.00056,-3e-05,-1e-05,-2e-05,5,32
24114,-1e-05,8e-05,5e-05,-4e-05,-0.00056,-3e-05,-1e-05,-2e-05,5,32
24115,-1e-05,8e-05,5e-05,-4e-05,-0.00056,-3e-05,-1e-05,-2e-05,5,32
24116,-1e-05,8e-05,5e-05,-4e-05,-0.00056,-3e-05,-1e-05,-2e-05,5,32
24117,-1e-05,8e-05,5e-05,-4e-05,-0.00056,-3e-05,-1e-05,-2e-05,5,32
24118,-1e-05,8e-05,5e-05,-4e-05,-0.00056,-3e-05,-1e-05,-2e-05,5,32
24119,-1e-05,8e-05,5e-05,-4e-05,-0.00056,-3e-05,-1e-05,-2e-05,5,32
24120,-1e-05,8e-05,5e-05,-4e-05,-0.00056,-3e-05,-1e-05,-2e-05,5,32
24121,2e-05,0,-2e-05,1e-05,0.00011,1e-05,-2e-05,0,5,32
24122,2e-05,0,-2e-05,1e-05,0.00011,1e-05,-2e-05,0,5,32
24123,-0.00013,-0.00013,-8e-05,-0.00014,-0.00041,-9e-05,0,-5e-05,5,32
24124,-0.00013,-0.00013,-8e-05,-0.00014,-0.00041,-9e-05,0,-5e-05,5,32
24125,-0.00013,-0.00013,-8e-05,-0.00014,-0.00041,-9e-05,0,-5e-05,5,32
24126,-0.00013,-0.00013,-8e-05,-0.00014,-0.00041,-9e-05,0,-5e-05,5,32
24127,-0.00013,-0.00013,-8e-05,-0.00014,-0.00041,-9e-05,0,-5e-05,5,32
24128,-0.00013,-0.00013,-8e-05,-0.00014,-0.00041,-9e-05,0,-5e-05,5,32
24129,-0.00013,-0.00013,-8e-05,-0.00014,-0.00041,-9e-05,0,-5e-05,5,32
24130,-0.00013,-0.00013,-8e-05,-0.00014,-0.00041,-9e-05,0,-5e-05,5,32
24131,-0.00013,-0.00013,-8e-05,-0.00014,-0.00041,-9e-05,0,-5e-05,5,32
24132,-0.00013,-0.00013,-8e-05,-0.00014,-0.00041,-9e-05,0,-5e-05,5,32
24133,-0.00013,-0.00013,-8e-05,-0.00014,-0.00041,-9e-05,0,-5e-05,5,32
24134,-0.00013,-0.00013,-8e-05,-0.00014,-0.00041,-9e-05,0,-5e-05,5,32
24135,-0.00013,-0.00013,-8e-05,-0.00014,-0.00041,-9e-05,0,-5e-05,5,32
24136,0.00012,8e-05,5e-05,-3e-05,2e-05,3e-05,3e-05,1e-05,5,32
24138,1e-05,-7e-05,-5e-05,-1e-05,0.00012,-0.0001,-2e-05,-1e-05,5,32
24140,1e-05,-7e-05,-5e-05,-1e-05,0.00012,-0.0001,-2e-05,-1e-05,5,32
24141,1e-05,-7e-05,-5e-05,-1e-05,0.00012,-0.0001,-2e-05,-1e-05,5,32
24142,1e-05,-7e-05,-5e-05,-1e-05,0.00012,-0.0001,-2e-05,-1e-05,5,32
24143,1e-05,-7e-05,-5e-05,-1e-05,0.00012,-0.0001,-2e-05,-1e-05,5,32
24144,1e-05,-7e-05,-5e-05,-1e-05,0.00012,-0.0001,-2e-05,-1e-05,5,32
24145,1e-05,-7e-05,-5e-05,-1e-05,0.00012,-0.0001,-2e-05,-1e-05,5,32
24146,1e-05,-7e-05,-5e-05,-1e-05,0.00012,-0.0001,-2e-05,-1e-05,5,32
24147,1e-05,-7e-05,-5e-05,-1e-05,0.00012,-0.0001,-2e-05,-1e-05,5,32
24148,1e-05,-7e-05,-5e-05,-1e-05,0.00012,-0.0001,-2e-05,-1e-05,5,32
24149,1e-05,-7e-05,-5e-05,-1e-05,0.00012,-0.0001,-2e-05,-1e-05,5,32
24150,1e-05,-7e-05,-5e-05,-1e-05,0.00012,-0.0001,-2e-05,-1e-05,5,32
24151,1e-05,-7e-05,-5e-05,-1e-05,0.00012,-0.0001,-2e-05,-1e-05,5,32
24152,1e-05,-7e-05,-5e-05,-1e-05,0.00012,-0.0001,-2e-05,-1e-05,5,32
24153,1e-05,-7e-05,-5e-05,-1e-05,0.00012,-0.0001,-2e-05,-1e-05,5,32
24154,1e-05,-7e-05,-5e-05,-1e-05,0.00012,-0.0001,-2e-05,-1e-05,5,32
24155,1e-05,-7e-05,-5e-05,-1e-05,0.00012,-0.0001,-2e-05,-1e-05,5,32
24156,1e-05,-7e-05,-5e-05,-1e-05,0.00012,-0.0001,-2e-05,-1e-05,5,32
24157,1e-05,-7e-05,-5e-05,-1e-05,0.00012,-0.0001,-2e-05,-1e-05,5,32
24158,-4e-05,-1e-05,0,-2e-05,-0.00025,-5e-05,-3e-05,-1e-05,5,32
24159,-4e-05,-1e-05,-4e-05,-2e-05,0.00023,3e-05,-1e-05,-1e-05,5,32
24160,-0.00029,-9e-05,0,8e-05,0.00032,9e-05,0,-3e-05,5,32
24161,-0.00029,-9e-05,0,8e-05,0.00032,9e-05,0,-3e-05,5,32
24162,-0.00029,-9e-05,0,8e-05,0.00032,9e-05,0,-3e-05,5,32
24163,-0.00029,-9e-05,0,8e-05,0.00032,9e-05,0,-3e-05,5,32
24164,-0.00029,-9e-05,0,8e-05,0.00032,9e-05,0,-3e-05,5,32
24165,-0.00029,-9e-05,0,8e-05,0.00032,9e-05,0,-3e-05,5,32
24166,-0.00029,-9e-05,0,8e-05,0.00032,9e-05,0,-3e-05,5,32
24167,-0.00029,-9e-05,0,8e-05,0.00032,9e-05,0,-3e-05,5,32
24168,-0.00029,-9e-05,0,8e-05,0.00032,9e-05,0,-3e-05,5,32
24169,-0.00029,-9e-05,0,8e-05,0.00032,9e-05,0,-3e-05,5,32
24170,-0.00029,-9e-05,0,8e-05,0.00032,9e-05,0,-3e-05,5,32
24171,-0.00029,-9e-05,0,8e-05,0.00032,9e-05,0,-3e-05,5,32
24172,-0.00029,-9e-05,0,8e-05,0.00032,9e-05,0,-3e-05,5,32
24173,-0.00029,-9e-05,0,8e-05,0.00032,9e-05,0,-3e-05,5,32
24174,-0.00029,-9e-05,0,8e-05,0.00032,9e-05,0,-3e-05,5,32
24175,-0.00029,-9e-05,0,8e-05,0.00032,9e-05,0,-3e-05,5,32
24176,-0.00029,-9e-05,0,8e-05,0.00032,9e-05,0,-3e-05,5,32
24177,-0.00029,-9e-05,0,8e-05,0.00032,9e-05,0,-3e-05,5,32
24178,-0.00029,-9e-05,0,8e-05,0.00032,9e-05,0,-3e-05,5,32
24179,-0.00029,-9e-05,0,8e-05,0.00032,9e-05,0,-3e-05,5,32
24180,-0.00029,-9e-05,0,8e-05,0.00032,9e-05,0,-3e-05,5,32
24181,-0.00016,-9e-05,-0.00013,-8e-05,1e-05,3e-05,-1e-05,0,5,32
24182,-0.00016,-9e-05,-0.00013,-8e-05,1e-05,3e-05,-1e-05,0,5,32
24183,-1e-05,-1e-05,4e-05,0.00015,0.00032,-4e-05,-1e-05,1e-05,5,32
24184,-1e-05,-1e-05,4e-05,0.00015,0.00032,-4e-05,-1e-05,1e-05,5,32
24185,-1e-05,-1e-05,4e-05,0.00015,0.00032,-4e-05,-1e-05,1e-05,5,32
24186,-1e-05,-1e-05,4e-05,0.00015,0.00032,-4e-05,-1e-05,1e-05,5,32
24188,-1e-05,-1e-05,4e-05,0.00015,0.00032,-4e-05,-1e-05,1e-05,5,32
24189,-1e-05,-1e-05,4e-05,0.00015,0.00032,-4e-05,-1e-05,1e-05,5,32
24190,-1e-05,-1e-05,4e-05,0.00015,0.00032,-4e-05,-1e-05,1e-05,5,32
24191,-1e-05,-1e-05,4e-05,0.00015,0.00032,-4e-05,-1e-05,1e-05,5,32
24192,-1e-05,-1e-05,4e-05,0.00015,0.00032,-4e-05,-1e-05,1e-05,5,32
24193,-1e-05,-1e-05,4e-05,0.00015,0.00032,-4e-05,-1e-05,1e-05,5,32
24194,-1e-05,-1e-05,4e-05,0.00015,0.00032,-4e-05,-1e-05,1e-05,5,32
24195,-1e-05,-1e-05,4e-05,0.00015,0.00032,-4e-05,-1e-05,1e-05,5,32
24196,-6e-05,3e-05,3e-05,8e-05,0.00023,1e-05,-2e-05,-4e-05,5,32
24197,-6e-05,3e-05,3e-05,8e-05,0.00023,1e-05,-2e-05,-4e-05,5,32
24198,-6e-05,3e-05,3e-05,8e-05,0.00023,1e-05,-2e-05,-4e-05,5,32
24199,-6e-05,3e-05,3e-05,8e-05,0.00023,1e-05,-2e-05,-4e-05,5,32
24200,-6e-05,3e-05,3e-05,8e-05,0.00023,1e-05,-2e-05,-4e-05,5,32
24201,-6e-05,3e-05,3e-05,8e-05,0.00023,1e-05,-2e-05,-4e-05,5,32
24202,-6e-05,3e-05,3e-05,8e-05,0.00023,1e-05,-2e-05,-4e-05,5,32
24203,-6e-05,3e-05,3e-05,8e-05,0.00023,1e-05,-2e-05,-4e-05,5,32
24204,3e-05,-7e-05,-0.00011,-0.00014,-2e-05,3e-05,3e-05,0,5,32
24205,3e-05,-7e-05,-0.00011,-0.00014,-2e-05,3e-05,3e-05,0,5,32
24206,3e-05,-7e-05,-0.00011,-0.00014,-2e-05,3e-05,3e-05,0,5,32
24207,3e-05,-7e-05,-0.00011,-0.00014,-2e-05,3e-05,3e-05,0,5,32
24208,3e-05,-7e-05,-0.00011,-0.00014,-2e-05,3e-05,3e-05,0,5,32
24209,3e-05,-7e-05,-0.00011,-0.00014,-2e-05,3e-05,3e-05,0,5,32
24210,3e-05,-7e-05,-0.00011,-0.00014,-2e-05,3e-05,3e-05,0,5,32
24211,3e-05,-7e-05,-0.00011,-0.00014,-2e-05,3e-05,3e-05,0,5,32
24212,3e-05,-7e-05,-0.00011,-0.00014,-2e-05,3e-05,3e-05,0,5,32
24213,3e-05,-7e-05,-0.00011,-0.00014,-2e-05,3e-05,3e-05,0,5,32
24214,3e-05,-7e-05,-0.00011,-0.00014,-2e-05,3e-05,3e-05,0,5,32
24215,3e-05,-7e-05,-0.00011,-0.00014,-2e-05,3e-05,3e-05,0,5,32
24216,3e-05,-7e-05,-0.00011,-0.00014,-2e-05,3e-05,3e-05,0,5,32
24217,3e-05,-7e-05,-0.00011,-0.00014,-2e-05,3e-05,3e-05,0,5,32
24218,3e-05,-1e-05,-4e-05,8e-05,0.00019,6e-05,5e-05,1e-05,5,32
24219,1e-05,5e-05,5e-05,4e-05,-0.00017,-0.00011,-4e-05,-1e-05,5,32
24220,7e-05,-1e-05,5e-05,0.00014,0.00016,0.00019,-1e-05,0,5,32
24221,7e-05,-1e-05,5e-05,0.00014,0.00016,0.00019,-1e-05,0,5,32
24222,7e-05,-1e-05,5e-05,0.00014,0.00016,0.00019,-1e-05,0,5,32
24223,7e-05,-1e-05,5e-05,0.00014,0.00016,0.00019,-1e-05,0,5,32
24224,7e-05,-1e-05,5e-05,0.00014,0.00016,0.00019,-1e-05,0,5,32
24225,7e-05,-1e-05,5e-05,0.00014,0.00016,0.00019,-1e-05,0,5,32
24226,7e-05,-1e-05,5e-05,0.00014,0.00016,0.00019,-1e-05,0,5,32
24227,7e-05,-1e-05,5e-05,0.00014,0.00016,0.00019,-1e-05,0,5,32
24228,7e-05,-1e-05,5e-05,0.00014,0.00016,0.00019,-1e-05,0,5,32
24229,7e-05,-1e-05,5e-05,0.00014,0.00016,0.00019,-1e-05,0,5,32
24230,7e-05,-1e-05,5e-05,0.00014,0.00016,0.00019,-1e-05,0,5,32
24231,7e-05,-1e-05,5e-05,0.00014,0.00016,0.00019,-1e-05,0,5,32
24232,1e-05,-3e-05,-1e-05,0,0.00048,6e-05,2e-05,-1e-05,5,32
24233,1e-05,-3e-05,-1e-05,0,0.00048,6e-05,2e-05,-1e-05,5,32
24234,1e-05,-3e-05,-1e-05,0,0.00048,6e-05,2e-05,-1e-05,5,32
24235,1e-05,-3e-05,-1e-05,0,0.00048,6e-05,2e-05,-1e-05,5,32
24236,1e-05,-3e-05,-1e-05,0,0.00048,6e-05,2e-05,-1e-05,5,32
24238,1e-05,-3e-05,-1e-05,0,0.00048,6e-05,2e-05,-1e-05,5,32
24239,1e-05,-3e-05,-1e-05,0,0.00048,6e-05,2e-05,-1e-05,5,32
24240,1e-05,-3e-05,-1e-05,0,0.00048,6e-05,2e-05,-1e-05,5,32
24241,1e-05,-3e-05,-1e-05,0,0.00048,6e-05,2e-05,-1e-05,5,32
24242,-0.00012,-8e-05,0,-3e-05,-0.0002,-7e-05,-9e-05,-4e-05,5,32
24243,-0.00012,-8e-05,0,-3e-05,-0.0002,-7e-05,-9e-05,-4e-05,5,32
24244,-0.00012,-8e-05,0,-3e-05,-0.0002,-7e-05,-9e-05,-4e-05,5,32
24245,-0.00012,-8e-05,0,-3e-05,-0.0002,-7e-05,-9e-05,-4e-05,5,32
24246,-0.00012,-8e-05,0,-3e-05,-0.0002,-7e-05,-9e-05,-4e-05,5,32
24247,-0.00012,-8e-05,0,-3e-05,-0.0002,-7e-05,-9e-05,-4e-05,5,32
24248,-0.00012,-8e-05,0,-3e-05,-0.0002,-7e-05,-9e-05,-4e-05,5,32
24249,-0.00012,-8e-05,0,-3e-05,-0.0002,-7e-05,-9e-05,-4e-05,5,32
24250,-0.00012,-8e-05,0,-3e-05,-0.0002,-7e-05,-9e-05,-4e-05,5,32
24251,-0.00012,-8e-05,0,-3e-05,-0.0002,-7e-05,-9e-05,-4e-05,5,32
24252,-0.00012,-8e-05,0,-3e-05,-0.0002,-7e-05,-9e-05,-4e-05,5,32
24253,-0.00012,-8e-05,0,-3e-05,-0.0002,-7e-05,-9e-05,-4e-05,5,32
24254,-0.00012,-8e-05,0,-3e-05,-0.0002,-7e-05,-9e-05,-4e-05,5,32
24255,-0.00012,-8e-05,0,-3e-05,-0.0002,-7e-05,-9e-05,-4e-05,5,32
24256,0.00013,-3e-05,-0.00014,-0.00017,-0.00011,1e-05,-5e-05,-5e-05,5,32
24257,0.00013,-3e-05,-0.00014,-0.00017,-0.00011,1e-05,-5e-05,-5e-05,5,32
24258,0.00013,-3e-05,-0.00014,-0.00017,-0.00011,1e-05,-5e-05,-5e-05,5,32
24259,0.00013,-3e-05,-0.00014,-0.00017,-0.00011,1e-05,-5e-05,-5e-05,5,32
24260,0.00013,-3e-05,-0.00014,-0.00017,-0.00011,1e-05,-5e-05,-5e-05,5,32
24261,0.00013,-3e-05,-0.00014,-0.00017,-0.00011,1e-05,-5e-05,-5e-05,5,32
24262,-1e-05,-4e-05,-3e-05,9e-05,0.00073,-0.00011,-3e-05,0,5,32
24263,-1e-05,-4e-05,-3e-05,9e-05,0.00073,-0.00011,-3e-05,0,5,32
24264,-1e-05,-4e-05,-3e-05,9e-05,0.00073,-0.00011,-3e-05,0,5,32
24265,-1e-05,-4e-05,-3e-05,9e-05,0.00073,-0.00011,-3e-05,0,5,32
24266,-1e-05,-4e-05,-3e-05,9e-05,0.00073,-0.00011,-3e-05,0,5,32
24267,-1e-05,-4e-05,-3e-05,9e-05,0.00073,-0.00011,-3e-05,0,5,32
24268,-1e-05,-4e-05,-3e-05,9e-05,0.00073,-0.00011,-3e-05,0,5,32
24269,-1e-05,-4e-05,-3e-05,9e-05,0.00073,-0.00011,-3e-05,0,5,32
24270,-1e-05,-4e-05,-3e-05,9e-05,0.00073,-0.00011,-3e-05,0,5,32
24271,-1e-05,-4e-05,-3e-05,9e-05,0.00073,-0.00011,-3e-05,0,5,32
24272,-1e-05,-4e-05,-3e-05,9e-05,0.00073,-0.00011,-3e-05,0,5,32
24273,-1e-05,-4e-05,-3e-05,9e-05,0.00073,-0.00011,-3e-05,0,5,32
24274,-1e-05,-4e-05,-3e-05,9e-05,0.00073,-0.00011,-3e-05,0,5,32
24275,-1e-05,-4e-05,-3e-05,9e-05,0.00073,-0.00011,-3e-05,0,5,32
24276,-1e-05,-4e-05,-3e-05,9e-05,0.00073,-0.00011,-3e-05,0,5,32
24277,-1e-05,-4e-05,-3e-05,9e-05,0.00073,-0.00011,-3e-05,0,5,32
24278,-1e-05,-4e-05,-3e-05,9e-05,0.00073,-0.00011,-3e-05,0,5,32
24279,0,1e-05,1e-05,0,-0.00012,-0.00012,-1e-05,-1e-05,5,32
24280,0,1e-05,1e-05,0,-0.00012,-0.00012,-1e-05,-1e-05,5,32
24281,3e-05,-1e-05,-7e-05,-9e-05,-0.00075,0.00011,3e-05,-1e-05,5,32
24282,3e-05,-1e-05,-7e-05,-9e-05,-0.00075,0.00011,3e-05,-1e-05,5,32
24283,3e-05,-1e-05,-7e-05,-9e-05,-0.00075,0.00011,3e-05,-1e-05,5,32
24284,3e-05,-1e-05,-7e-05,-9e-05,-0.00075,0.00011,3e-05,-1e-05,5,32
24285,3e-05,-1e-05,-7e-05,-9e-05,-0.00075,0.00011,3e-05,-1e-05,5,32
24286,3e-05,-1e-05,-7e-05,-9e-05,-0.00075,0.00011,3e-05,-1e-05,5,32
24288,3e-05,-1e-05,-7e-05,-9e-05,-0.00075,0.00011,3e-05,-1e-05,5,32
24289,3e-05,-1e-05,-7e-05,-9e-05,-0.00075,0.00011,3e-05,-1e-05,5,32
24290,3e-05,-1e-05,-7e-05,-9e-05,-0.00075,0.00011,3e-05,-1e-05,5,32
24291,3e-05,-1e-05,-7e-05,-9e-05,-0.00075,0.00011,3e-05,-1e-05,5,32
24292,3e-05,-1e-05,-7e-05,-9e-05,-0.00075,0.00011,3e-05,-1e-05,5,32
24293,3e-05,-1e-05,-7e-05,-9e-05,-0.00075,0.00011,3e-05,-1e-05,5,32
24294,3e-05,-1e-05,-7e-05,-9e-05,-0.00075,0.00011,3e-05,-1e-05,5,32
24295,3e-05,-1e-05,-7e-05,-9e-05,-0.00075,0.00011,3e-05,-1e-05,5,32
24296,3e-05,-1e-05,-7e-05,-9e-05,-0.00075,0.00011,3e-05,-1e-05,5,32
24297,3e-05,-1e-05,-7e-05,-9e-05,-0.00075,0.00011,3e-05,-1e-05,5,32
24298,3e-05,-1e-05,-7e-05,-9e-05,-0.00075,0.00011,3e-05,-1e-05,5,32
24299,3e-05,-1e-05,-7e-05,-9e-05,-0.00075,0.00011,3e-05,-1e-05,5,32
24300,3e-05,-1e-05,-7e-05,-9e-05,-0.00075,0.00011,3e-05,-1e-05,5,32
24301,0.00011,-6e-05,2e-05,8e-05,-0.00013,-2e-05,2e-05,4e-05,5,32
24302,0.00011,-6e-05,2e-05,8e-05,-0.00013,-2e-05,2e-05,4e-05,5,32
24303,1e-05,6e-05,-1e-05,-6e-05,1e-05,-0.0001,-2e-05,-2e-05,5,32
24304,1e-05,6e-05,-1e-05,-6e-05,1e-05,-0.0001,-2e-05,-2e-05,5,32
24305,1e-05,6e-05,-1e-05,-6e-05,1e-05,-0.0001,-2e-05,-2e-05,5,32
24306,1e-05,6e-05,-1e-05,-6e-05,1e-05,-0.0001,-2e-05,-2e-05,5,32
24307,1e-05,6e-05,-1e-05,-6e-05,1e-05,-0.0001,-2e-05,-2e-05,5,32
24308,1e-05,6e-05,-1e-05,-6e-05,1e-05,-0.0001,-2e-05,-2e-05,5,32
24309,1e-05,6e-05,-1e-05,-6e-05,1e-05,-0.0001,-2e-05,-2e-05,5,32
24310,1e-05,6e-05,-1e-05,-6e-05,1e-05,-0.0001,-2e-05,-2e-05,5,32
24311,1e-05,6e-05,-1e-05,-6e-05,1e-05,-0.0001,-2e-05,-2e-05,5,32
24312,1e-05,6e-05,-1e-05,-6e-05,1e-05,-0.0001,-2e-05,-2e-05,5,32
24313,1e-05,6e-05,-1e-05,-6e-05,1e-05,-0.0001,-2e-05,-2e-05,5,32
24314,1e-05,6e-05,-1e-05,-6e-05,1e-05,-0.0001,-2e-05,-2e-05,5,32
24315,1e-05,6e-05,-1e-05,-6e-05,1e-05,-0.0001,-2e-05,-2e-05,5,32
24316,-3e-05,-6e-05,2e-05,4e-05,0,-6e-05,1e-05,-1e-05,5,32
24317,3e-05,3e-05,-6e-05,-0.00016,-0.00023,-0.0001,-3e-05,0,5,32
24318,3e-05,3e-05,-6e-05,-0.00016,-0.00023,-0.0001,-3e-05,0,5,32
24319,3e-05,3e-05,-6e-05,-0.00016,-0.00023,-0.0001,-3e-05,0,5,32
24320,3e-05,3e-05,-6e-05,-0.00016,-0.00023,-0.0001,-3e-05,0,5,32
24321,3e-05,3e-05,-6e-05,-0.00016,-0.00023,-0.0001,-3e-05,0,5,32
24322,3e-05,3e-05,-6e-05,-0.00016,-0.00023,-0.0001,-3e-05,0,5,32
24323,3e-05,3e-05,-6e-05,-0.00016,-0.00023,-0.0001,-3e-05,0,5,32
24324,3e-05,3e-05,-6e-05,-0.00016,-0.00023,-0.0001,-3e-05,0,5,32
24325,3e-05,3e-05,-6e-05,-0.00016,-0.00023,-0.0001,-3e-05,0,5,32
24326,3e-05,3e-05,-6e-05,-0.00016,-0.00023,-0.0001,-3e-05,0,5,32
24327,3e-05,3e-05,-6e-05,-0.00016,-0.00023,-0.0001,-3e-05,0,5,32
24328,3e-05,3e-05,-6e-05,-0.00016,-0.00023,-0.0001,-3e-05,0,5,32
24329,3e-05,3e-05,-6e-05,-0.00016,-0.00023,-0.0001,-3e-05,0,5,32
24330,3e-05,3e-05,-6e-05,-0.00016,-0.00023,-0.0001,-3e-05,0,5,32
24331,3e-05,3e-05,-6e-05,-0.00016,-0.00023,-0.0001,-3e-05,0,5,32
24332,3e-05,3e-05,-6e-05,-0.00016,-0.00023,-0.0001,-3e-05,0,5,32
24333,3e-05,3e-05,-6e-05,-0.00016,-0.00023,-0.0001,-3e-05,0,5,32
24334,3e-05,3e-05,-6e-05,-0.00016,-0.00023,-0.0001,-3e-05,0,5,32
24335,3e-05,3e-05,-6e-05,-0.00016,-0.00023,-0.0001,-3e-05,0,5,32
24336,3e-05,3e-05,-6e-05,-0.00016,-0.00023,-0.0001,-3e-05,0,5,32
24338,3e-05,3e-05,-6e-05,-0.00016,-0.00023,-0.0001,-3e-05,0,5,32
24339,2e-05,9e-05,2e-05,-4e-05,-0.0002,-4e-05,2e-05,1e-05,5,32
24340,2e-05,9e-05,2e-05,-4e-05,-0.0002,-4e-05,2e-05,1e-05,5,32
24341,2e-05,9e-05,2e-05,-4e-05,-0.0002,-4e-05,2e-05,1e-05,5,32
24342,2e-05,9e-05,2e-05,-4e-05,-0.0002,-4e-05,2e-05,1e-05,5,32
24343,2e-05,9e-05,2e-05,-4e-05,-0.0002,-4e-05,2e-05,1e-05,5,32
24344,2e-05,9e-05,2e-05,-4e-05,-0.0002,-4e-05,2e-05,1e-05,5,32
24345,2e-05,9e-05,2e-05,-4e-05,-0.0002,-4e-05,2e-05,1e-05,5,32
24346,2e-05,9e-05,2e-05,-4e-05,-0.0002,-4e-05,2e-05,1e-05,5,32
24347,2e-05,9e-05,2e-05,-4e-05,-0.0002,-4e-05,2e-05,1e-05,5,32
24348,2e-05,9e-05,2e-05,-4e-05,-0.0002,-4e-05,2e-05,1e-05,5,32
24349,2e-05,9e-05,2e-05,-4e-05,-0.0002,-4e-05,2e-05,1e-05,5,32
24350,2e-05,9e-05,2e-05,-4e-05,-0.0002,-4e-05,2e-05,1e-05,5,32
24351,2e-05,9e-05,2e-05,-4e-05,-0.0002,-4e-05,2e-05,1e-05,5,32
24352,2e-05,9e-05,2e-05,-4e-05,-0.0002,-4e-05,2e-05,1e-05,5,32
24353,2e-05,9e-05,2e-05,-4e-05,-0.0002,-4e-05,2e-05,1e-05,5,32
24354,2e-05,9e-05,2e-05,-4e-05,-0.0002,-4e-05,2e-05,1e-05,5,32
24355,2e-05,9e-05,2e-05,-4e-05,-0.0002,-4e-05,2e-05,1e-05,5,32
24356,2e-05,9e-05,2e-05,-4e-05,-0.0002,-4e-05,2e-05,1e-05,5,32
24357,2e-05,9e-05,2e-05,-4e-05,-0.0002,-4e-05,2e-05,1e-05,5,32
24358,2e-05,9e-05,2e-05,-4e-05,-0.0002,-4e-05,2e-05,1e-05,5,32
24359,2e-05,9e-05,2e-05,-4e-05,-0.0002,-4e-05,2e-05,1e-05,5,32
24360,-2e-05,-8e-05,-9e-05,-0.0001,-5e-05,-2e-05,-1e-05,-2e-05,5,32
24361,2e-05,-2e-05,-0.00014,-0.00019,-0.00066,-0.00016,9e-05,-2e-05,5,32
24362,-7e-05,-7e-05,-5e-05,-3e-05,5e-05,-3e-05,-2e-05,0,5,32
24363,-7e-05,-7e-05,-5e-05,-3e-05,5e-05,-3e-05,-2e-05,0,5,32
24364,-7e-05,-7e-05,-5e-05,-3e-05,5e-05,-3e-05,-2e-05,0,5,32
24365,-7e-05,-7e-05,-5e-05,-3e-05,5e-05,-3e-05,-2e-05,0,5,32
24366,-7e-05,-7e-05,-5e-05,-3e-05,5e-05,-3e-05,-2e-05,0,5,32
24367,-7e-05,-7e-05,-5e-05,-3e-05,5e-05,-3e-05,-2e-05,0,5,32
24368,-7e-05,-7e-05,-5e-05,-3e-05,5e-05,-3e-05,-2e-05,0,5,32
24369,-7e-05,-7e-05,-5e-05,-3e-05,5e-05,-3e-05,-2e-05,0,5,32
24370,-7e-05,-7e-05,-5e-05,-3e-05,5e-05,-3e-05,-2e-05,0,5,32
24371,-7e-05,-7e-05,-5e-05,-3e-05,5e-05,-3e-05,-2e-05,0,5,32
24372,-7e-05,-7e-05,-5e-05,-3e-05,5e-05,-3e-05,-2e-05,0,5,32
24373,-7e-05,-7e-05,-5e-05,-3e-05,5e-05,-3e-05,-2e-05,0,5,32
24374,-7e-05,-7e-05,-5e-05,-3e-05,5e-05,-3e-05,-2e-05,0,5,32
24375,4e-05,-3e-05,-8e-05,-7e-05,-4e-05,-0.0001,-3e-05,-3e-05,5,32
24376,0,-2e-05,0,4e-05,0.00039,-7e-05,1e-05,-1e-05,5,32
24377,0,-2e-05,0,4e-05,0.00039,-7e-05,1e-05,-1e-05,5,32
24378,0,-2e-05,0,4e-05,0.00039,-7e-05,1e-05,-1e-05,5,32
24379,0,-2e-05,0,4e-05,0.00039,-7e-05,1e-05,-1e-05,5,32
24380,0,-2e-05,0,4e-05,0.00039,-7e-05,1e-05,-1e-05,5,32
24381,0,-2e-05,0,4e-05,0.00039,-7e-05,1e-05,-1e-05,5,32
24382,0,-2e-05,0,4e-05,0.00039,-7e-05,1e-05,-1e-05,5,32
24383,0,-2e-05,0,4e-05,0.00039,-7e-05,1e-05,-1e-05,5,32
24384,0,-2e-05,0,4e-05,0.00039,-7e-05,1e-05,-1e-05,5,32
24385,0,-2e-05,0,4e-05,0.00039,-7e-05,1e-05,-1e-05,5,32
24386,0,-2e-05,0,4e-05,0.00039,-7e-05,1e-05,-1e-05,5,32
24388,0,-2e-05,0,4e-05,0.00039,-7e-05,1e-05,-1e-05,5,32
24389,0,-2e-05,0,4e-05,0.00039,-7e-05,1e-05,-1e-05,5,32
24390,0,-2e-05,0,4e-05,0.00039,-7e-05,1e-05,-1e-05,5,32
24391,0,-2e-05,0,4e-05,0.00039,-7e-05,1e-05,-1e-05,5,32
24392,0,-2e-05,0,4e-05,0.00039,-7e-05,1e-05,-1e-05,5,32
24393,0,-2e-05,0,4e-05,0.00039,-7e-05,1e-05,-1e-05,5,32
24394,0,-2e-05,0,4e-05,0.00039,-7e-05,1e-05,-1e-05,5,32
24395,0,-2e-05,0,4e-05,0.00039,-7e-05,1e-05,-1e-05,5,32
24396,0,-2e-05,0,4e-05,0.00039,-7e-05,1e-05,-1e-05,5,32
24397,0,-2e-05,0,4e-05,0.00039,-7e-05,1e-05,-1e-05,5,32
24398,-7e-05,-5e-05,-7e-05,-9e-05,0.0002,-9e-05,-8e-05,-4e-05,5,32
24399,1e-05,3e-05,2e-05,-5e-05,-0.0006,4e-05,1e-05,-3e-05,5,32
24400,1e-05,3e-05,2e-05,-5e-05,-0.0006,4e-05,1e-05,-3e-05,5,32
24401,1e-05,3e-05,2e-05,-5e-05,-0.0006,4e-05,1e-05,-3e-05,5,32
24402,1e-05,3e-05,2e-05,-5e-05,-0.0006,4e-05,1e-05,-3e-05,5,32
24403,1e-05,3e-05,2e-05,-5e-05,-0.0006,4e-05,1e-05,-3e-05,5,32
24404,1e-05,3e-05,2e-05,-5e-05,-0.0006,4e-05,1e-05,-3e-05,5,32
24405,1e-05,3e-05,2e-05,-5e-05,-0.0006,4e-05,1e-05,-3e-05,5,32
24406,1e-05,3e-05,2e-05,-5e-05,-0.0006,4e-05,1e-05,-3e-05,5,32
24407,1e-05,3e-05,2e-05,-5e-05,-0.0006,4e-05,1e-05,-3e-05,5,32
24408,1e-05,3e-05,2e-05,-5e-05,-0.0006,4e-05,1e-05,-3e-05,5,32
24409,1e-05,3e-05,2e-05,-5e-05,-0.0006,4e-05,1e-05,-3e-05,5,32
24410,1e-05,3e-05,2e-05,-5e-05,-0.0006,4e-05,1e-05,-3e-05,5,32
24411,1e-05,3e-05,2e-05,-5e-05,-0.0006,4e-05,1e-05,-3e-05,5,32
24412,1e-05,3e-05,2e-05,-5e-05,-0.0006,4e-05,1e-05,-3e-05,5,32
24413,1e-05,3e-05,2e-05,-5e-05,-0.0006,4e-05,1e-05,-3e-05,5,32
24414,1e-05,3e-05,2e-05,-5e-05,-0.0006,4e-05,1e-05,-3e-05,5,32
24415,1e-05,3e-05,2e-05,-5e-05,-0.0006,4e-05,1e-05,-3e-05,5,32
24416,1e-05,3e-05,2e-05,-5e-05,-0.0006,4e-05,1e-05,-3e-05,5,32
24417,1e-05,3e-05,2e-05,-5e-05,-0.0006,4e-05,1e-05,-3e-05,5,32
24418,1e-05,3e-05,2e-05,-5e-05,-0.0006,4e-05,1e-05,-3e-05,5,32
24419,1e-05,3e-05,2e-05,-5e-05,-0.0006,4e-05,1e-05,-3e-05,5,32
24420,-3e-05,3e-05,8e-05,2e-05,-0.00032,0,-1e-05,1e-05,5,32
24421,1e-05,0,1e-05,-3e-05,9e-05,-0.0001,-6e-05,-3e-05,5,32
24422,1e-05,0,1e-05,-3e-05,9e-05,-0.0001,-6e-05,-3e-05,5,32
24423,1e-05,0,1e-05,-3e-05,9e-05,-0.0001,-6e-05,-3e-05,5,32
24424,1e-05,0,1e-05,-3e-05,9e-05,-0.0001,-6e-05,-3e-05,5,32
24425,1e-05,0,1e-05,-3e-05,9e-05,-0.0001,-6e-05,-3e-05,5,32
24426,1e-05,0,1e-05,-3e-05,9e-05,-0.0001,-6e-05,-3e-05,5,32
24427,1e-05,0,1e-05,-3e-05,9e-05,-0.0001,-6e-05,-3e-05,5,32
24428,1e-05,0,1e-05,-3e-05,9e-05,-0.0001,-6e-05,-3e-05,5,32
24429,1e-05,0,1e-05,-3e-05,9e-05,-0.0001,-6e-05,-3e-05,5,32
24430,1e-05,0,1e-05,-3e-05,9e-05,-0.0001,-6e-05,-3e-05,5,32
24431,1e-05,0,1e-05,-3e-05,9e-05,-0.0001,-6e-05,-3e-05,5,32
24432,1e-05,0,1e-05,-3e-05,9e-05,-0.0001,-6e-05,-3e-05,5,32
24433,1e-05,0,1e-05,-3e-05,9e-05,-0.0001,-6e-05,-3e-05,5,32
24434,1e-05,0,1e-05,-3e-05,9e-05,-0.0001,-6e-05,-3e-05,5,32
24435,1e-05,0,1e-05,-3e-05,9e-05,-0.0001,-6e-05,-3e-05,5,32
24436,1e-05,0,1e-05,-3e-05,9e-05,-0.0001,-6e-05,-3e-05,5,32
24439,-4e-05,1e-05,0,6e-05,-0.0002,0.00018,1e-05,-3e-05,5,32
24440,-4e-05,1e-05,0,6e-05,-0.0002,0.00018,1e-05,-3e-05,5,32
24441,-4e-05,1e-05,0,6e-05,-0.0002,0.00018,1e-05,-3e-05,5,32
24442,-4e-05,1e-05,0,6e-05,-0.0002,0.00018,1e-05,-3e-05,5,32
24443,-4e-05,1e-05,0,6e-05,-0.0002,0.00018,1e-05,-3e-05,5,32
24444,-4e-05,1e-05,0,6e-05,-0.0002,0.00018,1e-05,-3e-05,5,32
24445,-4e-05,1e-05,0,6e-05,-0.0002,0.00018,1e-05,-3e-05,5,32
24446,-4e-05,1e-05,0,6e-05,-0.0002,0.00018,1e-05,-3e-05,5,32
24447,-4e-05,1e-05,0,6e-05,-0.0002,0.00018,1e-05,-3e-05,5,32
24448,-4e-05,1e-05,0,6e-05,-0.0002,0.00018,1e-05,-3e-05,5,32
24449,-4e-05,1e-05,0,6e-05,-0.0002,0.00018,1e-05,-3e-05,5,32
24450,-4e-05,1e-05,0,6e-05,-0.0002,0.00018,1e-05,-3e-05,5,32
24451,-4e-05,1e-05,0,6e-05,-0.0002,0.00018,1e-05,-3e-05,5,32
24452,-4e-05,1e-05,0,6e-05,-0.0002,0.00018,1e-05,-3e-05,5,32
24453,-4e-05,1e-05,0,6e-05,-0.0002,0.00018,1e-05,-3e-05,5,32
24454,-4e-05,1e-05,0,6e-05,-0.0002,0.00018,1e-05,-3e-05,5,32
24455,-4e-05,1e-05,0,6e-05,-0.0002,0.00018,1e-05,-3e-05,5,32
24456,-4e-05,1e-05,0,6e-05,-0.0002,0.00018,1e-05,-3e-05,5,32
24457,-4e-05,1e-05,0,6e-05,-0.0002,0.00018,1e-05,-3e-05,5,32
24458,-3e-05,4e-05,-1e-05,0.0001,0.00021,-1e-05,-6e-05,-3e-05,5,32
24459,-9e-05,-0.00014,-0.0001,0.00013,2e-05,-7e-05,0,-1e-05,5,32
24460,-9e-05,-0.00014,-0.0001,0.00013,2e-05,-7e-05,0,-1e-05,5,32
24461,-9e-05,-0.00014,-0.0001,0.00013,2e-05,-7e-05,0,-1e-05,5,32
24462,-9e-05,-0.00014,-0.0001,0.00013,2e-05,-7e-05,0,-1e-05,5,32
24463,-9e-05,-0.00014,-0.0001,0.00013,2e-05,-7e-05,0,-1e-05,5,32
24464,-9e-05,-0.00014,-0.0001,0.00013,2e-05,-7e-05,0,-1e-05,5,32
24465,-9e-05,-0.00014,-0.0001,0.00013,2e-05,-7e-05,0,-1e-05,5,32
24466,-9e-05,-0.00014,-0.0001,0.00013,2e-05,-7e-05,0,-1e-05,5,32
24467,-9e-05,-0.00014,-0.0001,0.00013,2e-05,-7e-05,0,-1e-05,5,32
24468,-9e-05,-0.00014,-0.0001,0.00013,2e-05,-7e-05,0,-1e-05,5,32
24469,-9e-05,-0.00014,-0.0001,0.00013,2e-05,-7e-05,0,-1e-05,5,32
24470,-9e-05,-0.00014,-0.0001,0.00013,2e-05,-7e-05,0,-1e-05,5,32
24471,-9e-05,-0.00014,-0.0001,0.00013,2e-05,-7e-05,0,-1e-05,5,32
24472,-9e-05,-0.00014,-0.0001,0.00013,2e-05,-7e-05,0,-1e-05,5,32
24473,-9e-05,-0.00014,-0.0001,0.00013,2e-05,-7e-05,0,-1e-05,5,32
24474,-9e-05,-0.00014,-0.0001,0.00013,2e-05,-7e-05,0,-1e-05,5,32
24475,-9e-05,-0.00014,-0.0001,0.00013,2e-05,-7e-05,0,-1e-05,5,32
24476,-9e-05,-0.00014,-0.0001,0.00013,2e-05,-7e-05,0,-1e-05,5,32
24477,-9e-05,-0.00014,-0.0001,0.00013,2e-05,-7e-05,0,-1e-05,5,32
24478,-9e-05,-0.00014,-0.0001,0.00013,2e-05,-7e-05,0,-1e-05,5,32
24479,-9e-05,-0.00014,-0.0001,0.00013,2e-05,-7e-05,0,-1e-05,5,32
24480,-9e-05,-0.00014,-0.0001,0.00013,2e-05,-7e-05,0,-1e-05,5,32
24481,-9e-05,-0.00014,-0.0001,0.00013,2e-05,-7e-05,0,-1e-05,5,32
24482,-9e-05,-0.00014,-0.0001,0.00013,2e-05,-7e-05,0,-1e-05,5,32
24483,-9e-05,-0.00014,-0.0001,0.00013,2e-05,-7e-05,0,-1e-05,5,32
24484,-9e-05,-0.00014,-0.0001,0.00013,2e-05,-7e-05,0,-1e-05,5,32
24485,-9e-05,-0.00014,-0.0001,0.00013,2e-05,-7e-05,0,-1e-05,5,32
24486,-9e-05,-0.00014,-0.0001,0.00013,2e-05,-7e-05,0,-1e-05,5,32
24488,0.00023,6e-05,1e-05,-8e-05,-0.00029,-4e-05,-3e-05,-3e-05,5,32
24489,0.00023,6e-05,1e-05,-8e-05,-0.00029,-4e-05,-3e-05,-3e-05,5,32
24490,0.00023,6e-05,1e-05,-8e-05,-0.00029,-4e-05,-3e-05,-3e-05,5,32
24491,0.00023,6e-05,1e-05,-8e-05,-0.00029,-4e-05,-3e-05,-3e-05,5,32
24492,0.00023,6e-05,1e-05,-8e-05,-0.00029,-4e-05,-3e-05,-3e-05,5,32
24493,0.00023,6e-05,1e-05,-8e-05,-0.00029,-4e-05,-3e-05,-3e-05,5,32
24494,0.00023,6e-05,1e-05,-8e-05,-0.00029,-4e-05,-3e-05,-3e-05,5,32
24495,0.00023,6e-05,1e-05,-8e-05,-0.00029,-4e-05,-3e-05,-3e-05,5,32
24496,0.00023,6e-05,1e-05,-8e-05,-0.00029,-4e-05,-3e-05,-3e-05,5,32
24497,6e-05,6e-05,8e-05,-2e-05,0.00022,-0.00014,-2e-05,1e-05,5,32
24498,0.00019,8e-05,7e-05,0.00028,-4e-05,6e-05,-4e-05,-8e-05,5,32
24499,8e-05,-0.0001,-1e-05,5e-05,0.00038,-1e-05,-2e-05,-1e-05,5,32
24500,8e-05,-0.0001,-1e-05,5e-05,0.00038,-1e-05,-2e-05,-1e-05,5,32
24501,8e-05,-0.0001,-1e-05,5e-05,0.00038,-1e-05,-2e-05,-1e-05,5,32
24502,8e-05,-0.0001,-1e-05,5e-05,0.00038,-1e-05,-2e-05,-1e-05,5,32
24503,8e-05,-0.0001,-1e-05,5e-05,0.00038,-1e-05,-2e-05,-1e-05,5,32
24504,8e-05,-0.0001,-1e-05,5e-05,0.00038,-1e-05,-2e-05,-1e-05,5,32
24505,8e-05,-0.0001,-1e-05,5e-05,0.00038,-1e-05,-2e-05,-1e-05,5,32
24506,8e-05,-0.0001,-1e-05,5e-05,0.00038,-1e-05,-2e-05,-1e-05,5,32
24507,8e-05,-0.0001,-1e-05,5e-05,0.00038,-1e-05,-2e-05,-1e-05,5,32
24508,8e-05,-0.0001,-1e-05,5e-05,0.00038,-1e-05,-2e-05,-1e-05,5,32
24509,8e-05,-0.0001,-1e-05,5e-05,0.00038,-1e-05,-2e-05,-1e-05,5,32
24510,8e-05,-0.0001,-1e-05,5e-05,0.00038,-1e-05,-2e-05,-1e-05,5,32
24511,8e-05,-0.0001,-1e-05,5e-05,0.00038,-1e-05,-2e-05,-1e-05,5,32
24512,8e-05,-0.0001,-1e-05,5e-05,0.00038,-1e-05,-2e-05,-1e-05,5,32
24513,8e-05,-0.0001,-1e-05,5e-05,0.00038,-1e-05,-2e-05,-1e-05,5,32
24514,8e-05,-0.0001,-1e-05,5e-05,0.00038,-1e-05,-2e-05,-1e-05,5,32
24515,8e-05,-0.0001,-1e-05,5e-05,0.00038,-1e-05,-2e-05,-1e-05,5,32
24516,8e-05,-0.0001,-1e-05,5e-05,0.00038,-1e-05,-2e-05,-1e-05,5,32
24517,8e-05,-0.0001,-1e-05,5e-05,0.00038,-1e-05,-2e-05,-1e-05,5,32
24518,-1e-05,-3e-05,-9e-05,-0.00012,0.00016,1e-05,2e-05,3e-05,5,32
24519,-1e-05,-3e-05,-9e-05,-0.00012,0.00016,1e-05,2e-05,3e-05,5,32
24520,-1e-05,-3e-05,-9e-05,-0.00012,0.00016,1e-05,2e-05,3e-05,5,32
24521,-1e-05,-3e-05,-9e-05,-0.00012,0.00016,1e-05,2e-05,3e-05,5,32
24522,-1e-05,-3e-05,-9e-05,-0.00012,0.00016,1e-05,2e-05,3e-05,5,32
24523,-1e-05,-3e-05,-9e-05,-0.00012,0.00016,1e-05,2e-05,3e-05,5,32
24524,-1e-05,-3e-05,-9e-05,-0.00012,0.00016,1e-05,2e-05,3e-05,5,32
24525,-0.00013,-7e-05,-6e-05,-0.00012,-0.00021,-5e-05,2e-05,-6e-05,5,32
24526,-0.00013,-7e-05,-6e-05,-0.00012,-0.00021,-5e-05,2e-05,-6e-05,5,32
24527,-0.00013,-7e-05,-6e-05,-0.00012,-0.00021,-5e-05,2e-05,-6e-05,5,32
24528,-0.00013,-7e-05,-6e-05,-0.00012,-0.00021,-5e-05,2e-05,-6e-05,5,32
24529,-0.00013,-7e-05,-6e-05,-0.00012,-0.00021,-5e-05,2e-05,-6e-05,5,32
24530,-0.00013,-7e-05,-6e-05,-0.00012,-0.00021,-5e-05,2e-05,-6e-05,5,32
24531,-0.00013,-7e-05,-6e-05,-0.00012,-0.00021,-5e-05,2e-05,-6e-05,5,32
24532,-0.00013,-7e-05,-6e-05,-0.00012,-0.00021,-5e-05,2e-05,-6e-05,5,32
24533,-0.00013,-7e-05,-6e-05,-0.00012,-0.00021,-5e-05,2e-05,-6e-05,5,32
24534,-0.00013,-7e-05,-6e-05,-0.00012,-0.00021,-5e-05,2e-05,-6e-05,5,32
24535,-0.00013,-7e-05,-6e-05,-0.00012,-0.00021,-5e-05,2e-05,-6e-05,5,32
24536,-0.00013,-7e-05,-6e-05,-0.00012,-0.00021,-5e-05,2e-05,-6e-05,5,32
24538,-0.00013,-7e-05,-6e-05,-0.00012,-0.00021,-5e-05,2e-05,-6e-05,5,32
24539,-0.00013,-7e-05,-6e-05,-0.00012,-0.00021,-5e-05,2e-05,-6e-05,5,32
24540,-0.00013,-7e-05,-6e-05,-0.00012,-0.00021,-5e-05,2e-05,-6e-05,5,32
24541,-0.00013,-7e-05,-6e-05,-0.00012,-0.00021,-5e-05,2e-05,-6e-05,5,32
24542,-0.00013,-7e-05,-6e-05,-0.00012,-0.00021,-5e-05,2e-05,-6e-05,5,32
24543,-0.00013,-7e-05,-6e-05,-0.00012,-0.00021,-5e-05,2e-05,-6e-05,5,32
24544,-0.00013,-7e-05,-6e-05,-0.00012,-0.00021,-5e-05,2e-05,-6e-05,5,32
24545,-0.00013,-7e-05,-6e-05,-0.00012,-0.00021,-5e-05,2e-05,-6e-05,5,32
24546,-0.00013,-7e-05,-6e-05,-0.00012,-0.00021,-5e-05,2e-05,-6e-05,5,32
24547,-0.00013,-7e-05,-6e-05,-0.00012,-0.00021,-5e-05,2e-05,-6e-05,5,32
24548,-0.00013,-7e-05,-6e-05,-0.00012,-0.00021,-5e-05,2e-05,-6e-05,5,32
24549,-0.00013,-7e-05,-6e-05,-0.00012,-0.00021,-5e-05,2e-05,-6e-05,5,32
24550,-0.00013,-7e-05,-6e-05,-0.00012,-0.00021,-5e-05,2e-05,-6e-05,5,32
24551,-0.00013,-7e-05,-6e-05,-0.00012,-0.00021,-5e-05,2e-05,-6e-05,5,32
24552,-0.00013,-7e-05,-6e-05,-0.00012,-0.00021,-5e-05,2e-05,-6e-05,5,32
24553,-0.00013,-7e-05,-6e-05,-0.00012,-0.00021,-5e-05,2e-05,-6e-05,5,32
24554,-0.00013,-7e-05,-6e-05,-0.00012,-0.00021,-5e-05,2e-05,-6e-05,5,32
24555,-0.00013,-7e-05,-6e-05,-0.00012,-0.00021,-5e-05,2e-05,-6e-05,5,32
24556,-0.00013,-7e-05,-6e-05,-0.00012,-0.00021,-5e-05,2e-05,-6e-05,5,32
24557,-5e-05,-5e-05,-5e-05,-0.00024,-0.00061,-0.00015,-4e-05,2e-05,5,32
24558,-9e-05,-1e-05,-8e-05,-0.00012,0.00021,-1e-05,-2e-05,-1e-05,5,32
24559,-9e-05,-1e-05,-8e-05,-0.00012,0.00021,-1e-05,-2e-05,-1e-05,5,32
24560,-0.00012,-0.0001,-6e-05,0.00022,0.00098,0.00034,6e-05,0,5,32
24561,-0.00012,-0.0001,-6e-05,0.00022,0.00098,0.00034,6e-05,0,5,32
24562,-0.00012,-0.0001,-6e-05,0.00022,0.00098,0.00034,6e-05,0,5,32
24563,-7e-05,0,3e-05,-7e-05,-0.00025,5e-05,2e-05,1e-05,5,32
24564,-7e-05,0,3e-05,-7e-05,-0.00025,5e-05,2e-05,1e-05,5,32
24565,-7e-05,0,3e-05,-7e-05,-0.00025,5e-05,2e-05,1e-05,5,32
24566,-7e-05,0,3e-05,-7e-05,-0.00025,5e-05,2e-05,1e-05,5,32
24567,-7e-05,0,3e-05,-7e-05,-0.00025,5e-05,2e-05,1e-05,5,32
24568,-7e-05,0,3e-05,-7e-05,-0.00025,5e-05,2e-05,1e-05,5,32
24569,-7e-05,0,3e-05,-7e-05,-0.00025,5e-05,2e-05,1e-05,5,32
24570,-7e-05,0,3e-05,-7e-05,-0.00025,5e-05,2e-05,1e-05,5,32
24571,-7e-05,0,3e-05,-7e-05,-0.00025,5e-05,2e-05,1e-05,5,32
24572,-7e-05,0,3e-05,-7e-05,-0.00025,5e-05,2e-05,1e-05,5,32
24573,-7e-05,0,3e-05,-7e-05,-0.00025,5e-05,2e-05,1e-05,5,32
24574,-7e-05,0,3e-05,-7e-05,-0.00025,5e-05,2e-05,1e-05,5,32
24575,-7e-05,0,3e-05,-7e-05,-0.00025,5e-05,2e-05,1e-05,5,32
24576,-7e-05,0,3e-05,-7e-05,-0.00025,5e-05,2e-05,1e-05,5,32
24577,-7e-05,0,3e-05,-7e-05,-0.00025,5e-05,2e-05,1e-05,5,32
24578,-7e-05,0,0,-0.0001,-0.00023,-0.00021,-2e-05,-4e-05,5,32
24579,-0.00022,-0.00013,0,3e-05,0.00013,0.00025,2e-05,-4e-05,5,32
24580,-0.00022,-0.00013,0,3e-05,0.00013,0.00025,2e-05,-4e-05,5,32
24581,-0.00022,-0.00013,0,3e-05,0.00013,0.00025,2e-05,-4e-05,5,32
24582,-0.00022,-0.00013,0,3e-05,0.00013,0.00025,2e-05,-4e-05,5,32
24583,-0.00022,-0.00013,0,3e-05,0.00013,0.00025,2e-05,-4e-05,5,32
24584,-0.00022,-0.00013,0,3e-05,0.00013,0.00025,2e-05,-4e-05,5,32
24585,-0.00022,-0.00013,0,3e-05,0.00013,0.00025,2e-05,-4e-05,5,32
24586,-0.00022,-0.00013,0,3e-05,0.00013,0.00025,2e-05,-4e-05,5,32
24588,-0.00022,-0.00013,0,3e-05,0.00013,0.00025,2e-05,-4e-05,5,32
24589,-0.00022,-0.00013,0,3e-05,0.00013,0.00025,2e-05,-4e-05,5,32
24590,-0.00022,-0.00013,0,3e-05,0.00013,0.00025,2e-05,-4e-05,5,32
24591,-0.00022,-0.00013,0,3e-05,0.00013,0.00025,2e-05,-4e-05,5,32
24592,-0.00022,-0.00013,0,3e-05,0.00013,0.00025,2e-05,-4e-05,5,32
24593,-0.00022,-0.00013,0,3e-05,0.00013,0.00025,2e-05,-4e-05,5,32
24594,-0.00022,-0.00013,0,3e-05,0.00013,0.00025,2e-05,-4e-05,5,32
24595,-0.00022,-0.00013,0,3e-05,0.00013,0.00025,2e-05,-4e-05,5,32
24596,-0.00022,-0.00013,0,3e-05,0.00013,0.00025,2e-05,-4e-05,5,32
24597,-0.00022,-0.00013,0,3e-05,0.00013,0.00025,2e-05,-4e-05,5,32
24598,-0.00022,-0.00013,0,3e-05,0.00013,0.00025,2e-05,-4e-05,5,32
24599,-0.00022,-0.00013,0,3e-05,0.00013,0.00025,2e-05,-4e-05,5,32
24600,-0.00011,0,3e-05,2e-05,-8e-05,-0.00019,-7e-05,1e-05,5,32
24601,-8e-05,-5e-05,-2e-05,-0.00013,-0.00014,6e-05,5e-05,2e-05,5,32
24602,-8e-05,-5e-05,-2e-05,-0.00013,-0.00014,6e-05,5e-05,2e-05,5,32
24603,-8e-05,-5e-05,-2e-05,-0.00013,-0.00014,6e-05,5e-05,2e-05,5,32
24604,-8e-05,-5e-05,-2e-05,-0.00013,-0.00014,6e-05,5e-05,2e-05,5,32
24605,-8e-05,-5e-05,-2e-05,-0.00013,-0.00014,6e-05,5e-05,2e-05,5,32
24606,-8e-05,-5e-05,-2e-05,-0.00013,-0.00014,6e-05,5e-05,2e-05,5,32
24607,-8e-05,-5e-05,-2e-05,-0.00013,-0.00014,6e-05,5e-05,2e-05,5,32
24608,-8e-05,-5e-05,-2e-05,-0.00013,-0.00014,6e-05,5e-05,2e-05,5,32
24609,-8e-05,-5e-05,-2e-05,-0.00013,-0.00014,6e-05,5e-05,2e-05,5,32
24610,-8e-05,-5e-05,-2e-05,-0.00013,-0.00014,6e-05,5e-05,2e-05,5,32
24611,-8e-05,-5e-05,-2e-05,-0.00013,-0.00014,6e-05,5e-05,2e-05,5,32
24612,-8e-05,-5e-05,-2e-05,-0.00013,-0.00014,6e-05,5e-05,2e-05,5,32
24613,-8e-05,-5e-05,-2e-05,-0.00013,-0.00014,6e-05,5e-05,2e-05,5,32
24614,-8e-05,-5e-05,-2e-05,-0.00013,-0.00014,6e-05,5e-05,2e-05,5,32
24615,-8e-05,-5e-05,-2e-05,-0.00013,-0.00014,6e-05,5e-05,2e-05,5,32
24616,-8e-05,-5e-05,-2e-05,-0.00013,-0.00014,6e-05,5e-05,2e-05,5,32
24617,1e-05,3e-05,0,-6e-05,-9e-05,-3e-05,-3e-05,-1e-05,5,32
24618,0.00012,8e-05,1e-05,-6e-05,-0.00013,-9e-05,-7e-05,0,5,32
24619,0.00012,8e-05,1e-05,-6e-05,-0.00013,-9e-05,-7e-05,0,5,32
24620,0.00012,8e-05,1e-05,-6e-05,-0.00013,-9e-05,-7e-05,0,5,32
24621,0.00012,8e-05,1e-05,-6e-05,-0.00013,-9e-05,-7e-05,0,5,32
24622,0.00012,8e-05,1e-05,-6e-05,-0.00013,-9e-05,-7e-05,0,5,32
24623,0.00012,8e-05,1e-05,-6e-05,-0.00013,-9e-05,-7e-05,0,5,32
24624,0.00012,8e-05,1e-05,-6e-05,-0.00013,-9e-05,-7e-05,0,5,32
24625,0.00012,8e-05,1e-05,-6e-05,-0.00013,-9e-05,-7e-05,0,5,32
24626,0.00012,8e-05,1e-05,-6e-05,-0.00013,-9e-05,-7e-05,0,5,32
24627,0.00012,8e-05,1e-05,-6e-05,-0.00013,-9e-05,-7e-05,0,5,32
24628,0.00012,8e-05,1e-05,-6e-05,-0.00013,-9e-05,-7e-05,0,5,32
24629,0.00012,8e-05,1e-05,-6e-05,-0.00013,-9e-05,-7e-05,0,5,32
24630,0.00012,8e-05,1e-05,-6e-05,-0.00013,-9e-05,-7e-05,0,5,32
24631,0.00012,8e-05,1e-05,-6e-05,-0.00013,-9e-05,-7e-05,0,5,32
24632,0.00012,8e-05,1e-05,-6e-05,-0.00013,-9e-05,-7e-05,0,5,32
24633,0.00012,8e-05,1e-05,-6e-05,-0.00013,-9e-05,-7e-05,0,5,32
24634,0.00012,8e-05,1e-05,-6e-05,-0.00013,-9e-05,-7e-05,0,5,32
24635,0.00012,8e-05,1e-05,-6e-05,-0.00013,-9e-05,-7e-05,0,5,32
24636,0.00012,8e-05,1e-05,-6e-05,-0.00013,-9e-05,-7e-05,0,5,32
24638,8e-05,3e-05,3e-05,-1e-05,-0.00039,0,-2e-05,1e-05,5,32
24639,8e-05,3e-05,3e-05,-1e-05,-0.00039,0,-2e-05,1e-05,5,32
24640,8e-05,3e-05,3e-05,-1e-05,-0.00039,0,-2e-05,1e-05,5,32
24641,8e-05,3e-05,3e-05,-1e-05,-0.00039,0,-2e-05,1e-05,5,32
24642,8e-05,3e-05,3e-05,-1e-05,-0.00039,0,-2e-05,1e-05,5,32
24643,8e-05,3e-05,3e-05,-1e-05,-0.00039,0,-2e-05,1e-05,5,32
24644,8e-05,3e-05,3e-05,-1e-05,-0.00039,0,-2e-05,1e-05,5,32
24645,-6e-05,-0.0001,-0.00012,-0.0001,0.00044,3e-05,-2e-05,-1e-05,5,32
24646,1e-05,8e-05,9e-05,0.00011,6e-05,-7e-05,-3e-05,-3e-05,5,32
24647,1e-05,8e-05,9e-05,0.00011,6e-05,-7e-05,-3e-05,-3e-05,5,32
24648,1e-05,8e-05,9e-05,0.00011,6e-05,-7e-05,-3e-05,-3e-05,5,32
24649,1e-05,8e-05,9e-05,0.00011,6e-05,-7e-05,-3e-05,-3e-05,5,32
24650,1e-05,8e-05,9e-05,0.00011,6e-05,-7e-05,-3e-05,-3e-05,5,32
24651,1e-05,8e-05,9e-05,0.00011,6e-05,-7e-05,-3e-05,-3e-05,5,32
24652,1e-05,8e-05,9e-05,0.00011,6e-05,-7e-05,-3e-05,-3e-05,5,32
24653,1e-05,8e-05,9e-05,0.00011,6e-05,-7e-05,-3e-05,-3e-05,5,32
24654,1e-05,8e-05,9e-05,0.00011,6e-05,-7e-05,-3e-05,-3e-05,5,32
24655,1e-05,8e-05,9e-05,0.00011,6e-05,-7e-05,-3e-05,-3e-05,5,32
24656,1e-05,8e-05,9e-05,0.00011,6e-05,-7e-05,-3e-05,-3e-05,5,32
24657,1e-05,8e-05,9e-05,0.00011,6e-05,-7e-05,-3e-05,-3e-05,5,32
24658,1e-05,8e-05,9e-05,0.00011,6e-05,-7e-05,-3e-05,-3e-05,5,32
24659,1e-05,8e-05,9e-05,0.00011,6e-05,-7e-05,-3e-05,-3e-05,5,32
24660,1e-05,8e-05,9e-05,0.00011,6e-05,-7e-05,-3e-05,-3e-05,5,32
24661,-9e-05,-1e-05,1e-05,7e-05,-0.0002,-8e-05,-3e-05,-5e-05,5,32
24662,0.00034,0.00021,7e-05,0,0.00014,-1e-05,1e-05,4e-05,5,32
24663,0.00034,0.00021,7e-05,0,0.00014,-1e-05,1e-05,4e-05,5,32
24664,0.00034,0.00021,7e-05,0,0.00014,-1e-05,1e-05,4e-05,5,32
24665,0.00034,0.00021,7e-05,0,0.00014,-1e-05,1e-05,4e-05,5,32
24666,0.00034,0.00021,7e-05,0,0.00014,-1e-05,1e-05,4e-05,5,32
24667,0.00034,0.00021,7e-05,0,0.00014,-1e-05,1e-05,4e-05,5,32
24668,0.00034,0.00021,7e-05,0,0.00014,-1e-05,1e-05,4e-05,5,32
24669,0.00034,0.00021,7e-05,0,0.00014,-1e-05,1e-05,4e-05,5,32
24670,0.00034,0.00021,7e-05,0,0.00014,-1e-05,1e-05,4e-05,5,32
24671,0.00034,0.00021,7e-05,0,0.00014,-1e-05,1e-05,4e-05,5,32
24672,0.00034,0.00021,7e-05,0,0.00014,-1e-05,1e-05,4e-05,5,32
24673,0.00034,0.00021,7e-05,0,0.00014,-1e-05,1e-05,4e-05,5,32
24674,0.00034,0.00021,7e-05,0,0.00014,-1e-05,1e-05,4e-05,5,32
24675,0.00034,0.00021,7e-05,0,0.00014,-1e-05,1e-05,4e-05,5,32
24676,0.00034,0.00021,7e-05,0,0.00014,-1e-05,1e-05,4e-05,5,32
24677,-0.00021,-0.00015,-2e-05,3e-05,4e-05,0.0001,2e-05,-1e-05,5,32
24678,0.00015,5e-05,0,1e-05,-1e-05,7e-05,1e-05,4e-05,5,32
24679,0.00015,5e-05,0,1e-05,-1e-05,7e-05,1e-05,4e-05,5,32
24680,0.00015,5e-05,0,1e-05,-1e-05,7e-05,1e-05,4e-05,5,32
24681,0.00015,5e-05,0,1e-05,-1e-05,7e-05,1e-05,4e-05,5,32
24682,0.00015,5e-05,0,1e-05,-1e-05,7e-05,1e-05,4e-05,5,32
24683,0.00015,5e-05,0,1e-05,-1e-05,7e-05,1e-05,4e-05,5,32
24684,0.00015,5e-05,0,1e-05,-1e-05,7e-05,1e-05,4e-05,5,32
24685,0.00015,5e-05,0,1e-05,-1e-05,7e-05,1e-05,4e-05,5,32
24686,0.00015,5e-05,0,1e-05,-1e-05,7e-05,1e-05,4e-05,5,32
24688,0.00015,5e-05,0,1e-05,-1e-05,7e-05,1e-05,4e-05,5,32
24689,0.00015,5e-05,0,1e-05,-1e-05,7e-05,1e-05,4e-05,5,32
24690,0.00015,5e-05,0,1e-05,-1e-05,7e-05,1e-05,4e-05,5,32
24691,0.00015,5e-05,0,1e-05,-1e-05,7e-05,1e-05,4e-05,5,32
24692,0.00015,5e-05,0,1e-05,-1e-05,7e-05,1e-05,4e-05,5,32
24693,0.00015,5e-05,0,1e-05,-1e-05,7e-05,1e-05,4e-05,5,32
24694,0.00015,5e-05,0,1e-05,-1e-05,7e-05,1e-05,4e-05,5,32
24695,0.00015,5e-05,0,1e-05,-1e-05,7e-05,1e-05,4e-05,5,32
24696,0.00015,5e-05,0,1e-05,-1e-05,7e-05,1e-05,4e-05,5,32
24697,0.00015,5e-05,0,1e-05,-1e-05,7e-05,1e-05,4e-05,5,32
24698,6e-05,-4e-05,-2e-05,-6e-05,-0.0004,-4e-05,2e-05,-4e-05,5,32
24699,-3e-05,8e-05,5e-05,2e-05,0.00019,-0.0001,-2e-05,-1e-05,5,32
24700,-3e-05,8e-05,5e-05,2e-05,0.00019,-0.0001,-2e-05,-1e-05,5,32
24701,-3e-05,8e-05,5e-05,2e-05,0.00019,-0.0001,-2e-05,-1e-05,5,32
24702,-3e-05,8e-05,5e-05,2e-05,0.00019,-0.0001,-2e-05,-1e-05,5,32
24703,-3e-05,8e-05,5e-05,2e-05,0.00019,-0.0001,-2e-05,-1e-05,5,32
24704,-3e-05,8e-05,5e-05,2e-05,0.00019,-0.0001,-2e-05,-1e-05,5,32
24705,-3e-05,8e-05,5e-05,2e-05,0.00019,-0.0001,-2e-05,-1e-05,5,32
24706,-3e-05,8e-05,5e-05,2e-05,0.00019,-0.0001,-2e-05,-1e-05,5,32
24707,-3e-05,8e-05,5e-05,2e-05,0.00019,-0.0001,-2e-05,-1e-05,5,32
24708,-3e-05,8e-05,5e-05,2e-05,0.00019,-0.0001,-2e-05,-1e-05,5,32
24709,-3e-05,8e-05,5e-05,2e-05,0.00019,-0.0001,-2e-05,-1e-05,5,32
24710,-3e-05,8e-05,5e-05,2e-05,0.00019,-0.0001,-2e-05,-1e-05,5,32
24711,-3e-05,8e-05,5e-05,2e-05,0.00019,-0.0001,-2e-05,-1e-05,5,32
24712,-3e-05,8e-05,5e-05,2e-05,0.00019,-0.0001,-2e-05,-1e-05,5,32
24714,-3e-05,8e-05,5e-05,2e-05,0.00019,-0.0001,-2e-05,-1e-05,5,32
24715,-3e-05,8e-05,5e-05,2e-05,0.00019,-0.0001,-2e-05,-1e-05,5,32
24716,-3e-05,8e-05,5e-05,2e-05,0.00019,-0.0001,-2e-05,-1e-05,5,32
24717,-3e-05,8e-05,5e-05,2e-05,0.00019,-0.0001,-2e-05,-1e-05,5,32
24718,-3e-05,8e-05,5e-05,2e-05,0.00019,-0.0001,-2e-05,-1e-05,5,32
24719,-3e-05,8e-05,5e-05,2e-05,0.00019,-0.0001,-2e-05,-1e-05,5,32
24720,-3e-05,8e-05,5e-05,2e-05,0.00019,-0.0001,-2e-05,-1e-05,5,32
24721,-3e-05,-2e-05,-2e-05,2e-05,9e-05,4e-05,-2e-05,-2e-05,5,32
24722,0,-2e-05,-6e-05,-4e-05,0.00023,-8e-05,1e-05,-2e-05,5,32
24723,0,-2e-05,-6e-05,-4e-05,0.00023,-8e-05,1e-05,-2e-05,5,32
24724,0,-2e-05,-6e-05,-4e-05,0.00023,-8e-05,1e-05,-2e-05,5,32
24725,0,-2e-05,-6e-05,-4e-05,0.00023,-8e-05,1e-05,-2e-05,5,32
24726,0,-2e-05,-6e-05,-4e-05,0.00023,-8e-05,1e-05,-2e-05,5,32
24727,0,-2e-05,-6e-05,-4e-05,0.00023,-8e-05,1e-05,-2e-05,5,32
24728,0,-2e-05,-6e-05,-4e-05,0.00023,-8e-05,1e-05,-2e-05,5,32
24729,0,-2e-05,-6e-05,-4e-05,0.00023,-8e-05,1e-05,-2e-05,5,32
24730,0,-2e-05,-6e-05,-4e-05,0.00023,-8e-05,1e-05,-2e-05,5,32
24731,0,-2e-05,-6e-05,-4e-05,0.00023,-8e-05,1e-05,-2e-05,5,32
24732,0,-2e-05,-6e-05,-4e-05,0.00023,-8e-05,1e-05,-2e-05,5,32
24733,0,-2e-05,-6e-05,-4e-05,0.00023,-8e-05,1e-05,-2e-05,5,32
24734,0,-2e-05,-6e-05,-4e-05,0.00023,-8e-05,1e-05,-2e-05,5,32
24735,4e-05,-7e-05,-0.00012,-0.00036,-0.00053,-0.00011,-1e-05,0,5,32
24736,-4e-05,-7e-05,-0.0001,-0.00015,-0.00038,-0.00016,-2e-05,-1e-05,5,32
24738,-4e-05,-7e-05,-0.0001,-0.00015,-0.00038,-0.00016,-2e-05,-1e-05,5,32
24740,-4e-05,-7e-05,-0.0001,-0.00015,-0.00038,-0.00016,-2e-05,-1e-05,5,32
24741,-4e-05,-7e-05,-0.0001,-0.00015,-0.00038,-0.00016,-2e-05,-1e-05,5,32
24742,-4e-05,-7e-05,-0.0001,-0.00015,-0.00038,-0.00016,-2e-05,-1e-05,5,32
24743,-4e-05,-7e-05,-0.0001,-0.00015,-0.00038,-0.00016,-2e-05,-1e-05,5,32
24744,-4e-05,-7e-05,-0.0001,-0.00015,-0.00038,-0.00016,-2e-05,-1e-05,5,32
24745,-4e-05,-7e-05,-0.0001,-0.00015,-0.00038,-0.00016,-2e-05,-1e-05,5,32
24746,-4e-05,-7e-05,-0.0001,-0.00015,-0.00038,-0.00016,-2e-05,-1e-05,5,32
24747,-4e-05,-7e-05,-0.0001,-0.00015,-0.00038,-0.00016,-2e-05,-1e-05,5,32
24748,-4e-05,-7e-05,-0.0001,-0.00015,-0.00038,-0.00016,-2e-05,-1e-05,5,32
24749,-4e-05,-7e-05,-0.0001,-0.00015,-0.00038,-0.00016,-2e-05,-1e-05,5,32
24750,-4e-05,-7e-05,-0.0001,-0.00015,-0.00038,-0.00016,-2e-05,-1e-05,5,32
24751,-4e-05,-7e-05,-0.0001,-0.00015,-0.00038,-0.00016,-2e-05,-1e-05,5,32
24752,-4e-05,-7e-05,-0.0001,-0.00015,-0.00038,-0.00016,-2e-05,-1e-05,5,32
24753,-4e-05,-7e-05,-0.0001,-0.00015,-0.00038,-0.00016,-2e-05,-1e-05,5,32
24754,-4e-05,-7e-05,-0.0001,-0.00015,-0.00038,-0.00016,-2e-05,-1e-05,5,32
24755,-4e-05,-7e-05,-0.0001,-0.00015,-0.00038,-0.00016,-2e-05,-1e-05,5,32
24756,-4e-05,-7e-05,-0.0001,-0.00015,-0.00038,-0.00016,-2e-05,-1e-05,5,32
24757,-4e-05,-7e-05,-0.0001,-0.00015,-0.00038,-0.00016,-2e-05,-1e-05,5,32
24758,6e-05,6e-05,0.00016,0.00014,-5e-05,4e-05,0,-1e-05,5,32
24759,-5e-05,-3e-05,5e-05,0.0002,0.00017,0.00022,3e-05,3e-05,5,32
24760,-5e-05,-3e-05,5e-05,0.0002,0.00017,0.00022,3e-05,3e-05,5,32
24761,-5e-05,-3e-05,5e-05,0.0002,0.00017,0.00022,3e-05,3e-05,5,32
24762,-5e-05,-3e-05,5e-05,0.0002,0.00017,0.00022,3e-05,3e-05,5,32
24763,-5e-05,-3e-05,5e-05,0.0002,0.00017,0.00022,3e-05,3e-05,5,32
24764,-5e-05,-3e-05,5e-05,0.0002,0.00017,0.00022,3e-05,3e-05,5,32
24765,-5e-05,-3e-05,5e-05,0.0002,0.00017,0.00022,3e-05,3e-05,5,32
24766,-5e-05,-3e-05,5e-05,0.0002,0.00017,0.00022,3e-05,3e-05,5,32
24767,-5e-05,-3e-05,5e-05,0.0002,0.00017,0.00022,3e-05,3e-05,5,32
24768,-5e-05,-3e-05,5e-05,0.0002,0.00017,0.00022,3e-05,3e-05,5,32
24769,-5e-05,-3e-05,5e-05,0.0002,0.00017,0.00022,3e-05,3e-05,5,32
24770,-5e-05,-3e-05,5e-05,0.0002,0.00017,0.00022,3e-05,3e-05,5,32
24771,-5e-05,-3e-05,5e-05,0.0002,0.00017,0.00022,3e-05,3e-05,5,32
24772,-5e-05,-3e-05,5e-05,0.0002,0.00017,0.00022,3e-05,3e-05,5,32
24773,-5e-05,-3e-05,5e-05,0.0002,0.00017,0.00022,3e-05,3e-05,5,32
24774,-5e-05,-3e-05,5e-05,0.0002,0.00017,0.00022,3e-05,3e-05,5,32
24775,-5e-05,-3e-05,5e-05,0.0002,0.00017,0.00022,3e-05,3e-05,5,32
24776,-5e-05,-3e-05,5e-05,0.0002,0.00017,0.00022,3e-05,3e-05,5,32
24777,-5e-05,-3e-05,5e-05,0.0002,0.00017,0.00022,3e-05,3e-05,5,32
24778,-5e-05,-3e-05,5e-05,0.0002,0.00017,0.00022,3e-05,3e-05,5,32
24779,-5e-05,-3e-05,5e-05,0.0002,0.00017,0.00022,3e-05,3e-05,5,32
24780,-5e-05,-3e-05,5e-05,0.0002,0.00017,0.00022,3e-05,3e-05,5,32
24781,1e-05,-1e-05,1e-05,3e-05,9e-05,0.00015,-2e-05,-1e-05,5,32
24782,-8e-05,-8e-05,-6e-05,0.00012,-0.00012,-4e-05,-2e-05,-2e-05,5,32
24783,-8e-05,-8e-05,-6e-05,0.00012,-0.00012,-4e-05,-2e-05,-2e-05,5,32
24784,-8e-05,-8e-05,-6e-05,0.00012,-0.00012,-4e-05,-2e-05,-2e-05,5,32
24785,-8e-05,-8e-05,-6e-05,0.00012,-0.00012,-4e-05,-2e-05,-2e-05,5,32
24786,-8e-05,-8e-05,-6e-05,0.00012,-0.00012,-4e-05,-2e-05,-2e-05,5,32
24788,-8e-05,-8e-05,-6e-05,0.00012,-0.00012,-4e-05,-2e-05,-2e-05,5,32
24789,-8e-05,-8e-05,-6e-05,0.00012,-0.00012,-4e-05,-2e-05,-2e-05,5,32
24790,-8e-05,-8e-05,-6e-05,0.00012,-0.00012,-4e-05,-2e-05,-2e-05,5,32
24791,-8e-05,-8e-05,-6e-05,0.00012,-0.00012,-4e-05,-2e-05,-2e-05,5,32
24792,-8e-05,-8e-05,-6e-05,0.00012,-0.00012,-4e-05,-2e-05,-2e-05,5,32
24793,-8e-05,-8e-05,-6e-05,0.00012,-0.00012,-4e-05,-2e-05,-2e-05,5,32
24794,-8e-05,-8e-05,-6e-05,0.00012,-0.00012,-4e-05,-2e-05,-2e-05,5,32
24795,-8e-05,-8e-05,-6e-05,0.00012,-0.00012,-4e-05,-2e-05,-2e-05,5,32
24796,-8e-05,-8e-05,-6e-05,0.00012,-0.00012,-4e-05,-2e-05,-2e-05,5,32
24797,-8e-05,-8e-05,-6e-05,0.00012,-0.00012,-4e-05,-2e-05,-2e-05,5,32
24798,-8e-05,-8e-05,-6e-05,0.00012,-0.00012,-4e-05,-2e-05,-2e-05,5,32
24799,-8e-05,-8e-05,-6e-05,0.00012,-0.00012,-4e-05,-2e-05,-2e-05,5,32
24800,-8e-05,-8e-05,-6e-05,0.00012,-0.00012,-4e-05,-2e-05,-2e-05,5,32
24801,-8e-05,-8e-05,-6e-05,0.00012,-0.00012,-4e-05,-2e-05,-2e-05,5,32
24802,-8e-05,-8e-05,-6e-05,0.00012,-0.00012,-4e-05,-2e-05,-2e-05,5,32
24803,0.00017,6e-05,2e-05,-6e-05,5e-05,4e-05,1e-05,3e-05,5,32
24804,-2e-05,-8e-05,-3e-05,4e-05,-0.00019,-2e-05,-6e-05,-3e-05,5,32
24805,-2e-05,-8e-05,-3e-05,4e-05,-0.00019,-2e-05,-6e-05,-3e-05,5,32
24806,-2e-05,-8e-05,-3e-05,4e-05,-0.00019,-2e-05,-6e-05,-3e-05,5,32
24807,-2e-05,-8e-05,-3e-05,4e-05,-0.00019,-2e-05,-6e-05,-3e-05,5,32
24808,-2e-05,-8e-05,-3e-05,4e-05,-0.00019,-2e-05,-6e-05,-3e-05,5,32
24809,-2e-05,-8e-05,-3e-05,4e-05,-0.00019,-2e-05,-6e-05,-3e-05,5,32
24810,-2e-05,-8e-05,-3e-05,4e-05,-0.00019,-2e-05,-6e-05,-3e-05,5,32
24811,-2e-05,-8e-05,-3e-05,4e-05,-0.00019,-2e-05,-6e-05,-3e-05,5,32
24812,-2e-05,-8e-05,-3e-05,4e-05,-0.00019,-2e-05,-6e-05,-3e-05,5,32
24813,-2e-05,-8e-05,-3e-05,4e-05,-0.00019,-2e-05,-6e-05,-3e-05,5,32
24814,-2e-05,-8e-05,-3e-05,4e-05,-0.00019,-2e-05,-6e-05,-3e-05,5,32
24815,-2e-05,-8e-05,-3e-05,4e-05,-0.00019,-2e-05,-6e-05,-3e-05,5,32
24816,-2e-05,-8e-05,-3e-05,4e-05,-0.00019,-2e-05,-6e-05,-3e-05,5,32
24817,-2e-05,-8e-05,-3e-05,4e-05,-0.00019,-2e-05,-6e-05,-3e-05,5,32
24818,5e-05,-7e-05,-0.00013,-7e-05,0.00017,-9e-05,-4e-05,-3e-05,5,32
24819,-8e-05,-3e-05,-1e-05,-0.00012,-0.00029,-0.00019,-3e-05,-5e-05,5,32
24820,-8e-05,-3e-05,-1e-05,-0.00012,-0.00029,-0.00019,-3e-05,-5e-05,5,32
24821,-8e-05,-3e-05,-1e-05,-0.00012,-0.00029,-0.00019,-3e-05,-5e-05,5,32
24822,-8e-05,-3e-05,-1e-05,-0.00012,-0.00029,-0.00019,-3e-05,-5e-05,5,32
24823,-8e-05,-3e-05,-1e-05,-0.00012,-0.00029,-0.00019,-3e-05,-5e-05,5,32
24824,-8e-05,-3e-05,-1e-05,-0.00012,-0.00029,-0.00019,-3e-05,-5e-05,5,32
24825,-8e-05,-3e-05,-1e-05,-0.00012,-0.00029,-0.00019,-3e-05,-5e-05,5,32
24826,-8e-05,-3e-05,-1e-05,-0.00012,-0.00029,-0.00019,-3e-05,-5e-05,5,32
24827,-8e-05,-3e-05,-1e-05,-0.00012,-0.00029,-0.00019,-3e-05,-5e-05,5,32
24828,-8e-05,-3e-05,-1e-05,-0.00012,-0.00029,-0.00019,-3e-05,-5e-05,5,32
24829,-8e-05,-3e-05,-1e-05,-0.00012,-0.00029,-0.00019,-3e-05,-5e-05,5,32
24830,-8e-05,-3e-05,-1e-05,-0.00012,-0.00029,-0.00019,-3e-05,-5e-05,5,32
24831,-8e-05,-3e-05,-1e-05,-0.00012,-0.00029,-0.00019,-3e-05,-5e-05,5,32
24832,-8e-05,-3e-05,-1e-05,-0.00012,-0.00029,-0.00019,-3e-05,-5e-05,5,32
24833,-8e-05,-3e-05,-1e-05,-0.00012,-0.00029,-0.00019,-3e-05,-5e-05,5,32
24834,-8e-05,-3e-05,-1e-05,-0.00012,-0.00029,-0.00019,-3e-05,-5e-05,5,32
24835,-8e-05,-3e-05,-1e-05,-0.00012,-0.00029,-0.00019,-3e-05,-5e-05,5,32
24836,-8e-05,-3e-05,-1e-05,-0.00012,-0.00029,-0.00019,-3e-05,-5e-05,5,32
24838,-8e-05,-3e-05,-1e-05,-0.00012,-0.00029,-0.00019,-3e-05,-5e-05,5,32
24839,-8e-05,-3e-05,-1e-05,-0.00012,-0.00029,-0.00019,-3e-05,-5e-05,5,32
24840,-8e-05,-3e-05,-1e-05,-0.00012,-0.00029,-0.00019,-3e-05,-5e-05,5,32
24841,6e-05,2e-05,-6e-05,-4e-05,0.00044,-0.00021,-1e-05,0,5,32
24842,1e-05,-7e-05,-1e-05,-0.00014,-0.00032,5e-05,4e-05,0,5,32
24843,1e-05,-7e-05,-1e-05,-0.00014,-0.00032,5e-05,4e-05,0,5,32
24844,1e-05,-7e-05,-1e-05,-0.00014,-0.00032,5e-05,4e-05,0,5,32
24845,1e-05,-7e-05,-1e-05,-0.00014,-0.00032,5e-05,4e-05,0,5,32
24846,1e-05,-7e-05,-1e-05,-0.00014,-0.00032,5e-05,4e-05,0,5,32
24847,1e-05,-7e-05,-1e-05,-0.00014,-0.00032,5e-05,4e-05,0,5,32
24848,1e-05,-7e-05,-1e-05,-0.00014,-0.00032,5e-05,4e-05,0,5,32
24849,1e-05,-7e-05,-1e-05,-0.00014,-0.00032,5e-05,4e-05,0,5,32
24850,1e-05,-7e-05,-1e-05,-0.00014,-0.00032,5e-05,4e-05,0,5,32
24851,1e-05,-7e-05,-1e-05,-0.00014,-0.00032,5e-05,4e-05,0,5,32
24852,1e-05,-7e-05,-1e-05,-0.00014,-0.00032,5e-05,4e-05,0,5,32
24853,1e-05,-7e-05,-1e-05,-0.00014,-0.00032,5e-05,4e-05,0,5,32
24854,1e-05,-7e-05,-1e-05,-0.00014,-0.00032,5e-05,4e-05,0,5,32
24855,-6e-05,-1e-05,1e-05,-3e-05,-0.00038,0,-7e-05,-4e-05,5,32
24856,-3e-05,0,-1e-05,0.00017,0.00089,0.00044,-4e-05,-1e-05,5,32
24857,-3e-05,0,-1e-05,0.00017,0.00089,0.00044,-4e-05,-1e-05,5,32
24858,-3e-05,0,-1e-05,0.00017,0.00089,0.00044,-4e-05,-1e-05,5,32
24859,-3e-05,0,-1e-05,0.00017,0.00089,0.00044,-4e-05,-1e-05,5,32
24860,-3e-05,0,-1e-05,0.00017,0.00089,0.00044,-4e-05,-1e-05,5,32
24861,-3e-05,0,-1e-05,0.00017,0.00089,0.00044,-4e-05,-1e-05,5,32
24862,-3e-05,0,-1e-05,0.00017,0.00089,0.00044,-4e-05,-1e-05,5,32
24863,-3e-05,0,-1e-05,0.00017,0.00089,0.00044,-4e-05,-1e-05,5,32
24864,-3e-05,0,-1e-05,0.00017,0.00089,0.00044,-4e-05,-1e-05,5,32
24865,-3e-05,0,-1e-05,0.00017,0.00089,0.00044,-4e-05,-1e-05,5,32
24866,-3e-05,0,-1e-05,0.00017,0.00089,0.00044,-4e-05,-1e-05,5,32
24867,-3e-05,0,-1e-05,0.00017,0.00089,0.00044,-4e-05,-1e-05,5,32
24868,-3e-05,0,-1e-05,0.00017,0.00089,0.00044,-4e-05,-1e-05,5,32
24869,-3e-05,0,-1e-05,0.00017,0.00089,0.00044,-4e-05,-1e-05,5,32
24870,-3e-05,0,-1e-05,0.00017,0.00089,0.00044,-4e-05,-1e-05,5,32
24871,-3e-05,0,-1e-05,0.00017,0.00089,0.00044,-4e-05,-1e-05,5,32
24872,-3e-05,0,-1e-05,0.00017,0.00089,0.00044,-4e-05,-1e-05,5,32
24873,-3e-05,0,-1e-05,0.00017,0.00089,0.00044,-4e-05,-1e-05,5,32
24874,-3e-05,0,-1e-05,0.00017,0.00089,0.00044,-4e-05,-1e-05,5,32
24875,-3e-05,0,-1e-05,0.00017,0.00089,0.00044,-4e-05,-1e-05,5,32
24876,-3e-05,0,-1e-05,0.00017,0.00089,0.00044,-4e-05,-1e-05,5,32
24877,-3e-05,0,-1e-05,0.00017,0.00089,0.00044,-4e-05,-1e-05,5,32
24878,-3e-05,0,-1e-05,0.00017,0.00089,0.00044,-4e-05,-1e-05,5,32
24879,-3e-05,0,-1e-05,0.00017,0.00089,0.00044,-4e-05,-1e-05,5,32
24880,-3e-05,0,-1e-05,0.00017,0.00089,0.00044,-4e-05,-1e-05,5,32
24881,-3e-05,0,-1e-05,0.00017,0.00089,0.00044,-4e-05,-1e-05,5,32
24882,-3e-05,0,-1e-05,0.00017,0.00089,0.00044,-4e-05,-1e-05,5,32
24883,-3e-05,0,-1e-05,0.00017,0.00089,0.00044,-4e-05,-1e-05,5,32
24884,-3e-05,0,-1e-05,0.00017,0.00089,0.00044,-4e-05,-1e-05,5,32
24885,-3e-05,0,-1e-05,0.00017,0.00089,0.00044,-4e-05,-1e-05,5,32
24886,-3e-05,0,-1e-05,0.00017,0.00089,0.00044,-4e-05,-1e-05,5,32
24888,-3e-05,0,-1e-05,0.00017,0.00089,0.00044,-4e-05,-1e-05,5,32
24889,-3e-05,0,-1e-05,0.00017,0.00089,0.00044,-4e-05,-1e-05,5,32
24890,-3e-05,0,-1e-05,0.00017,0.00089,0.00044,-4e-05,-1e-05,5,32
24891,-3e-05,0,-1e-05,0.00017,0.00089,0.00044,-4e-05,-1e-05,5,32
24892,-3e-05,0,-1e-05,0.00017,0.00089,0.00044,-4e-05,-1e-05,5,32
24893,-3e-05,0,-1e-05,0.00017,0.00089,0.00044,-4e-05,-1e-05,5,32
24894,-0.00019,-7e-05,4e-05,-1e-05,-1e-05,0.00012,0,-6e-05,5,32
24895,0.00014,-2e-05,4e-05,1e-05,-0.0001,3e-05,-3e-05,5e-05,5,32
24896,0.00014,-2e-05,4e-05,1e-05,-0.0001,3e-05,-3e-05,5e-05,5,32
24897,0.00014,-2e-05,4e-05,1e-05,-0.0001,3e-05,-3e-05,5e-05,5,32
24898,0.00014,-2e-05,4e-05,1e-05,-0.0001,3e-05,-3e-05,5e-05,5,32
24899,0.00014,-2e-05,4e-05,1e-05,-0.0001,3e-05,-3e-05,5e-05,5,32
24900,0.00014,-2e-05,4e-05,1e-05,-0.0001,3e-05,-3e-05,5e-05,5,32
24901,0.00014,-2e-05,4e-05,1e-05,-0.0001,3e-05,-3e-05,5e-05,5,32
24902,0.00014,-2e-05,4e-05,1e-05,-0.0001,3e-05,-3e-05,5e-05,5,32
24903,0.00014,-2e-05,4e-05,1e-05,-0.0001,3e-05,-3e-05,5e-05,5,32
24904,0.00014,-2e-05,4e-05,1e-05,-0.0001,3e-05,-3e-05,5e-05,5,32
24905,0.00014,-2e-05,4e-05,1e-05,-0.0001,3e-05,-3e-05,5e-05,5,32
24906,0.00014,-2e-05,4e-05,1e-05,-0.0001,3e-05,-3e-05,5e-05,5,32
24907,0.00014,-2e-05,4e-05,1e-05,-0.0001,3e-05,-3e-05,5e-05,5,32
24908,6e-05,1e-05,-7e-05,6e-05,0.00019,-6e-05,1e-05,-1e-05,5,32
24909,6e-05,1e-05,-7e-05,6e-05,0.00019,-6e-05,1e-05,-1e-05,5,32
24910,6e-05,1e-05,-7e-05,6e-05,0.00019,-6e-05,1e-05,-1e-05,5,32
24911,6e-05,1e-05,-7e-05,6e-05,0.00019,-6e-05,1e-05,-1e-05,5,32
24912,6e-05,1e-05,-7e-05,6e-05,0.00019,-6e-05,1e-05,-1e-05,5,32
24913,6e-05,1e-05,-7e-05,6e-05,0.00019,-6e-05,1e-05,-1e-05,5,32
