20469,1e-05,-5e-05,-4e-05,0.00015,0.00036,-1e-05,-4e-05,3e-05,5,4
20470,1e-05,-5e-05,-4e-05,0.00015,0.00036,-1e-05,-4e-05,3e-05,5,4
20471,1e-05,-5e-05,-4e-05,0.00015,0.00036,-1e-05,-4e-05,3e-05,5,4
20472,1e-05,-5e-05,-4e-05,0.00015,0.00036,-1e-05,-4e-05,3e-05,5,4
20473,1e-05,-5e-05,-4e-05,0.00015,0.00036,-1e-05,-4e-05,3e-05,5,4
20474,1e-05,-5e-05,-4e-05,0.00015,0.00036,-1e-05,-4e-05,3e-05,5,4
20475,1e-05,-5e-05,-4e-05,0.00015,0.00036,-1e-05,-4e-05,3e-05,5,4
20476,1e-05,-5e-05,-4e-05,0.00015,0.00036,-1e-05,-4e-05,3e-05,5,4
20477,1e-05,-5e-05,-4e-05,0.00015,0.00036,-1e-05,-4e-05,3e-05,5,4
20478,1e-05,-5e-05,-4e-05,0.00015,0.00036,-1e-05,-4e-05,3e-05,5,4
20479,1e-05,-5e-05,-4e-05,0.00015,0.00036,-1e-05,-4e-05,3e-05,5,4
20480,1e-05,-5e-05,-4e-05,0.00015,0.00036,-1e-05,-4e-05,3e-05,5,4
20481,1e-05,-5e-05,-4e-05,0.00015,0.00036,-1e-05,-4e-05,3e-05,5,4
20482,1e-05,-5e-05,-4e-05,0.00015,0.00036,-1e-05,-4e-05,3e-05,5,4
20483,1e-05,-5e-05,-4e-05,0.00015,0.00036,-1e-05,-4e-05,3e-05,5,4
20484,-1e-05,-0.00013,-0.00015,0.00019,0.00087,5e-05,1e-05,-3e-05,5,4
20485,-1e-05,-2e-05,4e-05,-4e-05,-0.00033,-1e-05,1e-05,-2e-05,5,4
20486,-1e-05,-2e-05,4e-05,-4e-05,-0.00033,-1e-05,1e-05,-2e-05,5,4
20487,-1e-05,-2e-05,4e-05,-4e-05,-0.00033,-1e-05,1e-05,-2e-05,5,4
20488,-1e-05,-2e-05,4e-05,-4e-05,-0.00033,-1e-05,1e-05,-2e-05,5,4
20489,-1e-05,-2e-05,4e-05,-4e-05,-0.00033,-1e-05,1e-05,-2e-05,5,4
20490,-1e-05,-2e-05,4e-05,-4e-05,-0.00033,-1e-05,1e-05,-2e-05,5,4
20491,-1e-05,-2e-05,4e-05,-4e-05,-0.00033,-1e-05,1e-05,-2e-05,5,4
20492,-1e-05,-2e-05,4e-05,-4e-05,-0.00033,-1e-05,1e-05,-2e-05,5,4
20493,-1e-05,-2e-05,4e-05,-4e-05,-0.00033,-1e-05,1e-05,-2e-05,5,4
20494,-1e-05,-2e-05,4e-05,-4e-05,-0.00033,-1e-05,1e-05,-2e-05,5,4
20495,-1e-05,-2e-05,4e-05,-4e-05,-0.00033,-1e-05,1e-05,-2e-05,5,4
20496,-1e-05,-2e-05,4e-05,-4e-05,-0.00033,-1e-05,1e-05,-2e-05,5,4
20497,-1e-05,-2e-05,4e-05,-4e-05,-0.00033,-1e-05,1e-05,-2e-05,5,4
20498,-0.0001,-0.00018,-0.00014,-0.00015,0.00058,0,-2e-05,-6e-05,5,4
20499,-0.0001,-0.00018,-0.00014,-0.00015,0.00058,0,-2e-05,-6e-05,5,4
20500,-0.0001,-0.00018,-0.00014,-0.00015,0.00058,0,-2e-05,-6e-05,5,4
20501,-0.0001,-0.00018,-0.00014,-0.00015,0.00058,0,-2e-05,-6e-05,5,4
20502,-0.0001,-0.00018,-0.00014,-0.00015,0.00058,0,-2e-05,-6e-05,5,4
20505,-4e-05,-0.00019,-0.00013,0.00047,0.00028,4e-05,-3e-05,-3e-05,5,4
20507,-4e-05,-0.00019,-0.00013,0.00047,0.00028,4e-05,-3e-05,-3e-05,5,4
20508,-4e-05,-0.00019,-0.00013,0.00047,0.00028,4e-05,-3e-05,-3e-05,5,4
20509,-4e-05,-0.00019,-0.00013,0.00047,0.00028,4e-05,-3e-05,-3e-05,5,4
20510,-4e-05,-0.00019,-0.00013,0.00047,0.00028,4e-05,-3e-05,-3e-05,5,4
20511,-4e-05,-0.00019,-0.00013,0.00047,0.00028,4e-05,-3e-05,-3e-05,5,4
20512,-4e-05,-0.00019,-0.00013,0.00047,0.00028,4e-05,-3e-05,-3e-05,5,4
20513,-4e-05,-0.00019,-0.00013,0.00047,0.00028,4e-05,-3e-05,-3e-05,5,4
20514,-4e-05,-0.00019,-0.00013,0.00047,0.00028,4e-05,-3e-05,-3e-05,5,4
20515,-4e-05,-0.00019,-0.00013,0.00047,0.00028,4e-05,-3e-05,-3e-05,5,4
20516,-4e-05,-0.00019,-0.00013,0.00047,0.00028,4e-05,-3e-05,-3e-05,5,4
20517,-4e-05,-0.00019,-0.00013,0.00047,0.00028,4e-05,-3e-05,-3e-05,5,4
20518,-4e-05,-0.00019,-0.00013,0.00047,0.00028,4e-05,-3e-05,-3e-05,5,4
20519,-4e-05,-0.00019,-0.00013,0.00047,0.00028,4e-05,-3e-05,-3e-05,5,4
20520,-4e-05,-0.00019,-0.00013,0.00047,0.00028,4e-05,-3e-05,-3e-05,5,4
20521,-1e-05,1e-05,-6e-05,-0.00064,-0.00069,-5e-05,-1e-05,2e-05,5,4
20522,-1e-05,1e-05,-6e-05,-0.00064,-0.00069,-5e-05,-1e-05,2e-05,5,4
20523,-3e-05,-0.00011,-4e-05,0.00043,0.0007,0.0002,4e-05,2e-05,5,4
20524,-3e-05,-0.00011,-4e-05,0.00043,0.0007,0.0002,4e-05,2e-05,5,4
20525,-3e-05,-0.00011,-4e-05,0.00043,0.0007,0.0002,4e-05,2e-05,5,4
20526,-3e-05,-0.00011,-4e-05,0.00043,0.0007,0.0002,4e-05,2e-05,5,4
20527,-3e-05,-0.00011,-4e-05,0.00043,0.0007,0.0002,4e-05,2e-05,5,4
20528,-3e-05,-0.00011,-4e-05,0.00043,0.0007,0.0002,4e-05,2e-05,5,4
20529,-3e-05,-0.00011,-4e-05,0.00043,0.0007,0.0002,4e-05,2e-05,5,4
20530,-3e-05,-0.00011,-4e-05,0.00043,0.0007,0.0002,4e-05,2e-05,5,4
20531,-3e-05,-0.00011,-4e-05,0.00043,0.0007,0.0002,4e-05,2e-05,5,4
20532,-3e-05,-0.00011,-4e-05,0.00043,0.0007,0.0002,4e-05,2e-05,5,4
20533,-3e-05,-0.00011,-4e-05,0.00043,0.0007,0.0002,4e-05,2e-05,5,4
20534,-3e-05,-0.00011,-4e-05,0.00043,0.0007,0.0002,4e-05,2e-05,5,4
20535,-3e-05,-0.00011,-4e-05,0.00043,0.0007,0.0002,4e-05,2e-05,5,4
20536,-3e-05,-0.00011,-4e-05,0.00043,0.0007,0.0002,4e-05,2e-05,5,4
20537,-3e-05,-0.00011,-4e-05,0.00043,0.0007,0.0002,4e-05,2e-05,5,4
20538,-3e-05,-0.00011,-4e-05,0.00043,0.0007,0.0002,4e-05,2e-05,5,4
20539,-3e-05,-0.00011,-4e-05,0.00043,0.0007,0.0002,4e-05,2e-05,5,4
20540,-3e-05,-0.00011,-4e-05,0.00043,0.0007,0.0002,4e-05,2e-05,5,4
20541,-3e-05,-0.00011,-4e-05,0.00043,0.0007,0.0002,4e-05,2e-05,5,4
20542,-3e-05,-0.00011,-4e-05,0.00043,0.0007,0.0002,4e-05,2e-05,5,4
20543,-3e-05,-0.00011,-4e-05,0.00043,0.0007,0.0002,4e-05,2e-05,5,4
20544,1e-05,0.00012,0.00013,0.00015,-0.0005,-0.0001,-2e-05,4e-05,5,4
20545,1e-05,0.00014,0.00017,-0.00013,-0.00045,-0.00014,0,-2e-05,5,4
20546,1e-05,0.00014,0.00017,-0.00013,-0.00045,-0.00014,0,-2e-05,5,4
20547,1e-05,0.00014,0.00017,-0.00013,-0.00045,-0.00014,0,-2e-05,5,4
20548,1e-05,0.00014,0.00017,-0.00013,-0.00045,-0.00014,0,-2e-05,5,4
20549,1e-05,0.00014,0.00017,-0.00013,-0.00045,-0.00014,0,-2e-05,5,4
20551,1e-05,0.00014,0.00017,-0.00013,-0.00045,-0.00014,0,-2e-05,5,4
20552,1e-05,0.00014,0.00017,-0.00013,-0.00045,-0.00014,0,-2e-05,5,4
20553,1e-05,0.00014,0.00017,-0.00013,-0.00045,-0.00014,0,-2e-05,5,4
20554,1e-05,0.00014,0.00017,-0.00013,-0.00045,-0.00014,0,-2e-05,5,4
20555,1e-05,0.00014,0.00017,-0.00013,-0.00045,-0.00014,0,-2e-05,5,4
20556,1e-05,0.00014,0.00017,-0.00013,-0.00045,-0.00014,0,-2e-05,5,4
20557,1e-05,0.00014,0.00017,-0.00013,-0.00045,-0.00014,0,-2e-05,5,4
20558,-3e-05,-0.0001,-0.0002,0.00038,0.00032,-2e-05,-1e-05,0,5,4
20559,-3e-05,-0.0001,-0.0002,0.00038,0.00032,-2e-05,-1e-05,0,5,4
20560,-3e-05,-0.0001,-0.0002,0.00038,0.00032,-2e-05,-1e-05,0,5,4
20561,-3e-05,-0.0001,-0.0002,0.00038,0.00032,-2e-05,-1e-05,0,5,4
20562,-3e-05,-0.0001,-0.0002,0.00038,0.00032,-2e-05,-1e-05,0,5,4
20563,-3e-05,-0.0001,-0.0002,0.00038,0.00032,-2e-05,-1e-05,0,5,4
20564,-3e-05,-0.0001,-0.0002,0.00038,0.00032,-2e-05,-1e-05,0,5,4
20565,-3e-05,-0.00015,-3e-05,0.00028,-2e-05,3e-05,-2e-05,0,5,4
20566,-3e-05,-0.00015,-3e-05,0.00028,-2e-05,3e-05,-2e-05,0,5,4
20567,-3e-05,-0.00015,-3e-05,0.00028,-2e-05,3e-05,-2e-05,0,5,4
20568,-3e-05,-0.00015,-3e-05,0.00028,-2e-05,3e-05,-2e-05,0,5,4
20569,-3e-05,-0.00015,-3e-05,0.00028,-2e-05,3e-05,-2e-05,0,5,4
20570,-3e-05,-0.00015,-3e-05,0.00028,-2e-05,3e-05,-2e-05,0,5,4
20571,-3e-05,-0.00015,-3e-05,0.00028,-2e-05,3e-05,-2e-05,0,5,4
20572,-3e-05,-0.00015,-3e-05,0.00028,-2e-05,3e-05,-2e-05,0,5,4
20573,-3e-05,-0.00015,-3e-05,0.00028,-2e-05,3e-05,-2e-05,0,5,4
20574,-3e-05,-0.00015,-3e-05,0.00028,-2e-05,3e-05,-2e-05,0,5,4
20575,-3e-05,-0.00015,-3e-05,0.00028,-2e-05,3e-05,-2e-05,0,5,4
20576,-3e-05,-0.00015,-3e-05,0.00028,-2e-05,3e-05,-2e-05,0,5,4
20577,-3e-05,-0.00015,-3e-05,0.00028,-2e-05,3e-05,-2e-05,0,5,4
20578,-3e-05,-0.00015,-3e-05,0.00028,-2e-05,3e-05,-2e-05,0,5,4
20579,-3e-05,-0.00015,-3e-05,0.00028,-2e-05,3e-05,-2e-05,0,5,4
20580,-3e-05,-0.00015,-3e-05,0.00028,-2e-05,3e-05,-2e-05,0,5,4
20581,9e-05,0.0002,0.00035,-0.00022,-0.00077,-0.00012,-1e-05,8e-05,5,4
20582,9e-05,0.0002,0.00035,-0.00022,-0.00077,-0.00012,-1e-05,8e-05,5,4
20583,6e-05,8e-05,0.00013,-0.00044,-0.00062,-0.0001,3e-05,2e-05,5,4
20584,6e-05,8e-05,0.00013,-0.00044,-0.00062,-0.0001,3e-05,2e-05,5,4
20585,6e-05,8e-05,0.00013,-0.00044,-0.00062,-0.0001,3e-05,2e-05,5,4
20586,6e-05,8e-05,0.00013,-0.00044,-0.00062,-0.0001,3e-05,2e-05,5,4
20587,6e-05,8e-05,0.00013,-0.00044,-0.00062,-0.0001,3e-05,2e-05,5,4
20588,6e-05,8e-05,0.00013,-0.00044,-0.00062,-0.0001,3e-05,2e-05,5,4
20589,6e-05,8e-05,0.00013,-0.00044,-0.00062,-0.0001,3e-05,2e-05,5,4
20590,6e-05,8e-05,0.00013,-0.00044,-0.00062,-0.0001,3e-05,2e-05,5,4
20591,6e-05,8e-05,0.00013,-0.00044,-0.00062,-0.0001,3e-05,2e-05,5,4
20592,6e-05,8e-05,0.00013,-0.00044,-0.00062,-0.0001,3e-05,2e-05,5,4
20593,6e-05,8e-05,0.00013,-0.00044,-0.00062,-0.0001,3e-05,2e-05,5,4
20594,6e-05,8e-05,0.00013,-0.00044,-0.00062,-0.0001,3e-05,2e-05,5,4
20595,6e-05,8e-05,0.00013,-0.00044,-0.00062,-0.0001,3e-05,2e-05,5,4
20596,6e-05,8e-05,0.00013,-0.00044,-0.00062,-0.0001,3e-05,2e-05,5,4
20598,6e-05,8e-05,0.00013,-0.00044,-0.00062,-0.0001,3e-05,2e-05,5,4
20599,6e-05,8e-05,0.00013,-0.00044,-0.00062,-0.0001,3e-05,2e-05,5,4
20600,6e-05,8e-05,0.00013,-0.00044,-0.00062,-0.0001,3e-05,2e-05,5,4
20601,6e-05,8e-05,0.00013,-0.00044,-0.00062,-0.0001,3e-05,2e-05,5,4
20602,6e-05,8e-05,0.00013,-0.00044,-0.00062,-0.0001,3e-05,2e-05,5,4
20603,6e-05,8e-05,0.00013,-0.00044,-0.00062,-0.0001,3e-05,2e-05,5,4
20604,-2e-05,-9e-05,0.00018,0.00016,-0.00012,1e-05,1e-05,-4e-05,5,4
20605,-1e-05,5e-05,-8e-05,-0.00061,0.00036,-5e-05,1e-05,-2e-05,5,4
20607,-1e-05,5e-05,-8e-05,-0.00061,0.00036,-5e-05,1e-05,-2e-05,5,4
20608,-1e-05,5e-05,-8e-05,-0.00061,0.00036,-5e-05,1e-05,-2e-05,5,4
20609,-1e-05,5e-05,-8e-05,-0.00061,0.00036,-5e-05,1e-05,-2e-05,5,4
20610,-1e-05,5e-05,-8e-05,-0.00061,0.00036,-5e-05,1e-05,-2e-05,5,4
20611,-1e-05,5e-05,-8e-05,-0.00061,0.00036,-5e-05,1e-05,-2e-05,5,4
20612,-1e-05,5e-05,-8e-05,-0.00061,0.00036,-5e-05,1e-05,-2e-05,5,4
20613,-1e-05,5e-05,-8e-05,-0.00061,0.00036,-5e-05,1e-05,-2e-05,5,4
20614,-1e-05,5e-05,-8e-05,-0.00061,0.00036,-5e-05,1e-05,-2e-05,5,4
20615,-1e-05,5e-05,-8e-05,-0.00061,0.00036,-5e-05,1e-05,-2e-05,5,4
20616,-1e-05,5e-05,-8e-05,-0.00061,0.00036,-5e-05,1e-05,-2e-05,5,4
20617,-1e-05,5e-05,-8e-05,-0.00061,0.00036,-5e-05,1e-05,-2e-05,5,4
20618,-6e-05,4e-05,-3e-05,-0.00022,-4e-05,-3e-05,-3e-05,1e-05,5,4
20619,-6e-05,4e-05,-3e-05,-0.00022,-4e-05,-3e-05,-3e-05,1e-05,5,4
20620,-6e-05,4e-05,-3e-05,-0.00022,-4e-05,-3e-05,-3e-05,1e-05,5,4
20621,-6e-05,4e-05,-3e-05,-0.00022,-4e-05,-3e-05,-3e-05,1e-05,5,4
20622,-6e-05,4e-05,-3e-05,-0.00022,-4e-05,-3e-05,-3e-05,1e-05,5,4
20623,-6e-05,4e-05,-3e-05,-0.00022,-4e-05,-3e-05,-3e-05,1e-05,5,4
20624,-6e-05,4e-05,-3e-05,-0.00022,-4e-05,-3e-05,-3e-05,1e-05,5,4
20625,-1e-05,4e-05,8e-05,1e-05,-2e-05,-2e-05,-2e-05,-1e-05,5,4
20626,-1e-05,4e-05,8e-05,1e-05,-2e-05,-2e-05,-2e-05,-1e-05,5,4
20627,-1e-05,4e-05,8e-05,1e-05,-2e-05,-2e-05,-2e-05,-1e-05,5,4
20628,-1e-05,4e-05,8e-05,1e-05,-2e-05,-2e-05,-2e-05,-1e-05,5,4
20629,-1e-05,4e-05,8e-05,1e-05,-2e-05,-2e-05,-2e-05,-1e-05,5,4
20630,-1e-05,4e-05,8e-05,1e-05,-2e-05,-2e-05,-2e-05,-1e-05,5,4
20631,-1e-05,4e-05,8e-05,1e-05,-2e-05,-2e-05,-2e-05,-1e-05,5,4
20632,-1e-05,4e-05,8e-05,1e-05,-2e-05,-2e-05,-2e-05,-1e-05,5,4
20633,-1e-05,4e-05,8e-05,1e-05,-2e-05,-2e-05,-2e-05,-1e-05,5,4
20634,-1e-05,4e-05,8e-05,1e-05,-2e-05,-2e-05,-2e-05,-1e-05,5,4
20635,-1e-05,4e-05,8e-05,1e-05,-2e-05,-2e-05,-2e-05,-1e-05,5,4
20636,-1e-05,4e-05,8e-05,1e-05,-2e-05,-2e-05,-2e-05,-1e-05,5,4
20637,-1e-05,4e-05,8e-05,1e-05,-2e-05,-2e-05,-2e-05,-1e-05,5,4
20638,-1e-05,4e-05,8e-05,1e-05,-2e-05,-2e-05,-2e-05,-1e-05,5,4
20639,-1e-05,4e-05,8e-05,1e-05,-2e-05,-2e-05,-2e-05,-1e-05,5,4
20640,-1e-05,4e-05,8e-05,1e-05,-2e-05,-2e-05,-2e-05,-1e-05,5,4
20641,4e-05,0.00011,0.0002,0.00069,0.00077,8e-05,0,-3e-05,5,4
20642,4e-05,0.00011,0.0002,0.00069,0.00077,8e-05,0,-3e-05,5,4
20643,0,0,-2e-05,4e-05,0.0001,0,-5e-05,-8e-05,5,4
20645,0,0,-2e-05,4e-05,0.0001,0,-5e-05,-8e-05,5,4
20646,0,0,-2e-05,4e-05,0.0001,0,-5e-05,-8e-05,5,4
20647,0,0,-2e-05,4e-05,0.0001,0,-5e-05,-8e-05,5,4
20648,0,0,-2e-05,4e-05,0.0001,0,-5e-05,-8e-05,5,4
20649,0,0,-2e-05,4e-05,0.0001,0,-5e-05,-8e-05,5,4
20650,0,0,-2e-05,4e-05,0.0001,0,-5e-05,-8e-05,5,4
20651,0,0,-2e-05,4e-05,0.0001,0,-5e-05,-8e-05,5,4
20652,0,0,-2e-05,4e-05,0.0001,0,-5e-05,-8e-05,5,4
20653,0,0,-2e-05,4e-05,0.0001,0,-5e-05,-8e-05,5,4
20654,0,0,-2e-05,4e-05,0.0001,0,-5e-05,-8e-05,5,4
20655,0,0,-2e-05,4e-05,0.0001,0,-5e-05,-8e-05,5,4
20656,0,0,-2e-05,4e-05,0.0001,0,-5e-05,-8e-05,5,4
20657,0,0,-2e-05,4e-05,0.0001,0,-5e-05,-8e-05,5,4
20658,0,0,-2e-05,4e-05,0.0001,0,-5e-05,-8e-05,5,4
20659,0,0,-2e-05,4e-05,0.0001,0,-5e-05,-8e-05,5,4
20660,0,0,-2e-05,4e-05,0.0001,0,-5e-05,-8e-05,5,4
20661,0,0,-2e-05,4e-05,0.0001,0,-5e-05,-8e-05,5,4
20662,0,0,-2e-05,4e-05,0.0001,0,-5e-05,-8e-05,5,4
20663,0,0,-2e-05,4e-05,0.0001,0,-5e-05,-8e-05,5,4
20664,-5e-05,-8e-05,-0.00019,-2e-05,-0.00022,-5e-05,-7e-05,-8e-05,5,4
20665,3e-05,7e-05,0.0002,-0.0001,-6e-05,-3e-05,3e-05,1e-05,5,4
20666,3e-05,7e-05,0.0002,-0.0001,-6e-05,-3e-05,3e-05,1e-05,5,4
20667,3e-05,7e-05,0.0002,-0.0001,-6e-05,-3e-05,3e-05,1e-05,5,4
20668,3e-05,7e-05,0.0002,-0.0001,-6e-05,-3e-05,3e-05,1e-05,5,4
20669,3e-05,7e-05,0.0002,-0.0001,-6e-05,-3e-05,3e-05,1e-05,5,4
20670,3e-05,7e-05,0.0002,-0.0001,-6e-05,-3e-05,3e-05,1e-05,5,4
20671,3e-05,7e-05,0.0002,-0.0001,-6e-05,-3e-05,3e-05,1e-05,5,4
20672,3e-05,7e-05,0.0002,-0.0001,-6e-05,-3e-05,3e-05,1e-05,5,4
20673,3e-05,7e-05,0.0002,-0.0001,-6e-05,-3e-05,3e-05,1e-05,5,4
20674,3e-05,7e-05,0.0002,-0.0001,-6e-05,-3e-05,3e-05,1e-05,5,4
20675,3e-05,7e-05,0.0002,-0.0001,-6e-05,-3e-05,3e-05,1e-05,5,4
20676,3e-05,7e-05,0.0002,-0.0001,-6e-05,-3e-05,3e-05,1e-05,5,4
20677,3e-05,7e-05,0.0002,-0.0001,-6e-05,-3e-05,3e-05,1e-05,5,4
20678,-0.0001,-0.00015,-0.0003,-0.00052,-0.0002,-4e-05,-9e-05,-8e-05,5,4
20679,-0.0001,-0.00015,-0.0003,-0.00052,-0.0002,-4e-05,-9e-05,-8e-05,5,4
20680,-0.0001,-0.00015,-0.0003,-0.00052,-0.0002,-4e-05,-9e-05,-8e-05,5,4
20681,-0.0001,-0.00015,-0.0003,-0.00052,-0.0002,-4e-05,-9e-05,-8e-05,5,4
20682,-0.0001,-0.00015,-0.0003,-0.00052,-0.0002,-4e-05,-9e-05,-8e-05,5,4
20683,-0.0001,-0.00015,-0.0003,-0.00052,-0.0002,-4e-05,-9e-05,-8e-05,5,4
20684,-0.0001,-0.00015,-0.0003,-0.00052,-0.0002,-4e-05,-9e-05,-8e-05,5,4
20685,-6e-05,-2e-05,9e-05,-3e-05,-0.00031,-9e-05,1e-05,1e-05,5,4
20686,-6e-05,-2e-05,9e-05,-3e-05,-0.00031,-9e-05,1e-05,1e-05,5,4
20687,-6e-05,-2e-05,9e-05,-3e-05,-0.00031,-9e-05,1e-05,1e-05,5,4
20688,-6e-05,-2e-05,9e-05,-3e-05,-0.00031,-9e-05,1e-05,1e-05,5,4
20689,-6e-05,-2e-05,9e-05,-3e-05,-0.00031,-9e-05,1e-05,1e-05,5,4
20691,-6e-05,-2e-05,9e-05,-3e-05,-0.00031,-9e-05,1e-05,1e-05,5,4
20692,-6e-05,-2e-05,9e-05,-3e-05,-0.00031,-9e-05,1e-05,1e-05,5,4
20693,-6e-05,-2e-05,9e-05,-3e-05,-0.00031,-9e-05,1e-05,1e-05,5,4
20694,-6e-05,-2e-05,9e-05,-3e-05,-0.00031,-9e-05,1e-05,1e-05,5,4
20695,-6e-05,-2e-05,9e-05,-3e-05,-0.00031,-9e-05,1e-05,1e-05,5,4
20696,-6e-05,-2e-05,9e-05,-3e-05,-0.00031,-9e-05,1e-05,1e-05,5,4
20697,-6e-05,-2e-05,9e-05,-3e-05,-0.00031,-9e-05,1e-05,1e-05,5,4
20698,-6e-05,-2e-05,9e-05,-3e-05,-0.00031,-9e-05,1e-05,1e-05,5,4
20699,-6e-05,-2e-05,9e-05,-3e-05,-0.00031,-9e-05,1e-05,1e-05,5,4
20700,-6e-05,-2e-05,9e-05,-3e-05,-0.00031,-9e-05,1e-05,1e-05,5,4
20701,-0.00017,4e-05,-6e-05,-0.00039,-0.00059,-7e-05,3e-05,-4e-05,5,4
20702,-0.00017,4e-05,-6e-05,-0.00039,-0.00059,-7e-05,3e-05,-4e-05,5,4
20703,-6e-05,-6e-05,-0.0002,-0.0006,-0.00074,-2e-05,-9e-05,-5e-05,5,4
20704,-6e-05,-6e-05,-0.0002,-0.0006,-0.00074,-2e-05,-9e-05,-5e-05,5,4
20705,-6e-05,-6e-05,-0.0002,-0.0006,-0.00074,-2e-05,-9e-05,-5e-05,5,4
20706,-6e-05,-6e-05,-0.0002,-0.0006,-0.00074,-2e-05,-9e-05,-5e-05,5,4
20707,-6e-05,-6e-05,-0.0002,-0.0006,-0.00074,-2e-05,-9e-05,-5e-05,5,4
20708,-6e-05,-6e-05,-0.0002,-0.0006,-0.00074,-2e-05,-9e-05,-5e-05,5,4
20709,-6e-05,-6e-05,-0.0002,-0.0006,-0.00074,-2e-05,-9e-05,-5e-05,5,4
20710,-6e-05,-6e-05,-0.0002,-0.0006,-0.00074,-2e-05,-9e-05,-5e-05,5,4
20711,-6e-05,-6e-05,-0.0002,-0.0006,-0.00074,-2e-05,-9e-05,-5e-05,5,4
20712,-6e-05,-6e-05,-0.0002,-0.0006,-0.00074,-2e-05,-9e-05,-5e-05,5,4
20713,-6e-05,-6e-05,-0.0002,-0.0006,-0.00074,-2e-05,-9e-05,-5e-05,5,4
20714,-6e-05,-6e-05,-0.0002,-0.0006,-0.00074,-2e-05,-9e-05,-5e-05,5,4
20715,-6e-05,-6e-05,-0.0002,-0.0006,-0.00074,-2e-05,-9e-05,-5e-05,5,4
20716,-6e-05,-6e-05,-0.0002,-0.0006,-0.00074,-2e-05,-9e-05,-5e-05,5,4
20717,-6e-05,-6e-05,-0.0002,-0.0006,-0.00074,-2e-05,-9e-05,-5e-05,5,4
20718,-6e-05,-6e-05,-0.0002,-0.0006,-0.00074,-2e-05,-9e-05,-5e-05,5,4
20719,-6e-05,-6e-05,-0.0002,-0.0006,-0.00074,-2e-05,-9e-05,-5e-05,5,4
20720,-6e-05,-6e-05,-0.0002,-0.0006,-0.00074,-2e-05,-9e-05,-5e-05,5,4
20721,-6e-05,-6e-05,-0.0002,-0.0006,-0.00074,-2e-05,-9e-05,-5e-05,5,4
20722,-6e-05,-6e-05,-0.0002,-0.0006,-0.00074,-2e-05,-9e-05,-5e-05,5,4
20723,-6e-05,-6e-05,-0.0002,-0.0006,-0.00074,-2e-05,-9e-05,-5e-05,5,4
20724,0.00011,1e-05,0.00011,0.00019,-0.00026,8e-05,0,0,5,4
20725,0,0,1e-05,0.00073,0.00084,5e-05,4e-05,2e-05,5,4
20726,0,0,1e-05,0.00073,0.00084,5e-05,4e-05,2e-05,5,4
20727,0,0,1e-05,0.00073,0.00084,5e-05,4e-05,2e-05,5,4
20728,0,0,1e-05,0.00073,0.00084,5e-05,4e-05,2e-05,5,4
20729,0,0,1e-05,0.00073,0.00084,5e-05,4e-05,2e-05,5,4
20730,0,0,1e-05,0.00073,0.00084,5e-05,4e-05,2e-05,5,4
20731,0,0,1e-05,0.00073,0.00084,5e-05,4e-05,2e-05,5,4
20732,0,0,1e-05,0.00073,0.00084,5e-05,4e-05,2e-05,5,4
20733,0,0,1e-05,0.00073,0.00084,5e-05,4e-05,2e-05,5,4
20734,0,0,1e-05,0.00073,0.00084,5e-05,4e-05,2e-05,5,4
20735,0,0,1e-05,0.00073,0.00084,5e-05,4e-05,2e-05,5,4
20736,0,0,1e-05,0.00073,0.00084,5e-05,4e-05,2e-05,5,4
20739,8e-05,2e-05,0.0001,-5e-05,-0.00014,7e-05,1e-05,9e-05,5,4
20740,8e-05,2e-05,0.0001,-5e-05,-0.00014,7e-05,1e-05,9e-05,5,4
20741,8e-05,2e-05,0.0001,-5e-05,-0.00014,7e-05,1e-05,9e-05,5,4
20742,8e-05,2e-05,0.0001,-5e-05,-0.00014,7e-05,1e-05,9e-05,5,4
20743,8e-05,2e-05,0.0001,-5e-05,-0.00014,7e-05,1e-05,9e-05,5,4
20744,8e-05,2e-05,0.0001,-5e-05,-0.00014,7e-05,1e-05,9e-05,5,4
20745,7e-05,8e-05,8e-05,0.00029,1e-05,0,7e-05,2e-05,5,4
20746,7e-05,8e-05,8e-05,0.00029,1e-05,0,7e-05,2e-05,5,4
20747,7e-05,8e-05,8e-05,0.00029,1e-05,0,7e-05,2e-05,5,4
20748,7e-05,8e-05,8e-05,0.00029,1e-05,0,7e-05,2e-05,5,4
20749,7e-05,8e-05,8e-05,0.00029,1e-05,0,7e-05,2e-05,5,4
20750,7e-05,8e-05,8e-05,0.00029,1e-05,0,7e-05,2e-05,5,4
20751,7e-05,8e-05,8e-05,0.00029,1e-05,0,7e-05,2e-05,5,4
20752,7e-05,8e-05,8e-05,0.00029,1e-05,0,7e-05,2e-05,5,4
20753,7e-05,8e-05,8e-05,0.00029,1e-05,0,7e-05,2e-05,5,4
20754,7e-05,8e-05,8e-05,0.00029,1e-05,0,7e-05,2e-05,5,4
20755,7e-05,8e-05,8e-05,0.00029,1e-05,0,7e-05,2e-05,5,4
20756,7e-05,8e-05,8e-05,0.00029,1e-05,0,7e-05,2e-05,5,4
20757,7e-05,8e-05,8e-05,0.00029,1e-05,0,7e-05,2e-05,5,4
20758,7e-05,8e-05,8e-05,0.00029,1e-05,0,7e-05,2e-05,5,4
20759,7e-05,8e-05,8e-05,0.00029,1e-05,0,7e-05,2e-05,5,4
20760,7e-05,8e-05,8e-05,0.00029,1e-05,0,7e-05,2e-05,5,4
20761,0,-0.00011,-0.00029,-0.00051,-0.00013,-4e-05,-1e-05,0,5,4
20762,0,-0.00011,-0.00029,-0.00051,-0.00013,-4e-05,-1e-05,0,5,4
20763,6e-05,2e-05,-0.00013,-0.00026,-0.00026,4e-05,-4e-05,0,5,4
20764,6e-05,2e-05,-0.00013,-0.00026,-0.00026,4e-05,-4e-05,0,5,4
20765,6e-05,2e-05,-0.00013,-0.00026,-0.00026,4e-05,-4e-05,0,5,4
20766,6e-05,2e-05,-0.00013,-0.00026,-0.00026,4e-05,-4e-05,0,5,4
20767,6e-05,2e-05,-0.00013,-0.00026,-0.00026,4e-05,-4e-05,0,5,4
20768,6e-05,2e-05,-0.00013,-0.00026,-0.00026,4e-05,-4e-05,0,5,4
20769,6e-05,2e-05,-0.00013,-0.00026,-0.00026,4e-05,-4e-05,0,5,4
20770,6e-05,2e-05,-0.00013,-0.00026,-0.00026,4e-05,-4e-05,0,5,4
20771,6e-05,2e-05,-0.00013,-0.00026,-0.00026,4e-05,-4e-05,0,5,4
20772,6e-05,2e-05,-0.00013,-0.00026,-0.00026,4e-05,-4e-05,0,5,4
20773,6e-05,2e-05,-0.00013,-0.00026,-0.00026,4e-05,-4e-05,0,5,4
20774,6e-05,2e-05,-0.00013,-0.00026,-0.00026,4e-05,-4e-05,0,5,4
20775,6e-05,2e-05,-0.00013,-0.00026,-0.00026,4e-05,-4e-05,0,5,4
20776,6e-05,2e-05,-0.00013,-0.00026,-0.00026,4e-05,-4e-05,0,5,4
20777,6e-05,2e-05,-0.00013,-0.00026,-0.00026,4e-05,-4e-05,0,5,4
20778,6e-05,2e-05,-0.00013,-0.00026,-0.00026,4e-05,-4e-05,0,5,4
20779,6e-05,2e-05,-0.00013,-0.00026,-0.00026,4e-05,-4e-05,0,5,4
20780,6e-05,2e-05,-0.00013,-0.00026,-0.00026,4e-05,-4e-05,0,5,4
20781,6e-05,2e-05,-0.00013,-0.00026,-0.00026,4e-05,-4e-05,0,5,4
20782,6e-05,2e-05,-0.00013,-0.00026,-0.00026,4e-05,-4e-05,0,5,4
20783,6e-05,2e-05,-0.00013,-0.00026,-0.00026,4e-05,-4e-05,0,5,4
20784,8e-05,8e-05,-1e-05,-0.00027,0.00042,9e-05,0.0001,4e-05,5,4
20785,8e-05,8e-05,-1e-05,-0.00027,0.00042,9e-05,0.0001,4e-05,5,4
20787,-3e-05,-1e-05,-0.00019,-0.00071,-0.00022,-1e-05,-6e-05,0,5,4
20788,-3e-05,-1e-05,-0.00019,-0.00071,-0.00022,-1e-05,-6e-05,0,5,4
20790,-3e-05,-1e-05,-0.00019,-0.00071,-0.00022,-1e-05,-6e-05,0,5,4
20791,-3e-05,-1e-05,-0.00019,-0.00071,-0.00022,-1e-05,-6e-05,0,5,4
20792,-3e-05,-1e-05,-0.00019,-0.00071,-0.00022,-1e-05,-6e-05,0,5,4
20793,-3e-05,-1e-05,-0.00019,-0.00071,-0.00022,-1e-05,-6e-05,0,5,4
20794,-3e-05,-1e-05,-0.00019,-0.00071,-0.00022,-1e-05,-6e-05,0,5,4
20795,-3e-05,-1e-05,-0.00019,-0.00071,-0.00022,-1e-05,-6e-05,0,5,4
20796,-3e-05,-1e-05,-0.00019,-0.00071,-0.00022,-1e-05,-6e-05,0,5,4
20797,-3e-05,-6e-05,-0.00023,-0.00018,-0.0001,-0.00011,-2e-05,6e-05,5,4
20798,-3e-05,-6e-05,-0.00023,-0.00018,-0.0001,-0.00011,-2e-05,6e-05,5,4
20799,-3e-05,-6e-05,-0.00023,-0.00018,-0.0001,-0.00011,-2e-05,6e-05,5,4
20800,-3e-05,-6e-05,-0.00023,-0.00018,-0.0001,-0.00011,-2e-05,6e-05,5,4
20801,-3e-05,-6e-05,-0.00023,-0.00018,-0.0001,-0.00011,-2e-05,6e-05,5,4
20802,-3e-05,-6e-05,-0.00023,-0.00018,-0.0001,-0.00011,-2e-05,6e-05,5,4
20803,-3e-05,-6e-05,-0.00023,-0.00018,-0.0001,-0.00011,-2e-05,6e-05,5,4
20804,-3e-05,-6e-05,-0.00023,-0.00018,-0.0001,-0.00011,-2e-05,6e-05,5,4
20805,-3e-05,-6e-05,-0.00023,-0.00018,-0.0001,-0.00011,-2e-05,6e-05,5,4
20806,1e-05,3e-05,0.00016,5e-05,-0.00089,-8e-05,-8e-05,-2e-05,5,4
20807,1e-05,3e-05,0.00016,5e-05,-0.00089,-8e-05,-8e-05,-2e-05,5,4
20808,1e-05,3e-05,0.00016,5e-05,-0.00089,-8e-05,-8e-05,-2e-05,5,4
20809,1e-05,3e-05,0.00016,5e-05,-0.00089,-8e-05,-8e-05,-2e-05,5,4
20810,1e-05,3e-05,0.00016,5e-05,-0.00089,-8e-05,-8e-05,-2e-05,5,4
20811,1e-05,3e-05,0.00016,5e-05,-0.00089,-8e-05,-8e-05,-2e-05,5,4
20812,1e-05,3e-05,0.00016,5e-05,-0.00089,-8e-05,-8e-05,-2e-05,5,4
20813,1e-05,3e-05,0.00016,5e-05,-0.00089,-8e-05,-8e-05,-2e-05,5,4
20814,1e-05,3e-05,0.00016,5e-05,-0.00089,-8e-05,-8e-05,-2e-05,5,4
20815,1e-05,3e-05,0.00016,5e-05,-0.00089,-8e-05,-8e-05,-2e-05,5,4
20816,1e-05,3e-05,0.00016,5e-05,-0.00089,-8e-05,-8e-05,-2e-05,5,4
20817,1e-05,3e-05,0.00016,5e-05,-0.00089,-8e-05,-8e-05,-2e-05,5,4
20818,1e-05,3e-05,0.00016,5e-05,-0.00089,-8e-05,-8e-05,-2e-05,5,4
20819,1e-05,3e-05,0.00016,5e-05,-0.00089,-8e-05,-8e-05,-2e-05,5,4
20820,1e-05,3e-05,0.00016,5e-05,-0.00089,-8e-05,-8e-05,-2e-05,5,4
20821,-2e-05,-0.00016,-0.00013,-0.00022,-7e-05,-7e-05,-4e-05,-5e-05,5,4
20822,-2e-05,-0.00016,-0.00013,-0.00022,-7e-05,-7e-05,-4e-05,-5e-05,5,4
20823,0,-1e-05,1e-05,0.00047,0.00043,4e-05,-2e-05,1e-05,5,4
20824,0,-1e-05,1e-05,0.00047,0.00043,4e-05,-2e-05,1e-05,5,4
20825,0,-1e-05,1e-05,0.00047,0.00043,4e-05,-2e-05,1e-05,5,4
20826,0,-1e-05,1e-05,0.00047,0.00043,4e-05,-2e-05,1e-05,5,4
20827,0,-1e-05,1e-05,0.00047,0.00043,4e-05,-2e-05,1e-05,5,4
20828,0,-1e-05,1e-05,0.00047,0.00043,4e-05,-2e-05,1e-05,5,4
20829,0,-1e-05,1e-05,0.00047,0.00043,4e-05,-2e-05,1e-05,5,4
20830,0,-1e-05,1e-05,0.00047,0.00043,4e-05,-2e-05,1e-05,5,4
20831,0,-1e-05,1e-05,0.00047,0.00043,4e-05,-2e-05,1e-05,5,4
20833,0,-1e-05,1e-05,0.00047,0.00043,4e-05,-2e-05,1e-05,5,4
20834,0,-1e-05,1e-05,0.00047,0.00043,4e-05,-2e-05,1e-05,5,4
20835,0,-1e-05,1e-05,0.00047,0.00043,4e-05,-2e-05,1e-05,5,4
20836,0,-1e-05,1e-05,0.00047,0.00043,4e-05,-2e-05,1e-05,5,4
20837,0,-1e-05,1e-05,0.00047,0.00043,4e-05,-2e-05,1e-05,5,4
20838,0,-1e-05,1e-05,0.00047,0.00043,4e-05,-2e-05,1e-05,5,4
20839,0,-1e-05,1e-05,0.00047,0.00043,4e-05,-2e-05,1e-05,5,4
20840,0,-1e-05,1e-05,0.00047,0.00043,4e-05,-2e-05,1e-05,5,4
20841,0,-1e-05,1e-05,0.00047,0.00043,4e-05,-2e-05,1e-05,5,4
20842,0,-1e-05,1e-05,0.00047,0.00043,4e-05,-2e-05,1e-05,5,4
20843,0,-1e-05,1e-05,0.00047,0.00043,4e-05,-2e-05,1e-05,5,4
20844,-6e-05,2e-05,0.0001,0,-0.00064,-0.00011,-2e-05,2e-05,5,4
20845,-6e-05,2e-05,0.0001,0,-0.00064,-0.00011,-2e-05,2e-05,5,4
20846,-6e-05,2e-05,0.0001,0,-0.00064,-0.00011,-2e-05,2e-05,5,4
20847,-3e-05,7e-05,6e-05,0.00049,0.00095,6e-05,5e-05,-5e-05,5,4
20848,-3e-05,7e-05,6e-05,0.00049,0.00095,6e-05,5e-05,-5e-05,5,4
20849,-3e-05,7e-05,6e-05,0.00049,0.00095,6e-05,5e-05,-5e-05,5,4
20850,-3e-05,7e-05,6e-05,0.00049,0.00095,6e-05,5e-05,-5e-05,5,4
20851,-3e-05,7e-05,6e-05,0.00049,0.00095,6e-05,5e-05,-5e-05,5,4
20852,-3e-05,7e-05,6e-05,0.00049,0.00095,6e-05,5e-05,-5e-05,5,4
20853,-3e-05,7e-05,6e-05,0.00049,0.00095,6e-05,5e-05,-5e-05,5,4
20854,-3e-05,7e-05,6e-05,0.00049,0.00095,6e-05,5e-05,-5e-05,5,4
20855,-3e-05,7e-05,6e-05,0.00049,0.00095,6e-05,5e-05,-5e-05,5,4
20856,-3e-05,7e-05,6e-05,0.00049,0.00095,6e-05,5e-05,-5e-05,5,4
20857,5e-05,5e-05,0.00014,9e-05,7e-05,6e-05,2e-05,0.00012,5,4
20858,5e-05,5e-05,0.00014,9e-05,7e-05,6e-05,2e-05,0.00012,5,4
20859,5e-05,5e-05,0.00014,9e-05,7e-05,6e-05,2e-05,0.00012,5,4
20860,5e-05,5e-05,0.00014,9e-05,7e-05,6e-05,2e-05,0.00012,5,4
20861,5e-05,5e-05,0.00014,9e-05,7e-05,6e-05,2e-05,0.00012,5,4
20862,5e-05,5e-05,0.00014,9e-05,7e-05,6e-05,2e-05,0.00012,5,4
20863,5e-05,5e-05,0.00014,9e-05,7e-05,6e-05,2e-05,0.00012,5,4
20864,5e-05,5e-05,0.00014,9e-05,7e-05,6e-05,2e-05,0.00012,5,4
20865,5e-05,5e-05,0.00014,9e-05,7e-05,6e-05,2e-05,0.00012,5,4
20866,-1e-05,-2e-05,2e-05,-6e-05,-0.00036,1e-05,2e-05,3e-05,5,4
20867,-1e-05,-2e-05,2e-05,-6e-05,-0.00036,1e-05,2e-05,3e-05,5,4
20868,-1e-05,-2e-05,2e-05,-6e-05,-0.00036,1e-05,2e-05,3e-05,5,4
20869,-1e-05,-2e-05,2e-05,-6e-05,-0.00036,1e-05,2e-05,3e-05,5,4
20870,-1e-05,-2e-05,2e-05,-6e-05,-0.00036,1e-05,2e-05,3e-05,5,4
20871,-1e-05,-2e-05,2e-05,-6e-05,-0.00036,1e-05,2e-05,3e-05,5,4
20872,-1e-05,-2e-05,2e-05,-6e-05,-0.00036,1e-05,2e-05,3e-05,5,4
20873,-1e-05,-2e-05,2e-05,-6e-05,-0.00036,1e-05,2e-05,3e-05,5,4
20874,-1e-05,-2e-05,2e-05,-6e-05,-0.00036,1e-05,2e-05,3e-05,5,4
20875,-1e-05,-2e-05,2e-05,-6e-05,-0.00036,1e-05,2e-05,3e-05,5,4
20876,-1e-05,-2e-05,2e-05,-6e-05,-0.00036,1e-05,2e-05,3e-05,5,4
20878,-1e-05,-2e-05,2e-05,-6e-05,-0.00036,1e-05,2e-05,3e-05,5,4
20879,-1e-05,-2e-05,2e-05,-6e-05,-0.00036,1e-05,2e-05,3e-05,5,4
20880,-1e-05,-2e-05,2e-05,-6e-05,-0.00036,1e-05,2e-05,3e-05,5,4
20881,0,0,3e-05,0.00051,0.00063,3e-05,1e-05,-2e-05,5,4
20882,0,0,3e-05,0.00051,0.00063,3e-05,1e-05,-2e-05,5,4
20883,-1e-05,2e-05,7e-05,-0.00022,-0.00071,-9e-05,-4e-05,-7e-05,5,4
20884,-1e-05,2e-05,7e-05,-0.00022,-0.00071,-9e-05,-4e-05,-7e-05,5,4
20885,-1e-05,2e-05,7e-05,-0.00022,-0.00071,-9e-05,-4e-05,-7e-05,5,4
20886,-1e-05,2e-05,7e-05,-0.00022,-0.00071,-9e-05,-4e-05,-7e-05,5,4
20887,-1e-05,2e-05,7e-05,-0.00022,-0.00071,-9e-05,-4e-05,-7e-05,5,4
20888,-1e-05,2e-05,7e-05,-0.00022,-0.00071,-9e-05,-4e-05,-7e-05,5,4
20889,-1e-05,2e-05,7e-05,-0.00022,-0.00071,-9e-05,-4e-05,-7e-05,5,4
20890,-1e-05,2e-05,7e-05,-0.00022,-0.00071,-9e-05,-4e-05,-7e-05,5,4
20891,-1e-05,2e-05,7e-05,-0.00022,-0.00071,-9e-05,-4e-05,-7e-05,5,4
20892,-1e-05,2e-05,7e-05,-0.00022,-0.00071,-9e-05,-4e-05,-7e-05,5,4
20893,-1e-05,2e-05,7e-05,-0.00022,-0.00071,-9e-05,-4e-05,-7e-05,5,4
20894,-1e-05,2e-05,7e-05,-0.00022,-0.00071,-9e-05,-4e-05,-7e-05,5,4
20895,-1e-05,2e-05,7e-05,-0.00022,-0.00071,-9e-05,-4e-05,-7e-05,5,4
20896,-1e-05,2e-05,7e-05,-0.00022,-0.00071,-9e-05,-4e-05,-7e-05,5,4
20897,-1e-05,2e-05,7e-05,-0.00022,-0.00071,-9e-05,-4e-05,-7e-05,5,4
20898,-1e-05,2e-05,7e-05,-0.00022,-0.00071,-9e-05,-4e-05,-7e-05,5,4
20899,-1e-05,2e-05,7e-05,-0.00022,-0.00071,-9e-05,-4e-05,-7e-05,5,4
20900,-1e-05,2e-05,7e-05,-0.00022,-0.00071,-9e-05,-4e-05,-7e-05,5,4
20901,-1e-05,2e-05,7e-05,-0.00022,-0.00071,-9e-05,-4e-05,-7e-05,5,4
20902,-1e-05,2e-05,7e-05,-0.00022,-0.00071,-9e-05,-4e-05,-7e-05,5,4
20903,-1e-05,2e-05,7e-05,-0.00022,-0.00071,-9e-05,-4e-05,-7e-05,5,4
20904,-5e-05,1e-05,-5e-05,-0.00023,-0.00056,-9e-05,-8e-05,-6e-05,5,4
20905,1e-05,-5e-05,-9e-05,7e-05,-0.00025,-0.00011,1e-05,-2e-05,5,4
20906,1e-05,-5e-05,-9e-05,7e-05,-0.00025,-0.00011,1e-05,-2e-05,5,4
20907,1e-05,-5e-05,-9e-05,7e-05,-0.00025,-0.00011,1e-05,-2e-05,5,4
20908,1e-05,-5e-05,-9e-05,7e-05,-0.00025,-0.00011,1e-05,-2e-05,5,4
20909,1e-05,-5e-05,-9e-05,7e-05,-0.00025,-0.00011,1e-05,-2e-05,5,4
20910,1e-05,-5e-05,-9e-05,7e-05,-0.00025,-0.00011,1e-05,-2e-05,5,4
20911,1e-05,-5e-05,-9e-05,7e-05,-0.00025,-0.00011,1e-05,-2e-05,5,4
20912,1e-05,-5e-05,-9e-05,7e-05,-0.00025,-0.00011,1e-05,-2e-05,5,4
20913,1e-05,-5e-05,-9e-05,7e-05,-0.00025,-0.00011,1e-05,-2e-05,5,4
20914,1e-05,-5e-05,-9e-05,7e-05,-0.00025,-0.00011,1e-05,-2e-05,5,4
20915,1e-05,-5e-05,-9e-05,7e-05,-0.00025,-0.00011,1e-05,-2e-05,5,4
20916,1e-05,-5e-05,-9e-05,7e-05,-0.00025,-0.00011,1e-05,-2e-05,5,4
20917,-1e-05,0.0002,0.00033,0.00027,2e-05,-1e-05,2e-05,-2e-05,5,4
20918,-1e-05,0.0002,0.00033,0.00027,2e-05,-1e-05,2e-05,-2e-05,5,4
20919,-1e-05,0.0002,0.00033,0.00027,2e-05,-1e-05,2e-05,-2e-05,5,4
20920,-1e-05,0.0002,0.00033,0.00027,2e-05,-1e-05,2e-05,-2e-05,5,4
20921,-1e-05,0.0002,0.00033,0.00027,2e-05,-1e-05,2e-05,-2e-05,5,4
20922,-1e-05,0.0002,0.00033,0.00027,2e-05,-1e-05,2e-05,-2e-05,5,4
20923,-1e-05,0.0002,0.00033,0.00027,2e-05,-1e-05,2e-05,-2e-05,5,4
20925,-1e-05,0.0002,0.00033,0.00027,2e-05,-1e-05,2e-05,-2e-05,5,4
20926,-0.0001,-0.00021,-0.00015,-0.00015,0.00018,-1e-05,-3e-05,-5e-05,5,4
20927,-0.0001,-0.00021,-0.00015,-0.00015,0.00018,-1e-05,-3e-05,-5e-05,5,4
20928,-0.0001,-0.00021,-0.00015,-0.00015,0.00018,-1e-05,-3e-05,-5e-05,5,4
20929,-0.0001,-0.00021,-0.00015,-0.00015,0.00018,-1e-05,-3e-05,-5e-05,5,4
20930,-0.0001,-0.00021,-0.00015,-0.00015,0.00018,-1e-05,-3e-05,-5e-05,5,4
20931,-0.0001,-0.00021,-0.00015,-0.00015,0.00018,-1e-05,-3e-05,-5e-05,5,4
20932,-0.0001,-0.00021,-0.00015,-0.00015,0.00018,-1e-05,-3e-05,-5e-05,5,4
20933,-0.0001,-0.00021,-0.00015,-0.00015,0.00018,-1e-05,-3e-05,-5e-05,5,4
20934,-0.0001,-0.00021,-0.00015,-0.00015,0.00018,-1e-05,-3e-05,-5e-05,5,4
20935,-0.0001,-0.00021,-0.00015,-0.00015,0.00018,-1e-05,-3e-05,-5e-05,5,4
20936,-0.0001,-0.00021,-0.00015,-0.00015,0.00018,-1e-05,-3e-05,-5e-05,5,4
20937,-0.0001,-0.00021,-0.00015,-0.00015,0.00018,-1e-05,-3e-05,-5e-05,5,4
20938,-0.0001,-0.00021,-0.00015,-0.00015,0.00018,-1e-05,-3e-05,-5e-05,5,4
20939,-0.0001,-0.00021,-0.00015,-0.00015,0.00018,-1e-05,-3e-05,-5e-05,5,4
20940,-0.0001,-0.00021,-0.00015,-0.00015,0.00018,-1e-05,-3e-05,-5e-05,5,4
20941,-3e-05,-5e-05,6e-05,0.00015,0.00013,2e-05,-1e-05,-1e-05,5,4
20942,-3e-05,-5e-05,6e-05,0.00015,0.00013,2e-05,-1e-05,-1e-05,5,4
20943,-5e-05,-0.00014,-0.00033,-0.00047,-0.00044,1e-05,0,-1e-05,5,4
20944,-5e-05,-0.00014,-0.00033,-0.00047,-0.00044,1e-05,0,-1e-05,5,4
20945,-5e-05,-0.00014,-0.00033,-0.00047,-0.00044,1e-05,0,-1e-05,5,4
20946,-5e-05,-0.00014,-0.00033,-0.00047,-0.00044,1e-05,0,-1e-05,5,4
20947,-5e-05,-0.00014,-0.00033,-0.00047,-0.00044,1e-05,0,-1e-05,5,4
20948,-5e-05,-0.00014,-0.00033,-0.00047,-0.00044,1e-05,0,-1e-05,5,4
20949,-5e-05,-0.00014,-0.00033,-0.00047,-0.00044,1e-05,0,-1e-05,5,4
20950,-5e-05,-0.00014,-0.00033,-0.00047,-0.00044,1e-05,0,-1e-05,5,4
20951,-5e-05,-0.00014,-0.00033,-0.00047,-0.00044,1e-05,0,-1e-05,5,4
20952,-5e-05,-0.00014,-0.00033,-0.00047,-0.00044,1e-05,0,-1e-05,5,4
20953,-5e-05,-0.00014,-0.00033,-0.00047,-0.00044,1e-05,0,-1e-05,5,4
20954,-5e-05,-0.00014,-0.00033,-0.00047,-0.00044,1e-05,0,-1e-05,5,4
20955,-5e-05,-0.00014,-0.00033,-0.00047,-0.00044,1e-05,0,-1e-05,5,4
20956,-5e-05,-0.00014,-0.00033,-0.00047,-0.00044,1e-05,0,-1e-05,5,4
20957,-5e-05,-0.00014,-0.00033,-0.00047,-0.00044,1e-05,0,-1e-05,5,4
20958,-5e-05,-0.00014,-0.00033,-0.00047,-0.00044,1e-05,0,-1e-05,5,4
20959,-5e-05,-0.00014,-0.00033,-0.00047,-0.00044,1e-05,0,-1e-05,5,4
20960,-5e-05,-0.00014,-0.00033,-0.00047,-0.00044,1e-05,0,-1e-05,5,4
20961,-5e-05,-0.00014,-0.00033,-0.00047,-0.00044,1e-05,0,-1e-05,5,4
20962,-5e-05,-0.00014,-0.00033,-0.00047,-0.00044,1e-05,0,-1e-05,5,4
20963,-5e-05,-0.00014,-0.00033,-0.00047,-0.00044,1e-05,0,-1e-05,5,4
20964,-2e-05,0,2e-05,0.00018,0.00051,8e-05,-3e-05,-0.0001,5,4
20965,2e-05,4e-05,7e-05,0.00018,0.00011,1e-05,0,0,5,4
20966,2e-05,4e-05,7e-05,0.00018,0.00011,1e-05,0,0,5,4
20967,2e-05,4e-05,7e-05,0.00018,0.00011,1e-05,0,0,5,4
20968,2e-05,4e-05,7e-05,0.00018,0.00011,1e-05,0,0,5,4
20969,2e-05,4e-05,7e-05,0.00018,0.00011,1e-05,0,0,5,4
20970,2e-05,4e-05,7e-05,0.00018,0.00011,1e-05,0,0,5,4
20972,2e-05,4e-05,7e-05,0.00018,0.00011,1e-05,0,0,5,4
20973,2e-05,4e-05,7e-05,0.00018,0.00011,1e-05,0,0,5,4
20974,2e-05,4e-05,7e-05,0.00018,0.00011,1e-05,0,0,5,4
20975,2e-05,4e-05,7e-05,0.00018,0.00011,1e-05,0,0,5,4
20976,2e-05,4e-05,7e-05,0.00018,0.00011,1e-05,0,0,5,4
20977,0.00012,0.00016,0.00031,0.00018,-0.00029,3e-05,4e-05,8e-05,5,4
20978,0.00012,0.00016,0.00031,0.00018,-0.00029,3e-05,4e-05,8e-05,5,4
20979,0.00012,0.00016,0.00031,0.00018,-0.00029,3e-05,4e-05,8e-05,5,4
20980,0.00012,0.00016,0.00031,0.00018,-0.00029,3e-05,4e-05,8e-05,5,4
20981,0.00012,0.00016,0.00031,0.00018,-0.00029,3e-05,4e-05,8e-05,5,4
20982,0.00012,0.00016,0.00031,0.00018,-0.00029,3e-05,4e-05,8e-05,5,4
20983,0.00012,0.00016,0.00031,0.00018,-0.00029,3e-05,4e-05,8e-05,5,4
20984,0.00012,0.00016,0.00031,0.00018,-0.00029,3e-05,4e-05,8e-05,5,4
20985,0.00012,0.00016,0.00031,0.00018,-0.00029,3e-05,4e-05,8e-05,5,4
20986,0.00012,0.00016,0.00031,0.00018,-0.00029,3e-05,4e-05,8e-05,5,4
20987,0.00012,0.00016,0.00031,0.00018,-0.00029,3e-05,4e-05,8e-05,5,4
20988,2e-05,5e-05,0.00014,0.00011,-4e-05,3e-05,-2e-05,-1e-05,5,4
20989,2e-05,5e-05,0.00014,0.00011,-4e-05,3e-05,-2e-05,-1e-05,5,4
20990,2e-05,5e-05,0.00014,0.00011,-4e-05,3e-05,-2e-05,-1e-05,5,4
20991,2e-05,5e-05,0.00014,0.00011,-4e-05,3e-05,-2e-05,-1e-05,5,4
20992,2e-05,5e-05,0.00014,0.00011,-4e-05,3e-05,-2e-05,-1e-05,5,4
20993,2e-05,5e-05,0.00014,0.00011,-4e-05,3e-05,-2e-05,-1e-05,5,4
20994,2e-05,5e-05,0.00014,0.00011,-4e-05,3e-05,-2e-05,-1e-05,5,4
20995,2e-05,5e-05,0.00014,0.00011,-4e-05,3e-05,-2e-05,-1e-05,5,4
20996,2e-05,5e-05,0.00014,0.00011,-4e-05,3e-05,-2e-05,-1e-05,5,4
20997,2e-05,5e-05,0.00014,0.00011,-4e-05,3e-05,-2e-05,-1e-05,5,4
20998,2e-05,5e-05,0.00014,0.00011,-4e-05,3e-05,-2e-05,-1e-05,5,4
20999,2e-05,5e-05,0.00014,0.00011,-4e-05,3e-05,-2e-05,-1e-05,5,4
21000,2e-05,5e-05,0.00014,0.00011,-4e-05,3e-05,-2e-05,-1e-05,5,4
21001,-1e-05,-8e-05,-7e-05,0.00031,0.00058,2e-05,5e-05,-2e-05,5,4
21002,-1e-05,-8e-05,-7e-05,0.00031,0.00058,2e-05,5e-05,-2e-05,5,4
21003,5e-05,5e-05,0.00018,0.00044,0.00018,-1e-05,4e-05,-1e-05,5,4
21004,5e-05,5e-05,0.00018,0.00044,0.00018,-1e-05,4e-05,-1e-05,5,4
21005,5e-05,5e-05,0.00018,0.00044,0.00018,-1e-05,4e-05,-1e-05,5,4
21006,5e-05,5e-05,0.00018,0.00044,0.00018,-1e-05,4e-05,-1e-05,5,4
21007,5e-05,5e-05,0.00018,0.00044,0.00018,-1e-05,4e-05,-1e-05,5,4
21008,5e-05,5e-05,0.00018,0.00044,0.00018,-1e-05,4e-05,-1e-05,5,4
21009,5e-05,5e-05,0.00018,0.00044,0.00018,-1e-05,4e-05,-1e-05,5,4
21010,5e-05,5e-05,0.00018,0.00044,0.00018,-1e-05,4e-05,-1e-05,5,4
21011,5e-05,5e-05,0.00018,0.00044,0.00018,-1e-05,4e-05,-1e-05,5,4
21012,5e-05,5e-05,0.00018,0.00044,0.00018,-1e-05,4e-05,-1e-05,5,4
21013,5e-05,5e-05,0.00018,0.00044,0.00018,-1e-05,4e-05,-1e-05,5,4
21014,5e-05,5e-05,0.00018,0.00044,0.00018,-1e-05,4e-05,-1e-05,5,4
21015,5e-05,5e-05,0.00018,0.00044,0.00018,-1e-05,4e-05,-1e-05,5,4
21016,5e-05,5e-05,0.00018,0.00044,0.00018,-1e-05,4e-05,-1e-05,5,4
21017,5e-05,5e-05,0.00018,0.00044,0.00018,-1e-05,4e-05,-1e-05,5,4
21018,5e-05,5e-05,0.00018,0.00044,0.00018,-1e-05,4e-05,-1e-05,5,4
21020,5e-05,5e-05,0.00018,0.00044,0.00018,-1e-05,4e-05,-1e-05,5,4
21021,5e-05,5e-05,0.00018,0.00044,0.00018,-1e-05,4e-05,-1e-05,5,4
21022,5e-05,5e-05,0.00018,0.00044,0.00018,-1e-05,4e-05,-1e-05,5,4
21023,5e-05,5e-05,0.00018,0.00044,0.00018,-1e-05,4e-05,-1e-05,5,4
21024,1e-05,-1e-05,6e-05,0.00032,0.00038,3e-05,3e-05,-2e-05,5,4
21025,-6e-05,-6e-05,-0.0001,-0.00063,-0.00045,-8e-05,-8e-05,3e-05,5,4
21026,-6e-05,-6e-05,-0.0001,-0.00063,-0.00045,-8e-05,-8e-05,3e-05,5,4
21027,-6e-05,-6e-05,-0.0001,-0.00063,-0.00045,-8e-05,-8e-05,3e-05,5,4
21028,-6e-05,-6e-05,-0.0001,-0.00063,-0.00045,-8e-05,-8e-05,3e-05,5,4
21029,-6e-05,-6e-05,-0.0001,-0.00063,-0.00045,-8e-05,-8e-05,3e-05,5,4
21030,-6e-05,-6e-05,-0.0001,-0.00063,-0.00045,-8e-05,-8e-05,3e-05,5,4
21031,-6e-05,-6e-05,-0.0001,-0.00063,-0.00045,-8e-05,-8e-05,3e-05,5,4
21032,-6e-05,-6e-05,-0.0001,-0.00063,-0.00045,-8e-05,-8e-05,3e-05,5,4
21033,-6e-05,-6e-05,-0.0001,-0.00063,-0.00045,-8e-05,-8e-05,3e-05,5,4
21034,-6e-05,-6e-05,-0.0001,-0.00063,-0.00045,-8e-05,-8e-05,3e-05,5,4
21035,-6e-05,-6e-05,-0.0001,-0.00063,-0.00045,-8e-05,-8e-05,3e-05,5,4
21036,-6e-05,-6e-05,-0.0001,-0.00063,-0.00045,-8e-05,-8e-05,3e-05,5,4
21037,-6e-05,-6e-05,-0.0001,-0.00063,-0.00045,-8e-05,-8e-05,3e-05,5,4
21038,-6e-05,-0.00012,-0.00021,-0.00036,-0.00023,-6e-05,-6e-05,-9e-05,5,4
21039,-6e-05,-0.00012,-0.00021,-0.00036,-0.00023,-6e-05,-6e-05,-9e-05,5,4
21040,-6e-05,-0.00012,-0.00021,-0.00036,-0.00023,-6e-05,-6e-05,-9e-05,5,4
21041,-6e-05,-0.00012,-0.00021,-0.00036,-0.00023,-6e-05,-6e-05,-9e-05,5,4
21042,-6e-05,-0.00012,-0.00021,-0.00036,-0.00023,-6e-05,-6e-05,-9e-05,5,4
21043,-6e-05,-0.00012,-0.00021,-0.00036,-0.00023,-6e-05,-6e-05,-9e-05,5,4
21044,-6e-05,-0.00012,-0.00021,-0.00036,-0.00023,-6e-05,-6e-05,-9e-05,5,4
21045,-6e-05,-0.00012,-0.00021,-0.00036,-0.00023,-6e-05,-6e-05,-9e-05,5,4
21046,-0.00037,-7e-05,-0.00022,-0.00022,-0.00033,-7e-05,-2e-05,-5e-05,5,4
21047,-0.00037,-7e-05,-0.00022,-0.00022,-0.00033,-7e-05,-2e-05,-5e-05,5,4
21048,-0.00037,-7e-05,-0.00022,-0.00022,-0.00033,-7e-05,-2e-05,-5e-05,5,4
21049,-0.00037,-7e-05,-0.00022,-0.00022,-0.00033,-7e-05,-2e-05,-5e-05,5,4
21050,-0.00037,-7e-05,-0.00022,-0.00022,-0.00033,-7e-05,-2e-05,-5e-05,5,4
21051,-0.00037,-7e-05,-0.00022,-0.00022,-0.00033,-7e-05,-2e-05,-5e-05,5,4
21052,-0.00037,-7e-05,-0.00022,-0.00022,-0.00033,-7e-05,-2e-05,-5e-05,5,4
21053,-0.00037,-7e-05,-0.00022,-0.00022,-0.00033,-7e-05,-2e-05,-5e-05,5,4
21054,-0.00037,-7e-05,-0.00022,-0.00022,-0.00033,-7e-05,-2e-05,-5e-05,5,4
21055,-0.00037,-7e-05,-0.00022,-0.00022,-0.00033,-7e-05,-2e-05,-5e-05,5,4
21056,-0.00037,-7e-05,-0.00022,-0.00022,-0.00033,-7e-05,-2e-05,-5e-05,5,4
21057,-0.00037,-7e-05,-0.00022,-0.00022,-0.00033,-7e-05,-2e-05,-5e-05,5,4
21058,-0.00037,-7e-05,-0.00022,-0.00022,-0.00033,-7e-05,-2e-05,-5e-05,5,4
21059,-0.00037,-7e-05,-0.00022,-0.00022,-0.00033,-7e-05,-2e-05,-5e-05,5,4
21060,-0.00037,-7e-05,-0.00022,-0.00022,-0.00033,-7e-05,-2e-05,-5e-05,5,4
21061,-4e-05,-4e-05,-0.00024,-0.00048,-5e-05,-7e-05,3e-05,5e-05,5,4
21062,-4e-05,-4e-05,-0.00024,-0.00048,-5e-05,-7e-05,3e-05,5e-05,5,4
21063,0.00012,-7e-05,-0.00017,-0.00034,-0.00021,3e-05,-5e-05,2e-05,5,4
21064,0.00012,-7e-05,-0.00017,-0.00034,-0.00021,3e-05,-5e-05,2e-05,5,4
21065,0.00012,-7e-05,-0.00017,-0.00034,-0.00021,3e-05,-5e-05,2e-05,5,4
21067,0.00012,-7e-05,-0.00017,-0.00034,-0.00021,3e-05,-5e-05,2e-05,5,4
21068,0.00012,-7e-05,-0.00017,-0.00034,-0.00021,3e-05,-5e-05,2e-05,5,4
21069,0.00012,-7e-05,-0.00017,-0.00034,-0.00021,3e-05,-5e-05,2e-05,5,4
21070,0.00012,-7e-05,-0.00017,-0.00034,-0.00021,3e-05,-5e-05,2e-05,5,4
21071,0.00012,-7e-05,-0.00017,-0.00034,-0.00021,3e-05,-5e-05,2e-05,5,4
21072,0.00012,-7e-05,-0.00017,-0.00034,-0.00021,3e-05,-5e-05,2e-05,5,4
21073,0.00012,-7e-05,-0.00017,-0.00034,-0.00021,3e-05,-5e-05,2e-05,5,4
21074,0.00012,-7e-05,-0.00017,-0.00034,-0.00021,3e-05,-5e-05,2e-05,5,4
21075,0.00012,-7e-05,-0.00017,-0.00034,-0.00021,3e-05,-5e-05,2e-05,5,4
21076,0.00012,-7e-05,-0.00017,-0.00034,-0.00021,3e-05,-5e-05,2e-05,5,4
21077,0.00012,-7e-05,-0.00017,-0.00034,-0.00021,3e-05,-5e-05,2e-05,5,4
21078,0.00012,-7e-05,-0.00017,-0.00034,-0.00021,3e-05,-5e-05,2e-05,5,4
21079,0.00012,-7e-05,-0.00017,-0.00034,-0.00021,3e-05,-5e-05,2e-05,5,4
21080,0.00012,-7e-05,-0.00017,-0.00034,-0.00021,3e-05,-5e-05,2e-05,5,4
21081,0.00012,-7e-05,-0.00017,-0.00034,-0.00021,3e-05,-5e-05,2e-05,5,4
21082,0.00012,-7e-05,-0.00017,-0.00034,-0.00021,3e-05,-5e-05,2e-05,5,4
21083,0.00012,-7e-05,-0.00017,-0.00034,-0.00021,3e-05,-5e-05,2e-05,5,4
21084,6e-05,3e-05,9e-05,3e-05,-0.00046,-7e-05,-1e-05,-2e-05,5,4
21085,9e-05,-0.00013,-0.00047,3e-05,0.00127,0.00012,8e-05,1e-05,5,4
21086,9e-05,-0.00013,-0.00047,3e-05,0.00127,0.00012,8e-05,1e-05,5,4
21087,9e-05,-0.00013,-0.00047,3e-05,0.00127,0.00012,8e-05,1e-05,5,4
21088,9e-05,-0.00013,-0.00047,3e-05,0.00127,0.00012,8e-05,1e-05,5,4
21089,9e-05,-0.00013,-0.00047,3e-05,0.00127,0.00012,8e-05,1e-05,5,4
21090,9e-05,-0.00013,-0.00047,3e-05,0.00127,0.00012,8e-05,1e-05,5,4
21091,9e-05,-0.00013,-0.00047,3e-05,0.00127,0.00012,8e-05,1e-05,5,4
21092,9e-05,-0.00013,-0.00047,3e-05,0.00127,0.00012,8e-05,1e-05,5,4
21093,9e-05,-0.00013,-0.00047,3e-05,0.00127,0.00012,8e-05,1e-05,5,4
21094,9e-05,-0.00013,-0.00047,3e-05,0.00127,0.00012,8e-05,1e-05,5,4
21095,9e-05,-0.00013,-0.00047,3e-05,0.00127,0.00012,8e-05,1e-05,5,4
21096,9e-05,-0.00013,-0.00047,3e-05,0.00127,0.00012,8e-05,1e-05,5,4
21097,9e-05,9e-05,0.00018,0.00014,-0.0003,0.00011,1e-05,8e-05,5,4
21098,9e-05,9e-05,0.00018,0.00014,-0.0003,0.00011,1e-05,8e-05,5,4
21099,9e-05,9e-05,0.00018,0.00014,-0.0003,0.00011,1e-05,8e-05,5,4
21100,9e-05,9e-05,0.00018,0.00014,-0.0003,0.00011,1e-05,8e-05,5,4
21101,9e-05,9e-05,0.00018,0.00014,-0.0003,0.00011,1e-05,8e-05,5,4
21102,9e-05,9e-05,0.00018,0.00014,-0.0003,0.00011,1e-05,8e-05,5,4
21103,9e-05,9e-05,0.00018,0.00014,-0.0003,0.00011,1e-05,8e-05,5,4
21104,9e-05,9e-05,0.00018,0.00014,-0.0003,0.00011,1e-05,8e-05,5,4
21105,9e-05,9e-05,0.00018,0.00014,-0.0003,0.00011,1e-05,8e-05,5,4
21106,0.00012,0.00024,0.00036,0.00017,-0.00021,4e-05,2e-05,5e-05,5,4
21107,0.00012,0.00024,0.00036,0.00017,-0.00021,4e-05,2e-05,5e-05,5,4
21108,0.00012,0.00024,0.00036,0.00017,-0.00021,4e-05,2e-05,5e-05,5,4
21109,0.00012,0.00024,0.00036,0.00017,-0.00021,4e-05,2e-05,5e-05,5,4
21110,0.00012,0.00024,0.00036,0.00017,-0.00021,4e-05,2e-05,5e-05,5,4
21111,0.00012,0.00024,0.00036,0.00017,-0.00021,4e-05,2e-05,5e-05,5,4
21113,0.00012,0.00024,0.00036,0.00017,-0.00021,4e-05,2e-05,5e-05,5,4
21114,0.00012,0.00024,0.00036,0.00017,-0.00021,4e-05,2e-05,5e-05,5,4
21115,0.00012,0.00024,0.00036,0.00017,-0.00021,4e-05,2e-05,5e-05,5,4
21116,0.00012,0.00024,0.00036,0.00017,-0.00021,4e-05,2e-05,5e-05,5,4
21117,0.00012,0.00024,0.00036,0.00017,-0.00021,4e-05,2e-05,5e-05,5,4
21118,0.00012,0.00024,0.00036,0.00017,-0.00021,4e-05,2e-05,5e-05,5,4
21119,0.00012,0.00024,0.00036,0.00017,-0.00021,4e-05,2e-05,5e-05,5,4
21120,0.00012,0.00024,0.00036,0.00017,-0.00021,4e-05,2e-05,5e-05,5,4
21121,0,-7e-05,-0.00017,-0.0001,0.00016,2e-05,-4e-05,-5e-05,5,4
21122,0,-7e-05,-0.00017,-0.0001,0.00016,2e-05,-4e-05,-5e-05,5,4
21123,-6e-05,-5e-05,-6e-05,0.00025,0.00049,4e-05,1e-05,-7e-05,5,4
21124,-6e-05,-5e-05,-6e-05,0.00025,0.00049,4e-05,1e-05,-7e-05,5,4
21125,-6e-05,-5e-05,-6e-05,0.00025,0.00049,4e-05,1e-05,-7e-05,5,4
21126,-6e-05,-5e-05,-6e-05,0.00025,0.00049,4e-05,1e-05,-7e-05,5,4
21127,-6e-05,-5e-05,-6e-05,0.00025,0.00049,4e-05,1e-05,-7e-05,5,4
21128,-6e-05,-5e-05,-6e-05,0.00025,0.00049,4e-05,1e-05,-7e-05,5,4
21129,-6e-05,-5e-05,-6e-05,0.00025,0.00049,4e-05,1e-05,-7e-05,5,4
21130,-6e-05,-5e-05,-6e-05,0.00025,0.00049,4e-05,1e-05,-7e-05,5,4
21131,-6e-05,-5e-05,-6e-05,0.00025,0.00049,4e-05,1e-05,-7e-05,5,4
21132,-6e-05,-5e-05,-6e-05,0.00025,0.00049,4e-05,1e-05,-7e-05,5,4
21133,-6e-05,-5e-05,-6e-05,0.00025,0.00049,4e-05,1e-05,-7e-05,5,4
21134,-6e-05,-5e-05,-6e-05,0.00025,0.00049,4e-05,1e-05,-7e-05,5,4
21135,-6e-05,-5e-05,-6e-05,0.00025,0.00049,4e-05,1e-05,-7e-05,5,4
21136,-6e-05,-5e-05,-6e-05,0.00025,0.00049,4e-05,1e-05,-7e-05,5,4
21137,-6e-05,-5e-05,-6e-05,0.00025,0.00049,4e-05,1e-05,-7e-05,5,4
21138,-6e-05,-5e-05,-6e-05,0.00025,0.00049,4e-05,1e-05,-7e-05,5,4
21139,-6e-05,-5e-05,-6e-05,0.00025,0.00049,4e-05,1e-05,-7e-05,5,4
21140,-6e-05,-5e-05,-6e-05,0.00025,0.00049,4e-05,1e-05,-7e-05,5,4
21141,-6e-05,-5e-05,-6e-05,0.00025,0.00049,4e-05,1e-05,-7e-05,5,4
21142,-6e-05,-5e-05,-6e-05,0.00025,0.00049,4e-05,1e-05,-7e-05,5,4
21143,-6e-05,-5e-05,-6e-05,0.00025,0.00049,4e-05,1e-05,-7e-05,5,4
21144,-0.00013,0,0.00011,0.0004,-0.00018,-8e-05,-7e-05,-7e-05,5,4
21145,6e-05,4e-05,0.00027,0.00041,-1e-05,8e-05,7e-05,7e-05,5,4
21146,6e-05,4e-05,0.00027,0.00041,-1e-05,8e-05,7e-05,7e-05,5,4
21147,6e-05,4e-05,0.00027,0.00041,-1e-05,8e-05,7e-05,7e-05,5,4
21148,6e-05,4e-05,0.00027,0.00041,-1e-05,8e-05,7e-05,7e-05,5,4
21149,6e-05,4e-05,0.00027,0.00041,-1e-05,8e-05,7e-05,7e-05,5,4
21150,6e-05,4e-05,0.00027,0.00041,-1e-05,8e-05,7e-05,7e-05,5,4
21151,6e-05,4e-05,0.00027,0.00041,-1e-05,8e-05,7e-05,7e-05,5,4
21152,6e-05,4e-05,0.00027,0.00041,-1e-05,8e-05,7e-05,7e-05,5,4
21153,6e-05,4e-05,0.00027,0.00041,-1e-05,8e-05,7e-05,7e-05,5,4
21154,6e-05,4e-05,0.00027,0.00041,-1e-05,8e-05,7e-05,7e-05,5,4
21155,6e-05,4e-05,0.00027,0.00041,-1e-05,8e-05,7e-05,7e-05,5,4
21156,6e-05,4e-05,0.00027,0.00041,-1e-05,8e-05,7e-05,7e-05,5,4
21157,-3e-05,3e-05,2e-05,-0.00027,-0.00027,-9e-05,-2e-05,-4e-05,5,4
21158,3e-05,6e-05,0.00017,0.00058,0.00094,9e-05,3e-05,5e-05,5,4
21159,3e-05,6e-05,0.00017,0.00058,0.00094,9e-05,3e-05,5e-05,5,4
21160,3e-05,6e-05,0.00017,0.00058,0.00094,9e-05,3e-05,5e-05,5,4
21161,3e-05,6e-05,0.00017,0.00058,0.00094,9e-05,3e-05,5e-05,5,4
21162,3e-05,6e-05,0.00017,0.00058,0.00094,9e-05,3e-05,5e-05,5,4
21163,3e-05,6e-05,0.00017,0.00058,0.00094,9e-05,3e-05,5e-05,5,4
21164,3e-05,6e-05,0.00017,0.00058,0.00094,9e-05,3e-05,5e-05,5,4
21165,3e-05,6e-05,0.00017,0.00058,0.00094,9e-05,3e-05,5e-05,5,4
21166,5e-05,-5e-05,-0.00017,-0.00053,0.00031,-5e-05,-3e-05,-1e-05,5,4
21167,5e-05,-5e-05,-0.00017,-0.00053,0.00031,-5e-05,-3e-05,-1e-05,5,4
21168,5e-05,-5e-05,-0.00017,-0.00053,0.00031,-5e-05,-3e-05,-1e-05,5,4
21169,5e-05,-5e-05,-0.00017,-0.00053,0.00031,-5e-05,-3e-05,-1e-05,5,4
21170,5e-05,-5e-05,-0.00017,-0.00053,0.00031,-5e-05,-3e-05,-1e-05,5,4
21171,5e-05,-5e-05,-0.00017,-0.00053,0.00031,-5e-05,-3e-05,-1e-05,5,4
21172,5e-05,-5e-05,-0.00017,-0.00053,0.00031,-5e-05,-3e-05,-1e-05,5,4
21173,5e-05,-5e-05,-0.00017,-0.00053,0.00031,-5e-05,-3e-05,-1e-05,5,4
21174,5e-05,-5e-05,-0.00017,-0.00053,0.00031,-5e-05,-3e-05,-1e-05,5,4
21175,5e-05,-5e-05,-0.00017,-0.00053,0.00031,-5e-05,-3e-05,-1e-05,5,4
21176,5e-05,-5e-05,-0.00017,-0.00053,0.00031,-5e-05,-3e-05,-1e-05,5,4
21177,5e-05,-5e-05,-0.00017,-0.00053,0.00031,-5e-05,-3e-05,-1e-05,5,4
21178,5e-05,-5e-05,-0.00017,-0.00053,0.00031,-5e-05,-3e-05,-1e-05,5,4
21179,5e-05,-5e-05,-0.00017,-0.00053,0.00031,-5e-05,-3e-05,-1e-05,5,4
21180,5e-05,-5e-05,-0.00017,-0.00053,0.00031,-5e-05,-3e-05,-1e-05,5,4
21181,-0.00012,-8e-05,-0.00021,-0.00032,-0.00022,-4e-05,-2e-05,-3e-05,5,4
21182,-0.00012,-8e-05,-0.00021,-0.00032,-0.00022,-4e-05,-2e-05,-3e-05,5,4
21183,-0.00021,-3e-05,0.00011,-0.00018,-0.00018,-5e-05,4e-05,-0.00012,5,4
21184,-0.00021,-3e-05,0.00011,-0.00018,-0.00018,-5e-05,4e-05,-0.00012,5,4
21185,-0.00021,-3e-05,0.00011,-0.00018,-0.00018,-5e-05,4e-05,-0.00012,5,4
21186,-0.00021,-3e-05,0.00011,-0.00018,-0.00018,-5e-05,4e-05,-0.00012,5,4
21187,-0.00021,-3e-05,0.00011,-0.00018,-0.00018,-5e-05,4e-05,-0.00012,5,4
21188,-0.00021,-3e-05,0.00011,-0.00018,-0.00018,-5e-05,4e-05,-0.00012,5,4
21189,-0.00021,-3e-05,0.00011,-0.00018,-0.00018,-5e-05,4e-05,-0.00012,5,4
21190,-0.00021,-3e-05,0.00011,-0.00018,-0.00018,-5e-05,4e-05,-0.00012,5,4
21191,-0.00021,-3e-05,0.00011,-0.00018,-0.00018,-5e-05,4e-05,-0.00012,5,4
21192,-0.00021,-3e-05,0.00011,-0.00018,-0.00018,-5e-05,4e-05,-0.00012,5,4
21193,-0.00021,-3e-05,0.00011,-0.00018,-0.00018,-5e-05,4e-05,-0.00012,5,4
21194,-0.00021,-3e-05,0.00011,-0.00018,-0.00018,-5e-05,4e-05,-0.00012,5,4
21195,-0.00021,-3e-05,0.00011,-0.00018,-0.00018,-5e-05,4e-05,-0.00012,5,4
21196,-0.00021,-3e-05,0.00011,-0.00018,-0.00018,-5e-05,4e-05,-0.00012,5,4
21197,-0.00021,-3e-05,0.00011,-0.00018,-0.00018,-5e-05,4e-05,-0.00012,5,4
21198,-0.00021,-3e-05,0.00011,-0.00018,-0.00018,-5e-05,4e-05,-0.00012,5,4
21199,-0.00021,-3e-05,0.00011,-0.00018,-0.00018,-5e-05,4e-05,-0.00012,5,4
21200,-0.00021,-3e-05,0.00011,-0.00018,-0.00018,-5e-05,4e-05,-0.00012,5,4
21201,-0.00021,-3e-05,0.00011,-0.00018,-0.00018,-5e-05,4e-05,-0.00012,5,4
21202,-0.00021,-3e-05,0.00011,-0.00018,-0.00018,-5e-05,4e-05,-0.00012,5,4
21203,-0.00021,-3e-05,0.00011,-0.00018,-0.00018,-5e-05,4e-05,-0.00012,5,4
21204,-6e-05,-3e-05,-0.00011,-0.0005,-0.00045,-4e-05,-5e-05,-4e-05,5,4
21205,-6e-05,-3e-05,-0.00011,-0.0005,-0.00045,-4e-05,-5e-05,-4e-05,5,4
21206,-0.00016,1e-05,-0.00011,2e-05,-0.00032,-6e-05,-6e-05,-0.0001,5,4
21207,-0.00016,1e-05,-0.00011,2e-05,-0.00032,-6e-05,-6e-05,-0.0001,5,4
21208,-0.00016,1e-05,-0.00011,2e-05,-0.00032,-6e-05,-6e-05,-0.0001,5,4
21209,-0.00016,1e-05,-0.00011,2e-05,-0.00032,-6e-05,-6e-05,-0.0001,5,4
21210,-0.00016,1e-05,-0.00011,2e-05,-0.00032,-6e-05,-6e-05,-0.0001,5,4
21211,-0.00016,1e-05,-0.00011,2e-05,-0.00032,-6e-05,-6e-05,-0.0001,5,4
21212,-0.00016,1e-05,-0.00011,2e-05,-0.00032,-6e-05,-6e-05,-0.0001,5,4
21213,-0.00016,1e-05,-0.00011,2e-05,-0.00032,-6e-05,-6e-05,-0.0001,5,4
21214,-0.00016,1e-05,-0.00011,2e-05,-0.00032,-6e-05,-6e-05,-0.0001,5,4
21215,-0.00016,1e-05,-0.00011,2e-05,-0.00032,-6e-05,-6e-05,-0.0001,5,4
21216,-0.00016,1e-05,-0.00011,2e-05,-0.00032,-6e-05,-6e-05,-0.0001,5,4
21217,-0.00016,1e-05,-0.00011,2e-05,-0.00032,-6e-05,-6e-05,-0.0001,5,4
21218,-0.00016,1e-05,-0.00011,2e-05,-0.00032,-6e-05,-6e-05,-0.0001,5,4
21219,-0.00016,1e-05,-0.00011,2e-05,-0.00032,-6e-05,-6e-05,-0.0001,5,4
21220,-0.00016,1e-05,-0.00011,2e-05,-0.00032,-6e-05,-6e-05,-0.0001,5,4
21221,-0.00016,1e-05,-0.00011,2e-05,-0.00032,-6e-05,-6e-05,-0.0001,5,4
21222,-0.00016,1e-05,-0.00011,2e-05,-0.00032,-6e-05,-6e-05,-0.0001,5,4
21223,-0.00016,1e-05,-0.00011,2e-05,-0.00032,-6e-05,-6e-05,-0.0001,5,4
21224,-0.00016,1e-05,-0.00011,2e-05,-0.00032,-6e-05,-6e-05,-0.0001,5,4
21225,-0.00016,1e-05,-0.00011,2e-05,-0.00032,-6e-05,-6e-05,-0.0001,5,4
21226,9e-05,9e-05,0.00017,-0.00025,-0.00098,-1e-05,7e-05,5e-05,5,4
21227,9e-05,9e-05,0.00017,-0.00025,-0.00098,-1e-05,7e-05,5e-05,5,4
21228,-0.00012,-3e-05,-0.00021,0.00044,0.00082,0.00014,0,1e-05,5,4
21229,-0.00012,-3e-05,-0.00021,0.00044,0.00082,0.00014,0,1e-05,5,4
21230,-0.00012,-3e-05,-0.00021,0.00044,0.00082,0.00014,0,1e-05,5,4
21231,-0.00012,-3e-05,-0.00021,0.00044,0.00082,0.00014,0,1e-05,5,4
21232,-0.00012,-3e-05,-0.00021,0.00044,0.00082,0.00014,0,1e-05,5,4
21233,-0.00012,-3e-05,-0.00021,0.00044,0.00082,0.00014,0,1e-05,5,4
21234,-0.00012,-3e-05,-0.00021,0.00044,0.00082,0.00014,0,1e-05,5,4
21235,-0.00012,-3e-05,-0.00021,0.00044,0.00082,0.00014,0,1e-05,5,4
21236,-0.00012,-3e-05,-0.00021,0.00044,0.00082,0.00014,0,1e-05,5,4
21237,-0.00012,-3e-05,-0.00021,0.00044,0.00082,0.00014,0,1e-05,5,4
21238,-0.00012,-3e-05,-0.00021,0.00044,0.00082,0.00014,0,1e-05,5,4
21239,-0.00012,-3e-05,-0.00021,0.00044,0.00082,0.00014,0,1e-05,5,4
21240,-0.00012,-3e-05,-0.00021,0.00044,0.00082,0.00014,0,1e-05,5,4
21241,0.0001,-9e-05,-0.00018,-0.00077,-0.00056,-4e-05,-5e-05,1e-05,5,4
21242,-0.00014,-3e-05,-3e-05,-0.00019,3e-05,-3e-05,-2e-05,-1e-05,5,4
21243,0.00026,-3e-05,4e-05,0.00035,0.00043,-5e-05,-3e-05,2e-05,5,4
21244,0.00026,-3e-05,4e-05,0.00035,0.00043,-5e-05,-3e-05,2e-05,5,4
21245,0.00026,-3e-05,4e-05,0.00035,0.00043,-5e-05,-3e-05,2e-05,5,4
21246,0.00026,-3e-05,4e-05,0.00035,0.00043,-5e-05,-3e-05,2e-05,5,4
21247,0.00026,-3e-05,4e-05,0.00035,0.00043,-5e-05,-3e-05,2e-05,5,4
21248,0.00026,-3e-05,4e-05,0.00035,0.00043,-5e-05,-3e-05,2e-05,5,4
21249,0.00026,-3e-05,4e-05,0.00035,0.00043,-5e-05,-3e-05,2e-05,5,4
21250,0.00026,-3e-05,4e-05,0.00035,0.00043,-5e-05,-3e-05,2e-05,5,4
21251,0.00026,-3e-05,4e-05,0.00035,0.00043,-5e-05,-3e-05,2e-05,5,4
21253,0.00026,-3e-05,4e-05,0.00035,0.00043,-5e-05,-3e-05,2e-05,5,4
21254,0.00026,-3e-05,4e-05,0.00035,0.00043,-5e-05,-3e-05,2e-05,5,4
21255,0.00026,-3e-05,4e-05,0.00035,0.00043,-5e-05,-3e-05,2e-05,5,4
21256,0.00026,-3e-05,4e-05,0.00035,0.00043,-5e-05,-3e-05,2e-05,5,4
21257,0.00026,-3e-05,4e-05,0.00035,0.00043,-5e-05,-3e-05,2e-05,5,4
21258,0.00026,-3e-05,4e-05,0.00035,0.00043,-5e-05,-3e-05,2e-05,5,4
21259,0.00026,-3e-05,4e-05,0.00035,0.00043,-5e-05,-3e-05,2e-05,5,4
21260,0.00026,-3e-05,4e-05,0.00035,0.00043,-5e-05,-3e-05,2e-05,5,4
21261,0.00026,-3e-05,4e-05,0.00035,0.00043,-5e-05,-3e-05,2e-05,5,4
21262,0.00026,-3e-05,4e-05,0.00035,0.00043,-5e-05,-3e-05,2e-05,5,4
21263,0.00026,-3e-05,4e-05,0.00035,0.00043,-5e-05,-3e-05,2e-05,5,4
21264,0.0001,-7e-05,-0.00015,1e-05,9e-05,2e-05,0,2e-05,5,4
21265,-0.00015,4e-05,0.00017,-0.00039,-0.00099,-4e-05,-4e-05,4e-05,5,4
21266,-0.00015,4e-05,0.00017,-0.00039,-0.00099,-4e-05,-4e-05,4e-05,5,4
21267,-0.00015,4e-05,0.00017,-0.00039,-0.00099,-4e-05,-4e-05,4e-05,5,4
21268,-0.00015,4e-05,0.00017,-0.00039,-0.00099,-4e-05,-4e-05,4e-05,5,4
21269,-0.00015,4e-05,0.00017,-0.00039,-0.00099,-4e-05,-4e-05,4e-05,5,4
21270,-0.00015,4e-05,0.00017,-0.00039,-0.00099,-4e-05,-4e-05,4e-05,5,4
21271,-0.00015,4e-05,0.00017,-0.00039,-0.00099,-4e-05,-4e-05,4e-05,5,4
21272,-0.00015,4e-05,0.00017,-0.00039,-0.00099,-4e-05,-4e-05,4e-05,5,4
21273,-0.00015,4e-05,0.00017,-0.00039,-0.00099,-4e-05,-4e-05,4e-05,5,4
21274,-0.00015,4e-05,0.00017,-0.00039,-0.00099,-4e-05,-4e-05,4e-05,5,4
21275,-0.00015,4e-05,0.00017,-0.00039,-0.00099,-4e-05,-4e-05,4e-05,5,4
21276,-0.00015,4e-05,0.00017,-0.00039,-0.00099,-4e-05,-4e-05,4e-05,5,4
21277,-0.00015,4e-05,0.00017,-0.00039,-0.00099,-4e-05,-4e-05,4e-05,5,4
21278,-0.00015,4e-05,0.00017,-0.00039,-0.00099,-4e-05,-4e-05,4e-05,5,4
21279,-0.00015,4e-05,0.00017,-0.00039,-0.00099,-4e-05,-4e-05,4e-05,5,4
21280,-0.00015,4e-05,0.00017,-0.00039,-0.00099,-4e-05,-4e-05,4e-05,5,4
21281,-0.00015,4e-05,0.00017,-0.00039,-0.00099,-4e-05,-4e-05,4e-05,5,4
21282,-0.00015,4e-05,0.00017,-0.00039,-0.00099,-4e-05,-4e-05,4e-05,5,4
21283,-0.00015,4e-05,0.00017,-0.00039,-0.00099,-4e-05,-4e-05,4e-05,5,4
21284,-0.00015,4e-05,0.00017,-0.00039,-0.00099,-4e-05,-4e-05,4e-05,5,4
21285,-0.00015,4e-05,0.00017,-0.00039,-0.00099,-4e-05,-4e-05,4e-05,5,4
21286,0.00018,0.00011,-2e-05,0.00012,0.00043,0.00011,3e-05,6e-05,5,4
21288,0.00015,-3e-05,0.00026,0.00072,0.00051,2e-05,3e-05,-1e-05,5,4
21289,0.00015,-3e-05,0.00026,0.00072,0.00051,2e-05,3e-05,-1e-05,5,4
21290,0.00015,-3e-05,0.00026,0.00072,0.00051,2e-05,3e-05,-1e-05,5,4
21291,0.00015,-3e-05,0.00026,0.00072,0.00051,2e-05,3e-05,-1e-05,5,4
21292,0.00015,-3e-05,0.00026,0.00072,0.00051,2e-05,3e-05,-1e-05,5,4
21293,0.00015,-3e-05,0.00026,0.00072,0.00051,2e-05,3e-05,-1e-05,5,4
21294,0.00015,-3e-05,0.00026,0.00072,0.00051,2e-05,3e-05,-1e-05,5,4
21295,0.00015,-3e-05,0.00026,0.00072,0.00051,2e-05,3e-05,-1e-05,5,4
21296,0.00015,-3e-05,0.00026,0.00072,0.00051,2e-05,3e-05,-1e-05,5,4
21297,0.00015,-3e-05,0.00026,0.00072,0.00051,2e-05,3e-05,-1e-05,5,4
21298,0.00015,-3e-05,0.00026,0.00072,0.00051,2e-05,3e-05,-1e-05,5,4
21300,0.00015,-3e-05,0.00026,0.00072,0.00051,2e-05,3e-05,-1e-05,5,4
21301,5e-05,9e-05,6e-05,-0.00011,0.00021,-1e-05,1e-05,7e-05,5,4
21302,5e-05,9e-05,6e-05,-0.00011,0.00021,-1e-05,1e-05,7e-05,5,4
21303,5e-05,9e-05,6e-05,-0.00011,0.00021,-1e-05,1e-05,7e-05,5,4
21304,0,7e-05,0.0002,0.0007,0.00054,6e-05,9e-05,-1e-05,5,4
21305,0,7e-05,0.0002,0.0007,0.00054,6e-05,9e-05,-1e-05,5,4
21306,0,7e-05,0.0002,0.0007,0.00054,6e-05,9e-05,-1e-05,5,4
21307,0,7e-05,0.0002,0.0007,0.00054,6e-05,9e-05,-1e-05,5,4
21308,0,7e-05,0.0002,0.0007,0.00054,6e-05,9e-05,-1e-05,5,4
21309,0,7e-05,0.0002,0.0007,0.00054,6e-05,9e-05,-1e-05,5,4
21310,0,7e-05,0.0002,0.0007,0.00054,6e-05,9e-05,-1e-05,5,4
21311,0,7e-05,0.0002,0.0007,0.00054,6e-05,9e-05,-1e-05,5,4
21312,0,7e-05,0.0002,0.0007,0.00054,6e-05,9e-05,-1e-05,5,4
21313,0,7e-05,0.0002,0.0007,0.00054,6e-05,9e-05,-1e-05,5,4
21314,0,7e-05,0.0002,0.0007,0.00054,6e-05,9e-05,-1e-05,5,4
21315,0,7e-05,0.0002,0.0007,0.00054,6e-05,9e-05,-1e-05,5,4
21316,0,7e-05,0.0002,0.0007,0.00054,6e-05,9e-05,-1e-05,5,4
21317,0,7e-05,0.0002,0.0007,0.00054,6e-05,9e-05,-1e-05,5,4
21318,0,7e-05,0.0002,0.0007,0.00054,6e-05,9e-05,-1e-05,5,4
21319,0,7e-05,0.0002,0.0007,0.00054,6e-05,9e-05,-1e-05,5,4
21320,0,7e-05,0.0002,0.0007,0.00054,6e-05,9e-05,-1e-05,5,4
21321,0,7e-05,0.0002,0.0007,0.00054,6e-05,9e-05,-1e-05,5,4
21322,0,7e-05,0.0002,0.0007,0.00054,6e-05,9e-05,-1e-05,5,4
21323,-7e-05,-6e-05,-0.00026,-0.00052,-0.00058,-0.00012,-2e-05,-5e-05,5,4
21324,0.00021,6e-05,0.00016,0.00068,0.0005,5e-05,-1e-05,5e-05,5,4
21325,0.00021,6e-05,0.00016,0.00068,0.0005,5e-05,-1e-05,5e-05,5,4
21326,0.00021,6e-05,0.00016,0.00068,0.0005,5e-05,-1e-05,5e-05,5,4
21327,0.00021,6e-05,0.00016,0.00068,0.0005,5e-05,-1e-05,5e-05,5,4
21328,0.00021,6e-05,0.00016,0.00068,0.0005,5e-05,-1e-05,5e-05,5,4
21329,0.00021,6e-05,0.00016,0.00068,0.0005,5e-05,-1e-05,5e-05,5,4
21330,0.0001,-5e-05,-0.00019,-0.00015,0.00022,1e-05,7e-05,-2e-05,5,4
21331,0.0001,-5e-05,-0.00019,-0.00015,0.00022,1e-05,7e-05,-2e-05,5,4
21332,0.0001,-5e-05,-0.00019,-0.00015,0.00022,1e-05,7e-05,-2e-05,5,4
21333,0.0001,-5e-05,-0.00019,-0.00015,0.00022,1e-05,7e-05,-2e-05,5,4
21334,0.0001,-5e-05,-0.00019,-0.00015,0.00022,1e-05,7e-05,-2e-05,5,4
21335,0.0001,-5e-05,-0.00019,-0.00015,0.00022,1e-05,7e-05,-2e-05,5,4
21336,0.0001,-5e-05,-0.00019,-0.00015,0.00022,1e-05,7e-05,-2e-05,5,4
21337,0.0001,-5e-05,-0.00019,-0.00015,0.00022,1e-05,7e-05,-2e-05,5,4
21338,0.0001,-5e-05,-0.00019,-0.00015,0.00022,1e-05,7e-05,-2e-05,5,4
21339,0.0001,-5e-05,-0.00019,-0.00015,0.00022,1e-05,7e-05,-2e-05,5,4
21340,0.0001,-5e-05,-0.00019,-0.00015,0.00022,1e-05,7e-05,-2e-05,5,4
21341,0.0001,-5e-05,-0.00019,-0.00015,0.00022,1e-05,7e-05,-2e-05,5,4
21342,0.0001,-5e-05,-0.00019,-0.00015,0.00022,1e-05,7e-05,-2e-05,5,4
21343,0.0001,-5e-05,-0.00019,-0.00015,0.00022,1e-05,7e-05,-2e-05,5,4
21344,0.0001,-5e-05,-0.00019,-0.00015,0.00022,1e-05,7e-05,-2e-05,5,4
21346,6e-05,2e-05,9e-05,0.00028,-0.00059,-2e-05,4e-05,-1e-05,5,4
21347,-8e-05,-8e-05,-7e-05,-0.00047,-0.00047,-7e-05,-1e-05,1e-05,5,4
21348,7e-05,0.00011,-3e-05,4e-05,3e-05,-1e-05,3e-05,-5e-05,5,4
21349,7e-05,0.00011,-3e-05,4e-05,3e-05,-1e-05,3e-05,-5e-05,5,4
21350,7e-05,0.00011,-3e-05,4e-05,3e-05,-1e-05,3e-05,-5e-05,5,4
21351,7e-05,0.00011,-3e-05,4e-05,3e-05,-1e-05,3e-05,-5e-05,5,4
21352,7e-05,0.00011,-3e-05,4e-05,3e-05,-1e-05,3e-05,-5e-05,5,4
21353,7e-05,0.00011,-3e-05,4e-05,3e-05,-1e-05,3e-05,-5e-05,5,4
21354,7e-05,0.00011,-3e-05,4e-05,3e-05,-1e-05,3e-05,-5e-05,5,4
21355,7e-05,0.00011,-3e-05,4e-05,3e-05,-1e-05,3e-05,-5e-05,5,4
21356,7e-05,0.00011,-3e-05,4e-05,3e-05,-1e-05,3e-05,-5e-05,5,4
21357,7e-05,0.00011,-3e-05,4e-05,3e-05,-1e-05,3e-05,-5e-05,5,4
21358,7e-05,0.00011,-3e-05,4e-05,3e-05,-1e-05,3e-05,-5e-05,5,4
21359,7e-05,0.00011,-3e-05,4e-05,3e-05,-1e-05,3e-05,-5e-05,5,4
21360,7e-05,0.00011,-3e-05,4e-05,3e-05,-1e-05,3e-05,-5e-05,5,4
21361,-2e-05,0,8e-05,3e-05,-3e-05,1e-05,-1e-05,-1e-05,5,4
21362,-2e-05,0,8e-05,3e-05,-3e-05,1e-05,-1e-05,-1e-05,5,4
21363,-6e-05,-0.00013,-0.00018,-0.00034,-0.00062,-7e-05,-5e-05,-3e-05,5,4
21364,-6e-05,-0.00013,-0.00018,-0.00034,-0.00062,-7e-05,-5e-05,-3e-05,5,4
21365,-6e-05,-0.00013,-0.00018,-0.00034,-0.00062,-7e-05,-5e-05,-3e-05,5,4
21366,-6e-05,-0.00013,-0.00018,-0.00034,-0.00062,-7e-05,-5e-05,-3e-05,5,4
21367,-6e-05,-0.00013,-0.00018,-0.00034,-0.00062,-7e-05,-5e-05,-3e-05,5,4
21368,-6e-05,-0.00013,-0.00018,-0.00034,-0.00062,-7e-05,-5e-05,-3e-05,5,4
21369,-6e-05,-0.00013,-0.00018,-0.00034,-0.00062,-7e-05,-5e-05,-3e-05,5,4
21370,-6e-05,-0.00013,-0.00018,-0.00034,-0.00062,-7e-05,-5e-05,-3e-05,5,4
21371,-6e-05,-0.00013,-0.00018,-0.00034,-0.00062,-7e-05,-5e-05,-3e-05,5,4
21372,-6e-05,-0.00013,-0.00018,-0.00034,-0.00062,-7e-05,-5e-05,-3e-05,5,4
21373,-6e-05,-0.00013,-0.00018,-0.00034,-0.00062,-7e-05,-5e-05,-3e-05,5,4
21374,-6e-05,-0.00013,-0.00018,-0.00034,-0.00062,-7e-05,-5e-05,-3e-05,5,4
21375,-6e-05,-0.00013,-0.00018,-0.00034,-0.00062,-7e-05,-5e-05,-3e-05,5,4
21376,-6e-05,-0.00013,-0.00018,-0.00034,-0.00062,-7e-05,-5e-05,-3e-05,5,4
21377,-6e-05,-0.00013,-0.00018,-0.00034,-0.00062,-7e-05,-5e-05,-3e-05,5,4
21378,-6e-05,-0.00013,-0.00018,-0.00034,-0.00062,-7e-05,-5e-05,-3e-05,5,4
21379,-6e-05,-0.00013,-0.00018,-0.00034,-0.00062,-7e-05,-5e-05,-3e-05,5,4
21380,-6e-05,-0.00013,-0.00018,-0.00034,-0.00062,-7e-05,-5e-05,-3e-05,5,4
21381,-6e-05,-0.00013,-0.00018,-0.00034,-0.00062,-7e-05,-5e-05,-3e-05,5,4
21382,-6e-05,-0.00013,-0.00018,-0.00034,-0.00062,-7e-05,-5e-05,-3e-05,5,4
21383,-6e-05,-0.00013,-0.00018,-0.00034,-0.00062,-7e-05,-5e-05,-3e-05,5,4
21384,-0.00022,-0.00018,-0.00011,-0.00019,0,4e-05,-5e-05,-9e-05,5,4
21385,9e-05,0.0001,0.00025,0.00062,0.00054,7e-05,-3e-05,6e-05,5,4
21386,9e-05,0.0001,0.00025,0.00062,0.00054,7e-05,-3e-05,6e-05,5,4
21387,9e-05,0.0001,0.00025,0.00062,0.00054,7e-05,-3e-05,6e-05,5,4
21388,9e-05,0.0001,0.00025,0.00062,0.00054,7e-05,-3e-05,6e-05,5,4
21389,9e-05,0.0001,0.00025,0.00062,0.00054,7e-05,-3e-05,6e-05,5,4
21390,9e-05,0.0001,0.00025,0.00062,0.00054,7e-05,-3e-05,6e-05,5,4
21391,9e-05,0.0001,0.00025,0.00062,0.00054,7e-05,-3e-05,6e-05,5,4
21393,9e-05,0.0001,0.00025,0.00062,0.00054,7e-05,-3e-05,6e-05,5,4
21394,9e-05,0.0001,0.00025,0.00062,0.00054,7e-05,-3e-05,6e-05,5,4
21395,9e-05,0.0001,0.00025,0.00062,0.00054,7e-05,-3e-05,6e-05,5,4
21396,9e-05,0.0001,0.00025,0.00062,0.00054,7e-05,-3e-05,6e-05,5,4
21397,9e-05,0.0001,0.00025,0.00062,0.00054,7e-05,-3e-05,6e-05,5,4
21398,9e-05,0.0001,0.00025,0.00062,0.00054,7e-05,-3e-05,6e-05,5,4
21399,9e-05,0.0001,0.00025,0.00062,0.00054,7e-05,-3e-05,6e-05,5,4
21400,9e-05,0.0001,0.00025,0.00062,0.00054,7e-05,-3e-05,6e-05,5,4
21401,9e-05,0.0001,0.00025,0.00062,0.00054,7e-05,-3e-05,6e-05,5,4
21402,9e-05,0.0001,0.00025,0.00062,0.00054,7e-05,-3e-05,6e-05,5,4
21403,9e-05,0.0001,0.00025,0.00062,0.00054,7e-05,-3e-05,6e-05,5,4
21404,9e-05,0.0001,0.00025,0.00062,0.00054,7e-05,-3e-05,6e-05,5,4
21405,9e-05,0.0001,0.00025,0.00062,0.00054,7e-05,-3e-05,6e-05,5,4
21406,-1e-05,-3e-05,0,0.00016,-0.00026,-3e-05,-2e-05,-5e-05,5,4
21407,-1e-05,-3e-05,0,0.00016,-0.00026,-3e-05,-2e-05,-5e-05,5,4
21408,-3e-05,2e-05,9e-05,-0.00022,-0.00053,-5e-05,-4e-05,0,5,4
21409,-3e-05,2e-05,9e-05,-0.00022,-0.00053,-5e-05,-4e-05,0,5,4
21410,-3e-05,2e-05,9e-05,-0.00022,-0.00053,-5e-05,-4e-05,0,5,4
21411,-3e-05,2e-05,9e-05,-0.00022,-0.00053,-5e-05,-4e-05,0,5,4
21412,-3e-05,2e-05,9e-05,-0.00022,-0.00053,-5e-05,-4e-05,0,5,4
21413,-3e-05,2e-05,9e-05,-0.00022,-0.00053,-5e-05,-4e-05,0,5,4
21414,-3e-05,2e-05,9e-05,-0.00022,-0.00053,-5e-05,-4e-05,0,5,4
21415,-3e-05,2e-05,9e-05,-0.00022,-0.00053,-5e-05,-4e-05,0,5,4
21416,-3e-05,2e-05,9e-05,-0.00022,-0.00053,-5e-05,-4e-05,0,5,4
21417,-3e-05,2e-05,9e-05,-0.00022,-0.00053,-5e-05,-4e-05,0,5,4
21418,-3e-05,2e-05,9e-05,-0.00022,-0.00053,-5e-05,-4e-05,0,5,4
21419,-3e-05,2e-05,9e-05,-0.00022,-0.00053,-5e-05,-4e-05,0,5,4
21420,-3e-05,2e-05,9e-05,-0.00022,-0.00053,-5e-05,-4e-05,0,5,4
21421,7e-05,-0.0002,-0.00048,-0.00073,0.00069,9e-05,-5e-05,-9e-05,5,4
21422,7e-05,-0.0002,-0.00048,-0.00073,0.00069,9e-05,-5e-05,-9e-05,5,4
21423,7e-05,-0.0002,-0.00048,-0.00073,0.00069,9e-05,-5e-05,-9e-05,5,4
21424,7e-05,-0.0002,-0.00048,-0.00073,0.00069,9e-05,-5e-05,-9e-05,5,4
21425,7e-05,-0.0002,-0.00048,-0.00073,0.00069,9e-05,-5e-05,-9e-05,5,4
21426,7e-05,-0.0002,-0.00048,-0.00073,0.00069,9e-05,-5e-05,-9e-05,5,4
21427,1e-05,8e-05,4e-05,-0.0003,-0.00084,-0.00012,-5e-05,1e-05,5,4
21428,1e-05,8e-05,4e-05,-0.0003,-0.00084,-0.00012,-5e-05,1e-05,5,4
21429,1e-05,8e-05,4e-05,-0.0003,-0.00084,-0.00012,-5e-05,1e-05,5,4
21430,1e-05,8e-05,4e-05,-0.0003,-0.00084,-0.00012,-5e-05,1e-05,5,4
21431,1e-05,8e-05,4e-05,-0.0003,-0.00084,-0.00012,-5e-05,1e-05,5,4
21432,1e-05,8e-05,4e-05,-0.0003,-0.00084,-0.00012,-5e-05,1e-05,5,4
21433,1e-05,8e-05,4e-05,-0.0003,-0.00084,-0.00012,-5e-05,1e-05,5,4
21434,1e-05,8e-05,4e-05,-0.0003,-0.00084,-0.00012,-5e-05,1e-05,5,4
21438,1e-05,8e-05,4e-05,-0.0003,-0.00084,-0.00012,-5e-05,1e-05,5,4
21439,1e-05,8e-05,4e-05,-0.0003,-0.00084,-0.00012,-5e-05,1e-05,5,4
21441,1e-05,8e-05,4e-05,-0.0003,-0.00084,-0.00012,-5e-05,1e-05,5,4
21442,1e-05,8e-05,4e-05,-0.0003,-0.00084,-0.00012,-5e-05,1e-05,5,4
21443,1e-05,8e-05,4e-05,-0.0003,-0.00084,-0.00012,-5e-05,1e-05,5,4
21444,-4e-05,-3e-05,9e-05,0.00035,0.00042,3e-05,-1e-05,2e-05,5,4
21445,-6e-05,-0.0001,-0.00014,-0.00041,-0.00038,-2e-05,-6e-05,-3e-05,5,4
21446,-6e-05,-0.0001,-0.00014,-0.00041,-0.00038,-2e-05,-6e-05,-3e-05,5,4
21447,-6e-05,-0.0001,-0.00014,-0.00041,-0.00038,-2e-05,-6e-05,-3e-05,5,4
21448,-6e-05,-0.0001,-0.00014,-0.00041,-0.00038,-2e-05,-6e-05,-3e-05,5,4
21449,-6e-05,-0.0001,-0.00014,-0.00041,-0.00038,-2e-05,-6e-05,-3e-05,5,4
21450,-6e-05,-0.0001,-0.00014,-0.00041,-0.00038,-2e-05,-6e-05,-3e-05,5,4
21451,-6e-05,-0.0001,-0.00014,-0.00041,-0.00038,-2e-05,-6e-05,-3e-05,5,4
21452,-6e-05,-0.0001,-0.00014,-0.00041,-0.00038,-2e-05,-6e-05,-3e-05,5,4
21453,-6e-05,-0.0001,-0.00014,-0.00041,-0.00038,-2e-05,-6e-05,-3e-05,5,4
21454,-6e-05,-0.0001,-0.00014,-0.00041,-0.00038,-2e-05,-6e-05,-3e-05,5,4
21455,-6e-05,-0.0001,-0.00014,-0.00041,-0.00038,-2e-05,-6e-05,-3e-05,5,4
21456,-6e-05,-0.0001,-0.00014,-0.00041,-0.00038,-2e-05,-6e-05,-3e-05,5,4
21457,-6e-05,-0.0001,-0.00014,-0.00041,-0.00038,-2e-05,-6e-05,-3e-05,5,4
21458,-6e-05,-0.0001,-0.00014,-0.00041,-0.00038,-2e-05,-6e-05,-3e-05,5,4
21459,-6e-05,-0.0001,-0.00014,-0.00041,-0.00038,-2e-05,-6e-05,-3e-05,5,4
21460,-6e-05,-0.0001,-0.00014,-0.00041,-0.00038,-2e-05,-6e-05,-3e-05,5,4
21461,-6e-05,-0.0001,-0.00014,-0.00041,-0.00038,-2e-05,-6e-05,-3e-05,5,4
21462,-6e-05,-0.0001,-0.00014,-0.00041,-0.00038,-2e-05,-6e-05,-3e-05,5,4
21463,-6e-05,-0.0001,-0.00014,-0.00041,-0.00038,-2e-05,-6e-05,-3e-05,5,4
21464,-6e-05,-0.0001,-0.00014,-0.00041,-0.00038,-2e-05,-6e-05,-3e-05,5,4
21465,-6e-05,-0.0001,-0.00014,-0.00041,-0.00038,-2e-05,-6e-05,-3e-05,5,4
21466,-0.00011,-0.00012,-0.00022,-0.00024,-0.0002,-5e-05,-6e-05,-4e-05,5,4
21467,-0.00011,-0.00012,-0.00022,-0.00024,-0.0002,-5e-05,-6e-05,-4e-05,5,4
21468,-8e-05,-0.00023,-0.00059,-0.00107,-0.00031,-1e-05,-1e-05,2e-05,5,4
21469,-8e-05,-0.00023,-0.00059,-0.00107,-0.00031,-1e-05,-1e-05,2e-05,5,4
21470,-8e-05,-0.00023,-0.00059,-0.00107,-0.00031,-1e-05,-1e-05,2e-05,5,4
21471,-8e-05,-0.00023,-0.00059,-0.00107,-0.00031,-1e-05,-1e-05,2e-05,5,4
21472,-8e-05,-0.00023,-0.00059,-0.00107,-0.00031,-1e-05,-1e-05,2e-05,5,4
21473,-8e-05,-0.00023,-0.00059,-0.00107,-0.00031,-1e-05,-1e-05,2e-05,5,4
21474,-8e-05,-0.00023,-0.00059,-0.00107,-0.00031,-1e-05,-1e-05,2e-05,5,4
21475,-8e-05,-0.00023,-0.00059,-0.00107,-0.00031,-1e-05,-1e-05,2e-05,5,4
21476,-8e-05,-0.00023,-0.00059,-0.00107,-0.00031,-1e-05,-1e-05,2e-05,5,4
21477,-8e-05,-0.00023,-0.00059,-0.00107,-0.00031,-1e-05,-1e-05,2e-05,5,4
21478,-8e-05,-0.00023,-0.00059,-0.00107,-0.00031,-1e-05,-1e-05,2e-05,5,4
21479,-8e-05,-0.00023,-0.00059,-0.00107,-0.00031,-1e-05,-1e-05,2e-05,5,4
21480,2e-05,0.00017,0.00043,0.00057,0.00012,2e-05,-1e-05,-1e-05,5,4
21481,2e-05,0.00017,0.00043,0.00057,0.00012,2e-05,-1e-05,-1e-05,5,4
21482,2e-05,0.00017,0.00043,0.00057,0.00012,2e-05,-1e-05,-1e-05,5,4
21483,2e-05,0.00017,0.00043,0.00057,0.00012,2e-05,-1e-05,-1e-05,5,4
21484,2e-05,0.00017,0.00043,0.00057,0.00012,2e-05,-1e-05,-1e-05,5,4
21485,2e-05,0.00017,0.00043,0.00057,0.00012,2e-05,-1e-05,-1e-05,5,4
21486,2e-05,0.00017,0.00043,0.00057,0.00012,2e-05,-1e-05,-1e-05,5,4
21489,-0.00024,-0.00029,-0.00026,-0.00039,-0.00011,-3e-05,0,-7e-05,5,4
21490,-0.00024,-0.00029,-0.00026,-0.00039,-0.00011,-3e-05,0,-7e-05,5,4
21491,-0.00024,-0.00029,-0.00026,-0.00039,-0.00011,-3e-05,0,-7e-05,5,4
21492,-0.00024,-0.00029,-0.00026,-0.00039,-0.00011,-3e-05,0,-7e-05,5,4
21493,-0.00024,-0.00029,-0.00026,-0.00039,-0.00011,-3e-05,0,-7e-05,5,4
21494,-0.00024,-0.00029,-0.00026,-0.00039,-0.00011,-3e-05,0,-7e-05,5,4
21495,-0.00024,-0.00029,-0.00026,-0.00039,-0.00011,-3e-05,0,-7e-05,5,4
21496,-0.00024,-0.00029,-0.00026,-0.00039,-0.00011,-3e-05,0,-7e-05,5,4
21497,-0.00024,-0.00029,-0.00026,-0.00039,-0.00011,-3e-05,0,-7e-05,5,4
21498,-0.00024,-0.00029,-0.00026,-0.00039,-0.00011,-3e-05,0,-7e-05,5,4
21499,-0.00024,-0.00029,-0.00026,-0.00039,-0.00011,-3e-05,0,-7e-05,5,4
21500,-0.00024,-0.00029,-0.00026,-0.00039,-0.00011,-3e-05,0,-7e-05,5,4
21501,-0.00024,-0.00029,-0.00026,-0.00039,-0.00011,-3e-05,0,-7e-05,5,4
21502,-0.00024,-0.00029,-0.00026,-0.00039,-0.00011,-3e-05,0,-7e-05,5,4
21503,-0.00024,-0.00029,-0.00026,-0.00039,-0.00011,-3e-05,0,-7e-05,5,4
21504,-3e-05,8e-05,0.00012,-0.00025,-0.00087,-0.00014,-2e-05,0,5,4
21505,0.00013,6e-05,0.0001,0.0002,-6e-05,-3e-05,-3e-05,1e-05,5,4
21506,0.00013,6e-05,0.0001,0.0002,-6e-05,-3e-05,-3e-05,1e-05,5,4
21507,0.00013,6e-05,0.0001,0.0002,-6e-05,-3e-05,-3e-05,1e-05,5,4
21508,0.00013,6e-05,0.0001,0.0002,-6e-05,-3e-05,-3e-05,1e-05,5,4
21509,0.00013,6e-05,0.0001,0.0002,-6e-05,-3e-05,-3e-05,1e-05,5,4
21510,0.00013,6e-05,0.0001,0.0002,-6e-05,-3e-05,-3e-05,1e-05,5,4
21511,0.00013,6e-05,0.0001,0.0002,-6e-05,-3e-05,-3e-05,1e-05,5,4
21512,0.00013,6e-05,0.0001,0.0002,-6e-05,-3e-05,-3e-05,1e-05,5,4
21513,0.00013,6e-05,0.0001,0.0002,-6e-05,-3e-05,-3e-05,1e-05,5,4
21514,0.00013,6e-05,0.0001,0.0002,-6e-05,-3e-05,-3e-05,1e-05,5,4
21516,0.00013,6e-05,0.0001,0.0002,-6e-05,-3e-05,-3e-05,1e-05,5,4
21517,0.00013,6e-05,0.0001,0.0002,-6e-05,-3e-05,-3e-05,1e-05,5,4
21518,0.00013,6e-05,0.0001,0.0002,-6e-05,-3e-05,-3e-05,1e-05,5,4
21519,0.00013,6e-05,0.0001,0.0002,-6e-05,-3e-05,-3e-05,1e-05,5,4
21520,0.00013,6e-05,0.0001,0.0002,-6e-05,-3e-05,-3e-05,1e-05,5,4
21521,0.00013,6e-05,0.0001,0.0002,-6e-05,-3e-05,-3e-05,1e-05,5,4
21522,0.00013,6e-05,0.0001,0.0002,-6e-05,-3e-05,-3e-05,1e-05,5,4
21523,0.00013,6e-05,0.0001,0.0002,-6e-05,-3e-05,-3e-05,1e-05,5,4
21524,0.00013,6e-05,0.0001,0.0002,-6e-05,-3e-05,-3e-05,1e-05,5,4
21525,0.00013,6e-05,0.0001,0.0002,-6e-05,-3e-05,-3e-05,1e-05,5,4
21526,0.00011,5e-05,3e-05,-0.00036,-0.00061,-9e-05,1e-05,3e-05,5,4
21527,0.00011,5e-05,3e-05,-0.00036,-0.00061,-9e-05,1e-05,3e-05,5,4
21528,7e-05,2e-05,3e-05,-0.0004,-0.00017,-4e-05,-2e-05,-2e-05,5,4
21529,7e-05,2e-05,3e-05,-0.0004,-0.00017,-4e-05,-2e-05,-2e-05,5,4
21530,7e-05,2e-05,3e-05,-0.0004,-0.00017,-4e-05,-2e-05,-2e-05,5,4
21531,7e-05,2e-05,3e-05,-0.0004,-0.00017,-4e-05,-2e-05,-2e-05,5,4
21532,7e-05,2e-05,3e-05,-0.0004,-0.00017,-4e-05,-2e-05,-2e-05,5,4
21533,7e-05,2e-05,3e-05,-0.0004,-0.00017,-4e-05,-2e-05,-2e-05,5,4
21534,7e-05,2e-05,3e-05,-0.0004,-0.00017,-4e-05,-2e-05,-2e-05,5,4
21535,7e-05,2e-05,3e-05,-0.0004,-0.00017,-4e-05,-2e-05,-2e-05,5,4
21536,7e-05,2e-05,3e-05,-0.0004,-0.00017,-4e-05,-2e-05,-2e-05,5,4
21537,7e-05,2e-05,3e-05,-0.0004,-0.00017,-4e-05,-2e-05,-2e-05,5,4
21538,7e-05,2e-05,3e-05,-0.0004,-0.00017,-4e-05,-2e-05,-2e-05,5,4
21539,7e-05,2e-05,3e-05,-0.0004,-0.00017,-4e-05,-2e-05,-2e-05,5,4
21540,7e-05,2e-05,3e-05,-0.0004,-0.00017,-4e-05,-2e-05,-2e-05,5,4
21541,5e-05,3e-05,-0.00012,-0.0001,0.00015,-4e-05,3e-05,-5e-05,5,4
21542,5e-05,3e-05,-0.00012,-0.0001,0.00015,-4e-05,3e-05,-5e-05,5,4
21543,5e-05,3e-05,-0.00012,-0.0001,0.00015,-4e-05,3e-05,-5e-05,5,4
21544,5e-05,3e-05,-0.00012,-0.0001,0.00015,-4e-05,3e-05,-5e-05,5,4
21545,5e-05,3e-05,-0.00012,-0.0001,0.00015,-4e-05,3e-05,-5e-05,5,4
21546,5e-05,3e-05,-0.00012,-0.0001,0.00015,-4e-05,3e-05,-5e-05,5,4
21547,-3e-05,-7e-05,-9e-05,0.00026,0.00044,4e-05,0,-2e-05,5,4
21549,-3e-05,-7e-05,-9e-05,0.00026,0.00044,4e-05,0,-2e-05,5,4
21550,-3e-05,-7e-05,-9e-05,0.00026,0.00044,4e-05,0,-2e-05,5,4
21551,-3e-05,-7e-05,-9e-05,0.00026,0.00044,4e-05,0,-2e-05,5,4
21552,-3e-05,-7e-05,-9e-05,0.00026,0.00044,4e-05,0,-2e-05,5,4
21553,-3e-05,-7e-05,-9e-05,0.00026,0.00044,4e-05,0,-2e-05,5,4
21554,-3e-05,-7e-05,-9e-05,0.00026,0.00044,4e-05,0,-2e-05,5,4
21555,-3e-05,-7e-05,-9e-05,0.00026,0.00044,4e-05,0,-2e-05,5,4
21556,-3e-05,-7e-05,-9e-05,0.00026,0.00044,4e-05,0,-2e-05,5,4
21557,-3e-05,-7e-05,-9e-05,0.00026,0.00044,4e-05,0,-2e-05,5,4
21558,-3e-05,-7e-05,-9e-05,0.00026,0.00044,4e-05,0,-2e-05,5,4
21559,-3e-05,-7e-05,-9e-05,0.00026,0.00044,4e-05,0,-2e-05,5,4
21560,-3e-05,-7e-05,-9e-05,0.00026,0.00044,4e-05,0,-2e-05,5,4
21561,-3e-05,-7e-05,-9e-05,0.00026,0.00044,4e-05,0,-2e-05,5,4
21562,-3e-05,-7e-05,-9e-05,0.00026,0.00044,4e-05,0,-2e-05,5,4
21563,-3e-05,-7e-05,-9e-05,0.00026,0.00044,4e-05,0,-2e-05,5,4
21564,-2e-05,-1e-05,6e-05,0.0002,-0.00011,-2e-05,0,5e-05,5,4
21565,-7e-05,7e-05,9e-05,0.00022,-6e-05,-7e-05,-1e-05,-7e-05,5,4
21566,-7e-05,7e-05,9e-05,0.00022,-6e-05,-7e-05,-1e-05,-7e-05,5,4
21567,-7e-05,7e-05,9e-05,0.00022,-6e-05,-7e-05,-1e-05,-7e-05,5,4
21568,-7e-05,7e-05,9e-05,0.00022,-6e-05,-7e-05,-1e-05,-7e-05,5,4
21569,-7e-05,7e-05,9e-05,0.00022,-6e-05,-7e-05,-1e-05,-7e-05,5,4
21570,-7e-05,7e-05,9e-05,0.00022,-6e-05,-7e-05,-1e-05,-7e-05,5,4
21571,-7e-05,7e-05,9e-05,0.00022,-6e-05,-7e-05,-1e-05,-7e-05,5,4
21572,-7e-05,7e-05,9e-05,0.00022,-6e-05,-7e-05,-1e-05,-7e-05,5,4
21573,-7e-05,7e-05,9e-05,0.00022,-6e-05,-7e-05,-1e-05,-7e-05,5,4
21574,-7e-05,7e-05,9e-05,0.00022,-6e-05,-7e-05,-1e-05,-7e-05,5,4
21575,-7e-05,7e-05,9e-05,0.00022,-6e-05,-7e-05,-1e-05,-7e-05,5,4
21576,-7e-05,7e-05,9e-05,0.00022,-6e-05,-7e-05,-1e-05,-7e-05,5,4
21577,-7e-05,7e-05,9e-05,0.00022,-6e-05,-7e-05,-1e-05,-7e-05,5,4
21578,-7e-05,7e-05,9e-05,0.00022,-6e-05,-7e-05,-1e-05,-7e-05,5,4
21579,-7e-05,7e-05,9e-05,0.00022,-6e-05,-7e-05,-1e-05,-7e-05,5,4
21580,-7e-05,7e-05,9e-05,0.00022,-6e-05,-7e-05,-1e-05,-7e-05,5,4
21581,-7e-05,7e-05,9e-05,0.00022,-6e-05,-7e-05,-1e-05,-7e-05,5,4
21582,-7e-05,7e-05,9e-05,0.00022,-6e-05,-7e-05,-1e-05,-7e-05,5,4
21583,-7e-05,7e-05,9e-05,0.00022,-6e-05,-7e-05,-1e-05,-7e-05,5,4
21584,-7e-05,7e-05,9e-05,0.00022,-6e-05,-7e-05,-1e-05,-7e-05,5,4
21585,-7e-05,7e-05,9e-05,0.00022,-6e-05,-7e-05,-1e-05,-7e-05,5,4
21586,-1e-05,3e-05,9e-05,0.00053,-0.00013,-1e-05,-3e-05,1e-05,5,4
21588,9e-05,5e-05,1e-05,0.00039,0.00018,1e-05,0,1e-05,5,4
21589,9e-05,5e-05,1e-05,0.00039,0.00018,1e-05,0,1e-05,5,4
21590,9e-05,5e-05,1e-05,0.00039,0.00018,1e-05,0,1e-05,5,4
21591,9e-05,5e-05,1e-05,0.00039,0.00018,1e-05,0,1e-05,5,4
21592,9e-05,5e-05,1e-05,0.00039,0.00018,1e-05,0,1e-05,5,4
21593,9e-05,5e-05,1e-05,0.00039,0.00018,1e-05,0,1e-05,5,4
21594,9e-05,5e-05,1e-05,0.00039,0.00018,1e-05,0,1e-05,5,4
21596,9e-05,5e-05,1e-05,0.00039,0.00018,1e-05,0,1e-05,5,4
21597,9e-05,5e-05,1e-05,0.00039,0.00018,1e-05,0,1e-05,5,4
21598,9e-05,5e-05,1e-05,0.00039,0.00018,1e-05,0,1e-05,5,4
21599,9e-05,5e-05,1e-05,0.00039,0.00018,1e-05,0,1e-05,5,4
21600,-7e-05,-9e-05,-0.00029,-0.00076,-0.00083,-7e-05,-2e-05,7e-05,5,4
21601,-7e-05,-9e-05,-0.00029,-0.00076,-0.00083,-7e-05,-2e-05,7e-05,5,4
21602,-7e-05,-9e-05,-0.00029,-0.00076,-0.00083,-7e-05,-2e-05,7e-05,5,4
21603,-7e-05,-9e-05,-0.00029,-0.00076,-0.00083,-7e-05,-2e-05,7e-05,5,4
21604,-7e-05,-9e-05,-0.00029,-0.00076,-0.00083,-7e-05,-2e-05,7e-05,5,4
21605,-7e-05,-9e-05,-0.00029,-0.00076,-0.00083,-7e-05,-2e-05,7e-05,5,4
21606,-7e-05,-9e-05,-0.00029,-0.00076,-0.00083,-7e-05,-2e-05,7e-05,5,4
21607,4e-05,-1e-05,4e-05,2e-05,4e-05,1e-05,-1e-05,-3e-05,5,4
21608,4e-05,-1e-05,4e-05,2e-05,4e-05,1e-05,-1e-05,-3e-05,5,4
21609,4e-05,-1e-05,4e-05,2e-05,4e-05,1e-05,-1e-05,-3e-05,5,4
21610,4e-05,-1e-05,4e-05,2e-05,4e-05,1e-05,-1e-05,-3e-05,5,4
21611,4e-05,-1e-05,4e-05,2e-05,4e-05,1e-05,-1e-05,-3e-05,5,4
21612,4e-05,-1e-05,4e-05,2e-05,4e-05,1e-05,-1e-05,-3e-05,5,4
21613,4e-05,-1e-05,4e-05,2e-05,4e-05,1e-05,-1e-05,-3e-05,5,4
21614,4e-05,-1e-05,4e-05,2e-05,4e-05,1e-05,-1e-05,-3e-05,5,4
21615,4e-05,-1e-05,4e-05,2e-05,4e-05,1e-05,-1e-05,-3e-05,5,4
21616,4e-05,-1e-05,4e-05,2e-05,4e-05,1e-05,-1e-05,-3e-05,5,4
21617,4e-05,-1e-05,4e-05,2e-05,4e-05,1e-05,-1e-05,-3e-05,5,4
21618,4e-05,-1e-05,4e-05,2e-05,4e-05,1e-05,-1e-05,-3e-05,5,4
21619,4e-05,-1e-05,4e-05,2e-05,4e-05,1e-05,-1e-05,-3e-05,5,4
21620,4e-05,-1e-05,4e-05,2e-05,4e-05,1e-05,-1e-05,-3e-05,5,4
21621,4e-05,-1e-05,4e-05,2e-05,4e-05,1e-05,-1e-05,-3e-05,5,4
21622,4e-05,-1e-05,4e-05,2e-05,4e-05,1e-05,-1e-05,-3e-05,5,4
21623,4e-05,-1e-05,4e-05,2e-05,4e-05,1e-05,-1e-05,-3e-05,5,4
21624,-6e-05,-5e-05,8e-05,0.0004,0.00019,2e-05,-2e-05,-5e-05,5,4
21625,3e-05,1e-05,-1e-05,0.0006,0.00021,0.00017,5e-05,0,5,4
21626,3e-05,1e-05,-1e-05,0.0006,0.00021,0.00017,5e-05,0,5,4
21627,3e-05,1e-05,-1e-05,0.0006,0.00021,0.00017,5e-05,0,5,4
21628,3e-05,1e-05,-1e-05,0.0006,0.00021,0.00017,5e-05,0,5,4
21629,3e-05,1e-05,-1e-05,0.0006,0.00021,0.00017,5e-05,0,5,4
21630,3e-05,1e-05,-1e-05,0.0006,0.00021,0.00017,5e-05,0,5,4
21631,3e-05,1e-05,-1e-05,0.0006,0.00021,0.00017,5e-05,0,5,4
21632,3e-05,1e-05,-1e-05,0.0006,0.00021,0.00017,5e-05,0,5,4
21633,3e-05,1e-05,-1e-05,0.0006,0.00021,0.00017,5e-05,0,5,4
21634,3e-05,1e-05,-1e-05,0.0006,0.00021,0.00017,5e-05,0,5,4
21635,3e-05,1e-05,-1e-05,0.0006,0.00021,0.00017,5e-05,0,5,4
21636,3e-05,1e-05,-1e-05,0.0006,0.00021,0.00017,5e-05,0,5,4
21637,3e-05,1e-05,-1e-05,0.0006,0.00021,0.00017,5e-05,0,5,4
21638,3e-05,1e-05,-1e-05,0.0006,0.00021,0.00017,5e-05,0,5,4
21639,3e-05,1e-05,-1e-05,0.0006,0.00021,0.00017,5e-05,0,5,4
21640,3e-05,1e-05,-1e-05,0.0006,0.00021,0.00017,5e-05,0,5,4
21641,3e-05,1e-05,-1e-05,0.0006,0.00021,0.00017,5e-05,0,5,4
21643,3e-05,1e-05,-1e-05,0.0006,0.00021,0.00017,5e-05,0,5,4
21644,3e-05,1e-05,-1e-05,0.0006,0.00021,0.00017,5e-05,0,5,4
21645,3e-05,1e-05,-1e-05,0.0006,0.00021,0.00017,5e-05,0,5,4
21646,0,-4e-05,-4e-05,4e-05,0.00032,-2e-05,1e-05,-4e-05,5,4
21647,0,-4e-05,-4e-05,4e-05,0.00032,-2e-05,1e-05,-4e-05,5,4
21648,-3e-05,-3e-05,7e-05,0.00034,0.00011,1e-05,-6e-05,-2e-05,5,4
21649,-3e-05,-3e-05,7e-05,0.00034,0.00011,1e-05,-6e-05,-2e-05,5,4
21650,-3e-05,-3e-05,7e-05,0.00034,0.00011,1e-05,-6e-05,-2e-05,5,4
21651,-3e-05,-3e-05,7e-05,0.00034,0.00011,1e-05,-6e-05,-2e-05,5,4
21653,-3e-05,-3e-05,7e-05,0.00034,0.00011,1e-05,-6e-05,-2e-05,5,4
21654,-3e-05,-3e-05,7e-05,0.00034,0.00011,1e-05,-6e-05,-2e-05,5,4
21655,-3e-05,-3e-05,7e-05,0.00034,0.00011,1e-05,-6e-05,-2e-05,5,4
21656,-3e-05,-3e-05,7e-05,0.00034,0.00011,1e-05,-6e-05,-2e-05,5,4
21657,-3e-05,-3e-05,7e-05,0.00034,0.00011,1e-05,-6e-05,-2e-05,5,4
21658,-3e-05,-3e-05,7e-05,0.00034,0.00011,1e-05,-6e-05,-2e-05,5,4
21659,-3e-05,-3e-05,7e-05,0.00034,0.00011,1e-05,-6e-05,-2e-05,5,4
21660,-3e-05,-3e-05,7e-05,0.00034,0.00011,1e-05,-6e-05,-2e-05,5,4
21661,0,6e-05,-0.00014,-0.00029,-0.00024,-1e-05,3e-05,4e-05,5,4
21662,0,6e-05,-0.00014,-0.00029,-0.00024,-1e-05,3e-05,4e-05,5,4
21663,0,6e-05,-0.00014,-0.00029,-0.00024,-1e-05,3e-05,4e-05,5,4
21664,0,6e-05,-0.00014,-0.00029,-0.00024,-1e-05,3e-05,4e-05,5,4
21665,0,6e-05,-0.00014,-0.00029,-0.00024,-1e-05,3e-05,4e-05,5,4
21666,0,6e-05,-0.00014,-0.00029,-0.00024,-1e-05,3e-05,4e-05,5,4
21667,-9e-05,-9e-05,-9e-05,-0.00053,-0.00079,-0.0002,-5e-05,-4e-05,5,4
21668,-9e-05,-9e-05,-9e-05,-0.00053,-0.00079,-0.0002,-5e-05,-4e-05,5,4
21669,-9e-05,-9e-05,-9e-05,-0.00053,-0.00079,-0.0002,-5e-05,-4e-05,5,4
21670,-9e-05,-9e-05,-9e-05,-0.00053,-0.00079,-0.0002,-5e-05,-4e-05,5,4
21671,-9e-05,-9e-05,-9e-05,-0.00053,-0.00079,-0.0002,-5e-05,-4e-05,5,4
21672,-9e-05,-9e-05,-9e-05,-0.00053,-0.00079,-0.0002,-5e-05,-4e-05,5,4
21673,-9e-05,-9e-05,-9e-05,-0.00053,-0.00079,-0.0002,-5e-05,-4e-05,5,4
21674,-9e-05,-9e-05,-9e-05,-0.00053,-0.00079,-0.0002,-5e-05,-4e-05,5,4
21675,-9e-05,-9e-05,-9e-05,-0.00053,-0.00079,-0.0002,-5e-05,-4e-05,5,4
21676,-9e-05,-9e-05,-9e-05,-0.00053,-0.00079,-0.0002,-5e-05,-4e-05,5,4
21677,-9e-05,-9e-05,-9e-05,-0.00053,-0.00079,-0.0002,-5e-05,-4e-05,5,4
21678,-9e-05,-9e-05,-9e-05,-0.00053,-0.00079,-0.0002,-5e-05,-4e-05,5,4
21679,-9e-05,-9e-05,-9e-05,-0.00053,-0.00079,-0.0002,-5e-05,-4e-05,5,4
21680,-9e-05,-9e-05,-9e-05,-0.00053,-0.00079,-0.0002,-5e-05,-4e-05,5,4
21681,-9e-05,-9e-05,-9e-05,-0.00053,-0.00079,-0.0002,-5e-05,-4e-05,5,4
21682,-9e-05,-9e-05,-9e-05,-0.00053,-0.00079,-0.0002,-5e-05,-4e-05,5,4
21683,-9e-05,-9e-05,-9e-05,-0.00053,-0.00079,-0.0002,-5e-05,-4e-05,5,4
21684,-5e-05,-8e-05,-4e-05,5e-05,-0.00011,-6e-05,-3e-05,-4e-05,5,4
21685,-4e-05,-4e-05,8e-05,7e-05,-7e-05,-3e-05,0,3e-05,5,4
21686,-4e-05,-4e-05,8e-05,7e-05,-7e-05,-3e-05,0,3e-05,5,4
21687,-4e-05,-4e-05,8e-05,7e-05,-7e-05,-3e-05,0,3e-05,5,4
21689,-4e-05,-4e-05,8e-05,7e-05,-7e-05,-3e-05,0,3e-05,5,4
21690,-4e-05,-4e-05,8e-05,7e-05,-7e-05,-3e-05,0,3e-05,5,4
21691,-4e-05,-4e-05,8e-05,7e-05,-7e-05,-3e-05,0,3e-05,5,4
21692,-4e-05,-4e-05,8e-05,7e-05,-7e-05,-3e-05,0,3e-05,5,4
21693,-4e-05,-4e-05,8e-05,7e-05,-7e-05,-3e-05,0,3e-05,5,4
21694,-4e-05,-4e-05,8e-05,7e-05,-7e-05,-3e-05,0,3e-05,5,4
21695,-4e-05,-4e-05,8e-05,7e-05,-7e-05,-3e-05,0,3e-05,5,4
21696,-4e-05,-4e-05,8e-05,7e-05,-7e-05,-3e-05,0,3e-05,5,4
21697,-4e-05,-4e-05,8e-05,7e-05,-7e-05,-3e-05,0,3e-05,5,4
21698,-4e-05,-4e-05,8e-05,7e-05,-7e-05,-3e-05,0,3e-05,5,4
21699,-4e-05,-4e-05,8e-05,7e-05,-7e-05,-3e-05,0,3e-05,5,4
21700,-4e-05,-4e-05,8e-05,7e-05,-7e-05,-3e-05,0,3e-05,5,4
21701,-4e-05,-4e-05,8e-05,7e-05,-7e-05,-3e-05,0,3e-05,5,4
21703,-4e-05,-4e-05,8e-05,7e-05,-7e-05,-3e-05,0,3e-05,5,4
21704,-4e-05,-4e-05,8e-05,7e-05,-7e-05,-3e-05,0,3e-05,5,4
21705,-4e-05,-4e-05,8e-05,7e-05,-7e-05,-3e-05,0,3e-05,5,4
21706,-5e-05,-8e-05,-6e-05,1e-05,0.00034,0.00013,-5e-05,1e-05,5,4
21707,-5e-05,-8e-05,-6e-05,1e-05,0.00034,0.00013,-5e-05,1e-05,5,4
21708,-1e-05,-0.0001,-0.00025,0.00031,0.00072,9e-05,1e-05,-7e-05,5,4
21709,-1e-05,-0.0001,-0.00025,0.00031,0.00072,9e-05,1e-05,-7e-05,5,4
21710,-1e-05,-0.0001,-0.00025,0.00031,0.00072,9e-05,1e-05,-7e-05,5,4
21711,-1e-05,-0.0001,-0.00025,0.00031,0.00072,9e-05,1e-05,-7e-05,5,4
21712,-1e-05,-0.0001,-0.00025,0.00031,0.00072,9e-05,1e-05,-7e-05,5,4
21713,-1e-05,-0.0001,-0.00025,0.00031,0.00072,9e-05,1e-05,-7e-05,5,4
21714,-1e-05,-0.0001,-0.00025,0.00031,0.00072,9e-05,1e-05,-7e-05,5,4
21715,-1e-05,-0.0001,-0.00025,0.00031,0.00072,9e-05,1e-05,-7e-05,5,4
21716,-1e-05,-0.0001,-0.00025,0.00031,0.00072,9e-05,1e-05,-7e-05,5,4
21717,-1e-05,-0.0001,-0.00025,0.00031,0.00072,9e-05,1e-05,-7e-05,5,4
21718,-1e-05,-0.0001,-0.00025,0.00031,0.00072,9e-05,1e-05,-7e-05,5,4
21719,-1e-05,-0.0001,-0.00025,0.00031,0.00072,9e-05,1e-05,-7e-05,5,4
21720,-7e-05,-0.00014,-0.00033,-0.00032,0.00031,-1e-05,-4e-05,-0.0001,5,4
21721,-7e-05,-0.00014,-0.00033,-0.00032,0.00031,-1e-05,-4e-05,-0.0001,5,4
21722,-7e-05,-0.00014,-0.00033,-0.00032,0.00031,-1e-05,-4e-05,-0.0001,5,4
21723,-7e-05,-0.00014,-0.00033,-0.00032,0.00031,-1e-05,-4e-05,-0.0001,5,4
21724,-7e-05,-0.00014,-0.00033,-0.00032,0.00031,-1e-05,-4e-05,-0.0001,5,4
21725,-7e-05,-0.00014,-0.00033,-0.00032,0.00031,-1e-05,-4e-05,-0.0001,5,4
21726,-7e-05,-0.00014,-0.00033,-0.00032,0.00031,-1e-05,-4e-05,-0.0001,5,4
21727,3e-05,5e-05,0.0001,0.00012,0.00024,1e-05,1e-05,-2e-05,5,4
21728,3e-05,5e-05,0.0001,0.00012,0.00024,1e-05,1e-05,-2e-05,5,4
21729,3e-05,5e-05,0.0001,0.00012,0.00024,1e-05,1e-05,-2e-05,5,4
21730,3e-05,5e-05,0.0001,0.00012,0.00024,1e-05,1e-05,-2e-05,5,4
21731,3e-05,5e-05,0.0001,0.00012,0.00024,1e-05,1e-05,-2e-05,5,4
21732,3e-05,5e-05,0.0001,0.00012,0.00024,1e-05,1e-05,-2e-05,5,4
21733,3e-05,5e-05,0.0001,0.00012,0.00024,1e-05,1e-05,-2e-05,5,4
21734,3e-05,5e-05,0.0001,0.00012,0.00024,1e-05,1e-05,-2e-05,5,4
21736,3e-05,5e-05,0.0001,0.00012,0.00024,1e-05,1e-05,-2e-05,5,4
21737,3e-05,5e-05,0.0001,0.00012,0.00024,1e-05,1e-05,-2e-05,5,4
21738,3e-05,5e-05,0.0001,0.00012,0.00024,1e-05,1e-05,-2e-05,5,4
21739,3e-05,5e-05,0.0001,0.00012,0.00024,1e-05,1e-05,-2e-05,5,4
21740,3e-05,5e-05,0.0001,0.00012,0.00024,1e-05,1e-05,-2e-05,5,4
21741,3e-05,5e-05,0.0001,0.00012,0.00024,1e-05,1e-05,-2e-05,5,4
21742,3e-05,5e-05,0.0001,0.00012,0.00024,1e-05,1e-05,-2e-05,5,4
21743,3e-05,5e-05,0.0001,0.00012,0.00024,1e-05,1e-05,-2e-05,5,4
21744,0.00011,7e-05,9e-05,0.00016,0.00012,1e-05,0,1e-05,5,4
21745,2e-05,7e-05,0.00015,-8e-05,-0.00037,-2e-05,4e-05,5e-05,5,4
21746,2e-05,7e-05,0.00015,-8e-05,-0.00037,-2e-05,4e-05,5e-05,5,4
21747,2e-05,7e-05,0.00015,-8e-05,-0.00037,-2e-05,4e-05,5e-05,5,4
21748,2e-05,7e-05,0.00015,-8e-05,-0.00037,-2e-05,4e-05,5e-05,5,4
21749,2e-05,7e-05,0.00015,-8e-05,-0.00037,-2e-05,4e-05,5e-05,5,4
21750,2e-05,7e-05,0.00015,-8e-05,-0.00037,-2e-05,4e-05,5e-05,5,4
21751,2e-05,7e-05,0.00015,-8e-05,-0.00037,-2e-05,4e-05,5e-05,5,4
21752,2e-05,7e-05,0.00015,-8e-05,-0.00037,-2e-05,4e-05,5e-05,5,4
21753,2e-05,7e-05,0.00015,-8e-05,-0.00037,-2e-05,4e-05,5e-05,5,4
21754,2e-05,7e-05,0.00015,-8e-05,-0.00037,-2e-05,4e-05,5e-05,5,4
21755,2e-05,7e-05,0.00015,-8e-05,-0.00037,-2e-05,4e-05,5e-05,5,4
21756,2e-05,7e-05,0.00015,-8e-05,-0.00037,-2e-05,4e-05,5e-05,5,4
21757,2e-05,7e-05,0.00015,-8e-05,-0.00037,-2e-05,4e-05,5e-05,5,4
21758,2e-05,7e-05,0.00015,-8e-05,-0.00037,-2e-05,4e-05,5e-05,5,4
21759,2e-05,7e-05,0.00015,-8e-05,-0.00037,-2e-05,4e-05,5e-05,5,4
21760,2e-05,7e-05,0.00015,-8e-05,-0.00037,-2e-05,4e-05,5e-05,5,4
21761,2e-05,7e-05,0.00015,-8e-05,-0.00037,-2e-05,4e-05,5e-05,5,4
21762,2e-05,7e-05,0.00015,-8e-05,-0.00037,-2e-05,4e-05,5e-05,5,4
21763,2e-05,7e-05,0.00015,-8e-05,-0.00037,-2e-05,4e-05,5e-05,5,4
21764,2e-05,7e-05,0.00015,-8e-05,-0.00037,-2e-05,4e-05,5e-05,5,4
21765,2e-05,7e-05,0.00015,-8e-05,-0.00037,-2e-05,4e-05,5e-05,5,4
21766,-3e-05,-2e-05,0.00012,0.00054,0.00027,2e-05,1e-05,-6e-05,5,4
21767,-3e-05,-2e-05,0.00012,0.00054,0.00027,2e-05,1e-05,-6e-05,5,4
21768,0,-1e-05,1e-05,-0.00015,-0.00067,-7e-05,-3e-05,4e-05,5,4
21769,0,-1e-05,1e-05,-0.00015,-0.00067,-7e-05,-3e-05,4e-05,5,4
21770,0,-1e-05,1e-05,-0.00015,-0.00067,-7e-05,-3e-05,4e-05,5,4
21771,0,-1e-05,1e-05,-0.00015,-0.00067,-7e-05,-3e-05,4e-05,5,4
21772,0,-1e-05,1e-05,-0.00015,-0.00067,-7e-05,-3e-05,4e-05,5,4
21773,0,-1e-05,1e-05,-0.00015,-0.00067,-7e-05,-3e-05,4e-05,5,4
21774,0,-1e-05,1e-05,-0.00015,-0.00067,-7e-05,-3e-05,4e-05,5,4
21775,0,-1e-05,1e-05,-0.00015,-0.00067,-7e-05,-3e-05,4e-05,5,4
21776,0,-1e-05,1e-05,-0.00015,-0.00067,-7e-05,-3e-05,4e-05,5,4
21777,0,-1e-05,1e-05,-0.00015,-0.00067,-7e-05,-3e-05,4e-05,5,4
21778,0,-1e-05,1e-05,-0.00015,-0.00067,-7e-05,-3e-05,4e-05,5,4
21779,0,-1e-05,1e-05,-0.00015,-0.00067,-7e-05,-3e-05,4e-05,5,4
21780,2e-05,2e-05,-5e-05,-0.00015,-0.00012,-6e-05,2e-05,7e-05,5,4
21781,2e-05,2e-05,-5e-05,-0.00015,-0.00012,-6e-05,2e-05,7e-05,5,4
21783,2e-05,2e-05,-5e-05,-0.00015,-0.00012,-6e-05,2e-05,7e-05,5,4
21784,2e-05,2e-05,-5e-05,-0.00015,-0.00012,-6e-05,2e-05,7e-05,5,4
21785,2e-05,2e-05,-5e-05,-0.00015,-0.00012,-6e-05,2e-05,7e-05,5,4
21786,2e-05,2e-05,-5e-05,-0.00015,-0.00012,-6e-05,2e-05,7e-05,5,4
21787,2e-05,2e-05,-5e-05,-0.00015,-0.00012,-6e-05,2e-05,7e-05,5,4
21788,2e-05,2e-05,-5e-05,-0.00015,-0.00012,-6e-05,2e-05,7e-05,5,4
21789,-5e-05,-9e-05,2e-05,-1e-05,-8e-05,6e-05,1e-05,0,5,4
21790,-5e-05,-9e-05,2e-05,-1e-05,-8e-05,6e-05,1e-05,0,5,4
21791,-5e-05,-9e-05,2e-05,-1e-05,-8e-05,6e-05,1e-05,0,5,4
21792,-5e-05,-9e-05,2e-05,-1e-05,-8e-05,6e-05,1e-05,0,5,4
21793,-5e-05,-9e-05,2e-05,-1e-05,-8e-05,6e-05,1e-05,0,5,4
21794,-5e-05,-9e-05,2e-05,-1e-05,-8e-05,6e-05,1e-05,0,5,4
21795,-5e-05,-9e-05,2e-05,-1e-05,-8e-05,6e-05,1e-05,0,5,4
21796,-5e-05,-9e-05,2e-05,-1e-05,-8e-05,6e-05,1e-05,0,5,4
21797,-5e-05,-9e-05,2e-05,-1e-05,-8e-05,6e-05,1e-05,0,5,4
21798,-5e-05,-9e-05,2e-05,-1e-05,-8e-05,6e-05,1e-05,0,5,4
21799,-5e-05,-9e-05,2e-05,-1e-05,-8e-05,6e-05,1e-05,0,5,4
21800,-5e-05,-9e-05,2e-05,-1e-05,-8e-05,6e-05,1e-05,0,5,4
21801,-5e-05,-9e-05,2e-05,-1e-05,-8e-05,6e-05,1e-05,0,5,4
21802,-5e-05,-9e-05,2e-05,-1e-05,-8e-05,6e-05,1e-05,0,5,4
21803,-5e-05,-9e-05,2e-05,-1e-05,-8e-05,6e-05,1e-05,0,5,4
21804,-6e-05,-6e-05,-1e-05,0.0001,-0.00039,3e-05,-5e-05,0,5,4
21805,2e-05,1e-05,4e-05,0.00011,0.00037,0,-2e-05,-1e-05,5,4
21806,2e-05,1e-05,4e-05,0.00011,0.00037,0,-2e-05,-1e-05,5,4
21807,2e-05,1e-05,4e-05,0.00011,0.00037,0,-2e-05,-1e-05,5,4
21808,2e-05,1e-05,4e-05,0.00011,0.00037,0,-2e-05,-1e-05,5,4
21809,2e-05,1e-05,4e-05,0.00011,0.00037,0,-2e-05,-1e-05,5,4
21810,2e-05,1e-05,4e-05,0.00011,0.00037,0,-2e-05,-1e-05,5,4
21811,2e-05,1e-05,4e-05,0.00011,0.00037,0,-2e-05,-1e-05,5,4
21812,2e-05,1e-05,4e-05,0.00011,0.00037,0,-2e-05,-1e-05,5,4
21813,2e-05,1e-05,4e-05,0.00011,0.00037,0,-2e-05,-1e-05,5,4
21814,2e-05,1e-05,4e-05,0.00011,0.00037,0,-2e-05,-1e-05,5,4
21815,2e-05,1e-05,4e-05,0.00011,0.00037,0,-2e-05,-1e-05,5,4
21816,2e-05,1e-05,4e-05,0.00011,0.00037,0,-2e-05,-1e-05,5,4
21817,2e-05,1e-05,4e-05,0.00011,0.00037,0,-2e-05,-1e-05,5,4
21818,2e-05,1e-05,4e-05,0.00011,0.00037,0,-2e-05,-1e-05,5,4
21819,2e-05,1e-05,4e-05,0.00011,0.00037,0,-2e-05,-1e-05,5,4
21820,2e-05,1e-05,4e-05,0.00011,0.00037,0,-2e-05,-1e-05,5,4
21821,2e-05,1e-05,4e-05,0.00011,0.00037,0,-2e-05,-1e-05,5,4
21822,2e-05,1e-05,4e-05,0.00011,0.00037,0,-2e-05,-1e-05,5,4
21823,2e-05,1e-05,4e-05,0.00011,0.00037,0,-2e-05,-1e-05,5,4
21824,2e-05,1e-05,4e-05,0.00011,0.00037,0,-2e-05,-1e-05,5,4
21825,2e-05,1e-05,4e-05,0.00011,0.00037,0,-2e-05,-1e-05,5,4
21826,-1e-05,3e-05,0.00014,0.00027,0.00034,2e-05,1e-05,-6e-05,5,4
21827,-1e-05,3e-05,0.00014,0.00027,0.00034,2e-05,1e-05,-6e-05,5,4
21828,-1e-05,5e-05,-2e-05,-0.00036,-0.00041,-1e-05,-1e-05,-4e-05,5,4
21830,-1e-05,5e-05,-2e-05,-0.00036,-0.00041,-1e-05,-1e-05,-4e-05,5,4
21831,-1e-05,5e-05,-2e-05,-0.00036,-0.00041,-1e-05,-1e-05,-4e-05,5,4
21832,-1e-05,5e-05,-2e-05,-0.00036,-0.00041,-1e-05,-1e-05,-4e-05,5,4
21833,-1e-05,5e-05,-2e-05,-0.00036,-0.00041,-1e-05,-1e-05,-4e-05,5,4
21834,-1e-05,5e-05,-2e-05,-0.00036,-0.00041,-1e-05,-1e-05,-4e-05,5,4
21835,-1e-05,5e-05,-2e-05,-0.00036,-0.00041,-1e-05,-1e-05,-4e-05,5,4
21836,-1e-05,5e-05,-2e-05,-0.00036,-0.00041,-1e-05,-1e-05,-4e-05,5,4
21837,-1e-05,5e-05,-2e-05,-0.00036,-0.00041,-1e-05,-1e-05,-4e-05,5,4
21838,-1e-05,5e-05,-2e-05,-0.00036,-0.00041,-1e-05,-1e-05,-4e-05,5,4
21839,-1e-05,5e-05,-2e-05,-0.00036,-0.00041,-1e-05,-1e-05,-4e-05,5,4
21840,1e-05,-1e-05,-7e-05,-0.00015,0.0002,1e-05,5e-05,-6e-05,5,4
21841,1e-05,-1e-05,-7e-05,-0.00015,0.0002,1e-05,5e-05,-6e-05,5,4
21842,1e-05,-1e-05,-7e-05,-0.00015,0.0002,1e-05,5e-05,-6e-05,5,4
21843,1e-05,-1e-05,-7e-05,-0.00015,0.0002,1e-05,5e-05,-6e-05,5,4
21844,1e-05,-1e-05,-7e-05,-0.00015,0.0002,1e-05,5e-05,-6e-05,5,4
21845,1e-05,-1e-05,-7e-05,-0.00015,0.0002,1e-05,5e-05,-6e-05,5,4
21846,1e-05,-1e-05,-7e-05,-0.00015,0.0002,1e-05,5e-05,-6e-05,5,4
21847,1e-05,-1e-05,-7e-05,-0.00015,0.0002,1e-05,5e-05,-6e-05,5,4
21848,1e-05,-1e-05,-7e-05,-0.00015,0.0002,1e-05,5e-05,-6e-05,5,4
21849,1e-05,-1e-05,-7e-05,-0.00015,0.0002,1e-05,5e-05,-6e-05,5,4
21850,2e-05,-6e-05,-0.0002,-0.00043,-0.00043,-0.00019,-6e-05,-6e-05,5,4
21852,2e-05,-6e-05,-0.0002,-0.00043,-0.00043,-0.00019,-6e-05,-6e-05,5,4
21854,2e-05,-6e-05,-0.0002,-0.00043,-0.00043,-0.00019,-6e-05,-6e-05,5,4
21855,2e-05,-6e-05,-0.0002,-0.00043,-0.00043,-0.00019,-6e-05,-6e-05,5,4
21856,2e-05,-6e-05,-0.0002,-0.00043,-0.00043,-0.00019,-6e-05,-6e-05,5,4
21857,2e-05,-6e-05,-0.0002,-0.00043,-0.00043,-0.00019,-6e-05,-6e-05,5,4
21858,2e-05,-6e-05,-0.0002,-0.00043,-0.00043,-0.00019,-6e-05,-6e-05,5,4
21859,2e-05,-6e-05,-0.0002,-0.00043,-0.00043,-0.00019,-6e-05,-6e-05,5,4
21860,2e-05,-6e-05,-0.0002,-0.00043,-0.00043,-0.00019,-6e-05,-6e-05,5,4
21861,2e-05,-6e-05,-0.0002,-0.00043,-0.00043,-0.00019,-6e-05,-6e-05,5,4
21862,2e-05,-6e-05,-0.0002,-0.00043,-0.00043,-0.00019,-6e-05,-6e-05,5,4
21863,2e-05,-6e-05,-0.0002,-0.00043,-0.00043,-0.00019,-6e-05,-6e-05,5,4
21864,6e-05,2e-05,-1e-05,0.0001,0.00062,0.00013,7e-05,5e-05,5,4
21865,4e-05,9e-05,0.0001,0.0003,0.00028,7e-05,0,4e-05,5,4
21866,4e-05,9e-05,0.0001,0.0003,0.00028,7e-05,0,4e-05,5,4
21867,4e-05,9e-05,0.0001,0.0003,0.00028,7e-05,0,4e-05,5,4
21868,4e-05,9e-05,0.0001,0.0003,0.00028,7e-05,0,4e-05,5,4
21869,4e-05,9e-05,0.0001,0.0003,0.00028,7e-05,0,4e-05,5,4
21870,4e-05,9e-05,0.0001,0.0003,0.00028,7e-05,0,4e-05,5,4
21871,4e-05,9e-05,0.0001,0.0003,0.00028,7e-05,0,4e-05,5,4
21872,4e-05,9e-05,0.0001,0.0003,0.00028,7e-05,0,4e-05,5,4
21873,4e-05,9e-05,0.0001,0.0003,0.00028,7e-05,0,4e-05,5,4
21874,4e-05,9e-05,0.0001,0.0003,0.00028,7e-05,0,4e-05,5,4
21875,4e-05,9e-05,0.0001,0.0003,0.00028,7e-05,0,4e-05,5,4
21876,4e-05,9e-05,0.0001,0.0003,0.00028,7e-05,0,4e-05,5,4
21878,4e-05,9e-05,0.0001,0.0003,0.00028,7e-05,0,4e-05,5,4
21879,4e-05,9e-05,0.0001,0.0003,0.00028,7e-05,0,4e-05,5,4
21880,4e-05,9e-05,0.0001,0.0003,0.00028,7e-05,0,4e-05,5,4
21881,4e-05,9e-05,0.0001,0.0003,0.00028,7e-05,0,4e-05,5,4
21882,4e-05,9e-05,0.0001,0.0003,0.00028,7e-05,0,4e-05,5,4
21883,4e-05,9e-05,0.0001,0.0003,0.00028,7e-05,0,4e-05,5,4
21884,4e-05,9e-05,0.0001,0.0003,0.00028,7e-05,0,4e-05,5,4
21885,4e-05,9e-05,0.0001,0.0003,0.00028,7e-05,0,4e-05,5,4
21886,-3e-05,0.00011,0.00021,-0.00019,-0.00078,-0.00016,-8e-05,-2e-05,5,4
21888,-1e-05,0,-0.00011,0.00022,0.00036,2e-05,0,0,5,4
21889,-1e-05,0,-0.00011,0.00022,0.00036,2e-05,0,0,5,4
21890,-1e-05,0,-0.00011,0.00022,0.00036,2e-05,0,0,5,4
21891,-1e-05,0,-0.00011,0.00022,0.00036,2e-05,0,0,5,4
21892,-1e-05,0,-0.00011,0.00022,0.00036,2e-05,0,0,5,4
21893,-1e-05,0,-0.00011,0.00022,0.00036,2e-05,0,0,5,4
21894,-1e-05,0,-0.00011,0.00022,0.00036,2e-05,0,0,5,4
21895,-1e-05,0,-0.00011,0.00022,0.00036,2e-05,0,0,5,4
21896,-1e-05,0,-0.00011,0.00022,0.00036,2e-05,0,0,5,4
21897,-1e-05,0,-0.00011,0.00022,0.00036,2e-05,0,0,5,4
21898,-1e-05,0,-0.00011,0.00022,0.00036,2e-05,0,0,5,4
21899,-1e-05,0,-0.00011,0.00022,0.00036,2e-05,0,0,5,4
21900,-4e-05,-2e-05,0.00015,-1e-05,-0.00016,2e-05,-6e-05,2e-05,5,4
21901,-4e-05,-2e-05,0.00015,-1e-05,-0.00016,2e-05,-6e-05,2e-05,5,4
21902,-4e-05,-2e-05,0.00015,-1e-05,-0.00016,2e-05,-6e-05,2e-05,5,4
21903,-4e-05,-2e-05,0.00015,-1e-05,-0.00016,2e-05,-6e-05,2e-05,5,4
21904,-4e-05,-2e-05,0.00015,-1e-05,-0.00016,2e-05,-6e-05,2e-05,5,4
21905,-4e-05,-2e-05,0.00015,-1e-05,-0.00016,2e-05,-6e-05,2e-05,5,4
21906,-4e-05,-2e-05,0.00015,-1e-05,-0.00016,2e-05,-6e-05,2e-05,5,4
21907,-4e-05,-2e-05,0.00015,-1e-05,-0.00016,2e-05,-6e-05,2e-05,5,4
21908,-4e-05,-2e-05,0.00015,-1e-05,-0.00016,2e-05,-6e-05,2e-05,5,4
21909,0,-3e-05,-0.00019,-6e-05,0.00031,-1e-05,6e-05,1e-05,5,4
21910,0,-3e-05,-0.00019,-6e-05,0.00031,-1e-05,6e-05,1e-05,5,4
21911,0,-3e-05,-0.00019,-6e-05,0.00031,-1e-05,6e-05,1e-05,5,4
21912,0,-3e-05,-0.00019,-6e-05,0.00031,-1e-05,6e-05,1e-05,5,4
21913,0,-3e-05,-0.00019,-6e-05,0.00031,-1e-05,6e-05,1e-05,5,4
21914,0,-3e-05,-0.00019,-6e-05,0.00031,-1e-05,6e-05,1e-05,5,4
21915,0,-3e-05,-0.00019,-6e-05,0.00031,-1e-05,6e-05,1e-05,5,4
21916,0,-3e-05,-0.00019,-6e-05,0.00031,-1e-05,6e-05,1e-05,5,4
21917,0,-3e-05,-0.00019,-6e-05,0.00031,-1e-05,6e-05,1e-05,5,4
21918,0,-3e-05,-0.00019,-6e-05,0.00031,-1e-05,6e-05,1e-05,5,4
21919,0,-3e-05,-0.00019,-6e-05,0.00031,-1e-05,6e-05,1e-05,5,4
21920,0,-3e-05,-0.00019,-6e-05,0.00031,-1e-05,6e-05,1e-05,5,4
21921,0,-3e-05,-0.00019,-6e-05,0.00031,-1e-05,6e-05,1e-05,5,4
21923,0,-3e-05,-0.00019,-6e-05,0.00031,-1e-05,6e-05,1e-05,5,4
21924,-0.00016,-0.00012,-0.00027,-0.00026,-0.00068,-0.00015,-7e-05,-8e-05,5,4
21925,-4e-05,-6e-05,-7e-05,-0.00035,-0.00018,2e-05,-5e-05,-2e-05,5,4
21926,-4e-05,-6e-05,-7e-05,-0.00035,-0.00018,2e-05,-5e-05,-2e-05,5,4
21927,-4e-05,-6e-05,-7e-05,-0.00035,-0.00018,2e-05,-5e-05,-2e-05,5,4
21928,-4e-05,-6e-05,-7e-05,-0.00035,-0.00018,2e-05,-5e-05,-2e-05,5,4
21929,-4e-05,-6e-05,-7e-05,-0.00035,-0.00018,2e-05,-5e-05,-2e-05,5,4
21930,-4e-05,-6e-05,-7e-05,-0.00035,-0.00018,2e-05,-5e-05,-2e-05,5,4
21931,-4e-05,-6e-05,-7e-05,-0.00035,-0.00018,2e-05,-5e-05,-2e-05,5,4
21932,-4e-05,-6e-05,-7e-05,-0.00035,-0.00018,2e-05,-5e-05,-2e-05,5,4
21933,-4e-05,-6e-05,-7e-05,-0.00035,-0.00018,2e-05,-5e-05,-2e-05,5,4
21934,-4e-05,-6e-05,-7e-05,-0.00035,-0.00018,2e-05,-5e-05,-2e-05,5,4
21935,-4e-05,-6e-05,-7e-05,-0.00035,-0.00018,2e-05,-5e-05,-2e-05,5,4
21936,-4e-05,-6e-05,-7e-05,-0.00035,-0.00018,2e-05,-5e-05,-2e-05,5,4
21937,-4e-05,-6e-05,-7e-05,-0.00035,-0.00018,2e-05,-5e-05,-2e-05,5,4
21938,-4e-05,-6e-05,-7e-05,-0.00035,-0.00018,2e-05,-5e-05,-2e-05,5,4
21939,-4e-05,-6e-05,-7e-05,-0.00035,-0.00018,2e-05,-5e-05,-2e-05,5,4
21940,-4e-05,-6e-05,-7e-05,-0.00035,-0.00018,2e-05,-5e-05,-2e-05,5,4
21941,-4e-05,-6e-05,-7e-05,-0.00035,-0.00018,2e-05,-5e-05,-2e-05,5,4
21942,-4e-05,-6e-05,-7e-05,-0.00035,-0.00018,2e-05,-5e-05,-2e-05,5,4
21943,-4e-05,-6e-05,-7e-05,-0.00035,-0.00018,2e-05,-5e-05,-2e-05,5,4
21944,-4e-05,-6e-05,-7e-05,-0.00035,-0.00018,2e-05,-5e-05,-2e-05,5,4
21945,-4e-05,-6e-05,-7e-05,-0.00035,-0.00018,2e-05,-5e-05,-2e-05,5,4
21946,8e-05,0,-5e-05,-0.00028,0.00058,3e-05,4e-05,1e-05,5,4
21947,8e-05,0,-5e-05,-0.00028,0.00058,3e-05,4e-05,1e-05,5,4
21948,-5e-05,-0.0001,-8e-05,-0.0004,-0.0007,-0.00016,-7e-05,-7e-05,5,4
21949,-5e-05,-0.0001,-8e-05,-0.0004,-0.0007,-0.00016,-7e-05,-7e-05,5,4
21950,-5e-05,-0.0001,-8e-05,-0.0004,-0.0007,-0.00016,-7e-05,-7e-05,5,4
21951,-5e-05,-0.0001,-8e-05,-0.0004,-0.0007,-0.00016,-7e-05,-7e-05,5,4
21952,-5e-05,-0.0001,-8e-05,-0.0004,-0.0007,-0.00016,-7e-05,-7e-05,5,4
21953,-5e-05,-0.0001,-8e-05,-0.0004,-0.0007,-0.00016,-7e-05,-7e-05,5,4
21954,-5e-05,-0.0001,-8e-05,-0.0004,-0.0007,-0.00016,-7e-05,-7e-05,5,4
21955,-5e-05,-0.0001,-8e-05,-0.0004,-0.0007,-0.00016,-7e-05,-7e-05,5,4
21956,-5e-05,-0.0001,-8e-05,-0.0004,-0.0007,-0.00016,-7e-05,-7e-05,5,4
21957,-5e-05,-0.0001,-8e-05,-0.0004,-0.0007,-0.00016,-7e-05,-7e-05,5,4
21958,-5e-05,-0.0001,-8e-05,-0.0004,-0.0007,-0.00016,-7e-05,-7e-05,5,4
21959,-5e-05,-0.0001,-8e-05,-0.0004,-0.0007,-0.00016,-7e-05,-7e-05,5,4
21960,-3e-05,0.00013,1e-05,-0.00017,-0.00034,-1e-05,-1e-05,4e-05,5,4
21961,-3e-05,0.00013,1e-05,-0.00017,-0.00034,-1e-05,-1e-05,4e-05,5,4
21962,-3e-05,0.00013,1e-05,-0.00017,-0.00034,-1e-05,-1e-05,4e-05,5,4
21963,-3e-05,0.00013,1e-05,-0.00017,-0.00034,-1e-05,-1e-05,4e-05,5,4
21964,-3e-05,0.00013,1e-05,-0.00017,-0.00034,-1e-05,-1e-05,4e-05,5,4
21965,-3e-05,0.00013,1e-05,-0.00017,-0.00034,-1e-05,-1e-05,4e-05,5,4
21966,-3e-05,0.00013,1e-05,-0.00017,-0.00034,-1e-05,-1e-05,4e-05,5,4
21967,-3e-05,0.00013,1e-05,-0.00017,-0.00034,-1e-05,-1e-05,4e-05,5,4
21968,-3e-05,0.00013,1e-05,-0.00017,-0.00034,-1e-05,-1e-05,4e-05,5,4
21970,4e-05,8e-05,3e-05,0.00013,0.00037,-0.00011,1e-05,6e-05,5,4
21971,4e-05,8e-05,3e-05,0.00013,0.00037,-0.00011,1e-05,6e-05,5,4
21972,4e-05,8e-05,3e-05,0.00013,0.00037,-0.00011,1e-05,6e-05,5,4
21973,4e-05,8e-05,3e-05,0.00013,0.00037,-0.00011,1e-05,6e-05,5,4
21974,4e-05,8e-05,3e-05,0.00013,0.00037,-0.00011,1e-05,6e-05,5,4
21975,4e-05,8e-05,3e-05,0.00013,0.00037,-0.00011,1e-05,6e-05,5,4
21976,4e-05,8e-05,3e-05,0.00013,0.00037,-0.00011,1e-05,6e-05,5,4
21977,4e-05,8e-05,3e-05,0.00013,0.00037,-0.00011,1e-05,6e-05,5,4
21978,4e-05,8e-05,3e-05,0.00013,0.00037,-0.00011,1e-05,6e-05,5,4
21979,4e-05,8e-05,3e-05,0.00013,0.00037,-0.00011,1e-05,6e-05,5,4
21980,4e-05,8e-05,3e-05,0.00013,0.00037,-0.00011,1e-05,6e-05,5,4
21981,4e-05,8e-05,3e-05,0.00013,0.00037,-0.00011,1e-05,6e-05,5,4
21982,4e-05,8e-05,3e-05,0.00013,0.00037,-0.00011,1e-05,6e-05,5,4
21983,4e-05,8e-05,3e-05,0.00013,0.00037,-0.00011,1e-05,6e-05,5,4
21984,8e-05,0.0001,0.00018,0.0003,0.00017,6e-05,0,4e-05,5,4
21985,8e-05,0.0001,0.00018,0.0003,0.00017,6e-05,0,4e-05,5,4
21986,-0.00015,-3e-05,0.00012,0.00032,6e-05,6e-05,1e-05,-0.00012,5,4
21987,-0.00015,-3e-05,0.00012,0.00032,6e-05,6e-05,1e-05,-0.00012,5,4
21989,-0.00015,-3e-05,0.00012,0.00032,6e-05,6e-05,1e-05,-0.00012,5,4
21990,-0.00015,-3e-05,0.00012,0.00032,6e-05,6e-05,1e-05,-0.00012,5,4
21991,-0.00015,-3e-05,0.00012,0.00032,6e-05,6e-05,1e-05,-0.00012,5,4
21992,-0.00015,-3e-05,0.00012,0.00032,6e-05,6e-05,1e-05,-0.00012,5,4
21993,-0.00015,-3e-05,0.00012,0.00032,6e-05,6e-05,1e-05,-0.00012,5,4
21994,-0.00015,-3e-05,0.00012,0.00032,6e-05,6e-05,1e-05,-0.00012,5,4
21995,-0.00015,-3e-05,0.00012,0.00032,6e-05,6e-05,1e-05,-0.00012,5,4
21996,-0.00015,-3e-05,0.00012,0.00032,6e-05,6e-05,1e-05,-0.00012,5,4
21997,-0.00015,-3e-05,0.00012,0.00032,6e-05,6e-05,1e-05,-0.00012,5,4
21998,-0.00015,-3e-05,0.00012,0.00032,6e-05,6e-05,1e-05,-0.00012,5,4
21999,-0.00015,-3e-05,0.00012,0.00032,6e-05,6e-05,1e-05,-0.00012,5,4
22000,-0.00015,-3e-05,0.00012,0.00032,6e-05,6e-05,1e-05,-0.00012,5,4
22001,-0.00015,-3e-05,0.00012,0.00032,6e-05,6e-05,1e-05,-0.00012,5,4
22002,-0.00015,-3e-05,0.00012,0.00032,6e-05,6e-05,1e-05,-0.00012,5,4
22003,-0.00015,-3e-05,0.00012,0.00032,6e-05,6e-05,1e-05,-0.00012,5,4
22004,-0.00015,-3e-05,0.00012,0.00032,6e-05,6e-05,1e-05,-0.00012,5,4
22005,-0.00015,-3e-05,0.00012,0.00032,6e-05,6e-05,1e-05,-0.00012,5,4
22006,4e-05,6e-05,7e-05,0.0002,-0.00045,-6e-05,1e-05,2e-05,5,4
22007,4e-05,6e-05,7e-05,0.0002,-0.00045,-6e-05,1e-05,2e-05,5,4
22008,3e-05,4e-05,0.00018,0.00027,0.00017,0.00014,-1e-05,-3e-05,5,4
22009,3e-05,4e-05,0.00018,0.00027,0.00017,0.00014,-1e-05,-3e-05,5,4
22010,3e-05,4e-05,0.00018,0.00027,0.00017,0.00014,-1e-05,-3e-05,5,4
22011,3e-05,4e-05,0.00018,0.00027,0.00017,0.00014,-1e-05,-3e-05,5,4
22012,3e-05,4e-05,0.00018,0.00027,0.00017,0.00014,-1e-05,-3e-05,5,4
22013,3e-05,4e-05,0.00018,0.00027,0.00017,0.00014,-1e-05,-3e-05,5,4
22014,3e-05,4e-05,0.00018,0.00027,0.00017,0.00014,-1e-05,-3e-05,5,4
22015,3e-05,4e-05,0.00018,0.00027,0.00017,0.00014,-1e-05,-3e-05,5,4
22017,3e-05,4e-05,0.00018,0.00027,0.00017,0.00014,-1e-05,-3e-05,5,4
22018,3e-05,4e-05,0.00018,0.00027,0.00017,0.00014,-1e-05,-3e-05,5,4
22019,3e-05,4e-05,0.00018,0.00027,0.00017,0.00014,-1e-05,-3e-05,5,4
22020,3e-05,4e-05,0.00018,0.00027,0.00017,0.00014,-1e-05,-3e-05,5,4
22021,3e-05,4e-05,0.00018,0.00027,0.00017,0.00014,-1e-05,-3e-05,5,4
22022,3e-05,4e-05,0.00018,0.00027,0.00017,0.00014,-1e-05,-3e-05,5,4
22025,1e-05,2e-05,0.00022,0.00015,-1e-05,4e-05,-3e-05,6e-05,5,4
22027,1e-05,2e-05,0.00022,0.00015,-1e-05,4e-05,-3e-05,6e-05,5,4
22028,1e-05,2e-05,0.00022,0.00015,-1e-05,4e-05,-3e-05,6e-05,5,4
22029,1e-05,-0.00011,-0.00025,-0.00058,-0.00011,-5e-05,-3e-05,4e-05,5,4
22030,1e-05,-0.00011,-0.00025,-0.00058,-0.00011,-5e-05,-3e-05,4e-05,5,4
22031,1e-05,-0.00011,-0.00025,-0.00058,-0.00011,-5e-05,-3e-05,4e-05,5,4
22032,1e-05,-0.00011,-0.00025,-0.00058,-0.00011,-5e-05,-3e-05,4e-05,5,4
22033,1e-05,-0.00011,-0.00025,-0.00058,-0.00011,-5e-05,-3e-05,4e-05,5,4
22034,1e-05,-0.00011,-0.00025,-0.00058,-0.00011,-5e-05,-3e-05,4e-05,5,4
22035,1e-05,-0.00011,-0.00025,-0.00058,-0.00011,-5e-05,-3e-05,4e-05,5,4
22036,1e-05,-0.00011,-0.00025,-0.00058,-0.00011,-5e-05,-3e-05,4e-05,5,4
22037,1e-05,-0.00011,-0.00025,-0.00058,-0.00011,-5e-05,-3e-05,4e-05,5,4
22038,1e-05,-0.00011,-0.00025,-0.00058,-0.00011,-5e-05,-3e-05,4e-05,5,4
22039,1e-05,-0.00011,-0.00025,-0.00058,-0.00011,-5e-05,-3e-05,4e-05,5,4
22040,1e-05,-0.00011,-0.00025,-0.00058,-0.00011,-5e-05,-3e-05,4e-05,5,4
22041,1e-05,-0.00011,-0.00025,-0.00058,-0.00011,-5e-05,-3e-05,4e-05,5,4
22042,1e-05,-0.00011,-0.00025,-0.00058,-0.00011,-5e-05,-3e-05,4e-05,5,4
22043,1e-05,-0.00011,-0.00025,-0.00058,-0.00011,-5e-05,-3e-05,4e-05,5,4
22044,0,4e-05,0.00011,0.00029,0.00028,-3e-05,-3e-05,2e-05,5,4
22045,-9e-05,-2e-05,9e-05,0.00026,-4e-05,-5e-05,-3e-05,-4e-05,5,4
22046,-9e-05,-2e-05,9e-05,0.00026,-4e-05,-5e-05,-3e-05,-4e-05,5,4
22047,-9e-05,-2e-05,9e-05,0.00026,-4e-05,-5e-05,-3e-05,-4e-05,5,4
22048,-9e-05,-2e-05,9e-05,0.00026,-4e-05,-5e-05,-3e-05,-4e-05,5,4
22049,-9e-05,-2e-05,9e-05,0.00026,-4e-05,-5e-05,-3e-05,-4e-05,5,4
22050,-9e-05,-2e-05,9e-05,0.00026,-4e-05,-5e-05,-3e-05,-4e-05,5,4
22051,-9e-05,-2e-05,9e-05,0.00026,-4e-05,-5e-05,-3e-05,-4e-05,5,4
22052,-9e-05,-2e-05,9e-05,0.00026,-4e-05,-5e-05,-3e-05,-4e-05,5,4
22053,-9e-05,-2e-05,9e-05,0.00026,-4e-05,-5e-05,-3e-05,-4e-05,5,4
22054,-9e-05,-2e-05,9e-05,0.00026,-4e-05,-5e-05,-3e-05,-4e-05,5,4
22055,-9e-05,-2e-05,9e-05,0.00026,-4e-05,-5e-05,-3e-05,-4e-05,5,4
22056,-9e-05,-2e-05,9e-05,0.00026,-4e-05,-5e-05,-3e-05,-4e-05,5,4
22057,-9e-05,-2e-05,9e-05,0.00026,-4e-05,-5e-05,-3e-05,-4e-05,5,4
22058,-9e-05,-2e-05,9e-05,0.00026,-4e-05,-5e-05,-3e-05,-4e-05,5,4
22059,-9e-05,-2e-05,9e-05,0.00026,-4e-05,-5e-05,-3e-05,-4e-05,5,4
22060,-9e-05,-2e-05,9e-05,0.00026,-4e-05,-5e-05,-3e-05,-4e-05,5,4
22061,-9e-05,-2e-05,9e-05,0.00026,-4e-05,-5e-05,-3e-05,-4e-05,5,4
22062,-9e-05,-2e-05,9e-05,0.00026,-4e-05,-5e-05,-3e-05,-4e-05,5,4
22064,-9e-05,-2e-05,9e-05,0.00026,-4e-05,-5e-05,-3e-05,-4e-05,5,4
22065,-9e-05,-2e-05,9e-05,0.00026,-4e-05,-5e-05,-3e-05,-4e-05,5,4
22066,-0.00021,-0.00034,-0.00051,-0.00077,-0.00045,-5e-05,-4e-05,-0.00011,5,4
22067,-0.00021,-0.00034,-0.00051,-0.00077,-0.00045,-5e-05,-4e-05,-0.00011,5,4
22068,1e-05,9e-05,0.00025,0.00032,-0.0001,-2e-05,-5e-05,4e-05,5,4
22069,1e-05,9e-05,0.00025,0.00032,-0.0001,-2e-05,-5e-05,4e-05,5,4
22070,1e-05,9e-05,0.00025,0.00032,-0.0001,-2e-05,-5e-05,4e-05,5,4
22071,1e-05,9e-05,0.00025,0.00032,-0.0001,-2e-05,-5e-05,4e-05,5,4
22072,1e-05,9e-05,0.00025,0.00032,-0.0001,-2e-05,-5e-05,4e-05,5,4
22073,1e-05,9e-05,0.00025,0.00032,-0.0001,-2e-05,-5e-05,4e-05,5,4
22074,1e-05,9e-05,0.00025,0.00032,-0.0001,-2e-05,-5e-05,4e-05,5,4
22075,1e-05,9e-05,0.00025,0.00032,-0.0001,-2e-05,-5e-05,4e-05,5,4
22076,1e-05,9e-05,0.00025,0.00032,-0.0001,-2e-05,-5e-05,4e-05,5,4
22077,1e-05,9e-05,0.00025,0.00032,-0.0001,-2e-05,-5e-05,4e-05,5,4
22078,1e-05,9e-05,0.00025,0.00032,-0.0001,-2e-05,-5e-05,4e-05,5,4
22079,1e-05,9e-05,0.00025,0.00032,-0.0001,-2e-05,-5e-05,4e-05,5,4
22080,-1e-05,9e-05,0.0002,0.00039,0.00025,1e-05,0,-6e-05,5,4
22081,-1e-05,9e-05,0.0002,0.00039,0.00025,1e-05,0,-6e-05,5,4
22082,-1e-05,9e-05,0.0002,0.00039,0.00025,1e-05,0,-6e-05,5,4
22083,-1e-05,9e-05,0.0002,0.00039,0.00025,1e-05,0,-6e-05,5,4
22084,-1e-05,9e-05,0.0002,0.00039,0.00025,1e-05,0,-6e-05,5,4
22085,-1e-05,9e-05,0.0002,0.00039,0.00025,1e-05,0,-6e-05,5,4
22086,-1e-05,9e-05,0.0002,0.00039,0.00025,1e-05,0,-6e-05,5,4
22087,-1e-05,9e-05,0.0002,0.00039,0.00025,1e-05,0,-6e-05,5,4
22088,-1e-05,9e-05,0.0002,0.00039,0.00025,1e-05,0,-6e-05,5,4
22089,-2e-05,-6e-05,-0.00023,-0.00028,-0.00055,5e-05,-1e-05,4e-05,5,4
22090,-2e-05,-6e-05,-0.00023,-0.00028,-0.00055,5e-05,-1e-05,4e-05,5,4
22091,-2e-05,-6e-05,-0.00023,-0.00028,-0.00055,5e-05,-1e-05,4e-05,5,4
22092,-2e-05,-6e-05,-0.00023,-0.00028,-0.00055,5e-05,-1e-05,4e-05,5,4
22093,-2e-05,-6e-05,-0.00023,-0.00028,-0.00055,5e-05,-1e-05,4e-05,5,4
22094,-2e-05,-6e-05,-0.00023,-0.00028,-0.00055,5e-05,-1e-05,4e-05,5,4
22095,-2e-05,-6e-05,-0.00023,-0.00028,-0.00055,5e-05,-1e-05,4e-05,5,4
22096,-2e-05,-6e-05,-0.00023,-0.00028,-0.00055,5e-05,-1e-05,4e-05,5,4
22097,-2e-05,-6e-05,-0.00023,-0.00028,-0.00055,5e-05,-1e-05,4e-05,5,4
22098,-2e-05,-6e-05,-0.00023,-0.00028,-0.00055,5e-05,-1e-05,4e-05,5,4
22099,-2e-05,-6e-05,-0.00023,-0.00028,-0.00055,5e-05,-1e-05,4e-05,5,4
22100,-2e-05,-6e-05,-0.00023,-0.00028,-0.00055,5e-05,-1e-05,4e-05,5,4
22101,-2e-05,-6e-05,-0.00023,-0.00028,-0.00055,5e-05,-1e-05,4e-05,5,4
22102,-2e-05,-6e-05,-0.00023,-0.00028,-0.00055,5e-05,-1e-05,4e-05,5,4
22103,-2e-05,-6e-05,-0.00023,-0.00028,-0.00055,5e-05,-1e-05,4e-05,5,4
22104,3e-05,-9e-05,-0.0002,-0.00061,-0.00031,0,-2e-05,-2e-05,5,4
22105,2e-05,7e-05,0.00015,0.00046,0.00068,-1e-05,3e-05,-5e-05,5,4
22106,2e-05,7e-05,0.00015,0.00046,0.00068,-1e-05,3e-05,-5e-05,5,4
22107,2e-05,7e-05,0.00015,0.00046,0.00068,-1e-05,3e-05,-5e-05,5,4
22108,2e-05,7e-05,0.00015,0.00046,0.00068,-1e-05,3e-05,-5e-05,5,4
22109,2e-05,7e-05,0.00015,0.00046,0.00068,-1e-05,3e-05,-5e-05,5,4
22110,2e-05,7e-05,0.00015,0.00046,0.00068,-1e-05,3e-05,-5e-05,5,4
22112,2e-05,7e-05,0.00015,0.00046,0.00068,-1e-05,3e-05,-5e-05,5,4
22113,2e-05,7e-05,0.00015,0.00046,0.00068,-1e-05,3e-05,-5e-05,5,4
22114,2e-05,7e-05,0.00015,0.00046,0.00068,-1e-05,3e-05,-5e-05,5,4
22115,2e-05,7e-05,0.00015,0.00046,0.00068,-1e-05,3e-05,-5e-05,5,4
22116,2e-05,7e-05,0.00015,0.00046,0.00068,-1e-05,3e-05,-5e-05,5,4
22117,2e-05,7e-05,0.00015,0.00046,0.00068,-1e-05,3e-05,-5e-05,5,4
22118,2e-05,7e-05,0.00015,0.00046,0.00068,-1e-05,3e-05,-5e-05,5,4
22119,2e-05,7e-05,0.00015,0.00046,0.00068,-1e-05,3e-05,-5e-05,5,4
22120,2e-05,7e-05,0.00015,0.00046,0.00068,-1e-05,3e-05,-5e-05,5,4
22121,2e-05,7e-05,0.00015,0.00046,0.00068,-1e-05,3e-05,-5e-05,5,4
22122,2e-05,7e-05,0.00015,0.00046,0.00068,-1e-05,3e-05,-5e-05,5,4
22123,2e-05,7e-05,0.00015,0.00046,0.00068,-1e-05,3e-05,-5e-05,5,4
22124,2e-05,7e-05,0.00015,0.00046,0.00068,-1e-05,3e-05,-5e-05,5,4
22125,2e-05,7e-05,0.00015,0.00046,0.00068,-1e-05,3e-05,-5e-05,5,4
22126,-0.00011,3e-05,-3e-05,-9e-05,-5e-05,-3e-05,0,0,5,4
22127,-0.00011,3e-05,-3e-05,-9e-05,-5e-05,-3e-05,0,0,5,4
22128,2e-05,-7e-05,-5e-05,-5e-05,-0.00017,-6e-05,-1e-05,-7e-05,5,4
22129,2e-05,-7e-05,-5e-05,-5e-05,-0.00017,-6e-05,-1e-05,-7e-05,5,4
22130,2e-05,-7e-05,-5e-05,-5e-05,-0.00017,-6e-05,-1e-05,-7e-05,5,4
22131,2e-05,-7e-05,-5e-05,-5e-05,-0.00017,-6e-05,-1e-05,-7e-05,5,4
22132,2e-05,-7e-05,-5e-05,-5e-05,-0.00017,-6e-05,-1e-05,-7e-05,5,4
22133,2e-05,-7e-05,-5e-05,-5e-05,-0.00017,-6e-05,-1e-05,-7e-05,5,4
22134,2e-05,-7e-05,-5e-05,-5e-05,-0.00017,-6e-05,-1e-05,-7e-05,5,4
22135,2e-05,-7e-05,-5e-05,-5e-05,-0.00017,-6e-05,-1e-05,-7e-05,5,4
22136,2e-05,-7e-05,-5e-05,-5e-05,-0.00017,-6e-05,-1e-05,-7e-05,5,4
22137,2e-05,-7e-05,-5e-05,-5e-05,-0.00017,-6e-05,-1e-05,-7e-05,5,4
22138,2e-05,-7e-05,-5e-05,-5e-05,-0.00017,-6e-05,-1e-05,-7e-05,5,4
22139,2e-05,-7e-05,-5e-05,-5e-05,-0.00017,-6e-05,-1e-05,-7e-05,5,4
22140,-5e-05,-4e-05,6e-05,-9e-05,-0.00025,-6e-05,0,-1e-05,5,4
22141,-5e-05,-4e-05,6e-05,-9e-05,-0.00025,-6e-05,0,-1e-05,5,4
22142,-5e-05,-4e-05,6e-05,-9e-05,-0.00025,-6e-05,0,-1e-05,5,4
22143,-5e-05,-4e-05,6e-05,-9e-05,-0.00025,-6e-05,0,-1e-05,5,4
22144,-5e-05,-4e-05,6e-05,-9e-05,-0.00025,-6e-05,0,-1e-05,5,4
22145,-5e-05,-4e-05,6e-05,-9e-05,-0.00025,-6e-05,0,-1e-05,5,4
22146,-5e-05,-4e-05,6e-05,-9e-05,-0.00025,-6e-05,0,-1e-05,5,4
22147,-5e-05,-4e-05,6e-05,-9e-05,-0.00025,-6e-05,0,-1e-05,5,4
22148,-5e-05,-4e-05,6e-05,-9e-05,-0.00025,-6e-05,0,-1e-05,5,4
22149,-4e-05,8e-05,7e-05,-0.00014,-0.00038,-5e-05,-5e-05,0,5,4
22150,-4e-05,8e-05,7e-05,-0.00014,-0.00038,-5e-05,-5e-05,0,5,4
22151,-4e-05,8e-05,7e-05,-0.00014,-0.00038,-5e-05,-5e-05,0,5,4
22152,-4e-05,8e-05,7e-05,-0.00014,-0.00038,-5e-05,-5e-05,0,5,4
22153,-4e-05,8e-05,7e-05,-0.00014,-0.00038,-5e-05,-5e-05,0,5,4
22154,-4e-05,8e-05,7e-05,-0.00014,-0.00038,-5e-05,-5e-05,0,5,4
22155,-4e-05,8e-05,7e-05,-0.00014,-0.00038,-5e-05,-5e-05,0,5,4
22157,-4e-05,8e-05,7e-05,-0.00014,-0.00038,-5e-05,-5e-05,0,5,4
22158,-4e-05,8e-05,7e-05,-0.00014,-0.00038,-5e-05,-5e-05,0,5,4
22159,-4e-05,8e-05,7e-05,-0.00014,-0.00038,-5e-05,-5e-05,0,5,4
22160,-4e-05,8e-05,7e-05,-0.00014,-0.00038,-5e-05,-5e-05,0,5,4
22161,-4e-05,8e-05,7e-05,-0.00014,-0.00038,-5e-05,-5e-05,0,5,4
22162,-4e-05,8e-05,7e-05,-0.00014,-0.00038,-5e-05,-5e-05,0,5,4
22163,-4e-05,8e-05,7e-05,-0.00014,-0.00038,-5e-05,-5e-05,0,5,4
22164,5e-05,-4e-05,-6e-05,0.00015,-0.00035,1e-05,-3e-05,4e-05,5,4
22165,-8e-05,-9e-05,-0.0002,-0.00022,-0.00061,-5e-05,-2e-05,-3e-05,5,4
22166,-8e-05,-9e-05,-0.0002,-0.00022,-0.00061,-5e-05,-2e-05,-3e-05,5,4
22167,-8e-05,-9e-05,-0.0002,-0.00022,-0.00061,-5e-05,-2e-05,-3e-05,5,4
22168,-8e-05,-9e-05,-0.0002,-0.00022,-0.00061,-5e-05,-2e-05,-3e-05,5,4
22169,-8e-05,-9e-05,-0.0002,-0.00022,-0.00061,-5e-05,-2e-05,-3e-05,5,4
22170,-8e-05,-9e-05,-0.0002,-0.00022,-0.00061,-5e-05,-2e-05,-3e-05,5,4
22171,-8e-05,-9e-05,-0.0002,-0.00022,-0.00061,-5e-05,-2e-05,-3e-05,5,4
22172,-8e-05,-9e-05,-0.0002,-0.00022,-0.00061,-5e-05,-2e-05,-3e-05,5,4
22173,-8e-05,-9e-05,-0.0002,-0.00022,-0.00061,-5e-05,-2e-05,-3e-05,5,4
22174,-8e-05,-9e-05,-0.0002,-0.00022,-0.00061,-5e-05,-2e-05,-3e-05,5,4
22175,-8e-05,-9e-05,-0.0002,-0.00022,-0.00061,-5e-05,-2e-05,-3e-05,5,4
22176,-8e-05,-9e-05,-0.0002,-0.00022,-0.00061,-5e-05,-2e-05,-3e-05,5,4
22177,-8e-05,-9e-05,-0.0002,-0.00022,-0.00061,-5e-05,-2e-05,-3e-05,5,4
22178,-8e-05,-9e-05,-0.0002,-0.00022,-0.00061,-5e-05,-2e-05,-3e-05,5,4
22179,-8e-05,-9e-05,-0.0002,-0.00022,-0.00061,-5e-05,-2e-05,-3e-05,5,4
22180,-8e-05,-9e-05,-0.0002,-0.00022,-0.00061,-5e-05,-2e-05,-3e-05,5,4
22181,-8e-05,-9e-05,-0.0002,-0.00022,-0.00061,-5e-05,-2e-05,-3e-05,5,4
22182,-8e-05,-9e-05,-0.0002,-0.00022,-0.00061,-5e-05,-2e-05,-3e-05,5,4
22183,-8e-05,-9e-05,-0.0002,-0.00022,-0.00061,-5e-05,-2e-05,-3e-05,5,4
22184,-8e-05,-9e-05,-0.0002,-0.00022,-0.00061,-5e-05,-2e-05,-3e-05,5,4
22185,-8e-05,-9e-05,-0.0002,-0.00022,-0.00061,-5e-05,-2e-05,-3e-05,5,4
22186,-0.00011,-0.00011,-0.00022,8e-05,0.00019,-2e-05,-4e-05,-5e-05,5,4
22188,2e-05,-5e-05,-6e-05,-0.00017,0.00018,-2e-05,-3e-05,-2e-05,5,4
22189,2e-05,-5e-05,-6e-05,-0.00017,0.00018,-2e-05,-3e-05,-2e-05,5,4
22190,2e-05,-5e-05,-6e-05,-0.00017,0.00018,-2e-05,-3e-05,-2e-05,5,4
22191,2e-05,-5e-05,-6e-05,-0.00017,0.00018,-2e-05,-3e-05,-2e-05,5,4
22192,2e-05,-5e-05,-6e-05,-0.00017,0.00018,-2e-05,-3e-05,-2e-05,5,4
22193,2e-05,-5e-05,-6e-05,-0.00017,0.00018,-2e-05,-3e-05,-2e-05,5,4
22194,2e-05,-5e-05,-6e-05,-0.00017,0.00018,-2e-05,-3e-05,-2e-05,5,4
22195,2e-05,-5e-05,-6e-05,-0.00017,0.00018,-2e-05,-3e-05,-2e-05,5,4
22196,2e-05,-5e-05,-6e-05,-0.00017,0.00018,-2e-05,-3e-05,-2e-05,5,4
22197,2e-05,-5e-05,-6e-05,-0.00017,0.00018,-2e-05,-3e-05,-2e-05,5,4
22198,2e-05,-5e-05,-6e-05,-0.00017,0.00018,-2e-05,-3e-05,-2e-05,5,4
22199,2e-05,-5e-05,-6e-05,-0.00017,0.00018,-2e-05,-3e-05,-2e-05,5,4
22200,2e-05,-5e-05,-6e-05,-0.00017,0.00018,-2e-05,-3e-05,-2e-05,5,4
22201,2e-05,-5e-05,-6e-05,-0.00017,0.00018,-2e-05,-3e-05,-2e-05,5,4
22202,2e-05,-5e-05,-6e-05,-0.00017,0.00018,-2e-05,-3e-05,-2e-05,5,4
22203,2e-05,-5e-05,-6e-05,-0.00017,0.00018,-2e-05,-3e-05,-2e-05,5,4
22205,2e-05,-5e-05,-6e-05,-0.00017,0.00018,-2e-05,-3e-05,-2e-05,5,4
22206,2e-05,-5e-05,-6e-05,-0.00017,0.00018,-2e-05,-3e-05,-2e-05,5,4
22207,2e-05,-5e-05,-6e-05,-0.00017,0.00018,-2e-05,-3e-05,-2e-05,5,4
22208,2e-05,-5e-05,-6e-05,-0.00017,0.00018,-2e-05,-3e-05,-2e-05,5,4
22209,-7e-05,-0.00015,-0.00028,-0.00055,0.00077,8e-05,1e-05,-4e-05,5,4
22210,0,2e-05,9e-05,-0.00021,5e-05,0.0001,0,3e-05,5,4
22211,0,2e-05,9e-05,-0.00021,5e-05,0.0001,0,3e-05,5,4
22212,0,2e-05,9e-05,-0.00021,5e-05,0.0001,0,3e-05,5,4
22213,0,2e-05,9e-05,-0.00021,5e-05,0.0001,0,3e-05,5,4
22214,0,2e-05,9e-05,-0.00021,5e-05,0.0001,0,3e-05,5,4
22215,0,2e-05,9e-05,-0.00021,5e-05,0.0001,0,3e-05,5,4
22216,0,2e-05,9e-05,-0.00021,5e-05,0.0001,0,3e-05,5,4
22217,0,2e-05,9e-05,-0.00021,5e-05,0.0001,0,3e-05,5,4
22218,0,2e-05,9e-05,-0.00021,5e-05,0.0001,0,3e-05,5,4
22219,0,2e-05,9e-05,-0.00021,5e-05,0.0001,0,3e-05,5,4
22220,0,2e-05,9e-05,-0.00021,5e-05,0.0001,0,3e-05,5,4
22221,0,2e-05,9e-05,-0.00021,5e-05,0.0001,0,3e-05,5,4
22222,0,2e-05,9e-05,-0.00021,5e-05,0.0001,0,3e-05,5,4
22223,0,2e-05,9e-05,-0.00021,5e-05,0.0001,0,3e-05,5,4
22224,1e-05,-8e-05,-0.00018,0.00011,0.00059,-1e-05,2e-05,-5e-05,5,4
22225,0.00011,0.00022,0.00027,0.00036,0.00022,-6e-05,3e-05,0.0001,5,4
22226,0.00011,0.00022,0.00027,0.00036,0.00022,-6e-05,3e-05,0.0001,5,4
22227,0.00011,0.00022,0.00027,0.00036,0.00022,-6e-05,3e-05,0.0001,5,4
22228,0.00011,0.00022,0.00027,0.00036,0.00022,-6e-05,3e-05,0.0001,5,4
22229,0.00011,0.00022,0.00027,0.00036,0.00022,-6e-05,3e-05,0.0001,5,4
22230,0.00011,0.00022,0.00027,0.00036,0.00022,-6e-05,3e-05,0.0001,5,4
22231,0.00011,0.00022,0.00027,0.00036,0.00022,-6e-05,3e-05,0.0001,5,4
22232,0.00011,0.00022,0.00027,0.00036,0.00022,-6e-05,3e-05,0.0001,5,4
22233,0.00011,0.00022,0.00027,0.00036,0.00022,-6e-05,3e-05,0.0001,5,4
22234,0.00011,0.00022,0.00027,0.00036,0.00022,-6e-05,3e-05,0.0001,5,4
22235,0.00011,0.00022,0.00027,0.00036,0.00022,-6e-05,3e-05,0.0001,5,4
22236,0.00011,0.00022,0.00027,0.00036,0.00022,-6e-05,3e-05,0.0001,5,4
22237,0.00011,0.00022,0.00027,0.00036,0.00022,-6e-05,3e-05,0.0001,5,4
22238,0.00011,0.00022,0.00027,0.00036,0.00022,-6e-05,3e-05,0.0001,5,4
22239,0.00011,0.00022,0.00027,0.00036,0.00022,-6e-05,3e-05,0.0001,5,4
22240,0.00011,0.00022,0.00027,0.00036,0.00022,-6e-05,3e-05,0.0001,5,4
22241,0.00011,0.00022,0.00027,0.00036,0.00022,-6e-05,3e-05,0.0001,5,4
22242,0.00011,0.00022,0.00027,0.00036,0.00022,-6e-05,3e-05,0.0001,5,4
22243,0.00011,0.00022,0.00027,0.00036,0.00022,-6e-05,3e-05,0.0001,5,4
22244,0.00011,0.00022,0.00027,0.00036,0.00022,-6e-05,3e-05,0.0001,5,4
22245,0.00011,0.00022,0.00027,0.00036,0.00022,-6e-05,3e-05,0.0001,5,4
22246,5e-05,9e-05,0.00027,0.0003,-0.00041,-5e-05,-6e-05,6e-05,5,4
22247,5e-05,9e-05,0.00027,0.0003,-0.00041,-5e-05,-6e-05,6e-05,5,4
22248,-5e-05,-8e-05,-0.00017,-0.0003,-0.00033,-5e-05,2e-05,-5e-05,5,4
22249,-5e-05,-8e-05,-0.00017,-0.0003,-0.00033,-5e-05,2e-05,-5e-05,5,4
22251,-5e-05,-8e-05,-0.00017,-0.0003,-0.00033,-5e-05,2e-05,-5e-05,5,4
22253,-5e-05,-8e-05,-0.00017,-0.0003,-0.00033,-5e-05,2e-05,-5e-05,5,4
22254,-5e-05,-8e-05,-0.00017,-0.0003,-0.00033,-5e-05,2e-05,-5e-05,5,4
22255,-5e-05,-8e-05,-0.00017,-0.0003,-0.00033,-5e-05,2e-05,-5e-05,5,4
22256,-5e-05,-8e-05,-0.00017,-0.0003,-0.00033,-5e-05,2e-05,-5e-05,5,4
22257,-5e-05,-8e-05,-0.00017,-0.0003,-0.00033,-5e-05,2e-05,-5e-05,5,4
22258,-5e-05,-8e-05,-0.00017,-0.0003,-0.00033,-5e-05,2e-05,-5e-05,5,4
22259,-5e-05,-8e-05,-0.00017,-0.0003,-0.00033,-5e-05,2e-05,-5e-05,5,4
22260,-5e-05,-8e-05,-0.00017,-0.0003,-0.00033,-5e-05,2e-05,-5e-05,5,4
22261,-5e-05,-8e-05,-0.00017,-0.0003,-0.00033,-5e-05,2e-05,-5e-05,5,4
22262,-5e-05,-8e-05,-0.00017,-0.0003,-0.00033,-5e-05,2e-05,-5e-05,5,4
22263,-5e-05,-8e-05,-0.00017,-0.0003,-0.00033,-5e-05,2e-05,-5e-05,5,4
22264,-5e-05,-8e-05,-0.00017,-0.0003,-0.00033,-5e-05,2e-05,-5e-05,5,4
22265,-5e-05,-8e-05,-0.00017,-0.0003,-0.00033,-5e-05,2e-05,-5e-05,5,4
22266,-5e-05,-8e-05,-0.00017,-0.0003,-0.00033,-5e-05,2e-05,-5e-05,5,4
22267,-5e-05,-8e-05,-0.00017,-0.0003,-0.00033,-5e-05,2e-05,-5e-05,5,4
22268,-5e-05,-8e-05,-0.00017,-0.0003,-0.00033,-5e-05,2e-05,-5e-05,5,4
22269,-2e-05,-5e-05,-0.0002,-0.00076,-0.0007,-9e-05,-3e-05,-1e-05,5,4
22270,-2e-05,-6e-05,-0.00012,-0.0001,0.00018,3e-05,-2e-05,-3e-05,5,4
22271,-2e-05,-6e-05,-0.00012,-0.0001,0.00018,3e-05,-2e-05,-3e-05,5,4
22272,-2e-05,-6e-05,-0.00012,-0.0001,0.00018,3e-05,-2e-05,-3e-05,5,4
22273,-2e-05,-6e-05,-0.00012,-0.0001,0.00018,3e-05,-2e-05,-3e-05,5,4
22274,-2e-05,-6e-05,-0.00012,-0.0001,0.00018,3e-05,-2e-05,-3e-05,5,4
22275,-2e-05,-6e-05,-0.00012,-0.0001,0.00018,3e-05,-2e-05,-3e-05,5,4
22276,-2e-05,-6e-05,-0.00012,-0.0001,0.00018,3e-05,-2e-05,-3e-05,5,4
22277,-2e-05,-6e-05,-0.00012,-0.0001,0.00018,3e-05,-2e-05,-3e-05,5,4
22278,-2e-05,-6e-05,-0.00012,-0.0001,0.00018,3e-05,-2e-05,-3e-05,5,4
22279,-2e-05,-6e-05,-0.00012,-0.0001,0.00018,3e-05,-2e-05,-3e-05,5,4
22280,-2e-05,-6e-05,-0.00012,-0.0001,0.00018,3e-05,-2e-05,-3e-05,5,4
22281,-2e-05,-6e-05,-0.00012,-0.0001,0.00018,3e-05,-2e-05,-3e-05,5,4
22282,-2e-05,-6e-05,-0.00012,-0.0001,0.00018,3e-05,-2e-05,-3e-05,5,4
22283,-2e-05,-6e-05,-0.00012,-0.0001,0.00018,3e-05,-2e-05,-3e-05,5,4
22284,2e-05,-1e-05,7e-05,0.00016,0.00046,0,-3e-05,0,5,4
22285,0,-1e-05,-3e-05,0.00016,-0.00012,5e-05,-1e-05,5e-05,5,4
22286,0,-1e-05,-3e-05,0.00016,-0.00012,5e-05,-1e-05,5e-05,5,4
22287,0,-1e-05,-3e-05,0.00016,-0.00012,5e-05,-1e-05,5e-05,5,4
22288,0,-1e-05,-3e-05,0.00016,-0.00012,5e-05,-1e-05,5e-05,5,4
22289,0,-1e-05,-3e-05,0.00016,-0.00012,5e-05,-1e-05,5e-05,5,4
22290,0,-1e-05,-3e-05,0.00016,-0.00012,5e-05,-1e-05,5e-05,5,4
22291,0,-1e-05,-3e-05,0.00016,-0.00012,5e-05,-1e-05,5e-05,5,4
22292,0,-1e-05,-3e-05,0.00016,-0.00012,5e-05,-1e-05,5e-05,5,4
22293,0,-1e-05,-3e-05,0.00016,-0.00012,5e-05,-1e-05,5e-05,5,4
22294,0,-1e-05,-3e-05,0.00016,-0.00012,5e-05,-1e-05,5e-05,5,4
22295,0,-1e-05,-3e-05,0.00016,-0.00012,5e-05,-1e-05,5e-05,5,4
22296,0,-1e-05,-3e-05,0.00016,-0.00012,5e-05,-1e-05,5e-05,5,4
22298,0,-1e-05,-3e-05,0.00016,-0.00012,5e-05,-1e-05,5e-05,5,4
22299,0,-1e-05,-3e-05,0.00016,-0.00012,5e-05,-1e-05,5e-05,5,4
22300,0,-1e-05,-3e-05,0.00016,-0.00012,5e-05,-1e-05,5e-05,5,4
22301,0,-1e-05,-3e-05,0.00016,-0.00012,5e-05,-1e-05,5e-05,5,4
22303,0,-1e-05,-3e-05,0.00016,-0.00012,5e-05,-1e-05,5e-05,5,4
22304,0,-1e-05,-3e-05,0.00016,-0.00012,5e-05,-1e-05,5e-05,5,4
22305,0,-1e-05,-3e-05,0.00016,-0.00012,5e-05,-1e-05,5e-05,5,4
22306,-3e-05,6e-05,0.00015,0.00044,-3e-05,6e-05,4e-05,-4e-05,5,4
22307,-3e-05,6e-05,0.00015,0.00044,-3e-05,6e-05,4e-05,-4e-05,5,4
22308,-7e-05,-4e-05,-4e-05,0.00054,0.00095,8e-05,-6e-05,-6e-05,5,4
22309,-7e-05,-4e-05,-4e-05,0.00054,0.00095,8e-05,-6e-05,-6e-05,5,4
22310,-7e-05,-4e-05,-4e-05,0.00054,0.00095,8e-05,-6e-05,-6e-05,5,4
22311,-7e-05,-4e-05,-4e-05,0.00054,0.00095,8e-05,-6e-05,-6e-05,5,4
22312,-7e-05,-4e-05,-4e-05,0.00054,0.00095,8e-05,-6e-05,-6e-05,5,4
22313,-7e-05,-4e-05,-4e-05,0.00054,0.00095,8e-05,-6e-05,-6e-05,5,4
22314,-7e-05,-4e-05,-4e-05,0.00054,0.00095,8e-05,-6e-05,-6e-05,5,4
22315,-7e-05,-4e-05,-4e-05,0.00054,0.00095,8e-05,-6e-05,-6e-05,5,4
22316,-7e-05,-4e-05,-4e-05,0.00054,0.00095,8e-05,-6e-05,-6e-05,5,4
22317,-7e-05,-4e-05,-4e-05,0.00054,0.00095,8e-05,-6e-05,-6e-05,5,4
22318,-7e-05,-4e-05,-4e-05,0.00054,0.00095,8e-05,-6e-05,-6e-05,5,4
