22223,-8e-05,-0.00013,5e-05,0.00035,0.00012,0,-6e-05,-4e-05,5,5
22224,-6e-05,-3e-05,0,-6e-05,-0.00015,0,1e-05,0,5,5
22225,-6e-05,-3e-05,0,-6e-05,-0.00015,0,1e-05,0,5,5
22226,-6e-05,-3e-05,0,-6e-05,-0.00015,0,1e-05,0,5,5
22227,-6e-05,-3e-05,0,-6e-05,-0.00015,0,1e-05,0,5,5
22228,-6e-05,-3e-05,0,-6e-05,-0.00015,0,1e-05,0,5,5
22229,-6e-05,-3e-05,0,-6e-05,-0.00015,0,1e-05,0,5,5
22230,-1e-05,-8e-05,-0.00052,-0.00058,-0.00014,2e-05,4e-05,-3e-05,5,5
22231,-1e-05,-8e-05,-0.00052,-0.00058,-0.00014,2e-05,4e-05,-3e-05,5,5
22232,-1e-05,-8e-05,-0.00052,-0.00058,-0.00014,2e-05,4e-05,-3e-05,5,5
22233,-1e-05,-8e-05,-0.00052,-0.00058,-0.00014,2e-05,4e-05,-3e-05,5,5
22234,-1e-05,-8e-05,-0.00052,-0.00058,-0.00014,2e-05,4e-05,-3e-05,5,5
22235,-1e-05,-8e-05,-0.00052,-0.00058,-0.00014,2e-05,4e-05,-3e-05,5,5
22236,-1e-05,-8e-05,-0.00052,-0.00058,-0.00014,2e-05,4e-05,-3e-05,5,5
22239,5e-05,1e-05,0.00016,0.00013,5e-05,3e-05,4e-05,1e-05,5,5
22240,5e-05,1e-05,0.00016,0.00013,5e-05,3e-05,4e-05,1e-05,5,5
22241,5e-05,1e-05,0.00016,0.00013,5e-05,3e-05,4e-05,1e-05,5,5
22242,5e-05,1e-05,0.00016,0.00013,5e-05,3e-05,4e-05,1e-05,5,5
22243,5e-05,1e-05,0.00016,0.00013,5e-05,3e-05,4e-05,1e-05,5,5
22244,-6e-05,-0.00011,-0.00032,-0.00018,4e-05,1e-05,-2e-05,-1e-05,5,5
22245,4e-05,4e-05,0.00011,-0.00017,-0.00019,-3e-05,-1e-05,0,5,5
22246,4e-05,4e-05,0.00011,-0.00017,-0.00019,-3e-05,-1e-05,0,5,5
22247,4e-05,4e-05,0.00011,-0.00017,-0.00019,-3e-05,-1e-05,0,5,5
22248,4e-05,4e-05,0.00011,-0.00017,-0.00019,-3e-05,-1e-05,0,5,5
22249,4e-05,4e-05,0.00011,-0.00017,-0.00019,-3e-05,-1e-05,0,5,5
22250,4e-05,4e-05,0.00011,-0.00017,-0.00019,-3e-05,-1e-05,0,5,5
22251,4e-05,4e-05,0.00011,-0.00017,-0.00019,-3e-05,-1e-05,0,5,5
22252,4e-05,4e-05,0.00011,-0.00017,-0.00019,-3e-05,-1e-05,0,5,5
22253,4e-05,4e-05,0.00011,-0.00017,-0.00019,-3e-05,-1e-05,0,5,5
22254,4e-05,4e-05,0.00011,-0.00017,-0.00019,-3e-05,-1e-05,0,5,5
22255,4e-05,4e-05,0.00011,-0.00017,-0.00019,-3e-05,-1e-05,0,5,5
22256,4e-05,4e-05,0.00011,-0.00017,-0.00019,-3e-05,-1e-05,0,5,5
22257,4e-05,4e-05,0.00011,-0.00017,-0.00019,-3e-05,-1e-05,0,5,5
22258,4e-05,4e-05,0.00011,-0.00017,-0.00019,-3e-05,-1e-05,0,5,5
22259,4e-05,4e-05,0.00011,-0.00017,-0.00019,-3e-05,-1e-05,0,5,5
22260,4e-05,4e-05,0.00011,-0.00017,-0.00019,-3e-05,-1e-05,0,5,5
22261,4e-05,4e-05,0.00011,-0.00017,-0.00019,-3e-05,-1e-05,0,5,5
22262,4e-05,4e-05,0.00011,-0.00017,-0.00019,-3e-05,-1e-05,0,5,5
22263,4e-05,4e-05,0.00011,-0.00017,-0.00019,-3e-05,-1e-05,0,5,5
22264,4e-05,4e-05,0.00011,-0.00017,-0.00019,-3e-05,-1e-05,0,5,5
22265,4e-05,4e-05,0.00011,-0.00017,-0.00019,-3e-05,-1e-05,0,5,5
22266,4e-05,4e-05,0.00011,-0.00017,-0.00019,-3e-05,-1e-05,0,5,5
22267,4e-05,4e-05,0.00011,-0.00017,-0.00019,-3e-05,-1e-05,0,5,5
22268,4e-05,4e-05,0.00011,-0.00017,-0.00019,-3e-05,-1e-05,0,5,5
22269,3e-05,8e-05,0.0001,0.00015,0.00061,0.00014,6e-05,0,5,5
22270,3e-05,8e-05,0.0001,0.00015,0.00061,0.00014,6e-05,0,5,5
22271,3e-05,8e-05,0.0001,0.00015,0.00061,0.00014,6e-05,0,5,5
22272,-6e-05,-2e-05,-4e-05,-5e-05,5e-05,-0.0001,-5e-05,0,5,5
22273,-6e-05,-2e-05,-4e-05,-5e-05,5e-05,-0.0001,-5e-05,0,5,5
22274,-6e-05,-2e-05,-4e-05,-5e-05,5e-05,-0.0001,-5e-05,0,5,5
22275,-6e-05,-2e-05,-4e-05,-5e-05,5e-05,-0.0001,-5e-05,0,5,5
22276,-6e-05,-2e-05,-4e-05,-5e-05,5e-05,-0.0001,-5e-05,0,5,5
22277,-6e-05,-2e-05,-4e-05,-5e-05,5e-05,-0.0001,-5e-05,0,5,5
22278,-6e-05,-2e-05,-4e-05,-5e-05,5e-05,-0.0001,-5e-05,0,5,5
22279,-6e-05,-2e-05,-4e-05,-5e-05,5e-05,-0.0001,-5e-05,0,5,5
22280,-6e-05,-2e-05,-4e-05,-5e-05,5e-05,-0.0001,-5e-05,0,5,5
22281,-6e-05,-2e-05,-4e-05,-5e-05,5e-05,-0.0001,-5e-05,0,5,5
22282,-6e-05,-2e-05,-4e-05,-5e-05,5e-05,-0.0001,-5e-05,0,5,5
22283,-1e-05,0.00012,0.00013,8e-05,7e-05,1e-05,-1e-05,3e-05,5,5
22284,-1e-05,0.00012,0.00013,8e-05,7e-05,1e-05,-1e-05,3e-05,5,5
22285,0,3e-05,-2e-05,3e-05,-1e-05,-0.00012,-6e-05,0,5,5
22286,0,3e-05,-2e-05,3e-05,-1e-05,-0.00012,-6e-05,0,5,5
22289,0,3e-05,-2e-05,3e-05,-1e-05,-0.00012,-6e-05,0,5,5
22290,0,3e-05,-2e-05,3e-05,-1e-05,-0.00012,-6e-05,0,5,5
22291,0,3e-05,-2e-05,3e-05,-1e-05,-0.00012,-6e-05,0,5,5
22292,0,3e-05,-2e-05,3e-05,-1e-05,-0.00012,-6e-05,0,5,5
22293,0,3e-05,-2e-05,3e-05,-1e-05,-0.00012,-6e-05,0,5,5
22294,0,3e-05,-2e-05,3e-05,-1e-05,-0.00012,-6e-05,0,5,5
22295,0,3e-05,-2e-05,3e-05,-1e-05,-0.00012,-6e-05,0,5,5
22296,0,3e-05,-2e-05,3e-05,-1e-05,-0.00012,-6e-05,0,5,5
22297,1e-05,1e-05,-6e-05,-0.0001,1e-05,-5e-05,-4e-05,-1e-05,5,5
22298,1e-05,1e-05,-6e-05,-0.0001,1e-05,-5e-05,-4e-05,-1e-05,5,5
22299,1e-05,1e-05,-6e-05,-0.0001,1e-05,-5e-05,-4e-05,-1e-05,5,5
22300,1e-05,1e-05,-6e-05,-0.0001,1e-05,-5e-05,-4e-05,-1e-05,5,5
22301,1e-05,1e-05,-6e-05,-0.0001,1e-05,-5e-05,-4e-05,-1e-05,5,5
22302,1e-05,1e-05,-6e-05,-0.0001,1e-05,-5e-05,-4e-05,-1e-05,5,5
22303,1e-05,1e-05,-6e-05,-0.0001,1e-05,-5e-05,-4e-05,-1e-05,5,5
22304,1e-05,1e-05,-6e-05,-0.0001,1e-05,-5e-05,-4e-05,-1e-05,5,5
22305,1e-05,1e-05,-6e-05,-0.0001,1e-05,-5e-05,-4e-05,-1e-05,5,5
22306,1e-05,1e-05,-6e-05,-0.0001,1e-05,-5e-05,-4e-05,-1e-05,5,5
22307,1e-05,1e-05,-6e-05,-0.0001,1e-05,-5e-05,-4e-05,-1e-05,5,5
22308,1e-05,1e-05,-6e-05,-0.0001,1e-05,-5e-05,-4e-05,-1e-05,5,5
22309,1e-05,1e-05,-6e-05,-0.0001,1e-05,-5e-05,-4e-05,-1e-05,5,5
22310,1e-05,1e-05,-6e-05,-0.0001,1e-05,-5e-05,-4e-05,-1e-05,5,5
22311,1e-05,1e-05,-6e-05,-0.0001,1e-05,-5e-05,-4e-05,-1e-05,5,5
22312,1e-05,1e-05,-6e-05,-0.0001,1e-05,-5e-05,-4e-05,-1e-05,5,5
22313,2e-05,3e-05,1e-05,-6e-05,0.0001,9e-05,0,1e-05,5,5
22314,4e-05,8e-05,0.0001,-0.00013,-0.00047,-3e-05,6e-05,4e-05,5,5
22315,4e-05,8e-05,0.0001,-0.00013,-0.00047,-3e-05,6e-05,4e-05,5,5
22316,4e-05,8e-05,0.0001,-0.00013,-0.00047,-3e-05,6e-05,4e-05,5,5
22317,4e-05,8e-05,0.0001,-0.00013,-0.00047,-3e-05,6e-05,4e-05,5,5
22318,4e-05,8e-05,0.0001,-0.00013,-0.00047,-3e-05,6e-05,4e-05,5,5
22319,4e-05,8e-05,0.0001,-0.00013,-0.00047,-3e-05,6e-05,4e-05,5,5
22320,4e-05,8e-05,0.0001,-0.00013,-0.00047,-3e-05,6e-05,4e-05,5,5
22321,4e-05,8e-05,0.0001,-0.00013,-0.00047,-3e-05,6e-05,4e-05,5,5
22322,-4e-05,-1e-05,4e-05,-1e-05,-0.00017,-3e-05,-5e-05,-4e-05,5,5
22323,0.00011,0.0001,0.0001,0.00013,0.00038,0.00016,4e-05,3e-05,5,5
22324,0.00011,0.0001,0.0001,0.00013,0.00038,0.00016,4e-05,3e-05,5,5
22325,0.00011,0.0001,0.0001,0.00013,0.00038,0.00016,4e-05,3e-05,5,5
22326,0.00011,0.0001,0.0001,0.00013,0.00038,0.00016,4e-05,3e-05,5,5
22327,0.00011,0.0001,0.0001,0.00013,0.00038,0.00016,4e-05,3e-05,5,5
22328,0.00011,0.0001,0.0001,0.00013,0.00038,0.00016,4e-05,3e-05,5,5
22329,0.00011,0.0001,0.0001,0.00013,0.00038,0.00016,4e-05,3e-05,5,5
22330,0.00011,0.0001,0.0001,0.00013,0.00038,0.00016,4e-05,3e-05,5,5
22331,0.00011,0.0001,0.0001,0.00013,0.00038,0.00016,4e-05,3e-05,5,5
22332,0.00011,0.0001,0.0001,0.00013,0.00038,0.00016,4e-05,3e-05,5,5
22333,0.00011,0.0001,0.0001,0.00013,0.00038,0.00016,4e-05,3e-05,5,5
22334,0.00011,0.0001,0.0001,0.00013,0.00038,0.00016,4e-05,3e-05,5,5
22335,0.00011,0.0001,0.0001,0.00013,0.00038,0.00016,4e-05,3e-05,5,5
22336,0.00011,0.0001,0.0001,0.00013,0.00038,0.00016,4e-05,3e-05,5,5
22339,0.00011,0.0001,0.0001,0.00013,0.00038,0.00016,4e-05,3e-05,5,5
22340,0.00011,0.0001,0.0001,0.00013,0.00038,0.00016,4e-05,3e-05,5,5
22341,0.00011,0.0001,0.0001,0.00013,0.00038,0.00016,4e-05,3e-05,5,5
22342,0.00011,0.0001,0.0001,0.00013,0.00038,0.00016,4e-05,3e-05,5,5
22343,0.00011,0.0001,0.0001,0.00013,0.00038,0.00016,4e-05,3e-05,5,5
22344,-6e-05,-0.00016,-0.00019,-0.00022,-4e-05,-0.0001,-9e-05,-1e-05,5,5
22345,-6e-05,-0.00016,-0.00019,-0.00022,-4e-05,-0.0001,-9e-05,-1e-05,5,5
22346,-6e-05,-0.00016,-0.00019,-0.00022,-4e-05,-0.0001,-9e-05,-1e-05,5,5
22347,-6e-05,-0.00016,-0.00019,-0.00022,-4e-05,-0.0001,-9e-05,-1e-05,5,5
22348,-6e-05,-0.00016,-0.00019,-0.00022,-4e-05,-0.0001,-9e-05,-1e-05,5,5
22349,-6e-05,-0.00016,-0.00019,-0.00022,-4e-05,-0.0001,-9e-05,-1e-05,5,5
22350,-6e-05,-0.00016,-0.00019,-0.00022,-4e-05,-0.0001,-9e-05,-1e-05,5,5
22351,1e-05,-1e-05,0.0001,5e-05,-0.00019,-1e-05,-3e-05,0,5,5
22352,1e-05,-1e-05,0.0001,5e-05,-0.00019,-1e-05,-3e-05,0,5,5
22353,1e-05,-1e-05,0.0001,5e-05,-0.00019,-1e-05,-3e-05,0,5,5
22354,1e-05,-1e-05,0.0001,5e-05,-0.00019,-1e-05,-3e-05,0,5,5
22355,1e-05,-1e-05,0.0001,5e-05,-0.00019,-1e-05,-3e-05,0,5,5
22356,1e-05,-1e-05,0.0001,5e-05,-0.00019,-1e-05,-3e-05,0,5,5
22357,1e-05,-1e-05,0.0001,5e-05,-0.00019,-1e-05,-3e-05,0,5,5
22358,2e-05,6e-05,8e-05,0.0003,9e-05,-4e-05,-3e-05,-5e-05,5,5
22359,2e-05,6e-05,8e-05,0.0003,9e-05,-4e-05,-3e-05,-5e-05,5,5
22360,9e-05,-5e-05,-2e-05,-1e-05,0.00025,-3e-05,-5e-05,-6e-05,5,5
22361,9e-05,-5e-05,-2e-05,-1e-05,0.00025,-3e-05,-5e-05,-6e-05,5,5
22362,9e-05,-5e-05,-2e-05,-1e-05,0.00025,-3e-05,-5e-05,-6e-05,5,5
22363,9e-05,-5e-05,-2e-05,-1e-05,0.00025,-3e-05,-5e-05,-6e-05,5,5
22364,9e-05,-5e-05,-2e-05,-1e-05,0.00025,-3e-05,-5e-05,-6e-05,5,5
22365,9e-05,-5e-05,-2e-05,-1e-05,0.00025,-3e-05,-5e-05,-6e-05,5,5
22366,9e-05,-5e-05,-2e-05,-1e-05,0.00025,-3e-05,-5e-05,-6e-05,5,5
22367,9e-05,-5e-05,-2e-05,-1e-05,0.00025,-3e-05,-5e-05,-6e-05,5,5
22368,9e-05,-5e-05,-2e-05,-1e-05,0.00025,-3e-05,-5e-05,-6e-05,5,5
22369,9e-05,-5e-05,-2e-05,-1e-05,0.00025,-3e-05,-5e-05,-6e-05,5,5
22370,9e-05,-5e-05,-2e-05,-1e-05,0.00025,-3e-05,-5e-05,-6e-05,5,5
22371,9e-05,-5e-05,-2e-05,-1e-05,0.00025,-3e-05,-5e-05,-6e-05,5,5
22372,9e-05,-5e-05,-2e-05,-1e-05,0.00025,-3e-05,-5e-05,-6e-05,5,5
22373,9e-05,-5e-05,-2e-05,-1e-05,0.00025,-3e-05,-5e-05,-6e-05,5,5
22374,9e-05,-5e-05,-2e-05,-1e-05,0.00025,-3e-05,-5e-05,-6e-05,5,5
22375,9e-05,-5e-05,-2e-05,-1e-05,0.00025,-3e-05,-5e-05,-6e-05,5,5
22376,9e-05,-5e-05,-2e-05,-1e-05,0.00025,-3e-05,-5e-05,-6e-05,5,5
22377,9e-05,-5e-05,-2e-05,-1e-05,0.00025,-3e-05,-5e-05,-6e-05,5,5
22378,9e-05,-5e-05,-2e-05,-1e-05,0.00025,-3e-05,-5e-05,-6e-05,5,5
22379,9e-05,-5e-05,-2e-05,-1e-05,0.00025,-3e-05,-5e-05,-6e-05,5,5
22380,-0.00011,-7e-05,-0.0001,-6e-05,0.0002,3e-05,-2e-05,0,5,5
22381,5e-05,4e-05,0,-9e-05,-7e-05,2e-05,2e-05,3e-05,5,5
22382,5e-05,4e-05,0,-9e-05,-7e-05,2e-05,2e-05,3e-05,5,5
22383,5e-05,4e-05,0,-9e-05,-7e-05,2e-05,2e-05,3e-05,5,5
22384,5e-05,4e-05,0,-9e-05,-7e-05,2e-05,2e-05,3e-05,5,5
22385,5e-05,4e-05,0,-9e-05,-7e-05,2e-05,2e-05,3e-05,5,5
22386,5e-05,4e-05,0,-9e-05,-7e-05,2e-05,2e-05,3e-05,5,5
22389,5e-05,4e-05,0,-9e-05,-7e-05,2e-05,2e-05,3e-05,5,5
22390,5e-05,4e-05,0,-9e-05,-7e-05,2e-05,2e-05,3e-05,5,5
22391,5e-05,4e-05,0,-9e-05,-7e-05,2e-05,2e-05,3e-05,5,5
22392,5e-05,4e-05,0,-9e-05,-7e-05,2e-05,2e-05,3e-05,5,5
22393,5e-05,4e-05,0,-9e-05,-7e-05,2e-05,2e-05,3e-05,5,5
22394,5e-05,4e-05,0,-9e-05,-7e-05,2e-05,2e-05,3e-05,5,5
22395,5e-05,4e-05,0,-9e-05,-7e-05,2e-05,2e-05,3e-05,5,5
22396,-3e-05,-3e-05,0.00018,0.00017,-0.00011,0,5e-05,3e-05,5,5
22397,-3e-05,-3e-05,0.00018,0.00017,-0.00011,0,5e-05,3e-05,5,5
22398,-3e-05,-3e-05,0.00018,0.00017,-0.00011,0,5e-05,3e-05,5,5
22399,-3e-05,-3e-05,0.00018,0.00017,-0.00011,0,5e-05,3e-05,5,5
22400,-3e-05,-3e-05,0.00018,0.00017,-0.00011,0,5e-05,3e-05,5,5
22401,-3e-05,-3e-05,0.00018,0.00017,-0.00011,0,5e-05,3e-05,5,5
22402,-3e-05,-3e-05,0.00018,0.00017,-0.00011,0,5e-05,3e-05,5,5
22403,-5e-05,-2e-05,-0.00012,-0.00019,-0.00019,-5e-05,-3e-05,0,5,5
22404,-5e-05,-2e-05,-0.00012,-0.00019,-0.00019,-5e-05,-3e-05,0,5,5
22405,1e-05,4e-05,0,0,0.00034,8e-05,3e-05,1e-05,5,5
22406,1e-05,4e-05,0,0,0.00034,8e-05,3e-05,1e-05,5,5
22407,1e-05,4e-05,0,0,0.00034,8e-05,3e-05,1e-05,5,5
22408,1e-05,4e-05,0,0,0.00034,8e-05,3e-05,1e-05,5,5
22409,1e-05,4e-05,0,0,0.00034,8e-05,3e-05,1e-05,5,5
22410,1e-05,4e-05,0,0,0.00034,8e-05,3e-05,1e-05,5,5
22411,1e-05,4e-05,0,0,0.00034,8e-05,3e-05,1e-05,5,5
22412,1e-05,4e-05,0,0,0.00034,8e-05,3e-05,1e-05,5,5
22413,1e-05,4e-05,0,0,0.00034,8e-05,3e-05,1e-05,5,5
22414,1e-05,4e-05,0,0,0.00034,8e-05,3e-05,1e-05,5,5
22415,1e-05,4e-05,0,0,0.00034,8e-05,3e-05,1e-05,5,5
22416,1e-05,4e-05,0,0,0.00034,8e-05,3e-05,1e-05,5,5
22417,-3e-05,1e-05,7e-05,-7e-05,-0.00018,-3e-05,-2e-05,-3e-05,5,5
22418,-5e-05,-5e-05,-2e-05,-5e-05,-0.00028,0.0001,3e-05,-1e-05,5,5
22419,-5e-05,-5e-05,-2e-05,-5e-05,-0.00028,0.0001,3e-05,-1e-05,5,5
22420,-5e-05,-5e-05,-2e-05,-5e-05,-0.00028,0.0001,3e-05,-1e-05,5,5
22421,-5e-05,-5e-05,-2e-05,-5e-05,-0.00028,0.0001,3e-05,-1e-05,5,5
22422,-5e-05,-5e-05,-2e-05,-5e-05,-0.00028,0.0001,3e-05,-1e-05,5,5
22423,-5e-05,-5e-05,-2e-05,-5e-05,-0.00028,0.0001,3e-05,-1e-05,5,5
22424,-5e-05,-5e-05,-2e-05,-5e-05,-0.00028,0.0001,3e-05,-1e-05,5,5
22425,-5e-05,-5e-05,-2e-05,-5e-05,-0.00028,0.0001,3e-05,-1e-05,5,5
22426,-5e-05,-5e-05,-2e-05,-5e-05,-0.00028,0.0001,3e-05,-1e-05,5,5
22427,-5e-05,-5e-05,-2e-05,-5e-05,-0.00028,0.0001,3e-05,-1e-05,5,5
22428,-5e-05,-5e-05,-2e-05,-5e-05,-0.00028,0.0001,3e-05,-1e-05,5,5
22429,-5e-05,-5e-05,-2e-05,-5e-05,-0.00028,0.0001,3e-05,-1e-05,5,5
22430,-5e-05,-5e-05,-2e-05,-5e-05,-0.00028,0.0001,3e-05,-1e-05,5,5
22431,-5e-05,-5e-05,-2e-05,-5e-05,-0.00028,0.0001,3e-05,-1e-05,5,5
22432,-7e-05,-5e-05,-0.0001,-0.00013,4e-05,0,-3e-05,-3e-05,5,5
22433,-7e-05,-5e-05,-0.0001,-0.00013,4e-05,0,-3e-05,-3e-05,5,5
22434,-7e-05,-5e-05,-0.0001,-0.00013,4e-05,0,-3e-05,-3e-05,5,5
22435,-7e-05,-5e-05,-0.0001,-0.00013,4e-05,0,-3e-05,-3e-05,5,5
22436,-7e-05,-5e-05,-0.0001,-0.00013,4e-05,0,-3e-05,-3e-05,5,5
22439,-7e-05,-5e-05,-0.0001,-0.00013,4e-05,0,-3e-05,-3e-05,5,5
22440,-7e-05,-5e-05,-0.0001,-0.00013,4e-05,0,-3e-05,-3e-05,5,5
22441,-3e-05,0,2e-05,-1e-05,-0.0002,-1e-05,-1e-05,-1e-05,5,5
22442,1e-05,5e-05,5e-05,6e-05,0.00048,0.0001,5e-05,0,5,5
22443,0,4e-05,8e-05,-5e-05,-0.00051,-3e-05,0,1e-05,5,5
22444,0,4e-05,8e-05,-5e-05,-0.00051,-3e-05,0,1e-05,5,5
22445,0,4e-05,8e-05,-5e-05,-0.00051,-3e-05,0,1e-05,5,5
22446,0,4e-05,8e-05,-5e-05,-0.00051,-3e-05,0,1e-05,5,5
22447,0,4e-05,8e-05,-5e-05,-0.00051,-3e-05,0,1e-05,5,5
22448,0,4e-05,8e-05,-5e-05,-0.00051,-3e-05,0,1e-05,5,5
22449,0,4e-05,8e-05,-5e-05,-0.00051,-3e-05,0,1e-05,5,5
22450,0,4e-05,8e-05,-5e-05,-0.00051,-3e-05,0,1e-05,5,5
22451,0,4e-05,8e-05,-5e-05,-0.00051,-3e-05,0,1e-05,5,5
22452,0,4e-05,8e-05,-5e-05,-0.00051,-3e-05,0,1e-05,5,5
22453,0,4e-05,8e-05,-5e-05,-0.00051,-3e-05,0,1e-05,5,5
22454,0,4e-05,8e-05,-5e-05,-0.00051,-3e-05,0,1e-05,5,5
22455,0,4e-05,8e-05,-5e-05,-0.00051,-3e-05,0,1e-05,5,5
22456,0,4e-05,8e-05,-5e-05,-0.00051,-3e-05,0,1e-05,5,5
22457,0,4e-05,8e-05,-5e-05,-0.00051,-3e-05,0,1e-05,5,5
22458,0,4e-05,8e-05,-5e-05,-0.00051,-3e-05,0,1e-05,5,5
22459,0,4e-05,8e-05,-5e-05,-0.00051,-3e-05,0,1e-05,5,5
22460,0,4e-05,8e-05,-5e-05,-0.00051,-3e-05,0,1e-05,5,5
22461,0,4e-05,8e-05,-5e-05,-0.00051,-3e-05,0,1e-05,5,5
22462,0,4e-05,8e-05,-5e-05,-0.00051,-3e-05,0,1e-05,5,5
22463,0,4e-05,8e-05,-5e-05,-0.00051,-3e-05,0,1e-05,5,5
22464,1e-05,-6e-05,-0.00024,-0.00033,-0.00077,-0.00014,-5e-05,0,5,5
22465,-8e-05,3e-05,1e-05,0.00014,0.00017,-2e-05,1e-05,-1e-05,5,5
22467,-8e-05,3e-05,1e-05,0.00014,0.00017,-2e-05,1e-05,-1e-05,5,5
22468,-8e-05,3e-05,1e-05,0.00014,0.00017,-2e-05,1e-05,-1e-05,5,5
22469,-8e-05,3e-05,1e-05,0.00014,0.00017,-2e-05,1e-05,-1e-05,5,5
22470,-8e-05,3e-05,1e-05,0.00014,0.00017,-2e-05,1e-05,-1e-05,5,5
22471,-8e-05,3e-05,1e-05,0.00014,0.00017,-2e-05,1e-05,-1e-05,5,5
22472,-8e-05,3e-05,1e-05,0.00014,0.00017,-2e-05,1e-05,-1e-05,5,5
22473,-8e-05,3e-05,1e-05,0.00014,0.00017,-2e-05,1e-05,-1e-05,5,5
22474,-8e-05,3e-05,1e-05,0.00014,0.00017,-2e-05,1e-05,-1e-05,5,5
22475,-8e-05,3e-05,1e-05,0.00014,0.00017,-2e-05,1e-05,-1e-05,5,5
22476,-8e-05,3e-05,1e-05,0.00014,0.00017,-2e-05,1e-05,-1e-05,5,5
22477,-1e-05,3e-05,8e-05,-3e-05,-0.00031,-8e-05,-2e-05,0,5,5
22478,-5e-05,-4e-05,2e-05,3e-05,0.00023,-5e-05,0,-1e-05,5,5
22480,-5e-05,-4e-05,2e-05,3e-05,0.00023,-5e-05,0,-1e-05,5,5
22481,-5e-05,-4e-05,2e-05,3e-05,0.00023,-5e-05,0,-1e-05,5,5
22482,-5e-05,-4e-05,2e-05,3e-05,0.00023,-5e-05,0,-1e-05,5,5
22483,-5e-05,-4e-05,2e-05,3e-05,0.00023,-5e-05,0,-1e-05,5,5
22484,-5e-05,-4e-05,2e-05,3e-05,0.00023,-5e-05,0,-1e-05,5,5
22485,-5e-05,-4e-05,2e-05,3e-05,0.00023,-5e-05,0,-1e-05,5,5
22486,-5e-05,-4e-05,2e-05,3e-05,0.00023,-5e-05,0,-1e-05,5,5
22488,-5e-05,-4e-05,2e-05,3e-05,0.00023,-5e-05,0,-1e-05,5,5
22489,-5e-05,-4e-05,2e-05,3e-05,0.00023,-5e-05,0,-1e-05,5,5
22490,-5e-05,-4e-05,2e-05,3e-05,0.00023,-5e-05,0,-1e-05,5,5
22491,-5e-05,-4e-05,2e-05,3e-05,0.00023,-5e-05,0,-1e-05,5,5
22492,-5e-05,-4e-05,2e-05,3e-05,0.00023,-5e-05,0,-1e-05,5,5
22493,-5e-05,-4e-05,2e-05,3e-05,0.00023,-5e-05,0,-1e-05,5,5
22494,-5e-05,-4e-05,2e-05,3e-05,0.00023,-5e-05,0,-1e-05,5,5
22495,-5e-05,-4e-05,2e-05,3e-05,0.00023,-5e-05,0,-1e-05,5,5
22496,-5e-05,-4e-05,2e-05,3e-05,0.00023,-5e-05,0,-1e-05,5,5
22497,-5e-05,-4e-05,2e-05,3e-05,0.00023,-5e-05,0,-1e-05,5,5
22498,-5e-05,-4e-05,2e-05,3e-05,0.00023,-5e-05,0,-1e-05,5,5
22499,-5e-05,-4e-05,2e-05,3e-05,0.00023,-5e-05,0,-1e-05,5,5
22500,-5e-05,-4e-05,2e-05,3e-05,0.00023,-5e-05,0,-1e-05,5,5
22501,-5e-05,-4e-05,2e-05,3e-05,0.00023,-5e-05,0,-1e-05,5,5
22502,-3e-05,0,-3e-05,-8e-05,0.00013,5e-05,1e-05,0,5,5
22503,-3e-05,0,-3e-05,-8e-05,0.00013,5e-05,1e-05,0,5,5
22504,7e-05,3e-05,3e-05,-2e-05,0.00011,-4e-05,-3e-05,3e-05,5,5
22505,7e-05,3e-05,3e-05,-2e-05,0.00011,-4e-05,-3e-05,3e-05,5,5
22506,7e-05,3e-05,3e-05,-2e-05,0.00011,-4e-05,-3e-05,3e-05,5,5
22507,7e-05,3e-05,3e-05,-2e-05,0.00011,-4e-05,-3e-05,3e-05,5,5
22508,7e-05,3e-05,3e-05,-2e-05,0.00011,-4e-05,-3e-05,3e-05,5,5
22509,7e-05,3e-05,3e-05,-2e-05,0.00011,-4e-05,-3e-05,3e-05,5,5
22510,7e-05,3e-05,3e-05,-2e-05,0.00011,-4e-05,-3e-05,3e-05,5,5
22511,7e-05,3e-05,3e-05,-2e-05,0.00011,-4e-05,-3e-05,3e-05,5,5
22512,7e-05,3e-05,3e-05,-2e-05,0.00011,-4e-05,-3e-05,3e-05,5,5
22513,7e-05,3e-05,3e-05,-2e-05,0.00011,-4e-05,-3e-05,3e-05,5,5
22514,7e-05,3e-05,3e-05,-2e-05,0.00011,-4e-05,-3e-05,3e-05,5,5
22515,7e-05,3e-05,3e-05,-2e-05,0.00011,-4e-05,-3e-05,3e-05,5,5
22516,7e-05,3e-05,3e-05,-2e-05,0.00011,-4e-05,-3e-05,3e-05,5,5
22517,7e-05,3e-05,3e-05,-2e-05,0.00011,-4e-05,-3e-05,3e-05,5,5
22518,7e-05,3e-05,3e-05,-2e-05,0.00011,-4e-05,-3e-05,3e-05,5,5
22519,7e-05,3e-05,3e-05,-2e-05,0.00011,-4e-05,-3e-05,3e-05,5,5
22520,7e-05,3e-05,3e-05,-2e-05,0.00011,-4e-05,-3e-05,3e-05,5,5
22521,7e-05,3e-05,3e-05,-2e-05,0.00011,-4e-05,-3e-05,3e-05,5,5
22522,7e-05,3e-05,3e-05,-2e-05,0.00011,-4e-05,-3e-05,3e-05,5,5
22523,-1e-05,-3e-05,7e-05,-9e-05,-0.00027,-2e-05,1e-05,-3e-05,5,5
22524,-1e-05,-3e-05,7e-05,-9e-05,-0.00027,-2e-05,1e-05,-3e-05,5,5
22525,2e-05,0,-0.00012,0.0001,0.00038,-0.00014,3e-05,1e-05,5,5
22526,2e-05,0,-0.00012,0.0001,0.00038,-0.00014,3e-05,1e-05,5,5
22527,2e-05,0,-0.00012,0.0001,0.00038,-0.00014,3e-05,1e-05,5,5
22528,2e-05,0,-0.00012,0.0001,0.00038,-0.00014,3e-05,1e-05,5,5
22529,2e-05,0,-0.00012,0.0001,0.00038,-0.00014,3e-05,1e-05,5,5
22530,2e-05,0,-0.00012,0.0001,0.00038,-0.00014,3e-05,1e-05,5,5
22531,2e-05,0,-0.00012,0.0001,0.00038,-0.00014,3e-05,1e-05,5,5
22532,2e-05,0,-0.00012,0.0001,0.00038,-0.00014,3e-05,1e-05,5,5
22533,2e-05,0,-0.00012,0.0001,0.00038,-0.00014,3e-05,1e-05,5,5
22534,2e-05,0,-0.00012,0.0001,0.00038,-0.00014,3e-05,1e-05,5,5
22535,2e-05,0,-0.00012,0.0001,0.00038,-0.00014,3e-05,1e-05,5,5
22536,2e-05,0,-0.00012,0.0001,0.00038,-0.00014,3e-05,1e-05,5,5
22538,2e-05,0,-0.00012,0.0001,0.00038,-0.00014,3e-05,1e-05,5,5
22539,2e-05,0,-0.00012,0.0001,0.00038,-0.00014,3e-05,1e-05,5,5
22540,2e-05,0,-0.00012,0.0001,0.00038,-0.00014,3e-05,1e-05,5,5
22541,2e-05,0,-0.00012,0.0001,0.00038,-0.00014,3e-05,1e-05,5,5
22542,2e-05,0,-0.00012,0.0001,0.00038,-0.00014,3e-05,1e-05,5,5
22543,2e-05,0,-0.00012,0.0001,0.00038,-0.00014,3e-05,1e-05,5,5
22544,2e-05,0,-0.00012,0.0001,0.00038,-0.00014,3e-05,1e-05,5,5
22545,2e-05,0,-0.00012,0.0001,0.00038,-0.00014,3e-05,1e-05,5,5
22546,-2e-05,-8e-05,4e-05,2e-05,-0.00027,-1e-05,-2e-05,-3e-05,5,5
22547,1e-05,3e-05,6e-05,-0.0001,-0.00044,-0.00012,-3e-05,-4e-05,5,5
22548,1e-05,4e-05,2e-05,-5e-05,-0.00029,2e-05,-2e-05,-1e-05,5,5
22549,1e-05,4e-05,2e-05,-5e-05,-0.00029,2e-05,-2e-05,-1e-05,5,5
22550,1e-05,4e-05,2e-05,-5e-05,-0.00029,2e-05,-2e-05,-1e-05,5,5
22551,1e-05,4e-05,2e-05,-5e-05,-0.00029,2e-05,-2e-05,-1e-05,5,5
22552,1e-05,4e-05,2e-05,-5e-05,-0.00029,2e-05,-2e-05,-1e-05,5,5
22553,1e-05,4e-05,2e-05,-5e-05,-0.00029,2e-05,-2e-05,-1e-05,5,5
22554,1e-05,4e-05,2e-05,-5e-05,-0.00029,2e-05,-2e-05,-1e-05,5,5
22555,1e-05,4e-05,2e-05,-5e-05,-0.00029,2e-05,-2e-05,-1e-05,5,5
22556,1e-05,4e-05,2e-05,-5e-05,-0.00029,2e-05,-2e-05,-1e-05,5,5
22557,1e-05,4e-05,2e-05,-5e-05,-0.00029,2e-05,-2e-05,-1e-05,5,5
22558,1e-05,4e-05,2e-05,-5e-05,-0.00029,2e-05,-2e-05,-1e-05,5,5
22559,1e-05,4e-05,2e-05,-5e-05,-0.00029,2e-05,-2e-05,-1e-05,5,5
22560,1e-05,4e-05,2e-05,-5e-05,-0.00029,2e-05,-2e-05,-1e-05,5,5
22561,0,-3e-05,4e-05,0.00019,0.00064,5e-05,1e-05,-1e-05,5,5
22562,-3e-05,-6e-05,-5e-05,-7e-05,-2e-05,-5e-05,3e-05,-3e-05,5,5
22563,-3e-05,-6e-05,-5e-05,-7e-05,-2e-05,-5e-05,3e-05,-3e-05,5,5
22564,-3e-05,-6e-05,-5e-05,-7e-05,-2e-05,-5e-05,3e-05,-3e-05,5,5
22565,-3e-05,-6e-05,-5e-05,-7e-05,-2e-05,-5e-05,3e-05,-3e-05,5,5
22566,-3e-05,-6e-05,-5e-05,-7e-05,-2e-05,-5e-05,3e-05,-3e-05,5,5
22567,-3e-05,-6e-05,-5e-05,-7e-05,-2e-05,-5e-05,3e-05,-3e-05,5,5
22568,-3e-05,-6e-05,-5e-05,-7e-05,-2e-05,-5e-05,3e-05,-3e-05,5,5
22569,-3e-05,-6e-05,-5e-05,-7e-05,-2e-05,-5e-05,3e-05,-3e-05,5,5
22570,-3e-05,-6e-05,-5e-05,-7e-05,-2e-05,-5e-05,3e-05,-3e-05,5,5
22571,-3e-05,-6e-05,-5e-05,-7e-05,-2e-05,-5e-05,3e-05,-3e-05,5,5
22572,-3e-05,-6e-05,-5e-05,-7e-05,-2e-05,-5e-05,3e-05,-3e-05,5,5
22573,-3e-05,-6e-05,-5e-05,-7e-05,-2e-05,-5e-05,3e-05,-3e-05,5,5
22574,-3e-05,-6e-05,-5e-05,-7e-05,-2e-05,-5e-05,3e-05,-3e-05,5,5
22575,-3e-05,-6e-05,-5e-05,-7e-05,-2e-05,-5e-05,3e-05,-3e-05,5,5
22576,-3e-05,-6e-05,-5e-05,-7e-05,-2e-05,-5e-05,3e-05,-3e-05,5,5
22577,-3e-05,-6e-05,-5e-05,-7e-05,-2e-05,-5e-05,3e-05,-3e-05,5,5
22578,-3e-05,-6e-05,-5e-05,-7e-05,-2e-05,-5e-05,3e-05,-3e-05,5,5
22579,-3e-05,-6e-05,-5e-05,-7e-05,-2e-05,-5e-05,3e-05,-3e-05,5,5
22580,-3e-05,-6e-05,-5e-05,-7e-05,-2e-05,-5e-05,3e-05,-3e-05,5,5
22581,-3e-05,-6e-05,-5e-05,-7e-05,-2e-05,-5e-05,3e-05,-3e-05,5,5
22582,-3e-05,-6e-05,-5e-05,-7e-05,-2e-05,-5e-05,3e-05,-3e-05,5,5
22583,-3e-05,-6e-05,-5e-05,-7e-05,-2e-05,-5e-05,3e-05,-3e-05,5,5
22584,-3e-05,-6e-05,-5e-05,-7e-05,-2e-05,-5e-05,3e-05,-3e-05,5,5
22585,-3e-05,-6e-05,-5e-05,-7e-05,-2e-05,-5e-05,3e-05,-3e-05,5,5
22586,-3e-05,-6e-05,-5e-05,-7e-05,-2e-05,-5e-05,3e-05,-3e-05,5,5
22588,-3e-05,-6e-05,-5e-05,-7e-05,-2e-05,-5e-05,3e-05,-3e-05,5,5
22589,-3e-05,-6e-05,-5e-05,-7e-05,-2e-05,-5e-05,3e-05,-3e-05,5,5
22590,-3e-05,-6e-05,-5e-05,-7e-05,-2e-05,-5e-05,3e-05,-3e-05,5,5
22591,-3e-05,-6e-05,-5e-05,-7e-05,-2e-05,-5e-05,3e-05,-3e-05,5,5
22592,-3e-05,-2e-05,9e-05,3e-05,8e-05,2e-05,-1e-05,-2e-05,5,5
22593,-3e-05,-2e-05,9e-05,3e-05,8e-05,2e-05,-1e-05,-2e-05,5,5
22594,-3e-05,-2e-05,9e-05,3e-05,8e-05,2e-05,-1e-05,-2e-05,5,5
22595,-3e-05,-2e-05,9e-05,3e-05,8e-05,2e-05,-1e-05,-2e-05,5,5
22596,-3e-05,-2e-05,9e-05,3e-05,8e-05,2e-05,-1e-05,-2e-05,5,5
22597,-3e-05,-2e-05,9e-05,3e-05,8e-05,2e-05,-1e-05,-2e-05,5,5
22598,-1e-05,-4e-05,-8e-05,-0.0001,-0.00014,7e-05,-6e-05,-3e-05,5,5
22599,1e-05,0,6e-05,0.00014,0.0001,2e-05,2e-05,0,5,5
22600,1e-05,0,6e-05,0.00014,0.0001,2e-05,2e-05,0,5,5
22601,1e-05,0,6e-05,0.00014,0.0001,2e-05,2e-05,0,5,5
22602,1e-05,0,6e-05,0.00014,0.0001,2e-05,2e-05,0,5,5
22603,1e-05,0,6e-05,0.00014,0.0001,2e-05,2e-05,0,5,5
22604,-1e-05,-2e-05,-1e-05,-1e-05,1e-05,4e-05,-2e-05,-4e-05,5,5
22605,-2e-05,-5e-05,-3e-05,0,-0.00024,-6e-05,-4e-05,-2e-05,5,5
22606,-2e-05,-5e-05,-3e-05,0,-0.00024,-6e-05,-4e-05,-2e-05,5,5
22607,-2e-05,-5e-05,-3e-05,0,-0.00024,-6e-05,-4e-05,-2e-05,5,5
22608,-2e-05,-5e-05,-3e-05,0,-0.00024,-6e-05,-4e-05,-2e-05,5,5
22609,-2e-05,-5e-05,-3e-05,0,-0.00024,-6e-05,-4e-05,-2e-05,5,5
22610,-2e-05,-5e-05,-3e-05,0,-0.00024,-6e-05,-4e-05,-2e-05,5,5
22611,-2e-05,-5e-05,-3e-05,0,-0.00024,-6e-05,-4e-05,-2e-05,5,5
22612,-2e-05,-5e-05,-3e-05,0,-0.00024,-6e-05,-4e-05,-2e-05,5,5
22613,-2e-05,-5e-05,-3e-05,0,-0.00024,-6e-05,-4e-05,-2e-05,5,5
22614,-2e-05,-5e-05,-3e-05,0,-0.00024,-6e-05,-4e-05,-2e-05,5,5
22615,-2e-05,-5e-05,-3e-05,0,-0.00024,-6e-05,-4e-05,-2e-05,5,5
22616,-2e-05,-5e-05,-3e-05,0,-0.00024,-6e-05,-4e-05,-2e-05,5,5
22617,-2e-05,-5e-05,-3e-05,0,-0.00024,-6e-05,-4e-05,-2e-05,5,5
22618,-2e-05,-5e-05,-3e-05,0,-0.00024,-6e-05,-4e-05,-2e-05,5,5
22619,-2e-05,-5e-05,-3e-05,0,-0.00024,-6e-05,-4e-05,-2e-05,5,5
22620,-2e-05,-5e-05,-3e-05,0,-0.00024,-6e-05,-4e-05,-2e-05,5,5
22621,2e-05,1e-05,-3e-05,4e-05,0.00026,4e-05,-2e-05,0,5,5
22622,2e-05,1e-05,-3e-05,4e-05,0.00026,4e-05,-2e-05,0,5,5
22623,-1e-05,5e-05,7e-05,-0.00015,-0.0004,-7e-05,-1e-05,-2e-05,5,5
22624,-1e-05,5e-05,7e-05,-0.00015,-0.0004,-7e-05,-1e-05,-2e-05,5,5
22625,-1e-05,5e-05,7e-05,-0.00015,-0.0004,-7e-05,-1e-05,-2e-05,5,5
22626,-1e-05,5e-05,7e-05,-0.00015,-0.0004,-7e-05,-1e-05,-2e-05,5,5
22627,-1e-05,5e-05,7e-05,-0.00015,-0.0004,-7e-05,-1e-05,-2e-05,5,5
22628,-1e-05,5e-05,7e-05,-0.00015,-0.0004,-7e-05,-1e-05,-2e-05,5,5
22629,-1e-05,5e-05,7e-05,-0.00015,-0.0004,-7e-05,-1e-05,-2e-05,5,5
22630,-1e-05,5e-05,7e-05,-0.00015,-0.0004,-7e-05,-1e-05,-2e-05,5,5
22631,-1e-05,5e-05,7e-05,-0.00015,-0.0004,-7e-05,-1e-05,-2e-05,5,5
22632,-1e-05,5e-05,7e-05,-0.00015,-0.0004,-7e-05,-1e-05,-2e-05,5,5
22633,-1e-05,5e-05,7e-05,-0.00015,-0.0004,-7e-05,-1e-05,-2e-05,5,5
22634,-1e-05,5e-05,7e-05,-0.00015,-0.0004,-7e-05,-1e-05,-2e-05,5,5
22635,-1e-05,5e-05,7e-05,-0.00015,-0.0004,-7e-05,-1e-05,-2e-05,5,5
22636,-1e-05,5e-05,7e-05,-0.00015,-0.0004,-7e-05,-1e-05,-2e-05,5,5
22638,-1e-05,5e-05,7e-05,-0.00015,-0.0004,-7e-05,-1e-05,-2e-05,5,5
22639,-1e-05,5e-05,7e-05,-0.00015,-0.0004,-7e-05,-1e-05,-2e-05,5,5
22640,-1e-05,5e-05,7e-05,-0.00015,-0.0004,-7e-05,-1e-05,-2e-05,5,5
22641,-1e-05,5e-05,7e-05,-0.00015,-0.0004,-7e-05,-1e-05,-2e-05,5,5
22642,-1e-05,5e-05,7e-05,-0.00015,-0.0004,-7e-05,-1e-05,-2e-05,5,5
22643,-3e-05,-6e-05,-7e-05,-0.00013,0.00034,-6e-05,-2e-05,-3e-05,5,5
22644,-3e-05,-6e-05,-7e-05,-0.00013,0.00034,-6e-05,-2e-05,-3e-05,5,5
22645,1e-05,4e-05,8e-05,7e-05,6e-05,-7e-05,-4e-05,0,5,5
22646,1e-05,4e-05,8e-05,7e-05,6e-05,-7e-05,-4e-05,0,5,5
22647,1e-05,4e-05,8e-05,7e-05,6e-05,-7e-05,-4e-05,0,5,5
22648,1e-05,4e-05,8e-05,7e-05,6e-05,-7e-05,-4e-05,0,5,5
22649,1e-05,4e-05,8e-05,7e-05,6e-05,-7e-05,-4e-05,0,5,5
22650,1e-05,4e-05,8e-05,7e-05,6e-05,-7e-05,-4e-05,0,5,5
22651,1e-05,4e-05,8e-05,7e-05,6e-05,-7e-05,-4e-05,0,5,5
22652,1e-05,4e-05,8e-05,7e-05,6e-05,-7e-05,-4e-05,0,5,5
22653,1e-05,4e-05,8e-05,7e-05,6e-05,-7e-05,-4e-05,0,5,5
22654,1e-05,4e-05,8e-05,7e-05,6e-05,-7e-05,-4e-05,0,5,5
22655,1e-05,4e-05,8e-05,7e-05,6e-05,-7e-05,-4e-05,0,5,5
22656,1e-05,4e-05,8e-05,7e-05,6e-05,-7e-05,-4e-05,0,5,5
22657,0,1e-05,0.00011,0.00018,1e-05,0,-2e-05,-1e-05,5,5
22658,-2e-05,-2e-05,-0.00014,-0.00017,-2e-05,3e-05,0,0,5,5
22660,-2e-05,-2e-05,-0.00014,-0.00017,-2e-05,3e-05,0,0,5,5
22661,-2e-05,-2e-05,-0.00014,-0.00017,-2e-05,3e-05,0,0,5,5
22662,-2e-05,-2e-05,-0.00014,-0.00017,-2e-05,3e-05,0,0,5,5
22663,-2e-05,-2e-05,-0.00014,-0.00017,-2e-05,3e-05,0,0,5,5
22664,-2e-05,-6e-05,-5e-05,0.00022,0.0005,1e-05,-2e-05,-4e-05,5,5
22665,-2e-05,-6e-05,-5e-05,0.00022,0.0005,1e-05,-2e-05,-4e-05,5,5
22666,-2e-05,-6e-05,-5e-05,0.00022,0.0005,1e-05,-2e-05,-4e-05,5,5
22667,-2e-05,-6e-05,-5e-05,0.00022,0.0005,1e-05,-2e-05,-4e-05,5,5
22668,-2e-05,-6e-05,-5e-05,0.00022,0.0005,1e-05,-2e-05,-4e-05,5,5
22669,-2e-05,-6e-05,-5e-05,0.00022,0.0005,1e-05,-2e-05,-4e-05,5,5
22670,-2e-05,-6e-05,-5e-05,0.00022,0.0005,1e-05,-2e-05,-4e-05,5,5
22671,-2e-05,-6e-05,-5e-05,0.00022,0.0005,1e-05,-2e-05,-4e-05,5,5
22672,-2e-05,-6e-05,-5e-05,0.00022,0.0005,1e-05,-2e-05,-4e-05,5,5
22673,-2e-05,-6e-05,-5e-05,0.00022,0.0005,1e-05,-2e-05,-4e-05,5,5
22674,-2e-05,-6e-05,-5e-05,0.00022,0.0005,1e-05,-2e-05,-4e-05,5,5
22675,-2e-05,-6e-05,-5e-05,0.00022,0.0005,1e-05,-2e-05,-4e-05,5,5
22676,-2e-05,-6e-05,-5e-05,0.00022,0.0005,1e-05,-2e-05,-4e-05,5,5
22677,-2e-05,-6e-05,-5e-05,0.00022,0.0005,1e-05,-2e-05,-4e-05,5,5
22678,-2e-05,-6e-05,-5e-05,0.00022,0.0005,1e-05,-2e-05,-4e-05,5,5
22679,-2e-05,-6e-05,-5e-05,0.00022,0.0005,1e-05,-2e-05,-4e-05,5,5
22680,-2e-05,-6e-05,-5e-05,0.00022,0.0005,1e-05,-2e-05,-4e-05,5,5
22681,-1e-05,0,3e-05,-3e-05,-6e-05,3e-05,-1e-05,0,5,5
22682,-1e-05,-2e-05,-2e-05,3e-05,-0.00011,0,0,-2e-05,5,5
22683,-1e-05,-2e-05,-2e-05,3e-05,-0.00011,0,0,-2e-05,5,5
22684,-1e-05,-2e-05,-2e-05,3e-05,-0.00011,0,0,-2e-05,5,5
22685,-1e-05,-2e-05,-2e-05,3e-05,-0.00011,0,0,-2e-05,5,5
22686,-1e-05,-2e-05,-2e-05,3e-05,-0.00011,0,0,-2e-05,5,5
22689,-1e-05,-2e-05,-2e-05,3e-05,-0.00011,0,0,-2e-05,5,5
22690,-1e-05,-2e-05,-2e-05,3e-05,-0.00011,0,0,-2e-05,5,5
22691,-1e-05,-2e-05,-2e-05,3e-05,-0.00011,0,0,-2e-05,5,5
22692,-1e-05,-2e-05,-2e-05,3e-05,-0.00011,0,0,-2e-05,5,5
22693,-1e-05,-2e-05,-2e-05,3e-05,-0.00011,0,0,-2e-05,5,5
22694,-1e-05,-2e-05,-2e-05,3e-05,-0.00011,0,0,-2e-05,5,5
22695,-1e-05,-2e-05,-2e-05,3e-05,-0.00011,0,0,-2e-05,5,5
22696,-1e-05,-2e-05,-2e-05,3e-05,-0.00011,0,0,-2e-05,5,5
22697,-1e-05,-2e-05,-2e-05,3e-05,-0.00011,0,0,-2e-05,5,5
22698,-1e-05,-2e-05,-2e-05,3e-05,-0.00011,0,0,-2e-05,5,5
22699,-1e-05,-2e-05,-2e-05,3e-05,-0.00011,0,0,-2e-05,5,5
22700,-1e-05,-2e-05,-2e-05,3e-05,-0.00011,0,0,-2e-05,5,5
22701,-1e-05,-2e-05,-2e-05,3e-05,-0.00011,0,0,-2e-05,5,5
22702,-1e-05,-2e-05,-2e-05,3e-05,-0.00011,0,0,-2e-05,5,5
22703,1e-05,1e-05,2e-05,0.00015,8e-05,-8e-05,-5e-05,-2e-05,5,5
22704,1e-05,1e-05,2e-05,0.00015,8e-05,-8e-05,-5e-05,-2e-05,5,5
22705,-5e-05,-9e-05,-0.0001,-0.00015,0.00039,0.00016,4e-05,-1e-05,5,5
22706,-5e-05,-9e-05,-0.0001,-0.00015,0.00039,0.00016,4e-05,-1e-05,5,5
22707,-5e-05,-9e-05,-0.0001,-0.00015,0.00039,0.00016,4e-05,-1e-05,5,5
22708,-5e-05,-9e-05,-0.0001,-0.00015,0.00039,0.00016,4e-05,-1e-05,5,5
22709,-5e-05,-9e-05,-0.0001,-0.00015,0.00039,0.00016,4e-05,-1e-05,5,5
22710,-5e-05,-9e-05,-0.0001,-0.00015,0.00039,0.00016,4e-05,-1e-05,5,5
22711,-5e-05,-9e-05,-0.0001,-0.00015,0.00039,0.00016,4e-05,-1e-05,5,5
22712,-5e-05,-9e-05,-0.0001,-0.00015,0.00039,0.00016,4e-05,-1e-05,5,5
22713,-5e-05,-9e-05,-0.0001,-0.00015,0.00039,0.00016,4e-05,-1e-05,5,5
22714,-5e-05,-9e-05,-0.0001,-0.00015,0.00039,0.00016,4e-05,-1e-05,5,5
22715,-5e-05,-9e-05,-0.0001,-0.00015,0.00039,0.00016,4e-05,-1e-05,5,5
22716,-5e-05,-9e-05,-0.0001,-0.00015,0.00039,0.00016,4e-05,-1e-05,5,5
22717,3e-05,0,-8e-05,-0.00019,-0.00024,-6e-05,-2e-05,-1e-05,5,5
22718,-7e-05,-7e-05,-0.00018,-0.00011,-0.00025,0.0001,-4e-05,-3e-05,5,5
22720,-7e-05,-7e-05,-0.00018,-0.00011,-0.00025,0.0001,-4e-05,-3e-05,5,5
22721,-7e-05,-7e-05,-0.00018,-0.00011,-0.00025,0.0001,-4e-05,-3e-05,5,5
22722,-7e-05,-7e-05,-0.00018,-0.00011,-0.00025,0.0001,-4e-05,-3e-05,5,5
22723,-7e-05,-7e-05,-0.00018,-0.00011,-0.00025,0.0001,-4e-05,-3e-05,5,5
22724,8e-05,9e-05,2e-05,-6e-05,0.00024,-1e-05,2e-05,3e-05,5,5
22725,0,-3e-05,8e-05,5e-05,-0.00015,-3e-05,-2e-05,0,5,5
22726,0,-3e-05,8e-05,5e-05,-0.00015,-3e-05,-2e-05,0,5,5
22727,0,-3e-05,8e-05,5e-05,-0.00015,-3e-05,-2e-05,0,5,5
22728,0,-3e-05,8e-05,5e-05,-0.00015,-3e-05,-2e-05,0,5,5
22729,0,-3e-05,8e-05,5e-05,-0.00015,-3e-05,-2e-05,0,5,5
22730,0,-3e-05,8e-05,5e-05,-0.00015,-3e-05,-2e-05,0,5,5
22731,0,-3e-05,8e-05,5e-05,-0.00015,-3e-05,-2e-05,0,5,5
22732,0,-3e-05,8e-05,5e-05,-0.00015,-3e-05,-2e-05,0,5,5
22733,0,-3e-05,8e-05,5e-05,-0.00015,-3e-05,-2e-05,0,5,5
22734,0,-3e-05,8e-05,5e-05,-0.00015,-3e-05,-2e-05,0,5,5
22735,0,-3e-05,8e-05,5e-05,-0.00015,-3e-05,-2e-05,0,5,5
22736,0,-3e-05,8e-05,5e-05,-0.00015,-3e-05,-2e-05,0,5,5
22738,0,-3e-05,8e-05,5e-05,-0.00015,-3e-05,-2e-05,0,5,5
22739,0,-3e-05,8e-05,5e-05,-0.00015,-3e-05,-2e-05,0,5,5
22740,0,-3e-05,8e-05,5e-05,-0.00015,-3e-05,-2e-05,0,5,5
22741,-2e-05,-2e-05,-7e-05,-0.00018,-9e-05,-7e-05,3e-05,3e-05,5,5
22742,-3e-05,-4e-05,-5e-05,9e-05,-0.00033,-2e-05,-5e-05,-2e-05,5,5
22743,4e-05,0.00013,6e-05,-0.00019,-0.0003,-2e-05,3e-05,4e-05,5,5
22744,4e-05,0.00013,6e-05,-0.00019,-0.0003,-2e-05,3e-05,4e-05,5,5
22745,4e-05,0.00013,6e-05,-0.00019,-0.0003,-2e-05,3e-05,4e-05,5,5
22746,4e-05,0.00013,6e-05,-0.00019,-0.0003,-2e-05,3e-05,4e-05,5,5
22747,4e-05,0.00013,6e-05,-0.00019,-0.0003,-2e-05,3e-05,4e-05,5,5
22748,4e-05,0.00013,6e-05,-0.00019,-0.0003,-2e-05,3e-05,4e-05,5,5
22749,4e-05,0.00013,6e-05,-0.00019,-0.0003,-2e-05,3e-05,4e-05,5,5
22750,4e-05,0.00013,6e-05,-0.00019,-0.0003,-2e-05,3e-05,4e-05,5,5
22751,4e-05,0.00013,6e-05,-0.00019,-0.0003,-2e-05,3e-05,4e-05,5,5
22752,4e-05,0.00013,6e-05,-0.00019,-0.0003,-2e-05,3e-05,4e-05,5,5
22753,4e-05,0.00013,6e-05,-0.00019,-0.0003,-2e-05,3e-05,4e-05,5,5
22754,4e-05,0.00013,6e-05,-0.00019,-0.0003,-2e-05,3e-05,4e-05,5,5
22755,4e-05,0.00013,6e-05,-0.00019,-0.0003,-2e-05,3e-05,4e-05,5,5
22756,4e-05,0.00013,6e-05,-0.00019,-0.0003,-2e-05,3e-05,4e-05,5,5
22757,4e-05,0.00013,6e-05,-0.00019,-0.0003,-2e-05,3e-05,4e-05,5,5
22758,4e-05,0.00013,6e-05,-0.00019,-0.0003,-2e-05,3e-05,4e-05,5,5
22759,4e-05,0.00013,6e-05,-0.00019,-0.0003,-2e-05,3e-05,4e-05,5,5
22760,4e-05,0.00013,6e-05,-0.00019,-0.0003,-2e-05,3e-05,4e-05,5,5
22761,4e-05,0.00013,6e-05,-0.00019,-0.0003,-2e-05,3e-05,4e-05,5,5
22762,4e-05,0.00013,6e-05,-0.00019,-0.0003,-2e-05,3e-05,4e-05,5,5
22763,1e-05,2e-05,-2e-05,5e-05,0.0005,6e-05,2e-05,-2e-05,5,5
22764,1e-05,2e-05,-2e-05,5e-05,0.0005,6e-05,2e-05,-2e-05,5,5
22765,1e-05,2e-05,-2e-05,5e-05,0.0005,6e-05,2e-05,-2e-05,5,5
22766,1e-05,2e-05,-2e-05,5e-05,0.0005,6e-05,2e-05,-2e-05,5,5
22767,1e-05,2e-05,-2e-05,5e-05,0.0005,6e-05,2e-05,-2e-05,5,5
22768,1e-05,2e-05,-2e-05,5e-05,0.0005,6e-05,2e-05,-2e-05,5,5
22769,1e-05,2e-05,-2e-05,5e-05,0.0005,6e-05,2e-05,-2e-05,5,5
22770,1e-05,2e-05,-2e-05,5e-05,0.0005,6e-05,2e-05,-2e-05,5,5
22771,1e-05,2e-05,-2e-05,5e-05,0.0005,6e-05,2e-05,-2e-05,5,5
22772,1e-05,2e-05,-2e-05,5e-05,0.0005,6e-05,2e-05,-2e-05,5,5
22773,1e-05,2e-05,-2e-05,5e-05,0.0005,6e-05,2e-05,-2e-05,5,5
22774,1e-05,2e-05,-2e-05,5e-05,0.0005,6e-05,2e-05,-2e-05,5,5
22775,1e-05,2e-05,-2e-05,5e-05,0.0005,6e-05,2e-05,-2e-05,5,5
22776,1e-05,2e-05,-2e-05,5e-05,0.0005,6e-05,2e-05,-2e-05,5,5
22777,1e-05,2e-05,-2e-05,5e-05,0.0005,6e-05,2e-05,-2e-05,5,5
22778,1e-05,2e-05,-2e-05,5e-05,0.0005,6e-05,2e-05,-2e-05,5,5
22779,1e-05,2e-05,-2e-05,5e-05,0.0005,6e-05,2e-05,-2e-05,5,5
22780,1e-05,2e-05,-2e-05,5e-05,0.0005,6e-05,2e-05,-2e-05,5,5
22781,1e-05,2e-05,-2e-05,5e-05,0.0005,6e-05,2e-05,-2e-05,5,5
22782,1e-05,2e-05,-2e-05,5e-05,0.0005,6e-05,2e-05,-2e-05,5,5
22783,1e-05,2e-05,-2e-05,5e-05,0.0005,6e-05,2e-05,-2e-05,5,5
22784,1e-05,2e-05,-2e-05,5e-05,0.0005,6e-05,2e-05,-2e-05,5,5
22785,1e-05,2e-05,-2e-05,5e-05,0.0005,6e-05,2e-05,-2e-05,5,5
22786,2e-05,1e-05,8e-05,0,0.00014,-6e-05,-1e-05,-1e-05,5,5
22789,1e-05,1e-05,-1e-05,2e-05,-0.0002,0.00015,-1e-05,1e-05,5,5
22790,1e-05,1e-05,-1e-05,2e-05,-0.0002,0.00015,-1e-05,1e-05,5,5
22791,1e-05,1e-05,-1e-05,2e-05,-0.0002,0.00015,-1e-05,1e-05,5,5
22792,1e-05,1e-05,-1e-05,2e-05,-0.0002,0.00015,-1e-05,1e-05,5,5
22793,1e-05,1e-05,-1e-05,2e-05,-0.0002,0.00015,-1e-05,1e-05,5,5
22794,1e-05,1e-05,-1e-05,2e-05,-0.0002,0.00015,-1e-05,1e-05,5,5
22795,1e-05,1e-05,-1e-05,2e-05,-0.0002,0.00015,-1e-05,1e-05,5,5
22796,1e-05,1e-05,-1e-05,2e-05,-0.0002,0.00015,-1e-05,1e-05,5,5
22797,1e-05,1e-05,-1e-05,2e-05,-0.0002,0.00015,-1e-05,1e-05,5,5
22798,1e-05,1e-05,-1e-05,2e-05,-0.0002,0.00015,-1e-05,1e-05,5,5
22799,1e-05,1e-05,-1e-05,2e-05,-0.0002,0.00015,-1e-05,1e-05,5,5
22800,3e-05,3e-05,0.00018,0.00033,0.00051,-5e-05,0,-1e-05,5,5
22801,2e-05,0,-1e-05,-0.00014,-3e-05,-1e-05,0,-1e-05,5,5
22802,2e-05,0,-1e-05,-0.00014,-3e-05,-1e-05,0,-1e-05,5,5
22803,2e-05,0,-1e-05,-0.00014,-3e-05,-1e-05,0,-1e-05,5,5
22804,2e-05,0,-1e-05,-0.00014,-3e-05,-1e-05,0,-1e-05,5,5
22805,2e-05,0,-1e-05,-0.00014,-3e-05,-1e-05,0,-1e-05,5,5
22806,2e-05,0,-1e-05,-0.00014,-3e-05,-1e-05,0,-1e-05,5,5
22807,2e-05,0,-1e-05,-0.00014,-3e-05,-1e-05,0,-1e-05,5,5
22808,2e-05,0,-1e-05,-0.00014,-3e-05,-1e-05,0,-1e-05,5,5
22809,2e-05,0,-1e-05,-0.00014,-3e-05,-1e-05,0,-1e-05,5,5
22810,2e-05,0,-1e-05,-0.00014,-3e-05,-1e-05,0,-1e-05,5,5
22811,2e-05,0,-1e-05,-0.00014,-3e-05,-1e-05,0,-1e-05,5,5
22812,2e-05,0,-1e-05,-0.00014,-3e-05,-1e-05,0,-1e-05,5,5
22813,2e-05,0,-1e-05,-0.00014,-3e-05,-1e-05,0,-1e-05,5,5
22814,2e-05,0,-1e-05,-0.00014,-3e-05,-1e-05,0,-1e-05,5,5
22815,2e-05,0,-1e-05,-0.00014,-3e-05,-1e-05,0,-1e-05,5,5
22816,2e-05,0,-1e-05,-0.00014,-3e-05,-1e-05,0,-1e-05,5,5
22817,2e-05,0,-1e-05,-0.00014,-3e-05,-1e-05,0,-1e-05,5,5
22818,2e-05,0,-1e-05,-0.00014,-3e-05,-1e-05,0,-1e-05,5,5
22819,2e-05,0,-1e-05,-0.00014,-3e-05,-1e-05,0,-1e-05,5,5
22820,2e-05,0,-1e-05,-0.00014,-3e-05,-1e-05,0,-1e-05,5,5
22821,2e-05,0,-1e-05,-0.00014,-3e-05,-1e-05,0,-1e-05,5,5
22822,2e-05,0,-1e-05,-0.00014,-3e-05,-1e-05,0,-1e-05,5,5
22823,-3e-05,-7e-05,-0.00013,0.0001,9e-05,-0.00011,-1e-05,-1e-05,5,5
22824,-3e-05,-7e-05,-0.00013,0.0001,9e-05,-0.00011,-1e-05,-1e-05,5,5
22825,-3e-05,-7e-05,-0.00013,0.0001,9e-05,-0.00011,-1e-05,-1e-05,5,5
22826,-3e-05,-7e-05,-0.00013,0.0001,9e-05,-0.00011,-1e-05,-1e-05,5,5
22827,-3e-05,-7e-05,-0.00013,0.0001,9e-05,-0.00011,-1e-05,-1e-05,5,5
22828,-3e-05,-7e-05,-0.00013,0.0001,9e-05,-0.00011,-1e-05,-1e-05,5,5
22829,-3e-05,-7e-05,-0.00013,0.0001,9e-05,-0.00011,-1e-05,-1e-05,5,5
22830,-3e-05,-7e-05,-0.00013,0.0001,9e-05,-0.00011,-1e-05,-1e-05,5,5
22831,-3e-05,-7e-05,-0.00013,0.0001,9e-05,-0.00011,-1e-05,-1e-05,5,5
22832,-3e-05,-7e-05,-0.00013,0.0001,9e-05,-0.00011,-1e-05,-1e-05,5,5
22833,-3e-05,-7e-05,-0.00013,0.0001,9e-05,-0.00011,-1e-05,-1e-05,5,5
22834,-3e-05,-7e-05,-0.00013,0.0001,9e-05,-0.00011,-1e-05,-1e-05,5,5
22835,-3e-05,-7e-05,-0.00013,0.0001,9e-05,-0.00011,-1e-05,-1e-05,5,5
22836,-3e-05,-7e-05,-0.00013,0.0001,9e-05,-0.00011,-1e-05,-1e-05,5,5
22838,-3e-05,-7e-05,-0.00013,0.0001,9e-05,-0.00011,-1e-05,-1e-05,5,5
22840,-3e-05,-7e-05,-0.00013,0.0001,9e-05,-0.00011,-1e-05,-1e-05,5,5
22841,0,5e-05,0,-0.00016,-0.00024,-4e-05,5e-05,3e-05,5,5
22842,0,5e-05,0,-0.00016,-0.00024,-4e-05,5e-05,3e-05,5,5
22843,0,5e-05,0,-0.00016,-0.00024,-4e-05,5e-05,3e-05,5,5
22844,0,5e-05,0,-0.00016,-0.00024,-4e-05,5e-05,3e-05,5,5
22845,-4e-05,-2e-05,-3e-05,-6e-05,4e-05,0,-3e-05,-1e-05,5,5
22846,-4e-05,-2e-05,-3e-05,-6e-05,4e-05,0,-3e-05,-1e-05,5,5
22847,-4e-05,-2e-05,-3e-05,-6e-05,4e-05,0,-3e-05,-1e-05,5,5
22848,-4e-05,-2e-05,-3e-05,-6e-05,4e-05,0,-3e-05,-1e-05,5,5
22849,-4e-05,-2e-05,-3e-05,-6e-05,4e-05,0,-3e-05,-1e-05,5,5
22850,-4e-05,-2e-05,-3e-05,-6e-05,4e-05,0,-3e-05,-1e-05,5,5
22851,-4e-05,-2e-05,-3e-05,-6e-05,4e-05,0,-3e-05,-1e-05,5,5
22852,-4e-05,-2e-05,-3e-05,-6e-05,4e-05,0,-3e-05,-1e-05,5,5
22853,-4e-05,-2e-05,-3e-05,-6e-05,4e-05,0,-3e-05,-1e-05,5,5
22854,-4e-05,-2e-05,-3e-05,-6e-05,4e-05,0,-3e-05,-1e-05,5,5
22855,-4e-05,-2e-05,-3e-05,-6e-05,4e-05,0,-3e-05,-1e-05,5,5
22856,-4e-05,-2e-05,-3e-05,-6e-05,4e-05,0,-3e-05,-1e-05,5,5
22857,-4e-05,-2e-05,-3e-05,-6e-05,4e-05,0,-3e-05,-1e-05,5,5
22858,-4e-05,-2e-05,-3e-05,-6e-05,4e-05,0,-3e-05,-1e-05,5,5
22859,-4e-05,-2e-05,-3e-05,-6e-05,4e-05,0,-3e-05,-1e-05,5,5
22860,1e-05,4e-05,0.00016,0.00026,0.00021,-6e-05,-1e-05,-1e-05,5,5
22861,-1e-05,-4e-05,-0.00014,-7e-05,-0.00032,-0.00012,-2e-05,-4e-05,5,5
22862,-1e-05,-4e-05,-0.00014,-7e-05,-0.00032,-0.00012,-2e-05,-4e-05,5,5
22863,-1e-05,-4e-05,-0.00014,-7e-05,-0.00032,-0.00012,-2e-05,-4e-05,5,5
22864,-1e-05,-4e-05,-0.00014,-7e-05,-0.00032,-0.00012,-2e-05,-4e-05,5,5
22865,-1e-05,-4e-05,-0.00014,-7e-05,-0.00032,-0.00012,-2e-05,-4e-05,5,5
22866,-1e-05,-4e-05,-0.00014,-7e-05,-0.00032,-0.00012,-2e-05,-4e-05,5,5
22867,-1e-05,-4e-05,-0.00014,-7e-05,-0.00032,-0.00012,-2e-05,-4e-05,5,5
22868,-1e-05,-4e-05,-0.00014,-7e-05,-0.00032,-0.00012,-2e-05,-4e-05,5,5
22869,-1e-05,-4e-05,-0.00014,-7e-05,-0.00032,-0.00012,-2e-05,-4e-05,5,5
22870,-1e-05,-4e-05,-0.00014,-7e-05,-0.00032,-0.00012,-2e-05,-4e-05,5,5
22871,-1e-05,-4e-05,-0.00014,-7e-05,-0.00032,-0.00012,-2e-05,-4e-05,5,5
22872,-1e-05,-4e-05,-0.00014,-7e-05,-0.00032,-0.00012,-2e-05,-4e-05,5,5
22873,-1e-05,-4e-05,-0.00014,-7e-05,-0.00032,-0.00012,-2e-05,-4e-05,5,5
22874,-1e-05,-4e-05,-0.00014,-7e-05,-0.00032,-0.00012,-2e-05,-4e-05,5,5
22875,-1e-05,-4e-05,-0.00014,-7e-05,-0.00032,-0.00012,-2e-05,-4e-05,5,5
22876,-1e-05,-4e-05,-0.00014,-7e-05,-0.00032,-0.00012,-2e-05,-4e-05,5,5
22877,-1e-05,-4e-05,-0.00014,-7e-05,-0.00032,-0.00012,-2e-05,-4e-05,5,5
22878,-1e-05,-4e-05,-0.00014,-7e-05,-0.00032,-0.00012,-2e-05,-4e-05,5,5
22879,-1e-05,-4e-05,-0.00014,-7e-05,-0.00032,-0.00012,-2e-05,-4e-05,5,5
22880,-1e-05,-4e-05,-0.00014,-7e-05,-0.00032,-0.00012,-2e-05,-4e-05,5,5
22881,-1e-05,-4e-05,-0.00014,-7e-05,-0.00032,-0.00012,-2e-05,-4e-05,5,5
22882,-1e-05,-4e-05,-0.00014,-7e-05,-0.00032,-0.00012,-2e-05,-4e-05,5,5
22883,-2e-05,-3e-05,-1e-05,-1e-05,-7e-05,-2e-05,-1e-05,0,5,5
22884,-2e-05,-3e-05,-1e-05,-1e-05,-7e-05,-2e-05,-1e-05,0,5,5
22885,-2e-05,-3e-05,-1e-05,-1e-05,-7e-05,-2e-05,-1e-05,0,5,5
22886,-2e-05,-3e-05,-1e-05,-1e-05,-7e-05,-2e-05,-1e-05,0,5,5
22888,-2e-05,-3e-05,-1e-05,-1e-05,-7e-05,-2e-05,-1e-05,0,5,5
22890,-2e-05,-3e-05,-1e-05,-1e-05,-7e-05,-2e-05,-1e-05,0,5,5
22891,-2e-05,-3e-05,-1e-05,-1e-05,-7e-05,-2e-05,-1e-05,0,5,5
22892,-2e-05,-3e-05,-1e-05,-1e-05,-7e-05,-2e-05,-1e-05,0,5,5
22893,-2e-05,-3e-05,-1e-05,-1e-05,-7e-05,-2e-05,-1e-05,0,5,5
22894,-2e-05,-3e-05,-1e-05,-1e-05,-7e-05,-2e-05,-1e-05,0,5,5
22895,-2e-05,-3e-05,-1e-05,-1e-05,-7e-05,-2e-05,-1e-05,0,5,5
22896,-2e-05,-3e-05,-1e-05,-1e-05,-7e-05,-2e-05,-1e-05,0,5,5
22897,-7e-05,1e-05,3e-05,0,0.00012,2e-05,-5e-05,-2e-05,5,5
22898,-7e-05,1e-05,3e-05,0,0.00012,2e-05,-5e-05,-2e-05,5,5
22899,-7e-05,1e-05,3e-05,0,0.00012,2e-05,-5e-05,-2e-05,5,5
22900,-7e-05,1e-05,3e-05,0,0.00012,2e-05,-5e-05,-2e-05,5,5
22901,-7e-05,1e-05,3e-05,0,0.00012,2e-05,-5e-05,-2e-05,5,5
22902,-7e-05,1e-05,3e-05,0,0.00012,2e-05,-5e-05,-2e-05,5,5
22903,-7e-05,1e-05,3e-05,0,0.00012,2e-05,-5e-05,-2e-05,5,5
22904,-7e-05,1e-05,3e-05,0,0.00012,2e-05,-5e-05,-2e-05,5,5
22905,0,-3e-05,-2e-05,4e-05,7e-05,-7e-05,-2e-05,0,5,5
22906,0,-3e-05,-2e-05,4e-05,7e-05,-7e-05,-2e-05,0,5,5
22907,0,-3e-05,-2e-05,4e-05,7e-05,-7e-05,-2e-05,0,5,5
22908,0,-3e-05,-2e-05,4e-05,7e-05,-7e-05,-2e-05,0,5,5
22909,0,-3e-05,-2e-05,4e-05,7e-05,-7e-05,-2e-05,0,5,5
22910,0,-3e-05,-2e-05,4e-05,7e-05,-7e-05,-2e-05,0,5,5
22911,0,-3e-05,-2e-05,4e-05,7e-05,-7e-05,-2e-05,0,5,5
22912,0,-3e-05,-2e-05,4e-05,7e-05,-7e-05,-2e-05,0,5,5
22913,0,-3e-05,-2e-05,4e-05,7e-05,-7e-05,-2e-05,0,5,5
22914,0,-3e-05,-2e-05,4e-05,7e-05,-7e-05,-2e-05,0,5,5
22915,0,-3e-05,-2e-05,4e-05,7e-05,-7e-05,-2e-05,0,5,5
22916,0,-3e-05,-2e-05,4e-05,7e-05,-7e-05,-2e-05,0,5,5
22917,0,-3e-05,-2e-05,4e-05,7e-05,-7e-05,-2e-05,0,5,5
22918,0,-3e-05,-2e-05,4e-05,7e-05,-7e-05,-2e-05,0,5,5
22919,0,-3e-05,-2e-05,4e-05,7e-05,-7e-05,-2e-05,0,5,5
22920,-4e-05,-8e-05,-0.00011,-0.00013,-0.00035,-4e-05,-1e-05,-3e-05,5,5
22921,3e-05,8e-05,0.00022,0.00032,0.00054,-3e-05,5e-05,0,5,5
22922,3e-05,8e-05,0.00022,0.00032,0.00054,-3e-05,5e-05,0,5,5
22923,3e-05,8e-05,0.00022,0.00032,0.00054,-3e-05,5e-05,0,5,5
22924,3e-05,8e-05,0.00022,0.00032,0.00054,-3e-05,5e-05,0,5,5
22925,3e-05,8e-05,0.00022,0.00032,0.00054,-3e-05,5e-05,0,5,5
22926,3e-05,8e-05,0.00022,0.00032,0.00054,-3e-05,5e-05,0,5,5
22927,3e-05,8e-05,0.00022,0.00032,0.00054,-3e-05,5e-05,0,5,5
22928,3e-05,8e-05,0.00022,0.00032,0.00054,-3e-05,5e-05,0,5,5
22929,3e-05,8e-05,0.00022,0.00032,0.00054,-3e-05,5e-05,0,5,5
22930,3e-05,8e-05,0.00022,0.00032,0.00054,-3e-05,5e-05,0,5,5
22931,3e-05,8e-05,0.00022,0.00032,0.00054,-3e-05,5e-05,0,5,5
22932,3e-05,8e-05,0.00022,0.00032,0.00054,-3e-05,5e-05,0,5,5
22933,3e-05,8e-05,0.00022,0.00032,0.00054,-3e-05,5e-05,0,5,5
22934,3e-05,8e-05,0.00022,0.00032,0.00054,-3e-05,5e-05,0,5,5
22935,3e-05,8e-05,0.00022,0.00032,0.00054,-3e-05,5e-05,0,5,5
22936,3e-05,8e-05,0.00022,0.00032,0.00054,-3e-05,5e-05,0,5,5
22938,3e-05,8e-05,0.00022,0.00032,0.00054,-3e-05,5e-05,0,5,5
22939,3e-05,8e-05,0.00022,0.00032,0.00054,-3e-05,5e-05,0,5,5
22940,3e-05,8e-05,0.00022,0.00032,0.00054,-3e-05,5e-05,0,5,5
22941,3e-05,8e-05,0.00022,0.00032,0.00054,-3e-05,5e-05,0,5,5
22942,3e-05,8e-05,0.00022,0.00032,0.00054,-3e-05,5e-05,0,5,5
22943,-1e-05,-1e-05,-6e-05,-6e-05,-3e-05,-2e-05,-5e-05,-3e-05,5,5
22944,-1e-05,-1e-05,-6e-05,-6e-05,-3e-05,-2e-05,-5e-05,-3e-05,5,5
22945,-1e-05,-1e-05,-6e-05,-6e-05,-3e-05,-2e-05,-5e-05,-3e-05,5,5
22946,-1e-05,-1e-05,-6e-05,-6e-05,-3e-05,-2e-05,-5e-05,-3e-05,5,5
22947,-1e-05,-1e-05,-6e-05,-6e-05,-3e-05,-2e-05,-5e-05,-3e-05,5,5
22948,-1e-05,-1e-05,-6e-05,-6e-05,-3e-05,-2e-05,-5e-05,-3e-05,5,5
22949,-1e-05,-1e-05,-6e-05,-6e-05,-3e-05,-2e-05,-5e-05,-3e-05,5,5
22950,-1e-05,-1e-05,-6e-05,-6e-05,-3e-05,-2e-05,-5e-05,-3e-05,5,5
22951,-1e-05,-1e-05,-6e-05,-6e-05,-3e-05,-2e-05,-5e-05,-3e-05,5,5
22952,-1e-05,-1e-05,-6e-05,-6e-05,-3e-05,-2e-05,-5e-05,-3e-05,5,5
22953,-1e-05,-1e-05,-6e-05,-6e-05,-3e-05,-2e-05,-5e-05,-3e-05,5,5
22954,-1e-05,-1e-05,-6e-05,-6e-05,-3e-05,-2e-05,-5e-05,-3e-05,5,5
22955,-1e-05,-1e-05,-6e-05,-6e-05,-3e-05,-2e-05,-5e-05,-3e-05,5,5
22956,-1e-05,-1e-05,-6e-05,-6e-05,-3e-05,-2e-05,-5e-05,-3e-05,5,5
22957,1e-05,3e-05,3e-05,-6e-05,0,1e-05,3e-05,2e-05,5,5
22958,1e-05,3e-05,3e-05,-6e-05,0,1e-05,3e-05,2e-05,5,5
22959,1e-05,3e-05,3e-05,-6e-05,0,1e-05,3e-05,2e-05,5,5
22960,1e-05,3e-05,3e-05,-6e-05,0,1e-05,3e-05,2e-05,5,5
22961,1e-05,3e-05,3e-05,-6e-05,0,1e-05,3e-05,2e-05,5,5
22962,1e-05,3e-05,3e-05,-6e-05,0,1e-05,3e-05,2e-05,5,5
22963,1e-05,3e-05,3e-05,-6e-05,0,1e-05,3e-05,2e-05,5,5
22964,1e-05,3e-05,3e-05,-6e-05,0,1e-05,3e-05,2e-05,5,5
22965,-3e-05,-2e-05,-2e-05,8e-05,4e-05,-0.00013,2e-05,-1e-05,5,5
22966,-3e-05,-2e-05,-2e-05,8e-05,4e-05,-0.00013,2e-05,-1e-05,5,5
22967,-3e-05,-2e-05,-2e-05,8e-05,4e-05,-0.00013,2e-05,-1e-05,5,5
22968,-3e-05,-2e-05,-2e-05,8e-05,4e-05,-0.00013,2e-05,-1e-05,5,5
22969,-3e-05,-2e-05,-2e-05,8e-05,4e-05,-0.00013,2e-05,-1e-05,5,5
22970,-3e-05,-2e-05,-2e-05,8e-05,4e-05,-0.00013,2e-05,-1e-05,5,5
22971,-3e-05,-2e-05,-2e-05,8e-05,4e-05,-0.00013,2e-05,-1e-05,5,5
22972,-3e-05,-2e-05,-2e-05,8e-05,4e-05,-0.00013,2e-05,-1e-05,5,5
22973,-3e-05,-2e-05,-2e-05,8e-05,4e-05,-0.00013,2e-05,-1e-05,5,5
22974,-3e-05,-2e-05,-2e-05,8e-05,4e-05,-0.00013,2e-05,-1e-05,5,5
22975,-3e-05,-2e-05,-2e-05,8e-05,4e-05,-0.00013,2e-05,-1e-05,5,5
22976,-3e-05,-2e-05,-2e-05,8e-05,4e-05,-0.00013,2e-05,-1e-05,5,5
22977,-3e-05,-2e-05,-2e-05,8e-05,4e-05,-0.00013,2e-05,-1e-05,5,5
22978,-3e-05,-2e-05,-2e-05,8e-05,4e-05,-0.00013,2e-05,-1e-05,5,5
22979,-3e-05,-2e-05,-2e-05,8e-05,4e-05,-0.00013,2e-05,-1e-05,5,5
22980,2e-05,-4e-05,-4e-05,-4e-05,-2e-05,1e-05,-1e-05,-2e-05,5,5
22981,-6e-05,-3e-05,2e-05,-0.00022,-0.00048,-1e-05,-2e-05,-1e-05,5,5
22982,-6e-05,-3e-05,2e-05,-0.00022,-0.00048,-1e-05,-2e-05,-1e-05,5,5
22983,-6e-05,-3e-05,2e-05,-0.00022,-0.00048,-1e-05,-2e-05,-1e-05,5,5
22984,-6e-05,-3e-05,2e-05,-0.00022,-0.00048,-1e-05,-2e-05,-1e-05,5,5
22985,-6e-05,-3e-05,2e-05,-0.00022,-0.00048,-1e-05,-2e-05,-1e-05,5,5
22986,-6e-05,-3e-05,2e-05,-0.00022,-0.00048,-1e-05,-2e-05,-1e-05,5,5
22988,-6e-05,-3e-05,2e-05,-0.00022,-0.00048,-1e-05,-2e-05,-1e-05,5,5
22989,-6e-05,-3e-05,2e-05,-0.00022,-0.00048,-1e-05,-2e-05,-1e-05,5,5
22990,-6e-05,-3e-05,2e-05,-0.00022,-0.00048,-1e-05,-2e-05,-1e-05,5,5
22991,-6e-05,-3e-05,2e-05,-0.00022,-0.00048,-1e-05,-2e-05,-1e-05,5,5
22992,-6e-05,-3e-05,2e-05,-0.00022,-0.00048,-1e-05,-2e-05,-1e-05,5,5
22993,-6e-05,-3e-05,2e-05,-0.00022,-0.00048,-1e-05,-2e-05,-1e-05,5,5
22994,-6e-05,-3e-05,2e-05,-0.00022,-0.00048,-1e-05,-2e-05,-1e-05,5,5
22995,-6e-05,-3e-05,2e-05,-0.00022,-0.00048,-1e-05,-2e-05,-1e-05,5,5
22996,-6e-05,-3e-05,2e-05,-0.00022,-0.00048,-1e-05,-2e-05,-1e-05,5,5
22997,-6e-05,-3e-05,2e-05,-0.00022,-0.00048,-1e-05,-2e-05,-1e-05,5,5
22998,-6e-05,-3e-05,2e-05,-0.00022,-0.00048,-1e-05,-2e-05,-1e-05,5,5
22999,-6e-05,-3e-05,2e-05,-0.00022,-0.00048,-1e-05,-2e-05,-1e-05,5,5
23000,-6e-05,-3e-05,2e-05,-0.00022,-0.00048,-1e-05,-2e-05,-1e-05,5,5
23001,-6e-05,-3e-05,2e-05,-0.00022,-0.00048,-1e-05,-2e-05,-1e-05,5,5
23002,-6e-05,-3e-05,2e-05,-0.00022,-0.00048,-1e-05,-2e-05,-1e-05,5,5
23003,0,0,8e-05,-5e-05,-6e-05,2e-05,-4e-05,-3e-05,5,5
23004,0,0,8e-05,-5e-05,-6e-05,2e-05,-4e-05,-3e-05,5,5
23005,0,0,8e-05,-5e-05,-6e-05,2e-05,-4e-05,-3e-05,5,5
23006,0,0,8e-05,-5e-05,-6e-05,2e-05,-4e-05,-3e-05,5,5
23007,0,0,8e-05,-5e-05,-6e-05,2e-05,-4e-05,-3e-05,5,5
23008,0,0,8e-05,-5e-05,-6e-05,2e-05,-4e-05,-3e-05,5,5
23009,0,0,8e-05,-5e-05,-6e-05,2e-05,-4e-05,-3e-05,5,5
23010,0,0,8e-05,-5e-05,-6e-05,2e-05,-4e-05,-3e-05,5,5
23011,0,0,8e-05,-5e-05,-6e-05,2e-05,-4e-05,-3e-05,5,5
23012,0,0,8e-05,-5e-05,-6e-05,2e-05,-4e-05,-3e-05,5,5
23013,0,0,8e-05,-5e-05,-6e-05,2e-05,-4e-05,-3e-05,5,5
23014,0,0,8e-05,-5e-05,-6e-05,2e-05,-4e-05,-3e-05,5,5
23015,0,0,8e-05,-5e-05,-6e-05,2e-05,-4e-05,-3e-05,5,5
23016,0,0,8e-05,-5e-05,-6e-05,2e-05,-4e-05,-3e-05,5,5
23017,-1e-05,2e-05,2e-05,-0.00019,7e-05,2e-05,1e-05,-1e-05,5,5
23018,-1e-05,2e-05,2e-05,-0.00019,7e-05,2e-05,1e-05,-1e-05,5,5
23019,-1e-05,2e-05,2e-05,-0.00019,7e-05,2e-05,1e-05,-1e-05,5,5
23020,-1e-05,2e-05,2e-05,-0.00019,7e-05,2e-05,1e-05,-1e-05,5,5
23021,-1e-05,2e-05,2e-05,-0.00019,7e-05,2e-05,1e-05,-1e-05,5,5
23022,-1e-05,2e-05,2e-05,-0.00019,7e-05,2e-05,1e-05,-1e-05,5,5
23023,-1e-05,2e-05,2e-05,-0.00019,7e-05,2e-05,1e-05,-1e-05,5,5
23024,-1e-05,2e-05,2e-05,-0.00019,7e-05,2e-05,1e-05,-1e-05,5,5
23025,-1e-05,2e-05,2e-05,-0.00019,7e-05,2e-05,1e-05,-1e-05,5,5
23026,-1e-05,2e-05,2e-05,-0.00019,7e-05,2e-05,1e-05,-1e-05,5,5
23027,-1e-05,2e-05,2e-05,-0.00019,7e-05,2e-05,1e-05,-1e-05,5,5
23028,-1e-05,2e-05,2e-05,-0.00019,7e-05,2e-05,1e-05,-1e-05,5,5
23029,-1e-05,2e-05,2e-05,-0.00019,7e-05,2e-05,1e-05,-1e-05,5,5
23030,-1e-05,2e-05,2e-05,-0.00019,7e-05,2e-05,1e-05,-1e-05,5,5
23031,-1e-05,2e-05,2e-05,-0.00019,7e-05,2e-05,1e-05,-1e-05,5,5
23032,-1e-05,2e-05,2e-05,-0.00019,7e-05,2e-05,1e-05,-1e-05,5,5
23033,-3e-05,-3e-05,3e-05,2e-05,0.00027,9e-05,0,0,5,5
23034,-3e-05,-3e-05,3e-05,2e-05,0.00027,9e-05,0,0,5,5
23035,-3e-05,-3e-05,3e-05,2e-05,0.00027,9e-05,0,0,5,5
23036,-3e-05,-3e-05,3e-05,2e-05,0.00027,9e-05,0,0,5,5
23038,-3e-05,-3e-05,3e-05,2e-05,0.00027,9e-05,0,0,5,5
23039,-3e-05,-3e-05,3e-05,2e-05,0.00027,9e-05,0,0,5,5
23040,-2e-05,0,2e-05,-2e-05,-8e-05,-1e-05,-5e-05,-3e-05,5,5
23041,-4e-05,-4e-05,-6e-05,-3e-05,-0.0001,0,-2e-05,-3e-05,5,5
23042,-4e-05,-4e-05,-6e-05,-3e-05,-0.0001,0,-2e-05,-3e-05,5,5
23043,-4e-05,-4e-05,-6e-05,-3e-05,-0.0001,0,-2e-05,-3e-05,5,5
23044,-4e-05,-4e-05,-6e-05,-3e-05,-0.0001,0,-2e-05,-3e-05,5,5
23045,-4e-05,-4e-05,-6e-05,-3e-05,-0.0001,0,-2e-05,-3e-05,5,5
23046,-4e-05,-4e-05,-6e-05,-3e-05,-0.0001,0,-2e-05,-3e-05,5,5
23047,-4e-05,-4e-05,-6e-05,-3e-05,-0.0001,0,-2e-05,-3e-05,5,5
23048,-4e-05,-4e-05,-6e-05,-3e-05,-0.0001,0,-2e-05,-3e-05,5,5
23049,-4e-05,-4e-05,-6e-05,-3e-05,-0.0001,0,-2e-05,-3e-05,5,5
23050,-4e-05,-4e-05,-6e-05,-3e-05,-0.0001,0,-2e-05,-3e-05,5,5
23051,-4e-05,-4e-05,-6e-05,-3e-05,-0.0001,0,-2e-05,-3e-05,5,5
23052,-4e-05,-4e-05,-6e-05,-3e-05,-0.0001,0,-2e-05,-3e-05,5,5
23053,-4e-05,-4e-05,-6e-05,-3e-05,-0.0001,0,-2e-05,-3e-05,5,5
23054,-4e-05,-4e-05,-6e-05,-3e-05,-0.0001,0,-2e-05,-3e-05,5,5
23055,-4e-05,-4e-05,-6e-05,-3e-05,-0.0001,0,-2e-05,-3e-05,5,5
23056,-4e-05,-4e-05,-6e-05,-3e-05,-0.0001,0,-2e-05,-3e-05,5,5
23057,-4e-05,-4e-05,-6e-05,-3e-05,-0.0001,0,-2e-05,-3e-05,5,5
23058,-4e-05,-4e-05,-6e-05,-3e-05,-0.0001,0,-2e-05,-3e-05,5,5
23059,-4e-05,-4e-05,-6e-05,-3e-05,-0.0001,0,-2e-05,-3e-05,5,5
23060,-4e-05,-4e-05,-6e-05,-3e-05,-0.0001,0,-2e-05,-3e-05,5,5
23061,-4e-05,-4e-05,-6e-05,-3e-05,-0.0001,0,-2e-05,-3e-05,5,5
23062,-4e-05,-4e-05,-6e-05,-3e-05,-0.0001,0,-2e-05,-3e-05,5,5
23063,-2e-05,-2e-05,2e-05,5e-05,-8e-05,2e-05,-2e-05,-1e-05,5,5
23064,-2e-05,-2e-05,2e-05,5e-05,-8e-05,2e-05,-2e-05,-1e-05,5,5
23065,-2e-05,-2e-05,2e-05,5e-05,-8e-05,2e-05,-2e-05,-1e-05,5,5
23066,-2e-05,-2e-05,2e-05,5e-05,-8e-05,2e-05,-2e-05,-1e-05,5,5
23067,-2e-05,-2e-05,2e-05,5e-05,-8e-05,2e-05,-2e-05,-1e-05,5,5
23068,-2e-05,-2e-05,2e-05,5e-05,-8e-05,2e-05,-2e-05,-1e-05,5,5
23069,-2e-05,-2e-05,2e-05,5e-05,-8e-05,2e-05,-2e-05,-1e-05,5,5
23070,-2e-05,-2e-05,2e-05,5e-05,-8e-05,2e-05,-2e-05,-1e-05,5,5
23071,-2e-05,-2e-05,2e-05,5e-05,-8e-05,2e-05,-2e-05,-1e-05,5,5
23072,-2e-05,-2e-05,2e-05,5e-05,-8e-05,2e-05,-2e-05,-1e-05,5,5
23073,-2e-05,-2e-05,2e-05,5e-05,-8e-05,2e-05,-2e-05,-1e-05,5,5
23074,-2e-05,-2e-05,2e-05,5e-05,-8e-05,2e-05,-2e-05,-1e-05,5,5
23075,-2e-05,-2e-05,2e-05,5e-05,-8e-05,2e-05,-2e-05,-1e-05,5,5
23076,-2e-05,-2e-05,2e-05,5e-05,-8e-05,2e-05,-2e-05,-1e-05,5,5
23077,2e-05,2e-05,-4e-05,-0.0001,2e-05,1e-05,-1e-05,-1e-05,5,5
23078,2e-05,2e-05,-4e-05,-0.0001,2e-05,1e-05,-1e-05,-1e-05,5,5
23079,2e-05,2e-05,-4e-05,-0.0001,2e-05,1e-05,-1e-05,-1e-05,5,5
23080,2e-05,2e-05,-4e-05,-0.0001,2e-05,1e-05,-1e-05,-1e-05,5,5
23081,2e-05,2e-05,-4e-05,-0.0001,2e-05,1e-05,-1e-05,-1e-05,5,5
23082,2e-05,2e-05,-4e-05,-0.0001,2e-05,1e-05,-1e-05,-1e-05,5,5
23083,2e-05,2e-05,-4e-05,-0.0001,2e-05,1e-05,-1e-05,-1e-05,5,5
23084,2e-05,2e-05,-4e-05,-0.0001,2e-05,1e-05,-1e-05,-1e-05,5,5
23085,-1e-05,-1e-05,-3e-05,-3e-05,-8e-05,2e-05,-1e-05,-1e-05,5,5
23086,-1e-05,-1e-05,-3e-05,-3e-05,-8e-05,2e-05,-1e-05,-1e-05,5,5
23088,-1e-05,-1e-05,-3e-05,-3e-05,-8e-05,2e-05,-1e-05,-1e-05,5,5
23089,-1e-05,-1e-05,-3e-05,-3e-05,-8e-05,2e-05,-1e-05,-1e-05,5,5
23090,-1e-05,-1e-05,-3e-05,-3e-05,-8e-05,2e-05,-1e-05,-1e-05,5,5
23091,-1e-05,-1e-05,-3e-05,-3e-05,-8e-05,2e-05,-1e-05,-1e-05,5,5
23092,-1e-05,-1e-05,-3e-05,-3e-05,-8e-05,2e-05,-1e-05,-1e-05,5,5
23093,-1e-05,-1e-05,-3e-05,-3e-05,-8e-05,2e-05,-1e-05,-1e-05,5,5
23094,-1e-05,-1e-05,-3e-05,-3e-05,-8e-05,2e-05,-1e-05,-1e-05,5,5
23095,-1e-05,-1e-05,-3e-05,-3e-05,-8e-05,2e-05,-1e-05,-1e-05,5,5
23096,-1e-05,-1e-05,-3e-05,-3e-05,-8e-05,2e-05,-1e-05,-1e-05,5,5
23097,-1e-05,-1e-05,-3e-05,-3e-05,-8e-05,2e-05,-1e-05,-1e-05,5,5
23098,-1e-05,-1e-05,-3e-05,-3e-05,-8e-05,2e-05,-1e-05,-1e-05,5,5
23099,-1e-05,-1e-05,-3e-05,-3e-05,-8e-05,2e-05,-1e-05,-1e-05,5,5
23100,0,2e-05,0,0,0.00012,3e-05,0,0,5,5
23101,1e-05,2e-05,1e-05,0.00018,0.00015,-1e-05,-1e-05,-1e-05,5,5
23102,1e-05,2e-05,1e-05,0.00018,0.00015,-1e-05,-1e-05,-1e-05,5,5
23103,1e-05,2e-05,1e-05,0.00018,0.00015,-1e-05,-1e-05,-1e-05,5,5
23104,1e-05,2e-05,1e-05,0.00018,0.00015,-1e-05,-1e-05,-1e-05,5,5
23105,1e-05,2e-05,1e-05,0.00018,0.00015,-1e-05,-1e-05,-1e-05,5,5
23106,1e-05,2e-05,1e-05,0.00018,0.00015,-1e-05,-1e-05,-1e-05,5,5
23107,1e-05,2e-05,1e-05,0.00018,0.00015,-1e-05,-1e-05,-1e-05,5,5
23108,1e-05,2e-05,1e-05,0.00018,0.00015,-1e-05,-1e-05,-1e-05,5,5
23109,1e-05,2e-05,1e-05,0.00018,0.00015,-1e-05,-1e-05,-1e-05,5,5
23110,1e-05,2e-05,1e-05,0.00018,0.00015,-1e-05,-1e-05,-1e-05,5,5
23111,1e-05,2e-05,1e-05,0.00018,0.00015,-1e-05,-1e-05,-1e-05,5,5
23112,1e-05,2e-05,1e-05,0.00018,0.00015,-1e-05,-1e-05,-1e-05,5,5
23113,1e-05,2e-05,1e-05,0.00018,0.00015,-1e-05,-1e-05,-1e-05,5,5
23114,1e-05,2e-05,1e-05,0.00018,0.00015,-1e-05,-1e-05,-1e-05,5,5
23115,1e-05,2e-05,1e-05,0.00018,0.00015,-1e-05,-1e-05,-1e-05,5,5
23116,1e-05,2e-05,1e-05,0.00018,0.00015,-1e-05,-1e-05,-1e-05,5,5
23117,1e-05,2e-05,1e-05,0.00018,0.00015,-1e-05,-1e-05,-1e-05,5,5
23118,1e-05,2e-05,1e-05,0.00018,0.00015,-1e-05,-1e-05,-1e-05,5,5
23119,1e-05,2e-05,1e-05,0.00018,0.00015,-1e-05,-1e-05,-1e-05,5,5
23120,1e-05,2e-05,1e-05,0.00018,0.00015,-1e-05,-1e-05,-1e-05,5,5
23121,1e-05,2e-05,1e-05,0.00018,0.00015,-1e-05,-1e-05,-1e-05,5,5
23122,1e-05,2e-05,1e-05,0.00018,0.00015,-1e-05,-1e-05,-1e-05,5,5
23123,1e-05,-1e-05,-4e-05,-6e-05,-5e-05,6e-05,-2e-05,-1e-05,5,5
23124,1e-05,-1e-05,-4e-05,-6e-05,-5e-05,6e-05,-2e-05,-1e-05,5,5
23125,1e-05,-1e-05,-4e-05,-6e-05,-5e-05,6e-05,-2e-05,-1e-05,5,5
23126,1e-05,-1e-05,-4e-05,-6e-05,-5e-05,6e-05,-2e-05,-1e-05,5,5
23127,1e-05,-1e-05,-4e-05,-6e-05,-5e-05,6e-05,-2e-05,-1e-05,5,5
23128,1e-05,-1e-05,-4e-05,-6e-05,-5e-05,6e-05,-2e-05,-1e-05,5,5
23129,1e-05,-1e-05,-4e-05,-6e-05,-5e-05,6e-05,-2e-05,-1e-05,5,5
23130,1e-05,-1e-05,-4e-05,-6e-05,-5e-05,6e-05,-2e-05,-1e-05,5,5
23131,1e-05,-1e-05,-4e-05,-6e-05,-5e-05,6e-05,-2e-05,-1e-05,5,5
23132,1e-05,-1e-05,-4e-05,-6e-05,-5e-05,6e-05,-2e-05,-1e-05,5,5
23133,1e-05,-1e-05,-4e-05,-6e-05,-5e-05,6e-05,-2e-05,-1e-05,5,5
23134,1e-05,-1e-05,-4e-05,-6e-05,-5e-05,6e-05,-2e-05,-1e-05,5,5
23135,1e-05,-1e-05,-4e-05,-6e-05,-5e-05,6e-05,-2e-05,-1e-05,5,5
23136,1e-05,-1e-05,-4e-05,-6e-05,-5e-05,6e-05,-2e-05,-1e-05,5,5
23138,1e-05,-6e-05,-0.00045,-0.00015,0.00074,0.00013,3e-05,0,5,5
23139,1e-05,-6e-05,-0.00045,-0.00015,0.00074,0.00013,3e-05,0,5,5
23140,1e-05,-6e-05,-0.00045,-0.00015,0.00074,0.00013,3e-05,0,5,5
23141,1e-05,-6e-05,-0.00045,-0.00015,0.00074,0.00013,3e-05,0,5,5
23142,1e-05,-6e-05,-0.00045,-0.00015,0.00074,0.00013,3e-05,0,5,5
23143,1e-05,-6e-05,-0.00045,-0.00015,0.00074,0.00013,3e-05,0,5,5
23144,1e-05,-6e-05,-0.00045,-0.00015,0.00074,0.00013,3e-05,0,5,5
23145,1e-05,5e-05,5e-05,-0.00011,-0.00031,-4e-05,-1e-05,1e-05,5,5
23146,1e-05,5e-05,5e-05,-0.00011,-0.00031,-4e-05,-1e-05,1e-05,5,5
23147,1e-05,5e-05,5e-05,-0.00011,-0.00031,-4e-05,-1e-05,1e-05,5,5
23148,1e-05,5e-05,5e-05,-0.00011,-0.00031,-4e-05,-1e-05,1e-05,5,5
23149,1e-05,5e-05,5e-05,-0.00011,-0.00031,-4e-05,-1e-05,1e-05,5,5
23150,1e-05,5e-05,5e-05,-0.00011,-0.00031,-4e-05,-1e-05,1e-05,5,5
23151,1e-05,5e-05,5e-05,-0.00011,-0.00031,-4e-05,-1e-05,1e-05,5,5
23152,1e-05,5e-05,5e-05,-0.00011,-0.00031,-4e-05,-1e-05,1e-05,5,5
23153,1e-05,5e-05,5e-05,-0.00011,-0.00031,-4e-05,-1e-05,1e-05,5,5
23154,1e-05,5e-05,5e-05,-0.00011,-0.00031,-4e-05,-1e-05,1e-05,5,5
23155,1e-05,5e-05,5e-05,-0.00011,-0.00031,-4e-05,-1e-05,1e-05,5,5
23156,1e-05,5e-05,5e-05,-0.00011,-0.00031,-4e-05,-1e-05,1e-05,5,5
23157,1e-05,5e-05,5e-05,-0.00011,-0.00031,-4e-05,-1e-05,1e-05,5,5
23158,1e-05,5e-05,5e-05,-0.00011,-0.00031,-4e-05,-1e-05,1e-05,5,5
23159,1e-05,5e-05,5e-05,-0.00011,-0.00031,-4e-05,-1e-05,1e-05,5,5
23160,-2e-05,-5e-05,1e-05,-0.0001,-0.00021,-4e-05,-3e-05,-3e-05,5,5
23161,-2e-05,-2e-05,-3e-05,3e-05,8e-05,-3e-05,-2e-05,-1e-05,5,5
23162,-2e-05,-2e-05,-3e-05,3e-05,8e-05,-3e-05,-2e-05,-1e-05,5,5
23163,-2e-05,-2e-05,-3e-05,3e-05,8e-05,-3e-05,-2e-05,-1e-05,5,5
23164,-2e-05,-2e-05,-3e-05,3e-05,8e-05,-3e-05,-2e-05,-1e-05,5,5
23165,-2e-05,-2e-05,-3e-05,3e-05,8e-05,-3e-05,-2e-05,-1e-05,5,5
23166,-2e-05,-2e-05,-3e-05,3e-05,8e-05,-3e-05,-2e-05,-1e-05,5,5
23167,-2e-05,-2e-05,-3e-05,3e-05,8e-05,-3e-05,-2e-05,-1e-05,5,5
23168,-2e-05,-2e-05,-3e-05,3e-05,8e-05,-3e-05,-2e-05,-1e-05,5,5
23169,-2e-05,-2e-05,-3e-05,3e-05,8e-05,-3e-05,-2e-05,-1e-05,5,5
23170,-2e-05,-2e-05,-3e-05,3e-05,8e-05,-3e-05,-2e-05,-1e-05,5,5
23171,-2e-05,-2e-05,-3e-05,3e-05,8e-05,-3e-05,-2e-05,-1e-05,5,5
23172,-2e-05,-2e-05,-3e-05,3e-05,8e-05,-3e-05,-2e-05,-1e-05,5,5
23173,-2e-05,-2e-05,-3e-05,3e-05,8e-05,-3e-05,-2e-05,-1e-05,5,5
23174,-2e-05,-2e-05,-3e-05,3e-05,8e-05,-3e-05,-2e-05,-1e-05,5,5
23175,-2e-05,-2e-05,-3e-05,3e-05,8e-05,-3e-05,-2e-05,-1e-05,5,5
23176,-2e-05,-2e-05,-3e-05,3e-05,8e-05,-3e-05,-2e-05,-1e-05,5,5
23177,-2e-05,-2e-05,-3e-05,3e-05,8e-05,-3e-05,-2e-05,-1e-05,5,5
23178,-2e-05,-2e-05,-3e-05,3e-05,8e-05,-3e-05,-2e-05,-1e-05,5,5
23179,-2e-05,-2e-05,-3e-05,3e-05,8e-05,-3e-05,-2e-05,-1e-05,5,5
23180,-2e-05,-2e-05,-3e-05,3e-05,8e-05,-3e-05,-2e-05,-1e-05,5,5
23181,-2e-05,-2e-05,-3e-05,3e-05,8e-05,-3e-05,-2e-05,-1e-05,5,5
23182,-2e-05,-2e-05,-3e-05,3e-05,8e-05,-3e-05,-2e-05,-1e-05,5,5
23183,0,-1e-05,2e-05,3e-05,-0.00013,-6e-05,-4e-05,-1e-05,5,5
23184,0,-1e-05,2e-05,3e-05,-0.00013,-6e-05,-4e-05,-1e-05,5,5
23185,0,-1e-05,2e-05,3e-05,-0.00013,-6e-05,-4e-05,-1e-05,5,5
23186,0,-1e-05,2e-05,3e-05,-0.00013,-6e-05,-4e-05,-1e-05,5,5
23188,0,-1e-05,2e-05,3e-05,-0.00013,-6e-05,-4e-05,-1e-05,5,5
23189,0,-1e-05,2e-05,3e-05,-0.00013,-6e-05,-4e-05,-1e-05,5,5
23190,0,-1e-05,2e-05,3e-05,-0.00013,-6e-05,-4e-05,-1e-05,5,5
23191,0,-1e-05,2e-05,3e-05,-0.00013,-6e-05,-4e-05,-1e-05,5,5
23192,0,-1e-05,2e-05,3e-05,-0.00013,-6e-05,-4e-05,-1e-05,5,5
23193,0,-1e-05,2e-05,3e-05,-0.00013,-6e-05,-4e-05,-1e-05,5,5
23194,0,-1e-05,2e-05,3e-05,-0.00013,-6e-05,-4e-05,-1e-05,5,5
23195,0,-1e-05,2e-05,3e-05,-0.00013,-6e-05,-4e-05,-1e-05,5,5
23196,0,-1e-05,2e-05,3e-05,-0.00013,-6e-05,-4e-05,-1e-05,5,5
23197,0,-1e-05,2e-05,3e-05,-0.00013,-6e-05,-4e-05,-1e-05,5,5
23198,0,-1e-05,2e-05,3e-05,-0.00013,-6e-05,-4e-05,-1e-05,5,5
23199,0,-1e-05,2e-05,3e-05,-0.00013,-6e-05,-4e-05,-1e-05,5,5
23200,0,-1e-05,2e-05,3e-05,-0.00013,-6e-05,-4e-05,-1e-05,5,5
23201,0,-1e-05,2e-05,3e-05,-0.00013,-6e-05,-4e-05,-1e-05,5,5
23202,0,-1e-05,2e-05,3e-05,-0.00013,-6e-05,-4e-05,-1e-05,5,5
23203,0,-1e-05,2e-05,3e-05,-0.00013,-6e-05,-4e-05,-1e-05,5,5
23204,0,-1e-05,2e-05,3e-05,-0.00013,-6e-05,-4e-05,-1e-05,5,5
23205,0,-1e-05,2e-05,3e-05,-0.00013,-6e-05,-4e-05,-1e-05,5,5
23206,1e-05,4e-05,0.00011,0.00012,5e-05,8e-05,2e-05,-1e-05,5,5
23207,3e-05,8e-05,0.00018,0.00015,-8e-05,-8e-05,-1e-05,-3e-05,5,5
23208,3e-05,8e-05,0.00018,0.00015,-8e-05,-8e-05,-1e-05,-3e-05,5,5
23209,3e-05,8e-05,0.00018,0.00015,-8e-05,-8e-05,-1e-05,-3e-05,5,5
23210,3e-05,8e-05,0.00018,0.00015,-8e-05,-8e-05,-1e-05,-3e-05,5,5
23211,3e-05,8e-05,0.00018,0.00015,-8e-05,-8e-05,-1e-05,-3e-05,5,5
23212,3e-05,8e-05,0.00018,0.00015,-8e-05,-8e-05,-1e-05,-3e-05,5,5
23213,3e-05,8e-05,0.00018,0.00015,-8e-05,-8e-05,-1e-05,-3e-05,5,5
23214,3e-05,8e-05,0.00018,0.00015,-8e-05,-8e-05,-1e-05,-3e-05,5,5
23215,3e-05,8e-05,0.00018,0.00015,-8e-05,-8e-05,-1e-05,-3e-05,5,5
23216,3e-05,8e-05,0.00018,0.00015,-8e-05,-8e-05,-1e-05,-3e-05,5,5
23217,3e-05,8e-05,0.00018,0.00015,-8e-05,-8e-05,-1e-05,-3e-05,5,5
23218,3e-05,8e-05,0.00018,0.00015,-8e-05,-8e-05,-1e-05,-3e-05,5,5
23219,3e-05,8e-05,0.00018,0.00015,-8e-05,-8e-05,-1e-05,-3e-05,5,5
23220,-2e-05,-1e-05,-1e-05,0.00033,0.00034,5e-05,-3e-05,-1e-05,5,5
23221,-3e-05,-3e-05,-9e-05,-6e-05,-0.00023,7e-05,2e-05,-1e-05,5,5
23222,-3e-05,-3e-05,-9e-05,-6e-05,-0.00023,7e-05,2e-05,-1e-05,5,5
23223,-3e-05,-3e-05,-9e-05,-6e-05,-0.00023,7e-05,2e-05,-1e-05,5,5
23224,-3e-05,-3e-05,-9e-05,-6e-05,-0.00023,7e-05,2e-05,-1e-05,5,5
23225,-3e-05,-3e-05,-9e-05,-6e-05,-0.00023,7e-05,2e-05,-1e-05,5,5
23226,-3e-05,-3e-05,-9e-05,-6e-05,-0.00023,7e-05,2e-05,-1e-05,5,5
23227,-3e-05,-3e-05,-9e-05,-6e-05,-0.00023,7e-05,2e-05,-1e-05,5,5
23228,-3e-05,-3e-05,-9e-05,-6e-05,-0.00023,7e-05,2e-05,-1e-05,5,5
23229,-3e-05,-3e-05,-9e-05,-6e-05,-0.00023,7e-05,2e-05,-1e-05,5,5
23230,-3e-05,-3e-05,-9e-05,-6e-05,-0.00023,7e-05,2e-05,-1e-05,5,5
23231,-3e-05,-3e-05,-9e-05,-6e-05,-0.00023,7e-05,2e-05,-1e-05,5,5
23232,-3e-05,-3e-05,-9e-05,-6e-05,-0.00023,7e-05,2e-05,-1e-05,5,5
23233,-3e-05,-3e-05,-9e-05,-6e-05,-0.00023,7e-05,2e-05,-1e-05,5,5
23234,-3e-05,-3e-05,-9e-05,-6e-05,-0.00023,7e-05,2e-05,-1e-05,5,5
23235,-3e-05,-3e-05,-9e-05,-6e-05,-0.00023,7e-05,2e-05,-1e-05,5,5
23236,-3e-05,-3e-05,-9e-05,-6e-05,-0.00023,7e-05,2e-05,-1e-05,5,5
23238,-3e-05,-3e-05,-9e-05,-6e-05,-0.00023,7e-05,2e-05,-1e-05,5,5
23239,-3e-05,-3e-05,-9e-05,-6e-05,-0.00023,7e-05,2e-05,-1e-05,5,5
23240,-3e-05,-3e-05,-9e-05,-6e-05,-0.00023,7e-05,2e-05,-1e-05,5,5
23241,-3e-05,-3e-05,-9e-05,-6e-05,-0.00023,7e-05,2e-05,-1e-05,5,5
23242,-3e-05,-3e-05,-9e-05,-6e-05,-0.00023,7e-05,2e-05,-1e-05,5,5
23243,-4e-05,-6e-05,-0.00016,-0.0001,-9e-05,-1e-05,-1e-05,-2e-05,5,5
23244,-4e-05,-6e-05,-0.00016,-0.0001,-9e-05,-1e-05,-1e-05,-2e-05,5,5
23245,-4e-05,-6e-05,-0.00016,-0.0001,-9e-05,-1e-05,-1e-05,-2e-05,5,5
23246,-4e-05,-6e-05,-0.00016,-0.0001,-9e-05,-1e-05,-1e-05,-2e-05,5,5
23247,-4e-05,-6e-05,-0.00016,-0.0001,-9e-05,-1e-05,-1e-05,-2e-05,5,5
23248,-4e-05,-6e-05,-0.00016,-0.0001,-9e-05,-1e-05,-1e-05,-2e-05,5,5
23249,-4e-05,-6e-05,-0.00016,-0.0001,-9e-05,-1e-05,-1e-05,-2e-05,5,5
23250,-4e-05,-6e-05,-0.00016,-0.0001,-9e-05,-1e-05,-1e-05,-2e-05,5,5
23251,-4e-05,-6e-05,-0.00016,-0.0001,-9e-05,-1e-05,-1e-05,-2e-05,5,5
23252,-4e-05,-6e-05,-0.00016,-0.0001,-9e-05,-1e-05,-1e-05,-2e-05,5,5
23253,-4e-05,-6e-05,-0.00016,-0.0001,-9e-05,-1e-05,-1e-05,-2e-05,5,5
23254,-4e-05,-6e-05,-0.00016,-0.0001,-9e-05,-1e-05,-1e-05,-2e-05,5,5
23255,-4e-05,-6e-05,-0.00016,-0.0001,-9e-05,-1e-05,-1e-05,-2e-05,5,5
23256,-4e-05,-6e-05,-0.00016,-0.0001,-9e-05,-1e-05,-1e-05,-2e-05,5,5
23257,-4e-05,-6e-05,-0.00016,-0.0001,-9e-05,-1e-05,-1e-05,-2e-05,5,5
23258,-4e-05,-6e-05,-0.00016,-0.0001,-9e-05,-1e-05,-1e-05,-2e-05,5,5
23259,-4e-05,-6e-05,-0.00016,-0.0001,-9e-05,-1e-05,-1e-05,-2e-05,5,5
23260,-4e-05,-6e-05,-0.00016,-0.0001,-9e-05,-1e-05,-1e-05,-2e-05,5,5
23261,-4e-05,-6e-05,-0.00016,-0.0001,-9e-05,-1e-05,-1e-05,-2e-05,5,5
23262,-4e-05,-6e-05,-0.00016,-0.0001,-9e-05,-1e-05,-1e-05,-2e-05,5,5
23263,-4e-05,-6e-05,-0.00016,-0.0001,-9e-05,-1e-05,-1e-05,-2e-05,5,5
23264,-4e-05,-6e-05,-0.00016,-0.0001,-9e-05,-1e-05,-1e-05,-2e-05,5,5
23265,-4e-05,-6e-05,-0.00016,-0.0001,-9e-05,-1e-05,-1e-05,-2e-05,5,5
23266,0,-2e-05,-8e-05,5e-05,0,-0.00022,1e-05,0,5,5
23267,1e-05,2e-05,0.00011,9e-05,0.00021,6e-05,3e-05,1e-05,5,5
23268,1e-05,2e-05,0.00011,9e-05,0.00021,6e-05,3e-05,1e-05,5,5
23269,1e-05,2e-05,0.00011,9e-05,0.00021,6e-05,3e-05,1e-05,5,5
23270,1e-05,2e-05,0.00011,9e-05,0.00021,6e-05,3e-05,1e-05,5,5
23271,1e-05,2e-05,0.00011,9e-05,0.00021,6e-05,3e-05,1e-05,5,5
23272,1e-05,2e-05,0.00011,9e-05,0.00021,6e-05,3e-05,1e-05,5,5
23273,1e-05,2e-05,0.00011,9e-05,0.00021,6e-05,3e-05,1e-05,5,5
23274,1e-05,2e-05,0.00011,9e-05,0.00021,6e-05,3e-05,1e-05,5,5
23275,1e-05,2e-05,0.00011,9e-05,0.00021,6e-05,3e-05,1e-05,5,5
23276,1e-05,2e-05,0.00011,9e-05,0.00021,6e-05,3e-05,1e-05,5,5
23277,1e-05,2e-05,0.00011,9e-05,0.00021,6e-05,3e-05,1e-05,5,5
23278,1e-05,2e-05,0.00011,9e-05,0.00021,6e-05,3e-05,1e-05,5,5
23279,1e-05,2e-05,0.00011,9e-05,0.00021,6e-05,3e-05,1e-05,5,5
23280,-1e-05,-5e-05,-8e-05,-0.00014,-0.00027,-3e-05,-4e-05,-2e-05,5,5
23281,-1e-05,-1e-05,0,1e-05,0.00013,-6e-05,-1e-05,-2e-05,5,5
23282,-1e-05,-1e-05,0,1e-05,0.00013,-6e-05,-1e-05,-2e-05,5,5
23283,-1e-05,-1e-05,0,1e-05,0.00013,-6e-05,-1e-05,-2e-05,5,5
23284,-1e-05,-1e-05,0,1e-05,0.00013,-6e-05,-1e-05,-2e-05,5,5
23285,-1e-05,-1e-05,0,1e-05,0.00013,-6e-05,-1e-05,-2e-05,5,5
23286,-1e-05,-1e-05,0,1e-05,0.00013,-6e-05,-1e-05,-2e-05,5,5
23288,-1e-05,-1e-05,0,1e-05,0.00013,-6e-05,-1e-05,-2e-05,5,5
23289,-1e-05,-1e-05,0,1e-05,0.00013,-6e-05,-1e-05,-2e-05,5,5
23290,-1e-05,-1e-05,0,1e-05,0.00013,-6e-05,-1e-05,-2e-05,5,5
23291,-1e-05,-1e-05,0,1e-05,0.00013,-6e-05,-1e-05,-2e-05,5,5
23292,-1e-05,-1e-05,0,1e-05,0.00013,-6e-05,-1e-05,-2e-05,5,5
23293,-1e-05,-1e-05,0,1e-05,0.00013,-6e-05,-1e-05,-2e-05,5,5
23294,-1e-05,-1e-05,0,1e-05,0.00013,-6e-05,-1e-05,-2e-05,5,5
23295,-1e-05,-1e-05,0,1e-05,0.00013,-6e-05,-1e-05,-2e-05,5,5
23296,-1e-05,-1e-05,0,1e-05,0.00013,-6e-05,-1e-05,-2e-05,5,5
23297,-1e-05,-1e-05,0,1e-05,0.00013,-6e-05,-1e-05,-2e-05,5,5
23298,-1e-05,-1e-05,0,1e-05,0.00013,-6e-05,-1e-05,-2e-05,5,5
23299,-1e-05,-1e-05,0,1e-05,0.00013,-6e-05,-1e-05,-2e-05,5,5
23300,-1e-05,-1e-05,0,1e-05,0.00013,-6e-05,-1e-05,-2e-05,5,5
23301,-1e-05,-1e-05,0,1e-05,0.00013,-6e-05,-1e-05,-2e-05,5,5
23302,-1e-05,-1e-05,0,1e-05,0.00013,-6e-05,-1e-05,-2e-05,5,5
23303,3e-05,1e-05,-3e-05,-4e-05,3e-05,7e-05,0,2e-05,5,5
23305,3e-05,1e-05,-3e-05,-4e-05,3e-05,7e-05,0,2e-05,5,5
23306,3e-05,1e-05,-3e-05,-4e-05,3e-05,7e-05,0,2e-05,5,5
23307,3e-05,1e-05,-3e-05,-4e-05,3e-05,7e-05,0,2e-05,5,5
23308,3e-05,1e-05,-3e-05,-4e-05,3e-05,7e-05,0,2e-05,5,5
23309,3e-05,1e-05,-3e-05,-4e-05,3e-05,7e-05,0,2e-05,5,5
23310,3e-05,1e-05,-3e-05,-4e-05,3e-05,7e-05,0,2e-05,5,5
23311,3e-05,1e-05,-3e-05,-4e-05,3e-05,7e-05,0,2e-05,5,5
23312,3e-05,1e-05,-3e-05,-4e-05,3e-05,7e-05,0,2e-05,5,5
23313,3e-05,1e-05,-3e-05,-4e-05,3e-05,7e-05,0,2e-05,5,5
23314,3e-05,1e-05,-3e-05,-4e-05,3e-05,7e-05,0,2e-05,5,5
23315,3e-05,1e-05,-3e-05,-4e-05,3e-05,7e-05,0,2e-05,5,5
23316,3e-05,1e-05,-3e-05,-4e-05,3e-05,7e-05,0,2e-05,5,5
23317,3e-05,1e-05,-3e-05,-4e-05,3e-05,7e-05,0,2e-05,5,5
23318,3e-05,1e-05,-3e-05,-4e-05,3e-05,7e-05,0,2e-05,5,5
23319,3e-05,1e-05,-3e-05,-4e-05,3e-05,7e-05,0,2e-05,5,5
23320,3e-05,1e-05,-3e-05,-4e-05,3e-05,7e-05,0,2e-05,5,5
23321,3e-05,1e-05,-3e-05,-4e-05,3e-05,7e-05,0,2e-05,5,5
23322,3e-05,1e-05,-3e-05,-4e-05,3e-05,7e-05,0,2e-05,5,5
23323,3e-05,1e-05,-3e-05,-4e-05,3e-05,7e-05,0,2e-05,5,5
23324,3e-05,1e-05,-3e-05,-4e-05,3e-05,7e-05,0,2e-05,5,5
23325,-2e-05,0,3e-05,5e-05,0.00021,2e-05,0,1e-05,5,5
23326,0,-3e-05,-0.00011,-0.00027,-0.00043,-6e-05,0,1e-05,5,5
23327,3e-05,2e-05,-1e-05,-5e-05,-0.00022,1e-05,1e-05,4e-05,5,5
23328,3e-05,2e-05,-1e-05,-5e-05,-0.00022,1e-05,1e-05,4e-05,5,5
23329,3e-05,2e-05,-1e-05,-5e-05,-0.00022,1e-05,1e-05,4e-05,5,5
23330,3e-05,2e-05,-1e-05,-5e-05,-0.00022,1e-05,1e-05,4e-05,5,5
23331,3e-05,2e-05,-1e-05,-5e-05,-0.00022,1e-05,1e-05,4e-05,5,5
23332,3e-05,2e-05,-1e-05,-5e-05,-0.00022,1e-05,1e-05,4e-05,5,5
23333,3e-05,2e-05,-1e-05,-5e-05,-0.00022,1e-05,1e-05,4e-05,5,5
23334,3e-05,2e-05,-1e-05,-5e-05,-0.00022,1e-05,1e-05,4e-05,5,5
23335,3e-05,2e-05,-1e-05,-5e-05,-0.00022,1e-05,1e-05,4e-05,5,5
23336,3e-05,2e-05,-1e-05,-5e-05,-0.00022,1e-05,1e-05,4e-05,5,5
23338,3e-05,2e-05,-1e-05,-5e-05,-0.00022,1e-05,1e-05,4e-05,5,5
23339,3e-05,2e-05,-1e-05,-5e-05,-0.00022,1e-05,1e-05,4e-05,5,5
23340,3e-05,2e-05,-1e-05,-5e-05,-0.00022,1e-05,1e-05,4e-05,5,5
23341,0,0,2e-05,0.00011,0.00024,0,0,0,5,5
23342,-1e-05,-5e-05,-7e-05,0.00014,0.00013,-9e-05,0,-2e-05,5,5
23343,-1e-05,-5e-05,-7e-05,0.00014,0.00013,-9e-05,0,-2e-05,5,5
23344,-1e-05,-5e-05,-7e-05,0.00014,0.00013,-9e-05,0,-2e-05,5,5
23345,-1e-05,-5e-05,-7e-05,0.00014,0.00013,-9e-05,0,-2e-05,5,5
23346,-1e-05,-5e-05,-7e-05,0.00014,0.00013,-9e-05,0,-2e-05,5,5
23347,-1e-05,-5e-05,-7e-05,0.00014,0.00013,-9e-05,0,-2e-05,5,5
23348,-1e-05,-5e-05,-7e-05,0.00014,0.00013,-9e-05,0,-2e-05,5,5
23349,-1e-05,-5e-05,-7e-05,0.00014,0.00013,-9e-05,0,-2e-05,5,5
23350,-1e-05,-5e-05,-7e-05,0.00014,0.00013,-9e-05,0,-2e-05,5,5
23351,-1e-05,-5e-05,-7e-05,0.00014,0.00013,-9e-05,0,-2e-05,5,5
23352,-1e-05,-5e-05,-7e-05,0.00014,0.00013,-9e-05,0,-2e-05,5,5
23353,-1e-05,-5e-05,-7e-05,0.00014,0.00013,-9e-05,0,-2e-05,5,5
23354,-1e-05,-5e-05,-7e-05,0.00014,0.00013,-9e-05,0,-2e-05,5,5
23355,-1e-05,-5e-05,-7e-05,0.00014,0.00013,-9e-05,0,-2e-05,5,5
23356,-1e-05,-5e-05,-7e-05,0.00014,0.00013,-9e-05,0,-2e-05,5,5
23357,-1e-05,-5e-05,-7e-05,0.00014,0.00013,-9e-05,0,-2e-05,5,5
23358,-1e-05,-5e-05,-7e-05,0.00014,0.00013,-9e-05,0,-2e-05,5,5
23359,-1e-05,-5e-05,-7e-05,0.00014,0.00013,-9e-05,0,-2e-05,5,5
23360,-1e-05,-5e-05,-7e-05,0.00014,0.00013,-9e-05,0,-2e-05,5,5
23361,-1e-05,-5e-05,-7e-05,0.00014,0.00013,-9e-05,0,-2e-05,5,5
23362,-1e-05,-5e-05,-7e-05,0.00014,0.00013,-9e-05,0,-2e-05,5,5
23363,0,0,2e-05,-0.00014,-8e-05,-5e-05,3e-05,0,5,5
23364,0,0,2e-05,-0.00014,-8e-05,-5e-05,3e-05,0,5,5
23365,0,0,2e-05,-0.00014,-8e-05,-5e-05,3e-05,0,5,5
23366,0,0,2e-05,-0.00014,-8e-05,-5e-05,3e-05,0,5,5
23367,0,0,2e-05,-0.00014,-8e-05,-5e-05,3e-05,0,5,5
23368,0,0,2e-05,-0.00014,-8e-05,-5e-05,3e-05,0,5,5
23369,0,0,2e-05,-0.00014,-8e-05,-5e-05,3e-05,0,5,5
23370,0,0,2e-05,-0.00014,-8e-05,-5e-05,3e-05,0,5,5
23371,0,0,2e-05,-0.00014,-8e-05,-5e-05,3e-05,0,5,5
23372,0,0,2e-05,-0.00014,-8e-05,-5e-05,3e-05,0,5,5
23373,0,0,2e-05,-0.00014,-8e-05,-5e-05,3e-05,0,5,5
23374,0,0,2e-05,-0.00014,-8e-05,-5e-05,3e-05,0,5,5
23375,0,0,2e-05,-0.00014,-8e-05,-5e-05,3e-05,0,5,5
23376,0,0,2e-05,-0.00014,-8e-05,-5e-05,3e-05,0,5,5
23377,0,0,2e-05,-0.00014,-8e-05,-5e-05,3e-05,0,5,5
23378,0,0,2e-05,-0.00014,-8e-05,-5e-05,3e-05,0,5,5
23379,0,0,2e-05,-0.00014,-8e-05,-5e-05,3e-05,0,5,5
23380,0,0,2e-05,-0.00014,-8e-05,-5e-05,3e-05,0,5,5
23381,0,0,2e-05,-0.00014,-8e-05,-5e-05,3e-05,0,5,5
23382,0,0,2e-05,-0.00014,-8e-05,-5e-05,3e-05,0,5,5
23383,0,0,2e-05,-0.00014,-8e-05,-5e-05,3e-05,0,5,5
23384,0,0,2e-05,-0.00014,-8e-05,-5e-05,3e-05,0,5,5
23385,0,0,2e-05,-0.00014,-8e-05,-5e-05,3e-05,0,5,5
23386,-3e-05,-6e-05,-9e-05,-1e-05,-7e-05,-3e-05,-3e-05,-3e-05,5,5
23388,-1e-05,3e-05,-2e-05,-3e-05,0.00025,0.00011,-1e-05,-2e-05,5,5
23389,-1e-05,3e-05,-2e-05,-3e-05,0.00025,0.00011,-1e-05,-2e-05,5,5
23390,-1e-05,3e-05,-2e-05,-3e-05,0.00025,0.00011,-1e-05,-2e-05,5,5
23391,-1e-05,3e-05,-2e-05,-3e-05,0.00025,0.00011,-1e-05,-2e-05,5,5
23392,-1e-05,3e-05,-2e-05,-3e-05,0.00025,0.00011,-1e-05,-2e-05,5,5
23393,-1e-05,3e-05,-2e-05,-3e-05,0.00025,0.00011,-1e-05,-2e-05,5,5
23394,-1e-05,3e-05,-2e-05,-3e-05,0.00025,0.00011,-1e-05,-2e-05,5,5
23395,-1e-05,3e-05,-2e-05,-3e-05,0.00025,0.00011,-1e-05,-2e-05,5,5
23396,-1e-05,3e-05,-2e-05,-3e-05,0.00025,0.00011,-1e-05,-2e-05,5,5
23397,-1e-05,3e-05,-2e-05,-3e-05,0.00025,0.00011,-1e-05,-2e-05,5,5
23398,-1e-05,3e-05,-2e-05,-3e-05,0.00025,0.00011,-1e-05,-2e-05,5,5
23399,-1e-05,3e-05,-2e-05,-3e-05,0.00025,0.00011,-1e-05,-2e-05,5,5
23400,-2e-05,-2e-05,-0.0001,-6e-05,-0.00014,-3e-05,-2e-05,-3e-05,5,5
23401,-1e-05,-2e-05,-9e-05,1e-05,2e-05,-1e-05,-3e-05,0,5,5
23402,-1e-05,-2e-05,-9e-05,1e-05,2e-05,-1e-05,-3e-05,0,5,5
23403,-1e-05,-2e-05,-9e-05,1e-05,2e-05,-1e-05,-3e-05,0,5,5
23404,-1e-05,-2e-05,-9e-05,1e-05,2e-05,-1e-05,-3e-05,0,5,5
23405,-1e-05,-2e-05,-9e-05,1e-05,2e-05,-1e-05,-3e-05,0,5,5
23406,-1e-05,-2e-05,-9e-05,1e-05,2e-05,-1e-05,-3e-05,0,5,5
23407,-1e-05,-2e-05,-9e-05,1e-05,2e-05,-1e-05,-3e-05,0,5,5
23408,-1e-05,-2e-05,-9e-05,1e-05,2e-05,-1e-05,-3e-05,0,5,5
23409,-1e-05,-2e-05,-9e-05,1e-05,2e-05,-1e-05,-3e-05,0,5,5
23410,-1e-05,-2e-05,-9e-05,1e-05,2e-05,-1e-05,-3e-05,0,5,5
23411,-1e-05,-2e-05,-9e-05,1e-05,2e-05,-1e-05,-3e-05,0,5,5
23412,-1e-05,-2e-05,-9e-05,1e-05,2e-05,-1e-05,-3e-05,0,5,5
23413,-1e-05,-2e-05,-9e-05,1e-05,2e-05,-1e-05,-3e-05,0,5,5
23414,-1e-05,-2e-05,-9e-05,1e-05,2e-05,-1e-05,-3e-05,0,5,5
23415,-1e-05,-2e-05,-9e-05,1e-05,2e-05,-1e-05,-3e-05,0,5,5
23416,-1e-05,-2e-05,-9e-05,1e-05,2e-05,-1e-05,-3e-05,0,5,5
23417,-1e-05,-2e-05,-9e-05,1e-05,2e-05,-1e-05,-3e-05,0,5,5
23418,-1e-05,-2e-05,-9e-05,1e-05,2e-05,-1e-05,-3e-05,0,5,5
23419,-1e-05,-2e-05,-9e-05,1e-05,2e-05,-1e-05,-3e-05,0,5,5
23420,-1e-05,-2e-05,-9e-05,1e-05,2e-05,-1e-05,-3e-05,0,5,5
23421,-1e-05,-2e-05,-9e-05,1e-05,2e-05,-1e-05,-3e-05,0,5,5
23422,-1e-05,-2e-05,-9e-05,1e-05,2e-05,-1e-05,-3e-05,0,5,5
23423,0,1e-05,8e-05,0.00031,0.00034,-1e-05,0,-1e-05,5,5
23424,0,1e-05,8e-05,0.00031,0.00034,-1e-05,0,-1e-05,5,5
23425,0,1e-05,8e-05,0.00031,0.00034,-1e-05,0,-1e-05,5,5
23426,0,1e-05,8e-05,0.00031,0.00034,-1e-05,0,-1e-05,5,5
23427,0,1e-05,8e-05,0.00031,0.00034,-1e-05,0,-1e-05,5,5
23428,0,1e-05,8e-05,0.00031,0.00034,-1e-05,0,-1e-05,5,5
23429,0,1e-05,8e-05,0.00031,0.00034,-1e-05,0,-1e-05,5,5
23430,0,1e-05,8e-05,0.00031,0.00034,-1e-05,0,-1e-05,5,5
23431,0,1e-05,8e-05,0.00031,0.00034,-1e-05,0,-1e-05,5,5
23432,0,1e-05,8e-05,0.00031,0.00034,-1e-05,0,-1e-05,5,5
23433,0,1e-05,8e-05,0.00031,0.00034,-1e-05,0,-1e-05,5,5
23434,0,1e-05,8e-05,0.00031,0.00034,-1e-05,0,-1e-05,5,5
23435,0,1e-05,8e-05,0.00031,0.00034,-1e-05,0,-1e-05,5,5
23436,0,1e-05,8e-05,0.00031,0.00034,-1e-05,0,-1e-05,5,5
23438,0,1e-05,8e-05,0.00031,0.00034,-1e-05,0,-1e-05,5,5
23439,0,1e-05,8e-05,0.00031,0.00034,-1e-05,0,-1e-05,5,5
23440,0,1e-05,8e-05,0.00031,0.00034,-1e-05,0,-1e-05,5,5
23441,0,1e-05,8e-05,0.00031,0.00034,-1e-05,0,-1e-05,5,5
23442,0,1e-05,8e-05,0.00031,0.00034,-1e-05,0,-1e-05,5,5
23443,0,1e-05,8e-05,0.00031,0.00034,-1e-05,0,-1e-05,5,5
23444,0,1e-05,8e-05,0.00031,0.00034,-1e-05,0,-1e-05,5,5
23445,0,1e-05,8e-05,0.00031,0.00034,-1e-05,0,-1e-05,5,5
23446,1e-05,1e-05,-5e-05,-3e-05,-0.00024,-0.0001,-2e-05,0,5,5
23447,-2e-05,-3e-05,-4e-05,-0.00018,-0.00026,-2e-05,-3e-05,-2e-05,5,5
23448,-2e-05,-3e-05,-4e-05,-0.00018,-0.00026,-2e-05,-3e-05,-2e-05,5,5
23449,-2e-05,-3e-05,-4e-05,-0.00018,-0.00026,-2e-05,-3e-05,-2e-05,5,5
23450,-2e-05,-3e-05,-4e-05,-0.00018,-0.00026,-2e-05,-3e-05,-2e-05,5,5
23451,-2e-05,-3e-05,-4e-05,-0.00018,-0.00026,-2e-05,-3e-05,-2e-05,5,5
23452,-2e-05,-3e-05,-4e-05,-0.00018,-0.00026,-2e-05,-3e-05,-2e-05,5,5
23453,-2e-05,-3e-05,-4e-05,-0.00018,-0.00026,-2e-05,-3e-05,-2e-05,5,5
23454,-2e-05,-3e-05,-4e-05,-0.00018,-0.00026,-2e-05,-3e-05,-2e-05,5,5
23455,-2e-05,-3e-05,-4e-05,-0.00018,-0.00026,-2e-05,-3e-05,-2e-05,5,5
23456,-2e-05,-3e-05,-4e-05,-0.00018,-0.00026,-2e-05,-3e-05,-2e-05,5,5
23457,-2e-05,-3e-05,-4e-05,-0.00018,-0.00026,-2e-05,-3e-05,-2e-05,5,5
23458,-2e-05,-3e-05,-4e-05,-0.00018,-0.00026,-2e-05,-3e-05,-2e-05,5,5
23459,-2e-05,-3e-05,-4e-05,-0.00018,-0.00026,-2e-05,-3e-05,-2e-05,5,5
23460,2e-05,2e-05,0.00012,5e-05,-8e-05,1e-05,0,3e-05,5,5
23461,-4e-05,-5e-05,-4e-05,-9e-05,-0.00027,-4e-05,-3e-05,0,5,5
23462,-4e-05,-5e-05,-4e-05,-9e-05,-0.00027,-4e-05,-3e-05,0,5,5
23463,-4e-05,-5e-05,-4e-05,-9e-05,-0.00027,-4e-05,-3e-05,0,5,5
23464,-4e-05,-5e-05,-4e-05,-9e-05,-0.00027,-4e-05,-3e-05,0,5,5
23465,-4e-05,-5e-05,-4e-05,-9e-05,-0.00027,-4e-05,-3e-05,0,5,5
23466,-4e-05,-5e-05,-4e-05,-9e-05,-0.00027,-4e-05,-3e-05,0,5,5
23467,-4e-05,-5e-05,-4e-05,-9e-05,-0.00027,-4e-05,-3e-05,0,5,5
23468,-4e-05,-5e-05,-4e-05,-9e-05,-0.00027,-4e-05,-3e-05,0,5,5
23469,-4e-05,-5e-05,-4e-05,-9e-05,-0.00027,-4e-05,-3e-05,0,5,5
23470,-4e-05,-5e-05,-4e-05,-9e-05,-0.00027,-4e-05,-3e-05,0,5,5
23471,-4e-05,-5e-05,-4e-05,-9e-05,-0.00027,-4e-05,-3e-05,0,5,5
23472,-4e-05,-5e-05,-4e-05,-9e-05,-0.00027,-4e-05,-3e-05,0,5,5
23473,-4e-05,-5e-05,-4e-05,-9e-05,-0.00027,-4e-05,-3e-05,0,5,5
23474,-4e-05,-5e-05,-4e-05,-9e-05,-0.00027,-4e-05,-3e-05,0,5,5
23475,-4e-05,-5e-05,-4e-05,-9e-05,-0.00027,-4e-05,-3e-05,0,5,5
23476,-4e-05,-5e-05,-4e-05,-9e-05,-0.00027,-4e-05,-3e-05,0,5,5
23477,-4e-05,-5e-05,-4e-05,-9e-05,-0.00027,-4e-05,-3e-05,0,5,5
23478,-4e-05,-5e-05,-4e-05,-9e-05,-0.00027,-4e-05,-3e-05,0,5,5
23479,-4e-05,-5e-05,-4e-05,-9e-05,-0.00027,-4e-05,-3e-05,0,5,5
23480,-4e-05,-5e-05,-4e-05,-9e-05,-0.00027,-4e-05,-3e-05,0,5,5
23481,-4e-05,-5e-05,-4e-05,-9e-05,-0.00027,-4e-05,-3e-05,0,5,5
23482,-4e-05,-5e-05,-4e-05,-9e-05,-0.00027,-4e-05,-3e-05,0,5,5
23483,-1e-05,0,1e-05,0,0.00028,6e-05,-2e-05,-3e-05,5,5
23484,-1e-05,0,1e-05,0,0.00028,6e-05,-2e-05,-3e-05,5,5
23485,-1e-05,0,1e-05,0,0.00028,6e-05,-2e-05,-3e-05,5,5
23486,-1e-05,0,1e-05,0,0.00028,6e-05,-2e-05,-3e-05,5,5
23488,-1e-05,0,1e-05,0,0.00028,6e-05,-2e-05,-3e-05,5,5
23489,-1e-05,0,1e-05,0,0.00028,6e-05,-2e-05,-3e-05,5,5
23490,-1e-05,0,1e-05,0,0.00028,6e-05,-2e-05,-3e-05,5,5
23491,-1e-05,0,1e-05,0,0.00028,6e-05,-2e-05,-3e-05,5,5
23492,-1e-05,0,1e-05,0,0.00028,6e-05,-2e-05,-3e-05,5,5
23493,-1e-05,0,1e-05,0,0.00028,6e-05,-2e-05,-3e-05,5,5
23494,-1e-05,0,1e-05,0,0.00028,6e-05,-2e-05,-3e-05,5,5
23495,-1e-05,0,1e-05,0,0.00028,6e-05,-2e-05,-3e-05,5,5
23496,-1e-05,0,1e-05,0,0.00028,6e-05,-2e-05,-3e-05,5,5
23497,-1e-05,0,1e-05,0,0.00028,6e-05,-2e-05,-3e-05,5,5
23498,-1e-05,0,1e-05,0,0.00028,6e-05,-2e-05,-3e-05,5,5
23499,-1e-05,0,1e-05,0,0.00028,6e-05,-2e-05,-3e-05,5,5
23500,-1e-05,0,1e-05,0,0.00028,6e-05,-2e-05,-3e-05,5,5
23501,-1e-05,0,1e-05,0,0.00028,6e-05,-2e-05,-3e-05,5,5
23502,-1e-05,0,1e-05,0,0.00028,6e-05,-2e-05,-3e-05,5,5
23503,-1e-05,0,1e-05,0,0.00028,6e-05,-2e-05,-3e-05,5,5
23504,-1e-05,0,1e-05,0,0.00028,6e-05,-2e-05,-3e-05,5,5
23505,-1e-05,0,1e-05,0,0.00028,6e-05,-2e-05,-3e-05,5,5
23506,-1e-05,-2e-05,6e-05,0.00021,3e-05,2e-05,0,1e-05,5,5
23507,-1e-05,-9e-05,-0.00024,-0.00018,1e-05,1e-05,2e-05,2e-05,5,5
23508,-1e-05,-9e-05,-0.00024,-0.00018,1e-05,1e-05,2e-05,2e-05,5,5
23509,-1e-05,-9e-05,-0.00024,-0.00018,1e-05,1e-05,2e-05,2e-05,5,5
23510,-1e-05,-9e-05,-0.00024,-0.00018,1e-05,1e-05,2e-05,2e-05,5,5
23511,-1e-05,-9e-05,-0.00024,-0.00018,1e-05,1e-05,2e-05,2e-05,5,5
23512,-1e-05,-9e-05,-0.00024,-0.00018,1e-05,1e-05,2e-05,2e-05,5,5
23513,-1e-05,-9e-05,-0.00024,-0.00018,1e-05,1e-05,2e-05,2e-05,5,5
23514,-1e-05,-9e-05,-0.00024,-0.00018,1e-05,1e-05,2e-05,2e-05,5,5
23515,-1e-05,-9e-05,-0.00024,-0.00018,1e-05,1e-05,2e-05,2e-05,5,5
23516,-1e-05,-9e-05,-0.00024,-0.00018,1e-05,1e-05,2e-05,2e-05,5,5
23517,-1e-05,-9e-05,-0.00024,-0.00018,1e-05,1e-05,2e-05,2e-05,5,5
23518,-1e-05,-9e-05,-0.00024,-0.00018,1e-05,1e-05,2e-05,2e-05,5,5
23519,-1e-05,-9e-05,-0.00024,-0.00018,1e-05,1e-05,2e-05,2e-05,5,5
23520,-4e-05,-4e-05,-6e-05,6e-05,4e-05,-5e-05,-6e-05,-2e-05,5,5
23521,-5e-05,-0.0001,-0.00011,-0.0002,-0.00024,-6e-05,-4e-05,-2e-05,5,5
23522,-5e-05,-0.0001,-0.00011,-0.0002,-0.00024,-6e-05,-4e-05,-2e-05,5,5
23523,-5e-05,-0.0001,-0.00011,-0.0002,-0.00024,-6e-05,-4e-05,-2e-05,5,5
23524,-5e-05,-0.0001,-0.00011,-0.0002,-0.00024,-6e-05,-4e-05,-2e-05,5,5
23525,-5e-05,-0.0001,-0.00011,-0.0002,-0.00024,-6e-05,-4e-05,-2e-05,5,5
23526,-5e-05,-0.0001,-0.00011,-0.0002,-0.00024,-6e-05,-4e-05,-2e-05,5,5
23527,-5e-05,-0.0001,-0.00011,-0.0002,-0.00024,-6e-05,-4e-05,-2e-05,5,5
23528,-5e-05,-0.0001,-0.00011,-0.0002,-0.00024,-6e-05,-4e-05,-2e-05,5,5
23529,-5e-05,-0.0001,-0.00011,-0.0002,-0.00024,-6e-05,-4e-05,-2e-05,5,5
23530,-5e-05,-0.0001,-0.00011,-0.0002,-0.00024,-6e-05,-4e-05,-2e-05,5,5
23531,-5e-05,-0.0001,-0.00011,-0.0002,-0.00024,-6e-05,-4e-05,-2e-05,5,5
23532,-5e-05,-0.0001,-0.00011,-0.0002,-0.00024,-6e-05,-4e-05,-2e-05,5,5
23533,-5e-05,-0.0001,-0.00011,-0.0002,-0.00024,-6e-05,-4e-05,-2e-05,5,5
23534,-5e-05,-0.0001,-0.00011,-0.0002,-0.00024,-6e-05,-4e-05,-2e-05,5,5
23535,-5e-05,-0.0001,-0.00011,-0.0002,-0.00024,-6e-05,-4e-05,-2e-05,5,5
23536,-5e-05,-0.0001,-0.00011,-0.0002,-0.00024,-6e-05,-4e-05,-2e-05,5,5
23538,-5e-05,-0.0001,-0.00011,-0.0002,-0.00024,-6e-05,-4e-05,-2e-05,5,5
23539,-5e-05,-0.0001,-0.00011,-0.0002,-0.00024,-6e-05,-4e-05,-2e-05,5,5
23540,-5e-05,-0.0001,-0.00011,-0.0002,-0.00024,-6e-05,-4e-05,-2e-05,5,5
23541,-5e-05,-0.0001,-0.00011,-0.0002,-0.00024,-6e-05,-4e-05,-2e-05,5,5
23542,-5e-05,-0.0001,-0.00011,-0.0002,-0.00024,-6e-05,-4e-05,-2e-05,5,5
23543,-2e-05,-1e-05,0.0001,0.00012,-5e-05,1e-05,-2e-05,-3e-05,5,5
23544,-2e-05,-1e-05,0.0001,0.00012,-5e-05,1e-05,-2e-05,-3e-05,5,5
23545,-2e-05,-1e-05,0.0001,0.00012,-5e-05,1e-05,-2e-05,-3e-05,5,5
23546,-2e-05,-1e-05,0.0001,0.00012,-5e-05,1e-05,-2e-05,-3e-05,5,5
23547,-2e-05,-1e-05,0.0001,0.00012,-5e-05,1e-05,-2e-05,-3e-05,5,5
23548,-2e-05,-1e-05,0.0001,0.00012,-5e-05,1e-05,-2e-05,-3e-05,5,5
23549,-2e-05,-1e-05,0.0001,0.00012,-5e-05,1e-05,-2e-05,-3e-05,5,5
23550,-2e-05,-1e-05,0.0001,0.00012,-5e-05,1e-05,-2e-05,-3e-05,5,5
23551,-2e-05,-1e-05,0.0001,0.00012,-5e-05,1e-05,-2e-05,-3e-05,5,5
23552,-2e-05,-1e-05,0.0001,0.00012,-5e-05,1e-05,-2e-05,-3e-05,5,5
23553,-2e-05,-1e-05,0.0001,0.00012,-5e-05,1e-05,-2e-05,-3e-05,5,5
23554,-2e-05,-1e-05,0.0001,0.00012,-5e-05,1e-05,-2e-05,-3e-05,5,5
23555,-2e-05,-1e-05,0.0001,0.00012,-5e-05,1e-05,-2e-05,-3e-05,5,5
23556,-2e-05,-1e-05,0.0001,0.00012,-5e-05,1e-05,-2e-05,-3e-05,5,5
23557,-2e-05,-1e-05,0.0001,0.00012,-5e-05,1e-05,-2e-05,-3e-05,5,5
23558,-2e-05,-1e-05,0.0001,0.00012,-5e-05,1e-05,-2e-05,-3e-05,5,5
23559,-2e-05,-1e-05,0.0001,0.00012,-5e-05,1e-05,-2e-05,-3e-05,5,5
23560,-2e-05,-1e-05,0.0001,0.00012,-5e-05,1e-05,-2e-05,-3e-05,5,5
23561,-2e-05,-1e-05,0.0001,0.00012,-5e-05,1e-05,-2e-05,-3e-05,5,5
23562,-2e-05,-1e-05,0.0001,0.00012,-5e-05,1e-05,-2e-05,-3e-05,5,5
23563,-2e-05,-1e-05,0.0001,0.00012,-5e-05,1e-05,-2e-05,-3e-05,5,5
23564,-2e-05,-1e-05,0.0001,0.00012,-5e-05,1e-05,-2e-05,-3e-05,5,5
23565,-2e-05,-1e-05,0.0001,0.00012,-5e-05,1e-05,-2e-05,-3e-05,5,5
23566,1e-05,0,-5e-05,-8e-05,-0.00044,-0.00015,-5e-05,-2e-05,5,5
23567,1e-05,4e-05,9e-05,6e-05,0.00044,6e-05,1e-05,-3e-05,5,5
23568,1e-05,4e-05,9e-05,6e-05,0.00044,6e-05,1e-05,-3e-05,5,5
23569,1e-05,4e-05,9e-05,6e-05,0.00044,6e-05,1e-05,-3e-05,5,5
23570,1e-05,4e-05,9e-05,6e-05,0.00044,6e-05,1e-05,-3e-05,5,5
23571,1e-05,4e-05,9e-05,6e-05,0.00044,6e-05,1e-05,-3e-05,5,5
23572,1e-05,4e-05,9e-05,6e-05,0.00044,6e-05,1e-05,-3e-05,5,5
23573,1e-05,4e-05,9e-05,6e-05,0.00044,6e-05,1e-05,-3e-05,5,5
23574,1e-05,4e-05,9e-05,6e-05,0.00044,6e-05,1e-05,-3e-05,5,5
23575,1e-05,4e-05,9e-05,6e-05,0.00044,6e-05,1e-05,-3e-05,5,5
23576,1e-05,4e-05,9e-05,6e-05,0.00044,6e-05,1e-05,-3e-05,5,5
23577,1e-05,4e-05,9e-05,6e-05,0.00044,6e-05,1e-05,-3e-05,5,5
23578,1e-05,4e-05,9e-05,6e-05,0.00044,6e-05,1e-05,-3e-05,5,5
23579,1e-05,4e-05,9e-05,6e-05,0.00044,6e-05,1e-05,-3e-05,5,5
23580,-1e-05,-4e-05,1e-05,-7e-05,4e-05,3e-05,0,0,5,5
23581,-2e-05,-4e-05,-0.0001,1e-05,0.00028,-1e-05,-2e-05,-5e-05,5,5
23582,-2e-05,-4e-05,-0.0001,1e-05,0.00028,-1e-05,-2e-05,-5e-05,5,5
23583,-2e-05,-4e-05,-0.0001,1e-05,0.00028,-1e-05,-2e-05,-5e-05,5,5
23584,-2e-05,-4e-05,-0.0001,1e-05,0.00028,-1e-05,-2e-05,-5e-05,5,5
23585,-2e-05,-4e-05,-0.0001,1e-05,0.00028,-1e-05,-2e-05,-5e-05,5,5
23586,-2e-05,-4e-05,-0.0001,1e-05,0.00028,-1e-05,-2e-05,-5e-05,5,5
23588,-2e-05,-4e-05,-0.0001,1e-05,0.00028,-1e-05,-2e-05,-5e-05,5,5
23589,-2e-05,-4e-05,-0.0001,1e-05,0.00028,-1e-05,-2e-05,-5e-05,5,5
23590,-2e-05,-4e-05,-0.0001,1e-05,0.00028,-1e-05,-2e-05,-5e-05,5,5
23591,-2e-05,-4e-05,-0.0001,1e-05,0.00028,-1e-05,-2e-05,-5e-05,5,5
23592,-2e-05,-4e-05,-0.0001,1e-05,0.00028,-1e-05,-2e-05,-5e-05,5,5
23593,-2e-05,-4e-05,-0.0001,1e-05,0.00028,-1e-05,-2e-05,-5e-05,5,5
23594,-2e-05,-4e-05,-0.0001,1e-05,0.00028,-1e-05,-2e-05,-5e-05,5,5
23595,-2e-05,-4e-05,-0.0001,1e-05,0.00028,-1e-05,-2e-05,-5e-05,5,5
23596,-2e-05,-4e-05,-0.0001,1e-05,0.00028,-1e-05,-2e-05,-5e-05,5,5
23597,-2e-05,-4e-05,-0.0001,1e-05,0.00028,-1e-05,-2e-05,-5e-05,5,5
23598,-2e-05,-4e-05,-0.0001,1e-05,0.00028,-1e-05,-2e-05,-5e-05,5,5
23599,-2e-05,-4e-05,-0.0001,1e-05,0.00028,-1e-05,-2e-05,-5e-05,5,5
23600,-2e-05,-4e-05,-0.0001,1e-05,0.00028,-1e-05,-2e-05,-5e-05,5,5
23601,-2e-05,-4e-05,-0.0001,1e-05,0.00028,-1e-05,-2e-05,-5e-05,5,5
23602,-2e-05,-4e-05,-0.0001,1e-05,0.00028,-1e-05,-2e-05,-5e-05,5,5
23603,1e-05,4e-05,0.00011,0.00014,-0.00012,-7e-05,-5e-05,-2e-05,5,5
23605,1e-05,4e-05,0.00011,0.00014,-0.00012,-7e-05,-5e-05,-2e-05,5,5
23606,1e-05,4e-05,0.00011,0.00014,-0.00012,-7e-05,-5e-05,-2e-05,5,5
23607,1e-05,4e-05,0.00011,0.00014,-0.00012,-7e-05,-5e-05,-2e-05,5,5
23608,1e-05,4e-05,0.00011,0.00014,-0.00012,-7e-05,-5e-05,-2e-05,5,5
23609,1e-05,4e-05,0.00011,0.00014,-0.00012,-7e-05,-5e-05,-2e-05,5,5
23610,1e-05,4e-05,0.00011,0.00014,-0.00012,-7e-05,-5e-05,-2e-05,5,5
23611,1e-05,4e-05,0.00011,0.00014,-0.00012,-7e-05,-5e-05,-2e-05,5,5
23612,1e-05,4e-05,0.00011,0.00014,-0.00012,-7e-05,-5e-05,-2e-05,5,5
23613,1e-05,4e-05,0.00011,0.00014,-0.00012,-7e-05,-5e-05,-2e-05,5,5
23614,1e-05,4e-05,0.00011,0.00014,-0.00012,-7e-05,-5e-05,-2e-05,5,5
23615,1e-05,4e-05,0.00011,0.00014,-0.00012,-7e-05,-5e-05,-2e-05,5,5
23616,1e-05,4e-05,0.00011,0.00014,-0.00012,-7e-05,-5e-05,-2e-05,5,5
23617,1e-05,4e-05,0.00011,0.00014,-0.00012,-7e-05,-5e-05,-2e-05,5,5
23618,1e-05,4e-05,0.00011,0.00014,-0.00012,-7e-05,-5e-05,-2e-05,5,5
23619,1e-05,4e-05,0.00011,0.00014,-0.00012,-7e-05,-5e-05,-2e-05,5,5
23620,1e-05,4e-05,0.00011,0.00014,-0.00012,-7e-05,-5e-05,-2e-05,5,5
23621,1e-05,4e-05,0.00011,0.00014,-0.00012,-7e-05,-5e-05,-2e-05,5,5
23622,1e-05,4e-05,0.00011,0.00014,-0.00012,-7e-05,-5e-05,-2e-05,5,5
23623,1e-05,4e-05,0.00011,0.00014,-0.00012,-7e-05,-5e-05,-2e-05,5,5
23624,1e-05,4e-05,0.00011,0.00014,-0.00012,-7e-05,-5e-05,-2e-05,5,5
23625,1e-05,4e-05,0.00011,0.00014,-0.00012,-7e-05,-5e-05,-2e-05,5,5
23626,-2e-05,-8e-05,-9e-05,-4e-05,-4e-05,2e-05,2e-05,1e-05,5,5
23627,1e-05,2e-05,6e-05,-0.00011,-0.00023,-2e-05,0,0,5,5
23628,1e-05,2e-05,6e-05,-0.00011,-0.00023,-2e-05,0,0,5,5
23629,1e-05,2e-05,6e-05,-0.00011,-0.00023,-2e-05,0,0,5,5
23630,1e-05,2e-05,6e-05,-0.00011,-0.00023,-2e-05,0,0,5,5
23631,1e-05,2e-05,6e-05,-0.00011,-0.00023,-2e-05,0,0,5,5
23632,1e-05,2e-05,6e-05,-0.00011,-0.00023,-2e-05,0,0,5,5
23633,1e-05,2e-05,6e-05,-0.00011,-0.00023,-2e-05,0,0,5,5
23634,1e-05,2e-05,6e-05,-0.00011,-0.00023,-2e-05,0,0,5,5
23635,1e-05,2e-05,6e-05,-0.00011,-0.00023,-2e-05,0,0,5,5
23636,1e-05,2e-05,6e-05,-0.00011,-0.00023,-2e-05,0,0,5,5
23638,1e-05,2e-05,6e-05,-0.00011,-0.00023,-2e-05,0,0,5,5
23639,1e-05,2e-05,6e-05,-0.00011,-0.00023,-2e-05,0,0,5,5
23640,-1e-05,-1e-05,4e-05,0.00027,0.00039,-1e-05,-2e-05,-1e-05,5,5
23641,-2e-05,-4e-05,-9e-05,-0.00013,-4e-05,-0.00018,1e-05,-2e-05,5,5
23642,-2e-05,-4e-05,-9e-05,-0.00013,-4e-05,-0.00018,1e-05,-2e-05,5,5
23643,-2e-05,-4e-05,-9e-05,-0.00013,-4e-05,-0.00018,1e-05,-2e-05,5,5
23644,-2e-05,-4e-05,-9e-05,-0.00013,-4e-05,-0.00018,1e-05,-2e-05,5,5
23645,-2e-05,-4e-05,-9e-05,-0.00013,-4e-05,-0.00018,1e-05,-2e-05,5,5
23646,-2e-05,-4e-05,-9e-05,-0.00013,-4e-05,-0.00018,1e-05,-2e-05,5,5
23647,-2e-05,-4e-05,-9e-05,-0.00013,-4e-05,-0.00018,1e-05,-2e-05,5,5
23648,-2e-05,-4e-05,-9e-05,-0.00013,-4e-05,-0.00018,1e-05,-2e-05,5,5
23649,-2e-05,-4e-05,-9e-05,-0.00013,-4e-05,-0.00018,1e-05,-2e-05,5,5
23650,-2e-05,-4e-05,-9e-05,-0.00013,-4e-05,-0.00018,1e-05,-2e-05,5,5
23651,-2e-05,-4e-05,-9e-05,-0.00013,-4e-05,-0.00018,1e-05,-2e-05,5,5
23652,-2e-05,-4e-05,-9e-05,-0.00013,-4e-05,-0.00018,1e-05,-2e-05,5,5
23653,-2e-05,-4e-05,-9e-05,-0.00013,-4e-05,-0.00018,1e-05,-2e-05,5,5
23654,-2e-05,-4e-05,-9e-05,-0.00013,-4e-05,-0.00018,1e-05,-2e-05,5,5
23655,-2e-05,-4e-05,-9e-05,-0.00013,-4e-05,-0.00018,1e-05,-2e-05,5,5
23656,-2e-05,-4e-05,-9e-05,-0.00013,-4e-05,-0.00018,1e-05,-2e-05,5,5
23657,-2e-05,-4e-05,-9e-05,-0.00013,-4e-05,-0.00018,1e-05,-2e-05,5,5
23658,-2e-05,-4e-05,-9e-05,-0.00013,-4e-05,-0.00018,1e-05,-2e-05,5,5
23659,-2e-05,-4e-05,-9e-05,-0.00013,-4e-05,-0.00018,1e-05,-2e-05,5,5
23660,-2e-05,-4e-05,-9e-05,-0.00013,-4e-05,-0.00018,1e-05,-2e-05,5,5
23661,-2e-05,-4e-05,-9e-05,-0.00013,-4e-05,-0.00018,1e-05,-2e-05,5,5
23662,-2e-05,-4e-05,-9e-05,-0.00013,-4e-05,-0.00018,1e-05,-2e-05,5,5
23663,0,3e-05,0.00011,0.00011,9e-05,4e-05,-2e-05,0,5,5
23664,0,3e-05,0.00011,0.00011,9e-05,4e-05,-2e-05,0,5,5
23665,0,3e-05,0.00011,0.00011,9e-05,4e-05,-2e-05,0,5,5
23666,0,3e-05,0.00011,0.00011,9e-05,4e-05,-2e-05,0,5,5
23667,0,3e-05,0.00011,0.00011,9e-05,4e-05,-2e-05,0,5,5
23668,0,3e-05,0.00011,0.00011,9e-05,4e-05,-2e-05,0,5,5
23669,0,3e-05,0.00011,0.00011,9e-05,4e-05,-2e-05,0,5,5
23670,0,3e-05,0.00011,0.00011,9e-05,4e-05,-2e-05,0,5,5
23671,0,3e-05,0.00011,0.00011,9e-05,4e-05,-2e-05,0,5,5
23672,0,3e-05,0.00011,0.00011,9e-05,4e-05,-2e-05,0,5,5
23673,0,3e-05,0.00011,0.00011,9e-05,4e-05,-2e-05,0,5,5
23674,0,3e-05,0.00011,0.00011,9e-05,4e-05,-2e-05,0,5,5
23675,0,3e-05,0.00011,0.00011,9e-05,4e-05,-2e-05,0,5,5
23676,0,3e-05,0.00011,0.00011,9e-05,4e-05,-2e-05,0,5,5
23677,0,3e-05,0.00011,0.00011,9e-05,4e-05,-2e-05,0,5,5
23678,0,3e-05,0.00011,0.00011,9e-05,4e-05,-2e-05,0,5,5
23679,0,3e-05,0.00011,0.00011,9e-05,4e-05,-2e-05,0,5,5
23680,0,3e-05,0.00011,0.00011,9e-05,4e-05,-2e-05,0,5,5
23681,0,3e-05,0.00011,0.00011,9e-05,4e-05,-2e-05,0,5,5
23682,0,3e-05,0.00011,0.00011,9e-05,4e-05,-2e-05,0,5,5
23683,0,3e-05,0.00011,0.00011,9e-05,4e-05,-2e-05,0,5,5
23684,0,3e-05,0.00011,0.00011,9e-05,4e-05,-2e-05,0,5,5
23685,0,3e-05,0.00011,0.00011,9e-05,4e-05,-2e-05,0,5,5
23686,1e-05,-4e-05,-3e-05,-5e-05,-0.00021,-6e-05,-1e-05,-2e-05,5,5
23688,-1e-05,-1e-05,-0.00011,-8e-05,-0.00027,-6e-05,-1e-05,1e-05,5,5
23689,-1e-05,-1e-05,-0.00011,-8e-05,-0.00027,-6e-05,-1e-05,1e-05,5,5
23690,-1e-05,-1e-05,-0.00011,-8e-05,-0.00027,-6e-05,-1e-05,1e-05,5,5
23691,-1e-05,-1e-05,-0.00011,-8e-05,-0.00027,-6e-05,-1e-05,1e-05,5,5
23692,-1e-05,-1e-05,-0.00011,-8e-05,-0.00027,-6e-05,-1e-05,1e-05,5,5
23693,-1e-05,-1e-05,-0.00011,-8e-05,-0.00027,-6e-05,-1e-05,1e-05,5,5
23694,-1e-05,-1e-05,-0.00011,-8e-05,-0.00027,-6e-05,-1e-05,1e-05,5,5
23695,-1e-05,-1e-05,-0.00011,-8e-05,-0.00027,-6e-05,-1e-05,1e-05,5,5
23696,-1e-05,-1e-05,-0.00011,-8e-05,-0.00027,-6e-05,-1e-05,1e-05,5,5
23697,-1e-05,-1e-05,-0.00011,-8e-05,-0.00027,-6e-05,-1e-05,1e-05,5,5
23698,-1e-05,-1e-05,-0.00011,-8e-05,-0.00027,-6e-05,-1e-05,1e-05,5,5
23699,-1e-05,-1e-05,-0.00011,-8e-05,-0.00027,-6e-05,-1e-05,1e-05,5,5
23700,0,1e-05,2e-05,-6e-05,-0.00013,4e-05,1e-05,0,5,5
23701,-3e-05,-2e-05,-4e-05,-0.00015,-0.0002,-1e-05,-3e-05,-2e-05,5,5
23702,-3e-05,-2e-05,-4e-05,-0.00015,-0.0002,-1e-05,-3e-05,-2e-05,5,5
23703,-3e-05,-2e-05,-4e-05,-0.00015,-0.0002,-1e-05,-3e-05,-2e-05,5,5
23704,-3e-05,-2e-05,-4e-05,-0.00015,-0.0002,-1e-05,-3e-05,-2e-05,5,5
23705,-3e-05,-2e-05,-4e-05,-0.00015,-0.0002,-1e-05,-3e-05,-2e-05,5,5
23706,-3e-05,-2e-05,-4e-05,-0.00015,-0.0002,-1e-05,-3e-05,-2e-05,5,5
23707,-3e-05,-2e-05,-4e-05,-0.00015,-0.0002,-1e-05,-3e-05,-2e-05,5,5
23708,-3e-05,-2e-05,-4e-05,-0.00015,-0.0002,-1e-05,-3e-05,-2e-05,5,5
23709,-3e-05,-2e-05,-4e-05,-0.00015,-0.0002,-1e-05,-3e-05,-2e-05,5,5
23710,-3e-05,-2e-05,-4e-05,-0.00015,-0.0002,-1e-05,-3e-05,-2e-05,5,5
23711,-3e-05,-2e-05,-4e-05,-0.00015,-0.0002,-1e-05,-3e-05,-2e-05,5,5
23712,-3e-05,-2e-05,-4e-05,-0.00015,-0.0002,-1e-05,-3e-05,-2e-05,5,5
23713,-3e-05,-2e-05,-4e-05,-0.00015,-0.0002,-1e-05,-3e-05,-2e-05,5,5
23714,-3e-05,-2e-05,-4e-05,-0.00015,-0.0002,-1e-05,-3e-05,-2e-05,5,5
23715,-3e-05,-2e-05,-4e-05,-0.00015,-0.0002,-1e-05,-3e-05,-2e-05,5,5
23716,-3e-05,-2e-05,-4e-05,-0.00015,-0.0002,-1e-05,-3e-05,-2e-05,5,5
23717,-3e-05,-2e-05,-4e-05,-0.00015,-0.0002,-1e-05,-3e-05,-2e-05,5,5
23718,-3e-05,-2e-05,-4e-05,-0.00015,-0.0002,-1e-05,-3e-05,-2e-05,5,5
23719,-3e-05,-2e-05,-4e-05,-0.00015,-0.0002,-1e-05,-3e-05,-2e-05,5,5
23720,-3e-05,-2e-05,-4e-05,-0.00015,-0.0002,-1e-05,-3e-05,-2e-05,5,5
23721,-3e-05,-2e-05,-4e-05,-0.00015,-0.0002,-1e-05,-3e-05,-2e-05,5,5
23722,-3e-05,-2e-05,-4e-05,-0.00015,-0.0002,-1e-05,-3e-05,-2e-05,5,5
23723,4e-05,1e-05,-6e-05,9e-05,0.00046,5e-05,4e-05,5e-05,5,5
23724,4e-05,1e-05,-6e-05,9e-05,0.00046,5e-05,4e-05,5e-05,5,5
23725,4e-05,1e-05,-6e-05,9e-05,0.00046,5e-05,4e-05,5e-05,5,5
23726,4e-05,1e-05,-6e-05,9e-05,0.00046,5e-05,4e-05,5e-05,5,5
23727,4e-05,1e-05,-6e-05,9e-05,0.00046,5e-05,4e-05,5e-05,5,5
23728,4e-05,1e-05,-6e-05,9e-05,0.00046,5e-05,4e-05,5e-05,5,5
23729,4e-05,1e-05,-6e-05,9e-05,0.00046,5e-05,4e-05,5e-05,5,5
23730,4e-05,1e-05,-6e-05,9e-05,0.00046,5e-05,4e-05,5e-05,5,5
23731,4e-05,1e-05,-6e-05,9e-05,0.00046,5e-05,4e-05,5e-05,5,5
23732,4e-05,1e-05,-6e-05,9e-05,0.00046,5e-05,4e-05,5e-05,5,5
23733,4e-05,1e-05,-6e-05,9e-05,0.00046,5e-05,4e-05,5e-05,5,5
23734,4e-05,1e-05,-6e-05,9e-05,0.00046,5e-05,4e-05,5e-05,5,5
23735,4e-05,1e-05,-6e-05,9e-05,0.00046,5e-05,4e-05,5e-05,5,5
23736,4e-05,1e-05,-6e-05,9e-05,0.00046,5e-05,4e-05,5e-05,5,5
23738,4e-05,1e-05,-6e-05,9e-05,0.00046,5e-05,4e-05,5e-05,5,5
23739,4e-05,1e-05,-6e-05,9e-05,0.00046,5e-05,4e-05,5e-05,5,5
23740,4e-05,1e-05,-6e-05,9e-05,0.00046,5e-05,4e-05,5e-05,5,5
23741,4e-05,1e-05,-6e-05,9e-05,0.00046,5e-05,4e-05,5e-05,5,5
23742,4e-05,1e-05,-6e-05,9e-05,0.00046,5e-05,4e-05,5e-05,5,5
23743,4e-05,1e-05,-6e-05,9e-05,0.00046,5e-05,4e-05,5e-05,5,5
23744,4e-05,1e-05,-6e-05,9e-05,0.00046,5e-05,4e-05,5e-05,5,5
23745,4e-05,1e-05,-6e-05,9e-05,0.00046,5e-05,4e-05,5e-05,5,5
23746,1e-05,1e-05,8e-05,-3e-05,-0.00023,3e-05,-1e-05,1e-05,5,5
23747,1e-05,1e-05,8e-05,-3e-05,-0.00023,3e-05,-1e-05,1e-05,5,5
23748,1e-05,1e-05,8e-05,-3e-05,-0.00023,3e-05,-1e-05,1e-05,5,5
23749,1e-05,1e-05,8e-05,-3e-05,-0.00023,3e-05,-1e-05,1e-05,5,5
23750,1e-05,1e-05,8e-05,-3e-05,-0.00023,3e-05,-1e-05,1e-05,5,5
23751,1e-05,1e-05,8e-05,-3e-05,-0.00023,3e-05,-1e-05,1e-05,5,5
23752,1e-05,1e-05,8e-05,-3e-05,-0.00023,3e-05,-1e-05,1e-05,5,5
23753,1e-05,1e-05,8e-05,-3e-05,-0.00023,3e-05,-1e-05,1e-05,5,5
23754,1e-05,1e-05,8e-05,-3e-05,-0.00023,3e-05,-1e-05,1e-05,5,5
23755,1e-05,1e-05,8e-05,-3e-05,-0.00023,3e-05,-1e-05,1e-05,5,5
23756,1e-05,1e-05,8e-05,-3e-05,-0.00023,3e-05,-1e-05,1e-05,5,5
23757,1e-05,1e-05,8e-05,-3e-05,-0.00023,3e-05,-1e-05,1e-05,5,5
23758,1e-05,1e-05,8e-05,-3e-05,-0.00023,3e-05,-1e-05,1e-05,5,5
23759,1e-05,1e-05,8e-05,-3e-05,-0.00023,3e-05,-1e-05,1e-05,5,5
23760,0,-2e-05,-3e-05,0,-4e-05,-3e-05,-1e-05,1e-05,5,5
23761,-4e-05,-5e-05,-6e-05,0,5e-05,1e-05,0,-3e-05,5,5
23762,-4e-05,-5e-05,-6e-05,0,5e-05,1e-05,0,-3e-05,5,5
23763,-4e-05,-5e-05,-6e-05,0,5e-05,1e-05,0,-3e-05,5,5
23764,-4e-05,-5e-05,-6e-05,0,5e-05,1e-05,0,-3e-05,5,5
23765,-4e-05,-5e-05,-6e-05,0,5e-05,1e-05,0,-3e-05,5,5
23766,-4e-05,-5e-05,-6e-05,0,5e-05,1e-05,0,-3e-05,5,5
23767,-4e-05,-5e-05,-6e-05,0,5e-05,1e-05,0,-3e-05,5,5
23768,-4e-05,-5e-05,-6e-05,0,5e-05,1e-05,0,-3e-05,5,5
23769,-4e-05,-5e-05,-6e-05,0,5e-05,1e-05,0,-3e-05,5,5
23770,-4e-05,-5e-05,-6e-05,0,5e-05,1e-05,0,-3e-05,5,5
23771,-4e-05,-5e-05,-6e-05,0,5e-05,1e-05,0,-3e-05,5,5
23772,-4e-05,-5e-05,-6e-05,0,5e-05,1e-05,0,-3e-05,5,5
23773,-4e-05,-5e-05,-6e-05,0,5e-05,1e-05,0,-3e-05,5,5
23774,-4e-05,-5e-05,-6e-05,0,5e-05,1e-05,0,-3e-05,5,5
23775,-4e-05,-5e-05,-6e-05,0,5e-05,1e-05,0,-3e-05,5,5
23776,-4e-05,-5e-05,-6e-05,0,5e-05,1e-05,0,-3e-05,5,5
23777,-4e-05,-5e-05,-6e-05,0,5e-05,1e-05,0,-3e-05,5,5
23778,-4e-05,-5e-05,-6e-05,0,5e-05,1e-05,0,-3e-05,5,5
23779,-4e-05,-5e-05,-6e-05,0,5e-05,1e-05,0,-3e-05,5,5
23780,-4e-05,-5e-05,-6e-05,0,5e-05,1e-05,0,-3e-05,5,5
23781,-4e-05,-5e-05,-6e-05,0,5e-05,1e-05,0,-3e-05,5,5
23782,1e-05,4e-05,0,-0.00013,-0.00017,2e-05,-1e-05,0,5,5
23783,-5e-05,-4e-05,-1e-05,-4e-05,-0.00042,-2e-05,0,-1e-05,5,5
23784,-5e-05,-4e-05,-1e-05,-4e-05,-0.00042,-2e-05,0,-1e-05,5,5
23785,-5e-05,-4e-05,-1e-05,-4e-05,-0.00042,-2e-05,0,-1e-05,5,5
23786,-5e-05,-4e-05,-1e-05,-4e-05,-0.00042,-2e-05,0,-1e-05,5,5
23788,-5e-05,-4e-05,-1e-05,-4e-05,-0.00042,-2e-05,0,-1e-05,5,5
23789,-5e-05,-4e-05,-1e-05,-4e-05,-0.00042,-2e-05,0,-1e-05,5,5
23790,-5e-05,-4e-05,-1e-05,-4e-05,-0.00042,-2e-05,0,-1e-05,5,5
23791,-5e-05,-4e-05,-1e-05,-4e-05,-0.00042,-2e-05,0,-1e-05,5,5
23792,-5e-05,-4e-05,-1e-05,-4e-05,-0.00042,-2e-05,0,-1e-05,5,5
23793,-5e-05,-4e-05,-1e-05,-4e-05,-0.00042,-2e-05,0,-1e-05,5,5
23794,-5e-05,-4e-05,-1e-05,-4e-05,-0.00042,-2e-05,0,-1e-05,5,5
23795,-5e-05,-4e-05,-1e-05,-4e-05,-0.00042,-2e-05,0,-1e-05,5,5
23796,-5e-05,-4e-05,-1e-05,-4e-05,-0.00042,-2e-05,0,-1e-05,5,5
23797,-5e-05,-4e-05,-1e-05,-4e-05,-0.00042,-2e-05,0,-1e-05,5,5
23798,-5e-05,-4e-05,-1e-05,-4e-05,-0.00042,-2e-05,0,-1e-05,5,5
23799,-5e-05,-4e-05,-1e-05,-4e-05,-0.00042,-2e-05,0,-1e-05,5,5
23800,-5e-05,-4e-05,-1e-05,-4e-05,-0.00042,-2e-05,0,-1e-05,5,5
23801,-5e-05,-4e-05,-1e-05,-4e-05,-0.00042,-2e-05,0,-1e-05,5,5
23802,-5e-05,-4e-05,-1e-05,-4e-05,-0.00042,-2e-05,0,-1e-05,5,5
23803,-5e-05,-4e-05,-1e-05,-4e-05,-0.00042,-2e-05,0,-1e-05,5,5
23804,-5e-05,-4e-05,-1e-05,-4e-05,-0.00042,-2e-05,0,-1e-05,5,5
23805,-5e-05,-4e-05,-1e-05,-4e-05,-0.00042,-2e-05,0,-1e-05,5,5
23806,2e-05,1e-05,6e-05,4e-05,-2e-05,-6e-05,-1e-05,0,5,5
23807,0,0,3e-05,-3e-05,-8e-05,0,-2e-05,-4e-05,5,5
23808,0,0,3e-05,-3e-05,-8e-05,0,-2e-05,-4e-05,5,5
23809,0,0,3e-05,-3e-05,-8e-05,0,-2e-05,-4e-05,5,5
23810,0,0,3e-05,-3e-05,-8e-05,0,-2e-05,-4e-05,5,5
23811,0,0,3e-05,-3e-05,-8e-05,0,-2e-05,-4e-05,5,5
23812,0,0,3e-05,-3e-05,-8e-05,0,-2e-05,-4e-05,5,5
23813,0,0,3e-05,-3e-05,-8e-05,0,-2e-05,-4e-05,5,5
23814,0,0,3e-05,-3e-05,-8e-05,0,-2e-05,-4e-05,5,5
23815,0,0,3e-05,-3e-05,-8e-05,0,-2e-05,-4e-05,5,5
23816,0,0,3e-05,-3e-05,-8e-05,0,-2e-05,-4e-05,5,5
23817,0,0,3e-05,-3e-05,-8e-05,0,-2e-05,-4e-05,5,5
23818,0,0,3e-05,-3e-05,-8e-05,0,-2e-05,-4e-05,5,5
23819,0,-1e-05,-0.0001,-0.00024,-0.00028,3e-05,4e-05,2e-05,5,5
23820,0,-1e-05,-0.0001,-0.00024,-0.00028,3e-05,4e-05,2e-05,5,5
23821,0,-1e-05,-0.0001,-0.00024,-0.00028,3e-05,4e-05,2e-05,5,5
23822,0,-1e-05,-0.0001,-0.00024,-0.00028,3e-05,4e-05,2e-05,5,5
23823,0,-1e-05,-0.0001,-0.00024,-0.00028,3e-05,4e-05,2e-05,5,5
23824,0,-1e-05,-0.0001,-0.00024,-0.00028,3e-05,4e-05,2e-05,5,5
23825,0,-1e-05,-0.0001,-0.00024,-0.00028,3e-05,4e-05,2e-05,5,5
23826,0,-1e-05,-0.0001,-0.00024,-0.00028,3e-05,4e-05,2e-05,5,5
23827,0,-2e-05,2e-05,7e-05,0.00013,-1e-05,1e-05,-1e-05,5,5
23828,-3e-05,-6e-05,-5e-05,-6e-05,9e-05,-2e-05,-4e-05,-3e-05,5,5
23830,-3e-05,-6e-05,-5e-05,-6e-05,9e-05,-2e-05,-4e-05,-3e-05,5,5
23831,-3e-05,-6e-05,-5e-05,-6e-05,9e-05,-2e-05,-4e-05,-3e-05,5,5
23832,-3e-05,-6e-05,-5e-05,-6e-05,9e-05,-2e-05,-4e-05,-3e-05,5,5
23833,-3e-05,-6e-05,-5e-05,-6e-05,9e-05,-2e-05,-4e-05,-3e-05,5,5
23834,-3e-05,-6e-05,-5e-05,-6e-05,9e-05,-2e-05,-4e-05,-3e-05,5,5
23835,-3e-05,-6e-05,-5e-05,-6e-05,9e-05,-2e-05,-4e-05,-3e-05,5,5
23836,-3e-05,-6e-05,-5e-05,-6e-05,9e-05,-2e-05,-4e-05,-3e-05,5,5
23838,-3e-05,-6e-05,-5e-05,-6e-05,9e-05,-2e-05,-4e-05,-3e-05,5,5
23839,-3e-05,-6e-05,-5e-05,-6e-05,9e-05,-2e-05,-4e-05,-3e-05,5,5
23840,-3e-05,-6e-05,-5e-05,-6e-05,9e-05,-2e-05,-4e-05,-3e-05,5,5
23841,-3e-05,-6e-05,-5e-05,-6e-05,9e-05,-2e-05,-4e-05,-3e-05,5,5
23842,-3e-05,-6e-05,-5e-05,-6e-05,9e-05,-2e-05,-4e-05,-3e-05,5,5
23843,0,2e-05,5e-05,5e-05,0.00026,3e-05,-1e-05,0,5,5
23844,1e-05,2e-05,-1e-05,-2e-05,-7e-05,3e-05,-1e-05,-1e-05,5,5
23845,1e-05,2e-05,-1e-05,-2e-05,-7e-05,3e-05,-1e-05,-1e-05,5,5
23846,1e-05,2e-05,-1e-05,-2e-05,-7e-05,3e-05,-1e-05,-1e-05,5,5
23847,1e-05,2e-05,-1e-05,-2e-05,-7e-05,3e-05,-1e-05,-1e-05,5,5
23848,1e-05,2e-05,-1e-05,-2e-05,-7e-05,3e-05,-1e-05,-1e-05,5,5
23849,1e-05,2e-05,-1e-05,-2e-05,-7e-05,3e-05,-1e-05,-1e-05,5,5
23850,1e-05,2e-05,-1e-05,-2e-05,-7e-05,3e-05,-1e-05,-1e-05,5,5
23851,1e-05,2e-05,-1e-05,-2e-05,-7e-05,3e-05,-1e-05,-1e-05,5,5
23852,1e-05,2e-05,-1e-05,-2e-05,-7e-05,3e-05,-1e-05,-1e-05,5,5
23853,1e-05,2e-05,-1e-05,-2e-05,-7e-05,3e-05,-1e-05,-1e-05,5,5
51119,-1e-05,0,0.0001,-9e-05,-0.00023,-4e-05,-4e-05,1e-05,5,5
51120,-2e-05,2e-05,1e-05,0.00013,0.00024,9e-05,1e-05,-2e-05,5,5
51121,-2e-05,2e-05,1e-05,0.00013,0.00024,9e-05,1e-05,-2e-05,5,5
51122,-2e-05,2e-05,1e-05,0.00013,0.00024,9e-05,1e-05,-2e-05,5,5
51123,-2e-05,2e-05,1e-05,0.00013,0.00024,9e-05,1e-05,-2e-05,5,5
51124,-2e-05,2e-05,1e-05,0.00013,0.00024,9e-05,1e-05,-2e-05,5,5
51125,-2e-05,2e-05,1e-05,0.00013,0.00024,9e-05,1e-05,-2e-05,5,5
51126,-2e-05,2e-05,1e-05,0.00013,0.00024,9e-05,1e-05,-2e-05,5,5
51127,-2e-05,2e-05,1e-05,0.00013,0.00024,9e-05,1e-05,-2e-05,5,5
51128,-2e-05,2e-05,1e-05,0.00013,0.00024,9e-05,1e-05,-2e-05,5,5
51129,-2e-05,2e-05,1e-05,0.00013,0.00024,9e-05,1e-05,-2e-05,5,5
51130,-2e-05,2e-05,1e-05,0.00013,0.00024,9e-05,1e-05,-2e-05,5,5
51131,-2e-05,2e-05,1e-05,0.00013,0.00024,9e-05,1e-05,-2e-05,5,5
51132,-2e-05,2e-05,1e-05,0.00013,0.00024,9e-05,1e-05,-2e-05,5,5
51133,-2e-05,2e-05,1e-05,0.00013,0.00024,9e-05,1e-05,-2e-05,5,5
51134,-2e-05,2e-05,1e-05,0.00013,0.00024,9e-05,1e-05,-2e-05,5,5
51135,-2e-05,2e-05,1e-05,0.00013,0.00024,9e-05,1e-05,-2e-05,5,5
51136,-2e-05,2e-05,1e-05,0.00013,0.00024,9e-05,1e-05,-2e-05,5,5
51139,0,1e-05,0.00015,6e-05,0.0002,-1e-05,-1e-05,0,5,5
51140,0,1e-05,0.00015,6e-05,0.0002,-1e-05,-1e-05,0,5,5
51141,0,1e-05,0.00015,6e-05,0.0002,-1e-05,-1e-05,0,5,5
51142,0,1e-05,0.00015,6e-05,0.0002,-1e-05,-1e-05,0,5,5
51143,0,1e-05,0.00015,6e-05,0.0002,-1e-05,-1e-05,0,5,5
51144,0,1e-05,0.00015,6e-05,0.0002,-1e-05,-1e-05,0,5,5
51145,0,1e-05,0.00015,6e-05,0.0002,-1e-05,-1e-05,0,5,5
51146,0,1e-05,0.00015,6e-05,0.0002,-1e-05,-1e-05,0,5,5
51147,0,1e-05,0.00015,6e-05,0.0002,-1e-05,-1e-05,0,5,5
51148,0,1e-05,0.00015,6e-05,0.0002,-1e-05,-1e-05,0,5,5
51149,0,1e-05,0.00015,6e-05,0.0002,-1e-05,-1e-05,0,5,5
51150,0,1e-05,0.00015,6e-05,0.0002,-1e-05,-1e-05,0,5,5
51151,0,1e-05,0.00015,6e-05,0.0002,-1e-05,-1e-05,0,5,5
51152,0,1e-05,0.00015,6e-05,0.0002,-1e-05,-1e-05,0,5,5
51153,0,1e-05,0.00015,6e-05,0.0002,-1e-05,-1e-05,0,5,5
51154,0,1e-05,0.00015,6e-05,0.0002,-1e-05,-1e-05,0,5,5
51155,0,1e-05,0.00015,6e-05,0.0002,-1e-05,-1e-05,0,5,5
51156,0,1e-05,0.00015,6e-05,0.0002,-1e-05,-1e-05,0,5,5
51157,0,1e-05,0.00015,6e-05,0.0002,-1e-05,-1e-05,0,5,5
51158,0,1e-05,0.00015,6e-05,0.0002,-1e-05,-1e-05,0,5,5
51159,0,-1e-05,2e-05,0.00024,0.00033,-4e-05,-5e-05,0,5,5
51160,0,-1e-05,2e-05,0.00024,0.00033,-4e-05,-5e-05,0,5,5
51161,0,-2e-05,-9e-05,-0.00014,-0.00015,-0.00013,-5e-05,-1e-05,5,5
51162,0,-2e-05,-9e-05,-0.00014,-0.00015,-0.00013,-5e-05,-1e-05,5,5
51163,0,-2e-05,-9e-05,-0.00014,-0.00015,-0.00013,-5e-05,-1e-05,5,5
51164,0,-2e-05,-9e-05,-0.00014,-0.00015,-0.00013,-5e-05,-1e-05,5,5
51165,0,-2e-05,-9e-05,-0.00014,-0.00015,-0.00013,-5e-05,-1e-05,5,5
51166,0,-2e-05,-9e-05,-0.00014,-0.00015,-0.00013,-5e-05,-1e-05,5,5
51167,0,-2e-05,-9e-05,-0.00014,-0.00015,-0.00013,-5e-05,-1e-05,5,5
51168,0,-2e-05,-9e-05,-0.00014,-0.00015,-0.00013,-5e-05,-1e-05,5,5
51169,0,-2e-05,-9e-05,-0.00014,-0.00015,-0.00013,-5e-05,-1e-05,5,5
51170,0,-2e-05,-9e-05,-0.00014,-0.00015,-0.00013,-5e-05,-1e-05,5,5
51171,0,-2e-05,-9e-05,-0.00014,-0.00015,-0.00013,-5e-05,-1e-05,5,5
51172,0,-2e-05,-9e-05,-0.00014,-0.00015,-0.00013,-5e-05,-1e-05,5,5
51173,0,-2e-05,-9e-05,-0.00014,-0.00015,-0.00013,-5e-05,-1e-05,5,5
51174,4e-05,0,-1e-05,-0.00028,4e-05,0,0,0,5,5
51175,4e-05,0,-1e-05,-0.00028,4e-05,0,0,0,5,5
51176,4e-05,0,-1e-05,-0.00028,4e-05,0,0,0,5,5
51177,4e-05,0,-1e-05,-0.00028,4e-05,0,0,0,5,5
51178,4e-05,0,-1e-05,-0.00028,4e-05,0,0,0,5,5
51179,4e-05,0,-1e-05,-0.00028,4e-05,0,0,0,5,5
51180,2e-05,1e-05,-2e-05,6e-05,-0.00023,-6e-05,1e-05,0,5,5
51181,2e-05,1e-05,-2e-05,6e-05,-0.00023,-6e-05,1e-05,0,5,5
51182,2e-05,1e-05,-2e-05,6e-05,-0.00023,-6e-05,1e-05,0,5,5
51183,2e-05,1e-05,-2e-05,6e-05,-0.00023,-6e-05,1e-05,0,5,5
51184,2e-05,1e-05,-2e-05,6e-05,-0.00023,-6e-05,1e-05,0,5,5
51185,2e-05,1e-05,-2e-05,6e-05,-0.00023,-6e-05,1e-05,0,5,5
51186,2e-05,1e-05,-2e-05,6e-05,-0.00023,-6e-05,1e-05,0,5,5
51188,2e-05,1e-05,-2e-05,6e-05,-0.00023,-6e-05,1e-05,0,5,5
51189,2e-05,1e-05,-2e-05,6e-05,-0.00023,-6e-05,1e-05,0,5,5
51190,2e-05,1e-05,-2e-05,6e-05,-0.00023,-6e-05,1e-05,0,5,5
51191,2e-05,1e-05,-2e-05,6e-05,-0.00023,-6e-05,1e-05,0,5,5
51192,2e-05,1e-05,-2e-05,6e-05,-0.00023,-6e-05,1e-05,0,5,5
51193,2e-05,1e-05,-2e-05,6e-05,-0.00023,-6e-05,1e-05,0,5,5
51194,2e-05,1e-05,-2e-05,6e-05,-0.00023,-6e-05,1e-05,0,5,5
51195,2e-05,1e-05,-2e-05,6e-05,-0.00023,-6e-05,1e-05,0,5,5
51196,2e-05,1e-05,-2e-05,6e-05,-0.00023,-6e-05,1e-05,0,5,5
51197,1e-05,-1e-05,-4e-05,-0.00019,-0.0004,-2e-05,0,1e-05,5,5
51198,-1e-05,-1e-05,-5e-05,-0.00012,-0.00025,-8e-05,-2e-05,-3e-05,5,5
51199,-1e-05,-1e-05,-5e-05,-0.00012,-0.00025,-8e-05,-2e-05,-3e-05,5,5
51200,-1e-05,-1e-05,-5e-05,-0.00012,-0.00025,-8e-05,-2e-05,-3e-05,5,5
51201,-1e-05,-1e-05,-5e-05,-0.00012,-0.00025,-8e-05,-2e-05,-3e-05,5,5
51202,-1e-05,-1e-05,-5e-05,-0.00012,-0.00025,-8e-05,-2e-05,-3e-05,5,5
51203,-1e-05,-1e-05,-5e-05,-0.00012,-0.00025,-8e-05,-2e-05,-3e-05,5,5
51204,-1e-05,-1e-05,-5e-05,-0.00012,-0.00025,-8e-05,-2e-05,-3e-05,5,5
51205,-1e-05,-1e-05,-5e-05,-0.00012,-0.00025,-8e-05,-2e-05,-3e-05,5,5
51206,-1e-05,-1e-05,-5e-05,-0.00012,-0.00025,-8e-05,-2e-05,-3e-05,5,5
51207,-1e-05,-1e-05,-5e-05,-0.00012,-0.00025,-8e-05,-2e-05,-3e-05,5,5
51208,-1e-05,-1e-05,-5e-05,-0.00012,-0.00025,-8e-05,-2e-05,-3e-05,5,5
51209,-1e-05,-1e-05,-5e-05,-0.00012,-0.00025,-8e-05,-2e-05,-3e-05,5,5
51210,-1e-05,-1e-05,-5e-05,-0.00012,-0.00025,-8e-05,-2e-05,-3e-05,5,5
51211,-1e-05,-1e-05,-5e-05,-0.00012,-0.00025,-8e-05,-2e-05,-3e-05,5,5
51212,-1e-05,-1e-05,-5e-05,-0.00012,-0.00025,-8e-05,-2e-05,-3e-05,5,5
51213,-1e-05,-1e-05,-5e-05,-0.00012,-0.00025,-8e-05,-2e-05,-3e-05,5,5
51214,-1e-05,-1e-05,-5e-05,-0.00012,-0.00025,-8e-05,-2e-05,-3e-05,5,5
51215,-1e-05,-1e-05,-5e-05,-0.00012,-0.00025,-8e-05,-2e-05,-3e-05,5,5
51216,-1e-05,-1e-05,-5e-05,-0.00012,-0.00025,-8e-05,-2e-05,-3e-05,5,5
51217,-1e-05,-1e-05,-5e-05,-0.00012,-0.00025,-8e-05,-2e-05,-3e-05,5,5
51218,-1e-05,-1e-05,-5e-05,-0.00012,-0.00025,-8e-05,-2e-05,-3e-05,5,5
51219,-4e-05,-8e-05,-4e-05,0.00037,0.00045,7e-05,-4e-05,-5e-05,5,5
51220,-4e-05,-8e-05,-4e-05,0.00037,0.00045,7e-05,-4e-05,-5e-05,5,5
51221,-1e-05,3e-05,3e-05,-5e-05,-0.00041,-1e-05,-2e-05,0,5,5
51222,-1e-05,3e-05,3e-05,-5e-05,-0.00041,-1e-05,-2e-05,0,5,5
51223,-1e-05,3e-05,3e-05,-5e-05,-0.00041,-1e-05,-2e-05,0,5,5
51224,-1e-05,3e-05,3e-05,-5e-05,-0.00041,-1e-05,-2e-05,0,5,5
51225,-1e-05,3e-05,3e-05,-5e-05,-0.00041,-1e-05,-2e-05,0,5,5
51226,-1e-05,3e-05,3e-05,-5e-05,-0.00041,-1e-05,-2e-05,0,5,5
51227,-1e-05,3e-05,3e-05,-5e-05,-0.00041,-1e-05,-2e-05,0,5,5
51228,-1e-05,3e-05,3e-05,-5e-05,-0.00041,-1e-05,-2e-05,0,5,5
51229,-1e-05,3e-05,3e-05,-5e-05,-0.00041,-1e-05,-2e-05,0,5,5
51230,-1e-05,3e-05,3e-05,-5e-05,-0.00041,-1e-05,-2e-05,0,5,5
51231,-1e-05,3e-05,3e-05,-5e-05,-0.00041,-1e-05,-2e-05,0,5,5
51232,-1e-05,3e-05,3e-05,-5e-05,-0.00041,-1e-05,-2e-05,0,5,5
51233,1e-05,7e-05,0.00019,0.00017,-3e-05,2e-05,0,2e-05,5,5
51234,1e-05,7e-05,0.00019,0.00017,-3e-05,2e-05,0,2e-05,5,5
51235,1e-05,7e-05,0.00019,0.00017,-3e-05,2e-05,0,2e-05,5,5
51236,1e-05,7e-05,0.00019,0.00017,-3e-05,2e-05,0,2e-05,5,5
51238,1e-05,7e-05,0.00019,0.00017,-3e-05,2e-05,0,2e-05,5,5
51240,1e-05,7e-05,0.00019,0.00017,-3e-05,2e-05,0,2e-05,5,5
51241,1e-05,7e-05,0.00019,0.00017,-3e-05,2e-05,0,2e-05,5,5
51242,1e-05,7e-05,0.00019,0.00017,-3e-05,2e-05,0,2e-05,5,5
51243,1e-05,7e-05,0.00019,0.00017,-3e-05,2e-05,0,2e-05,5,5
51244,1e-05,7e-05,0.00019,0.00017,-3e-05,2e-05,0,2e-05,5,5
51245,1e-05,7e-05,0.00019,0.00017,-3e-05,2e-05,0,2e-05,5,5
51246,1e-05,7e-05,0.00019,0.00017,-3e-05,2e-05,0,2e-05,5,5
51247,1e-05,7e-05,0.00019,0.00017,-3e-05,2e-05,0,2e-05,5,5
51248,-6e-05,-0.00012,-0.00019,-0.00017,4e-05,1e-05,-1e-05,-3e-05,5,5
51249,-6e-05,-0.00012,-0.00019,-0.00017,4e-05,1e-05,-1e-05,-3e-05,5,5
51250,-6e-05,-0.00012,-0.00019,-0.00017,4e-05,1e-05,-1e-05,-3e-05,5,5
51251,-6e-05,-0.00012,-0.00019,-0.00017,4e-05,1e-05,-1e-05,-3e-05,5,5
51252,-6e-05,-0.00012,-0.00019,-0.00017,4e-05,1e-05,-1e-05,-3e-05,5,5
51253,-6e-05,-0.00012,-0.00019,-0.00017,4e-05,1e-05,-1e-05,-3e-05,5,5
51254,-6e-05,-0.00012,-0.00019,-0.00017,4e-05,1e-05,-1e-05,-3e-05,5,5
51255,-6e-05,-0.00012,-0.00019,-0.00017,4e-05,1e-05,-1e-05,-3e-05,5,5
51256,-6e-05,-0.00012,-0.00019,-0.00017,4e-05,1e-05,-1e-05,-3e-05,5,5
51257,0,0,-5e-05,-0.00018,-0.00011,-6e-05,-1e-05,-3e-05,5,5
51258,-3e-05,0,7e-05,0.00031,0.00029,6e-05,0,-1e-05,5,5
51259,-3e-05,0,7e-05,0.00031,0.00029,6e-05,0,-1e-05,5,5
51260,-3e-05,0,7e-05,0.00031,0.00029,6e-05,0,-1e-05,5,5
51261,-3e-05,0,7e-05,0.00031,0.00029,6e-05,0,-1e-05,5,5
51262,-3e-05,0,7e-05,0.00031,0.00029,6e-05,0,-1e-05,5,5
51263,-3e-05,0,7e-05,0.00031,0.00029,6e-05,0,-1e-05,5,5
51264,-3e-05,0,7e-05,0.00031,0.00029,6e-05,0,-1e-05,5,5
51265,-3e-05,0,7e-05,0.00031,0.00029,6e-05,0,-1e-05,5,5
51266,-3e-05,0,7e-05,0.00031,0.00029,6e-05,0,-1e-05,5,5
51267,-3e-05,0,7e-05,0.00031,0.00029,6e-05,0,-1e-05,5,5
51268,-3e-05,0,7e-05,0.00031,0.00029,6e-05,0,-1e-05,5,5
51269,-3e-05,0,7e-05,0.00031,0.00029,6e-05,0,-1e-05,5,5
51270,-3e-05,0,7e-05,0.00031,0.00029,6e-05,0,-1e-05,5,5
51271,-3e-05,0,7e-05,0.00031,0.00029,6e-05,0,-1e-05,5,5
51272,-3e-05,0,7e-05,0.00031,0.00029,6e-05,0,-1e-05,5,5
51273,-3e-05,0,7e-05,0.00031,0.00029,6e-05,0,-1e-05,5,5
51274,-3e-05,0,7e-05,0.00031,0.00029,6e-05,0,-1e-05,5,5
51275,-3e-05,0,7e-05,0.00031,0.00029,6e-05,0,-1e-05,5,5
51276,-3e-05,0,7e-05,0.00031,0.00029,6e-05,0,-1e-05,5,5
51277,-3e-05,0,7e-05,0.00031,0.00029,6e-05,0,-1e-05,5,5
51278,-3e-05,0,7e-05,0.00031,0.00029,6e-05,0,-1e-05,5,5
51279,0,0,-1e-05,-7e-05,-4e-05,-4e-05,0,2e-05,5,5
51280,0,0,-1e-05,-7e-05,-4e-05,-4e-05,0,2e-05,5,5
51281,-1e-05,-1e-05,0,-6e-05,4e-05,0,-1e-05,-1e-05,5,5
51282,-1e-05,-1e-05,0,-6e-05,4e-05,0,-1e-05,-1e-05,5,5
51283,-1e-05,-1e-05,0,-6e-05,4e-05,0,-1e-05,-1e-05,5,5
51284,-1e-05,-1e-05,0,-6e-05,4e-05,0,-1e-05,-1e-05,5,5
51285,-1e-05,-1e-05,0,-6e-05,4e-05,0,-1e-05,-1e-05,5,5
51286,-1e-05,-1e-05,0,-6e-05,4e-05,0,-1e-05,-1e-05,5,5
51289,-1e-05,-1e-05,0,-6e-05,4e-05,0,-1e-05,-1e-05,5,5
51290,-1e-05,-1e-05,0,-6e-05,4e-05,0,-1e-05,-1e-05,5,5
51291,-1e-05,-1e-05,0,-6e-05,4e-05,0,-1e-05,-1e-05,5,5
51292,-1e-05,-1e-05,0,-6e-05,4e-05,0,-1e-05,-1e-05,5,5
51293,-1e-05,-4e-05,0,2e-05,0.00014,-1e-05,-5e-05,-2e-05,5,5
51294,-1e-05,-4e-05,0,2e-05,0.00014,-1e-05,-5e-05,-2e-05,5,5
51295,-1e-05,-4e-05,0,2e-05,0.00014,-1e-05,-5e-05,-2e-05,5,5
51296,-1e-05,-4e-05,0,2e-05,0.00014,-1e-05,-5e-05,-2e-05,5,5
51297,-1e-05,-4e-05,0,2e-05,0.00014,-1e-05,-5e-05,-2e-05,5,5
51298,-1e-05,-4e-05,0,2e-05,0.00014,-1e-05,-5e-05,-2e-05,5,5
51299,-1e-05,-4e-05,0,2e-05,0.00014,-1e-05,-5e-05,-2e-05,5,5
51300,-1e-05,-4e-05,0,2e-05,0.00014,-1e-05,-5e-05,-2e-05,5,5
51301,-1e-05,-4e-05,0,2e-05,0.00014,-1e-05,-5e-05,-2e-05,5,5
51302,3e-05,1e-05,-8e-05,-0.00043,-0.00023,8e-05,5e-05,3e-05,5,5
51303,3e-05,1e-05,-8e-05,-0.00043,-0.00023,8e-05,5e-05,3e-05,5,5
51304,3e-05,1e-05,-8e-05,-0.00043,-0.00023,8e-05,5e-05,3e-05,5,5
51305,3e-05,1e-05,-8e-05,-0.00043,-0.00023,8e-05,5e-05,3e-05,5,5
51306,3e-05,1e-05,-8e-05,-0.00043,-0.00023,8e-05,5e-05,3e-05,5,5
51307,3e-05,1e-05,-8e-05,-0.00043,-0.00023,8e-05,5e-05,3e-05,5,5
51308,3e-05,1e-05,-8e-05,-0.00043,-0.00023,8e-05,5e-05,3e-05,5,5
51309,3e-05,1e-05,-8e-05,-0.00043,-0.00023,8e-05,5e-05,3e-05,5,5
51310,3e-05,1e-05,-8e-05,-0.00043,-0.00023,8e-05,5e-05,3e-05,5,5
51311,3e-05,1e-05,-8e-05,-0.00043,-0.00023,8e-05,5e-05,3e-05,5,5
51312,3e-05,1e-05,-8e-05,-0.00043,-0.00023,8e-05,5e-05,3e-05,5,5
51313,3e-05,1e-05,-8e-05,-0.00043,-0.00023,8e-05,5e-05,3e-05,5,5
51314,3e-05,1e-05,-8e-05,-0.00043,-0.00023,8e-05,5e-05,3e-05,5,5
51315,3e-05,1e-05,-8e-05,-0.00043,-0.00023,8e-05,5e-05,3e-05,5,5
51316,3e-05,1e-05,-8e-05,-0.00043,-0.00023,8e-05,5e-05,3e-05,5,5
51317,0,0,-7e-05,-0.00038,-0.00051,-7e-05,-1e-05,-3e-05,5,5
51318,0,0,-7e-05,-0.00038,-0.00051,-7e-05,-1e-05,-3e-05,5,5
51319,1e-05,2e-05,6e-05,8e-05,0.00019,4e-05,0,-1e-05,5,5
51320,1e-05,2e-05,6e-05,8e-05,0.00019,4e-05,0,-1e-05,5,5
51321,1e-05,2e-05,6e-05,8e-05,0.00019,4e-05,0,-1e-05,5,5
51322,1e-05,2e-05,6e-05,8e-05,0.00019,4e-05,0,-1e-05,5,5
51323,1e-05,2e-05,6e-05,8e-05,0.00019,4e-05,0,-1e-05,5,5
51324,1e-05,2e-05,6e-05,8e-05,0.00019,4e-05,0,-1e-05,5,5
51325,1e-05,2e-05,6e-05,8e-05,0.00019,4e-05,0,-1e-05,5,5
51326,1e-05,2e-05,6e-05,8e-05,0.00019,4e-05,0,-1e-05,5,5
51327,1e-05,2e-05,6e-05,8e-05,0.00019,4e-05,0,-1e-05,5,5
51328,1e-05,2e-05,6e-05,8e-05,0.00019,4e-05,0,-1e-05,5,5
51329,1e-05,2e-05,6e-05,8e-05,0.00019,4e-05,0,-1e-05,5,5
51330,1e-05,2e-05,6e-05,8e-05,0.00019,4e-05,0,-1e-05,5,5
51331,1e-05,2e-05,6e-05,8e-05,0.00019,4e-05,0,-1e-05,5,5
51332,1e-05,2e-05,6e-05,8e-05,0.00019,4e-05,0,-1e-05,5,5
51333,1e-05,2e-05,6e-05,8e-05,0.00019,4e-05,0,-1e-05,5,5
51334,1e-05,2e-05,6e-05,8e-05,0.00019,4e-05,0,-1e-05,5,5
51335,1e-05,2e-05,6e-05,8e-05,0.00019,4e-05,0,-1e-05,5,5
51336,1e-05,2e-05,6e-05,8e-05,0.00019,4e-05,0,-1e-05,5,5
51338,1e-05,2e-05,6e-05,8e-05,0.00019,4e-05,0,-1e-05,5,5
51339,1e-05,2e-05,6e-05,8e-05,0.00019,4e-05,0,-1e-05,5,5
51340,-1e-05,-1e-05,-4e-05,-0.00017,-0.00023,-6e-05,-2e-05,0,5,5
51341,0,1e-05,0,1e-05,3e-05,5e-05,2e-05,2e-05,5,5
51342,0,1e-05,0,1e-05,3e-05,5e-05,2e-05,2e-05,5,5
51343,0,1e-05,0,1e-05,3e-05,5e-05,2e-05,2e-05,5,5
51344,0,1e-05,0,1e-05,3e-05,5e-05,2e-05,2e-05,5,5
51345,1e-05,3e-05,2e-05,-2e-05,-3e-05,-7e-05,0,0,5,5
51346,1e-05,3e-05,2e-05,-2e-05,-3e-05,-7e-05,0,0,5,5
51347,1e-05,3e-05,2e-05,-2e-05,-3e-05,-7e-05,0,0,5,5
51348,1e-05,3e-05,2e-05,-2e-05,-3e-05,-7e-05,0,0,5,5
51349,1e-05,3e-05,2e-05,-2e-05,-3e-05,-7e-05,0,0,5,5
51350,1e-05,3e-05,2e-05,-2e-05,-3e-05,-7e-05,0,0,5,5
51351,1e-05,3e-05,2e-05,-2e-05,-3e-05,-7e-05,0,0,5,5
51352,1e-05,3e-05,2e-05,-2e-05,-3e-05,-7e-05,0,0,5,5
51353,3e-05,8e-05,3e-05,1e-05,0.00043,3e-05,4e-05,2e-05,5,5
51354,3e-05,8e-05,3e-05,1e-05,0.00043,3e-05,4e-05,2e-05,5,5
51355,3e-05,8e-05,3e-05,1e-05,0.00043,3e-05,4e-05,2e-05,5,5
51356,3e-05,8e-05,3e-05,1e-05,0.00043,3e-05,4e-05,2e-05,5,5
51357,3e-05,8e-05,3e-05,1e-05,0.00043,3e-05,4e-05,2e-05,5,5
51358,3e-05,8e-05,3e-05,1e-05,0.00043,3e-05,4e-05,2e-05,5,5
51359,3e-05,8e-05,3e-05,1e-05,0.00043,3e-05,4e-05,2e-05,5,5
51360,3e-05,8e-05,3e-05,1e-05,0.00043,3e-05,4e-05,2e-05,5,5
51361,3e-05,8e-05,3e-05,1e-05,0.00043,3e-05,4e-05,2e-05,5,5
51362,-2e-05,-3e-05,-2e-05,-0.00019,-8e-05,1e-05,-1e-05,-1e-05,5,5
51363,-2e-05,-3e-05,-2e-05,-0.00019,-8e-05,1e-05,-1e-05,-1e-05,5,5
51364,-2e-05,-3e-05,-2e-05,-0.00019,-8e-05,1e-05,-1e-05,-1e-05,5,5
51365,-2e-05,-3e-05,-2e-05,-0.00019,-8e-05,1e-05,-1e-05,-1e-05,5,5
51366,-2e-05,-3e-05,-2e-05,-0.00019,-8e-05,1e-05,-1e-05,-1e-05,5,5
51367,-2e-05,-3e-05,-2e-05,-0.00019,-8e-05,1e-05,-1e-05,-1e-05,5,5
51368,-2e-05,-3e-05,-2e-05,-0.00019,-8e-05,1e-05,-1e-05,-1e-05,5,5
51369,-2e-05,-3e-05,-2e-05,-0.00019,-8e-05,1e-05,-1e-05,-1e-05,5,5
51370,-2e-05,-3e-05,-2e-05,-0.00019,-8e-05,1e-05,-1e-05,-1e-05,5,5
51371,-2e-05,-3e-05,-2e-05,-0.00019,-8e-05,1e-05,-1e-05,-1e-05,5,5
51372,-2e-05,-3e-05,-2e-05,-0.00019,-8e-05,1e-05,-1e-05,-1e-05,5,5
51373,-2e-05,-3e-05,-2e-05,-0.00019,-8e-05,1e-05,-1e-05,-1e-05,5,5
51374,-2e-05,-3e-05,-2e-05,-0.00019,-8e-05,1e-05,-1e-05,-1e-05,5,5
51375,-2e-05,-3e-05,-2e-05,-0.00019,-8e-05,1e-05,-1e-05,-1e-05,5,5
51376,-2e-05,-3e-05,-2e-05,-0.00019,-8e-05,1e-05,-1e-05,-1e-05,5,5
51377,-6e-05,-7e-05,-7e-05,-0.0001,-0.00056,-0.00011,-5e-05,-2e-05,5,5
51378,1e-05,6e-05,0.00014,0.00018,1e-05,3e-05,-1e-05,-1e-05,5,5
51379,1e-05,6e-05,0.00014,0.00018,1e-05,3e-05,-1e-05,-1e-05,5,5
51380,1e-05,6e-05,0.00014,0.00018,1e-05,3e-05,-1e-05,-1e-05,5,5
51381,1e-05,6e-05,0.00014,0.00018,1e-05,3e-05,-1e-05,-1e-05,5,5
51382,1e-05,6e-05,0.00014,0.00018,1e-05,3e-05,-1e-05,-1e-05,5,5
51383,1e-05,6e-05,0.00014,0.00018,1e-05,3e-05,-1e-05,-1e-05,5,5
51384,1e-05,6e-05,0.00014,0.00018,1e-05,3e-05,-1e-05,-1e-05,5,5
51385,1e-05,6e-05,0.00014,0.00018,1e-05,3e-05,-1e-05,-1e-05,5,5
51386,1e-05,6e-05,0.00014,0.00018,1e-05,3e-05,-1e-05,-1e-05,5,5
51388,1e-05,6e-05,0.00014,0.00018,1e-05,3e-05,-1e-05,-1e-05,5,5
51389,1e-05,6e-05,0.00014,0.00018,1e-05,3e-05,-1e-05,-1e-05,5,5
51390,1e-05,6e-05,0.00014,0.00018,1e-05,3e-05,-1e-05,-1e-05,5,5
51391,1e-05,6e-05,0.00014,0.00018,1e-05,3e-05,-1e-05,-1e-05,5,5
51392,1e-05,6e-05,0.00014,0.00018,1e-05,3e-05,-1e-05,-1e-05,5,5
51393,1e-05,6e-05,0.00014,0.00018,1e-05,3e-05,-1e-05,-1e-05,5,5
51394,1e-05,6e-05,0.00014,0.00018,1e-05,3e-05,-1e-05,-1e-05,5,5
51395,1e-05,6e-05,0.00014,0.00018,1e-05,3e-05,-1e-05,-1e-05,5,5
51396,1e-05,6e-05,0.00014,0.00018,1e-05,3e-05,-1e-05,-1e-05,5,5
51397,1e-05,6e-05,0.00014,0.00018,1e-05,3e-05,-1e-05,-1e-05,5,5
51398,1e-05,6e-05,0.00014,0.00018,1e-05,3e-05,-1e-05,-1e-05,5,5
51399,-5e-05,-7e-05,-0.0001,3e-05,-5e-05,-3e-05,-1e-05,-1e-05,5,5
51400,-5e-05,-7e-05,-0.0001,3e-05,-5e-05,-3e-05,-1e-05,-1e-05,5,5
51401,-5e-05,-9e-05,-0.00016,5e-05,9e-05,-0.00011,-0.00011,-8e-05,5,5
51402,-5e-05,-9e-05,-0.00016,5e-05,9e-05,-0.00011,-0.00011,-8e-05,5,5
51403,-5e-05,-9e-05,-0.00016,5e-05,9e-05,-0.00011,-0.00011,-8e-05,5,5
51404,-5e-05,-9e-05,-0.00016,5e-05,9e-05,-0.00011,-0.00011,-8e-05,5,5
51405,-5e-05,-9e-05,-0.00016,5e-05,9e-05,-0.00011,-0.00011,-8e-05,5,5
51406,-5e-05,-9e-05,-0.00016,5e-05,9e-05,-0.00011,-0.00011,-8e-05,5,5
51407,-5e-05,-9e-05,-0.00016,5e-05,9e-05,-0.00011,-0.00011,-8e-05,5,5
51408,-5e-05,-9e-05,-0.00016,5e-05,9e-05,-0.00011,-0.00011,-8e-05,5,5
51409,-5e-05,-9e-05,-0.00016,5e-05,9e-05,-0.00011,-0.00011,-8e-05,5,5
51410,-5e-05,-9e-05,-0.00016,5e-05,9e-05,-0.00011,-0.00011,-8e-05,5,5
51411,-5e-05,-9e-05,-0.00016,5e-05,9e-05,-0.00011,-0.00011,-8e-05,5,5
51412,-5e-05,-9e-05,-0.00016,5e-05,9e-05,-0.00011,-0.00011,-8e-05,5,5
51413,1e-05,7e-05,8e-05,0.0002,0.00057,0,-1e-05,0,5,5
51414,1e-05,7e-05,8e-05,0.0002,0.00057,0,-1e-05,0,5,5
51415,1e-05,7e-05,8e-05,0.0002,0.00057,0,-1e-05,0,5,5
51416,1e-05,7e-05,8e-05,0.0002,0.00057,0,-1e-05,0,5,5
51417,1e-05,7e-05,8e-05,0.0002,0.00057,0,-1e-05,0,5,5
51418,1e-05,7e-05,8e-05,0.0002,0.00057,0,-1e-05,0,5,5
51419,1e-05,7e-05,8e-05,0.0002,0.00057,0,-1e-05,0,5,5
51420,1e-05,7e-05,8e-05,0.0002,0.00057,0,-1e-05,0,5,5
51421,1e-05,7e-05,8e-05,0.0002,0.00057,0,-1e-05,0,5,5
51422,-1e-05,-6e-05,-9e-05,5e-05,-8e-05,-0.0001,-5e-05,-3e-05,5,5
51423,-1e-05,-6e-05,-9e-05,5e-05,-8e-05,-0.0001,-5e-05,-3e-05,5,5
51424,-1e-05,-6e-05,-9e-05,5e-05,-8e-05,-0.0001,-5e-05,-3e-05,5,5
51425,-1e-05,-6e-05,-9e-05,5e-05,-8e-05,-0.0001,-5e-05,-3e-05,5,5
51426,-1e-05,-6e-05,-9e-05,5e-05,-8e-05,-0.0001,-5e-05,-3e-05,5,5
51427,-1e-05,-6e-05,-9e-05,5e-05,-8e-05,-0.0001,-5e-05,-3e-05,5,5
51428,-1e-05,-6e-05,-9e-05,5e-05,-8e-05,-0.0001,-5e-05,-3e-05,5,5
51429,-1e-05,-6e-05,-9e-05,5e-05,-8e-05,-0.0001,-5e-05,-3e-05,5,5
51430,-1e-05,-6e-05,-9e-05,5e-05,-8e-05,-0.0001,-5e-05,-3e-05,5,5
51431,-1e-05,-6e-05,-9e-05,5e-05,-8e-05,-0.0001,-5e-05,-3e-05,5,5
51432,-1e-05,-6e-05,-9e-05,5e-05,-8e-05,-0.0001,-5e-05,-3e-05,5,5
51433,-1e-05,-6e-05,-9e-05,5e-05,-8e-05,-0.0001,-5e-05,-3e-05,5,5
51434,-1e-05,-6e-05,-9e-05,5e-05,-8e-05,-0.0001,-5e-05,-3e-05,5,5
51435,-1e-05,-6e-05,-9e-05,5e-05,-8e-05,-0.0001,-5e-05,-3e-05,5,5
51436,-1e-05,-6e-05,-9e-05,5e-05,-8e-05,-0.0001,-5e-05,-3e-05,5,5
51439,-1e-05,1e-05,-2e-05,-0.00019,-0.00059,-5e-05,2e-05,2e-05,5,5
51440,-1e-05,1e-05,-2e-05,-0.00019,-0.00059,-5e-05,2e-05,2e-05,5,5
51441,-1e-05,1e-05,-2e-05,-0.00019,-0.00059,-5e-05,2e-05,2e-05,5,5
