23630,0.00034,0.00042,0.00069,0.00112,2e-05,-0.00021,0.00025,0.00022,5,8
23631,0.00034,0.00042,0.00069,0.00112,2e-05,-0.00021,0.00025,0.00022,5,8
23632,0.00034,0.00042,0.00069,0.00112,2e-05,-0.00021,0.00025,0.00022,5,8
23633,-9e-05,-0.00047,-0.00115,0.0001,0.00033,-0.00027,3e-05,-1e-05,5,8
23634,-9e-05,-0.00047,-0.00115,0.0001,0.00033,-0.00027,3e-05,-1e-05,5,8
23635,-9e-05,-0.00047,-0.00115,0.0001,0.00033,-0.00027,3e-05,-1e-05,5,8
23636,-9e-05,-0.00047,-0.00115,0.0001,0.00033,-0.00027,3e-05,-1e-05,5,8
23638,-9e-05,-0.00047,-0.00115,0.0001,0.00033,-0.00027,3e-05,-1e-05,5,8
23640,-9e-05,-0.00047,-0.00115,0.0001,0.00033,-0.00027,3e-05,-1e-05,5,8
23641,-9e-05,-0.00047,-0.00115,0.0001,0.00033,-0.00027,3e-05,-1e-05,5,8
23642,-9e-05,-0.00047,-0.00115,0.0001,0.00033,-0.00027,3e-05,-1e-05,5,8
23643,-9e-05,-0.00047,-0.00115,0.0001,0.00033,-0.00027,3e-05,-1e-05,5,8
23644,-9e-05,-0.00047,-0.00115,0.0001,0.00033,-0.00027,3e-05,-1e-05,5,8
23645,-9e-05,-0.00047,-0.00115,0.0001,0.00033,-0.00027,3e-05,-1e-05,5,8
23646,-9e-05,-0.00047,-0.00115,0.0001,0.00033,-0.00027,3e-05,-1e-05,5,8
23647,-9e-05,-0.00047,-0.00115,0.0001,0.00033,-0.00027,3e-05,-1e-05,5,8
23648,0.0001,0.00025,-0.0001,-0.00078,-0.00014,0.00067,-0.00016,6e-05,5,8
23649,0.00013,0.00057,0.00029,8e-05,-0.00011,0.00019,0.0001,5e-05,5,8
23650,0.00013,0.00057,0.00029,8e-05,-0.00011,0.00019,0.0001,5e-05,5,8
23651,0.00013,0.00057,0.00029,8e-05,-0.00011,0.00019,0.0001,5e-05,5,8
23652,0.00013,0.00057,0.00029,8e-05,-0.00011,0.00019,0.0001,5e-05,5,8
23653,0.00013,0.00057,0.00029,8e-05,-0.00011,0.00019,0.0001,5e-05,5,8
23654,0.00013,0.00057,0.00029,8e-05,-0.00011,0.00019,0.0001,5e-05,5,8
23655,0.00013,0.00057,0.00029,8e-05,-0.00011,0.00019,0.0001,5e-05,5,8
23656,0.00013,0.00057,0.00029,8e-05,-0.00011,0.00019,0.0001,5e-05,5,8
23657,0.00013,0.00057,0.00029,8e-05,-0.00011,0.00019,0.0001,5e-05,5,8
23658,0.00013,0.00057,0.00029,8e-05,-0.00011,0.00019,0.0001,5e-05,5,8
23659,0.00013,0.00057,0.00029,8e-05,-0.00011,0.00019,0.0001,5e-05,5,8
23660,0.00013,0.00057,0.00029,8e-05,-0.00011,0.00019,0.0001,5e-05,5,8
23661,0.00013,0.00057,0.00029,8e-05,-0.00011,0.00019,0.0001,5e-05,5,8
23662,0.00013,0.00057,0.00029,8e-05,-0.00011,0.00019,0.0001,5e-05,5,8
23663,0.00013,0.00057,0.00029,8e-05,-0.00011,0.00019,0.0001,5e-05,5,8
23664,0.00013,0.00057,0.00029,8e-05,-0.00011,0.00019,0.0001,5e-05,5,8
23665,0.00013,0.00057,0.00029,8e-05,-0.00011,0.00019,0.0001,5e-05,5,8
23666,0.00013,0.00057,0.00029,8e-05,-0.00011,0.00019,0.0001,5e-05,5,8
23667,0.00013,0.00057,0.00029,8e-05,-0.00011,0.00019,0.0001,5e-05,5,8
23668,0.00013,0.00057,0.00029,8e-05,-0.00011,0.00019,0.0001,5e-05,5,8
23669,0.00013,0.00057,0.00029,8e-05,-0.00011,0.00019,0.0001,5e-05,5,8
23670,0.00029,3e-05,0.00057,-0.00094,-0.00069,2e-05,3e-05,8e-05,5,8
23671,-4e-05,0.0001,0.00061,-0.00015,-0.00027,-0.00031,9e-05,3e-05,5,8
23672,-4e-05,0.0001,0.00061,-0.00015,-0.00027,-0.00031,9e-05,3e-05,5,8
23673,-4e-05,0.0001,0.00061,-0.00015,-0.00027,-0.00031,9e-05,3e-05,5,8
23674,-4e-05,0.0001,0.00061,-0.00015,-0.00027,-0.00031,9e-05,3e-05,5,8
23675,-4e-05,0.0001,0.00061,-0.00015,-0.00027,-0.00031,9e-05,3e-05,5,8
23676,-4e-05,0.0001,0.00061,-0.00015,-0.00027,-0.00031,9e-05,3e-05,5,8
23677,-4e-05,0.0001,0.00061,-0.00015,-0.00027,-0.00031,9e-05,3e-05,5,8
23678,-4e-05,0.0001,0.00061,-0.00015,-0.00027,-0.00031,9e-05,3e-05,5,8
23679,-4e-05,0.0001,0.00061,-0.00015,-0.00027,-0.00031,9e-05,3e-05,5,8
23680,-4e-05,0.0001,0.00061,-0.00015,-0.00027,-0.00031,9e-05,3e-05,5,8
23681,-4e-05,0.0001,0.00061,-0.00015,-0.00027,-0.00031,9e-05,3e-05,5,8
23682,-4e-05,0.0001,0.00061,-0.00015,-0.00027,-0.00031,9e-05,3e-05,5,8
23683,-4e-05,0.0001,0.00061,-0.00015,-0.00027,-0.00031,9e-05,3e-05,5,8
23684,-4e-05,0.0001,0.00061,-0.00015,-0.00027,-0.00031,9e-05,3e-05,5,8
23685,-4e-05,0.0001,0.00061,-0.00015,-0.00027,-0.00031,9e-05,3e-05,5,8
23686,-4e-05,0.0001,0.00061,-0.00015,-0.00027,-0.00031,9e-05,3e-05,5,8
23689,-4e-05,0.0001,0.00061,-0.00015,-0.00027,-0.00031,9e-05,3e-05,5,8
23690,-4e-05,0.0001,0.00061,-0.00015,-0.00027,-0.00031,9e-05,3e-05,5,8
23691,-4e-05,0.0001,0.00061,-0.00015,-0.00027,-0.00031,9e-05,3e-05,5,8
23692,-4e-05,0.0001,0.00061,-0.00015,-0.00027,-0.00031,9e-05,3e-05,5,8
23693,-4e-05,0.0001,0.00061,-0.00015,-0.00027,-0.00031,9e-05,3e-05,5,8
23694,0.00013,6e-05,0.00025,5e-05,-0.00017,0.00015,-2e-05,9e-05,5,8
23695,8e-05,0.00054,0.00064,-0.00061,-0.00109,-0.00012,0.00018,0.00013,5,8
23696,8e-05,0.00054,0.00064,-0.00061,-0.00109,-0.00012,0.00018,0.00013,5,8
23697,8e-05,0.00054,0.00064,-0.00061,-0.00109,-0.00012,0.00018,0.00013,5,8
23698,8e-05,0.00054,0.00064,-0.00061,-0.00109,-0.00012,0.00018,0.00013,5,8
23699,8e-05,0.00054,0.00064,-0.00061,-0.00109,-0.00012,0.00018,0.00013,5,8
23700,8e-05,0.00054,0.00064,-0.00061,-0.00109,-0.00012,0.00018,0.00013,5,8
23701,8e-05,0.00054,0.00064,-0.00061,-0.00109,-0.00012,0.00018,0.00013,5,8
23702,8e-05,0.00054,0.00064,-0.00061,-0.00109,-0.00012,0.00018,0.00013,5,8
23703,8e-05,0.00054,0.00064,-0.00061,-0.00109,-0.00012,0.00018,0.00013,5,8
23704,8e-05,0.00054,0.00064,-0.00061,-0.00109,-0.00012,0.00018,0.00013,5,8
23705,8e-05,0.00054,0.00064,-0.00061,-0.00109,-0.00012,0.00018,0.00013,5,8
23706,8e-05,0.00054,0.00064,-0.00061,-0.00109,-0.00012,0.00018,0.00013,5,8
23708,8e-05,0.00054,0.00064,-0.00061,-0.00109,-0.00012,0.00018,0.00013,5,8
23709,5e-05,-0.00023,-0.00029,-0.0009,-5e-05,1e-05,-0.00025,-0.00013,5,8
23710,5e-05,-0.00023,-0.00029,-0.0009,-5e-05,1e-05,-0.00025,-0.00013,5,8
23711,5e-05,-0.00023,-0.00029,-0.0009,-5e-05,1e-05,-0.00025,-0.00013,5,8
23712,5e-05,-0.00023,-0.00029,-0.0009,-5e-05,1e-05,-0.00025,-0.00013,5,8
23713,5e-05,-0.00023,-0.00029,-0.0009,-5e-05,1e-05,-0.00025,-0.00013,5,8
23714,5e-05,-0.00023,-0.00029,-0.0009,-5e-05,1e-05,-0.00025,-0.00013,5,8
23715,5e-05,-0.00023,-0.00029,-0.0009,-5e-05,1e-05,-0.00025,-0.00013,5,8
23716,5e-05,-0.00023,-0.00029,-0.0009,-5e-05,1e-05,-0.00025,-0.00013,5,8
23717,5e-05,-0.00023,-0.00029,-0.0009,-5e-05,1e-05,-0.00025,-0.00013,5,8
23718,5e-05,-0.00023,-0.00029,-0.0009,-5e-05,1e-05,-0.00025,-0.00013,5,8
23719,5e-05,-0.00023,-0.00029,-0.0009,-5e-05,1e-05,-0.00025,-0.00013,5,8
23720,5e-05,-0.00023,-0.00029,-0.0009,-5e-05,1e-05,-0.00025,-0.00013,5,8
23721,5e-05,-0.00023,-0.00029,-0.0009,-5e-05,1e-05,-0.00025,-0.00013,5,8
23722,5e-05,-0.00023,-0.00029,-0.0009,-5e-05,1e-05,-0.00025,-0.00013,5,8
23723,5e-05,-0.00023,-0.00029,-0.0009,-5e-05,1e-05,-0.00025,-0.00013,5,8
23724,5e-05,-0.00023,-0.00029,-0.0009,-5e-05,1e-05,-0.00025,-0.00013,5,8
23725,5e-05,-0.00023,-0.00029,-0.0009,-5e-05,1e-05,-0.00025,-0.00013,5,8
23726,5e-05,-0.00023,-0.00029,-0.0009,-5e-05,1e-05,-0.00025,-0.00013,5,8
23727,5e-05,-0.00023,-0.00029,-0.0009,-5e-05,1e-05,-0.00025,-0.00013,5,8
23728,5e-05,-0.00023,-0.00029,-0.0009,-5e-05,1e-05,-0.00025,-0.00013,5,8
23729,5e-05,-0.00023,-0.00029,-0.0009,-5e-05,1e-05,-0.00025,-0.00013,5,8
23730,5e-05,0.00024,-0.00017,0.00106,0.0004,-0.00046,-1e-05,-5e-05,5,8
23731,0,-4e-05,-0.00018,6e-05,0.00064,5e-05,0.0001,-5e-05,5,8
23732,0,-4e-05,-0.00018,6e-05,0.00064,5e-05,0.0001,-5e-05,5,8
23733,0,-4e-05,-0.00018,6e-05,0.00064,5e-05,0.0001,-5e-05,5,8
23734,0,-4e-05,-0.00018,6e-05,0.00064,5e-05,0.0001,-5e-05,5,8
23735,0,-4e-05,-0.00018,6e-05,0.00064,5e-05,0.0001,-5e-05,5,8
23736,0,-4e-05,-0.00018,6e-05,0.00064,5e-05,0.0001,-5e-05,5,8
23739,0,-4e-05,-0.00018,6e-05,0.00064,5e-05,0.0001,-5e-05,5,8
23740,0,-4e-05,-0.00018,6e-05,0.00064,5e-05,0.0001,-5e-05,5,8
23741,0,-4e-05,-0.00018,6e-05,0.00064,5e-05,0.0001,-5e-05,5,8
23742,0,-4e-05,-0.00018,6e-05,0.00064,5e-05,0.0001,-5e-05,5,8
23743,0,-4e-05,-0.00018,6e-05,0.00064,5e-05,0.0001,-5e-05,5,8
23744,0,-4e-05,-0.00018,6e-05,0.00064,5e-05,0.0001,-5e-05,5,8
23745,0,-4e-05,-0.00018,6e-05,0.00064,5e-05,0.0001,-5e-05,5,8
23746,0,-4e-05,-0.00018,6e-05,0.00064,5e-05,0.0001,-5e-05,5,8
23747,0,-4e-05,-0.00018,6e-05,0.00064,5e-05,0.0001,-5e-05,5,8
23748,0,-4e-05,-0.00018,6e-05,0.00064,5e-05,0.0001,-5e-05,5,8
23749,0,-4e-05,-0.00018,6e-05,0.00064,5e-05,0.0001,-5e-05,5,8
23750,0,-4e-05,-0.00018,6e-05,0.00064,5e-05,0.0001,-5e-05,5,8
23751,0,-4e-05,-0.00018,6e-05,0.00064,5e-05,0.0001,-5e-05,5,8
23752,0,-4e-05,-0.00018,6e-05,0.00064,5e-05,0.0001,-5e-05,5,8
23753,0,-4e-05,-0.00018,6e-05,0.00064,5e-05,0.0001,-5e-05,5,8
23754,0.00026,6e-05,0.00123,0.00127,1e-05,6e-05,-0.00029,8e-05,5,8
23755,-0.00017,-0.00029,-0.00108,0.00043,0.0002,0.00022,-6e-05,-0.00015,5,8
23756,-0.00017,-0.00029,-0.00108,0.00043,0.0002,0.00022,-6e-05,-0.00015,5,8
23757,-0.00017,-0.00029,-0.00108,0.00043,0.0002,0.00022,-6e-05,-0.00015,5,8
23758,-0.00017,-0.00029,-0.00108,0.00043,0.0002,0.00022,-6e-05,-0.00015,5,8
23759,-0.00017,-0.00029,-0.00108,0.00043,0.0002,0.00022,-6e-05,-0.00015,5,8
23760,-0.00017,-0.00029,-0.00108,0.00043,0.0002,0.00022,-6e-05,-0.00015,5,8
23761,-0.00017,-0.00029,-0.00108,0.00043,0.0002,0.00022,-6e-05,-0.00015,5,8
23762,-0.00017,-0.00029,-0.00108,0.00043,0.0002,0.00022,-6e-05,-0.00015,5,8
23763,-0.00017,-0.00029,-0.00108,0.00043,0.0002,0.00022,-6e-05,-0.00015,5,8
23764,-0.00017,-0.00029,-0.00108,0.00043,0.0002,0.00022,-6e-05,-0.00015,5,8
23765,-0.00017,-0.00029,-0.00108,0.00043,0.0002,0.00022,-6e-05,-0.00015,5,8
23766,-0.00017,-0.00029,-0.00108,0.00043,0.0002,0.00022,-6e-05,-0.00015,5,8
23767,-0.00017,-0.00029,-0.00108,0.00043,0.0002,0.00022,-6e-05,-0.00015,5,8
23768,-4e-05,-0.00026,-0.00021,-0.00049,0.00037,-6e-05,-7e-05,-6e-05,5,8
23769,-0.00017,-0.00041,-0.00017,-0.00047,-0.00032,-0.00024,-5e-05,-5e-05,5,8
23770,-0.00017,-0.00041,-0.00017,-0.00047,-0.00032,-0.00024,-5e-05,-5e-05,5,8
23771,-0.00017,-0.00041,-0.00017,-0.00047,-0.00032,-0.00024,-5e-05,-5e-05,5,8
23772,-0.00017,-0.00041,-0.00017,-0.00047,-0.00032,-0.00024,-5e-05,-5e-05,5,8
23773,-0.00017,-0.00041,-0.00017,-0.00047,-0.00032,-0.00024,-5e-05,-5e-05,5,8
23774,-0.00017,-0.00041,-0.00017,-0.00047,-0.00032,-0.00024,-5e-05,-5e-05,5,8
23775,-0.00017,-0.00041,-0.00017,-0.00047,-0.00032,-0.00024,-5e-05,-5e-05,5,8
23776,-0.00017,-0.00041,-0.00017,-0.00047,-0.00032,-0.00024,-5e-05,-5e-05,5,8
23777,-0.00017,-0.00041,-0.00017,-0.00047,-0.00032,-0.00024,-5e-05,-5e-05,5,8
23778,-0.00017,-0.00041,-0.00017,-0.00047,-0.00032,-0.00024,-5e-05,-5e-05,5,8
23779,-0.00017,-0.00041,-0.00017,-0.00047,-0.00032,-0.00024,-5e-05,-5e-05,5,8
23780,-0.00017,-0.00041,-0.00017,-0.00047,-0.00032,-0.00024,-5e-05,-5e-05,5,8
23781,-0.00017,-0.00041,-0.00017,-0.00047,-0.00032,-0.00024,-5e-05,-5e-05,5,8
23782,-0.00017,-0.00041,-0.00017,-0.00047,-0.00032,-0.00024,-5e-05,-5e-05,5,8
23783,-0.00017,-0.00041,-0.00017,-0.00047,-0.00032,-0.00024,-5e-05,-5e-05,5,8
23784,-0.00017,-0.00041,-0.00017,-0.00047,-0.00032,-0.00024,-5e-05,-5e-05,5,8
23785,-0.00017,-0.00041,-0.00017,-0.00047,-0.00032,-0.00024,-5e-05,-5e-05,5,8
23786,-0.00017,-0.00041,-0.00017,-0.00047,-0.00032,-0.00024,-5e-05,-5e-05,5,8
23788,-0.00017,-0.00041,-0.00017,-0.00047,-0.00032,-0.00024,-5e-05,-5e-05,5,8
23789,-0.00017,-0.00041,-0.00017,-0.00047,-0.00032,-0.00024,-5e-05,-5e-05,5,8
23790,0,1e-05,0.00012,-7e-05,-0.00043,-8e-05,0,1e-05,5,8
23791,0,1e-05,0.00012,-7e-05,-0.00043,-8e-05,0,1e-05,5,8
23792,0,1e-05,0.00012,-7e-05,-0.00043,-8e-05,0,1e-05,5,8
23793,0,1e-05,0.00012,-7e-05,-0.00043,-8e-05,0,1e-05,5,8
23794,0,1e-05,0.00012,-7e-05,-0.00043,-8e-05,0,1e-05,5,8
23795,0,1e-05,0.00012,-7e-05,-0.00043,-8e-05,0,1e-05,5,8
23796,0,1e-05,0.00012,-7e-05,-0.00043,-8e-05,0,1e-05,5,8
23797,0,1e-05,0.00012,-7e-05,-0.00043,-8e-05,0,1e-05,5,8
23798,-5e-05,0.00016,0.00059,0.00111,-0.00037,-0.00048,5e-05,-1e-05,5,8
23799,-5e-05,0.00016,0.00059,0.00111,-0.00037,-0.00048,5e-05,-1e-05,5,8
23800,-5e-05,0.00016,0.00059,0.00111,-0.00037,-0.00048,5e-05,-1e-05,5,8
23801,-5e-05,0.00016,0.00059,0.00111,-0.00037,-0.00048,5e-05,-1e-05,5,8
23802,-5e-05,0.00016,0.00059,0.00111,-0.00037,-0.00048,5e-05,-1e-05,5,8
23803,-5e-05,0.00016,0.00059,0.00111,-0.00037,-0.00048,5e-05,-1e-05,5,8
23804,-5e-05,0.00016,0.00059,0.00111,-0.00037,-0.00048,5e-05,-1e-05,5,8
23805,-5e-05,0.00016,0.00059,0.00111,-0.00037,-0.00048,5e-05,-1e-05,5,8
23806,-5e-05,0.00016,0.00059,0.00111,-0.00037,-0.00048,5e-05,-1e-05,5,8
23807,-5e-05,0.00016,0.00059,0.00111,-0.00037,-0.00048,5e-05,-1e-05,5,8
23808,-5e-05,0.00016,0.00059,0.00111,-0.00037,-0.00048,5e-05,-1e-05,5,8
23809,-5e-05,0.00016,0.00059,0.00111,-0.00037,-0.00048,5e-05,-1e-05,5,8
23810,-5e-05,0.00016,0.00059,0.00111,-0.00037,-0.00048,5e-05,-1e-05,5,8
23811,-5e-05,0.00016,0.00059,0.00111,-0.00037,-0.00048,5e-05,-1e-05,5,8
23812,-5e-05,0.00016,0.00059,0.00111,-0.00037,-0.00048,5e-05,-1e-05,5,8
23813,-5e-05,0.00016,0.00059,0.00111,-0.00037,-0.00048,5e-05,-1e-05,5,8
23814,-2e-05,-9e-05,-0.00015,-0.00028,-0.00056,0.00013,-0.00014,-3e-05,5,8
23815,-2e-05,7e-05,0.00085,0.00086,0.00016,-0.0004,-2e-05,1e-05,5,8
23816,-2e-05,7e-05,0.00085,0.00086,0.00016,-0.0004,-2e-05,1e-05,5,8
23817,-2e-05,7e-05,0.00085,0.00086,0.00016,-0.0004,-2e-05,1e-05,5,8
23818,-2e-05,7e-05,0.00085,0.00086,0.00016,-0.0004,-2e-05,1e-05,5,8
23819,-2e-05,7e-05,0.00085,0.00086,0.00016,-0.0004,-2e-05,1e-05,5,8
23820,-2e-05,7e-05,0.00085,0.00086,0.00016,-0.0004,-2e-05,1e-05,5,8
23821,-2e-05,7e-05,0.00085,0.00086,0.00016,-0.0004,-2e-05,1e-05,5,8
23822,-2e-05,7e-05,0.00085,0.00086,0.00016,-0.0004,-2e-05,1e-05,5,8
23823,-2e-05,7e-05,0.00085,0.00086,0.00016,-0.0004,-2e-05,1e-05,5,8
23824,-2e-05,7e-05,0.00085,0.00086,0.00016,-0.0004,-2e-05,1e-05,5,8
23825,-2e-05,7e-05,0.00085,0.00086,0.00016,-0.0004,-2e-05,1e-05,5,8
23826,-2e-05,7e-05,0.00085,0.00086,0.00016,-0.0004,-2e-05,1e-05,5,8
23827,-2e-05,7e-05,0.00085,0.00086,0.00016,-0.0004,-2e-05,1e-05,5,8
23828,-1e-05,-0.00053,0.00039,0.00095,0.0003,0.00038,7e-05,2e-05,5,8
23829,0.0001,0.00023,0.00076,-0.00081,-0.00045,0.00014,-0.0001,0,5,8
23830,0.0001,0.00023,0.00076,-0.00081,-0.00045,0.00014,-0.0001,0,5,8
23831,0.0001,0.00023,0.00076,-0.00081,-0.00045,0.00014,-0.0001,0,5,8
23832,0.0001,0.00023,0.00076,-0.00081,-0.00045,0.00014,-0.0001,0,5,8
23833,0.0001,0.00023,0.00076,-0.00081,-0.00045,0.00014,-0.0001,0,5,8
23834,0.0001,0.00023,0.00076,-0.00081,-0.00045,0.00014,-0.0001,0,5,8
23835,0.0001,0.00023,0.00076,-0.00081,-0.00045,0.00014,-0.0001,0,5,8
23836,0.0001,0.00023,0.00076,-0.00081,-0.00045,0.00014,-0.0001,0,5,8
23838,0.0001,0.00023,0.00076,-0.00081,-0.00045,0.00014,-0.0001,0,5,8
23839,0.0001,0.00023,0.00076,-0.00081,-0.00045,0.00014,-0.0001,0,5,8
23840,0.0001,0.00023,0.00076,-0.00081,-0.00045,0.00014,-0.0001,0,5,8
23841,0.0001,0.00023,0.00076,-0.00081,-0.00045,0.00014,-0.0001,0,5,8
23842,0.0001,0.00023,0.00076,-0.00081,-0.00045,0.00014,-0.0001,0,5,8
23843,0.0001,0.00023,0.00076,-0.00081,-0.00045,0.00014,-0.0001,0,5,8
23844,0.0001,0.00023,0.00076,-0.00081,-0.00045,0.00014,-0.0001,0,5,8
23845,0.0001,0.00023,0.00076,-0.00081,-0.00045,0.00014,-0.0001,0,5,8
23846,0.0001,0.00023,0.00076,-0.00081,-0.00045,0.00014,-0.0001,0,5,8
23847,0.0001,0.00023,0.00076,-0.00081,-0.00045,0.00014,-0.0001,0,5,8
23848,0.0001,0.00023,0.00076,-0.00081,-0.00045,0.00014,-0.0001,0,5,8
23849,0.0001,0.00023,0.00076,-0.00081,-0.00045,0.00014,-0.0001,0,5,8
23850,-0.00014,-9e-05,-8e-05,-0.00034,-0.00021,-0.0003,-5e-05,-5e-05,5,8
23851,-3e-05,-0.00039,-0.0006,-0.00062,0.00081,0.00029,0.00017,6e-05,5,8
23852,-3e-05,-0.00039,-0.0006,-0.00062,0.00081,0.00029,0.00017,6e-05,5,8
23853,-3e-05,-0.00039,-0.0006,-0.00062,0.00081,0.00029,0.00017,6e-05,5,8
23854,-3e-05,-0.00039,-0.0006,-0.00062,0.00081,0.00029,0.00017,6e-05,5,8
23855,-3e-05,-0.00039,-0.0006,-0.00062,0.00081,0.00029,0.00017,6e-05,5,8
23856,-3e-05,-0.00039,-0.0006,-0.00062,0.00081,0.00029,0.00017,6e-05,5,8
23857,-3e-05,-0.00039,-0.0006,-0.00062,0.00081,0.00029,0.00017,6e-05,5,8
23858,-3e-05,-0.00039,-0.0006,-0.00062,0.00081,0.00029,0.00017,6e-05,5,8
23859,-3e-05,-0.00039,-0.0006,-0.00062,0.00081,0.00029,0.00017,6e-05,5,8
23860,-3e-05,-0.00039,-0.0006,-0.00062,0.00081,0.00029,0.00017,6e-05,5,8
23861,-3e-05,-0.00039,-0.0006,-0.00062,0.00081,0.00029,0.00017,6e-05,5,8
23862,-3e-05,-0.00039,-0.0006,-0.00062,0.00081,0.00029,0.00017,6e-05,5,8
23863,-3e-05,-0.00039,-0.0006,-0.00062,0.00081,0.00029,0.00017,6e-05,5,8
23864,-3e-05,-0.00039,-0.0006,-0.00062,0.00081,0.00029,0.00017,6e-05,5,8
23865,-3e-05,-0.00039,-0.0006,-0.00062,0.00081,0.00029,0.00017,6e-05,5,8
23866,-3e-05,-0.00039,-0.0006,-0.00062,0.00081,0.00029,0.00017,6e-05,5,8
23867,-3e-05,-0.00039,-0.0006,-0.00062,0.00081,0.00029,0.00017,6e-05,5,8
23868,-3e-05,-0.00039,-0.0006,-0.00062,0.00081,0.00029,0.00017,6e-05,5,8
23869,-3e-05,-0.00039,-0.0006,-0.00062,0.00081,0.00029,0.00017,6e-05,5,8
23870,-3e-05,-0.00039,-0.0006,-0.00062,0.00081,0.00029,0.00017,6e-05,5,8
23871,-3e-05,-0.00039,-0.0006,-0.00062,0.00081,0.00029,0.00017,6e-05,5,8
23872,-3e-05,-0.00039,-0.0006,-0.00062,0.00081,0.00029,0.00017,6e-05,5,8
23873,-3e-05,-0.00039,-0.0006,-0.00062,0.00081,0.00029,0.00017,6e-05,5,8
23874,-9e-05,6e-05,0.00017,0.00019,-0.00034,-0.00033,0,0,5,8
23875,-9e-05,6e-05,0.00017,0.00019,-0.00034,-0.00033,0,0,5,8
23876,-9e-05,6e-05,0.00017,0.00019,-0.00034,-0.00033,0,0,5,8
23877,-9e-05,6e-05,0.00017,0.00019,-0.00034,-0.00033,0,0,5,8
23878,-9e-05,6e-05,0.00017,0.00019,-0.00034,-0.00033,0,0,5,8
23879,-9e-05,6e-05,0.00017,0.00019,-0.00034,-0.00033,0,0,5,8
23880,-9e-05,6e-05,0.00017,0.00019,-0.00034,-0.00033,0,0,5,8
23881,-9e-05,6e-05,0.00017,0.00019,-0.00034,-0.00033,0,0,5,8
23882,-9e-05,6e-05,0.00017,0.00019,-0.00034,-0.00033,0,0,5,8
23883,-9e-05,6e-05,0.00017,0.00019,-0.00034,-0.00033,0,0,5,8
23884,-9e-05,6e-05,0.00017,0.00019,-0.00034,-0.00033,0,0,5,8
23885,-9e-05,6e-05,0.00017,0.00019,-0.00034,-0.00033,0,0,5,8
23886,-9e-05,6e-05,0.00017,0.00019,-0.00034,-0.00033,0,0,5,8
23889,-0.00021,0.00012,-4e-05,0.00055,0.00057,0.0002,-6e-05,1e-05,5,8
23890,-0.00021,0.00012,-4e-05,0.00055,0.00057,0.0002,-6e-05,1e-05,5,8
23891,-0.00021,0.00012,-4e-05,0.00055,0.00057,0.0002,-6e-05,1e-05,5,8
23892,-0.00021,0.00012,-4e-05,0.00055,0.00057,0.0002,-6e-05,1e-05,5,8
23893,-0.00021,0.00012,-4e-05,0.00055,0.00057,0.0002,-6e-05,1e-05,5,8
23894,-0.00021,0.00012,-4e-05,0.00055,0.00057,0.0002,-6e-05,1e-05,5,8
23895,-0.00021,0.00012,-4e-05,0.00055,0.00057,0.0002,-6e-05,1e-05,5,8
23896,-0.00021,0.00012,-4e-05,0.00055,0.00057,0.0002,-6e-05,1e-05,5,8
23897,-0.00021,0.00012,-4e-05,0.00055,0.00057,0.0002,-6e-05,1e-05,5,8
23898,-0.00021,0.00012,-4e-05,0.00055,0.00057,0.0002,-6e-05,1e-05,5,8
23899,-0.00021,0.00012,-4e-05,0.00055,0.00057,0.0002,-6e-05,1e-05,5,8
23900,-0.00021,0.00012,-4e-05,0.00055,0.00057,0.0002,-6e-05,1e-05,5,8
23901,-0.00021,0.00012,-4e-05,0.00055,0.00057,0.0002,-6e-05,1e-05,5,8
23902,-0.00021,0.00012,-4e-05,0.00055,0.00057,0.0002,-6e-05,1e-05,5,8
23903,-0.00021,0.00012,-4e-05,0.00055,0.00057,0.0002,-6e-05,1e-05,5,8
23904,-0.00021,0.00012,-4e-05,0.00055,0.00057,0.0002,-6e-05,1e-05,5,8
23905,-0.00021,0.00012,-4e-05,0.00055,0.00057,0.0002,-6e-05,1e-05,5,8
23906,-0.00021,0.00012,-4e-05,0.00055,0.00057,0.0002,-6e-05,1e-05,5,8
23907,-0.00021,0.00012,-4e-05,0.00055,0.00057,0.0002,-6e-05,1e-05,5,8
23908,-0.00021,0.00012,-4e-05,0.00055,0.00057,0.0002,-6e-05,1e-05,5,8
23909,-0.00021,0.00012,-4e-05,0.00055,0.00057,0.0002,-6e-05,1e-05,5,8
23910,-0.00021,0.00012,-4e-05,0.00055,0.00057,0.0002,-6e-05,1e-05,5,8
23911,1e-05,-5e-05,-0.0005,-0.00062,-5e-05,0.00015,0.00011,-6e-05,5,8
23913,1e-05,-5e-05,-0.0005,-0.00062,-5e-05,0.00015,0.00011,-6e-05,5,8
23914,1e-05,-5e-05,-0.0005,-0.00062,-5e-05,0.00015,0.00011,-6e-05,5,8
23915,1e-05,-5e-05,-0.0005,-0.00062,-5e-05,0.00015,0.00011,-6e-05,5,8
23916,1e-05,-5e-05,-0.0005,-0.00062,-5e-05,0.00015,0.00011,-6e-05,5,8
23917,1e-05,-5e-05,-0.0005,-0.00062,-5e-05,0.00015,0.00011,-6e-05,5,8
23918,1e-05,-5e-05,-0.0005,-0.00062,-5e-05,0.00015,0.00011,-6e-05,5,8
23919,1e-05,-5e-05,-0.0005,-0.00062,-5e-05,0.00015,0.00011,-6e-05,5,8
23920,1e-05,-5e-05,-0.0005,-0.00062,-5e-05,0.00015,0.00011,-6e-05,5,8
23921,1e-05,-5e-05,-0.0005,-0.00062,-5e-05,0.00015,0.00011,-6e-05,5,8
23922,1e-05,-5e-05,-0.0005,-0.00062,-5e-05,0.00015,0.00011,-6e-05,5,8
23923,1e-05,-5e-05,-0.0005,-0.00062,-5e-05,0.00015,0.00011,-6e-05,5,8
23924,1e-05,-5e-05,-0.0005,-0.00062,-5e-05,0.00015,0.00011,-6e-05,5,8
23925,1e-05,-5e-05,-0.0005,-0.00062,-5e-05,0.00015,0.00011,-6e-05,5,8
23926,1e-05,-5e-05,-0.0005,-0.00062,-5e-05,0.00015,0.00011,-6e-05,5,8
23927,1e-05,-5e-05,-0.0005,-0.00062,-5e-05,0.00015,0.00011,-6e-05,5,8
23928,1e-05,-5e-05,-0.0005,-0.00062,-5e-05,0.00015,0.00011,-6e-05,5,8
23929,1e-05,-5e-05,-0.0005,-0.00062,-5e-05,0.00015,0.00011,-6e-05,5,8
23930,1e-05,-5e-05,-0.0005,-0.00062,-5e-05,0.00015,0.00011,-6e-05,5,8
23931,1e-05,-5e-05,-0.0005,-0.00062,-5e-05,0.00015,0.00011,-6e-05,5,8
23932,1e-05,-5e-05,-0.0005,-0.00062,-5e-05,0.00015,0.00011,-6e-05,5,8
23933,1e-05,-5e-05,-0.0005,-0.00062,-5e-05,0.00015,0.00011,-6e-05,5,8
23934,-8e-05,-0.00031,-0.0001,-0.0001,-0.00044,7e-05,-0.00011,-8e-05,5,8
23935,-8e-05,-0.00031,-0.0001,-0.0001,-0.00044,7e-05,-0.00011,-8e-05,5,8
23936,-8e-05,-0.00031,-0.0001,-0.0001,-0.00044,7e-05,-0.00011,-8e-05,5,8
23938,-8e-05,-0.00031,-0.0001,-0.0001,-0.00044,7e-05,-0.00011,-8e-05,5,8
23939,-8e-05,-0.00031,-0.0001,-0.0001,-0.00044,7e-05,-0.00011,-8e-05,5,8
23940,-8e-05,-0.00031,-0.0001,-0.0001,-0.00044,7e-05,-0.00011,-8e-05,5,8
23941,-8e-05,-0.00031,-0.0001,-0.0001,-0.00044,7e-05,-0.00011,-8e-05,5,8
23942,-8e-05,-0.00031,-0.0001,-0.0001,-0.00044,7e-05,-0.00011,-8e-05,5,8
23943,-8e-05,-0.00031,-0.0001,-0.0001,-0.00044,7e-05,-0.00011,-8e-05,5,8
23944,-8e-05,-0.00031,-0.0001,-0.0001,-0.00044,7e-05,-0.00011,-8e-05,5,8
23945,-8e-05,-0.00031,-0.0001,-0.0001,-0.00044,7e-05,-0.00011,-8e-05,5,8
23946,-8e-05,-0.00031,-0.0001,-0.0001,-0.00044,7e-05,-0.00011,-8e-05,5,8
23947,-8e-05,-0.00031,-0.0001,-0.0001,-0.00044,7e-05,-0.00011,-8e-05,5,8
23948,-3e-05,-6e-05,-0.00016,0.00032,-0.00044,-0.00025,-0.00014,-5e-05,5,8
23949,-1e-05,-0.00053,-0.0004,-5e-05,-0.00035,0.00012,-0.00019,-6e-05,5,8
23950,-1e-05,-0.00053,-0.0004,-5e-05,-0.00035,0.00012,-0.00019,-6e-05,5,8
23951,-1e-05,-0.00053,-0.0004,-5e-05,-0.00035,0.00012,-0.00019,-6e-05,5,8
23952,-1e-05,-0.00053,-0.0004,-5e-05,-0.00035,0.00012,-0.00019,-6e-05,5,8
23953,-1e-05,-0.00053,-0.0004,-5e-05,-0.00035,0.00012,-0.00019,-6e-05,5,8
23954,-1e-05,-0.00053,-0.0004,-5e-05,-0.00035,0.00012,-0.00019,-6e-05,5,8
23955,-1e-05,-0.00053,-0.0004,-5e-05,-0.00035,0.00012,-0.00019,-6e-05,5,8
23956,-1e-05,-0.00053,-0.0004,-5e-05,-0.00035,0.00012,-0.00019,-6e-05,5,8
23957,-1e-05,-0.00053,-0.0004,-5e-05,-0.00035,0.00012,-0.00019,-6e-05,5,8
23958,-1e-05,-0.00053,-0.0004,-5e-05,-0.00035,0.00012,-0.00019,-6e-05,5,8
23959,-1e-05,-0.00053,-0.0004,-5e-05,-0.00035,0.00012,-0.00019,-6e-05,5,8
23960,-1e-05,-0.00053,-0.0004,-5e-05,-0.00035,0.00012,-0.00019,-6e-05,5,8
23961,-1e-05,-0.00053,-0.0004,-5e-05,-0.00035,0.00012,-0.00019,-6e-05,5,8
23962,-1e-05,-0.00053,-0.0004,-5e-05,-0.00035,0.00012,-0.00019,-6e-05,5,8
23963,-1e-05,-0.00053,-0.0004,-5e-05,-0.00035,0.00012,-0.00019,-6e-05,5,8
23964,-1e-05,-0.00053,-0.0004,-5e-05,-0.00035,0.00012,-0.00019,-6e-05,5,8
23965,-1e-05,-0.00053,-0.0004,-5e-05,-0.00035,0.00012,-0.00019,-6e-05,5,8
23966,-1e-05,-0.00053,-0.0004,-5e-05,-0.00035,0.00012,-0.00019,-6e-05,5,8
23967,-1e-05,-0.00053,-0.0004,-5e-05,-0.00035,0.00012,-0.00019,-6e-05,5,8
23968,-1e-05,-0.00053,-0.0004,-5e-05,-0.00035,0.00012,-0.00019,-6e-05,5,8
23969,-1e-05,-0.00053,-0.0004,-5e-05,-0.00035,0.00012,-0.00019,-6e-05,5,8
23970,-0.00014,-0.00053,-0.00085,-0.00053,-0.00023,-0.00012,-0.00035,-0.00018,5,8
23971,7e-05,2e-05,-0.00031,-0.0012,-0.00036,0.00023,-4e-05,-1e-05,5,8
23972,7e-05,2e-05,-0.00031,-0.0012,-0.00036,0.00023,-4e-05,-1e-05,5,8
23973,7e-05,2e-05,-0.00031,-0.0012,-0.00036,0.00023,-4e-05,-1e-05,5,8
23974,7e-05,2e-05,-0.00031,-0.0012,-0.00036,0.00023,-4e-05,-1e-05,5,8
23975,7e-05,2e-05,-0.00031,-0.0012,-0.00036,0.00023,-4e-05,-1e-05,5,8
23976,7e-05,2e-05,-0.00031,-0.0012,-0.00036,0.00023,-4e-05,-1e-05,5,8
23977,7e-05,2e-05,-0.00031,-0.0012,-0.00036,0.00023,-4e-05,-1e-05,5,8
23978,7e-05,2e-05,-0.00031,-0.0012,-0.00036,0.00023,-4e-05,-1e-05,5,8
23979,7e-05,2e-05,-0.00031,-0.0012,-0.00036,0.00023,-4e-05,-1e-05,5,8
23980,7e-05,2e-05,-0.00031,-0.0012,-0.00036,0.00023,-4e-05,-1e-05,5,8
23981,7e-05,2e-05,-0.00031,-0.0012,-0.00036,0.00023,-4e-05,-1e-05,5,8
23982,7e-05,2e-05,-0.00031,-0.0012,-0.00036,0.00023,-4e-05,-1e-05,5,8
23983,7e-05,2e-05,-0.00031,-0.0012,-0.00036,0.00023,-4e-05,-1e-05,5,8
23984,7e-05,2e-05,-0.00031,-0.0012,-0.00036,0.00023,-4e-05,-1e-05,5,8
23985,7e-05,2e-05,-0.00031,-0.0012,-0.00036,0.00023,-4e-05,-1e-05,5,8
23986,7e-05,2e-05,-0.00031,-0.0012,-0.00036,0.00023,-4e-05,-1e-05,5,8
23988,7e-05,2e-05,-0.00031,-0.0012,-0.00036,0.00023,-4e-05,-1e-05,5,8
23989,7e-05,2e-05,-0.00031,-0.0012,-0.00036,0.00023,-4e-05,-1e-05,5,8
23990,7e-05,2e-05,-0.00031,-0.0012,-0.00036,0.00023,-4e-05,-1e-05,5,8
23991,7e-05,2e-05,-0.00031,-0.0012,-0.00036,0.00023,-4e-05,-1e-05,5,8
23992,7e-05,2e-05,-0.00031,-0.0012,-0.00036,0.00023,-4e-05,-1e-05,5,8
23993,7e-05,2e-05,-0.00031,-0.0012,-0.00036,0.00023,-4e-05,-1e-05,5,8
23994,-4e-05,0.00018,-0.00016,-0.00024,-0.00031,0.00012,1e-05,0,5,8
23995,4e-05,0.00039,0.0005,0.00048,-0.00034,1e-05,5e-05,5e-05,5,8
23996,4e-05,0.00039,0.0005,0.00048,-0.00034,1e-05,5e-05,5e-05,5,8
23997,4e-05,0.00039,0.0005,0.00048,-0.00034,1e-05,5e-05,5e-05,5,8
23998,4e-05,0.00039,0.0005,0.00048,-0.00034,1e-05,5e-05,5e-05,5,8
23999,4e-05,0.00039,0.0005,0.00048,-0.00034,1e-05,5e-05,5e-05,5,8
24000,4e-05,0.00039,0.0005,0.00048,-0.00034,1e-05,5e-05,5e-05,5,8
24001,4e-05,0.00039,0.0005,0.00048,-0.00034,1e-05,5e-05,5e-05,5,8
24002,4e-05,0.00039,0.0005,0.00048,-0.00034,1e-05,5e-05,5e-05,5,8
24003,4e-05,0.00039,0.0005,0.00048,-0.00034,1e-05,5e-05,5e-05,5,8
24004,4e-05,0.00039,0.0005,0.00048,-0.00034,1e-05,5e-05,5e-05,5,8
24005,4e-05,0.00039,0.0005,0.00048,-0.00034,1e-05,5e-05,5e-05,5,8
24006,4e-05,0.00039,0.0005,0.00048,-0.00034,1e-05,5e-05,5e-05,5,8
24007,4e-05,0.00039,0.0005,0.00048,-0.00034,1e-05,5e-05,5e-05,5,8
24008,-0.00036,-0.00037,-0.00027,0.00037,0.00096,0.00039,0.0001,-5e-05,5,8
24009,0.00011,0.0002,0.00022,0.0005,0.00049,-8e-05,2e-05,3e-05,5,8
24010,0.00011,0.0002,0.00022,0.0005,0.00049,-8e-05,2e-05,3e-05,5,8
24011,0.00011,0.0002,0.00022,0.0005,0.00049,-8e-05,2e-05,3e-05,5,8
24012,0.00011,0.0002,0.00022,0.0005,0.00049,-8e-05,2e-05,3e-05,5,8
24013,0.00011,0.0002,0.00022,0.0005,0.00049,-8e-05,2e-05,3e-05,5,8
24014,0.00011,0.0002,0.00022,0.0005,0.00049,-8e-05,2e-05,3e-05,5,8
24015,0.00011,0.0002,0.00022,0.0005,0.00049,-8e-05,2e-05,3e-05,5,8
24016,0.00011,0.0002,0.00022,0.0005,0.00049,-8e-05,2e-05,3e-05,5,8
24017,0.00011,0.0002,0.00022,0.0005,0.00049,-8e-05,2e-05,3e-05,5,8
24018,0.00011,0.0002,0.00022,0.0005,0.00049,-8e-05,2e-05,3e-05,5,8
24019,0.00011,0.0002,0.00022,0.0005,0.00049,-8e-05,2e-05,3e-05,5,8
24020,0.00011,0.0002,0.00022,0.0005,0.00049,-8e-05,2e-05,3e-05,5,8
24021,0.00011,0.0002,0.00022,0.0005,0.00049,-8e-05,2e-05,3e-05,5,8
24022,0.00011,0.0002,0.00022,0.0005,0.00049,-8e-05,2e-05,3e-05,5,8
24023,0.00011,0.0002,0.00022,0.0005,0.00049,-8e-05,2e-05,3e-05,5,8
24024,0.00011,0.0002,0.00022,0.0005,0.00049,-8e-05,2e-05,3e-05,5,8
24025,0.00011,0.0002,0.00022,0.0005,0.00049,-8e-05,2e-05,3e-05,5,8
24026,0.00011,0.0002,0.00022,0.0005,0.00049,-8e-05,2e-05,3e-05,5,8
24027,0.00011,0.0002,0.00022,0.0005,0.00049,-8e-05,2e-05,3e-05,5,8
24028,0.00011,0.0002,0.00022,0.0005,0.00049,-8e-05,2e-05,3e-05,5,8
24029,0.00011,0.0002,0.00022,0.0005,0.00049,-8e-05,2e-05,3e-05,5,8
24030,-5e-05,0.00016,0.00019,0.00102,-3e-05,-0.00055,-2e-05,-1e-05,5,8
24031,0.00021,0.00014,0.00023,0.00098,0.00045,-1e-05,0.00027,0.00012,5,8
24032,0.00021,0.00014,0.00023,0.00098,0.00045,-1e-05,0.00027,0.00012,5,8
24033,0.00021,0.00014,0.00023,0.00098,0.00045,-1e-05,0.00027,0.00012,5,8
24034,0.00021,0.00014,0.00023,0.00098,0.00045,-1e-05,0.00027,0.00012,5,8
24035,0.00021,0.00014,0.00023,0.00098,0.00045,-1e-05,0.00027,0.00012,5,8
24036,0.00021,0.00014,0.00023,0.00098,0.00045,-1e-05,0.00027,0.00012,5,8
24039,0.00021,0.00014,0.00023,0.00098,0.00045,-1e-05,0.00027,0.00012,5,8
24040,0.00021,0.00014,0.00023,0.00098,0.00045,-1e-05,0.00027,0.00012,5,8
24041,0.00021,0.00014,0.00023,0.00098,0.00045,-1e-05,0.00027,0.00012,5,8
24042,0.00021,0.00014,0.00023,0.00098,0.00045,-1e-05,0.00027,0.00012,5,8
24043,0.00021,0.00014,0.00023,0.00098,0.00045,-1e-05,0.00027,0.00012,5,8
24044,0.00021,0.00014,0.00023,0.00098,0.00045,-1e-05,0.00027,0.00012,5,8
24045,0.00021,0.00014,0.00023,0.00098,0.00045,-1e-05,0.00027,0.00012,5,8
24046,0.00021,0.00014,0.00023,0.00098,0.00045,-1e-05,0.00027,0.00012,5,8
24047,0.00021,0.00014,0.00023,0.00098,0.00045,-1e-05,0.00027,0.00012,5,8
24048,0.00021,0.00014,0.00023,0.00098,0.00045,-1e-05,0.00027,0.00012,5,8
24049,0.00021,0.00014,0.00023,0.00098,0.00045,-1e-05,0.00027,0.00012,5,8
24050,0.00021,0.00014,0.00023,0.00098,0.00045,-1e-05,0.00027,0.00012,5,8
24051,0.00021,0.00014,0.00023,0.00098,0.00045,-1e-05,0.00027,0.00012,5,8
24052,0.00021,0.00014,0.00023,0.00098,0.00045,-1e-05,0.00027,0.00012,5,8
24053,0.00021,0.00014,0.00023,0.00098,0.00045,-1e-05,0.00027,0.00012,5,8
24054,1e-05,0.00024,-0.00011,0.00011,6e-05,-0.00016,0.0001,3e-05,5,8
24055,1e-05,0.00024,-0.00011,0.00011,6e-05,-0.00016,0.0001,3e-05,5,8
24056,1e-05,0.00024,-0.00011,0.00011,6e-05,-0.00016,0.0001,3e-05,5,8
24057,1e-05,0.00024,-0.00011,0.00011,6e-05,-0.00016,0.0001,3e-05,5,8
24058,1e-05,0.00024,-0.00011,0.00011,6e-05,-0.00016,0.0001,3e-05,5,8
24059,1e-05,0.00024,-0.00011,0.00011,6e-05,-0.00016,0.0001,3e-05,5,8
24060,1e-05,0.00024,-0.00011,0.00011,6e-05,-0.00016,0.0001,3e-05,5,8
24061,1e-05,0.00024,-0.00011,0.00011,6e-05,-0.00016,0.0001,3e-05,5,8
24062,1e-05,0.00024,-0.00011,0.00011,6e-05,-0.00016,0.0001,3e-05,5,8
24063,1e-05,0.00024,-0.00011,0.00011,6e-05,-0.00016,0.0001,3e-05,5,8
24064,1e-05,0.00024,-0.00011,0.00011,6e-05,-0.00016,0.0001,3e-05,5,8
24065,1e-05,0.00024,-0.00011,0.00011,6e-05,-0.00016,0.0001,3e-05,5,8
24066,1e-05,0.00024,-0.00011,0.00011,6e-05,-0.00016,0.0001,3e-05,5,8
24067,1e-05,0.00024,-0.00011,0.00011,6e-05,-0.00016,0.0001,3e-05,5,8
24068,-4e-05,-0.00018,-0.00032,-0.00015,0.00025,-0.00012,0.00012,-2e-05,5,8
24069,0.00011,-0.00018,0.0004,-0.00016,-0.00076,0.00029,-3e-05,5e-05,5,8
24070,0.00011,-0.00018,0.0004,-0.00016,-0.00076,0.00029,-3e-05,5e-05,5,8
24071,0.00011,-0.00018,0.0004,-0.00016,-0.00076,0.00029,-3e-05,5e-05,5,8
24072,0.00011,-0.00018,0.0004,-0.00016,-0.00076,0.00029,-3e-05,5e-05,5,8
24073,0.00011,-0.00018,0.0004,-0.00016,-0.00076,0.00029,-3e-05,5e-05,5,8
24074,0.00011,-0.00018,0.0004,-0.00016,-0.00076,0.00029,-3e-05,5e-05,5,8
24075,0.00011,-0.00018,0.0004,-0.00016,-0.00076,0.00029,-3e-05,5e-05,5,8
24076,0.00011,-0.00018,0.0004,-0.00016,-0.00076,0.00029,-3e-05,5e-05,5,8
24077,0.00011,-0.00018,0.0004,-0.00016,-0.00076,0.00029,-3e-05,5e-05,5,8
24078,0.00011,-0.00018,0.0004,-0.00016,-0.00076,0.00029,-3e-05,5e-05,5,8
24079,0.00011,-0.00018,0.0004,-0.00016,-0.00076,0.00029,-3e-05,5e-05,5,8
24080,0.00011,-0.00018,0.0004,-0.00016,-0.00076,0.00029,-3e-05,5e-05,5,8
24081,0.00011,-0.00018,0.0004,-0.00016,-0.00076,0.00029,-3e-05,5e-05,5,8
24082,0.00011,-0.00018,0.0004,-0.00016,-0.00076,0.00029,-3e-05,5e-05,5,8
24083,0.00011,-0.00018,0.0004,-0.00016,-0.00076,0.00029,-3e-05,5e-05,5,8
24084,0.00011,-0.00018,0.0004,-0.00016,-0.00076,0.00029,-3e-05,5e-05,5,8
24085,0.00011,-0.00018,0.0004,-0.00016,-0.00076,0.00029,-3e-05,5e-05,5,8
24086,0.00011,-0.00018,0.0004,-0.00016,-0.00076,0.00029,-3e-05,5e-05,5,8
24089,0.00011,-0.00018,0.0004,-0.00016,-0.00076,0.00029,-3e-05,5e-05,5,8
24090,-0.00015,-0.00043,-2e-05,0.00068,-3e-05,-0.00014,-0.00015,-0.00012,5,8
24091,-9e-05,0.00012,-1e-05,-0.00018,5e-05,-0.00025,-9e-05,-4e-05,5,8
24092,-9e-05,0.00012,-1e-05,-0.00018,5e-05,-0.00025,-9e-05,-4e-05,5,8
24093,-9e-05,0.00012,-1e-05,-0.00018,5e-05,-0.00025,-9e-05,-4e-05,5,8
24094,-9e-05,0.00012,-1e-05,-0.00018,5e-05,-0.00025,-9e-05,-4e-05,5,8
24095,-9e-05,0.00012,-1e-05,-0.00018,5e-05,-0.00025,-9e-05,-4e-05,5,8
24096,-9e-05,0.00012,-1e-05,-0.00018,5e-05,-0.00025,-9e-05,-4e-05,5,8
24097,-9e-05,0.00012,-1e-05,-0.00018,5e-05,-0.00025,-9e-05,-4e-05,5,8
24098,-9e-05,0.00012,-1e-05,-0.00018,5e-05,-0.00025,-9e-05,-4e-05,5,8
24099,-9e-05,0.00012,-1e-05,-0.00018,5e-05,-0.00025,-9e-05,-4e-05,5,8
24100,-9e-05,0.00012,-1e-05,-0.00018,5e-05,-0.00025,-9e-05,-4e-05,5,8
24101,-9e-05,0.00012,-1e-05,-0.00018,5e-05,-0.00025,-9e-05,-4e-05,5,8
24102,-9e-05,0.00012,-1e-05,-0.00018,5e-05,-0.00025,-9e-05,-4e-05,5,8
24103,-9e-05,0.00012,-1e-05,-0.00018,5e-05,-0.00025,-9e-05,-4e-05,5,8
24104,-9e-05,0.00012,-1e-05,-0.00018,5e-05,-0.00025,-9e-05,-4e-05,5,8
24105,-9e-05,0.00012,-1e-05,-0.00018,5e-05,-0.00025,-9e-05,-4e-05,5,8
24106,-9e-05,0.00012,-1e-05,-0.00018,5e-05,-0.00025,-9e-05,-4e-05,5,8
24107,-9e-05,0.00012,-1e-05,-0.00018,5e-05,-0.00025,-9e-05,-4e-05,5,8
24108,-9e-05,0.00012,-1e-05,-0.00018,5e-05,-0.00025,-9e-05,-4e-05,5,8
24109,-9e-05,0.00012,-1e-05,-0.00018,5e-05,-0.00025,-9e-05,-4e-05,5,8
24110,-9e-05,0.00012,-1e-05,-0.00018,5e-05,-0.00025,-9e-05,-4e-05,5,8
24111,-9e-05,0.00012,-1e-05,-0.00018,5e-05,-0.00025,-9e-05,-4e-05,5,8
24112,-9e-05,0.00012,-1e-05,-0.00018,5e-05,-0.00025,-9e-05,-4e-05,5,8
24113,-9e-05,0.00012,-1e-05,-0.00018,5e-05,-0.00025,-9e-05,-4e-05,5,8
24114,-0.00037,-0.00016,-0.00064,0.0002,0.00061,-0.0002,0.00016,-7e-05,5,8
24115,-0.00037,-0.00016,-0.00064,0.0002,0.00061,-0.0002,0.00016,-7e-05,5,8
24116,-0.00037,-0.00016,-0.00064,0.0002,0.00061,-0.0002,0.00016,-7e-05,5,8
24117,-0.00037,-0.00016,-0.00064,0.0002,0.00061,-0.0002,0.00016,-7e-05,5,8
24118,-0.00037,-0.00016,-0.00064,0.0002,0.00061,-0.0002,0.00016,-7e-05,5,8
24119,-0.00037,-0.00016,-0.00064,0.0002,0.00061,-0.0002,0.00016,-7e-05,5,8
24120,-0.00037,-0.00016,-0.00064,0.0002,0.00061,-0.0002,0.00016,-7e-05,5,8
24121,-0.00037,-0.00016,-0.00064,0.0002,0.00061,-0.0002,0.00016,-7e-05,5,8
24122,-0.00037,-0.00016,-0.00064,0.0002,0.00061,-0.0002,0.00016,-7e-05,5,8
24123,-0.00037,-0.00016,-0.00064,0.0002,0.00061,-0.0002,0.00016,-7e-05,5,8
24124,-0.00037,-0.00016,-0.00064,0.0002,0.00061,-0.0002,0.00016,-7e-05,5,8
24125,-0.00037,-0.00016,-0.00064,0.0002,0.00061,-0.0002,0.00016,-7e-05,5,8
24126,-0.00037,-0.00016,-0.00064,0.0002,0.00061,-0.0002,0.00016,-7e-05,5,8
24127,-0.00037,-0.00016,-0.00064,0.0002,0.00061,-0.0002,0.00016,-7e-05,5,8
24128,0.00019,0.00011,0.00021,0.00065,-0.00032,0.00015,-6e-05,4e-05,5,8
24129,-7e-05,-5e-05,-0.00036,-0.00061,-0.00033,-0.00014,0,-8e-05,5,8
24130,-7e-05,-5e-05,-0.00036,-0.00061,-0.00033,-0.00014,0,-8e-05,5,8
24131,-7e-05,-5e-05,-0.00036,-0.00061,-0.00033,-0.00014,0,-8e-05,5,8
24132,-7e-05,-5e-05,-0.00036,-0.00061,-0.00033,-0.00014,0,-8e-05,5,8
24133,-7e-05,-5e-05,-0.00036,-0.00061,-0.00033,-0.00014,0,-8e-05,5,8
24134,-7e-05,-5e-05,-0.00036,-0.00061,-0.00033,-0.00014,0,-8e-05,5,8
24135,-7e-05,-5e-05,-0.00036,-0.00061,-0.00033,-0.00014,0,-8e-05,5,8
24136,-7e-05,-5e-05,-0.00036,-0.00061,-0.00033,-0.00014,0,-8e-05,5,8
24138,-7e-05,-5e-05,-0.00036,-0.00061,-0.00033,-0.00014,0,-8e-05,5,8
24139,-7e-05,-5e-05,-0.00036,-0.00061,-0.00033,-0.00014,0,-8e-05,5,8
24140,-7e-05,-5e-05,-0.00036,-0.00061,-0.00033,-0.00014,0,-8e-05,5,8
24141,-7e-05,-5e-05,-0.00036,-0.00061,-0.00033,-0.00014,0,-8e-05,5,8
24142,-7e-05,-5e-05,-0.00036,-0.00061,-0.00033,-0.00014,0,-8e-05,5,8
24143,-7e-05,-5e-05,-0.00036,-0.00061,-0.00033,-0.00014,0,-8e-05,5,8
24144,-7e-05,-5e-05,-0.00036,-0.00061,-0.00033,-0.00014,0,-8e-05,5,8
24145,-7e-05,-5e-05,-0.00036,-0.00061,-0.00033,-0.00014,0,-8e-05,5,8
24146,-7e-05,-5e-05,-0.00036,-0.00061,-0.00033,-0.00014,0,-8e-05,5,8
24147,-7e-05,-5e-05,-0.00036,-0.00061,-0.00033,-0.00014,0,-8e-05,5,8
24148,-7e-05,-5e-05,-0.00036,-0.00061,-0.00033,-0.00014,0,-8e-05,5,8
24149,-7e-05,-5e-05,-0.00036,-0.00061,-0.00033,-0.00014,0,-8e-05,5,8
24150,-0.00018,-0.00032,-0.00034,-0.00078,-0.00028,-5e-05,-8e-05,-9e-05,5,8
24151,-3e-05,0.00026,-0.00023,-0.00105,0.00059,0.00021,-2e-05,-2e-05,5,8
24152,-3e-05,0.00026,-0.00023,-0.00105,0.00059,0.00021,-2e-05,-2e-05,5,8
24153,-3e-05,0.00026,-0.00023,-0.00105,0.00059,0.00021,-2e-05,-2e-05,5,8
24154,-3e-05,0.00026,-0.00023,-0.00105,0.00059,0.00021,-2e-05,-2e-05,5,8
24155,-3e-05,0.00026,-0.00023,-0.00105,0.00059,0.00021,-2e-05,-2e-05,5,8
24156,-3e-05,0.00026,-0.00023,-0.00105,0.00059,0.00021,-2e-05,-2e-05,5,8
24157,-3e-05,0.00026,-0.00023,-0.00105,0.00059,0.00021,-2e-05,-2e-05,5,8
24158,-3e-05,0.00026,-0.00023,-0.00105,0.00059,0.00021,-2e-05,-2e-05,5,8
24159,-3e-05,0.00026,-0.00023,-0.00105,0.00059,0.00021,-2e-05,-2e-05,5,8
24160,-3e-05,0.00026,-0.00023,-0.00105,0.00059,0.00021,-2e-05,-2e-05,5,8
24161,-3e-05,0.00026,-0.00023,-0.00105,0.00059,0.00021,-2e-05,-2e-05,5,8
24162,-3e-05,0.00026,-0.00023,-0.00105,0.00059,0.00021,-2e-05,-2e-05,5,8
24163,-3e-05,0.00026,-0.00023,-0.00105,0.00059,0.00021,-2e-05,-2e-05,5,8
24164,-3e-05,0.00026,-0.00023,-0.00105,0.00059,0.00021,-2e-05,-2e-05,5,8
24165,-3e-05,0.00026,-0.00023,-0.00105,0.00059,0.00021,-2e-05,-2e-05,5,8
24166,-3e-05,0.00026,-0.00023,-0.00105,0.00059,0.00021,-2e-05,-2e-05,5,8
24167,-3e-05,0.00026,-0.00023,-0.00105,0.00059,0.00021,-2e-05,-2e-05,5,8
24168,-3e-05,0.00026,-0.00023,-0.00105,0.00059,0.00021,-2e-05,-2e-05,5,8
24169,-3e-05,0.00026,-0.00023,-0.00105,0.00059,0.00021,-2e-05,-2e-05,5,8
24170,-3e-05,0.00026,-0.00023,-0.00105,0.00059,0.00021,-2e-05,-2e-05,5,8
24171,-3e-05,0.00026,-0.00023,-0.00105,0.00059,0.00021,-2e-05,-2e-05,5,8
24172,-3e-05,0.00026,-0.00023,-0.00105,0.00059,0.00021,-2e-05,-2e-05,5,8
24173,-3e-05,0.00026,-0.00023,-0.00105,0.00059,0.00021,-2e-05,-2e-05,5,8
24174,2e-05,-7e-05,-0.00012,0.00108,0.0009,0.00038,6e-05,1e-05,5,8
24175,2e-05,-7e-05,-0.00012,0.00108,0.0009,0.00038,6e-05,1e-05,5,8
24176,2e-05,-7e-05,-0.00012,0.00108,0.0009,0.00038,6e-05,1e-05,5,8
24177,2e-05,-7e-05,-0.00012,0.00108,0.0009,0.00038,6e-05,1e-05,5,8
24178,2e-05,-7e-05,-0.00012,0.00108,0.0009,0.00038,6e-05,1e-05,5,8
24179,2e-05,-7e-05,-0.00012,0.00108,0.0009,0.00038,6e-05,1e-05,5,8
24180,2e-05,-7e-05,-0.00012,0.00108,0.0009,0.00038,6e-05,1e-05,5,8
24181,2e-05,-7e-05,-0.00012,0.00108,0.0009,0.00038,6e-05,1e-05,5,8
24182,2e-05,-7e-05,-0.00012,0.00108,0.0009,0.00038,6e-05,1e-05,5,8
24183,2e-05,-7e-05,-0.00012,0.00108,0.0009,0.00038,6e-05,1e-05,5,8
24184,2e-05,-7e-05,-0.00012,0.00108,0.0009,0.00038,6e-05,1e-05,5,8
24185,2e-05,-7e-05,-0.00012,0.00108,0.0009,0.00038,6e-05,1e-05,5,8
24186,2e-05,-7e-05,-0.00012,0.00108,0.0009,0.00038,6e-05,1e-05,5,8
24189,-0.00039,-0.0005,-0.0003,-0.00025,1e-05,0.00015,6e-05,-1e-05,5,8
24190,-0.00039,-0.0005,-0.0003,-0.00025,1e-05,0.00015,6e-05,-1e-05,5,8
24191,-0.00039,-0.0005,-0.0003,-0.00025,1e-05,0.00015,6e-05,-1e-05,5,8
24192,-0.00039,-0.0005,-0.0003,-0.00025,1e-05,0.00015,6e-05,-1e-05,5,8
24193,-0.00039,-0.0005,-0.0003,-0.00025,1e-05,0.00015,6e-05,-1e-05,5,8
24194,-0.00039,-0.0005,-0.0003,-0.00025,1e-05,0.00015,6e-05,-1e-05,5,8
24195,-0.00039,-0.0005,-0.0003,-0.00025,1e-05,0.00015,6e-05,-1e-05,5,8
24196,-0.00039,-0.0005,-0.0003,-0.00025,1e-05,0.00015,6e-05,-1e-05,5,8
24197,-0.00039,-0.0005,-0.0003,-0.00025,1e-05,0.00015,6e-05,-1e-05,5,8
24198,-0.00039,-0.0005,-0.0003,-0.00025,1e-05,0.00015,6e-05,-1e-05,5,8
24199,-0.00039,-0.0005,-0.0003,-0.00025,1e-05,0.00015,6e-05,-1e-05,5,8
24200,-0.00039,-0.0005,-0.0003,-0.00025,1e-05,0.00015,6e-05,-1e-05,5,8
24201,-0.00039,-0.0005,-0.0003,-0.00025,1e-05,0.00015,6e-05,-1e-05,5,8
24202,-0.00039,-0.0005,-0.0003,-0.00025,1e-05,0.00015,6e-05,-1e-05,5,8
24203,-0.00039,-0.0005,-0.0003,-0.00025,1e-05,0.00015,6e-05,-1e-05,5,8
24204,-0.00039,-0.0005,-0.0003,-0.00025,1e-05,0.00015,6e-05,-1e-05,5,8
24205,-0.00039,-0.0005,-0.0003,-0.00025,1e-05,0.00015,6e-05,-1e-05,5,8
24206,-0.00039,-0.0005,-0.0003,-0.00025,1e-05,0.00015,6e-05,-1e-05,5,8
24207,-0.00039,-0.0005,-0.0003,-0.00025,1e-05,0.00015,6e-05,-1e-05,5,8
24208,-0.00039,-0.0005,-0.0003,-0.00025,1e-05,0.00015,6e-05,-1e-05,5,8
24209,-0.00039,-0.0005,-0.0003,-0.00025,1e-05,0.00015,6e-05,-1e-05,5,8
24210,3e-05,-0.00011,-0.00053,-0.00075,-0.00092,-0.00037,-0.00011,-6e-05,5,8
24211,6e-05,3e-05,0.0001,0.00037,-0.00032,-0.00034,-0.00021,-5e-05,5,8
24212,6e-05,3e-05,0.0001,0.00037,-0.00032,-0.00034,-0.00021,-5e-05,5,8
24213,6e-05,3e-05,0.0001,0.00037,-0.00032,-0.00034,-0.00021,-5e-05,5,8
24214,6e-05,3e-05,0.0001,0.00037,-0.00032,-0.00034,-0.00021,-5e-05,5,8
24215,6e-05,3e-05,0.0001,0.00037,-0.00032,-0.00034,-0.00021,-5e-05,5,8
24216,6e-05,3e-05,0.0001,0.00037,-0.00032,-0.00034,-0.00021,-5e-05,5,8
24217,6e-05,3e-05,0.0001,0.00037,-0.00032,-0.00034,-0.00021,-5e-05,5,8
24218,6e-05,3e-05,0.0001,0.00037,-0.00032,-0.00034,-0.00021,-5e-05,5,8
24219,6e-05,3e-05,0.0001,0.00037,-0.00032,-0.00034,-0.00021,-5e-05,5,8
24220,6e-05,3e-05,0.0001,0.00037,-0.00032,-0.00034,-0.00021,-5e-05,5,8
24221,6e-05,3e-05,0.0001,0.00037,-0.00032,-0.00034,-0.00021,-5e-05,5,8
24222,6e-05,3e-05,0.0001,0.00037,-0.00032,-0.00034,-0.00021,-5e-05,5,8
24223,6e-05,3e-05,0.0001,0.00037,-0.00032,-0.00034,-0.00021,-5e-05,5,8
24224,6e-05,3e-05,0.0001,0.00037,-0.00032,-0.00034,-0.00021,-5e-05,5,8
24225,6e-05,3e-05,0.0001,0.00037,-0.00032,-0.00034,-0.00021,-5e-05,5,8
24226,6e-05,3e-05,0.0001,0.00037,-0.00032,-0.00034,-0.00021,-5e-05,5,8
24227,6e-05,3e-05,0.0001,0.00037,-0.00032,-0.00034,-0.00021,-5e-05,5,8
24228,6e-05,3e-05,0.0001,0.00037,-0.00032,-0.00034,-0.00021,-5e-05,5,8
24229,6e-05,3e-05,0.0001,0.00037,-0.00032,-0.00034,-0.00021,-5e-05,5,8
24230,6e-05,3e-05,0.0001,0.00037,-0.00032,-0.00034,-0.00021,-5e-05,5,8
24231,6e-05,3e-05,0.0001,0.00037,-0.00032,-0.00034,-0.00021,-5e-05,5,8
24232,6e-05,3e-05,0.0001,0.00037,-0.00032,-0.00034,-0.00021,-5e-05,5,8
24233,6e-05,3e-05,0.0001,0.00037,-0.00032,-0.00034,-0.00021,-5e-05,5,8
24234,0.00015,0.0002,0.00037,0.00045,-0.00043,-0.00037,-0.00012,-3e-05,5,8
24235,0.00015,0.0002,0.00037,0.00045,-0.00043,-0.00037,-0.00012,-3e-05,5,8
24236,0.00015,0.0002,0.00037,0.00045,-0.00043,-0.00037,-0.00012,-3e-05,5,8
24239,0.00015,0.0002,0.00037,0.00045,-0.00043,-0.00037,-0.00012,-3e-05,5,8
24240,0.00015,0.0002,0.00037,0.00045,-0.00043,-0.00037,-0.00012,-3e-05,5,8
24241,0.00015,0.0002,0.00037,0.00045,-0.00043,-0.00037,-0.00012,-3e-05,5,8
24242,0.00015,0.0002,0.00037,0.00045,-0.00043,-0.00037,-0.00012,-3e-05,5,8
24243,0.00015,0.0002,0.00037,0.00045,-0.00043,-0.00037,-0.00012,-3e-05,5,8
24244,0.00015,0.0002,0.00037,0.00045,-0.00043,-0.00037,-0.00012,-3e-05,5,8
24245,0.00015,0.0002,0.00037,0.00045,-0.00043,-0.00037,-0.00012,-3e-05,5,8
24246,0.00015,0.0002,0.00037,0.00045,-0.00043,-0.00037,-0.00012,-3e-05,5,8
24247,0.00015,0.0002,0.00037,0.00045,-0.00043,-0.00037,-0.00012,-3e-05,5,8
24248,0,-0.00012,3e-05,-0.00018,-0.00067,-0.00027,0.00016,0,5,8
24249,2e-05,-0.00018,0.0002,-3e-05,0.00016,0.00016,-5e-05,-1e-05,5,8
24250,2e-05,-0.00018,0.0002,-3e-05,0.00016,0.00016,-5e-05,-1e-05,5,8
24251,2e-05,-0.00018,0.0002,-3e-05,0.00016,0.00016,-5e-05,-1e-05,5,8
24252,2e-05,-0.00018,0.0002,-3e-05,0.00016,0.00016,-5e-05,-1e-05,5,8
24253,2e-05,-0.00018,0.0002,-3e-05,0.00016,0.00016,-5e-05,-1e-05,5,8
24254,2e-05,-0.00018,0.0002,-3e-05,0.00016,0.00016,-5e-05,-1e-05,5,8
24255,2e-05,-0.00018,0.0002,-3e-05,0.00016,0.00016,-5e-05,-1e-05,5,8
24256,2e-05,-0.00018,0.0002,-3e-05,0.00016,0.00016,-5e-05,-1e-05,5,8
24257,2e-05,-0.00018,0.0002,-3e-05,0.00016,0.00016,-5e-05,-1e-05,5,8
24258,2e-05,-0.00018,0.0002,-3e-05,0.00016,0.00016,-5e-05,-1e-05,5,8
24259,2e-05,-0.00018,0.0002,-3e-05,0.00016,0.00016,-5e-05,-1e-05,5,8
24260,2e-05,-0.00018,0.0002,-3e-05,0.00016,0.00016,-5e-05,-1e-05,5,8
24261,2e-05,-0.00018,0.0002,-3e-05,0.00016,0.00016,-5e-05,-1e-05,5,8
24262,2e-05,-0.00018,0.0002,-3e-05,0.00016,0.00016,-5e-05,-1e-05,5,8
24263,2e-05,-0.00018,0.0002,-3e-05,0.00016,0.00016,-5e-05,-1e-05,5,8
24264,2e-05,-0.00018,0.0002,-3e-05,0.00016,0.00016,-5e-05,-1e-05,5,8
24265,2e-05,-0.00018,0.0002,-3e-05,0.00016,0.00016,-5e-05,-1e-05,5,8
24266,2e-05,-0.00018,0.0002,-3e-05,0.00016,0.00016,-5e-05,-1e-05,5,8
24267,2e-05,-0.00018,0.0002,-3e-05,0.00016,0.00016,-5e-05,-1e-05,5,8
24268,2e-05,-0.00018,0.0002,-3e-05,0.00016,0.00016,-5e-05,-1e-05,5,8
24269,2e-05,-0.00018,0.0002,-3e-05,0.00016,0.00016,-5e-05,-1e-05,5,8
24270,2e-05,-0.00018,0.0002,-3e-05,0.00016,0.00016,-5e-05,-1e-05,5,8
24271,2e-05,-0.00018,0.0002,-3e-05,0.00016,0.00016,-5e-05,-1e-05,5,8
24272,2e-05,-0.00018,0.0002,-3e-05,0.00016,0.00016,-5e-05,-1e-05,5,8
24273,2e-05,-0.00018,0.0002,-3e-05,0.00016,0.00016,-5e-05,-1e-05,5,8
24274,2e-05,-0.00018,0.0002,-3e-05,0.00016,0.00016,-5e-05,-1e-05,5,8
24275,2e-05,-0.00018,0.0002,-3e-05,0.00016,0.00016,-5e-05,-1e-05,5,8
24276,2e-05,-0.00018,0.0002,-3e-05,0.00016,0.00016,-5e-05,-1e-05,5,8
24277,2e-05,-0.00018,0.0002,-3e-05,0.00016,0.00016,-5e-05,-1e-05,5,8
24278,2e-05,-0.00018,0.0002,-3e-05,0.00016,0.00016,-5e-05,-1e-05,5,8
24279,-8e-05,-4e-05,-0.00013,0.00072,-0.0002,-6e-05,-1e-05,-2e-05,5,8
24280,-8e-05,-4e-05,-0.00013,0.00072,-0.0002,-6e-05,-1e-05,-2e-05,5,8
24281,-8e-05,-4e-05,-0.00013,0.00072,-0.0002,-6e-05,-1e-05,-2e-05,5,8
24282,-8e-05,-4e-05,-0.00013,0.00072,-0.0002,-6e-05,-1e-05,-2e-05,5,8
24283,-8e-05,-4e-05,-0.00013,0.00072,-0.0002,-6e-05,-1e-05,-2e-05,5,8
24284,-8e-05,-4e-05,-0.00013,0.00072,-0.0002,-6e-05,-1e-05,-2e-05,5,8
24285,-8e-05,-4e-05,-0.00013,0.00072,-0.0002,-6e-05,-1e-05,-2e-05,5,8
24286,-8e-05,-4e-05,-0.00013,0.00072,-0.0002,-6e-05,-1e-05,-2e-05,5,8
24289,-8e-05,-4e-05,-0.00013,0.00072,-0.0002,-6e-05,-1e-05,-2e-05,5,8
24290,-8e-05,-4e-05,-0.00013,0.00072,-0.0002,-6e-05,-1e-05,-2e-05,5,8
24291,-8e-05,-4e-05,-0.00013,0.00072,-0.0002,-6e-05,-1e-05,-2e-05,5,8
24292,-8e-05,-4e-05,-0.00013,0.00072,-0.0002,-6e-05,-1e-05,-2e-05,5,8
24293,-8e-05,-4e-05,-0.00013,0.00072,-0.0002,-6e-05,-1e-05,-2e-05,5,8
24294,9e-05,-0.00016,-3e-05,-0.00068,-4e-05,-0.00013,3e-05,2e-05,5,8
24295,9e-05,-0.00016,-3e-05,-0.00068,-4e-05,-0.00013,3e-05,2e-05,5,8
24296,9e-05,-0.00016,-3e-05,-0.00068,-4e-05,-0.00013,3e-05,2e-05,5,8
24297,9e-05,-0.00016,-3e-05,-0.00068,-4e-05,-0.00013,3e-05,2e-05,5,8
24298,9e-05,-0.00016,-3e-05,-0.00068,-4e-05,-0.00013,3e-05,2e-05,5,8
24299,9e-05,-0.00016,-3e-05,-0.00068,-4e-05,-0.00013,3e-05,2e-05,5,8
24300,9e-05,-0.00016,-3e-05,-0.00068,-4e-05,-0.00013,3e-05,2e-05,5,8
24301,9e-05,-0.00016,-3e-05,-0.00068,-4e-05,-0.00013,3e-05,2e-05,5,8
24302,9e-05,-0.00016,-3e-05,-0.00068,-4e-05,-0.00013,3e-05,2e-05,5,8
24303,9e-05,-0.00016,-3e-05,-0.00068,-4e-05,-0.00013,3e-05,2e-05,5,8
24304,9e-05,-0.00016,-3e-05,-0.00068,-4e-05,-0.00013,3e-05,2e-05,5,8
24305,9e-05,-0.00016,-3e-05,-0.00068,-4e-05,-0.00013,3e-05,2e-05,5,8
24306,9e-05,-0.00016,-3e-05,-0.00068,-4e-05,-0.00013,3e-05,2e-05,5,8
24307,2e-05,0.00048,2e-05,0.00013,0.00015,8e-05,-3e-05,0,5,8
24308,2e-05,0.00048,2e-05,0.00013,0.00015,8e-05,-3e-05,0,5,8
24309,2e-05,0.00048,2e-05,0.00013,0.00015,8e-05,-3e-05,0,5,8
24310,2e-05,0.00048,2e-05,0.00013,0.00015,8e-05,-3e-05,0,5,8
24311,2e-05,0.00048,2e-05,0.00013,0.00015,8e-05,-3e-05,0,5,8
24312,2e-05,0.00048,2e-05,0.00013,0.00015,8e-05,-3e-05,0,5,8
24313,2e-05,0.00048,2e-05,0.00013,0.00015,8e-05,-3e-05,0,5,8
24314,2e-05,0.00048,2e-05,0.00013,0.00015,8e-05,-3e-05,0,5,8
24315,-1e-05,-0.00025,-0.00019,-0.00052,-0.00039,-7e-05,-0.00014,-6e-05,5,8
24316,-1e-05,-0.00025,-0.00019,-0.00052,-0.00039,-7e-05,-0.00014,-6e-05,5,8
24317,-1e-05,-0.00025,-0.00019,-0.00052,-0.00039,-7e-05,-0.00014,-6e-05,5,8
24318,-1e-05,-0.00025,-0.00019,-0.00052,-0.00039,-7e-05,-0.00014,-6e-05,5,8
24319,-1e-05,-0.00025,-0.00019,-0.00052,-0.00039,-7e-05,-0.00014,-6e-05,5,8
24320,-1e-05,-0.00025,-0.00019,-0.00052,-0.00039,-7e-05,-0.00014,-6e-05,5,8
24321,-1e-05,-0.00025,-0.00019,-0.00052,-0.00039,-7e-05,-0.00014,-6e-05,5,8
24322,-1e-05,-0.00025,-0.00019,-0.00052,-0.00039,-7e-05,-0.00014,-6e-05,5,8
24323,-1e-05,-0.00025,-0.00019,-0.00052,-0.00039,-7e-05,-0.00014,-6e-05,5,8
24324,-1e-05,-0.00025,-0.00019,-0.00052,-0.00039,-7e-05,-0.00014,-6e-05,5,8
24325,-1e-05,-0.00025,-0.00019,-0.00052,-0.00039,-7e-05,-0.00014,-6e-05,5,8
24326,-1e-05,-0.00025,-0.00019,-0.00052,-0.00039,-7e-05,-0.00014,-6e-05,5,8
24327,-1e-05,-0.00025,-0.00019,-0.00052,-0.00039,-7e-05,-0.00014,-6e-05,5,8
24328,-1e-05,-0.00025,-0.00019,-0.00052,-0.00039,-7e-05,-0.00014,-6e-05,5,8
24329,-1e-05,-0.00025,-0.00019,-0.00052,-0.00039,-7e-05,-0.00014,-6e-05,5,8
24330,-1e-05,-0.00025,-0.00019,-0.00052,-0.00039,-7e-05,-0.00014,-6e-05,5,8
24331,-1e-05,-0.00025,-0.00019,-0.00052,-0.00039,-7e-05,-0.00014,-6e-05,5,8
24332,-0.00018,-5e-05,-8e-05,0.00044,0.00039,-0.00014,7e-05,-2e-05,5,8
24333,0.00012,0.00018,0.00066,0.00058,-0.00025,-0.00015,5e-05,0.0001,5,8
24334,0.00012,0.00018,0.00066,0.00058,-0.00025,-0.00015,5e-05,0.0001,5,8
24335,0.00012,0.00018,0.00066,0.00058,-0.00025,-0.00015,5e-05,0.0001,5,8
24336,0.00012,0.00018,0.00066,0.00058,-0.00025,-0.00015,5e-05,0.0001,5,8
24339,0.00012,0.00018,0.00066,0.00058,-0.00025,-0.00015,5e-05,0.0001,5,8
24340,0.00012,0.00018,0.00066,0.00058,-0.00025,-0.00015,5e-05,0.0001,5,8
24341,0.00012,0.00018,0.00066,0.00058,-0.00025,-0.00015,5e-05,0.0001,5,8
24342,0.00012,0.00018,0.00066,0.00058,-0.00025,-0.00015,5e-05,0.0001,5,8
24343,0.00012,0.00018,0.00066,0.00058,-0.00025,-0.00015,5e-05,0.0001,5,8
24344,0.00012,0.00018,0.00066,0.00058,-0.00025,-0.00015,5e-05,0.0001,5,8
24345,0.00012,0.00018,0.00066,0.00058,-0.00025,-0.00015,5e-05,0.0001,5,8
24346,0.00012,0.00018,0.00066,0.00058,-0.00025,-0.00015,5e-05,0.0001,5,8
24347,0.00012,0.00018,0.00066,0.00058,-0.00025,-0.00015,5e-05,0.0001,5,8
24348,0.00012,0.00018,0.00066,0.00058,-0.00025,-0.00015,5e-05,0.0001,5,8
24349,0.00012,0.00018,0.00066,0.00058,-0.00025,-0.00015,5e-05,0.0001,5,8
24350,0.00012,0.00018,0.00066,0.00058,-0.00025,-0.00015,5e-05,0.0001,5,8
24351,0.00012,0.00018,0.00066,0.00058,-0.00025,-0.00015,5e-05,0.0001,5,8
24352,0.00012,0.00018,0.00066,0.00058,-0.00025,-0.00015,5e-05,0.0001,5,8
24353,0.00012,0.00018,0.00066,0.00058,-0.00025,-0.00015,5e-05,0.0001,5,8
24354,1e-05,-1e-05,-1e-05,0.00065,0.00071,4e-05,-1e-05,-5e-05,5,8
24355,1e-05,-1e-05,-1e-05,0.00065,0.00071,4e-05,-1e-05,-5e-05,5,8
24356,1e-05,-1e-05,-1e-05,0.00065,0.00071,4e-05,-1e-05,-5e-05,5,8
24357,1e-05,-1e-05,-1e-05,0.00065,0.00071,4e-05,-1e-05,-5e-05,5,8
24358,1e-05,-1e-05,-1e-05,0.00065,0.00071,4e-05,-1e-05,-5e-05,5,8
24359,1e-05,-1e-05,-1e-05,0.00065,0.00071,4e-05,-1e-05,-5e-05,5,8
24360,1e-05,-1e-05,-1e-05,0.00065,0.00071,4e-05,-1e-05,-5e-05,5,8
24361,1e-05,-1e-05,-1e-05,0.00065,0.00071,4e-05,-1e-05,-5e-05,5,8
24362,1e-05,-1e-05,-1e-05,0.00065,0.00071,4e-05,-1e-05,-5e-05,5,8
24363,1e-05,-1e-05,-1e-05,0.00065,0.00071,4e-05,-1e-05,-5e-05,5,8
24364,1e-05,-1e-05,-1e-05,0.00065,0.00071,4e-05,-1e-05,-5e-05,5,8
24365,1e-05,-1e-05,-1e-05,0.00065,0.00071,4e-05,-1e-05,-5e-05,5,8
24366,1e-05,-1e-05,-1e-05,0.00065,0.00071,4e-05,-1e-05,-5e-05,5,8
24367,0.0002,0.00015,0.00039,-0.00024,-0.00024,0.0003,1e-05,4e-05,5,8
24368,0.0002,0.00015,0.00039,-0.00024,-0.00024,0.0003,1e-05,4e-05,5,8
24369,0.0002,0.00015,0.00039,-0.00024,-0.00024,0.0003,1e-05,4e-05,5,8
24370,0.0002,0.00015,0.00039,-0.00024,-0.00024,0.0003,1e-05,4e-05,5,8
24371,0.0002,0.00015,0.00039,-0.00024,-0.00024,0.0003,1e-05,4e-05,5,8
24372,0.0002,0.00015,0.00039,-0.00024,-0.00024,0.0003,1e-05,4e-05,5,8
24373,0.0002,0.00015,0.00039,-0.00024,-0.00024,0.0003,1e-05,4e-05,5,8
24374,0.0002,0.00015,0.00039,-0.00024,-0.00024,0.0003,1e-05,4e-05,5,8
24375,4e-05,0.00017,-0.0001,-0.00066,0.00022,0.00011,-1e-05,2e-05,5,8
24376,4e-05,0.00017,-0.0001,-0.00066,0.00022,0.00011,-1e-05,2e-05,5,8
24377,4e-05,0.00017,-0.0001,-0.00066,0.00022,0.00011,-1e-05,2e-05,5,8
24379,4e-05,0.00017,-0.0001,-0.00066,0.00022,0.00011,-1e-05,2e-05,5,8
24380,4e-05,0.00017,-0.0001,-0.00066,0.00022,0.00011,-1e-05,2e-05,5,8
24381,4e-05,0.00017,-0.0001,-0.00066,0.00022,0.00011,-1e-05,2e-05,5,8
24382,4e-05,0.00017,-0.0001,-0.00066,0.00022,0.00011,-1e-05,2e-05,5,8
24383,4e-05,0.00017,-0.0001,-0.00066,0.00022,0.00011,-1e-05,2e-05,5,8
24384,4e-05,0.00017,-0.0001,-0.00066,0.00022,0.00011,-1e-05,2e-05,5,8
24385,4e-05,0.00017,-0.0001,-0.00066,0.00022,0.00011,-1e-05,2e-05,5,8
24386,4e-05,0.00017,-0.0001,-0.00066,0.00022,0.00011,-1e-05,2e-05,5,8
24388,4e-05,0.00017,-0.0001,-0.00066,0.00022,0.00011,-1e-05,2e-05,5,8
24389,4e-05,0.00017,-0.0001,-0.00066,0.00022,0.00011,-1e-05,2e-05,5,8
24390,3e-05,-1e-05,-0.00033,-0.00059,0.00086,0.00026,0.00015,6e-05,5,8
24391,-6e-05,4e-05,-0.00013,-0.00036,-0.00038,0.00016,-0.00011,-9e-05,5,8
24392,-6e-05,4e-05,-0.00013,-0.00036,-0.00038,0.00016,-0.00011,-9e-05,5,8
24393,-6e-05,4e-05,-0.00013,-0.00036,-0.00038,0.00016,-0.00011,-9e-05,5,8
24394,-6e-05,4e-05,-0.00013,-0.00036,-0.00038,0.00016,-0.00011,-9e-05,5,8
24395,-6e-05,4e-05,-0.00013,-0.00036,-0.00038,0.00016,-0.00011,-9e-05,5,8
24396,-6e-05,4e-05,-0.00013,-0.00036,-0.00038,0.00016,-0.00011,-9e-05,5,8
24397,-6e-05,4e-05,-0.00013,-0.00036,-0.00038,0.00016,-0.00011,-9e-05,5,8
24398,-6e-05,4e-05,-0.00013,-0.00036,-0.00038,0.00016,-0.00011,-9e-05,5,8
24399,-6e-05,4e-05,-0.00013,-0.00036,-0.00038,0.00016,-0.00011,-9e-05,5,8
24400,-6e-05,4e-05,-0.00013,-0.00036,-0.00038,0.00016,-0.00011,-9e-05,5,8
24401,-6e-05,4e-05,-0.00013,-0.00036,-0.00038,0.00016,-0.00011,-9e-05,5,8
24402,-6e-05,4e-05,-0.00013,-0.00036,-0.00038,0.00016,-0.00011,-9e-05,5,8
24403,-6e-05,4e-05,-0.00013,-0.00036,-0.00038,0.00016,-0.00011,-9e-05,5,8
24404,-6e-05,4e-05,-0.00013,-0.00036,-0.00038,0.00016,-0.00011,-9e-05,5,8
24405,-6e-05,4e-05,-0.00013,-0.00036,-0.00038,0.00016,-0.00011,-9e-05,5,8
24406,-6e-05,4e-05,-0.00013,-0.00036,-0.00038,0.00016,-0.00011,-9e-05,5,8
24407,-6e-05,4e-05,-0.00013,-0.00036,-0.00038,0.00016,-0.00011,-9e-05,5,8
24408,-6e-05,4e-05,-0.00013,-0.00036,-0.00038,0.00016,-0.00011,-9e-05,5,8
24409,-6e-05,4e-05,-0.00013,-0.00036,-0.00038,0.00016,-0.00011,-9e-05,5,8
24410,-6e-05,4e-05,-0.00013,-0.00036,-0.00038,0.00016,-0.00011,-9e-05,5,8
24411,-6e-05,4e-05,-0.00013,-0.00036,-0.00038,0.00016,-0.00011,-9e-05,5,8
24412,-6e-05,4e-05,-0.00013,-0.00036,-0.00038,0.00016,-0.00011,-9e-05,5,8
24413,-6e-05,4e-05,-0.00013,-0.00036,-0.00038,0.00016,-0.00011,-9e-05,5,8
24414,-1e-05,-0.0001,-6e-05,-0.00069,-0.00045,0,3e-05,1e-05,5,8
24415,-1e-05,-0.0001,-6e-05,-0.00069,-0.00045,0,3e-05,1e-05,5,8
24416,-1e-05,-0.0001,-6e-05,-0.00069,-0.00045,0,3e-05,1e-05,5,8
24417,-1e-05,-0.0001,-6e-05,-0.00069,-0.00045,0,3e-05,1e-05,5,8
24418,-1e-05,-0.0001,-6e-05,-0.00069,-0.00045,0,3e-05,1e-05,5,8
24419,-1e-05,-0.0001,-6e-05,-0.00069,-0.00045,0,3e-05,1e-05,5,8
24420,-1e-05,-0.0001,-6e-05,-0.00069,-0.00045,0,3e-05,1e-05,5,8
24421,-1e-05,-0.0001,-6e-05,-0.00069,-0.00045,0,3e-05,1e-05,5,8
24422,-1e-05,-0.0001,-6e-05,-0.00069,-0.00045,0,3e-05,1e-05,5,8
24423,-1e-05,-0.0001,-6e-05,-0.00069,-0.00045,0,3e-05,1e-05,5,8
24424,-1e-05,-0.0001,-6e-05,-0.00069,-0.00045,0,3e-05,1e-05,5,8
24425,-1e-05,-0.0001,-6e-05,-0.00069,-0.00045,0,3e-05,1e-05,5,8
24426,-1e-05,-0.0001,-6e-05,-0.00069,-0.00045,0,3e-05,1e-05,5,8
24427,5e-05,-0.00014,0.00032,0.00094,0.00034,-0.00016,-7e-05,0,5,8
24428,5e-05,-0.00014,0.00032,0.00094,0.00034,-0.00016,-7e-05,0,5,8
24429,5e-05,-0.00014,0.00032,0.00094,0.00034,-0.00016,-7e-05,0,5,8
24430,5e-05,-0.00014,0.00032,0.00094,0.00034,-0.00016,-7e-05,0,5,8
24431,5e-05,-0.00014,0.00032,0.00094,0.00034,-0.00016,-7e-05,0,5,8
24432,5e-05,-0.00014,0.00032,0.00094,0.00034,-0.00016,-7e-05,0,5,8
24433,5e-05,-0.00014,0.00032,0.00094,0.00034,-0.00016,-7e-05,0,5,8
24434,5e-05,-0.00014,0.00032,0.00094,0.00034,-0.00016,-7e-05,0,5,8
24435,0.00011,-0.00018,0.00017,2e-05,-0.0002,-0.00016,-5e-05,-2e-05,5,8
24436,0.00011,-0.00018,0.00017,2e-05,-0.0002,-0.00016,-5e-05,-2e-05,5,8
24438,0.00011,-0.00018,0.00017,2e-05,-0.0002,-0.00016,-5e-05,-2e-05,5,8
24439,0.00011,-0.00018,0.00017,2e-05,-0.0002,-0.00016,-5e-05,-2e-05,5,8
24440,0.00011,-0.00018,0.00017,2e-05,-0.0002,-0.00016,-5e-05,-2e-05,5,8
24441,0.00011,-0.00018,0.00017,2e-05,-0.0002,-0.00016,-5e-05,-2e-05,5,8
24442,0.00011,-0.00018,0.00017,2e-05,-0.0002,-0.00016,-5e-05,-2e-05,5,8
24443,0.00011,-0.00018,0.00017,2e-05,-0.0002,-0.00016,-5e-05,-2e-05,5,8
24444,0.00011,-0.00018,0.00017,2e-05,-0.0002,-0.00016,-5e-05,-2e-05,5,8
24445,0.00011,-0.00018,0.00017,2e-05,-0.0002,-0.00016,-5e-05,-2e-05,5,8
24446,0.00011,-0.00018,0.00017,2e-05,-0.0002,-0.00016,-5e-05,-2e-05,5,8
24447,0.00011,-0.00018,0.00017,2e-05,-0.0002,-0.00016,-5e-05,-2e-05,5,8
24448,0.00011,-0.00018,0.00017,2e-05,-0.0002,-0.00016,-5e-05,-2e-05,5,8
24449,0.00011,-0.00018,0.00017,2e-05,-0.0002,-0.00016,-5e-05,-2e-05,5,8
24450,-3e-05,-0.0003,-0.00045,-0.00067,-0.00046,5e-05,6e-05,1e-05,5,8
24451,-2e-05,-0.00018,-4e-05,-0.00015,-0.00023,-7e-05,4e-05,1e-05,5,8
24452,-2e-05,-0.00018,-4e-05,-0.00015,-0.00023,-7e-05,4e-05,1e-05,5,8
24453,-2e-05,-0.00018,-4e-05,-0.00015,-0.00023,-7e-05,4e-05,1e-05,5,8
24454,-2e-05,-0.00018,-4e-05,-0.00015,-0.00023,-7e-05,4e-05,1e-05,5,8
24455,-2e-05,-0.00018,-4e-05,-0.00015,-0.00023,-7e-05,4e-05,1e-05,5,8
24456,-2e-05,-0.00018,-4e-05,-0.00015,-0.00023,-7e-05,4e-05,1e-05,5,8
24457,-2e-05,-0.00018,-4e-05,-0.00015,-0.00023,-7e-05,4e-05,1e-05,5,8
24458,-2e-05,-0.00018,-4e-05,-0.00015,-0.00023,-7e-05,4e-05,1e-05,5,8
24459,-2e-05,-0.00018,-4e-05,-0.00015,-0.00023,-7e-05,4e-05,1e-05,5,8
24460,-2e-05,-0.00018,-4e-05,-0.00015,-0.00023,-7e-05,4e-05,1e-05,5,8
24461,-2e-05,-0.00018,-4e-05,-0.00015,-0.00023,-7e-05,4e-05,1e-05,5,8
24462,-2e-05,-0.00018,-4e-05,-0.00015,-0.00023,-7e-05,4e-05,1e-05,5,8
24463,-2e-05,-0.00018,-4e-05,-0.00015,-0.00023,-7e-05,4e-05,1e-05,5,8
24464,-2e-05,-0.00018,-4e-05,-0.00015,-0.00023,-7e-05,4e-05,1e-05,5,8
24465,-2e-05,-0.00018,-4e-05,-0.00015,-0.00023,-7e-05,4e-05,1e-05,5,8
24466,-2e-05,-0.00018,-4e-05,-0.00015,-0.00023,-7e-05,4e-05,1e-05,5,8
24467,-2e-05,-0.00018,-4e-05,-0.00015,-0.00023,-7e-05,4e-05,1e-05,5,8
24468,-2e-05,-0.00018,-4e-05,-0.00015,-0.00023,-7e-05,4e-05,1e-05,5,8
24469,-2e-05,-0.00018,-4e-05,-0.00015,-0.00023,-7e-05,4e-05,1e-05,5,8
24470,-2e-05,-0.00018,-4e-05,-0.00015,-0.00023,-7e-05,4e-05,1e-05,5,8
24471,-2e-05,-0.00018,-4e-05,-0.00015,-0.00023,-7e-05,4e-05,1e-05,5,8
24472,-2e-05,-0.00018,-4e-05,-0.00015,-0.00023,-7e-05,4e-05,1e-05,5,8
24473,-2e-05,-0.00018,-4e-05,-0.00015,-0.00023,-7e-05,4e-05,1e-05,5,8
24474,-0.00021,4e-05,-0.0003,-0.00049,-0.00028,-0.00048,0.00023,-4e-05,5,8
24475,-0.00021,4e-05,-0.0003,-0.00049,-0.00028,-0.00048,0.00023,-4e-05,5,8
24476,-0.00021,4e-05,-0.0003,-0.00049,-0.00028,-0.00048,0.00023,-4e-05,5,8
24477,-0.00021,4e-05,-0.0003,-0.00049,-0.00028,-0.00048,0.00023,-4e-05,5,8
24478,-0.00021,4e-05,-0.0003,-0.00049,-0.00028,-0.00048,0.00023,-4e-05,5,8
24479,-0.00021,4e-05,-0.0003,-0.00049,-0.00028,-0.00048,0.00023,-4e-05,5,8
24480,-0.00021,4e-05,-0.0003,-0.00049,-0.00028,-0.00048,0.00023,-4e-05,5,8
24481,-0.00021,4e-05,-0.0003,-0.00049,-0.00028,-0.00048,0.00023,-4e-05,5,8
24482,-0.00021,4e-05,-0.0003,-0.00049,-0.00028,-0.00048,0.00023,-4e-05,5,8
24483,-0.00021,4e-05,-0.0003,-0.00049,-0.00028,-0.00048,0.00023,-4e-05,5,8
24484,-0.00021,4e-05,-0.0003,-0.00049,-0.00028,-0.00048,0.00023,-4e-05,5,8
24485,-0.00021,4e-05,-0.0003,-0.00049,-0.00028,-0.00048,0.00023,-4e-05,5,8
24486,-0.00021,4e-05,-0.0003,-0.00049,-0.00028,-0.00048,0.00023,-4e-05,5,8
24489,0.00017,4e-05,0.00046,0.00012,-0.00034,0,-0.0001,0,5,8
24490,0.00017,4e-05,0.00046,0.00012,-0.00034,0,-0.0001,0,5,8
24491,0.00017,4e-05,0.00046,0.00012,-0.00034,0,-0.0001,0,5,8
24492,0.00017,4e-05,0.00046,0.00012,-0.00034,0,-0.0001,0,5,8
24493,0.00017,4e-05,0.00046,0.00012,-0.00034,0,-0.0001,0,5,8
24494,0.00017,4e-05,0.00046,0.00012,-0.00034,0,-0.0001,0,5,8
24495,-4e-05,3e-05,-0.00044,0.00046,0.00047,0.00032,-0.00019,-8e-05,5,8
24496,-4e-05,3e-05,-0.00044,0.00046,0.00047,0.00032,-0.00019,-8e-05,5,8
24497,-4e-05,3e-05,-0.00044,0.00046,0.00047,0.00032,-0.00019,-8e-05,5,8
24498,-4e-05,3e-05,-0.00044,0.00046,0.00047,0.00032,-0.00019,-8e-05,5,8
24499,-4e-05,3e-05,-0.00044,0.00046,0.00047,0.00032,-0.00019,-8e-05,5,8
24500,-4e-05,3e-05,-0.00044,0.00046,0.00047,0.00032,-0.00019,-8e-05,5,8
24501,-4e-05,3e-05,-0.00044,0.00046,0.00047,0.00032,-0.00019,-8e-05,5,8
24502,-4e-05,3e-05,-0.00044,0.00046,0.00047,0.00032,-0.00019,-8e-05,5,8
24503,-4e-05,3e-05,-0.00044,0.00046,0.00047,0.00032,-0.00019,-8e-05,5,8
24504,-4e-05,3e-05,-0.00044,0.00046,0.00047,0.00032,-0.00019,-8e-05,5,8
24505,-4e-05,3e-05,-0.00044,0.00046,0.00047,0.00032,-0.00019,-8e-05,5,8
24506,-4e-05,3e-05,-0.00044,0.00046,0.00047,0.00032,-0.00019,-8e-05,5,8
24507,-4e-05,3e-05,-0.00044,0.00046,0.00047,0.00032,-0.00019,-8e-05,5,8
24508,-4e-05,3e-05,-0.00044,0.00046,0.00047,0.00032,-0.00019,-8e-05,5,8
24509,-4e-05,3e-05,-0.00044,0.00046,0.00047,0.00032,-0.00019,-8e-05,5,8
24510,0.0001,0.0002,0.0003,-0.00075,-0.00062,-0.00028,7e-05,5e-05,5,8
24511,0.00011,-0.00012,-0.00012,4e-05,0.00055,0.00013,-5e-05,2e-05,5,8
24512,0.00011,-0.00012,-0.00012,4e-05,0.00055,0.00013,-5e-05,2e-05,5,8
24513,0.00011,-0.00012,-0.00012,4e-05,0.00055,0.00013,-5e-05,2e-05,5,8
24514,0.00011,-0.00012,-0.00012,4e-05,0.00055,0.00013,-5e-05,2e-05,5,8
24515,0.00011,-0.00012,-0.00012,4e-05,0.00055,0.00013,-5e-05,2e-05,5,8
24516,0.00011,-0.00012,-0.00012,4e-05,0.00055,0.00013,-5e-05,2e-05,5,8
24517,0.00011,-0.00012,-0.00012,4e-05,0.00055,0.00013,-5e-05,2e-05,5,8
24518,0.00011,-0.00012,-0.00012,4e-05,0.00055,0.00013,-5e-05,2e-05,5,8
24519,0.00011,-0.00012,-0.00012,4e-05,0.00055,0.00013,-5e-05,2e-05,5,8
24520,0.00011,-0.00012,-0.00012,4e-05,0.00055,0.00013,-5e-05,2e-05,5,8
24521,0.00011,-0.00012,-0.00012,4e-05,0.00055,0.00013,-5e-05,2e-05,5,8
24522,0.00011,-0.00012,-0.00012,4e-05,0.00055,0.00013,-5e-05,2e-05,5,8
24523,0.00011,-0.00012,-0.00012,4e-05,0.00055,0.00013,-5e-05,2e-05,5,8
24524,0.00011,-0.00012,-0.00012,4e-05,0.00055,0.00013,-5e-05,2e-05,5,8
24525,0.00011,-0.00012,-0.00012,4e-05,0.00055,0.00013,-5e-05,2e-05,5,8
24526,0.00011,-0.00012,-0.00012,4e-05,0.00055,0.00013,-5e-05,2e-05,5,8
24527,0.00011,-0.00012,-0.00012,4e-05,0.00055,0.00013,-5e-05,2e-05,5,8
24528,0.00011,-0.00012,-0.00012,4e-05,0.00055,0.00013,-5e-05,2e-05,5,8
24529,0.00011,-0.00012,-0.00012,4e-05,0.00055,0.00013,-5e-05,2e-05,5,8
24530,0.00011,-0.00012,-0.00012,4e-05,0.00055,0.00013,-5e-05,2e-05,5,8
24531,0.00011,-0.00012,-0.00012,4e-05,0.00055,0.00013,-5e-05,2e-05,5,8
24532,0.00011,-0.00012,-0.00012,4e-05,0.00055,0.00013,-5e-05,2e-05,5,8
24533,0.00011,-0.00012,-0.00012,4e-05,0.00055,0.00013,-5e-05,2e-05,5,8
24534,0,-0.00019,0.00038,-8e-05,-0.0005,0.00011,2e-05,0,5,8
24535,0,-0.00019,0.00038,-8e-05,-0.0005,0.00011,2e-05,0,5,8
24536,0,-0.00019,0.00038,-8e-05,-0.0005,0.00011,2e-05,0,5,8
24538,0,-0.00019,0.00038,-8e-05,-0.0005,0.00011,2e-05,0,5,8
24539,0,-0.00019,0.00038,-8e-05,-0.0005,0.00011,2e-05,0,5,8
24540,0,-0.00019,0.00038,-8e-05,-0.0005,0.00011,2e-05,0,5,8
24541,0,-0.00019,0.00038,-8e-05,-0.0005,0.00011,2e-05,0,5,8
24542,0,-0.00019,0.00038,-8e-05,-0.0005,0.00011,2e-05,0,5,8
24543,0,-0.00019,0.00038,-8e-05,-0.0005,0.00011,2e-05,0,5,8
24544,0,-0.00019,0.00038,-8e-05,-0.0005,0.00011,2e-05,0,5,8
24545,0,-0.00019,0.00038,-8e-05,-0.0005,0.00011,2e-05,0,5,8
24546,0,-0.00019,0.00038,-8e-05,-0.0005,0.00011,2e-05,0,5,8
24547,3e-05,1e-05,-7e-05,-0.00078,-0.00053,-0.00023,-3e-05,2e-05,5,8
24548,3e-05,1e-05,-7e-05,-0.00078,-0.00053,-0.00023,-3e-05,2e-05,5,8
24549,3e-05,1e-05,-7e-05,-0.00078,-0.00053,-0.00023,-3e-05,2e-05,5,8
24550,3e-05,1e-05,-7e-05,-0.00078,-0.00053,-0.00023,-3e-05,2e-05,5,8
24551,3e-05,1e-05,-7e-05,-0.00078,-0.00053,-0.00023,-3e-05,2e-05,5,8
24552,3e-05,1e-05,-7e-05,-0.00078,-0.00053,-0.00023,-3e-05,2e-05,5,8
24553,3e-05,1e-05,-7e-05,-0.00078,-0.00053,-0.00023,-3e-05,2e-05,5,8
24554,3e-05,1e-05,-7e-05,-0.00078,-0.00053,-0.00023,-3e-05,2e-05,5,8
24555,-7e-05,7e-05,-0.00037,-0.00029,0.00059,0.00022,-0.0001,-6e-05,5,8
24556,-7e-05,7e-05,-0.00037,-0.00029,0.00059,0.00022,-0.0001,-6e-05,5,8
24557,-7e-05,7e-05,-0.00037,-0.00029,0.00059,0.00022,-0.0001,-6e-05,5,8
24558,-7e-05,7e-05,-0.00037,-0.00029,0.00059,0.00022,-0.0001,-6e-05,5,8
24559,-7e-05,7e-05,-0.00037,-0.00029,0.00059,0.00022,-0.0001,-6e-05,5,8
24560,-7e-05,7e-05,-0.00037,-0.00029,0.00059,0.00022,-0.0001,-6e-05,5,8
24561,-7e-05,7e-05,-0.00037,-0.00029,0.00059,0.00022,-0.0001,-6e-05,5,8
24562,-7e-05,7e-05,-0.00037,-0.00029,0.00059,0.00022,-0.0001,-6e-05,5,8
24563,-7e-05,7e-05,-0.00037,-0.00029,0.00059,0.00022,-0.0001,-6e-05,5,8
24564,-7e-05,7e-05,-0.00037,-0.00029,0.00059,0.00022,-0.0001,-6e-05,5,8
24565,-7e-05,7e-05,-0.00037,-0.00029,0.00059,0.00022,-0.0001,-6e-05,5,8
24566,-7e-05,7e-05,-0.00037,-0.00029,0.00059,0.00022,-0.0001,-6e-05,5,8
24567,-7e-05,7e-05,-0.00037,-0.00029,0.00059,0.00022,-0.0001,-6e-05,5,8
24568,-7e-05,7e-05,-0.00037,-0.00029,0.00059,0.00022,-0.0001,-6e-05,5,8
24569,-7e-05,7e-05,-0.00037,-0.00029,0.00059,0.00022,-0.0001,-6e-05,5,8
24570,0.00015,-9e-05,0.00016,8e-05,-0.00028,9e-05,-9e-05,4e-05,5,8
24571,0.00023,0.0001,0.00026,-0.00032,0.00037,6e-05,9e-05,9e-05,5,8
24572,0.00023,0.0001,0.00026,-0.00032,0.00037,6e-05,9e-05,9e-05,5,8
24573,0.00023,0.0001,0.00026,-0.00032,0.00037,6e-05,9e-05,9e-05,5,8
24574,0.00023,0.0001,0.00026,-0.00032,0.00037,6e-05,9e-05,9e-05,5,8
24575,0.00023,0.0001,0.00026,-0.00032,0.00037,6e-05,9e-05,9e-05,5,8
24576,0.00023,0.0001,0.00026,-0.00032,0.00037,6e-05,9e-05,9e-05,5,8
24577,0.00023,0.0001,0.00026,-0.00032,0.00037,6e-05,9e-05,9e-05,5,8
24578,0.00023,0.0001,0.00026,-0.00032,0.00037,6e-05,9e-05,9e-05,5,8
24579,0.00023,0.0001,0.00026,-0.00032,0.00037,6e-05,9e-05,9e-05,5,8
24580,0.00023,0.0001,0.00026,-0.00032,0.00037,6e-05,9e-05,9e-05,5,8
24581,0.00023,0.0001,0.00026,-0.00032,0.00037,6e-05,9e-05,9e-05,5,8
24582,0.00023,0.0001,0.00026,-0.00032,0.00037,6e-05,9e-05,9e-05,5,8
24583,0.00023,0.0001,0.00026,-0.00032,0.00037,6e-05,9e-05,9e-05,5,8
24584,0.00023,0.0001,0.00026,-0.00032,0.00037,6e-05,9e-05,9e-05,5,8
24585,0.00023,0.0001,0.00026,-0.00032,0.00037,6e-05,9e-05,9e-05,5,8
24586,0.00023,0.0001,0.00026,-0.00032,0.00037,6e-05,9e-05,9e-05,5,8
24588,0.00023,0.0001,0.00026,-0.00032,0.00037,6e-05,9e-05,9e-05,5,8
24589,0.00023,0.0001,0.00026,-0.00032,0.00037,6e-05,9e-05,9e-05,5,8
24590,0.00023,0.0001,0.00026,-0.00032,0.00037,6e-05,9e-05,9e-05,5,8
24591,0.00023,0.0001,0.00026,-0.00032,0.00037,6e-05,9e-05,9e-05,5,8
24592,0.00023,0.0001,0.00026,-0.00032,0.00037,6e-05,9e-05,9e-05,5,8
24593,0.00023,0.0001,0.00026,-0.00032,0.00037,6e-05,9e-05,9e-05,5,8
24594,-6e-05,0.00015,0.0003,0.00044,4e-05,0.00016,-0.0001,-5e-05,5,8
24595,-6e-05,0.00015,0.0003,0.00044,4e-05,0.00016,-0.0001,-5e-05,5,8
24596,-6e-05,0.00015,0.0003,0.00044,4e-05,0.00016,-0.0001,-5e-05,5,8
24597,-6e-05,0.00015,0.0003,0.00044,4e-05,0.00016,-0.0001,-5e-05,5,8
24598,-6e-05,0.00015,0.0003,0.00044,4e-05,0.00016,-0.0001,-5e-05,5,8
24599,-6e-05,0.00015,0.0003,0.00044,4e-05,0.00016,-0.0001,-5e-05,5,8
24600,-6e-05,0.00015,0.0003,0.00044,4e-05,0.00016,-0.0001,-5e-05,5,8
24601,-6e-05,0.00015,0.0003,0.00044,4e-05,0.00016,-0.0001,-5e-05,5,8
24602,-6e-05,0.00015,0.0003,0.00044,4e-05,0.00016,-0.0001,-5e-05,5,8
24603,-6e-05,0.00015,0.0003,0.00044,4e-05,0.00016,-0.0001,-5e-05,5,8
24604,-6e-05,0.00015,0.0003,0.00044,4e-05,0.00016,-0.0001,-5e-05,5,8
24605,-6e-05,0.00015,0.0003,0.00044,4e-05,0.00016,-0.0001,-5e-05,5,8
24606,-6e-05,0.00015,0.0003,0.00044,4e-05,0.00016,-0.0001,-5e-05,5,8
24607,-2e-05,-0.00017,0.00036,-0.00017,-0.00071,-9e-05,-0.00016,-5e-05,5,8
24608,-2e-05,-0.00017,0.00036,-0.00017,-0.00071,-9e-05,-0.00016,-5e-05,5,8
24609,-2e-05,-0.00017,0.00036,-0.00017,-0.00071,-9e-05,-0.00016,-5e-05,5,8
24610,-2e-05,-0.00017,0.00036,-0.00017,-0.00071,-9e-05,-0.00016,-5e-05,5,8
24611,-2e-05,-0.00017,0.00036,-0.00017,-0.00071,-9e-05,-0.00016,-5e-05,5,8
24612,-2e-05,-0.00017,0.00036,-0.00017,-0.00071,-9e-05,-0.00016,-5e-05,5,8
24613,-2e-05,-0.00017,0.00036,-0.00017,-0.00071,-9e-05,-0.00016,-5e-05,5,8
24614,-2e-05,-0.00017,0.00036,-0.00017,-0.00071,-9e-05,-0.00016,-5e-05,5,8
24615,-4e-05,-0.00023,-7e-05,-0.00011,-3e-05,-0.00021,1e-05,1e-05,5,8
24616,-4e-05,-0.00023,-7e-05,-0.00011,-3e-05,-0.00021,1e-05,1e-05,5,8
24617,-4e-05,-0.00023,-7e-05,-0.00011,-3e-05,-0.00021,1e-05,1e-05,5,8
24618,-4e-05,-0.00023,-7e-05,-0.00011,-3e-05,-0.00021,1e-05,1e-05,5,8
24619,-4e-05,-0.00023,-7e-05,-0.00011,-3e-05,-0.00021,1e-05,1e-05,5,8
24620,-4e-05,-0.00023,-7e-05,-0.00011,-3e-05,-0.00021,1e-05,1e-05,5,8
24621,-4e-05,-0.00023,-7e-05,-0.00011,-3e-05,-0.00021,1e-05,1e-05,5,8
24622,-4e-05,-0.00023,-7e-05,-0.00011,-3e-05,-0.00021,1e-05,1e-05,5,8
24623,-4e-05,-0.00023,-7e-05,-0.00011,-3e-05,-0.00021,1e-05,1e-05,5,8
24624,-4e-05,-0.00023,-7e-05,-0.00011,-3e-05,-0.00021,1e-05,1e-05,5,8
24625,-4e-05,-0.00023,-7e-05,-0.00011,-3e-05,-0.00021,1e-05,1e-05,5,8
24626,-4e-05,-0.00023,-7e-05,-0.00011,-3e-05,-0.00021,1e-05,1e-05,5,8
24627,-4e-05,-0.00023,-7e-05,-0.00011,-3e-05,-0.00021,1e-05,1e-05,5,8
24628,-4e-05,-0.00023,-7e-05,-0.00011,-3e-05,-0.00021,1e-05,1e-05,5,8
24629,-4e-05,-0.00023,-7e-05,-0.00011,-3e-05,-0.00021,1e-05,1e-05,5,8
24630,-0.00021,-0.00025,-0.00022,0.00058,0.00035,0.0001,0.0001,1e-05,5,8
24631,-0.00018,-0.0002,0.00016,0.00033,0.00056,-8e-05,9e-05,5e-05,5,8
24632,-0.00018,-0.0002,0.00016,0.00033,0.00056,-8e-05,9e-05,5e-05,5,8
24633,-0.00018,-0.0002,0.00016,0.00033,0.00056,-8e-05,9e-05,5e-05,5,8
24634,-0.00018,-0.0002,0.00016,0.00033,0.00056,-8e-05,9e-05,5e-05,5,8
24635,-0.00018,-0.0002,0.00016,0.00033,0.00056,-8e-05,9e-05,5e-05,5,8
24636,-0.00018,-0.0002,0.00016,0.00033,0.00056,-8e-05,9e-05,5e-05,5,8
24639,-0.00018,-0.0002,0.00016,0.00033,0.00056,-8e-05,9e-05,5e-05,5,8
24640,-0.00018,-0.0002,0.00016,0.00033,0.00056,-8e-05,9e-05,5e-05,5,8
24641,-0.00018,-0.0002,0.00016,0.00033,0.00056,-8e-05,9e-05,5e-05,5,8
24642,-0.00018,-0.0002,0.00016,0.00033,0.00056,-8e-05,9e-05,5e-05,5,8
24643,-0.00018,-0.0002,0.00016,0.00033,0.00056,-8e-05,9e-05,5e-05,5,8
24644,-0.00018,-0.0002,0.00016,0.00033,0.00056,-8e-05,9e-05,5e-05,5,8
24645,-0.00018,-0.0002,0.00016,0.00033,0.00056,-8e-05,9e-05,5e-05,5,8
24646,-0.00018,-0.0002,0.00016,0.00033,0.00056,-8e-05,9e-05,5e-05,5,8
24647,-0.00018,-0.0002,0.00016,0.00033,0.00056,-8e-05,9e-05,5e-05,5,8
24648,-0.00018,-0.0002,0.00016,0.00033,0.00056,-8e-05,9e-05,5e-05,5,8
24649,-0.00018,-0.0002,0.00016,0.00033,0.00056,-8e-05,9e-05,5e-05,5,8
24650,-0.00018,-0.0002,0.00016,0.00033,0.00056,-8e-05,9e-05,5e-05,5,8
24651,-0.00018,-0.0002,0.00016,0.00033,0.00056,-8e-05,9e-05,5e-05,5,8
24652,-0.00018,-0.0002,0.00016,0.00033,0.00056,-8e-05,9e-05,5e-05,5,8
24653,-0.00018,-0.0002,0.00016,0.00033,0.00056,-8e-05,9e-05,5e-05,5,8
24654,6e-05,7e-05,0.00014,0.0001,-0.00064,0,0.00012,2e-05,5,8
24655,6e-05,7e-05,0.00014,0.0001,-0.00064,0,0.00012,2e-05,5,8
24656,6e-05,7e-05,0.00014,0.0001,-0.00064,0,0.00012,2e-05,5,8
24657,6e-05,7e-05,0.00014,0.0001,-0.00064,0,0.00012,2e-05,5,8
24658,6e-05,7e-05,0.00014,0.0001,-0.00064,0,0.00012,2e-05,5,8
24659,6e-05,7e-05,0.00014,0.0001,-0.00064,0,0.00012,2e-05,5,8
24660,6e-05,7e-05,0.00014,0.0001,-0.00064,0,0.00012,2e-05,5,8
24661,6e-05,7e-05,0.00014,0.0001,-0.00064,0,0.00012,2e-05,5,8
24662,6e-05,7e-05,0.00014,0.0001,-0.00064,0,0.00012,2e-05,5,8
24663,6e-05,7e-05,0.00014,0.0001,-0.00064,0,0.00012,2e-05,5,8
24664,6e-05,7e-05,0.00014,0.0001,-0.00064,0,0.00012,2e-05,5,8
24665,6e-05,7e-05,0.00014,0.0001,-0.00064,0,0.00012,2e-05,5,8
24666,6e-05,7e-05,0.00014,0.0001,-0.00064,0,0.00012,2e-05,5,8
24667,6e-05,7e-05,0.00014,0.0001,-0.00064,0,0.00012,2e-05,5,8
24668,6e-05,7e-05,0.00014,0.0001,-0.00064,0,0.00012,2e-05,5,8
24669,6e-05,7e-05,0.00014,0.0001,-0.00064,0,0.00012,2e-05,5,8
24670,6e-05,7e-05,0.00014,0.0001,-0.00064,0,0.00012,2e-05,5,8
24671,6e-05,7e-05,0.00014,0.0001,-0.00064,0,0.00012,2e-05,5,8
24672,6e-05,7e-05,0.00014,0.0001,-0.00064,0,0.00012,2e-05,5,8
24673,6e-05,7e-05,0.00014,0.0001,-0.00064,0,0.00012,2e-05,5,8
24674,6e-05,7e-05,0.00014,0.0001,-0.00064,0,0.00012,2e-05,5,8
24675,6e-05,7e-05,0.00014,0.0001,-0.00064,0,0.00012,2e-05,5,8
24676,4e-05,0.00019,-2e-05,-8e-05,0.00017,0.00022,-3e-05,-4e-05,5,8
24677,0.00014,-9e-05,-0.00013,-0.00048,-0.00023,0.00048,-0.0002,0,5,8
24678,0.00014,-9e-05,-0.00013,-0.00048,-0.00023,0.00048,-0.0002,0,5,8
24679,0.00014,-9e-05,-0.00013,-0.00048,-0.00023,0.00048,-0.0002,0,5,8
24680,0.00014,-9e-05,-0.00013,-0.00048,-0.00023,0.00048,-0.0002,0,5,8
24681,0.00014,-9e-05,-0.00013,-0.00048,-0.00023,0.00048,-0.0002,0,5,8
24682,0.00014,-9e-05,-0.00013,-0.00048,-0.00023,0.00048,-0.0002,0,5,8
24683,0.00014,-9e-05,-0.00013,-0.00048,-0.00023,0.00048,-0.0002,0,5,8
24684,0.00014,-9e-05,-0.00013,-0.00048,-0.00023,0.00048,-0.0002,0,5,8
24685,0.00014,-9e-05,-0.00013,-0.00048,-0.00023,0.00048,-0.0002,0,5,8
24686,0.00014,-9e-05,-0.00013,-0.00048,-0.00023,0.00048,-0.0002,0,5,8
24689,0.00014,-9e-05,-0.00013,-0.00048,-0.00023,0.00048,-0.0002,0,5,8
24690,1e-05,1e-05,-0.00045,-0.00044,5e-05,0.00012,6e-05,0,5,8
24691,6e-05,0.0001,-3e-05,-0.00038,-7e-05,-8e-05,-2e-05,1e-05,5,8
24692,6e-05,0.0001,-3e-05,-0.00038,-7e-05,-8e-05,-2e-05,1e-05,5,8
24693,6e-05,0.0001,-3e-05,-0.00038,-7e-05,-8e-05,-2e-05,1e-05,5,8
24694,6e-05,0.0001,-3e-05,-0.00038,-7e-05,-8e-05,-2e-05,1e-05,5,8
24695,6e-05,0.0001,-3e-05,-0.00038,-7e-05,-8e-05,-2e-05,1e-05,5,8
24696,6e-05,0.0001,-3e-05,-0.00038,-7e-05,-8e-05,-2e-05,1e-05,5,8
24697,6e-05,0.0001,-3e-05,-0.00038,-7e-05,-8e-05,-2e-05,1e-05,5,8
24698,6e-05,0.0001,-3e-05,-0.00038,-7e-05,-8e-05,-2e-05,1e-05,5,8
24699,6e-05,0.0001,-3e-05,-0.00038,-7e-05,-8e-05,-2e-05,1e-05,5,8
24700,6e-05,0.0001,-3e-05,-0.00038,-7e-05,-8e-05,-2e-05,1e-05,5,8
24701,6e-05,0.0001,-3e-05,-0.00038,-7e-05,-8e-05,-2e-05,1e-05,5,8
24702,6e-05,0.0001,-3e-05,-0.00038,-7e-05,-8e-05,-2e-05,1e-05,5,8
24703,6e-05,0.0001,-3e-05,-0.00038,-7e-05,-8e-05,-2e-05,1e-05,5,8
24704,6e-05,0.0001,-3e-05,-0.00038,-7e-05,-8e-05,-2e-05,1e-05,5,8
24705,6e-05,0.0001,-3e-05,-0.00038,-7e-05,-8e-05,-2e-05,1e-05,5,8
24706,6e-05,0.0001,-3e-05,-0.00038,-7e-05,-8e-05,-2e-05,1e-05,5,8
24707,6e-05,0.0001,-3e-05,-0.00038,-7e-05,-8e-05,-2e-05,1e-05,5,8
24708,6e-05,0.0001,-3e-05,-0.00038,-7e-05,-8e-05,-2e-05,1e-05,5,8
24709,6e-05,0.0001,-3e-05,-0.00038,-7e-05,-8e-05,-2e-05,1e-05,5,8
24710,6e-05,0.0001,-3e-05,-0.00038,-7e-05,-8e-05,-2e-05,1e-05,5,8
24711,6e-05,0.0001,-3e-05,-0.00038,-7e-05,-8e-05,-2e-05,1e-05,5,8
24712,6e-05,0.0001,-3e-05,-0.00038,-7e-05,-8e-05,-2e-05,1e-05,5,8
24713,6e-05,0.0001,-3e-05,-0.00038,-7e-05,-8e-05,-2e-05,1e-05,5,8
24714,-4e-05,-0.00027,-7e-05,0.00032,0.00029,0.00013,-2e-05,-2e-05,5,8
24715,0.00024,4e-05,-7e-05,-0.00059,-0.00045,2e-05,-1e-05,2e-05,5,8
24716,0.00024,4e-05,-7e-05,-0.00059,-0.00045,2e-05,-1e-05,2e-05,5,8
24717,0.00024,4e-05,-7e-05,-0.00059,-0.00045,2e-05,-1e-05,2e-05,5,8
24718,0.00024,4e-05,-7e-05,-0.00059,-0.00045,2e-05,-1e-05,2e-05,5,8
24719,0.00024,4e-05,-7e-05,-0.00059,-0.00045,2e-05,-1e-05,2e-05,5,8
24720,0.00024,4e-05,-7e-05,-0.00059,-0.00045,2e-05,-1e-05,2e-05,5,8
24721,0.00024,4e-05,-7e-05,-0.00059,-0.00045,2e-05,-1e-05,2e-05,5,8
24722,0.00024,4e-05,-7e-05,-0.00059,-0.00045,2e-05,-1e-05,2e-05,5,8
24723,0.00024,4e-05,-7e-05,-0.00059,-0.00045,2e-05,-1e-05,2e-05,5,8
24724,0.00024,4e-05,-7e-05,-0.00059,-0.00045,2e-05,-1e-05,2e-05,5,8
24725,0.00024,4e-05,-7e-05,-0.00059,-0.00045,2e-05,-1e-05,2e-05,5,8
24726,0.00024,4e-05,-7e-05,-0.00059,-0.00045,2e-05,-1e-05,2e-05,5,8
24727,0.00024,4e-05,-7e-05,-0.00059,-0.00045,2e-05,-1e-05,2e-05,5,8
24728,0.00024,4e-05,-7e-05,-0.00059,-0.00045,2e-05,-1e-05,2e-05,5,8
24729,0.00024,4e-05,-7e-05,-0.00059,-0.00045,2e-05,-1e-05,2e-05,5,8
24730,0.00024,4e-05,-7e-05,-0.00059,-0.00045,2e-05,-1e-05,2e-05,5,8
24731,0.00024,4e-05,-7e-05,-0.00059,-0.00045,2e-05,-1e-05,2e-05,5,8
24732,0.00024,4e-05,-7e-05,-0.00059,-0.00045,2e-05,-1e-05,2e-05,5,8
24733,0.00024,4e-05,-7e-05,-0.00059,-0.00045,2e-05,-1e-05,2e-05,5,8
24734,0.00024,4e-05,-7e-05,-0.00059,-0.00045,2e-05,-1e-05,2e-05,5,8
24735,0.00024,4e-05,-7e-05,-0.00059,-0.00045,2e-05,-1e-05,2e-05,5,8
24736,4e-05,0.00023,7e-05,9e-05,0.00043,2e-05,0.00029,8e-05,5,8
24738,-0.00022,-0.00013,-0.0004,0.00062,-0.0004,-0.00019,0.00022,-6e-05,5,8
24740,-0.00022,-0.00013,-0.0004,0.00062,-0.0004,-0.00019,0.00022,-6e-05,5,8
24741,-0.00022,-0.00013,-0.0004,0.00062,-0.0004,-0.00019,0.00022,-6e-05,5,8
24742,-0.00022,-0.00013,-0.0004,0.00062,-0.0004,-0.00019,0.00022,-6e-05,5,8
24743,-0.00022,-0.00013,-0.0004,0.00062,-0.0004,-0.00019,0.00022,-6e-05,5,8
24744,-0.00022,-0.00013,-0.0004,0.00062,-0.0004,-0.00019,0.00022,-6e-05,5,8
24745,-0.00022,-0.00013,-0.0004,0.00062,-0.0004,-0.00019,0.00022,-6e-05,5,8
24746,-0.00022,-0.00013,-0.0004,0.00062,-0.0004,-0.00019,0.00022,-6e-05,5,8
24747,-0.00022,-0.00013,-0.0004,0.00062,-0.0004,-0.00019,0.00022,-6e-05,5,8
24748,-0.00022,-0.00013,-0.0004,0.00062,-0.0004,-0.00019,0.00022,-6e-05,5,8
24749,-0.00022,-0.00013,-0.0004,0.00062,-0.0004,-0.00019,0.00022,-6e-05,5,8
24750,7e-05,0.0001,0.00057,0.0006,-9e-05,-0.00047,0,5e-05,5,8
24751,-1e-05,0.00019,0.00034,0.00061,-0.00033,-0.00036,-7e-05,-1e-05,5,8
24752,-1e-05,0.00019,0.00034,0.00061,-0.00033,-0.00036,-7e-05,-1e-05,5,8
24753,-1e-05,0.00019,0.00034,0.00061,-0.00033,-0.00036,-7e-05,-1e-05,5,8
24754,-1e-05,0.00019,0.00034,0.00061,-0.00033,-0.00036,-7e-05,-1e-05,5,8
24755,-1e-05,0.00019,0.00034,0.00061,-0.00033,-0.00036,-7e-05,-1e-05,5,8
24756,-1e-05,0.00019,0.00034,0.00061,-0.00033,-0.00036,-7e-05,-1e-05,5,8
24757,-1e-05,0.00019,0.00034,0.00061,-0.00033,-0.00036,-7e-05,-1e-05,5,8
24758,-1e-05,0.00019,0.00034,0.00061,-0.00033,-0.00036,-7e-05,-1e-05,5,8
24759,-1e-05,0.00019,0.00034,0.00061,-0.00033,-0.00036,-7e-05,-1e-05,5,8
24760,-1e-05,0.00019,0.00034,0.00061,-0.00033,-0.00036,-7e-05,-1e-05,5,8
24761,-1e-05,0.00019,0.00034,0.00061,-0.00033,-0.00036,-7e-05,-1e-05,5,8
24762,-1e-05,0.00019,0.00034,0.00061,-0.00033,-0.00036,-7e-05,-1e-05,5,8
24763,-1e-05,0.00019,0.00034,0.00061,-0.00033,-0.00036,-7e-05,-1e-05,5,8
24764,-1e-05,0.00019,0.00034,0.00061,-0.00033,-0.00036,-7e-05,-1e-05,5,8
24765,-1e-05,0.00019,0.00034,0.00061,-0.00033,-0.00036,-7e-05,-1e-05,5,8
24766,-1e-05,0.00019,0.00034,0.00061,-0.00033,-0.00036,-7e-05,-1e-05,5,8
24767,-1e-05,0.00019,0.00034,0.00061,-0.00033,-0.00036,-7e-05,-1e-05,5,8
24768,-1e-05,0.00019,0.00034,0.00061,-0.00033,-0.00036,-7e-05,-1e-05,5,8
24769,-1e-05,0.00019,0.00034,0.00061,-0.00033,-0.00036,-7e-05,-1e-05,5,8
24770,-1e-05,0.00019,0.00034,0.00061,-0.00033,-0.00036,-7e-05,-1e-05,5,8
24771,-1e-05,0.00019,0.00034,0.00061,-0.00033,-0.00036,-7e-05,-1e-05,5,8
24772,-1e-05,0.00019,0.00034,0.00061,-0.00033,-0.00036,-7e-05,-1e-05,5,8
24773,-1e-05,0.00019,0.00034,0.00061,-0.00033,-0.00036,-7e-05,-1e-05,5,8
24774,-0.00013,0.0002,-0.00041,3e-05,0.0012,-5e-05,2e-05,-3e-05,5,8
24775,-0.00013,0.0002,-0.00041,3e-05,0.0012,-5e-05,2e-05,-3e-05,5,8
24776,-0.00013,0.0002,-0.00041,3e-05,0.0012,-5e-05,2e-05,-3e-05,5,8
24777,-0.00013,0.0002,-0.00041,3e-05,0.0012,-5e-05,2e-05,-3e-05,5,8
24778,-0.00013,0.0002,-0.00041,3e-05,0.0012,-5e-05,2e-05,-3e-05,5,8
24779,-0.00013,0.0002,-0.00041,3e-05,0.0012,-5e-05,2e-05,-3e-05,5,8
24780,-0.00013,0.0002,-0.00041,3e-05,0.0012,-5e-05,2e-05,-3e-05,5,8
24781,-0.00013,0.0002,-0.00041,3e-05,0.0012,-5e-05,2e-05,-3e-05,5,8
24782,-0.00013,0.0002,-0.00041,3e-05,0.0012,-5e-05,2e-05,-3e-05,5,8
24783,-0.00013,0.0002,-0.00041,3e-05,0.0012,-5e-05,2e-05,-3e-05,5,8
24784,-0.00013,0.0002,-0.00041,3e-05,0.0012,-5e-05,2e-05,-3e-05,5,8
24785,-0.00013,0.0002,-0.00041,3e-05,0.0012,-5e-05,2e-05,-3e-05,5,8
24786,-0.00013,0.0002,-0.00041,3e-05,0.0012,-5e-05,2e-05,-3e-05,5,8
24788,-0.00013,0.0002,-0.00041,3e-05,0.0012,-5e-05,2e-05,-3e-05,5,8
24789,-0.00013,0.0002,-0.00041,3e-05,0.0012,-5e-05,2e-05,-3e-05,5,8
24790,-0.00013,0.0002,-0.00041,3e-05,0.0012,-5e-05,2e-05,-3e-05,5,8
24791,-0.00013,0.0002,-0.00041,3e-05,0.0012,-5e-05,2e-05,-3e-05,5,8
24792,-0.00013,0.0002,-0.00041,3e-05,0.0012,-5e-05,2e-05,-3e-05,5,8
24793,-0.00013,0.0002,-0.00041,3e-05,0.0012,-5e-05,2e-05,-3e-05,5,8
24794,-0.00013,0.0002,-0.00041,3e-05,0.0012,-5e-05,2e-05,-3e-05,5,8
24795,-0.00013,0.0002,-0.00041,3e-05,0.0012,-5e-05,2e-05,-3e-05,5,8
24796,8e-05,0.00016,0.00022,-0.00014,0.00021,6e-05,-5e-05,3e-05,5,8
24797,-0.0001,-9e-05,0.0002,0.00012,4e-05,8e-05,4e-05,-4e-05,5,8
24798,-0.0001,-9e-05,0.0002,0.00012,4e-05,8e-05,4e-05,-4e-05,5,8
24799,-0.0001,-9e-05,0.0002,0.00012,4e-05,8e-05,4e-05,-4e-05,5,8
24800,-0.0001,-9e-05,0.0002,0.00012,4e-05,8e-05,4e-05,-4e-05,5,8
24801,-0.0001,-9e-05,0.0002,0.00012,4e-05,8e-05,4e-05,-4e-05,5,8
24802,-0.0001,-9e-05,0.0002,0.00012,4e-05,8e-05,4e-05,-4e-05,5,8
24803,-0.0001,-9e-05,0.0002,0.00012,4e-05,8e-05,4e-05,-4e-05,5,8
24804,-0.0001,-9e-05,0.0002,0.00012,4e-05,8e-05,4e-05,-4e-05,5,8
24805,-0.0001,-9e-05,0.0002,0.00012,4e-05,8e-05,4e-05,-4e-05,5,8
24806,-0.0001,-9e-05,0.0002,0.00012,4e-05,8e-05,4e-05,-4e-05,5,8
24807,-0.0001,-9e-05,0.0002,0.00012,4e-05,8e-05,4e-05,-4e-05,5,8
24808,-0.0001,-9e-05,0.0002,0.00012,4e-05,8e-05,4e-05,-4e-05,5,8
24809,-0.0001,-9e-05,0.0002,0.00012,4e-05,8e-05,4e-05,-4e-05,5,8
24810,4e-05,1e-05,-0.00018,-0.00026,0.00025,8e-05,-5e-05,-5e-05,5,8
24811,-6e-05,-8e-05,0.00013,7e-05,-0.00019,-0.00013,-6e-05,-2e-05,5,8
24812,-6e-05,-8e-05,0.00013,7e-05,-0.00019,-0.00013,-6e-05,-2e-05,5,8
24813,-6e-05,-8e-05,0.00013,7e-05,-0.00019,-0.00013,-6e-05,-2e-05,5,8
24814,-6e-05,-8e-05,0.00013,7e-05,-0.00019,-0.00013,-6e-05,-2e-05,5,8
24815,-6e-05,-8e-05,0.00013,7e-05,-0.00019,-0.00013,-6e-05,-2e-05,5,8
24816,-6e-05,-8e-05,0.00013,7e-05,-0.00019,-0.00013,-6e-05,-2e-05,5,8
24817,-6e-05,-8e-05,0.00013,7e-05,-0.00019,-0.00013,-6e-05,-2e-05,5,8
24818,-6e-05,-8e-05,0.00013,7e-05,-0.00019,-0.00013,-6e-05,-2e-05,5,8
24819,-6e-05,-8e-05,0.00013,7e-05,-0.00019,-0.00013,-6e-05,-2e-05,5,8
24820,-6e-05,-8e-05,0.00013,7e-05,-0.00019,-0.00013,-6e-05,-2e-05,5,8
24821,-6e-05,-8e-05,0.00013,7e-05,-0.00019,-0.00013,-6e-05,-2e-05,5,8
24822,-6e-05,-8e-05,0.00013,7e-05,-0.00019,-0.00013,-6e-05,-2e-05,5,8
24823,-6e-05,-8e-05,0.00013,7e-05,-0.00019,-0.00013,-6e-05,-2e-05,5,8
24824,-6e-05,-8e-05,0.00013,7e-05,-0.00019,-0.00013,-6e-05,-2e-05,5,8
24825,-6e-05,-8e-05,0.00013,7e-05,-0.00019,-0.00013,-6e-05,-2e-05,5,8
24826,-6e-05,-8e-05,0.00013,7e-05,-0.00019,-0.00013,-6e-05,-2e-05,5,8
24827,-6e-05,-8e-05,0.00013,7e-05,-0.00019,-0.00013,-6e-05,-2e-05,5,8
24828,-6e-05,-8e-05,0.00013,7e-05,-0.00019,-0.00013,-6e-05,-2e-05,5,8
24829,-6e-05,-8e-05,0.00013,7e-05,-0.00019,-0.00013,-6e-05,-2e-05,5,8
24830,-6e-05,-8e-05,0.00013,7e-05,-0.00019,-0.00013,-6e-05,-2e-05,5,8
24831,-6e-05,-8e-05,0.00013,7e-05,-0.00019,-0.00013,-6e-05,-2e-05,5,8
24832,-6e-05,-8e-05,0.00013,7e-05,-0.00019,-0.00013,-6e-05,-2e-05,5,8
24833,-6e-05,-8e-05,0.00013,7e-05,-0.00019,-0.00013,-6e-05,-2e-05,5,8
24834,4e-05,-0.00035,0.00013,-0.00098,-0.00089,-0.00012,-0.00012,2e-05,5,8
24835,4e-05,-0.00035,0.00013,-0.00098,-0.00089,-0.00012,-0.00012,2e-05,5,8
24837,4e-05,-0.00035,0.00013,-0.00098,-0.00089,-0.00012,-0.00012,2e-05,5,8
24839,4e-05,-0.00035,0.00013,-0.00098,-0.00089,-0.00012,-0.00012,2e-05,5,8
24841,4e-05,-0.00035,0.00013,-0.00098,-0.00089,-0.00012,-0.00012,2e-05,5,8
24842,4e-05,-0.00035,0.00013,-0.00098,-0.00089,-0.00012,-0.00012,2e-05,5,8
24843,4e-05,-0.00035,0.00013,-0.00098,-0.00089,-0.00012,-0.00012,2e-05,5,8
24844,4e-05,-0.00035,0.00013,-0.00098,-0.00089,-0.00012,-0.00012,2e-05,5,8
24845,4e-05,-0.00035,0.00013,-0.00098,-0.00089,-0.00012,-0.00012,2e-05,5,8
24846,4e-05,-0.00035,0.00013,-0.00098,-0.00089,-0.00012,-0.00012,2e-05,5,8
24847,4e-05,-0.00035,0.00013,-0.00098,-0.00089,-0.00012,-0.00012,2e-05,5,8
24848,4e-05,-0.00035,0.00013,-0.00098,-0.00089,-0.00012,-0.00012,2e-05,5,8
24849,4e-05,-0.00035,0.00013,-0.00098,-0.00089,-0.00012,-0.00012,2e-05,5,8
24850,4e-05,-0.00035,0.00013,-0.00098,-0.00089,-0.00012,-0.00012,2e-05,5,8
24851,4e-05,-0.00035,0.00013,-0.00098,-0.00089,-0.00012,-0.00012,2e-05,5,8
24852,4e-05,-0.00035,0.00013,-0.00098,-0.00089,-0.00012,-0.00012,2e-05,5,8
24853,4e-05,-0.00035,0.00013,-0.00098,-0.00089,-0.00012,-0.00012,2e-05,5,8
24854,4e-05,-0.00035,0.00013,-0.00098,-0.00089,-0.00012,-0.00012,2e-05,5,8
24855,4e-05,-0.00035,0.00013,-0.00098,-0.00089,-0.00012,-0.00012,2e-05,5,8
24856,-6e-05,1e-05,-0.00016,-0.00019,-0.00033,3e-05,-7e-05,-6e-05,5,8
24857,-6e-05,1e-05,-0.00016,-0.00019,-0.00033,3e-05,-7e-05,-6e-05,5,8
24858,-0.00015,-3e-05,-0.00035,-0.00031,0.00015,-0.00035,-0.00015,-0.00016,5,8
24859,-0.00015,-3e-05,-0.00035,-0.00031,0.00015,-0.00035,-0.00015,-0.00016,5,8
24860,-0.00015,-3e-05,-0.00035,-0.00031,0.00015,-0.00035,-0.00015,-0.00016,5,8
24861,-0.00015,-3e-05,-0.00035,-0.00031,0.00015,-0.00035,-0.00015,-0.00016,5,8
24862,-0.00015,-3e-05,-0.00035,-0.00031,0.00015,-0.00035,-0.00015,-0.00016,5,8
24863,-0.00015,-3e-05,-0.00035,-0.00031,0.00015,-0.00035,-0.00015,-0.00016,5,8
24865,-0.00015,-3e-05,-0.00035,-0.00031,0.00015,-0.00035,-0.00015,-0.00016,5,8
24866,-0.00015,-3e-05,-0.00035,-0.00031,0.00015,-0.00035,-0.00015,-0.00016,5,8
24867,-0.00015,-3e-05,-0.00035,-0.00031,0.00015,-0.00035,-0.00015,-0.00016,5,8
24868,-0.00015,-3e-05,-0.00035,-0.00031,0.00015,-0.00035,-0.00015,-0.00016,5,8
24869,-0.00015,-3e-05,-0.00035,-0.00031,0.00015,-0.00035,-0.00015,-0.00016,5,8
24870,-0.00015,-0.00021,3e-05,0.00031,0.00022,-6e-05,0.00013,-2e-05,5,8
24871,-0.00015,-0.00021,3e-05,0.00031,0.00022,-6e-05,0.00013,-2e-05,5,8
24872,-0.00015,-0.00021,3e-05,0.00031,0.00022,-6e-05,0.00013,-2e-05,5,8
24873,-0.00015,-0.00021,3e-05,0.00031,0.00022,-6e-05,0.00013,-2e-05,5,8
24874,-0.00015,-0.00021,3e-05,0.00031,0.00022,-6e-05,0.00013,-2e-05,5,8
24875,-0.00015,-0.00021,3e-05,0.00031,0.00022,-6e-05,0.00013,-2e-05,5,8
24876,-0.00015,-0.00021,3e-05,0.00031,0.00022,-6e-05,0.00013,-2e-05,5,8
24877,-0.00015,-0.00021,3e-05,0.00031,0.00022,-6e-05,0.00013,-2e-05,5,8
24878,-0.00015,-0.00021,3e-05,0.00031,0.00022,-6e-05,0.00013,-2e-05,5,8
24879,0.0001,-0.00022,0.00019,0.00028,-0.00022,0.00021,-3e-05,1e-05,5,8
24880,0.0001,-0.00022,0.00019,0.00028,-0.00022,0.00021,-3e-05,1e-05,5,8
24881,0.0001,-0.00022,0.00019,0.00028,-0.00022,0.00021,-3e-05,1e-05,5,8
24882,0.0001,-0.00022,0.00019,0.00028,-0.00022,0.00021,-3e-05,1e-05,5,8
24883,0.0001,-0.00022,0.00019,0.00028,-0.00022,0.00021,-3e-05,1e-05,5,8
24884,0.0001,-0.00022,0.00019,0.00028,-0.00022,0.00021,-3e-05,1e-05,5,8
24885,0.0001,-0.00022,0.00019,0.00028,-0.00022,0.00021,-3e-05,1e-05,5,8
24886,0.0001,-0.00022,0.00019,0.00028,-0.00022,0.00021,-3e-05,1e-05,5,8
24889,0.0001,-0.00022,0.00019,0.00028,-0.00022,0.00021,-3e-05,1e-05,5,8
24890,0.0001,-0.00022,0.00019,0.00028,-0.00022,0.00021,-3e-05,1e-05,5,8
24891,0.0001,-0.00022,0.00019,0.00028,-0.00022,0.00021,-3e-05,1e-05,5,8
24892,0.0001,-0.00022,0.00019,0.00028,-0.00022,0.00021,-3e-05,1e-05,5,8
24893,0.0001,-0.00022,0.00019,0.00028,-0.00022,0.00021,-3e-05,1e-05,5,8
24894,-5e-05,-5e-05,-0.00028,-0.0005,-0.00052,-0.00012,-0.00011,-8e-05,5,8
24895,-7e-05,-0.00023,-0.00018,0.0004,0.00024,0.00024,-4e-05,-1e-05,5,8
24896,-7e-05,-0.00023,-0.00018,0.0004,0.00024,0.00024,-4e-05,-1e-05,5,8
24897,-7e-05,-0.00023,-0.00018,0.0004,0.00024,0.00024,-4e-05,-1e-05,5,8
24898,-7e-05,-0.00023,-0.00018,0.0004,0.00024,0.00024,-4e-05,-1e-05,5,8
24899,-7e-05,-0.00023,-0.00018,0.0004,0.00024,0.00024,-4e-05,-1e-05,5,8
24900,-7e-05,-0.00023,-0.00018,0.0004,0.00024,0.00024,-4e-05,-1e-05,5,8
24901,-7e-05,-0.00023,-0.00018,0.0004,0.00024,0.00024,-4e-05,-1e-05,5,8
24902,-7e-05,-0.00023,-0.00018,0.0004,0.00024,0.00024,-4e-05,-1e-05,5,8
24903,-7e-05,-0.00023,-0.00018,0.0004,0.00024,0.00024,-4e-05,-1e-05,5,8
24904,-7e-05,-0.00023,-0.00018,0.0004,0.00024,0.00024,-4e-05,-1e-05,5,8
24905,-7e-05,-0.00023,-0.00018,0.0004,0.00024,0.00024,-4e-05,-1e-05,5,8
24906,-7e-05,-0.00023,-0.00018,0.0004,0.00024,0.00024,-4e-05,-1e-05,5,8
24907,-7e-05,-0.00023,-0.00018,0.0004,0.00024,0.00024,-4e-05,-1e-05,5,8
24908,-7e-05,-0.00023,-0.00018,0.0004,0.00024,0.00024,-4e-05,-1e-05,5,8
24909,-7e-05,-0.00023,-0.00018,0.0004,0.00024,0.00024,-4e-05,-1e-05,5,8
24910,-7e-05,-0.00023,-0.00018,0.0004,0.00024,0.00024,-4e-05,-1e-05,5,8
24911,-7e-05,-0.00023,-0.00018,0.0004,0.00024,0.00024,-4e-05,-1e-05,5,8
24912,-7e-05,-0.00023,-0.00018,0.0004,0.00024,0.00024,-4e-05,-1e-05,5,8
24913,-7e-05,-0.00023,-0.00018,0.0004,0.00024,0.00024,-4e-05,-1e-05,5,8
24914,-7e-05,-0.00023,-0.00018,0.0004,0.00024,0.00024,-4e-05,-1e-05,5,8
24915,-7e-05,-0.00023,-0.00018,0.0004,0.00024,0.00024,-4e-05,-1e-05,5,8
24916,-6e-05,-3e-05,0.00018,-0.00068,-0.00062,2e-05,3e-05,0,5,8
24917,-6e-05,-3e-05,0.00018,-0.00068,-0.00062,2e-05,3e-05,0,5,8
24918,0,3e-05,0.00022,-0.00031,-0.00067,-0.00011,1e-05,1e-05,5,8
24919,0,3e-05,0.00022,-0.00031,-0.00067,-0.00011,1e-05,1e-05,5,8
24920,0,3e-05,0.00022,-0.00031,-0.00067,-0.00011,1e-05,1e-05,5,8
24921,0,3e-05,0.00022,-0.00031,-0.00067,-0.00011,1e-05,1e-05,5,8
24922,0,3e-05,0.00022,-0.00031,-0.00067,-0.00011,1e-05,1e-05,5,8
24923,0,3e-05,0.00022,-0.00031,-0.00067,-0.00011,1e-05,1e-05,5,8
24924,0,3e-05,0.00022,-0.00031,-0.00067,-0.00011,1e-05,1e-05,5,8
24925,0,3e-05,0.00022,-0.00031,-0.00067,-0.00011,1e-05,1e-05,5,8
24926,0,3e-05,0.00022,-0.00031,-0.00067,-0.00011,1e-05,1e-05,5,8
24927,0,3e-05,0.00022,-0.00031,-0.00067,-0.00011,1e-05,1e-05,5,8
24928,0,3e-05,0.00022,-0.00031,-0.00067,-0.00011,1e-05,1e-05,5,8
24929,0,3e-05,0.00022,-0.00031,-0.00067,-0.00011,1e-05,1e-05,5,8
24930,0.00016,-0.00014,0.00058,0.00065,0.00036,0.00013,-9e-05,3e-05,5,8
24931,0.00016,-0.00014,0.00058,0.00065,0.00036,0.00013,-9e-05,3e-05,5,8
24932,0.00016,-0.00014,0.00058,0.00065,0.00036,0.00013,-9e-05,3e-05,5,8
24933,0.00016,-0.00014,0.00058,0.00065,0.00036,0.00013,-9e-05,3e-05,5,8
24934,0.00016,-0.00014,0.00058,0.00065,0.00036,0.00013,-9e-05,3e-05,5,8
24935,0.00016,-0.00014,0.00058,0.00065,0.00036,0.00013,-9e-05,3e-05,5,8
24936,0.00016,-0.00014,0.00058,0.00065,0.00036,0.00013,-9e-05,3e-05,5,8
24939,1e-05,1e-05,-3e-05,-0.00052,-0.00017,-0.00021,3e-05,3e-05,5,8
24940,1e-05,1e-05,-3e-05,-0.00052,-0.00017,-0.00021,3e-05,3e-05,5,8
24941,1e-05,1e-05,-3e-05,-0.00052,-0.00017,-0.00021,3e-05,3e-05,5,8
24942,1e-05,1e-05,-3e-05,-0.00052,-0.00017,-0.00021,3e-05,3e-05,5,8
24943,1e-05,1e-05,-3e-05,-0.00052,-0.00017,-0.00021,3e-05,3e-05,5,8
24944,1e-05,1e-05,-3e-05,-0.00052,-0.00017,-0.00021,3e-05,3e-05,5,8
24945,1e-05,1e-05,-3e-05,-0.00052,-0.00017,-0.00021,3e-05,3e-05,5,8
24946,1e-05,1e-05,-3e-05,-0.00052,-0.00017,-0.00021,3e-05,3e-05,5,8
24947,1e-05,1e-05,-3e-05,-0.00052,-0.00017,-0.00021,3e-05,3e-05,5,8
24948,1e-05,1e-05,-3e-05,-0.00052,-0.00017,-0.00021,3e-05,3e-05,5,8
24949,1e-05,1e-05,-3e-05,-0.00052,-0.00017,-0.00021,3e-05,3e-05,5,8
24950,1e-05,1e-05,-3e-05,-0.00052,-0.00017,-0.00021,3e-05,3e-05,5,8
24951,1e-05,1e-05,-3e-05,-0.00052,-0.00017,-0.00021,3e-05,3e-05,5,8
24952,1e-05,1e-05,-3e-05,-0.00052,-0.00017,-0.00021,3e-05,3e-05,5,8
24953,1e-05,1e-05,-3e-05,-0.00052,-0.00017,-0.00021,3e-05,3e-05,5,8
24954,0.00021,0.00036,0.00031,-1e-05,2e-05,3e-05,0,1e-05,5,8
24955,7e-05,-0.00028,0.00024,5e-05,0.00021,0.00032,0,7e-05,5,8
24956,7e-05,-0.00028,0.00024,5e-05,0.00021,0.00032,0,7e-05,5,8
24957,7e-05,-0.00028,0.00024,5e-05,0.00021,0.00032,0,7e-05,5,8
24958,7e-05,-0.00028,0.00024,5e-05,0.00021,0.00032,0,7e-05,5,8
24959,7e-05,-0.00028,0.00024,5e-05,0.00021,0.00032,0,7e-05,5,8
24960,7e-05,-0.00028,0.00024,5e-05,0.00021,0.00032,0,7e-05,5,8
24961,7e-05,-0.00028,0.00024,5e-05,0.00021,0.00032,0,7e-05,5,8
24962,7e-05,-0.00028,0.00024,5e-05,0.00021,0.00032,0,7e-05,5,8
24963,7e-05,-0.00028,0.00024,5e-05,0.00021,0.00032,0,7e-05,5,8
24964,7e-05,-0.00028,0.00024,5e-05,0.00021,0.00032,0,7e-05,5,8
24965,7e-05,-0.00028,0.00024,5e-05,0.00021,0.00032,0,7e-05,5,8
24966,7e-05,-0.00028,0.00024,5e-05,0.00021,0.00032,0,7e-05,5,8
24967,7e-05,-0.00028,0.00024,5e-05,0.00021,0.00032,0,7e-05,5,8
24968,7e-05,-0.00028,0.00024,5e-05,0.00021,0.00032,0,7e-05,5,8
24969,7e-05,-0.00028,0.00024,5e-05,0.00021,0.00032,0,7e-05,5,8
24970,7e-05,-0.00028,0.00024,5e-05,0.00021,0.00032,0,7e-05,5,8
24971,7e-05,-0.00028,0.00024,5e-05,0.00021,0.00032,0,7e-05,5,8
24972,7e-05,-0.00028,0.00024,5e-05,0.00021,0.00032,0,7e-05,5,8
24973,7e-05,-0.00028,0.00024,5e-05,0.00021,0.00032,0,7e-05,5,8
24974,7e-05,-0.00028,0.00024,5e-05,0.00021,0.00032,0,7e-05,5,8
24975,7e-05,-0.00028,0.00024,5e-05,0.00021,0.00032,0,7e-05,5,8
24976,0,7e-05,0.00023,3e-05,-7e-05,-3e-05,-3e-05,-2e-05,5,8
24977,0,7e-05,0.00023,3e-05,-7e-05,-3e-05,-3e-05,-2e-05,5,8
24978,2e-05,-8e-05,-1e-05,0.0002,0.00025,0.00011,-4e-05,-1e-05,5,8
24979,2e-05,-8e-05,-1e-05,0.0002,0.00025,0.00011,-4e-05,-1e-05,5,8
24980,2e-05,-8e-05,-1e-05,0.0002,0.00025,0.00011,-4e-05,-1e-05,5,8
24981,2e-05,-8e-05,-1e-05,0.0002,0.00025,0.00011,-4e-05,-1e-05,5,8
24982,2e-05,-8e-05,-1e-05,0.0002,0.00025,0.00011,-4e-05,-1e-05,5,8
24983,2e-05,-8e-05,-1e-05,0.0002,0.00025,0.00011,-4e-05,-1e-05,5,8
24984,2e-05,-8e-05,-1e-05,0.0002,0.00025,0.00011,-4e-05,-1e-05,5,8
24985,2e-05,-8e-05,-1e-05,0.0002,0.00025,0.00011,-4e-05,-1e-05,5,8
24986,2e-05,-8e-05,-1e-05,0.0002,0.00025,0.00011,-4e-05,-1e-05,5,8
24988,2e-05,-8e-05,-1e-05,0.0002,0.00025,0.00011,-4e-05,-1e-05,5,8
24990,0,-8e-05,0.00035,0.00018,0,7e-05,7e-05,4e-05,5,8
24991,0,-8e-05,0.00035,0.00018,0,7e-05,7e-05,4e-05,5,8
24992,0,-8e-05,0.00035,0.00018,0,7e-05,7e-05,4e-05,5,8
24993,0,-8e-05,0.00035,0.00018,0,7e-05,7e-05,4e-05,5,8
24994,0,-8e-05,0.00035,0.00018,0,7e-05,7e-05,4e-05,5,8
24995,0,-8e-05,0.00035,0.00018,0,7e-05,7e-05,4e-05,5,8
24996,0,-8e-05,0.00035,0.00018,0,7e-05,7e-05,4e-05,5,8
24997,-8e-05,-6e-05,-0.00022,-0.00032,-1e-05,0.00022,-4e-05,-1e-05,5,8
24998,-8e-05,-6e-05,-0.00022,-0.00032,-1e-05,0.00022,-4e-05,-1e-05,5,8
24999,-8e-05,-6e-05,-0.00022,-0.00032,-1e-05,0.00022,-4e-05,-1e-05,5,8
25000,-8e-05,-6e-05,-0.00022,-0.00032,-1e-05,0.00022,-4e-05,-1e-05,5,8
25001,-8e-05,-6e-05,-0.00022,-0.00032,-1e-05,0.00022,-4e-05,-1e-05,5,8
25002,-8e-05,-6e-05,-0.00022,-0.00032,-1e-05,0.00022,-4e-05,-1e-05,5,8
25003,-8e-05,-6e-05,-0.00022,-0.00032,-1e-05,0.00022,-4e-05,-1e-05,5,8
25004,-8e-05,-6e-05,-0.00022,-0.00032,-1e-05,0.00022,-4e-05,-1e-05,5,8
25005,-8e-05,-6e-05,-0.00022,-0.00032,-1e-05,0.00022,-4e-05,-1e-05,5,8
25006,-8e-05,-6e-05,-0.00022,-0.00032,-1e-05,0.00022,-4e-05,-1e-05,5,8
25007,-8e-05,-6e-05,-0.00022,-0.00032,-1e-05,0.00022,-4e-05,-1e-05,5,8
25008,-8e-05,-6e-05,-0.00022,-0.00032,-1e-05,0.00022,-4e-05,-1e-05,5,8
25009,-8e-05,-6e-05,-0.00022,-0.00032,-1e-05,0.00022,-4e-05,-1e-05,5,8
25010,-8e-05,-6e-05,-0.00022,-0.00032,-1e-05,0.00022,-4e-05,-1e-05,5,8
25011,-8e-05,-6e-05,-0.00022,-0.00032,-1e-05,0.00022,-4e-05,-1e-05,5,8
25012,-8e-05,-6e-05,-0.00022,-0.00032,-1e-05,0.00022,-4e-05,-1e-05,5,8
25013,-8e-05,-6e-05,-0.00022,-0.00032,-1e-05,0.00022,-4e-05,-1e-05,5,8
25014,-0.00022,-0.00032,-0.00051,-0.00066,-0.00043,-0.00018,0.00014,-1e-05,5,8
25015,5e-05,0,0.0002,-0.00049,0.00023,9e-05,1e-05,0,5,8
25016,0,-3e-05,-0.00021,0.00056,0.00022,3e-05,-2e-05,-4e-05,5,8
25017,0,-3e-05,-0.00021,0.00056,0.00022,3e-05,-2e-05,-4e-05,5,8
25018,0,-3e-05,-0.00021,0.00056,0.00022,3e-05,-2e-05,-4e-05,5,8
25019,0,-3e-05,-0.00021,0.00056,0.00022,3e-05,-2e-05,-4e-05,5,8
25020,0,-3e-05,-0.00021,0.00056,0.00022,3e-05,-2e-05,-4e-05,5,8
25021,0,-3e-05,-0.00021,0.00056,0.00022,3e-05,-2e-05,-4e-05,5,8
25022,0,-3e-05,-0.00021,0.00056,0.00022,3e-05,-2e-05,-4e-05,5,8
25023,0,-3e-05,-0.00021,0.00056,0.00022,3e-05,-2e-05,-4e-05,5,8
25024,0,-3e-05,-0.00021,0.00056,0.00022,3e-05,-2e-05,-4e-05,5,8
25025,0,-3e-05,-0.00021,0.00056,0.00022,3e-05,-2e-05,-4e-05,5,8
25026,0,-3e-05,-0.00021,0.00056,0.00022,3e-05,-2e-05,-4e-05,5,8
25027,0,-3e-05,-0.00021,0.00056,0.00022,3e-05,-2e-05,-4e-05,5,8
25028,0,-3e-05,-0.00021,0.00056,0.00022,3e-05,-2e-05,-4e-05,5,8
25029,0,-3e-05,-0.00021,0.00056,0.00022,3e-05,-2e-05,-4e-05,5,8
25030,0,-3e-05,-0.00021,0.00056,0.00022,3e-05,-2e-05,-4e-05,5,8
25031,0,-3e-05,-0.00021,0.00056,0.00022,3e-05,-2e-05,-4e-05,5,8
25033,0,-3e-05,-0.00021,0.00056,0.00022,3e-05,-2e-05,-4e-05,5,8
25034,0,-3e-05,-0.00021,0.00056,0.00022,3e-05,-2e-05,-4e-05,5,8
25035,0,-3e-05,-0.00021,0.00056,0.00022,3e-05,-2e-05,-4e-05,5,8
25037,-0.00016,-0.00034,-0.00027,-0.00052,-0.00028,-0.00024,9e-05,-3e-05,5,8
25040,-3e-05,5e-05,0.00011,0.00016,0.00017,-3e-05,7e-05,2e-05,5,8
25041,-3e-05,5e-05,0.00011,0.00016,0.00017,-3e-05,7e-05,2e-05,5,8
25042,-3e-05,5e-05,0.00011,0.00016,0.00017,-3e-05,7e-05,2e-05,5,8
25043,-3e-05,5e-05,0.00011,0.00016,0.00017,-3e-05,7e-05,2e-05,5,8
25044,-3e-05,5e-05,0.00011,0.00016,0.00017,-3e-05,7e-05,2e-05,5,8
25045,-3e-05,5e-05,0.00011,0.00016,0.00017,-3e-05,7e-05,2e-05,5,8
25046,-3e-05,5e-05,0.00011,0.00016,0.00017,-3e-05,7e-05,2e-05,5,8
25047,-3e-05,5e-05,0.00011,0.00016,0.00017,-3e-05,7e-05,2e-05,5,8
25048,-3e-05,5e-05,0.00011,0.00016,0.00017,-3e-05,7e-05,2e-05,5,8
25049,-3e-05,5e-05,0.00011,0.00016,0.00017,-3e-05,7e-05,2e-05,5,8
25050,-5e-05,0.00012,-0.00046,-0.00047,-0.00018,0.00013,-0.00013,-6e-05,5,8
25051,-5e-05,0.00012,-0.00046,-0.00047,-0.00018,0.00013,-0.00013,-6e-05,5,8
25052,-5e-05,0.00012,-0.00046,-0.00047,-0.00018,0.00013,-0.00013,-6e-05,5,8
25053,-5e-05,0.00012,-0.00046,-0.00047,-0.00018,0.00013,-0.00013,-6e-05,5,8
25054,-5e-05,0.00012,-0.00046,-0.00047,-0.00018,0.00013,-0.00013,-6e-05,5,8
25055,-5e-05,0.00012,-0.00046,-0.00047,-0.00018,0.00013,-0.00013,-6e-05,5,8
25056,-5e-05,0.00012,-0.00046,-0.00047,-0.00018,0.00013,-0.00013,-6e-05,5,8
25057,-2e-05,-0.00016,3e-05,0.00069,-0.00047,-0.0005,1e-05,-6e-05,5,8
25058,-2e-05,-0.00016,3e-05,0.00069,-0.00047,-0.0005,1e-05,-6e-05,5,8
25059,-2e-05,-0.00016,3e-05,0.00069,-0.00047,-0.0005,1e-05,-6e-05,5,8
25060,-2e-05,-0.00016,3e-05,0.00069,-0.00047,-0.0005,1e-05,-6e-05,5,8
25061,-2e-05,-0.00016,3e-05,0.00069,-0.00047,-0.0005,1e-05,-6e-05,5,8
25062,-2e-05,-0.00016,3e-05,0.00069,-0.00047,-0.0005,1e-05,-6e-05,5,8
25063,-2e-05,-0.00016,3e-05,0.00069,-0.00047,-0.0005,1e-05,-6e-05,5,8
25064,-2e-05,-0.00016,3e-05,0.00069,-0.00047,-0.0005,1e-05,-6e-05,5,8
25065,-2e-05,-0.00016,3e-05,0.00069,-0.00047,-0.0005,1e-05,-6e-05,5,8
25066,-2e-05,-0.00016,3e-05,0.00069,-0.00047,-0.0005,1e-05,-6e-05,5,8
25067,-2e-05,-0.00016,3e-05,0.00069,-0.00047,-0.0005,1e-05,-6e-05,5,8
25068,-2e-05,-0.00016,3e-05,0.00069,-0.00047,-0.0005,1e-05,-6e-05,5,8
25069,-2e-05,-0.00016,3e-05,0.00069,-0.00047,-0.0005,1e-05,-6e-05,5,8
25070,-2e-05,-0.00016,3e-05,0.00069,-0.00047,-0.0005,1e-05,-6e-05,5,8
25071,-2e-05,-0.00016,3e-05,0.00069,-0.00047,-0.0005,1e-05,-6e-05,5,8
25072,-2e-05,-0.00016,3e-05,0.00069,-0.00047,-0.0005,1e-05,-6e-05,5,8
25073,-2e-05,-0.00016,3e-05,0.00069,-0.00047,-0.0005,1e-05,-6e-05,5,8
25074,1e-05,-6e-05,-0.00063,-0.00019,0.00032,2e-05,-0.00013,-4e-05,5,8
25075,-7e-05,-0.00016,-0.00013,-0.00041,-0.00049,0.00015,-9e-05,-6e-05,5,8
25076,-7e-05,-0.00016,-0.00013,-0.00041,-0.00049,0.00015,-9e-05,-6e-05,5,8
25077,-7e-05,-0.00016,-0.00013,-0.00041,-0.00049,0.00015,-9e-05,-6e-05,5,8
25078,-7e-05,-0.00016,-0.00013,-0.00041,-0.00049,0.00015,-9e-05,-6e-05,5,8
25079,-7e-05,-0.00016,-0.00013,-0.00041,-0.00049,0.00015,-9e-05,-6e-05,5,8
25080,-7e-05,-0.00016,-0.00013,-0.00041,-0.00049,0.00015,-9e-05,-6e-05,5,8
25081,-7e-05,-0.00016,-0.00013,-0.00041,-0.00049,0.00015,-9e-05,-6e-05,5,8
25082,-7e-05,-0.00016,-0.00013,-0.00041,-0.00049,0.00015,-9e-05,-6e-05,5,8
25083,-7e-05,-0.00016,-0.00013,-0.00041,-0.00049,0.00015,-9e-05,-6e-05,5,8
25084,-7e-05,-0.00016,-0.00013,-0.00041,-0.00049,0.00015,-9e-05,-6e-05,5,8
25085,-7e-05,-0.00016,-0.00013,-0.00041,-0.00049,0.00015,-9e-05,-6e-05,5,8
25086,-7e-05,-0.00016,-0.00013,-0.00041,-0.00049,0.00015,-9e-05,-6e-05,5,8
25089,-7e-05,-0.00016,-0.00013,-0.00041,-0.00049,0.00015,-9e-05,-6e-05,5,8
25090,-7e-05,-0.00016,-0.00013,-0.00041,-0.00049,0.00015,-9e-05,-6e-05,5,8
25091,-7e-05,-0.00016,-0.00013,-0.00041,-0.00049,0.00015,-9e-05,-6e-05,5,8
25092,-7e-05,-0.00016,-0.00013,-0.00041,-0.00049,0.00015,-9e-05,-6e-05,5,8
25093,-7e-05,-0.00016,-0.00013,-0.00041,-0.00049,0.00015,-9e-05,-6e-05,5,8
25094,-7e-05,-0.00016,-0.00013,-0.00041,-0.00049,0.00015,-9e-05,-6e-05,5,8
25095,-7e-05,-0.00016,-0.00013,-0.00041,-0.00049,0.00015,-9e-05,-6e-05,5,8
25096,-5e-05,-7e-05,-0.00019,-0.00076,-0.00021,8e-05,-9e-05,-6e-05,5,8
25097,-5e-05,-7e-05,-0.00019,-0.00076,-0.00021,8e-05,-9e-05,-6e-05,5,8
25098,0.0002,0,0.00028,-0.00015,0.0006,0.00011,5e-05,8e-05,5,8
25099,0.0002,0,0.00028,-0.00015,0.0006,0.00011,5e-05,8e-05,5,8
25100,0.0002,0,0.00028,-0.00015,0.0006,0.00011,5e-05,8e-05,5,8
25101,0.0002,0,0.00028,-0.00015,0.0006,0.00011,5e-05,8e-05,5,8
25102,0.0002,0,0.00028,-0.00015,0.0006,0.00011,5e-05,8e-05,5,8
25103,0.0002,0,0.00028,-0.00015,0.0006,0.00011,5e-05,8e-05,5,8
25104,0.0002,0,0.00028,-0.00015,0.0006,0.00011,5e-05,8e-05,5,8
25105,0.0002,0,0.00028,-0.00015,0.0006,0.00011,5e-05,8e-05,5,8
25106,0.0002,0,0.00028,-0.00015,0.0006,0.00011,5e-05,8e-05,5,8
25107,0.0002,0,0.00028,-0.00015,0.0006,0.00011,5e-05,8e-05,5,8
25108,0.0002,0,0.00028,-0.00015,0.0006,0.00011,5e-05,8e-05,5,8
25109,0.0002,0,0.00028,-0.00015,0.0006,0.00011,5e-05,8e-05,5,8
25110,-2e-05,0.00017,0.00021,-8e-05,0.00015,-0.00012,0.00024,5e-05,5,8
25111,-2e-05,0.00017,0.00021,-8e-05,0.00015,-0.00012,0.00024,5e-05,5,8
25112,-2e-05,0.00017,0.00021,-8e-05,0.00015,-0.00012,0.00024,5e-05,5,8
25113,-2e-05,0.00017,0.00021,-8e-05,0.00015,-0.00012,0.00024,5e-05,5,8
25114,-2e-05,0.00017,0.00021,-8e-05,0.00015,-0.00012,0.00024,5e-05,5,8
25115,-2e-05,0.00017,0.00021,-8e-05,0.00015,-0.00012,0.00024,5e-05,5,8
25116,-2e-05,0.00017,0.00021,-8e-05,0.00015,-0.00012,0.00024,5e-05,5,8
25117,6e-05,0.00011,0.00022,-0.00058,4e-05,0.00012,3e-05,2e-05,5,8
25118,6e-05,0.00011,0.00022,-0.00058,4e-05,0.00012,3e-05,2e-05,5,8
25119,6e-05,0.00011,0.00022,-0.00058,4e-05,0.00012,3e-05,2e-05,5,8
25120,6e-05,0.00011,0.00022,-0.00058,4e-05,0.00012,3e-05,2e-05,5,8
25121,6e-05,0.00011,0.00022,-0.00058,4e-05,0.00012,3e-05,2e-05,5,8
25122,6e-05,0.00011,0.00022,-0.00058,4e-05,0.00012,3e-05,2e-05,5,8
25123,6e-05,0.00011,0.00022,-0.00058,4e-05,0.00012,3e-05,2e-05,5,8
25124,6e-05,0.00011,0.00022,-0.00058,4e-05,0.00012,3e-05,2e-05,5,8
25125,6e-05,0.00011,0.00022,-0.00058,4e-05,0.00012,3e-05,2e-05,5,8
25126,6e-05,0.00011,0.00022,-0.00058,4e-05,0.00012,3e-05,2e-05,5,8
25127,6e-05,0.00011,0.00022,-0.00058,4e-05,0.00012,3e-05,2e-05,5,8
25128,6e-05,0.00011,0.00022,-0.00058,4e-05,0.00012,3e-05,2e-05,5,8
25129,6e-05,0.00011,0.00022,-0.00058,4e-05,0.00012,3e-05,2e-05,5,8
25130,6e-05,0.00011,0.00022,-0.00058,4e-05,0.00012,3e-05,2e-05,5,8
25131,6e-05,0.00011,0.00022,-0.00058,4e-05,0.00012,3e-05,2e-05,5,8
25132,6e-05,0.00011,0.00022,-0.00058,4e-05,0.00012,3e-05,2e-05,5,8
25133,6e-05,0.00011,0.00022,-0.00058,4e-05,0.00012,3e-05,2e-05,5,8
25134,4e-05,0.0002,-0.00012,0.00037,0.0006,-0.00017,-5e-05,-2e-05,5,8
25135,7e-05,0.00041,-0.00019,-1e-05,-9e-05,5e-05,0.00018,4e-05,5,8
25136,7e-05,0.00041,-0.00019,-1e-05,-9e-05,5e-05,0.00018,4e-05,5,8
25138,7e-05,0.00041,-0.00019,-1e-05,-9e-05,5e-05,0.00018,4e-05,5,8
25139,7e-05,0.00041,-0.00019,-1e-05,-9e-05,5e-05,0.00018,4e-05,5,8
25140,7e-05,0.00041,-0.00019,-1e-05,-9e-05,5e-05,0.00018,4e-05,5,8
25141,7e-05,0.00041,-0.00019,-1e-05,-9e-05,5e-05,0.00018,4e-05,5,8
25142,7e-05,0.00041,-0.00019,-1e-05,-9e-05,5e-05,0.00018,4e-05,5,8
25143,7e-05,0.00041,-0.00019,-1e-05,-9e-05,5e-05,0.00018,4e-05,5,8
25144,7e-05,0.00041,-0.00019,-1e-05,-9e-05,5e-05,0.00018,4e-05,5,8
25145,7e-05,0.00041,-0.00019,-1e-05,-9e-05,5e-05,0.00018,4e-05,5,8
25146,7e-05,0.00041,-0.00019,-1e-05,-9e-05,5e-05,0.00018,4e-05,5,8
25147,7e-05,0.00041,-0.00019,-1e-05,-9e-05,5e-05,0.00018,4e-05,5,8
25148,7e-05,0.00041,-0.00019,-1e-05,-9e-05,5e-05,0.00018,4e-05,5,8
25149,7e-05,0.00041,-0.00019,-1e-05,-9e-05,5e-05,0.00018,4e-05,5,8
25150,7e-05,0.00041,-0.00019,-1e-05,-9e-05,5e-05,0.00018,4e-05,5,8
25151,7e-05,0.00041,-0.00019,-1e-05,-9e-05,5e-05,0.00018,4e-05,5,8
25152,7e-05,0.00041,-0.00019,-1e-05,-9e-05,5e-05,0.00018,4e-05,5,8
25153,7e-05,0.00041,-0.00019,-1e-05,-9e-05,5e-05,0.00018,4e-05,5,8
25154,7e-05,0.00041,-0.00019,-1e-05,-9e-05,5e-05,0.00018,4e-05,5,8
25155,7e-05,0.00041,-0.00019,-1e-05,-9e-05,5e-05,0.00018,4e-05,5,8
25156,-0.00011,0,0,0.00067,-0.00081,-9e-05,-3e-05,1e-05,5,8
25157,-0.00011,0,0,0.00067,-0.00081,-9e-05,-3e-05,1e-05,5,8
25158,-0.0001,-0.00018,-0.00028,0,2e-05,-0.00018,-0.0001,-4e-05,5,8
25159,-0.0001,-0.00018,-0.00028,0,2e-05,-0.00018,-0.0001,-4e-05,5,8
25160,-0.0001,-0.00018,-0.00028,0,2e-05,-0.00018,-0.0001,-4e-05,5,8
25161,-0.0001,-0.00018,-0.00028,0,2e-05,-0.00018,-0.0001,-4e-05,5,8
25162,-0.0001,-0.00018,-0.00028,0,2e-05,-0.00018,-0.0001,-4e-05,5,8
25163,-0.0001,-0.00018,-0.00028,0,2e-05,-0.00018,-0.0001,-4e-05,5,8
25164,-0.0001,-0.00018,-0.00028,0,2e-05,-0.00018,-0.0001,-4e-05,5,8
25165,-0.0001,-0.00018,-0.00028,0,2e-05,-0.00018,-0.0001,-4e-05,5,8
25166,-0.0001,-0.00018,-0.00028,0,2e-05,-0.00018,-0.0001,-4e-05,5,8
25167,-0.0001,-0.00018,-0.00028,0,2e-05,-0.00018,-0.0001,-4e-05,5,8
25168,-0.0001,-0.00018,-0.00028,0,2e-05,-0.00018,-0.0001,-4e-05,5,8
25169,-0.0001,-0.00018,-0.00028,0,2e-05,-0.00018,-0.0001,-4e-05,5,8
25170,-5e-05,-9e-05,-0.00046,7e-05,-0.0002,0.0002,3e-05,-2e-05,5,8
25171,-5e-05,-9e-05,-0.00046,7e-05,-0.0002,0.0002,3e-05,-2e-05,5,8
25172,-5e-05,-9e-05,-0.00046,7e-05,-0.0002,0.0002,3e-05,-2e-05,5,8
25173,-5e-05,-9e-05,-0.00046,7e-05,-0.0002,0.0002,3e-05,-2e-05,5,8
25174,-5e-05,-9e-05,-0.00046,7e-05,-0.0002,0.0002,3e-05,-2e-05,5,8
25175,-5e-05,-9e-05,-0.00046,7e-05,-0.0002,0.0002,3e-05,-2e-05,5,8
25176,-5e-05,-9e-05,-0.00046,7e-05,-0.0002,0.0002,3e-05,-2e-05,5,8
25177,-5e-05,-9e-05,-0.00046,7e-05,-0.0002,0.0002,3e-05,-2e-05,5,8
25178,-5e-05,-9e-05,-0.00046,7e-05,-0.0002,0.0002,3e-05,-2e-05,5,8
25179,0.00014,5e-05,0.00019,0.00091,0.00012,-2e-05,3e-05,1e-05,5,8
25180,0.00014,5e-05,0.00019,0.00091,0.00012,-2e-05,3e-05,1e-05,5,8
25181,0.00014,5e-05,0.00019,0.00091,0.00012,-2e-05,3e-05,1e-05,5,8
25182,0.00014,5e-05,0.00019,0.00091,0.00012,-2e-05,3e-05,1e-05,5,8
25183,0.00014,5e-05,0.00019,0.00091,0.00012,-2e-05,3e-05,1e-05,5,8
25184,0.00014,5e-05,0.00019,0.00091,0.00012,-2e-05,3e-05,1e-05,5,8
25185,0.00014,5e-05,0.00019,0.00091,0.00012,-2e-05,3e-05,1e-05,5,8
25186,0.00014,5e-05,0.00019,0.00091,0.00012,-2e-05,3e-05,1e-05,5,8
25188,0.00014,5e-05,0.00019,0.00091,0.00012,-2e-05,3e-05,1e-05,5,8
25190,0.00014,5e-05,0.00019,0.00091,0.00012,-2e-05,3e-05,1e-05,5,8
25191,0.00014,5e-05,0.00019,0.00091,0.00012,-2e-05,3e-05,1e-05,5,8
25192,0.00014,5e-05,0.00019,0.00091,0.00012,-2e-05,3e-05,1e-05,5,8
25193,0.00014,5e-05,0.00019,0.00091,0.00012,-2e-05,3e-05,1e-05,5,8
25194,5e-05,-9e-05,0.00018,-0.00088,-5e-05,0.00012,-2e-05,3e-05,5,8
25195,6e-05,2e-05,0.00011,-0.00039,0.00079,9e-05,0.00013,6e-05,5,8
25196,6e-05,2e-05,0.00011,-0.00039,0.00079,9e-05,0.00013,6e-05,5,8
25197,6e-05,2e-05,0.00011,-0.00039,0.00079,9e-05,0.00013,6e-05,5,8
25198,6e-05,2e-05,0.00011,-0.00039,0.00079,9e-05,0.00013,6e-05,5,8
25199,6e-05,2e-05,0.00011,-0.00039,0.00079,9e-05,0.00013,6e-05,5,8
25200,6e-05,2e-05,0.00011,-0.00039,0.00079,9e-05,0.00013,6e-05,5,8
25201,6e-05,2e-05,0.00011,-0.00039,0.00079,9e-05,0.00013,6e-05,5,8
25202,6e-05,2e-05,0.00011,-0.00039,0.00079,9e-05,0.00013,6e-05,5,8
25203,6e-05,2e-05,0.00011,-0.00039,0.00079,9e-05,0.00013,6e-05,5,8
25204,6e-05,2e-05,0.00011,-0.00039,0.00079,9e-05,0.00013,6e-05,5,8
25205,6e-05,2e-05,0.00011,-0.00039,0.00079,9e-05,0.00013,6e-05,5,8
25206,6e-05,2e-05,0.00011,-0.00039,0.00079,9e-05,0.00013,6e-05,5,8
25207,6e-05,2e-05,0.00011,-0.00039,0.00079,9e-05,0.00013,6e-05,5,8
25208,6e-05,2e-05,0.00011,-0.00039,0.00079,9e-05,0.00013,6e-05,5,8
25209,6e-05,2e-05,0.00011,-0.00039,0.00079,9e-05,0.00013,6e-05,5,8
25210,6e-05,2e-05,0.00011,-0.00039,0.00079,9e-05,0.00013,6e-05,5,8
25211,6e-05,2e-05,0.00011,-0.00039,0.00079,9e-05,0.00013,6e-05,5,8
25212,6e-05,2e-05,0.00011,-0.00039,0.00079,9e-05,0.00013,6e-05,5,8
25213,6e-05,2e-05,0.00011,-0.00039,0.00079,9e-05,0.00013,6e-05,5,8
25214,6e-05,2e-05,0.00011,-0.00039,0.00079,9e-05,0.00013,6e-05,5,8
25215,6e-05,2e-05,0.00011,-0.00039,0.00079,9e-05,0.00013,6e-05,5,8
25216,0,-2e-05,0.00026,0.00016,0.00032,-3e-05,-0.00011,-4e-05,5,8
25218,3e-05,0.00025,0.00064,0.00017,-0.00056,0.00034,6e-05,9e-05,5,8
25219,3e-05,0.00025,0.00064,0.00017,-0.00056,0.00034,6e-05,9e-05,5,8
25220,3e-05,0.00025,0.00064,0.00017,-0.00056,0.00034,6e-05,9e-05,5,8
25221,3e-05,0.00025,0.00064,0.00017,-0.00056,0.00034,6e-05,9e-05,5,8
25222,3e-05,0.00025,0.00064,0.00017,-0.00056,0.00034,6e-05,9e-05,5,8
25223,3e-05,0.00025,0.00064,0.00017,-0.00056,0.00034,6e-05,9e-05,5,8
25224,3e-05,0.00025,0.00064,0.00017,-0.00056,0.00034,6e-05,9e-05,5,8
25225,3e-05,0.00025,0.00064,0.00017,-0.00056,0.00034,6e-05,9e-05,5,8
25226,3e-05,0.00025,0.00064,0.00017,-0.00056,0.00034,6e-05,9e-05,5,8
25227,3e-05,0.00025,0.00064,0.00017,-0.00056,0.00034,6e-05,9e-05,5,8
25228,3e-05,0.00025,0.00064,0.00017,-0.00056,0.00034,6e-05,9e-05,5,8
25229,3e-05,0.00025,0.00064,0.00017,-0.00056,0.00034,6e-05,9e-05,5,8
25230,-4e-05,-0.00039,-0.00036,-2e-05,0.00023,5e-05,-8e-05,-2e-05,5,8
25231,-4e-05,-0.00039,-0.00036,-2e-05,0.00023,5e-05,-8e-05,-2e-05,5,8
25232,-4e-05,-0.00039,-0.00036,-2e-05,0.00023,5e-05,-8e-05,-2e-05,5,8
25233,-4e-05,-0.00039,-0.00036,-2e-05,0.00023,5e-05,-8e-05,-2e-05,5,8
25234,-4e-05,-0.00039,-0.00036,-2e-05,0.00023,5e-05,-8e-05,-2e-05,5,8
25236,-4e-05,-0.00039,-0.00036,-2e-05,0.00023,5e-05,-8e-05,-2e-05,5,8
25237,-4e-05,-0.00039,-0.00036,-2e-05,0.00023,5e-05,-8e-05,-2e-05,5,8
25238,-4e-05,-0.00039,-0.00036,-2e-05,0.00023,5e-05,-8e-05,-2e-05,5,8
25239,-0.00016,5e-05,-0.0003,-0.00013,6e-05,0.00014,-4e-05,-7e-05,5,8
25240,-0.00016,5e-05,-0.0003,-0.00013,6e-05,0.00014,-4e-05,-7e-05,5,8
25241,-0.00016,5e-05,-0.0003,-0.00013,6e-05,0.00014,-4e-05,-7e-05,5,8
25242,-0.00016,5e-05,-0.0003,-0.00013,6e-05,0.00014,-4e-05,-7e-05,5,8
25243,-0.00016,5e-05,-0.0003,-0.00013,6e-05,0.00014,-4e-05,-7e-05,5,8
25244,-0.00016,5e-05,-0.0003,-0.00013,6e-05,0.00014,-4e-05,-7e-05,5,8
25245,-0.00016,5e-05,-0.0003,-0.00013,6e-05,0.00014,-4e-05,-7e-05,5,8
25246,-0.00016,5e-05,-0.0003,-0.00013,6e-05,0.00014,-4e-05,-7e-05,5,8
25247,-0.00016,5e-05,-0.0003,-0.00013,6e-05,0.00014,-4e-05,-7e-05,5,8
25248,-0.00016,5e-05,-0.0003,-0.00013,6e-05,0.00014,-4e-05,-7e-05,5,8
25249,-0.00016,5e-05,-0.0003,-0.00013,6e-05,0.00014,-4e-05,-7e-05,5,8
25250,-0.00016,5e-05,-0.0003,-0.00013,6e-05,0.00014,-4e-05,-7e-05,5,8
25251,-0.00016,5e-05,-0.0003,-0.00013,6e-05,0.00014,-4e-05,-7e-05,5,8
25252,-0.00016,5e-05,-0.0003,-0.00013,6e-05,0.00014,-4e-05,-7e-05,5,8
25253,-0.00016,5e-05,-0.0003,-0.00013,6e-05,0.00014,-4e-05,-7e-05,5,8
25254,7e-05,0.00016,0.0004,0.00068,-0.00017,-0.00011,-1e-05,0,5,8
25255,-0.00019,-0.00011,-0.00028,-0.00053,-0.00032,-0.00021,0.00017,-3e-05,5,8
25256,-0.00019,-0.00011,-0.00028,-0.00053,-0.00032,-0.00021,0.00017,-3e-05,5,8
25257,-0.00019,-0.00011,-0.00028,-0.00053,-0.00032,-0.00021,0.00017,-3e-05,5,8
25258,-0.00019,-0.00011,-0.00028,-0.00053,-0.00032,-0.00021,0.00017,-3e-05,5,8
25259,-0.00019,-0.00011,-0.00028,-0.00053,-0.00032,-0.00021,0.00017,-3e-05,5,8
25260,-0.00019,-0.00011,-0.00028,-0.00053,-0.00032,-0.00021,0.00017,-3e-05,5,8
25261,-0.00019,-0.00011,-0.00028,-0.00053,-0.00032,-0.00021,0.00017,-3e-05,5,8
25262,-0.00019,-0.00011,-0.00028,-0.00053,-0.00032,-0.00021,0.00017,-3e-05,5,8
25263,-0.00019,-0.00011,-0.00028,-0.00053,-0.00032,-0.00021,0.00017,-3e-05,5,8
25264,-0.00019,-0.00011,-0.00028,-0.00053,-0.00032,-0.00021,0.00017,-3e-05,5,8
25265,-0.00019,-0.00011,-0.00028,-0.00053,-0.00032,-0.00021,0.00017,-3e-05,5,8
25266,-0.00019,-0.00011,-0.00028,-0.00053,-0.00032,-0.00021,0.00017,-3e-05,5,8
25267,-0.00019,-0.00011,-0.00028,-0.00053,-0.00032,-0.00021,0.00017,-3e-05,5,8
25268,-0.00019,-0.00011,-0.00028,-0.00053,-0.00032,-0.00021,0.00017,-3e-05,5,8
25269,-0.00019,-0.00011,-0.00028,-0.00053,-0.00032,-0.00021,0.00017,-3e-05,5,8
25270,-0.00019,-0.00011,-0.00028,-0.00053,-0.00032,-0.00021,0.00017,-3e-05,5,8
25271,-0.00019,-0.00011,-0.00028,-0.00053,-0.00032,-0.00021,0.00017,-3e-05,5,8
25272,-0.00019,-0.00011,-0.00028,-0.00053,-0.00032,-0.00021,0.00017,-3e-05,5,8
25273,-0.00019,-0.00011,-0.00028,-0.00053,-0.00032,-0.00021,0.00017,-3e-05,5,8
25274,-0.00019,-0.00011,-0.00028,-0.00053,-0.00032,-0.00021,0.00017,-3e-05,5,8
25275,-0.00019,-0.00011,-0.00028,-0.00053,-0.00032,-0.00021,0.00017,-3e-05,5,8
25276,-0.00012,-0.00021,0.00057,0.0003,-0.00012,-0.00017,-8e-05,3e-05,5,8
25277,-0.00012,-0.00021,0.00057,0.0003,-0.00012,-0.00017,-8e-05,3e-05,5,8
25278,0.00015,0.00011,0.00035,7e-05,0.00011,0.00014,-0.00023,-3e-05,5,8
25279,0.00015,0.00011,0.00035,7e-05,0.00011,0.00014,-0.00023,-3e-05,5,8
25280,0.00015,0.00011,0.00035,7e-05,0.00011,0.00014,-0.00023,-3e-05,5,8
25281,0.00015,0.00011,0.00035,7e-05,0.00011,0.00014,-0.00023,-3e-05,5,8
25282,0.00015,0.00011,0.00035,7e-05,0.00011,0.00014,-0.00023,-3e-05,5,8
25283,0.00015,0.00011,0.00035,7e-05,0.00011,0.00014,-0.00023,-3e-05,5,8
25284,0.00015,0.00011,0.00035,7e-05,0.00011,0.00014,-0.00023,-3e-05,5,8
25285,0.00015,0.00011,0.00035,7e-05,0.00011,0.00014,-0.00023,-3e-05,5,8
25286,0.00015,0.00011,0.00035,7e-05,0.00011,0.00014,-0.00023,-3e-05,5,8
25289,0.00015,0.00011,0.00035,7e-05,0.00011,0.00014,-0.00023,-3e-05,5,8
25290,8e-05,2e-05,0.00016,-0.00027,-0.00013,2e-05,6e-05,4e-05,5,8
25291,8e-05,2e-05,0.00016,-0.00027,-0.00013,2e-05,6e-05,4e-05,5,8
25292,8e-05,2e-05,0.00016,-0.00027,-0.00013,2e-05,6e-05,4e-05,5,8
25293,8e-05,2e-05,0.00016,-0.00027,-0.00013,2e-05,6e-05,4e-05,5,8
25294,8e-05,2e-05,0.00016,-0.00027,-0.00013,2e-05,6e-05,4e-05,5,8
25295,8e-05,2e-05,0.00016,-0.00027,-0.00013,2e-05,6e-05,4e-05,5,8
25296,8e-05,2e-05,0.00016,-0.00027,-0.00013,2e-05,6e-05,4e-05,5,8
25297,8e-05,2e-05,0.00016,-0.00027,-0.00013,2e-05,6e-05,4e-05,5,8
25298,8e-05,2e-05,0.00016,-0.00027,-0.00013,2e-05,6e-05,4e-05,5,8
25299,-0.00016,-0.00023,-0.00101,-0.00062,-0.0009,-0.00058,-0.0001,-0.00015,5,8
25300,-0.00016,-0.00023,-0.00101,-0.00062,-0.0009,-0.00058,-0.0001,-0.00015,5,8
25301,-0.00016,-0.00023,-0.00101,-0.00062,-0.0009,-0.00058,-0.0001,-0.00015,5,8
25302,-0.00016,-0.00023,-0.00101,-0.00062,-0.0009,-0.00058,-0.0001,-0.00015,5,8
25303,-0.00016,-0.00023,-0.00101,-0.00062,-0.0009,-0.00058,-0.0001,-0.00015,5,8
25304,-0.00016,-0.00023,-0.00101,-0.00062,-0.0009,-0.00058,-0.0001,-0.00015,5,8
25305,-0.00016,-0.00023,-0.00101,-0.00062,-0.0009,-0.00058,-0.0001,-0.00015,5,8
25306,-0.00016,-0.00023,-0.00101,-0.00062,-0.0009,-0.00058,-0.0001,-0.00015,5,8
25307,-0.00016,-0.00023,-0.00101,-0.00062,-0.0009,-0.00058,-0.0001,-0.00015,5,8
25308,-0.00016,-0.00023,-0.00101,-0.00062,-0.0009,-0.00058,-0.0001,-0.00015,5,8
25309,-0.00016,-0.00023,-0.00101,-0.00062,-0.0009,-0.00058,-0.0001,-0.00015,5,8
25310,-0.00016,-0.00023,-0.00101,-0.00062,-0.0009,-0.00058,-0.0001,-0.00015,5,8
25311,-0.00016,-0.00023,-0.00101,-0.00062,-0.0009,-0.00058,-0.0001,-0.00015,5,8
25312,-0.00016,-0.00023,-0.00101,-0.00062,-0.0009,-0.00058,-0.0001,-0.00015,5,8
25313,-0.00016,-0.00023,-0.00101,-0.00062,-0.0009,-0.00058,-0.0001,-0.00015,5,8
25314,1e-05,0.00013,-0.00011,-0.0001,-0.00044,-4e-05,-1e-05,-1e-05,5,8
25315,5e-05,-0.00015,3e-05,-5e-05,-0.00027,-4e-05,-4e-05,4e-05,5,8
25317,5e-05,-0.00015,3e-05,-5e-05,-0.00027,-4e-05,-4e-05,4e-05,5,8
25318,5e-05,-0.00015,3e-05,-5e-05,-0.00027,-4e-05,-4e-05,4e-05,5,8
25319,5e-05,-0.00015,3e-05,-5e-05,-0.00027,-4e-05,-4e-05,4e-05,5,8
25320,5e-05,-0.00015,3e-05,-5e-05,-0.00027,-4e-05,-4e-05,4e-05,5,8
25321,5e-05,-0.00015,3e-05,-5e-05,-0.00027,-4e-05,-4e-05,4e-05,5,8
25322,5e-05,-0.00015,3e-05,-5e-05,-0.00027,-4e-05,-4e-05,4e-05,5,8
25323,5e-05,-0.00015,3e-05,-5e-05,-0.00027,-4e-05,-4e-05,4e-05,5,8
25324,5e-05,-0.00015,3e-05,-5e-05,-0.00027,-4e-05,-4e-05,4e-05,5,8
25325,5e-05,-0.00015,3e-05,-5e-05,-0.00027,-4e-05,-4e-05,4e-05,5,8
25326,5e-05,-0.00015,3e-05,-5e-05,-0.00027,-4e-05,-4e-05,4e-05,5,8
25327,5e-05,-0.00015,3e-05,-5e-05,-0.00027,-4e-05,-4e-05,4e-05,5,8
25328,5e-05,-0.00015,3e-05,-5e-05,-0.00027,-4e-05,-4e-05,4e-05,5,8
25329,5e-05,-0.00015,3e-05,-5e-05,-0.00027,-4e-05,-4e-05,4e-05,5,8
25330,5e-05,-0.00015,3e-05,-5e-05,-0.00027,-4e-05,-4e-05,4e-05,5,8
25331,5e-05,-0.00015,3e-05,-5e-05,-0.00027,-4e-05,-4e-05,4e-05,5,8
25332,5e-05,-0.00015,3e-05,-5e-05,-0.00027,-4e-05,-4e-05,4e-05,5,8
25333,5e-05,-0.00015,3e-05,-5e-05,-0.00027,-4e-05,-4e-05,4e-05,5,8
25334,5e-05,-0.00015,3e-05,-5e-05,-0.00027,-4e-05,-4e-05,4e-05,5,8
25335,5e-05,-0.00015,3e-05,-5e-05,-0.00027,-4e-05,-4e-05,4e-05,5,8
25336,2e-05,-0.00013,0.00021,0.00077,0.00044,0.00011,0.0001,5e-05,5,8
25339,0.0001,0.00031,0.00081,0.00098,0.00043,0.00024,0.00024,0.00013,5,8
25340,0.0001,0.00031,0.00081,0.00098,0.00043,0.00024,0.00024,0.00013,5,8
25341,0.0001,0.00031,0.00081,0.00098,0.00043,0.00024,0.00024,0.00013,5,8
25342,0.0001,0.00031,0.00081,0.00098,0.00043,0.00024,0.00024,0.00013,5,8
25343,0.0001,0.00031,0.00081,0.00098,0.00043,0.00024,0.00024,0.00013,5,8
25344,0.0001,0.00031,0.00081,0.00098,0.00043,0.00024,0.00024,0.00013,5,8
25345,0.0001,0.00031,0.00081,0.00098,0.00043,0.00024,0.00024,0.00013,5,8
25346,0.0001,0.00031,0.00081,0.00098,0.00043,0.00024,0.00024,0.00013,5,8
25347,0.0001,0.00031,0.00081,0.00098,0.00043,0.00024,0.00024,0.00013,5,8
25348,0.0001,0.00031,0.00081,0.00098,0.00043,0.00024,0.00024,0.00013,5,8
54847,-3e-05,-0.00028,-0.00029,1e-05,0.00075,6e-05,1e-05,-1e-05,5,8
54848,-3e-05,0.00046,-0.00032,-0.00099,-0.00052,-0.00031,-4e-05,-0.00013,5,8
54849,-3e-05,0.00046,-0.00032,-0.00099,-0.00052,-0.00031,-4e-05,-0.00013,5,8
54850,-3e-05,0.00046,-0.00032,-0.00099,-0.00052,-0.00031,-4e-05,-0.00013,5,8
54851,-3e-05,0.00046,-0.00032,-0.00099,-0.00052,-0.00031,-4e-05,-0.00013,5,8
54852,-3e-05,0.00046,-0.00032,-0.00099,-0.00052,-0.00031,-4e-05,-0.00013,5,8
54853,-3e-05,0.00046,-0.00032,-0.00099,-0.00052,-0.00031,-4e-05,-0.00013,5,8
54854,-3e-05,0.00046,-0.00032,-0.00099,-0.00052,-0.00031,-4e-05,-0.00013,5,8
54855,-3e-05,0.00046,-0.00032,-0.00099,-0.00052,-0.00031,-4e-05,-0.00013,5,8
54856,-3e-05,0.00046,-0.00032,-0.00099,-0.00052,-0.00031,-4e-05,-0.00013,5,8
54857,-6e-05,3e-05,-0.00014,-0.001,-0.00026,-2e-05,0.00016,3e-05,5,8
54858,-6e-05,3e-05,-0.00014,-0.001,-0.00026,-2e-05,0.00016,3e-05,5,8
54859,-6e-05,3e-05,-0.00014,-0.001,-0.00026,-2e-05,0.00016,3e-05,5,8
54860,-6e-05,3e-05,-0.00014,-0.001,-0.00026,-2e-05,0.00016,3e-05,5,8
54861,-6e-05,3e-05,-0.00014,-0.001,-0.00026,-2e-05,0.00016,3e-05,5,8
54862,-6e-05,3e-05,-0.00014,-0.001,-0.00026,-2e-05,0.00016,3e-05,5,8
54863,-6e-05,3e-05,-0.00014,-0.001,-0.00026,-2e-05,0.00016,3e-05,5,8
54864,-6e-05,3e-05,-0.00014,-0.001,-0.00026,-2e-05,0.00016,3e-05,5,8
54865,-6e-05,3e-05,-0.00014,-0.001,-0.00026,-2e-05,0.00016,3e-05,5,8
54866,-6e-05,3e-05,-0.00014,-0.001,-0.00026,-2e-05,0.00016,3e-05,5,8
54867,-6e-05,3e-05,-0.00014,-0.001,-0.00026,-2e-05,0.00016,3e-05,5,8
54868,-6e-05,3e-05,-0.00014,-0.001,-0.00026,-2e-05,0.00016,3e-05,5,8
54869,-6e-05,3e-05,-0.00014,-0.001,-0.00026,-2e-05,0.00016,3e-05,5,8
54870,-6e-05,3e-05,-0.00014,-0.001,-0.00026,-2e-05,0.00016,3e-05,5,8
54871,1e-05,0.00037,0.00011,0.00014,-0.00128,-0.00027,4e-05,-1e-05,5,8
54872,-0.00021,-0.00014,-0.00119,-0.00056,-0.00034,0.00018,-0.00033,-0.00022,5,8
54873,-0.00021,-0.00014,-0.00119,-0.00056,-0.00034,0.00018,-0.00033,-0.00022,5,8
54874,-0.00021,-0.00014,-0.00119,-0.00056,-0.00034,0.00018,-0.00033,-0.00022,5,8
54875,-0.00021,-0.00014,-0.00119,-0.00056,-0.00034,0.00018,-0.00033,-0.00022,5,8
54876,-0.00021,-0.00014,-0.00119,-0.00056,-0.00034,0.00018,-0.00033,-0.00022,5,8
54877,-0.00021,-0.00014,-0.00119,-0.00056,-0.00034,0.00018,-0.00033,-0.00022,5,8
54878,-0.00021,-0.00014,-0.00119,-0.00056,-0.00034,0.00018,-0.00033,-0.00022,5,8
54879,-0.00021,-0.00014,-0.00119,-0.00056,-0.00034,0.00018,-0.00033,-0.00022,5,8
54880,-0.00021,-0.00014,-0.00119,-0.00056,-0.00034,0.00018,-0.00033,-0.00022,5,8
54881,-0.00021,-0.00014,-0.00119,-0.00056,-0.00034,0.00018,-0.00033,-0.00022,5,8
54882,-0.00021,-0.00014,-0.00119,-0.00056,-0.00034,0.00018,-0.00033,-0.00022,5,8
54883,-0.00021,-0.00014,-0.00119,-0.00056,-0.00034,0.00018,-0.00033,-0.00022,5,8
