22126,7e-05,1e-05,3e-05,-6e-05,0.00034,-3e-05,0,0,5,9
22127,7e-05,1e-05,3e-05,-6e-05,0.00034,-3e-05,0,0,5,9
22128,7e-05,1e-05,3e-05,-6e-05,0.00034,-3e-05,0,0,5,9
22129,7e-05,1e-05,3e-05,-6e-05,0.00034,-3e-05,0,0,5,9
22130,7e-05,1e-05,3e-05,-6e-05,0.00034,-3e-05,0,0,5,9
22131,7e-05,1e-05,3e-05,-6e-05,0.00034,-3e-05,0,0,5,9
22132,7e-05,1e-05,3e-05,-6e-05,0.00034,-3e-05,0,0,5,9
22133,7e-05,1e-05,3e-05,-6e-05,0.00034,-3e-05,0,0,5,9
22134,7e-05,1e-05,3e-05,-6e-05,0.00034,-3e-05,0,0,5,9
22135,-8e-05,3e-05,7e-05,7e-05,0.00024,2e-05,-4e-05,-6e-05,5,9
22136,-8e-05,3e-05,7e-05,7e-05,0.00024,2e-05,-4e-05,-6e-05,5,9
22139,-0.00017,-0.00013,-7e-05,-0.00016,-0.00027,-1e-05,-5e-05,-8e-05,5,9
22140,-0.00017,-0.00013,-7e-05,-0.00016,-0.00027,-1e-05,-5e-05,-8e-05,5,9
22141,-0.00017,-0.00013,-7e-05,-0.00016,-0.00027,-1e-05,-5e-05,-8e-05,5,9
22142,-0.00017,-0.00013,-7e-05,-0.00016,-0.00027,-1e-05,-5e-05,-8e-05,5,9
22143,-0.00017,-0.00013,-7e-05,-0.00016,-0.00027,-1e-05,-5e-05,-8e-05,5,9
22144,-0.00017,-0.00013,-7e-05,-0.00016,-0.00027,-1e-05,-5e-05,-8e-05,5,9
22145,-0.00017,-0.00013,-7e-05,-0.00016,-0.00027,-1e-05,-5e-05,-8e-05,5,9
22146,-0.00017,-0.00013,-7e-05,-0.00016,-0.00027,-1e-05,-5e-05,-8e-05,5,9
22147,-0.00017,-0.00013,-7e-05,-0.00016,-0.00027,-1e-05,-5e-05,-8e-05,5,9
22148,-0.00017,-0.00013,-7e-05,-0.00016,-0.00027,-1e-05,-5e-05,-8e-05,5,9
22149,-0.00017,-0.00013,-7e-05,-0.00016,-0.00027,-1e-05,-5e-05,-8e-05,5,9
22150,-0.00017,-0.00013,-7e-05,-0.00016,-0.00027,-1e-05,-5e-05,-8e-05,5,9
22151,-0.00017,-0.00013,-7e-05,-0.00016,-0.00027,-1e-05,-5e-05,-8e-05,5,9
22152,-0.00017,-0.00013,-7e-05,-0.00016,-0.00027,-1e-05,-5e-05,-8e-05,5,9
22153,-0.00017,-0.00013,-7e-05,-0.00016,-0.00027,-1e-05,-5e-05,-8e-05,5,9
22154,-0.00017,-0.00013,-7e-05,-0.00016,-0.00027,-1e-05,-5e-05,-8e-05,5,9
22155,-0.00017,-0.00013,-7e-05,-0.00016,-0.00027,-1e-05,-5e-05,-8e-05,5,9
22156,-0.00017,-0.00013,-7e-05,-0.00016,-0.00027,-1e-05,-5e-05,-8e-05,5,9
22157,-3e-05,-4e-05,2e-05,-0.00019,-0.00029,-4e-05,-5e-05,4e-05,5,9
22158,3e-05,2e-05,0,-0.00021,6e-05,5e-05,3e-05,1e-05,5,9
22159,4e-05,-2e-05,-0.0001,-0.0003,-0.00057,-3e-05,-2e-05,0,5,9
22160,4e-05,-2e-05,-0.0001,-0.0003,-0.00057,-3e-05,-2e-05,0,5,9
22161,4e-05,-2e-05,-0.0001,-0.0003,-0.00057,-3e-05,-2e-05,0,5,9
22162,4e-05,-2e-05,-0.0001,-0.0003,-0.00057,-3e-05,-2e-05,0,5,9
22163,4e-05,-2e-05,-0.0001,-0.0003,-0.00057,-3e-05,-2e-05,0,5,9
22164,4e-05,-2e-05,-0.0001,-0.0003,-0.00057,-3e-05,-2e-05,0,5,9
22166,4e-05,-2e-05,-0.0001,-0.0003,-0.00057,-3e-05,-2e-05,0,5,9
22167,4e-05,-2e-05,-0.0001,-0.0003,-0.00057,-3e-05,-2e-05,0,5,9
22168,4e-05,-2e-05,-0.0001,-0.0003,-0.00057,-3e-05,-2e-05,0,5,9
22169,4e-05,-2e-05,-0.0001,-0.0003,-0.00057,-3e-05,-2e-05,0,5,9
22170,4e-05,-2e-05,-0.0001,-0.0003,-0.00057,-3e-05,-2e-05,0,5,9
22171,4e-05,-2e-05,-0.0001,-0.0003,-0.00057,-3e-05,-2e-05,0,5,9
22172,-4e-05,-4e-05,-2e-05,-0.00017,-0.00023,-6e-05,-4e-05,-4e-05,5,9
22173,-4e-05,-4e-05,-2e-05,-0.00017,-0.00023,-6e-05,-4e-05,-4e-05,5,9
22174,-4e-05,-4e-05,-2e-05,-0.00017,-0.00023,-6e-05,-4e-05,-4e-05,5,9
22175,-4e-05,-4e-05,-2e-05,-0.00017,-0.00023,-6e-05,-4e-05,-4e-05,5,9
22176,-4e-05,-4e-05,-2e-05,-0.00017,-0.00023,-6e-05,-4e-05,-4e-05,5,9
22177,-4e-05,-4e-05,-2e-05,-0.00017,-0.00023,-6e-05,-4e-05,-4e-05,5,9
22178,-4e-05,-4e-05,-2e-05,-0.00017,-0.00023,-6e-05,-4e-05,-4e-05,5,9
22179,-4e-05,-4e-05,-2e-05,-0.00017,-0.00023,-6e-05,-4e-05,-4e-05,5,9
22180,-3e-05,8e-05,0.00014,0.00038,-5e-05,9e-05,8e-05,2e-05,5,9
22181,-3e-05,8e-05,0.00014,0.00038,-5e-05,9e-05,8e-05,2e-05,5,9
22182,-3e-05,8e-05,0.00014,0.00038,-5e-05,9e-05,8e-05,2e-05,5,9
22183,-3e-05,8e-05,0.00014,0.00038,-5e-05,9e-05,8e-05,2e-05,5,9
22184,-3e-05,8e-05,0.00014,0.00038,-5e-05,9e-05,8e-05,2e-05,5,9
22185,-3e-05,8e-05,0.00014,0.00038,-5e-05,9e-05,8e-05,2e-05,5,9
22186,-3e-05,8e-05,0.00014,0.00038,-5e-05,9e-05,8e-05,2e-05,5,9
22188,-3e-05,8e-05,0.00014,0.00038,-5e-05,9e-05,8e-05,2e-05,5,9
22189,-3e-05,8e-05,0.00014,0.00038,-5e-05,9e-05,8e-05,2e-05,5,9
22190,-3e-05,8e-05,0.00014,0.00038,-5e-05,9e-05,8e-05,2e-05,5,9
22191,-3e-05,8e-05,0.00014,0.00038,-5e-05,9e-05,8e-05,2e-05,5,9
22192,-3e-05,8e-05,0.00014,0.00038,-5e-05,9e-05,8e-05,2e-05,5,9
22193,-3e-05,8e-05,0.00014,0.00038,-5e-05,9e-05,8e-05,2e-05,5,9
22194,-3e-05,8e-05,0.00014,0.00038,-5e-05,9e-05,8e-05,2e-05,5,9
22195,-3e-05,8e-05,0.00014,0.00038,-5e-05,9e-05,8e-05,2e-05,5,9
22196,-3e-05,8e-05,0.00014,0.00038,-5e-05,9e-05,8e-05,2e-05,5,9
22197,-3e-05,8e-05,0.00014,0.00038,-5e-05,9e-05,8e-05,2e-05,5,9
22198,-3e-05,8e-05,0.00014,0.00038,-5e-05,9e-05,8e-05,2e-05,5,9
22199,-3e-05,8e-05,0.00014,0.00038,-5e-05,9e-05,8e-05,2e-05,5,9
22200,-3e-05,8e-05,0.00014,0.00038,-5e-05,9e-05,8e-05,2e-05,5,9
22201,-3e-05,8e-05,0.00014,0.00038,-5e-05,9e-05,8e-05,2e-05,5,9
22202,-3e-05,8e-05,0.00014,0.00038,-5e-05,9e-05,8e-05,2e-05,5,9
22203,-7e-05,-9e-05,-5e-05,-7e-05,-0.00041,-0.00015,9e-05,-1e-05,5,9
22204,-6e-05,-1e-05,-4e-05,-0.00012,-0.0003,-0.00034,-0.00011,-4e-05,5,9
22205,-6e-05,-1e-05,-4e-05,-0.00012,-0.0003,-0.00034,-0.00011,-4e-05,5,9
22206,-6e-05,-1e-05,-4e-05,-0.00012,-0.0003,-0.00034,-0.00011,-4e-05,5,9
22207,-6e-05,-1e-05,-4e-05,-0.00012,-0.0003,-0.00034,-0.00011,-4e-05,5,9
22208,-6e-05,-1e-05,-4e-05,-0.00012,-0.0003,-0.00034,-0.00011,-4e-05,5,9
22209,-6e-05,-1e-05,-4e-05,-0.00012,-0.0003,-0.00034,-0.00011,-4e-05,5,9
22210,-6e-05,-1e-05,-4e-05,-0.00012,-0.0003,-0.00034,-0.00011,-4e-05,5,9
22211,-6e-05,-1e-05,-4e-05,-0.00012,-0.0003,-0.00034,-0.00011,-4e-05,5,9
22212,-6e-05,-1e-05,-4e-05,-0.00012,-0.0003,-0.00034,-0.00011,-4e-05,5,9
22213,-6e-05,-1e-05,-4e-05,-0.00012,-0.0003,-0.00034,-0.00011,-4e-05,5,9
22214,-6e-05,-1e-05,-4e-05,-0.00012,-0.0003,-0.00034,-0.00011,-4e-05,5,9
22215,-6e-05,-1e-05,-4e-05,-0.00012,-0.0003,-0.00034,-0.00011,-4e-05,5,9
22216,-6e-05,-1e-05,-4e-05,-0.00012,-0.0003,-0.00034,-0.00011,-4e-05,5,9
22217,-6e-05,-1e-05,-4e-05,-0.00012,-0.0003,-0.00034,-0.00011,-4e-05,5,9
22218,-6e-05,-1e-05,-4e-05,-0.00012,-0.0003,-0.00034,-0.00011,-4e-05,5,9
22219,-6e-05,-1e-05,-4e-05,-0.00012,-0.0003,-0.00034,-0.00011,-4e-05,5,9
22220,-6e-05,-1e-05,-4e-05,-0.00012,-0.0003,-0.00034,-0.00011,-4e-05,5,9
22221,-6e-05,-1e-05,-4e-05,-0.00012,-0.0003,-0.00034,-0.00011,-4e-05,5,9
22222,-6e-05,-1e-05,-4e-05,-0.00012,-0.0003,-0.00034,-0.00011,-4e-05,5,9
22223,-6e-05,-1e-05,-4e-05,-0.00012,-0.0003,-0.00034,-0.00011,-4e-05,5,9
22224,-6e-05,-1e-05,-4e-05,-0.00012,-0.0003,-0.00034,-0.00011,-4e-05,5,9
22225,-6e-05,-1e-05,-4e-05,-0.00012,-0.0003,-0.00034,-0.00011,-4e-05,5,9
22226,-0.00013,-9e-05,-5e-05,-0.00031,-0.00044,-9e-05,-7e-05,8e-05,5,9
22227,7e-05,0.00012,0.00015,0.00033,-0.00024,-4e-05,4e-05,2e-05,5,9
22228,7e-05,0.00012,0.00015,0.00033,-0.00024,-4e-05,4e-05,2e-05,5,9
22229,7e-05,0.00012,0.00015,0.00033,-0.00024,-4e-05,4e-05,2e-05,5,9
22230,7e-05,0.00012,0.00015,0.00033,-0.00024,-4e-05,4e-05,2e-05,5,9
22231,7e-05,0.00012,0.00015,0.00033,-0.00024,-4e-05,4e-05,2e-05,5,9
22232,-5e-05,2e-05,6e-05,-0.00012,8e-05,-9e-05,-8e-05,-8e-05,5,9
22233,-5e-05,2e-05,6e-05,-0.00012,8e-05,-9e-05,-8e-05,-8e-05,5,9
22234,-5e-05,2e-05,6e-05,-0.00012,8e-05,-9e-05,-8e-05,-8e-05,5,9
22235,-5e-05,2e-05,6e-05,-0.00012,8e-05,-9e-05,-8e-05,-8e-05,5,9
22236,-5e-05,2e-05,6e-05,-0.00012,8e-05,-9e-05,-8e-05,-8e-05,5,9
22239,-5e-05,2e-05,6e-05,-0.00012,8e-05,-9e-05,-8e-05,-8e-05,5,9
22240,-5e-05,2e-05,6e-05,-0.00012,8e-05,-9e-05,-8e-05,-8e-05,5,9
22241,-5e-05,2e-05,6e-05,-0.00012,8e-05,-9e-05,-8e-05,-8e-05,5,9
22242,-5e-05,2e-05,6e-05,-0.00012,8e-05,-9e-05,-8e-05,-8e-05,5,9
22243,-5e-05,2e-05,6e-05,-0.00012,8e-05,-9e-05,-8e-05,-8e-05,5,9
22244,-5e-05,2e-05,6e-05,-0.00012,8e-05,-9e-05,-8e-05,-8e-05,5,9
22245,-5e-05,2e-05,6e-05,-0.00012,8e-05,-9e-05,-8e-05,-8e-05,5,9
22246,-5e-05,2e-05,6e-05,-0.00012,8e-05,-9e-05,-8e-05,-8e-05,5,9
22247,-5e-05,2e-05,6e-05,-0.00012,8e-05,-9e-05,-8e-05,-8e-05,5,9
22248,0,-0.00013,-0.00024,5e-05,0.00017,6e-05,-2e-05,-4e-05,5,9
22249,0,-0.00013,-0.00024,5e-05,0.00017,6e-05,-2e-05,-4e-05,5,9
22250,0,-0.00013,-0.00024,5e-05,0.00017,6e-05,-2e-05,-4e-05,5,9
22251,0,-0.00013,-0.00024,5e-05,0.00017,6e-05,-2e-05,-4e-05,5,9
22252,0,-0.00013,-0.00024,5e-05,0.00017,6e-05,-2e-05,-4e-05,5,9
22253,0,-0.00013,-0.00024,5e-05,0.00017,6e-05,-2e-05,-4e-05,5,9
22254,0,-0.00013,-0.00024,5e-05,0.00017,6e-05,-2e-05,-4e-05,5,9
22255,-6e-05,-1e-05,4e-05,-4e-05,0.00026,7e-05,2e-05,1e-05,5,9
22256,1e-05,-9e-05,-9e-05,-0.00017,-0.00016,5e-05,-2e-05,0,5,9
22257,1e-05,-9e-05,-9e-05,-0.00017,-0.00016,5e-05,-2e-05,0,5,9
22258,1e-05,-9e-05,-9e-05,-0.00017,-0.00016,5e-05,-2e-05,0,5,9
22259,1e-05,-9e-05,-9e-05,-0.00017,-0.00016,5e-05,-2e-05,0,5,9
22260,1e-05,-9e-05,-9e-05,-0.00017,-0.00016,5e-05,-2e-05,0,5,9
22261,1e-05,-9e-05,-9e-05,-0.00017,-0.00016,5e-05,-2e-05,0,5,9
22262,1e-05,-9e-05,-9e-05,-0.00017,-0.00016,5e-05,-2e-05,0,5,9
22263,1e-05,-9e-05,-9e-05,-0.00017,-0.00016,5e-05,-2e-05,0,5,9
22264,1e-05,-9e-05,-9e-05,-0.00017,-0.00016,5e-05,-2e-05,0,5,9
22265,1e-05,-9e-05,-9e-05,-0.00017,-0.00016,5e-05,-2e-05,0,5,9
22266,1e-05,-9e-05,-9e-05,-0.00017,-0.00016,5e-05,-2e-05,0,5,9
22267,1e-05,-9e-05,-9e-05,-0.00017,-0.00016,5e-05,-2e-05,0,5,9
22268,1e-05,-9e-05,-9e-05,-0.00017,-0.00016,5e-05,-2e-05,0,5,9
22269,1e-05,-9e-05,-9e-05,-0.00017,-0.00016,5e-05,-2e-05,0,5,9
22270,1e-05,-9e-05,-9e-05,-0.00017,-0.00016,5e-05,-2e-05,0,5,9
22271,1e-05,-9e-05,-9e-05,-0.00017,-0.00016,5e-05,-2e-05,0,5,9
22272,1e-05,-9e-05,-9e-05,-0.00017,-0.00016,5e-05,-2e-05,0,5,9
22273,1e-05,-9e-05,-9e-05,-0.00017,-0.00016,5e-05,-2e-05,0,5,9
22274,1e-05,-9e-05,-9e-05,-0.00017,-0.00016,5e-05,-2e-05,0,5,9
22275,1e-05,-9e-05,-9e-05,-0.00017,-0.00016,5e-05,-2e-05,0,5,9
22276,1e-05,-9e-05,-9e-05,-0.00017,-0.00016,5e-05,-2e-05,0,5,9
22277,-4e-05,-0.00012,-0.00017,0.0004,-3e-05,-2e-05,-0.00013,-8e-05,5,9
22278,1e-05,0,-1e-05,-0.00023,0.00021,-2e-05,0,-1e-05,5,9
22279,1e-05,0,-1e-05,-0.00023,0.00021,-2e-05,0,-1e-05,5,9
22280,1e-05,0,-1e-05,-0.00023,0.00021,-2e-05,0,-1e-05,5,9
22281,1e-05,0,-1e-05,-0.00023,0.00021,-2e-05,0,-1e-05,5,9
22282,1e-05,0,-1e-05,-0.00023,0.00021,-2e-05,0,-1e-05,5,9
22283,1e-05,0,-1e-05,-0.00023,0.00021,-2e-05,0,-1e-05,5,9
22284,1e-05,0,-1e-05,-0.00023,0.00021,-2e-05,0,-1e-05,5,9
22285,1e-05,0,-1e-05,-0.00023,0.00021,-2e-05,0,-1e-05,5,9
22286,1e-05,0,-1e-05,-0.00023,0.00021,-2e-05,0,-1e-05,5,9
22288,1e-05,0,-1e-05,-0.00023,0.00021,-2e-05,0,-1e-05,5,9
22289,1e-05,0,-1e-05,-0.00023,0.00021,-2e-05,0,-1e-05,5,9
22290,1e-05,0,-1e-05,-0.00023,0.00021,-2e-05,0,-1e-05,5,9
22291,1e-05,0,-1e-05,-0.00023,0.00021,-2e-05,0,-1e-05,5,9
22292,-5e-05,-8e-05,-8e-05,-0.00017,0.00022,0.00018,-1e-05,-1e-05,5,9
22293,-5e-05,-8e-05,-8e-05,-0.00017,0.00022,0.00018,-1e-05,-1e-05,5,9
22294,-5e-05,-8e-05,-8e-05,-0.00017,0.00022,0.00018,-1e-05,-1e-05,5,9
22295,-5e-05,-8e-05,-8e-05,-0.00017,0.00022,0.00018,-1e-05,-1e-05,5,9
22296,-5e-05,-8e-05,-8e-05,-0.00017,0.00022,0.00018,-1e-05,-1e-05,5,9
22297,-5e-05,-8e-05,-8e-05,-0.00017,0.00022,0.00018,-1e-05,-1e-05,5,9
22298,-5e-05,-8e-05,-8e-05,-0.00017,0.00022,0.00018,-1e-05,-1e-05,5,9
22299,-5e-05,-8e-05,-8e-05,-0.00017,0.00022,0.00018,-1e-05,-1e-05,5,9
22300,2e-05,0,-3e-05,0.00033,-0.00026,-7e-05,0.00011,4e-05,5,9
22301,2e-05,0,-3e-05,0.00033,-0.00026,-7e-05,0.00011,4e-05,5,9
22302,2e-05,0,-3e-05,0.00033,-0.00026,-7e-05,0.00011,4e-05,5,9
22303,2e-05,0,-3e-05,0.00033,-0.00026,-7e-05,0.00011,4e-05,5,9
22304,2e-05,0,-3e-05,0.00033,-0.00026,-7e-05,0.00011,4e-05,5,9
22305,2e-05,0,-3e-05,0.00033,-0.00026,-7e-05,0.00011,4e-05,5,9
22306,2e-05,0,-3e-05,0.00033,-0.00026,-7e-05,0.00011,4e-05,5,9
22307,2e-05,0,-3e-05,0.00033,-0.00026,-7e-05,0.00011,4e-05,5,9
22308,2e-05,0,-3e-05,0.00033,-0.00026,-7e-05,0.00011,4e-05,5,9
22309,2e-05,0,-3e-05,0.00033,-0.00026,-7e-05,0.00011,4e-05,5,9
22310,2e-05,0,-3e-05,0.00033,-0.00026,-7e-05,0.00011,4e-05,5,9
22311,2e-05,0,-3e-05,0.00033,-0.00026,-7e-05,0.00011,4e-05,5,9
22312,2e-05,0,-3e-05,0.00033,-0.00026,-7e-05,0.00011,4e-05,5,9
22313,2e-05,0,-3e-05,0.00033,-0.00026,-7e-05,0.00011,4e-05,5,9
22314,2e-05,0,-3e-05,0.00033,-0.00026,-7e-05,0.00011,4e-05,5,9
22315,2e-05,0,-3e-05,0.00033,-0.00026,-7e-05,0.00011,4e-05,5,9
22316,-6e-05,8e-05,9e-05,0.00025,-0.00019,6e-05,4e-05,5e-05,5,9
22317,-6e-05,-5e-05,-2e-05,-0.00035,0.00013,4e-05,0,1e-05,5,9
22318,-6e-05,-5e-05,-2e-05,-0.00035,0.00013,4e-05,0,1e-05,5,9
22319,-6e-05,-5e-05,-2e-05,-0.00035,0.00013,4e-05,0,1e-05,5,9
22320,-6e-05,-5e-05,-2e-05,-0.00035,0.00013,4e-05,0,1e-05,5,9
22321,-6e-05,-5e-05,-2e-05,-0.00035,0.00013,4e-05,0,1e-05,5,9
22322,-6e-05,-5e-05,-2e-05,-0.00035,0.00013,4e-05,0,1e-05,5,9
22323,-6e-05,-5e-05,-2e-05,-0.00035,0.00013,4e-05,0,1e-05,5,9
22324,-6e-05,-5e-05,-2e-05,-0.00035,0.00013,4e-05,0,1e-05,5,9
22325,-6e-05,-5e-05,-2e-05,-0.00035,0.00013,4e-05,0,1e-05,5,9
22326,-6e-05,-5e-05,-2e-05,-0.00035,0.00013,4e-05,0,1e-05,5,9
22327,-6e-05,-5e-05,-2e-05,-0.00035,0.00013,4e-05,0,1e-05,5,9
22328,-6e-05,-5e-05,-2e-05,-0.00035,0.00013,4e-05,0,1e-05,5,9
22329,-6e-05,-5e-05,-2e-05,-0.00035,0.00013,4e-05,0,1e-05,5,9
22330,-6e-05,-5e-05,-2e-05,-0.00035,0.00013,4e-05,0,1e-05,5,9
22331,-6e-05,-5e-05,-2e-05,-0.00035,0.00013,4e-05,0,1e-05,5,9
22332,-6e-05,-5e-05,-2e-05,-0.00035,0.00013,4e-05,0,1e-05,5,9
22333,-6e-05,-5e-05,-2e-05,-0.00035,0.00013,4e-05,0,1e-05,5,9
22334,-6e-05,-5e-05,-2e-05,-0.00035,0.00013,4e-05,0,1e-05,5,9
22335,-6e-05,-5e-05,-2e-05,-0.00035,0.00013,4e-05,0,1e-05,5,9
22336,-6e-05,-5e-05,-2e-05,-0.00035,0.00013,4e-05,0,1e-05,5,9
22339,-4e-05,6e-05,0.0001,-0.00011,0.00013,-1e-05,-4e-05,-2e-05,5,9
22340,-4e-05,6e-05,0.0001,-0.00011,0.00013,-1e-05,-4e-05,-2e-05,5,9
22341,-4e-05,6e-05,0.0001,-0.00011,0.00013,-1e-05,-4e-05,-2e-05,5,9
22342,-4e-05,6e-05,0.0001,-0.00011,0.00013,-1e-05,-4e-05,-2e-05,5,9
22343,-4e-05,6e-05,0.0001,-0.00011,0.00013,-1e-05,-4e-05,-2e-05,5,9
22344,-4e-05,6e-05,0.0001,-0.00011,0.00013,-1e-05,-4e-05,-2e-05,5,9
22345,-4e-05,6e-05,0.0001,-0.00011,0.00013,-1e-05,-4e-05,-2e-05,5,9
22346,-4e-05,6e-05,0.0001,-0.00011,0.00013,-1e-05,-4e-05,-2e-05,5,9
22347,-4e-05,6e-05,0.0001,-0.00011,0.00013,-1e-05,-4e-05,-2e-05,5,9
22348,-4e-05,6e-05,0.0001,-0.00011,0.00013,-1e-05,-4e-05,-2e-05,5,9
22349,-4e-05,6e-05,0.0001,-0.00011,0.00013,-1e-05,-4e-05,-2e-05,5,9
22350,-4e-05,6e-05,0.0001,-0.00011,0.00013,-1e-05,-4e-05,-2e-05,5,9
22351,-4e-05,6e-05,0.0001,-0.00011,0.00013,-1e-05,-4e-05,-2e-05,5,9
22352,-4e-05,6e-05,0.0001,-0.00011,0.00013,-1e-05,-4e-05,-2e-05,5,9
22353,-4e-05,6e-05,0.0001,-0.00011,0.00013,-1e-05,-4e-05,-2e-05,5,9
22354,-4e-05,6e-05,0.0001,-0.00011,0.00013,-1e-05,-4e-05,-2e-05,5,9
22355,-4e-05,6e-05,0.0001,-0.00011,0.00013,-1e-05,-4e-05,-2e-05,5,9
22356,-4e-05,6e-05,0.0001,-0.00011,0.00013,-1e-05,-4e-05,-2e-05,5,9
22357,-4e-05,6e-05,0.0001,-0.00011,0.00013,-1e-05,-4e-05,-2e-05,5,9
22358,-4e-05,6e-05,0.0001,-0.00011,0.00013,-1e-05,-4e-05,-2e-05,5,9
22359,-4e-05,6e-05,0.0001,-0.00011,0.00013,-1e-05,-4e-05,-2e-05,5,9
22360,-4e-05,6e-05,0.0001,-0.00011,0.00013,-1e-05,-4e-05,-2e-05,5,9
22361,6e-05,-3e-05,2e-05,0.00016,-8e-05,5e-05,-3e-05,-2e-05,5,9
22362,6e-05,-3e-05,2e-05,0.00016,-8e-05,5e-05,-3e-05,-2e-05,5,9
22363,6e-05,-3e-05,2e-05,0.00016,-8e-05,5e-05,-3e-05,-2e-05,5,9
22364,6e-05,-3e-05,2e-05,0.00016,-8e-05,5e-05,-3e-05,-2e-05,5,9
22365,6e-05,-3e-05,2e-05,0.00016,-8e-05,5e-05,-3e-05,-2e-05,5,9
22366,6e-05,-3e-05,2e-05,0.00016,-8e-05,5e-05,-3e-05,-2e-05,5,9
22367,6e-05,-3e-05,2e-05,0.00016,-8e-05,5e-05,-3e-05,-2e-05,5,9
22368,6e-05,-3e-05,2e-05,0.00016,-8e-05,5e-05,-3e-05,-2e-05,5,9
22369,6e-05,-3e-05,2e-05,0.00016,-8e-05,5e-05,-3e-05,-2e-05,5,9
22370,6e-05,-3e-05,2e-05,0.00016,-8e-05,5e-05,-3e-05,-2e-05,5,9
22371,6e-05,-3e-05,2e-05,0.00016,-8e-05,5e-05,-3e-05,-2e-05,5,9
22372,6e-05,-3e-05,2e-05,0.00016,-8e-05,5e-05,-3e-05,-2e-05,5,9
22373,6e-05,-3e-05,2e-05,0.00016,-8e-05,5e-05,-3e-05,-2e-05,5,9
22374,6e-05,-3e-05,2e-05,0.00016,-8e-05,5e-05,-3e-05,-2e-05,5,9
22375,-7e-05,-0.00016,-1e-05,0.0002,-2e-05,-4e-05,1e-05,1e-05,5,9
22376,-0.00014,-1e-05,7e-05,0.00012,-0.00014,-3e-05,-1e-05,6e-05,5,9
22377,-0.00014,-1e-05,7e-05,0.00012,-0.00014,-3e-05,-1e-05,6e-05,5,9
22378,-0.00014,-1e-05,7e-05,0.00012,-0.00014,-3e-05,-1e-05,6e-05,5,9
22379,-0.00014,-1e-05,7e-05,0.00012,-0.00014,-3e-05,-1e-05,6e-05,5,9
22380,-0.00014,-1e-05,7e-05,0.00012,-0.00014,-3e-05,-1e-05,6e-05,5,9
22381,-0.00014,-1e-05,7e-05,0.00012,-0.00014,-3e-05,-1e-05,6e-05,5,9
22382,-0.00014,-1e-05,7e-05,0.00012,-0.00014,-3e-05,-1e-05,6e-05,5,9
22383,-0.00014,-1e-05,7e-05,0.00012,-0.00014,-3e-05,-1e-05,6e-05,5,9
22384,-0.00014,-1e-05,7e-05,0.00012,-0.00014,-3e-05,-1e-05,6e-05,5,9
22385,-0.00014,-1e-05,7e-05,0.00012,-0.00014,-3e-05,-1e-05,6e-05,5,9
22386,-0.00014,-1e-05,7e-05,0.00012,-0.00014,-3e-05,-1e-05,6e-05,5,9
22388,-0.00014,-1e-05,7e-05,0.00012,-0.00014,-3e-05,-1e-05,6e-05,5,9
22389,-0.00014,-1e-05,7e-05,0.00012,-0.00014,-3e-05,-1e-05,6e-05,5,9
22390,-0.00014,-1e-05,7e-05,0.00012,-0.00014,-3e-05,-1e-05,6e-05,5,9
22391,-0.00014,-1e-05,7e-05,0.00012,-0.00014,-3e-05,-1e-05,6e-05,5,9
22392,-0.00014,-1e-05,7e-05,0.00012,-0.00014,-3e-05,-1e-05,6e-05,5,9
22393,-0.00014,-1e-05,7e-05,0.00012,-0.00014,-3e-05,-1e-05,6e-05,5,9
22394,-0.00014,-1e-05,7e-05,0.00012,-0.00014,-3e-05,-1e-05,6e-05,5,9
22395,-0.00014,-1e-05,7e-05,0.00012,-0.00014,-3e-05,-1e-05,6e-05,5,9
22396,-0.00014,-1e-05,7e-05,0.00012,-0.00014,-3e-05,-1e-05,6e-05,5,9
22397,-0.00014,-1e-05,7e-05,0.00012,-0.00014,-3e-05,-1e-05,6e-05,5,9
22398,5e-05,6e-05,-2e-05,0.00014,0.0001,-4e-05,2e-05,0,5,9
22400,-8e-05,-4e-05,0,0.00017,0.00044,0.00019,-5e-05,-0.00016,5,9
22401,-8e-05,-4e-05,0,0.00017,0.00044,0.00019,-5e-05,-0.00016,5,9
22402,-8e-05,-4e-05,0,0.00017,0.00044,0.00019,-5e-05,-0.00016,5,9
22403,-8e-05,-4e-05,0,0.00017,0.00044,0.00019,-5e-05,-0.00016,5,9
22404,-8e-05,-4e-05,0,0.00017,0.00044,0.00019,-5e-05,-0.00016,5,9
22405,-8e-05,-4e-05,0,0.00017,0.00044,0.00019,-5e-05,-0.00016,5,9
22406,-8e-05,-4e-05,0,0.00017,0.00044,0.00019,-5e-05,-0.00016,5,9
22407,-8e-05,-4e-05,0,0.00017,0.00044,0.00019,-5e-05,-0.00016,5,9
22408,-8e-05,-4e-05,0,0.00017,0.00044,0.00019,-5e-05,-0.00016,5,9
22409,-8e-05,-4e-05,0,0.00017,0.00044,0.00019,-5e-05,-0.00016,5,9
22410,-8e-05,-4e-05,0,0.00017,0.00044,0.00019,-5e-05,-0.00016,5,9
22411,-8e-05,-4e-05,0,0.00017,0.00044,0.00019,-5e-05,-0.00016,5,9
22412,-8e-05,-4e-05,0,0.00017,0.00044,0.00019,-5e-05,-0.00016,5,9
22413,-8e-05,-4e-05,0,0.00017,0.00044,0.00019,-5e-05,-0.00016,5,9
22414,-8e-05,-4e-05,0,0.00017,0.00044,0.00019,-5e-05,-0.00016,5,9
22415,-8e-05,-4e-05,0,0.00017,0.00044,0.00019,-5e-05,-0.00016,5,9
22416,-8e-05,-4e-05,0,0.00017,0.00044,0.00019,-5e-05,-0.00016,5,9
22417,-8e-05,-4e-05,0,0.00017,0.00044,0.00019,-5e-05,-0.00016,5,9
22418,-8e-05,-4e-05,0,0.00017,0.00044,0.00019,-5e-05,-0.00016,5,9
22419,-8e-05,-4e-05,0,0.00017,0.00044,0.00019,-5e-05,-0.00016,5,9
22420,-8e-05,-4e-05,0,0.00017,0.00044,0.00019,-5e-05,-0.00016,5,9
22421,0.00017,0.00011,2e-05,-7e-05,-0.00011,-0.0001,-5e-05,-3e-05,5,9
22422,0.00017,0.00011,2e-05,-7e-05,-0.00011,-0.0001,-5e-05,-3e-05,5,9
22423,0.00017,0.00011,2e-05,-7e-05,-0.00011,-0.0001,-5e-05,-3e-05,5,9
22424,0.00017,0.00011,2e-05,-7e-05,-0.00011,-0.0001,-5e-05,-3e-05,5,9
22425,0.00017,0.00011,2e-05,-7e-05,-0.00011,-0.0001,-5e-05,-3e-05,5,9
22426,0.00017,0.00011,2e-05,-7e-05,-0.00011,-0.0001,-5e-05,-3e-05,5,9
22427,0.00017,0.00011,2e-05,-7e-05,-0.00011,-0.0001,-5e-05,-3e-05,5,9
22428,0.00017,0.00011,2e-05,-7e-05,-0.00011,-0.0001,-5e-05,-3e-05,5,9
22429,0.00017,0.00011,2e-05,-7e-05,-0.00011,-0.0001,-5e-05,-3e-05,5,9
22430,0.00017,0.00011,2e-05,-7e-05,-0.00011,-0.0001,-5e-05,-3e-05,5,9
22431,0.00017,0.00011,2e-05,-7e-05,-0.00011,-0.0001,-5e-05,-3e-05,5,9
22432,0.00017,0.00011,2e-05,-7e-05,-0.00011,-0.0001,-5e-05,-3e-05,5,9
22433,0.00017,0.00011,2e-05,-7e-05,-0.00011,-0.0001,-5e-05,-3e-05,5,9
22434,0.00017,0.00011,2e-05,-7e-05,-0.00011,-0.0001,-5e-05,-3e-05,5,9
22435,0,5e-05,5e-05,-5e-05,-0.00039,-3e-05,5e-05,8e-05,5,9
22436,-1e-05,-2e-05,-5e-05,-0.00011,-6e-05,-0.00013,8e-05,6e-05,5,9
22439,-1e-05,-2e-05,-5e-05,-0.00011,-6e-05,-0.00013,8e-05,6e-05,5,9
22440,-1e-05,-2e-05,-5e-05,-0.00011,-6e-05,-0.00013,8e-05,6e-05,5,9
22441,-1e-05,-2e-05,-5e-05,-0.00011,-6e-05,-0.00013,8e-05,6e-05,5,9
22442,-1e-05,-2e-05,-5e-05,-0.00011,-6e-05,-0.00013,8e-05,6e-05,5,9
22443,-1e-05,-2e-05,-5e-05,-0.00011,-6e-05,-0.00013,8e-05,6e-05,5,9
22444,-1e-05,-2e-05,-5e-05,-0.00011,-6e-05,-0.00013,8e-05,6e-05,5,9
22445,-1e-05,-2e-05,-5e-05,-0.00011,-6e-05,-0.00013,8e-05,6e-05,5,9
22446,-1e-05,-2e-05,-5e-05,-0.00011,-6e-05,-0.00013,8e-05,6e-05,5,9
22447,-1e-05,-2e-05,-5e-05,-0.00011,-6e-05,-0.00013,8e-05,6e-05,5,9
22448,-1e-05,-2e-05,-5e-05,-0.00011,-6e-05,-0.00013,8e-05,6e-05,5,9
22449,-1e-05,-2e-05,-5e-05,-0.00011,-6e-05,-0.00013,8e-05,6e-05,5,9
22450,-1e-05,-2e-05,-5e-05,-0.00011,-6e-05,-0.00013,8e-05,6e-05,5,9
22451,-1e-05,-2e-05,-5e-05,-0.00011,-6e-05,-0.00013,8e-05,6e-05,5,9
22452,-1e-05,-2e-05,-5e-05,-0.00011,-6e-05,-0.00013,8e-05,6e-05,5,9
22453,-1e-05,-2e-05,-5e-05,-0.00011,-6e-05,-0.00013,8e-05,6e-05,5,9
22454,-1e-05,-2e-05,-5e-05,-0.00011,-6e-05,-0.00013,8e-05,6e-05,5,9
22455,-1e-05,-2e-05,-5e-05,-0.00011,-6e-05,-0.00013,8e-05,6e-05,5,9
22456,-1e-05,-2e-05,-5e-05,-0.00011,-6e-05,-0.00013,8e-05,6e-05,5,9
22457,-1e-05,-2e-05,-5e-05,-0.00011,-6e-05,-0.00013,8e-05,6e-05,5,9
22458,0.00016,0,4e-05,6e-05,0.00037,-3e-05,-4e-05,2e-05,5,9
22459,-0.00014,-0.0001,-4e-05,-1e-05,0.00074,0.00022,2e-05,-0.00015,5,9
22460,-0.00014,-0.0001,-4e-05,-1e-05,0.00074,0.00022,2e-05,-0.00015,5,9
22461,-0.00014,-0.0001,-4e-05,-1e-05,0.00074,0.00022,2e-05,-0.00015,5,9
22462,-0.00014,-0.0001,-4e-05,-1e-05,0.00074,0.00022,2e-05,-0.00015,5,9
22463,-0.00014,-0.0001,-4e-05,-1e-05,0.00074,0.00022,2e-05,-0.00015,5,9
22464,-0.00014,-0.0001,-4e-05,-1e-05,0.00074,0.00022,2e-05,-0.00015,5,9
22466,-0.00014,-0.0001,-4e-05,-1e-05,0.00074,0.00022,2e-05,-0.00015,5,9
22467,-0.00014,-0.0001,-4e-05,-1e-05,0.00074,0.00022,2e-05,-0.00015,5,9
22468,-0.00014,-0.0001,-4e-05,-1e-05,0.00074,0.00022,2e-05,-0.00015,5,9
22469,-0.00014,-0.0001,-4e-05,-1e-05,0.00074,0.00022,2e-05,-0.00015,5,9
22470,-0.00014,-0.0001,-4e-05,-1e-05,0.00074,0.00022,2e-05,-0.00015,5,9
22471,-0.00014,-0.0001,-4e-05,-1e-05,0.00074,0.00022,2e-05,-0.00015,5,9
22472,-0.00014,-0.0001,-4e-05,-1e-05,0.00074,0.00022,2e-05,-0.00015,5,9
22473,-0.00014,-0.0001,-4e-05,-1e-05,0.00074,0.00022,2e-05,-0.00015,5,9
22474,-0.00014,-0.0001,-4e-05,-1e-05,0.00074,0.00022,2e-05,-0.00015,5,9
22475,-0.00014,-0.0001,-4e-05,-1e-05,0.00074,0.00022,2e-05,-0.00015,5,9
22476,-0.00014,-0.0001,-4e-05,-1e-05,0.00074,0.00022,2e-05,-0.00015,5,9
22477,-0.00014,-0.0001,-4e-05,-1e-05,0.00074,0.00022,2e-05,-0.00015,5,9
22478,-0.00014,-0.0001,-4e-05,-1e-05,0.00074,0.00022,2e-05,-0.00015,5,9
22479,-0.00014,-0.0001,-4e-05,-1e-05,0.00074,0.00022,2e-05,-0.00015,5,9
22480,-0.00014,-0.0001,-4e-05,-1e-05,0.00074,0.00022,2e-05,-0.00015,5,9
22481,-3e-05,-3e-05,-8e-05,-6e-05,-0.00029,-0.00017,-2e-05,-5e-05,5,9
22482,-3e-05,-3e-05,-8e-05,-6e-05,-0.00029,-0.00017,-2e-05,-5e-05,5,9
22483,-3e-05,-3e-05,-8e-05,-6e-05,-0.00029,-0.00017,-2e-05,-5e-05,5,9
22484,-3e-05,-3e-05,-8e-05,-6e-05,-0.00029,-0.00017,-2e-05,-5e-05,5,9
22485,-3e-05,-3e-05,-8e-05,-6e-05,-0.00029,-0.00017,-2e-05,-5e-05,5,9
22486,-3e-05,-3e-05,-8e-05,-6e-05,-0.00029,-0.00017,-2e-05,-5e-05,5,9
22488,-3e-05,-3e-05,-8e-05,-6e-05,-0.00029,-0.00017,-2e-05,-5e-05,5,9
22489,-3e-05,-3e-05,-8e-05,-6e-05,-0.00029,-0.00017,-2e-05,-5e-05,5,9
22490,-3e-05,-3e-05,-8e-05,-6e-05,-0.00029,-0.00017,-2e-05,-5e-05,5,9
22491,-3e-05,-3e-05,-8e-05,-6e-05,-0.00029,-0.00017,-2e-05,-5e-05,5,9
22492,-3e-05,-3e-05,-8e-05,-6e-05,-0.00029,-0.00017,-2e-05,-5e-05,5,9
22493,-3e-05,-3e-05,-8e-05,-6e-05,-0.00029,-0.00017,-2e-05,-5e-05,5,9
22494,-3e-05,-3e-05,-8e-05,-6e-05,-0.00029,-0.00017,-2e-05,-5e-05,5,9
22495,5e-05,0.0001,0.0001,0.00013,0.00017,0.00017,4e-05,5e-05,5,9
22496,6e-05,8e-05,9e-05,0.00017,-0.00018,6e-05,3e-05,9e-05,5,9
22497,6e-05,8e-05,9e-05,0.00017,-0.00018,6e-05,3e-05,9e-05,5,9
22498,6e-05,8e-05,9e-05,0.00017,-0.00018,6e-05,3e-05,9e-05,5,9
22499,6e-05,8e-05,9e-05,0.00017,-0.00018,6e-05,3e-05,9e-05,5,9
22500,6e-05,8e-05,9e-05,0.00017,-0.00018,6e-05,3e-05,9e-05,5,9
22501,6e-05,8e-05,9e-05,0.00017,-0.00018,6e-05,3e-05,9e-05,5,9
22502,6e-05,8e-05,9e-05,0.00017,-0.00018,6e-05,3e-05,9e-05,5,9
22503,6e-05,8e-05,9e-05,0.00017,-0.00018,6e-05,3e-05,9e-05,5,9
22504,6e-05,8e-05,9e-05,0.00017,-0.00018,6e-05,3e-05,9e-05,5,9
22505,6e-05,8e-05,9e-05,0.00017,-0.00018,6e-05,3e-05,9e-05,5,9
22506,6e-05,8e-05,9e-05,0.00017,-0.00018,6e-05,3e-05,9e-05,5,9
22507,6e-05,8e-05,9e-05,0.00017,-0.00018,6e-05,3e-05,9e-05,5,9
22508,6e-05,8e-05,9e-05,0.00017,-0.00018,6e-05,3e-05,9e-05,5,9
22509,6e-05,8e-05,9e-05,0.00017,-0.00018,6e-05,3e-05,9e-05,5,9
22510,6e-05,8e-05,9e-05,0.00017,-0.00018,6e-05,3e-05,9e-05,5,9
22511,6e-05,8e-05,9e-05,0.00017,-0.00018,6e-05,3e-05,9e-05,5,9
22512,6e-05,8e-05,9e-05,0.00017,-0.00018,6e-05,3e-05,9e-05,5,9
22513,6e-05,8e-05,9e-05,0.00017,-0.00018,6e-05,3e-05,9e-05,5,9
22514,6e-05,8e-05,9e-05,0.00017,-0.00018,6e-05,3e-05,9e-05,5,9
22515,6e-05,8e-05,9e-05,0.00017,-0.00018,6e-05,3e-05,9e-05,5,9
22516,6e-05,8e-05,9e-05,0.00017,-0.00018,6e-05,3e-05,9e-05,5,9
22517,6e-05,8e-05,9e-05,0.00017,-0.00018,6e-05,3e-05,9e-05,5,9
22518,2e-05,-2e-05,-0.00012,0.0005,0.00045,0.00018,-2e-05,0,5,9
22519,-5e-05,-6e-05,-4e-05,-5e-05,-0.00039,-8e-05,-4e-05,1e-05,5,9
22520,-5e-05,-6e-05,-4e-05,-5e-05,-0.00039,-8e-05,-4e-05,1e-05,5,9
22521,-5e-05,-6e-05,-4e-05,-5e-05,-0.00039,-8e-05,-4e-05,1e-05,5,9
22522,-5e-05,-6e-05,-4e-05,-5e-05,-0.00039,-8e-05,-4e-05,1e-05,5,9
22523,-5e-05,-6e-05,-4e-05,-5e-05,-0.00039,-8e-05,-4e-05,1e-05,5,9
22524,-5e-05,-6e-05,-4e-05,-5e-05,-0.00039,-8e-05,-4e-05,1e-05,5,9
22525,-5e-05,-6e-05,-4e-05,-5e-05,-0.00039,-8e-05,-4e-05,1e-05,5,9
22526,-5e-05,-6e-05,-4e-05,-5e-05,-0.00039,-8e-05,-4e-05,1e-05,5,9
22527,-5e-05,-6e-05,-4e-05,-5e-05,-0.00039,-8e-05,-4e-05,1e-05,5,9
22528,-5e-05,-6e-05,-4e-05,-5e-05,-0.00039,-8e-05,-4e-05,1e-05,5,9
22529,-5e-05,-6e-05,-4e-05,-5e-05,-0.00039,-8e-05,-4e-05,1e-05,5,9
22530,-5e-05,-6e-05,-4e-05,-5e-05,-0.00039,-8e-05,-4e-05,1e-05,5,9
22531,-5e-05,-6e-05,-4e-05,-5e-05,-0.00039,-8e-05,-4e-05,1e-05,5,9
22532,-5e-05,-6e-05,-4e-05,-5e-05,-0.00039,-8e-05,-4e-05,1e-05,5,9
22533,-5e-05,-6e-05,-4e-05,-5e-05,-0.00039,-8e-05,-4e-05,1e-05,5,9
22534,-5e-05,-6e-05,-4e-05,-5e-05,-0.00039,-8e-05,-4e-05,1e-05,5,9
22535,-5e-05,-6e-05,-4e-05,-5e-05,-0.00039,-8e-05,-4e-05,1e-05,5,9
22536,-5e-05,-6e-05,-4e-05,-5e-05,-0.00039,-8e-05,-4e-05,1e-05,5,9
22538,-5e-05,-6e-05,-4e-05,-5e-05,-0.00039,-8e-05,-4e-05,1e-05,5,9
22539,-5e-05,-6e-05,-4e-05,-5e-05,-0.00039,-8e-05,-4e-05,1e-05,5,9
22540,-5e-05,-6e-05,-4e-05,-5e-05,-0.00039,-8e-05,-4e-05,1e-05,5,9
22541,4e-05,4e-05,1e-05,-0.00025,-0.0004,-4e-05,-6e-05,1e-05,5,9
22542,4e-05,4e-05,1e-05,-0.00025,-0.0004,-4e-05,-6e-05,1e-05,5,9
22543,4e-05,4e-05,1e-05,-0.00025,-0.0004,-4e-05,-6e-05,1e-05,5,9
22544,4e-05,4e-05,1e-05,-0.00025,-0.0004,-4e-05,-6e-05,1e-05,5,9
22545,4e-05,4e-05,1e-05,-0.00025,-0.0004,-4e-05,-6e-05,1e-05,5,9
22546,4e-05,4e-05,1e-05,-0.00025,-0.0004,-4e-05,-6e-05,1e-05,5,9
22547,4e-05,4e-05,1e-05,-0.00025,-0.0004,-4e-05,-6e-05,1e-05,5,9
22548,4e-05,4e-05,1e-05,-0.00025,-0.0004,-4e-05,-6e-05,1e-05,5,9
22549,4e-05,4e-05,1e-05,-0.00025,-0.0004,-4e-05,-6e-05,1e-05,5,9
22550,4e-05,4e-05,1e-05,-0.00025,-0.0004,-4e-05,-6e-05,1e-05,5,9
22551,4e-05,4e-05,1e-05,-0.00025,-0.0004,-4e-05,-6e-05,1e-05,5,9
22552,4e-05,4e-05,1e-05,-0.00025,-0.0004,-4e-05,-6e-05,1e-05,5,9
22553,4e-05,4e-05,1e-05,-0.00025,-0.0004,-4e-05,-6e-05,1e-05,5,9
22554,4e-05,4e-05,1e-05,-0.00025,-0.0004,-4e-05,-6e-05,1e-05,5,9
22555,-3e-05,1e-05,-7e-05,-4e-05,-0.00032,0.0001,-1e-05,1e-05,5,9
22556,7e-05,3e-05,1e-05,-9e-05,-0.0001,-7e-05,-2e-05,3e-05,5,9
22557,7e-05,3e-05,1e-05,-9e-05,-0.0001,-7e-05,-2e-05,3e-05,5,9
22558,7e-05,3e-05,1e-05,-9e-05,-0.0001,-7e-05,-2e-05,3e-05,5,9
22559,7e-05,3e-05,1e-05,-9e-05,-0.0001,-7e-05,-2e-05,3e-05,5,9
22560,7e-05,3e-05,1e-05,-9e-05,-0.0001,-7e-05,-2e-05,3e-05,5,9
22561,7e-05,3e-05,1e-05,-9e-05,-0.0001,-7e-05,-2e-05,3e-05,5,9
22562,7e-05,3e-05,1e-05,-9e-05,-0.0001,-7e-05,-2e-05,3e-05,5,9
22563,7e-05,3e-05,1e-05,-9e-05,-0.0001,-7e-05,-2e-05,3e-05,5,9
22564,7e-05,3e-05,1e-05,-9e-05,-0.0001,-7e-05,-2e-05,3e-05,5,9
22565,7e-05,3e-05,1e-05,-9e-05,-0.0001,-7e-05,-2e-05,3e-05,5,9
22566,7e-05,3e-05,1e-05,-9e-05,-0.0001,-7e-05,-2e-05,3e-05,5,9
22567,7e-05,3e-05,1e-05,-9e-05,-0.0001,-7e-05,-2e-05,3e-05,5,9
22568,7e-05,3e-05,1e-05,-9e-05,-0.0001,-7e-05,-2e-05,3e-05,5,9
22569,7e-05,3e-05,1e-05,-9e-05,-0.0001,-7e-05,-2e-05,3e-05,5,9
22570,7e-05,3e-05,1e-05,-9e-05,-0.0001,-7e-05,-2e-05,3e-05,5,9
22571,7e-05,3e-05,1e-05,-9e-05,-0.0001,-7e-05,-2e-05,3e-05,5,9
22572,7e-05,3e-05,1e-05,-9e-05,-0.0001,-7e-05,-2e-05,3e-05,5,9
22573,7e-05,3e-05,1e-05,-9e-05,-0.0001,-7e-05,-2e-05,3e-05,5,9
22574,7e-05,3e-05,1e-05,-9e-05,-0.0001,-7e-05,-2e-05,3e-05,5,9
22575,7e-05,3e-05,1e-05,-9e-05,-0.0001,-7e-05,-2e-05,3e-05,5,9
22576,7e-05,3e-05,1e-05,-9e-05,-0.0001,-7e-05,-2e-05,3e-05,5,9
22577,0,5e-05,-3e-05,-1e-05,-0.00022,-0.00024,-7e-05,-4e-05,5,9
22578,-0.00012,-2e-05,2e-05,-0.00046,-0.00036,-6e-05,1e-05,0.00022,5,9
22579,-0.00012,-2e-05,2e-05,-0.00046,-0.00036,-6e-05,1e-05,0.00022,5,9
22580,-0.00012,-2e-05,2e-05,-0.00046,-0.00036,-6e-05,1e-05,0.00022,5,9
22581,-0.00012,-2e-05,2e-05,-0.00046,-0.00036,-6e-05,1e-05,0.00022,5,9
22582,-0.00012,-2e-05,2e-05,-0.00046,-0.00036,-6e-05,1e-05,0.00022,5,9
22583,-0.00012,-2e-05,2e-05,-0.00046,-0.00036,-6e-05,1e-05,0.00022,5,9
22584,-0.00012,-2e-05,2e-05,-0.00046,-0.00036,-6e-05,1e-05,0.00022,5,9
22585,-0.00012,-2e-05,2e-05,-0.00046,-0.00036,-6e-05,1e-05,0.00022,5,9
22586,-0.00012,-2e-05,2e-05,-0.00046,-0.00036,-6e-05,1e-05,0.00022,5,9
22588,-0.00012,-2e-05,2e-05,-0.00046,-0.00036,-6e-05,1e-05,0.00022,5,9
22589,-0.00012,-2e-05,2e-05,-0.00046,-0.00036,-6e-05,1e-05,0.00022,5,9
22590,-0.00012,-2e-05,2e-05,-0.00046,-0.00036,-6e-05,1e-05,0.00022,5,9
22591,-0.00012,-2e-05,2e-05,-0.00046,-0.00036,-6e-05,1e-05,0.00022,5,9
22592,-0.00012,-2e-05,2e-05,-0.00046,-0.00036,-6e-05,1e-05,0.00022,5,9
22593,-0.00012,-2e-05,2e-05,-0.00046,-0.00036,-6e-05,1e-05,0.00022,5,9
22594,-0.00012,-2e-05,2e-05,-0.00046,-0.00036,-6e-05,1e-05,0.00022,5,9
22595,-0.00012,-2e-05,2e-05,-0.00046,-0.00036,-6e-05,1e-05,0.00022,5,9
22596,-0.00012,-2e-05,2e-05,-0.00046,-0.00036,-6e-05,1e-05,0.00022,5,9
22597,-0.00012,-2e-05,2e-05,-0.00046,-0.00036,-6e-05,1e-05,0.00022,5,9
22598,-0.00012,-2e-05,2e-05,-0.00046,-0.00036,-6e-05,1e-05,0.00022,5,9
22599,-0.00012,-2e-05,2e-05,-0.00046,-0.00036,-6e-05,1e-05,0.00022,5,9
22600,0.00012,-2e-05,-4e-05,0.00025,0.00031,3e-05,3e-05,-6e-05,5,9
22602,0,-6e-05,-0.0001,0.0001,0.00019,-4e-05,-6e-05,-0.00013,5,9
22603,0,-6e-05,-0.0001,0.0001,0.00019,-4e-05,-6e-05,-0.00013,5,9
22604,0,-6e-05,-0.0001,0.0001,0.00019,-4e-05,-6e-05,-0.00013,5,9
22605,0,-6e-05,-0.0001,0.0001,0.00019,-4e-05,-6e-05,-0.00013,5,9
22606,0,-6e-05,-0.0001,0.0001,0.00019,-4e-05,-6e-05,-0.00013,5,9
22607,0,-6e-05,-0.0001,0.0001,0.00019,-4e-05,-6e-05,-0.00013,5,9
22608,0,-6e-05,-0.0001,0.0001,0.00019,-4e-05,-6e-05,-0.00013,5,9
22609,0,-6e-05,-0.0001,0.0001,0.00019,-4e-05,-6e-05,-0.00013,5,9
22610,0,-6e-05,-0.0001,0.0001,0.00019,-4e-05,-6e-05,-0.00013,5,9
22611,0,-6e-05,-0.0001,0.0001,0.00019,-4e-05,-6e-05,-0.00013,5,9
22612,0,-6e-05,-0.0001,0.0001,0.00019,-4e-05,-6e-05,-0.00013,5,9
22613,0,-6e-05,-0.0001,0.0001,0.00019,-4e-05,-6e-05,-0.00013,5,9
22614,0,-6e-05,-0.0001,0.0001,0.00019,-4e-05,-6e-05,-0.00013,5,9
22615,4e-05,-1e-05,-0.00011,0.00045,0.00033,5e-05,-1e-05,-2e-05,5,9
22616,4e-05,-1e-05,-0.00011,0.00045,0.00033,5e-05,-1e-05,-2e-05,5,9
22617,4e-05,-1e-05,-0.00011,0.00045,0.00033,5e-05,-1e-05,-2e-05,5,9
22618,4e-05,-1e-05,-0.00011,0.00045,0.00033,5e-05,-1e-05,-2e-05,5,9
22619,4e-05,-1e-05,-0.00011,0.00045,0.00033,5e-05,-1e-05,-2e-05,5,9
22620,4e-05,-1e-05,-0.00011,0.00045,0.00033,5e-05,-1e-05,-2e-05,5,9
22621,4e-05,-1e-05,-0.00011,0.00045,0.00033,5e-05,-1e-05,-2e-05,5,9
22622,4e-05,-1e-05,-0.00011,0.00045,0.00033,5e-05,-1e-05,-2e-05,5,9
22623,4e-05,-1e-05,-0.00011,0.00045,0.00033,5e-05,-1e-05,-2e-05,5,9
22624,4e-05,-1e-05,-0.00011,0.00045,0.00033,5e-05,-1e-05,-2e-05,5,9
22625,4e-05,-1e-05,-0.00011,0.00045,0.00033,5e-05,-1e-05,-2e-05,5,9
22626,4e-05,-1e-05,-0.00011,0.00045,0.00033,5e-05,-1e-05,-2e-05,5,9
22627,4e-05,-1e-05,-0.00011,0.00045,0.00033,5e-05,-1e-05,-2e-05,5,9
22628,4e-05,-1e-05,-0.00011,0.00045,0.00033,5e-05,-1e-05,-2e-05,5,9
22629,4e-05,-1e-05,-0.00011,0.00045,0.00033,5e-05,-1e-05,-2e-05,5,9
22630,4e-05,-1e-05,-0.00011,0.00045,0.00033,5e-05,-1e-05,-2e-05,5,9
22631,4e-05,-1e-05,-0.00011,0.00045,0.00033,5e-05,-1e-05,-2e-05,5,9
22632,4e-05,-1e-05,-0.00011,0.00045,0.00033,5e-05,-1e-05,-2e-05,5,9
22633,4e-05,-1e-05,-0.00011,0.00045,0.00033,5e-05,-1e-05,-2e-05,5,9
22634,4e-05,-1e-05,-0.00011,0.00045,0.00033,5e-05,-1e-05,-2e-05,5,9
22635,4e-05,-1e-05,-0.00011,0.00045,0.00033,5e-05,-1e-05,-2e-05,5,9
22636,4e-05,-1e-05,-0.00011,0.00045,0.00033,5e-05,-1e-05,-2e-05,5,9
22639,-8e-05,-4e-05,2e-05,-3e-05,0.00012,-2e-05,-1e-05,0,5,9
22640,-8e-05,-4e-05,2e-05,-3e-05,0.00012,-2e-05,-1e-05,0,5,9
22641,-8e-05,-4e-05,2e-05,-3e-05,0.00012,-2e-05,-1e-05,0,5,9
22642,-8e-05,-4e-05,2e-05,-3e-05,0.00012,-2e-05,-1e-05,0,5,9
22643,-8e-05,-4e-05,2e-05,-3e-05,0.00012,-2e-05,-1e-05,0,5,9
22644,-8e-05,-4e-05,2e-05,-3e-05,0.00012,-2e-05,-1e-05,0,5,9
22645,-8e-05,-4e-05,2e-05,-3e-05,0.00012,-2e-05,-1e-05,0,5,9
22646,-8e-05,-4e-05,2e-05,-3e-05,0.00012,-2e-05,-1e-05,0,5,9
22647,-8e-05,-4e-05,2e-05,-3e-05,0.00012,-2e-05,-1e-05,0,5,9
22648,-8e-05,-4e-05,2e-05,-3e-05,0.00012,-2e-05,-1e-05,0,5,9
22649,-8e-05,-4e-05,2e-05,-3e-05,0.00012,-2e-05,-1e-05,0,5,9
22650,-8e-05,-4e-05,2e-05,-3e-05,0.00012,-2e-05,-1e-05,0,5,9
22651,-8e-05,-4e-05,2e-05,-3e-05,0.00012,-2e-05,-1e-05,0,5,9
22652,-8e-05,-4e-05,2e-05,-3e-05,0.00012,-2e-05,-1e-05,0,5,9
22653,-8e-05,-4e-05,2e-05,-3e-05,0.00012,-2e-05,-1e-05,0,5,9
22654,-8e-05,-4e-05,2e-05,-3e-05,0.00012,-2e-05,-1e-05,0,5,9
22655,-8e-05,-4e-05,2e-05,-3e-05,0.00012,-2e-05,-1e-05,0,5,9
22656,-8e-05,-4e-05,2e-05,-3e-05,0.00012,-2e-05,-1e-05,0,5,9
22657,-8e-05,-4e-05,2e-05,-3e-05,0.00012,-2e-05,-1e-05,0,5,9
22658,-8e-05,-4e-05,2e-05,-3e-05,0.00012,-2e-05,-1e-05,0,5,9
22659,-8e-05,-4e-05,2e-05,-3e-05,0.00012,-2e-05,-1e-05,0,5,9
22660,-8e-05,-4e-05,2e-05,-3e-05,0.00012,-2e-05,-1e-05,0,5,9
22661,7e-05,0,-3e-05,-0.00011,-0.00037,-2e-05,-6e-05,3e-05,5,9
22662,-0.00012,2e-05,4e-05,0.00023,9e-05,5e-05,-1e-05,2e-05,5,9
22663,-0.00012,2e-05,4e-05,0.00023,9e-05,5e-05,-1e-05,2e-05,5,9
22664,-0.00012,2e-05,4e-05,0.00023,9e-05,5e-05,-1e-05,2e-05,5,9
22665,-0.00012,2e-05,4e-05,0.00023,9e-05,5e-05,-1e-05,2e-05,5,9
22666,-0.00012,2e-05,4e-05,0.00023,9e-05,5e-05,-1e-05,2e-05,5,9
22667,-0.00012,2e-05,4e-05,0.00023,9e-05,5e-05,-1e-05,2e-05,5,9
22668,-0.00012,2e-05,4e-05,0.00023,9e-05,5e-05,-1e-05,2e-05,5,9
22669,-0.00012,2e-05,4e-05,0.00023,9e-05,5e-05,-1e-05,2e-05,5,9
22670,-0.00012,2e-05,4e-05,0.00023,9e-05,5e-05,-1e-05,2e-05,5,9
22671,-0.00012,2e-05,4e-05,0.00023,9e-05,5e-05,-1e-05,2e-05,5,9
22672,-0.00012,2e-05,4e-05,0.00023,9e-05,5e-05,-1e-05,2e-05,5,9
22673,-0.00012,2e-05,4e-05,0.00023,9e-05,5e-05,-1e-05,2e-05,5,9
22674,-0.00012,2e-05,4e-05,0.00023,9e-05,5e-05,-1e-05,2e-05,5,9
22675,7e-05,3e-05,4e-05,-7e-05,-0.00015,0,-3e-05,-3e-05,5,9
22676,8e-05,8e-05,0,-0.00011,-0.0001,0,2e-05,-3e-05,5,9
22677,8e-05,8e-05,0,-0.00011,-0.0001,0,2e-05,-3e-05,5,9
22678,8e-05,8e-05,0,-0.00011,-0.0001,0,2e-05,-3e-05,5,9
22679,8e-05,8e-05,0,-0.00011,-0.0001,0,2e-05,-3e-05,5,9
22680,8e-05,8e-05,0,-0.00011,-0.0001,0,2e-05,-3e-05,5,9
22681,8e-05,8e-05,0,-0.00011,-0.0001,0,2e-05,-3e-05,5,9
22682,8e-05,8e-05,0,-0.00011,-0.0001,0,2e-05,-3e-05,5,9
22683,8e-05,8e-05,0,-0.00011,-0.0001,0,2e-05,-3e-05,5,9
22684,8e-05,8e-05,0,-0.00011,-0.0001,0,2e-05,-3e-05,5,9
22685,8e-05,8e-05,0,-0.00011,-0.0001,0,2e-05,-3e-05,5,9
22686,8e-05,8e-05,0,-0.00011,-0.0001,0,2e-05,-3e-05,5,9
22688,8e-05,8e-05,0,-0.00011,-0.0001,0,2e-05,-3e-05,5,9
22689,8e-05,8e-05,0,-0.00011,-0.0001,0,2e-05,-3e-05,5,9
22690,8e-05,8e-05,0,-0.00011,-0.0001,0,2e-05,-3e-05,5,9
22691,8e-05,8e-05,0,-0.00011,-0.0001,0,2e-05,-3e-05,5,9
22692,8e-05,8e-05,0,-0.00011,-0.0001,0,2e-05,-3e-05,5,9
22693,8e-05,8e-05,0,-0.00011,-0.0001,0,2e-05,-3e-05,5,9
22694,8e-05,8e-05,0,-0.00011,-0.0001,0,2e-05,-3e-05,5,9
22695,8e-05,8e-05,0,-0.00011,-0.0001,0,2e-05,-3e-05,5,9
22696,8e-05,8e-05,0,-0.00011,-0.0001,0,2e-05,-3e-05,5,9
22697,8e-05,8e-05,0,-0.00011,-0.0001,0,2e-05,-3e-05,5,9
22698,-8e-05,-2e-05,8e-05,1e-05,0.00016,0.0001,-2e-05,-3e-05,5,9
22699,-4e-05,-7e-05,-8e-05,0.00012,0.00028,1e-05,5e-05,-3e-05,5,9
22700,-4e-05,-7e-05,-8e-05,0.00012,0.00028,1e-05,5e-05,-3e-05,5,9
22701,-4e-05,-7e-05,-8e-05,0.00012,0.00028,1e-05,5e-05,-3e-05,5,9
22702,-4e-05,-7e-05,-8e-05,0.00012,0.00028,1e-05,5e-05,-3e-05,5,9
22703,-4e-05,-7e-05,-8e-05,0.00012,0.00028,1e-05,5e-05,-3e-05,5,9
22704,-4e-05,-7e-05,-8e-05,0.00012,0.00028,1e-05,5e-05,-3e-05,5,9
22705,-4e-05,-7e-05,-8e-05,0.00012,0.00028,1e-05,5e-05,-3e-05,5,9
22706,-4e-05,-7e-05,-8e-05,0.00012,0.00028,1e-05,5e-05,-3e-05,5,9
22707,-4e-05,-7e-05,-8e-05,0.00012,0.00028,1e-05,5e-05,-3e-05,5,9
22708,-4e-05,-7e-05,-8e-05,0.00012,0.00028,1e-05,5e-05,-3e-05,5,9
22709,-4e-05,-7e-05,-8e-05,0.00012,0.00028,1e-05,5e-05,-3e-05,5,9
22710,-4e-05,-7e-05,-8e-05,0.00012,0.00028,1e-05,5e-05,-3e-05,5,9
22711,-4e-05,-7e-05,-8e-05,0.00012,0.00028,1e-05,5e-05,-3e-05,5,9
22712,-4e-05,-7e-05,-8e-05,0.00012,0.00028,1e-05,5e-05,-3e-05,5,9
22713,-4e-05,-7e-05,-8e-05,0.00012,0.00028,1e-05,5e-05,-3e-05,5,9
22714,-4e-05,-7e-05,-8e-05,0.00012,0.00028,1e-05,5e-05,-3e-05,5,9
22715,-4e-05,-7e-05,-8e-05,0.00012,0.00028,1e-05,5e-05,-3e-05,5,9
22716,-4e-05,-7e-05,-8e-05,0.00012,0.00028,1e-05,5e-05,-3e-05,5,9
22717,-4e-05,-7e-05,-8e-05,0.00012,0.00028,1e-05,5e-05,-3e-05,5,9
22718,-4e-05,-7e-05,-8e-05,0.00012,0.00028,1e-05,5e-05,-3e-05,5,9
22719,-4e-05,-7e-05,-8e-05,0.00012,0.00028,1e-05,5e-05,-3e-05,5,9
22720,0.00011,6e-05,4e-05,0.00034,-8e-05,8e-05,-6e-05,3e-05,5,9
22721,0.00011,6e-05,4e-05,0.00034,-8e-05,8e-05,-6e-05,3e-05,5,9
22722,0.00011,6e-05,4e-05,0.00034,-8e-05,8e-05,-6e-05,3e-05,5,9
22723,0.00011,6e-05,4e-05,0.00034,-8e-05,8e-05,-6e-05,3e-05,5,9
22724,0.00011,6e-05,4e-05,0.00034,-8e-05,8e-05,-6e-05,3e-05,5,9
22725,0.00011,6e-05,4e-05,0.00034,-8e-05,8e-05,-6e-05,3e-05,5,9
22726,0.00011,6e-05,4e-05,0.00034,-8e-05,8e-05,-6e-05,3e-05,5,9
22727,-0.00022,-8e-05,-6e-05,-0.00011,0.00047,-4e-05,0,-4e-05,5,9
22728,9e-05,3e-05,0.0001,0.00042,-6e-05,-8e-05,-2e-05,-1e-05,5,9
22729,9e-05,3e-05,0.0001,0.00042,-6e-05,-8e-05,-2e-05,-1e-05,5,9
22730,9e-05,3e-05,0.0001,0.00042,-6e-05,-8e-05,-2e-05,-1e-05,5,9
22731,9e-05,3e-05,0.0001,0.00042,-6e-05,-8e-05,-2e-05,-1e-05,5,9
22732,9e-05,3e-05,0.0001,0.00042,-6e-05,-8e-05,-2e-05,-1e-05,5,9
22733,9e-05,3e-05,0.0001,0.00042,-6e-05,-8e-05,-2e-05,-1e-05,5,9
22734,9e-05,3e-05,0.0001,0.00042,-6e-05,-8e-05,-2e-05,-1e-05,5,9
22735,-0.00011,-7e-05,-0.00014,-0.00021,0.00021,-4e-05,-4e-05,-5e-05,5,9
22736,8e-05,-3e-05,3e-05,-0.00014,0.00016,4e-05,-4e-05,-0.00018,5,9
22738,8e-05,-3e-05,3e-05,-0.00014,0.00016,4e-05,-4e-05,-0.00018,5,9
22739,8e-05,-3e-05,3e-05,-0.00014,0.00016,4e-05,-4e-05,-0.00018,5,9
22740,8e-05,-3e-05,3e-05,-0.00014,0.00016,4e-05,-4e-05,-0.00018,5,9
22741,8e-05,-3e-05,3e-05,-0.00014,0.00016,4e-05,-4e-05,-0.00018,5,9
22742,8e-05,-3e-05,3e-05,-0.00014,0.00016,4e-05,-4e-05,-0.00018,5,9
22743,8e-05,-3e-05,3e-05,-0.00014,0.00016,4e-05,-4e-05,-0.00018,5,9
22744,8e-05,-3e-05,3e-05,-0.00014,0.00016,4e-05,-4e-05,-0.00018,5,9
22745,8e-05,-3e-05,3e-05,-0.00014,0.00016,4e-05,-4e-05,-0.00018,5,9
22746,8e-05,-3e-05,3e-05,-0.00014,0.00016,4e-05,-4e-05,-0.00018,5,9
22747,8e-05,-3e-05,3e-05,-0.00014,0.00016,4e-05,-4e-05,-0.00018,5,9
22748,8e-05,-3e-05,3e-05,-0.00014,0.00016,4e-05,-4e-05,-0.00018,5,9
22749,8e-05,-3e-05,3e-05,-0.00014,0.00016,4e-05,-4e-05,-0.00018,5,9
22750,8e-05,-3e-05,3e-05,-0.00014,0.00016,4e-05,-4e-05,-0.00018,5,9
22751,8e-05,-3e-05,3e-05,-0.00014,0.00016,4e-05,-4e-05,-0.00018,5,9
22752,8e-05,-3e-05,3e-05,-0.00014,0.00016,4e-05,-4e-05,-0.00018,5,9
22753,8e-05,-3e-05,3e-05,-0.00014,0.00016,4e-05,-4e-05,-0.00018,5,9
22754,8e-05,-3e-05,3e-05,-0.00014,0.00016,4e-05,-4e-05,-0.00018,5,9
22755,8e-05,-3e-05,3e-05,-0.00014,0.00016,4e-05,-4e-05,-0.00018,5,9
22756,8e-05,-3e-05,3e-05,-0.00014,0.00016,4e-05,-4e-05,-0.00018,5,9
22757,8e-05,-3e-05,3e-05,-0.00014,0.00016,4e-05,-4e-05,-0.00018,5,9
22758,0.00012,-3e-05,-3e-05,0.00016,0.00035,0.00021,5e-05,0.00013,5,9
22759,0,2e-05,-5e-05,-0.00036,-8e-05,-7e-05,-1e-05,0.00012,5,9
22760,0,2e-05,-5e-05,-0.00036,-8e-05,-7e-05,-1e-05,0.00012,5,9
22761,0,2e-05,-5e-05,-0.00036,-8e-05,-7e-05,-1e-05,0.00012,5,9
22762,0,2e-05,-5e-05,-0.00036,-8e-05,-7e-05,-1e-05,0.00012,5,9
22763,0,2e-05,-5e-05,-0.00036,-8e-05,-7e-05,-1e-05,0.00012,5,9
22764,0,2e-05,-5e-05,-0.00036,-8e-05,-7e-05,-1e-05,0.00012,5,9
22765,0,2e-05,-5e-05,-0.00036,-8e-05,-7e-05,-1e-05,0.00012,5,9
22766,0,2e-05,-5e-05,-0.00036,-8e-05,-7e-05,-1e-05,0.00012,5,9
22767,0,2e-05,-5e-05,-0.00036,-8e-05,-7e-05,-1e-05,0.00012,5,9
22768,0,2e-05,-5e-05,-0.00036,-8e-05,-7e-05,-1e-05,0.00012,5,9
22769,0,2e-05,-5e-05,-0.00036,-8e-05,-7e-05,-1e-05,0.00012,5,9
22770,0,2e-05,-5e-05,-0.00036,-8e-05,-7e-05,-1e-05,0.00012,5,9
22771,0,2e-05,-5e-05,-0.00036,-8e-05,-7e-05,-1e-05,0.00012,5,9
22772,0,2e-05,-5e-05,-0.00036,-8e-05,-7e-05,-1e-05,0.00012,5,9
22773,0,2e-05,-5e-05,-0.00036,-8e-05,-7e-05,-1e-05,0.00012,5,9
22774,0,2e-05,-5e-05,-0.00036,-8e-05,-7e-05,-1e-05,0.00012,5,9
22775,0,2e-05,-5e-05,-0.00036,-8e-05,-7e-05,-1e-05,0.00012,5,9
22776,0,2e-05,-5e-05,-0.00036,-8e-05,-7e-05,-1e-05,0.00012,5,9
22777,0,2e-05,-5e-05,-0.00036,-8e-05,-7e-05,-1e-05,0.00012,5,9
22778,0,2e-05,-5e-05,-0.00036,-8e-05,-7e-05,-1e-05,0.00012,5,9
22779,0,2e-05,-5e-05,-0.00036,-8e-05,-7e-05,-1e-05,0.00012,5,9
22780,0,2e-05,-5e-05,-0.00036,-8e-05,-7e-05,-1e-05,0.00012,5,9
22781,-3e-05,-4e-05,-0.00014,0.00011,0.00031,0,3e-05,-3e-05,5,9
22782,-3e-05,-4e-05,-0.00014,0.00011,0.00031,0,3e-05,-3e-05,5,9
22783,-3e-05,-4e-05,-0.00014,0.00011,0.00031,0,3e-05,-3e-05,5,9
22784,-3e-05,-4e-05,-0.00014,0.00011,0.00031,0,3e-05,-3e-05,5,9
22785,-3e-05,-4e-05,-0.00014,0.00011,0.00031,0,3e-05,-3e-05,5,9
22786,-3e-05,-4e-05,-0.00014,0.00011,0.00031,0,3e-05,-3e-05,5,9
22789,-3e-05,-4e-05,-0.00014,0.00011,0.00031,0,3e-05,-3e-05,5,9
22790,-3e-05,-4e-05,-0.00014,0.00011,0.00031,0,3e-05,-3e-05,5,9
22791,-3e-05,-4e-05,-0.00014,0.00011,0.00031,0,3e-05,-3e-05,5,9
22792,-3e-05,-4e-05,-0.00014,0.00011,0.00031,0,3e-05,-3e-05,5,9
22793,-3e-05,-4e-05,-0.00014,0.00011,0.00031,0,3e-05,-3e-05,5,9
22794,-3e-05,-4e-05,-0.00014,0.00011,0.00031,0,3e-05,-3e-05,5,9
22795,-3e-05,-4e-05,-0.00014,0.00011,0.00031,0,3e-05,-3e-05,5,9
22796,-3e-05,-4e-05,-0.00014,0.00011,0.00031,0,3e-05,-3e-05,5,9
22797,-3e-05,-4e-05,-0.00014,0.00011,0.00031,0,3e-05,-3e-05,5,9
22798,-3e-05,-4e-05,-0.00014,0.00011,0.00031,0,3e-05,-3e-05,5,9
22799,-3e-05,-4e-05,-0.00014,0.00011,0.00031,0,3e-05,-3e-05,5,9
22800,-3e-05,-4e-05,-0.00014,0.00011,0.00031,0,3e-05,-3e-05,5,9
22801,-3e-05,-4e-05,-0.00014,0.00011,0.00031,0,3e-05,-3e-05,5,9
22802,-3e-05,-4e-05,-0.00014,0.00011,0.00031,0,3e-05,-3e-05,5,9
22803,-4e-05,1e-05,2e-05,-0.00014,-0.00065,-5e-05,-4e-05,3e-05,5,9
22804,0,3e-05,8e-05,-4e-05,-0.00054,-0.00018,2e-05,5e-05,5,9
22805,0,3e-05,8e-05,-4e-05,-0.00054,-0.00018,2e-05,5e-05,5,9
22806,0,3e-05,8e-05,-4e-05,-0.00054,-0.00018,2e-05,5e-05,5,9
22807,0,3e-05,8e-05,-4e-05,-0.00054,-0.00018,2e-05,5e-05,5,9
22808,0,3e-05,8e-05,-4e-05,-0.00054,-0.00018,2e-05,5e-05,5,9
22809,0,3e-05,8e-05,-4e-05,-0.00054,-0.00018,2e-05,5e-05,5,9
22810,0,3e-05,8e-05,-4e-05,-0.00054,-0.00018,2e-05,5e-05,5,9
22811,0,3e-05,8e-05,-4e-05,-0.00054,-0.00018,2e-05,5e-05,5,9
22812,0,3e-05,8e-05,-4e-05,-0.00054,-0.00018,2e-05,5e-05,5,9
22813,0,3e-05,8e-05,-4e-05,-0.00054,-0.00018,2e-05,5e-05,5,9
22814,0,3e-05,8e-05,-4e-05,-0.00054,-0.00018,2e-05,5e-05,5,9
22815,0,3e-05,8e-05,-4e-05,-0.00054,-0.00018,2e-05,5e-05,5,9
22816,0,3e-05,8e-05,-4e-05,-0.00054,-0.00018,2e-05,5e-05,5,9
22817,0,3e-05,8e-05,-4e-05,-0.00054,-0.00018,2e-05,5e-05,5,9
22818,-9e-05,-5e-05,1e-05,3e-05,-0.00014,-0.00015,-1e-05,-6e-05,5,9
22819,-3e-05,3e-05,0.00012,-0.00028,-0.0005,-0.00014,-3e-05,0,5,9
22820,2e-05,-1e-05,-4e-05,0.00023,-6e-05,7e-05,-0.0001,-7e-05,5,9
22821,2e-05,-1e-05,-4e-05,0.00023,-6e-05,7e-05,-0.0001,-7e-05,5,9
22822,2e-05,-1e-05,-4e-05,0.00023,-6e-05,7e-05,-0.0001,-7e-05,5,9
22823,2e-05,-1e-05,-4e-05,0.00023,-6e-05,7e-05,-0.0001,-7e-05,5,9
22824,2e-05,-1e-05,-4e-05,0.00023,-6e-05,7e-05,-0.0001,-7e-05,5,9
22825,2e-05,-1e-05,-4e-05,0.00023,-6e-05,7e-05,-0.0001,-7e-05,5,9
22826,2e-05,-1e-05,-4e-05,0.00023,-6e-05,7e-05,-0.0001,-7e-05,5,9
22827,2e-05,-1e-05,-4e-05,0.00023,-6e-05,7e-05,-0.0001,-7e-05,5,9
22828,2e-05,-1e-05,-4e-05,0.00023,-6e-05,7e-05,-0.0001,-7e-05,5,9
22829,2e-05,-1e-05,-4e-05,0.00023,-6e-05,7e-05,-0.0001,-7e-05,5,9
22830,2e-05,-1e-05,-4e-05,0.00023,-6e-05,7e-05,-0.0001,-7e-05,5,9
22831,2e-05,-1e-05,-4e-05,0.00023,-6e-05,7e-05,-0.0001,-7e-05,5,9
22832,2e-05,-1e-05,-4e-05,0.00023,-6e-05,7e-05,-0.0001,-7e-05,5,9
22833,2e-05,-1e-05,-4e-05,0.00023,-6e-05,7e-05,-0.0001,-7e-05,5,9
22834,2e-05,-1e-05,-4e-05,0.00023,-6e-05,7e-05,-0.0001,-7e-05,5,9
22835,2e-05,-1e-05,-4e-05,0.00023,-6e-05,7e-05,-0.0001,-7e-05,5,9
22836,2e-05,-1e-05,-4e-05,0.00023,-6e-05,7e-05,-0.0001,-7e-05,5,9
22839,2e-05,-1e-05,-4e-05,0.00023,-6e-05,7e-05,-0.0001,-7e-05,5,9
22840,2e-05,-1e-05,-4e-05,0.00023,-6e-05,7e-05,-0.0001,-7e-05,5,9
22841,-2e-05,0,0,3e-05,0.00013,0.00015,0,3e-05,5,9
22842,0,1e-05,-1e-05,0,5e-05,7e-05,3e-05,4e-05,5,9
22843,0,1e-05,-1e-05,0,5e-05,7e-05,3e-05,4e-05,5,9
22844,0,1e-05,-1e-05,0,5e-05,7e-05,3e-05,4e-05,5,9
22845,0,1e-05,-1e-05,0,5e-05,7e-05,3e-05,4e-05,5,9
22846,0,1e-05,-1e-05,0,5e-05,7e-05,3e-05,4e-05,5,9
22847,0,1e-05,-1e-05,0,5e-05,7e-05,3e-05,4e-05,5,9
22848,0,1e-05,-1e-05,0,5e-05,7e-05,3e-05,4e-05,5,9
22849,0,1e-05,-1e-05,0,5e-05,7e-05,3e-05,4e-05,5,9
22850,0,1e-05,-1e-05,0,5e-05,7e-05,3e-05,4e-05,5,9
22851,0,1e-05,-1e-05,0,5e-05,7e-05,3e-05,4e-05,5,9
22852,0,1e-05,-1e-05,0,5e-05,7e-05,3e-05,4e-05,5,9
22853,0,1e-05,-1e-05,0,5e-05,7e-05,3e-05,4e-05,5,9
22854,0,1e-05,-1e-05,0,5e-05,7e-05,3e-05,4e-05,5,9
22855,-1e-05,-0.0001,0,0.00023,0.00059,2e-05,-9e-05,-7e-05,5,9
22856,3e-05,2e-05,0.0001,-0.00014,0.00018,-9e-05,6e-05,2e-05,5,9
22857,3e-05,2e-05,0.0001,-0.00014,0.00018,-9e-05,6e-05,2e-05,5,9
22858,3e-05,2e-05,0.0001,-0.00014,0.00018,-9e-05,6e-05,2e-05,5,9
22859,3e-05,2e-05,0.0001,-0.00014,0.00018,-9e-05,6e-05,2e-05,5,9
22860,3e-05,2e-05,0.0001,-0.00014,0.00018,-9e-05,6e-05,2e-05,5,9
22861,3e-05,2e-05,0.0001,-0.00014,0.00018,-9e-05,6e-05,2e-05,5,9
22862,3e-05,2e-05,0.0001,-0.00014,0.00018,-9e-05,6e-05,2e-05,5,9
22863,3e-05,2e-05,0.0001,-0.00014,0.00018,-9e-05,6e-05,2e-05,5,9
22864,3e-05,2e-05,0.0001,-0.00014,0.00018,-9e-05,6e-05,2e-05,5,9
22865,3e-05,2e-05,0.0001,-0.00014,0.00018,-9e-05,6e-05,2e-05,5,9
22866,3e-05,2e-05,0.0001,-0.00014,0.00018,-9e-05,6e-05,2e-05,5,9
22867,3e-05,2e-05,0.0001,-0.00014,0.00018,-9e-05,6e-05,2e-05,5,9
22868,3e-05,2e-05,0.0001,-0.00014,0.00018,-9e-05,6e-05,2e-05,5,9
22869,3e-05,2e-05,0.0001,-0.00014,0.00018,-9e-05,6e-05,2e-05,5,9
22870,3e-05,2e-05,0.0001,-0.00014,0.00018,-9e-05,6e-05,2e-05,5,9
22871,3e-05,2e-05,0.0001,-0.00014,0.00018,-9e-05,6e-05,2e-05,5,9
22872,3e-05,2e-05,0.0001,-0.00014,0.00018,-9e-05,6e-05,2e-05,5,9
22873,3e-05,2e-05,0.0001,-0.00014,0.00018,-9e-05,6e-05,2e-05,5,9
22874,3e-05,2e-05,0.0001,-0.00014,0.00018,-9e-05,6e-05,2e-05,5,9
22875,3e-05,2e-05,0.0001,-0.00014,0.00018,-9e-05,6e-05,2e-05,5,9
22876,3e-05,2e-05,0.0001,-0.00014,0.00018,-9e-05,6e-05,2e-05,5,9
22877,3e-05,2e-05,0.0001,-0.00014,0.00018,-9e-05,6e-05,2e-05,5,9
22878,-2e-05,3e-05,-2e-05,-0.0002,0.00015,6e-05,4e-05,6e-05,5,9
22879,0,0,-1e-05,-0.00015,8e-05,8e-05,-7e-05,-1e-05,5,9
22880,0,0,-1e-05,-0.00015,8e-05,8e-05,-7e-05,-1e-05,5,9
22881,0,0,-1e-05,-0.00015,8e-05,8e-05,-7e-05,-1e-05,5,9
22882,0,0,-1e-05,-0.00015,8e-05,8e-05,-7e-05,-1e-05,5,9
22883,0,0,-1e-05,-0.00015,8e-05,8e-05,-7e-05,-1e-05,5,9
22884,0,0,-1e-05,-0.00015,8e-05,8e-05,-7e-05,-1e-05,5,9
22885,0,0,-1e-05,-0.00015,8e-05,8e-05,-7e-05,-1e-05,5,9
22886,0,0,-1e-05,-0.00015,8e-05,8e-05,-7e-05,-1e-05,5,9
22889,0,0,-1e-05,-0.00015,8e-05,8e-05,-7e-05,-1e-05,5,9
22890,0,0,-1e-05,-0.00015,8e-05,8e-05,-7e-05,-1e-05,5,9
22891,0,0,-1e-05,-0.00015,8e-05,8e-05,-7e-05,-1e-05,5,9
22892,0,0,-1e-05,-0.00015,8e-05,8e-05,-7e-05,-1e-05,5,9
22893,0,0,-1e-05,-0.00015,8e-05,8e-05,-7e-05,-1e-05,5,9
22894,0,0,-1e-05,-0.00015,8e-05,8e-05,-7e-05,-1e-05,5,9
22895,0,0,-1e-05,-0.00015,8e-05,8e-05,-7e-05,-1e-05,5,9
22896,0,0,-1e-05,-0.00015,8e-05,8e-05,-7e-05,-1e-05,5,9
22897,0,0,-1e-05,-0.00015,8e-05,8e-05,-7e-05,-1e-05,5,9
22898,0,0,-1e-05,-0.00015,8e-05,8e-05,-7e-05,-1e-05,5,9
22899,0,0,-1e-05,-0.00015,8e-05,8e-05,-7e-05,-1e-05,5,9
22900,0,0,-1e-05,-0.00015,8e-05,8e-05,-7e-05,-1e-05,5,9
22901,6e-05,5e-05,0.00011,-7e-05,0.00021,-8e-05,-1e-05,4e-05,5,9
22902,5e-05,1e-05,-2e-05,0.00072,7e-05,9e-05,-4e-05,-2e-05,5,9
22903,5e-05,1e-05,-2e-05,0.00072,7e-05,9e-05,-4e-05,-2e-05,5,9
22904,5e-05,1e-05,-2e-05,0.00072,7e-05,9e-05,-4e-05,-2e-05,5,9
22905,5e-05,1e-05,-2e-05,0.00072,7e-05,9e-05,-4e-05,-2e-05,5,9
22906,5e-05,1e-05,-2e-05,0.00072,7e-05,9e-05,-4e-05,-2e-05,5,9
22907,5e-05,1e-05,-2e-05,0.00072,7e-05,9e-05,-4e-05,-2e-05,5,9
22908,5e-05,1e-05,-2e-05,0.00072,7e-05,9e-05,-4e-05,-2e-05,5,9
22909,5e-05,1e-05,-2e-05,0.00072,7e-05,9e-05,-4e-05,-2e-05,5,9
22910,5e-05,1e-05,-2e-05,0.00072,7e-05,9e-05,-4e-05,-2e-05,5,9
22911,5e-05,1e-05,-2e-05,0.00072,7e-05,9e-05,-4e-05,-2e-05,5,9
22912,5e-05,1e-05,-2e-05,0.00072,7e-05,9e-05,-4e-05,-2e-05,5,9
22913,5e-05,1e-05,-2e-05,0.00072,7e-05,9e-05,-4e-05,-2e-05,5,9
22914,5e-05,1e-05,-2e-05,0.00072,7e-05,9e-05,-4e-05,-2e-05,5,9
22915,-4e-05,-6e-05,-0.00011,-0.00025,-0.00016,-6e-05,-8e-05,-3e-05,5,9
22916,-8e-05,-0.00011,-0.00013,-0.00056,-0.00051,-0.00017,-8e-05,-6e-05,5,9
22917,-8e-05,-0.00011,-0.00013,-0.00056,-0.00051,-0.00017,-8e-05,-6e-05,5,9
22918,-8e-05,-0.00011,-0.00013,-0.00056,-0.00051,-0.00017,-8e-05,-6e-05,5,9
22919,-8e-05,-0.00011,-0.00013,-0.00056,-0.00051,-0.00017,-8e-05,-6e-05,5,9
22920,-8e-05,-0.00011,-0.00013,-0.00056,-0.00051,-0.00017,-8e-05,-6e-05,5,9
22921,-8e-05,-0.00011,-0.00013,-0.00056,-0.00051,-0.00017,-8e-05,-6e-05,5,9
22922,-8e-05,-0.00011,-0.00013,-0.00056,-0.00051,-0.00017,-8e-05,-6e-05,5,9
22923,-8e-05,-0.00011,-0.00013,-0.00056,-0.00051,-0.00017,-8e-05,-6e-05,5,9
22924,-8e-05,-0.00011,-0.00013,-0.00056,-0.00051,-0.00017,-8e-05,-6e-05,5,9
22925,-8e-05,-0.00011,-0.00013,-0.00056,-0.00051,-0.00017,-8e-05,-6e-05,5,9
22926,-8e-05,-0.00011,-0.00013,-0.00056,-0.00051,-0.00017,-8e-05,-6e-05,5,9
22927,-8e-05,-0.00011,-0.00013,-0.00056,-0.00051,-0.00017,-8e-05,-6e-05,5,9
22928,-8e-05,-0.00011,-0.00013,-0.00056,-0.00051,-0.00017,-8e-05,-6e-05,5,9
22929,-8e-05,-0.00011,-0.00013,-0.00056,-0.00051,-0.00017,-8e-05,-6e-05,5,9
22930,-8e-05,-0.00011,-0.00013,-0.00056,-0.00051,-0.00017,-8e-05,-6e-05,5,9
22931,-8e-05,-0.00011,-0.00013,-0.00056,-0.00051,-0.00017,-8e-05,-6e-05,5,9
22932,-8e-05,-0.00011,-0.00013,-0.00056,-0.00051,-0.00017,-8e-05,-6e-05,5,9
22933,-8e-05,-0.00011,-0.00013,-0.00056,-0.00051,-0.00017,-8e-05,-6e-05,5,9
22934,-8e-05,-0.00011,-0.00013,-0.00056,-0.00051,-0.00017,-8e-05,-6e-05,5,9
22935,-8e-05,-0.00011,-0.00013,-0.00056,-0.00051,-0.00017,-8e-05,-6e-05,5,9
22936,-8e-05,-0.00011,-0.00013,-0.00056,-0.00051,-0.00017,-8e-05,-6e-05,5,9
22939,-0.0001,-7e-05,-0.00015,2e-05,0.00024,6e-05,2e-05,-2e-05,5,9
22940,-0.0001,-7e-05,-0.00015,2e-05,0.00024,6e-05,2e-05,-2e-05,5,9
22941,-0.0001,-7e-05,-0.00015,2e-05,0.00024,6e-05,2e-05,-2e-05,5,9
22942,-0.0001,-7e-05,-0.00015,2e-05,0.00024,6e-05,2e-05,-2e-05,5,9
22943,-0.0001,-7e-05,-0.00015,2e-05,0.00024,6e-05,2e-05,-2e-05,5,9
22944,-0.0001,-7e-05,-0.00015,2e-05,0.00024,6e-05,2e-05,-2e-05,5,9
22945,-0.0001,-7e-05,-0.00015,2e-05,0.00024,6e-05,2e-05,-2e-05,5,9
22946,-0.0001,-7e-05,-0.00015,2e-05,0.00024,6e-05,2e-05,-2e-05,5,9
22947,-0.0001,-7e-05,-0.00015,2e-05,0.00024,6e-05,2e-05,-2e-05,5,9
22948,-0.0001,-7e-05,-0.00015,2e-05,0.00024,6e-05,2e-05,-2e-05,5,9
22949,-0.0001,-7e-05,-0.00015,2e-05,0.00024,6e-05,2e-05,-2e-05,5,9
22950,-0.0001,-7e-05,-0.00015,2e-05,0.00024,6e-05,2e-05,-2e-05,5,9
22951,-0.0001,-7e-05,-0.00015,2e-05,0.00024,6e-05,2e-05,-2e-05,5,9
22952,-0.0001,-7e-05,-0.00015,2e-05,0.00024,6e-05,2e-05,-2e-05,5,9
22953,-0.0001,-7e-05,-0.00015,2e-05,0.00024,6e-05,2e-05,-2e-05,5,9
22954,-0.0001,-7e-05,-0.00015,2e-05,0.00024,6e-05,2e-05,-2e-05,5,9
22955,-0.0001,-7e-05,-0.00015,2e-05,0.00024,6e-05,2e-05,-2e-05,5,9
22956,-0.0001,-7e-05,-0.00015,2e-05,0.00024,6e-05,2e-05,-2e-05,5,9
22957,-0.0001,-7e-05,-0.00015,2e-05,0.00024,6e-05,2e-05,-2e-05,5,9
22958,-0.0001,-7e-05,-0.00015,2e-05,0.00024,6e-05,2e-05,-2e-05,5,9
22959,-0.0001,-7e-05,-0.00015,2e-05,0.00024,6e-05,2e-05,-2e-05,5,9
22960,-0.0001,-7e-05,-0.00015,2e-05,0.00024,6e-05,2e-05,-2e-05,5,9
22961,2e-05,3e-05,6e-05,-0.0002,-9e-05,-1e-05,0,1e-05,5,9
22962,2e-05,3e-05,6e-05,-0.0002,-9e-05,-1e-05,0,1e-05,5,9
22963,2e-05,3e-05,6e-05,-0.0002,-9e-05,-1e-05,0,1e-05,5,9
22964,2e-05,3e-05,6e-05,-0.0002,-9e-05,-1e-05,0,1e-05,5,9
22965,2e-05,3e-05,6e-05,-0.0002,-9e-05,-1e-05,0,1e-05,5,9
22966,2e-05,3e-05,6e-05,-0.0002,-9e-05,-1e-05,0,1e-05,5,9
22967,2e-05,3e-05,6e-05,-0.0002,-9e-05,-1e-05,0,1e-05,5,9
22968,2e-05,3e-05,6e-05,-0.0002,-9e-05,-1e-05,0,1e-05,5,9
22969,2e-05,3e-05,6e-05,-0.0002,-9e-05,-1e-05,0,1e-05,5,9
22970,2e-05,3e-05,6e-05,-0.0002,-9e-05,-1e-05,0,1e-05,5,9
22971,2e-05,3e-05,6e-05,-0.0002,-9e-05,-1e-05,0,1e-05,5,9
22972,2e-05,3e-05,6e-05,-0.0002,-9e-05,-1e-05,0,1e-05,5,9
22973,2e-05,3e-05,6e-05,-0.0002,-9e-05,-1e-05,0,1e-05,5,9
22974,2e-05,3e-05,6e-05,-0.0002,-9e-05,-1e-05,0,1e-05,5,9
22975,-1e-05,5e-05,5e-05,0.00016,0.00029,2e-05,2e-05,2e-05,5,9
22976,-1e-05,5e-05,5e-05,0.00016,0.00029,2e-05,2e-05,2e-05,5,9
22978,-1e-05,5e-05,5e-05,0.00016,0.00029,2e-05,2e-05,2e-05,5,9
22979,-1e-05,5e-05,5e-05,0.00016,0.00029,2e-05,2e-05,2e-05,5,9
22980,-1e-05,5e-05,5e-05,0.00016,0.00029,2e-05,2e-05,2e-05,5,9
22981,-1e-05,5e-05,5e-05,0.00016,0.00029,2e-05,2e-05,2e-05,5,9
22982,7e-05,-8e-05,-0.00015,-0.00058,-0.00033,-0.00013,-9e-05,-4e-05,5,9
22983,-9e-05,3e-05,0.00013,0.00015,-2e-05,-3e-05,1e-05,1e-05,5,9
22984,-9e-05,3e-05,0.00013,0.00015,-2e-05,-3e-05,1e-05,1e-05,5,9
22985,-9e-05,3e-05,0.00013,0.00015,-2e-05,-3e-05,1e-05,1e-05,5,9
22986,-9e-05,3e-05,0.00013,0.00015,-2e-05,-3e-05,1e-05,1e-05,5,9
22988,-9e-05,3e-05,0.00013,0.00015,-2e-05,-3e-05,1e-05,1e-05,5,9
22989,-9e-05,3e-05,0.00013,0.00015,-2e-05,-3e-05,1e-05,1e-05,5,9
22990,-9e-05,3e-05,0.00013,0.00015,-2e-05,-3e-05,1e-05,1e-05,5,9
22991,-9e-05,3e-05,0.00013,0.00015,-2e-05,-3e-05,1e-05,1e-05,5,9
22992,-9e-05,3e-05,0.00013,0.00015,-2e-05,-3e-05,1e-05,1e-05,5,9
22993,-9e-05,3e-05,0.00013,0.00015,-2e-05,-3e-05,1e-05,1e-05,5,9
22994,-9e-05,3e-05,0.00013,0.00015,-2e-05,-3e-05,1e-05,1e-05,5,9
22995,-9e-05,3e-05,0.00013,0.00015,-2e-05,-3e-05,1e-05,1e-05,5,9
22996,-9e-05,3e-05,0.00013,0.00015,-2e-05,-3e-05,1e-05,1e-05,5,9
22997,-1e-05,-2e-05,1e-05,-6e-05,-6e-05,8e-05,2e-05,1e-05,5,9
22998,-1e-05,-2e-05,1e-05,-6e-05,-6e-05,8e-05,2e-05,1e-05,5,9
22999,-1e-05,-2e-05,1e-05,-6e-05,-6e-05,8e-05,2e-05,1e-05,5,9
23000,-1e-05,-2e-05,1e-05,-6e-05,-6e-05,8e-05,2e-05,1e-05,5,9
23001,-1e-05,-2e-05,1e-05,-6e-05,-6e-05,8e-05,2e-05,1e-05,5,9
23002,-1e-05,-2e-05,1e-05,-6e-05,-6e-05,8e-05,2e-05,1e-05,5,9
23003,-1e-05,-2e-05,1e-05,-6e-05,-6e-05,8e-05,2e-05,1e-05,5,9
23004,-1e-05,-2e-05,1e-05,-6e-05,-6e-05,8e-05,2e-05,1e-05,5,9
23005,-6e-05,-9e-05,-1e-05,0.00025,0.00036,6e-05,-2e-05,-5e-05,5,9
23006,-6e-05,-9e-05,-1e-05,0.00025,0.00036,6e-05,-2e-05,-5e-05,5,9
23007,-6e-05,-9e-05,-1e-05,0.00025,0.00036,6e-05,-2e-05,-5e-05,5,9
23008,-6e-05,-9e-05,-1e-05,0.00025,0.00036,6e-05,-2e-05,-5e-05,5,9
23009,-6e-05,-9e-05,-1e-05,0.00025,0.00036,6e-05,-2e-05,-5e-05,5,9
23010,-6e-05,-9e-05,-1e-05,0.00025,0.00036,6e-05,-2e-05,-5e-05,5,9
23011,-6e-05,-9e-05,-1e-05,0.00025,0.00036,6e-05,-2e-05,-5e-05,5,9
23012,-6e-05,-9e-05,-1e-05,0.00025,0.00036,6e-05,-2e-05,-5e-05,5,9
23013,-6e-05,-9e-05,-1e-05,0.00025,0.00036,6e-05,-2e-05,-5e-05,5,9
23014,-6e-05,-9e-05,-1e-05,0.00025,0.00036,6e-05,-2e-05,-5e-05,5,9
23015,-6e-05,-9e-05,-1e-05,0.00025,0.00036,6e-05,-2e-05,-5e-05,5,9
23016,-6e-05,-9e-05,-1e-05,0.00025,0.00036,6e-05,-2e-05,-5e-05,5,9
23017,-6e-05,-9e-05,-1e-05,0.00025,0.00036,6e-05,-2e-05,-5e-05,5,9
23018,-6e-05,-9e-05,-1e-05,0.00025,0.00036,6e-05,-2e-05,-5e-05,5,9
23019,-6e-05,-9e-05,-1e-05,0.00025,0.00036,6e-05,-2e-05,-5e-05,5,9
23020,-6e-05,-9e-05,-1e-05,0.00025,0.00036,6e-05,-2e-05,-5e-05,5,9
23021,3e-05,2e-05,3e-05,0.00022,0.00032,0.00021,8e-05,5e-05,5,9
23023,3e-05,2e-05,3e-05,0.00022,0.00032,0.00021,8e-05,5e-05,5,9
23024,3e-05,2e-05,3e-05,0.00022,0.00032,0.00021,8e-05,5e-05,5,9
23025,3e-05,2e-05,3e-05,0.00022,0.00032,0.00021,8e-05,5e-05,5,9
23026,3e-05,2e-05,3e-05,0.00022,0.00032,0.00021,8e-05,5e-05,5,9
23027,3e-05,2e-05,3e-05,0.00022,0.00032,0.00021,8e-05,5e-05,5,9
23028,3e-05,2e-05,3e-05,0.00022,0.00032,0.00021,8e-05,5e-05,5,9
23029,3e-05,2e-05,3e-05,0.00022,0.00032,0.00021,8e-05,5e-05,5,9
23030,3e-05,2e-05,3e-05,0.00022,0.00032,0.00021,8e-05,5e-05,5,9
23031,3e-05,2e-05,3e-05,0.00022,0.00032,0.00021,8e-05,5e-05,5,9
23032,3e-05,2e-05,3e-05,0.00022,0.00032,0.00021,8e-05,5e-05,5,9
23033,3e-05,2e-05,3e-05,0.00022,0.00032,0.00021,8e-05,5e-05,5,9
23034,0,-5e-05,-2e-05,7e-05,2e-05,-5e-05,-5e-05,-5e-05,5,9
23035,0,-5e-05,-2e-05,7e-05,2e-05,-5e-05,-5e-05,-5e-05,5,9
23036,0,-5e-05,-2e-05,7e-05,2e-05,-5e-05,-5e-05,-5e-05,5,9
23039,0,-5e-05,-2e-05,7e-05,2e-05,-5e-05,-5e-05,-5e-05,5,9
23040,0,-5e-05,-2e-05,7e-05,2e-05,-5e-05,-5e-05,-5e-05,5,9
23041,0,-5e-05,-2e-05,7e-05,2e-05,-5e-05,-5e-05,-5e-05,5,9
23042,-9e-05,-8e-05,-5e-05,-8e-05,-7e-05,-7e-05,-1e-05,-2e-05,5,9
23043,5e-05,3e-05,-2e-05,-0.0003,-0.00051,-9e-05,0,-0.00018,5,9
23044,5e-05,3e-05,-2e-05,-0.0003,-0.00051,-9e-05,0,-0.00018,5,9
23045,5e-05,3e-05,-2e-05,-0.0003,-0.00051,-9e-05,0,-0.00018,5,9
23046,5e-05,3e-05,-2e-05,-0.0003,-0.00051,-9e-05,0,-0.00018,5,9
23047,5e-05,3e-05,-2e-05,-0.0003,-0.00051,-9e-05,0,-0.00018,5,9
23048,5e-05,3e-05,-2e-05,-0.0003,-0.00051,-9e-05,0,-0.00018,5,9
23049,5e-05,3e-05,-2e-05,-0.0003,-0.00051,-9e-05,0,-0.00018,5,9
23050,5e-05,3e-05,-2e-05,-0.0003,-0.00051,-9e-05,0,-0.00018,5,9
23051,5e-05,3e-05,-2e-05,-0.0003,-0.00051,-9e-05,0,-0.00018,5,9
23052,5e-05,3e-05,-2e-05,-0.0003,-0.00051,-9e-05,0,-0.00018,5,9
23053,5e-05,3e-05,-2e-05,-0.0003,-0.00051,-9e-05,0,-0.00018,5,9
23054,5e-05,3e-05,-2e-05,-0.0003,-0.00051,-9e-05,0,-0.00018,5,9
23055,5e-05,3e-05,-2e-05,-0.0003,-0.00051,-9e-05,0,-0.00018,5,9
23056,5e-05,3e-05,-2e-05,-0.0003,-0.00051,-9e-05,0,-0.00018,5,9
23057,5e-05,3e-05,-2e-05,-0.0003,-0.00051,-9e-05,0,-0.00018,5,9
23058,-5e-05,1e-05,0.00011,0.00013,-6e-05,-7e-05,1e-05,0.00015,5,9
23059,6e-05,4e-05,6e-05,4e-05,6e-05,4e-05,-2e-05,-4e-05,5,9
23060,6e-05,4e-05,6e-05,4e-05,6e-05,4e-05,-2e-05,-4e-05,5,9
23061,6e-05,4e-05,6e-05,4e-05,6e-05,4e-05,-2e-05,-4e-05,5,9
23062,6e-05,4e-05,6e-05,4e-05,6e-05,4e-05,-2e-05,-4e-05,5,9
23063,6e-05,4e-05,6e-05,4e-05,6e-05,4e-05,-2e-05,-4e-05,5,9
23064,6e-05,4e-05,6e-05,4e-05,6e-05,4e-05,-2e-05,-4e-05,5,9
23065,6e-05,4e-05,6e-05,4e-05,6e-05,4e-05,-2e-05,-4e-05,5,9
23066,6e-05,4e-05,6e-05,4e-05,6e-05,4e-05,-2e-05,-4e-05,5,9
23067,6e-05,4e-05,6e-05,4e-05,6e-05,4e-05,-2e-05,-4e-05,5,9
23068,6e-05,4e-05,6e-05,4e-05,6e-05,4e-05,-2e-05,-4e-05,5,9
23069,6e-05,4e-05,6e-05,4e-05,6e-05,4e-05,-2e-05,-4e-05,5,9
23070,6e-05,4e-05,6e-05,4e-05,6e-05,4e-05,-2e-05,-4e-05,5,9
23071,6e-05,4e-05,6e-05,4e-05,6e-05,4e-05,-2e-05,-4e-05,5,9
23072,6e-05,4e-05,6e-05,4e-05,6e-05,4e-05,-2e-05,-4e-05,5,9
23073,6e-05,4e-05,6e-05,4e-05,6e-05,4e-05,-2e-05,-4e-05,5,9
23074,6e-05,4e-05,6e-05,4e-05,6e-05,4e-05,-2e-05,-4e-05,5,9
23075,6e-05,4e-05,6e-05,4e-05,6e-05,4e-05,-2e-05,-4e-05,5,9
23076,6e-05,4e-05,6e-05,4e-05,6e-05,4e-05,-2e-05,-4e-05,5,9
23077,6e-05,4e-05,6e-05,4e-05,6e-05,4e-05,-2e-05,-4e-05,5,9
23078,6e-05,4e-05,6e-05,4e-05,6e-05,4e-05,-2e-05,-4e-05,5,9
23079,6e-05,4e-05,6e-05,4e-05,6e-05,4e-05,-2e-05,-4e-05,5,9
23080,6e-05,4e-05,6e-05,4e-05,6e-05,4e-05,-2e-05,-4e-05,5,9
23081,7e-05,4e-05,0.0002,0.00012,-0.00017,-3e-05,1e-05,4e-05,5,9
23082,-8e-05,-0.0001,-0.00016,9e-05,0.00039,0,9e-05,0,5,9
23083,-8e-05,-0.0001,-0.00016,9e-05,0.00039,0,9e-05,0,5,9
23084,-8e-05,-0.0001,-0.00016,9e-05,0.00039,0,9e-05,0,5,9
23085,-8e-05,-0.0001,-0.00016,9e-05,0.00039,0,9e-05,0,5,9
23086,-8e-05,-0.0001,-0.00016,9e-05,0.00039,0,9e-05,0,5,9
23088,-8e-05,-0.0001,-0.00016,9e-05,0.00039,0,9e-05,0,5,9
23089,-8e-05,-0.0001,-0.00016,9e-05,0.00039,0,9e-05,0,5,9
23090,-8e-05,-0.0001,-0.00016,9e-05,0.00039,0,9e-05,0,5,9
23091,-8e-05,-0.0001,-0.00016,9e-05,0.00039,0,9e-05,0,5,9
23092,-8e-05,-0.0001,-0.00016,9e-05,0.00039,0,9e-05,0,5,9
23093,-8e-05,-0.0001,-0.00016,9e-05,0.00039,0,9e-05,0,5,9
23094,2e-05,-1e-05,0,0.00019,0.00038,0,-6e-05,1e-05,5,9
23095,2e-05,-1e-05,0,0.00019,0.00038,0,-6e-05,1e-05,5,9
23096,2e-05,-1e-05,0,0.00019,0.00038,0,-6e-05,1e-05,5,9
23097,2e-05,-1e-05,0,0.00019,0.00038,0,-6e-05,1e-05,5,9
23098,2e-05,-1e-05,0,0.00019,0.00038,0,-6e-05,1e-05,5,9
23099,2e-05,-1e-05,0,0.00019,0.00038,0,-6e-05,1e-05,5,9
23100,2e-05,-1e-05,0,0.00019,0.00038,0,-6e-05,1e-05,5,9
23101,2e-05,-1e-05,0,0.00019,0.00038,0,-6e-05,1e-05,5,9
23102,2e-05,-1e-05,0,0.00019,0.00038,0,-6e-05,1e-05,5,9
23103,3e-05,4e-05,6e-05,-0.00035,-0.00026,-1e-05,-1e-05,5e-05,5,9
23104,3e-05,4e-05,6e-05,-0.00035,-0.00026,-1e-05,-1e-05,5e-05,5,9
23105,3e-05,4e-05,6e-05,-0.00035,-0.00026,-1e-05,-1e-05,5e-05,5,9
23106,3e-05,4e-05,6e-05,-0.00035,-0.00026,-1e-05,-1e-05,5e-05,5,9
23107,3e-05,4e-05,6e-05,-0.00035,-0.00026,-1e-05,-1e-05,5e-05,5,9
23108,3e-05,4e-05,6e-05,-0.00035,-0.00026,-1e-05,-1e-05,5e-05,5,9
23109,3e-05,4e-05,6e-05,-0.00035,-0.00026,-1e-05,-1e-05,5e-05,5,9
23110,3e-05,4e-05,6e-05,-0.00035,-0.00026,-1e-05,-1e-05,5e-05,5,9
23111,3e-05,4e-05,6e-05,-0.00035,-0.00026,-1e-05,-1e-05,5e-05,5,9
23112,3e-05,4e-05,6e-05,-0.00035,-0.00026,-1e-05,-1e-05,5e-05,5,9
23113,3e-05,4e-05,6e-05,-0.00035,-0.00026,-1e-05,-1e-05,5e-05,5,9
23114,3e-05,4e-05,6e-05,-0.00035,-0.00026,-1e-05,-1e-05,5e-05,5,9
23115,3e-05,4e-05,6e-05,-0.00035,-0.00026,-1e-05,-1e-05,5e-05,5,9
23116,3e-05,4e-05,6e-05,-0.00035,-0.00026,-1e-05,-1e-05,5e-05,5,9
23117,3e-05,4e-05,6e-05,-0.00035,-0.00026,-1e-05,-1e-05,5e-05,5,9
23118,3e-05,4e-05,6e-05,-0.00035,-0.00026,-1e-05,-1e-05,5e-05,5,9
23119,-0.00019,-9e-05,5e-05,0.00012,0.00069,-4e-05,7e-05,-1e-05,5,9
23120,-4e-05,-1e-05,7e-05,-0.00016,0,0,-7e-05,4e-05,5,9
23121,-4e-05,-1e-05,7e-05,-0.00016,0,0,-7e-05,4e-05,5,9
23122,-4e-05,-1e-05,7e-05,-0.00016,0,0,-7e-05,4e-05,5,9
23123,-4e-05,-1e-05,7e-05,-0.00016,0,0,-7e-05,4e-05,5,9
23124,-4e-05,-1e-05,7e-05,-0.00016,0,0,-7e-05,4e-05,5,9
23125,-4e-05,-1e-05,7e-05,-0.00016,0,0,-7e-05,4e-05,5,9
23126,-4e-05,-1e-05,7e-05,-0.00016,0,0,-7e-05,4e-05,5,9
23127,-4e-05,-1e-05,7e-05,-0.00016,0,0,-7e-05,4e-05,5,9
23128,-4e-05,-1e-05,7e-05,-0.00016,0,0,-7e-05,4e-05,5,9
23129,-4e-05,-1e-05,7e-05,-0.00016,0,0,-7e-05,4e-05,5,9
23130,-4e-05,-1e-05,7e-05,-0.00016,0,0,-7e-05,4e-05,5,9
23131,-4e-05,-1e-05,7e-05,-0.00016,0,0,-7e-05,4e-05,5,9
23132,-4e-05,-1e-05,7e-05,-0.00016,0,0,-7e-05,4e-05,5,9
23133,-4e-05,-1e-05,7e-05,-0.00016,0,0,-7e-05,4e-05,5,9
23134,-4e-05,-1e-05,7e-05,-0.00016,0,0,-7e-05,4e-05,5,9
23135,-4e-05,-1e-05,7e-05,-0.00016,0,0,-7e-05,4e-05,5,9
23136,-4e-05,-1e-05,7e-05,-0.00016,0,0,-7e-05,4e-05,5,9
23138,-4e-05,-1e-05,7e-05,-0.00016,0,0,-7e-05,4e-05,5,9
23139,-4e-05,-1e-05,7e-05,-0.00016,0,0,-7e-05,4e-05,5,9
23140,-4e-05,-1e-05,7e-05,-0.00016,0,0,-7e-05,4e-05,5,9
23141,4e-05,9e-05,0.00014,0.00014,0.00043,8e-05,5e-05,5e-05,5,9
23142,1e-05,-1e-05,-3e-05,-1e-05,-9e-05,-4e-05,-2e-05,2e-05,5,9
23143,1e-05,-1e-05,-3e-05,-1e-05,-9e-05,-4e-05,-2e-05,2e-05,5,9
23144,1e-05,-1e-05,-3e-05,-1e-05,-9e-05,-4e-05,-2e-05,2e-05,5,9
23145,1e-05,-1e-05,-3e-05,-1e-05,-9e-05,-4e-05,-2e-05,2e-05,5,9
23146,1e-05,-1e-05,-3e-05,-1e-05,-9e-05,-4e-05,-2e-05,2e-05,5,9
23147,1e-05,-1e-05,-3e-05,-1e-05,-9e-05,-4e-05,-2e-05,2e-05,5,9
23148,1e-05,-1e-05,-3e-05,-1e-05,-9e-05,-4e-05,-2e-05,2e-05,5,9
23149,1e-05,-1e-05,-3e-05,-1e-05,-9e-05,-4e-05,-2e-05,2e-05,5,9
23150,1e-05,-1e-05,-3e-05,-1e-05,-9e-05,-4e-05,-2e-05,2e-05,5,9
23151,1e-05,-1e-05,-3e-05,-1e-05,-9e-05,-4e-05,-2e-05,2e-05,5,9
23152,1e-05,-1e-05,-3e-05,-1e-05,-9e-05,-4e-05,-2e-05,2e-05,5,9
23153,1e-05,-1e-05,-3e-05,-1e-05,-9e-05,-4e-05,-2e-05,2e-05,5,9
23154,-6e-05,-9e-05,-8e-05,0.00014,6e-05,-1e-05,-4e-05,-6e-05,5,9
23155,-6e-05,-9e-05,-8e-05,0.00014,6e-05,-1e-05,-4e-05,-6e-05,5,9
23156,-6e-05,-9e-05,-8e-05,0.00014,6e-05,-1e-05,-4e-05,-6e-05,5,9
23157,-6e-05,-9e-05,-8e-05,0.00014,6e-05,-1e-05,-4e-05,-6e-05,5,9
23158,-6e-05,-9e-05,-8e-05,0.00014,6e-05,-1e-05,-4e-05,-6e-05,5,9
23159,-6e-05,-9e-05,-8e-05,0.00014,6e-05,-1e-05,-4e-05,-6e-05,5,9
23160,-6e-05,-9e-05,-8e-05,0.00014,6e-05,-1e-05,-4e-05,-6e-05,5,9
23161,-6e-05,-9e-05,-8e-05,0.00014,6e-05,-1e-05,-4e-05,-6e-05,5,9
23162,-6e-05,-9e-05,-8e-05,0.00014,6e-05,-1e-05,-4e-05,-6e-05,5,9
23163,6e-05,5e-05,6e-05,-0.00034,-0.00014,-9e-05,2e-05,3e-05,5,9
23165,6e-05,5e-05,6e-05,-0.00034,-0.00014,-9e-05,2e-05,3e-05,5,9
23166,6e-05,5e-05,6e-05,-0.00034,-0.00014,-9e-05,2e-05,3e-05,5,9
23167,6e-05,5e-05,6e-05,-0.00034,-0.00014,-9e-05,2e-05,3e-05,5,9
23168,6e-05,5e-05,6e-05,-0.00034,-0.00014,-9e-05,2e-05,3e-05,5,9
23169,6e-05,5e-05,6e-05,-0.00034,-0.00014,-9e-05,2e-05,3e-05,5,9
23170,6e-05,5e-05,6e-05,-0.00034,-0.00014,-9e-05,2e-05,3e-05,5,9
23171,6e-05,5e-05,6e-05,-0.00034,-0.00014,-9e-05,2e-05,3e-05,5,9
23172,6e-05,5e-05,6e-05,-0.00034,-0.00014,-9e-05,2e-05,3e-05,5,9
23173,6e-05,5e-05,6e-05,-0.00034,-0.00014,-9e-05,2e-05,3e-05,5,9
23174,6e-05,5e-05,6e-05,-0.00034,-0.00014,-9e-05,2e-05,3e-05,5,9
23175,6e-05,5e-05,6e-05,-0.00034,-0.00014,-9e-05,2e-05,3e-05,5,9
23176,6e-05,5e-05,6e-05,-0.00034,-0.00014,-9e-05,2e-05,3e-05,5,9
23177,6e-05,5e-05,6e-05,-0.00034,-0.00014,-9e-05,2e-05,3e-05,5,9
23178,6e-05,8e-05,0.0001,-0.00051,-0.0005,-5e-05,-4e-05,-1e-05,5,9
23179,-4e-05,-5e-05,-0.00016,-5e-05,0.00026,2e-05,-4e-05,-3e-05,5,9
23180,-4e-05,-5e-05,-0.00016,-5e-05,0.00026,2e-05,-4e-05,-3e-05,5,9
23181,-4e-05,-5e-05,-0.00016,-5e-05,0.00026,2e-05,-4e-05,-3e-05,5,9
23182,-4e-05,-5e-05,-0.00016,-5e-05,0.00026,2e-05,-4e-05,-3e-05,5,9
23183,-4e-05,-5e-05,-0.00016,-5e-05,0.00026,2e-05,-4e-05,-3e-05,5,9
23184,-4e-05,-5e-05,-0.00016,-5e-05,0.00026,2e-05,-4e-05,-3e-05,5,9
23185,-4e-05,-5e-05,-0.00016,-5e-05,0.00026,2e-05,-4e-05,-3e-05,5,9
23186,-4e-05,-5e-05,-0.00016,-5e-05,0.00026,2e-05,-4e-05,-3e-05,5,9
23188,-4e-05,-5e-05,-0.00016,-5e-05,0.00026,2e-05,-4e-05,-3e-05,5,9
23189,-4e-05,-5e-05,-0.00016,-5e-05,0.00026,2e-05,-4e-05,-3e-05,5,9
23190,-4e-05,-5e-05,-0.00016,-5e-05,0.00026,2e-05,-4e-05,-3e-05,5,9
23191,-4e-05,-5e-05,-0.00016,-5e-05,0.00026,2e-05,-4e-05,-3e-05,5,9
23192,-4e-05,-5e-05,-0.00016,-5e-05,0.00026,2e-05,-4e-05,-3e-05,5,9
23193,-4e-05,-5e-05,-0.00016,-5e-05,0.00026,2e-05,-4e-05,-3e-05,5,9
23194,-4e-05,-5e-05,-0.00016,-5e-05,0.00026,2e-05,-4e-05,-3e-05,5,9
23195,-4e-05,-5e-05,-0.00016,-5e-05,0.00026,2e-05,-4e-05,-3e-05,5,9
23196,-4e-05,-5e-05,-0.00016,-5e-05,0.00026,2e-05,-4e-05,-3e-05,5,9
23197,-4e-05,-5e-05,-0.00016,-5e-05,0.00026,2e-05,-4e-05,-3e-05,5,9
23198,-4e-05,-5e-05,-0.00016,-5e-05,0.00026,2e-05,-4e-05,-3e-05,5,9
23199,-4e-05,-5e-05,-0.00016,-5e-05,0.00026,2e-05,-4e-05,-3e-05,5,9
23200,-4e-05,-5e-05,-0.00016,-5e-05,0.00026,2e-05,-4e-05,-3e-05,5,9
23201,3e-05,-4e-05,-1e-05,-2e-05,-0.00065,-0.00037,3e-05,2e-05,5,9
23202,-3e-05,-3e-05,-2e-05,0,-0.00034,-9e-05,-5e-05,-1e-05,5,9
23203,-3e-05,-3e-05,-2e-05,0,-0.00034,-9e-05,-5e-05,-1e-05,5,9
23204,-3e-05,-3e-05,-2e-05,0,-0.00034,-9e-05,-5e-05,-1e-05,5,9
23205,-3e-05,-3e-05,-2e-05,0,-0.00034,-9e-05,-5e-05,-1e-05,5,9
23206,-3e-05,-3e-05,-2e-05,0,-0.00034,-9e-05,-5e-05,-1e-05,5,9
23207,-3e-05,-3e-05,-2e-05,0,-0.00034,-9e-05,-5e-05,-1e-05,5,9
23208,-3e-05,-3e-05,-2e-05,0,-0.00034,-9e-05,-5e-05,-1e-05,5,9
23209,-3e-05,-3e-05,-2e-05,0,-0.00034,-9e-05,-5e-05,-1e-05,5,9
23210,-3e-05,-3e-05,-2e-05,0,-0.00034,-9e-05,-5e-05,-1e-05,5,9
23211,-3e-05,-3e-05,-2e-05,0,-0.00034,-9e-05,-5e-05,-1e-05,5,9
23212,-3e-05,-3e-05,-2e-05,0,-0.00034,-9e-05,-5e-05,-1e-05,5,9
23213,-3e-05,-3e-05,-2e-05,0,-0.00034,-9e-05,-5e-05,-1e-05,5,9
23214,1e-05,-1e-05,-6e-05,1e-05,-6e-05,-7e-05,0,-3e-05,5,9
23215,1e-05,-1e-05,-6e-05,1e-05,-6e-05,-7e-05,0,-3e-05,5,9
23216,1e-05,-1e-05,-6e-05,1e-05,-6e-05,-7e-05,0,-3e-05,5,9
23217,1e-05,-1e-05,-6e-05,1e-05,-6e-05,-7e-05,0,-3e-05,5,9
23218,1e-05,-1e-05,-6e-05,1e-05,-6e-05,-7e-05,0,-3e-05,5,9
23219,1e-05,-1e-05,-6e-05,1e-05,-6e-05,-7e-05,0,-3e-05,5,9
23220,1e-05,-1e-05,-6e-05,1e-05,-6e-05,-7e-05,0,-3e-05,5,9
23221,1e-05,-1e-05,-6e-05,1e-05,-6e-05,-7e-05,0,-3e-05,5,9
23222,1e-05,-1e-05,-6e-05,1e-05,-6e-05,-7e-05,0,-3e-05,5,9
23223,0,6e-05,0.00014,0.00014,0.00024,8e-05,2e-05,1e-05,5,9
23224,0,6e-05,0.00014,0.00014,0.00024,8e-05,2e-05,1e-05,5,9
23225,0,6e-05,0.00014,0.00014,0.00024,8e-05,2e-05,1e-05,5,9
23226,0,6e-05,0.00014,0.00014,0.00024,8e-05,2e-05,1e-05,5,9
23227,0,6e-05,0.00014,0.00014,0.00024,8e-05,2e-05,1e-05,5,9
23228,0,6e-05,0.00014,0.00014,0.00024,8e-05,2e-05,1e-05,5,9
23229,0,6e-05,0.00014,0.00014,0.00024,8e-05,2e-05,1e-05,5,9
23230,0,6e-05,0.00014,0.00014,0.00024,8e-05,2e-05,1e-05,5,9
23231,0,6e-05,0.00014,0.00014,0.00024,8e-05,2e-05,1e-05,5,9
23232,0,6e-05,0.00014,0.00014,0.00024,8e-05,2e-05,1e-05,5,9
23233,0,6e-05,0.00014,0.00014,0.00024,8e-05,2e-05,1e-05,5,9
23234,0,6e-05,0.00014,0.00014,0.00024,8e-05,2e-05,1e-05,5,9
23235,0,6e-05,0.00014,0.00014,0.00024,8e-05,2e-05,1e-05,5,9
23236,0,6e-05,0.00014,0.00014,0.00024,8e-05,2e-05,1e-05,5,9
23239,1e-05,-7e-05,-8e-05,-5e-05,0.00019,0,-4e-05,-7e-05,5,9
23240,4e-05,4e-05,7e-05,-0.00019,-0.00047,-9e-05,-2e-05,3e-05,5,9
23241,4e-05,4e-05,7e-05,-0.00019,-0.00047,-9e-05,-2e-05,3e-05,5,9
23242,4e-05,4e-05,7e-05,-0.00019,-0.00047,-9e-05,-2e-05,3e-05,5,9
23243,4e-05,4e-05,7e-05,-0.00019,-0.00047,-9e-05,-2e-05,3e-05,5,9
23244,4e-05,4e-05,7e-05,-0.00019,-0.00047,-9e-05,-2e-05,3e-05,5,9
23245,4e-05,4e-05,7e-05,-0.00019,-0.00047,-9e-05,-2e-05,3e-05,5,9
23246,4e-05,4e-05,7e-05,-0.00019,-0.00047,-9e-05,-2e-05,3e-05,5,9
23247,4e-05,4e-05,7e-05,-0.00019,-0.00047,-9e-05,-2e-05,3e-05,5,9
23248,4e-05,4e-05,7e-05,-0.00019,-0.00047,-9e-05,-2e-05,3e-05,5,9
23249,4e-05,4e-05,7e-05,-0.00019,-0.00047,-9e-05,-2e-05,3e-05,5,9
23250,4e-05,4e-05,7e-05,-0.00019,-0.00047,-9e-05,-2e-05,3e-05,5,9
23251,4e-05,4e-05,7e-05,-0.00019,-0.00047,-9e-05,-2e-05,3e-05,5,9
23252,4e-05,4e-05,7e-05,-0.00019,-0.00047,-9e-05,-2e-05,3e-05,5,9
23253,4e-05,4e-05,7e-05,-0.00019,-0.00047,-9e-05,-2e-05,3e-05,5,9
23254,4e-05,4e-05,7e-05,-0.00019,-0.00047,-9e-05,-2e-05,3e-05,5,9
23255,4e-05,4e-05,7e-05,-0.00019,-0.00047,-9e-05,-2e-05,3e-05,5,9
23256,4e-05,4e-05,7e-05,-0.00019,-0.00047,-9e-05,-2e-05,3e-05,5,9
23257,4e-05,4e-05,7e-05,-0.00019,-0.00047,-9e-05,-2e-05,3e-05,5,9
23258,4e-05,4e-05,7e-05,-0.00019,-0.00047,-9e-05,-2e-05,3e-05,5,9
23259,4e-05,4e-05,7e-05,-0.00019,-0.00047,-9e-05,-2e-05,3e-05,5,9
23260,4e-05,4e-05,7e-05,-0.00019,-0.00047,-9e-05,-2e-05,3e-05,5,9
23261,-5e-05,-3e-05,-0.0001,-0.00018,-0.00017,3e-05,-4e-05,0,5,9
23262,-1e-05,-6e-05,0,0.0001,9e-05,-4e-05,6e-05,0,5,9
23263,-1e-05,-6e-05,0,0.0001,9e-05,-4e-05,6e-05,0,5,9
23264,-1e-05,-6e-05,0,0.0001,9e-05,-4e-05,6e-05,0,5,9
23265,-1e-05,-6e-05,0,0.0001,9e-05,-4e-05,6e-05,0,5,9
23266,-1e-05,-6e-05,0,0.0001,9e-05,-4e-05,6e-05,0,5,9
23267,-1e-05,-6e-05,0,0.0001,9e-05,-4e-05,6e-05,0,5,9
23268,-1e-05,-6e-05,0,0.0001,9e-05,-4e-05,6e-05,0,5,9
23269,-1e-05,-6e-05,0,0.0001,9e-05,-4e-05,6e-05,0,5,9
23270,-1e-05,-6e-05,0,0.0001,9e-05,-4e-05,6e-05,0,5,9
23271,-1e-05,-6e-05,0,0.0001,9e-05,-4e-05,6e-05,0,5,9
23272,-1e-05,-6e-05,0,0.0001,9e-05,-4e-05,6e-05,0,5,9
23273,-1e-05,-6e-05,0,0.0001,9e-05,-4e-05,6e-05,0,5,9
23274,-1e-05,-6e-05,0,0.0001,9e-05,-4e-05,6e-05,0,5,9
23275,-1e-05,-6e-05,0,0.0001,9e-05,-4e-05,6e-05,0,5,9
23276,-1e-05,-6e-05,0,0.0001,9e-05,-4e-05,6e-05,0,5,9
23277,-1e-05,-6e-05,0,0.0001,9e-05,-4e-05,6e-05,0,5,9
23278,-1e-05,-6e-05,0,0.0001,9e-05,-4e-05,6e-05,0,5,9
23279,-1e-05,-6e-05,0,0.0001,9e-05,-4e-05,6e-05,0,5,9
23280,-1e-05,-6e-05,0,0.0001,9e-05,-4e-05,6e-05,0,5,9
23281,-1e-05,-6e-05,0,0.0001,9e-05,-4e-05,6e-05,0,5,9
23282,-1e-05,-6e-05,0,0.0001,9e-05,-4e-05,6e-05,0,5,9
23283,0,3e-05,5e-05,-0.00035,-0.00037,-1e-05,4e-05,1e-05,5,9
23284,8e-05,6e-05,0.0001,0.00016,-1e-05,6e-05,1e-05,5e-05,5,9
23285,1e-05,-7e-05,-9e-05,0.00014,8e-05,1e-05,-7e-05,-5e-05,5,9
23287,-6e-05,3e-05,0,0.00022,0.00039,0.00019,-3e-05,-1e-05,5,9
23289,-6e-05,3e-05,0,0.00022,0.00039,0.00019,-3e-05,-1e-05,5,9
23290,-6e-05,3e-05,0,0.00022,0.00039,0.00019,-3e-05,-1e-05,5,9
23291,-6e-05,3e-05,0,0.00022,0.00039,0.00019,-3e-05,-1e-05,5,9
23292,-6e-05,3e-05,0,0.00022,0.00039,0.00019,-3e-05,-1e-05,5,9
23293,-6e-05,3e-05,0,0.00022,0.00039,0.00019,-3e-05,-1e-05,5,9
23294,-6e-05,3e-05,0,0.00022,0.00039,0.00019,-3e-05,-1e-05,5,9
23295,-6e-05,3e-05,0,0.00022,0.00039,0.00019,-3e-05,-1e-05,5,9
23296,-6e-05,3e-05,0,0.00022,0.00039,0.00019,-3e-05,-1e-05,5,9
23297,-6e-05,3e-05,0,0.00022,0.00039,0.00019,-3e-05,-1e-05,5,9
23298,-3e-05,6e-05,0.00012,0.00021,0.00011,0.00012,0,2e-05,5,9
23299,-3e-05,6e-05,0.00012,0.00021,0.00011,0.00012,0,2e-05,5,9
23300,-3e-05,-7e-05,-0.00012,-0.00028,-0.00042,-0.00019,-1e-05,-5e-05,5,9
23301,-3e-05,-7e-05,-0.00012,-0.00028,-0.00042,-0.00019,-1e-05,-5e-05,5,9
23302,-3e-05,-7e-05,-0.00012,-0.00028,-0.00042,-0.00019,-1e-05,-5e-05,5,9
23303,-3e-05,-7e-05,-0.00012,-0.00028,-0.00042,-0.00019,-1e-05,-5e-05,5,9
23304,-3e-05,-7e-05,-0.00012,-0.00028,-0.00042,-0.00019,-1e-05,-5e-05,5,9
23305,-3e-05,-7e-05,-0.00012,-0.00028,-0.00042,-0.00019,-1e-05,-5e-05,5,9
23306,-3e-05,-7e-05,-0.00012,-0.00028,-0.00042,-0.00019,-1e-05,-5e-05,5,9
23307,-3e-05,-7e-05,-0.00012,-0.00028,-0.00042,-0.00019,-1e-05,-5e-05,5,9
23308,-3e-05,-7e-05,-0.00012,-0.00028,-0.00042,-0.00019,-1e-05,-5e-05,5,9
23309,-3e-05,-7e-05,-0.00012,-0.00028,-0.00042,-0.00019,-1e-05,-5e-05,5,9
23310,-3e-05,-7e-05,-0.00012,-0.00028,-0.00042,-0.00019,-1e-05,-5e-05,5,9
23311,-3e-05,-7e-05,-0.00012,-0.00028,-0.00042,-0.00019,-1e-05,-5e-05,5,9
23312,-3e-05,-7e-05,-0.00012,-0.00028,-0.00042,-0.00019,-1e-05,-5e-05,5,9
23313,-3e-05,-7e-05,-0.00012,-0.00028,-0.00042,-0.00019,-1e-05,-5e-05,5,9
23314,-3e-05,-7e-05,-0.00012,-0.00028,-0.00042,-0.00019,-1e-05,-5e-05,5,9
23315,-3e-05,-7e-05,-0.00012,-0.00028,-0.00042,-0.00019,-1e-05,-5e-05,5,9
23316,-3e-05,-7e-05,-0.00012,-0.00028,-0.00042,-0.00019,-1e-05,-5e-05,5,9
23317,-3e-05,-7e-05,-0.00012,-0.00028,-0.00042,-0.00019,-1e-05,-5e-05,5,9
23318,-3e-05,-7e-05,-0.00012,-0.00028,-0.00042,-0.00019,-1e-05,-5e-05,5,9
23319,-2e-05,-3e-05,-3e-05,7e-05,0.00023,-4e-05,-5e-05,-4e-05,5,9
23321,1e-05,2e-05,8e-05,0.00047,0.00043,7e-05,-6e-05,-3e-05,5,9
23322,1e-05,2e-05,8e-05,0.00047,0.00043,7e-05,-6e-05,-3e-05,5,9
23323,-6e-05,-0.00012,-0.0002,-0.00014,-6e-05,5e-05,-6e-05,-4e-05,5,9
23324,-6e-05,-0.00012,-0.0002,-0.00014,-6e-05,5e-05,-6e-05,-4e-05,5,9
23325,-6e-05,-0.00012,-0.0002,-0.00014,-6e-05,5e-05,-6e-05,-4e-05,5,9
23326,-6e-05,-0.00012,-0.0002,-0.00014,-6e-05,5e-05,-6e-05,-4e-05,5,9
23327,-6e-05,-0.00012,-0.0002,-0.00014,-6e-05,5e-05,-6e-05,-4e-05,5,9
23328,-6e-05,-0.00012,-0.0002,-0.00014,-6e-05,5e-05,-6e-05,-4e-05,5,9
23329,-6e-05,-0.00012,-0.0002,-0.00014,-6e-05,5e-05,-6e-05,-4e-05,5,9
23330,-6e-05,-0.00012,-0.0002,-0.00014,-6e-05,5e-05,-6e-05,-4e-05,5,9
23331,-6e-05,-0.00012,-0.0002,-0.00014,-6e-05,5e-05,-6e-05,-4e-05,5,9
23332,-6e-05,-0.00012,-0.0002,-0.00014,-6e-05,5e-05,-6e-05,-4e-05,5,9
23333,-6e-05,-0.00012,-0.0002,-0.00014,-6e-05,5e-05,-6e-05,-4e-05,5,9
23334,-6e-05,-0.00012,-0.0002,-0.00014,-6e-05,5e-05,-6e-05,-4e-05,5,9
23335,-6e-05,-0.00012,-0.0002,-0.00014,-6e-05,5e-05,-6e-05,-4e-05,5,9
23336,-6e-05,-0.00012,-0.0002,-0.00014,-6e-05,5e-05,-6e-05,-4e-05,5,9
23339,-6e-05,-0.00012,-0.0002,-0.00014,-6e-05,5e-05,-6e-05,-4e-05,5,9
23340,-6e-05,-0.00012,-0.0002,-0.00014,-6e-05,5e-05,-6e-05,-4e-05,5,9
23341,-6e-05,-0.00012,-0.0002,-0.00014,-6e-05,5e-05,-6e-05,-4e-05,5,9
23342,-6e-05,-0.00012,-0.0002,-0.00014,-6e-05,5e-05,-6e-05,-4e-05,5,9
23343,-1e-05,-5e-05,-7e-05,-0.00024,-0.0001,-5e-05,-1e-05,0,5,9
23344,-1e-05,-5e-05,-7e-05,-0.00024,-0.0001,-5e-05,-1e-05,0,5,9
23345,-0.00028,-0.00014,-6e-05,5e-05,-0.00023,2e-05,0,-1e-05,5,9
23346,-0.00028,-0.00014,-6e-05,5e-05,-0.00023,2e-05,0,-1e-05,5,9
23347,-0.00028,-0.00014,-6e-05,5e-05,-0.00023,2e-05,0,-1e-05,5,9
23348,-0.00028,-0.00014,-6e-05,5e-05,-0.00023,2e-05,0,-1e-05,5,9
23349,-0.00028,-0.00014,-6e-05,5e-05,-0.00023,2e-05,0,-1e-05,5,9
23350,-0.00028,-0.00014,-6e-05,5e-05,-0.00023,2e-05,0,-1e-05,5,9
23351,-0.00028,-0.00014,-6e-05,5e-05,-0.00023,2e-05,0,-1e-05,5,9
23353,-0.00028,-0.00014,-6e-05,5e-05,-0.00023,2e-05,0,-1e-05,5,9
23354,-0.00028,-0.00014,-6e-05,5e-05,-0.00023,2e-05,0,-1e-05,5,9
23355,-0.00028,-0.00014,-6e-05,5e-05,-0.00023,2e-05,0,-1e-05,5,9
23356,-0.00028,-0.00014,-6e-05,5e-05,-0.00023,2e-05,0,-1e-05,5,9
23357,-0.00028,-0.00014,-6e-05,5e-05,-0.00023,2e-05,0,-1e-05,5,9
23358,-0.00028,-0.00014,-6e-05,5e-05,-0.00023,2e-05,0,-1e-05,5,9
23359,-6e-05,-3e-05,-6e-05,3e-05,0.00036,8e-05,-2e-05,-2e-05,5,9
23360,6e-05,0,9e-05,8e-05,-0.0002,-0.00016,-9e-05,-5e-05,5,9
23361,6e-05,0,9e-05,8e-05,-0.0002,-0.00016,-9e-05,-5e-05,5,9
23362,6e-05,0,9e-05,8e-05,-0.0002,-0.00016,-9e-05,-5e-05,5,9
23363,6e-05,0,9e-05,8e-05,-0.0002,-0.00016,-9e-05,-5e-05,5,9
23364,6e-05,0,9e-05,8e-05,-0.0002,-0.00016,-9e-05,-5e-05,5,9
23365,6e-05,0,9e-05,8e-05,-0.0002,-0.00016,-9e-05,-5e-05,5,9
23366,6e-05,0,9e-05,8e-05,-0.0002,-0.00016,-9e-05,-5e-05,5,9
23367,6e-05,0,9e-05,8e-05,-0.0002,-0.00016,-9e-05,-5e-05,5,9
23368,6e-05,0,9e-05,8e-05,-0.0002,-0.00016,-9e-05,-5e-05,5,9
23369,6e-05,0,9e-05,8e-05,-0.0002,-0.00016,-9e-05,-5e-05,5,9
23370,6e-05,0,9e-05,8e-05,-0.0002,-0.00016,-9e-05,-5e-05,5,9
23371,6e-05,0,9e-05,8e-05,-0.0002,-0.00016,-9e-05,-5e-05,5,9
23372,6e-05,0,9e-05,8e-05,-0.0002,-0.00016,-9e-05,-5e-05,5,9
23373,6e-05,0,9e-05,8e-05,-0.0002,-0.00016,-9e-05,-5e-05,5,9
23374,6e-05,0,9e-05,8e-05,-0.0002,-0.00016,-9e-05,-5e-05,5,9
23375,6e-05,0,9e-05,8e-05,-0.0002,-0.00016,-9e-05,-5e-05,5,9
23376,6e-05,0,9e-05,8e-05,-0.0002,-0.00016,-9e-05,-5e-05,5,9
23377,6e-05,0,9e-05,8e-05,-0.0002,-0.00016,-9e-05,-5e-05,5,9
23378,6e-05,0,9e-05,8e-05,-0.0002,-0.00016,-9e-05,-5e-05,5,9
23379,6e-05,0,9e-05,8e-05,-0.0002,-0.00016,-9e-05,-5e-05,5,9
23380,6e-05,0,9e-05,8e-05,-0.0002,-0.00016,-9e-05,-5e-05,5,9
23381,3e-05,-2e-05,-7e-05,-0.0003,-0.00051,-0.00011,-3e-05,0,5,9
23382,3e-05,2e-05,4e-05,3e-05,1e-05,-0.00014,-3e-05,-2e-05,5,9
23383,3e-05,2e-05,4e-05,3e-05,1e-05,-0.00014,-3e-05,-2e-05,5,9
23384,3e-05,2e-05,4e-05,3e-05,1e-05,-0.00014,-3e-05,-2e-05,5,9
23385,3e-05,2e-05,4e-05,3e-05,1e-05,-0.00014,-3e-05,-2e-05,5,9
23387,3e-05,2e-05,4e-05,3e-05,1e-05,-0.00014,-3e-05,-2e-05,5,9
23389,3e-05,2e-05,4e-05,3e-05,1e-05,-0.00014,-3e-05,-2e-05,5,9
23390,3e-05,2e-05,4e-05,3e-05,1e-05,-0.00014,-3e-05,-2e-05,5,9
23391,3e-05,2e-05,4e-05,3e-05,1e-05,-0.00014,-3e-05,-2e-05,5,9
23392,3e-05,2e-05,4e-05,3e-05,1e-05,-0.00014,-3e-05,-2e-05,5,9
23393,3e-05,2e-05,4e-05,3e-05,1e-05,-0.00014,-3e-05,-2e-05,5,9
23394,3e-05,2e-05,4e-05,3e-05,1e-05,-0.00014,-3e-05,-2e-05,5,9
23395,3e-05,2e-05,4e-05,3e-05,1e-05,-0.00014,-3e-05,-2e-05,5,9
23396,3e-05,2e-05,4e-05,3e-05,1e-05,-0.00014,-3e-05,-2e-05,5,9
23397,3e-05,2e-05,4e-05,3e-05,1e-05,-0.00014,-3e-05,-2e-05,5,9
23398,3e-05,2e-05,4e-05,3e-05,1e-05,-0.00014,-3e-05,-2e-05,5,9
23399,3e-05,2e-05,4e-05,3e-05,1e-05,-0.00014,-3e-05,-2e-05,5,9
23400,3e-05,2e-05,4e-05,3e-05,1e-05,-0.00014,-3e-05,-2e-05,5,9
23401,3e-05,2e-05,4e-05,3e-05,1e-05,-0.00014,-3e-05,-2e-05,5,9
23402,3e-05,2e-05,4e-05,3e-05,1e-05,-0.00014,-3e-05,-2e-05,5,9
23403,4e-05,-1e-05,-1e-05,0.00037,0.00037,0.0002,2e-05,-4e-05,5,9
23404,4e-05,-1e-05,-1e-05,0.00037,0.00037,0.0002,2e-05,-4e-05,5,9
23405,-3e-05,-3e-05,-2e-05,-0.0001,3e-05,7e-05,1e-05,0,5,9
23406,-3e-05,-3e-05,-2e-05,-0.0001,3e-05,7e-05,1e-05,0,5,9
23407,-3e-05,-3e-05,-2e-05,-0.0001,3e-05,7e-05,1e-05,0,5,9
23408,-3e-05,-3e-05,-2e-05,-0.0001,3e-05,7e-05,1e-05,0,5,9
23409,-3e-05,-3e-05,-2e-05,-0.0001,3e-05,7e-05,1e-05,0,5,9
23410,-3e-05,-3e-05,-2e-05,-0.0001,3e-05,7e-05,1e-05,0,5,9
23411,-3e-05,-3e-05,-2e-05,-0.0001,3e-05,7e-05,1e-05,0,5,9
23412,-3e-05,-3e-05,-2e-05,-0.0001,3e-05,7e-05,1e-05,0,5,9
23413,-3e-05,-3e-05,-2e-05,-0.0001,3e-05,7e-05,1e-05,0,5,9
23414,-3e-05,-3e-05,-2e-05,-0.0001,3e-05,7e-05,1e-05,0,5,9
23415,-3e-05,-3e-05,-2e-05,-0.0001,3e-05,7e-05,1e-05,0,5,9
23416,-3e-05,-3e-05,-2e-05,-0.0001,3e-05,7e-05,1e-05,0,5,9
23417,-3e-05,-3e-05,-2e-05,-0.0001,3e-05,7e-05,1e-05,0,5,9
23418,-9e-05,-1e-05,0.00012,-8e-05,-0.00032,-0.00013,7e-05,7e-05,5,9
23419,-6e-05,3e-05,-1e-05,-0.00015,0.00017,-9e-05,2e-05,-7e-05,5,9
23420,-8e-05,-0.00012,-0.00013,-0.00011,-0.00024,-0.00012,-2e-05,-4e-05,5,9
23421,0.00021,9e-05,2e-05,7e-05,0.00013,0,1e-05,-2e-05,5,9
23422,0.00021,9e-05,2e-05,7e-05,0.00013,0,1e-05,-2e-05,5,9
23423,0.00021,9e-05,2e-05,7e-05,0.00013,0,1e-05,-2e-05,5,9
23424,0.00021,9e-05,2e-05,7e-05,0.00013,0,1e-05,-2e-05,5,9
23425,0.00021,9e-05,2e-05,7e-05,0.00013,0,1e-05,-2e-05,5,9
23426,0.00021,9e-05,2e-05,7e-05,0.00013,0,1e-05,-2e-05,5,9
23427,0.00021,9e-05,2e-05,7e-05,0.00013,0,1e-05,-2e-05,5,9
23428,0.00021,9e-05,2e-05,7e-05,0.00013,0,1e-05,-2e-05,5,9
23429,0.00021,9e-05,2e-05,7e-05,0.00013,0,1e-05,-2e-05,5,9
23430,0.00021,9e-05,2e-05,7e-05,0.00013,0,1e-05,-2e-05,5,9
23431,0.00021,9e-05,2e-05,7e-05,0.00013,0,1e-05,-2e-05,5,9
23432,0.00021,9e-05,2e-05,7e-05,0.00013,0,1e-05,-2e-05,5,9
23433,0.00021,9e-05,2e-05,7e-05,0.00013,0,1e-05,-2e-05,5,9
23434,0.00021,9e-05,2e-05,7e-05,0.00013,0,1e-05,-2e-05,5,9
23435,0.00021,9e-05,2e-05,7e-05,0.00013,0,1e-05,-2e-05,5,9
23436,0.00021,9e-05,2e-05,7e-05,0.00013,0,1e-05,-2e-05,5,9
23438,0.00021,9e-05,2e-05,7e-05,0.00013,0,1e-05,-2e-05,5,9
23440,0.00021,9e-05,2e-05,7e-05,0.00013,0,1e-05,-2e-05,5,9
23441,1e-05,1e-05,9e-05,-0.00011,-0.00051,-8e-05,1e-05,1e-05,5,9
23442,0.00011,-3e-05,-0.00017,4e-05,-7e-05,-6e-05,-6e-05,-1e-05,5,9
23443,0.00011,-3e-05,-0.00017,4e-05,-7e-05,-6e-05,-6e-05,-1e-05,5,9
23444,0.00011,-3e-05,-0.00017,4e-05,-7e-05,-6e-05,-6e-05,-1e-05,5,9
23445,0.00011,-3e-05,-0.00017,4e-05,-7e-05,-6e-05,-6e-05,-1e-05,5,9
23446,0.00011,-3e-05,-0.00017,4e-05,-7e-05,-6e-05,-6e-05,-1e-05,5,9
23447,0.00011,-3e-05,-0.00017,4e-05,-7e-05,-6e-05,-6e-05,-1e-05,5,9
23448,0.00011,-3e-05,-0.00017,4e-05,-7e-05,-6e-05,-6e-05,-1e-05,5,9
23449,0.00011,-3e-05,-0.00017,4e-05,-7e-05,-6e-05,-6e-05,-1e-05,5,9
23450,0.00011,-3e-05,-0.00017,4e-05,-7e-05,-6e-05,-6e-05,-1e-05,5,9
23451,0.00011,-3e-05,-0.00017,4e-05,-7e-05,-6e-05,-6e-05,-1e-05,5,9
23452,0.00011,-3e-05,-0.00017,4e-05,-7e-05,-6e-05,-6e-05,-1e-05,5,9
23453,0.00011,-3e-05,-0.00017,4e-05,-7e-05,-6e-05,-6e-05,-1e-05,5,9
23454,0.00011,-3e-05,-0.00017,4e-05,-7e-05,-6e-05,-6e-05,-1e-05,5,9
23455,0.00011,-3e-05,-0.00017,4e-05,-7e-05,-6e-05,-6e-05,-1e-05,5,9
23456,0.00011,-3e-05,-0.00017,4e-05,-7e-05,-6e-05,-6e-05,-1e-05,5,9
23457,0.00011,-3e-05,-0.00017,4e-05,-7e-05,-6e-05,-6e-05,-1e-05,5,9
23458,0.00011,-3e-05,-0.00017,4e-05,-7e-05,-6e-05,-6e-05,-1e-05,5,9
23459,0.00011,-3e-05,-0.00017,4e-05,-7e-05,-6e-05,-6e-05,-1e-05,5,9
23460,0.00011,-3e-05,-0.00017,4e-05,-7e-05,-6e-05,-6e-05,-1e-05,5,9
23461,0.00011,-3e-05,-0.00017,4e-05,-7e-05,-6e-05,-6e-05,-1e-05,5,9
23462,0.00011,-3e-05,-0.00017,4e-05,-7e-05,-6e-05,-6e-05,-1e-05,5,9
23463,6e-05,4e-05,6e-05,-8e-05,0.00023,-1e-05,0,2e-05,5,9
23464,2e-05,0,6e-05,0.00017,6e-05,-4e-05,1e-05,2e-05,5,9
23465,-1e-05,0,-5e-05,-0.00027,-0.0004,-8e-05,-3e-05,1e-05,5,9
23466,-1e-05,0,-5e-05,-0.00027,-0.0004,-8e-05,-3e-05,1e-05,5,9
23467,-1e-05,0,-5e-05,-0.00027,-0.0004,-8e-05,-3e-05,1e-05,5,9
23468,-1e-05,0,-5e-05,-0.00027,-0.0004,-8e-05,-3e-05,1e-05,5,9
23470,-1e-05,0,-5e-05,-0.00027,-0.0004,-8e-05,-3e-05,1e-05,5,9
23471,-1e-05,0,-5e-05,-0.00027,-0.0004,-8e-05,-3e-05,1e-05,5,9
23472,-1e-05,0,-5e-05,-0.00027,-0.0004,-8e-05,-3e-05,1e-05,5,9
23473,-1e-05,0,-5e-05,-0.00027,-0.0004,-8e-05,-3e-05,1e-05,5,9
23474,-1e-05,0,-5e-05,-0.00027,-0.0004,-8e-05,-3e-05,1e-05,5,9
23475,-1e-05,0,-5e-05,-0.00027,-0.0004,-8e-05,-3e-05,1e-05,5,9
23476,-1e-05,0,-5e-05,-0.00027,-0.0004,-8e-05,-3e-05,1e-05,5,9
23477,5e-05,6e-05,0.0001,0.00015,-0.0007,0.0001,0,0,5,9
23478,2e-05,3e-05,1e-05,-0.00012,7e-05,-4e-05,-5e-05,-5e-05,5,9
23479,2e-05,3e-05,1e-05,-0.00012,7e-05,-4e-05,-5e-05,-5e-05,5,9
23480,2e-05,3e-05,1e-05,-0.00012,7e-05,-4e-05,-5e-05,-5e-05,5,9
23481,2e-05,3e-05,1e-05,-0.00012,7e-05,-4e-05,-5e-05,-5e-05,5,9
23482,2e-05,3e-05,1e-05,-0.00012,7e-05,-4e-05,-5e-05,-5e-05,5,9
23483,2e-05,3e-05,1e-05,-0.00012,7e-05,-4e-05,-5e-05,-5e-05,5,9
23484,-5e-05,-2e-05,-2e-05,0.00012,0.00022,0,-1e-05,1e-05,5,9
23486,-5e-05,-2e-05,-2e-05,0.00012,0.00022,0,-1e-05,1e-05,5,9
23487,-5e-05,-2e-05,-2e-05,0.00012,0.00022,0,-1e-05,1e-05,5,9
23488,-5e-05,-2e-05,-2e-05,0.00012,0.00022,0,-1e-05,1e-05,5,9
23489,-5e-05,-2e-05,-2e-05,0.00012,0.00022,0,-1e-05,1e-05,5,9
23490,-5e-05,-2e-05,-2e-05,0.00012,0.00022,0,-1e-05,1e-05,5,9
23491,-5e-05,-2e-05,-2e-05,0.00012,0.00022,0,-1e-05,1e-05,5,9
23492,-5e-05,-2e-05,-2e-05,0.00012,0.00022,0,-1e-05,1e-05,5,9
23493,-5e-05,-2e-05,-2e-05,0.00012,0.00022,0,-1e-05,1e-05,5,9
23494,-5e-05,-2e-05,-2e-05,0.00012,0.00022,0,-1e-05,1e-05,5,9
23495,-5e-05,-2e-05,-2e-05,0.00012,0.00022,0,-1e-05,1e-05,5,9
23496,-5e-05,-2e-05,-2e-05,0.00012,0.00022,0,-1e-05,1e-05,5,9
23497,-5e-05,-2e-05,-2e-05,0.00012,0.00022,0,-1e-05,1e-05,5,9
23498,-5e-05,-2e-05,-2e-05,0.00012,0.00022,0,-1e-05,1e-05,5,9
23499,-5e-05,-2e-05,-2e-05,0.00012,0.00022,0,-1e-05,1e-05,5,9
23500,-5e-05,-2e-05,-2e-05,0.00012,0.00022,0,-1e-05,1e-05,5,9
23501,0.00015,0,-6e-05,-4e-05,-0.00053,-9e-05,-5e-05,0.00018,5,9
23502,0.00011,9e-05,8e-05,0.00038,0.00034,5e-05,6e-05,6e-05,5,9
23503,0.00011,9e-05,8e-05,0.00038,0.00034,5e-05,6e-05,6e-05,5,9
23504,0.00011,9e-05,8e-05,0.00038,0.00034,5e-05,6e-05,6e-05,5,9
23505,0.00011,9e-05,8e-05,0.00038,0.00034,5e-05,6e-05,6e-05,5,9
23506,0.00011,9e-05,8e-05,0.00038,0.00034,5e-05,6e-05,6e-05,5,9
23507,0.00011,9e-05,8e-05,0.00038,0.00034,5e-05,6e-05,6e-05,5,9
23508,0.00011,9e-05,8e-05,0.00038,0.00034,5e-05,6e-05,6e-05,5,9
23509,0.00011,9e-05,8e-05,0.00038,0.00034,5e-05,6e-05,6e-05,5,9
23510,0.00011,9e-05,8e-05,0.00038,0.00034,5e-05,6e-05,6e-05,5,9
23511,0.00011,9e-05,8e-05,0.00038,0.00034,5e-05,6e-05,6e-05,5,9
23512,0.00011,9e-05,8e-05,0.00038,0.00034,5e-05,6e-05,6e-05,5,9
23513,0.00011,9e-05,8e-05,0.00038,0.00034,5e-05,6e-05,6e-05,5,9
23515,0.00011,9e-05,8e-05,0.00038,0.00034,5e-05,6e-05,6e-05,5,9
23516,0.00011,9e-05,8e-05,0.00038,0.00034,5e-05,6e-05,6e-05,5,9
23517,0.00011,9e-05,8e-05,0.00038,0.00034,5e-05,6e-05,6e-05,5,9
23518,0.00011,9e-05,8e-05,0.00038,0.00034,5e-05,6e-05,6e-05,5,9
23519,0.00011,9e-05,8e-05,0.00038,0.00034,5e-05,6e-05,6e-05,5,9
23520,0.00011,9e-05,8e-05,0.00038,0.00034,5e-05,6e-05,6e-05,5,9
23521,0.00011,9e-05,8e-05,0.00038,0.00034,5e-05,6e-05,6e-05,5,9
23522,0.00011,9e-05,8e-05,0.00038,0.00034,5e-05,6e-05,6e-05,5,9
23523,0.00011,9e-05,8e-05,0.00038,0.00034,5e-05,6e-05,6e-05,5,9
23524,-5e-05,-5e-05,-4e-05,-0.00014,3e-05,0.00011,0,-5e-05,5,9
23525,-4e-05,-7e-05,4e-05,-0.00013,-0.00024,-2e-05,-8e-05,0,5,9
23526,-4e-05,-7e-05,4e-05,-0.00013,-0.00024,-2e-05,-8e-05,0,5,9
23527,-4e-05,-7e-05,4e-05,-0.00013,-0.00024,-2e-05,-8e-05,0,5,9
23528,-4e-05,-7e-05,4e-05,-0.00013,-0.00024,-2e-05,-8e-05,0,5,9
23529,-4e-05,-7e-05,4e-05,-0.00013,-0.00024,-2e-05,-8e-05,0,5,9
23530,-4e-05,-7e-05,4e-05,-0.00013,-0.00024,-2e-05,-8e-05,0,5,9
23531,-4e-05,-7e-05,4e-05,-0.00013,-0.00024,-2e-05,-8e-05,0,5,9
23532,-4e-05,-7e-05,4e-05,-0.00013,-0.00024,-2e-05,-8e-05,0,5,9
23533,-4e-05,-7e-05,4e-05,-0.00013,-0.00024,-2e-05,-8e-05,0,5,9
23534,-4e-05,-7e-05,4e-05,-0.00013,-0.00024,-2e-05,-8e-05,0,5,9
23535,-4e-05,-7e-05,4e-05,-0.00013,-0.00024,-2e-05,-8e-05,0,5,9
23536,-4e-05,-7e-05,4e-05,-0.00013,-0.00024,-2e-05,-8e-05,0,5,9
23539,-0.00016,-6e-05,-0.0001,-0.00018,8e-05,6e-05,-2e-05,-3e-05,5,9
23540,-0.00016,-6e-05,-0.0001,-0.00018,8e-05,6e-05,-2e-05,-3e-05,5,9
23541,-0.00016,-6e-05,-0.0001,-0.00018,8e-05,6e-05,-2e-05,-3e-05,5,9
23542,-0.00016,-6e-05,-0.0001,-0.00018,8e-05,6e-05,-2e-05,-3e-05,5,9
23543,-0.00016,-6e-05,-0.0001,-0.00018,8e-05,6e-05,-2e-05,-3e-05,5,9
23544,-0.0001,-9e-05,-3e-05,-0.00028,-6e-05,-5e-05,-1e-05,-6e-05,5,9
23545,-0.0001,-9e-05,-3e-05,-0.00028,-6e-05,-5e-05,-1e-05,-6e-05,5,9
23546,-0.0001,-9e-05,-3e-05,-0.00028,-6e-05,-5e-05,-1e-05,-6e-05,5,9
23547,-0.0001,-9e-05,-3e-05,-0.00028,-6e-05,-5e-05,-1e-05,-6e-05,5,9
23548,-0.0001,-9e-05,-3e-05,-0.00028,-6e-05,-5e-05,-1e-05,-6e-05,5,9
23549,-0.0001,-9e-05,-3e-05,-0.00028,-6e-05,-5e-05,-1e-05,-6e-05,5,9
23550,-0.0001,-9e-05,-3e-05,-0.00028,-6e-05,-5e-05,-1e-05,-6e-05,5,9
23551,-0.0001,-9e-05,-3e-05,-0.00028,-6e-05,-5e-05,-1e-05,-6e-05,5,9
23552,-0.0001,-9e-05,-3e-05,-0.00028,-6e-05,-5e-05,-1e-05,-6e-05,5,9
23553,-0.0001,-9e-05,-3e-05,-0.00028,-6e-05,-5e-05,-1e-05,-6e-05,5,9
23554,-0.0001,-9e-05,-3e-05,-0.00028,-6e-05,-5e-05,-1e-05,-6e-05,5,9
23555,-0.0001,-9e-05,-3e-05,-0.00028,-6e-05,-5e-05,-1e-05,-6e-05,5,9
23556,-0.0001,-9e-05,-3e-05,-0.00028,-6e-05,-5e-05,-1e-05,-6e-05,5,9
23557,-0.0001,-9e-05,-3e-05,-0.00028,-6e-05,-5e-05,-1e-05,-6e-05,5,9
23558,-0.0001,-9e-05,-3e-05,-0.00028,-6e-05,-5e-05,-1e-05,-6e-05,5,9
23559,-0.0001,-9e-05,-3e-05,-0.00028,-6e-05,-5e-05,-1e-05,-6e-05,5,9
23560,-0.0001,-9e-05,-3e-05,-0.00028,-6e-05,-5e-05,-1e-05,-6e-05,5,9
23561,8e-05,5e-05,2e-05,-0.00011,-6e-05,1e-05,-1e-05,-2e-05,5,9
23562,8e-05,5e-05,2e-05,-0.00011,-6e-05,1e-05,-1e-05,-2e-05,5,9
23563,0.00011,4e-05,-1e-05,0.0003,0.00055,0.00011,4e-05,0,5,9
23564,0.00011,4e-05,-1e-05,0.0003,0.00055,0.00011,4e-05,0,5,9
23565,0.00011,4e-05,-1e-05,0.0003,0.00055,0.00011,4e-05,0,5,9
23566,0.00011,4e-05,-1e-05,0.0003,0.00055,0.00011,4e-05,0,5,9
23567,0.00011,4e-05,-1e-05,0.0003,0.00055,0.00011,4e-05,0,5,9
23568,0.00011,4e-05,-1e-05,0.0003,0.00055,0.00011,4e-05,0,5,9
23569,0.00011,4e-05,-1e-05,0.0003,0.00055,0.00011,4e-05,0,5,9
23570,0.00011,4e-05,-1e-05,0.0003,0.00055,0.00011,4e-05,0,5,9
23571,0.00011,4e-05,-1e-05,0.0003,0.00055,0.00011,4e-05,0,5,9
23572,0.00011,4e-05,-1e-05,0.0003,0.00055,0.00011,4e-05,0,5,9
23573,0.00011,4e-05,-1e-05,0.0003,0.00055,0.00011,4e-05,0,5,9
23574,0.00011,4e-05,-1e-05,0.0003,0.00055,0.00011,4e-05,0,5,9
23575,0.00011,4e-05,-1e-05,0.0003,0.00055,0.00011,4e-05,0,5,9
23576,0.00011,4e-05,-1e-05,0.0003,0.00055,0.00011,4e-05,0,5,9
23577,0.00011,4e-05,-1e-05,0.0003,0.00055,0.00011,4e-05,0,5,9
23578,0.00011,4e-05,-1e-05,0.0003,0.00055,0.00011,4e-05,0,5,9
23579,0.00011,4e-05,-1e-05,0.0003,0.00055,0.00011,4e-05,0,5,9
23580,0.00011,4e-05,-1e-05,0.0003,0.00055,0.00011,4e-05,0,5,9
23581,0.00011,4e-05,-1e-05,0.0003,0.00055,0.00011,4e-05,0,5,9
23582,0.00011,4e-05,-1e-05,0.0003,0.00055,0.00011,4e-05,0,5,9
23583,0.00011,4e-05,-1e-05,0.0003,0.00055,0.00011,4e-05,0,5,9
23584,0.00011,4e-05,-1e-05,0.0003,0.00055,0.00011,4e-05,0,5,9
23585,0.00011,4e-05,-1e-05,0.0003,0.00055,0.00011,4e-05,0,5,9
23586,0.00011,4e-05,-1e-05,0.0003,0.00055,0.00011,4e-05,0,5,9
23588,0.00011,4e-05,-1e-05,0.0003,0.00055,0.00011,4e-05,0,5,9
23589,0.00011,4e-05,-1e-05,0.0003,0.00055,0.00011,4e-05,0,5,9
23590,0.00011,4e-05,-1e-05,0.0003,0.00055,0.00011,4e-05,0,5,9
23591,2e-05,-7e-05,-3e-05,4e-05,0.00018,1e-05,1e-05,-1e-05,5,9
23592,-3e-05,0,-9e-05,9e-05,0.00022,0.00014,-5e-05,-0.0002,5,9
23593,-3e-05,0,-9e-05,9e-05,0.00022,0.00014,-5e-05,-0.0002,5,9
23594,-3e-05,0,-9e-05,9e-05,0.00022,0.00014,-5e-05,-0.0002,5,9
23595,-3e-05,0,-9e-05,9e-05,0.00022,0.00014,-5e-05,-0.0002,5,9
23596,-3e-05,0,-9e-05,9e-05,0.00022,0.00014,-5e-05,-0.0002,5,9
23597,-7e-05,-2e-05,3e-05,0.00013,0.00052,0.00012,4e-05,-3e-05,5,9
23598,-7e-05,-2e-05,3e-05,0.00013,0.00052,0.00012,4e-05,-3e-05,5,9
23599,-7e-05,-2e-05,3e-05,0.00013,0.00052,0.00012,4e-05,-3e-05,5,9
23600,-7e-05,-2e-05,3e-05,0.00013,0.00052,0.00012,4e-05,-3e-05,5,9
23601,-7e-05,-2e-05,3e-05,0.00013,0.00052,0.00012,4e-05,-3e-05,5,9
23602,-7e-05,-2e-05,3e-05,0.00013,0.00052,0.00012,4e-05,-3e-05,5,9
23603,-7e-05,-2e-05,3e-05,0.00013,0.00052,0.00012,4e-05,-3e-05,5,9
23604,-7e-05,-2e-05,3e-05,0.00013,0.00052,0.00012,4e-05,-3e-05,5,9
23605,-7e-05,-2e-05,3e-05,0.00013,0.00052,0.00012,4e-05,-3e-05,5,9
23606,-7e-05,-2e-05,3e-05,0.00013,0.00052,0.00012,4e-05,-3e-05,5,9
23607,-7e-05,-2e-05,3e-05,0.00013,0.00052,0.00012,4e-05,-3e-05,5,9
23608,-7e-05,-2e-05,3e-05,0.00013,0.00052,0.00012,4e-05,-3e-05,5,9
23609,-7e-05,-2e-05,3e-05,0.00013,0.00052,0.00012,4e-05,-3e-05,5,9
23610,-7e-05,-2e-05,3e-05,0.00013,0.00052,0.00012,4e-05,-3e-05,5,9
23611,-7e-05,-2e-05,3e-05,0.00013,0.00052,0.00012,4e-05,-3e-05,5,9
23612,-1e-05,2e-05,6e-05,8e-05,0.00015,8e-05,5e-05,-7e-05,5,9
23613,-1e-05,2e-05,6e-05,8e-05,0.00015,8e-05,5e-05,-7e-05,5,9
23614,-1e-05,2e-05,6e-05,8e-05,0.00015,8e-05,5e-05,-7e-05,5,9
23615,-1e-05,2e-05,6e-05,8e-05,0.00015,8e-05,5e-05,-7e-05,5,9
23616,-1e-05,2e-05,6e-05,8e-05,0.00015,8e-05,5e-05,-7e-05,5,9
23617,-1e-05,2e-05,6e-05,8e-05,0.00015,8e-05,5e-05,-7e-05,5,9
23618,-1e-05,2e-05,6e-05,8e-05,0.00015,8e-05,5e-05,-7e-05,5,9
23619,-1e-05,2e-05,6e-05,8e-05,0.00015,8e-05,5e-05,-7e-05,5,9
23620,-1e-05,2e-05,6e-05,8e-05,0.00015,8e-05,5e-05,-7e-05,5,9
23621,-1e-05,2e-05,6e-05,8e-05,0.00015,8e-05,5e-05,-7e-05,5,9
23622,-2e-05,-3e-05,-0.00011,4e-05,2e-05,-2e-05,0,-7e-05,5,9
23623,-7e-05,0,-1e-05,-0.00029,-0.00022,3e-05,5e-05,8e-05,5,9
23624,-7e-05,0,-1e-05,-0.00029,-0.00022,3e-05,5e-05,8e-05,5,9
23625,-7e-05,0,-1e-05,-0.00029,-0.00022,3e-05,5e-05,8e-05,5,9
23626,-7e-05,0,-1e-05,-0.00029,-0.00022,3e-05,5e-05,8e-05,5,9
23627,-7e-05,0,-1e-05,-0.00029,-0.00022,3e-05,5e-05,8e-05,5,9
23628,-7e-05,0,-1e-05,-0.00029,-0.00022,3e-05,5e-05,8e-05,5,9
23629,-7e-05,0,-1e-05,-0.00029,-0.00022,3e-05,5e-05,8e-05,5,9
23630,-7e-05,0,-1e-05,-0.00029,-0.00022,3e-05,5e-05,8e-05,5,9
23631,-7e-05,0,-1e-05,-0.00029,-0.00022,3e-05,5e-05,8e-05,5,9
23632,-7e-05,0,-1e-05,-0.00029,-0.00022,3e-05,5e-05,8e-05,5,9
23633,-7e-05,0,-1e-05,-0.00029,-0.00022,3e-05,5e-05,8e-05,5,9
23634,-7e-05,0,-1e-05,-0.00029,-0.00022,3e-05,5e-05,8e-05,5,9
23635,-7e-05,0,-1e-05,-0.00029,-0.00022,3e-05,5e-05,8e-05,5,9
23636,-7e-05,0,-1e-05,-0.00029,-0.00022,3e-05,5e-05,8e-05,5,9
23639,-7e-05,0,-1e-05,-0.00029,-0.00022,3e-05,5e-05,8e-05,5,9
23640,-7e-05,0,-1e-05,-0.00029,-0.00022,3e-05,5e-05,8e-05,5,9
23641,-7e-05,0,-1e-05,-0.00029,-0.00022,3e-05,5e-05,8e-05,5,9
23642,-7e-05,0,-1e-05,-0.00029,-0.00022,3e-05,5e-05,8e-05,5,9
23643,2e-05,-6e-05,-4e-05,-5e-05,5e-05,-5e-05,-6e-05,-5e-05,5,9
23644,0.00013,2e-05,-2e-05,0.00013,0.00027,-8e-05,4e-05,5e-05,5,9
23645,4e-05,1e-05,-1e-05,0.00016,0.00018,-9e-05,-1e-05,4e-05,5,9
23646,4e-05,1e-05,-1e-05,0.00016,0.00018,-9e-05,-1e-05,4e-05,5,9
23647,4e-05,1e-05,-1e-05,0.00016,0.00018,-9e-05,-1e-05,4e-05,5,9
23648,4e-05,1e-05,-1e-05,0.00016,0.00018,-9e-05,-1e-05,4e-05,5,9
23649,4e-05,1e-05,-1e-05,0.00016,0.00018,-9e-05,-1e-05,4e-05,5,9
23650,4e-05,1e-05,-1e-05,0.00016,0.00018,-9e-05,-1e-05,4e-05,5,9
23651,4e-05,1e-05,-1e-05,0.00016,0.00018,-9e-05,-1e-05,4e-05,5,9
23652,4e-05,1e-05,-1e-05,0.00016,0.00018,-9e-05,-1e-05,4e-05,5,9
23653,4e-05,1e-05,-1e-05,0.00016,0.00018,-9e-05,-1e-05,4e-05,5,9
23654,4e-05,1e-05,-1e-05,0.00016,0.00018,-9e-05,-1e-05,4e-05,5,9
23655,4e-05,1e-05,-1e-05,0.00016,0.00018,-9e-05,-1e-05,4e-05,5,9
23656,4e-05,1e-05,-1e-05,0.00016,0.00018,-9e-05,-1e-05,4e-05,5,9
23657,0.00018,0.00014,7e-05,-0.0002,0.00027,2e-05,0,0.0001,5,9
23658,-0.00014,-0.00018,-0.00016,-0.00018,-0.00035,-0.00011,-0.0001,-0.00014,5,9
23659,-0.00014,-0.00018,-0.00016,-0.00018,-0.00035,-0.00011,-0.0001,-0.00014,5,9
23660,-0.00014,-0.00018,-0.00016,-0.00018,-0.00035,-0.00011,-0.0001,-0.00014,5,9
23661,-0.00014,-0.00018,-0.00016,-0.00018,-0.00035,-0.00011,-0.0001,-0.00014,5,9
23662,-0.00014,-0.00018,-0.00016,-0.00018,-0.00035,-0.00011,-0.0001,-0.00014,5,9
23663,-0.00014,-0.00018,-0.00016,-0.00018,-0.00035,-0.00011,-0.0001,-0.00014,5,9
23664,-0.00013,-5e-05,-0.0001,-7e-05,0.00012,-5e-05,1e-05,5e-05,5,9
23666,-0.00013,-5e-05,-0.0001,-7e-05,0.00012,-5e-05,1e-05,5e-05,5,9
23667,-0.00013,-5e-05,-0.0001,-7e-05,0.00012,-5e-05,1e-05,5e-05,5,9
23668,-0.00013,-5e-05,-0.0001,-7e-05,0.00012,-5e-05,1e-05,5e-05,5,9
23669,-0.00013,-5e-05,-0.0001,-7e-05,0.00012,-5e-05,1e-05,5e-05,5,9
23670,-0.00013,-5e-05,-0.0001,-7e-05,0.00012,-5e-05,1e-05,5e-05,5,9
23671,-0.00013,-5e-05,-0.0001,-7e-05,0.00012,-5e-05,1e-05,5e-05,5,9
23672,-0.00013,-5e-05,-0.0001,-7e-05,0.00012,-5e-05,1e-05,5e-05,5,9
23673,-0.00013,-5e-05,-0.0001,-7e-05,0.00012,-5e-05,1e-05,5e-05,5,9
23674,-0.00013,-5e-05,-0.0001,-7e-05,0.00012,-5e-05,1e-05,5e-05,5,9
23675,-0.00013,-5e-05,-0.0001,-7e-05,0.00012,-5e-05,1e-05,5e-05,5,9
23676,-0.00013,-5e-05,-0.0001,-7e-05,0.00012,-5e-05,1e-05,5e-05,5,9
54718,0.00016,0.00011,-2e-05,-8e-05,-0.00053,-4e-05,-3e-05,-1e-05,5,9
54719,0.00016,0.00011,-2e-05,-8e-05,-0.00053,-4e-05,-3e-05,-1e-05,5,9
54720,0.00016,0.00011,-2e-05,-8e-05,-0.00053,-4e-05,-3e-05,-1e-05,5,9
54721,0.00016,0.00011,-2e-05,-8e-05,-0.00053,-4e-05,-3e-05,-1e-05,5,9
54722,0.00016,0.00011,-2e-05,-8e-05,-0.00053,-4e-05,-3e-05,-1e-05,5,9
54723,0.00016,0.00011,-2e-05,-8e-05,-0.00053,-4e-05,-3e-05,-1e-05,5,9
54724,-2e-05,-3e-05,-1e-05,-7e-05,1e-05,1e-05,-5e-05,-1e-05,5,9
54725,-2e-05,-3e-05,-1e-05,-7e-05,1e-05,1e-05,-5e-05,-1e-05,5,9
54727,-2e-05,-3e-05,-1e-05,-7e-05,1e-05,1e-05,-5e-05,-1e-05,5,9
54728,-2e-05,-3e-05,-1e-05,-7e-05,1e-05,1e-05,-5e-05,-1e-05,5,9
54729,-2e-05,-3e-05,-1e-05,-7e-05,1e-05,1e-05,-5e-05,-1e-05,5,9
54730,-2e-05,-3e-05,-1e-05,-7e-05,1e-05,1e-05,-5e-05,-1e-05,5,9
54731,-2e-05,-3e-05,-1e-05,-7e-05,1e-05,1e-05,-5e-05,-1e-05,5,9
54732,-2e-05,-3e-05,-1e-05,-7e-05,1e-05,1e-05,-5e-05,-1e-05,5,9
54733,-2e-05,-3e-05,-1e-05,-7e-05,1e-05,1e-05,-5e-05,-1e-05,5,9
54734,-2e-05,-3e-05,-1e-05,-7e-05,1e-05,1e-05,-5e-05,-1e-05,5,9
54735,-2e-05,-3e-05,-1e-05,-7e-05,1e-05,1e-05,-5e-05,-1e-05,5,9
54736,-2e-05,-3e-05,-1e-05,-7e-05,1e-05,1e-05,-5e-05,-1e-05,5,9
54738,-2e-05,-3e-05,-1e-05,-7e-05,1e-05,1e-05,-5e-05,-1e-05,5,9
54739,-2e-05,-3e-05,-1e-05,-7e-05,1e-05,1e-05,-5e-05,-1e-05,5,9
54740,-2e-05,-3e-05,-1e-05,-7e-05,1e-05,1e-05,-5e-05,-1e-05,5,9
54741,-2e-05,-3e-05,-1e-05,-7e-05,1e-05,1e-05,-5e-05,-1e-05,5,9
54742,-2e-05,-3e-05,-1e-05,-7e-05,1e-05,1e-05,-5e-05,-1e-05,5,9
54743,-2e-05,-3e-05,-1e-05,-7e-05,1e-05,1e-05,-5e-05,-1e-05,5,9
54744,-2e-05,-3e-05,-1e-05,-7e-05,1e-05,1e-05,-5e-05,-1e-05,5,9
54745,-2e-05,-3e-05,-1e-05,-7e-05,1e-05,1e-05,-5e-05,-1e-05,5,9
54746,-0.00022,-0.0001,-4e-05,-0.00025,-0.00033,-0.00012,1e-05,3e-05,5,9
54747,0.00021,0.0001,0,-5e-05,4e-05,-9e-05,0,3e-05,5,9
54748,0.00021,0.0001,0,-5e-05,4e-05,-9e-05,0,3e-05,5,9
54749,0.00021,0.0001,0,-5e-05,4e-05,-9e-05,0,3e-05,5,9
54750,0.00021,0.0001,0,-5e-05,4e-05,-9e-05,0,3e-05,5,9
54751,0.00021,0.0001,0,-5e-05,4e-05,-9e-05,0,3e-05,5,9
54752,0.00021,0.0001,0,-5e-05,4e-05,-9e-05,0,3e-05,5,9
54753,0.00021,0.0001,0,-5e-05,4e-05,-9e-05,0,3e-05,5,9
54754,0.00021,0.0001,0,-5e-05,4e-05,-9e-05,0,3e-05,5,9
54755,0.00021,0.0001,0,-5e-05,4e-05,-9e-05,0,3e-05,5,9
54756,0.00021,0.0001,0,-5e-05,4e-05,-9e-05,0,3e-05,5,9
54757,0.00021,0.0001,0,-5e-05,4e-05,-9e-05,0,3e-05,5,9
54758,0.00021,0.0001,0,-5e-05,4e-05,-9e-05,0,3e-05,5,9
54759,0.00021,0.0001,0,-5e-05,4e-05,-9e-05,0,3e-05,5,9
54760,0.00021,0.0001,0,-5e-05,4e-05,-9e-05,0,3e-05,5,9
54761,-0.00021,-0.00011,0,-2e-05,-8e-05,-2e-05,0,-8e-05,5,9
54762,0.00018,7e-05,-6e-05,-4e-05,0.00014,-7e-05,-4e-05,0,5,9
54763,0.00018,7e-05,-6e-05,-4e-05,0.00014,-7e-05,-4e-05,0,5,9
54764,0.00018,7e-05,-6e-05,-4e-05,0.00014,-7e-05,-4e-05,0,5,9
54765,0.00018,7e-05,-6e-05,-4e-05,0.00014,-7e-05,-4e-05,0,5,9
54766,0.00018,7e-05,-6e-05,-4e-05,0.00014,-7e-05,-4e-05,0,5,9
54768,0.00018,7e-05,-6e-05,-4e-05,0.00014,-7e-05,-4e-05,0,5,9
54769,0.00018,7e-05,-6e-05,-4e-05,0.00014,-7e-05,-4e-05,0,5,9
54770,0.00018,7e-05,-6e-05,-4e-05,0.00014,-7e-05,-4e-05,0,5,9
54771,0.00018,7e-05,-6e-05,-4e-05,0.00014,-7e-05,-4e-05,0,5,9
54772,0.00018,7e-05,-6e-05,-4e-05,0.00014,-7e-05,-4e-05,0,5,9
54773,0.00018,7e-05,-6e-05,-4e-05,0.00014,-7e-05,-4e-05,0,5,9
54774,0.00018,7e-05,-6e-05,-4e-05,0.00014,-7e-05,-4e-05,0,5,9
54775,0.00018,7e-05,-6e-05,-4e-05,0.00014,-7e-05,-4e-05,0,5,9
54776,0.00018,7e-05,-6e-05,-4e-05,0.00014,-7e-05,-4e-05,0,5,9
54777,0.00018,7e-05,-6e-05,-4e-05,0.00014,-7e-05,-4e-05,0,5,9
54778,0.00018,7e-05,-6e-05,-4e-05,0.00014,-7e-05,-4e-05,0,5,9
54779,0.00018,7e-05,-6e-05,-4e-05,0.00014,-7e-05,-4e-05,0,5,9
54780,0.00018,7e-05,-6e-05,-4e-05,0.00014,-7e-05,-4e-05,0,5,9
54781,0.00018,7e-05,-6e-05,-4e-05,0.00014,-7e-05,-4e-05,0,5,9
54782,0.00018,7e-05,-6e-05,-4e-05,0.00014,-7e-05,-4e-05,0,5,9
54783,0.00018,7e-05,-6e-05,-4e-05,0.00014,-7e-05,-4e-05,0,5,9
54784,2e-05,4e-05,3e-05,0,-0.00013,3e-05,1e-05,1e-05,5,9
54785,3e-05,-6e-05,-4e-05,-1e-05,8e-05,9e-05,1e-05,0,5,9
54786,3e-05,-6e-05,-4e-05,-1e-05,8e-05,9e-05,1e-05,0,5,9
54788,3e-05,-6e-05,-4e-05,-1e-05,8e-05,9e-05,1e-05,0,5,9
54789,3e-05,-6e-05,-4e-05,-1e-05,8e-05,9e-05,1e-05,0,5,9
54790,3e-05,-6e-05,-4e-05,-1e-05,8e-05,9e-05,1e-05,0,5,9
54791,3e-05,-6e-05,-4e-05,-1e-05,8e-05,9e-05,1e-05,0,5,9
54792,3e-05,-6e-05,-4e-05,-1e-05,8e-05,9e-05,1e-05,0,5,9
54793,3e-05,-6e-05,-4e-05,-1e-05,8e-05,9e-05,1e-05,0,5,9
54794,3e-05,-6e-05,-4e-05,-1e-05,8e-05,9e-05,1e-05,0,5,9
54795,3e-05,-6e-05,-4e-05,-1e-05,8e-05,9e-05,1e-05,0,5,9
54796,3e-05,-6e-05,-4e-05,-1e-05,8e-05,9e-05,1e-05,0,5,9
54797,3e-05,-6e-05,-4e-05,-1e-05,8e-05,9e-05,1e-05,0,5,9
54798,3e-05,-6e-05,-4e-05,-1e-05,8e-05,9e-05,1e-05,0,5,9
54799,3e-05,-6e-05,-4e-05,-1e-05,8e-05,9e-05,1e-05,0,5,9
54800,3e-05,-6e-05,-4e-05,-1e-05,8e-05,9e-05,1e-05,0,5,9
54801,3e-05,-6e-05,-4e-05,-1e-05,8e-05,9e-05,1e-05,0,5,9
54802,3e-05,-6e-05,-4e-05,-1e-05,8e-05,9e-05,1e-05,0,5,9
54803,3e-05,-6e-05,-4e-05,-1e-05,8e-05,9e-05,1e-05,0,5,9
54804,3e-05,-6e-05,-4e-05,-1e-05,8e-05,9e-05,1e-05,0,5,9
54805,3e-05,-6e-05,-4e-05,-1e-05,8e-05,9e-05,1e-05,0,5,9
54806,1e-05,-0.00012,-1e-05,0,1e-05,-0.00014,-6e-05,-2e-05,5,9
54807,4e-05,3e-05,0.00011,5e-05,-0.0001,-3e-05,-2e-05,-4e-05,5,9
54808,4e-05,3e-05,0.00011,5e-05,-0.0001,-3e-05,-2e-05,-4e-05,5,9
54809,4e-05,3e-05,0.00011,5e-05,-0.0001,-3e-05,-2e-05,-4e-05,5,9
54810,4e-05,3e-05,0.00011,5e-05,-0.0001,-3e-05,-2e-05,-4e-05,5,9
54811,4e-05,3e-05,0.00011,5e-05,-0.0001,-3e-05,-2e-05,-4e-05,5,9
54812,4e-05,3e-05,0.00011,5e-05,-0.0001,-3e-05,-2e-05,-4e-05,5,9
54813,4e-05,3e-05,0.00011,5e-05,-0.0001,-3e-05,-2e-05,-4e-05,5,9
54814,4e-05,3e-05,0.00011,5e-05,-0.0001,-3e-05,-2e-05,-4e-05,5,9
54815,4e-05,3e-05,0.00011,5e-05,-0.0001,-3e-05,-2e-05,-4e-05,5,9
54817,4e-05,3e-05,0.00011,5e-05,-0.0001,-3e-05,-2e-05,-4e-05,5,9
54818,4e-05,3e-05,0.00011,5e-05,-0.0001,-3e-05,-2e-05,-4e-05,5,9
54819,4e-05,3e-05,0.00011,5e-05,-0.0001,-3e-05,-2e-05,-4e-05,5,9
54820,-0.00035,-0.0002,-0.0002,0.00018,0.00053,8e-05,6e-05,-6e-05,5,9
54821,-0.00018,-6e-05,-4e-05,-6e-05,-0.00035,-0.00015,0,-2e-05,5,9
54823,-0.00018,-6e-05,-4e-05,-6e-05,-0.00035,-0.00015,0,-2e-05,5,9
54824,-0.00018,-6e-05,-4e-05,-6e-05,-0.00035,-0.00015,0,-2e-05,5,9
54825,-0.00018,-6e-05,-4e-05,-6e-05,-0.00035,-0.00015,0,-2e-05,5,9
54826,-0.00018,-6e-05,-4e-05,-6e-05,-0.00035,-0.00015,0,-2e-05,5,9
54827,-0.00018,-6e-05,-4e-05,-6e-05,-0.00035,-0.00015,0,-2e-05,5,9
54829,-0.00018,-6e-05,-4e-05,-6e-05,-0.00035,-0.00015,0,-2e-05,5,9
54830,-0.00018,-6e-05,-4e-05,-6e-05,-0.00035,-0.00015,0,-2e-05,5,9
54831,-0.00018,-6e-05,-4e-05,-6e-05,-0.00035,-0.00015,0,-2e-05,5,9
54832,-0.00018,-6e-05,-4e-05,-6e-05,-0.00035,-0.00015,0,-2e-05,5,9
54833,-0.00018,-6e-05,-4e-05,-6e-05,-0.00035,-0.00015,0,-2e-05,5,9
54834,-0.00018,-6e-05,-4e-05,-6e-05,-0.00035,-0.00015,0,-2e-05,5,9
54835,-0.00018,-6e-05,-4e-05,-6e-05,-0.00035,-0.00015,0,-2e-05,5,9
54836,-0.00018,-6e-05,-4e-05,-6e-05,-0.00035,-0.00015,0,-2e-05,5,9
54838,-0.00018,-6e-05,-4e-05,-6e-05,-0.00035,-0.00015,0,-2e-05,5,9
54839,-0.00018,-6e-05,-4e-05,-6e-05,-0.00035,-0.00015,0,-2e-05,5,9
54840,-0.00018,-6e-05,-4e-05,-6e-05,-0.00035,-0.00015,0,-2e-05,5,9
54841,-0.00018,-6e-05,-4e-05,-6e-05,-0.00035,-0.00015,0,-2e-05,5,9
54842,-0.00018,-6e-05,-4e-05,-6e-05,-0.00035,-0.00015,0,-2e-05,5,9
54843,-0.00018,-6e-05,-4e-05,-6e-05,-0.00035,-0.00015,0,-2e-05,5,9
54844,0.00011,9e-05,0,0.00022,0,-1e-05,-2e-05,0,5,9
54845,0.00011,9e-05,0,0.00022,0,-1e-05,-2e-05,0,5,9
54846,-0.00017,6e-05,3e-05,0.00018,4e-05,3e-05,4e-05,1e-05,5,9
54847,-0.00017,6e-05,3e-05,0.00018,4e-05,3e-05,4e-05,1e-05,5,9
54848,-0.00017,6e-05,3e-05,0.00018,4e-05,3e-05,4e-05,1e-05,5,9
54849,-0.00017,6e-05,3e-05,0.00018,4e-05,3e-05,4e-05,1e-05,5,9
54850,-0.00017,6e-05,3e-05,0.00018,4e-05,3e-05,4e-05,1e-05,5,9
54851,-0.00017,6e-05,3e-05,0.00018,4e-05,3e-05,4e-05,1e-05,5,9
54852,-0.00017,6e-05,3e-05,0.00018,4e-05,3e-05,4e-05,1e-05,5,9
54853,-0.00017,6e-05,3e-05,0.00018,4e-05,3e-05,4e-05,1e-05,5,9
54854,-0.00017,6e-05,3e-05,0.00018,4e-05,3e-05,4e-05,1e-05,5,9
54855,-0.00017,6e-05,3e-05,0.00018,4e-05,3e-05,4e-05,1e-05,5,9
54856,-0.00017,6e-05,3e-05,0.00018,4e-05,3e-05,4e-05,1e-05,5,9
54857,-0.00017,6e-05,3e-05,0.00018,4e-05,3e-05,4e-05,1e-05,5,9
54858,-0.00017,6e-05,3e-05,0.00018,4e-05,3e-05,4e-05,1e-05,5,9
54859,-0.00017,6e-05,3e-05,0.00018,4e-05,3e-05,4e-05,1e-05,5,9
54860,-0.00017,6e-05,3e-05,0.00018,4e-05,3e-05,4e-05,1e-05,5,9
54861,-0.00017,6e-05,3e-05,0.00018,4e-05,3e-05,4e-05,1e-05,5,9
54864,-0.00017,6e-05,3e-05,0.00018,4e-05,3e-05,4e-05,1e-05,5,9
54865,-0.00017,6e-05,3e-05,0.00018,4e-05,3e-05,4e-05,1e-05,5,9
54866,0.00016,-9e-05,-1e-05,2e-05,-4e-05,-3e-05,0,-1e-05,5,9
54867,3e-05,5e-05,2e-05,9e-05,-0.00025,7e-05,8e-05,6e-05,5,9
54868,3e-05,5e-05,2e-05,9e-05,-0.00025,7e-05,8e-05,6e-05,5,9
54869,3e-05,5e-05,2e-05,9e-05,-0.00025,7e-05,8e-05,6e-05,5,9
54870,3e-05,5e-05,2e-05,9e-05,-0.00025,7e-05,8e-05,6e-05,5,9
54871,3e-05,5e-05,2e-05,9e-05,-0.00025,7e-05,8e-05,6e-05,5,9
54872,3e-05,5e-05,2e-05,9e-05,-0.00025,7e-05,8e-05,6e-05,5,9
54873,3e-05,5e-05,2e-05,9e-05,-0.00025,7e-05,8e-05,6e-05,5,9
54874,3e-05,5e-05,2e-05,9e-05,-0.00025,7e-05,8e-05,6e-05,5,9
54875,3e-05,5e-05,2e-05,9e-05,-0.00025,7e-05,8e-05,6e-05,5,9
54876,3e-05,5e-05,2e-05,9e-05,-0.00025,7e-05,8e-05,6e-05,5,9
54877,3e-05,5e-05,2e-05,9e-05,-0.00025,7e-05,8e-05,6e-05,5,9
54878,3e-05,5e-05,2e-05,9e-05,-0.00025,7e-05,8e-05,6e-05,5,9
54879,3e-05,5e-05,2e-05,9e-05,-0.00025,7e-05,8e-05,6e-05,5,9
54880,3e-05,5e-05,2e-05,9e-05,-0.00025,7e-05,8e-05,6e-05,5,9
54881,1e-05,-4e-05,-0.0001,7e-05,0.00028,0.00015,-2e-05,0,5,9
54882,1e-05,-4e-05,-0.0001,7e-05,0.00028,0.00015,-2e-05,0,5,9
54883,1e-05,-4e-05,-0.0001,7e-05,0.00028,0.00015,-2e-05,0,5,9
54884,1e-05,-4e-05,-0.0001,7e-05,0.00028,0.00015,-2e-05,0,5,9
54885,1e-05,-4e-05,-0.0001,7e-05,0.00028,0.00015,-2e-05,0,5,9
54886,1e-05,-4e-05,-0.0001,7e-05,0.00028,0.00015,-2e-05,0,5,9
54888,-6e-05,-2e-05,4e-05,0.00011,0.00012,0.0001,-4e-05,1e-05,5,9
54889,-6e-05,-2e-05,4e-05,0.00011,0.00012,0.0001,-4e-05,1e-05,5,9
54890,-6e-05,-2e-05,4e-05,0.00011,0.00012,0.0001,-4e-05,1e-05,5,9
54891,-6e-05,-2e-05,4e-05,0.00011,0.00012,0.0001,-4e-05,1e-05,5,9
54892,-6e-05,-2e-05,4e-05,0.00011,0.00012,0.0001,-4e-05,1e-05,5,9
54893,-6e-05,-2e-05,4e-05,0.00011,0.00012,0.0001,-4e-05,1e-05,5,9
54894,-6e-05,-2e-05,4e-05,0.00011,0.00012,0.0001,-4e-05,1e-05,5,9
54895,-6e-05,-2e-05,4e-05,0.00011,0.00012,0.0001,-4e-05,1e-05,5,9
54896,-6e-05,-2e-05,4e-05,0.00011,0.00012,0.0001,-4e-05,1e-05,5,9
54897,-6e-05,-2e-05,4e-05,0.00011,0.00012,0.0001,-4e-05,1e-05,5,9
54898,-6e-05,-2e-05,4e-05,0.00011,0.00012,0.0001,-4e-05,1e-05,5,9
54899,-6e-05,-2e-05,4e-05,0.00011,0.00012,0.0001,-4e-05,1e-05,5,9
54900,-6e-05,-2e-05,4e-05,0.00011,0.00012,0.0001,-4e-05,1e-05,5,9
54901,-6e-05,-2e-05,4e-05,0.00011,0.00012,0.0001,-4e-05,1e-05,5,9
54902,-6e-05,-2e-05,4e-05,0.00011,0.00012,0.0001,-4e-05,1e-05,5,9
54903,-6e-05,-2e-05,4e-05,0.00011,0.00012,0.0001,-4e-05,1e-05,5,9
54904,-7e-05,-8e-05,-3e-05,5e-05,-0.00011,0,-9e-05,-8e-05,5,9
54905,6e-05,-2e-05,2e-05,7e-05,0.00043,3e-05,-4e-05,-3e-05,5,9
54906,6e-05,-2e-05,2e-05,7e-05,0.00043,3e-05,-4e-05,-3e-05,5,9
54907,6e-05,-2e-05,2e-05,7e-05,0.00043,3e-05,-4e-05,-3e-05,5,9
54908,6e-05,-2e-05,2e-05,7e-05,0.00043,3e-05,-4e-05,-3e-05,5,9
54909,6e-05,-2e-05,2e-05,7e-05,0.00043,3e-05,-4e-05,-3e-05,5,9
54910,6e-05,-2e-05,2e-05,7e-05,0.00043,3e-05,-4e-05,-3e-05,5,9
54911,6e-05,-2e-05,2e-05,7e-05,0.00043,3e-05,-4e-05,-3e-05,5,9
54912,6e-05,-2e-05,2e-05,7e-05,0.00043,3e-05,-4e-05,-3e-05,5,9
54913,6e-05,-2e-05,2e-05,7e-05,0.00043,3e-05,-4e-05,-3e-05,5,9
54914,6e-05,-2e-05,2e-05,7e-05,0.00043,3e-05,-4e-05,-3e-05,5,9
54915,6e-05,-2e-05,2e-05,7e-05,0.00043,3e-05,-4e-05,-3e-05,5,9
54916,6e-05,-2e-05,2e-05,7e-05,0.00043,3e-05,-4e-05,-3e-05,5,9
54917,6e-05,-2e-05,2e-05,7e-05,0.00043,3e-05,-4e-05,-3e-05,5,9
54918,6e-05,-2e-05,2e-05,7e-05,0.00043,3e-05,-4e-05,-3e-05,5,9
54919,6e-05,-2e-05,2e-05,7e-05,0.00043,3e-05,-4e-05,-3e-05,5,9
54920,6e-05,-2e-05,2e-05,7e-05,0.00043,3e-05,-4e-05,-3e-05,5,9
54921,6e-05,-2e-05,2e-05,7e-05,0.00043,3e-05,-4e-05,-3e-05,5,9
54922,6e-05,-2e-05,2e-05,7e-05,0.00043,3e-05,-4e-05,-3e-05,5,9
54923,6e-05,-2e-05,2e-05,7e-05,0.00043,3e-05,-4e-05,-3e-05,5,9
54924,6e-05,-2e-05,2e-05,7e-05,0.00043,3e-05,-4e-05,-3e-05,5,9
54925,6e-05,-2e-05,2e-05,7e-05,0.00043,3e-05,-4e-05,-3e-05,5,9
54926,-1e-05,5e-05,7e-05,-3e-05,0.00045,0.0001,-1e-05,0,5,9
54927,-5e-05,-0.00013,-0.0001,-0.00026,-0.0002,-3e-05,0,-3e-05,5,9
54928,-5e-05,-0.00013,-0.0001,-0.00026,-0.0002,-3e-05,0,-3e-05,5,9
54929,-5e-05,-0.00013,-0.0001,-0.00026,-0.0002,-3e-05,0,-3e-05,5,9
54930,-5e-05,-0.00013,-0.0001,-0.00026,-0.0002,-3e-05,0,-3e-05,5,9
54931,-5e-05,-0.00013,-0.0001,-0.00026,-0.0002,-3e-05,0,-3e-05,5,9
54932,-5e-05,-0.00013,-0.0001,-0.00026,-0.0002,-3e-05,0,-3e-05,5,9
54933,-5e-05,-0.00013,-0.0001,-0.00026,-0.0002,-3e-05,0,-3e-05,5,9
54934,-5e-05,-0.00013,-0.0001,-0.00026,-0.0002,-3e-05,0,-3e-05,5,9
54935,-5e-05,-0.00013,-0.0001,-0.00026,-0.0002,-3e-05,0,-3e-05,5,9
54936,-5e-05,-0.00013,-0.0001,-0.00026,-0.0002,-3e-05,0,-3e-05,5,9
54938,-5e-05,-0.00013,-0.0001,-0.00026,-0.0002,-3e-05,0,-3e-05,5,9
54939,-5e-05,-0.00013,-0.0001,-0.00026,-0.0002,-3e-05,0,-3e-05,5,9
54940,-5e-05,-0.00013,-0.0001,-0.00026,-0.0002,-3e-05,0,-3e-05,5,9
54941,0.00042,0.00014,5e-05,-0.00011,-0.00016,-2e-05,0,2e-05,5,9
54942,-4e-05,3e-05,-3e-05,0,2e-05,-1e-05,-3e-05,-3e-05,5,9
54943,-4e-05,3e-05,-3e-05,0,2e-05,-1e-05,-3e-05,-3e-05,5,9
54944,-4e-05,3e-05,-3e-05,0,2e-05,-1e-05,-3e-05,-3e-05,5,9
54945,-4e-05,3e-05,-3e-05,0,2e-05,-1e-05,-3e-05,-3e-05,5,9
54946,-4e-05,3e-05,-3e-05,0,2e-05,-1e-05,-3e-05,-3e-05,5,9
54947,-4e-05,3e-05,-3e-05,0,2e-05,-1e-05,-3e-05,-3e-05,5,9
54949,-4e-05,3e-05,-3e-05,0,2e-05,-1e-05,-3e-05,-3e-05,5,9
54950,-4e-05,3e-05,-3e-05,0,2e-05,-1e-05,-3e-05,-3e-05,5,9
54951,-4e-05,3e-05,-3e-05,0,2e-05,-1e-05,-3e-05,-3e-05,5,9
54952,-4e-05,3e-05,-3e-05,0,2e-05,-1e-05,-3e-05,-3e-05,5,9
54953,-4e-05,3e-05,-3e-05,0,2e-05,-1e-05,-3e-05,-3e-05,5,9
54954,-4e-05,3e-05,-3e-05,0,2e-05,-1e-05,-3e-05,-3e-05,5,9
54955,-4e-05,3e-05,-3e-05,0,2e-05,-1e-05,-3e-05,-3e-05,5,9
54956,-4e-05,3e-05,-3e-05,0,2e-05,-1e-05,-3e-05,-3e-05,5,9
54957,-4e-05,3e-05,-3e-05,0,2e-05,-1e-05,-3e-05,-3e-05,5,9
54958,-4e-05,3e-05,-3e-05,0,2e-05,-1e-05,-3e-05,-3e-05,5,9
54959,-4e-05,3e-05,-3e-05,0,2e-05,-1e-05,-3e-05,-3e-05,5,9
54960,-4e-05,3e-05,-3e-05,0,2e-05,-1e-05,-3e-05,-3e-05,5,9
54961,-4e-05,3e-05,-3e-05,0,2e-05,-1e-05,-3e-05,-3e-05,5,9
54962,-4e-05,3e-05,-3e-05,0,2e-05,-1e-05,-3e-05,-3e-05,5,9
54963,-4e-05,3e-05,-3e-05,0,2e-05,-1e-05,-3e-05,-3e-05,5,9
54964,4e-05,-9e-05,-5e-05,-8e-05,1e-05,-0.0001,0,-4e-05,5,9
54965,1e-05,1e-05,-3e-05,-1e-05,1e-05,-9e-05,1e-05,0,5,9
54966,1e-05,1e-05,-3e-05,-1e-05,1e-05,-9e-05,1e-05,0,5,9
54967,1e-05,1e-05,-3e-05,-1e-05,1e-05,-9e-05,1e-05,0,5,9
54968,1e-05,1e-05,-3e-05,-1e-05,1e-05,-9e-05,1e-05,0,5,9
54969,1e-05,1e-05,-3e-05,-1e-05,1e-05,-9e-05,1e-05,0,5,9
54970,1e-05,1e-05,-3e-05,-1e-05,1e-05,-9e-05,1e-05,0,5,9
54971,1e-05,1e-05,-3e-05,-1e-05,1e-05,-9e-05,1e-05,0,5,9
54972,1e-05,1e-05,-3e-05,-1e-05,1e-05,-9e-05,1e-05,0,5,9
54973,1e-05,1e-05,-3e-05,-1e-05,1e-05,-9e-05,1e-05,0,5,9
54974,1e-05,1e-05,-3e-05,-1e-05,1e-05,-9e-05,1e-05,0,5,9
54975,1e-05,1e-05,-3e-05,-1e-05,1e-05,-9e-05,1e-05,0,5,9
54976,1e-05,1e-05,-3e-05,-1e-05,1e-05,-9e-05,1e-05,0,5,9
54977,1e-05,1e-05,-3e-05,-1e-05,1e-05,-9e-05,1e-05,0,5,9
54978,1e-05,1e-05,-3e-05,-1e-05,1e-05,-9e-05,1e-05,0,5,9
54979,1e-05,1e-05,-3e-05,-1e-05,1e-05,-9e-05,1e-05,0,5,9
54980,1e-05,1e-05,-3e-05,-1e-05,1e-05,-9e-05,1e-05,0,5,9
54981,1e-05,1e-05,-3e-05,-1e-05,1e-05,-9e-05,1e-05,0,5,9
54982,1e-05,1e-05,-3e-05,-1e-05,1e-05,-9e-05,1e-05,0,5,9
54983,1e-05,1e-05,-3e-05,-1e-05,1e-05,-9e-05,1e-05,0,5,9
54984,1e-05,1e-05,-3e-05,-1e-05,1e-05,-9e-05,1e-05,0,5,9
54985,1e-05,1e-05,-3e-05,-1e-05,1e-05,-9e-05,1e-05,0,5,9
54986,1e-05,1e-05,-3e-05,-1e-05,1e-05,-9e-05,1e-05,0,5,9
54988,-8e-05,-6e-05,0,0.00026,0.00039,0.00014,1e-05,-2e-05,5,9
54989,-8e-05,-6e-05,0,0.00026,0.00039,0.00014,1e-05,-2e-05,5,9
54990,-8e-05,-6e-05,0,0.00026,0.00039,0.00014,1e-05,-2e-05,5,9
54991,-8e-05,-6e-05,0,0.00026,0.00039,0.00014,1e-05,-2e-05,5,9
54992,-8e-05,-6e-05,0,0.00026,0.00039,0.00014,1e-05,-2e-05,5,9
54993,-8e-05,-6e-05,0,0.00026,0.00039,0.00014,1e-05,-2e-05,5,9
54994,-8e-05,-6e-05,0,0.00026,0.00039,0.00014,1e-05,-2e-05,5,9
54995,-8e-05,-6e-05,0,0.00026,0.00039,0.00014,1e-05,-2e-05,5,9
54996,-8e-05,-6e-05,0,0.00026,0.00039,0.00014,1e-05,-2e-05,5,9
54997,-8e-05,-6e-05,0,0.00026,0.00039,0.00014,1e-05,-2e-05,5,9
54998,-8e-05,-6e-05,0,0.00026,0.00039,0.00014,1e-05,-2e-05,5,9
54999,-8e-05,-6e-05,0,0.00026,0.00039,0.00014,1e-05,-2e-05,5,9
55000,-3e-05,-3e-05,-2e-05,-0.00012,-0.00017,-1e-05,1e-05,1e-05,5,9
55001,-3e-05,-3e-05,-2e-05,-0.00012,-0.00017,-1e-05,1e-05,1e-05,5,9
55002,-3e-05,-3e-05,-2e-05,-0.00012,-0.00017,-1e-05,1e-05,1e-05,5,9
55004,-3e-05,-3e-05,-2e-05,-0.00012,-0.00017,-1e-05,1e-05,1e-05,5,9
55005,-3e-05,-3e-05,-2e-05,-0.00012,-0.00017,-1e-05,1e-05,1e-05,5,9
55006,-3e-05,-3e-05,-2e-05,-0.00012,-0.00017,-1e-05,1e-05,1e-05,5,9
55007,-3e-05,-3e-05,-2e-05,-0.00012,-0.00017,-1e-05,1e-05,1e-05,5,9
55008,-3e-05,-3e-05,-2e-05,-0.00012,-0.00017,-1e-05,1e-05,1e-05,5,9
55009,-0.00066,-0.00052,-0.0001,-0.00023,-0.00018,-0.00016,-6e-05,-9e-05,5,9
55010,-0.00066,-0.00052,-0.0001,-0.00023,-0.00018,-0.00016,-6e-05,-9e-05,5,9
55011,-0.00066,-0.00052,-0.0001,-0.00023,-0.00018,-0.00016,-6e-05,-9e-05,5,9
55012,-0.00066,-0.00052,-0.0001,-0.00023,-0.00018,-0.00016,-6e-05,-9e-05,5,9
55013,-0.00066,-0.00052,-0.0001,-0.00023,-0.00018,-0.00016,-6e-05,-9e-05,5,9
55014,-0.00066,-0.00052,-0.0001,-0.00023,-0.00018,-0.00016,-6e-05,-9e-05,5,9
55015,-0.00066,-0.00052,-0.0001,-0.00023,-0.00018,-0.00016,-6e-05,-9e-05,5,9
55016,-0.00066,-0.00052,-0.0001,-0.00023,-0.00018,-0.00016,-6e-05,-9e-05,5,9
55017,-0.00066,-0.00052,-0.0001,-0.00023,-0.00018,-0.00016,-6e-05,-9e-05,5,9
55018,-0.00066,-0.00052,-0.0001,-0.00023,-0.00018,-0.00016,-6e-05,-9e-05,5,9
55019,-0.00066,-0.00052,-0.0001,-0.00023,-0.00018,-0.00016,-6e-05,-9e-05,5,9
55020,-0.00066,-0.00052,-0.0001,-0.00023,-0.00018,-0.00016,-6e-05,-9e-05,5,9
55021,-0.00066,-0.00052,-0.0001,-0.00023,-0.00018,-0.00016,-6e-05,-9e-05,5,9
55022,-0.00066,-0.00052,-0.0001,-0.00023,-0.00018,-0.00016,-6e-05,-9e-05,5,9
55023,-0.00066,-0.00052,-0.0001,-0.00023,-0.00018,-0.00016,-6e-05,-9e-05,5,9
55024,-5e-05,0,7e-05,-6e-05,-0.00027,-7e-05,4e-05,4e-05,5,9
55025,0.00011,-1e-05,0,4e-05,0.00012,8e-05,3e-05,0,5,9
55026,0.00011,-1e-05,0,4e-05,0.00012,8e-05,3e-05,0,5,9
55027,0.00011,-1e-05,0,4e-05,0.00012,8e-05,3e-05,0,5,9
55028,0.00011,-1e-05,0,4e-05,0.00012,8e-05,3e-05,0,5,9
55029,0.00011,-1e-05,0,4e-05,0.00012,8e-05,3e-05,0,5,9
55030,0.00011,-1e-05,0,4e-05,0.00012,8e-05,3e-05,0,5,9
55031,0.00011,-1e-05,0,4e-05,0.00012,8e-05,3e-05,0,5,9
55033,0.00011,-1e-05,0,4e-05,0.00012,8e-05,3e-05,0,5,9
55034,0.00011,-1e-05,0,4e-05,0.00012,8e-05,3e-05,0,5,9
55035,0.00011,-1e-05,0,4e-05,0.00012,8e-05,3e-05,0,5,9
55036,0.00011,-1e-05,0,4e-05,0.00012,8e-05,3e-05,0,5,9
55038,0.00011,-1e-05,0,4e-05,0.00012,8e-05,3e-05,0,5,9
55039,0.00011,-1e-05,0,4e-05,0.00012,8e-05,3e-05,0,5,9
55040,0.00011,-1e-05,0,4e-05,0.00012,8e-05,3e-05,0,5,9
55041,0.00011,-1e-05,0,4e-05,0.00012,8e-05,3e-05,0,5,9
55042,0.00011,-1e-05,0,4e-05,0.00012,8e-05,3e-05,0,5,9
55043,0.00011,-1e-05,0,4e-05,0.00012,8e-05,3e-05,0,5,9
55044,0.00011,-1e-05,0,4e-05,0.00012,8e-05,3e-05,0,5,9
55045,0.00011,-1e-05,0,4e-05,0.00012,8e-05,3e-05,0,5,9
55046,-0.00015,-7e-05,0,-0.00022,-6e-05,-6e-05,6e-05,-3e-05,5,9
55047,-0.00015,-7e-05,0,-0.00022,-6e-05,-6e-05,6e-05,-3e-05,5,9
55048,0.0001,0.00011,6e-05,-0.00032,-6e-05,4e-05,1e-05,0,5,9
55049,0.0001,0.00011,6e-05,-0.00032,-6e-05,4e-05,1e-05,0,5,9
55050,0.0001,0.00011,6e-05,-0.00032,-6e-05,4e-05,1e-05,0,5,9
55051,0.0001,0.00011,6e-05,-0.00032,-6e-05,4e-05,1e-05,0,5,9
55052,0.0001,0.00011,6e-05,-0.00032,-6e-05,4e-05,1e-05,0,5,9
55053,0.0001,0.00011,6e-05,-0.00032,-6e-05,4e-05,1e-05,0,5,9
55054,0.0001,0.00011,6e-05,-0.00032,-6e-05,4e-05,1e-05,0,5,9
55055,0.0001,0.00011,6e-05,-0.00032,-6e-05,4e-05,1e-05,0,5,9
55056,0.0001,0.00011,6e-05,-0.00032,-6e-05,4e-05,1e-05,0,5,9
55057,0.0001,0.00011,6e-05,-0.00032,-6e-05,4e-05,1e-05,0,5,9
55058,0.0001,0.00011,6e-05,-0.00032,-6e-05,4e-05,1e-05,0,5,9
55059,0.0001,0.00011,6e-05,-0.00032,-6e-05,4e-05,1e-05,0,5,9
55060,-9e-05,-0.00012,-2e-05,-4e-05,0.00025,7e-05,-2e-05,-2e-05,5,9
55061,-9e-05,-0.00012,-2e-05,-4e-05,0.00025,7e-05,-2e-05,-2e-05,5,9
55062,-9e-05,-0.00012,-2e-05,-4e-05,0.00025,7e-05,-2e-05,-2e-05,5,9
55063,-9e-05,-0.00012,-2e-05,-4e-05,0.00025,7e-05,-2e-05,-2e-05,5,9
55064,-9e-05,-0.00012,-2e-05,-4e-05,0.00025,7e-05,-2e-05,-2e-05,5,9
55065,-9e-05,-0.00012,-2e-05,-4e-05,0.00025,7e-05,-2e-05,-2e-05,5,9
55066,-9e-05,-0.00012,-2e-05,-4e-05,0.00025,7e-05,-2e-05,-2e-05,5,9
55067,-9e-05,-0.00012,-2e-05,-4e-05,0.00025,7e-05,-2e-05,-2e-05,5,9
55068,-9e-05,-0.00012,-2e-05,-4e-05,0.00025,7e-05,-2e-05,-2e-05,5,9
55069,0.00013,0.00012,-3e-05,-0.00015,-0.00015,-3e-05,-4e-05,-3e-05,5,9
55070,0.00013,0.00012,-3e-05,-0.00015,-0.00015,-3e-05,-4e-05,-3e-05,5,9
55071,0.00013,0.00012,-3e-05,-0.00015,-0.00015,-3e-05,-4e-05,-3e-05,5,9
55072,0.00013,0.00012,-3e-05,-0.00015,-0.00015,-3e-05,-4e-05,-3e-05,5,9
55073,0.00013,0.00012,-3e-05,-0.00015,-0.00015,-3e-05,-4e-05,-3e-05,5,9
55074,0.00013,0.00012,-3e-05,-0.00015,-0.00015,-3e-05,-4e-05,-3e-05,5,9
55075,0.00013,0.00012,-3e-05,-0.00015,-0.00015,-3e-05,-4e-05,-3e-05,5,9
55076,0.00013,0.00012,-3e-05,-0.00015,-0.00015,-3e-05,-4e-05,-3e-05,5,9
55077,0.00013,0.00012,-3e-05,-0.00015,-0.00015,-3e-05,-4e-05,-3e-05,5,9
55078,0.00013,0.00012,-3e-05,-0.00015,-0.00015,-3e-05,-4e-05,-3e-05,5,9
55079,0.00013,0.00012,-3e-05,-0.00015,-0.00015,-3e-05,-4e-05,-3e-05,5,9
55080,0.00013,0.00012,-3e-05,-0.00015,-0.00015,-3e-05,-4e-05,-3e-05,5,9
55081,0.00013,0.00012,-3e-05,-0.00015,-0.00015,-3e-05,-4e-05,-3e-05,5,9
55082,0.00013,0.00012,-3e-05,-0.00015,-0.00015,-3e-05,-4e-05,-3e-05,5,9
