28290,5e-05,3e-05,3e-05,0.0001,0.00023,0.00055,0.00024,0.00022,6,10
28291,0,-1e-05,0,9e-05,0.00024,6e-05,-2e-05,1e-05,6,10
28292,-8e-05,-4e-05,-1e-05,0,-0.00012,-0.00041,7e-05,0.00034,6,10
28293,-8e-05,-4e-05,-1e-05,0,-0.00012,-0.00041,7e-05,0.00034,6,10
28294,-8e-05,-4e-05,-1e-05,0,-0.00012,-0.00041,7e-05,0.00034,6,10
28295,-8e-05,-4e-05,-1e-05,0,-0.00012,-0.00041,7e-05,0.00034,6,10
28296,-8e-05,-4e-05,-1e-05,0,-0.00012,-0.00041,7e-05,0.00034,6,10
28297,-8e-05,-4e-05,-1e-05,0,-0.00012,-0.00041,7e-05,0.00034,6,10
28298,-8e-05,-4e-05,-1e-05,0,-0.00012,-0.00041,7e-05,0.00034,6,10
28299,-8e-05,-4e-05,-1e-05,0,-0.00012,-0.00041,7e-05,0.00034,6,10
28300,-8e-05,-4e-05,-1e-05,0,-0.00012,-0.00041,7e-05,0.00034,6,10
28301,-8e-05,-4e-05,-1e-05,0,-0.00012,-0.00041,7e-05,0.00034,6,10
28302,-8e-05,-4e-05,-1e-05,0,-0.00012,-0.00041,7e-05,0.00034,6,10
28303,-8e-05,-4e-05,-1e-05,0,-0.00012,-0.00041,7e-05,0.00034,6,10
28304,-8e-05,-4e-05,-1e-05,0,-0.00012,-0.00041,7e-05,0.00034,6,10
28305,-8e-05,-4e-05,-1e-05,0,-0.00012,-0.00041,7e-05,0.00034,6,10
28306,-8e-05,-4e-05,-1e-05,0,-0.00012,-0.00041,7e-05,0.00034,6,10
28307,-8e-05,-4e-05,-1e-05,0,-0.00012,-0.00041,7e-05,0.00034,6,10
28308,-8e-05,-4e-05,-1e-05,0,-0.00012,-0.00041,7e-05,0.00034,6,10
28309,-8e-05,-4e-05,-1e-05,0,-0.00012,-0.00041,7e-05,0.00034,6,10
28310,-8e-05,-4e-05,-1e-05,0,-0.00012,-0.00041,7e-05,0.00034,6,10
28311,-8e-05,-4e-05,-1e-05,0,-0.00012,-0.00041,7e-05,0.00034,6,10
28312,-9e-05,-6e-05,-5e-05,-0.00025,-0.00025,-0.00055,-0.00017,0.00018,6,10
28313,2e-05,6e-05,7e-05,0.00016,0.00053,0.0002,0.00017,-0.00084,6,10
28314,1e-05,-3e-05,-4e-05,-0.00011,-0.00032,0.00011,1e-05,8e-05,6,10
28315,1e-05,-3e-05,-4e-05,-0.00011,-0.00032,0.00011,1e-05,8e-05,6,10
28316,1e-05,-3e-05,-4e-05,-0.00011,-0.00032,0.00011,1e-05,8e-05,6,10
28317,1e-05,-3e-05,-4e-05,-0.00011,-0.00032,0.00011,1e-05,8e-05,6,10
28318,1e-05,-3e-05,-4e-05,-0.00011,-0.00032,0.00011,1e-05,8e-05,6,10
28319,1e-05,-3e-05,-4e-05,-0.00011,-0.00032,0.00011,1e-05,8e-05,6,10
28320,1e-05,-3e-05,-4e-05,-0.00011,-0.00032,0.00011,1e-05,8e-05,6,10
28321,1e-05,-3e-05,-4e-05,-0.00011,-0.00032,0.00011,1e-05,8e-05,6,10
28322,1e-05,-3e-05,-4e-05,-0.00011,-0.00032,0.00011,1e-05,8e-05,6,10
28323,1e-05,-3e-05,-4e-05,-0.00011,-0.00032,0.00011,1e-05,8e-05,6,10
28324,1e-05,-3e-05,-4e-05,-0.00011,-0.00032,0.00011,1e-05,8e-05,6,10
28325,1e-05,-3e-05,-4e-05,-0.00011,-0.00032,0.00011,1e-05,8e-05,6,10
28326,1e-05,-3e-05,-4e-05,-0.00011,-0.00032,0.00011,1e-05,8e-05,6,10
28327,1e-05,-3e-05,-4e-05,-0.00011,-0.00032,0.00011,1e-05,8e-05,6,10
28328,1e-05,-3e-05,-4e-05,-0.00011,-0.00032,0.00011,1e-05,8e-05,6,10
28329,1e-05,-3e-05,-4e-05,-0.00011,-0.00032,0.00011,1e-05,8e-05,6,10
28330,1e-05,-3e-05,-4e-05,-0.00011,-0.00032,0.00011,1e-05,8e-05,6,10
28331,1e-05,-3e-05,-4e-05,-0.00011,-0.00032,0.00011,1e-05,8e-05,6,10
28332,1e-05,-3e-05,-4e-05,-0.00011,-0.00032,0.00011,1e-05,8e-05,6,10
28333,1e-05,-3e-05,-4e-05,-0.00011,-0.00032,0.00011,1e-05,8e-05,6,10
28334,-4e-05,-5e-05,-6e-05,-0.00024,-0.00042,-0.00092,2e-05,8e-05,6,10
28335,2e-05,-2e-05,-5e-05,2e-05,-0.00022,0.00024,0.00025,0.0006,6,10
28336,2e-05,-2e-05,-5e-05,2e-05,-0.00022,0.00024,0.00025,0.0006,6,10
28339,3e-05,-5e-05,-7e-05,-0.00021,-0.00064,-0.00054,-0.00015,0.00014,6,10
28340,3e-05,-5e-05,-7e-05,-0.00021,-0.00064,-0.00054,-0.00015,0.00014,6,10
28341,3e-05,-5e-05,-7e-05,-0.00021,-0.00064,-0.00054,-0.00015,0.00014,6,10
28342,3e-05,-5e-05,-7e-05,-0.00021,-0.00064,-0.00054,-0.00015,0.00014,6,10
28343,3e-05,-5e-05,-7e-05,-0.00021,-0.00064,-0.00054,-0.00015,0.00014,6,10
28344,3e-05,-5e-05,-7e-05,-0.00021,-0.00064,-0.00054,-0.00015,0.00014,6,10
28345,3e-05,-5e-05,-7e-05,-0.00021,-0.00064,-0.00054,-0.00015,0.00014,6,10
28346,3e-05,-5e-05,-7e-05,-0.00021,-0.00064,-0.00054,-0.00015,0.00014,6,10
28347,3e-05,-5e-05,-7e-05,-0.00021,-0.00064,-0.00054,-0.00015,0.00014,6,10
28348,3e-05,-5e-05,-7e-05,-0.00021,-0.00064,-0.00054,-0.00015,0.00014,6,10
28349,-3e-05,-4e-05,-5e-05,-8e-05,-0.00012,0.00034,0.00016,0.0001,6,10
28350,-2e-05,3e-05,5e-05,-0.0001,-0.00084,-0.00076,-0.00031,-0.00038,6,10
28351,1e-05,-1e-05,-2e-05,4e-05,0.00022,0.00043,6e-05,-0.00039,6,10
28352,1e-05,-1e-05,-2e-05,4e-05,0.00022,0.00043,6e-05,-0.00039,6,10
28353,1e-05,-1e-05,-2e-05,4e-05,0.00022,0.00043,6e-05,-0.00039,6,10
28354,1e-05,-1e-05,-2e-05,4e-05,0.00022,0.00043,6e-05,-0.00039,6,10
28355,1e-05,-1e-05,-2e-05,4e-05,0.00022,0.00043,6e-05,-0.00039,6,10
28356,1e-05,-1e-05,-2e-05,4e-05,0.00022,0.00043,6e-05,-0.00039,6,10
28357,1e-05,-1e-05,-2e-05,4e-05,0.00022,0.00043,6e-05,-0.00039,6,10
28358,1e-05,-1e-05,-2e-05,4e-05,0.00022,0.00043,6e-05,-0.00039,6,10
28359,1e-05,-1e-05,-2e-05,4e-05,0.00022,0.00043,6e-05,-0.00039,6,10
28360,1e-05,-1e-05,-2e-05,4e-05,0.00022,0.00043,6e-05,-0.00039,6,10
28361,1e-05,-1e-05,-2e-05,4e-05,0.00022,0.00043,6e-05,-0.00039,6,10
28362,1e-05,-1e-05,-2e-05,4e-05,0.00022,0.00043,6e-05,-0.00039,6,10
28363,1e-05,-1e-05,-2e-05,4e-05,0.00022,0.00043,6e-05,-0.00039,6,10
28364,1e-05,-1e-05,-2e-05,4e-05,0.00022,0.00043,6e-05,-0.00039,6,10
28365,1e-05,-1e-05,-2e-05,4e-05,0.00022,0.00043,6e-05,-0.00039,6,10
28366,1e-05,-1e-05,-2e-05,4e-05,0.00022,0.00043,6e-05,-0.00039,6,10
28367,1e-05,-1e-05,-2e-05,4e-05,0.00022,0.00043,6e-05,-0.00039,6,10
28368,1e-05,-1e-05,-2e-05,4e-05,0.00022,0.00043,6e-05,-0.00039,6,10
28369,1e-05,-1e-05,-2e-05,4e-05,0.00022,0.00043,6e-05,-0.00039,6,10
28370,1e-05,-1e-05,-2e-05,4e-05,0.00022,0.00043,6e-05,-0.00039,6,10
28371,1e-05,-1e-05,-2e-05,4e-05,0.00022,0.00043,6e-05,-0.00039,6,10
28372,2e-05,-2e-05,-2e-05,-7e-05,-0.00049,-0.0004,-0.00015,7e-05,6,10
28373,2e-05,-7e-05,-0.0001,-0.00015,-0.00013,-0.00033,-2e-05,-6e-05,6,10
28374,1e-05,1e-05,3e-05,-0.00011,-0.00026,0.00039,6e-05,9e-05,6,10
28375,1e-05,1e-05,3e-05,-0.00011,-0.00026,0.00039,6e-05,9e-05,6,10
28376,1e-05,1e-05,3e-05,-0.00011,-0.00026,0.00039,6e-05,9e-05,6,10
28377,1e-05,1e-05,3e-05,-0.00011,-0.00026,0.00039,6e-05,9e-05,6,10
28378,1e-05,1e-05,3e-05,-0.00011,-0.00026,0.00039,6e-05,9e-05,6,10
28381,1e-05,1e-05,3e-05,-0.00011,-0.00026,0.00039,6e-05,9e-05,6,10
28382,1e-05,1e-05,3e-05,-0.00011,-0.00026,0.00039,6e-05,9e-05,6,10
28383,1e-05,1e-05,3e-05,-0.00011,-0.00026,0.00039,6e-05,9e-05,6,10
28384,1e-05,1e-05,3e-05,-0.00011,-0.00026,0.00039,6e-05,9e-05,6,10
28385,1e-05,1e-05,3e-05,-0.00011,-0.00026,0.00039,6e-05,9e-05,6,10
28387,6e-05,3e-05,3e-05,0.0001,0.00048,0.00057,-0.0002,-0.00028,6,10
28389,6e-05,3e-05,3e-05,0.0001,0.00048,0.00057,-0.0002,-0.00028,6,10
28390,6e-05,3e-05,3e-05,0.0001,0.00048,0.00057,-0.0002,-0.00028,6,10
28391,6e-05,3e-05,3e-05,0.0001,0.00048,0.00057,-0.0002,-0.00028,6,10
28392,6e-05,3e-05,3e-05,0.0001,0.00048,0.00057,-0.0002,-0.00028,6,10
28393,-4e-05,2e-05,5e-05,9e-05,0.00011,-0.00019,6e-05,0.00063,6,10
28394,-4e-05,2e-05,5e-05,9e-05,0.00011,-0.00019,6e-05,0.00063,6,10
28395,-4e-05,2e-05,5e-05,9e-05,0.00011,-0.00019,6e-05,0.00063,6,10
28396,-4e-05,2e-05,5e-05,9e-05,0.00011,-0.00019,6e-05,0.00063,6,10
28397,-4e-05,2e-05,5e-05,9e-05,0.00011,-0.00019,6e-05,0.00063,6,10
28398,-4e-05,2e-05,5e-05,9e-05,0.00011,-0.00019,6e-05,0.00063,6,10
28399,-4e-05,2e-05,5e-05,9e-05,0.00011,-0.00019,6e-05,0.00063,6,10
28400,-4e-05,2e-05,5e-05,9e-05,0.00011,-0.00019,6e-05,0.00063,6,10
28401,-4e-05,2e-05,5e-05,9e-05,0.00011,-0.00019,6e-05,0.00063,6,10
28402,-4e-05,2e-05,5e-05,9e-05,0.00011,-0.00019,6e-05,0.00063,6,10
28403,-4e-05,2e-05,5e-05,9e-05,0.00011,-0.00019,6e-05,0.00063,6,10
28404,-4e-05,2e-05,5e-05,9e-05,0.00011,-0.00019,6e-05,0.00063,6,10
28405,-4e-05,2e-05,5e-05,9e-05,0.00011,-0.00019,6e-05,0.00063,6,10
28406,-4e-05,2e-05,5e-05,9e-05,0.00011,-0.00019,6e-05,0.00063,6,10
28407,-4e-05,2e-05,5e-05,9e-05,0.00011,-0.00019,6e-05,0.00063,6,10
28408,-4e-05,2e-05,5e-05,9e-05,0.00011,-0.00019,6e-05,0.00063,6,10
28409,-4e-05,2e-05,5e-05,9e-05,0.00011,-0.00019,6e-05,0.00063,6,10
28410,0,-1e-05,2e-05,8e-05,-8e-05,0.00061,0.00023,9e-05,6,10
28411,0,-1e-05,2e-05,8e-05,-8e-05,0.00061,0.00023,9e-05,6,10
28412,-4e-05,-2e-05,-2e-05,1e-05,-0.00031,-0.00064,-0.00023,-0.00052,6,10
28413,-4e-05,-2e-05,-2e-05,1e-05,-0.00031,-0.00064,-0.00023,-0.00052,6,10
28414,-4e-05,-2e-05,-2e-05,1e-05,-0.00031,-0.00064,-0.00023,-0.00052,6,10
28415,-4e-05,-2e-05,-2e-05,1e-05,-0.00031,-0.00064,-0.00023,-0.00052,6,10
28416,-4e-05,-2e-05,-2e-05,1e-05,-0.00031,-0.00064,-0.00023,-0.00052,6,10
28417,-4e-05,-2e-05,-2e-05,1e-05,-0.00031,-0.00064,-0.00023,-0.00052,6,10
28418,-4e-05,-2e-05,-2e-05,1e-05,-0.00031,-0.00064,-0.00023,-0.00052,6,10
28419,-4e-05,-2e-05,-2e-05,1e-05,-0.00031,-0.00064,-0.00023,-0.00052,6,10
28420,-4e-05,-2e-05,-2e-05,1e-05,-0.00031,-0.00064,-0.00023,-0.00052,6,10
28421,-4e-05,-2e-05,-2e-05,1e-05,-0.00031,-0.00064,-0.00023,-0.00052,6,10
28422,-4e-05,-2e-05,-2e-05,1e-05,-0.00031,-0.00064,-0.00023,-0.00052,6,10
28423,-4e-05,-2e-05,-2e-05,1e-05,-0.00031,-0.00064,-0.00023,-0.00052,6,10
28424,-4e-05,-2e-05,-2e-05,1e-05,-0.00031,-0.00064,-0.00023,-0.00052,6,10
28425,-4e-05,-2e-05,-2e-05,1e-05,-0.00031,-0.00064,-0.00023,-0.00052,6,10
28426,-4e-05,-2e-05,-2e-05,1e-05,-0.00031,-0.00064,-0.00023,-0.00052,6,10
28427,-4e-05,-2e-05,-2e-05,1e-05,-0.00031,-0.00064,-0.00023,-0.00052,6,10
28428,-4e-05,-2e-05,-2e-05,1e-05,-0.00031,-0.00064,-0.00023,-0.00052,6,10
28429,-4e-05,-2e-05,-2e-05,1e-05,-0.00031,-0.00064,-0.00023,-0.00052,6,10
28430,-4e-05,-2e-05,-2e-05,1e-05,-0.00031,-0.00064,-0.00023,-0.00052,6,10
28431,-4e-05,-2e-05,-2e-05,1e-05,-0.00031,-0.00064,-0.00023,-0.00052,6,10
28432,-4e-05,-3e-05,-4e-05,-6e-05,9e-05,-0.00061,-1e-05,-0.0001,6,10
28433,3e-05,-1e-05,4e-05,0.00013,0.00056,0.00082,0.00011,-1e-05,6,10
28434,0,-2e-05,-3e-05,-6e-05,-0.00023,-0.00083,-0.00011,4e-05,6,10
28435,0,-2e-05,-3e-05,-6e-05,-0.00023,-0.00083,-0.00011,4e-05,6,10
28436,0,-2e-05,-3e-05,-6e-05,-0.00023,-0.00083,-0.00011,4e-05,6,10
28438,0,-2e-05,-3e-05,-6e-05,-0.00023,-0.00083,-0.00011,4e-05,6,10
28439,0,-2e-05,-3e-05,-6e-05,-0.00023,-0.00083,-0.00011,4e-05,6,10
28440,0,-2e-05,-3e-05,-6e-05,-0.00023,-0.00083,-0.00011,4e-05,6,10
28441,0,-2e-05,-3e-05,-6e-05,-0.00023,-0.00083,-0.00011,4e-05,6,10
28442,0,-2e-05,-3e-05,-6e-05,-0.00023,-0.00083,-0.00011,4e-05,6,10
28443,0,-2e-05,-3e-05,-6e-05,-0.00023,-0.00083,-0.00011,4e-05,6,10
28444,0,-2e-05,-3e-05,-6e-05,-0.00023,-0.00083,-0.00011,4e-05,6,10
28445,0,-2e-05,-3e-05,-6e-05,-0.00023,-0.00083,-0.00011,4e-05,6,10
28446,0,-2e-05,-3e-05,-6e-05,-0.00023,-0.00083,-0.00011,4e-05,6,10
28447,0,-2e-05,-3e-05,-6e-05,-0.00023,-0.00083,-0.00011,4e-05,6,10
28448,0,-2e-05,-3e-05,-6e-05,-0.00023,-0.00083,-0.00011,4e-05,6,10
28449,0,-2e-05,-3e-05,-6e-05,-0.00023,-0.00083,-0.00011,4e-05,6,10
28450,0,-2e-05,-3e-05,-6e-05,-0.00023,-0.00083,-0.00011,4e-05,6,10
28451,0,-2e-05,-3e-05,-6e-05,-0.00023,-0.00083,-0.00011,4e-05,6,10
28452,0,-2e-05,-3e-05,-6e-05,-0.00023,-0.00083,-0.00011,4e-05,6,10
28453,0,-2e-05,-3e-05,-6e-05,-0.00023,-0.00083,-0.00011,4e-05,6,10
28454,0,-2e-05,-3e-05,-6e-05,-0.00023,-0.00083,-0.00011,4e-05,6,10
28455,0,-2e-05,-3e-05,-6e-05,-0.00023,-0.00083,-0.00011,4e-05,6,10
28456,3e-05,0,2e-05,0.00011,0.00013,-0.00031,3e-05,0.00042,6,10
28457,3e-05,0,2e-05,0.00011,0.00013,-0.00031,3e-05,0.00042,6,10
28458,3e-05,0,2e-05,0.00011,0.00013,-0.00031,3e-05,0.00042,6,10
28459,3e-05,0,2e-05,0.00011,0.00013,-0.00031,3e-05,0.00042,6,10
28460,-9e-05,-5e-05,-7e-05,-0.00017,-0.00042,-0.00018,-0.00021,-0.00078,6,10
28461,-4e-05,1e-05,-3e-05,-8e-05,-2e-05,6e-05,7e-05,8e-05,6,10
28462,-4e-05,1e-05,-3e-05,-8e-05,-2e-05,6e-05,7e-05,8e-05,6,10
28463,-4e-05,1e-05,-3e-05,-8e-05,-2e-05,6e-05,7e-05,8e-05,6,10
28464,-4e-05,1e-05,-3e-05,-8e-05,-2e-05,6e-05,7e-05,8e-05,6,10
28465,-4e-05,1e-05,-3e-05,-8e-05,-2e-05,6e-05,7e-05,8e-05,6,10
28466,-4e-05,1e-05,-3e-05,-8e-05,-2e-05,6e-05,7e-05,8e-05,6,10
28467,-4e-05,1e-05,-3e-05,-8e-05,-2e-05,6e-05,7e-05,8e-05,6,10
28468,-4e-05,1e-05,-3e-05,-8e-05,-2e-05,6e-05,7e-05,8e-05,6,10
28469,1e-05,0,3e-05,0.00018,0.00024,0.00047,0.00011,-0.00058,6,10
28470,3e-05,5e-05,8e-05,0.00014,0.00054,0.00041,4e-05,0.00015,6,10
28471,0,-5e-05,-5e-05,6e-05,0.00014,0.00053,-1e-05,0,6,10
28472,0,-5e-05,-5e-05,6e-05,0.00014,0.00053,-1e-05,0,6,10
28473,0,-5e-05,-5e-05,6e-05,0.00014,0.00053,-1e-05,0,6,10
28474,0,-5e-05,-5e-05,6e-05,0.00014,0.00053,-1e-05,0,6,10
28475,0,-5e-05,-5e-05,6e-05,0.00014,0.00053,-1e-05,0,6,10
28476,0,-5e-05,-5e-05,6e-05,0.00014,0.00053,-1e-05,0,6,10
28477,0,-5e-05,-5e-05,6e-05,0.00014,0.00053,-1e-05,0,6,10
28478,0,-5e-05,-5e-05,6e-05,0.00014,0.00053,-1e-05,0,6,10
28479,0,-5e-05,-5e-05,6e-05,0.00014,0.00053,-1e-05,0,6,10
28480,0,-5e-05,-5e-05,6e-05,0.00014,0.00053,-1e-05,0,6,10
28481,0,-5e-05,-5e-05,6e-05,0.00014,0.00053,-1e-05,0,6,10
28482,0,-5e-05,-5e-05,6e-05,0.00014,0.00053,-1e-05,0,6,10
28483,0,-5e-05,-5e-05,6e-05,0.00014,0.00053,-1e-05,0,6,10
28484,0,-5e-05,-5e-05,6e-05,0.00014,0.00053,-1e-05,0,6,10
28485,0,-5e-05,-5e-05,6e-05,0.00014,0.00053,-1e-05,0,6,10
28486,0,-5e-05,-5e-05,6e-05,0.00014,0.00053,-1e-05,0,6,10
28489,0,-5e-05,-5e-05,6e-05,0.00014,0.00053,-1e-05,0,6,10
28490,0,-5e-05,-5e-05,6e-05,0.00014,0.00053,-1e-05,0,6,10
28491,0,-5e-05,-5e-05,6e-05,0.00014,0.00053,-1e-05,0,6,10
28492,-5e-05,-1e-05,-3e-05,-0.0001,0.00014,-4e-05,-1e-05,-0.00018,6,10
28493,0,1e-05,5e-05,0.00012,4e-05,8e-05,2e-05,-6e-05,6,10
28494,7e-05,4e-05,6e-05,0.00026,0.00075,0.00025,-0.00023,-0.00012,6,10
28495,7e-05,4e-05,6e-05,0.00026,0.00075,0.00025,-0.00023,-0.00012,6,10
28496,7e-05,4e-05,6e-05,0.00026,0.00075,0.00025,-0.00023,-0.00012,6,10
28497,7e-05,4e-05,6e-05,0.00026,0.00075,0.00025,-0.00023,-0.00012,6,10
28498,7e-05,4e-05,6e-05,0.00026,0.00075,0.00025,-0.00023,-0.00012,6,10
28499,7e-05,4e-05,6e-05,0.00026,0.00075,0.00025,-0.00023,-0.00012,6,10
28500,7e-05,4e-05,6e-05,0.00026,0.00075,0.00025,-0.00023,-0.00012,6,10
28501,7e-05,4e-05,6e-05,0.00026,0.00075,0.00025,-0.00023,-0.00012,6,10
28502,7e-05,4e-05,6e-05,0.00026,0.00075,0.00025,-0.00023,-0.00012,6,10
28503,7e-05,4e-05,6e-05,0.00026,0.00075,0.00025,-0.00023,-0.00012,6,10
28504,7e-05,4e-05,6e-05,0.00026,0.00075,0.00025,-0.00023,-0.00012,6,10
28505,7e-05,4e-05,6e-05,0.00026,0.00075,0.00025,-0.00023,-0.00012,6,10
28506,-3e-05,-2e-05,1e-05,-4e-05,-0.00015,5e-05,-0.00028,-0.00067,6,10
28507,-3e-05,-2e-05,1e-05,-4e-05,-0.00015,5e-05,-0.00028,-0.00067,6,10
28508,-3e-05,-2e-05,1e-05,-4e-05,-0.00015,5e-05,-0.00028,-0.00067,6,10
28509,-3e-05,-2e-05,1e-05,-4e-05,-0.00015,5e-05,-0.00028,-0.00067,6,10
28510,-3e-05,-2e-05,1e-05,-4e-05,-0.00015,5e-05,-0.00028,-0.00067,6,10
28511,-3e-05,-2e-05,1e-05,-4e-05,-0.00015,5e-05,-0.00028,-0.00067,6,10
28512,-3e-05,-2e-05,1e-05,-4e-05,-0.00015,5e-05,-0.00028,-0.00067,6,10
28513,-6e-05,-8e-05,-0.00014,-0.00022,-0.00062,-0.00017,3e-05,5e-05,6,10
28514,-6e-05,-8e-05,-0.00014,-0.00022,-0.00062,-0.00017,3e-05,5e-05,6,10
28515,-6e-05,-8e-05,-0.00014,-0.00022,-0.00062,-0.00017,3e-05,5e-05,6,10
28516,-6e-05,-8e-05,-0.00014,-0.00022,-0.00062,-0.00017,3e-05,5e-05,6,10
28517,-6e-05,-8e-05,-0.00014,-0.00022,-0.00062,-0.00017,3e-05,5e-05,6,10
28518,-6e-05,-8e-05,-0.00014,-0.00022,-0.00062,-0.00017,3e-05,5e-05,6,10
28519,-6e-05,-8e-05,-0.00014,-0.00022,-0.00062,-0.00017,3e-05,5e-05,6,10
28520,-6e-05,-8e-05,-0.00014,-0.00022,-0.00062,-0.00017,3e-05,5e-05,6,10
28521,-6e-05,-8e-05,-0.00014,-0.00022,-0.00062,-0.00017,3e-05,5e-05,6,10
28522,-6e-05,-8e-05,-0.00014,-0.00022,-0.00062,-0.00017,3e-05,5e-05,6,10
28523,-6e-05,-8e-05,-0.00014,-0.00022,-0.00062,-0.00017,3e-05,5e-05,6,10
28524,-6e-05,-8e-05,-0.00014,-0.00022,-0.00062,-0.00017,3e-05,5e-05,6,10
28525,-6e-05,-8e-05,-0.00014,-0.00022,-0.00062,-0.00017,3e-05,5e-05,6,10
28526,-6e-05,-8e-05,-0.00014,-0.00022,-0.00062,-0.00017,3e-05,5e-05,6,10
28527,-6e-05,-8e-05,-0.00014,-0.00022,-0.00062,-0.00017,3e-05,5e-05,6,10
28528,-6e-05,-8e-05,-0.00014,-0.00022,-0.00062,-0.00017,3e-05,5e-05,6,10
28529,-6e-05,-8e-05,-0.00014,-0.00022,-0.00062,-0.00017,3e-05,5e-05,6,10
28530,-5e-05,2e-05,2e-05,-2e-05,0.00019,0.00028,0.00025,-0.00058,6,10
28531,-3e-05,-6e-05,-3e-05,-6e-05,0.00019,0.00043,8e-05,2e-05,6,10
28532,-3e-05,-6e-05,-3e-05,-6e-05,0.00019,0.00043,8e-05,2e-05,6,10
28533,-3e-05,-6e-05,-3e-05,-6e-05,0.00019,0.00043,8e-05,2e-05,6,10
28534,-3e-05,-6e-05,-3e-05,-6e-05,0.00019,0.00043,8e-05,2e-05,6,10
28535,-3e-05,-6e-05,-3e-05,-6e-05,0.00019,0.00043,8e-05,2e-05,6,10
28536,-3e-05,-6e-05,-3e-05,-6e-05,0.00019,0.00043,8e-05,2e-05,6,10
28538,-3e-05,-6e-05,-3e-05,-6e-05,0.00019,0.00043,8e-05,2e-05,6,10
28539,-3e-05,-6e-05,-3e-05,-6e-05,0.00019,0.00043,8e-05,2e-05,6,10
28540,-3e-05,-6e-05,-3e-05,-6e-05,0.00019,0.00043,8e-05,2e-05,6,10
28541,-3e-05,-6e-05,-3e-05,-6e-05,0.00019,0.00043,8e-05,2e-05,6,10
28542,-3e-05,-6e-05,-3e-05,-6e-05,0.00019,0.00043,8e-05,2e-05,6,10
28543,-3e-05,-6e-05,-3e-05,-6e-05,0.00019,0.00043,8e-05,2e-05,6,10
28544,-3e-05,-6e-05,-3e-05,-6e-05,0.00019,0.00043,8e-05,2e-05,6,10
28545,-3e-05,-6e-05,-3e-05,-6e-05,0.00019,0.00043,8e-05,2e-05,6,10
28546,-3e-05,-6e-05,-3e-05,-6e-05,0.00019,0.00043,8e-05,2e-05,6,10
28547,-3e-05,-6e-05,-3e-05,-6e-05,0.00019,0.00043,8e-05,2e-05,6,10
28548,-3e-05,-6e-05,-3e-05,-6e-05,0.00019,0.00043,8e-05,2e-05,6,10
28549,-3e-05,-6e-05,-3e-05,-6e-05,0.00019,0.00043,8e-05,2e-05,6,10
28550,-3e-05,-6e-05,-3e-05,-6e-05,0.00019,0.00043,8e-05,2e-05,6,10
28551,-3e-05,-6e-05,-3e-05,-6e-05,0.00019,0.00043,8e-05,2e-05,6,10
28552,-3e-05,-6e-05,-3e-05,-6e-05,0.00019,0.00043,8e-05,2e-05,6,10
28553,5e-05,-1e-05,-4e-05,1e-05,0.00047,-0.00021,-9e-05,-0.00061,6,10
28554,-1e-05,1e-05,4e-05,5e-05,-0.00019,0.00019,7e-05,-0.00033,6,10
28555,-1e-05,1e-05,4e-05,5e-05,-0.00019,0.00019,7e-05,-0.00033,6,10
28556,-1e-05,1e-05,4e-05,5e-05,-0.00019,0.00019,7e-05,-0.00033,6,10
28557,-1e-05,1e-05,4e-05,5e-05,-0.00019,0.00019,7e-05,-0.00033,6,10
28558,-1e-05,1e-05,4e-05,5e-05,-0.00019,0.00019,7e-05,-0.00033,6,10
28559,-1e-05,1e-05,4e-05,5e-05,-0.00019,0.00019,7e-05,-0.00033,6,10
28560,-1e-05,1e-05,4e-05,5e-05,-0.00019,0.00019,7e-05,-0.00033,6,10
28561,-1e-05,1e-05,4e-05,5e-05,-0.00019,0.00019,7e-05,-0.00033,6,10
28562,-1e-05,1e-05,4e-05,5e-05,-0.00019,0.00019,7e-05,-0.00033,6,10
28563,-1e-05,1e-05,4e-05,5e-05,-0.00019,0.00019,7e-05,-0.00033,6,10
28564,-1e-05,1e-05,4e-05,5e-05,-0.00019,0.00019,7e-05,-0.00033,6,10
28565,-1e-05,1e-05,4e-05,5e-05,-0.00019,0.00019,7e-05,-0.00033,6,10
28566,3e-05,0,-3e-05,-1e-05,-6e-05,0.0004,9e-05,0.00025,6,10
28567,3e-05,0,-3e-05,-1e-05,-6e-05,0.0004,9e-05,0.00025,6,10
28568,3e-05,0,-3e-05,-1e-05,-6e-05,0.0004,9e-05,0.00025,6,10
28569,3e-05,0,-3e-05,-1e-05,-6e-05,0.0004,9e-05,0.00025,6,10
28570,3e-05,0,-3e-05,-1e-05,-6e-05,0.0004,9e-05,0.00025,6,10
28571,3e-05,0,-3e-05,-1e-05,-6e-05,0.0004,9e-05,0.00025,6,10
28572,3e-05,0,-3e-05,-1e-05,-6e-05,0.0004,9e-05,0.00025,6,10
28573,0,3e-05,5e-05,0,-0.0003,-0.00074,-0.00023,-0.00015,6,10
28574,0,3e-05,5e-05,0,-0.0003,-0.00074,-0.00023,-0.00015,6,10
28575,0,3e-05,5e-05,0,-0.0003,-0.00074,-0.00023,-0.00015,6,10
28576,0,3e-05,5e-05,0,-0.0003,-0.00074,-0.00023,-0.00015,6,10
28577,0,3e-05,5e-05,0,-0.0003,-0.00074,-0.00023,-0.00015,6,10
28578,0,3e-05,5e-05,0,-0.0003,-0.00074,-0.00023,-0.00015,6,10
28579,0,3e-05,5e-05,0,-0.0003,-0.00074,-0.00023,-0.00015,6,10
28580,0,3e-05,5e-05,0,-0.0003,-0.00074,-0.00023,-0.00015,6,10
28581,0,3e-05,5e-05,0,-0.0003,-0.00074,-0.00023,-0.00015,6,10
28582,0,3e-05,5e-05,0,-0.0003,-0.00074,-0.00023,-0.00015,6,10
28583,0,3e-05,5e-05,0,-0.0003,-0.00074,-0.00023,-0.00015,6,10
28584,0,3e-05,5e-05,0,-0.0003,-0.00074,-0.00023,-0.00015,6,10
28585,0,3e-05,5e-05,0,-0.0003,-0.00074,-0.00023,-0.00015,6,10
28586,0,3e-05,5e-05,0,-0.0003,-0.00074,-0.00023,-0.00015,6,10
28588,0,3e-05,5e-05,0,-0.0003,-0.00074,-0.00023,-0.00015,6,10
28589,-3e-05,0,1e-05,-4e-05,-0.00079,-0.00047,-2e-05,0.00023,6,10
28590,-3e-05,0,1e-05,-4e-05,-0.00079,-0.00047,-2e-05,0.00023,6,10
28591,2e-05,0,0,4e-05,0.00037,0.00011,0.00011,-4e-05,6,10
28592,2e-05,0,0,4e-05,0.00037,0.00011,0.00011,-4e-05,6,10
28593,2e-05,0,0,4e-05,0.00037,0.00011,0.00011,-4e-05,6,10
28594,2e-05,0,0,4e-05,0.00037,0.00011,0.00011,-4e-05,6,10
28595,2e-05,0,0,4e-05,0.00037,0.00011,0.00011,-4e-05,6,10
28596,2e-05,0,0,4e-05,0.00037,0.00011,0.00011,-4e-05,6,10
28597,2e-05,0,0,4e-05,0.00037,0.00011,0.00011,-4e-05,6,10
28598,2e-05,0,0,4e-05,0.00037,0.00011,0.00011,-4e-05,6,10
28599,2e-05,0,0,4e-05,0.00037,0.00011,0.00011,-4e-05,6,10
28600,2e-05,0,0,4e-05,0.00037,0.00011,0.00011,-4e-05,6,10
28601,2e-05,0,0,4e-05,0.00037,0.00011,0.00011,-4e-05,6,10
28602,2e-05,0,0,4e-05,0.00037,0.00011,0.00011,-4e-05,6,10
28603,2e-05,0,0,4e-05,0.00037,0.00011,0.00011,-4e-05,6,10
28604,2e-05,0,0,4e-05,0.00037,0.00011,0.00011,-4e-05,6,10
28605,2e-05,0,0,4e-05,0.00037,0.00011,0.00011,-4e-05,6,10
28606,2e-05,0,0,4e-05,0.00037,0.00011,0.00011,-4e-05,6,10
28607,2e-05,0,0,4e-05,0.00037,0.00011,0.00011,-4e-05,6,10
28608,2e-05,0,0,4e-05,0.00037,0.00011,0.00011,-4e-05,6,10
28609,2e-05,0,0,4e-05,0.00037,0.00011,0.00011,-4e-05,6,10
28610,2e-05,0,0,4e-05,0.00037,0.00011,0.00011,-4e-05,6,10
28611,2e-05,0,0,4e-05,0.00037,0.00011,0.00011,-4e-05,6,10
28612,-1e-05,-5e-05,-9e-05,-0.00011,-0.00016,0.00049,7e-05,0.00047,6,10
28613,-1e-05,-5e-05,-9e-05,-0.00011,-0.00016,0.00049,7e-05,0.00047,6,10
28614,-1e-05,-5e-05,-9e-05,-0.00011,-0.00016,0.00049,7e-05,0.00047,6,10
28615,-1e-05,-5e-05,-9e-05,-0.00011,-0.00016,0.00049,7e-05,0.00047,6,10
28616,-1e-05,-5e-05,-9e-05,-0.00011,-0.00016,0.00049,7e-05,0.00047,6,10
28617,-1e-05,-5e-05,-9e-05,-0.00011,-0.00016,0.00049,7e-05,0.00047,6,10
28618,-1e-05,-5e-05,-9e-05,-0.00011,-0.00016,0.00049,7e-05,0.00047,6,10
28619,-3e-05,0,0,-2e-05,0.00038,0.00032,-5e-05,-0.0008,6,10
28620,-3e-05,0,0,-2e-05,0.00038,0.00032,-5e-05,-0.0008,6,10
28621,-3e-05,0,0,-2e-05,0.00038,0.00032,-5e-05,-0.0008,6,10
28622,-3e-05,0,0,-2e-05,0.00038,0.00032,-5e-05,-0.0008,6,10
28623,-3e-05,0,0,-2e-05,0.00038,0.00032,-5e-05,-0.0008,6,10
28624,-3e-05,0,0,-2e-05,0.00038,0.00032,-5e-05,-0.0008,6,10
28625,-2e-05,-1e-05,3e-05,0.0002,0.00032,-0.00073,0,-9e-05,6,10
28626,0,0,1e-05,3e-05,4e-05,8e-05,-0.00011,0.00042,6,10
28627,0,0,1e-05,3e-05,4e-05,8e-05,-0.00011,0.00042,6,10
28628,0,0,1e-05,3e-05,4e-05,8e-05,-0.00011,0.00042,6,10
28629,0,0,1e-05,3e-05,4e-05,8e-05,-0.00011,0.00042,6,10
28630,0,0,1e-05,3e-05,4e-05,8e-05,-0.00011,0.00042,6,10
28631,0,0,1e-05,3e-05,4e-05,8e-05,-0.00011,0.00042,6,10
28632,0,0,1e-05,3e-05,4e-05,8e-05,-0.00011,0.00042,6,10
28633,0,0,1e-05,3e-05,4e-05,8e-05,-0.00011,0.00042,6,10
28634,0,0,1e-05,3e-05,4e-05,8e-05,-0.00011,0.00042,6,10
28635,-1e-05,-4e-05,-6e-05,-6e-05,3e-05,-0.00016,5e-05,0.00011,6,10
28636,-1e-05,-4e-05,-6e-05,-6e-05,3e-05,-0.00016,5e-05,0.00011,6,10
28638,-1e-05,-4e-05,-6e-05,-6e-05,3e-05,-0.00016,5e-05,0.00011,6,10
28639,-1e-05,-4e-05,-6e-05,-6e-05,3e-05,-0.00016,5e-05,0.00011,6,10
28640,-1e-05,-4e-05,-6e-05,-6e-05,3e-05,-0.00016,5e-05,0.00011,6,10
28641,-1e-05,-4e-05,-6e-05,-6e-05,3e-05,-0.00016,5e-05,0.00011,6,10
28642,-1e-05,-4e-05,-6e-05,-6e-05,3e-05,-0.00016,5e-05,0.00011,6,10
28643,-1e-05,-4e-05,-6e-05,-6e-05,3e-05,-0.00016,5e-05,0.00011,6,10
28644,-1e-05,-4e-05,-6e-05,-6e-05,3e-05,-0.00016,5e-05,0.00011,6,10
28645,-1e-05,-4e-05,-6e-05,-6e-05,3e-05,-0.00016,5e-05,0.00011,6,10
28646,-1e-05,-4e-05,-6e-05,-6e-05,3e-05,-0.00016,5e-05,0.00011,6,10
28647,-1e-05,-4e-05,-6e-05,-6e-05,3e-05,-0.00016,5e-05,0.00011,6,10
28648,-1e-05,-4e-05,-6e-05,-6e-05,3e-05,-0.00016,5e-05,0.00011,6,10
28649,-4e-05,-5e-05,-4e-05,-5e-05,-0.00036,-8e-05,0,-0.00011,6,10
28650,-4e-05,-5e-05,-4e-05,-5e-05,-0.00036,-8e-05,0,-0.00011,6,10
28651,1e-05,4e-05,5e-05,0.0002,0.00084,5e-05,-7e-05,-0.00039,6,10
28652,1e-05,4e-05,5e-05,0.0002,0.00084,5e-05,-7e-05,-0.00039,6,10
28653,1e-05,4e-05,5e-05,0.0002,0.00084,5e-05,-7e-05,-0.00039,6,10
28654,1e-05,4e-05,5e-05,0.0002,0.00084,5e-05,-7e-05,-0.00039,6,10
28655,1e-05,4e-05,5e-05,0.0002,0.00084,5e-05,-7e-05,-0.00039,6,10
28656,1e-05,4e-05,5e-05,0.0002,0.00084,5e-05,-7e-05,-0.00039,6,10
28657,1e-05,4e-05,5e-05,0.0002,0.00084,5e-05,-7e-05,-0.00039,6,10
28658,1e-05,4e-05,5e-05,0.0002,0.00084,5e-05,-7e-05,-0.00039,6,10
28659,1e-05,4e-05,5e-05,0.0002,0.00084,5e-05,-7e-05,-0.00039,6,10
28660,1e-05,4e-05,5e-05,0.0002,0.00084,5e-05,-7e-05,-0.00039,6,10
28661,1e-05,4e-05,5e-05,0.0002,0.00084,5e-05,-7e-05,-0.00039,6,10
28662,1e-05,4e-05,5e-05,0.0002,0.00084,5e-05,-7e-05,-0.00039,6,10
28663,1e-05,4e-05,5e-05,0.0002,0.00084,5e-05,-7e-05,-0.00039,6,10
28664,1e-05,4e-05,5e-05,0.0002,0.00084,5e-05,-7e-05,-0.00039,6,10
28665,1e-05,4e-05,5e-05,0.0002,0.00084,5e-05,-7e-05,-0.00039,6,10
28666,1e-05,4e-05,5e-05,0.0002,0.00084,5e-05,-7e-05,-0.00039,6,10
28667,1e-05,4e-05,5e-05,0.0002,0.00084,5e-05,-7e-05,-0.00039,6,10
28668,1e-05,4e-05,5e-05,0.0002,0.00084,5e-05,-7e-05,-0.00039,6,10
28669,1e-05,4e-05,5e-05,0.0002,0.00084,5e-05,-7e-05,-0.00039,6,10
28670,1e-05,4e-05,5e-05,0.0002,0.00084,5e-05,-7e-05,-0.00039,6,10
28671,1e-05,4e-05,5e-05,0.0002,0.00084,5e-05,-7e-05,-0.00039,6,10
28672,-6e-05,-3e-05,-4e-05,-2e-05,0.00028,0.00015,9e-05,0.00012,6,10
28673,0,0,0,-8e-05,-0.0003,-0.00028,-6e-05,2e-05,6,10
28674,-8e-05,-0.00014,-0.00014,-0.00018,-0.00043,2e-05,0.0001,0.00021,6,10
28675,-8e-05,-0.00014,-0.00014,-0.00018,-0.00043,2e-05,0.0001,0.00021,6,10
28676,-8e-05,-0.00014,-0.00014,-0.00018,-0.00043,2e-05,0.0001,0.00021,6,10
28677,-8e-05,-0.00014,-0.00014,-0.00018,-0.00043,2e-05,0.0001,0.00021,6,10
28678,-8e-05,-0.00014,-0.00014,-0.00018,-0.00043,2e-05,0.0001,0.00021,6,10
28679,-8e-05,-0.00014,-0.00014,-0.00018,-0.00043,2e-05,0.0001,0.00021,6,10
28680,-8e-05,-0.00014,-0.00014,-0.00018,-0.00043,2e-05,0.0001,0.00021,6,10
28681,-8e-05,-0.00014,-0.00014,-0.00018,-0.00043,2e-05,0.0001,0.00021,6,10
28682,-8e-05,-0.00014,-0.00014,-0.00018,-0.00043,2e-05,0.0001,0.00021,6,10
28683,-8e-05,-0.00014,-0.00014,-0.00018,-0.00043,2e-05,0.0001,0.00021,6,10
28684,-8e-05,-0.00014,-0.00014,-0.00018,-0.00043,2e-05,0.0001,0.00021,6,10
28685,-8e-05,-0.00014,-0.00014,-0.00018,-0.00043,2e-05,0.0001,0.00021,6,10
28687,3e-05,7e-05,7e-05,5e-05,-0.0002,-1e-05,-0.00011,-0.00027,6,10
28689,3e-05,7e-05,7e-05,5e-05,-0.0002,-1e-05,-0.00011,-0.00027,6,10
28690,3e-05,7e-05,7e-05,5e-05,-0.0002,-1e-05,-0.00011,-0.00027,6,10
28691,3e-05,7e-05,7e-05,5e-05,-0.0002,-1e-05,-0.00011,-0.00027,6,10
28692,3e-05,7e-05,7e-05,5e-05,-0.0002,-1e-05,-0.00011,-0.00027,6,10
28693,3e-05,7e-05,7e-05,5e-05,-0.0002,-1e-05,-0.00011,-0.00027,6,10
28694,3e-05,7e-05,7e-05,5e-05,-0.0002,-1e-05,-0.00011,-0.00027,6,10
28695,3e-05,7e-05,7e-05,5e-05,-0.0002,-1e-05,-0.00011,-0.00027,6,10
28696,3e-05,7e-05,7e-05,5e-05,-0.0002,-1e-05,-0.00011,-0.00027,6,10
28697,3e-05,7e-05,7e-05,5e-05,-0.0002,-1e-05,-0.00011,-0.00027,6,10
28698,3e-05,7e-05,7e-05,5e-05,-0.0002,-1e-05,-0.00011,-0.00027,6,10
28699,3e-05,7e-05,7e-05,5e-05,-0.0002,-1e-05,-0.00011,-0.00027,6,10
28700,3e-05,7e-05,7e-05,5e-05,-0.0002,-1e-05,-0.00011,-0.00027,6,10
28701,3e-05,7e-05,7e-05,5e-05,-0.0002,-1e-05,-0.00011,-0.00027,6,10
28702,-0.00018,-6e-05,-7e-05,-0.00014,-0.00036,-0.00027,-8e-05,-0.00032,6,10
28703,-0.00018,-6e-05,-7e-05,-0.00014,-0.00036,-0.00027,-8e-05,-0.00032,6,10
28704,-0.00018,-6e-05,-7e-05,-0.00014,-0.00036,-0.00027,-8e-05,-0.00032,6,10
28705,-0.00018,-6e-05,-7e-05,-0.00014,-0.00036,-0.00027,-8e-05,-0.00032,6,10
28706,-0.00018,-6e-05,-7e-05,-0.00014,-0.00036,-0.00027,-8e-05,-0.00032,6,10
28707,-0.00018,-6e-05,-7e-05,-0.00014,-0.00036,-0.00027,-8e-05,-0.00032,6,10
28708,-0.00018,-6e-05,-7e-05,-0.00014,-0.00036,-0.00027,-8e-05,-0.00032,6,10
28709,-4e-05,-7e-05,-6e-05,-0.00012,-0.00017,0.00029,0.00013,0.00013,6,10
28710,-4e-05,-7e-05,-6e-05,-0.00012,-0.00017,0.00029,0.00013,0.00013,6,10
28711,7e-05,3e-05,2e-05,4e-05,-7e-05,0.00078,0.00023,0.00051,6,10
28712,7e-05,3e-05,2e-05,4e-05,-7e-05,0.00078,0.00023,0.00051,6,10
28713,7e-05,3e-05,2e-05,4e-05,-7e-05,0.00078,0.00023,0.00051,6,10
28714,7e-05,3e-05,2e-05,4e-05,-7e-05,0.00078,0.00023,0.00051,6,10
28715,7e-05,3e-05,2e-05,4e-05,-7e-05,0.00078,0.00023,0.00051,6,10
28716,7e-05,3e-05,2e-05,4e-05,-7e-05,0.00078,0.00023,0.00051,6,10
28717,7e-05,3e-05,2e-05,4e-05,-7e-05,0.00078,0.00023,0.00051,6,10
28718,7e-05,3e-05,2e-05,4e-05,-7e-05,0.00078,0.00023,0.00051,6,10
28719,7e-05,3e-05,2e-05,4e-05,-7e-05,0.00078,0.00023,0.00051,6,10
28720,7e-05,3e-05,2e-05,4e-05,-7e-05,0.00078,0.00023,0.00051,6,10
28721,7e-05,3e-05,2e-05,4e-05,-7e-05,0.00078,0.00023,0.00051,6,10
28722,7e-05,3e-05,2e-05,4e-05,-7e-05,0.00078,0.00023,0.00051,6,10
28723,7e-05,3e-05,2e-05,4e-05,-7e-05,0.00078,0.00023,0.00051,6,10
28724,7e-05,3e-05,2e-05,4e-05,-7e-05,0.00078,0.00023,0.00051,6,10
28725,7e-05,3e-05,2e-05,4e-05,-7e-05,0.00078,0.00023,0.00051,6,10
28726,7e-05,3e-05,2e-05,4e-05,-7e-05,0.00078,0.00023,0.00051,6,10
28727,7e-05,3e-05,2e-05,4e-05,-7e-05,0.00078,0.00023,0.00051,6,10
28728,7e-05,3e-05,2e-05,4e-05,-7e-05,0.00078,0.00023,0.00051,6,10
28729,7e-05,3e-05,2e-05,4e-05,-7e-05,0.00078,0.00023,0.00051,6,10
28730,7e-05,3e-05,2e-05,4e-05,-7e-05,0.00078,0.00023,0.00051,6,10
28731,7e-05,3e-05,2e-05,4e-05,-7e-05,0.00078,0.00023,0.00051,6,10
28732,7e-05,3e-05,2e-05,4e-05,-7e-05,0.00078,0.00023,0.00051,6,10
28733,7e-05,3e-05,2e-05,4e-05,-7e-05,0.00078,0.00023,0.00051,6,10
28734,7e-05,3e-05,2e-05,4e-05,-7e-05,0.00078,0.00023,0.00051,6,10
28735,7e-05,3e-05,2e-05,4e-05,-7e-05,0.00078,0.00023,0.00051,6,10
28737,7e-05,3e-05,2e-05,4e-05,-7e-05,0.00078,0.00023,0.00051,6,10
28739,7e-05,3e-05,2e-05,4e-05,-7e-05,0.00078,0.00023,0.00051,6,10
28740,7e-05,3e-05,2e-05,4e-05,-7e-05,0.00078,0.00023,0.00051,6,10
28741,7e-05,3e-05,2e-05,4e-05,-7e-05,0.00078,0.00023,0.00051,6,10
28742,7e-05,3e-05,2e-05,4e-05,-7e-05,0.00078,0.00023,0.00051,6,10
28743,7e-05,3e-05,2e-05,4e-05,-7e-05,0.00078,0.00023,0.00051,6,10
28744,7e-05,3e-05,2e-05,4e-05,-7e-05,0.00078,0.00023,0.00051,6,10
28745,7e-05,3e-05,2e-05,4e-05,-7e-05,0.00078,0.00023,0.00051,6,10
28746,7e-05,3e-05,2e-05,4e-05,-7e-05,0.00078,0.00023,0.00051,6,10
28747,7e-05,3e-05,2e-05,4e-05,-7e-05,0.00078,0.00023,0.00051,6,10
28748,-6e-05,-4e-05,-5e-05,-1e-05,0.00035,-0.00018,-0.00011,-0.0003,6,10
28749,0,3e-05,3e-05,7e-05,-1e-05,-0.00068,-0.00011,-0.00037,6,10
28750,0,-3e-05,-4e-05,-1e-05,0.00044,5e-05,6e-05,0.00047,6,10
28751,0,-3e-05,-4e-05,-1e-05,0.00044,5e-05,6e-05,0.00047,6,10
28752,0,-3e-05,-4e-05,-1e-05,0.00044,5e-05,6e-05,0.00047,6,10
28753,0,-3e-05,-4e-05,-1e-05,0.00044,5e-05,6e-05,0.00047,6,10
28754,5e-05,5e-05,5e-05,7e-05,-2e-05,0.00041,0.0001,1e-05,6,10
28755,5e-05,5e-05,5e-05,7e-05,-2e-05,0.00041,0.0001,1e-05,6,10
28756,5e-05,5e-05,5e-05,7e-05,-2e-05,0.00041,0.0001,1e-05,6,10
28757,5e-05,5e-05,5e-05,7e-05,-2e-05,0.00041,0.0001,1e-05,6,10
28758,5e-05,5e-05,5e-05,7e-05,-2e-05,0.00041,0.0001,1e-05,6,10
28759,5e-05,5e-05,5e-05,7e-05,-2e-05,0.00041,0.0001,1e-05,6,10
28760,5e-05,5e-05,5e-05,7e-05,-2e-05,0.00041,0.0001,1e-05,6,10
28761,5e-05,5e-05,5e-05,7e-05,-2e-05,0.00041,0.0001,1e-05,6,10
28762,5e-05,5e-05,5e-05,7e-05,-2e-05,0.00041,0.0001,1e-05,6,10
28763,5e-05,5e-05,5e-05,7e-05,-2e-05,0.00041,0.0001,1e-05,6,10
28764,5e-05,5e-05,5e-05,7e-05,-2e-05,0.00041,0.0001,1e-05,6,10
28765,5e-05,5e-05,5e-05,7e-05,-2e-05,0.00041,0.0001,1e-05,6,10
28766,5e-05,5e-05,5e-05,7e-05,-2e-05,0.00041,0.0001,1e-05,6,10
28767,5e-05,5e-05,5e-05,7e-05,-2e-05,0.00041,0.0001,1e-05,6,10
28768,5e-05,5e-05,5e-05,7e-05,-2e-05,0.00041,0.0001,1e-05,6,10
28769,5e-05,5e-05,5e-05,7e-05,-2e-05,0.00041,0.0001,1e-05,6,10
28770,4e-05,4e-05,3e-05,7e-05,0.00029,4e-05,5e-05,-0.00012,6,10
28771,3e-05,-2e-05,-8e-05,-2e-05,0.00016,-0.00034,-0.00029,0.00037,6,10
28772,3e-05,-2e-05,-8e-05,-2e-05,0.00016,-0.00034,-0.00029,0.00037,6,10
28773,3e-05,-2e-05,-8e-05,-2e-05,0.00016,-0.00034,-0.00029,0.00037,6,10
28774,3e-05,-2e-05,-8e-05,-2e-05,0.00016,-0.00034,-0.00029,0.00037,6,10
28775,3e-05,-2e-05,-8e-05,-2e-05,0.00016,-0.00034,-0.00029,0.00037,6,10
28776,3e-05,-2e-05,-8e-05,-2e-05,0.00016,-0.00034,-0.00029,0.00037,6,10
28777,3e-05,-2e-05,-8e-05,-2e-05,0.00016,-0.00034,-0.00029,0.00037,6,10
28778,3e-05,-2e-05,-8e-05,-2e-05,0.00016,-0.00034,-0.00029,0.00037,6,10
28779,3e-05,-2e-05,-8e-05,-2e-05,0.00016,-0.00034,-0.00029,0.00037,6,10
28780,3e-05,-2e-05,-8e-05,-2e-05,0.00016,-0.00034,-0.00029,0.00037,6,10
28781,3e-05,-2e-05,-8e-05,-2e-05,0.00016,-0.00034,-0.00029,0.00037,6,10
28782,3e-05,-2e-05,-8e-05,-2e-05,0.00016,-0.00034,-0.00029,0.00037,6,10
28783,3e-05,-2e-05,-8e-05,-2e-05,0.00016,-0.00034,-0.00029,0.00037,6,10
28784,3e-05,-2e-05,-8e-05,-2e-05,0.00016,-0.00034,-0.00029,0.00037,6,10
28785,3e-05,-2e-05,-8e-05,-2e-05,0.00016,-0.00034,-0.00029,0.00037,6,10
28787,3e-05,-2e-05,-8e-05,-2e-05,0.00016,-0.00034,-0.00029,0.00037,6,10
28789,3e-05,-2e-05,-8e-05,-2e-05,0.00016,-0.00034,-0.00029,0.00037,6,10
28790,3e-05,-2e-05,-8e-05,-2e-05,0.00016,-0.00034,-0.00029,0.00037,6,10
28791,3e-05,-2e-05,-8e-05,-2e-05,0.00016,-0.00034,-0.00029,0.00037,6,10
28792,2e-05,0,6e-05,0.00013,-6e-05,-3e-05,5e-05,0.00015,6,10
28793,2e-05,0,6e-05,0.00013,-6e-05,-3e-05,5e-05,0.00015,6,10
28794,-2e-05,1e-05,-1e-05,-9e-05,-0.00028,-0.00038,-3e-05,6e-05,6,10
28795,-2e-05,1e-05,-1e-05,-9e-05,-0.00028,-0.00038,-3e-05,6e-05,6,10
28796,-2e-05,1e-05,-1e-05,-9e-05,-0.00028,-0.00038,-3e-05,6e-05,6,10
28797,-2e-05,1e-05,-1e-05,-9e-05,-0.00028,-0.00038,-3e-05,6e-05,6,10
28798,-2e-05,1e-05,-1e-05,-9e-05,-0.00028,-0.00038,-3e-05,6e-05,6,10
28799,-2e-05,1e-05,-1e-05,-9e-05,-0.00028,-0.00038,-3e-05,6e-05,6,10
28800,-2e-05,1e-05,-1e-05,-9e-05,-0.00028,-0.00038,-3e-05,6e-05,6,10
28801,-2e-05,1e-05,-1e-05,-9e-05,-0.00028,-0.00038,-3e-05,6e-05,6,10
28802,-2e-05,1e-05,-1e-05,-9e-05,-0.00028,-0.00038,-3e-05,6e-05,6,10
28803,-2e-05,1e-05,-1e-05,-9e-05,-0.00028,-0.00038,-3e-05,6e-05,6,10
28804,-2e-05,1e-05,-1e-05,-9e-05,-0.00028,-0.00038,-3e-05,6e-05,6,10
28805,-2e-05,1e-05,-1e-05,-9e-05,-0.00028,-0.00038,-3e-05,6e-05,6,10
28806,-4e-05,-1e-05,0,4e-05,3e-05,-0.00018,6e-05,-0.0001,6,10
28807,-4e-05,-1e-05,0,4e-05,3e-05,-0.00018,6e-05,-0.0001,6,10
28808,-4e-05,-1e-05,0,4e-05,3e-05,-0.00018,6e-05,-0.0001,6,10
28809,-4e-05,-1e-05,0,4e-05,3e-05,-0.00018,6e-05,-0.0001,6,10
28810,-4e-05,-1e-05,0,4e-05,3e-05,-0.00018,6e-05,-0.0001,6,10
28811,-4e-05,-1e-05,0,4e-05,3e-05,-0.00018,6e-05,-0.0001,6,10
28812,-4e-05,-1e-05,0,4e-05,3e-05,-0.00018,6e-05,-0.0001,6,10
28813,-4e-05,-1e-05,0,4e-05,3e-05,-0.00018,6e-05,-0.0001,6,10
28814,-4e-05,-1e-05,0,4e-05,3e-05,-0.00018,6e-05,-0.0001,6,10
28815,-4e-05,-1e-05,0,4e-05,3e-05,-0.00018,6e-05,-0.0001,6,10
28816,-4e-05,-1e-05,0,4e-05,3e-05,-0.00018,6e-05,-0.0001,6,10
28817,-4e-05,-1e-05,0,4e-05,3e-05,-0.00018,6e-05,-0.0001,6,10
28818,-4e-05,-1e-05,0,4e-05,3e-05,-0.00018,6e-05,-0.0001,6,10
28819,-4e-05,-1e-05,0,4e-05,3e-05,-0.00018,6e-05,-0.0001,6,10
28820,-4e-05,-1e-05,0,4e-05,3e-05,-0.00018,6e-05,-0.0001,6,10
28821,-4e-05,-1e-05,0,4e-05,3e-05,-0.00018,6e-05,-0.0001,6,10
28822,1e-05,-2e-05,0,0.0001,0.00024,0.00053,7e-05,-0.00027,6,10
28823,1e-05,-2e-05,0,0.0001,0.00024,0.00053,7e-05,-0.00027,6,10
28824,1e-05,-2e-05,0,0.0001,0.00024,0.00053,7e-05,-0.00027,6,10
28825,1e-05,-2e-05,0,0.0001,0.00024,0.00053,7e-05,-0.00027,6,10
28826,1e-05,-2e-05,0,0.0001,0.00024,0.00053,7e-05,-0.00027,6,10
28827,1e-05,-2e-05,0,0.0001,0.00024,0.00053,7e-05,-0.00027,6,10
28828,1e-05,-2e-05,0,0.0001,0.00024,0.00053,7e-05,-0.00027,6,10
28829,-1e-05,-5e-05,-0.00011,-0.0001,-0.00027,-0.00022,2e-05,-6e-05,6,10
28830,-1e-05,-5e-05,-0.00011,-0.0001,-0.00027,-0.00022,2e-05,-6e-05,6,10
28831,-1e-05,-6e-05,-6e-05,-0.0002,-0.00055,-0.00052,-0.0001,0.00021,6,10
28832,-1e-05,-6e-05,-6e-05,-0.0002,-0.00055,-0.00052,-0.0001,0.00021,6,10
28833,-1e-05,-6e-05,-6e-05,-0.0002,-0.00055,-0.00052,-0.0001,0.00021,6,10
28834,-1e-05,-6e-05,-6e-05,-0.0002,-0.00055,-0.00052,-0.0001,0.00021,6,10
28835,-1e-05,-6e-05,-6e-05,-0.0002,-0.00055,-0.00052,-0.0001,0.00021,6,10
28837,-1e-05,-6e-05,-6e-05,-0.0002,-0.00055,-0.00052,-0.0001,0.00021,6,10
28840,-1e-05,-6e-05,-6e-05,-0.0002,-0.00055,-0.00052,-0.0001,0.00021,6,10
28841,-1e-05,-6e-05,-6e-05,-0.0002,-0.00055,-0.00052,-0.0001,0.00021,6,10
28842,-1e-05,-6e-05,-6e-05,-0.0002,-0.00055,-0.00052,-0.0001,0.00021,6,10
28843,-1e-05,-6e-05,-6e-05,-0.0002,-0.00055,-0.00052,-0.0001,0.00021,6,10
28844,-1e-05,-6e-05,-6e-05,-0.0002,-0.00055,-0.00052,-0.0001,0.00021,6,10
28845,-1e-05,-6e-05,-6e-05,-0.0002,-0.00055,-0.00052,-0.0001,0.00021,6,10
28846,-1e-05,-6e-05,-6e-05,-0.0002,-0.00055,-0.00052,-0.0001,0.00021,6,10
28847,-1e-05,-6e-05,-6e-05,-0.0002,-0.00055,-0.00052,-0.0001,0.00021,6,10
28848,-1e-05,-6e-05,-6e-05,-0.0002,-0.00055,-0.00052,-0.0001,0.00021,6,10
28849,-1e-05,-6e-05,-6e-05,-0.0002,-0.00055,-0.00052,-0.0001,0.00021,6,10
28850,-1e-05,-6e-05,-6e-05,-0.0002,-0.00055,-0.00052,-0.0001,0.00021,6,10
28851,-1e-05,-6e-05,-6e-05,-0.0002,-0.00055,-0.00052,-0.0001,0.00021,6,10
28852,-1e-05,-6e-05,-6e-05,-0.0002,-0.00055,-0.00052,-0.0001,0.00021,6,10
28853,-1e-05,-6e-05,-6e-05,-0.0002,-0.00055,-0.00052,-0.0001,0.00021,6,10
28854,-1e-05,-6e-05,-6e-05,-0.0002,-0.00055,-0.00052,-0.0001,0.00021,6,10
28855,-1e-05,-6e-05,-6e-05,-0.0002,-0.00055,-0.00052,-0.0001,0.00021,6,10
28856,-1e-05,-6e-05,-6e-05,-0.0002,-0.00055,-0.00052,-0.0001,0.00021,6,10
28857,-1e-05,-6e-05,-6e-05,-0.0002,-0.00055,-0.00052,-0.0001,0.00021,6,10
28858,-1e-05,-6e-05,-6e-05,-0.0002,-0.00055,-0.00052,-0.0001,0.00021,6,10
28859,7e-05,5e-05,8e-05,7e-05,0.00018,0.00013,5e-05,0.00011,6,10
28860,7e-05,5e-05,8e-05,7e-05,0.00018,0.00013,5e-05,0.00011,6,10
28861,5e-05,-4e-05,-6e-05,-3e-05,-2e-05,-4e-05,-2e-05,0.00037,6,10
28862,5e-05,-4e-05,-6e-05,-3e-05,-2e-05,-4e-05,-2e-05,0.00037,6,10
28863,5e-05,-4e-05,-6e-05,-3e-05,-2e-05,-4e-05,-2e-05,0.00037,6,10
28864,5e-05,-4e-05,-6e-05,-3e-05,-2e-05,-4e-05,-2e-05,0.00037,6,10
28865,-7e-05,-7e-05,-5e-05,-0.00015,-0.00034,-0.00045,-5e-05,-0.00017,6,10
28866,-3e-05,0,-3e-05,-4e-05,-0.00035,-0.00028,-0.00019,-0.00018,6,10
28867,-3e-05,0,-3e-05,-4e-05,-0.00035,-0.00028,-0.00019,-0.00018,6,10
28868,-3e-05,0,-3e-05,-4e-05,-0.00035,-0.00028,-0.00019,-0.00018,6,10
28869,-3e-05,0,-3e-05,-4e-05,-0.00035,-0.00028,-0.00019,-0.00018,6,10
28870,-3e-05,0,-3e-05,-4e-05,-0.00035,-0.00028,-0.00019,-0.00018,6,10
28871,-3e-05,0,-3e-05,-4e-05,-0.00035,-0.00028,-0.00019,-0.00018,6,10
28872,-3e-05,0,-3e-05,-4e-05,-0.00035,-0.00028,-0.00019,-0.00018,6,10
28873,-3e-05,0,-3e-05,-4e-05,-0.00035,-0.00028,-0.00019,-0.00018,6,10
28874,-1e-05,2e-05,4e-05,4e-05,2e-05,-0.00018,-2e-05,0.0002,6,10
28875,-1e-05,2e-05,4e-05,4e-05,2e-05,-0.00018,-2e-05,0.0002,6,10
28876,-1e-05,2e-05,4e-05,4e-05,2e-05,-0.00018,-2e-05,0.0002,6,10
28877,-1e-05,2e-05,4e-05,4e-05,2e-05,-0.00018,-2e-05,0.0002,6,10
28878,-1e-05,2e-05,4e-05,4e-05,2e-05,-0.00018,-2e-05,0.0002,6,10
28879,-1e-05,2e-05,4e-05,4e-05,2e-05,-0.00018,-2e-05,0.0002,6,10
28880,-1e-05,2e-05,4e-05,4e-05,2e-05,-0.00018,-2e-05,0.0002,6,10
28881,-1e-05,2e-05,4e-05,4e-05,2e-05,-0.00018,-2e-05,0.0002,6,10
28882,-1e-05,2e-05,4e-05,4e-05,2e-05,-0.00018,-2e-05,0.0002,6,10
28883,-1e-05,2e-05,4e-05,4e-05,2e-05,-0.00018,-2e-05,0.0002,6,10
28884,-1e-05,2e-05,4e-05,4e-05,2e-05,-0.00018,-2e-05,0.0002,6,10
28885,-1e-05,2e-05,4e-05,4e-05,2e-05,-0.00018,-2e-05,0.0002,6,10
28886,-1e-05,2e-05,4e-05,4e-05,2e-05,-0.00018,-2e-05,0.0002,6,10
28889,-1e-05,2e-05,4e-05,4e-05,2e-05,-0.00018,-2e-05,0.0002,6,10
28890,-1e-05,2e-05,4e-05,4e-05,2e-05,-0.00018,-2e-05,0.0002,6,10
28891,-1e-05,2e-05,4e-05,4e-05,2e-05,-0.00018,-2e-05,0.0002,6,10
28892,-1e-05,2e-05,4e-05,4e-05,2e-05,-0.00018,-2e-05,0.0002,6,10
28893,-1e-05,2e-05,4e-05,4e-05,2e-05,-0.00018,-2e-05,0.0002,6,10
28894,-1e-05,2e-05,4e-05,4e-05,2e-05,-0.00018,-2e-05,0.0002,6,10
28895,-1e-05,2e-05,4e-05,4e-05,2e-05,-0.00018,-2e-05,0.0002,6,10
28896,-1e-05,2e-05,4e-05,4e-05,2e-05,-0.00018,-2e-05,0.0002,6,10
28897,-1e-05,2e-05,3e-05,0.00012,0.00033,3e-05,9e-05,-5e-05,6,10
28898,-1e-05,-2e-05,-6e-05,-0.00014,-0.00022,-4e-05,0,0.0001,6,10
28899,-1e-05,-2e-05,-6e-05,-0.00014,-0.00022,-4e-05,0,0.0001,6,10
28900,-1e-05,-2e-05,-6e-05,-0.00014,-0.00022,-4e-05,0,0.0001,6,10
28901,-1e-05,-2e-05,-6e-05,-0.00014,-0.00022,-4e-05,0,0.0001,6,10
28902,-1e-05,-2e-05,-6e-05,-0.00014,-0.00022,-4e-05,0,0.0001,6,10
28903,-1e-05,-2e-05,-6e-05,-0.00014,-0.00022,-4e-05,0,0.0001,6,10
28904,-1e-05,-2e-05,-6e-05,-0.00014,-0.00022,-4e-05,0,0.0001,6,10
28905,-1e-05,-2e-05,-6e-05,-0.00014,-0.00022,-4e-05,0,0.0001,6,10
28906,-1e-05,-2e-05,-6e-05,-0.00014,-0.00022,-4e-05,0,0.0001,6,10
28907,-1e-05,-2e-05,-6e-05,-0.00014,-0.00022,-4e-05,0,0.0001,6,10
28908,-1e-05,-2e-05,-6e-05,-0.00014,-0.00022,-4e-05,0,0.0001,6,10
28909,-1e-05,-2e-05,-6e-05,-0.00014,-0.00022,-4e-05,0,0.0001,6,10
28910,-1e-05,-2e-05,-6e-05,-0.00014,-0.00022,-4e-05,0,0.0001,6,10
28911,-1e-05,-2e-05,-6e-05,-0.00014,-0.00022,-4e-05,0,0.0001,6,10
28912,-7e-05,-5e-05,-3e-05,-8e-05,-0.00035,-0.00057,-0.0002,-0.00024,6,10
28913,-7e-05,-5e-05,-3e-05,-8e-05,-0.00035,-0.00057,-0.0002,-0.00024,6,10
28914,-8e-05,-8e-05,-6e-05,-8e-05,-1e-05,-0.00019,-0.00015,-0.00049,6,10
28915,-8e-05,-8e-05,-6e-05,-8e-05,-1e-05,-0.00019,-0.00015,-0.00049,6,10
28916,-8e-05,-8e-05,-6e-05,-8e-05,-1e-05,-0.00019,-0.00015,-0.00049,6,10
28917,-8e-05,-8e-05,-6e-05,-8e-05,-1e-05,-0.00019,-0.00015,-0.00049,6,10
28918,-8e-05,-8e-05,-6e-05,-8e-05,-1e-05,-0.00019,-0.00015,-0.00049,6,10
28919,-8e-05,-8e-05,-6e-05,-8e-05,-1e-05,-0.00019,-0.00015,-0.00049,6,10
28920,-8e-05,-8e-05,-6e-05,-8e-05,-1e-05,-0.00019,-0.00015,-0.00049,6,10
28921,-8e-05,-8e-05,-6e-05,-8e-05,-1e-05,-0.00019,-0.00015,-0.00049,6,10
28922,-8e-05,-8e-05,-6e-05,-8e-05,-1e-05,-0.00019,-0.00015,-0.00049,6,10
28923,-8e-05,-8e-05,-6e-05,-8e-05,-1e-05,-0.00019,-0.00015,-0.00049,6,10
28924,-8e-05,-8e-05,-6e-05,-8e-05,-1e-05,-0.00019,-0.00015,-0.00049,6,10
28925,3e-05,2e-05,-1e-05,-2e-05,-7e-05,-0.0003,-0.0001,8e-05,6,10
28926,-3e-05,-2e-05,-3e-05,-3e-05,-0.0001,-0.00033,0.00016,0.00032,6,10
28927,-3e-05,-2e-05,-3e-05,-3e-05,-0.0001,-0.00033,0.00016,0.00032,6,10
28928,-3e-05,-2e-05,-3e-05,-3e-05,-0.0001,-0.00033,0.00016,0.00032,6,10
28929,-3e-05,-2e-05,-3e-05,-3e-05,-0.0001,-0.00033,0.00016,0.00032,6,10
28930,-3e-05,-2e-05,-3e-05,-3e-05,-0.0001,-0.00033,0.00016,0.00032,6,10
28931,-3e-05,-2e-05,-3e-05,-3e-05,-0.0001,-0.00033,0.00016,0.00032,6,10
28932,-3e-05,-2e-05,-3e-05,-3e-05,-0.0001,-0.00033,0.00016,0.00032,6,10
28933,-3e-05,-2e-05,-3e-05,-3e-05,-0.0001,-0.00033,0.00016,0.00032,6,10
28934,1e-05,1e-05,0,2e-05,0.0003,0.00047,0.00011,8e-05,6,10
28935,4e-05,3e-05,4e-05,8e-05,-5e-05,-0.00018,-3e-05,0.00016,6,10
28936,4e-05,3e-05,4e-05,8e-05,-5e-05,-0.00018,-3e-05,0.00016,6,10
28938,4e-05,3e-05,4e-05,8e-05,-5e-05,-0.00018,-3e-05,0.00016,6,10
28939,4e-05,3e-05,4e-05,8e-05,-5e-05,-0.00018,-3e-05,0.00016,6,10
28940,4e-05,3e-05,4e-05,8e-05,-5e-05,-0.00018,-3e-05,0.00016,6,10
28941,4e-05,3e-05,4e-05,8e-05,-5e-05,-0.00018,-3e-05,0.00016,6,10
28942,4e-05,3e-05,4e-05,8e-05,-5e-05,-0.00018,-3e-05,0.00016,6,10
28943,4e-05,3e-05,4e-05,8e-05,-5e-05,-0.00018,-3e-05,0.00016,6,10
28944,4e-05,3e-05,4e-05,8e-05,-5e-05,-0.00018,-3e-05,0.00016,6,10
28945,4e-05,3e-05,4e-05,8e-05,-5e-05,-0.00018,-3e-05,0.00016,6,10
28946,4e-05,3e-05,4e-05,8e-05,-5e-05,-0.00018,-3e-05,0.00016,6,10
28947,4e-05,3e-05,4e-05,8e-05,-5e-05,-0.00018,-3e-05,0.00016,6,10
28948,4e-05,3e-05,4e-05,8e-05,-5e-05,-0.00018,-3e-05,0.00016,6,10
28949,-1e-05,1e-05,2e-05,-4e-05,-0.00024,-0.00013,-6e-05,-0.00011,6,10
28950,-1e-05,1e-05,2e-05,-4e-05,-0.00024,-0.00013,-6e-05,-0.00011,6,10
28951,-1e-05,-1e-05,-1e-05,-6e-05,-0.00014,6e-05,0.00012,-0.00035,6,10
28952,-1e-05,-1e-05,-1e-05,-6e-05,-0.00014,6e-05,0.00012,-0.00035,6,10
28953,-1e-05,-1e-05,-1e-05,-6e-05,-0.00014,6e-05,0.00012,-0.00035,6,10
28954,-1e-05,-1e-05,-1e-05,-6e-05,-0.00014,6e-05,0.00012,-0.00035,6,10
28955,-1e-05,-1e-05,-1e-05,-6e-05,-0.00014,6e-05,0.00012,-0.00035,6,10
28956,-1e-05,-1e-05,-1e-05,-6e-05,-0.00014,6e-05,0.00012,-0.00035,6,10
28957,-1e-05,-1e-05,-1e-05,-6e-05,-0.00014,6e-05,0.00012,-0.00035,6,10
28958,-1e-05,-1e-05,-1e-05,-6e-05,-0.00014,6e-05,0.00012,-0.00035,6,10
28959,-1e-05,-1e-05,-1e-05,-6e-05,-0.00014,6e-05,0.00012,-0.00035,6,10
28960,-1e-05,-1e-05,-1e-05,-6e-05,-0.00014,6e-05,0.00012,-0.00035,6,10
28961,-1e-05,-1e-05,-1e-05,-6e-05,-0.00014,6e-05,0.00012,-0.00035,6,10
28962,-1e-05,-1e-05,-1e-05,-6e-05,-0.00014,6e-05,0.00012,-0.00035,6,10
28963,-1e-05,-1e-05,-1e-05,-6e-05,-0.00014,6e-05,0.00012,-0.00035,6,10
28964,-1e-05,-1e-05,-1e-05,-6e-05,-0.00014,6e-05,0.00012,-0.00035,6,10
28965,-1e-05,-1e-05,-1e-05,-6e-05,-0.00014,6e-05,0.00012,-0.00035,6,10
28966,-1e-05,-1e-05,-1e-05,-6e-05,-0.00014,6e-05,0.00012,-0.00035,6,10
28967,-1e-05,-1e-05,-1e-05,-6e-05,-0.00014,6e-05,0.00012,-0.00035,6,10
28968,-1e-05,-1e-05,-1e-05,-6e-05,-0.00014,6e-05,0.00012,-0.00035,6,10
28969,-1e-05,-1e-05,-1e-05,-6e-05,-0.00014,6e-05,0.00012,-0.00035,6,10
28970,-1e-05,-1e-05,-1e-05,-6e-05,-0.00014,6e-05,0.00012,-0.00035,6,10
28971,-3e-05,-2e-05,-2e-05,1e-05,-1e-05,6e-05,-3e-05,-0.00011,6,10
28972,-3e-05,-2e-05,-2e-05,1e-05,-1e-05,6e-05,-3e-05,-0.00011,6,10
28973,-3e-05,-2e-05,-2e-05,1e-05,-1e-05,6e-05,-3e-05,-0.00011,6,10
28974,-3e-05,-2e-05,-2e-05,1e-05,-1e-05,6e-05,-3e-05,-0.00011,6,10
28975,-3e-05,-2e-05,-2e-05,1e-05,-1e-05,6e-05,-3e-05,-0.00011,6,10
28976,-3e-05,-2e-05,-2e-05,1e-05,-1e-05,6e-05,-3e-05,-0.00011,6,10
28977,-3e-05,-2e-05,-2e-05,1e-05,-1e-05,6e-05,-3e-05,-0.00011,6,10
28978,-3e-05,-2e-05,-2e-05,1e-05,-1e-05,6e-05,-3e-05,-0.00011,6,10
28979,7e-05,2e-05,1e-05,1e-05,7e-05,-4e-05,-0.00019,0.0001,6,10
28980,-2e-05,1e-05,4e-05,3e-05,-0.0002,-3e-05,0.0002,-0.00021,6,10
28981,-2e-05,1e-05,4e-05,3e-05,-0.0002,-3e-05,0.0002,-0.00021,6,10
28982,-2e-05,1e-05,4e-05,3e-05,-0.0002,-3e-05,0.0002,-0.00021,6,10
28983,-2e-05,1e-05,4e-05,3e-05,-0.0002,-3e-05,0.0002,-0.00021,6,10
28984,-2e-05,1e-05,4e-05,3e-05,-0.0002,-3e-05,0.0002,-0.00021,6,10
28985,-2e-05,1e-05,4e-05,3e-05,-0.0002,-3e-05,0.0002,-0.00021,6,10
28986,-2e-05,-3e-05,-4e-05,-8e-05,-4e-05,0.00018,-6e-05,-0.00013,6,10
28989,-2e-05,-3e-05,-4e-05,-8e-05,-4e-05,0.00018,-6e-05,-0.00013,6,10
28990,-2e-05,-3e-05,-4e-05,-8e-05,-4e-05,0.00018,-6e-05,-0.00013,6,10
28991,-2e-05,-3e-05,-4e-05,-8e-05,-4e-05,0.00018,-6e-05,-0.00013,6,10
28992,-2e-05,-3e-05,-4e-05,-8e-05,-4e-05,0.00018,-6e-05,-0.00013,6,10
28993,-2e-05,-3e-05,-4e-05,-8e-05,-4e-05,0.00018,-6e-05,-0.00013,6,10
28994,-2e-05,0,1e-05,3e-05,0.00017,0.00022,8e-05,-0.00017,6,10
28995,-6e-05,-2e-05,-4e-05,-5e-05,-8e-05,-0.00053,-1e-05,0.00016,6,10
28996,-6e-05,-2e-05,-4e-05,-5e-05,-8e-05,-0.00053,-1e-05,0.00016,6,10
28997,-6e-05,-2e-05,-4e-05,-5e-05,-8e-05,-0.00053,-1e-05,0.00016,6,10
28998,-6e-05,-2e-05,-4e-05,-5e-05,-8e-05,-0.00053,-1e-05,0.00016,6,10
28999,-6e-05,-2e-05,-4e-05,-5e-05,-8e-05,-0.00053,-1e-05,0.00016,6,10
29000,-6e-05,-2e-05,-4e-05,-5e-05,-8e-05,-0.00053,-1e-05,0.00016,6,10
29001,-6e-05,-2e-05,-4e-05,-5e-05,-8e-05,-0.00053,-1e-05,0.00016,6,10
29002,-6e-05,-2e-05,-4e-05,-5e-05,-8e-05,-0.00053,-1e-05,0.00016,6,10
29003,-6e-05,-2e-05,-4e-05,-5e-05,-8e-05,-0.00053,-1e-05,0.00016,6,10
29004,-6e-05,-2e-05,-4e-05,-5e-05,-8e-05,-0.00053,-1e-05,0.00016,6,10
29005,-6e-05,-2e-05,-4e-05,-5e-05,-8e-05,-0.00053,-1e-05,0.00016,6,10
29006,-6e-05,-2e-05,-4e-05,-5e-05,-8e-05,-0.00053,-1e-05,0.00016,6,10
29007,-6e-05,-2e-05,-4e-05,-5e-05,-8e-05,-0.00053,-1e-05,0.00016,6,10
29008,-6e-05,-2e-05,-4e-05,-5e-05,-8e-05,-0.00053,-1e-05,0.00016,6,10
29009,-6e-05,-2e-05,-4e-05,-5e-05,-8e-05,-0.00053,-1e-05,0.00016,6,10
29010,-6e-05,-2e-05,-4e-05,-5e-05,-8e-05,-0.00053,-1e-05,0.00016,6,10
29011,-6e-05,-2e-05,-4e-05,-5e-05,-8e-05,-0.00053,-1e-05,0.00016,6,10
29012,-6e-05,-2e-05,-4e-05,-5e-05,-8e-05,-0.00053,-1e-05,0.00016,6,10
29013,-6e-05,-2e-05,-4e-05,-5e-05,-8e-05,-0.00053,-1e-05,0.00016,6,10
29014,-6e-05,-2e-05,-4e-05,-5e-05,-8e-05,-0.00053,-1e-05,0.00016,6,10
29015,-6e-05,-2e-05,-4e-05,-5e-05,-8e-05,-0.00053,-1e-05,0.00016,6,10
29016,-6e-05,-2e-05,-4e-05,-5e-05,-8e-05,-0.00053,-1e-05,0.00016,6,10
29017,4e-05,4e-05,4e-05,0.00021,0.00024,0.00046,0.00021,-9e-05,6,10
29018,0,-3e-05,-2e-05,-0.00011,-0.00073,-0.0004,-0.00018,0.0003,6,10
29019,6e-05,3e-05,6e-05,-2e-05,-9e-05,-0.00021,3e-05,-0.00032,6,10
29020,6e-05,3e-05,6e-05,-2e-05,-9e-05,-0.00021,3e-05,-0.00032,6,10
29021,6e-05,3e-05,6e-05,-2e-05,-9e-05,-0.00021,3e-05,-0.00032,6,10
29022,6e-05,3e-05,6e-05,-2e-05,-9e-05,-0.00021,3e-05,-0.00032,6,10
29023,6e-05,3e-05,6e-05,-2e-05,-9e-05,-0.00021,3e-05,-0.00032,6,10
29024,6e-05,3e-05,6e-05,-2e-05,-9e-05,-0.00021,3e-05,-0.00032,6,10
29025,6e-05,3e-05,6e-05,-2e-05,-9e-05,-0.00021,3e-05,-0.00032,6,10
29026,6e-05,3e-05,6e-05,-2e-05,-9e-05,-0.00021,3e-05,-0.00032,6,10
29027,6e-05,3e-05,6e-05,-2e-05,-9e-05,-0.00021,3e-05,-0.00032,6,10
29028,6e-05,3e-05,6e-05,-2e-05,-9e-05,-0.00021,3e-05,-0.00032,6,10
29029,6e-05,3e-05,6e-05,-2e-05,-9e-05,-0.00021,3e-05,-0.00032,6,10
29030,6e-05,3e-05,6e-05,-2e-05,-9e-05,-0.00021,3e-05,-0.00032,6,10
29031,6e-05,3e-05,6e-05,-2e-05,-9e-05,-0.00021,3e-05,-0.00032,6,10
29032,-4e-05,-1e-05,-1e-05,8e-05,0.00048,-0.00014,-0.00025,-0.00063,6,10
29033,-7e-05,-9e-05,-0.00012,-0.00013,-0.00021,-0.00045,0,7e-05,6,10
29034,0,2e-05,3e-05,0.0001,5e-05,0.00067,-2e-05,0.00024,6,10
29035,0,2e-05,3e-05,0.0001,5e-05,0.00067,-2e-05,0.00024,6,10
29037,0,2e-05,3e-05,0.0001,5e-05,0.00067,-2e-05,0.00024,6,10
29040,0,2e-05,3e-05,0.0001,5e-05,0.00067,-2e-05,0.00024,6,10
29041,0,2e-05,3e-05,0.0001,5e-05,0.00067,-2e-05,0.00024,6,10
29042,0,2e-05,3e-05,0.0001,5e-05,0.00067,-2e-05,0.00024,6,10
29043,0,2e-05,3e-05,0.0001,5e-05,0.00067,-2e-05,0.00024,6,10
29044,0,2e-05,3e-05,0.0001,5e-05,0.00067,-2e-05,0.00024,6,10
29045,0,2e-05,3e-05,0.0001,5e-05,0.00067,-2e-05,0.00024,6,10
29046,0,2e-05,3e-05,0.0001,5e-05,0.00067,-2e-05,0.00024,6,10
29047,0,2e-05,3e-05,0.0001,5e-05,0.00067,-2e-05,0.00024,6,10
29048,0,2e-05,3e-05,0.0001,5e-05,0.00067,-2e-05,0.00024,6,10
29049,0,2e-05,3e-05,0.0001,5e-05,0.00067,-2e-05,0.00024,6,10
29050,0,2e-05,3e-05,0.0001,5e-05,0.00067,-2e-05,0.00024,6,10
29051,0,2e-05,3e-05,0.0001,5e-05,0.00067,-2e-05,0.00024,6,10
29052,0,2e-05,3e-05,0.0001,5e-05,0.00067,-2e-05,0.00024,6,10
29053,0,2e-05,3e-05,0.0001,5e-05,0.00067,-2e-05,0.00024,6,10
29055,0,2e-05,3e-05,0.0001,5e-05,0.00067,-2e-05,0.00024,6,10
29056,-5e-05,-3e-05,-5e-05,-6e-05,4e-05,-0.00014,-2e-05,3e-05,6,10
29057,-5e-05,-3e-05,-5e-05,-6e-05,4e-05,-0.00014,-2e-05,3e-05,6,10
29058,-5e-05,-3e-05,-5e-05,-6e-05,4e-05,-0.00014,-2e-05,3e-05,6,10
29059,-5e-05,-3e-05,-5e-05,-6e-05,4e-05,-0.00014,-2e-05,3e-05,6,10
29060,-5e-05,-3e-05,-5e-05,-6e-05,4e-05,-0.00014,-2e-05,3e-05,6,10
29061,-5e-05,-3e-05,-5e-05,-6e-05,4e-05,-0.00014,-2e-05,3e-05,6,10
29062,-5e-05,-3e-05,-5e-05,-6e-05,4e-05,-0.00014,-2e-05,3e-05,6,10
29063,-5e-05,-3e-05,-5e-05,-6e-05,4e-05,-0.00014,-2e-05,3e-05,6,10
29064,-5e-05,-3e-05,-5e-05,-6e-05,4e-05,-0.00014,-2e-05,3e-05,6,10
29065,-5e-05,-3e-05,-5e-05,-6e-05,4e-05,-0.00014,-2e-05,3e-05,6,10
29066,-5e-05,-3e-05,-5e-05,-6e-05,4e-05,-0.00014,-2e-05,3e-05,6,10
29067,-5e-05,-3e-05,-5e-05,-6e-05,4e-05,-0.00014,-2e-05,3e-05,6,10
29068,-5e-05,-3e-05,-5e-05,-6e-05,4e-05,-0.00014,-2e-05,3e-05,6,10
29069,-5e-05,-3e-05,-5e-05,-6e-05,4e-05,-0.00014,-2e-05,3e-05,6,10
29070,-5e-05,-3e-05,-5e-05,-6e-05,4e-05,-0.00014,-2e-05,3e-05,6,10
29071,-2e-05,-3e-05,-1e-05,0.0001,0.00033,0.00031,9e-05,0.00014,6,10
29072,0,-1e-05,-3e-05,-5e-05,-0.00021,-0.00049,-0.00013,0.00022,6,10
29073,0,-1e-05,-3e-05,-5e-05,-0.00021,-0.00049,-0.00013,0.00022,6,10
29074,0,-1e-05,-3e-05,-5e-05,-0.00021,-0.00049,-0.00013,0.00022,6,10
29075,0,-1e-05,-3e-05,-5e-05,-0.00021,-0.00049,-0.00013,0.00022,6,10
29076,0,-1e-05,-3e-05,-5e-05,-0.00021,-0.00049,-0.00013,0.00022,6,10
29077,0,-1e-05,-3e-05,-5e-05,-0.00021,-0.00049,-0.00013,0.00022,6,10
29078,0,-1e-05,-3e-05,-5e-05,-0.00021,-0.00049,-0.00013,0.00022,6,10
29079,0,-1e-05,-3e-05,-5e-05,-0.00021,-0.00049,-0.00013,0.00022,6,10
29080,0,-1e-05,-3e-05,-5e-05,-0.00021,-0.00049,-0.00013,0.00022,6,10
29081,0,-1e-05,-3e-05,-5e-05,-0.00021,-0.00049,-0.00013,0.00022,6,10
29082,0,-1e-05,-3e-05,-5e-05,-0.00021,-0.00049,-0.00013,0.00022,6,10
29083,0,-1e-05,-3e-05,-5e-05,-0.00021,-0.00049,-0.00013,0.00022,6,10
29084,0,-1e-05,-3e-05,-5e-05,-0.00021,-0.00049,-0.00013,0.00022,6,10
29085,0,-1e-05,-3e-05,-5e-05,-0.00021,-0.00049,-0.00013,0.00022,6,10
29086,0,-1e-05,-3e-05,-5e-05,-0.00021,-0.00049,-0.00013,0.00022,6,10
29089,0,-1e-05,-3e-05,-5e-05,-0.00021,-0.00049,-0.00013,0.00022,6,10
29090,0,-1e-05,-3e-05,-5e-05,-0.00021,-0.00049,-0.00013,0.00022,6,10
29091,0,-1e-05,-3e-05,-5e-05,-0.00021,-0.00049,-0.00013,0.00022,6,10
29092,2e-05,-3e-05,-3e-05,-4e-05,3e-05,0.00042,1e-05,-0.00012,6,10
29093,-3e-05,-5e-05,-7e-05,-0.0001,-0.0001,-0.00018,-0.00016,0.00015,6,10
29094,-2e-05,3e-05,0.0001,0.00022,0.00069,0.00018,-2e-05,-0.00031,6,10
29095,-2e-05,3e-05,0.0001,0.00022,0.00069,0.00018,-2e-05,-0.00031,6,10
29096,-2e-05,3e-05,0.0001,0.00022,0.00069,0.00018,-2e-05,-0.00031,6,10
29097,-2e-05,3e-05,0.0001,0.00022,0.00069,0.00018,-2e-05,-0.00031,6,10
29098,-2e-05,3e-05,0.0001,0.00022,0.00069,0.00018,-2e-05,-0.00031,6,10
29099,-2e-05,3e-05,0.0001,0.00022,0.00069,0.00018,-2e-05,-0.00031,6,10
29100,-2e-05,3e-05,0.0001,0.00022,0.00069,0.00018,-2e-05,-0.00031,6,10
29101,-2e-05,3e-05,0.0001,0.00022,0.00069,0.00018,-2e-05,-0.00031,6,10
29102,-2e-05,3e-05,0.0001,0.00022,0.00069,0.00018,-2e-05,-0.00031,6,10
29103,-2e-05,3e-05,0.0001,0.00022,0.00069,0.00018,-2e-05,-0.00031,6,10
29104,-2e-05,3e-05,0.0001,0.00022,0.00069,0.00018,-2e-05,-0.00031,6,10
29105,-2e-05,3e-05,0.0001,0.00022,0.00069,0.00018,-2e-05,-0.00031,6,10
29106,-2e-05,3e-05,0.0001,0.00022,0.00069,0.00018,-2e-05,-0.00031,6,10
29107,-2e-05,3e-05,0.0001,0.00022,0.00069,0.00018,-2e-05,-0.00031,6,10
29108,-2e-05,3e-05,0.0001,0.00022,0.00069,0.00018,-2e-05,-0.00031,6,10
29109,-2e-05,3e-05,0.0001,0.00022,0.00069,0.00018,-2e-05,-0.00031,6,10
29110,-2e-05,3e-05,0.0001,0.00022,0.00069,0.00018,-2e-05,-0.00031,6,10
29111,-2e-05,3e-05,0.0001,0.00022,0.00069,0.00018,-2e-05,-0.00031,6,10
29112,-2e-05,3e-05,0.0001,0.00022,0.00069,0.00018,-2e-05,-0.00031,6,10
29113,-2e-05,3e-05,0.0001,0.00022,0.00069,0.00018,-2e-05,-0.00031,6,10
29114,-2e-05,3e-05,0.0001,0.00022,0.00069,0.00018,-2e-05,-0.00031,6,10
29115,-2e-05,3e-05,0.0001,0.00022,0.00069,0.00018,-2e-05,-0.00031,6,10
29116,-2e-05,3e-05,0.0001,0.00022,0.00069,0.00018,-2e-05,-0.00031,6,10
29117,-2e-05,3e-05,0.0001,0.00022,0.00069,0.00018,-2e-05,-0.00031,6,10
29118,-2e-05,3e-05,0.0001,0.00022,0.00069,0.00018,-2e-05,-0.00031,6,10
29119,-2e-05,3e-05,0.0001,0.00022,0.00069,0.00018,-2e-05,-0.00031,6,10
29120,-2e-05,3e-05,0.0001,0.00022,0.00069,0.00018,-2e-05,-0.00031,6,10
29121,-2e-05,3e-05,0.0001,0.00022,0.00069,0.00018,-2e-05,-0.00031,6,10
29122,-4e-05,-2e-05,0,-2e-05,0.00011,-0.00043,-0.00027,-0.0003,6,10
29123,4e-05,-1e-05,1e-05,2e-05,5e-05,-0.00016,-9e-05,0.0006,6,10
29124,-6e-05,-7e-05,-8e-05,-0.00011,-0.00018,-0.00033,0.00017,0.00013,6,10
29125,-6e-05,-7e-05,-8e-05,-0.00011,-0.00018,-0.00033,0.00017,0.00013,6,10
29126,-6e-05,-7e-05,-8e-05,-0.00011,-0.00018,-0.00033,0.00017,0.00013,6,10
29127,-6e-05,-7e-05,-8e-05,-0.00011,-0.00018,-0.00033,0.00017,0.00013,6,10
29128,-6e-05,-7e-05,-8e-05,-0.00011,-0.00018,-0.00033,0.00017,0.00013,6,10
29129,-6e-05,-7e-05,-8e-05,-0.00011,-0.00018,-0.00033,0.00017,0.00013,6,10
29130,-6e-05,-7e-05,-8e-05,-0.00011,-0.00018,-0.00033,0.00017,0.00013,6,10
29131,-6e-05,-7e-05,-8e-05,-0.00011,-0.00018,-0.00033,0.00017,0.00013,6,10
29132,-6e-05,-7e-05,-8e-05,-0.00011,-0.00018,-0.00033,0.00017,0.00013,6,10
29133,-6e-05,-7e-05,-8e-05,-0.00011,-0.00018,-0.00033,0.00017,0.00013,6,10
29134,-6e-05,-7e-05,-8e-05,-0.00011,-0.00018,-0.00033,0.00017,0.00013,6,10
29135,-6e-05,-7e-05,-8e-05,-0.00011,-0.00018,-0.00033,0.00017,0.00013,6,10
29136,-6e-05,-7e-05,-8e-05,-0.00011,-0.00018,-0.00033,0.00017,0.00013,6,10
29139,6e-05,1e-05,-1e-05,4e-05,5e-05,0.00027,9e-05,0.00029,6,10
29140,6e-05,1e-05,-1e-05,4e-05,5e-05,0.00027,9e-05,0.00029,6,10
29141,6e-05,1e-05,-1e-05,4e-05,5e-05,0.00027,9e-05,0.00029,6,10
29142,6e-05,1e-05,-1e-05,4e-05,5e-05,0.00027,9e-05,0.00029,6,10
29143,6e-05,1e-05,-1e-05,4e-05,5e-05,0.00027,9e-05,0.00029,6,10
29144,6e-05,1e-05,-1e-05,4e-05,5e-05,0.00027,9e-05,0.00029,6,10
29145,6e-05,1e-05,-1e-05,4e-05,5e-05,0.00027,9e-05,0.00029,6,10
29146,6e-05,1e-05,-1e-05,4e-05,5e-05,0.00027,9e-05,0.00029,6,10
29147,6e-05,1e-05,-1e-05,4e-05,5e-05,0.00027,9e-05,0.00029,6,10
29148,6e-05,1e-05,-1e-05,4e-05,5e-05,0.00027,9e-05,0.00029,6,10
29149,6e-05,1e-05,-1e-05,4e-05,5e-05,0.00027,9e-05,0.00029,6,10
29150,6e-05,1e-05,-1e-05,4e-05,5e-05,0.00027,9e-05,0.00029,6,10
29151,6e-05,1e-05,-1e-05,4e-05,5e-05,0.00027,9e-05,0.00029,6,10
29152,-6e-05,-2e-05,-2e-05,-7e-05,-0.00019,0,-4e-05,0.00019,6,10
29153,-6e-05,-2e-05,-2e-05,-7e-05,-0.00019,0,-4e-05,0.00019,6,10
29154,0.0001,5e-05,5e-05,2e-05,-0.00044,-0.0005,6e-05,3e-05,6,10
29155,0,-2e-05,-1e-05,2e-05,0.00024,3e-05,-4e-05,-0.00013,6,10
29156,0,-2e-05,-1e-05,2e-05,0.00024,3e-05,-4e-05,-0.00013,6,10
29157,0,-2e-05,-1e-05,2e-05,0.00024,3e-05,-4e-05,-0.00013,6,10
29158,0,-2e-05,-1e-05,2e-05,0.00024,3e-05,-4e-05,-0.00013,6,10
29159,0,-2e-05,-1e-05,2e-05,0.00024,3e-05,-4e-05,-0.00013,6,10
29160,0,-2e-05,-1e-05,2e-05,0.00024,3e-05,-4e-05,-0.00013,6,10
29161,0,-2e-05,-1e-05,2e-05,0.00024,3e-05,-4e-05,-0.00013,6,10
29162,0,-2e-05,-1e-05,2e-05,0.00024,3e-05,-4e-05,-0.00013,6,10
29163,0,-2e-05,-1e-05,2e-05,0.00024,3e-05,-4e-05,-0.00013,6,10
29164,0,-2e-05,-1e-05,2e-05,0.00024,3e-05,-4e-05,-0.00013,6,10
29165,0,-2e-05,-1e-05,2e-05,0.00024,3e-05,-4e-05,-0.00013,6,10
29166,0,-2e-05,-1e-05,2e-05,0.00024,3e-05,-4e-05,-0.00013,6,10
29167,0,-2e-05,-1e-05,2e-05,0.00024,3e-05,-4e-05,-0.00013,6,10
29168,0,-2e-05,-1e-05,2e-05,0.00024,3e-05,-4e-05,-0.00013,6,10
29169,0,-2e-05,-1e-05,2e-05,0.00024,3e-05,-4e-05,-0.00013,6,10
29170,0,-2e-05,-1e-05,2e-05,0.00024,3e-05,-4e-05,-0.00013,6,10
29171,0,-2e-05,-1e-05,2e-05,0.00024,3e-05,-4e-05,-0.00013,6,10
29172,0,-2e-05,-1e-05,2e-05,0.00024,3e-05,-4e-05,-0.00013,6,10
29173,0,-2e-05,-1e-05,2e-05,0.00024,3e-05,-4e-05,-0.00013,6,10
29174,0,-2e-05,-1e-05,2e-05,0.00024,3e-05,-4e-05,-0.00013,6,10
29175,0,-2e-05,-1e-05,2e-05,0.00024,3e-05,-4e-05,-0.00013,6,10
29176,7e-05,1e-05,3e-05,2e-05,5e-05,5e-05,0,0.00025,6,10
29177,-0.00011,-2e-05,-1e-05,1e-05,0.0001,0.00028,7e-05,-0.00089,6,10
29178,-0.00011,-2e-05,-1e-05,1e-05,0.0001,0.00028,7e-05,-0.00089,6,10
29179,-0.00011,-2e-05,-1e-05,1e-05,0.0001,0.00028,7e-05,-0.00089,6,10
29180,-0.00011,-2e-05,-1e-05,1e-05,0.0001,0.00028,7e-05,-0.00089,6,10
29181,-0.00011,-2e-05,-1e-05,1e-05,0.0001,0.00028,7e-05,-0.00089,6,10
29182,-0.00011,-2e-05,-1e-05,1e-05,0.0001,0.00028,7e-05,-0.00089,6,10
29183,-0.00011,-2e-05,-1e-05,1e-05,0.0001,0.00028,7e-05,-0.00089,6,10
29184,-0.00011,-2e-05,-1e-05,1e-05,0.0001,0.00028,7e-05,-0.00089,6,10
29185,-0.00011,-2e-05,-1e-05,1e-05,0.0001,0.00028,7e-05,-0.00089,6,10
29186,-0.00011,-2e-05,-1e-05,1e-05,0.0001,0.00028,7e-05,-0.00089,6,10
29188,-0.00011,-2e-05,-1e-05,1e-05,0.0001,0.00028,7e-05,-0.00089,6,10
29189,1e-05,1e-05,3e-05,2e-05,9e-05,-0.00092,-0.00012,-0.00011,6,10
29190,-2e-05,0,-5e-05,-1e-05,0.00012,-0.00012,7e-05,4e-05,6,10
29191,-5e-05,-2e-05,-5e-05,-0.0001,-0.00027,-0.00026,-2e-05,0.00022,6,10
29192,-5e-05,-2e-05,-5e-05,-0.0001,-0.00027,-0.00026,-2e-05,0.00022,6,10
29193,-5e-05,-2e-05,-5e-05,-0.0001,-0.00027,-0.00026,-2e-05,0.00022,6,10
29194,-5e-05,-2e-05,-5e-05,-0.0001,-0.00027,-0.00026,-2e-05,0.00022,6,10
29195,-5e-05,-2e-05,-5e-05,-0.0001,-0.00027,-0.00026,-2e-05,0.00022,6,10
29196,-5e-05,-2e-05,-5e-05,-0.0001,-0.00027,-0.00026,-2e-05,0.00022,6,10
29197,-5e-05,-2e-05,-5e-05,-0.0001,-0.00027,-0.00026,-2e-05,0.00022,6,10
29198,-5e-05,-2e-05,-5e-05,-0.0001,-0.00027,-0.00026,-2e-05,0.00022,6,10
29199,-5e-05,-2e-05,-5e-05,-0.0001,-0.00027,-0.00026,-2e-05,0.00022,6,10
29200,-5e-05,-2e-05,-5e-05,-0.0001,-0.00027,-0.00026,-2e-05,0.00022,6,10
29201,-5e-05,-2e-05,-5e-05,-0.0001,-0.00027,-0.00026,-2e-05,0.00022,6,10
29202,-5e-05,-2e-05,-5e-05,-0.0001,-0.00027,-0.00026,-2e-05,0.00022,6,10
29203,-5e-05,-2e-05,-5e-05,-0.0001,-0.00027,-0.00026,-2e-05,0.00022,6,10
29204,-5e-05,-2e-05,-5e-05,-0.0001,-0.00027,-0.00026,-2e-05,0.00022,6,10
29205,-5e-05,-2e-05,-5e-05,-0.0001,-0.00027,-0.00026,-2e-05,0.00022,6,10
29206,-5e-05,-2e-05,-5e-05,-0.0001,-0.00027,-0.00026,-2e-05,0.00022,6,10
29207,-5e-05,-2e-05,-5e-05,-0.0001,-0.00027,-0.00026,-2e-05,0.00022,6,10
29208,-5e-05,-2e-05,-5e-05,-0.0001,-0.00027,-0.00026,-2e-05,0.00022,6,10
29209,-5e-05,-2e-05,-5e-05,-0.0001,-0.00027,-0.00026,-2e-05,0.00022,6,10
29210,-5e-05,-2e-05,-5e-05,-0.0001,-0.00027,-0.00026,-2e-05,0.00022,6,10
29211,-5e-05,-2e-05,-5e-05,-0.0001,-0.00027,-0.00026,-2e-05,0.00022,6,10
29212,-7e-05,-7e-05,-7e-05,-0.00019,-0.00043,-0.0002,-0.00019,-0.00046,6,10
29213,-3e-05,-1e-05,-4e-05,-7e-05,-0.00017,0.00027,-8e-05,0.00011,6,10
29214,-3e-05,-1e-05,-4e-05,-7e-05,-0.00017,0.00027,-8e-05,0.00011,6,10
29215,-3e-05,-1e-05,-4e-05,-7e-05,-0.00017,0.00027,-8e-05,0.00011,6,10
29216,-3e-05,-1e-05,-4e-05,-7e-05,-0.00017,0.00027,-8e-05,0.00011,6,10
29217,-3e-05,-1e-05,-4e-05,-7e-05,-0.00017,0.00027,-8e-05,0.00011,6,10
29218,-3e-05,-1e-05,-4e-05,-7e-05,-0.00017,0.00027,-8e-05,0.00011,6,10
29219,-3e-05,-1e-05,-4e-05,-7e-05,-0.00017,0.00027,-8e-05,0.00011,6,10
29220,-3e-05,-1e-05,-4e-05,-7e-05,-0.00017,0.00027,-8e-05,0.00011,6,10
29221,-3e-05,-1e-05,-4e-05,-7e-05,-0.00017,0.00027,-8e-05,0.00011,6,10
29222,-3e-05,-1e-05,-4e-05,-7e-05,-0.00017,0.00027,-8e-05,0.00011,6,10
29223,-3e-05,-1e-05,-4e-05,-7e-05,-0.00017,0.00027,-8e-05,0.00011,6,10
29224,-3e-05,-1e-05,-4e-05,-7e-05,-0.00017,0.00027,-8e-05,0.00011,6,10
29225,-3e-05,-1e-05,-4e-05,-7e-05,-0.00017,0.00027,-8e-05,0.00011,6,10
29226,-3e-05,-1e-05,-4e-05,-7e-05,-0.00017,0.00027,-8e-05,0.00011,6,10
29227,-3e-05,-1e-05,-4e-05,-7e-05,-0.00017,0.00027,-8e-05,0.00011,6,10
29228,-3e-05,-1e-05,-4e-05,-7e-05,-0.00017,0.00027,-8e-05,0.00011,6,10
29229,-3e-05,-1e-05,-4e-05,-7e-05,-0.00017,0.00027,-8e-05,0.00011,6,10
29230,-3e-05,-1e-05,-4e-05,-7e-05,-0.00017,0.00027,-8e-05,0.00011,6,10
29231,-3e-05,-1e-05,-4e-05,-7e-05,-0.00017,0.00027,-8e-05,0.00011,6,10
29232,-3e-05,-1e-05,-4e-05,-7e-05,-0.00017,0.00027,-8e-05,0.00011,6,10
29233,-3e-05,-1e-05,-4e-05,-7e-05,-0.00017,0.00027,-8e-05,0.00011,6,10
29234,-1e-05,-2e-05,-2e-05,-9e-05,-0.00043,-0.00012,0.0001,6e-05,6,10
29235,-1e-05,-2e-05,-2e-05,-9e-05,-0.00043,-0.00012,0.0001,6e-05,6,10
29236,-2e-05,-4e-05,-4e-05,1e-05,-1e-05,0.00011,3e-05,0.00013,6,10
29238,-2e-05,-4e-05,-4e-05,1e-05,-1e-05,0.00011,3e-05,0.00013,6,10
29239,-2e-05,-4e-05,-4e-05,1e-05,-1e-05,0.00011,3e-05,0.00013,6,10
29240,-2e-05,-4e-05,-4e-05,1e-05,-1e-05,0.00011,3e-05,0.00013,6,10
29241,-2e-05,-4e-05,-4e-05,1e-05,-1e-05,0.00011,3e-05,0.00013,6,10
29242,-2e-05,-4e-05,-4e-05,1e-05,-1e-05,0.00011,3e-05,0.00013,6,10
29243,-2e-05,-4e-05,-4e-05,1e-05,-1e-05,0.00011,3e-05,0.00013,6,10
29244,-2e-05,-4e-05,-4e-05,1e-05,-1e-05,0.00011,3e-05,0.00013,6,10
29245,-2e-05,-4e-05,-4e-05,1e-05,-1e-05,0.00011,3e-05,0.00013,6,10
29246,-2e-05,-4e-05,-4e-05,1e-05,-1e-05,0.00011,3e-05,0.00013,6,10
29247,-2e-05,-4e-05,-4e-05,1e-05,-1e-05,0.00011,3e-05,0.00013,6,10
29248,-2e-05,-4e-05,-4e-05,1e-05,-1e-05,0.00011,3e-05,0.00013,6,10
29249,5e-05,-1e-05,-1e-05,8e-05,0.00039,0.00028,0.00015,0.00048,6,10
29250,5e-05,-1e-05,-1e-05,8e-05,0.00039,0.00028,0.00015,0.00048,6,10
29251,5e-05,-1e-05,-1e-05,8e-05,0.00039,0.00028,0.00015,0.00048,6,10
29252,5e-05,-1e-05,-1e-05,8e-05,0.00039,0.00028,0.00015,0.00048,6,10
29253,5e-05,-1e-05,-1e-05,8e-05,0.00039,0.00028,0.00015,0.00048,6,10
29254,5e-05,-1e-05,-1e-05,8e-05,0.00039,0.00028,0.00015,0.00048,6,10
29255,5e-05,-1e-05,-1e-05,8e-05,0.00039,0.00028,0.00015,0.00048,6,10
29256,5e-05,6e-05,9e-05,0.00015,0.00038,0.00018,0.00012,-0.00014,6,10
29257,5e-05,6e-05,9e-05,0.00015,0.00038,0.00018,0.00012,-0.00014,6,10
29258,5e-05,6e-05,9e-05,0.00015,0.00038,0.00018,0.00012,-0.00014,6,10
29259,5e-05,6e-05,9e-05,0.00015,0.00038,0.00018,0.00012,-0.00014,6,10
29260,5e-05,6e-05,9e-05,0.00015,0.00038,0.00018,0.00012,-0.00014,6,10
29261,5e-05,6e-05,9e-05,0.00015,0.00038,0.00018,0.00012,-0.00014,6,10
29262,5e-05,6e-05,9e-05,0.00015,0.00038,0.00018,0.00012,-0.00014,6,10
29263,5e-05,6e-05,9e-05,0.00015,0.00038,0.00018,0.00012,-0.00014,6,10
29264,5e-05,6e-05,9e-05,0.00015,0.00038,0.00018,0.00012,-0.00014,6,10
29265,5e-05,6e-05,9e-05,0.00015,0.00038,0.00018,0.00012,-0.00014,6,10
29266,5e-05,6e-05,9e-05,0.00015,0.00038,0.00018,0.00012,-0.00014,6,10
29267,5e-05,6e-05,9e-05,0.00015,0.00038,0.00018,0.00012,-0.00014,6,10
29268,5e-05,6e-05,9e-05,0.00015,0.00038,0.00018,0.00012,-0.00014,6,10
29269,5e-05,6e-05,9e-05,0.00015,0.00038,0.00018,0.00012,-0.00014,6,10
29270,5e-05,6e-05,9e-05,0.00015,0.00038,0.00018,0.00012,-0.00014,6,10
29271,5e-05,6e-05,9e-05,0.00015,0.00038,0.00018,0.00012,-0.00014,6,10
29272,-3e-05,-1e-05,-1e-05,-4e-05,-6e-05,-0.00012,0,0,6,10
29273,-1e-05,-1e-05,-1e-05,-2e-05,-0.0001,6e-05,6e-05,-6e-05,6,10
29274,2e-05,-3e-05,-4e-05,-5e-05,7e-05,-8e-05,3e-05,0.00036,6,10
29275,2e-05,-3e-05,-4e-05,-5e-05,7e-05,-8e-05,3e-05,0.00036,6,10
29276,2e-05,-3e-05,-4e-05,-5e-05,7e-05,-8e-05,3e-05,0.00036,6,10
29277,2e-05,-3e-05,-4e-05,-5e-05,7e-05,-8e-05,3e-05,0.00036,6,10
29278,2e-05,-3e-05,-4e-05,-5e-05,7e-05,-8e-05,3e-05,0.00036,6,10
29279,2e-05,-3e-05,-4e-05,-5e-05,7e-05,-8e-05,3e-05,0.00036,6,10
29280,2e-05,-3e-05,-4e-05,-5e-05,7e-05,-8e-05,3e-05,0.00036,6,10
29281,2e-05,-3e-05,-4e-05,-5e-05,7e-05,-8e-05,3e-05,0.00036,6,10
29282,2e-05,-3e-05,-4e-05,-5e-05,7e-05,-8e-05,3e-05,0.00036,6,10
29283,2e-05,-3e-05,-4e-05,-5e-05,7e-05,-8e-05,3e-05,0.00036,6,10
29284,2e-05,-3e-05,-4e-05,-5e-05,7e-05,-8e-05,3e-05,0.00036,6,10
29285,2e-05,-3e-05,-4e-05,-5e-05,7e-05,-8e-05,3e-05,0.00036,6,10
29286,2e-05,-3e-05,-4e-05,-5e-05,7e-05,-8e-05,3e-05,0.00036,6,10
29289,2e-05,-3e-05,-4e-05,-5e-05,7e-05,-8e-05,3e-05,0.00036,6,10
29290,2e-05,-3e-05,-4e-05,-5e-05,7e-05,-8e-05,3e-05,0.00036,6,10
29291,2e-05,-3e-05,-4e-05,-5e-05,7e-05,-8e-05,3e-05,0.00036,6,10
29292,2e-05,-3e-05,-4e-05,-5e-05,7e-05,-8e-05,3e-05,0.00036,6,10
29293,2e-05,-3e-05,-4e-05,-5e-05,7e-05,-8e-05,3e-05,0.00036,6,10
29294,-4e-05,-8e-05,-0.00012,-0.00011,0.00015,-0.00024,-0.00022,0.0001,6,10
29295,-3e-05,6e-05,7e-05,4e-05,0.00019,-0.00016,0,-0.00038,6,10
29296,1e-05,0,-2e-05,-0.0001,-0.00052,0.00029,-6e-05,0.00019,6,10
29297,1e-05,0,-2e-05,-0.0001,-0.00052,0.00029,-6e-05,0.00019,6,10
29298,1e-05,0,-2e-05,-0.0001,-0.00052,0.00029,-6e-05,0.00019,6,10
29299,1e-05,0,-2e-05,-0.0001,-0.00052,0.00029,-6e-05,0.00019,6,10
29300,1e-05,0,-2e-05,-0.0001,-0.00052,0.00029,-6e-05,0.00019,6,10
29301,1e-05,0,-2e-05,-0.0001,-0.00052,0.00029,-6e-05,0.00019,6,10
29302,1e-05,0,-2e-05,-0.0001,-0.00052,0.00029,-6e-05,0.00019,6,10
29303,1e-05,0,-2e-05,-0.0001,-0.00052,0.00029,-6e-05,0.00019,6,10
29304,1e-05,0,-2e-05,-0.0001,-0.00052,0.00029,-6e-05,0.00019,6,10
29305,1e-05,0,-2e-05,-0.0001,-0.00052,0.00029,-6e-05,0.00019,6,10
29306,1e-05,0,-2e-05,-0.0001,-0.00052,0.00029,-6e-05,0.00019,6,10
29307,1e-05,0,-2e-05,-0.0001,-0.00052,0.00029,-6e-05,0.00019,6,10
29308,1e-05,0,-2e-05,-0.0001,-0.00052,0.00029,-6e-05,0.00019,6,10
29309,1e-05,1e-05,-1e-05,1e-05,9e-05,0.00038,2e-05,-0.00014,6,10
29310,1e-05,1e-05,-1e-05,1e-05,9e-05,0.00038,2e-05,-0.00014,6,10
29311,1e-05,1e-05,-1e-05,1e-05,9e-05,0.00038,2e-05,-0.00014,6,10
29312,1e-05,1e-05,-1e-05,1e-05,9e-05,0.00038,2e-05,-0.00014,6,10
29313,1e-05,1e-05,-1e-05,1e-05,9e-05,0.00038,2e-05,-0.00014,6,10
29314,1e-05,1e-05,-1e-05,1e-05,9e-05,0.00038,2e-05,-0.00014,6,10
29315,1e-05,1e-05,-1e-05,1e-05,9e-05,0.00038,2e-05,-0.00014,6,10
29316,1e-05,1e-05,-1e-05,1e-05,9e-05,0.00038,2e-05,-0.00014,6,10
29317,1e-05,1e-05,-1e-05,1e-05,9e-05,0.00038,2e-05,-0.00014,6,10
29318,1e-05,1e-05,-1e-05,1e-05,9e-05,0.00038,2e-05,-0.00014,6,10
29319,1e-05,1e-05,-1e-05,1e-05,9e-05,0.00038,2e-05,-0.00014,6,10
29320,1e-05,1e-05,-1e-05,1e-05,9e-05,0.00038,2e-05,-0.00014,6,10
29321,1e-05,1e-05,-1e-05,1e-05,9e-05,0.00038,2e-05,-0.00014,6,10
29322,1e-05,1e-05,-1e-05,1e-05,9e-05,0.00038,2e-05,-0.00014,6,10
29323,1e-05,1e-05,-1e-05,1e-05,9e-05,0.00038,2e-05,-0.00014,6,10
29324,1e-05,1e-05,-1e-05,1e-05,9e-05,0.00038,2e-05,-0.00014,6,10
29325,1e-05,1e-05,-1e-05,1e-05,9e-05,0.00038,2e-05,-0.00014,6,10
29326,1e-05,1e-05,-1e-05,1e-05,9e-05,0.00038,2e-05,-0.00014,6,10
29327,1e-05,1e-05,-1e-05,1e-05,9e-05,0.00038,2e-05,-0.00014,6,10
29328,1e-05,1e-05,-1e-05,1e-05,9e-05,0.00038,2e-05,-0.00014,6,10
29329,1e-05,1e-05,-1e-05,1e-05,9e-05,0.00038,2e-05,-0.00014,6,10
29330,1e-05,1e-05,-1e-05,1e-05,9e-05,0.00038,2e-05,-0.00014,6,10
29331,1e-05,1e-05,-1e-05,1e-05,9e-05,0.00038,2e-05,-0.00014,6,10
29332,1e-05,1e-05,-1e-05,1e-05,9e-05,0.00038,2e-05,-0.00014,6,10
29333,1e-05,1e-05,2e-05,4e-05,1e-05,-0.00042,-0.00012,-0.00024,6,10
29334,-7e-05,-8e-05,-6e-05,-8e-05,-0.00027,1e-05,-0.00013,-5e-05,6,10
29335,-4e-05,-4e-05,-3e-05,6e-05,0.00033,6e-05,7e-05,8e-05,6,10
29336,-4e-05,-4e-05,-3e-05,6e-05,0.00033,6e-05,7e-05,8e-05,6,10
29339,-4e-05,-4e-05,-3e-05,6e-05,0.00033,6e-05,7e-05,8e-05,6,10
29340,-4e-05,-4e-05,-3e-05,6e-05,0.00033,6e-05,7e-05,8e-05,6,10
29341,-4e-05,-4e-05,-3e-05,6e-05,0.00033,6e-05,7e-05,8e-05,6,10
29342,-4e-05,-4e-05,-3e-05,6e-05,0.00033,6e-05,7e-05,8e-05,6,10
29343,-4e-05,-4e-05,-3e-05,6e-05,0.00033,6e-05,7e-05,8e-05,6,10
29344,-4e-05,-4e-05,-3e-05,6e-05,0.00033,6e-05,7e-05,8e-05,6,10
29345,-4e-05,-4e-05,-3e-05,6e-05,0.00033,6e-05,7e-05,8e-05,6,10
29346,-4e-05,-4e-05,-3e-05,6e-05,0.00033,6e-05,7e-05,8e-05,6,10
29347,-4e-05,-4e-05,-3e-05,6e-05,0.00033,6e-05,7e-05,8e-05,6,10
29348,-4e-05,-4e-05,-3e-05,6e-05,0.00033,6e-05,7e-05,8e-05,6,10
29349,-4e-05,-4e-05,-3e-05,6e-05,0.00033,6e-05,7e-05,8e-05,6,10
29350,-4e-05,-4e-05,-3e-05,6e-05,0.00033,6e-05,7e-05,8e-05,6,10
29351,-4e-05,-4e-05,-3e-05,6e-05,0.00033,6e-05,7e-05,8e-05,6,10
29352,-4e-05,-4e-05,-3e-05,6e-05,0.00033,6e-05,7e-05,8e-05,6,10
29353,-4e-05,-4e-05,-3e-05,6e-05,0.00033,6e-05,7e-05,8e-05,6,10
29354,-4e-05,-4e-05,-3e-05,6e-05,0.00033,6e-05,7e-05,8e-05,6,10
29355,8e-05,8e-05,0.00012,0.00024,0,-0.00011,2e-05,-3e-05,6,10
29356,0,1e-05,2e-05,4e-05,0.00011,8e-05,9e-05,0.00059,6,10
29357,0,1e-05,2e-05,4e-05,0.00011,8e-05,9e-05,0.00059,6,10
29358,0,1e-05,2e-05,4e-05,0.00011,8e-05,9e-05,0.00059,6,10
29359,0,1e-05,2e-05,4e-05,0.00011,8e-05,9e-05,0.00059,6,10
29360,0,1e-05,2e-05,4e-05,0.00011,8e-05,9e-05,0.00059,6,10
29361,0,1e-05,2e-05,4e-05,0.00011,8e-05,9e-05,0.00059,6,10
29362,0,1e-05,2e-05,4e-05,0.00011,8e-05,9e-05,0.00059,6,10
29363,0,1e-05,2e-05,4e-05,0.00011,8e-05,9e-05,0.00059,6,10
29364,0,1e-05,2e-05,4e-05,0.00011,8e-05,9e-05,0.00059,6,10
29365,0,1e-05,2e-05,4e-05,0.00011,8e-05,9e-05,0.00059,6,10
29366,0,1e-05,2e-05,4e-05,0.00011,8e-05,9e-05,0.00059,6,10
29367,0,1e-05,2e-05,4e-05,0.00011,8e-05,9e-05,0.00059,6,10
29368,0,1e-05,2e-05,4e-05,0.00011,8e-05,9e-05,0.00059,6,10
29369,-0.0001,-0.00013,-0.00019,-0.00012,1e-05,-0.00019,0,0.00028,6,10
29370,-0.0001,-0.00013,-0.00019,-0.00012,1e-05,-0.00019,0,0.00028,6,10
29371,-0.0001,-0.00013,-0.00019,-0.00012,1e-05,-0.00019,0,0.00028,6,10
29372,-0.0001,-0.00013,-0.00019,-0.00012,1e-05,-0.00019,0,0.00028,6,10
29373,-0.0001,-0.00013,-0.00019,-0.00012,1e-05,-0.00019,0,0.00028,6,10
29374,-0.0001,-0.00013,-0.00019,-0.00012,1e-05,-0.00019,0,0.00028,6,10
29375,-0.0001,-0.00013,-0.00019,-0.00012,1e-05,-0.00019,0,0.00028,6,10
29376,4e-05,2e-05,0,-3e-05,-0.00021,0.0006,-3e-05,5e-05,6,10
29377,4e-05,2e-05,0,-3e-05,-0.00021,0.0006,-3e-05,5e-05,6,10
29378,4e-05,2e-05,0,-3e-05,-0.00021,0.0006,-3e-05,5e-05,6,10
29379,4e-05,2e-05,0,-3e-05,-0.00021,0.0006,-3e-05,5e-05,6,10
29380,4e-05,2e-05,0,-3e-05,-0.00021,0.0006,-3e-05,5e-05,6,10
29381,4e-05,2e-05,0,-3e-05,-0.00021,0.0006,-3e-05,5e-05,6,10
29382,4e-05,2e-05,0,-3e-05,-0.00021,0.0006,-3e-05,5e-05,6,10
29383,4e-05,2e-05,0,-3e-05,-0.00021,0.0006,-3e-05,5e-05,6,10
29384,4e-05,2e-05,0,-3e-05,-0.00021,0.0006,-3e-05,5e-05,6,10
29385,4e-05,2e-05,0,-3e-05,-0.00021,0.0006,-3e-05,5e-05,6,10
29386,4e-05,2e-05,0,-3e-05,-0.00021,0.0006,-3e-05,5e-05,6,10
29388,4e-05,2e-05,0,-3e-05,-0.00021,0.0006,-3e-05,5e-05,6,10
29390,4e-05,2e-05,0,-3e-05,-0.00021,0.0006,-3e-05,5e-05,6,10
29391,4e-05,2e-05,0,-3e-05,-0.00021,0.0006,-3e-05,5e-05,6,10
29392,-4e-05,0,1e-05,-3e-05,-0.00031,-0.00026,4e-05,-0.00019,6,10
29393,-4e-05,0,1e-05,-3e-05,-0.00031,-0.00026,4e-05,-0.00019,6,10
29395,-4e-05,0,1e-05,-3e-05,-0.00031,-0.00026,4e-05,-0.00019,6,10
29396,1e-05,3e-05,2e-05,2e-05,0.00011,-0.0002,-3e-05,-7e-05,6,10
29397,1e-05,3e-05,2e-05,2e-05,0.00011,-0.0002,-3e-05,-7e-05,6,10
29398,1e-05,3e-05,2e-05,2e-05,0.00011,-0.0002,-3e-05,-7e-05,6,10
29399,1e-05,3e-05,2e-05,2e-05,0.00011,-0.0002,-3e-05,-7e-05,6,10
29400,1e-05,3e-05,2e-05,2e-05,0.00011,-0.0002,-3e-05,-7e-05,6,10
29401,1e-05,3e-05,2e-05,2e-05,0.00011,-0.0002,-3e-05,-7e-05,6,10
29402,1e-05,3e-05,2e-05,2e-05,0.00011,-0.0002,-3e-05,-7e-05,6,10
29403,1e-05,3e-05,2e-05,2e-05,0.00011,-0.0002,-3e-05,-7e-05,6,10
29404,1e-05,3e-05,2e-05,2e-05,0.00011,-0.0002,-3e-05,-7e-05,6,10
29405,1e-05,3e-05,2e-05,2e-05,0.00011,-0.0002,-3e-05,-7e-05,6,10
29406,1e-05,3e-05,2e-05,2e-05,0.00011,-0.0002,-3e-05,-7e-05,6,10
29407,1e-05,3e-05,2e-05,2e-05,0.00011,-0.0002,-3e-05,-7e-05,6,10
29408,1e-05,3e-05,2e-05,2e-05,0.00011,-0.0002,-3e-05,-7e-05,6,10
29409,1e-05,3e-05,2e-05,2e-05,0.00011,-0.0002,-3e-05,-7e-05,6,10
29410,1e-05,3e-05,2e-05,2e-05,0.00011,-0.0002,-3e-05,-7e-05,6,10
29411,1e-05,3e-05,2e-05,2e-05,0.00011,-0.0002,-3e-05,-7e-05,6,10
29412,1e-05,3e-05,2e-05,2e-05,0.00011,-0.0002,-3e-05,-7e-05,6,10
29413,1e-05,3e-05,2e-05,2e-05,0.00011,-0.0002,-3e-05,-7e-05,6,10
29414,-8e-05,-6e-05,-8e-05,-0.0001,-0.00017,1e-05,-2e-05,-0.00022,6,10
29415,-8e-05,-6e-05,-8e-05,-0.0001,-0.00017,1e-05,-2e-05,-0.00022,6,10
29416,3e-05,1e-05,1e-05,-6e-05,-0.00021,-0.00032,-0.00017,0.00037,6,10
29417,3e-05,1e-05,1e-05,-6e-05,-0.00021,-0.00032,-0.00017,0.00037,6,10
29418,3e-05,1e-05,1e-05,-6e-05,-0.00021,-0.00032,-0.00017,0.00037,6,10
29419,3e-05,1e-05,1e-05,-6e-05,-0.00021,-0.00032,-0.00017,0.00037,6,10
29420,3e-05,1e-05,1e-05,-6e-05,-0.00021,-0.00032,-0.00017,0.00037,6,10
29421,3e-05,1e-05,1e-05,-6e-05,-0.00021,-0.00032,-0.00017,0.00037,6,10
29422,3e-05,1e-05,1e-05,-6e-05,-0.00021,-0.00032,-0.00017,0.00037,6,10
29423,3e-05,1e-05,1e-05,-6e-05,-0.00021,-0.00032,-0.00017,0.00037,6,10
29424,3e-05,1e-05,1e-05,-6e-05,-0.00021,-0.00032,-0.00017,0.00037,6,10
29425,3e-05,1e-05,1e-05,-6e-05,-0.00021,-0.00032,-0.00017,0.00037,6,10
29426,3e-05,1e-05,1e-05,-6e-05,-0.00021,-0.00032,-0.00017,0.00037,6,10
29427,3e-05,1e-05,1e-05,-6e-05,-0.00021,-0.00032,-0.00017,0.00037,6,10
29428,3e-05,-4e-05,-4e-05,6e-05,0.00013,0.00035,4e-05,8e-05,6,10
29429,3e-05,-4e-05,-4e-05,6e-05,0.00013,0.00035,4e-05,8e-05,6,10
29430,3e-05,-4e-05,-4e-05,6e-05,0.00013,0.00035,4e-05,8e-05,6,10
29431,3e-05,-4e-05,-4e-05,6e-05,0.00013,0.00035,4e-05,8e-05,6,10
29432,3e-05,-4e-05,-4e-05,6e-05,0.00013,0.00035,4e-05,8e-05,6,10
29433,3e-05,-4e-05,-4e-05,6e-05,0.00013,0.00035,4e-05,8e-05,6,10
29434,3e-05,-4e-05,-4e-05,6e-05,0.00013,0.00035,4e-05,8e-05,6,10
29435,3e-05,-4e-05,-4e-05,6e-05,0.00013,0.00035,4e-05,8e-05,6,10
29436,3e-05,-4e-05,-4e-05,6e-05,0.00013,0.00035,4e-05,8e-05,6,10
29439,3e-05,-4e-05,-4e-05,6e-05,0.00013,0.00035,4e-05,8e-05,6,10
29440,3e-05,-4e-05,-4e-05,6e-05,0.00013,0.00035,4e-05,8e-05,6,10
29441,3e-05,-4e-05,-4e-05,6e-05,0.00013,0.00035,4e-05,8e-05,6,10
29442,3e-05,-4e-05,-4e-05,6e-05,0.00013,0.00035,4e-05,8e-05,6,10
29443,0.00015,4e-05,6e-05,0.0001,0.0002,0.00036,-8e-05,-0.00021,6,10
29444,0.00015,4e-05,6e-05,0.0001,0.0002,0.00036,-8e-05,-0.00021,6,10
29445,0.00015,4e-05,6e-05,0.0001,0.0002,0.00036,-8e-05,-0.00021,6,10
29446,0.00015,4e-05,6e-05,0.0001,0.0002,0.00036,-8e-05,-0.00021,6,10
29447,0.00015,4e-05,6e-05,0.0001,0.0002,0.00036,-8e-05,-0.00021,6,10
29448,0.00015,4e-05,6e-05,0.0001,0.0002,0.00036,-8e-05,-0.00021,6,10
29449,0.00015,4e-05,6e-05,0.0001,0.0002,0.00036,-8e-05,-0.00021,6,10
29450,0.00015,4e-05,6e-05,0.0001,0.0002,0.00036,-8e-05,-0.00021,6,10
29451,0.00015,4e-05,6e-05,0.0001,0.0002,0.00036,-8e-05,-0.00021,6,10
29452,5e-05,2e-05,2e-05,2e-05,0.00015,-8e-05,-5e-05,0.00026,6,10
29453,-7e-05,-5e-05,-4e-05,-4e-05,0.00017,-0.00018,5e-05,-0.00017,6,10
29454,-7e-05,-5e-05,-4e-05,-4e-05,0.00017,-0.00018,5e-05,-0.00017,6,10
29455,-7e-05,-5e-05,-4e-05,-4e-05,0.00017,-0.00018,5e-05,-0.00017,6,10
29456,-7e-05,-5e-05,-4e-05,-4e-05,0.00017,-0.00018,5e-05,-0.00017,6,10
29457,-7e-05,-5e-05,-4e-05,-4e-05,0.00017,-0.00018,5e-05,-0.00017,6,10
29458,-7e-05,-5e-05,-4e-05,-4e-05,0.00017,-0.00018,5e-05,-0.00017,6,10
29459,-7e-05,-5e-05,-4e-05,-4e-05,0.00017,-0.00018,5e-05,-0.00017,6,10
29460,-7e-05,-5e-05,-4e-05,-4e-05,0.00017,-0.00018,5e-05,-0.00017,6,10
29461,-7e-05,-5e-05,-4e-05,-4e-05,0.00017,-0.00018,5e-05,-0.00017,6,10
29462,-7e-05,-5e-05,-4e-05,-4e-05,0.00017,-0.00018,5e-05,-0.00017,6,10
29463,-7e-05,-5e-05,-4e-05,-4e-05,0.00017,-0.00018,5e-05,-0.00017,6,10
29464,-7e-05,-5e-05,-4e-05,-4e-05,0.00017,-0.00018,5e-05,-0.00017,6,10
29465,-7e-05,-5e-05,-4e-05,-4e-05,0.00017,-0.00018,5e-05,-0.00017,6,10
29466,-7e-05,-5e-05,-4e-05,-4e-05,0.00017,-0.00018,5e-05,-0.00017,6,10
29467,-7e-05,-5e-05,-4e-05,-4e-05,0.00017,-0.00018,5e-05,-0.00017,6,10
29468,-7e-05,-5e-05,-4e-05,-4e-05,0.00017,-0.00018,5e-05,-0.00017,6,10
29469,-7e-05,-5e-05,-4e-05,-4e-05,0.00017,-0.00018,5e-05,-0.00017,6,10
29470,-7e-05,-5e-05,-4e-05,-4e-05,0.00017,-0.00018,5e-05,-0.00017,6,10
29471,-7e-05,-5e-05,-4e-05,-4e-05,0.00017,-0.00018,5e-05,-0.00017,6,10
29472,-7e-05,-5e-05,-4e-05,-4e-05,0.00017,-0.00018,5e-05,-0.00017,6,10
29473,-7e-05,-5e-05,-4e-05,-4e-05,0.00017,-0.00018,5e-05,-0.00017,6,10
29474,-7e-05,-5e-05,-4e-05,-4e-05,0.00017,-0.00018,5e-05,-0.00017,6,10
29475,-7e-05,-5e-05,-4e-05,-4e-05,0.00017,-0.00018,5e-05,-0.00017,6,10
29476,-7e-05,-5e-05,-4e-05,-4e-05,0.00017,-0.00018,5e-05,-0.00017,6,10
29477,-7e-05,-5e-05,-4e-05,-4e-05,0.00017,-0.00018,5e-05,-0.00017,6,10
29478,-7e-05,-5e-05,-4e-05,-4e-05,0.00017,-0.00018,5e-05,-0.00017,6,10
29479,-7e-05,-5e-05,-4e-05,-4e-05,0.00017,-0.00018,5e-05,-0.00017,6,10
29480,-7e-05,-5e-05,-4e-05,-4e-05,0.00017,-0.00018,5e-05,-0.00017,6,10
29481,-7e-05,-5e-05,-4e-05,-4e-05,0.00017,-0.00018,5e-05,-0.00017,6,10
29482,6e-05,6e-05,7e-05,0,-5e-05,-0.0002,4e-05,2e-05,6,10
29483,6e-05,6e-05,7e-05,0,-5e-05,-0.0002,4e-05,2e-05,6,10
29484,6e-05,6e-05,7e-05,0,-5e-05,-0.0002,4e-05,2e-05,6,10
29485,6e-05,6e-05,7e-05,0,-5e-05,-0.0002,4e-05,2e-05,6,10
29486,6e-05,6e-05,7e-05,0,-5e-05,-0.0002,4e-05,2e-05,6,10
29489,-5e-05,-6e-05,-5e-05,8e-05,-1e-05,-0.00092,-4e-05,-3e-05,6,10
29490,-6e-05,-3e-05,-5e-05,-0.00019,-0.00038,-0.00019,-0.0002,-0.00028,6,10
29491,-6e-05,-3e-05,-5e-05,-0.00019,-0.00038,-0.00019,-0.0002,-0.00028,6,10
29492,-6e-05,-3e-05,-5e-05,-0.00019,-0.00038,-0.00019,-0.0002,-0.00028,6,10
29493,-6e-05,-3e-05,-5e-05,-0.00019,-0.00038,-0.00019,-0.0002,-0.00028,6,10
29494,-6e-05,-3e-05,-5e-05,-0.00019,-0.00038,-0.00019,-0.0002,-0.00028,6,10
29495,-6e-05,-3e-05,-5e-05,-0.00019,-0.00038,-0.00019,-0.0002,-0.00028,6,10
29496,-8e-05,-5e-05,1e-05,2e-05,6e-05,0.00032,-9e-05,-0.00035,6,10
29497,-8e-05,-5e-05,1e-05,2e-05,6e-05,0.00032,-9e-05,-0.00035,6,10
29498,-8e-05,-5e-05,1e-05,2e-05,6e-05,0.00032,-9e-05,-0.00035,6,10
29499,-8e-05,-5e-05,1e-05,2e-05,6e-05,0.00032,-9e-05,-0.00035,6,10
29500,-8e-05,-5e-05,1e-05,2e-05,6e-05,0.00032,-9e-05,-0.00035,6,10
29501,-8e-05,-5e-05,1e-05,2e-05,6e-05,0.00032,-9e-05,-0.00035,6,10
29502,-8e-05,-5e-05,1e-05,2e-05,6e-05,0.00032,-9e-05,-0.00035,6,10
29503,-8e-05,-5e-05,1e-05,2e-05,6e-05,0.00032,-9e-05,-0.00035,6,10
29504,-8e-05,-5e-05,1e-05,2e-05,6e-05,0.00032,-9e-05,-0.00035,6,10
29505,-8e-05,-5e-05,1e-05,2e-05,6e-05,0.00032,-9e-05,-0.00035,6,10
29506,-8e-05,-5e-05,1e-05,2e-05,6e-05,0.00032,-9e-05,-0.00035,6,10
29507,-8e-05,-5e-05,1e-05,2e-05,6e-05,0.00032,-9e-05,-0.00035,6,10
29508,-8e-05,-5e-05,1e-05,2e-05,6e-05,0.00032,-9e-05,-0.00035,6,10
29509,-8e-05,-5e-05,1e-05,2e-05,6e-05,0.00032,-9e-05,-0.00035,6,10
29510,-8e-05,-5e-05,1e-05,2e-05,6e-05,0.00032,-9e-05,-0.00035,6,10
29511,-8e-05,-5e-05,1e-05,2e-05,6e-05,0.00032,-9e-05,-0.00035,6,10
29512,4e-05,4e-05,4e-05,0.00015,0.00064,0.00051,0.00012,0.00017,6,10
29513,-4e-05,0,-1e-05,-4e-05,-0.00051,-0.00066,-0.00031,-0.00017,6,10
29514,-4e-05,0,-1e-05,-4e-05,-0.00051,-0.00066,-0.00031,-0.00017,6,10
29515,-4e-05,0,-1e-05,-4e-05,-0.00051,-0.00066,-0.00031,-0.00017,6,10
29516,-4e-05,0,-1e-05,-4e-05,-0.00051,-0.00066,-0.00031,-0.00017,6,10
29517,-4e-05,0,-1e-05,-4e-05,-0.00051,-0.00066,-0.00031,-0.00017,6,10
29518,-4e-05,0,-1e-05,-4e-05,-0.00051,-0.00066,-0.00031,-0.00017,6,10
29519,-4e-05,0,-1e-05,-4e-05,-0.00051,-0.00066,-0.00031,-0.00017,6,10
29520,-4e-05,0,-1e-05,-4e-05,-0.00051,-0.00066,-0.00031,-0.00017,6,10
29521,-4e-05,0,-1e-05,-4e-05,-0.00051,-0.00066,-0.00031,-0.00017,6,10
29522,-4e-05,0,-1e-05,-4e-05,-0.00051,-0.00066,-0.00031,-0.00017,6,10
29523,-4e-05,0,-1e-05,-4e-05,-0.00051,-0.00066,-0.00031,-0.00017,6,10
29524,-4e-05,0,-1e-05,-4e-05,-0.00051,-0.00066,-0.00031,-0.00017,6,10
29525,-4e-05,0,-1e-05,-4e-05,-0.00051,-0.00066,-0.00031,-0.00017,6,10
29526,-4e-05,0,-1e-05,-4e-05,-0.00051,-0.00066,-0.00031,-0.00017,6,10
29527,-4e-05,0,-1e-05,-4e-05,-0.00051,-0.00066,-0.00031,-0.00017,6,10
29528,-4e-05,0,-1e-05,-4e-05,-0.00051,-0.00066,-0.00031,-0.00017,6,10
29529,-4e-05,0,-1e-05,-4e-05,-0.00051,-0.00066,-0.00031,-0.00017,6,10
29530,-4e-05,0,-1e-05,-4e-05,-0.00051,-0.00066,-0.00031,-0.00017,6,10
29531,-4e-05,0,-1e-05,-4e-05,-0.00051,-0.00066,-0.00031,-0.00017,6,10
29532,-4e-05,0,-1e-05,-4e-05,-0.00051,-0.00066,-0.00031,-0.00017,6,10
29533,-4e-05,0,-1e-05,-4e-05,-0.00051,-0.00066,-0.00031,-0.00017,6,10
29535,-4e-05,-1e-05,0,-8e-05,-5e-05,-4e-05,-7e-05,-0.00066,6,10
29536,-3e-05,-6e-05,-6e-05,-6e-05,-8e-05,-0.00028,5e-05,0.00057,6,10
29539,7e-05,2e-05,0,-1e-05,0.00015,0.00027,8e-05,0.00022,6,10
29540,7e-05,2e-05,0,-1e-05,0.00015,0.00027,8e-05,0.00022,6,10
29541,7e-05,2e-05,0,-1e-05,0.00015,0.00027,8e-05,0.00022,6,10
29542,7e-05,2e-05,0,-1e-05,0.00015,0.00027,8e-05,0.00022,6,10
29543,7e-05,2e-05,0,-1e-05,0.00015,0.00027,8e-05,0.00022,6,10
29544,7e-05,2e-05,0,-1e-05,0.00015,0.00027,8e-05,0.00022,6,10
29545,7e-05,2e-05,0,-1e-05,0.00015,0.00027,8e-05,0.00022,6,10
29546,7e-05,2e-05,0,-1e-05,0.00015,0.00027,8e-05,0.00022,6,10
29547,7e-05,2e-05,0,-1e-05,0.00015,0.00027,8e-05,0.00022,6,10
29548,-0.00012,-3e-05,-4e-05,-5e-05,0.00012,-0.00061,-5e-05,-0.00055,6,10
29549,-0.00012,-3e-05,-4e-05,-5e-05,0.00012,-0.00061,-5e-05,-0.00055,6,10
29550,-0.00012,-3e-05,-4e-05,-5e-05,0.00012,-0.00061,-5e-05,-0.00055,6,10
29551,-0.00012,-3e-05,-4e-05,-5e-05,0.00012,-0.00061,-5e-05,-0.00055,6,10
29552,-0.00012,-3e-05,-4e-05,-5e-05,0.00012,-0.00061,-5e-05,-0.00055,6,10
29553,-0.00012,-3e-05,-4e-05,-5e-05,0.00012,-0.00061,-5e-05,-0.00055,6,10
29554,-0.00012,-3e-05,-4e-05,-5e-05,0.00012,-0.00061,-5e-05,-0.00055,6,10
29555,-0.00012,-3e-05,-4e-05,-5e-05,0.00012,-0.00061,-5e-05,-0.00055,6,10
29556,-0.00012,-3e-05,-4e-05,-5e-05,0.00012,-0.00061,-5e-05,-0.00055,6,10
29557,-1e-05,1e-05,1e-05,-1e-05,0.00017,7e-05,8e-05,2e-05,6,10
29558,-1e-05,1e-05,1e-05,-1e-05,0.00017,7e-05,8e-05,2e-05,6,10
29559,-1e-05,1e-05,1e-05,-1e-05,0.00017,7e-05,8e-05,2e-05,6,10
29560,-1e-05,1e-05,1e-05,-1e-05,0.00017,7e-05,8e-05,2e-05,6,10
29561,-1e-05,1e-05,1e-05,-1e-05,0.00017,7e-05,8e-05,2e-05,6,10
29562,-1e-05,1e-05,1e-05,-1e-05,0.00017,7e-05,8e-05,2e-05,6,10
29563,-1e-05,1e-05,1e-05,-1e-05,0.00017,7e-05,8e-05,2e-05,6,10
29564,-1e-05,1e-05,1e-05,-1e-05,0.00017,7e-05,8e-05,2e-05,6,10
29565,-1e-05,1e-05,1e-05,-1e-05,0.00017,7e-05,8e-05,2e-05,6,10
29566,-1e-05,1e-05,1e-05,-1e-05,0.00017,7e-05,8e-05,2e-05,6,10
29567,-1e-05,1e-05,1e-05,-1e-05,0.00017,7e-05,8e-05,2e-05,6,10
29568,-1e-05,1e-05,1e-05,-1e-05,0.00017,7e-05,8e-05,2e-05,6,10
29569,-1e-05,1e-05,1e-05,-1e-05,0.00017,7e-05,8e-05,2e-05,6,10
29570,-1e-05,1e-05,1e-05,-1e-05,0.00017,7e-05,8e-05,2e-05,6,10
29571,-1e-05,1e-05,1e-05,-1e-05,0.00017,7e-05,8e-05,2e-05,6,10
29572,3e-05,-1e-05,-3e-05,2e-05,0.0001,0.00017,0.00015,0.00037,6,10
29573,4e-05,5e-05,7e-05,0.0001,0.00028,-3e-05,-0.00021,0.00015,6,10
29574,-3e-05,-4e-05,-4e-05,-8e-05,-9e-05,0.00013,-7e-05,4e-05,6,10
29575,-3e-05,-4e-05,-4e-05,-8e-05,-9e-05,0.00013,-7e-05,4e-05,6,10
29576,-3e-05,-4e-05,-4e-05,-8e-05,-9e-05,0.00013,-7e-05,4e-05,6,10
29577,-3e-05,-4e-05,-4e-05,-8e-05,-9e-05,0.00013,-7e-05,4e-05,6,10
29578,-3e-05,-4e-05,-4e-05,-8e-05,-9e-05,0.00013,-7e-05,4e-05,6,10
29579,-3e-05,-4e-05,-4e-05,-8e-05,-9e-05,0.00013,-7e-05,4e-05,6,10
29580,-3e-05,-4e-05,-4e-05,-8e-05,-9e-05,0.00013,-7e-05,4e-05,6,10
29581,-3e-05,-4e-05,-4e-05,-8e-05,-9e-05,0.00013,-7e-05,4e-05,6,10
29582,-3e-05,-4e-05,-4e-05,-8e-05,-9e-05,0.00013,-7e-05,4e-05,6,10
29583,-3e-05,-4e-05,-4e-05,-8e-05,-9e-05,0.00013,-7e-05,4e-05,6,10
29584,-3e-05,-4e-05,-4e-05,-8e-05,-9e-05,0.00013,-7e-05,4e-05,6,10
29585,-3e-05,-4e-05,-4e-05,-8e-05,-9e-05,0.00013,-7e-05,4e-05,6,10
29586,-3e-05,-4e-05,-4e-05,-8e-05,-9e-05,0.00013,-7e-05,4e-05,6,10
29589,-3e-05,-4e-05,-4e-05,-8e-05,-9e-05,0.00013,-7e-05,4e-05,6,10
29590,-3e-05,-4e-05,-4e-05,-8e-05,-9e-05,0.00013,-7e-05,4e-05,6,10
29591,-3e-05,-4e-05,-4e-05,-8e-05,-9e-05,0.00013,-7e-05,4e-05,6,10
29592,-3e-05,-4e-05,-4e-05,-8e-05,-9e-05,0.00013,-7e-05,4e-05,6,10
29593,-3e-05,-4e-05,-4e-05,-8e-05,-9e-05,0.00013,-7e-05,4e-05,6,10
29594,1e-05,0,-2e-05,3e-05,0.00014,0.00058,0.0002,5e-05,6,10
29595,1e-05,1e-05,4e-05,7e-05,-3e-05,0.00032,8e-05,0.00036,6,10
29596,1e-05,1e-05,4e-05,7e-05,-3e-05,0.00032,8e-05,0.00036,6,10
29597,1e-05,1e-05,4e-05,7e-05,-3e-05,0.00032,8e-05,0.00036,6,10
29598,1e-05,1e-05,4e-05,7e-05,-3e-05,0.00032,8e-05,0.00036,6,10
29599,1e-05,1e-05,4e-05,7e-05,-3e-05,0.00032,8e-05,0.00036,6,10
29600,1e-05,1e-05,4e-05,7e-05,-3e-05,0.00032,8e-05,0.00036,6,10
29601,1e-05,1e-05,4e-05,7e-05,-3e-05,0.00032,8e-05,0.00036,6,10
29602,1e-05,3e-05,3e-05,0.00017,0.00013,0.00051,0.00034,0.00041,6,10
29603,1e-05,3e-05,3e-05,0.00017,0.00013,0.00051,0.00034,0.00041,6,10
29604,1e-05,3e-05,3e-05,0.00017,0.00013,0.00051,0.00034,0.00041,6,10
29605,1e-05,3e-05,3e-05,0.00017,0.00013,0.00051,0.00034,0.00041,6,10
29606,1e-05,3e-05,3e-05,0.00017,0.00013,0.00051,0.00034,0.00041,6,10
29607,1e-05,3e-05,3e-05,0.00017,0.00013,0.00051,0.00034,0.00041,6,10
29608,0,1e-05,0,0,1e-05,2e-05,-0.0001,-0.00021,6,10
29609,0,1e-05,0,0,1e-05,2e-05,-0.0001,-0.00021,6,10
29610,0,1e-05,0,0,1e-05,2e-05,-0.0001,-0.00021,6,10
29611,0,1e-05,0,0,1e-05,2e-05,-0.0001,-0.00021,6,10
29612,0,1e-05,0,0,1e-05,2e-05,-0.0001,-0.00021,6,10
29613,0,1e-05,0,0,1e-05,2e-05,-0.0001,-0.00021,6,10
29614,0,1e-05,0,0,1e-05,2e-05,-0.0001,-0.00021,6,10
29615,0,1e-05,0,0,1e-05,2e-05,-0.0001,-0.00021,6,10
29616,0,1e-05,0,0,1e-05,2e-05,-0.0001,-0.00021,6,10
29617,-2e-05,-5e-05,-4e-05,-0.00011,-0.0001,-0.00016,-0.00016,-5e-05,6,10
29618,-2e-05,-5e-05,-4e-05,-0.00011,-0.0001,-0.00016,-0.00016,-5e-05,6,10
29619,-2e-05,-5e-05,-4e-05,-0.00011,-0.0001,-0.00016,-0.00016,-5e-05,6,10
29620,-2e-05,-5e-05,-4e-05,-0.00011,-0.0001,-0.00016,-0.00016,-5e-05,6,10
29621,-2e-05,-5e-05,-4e-05,-0.00011,-0.0001,-0.00016,-0.00016,-5e-05,6,10
29622,-2e-05,-5e-05,-4e-05,-0.00011,-0.0001,-0.00016,-0.00016,-5e-05,6,10
29623,-2e-05,-5e-05,-4e-05,-0.00011,-0.0001,-0.00016,-0.00016,-5e-05,6,10
29624,-2e-05,-5e-05,-4e-05,-0.00011,-0.0001,-0.00016,-0.00016,-5e-05,6,10
29625,-2e-05,-5e-05,-4e-05,-0.00011,-0.0001,-0.00016,-0.00016,-5e-05,6,10
29626,-2e-05,-5e-05,-4e-05,-0.00011,-0.0001,-0.00016,-0.00016,-5e-05,6,10
29627,-2e-05,-5e-05,-4e-05,-0.00011,-0.0001,-0.00016,-0.00016,-5e-05,6,10
29628,-2e-05,-5e-05,-4e-05,-0.00011,-0.0001,-0.00016,-0.00016,-5e-05,6,10
29629,-2e-05,-5e-05,-4e-05,-0.00011,-0.0001,-0.00016,-0.00016,-5e-05,6,10
29630,-2e-05,-5e-05,-4e-05,-0.00011,-0.0001,-0.00016,-0.00016,-5e-05,6,10
29631,-2e-05,-5e-05,-4e-05,-0.00011,-0.0001,-0.00016,-0.00016,-5e-05,6,10
29632,-2e-05,-5e-05,-4e-05,-0.00011,-0.0001,-0.00016,-0.00016,-5e-05,6,10
29633,-2e-05,-5e-05,-4e-05,-0.00011,-0.0001,-0.00016,-0.00016,-5e-05,6,10
29634,-2e-05,-5e-05,-4e-05,-0.00011,-0.0001,-0.00016,-0.00016,-5e-05,6,10
29635,-2e-05,-5e-05,-4e-05,-0.00011,-0.0001,-0.00016,-0.00016,-5e-05,6,10
29636,-2e-05,-5e-05,-4e-05,-0.00011,-0.0001,-0.00016,-0.00016,-5e-05,6,10
29639,-2e-05,-5e-05,-4e-05,-0.00011,-0.0001,-0.00016,-0.00016,-5e-05,6,10
29640,1e-05,-1e-05,0,0.00014,0.00043,-7e-05,6e-05,0.00029,6,10
29641,-4e-05,-8e-05,-0.00013,-0.00022,-0.00058,-0.0004,7e-05,-8e-05,6,10
29642,-4e-05,-8e-05,-0.00013,-0.00022,-0.00058,-0.0004,7e-05,-8e-05,6,10
29643,-4e-05,-8e-05,-0.00013,-0.00022,-0.00058,-0.0004,7e-05,-8e-05,6,10
29644,-4e-05,-8e-05,-0.00013,-0.00022,-0.00058,-0.0004,7e-05,-8e-05,6,10
29645,-4e-05,-8e-05,-0.00013,-0.00022,-0.00058,-0.0004,7e-05,-8e-05,6,10
29646,-4e-05,-8e-05,-0.00013,-0.00022,-0.00058,-0.0004,7e-05,-8e-05,6,10
29647,-4e-05,-8e-05,-0.00013,-0.00022,-0.00058,-0.0004,7e-05,-8e-05,6,10
29648,-4e-05,-8e-05,-0.00013,-0.00022,-0.00058,-0.0004,7e-05,-8e-05,6,10
29649,-4e-05,-8e-05,-0.00013,-0.00022,-0.00058,-0.0004,7e-05,-8e-05,6,10
29650,-4e-05,-8e-05,-0.00013,-0.00022,-0.00058,-0.0004,7e-05,-8e-05,6,10
29651,-4e-05,-8e-05,-0.00013,-0.00022,-0.00058,-0.0004,7e-05,-8e-05,6,10
29652,-4e-05,-8e-05,-0.00013,-0.00022,-0.00058,-0.0004,7e-05,-8e-05,6,10
29653,-4e-05,-8e-05,-0.00013,-0.00022,-0.00058,-0.0004,7e-05,-8e-05,6,10
29654,-9e-05,-8e-05,-9e-05,-0.00013,-0.00024,-0.00044,-3e-05,-0.00014,6,10
29655,-9e-05,-8e-05,-9e-05,-0.00013,-0.00024,-0.00044,-3e-05,-0.00014,6,10
29656,-6e-05,-4e-05,-4e-05,3e-05,0.00041,0.00013,6e-05,7e-05,6,10
29657,-6e-05,-4e-05,-4e-05,3e-05,0.00041,0.00013,6e-05,7e-05,6,10
29658,-6e-05,-4e-05,-4e-05,3e-05,0.00041,0.00013,6e-05,7e-05,6,10
29659,-6e-05,-4e-05,-4e-05,3e-05,0.00041,0.00013,6e-05,7e-05,6,10
29660,-6e-05,-4e-05,-4e-05,3e-05,0.00041,0.00013,6e-05,7e-05,6,10
29661,-6e-05,-4e-05,-4e-05,3e-05,0.00041,0.00013,6e-05,7e-05,6,10
29662,-6e-05,-4e-05,-4e-05,3e-05,0.00041,0.00013,6e-05,7e-05,6,10
29663,-6e-05,-4e-05,-4e-05,3e-05,0.00041,0.00013,6e-05,7e-05,6,10
29664,-6e-05,-4e-05,-4e-05,3e-05,0.00041,0.00013,6e-05,7e-05,6,10
29665,-6e-05,-4e-05,-4e-05,3e-05,0.00041,0.00013,6e-05,7e-05,6,10
29666,-6e-05,-4e-05,-4e-05,3e-05,0.00041,0.00013,6e-05,7e-05,6,10
29667,-6e-05,-4e-05,-4e-05,3e-05,0.00041,0.00013,6e-05,7e-05,6,10
29668,4e-05,2e-05,1e-05,3e-05,-0.00011,0.00023,0.00012,0.00028,6,10
29669,4e-05,2e-05,1e-05,3e-05,-0.00011,0.00023,0.00012,0.00028,6,10
29670,4e-05,2e-05,1e-05,3e-05,-0.00011,0.00023,0.00012,0.00028,6,10
29671,4e-05,2e-05,1e-05,3e-05,-0.00011,0.00023,0.00012,0.00028,6,10
29672,4e-05,2e-05,1e-05,3e-05,-0.00011,0.00023,0.00012,0.00028,6,10
29673,4e-05,2e-05,1e-05,3e-05,-0.00011,0.00023,0.00012,0.00028,6,10
29674,4e-05,2e-05,1e-05,3e-05,-0.00011,0.00023,0.00012,0.00028,6,10
29675,4e-05,2e-05,1e-05,3e-05,-0.00011,0.00023,0.00012,0.00028,6,10
29676,4e-05,2e-05,1e-05,3e-05,-0.00011,0.00023,0.00012,0.00028,6,10
29677,-8e-05,-2e-05,1e-05,4e-05,-0.00012,0.00023,0,-4e-05,6,10
29678,-8e-05,-2e-05,1e-05,4e-05,-0.00012,0.00023,0,-4e-05,6,10
29679,-8e-05,-2e-05,1e-05,4e-05,-0.00012,0.00023,0,-4e-05,6,10
29680,-8e-05,-2e-05,1e-05,4e-05,-0.00012,0.00023,0,-4e-05,6,10
29681,-8e-05,-2e-05,1e-05,4e-05,-0.00012,0.00023,0,-4e-05,6,10
29682,-8e-05,-2e-05,1e-05,4e-05,-0.00012,0.00023,0,-4e-05,6,10
29683,-8e-05,-2e-05,1e-05,4e-05,-0.00012,0.00023,0,-4e-05,6,10
29684,-8e-05,-2e-05,1e-05,4e-05,-0.00012,0.00023,0,-4e-05,6,10
29685,-8e-05,-2e-05,1e-05,4e-05,-0.00012,0.00023,0,-4e-05,6,10
29686,-8e-05,-2e-05,1e-05,4e-05,-0.00012,0.00023,0,-4e-05,6,10
29689,-8e-05,-2e-05,1e-05,4e-05,-0.00012,0.00023,0,-4e-05,6,10
29690,-8e-05,-2e-05,1e-05,4e-05,-0.00012,0.00023,0,-4e-05,6,10
29691,-8e-05,-2e-05,1e-05,4e-05,-0.00012,0.00023,0,-4e-05,6,10
29692,0,0,-1e-05,-1e-05,9e-05,-0.00038,6e-05,0.0003,6,10
29693,0,0,-1e-05,-1e-05,9e-05,-0.00038,6e-05,0.0003,6,10
29694,4e-05,1e-05,3e-05,1e-05,4e-05,-0.00033,-0.0001,0.00036,6,10
29695,4e-05,1e-05,3e-05,1e-05,4e-05,-0.00033,-0.0001,0.00036,6,10
29696,4e-05,1e-05,3e-05,1e-05,4e-05,-0.00033,-0.0001,0.00036,6,10
29697,4e-05,1e-05,3e-05,1e-05,4e-05,-0.00033,-0.0001,0.00036,6,10
29698,4e-05,1e-05,3e-05,1e-05,4e-05,-0.00033,-0.0001,0.00036,6,10
29699,4e-05,1e-05,3e-05,1e-05,4e-05,-0.00033,-0.0001,0.00036,6,10
29700,4e-05,1e-05,3e-05,1e-05,4e-05,-0.00033,-0.0001,0.00036,6,10
29701,4e-05,1e-05,3e-05,1e-05,4e-05,-0.00033,-0.0001,0.00036,6,10
29702,4e-05,1e-05,3e-05,1e-05,4e-05,-0.00033,-0.0001,0.00036,6,10
29703,4e-05,1e-05,3e-05,1e-05,4e-05,-0.00033,-0.0001,0.00036,6,10
29704,4e-05,1e-05,3e-05,1e-05,4e-05,-0.00033,-0.0001,0.00036,6,10
29705,4e-05,1e-05,3e-05,1e-05,4e-05,-0.00033,-0.0001,0.00036,6,10
29706,4e-05,1e-05,3e-05,1e-05,4e-05,-0.00033,-0.0001,0.00036,6,10
29707,4e-05,1e-05,3e-05,1e-05,4e-05,-0.00033,-0.0001,0.00036,6,10
29708,4e-05,1e-05,3e-05,1e-05,4e-05,-0.00033,-0.0001,0.00036,6,10
29709,4e-05,1e-05,3e-05,1e-05,4e-05,-0.00033,-0.0001,0.00036,6,10
29710,4e-05,1e-05,3e-05,1e-05,4e-05,-0.00033,-0.0001,0.00036,6,10
29711,4e-05,1e-05,3e-05,1e-05,4e-05,-0.00033,-0.0001,0.00036,6,10
29712,4e-05,1e-05,3e-05,1e-05,4e-05,-0.00033,-0.0001,0.00036,6,10
29713,-0.00011,-4e-05,-3e-05,2e-05,4e-05,0.00058,9e-05,-0.00069,6,10
29714,0,-4e-05,-6e-05,-0.00012,-0.00029,0.00027,-6e-05,3e-05,6,10
29715,0,-4e-05,-6e-05,-0.00012,-0.00029,0.00027,-6e-05,3e-05,6,10
29716,0,-4e-05,-6e-05,-0.00012,-0.00029,0.00027,-6e-05,3e-05,6,10
29717,0,-4e-05,-6e-05,-0.00012,-0.00029,0.00027,-6e-05,3e-05,6,10
29718,0,-4e-05,-6e-05,-0.00012,-0.00029,0.00027,-6e-05,3e-05,6,10
29719,0,-4e-05,-6e-05,-0.00012,-0.00029,0.00027,-6e-05,3e-05,6,10
29720,0,-4e-05,-6e-05,-0.00012,-0.00029,0.00027,-6e-05,3e-05,6,10
29721,0,-4e-05,-6e-05,-0.00012,-0.00029,0.00027,-6e-05,3e-05,6,10
29722,0,-4e-05,-6e-05,-0.00012,-0.00029,0.00027,-6e-05,3e-05,6,10
29723,0,-1e-05,0,-5e-05,-9e-05,-0.00051,-8e-05,-8e-05,6,10
29724,0,-1e-05,0,-5e-05,-9e-05,-0.00051,-8e-05,-8e-05,6,10
29725,0,-1e-05,0,-5e-05,-9e-05,-0.00051,-8e-05,-8e-05,6,10
29726,0,-1e-05,0,-5e-05,-9e-05,-0.00051,-8e-05,-8e-05,6,10
29727,0,-1e-05,0,-5e-05,-9e-05,-0.00051,-8e-05,-8e-05,6,10
29728,0,-1e-05,0,-5e-05,-9e-05,-0.00051,-8e-05,-8e-05,6,10
29729,0,-1e-05,0,-5e-05,-9e-05,-0.00051,-8e-05,-8e-05,6,10
29730,0,-1e-05,0,-5e-05,-9e-05,-0.00051,-8e-05,-8e-05,6,10
29731,0,-1e-05,0,-5e-05,-9e-05,-0.00051,-8e-05,-8e-05,6,10
29732,0,-1e-05,0,-5e-05,-9e-05,-0.00051,-8e-05,-8e-05,6,10
29733,0,-1e-05,0,-5e-05,-9e-05,-0.00051,-8e-05,-8e-05,6,10
29734,0,-1e-05,0,-5e-05,-9e-05,-0.00051,-8e-05,-8e-05,6,10
29735,0,-1e-05,0,-5e-05,-9e-05,-0.00051,-8e-05,-8e-05,6,10
29736,-2e-05,-5e-05,-6e-05,-4e-05,4e-05,0.00015,-7e-05,0.00019,6,10
29740,-2e-05,-1e-05,-2e-05,-9e-05,-0.00016,9e-05,-0.00011,-0.00067,6,10
29741,-2e-05,-1e-05,-2e-05,-9e-05,-0.00016,9e-05,-0.00011,-0.00067,6,10
29742,-2e-05,-1e-05,-2e-05,-9e-05,-0.00016,9e-05,-0.00011,-0.00067,6,10
29743,-2e-05,-1e-05,-2e-05,-9e-05,-0.00016,9e-05,-0.00011,-0.00067,6,10
29744,-2e-05,-1e-05,-2e-05,-9e-05,-0.00016,9e-05,-0.00011,-0.00067,6,10
29745,-2e-05,-1e-05,-2e-05,-9e-05,-0.00016,9e-05,-0.00011,-0.00067,6,10
29746,-2e-05,-1e-05,-2e-05,-9e-05,-0.00016,9e-05,-0.00011,-0.00067,6,10
29747,-2e-05,-1e-05,-2e-05,-9e-05,-0.00016,9e-05,-0.00011,-0.00067,6,10
29748,-2e-05,-1e-05,-2e-05,-9e-05,-0.00016,9e-05,-0.00011,-0.00067,6,10
29749,-2e-05,-1e-05,-2e-05,-9e-05,-0.00016,9e-05,-0.00011,-0.00067,6,10
29750,-2e-05,-1e-05,-2e-05,-9e-05,-0.00016,9e-05,-0.00011,-0.00067,6,10
29751,-2e-05,-1e-05,-2e-05,-9e-05,-0.00016,9e-05,-0.00011,-0.00067,6,10
29752,-2e-05,-1e-05,-2e-05,-9e-05,-0.00016,9e-05,-0.00011,-0.00067,6,10
29753,-2e-05,-1e-05,-2e-05,-9e-05,-0.00016,9e-05,-0.00011,-0.00067,6,10
29754,-2e-05,-1e-05,-2e-05,-9e-05,-0.00016,9e-05,-0.00011,-0.00067,6,10
29755,-2e-05,-1e-05,-2e-05,-9e-05,-0.00016,9e-05,-0.00011,-0.00067,6,10
29756,-2e-05,-1e-05,-2e-05,-9e-05,-0.00016,9e-05,-0.00011,-0.00067,6,10
29757,-2e-05,-1e-05,-2e-05,-9e-05,-0.00016,9e-05,-0.00011,-0.00067,6,10
29758,-2e-05,-1e-05,-2e-05,-9e-05,-0.00016,9e-05,-0.00011,-0.00067,6,10
29759,-3e-05,-5e-05,-5e-05,-4e-05,2e-05,-0.0005,-0.00013,0.00019,6,10
29760,-3e-05,4e-05,4e-05,0,-0.00023,6e-05,-3e-05,-0.00029,6,10
29761,3e-05,3e-05,-3e-05,3e-05,0.00023,0.00069,4e-05,0.0001,6,10
29762,3e-05,3e-05,-3e-05,3e-05,0.00023,0.00069,4e-05,0.0001,6,10
29763,3e-05,3e-05,-3e-05,3e-05,0.00023,0.00069,4e-05,0.0001,6,10
29764,3e-05,3e-05,-3e-05,3e-05,0.00023,0.00069,4e-05,0.0001,6,10
29765,3e-05,3e-05,-3e-05,3e-05,0.00023,0.00069,4e-05,0.0001,6,10
29766,3e-05,3e-05,-3e-05,3e-05,0.00023,0.00069,4e-05,0.0001,6,10
29767,3e-05,3e-05,-3e-05,3e-05,0.00023,0.00069,4e-05,0.0001,6,10
29768,3e-05,3e-05,-3e-05,3e-05,0.00023,0.00069,4e-05,0.0001,6,10
29769,3e-05,3e-05,-3e-05,3e-05,0.00023,0.00069,4e-05,0.0001,6,10
29770,3e-05,3e-05,-3e-05,3e-05,0.00023,0.00069,4e-05,0.0001,6,10
29771,3e-05,3e-05,-3e-05,3e-05,0.00023,0.00069,4e-05,0.0001,6,10
29772,3e-05,3e-05,-3e-05,3e-05,0.00023,0.00069,4e-05,0.0001,6,10
29773,3e-05,3e-05,-3e-05,3e-05,0.00023,0.00069,4e-05,0.0001,6,10
29774,3e-05,3e-05,-3e-05,3e-05,0.00023,0.00069,4e-05,0.0001,6,10
29775,2e-05,0,-1e-05,7e-05,0.0001,0.00064,0.00028,0.00105,6,10
29776,0,5e-05,7e-05,0.00015,0.0003,-5e-05,-0.00021,-0.00064,6,10
29777,-1e-05,2e-05,2e-05,1e-05,0.00018,0.00028,0.00014,0.00021,6,10
29778,-1e-05,2e-05,2e-05,1e-05,0.00018,0.00028,0.00014,0.00021,6,10
29779,-1e-05,2e-05,2e-05,1e-05,0.00018,0.00028,0.00014,0.00021,6,10
29780,-1e-05,2e-05,2e-05,1e-05,0.00018,0.00028,0.00014,0.00021,6,10
29781,-1e-05,2e-05,2e-05,1e-05,0.00018,0.00028,0.00014,0.00021,6,10
29782,-1e-05,2e-05,2e-05,1e-05,0.00018,0.00028,0.00014,0.00021,6,10
29783,-1e-05,2e-05,2e-05,1e-05,0.00018,0.00028,0.00014,0.00021,6,10
29784,-1e-05,2e-05,2e-05,1e-05,0.00018,0.00028,0.00014,0.00021,6,10
29785,-1e-05,2e-05,2e-05,1e-05,0.00018,0.00028,0.00014,0.00021,6,10
29786,-1e-05,2e-05,2e-05,1e-05,0.00018,0.00028,0.00014,0.00021,6,10
29788,-1e-05,2e-05,2e-05,1e-05,0.00018,0.00028,0.00014,0.00021,6,10
29790,-1e-05,2e-05,2e-05,1e-05,0.00018,0.00028,0.00014,0.00021,6,10
29791,-1e-05,2e-05,2e-05,1e-05,0.00018,0.00028,0.00014,0.00021,6,10
29792,-1e-05,2e-05,2e-05,1e-05,0.00018,0.00028,0.00014,0.00021,6,10
29793,-1e-05,2e-05,2e-05,1e-05,0.00018,0.00028,0.00014,0.00021,6,10
29794,-1e-05,2e-05,2e-05,1e-05,0.00018,0.00028,0.00014,0.00021,6,10
29795,-1e-05,2e-05,2e-05,1e-05,0.00018,0.00028,0.00014,0.00021,6,10
29796,-1e-05,2e-05,2e-05,1e-05,0.00018,0.00028,0.00014,0.00021,6,10
29797,0,-4e-05,-5e-05,9e-05,0.00046,0.00028,0.00011,0.00037,6,10
29798,1e-05,2e-05,3e-05,-2e-05,-0.00014,-0.00023,-2e-05,0.00013,6,10
29799,2e-05,1e-05,0,-7e-05,-0.00032,-0.00046,-0.00012,-0.00029,6,10
29800,2e-05,1e-05,0,-7e-05,-0.00032,-0.00046,-0.00012,-0.00029,6,10
29801,2e-05,1e-05,0,-7e-05,-0.00032,-0.00046,-0.00012,-0.00029,6,10
29802,2e-05,1e-05,0,-7e-05,-0.00032,-0.00046,-0.00012,-0.00029,6,10
29803,2e-05,1e-05,0,-7e-05,-0.00032,-0.00046,-0.00012,-0.00029,6,10
29804,2e-05,1e-05,0,-7e-05,-0.00032,-0.00046,-0.00012,-0.00029,6,10
29805,2e-05,1e-05,0,-7e-05,-0.00032,-0.00046,-0.00012,-0.00029,6,10
29806,2e-05,1e-05,0,-7e-05,-0.00032,-0.00046,-0.00012,-0.00029,6,10
29807,2e-05,1e-05,0,-7e-05,-0.00032,-0.00046,-0.00012,-0.00029,6,10
29808,2e-05,1e-05,0,-7e-05,-0.00032,-0.00046,-0.00012,-0.00029,6,10
29809,2e-05,1e-05,0,-7e-05,-0.00032,-0.00046,-0.00012,-0.00029,6,10
29810,2e-05,1e-05,0,-7e-05,-0.00032,-0.00046,-0.00012,-0.00029,6,10
29811,2e-05,1e-05,0,-7e-05,-0.00032,-0.00046,-0.00012,-0.00029,6,10
29812,1e-05,0,-1e-05,1e-05,0.00046,0,-5e-05,-8e-05,6,10
29813,1e-05,0,-1e-05,1e-05,0.00046,0,-5e-05,-8e-05,6,10
29814,5e-05,2e-05,3e-05,3e-05,8e-05,-9e-05,-4e-05,9e-05,6,10
29815,5e-05,2e-05,3e-05,3e-05,8e-05,-9e-05,-4e-05,9e-05,6,10
29816,5e-05,2e-05,3e-05,3e-05,8e-05,-9e-05,-4e-05,9e-05,6,10
29817,5e-05,2e-05,3e-05,3e-05,8e-05,-9e-05,-4e-05,9e-05,6,10
29818,5e-05,2e-05,3e-05,3e-05,8e-05,-9e-05,-4e-05,9e-05,6,10
29819,5e-05,2e-05,3e-05,3e-05,8e-05,-9e-05,-4e-05,9e-05,6,10
29820,5e-05,2e-05,3e-05,3e-05,8e-05,-9e-05,-4e-05,9e-05,6,10
29821,5e-05,2e-05,3e-05,3e-05,8e-05,-9e-05,-4e-05,9e-05,6,10
29822,5e-05,2e-05,3e-05,3e-05,8e-05,-9e-05,-4e-05,9e-05,6,10
29823,5e-05,2e-05,3e-05,3e-05,8e-05,-9e-05,-4e-05,9e-05,6,10
29824,5e-05,2e-05,3e-05,3e-05,8e-05,-9e-05,-4e-05,9e-05,6,10
29825,5e-05,2e-05,3e-05,3e-05,8e-05,-9e-05,-4e-05,9e-05,6,10
29826,5e-05,2e-05,3e-05,3e-05,8e-05,-9e-05,-4e-05,9e-05,6,10
29827,5e-05,2e-05,3e-05,3e-05,8e-05,-9e-05,-4e-05,9e-05,6,10
29828,5e-05,2e-05,3e-05,3e-05,8e-05,-9e-05,-4e-05,9e-05,6,10
29829,5e-05,2e-05,3e-05,3e-05,8e-05,-9e-05,-4e-05,9e-05,6,10
29830,5e-05,2e-05,3e-05,3e-05,8e-05,-9e-05,-4e-05,9e-05,6,10
29831,5e-05,2e-05,3e-05,3e-05,8e-05,-9e-05,-4e-05,9e-05,6,10
29832,5e-05,2e-05,3e-05,3e-05,8e-05,-9e-05,-4e-05,9e-05,6,10
29833,3e-05,3e-05,4e-05,4e-05,-6e-05,-0.00011,6e-05,0.00034,6,10
29834,0,0,-1e-05,-8e-05,-0.00024,-9e-05,-0.00011,-0.00043,6,10
29835,0,0,-1e-05,-8e-05,-0.00024,-9e-05,-0.00011,-0.00043,6,10
29836,0,0,-1e-05,-8e-05,-0.00024,-9e-05,-0.00011,-0.00043,6,10
29838,0,0,-1e-05,-8e-05,-0.00024,-9e-05,-0.00011,-0.00043,6,10
29839,0,0,-1e-05,-8e-05,-0.00024,-9e-05,-0.00011,-0.00043,6,10
29840,0,0,-1e-05,-8e-05,-0.00024,-9e-05,-0.00011,-0.00043,6,10
29841,-4e-05,-5e-05,-7e-05,-3e-05,-1e-05,-2e-05,0.00014,4e-05,6,10
29842,-3e-05,-1e-05,0,-1e-05,6e-05,0,0.00011,0.00017,6,10
29843,-3e-05,-1e-05,0,-1e-05,6e-05,0,0.00011,0.00017,6,10
29844,-3e-05,-1e-05,0,-1e-05,6e-05,0,0.00011,0.00017,6,10
29845,-3e-05,-1e-05,0,-1e-05,6e-05,0,0.00011,0.00017,6,10
29846,-3e-05,-1e-05,0,-1e-05,6e-05,0,0.00011,0.00017,6,10
29847,-3e-05,-1e-05,0,-1e-05,6e-05,0,0.00011,0.00017,6,10
29848,5e-05,5e-05,7e-05,0.00011,-2e-05,-9e-05,0,0.00013,6,10
29849,5e-05,5e-05,7e-05,0.00011,-2e-05,-9e-05,0,0.00013,6,10
29850,5e-05,5e-05,7e-05,0.00011,-2e-05,-9e-05,0,0.00013,6,10
29851,5e-05,5e-05,7e-05,0.00011,-2e-05,-9e-05,0,0.00013,6,10
29852,5e-05,5e-05,7e-05,0.00011,-2e-05,-9e-05,0,0.00013,6,10
29853,5e-05,5e-05,7e-05,0.00011,-2e-05,-9e-05,0,0.00013,6,10
29854,5e-05,5e-05,7e-05,0.00011,-2e-05,-9e-05,0,0.00013,6,10
29855,5e-05,5e-05,7e-05,0.00011,-2e-05,-9e-05,0,0.00013,6,10
29856,5e-05,5e-05,7e-05,0.00011,-2e-05,-9e-05,0,0.00013,6,10
29857,-6e-05,-8e-05,-9e-05,-0.00021,-0.00055,-0.00071,-0.00013,0.00052,6,10
29858,-6e-05,-8e-05,-9e-05,-0.00021,-0.00055,-0.00071,-0.00013,0.00052,6,10
29859,-6e-05,-8e-05,-9e-05,-0.00021,-0.00055,-0.00071,-0.00013,0.00052,6,10
29860,-6e-05,-8e-05,-9e-05,-0.00021,-0.00055,-0.00071,-0.00013,0.00052,6,10
29861,-6e-05,-8e-05,-9e-05,-0.00021,-0.00055,-0.00071,-0.00013,0.00052,6,10
29862,-6e-05,-8e-05,-9e-05,-0.00021,-0.00055,-0.00071,-0.00013,0.00052,6,10
29863,-6e-05,-8e-05,-9e-05,-0.00021,-0.00055,-0.00071,-0.00013,0.00052,6,10
29864,-6e-05,-8e-05,-9e-05,-0.00021,-0.00055,-0.00071,-0.00013,0.00052,6,10
29865,-6e-05,-8e-05,-9e-05,-0.00021,-0.00055,-0.00071,-0.00013,0.00052,6,10
29866,-6e-05,-8e-05,-9e-05,-0.00021,-0.00055,-0.00071,-0.00013,0.00052,6,10
29867,-6e-05,-8e-05,-9e-05,-0.00021,-0.00055,-0.00071,-0.00013,0.00052,6,10
29868,-6e-05,-8e-05,-9e-05,-0.00021,-0.00055,-0.00071,-0.00013,0.00052,6,10
29869,-6e-05,-8e-05,-9e-05,-0.00021,-0.00055,-0.00071,-0.00013,0.00052,6,10
29870,-6e-05,-8e-05,-9e-05,-0.00021,-0.00055,-0.00071,-0.00013,0.00052,6,10
29871,-6e-05,-8e-05,-9e-05,-0.00021,-0.00055,-0.00071,-0.00013,0.00052,6,10
29872,-7e-05,1e-05,0,-7e-05,-0.00042,-0.00011,-0.00019,-0.00022,6,10
29873,-7e-05,1e-05,0,-7e-05,-0.00042,-0.00011,-0.00019,-0.00022,6,10
29874,-3e-05,-4e-05,-6e-05,-6e-05,1e-05,-2e-05,3e-05,0.00016,6,10
29875,-3e-05,-4e-05,-6e-05,-6e-05,1e-05,-2e-05,3e-05,0.00016,6,10
29876,-3e-05,-4e-05,-6e-05,-6e-05,1e-05,-2e-05,3e-05,0.00016,6,10
29877,-3e-05,-4e-05,-6e-05,-6e-05,1e-05,-2e-05,3e-05,0.00016,6,10
29878,-3e-05,-4e-05,-6e-05,-6e-05,1e-05,-2e-05,3e-05,0.00016,6,10
29879,-3e-05,-4e-05,-6e-05,-6e-05,1e-05,-2e-05,3e-05,0.00016,6,10
29880,-3e-05,-4e-05,-6e-05,-6e-05,1e-05,-2e-05,3e-05,0.00016,6,10
29881,-3e-05,-4e-05,-6e-05,-6e-05,1e-05,-2e-05,3e-05,0.00016,6,10
29882,-3e-05,-4e-05,-6e-05,-6e-05,1e-05,-2e-05,3e-05,0.00016,6,10
29883,-3e-05,-4e-05,-6e-05,-6e-05,1e-05,-2e-05,3e-05,0.00016,6,10
29884,-3e-05,-4e-05,-6e-05,-6e-05,1e-05,-2e-05,3e-05,0.00016,6,10
29885,-3e-05,-4e-05,-6e-05,-6e-05,1e-05,-2e-05,3e-05,0.00016,6,10
29886,-3e-05,-4e-05,-6e-05,-6e-05,1e-05,-2e-05,3e-05,0.00016,6,10
29889,-3e-05,-4e-05,-6e-05,-6e-05,1e-05,-2e-05,3e-05,0.00016,6,10
29890,-3e-05,-4e-05,-6e-05,-6e-05,1e-05,-2e-05,3e-05,0.00016,6,10
29891,-3e-05,-4e-05,-6e-05,-6e-05,1e-05,-2e-05,3e-05,0.00016,6,10
29892,-3e-05,-4e-05,-6e-05,-6e-05,1e-05,-2e-05,3e-05,0.00016,6,10
29893,-3e-05,-4e-05,-6e-05,-6e-05,1e-05,-2e-05,3e-05,0.00016,6,10
29894,-3e-05,-4e-05,-6e-05,-6e-05,1e-05,-2e-05,3e-05,0.00016,6,10
29895,-1e-05,1e-05,0,-2e-05,-0.00011,-0.00084,-0.0001,4e-05,6,10
29896,-3e-05,-2e-05,0,-1e-05,9e-05,-0.00015,-0.00015,-0.00034,6,10
29897,-3e-05,-2e-05,0,-1e-05,9e-05,-0.00015,-0.00015,-0.00034,6,10
29898,-3e-05,-2e-05,0,-1e-05,9e-05,-0.00015,-0.00015,-0.00034,6,10
29899,-3e-05,-2e-05,0,-1e-05,9e-05,-0.00015,-0.00015,-0.00034,6,10
29900,-3e-05,-2e-05,0,-1e-05,9e-05,-0.00015,-0.00015,-0.00034,6,10
29901,-3e-05,-2e-05,0,-1e-05,9e-05,-0.00015,-0.00015,-0.00034,6,10
29902,-3e-05,-2e-05,0,-1e-05,9e-05,-0.00015,-0.00015,-0.00034,6,10
29903,-3e-05,-2e-05,0,-1e-05,9e-05,-0.00015,-0.00015,-0.00034,6,10
29904,-3e-05,-2e-05,0,-1e-05,9e-05,-0.00015,-0.00015,-0.00034,6,10
29905,-3e-05,-2e-05,0,-1e-05,9e-05,-0.00015,-0.00015,-0.00034,6,10
29906,-3e-05,-2e-05,0,-1e-05,9e-05,-0.00015,-0.00015,-0.00034,6,10
29907,-3e-05,-2e-05,0,-1e-05,9e-05,-0.00015,-0.00015,-0.00034,6,10
29909,-3e-05,-2e-05,0,-1e-05,9e-05,-0.00015,-0.00015,-0.00034,6,10
29910,-3e-05,-2e-05,0,-1e-05,9e-05,-0.00015,-0.00015,-0.00034,6,10
29911,-3e-05,-2e-05,0,-1e-05,9e-05,-0.00015,-0.00015,-0.00034,6,10
29912,-3e-05,-2e-05,0,-1e-05,9e-05,-0.00015,-0.00015,-0.00034,6,10
29913,-3e-05,-2e-05,0,-1e-05,9e-05,-0.00015,-0.00015,-0.00034,6,10
29914,-3e-05,-2e-05,0,-1e-05,9e-05,-0.00015,-0.00015,-0.00034,6,10
29915,-3e-05,-2e-05,0,-1e-05,9e-05,-0.00015,-0.00015,-0.00034,6,10
29916,-3e-05,-2e-05,0,-1e-05,9e-05,-0.00015,-0.00015,-0.00034,6,10
29917,-1e-05,-2e-05,-2e-05,-6e-05,-0.00013,-7e-05,4e-05,-0.00017,6,10
29918,7e-05,3e-05,5e-05,0.00018,0.00067,0.00045,0.00013,0.0001,6,10
29919,-4e-05,-4e-05,-5e-05,-8e-05,-0.00026,-1e-05,-1e-05,-0.00035,6,10
29920,-4e-05,-4e-05,-5e-05,-8e-05,-0.00026,-1e-05,-1e-05,-0.00035,6,10
29921,-4e-05,-4e-05,-5e-05,-8e-05,-0.00026,-1e-05,-1e-05,-0.00035,6,10
29922,-4e-05,-4e-05,-5e-05,-8e-05,-0.00026,-1e-05,-1e-05,-0.00035,6,10
29923,-4e-05,-4e-05,-5e-05,-8e-05,-0.00026,-1e-05,-1e-05,-0.00035,6,10
29924,-4e-05,-4e-05,-5e-05,-8e-05,-0.00026,-1e-05,-1e-05,-0.00035,6,10
29925,-4e-05,-4e-05,-5e-05,-8e-05,-0.00026,-1e-05,-1e-05,-0.00035,6,10
29926,-4e-05,-4e-05,-5e-05,-8e-05,-0.00026,-1e-05,-1e-05,-0.00035,6,10
29927,-4e-05,-4e-05,-5e-05,-8e-05,-0.00026,-1e-05,-1e-05,-0.00035,6,10
29928,-4e-05,-4e-05,-5e-05,-8e-05,-0.00026,-1e-05,-1e-05,-0.00035,6,10
29929,-4e-05,-4e-05,-5e-05,-8e-05,-0.00026,-1e-05,-1e-05,-0.00035,6,10
29930,-4e-05,-4e-05,-5e-05,-8e-05,-0.00026,-1e-05,-1e-05,-0.00035,6,10
29931,-4e-05,-4e-05,-5e-05,-8e-05,-0.00026,-1e-05,-1e-05,-0.00035,6,10
29932,2e-05,-3e-05,-2e-05,3e-05,0.00025,-2e-05,-7e-05,0.00028,6,10
29933,0,-2e-05,-2e-05,-4e-05,-7e-05,-0.00029,-8e-05,-2e-05,6,10
29934,0,-2e-05,-2e-05,-4e-05,-7e-05,-0.00029,-8e-05,-2e-05,6,10
29935,0,-2e-05,-2e-05,-4e-05,-7e-05,-0.00029,-8e-05,-2e-05,6,10
29936,0,-2e-05,-2e-05,-4e-05,-7e-05,-0.00029,-8e-05,-2e-05,6,10
29938,0,-2e-05,-2e-05,-4e-05,-7e-05,-0.00029,-8e-05,-2e-05,6,10
29939,0,-2e-05,-2e-05,-4e-05,-7e-05,-0.00029,-8e-05,-2e-05,6,10
29940,0,-2e-05,-2e-05,-4e-05,-7e-05,-0.00029,-8e-05,-2e-05,6,10
29941,0,-2e-05,-2e-05,-4e-05,-7e-05,-0.00029,-8e-05,-2e-05,6,10
29942,0,-2e-05,-2e-05,-4e-05,-7e-05,-0.00029,-8e-05,-2e-05,6,10
29943,0,-2e-05,-2e-05,-4e-05,-7e-05,-0.00029,-8e-05,-2e-05,6,10
29944,0,-2e-05,-2e-05,-4e-05,-7e-05,-0.00029,-8e-05,-2e-05,6,10
29945,0,-2e-05,-2e-05,-4e-05,-7e-05,-0.00029,-8e-05,-2e-05,6,10
29946,0,-2e-05,-2e-05,-4e-05,-7e-05,-0.00029,-8e-05,-2e-05,6,10
29947,0,-2e-05,-2e-05,-4e-05,-7e-05,-0.00029,-8e-05,-2e-05,6,10
29948,0,-2e-05,-2e-05,-4e-05,-7e-05,-0.00029,-8e-05,-2e-05,6,10
29949,0,-2e-05,-2e-05,-4e-05,-7e-05,-0.00029,-8e-05,-2e-05,6,10
29950,0,-2e-05,-2e-05,-4e-05,-7e-05,-0.00029,-8e-05,-2e-05,6,10
29951,0,-2e-05,-2e-05,-4e-05,-7e-05,-0.00029,-8e-05,-2e-05,6,10
29952,0,-2e-05,-2e-05,-4e-05,-7e-05,-0.00029,-8e-05,-2e-05,6,10
29953,0,-2e-05,-2e-05,-4e-05,-7e-05,-0.00029,-8e-05,-2e-05,6,10
29954,-1e-05,0,-2e-05,-5e-05,-7e-05,0.00033,2e-05,-0.00018,6,10
29956,-1e-05,0,-2e-05,-5e-05,-7e-05,0.00033,2e-05,-0.00018,6,10
29957,-3e-05,-4e-05,-3e-05,-2e-05,0.00018,-3e-05,0,-0.00032,6,10
29958,-3e-05,-4e-05,-3e-05,-2e-05,0.00018,-3e-05,0,-0.00032,6,10
29959,-3e-05,-4e-05,-3e-05,-2e-05,0.00018,-3e-05,0,-0.00032,6,10
29960,-3e-05,-4e-05,-3e-05,-2e-05,0.00018,-3e-05,0,-0.00032,6,10
29961,-3e-05,-4e-05,-3e-05,-2e-05,0.00018,-3e-05,0,-0.00032,6,10
29962,-3e-05,-4e-05,-3e-05,-2e-05,0.00018,-3e-05,0,-0.00032,6,10
29963,-3e-05,-4e-05,-3e-05,-2e-05,0.00018,-3e-05,0,-0.00032,6,10
29964,-3e-05,-4e-05,-3e-05,-2e-05,0.00018,-3e-05,0,-0.00032,6,10
29965,-3e-05,-4e-05,-3e-05,-2e-05,0.00018,-3e-05,0,-0.00032,6,10
29966,-3e-05,-4e-05,-3e-05,-2e-05,0.00018,-3e-05,0,-0.00032,6,10
29967,-3e-05,-4e-05,-3e-05,-2e-05,0.00018,-3e-05,0,-0.00032,6,10
29968,1e-05,-2e-05,2e-05,2e-05,-7e-05,-5e-05,-2e-05,0.00026,6,10
29969,1e-05,-2e-05,2e-05,2e-05,-7e-05,-5e-05,-2e-05,0.00026,6,10
29970,1e-05,-2e-05,2e-05,2e-05,-7e-05,-5e-05,-2e-05,0.00026,6,10
29971,1e-05,-2e-05,2e-05,2e-05,-7e-05,-5e-05,-2e-05,0.00026,6,10
29972,1e-05,-2e-05,2e-05,2e-05,-7e-05,-5e-05,-2e-05,0.00026,6,10
29973,1e-05,-2e-05,2e-05,2e-05,-7e-05,-5e-05,-2e-05,0.00026,6,10
29974,1e-05,-2e-05,2e-05,2e-05,-7e-05,-5e-05,-2e-05,0.00026,6,10
29975,1e-05,-2e-05,2e-05,2e-05,-7e-05,-5e-05,-2e-05,0.00026,6,10
29976,1e-05,-2e-05,2e-05,2e-05,-7e-05,-5e-05,-2e-05,0.00026,6,10
29977,3e-05,1e-05,0,-1e-05,2e-05,-7e-05,-8e-05,-0.00046,6,10
29978,3e-05,1e-05,0,-1e-05,2e-05,-7e-05,-8e-05,-0.00046,6,10
29979,3e-05,1e-05,0,-1e-05,2e-05,-7e-05,-8e-05,-0.00046,6,10
29980,3e-05,1e-05,0,-1e-05,2e-05,-7e-05,-8e-05,-0.00046,6,10
29981,3e-05,1e-05,0,-1e-05,2e-05,-7e-05,-8e-05,-0.00046,6,10
29982,3e-05,1e-05,0,-1e-05,2e-05,-7e-05,-8e-05,-0.00046,6,10
29983,3e-05,1e-05,0,-1e-05,2e-05,-7e-05,-8e-05,-0.00046,6,10
29984,3e-05,1e-05,0,-1e-05,2e-05,-7e-05,-8e-05,-0.00046,6,10
29985,3e-05,1e-05,0,-1e-05,2e-05,-7e-05,-8e-05,-0.00046,6,10
29986,3e-05,1e-05,0,-1e-05,2e-05,-7e-05,-8e-05,-0.00046,6,10
29988,3e-05,1e-05,0,-1e-05,2e-05,-7e-05,-8e-05,-0.00046,6,10
29989,3e-05,1e-05,0,-1e-05,2e-05,-7e-05,-8e-05,-0.00046,6,10
29990,3e-05,1e-05,0,-1e-05,2e-05,-7e-05,-8e-05,-0.00046,6,10
29991,3e-05,1e-05,0,-1e-05,2e-05,-7e-05,-8e-05,-0.00046,6,10
29992,3e-05,1e-05,0,-1e-05,2e-05,-7e-05,-8e-05,-0.00046,6,10
29993,3e-05,1e-05,0,-1e-05,2e-05,-7e-05,-8e-05,-0.00046,6,10
29994,3e-05,1e-05,0,-1e-05,2e-05,-7e-05,-8e-05,-0.00046,6,10
29995,3e-05,1e-05,0,-1e-05,2e-05,-7e-05,-8e-05,-0.00046,6,10
29996,3e-05,1e-05,0,-1e-05,2e-05,-7e-05,-8e-05,-0.00046,6,10
29997,3e-05,1e-05,0,-1e-05,2e-05,-7e-05,-8e-05,-0.00046,6,10
29998,3e-05,1e-05,0,-1e-05,2e-05,-7e-05,-8e-05,-0.00046,6,10
29999,0,0,2e-05,-5e-05,-2e-05,0.00051,1e-05,2e-05,6,10
30000,-1e-05,-3e-05,-5e-05,0,0.00017,6e-05,0,0.00013,6,10
30001,-3e-05,-1e-05,0,0.00012,0.00033,5e-05,-3e-05,-4e-05,6,10
30003,-3e-05,-1e-05,0,0.00012,0.00033,5e-05,-3e-05,-4e-05,6,10
30004,-3e-05,-1e-05,0,0.00012,0.00033,5e-05,-3e-05,-4e-05,6,10
30005,-3e-05,-1e-05,0,0.00012,0.00033,5e-05,-3e-05,-4e-05,6,10
30006,-3e-05,-1e-05,0,0.00012,0.00033,5e-05,-3e-05,-4e-05,6,10
30007,-3e-05,-1e-05,0,0.00012,0.00033,5e-05,-3e-05,-4e-05,6,10
30008,-3e-05,-1e-05,0,0.00012,0.00033,5e-05,-3e-05,-4e-05,6,10
30009,-3e-05,-1e-05,0,0.00012,0.00033,5e-05,-3e-05,-4e-05,6,10
30010,-3e-05,-1e-05,0,0.00012,0.00033,5e-05,-3e-05,-4e-05,6,10
30011,-3e-05,-1e-05,0,0.00012,0.00033,5e-05,-3e-05,-4e-05,6,10
30012,-3e-05,-1e-05,0,0.00012,0.00033,5e-05,-3e-05,-4e-05,6,10
30013,-3e-05,-1e-05,0,0.00012,0.00033,5e-05,-3e-05,-4e-05,6,10
60112,-0.00011,-0.00014,-0.00013,-9e-05,0.00023,-0.00014,-7e-05,0.00027,6,10
60113,2e-05,0,-2e-05,-1e-05,0.00038,0.00076,0.00019,-8e-05,6,10
60114,2e-05,0,-2e-05,-1e-05,0.00038,0.00076,0.00019,-8e-05,6,10
60115,2e-05,0,-2e-05,-1e-05,0.00038,0.00076,0.00019,-8e-05,6,10
60116,2e-05,0,-2e-05,-1e-05,0.00038,0.00076,0.00019,-8e-05,6,10
60117,2e-05,0,-2e-05,-1e-05,0.00038,0.00076,0.00019,-8e-05,6,10
60118,2e-05,0,-2e-05,-1e-05,0.00038,0.00076,0.00019,-8e-05,6,10
60119,2e-05,0,-2e-05,-1e-05,0.00038,0.00076,0.00019,-8e-05,6,10
60120,2e-05,0,-2e-05,-1e-05,0.00038,0.00076,0.00019,-8e-05,6,10
60121,2e-05,0,-2e-05,-1e-05,0.00038,0.00076,0.00019,-8e-05,6,10
60122,2e-05,0,-2e-05,-1e-05,0.00038,0.00076,0.00019,-8e-05,6,10
60123,2e-05,0,-2e-05,-1e-05,0.00038,0.00076,0.00019,-8e-05,6,10
60124,2e-05,0,-2e-05,-1e-05,0.00038,0.00076,0.00019,-8e-05,6,10
60125,2e-05,0,-2e-05,-1e-05,0.00038,0.00076,0.00019,-8e-05,6,10
60126,2e-05,0,-2e-05,-1e-05,0.00038,0.00076,0.00019,-8e-05,6,10
60127,2e-05,0,-2e-05,-1e-05,0.00038,0.00076,0.00019,-8e-05,6,10
60128,2e-05,0,-2e-05,-1e-05,0.00038,0.00076,0.00019,-8e-05,6,10
60129,2e-05,0,-2e-05,-1e-05,0.00038,0.00076,0.00019,-8e-05,6,10
60130,2e-05,0,-2e-05,-1e-05,0.00038,0.00076,0.00019,-8e-05,6,10
60131,2e-05,0,-2e-05,-1e-05,0.00038,0.00076,0.00019,-8e-05,6,10
60132,2e-05,0,-2e-05,-1e-05,0.00038,0.00076,0.00019,-8e-05,6,10
60133,2e-05,0,-2e-05,-1e-05,0.00038,0.00076,0.00019,-8e-05,6,10
60134,3e-05,9e-05,0.0001,0,-0.00042,-0.00082,-1e-05,-1e-05,6,10
60135,3e-05,9e-05,0.0001,0,-0.00042,-0.00082,-1e-05,-1e-05,6,10
60136,-2e-05,-1e-05,2e-05,0,-0.00037,-0.00039,0.00017,-0.0002,6,10
60138,-2e-05,-1e-05,2e-05,0,-0.00037,-0.00039,0.00017,-0.0002,6,10
60139,-2e-05,-1e-05,2e-05,0,-0.00037,-0.00039,0.00017,-0.0002,6,10
60140,-2e-05,-1e-05,2e-05,0,-0.00037,-0.00039,0.00017,-0.0002,6,10
60141,-2e-05,-1e-05,2e-05,0,-0.00037,-0.00039,0.00017,-0.0002,6,10
60142,-2e-05,-1e-05,2e-05,0,-0.00037,-0.00039,0.00017,-0.0002,6,10
60143,-2e-05,-1e-05,2e-05,0,-0.00037,-0.00039,0.00017,-0.0002,6,10
60144,-2e-05,-1e-05,2e-05,0,-0.00037,-0.00039,0.00017,-0.0002,6,10
60145,-2e-05,-1e-05,2e-05,0,-0.00037,-0.00039,0.00017,-0.0002,6,10
60146,-2e-05,-1e-05,2e-05,0,-0.00037,-0.00039,0.00017,-0.0002,6,10
60147,-2e-05,-1e-05,2e-05,0,-0.00037,-0.00039,0.00017,-0.0002,6,10
60148,4e-05,5e-05,5e-05,0.00024,0.00095,0.00097,0.00027,0.0005,6,10
60149,4e-05,5e-05,5e-05,0.00024,0.00095,0.00097,0.00027,0.0005,6,10
60150,4e-05,5e-05,5e-05,0.00024,0.00095,0.00097,0.00027,0.0005,6,10
60151,4e-05,5e-05,5e-05,0.00024,0.00095,0.00097,0.00027,0.0005,6,10
60152,4e-05,5e-05,5e-05,0.00024,0.00095,0.00097,0.00027,0.0005,6,10
60153,4e-05,5e-05,5e-05,0.00024,0.00095,0.00097,0.00027,0.0005,6,10
60154,4e-05,5e-05,5e-05,0.00024,0.00095,0.00097,0.00027,0.0005,6,10
60155,4e-05,5e-05,5e-05,0.00024,0.00095,0.00097,0.00027,0.0005,6,10
60156,4e-05,5e-05,5e-05,0.00024,0.00095,0.00097,0.00027,0.0005,6,10
60157,4e-05,5e-05,5e-05,0.00024,0.00095,0.00097,0.00027,0.0005,6,10
60159,4e-05,5e-05,5e-05,0.00024,0.00095,0.00097,0.00027,0.0005,6,10
60160,4e-05,5e-05,5e-05,0.00024,0.00095,0.00097,0.00027,0.0005,6,10
60161,4e-05,5e-05,5e-05,0.00024,0.00095,0.00097,0.00027,0.0005,6,10
60162,4e-05,5e-05,5e-05,0.00024,0.00095,0.00097,0.00027,0.0005,6,10
60163,-4e-05,-9e-05,-0.00013,-0.00027,-0.00084,-0.00079,-0.00042,-0.00057,6,10
60164,-4e-05,-9e-05,-0.00013,-0.00027,-0.00084,-0.00079,-0.00042,-0.00057,6,10
60165,-4e-05,-9e-05,-0.00013,-0.00027,-0.00084,-0.00079,-0.00042,-0.00057,6,10
60166,-4e-05,-9e-05,-0.00013,-0.00027,-0.00084,-0.00079,-0.00042,-0.00057,6,10
60167,-4e-05,-9e-05,-0.00013,-0.00027,-0.00084,-0.00079,-0.00042,-0.00057,6,10
60168,-4e-05,-9e-05,-0.00013,-0.00027,-0.00084,-0.00079,-0.00042,-0.00057,6,10
60169,-4e-05,-9e-05,-0.00013,-0.00027,-0.00084,-0.00079,-0.00042,-0.00057,6,10
60170,-4e-05,-9e-05,-0.00013,-0.00027,-0.00084,-0.00079,-0.00042,-0.00057,6,10
60171,-4e-05,-9e-05,-0.00013,-0.00027,-0.00084,-0.00079,-0.00042,-0.00057,6,10
60172,-4e-05,-9e-05,-0.00013,-0.00027,-0.00084,-0.00079,-0.00042,-0.00057,6,10
60173,-4e-05,-9e-05,-0.00013,-0.00027,-0.00084,-0.00079,-0.00042,-0.00057,6,10
60174,-4e-05,-9e-05,-0.00013,-0.00027,-0.00084,-0.00079,-0.00042,-0.00057,6,10
60175,-4e-05,-9e-05,-0.00013,-0.00027,-0.00084,-0.00079,-0.00042,-0.00057,6,10
60176,-4e-05,-9e-05,-0.00013,-0.00027,-0.00084,-0.00079,-0.00042,-0.00057,6,10
60177,-4e-05,-9e-05,-0.00013,-0.00027,-0.00084,-0.00079,-0.00042,-0.00057,6,10
60178,-4e-05,-9e-05,-0.00013,-0.00027,-0.00084,-0.00079,-0.00042,-0.00057,6,10
60179,-9e-05,-9e-05,-7e-05,-7e-05,-0.0006,-0.00092,-0.00021,-6e-05,6,10
60180,-9e-05,-9e-05,-7e-05,-7e-05,-0.0006,-0.00092,-0.00021,-6e-05,6,10
60181,3e-05,3e-05,2e-05,-6e-05,7e-05,-0.00029,2e-05,0.00041,6,10
60182,3e-05,3e-05,2e-05,-6e-05,7e-05,-0.00029,2e-05,0.00041,6,10
60183,3e-05,3e-05,2e-05,-6e-05,7e-05,-0.00029,2e-05,0.00041,6,10
60184,3e-05,3e-05,2e-05,-6e-05,7e-05,-0.00029,2e-05,0.00041,6,10
60185,3e-05,3e-05,2e-05,-6e-05,7e-05,-0.00029,2e-05,0.00041,6,10
60186,3e-05,3e-05,2e-05,-6e-05,7e-05,-0.00029,2e-05,0.00041,6,10
60188,3e-05,3e-05,2e-05,-6e-05,7e-05,-0.00029,2e-05,0.00041,6,10
60189,3e-05,3e-05,2e-05,-6e-05,7e-05,-0.00029,2e-05,0.00041,6,10
60190,3e-05,3e-05,2e-05,-6e-05,7e-05,-0.00029,2e-05,0.00041,6,10
60191,3e-05,3e-05,2e-05,-6e-05,7e-05,-0.00029,2e-05,0.00041,6,10
60192,3e-05,3e-05,2e-05,-6e-05,7e-05,-0.00029,2e-05,0.00041,6,10
60193,3e-05,3e-05,2e-05,-6e-05,7e-05,-0.00029,2e-05,0.00041,6,10
60194,-4e-05,-6e-05,-6e-05,-0.0001,-9e-05,0.00053,0.00018,-0.00015,6,10
60195,-4e-05,-1e-05,-1e-05,5e-05,-0.00052,-8e-05,-0.00013,-0.00016,6,10
60196,-7e-05,1e-05,2e-05,-1e-05,-0.00068,-0.00037,-7e-05,-0.00042,6,10
60197,-7e-05,1e-05,2e-05,-1e-05,-0.00068,-0.00037,-7e-05,-0.00042,6,10
60198,-7e-05,1e-05,2e-05,-1e-05,-0.00068,-0.00037,-7e-05,-0.00042,6,10
60199,-7e-05,1e-05,2e-05,-1e-05,-0.00068,-0.00037,-7e-05,-0.00042,6,10
60200,-7e-05,1e-05,2e-05,-1e-05,-0.00068,-0.00037,-7e-05,-0.00042,6,10
60201,-7e-05,1e-05,2e-05,-1e-05,-0.00068,-0.00037,-7e-05,-0.00042,6,10
60202,-7e-05,1e-05,2e-05,-1e-05,-0.00068,-0.00037,-7e-05,-0.00042,6,10
60203,-7e-05,1e-05,2e-05,-1e-05,-0.00068,-0.00037,-7e-05,-0.00042,6,10
60204,-7e-05,1e-05,2e-05,-1e-05,-0.00068,-0.00037,-7e-05,-0.00042,6,10
60205,-7e-05,1e-05,2e-05,-1e-05,-0.00068,-0.00037,-7e-05,-0.00042,6,10
60206,-7e-05,1e-05,2e-05,-1e-05,-0.00068,-0.00037,-7e-05,-0.00042,6,10
60207,-7e-05,1e-05,2e-05,-1e-05,-0.00068,-0.00037,-7e-05,-0.00042,6,10
60208,-7e-05,1e-05,2e-05,-1e-05,-0.00068,-0.00037,-7e-05,-0.00042,6,10
60209,-7e-05,1e-05,2e-05,-1e-05,-0.00068,-0.00037,-7e-05,-0.00042,6,10
60210,-7e-05,1e-05,2e-05,-1e-05,-0.00068,-0.00037,-7e-05,-0.00042,6,10
60211,-7e-05,1e-05,2e-05,-1e-05,-0.00068,-0.00037,-7e-05,-0.00042,6,10
60212,-7e-05,1e-05,2e-05,-1e-05,-0.00068,-0.00037,-7e-05,-0.00042,6,10
60213,-7e-05,1e-05,2e-05,-1e-05,-0.00068,-0.00037,-7e-05,-0.00042,6,10
60214,-7e-05,1e-05,2e-05,-1e-05,-0.00068,-0.00037,-7e-05,-0.00042,6,10
60215,-7e-05,1e-05,2e-05,-1e-05,-0.00068,-0.00037,-7e-05,-0.00042,6,10
60216,-2e-05,-1e-05,-4e-05,-7e-05,0,-1e-05,6e-05,8e-05,6,10
60217,-6e-05,-5e-05,-4e-05,-0.00012,-0.00015,-0.00033,3e-05,0.00031,6,10
60218,-2e-05,1e-05,1e-05,0.00014,0.00028,0.0004,9e-05,0.00047,6,10
