28632,-4e-05,-1e-05,0,3e-05,-0.00037,0.00086,0.00015,-0.00023,6,11
28633,-4e-05,-1e-05,0,3e-05,-0.00037,0.00086,0.00015,-0.00023,6,11
28634,-4e-05,-1e-05,0,3e-05,-0.00037,0.00086,0.00015,-0.00023,6,11
28635,-4e-05,-7e-05,-0.00013,-0.00017,-0.00055,-0.00089,7e-05,0.00107,6,11
28636,2e-05,6e-05,5e-05,-4e-05,-2e-05,0.0007,0.00024,-0.00085,6,11
28638,-6e-05,-0.0001,-7e-05,3e-05,0.00061,-0.00015,9e-05,-0.0006,6,11
28639,-6e-05,-0.0001,-7e-05,3e-05,0.00061,-0.00015,9e-05,-0.0006,6,11
28640,-6e-05,-0.0001,-7e-05,3e-05,0.00061,-0.00015,9e-05,-0.0006,6,11
28641,-6e-05,-0.0001,-7e-05,3e-05,0.00061,-0.00015,9e-05,-0.0006,6,11
28642,-6e-05,-0.0001,-7e-05,3e-05,0.00061,-0.00015,9e-05,-0.0006,6,11
28643,-6e-05,-0.0001,-7e-05,3e-05,0.00061,-0.00015,9e-05,-0.0006,6,11
28644,-6e-05,-0.0001,-7e-05,3e-05,0.00061,-0.00015,9e-05,-0.0006,6,11
28645,-6e-05,-0.0001,-7e-05,3e-05,0.00061,-0.00015,9e-05,-0.0006,6,11
28646,-6e-05,-0.0001,-7e-05,3e-05,0.00061,-0.00015,9e-05,-0.0006,6,11
28647,-6e-05,-0.0001,-7e-05,3e-05,0.00061,-0.00015,9e-05,-0.0006,6,11
28648,-6e-05,-0.0001,-7e-05,3e-05,0.00061,-0.00015,9e-05,-0.0006,6,11
28649,-6e-05,-0.0001,-7e-05,3e-05,0.00061,-0.00015,9e-05,-0.0006,6,11
28650,-6e-05,-0.0001,-7e-05,3e-05,0.00061,-0.00015,9e-05,-0.0006,6,11
28651,-6e-05,-0.0001,-7e-05,3e-05,0.00061,-0.00015,9e-05,-0.0006,6,11
28652,-6e-05,-0.0001,-7e-05,3e-05,0.00061,-0.00015,9e-05,-0.0006,6,11
28653,-6e-05,-0.0001,-7e-05,3e-05,0.00061,-0.00015,9e-05,-0.0006,6,11
28654,-6e-05,-0.0001,-7e-05,3e-05,0.00061,-0.00015,9e-05,-0.0006,6,11
28655,-6e-05,-0.0001,-7e-05,3e-05,0.00061,-0.00015,9e-05,-0.0006,6,11
28656,-6e-05,-0.0001,-7e-05,3e-05,0.00061,-0.00015,9e-05,-0.0006,6,11
28657,-6e-05,-0.0001,-7e-05,3e-05,0.00061,-0.00015,9e-05,-0.0006,6,11
28658,0.00019,0.0001,0.0001,0.00016,0.00029,0.00047,0.0002,0.00067,6,11
28659,0.00019,0.0001,0.0001,0.00016,0.00029,0.00047,0.0002,0.00067,6,11
28660,6e-05,7e-05,0.0001,0.00021,0.00012,0.00059,0.00052,-0.00062,6,11
28661,6e-05,7e-05,0.0001,0.00021,0.00012,0.00059,0.00052,-0.00062,6,11
28662,6e-05,7e-05,0.0001,0.00021,0.00012,0.00059,0.00052,-0.00062,6,11
28663,6e-05,7e-05,0.0001,0.00021,0.00012,0.00059,0.00052,-0.00062,6,11
28664,6e-05,7e-05,0.0001,0.00021,0.00012,0.00059,0.00052,-0.00062,6,11
28665,6e-05,7e-05,0.0001,0.00021,0.00012,0.00059,0.00052,-0.00062,6,11
28666,6e-05,7e-05,0.0001,0.00021,0.00012,0.00059,0.00052,-0.00062,6,11
28667,6e-05,7e-05,0.0001,0.00021,0.00012,0.00059,0.00052,-0.00062,6,11
28668,6e-05,7e-05,0.0001,0.00021,0.00012,0.00059,0.00052,-0.00062,6,11
28669,6e-05,7e-05,0.0001,0.00021,0.00012,0.00059,0.00052,-0.00062,6,11
28670,6e-05,7e-05,0.0001,0.00021,0.00012,0.00059,0.00052,-0.00062,6,11
28671,6e-05,7e-05,0.0001,0.00021,0.00012,0.00059,0.00052,-0.00062,6,11
28672,6e-05,7e-05,0.0001,0.00021,0.00012,0.00059,0.00052,-0.00062,6,11
28673,6e-05,7e-05,0.0001,0.00021,0.00012,0.00059,0.00052,-0.00062,6,11
28674,6e-05,7e-05,0.0001,0.00021,0.00012,0.00059,0.00052,-0.00062,6,11
28675,6e-05,7e-05,0.0001,0.00021,0.00012,0.00059,0.00052,-0.00062,6,11
28676,6e-05,7e-05,0.0001,0.00021,0.00012,0.00059,0.00052,-0.00062,6,11
28677,6e-05,7e-05,0.0001,0.00021,0.00012,0.00059,0.00052,-0.00062,6,11
28678,6e-05,7e-05,0.0001,0.00021,0.00012,0.00059,0.00052,-0.00062,6,11
28679,6e-05,7e-05,0.0001,0.00021,0.00012,0.00059,0.00052,-0.00062,6,11
28680,-0.00011,-0.00016,-0.00017,-0.00034,-0.00038,-0.00128,-0.00099,-0.0004,6,11
28681,-0.00011,-0.00016,-0.00017,-0.00034,-0.00038,-0.00128,-0.00099,-0.0004,6,11
28682,0.00011,-3e-05,-7e-05,5e-05,0.00061,-0.00122,-0.00029,0.00115,6,11
28683,0.00011,-3e-05,-7e-05,5e-05,0.00061,-0.00122,-0.00029,0.00115,6,11
28684,0.00011,-3e-05,-7e-05,5e-05,0.00061,-0.00122,-0.00029,0.00115,6,11
28685,0.00011,-3e-05,-7e-05,5e-05,0.00061,-0.00122,-0.00029,0.00115,6,11
28686,0.00011,-3e-05,-7e-05,5e-05,0.00061,-0.00122,-0.00029,0.00115,6,11
28688,0.00011,-3e-05,-7e-05,5e-05,0.00061,-0.00122,-0.00029,0.00115,6,11
28689,0.00011,-3e-05,-7e-05,5e-05,0.00061,-0.00122,-0.00029,0.00115,6,11
28690,0.00011,-3e-05,-7e-05,5e-05,0.00061,-0.00122,-0.00029,0.00115,6,11
28691,0.00011,-3e-05,-7e-05,5e-05,0.00061,-0.00122,-0.00029,0.00115,6,11
28692,0.00011,-3e-05,-7e-05,5e-05,0.00061,-0.00122,-0.00029,0.00115,6,11
28693,0.00011,-3e-05,-7e-05,5e-05,0.00061,-0.00122,-0.00029,0.00115,6,11
28694,0.00011,-3e-05,-7e-05,5e-05,0.00061,-0.00122,-0.00029,0.00115,6,11
28695,-0.00022,0,1e-05,5e-05,-9e-05,-0.00055,2e-05,-0.00111,6,11
28696,-0.00022,0,1e-05,5e-05,-9e-05,-0.00055,2e-05,-0.00111,6,11
28697,-0.00022,0,1e-05,5e-05,-9e-05,-0.00055,2e-05,-0.00111,6,11
28698,-0.00022,0,1e-05,5e-05,-9e-05,-0.00055,2e-05,-0.00111,6,11
28699,-0.00022,0,1e-05,5e-05,-9e-05,-0.00055,2e-05,-0.00111,6,11
28700,-0.00022,0,1e-05,5e-05,-9e-05,-0.00055,2e-05,-0.00111,6,11
28701,-0.00022,0,1e-05,5e-05,-9e-05,-0.00055,2e-05,-0.00111,6,11
28702,-0.00022,0,1e-05,5e-05,-9e-05,-0.00055,2e-05,-0.00111,6,11
28703,-0.00018,-1e-05,-3e-05,-0.00022,-0.00083,-0.00052,-0.00027,-0.0005,6,11
28704,-0.00018,-1e-05,-3e-05,-0.00022,-0.00083,-0.00052,-0.00027,-0.0005,6,11
28705,-0.00018,-1e-05,-3e-05,-0.00022,-0.00083,-0.00052,-0.00027,-0.0005,6,11
28706,-0.00018,-1e-05,-3e-05,-0.00022,-0.00083,-0.00052,-0.00027,-0.0005,6,11
28707,-0.00018,-1e-05,-3e-05,-0.00022,-0.00083,-0.00052,-0.00027,-0.0005,6,11
28708,-0.00018,-1e-05,-3e-05,-0.00022,-0.00083,-0.00052,-0.00027,-0.0005,6,11
28709,-0.00018,-1e-05,-3e-05,-0.00022,-0.00083,-0.00052,-0.00027,-0.0005,6,11
28710,-0.00018,-1e-05,-3e-05,-0.00022,-0.00083,-0.00052,-0.00027,-0.0005,6,11
28711,-0.00018,-1e-05,-3e-05,-0.00022,-0.00083,-0.00052,-0.00027,-0.0005,6,11
28712,-0.00018,-1e-05,-3e-05,-0.00022,-0.00083,-0.00052,-0.00027,-0.0005,6,11
28713,-0.00018,-1e-05,-3e-05,-0.00022,-0.00083,-0.00052,-0.00027,-0.0005,6,11
28714,-0.00018,-1e-05,-3e-05,-0.00022,-0.00083,-0.00052,-0.00027,-0.0005,6,11
28715,-0.00018,-1e-05,-3e-05,-0.00022,-0.00083,-0.00052,-0.00027,-0.0005,6,11
28716,-0.00018,-1e-05,-3e-05,-0.00022,-0.00083,-0.00052,-0.00027,-0.0005,6,11
28717,-0.00018,-1e-05,-3e-05,-0.00022,-0.00083,-0.00052,-0.00027,-0.0005,6,11
28718,-0.00024,-0.00023,-0.00021,-0.0001,0.00061,-0.00128,-0.00065,-0.00014,6,11
28719,-0.00024,-0.00023,-0.00021,-0.0001,0.00061,-0.00128,-0.00065,-0.00014,6,11
28720,3e-05,8e-05,0.0001,0.00013,0.0012,0.00072,-0.0001,-0.00028,6,11
28721,3e-05,8e-05,0.0001,0.00013,0.0012,0.00072,-0.0001,-0.00028,6,11
28722,3e-05,8e-05,0.0001,0.00013,0.0012,0.00072,-0.0001,-0.00028,6,11
28723,3e-05,8e-05,0.0001,0.00013,0.0012,0.00072,-0.0001,-0.00028,6,11
28724,3e-05,8e-05,0.0001,0.00013,0.0012,0.00072,-0.0001,-0.00028,6,11
28725,3e-05,8e-05,0.0001,0.00013,0.0012,0.00072,-0.0001,-0.00028,6,11
28726,3e-05,8e-05,0.0001,0.00013,0.0012,0.00072,-0.0001,-0.00028,6,11
28727,3e-05,8e-05,0.0001,0.00013,0.0012,0.00072,-0.0001,-0.00028,6,11
28728,3e-05,8e-05,0.0001,0.00013,0.0012,0.00072,-0.0001,-0.00028,6,11
28729,3e-05,8e-05,0.0001,0.00013,0.0012,0.00072,-0.0001,-0.00028,6,11
28730,3e-05,8e-05,0.0001,0.00013,0.0012,0.00072,-0.0001,-0.00028,6,11
28731,3e-05,8e-05,0.0001,0.00013,0.0012,0.00072,-0.0001,-0.00028,6,11
28732,3e-05,8e-05,0.0001,0.00013,0.0012,0.00072,-0.0001,-0.00028,6,11
28733,3e-05,8e-05,0.0001,0.00013,0.0012,0.00072,-0.0001,-0.00028,6,11
28734,3e-05,8e-05,0.0001,0.00013,0.0012,0.00072,-0.0001,-0.00028,6,11
28735,3e-05,8e-05,0.0001,0.00013,0.0012,0.00072,-0.0001,-0.00028,6,11
28736,3e-05,8e-05,0.0001,0.00013,0.0012,0.00072,-0.0001,-0.00028,6,11
28738,3e-05,8e-05,0.0001,0.00013,0.0012,0.00072,-0.0001,-0.00028,6,11
28739,3e-05,8e-05,0.0001,0.00013,0.0012,0.00072,-0.0001,-0.00028,6,11
28740,3e-05,8e-05,0.0001,0.00013,0.0012,0.00072,-0.0001,-0.00028,6,11
28741,-6e-05,-7e-05,-0.0001,-0.0001,-0.00078,-0.00061,5e-05,-0.00094,6,11
28742,6e-05,3e-05,4e-05,0.00015,0.00055,0.0008,-1e-05,0.0001,6,11
28743,6e-05,3e-05,4e-05,0.00015,0.00055,0.0008,-1e-05,0.0001,6,11
28744,6e-05,3e-05,4e-05,0.00015,0.00055,0.0008,-1e-05,0.0001,6,11
28745,6e-05,3e-05,4e-05,0.00015,0.00055,0.0008,-1e-05,0.0001,6,11
28746,6e-05,3e-05,4e-05,0.00015,0.00055,0.0008,-1e-05,0.0001,6,11
28747,6e-05,3e-05,4e-05,0.00015,0.00055,0.0008,-1e-05,0.0001,6,11
28748,6e-05,3e-05,4e-05,0.00015,0.00055,0.0008,-1e-05,0.0001,6,11
28749,6e-05,3e-05,4e-05,0.00015,0.00055,0.0008,-1e-05,0.0001,6,11
28750,6e-05,3e-05,4e-05,0.00015,0.00055,0.0008,-1e-05,0.0001,6,11
28751,6e-05,3e-05,4e-05,0.00015,0.00055,0.0008,-1e-05,0.0001,6,11
28752,6e-05,3e-05,4e-05,0.00015,0.00055,0.0008,-1e-05,0.0001,6,11
28753,6e-05,3e-05,4e-05,0.00015,0.00055,0.0008,-1e-05,0.0001,6,11
28754,6e-05,3e-05,4e-05,0.00015,0.00055,0.0008,-1e-05,0.0001,6,11
28755,0.00013,3e-05,5e-05,0.00013,0.00036,0.00102,0.00031,0.00017,6,11
28756,0.00013,3e-05,5e-05,0.00013,0.00036,0.00102,0.00031,0.00017,6,11
28757,0.00013,3e-05,5e-05,0.00013,0.00036,0.00102,0.00031,0.00017,6,11
28758,0.00013,3e-05,5e-05,0.00013,0.00036,0.00102,0.00031,0.00017,6,11
28759,0.00013,3e-05,5e-05,0.00013,0.00036,0.00102,0.00031,0.00017,6,11
28760,0.00013,3e-05,5e-05,0.00013,0.00036,0.00102,0.00031,0.00017,6,11
28761,0.00013,3e-05,5e-05,0.00013,0.00036,0.00102,0.00031,0.00017,6,11
28762,-0.00014,-0.00016,-0.00017,-0.00035,9e-05,0.0001,-0.00019,-0.00052,6,11
28763,-0.00014,-0.00016,-0.00017,-0.00035,9e-05,0.0001,-0.00019,-0.00052,6,11
28764,-0.00014,-0.00016,-0.00017,-0.00035,9e-05,0.0001,-0.00019,-0.00052,6,11
28765,-0.00014,-0.00016,-0.00017,-0.00035,9e-05,0.0001,-0.00019,-0.00052,6,11
28766,-0.00014,-0.00016,-0.00017,-0.00035,9e-05,0.0001,-0.00019,-0.00052,6,11
28767,-0.00014,-0.00016,-0.00017,-0.00035,9e-05,0.0001,-0.00019,-0.00052,6,11
28768,-0.00014,-0.00016,-0.00017,-0.00035,9e-05,0.0001,-0.00019,-0.00052,6,11
28769,-0.00014,-0.00016,-0.00017,-0.00035,9e-05,0.0001,-0.00019,-0.00052,6,11
28770,-0.00014,-0.00016,-0.00017,-0.00035,9e-05,0.0001,-0.00019,-0.00052,6,11
28771,-0.00014,-0.00016,-0.00017,-0.00035,9e-05,0.0001,-0.00019,-0.00052,6,11
28772,-0.00014,-0.00016,-0.00017,-0.00035,9e-05,0.0001,-0.00019,-0.00052,6,11
28773,-0.00014,-0.00016,-0.00017,-0.00035,9e-05,0.0001,-0.00019,-0.00052,6,11
28774,-0.00014,-0.00016,-0.00017,-0.00035,9e-05,0.0001,-0.00019,-0.00052,6,11
28775,-0.00014,-0.00016,-0.00017,-0.00035,9e-05,0.0001,-0.00019,-0.00052,6,11
28776,-0.00014,-0.00016,-0.00017,-0.00035,9e-05,0.0001,-0.00019,-0.00052,6,11
28777,-0.00014,-0.00016,-0.00017,-0.00035,9e-05,0.0001,-0.00019,-0.00052,6,11
28778,-6e-05,-0.00015,-0.00016,-0.00027,-0.00039,0.00058,-0.00051,0.00031,6,11
28779,-6e-05,-0.00015,-0.00016,-0.00027,-0.00039,0.00058,-0.00051,0.00031,6,11
28780,0.00022,9e-05,5e-05,-2e-05,-0.00075,-0.00017,-0.00037,0.00068,6,11
28781,0.00022,9e-05,5e-05,-2e-05,-0.00075,-0.00017,-0.00037,0.00068,6,11
28782,0.00022,9e-05,5e-05,-2e-05,-0.00075,-0.00017,-0.00037,0.00068,6,11
28783,0.00022,9e-05,5e-05,-2e-05,-0.00075,-0.00017,-0.00037,0.00068,6,11
28784,0.00022,9e-05,5e-05,-2e-05,-0.00075,-0.00017,-0.00037,0.00068,6,11
28785,0.00022,9e-05,5e-05,-2e-05,-0.00075,-0.00017,-0.00037,0.00068,6,11
28786,0.00022,9e-05,5e-05,-2e-05,-0.00075,-0.00017,-0.00037,0.00068,6,11
28788,0.00022,9e-05,5e-05,-2e-05,-0.00075,-0.00017,-0.00037,0.00068,6,11
28789,0.00022,9e-05,5e-05,-2e-05,-0.00075,-0.00017,-0.00037,0.00068,6,11
28790,0.00022,9e-05,5e-05,-2e-05,-0.00075,-0.00017,-0.00037,0.00068,6,11
28791,0.00022,9e-05,5e-05,-2e-05,-0.00075,-0.00017,-0.00037,0.00068,6,11
28792,0.00022,9e-05,5e-05,-2e-05,-0.00075,-0.00017,-0.00037,0.00068,6,11
28793,0.00022,9e-05,5e-05,-2e-05,-0.00075,-0.00017,-0.00037,0.00068,6,11
28794,0.00022,9e-05,5e-05,-2e-05,-0.00075,-0.00017,-0.00037,0.00068,6,11
28795,0.00022,9e-05,5e-05,-2e-05,-0.00075,-0.00017,-0.00037,0.00068,6,11
28796,0.00022,9e-05,5e-05,-2e-05,-0.00075,-0.00017,-0.00037,0.00068,6,11
28797,0.00022,9e-05,5e-05,-2e-05,-0.00075,-0.00017,-0.00037,0.00068,6,11
28798,0.00022,9e-05,5e-05,-2e-05,-0.00075,-0.00017,-0.00037,0.00068,6,11
28799,0.00022,9e-05,5e-05,-2e-05,-0.00075,-0.00017,-0.00037,0.00068,6,11
28800,0.00022,9e-05,5e-05,-2e-05,-0.00075,-0.00017,-0.00037,0.00068,6,11
28801,-5e-05,0,0,-0.00011,0.00035,-0.00089,-0.00012,0.00062,6,11
28802,-0.00011,-0.0001,-0.0001,-0.0001,-0.00067,-0.00027,-0.00036,2e-05,6,11
28803,-0.00011,-0.0001,-0.0001,-0.0001,-0.00067,-0.00027,-0.00036,2e-05,6,11
28804,-0.00011,-0.0001,-0.0001,-0.0001,-0.00067,-0.00027,-0.00036,2e-05,6,11
28805,-0.00011,-0.0001,-0.0001,-0.0001,-0.00067,-0.00027,-0.00036,2e-05,6,11
28806,-0.00011,-0.0001,-0.0001,-0.0001,-0.00067,-0.00027,-0.00036,2e-05,6,11
28807,-0.00011,-0.0001,-0.0001,-0.0001,-0.00067,-0.00027,-0.00036,2e-05,6,11
28808,-0.00011,-0.0001,-0.0001,-0.0001,-0.00067,-0.00027,-0.00036,2e-05,6,11
28809,-0.00011,-0.0001,-0.0001,-0.0001,-0.00067,-0.00027,-0.00036,2e-05,6,11
28810,-0.00011,-0.0001,-0.0001,-0.0001,-0.00067,-0.00027,-0.00036,2e-05,6,11
28811,-0.00011,-0.0001,-0.0001,-0.0001,-0.00067,-0.00027,-0.00036,2e-05,6,11
28812,-0.00011,-0.0001,-0.0001,-0.0001,-0.00067,-0.00027,-0.00036,2e-05,6,11
28813,-0.00011,-0.0001,-0.0001,-0.0001,-0.00067,-0.00027,-0.00036,2e-05,6,11
28814,-0.00011,-0.0001,-0.0001,-0.0001,-0.00067,-0.00027,-0.00036,2e-05,6,11
28815,0,4e-05,2e-05,3e-05,-0.00077,-0.00089,-3e-05,0.00095,6,11
28816,0,4e-05,2e-05,3e-05,-0.00077,-0.00089,-3e-05,0.00095,6,11
28817,0,4e-05,2e-05,3e-05,-0.00077,-0.00089,-3e-05,0.00095,6,11
28818,0,4e-05,2e-05,3e-05,-0.00077,-0.00089,-3e-05,0.00095,6,11
28819,0,4e-05,2e-05,3e-05,-0.00077,-0.00089,-3e-05,0.00095,6,11
28820,0,4e-05,2e-05,3e-05,-0.00077,-0.00089,-3e-05,0.00095,6,11
28821,0,4e-05,2e-05,3e-05,-0.00077,-0.00089,-3e-05,0.00095,6,11
28822,-6e-05,-1e-05,0,-5e-05,-0.00018,-0.00067,4e-05,0.00018,6,11
28823,-6e-05,-1e-05,0,-5e-05,-0.00018,-0.00067,4e-05,0.00018,6,11
28824,-6e-05,-1e-05,0,-5e-05,-0.00018,-0.00067,4e-05,0.00018,6,11
28825,-6e-05,-1e-05,0,-5e-05,-0.00018,-0.00067,4e-05,0.00018,6,11
28826,-6e-05,-1e-05,0,-5e-05,-0.00018,-0.00067,4e-05,0.00018,6,11
28827,-6e-05,-1e-05,0,-5e-05,-0.00018,-0.00067,4e-05,0.00018,6,11
28828,-6e-05,-1e-05,0,-5e-05,-0.00018,-0.00067,4e-05,0.00018,6,11
28829,-6e-05,-1e-05,0,-5e-05,-0.00018,-0.00067,4e-05,0.00018,6,11
28830,-6e-05,-1e-05,0,-5e-05,-0.00018,-0.00067,4e-05,0.00018,6,11
28831,-6e-05,-1e-05,0,-5e-05,-0.00018,-0.00067,4e-05,0.00018,6,11
28832,-6e-05,-1e-05,0,-5e-05,-0.00018,-0.00067,4e-05,0.00018,6,11
28833,-6e-05,-1e-05,0,-5e-05,-0.00018,-0.00067,4e-05,0.00018,6,11
28834,-6e-05,-1e-05,0,-5e-05,-0.00018,-0.00067,4e-05,0.00018,6,11
28835,-6e-05,-1e-05,0,-5e-05,-0.00018,-0.00067,4e-05,0.00018,6,11
28836,-6e-05,-1e-05,0,-5e-05,-0.00018,-0.00067,4e-05,0.00018,6,11
28838,-6e-05,-1e-05,0,-5e-05,-0.00018,-0.00067,4e-05,0.00018,6,11
28839,2e-05,3e-05,6e-05,0.0002,0.00058,0.0006,-0.0001,-0.00029,6,11
28840,-0.00014,-0.00014,-0.00011,-6e-05,-0.00011,-0.00048,-0.00052,-0.0008,6,11
28841,-0.00014,-0.00014,-0.00011,-6e-05,-0.00011,-0.00048,-0.00052,-0.0008,6,11
28842,-0.00014,-0.00014,-0.00011,-6e-05,-0.00011,-0.00048,-0.00052,-0.0008,6,11
28843,-0.00014,-0.00014,-0.00011,-6e-05,-0.00011,-0.00048,-0.00052,-0.0008,6,11
28844,-0.00014,-0.00014,-0.00011,-6e-05,-0.00011,-0.00048,-0.00052,-0.0008,6,11
28845,-0.00014,-0.00014,-0.00011,-6e-05,-0.00011,-0.00048,-0.00052,-0.0008,6,11
28846,-0.00014,-0.00014,-0.00011,-6e-05,-0.00011,-0.00048,-0.00052,-0.0008,6,11
28847,-0.00014,-0.00014,-0.00011,-6e-05,-0.00011,-0.00048,-0.00052,-0.0008,6,11
28848,-0.00014,-0.00014,-0.00011,-6e-05,-0.00011,-0.00048,-0.00052,-0.0008,6,11
28849,-0.00014,-0.00014,-0.00011,-6e-05,-0.00011,-0.00048,-0.00052,-0.0008,6,11
28850,-0.00014,-0.00014,-0.00011,-6e-05,-0.00011,-0.00048,-0.00052,-0.0008,6,11
28851,-0.00014,-0.00014,-0.00011,-6e-05,-0.00011,-0.00048,-0.00052,-0.0008,6,11
28852,-0.00014,-0.00014,-0.00011,-6e-05,-0.00011,-0.00048,-0.00052,-0.0008,6,11
28853,-0.00014,-0.00014,-0.00011,-6e-05,-0.00011,-0.00048,-0.00052,-0.0008,6,11
28854,-0.00014,-0.00014,-0.00011,-6e-05,-0.00011,-0.00048,-0.00052,-0.0008,6,11
28855,-0.00014,-0.00014,-0.00011,-6e-05,-0.00011,-0.00048,-0.00052,-0.0008,6,11
28856,-0.00014,-0.00014,-0.00011,-6e-05,-0.00011,-0.00048,-0.00052,-0.0008,6,11
28857,-0.00014,-0.00014,-0.00011,-6e-05,-0.00011,-0.00048,-0.00052,-0.0008,6,11
28858,-0.00014,-0.00014,-0.00011,-6e-05,-0.00011,-0.00048,-0.00052,-0.0008,6,11
28859,-0.00014,-0.00014,-0.00011,-6e-05,-0.00011,-0.00048,-0.00052,-0.0008,6,11
28860,-0.00014,-0.00014,-0.00011,-6e-05,-0.00011,-0.00048,-0.00052,-0.0008,6,11
28861,0.00021,0.00015,0.00012,0.00023,0.00072,0.00115,0.00063,-0.00093,6,11
28862,0,2e-05,2e-05,1e-05,-0.0005,0.00049,0.00033,-0.00083,6,11
28863,0,2e-05,2e-05,1e-05,-0.0005,0.00049,0.00033,-0.00083,6,11
28864,0,2e-05,2e-05,1e-05,-0.0005,0.00049,0.00033,-0.00083,6,11
28865,0,2e-05,2e-05,1e-05,-0.0005,0.00049,0.00033,-0.00083,6,11
28866,0,2e-05,2e-05,1e-05,-0.0005,0.00049,0.00033,-0.00083,6,11
28867,0,2e-05,2e-05,1e-05,-0.0005,0.00049,0.00033,-0.00083,6,11
28868,0,2e-05,2e-05,1e-05,-0.0005,0.00049,0.00033,-0.00083,6,11
28869,0,2e-05,2e-05,1e-05,-0.0005,0.00049,0.00033,-0.00083,6,11
28870,0,2e-05,2e-05,1e-05,-0.0005,0.00049,0.00033,-0.00083,6,11
28871,0,2e-05,2e-05,1e-05,-0.0005,0.00049,0.00033,-0.00083,6,11
28872,0,2e-05,2e-05,1e-05,-0.0005,0.00049,0.00033,-0.00083,6,11
28873,0,2e-05,2e-05,1e-05,-0.0005,0.00049,0.00033,-0.00083,6,11
28874,0,2e-05,2e-05,1e-05,-0.0005,0.00049,0.00033,-0.00083,6,11
28875,2e-05,-4e-05,-3e-05,-4e-05,-0.00035,0.00035,9e-05,-0.00054,6,11
28876,2e-05,-4e-05,-3e-05,-4e-05,-0.00035,0.00035,9e-05,-0.00054,6,11
28877,2e-05,-4e-05,-3e-05,-4e-05,-0.00035,0.00035,9e-05,-0.00054,6,11
28878,2e-05,-4e-05,-3e-05,-4e-05,-0.00035,0.00035,9e-05,-0.00054,6,11
28879,2e-05,-4e-05,-3e-05,-4e-05,-0.00035,0.00035,9e-05,-0.00054,6,11
28880,2e-05,-4e-05,-3e-05,-4e-05,-0.00035,0.00035,9e-05,-0.00054,6,11
28881,4e-05,0,1e-05,0.0001,0.00127,0.00074,0.00012,-0.00027,6,11
28882,-7e-05,-4e-05,-6e-05,-0.00028,-0.00099,-0.00107,-0.00023,0.00012,6,11
28883,-7e-05,-4e-05,-6e-05,-0.00028,-0.00099,-0.00107,-0.00023,0.00012,6,11
28884,-7e-05,-4e-05,-6e-05,-0.00028,-0.00099,-0.00107,-0.00023,0.00012,6,11
28885,-7e-05,-4e-05,-6e-05,-0.00028,-0.00099,-0.00107,-0.00023,0.00012,6,11
28886,-7e-05,-4e-05,-6e-05,-0.00028,-0.00099,-0.00107,-0.00023,0.00012,6,11
28888,-7e-05,-4e-05,-6e-05,-0.00028,-0.00099,-0.00107,-0.00023,0.00012,6,11
28889,-7e-05,-4e-05,-6e-05,-0.00028,-0.00099,-0.00107,-0.00023,0.00012,6,11
28890,-7e-05,-4e-05,-6e-05,-0.00028,-0.00099,-0.00107,-0.00023,0.00012,6,11
28891,-7e-05,-4e-05,-6e-05,-0.00028,-0.00099,-0.00107,-0.00023,0.00012,6,11
28892,-7e-05,-4e-05,-6e-05,-0.00028,-0.00099,-0.00107,-0.00023,0.00012,6,11
28893,-7e-05,-4e-05,-6e-05,-0.00028,-0.00099,-0.00107,-0.00023,0.00012,6,11
28894,-7e-05,-4e-05,-6e-05,-0.00028,-0.00099,-0.00107,-0.00023,0.00012,6,11
28895,-7e-05,-4e-05,-6e-05,-0.00028,-0.00099,-0.00107,-0.00023,0.00012,6,11
28896,-7e-05,-4e-05,-6e-05,-0.00028,-0.00099,-0.00107,-0.00023,0.00012,6,11
28897,-7e-05,-4e-05,-6e-05,-0.00028,-0.00099,-0.00107,-0.00023,0.00012,6,11
28898,6e-05,-0.00011,-0.00015,-0.00032,-0.00105,-0.00099,-0.00026,0.00127,6,11
28899,6e-05,-0.00011,-0.00015,-0.00032,-0.00105,-0.00099,-0.00026,0.00127,6,11
28900,2e-05,2e-05,3e-05,-1e-05,-0.00023,-0.00044,-0.0001,0.00049,6,11
28901,2e-05,2e-05,3e-05,-1e-05,-0.00023,-0.00044,-0.0001,0.00049,6,11
28902,2e-05,2e-05,3e-05,-1e-05,-0.00023,-0.00044,-0.0001,0.00049,6,11
28903,2e-05,2e-05,3e-05,-1e-05,-0.00023,-0.00044,-0.0001,0.00049,6,11
28904,2e-05,2e-05,3e-05,-1e-05,-0.00023,-0.00044,-0.0001,0.00049,6,11
28905,2e-05,2e-05,3e-05,-1e-05,-0.00023,-0.00044,-0.0001,0.00049,6,11
28906,2e-05,2e-05,3e-05,-1e-05,-0.00023,-0.00044,-0.0001,0.00049,6,11
28907,2e-05,2e-05,3e-05,-1e-05,-0.00023,-0.00044,-0.0001,0.00049,6,11
28908,2e-05,2e-05,3e-05,-1e-05,-0.00023,-0.00044,-0.0001,0.00049,6,11
28909,2e-05,2e-05,3e-05,-1e-05,-0.00023,-0.00044,-0.0001,0.00049,6,11
28910,2e-05,2e-05,3e-05,-1e-05,-0.00023,-0.00044,-0.0001,0.00049,6,11
28911,2e-05,2e-05,3e-05,-1e-05,-0.00023,-0.00044,-0.0001,0.00049,6,11
28912,2e-05,2e-05,3e-05,-1e-05,-0.00023,-0.00044,-0.0001,0.00049,6,11
28913,2e-05,2e-05,3e-05,-1e-05,-0.00023,-0.00044,-0.0001,0.00049,6,11
28914,2e-05,2e-05,3e-05,-1e-05,-0.00023,-0.00044,-0.0001,0.00049,6,11
28915,2e-05,2e-05,3e-05,-1e-05,-0.00023,-0.00044,-0.0001,0.00049,6,11
28916,2e-05,2e-05,3e-05,-1e-05,-0.00023,-0.00044,-0.0001,0.00049,6,11
28917,2e-05,2e-05,3e-05,-1e-05,-0.00023,-0.00044,-0.0001,0.00049,6,11
28918,2e-05,2e-05,3e-05,-1e-05,-0.00023,-0.00044,-0.0001,0.00049,6,11
28919,2e-05,2e-05,3e-05,-1e-05,-0.00023,-0.00044,-0.0001,0.00049,6,11
28920,-5e-05,-2e-05,-5e-05,-0.00016,-0.00053,-0.00023,-1e-05,-0.00038,6,11
28921,8e-05,0.00014,0.0002,0.00021,0.00022,-0.00033,7e-05,8e-05,6,11
28922,-3e-05,-0.0001,-0.00013,-8e-05,0.00041,0.00044,5e-05,0.00047,6,11
28923,-3e-05,-0.0001,-0.00013,-8e-05,0.00041,0.00044,5e-05,0.00047,6,11
28924,-3e-05,-0.0001,-0.00013,-8e-05,0.00041,0.00044,5e-05,0.00047,6,11
28925,-3e-05,-0.0001,-0.00013,-8e-05,0.00041,0.00044,5e-05,0.00047,6,11
28926,-3e-05,-0.0001,-0.00013,-8e-05,0.00041,0.00044,5e-05,0.00047,6,11
28927,-3e-05,-0.0001,-0.00013,-8e-05,0.00041,0.00044,5e-05,0.00047,6,11
28928,-3e-05,-0.0001,-0.00013,-8e-05,0.00041,0.00044,5e-05,0.00047,6,11
28929,-3e-05,-0.0001,-0.00013,-8e-05,0.00041,0.00044,5e-05,0.00047,6,11
28930,-3e-05,-0.0001,-0.00013,-8e-05,0.00041,0.00044,5e-05,0.00047,6,11
28931,-3e-05,-0.0001,-0.00013,-8e-05,0.00041,0.00044,5e-05,0.00047,6,11
28932,-3e-05,-0.0001,-0.00013,-8e-05,0.00041,0.00044,5e-05,0.00047,6,11
28933,-3e-05,-0.0001,-0.00013,-8e-05,0.00041,0.00044,5e-05,0.00047,6,11
28934,-3e-05,-0.0001,-0.00013,-8e-05,0.00041,0.00044,5e-05,0.00047,6,11
28935,0.0001,5e-05,0.0001,0.00012,0.00019,0.00013,0.00034,-0.00027,6,11
28936,-0.00014,-9e-05,-0.00011,-6e-05,0.00012,-0.00061,-0.00017,-0.00111,6,11
28938,-0.00014,-9e-05,-0.00011,-6e-05,0.00012,-0.00061,-0.00017,-0.00111,6,11
28939,-0.00014,-9e-05,-0.00011,-6e-05,0.00012,-0.00061,-0.00017,-0.00111,6,11
28940,-0.00014,-9e-05,-0.00011,-6e-05,0.00012,-0.00061,-0.00017,-0.00111,6,11
28941,-0.00014,-9e-05,-0.00011,-6e-05,0.00012,-0.00061,-0.00017,-0.00111,6,11
28942,-0.00011,-1e-05,5e-05,9e-05,0.00069,0.00036,0.00044,0.00043,6,11
28943,-0.00011,-1e-05,5e-05,9e-05,0.00069,0.00036,0.00044,0.00043,6,11
28944,-0.00011,-1e-05,5e-05,9e-05,0.00069,0.00036,0.00044,0.00043,6,11
28945,-0.00011,-1e-05,5e-05,9e-05,0.00069,0.00036,0.00044,0.00043,6,11
28946,-0.00011,-1e-05,5e-05,9e-05,0.00069,0.00036,0.00044,0.00043,6,11
28947,-0.00011,-1e-05,5e-05,9e-05,0.00069,0.00036,0.00044,0.00043,6,11
28948,-0.00011,-1e-05,5e-05,9e-05,0.00069,0.00036,0.00044,0.00043,6,11
28949,-0.00011,-1e-05,5e-05,9e-05,0.00069,0.00036,0.00044,0.00043,6,11
28950,-0.00011,-1e-05,5e-05,9e-05,0.00069,0.00036,0.00044,0.00043,6,11
28951,-0.00011,-1e-05,5e-05,9e-05,0.00069,0.00036,0.00044,0.00043,6,11
28952,-0.00011,-1e-05,5e-05,9e-05,0.00069,0.00036,0.00044,0.00043,6,11
28953,-0.00011,-1e-05,5e-05,9e-05,0.00069,0.00036,0.00044,0.00043,6,11
28954,-0.00011,-1e-05,5e-05,9e-05,0.00069,0.00036,0.00044,0.00043,6,11
28955,-0.00011,-1e-05,5e-05,9e-05,0.00069,0.00036,0.00044,0.00043,6,11
28956,-0.00011,-1e-05,5e-05,9e-05,0.00069,0.00036,0.00044,0.00043,6,11
28957,-0.00011,-1e-05,5e-05,9e-05,0.00069,0.00036,0.00044,0.00043,6,11
28958,-8e-05,-6e-05,-3e-05,5e-05,0.00065,0.0011,0.00046,-0.00028,6,11
28959,-8e-05,-6e-05,-3e-05,5e-05,0.00065,0.0011,0.00046,-0.00028,6,11
28960,0,2e-05,1e-05,0.00011,0.00098,-0.00091,-6e-05,-0.00047,6,11
28961,0,2e-05,1e-05,0.00011,0.00098,-0.00091,-6e-05,-0.00047,6,11
28962,0,2e-05,1e-05,0.00011,0.00098,-0.00091,-6e-05,-0.00047,6,11
28963,0,2e-05,1e-05,0.00011,0.00098,-0.00091,-6e-05,-0.00047,6,11
28964,0,2e-05,1e-05,0.00011,0.00098,-0.00091,-6e-05,-0.00047,6,11
28965,0,2e-05,1e-05,0.00011,0.00098,-0.00091,-6e-05,-0.00047,6,11
28966,0,2e-05,1e-05,0.00011,0.00098,-0.00091,-6e-05,-0.00047,6,11
28967,0,2e-05,1e-05,0.00011,0.00098,-0.00091,-6e-05,-0.00047,6,11
28968,0,2e-05,1e-05,0.00011,0.00098,-0.00091,-6e-05,-0.00047,6,11
28969,0,2e-05,1e-05,0.00011,0.00098,-0.00091,-6e-05,-0.00047,6,11
28970,0,2e-05,1e-05,0.00011,0.00098,-0.00091,-6e-05,-0.00047,6,11
28971,0,2e-05,1e-05,0.00011,0.00098,-0.00091,-6e-05,-0.00047,6,11
28972,0,2e-05,1e-05,0.00011,0.00098,-0.00091,-6e-05,-0.00047,6,11
28973,0,2e-05,1e-05,0.00011,0.00098,-0.00091,-6e-05,-0.00047,6,11
28974,0,2e-05,1e-05,0.00011,0.00098,-0.00091,-6e-05,-0.00047,6,11
28975,0,2e-05,1e-05,0.00011,0.00098,-0.00091,-6e-05,-0.00047,6,11
28976,0,2e-05,1e-05,0.00011,0.00098,-0.00091,-6e-05,-0.00047,6,11
28977,0,2e-05,1e-05,0.00011,0.00098,-0.00091,-6e-05,-0.00047,6,11
28978,0,2e-05,1e-05,0.00011,0.00098,-0.00091,-6e-05,-0.00047,6,11
28979,0,2e-05,1e-05,0.00011,0.00098,-0.00091,-6e-05,-0.00047,6,11
28980,-5e-05,3e-05,1e-05,-1e-05,0.00012,-0.0001,7e-05,-0.00042,6,11
28981,-4e-05,-2e-05,-3e-05,1e-05,0.00064,0.00019,0.00026,0.00042,6,11
28982,0,7e-05,9e-05,0.00015,0.00025,0.00091,0.00017,-0.00125,6,11
28983,0,7e-05,9e-05,0.00015,0.00025,0.00091,0.00017,-0.00125,6,11
28984,0,7e-05,9e-05,0.00015,0.00025,0.00091,0.00017,-0.00125,6,11
28985,0,7e-05,9e-05,0.00015,0.00025,0.00091,0.00017,-0.00125,6,11
28986,0,7e-05,9e-05,0.00015,0.00025,0.00091,0.00017,-0.00125,6,11
28988,0,7e-05,9e-05,0.00015,0.00025,0.00091,0.00017,-0.00125,6,11
28989,0,7e-05,9e-05,0.00015,0.00025,0.00091,0.00017,-0.00125,6,11
28990,0,7e-05,9e-05,0.00015,0.00025,0.00091,0.00017,-0.00125,6,11
28991,0,7e-05,9e-05,0.00015,0.00025,0.00091,0.00017,-0.00125,6,11
28992,0,7e-05,9e-05,0.00015,0.00025,0.00091,0.00017,-0.00125,6,11
28993,0,7e-05,9e-05,0.00015,0.00025,0.00091,0.00017,-0.00125,6,11
28994,0,7e-05,9e-05,0.00015,0.00025,0.00091,0.00017,-0.00125,6,11
28995,-3e-05,-8e-05,-0.0001,3e-05,-0.00028,-0.00028,-0.00015,0.00018,6,11
28996,-3e-05,-8e-05,-0.0001,3e-05,-0.00028,-0.00028,-0.00015,0.00018,6,11
28997,-3e-05,-8e-05,-0.0001,3e-05,-0.00028,-0.00028,-0.00015,0.00018,6,11
28998,-3e-05,-8e-05,-0.0001,3e-05,-0.00028,-0.00028,-0.00015,0.00018,6,11
28999,-3e-05,-8e-05,-0.0001,3e-05,-0.00028,-0.00028,-0.00015,0.00018,6,11
29000,-3e-05,-8e-05,-0.0001,3e-05,-0.00028,-0.00028,-0.00015,0.00018,6,11
29001,-3e-05,-8e-05,-0.0001,3e-05,-0.00028,-0.00028,-0.00015,0.00018,6,11
29002,0.0001,4e-05,3e-05,0,0.00029,-0.00093,1e-05,0.00071,6,11
29003,0.0001,4e-05,3e-05,0,0.00029,-0.00093,1e-05,0.00071,6,11
29004,0.0001,4e-05,3e-05,0,0.00029,-0.00093,1e-05,0.00071,6,11
29005,0.0001,4e-05,3e-05,0,0.00029,-0.00093,1e-05,0.00071,6,11
29006,0.0001,4e-05,3e-05,0,0.00029,-0.00093,1e-05,0.00071,6,11
29007,0.0001,4e-05,3e-05,0,0.00029,-0.00093,1e-05,0.00071,6,11
29008,0.0001,4e-05,3e-05,0,0.00029,-0.00093,1e-05,0.00071,6,11
29009,0.0001,4e-05,3e-05,0,0.00029,-0.00093,1e-05,0.00071,6,11
29010,0.0001,4e-05,3e-05,0,0.00029,-0.00093,1e-05,0.00071,6,11
29011,0.0001,4e-05,3e-05,0,0.00029,-0.00093,1e-05,0.00071,6,11
29012,0.0001,4e-05,3e-05,0,0.00029,-0.00093,1e-05,0.00071,6,11
29013,0.0001,4e-05,3e-05,0,0.00029,-0.00093,1e-05,0.00071,6,11
29014,0.0001,4e-05,3e-05,0,0.00029,-0.00093,1e-05,0.00071,6,11
29015,0.0001,4e-05,3e-05,0,0.00029,-0.00093,1e-05,0.00071,6,11
29016,0.0001,4e-05,3e-05,0,0.00029,-0.00093,1e-05,0.00071,6,11
29017,0.0001,4e-05,3e-05,0,0.00029,-0.00093,1e-05,0.00071,6,11
29018,-6e-05,-6e-05,-6e-05,-0.00011,0.00011,-0.00063,-0.0006,-0.00042,6,11
29019,-6e-05,-6e-05,-6e-05,-0.00011,0.00011,-0.00063,-0.0006,-0.00042,6,11
29020,-3e-05,3e-05,-2e-05,-0.00012,-0.00051,-0.00076,5e-05,-0.00027,6,11
29021,-3e-05,3e-05,-2e-05,-0.00012,-0.00051,-0.00076,5e-05,-0.00027,6,11
29022,-3e-05,3e-05,-2e-05,-0.00012,-0.00051,-0.00076,5e-05,-0.00027,6,11
29023,-3e-05,3e-05,-2e-05,-0.00012,-0.00051,-0.00076,5e-05,-0.00027,6,11
29024,-3e-05,3e-05,-2e-05,-0.00012,-0.00051,-0.00076,5e-05,-0.00027,6,11
29025,-3e-05,3e-05,-2e-05,-0.00012,-0.00051,-0.00076,5e-05,-0.00027,6,11
29026,-3e-05,3e-05,-2e-05,-0.00012,-0.00051,-0.00076,5e-05,-0.00027,6,11
29027,-3e-05,3e-05,-2e-05,-0.00012,-0.00051,-0.00076,5e-05,-0.00027,6,11
29028,-3e-05,3e-05,-2e-05,-0.00012,-0.00051,-0.00076,5e-05,-0.00027,6,11
29029,-3e-05,3e-05,-2e-05,-0.00012,-0.00051,-0.00076,5e-05,-0.00027,6,11
29030,-3e-05,3e-05,-2e-05,-0.00012,-0.00051,-0.00076,5e-05,-0.00027,6,11
29031,-3e-05,3e-05,-2e-05,-0.00012,-0.00051,-0.00076,5e-05,-0.00027,6,11
29032,-3e-05,3e-05,-2e-05,-0.00012,-0.00051,-0.00076,5e-05,-0.00027,6,11
29033,-3e-05,3e-05,-2e-05,-0.00012,-0.00051,-0.00076,5e-05,-0.00027,6,11
29034,-3e-05,3e-05,-2e-05,-0.00012,-0.00051,-0.00076,5e-05,-0.00027,6,11
29035,-3e-05,3e-05,-2e-05,-0.00012,-0.00051,-0.00076,5e-05,-0.00027,6,11
29036,-3e-05,3e-05,-2e-05,-0.00012,-0.00051,-0.00076,5e-05,-0.00027,6,11
29038,-3e-05,3e-05,-2e-05,-0.00012,-0.00051,-0.00076,5e-05,-0.00027,6,11
29039,-3e-05,3e-05,-2e-05,-0.00012,-0.00051,-0.00076,5e-05,-0.00027,6,11
29040,2e-05,8e-05,0.00011,0.00019,0.00042,-0.00029,0,-1e-05,6,11
29041,2e-05,8e-05,0.00011,0.00019,0.00042,-0.00029,0,-1e-05,6,11
29042,-5e-05,-2e-05,-3e-05,0,0.0009,0.00112,0.00021,-0.00077,6,11
29043,-5e-05,-2e-05,-3e-05,0,0.0009,0.00112,0.00021,-0.00077,6,11
29044,-5e-05,-2e-05,-3e-05,0,0.0009,0.00112,0.00021,-0.00077,6,11
29045,-5e-05,-2e-05,-3e-05,0,0.0009,0.00112,0.00021,-0.00077,6,11
29046,-5e-05,-2e-05,-3e-05,0,0.0009,0.00112,0.00021,-0.00077,6,11
29047,-5e-05,-2e-05,-3e-05,0,0.0009,0.00112,0.00021,-0.00077,6,11
29048,-5e-05,-2e-05,-3e-05,0,0.0009,0.00112,0.00021,-0.00077,6,11
29049,-5e-05,-2e-05,-3e-05,0,0.0009,0.00112,0.00021,-0.00077,6,11
29050,-5e-05,-2e-05,-3e-05,0,0.0009,0.00112,0.00021,-0.00077,6,11
29051,-5e-05,-2e-05,-3e-05,0,0.0009,0.00112,0.00021,-0.00077,6,11
29052,-5e-05,-2e-05,-3e-05,0,0.0009,0.00112,0.00021,-0.00077,6,11
29053,-5e-05,-2e-05,-3e-05,0,0.0009,0.00112,0.00021,-0.00077,6,11
29054,-5e-05,-2e-05,-3e-05,0,0.0009,0.00112,0.00021,-0.00077,6,11
29055,5e-05,3e-05,6e-05,6e-05,4e-05,0.00077,4e-05,-0.00038,6,11
29056,5e-05,3e-05,6e-05,6e-05,4e-05,0.00077,4e-05,-0.00038,6,11
29057,5e-05,3e-05,6e-05,6e-05,4e-05,0.00077,4e-05,-0.00038,6,11
29058,5e-05,3e-05,6e-05,6e-05,4e-05,0.00077,4e-05,-0.00038,6,11
29059,5e-05,3e-05,6e-05,6e-05,4e-05,0.00077,4e-05,-0.00038,6,11
29060,5e-05,3e-05,6e-05,6e-05,4e-05,0.00077,4e-05,-0.00038,6,11
29061,5e-05,3e-05,6e-05,6e-05,4e-05,0.00077,4e-05,-0.00038,6,11
29062,6e-05,6e-05,8e-05,0.00018,-4e-05,0.00049,0.00044,0.00019,6,11
29063,6e-05,6e-05,8e-05,0.00018,-4e-05,0.00049,0.00044,0.00019,6,11
29064,6e-05,6e-05,8e-05,0.00018,-4e-05,0.00049,0.00044,0.00019,6,11
29065,6e-05,6e-05,8e-05,0.00018,-4e-05,0.00049,0.00044,0.00019,6,11
29066,6e-05,6e-05,8e-05,0.00018,-4e-05,0.00049,0.00044,0.00019,6,11
29067,6e-05,6e-05,8e-05,0.00018,-4e-05,0.00049,0.00044,0.00019,6,11
29068,6e-05,6e-05,8e-05,0.00018,-4e-05,0.00049,0.00044,0.00019,6,11
29069,6e-05,6e-05,8e-05,0.00018,-4e-05,0.00049,0.00044,0.00019,6,11
29070,6e-05,6e-05,8e-05,0.00018,-4e-05,0.00049,0.00044,0.00019,6,11
29071,6e-05,6e-05,8e-05,0.00018,-4e-05,0.00049,0.00044,0.00019,6,11
29072,6e-05,6e-05,8e-05,0.00018,-4e-05,0.00049,0.00044,0.00019,6,11
29073,6e-05,6e-05,8e-05,0.00018,-4e-05,0.00049,0.00044,0.00019,6,11
29074,6e-05,6e-05,8e-05,0.00018,-4e-05,0.00049,0.00044,0.00019,6,11
29075,6e-05,6e-05,8e-05,0.00018,-4e-05,0.00049,0.00044,0.00019,6,11
29076,6e-05,6e-05,8e-05,0.00018,-4e-05,0.00049,0.00044,0.00019,6,11
29077,6e-05,6e-05,8e-05,0.00018,-4e-05,0.00049,0.00044,0.00019,6,11
29078,4e-05,-6e-05,-5e-05,-0.00013,-0.00041,-0.00022,-0.00038,-0.00067,6,11
29079,-1e-05,-1e-05,-2e-05,2e-05,0.00018,0.00102,0.00037,0.0002,6,11
29080,-3e-05,-7e-05,-8e-05,1e-05,0.0001,-0.0005,-0.00036,-0.00092,6,11
29081,-3e-05,-7e-05,-8e-05,1e-05,0.0001,-0.0005,-0.00036,-0.00092,6,11
29082,-3e-05,-7e-05,-8e-05,1e-05,0.0001,-0.0005,-0.00036,-0.00092,6,11
29083,-3e-05,-7e-05,-8e-05,1e-05,0.0001,-0.0005,-0.00036,-0.00092,6,11
29084,-3e-05,-7e-05,-8e-05,1e-05,0.0001,-0.0005,-0.00036,-0.00092,6,11
29085,-3e-05,-7e-05,-8e-05,1e-05,0.0001,-0.0005,-0.00036,-0.00092,6,11
29086,-3e-05,-7e-05,-8e-05,1e-05,0.0001,-0.0005,-0.00036,-0.00092,6,11
29088,-3e-05,-7e-05,-8e-05,1e-05,0.0001,-0.0005,-0.00036,-0.00092,6,11
29089,-3e-05,-7e-05,-8e-05,1e-05,0.0001,-0.0005,-0.00036,-0.00092,6,11
29090,-3e-05,-7e-05,-8e-05,1e-05,0.0001,-0.0005,-0.00036,-0.00092,6,11
29091,-3e-05,-7e-05,-8e-05,1e-05,0.0001,-0.0005,-0.00036,-0.00092,6,11
29092,-3e-05,-7e-05,-8e-05,1e-05,0.0001,-0.0005,-0.00036,-0.00092,6,11
29093,-3e-05,-7e-05,-8e-05,1e-05,0.0001,-0.0005,-0.00036,-0.00092,6,11
29094,-3e-05,-7e-05,-8e-05,1e-05,0.0001,-0.0005,-0.00036,-0.00092,6,11
29095,-3e-05,-7e-05,-8e-05,1e-05,0.0001,-0.0005,-0.00036,-0.00092,6,11
29096,-3e-05,-7e-05,-8e-05,1e-05,0.0001,-0.0005,-0.00036,-0.00092,6,11
29097,-3e-05,-7e-05,-8e-05,1e-05,0.0001,-0.0005,-0.00036,-0.00092,6,11
29098,-3e-05,-7e-05,-8e-05,1e-05,0.0001,-0.0005,-0.00036,-0.00092,6,11
29099,-3e-05,-7e-05,-8e-05,1e-05,0.0001,-0.0005,-0.00036,-0.00092,6,11
29100,-3e-05,-3e-05,-2e-05,-3e-05,3e-05,-0.00062,-0.00031,-0.00065,6,11
29101,-5e-05,-1e-05,0,-4e-05,-0.00094,-0.0004,0.00026,-0.00025,6,11
29102,-9e-05,-3e-05,-2e-05,2e-05,-0.00019,0.00052,-3e-05,-0.00028,6,11
29103,-9e-05,-3e-05,-2e-05,2e-05,-0.00019,0.00052,-3e-05,-0.00028,6,11
29104,-9e-05,-3e-05,-2e-05,2e-05,-0.00019,0.00052,-3e-05,-0.00028,6,11
29105,-9e-05,-3e-05,-2e-05,2e-05,-0.00019,0.00052,-3e-05,-0.00028,6,11
29106,-9e-05,-3e-05,-2e-05,2e-05,-0.00019,0.00052,-3e-05,-0.00028,6,11
29107,-9e-05,-3e-05,-2e-05,2e-05,-0.00019,0.00052,-3e-05,-0.00028,6,11
29108,-9e-05,-3e-05,-2e-05,2e-05,-0.00019,0.00052,-3e-05,-0.00028,6,11
29109,-9e-05,-3e-05,-2e-05,2e-05,-0.00019,0.00052,-3e-05,-0.00028,6,11
29110,-9e-05,-3e-05,-2e-05,2e-05,-0.00019,0.00052,-3e-05,-0.00028,6,11
29111,-9e-05,-3e-05,-2e-05,2e-05,-0.00019,0.00052,-3e-05,-0.00028,6,11
29112,-9e-05,-3e-05,-2e-05,2e-05,-0.00019,0.00052,-3e-05,-0.00028,6,11
29113,-9e-05,-3e-05,-2e-05,2e-05,-0.00019,0.00052,-3e-05,-0.00028,6,11
29114,0.00014,-2e-05,-6e-05,-0.00017,2e-05,-0.00088,-0.00034,0.00122,6,11
29115,0.00014,-2e-05,-6e-05,-0.00017,2e-05,-0.00088,-0.00034,0.00122,6,11
29116,0.00014,-2e-05,-6e-05,-0.00017,2e-05,-0.00088,-0.00034,0.00122,6,11
29117,0.00014,-2e-05,-6e-05,-0.00017,2e-05,-0.00088,-0.00034,0.00122,6,11
29118,0.00014,-2e-05,-6e-05,-0.00017,2e-05,-0.00088,-0.00034,0.00122,6,11
29119,0.00014,-2e-05,-6e-05,-0.00017,2e-05,-0.00088,-0.00034,0.00122,6,11
29120,0.00014,-2e-05,-6e-05,-0.00017,2e-05,-0.00088,-0.00034,0.00122,6,11
29121,0.00014,-2e-05,-6e-05,-0.00017,2e-05,-0.00088,-0.00034,0.00122,6,11
29122,0.00014,-2e-05,-6e-05,-0.00017,2e-05,-0.00088,-0.00034,0.00122,6,11
29123,8e-05,0,1e-05,0,-0.00037,0.00077,0.00054,0.00124,6,11
29124,8e-05,0,1e-05,0,-0.00037,0.00077,0.00054,0.00124,6,11
29125,8e-05,0,1e-05,0,-0.00037,0.00077,0.00054,0.00124,6,11
29126,8e-05,0,1e-05,0,-0.00037,0.00077,0.00054,0.00124,6,11
29127,8e-05,0,1e-05,0,-0.00037,0.00077,0.00054,0.00124,6,11
29128,8e-05,0,1e-05,0,-0.00037,0.00077,0.00054,0.00124,6,11
29129,8e-05,0,1e-05,0,-0.00037,0.00077,0.00054,0.00124,6,11
29130,8e-05,0,1e-05,0,-0.00037,0.00077,0.00054,0.00124,6,11
29131,8e-05,0,1e-05,0,-0.00037,0.00077,0.00054,0.00124,6,11
29132,8e-05,0,1e-05,0,-0.00037,0.00077,0.00054,0.00124,6,11
29133,8e-05,0,1e-05,0,-0.00037,0.00077,0.00054,0.00124,6,11
29134,8e-05,0,1e-05,0,-0.00037,0.00077,0.00054,0.00124,6,11
29135,8e-05,0,1e-05,0,-0.00037,0.00077,0.00054,0.00124,6,11
29136,8e-05,0,1e-05,0,-0.00037,0.00077,0.00054,0.00124,6,11
29139,-3e-05,4e-05,5e-05,6e-05,0.00023,0.00127,0.0005,0.00101,6,11
29140,0.00011,4e-05,8e-05,8e-05,0.00034,0.00096,-0.00011,-2e-05,6,11
29141,0.00011,4e-05,8e-05,8e-05,0.00034,0.00096,-0.00011,-2e-05,6,11
29142,0.00011,4e-05,8e-05,8e-05,0.00034,0.00096,-0.00011,-2e-05,6,11
29143,0.00011,4e-05,8e-05,8e-05,0.00034,0.00096,-0.00011,-2e-05,6,11
29144,0.00011,4e-05,8e-05,8e-05,0.00034,0.00096,-0.00011,-2e-05,6,11
29145,0.00011,4e-05,8e-05,8e-05,0.00034,0.00096,-0.00011,-2e-05,6,11
29146,0.00011,4e-05,8e-05,8e-05,0.00034,0.00096,-0.00011,-2e-05,6,11
29147,0.00011,4e-05,8e-05,8e-05,0.00034,0.00096,-0.00011,-2e-05,6,11
29148,0.00011,4e-05,8e-05,8e-05,0.00034,0.00096,-0.00011,-2e-05,6,11
29149,0.00011,4e-05,8e-05,8e-05,0.00034,0.00096,-0.00011,-2e-05,6,11
29150,0.00011,4e-05,8e-05,8e-05,0.00034,0.00096,-0.00011,-2e-05,6,11
29151,0.00011,4e-05,8e-05,8e-05,0.00034,0.00096,-0.00011,-2e-05,6,11
29152,0.00011,4e-05,8e-05,8e-05,0.00034,0.00096,-0.00011,-2e-05,6,11
29153,0.00011,4e-05,8e-05,8e-05,0.00034,0.00096,-0.00011,-2e-05,6,11
29154,0.00011,4e-05,8e-05,8e-05,0.00034,0.00096,-0.00011,-2e-05,6,11
29155,0.00011,4e-05,8e-05,8e-05,0.00034,0.00096,-0.00011,-2e-05,6,11
29156,0.00011,4e-05,8e-05,8e-05,0.00034,0.00096,-0.00011,-2e-05,6,11
29157,0.00011,4e-05,8e-05,8e-05,0.00034,0.00096,-0.00011,-2e-05,6,11
29158,0.00011,4e-05,8e-05,8e-05,0.00034,0.00096,-0.00011,-2e-05,6,11
29159,0.00011,4e-05,8e-05,8e-05,0.00034,0.00096,-0.00011,-2e-05,6,11
29160,0.00011,4e-05,8e-05,8e-05,0.00034,0.00096,-0.00011,-2e-05,6,11
29161,-9e-05,-1e-05,-4e-05,-0.00013,-6e-05,0.00063,0.00017,-0.00087,6,11
29162,-9e-05,-1e-05,-4e-05,-0.00013,-6e-05,0.00063,0.00017,-0.00087,6,11
29163,-9e-05,-1e-05,-4e-05,-0.00013,-6e-05,0.00063,0.00017,-0.00087,6,11
29164,-9e-05,-1e-05,-4e-05,-0.00013,-6e-05,0.00063,0.00017,-0.00087,6,11
29165,-9e-05,-1e-05,-4e-05,-0.00013,-6e-05,0.00063,0.00017,-0.00087,6,11
29166,-5e-05,-8e-05,-5e-05,1e-05,-8e-05,0.00035,0.00016,0.00022,6,11
29167,2e-05,1e-05,0,0,-0.00024,-4e-05,0,-0.0006,6,11
29168,2e-05,1e-05,0,0,-0.00024,-4e-05,0,-0.0006,6,11
29169,2e-05,1e-05,0,0,-0.00024,-4e-05,0,-0.0006,6,11
29170,2e-05,1e-05,0,0,-0.00024,-4e-05,0,-0.0006,6,11
29171,2e-05,1e-05,0,0,-0.00024,-4e-05,0,-0.0006,6,11
29172,2e-05,1e-05,0,0,-0.00024,-4e-05,0,-0.0006,6,11
29173,2e-05,1e-05,0,0,-0.00024,-4e-05,0,-0.0006,6,11
29174,4e-05,4e-05,4e-05,9e-05,-0.00015,-0.0001,-8e-05,0.00032,6,11
29175,4e-05,4e-05,4e-05,9e-05,-0.00015,-0.0001,-8e-05,0.00032,6,11
29176,4e-05,4e-05,4e-05,9e-05,-0.00015,-0.0001,-8e-05,0.00032,6,11
29177,4e-05,4e-05,4e-05,9e-05,-0.00015,-0.0001,-8e-05,0.00032,6,11
29178,4e-05,4e-05,4e-05,9e-05,-0.00015,-0.0001,-8e-05,0.00032,6,11
29179,4e-05,4e-05,4e-05,9e-05,-0.00015,-0.0001,-8e-05,0.00032,6,11
29180,4e-05,4e-05,4e-05,9e-05,-0.00015,-0.0001,-8e-05,0.00032,6,11
29181,4e-05,4e-05,4e-05,9e-05,-0.00015,-0.0001,-8e-05,0.00032,6,11
29182,4e-05,4e-05,4e-05,9e-05,-0.00015,-0.0001,-8e-05,0.00032,6,11
29183,-9e-05,-0.00013,-0.00014,-0.00014,7e-05,-0.00093,-0.00017,0.00022,6,11
29184,-9e-05,-0.00013,-0.00014,-0.00014,7e-05,-0.00093,-0.00017,0.00022,6,11
29185,-9e-05,-0.00013,-0.00014,-0.00014,7e-05,-0.00093,-0.00017,0.00022,6,11
29186,-9e-05,-0.00013,-0.00014,-0.00014,7e-05,-0.00093,-0.00017,0.00022,6,11
29188,-9e-05,-0.00013,-0.00014,-0.00014,7e-05,-0.00093,-0.00017,0.00022,6,11
29189,-9e-05,-0.00013,-0.00014,-0.00014,7e-05,-0.00093,-0.00017,0.00022,6,11
29190,-9e-05,-0.00013,-0.00014,-0.00014,7e-05,-0.00093,-0.00017,0.00022,6,11
29191,-9e-05,-0.00013,-0.00014,-0.00014,7e-05,-0.00093,-0.00017,0.00022,6,11
29192,-9e-05,-0.00013,-0.00014,-0.00014,7e-05,-0.00093,-0.00017,0.00022,6,11
29193,-9e-05,-0.00013,-0.00014,-0.00014,7e-05,-0.00093,-0.00017,0.00022,6,11
29194,-9e-05,-0.00013,-0.00014,-0.00014,7e-05,-0.00093,-0.00017,0.00022,6,11
29195,-9e-05,-0.00013,-0.00014,-0.00014,7e-05,-0.00093,-0.00017,0.00022,6,11
29196,-9e-05,-0.00013,-0.00014,-0.00014,7e-05,-0.00093,-0.00017,0.00022,6,11
29197,-9e-05,-0.00013,-0.00014,-0.00014,7e-05,-0.00093,-0.00017,0.00022,6,11
29198,-3e-05,-5e-05,-7e-05,-0.00013,-0.00058,-0.00039,-0.00034,-0.00027,6,11
29199,-0.00023,-0.00012,-0.0001,-0.00018,0.00028,-7e-05,-0.00017,-0.00087,6,11
29200,7e-05,0,1e-05,4e-05,-0.00065,-0.00069,-0.00028,-0.00034,6,11
29201,7e-05,0,1e-05,4e-05,-0.00065,-0.00069,-0.00028,-0.00034,6,11
29202,7e-05,0,1e-05,4e-05,-0.00065,-0.00069,-0.00028,-0.00034,6,11
29203,7e-05,0,1e-05,4e-05,-0.00065,-0.00069,-0.00028,-0.00034,6,11
29204,7e-05,0,1e-05,4e-05,-0.00065,-0.00069,-0.00028,-0.00034,6,11
29205,7e-05,0,1e-05,4e-05,-0.00065,-0.00069,-0.00028,-0.00034,6,11
29206,7e-05,0,1e-05,4e-05,-0.00065,-0.00069,-0.00028,-0.00034,6,11
29207,7e-05,0,1e-05,4e-05,-0.00065,-0.00069,-0.00028,-0.00034,6,11
29208,7e-05,0,1e-05,4e-05,-0.00065,-0.00069,-0.00028,-0.00034,6,11
29209,7e-05,0,1e-05,4e-05,-0.00065,-0.00069,-0.00028,-0.00034,6,11
29210,7e-05,0,1e-05,4e-05,-0.00065,-0.00069,-0.00028,-0.00034,6,11
29211,7e-05,0,1e-05,4e-05,-0.00065,-0.00069,-0.00028,-0.00034,6,11
29212,7e-05,0,1e-05,4e-05,-0.00065,-0.00069,-0.00028,-0.00034,6,11
29213,7e-05,0,1e-05,4e-05,-0.00065,-0.00069,-0.00028,-0.00034,6,11
29214,7e-05,0,1e-05,4e-05,-0.00065,-0.00069,-0.00028,-0.00034,6,11
29215,7e-05,0,1e-05,4e-05,-0.00065,-0.00069,-0.00028,-0.00034,6,11
29216,7e-05,0,1e-05,4e-05,-0.00065,-0.00069,-0.00028,-0.00034,6,11
29217,7e-05,0,1e-05,4e-05,-0.00065,-0.00069,-0.00028,-0.00034,6,11
29218,7e-05,0,1e-05,4e-05,-0.00065,-0.00069,-0.00028,-0.00034,6,11
29219,7e-05,0,1e-05,4e-05,-0.00065,-0.00069,-0.00028,-0.00034,6,11
29220,-4e-05,1e-05,1e-05,5e-05,0.00097,0.00069,0.00035,-0.00069,6,11
29221,-0.00013,-0.0001,-0.0001,-4e-05,8e-05,-0.00054,-7e-05,-0.00027,6,11
29222,-5e-05,-6e-05,-7e-05,-0.00018,-0.00021,-0.00058,-6e-05,0.00052,6,11
29223,-5e-05,-6e-05,-7e-05,-0.00018,-0.00021,-0.00058,-6e-05,0.00052,6,11
29224,-5e-05,-6e-05,-7e-05,-0.00018,-0.00021,-0.00058,-6e-05,0.00052,6,11
29225,-5e-05,-6e-05,-7e-05,-0.00018,-0.00021,-0.00058,-6e-05,0.00052,6,11
29226,-5e-05,-6e-05,-7e-05,-0.00018,-0.00021,-0.00058,-6e-05,0.00052,6,11
29227,-5e-05,-6e-05,-7e-05,-0.00018,-0.00021,-0.00058,-6e-05,0.00052,6,11
29228,-5e-05,-6e-05,-7e-05,-0.00018,-0.00021,-0.00058,-6e-05,0.00052,6,11
29229,-5e-05,-6e-05,-7e-05,-0.00018,-0.00021,-0.00058,-6e-05,0.00052,6,11
29230,-5e-05,-6e-05,-7e-05,-0.00018,-0.00021,-0.00058,-6e-05,0.00052,6,11
29231,-5e-05,-6e-05,-7e-05,-0.00018,-0.00021,-0.00058,-6e-05,0.00052,6,11
29232,-5e-05,-6e-05,-7e-05,-0.00018,-0.00021,-0.00058,-6e-05,0.00052,6,11
29233,-5e-05,-6e-05,-7e-05,-0.00018,-0.00021,-0.00058,-6e-05,0.00052,6,11
29234,-4e-05,6e-05,6e-05,4e-05,-0.00017,-0.00032,-0.00031,-0.00097,6,11
29235,-2e-05,-8e-05,-9e-05,-9e-05,0.00039,0.00056,0,-0.00054,6,11
29236,-2e-05,-8e-05,-9e-05,-9e-05,0.00039,0.00056,0,-0.00054,6,11
29238,-2e-05,-8e-05,-9e-05,-9e-05,0.00039,0.00056,0,-0.00054,6,11
29239,-2e-05,-8e-05,-9e-05,-9e-05,0.00039,0.00056,0,-0.00054,6,11
29240,-2e-05,-8e-05,-9e-05,-9e-05,0.00039,0.00056,0,-0.00054,6,11
29241,-2e-05,-8e-05,-9e-05,-9e-05,0.00039,0.00056,0,-0.00054,6,11
29242,-2e-05,-8e-05,-9e-05,-9e-05,0.00039,0.00056,0,-0.00054,6,11
29243,9e-05,2e-05,1e-05,0.0001,0.00071,0.00112,-0.00012,-0.00029,6,11
29244,9e-05,2e-05,1e-05,0.0001,0.00071,0.00112,-0.00012,-0.00029,6,11
29245,9e-05,2e-05,1e-05,0.0001,0.00071,0.00112,-0.00012,-0.00029,6,11
29246,9e-05,2e-05,1e-05,0.0001,0.00071,0.00112,-0.00012,-0.00029,6,11
29247,9e-05,2e-05,1e-05,0.0001,0.00071,0.00112,-0.00012,-0.00029,6,11
29248,9e-05,2e-05,1e-05,0.0001,0.00071,0.00112,-0.00012,-0.00029,6,11
29249,9e-05,2e-05,1e-05,0.0001,0.00071,0.00112,-0.00012,-0.00029,6,11
29250,9e-05,2e-05,1e-05,0.0001,0.00071,0.00112,-0.00012,-0.00029,6,11
29251,9e-05,2e-05,1e-05,0.0001,0.00071,0.00112,-0.00012,-0.00029,6,11
29252,9e-05,2e-05,1e-05,0.0001,0.00071,0.00112,-0.00012,-0.00029,6,11
29253,9e-05,2e-05,1e-05,0.0001,0.00071,0.00112,-0.00012,-0.00029,6,11
29254,9e-05,2e-05,1e-05,0.0001,0.00071,0.00112,-0.00012,-0.00029,6,11
29255,9e-05,2e-05,1e-05,0.0001,0.00071,0.00112,-0.00012,-0.00029,6,11
29256,9e-05,2e-05,1e-05,0.0001,0.00071,0.00112,-0.00012,-0.00029,6,11
29257,9e-05,2e-05,1e-05,0.0001,0.00071,0.00112,-0.00012,-0.00029,6,11
29258,0.0002,0.00018,0.00026,0.00032,0.00033,0.0003,0.00085,0.001,6,11
29259,-1e-05,-5e-05,-6e-05,-3e-05,0.00034,-0.00075,-7e-05,-0.00035,6,11
29260,1e-05,7e-05,8e-05,8e-05,0.00047,5e-05,6e-05,0.00066,6,11
29261,1e-05,7e-05,8e-05,8e-05,0.00047,5e-05,6e-05,0.00066,6,11
29262,1e-05,7e-05,8e-05,8e-05,0.00047,5e-05,6e-05,0.00066,6,11
29263,1e-05,7e-05,8e-05,8e-05,0.00047,5e-05,6e-05,0.00066,6,11
29264,1e-05,7e-05,8e-05,8e-05,0.00047,5e-05,6e-05,0.00066,6,11
29265,1e-05,7e-05,8e-05,8e-05,0.00047,5e-05,6e-05,0.00066,6,11
29266,1e-05,7e-05,8e-05,8e-05,0.00047,5e-05,6e-05,0.00066,6,11
29267,1e-05,7e-05,8e-05,8e-05,0.00047,5e-05,6e-05,0.00066,6,11
29268,1e-05,7e-05,8e-05,8e-05,0.00047,5e-05,6e-05,0.00066,6,11
29269,1e-05,7e-05,8e-05,8e-05,0.00047,5e-05,6e-05,0.00066,6,11
29270,1e-05,7e-05,8e-05,8e-05,0.00047,5e-05,6e-05,0.00066,6,11
29271,1e-05,7e-05,8e-05,8e-05,0.00047,5e-05,6e-05,0.00066,6,11
29272,1e-05,7e-05,8e-05,8e-05,0.00047,5e-05,6e-05,0.00066,6,11
29273,1e-05,7e-05,8e-05,8e-05,0.00047,5e-05,6e-05,0.00066,6,11
29274,1e-05,7e-05,8e-05,8e-05,0.00047,5e-05,6e-05,0.00066,6,11
29275,1e-05,7e-05,8e-05,8e-05,0.00047,5e-05,6e-05,0.00066,6,11
29276,1e-05,7e-05,8e-05,8e-05,0.00047,5e-05,6e-05,0.00066,6,11
29277,1e-05,7e-05,8e-05,8e-05,0.00047,5e-05,6e-05,0.00066,6,11
29278,1e-05,7e-05,8e-05,8e-05,0.00047,5e-05,6e-05,0.00066,6,11
29279,1e-05,7e-05,8e-05,8e-05,0.00047,5e-05,6e-05,0.00066,6,11
29280,-3e-05,-8e-05,-9e-05,0,0.00066,-0.00058,-0.00027,0.00012,6,11
29281,-8e-05,-5e-05,-5e-05,-7e-05,-0.0006,-0.00077,-0.00028,-0.00033,6,11
29282,-8e-05,2e-05,3e-05,-3e-05,-0.00102,0.00038,0.00017,-8e-05,6,11
29283,-8e-05,2e-05,3e-05,-3e-05,-0.00102,0.00038,0.00017,-8e-05,6,11
29284,-8e-05,2e-05,3e-05,-3e-05,-0.00102,0.00038,0.00017,-8e-05,6,11
29285,-8e-05,2e-05,3e-05,-3e-05,-0.00102,0.00038,0.00017,-8e-05,6,11
29286,-8e-05,2e-05,3e-05,-3e-05,-0.00102,0.00038,0.00017,-8e-05,6,11
29288,-8e-05,2e-05,3e-05,-3e-05,-0.00102,0.00038,0.00017,-8e-05,6,11
29289,-8e-05,2e-05,3e-05,-3e-05,-0.00102,0.00038,0.00017,-8e-05,6,11
29290,-8e-05,2e-05,3e-05,-3e-05,-0.00102,0.00038,0.00017,-8e-05,6,11
29291,-8e-05,2e-05,3e-05,-3e-05,-0.00102,0.00038,0.00017,-8e-05,6,11
29292,-8e-05,2e-05,3e-05,-3e-05,-0.00102,0.00038,0.00017,-8e-05,6,11
29293,-8e-05,2e-05,3e-05,-3e-05,-0.00102,0.00038,0.00017,-8e-05,6,11
29294,-1e-05,-3e-05,-6e-05,-9e-05,-0.00019,-0.00076,-0.00017,-0.00022,6,11
29295,-1e-05,-3e-05,-6e-05,-9e-05,-0.00019,-0.00076,-0.00017,-0.00022,6,11
29296,-1e-05,-3e-05,-6e-05,-9e-05,-0.00019,-0.00076,-0.00017,-0.00022,6,11
29297,-1e-05,-3e-05,-6e-05,-9e-05,-0.00019,-0.00076,-0.00017,-0.00022,6,11
29298,-1e-05,-3e-05,-6e-05,-9e-05,-0.00019,-0.00076,-0.00017,-0.00022,6,11
29299,-1e-05,-3e-05,-6e-05,-9e-05,-0.00019,-0.00076,-0.00017,-0.00022,6,11
29300,-1e-05,-3e-05,-6e-05,-9e-05,-0.00019,-0.00076,-0.00017,-0.00022,6,11
29301,-1e-05,-3e-05,-6e-05,-9e-05,-0.00019,-0.00076,-0.00017,-0.00022,6,11
29302,-1e-05,-3e-05,-6e-05,-9e-05,-0.00019,-0.00076,-0.00017,-0.00022,6,11
29303,-1e-05,-3e-05,-6e-05,-9e-05,-0.00019,-0.00076,-0.00017,-0.00022,6,11
29304,-0.0001,-0.00013,-0.00014,-0.00022,-0.00066,-0.00128,-0.00059,-0.00085,6,11
29305,-0.0001,-0.00013,-0.00014,-0.00022,-0.00066,-0.00128,-0.00059,-0.00085,6,11
29306,-0.0001,-0.00013,-0.00014,-0.00022,-0.00066,-0.00128,-0.00059,-0.00085,6,11
29307,-0.0001,-0.00013,-0.00014,-0.00022,-0.00066,-0.00128,-0.00059,-0.00085,6,11
29308,-0.0001,-0.00013,-0.00014,-0.00022,-0.00066,-0.00128,-0.00059,-0.00085,6,11
29309,-0.0001,-0.00013,-0.00014,-0.00022,-0.00066,-0.00128,-0.00059,-0.00085,6,11
29310,-0.0001,-0.00013,-0.00014,-0.00022,-0.00066,-0.00128,-0.00059,-0.00085,6,11
29311,-0.0001,-0.00013,-0.00014,-0.00022,-0.00066,-0.00128,-0.00059,-0.00085,6,11
29312,-0.0001,-0.00013,-0.00014,-0.00022,-0.00066,-0.00128,-0.00059,-0.00085,6,11
29313,-0.0001,-0.00013,-0.00014,-0.00022,-0.00066,-0.00128,-0.00059,-0.00085,6,11
29314,-0.0001,-0.00013,-0.00014,-0.00022,-0.00066,-0.00128,-0.00059,-0.00085,6,11
29315,-0.0001,-0.00013,-0.00014,-0.00022,-0.00066,-0.00128,-0.00059,-0.00085,6,11
29316,-0.0001,-0.00013,-0.00014,-0.00022,-0.00066,-0.00128,-0.00059,-0.00085,6,11
29317,-0.0001,-0.00013,-0.00014,-0.00022,-0.00066,-0.00128,-0.00059,-0.00085,6,11
29318,0,0,-3e-05,-8e-05,0.00027,-0.00068,-0.00017,0.00052,6,11
29319,0,0,-3e-05,-8e-05,0.00027,-0.00068,-0.00017,0.00052,6,11
29320,7e-05,5e-05,7e-05,0.00011,0.00046,0.00096,0.00054,-0.00012,6,11
29321,7e-05,5e-05,7e-05,0.00011,0.00046,0.00096,0.00054,-0.00012,6,11
29322,7e-05,5e-05,7e-05,0.00011,0.00046,0.00096,0.00054,-0.00012,6,11
29323,7e-05,5e-05,7e-05,0.00011,0.00046,0.00096,0.00054,-0.00012,6,11
29324,7e-05,5e-05,7e-05,0.00011,0.00046,0.00096,0.00054,-0.00012,6,11
29325,7e-05,5e-05,7e-05,0.00011,0.00046,0.00096,0.00054,-0.00012,6,11
29326,7e-05,5e-05,7e-05,0.00011,0.00046,0.00096,0.00054,-0.00012,6,11
29327,7e-05,5e-05,7e-05,0.00011,0.00046,0.00096,0.00054,-0.00012,6,11
29328,7e-05,5e-05,7e-05,0.00011,0.00046,0.00096,0.00054,-0.00012,6,11
29329,7e-05,5e-05,7e-05,0.00011,0.00046,0.00096,0.00054,-0.00012,6,11
29330,7e-05,5e-05,7e-05,0.00011,0.00046,0.00096,0.00054,-0.00012,6,11
29331,7e-05,5e-05,7e-05,0.00011,0.00046,0.00096,0.00054,-0.00012,6,11
29332,7e-05,5e-05,7e-05,0.00011,0.00046,0.00096,0.00054,-0.00012,6,11
29333,7e-05,5e-05,7e-05,0.00011,0.00046,0.00096,0.00054,-0.00012,6,11
29334,7e-05,5e-05,7e-05,0.00011,0.00046,0.00096,0.00054,-0.00012,6,11
29335,7e-05,5e-05,7e-05,0.00011,0.00046,0.00096,0.00054,-0.00012,6,11
29336,7e-05,5e-05,7e-05,0.00011,0.00046,0.00096,0.00054,-0.00012,6,11
29338,7e-05,5e-05,7e-05,0.00011,0.00046,0.00096,0.00054,-0.00012,6,11
29339,7e-05,5e-05,7e-05,0.00011,0.00046,0.00096,0.00054,-0.00012,6,11
29340,3e-05,3e-05,5e-05,3e-05,-0.00019,0.00074,0.0002,0.00031,6,11
29341,0,9e-05,7e-05,0.00011,0.00035,-0.00025,0,-0.00088,6,11
29342,-0.0001,-6e-05,-7e-05,-0.0001,-0.00025,-0.00106,-5e-05,-0.00073,6,11
29343,-0.0001,-6e-05,-7e-05,-0.0001,-0.00025,-0.00106,-5e-05,-0.00073,6,11
29344,-0.0001,-6e-05,-7e-05,-0.0001,-0.00025,-0.00106,-5e-05,-0.00073,6,11
29345,-0.0001,-6e-05,-7e-05,-0.0001,-0.00025,-0.00106,-5e-05,-0.00073,6,11
29346,-0.0001,-6e-05,-7e-05,-0.0001,-0.00025,-0.00106,-5e-05,-0.00073,6,11
29347,-0.0001,-6e-05,-7e-05,-0.0001,-0.00025,-0.00106,-5e-05,-0.00073,6,11
29348,-0.0001,-6e-05,-7e-05,-0.0001,-0.00025,-0.00106,-5e-05,-0.00073,6,11
29349,-0.0001,-6e-05,-7e-05,-0.0001,-0.00025,-0.00106,-5e-05,-0.00073,6,11
29350,-0.0001,-6e-05,-7e-05,-0.0001,-0.00025,-0.00106,-5e-05,-0.00073,6,11
29351,-0.0001,-6e-05,-7e-05,-0.0001,-0.00025,-0.00106,-5e-05,-0.00073,6,11
29352,-0.0001,-6e-05,-7e-05,-0.0001,-0.00025,-0.00106,-5e-05,-0.00073,6,11
29353,-0.0001,-6e-05,-7e-05,-0.0001,-0.00025,-0.00106,-5e-05,-0.00073,6,11
29354,-1e-05,1e-05,2e-05,-1e-05,-0.0004,0.00047,2e-05,-0.00031,6,11
29355,-1e-05,1e-05,2e-05,-1e-05,-0.0004,0.00047,2e-05,-0.00031,6,11
29356,-1e-05,1e-05,2e-05,-1e-05,-0.0004,0.00047,2e-05,-0.00031,6,11
29357,-1e-05,1e-05,2e-05,-1e-05,-0.0004,0.00047,2e-05,-0.00031,6,11
29358,-1e-05,1e-05,2e-05,-1e-05,-0.0004,0.00047,2e-05,-0.00031,6,11
29359,-1e-05,1e-05,2e-05,-1e-05,-0.0004,0.00047,2e-05,-0.00031,6,11
29360,-1e-05,1e-05,2e-05,-1e-05,-0.0004,0.00047,2e-05,-0.00031,6,11
29361,-1e-05,1e-05,2e-05,-1e-05,-0.0004,0.00047,2e-05,-0.00031,6,11
29362,-1e-05,1e-05,2e-05,-1e-05,-0.0004,0.00047,2e-05,-0.00031,6,11
29363,1e-05,6e-05,4e-05,7e-05,-0.00032,-0.00019,0.00028,0.00052,6,11
29364,1e-05,6e-05,4e-05,7e-05,-0.00032,-0.00019,0.00028,0.00052,6,11
29365,1e-05,6e-05,4e-05,7e-05,-0.00032,-0.00019,0.00028,0.00052,6,11
29366,1e-05,6e-05,4e-05,7e-05,-0.00032,-0.00019,0.00028,0.00052,6,11
29367,1e-05,6e-05,4e-05,7e-05,-0.00032,-0.00019,0.00028,0.00052,6,11
29368,1e-05,6e-05,4e-05,7e-05,-0.00032,-0.00019,0.00028,0.00052,6,11
29369,1e-05,6e-05,4e-05,7e-05,-0.00032,-0.00019,0.00028,0.00052,6,11
29370,1e-05,6e-05,4e-05,7e-05,-0.00032,-0.00019,0.00028,0.00052,6,11
29371,1e-05,6e-05,4e-05,7e-05,-0.00032,-0.00019,0.00028,0.00052,6,11
29372,1e-05,6e-05,4e-05,7e-05,-0.00032,-0.00019,0.00028,0.00052,6,11
29373,1e-05,6e-05,4e-05,7e-05,-0.00032,-0.00019,0.00028,0.00052,6,11
29374,1e-05,6e-05,4e-05,7e-05,-0.00032,-0.00019,0.00028,0.00052,6,11
29375,1e-05,6e-05,4e-05,7e-05,-0.00032,-0.00019,0.00028,0.00052,6,11
29376,1e-05,6e-05,4e-05,7e-05,-0.00032,-0.00019,0.00028,0.00052,6,11
29377,1e-05,6e-05,4e-05,7e-05,-0.00032,-0.00019,0.00028,0.00052,6,11
29378,-1e-05,-8e-05,-5e-05,-4e-05,-0.0002,-4e-05,-0.00015,0.00011,6,11
29379,-1e-05,-4e-05,-6e-05,-0.00012,-0.00044,0.00026,-0.00014,-0.00023,6,11
29380,-4e-05,-0.00011,-9e-05,-3e-05,0.00078,-0.00083,-0.00038,0.00041,6,11
29381,-4e-05,-0.00011,-9e-05,-3e-05,0.00078,-0.00083,-0.00038,0.00041,6,11
29382,-4e-05,-0.00011,-9e-05,-3e-05,0.00078,-0.00083,-0.00038,0.00041,6,11
29383,-4e-05,-0.00011,-9e-05,-3e-05,0.00078,-0.00083,-0.00038,0.00041,6,11
29384,-4e-05,-0.00011,-9e-05,-3e-05,0.00078,-0.00083,-0.00038,0.00041,6,11
29385,-4e-05,-0.00011,-9e-05,-3e-05,0.00078,-0.00083,-0.00038,0.00041,6,11
29386,-4e-05,-0.00011,-9e-05,-3e-05,0.00078,-0.00083,-0.00038,0.00041,6,11
29388,-4e-05,-0.00011,-9e-05,-3e-05,0.00078,-0.00083,-0.00038,0.00041,6,11
29389,-4e-05,-0.00011,-9e-05,-3e-05,0.00078,-0.00083,-0.00038,0.00041,6,11
29390,-4e-05,-0.00011,-9e-05,-3e-05,0.00078,-0.00083,-0.00038,0.00041,6,11
29391,-4e-05,-0.00011,-9e-05,-3e-05,0.00078,-0.00083,-0.00038,0.00041,6,11
29392,-4e-05,-0.00011,-9e-05,-3e-05,0.00078,-0.00083,-0.00038,0.00041,6,11
29393,-4e-05,-0.00011,-9e-05,-3e-05,0.00078,-0.00083,-0.00038,0.00041,6,11
29394,-4e-05,-0.00011,-9e-05,-3e-05,0.00078,-0.00083,-0.00038,0.00041,6,11
29395,-4e-05,-0.00011,-9e-05,-3e-05,0.00078,-0.00083,-0.00038,0.00041,6,11
29396,-4e-05,-0.00011,-9e-05,-3e-05,0.00078,-0.00083,-0.00038,0.00041,6,11
29397,-4e-05,-0.00011,-9e-05,-3e-05,0.00078,-0.00083,-0.00038,0.00041,6,11
29398,-4e-05,-0.00011,-9e-05,-3e-05,0.00078,-0.00083,-0.00038,0.00041,6,11
29399,-4e-05,-0.00011,-9e-05,-3e-05,0.00078,-0.00083,-0.00038,0.00041,6,11
29400,0.0001,0.00015,0.00016,0.0001,-0.00024,0.00074,0.00014,0.00017,6,11
29401,-3e-05,-6e-05,-0.00012,-0.00016,-1e-05,-0.00042,-0.00022,0.00049,6,11
29402,-1e-05,1e-05,1e-05,-0.0001,-0.00081,0.00104,4e-05,-0.00015,6,11
29404,-1e-05,1e-05,1e-05,-0.0001,-0.00081,0.00104,4e-05,-0.00015,6,11
29405,-1e-05,1e-05,1e-05,-0.0001,-0.00081,0.00104,4e-05,-0.00015,6,11
29406,-1e-05,1e-05,1e-05,-0.0001,-0.00081,0.00104,4e-05,-0.00015,6,11
29407,-1e-05,1e-05,1e-05,-0.0001,-0.00081,0.00104,4e-05,-0.00015,6,11
29408,-1e-05,1e-05,1e-05,-0.0001,-0.00081,0.00104,4e-05,-0.00015,6,11
29409,-1e-05,1e-05,1e-05,-0.0001,-0.00081,0.00104,4e-05,-0.00015,6,11
29410,-1e-05,1e-05,1e-05,-0.0001,-0.00081,0.00104,4e-05,-0.00015,6,11
29411,-1e-05,1e-05,1e-05,-0.0001,-0.00081,0.00104,4e-05,-0.00015,6,11
29412,-1e-05,1e-05,1e-05,-0.0001,-0.00081,0.00104,4e-05,-0.00015,6,11
29413,-1e-05,1e-05,1e-05,-0.0001,-0.00081,0.00104,4e-05,-0.00015,6,11
29414,-0.00012,-5e-05,-3e-05,4e-05,0.0002,-0.0006,-0.00024,-0.00093,6,11
29415,-0.00012,-5e-05,-3e-05,4e-05,0.0002,-0.0006,-0.00024,-0.00093,6,11
29416,-0.00012,-5e-05,-3e-05,4e-05,0.0002,-0.0006,-0.00024,-0.00093,6,11
29417,-0.00012,-5e-05,-3e-05,4e-05,0.0002,-0.0006,-0.00024,-0.00093,6,11
29418,-0.00012,-5e-05,-3e-05,4e-05,0.0002,-0.0006,-0.00024,-0.00093,6,11
29419,-0.00012,-5e-05,-3e-05,4e-05,0.0002,-0.0006,-0.00024,-0.00093,6,11
29420,-0.00012,-5e-05,-3e-05,4e-05,0.0002,-0.0006,-0.00024,-0.00093,6,11
29421,-0.00012,-5e-05,-3e-05,4e-05,0.0002,-0.0006,-0.00024,-0.00093,6,11
29422,-0.00012,-5e-05,-3e-05,4e-05,0.0002,-0.0006,-0.00024,-0.00093,6,11
29423,9e-05,-1e-05,-6e-05,-8e-05,0.0006,0.00058,-0.00017,-4e-05,6,11
29424,9e-05,-1e-05,-6e-05,-8e-05,0.0006,0.00058,-0.00017,-4e-05,6,11
29425,9e-05,-1e-05,-6e-05,-8e-05,0.0006,0.00058,-0.00017,-4e-05,6,11
29426,9e-05,-1e-05,-6e-05,-8e-05,0.0006,0.00058,-0.00017,-4e-05,6,11
29427,9e-05,-1e-05,-6e-05,-8e-05,0.0006,0.00058,-0.00017,-4e-05,6,11
29428,9e-05,-1e-05,-6e-05,-8e-05,0.0006,0.00058,-0.00017,-4e-05,6,11
29429,9e-05,-1e-05,-6e-05,-8e-05,0.0006,0.00058,-0.00017,-4e-05,6,11
29430,9e-05,-1e-05,-6e-05,-8e-05,0.0006,0.00058,-0.00017,-4e-05,6,11
29431,9e-05,-1e-05,-6e-05,-8e-05,0.0006,0.00058,-0.00017,-4e-05,6,11
29432,9e-05,-1e-05,-6e-05,-8e-05,0.0006,0.00058,-0.00017,-4e-05,6,11
29433,9e-05,-1e-05,-6e-05,-8e-05,0.0006,0.00058,-0.00017,-4e-05,6,11
29434,9e-05,-1e-05,-6e-05,-8e-05,0.0006,0.00058,-0.00017,-4e-05,6,11
29435,9e-05,-1e-05,-6e-05,-8e-05,0.0006,0.00058,-0.00017,-4e-05,6,11
29436,9e-05,-1e-05,-6e-05,-8e-05,0.0006,0.00058,-0.00017,-4e-05,6,11
29439,-0.0001,1e-05,5e-05,7e-05,-0.00033,0.00039,4e-05,-0.0012,6,11
29440,-0.0001,1e-05,5e-05,7e-05,-0.00033,0.00039,4e-05,-0.0012,6,11
29441,-0.0001,1e-05,5e-05,7e-05,-0.00033,0.00039,4e-05,-0.0012,6,11
29442,-0.0001,1e-05,5e-05,7e-05,-0.00033,0.00039,4e-05,-0.0012,6,11
29443,-0.0001,1e-05,5e-05,7e-05,-0.00033,0.00039,4e-05,-0.0012,6,11
29444,-0.0001,1e-05,5e-05,7e-05,-0.00033,0.00039,4e-05,-0.0012,6,11
29445,6e-05,-2e-05,1e-05,1e-05,-7e-05,-0.00032,-0.0001,0.00013,6,11
29446,2e-05,1e-05,2e-05,3e-05,0.00017,0.00014,3e-05,-0.00029,6,11
29447,2e-05,1e-05,2e-05,3e-05,0.00017,0.00014,3e-05,-0.00029,6,11
29448,2e-05,1e-05,2e-05,3e-05,0.00017,0.00014,3e-05,-0.00029,6,11
29449,2e-05,1e-05,2e-05,3e-05,0.00017,0.00014,3e-05,-0.00029,6,11
29450,2e-05,1e-05,2e-05,3e-05,0.00017,0.00014,3e-05,-0.00029,6,11
29451,2e-05,1e-05,2e-05,3e-05,0.00017,0.00014,3e-05,-0.00029,6,11
29452,2e-05,1e-05,2e-05,3e-05,0.00017,0.00014,3e-05,-0.00029,6,11
29453,2e-05,1e-05,2e-05,3e-05,0.00017,0.00014,3e-05,-0.00029,6,11
29454,2e-05,1e-05,2e-05,3e-05,0.00017,0.00014,3e-05,-0.00029,6,11
29455,2e-05,1e-05,2e-05,3e-05,0.00017,0.00014,3e-05,-0.00029,6,11
29456,2e-05,1e-05,2e-05,3e-05,0.00017,0.00014,3e-05,-0.00029,6,11
29457,2e-05,1e-05,2e-05,3e-05,0.00017,0.00014,3e-05,-0.00029,6,11
29458,2e-05,1e-05,2e-05,3e-05,0.00017,0.00014,3e-05,-0.00029,6,11
29459,2e-05,1e-05,2e-05,3e-05,0.00017,0.00014,3e-05,-0.00029,6,11
29460,4e-05,1e-05,1e-05,4e-05,0.00038,0.00114,0.00014,0.00072,6,11
29461,4e-05,1e-05,1e-05,4e-05,0.00038,0.00114,0.00014,0.00072,6,11
29462,-6e-05,-3e-05,-2e-05,-2e-05,-0.0004,0.00011,0.00016,-0.00011,6,11
29463,-6e-05,-3e-05,-2e-05,-2e-05,-0.0004,0.00011,0.00016,-0.00011,6,11
29464,-6e-05,-3e-05,-2e-05,-2e-05,-0.0004,0.00011,0.00016,-0.00011,6,11
29465,-6e-05,-3e-05,-2e-05,-2e-05,-0.0004,0.00011,0.00016,-0.00011,6,11
29466,-6e-05,-3e-05,-2e-05,-2e-05,-0.0004,0.00011,0.00016,-0.00011,6,11
29467,-6e-05,-3e-05,-2e-05,-2e-05,-0.0004,0.00011,0.00016,-0.00011,6,11
29468,-6e-05,-3e-05,-2e-05,-2e-05,-0.0004,0.00011,0.00016,-0.00011,6,11
29469,-6e-05,-3e-05,-2e-05,-2e-05,-0.0004,0.00011,0.00016,-0.00011,6,11
29470,-6e-05,-3e-05,-2e-05,-2e-05,-0.0004,0.00011,0.00016,-0.00011,6,11
29471,-6e-05,-3e-05,-2e-05,-2e-05,-0.0004,0.00011,0.00016,-0.00011,6,11
29472,-6e-05,-3e-05,-2e-05,-2e-05,-0.0004,0.00011,0.00016,-0.00011,6,11
29473,-6e-05,-3e-05,-2e-05,-2e-05,-0.0004,0.00011,0.00016,-0.00011,6,11
29474,-2e-05,1e-05,2e-05,2e-05,-0.00044,-0.00033,0.00013,0.00026,6,11
29475,-2e-05,1e-05,2e-05,2e-05,-0.00044,-0.00033,0.00013,0.00026,6,11
29476,-2e-05,1e-05,2e-05,2e-05,-0.00044,-0.00033,0.00013,0.00026,6,11
29477,-2e-05,1e-05,2e-05,2e-05,-0.00044,-0.00033,0.00013,0.00026,6,11
29478,-2e-05,1e-05,2e-05,2e-05,-0.00044,-0.00033,0.00013,0.00026,6,11
29479,-2e-05,1e-05,2e-05,2e-05,-0.00044,-0.00033,0.00013,0.00026,6,11
29480,-2e-05,1e-05,2e-05,2e-05,-0.00044,-0.00033,0.00013,0.00026,6,11
29481,-2e-05,1e-05,2e-05,2e-05,-0.00044,-0.00033,0.00013,0.00026,6,11
29482,-2e-05,1e-05,2e-05,2e-05,-0.00044,-0.00033,0.00013,0.00026,6,11
29483,-2e-05,1e-05,2e-05,2e-05,-0.00044,-0.00033,0.00013,0.00026,6,11
29484,-2e-05,2e-05,3e-05,6e-05,0.00045,0.00076,-0.0001,1e-05,6,11
29485,-2e-05,2e-05,3e-05,6e-05,0.00045,0.00076,-0.0001,1e-05,6,11
29486,-2e-05,2e-05,3e-05,6e-05,0.00045,0.00076,-0.0001,1e-05,6,11
29489,-2e-05,2e-05,3e-05,6e-05,0.00045,0.00076,-0.0001,1e-05,6,11
29490,-2e-05,2e-05,3e-05,6e-05,0.00045,0.00076,-0.0001,1e-05,6,11
29491,-2e-05,2e-05,3e-05,6e-05,0.00045,0.00076,-0.0001,1e-05,6,11
29492,-2e-05,2e-05,3e-05,6e-05,0.00045,0.00076,-0.0001,1e-05,6,11
29493,-2e-05,2e-05,3e-05,6e-05,0.00045,0.00076,-0.0001,1e-05,6,11
29494,-2e-05,2e-05,3e-05,6e-05,0.00045,0.00076,-0.0001,1e-05,6,11
29495,-2e-05,2e-05,3e-05,6e-05,0.00045,0.00076,-0.0001,1e-05,6,11
29496,-2e-05,2e-05,3e-05,6e-05,0.00045,0.00076,-0.0001,1e-05,6,11
29497,-2e-05,2e-05,3e-05,6e-05,0.00045,0.00076,-0.0001,1e-05,6,11
29498,-0.00011,-7e-05,-9e-05,-0.00012,0.00013,-0.00032,-7e-05,-1e-05,6,11
29499,8e-05,3e-05,1e-05,8e-05,-0.00011,-0.00051,0.00025,-0.00019,6,11
29500,-5e-05,-2e-05,-5e-05,-8e-05,4e-05,-0.00063,3e-05,-0.00081,6,11
29501,-5e-05,-2e-05,-5e-05,-8e-05,4e-05,-0.00063,3e-05,-0.00081,6,11
29502,-5e-05,-2e-05,-5e-05,-8e-05,4e-05,-0.00063,3e-05,-0.00081,6,11
29503,-5e-05,-2e-05,-5e-05,-8e-05,4e-05,-0.00063,3e-05,-0.00081,6,11
29504,-5e-05,-2e-05,-5e-05,-8e-05,4e-05,-0.00063,3e-05,-0.00081,6,11
29505,-5e-05,-2e-05,-5e-05,-8e-05,4e-05,-0.00063,3e-05,-0.00081,6,11
29506,-5e-05,-2e-05,-5e-05,-8e-05,4e-05,-0.00063,3e-05,-0.00081,6,11
29507,-5e-05,-2e-05,-5e-05,-8e-05,4e-05,-0.00063,3e-05,-0.00081,6,11
29508,-5e-05,-2e-05,-5e-05,-8e-05,4e-05,-0.00063,3e-05,-0.00081,6,11
29509,-5e-05,-2e-05,-5e-05,-8e-05,4e-05,-0.00063,3e-05,-0.00081,6,11
29510,-5e-05,-2e-05,-5e-05,-8e-05,4e-05,-0.00063,3e-05,-0.00081,6,11
29511,-5e-05,-2e-05,-5e-05,-8e-05,4e-05,-0.00063,3e-05,-0.00081,6,11
29512,-5e-05,-2e-05,-5e-05,-8e-05,4e-05,-0.00063,3e-05,-0.00081,6,11
29513,-5e-05,-2e-05,-5e-05,-8e-05,4e-05,-0.00063,3e-05,-0.00081,6,11
29514,-5e-05,-2e-05,-5e-05,-8e-05,4e-05,-0.00063,3e-05,-0.00081,6,11
29515,-5e-05,-2e-05,-5e-05,-8e-05,4e-05,-0.00063,3e-05,-0.00081,6,11
29516,-5e-05,-2e-05,-5e-05,-8e-05,4e-05,-0.00063,3e-05,-0.00081,6,11
29517,-5e-05,-2e-05,-5e-05,-8e-05,4e-05,-0.00063,3e-05,-0.00081,6,11
29518,-5e-05,-2e-05,-5e-05,-8e-05,4e-05,-0.00063,3e-05,-0.00081,6,11
29519,-5e-05,-2e-05,-5e-05,-8e-05,4e-05,-0.00063,3e-05,-0.00081,6,11
29520,3e-05,0,3e-05,6e-05,0.0001,0.00127,0.0002,0.00034,6,11
29521,0.00021,8e-05,9e-05,0.00014,2e-05,0.00099,6e-05,0.00049,6,11
29522,6e-05,6e-05,7e-05,2e-05,0.00017,-0.00097,0.00016,4e-05,6,11
29523,6e-05,6e-05,7e-05,2e-05,0.00017,-0.00097,0.00016,4e-05,6,11
29524,6e-05,6e-05,7e-05,2e-05,0.00017,-0.00097,0.00016,4e-05,6,11
29525,6e-05,6e-05,7e-05,2e-05,0.00017,-0.00097,0.00016,4e-05,6,11
29526,6e-05,6e-05,7e-05,2e-05,0.00017,-0.00097,0.00016,4e-05,6,11
29527,6e-05,6e-05,7e-05,2e-05,0.00017,-0.00097,0.00016,4e-05,6,11
29528,6e-05,6e-05,7e-05,2e-05,0.00017,-0.00097,0.00016,4e-05,6,11
29529,6e-05,6e-05,7e-05,2e-05,0.00017,-0.00097,0.00016,4e-05,6,11
29530,6e-05,6e-05,7e-05,2e-05,0.00017,-0.00097,0.00016,4e-05,6,11
29531,6e-05,6e-05,7e-05,2e-05,0.00017,-0.00097,0.00016,4e-05,6,11
29532,6e-05,6e-05,7e-05,2e-05,0.00017,-0.00097,0.00016,4e-05,6,11
29533,6e-05,6e-05,7e-05,2e-05,0.00017,-0.00097,0.00016,4e-05,6,11
29534,6e-05,6e-05,7e-05,2e-05,0.00017,-0.00097,0.00016,4e-05,6,11
29535,6e-05,6e-05,7e-05,2e-05,0.00017,-0.00097,0.00016,4e-05,6,11
29536,6e-05,6e-05,7e-05,2e-05,0.00017,-0.00097,0.00016,4e-05,6,11
29539,6e-05,6e-05,7e-05,2e-05,0.00017,-0.00097,0.00016,4e-05,6,11
29540,6e-05,6e-05,7e-05,2e-05,0.00017,-0.00097,0.00016,4e-05,6,11
29541,6e-05,6e-05,7e-05,2e-05,0.00017,-0.00097,0.00016,4e-05,6,11
29542,6e-05,6e-05,7e-05,2e-05,0.00017,-0.00097,0.00016,4e-05,6,11
29543,-0.00014,-0.00011,-0.00015,-0.00016,-0.00013,-0.00089,-0.0004,-0.00057,6,11
29544,-5e-05,0,-2e-05,-0.00013,-0.0005,-0.00075,0.00013,-0.00026,6,11
29545,-5e-05,0,-2e-05,-0.00013,-0.0005,-0.00075,0.00013,-0.00026,6,11
29546,-5e-05,0,-2e-05,-0.00013,-0.0005,-0.00075,0.00013,-0.00026,6,11
29547,-5e-05,0,-2e-05,-0.00013,-0.0005,-0.00075,0.00013,-0.00026,6,11
29548,-5e-05,0,-2e-05,-0.00013,-0.0005,-0.00075,0.00013,-0.00026,6,11
29549,-5e-05,0,-2e-05,-0.00013,-0.0005,-0.00075,0.00013,-0.00026,6,11
29550,-5e-05,0,-2e-05,-0.00013,-0.0005,-0.00075,0.00013,-0.00026,6,11
29551,-5e-05,0,-2e-05,-0.00013,-0.0005,-0.00075,0.00013,-0.00026,6,11
29552,-5e-05,0,-2e-05,-0.00013,-0.0005,-0.00075,0.00013,-0.00026,6,11
29553,-5e-05,0,-2e-05,-0.00013,-0.0005,-0.00075,0.00013,-0.00026,6,11
29554,-5e-05,0,-2e-05,-0.00013,-0.0005,-0.00075,0.00013,-0.00026,6,11
29555,-5e-05,0,-2e-05,-0.00013,-0.0005,-0.00075,0.00013,-0.00026,6,11
29556,-5e-05,0,-2e-05,-0.00013,-0.0005,-0.00075,0.00013,-0.00026,6,11
29557,-5e-05,0,-2e-05,-0.00013,-0.0005,-0.00075,0.00013,-0.00026,6,11
29558,-5e-05,-2e-05,-4e-05,-1e-05,0.00054,0.00066,0.00065,-0.00028,6,11
29559,-5e-05,-2e-05,-4e-05,-1e-05,0.00054,0.00066,0.00065,-0.00028,6,11
29560,-8e-05,-5e-05,-2e-05,2e-05,-0.00064,-0.00075,-4e-05,-0.00037,6,11
29561,-8e-05,-5e-05,-2e-05,2e-05,-0.00064,-0.00075,-4e-05,-0.00037,6,11
29562,-8e-05,-5e-05,-2e-05,2e-05,-0.00064,-0.00075,-4e-05,-0.00037,6,11
29563,-8e-05,-5e-05,-2e-05,2e-05,-0.00064,-0.00075,-4e-05,-0.00037,6,11
29564,-8e-05,-5e-05,-2e-05,2e-05,-0.00064,-0.00075,-4e-05,-0.00037,6,11
29565,-8e-05,-5e-05,-2e-05,2e-05,-0.00064,-0.00075,-4e-05,-0.00037,6,11
29566,-8e-05,-5e-05,-2e-05,2e-05,-0.00064,-0.00075,-4e-05,-0.00037,6,11
29567,-8e-05,-5e-05,-2e-05,2e-05,-0.00064,-0.00075,-4e-05,-0.00037,6,11
29568,-8e-05,-5e-05,-2e-05,2e-05,-0.00064,-0.00075,-4e-05,-0.00037,6,11
29569,-8e-05,-5e-05,-2e-05,2e-05,-0.00064,-0.00075,-4e-05,-0.00037,6,11
29570,-8e-05,-5e-05,-2e-05,2e-05,-0.00064,-0.00075,-4e-05,-0.00037,6,11
29571,-8e-05,-5e-05,-2e-05,2e-05,-0.00064,-0.00075,-4e-05,-0.00037,6,11
29572,-8e-05,-5e-05,-2e-05,2e-05,-0.00064,-0.00075,-4e-05,-0.00037,6,11
29573,-8e-05,-5e-05,-2e-05,2e-05,-0.00064,-0.00075,-4e-05,-0.00037,6,11
29574,-8e-05,-5e-05,-2e-05,2e-05,-0.00064,-0.00075,-4e-05,-0.00037,6,11
29575,-8e-05,-5e-05,-2e-05,2e-05,-0.00064,-0.00075,-4e-05,-0.00037,6,11
29576,-8e-05,-5e-05,-2e-05,2e-05,-0.00064,-0.00075,-4e-05,-0.00037,6,11
29577,-8e-05,-5e-05,-2e-05,2e-05,-0.00064,-0.00075,-4e-05,-0.00037,6,11
29578,-8e-05,-5e-05,-2e-05,2e-05,-0.00064,-0.00075,-4e-05,-0.00037,6,11
29579,-8e-05,-5e-05,-2e-05,2e-05,-0.00064,-0.00075,-4e-05,-0.00037,6,11
29580,7e-05,-1e-05,-1e-05,-4e-05,-0.00047,0.00052,2e-05,0.00025,6,11
29581,7e-05,-1e-05,-1e-05,-4e-05,-0.00047,0.00052,2e-05,0.00025,6,11
29582,4e-05,5e-05,4e-05,6e-05,-4e-05,-0.00028,-0.00017,0.00059,6,11
29583,4e-05,5e-05,4e-05,6e-05,-4e-05,-0.00028,-0.00017,0.00059,6,11
29584,4e-05,5e-05,4e-05,6e-05,-4e-05,-0.00028,-0.00017,0.00059,6,11
29585,4e-05,5e-05,4e-05,6e-05,-4e-05,-0.00028,-0.00017,0.00059,6,11
29586,4e-05,5e-05,4e-05,6e-05,-4e-05,-0.00028,-0.00017,0.00059,6,11
29589,4e-05,5e-05,4e-05,6e-05,-4e-05,-0.00028,-0.00017,0.00059,6,11
29590,4e-05,5e-05,4e-05,6e-05,-4e-05,-0.00028,-0.00017,0.00059,6,11
29591,4e-05,5e-05,4e-05,6e-05,-4e-05,-0.00028,-0.00017,0.00059,6,11
29592,4e-05,5e-05,4e-05,6e-05,-4e-05,-0.00028,-0.00017,0.00059,6,11
29593,4e-05,5e-05,4e-05,6e-05,-4e-05,-0.00028,-0.00017,0.00059,6,11
29594,4e-05,5e-05,4e-05,6e-05,-4e-05,-0.00028,-0.00017,0.00059,6,11
29595,4e-05,5e-05,4e-05,6e-05,-4e-05,-0.00028,-0.00017,0.00059,6,11
29596,4e-05,5e-05,4e-05,6e-05,-4e-05,-0.00028,-0.00017,0.00059,6,11
29597,4e-05,5e-05,4e-05,6e-05,-4e-05,-0.00028,-0.00017,0.00059,6,11
29598,4e-05,5e-05,4e-05,6e-05,-4e-05,-0.00028,-0.00017,0.00059,6,11
29599,4e-05,5e-05,4e-05,6e-05,-4e-05,-0.00028,-0.00017,0.00059,6,11
29600,4e-05,5e-05,4e-05,6e-05,-4e-05,-0.00028,-0.00017,0.00059,6,11
29601,4e-05,5e-05,4e-05,6e-05,-4e-05,-0.00028,-0.00017,0.00059,6,11
29602,4e-05,5e-05,4e-05,6e-05,-4e-05,-0.00028,-0.00017,0.00059,6,11
29603,1e-05,1e-05,4e-05,0.00012,-8e-05,-0.00022,-0.00011,-0.00031,6,11
29604,2e-05,-6e-05,-9e-05,-0.00021,-0.00027,0.00045,-0.00012,0.00017,6,11
29605,-0.00011,-4e-05,-3e-05,2e-05,5e-05,-0.00023,-0.00012,-0.00073,6,11
29606,-0.00011,-4e-05,-3e-05,2e-05,5e-05,-0.00023,-0.00012,-0.00073,6,11
29607,-0.00011,-4e-05,-3e-05,2e-05,5e-05,-0.00023,-0.00012,-0.00073,6,11
29608,-0.00011,-4e-05,-3e-05,2e-05,5e-05,-0.00023,-0.00012,-0.00073,6,11
29609,-0.00011,-4e-05,-3e-05,2e-05,5e-05,-0.00023,-0.00012,-0.00073,6,11
29610,-0.00011,-4e-05,-3e-05,2e-05,5e-05,-0.00023,-0.00012,-0.00073,6,11
29611,-0.00011,-4e-05,-3e-05,2e-05,5e-05,-0.00023,-0.00012,-0.00073,6,11
29612,-0.00011,-4e-05,-3e-05,2e-05,5e-05,-0.00023,-0.00012,-0.00073,6,11
29613,-0.00011,-4e-05,-3e-05,2e-05,5e-05,-0.00023,-0.00012,-0.00073,6,11
29614,-0.00011,-4e-05,-3e-05,2e-05,5e-05,-0.00023,-0.00012,-0.00073,6,11
29615,-0.00011,-4e-05,-3e-05,2e-05,5e-05,-0.00023,-0.00012,-0.00073,6,11
29616,-0.00011,-4e-05,-3e-05,2e-05,5e-05,-0.00023,-0.00012,-0.00073,6,11
29617,-0.00011,-4e-05,-3e-05,2e-05,5e-05,-0.00023,-0.00012,-0.00073,6,11
29618,5e-05,3e-05,3e-05,4e-05,0.0008,0.00089,0.00025,0.00014,6,11
29619,-2e-05,-7e-05,-5e-05,5e-05,0.00115,6e-05,0.00014,-0.00023,6,11
29620,-2e-05,-7e-05,-5e-05,5e-05,0.00115,6e-05,0.00014,-0.00023,6,11
29621,-2e-05,-7e-05,-5e-05,5e-05,0.00115,6e-05,0.00014,-0.00023,6,11
29622,-2e-05,-7e-05,-5e-05,5e-05,0.00115,6e-05,0.00014,-0.00023,6,11
29623,-2e-05,-7e-05,-5e-05,5e-05,0.00115,6e-05,0.00014,-0.00023,6,11
29624,-2e-05,-7e-05,-5e-05,5e-05,0.00115,6e-05,0.00014,-0.00023,6,11
29625,-2e-05,-7e-05,-5e-05,5e-05,0.00115,6e-05,0.00014,-0.00023,6,11
29626,-2e-05,-7e-05,-5e-05,5e-05,0.00115,6e-05,0.00014,-0.00023,6,11
29627,-2e-05,-7e-05,-5e-05,5e-05,0.00115,6e-05,0.00014,-0.00023,6,11
29628,-2e-05,-7e-05,-5e-05,5e-05,0.00115,6e-05,0.00014,-0.00023,6,11
29629,-2e-05,-7e-05,-5e-05,5e-05,0.00115,6e-05,0.00014,-0.00023,6,11
29630,-2e-05,-7e-05,-5e-05,5e-05,0.00115,6e-05,0.00014,-0.00023,6,11
29631,-2e-05,-7e-05,-5e-05,5e-05,0.00115,6e-05,0.00014,-0.00023,6,11
29632,-2e-05,-7e-05,-5e-05,5e-05,0.00115,6e-05,0.00014,-0.00023,6,11
29633,-2e-05,-7e-05,-5e-05,5e-05,0.00115,6e-05,0.00014,-0.00023,6,11
29634,-2e-05,-7e-05,-5e-05,5e-05,0.00115,6e-05,0.00014,-0.00023,6,11
29635,-2e-05,-7e-05,-5e-05,5e-05,0.00115,6e-05,0.00014,-0.00023,6,11
29636,-2e-05,-7e-05,-5e-05,5e-05,0.00115,6e-05,0.00014,-0.00023,6,11
29639,-2e-05,-7e-05,-5e-05,5e-05,0.00115,6e-05,0.00014,-0.00023,6,11
29640,0.0001,-1e-05,1e-05,-6e-05,-0.00072,-0.00013,-9e-05,0.00074,6,11
29641,0.0001,-1e-05,1e-05,-6e-05,-0.00072,-0.00013,-9e-05,0.00074,6,11
29642,-3e-05,0,2e-05,-2e-05,-6e-05,-0.00053,-0.00017,-0.00019,6,11
29643,-3e-05,0,2e-05,-2e-05,-6e-05,-0.00053,-0.00017,-0.00019,6,11
29644,-3e-05,0,2e-05,-2e-05,-6e-05,-0.00053,-0.00017,-0.00019,6,11
29645,-3e-05,0,2e-05,-2e-05,-6e-05,-0.00053,-0.00017,-0.00019,6,11
29646,-3e-05,0,2e-05,-2e-05,-6e-05,-0.00053,-0.00017,-0.00019,6,11
29647,-3e-05,0,2e-05,-2e-05,-6e-05,-0.00053,-0.00017,-0.00019,6,11
29648,-3e-05,0,2e-05,-2e-05,-6e-05,-0.00053,-0.00017,-0.00019,6,11
29649,-3e-05,0,2e-05,-2e-05,-6e-05,-0.00053,-0.00017,-0.00019,6,11
29650,-3e-05,0,2e-05,-2e-05,-6e-05,-0.00053,-0.00017,-0.00019,6,11
29651,-3e-05,0,2e-05,-2e-05,-6e-05,-0.00053,-0.00017,-0.00019,6,11
29652,-3e-05,0,2e-05,-2e-05,-6e-05,-0.00053,-0.00017,-0.00019,6,11
29653,-3e-05,0,2e-05,-2e-05,-6e-05,-0.00053,-0.00017,-0.00019,6,11
29654,-3e-05,0,2e-05,-2e-05,-6e-05,-0.00053,-0.00017,-0.00019,6,11
29655,-3e-05,0,2e-05,-2e-05,-6e-05,-0.00053,-0.00017,-0.00019,6,11
29656,-3e-05,0,2e-05,-2e-05,-6e-05,-0.00053,-0.00017,-0.00019,6,11
29657,-3e-05,0,2e-05,-2e-05,-6e-05,-0.00053,-0.00017,-0.00019,6,11
29658,-3e-05,0,2e-05,-2e-05,-6e-05,-0.00053,-0.00017,-0.00019,6,11
29659,-3e-05,0,2e-05,-2e-05,-6e-05,-0.00053,-0.00017,-0.00019,6,11
29660,-3e-05,0,2e-05,-2e-05,-6e-05,-0.00053,-0.00017,-0.00019,6,11
29661,-3e-05,0,2e-05,-2e-05,-6e-05,-0.00053,-0.00017,-0.00019,6,11
29662,-3e-05,0,2e-05,-2e-05,-6e-05,-0.00053,-0.00017,-0.00019,6,11
29663,-9e-05,-7e-05,-6e-05,-0.00012,-0.00012,-0.00095,-0.00014,-0.00033,6,11
29664,-3e-05,-5e-05,-7e-05,-4e-05,0.0001,0.00058,-0.00017,0.00022,6,11
29665,8e-05,7e-05,7e-05,0.0001,-0.00035,0.0001,0.0003,4e-05,6,11
29666,8e-05,7e-05,7e-05,0.0001,-0.00035,0.0001,0.0003,4e-05,6,11
29667,8e-05,7e-05,7e-05,0.0001,-0.00035,0.0001,0.0003,4e-05,6,11
29668,8e-05,7e-05,7e-05,0.0001,-0.00035,0.0001,0.0003,4e-05,6,11
29669,8e-05,7e-05,7e-05,0.0001,-0.00035,0.0001,0.0003,4e-05,6,11
29670,8e-05,7e-05,7e-05,0.0001,-0.00035,0.0001,0.0003,4e-05,6,11
29671,8e-05,7e-05,7e-05,0.0001,-0.00035,0.0001,0.0003,4e-05,6,11
29672,8e-05,7e-05,7e-05,0.0001,-0.00035,0.0001,0.0003,4e-05,6,11
29673,8e-05,7e-05,7e-05,0.0001,-0.00035,0.0001,0.0003,4e-05,6,11
29674,8e-05,7e-05,7e-05,0.0001,-0.00035,0.0001,0.0003,4e-05,6,11
29675,8e-05,7e-05,7e-05,0.0001,-0.00035,0.0001,0.0003,4e-05,6,11
29676,8e-05,7e-05,7e-05,0.0001,-0.00035,0.0001,0.0003,4e-05,6,11
29677,8e-05,7e-05,7e-05,0.0001,-0.00035,0.0001,0.0003,4e-05,6,11
29678,8e-05,8e-05,0.0001,6e-05,-0.00037,-0.00018,9e-05,0.00018,6,11
29679,-0.00013,-1e-05,-1e-05,5e-05,5e-05,-5e-05,-2e-05,-0.00048,6,11
29680,0.00013,-1e-05,2e-05,4e-05,0.00039,0.00097,-3e-05,0.00075,6,11
29681,0.00013,-1e-05,2e-05,4e-05,0.00039,0.00097,-3e-05,0.00075,6,11
29682,0.00013,-1e-05,2e-05,4e-05,0.00039,0.00097,-3e-05,0.00075,6,11
29683,0.00013,-1e-05,2e-05,4e-05,0.00039,0.00097,-3e-05,0.00075,6,11
29684,0.00013,-1e-05,2e-05,4e-05,0.00039,0.00097,-3e-05,0.00075,6,11
29685,0.00013,-1e-05,2e-05,4e-05,0.00039,0.00097,-3e-05,0.00075,6,11
29686,0.00013,-1e-05,2e-05,4e-05,0.00039,0.00097,-3e-05,0.00075,6,11
29689,0.00013,-1e-05,2e-05,4e-05,0.00039,0.00097,-3e-05,0.00075,6,11
29690,0.00013,-1e-05,2e-05,4e-05,0.00039,0.00097,-3e-05,0.00075,6,11
29691,0.00013,-1e-05,2e-05,4e-05,0.00039,0.00097,-3e-05,0.00075,6,11
29692,0.00013,-1e-05,2e-05,4e-05,0.00039,0.00097,-3e-05,0.00075,6,11
29693,0.00013,-1e-05,2e-05,4e-05,0.00039,0.00097,-3e-05,0.00075,6,11
29694,0.00013,-1e-05,2e-05,4e-05,0.00039,0.00097,-3e-05,0.00075,6,11
29695,0.00013,-1e-05,2e-05,4e-05,0.00039,0.00097,-3e-05,0.00075,6,11
29696,0.00013,-1e-05,2e-05,4e-05,0.00039,0.00097,-3e-05,0.00075,6,11
29697,0.00013,-1e-05,2e-05,4e-05,0.00039,0.00097,-3e-05,0.00075,6,11
29698,0.00013,-1e-05,2e-05,4e-05,0.00039,0.00097,-3e-05,0.00075,6,11
29699,0.00013,-1e-05,2e-05,4e-05,0.00039,0.00097,-3e-05,0.00075,6,11
29700,0.00011,6e-05,7e-05,-2e-05,-0.00022,0.00089,0.00011,0.00046,6,11
29701,0.00011,6e-05,7e-05,-2e-05,-0.00022,0.00089,0.00011,0.00046,6,11
29702,-9e-05,-7e-05,-8e-05,-2e-05,0.00011,-0.00075,-0.00023,0.00011,6,11
29703,-9e-05,-7e-05,-8e-05,-2e-05,0.00011,-0.00075,-0.00023,0.00011,6,11
29704,-9e-05,-7e-05,-8e-05,-2e-05,0.00011,-0.00075,-0.00023,0.00011,6,11
29705,-9e-05,-7e-05,-8e-05,-2e-05,0.00011,-0.00075,-0.00023,0.00011,6,11
29706,-9e-05,-7e-05,-8e-05,-2e-05,0.00011,-0.00075,-0.00023,0.00011,6,11
29707,-9e-05,-7e-05,-8e-05,-2e-05,0.00011,-0.00075,-0.00023,0.00011,6,11
29708,-9e-05,-7e-05,-8e-05,-2e-05,0.00011,-0.00075,-0.00023,0.00011,6,11
29709,-9e-05,-7e-05,-8e-05,-2e-05,0.00011,-0.00075,-0.00023,0.00011,6,11
29710,-9e-05,-7e-05,-8e-05,-2e-05,0.00011,-0.00075,-0.00023,0.00011,6,11
29711,-9e-05,-7e-05,-8e-05,-2e-05,0.00011,-0.00075,-0.00023,0.00011,6,11
29712,-9e-05,-7e-05,-8e-05,-2e-05,0.00011,-0.00075,-0.00023,0.00011,6,11
29713,-9e-05,-7e-05,-8e-05,-2e-05,0.00011,-0.00075,-0.00023,0.00011,6,11
29714,-9e-05,-7e-05,-8e-05,-2e-05,0.00011,-0.00075,-0.00023,0.00011,6,11
29715,-9e-05,-7e-05,-8e-05,-2e-05,0.00011,-0.00075,-0.00023,0.00011,6,11
29716,-9e-05,-7e-05,-8e-05,-2e-05,0.00011,-0.00075,-0.00023,0.00011,6,11
29717,-9e-05,-7e-05,-8e-05,-2e-05,0.00011,-0.00075,-0.00023,0.00011,6,11
29718,-9e-05,-7e-05,-8e-05,-2e-05,0.00011,-0.00075,-0.00023,0.00011,6,11
29719,-9e-05,-7e-05,-8e-05,-2e-05,0.00011,-0.00075,-0.00023,0.00011,6,11
29720,-9e-05,-7e-05,-8e-05,-2e-05,0.00011,-0.00075,-0.00023,0.00011,6,11
29721,-9e-05,-7e-05,-8e-05,-2e-05,0.00011,-0.00075,-0.00023,0.00011,6,11
29722,-9e-05,-7e-05,-8e-05,-2e-05,0.00011,-0.00075,-0.00023,0.00011,6,11
29723,-0.00015,-4e-05,-5e-05,-7e-05,0.00011,-0.00048,-0.0005,-2e-05,6,11
29724,3e-05,-1e-05,2e-05,-2e-05,-0.0001,-7e-05,-8e-05,-0.00076,6,11
29725,1e-05,-2e-05,-6e-05,-0.00013,-0.0005,-0.00013,-1e-05,0.00024,6,11
29726,1e-05,-2e-05,-6e-05,-0.00013,-0.0005,-0.00013,-1e-05,0.00024,6,11
29727,1e-05,-2e-05,-6e-05,-0.00013,-0.0005,-0.00013,-1e-05,0.00024,6,11
29728,1e-05,-2e-05,-6e-05,-0.00013,-0.0005,-0.00013,-1e-05,0.00024,6,11
29729,1e-05,-2e-05,-6e-05,-0.00013,-0.0005,-0.00013,-1e-05,0.00024,6,11
29730,1e-05,-2e-05,-6e-05,-0.00013,-0.0005,-0.00013,-1e-05,0.00024,6,11
29731,1e-05,-2e-05,-6e-05,-0.00013,-0.0005,-0.00013,-1e-05,0.00024,6,11
29732,1e-05,-2e-05,-6e-05,-0.00013,-0.0005,-0.00013,-1e-05,0.00024,6,11
29733,1e-05,-2e-05,-6e-05,-0.00013,-0.0005,-0.00013,-1e-05,0.00024,6,11
29734,1e-05,-2e-05,-6e-05,-0.00013,-0.0005,-0.00013,-1e-05,0.00024,6,11
29735,1e-05,-2e-05,-6e-05,-0.00013,-0.0005,-0.00013,-1e-05,0.00024,6,11
29736,1e-05,-2e-05,-6e-05,-0.00013,-0.0005,-0.00013,-1e-05,0.00024,6,11
29739,7e-05,2e-05,0,6e-05,0.00016,0.00056,7e-05,-8e-05,6,11
29740,7e-05,2e-05,0,6e-05,0.00016,0.00056,7e-05,-8e-05,6,11
29741,7e-05,2e-05,0,6e-05,0.00016,0.00056,7e-05,-8e-05,6,11
29742,7e-05,2e-05,0,6e-05,0.00016,0.00056,7e-05,-8e-05,6,11
29743,7e-05,2e-05,0,6e-05,0.00016,0.00056,7e-05,-8e-05,6,11
29744,7e-05,-2e-05,0,5e-05,0.00048,0.00082,8e-05,0.00074,6,11
29745,7e-05,-2e-05,0,5e-05,0.00048,0.00082,8e-05,0.00074,6,11
29746,7e-05,-2e-05,0,5e-05,0.00048,0.00082,8e-05,0.00074,6,11
29747,7e-05,-2e-05,0,5e-05,0.00048,0.00082,8e-05,0.00074,6,11
29748,7e-05,-2e-05,0,5e-05,0.00048,0.00082,8e-05,0.00074,6,11
29749,7e-05,-2e-05,0,5e-05,0.00048,0.00082,8e-05,0.00074,6,11
29750,7e-05,-2e-05,0,5e-05,0.00048,0.00082,8e-05,0.00074,6,11
29751,7e-05,-2e-05,0,5e-05,0.00048,0.00082,8e-05,0.00074,6,11
29752,7e-05,-2e-05,0,5e-05,0.00048,0.00082,8e-05,0.00074,6,11
29753,7e-05,-2e-05,0,5e-05,0.00048,0.00082,8e-05,0.00074,6,11
29754,7e-05,-2e-05,0,5e-05,0.00048,0.00082,8e-05,0.00074,6,11
29755,7e-05,-2e-05,0,5e-05,0.00048,0.00082,8e-05,0.00074,6,11
29756,7e-05,-2e-05,0,5e-05,0.00048,0.00082,8e-05,0.00074,6,11
29757,7e-05,-2e-05,0,5e-05,0.00048,0.00082,8e-05,0.00074,6,11
29758,7e-05,-2e-05,0,5e-05,0.00048,0.00082,8e-05,0.00074,6,11
29759,7e-05,-2e-05,0,5e-05,0.00048,0.00082,8e-05,0.00074,6,11
29760,-2e-05,1e-05,1e-05,1e-05,-0.00021,-0.00067,7e-05,0.0004,6,11
29761,-2e-05,1e-05,1e-05,1e-05,-0.00021,-0.00067,7e-05,0.0004,6,11
29762,-2e-05,-1e-05,-1e-05,1e-05,-4e-05,-0.00061,0.00011,0.00045,6,11
29763,-2e-05,-1e-05,-1e-05,1e-05,-4e-05,-0.00061,0.00011,0.00045,6,11
29764,-2e-05,-1e-05,-1e-05,1e-05,-4e-05,-0.00061,0.00011,0.00045,6,11
29765,-2e-05,-1e-05,-1e-05,1e-05,-4e-05,-0.00061,0.00011,0.00045,6,11
29766,-2e-05,-1e-05,-1e-05,1e-05,-4e-05,-0.00061,0.00011,0.00045,6,11
29767,-2e-05,-1e-05,-1e-05,1e-05,-4e-05,-0.00061,0.00011,0.00045,6,11
29768,-2e-05,-1e-05,-1e-05,1e-05,-4e-05,-0.00061,0.00011,0.00045,6,11
29769,-2e-05,-1e-05,-1e-05,1e-05,-4e-05,-0.00061,0.00011,0.00045,6,11
29770,-2e-05,-1e-05,-1e-05,1e-05,-4e-05,-0.00061,0.00011,0.00045,6,11
29771,-2e-05,-1e-05,-1e-05,1e-05,-4e-05,-0.00061,0.00011,0.00045,6,11
29772,-2e-05,-1e-05,-1e-05,1e-05,-4e-05,-0.00061,0.00011,0.00045,6,11
29773,-2e-05,-1e-05,-1e-05,1e-05,-4e-05,-0.00061,0.00011,0.00045,6,11
29774,-2e-05,-1e-05,-1e-05,1e-05,-4e-05,-0.00061,0.00011,0.00045,6,11
29775,-2e-05,-1e-05,-1e-05,1e-05,-4e-05,-0.00061,0.00011,0.00045,6,11
29776,-2e-05,-1e-05,-1e-05,1e-05,-4e-05,-0.00061,0.00011,0.00045,6,11
29777,-2e-05,-1e-05,-1e-05,1e-05,-4e-05,-0.00061,0.00011,0.00045,6,11
29778,-2e-05,-1e-05,-1e-05,1e-05,-4e-05,-0.00061,0.00011,0.00045,6,11
29779,-2e-05,-1e-05,-1e-05,1e-05,-4e-05,-0.00061,0.00011,0.00045,6,11
29780,-2e-05,-1e-05,-1e-05,1e-05,-4e-05,-0.00061,0.00011,0.00045,6,11
29781,-2e-05,-1e-05,-1e-05,1e-05,-4e-05,-0.00061,0.00011,0.00045,6,11
29782,-2e-05,-1e-05,-1e-05,1e-05,-4e-05,-0.00061,0.00011,0.00045,6,11
29783,-2e-05,-1e-05,-1e-05,1e-05,-4e-05,-0.00061,0.00011,0.00045,6,11
29784,-2e-05,-1e-05,-1e-05,1e-05,-4e-05,-0.00061,0.00011,0.00045,6,11
29785,-2e-05,-1e-05,-1e-05,1e-05,-4e-05,-0.00061,0.00011,0.00045,6,11
29786,-2e-05,-1e-05,-1e-05,1e-05,-4e-05,-0.00061,0.00011,0.00045,6,11
29788,-2e-05,-1e-05,-1e-05,1e-05,-4e-05,-0.00061,0.00011,0.00045,6,11
29789,-2e-05,-1e-05,-1e-05,1e-05,-4e-05,-0.00061,0.00011,0.00045,6,11
29790,-5e-05,-5e-05,-4e-05,-0.00012,-0.00056,-1e-05,-0.00014,-0.0001,6,11
29791,2e-05,3e-05,0,-2e-05,-0.00021,-1e-05,0.00025,0.00028,6,11
29792,5e-05,4e-05,1e-05,4e-05,-8e-05,2e-05,5e-05,-0.00056,6,11
29793,5e-05,4e-05,1e-05,4e-05,-8e-05,2e-05,5e-05,-0.00056,6,11
29794,5e-05,4e-05,1e-05,4e-05,-8e-05,2e-05,5e-05,-0.00056,6,11
29795,5e-05,4e-05,1e-05,4e-05,-8e-05,2e-05,5e-05,-0.00056,6,11
29796,5e-05,4e-05,1e-05,4e-05,-8e-05,2e-05,5e-05,-0.00056,6,11
29797,0,-2e-05,-1e-05,-1e-05,-4e-05,-0.00021,0.00012,-0.00024,6,11
29798,0,-2e-05,-1e-05,-1e-05,-4e-05,-0.00021,0.00012,-0.00024,6,11
29799,0,-2e-05,-1e-05,-1e-05,-4e-05,-0.00021,0.00012,-0.00024,6,11
29800,0,-2e-05,-1e-05,-1e-05,-4e-05,-0.00021,0.00012,-0.00024,6,11
29801,0,-2e-05,-1e-05,-1e-05,-4e-05,-0.00021,0.00012,-0.00024,6,11
29802,0,-2e-05,-1e-05,-1e-05,-4e-05,-0.00021,0.00012,-0.00024,6,11
29803,0,-2e-05,-1e-05,-1e-05,-4e-05,-0.00021,0.00012,-0.00024,6,11
29804,3e-05,-3e-05,-3e-05,6e-05,-0.00012,-0.00076,-3e-05,0.00052,6,11
29805,-0.00014,-6e-05,-6e-05,-0.00015,0.00032,0.00031,-0.00015,-0.00013,6,11
29806,-0.00014,-6e-05,-6e-05,-0.00015,0.00032,0.00031,-0.00015,-0.00013,6,11
29807,-0.00014,-6e-05,-6e-05,-0.00015,0.00032,0.00031,-0.00015,-0.00013,6,11
29808,-0.00014,-6e-05,-6e-05,-0.00015,0.00032,0.00031,-0.00015,-0.00013,6,11
29809,-0.00014,-6e-05,-6e-05,-0.00015,0.00032,0.00031,-0.00015,-0.00013,6,11
29810,-0.00014,-6e-05,-6e-05,-0.00015,0.00032,0.00031,-0.00015,-0.00013,6,11
29811,-0.00014,-6e-05,-6e-05,-0.00015,0.00032,0.00031,-0.00015,-0.00013,6,11
29812,-0.00014,-6e-05,-6e-05,-0.00015,0.00032,0.00031,-0.00015,-0.00013,6,11
29813,-0.00014,-6e-05,-6e-05,-0.00015,0.00032,0.00031,-0.00015,-0.00013,6,11
29814,-0.00014,-6e-05,-6e-05,-0.00015,0.00032,0.00031,-0.00015,-0.00013,6,11
29815,-0.00014,-6e-05,-6e-05,-0.00015,0.00032,0.00031,-0.00015,-0.00013,6,11
29816,-0.00014,-6e-05,-6e-05,-0.00015,0.00032,0.00031,-0.00015,-0.00013,6,11
29817,-0.00014,-6e-05,-6e-05,-0.00015,0.00032,0.00031,-0.00015,-0.00013,6,11
29818,-0.00014,-6e-05,-6e-05,-0.00015,0.00032,0.00031,-0.00015,-0.00013,6,11
29819,-0.00014,-6e-05,-6e-05,-0.00015,0.00032,0.00031,-0.00015,-0.00013,6,11
29820,7e-05,-1e-05,2e-05,9e-05,0.00047,0,8e-05,-0.00029,6,11
29821,7e-05,-1e-05,2e-05,9e-05,0.00047,0,8e-05,-0.00029,6,11
29822,5e-05,-2e-05,-4e-05,-0.0001,-0.00017,0.0003,-0.00033,0.00056,6,11
29823,5e-05,-2e-05,-4e-05,-0.0001,-0.00017,0.0003,-0.00033,0.00056,6,11
29824,5e-05,-2e-05,-4e-05,-0.0001,-0.00017,0.0003,-0.00033,0.00056,6,11
29825,5e-05,-2e-05,-4e-05,-0.0001,-0.00017,0.0003,-0.00033,0.00056,6,11
29826,5e-05,-2e-05,-4e-05,-0.0001,-0.00017,0.0003,-0.00033,0.00056,6,11
29827,5e-05,-2e-05,-4e-05,-0.0001,-0.00017,0.0003,-0.00033,0.00056,6,11
29828,5e-05,-2e-05,-4e-05,-0.0001,-0.00017,0.0003,-0.00033,0.00056,6,11
29829,5e-05,-2e-05,-4e-05,-0.0001,-0.00017,0.0003,-0.00033,0.00056,6,11
29830,5e-05,-2e-05,-4e-05,-0.0001,-0.00017,0.0003,-0.00033,0.00056,6,11
29831,5e-05,-2e-05,-4e-05,-0.0001,-0.00017,0.0003,-0.00033,0.00056,6,11
29832,5e-05,-2e-05,-4e-05,-0.0001,-0.00017,0.0003,-0.00033,0.00056,6,11
29833,5e-05,-2e-05,-4e-05,-0.0001,-0.00017,0.0003,-0.00033,0.00056,6,11
29834,5e-05,-2e-05,-4e-05,-0.0001,-0.00017,0.0003,-0.00033,0.00056,6,11
29835,5e-05,-2e-05,-4e-05,-0.0001,-0.00017,0.0003,-0.00033,0.00056,6,11
29836,5e-05,-2e-05,-4e-05,-0.0001,-0.00017,0.0003,-0.00033,0.00056,6,11
29838,5e-05,-2e-05,-4e-05,-0.0001,-0.00017,0.0003,-0.00033,0.00056,6,11
29839,5e-05,-2e-05,-4e-05,-0.0001,-0.00017,0.0003,-0.00033,0.00056,6,11
29841,5e-05,-2e-05,-4e-05,-0.0001,-0.00017,0.0003,-0.00033,0.00056,6,11
29842,5e-05,-2e-05,-4e-05,-0.0001,-0.00017,0.0003,-0.00033,0.00056,6,11
29843,-1e-05,2e-05,3e-05,-3e-05,-0.00024,-0.00032,3e-05,-0.00012,6,11
29844,0,-1e-05,0,-3e-05,0.00032,-0.00047,-0.00041,-0.00048,6,11
29845,2e-05,9e-05,0.0001,6e-05,-0.00035,2e-05,0.00056,0.00044,6,11
29846,2e-05,9e-05,0.0001,6e-05,-0.00035,2e-05,0.00056,0.00044,6,11
29847,2e-05,9e-05,0.0001,6e-05,-0.00035,2e-05,0.00056,0.00044,6,11
29848,2e-05,9e-05,0.0001,6e-05,-0.00035,2e-05,0.00056,0.00044,6,11
29849,2e-05,9e-05,0.0001,6e-05,-0.00035,2e-05,0.00056,0.00044,6,11
29850,2e-05,9e-05,0.0001,6e-05,-0.00035,2e-05,0.00056,0.00044,6,11
29851,2e-05,9e-05,0.0001,6e-05,-0.00035,2e-05,0.00056,0.00044,6,11
29852,2e-05,9e-05,0.0001,6e-05,-0.00035,2e-05,0.00056,0.00044,6,11
29853,2e-05,9e-05,0.0001,6e-05,-0.00035,2e-05,0.00056,0.00044,6,11
29854,2e-05,9e-05,0.0001,6e-05,-0.00035,2e-05,0.00056,0.00044,6,11
29855,2e-05,9e-05,0.0001,6e-05,-0.00035,2e-05,0.00056,0.00044,6,11
29856,2e-05,9e-05,0.0001,6e-05,-0.00035,2e-05,0.00056,0.00044,6,11
29857,-4e-05,-0.00011,-0.00012,-0.0001,0.00016,-0.00017,-0.00033,-0.00014,6,11
29858,-4e-05,-0.00011,-0.00012,-0.0001,0.00016,-0.00017,-0.00033,-0.00014,6,11
29859,-4e-05,-0.00011,-0.00012,-0.0001,0.00016,-0.00017,-0.00033,-0.00014,6,11
29860,-4e-05,-0.00011,-0.00012,-0.0001,0.00016,-0.00017,-0.00033,-0.00014,6,11
29861,-4e-05,-0.00011,-0.00012,-0.0001,0.00016,-0.00017,-0.00033,-0.00014,6,11
29862,-4e-05,-0.00011,-0.00012,-0.0001,0.00016,-0.00017,-0.00033,-0.00014,6,11
29863,-4e-05,-0.00011,-0.00012,-0.0001,0.00016,-0.00017,-0.00033,-0.00014,6,11
29864,-1e-05,0,2e-05,8e-05,0.00019,0.00041,5e-05,-0.00079,6,11
29865,-1e-05,0,2e-05,8e-05,0.00019,0.00041,5e-05,-0.00079,6,11
29866,-1e-05,0,2e-05,8e-05,0.00019,0.00041,5e-05,-0.00079,6,11
29867,-1e-05,0,2e-05,8e-05,0.00019,0.00041,5e-05,-0.00079,6,11
29868,-1e-05,0,2e-05,8e-05,0.00019,0.00041,5e-05,-0.00079,6,11
29869,-1e-05,0,2e-05,8e-05,0.00019,0.00041,5e-05,-0.00079,6,11
29870,-1e-05,0,2e-05,8e-05,0.00019,0.00041,5e-05,-0.00079,6,11
29871,-1e-05,0,2e-05,8e-05,0.00019,0.00041,5e-05,-0.00079,6,11
29873,-1e-05,0,2e-05,8e-05,0.00019,0.00041,5e-05,-0.00079,6,11
29874,-1e-05,0,2e-05,8e-05,0.00019,0.00041,5e-05,-0.00079,6,11
29875,-1e-05,0,2e-05,8e-05,0.00019,0.00041,5e-05,-0.00079,6,11
29876,-1e-05,0,2e-05,8e-05,0.00019,0.00041,5e-05,-0.00079,6,11
29877,-1e-05,0,2e-05,8e-05,0.00019,0.00041,5e-05,-0.00079,6,11
29878,-1e-05,0,2e-05,8e-05,0.00019,0.00041,5e-05,-0.00079,6,11
29879,-1e-05,0,2e-05,8e-05,0.00019,0.00041,5e-05,-0.00079,6,11
29880,1e-05,-2e-05,0,0.00014,0.00022,0.00072,0.0003,0.00082,6,11
29881,1e-05,-2e-05,0,0.00014,0.00022,0.00072,0.0003,0.00082,6,11
29882,3e-05,2e-05,5e-05,7e-05,-0.00041,-0.00062,8e-05,0.00018,6,11
29883,3e-05,2e-05,5e-05,7e-05,-0.00041,-0.00062,8e-05,0.00018,6,11
29884,3e-05,2e-05,5e-05,7e-05,-0.00041,-0.00062,8e-05,0.00018,6,11
29885,3e-05,2e-05,5e-05,7e-05,-0.00041,-0.00062,8e-05,0.00018,6,11
29886,3e-05,2e-05,5e-05,7e-05,-0.00041,-0.00062,8e-05,0.00018,6,11
29888,3e-05,2e-05,5e-05,7e-05,-0.00041,-0.00062,8e-05,0.00018,6,11
29889,3e-05,2e-05,5e-05,7e-05,-0.00041,-0.00062,8e-05,0.00018,6,11
29890,3e-05,2e-05,5e-05,7e-05,-0.00041,-0.00062,8e-05,0.00018,6,11
29891,3e-05,2e-05,5e-05,7e-05,-0.00041,-0.00062,8e-05,0.00018,6,11
29892,3e-05,2e-05,5e-05,7e-05,-0.00041,-0.00062,8e-05,0.00018,6,11
29893,3e-05,2e-05,5e-05,7e-05,-0.00041,-0.00062,8e-05,0.00018,6,11
29894,3e-05,2e-05,5e-05,7e-05,-0.00041,-0.00062,8e-05,0.00018,6,11
29895,3e-05,2e-05,5e-05,7e-05,-0.00041,-0.00062,8e-05,0.00018,6,11
29896,3e-05,2e-05,5e-05,7e-05,-0.00041,-0.00062,8e-05,0.00018,6,11
29897,3e-05,2e-05,5e-05,7e-05,-0.00041,-0.00062,8e-05,0.00018,6,11
29898,3e-05,2e-05,5e-05,7e-05,-0.00041,-0.00062,8e-05,0.00018,6,11
29899,3e-05,2e-05,5e-05,7e-05,-0.00041,-0.00062,8e-05,0.00018,6,11
29900,3e-05,2e-05,5e-05,7e-05,-0.00041,-0.00062,8e-05,0.00018,6,11
29901,3e-05,2e-05,5e-05,7e-05,-0.00041,-0.00062,8e-05,0.00018,6,11
29902,3e-05,2e-05,5e-05,7e-05,-0.00041,-0.00062,8e-05,0.00018,6,11
29903,-3e-05,2e-05,1e-05,-6e-05,-0.00079,0.0004,-0.00017,-0.00128,6,11
29904,-3e-05,2e-05,1e-05,-6e-05,-0.00079,0.0004,-0.00017,-0.00128,6,11
29905,-2e-05,-5e-05,-4e-05,-1e-05,0.00013,-0.00051,0.00018,0.00021,6,11
29907,-2e-05,-5e-05,-4e-05,-1e-05,0.00013,-0.00051,0.00018,0.00021,6,11
29908,-2e-05,-5e-05,-4e-05,-1e-05,0.00013,-0.00051,0.00018,0.00021,6,11
29909,-2e-05,-5e-05,-4e-05,-1e-05,0.00013,-0.00051,0.00018,0.00021,6,11
29910,-2e-05,-5e-05,-4e-05,-1e-05,0.00013,-0.00051,0.00018,0.00021,6,11
29911,-2e-05,-5e-05,-4e-05,-1e-05,0.00013,-0.00051,0.00018,0.00021,6,11
29912,-2e-05,-5e-05,-4e-05,-1e-05,0.00013,-0.00051,0.00018,0.00021,6,11
29913,-2e-05,-5e-05,-4e-05,-1e-05,0.00013,-0.00051,0.00018,0.00021,6,11
29914,-2e-05,-5e-05,-4e-05,-1e-05,0.00013,-0.00051,0.00018,0.00021,6,11
29915,-2e-05,-5e-05,-4e-05,-1e-05,0.00013,-0.00051,0.00018,0.00021,6,11
29916,-2e-05,-5e-05,-4e-05,-1e-05,0.00013,-0.00051,0.00018,0.00021,6,11
29917,3e-05,1e-05,2e-05,5e-05,0.00046,0.00105,-5e-05,-8e-05,6,11
29918,3e-05,1e-05,2e-05,5e-05,0.00046,0.00105,-5e-05,-8e-05,6,11
29919,3e-05,1e-05,2e-05,5e-05,0.00046,0.00105,-5e-05,-8e-05,6,11
29920,3e-05,1e-05,2e-05,5e-05,0.00046,0.00105,-5e-05,-8e-05,6,11
29921,3e-05,1e-05,2e-05,5e-05,0.00046,0.00105,-5e-05,-8e-05,6,11
29922,3e-05,1e-05,2e-05,5e-05,0.00046,0.00105,-5e-05,-8e-05,6,11
29923,3e-05,1e-05,2e-05,5e-05,0.00046,0.00105,-5e-05,-8e-05,6,11
29924,-1e-05,-5e-05,-5e-05,-6e-05,-6e-05,0.00037,-0.00017,-5e-05,6,11
29925,-1e-05,-5e-05,-5e-05,-6e-05,-6e-05,0.00037,-0.00017,-5e-05,6,11
29926,-1e-05,-5e-05,-5e-05,-6e-05,-6e-05,0.00037,-0.00017,-5e-05,6,11
29927,-1e-05,-5e-05,-5e-05,-6e-05,-6e-05,0.00037,-0.00017,-5e-05,6,11
29928,-1e-05,-5e-05,-5e-05,-6e-05,-6e-05,0.00037,-0.00017,-5e-05,6,11
29929,-1e-05,-5e-05,-5e-05,-6e-05,-6e-05,0.00037,-0.00017,-5e-05,6,11
29930,-1e-05,-5e-05,-5e-05,-6e-05,-6e-05,0.00037,-0.00017,-5e-05,6,11
29931,-1e-05,-5e-05,-5e-05,-6e-05,-6e-05,0.00037,-0.00017,-5e-05,6,11
29932,-1e-05,-5e-05,-5e-05,-6e-05,-6e-05,0.00037,-0.00017,-5e-05,6,11
29933,-1e-05,-5e-05,-5e-05,-6e-05,-6e-05,0.00037,-0.00017,-5e-05,6,11
29934,-1e-05,-5e-05,-5e-05,-6e-05,-6e-05,0.00037,-0.00017,-5e-05,6,11
29935,-1e-05,-5e-05,-5e-05,-6e-05,-6e-05,0.00037,-0.00017,-5e-05,6,11
29936,-1e-05,-5e-05,-5e-05,-6e-05,-6e-05,0.00037,-0.00017,-5e-05,6,11
29938,-1e-05,-5e-05,-5e-05,-6e-05,-6e-05,0.00037,-0.00017,-5e-05,6,11
29939,-1e-05,-5e-05,-5e-05,-6e-05,-6e-05,0.00037,-0.00017,-5e-05,6,11
29940,-0.0001,0,5e-05,8e-05,0.00011,-0.00128,8e-05,-0.00064,6,11
29941,-0.0001,0,5e-05,8e-05,0.00011,-0.00128,8e-05,-0.00064,6,11
29942,-5e-05,-6e-05,-6e-05,5e-05,0.00041,-0.00037,-0.00019,-0.00049,6,11
29943,-5e-05,-6e-05,-6e-05,5e-05,0.00041,-0.00037,-0.00019,-0.00049,6,11
29944,-5e-05,-6e-05,-6e-05,5e-05,0.00041,-0.00037,-0.00019,-0.00049,6,11
29945,-5e-05,-6e-05,-6e-05,5e-05,0.00041,-0.00037,-0.00019,-0.00049,6,11
29946,-5e-05,-6e-05,-6e-05,5e-05,0.00041,-0.00037,-0.00019,-0.00049,6,11
29947,-5e-05,-6e-05,-6e-05,5e-05,0.00041,-0.00037,-0.00019,-0.00049,6,11
29948,-5e-05,-6e-05,-6e-05,5e-05,0.00041,-0.00037,-0.00019,-0.00049,6,11
29949,-5e-05,-6e-05,-6e-05,5e-05,0.00041,-0.00037,-0.00019,-0.00049,6,11
29950,-5e-05,-6e-05,-6e-05,5e-05,0.00041,-0.00037,-0.00019,-0.00049,6,11
29951,-5e-05,-6e-05,-6e-05,5e-05,0.00041,-0.00037,-0.00019,-0.00049,6,11
29952,-5e-05,-6e-05,-6e-05,5e-05,0.00041,-0.00037,-0.00019,-0.00049,6,11
29953,-5e-05,-6e-05,-6e-05,5e-05,0.00041,-0.00037,-0.00019,-0.00049,6,11
29954,-5e-05,-6e-05,-6e-05,5e-05,0.00041,-0.00037,-0.00019,-0.00049,6,11
29955,-5e-05,-6e-05,-6e-05,5e-05,0.00041,-0.00037,-0.00019,-0.00049,6,11
29956,-5e-05,-6e-05,-6e-05,5e-05,0.00041,-0.00037,-0.00019,-0.00049,6,11
29957,-5e-05,-6e-05,-6e-05,5e-05,0.00041,-0.00037,-0.00019,-0.00049,6,11
29958,-5e-05,-6e-05,-6e-05,5e-05,0.00041,-0.00037,-0.00019,-0.00049,6,11
29959,-5e-05,-6e-05,-6e-05,5e-05,0.00041,-0.00037,-0.00019,-0.00049,6,11
29960,-5e-05,-6e-05,-6e-05,5e-05,0.00041,-0.00037,-0.00019,-0.00049,6,11
29961,-5e-05,-6e-05,-6e-05,5e-05,0.00041,-0.00037,-0.00019,-0.00049,6,11
29962,-5e-05,-6e-05,-6e-05,5e-05,0.00041,-0.00037,-0.00019,-0.00049,6,11
29963,-1e-05,0,2e-05,-1e-05,0.00024,0.0007,0.00017,0.00081,6,11
29964,0,5e-05,3e-05,8e-05,0.00023,0.00066,0.0004,-0.00062,6,11
29965,0,5e-05,3e-05,8e-05,0.00023,0.00066,0.0004,-0.00062,6,11
29966,0,5e-05,3e-05,8e-05,0.00023,0.00066,0.0004,-0.00062,6,11
29967,0,5e-05,3e-05,8e-05,0.00023,0.00066,0.0004,-0.00062,6,11
29968,0,5e-05,3e-05,8e-05,0.00023,0.00066,0.0004,-0.00062,6,11
29969,0,5e-05,3e-05,8e-05,0.00023,0.00066,0.0004,-0.00062,6,11
29970,0,5e-05,3e-05,8e-05,0.00023,0.00066,0.0004,-0.00062,6,11
29971,0,5e-05,3e-05,8e-05,0.00023,0.00066,0.0004,-0.00062,6,11
29972,0,5e-05,3e-05,8e-05,0.00023,0.00066,0.0004,-0.00062,6,11
29973,0,5e-05,3e-05,8e-05,0.00023,0.00066,0.0004,-0.00062,6,11
29974,0,5e-05,3e-05,8e-05,0.00023,0.00066,0.0004,-0.00062,6,11
29975,0,5e-05,3e-05,8e-05,0.00023,0.00066,0.0004,-0.00062,6,11
29976,0,5e-05,3e-05,8e-05,0.00023,0.00066,0.0004,-0.00062,6,11
29977,-0.0001,-0.00013,-0.00018,-0.00014,0.0002,-0.00102,-0.00024,-0.00036,6,11
29978,-0.0001,-0.00013,-0.00018,-0.00014,0.0002,-0.00102,-0.00024,-0.00036,6,11
29979,-0.0001,-0.00013,-0.00018,-0.00014,0.0002,-0.00102,-0.00024,-0.00036,6,11
29980,-0.0001,-0.00013,-0.00018,-0.00014,0.0002,-0.00102,-0.00024,-0.00036,6,11
29981,-0.0001,-0.00013,-0.00018,-0.00014,0.0002,-0.00102,-0.00024,-0.00036,6,11
29982,-0.0001,-0.00013,-0.00018,-0.00014,0.0002,-0.00102,-0.00024,-0.00036,6,11
29983,-0.0001,-0.00013,-0.00018,-0.00014,0.0002,-0.00102,-0.00024,-0.00036,6,11
29984,5e-05,-2e-05,-5e-05,-9e-05,-0.00029,0.00052,-0.00024,4e-05,6,11
29985,5e-05,-2e-05,-5e-05,-9e-05,-0.00029,0.00052,-0.00024,4e-05,6,11
29986,5e-05,-2e-05,-5e-05,-9e-05,-0.00029,0.00052,-0.00024,4e-05,6,11
29988,5e-05,-2e-05,-5e-05,-9e-05,-0.00029,0.00052,-0.00024,4e-05,6,11
29989,5e-05,-2e-05,-5e-05,-9e-05,-0.00029,0.00052,-0.00024,4e-05,6,11
29990,5e-05,-2e-05,-5e-05,-9e-05,-0.00029,0.00052,-0.00024,4e-05,6,11
29991,5e-05,-2e-05,-5e-05,-9e-05,-0.00029,0.00052,-0.00024,4e-05,6,11
29992,5e-05,-2e-05,-5e-05,-9e-05,-0.00029,0.00052,-0.00024,4e-05,6,11
29993,5e-05,-2e-05,-5e-05,-9e-05,-0.00029,0.00052,-0.00024,4e-05,6,11
29994,5e-05,-2e-05,-5e-05,-9e-05,-0.00029,0.00052,-0.00024,4e-05,6,11
29995,5e-05,-2e-05,-5e-05,-9e-05,-0.00029,0.00052,-0.00024,4e-05,6,11
29996,5e-05,-2e-05,-5e-05,-9e-05,-0.00029,0.00052,-0.00024,4e-05,6,11
29997,5e-05,-2e-05,-5e-05,-9e-05,-0.00029,0.00052,-0.00024,4e-05,6,11
29998,5e-05,-2e-05,-5e-05,-9e-05,-0.00029,0.00052,-0.00024,4e-05,6,11
29999,5e-05,-2e-05,-5e-05,-9e-05,-0.00029,0.00052,-0.00024,4e-05,6,11
30000,5e-05,-2e-05,-5e-05,-9e-05,-0.00029,0.00052,-0.00024,4e-05,6,11
30001,-0.00013,-0.0001,-7e-05,-7e-05,-0.00043,0.00083,-0.00014,-0.00058,6,11
30002,8e-05,2e-05,5e-05,7e-05,2e-05,0.00022,0.00015,-0.00046,6,11
30003,-4e-05,1e-05,-3e-05,-0.00011,-0.00011,-0.00112,-0.00041,-0.00043,6,11
30004,-4e-05,1e-05,-3e-05,-0.00011,-0.00011,-0.00112,-0.00041,-0.00043,6,11
30005,-4e-05,1e-05,-3e-05,-0.00011,-0.00011,-0.00112,-0.00041,-0.00043,6,11
30006,-4e-05,1e-05,-3e-05,-0.00011,-0.00011,-0.00112,-0.00041,-0.00043,6,11
30007,-4e-05,1e-05,-3e-05,-0.00011,-0.00011,-0.00112,-0.00041,-0.00043,6,11
30008,-4e-05,1e-05,-3e-05,-0.00011,-0.00011,-0.00112,-0.00041,-0.00043,6,11
30009,-4e-05,1e-05,-3e-05,-0.00011,-0.00011,-0.00112,-0.00041,-0.00043,6,11
30010,-4e-05,1e-05,-3e-05,-0.00011,-0.00011,-0.00112,-0.00041,-0.00043,6,11
30011,-4e-05,1e-05,-3e-05,-0.00011,-0.00011,-0.00112,-0.00041,-0.00043,6,11
30012,-4e-05,1e-05,-3e-05,-0.00011,-0.00011,-0.00112,-0.00041,-0.00043,6,11
30013,-4e-05,1e-05,-3e-05,-0.00011,-0.00011,-0.00112,-0.00041,-0.00043,6,11
30014,-4e-05,1e-05,-3e-05,-0.00011,-0.00011,-0.00112,-0.00041,-0.00043,6,11
30015,-4e-05,1e-05,-3e-05,-0.00011,-0.00011,-0.00112,-0.00041,-0.00043,6,11
30016,-4e-05,1e-05,-3e-05,-0.00011,-0.00011,-0.00112,-0.00041,-0.00043,6,11
30017,-4e-05,1e-05,-3e-05,-0.00011,-0.00011,-0.00112,-0.00041,-0.00043,6,11
30018,-4e-05,1e-05,-3e-05,-0.00011,-0.00011,-0.00112,-0.00041,-0.00043,6,11
30019,-4e-05,1e-05,-3e-05,-0.00011,-0.00011,-0.00112,-0.00041,-0.00043,6,11
30020,-4e-05,1e-05,-3e-05,-0.00011,-0.00011,-0.00112,-0.00041,-0.00043,6,11
30021,-4e-05,1e-05,-3e-05,-0.00011,-0.00011,-0.00112,-0.00041,-0.00043,6,11
30022,-4e-05,1e-05,-3e-05,-0.00011,-0.00011,-0.00112,-0.00041,-0.00043,6,11
30023,-2e-05,-2e-05,-2e-05,-0.00012,-0.00035,-0.00089,-0.00013,-0.00043,6,11
30024,4e-05,0,0,2e-05,0.0005,0.00105,0.00049,0.00058,6,11
30025,-1e-05,3e-05,4e-05,7e-05,-8e-05,0.00058,0.00011,-0.00034,6,11
30026,-1e-05,3e-05,4e-05,7e-05,-8e-05,0.00058,0.00011,-0.00034,6,11
30027,-1e-05,3e-05,4e-05,7e-05,-8e-05,0.00058,0.00011,-0.00034,6,11
30028,-1e-05,3e-05,4e-05,7e-05,-8e-05,0.00058,0.00011,-0.00034,6,11
30029,-1e-05,3e-05,4e-05,7e-05,-8e-05,0.00058,0.00011,-0.00034,6,11
30030,-1e-05,3e-05,4e-05,7e-05,-8e-05,0.00058,0.00011,-0.00034,6,11
30031,-1e-05,3e-05,4e-05,7e-05,-8e-05,0.00058,0.00011,-0.00034,6,11
30032,-1e-05,3e-05,4e-05,7e-05,-8e-05,0.00058,0.00011,-0.00034,6,11
30033,-1e-05,3e-05,4e-05,7e-05,-8e-05,0.00058,0.00011,-0.00034,6,11
30034,-1e-05,3e-05,4e-05,7e-05,-8e-05,0.00058,0.00011,-0.00034,6,11
30035,-1e-05,3e-05,4e-05,7e-05,-8e-05,0.00058,0.00011,-0.00034,6,11
30043,-1e-05,3e-05,4e-05,7e-05,-8e-05,0.00058,0.00011,-0.00034,6,11
30044,-1e-05,3e-05,4e-05,7e-05,-8e-05,0.00058,0.00011,-0.00034,6,11
30045,3e-05,-5e-05,-9e-05,1e-05,0.00065,-0.00047,0.00017,0.00024,6,11
30046,3e-05,-5e-05,-9e-05,1e-05,0.00065,-0.00047,0.00017,0.00024,6,11
30047,-3e-05,1e-05,0,-6e-05,-0.00033,-0.00069,2e-05,0.0001,6,11
30048,-3e-05,1e-05,0,-6e-05,-0.00033,-0.00069,2e-05,0.0001,6,11
30049,-3e-05,1e-05,0,-6e-05,-0.00033,-0.00069,2e-05,0.0001,6,11
30050,-3e-05,1e-05,0,-6e-05,-0.00033,-0.00069,2e-05,0.0001,6,11
30051,-3e-05,1e-05,0,-6e-05,-0.00033,-0.00069,2e-05,0.0001,6,11
30052,-3e-05,1e-05,0,-6e-05,-0.00033,-0.00069,2e-05,0.0001,6,11
30053,-3e-05,1e-05,0,-6e-05,-0.00033,-0.00069,2e-05,0.0001,6,11
30054,-3e-05,1e-05,0,-6e-05,-0.00033,-0.00069,2e-05,0.0001,6,11
30055,-3e-05,1e-05,0,-6e-05,-0.00033,-0.00069,2e-05,0.0001,6,11
30056,-3e-05,1e-05,0,-6e-05,-0.00033,-0.00069,2e-05,0.0001,6,11
30057,-3e-05,1e-05,0,-6e-05,-0.00033,-0.00069,2e-05,0.0001,6,11
30058,-3e-05,1e-05,0,-6e-05,-0.00033,-0.00069,2e-05,0.0001,6,11
30059,-3e-05,1e-05,0,-6e-05,-0.00033,-0.00069,2e-05,0.0001,6,11
30060,9e-05,8e-05,8e-05,-3e-05,-0.00017,0.00036,0.00011,0.00045,6,11
30061,9e-05,8e-05,8e-05,-3e-05,-0.00017,0.00036,0.00011,0.00045,6,11
30062,-7e-05,-7e-05,-8e-05,-0.00012,-0.00028,-0.00035,-0.00033,-0.00107,6,11
30063,-7e-05,-7e-05,-8e-05,-0.00012,-0.00028,-0.00035,-0.00033,-0.00107,6,11
30064,-7e-05,-7e-05,-8e-05,-0.00012,-0.00028,-0.00035,-0.00033,-0.00107,6,11
30065,-7e-05,-7e-05,-8e-05,-0.00012,-0.00028,-0.00035,-0.00033,-0.00107,6,11
30066,-7e-05,-7e-05,-8e-05,-0.00012,-0.00028,-0.00035,-0.00033,-0.00107,6,11
30067,-7e-05,-7e-05,-8e-05,-0.00012,-0.00028,-0.00035,-0.00033,-0.00107,6,11
30068,-7e-05,-7e-05,-8e-05,-0.00012,-0.00028,-0.00035,-0.00033,-0.00107,6,11
30069,-7e-05,-7e-05,-8e-05,-0.00012,-0.00028,-0.00035,-0.00033,-0.00107,6,11
30070,-7e-05,-7e-05,-8e-05,-0.00012,-0.00028,-0.00035,-0.00033,-0.00107,6,11
30071,-7e-05,-7e-05,-8e-05,-0.00012,-0.00028,-0.00035,-0.00033,-0.00107,6,11
30072,-7e-05,-7e-05,-8e-05,-0.00012,-0.00028,-0.00035,-0.00033,-0.00107,6,11
30073,-7e-05,-7e-05,-8e-05,-0.00012,-0.00028,-0.00035,-0.00033,-0.00107,6,11
30074,-7e-05,-7e-05,-8e-05,-0.00012,-0.00028,-0.00035,-0.00033,-0.00107,6,11
30075,-7e-05,-7e-05,-8e-05,-0.00012,-0.00028,-0.00035,-0.00033,-0.00107,6,11
30076,-7e-05,-7e-05,-8e-05,-0.00012,-0.00028,-0.00035,-0.00033,-0.00107,6,11
30077,-7e-05,-7e-05,-8e-05,-0.00012,-0.00028,-0.00035,-0.00033,-0.00107,6,11
30078,-7e-05,-7e-05,-8e-05,-0.00012,-0.00028,-0.00035,-0.00033,-0.00107,6,11
30079,-7e-05,-7e-05,-8e-05,-0.00012,-0.00028,-0.00035,-0.00033,-0.00107,6,11
30080,-7e-05,-7e-05,-8e-05,-0.00012,-0.00028,-0.00035,-0.00033,-0.00107,6,11
30081,-7e-05,-7e-05,-8e-05,-0.00012,-0.00028,-0.00035,-0.00033,-0.00107,6,11
30082,-7e-05,-7e-05,-8e-05,-0.00012,-0.00028,-0.00035,-0.00033,-0.00107,6,11
30083,-7e-05,-7e-05,-8e-05,-0.00012,-0.00028,-0.00035,-0.00033,-0.00107,6,11
30084,-7e-05,-7e-05,-8e-05,-0.00012,-0.00028,-0.00035,-0.00033,-0.00107,6,11
30085,-7e-05,-7e-05,-8e-05,-0.00012,-0.00028,-0.00035,-0.00033,-0.00107,6,11
30086,-7e-05,-7e-05,-8e-05,-0.00012,-0.00028,-0.00035,-0.00033,-0.00107,6,11
30088,-7e-05,-7e-05,-8e-05,-0.00012,-0.00028,-0.00035,-0.00033,-0.00107,6,11
30089,-7e-05,-7e-05,-8e-05,-0.00012,-0.00028,-0.00035,-0.00033,-0.00107,6,11
30090,1e-05,5e-05,2e-05,4e-05,-2e-05,0.00081,0.00018,0.00038,6,11
30091,1e-05,5e-05,2e-05,4e-05,-2e-05,0.00081,0.00018,0.00038,6,11
30092,-0.00016,-5e-05,-4e-05,-7e-05,0.00022,-0.0002,-0.00024,-0.00065,6,11
30093,-0.00016,-5e-05,-4e-05,-7e-05,0.00022,-0.0002,-0.00024,-0.00065,6,11
30094,-0.00016,-5e-05,-4e-05,-7e-05,0.00022,-0.0002,-0.00024,-0.00065,6,11
30095,-0.00016,-5e-05,-4e-05,-7e-05,0.00022,-0.0002,-0.00024,-0.00065,6,11
30096,-0.00016,-5e-05,-4e-05,-7e-05,0.00022,-0.0002,-0.00024,-0.00065,6,11
30097,5e-05,4e-05,3e-05,0,-5e-05,-0.00027,9e-05,-0.0007,6,11
30098,5e-05,4e-05,3e-05,0,-5e-05,-0.00027,9e-05,-0.0007,6,11
30099,5e-05,4e-05,3e-05,0,-5e-05,-0.00027,9e-05,-0.0007,6,11
30100,5e-05,4e-05,3e-05,0,-5e-05,-0.00027,9e-05,-0.0007,6,11
30101,5e-05,4e-05,3e-05,0,-5e-05,-0.00027,9e-05,-0.0007,6,11
30102,5e-05,4e-05,3e-05,0,-5e-05,-0.00027,9e-05,-0.0007,6,11
30103,5e-05,4e-05,3e-05,0,-5e-05,-0.00027,9e-05,-0.0007,6,11
30104,5e-05,4e-05,3e-05,0,-5e-05,-0.00027,9e-05,-0.0007,6,11
30106,-6e-05,-6e-05,-6e-05,-5e-05,8e-05,-0.00071,-7e-05,-0.00051,6,11
30107,0.00021,2e-05,2e-05,0,0.00025,-0.00029,-5e-05,0.00127,6,11
30108,0.00021,2e-05,2e-05,0,0.00025,-0.00029,-5e-05,0.00127,6,11
30109,0.00021,2e-05,2e-05,0,0.00025,-0.00029,-5e-05,0.00127,6,11
30110,0.00021,2e-05,2e-05,0,0.00025,-0.00029,-5e-05,0.00127,6,11
30111,0.00021,2e-05,2e-05,0,0.00025,-0.00029,-5e-05,0.00127,6,11
30112,0.00021,2e-05,2e-05,0,0.00025,-0.00029,-5e-05,0.00127,6,11
30113,0.00021,2e-05,2e-05,0,0.00025,-0.00029,-5e-05,0.00127,6,11
30114,0.00021,2e-05,2e-05,0,0.00025,-0.00029,-5e-05,0.00127,6,11
30115,0.00021,2e-05,2e-05,0,0.00025,-0.00029,-5e-05,0.00127,6,11
30116,0.00021,2e-05,2e-05,0,0.00025,-0.00029,-5e-05,0.00127,6,11
30117,0.00021,2e-05,2e-05,0,0.00025,-0.00029,-5e-05,0.00127,6,11
30118,0.00021,2e-05,2e-05,0,0.00025,-0.00029,-5e-05,0.00127,6,11
30119,0.00021,2e-05,2e-05,0,0.00025,-0.00029,-5e-05,0.00127,6,11
30120,2e-05,2e-05,-2e-05,0,-0.0003,-0.00128,-0.00019,0.00011,6,11
30121,2e-05,2e-05,-2e-05,0,-0.0003,-0.00128,-0.00019,0.00011,6,11
30122,-7e-05,3e-05,7e-05,0.00015,-1e-05,-0.00019,-0.00015,-0.00069,6,11
30123,-7e-05,3e-05,7e-05,0.00015,-1e-05,-0.00019,-0.00015,-0.00069,6,11
30124,-7e-05,3e-05,7e-05,0.00015,-1e-05,-0.00019,-0.00015,-0.00069,6,11
30125,-7e-05,3e-05,7e-05,0.00015,-1e-05,-0.00019,-0.00015,-0.00069,6,11
30126,-7e-05,3e-05,7e-05,0.00015,-1e-05,-0.00019,-0.00015,-0.00069,6,11
30127,-7e-05,3e-05,7e-05,0.00015,-1e-05,-0.00019,-0.00015,-0.00069,6,11
30128,-7e-05,3e-05,7e-05,0.00015,-1e-05,-0.00019,-0.00015,-0.00069,6,11
30129,-7e-05,3e-05,7e-05,0.00015,-1e-05,-0.00019,-0.00015,-0.00069,6,11
30130,-7e-05,3e-05,7e-05,0.00015,-1e-05,-0.00019,-0.00015,-0.00069,6,11
30131,-7e-05,3e-05,7e-05,0.00015,-1e-05,-0.00019,-0.00015,-0.00069,6,11
30132,-7e-05,3e-05,7e-05,0.00015,-1e-05,-0.00019,-0.00015,-0.00069,6,11
30133,-7e-05,3e-05,7e-05,0.00015,-1e-05,-0.00019,-0.00015,-0.00069,6,11
30134,-7e-05,3e-05,7e-05,0.00015,-1e-05,-0.00019,-0.00015,-0.00069,6,11
30135,-7e-05,3e-05,7e-05,0.00015,-1e-05,-0.00019,-0.00015,-0.00069,6,11
30136,-7e-05,3e-05,7e-05,0.00015,-1e-05,-0.00019,-0.00015,-0.00069,6,11
30138,-7e-05,3e-05,7e-05,0.00015,-1e-05,-0.00019,-0.00015,-0.00069,6,11
30139,-7e-05,3e-05,7e-05,0.00015,-1e-05,-0.00019,-0.00015,-0.00069,6,11
30140,-7e-05,3e-05,7e-05,0.00015,-1e-05,-0.00019,-0.00015,-0.00069,6,11
30141,-7e-05,3e-05,7e-05,0.00015,-1e-05,-0.00019,-0.00015,-0.00069,6,11
30142,-7e-05,3e-05,7e-05,0.00015,-1e-05,-0.00019,-0.00015,-0.00069,6,11
30143,8e-05,6e-05,6e-05,7e-05,-0.00012,0.00015,-1e-05,-0.00018,6,11
30144,1e-05,2e-05,5e-05,0.00014,0.00054,0.00083,0.00013,0.00011,6,11
30145,1e-05,2e-05,5e-05,0.00014,0.00054,0.00083,0.00013,0.00011,6,11
30146,1e-05,2e-05,5e-05,0.00014,0.00054,0.00083,0.00013,0.00011,6,11
30147,1e-05,2e-05,5e-05,0.00014,0.00054,0.00083,0.00013,0.00011,6,11
30148,1e-05,2e-05,5e-05,0.00014,0.00054,0.00083,0.00013,0.00011,6,11
30149,1e-05,2e-05,5e-05,0.00014,0.00054,0.00083,0.00013,0.00011,6,11
30150,1e-05,2e-05,5e-05,0.00014,0.00054,0.00083,0.00013,0.00011,6,11
30151,1e-05,2e-05,5e-05,0.00014,0.00054,0.00083,0.00013,0.00011,6,11
30152,1e-05,2e-05,5e-05,0.00014,0.00054,0.00083,0.00013,0.00011,6,11
30153,1e-05,2e-05,5e-05,0.00014,0.00054,0.00083,0.00013,0.00011,6,11
30154,1e-05,2e-05,5e-05,0.00014,0.00054,0.00083,0.00013,0.00011,6,11
30155,1e-05,2e-05,5e-05,0.00014,0.00054,0.00083,0.00013,0.00011,6,11
30156,1e-05,2e-05,5e-05,0.00014,0.00054,0.00083,0.00013,0.00011,6,11
30157,-5e-05,-3e-05,-4e-05,-9e-05,-0.00017,0.00121,-0.00015,-4e-05,6,11
30158,-5e-05,-3e-05,-4e-05,-9e-05,-0.00017,0.00121,-0.00015,-4e-05,6,11
30159,-5e-05,-3e-05,-4e-05,-9e-05,-0.00017,0.00121,-0.00015,-4e-05,6,11
30160,-5e-05,-3e-05,-4e-05,-9e-05,-0.00017,0.00121,-0.00015,-4e-05,6,11
30161,-5e-05,-3e-05,-4e-05,-9e-05,-0.00017,0.00121,-0.00015,-4e-05,6,11
30162,-5e-05,-3e-05,-4e-05,-9e-05,-0.00017,0.00121,-0.00015,-4e-05,6,11
30163,-5e-05,-3e-05,-4e-05,-9e-05,-0.00017,0.00121,-0.00015,-4e-05,6,11
30164,-5e-05,-3e-05,-4e-05,-9e-05,-0.00017,0.00121,-0.00015,-4e-05,6,11
30165,-5e-05,-3e-05,-4e-05,-9e-05,-0.00017,0.00121,-0.00015,-4e-05,6,11
30166,-4e-05,-6e-05,-4e-05,-0.00015,-0.00028,0.00091,0.00024,0.00025,6,11
30167,-4e-05,-6e-05,-4e-05,-0.00015,-0.00028,0.00091,0.00024,0.00025,6,11
30168,-4e-05,-6e-05,-4e-05,-0.00015,-0.00028,0.00091,0.00024,0.00025,6,11
30169,-4e-05,-6e-05,-4e-05,-0.00015,-0.00028,0.00091,0.00024,0.00025,6,11
30170,-4e-05,-6e-05,-4e-05,-0.00015,-0.00028,0.00091,0.00024,0.00025,6,11
30171,-4e-05,-6e-05,-4e-05,-0.00015,-0.00028,0.00091,0.00024,0.00025,6,11
30172,-4e-05,-6e-05,-4e-05,-0.00015,-0.00028,0.00091,0.00024,0.00025,6,11
30173,-4e-05,-6e-05,-4e-05,-0.00015,-0.00028,0.00091,0.00024,0.00025,6,11
30174,-4e-05,-6e-05,-4e-05,-0.00015,-0.00028,0.00091,0.00024,0.00025,6,11
30175,-4e-05,-6e-05,-4e-05,-0.00015,-0.00028,0.00091,0.00024,0.00025,6,11
30176,-4e-05,-6e-05,-4e-05,-0.00015,-0.00028,0.00091,0.00024,0.00025,6,11
30177,-4e-05,-6e-05,-4e-05,-0.00015,-0.00028,0.00091,0.00024,0.00025,6,11
30178,-4e-05,-6e-05,-4e-05,-0.00015,-0.00028,0.00091,0.00024,0.00025,6,11
30179,-4e-05,-6e-05,-4e-05,-0.00015,-0.00028,0.00091,0.00024,0.00025,6,11
30180,-2e-05,0,5e-05,5e-05,-1e-05,-0.00086,-0.00025,-0.00011,6,11
30181,-2e-05,0,5e-05,5e-05,-1e-05,-0.00086,-0.00025,-0.00011,6,11
30182,-6e-05,-0.0001,-0.00016,-0.00014,0.00021,-0.00043,0,-2e-05,6,11
30183,-6e-05,-0.0001,-0.00016,-0.00014,0.00021,-0.00043,0,-2e-05,6,11
30184,-6e-05,-0.0001,-0.00016,-0.00014,0.00021,-0.00043,0,-2e-05,6,11
30185,-6e-05,-0.0001,-0.00016,-0.00014,0.00021,-0.00043,0,-2e-05,6,11
30186,-6e-05,-0.0001,-0.00016,-0.00014,0.00021,-0.00043,0,-2e-05,6,11
30188,-6e-05,-0.0001,-0.00016,-0.00014,0.00021,-0.00043,0,-2e-05,6,11
30189,-6e-05,-0.0001,-0.00016,-0.00014,0.00021,-0.00043,0,-2e-05,6,11
30190,-6e-05,-0.0001,-0.00016,-0.00014,0.00021,-0.00043,0,-2e-05,6,11
30191,-6e-05,-0.0001,-0.00016,-0.00014,0.00021,-0.00043,0,-2e-05,6,11
30192,-6e-05,-0.0001,-0.00016,-0.00014,0.00021,-0.00043,0,-2e-05,6,11
30193,-6e-05,-0.0001,-0.00016,-0.00014,0.00021,-0.00043,0,-2e-05,6,11
30194,-6e-05,-0.0001,-0.00016,-0.00014,0.00021,-0.00043,0,-2e-05,6,11
30195,-6e-05,-0.0001,-0.00016,-0.00014,0.00021,-0.00043,0,-2e-05,6,11
30196,-6e-05,-0.0001,-0.00016,-0.00014,0.00021,-0.00043,0,-2e-05,6,11
30197,-6e-05,-0.0001,-0.00016,-0.00014,0.00021,-0.00043,0,-2e-05,6,11
30198,-6e-05,-0.0001,-0.00016,-0.00014,0.00021,-0.00043,0,-2e-05,6,11
30199,-6e-05,-0.0001,-0.00016,-0.00014,0.00021,-0.00043,0,-2e-05,6,11
30200,-6e-05,-0.0001,-0.00016,-0.00014,0.00021,-0.00043,0,-2e-05,6,11
30201,-6e-05,-0.0001,-0.00016,-0.00014,0.00021,-0.00043,0,-2e-05,6,11
30202,-6e-05,-0.0001,-0.00016,-0.00014,0.00021,-0.00043,0,-2e-05,6,11
30203,-0.00013,-1e-05,-2e-05,-6e-05,0,-0.00128,-0.00018,-0.00048,6,11
30204,1e-05,-2e-05,-3e-05,-2e-05,0.00013,-0.00125,-0.00015,-0.0004,6,11
30205,-3e-05,-3e-05,-5e-05,-5e-05,-0.00048,-0.00031,0.00022,-0.00063,6,11
30206,-3e-05,-3e-05,-5e-05,-5e-05,-0.00048,-0.00031,0.00022,-0.00063,6,11
30207,-3e-05,-3e-05,-5e-05,-5e-05,-0.00048,-0.00031,0.00022,-0.00063,6,11
30208,-3e-05,-3e-05,-5e-05,-5e-05,-0.00048,-0.00031,0.00022,-0.00063,6,11
30209,-3e-05,-3e-05,-5e-05,-5e-05,-0.00048,-0.00031,0.00022,-0.00063,6,11
30210,-3e-05,-3e-05,-5e-05,-5e-05,-0.00048,-0.00031,0.00022,-0.00063,6,11
30211,-3e-05,-3e-05,-5e-05,-5e-05,-0.00048,-0.00031,0.00022,-0.00063,6,11
30212,-3e-05,-3e-05,-5e-05,-5e-05,-0.00048,-0.00031,0.00022,-0.00063,6,11
30213,-3e-05,-3e-05,-5e-05,-5e-05,-0.00048,-0.00031,0.00022,-0.00063,6,11
30214,-3e-05,-3e-05,-5e-05,-5e-05,-0.00048,-0.00031,0.00022,-0.00063,6,11
30215,-3e-05,-3e-05,-5e-05,-5e-05,-0.00048,-0.00031,0.00022,-0.00063,6,11
30216,4e-05,-1e-05,0,0.00013,0.00101,-0.0004,1e-05,0.0007,6,11
30217,0,-4e-05,0,-6e-05,-0.00083,0.0008,0.00011,-0.00057,6,11
30218,0,-4e-05,0,-6e-05,-0.00083,0.0008,0.00011,-0.00057,6,11
30219,0,-4e-05,0,-6e-05,-0.00083,0.0008,0.00011,-0.00057,6,11
30220,0,-4e-05,0,-6e-05,-0.00083,0.0008,0.00011,-0.00057,6,11
30221,0,-4e-05,0,-6e-05,-0.00083,0.0008,0.00011,-0.00057,6,11
30222,0,-4e-05,0,-6e-05,-0.00083,0.0008,0.00011,-0.00057,6,11
30223,0,-4e-05,0,-6e-05,-0.00083,0.0008,0.00011,-0.00057,6,11
30224,0,-4e-05,0,-6e-05,-0.00083,0.0008,0.00011,-0.00057,6,11
30225,0,-4e-05,0,-6e-05,-0.00083,0.0008,0.00011,-0.00057,6,11
30226,0,-4e-05,0,-6e-05,-0.00083,0.0008,0.00011,-0.00057,6,11
30227,0,-4e-05,0,-6e-05,-0.00083,0.0008,0.00011,-0.00057,6,11
30228,0,-4e-05,0,-6e-05,-0.00083,0.0008,0.00011,-0.00057,6,11
30229,0,-4e-05,0,-6e-05,-0.00083,0.0008,0.00011,-0.00057,6,11
30230,0,-4e-05,0,-6e-05,-0.00083,0.0008,0.00011,-0.00057,6,11
30231,0,-4e-05,0,-6e-05,-0.00083,0.0008,0.00011,-0.00057,6,11
30232,0,-4e-05,0,-6e-05,-0.00083,0.0008,0.00011,-0.00057,6,11
30233,-8e-05,0,2e-05,-1e-05,-0.00036,-0.00102,-0.00052,-0.0005,6,11
30234,-8e-05,0,2e-05,-1e-05,-0.00036,-0.00102,-0.00052,-0.0005,6,11
30235,-8e-05,0,2e-05,-1e-05,-0.00036,-0.00102,-0.00052,-0.0005,6,11
30236,-8e-05,0,2e-05,-1e-05,-0.00036,-0.00102,-0.00052,-0.0005,6,11
30238,-8e-05,0,2e-05,-1e-05,-0.00036,-0.00102,-0.00052,-0.0005,6,11
30239,-8e-05,0,2e-05,-1e-05,-0.00036,-0.00102,-0.00052,-0.0005,6,11
30240,9e-05,8e-05,0.00011,9e-05,0.00015,0.00055,0.00017,-0.00016,6,11
30241,-5e-05,-0.0001,-0.00013,-3e-05,0.00047,-0.00049,-9e-05,-0.00012,6,11
30242,-1e-05,4e-05,5e-05,6e-05,-0.00013,-0.00044,-0.00017,-0.00079,6,11
30243,-1e-05,4e-05,5e-05,6e-05,-0.00013,-0.00044,-0.00017,-0.00079,6,11
30244,-1e-05,4e-05,5e-05,6e-05,-0.00013,-0.00044,-0.00017,-0.00079,6,11
30245,-1e-05,4e-05,5e-05,6e-05,-0.00013,-0.00044,-0.00017,-0.00079,6,11
30246,-1e-05,4e-05,5e-05,6e-05,-0.00013,-0.00044,-0.00017,-0.00079,6,11
30247,-1e-05,4e-05,5e-05,6e-05,-0.00013,-0.00044,-0.00017,-0.00079,6,11
30248,-1e-05,4e-05,5e-05,6e-05,-0.00013,-0.00044,-0.00017,-0.00079,6,11
30249,-1e-05,4e-05,5e-05,6e-05,-0.00013,-0.00044,-0.00017,-0.00079,6,11
30250,-1e-05,4e-05,5e-05,6e-05,-0.00013,-0.00044,-0.00017,-0.00079,6,11
30251,-1e-05,4e-05,5e-05,6e-05,-0.00013,-0.00044,-0.00017,-0.00079,6,11
30252,-1e-05,4e-05,5e-05,6e-05,-0.00013,-0.00044,-0.00017,-0.00079,6,11
30253,-1e-05,4e-05,5e-05,6e-05,-0.00013,-0.00044,-0.00017,-0.00079,6,11
30254,-1e-05,4e-05,5e-05,6e-05,-0.00013,-0.00044,-0.00017,-0.00079,6,11
30255,-1e-05,4e-05,5e-05,6e-05,-0.00013,-0.00044,-0.00017,-0.00079,6,11
30256,-1e-05,4e-05,5e-05,6e-05,-0.00013,-0.00044,-0.00017,-0.00079,6,11
30257,-1e-05,4e-05,5e-05,6e-05,-0.00013,-0.00044,-0.00017,-0.00079,6,11
30258,-1e-05,4e-05,5e-05,6e-05,-0.00013,-0.00044,-0.00017,-0.00079,6,11
30259,-1e-05,4e-05,5e-05,6e-05,-0.00013,-0.00044,-0.00017,-0.00079,6,11
30260,-1e-05,4e-05,5e-05,6e-05,-0.00013,-0.00044,-0.00017,-0.00079,6,11
30261,-1e-05,4e-05,5e-05,6e-05,-0.00013,-0.00044,-0.00017,-0.00079,6,11
30262,-1e-05,4e-05,5e-05,6e-05,-0.00013,-0.00044,-0.00017,-0.00079,6,11
30263,-2e-05,2e-05,-1e-05,-2e-05,-5e-05,0.00036,0.00021,0.00022,6,11
30264,7e-05,1e-05,0,1e-05,7e-05,-0.0002,4e-05,0.00041,6,11
30265,-3e-05,-4e-05,-3e-05,-2e-05,2e-05,-0.00028,0.00013,0.00064,6,11
30266,-3e-05,-4e-05,-3e-05,-2e-05,2e-05,-0.00028,0.00013,0.00064,6,11
30267,-3e-05,-4e-05,-3e-05,-2e-05,2e-05,-0.00028,0.00013,0.00064,6,11
30268,-3e-05,-4e-05,-3e-05,-2e-05,2e-05,-0.00028,0.00013,0.00064,6,11
30269,-3e-05,-4e-05,-3e-05,-2e-05,2e-05,-0.00028,0.00013,0.00064,6,11
30270,-3e-05,-4e-05,-3e-05,-2e-05,2e-05,-0.00028,0.00013,0.00064,6,11
30271,-3e-05,-4e-05,-3e-05,-2e-05,2e-05,-0.00028,0.00013,0.00064,6,11
30272,-3e-05,-4e-05,-3e-05,-2e-05,2e-05,-0.00028,0.00013,0.00064,6,11
30273,-3e-05,-4e-05,-3e-05,-2e-05,2e-05,-0.00028,0.00013,0.00064,6,11
30274,-3e-05,-4e-05,-3e-05,-2e-05,2e-05,-0.00028,0.00013,0.00064,6,11
30275,-3e-05,-4e-05,-3e-05,-2e-05,2e-05,-0.00028,0.00013,0.00064,6,11
30276,-3e-05,-4e-05,-3e-05,-2e-05,2e-05,-0.00028,0.00013,0.00064,6,11
30277,3e-05,-3e-05,-4e-05,-0.00014,-0.00074,0.00044,3e-05,-8e-05,6,11
30278,3e-05,-3e-05,-4e-05,-0.00014,-0.00074,0.00044,3e-05,-8e-05,6,11
30279,3e-05,-3e-05,-4e-05,-0.00014,-0.00074,0.00044,3e-05,-8e-05,6,11
30280,3e-05,-3e-05,-4e-05,-0.00014,-0.00074,0.00044,3e-05,-8e-05,6,11
30281,3e-05,-3e-05,-4e-05,-0.00014,-0.00074,0.00044,3e-05,-8e-05,6,11
30282,3e-05,-3e-05,-4e-05,-0.00014,-0.00074,0.00044,3e-05,-8e-05,6,11
30283,3e-05,-3e-05,-4e-05,-0.00014,-0.00074,0.00044,3e-05,-8e-05,6,11
30284,3e-05,-3e-05,-4e-05,-0.00014,-0.00074,0.00044,3e-05,-8e-05,6,11
30285,3e-05,-3e-05,-4e-05,-0.00014,-0.00074,0.00044,3e-05,-8e-05,6,11
66984,0.00024,-1e-05,-2e-05,-0.0001,0.00017,-0.00034,-0.0004,0.00127,6,11
66985,0.00024,-1e-05,-2e-05,-0.0001,0.00017,-0.00034,-0.0004,0.00127,6,11
66986,0.00024,-1e-05,-2e-05,-0.0001,0.00017,-0.00034,-0.0004,0.00127,6,11
66988,0.00024,-1e-05,-2e-05,-0.0001,0.00017,-0.00034,-0.0004,0.00127,6,11
66989,0.00024,-1e-05,-2e-05,-0.0001,0.00017,-0.00034,-0.0004,0.00127,6,11
66990,0.00024,-1e-05,-2e-05,-0.0001,0.00017,-0.00034,-0.0004,0.00127,6,11
66991,0.00024,-1e-05,-2e-05,-0.0001,0.00017,-0.00034,-0.0004,0.00127,6,11
66992,0.00024,-1e-05,-2e-05,-0.0001,0.00017,-0.00034,-0.0004,0.00127,6,11
66993,0.00024,-1e-05,-2e-05,-0.0001,0.00017,-0.00034,-0.0004,0.00127,6,11
66994,0.00024,-1e-05,-2e-05,-0.0001,0.00017,-0.00034,-0.0004,0.00127,6,11
66995,0.00024,-1e-05,-2e-05,-0.0001,0.00017,-0.00034,-0.0004,0.00127,6,11
66996,0.00024,-1e-05,-2e-05,-0.0001,0.00017,-0.00034,-0.0004,0.00127,6,11
66997,0.00024,-1e-05,-2e-05,-0.0001,0.00017,-0.00034,-0.0004,0.00127,6,11
66998,-0.0003,0,1e-05,-9e-05,-0.00011,0.00011,-9e-05,-8e-05,6,11
66999,-0.0003,0,1e-05,-9e-05,-0.00011,0.00011,-9e-05,-8e-05,6,11
67000,-0.00016,1e-05,2e-05,0.00017,0.00012,2e-05,0.00019,-0.00052,6,11
67001,-0.00016,1e-05,2e-05,0.00017,0.00012,2e-05,0.00019,-0.00052,6,11
67002,-0.00016,1e-05,2e-05,0.00017,0.00012,2e-05,0.00019,-0.00052,6,11
67003,-0.00016,1e-05,2e-05,0.00017,0.00012,2e-05,0.00019,-0.00052,6,11
67004,-0.00016,1e-05,2e-05,0.00017,0.00012,2e-05,0.00019,-0.00052,6,11
67005,-0.00016,1e-05,2e-05,0.00017,0.00012,2e-05,0.00019,-0.00052,6,11
67006,-0.00016,1e-05,2e-05,0.00017,0.00012,2e-05,0.00019,-0.00052,6,11
67007,-0.00016,1e-05,2e-05,0.00017,0.00012,2e-05,0.00019,-0.00052,6,11
67008,-0.00016,1e-05,2e-05,0.00017,0.00012,2e-05,0.00019,-0.00052,6,11
67009,-0.00016,1e-05,2e-05,0.00017,0.00012,2e-05,0.00019,-0.00052,6,11
67010,-0.00016,1e-05,2e-05,0.00017,0.00012,2e-05,0.00019,-0.00052,6,11
67011,-0.00016,1e-05,2e-05,0.00017,0.00012,2e-05,0.00019,-0.00052,6,11
67012,-0.00016,1e-05,2e-05,0.00017,0.00012,2e-05,0.00019,-0.00052,6,11
67013,-0.00016,1e-05,2e-05,0.00017,0.00012,2e-05,0.00019,-0.00052,6,11
67014,-0.00016,1e-05,2e-05,0.00017,0.00012,2e-05,0.00019,-0.00052,6,11
67015,-0.00016,1e-05,2e-05,0.00017,0.00012,2e-05,0.00019,-0.00052,6,11
67016,-0.00016,1e-05,2e-05,0.00017,0.00012,2e-05,0.00019,-0.00052,6,11
67017,-0.00016,1e-05,2e-05,0.00017,0.00012,2e-05,0.00019,-0.00052,6,11
67018,-0.00016,1e-05,2e-05,0.00017,0.00012,2e-05,0.00019,-0.00052,6,11
67019,-0.00016,1e-05,2e-05,0.00017,0.00012,2e-05,0.00019,-0.00052,6,11
67020,-0.00016,1e-05,2e-05,0.00017,0.00012,2e-05,0.00019,-0.00052,6,11
67021,0.0001,0.0001,9e-05,0.00025,0.00048,3e-05,0.00076,-0.00033,6,11
67022,-0.00019,-0.0001,-0.00013,-0.00028,0.00025,-0.00059,-0.0006,-0.00019,6,11
67024,-0.00019,-0.0001,-0.00013,-0.00028,0.00025,-0.00059,-0.0006,-0.00019,6,11
67025,-0.00019,-0.0001,-0.00013,-0.00028,0.00025,-0.00059,-0.0006,-0.00019,6,11
67026,-0.00019,-0.0001,-0.00013,-0.00028,0.00025,-0.00059,-0.0006,-0.00019,6,11
67027,-0.00019,-0.0001,-0.00013,-0.00028,0.00025,-0.00059,-0.0006,-0.00019,6,11
67028,-0.00019,-0.0001,-0.00013,-0.00028,0.00025,-0.00059,-0.0006,-0.00019,6,11
67029,-0.00019,-0.0001,-0.00013,-0.00028,0.00025,-0.00059,-0.0006,-0.00019,6,11
67030,-0.00019,-0.0001,-0.00013,-0.00028,0.00025,-0.00059,-0.0006,-0.00019,6,11
67032,-0.00019,-0.0001,-0.00013,-0.00028,0.00025,-0.00059,-0.0006,-0.00019,6,11
67033,-0.00019,-0.0001,-0.00013,-0.00028,0.00025,-0.00059,-0.0006,-0.00019,6,11
67034,-0.00019,-0.0001,-0.00013,-0.00028,0.00025,-0.00059,-0.0006,-0.00019,6,11
67035,-0.00015,-7e-05,-0.0001,-0.00013,0.00029,-0.00128,-0.00062,-0.00128,6,11
67036,-0.00015,-7e-05,-0.0001,-0.00013,0.00029,-0.00128,-0.00062,-0.00128,6,11
67038,-0.00015,-7e-05,-0.0001,-0.00013,0.00029,-0.00128,-0.00062,-0.00128,6,11
67039,-0.00015,-7e-05,-0.0001,-0.00013,0.00029,-0.00128,-0.00062,-0.00128,6,11
67040,-0.00015,-7e-05,-0.0001,-0.00013,0.00029,-0.00128,-0.00062,-0.00128,6,11
67041,-0.00015,-7e-05,-0.0001,-0.00013,0.00029,-0.00128,-0.00062,-0.00128,6,11
67042,6e-05,-2e-05,-6e-05,2e-05,0.00035,0.00046,0.00015,-0.00115,6,11
67043,6e-05,-2e-05,-6e-05,2e-05,0.00035,0.00046,0.00015,-0.00115,6,11
67044,6e-05,-2e-05,-6e-05,2e-05,0.00035,0.00046,0.00015,-0.00115,6,11
67045,6e-05,-2e-05,-6e-05,2e-05,0.00035,0.00046,0.00015,-0.00115,6,11
67046,6e-05,-2e-05,-6e-05,2e-05,0.00035,0.00046,0.00015,-0.00115,6,11
67047,6e-05,-2e-05,-6e-05,2e-05,0.00035,0.00046,0.00015,-0.00115,6,11
67048,6e-05,-2e-05,-6e-05,2e-05,0.00035,0.00046,0.00015,-0.00115,6,11
67049,6e-05,-2e-05,-6e-05,2e-05,0.00035,0.00046,0.00015,-0.00115,6,11
67050,6e-05,-2e-05,-6e-05,2e-05,0.00035,0.00046,0.00015,-0.00115,6,11
67051,6e-05,-2e-05,-6e-05,2e-05,0.00035,0.00046,0.00015,-0.00115,6,11
67052,6e-05,-2e-05,-6e-05,2e-05,0.00035,0.00046,0.00015,-0.00115,6,11
67053,6e-05,-2e-05,-6e-05,2e-05,0.00035,0.00046,0.00015,-0.00115,6,11
67054,6e-05,-2e-05,-6e-05,2e-05,0.00035,0.00046,0.00015,-0.00115,6,11
67055,6e-05,-2e-05,-6e-05,2e-05,0.00035,0.00046,0.00015,-0.00115,6,11
67056,6e-05,-2e-05,-6e-05,2e-05,0.00035,0.00046,0.00015,-0.00115,6,11
67057,6e-05,-2e-05,-6e-05,2e-05,0.00035,0.00046,0.00015,-0.00115,6,11
67058,-2e-05,-0.00011,-0.00015,-0.00014,0.00032,0.00035,-0.00012,-0.00044,6,11
67059,-2e-05,-0.00011,-0.00015,-0.00014,0.00032,0.00035,-0.00012,-0.00044,6,11
67060,-0.00026,-0.00017,-0.0002,-0.00031,-0.00065,-0.00109,-0.00063,-0.00072,6,11
67061,-0.00026,-0.00017,-0.0002,-0.00031,-0.00065,-0.00109,-0.00063,-0.00072,6,11
67062,-0.00026,-0.00017,-0.0002,-0.00031,-0.00065,-0.00109,-0.00063,-0.00072,6,11
67063,-0.00026,-0.00017,-0.0002,-0.00031,-0.00065,-0.00109,-0.00063,-0.00072,6,11
67064,-0.00026,-0.00017,-0.0002,-0.00031,-0.00065,-0.00109,-0.00063,-0.00072,6,11
67065,-0.00026,-0.00017,-0.0002,-0.00031,-0.00065,-0.00109,-0.00063,-0.00072,6,11
67066,-0.00026,-0.00017,-0.0002,-0.00031,-0.00065,-0.00109,-0.00063,-0.00072,6,11
67067,-0.00026,-0.00017,-0.0002,-0.00031,-0.00065,-0.00109,-0.00063,-0.00072,6,11
67068,-0.00026,-0.00017,-0.0002,-0.00031,-0.00065,-0.00109,-0.00063,-0.00072,6,11
67069,-0.00026,-0.00017,-0.0002,-0.00031,-0.00065,-0.00109,-0.00063,-0.00072,6,11
