31247,-8e-05,-3e-05,-2e-05,5e-05,7e-05,5e-05,8e-05,9e-05,6,12
31248,-8e-05,-3e-05,-2e-05,5e-05,7e-05,5e-05,8e-05,9e-05,6,12
31249,-8e-05,-3e-05,-2e-05,5e-05,7e-05,5e-05,8e-05,9e-05,6,12
31250,-8e-05,-3e-05,-2e-05,5e-05,7e-05,5e-05,8e-05,9e-05,6,12
31251,-8e-05,-3e-05,-2e-05,5e-05,7e-05,5e-05,8e-05,9e-05,6,12
31252,-8e-05,-3e-05,-2e-05,5e-05,7e-05,5e-05,8e-05,9e-05,6,12
31253,-8e-05,-3e-05,-2e-05,5e-05,7e-05,5e-05,8e-05,9e-05,6,12
31254,-0.00016,0,0,-4e-05,-0.0002,-0.00027,-0.00012,-0.00021,6,12
31255,-0.00016,0,0,-4e-05,-0.0002,-0.00027,-0.00012,-0.00021,6,12
31256,-0.00016,0,0,-4e-05,-0.0002,-0.00027,-0.00012,-0.00021,6,12
31257,-0.00016,0,0,-4e-05,-0.0002,-0.00027,-0.00012,-0.00021,6,12
31258,-0.00016,0,0,-4e-05,-0.0002,-0.00027,-0.00012,-0.00021,6,12
31259,-0.00016,0,0,-4e-05,-0.0002,-0.00027,-0.00012,-0.00021,6,12
31260,-0.00016,0,0,-4e-05,-0.0002,-0.00027,-0.00012,-0.00021,6,12
31261,-7e-05,-3e-05,-4e-05,-6e-05,-0.00016,-0.00015,-7e-05,-9e-05,6,12
31262,-7e-05,-3e-05,-4e-05,-6e-05,-0.00016,-0.00015,-7e-05,-9e-05,6,12
31263,-7e-05,-3e-05,-4e-05,-6e-05,-0.00016,-0.00015,-7e-05,-9e-05,6,12
31264,-7e-05,-3e-05,-4e-05,-6e-05,-0.00016,-0.00015,-7e-05,-9e-05,6,12
31265,-7e-05,-3e-05,-4e-05,-6e-05,-0.00016,-0.00015,-7e-05,-9e-05,6,12
31266,-7e-05,-3e-05,-4e-05,-6e-05,-0.00016,-0.00015,-7e-05,-9e-05,6,12
31267,-7e-05,-3e-05,-4e-05,-6e-05,-0.00016,-0.00015,-7e-05,-9e-05,6,12
31268,-7e-05,-3e-05,-4e-05,-6e-05,-0.00016,-0.00015,-7e-05,-9e-05,6,12
31269,-7e-05,-3e-05,-4e-05,-6e-05,-0.00016,-0.00015,-7e-05,-9e-05,6,12
31270,-7e-05,-3e-05,-4e-05,-6e-05,-0.00016,-0.00015,-7e-05,-9e-05,6,12
31271,-7e-05,-3e-05,-4e-05,-6e-05,-0.00016,-0.00015,-7e-05,-9e-05,6,12
31272,-7e-05,-3e-05,-4e-05,-6e-05,-0.00016,-0.00015,-7e-05,-9e-05,6,12
31273,-7e-05,-3e-05,-4e-05,-6e-05,-0.00016,-0.00015,-7e-05,-9e-05,6,12
31274,-7e-05,-3e-05,-4e-05,-6e-05,-0.00016,-0.00015,-7e-05,-9e-05,6,12
31275,-7e-05,-3e-05,-4e-05,-6e-05,-0.00016,-0.00015,-7e-05,-9e-05,6,12
31276,-7e-05,-3e-05,-4e-05,-6e-05,-0.00016,-0.00015,-7e-05,-9e-05,6,12
31277,-0.00021,-8e-05,-6e-05,-2e-05,-0.00015,-0.00054,3e-05,9e-05,6,12
31278,-0.00021,-8e-05,-6e-05,-2e-05,-0.00015,-0.00054,3e-05,9e-05,6,12
31279,0.00036,2e-05,-1e-05,-4e-05,-9e-05,0.00039,1e-05,0.00014,6,12
31280,0.00036,2e-05,-1e-05,-4e-05,-9e-05,0.00039,1e-05,0.00014,6,12
31281,0.00036,2e-05,-1e-05,-4e-05,-9e-05,0.00039,1e-05,0.00014,6,12
31282,0.00036,2e-05,-1e-05,-4e-05,-9e-05,0.00039,1e-05,0.00014,6,12
31283,0.00036,2e-05,-1e-05,-4e-05,-9e-05,0.00039,1e-05,0.00014,6,12
31284,0.00036,2e-05,-1e-05,-4e-05,-9e-05,0.00039,1e-05,0.00014,6,12
31285,0.00036,2e-05,-1e-05,-4e-05,-9e-05,0.00039,1e-05,0.00014,6,12
31286,0.00036,2e-05,-1e-05,-4e-05,-9e-05,0.00039,1e-05,0.00014,6,12
31288,0.00036,2e-05,-1e-05,-4e-05,-9e-05,0.00039,1e-05,0.00014,6,12
31289,0.00036,2e-05,-1e-05,-4e-05,-9e-05,0.00039,1e-05,0.00014,6,12
31290,0.00036,2e-05,-1e-05,-4e-05,-9e-05,0.00039,1e-05,0.00014,6,12
31291,0.00036,2e-05,-1e-05,-4e-05,-9e-05,0.00039,1e-05,0.00014,6,12
31292,0.00036,2e-05,-1e-05,-4e-05,-9e-05,0.00039,1e-05,0.00014,6,12
31293,0.00036,2e-05,-1e-05,-4e-05,-9e-05,0.00039,1e-05,0.00014,6,12
31294,0.00036,2e-05,-1e-05,-4e-05,-9e-05,0.00039,1e-05,0.00014,6,12
31295,0.00036,2e-05,-1e-05,-4e-05,-9e-05,0.00039,1e-05,0.00014,6,12
31296,0.00036,2e-05,-1e-05,-4e-05,-9e-05,0.00039,1e-05,0.00014,6,12
31297,0.00036,2e-05,-1e-05,-4e-05,-9e-05,0.00039,1e-05,0.00014,6,12
31298,0.00036,2e-05,-1e-05,-4e-05,-9e-05,0.00039,1e-05,0.00014,6,12
31299,0.00036,2e-05,-1e-05,-4e-05,-9e-05,0.00039,1e-05,0.00014,6,12
31300,-6e-05,3e-05,4e-05,2e-05,8e-05,0.00013,1e-05,0.00021,6,12
31301,-5e-05,-4e-05,-5e-05,-7e-05,8e-05,-6e-05,1e-05,3e-05,6,12
31302,-5e-05,-4e-05,-5e-05,-7e-05,8e-05,-6e-05,1e-05,3e-05,6,12
31303,-5e-05,-4e-05,-5e-05,-7e-05,8e-05,-6e-05,1e-05,3e-05,6,12
31304,-5e-05,-4e-05,-5e-05,-7e-05,8e-05,-6e-05,1e-05,3e-05,6,12
31305,-5e-05,-4e-05,-5e-05,-7e-05,8e-05,-6e-05,1e-05,3e-05,6,12
31306,-5e-05,-4e-05,-5e-05,-7e-05,8e-05,-6e-05,1e-05,3e-05,6,12
31307,-5e-05,-4e-05,-5e-05,-7e-05,8e-05,-6e-05,1e-05,3e-05,6,12
31308,-5e-05,-4e-05,-5e-05,-7e-05,8e-05,-6e-05,1e-05,3e-05,6,12
31309,-5e-05,-4e-05,-5e-05,-7e-05,8e-05,-6e-05,1e-05,3e-05,6,12
31310,-5e-05,-4e-05,-5e-05,-7e-05,8e-05,-6e-05,1e-05,3e-05,6,12
31311,-5e-05,-4e-05,-5e-05,-7e-05,8e-05,-6e-05,1e-05,3e-05,6,12
31312,-5e-05,-4e-05,-5e-05,-7e-05,8e-05,-6e-05,1e-05,3e-05,6,12
31313,-5e-05,-4e-05,-5e-05,-7e-05,8e-05,-6e-05,1e-05,3e-05,6,12
31314,-9e-05,-5e-05,-4e-05,-7e-05,-0.00022,-0.00045,-0.00013,-0.0002,6,12
31315,-9e-05,-5e-05,-4e-05,-7e-05,-0.00022,-0.00045,-0.00013,-0.0002,6,12
31316,-9e-05,-5e-05,-4e-05,-7e-05,-0.00022,-0.00045,-0.00013,-0.0002,6,12
31317,-9e-05,-5e-05,-4e-05,-7e-05,-0.00022,-0.00045,-0.00013,-0.0002,6,12
31318,-9e-05,-5e-05,-4e-05,-7e-05,-0.00022,-0.00045,-0.00013,-0.0002,6,12
31319,-9e-05,-5e-05,-4e-05,-7e-05,-0.00022,-0.00045,-0.00013,-0.0002,6,12
31320,-9e-05,-5e-05,-4e-05,-7e-05,-0.00022,-0.00045,-0.00013,-0.0002,6,12
31321,-0.00011,-2e-05,-1e-05,-6e-05,-5e-05,-0.00057,-8e-05,-3e-05,6,12
31322,-0.00011,-2e-05,-1e-05,-6e-05,-5e-05,-0.00057,-8e-05,-3e-05,6,12
31323,-0.00011,-2e-05,-1e-05,-6e-05,-5e-05,-0.00057,-8e-05,-3e-05,6,12
31324,-0.00011,-2e-05,-1e-05,-6e-05,-5e-05,-0.00057,-8e-05,-3e-05,6,12
31325,-0.00011,-2e-05,-1e-05,-6e-05,-5e-05,-0.00057,-8e-05,-3e-05,6,12
31326,-0.00011,-2e-05,-1e-05,-6e-05,-5e-05,-0.00057,-8e-05,-3e-05,6,12
31327,-0.00011,-2e-05,-1e-05,-6e-05,-5e-05,-0.00057,-8e-05,-3e-05,6,12
31328,-0.00011,-2e-05,-1e-05,-6e-05,-5e-05,-0.00057,-8e-05,-3e-05,6,12
31329,-0.00011,-2e-05,-1e-05,-6e-05,-5e-05,-0.00057,-8e-05,-3e-05,6,12
31330,-0.00011,-2e-05,-1e-05,-6e-05,-5e-05,-0.00057,-8e-05,-3e-05,6,12
31331,-0.00011,-2e-05,-1e-05,-6e-05,-5e-05,-0.00057,-8e-05,-3e-05,6,12
31332,-0.00011,-2e-05,-1e-05,-6e-05,-5e-05,-0.00057,-8e-05,-3e-05,6,12
31333,-0.00011,-2e-05,-1e-05,-6e-05,-5e-05,-0.00057,-8e-05,-3e-05,6,12
31334,-0.00011,-2e-05,-1e-05,-6e-05,-5e-05,-0.00057,-8e-05,-3e-05,6,12
31335,-0.00011,-2e-05,-1e-05,-6e-05,-5e-05,-0.00057,-8e-05,-3e-05,6,12
31336,-0.00011,-2e-05,-1e-05,-6e-05,-5e-05,-0.00057,-8e-05,-3e-05,6,12
31339,-7e-05,-1e-05,-1e-05,8e-05,0.00013,-4e-05,-0.00013,8e-05,6,12
31340,-7e-05,-1e-05,-1e-05,8e-05,0.00013,-4e-05,-0.00013,8e-05,6,12
31341,-7e-05,-1e-05,-1e-05,8e-05,0.00013,-4e-05,-0.00013,8e-05,6,12
31342,-7e-05,-1e-05,-1e-05,8e-05,0.00013,-4e-05,-0.00013,8e-05,6,12
31343,-7e-05,-1e-05,-1e-05,8e-05,0.00013,-4e-05,-0.00013,8e-05,6,12
31344,-7e-05,-1e-05,-1e-05,8e-05,0.00013,-4e-05,-0.00013,8e-05,6,12
31345,-7e-05,-1e-05,-1e-05,8e-05,0.00013,-4e-05,-0.00013,8e-05,6,12
31346,-7e-05,-1e-05,-1e-05,8e-05,0.00013,-4e-05,-0.00013,8e-05,6,12
31347,-7e-05,-1e-05,-1e-05,8e-05,0.00013,-4e-05,-0.00013,8e-05,6,12
31348,-7e-05,-1e-05,-1e-05,8e-05,0.00013,-4e-05,-0.00013,8e-05,6,12
31349,-7e-05,-1e-05,-1e-05,8e-05,0.00013,-4e-05,-0.00013,8e-05,6,12
31350,-7e-05,-1e-05,-1e-05,8e-05,0.00013,-4e-05,-0.00013,8e-05,6,12
31351,-7e-05,-1e-05,-1e-05,8e-05,0.00013,-4e-05,-0.00013,8e-05,6,12
31352,-7e-05,-1e-05,-1e-05,8e-05,0.00013,-4e-05,-0.00013,8e-05,6,12
31353,-7e-05,-1e-05,-1e-05,8e-05,0.00013,-4e-05,-0.00013,8e-05,6,12
31354,-7e-05,-1e-05,-1e-05,8e-05,0.00013,-4e-05,-0.00013,8e-05,6,12
31355,-7e-05,-1e-05,-1e-05,8e-05,0.00013,-4e-05,-0.00013,8e-05,6,12
31356,-7e-05,-1e-05,-1e-05,8e-05,0.00013,-4e-05,-0.00013,8e-05,6,12
31357,-7e-05,-1e-05,-1e-05,8e-05,0.00013,-4e-05,-0.00013,8e-05,6,12
31358,-7e-05,-1e-05,-1e-05,8e-05,0.00013,-4e-05,-0.00013,8e-05,6,12
31359,-7e-05,-1e-05,-1e-05,8e-05,0.00013,-4e-05,-0.00013,8e-05,6,12
31360,7e-05,0,-1e-05,-1e-05,-0.0002,-0.00063,0.00011,0.00012,6,12
31361,-1e-05,-1e-05,0,3e-05,0,8e-05,0,0.00013,6,12
31362,-1e-05,-1e-05,0,3e-05,0,8e-05,0,0.00013,6,12
31363,-1e-05,-1e-05,0,3e-05,0,8e-05,0,0.00013,6,12
31364,-1e-05,-1e-05,0,3e-05,0,8e-05,0,0.00013,6,12
31365,-1e-05,-1e-05,0,3e-05,0,8e-05,0,0.00013,6,12
31366,-1e-05,-1e-05,0,3e-05,0,8e-05,0,0.00013,6,12
31367,-1e-05,-1e-05,0,3e-05,0,8e-05,0,0.00013,6,12
31368,-1e-05,-1e-05,0,3e-05,0,8e-05,0,0.00013,6,12
31369,-1e-05,-1e-05,0,3e-05,0,8e-05,0,0.00013,6,12
31370,-1e-05,-1e-05,0,3e-05,0,8e-05,0,0.00013,6,12
31371,-1e-05,-1e-05,0,3e-05,0,8e-05,0,0.00013,6,12
31372,-1e-05,-1e-05,0,3e-05,0,8e-05,0,0.00013,6,12
31373,-1e-05,-1e-05,0,3e-05,0,8e-05,0,0.00013,6,12
31374,-0.00022,-4e-05,-4e-05,-1e-05,8e-05,9e-05,-0.00015,-0.00018,6,12
31375,-0.00022,-4e-05,-4e-05,-1e-05,8e-05,9e-05,-0.00015,-0.00018,6,12
31376,-0.00022,-4e-05,-4e-05,-1e-05,8e-05,9e-05,-0.00015,-0.00018,6,12
31377,-0.00022,-4e-05,-4e-05,-1e-05,8e-05,9e-05,-0.00015,-0.00018,6,12
31378,-0.00022,-4e-05,-4e-05,-1e-05,8e-05,9e-05,-0.00015,-0.00018,6,12
31379,-0.00022,-4e-05,-4e-05,-1e-05,8e-05,9e-05,-0.00015,-0.00018,6,12
31380,-0.00022,-4e-05,-4e-05,-1e-05,8e-05,9e-05,-0.00015,-0.00018,6,12
31381,-2e-05,2e-05,4e-05,8e-05,0.0001,0.00023,0.00011,-8e-05,6,12
31382,-2e-05,2e-05,4e-05,8e-05,0.0001,0.00023,0.00011,-8e-05,6,12
31384,-2e-05,2e-05,4e-05,8e-05,0.0001,0.00023,0.00011,-8e-05,6,12
31385,-2e-05,2e-05,4e-05,8e-05,0.0001,0.00023,0.00011,-8e-05,6,12
31386,-2e-05,2e-05,4e-05,8e-05,0.0001,0.00023,0.00011,-8e-05,6,12
31388,-2e-05,2e-05,4e-05,8e-05,0.0001,0.00023,0.00011,-8e-05,6,12
31389,-2e-05,2e-05,4e-05,8e-05,0.0001,0.00023,0.00011,-8e-05,6,12
31390,-2e-05,2e-05,4e-05,8e-05,0.0001,0.00023,0.00011,-8e-05,6,12
31391,-2e-05,2e-05,4e-05,8e-05,0.0001,0.00023,0.00011,-8e-05,6,12
31392,-2e-05,2e-05,4e-05,8e-05,0.0001,0.00023,0.00011,-8e-05,6,12
31393,-2e-05,2e-05,4e-05,8e-05,0.0001,0.00023,0.00011,-8e-05,6,12
31394,-2e-05,2e-05,4e-05,8e-05,0.0001,0.00023,0.00011,-8e-05,6,12
31395,-2e-05,2e-05,4e-05,8e-05,0.0001,0.00023,0.00011,-8e-05,6,12
31396,-2e-05,2e-05,4e-05,8e-05,0.0001,0.00023,0.00011,-8e-05,6,12
31397,0.0001,-1e-05,-2e-05,-0.0001,-0.0002,0.0006,2e-05,0.00011,6,12
31398,0.0001,-1e-05,-2e-05,-0.0001,-0.0002,0.0006,2e-05,0.00011,6,12
31399,-4e-05,-7e-05,-7e-05,-0.0001,-0.00029,-0.00021,-0.00016,-0.00018,6,12
31400,-4e-05,-7e-05,-7e-05,-0.0001,-0.00029,-0.00021,-0.00016,-0.00018,6,12
31401,-4e-05,-7e-05,-7e-05,-0.0001,-0.00029,-0.00021,-0.00016,-0.00018,6,12
31402,-4e-05,-7e-05,-7e-05,-0.0001,-0.00029,-0.00021,-0.00016,-0.00018,6,12
31403,-4e-05,-7e-05,-7e-05,-0.0001,-0.00029,-0.00021,-0.00016,-0.00018,6,12
31404,-4e-05,-7e-05,-7e-05,-0.0001,-0.00029,-0.00021,-0.00016,-0.00018,6,12
31405,-4e-05,-7e-05,-7e-05,-0.0001,-0.00029,-0.00021,-0.00016,-0.00018,6,12
31406,-4e-05,-7e-05,-7e-05,-0.0001,-0.00029,-0.00021,-0.00016,-0.00018,6,12
31407,-4e-05,-7e-05,-7e-05,-0.0001,-0.00029,-0.00021,-0.00016,-0.00018,6,12
31408,-4e-05,-7e-05,-7e-05,-0.0001,-0.00029,-0.00021,-0.00016,-0.00018,6,12
31409,-4e-05,-7e-05,-7e-05,-0.0001,-0.00029,-0.00021,-0.00016,-0.00018,6,12
31410,-4e-05,-7e-05,-7e-05,-0.0001,-0.00029,-0.00021,-0.00016,-0.00018,6,12
31411,-4e-05,-7e-05,-7e-05,-0.0001,-0.00029,-0.00021,-0.00016,-0.00018,6,12
31412,-4e-05,-7e-05,-7e-05,-0.0001,-0.00029,-0.00021,-0.00016,-0.00018,6,12
31413,-4e-05,-7e-05,-7e-05,-0.0001,-0.00029,-0.00021,-0.00016,-0.00018,6,12
31414,-4e-05,-7e-05,-7e-05,-0.0001,-0.00029,-0.00021,-0.00016,-0.00018,6,12
31415,-4e-05,-7e-05,-7e-05,-0.0001,-0.00029,-0.00021,-0.00016,-0.00018,6,12
31416,-4e-05,-7e-05,-7e-05,-0.0001,-0.00029,-0.00021,-0.00016,-0.00018,6,12
31417,-4e-05,-7e-05,-7e-05,-0.0001,-0.00029,-0.00021,-0.00016,-0.00018,6,12
31418,-4e-05,-7e-05,-7e-05,-0.0001,-0.00029,-0.00021,-0.00016,-0.00018,6,12
31419,-4e-05,-7e-05,-7e-05,-0.0001,-0.00029,-0.00021,-0.00016,-0.00018,6,12
31420,3e-05,1e-05,0,-2e-05,-0.00019,9e-05,-1e-05,0.0001,6,12
31421,0,3e-05,3e-05,2e-05,-9e-05,-0.00027,0.00011,2e-05,6,12
31422,0,3e-05,3e-05,2e-05,-9e-05,-0.00027,0.00011,2e-05,6,12
31423,0,3e-05,3e-05,2e-05,-9e-05,-0.00027,0.00011,2e-05,6,12
31424,0,3e-05,3e-05,2e-05,-9e-05,-0.00027,0.00011,2e-05,6,12
31425,0,3e-05,3e-05,2e-05,-9e-05,-0.00027,0.00011,2e-05,6,12
31426,0,3e-05,3e-05,2e-05,-9e-05,-0.00027,0.00011,2e-05,6,12
31427,0,3e-05,3e-05,2e-05,-9e-05,-0.00027,0.00011,2e-05,6,12
31428,0,3e-05,3e-05,2e-05,-9e-05,-0.00027,0.00011,2e-05,6,12
31429,0,3e-05,3e-05,2e-05,-9e-05,-0.00027,0.00011,2e-05,6,12
31430,0,3e-05,3e-05,2e-05,-9e-05,-0.00027,0.00011,2e-05,6,12
31431,0,3e-05,3e-05,2e-05,-9e-05,-0.00027,0.00011,2e-05,6,12
31432,0,3e-05,3e-05,2e-05,-9e-05,-0.00027,0.00011,2e-05,6,12
31433,0,3e-05,3e-05,2e-05,-9e-05,-0.00027,0.00011,2e-05,6,12
31434,8e-05,-1e-05,-3e-05,-5e-05,-7e-05,-0.00016,-1e-05,0.00012,6,12
31435,-0.00016,-6e-05,-5e-05,-3e-05,-0.0001,0.00014,-0.00021,-0.00037,6,12
31436,-0.00016,-6e-05,-5e-05,-3e-05,-0.0001,0.00014,-0.00021,-0.00037,6,12
31438,-0.00016,-6e-05,-5e-05,-3e-05,-0.0001,0.00014,-0.00021,-0.00037,6,12
31439,-0.00016,-6e-05,-5e-05,-3e-05,-0.0001,0.00014,-0.00021,-0.00037,6,12
31440,-0.00016,-6e-05,-5e-05,-3e-05,-0.0001,0.00014,-0.00021,-0.00037,6,12
31441,0.0001,1e-05,0,-3e-05,0.0001,0.00027,0.0001,1e-05,6,12
31442,0.0001,1e-05,0,-3e-05,0.0001,0.00027,0.0001,1e-05,6,12
31443,0.0001,1e-05,0,-3e-05,0.0001,0.00027,0.0001,1e-05,6,12
31444,0.0001,1e-05,0,-3e-05,0.0001,0.00027,0.0001,1e-05,6,12
31445,0.0001,1e-05,0,-3e-05,0.0001,0.00027,0.0001,1e-05,6,12
31446,0.0001,1e-05,0,-3e-05,0.0001,0.00027,0.0001,1e-05,6,12
31447,0.0001,1e-05,0,-3e-05,0.0001,0.00027,0.0001,1e-05,6,12
31448,0.0001,1e-05,0,-3e-05,0.0001,0.00027,0.0001,1e-05,6,12
31449,0.0001,1e-05,0,-3e-05,0.0001,0.00027,0.0001,1e-05,6,12
31450,0.0001,1e-05,0,-3e-05,0.0001,0.00027,0.0001,1e-05,6,12
31451,0.0001,1e-05,0,-3e-05,0.0001,0.00027,0.0001,1e-05,6,12
31452,0.0001,1e-05,0,-3e-05,0.0001,0.00027,0.0001,1e-05,6,12
31453,0.0001,1e-05,0,-3e-05,0.0001,0.00027,0.0001,1e-05,6,12
31454,0.0001,1e-05,0,-3e-05,0.0001,0.00027,0.0001,1e-05,6,12
31455,0.0001,1e-05,0,-3e-05,0.0001,0.00027,0.0001,1e-05,6,12
31456,0.0001,1e-05,0,-3e-05,0.0001,0.00027,0.0001,1e-05,6,12
31457,4e-05,1e-05,0,1e-05,-3e-05,0.00018,6e-05,0.00011,6,12
31458,4e-05,1e-05,0,1e-05,-3e-05,0.00018,6e-05,0.00011,6,12
31459,-7e-05,-1e-05,-1e-05,1e-05,0.0002,-8e-05,-7e-05,-6e-05,6,12
31460,-7e-05,-1e-05,-1e-05,1e-05,0.0002,-8e-05,-7e-05,-6e-05,6,12
31461,-7e-05,-1e-05,-1e-05,1e-05,0.0002,-8e-05,-7e-05,-6e-05,6,12
31462,-7e-05,-1e-05,-1e-05,1e-05,0.0002,-8e-05,-7e-05,-6e-05,6,12
31463,-7e-05,-1e-05,-1e-05,1e-05,0.0002,-8e-05,-7e-05,-6e-05,6,12
31464,-7e-05,-1e-05,-1e-05,1e-05,0.0002,-8e-05,-7e-05,-6e-05,6,12
31465,-7e-05,-1e-05,-1e-05,1e-05,0.0002,-8e-05,-7e-05,-6e-05,6,12
31466,-7e-05,-1e-05,-1e-05,1e-05,0.0002,-8e-05,-7e-05,-6e-05,6,12
31467,-7e-05,-1e-05,-1e-05,1e-05,0.0002,-8e-05,-7e-05,-6e-05,6,12
31468,-7e-05,-1e-05,-1e-05,1e-05,0.0002,-8e-05,-7e-05,-6e-05,6,12
31469,-7e-05,-1e-05,-1e-05,1e-05,0.0002,-8e-05,-7e-05,-6e-05,6,12
31470,-7e-05,-1e-05,-1e-05,1e-05,0.0002,-8e-05,-7e-05,-6e-05,6,12
31471,-7e-05,-1e-05,-1e-05,1e-05,0.0002,-8e-05,-7e-05,-6e-05,6,12
31472,-7e-05,-1e-05,-1e-05,1e-05,0.0002,-8e-05,-7e-05,-6e-05,6,12
31473,-7e-05,-1e-05,-1e-05,1e-05,0.0002,-8e-05,-7e-05,-6e-05,6,12
31474,-7e-05,-1e-05,-1e-05,1e-05,0.0002,-8e-05,-7e-05,-6e-05,6,12
31475,-7e-05,-1e-05,-1e-05,1e-05,0.0002,-8e-05,-7e-05,-6e-05,6,12
31476,-7e-05,-1e-05,-1e-05,1e-05,0.0002,-8e-05,-7e-05,-6e-05,6,12
31477,-7e-05,-1e-05,-1e-05,1e-05,0.0002,-8e-05,-7e-05,-6e-05,6,12
31478,-7e-05,-1e-05,-1e-05,1e-05,0.0002,-8e-05,-7e-05,-6e-05,6,12
31479,-7e-05,-1e-05,-1e-05,1e-05,0.0002,-8e-05,-7e-05,-6e-05,6,12
31480,0.00013,-2e-05,1e-05,0.0001,0.0003,0,1e-05,0.00018,6,12
31481,-5e-05,-2e-05,-4e-05,-6e-05,-6e-05,0.0002,3e-05,-0.00015,6,12
31483,-5e-05,-2e-05,-4e-05,-6e-05,-6e-05,0.0002,3e-05,-0.00015,6,12
31484,-5e-05,-2e-05,-4e-05,-6e-05,-6e-05,0.0002,3e-05,-0.00015,6,12
31485,-5e-05,-2e-05,-4e-05,-6e-05,-6e-05,0.0002,3e-05,-0.00015,6,12
31486,-5e-05,-2e-05,-4e-05,-6e-05,-6e-05,0.0002,3e-05,-0.00015,6,12
31488,-5e-05,-2e-05,-4e-05,-6e-05,-6e-05,0.0002,3e-05,-0.00015,6,12
31489,-5e-05,-2e-05,-4e-05,-6e-05,-6e-05,0.0002,3e-05,-0.00015,6,12
31490,-5e-05,-2e-05,-4e-05,-6e-05,-6e-05,0.0002,3e-05,-0.00015,6,12
31491,-5e-05,-2e-05,-4e-05,-6e-05,-6e-05,0.0002,3e-05,-0.00015,6,12
31492,-5e-05,-2e-05,-4e-05,-6e-05,-6e-05,0.0002,3e-05,-0.00015,6,12
31493,-5e-05,-2e-05,-4e-05,-6e-05,-6e-05,0.0002,3e-05,-0.00015,6,12
31494,-9e-05,-1e-05,-1e-05,0,0.00037,-0.00044,-2e-05,-0.00018,6,12
31495,-9e-05,-1e-05,-1e-05,0,0.00037,-0.00044,-2e-05,-0.00018,6,12
31496,-9e-05,-1e-05,-1e-05,0,0.00037,-0.00044,-2e-05,-0.00018,6,12
31497,-9e-05,-1e-05,-1e-05,0,0.00037,-0.00044,-2e-05,-0.00018,6,12
31498,-9e-05,-1e-05,-1e-05,0,0.00037,-0.00044,-2e-05,-0.00018,6,12
31499,-9e-05,-1e-05,-1e-05,0,0.00037,-0.00044,-2e-05,-0.00018,6,12
31500,-9e-05,-1e-05,-1e-05,0,0.00037,-0.00044,-2e-05,-0.00018,6,12
31501,-9e-05,-1e-05,-1e-05,0,0.00037,-0.00044,-2e-05,-0.00018,6,12
31502,2e-05,0,-1e-05,-1e-05,-0.0001,0.0001,8e-05,0.00012,6,12
31503,2e-05,0,-1e-05,-1e-05,-0.0001,0.0001,8e-05,0.00012,6,12
31504,2e-05,0,-1e-05,-1e-05,-0.0001,0.0001,8e-05,0.00012,6,12
31505,2e-05,0,-1e-05,-1e-05,-0.0001,0.0001,8e-05,0.00012,6,12
31506,2e-05,0,-1e-05,-1e-05,-0.0001,0.0001,8e-05,0.00012,6,12
31507,2e-05,0,-1e-05,-1e-05,-0.0001,0.0001,8e-05,0.00012,6,12
31508,2e-05,0,-1e-05,-1e-05,-0.0001,0.0001,8e-05,0.00012,6,12
31509,2e-05,0,-1e-05,-1e-05,-0.0001,0.0001,8e-05,0.00012,6,12
31510,2e-05,0,-1e-05,-1e-05,-0.0001,0.0001,8e-05,0.00012,6,12
31511,2e-05,0,-1e-05,-1e-05,-0.0001,0.0001,8e-05,0.00012,6,12
31512,2e-05,0,-1e-05,-1e-05,-0.0001,0.0001,8e-05,0.00012,6,12
31513,2e-05,0,-1e-05,-1e-05,-0.0001,0.0001,8e-05,0.00012,6,12
31514,2e-05,0,-1e-05,-1e-05,-0.0001,0.0001,8e-05,0.00012,6,12
31515,2e-05,0,-1e-05,-1e-05,-0.0001,0.0001,8e-05,0.00012,6,12
31516,2e-05,0,-1e-05,-1e-05,-0.0001,0.0001,8e-05,0.00012,6,12
31517,-0.00016,-4e-05,-1e-05,1e-05,-0.00013,-4e-05,-6e-05,-0.00012,6,12
31518,-0.00016,-4e-05,-1e-05,1e-05,-0.00013,-4e-05,-6e-05,-0.00012,6,12
31519,-0.00026,-5e-05,-5e-05,-7e-05,-5e-05,0,-8e-05,-5e-05,6,12
31520,-0.00026,-5e-05,-5e-05,-7e-05,-5e-05,0,-8e-05,-5e-05,6,12
31521,-0.00026,-5e-05,-5e-05,-7e-05,-5e-05,0,-8e-05,-5e-05,6,12
31522,-0.00026,-5e-05,-5e-05,-7e-05,-5e-05,0,-8e-05,-5e-05,6,12
31523,-0.00026,-5e-05,-5e-05,-7e-05,-5e-05,0,-8e-05,-5e-05,6,12
31524,-0.00026,-5e-05,-5e-05,-7e-05,-5e-05,0,-8e-05,-5e-05,6,12
31525,-0.00026,-5e-05,-5e-05,-7e-05,-5e-05,0,-8e-05,-5e-05,6,12
31526,-0.00026,-5e-05,-5e-05,-7e-05,-5e-05,0,-8e-05,-5e-05,6,12
31527,-0.00026,-5e-05,-5e-05,-7e-05,-5e-05,0,-8e-05,-5e-05,6,12
31528,-0.00026,-5e-05,-5e-05,-7e-05,-5e-05,0,-8e-05,-5e-05,6,12
31529,-0.00026,-5e-05,-5e-05,-7e-05,-5e-05,0,-8e-05,-5e-05,6,12
31530,-0.00026,-5e-05,-5e-05,-7e-05,-5e-05,0,-8e-05,-5e-05,6,12
31531,-0.00026,-5e-05,-5e-05,-7e-05,-5e-05,0,-8e-05,-5e-05,6,12
31532,-0.00026,-5e-05,-5e-05,-7e-05,-5e-05,0,-8e-05,-5e-05,6,12
31533,-0.00026,-5e-05,-5e-05,-7e-05,-5e-05,0,-8e-05,-5e-05,6,12
31534,-0.00026,-5e-05,-5e-05,-7e-05,-5e-05,0,-8e-05,-5e-05,6,12
31535,-0.00026,-5e-05,-5e-05,-7e-05,-5e-05,0,-8e-05,-5e-05,6,12
31536,-0.00026,-5e-05,-5e-05,-7e-05,-5e-05,0,-8e-05,-5e-05,6,12
31538,-0.00026,-5e-05,-5e-05,-7e-05,-5e-05,0,-8e-05,-5e-05,6,12
31539,-0.00026,-5e-05,-5e-05,-7e-05,-5e-05,0,-8e-05,-5e-05,6,12
31540,1e-05,-2e-05,-2e-05,-1e-05,-2e-05,-0.00015,-7e-05,0,6,12
31541,-0.00017,-5e-05,-5e-05,-7e-05,-0.00013,-0.00017,-0.00016,-0.00029,6,12
31543,-0.00017,-5e-05,-5e-05,-7e-05,-0.00013,-0.00017,-0.00016,-0.00029,6,12
31544,-0.00017,-5e-05,-5e-05,-7e-05,-0.00013,-0.00017,-0.00016,-0.00029,6,12
31545,-0.00017,-5e-05,-5e-05,-7e-05,-0.00013,-0.00017,-0.00016,-0.00029,6,12
31546,-0.00017,-5e-05,-5e-05,-7e-05,-0.00013,-0.00017,-0.00016,-0.00029,6,12
31547,-0.00017,-5e-05,-5e-05,-7e-05,-0.00013,-0.00017,-0.00016,-0.00029,6,12
31548,-0.00017,-5e-05,-5e-05,-7e-05,-0.00013,-0.00017,-0.00016,-0.00029,6,12
31549,-0.00017,-5e-05,-5e-05,-7e-05,-0.00013,-0.00017,-0.00016,-0.00029,6,12
31550,-0.00017,-5e-05,-5e-05,-7e-05,-0.00013,-0.00017,-0.00016,-0.00029,6,12
31551,-0.00017,-5e-05,-5e-05,-7e-05,-0.00013,-0.00017,-0.00016,-0.00029,6,12
31552,-0.00017,-5e-05,-5e-05,-7e-05,-0.00013,-0.00017,-0.00016,-0.00029,6,12
31553,-0.00017,-5e-05,-5e-05,-7e-05,-0.00013,-0.00017,-0.00016,-0.00029,6,12
31554,0,-2e-05,-3e-05,-5e-05,-0.00023,0.0003,0.00016,0.00014,6,12
31555,0,-2e-05,-3e-05,-5e-05,-0.00023,0.0003,0.00016,0.00014,6,12
31556,0,-2e-05,-3e-05,-5e-05,-0.00023,0.0003,0.00016,0.00014,6,12
31557,0,-2e-05,-3e-05,-5e-05,-0.00023,0.0003,0.00016,0.00014,6,12
31558,0,-2e-05,-3e-05,-5e-05,-0.00023,0.0003,0.00016,0.00014,6,12
31559,0,-2e-05,-3e-05,-5e-05,-0.00023,0.0003,0.00016,0.00014,6,12
31560,0,-2e-05,-3e-05,-5e-05,-0.00023,0.0003,0.00016,0.00014,6,12
31561,8e-05,0,-1e-05,-1e-05,-0.0001,1e-05,4e-05,7e-05,6,12
31562,8e-05,0,-1e-05,-1e-05,-0.0001,1e-05,4e-05,7e-05,6,12
31563,8e-05,0,-1e-05,-1e-05,-0.0001,1e-05,4e-05,7e-05,6,12
31564,8e-05,0,-1e-05,-1e-05,-0.0001,1e-05,4e-05,7e-05,6,12
31565,8e-05,0,-1e-05,-1e-05,-0.0001,1e-05,4e-05,7e-05,6,12
31566,8e-05,0,-1e-05,-1e-05,-0.0001,1e-05,4e-05,7e-05,6,12
31567,8e-05,0,-1e-05,-1e-05,-0.0001,1e-05,4e-05,7e-05,6,12
31568,8e-05,0,-1e-05,-1e-05,-0.0001,1e-05,4e-05,7e-05,6,12
31569,8e-05,0,-1e-05,-1e-05,-0.0001,1e-05,4e-05,7e-05,6,12
31570,8e-05,0,-1e-05,-1e-05,-0.0001,1e-05,4e-05,7e-05,6,12
31571,8e-05,0,-1e-05,-1e-05,-0.0001,1e-05,4e-05,7e-05,6,12
31572,8e-05,0,-1e-05,-1e-05,-0.0001,1e-05,4e-05,7e-05,6,12
31573,8e-05,0,-1e-05,-1e-05,-0.0001,1e-05,4e-05,7e-05,6,12
31574,8e-05,0,-1e-05,-1e-05,-0.0001,1e-05,4e-05,7e-05,6,12
31575,8e-05,0,-1e-05,-1e-05,-0.0001,1e-05,4e-05,7e-05,6,12
31576,8e-05,0,-1e-05,-1e-05,-0.0001,1e-05,4e-05,7e-05,6,12
31577,5e-05,-2e-05,-3e-05,-4e-05,6e-05,0.00015,-2e-05,-4e-05,6,12
31578,5e-05,-2e-05,-3e-05,-4e-05,6e-05,0.00015,-2e-05,-4e-05,6,12
31579,7e-05,-1e-05,1e-05,0.00011,0.00039,0.00043,0.0001,6e-05,6,12
31580,7e-05,-1e-05,1e-05,0.00011,0.00039,0.00043,0.0001,6e-05,6,12
31581,7e-05,-1e-05,1e-05,0.00011,0.00039,0.00043,0.0001,6e-05,6,12
31582,7e-05,-1e-05,1e-05,0.00011,0.00039,0.00043,0.0001,6e-05,6,12
31583,7e-05,-1e-05,1e-05,0.00011,0.00039,0.00043,0.0001,6e-05,6,12
31584,7e-05,-1e-05,1e-05,0.00011,0.00039,0.00043,0.0001,6e-05,6,12
31585,7e-05,-1e-05,1e-05,0.00011,0.00039,0.00043,0.0001,6e-05,6,12
31586,7e-05,-1e-05,1e-05,0.00011,0.00039,0.00043,0.0001,6e-05,6,12
31588,7e-05,-1e-05,1e-05,0.00011,0.00039,0.00043,0.0001,6e-05,6,12
31589,7e-05,-1e-05,1e-05,0.00011,0.00039,0.00043,0.0001,6e-05,6,12
31590,7e-05,-1e-05,1e-05,0.00011,0.00039,0.00043,0.0001,6e-05,6,12
31591,7e-05,-1e-05,1e-05,0.00011,0.00039,0.00043,0.0001,6e-05,6,12
31592,7e-05,-1e-05,1e-05,0.00011,0.00039,0.00043,0.0001,6e-05,6,12
31593,7e-05,-1e-05,1e-05,0.00011,0.00039,0.00043,0.0001,6e-05,6,12
31594,7e-05,-1e-05,1e-05,0.00011,0.00039,0.00043,0.0001,6e-05,6,12
31595,7e-05,-1e-05,1e-05,0.00011,0.00039,0.00043,0.0001,6e-05,6,12
31596,7e-05,-1e-05,1e-05,0.00011,0.00039,0.00043,0.0001,6e-05,6,12
31597,7e-05,-1e-05,1e-05,0.00011,0.00039,0.00043,0.0001,6e-05,6,12
31598,7e-05,-1e-05,1e-05,0.00011,0.00039,0.00043,0.0001,6e-05,6,12
31599,7e-05,-1e-05,1e-05,0.00011,0.00039,0.00043,0.0001,6e-05,6,12
31600,-0.0001,-3e-05,3e-05,4e-05,0.00024,8e-05,-5e-05,-0.00024,6,12
31601,-0.0001,-3e-05,3e-05,4e-05,0.00024,8e-05,-5e-05,-0.00024,6,12
31602,0.00041,-1e-05,-2e-05,2e-05,0.00012,-0.00047,-8e-05,0.00044,6,12
31603,0.00041,-1e-05,-2e-05,2e-05,0.00012,-0.00047,-8e-05,0.00044,6,12
31604,0.00041,-1e-05,-2e-05,2e-05,0.00012,-0.00047,-8e-05,0.00044,6,12
31605,0.00041,-1e-05,-2e-05,2e-05,0.00012,-0.00047,-8e-05,0.00044,6,12
31606,0.00041,-1e-05,-2e-05,2e-05,0.00012,-0.00047,-8e-05,0.00044,6,12
31607,0.00041,-1e-05,-2e-05,2e-05,0.00012,-0.00047,-8e-05,0.00044,6,12
31608,0.00041,-1e-05,-2e-05,2e-05,0.00012,-0.00047,-8e-05,0.00044,6,12
31609,0.00041,-1e-05,-2e-05,2e-05,0.00012,-0.00047,-8e-05,0.00044,6,12
31610,0.00041,-1e-05,-2e-05,2e-05,0.00012,-0.00047,-8e-05,0.00044,6,12
31611,0.00041,-1e-05,-2e-05,2e-05,0.00012,-0.00047,-8e-05,0.00044,6,12
31612,0.00041,-1e-05,-2e-05,2e-05,0.00012,-0.00047,-8e-05,0.00044,6,12
31613,4e-05,2e-05,2e-05,4e-05,0.00017,0.00017,9e-05,0.00014,6,12
31614,4e-05,2e-05,2e-05,4e-05,0.00017,0.00017,9e-05,0.00014,6,12
31615,4e-05,2e-05,2e-05,4e-05,0.00017,0.00017,9e-05,0.00014,6,12
31616,4e-05,2e-05,2e-05,4e-05,0.00017,0.00017,9e-05,0.00014,6,12
31617,4e-05,2e-05,2e-05,4e-05,0.00017,0.00017,9e-05,0.00014,6,12
31618,4e-05,2e-05,2e-05,4e-05,0.00017,0.00017,9e-05,0.00014,6,12
31619,4e-05,2e-05,2e-05,4e-05,0.00017,0.00017,9e-05,0.00014,6,12
31620,4e-05,2e-05,2e-05,4e-05,0.00017,0.00017,9e-05,0.00014,6,12
31621,4e-05,2e-05,2e-05,4e-05,0.00017,0.00017,9e-05,0.00014,6,12
31622,-8e-05,-1e-05,-3e-05,-4e-05,-9e-05,-6e-05,8e-05,-9e-05,6,12
31623,-8e-05,-1e-05,-3e-05,-4e-05,-9e-05,-6e-05,8e-05,-9e-05,6,12
31624,-8e-05,-1e-05,-3e-05,-4e-05,-9e-05,-6e-05,8e-05,-9e-05,6,12
31625,-8e-05,-1e-05,-3e-05,-4e-05,-9e-05,-6e-05,8e-05,-9e-05,6,12
31626,-8e-05,-1e-05,-3e-05,-4e-05,-9e-05,-6e-05,8e-05,-9e-05,6,12
31627,-8e-05,-1e-05,-3e-05,-4e-05,-9e-05,-6e-05,8e-05,-9e-05,6,12
31628,-8e-05,-1e-05,-3e-05,-4e-05,-9e-05,-6e-05,8e-05,-9e-05,6,12
31629,-8e-05,-1e-05,-3e-05,-4e-05,-9e-05,-6e-05,8e-05,-9e-05,6,12
31630,-8e-05,-1e-05,-3e-05,-4e-05,-9e-05,-6e-05,8e-05,-9e-05,6,12
31631,-8e-05,-1e-05,-3e-05,-4e-05,-9e-05,-6e-05,8e-05,-9e-05,6,12
31632,-8e-05,-1e-05,-3e-05,-4e-05,-9e-05,-6e-05,8e-05,-9e-05,6,12
31633,-8e-05,-1e-05,-3e-05,-4e-05,-9e-05,-6e-05,8e-05,-9e-05,6,12
31634,-8e-05,-1e-05,-3e-05,-4e-05,-9e-05,-6e-05,8e-05,-9e-05,6,12
31635,-8e-05,-1e-05,-3e-05,-4e-05,-9e-05,-6e-05,8e-05,-9e-05,6,12
31636,-8e-05,-1e-05,-3e-05,-4e-05,-9e-05,-6e-05,8e-05,-9e-05,6,12
31638,-0.00014,-1e-05,-2e-05,-5e-05,-0.00022,-0.00035,-0.00015,-8e-05,6,12
31639,-0.00014,-1e-05,-2e-05,-5e-05,-0.00022,-0.00035,-0.00015,-8e-05,6,12
31640,-0.00014,-1e-05,-2e-05,-5e-05,-0.00022,-0.00035,-0.00015,-8e-05,6,12
31641,-0.00014,-1e-05,-2e-05,-5e-05,-0.00022,-0.00035,-0.00015,-8e-05,6,12
31642,-0.00014,-1e-05,-2e-05,-5e-05,-0.00022,-0.00035,-0.00015,-8e-05,6,12
31643,-8e-05,3e-05,6e-05,7e-05,0.00013,6e-05,-4e-05,-8e-05,6,12
31644,-8e-05,3e-05,6e-05,7e-05,0.00013,6e-05,-4e-05,-8e-05,6,12
31645,-8e-05,3e-05,6e-05,7e-05,0.00013,6e-05,-4e-05,-8e-05,6,12
31646,-8e-05,3e-05,6e-05,7e-05,0.00013,6e-05,-4e-05,-8e-05,6,12
31647,-8e-05,3e-05,6e-05,7e-05,0.00013,6e-05,-4e-05,-8e-05,6,12
31648,-8e-05,3e-05,6e-05,7e-05,0.00013,6e-05,-4e-05,-8e-05,6,12
31649,-8e-05,3e-05,6e-05,7e-05,0.00013,6e-05,-4e-05,-8e-05,6,12
31650,-8e-05,3e-05,6e-05,7e-05,0.00013,6e-05,-4e-05,-8e-05,6,12
31651,-8e-05,3e-05,6e-05,7e-05,0.00013,6e-05,-4e-05,-8e-05,6,12
31652,-8e-05,3e-05,6e-05,7e-05,0.00013,6e-05,-4e-05,-8e-05,6,12
31653,-8e-05,3e-05,6e-05,7e-05,0.00013,6e-05,-4e-05,-8e-05,6,12
31654,-8e-05,3e-05,6e-05,7e-05,0.00013,6e-05,-4e-05,-8e-05,6,12
31655,-8e-05,3e-05,6e-05,7e-05,0.00013,6e-05,-4e-05,-8e-05,6,12
31656,-8e-05,3e-05,6e-05,7e-05,0.00013,6e-05,-4e-05,-8e-05,6,12
31657,-8e-05,3e-05,6e-05,7e-05,0.00013,6e-05,-4e-05,-8e-05,6,12
31658,-8e-05,3e-05,6e-05,7e-05,0.00013,6e-05,-4e-05,-8e-05,6,12
31659,-8e-05,3e-05,6e-05,7e-05,0.00013,6e-05,-4e-05,-8e-05,6,12
31660,-7e-05,0,0,-6e-05,5e-05,0.00065,3e-05,-5e-05,6,12
31661,-7e-05,0,-2e-05,-4e-05,-0.00015,-5e-05,-3e-05,-0.00017,6,12
31663,-7e-05,0,-2e-05,-4e-05,-0.00015,-5e-05,-3e-05,-0.00017,6,12
31664,-7e-05,0,-2e-05,-4e-05,-0.00015,-5e-05,-3e-05,-0.00017,6,12
31665,-7e-05,0,-2e-05,-4e-05,-0.00015,-5e-05,-3e-05,-0.00017,6,12
31666,-7e-05,0,-2e-05,-4e-05,-0.00015,-5e-05,-3e-05,-0.00017,6,12
31667,-7e-05,0,-2e-05,-4e-05,-0.00015,-5e-05,-3e-05,-0.00017,6,12
31668,-7e-05,0,-2e-05,-4e-05,-0.00015,-5e-05,-3e-05,-0.00017,6,12
31669,-7e-05,0,-2e-05,-4e-05,-0.00015,-5e-05,-3e-05,-0.00017,6,12
31670,-7e-05,0,-2e-05,-4e-05,-0.00015,-5e-05,-3e-05,-0.00017,6,12
31671,-7e-05,0,-2e-05,-4e-05,-0.00015,-5e-05,-3e-05,-0.00017,6,12
31672,-7e-05,0,-2e-05,-4e-05,-0.00015,-5e-05,-3e-05,-0.00017,6,12
31673,-7e-05,0,-2e-05,-4e-05,-0.00015,-5e-05,-3e-05,-0.00017,6,12
31674,-3e-05,-2e-05,-3e-05,-1e-05,0.00031,6e-05,-3e-05,-0.00013,6,12
31675,-3e-05,-2e-05,-3e-05,-1e-05,0.00031,6e-05,-3e-05,-0.00013,6,12
31676,-3e-05,-2e-05,-3e-05,-1e-05,0.00031,6e-05,-3e-05,-0.00013,6,12
31677,-3e-05,-2e-05,-3e-05,-1e-05,0.00031,6e-05,-3e-05,-0.00013,6,12
31678,-3e-05,-2e-05,-3e-05,-1e-05,0.00031,6e-05,-3e-05,-0.00013,6,12
31679,-3e-05,-2e-05,-3e-05,-1e-05,0.00031,6e-05,-3e-05,-0.00013,6,12
31680,-3e-05,-2e-05,-3e-05,-1e-05,0.00031,6e-05,-3e-05,-0.00013,6,12
31681,-3e-05,-2e-05,-3e-05,-1e-05,0.00031,6e-05,-3e-05,-0.00013,6,12
31682,4e-05,0,0,3e-05,-9e-05,0.00019,9e-05,7e-05,6,12
31683,4e-05,0,0,3e-05,-9e-05,0.00019,9e-05,7e-05,6,12
31684,4e-05,0,0,3e-05,-9e-05,0.00019,9e-05,7e-05,6,12
31685,4e-05,0,0,3e-05,-9e-05,0.00019,9e-05,7e-05,6,12
31686,4e-05,0,0,3e-05,-9e-05,0.00019,9e-05,7e-05,6,12
31688,4e-05,0,0,3e-05,-9e-05,0.00019,9e-05,7e-05,6,12
31689,4e-05,0,0,3e-05,-9e-05,0.00019,9e-05,7e-05,6,12
31690,4e-05,0,0,3e-05,-9e-05,0.00019,9e-05,7e-05,6,12
31691,4e-05,0,0,3e-05,-9e-05,0.00019,9e-05,7e-05,6,12
31692,4e-05,0,0,3e-05,-9e-05,0.00019,9e-05,7e-05,6,12
31693,4e-05,0,0,3e-05,-9e-05,0.00019,9e-05,7e-05,6,12
31694,4e-05,0,0,3e-05,-9e-05,0.00019,9e-05,7e-05,6,12
31695,4e-05,0,0,3e-05,-9e-05,0.00019,9e-05,7e-05,6,12
31696,4e-05,0,0,3e-05,-9e-05,0.00019,9e-05,7e-05,6,12
31697,-1e-05,-8e-05,-8e-05,-8e-05,-0.00025,-0.00016,-8e-05,0,6,12
31698,-1e-05,-8e-05,-8e-05,-8e-05,-0.00025,-0.00016,-8e-05,0,6,12
31699,-0.00017,-3e-05,0,-2e-05,4e-05,0.0001,-3e-05,-0.00025,6,12
31700,-0.00017,-3e-05,0,-2e-05,4e-05,0.0001,-3e-05,-0.00025,6,12
31701,-0.00017,-3e-05,0,-2e-05,4e-05,0.0001,-3e-05,-0.00025,6,12
31702,-0.00017,-3e-05,0,-2e-05,4e-05,0.0001,-3e-05,-0.00025,6,12
31703,-0.00017,-3e-05,0,-2e-05,4e-05,0.0001,-3e-05,-0.00025,6,12
31704,-0.00017,-3e-05,0,-2e-05,4e-05,0.0001,-3e-05,-0.00025,6,12
31705,-0.00017,-3e-05,0,-2e-05,4e-05,0.0001,-3e-05,-0.00025,6,12
31706,-0.00017,-3e-05,0,-2e-05,4e-05,0.0001,-3e-05,-0.00025,6,12
31707,-0.00017,-3e-05,0,-2e-05,4e-05,0.0001,-3e-05,-0.00025,6,12
31708,-0.00017,-3e-05,0,-2e-05,4e-05,0.0001,-3e-05,-0.00025,6,12
31709,-0.00017,-3e-05,0,-2e-05,4e-05,0.0001,-3e-05,-0.00025,6,12
31710,-0.00017,-3e-05,0,-2e-05,4e-05,0.0001,-3e-05,-0.00025,6,12
31711,-0.00017,-3e-05,0,-2e-05,4e-05,0.0001,-3e-05,-0.00025,6,12
31712,-0.00017,-3e-05,0,-2e-05,4e-05,0.0001,-3e-05,-0.00025,6,12
31713,-0.00017,-3e-05,0,-2e-05,4e-05,0.0001,-3e-05,-0.00025,6,12
31714,-0.00017,-3e-05,0,-2e-05,4e-05,0.0001,-3e-05,-0.00025,6,12
31715,-0.00017,-3e-05,0,-2e-05,4e-05,0.0001,-3e-05,-0.00025,6,12
31716,-0.00017,-3e-05,0,-2e-05,4e-05,0.0001,-3e-05,-0.00025,6,12
31717,-0.00017,-3e-05,0,-2e-05,4e-05,0.0001,-3e-05,-0.00025,6,12
31718,-0.00017,-3e-05,0,-2e-05,4e-05,0.0001,-3e-05,-0.00025,6,12
31719,-0.00017,-3e-05,0,-2e-05,4e-05,0.0001,-3e-05,-0.00025,6,12
31720,2e-05,1e-05,1e-05,-3e-05,-8e-05,-0.00042,0,-5e-05,6,12
31721,4e-05,-4e-05,-3e-05,-5e-05,9e-05,0.00094,0.00022,0.00026,6,12
31723,4e-05,-4e-05,-3e-05,-5e-05,9e-05,0.00094,0.00022,0.00026,6,12
31724,4e-05,-4e-05,-3e-05,-5e-05,9e-05,0.00094,0.00022,0.00026,6,12
31725,4e-05,-4e-05,-3e-05,-5e-05,9e-05,0.00094,0.00022,0.00026,6,12
31726,4e-05,-4e-05,-3e-05,-5e-05,9e-05,0.00094,0.00022,0.00026,6,12
31727,4e-05,-4e-05,-3e-05,-5e-05,9e-05,0.00094,0.00022,0.00026,6,12
31728,4e-05,-4e-05,-3e-05,-5e-05,9e-05,0.00094,0.00022,0.00026,6,12
31729,4e-05,-4e-05,-3e-05,-5e-05,9e-05,0.00094,0.00022,0.00026,6,12
31730,4e-05,-4e-05,-3e-05,-5e-05,9e-05,0.00094,0.00022,0.00026,6,12
31731,4e-05,-4e-05,-3e-05,-5e-05,9e-05,0.00094,0.00022,0.00026,6,12
31732,4e-05,-4e-05,-3e-05,-5e-05,9e-05,0.00094,0.00022,0.00026,6,12
31733,-0.00017,4e-05,2e-05,1e-05,-0.00017,-5e-05,-1e-05,-0.0001,6,12
31734,-0.00017,4e-05,2e-05,1e-05,-0.00017,-5e-05,-1e-05,-0.0001,6,12
31735,-0.00017,4e-05,2e-05,1e-05,-0.00017,-5e-05,-1e-05,-0.0001,6,12
31736,-0.00017,4e-05,2e-05,1e-05,-0.00017,-5e-05,-1e-05,-0.0001,6,12
31738,-0.00017,4e-05,2e-05,1e-05,-0.00017,-5e-05,-1e-05,-0.0001,6,12
31739,-0.00017,4e-05,2e-05,1e-05,-0.00017,-5e-05,-1e-05,-0.0001,6,12
31740,-0.00017,4e-05,2e-05,1e-05,-0.00017,-5e-05,-1e-05,-0.0001,6,12
31741,-0.00017,4e-05,2e-05,1e-05,-0.00017,-5e-05,-1e-05,-0.0001,6,12
31742,-0.00011,-2e-05,-4e-05,-9e-05,-0.00016,-0.00015,-0.00014,-0.00013,6,12
31743,-0.00011,-2e-05,-4e-05,-9e-05,-0.00016,-0.00015,-0.00014,-0.00013,6,12
31744,-0.00011,-2e-05,-4e-05,-9e-05,-0.00016,-0.00015,-0.00014,-0.00013,6,12
31745,-0.00011,-2e-05,-4e-05,-9e-05,-0.00016,-0.00015,-0.00014,-0.00013,6,12
31746,-0.00011,-2e-05,-4e-05,-9e-05,-0.00016,-0.00015,-0.00014,-0.00013,6,12
31747,-0.00011,-2e-05,-4e-05,-9e-05,-0.00016,-0.00015,-0.00014,-0.00013,6,12
31748,-0.00011,-2e-05,-4e-05,-9e-05,-0.00016,-0.00015,-0.00014,-0.00013,6,12
31749,-0.00011,-2e-05,-4e-05,-9e-05,-0.00016,-0.00015,-0.00014,-0.00013,6,12
31750,-0.00011,-2e-05,-4e-05,-9e-05,-0.00016,-0.00015,-0.00014,-0.00013,6,12
31751,-0.00011,-2e-05,-4e-05,-9e-05,-0.00016,-0.00015,-0.00014,-0.00013,6,12
31752,-0.00011,-2e-05,-4e-05,-9e-05,-0.00016,-0.00015,-0.00014,-0.00013,6,12
31753,-0.00011,-2e-05,-4e-05,-9e-05,-0.00016,-0.00015,-0.00014,-0.00013,6,12
31754,-0.00011,-2e-05,-4e-05,-9e-05,-0.00016,-0.00015,-0.00014,-0.00013,6,12
31755,-0.00011,-2e-05,-4e-05,-9e-05,-0.00016,-0.00015,-0.00014,-0.00013,6,12
31756,-0.00011,-2e-05,-4e-05,-9e-05,-0.00016,-0.00015,-0.00014,-0.00013,6,12
31757,-6e-05,-2e-05,0,-1e-05,8e-05,-0.00025,-8e-05,-7e-05,6,12
31758,-6e-05,-2e-05,0,-1e-05,8e-05,-0.00025,-8e-05,-7e-05,6,12
31759,5e-05,1e-05,3e-05,4e-05,0,-0.00027,-8e-05,0.00012,6,12
31760,5e-05,1e-05,3e-05,4e-05,0,-0.00027,-8e-05,0.00012,6,12
31761,5e-05,1e-05,3e-05,4e-05,0,-0.00027,-8e-05,0.00012,6,12
31762,5e-05,1e-05,3e-05,4e-05,0,-0.00027,-8e-05,0.00012,6,12
31763,5e-05,1e-05,3e-05,4e-05,0,-0.00027,-8e-05,0.00012,6,12
31764,5e-05,1e-05,3e-05,4e-05,0,-0.00027,-8e-05,0.00012,6,12
31765,5e-05,1e-05,3e-05,4e-05,0,-0.00027,-8e-05,0.00012,6,12
31766,5e-05,1e-05,3e-05,4e-05,0,-0.00027,-8e-05,0.00012,6,12
31767,5e-05,1e-05,3e-05,4e-05,0,-0.00027,-8e-05,0.00012,6,12
31768,5e-05,1e-05,3e-05,4e-05,0,-0.00027,-8e-05,0.00012,6,12
31769,5e-05,1e-05,3e-05,4e-05,0,-0.00027,-8e-05,0.00012,6,12
31770,5e-05,1e-05,3e-05,4e-05,0,-0.00027,-8e-05,0.00012,6,12
31771,5e-05,1e-05,3e-05,4e-05,0,-0.00027,-8e-05,0.00012,6,12
31772,5e-05,1e-05,3e-05,4e-05,0,-0.00027,-8e-05,0.00012,6,12
31773,5e-05,1e-05,3e-05,4e-05,0,-0.00027,-8e-05,0.00012,6,12
31774,5e-05,1e-05,3e-05,4e-05,0,-0.00027,-8e-05,0.00012,6,12
31775,5e-05,1e-05,3e-05,4e-05,0,-0.00027,-8e-05,0.00012,6,12
31776,5e-05,1e-05,3e-05,4e-05,0,-0.00027,-8e-05,0.00012,6,12
31777,5e-05,1e-05,3e-05,4e-05,0,-0.00027,-8e-05,0.00012,6,12
31778,5e-05,1e-05,3e-05,4e-05,0,-0.00027,-8e-05,0.00012,6,12
31779,5e-05,1e-05,3e-05,4e-05,0,-0.00027,-8e-05,0.00012,6,12
31780,0.00021,1e-05,0,-7e-05,-0.00011,0.00034,-0.00012,7e-05,6,12
31781,4e-05,-1e-05,-1e-05,-5e-05,-0.00018,-7e-05,-4e-05,2e-05,6,12
31782,4e-05,-1e-05,-1e-05,-5e-05,-0.00018,-7e-05,-4e-05,2e-05,6,12
31783,4e-05,-1e-05,-1e-05,-5e-05,-0.00018,-7e-05,-4e-05,2e-05,6,12
31784,4e-05,-1e-05,-1e-05,-5e-05,-0.00018,-7e-05,-4e-05,2e-05,6,12
31785,4e-05,-1e-05,-1e-05,-5e-05,-0.00018,-7e-05,-4e-05,2e-05,6,12
31786,4e-05,-1e-05,-1e-05,-5e-05,-0.00018,-7e-05,-4e-05,2e-05,6,12
31788,4e-05,-1e-05,-1e-05,-5e-05,-0.00018,-7e-05,-4e-05,2e-05,6,12
31789,4e-05,-1e-05,-1e-05,-5e-05,-0.00018,-7e-05,-4e-05,2e-05,6,12
31790,4e-05,-1e-05,-1e-05,-5e-05,-0.00018,-7e-05,-4e-05,2e-05,6,12
31791,4e-05,-1e-05,-1e-05,-5e-05,-0.00018,-7e-05,-4e-05,2e-05,6,12
31792,4e-05,-1e-05,-1e-05,-5e-05,-0.00018,-7e-05,-4e-05,2e-05,6,12
31793,-2e-05,-1e-05,-3e-05,-7e-05,-0.00012,-0.00025,-6e-05,-0.0001,6,12
31795,-2e-05,-1e-05,-3e-05,-7e-05,-0.00012,-0.00025,-6e-05,-0.0001,6,12
31796,-2e-05,-1e-05,-3e-05,-7e-05,-0.00012,-0.00025,-6e-05,-0.0001,6,12
31797,-2e-05,-1e-05,-3e-05,-7e-05,-0.00012,-0.00025,-6e-05,-0.0001,6,12
31798,-2e-05,-1e-05,-3e-05,-7e-05,-0.00012,-0.00025,-6e-05,-0.0001,6,12
31799,-2e-05,-1e-05,-3e-05,-7e-05,-0.00012,-0.00025,-6e-05,-0.0001,6,12
31800,-2e-05,-1e-05,-3e-05,-7e-05,-0.00012,-0.00025,-6e-05,-0.0001,6,12
31801,-2e-05,-1e-05,-3e-05,-7e-05,-0.00012,-0.00025,-6e-05,-0.0001,6,12
31802,0.00016,4e-05,1e-05,0,-2e-05,0.00028,0.00012,0.00035,6,12
31803,-8e-05,-4e-05,-3e-05,-3e-05,-2e-05,-0.00018,-0.0001,-0.0002,6,12
31804,-8e-05,-4e-05,-3e-05,-3e-05,-2e-05,-0.00018,-0.0001,-0.0002,6,12
31805,-8e-05,-4e-05,-3e-05,-3e-05,-2e-05,-0.00018,-0.0001,-0.0002,6,12
31806,-8e-05,-4e-05,-3e-05,-3e-05,-2e-05,-0.00018,-0.0001,-0.0002,6,12
31807,-8e-05,-4e-05,-3e-05,-3e-05,-2e-05,-0.00018,-0.0001,-0.0002,6,12
31808,-8e-05,-4e-05,-3e-05,-3e-05,-2e-05,-0.00018,-0.0001,-0.0002,6,12
31809,-8e-05,-4e-05,-3e-05,-3e-05,-2e-05,-0.00018,-0.0001,-0.0002,6,12
31810,-8e-05,-4e-05,-3e-05,-3e-05,-2e-05,-0.00018,-0.0001,-0.0002,6,12
31811,-8e-05,-4e-05,-3e-05,-3e-05,-2e-05,-0.00018,-0.0001,-0.0002,6,12
31812,-8e-05,-4e-05,-3e-05,-3e-05,-2e-05,-0.00018,-0.0001,-0.0002,6,12
31813,-8e-05,-4e-05,-3e-05,-3e-05,-2e-05,-0.00018,-0.0001,-0.0002,6,12
31814,-8e-05,-4e-05,-3e-05,-3e-05,-2e-05,-0.00018,-0.0001,-0.0002,6,12
31815,-8e-05,-4e-05,-3e-05,-3e-05,-2e-05,-0.00018,-0.0001,-0.0002,6,12
31816,-8e-05,-4e-05,-3e-05,-3e-05,-2e-05,-0.00018,-0.0001,-0.0002,6,12
31817,2e-05,-1e-05,-2e-05,-3e-05,-0.00012,0.00045,9e-05,0,6,12
31818,2e-05,-1e-05,-2e-05,-3e-05,-0.00012,0.00045,9e-05,0,6,12
31819,-4e-05,2e-05,2e-05,3e-05,-3e-05,4e-05,0.0001,2e-05,6,12
31820,-4e-05,2e-05,2e-05,3e-05,-3e-05,4e-05,0.0001,2e-05,6,12
31821,-4e-05,2e-05,2e-05,3e-05,-3e-05,4e-05,0.0001,2e-05,6,12
31822,-4e-05,2e-05,2e-05,3e-05,-3e-05,4e-05,0.0001,2e-05,6,12
31823,-4e-05,2e-05,2e-05,3e-05,-3e-05,4e-05,0.0001,2e-05,6,12
31824,-4e-05,2e-05,2e-05,3e-05,-3e-05,4e-05,0.0001,2e-05,6,12
31825,-4e-05,2e-05,2e-05,3e-05,-3e-05,4e-05,0.0001,2e-05,6,12
31826,-4e-05,2e-05,2e-05,3e-05,-3e-05,4e-05,0.0001,2e-05,6,12
31827,-4e-05,2e-05,2e-05,3e-05,-3e-05,4e-05,0.0001,2e-05,6,12
31828,-4e-05,2e-05,2e-05,3e-05,-3e-05,4e-05,0.0001,2e-05,6,12
31829,-4e-05,2e-05,2e-05,3e-05,-3e-05,4e-05,0.0001,2e-05,6,12
31830,-4e-05,2e-05,2e-05,3e-05,-3e-05,4e-05,0.0001,2e-05,6,12
31831,-4e-05,2e-05,2e-05,3e-05,-3e-05,4e-05,0.0001,2e-05,6,12
31832,-4e-05,2e-05,2e-05,3e-05,-3e-05,4e-05,0.0001,2e-05,6,12
31833,-4e-05,2e-05,2e-05,3e-05,-3e-05,4e-05,0.0001,2e-05,6,12
31834,-4e-05,2e-05,2e-05,3e-05,-3e-05,4e-05,0.0001,2e-05,6,12
31835,-4e-05,2e-05,2e-05,3e-05,-3e-05,4e-05,0.0001,2e-05,6,12
31836,-4e-05,2e-05,2e-05,3e-05,-3e-05,4e-05,0.0001,2e-05,6,12
31838,-4e-05,2e-05,2e-05,3e-05,-3e-05,4e-05,0.0001,2e-05,6,12
31839,-4e-05,2e-05,2e-05,3e-05,-3e-05,4e-05,0.0001,2e-05,6,12
31840,3e-05,-2e-05,0,-2e-05,-0.00013,-0.00041,5e-05,0.00012,6,12
31841,4e-05,3e-05,0,-2e-05,-1e-05,-0.00023,-9e-05,5e-05,6,12
31843,4e-05,3e-05,0,-2e-05,-1e-05,-0.00023,-9e-05,5e-05,6,12
31844,4e-05,3e-05,0,-2e-05,-1e-05,-0.00023,-9e-05,5e-05,6,12
31845,4e-05,3e-05,0,-2e-05,-1e-05,-0.00023,-9e-05,5e-05,6,12
31846,4e-05,3e-05,0,-2e-05,-1e-05,-0.00023,-9e-05,5e-05,6,12
31847,4e-05,3e-05,0,-2e-05,-1e-05,-0.00023,-9e-05,5e-05,6,12
31848,4e-05,3e-05,0,-2e-05,-1e-05,-0.00023,-9e-05,5e-05,6,12
31849,4e-05,3e-05,0,-2e-05,-1e-05,-0.00023,-9e-05,5e-05,6,12
31850,4e-05,3e-05,0,-2e-05,-1e-05,-0.00023,-9e-05,5e-05,6,12
31851,4e-05,3e-05,0,-2e-05,-1e-05,-0.00023,-9e-05,5e-05,6,12
31852,4e-05,3e-05,0,-2e-05,-1e-05,-0.00023,-9e-05,5e-05,6,12
31853,2e-05,-1e-05,1e-05,5e-05,6e-05,-7e-05,9e-05,0,6,12
31854,2e-05,-1e-05,1e-05,5e-05,6e-05,-7e-05,9e-05,0,6,12
31855,2e-05,-1e-05,1e-05,5e-05,6e-05,-7e-05,9e-05,0,6,12
31856,2e-05,-1e-05,1e-05,5e-05,6e-05,-7e-05,9e-05,0,6,12
31857,2e-05,-1e-05,1e-05,5e-05,6e-05,-7e-05,9e-05,0,6,12
31858,2e-05,-1e-05,1e-05,5e-05,6e-05,-7e-05,9e-05,0,6,12
31859,2e-05,-1e-05,1e-05,5e-05,6e-05,-7e-05,9e-05,0,6,12
31860,2e-05,-1e-05,1e-05,5e-05,6e-05,-7e-05,9e-05,0,6,12
31861,2e-05,-1e-05,1e-05,5e-05,6e-05,-7e-05,9e-05,0,6,12
31862,-0.00024,-2e-05,1e-05,4e-05,-3e-05,1e-05,-5e-05,-0.00025,6,12
31863,-0.00014,-6e-05,-5e-05,-5e-05,-1e-05,-0.00035,-1e-05,4e-05,6,12
31864,-0.00014,-6e-05,-5e-05,-5e-05,-1e-05,-0.00035,-1e-05,4e-05,6,12
31865,-0.00014,-6e-05,-5e-05,-5e-05,-1e-05,-0.00035,-1e-05,4e-05,6,12
31866,-0.00014,-6e-05,-5e-05,-5e-05,-1e-05,-0.00035,-1e-05,4e-05,6,12
31867,-0.00014,-6e-05,-5e-05,-5e-05,-1e-05,-0.00035,-1e-05,4e-05,6,12
31868,-0.00014,-6e-05,-5e-05,-5e-05,-1e-05,-0.00035,-1e-05,4e-05,6,12
31869,-0.00014,-6e-05,-5e-05,-5e-05,-1e-05,-0.00035,-1e-05,4e-05,6,12
31870,-0.00014,-6e-05,-5e-05,-5e-05,-1e-05,-0.00035,-1e-05,4e-05,6,12
31871,-0.00014,-6e-05,-5e-05,-5e-05,-1e-05,-0.00035,-1e-05,4e-05,6,12
31872,-0.00014,-6e-05,-5e-05,-5e-05,-1e-05,-0.00035,-1e-05,4e-05,6,12
31873,-0.00014,-6e-05,-5e-05,-5e-05,-1e-05,-0.00035,-1e-05,4e-05,6,12
31874,-0.00014,-6e-05,-5e-05,-5e-05,-1e-05,-0.00035,-1e-05,4e-05,6,12
31875,-0.00014,-6e-05,-5e-05,-5e-05,-1e-05,-0.00035,-1e-05,4e-05,6,12
31876,-0.00014,-6e-05,-5e-05,-5e-05,-1e-05,-0.00035,-1e-05,4e-05,6,12
31877,-1e-05,-1e-05,-1e-05,7e-05,0.0001,5e-05,-3e-05,-1e-05,6,12
31878,-1e-05,-1e-05,-1e-05,7e-05,0.0001,5e-05,-3e-05,-1e-05,6,12
31879,-3e-05,-3e-05,-1e-05,-1e-05,2e-05,6e-05,2e-05,-9e-05,6,12
31880,-3e-05,-3e-05,-1e-05,-1e-05,2e-05,6e-05,2e-05,-9e-05,6,12
31881,-3e-05,-3e-05,-1e-05,-1e-05,2e-05,6e-05,2e-05,-9e-05,6,12
31882,-3e-05,-3e-05,-1e-05,-1e-05,2e-05,6e-05,2e-05,-9e-05,6,12
31883,-3e-05,-3e-05,-1e-05,-1e-05,2e-05,6e-05,2e-05,-9e-05,6,12
31884,-3e-05,-3e-05,-1e-05,-1e-05,2e-05,6e-05,2e-05,-9e-05,6,12
31885,-3e-05,-3e-05,-1e-05,-1e-05,2e-05,6e-05,2e-05,-9e-05,6,12
31886,-3e-05,-3e-05,-1e-05,-1e-05,2e-05,6e-05,2e-05,-9e-05,6,12
31888,-3e-05,-3e-05,-1e-05,-1e-05,2e-05,6e-05,2e-05,-9e-05,6,12
31889,-3e-05,-3e-05,-1e-05,-1e-05,2e-05,6e-05,2e-05,-9e-05,6,12
31890,-3e-05,-3e-05,-1e-05,-1e-05,2e-05,6e-05,2e-05,-9e-05,6,12
31891,-3e-05,-3e-05,-1e-05,-1e-05,2e-05,6e-05,2e-05,-9e-05,6,12
31892,-3e-05,-3e-05,-1e-05,-1e-05,2e-05,6e-05,2e-05,-9e-05,6,12
31893,-3e-05,-3e-05,-1e-05,-1e-05,2e-05,6e-05,2e-05,-9e-05,6,12
31894,-3e-05,-3e-05,-1e-05,-1e-05,2e-05,6e-05,2e-05,-9e-05,6,12
31895,-3e-05,-3e-05,-1e-05,-1e-05,2e-05,6e-05,2e-05,-9e-05,6,12
31896,-3e-05,-3e-05,-1e-05,-1e-05,2e-05,6e-05,2e-05,-9e-05,6,12
31897,-3e-05,-3e-05,-1e-05,-1e-05,2e-05,6e-05,2e-05,-9e-05,6,12
31898,-3e-05,-3e-05,-1e-05,-1e-05,2e-05,6e-05,2e-05,-9e-05,6,12
31899,-3e-05,-3e-05,-1e-05,-1e-05,2e-05,6e-05,2e-05,-9e-05,6,12
31900,-4e-05,-3e-05,-1e-05,8e-05,9e-05,-0.00035,1e-05,8e-05,6,12
31901,-4e-05,-3e-05,-1e-05,8e-05,9e-05,-0.00035,1e-05,8e-05,6,12
31902,1e-05,-3e-05,-4e-05,-6e-05,1e-05,-0.00055,-0.00018,-8e-05,6,12
31903,1e-05,-3e-05,-4e-05,-6e-05,1e-05,-0.00055,-0.00018,-8e-05,6,12
31904,1e-05,-3e-05,-4e-05,-6e-05,1e-05,-0.00055,-0.00018,-8e-05,6,12
31905,1e-05,-3e-05,-4e-05,-6e-05,1e-05,-0.00055,-0.00018,-8e-05,6,12
31906,1e-05,-3e-05,-4e-05,-6e-05,1e-05,-0.00055,-0.00018,-8e-05,6,12
31907,1e-05,-3e-05,-4e-05,-6e-05,1e-05,-0.00055,-0.00018,-8e-05,6,12
31908,1e-05,-3e-05,-4e-05,-6e-05,1e-05,-0.00055,-0.00018,-8e-05,6,12
31909,1e-05,-3e-05,-4e-05,-6e-05,1e-05,-0.00055,-0.00018,-8e-05,6,12
31910,1e-05,-3e-05,-4e-05,-6e-05,1e-05,-0.00055,-0.00018,-8e-05,6,12
31911,1e-05,-3e-05,-4e-05,-6e-05,1e-05,-0.00055,-0.00018,-8e-05,6,12
31912,1e-05,-3e-05,-4e-05,-6e-05,1e-05,-0.00055,-0.00018,-8e-05,6,12
31913,6e-05,2e-05,1e-05,0,-3e-05,0.00012,4e-05,4e-05,6,12
31915,6e-05,2e-05,1e-05,0,-3e-05,0.00012,4e-05,4e-05,6,12
31916,6e-05,2e-05,1e-05,0,-3e-05,0.00012,4e-05,4e-05,6,12
31917,6e-05,2e-05,1e-05,0,-3e-05,0.00012,4e-05,4e-05,6,12
31918,6e-05,2e-05,1e-05,0,-3e-05,0.00012,4e-05,4e-05,6,12
31919,6e-05,2e-05,1e-05,0,-3e-05,0.00012,4e-05,4e-05,6,12
31920,6e-05,2e-05,1e-05,0,-3e-05,0.00012,4e-05,4e-05,6,12
31921,6e-05,2e-05,1e-05,0,-3e-05,0.00012,4e-05,4e-05,6,12
31922,-0.00012,1e-05,1e-05,-6e-05,-0.00026,0.00034,1e-05,-0.00015,6,12
31924,-0.00012,1e-05,1e-05,-6e-05,-0.00026,0.00034,1e-05,-0.00015,6,12
31925,-0.00012,1e-05,1e-05,-6e-05,-0.00026,0.00034,1e-05,-0.00015,6,12
31926,-0.00012,1e-05,1e-05,-6e-05,-0.00026,0.00034,1e-05,-0.00015,6,12
31927,-0.00012,1e-05,1e-05,-6e-05,-0.00026,0.00034,1e-05,-0.00015,6,12
31928,-0.00012,1e-05,1e-05,-6e-05,-0.00026,0.00034,1e-05,-0.00015,6,12
31929,-0.00012,1e-05,1e-05,-6e-05,-0.00026,0.00034,1e-05,-0.00015,6,12
31930,-0.00012,1e-05,1e-05,-6e-05,-0.00026,0.00034,1e-05,-0.00015,6,12
31931,-0.00012,1e-05,1e-05,-6e-05,-0.00026,0.00034,1e-05,-0.00015,6,12
31932,-0.00012,1e-05,1e-05,-6e-05,-0.00026,0.00034,1e-05,-0.00015,6,12
31933,-0.00012,1e-05,1e-05,-6e-05,-0.00026,0.00034,1e-05,-0.00015,6,12
31934,-0.00012,1e-05,1e-05,-6e-05,-0.00026,0.00034,1e-05,-0.00015,6,12
31935,-0.00012,1e-05,1e-05,-6e-05,-0.00026,0.00034,1e-05,-0.00015,6,12
31936,-0.00012,1e-05,1e-05,-6e-05,-0.00026,0.00034,1e-05,-0.00015,6,12
31938,-4e-05,-2e-05,-3e-05,3e-05,0.00018,-0.00021,-8e-05,1e-05,6,12
31939,-1e-05,-3e-05,-1e-05,1e-05,0.0001,0.00043,0.0001,-3e-05,6,12
31940,-1e-05,-3e-05,-1e-05,1e-05,0.0001,0.00043,0.0001,-3e-05,6,12
31941,-1e-05,-3e-05,-1e-05,1e-05,0.0001,0.00043,0.0001,-3e-05,6,12
31942,-1e-05,-3e-05,-1e-05,1e-05,0.0001,0.00043,0.0001,-3e-05,6,12
31943,-1e-05,-3e-05,-1e-05,1e-05,0.0001,0.00043,0.0001,-3e-05,6,12
31944,-1e-05,-3e-05,-1e-05,1e-05,0.0001,0.00043,0.0001,-3e-05,6,12
31945,-1e-05,-3e-05,-1e-05,1e-05,0.0001,0.00043,0.0001,-3e-05,6,12
31946,-1e-05,-3e-05,-1e-05,1e-05,0.0001,0.00043,0.0001,-3e-05,6,12
31947,-1e-05,-3e-05,-1e-05,1e-05,0.0001,0.00043,0.0001,-3e-05,6,12
31948,-1e-05,-3e-05,-1e-05,1e-05,0.0001,0.00043,0.0001,-3e-05,6,12
31949,-1e-05,-3e-05,-1e-05,1e-05,0.0001,0.00043,0.0001,-3e-05,6,12
31950,-1e-05,-3e-05,-1e-05,1e-05,0.0001,0.00043,0.0001,-3e-05,6,12
31951,-1e-05,-3e-05,-1e-05,1e-05,0.0001,0.00043,0.0001,-3e-05,6,12
31952,-1e-05,-3e-05,-1e-05,1e-05,0.0001,0.00043,0.0001,-3e-05,6,12
31953,-1e-05,-3e-05,-1e-05,1e-05,0.0001,0.00043,0.0001,-3e-05,6,12
31954,-1e-05,-3e-05,-1e-05,1e-05,0.0001,0.00043,0.0001,-3e-05,6,12
31955,-1e-05,-3e-05,-1e-05,1e-05,0.0001,0.00043,0.0001,-3e-05,6,12
31956,-1e-05,-3e-05,-1e-05,1e-05,0.0001,0.00043,0.0001,-3e-05,6,12
31957,-1e-05,-3e-05,-1e-05,1e-05,0.0001,0.00043,0.0001,-3e-05,6,12
31958,-1e-05,-3e-05,-1e-05,1e-05,0.0001,0.00043,0.0001,-3e-05,6,12
31959,-1e-05,-3e-05,-1e-05,1e-05,0.0001,0.00043,0.0001,-3e-05,6,12
31960,3e-05,0,-2e-05,-1e-05,-1e-05,0.00039,5e-05,-5e-05,6,12
31961,-3e-05,0,1e-05,0,-2e-05,-0.00028,-2e-05,-0.00012,6,12
31962,-3e-05,0,1e-05,0,-2e-05,-0.00028,-2e-05,-0.00012,6,12
31963,-3e-05,0,1e-05,0,-2e-05,-0.00028,-2e-05,-0.00012,6,12
31964,-3e-05,0,1e-05,0,-2e-05,-0.00028,-2e-05,-0.00012,6,12
31965,-3e-05,0,1e-05,0,-2e-05,-0.00028,-2e-05,-0.00012,6,12
31966,-3e-05,0,1e-05,0,-2e-05,-0.00028,-2e-05,-0.00012,6,12
31967,-3e-05,0,1e-05,0,-2e-05,-0.00028,-2e-05,-0.00012,6,12
31968,-3e-05,0,1e-05,0,-2e-05,-0.00028,-2e-05,-0.00012,6,12
31969,-3e-05,0,1e-05,0,-2e-05,-0.00028,-2e-05,-0.00012,6,12
31970,-3e-05,0,1e-05,0,-2e-05,-0.00028,-2e-05,-0.00012,6,12
31971,-3e-05,0,1e-05,0,-2e-05,-0.00028,-2e-05,-0.00012,6,12
31972,-3e-05,0,1e-05,0,-2e-05,-0.00028,-2e-05,-0.00012,6,12
31973,6e-05,0,-1e-05,-1e-05,2e-05,-1e-05,0,-2e-05,6,12
31974,-2e-05,-1e-05,-2e-05,-4e-05,-0.00012,-0.00043,-1e-05,7e-05,6,12
31975,-2e-05,-1e-05,-2e-05,-4e-05,-0.00012,-0.00043,-1e-05,7e-05,6,12
31976,-2e-05,-1e-05,-2e-05,-4e-05,-0.00012,-0.00043,-1e-05,7e-05,6,12
31977,-2e-05,-1e-05,-2e-05,-4e-05,-0.00012,-0.00043,-1e-05,7e-05,6,12
31978,-2e-05,-1e-05,-2e-05,-4e-05,-0.00012,-0.00043,-1e-05,7e-05,6,12
31979,-2e-05,-1e-05,-2e-05,-4e-05,-0.00012,-0.00043,-1e-05,7e-05,6,12
31980,-2e-05,-1e-05,-2e-05,-4e-05,-0.00012,-0.00043,-1e-05,7e-05,6,12
31981,-2e-05,-1e-05,-2e-05,-4e-05,-0.00012,-0.00043,-1e-05,7e-05,6,12
31982,7e-05,2e-05,0,-1e-05,0,4e-05,0.00011,0.00014,6,12
31983,7e-05,2e-05,0,-1e-05,0,4e-05,0.00011,0.00014,6,12
31984,7e-05,2e-05,0,-1e-05,0,4e-05,0.00011,0.00014,6,12
31985,7e-05,2e-05,0,-1e-05,0,4e-05,0.00011,0.00014,6,12
31986,7e-05,2e-05,0,-1e-05,0,4e-05,0.00011,0.00014,6,12
31988,7e-05,2e-05,0,-1e-05,0,4e-05,0.00011,0.00014,6,12
31989,7e-05,2e-05,0,-1e-05,0,4e-05,0.00011,0.00014,6,12
31990,7e-05,2e-05,0,-1e-05,0,4e-05,0.00011,0.00014,6,12
31991,7e-05,2e-05,0,-1e-05,0,4e-05,0.00011,0.00014,6,12
31992,7e-05,2e-05,0,-1e-05,0,4e-05,0.00011,0.00014,6,12
31993,7e-05,2e-05,0,-1e-05,0,4e-05,0.00011,0.00014,6,12
31994,7e-05,2e-05,0,-1e-05,0,4e-05,0.00011,0.00014,6,12
31995,7e-05,2e-05,0,-1e-05,0,4e-05,0.00011,0.00014,6,12
31996,7e-05,2e-05,0,-1e-05,0,4e-05,0.00011,0.00014,6,12
31997,-3e-05,-1e-05,-1e-05,-7e-05,-0.00018,3e-05,-2e-05,7e-05,6,12
31998,-3e-05,-1e-05,-1e-05,-7e-05,-0.00018,3e-05,-2e-05,7e-05,6,12
31999,-0.00011,-3e-05,-4e-05,3e-05,-7e-05,-8e-05,-8e-05,-5e-05,6,12
32000,-0.00011,-3e-05,-4e-05,3e-05,-7e-05,-8e-05,-8e-05,-5e-05,6,12
32001,-0.00011,-3e-05,-4e-05,3e-05,-7e-05,-8e-05,-8e-05,-5e-05,6,12
32002,-0.00011,-3e-05,-4e-05,3e-05,-7e-05,-8e-05,-8e-05,-5e-05,6,12
32003,-0.00011,-3e-05,-4e-05,3e-05,-7e-05,-8e-05,-8e-05,-5e-05,6,12
32004,-0.00011,-3e-05,-4e-05,3e-05,-7e-05,-8e-05,-8e-05,-5e-05,6,12
32005,-0.00011,-3e-05,-4e-05,3e-05,-7e-05,-8e-05,-8e-05,-5e-05,6,12
32006,-0.00011,-3e-05,-4e-05,3e-05,-7e-05,-8e-05,-8e-05,-5e-05,6,12
32007,-0.00011,-3e-05,-4e-05,3e-05,-7e-05,-8e-05,-8e-05,-5e-05,6,12
32008,-0.00011,-3e-05,-4e-05,3e-05,-7e-05,-8e-05,-8e-05,-5e-05,6,12
32009,-0.00011,-3e-05,-4e-05,3e-05,-7e-05,-8e-05,-8e-05,-5e-05,6,12
32010,-0.00011,-3e-05,-4e-05,3e-05,-7e-05,-8e-05,-8e-05,-5e-05,6,12
32011,-0.00011,-3e-05,-4e-05,3e-05,-7e-05,-8e-05,-8e-05,-5e-05,6,12
32012,-0.00011,-3e-05,-4e-05,3e-05,-7e-05,-8e-05,-8e-05,-5e-05,6,12
32013,-0.00011,-3e-05,-4e-05,3e-05,-7e-05,-8e-05,-8e-05,-5e-05,6,12
32014,-0.00011,-3e-05,-4e-05,3e-05,-7e-05,-8e-05,-8e-05,-5e-05,6,12
32015,-0.00011,-3e-05,-4e-05,3e-05,-7e-05,-8e-05,-8e-05,-5e-05,6,12
32016,-0.00011,-3e-05,-4e-05,3e-05,-7e-05,-8e-05,-8e-05,-5e-05,6,12
32017,-0.00011,-3e-05,-4e-05,3e-05,-7e-05,-8e-05,-8e-05,-5e-05,6,12
32018,-0.00011,-3e-05,-4e-05,3e-05,-7e-05,-8e-05,-8e-05,-5e-05,6,12
32019,-0.00011,-3e-05,-4e-05,3e-05,-7e-05,-8e-05,-8e-05,-5e-05,6,12
32020,-0.00011,-3e-05,-4e-05,3e-05,-7e-05,-8e-05,-8e-05,-5e-05,6,12
32021,0.00011,1e-05,-2e-05,2e-05,0.00015,-0.00019,-4e-05,9e-05,6,12
32023,0.00011,1e-05,-2e-05,2e-05,0.00015,-0.00019,-4e-05,9e-05,6,12
32024,0.00011,1e-05,-2e-05,2e-05,0.00015,-0.00019,-4e-05,9e-05,6,12
32025,0.00011,1e-05,-2e-05,2e-05,0.00015,-0.00019,-4e-05,9e-05,6,12
32026,0.00011,1e-05,-2e-05,2e-05,0.00015,-0.00019,-4e-05,9e-05,6,12
32027,0.00011,1e-05,-2e-05,2e-05,0.00015,-0.00019,-4e-05,9e-05,6,12
32028,0.00011,1e-05,-2e-05,2e-05,0.00015,-0.00019,-4e-05,9e-05,6,12
32029,0.00011,1e-05,-2e-05,2e-05,0.00015,-0.00019,-4e-05,9e-05,6,12
32030,0.00011,1e-05,-2e-05,2e-05,0.00015,-0.00019,-4e-05,9e-05,6,12
32031,0.00011,1e-05,-2e-05,2e-05,0.00015,-0.00019,-4e-05,9e-05,6,12
32032,0.00011,1e-05,-2e-05,2e-05,0.00015,-0.00019,-4e-05,9e-05,6,12
32033,0.00011,1e-05,-2e-05,2e-05,0.00015,-0.00019,-4e-05,9e-05,6,12
32034,0.00011,1e-05,-2e-05,2e-05,0.00015,-0.00019,-4e-05,9e-05,6,12
32035,0.00011,1e-05,-2e-05,2e-05,0.00015,-0.00019,-4e-05,9e-05,6,12
32036,0.00011,1e-05,-2e-05,2e-05,0.00015,-0.00019,-4e-05,9e-05,6,12
32038,0.00011,1e-05,-2e-05,2e-05,0.00015,-0.00019,-4e-05,9e-05,6,12
32039,0.00011,1e-05,-2e-05,2e-05,0.00015,-0.00019,-4e-05,9e-05,6,12
32040,0.00011,1e-05,-2e-05,2e-05,0.00015,-0.00019,-4e-05,9e-05,6,12
32041,0.00011,1e-05,-2e-05,2e-05,0.00015,-0.00019,-4e-05,9e-05,6,12
32042,-9e-05,-7e-05,-7e-05,-4e-05,8e-05,0,-4e-05,-0.00012,6,12
32043,-9e-05,-7e-05,-7e-05,-4e-05,8e-05,0,-4e-05,-0.00012,6,12
32044,1e-05,0,0,4e-05,3e-05,0.00023,-5e-05,0,6,12
32045,1e-05,0,0,4e-05,3e-05,0.00023,-5e-05,0,6,12
32046,1e-05,0,0,4e-05,3e-05,0.00023,-5e-05,0,6,12
32047,1e-05,0,0,4e-05,3e-05,0.00023,-5e-05,0,6,12
32048,1e-05,0,0,4e-05,3e-05,0.00023,-5e-05,0,6,12
32049,1e-05,0,0,4e-05,3e-05,0.00023,-5e-05,0,6,12
32050,1e-05,0,0,4e-05,3e-05,0.00023,-5e-05,0,6,12
32051,1e-05,0,0,4e-05,3e-05,0.00023,-5e-05,0,6,12
32052,1e-05,0,0,4e-05,3e-05,0.00023,-5e-05,0,6,12
32053,1e-05,0,0,4e-05,3e-05,0.00023,-5e-05,0,6,12
32054,1e-05,0,0,4e-05,3e-05,0.00023,-5e-05,0,6,12
32055,1e-05,0,0,4e-05,3e-05,0.00023,-5e-05,0,6,12
32056,1e-05,0,0,4e-05,3e-05,0.00023,-5e-05,0,6,12
32057,4e-05,1e-05,5e-05,5e-05,3e-05,4e-05,-1e-05,1e-05,6,12
32058,4e-05,1e-05,5e-05,5e-05,3e-05,4e-05,-1e-05,1e-05,6,12
32059,-0.00018,-4e-05,1e-05,1e-05,5e-05,-1e-05,2e-05,1e-05,6,12
32060,-0.00018,-4e-05,1e-05,1e-05,5e-05,-1e-05,2e-05,1e-05,6,12
32061,-0.00018,-4e-05,1e-05,1e-05,5e-05,-1e-05,2e-05,1e-05,6,12
32062,-0.00018,-4e-05,1e-05,1e-05,5e-05,-1e-05,2e-05,1e-05,6,12
32063,-0.00018,-4e-05,1e-05,1e-05,5e-05,-1e-05,2e-05,1e-05,6,12
32064,-0.00018,-4e-05,1e-05,1e-05,5e-05,-1e-05,2e-05,1e-05,6,12
32065,-0.00018,-4e-05,1e-05,1e-05,5e-05,-1e-05,2e-05,1e-05,6,12
32066,-0.00018,-4e-05,1e-05,1e-05,5e-05,-1e-05,2e-05,1e-05,6,12
32067,-0.00018,-4e-05,1e-05,1e-05,5e-05,-1e-05,2e-05,1e-05,6,12
32068,-0.00018,-4e-05,1e-05,1e-05,5e-05,-1e-05,2e-05,1e-05,6,12
32069,-0.00018,-4e-05,1e-05,1e-05,5e-05,-1e-05,2e-05,1e-05,6,12
32070,-0.00018,-4e-05,1e-05,1e-05,5e-05,-1e-05,2e-05,1e-05,6,12
32071,-0.00018,-4e-05,1e-05,1e-05,5e-05,-1e-05,2e-05,1e-05,6,12
32072,-0.00018,-4e-05,1e-05,1e-05,5e-05,-1e-05,2e-05,1e-05,6,12
32073,-0.00018,-4e-05,1e-05,1e-05,5e-05,-1e-05,2e-05,1e-05,6,12
32074,-0.00018,-4e-05,1e-05,1e-05,5e-05,-1e-05,2e-05,1e-05,6,12
32075,-0.00018,-4e-05,1e-05,1e-05,5e-05,-1e-05,2e-05,1e-05,6,12
32076,-0.00018,-4e-05,1e-05,1e-05,5e-05,-1e-05,2e-05,1e-05,6,12
32077,-0.00018,-4e-05,1e-05,1e-05,5e-05,-1e-05,2e-05,1e-05,6,12
32078,-0.00018,-4e-05,1e-05,1e-05,5e-05,-1e-05,2e-05,1e-05,6,12
32079,-0.00018,-4e-05,1e-05,1e-05,5e-05,-1e-05,2e-05,1e-05,6,12
32080,7e-05,-2e-05,-2e-05,-1e-05,1e-05,-5e-05,1e-05,0.00014,6,12
32081,1e-05,-1e-05,0,6e-05,0.00036,8e-05,-5e-05,-9e-05,6,12
32082,1e-05,-1e-05,0,6e-05,0.00036,8e-05,-5e-05,-9e-05,6,12
32083,1e-05,-1e-05,0,6e-05,0.00036,8e-05,-5e-05,-9e-05,6,12
32084,1e-05,-1e-05,0,6e-05,0.00036,8e-05,-5e-05,-9e-05,6,12
32085,1e-05,-1e-05,0,6e-05,0.00036,8e-05,-5e-05,-9e-05,6,12
32086,1e-05,-1e-05,0,6e-05,0.00036,8e-05,-5e-05,-9e-05,6,12
32088,1e-05,-1e-05,0,6e-05,0.00036,8e-05,-5e-05,-9e-05,6,12
32089,1e-05,-1e-05,0,6e-05,0.00036,8e-05,-5e-05,-9e-05,6,12
32090,1e-05,-1e-05,0,6e-05,0.00036,8e-05,-5e-05,-9e-05,6,12
32091,1e-05,-1e-05,0,6e-05,0.00036,8e-05,-5e-05,-9e-05,6,12
32092,1e-05,-1e-05,0,6e-05,0.00036,8e-05,-5e-05,-9e-05,6,12
32093,1e-05,-1e-05,0,6e-05,0.00036,8e-05,-5e-05,-9e-05,6,12
32094,1e-05,-1e-05,0,6e-05,0.00036,8e-05,-5e-05,-9e-05,6,12
32095,1e-05,-1e-05,0,6e-05,0.00036,8e-05,-5e-05,-9e-05,6,12
32096,1e-05,-1e-05,0,6e-05,0.00036,8e-05,-5e-05,-9e-05,6,12
32097,1e-05,-1e-05,0,6e-05,0.00036,8e-05,-5e-05,-9e-05,6,12
32098,1e-05,-1e-05,0,6e-05,0.00036,8e-05,-5e-05,-9e-05,6,12
32099,1e-05,-1e-05,0,6e-05,0.00036,8e-05,-5e-05,-9e-05,6,12
32100,1e-05,-1e-05,0,6e-05,0.00036,8e-05,-5e-05,-9e-05,6,12
32101,1e-05,-1e-05,0,6e-05,0.00036,8e-05,-5e-05,-9e-05,6,12
32102,1e-05,-1e-05,0,6e-05,0.00036,8e-05,-5e-05,-9e-05,6,12
32103,6e-05,0,0,6e-05,7e-05,-0.00017,-8e-05,8e-05,6,12
32104,0.00011,0,-4e-05,-4e-05,-0.00013,-0.00018,-7e-05,3e-05,6,12
32105,0.00011,0,-4e-05,-4e-05,-0.00013,-0.00018,-7e-05,3e-05,6,12
32106,0.00011,0,-4e-05,-4e-05,-0.00013,-0.00018,-7e-05,3e-05,6,12
32107,0.00011,0,-4e-05,-4e-05,-0.00013,-0.00018,-7e-05,3e-05,6,12
32108,0.00011,0,-4e-05,-4e-05,-0.00013,-0.00018,-7e-05,3e-05,6,12
32109,0.00011,0,-4e-05,-4e-05,-0.00013,-0.00018,-7e-05,3e-05,6,12
32110,0.00011,0,-4e-05,-4e-05,-0.00013,-0.00018,-7e-05,3e-05,6,12
32111,0.00011,0,-4e-05,-4e-05,-0.00013,-0.00018,-7e-05,3e-05,6,12
32112,0.00011,0,-4e-05,-4e-05,-0.00013,-0.00018,-7e-05,3e-05,6,12
32113,0.00011,0,-4e-05,-4e-05,-0.00013,-0.00018,-7e-05,3e-05,6,12
32114,0.00011,0,-4e-05,-4e-05,-0.00013,-0.00018,-7e-05,3e-05,6,12
32115,0.00011,0,-4e-05,-4e-05,-0.00013,-0.00018,-7e-05,3e-05,6,12
32116,0.00011,0,-4e-05,-4e-05,-0.00013,-0.00018,-7e-05,3e-05,6,12
32117,0.00011,0,-4e-05,-4e-05,-0.00013,-0.00018,-7e-05,3e-05,6,12
32118,0.00011,0,-4e-05,-4e-05,-0.00013,-0.00018,-7e-05,3e-05,6,12
32119,0.00011,0,-4e-05,-4e-05,-0.00013,-0.00018,-7e-05,3e-05,6,12
32120,0.00011,0,-4e-05,-4e-05,-0.00013,-0.00018,-7e-05,3e-05,6,12
32121,0.00011,0,-4e-05,-4e-05,-0.00013,-0.00018,-7e-05,3e-05,6,12
32122,0.00011,0,-4e-05,-4e-05,-0.00013,-0.00018,-7e-05,3e-05,6,12
32123,0.00011,0,-4e-05,-4e-05,-0.00013,-0.00018,-7e-05,3e-05,6,12
32124,0.00011,0,-4e-05,-4e-05,-0.00013,-0.00018,-7e-05,3e-05,6,12
32125,0,1e-05,2e-05,4e-05,5e-05,0.00048,8e-05,9e-05,6,12
32126,5e-05,2e-05,2e-05,2e-05,5e-05,3e-05,4e-05,1e-05,6,12
32127,5e-05,2e-05,2e-05,2e-05,5e-05,3e-05,4e-05,1e-05,6,12
32128,5e-05,2e-05,2e-05,2e-05,5e-05,3e-05,4e-05,1e-05,6,12
32129,5e-05,2e-05,2e-05,2e-05,5e-05,3e-05,4e-05,1e-05,6,12
32130,5e-05,2e-05,2e-05,2e-05,5e-05,3e-05,4e-05,1e-05,6,12
32131,5e-05,2e-05,2e-05,2e-05,5e-05,3e-05,4e-05,1e-05,6,12
32132,5e-05,2e-05,2e-05,2e-05,5e-05,3e-05,4e-05,1e-05,6,12
32133,5e-05,2e-05,2e-05,2e-05,5e-05,3e-05,4e-05,1e-05,6,12
32134,5e-05,2e-05,2e-05,2e-05,5e-05,3e-05,4e-05,1e-05,6,12
32135,5e-05,2e-05,2e-05,2e-05,5e-05,3e-05,4e-05,1e-05,6,12
32136,5e-05,2e-05,2e-05,2e-05,5e-05,3e-05,4e-05,1e-05,6,12
32138,5e-05,2e-05,2e-05,2e-05,5e-05,3e-05,4e-05,1e-05,6,12
32139,5e-05,2e-05,2e-05,2e-05,5e-05,3e-05,4e-05,1e-05,6,12
32140,-6e-05,1e-05,-1e-05,-5e-05,-4e-05,-0.00021,-5e-05,-5e-05,6,12
32141,6e-05,0,-2e-05,-7e-05,-0.00017,0.00013,0.00013,2e-05,6,12
32142,6e-05,0,-2e-05,-7e-05,-0.00017,0.00013,0.00013,2e-05,6,12
32143,6e-05,0,-2e-05,-7e-05,-0.00017,0.00013,0.00013,2e-05,6,12
32144,6e-05,0,-2e-05,-7e-05,-0.00017,0.00013,0.00013,2e-05,6,12
32145,6e-05,0,-2e-05,-7e-05,-0.00017,0.00013,0.00013,2e-05,6,12
32146,6e-05,0,-2e-05,-7e-05,-0.00017,0.00013,0.00013,2e-05,6,12
32147,6e-05,0,-2e-05,-7e-05,-0.00017,0.00013,0.00013,2e-05,6,12
32148,6e-05,0,-2e-05,-7e-05,-0.00017,0.00013,0.00013,2e-05,6,12
32149,6e-05,0,-2e-05,-7e-05,-0.00017,0.00013,0.00013,2e-05,6,12
32150,6e-05,0,-2e-05,-7e-05,-0.00017,0.00013,0.00013,2e-05,6,12
32151,6e-05,0,-2e-05,-7e-05,-0.00017,0.00013,0.00013,2e-05,6,12
32152,6e-05,0,-2e-05,-7e-05,-0.00017,0.00013,0.00013,2e-05,6,12
32153,6e-05,0,-2e-05,-7e-05,-0.00017,0.00013,0.00013,2e-05,6,12
32154,6e-05,0,-2e-05,-7e-05,-0.00017,0.00013,0.00013,2e-05,6,12
32155,6e-05,0,-2e-05,-7e-05,-0.00017,0.00013,0.00013,2e-05,6,12
32156,6e-05,0,-2e-05,-7e-05,-0.00017,0.00013,0.00013,2e-05,6,12
32157,6e-05,0,-2e-05,-7e-05,-0.00017,0.00013,0.00013,2e-05,6,12
32158,6e-05,0,-2e-05,-7e-05,-0.00017,0.00013,0.00013,2e-05,6,12
32159,6e-05,0,-2e-05,-7e-05,-0.00017,0.00013,0.00013,2e-05,6,12
32160,6e-05,0,-2e-05,-7e-05,-0.00017,0.00013,0.00013,2e-05,6,12
32161,6e-05,0,-2e-05,-7e-05,-0.00017,0.00013,0.00013,2e-05,6,12
32162,-0.0001,-1e-05,0,-4e-05,-0.00017,3e-05,9e-05,0,6,12
32163,-0.0001,-1e-05,0,-4e-05,-0.00017,3e-05,9e-05,0,6,12
32164,0,-4e-05,-3e-05,-2e-05,-0.00013,-0.00025,0.00011,5e-05,6,12
32165,0,-4e-05,-3e-05,-2e-05,-0.00013,-0.00025,0.00011,5e-05,6,12
32166,0,-4e-05,-3e-05,-2e-05,-0.00013,-0.00025,0.00011,5e-05,6,12
32167,0,-4e-05,-3e-05,-2e-05,-0.00013,-0.00025,0.00011,5e-05,6,12
32168,0,-4e-05,-3e-05,-2e-05,-0.00013,-0.00025,0.00011,5e-05,6,12
32169,0,-4e-05,-3e-05,-2e-05,-0.00013,-0.00025,0.00011,5e-05,6,12
32170,0,-4e-05,-3e-05,-2e-05,-0.00013,-0.00025,0.00011,5e-05,6,12
32172,0,-4e-05,-3e-05,-2e-05,-0.00013,-0.00025,0.00011,5e-05,6,12
32173,0,-4e-05,-3e-05,-2e-05,-0.00013,-0.00025,0.00011,5e-05,6,12
32174,0,-4e-05,-3e-05,-2e-05,-0.00013,-0.00025,0.00011,5e-05,6,12
32175,0,-4e-05,-3e-05,-2e-05,-0.00013,-0.00025,0.00011,5e-05,6,12
32176,0,-4e-05,-3e-05,-2e-05,-0.00013,-0.00025,0.00011,5e-05,6,12
32177,-5e-05,-4e-05,-5e-05,-3e-05,0.00014,-0.00022,-3e-05,8e-05,6,12
32178,-5e-05,-4e-05,-5e-05,-3e-05,0.00014,-0.00022,-3e-05,8e-05,6,12
32179,-0.00019,2e-05,5e-05,2e-05,0.00012,-0.00022,-0.00024,-0.00031,6,12
32180,-0.00019,2e-05,5e-05,2e-05,0.00012,-0.00022,-0.00024,-0.00031,6,12
32181,-0.00019,2e-05,5e-05,2e-05,0.00012,-0.00022,-0.00024,-0.00031,6,12
32182,-0.00019,2e-05,5e-05,2e-05,0.00012,-0.00022,-0.00024,-0.00031,6,12
32183,-0.00019,2e-05,5e-05,2e-05,0.00012,-0.00022,-0.00024,-0.00031,6,12
32184,-0.00019,2e-05,5e-05,2e-05,0.00012,-0.00022,-0.00024,-0.00031,6,12
32185,-0.00019,2e-05,5e-05,2e-05,0.00012,-0.00022,-0.00024,-0.00031,6,12
32186,-0.00019,2e-05,5e-05,2e-05,0.00012,-0.00022,-0.00024,-0.00031,6,12
32188,-0.00019,2e-05,5e-05,2e-05,0.00012,-0.00022,-0.00024,-0.00031,6,12
32189,-0.00019,2e-05,5e-05,2e-05,0.00012,-0.00022,-0.00024,-0.00031,6,12
32190,-0.00019,2e-05,5e-05,2e-05,0.00012,-0.00022,-0.00024,-0.00031,6,12
32191,-0.00019,2e-05,5e-05,2e-05,0.00012,-0.00022,-0.00024,-0.00031,6,12
32192,-0.00019,2e-05,5e-05,2e-05,0.00012,-0.00022,-0.00024,-0.00031,6,12
32193,-0.00019,2e-05,5e-05,2e-05,0.00012,-0.00022,-0.00024,-0.00031,6,12
32194,-0.00019,2e-05,5e-05,2e-05,0.00012,-0.00022,-0.00024,-0.00031,6,12
32195,-0.00019,2e-05,5e-05,2e-05,0.00012,-0.00022,-0.00024,-0.00031,6,12
32196,-0.00019,2e-05,5e-05,2e-05,0.00012,-0.00022,-0.00024,-0.00031,6,12
32197,-0.00019,2e-05,5e-05,2e-05,0.00012,-0.00022,-0.00024,-0.00031,6,12
32198,-0.00019,2e-05,5e-05,2e-05,0.00012,-0.00022,-0.00024,-0.00031,6,12
32199,-0.00019,2e-05,5e-05,2e-05,0.00012,-0.00022,-0.00024,-0.00031,6,12
32200,0,0,-2e-05,-6e-05,-0.00013,0.00015,-7e-05,-0.0002,6,12
32201,8e-05,-4e-05,-2e-05,0,5e-05,-0.0001,3e-05,0.00016,6,12
32202,8e-05,-4e-05,-2e-05,0,5e-05,-0.0001,3e-05,0.00016,6,12
32203,8e-05,-4e-05,-2e-05,0,5e-05,-0.0001,3e-05,0.00016,6,12
32204,8e-05,-4e-05,-2e-05,0,5e-05,-0.0001,3e-05,0.00016,6,12
32205,8e-05,-4e-05,-2e-05,0,5e-05,-0.0001,3e-05,0.00016,6,12
32206,8e-05,-4e-05,-2e-05,0,5e-05,-0.0001,3e-05,0.00016,6,12
32207,8e-05,-4e-05,-2e-05,0,5e-05,-0.0001,3e-05,0.00016,6,12
32208,8e-05,-4e-05,-2e-05,0,5e-05,-0.0001,3e-05,0.00016,6,12
32209,8e-05,-4e-05,-2e-05,0,5e-05,-0.0001,3e-05,0.00016,6,12
32210,8e-05,-4e-05,-2e-05,0,5e-05,-0.0001,3e-05,0.00016,6,12
32211,8e-05,-4e-05,-2e-05,0,5e-05,-0.0001,3e-05,0.00016,6,12
32212,8e-05,-4e-05,-2e-05,0,5e-05,-0.0001,3e-05,0.00016,6,12
32213,8e-05,-4e-05,-2e-05,0,5e-05,-0.0001,3e-05,0.00016,6,12
32214,8e-05,-4e-05,-2e-05,0,5e-05,-0.0001,3e-05,0.00016,6,12
32215,8e-05,-4e-05,-2e-05,0,5e-05,-0.0001,3e-05,0.00016,6,12
32216,8e-05,-4e-05,-2e-05,0,5e-05,-0.0001,3e-05,0.00016,6,12
32217,8e-05,-4e-05,-2e-05,0,5e-05,-0.0001,3e-05,0.00016,6,12
32218,8e-05,-4e-05,-2e-05,0,5e-05,-0.0001,3e-05,0.00016,6,12
32219,8e-05,-4e-05,-2e-05,0,5e-05,-0.0001,3e-05,0.00016,6,12
32220,8e-05,-4e-05,-2e-05,0,5e-05,-0.0001,3e-05,0.00016,6,12
32221,8e-05,-4e-05,-2e-05,0,5e-05,-0.0001,3e-05,0.00016,6,12
32222,-4e-05,1e-05,2e-05,7e-05,0.00028,-0.00017,-2e-05,-0.00012,6,12
32223,-4e-05,1e-05,2e-05,7e-05,0.00028,-0.00017,-2e-05,-0.00012,6,12
32224,0.0002,2e-05,2e-05,3e-05,5e-05,0.00062,-6e-05,7e-05,6,12
32225,0.0002,2e-05,2e-05,3e-05,5e-05,0.00062,-6e-05,7e-05,6,12
32226,0.0002,2e-05,2e-05,3e-05,5e-05,0.00062,-6e-05,7e-05,6,12
32227,0.0002,2e-05,2e-05,3e-05,5e-05,0.00062,-6e-05,7e-05,6,12
32228,0.0002,2e-05,2e-05,3e-05,5e-05,0.00062,-6e-05,7e-05,6,12
32229,0.0002,2e-05,2e-05,3e-05,5e-05,0.00062,-6e-05,7e-05,6,12
32230,0.0002,2e-05,2e-05,3e-05,5e-05,0.00062,-6e-05,7e-05,6,12
32231,0.0002,2e-05,2e-05,3e-05,5e-05,0.00062,-6e-05,7e-05,6,12
32232,0.0002,2e-05,2e-05,3e-05,5e-05,0.00062,-6e-05,7e-05,6,12
32233,0.0002,2e-05,2e-05,3e-05,5e-05,0.00062,-6e-05,7e-05,6,12
32234,0.0002,2e-05,2e-05,3e-05,5e-05,0.00062,-6e-05,7e-05,6,12
32235,0.0002,2e-05,2e-05,3e-05,5e-05,0.00062,-6e-05,7e-05,6,12
32236,0.0002,2e-05,2e-05,3e-05,5e-05,0.00062,-6e-05,7e-05,6,12
32238,-3e-05,-3e-05,-3e-05,1e-05,0.00015,0.00026,0.00011,-0.00015,6,12
32239,-3e-05,-3e-05,-3e-05,1e-05,0.00015,0.00026,0.00011,-0.00015,6,12
32240,-3e-05,-3e-05,-3e-05,1e-05,0.00015,0.00026,0.00011,-0.00015,6,12
32241,-3e-05,-3e-05,-3e-05,1e-05,0.00015,0.00026,0.00011,-0.00015,6,12
32242,-3e-05,-3e-05,-3e-05,1e-05,0.00015,0.00026,0.00011,-0.00015,6,12
32243,-1e-05,-3e-05,-7e-05,-0.00011,-7e-05,0.00015,1e-05,6e-05,6,12
32245,-1e-05,-3e-05,-7e-05,-0.00011,-7e-05,0.00015,1e-05,6e-05,6,12
32246,-1e-05,-3e-05,-7e-05,-0.00011,-7e-05,0.00015,1e-05,6e-05,6,12
32247,-1e-05,-3e-05,-7e-05,-0.00011,-7e-05,0.00015,1e-05,6e-05,6,12
32248,-1e-05,-3e-05,-7e-05,-0.00011,-7e-05,0.00015,1e-05,6e-05,6,12
32249,-1e-05,-3e-05,-7e-05,-0.00011,-7e-05,0.00015,1e-05,6e-05,6,12
32250,-1e-05,-3e-05,-7e-05,-0.00011,-7e-05,0.00015,1e-05,6e-05,6,12
32251,-1e-05,-3e-05,-7e-05,-0.00011,-7e-05,0.00015,1e-05,6e-05,6,12
32252,-1e-05,-3e-05,-7e-05,-0.00011,-7e-05,0.00015,1e-05,6e-05,6,12
32253,-1e-05,-3e-05,-7e-05,-0.00011,-7e-05,0.00015,1e-05,6e-05,6,12
32254,-1e-05,-3e-05,-7e-05,-0.00011,-7e-05,0.00015,1e-05,6e-05,6,12
32255,-1e-05,-3e-05,-7e-05,-0.00011,-7e-05,0.00015,1e-05,6e-05,6,12
32256,-1e-05,-3e-05,-7e-05,-0.00011,-7e-05,0.00015,1e-05,6e-05,6,12
32257,-1e-05,-3e-05,-7e-05,-0.00011,-7e-05,0.00015,1e-05,6e-05,6,12
32258,-1e-05,-3e-05,-7e-05,-0.00011,-7e-05,0.00015,1e-05,6e-05,6,12
32259,-7e-05,0,-1e-05,-3e-05,-0.00027,-0.0001,-0.00011,-0.00025,6,12
32260,-7e-05,0,-1e-05,-3e-05,-0.00027,-0.0001,-0.00011,-0.00025,6,12
32261,-7e-05,0,-1e-05,-3e-05,-0.00027,-0.0001,-0.00011,-0.00025,6,12
32262,-7e-05,0,-1e-05,-3e-05,-0.00027,-0.0001,-0.00011,-0.00025,6,12
32263,-7e-05,0,-1e-05,-3e-05,-0.00027,-0.0001,-0.00011,-0.00025,6,12
32264,-7e-05,0,-1e-05,-3e-05,-0.00027,-0.0001,-0.00011,-0.00025,6,12
32265,-7e-05,0,-1e-05,-3e-05,-0.00027,-0.0001,-0.00011,-0.00025,6,12
32266,-7e-05,0,-1e-05,-3e-05,-0.00027,-0.0001,-0.00011,-0.00025,6,12
32267,0,2e-05,3e-05,3e-05,7e-05,-3e-05,-0.00013,-2e-05,6,12
32268,0,2e-05,3e-05,3e-05,7e-05,-3e-05,-0.00013,-2e-05,6,12
32269,0,2e-05,3e-05,3e-05,7e-05,-3e-05,-0.00013,-2e-05,6,12
32270,0,2e-05,3e-05,3e-05,7e-05,-3e-05,-0.00013,-2e-05,6,12
32271,0,2e-05,3e-05,3e-05,7e-05,-3e-05,-0.00013,-2e-05,6,12
32272,0,2e-05,3e-05,3e-05,7e-05,-3e-05,-0.00013,-2e-05,6,12
32273,0,2e-05,3e-05,3e-05,7e-05,-3e-05,-0.00013,-2e-05,6,12
32274,0,2e-05,3e-05,3e-05,7e-05,-3e-05,-0.00013,-2e-05,6,12
32275,0,2e-05,3e-05,3e-05,7e-05,-3e-05,-0.00013,-2e-05,6,12
32276,0,2e-05,3e-05,3e-05,7e-05,-3e-05,-0.00013,-2e-05,6,12
32277,0,2e-05,3e-05,3e-05,7e-05,-3e-05,-0.00013,-2e-05,6,12
32278,0,2e-05,3e-05,3e-05,7e-05,-3e-05,-0.00013,-2e-05,6,12
32279,0,2e-05,3e-05,3e-05,7e-05,-3e-05,-0.00013,-2e-05,6,12
32280,0,2e-05,3e-05,3e-05,7e-05,-3e-05,-0.00013,-2e-05,6,12
32281,0,2e-05,3e-05,3e-05,7e-05,-3e-05,-0.00013,-2e-05,6,12
32282,1e-05,1e-05,1e-05,6e-05,-2e-05,-0.00019,-7e-05,2e-05,6,12
32283,1e-05,1e-05,1e-05,6e-05,-2e-05,-0.00019,-7e-05,2e-05,6,12
32284,-2e-05,-2e-05,-1e-05,1e-05,8e-05,-0.00013,-1e-05,-6e-05,6,12
32285,-2e-05,-2e-05,-1e-05,1e-05,8e-05,-0.00013,-1e-05,-6e-05,6,12
32286,-2e-05,-2e-05,-1e-05,1e-05,8e-05,-0.00013,-1e-05,-6e-05,6,12
32289,-2e-05,-2e-05,-1e-05,1e-05,8e-05,-0.00013,-1e-05,-6e-05,6,12
32290,-2e-05,-2e-05,-1e-05,1e-05,8e-05,-0.00013,-1e-05,-6e-05,6,12
32291,-2e-05,-2e-05,-1e-05,1e-05,8e-05,-0.00013,-1e-05,-6e-05,6,12
32292,-2e-05,-2e-05,-1e-05,1e-05,8e-05,-0.00013,-1e-05,-6e-05,6,12
32293,-2e-05,-2e-05,-1e-05,1e-05,8e-05,-0.00013,-1e-05,-6e-05,6,12
32294,-2e-05,-2e-05,-1e-05,1e-05,8e-05,-0.00013,-1e-05,-6e-05,6,12
32295,-2e-05,-2e-05,-1e-05,1e-05,8e-05,-0.00013,-1e-05,-6e-05,6,12
32296,-2e-05,-2e-05,-1e-05,1e-05,8e-05,-0.00013,-1e-05,-6e-05,6,12
32297,1e-05,0,-1e-05,-1e-05,-0.00016,-0.00031,-6e-05,0.00013,6,12
32298,1e-05,0,-1e-05,-1e-05,-0.00016,-0.00031,-6e-05,0.00013,6,12
32299,1e-05,0,-1e-05,-1e-05,-0.00016,-0.00031,-6e-05,0.00013,6,12
32300,1e-05,0,-1e-05,-1e-05,-0.00016,-0.00031,-6e-05,0.00013,6,12
32301,1e-05,0,-1e-05,-1e-05,-0.00016,-0.00031,-6e-05,0.00013,6,12
32302,1e-05,0,-1e-05,-1e-05,-0.00016,-0.00031,-6e-05,0.00013,6,12
32303,0.00029,4e-05,-1e-05,-2e-05,1e-05,0.00034,5e-05,0.00028,6,12
32304,-3e-05,-3e-05,-5e-05,-4e-05,-0.00016,-0.00021,2e-05,-3e-05,6,12
32305,-3e-05,-3e-05,-5e-05,-4e-05,-0.00016,-0.00021,2e-05,-3e-05,6,12
32306,-3e-05,-3e-05,-5e-05,-4e-05,-0.00016,-0.00021,2e-05,-3e-05,6,12
32307,-3e-05,-3e-05,-5e-05,-4e-05,-0.00016,-0.00021,2e-05,-3e-05,6,12
32308,-3e-05,-3e-05,-5e-05,-4e-05,-0.00016,-0.00021,2e-05,-3e-05,6,12
32309,-3e-05,-3e-05,-5e-05,-4e-05,-0.00016,-0.00021,2e-05,-3e-05,6,12
32310,-3e-05,-3e-05,-5e-05,-4e-05,-0.00016,-0.00021,2e-05,-3e-05,6,12
32311,-3e-05,-3e-05,-5e-05,-4e-05,-0.00016,-0.00021,2e-05,-3e-05,6,12
32312,-3e-05,-3e-05,-5e-05,-4e-05,-0.00016,-0.00021,2e-05,-3e-05,6,12
32313,-3e-05,-3e-05,-5e-05,-4e-05,-0.00016,-0.00021,2e-05,-3e-05,6,12
32314,-3e-05,-3e-05,-5e-05,-4e-05,-0.00016,-0.00021,2e-05,-3e-05,6,12
32315,-3e-05,-3e-05,-5e-05,-4e-05,-0.00016,-0.00021,2e-05,-3e-05,6,12
32316,-3e-05,-3e-05,-5e-05,-4e-05,-0.00016,-0.00021,2e-05,-3e-05,6,12
32317,-3e-05,-3e-05,-5e-05,-4e-05,-0.00016,-0.00021,2e-05,-3e-05,6,12
32318,-3e-05,-3e-05,-5e-05,-4e-05,-0.00016,-0.00021,2e-05,-3e-05,6,12
32319,-3e-05,-3e-05,-5e-05,-4e-05,-0.00016,-0.00021,2e-05,-3e-05,6,12
32320,0.00024,2e-05,3e-05,5e-05,0.00015,-0.00019,2e-05,8e-05,6,12
32321,-6e-05,-4e-05,-2e-05,1e-05,-1e-05,-0.00033,4e-05,-6e-05,6,12
32322,-6e-05,-4e-05,-2e-05,1e-05,-1e-05,-0.00033,4e-05,-6e-05,6,12
32323,-6e-05,-4e-05,-2e-05,1e-05,-1e-05,-0.00033,4e-05,-6e-05,6,12
32324,-6e-05,-4e-05,-2e-05,1e-05,-1e-05,-0.00033,4e-05,-6e-05,6,12
32325,-6e-05,-4e-05,-2e-05,1e-05,-1e-05,-0.00033,4e-05,-6e-05,6,12
32326,-6e-05,-4e-05,-2e-05,1e-05,-1e-05,-0.00033,4e-05,-6e-05,6,12
32327,-6e-05,-4e-05,-2e-05,1e-05,-1e-05,-0.00033,4e-05,-6e-05,6,12
32328,-6e-05,-4e-05,-2e-05,1e-05,-1e-05,-0.00033,4e-05,-6e-05,6,12
32329,-6e-05,-4e-05,-2e-05,1e-05,-1e-05,-0.00033,4e-05,-6e-05,6,12
32330,-6e-05,-4e-05,-2e-05,1e-05,-1e-05,-0.00033,4e-05,-6e-05,6,12
32331,-6e-05,-4e-05,-2e-05,1e-05,-1e-05,-0.00033,4e-05,-6e-05,6,12
32332,-6e-05,-4e-05,-2e-05,1e-05,-1e-05,-0.00033,4e-05,-6e-05,6,12
32333,-6e-05,-4e-05,-2e-05,1e-05,-1e-05,-0.00033,4e-05,-6e-05,6,12
32334,-6e-05,-4e-05,-2e-05,1e-05,-1e-05,-0.00033,4e-05,-6e-05,6,12
32335,-6e-05,-4e-05,-2e-05,1e-05,-1e-05,-0.00033,4e-05,-6e-05,6,12
32336,-6e-05,-4e-05,-2e-05,1e-05,-1e-05,-0.00033,4e-05,-6e-05,6,12
32338,-6e-05,-4e-05,-2e-05,1e-05,-1e-05,-0.00033,4e-05,-6e-05,6,12
32339,-6e-05,-4e-05,-2e-05,1e-05,-1e-05,-0.00033,4e-05,-6e-05,6,12
32340,-6e-05,-4e-05,-2e-05,1e-05,-1e-05,-0.00033,4e-05,-6e-05,6,12
32341,-6e-05,-4e-05,-2e-05,1e-05,-1e-05,-0.00033,4e-05,-6e-05,6,12
32342,-4e-05,-3e-05,-2e-05,-0.0001,3e-05,0.00041,0.00012,-8e-05,6,12
32343,-4e-05,-3e-05,-2e-05,-0.0001,3e-05,0.00041,0.00012,-8e-05,6,12
32344,3e-05,1e-05,3e-05,4e-05,0.00021,0.00026,0,1e-05,6,12
32345,3e-05,1e-05,3e-05,4e-05,0.00021,0.00026,0,1e-05,6,12
32346,3e-05,1e-05,3e-05,4e-05,0.00021,0.00026,0,1e-05,6,12
32347,3e-05,1e-05,3e-05,4e-05,0.00021,0.00026,0,1e-05,6,12
32348,3e-05,1e-05,3e-05,4e-05,0.00021,0.00026,0,1e-05,6,12
32349,3e-05,1e-05,3e-05,4e-05,0.00021,0.00026,0,1e-05,6,12
32350,3e-05,1e-05,3e-05,4e-05,0.00021,0.00026,0,1e-05,6,12
32351,3e-05,1e-05,3e-05,4e-05,0.00021,0.00026,0,1e-05,6,12
32352,3e-05,1e-05,3e-05,4e-05,0.00021,0.00026,0,1e-05,6,12
32353,3e-05,1e-05,3e-05,4e-05,0.00021,0.00026,0,1e-05,6,12
32354,3e-05,1e-05,3e-05,4e-05,0.00021,0.00026,0,1e-05,6,12
32355,3e-05,1e-05,3e-05,4e-05,0.00021,0.00026,0,1e-05,6,12
32356,3e-05,1e-05,3e-05,4e-05,0.00021,0.00026,0,1e-05,6,12
32357,1e-05,-3e-05,-0.0001,-0.00016,-0.00029,-0.00026,-2e-05,5e-05,6,12
32358,1e-05,-3e-05,-0.0001,-0.00016,-0.00029,-0.00026,-2e-05,5e-05,6,12
32359,1e-05,-3e-05,-0.0001,-0.00016,-0.00029,-0.00026,-2e-05,5e-05,6,12
32360,1e-05,-3e-05,-0.0001,-0.00016,-0.00029,-0.00026,-2e-05,5e-05,6,12
32361,1e-05,-3e-05,-0.0001,-0.00016,-0.00029,-0.00026,-2e-05,5e-05,6,12
32362,1e-05,-3e-05,-0.0001,-0.00016,-0.00029,-0.00026,-2e-05,5e-05,6,12
32363,2e-05,0,0,4e-05,0.00013,6e-05,-5e-05,-0.0001,6,12
32365,2e-05,0,0,4e-05,0.00013,6e-05,-5e-05,-0.0001,6,12
32366,2e-05,0,0,4e-05,0.00013,6e-05,-5e-05,-0.0001,6,12
32367,2e-05,0,0,4e-05,0.00013,6e-05,-5e-05,-0.0001,6,12
32368,2e-05,0,0,4e-05,0.00013,6e-05,-5e-05,-0.0001,6,12
32369,2e-05,0,0,4e-05,0.00013,6e-05,-5e-05,-0.0001,6,12
32370,2e-05,0,0,4e-05,0.00013,6e-05,-5e-05,-0.0001,6,12
32371,2e-05,0,0,4e-05,0.00013,6e-05,-5e-05,-0.0001,6,12
32372,2e-05,0,0,4e-05,0.00013,6e-05,-5e-05,-0.0001,6,12
32373,2e-05,0,0,4e-05,0.00013,6e-05,-5e-05,-0.0001,6,12
32374,2e-05,0,0,4e-05,0.00013,6e-05,-5e-05,-0.0001,6,12
32375,2e-05,0,0,4e-05,0.00013,6e-05,-5e-05,-0.0001,6,12
32376,2e-05,0,0,4e-05,0.00013,6e-05,-5e-05,-0.0001,6,12
32377,2e-05,0,0,4e-05,0.00013,6e-05,-5e-05,-0.0001,6,12
32378,2e-05,0,0,4e-05,0.00013,6e-05,-5e-05,-0.0001,6,12
32379,2e-05,0,0,4e-05,0.00013,6e-05,-5e-05,-0.0001,6,12
32380,-3e-05,-4e-05,-3e-05,-6e-05,-3e-05,-0.00021,-0.00011,-8e-05,6,12
32381,-9e-05,-1e-05,-2e-05,2e-05,-3e-05,-6e-05,9e-05,-6e-05,6,12
32382,-9e-05,-1e-05,-2e-05,2e-05,-3e-05,-6e-05,9e-05,-6e-05,6,12
32383,-9e-05,-1e-05,-2e-05,2e-05,-3e-05,-6e-05,9e-05,-6e-05,6,12
32384,-9e-05,-1e-05,-2e-05,2e-05,-3e-05,-6e-05,9e-05,-6e-05,6,12
32385,-9e-05,-1e-05,-2e-05,2e-05,-3e-05,-6e-05,9e-05,-6e-05,6,12
32386,-9e-05,-1e-05,-2e-05,2e-05,-3e-05,-6e-05,9e-05,-6e-05,6,12
32389,-9e-05,-1e-05,-2e-05,2e-05,-3e-05,-6e-05,9e-05,-6e-05,6,12
32390,-9e-05,-1e-05,-2e-05,2e-05,-3e-05,-6e-05,9e-05,-6e-05,6,12
32391,-9e-05,-1e-05,-2e-05,2e-05,-3e-05,-6e-05,9e-05,-6e-05,6,12
32392,-9e-05,-1e-05,-2e-05,2e-05,-3e-05,-6e-05,9e-05,-6e-05,6,12
32393,-9e-05,-1e-05,-2e-05,2e-05,-3e-05,-6e-05,9e-05,-6e-05,6,12
32394,-9e-05,-1e-05,-2e-05,2e-05,-3e-05,-6e-05,9e-05,-6e-05,6,12
32395,-9e-05,-1e-05,-2e-05,2e-05,-3e-05,-6e-05,9e-05,-6e-05,6,12
32396,-9e-05,-1e-05,-2e-05,2e-05,-3e-05,-6e-05,9e-05,-6e-05,6,12
32397,-9e-05,-1e-05,-2e-05,2e-05,-3e-05,-6e-05,9e-05,-6e-05,6,12
32398,-9e-05,-1e-05,-2e-05,2e-05,-3e-05,-6e-05,9e-05,-6e-05,6,12
32399,-9e-05,-1e-05,-2e-05,2e-05,-3e-05,-6e-05,9e-05,-6e-05,6,12
32400,-9e-05,-1e-05,-2e-05,2e-05,-3e-05,-6e-05,9e-05,-6e-05,6,12
32401,-9e-05,-1e-05,-2e-05,2e-05,-3e-05,-6e-05,9e-05,-6e-05,6,12
32402,-1e-05,-4e-05,-2e-05,0,9e-05,0.00014,0,5e-05,6,12
32403,-1e-05,-4e-05,-2e-05,0,9e-05,0.00014,0,5e-05,6,12
32404,3e-05,1e-05,-1e-05,-2e-05,-7e-05,-0.00035,-6e-05,-0.0001,6,12
32405,3e-05,1e-05,-1e-05,-2e-05,-7e-05,-0.00035,-6e-05,-0.0001,6,12
32406,3e-05,1e-05,-1e-05,-2e-05,-7e-05,-0.00035,-6e-05,-0.0001,6,12
32407,3e-05,1e-05,-1e-05,-2e-05,-7e-05,-0.00035,-6e-05,-0.0001,6,12
32408,3e-05,1e-05,-1e-05,-2e-05,-7e-05,-0.00035,-6e-05,-0.0001,6,12
32409,3e-05,1e-05,-1e-05,-2e-05,-7e-05,-0.00035,-6e-05,-0.0001,6,12
32410,3e-05,1e-05,-1e-05,-2e-05,-7e-05,-0.00035,-6e-05,-0.0001,6,12
32411,3e-05,1e-05,-1e-05,-2e-05,-7e-05,-0.00035,-6e-05,-0.0001,6,12
32412,3e-05,1e-05,-1e-05,-2e-05,-7e-05,-0.00035,-6e-05,-0.0001,6,12
32413,3e-05,1e-05,-1e-05,-2e-05,-7e-05,-0.00035,-6e-05,-0.0001,6,12
32414,3e-05,1e-05,-1e-05,-2e-05,-7e-05,-0.00035,-6e-05,-0.0001,6,12
32415,3e-05,1e-05,-1e-05,-2e-05,-7e-05,-0.00035,-6e-05,-0.0001,6,12
32416,0,1e-05,-2e-05,4e-05,0.00027,0.00011,-2e-05,4e-05,6,12
32417,0,1e-05,-2e-05,4e-05,0.00027,0.00011,-2e-05,4e-05,6,12
32418,0,1e-05,-2e-05,4e-05,0.00027,0.00011,-2e-05,4e-05,6,12
32419,0,1e-05,-2e-05,4e-05,0.00027,0.00011,-2e-05,4e-05,6,12
32420,0,1e-05,-2e-05,4e-05,0.00027,0.00011,-2e-05,4e-05,6,12
32421,0,1e-05,-2e-05,4e-05,0.00027,0.00011,-2e-05,4e-05,6,12
32422,0,1e-05,-2e-05,4e-05,0.00027,0.00011,-2e-05,4e-05,6,12
32423,0,1e-05,-2e-05,4e-05,0.00027,0.00011,-2e-05,4e-05,6,12
32424,-0.00016,-2e-05,-3e-05,-9e-05,-0.00019,0.00054,0.00019,-4e-05,6,12
32425,-0.00016,-2e-05,-3e-05,-9e-05,-0.00019,0.00054,0.00019,-4e-05,6,12
32426,-0.00016,-2e-05,-3e-05,-9e-05,-0.00019,0.00054,0.00019,-4e-05,6,12
32427,-0.00016,-2e-05,-3e-05,-9e-05,-0.00019,0.00054,0.00019,-4e-05,6,12
32428,-0.00016,-2e-05,-3e-05,-9e-05,-0.00019,0.00054,0.00019,-4e-05,6,12
32429,-0.00016,-2e-05,-3e-05,-9e-05,-0.00019,0.00054,0.00019,-4e-05,6,12
32430,-0.00016,-2e-05,-3e-05,-9e-05,-0.00019,0.00054,0.00019,-4e-05,6,12
32432,-0.00016,-2e-05,-3e-05,-9e-05,-0.00019,0.00054,0.00019,-4e-05,6,12
32433,-0.00016,-2e-05,-3e-05,-9e-05,-0.00019,0.00054,0.00019,-4e-05,6,12
32434,-0.00016,-2e-05,-3e-05,-9e-05,-0.00019,0.00054,0.00019,-4e-05,6,12
32435,-0.00016,-2e-05,-3e-05,-9e-05,-0.00019,0.00054,0.00019,-4e-05,6,12
32436,-0.00016,-2e-05,-3e-05,-9e-05,-0.00019,0.00054,0.00019,-4e-05,6,12
32439,-0.00016,-2e-05,-3e-05,-9e-05,-0.00019,0.00054,0.00019,-4e-05,6,12
32440,-0.00016,-2e-05,-3e-05,-9e-05,-0.00019,0.00054,0.00019,-4e-05,6,12
32441,-0.00016,-2e-05,-3e-05,-9e-05,-0.00019,0.00054,0.00019,-4e-05,6,12
32442,-0.00016,-2e-05,-3e-05,-9e-05,-0.00019,0.00054,0.00019,-4e-05,6,12
32443,-0.00016,-2e-05,-3e-05,-9e-05,-0.00019,0.00054,0.00019,-4e-05,6,12
32444,-0.00016,-2e-05,-3e-05,-9e-05,-0.00019,0.00054,0.00019,-4e-05,6,12
32445,-0.00016,-2e-05,-3e-05,-9e-05,-0.00019,0.00054,0.00019,-4e-05,6,12
32446,-0.00016,-2e-05,-3e-05,-9e-05,-0.00019,0.00054,0.00019,-4e-05,6,12
32447,0.00016,1e-05,0,-3e-05,-0.00022,-0.00019,-1e-05,-0.0001,6,12
32448,0,0,-2e-05,-6e-05,-8e-05,-0.00031,-1e-05,-1e-05,6,12
32449,0,0,-2e-05,-6e-05,-8e-05,-0.00031,-1e-05,-1e-05,6,12
32450,0,0,-2e-05,-6e-05,-8e-05,-0.00031,-1e-05,-1e-05,6,12
32451,0,0,-2e-05,-6e-05,-8e-05,-0.00031,-1e-05,-1e-05,6,12
32452,0,0,-2e-05,-6e-05,-8e-05,-0.00031,-1e-05,-1e-05,6,12
32453,0,0,-2e-05,-6e-05,-8e-05,-0.00031,-1e-05,-1e-05,6,12
32454,0,0,-2e-05,-6e-05,-8e-05,-0.00031,-1e-05,-1e-05,6,12
32455,0,0,-2e-05,-6e-05,-8e-05,-0.00031,-1e-05,-1e-05,6,12
32456,0,0,-2e-05,-6e-05,-8e-05,-0.00031,-1e-05,-1e-05,6,12
32457,0,0,-2e-05,-6e-05,-8e-05,-0.00031,-1e-05,-1e-05,6,12
32458,0,0,-2e-05,-6e-05,-8e-05,-0.00031,-1e-05,-1e-05,6,12
32459,0,0,-2e-05,-6e-05,-8e-05,-0.00031,-1e-05,-1e-05,6,12
32460,0,0,-2e-05,-6e-05,-8e-05,-0.00031,-1e-05,-1e-05,6,12
32461,0,0,-2e-05,-6e-05,-8e-05,-0.00031,-1e-05,-1e-05,6,12
32462,0.0001,-1e-05,0,1e-05,4e-05,0.00024,-1e-05,0.0001,6,12
32463,0.0001,-1e-05,0,1e-05,4e-05,0.00024,-1e-05,0.0001,6,12
32464,0.0001,-1e-05,0,1e-05,4e-05,0.00024,-1e-05,0.0001,6,12
32465,0.0001,-1e-05,0,1e-05,4e-05,0.00024,-1e-05,0.0001,6,12
32466,0.0001,-1e-05,0,1e-05,4e-05,0.00024,-1e-05,0.0001,6,12
32467,0.0001,-1e-05,0,1e-05,4e-05,0.00024,-1e-05,0.0001,6,12
32468,0.0001,-1e-05,0,1e-05,4e-05,0.00024,-1e-05,0.0001,6,12
32469,0.0001,-1e-05,0,1e-05,4e-05,0.00024,-1e-05,0.0001,6,12
32470,0.0001,-1e-05,0,1e-05,4e-05,0.00024,-1e-05,0.0001,6,12
32471,0.0001,-1e-05,0,1e-05,4e-05,0.00024,-1e-05,0.0001,6,12
32472,0.0001,-1e-05,0,1e-05,4e-05,0.00024,-1e-05,0.0001,6,12
32473,0.0001,-1e-05,0,1e-05,4e-05,0.00024,-1e-05,0.0001,6,12
32474,0.0001,-1e-05,0,1e-05,4e-05,0.00024,-1e-05,0.0001,6,12
32475,0.0001,-1e-05,0,1e-05,4e-05,0.00024,-1e-05,0.0001,6,12
32476,0,-2e-05,2e-05,0.0001,5e-05,0.0005,8e-05,0.00013,6,12
32477,0,-2e-05,2e-05,0.0001,5e-05,0.0005,8e-05,0.00013,6,12
32478,0,-2e-05,2e-05,0.0001,5e-05,0.0005,8e-05,0.00013,6,12
32479,0,-2e-05,2e-05,0.0001,5e-05,0.0005,8e-05,0.00013,6,12
32480,0,-2e-05,2e-05,0.0001,5e-05,0.0005,8e-05,0.00013,6,12
32481,0,-2e-05,2e-05,0.0001,5e-05,0.0005,8e-05,0.00013,6,12
32482,0,-2e-05,2e-05,0.0001,5e-05,0.0005,8e-05,0.00013,6,12
32483,0,-2e-05,2e-05,0.0001,5e-05,0.0005,8e-05,0.00013,6,12
32484,-2e-05,-1e-05,-1e-05,-5e-05,2e-05,-0.0003,0,-4e-05,6,12
32485,-2e-05,-1e-05,-1e-05,-5e-05,2e-05,-0.0003,0,-4e-05,6,12
32486,-2e-05,-1e-05,-1e-05,-5e-05,2e-05,-0.0003,0,-4e-05,6,12
32489,-2e-05,-1e-05,-1e-05,-5e-05,2e-05,-0.0003,0,-4e-05,6,12
32490,-2e-05,-1e-05,-1e-05,-5e-05,2e-05,-0.0003,0,-4e-05,6,12
32491,-2e-05,-1e-05,-1e-05,-5e-05,2e-05,-0.0003,0,-4e-05,6,12
32492,-2e-05,-1e-05,-1e-05,-5e-05,2e-05,-0.0003,0,-4e-05,6,12
32493,-2e-05,-1e-05,-1e-05,-5e-05,2e-05,-0.0003,0,-4e-05,6,12
32494,-2e-05,-1e-05,-1e-05,-5e-05,2e-05,-0.0003,0,-4e-05,6,12
32495,-2e-05,-1e-05,-1e-05,-5e-05,2e-05,-0.0003,0,-4e-05,6,12
32496,-2e-05,-1e-05,-1e-05,-5e-05,2e-05,-0.0003,0,-4e-05,6,12
32497,-2e-05,-1e-05,-1e-05,-5e-05,2e-05,-0.0003,0,-4e-05,6,12
32498,-2e-05,-1e-05,-1e-05,-5e-05,2e-05,-0.0003,0,-4e-05,6,12
32499,-7e-05,1e-05,-2e-05,-4e-05,-0.00016,8e-05,0,3e-05,6,12
32500,0.00038,2e-05,3e-05,7e-05,0.00014,0.00028,3e-05,0.00036,6,12
32501,0.00038,2e-05,3e-05,7e-05,0.00014,0.00028,3e-05,0.00036,6,12
32502,0.00038,2e-05,3e-05,7e-05,0.00014,0.00028,3e-05,0.00036,6,12
32503,0.00038,2e-05,3e-05,7e-05,0.00014,0.00028,3e-05,0.00036,6,12
32504,0.00038,2e-05,3e-05,7e-05,0.00014,0.00028,3e-05,0.00036,6,12
32505,0.00038,2e-05,3e-05,7e-05,0.00014,0.00028,3e-05,0.00036,6,12
32506,0.00038,2e-05,3e-05,7e-05,0.00014,0.00028,3e-05,0.00036,6,12
32507,0.00038,2e-05,3e-05,7e-05,0.00014,0.00028,3e-05,0.00036,6,12
32508,0.00038,2e-05,3e-05,7e-05,0.00014,0.00028,3e-05,0.00036,6,12
32509,0.00038,2e-05,3e-05,7e-05,0.00014,0.00028,3e-05,0.00036,6,12
32510,0.00038,2e-05,3e-05,7e-05,0.00014,0.00028,3e-05,0.00036,6,12
32511,0.00038,2e-05,3e-05,7e-05,0.00014,0.00028,3e-05,0.00036,6,12
32512,0.00038,2e-05,3e-05,7e-05,0.00014,0.00028,3e-05,0.00036,6,12
32513,0.00038,2e-05,3e-05,7e-05,0.00014,0.00028,3e-05,0.00036,6,12
32514,0.00038,2e-05,3e-05,7e-05,0.00014,0.00028,3e-05,0.00036,6,12
32515,0.00038,2e-05,3e-05,7e-05,0.00014,0.00028,3e-05,0.00036,6,12
32516,0.00038,2e-05,3e-05,7e-05,0.00014,0.00028,3e-05,0.00036,6,12
32517,0.00038,2e-05,3e-05,7e-05,0.00014,0.00028,3e-05,0.00036,6,12
32518,0.00038,2e-05,3e-05,7e-05,0.00014,0.00028,3e-05,0.00036,6,12
32519,0.00038,2e-05,3e-05,7e-05,0.00014,0.00028,3e-05,0.00036,6,12
32520,0.00038,2e-05,3e-05,7e-05,0.00014,0.00028,3e-05,0.00036,6,12
32521,0.00038,2e-05,3e-05,7e-05,0.00014,0.00028,3e-05,0.00036,6,12
32522,-9e-05,-1e-05,-2e-05,-9e-05,-0.00011,-0.00014,-0.00017,-0.00015,6,12
32523,-9e-05,-1e-05,-2e-05,-3e-05,9e-05,0.00039,-6e-05,0,6,12
32524,-9e-05,-1e-05,-2e-05,-3e-05,9e-05,0.00039,-6e-05,0,6,12
32525,-9e-05,-1e-05,-2e-05,-3e-05,9e-05,0.00039,-6e-05,0,6,12
32526,-9e-05,-1e-05,-2e-05,-3e-05,9e-05,0.00039,-6e-05,0,6,12
32527,-9e-05,-1e-05,-2e-05,-3e-05,9e-05,0.00039,-6e-05,0,6,12
32528,-9e-05,-1e-05,-2e-05,-3e-05,9e-05,0.00039,-6e-05,0,6,12
32529,-9e-05,-1e-05,-2e-05,-3e-05,9e-05,0.00039,-6e-05,0,6,12
32530,-9e-05,-1e-05,-2e-05,-3e-05,9e-05,0.00039,-6e-05,0,6,12
32531,-9e-05,-1e-05,-2e-05,-3e-05,9e-05,0.00039,-6e-05,0,6,12
32532,-9e-05,-1e-05,-2e-05,-3e-05,9e-05,0.00039,-6e-05,0,6,12
32533,-9e-05,-1e-05,-2e-05,-3e-05,9e-05,0.00039,-6e-05,0,6,12
32534,-9e-05,-1e-05,-2e-05,-3e-05,9e-05,0.00039,-6e-05,0,6,12
32535,-9e-05,-1e-05,-2e-05,-3e-05,9e-05,0.00039,-6e-05,0,6,12
32536,-6e-05,-1e-05,-3e-05,-3e-05,0,0.00026,-8e-05,-0.00012,6,12
32539,-6e-05,-1e-05,-3e-05,-3e-05,0,0.00026,-8e-05,-0.00012,6,12
32540,-6e-05,-1e-05,-3e-05,-3e-05,0,0.00026,-8e-05,-0.00012,6,12
32541,-6e-05,-1e-05,-3e-05,-3e-05,0,0.00026,-8e-05,-0.00012,6,12
32542,-6e-05,-1e-05,-3e-05,-3e-05,0,0.00026,-8e-05,-0.00012,6,12
32543,-6e-05,-1e-05,-3e-05,-3e-05,0,0.00026,-8e-05,-0.00012,6,12
32544,-8e-05,-1e-05,-1e-05,-1e-05,-0.0001,-0.00047,-0.00018,-0.00019,6,12
32545,-8e-05,-1e-05,-1e-05,-1e-05,-0.0001,-0.00047,-0.00018,-0.00019,6,12
32546,-8e-05,-1e-05,-1e-05,-1e-05,-0.0001,-0.00047,-0.00018,-0.00019,6,12
32547,-8e-05,-1e-05,-1e-05,-1e-05,-0.0001,-0.00047,-0.00018,-0.00019,6,12
32548,-8e-05,-1e-05,-1e-05,-1e-05,-0.0001,-0.00047,-0.00018,-0.00019,6,12
32549,-8e-05,-1e-05,-1e-05,-1e-05,-0.0001,-0.00047,-0.00018,-0.00019,6,12
32550,-8e-05,-1e-05,-1e-05,-1e-05,-0.0001,-0.00047,-0.00018,-0.00019,6,12
32551,-8e-05,-1e-05,-1e-05,-1e-05,-0.0001,-0.00047,-0.00018,-0.00019,6,12
32552,-8e-05,-1e-05,-1e-05,-1e-05,-0.0001,-0.00047,-0.00018,-0.00019,6,12
32553,-8e-05,-1e-05,-1e-05,-1e-05,-0.0001,-0.00047,-0.00018,-0.00019,6,12
32554,-8e-05,-1e-05,-1e-05,-1e-05,-0.0001,-0.00047,-0.00018,-0.00019,6,12
32555,-8e-05,-1e-05,-1e-05,-1e-05,-0.0001,-0.00047,-0.00018,-0.00019,6,12
32556,-8e-05,-1e-05,-1e-05,-1e-05,-0.0001,-0.00047,-0.00018,-0.00019,6,12
32557,-8e-05,-1e-05,-1e-05,-1e-05,-0.0001,-0.00047,-0.00018,-0.00019,6,12
32558,-8e-05,-1e-05,-1e-05,-1e-05,-0.0001,-0.00047,-0.00018,-0.00019,6,12
32559,-8e-05,-1e-05,-1e-05,-9e-05,-0.00023,0.00012,6e-05,1e-05,6,12
32560,0,-3e-05,-2e-05,-3e-05,-0.00019,-0.00026,-8e-05,-2e-05,6,12
32561,0,-3e-05,-2e-05,-3e-05,-0.00019,-0.00026,-8e-05,-2e-05,6,12
32562,0,-3e-05,-2e-05,-3e-05,-0.00019,-0.00026,-8e-05,-2e-05,6,12
32563,0,-3e-05,-2e-05,-3e-05,-0.00019,-0.00026,-8e-05,-2e-05,6,12
32564,0,-3e-05,-2e-05,-3e-05,-0.00019,-0.00026,-8e-05,-2e-05,6,12
32565,0,-3e-05,-2e-05,-3e-05,-0.00019,-0.00026,-8e-05,-2e-05,6,12
32566,0,-3e-05,-2e-05,-3e-05,-0.00019,-0.00026,-8e-05,-2e-05,6,12
32567,0,-3e-05,-2e-05,-3e-05,-0.00019,-0.00026,-8e-05,-2e-05,6,12
32568,0,-3e-05,-2e-05,-3e-05,-0.00019,-0.00026,-8e-05,-2e-05,6,12
32569,0,-3e-05,-2e-05,-3e-05,-0.00019,-0.00026,-8e-05,-2e-05,6,12
32570,0,-3e-05,-2e-05,-3e-05,-0.00019,-0.00026,-8e-05,-2e-05,6,12
32571,0,-3e-05,-2e-05,-3e-05,-0.00019,-0.00026,-8e-05,-2e-05,6,12
32572,0,-3e-05,-2e-05,-3e-05,-0.00019,-0.00026,-8e-05,-2e-05,6,12
32573,0,-3e-05,-2e-05,-3e-05,-0.00019,-0.00026,-8e-05,-2e-05,6,12
32574,0,-3e-05,-2e-05,-3e-05,-0.00019,-0.00026,-8e-05,-2e-05,6,12
32575,0,-3e-05,-2e-05,-3e-05,-0.00019,-0.00026,-8e-05,-2e-05,6,12
32576,0,-3e-05,-2e-05,-3e-05,-0.00019,-0.00026,-8e-05,-2e-05,6,12
32577,0,-3e-05,-2e-05,-3e-05,-0.00019,-0.00026,-8e-05,-2e-05,6,12
32578,0,-3e-05,-2e-05,-3e-05,-0.00019,-0.00026,-8e-05,-2e-05,6,12
32579,0,-3e-05,-2e-05,-3e-05,-0.00019,-0.00026,-8e-05,-2e-05,6,12
32580,0,-3e-05,-2e-05,-3e-05,-0.00019,-0.00026,-8e-05,-2e-05,6,12
32581,0,-3e-05,-2e-05,-3e-05,-0.00019,-0.00026,-8e-05,-2e-05,6,12
32582,-9e-05,-4e-05,-6e-05,-7e-05,-0.00035,-0.00031,-0.00013,-6e-05,6,12
32583,-9e-05,-4e-05,-6e-05,-7e-05,-0.00035,-0.00031,-0.00013,-6e-05,6,12
32584,-9e-05,-4e-05,-6e-05,-7e-05,-0.00035,-0.00031,-0.00013,-6e-05,6,12
32585,-9e-05,-4e-05,-6e-05,-7e-05,-0.00035,-0.00031,-0.00013,-6e-05,6,12
32586,-9e-05,-4e-05,-6e-05,-7e-05,-0.00035,-0.00031,-0.00013,-6e-05,6,12
32589,-9e-05,-4e-05,-6e-05,-7e-05,-0.00035,-0.00031,-0.00013,-6e-05,6,12
32590,-9e-05,-4e-05,-6e-05,-7e-05,-0.00035,-0.00031,-0.00013,-6e-05,6,12
32591,-9e-05,-4e-05,-6e-05,-7e-05,-0.00035,-0.00031,-0.00013,-6e-05,6,12
32592,-9e-05,-4e-05,-6e-05,-7e-05,-0.00035,-0.00031,-0.00013,-6e-05,6,12
32593,-9e-05,-4e-05,-6e-05,-7e-05,-0.00035,-0.00031,-0.00013,-6e-05,6,12
32594,-9e-05,-4e-05,-6e-05,-7e-05,-0.00035,-0.00031,-0.00013,-6e-05,6,12
32595,-9e-05,-4e-05,-6e-05,-7e-05,-0.00035,-0.00031,-0.00013,-6e-05,6,12
32596,3e-05,-4e-05,-1e-05,-4e-05,-0.0002,-0.00026,-0.00018,3e-05,6,12
32597,3e-05,-4e-05,-1e-05,-4e-05,-0.0002,-0.00026,-0.00018,3e-05,6,12
32598,3e-05,-4e-05,-1e-05,-4e-05,-0.0002,-0.00026,-0.00018,3e-05,6,12
32599,3e-05,-4e-05,-1e-05,-4e-05,-0.0002,-0.00026,-0.00018,3e-05,6,12
32600,3e-05,-4e-05,-1e-05,-4e-05,-0.0002,-0.00026,-0.00018,3e-05,6,12
32601,3e-05,-4e-05,-1e-05,-4e-05,-0.0002,-0.00026,-0.00018,3e-05,6,12
32602,3e-05,-4e-05,-1e-05,-4e-05,-0.0002,-0.00026,-0.00018,3e-05,6,12
32603,3e-05,-4e-05,-1e-05,-4e-05,-0.0002,-0.00026,-0.00018,3e-05,6,12
32604,-9e-05,-1e-05,-1e-05,0,-0.00014,-9e-05,-6e-05,-8e-05,6,12
32605,-9e-05,-1e-05,-1e-05,0,-0.00014,-9e-05,-6e-05,-8e-05,6,12
32606,-9e-05,-1e-05,-1e-05,0,-0.00014,-9e-05,-6e-05,-8e-05,6,12
32607,-9e-05,-1e-05,-1e-05,0,-0.00014,-9e-05,-6e-05,-8e-05,6,12
32608,-9e-05,-1e-05,-1e-05,0,-0.00014,-9e-05,-6e-05,-8e-05,6,12
32609,-9e-05,-1e-05,-1e-05,0,-0.00014,-9e-05,-6e-05,-8e-05,6,12
32610,-9e-05,-1e-05,-1e-05,0,-0.00014,-9e-05,-6e-05,-8e-05,6,12
32611,-9e-05,-1e-05,-1e-05,0,-0.00014,-9e-05,-6e-05,-8e-05,6,12
32612,-9e-05,-1e-05,-1e-05,0,-0.00014,-9e-05,-6e-05,-8e-05,6,12
32613,-9e-05,-1e-05,-1e-05,0,-0.00014,-9e-05,-6e-05,-8e-05,6,12
32614,-9e-05,-1e-05,-1e-05,0,-0.00014,-9e-05,-6e-05,-8e-05,6,12
32615,-9e-05,-1e-05,-1e-05,0,-0.00014,-9e-05,-6e-05,-8e-05,6,12
32616,-9e-05,-1e-05,-1e-05,0,-0.00014,-9e-05,-6e-05,-8e-05,6,12
32617,-9e-05,-1e-05,-1e-05,0,-0.00014,-9e-05,-6e-05,-8e-05,6,12
32618,-9e-05,-1e-05,-1e-05,0,-0.00014,-9e-05,-6e-05,-8e-05,6,12
32619,2e-05,0,1e-05,1e-05,5e-05,-0.00035,-2e-05,2e-05,6,12
32620,-1e-05,0,0,2e-05,0.00014,0.00018,-1e-05,-7e-05,6,12
32621,-1e-05,0,0,2e-05,0.00014,0.00018,-1e-05,-7e-05,6,12
32622,-1e-05,0,0,2e-05,0.00014,0.00018,-1e-05,-7e-05,6,12
32623,-1e-05,0,0,2e-05,0.00014,0.00018,-1e-05,-7e-05,6,12
32624,-1e-05,0,0,2e-05,0.00014,0.00018,-1e-05,-7e-05,6,12
32625,-1e-05,0,0,2e-05,0.00014,0.00018,-1e-05,-7e-05,6,12
32626,-1e-05,0,0,2e-05,0.00014,0.00018,-1e-05,-7e-05,6,12
32627,-1e-05,0,0,2e-05,0.00014,0.00018,-1e-05,-7e-05,6,12
32628,-1e-05,0,0,2e-05,0.00014,0.00018,-1e-05,-7e-05,6,12
32629,-1e-05,0,0,2e-05,0.00014,0.00018,-1e-05,-7e-05,6,12
32630,-1e-05,0,0,2e-05,0.00014,0.00018,-1e-05,-7e-05,6,12
32631,-1e-05,0,0,2e-05,0.00014,0.00018,-1e-05,-7e-05,6,12
32632,-1e-05,0,0,2e-05,0.00014,0.00018,-1e-05,-7e-05,6,12
32633,-1e-05,0,0,2e-05,0.00014,0.00018,-1e-05,-7e-05,6,12
32634,-1e-05,0,0,2e-05,0.00014,0.00018,-1e-05,-7e-05,6,12
32635,-1e-05,0,0,2e-05,0.00014,0.00018,-1e-05,-7e-05,6,12
32636,-1e-05,0,0,2e-05,0.00014,0.00018,-1e-05,-7e-05,6,12
32638,-1e-05,0,0,2e-05,0.00014,0.00018,-1e-05,-7e-05,6,12
32639,-1e-05,0,0,2e-05,0.00014,0.00018,-1e-05,-7e-05,6,12
32640,-1e-05,0,0,2e-05,0.00014,0.00018,-1e-05,-7e-05,6,12
32641,-1e-05,0,0,2e-05,0.00014,0.00018,-1e-05,-7e-05,6,12
32642,5e-05,-1e-05,0,-3e-05,-0.00022,0.00026,0.00011,0.0003,6,12
32643,5e-05,-1e-05,0,-3e-05,-0.00022,0.00026,0.00011,0.0003,6,12
32644,5e-05,-1e-05,0,-3e-05,-0.00022,0.00026,0.00011,0.0003,6,12
32645,5e-05,-1e-05,0,-3e-05,-0.00022,0.00026,0.00011,0.0003,6,12
32646,5e-05,-1e-05,0,-3e-05,-0.00022,0.00026,0.00011,0.0003,6,12
32647,5e-05,-1e-05,0,-3e-05,-0.00022,0.00026,0.00011,0.0003,6,12
32648,5e-05,-1e-05,0,-3e-05,-0.00022,0.00026,0.00011,0.0003,6,12
32649,5e-05,-1e-05,0,-3e-05,-0.00022,0.00026,0.00011,0.0003,6,12
32650,5e-05,-1e-05,0,-3e-05,-0.00022,0.00026,0.00011,0.0003,6,12
32651,5e-05,-1e-05,0,-3e-05,-0.00022,0.00026,0.00011,0.0003,6,12
32652,5e-05,-1e-05,0,-3e-05,-0.00022,0.00026,0.00011,0.0003,6,12
32653,5e-05,-1e-05,0,-3e-05,-0.00022,0.00026,0.00011,0.0003,6,12
32654,5e-05,-1e-05,0,-3e-05,-0.00022,0.00026,0.00011,0.0003,6,12
32655,5e-05,-1e-05,0,-3e-05,-0.00022,0.00026,0.00011,0.0003,6,12
32656,-2e-05,-1e-05,-2e-05,-3e-05,-0.00013,0.00024,1e-05,0.0001,6,12
32657,-2e-05,-1e-05,-2e-05,-3e-05,-0.00013,0.00024,1e-05,0.0001,6,12
32658,-2e-05,-1e-05,-2e-05,-3e-05,-0.00013,0.00024,1e-05,0.0001,6,12
32659,-2e-05,-1e-05,-2e-05,-3e-05,-0.00013,0.00024,1e-05,0.0001,6,12
32660,-2e-05,-1e-05,-2e-05,-3e-05,-0.00013,0.00024,1e-05,0.0001,6,12
32661,-2e-05,-1e-05,-2e-05,-3e-05,-0.00013,0.00024,1e-05,0.0001,6,12
32662,-2e-05,-1e-05,-2e-05,-3e-05,-0.00013,0.00024,1e-05,0.0001,6,12
32663,-2e-05,-1e-05,-2e-05,-3e-05,-0.00013,0.00024,1e-05,0.0001,6,12
32664,-0.00011,-2e-05,1e-05,2e-05,-1e-05,0.00022,9e-05,1e-05,6,12
32665,-0.00011,-2e-05,1e-05,2e-05,-1e-05,0.00022,9e-05,1e-05,6,12
32666,-0.00011,-2e-05,1e-05,2e-05,-1e-05,0.00022,9e-05,1e-05,6,12
32667,-0.00011,-2e-05,1e-05,2e-05,-1e-05,0.00022,9e-05,1e-05,6,12
32668,-0.00011,-2e-05,1e-05,2e-05,-1e-05,0.00022,9e-05,1e-05,6,12
32669,-0.00011,-2e-05,1e-05,2e-05,-1e-05,0.00022,9e-05,1e-05,6,12
32670,-0.00011,-2e-05,1e-05,2e-05,-1e-05,0.00022,9e-05,1e-05,6,12
32671,-0.00011,-2e-05,1e-05,2e-05,-1e-05,0.00022,9e-05,1e-05,6,12
32672,-0.00011,-2e-05,1e-05,2e-05,-1e-05,0.00022,9e-05,1e-05,6,12
32673,-0.00011,-2e-05,1e-05,2e-05,-1e-05,0.00022,9e-05,1e-05,6,12
32674,-0.00011,-2e-05,1e-05,2e-05,-1e-05,0.00022,9e-05,1e-05,6,12
32675,-0.00011,-2e-05,1e-05,2e-05,-1e-05,0.00022,9e-05,1e-05,6,12
32676,-0.00011,-2e-05,1e-05,2e-05,-1e-05,0.00022,9e-05,1e-05,6,12
32677,-0.00011,-2e-05,1e-05,2e-05,-1e-05,0.00022,9e-05,1e-05,6,12
32678,-0.00011,-2e-05,1e-05,2e-05,-1e-05,0.00022,9e-05,1e-05,6,12
32679,3e-05,-3e-05,-3e-05,-4e-05,-7e-05,-0.00016,-8e-05,8e-05,6,12
32680,5e-05,0,-2e-05,-8e-05,-0.00011,-9e-05,-6e-05,0.0001,6,12
32681,5e-05,0,-2e-05,-8e-05,-0.00011,-9e-05,-6e-05,0.0001,6,12
32682,5e-05,0,-2e-05,-8e-05,-0.00011,-9e-05,-6e-05,0.0001,6,12
32683,5e-05,0,-2e-05,-8e-05,-0.00011,-9e-05,-6e-05,0.0001,6,12
32684,5e-05,0,-2e-05,-8e-05,-0.00011,-9e-05,-6e-05,0.0001,6,12
32685,5e-05,0,-2e-05,-8e-05,-0.00011,-9e-05,-6e-05,0.0001,6,12
32686,5e-05,0,-2e-05,-8e-05,-0.00011,-9e-05,-6e-05,0.0001,6,12
32688,5e-05,0,-2e-05,-8e-05,-0.00011,-9e-05,-6e-05,0.0001,6,12
32689,5e-05,0,-2e-05,-8e-05,-0.00011,-9e-05,-6e-05,0.0001,6,12
32690,5e-05,0,-2e-05,-8e-05,-0.00011,-9e-05,-6e-05,0.0001,6,12
32691,5e-05,0,-2e-05,-8e-05,-0.00011,-9e-05,-6e-05,0.0001,6,12
32692,5e-05,0,-2e-05,-8e-05,-0.00011,-9e-05,-6e-05,0.0001,6,12
32693,5e-05,0,-2e-05,-8e-05,-0.00011,-9e-05,-6e-05,0.0001,6,12
32694,5e-05,0,-2e-05,-8e-05,-0.00011,-9e-05,-6e-05,0.0001,6,12
32696,5e-05,0,-2e-05,-8e-05,-0.00011,-9e-05,-6e-05,0.0001,6,12
32697,5e-05,0,-2e-05,-8e-05,-0.00011,-9e-05,-6e-05,0.0001,6,12
32698,5e-05,0,-2e-05,-8e-05,-0.00011,-9e-05,-6e-05,0.0001,6,12
32699,5e-05,0,-2e-05,-8e-05,-0.00011,-9e-05,-6e-05,0.0001,6,12
32700,5e-05,0,-2e-05,-8e-05,-0.00011,-9e-05,-6e-05,0.0001,6,12
32701,5e-05,0,-2e-05,-8e-05,-0.00011,-9e-05,-6e-05,0.0001,6,12
32702,7e-05,1e-05,4e-05,3e-05,0.00017,1e-05,3e-05,0.00017,6,12
32703,7e-05,1e-05,4e-05,3e-05,0.00017,1e-05,3e-05,0.00017,6,12
32704,7e-05,1e-05,4e-05,3e-05,0.00017,1e-05,3e-05,0.00017,6,12
32705,7e-05,1e-05,4e-05,3e-05,0.00017,1e-05,3e-05,0.00017,6,12
32706,7e-05,1e-05,4e-05,3e-05,0.00017,1e-05,3e-05,0.00017,6,12
32707,7e-05,1e-05,4e-05,3e-05,0.00017,1e-05,3e-05,0.00017,6,12
32708,7e-05,1e-05,4e-05,3e-05,0.00017,1e-05,3e-05,0.00017,6,12
32709,7e-05,1e-05,4e-05,3e-05,0.00017,1e-05,3e-05,0.00017,6,12
32710,7e-05,1e-05,4e-05,3e-05,0.00017,1e-05,3e-05,0.00017,6,12
32711,7e-05,1e-05,4e-05,3e-05,0.00017,1e-05,3e-05,0.00017,6,12
32712,7e-05,1e-05,4e-05,3e-05,0.00017,1e-05,3e-05,0.00017,6,12
32713,7e-05,1e-05,4e-05,3e-05,0.00017,1e-05,3e-05,0.00017,6,12
32714,7e-05,1e-05,4e-05,3e-05,0.00017,1e-05,3e-05,0.00017,6,12
32715,7e-05,1e-05,4e-05,3e-05,0.00017,1e-05,3e-05,0.00017,6,12
32716,2e-05,0,2e-05,4e-05,9e-05,-0.00019,2e-05,0.0001,6,12
32717,2e-05,0,2e-05,4e-05,9e-05,-0.00019,2e-05,0.0001,6,12
32718,2e-05,0,2e-05,4e-05,9e-05,-0.00019,2e-05,0.0001,6,12
32719,2e-05,0,2e-05,4e-05,9e-05,-0.00019,2e-05,0.0001,6,12
32720,2e-05,0,2e-05,4e-05,9e-05,-0.00019,2e-05,0.0001,6,12
32721,2e-05,0,2e-05,4e-05,9e-05,-0.00019,2e-05,0.0001,6,12
32722,2e-05,0,2e-05,4e-05,9e-05,-0.00019,2e-05,0.0001,6,12
32723,2e-05,0,2e-05,4e-05,9e-05,-0.00019,2e-05,0.0001,6,12
32724,-6e-05,-1e-05,-1e-05,-4e-05,-9e-05,-9e-05,0,-1e-05,6,12
32725,-6e-05,-1e-05,-1e-05,-4e-05,-9e-05,-9e-05,0,-1e-05,6,12
32726,-6e-05,-1e-05,-1e-05,-4e-05,-9e-05,-9e-05,0,-1e-05,6,12
32727,-6e-05,-1e-05,-1e-05,-4e-05,-9e-05,-9e-05,0,-1e-05,6,12
32728,-6e-05,-1e-05,-1e-05,-4e-05,-9e-05,-9e-05,0,-1e-05,6,12
32729,-6e-05,-1e-05,-1e-05,-4e-05,-9e-05,-9e-05,0,-1e-05,6,12
32730,-6e-05,-1e-05,-1e-05,-4e-05,-9e-05,-9e-05,0,-1e-05,6,12
32731,-6e-05,-1e-05,-1e-05,-4e-05,-9e-05,-9e-05,0,-1e-05,6,12
32732,-6e-05,-1e-05,-1e-05,-4e-05,-9e-05,-9e-05,0,-1e-05,6,12
32733,-6e-05,-1e-05,-1e-05,-4e-05,-9e-05,-9e-05,0,-1e-05,6,12
32734,-6e-05,-1e-05,-1e-05,-4e-05,-9e-05,-9e-05,0,-1e-05,6,12
32735,-6e-05,-1e-05,-1e-05,-4e-05,-9e-05,-9e-05,0,-1e-05,6,12
32736,-6e-05,-1e-05,-1e-05,-4e-05,-9e-05,-9e-05,0,-1e-05,6,12
32738,-6e-05,-1e-05,-1e-05,-4e-05,-9e-05,-9e-05,0,-1e-05,6,12
32739,-6e-05,-1e-05,-1e-05,-4e-05,-9e-05,-9e-05,0,-1e-05,6,12
32740,-6e-05,-1e-05,-1e-05,-4e-05,-9e-05,-9e-05,0,-1e-05,6,12
32741,-6e-05,-1e-05,-1e-05,-4e-05,-9e-05,-9e-05,0,-1e-05,6,12
32742,-6e-05,-1e-05,-1e-05,-4e-05,-9e-05,-9e-05,0,-1e-05,6,12
32743,-6e-05,-1e-05,-1e-05,-4e-05,-9e-05,-9e-05,0,-1e-05,6,12
32744,-6e-05,-1e-05,-1e-05,-4e-05,-9e-05,-9e-05,0,-1e-05,6,12
32745,-6e-05,-1e-05,-1e-05,-4e-05,-9e-05,-9e-05,0,-1e-05,6,12
32746,-6e-05,-1e-05,-1e-05,-4e-05,-9e-05,-9e-05,0,-1e-05,6,12
32747,8e-05,4e-05,5e-05,0.00011,0.0002,-6e-05,1e-05,0.00012,6,12
32748,0.00014,-1e-05,0,6e-05,0.00018,0.00017,8e-05,0.00028,6,12
32749,0.00014,-1e-05,0,6e-05,0.00018,0.00017,8e-05,0.00028,6,12
32750,0.00014,-1e-05,0,6e-05,0.00018,0.00017,8e-05,0.00028,6,12
32751,0.00014,-1e-05,0,6e-05,0.00018,0.00017,8e-05,0.00028,6,12
32752,0.00014,-1e-05,0,6e-05,0.00018,0.00017,8e-05,0.00028,6,12
32753,0.00014,-1e-05,0,6e-05,0.00018,0.00017,8e-05,0.00028,6,12
32754,0.00014,-1e-05,0,6e-05,0.00018,0.00017,8e-05,0.00028,6,12
32755,0.00014,-1e-05,0,6e-05,0.00018,0.00017,8e-05,0.00028,6,12
32756,0.00014,-1e-05,0,6e-05,0.00018,0.00017,8e-05,0.00028,6,12
32757,0.00014,-1e-05,0,6e-05,0.00018,0.00017,8e-05,0.00028,6,12
32758,0.00014,-1e-05,0,6e-05,0.00018,0.00017,8e-05,0.00028,6,12
32759,0.00014,-1e-05,0,6e-05,0.00018,0.00017,8e-05,0.00028,6,12
32760,0.00014,-1e-05,0,6e-05,0.00018,0.00017,8e-05,0.00028,6,12
32761,0.00014,-1e-05,0,6e-05,0.00018,0.00017,8e-05,0.00028,6,12
32762,-7e-05,1e-05,-1e-05,2e-05,-4e-05,-0.00031,-0.00013,-4e-05,6,12
32763,-7e-05,1e-05,-1e-05,2e-05,-4e-05,-0.00031,-0.00013,-4e-05,6,12
32764,-7e-05,1e-05,-1e-05,2e-05,-4e-05,-0.00031,-0.00013,-4e-05,6,12
32765,-7e-05,1e-05,-1e-05,2e-05,-4e-05,-0.00031,-0.00013,-4e-05,6,12
32766,-7e-05,1e-05,-1e-05,2e-05,-4e-05,-0.00031,-0.00013,-4e-05,6,12
32767,-7e-05,1e-05,-1e-05,2e-05,-4e-05,-0.00031,-0.00013,-4e-05,6,12
32768,-7e-05,1e-05,-1e-05,2e-05,-4e-05,-0.00031,-0.00013,-4e-05,6,12
32769,-7e-05,1e-05,-1e-05,2e-05,-4e-05,-0.00031,-0.00013,-4e-05,6,12
32770,-7e-05,1e-05,-1e-05,2e-05,-4e-05,-0.00031,-0.00013,-4e-05,6,12
32771,-7e-05,1e-05,-1e-05,2e-05,-4e-05,-0.00031,-0.00013,-4e-05,6,12
32772,-7e-05,1e-05,-1e-05,2e-05,-4e-05,-0.00031,-0.00013,-4e-05,6,12
32773,-7e-05,1e-05,-1e-05,2e-05,-4e-05,-0.00031,-0.00013,-4e-05,6,12
32774,-7e-05,1e-05,-1e-05,2e-05,-4e-05,-0.00031,-0.00013,-4e-05,6,12
32775,-7e-05,1e-05,-1e-05,2e-05,-4e-05,-0.00031,-0.00013,-4e-05,6,12
32776,0.00014,3e-05,2e-05,-5e-05,-0.00026,-7e-05,-1e-05,0.00032,6,12
32777,0.00014,3e-05,2e-05,-5e-05,-0.00026,-7e-05,-1e-05,0.00032,6,12
32778,0.00014,3e-05,2e-05,-5e-05,-0.00026,-7e-05,-1e-05,0.00032,6,12
32779,0.00014,3e-05,2e-05,-5e-05,-0.00026,-7e-05,-1e-05,0.00032,6,12
32780,0.00014,3e-05,2e-05,-5e-05,-0.00026,-7e-05,-1e-05,0.00032,6,12
32781,0.00014,3e-05,2e-05,-5e-05,-0.00026,-7e-05,-1e-05,0.00032,6,12
32782,0.00014,3e-05,2e-05,-5e-05,-0.00026,-7e-05,-1e-05,0.00032,6,12
32783,0.00014,3e-05,2e-05,-5e-05,-0.00026,-7e-05,-1e-05,0.00032,6,12
32784,-0.00012,-2e-05,0,2e-05,0.00023,0.00011,-2e-05,-0.00014,6,12
32785,-0.00012,-2e-05,0,2e-05,0.00023,0.00011,-2e-05,-0.00014,6,12
32786,-0.00012,-2e-05,0,2e-05,0.00023,0.00011,-2e-05,-0.00014,6,12
32788,-0.00012,-2e-05,0,2e-05,0.00023,0.00011,-2e-05,-0.00014,6,12
32789,-0.00012,-2e-05,0,2e-05,0.00023,0.00011,-2e-05,-0.00014,6,12
32790,-0.00012,-2e-05,0,2e-05,0.00023,0.00011,-2e-05,-0.00014,6,12
32791,-0.00012,-2e-05,0,2e-05,0.00023,0.00011,-2e-05,-0.00014,6,12
32792,-0.00012,-2e-05,0,2e-05,0.00023,0.00011,-2e-05,-0.00014,6,12
32793,-0.00012,-2e-05,0,2e-05,0.00023,0.00011,-2e-05,-0.00014,6,12
32794,-0.00012,-2e-05,0,2e-05,0.00023,0.00011,-2e-05,-0.00014,6,12
32795,-0.00012,-2e-05,0,2e-05,0.00023,0.00011,-2e-05,-0.00014,6,12
32796,-0.00012,-2e-05,0,2e-05,0.00023,0.00011,-2e-05,-0.00014,6,12
32797,-0.00012,-2e-05,0,2e-05,0.00023,0.00011,-2e-05,-0.00014,6,12
32798,-0.00012,-2e-05,0,2e-05,0.00023,0.00011,-2e-05,-0.00014,6,12
32799,-8e-05,-2e-05,0,1e-05,7e-05,-7e-05,-8e-05,-0.00015,6,12
32800,-7e-05,1e-05,-1e-05,3e-05,0,0.00014,-1e-05,-0.00014,6,12
32801,-7e-05,1e-05,-1e-05,3e-05,0,0.00014,-1e-05,-0.00014,6,12
32802,-7e-05,1e-05,-1e-05,3e-05,0,0.00014,-1e-05,-0.00014,6,12
32803,-7e-05,1e-05,-1e-05,3e-05,0,0.00014,-1e-05,-0.00014,6,12
32804,-7e-05,1e-05,-1e-05,3e-05,0,0.00014,-1e-05,-0.00014,6,12
32805,-7e-05,1e-05,-1e-05,3e-05,0,0.00014,-1e-05,-0.00014,6,12
32806,-7e-05,1e-05,-1e-05,3e-05,0,0.00014,-1e-05,-0.00014,6,12
32807,-7e-05,1e-05,-1e-05,3e-05,0,0.00014,-1e-05,-0.00014,6,12
32808,-7e-05,1e-05,-1e-05,3e-05,0,0.00014,-1e-05,-0.00014,6,12
32809,-7e-05,1e-05,-1e-05,3e-05,0,0.00014,-1e-05,-0.00014,6,12
32810,-7e-05,1e-05,-1e-05,3e-05,0,0.00014,-1e-05,-0.00014,6,12
32811,-7e-05,1e-05,-1e-05,3e-05,0,0.00014,-1e-05,-0.00014,6,12
32812,-7e-05,1e-05,-1e-05,3e-05,0,0.00014,-1e-05,-0.00014,6,12
32813,-7e-05,1e-05,-1e-05,3e-05,0,0.00014,-1e-05,-0.00014,6,12
32814,-7e-05,1e-05,-1e-05,3e-05,0,0.00014,-1e-05,-0.00014,6,12
32815,-7e-05,1e-05,-1e-05,3e-05,0,0.00014,-1e-05,-0.00014,6,12
32816,-7e-05,1e-05,-1e-05,3e-05,0,0.00014,-1e-05,-0.00014,6,12
32817,-7e-05,1e-05,-1e-05,3e-05,0,0.00014,-1e-05,-0.00014,6,12
32818,-7e-05,1e-05,-1e-05,3e-05,0,0.00014,-1e-05,-0.00014,6,12
32819,-7e-05,1e-05,-1e-05,3e-05,0,0.00014,-1e-05,-0.00014,6,12
32820,-7e-05,1e-05,-1e-05,3e-05,0,0.00014,-1e-05,-0.00014,6,12
32821,0.00023,-2e-05,-3e-05,-4e-05,-1e-05,0.00014,1e-05,7e-05,6,12
32822,0,-4e-05,-2e-05,-2e-05,0,5e-05,-3e-05,-0.0001,6,12
32823,0,-4e-05,-2e-05,-2e-05,0,5e-05,-3e-05,-0.0001,6,12
32824,0,-4e-05,-2e-05,-2e-05,0,5e-05,-3e-05,-0.0001,6,12
32825,0,-4e-05,-2e-05,-2e-05,0,5e-05,-3e-05,-0.0001,6,12
32826,0,-4e-05,-2e-05,-2e-05,0,5e-05,-3e-05,-0.0001,6,12
32827,0,-4e-05,-2e-05,-2e-05,0,5e-05,-3e-05,-0.0001,6,12
32828,0,-4e-05,-2e-05,-2e-05,0,5e-05,-3e-05,-0.0001,6,12
32829,0,-4e-05,-2e-05,-2e-05,0,5e-05,-3e-05,-0.0001,6,12
32830,0,-4e-05,-2e-05,-2e-05,0,5e-05,-3e-05,-0.0001,6,12
32831,0,-4e-05,-2e-05,-2e-05,0,5e-05,-3e-05,-0.0001,6,12
32832,0,-4e-05,-2e-05,-2e-05,0,5e-05,-3e-05,-0.0001,6,12
32833,0,-4e-05,-2e-05,-2e-05,0,5e-05,-3e-05,-0.0001,6,12
32834,0,-4e-05,-2e-05,-2e-05,0,5e-05,-3e-05,-0.0001,6,12
32835,0,-4e-05,-2e-05,-2e-05,0,5e-05,-3e-05,-0.0001,6,12
32836,0,-4e-05,-2e-05,-2e-05,0,5e-05,-3e-05,-0.0001,6,12
32838,-5e-05,-1e-05,0,4e-05,0.00015,0.00023,-1e-05,4e-05,6,12
32839,-5e-05,-1e-05,0,4e-05,0.00015,0.00023,-1e-05,4e-05,6,12
32840,-5e-05,-1e-05,0,4e-05,0.00015,0.00023,-1e-05,4e-05,6,12
32841,-5e-05,-1e-05,0,4e-05,0.00015,0.00023,-1e-05,4e-05,6,12
32842,-5e-05,-1e-05,0,4e-05,0.00015,0.00023,-1e-05,4e-05,6,12
32843,-5e-05,-1e-05,0,4e-05,0.00015,0.00023,-1e-05,4e-05,6,12
32844,-6e-05,-1e-05,-1e-05,7e-05,9e-05,0.0004,5e-05,-0.00016,6,12
32845,-6e-05,-1e-05,-1e-05,7e-05,9e-05,0.0004,5e-05,-0.00016,6,12
32846,-6e-05,-1e-05,-1e-05,7e-05,9e-05,0.0004,5e-05,-0.00016,6,12
32847,-6e-05,-1e-05,-1e-05,7e-05,9e-05,0.0004,5e-05,-0.00016,6,12
32848,-6e-05,-1e-05,-1e-05,7e-05,9e-05,0.0004,5e-05,-0.00016,6,12
32849,-6e-05,-1e-05,-1e-05,7e-05,9e-05,0.0004,5e-05,-0.00016,6,12
32850,-6e-05,-1e-05,-1e-05,7e-05,9e-05,0.0004,5e-05,-0.00016,6,12
32851,-6e-05,-1e-05,-1e-05,7e-05,9e-05,0.0004,5e-05,-0.00016,6,12
32852,-6e-05,-1e-05,-1e-05,7e-05,9e-05,0.0004,5e-05,-0.00016,6,12
32853,-6e-05,-1e-05,-1e-05,7e-05,9e-05,0.0004,5e-05,-0.00016,6,12
32854,-6e-05,-1e-05,-1e-05,7e-05,9e-05,0.0004,5e-05,-0.00016,6,12
32855,-6e-05,-1e-05,-1e-05,7e-05,9e-05,0.0004,5e-05,-0.00016,6,12
32856,-6e-05,-1e-05,-1e-05,7e-05,9e-05,0.0004,5e-05,-0.00016,6,12
32857,-6e-05,-1e-05,-1e-05,7e-05,9e-05,0.0004,5e-05,-0.00016,6,12
32858,-6e-05,-1e-05,-1e-05,7e-05,9e-05,0.0004,5e-05,-0.00016,6,12
32859,-0.00017,-2e-05,-3e-05,-1e-05,-5e-05,-0.00024,1e-05,-0.0001,6,12
32860,-5e-05,-2e-05,-2e-05,-4e-05,0.00011,9e-05,4e-05,-0.00017,6,12
32861,-5e-05,-2e-05,-2e-05,-4e-05,0.00011,9e-05,4e-05,-0.00017,6,12
32862,-5e-05,-2e-05,-2e-05,-4e-05,0.00011,9e-05,4e-05,-0.00017,6,12
32863,-5e-05,-2e-05,-2e-05,-4e-05,0.00011,9e-05,4e-05,-0.00017,6,12
32864,-5e-05,-2e-05,-2e-05,-4e-05,0.00011,9e-05,4e-05,-0.00017,6,12
32865,-5e-05,-2e-05,-2e-05,-4e-05,0.00011,9e-05,4e-05,-0.00017,6,12
32866,-5e-05,-2e-05,-2e-05,-4e-05,0.00011,9e-05,4e-05,-0.00017,6,12
32867,-5e-05,-2e-05,-2e-05,-4e-05,0.00011,9e-05,4e-05,-0.00017,6,12
32868,-5e-05,-2e-05,-2e-05,-4e-05,0.00011,9e-05,4e-05,-0.00017,6,12
32869,-5e-05,-2e-05,-2e-05,-4e-05,0.00011,9e-05,4e-05,-0.00017,6,12
32870,-5e-05,-2e-05,-2e-05,-4e-05,0.00011,9e-05,4e-05,-0.00017,6,12
32871,-5e-05,-2e-05,-2e-05,-4e-05,0.00011,9e-05,4e-05,-0.00017,6,12
32872,-5e-05,-2e-05,-2e-05,-4e-05,0.00011,9e-05,4e-05,-0.00017,6,12
32873,-5e-05,-2e-05,-2e-05,-4e-05,0.00011,9e-05,4e-05,-0.00017,6,12
32874,-5e-05,-2e-05,-2e-05,-4e-05,0.00011,9e-05,4e-05,-0.00017,6,12
32875,-5e-05,-2e-05,-2e-05,-4e-05,0.00011,9e-05,4e-05,-0.00017,6,12
32876,-5e-05,-2e-05,-2e-05,-4e-05,0.00011,9e-05,4e-05,-0.00017,6,12
32877,-5e-05,-2e-05,-2e-05,-4e-05,0.00011,9e-05,4e-05,-0.00017,6,12
32878,-5e-05,-2e-05,-2e-05,-4e-05,0.00011,9e-05,4e-05,-0.00017,6,12
32879,-5e-05,-2e-05,-2e-05,-4e-05,0.00011,9e-05,4e-05,-0.00017,6,12
32880,-5e-05,-2e-05,-2e-05,-4e-05,0.00011,9e-05,4e-05,-0.00017,6,12
32881,-5e-05,-2e-05,-2e-05,-4e-05,0.00011,9e-05,4e-05,-0.00017,6,12
32882,-1e-05,1e-05,0,-2e-05,-3e-05,-0.00024,-2e-05,-0.00012,6,12
32883,0.00014,2e-05,-1e-05,4e-05,0.00015,-0.00055,3e-05,8e-05,6,12
32884,0.00014,2e-05,-1e-05,4e-05,0.00015,-0.00055,3e-05,8e-05,6,12
32885,0.00014,2e-05,-1e-05,4e-05,0.00015,-0.00055,3e-05,8e-05,6,12
32886,0.00014,2e-05,-1e-05,4e-05,0.00015,-0.00055,3e-05,8e-05,6,12
32888,0.00014,2e-05,-1e-05,4e-05,0.00015,-0.00055,3e-05,8e-05,6,12
32889,0.00014,2e-05,-1e-05,4e-05,0.00015,-0.00055,3e-05,8e-05,6,12
32890,0.00014,2e-05,-1e-05,4e-05,0.00015,-0.00055,3e-05,8e-05,6,12
32891,0.00014,2e-05,-1e-05,4e-05,0.00015,-0.00055,3e-05,8e-05,6,12
32892,0.00014,2e-05,-1e-05,4e-05,0.00015,-0.00055,3e-05,8e-05,6,12
32893,0.00014,2e-05,-1e-05,4e-05,0.00015,-0.00055,3e-05,8e-05,6,12
32894,0.00014,2e-05,-1e-05,4e-05,0.00015,-0.00055,3e-05,8e-05,6,12
32895,0.00014,2e-05,-1e-05,4e-05,0.00015,-0.00055,3e-05,8e-05,6,12
32896,0.00014,2e-05,-1e-05,4e-05,0.00015,-0.00055,3e-05,8e-05,6,12
32897,0.00014,2e-05,-1e-05,4e-05,0.00015,-0.00055,3e-05,8e-05,6,12
32898,0.00014,2e-05,-1e-05,4e-05,0.00015,-0.00055,3e-05,8e-05,6,12
32899,0.00014,2e-05,-1e-05,4e-05,0.00015,-0.00055,3e-05,8e-05,6,12
32900,0.00014,2e-05,-1e-05,4e-05,0.00015,-0.00055,3e-05,8e-05,6,12
32901,0.00014,2e-05,-1e-05,4e-05,0.00015,-0.00055,3e-05,8e-05,6,12
32902,0.00014,2e-05,-1e-05,4e-05,0.00015,-0.00055,3e-05,8e-05,6,12
32903,0.00014,2e-05,-1e-05,4e-05,0.00015,-0.00055,3e-05,8e-05,6,12
32904,0.00014,2e-05,-1e-05,4e-05,0.00015,-0.00055,3e-05,8e-05,6,12
32905,-3e-05,-2e-05,0,-3e-05,3e-05,4e-05,-2e-05,-0.00019,6,12
32906,-2e-05,0,1e-05,0,-0.0001,-0.00046,-1e-05,9e-05,6,12
32907,-2e-05,0,1e-05,0,-0.0001,-0.00046,-1e-05,9e-05,6,12
32908,-2e-05,0,1e-05,0,-0.0001,-0.00046,-1e-05,9e-05,6,12
32909,-2e-05,0,1e-05,0,-0.0001,-0.00046,-1e-05,9e-05,6,12
32910,-2e-05,0,1e-05,0,-0.0001,-0.00046,-1e-05,9e-05,6,12
32911,-2e-05,0,1e-05,0,-0.0001,-0.00046,-1e-05,9e-05,6,12
32912,-2e-05,0,1e-05,0,-0.0001,-0.00046,-1e-05,9e-05,6,12
32913,-2e-05,0,1e-05,0,-0.0001,-0.00046,-1e-05,9e-05,6,12
32914,-2e-05,0,1e-05,0,-0.0001,-0.00046,-1e-05,9e-05,6,12
32915,-2e-05,0,1e-05,0,-0.0001,-0.00046,-1e-05,9e-05,6,12
32916,-2e-05,0,1e-05,0,-0.0001,-0.00046,-1e-05,9e-05,6,12
32917,-2e-05,0,1e-05,0,-0.0001,-0.00046,-1e-05,9e-05,6,12
32918,-2e-05,0,1e-05,0,-0.0001,-0.00046,-1e-05,9e-05,6,12
32919,-0.00011,-1e-05,-4e-05,-6e-05,-1e-05,-2e-05,-9e-05,-8e-05,6,12
32920,3e-05,-3e-05,-4e-05,-5e-05,-0.00023,-1e-05,1e-05,-5e-05,6,12
32921,3e-05,-3e-05,-4e-05,-5e-05,-0.00023,-1e-05,1e-05,-5e-05,6,12
32922,3e-05,-3e-05,-4e-05,-5e-05,-0.00023,-1e-05,1e-05,-5e-05,6,12
32923,3e-05,-3e-05,-4e-05,-5e-05,-0.00023,-1e-05,1e-05,-5e-05,6,12
32924,3e-05,-3e-05,-4e-05,-5e-05,-0.00023,-1e-05,1e-05,-5e-05,6,12
32925,3e-05,-3e-05,-4e-05,-5e-05,-0.00023,-1e-05,1e-05,-5e-05,6,12
32926,3e-05,-3e-05,-4e-05,-5e-05,-0.00023,-1e-05,1e-05,-5e-05,6,12
32927,3e-05,-3e-05,-4e-05,-5e-05,-0.00023,-1e-05,1e-05,-5e-05,6,12
32928,3e-05,-3e-05,-4e-05,-5e-05,-0.00023,-1e-05,1e-05,-5e-05,6,12
32929,3e-05,-3e-05,-4e-05,-5e-05,-0.00023,-1e-05,1e-05,-5e-05,6,12
32930,3e-05,-3e-05,-4e-05,-5e-05,-0.00023,-1e-05,1e-05,-5e-05,6,12
32931,3e-05,-3e-05,-4e-05,-5e-05,-0.00023,-1e-05,1e-05,-5e-05,6,12
32932,3e-05,-3e-05,-4e-05,-5e-05,-0.00023,-1e-05,1e-05,-5e-05,6,12
32933,3e-05,-3e-05,-4e-05,-5e-05,-0.00023,-1e-05,1e-05,-5e-05,6,12
32934,3e-05,-3e-05,-4e-05,-5e-05,-0.00023,-1e-05,1e-05,-5e-05,6,12
32935,3e-05,-3e-05,-4e-05,-5e-05,-0.00023,-1e-05,1e-05,-5e-05,6,12
32936,3e-05,-3e-05,-4e-05,-5e-05,-0.00023,-1e-05,1e-05,-5e-05,6,12
32938,3e-05,-3e-05,-4e-05,-5e-05,-0.00023,-1e-05,1e-05,-5e-05,6,12
32939,3e-05,-3e-05,-4e-05,-5e-05,-0.00023,-1e-05,1e-05,-5e-05,6,12
32940,3e-05,-3e-05,-4e-05,-5e-05,-0.00023,-1e-05,1e-05,-5e-05,6,12
32941,3e-05,-3e-05,-4e-05,-5e-05,-0.00023,-1e-05,1e-05,-5e-05,6,12
32942,-8e-05,-1e-05,0,-1e-05,0.0001,7e-05,-5e-05,-0.00011,6,12
32943,-8e-05,-1e-05,0,-1e-05,0.0001,7e-05,-5e-05,-0.00011,6,12
32944,-8e-05,-1e-05,0,-1e-05,0.0001,7e-05,-5e-05,-0.00011,6,12
32945,-8e-05,-1e-05,0,-1e-05,0.0001,7e-05,-5e-05,-0.00011,6,12
32946,-8e-05,-1e-05,0,-1e-05,0.0001,7e-05,-5e-05,-0.00011,6,12
32947,-8e-05,-1e-05,0,-1e-05,0.0001,7e-05,-5e-05,-0.00011,6,12
32948,-8e-05,-1e-05,0,-1e-05,0.0001,7e-05,-5e-05,-0.00011,6,12
32949,-8e-05,-1e-05,0,-1e-05,0.0001,7e-05,-5e-05,-0.00011,6,12
32950,-8e-05,-1e-05,0,-1e-05,0.0001,7e-05,-5e-05,-0.00011,6,12
32951,-8e-05,-1e-05,0,-1e-05,0.0001,7e-05,-5e-05,-0.00011,6,12
32952,-8e-05,-1e-05,0,-1e-05,0.0001,7e-05,-5e-05,-0.00011,6,12
32953,-8e-05,-1e-05,0,-1e-05,0.0001,7e-05,-5e-05,-0.00011,6,12
32954,-8e-05,-1e-05,0,-1e-05,0.0001,7e-05,-5e-05,-0.00011,6,12
32955,-8e-05,-1e-05,0,-1e-05,0.0001,7e-05,-5e-05,-0.00011,6,12
32956,-0.00019,-5e-05,-3e-05,-0.00011,-8e-05,0.00074,0.00012,-0.00021,6,12
32957,-0.00019,-5e-05,-3e-05,-0.00011,-8e-05,0.00074,0.00012,-0.00021,6,12
32958,-0.00019,-5e-05,-3e-05,-0.00011,-8e-05,0.00074,0.00012,-0.00021,6,12
32959,-0.00019,-5e-05,-3e-05,-0.00011,-8e-05,0.00074,0.00012,-0.00021,6,12
32960,-0.00019,-5e-05,-3e-05,-0.00011,-8e-05,0.00074,0.00012,-0.00021,6,12
32961,-0.00019,-5e-05,-3e-05,-0.00011,-8e-05,0.00074,0.00012,-0.00021,6,12
32962,-0.00019,-5e-05,-3e-05,-0.00011,-8e-05,0.00074,0.00012,-0.00021,6,12
32963,-0.00019,-5e-05,-3e-05,-0.00011,-8e-05,0.00074,0.00012,-0.00021,6,12
32964,1e-05,-1e-05,-1e-05,1e-05,-3e-05,-0.00069,-0.00015,-7e-05,6,12
32965,1e-05,-1e-05,-1e-05,1e-05,-3e-05,-0.00069,-0.00015,-7e-05,6,12
32966,1e-05,-1e-05,-1e-05,1e-05,-3e-05,-0.00069,-0.00015,-7e-05,6,12
32967,1e-05,-1e-05,-1e-05,1e-05,-3e-05,-0.00069,-0.00015,-7e-05,6,12
32968,1e-05,-1e-05,-1e-05,1e-05,-3e-05,-0.00069,-0.00015,-7e-05,6,12
32969,1e-05,-1e-05,-1e-05,1e-05,-3e-05,-0.00069,-0.00015,-7e-05,6,12
32970,1e-05,-1e-05,-1e-05,1e-05,-3e-05,-0.00069,-0.00015,-7e-05,6,12
32971,1e-05,-1e-05,-1e-05,1e-05,-3e-05,-0.00069,-0.00015,-7e-05,6,12
32972,1e-05,-1e-05,-1e-05,1e-05,-3e-05,-0.00069,-0.00015,-7e-05,6,12
32973,1e-05,-1e-05,-1e-05,1e-05,-3e-05,-0.00069,-0.00015,-7e-05,6,12
32974,1e-05,-1e-05,-1e-05,1e-05,-3e-05,-0.00069,-0.00015,-7e-05,6,12
32975,1e-05,-1e-05,-1e-05,1e-05,-3e-05,-0.00069,-0.00015,-7e-05,6,12
32976,1e-05,-1e-05,-1e-05,1e-05,-3e-05,-0.00069,-0.00015,-7e-05,6,12
32977,1e-05,-1e-05,-1e-05,1e-05,-3e-05,-0.00069,-0.00015,-7e-05,6,12
32978,1e-05,-1e-05,-1e-05,1e-05,-3e-05,-0.00069,-0.00015,-7e-05,6,12
32979,-6e-05,-2e-05,-2e-05,1e-05,1e-05,-0.00014,-0.00016,-0.00018,6,12
32980,-6e-05,0,-1e-05,-5e-05,-5e-05,0.00011,8e-05,-0.00016,6,12
32981,-6e-05,0,-1e-05,-5e-05,-5e-05,0.00011,8e-05,-0.00016,6,12
32982,-6e-05,0,-1e-05,-5e-05,-5e-05,0.00011,8e-05,-0.00016,6,12
32983,-6e-05,0,-1e-05,-5e-05,-5e-05,0.00011,8e-05,-0.00016,6,12
32984,-6e-05,0,-1e-05,-5e-05,-5e-05,0.00011,8e-05,-0.00016,6,12
32985,-6e-05,0,-1e-05,-5e-05,-5e-05,0.00011,8e-05,-0.00016,6,12
32986,-6e-05,0,-1e-05,-5e-05,-5e-05,0.00011,8e-05,-0.00016,6,12
32988,-6e-05,0,-1e-05,-5e-05,-5e-05,0.00011,8e-05,-0.00016,6,12
32989,-6e-05,0,-1e-05,-5e-05,-5e-05,0.00011,8e-05,-0.00016,6,12
32990,-6e-05,0,-1e-05,-5e-05,-5e-05,0.00011,8e-05,-0.00016,6,12
32991,-6e-05,0,-1e-05,-5e-05,-5e-05,0.00011,8e-05,-0.00016,6,12
32992,-6e-05,0,-1e-05,-5e-05,-5e-05,0.00011,8e-05,-0.00016,6,12
32993,-6e-05,0,-1e-05,-5e-05,-5e-05,0.00011,8e-05,-0.00016,6,12
32994,-6e-05,0,-1e-05,-5e-05,-5e-05,0.00011,8e-05,-0.00016,6,12
32995,-6e-05,0,-1e-05,-5e-05,-5e-05,0.00011,8e-05,-0.00016,6,12
32996,-6e-05,0,-1e-05,-5e-05,-5e-05,0.00011,8e-05,-0.00016,6,12
32997,-6e-05,0,-1e-05,-5e-05,-5e-05,0.00011,8e-05,-0.00016,6,12
32998,-6e-05,0,-1e-05,-5e-05,-5e-05,0.00011,8e-05,-0.00016,6,12
32999,-6e-05,0,-1e-05,-5e-05,-5e-05,0.00011,8e-05,-0.00016,6,12
33000,-6e-05,0,-1e-05,-5e-05,-5e-05,0.00011,8e-05,-0.00016,6,12
33001,-6e-05,0,-1e-05,-5e-05,-5e-05,0.00011,8e-05,-0.00016,6,12
33002,-6e-05,1e-05,-1e-05,0,-0.00011,-0.00012,-3e-05,-6e-05,6,12
33003,-6e-05,1e-05,-1e-05,0,-0.00011,-0.00012,-3e-05,-6e-05,6,12
33004,-6e-05,1e-05,-1e-05,0,-0.00011,-0.00012,-3e-05,-6e-05,6,12
33005,-6e-05,1e-05,-1e-05,0,-0.00011,-0.00012,-3e-05,-6e-05,6,12
33006,-6e-05,1e-05,-1e-05,0,-0.00011,-0.00012,-3e-05,-6e-05,6,12
33007,-6e-05,1e-05,-1e-05,0,-0.00011,-0.00012,-3e-05,-6e-05,6,12
33008,-6e-05,1e-05,-1e-05,0,-0.00011,-0.00012,-3e-05,-6e-05,6,12
33009,-6e-05,1e-05,-1e-05,0,-0.00011,-0.00012,-3e-05,-6e-05,6,12
33010,-6e-05,1e-05,-1e-05,0,-0.00011,-0.00012,-3e-05,-6e-05,6,12
33011,-6e-05,1e-05,-1e-05,0,-0.00011,-0.00012,-3e-05,-6e-05,6,12
33012,-6e-05,1e-05,-1e-05,0,-0.00011,-0.00012,-3e-05,-6e-05,6,12
33013,-6e-05,1e-05,-1e-05,0,-0.00011,-0.00012,-3e-05,-6e-05,6,12
33014,-6e-05,1e-05,-1e-05,0,-0.00011,-0.00012,-3e-05,-6e-05,6,12
33015,-6e-05,1e-05,-1e-05,0,-0.00011,-0.00012,-3e-05,-6e-05,6,12
33016,-6e-05,1e-05,-1e-05,0,-0.00011,-0.00012,-3e-05,-6e-05,6,12
33017,-6e-05,1e-05,-1e-05,0,-0.00011,-0.00012,-3e-05,-6e-05,6,12
33018,-6e-05,1e-05,-1e-05,0,-0.00011,-0.00012,-3e-05,-6e-05,6,12
33019,-6e-05,1e-05,-1e-05,0,-0.00011,-0.00012,-3e-05,-6e-05,6,12
33020,-6e-05,1e-05,-1e-05,0,-0.00011,-0.00012,-3e-05,-6e-05,6,12
33021,-6e-05,1e-05,-1e-05,0,-0.00011,-0.00012,-3e-05,-6e-05,6,12
33022,-6e-05,1e-05,-1e-05,0,-0.00011,-0.00012,-3e-05,-6e-05,6,12
33023,-6e-05,1e-05,-1e-05,0,-0.00011,-0.00012,-3e-05,-6e-05,6,12
33024,-6e-05,1e-05,-1e-05,0,-0.00011,-0.00012,-3e-05,-6e-05,6,12
33025,0.00011,0,-1e-05,-2e-05,-0.00015,3e-05,3e-05,0.00013,6,12
33026,-0.00024,-2e-05,-2e-05,-4e-05,-0.00014,0.00038,8e-05,-0.00014,6,12
33027,-0.00024,-2e-05,-2e-05,-4e-05,-0.00014,0.00038,8e-05,-0.00014,6,12
33028,-0.00024,-2e-05,-2e-05,-4e-05,-0.00014,0.00038,8e-05,-0.00014,6,12
33029,-0.00024,-2e-05,-2e-05,-4e-05,-0.00014,0.00038,8e-05,-0.00014,6,12
33030,-0.00024,-2e-05,-2e-05,-4e-05,-0.00014,0.00038,8e-05,-0.00014,6,12
33031,-0.00024,-2e-05,-2e-05,-4e-05,-0.00014,0.00038,8e-05,-0.00014,6,12
33032,-0.00024,-2e-05,-2e-05,-4e-05,-0.00014,0.00038,8e-05,-0.00014,6,12
33033,-0.00024,-2e-05,-2e-05,-4e-05,-0.00014,0.00038,8e-05,-0.00014,6,12
33034,-0.00024,-2e-05,-2e-05,-4e-05,-0.00014,0.00038,8e-05,-0.00014,6,12
33035,-0.00024,-2e-05,-2e-05,-4e-05,-0.00014,0.00038,8e-05,-0.00014,6,12
33036,-0.00024,-2e-05,-2e-05,-4e-05,-0.00014,0.00038,8e-05,-0.00014,6,12
33038,-0.00024,-2e-05,-2e-05,-4e-05,-0.00014,0.00038,8e-05,-0.00014,6,12
33039,-0.00024,-2e-05,-2e-05,-4e-05,-0.00014,0.00038,8e-05,-0.00014,6,12
33040,7e-05,1e-05,0,-6e-05,-0.00014,8e-05,-7e-05,-0.0001,6,12
33041,7e-05,1e-05,0,-6e-05,-0.00014,8e-05,-7e-05,-0.0001,6,12
33042,7e-05,1e-05,0,-6e-05,-0.00014,8e-05,-7e-05,-0.0001,6,12
33043,7e-05,1e-05,0,-6e-05,-0.00014,8e-05,-7e-05,-0.0001,6,12
33044,7e-05,1e-05,0,-6e-05,-0.00014,8e-05,-7e-05,-0.0001,6,12
33045,7e-05,1e-05,0,-6e-05,-0.00014,8e-05,-7e-05,-0.0001,6,12
33046,7e-05,1e-05,0,-6e-05,-0.00014,8e-05,-7e-05,-0.0001,6,12
33047,7e-05,1e-05,0,-6e-05,-0.00014,8e-05,-7e-05,-0.0001,6,12
33048,7e-05,1e-05,0,-6e-05,-0.00014,8e-05,-7e-05,-0.0001,6,12
33049,7e-05,1e-05,0,-6e-05,-0.00014,8e-05,-7e-05,-0.0001,6,12
33050,7e-05,1e-05,0,-6e-05,-0.00014,8e-05,-7e-05,-0.0001,6,12
33051,7e-05,1e-05,0,-6e-05,-0.00014,8e-05,-7e-05,-0.0001,6,12
33052,7e-05,1e-05,0,-6e-05,-0.00014,8e-05,-7e-05,-0.0001,6,12
33053,7e-05,1e-05,0,-6e-05,-0.00014,8e-05,-7e-05,-0.0001,6,12
33054,7e-05,1e-05,0,-6e-05,-0.00014,8e-05,-7e-05,-0.0001,6,12
33055,7e-05,1e-05,0,-6e-05,-0.00014,8e-05,-7e-05,-0.0001,6,12
33056,7e-05,1e-05,0,-6e-05,-0.00014,8e-05,-7e-05,-0.0001,6,12
33057,7e-05,1e-05,0,-6e-05,-0.00014,8e-05,-7e-05,-0.0001,6,12
33058,7e-05,1e-05,0,-6e-05,-0.00014,8e-05,-7e-05,-0.0001,6,12
33059,7e-05,1e-05,0,-6e-05,-0.00014,8e-05,-7e-05,-0.0001,6,12
33060,7e-05,1e-05,0,-6e-05,-0.00014,8e-05,-7e-05,-0.0001,6,12
33061,7e-05,1e-05,0,-6e-05,-0.00014,8e-05,-7e-05,-0.0001,6,12
33062,-1e-05,-2e-05,-2e-05,1e-05,0.0001,0.00064,1e-05,-2e-05,6,12
33063,-1e-05,-2e-05,-2e-05,1e-05,0.0001,0.00064,1e-05,-2e-05,6,12
33064,-1e-05,-2e-05,-2e-05,1e-05,0.0001,0.00064,1e-05,-2e-05,6,12
33065,-1e-05,-2e-05,-2e-05,1e-05,0.0001,0.00064,1e-05,-2e-05,6,12
33066,-1e-05,-2e-05,-2e-05,1e-05,0.0001,0.00064,1e-05,-2e-05,6,12
33067,-1e-05,-2e-05,-2e-05,1e-05,0.0001,0.00064,1e-05,-2e-05,6,12
33068,-1e-05,-2e-05,-2e-05,1e-05,0.0001,0.00064,1e-05,-2e-05,6,12
33069,-1e-05,-2e-05,-2e-05,1e-05,0.0001,0.00064,1e-05,-2e-05,6,12
33070,-1e-05,-2e-05,-2e-05,1e-05,0.0001,0.00064,1e-05,-2e-05,6,12
33071,-1e-05,-2e-05,-2e-05,1e-05,0.0001,0.00064,1e-05,-2e-05,6,12
33072,-1e-05,-2e-05,-2e-05,1e-05,0.0001,0.00064,1e-05,-2e-05,6,12
33073,-1e-05,-2e-05,-2e-05,1e-05,0.0001,0.00064,1e-05,-2e-05,6,12
33074,-1e-05,-2e-05,-2e-05,1e-05,0.0001,0.00064,1e-05,-2e-05,6,12
33075,-1e-05,-2e-05,-2e-05,1e-05,0.0001,0.00064,1e-05,-2e-05,6,12
33076,-1e-05,-2e-05,-2e-05,1e-05,0.0001,0.00064,1e-05,-2e-05,6,12
33077,-1e-05,-2e-05,-2e-05,1e-05,0.0001,0.00064,1e-05,-2e-05,6,12
33078,-1e-05,-2e-05,-2e-05,1e-05,0.0001,0.00064,1e-05,-2e-05,6,12
33079,-1e-05,-2e-05,-2e-05,1e-05,0.0001,0.00064,1e-05,-2e-05,6,12
33080,-1e-05,-2e-05,-2e-05,1e-05,0.0001,0.00064,1e-05,-2e-05,6,12
33081,-1e-05,-2e-05,-2e-05,1e-05,0.0001,0.00064,1e-05,-2e-05,6,12
33082,-1e-05,-2e-05,-2e-05,1e-05,0.0001,0.00064,1e-05,-2e-05,6,12
33083,-1e-05,-2e-05,-2e-05,1e-05,0.0001,0.00064,1e-05,-2e-05,6,12
33084,-1e-05,-2e-05,-2e-05,1e-05,0.0001,0.00064,1e-05,-2e-05,6,12
33085,-5e-05,-1e-05,-1e-05,0,-6e-05,-0.00026,-0.00012,-0.00017,6,12
33086,3e-05,-1e-05,-3e-05,-3e-05,-6e-05,0.00026,-5e-05,5e-05,6,12
33088,3e-05,-1e-05,-3e-05,-3e-05,-6e-05,0.00026,-5e-05,5e-05,6,12
33089,3e-05,-1e-05,-3e-05,-3e-05,-6e-05,0.00026,-5e-05,5e-05,6,12
33090,3e-05,-1e-05,-3e-05,-3e-05,-6e-05,0.00026,-5e-05,5e-05,6,12
33091,3e-05,-1e-05,-3e-05,-3e-05,-6e-05,0.00026,-5e-05,5e-05,6,12
33092,3e-05,-1e-05,-3e-05,-3e-05,-6e-05,0.00026,-5e-05,5e-05,6,12
33093,3e-05,-1e-05,-3e-05,-3e-05,-6e-05,0.00026,-5e-05,5e-05,6,12
33094,3e-05,-1e-05,-3e-05,-3e-05,-6e-05,0.00026,-5e-05,5e-05,6,12
33095,3e-05,-1e-05,-3e-05,-3e-05,-6e-05,0.00026,-5e-05,5e-05,6,12
33096,3e-05,-1e-05,-3e-05,-3e-05,-6e-05,0.00026,-5e-05,5e-05,6,12
33097,3e-05,-1e-05,-3e-05,-3e-05,-6e-05,0.00026,-5e-05,5e-05,6,12
33098,3e-05,-1e-05,-3e-05,-3e-05,-6e-05,0.00026,-5e-05,5e-05,6,12
33099,-5e-05,1e-05,2e-05,6e-05,0.00012,0.0001,-1e-05,1e-05,6,12
33100,4e-05,0,-1e-05,-4e-05,2e-05,-7e-05,0,0.00012,6,12
33101,4e-05,0,-1e-05,-4e-05,2e-05,-7e-05,0,0.00012,6,12
33102,4e-05,0,-1e-05,-4e-05,2e-05,-7e-05,0,0.00012,6,12
33103,4e-05,0,-1e-05,-4e-05,2e-05,-7e-05,0,0.00012,6,12
33104,4e-05,0,-1e-05,-4e-05,2e-05,-7e-05,0,0.00012,6,12
33105,4e-05,0,-1e-05,-4e-05,2e-05,-7e-05,0,0.00012,6,12
33106,4e-05,0,-1e-05,-4e-05,2e-05,-7e-05,0,0.00012,6,12
33107,4e-05,0,-1e-05,-4e-05,2e-05,-7e-05,0,0.00012,6,12
33108,4e-05,0,-1e-05,-4e-05,2e-05,-7e-05,0,0.00012,6,12
33109,4e-05,0,-1e-05,-4e-05,2e-05,-7e-05,0,0.00012,6,12
33110,4e-05,0,-1e-05,-4e-05,2e-05,-7e-05,0,0.00012,6,12
33111,4e-05,0,-1e-05,-4e-05,2e-05,-7e-05,0,0.00012,6,12
33112,4e-05,0,-1e-05,-4e-05,2e-05,-7e-05,0,0.00012,6,12
33113,4e-05,0,-1e-05,-4e-05,2e-05,-7e-05,0,0.00012,6,12
33114,4e-05,0,-1e-05,-4e-05,2e-05,-7e-05,0,0.00012,6,12
33115,4e-05,0,-1e-05,-4e-05,2e-05,-7e-05,0,0.00012,6,12
33116,4e-05,0,-1e-05,-4e-05,2e-05,-7e-05,0,0.00012,6,12
33117,4e-05,0,-1e-05,-4e-05,2e-05,-7e-05,0,0.00012,6,12
