26191,-3e-05,1e-05,2e-05,-8e-05,-2e-05,-0.00011,1e-05,8e-05,6,14
26192,-3e-05,1e-05,2e-05,-8e-05,-2e-05,-0.00011,1e-05,8e-05,6,14
26193,-3e-05,1e-05,2e-05,-8e-05,-2e-05,-0.00011,1e-05,8e-05,6,14
26194,-3e-05,1e-05,2e-05,-8e-05,-2e-05,-0.00011,1e-05,8e-05,6,14
26195,-3e-05,1e-05,2e-05,-8e-05,-2e-05,-0.00011,1e-05,8e-05,6,14
26196,-3e-05,1e-05,2e-05,-8e-05,-2e-05,-0.00011,1e-05,8e-05,6,14
26197,-3e-05,1e-05,2e-05,-8e-05,-2e-05,-0.00011,1e-05,8e-05,6,14
26198,-3e-05,1e-05,2e-05,-8e-05,-2e-05,-0.00011,1e-05,8e-05,6,14
26199,-3e-05,1e-05,2e-05,-8e-05,-2e-05,-0.00011,1e-05,8e-05,6,14
26200,-3e-05,1e-05,2e-05,-8e-05,-2e-05,-0.00011,1e-05,8e-05,6,14
26201,-3e-05,1e-05,2e-05,-8e-05,-2e-05,-0.00011,1e-05,8e-05,6,14
26202,-0.00013,-3e-05,5e-05,0.0001,2e-05,0.00012,0.00043,-0.00072,6,14
26203,-0.00013,-3e-05,5e-05,0.0001,2e-05,0.00012,0.00043,-0.00072,6,14
26204,-2e-05,-1e-05,-3e-05,-2e-05,-1e-05,0,1e-05,-0.00019,6,14
26205,-2e-05,-1e-05,-3e-05,-2e-05,-1e-05,0,1e-05,-0.00019,6,14
26206,-2e-05,-1e-05,-3e-05,-2e-05,-1e-05,0,1e-05,-0.00019,6,14
26207,-2e-05,-1e-05,-3e-05,-2e-05,-1e-05,0,1e-05,-0.00019,6,14
26208,-2e-05,-1e-05,-3e-05,-2e-05,-1e-05,0,1e-05,-0.00019,6,14
26209,-2e-05,-1e-05,-3e-05,-2e-05,-1e-05,0,1e-05,-0.00019,6,14
26210,-2e-05,-1e-05,-3e-05,-2e-05,-1e-05,0,1e-05,-0.00019,6,14
26211,-2e-05,-1e-05,-3e-05,-2e-05,-1e-05,0,1e-05,-0.00019,6,14
26212,-2e-05,-1e-05,-3e-05,-2e-05,-1e-05,0,1e-05,-0.00019,6,14
26213,-2e-05,-1e-05,-3e-05,-2e-05,-1e-05,0,1e-05,-0.00019,6,14
26214,-2e-05,-1e-05,-3e-05,-2e-05,-1e-05,0,1e-05,-0.00019,6,14
26215,-2e-05,-1e-05,-3e-05,-2e-05,-1e-05,0,1e-05,-0.00019,6,14
26216,0.00012,2e-05,-4e-05,1e-05,4e-05,-0.00035,0.00026,0.0001,6,14
26217,0.00012,2e-05,-4e-05,1e-05,4e-05,-0.00035,0.00026,0.0001,6,14
26218,0.00012,2e-05,-4e-05,1e-05,4e-05,-0.00035,0.00026,0.0001,6,14
26219,0.00012,2e-05,-4e-05,1e-05,4e-05,-0.00035,0.00026,0.0001,6,14
26220,0.00012,2e-05,-4e-05,1e-05,4e-05,-0.00035,0.00026,0.0001,6,14
26221,0.00012,2e-05,-4e-05,1e-05,4e-05,-0.00035,0.00026,0.0001,6,14
26222,0.00012,2e-05,-4e-05,1e-05,4e-05,-0.00035,0.00026,0.0001,6,14
26223,0.00012,2e-05,-4e-05,1e-05,4e-05,-0.00035,0.00026,0.0001,6,14
26224,-6e-05,-1e-05,-1e-05,8e-05,0.00015,0.00015,0.00022,-0.00055,6,14
26225,1e-05,2e-05,9e-05,7e-05,4e-05,0.00051,0.00025,0.00034,6,14
26226,1e-05,2e-05,9e-05,7e-05,4e-05,0.00051,0.00025,0.00034,6,14
26227,1e-05,2e-05,9e-05,7e-05,4e-05,0.00051,0.00025,0.00034,6,14
26228,1e-05,2e-05,9e-05,7e-05,4e-05,0.00051,0.00025,0.00034,6,14
26229,1e-05,2e-05,9e-05,7e-05,4e-05,0.00051,0.00025,0.00034,6,14
26230,1e-05,2e-05,9e-05,7e-05,4e-05,0.00051,0.00025,0.00034,6,14
26231,1e-05,2e-05,9e-05,7e-05,4e-05,0.00051,0.00025,0.00034,6,14
26232,1e-05,2e-05,9e-05,7e-05,4e-05,0.00051,0.00025,0.00034,6,14
26233,1e-05,2e-05,9e-05,7e-05,4e-05,0.00051,0.00025,0.00034,6,14
26234,1e-05,2e-05,9e-05,7e-05,4e-05,0.00051,0.00025,0.00034,6,14
26235,1e-05,2e-05,9e-05,7e-05,4e-05,0.00051,0.00025,0.00034,6,14
26236,1e-05,2e-05,9e-05,7e-05,4e-05,0.00051,0.00025,0.00034,6,14
26238,1e-05,2e-05,9e-05,7e-05,4e-05,0.00051,0.00025,0.00034,6,14
26239,1e-05,2e-05,9e-05,7e-05,4e-05,0.00051,0.00025,0.00034,6,14
26240,1e-05,2e-05,9e-05,7e-05,4e-05,0.00051,0.00025,0.00034,6,14
26241,1e-05,2e-05,9e-05,7e-05,4e-05,0.00051,0.00025,0.00034,6,14
26242,1e-05,2e-05,9e-05,7e-05,4e-05,0.00051,0.00025,0.00034,6,14
26243,1e-05,2e-05,9e-05,7e-05,4e-05,0.00051,0.00025,0.00034,6,14
26244,1e-05,2e-05,9e-05,7e-05,4e-05,0.00051,0.00025,0.00034,6,14
26245,1e-05,2e-05,9e-05,7e-05,4e-05,0.00051,0.00025,0.00034,6,14
26246,1e-05,2e-05,9e-05,7e-05,4e-05,0.00051,0.00025,0.00034,6,14
26247,-4e-05,-4e-05,0,0.0001,-9e-05,0.00041,2e-05,0.00017,6,14
26248,-4e-05,-4e-05,0,0.0001,-9e-05,0.00041,2e-05,0.00017,6,14
26249,5e-05,0,-2e-05,0,1e-05,-2e-05,-5e-05,8e-05,6,14
26250,5e-05,0,-2e-05,0,1e-05,-2e-05,-5e-05,8e-05,6,14
26251,5e-05,0,-2e-05,0,1e-05,-2e-05,-5e-05,8e-05,6,14
26252,5e-05,0,-2e-05,0,1e-05,-2e-05,-5e-05,8e-05,6,14
26253,5e-05,0,-2e-05,0,1e-05,-2e-05,-5e-05,8e-05,6,14
26254,5e-05,0,-2e-05,0,1e-05,-2e-05,-5e-05,8e-05,6,14
26255,5e-05,0,-2e-05,0,1e-05,-2e-05,-5e-05,8e-05,6,14
26256,5e-05,0,-2e-05,0,1e-05,-2e-05,-5e-05,8e-05,6,14
26257,5e-05,0,-2e-05,0,1e-05,-2e-05,-5e-05,8e-05,6,14
26258,5e-05,0,-2e-05,0,1e-05,-2e-05,-5e-05,8e-05,6,14
26259,5e-05,0,-2e-05,0,1e-05,-2e-05,-5e-05,8e-05,6,14
26260,5e-05,0,-2e-05,0,1e-05,-2e-05,-5e-05,8e-05,6,14
26261,5e-05,0,-2e-05,0,1e-05,-2e-05,-5e-05,8e-05,6,14
26262,0,0,3e-05,-3e-05,-4e-05,-0.00018,-0.00017,0.00018,6,14
26263,0,0,3e-05,-3e-05,-4e-05,-0.00018,-0.00017,0.00018,6,14
26264,-3e-05,-4e-05,-2e-05,7e-05,4e-05,5e-05,2e-05,-0.00011,6,14
26265,-3e-05,-4e-05,-2e-05,7e-05,4e-05,5e-05,2e-05,-0.00011,6,14
26266,-3e-05,-4e-05,-2e-05,7e-05,4e-05,5e-05,2e-05,-0.00011,6,14
26267,-3e-05,-4e-05,-2e-05,7e-05,4e-05,5e-05,2e-05,-0.00011,6,14
26268,-3e-05,-4e-05,-2e-05,7e-05,4e-05,5e-05,2e-05,-0.00011,6,14
26269,-3e-05,-4e-05,-2e-05,7e-05,4e-05,5e-05,2e-05,-0.00011,6,14
26270,-3e-05,-4e-05,-2e-05,7e-05,4e-05,5e-05,2e-05,-0.00011,6,14
26271,-3e-05,-4e-05,-2e-05,7e-05,4e-05,5e-05,2e-05,-0.00011,6,14
26272,-3e-05,-4e-05,-2e-05,7e-05,4e-05,5e-05,2e-05,-0.00011,6,14
26273,-3e-05,-4e-05,-2e-05,7e-05,4e-05,5e-05,2e-05,-0.00011,6,14
26274,-3e-05,-4e-05,-2e-05,7e-05,4e-05,5e-05,2e-05,-0.00011,6,14
26275,-3e-05,-4e-05,-2e-05,7e-05,4e-05,5e-05,2e-05,-0.00011,6,14
26276,2e-05,-3e-05,1e-05,-2e-05,0.00026,-0.00015,4e-05,-2e-05,6,14
26277,2e-05,-3e-05,1e-05,-2e-05,0.00026,-0.00015,4e-05,-2e-05,6,14
26278,2e-05,-3e-05,1e-05,-2e-05,0.00026,-0.00015,4e-05,-2e-05,6,14
26279,2e-05,-3e-05,1e-05,-2e-05,0.00026,-0.00015,4e-05,-2e-05,6,14
26280,2e-05,-3e-05,1e-05,-2e-05,0.00026,-0.00015,4e-05,-2e-05,6,14
26281,2e-05,-3e-05,1e-05,-2e-05,0.00026,-0.00015,4e-05,-2e-05,6,14
26282,2e-05,-3e-05,1e-05,-2e-05,0.00026,-0.00015,4e-05,-2e-05,6,14
26283,2e-05,-3e-05,1e-05,-2e-05,0.00026,-0.00015,4e-05,-2e-05,6,14
26284,2e-05,-3e-05,1e-05,-2e-05,0.00026,-0.00015,4e-05,-2e-05,6,14
26285,1e-05,-2e-05,-0.00021,-2e-05,-0.0001,0.00026,0.00011,0.00016,6,14
26286,1e-05,-2e-05,-0.00021,-2e-05,-0.0001,0.00026,0.00011,0.00016,6,14
26288,1e-05,-2e-05,-0.00021,-2e-05,-0.0001,0.00026,0.00011,0.00016,6,14
26289,1e-05,-2e-05,-0.00021,-2e-05,-0.0001,0.00026,0.00011,0.00016,6,14
26290,1e-05,-2e-05,-0.00021,-2e-05,-0.0001,0.00026,0.00011,0.00016,6,14
26291,1e-05,-2e-05,-0.00021,-2e-05,-0.0001,0.00026,0.00011,0.00016,6,14
26292,1e-05,-2e-05,-0.00021,-2e-05,-0.0001,0.00026,0.00011,0.00016,6,14
26293,1e-05,-2e-05,-0.00021,-2e-05,-0.0001,0.00026,0.00011,0.00016,6,14
26294,1e-05,-2e-05,-0.00021,-2e-05,-0.0001,0.00026,0.00011,0.00016,6,14
26295,1e-05,-2e-05,-0.00021,-2e-05,-0.0001,0.00026,0.00011,0.00016,6,14
26296,1e-05,-2e-05,-0.00021,-2e-05,-0.0001,0.00026,0.00011,0.00016,6,14
26297,1e-05,-2e-05,-0.00021,-2e-05,-0.0001,0.00026,0.00011,0.00016,6,14
26298,1e-05,-2e-05,-0.00021,-2e-05,-0.0001,0.00026,0.00011,0.00016,6,14
26299,1e-05,-2e-05,-0.00021,-2e-05,-0.0001,0.00026,0.00011,0.00016,6,14
26300,3e-05,2e-05,7e-05,1e-05,-5e-05,4e-05,3e-05,-0.00012,6,14
26301,0,2e-05,7e-05,5e-05,-4e-05,0.00096,0.00017,9e-05,6,14
26302,0,2e-05,7e-05,5e-05,-4e-05,0.00096,0.00017,9e-05,6,14
26303,0,2e-05,7e-05,5e-05,-4e-05,0.00096,0.00017,9e-05,6,14
26304,0,2e-05,7e-05,5e-05,-4e-05,0.00096,0.00017,9e-05,6,14
26305,0,2e-05,7e-05,5e-05,-4e-05,0.00096,0.00017,9e-05,6,14
26306,0,2e-05,7e-05,5e-05,-4e-05,0.00096,0.00017,9e-05,6,14
26307,0,2e-05,7e-05,5e-05,-4e-05,0.00096,0.00017,9e-05,6,14
26308,0,2e-05,7e-05,5e-05,-4e-05,0.00096,0.00017,9e-05,6,14
26309,0,2e-05,7e-05,5e-05,-4e-05,0.00096,0.00017,9e-05,6,14
26310,0,2e-05,7e-05,5e-05,-4e-05,0.00096,0.00017,9e-05,6,14
26311,0,2e-05,7e-05,5e-05,-4e-05,0.00096,0.00017,9e-05,6,14
26312,0,2e-05,7e-05,5e-05,-4e-05,0.00096,0.00017,9e-05,6,14
26313,0,2e-05,7e-05,5e-05,-4e-05,0.00096,0.00017,9e-05,6,14
26314,0,2e-05,7e-05,5e-05,-4e-05,0.00096,0.00017,9e-05,6,14
26315,0,2e-05,7e-05,5e-05,-4e-05,0.00096,0.00017,9e-05,6,14
26316,0,2e-05,7e-05,5e-05,-4e-05,0.00096,0.00017,9e-05,6,14
26317,0,2e-05,7e-05,5e-05,-4e-05,0.00096,0.00017,9e-05,6,14
26318,0,2e-05,7e-05,5e-05,-4e-05,0.00096,0.00017,9e-05,6,14
26319,0,2e-05,7e-05,5e-05,-4e-05,0.00096,0.00017,9e-05,6,14
26320,0,2e-05,7e-05,5e-05,-4e-05,0.00096,0.00017,9e-05,6,14
26321,0,2e-05,7e-05,5e-05,-4e-05,0.00096,0.00017,9e-05,6,14
26322,-2e-05,-4e-05,-6e-05,-0.00014,-0.00015,-0.00011,-0.0002,5e-05,6,14
26323,-2e-05,-4e-05,-6e-05,-0.00014,-0.00015,-0.00011,-0.0002,5e-05,6,14
26324,2e-05,-1e-05,-3e-05,8e-05,0.00011,5e-05,0,0.0002,6,14
26325,-4e-05,-5e-05,0,-6e-05,-1e-05,0.00018,-0.00015,-4e-05,6,14
26326,-4e-05,-5e-05,0,-6e-05,-1e-05,0.00018,-0.00015,-4e-05,6,14
26327,-4e-05,-5e-05,0,-6e-05,-1e-05,0.00018,-0.00015,-4e-05,6,14
26328,-4e-05,-5e-05,0,-6e-05,-1e-05,0.00018,-0.00015,-4e-05,6,14
26329,-4e-05,-5e-05,0,-6e-05,-1e-05,0.00018,-0.00015,-4e-05,6,14
26330,-4e-05,-5e-05,0,-6e-05,-1e-05,0.00018,-0.00015,-4e-05,6,14
26331,-4e-05,-5e-05,0,-6e-05,-1e-05,0.00018,-0.00015,-4e-05,6,14
26332,-4e-05,-5e-05,0,-6e-05,-1e-05,0.00018,-0.00015,-4e-05,6,14
26333,-4e-05,-5e-05,0,-6e-05,-1e-05,0.00018,-0.00015,-4e-05,6,14
26334,-4e-05,-5e-05,0,-6e-05,-1e-05,0.00018,-0.00015,-4e-05,6,14
26335,-4e-05,-5e-05,0,-6e-05,-1e-05,0.00018,-0.00015,-4e-05,6,14
26336,-1e-05,-1e-05,7e-05,8e-05,-2e-05,0.00067,0.0002,8e-05,6,14
26338,-1e-05,-1e-05,7e-05,8e-05,-2e-05,0.00067,0.0002,8e-05,6,14
26339,-1e-05,-1e-05,7e-05,8e-05,-2e-05,0.00067,0.0002,8e-05,6,14
26340,-1e-05,-1e-05,7e-05,8e-05,-2e-05,0.00067,0.0002,8e-05,6,14
26341,-1e-05,-1e-05,7e-05,8e-05,-2e-05,0.00067,0.0002,8e-05,6,14
26342,-1e-05,-1e-05,7e-05,8e-05,-2e-05,0.00067,0.0002,8e-05,6,14
26343,-1e-05,-1e-05,7e-05,8e-05,-2e-05,0.00067,0.0002,8e-05,6,14
26344,-1e-05,-1e-05,7e-05,8e-05,-2e-05,0.00067,0.0002,8e-05,6,14
26345,4e-05,1e-05,9e-05,1e-05,-9e-05,1e-05,7e-05,-0.00015,6,14
26346,4e-05,1e-05,9e-05,1e-05,-9e-05,1e-05,7e-05,-0.00015,6,14
26347,4e-05,1e-05,9e-05,1e-05,-9e-05,1e-05,7e-05,-0.00015,6,14
26348,4e-05,1e-05,9e-05,1e-05,-9e-05,1e-05,7e-05,-0.00015,6,14
26349,4e-05,1e-05,9e-05,1e-05,-9e-05,1e-05,7e-05,-0.00015,6,14
26350,4e-05,1e-05,9e-05,1e-05,-9e-05,1e-05,7e-05,-0.00015,6,14
26351,4e-05,1e-05,9e-05,1e-05,-9e-05,1e-05,7e-05,-0.00015,6,14
26352,4e-05,1e-05,9e-05,1e-05,-9e-05,1e-05,7e-05,-0.00015,6,14
26353,4e-05,1e-05,9e-05,1e-05,-9e-05,1e-05,7e-05,-0.00015,6,14
26354,4e-05,1e-05,9e-05,1e-05,-9e-05,1e-05,7e-05,-0.00015,6,14
26355,4e-05,1e-05,9e-05,1e-05,-9e-05,1e-05,7e-05,-0.00015,6,14
26356,4e-05,1e-05,9e-05,1e-05,-9e-05,1e-05,7e-05,-0.00015,6,14
26357,4e-05,1e-05,9e-05,1e-05,-9e-05,1e-05,7e-05,-0.00015,6,14
26358,4e-05,1e-05,9e-05,1e-05,-9e-05,1e-05,7e-05,-0.00015,6,14
26359,4e-05,1e-05,9e-05,1e-05,-9e-05,1e-05,7e-05,-0.00015,6,14
26360,6e-05,4e-05,0,7e-05,-5e-05,-0.0001,-0.0001,0.00019,6,14
26361,-3e-05,0,0,-0.0001,-2e-05,-0.00037,-1e-05,2e-05,6,14
26362,-3e-05,0,0,-0.0001,-2e-05,-0.00037,-1e-05,2e-05,6,14
26363,-3e-05,0,0,-0.0001,-2e-05,-0.00037,-1e-05,2e-05,6,14
26364,-3e-05,0,0,-0.0001,-2e-05,-0.00037,-1e-05,2e-05,6,14
26365,-3e-05,0,0,-0.0001,-2e-05,-0.00037,-1e-05,2e-05,6,14
26366,-3e-05,0,0,-0.0001,-2e-05,-0.00037,-1e-05,2e-05,6,14
26367,-3e-05,0,0,-0.0001,-2e-05,-0.00037,-1e-05,2e-05,6,14
26368,-3e-05,0,0,-0.0001,-2e-05,-0.00037,-1e-05,2e-05,6,14
26369,-3e-05,0,0,-0.0001,-2e-05,-0.00037,-1e-05,2e-05,6,14
26370,-3e-05,0,0,-0.0001,-2e-05,-0.00037,-1e-05,2e-05,6,14
26371,-3e-05,0,0,-0.0001,-2e-05,-0.00037,-1e-05,2e-05,6,14
26372,-3e-05,0,0,-0.0001,-2e-05,-0.00037,-1e-05,2e-05,6,14
26373,-3e-05,0,0,-0.0001,-2e-05,-0.00037,-1e-05,2e-05,6,14
26374,-3e-05,0,0,-0.0001,-2e-05,-0.00037,-1e-05,2e-05,6,14
26375,-3e-05,0,0,-0.0001,-2e-05,-0.00037,-1e-05,2e-05,6,14
26376,-3e-05,0,0,-0.0001,-2e-05,-0.00037,-1e-05,2e-05,6,14
26377,-3e-05,0,0,-0.0001,-2e-05,-0.00037,-1e-05,2e-05,6,14
26378,-3e-05,0,0,-0.0001,-2e-05,-0.00037,-1e-05,2e-05,6,14
26379,-3e-05,0,0,-0.0001,-2e-05,-0.00037,-1e-05,2e-05,6,14
26380,-3e-05,0,0,-0.0001,-2e-05,-0.00037,-1e-05,2e-05,6,14
26381,-3e-05,0,0,-0.0001,-2e-05,-0.00037,-1e-05,2e-05,6,14
26382,-0.00014,-5e-05,-1e-05,3e-05,0.00017,-0.00048,-5e-05,-0.0003,6,14
26383,-0.00014,-5e-05,-1e-05,3e-05,0.00017,-0.00048,-5e-05,-0.0003,6,14
26384,-6e-05,-2e-05,7e-05,-1e-05,0,-0.0002,4e-05,9e-05,6,14
26385,-6e-05,-2e-05,7e-05,-1e-05,0,-0.0002,4e-05,9e-05,6,14
26386,-6e-05,-2e-05,7e-05,-1e-05,0,-0.0002,4e-05,9e-05,6,14
26388,-6e-05,-2e-05,7e-05,-1e-05,0,-0.0002,4e-05,9e-05,6,14
26389,-6e-05,-2e-05,7e-05,-1e-05,0,-0.0002,4e-05,9e-05,6,14
26390,-6e-05,-2e-05,7e-05,-1e-05,0,-0.0002,4e-05,9e-05,6,14
26391,-6e-05,-2e-05,7e-05,-1e-05,0,-0.0002,4e-05,9e-05,6,14
26392,-6e-05,-2e-05,7e-05,-1e-05,0,-0.0002,4e-05,9e-05,6,14
26393,-6e-05,-2e-05,7e-05,-1e-05,0,-0.0002,4e-05,9e-05,6,14
26394,-6e-05,-2e-05,7e-05,-1e-05,0,-0.0002,4e-05,9e-05,6,14
26395,-6e-05,-2e-05,7e-05,-1e-05,0,-0.0002,4e-05,9e-05,6,14
26396,-6e-05,-2e-05,7e-05,-1e-05,0,-0.0002,4e-05,9e-05,6,14
26397,-6e-05,-2e-05,7e-05,-1e-05,0,-0.0002,4e-05,9e-05,6,14
26398,-6e-05,-2e-05,7e-05,-1e-05,0,-0.0002,4e-05,9e-05,6,14
26399,-6e-05,-2e-05,7e-05,-1e-05,0,-0.0002,4e-05,9e-05,6,14
26400,-6e-05,-2e-05,7e-05,-1e-05,0,-0.0002,4e-05,9e-05,6,14
26401,-6e-05,-2e-05,7e-05,-1e-05,0,-0.0002,4e-05,9e-05,6,14
26402,-6e-05,-2e-05,7e-05,-1e-05,0,-0.0002,4e-05,9e-05,6,14
26403,-6e-05,-2e-05,7e-05,-1e-05,0,-0.0002,4e-05,9e-05,6,14
26404,-6e-05,-2e-05,7e-05,-1e-05,0,-0.0002,4e-05,9e-05,6,14
26405,-2e-05,-1e-05,4e-05,-3e-05,-0.00015,-0.00029,-2e-05,-0.00059,6,14
26406,-2e-05,-4e-05,-6e-05,-7e-05,-6e-05,-0.00072,-3e-05,0.00018,6,14
26407,-2e-05,-4e-05,-6e-05,-7e-05,-6e-05,-0.00072,-3e-05,0.00018,6,14
26408,-2e-05,-4e-05,-6e-05,-7e-05,-6e-05,-0.00072,-3e-05,0.00018,6,14
26409,-2e-05,-4e-05,-6e-05,-7e-05,-6e-05,-0.00072,-3e-05,0.00018,6,14
26410,-2e-05,-4e-05,-6e-05,-7e-05,-6e-05,-0.00072,-3e-05,0.00018,6,14
26411,-2e-05,-4e-05,-6e-05,-7e-05,-6e-05,-0.00072,-3e-05,0.00018,6,14
26412,-2e-05,-4e-05,-6e-05,-7e-05,-6e-05,-0.00072,-3e-05,0.00018,6,14
26413,-2e-05,-4e-05,-6e-05,-7e-05,-6e-05,-0.00072,-3e-05,0.00018,6,14
26414,-2e-05,-4e-05,-6e-05,-7e-05,-6e-05,-0.00072,-3e-05,0.00018,6,14
26415,-2e-05,-4e-05,-6e-05,-7e-05,-6e-05,-0.00072,-3e-05,0.00018,6,14
26416,-2e-05,-4e-05,-6e-05,-7e-05,-6e-05,-0.00072,-3e-05,0.00018,6,14
26417,-2e-05,-4e-05,-6e-05,-7e-05,-6e-05,-0.00072,-3e-05,0.00018,6,14
26418,-2e-05,-4e-05,-6e-05,-7e-05,-6e-05,-0.00072,-3e-05,0.00018,6,14
26419,-2e-05,-4e-05,-6e-05,-7e-05,-6e-05,-0.00072,-3e-05,0.00018,6,14
26420,0.00013,2e-05,1e-05,0,0.0001,0.00055,9e-05,0.0002,6,14
26421,-2e-05,-4e-05,-5e-05,-3e-05,-0.00025,-0.00052,0.00011,-0.0003,6,14
26422,-2e-05,-4e-05,-5e-05,-3e-05,-0.00025,-0.00052,0.00011,-0.0003,6,14
26423,-2e-05,-4e-05,-5e-05,-3e-05,-0.00025,-0.00052,0.00011,-0.0003,6,14
26424,-2e-05,-4e-05,-5e-05,-3e-05,-0.00025,-0.00052,0.00011,-0.0003,6,14
26425,-2e-05,-4e-05,-5e-05,-3e-05,-0.00025,-0.00052,0.00011,-0.0003,6,14
26426,-2e-05,-4e-05,-5e-05,-3e-05,-0.00025,-0.00052,0.00011,-0.0003,6,14
26427,-2e-05,-4e-05,-5e-05,-3e-05,-0.00025,-0.00052,0.00011,-0.0003,6,14
26428,-2e-05,-4e-05,-5e-05,-3e-05,-0.00025,-0.00052,0.00011,-0.0003,6,14
26429,-2e-05,-4e-05,-5e-05,-3e-05,-0.00025,-0.00052,0.00011,-0.0003,6,14
26430,-2e-05,-4e-05,-5e-05,-3e-05,-0.00025,-0.00052,0.00011,-0.0003,6,14
26431,-2e-05,-4e-05,-5e-05,-3e-05,-0.00025,-0.00052,0.00011,-0.0003,6,14
26432,-2e-05,-4e-05,-5e-05,-3e-05,-0.00025,-0.00052,0.00011,-0.0003,6,14
26433,-2e-05,-4e-05,-5e-05,-3e-05,-0.00025,-0.00052,0.00011,-0.0003,6,14
26434,-2e-05,-4e-05,-5e-05,-3e-05,-0.00025,-0.00052,0.00011,-0.0003,6,14
26435,-2e-05,-4e-05,-5e-05,-3e-05,-0.00025,-0.00052,0.00011,-0.0003,6,14
26436,-2e-05,-4e-05,-5e-05,-3e-05,-0.00025,-0.00052,0.00011,-0.0003,6,14
26438,-2e-05,-4e-05,-5e-05,-3e-05,-0.00025,-0.00052,0.00011,-0.0003,6,14
26439,-2e-05,-4e-05,-5e-05,-3e-05,-0.00025,-0.00052,0.00011,-0.0003,6,14
26440,-2e-05,-4e-05,-5e-05,-3e-05,-0.00025,-0.00052,0.00011,-0.0003,6,14
26441,-2e-05,-4e-05,-5e-05,-3e-05,-0.00025,-0.00052,0.00011,-0.0003,6,14
26442,4e-05,2e-05,2e-05,-2e-05,0.00034,-0.00049,-3e-05,-8e-05,6,14
26443,4e-05,2e-05,2e-05,-2e-05,0.00034,-0.00049,-3e-05,-8e-05,6,14
26444,-2e-05,0,-3e-05,-0.00011,-3e-05,0.0003,-1e-05,0.00015,6,14
26445,-2e-05,0,-3e-05,-0.00011,-3e-05,0.0003,-1e-05,0.00015,6,14
26446,-2e-05,0,-3e-05,-0.00011,-3e-05,0.0003,-1e-05,0.00015,6,14
26447,-2e-05,0,-3e-05,-0.00011,-3e-05,0.0003,-1e-05,0.00015,6,14
26448,-2e-05,0,-3e-05,-0.00011,-3e-05,0.0003,-1e-05,0.00015,6,14
26449,-2e-05,0,-3e-05,-0.00011,-3e-05,0.0003,-1e-05,0.00015,6,14
26450,-2e-05,0,-3e-05,-0.00011,-3e-05,0.0003,-1e-05,0.00015,6,14
26451,-2e-05,0,-3e-05,-0.00011,-3e-05,0.0003,-1e-05,0.00015,6,14
26452,-2e-05,0,-3e-05,-0.00011,-3e-05,0.0003,-1e-05,0.00015,6,14
26453,-2e-05,0,-3e-05,-0.00011,-3e-05,0.0003,-1e-05,0.00015,6,14
26454,-2e-05,0,-3e-05,-0.00011,-3e-05,0.0003,-1e-05,0.00015,6,14
26455,-2e-05,0,-3e-05,-0.00011,-3e-05,0.0003,-1e-05,0.00015,6,14
26456,-2e-05,0,-3e-05,-0.00011,-3e-05,0.0003,-1e-05,0.00015,6,14
26457,-2e-05,0,-3e-05,-0.00011,-3e-05,0.0003,-1e-05,0.00015,6,14
26458,-2e-05,0,-3e-05,-0.00011,-3e-05,0.0003,-1e-05,0.00015,6,14
26459,-2e-05,0,-3e-05,-0.00011,-3e-05,0.0003,-1e-05,0.00015,6,14
26460,-2e-05,0,-3e-05,-0.00011,-3e-05,0.0003,-1e-05,0.00015,6,14
26461,-2e-05,0,-3e-05,-0.00011,-3e-05,0.0003,-1e-05,0.00015,6,14
26462,-2e-05,0,-3e-05,-0.00011,-3e-05,0.0003,-1e-05,0.00015,6,14
26463,-2e-05,0,-3e-05,-0.00011,-3e-05,0.0003,-1e-05,0.00015,6,14
26464,-2e-05,0,-3e-05,-0.00011,-3e-05,0.0003,-1e-05,0.00015,6,14
26465,0.00011,3e-05,5e-05,-0.00016,-0.00019,-2e-05,-7e-05,6e-05,6,14
26466,0.00011,3e-05,6e-05,8e-05,0.0002,0.00063,0.00019,0.00042,6,14
26467,0.00011,3e-05,6e-05,8e-05,0.0002,0.00063,0.00019,0.00042,6,14
26468,0.00011,3e-05,6e-05,8e-05,0.0002,0.00063,0.00019,0.00042,6,14
26469,0.00011,3e-05,6e-05,8e-05,0.0002,0.00063,0.00019,0.00042,6,14
26470,0.00011,3e-05,6e-05,8e-05,0.0002,0.00063,0.00019,0.00042,6,14
26471,0.00011,3e-05,6e-05,8e-05,0.0002,0.00063,0.00019,0.00042,6,14
26472,0.00011,3e-05,6e-05,8e-05,0.0002,0.00063,0.00019,0.00042,6,14
26473,0.00011,3e-05,6e-05,8e-05,0.0002,0.00063,0.00019,0.00042,6,14
26474,0.00011,3e-05,6e-05,8e-05,0.0002,0.00063,0.00019,0.00042,6,14
26475,0.00011,3e-05,6e-05,8e-05,0.0002,0.00063,0.00019,0.00042,6,14
26476,0.00011,3e-05,6e-05,8e-05,0.0002,0.00063,0.00019,0.00042,6,14
26477,0.00011,3e-05,6e-05,8e-05,0.0002,0.00063,0.00019,0.00042,6,14
26478,0.00011,3e-05,6e-05,8e-05,0.0002,0.00063,0.00019,0.00042,6,14
26479,0.00011,3e-05,6e-05,8e-05,0.0002,0.00063,0.00019,0.00042,6,14
26480,-0.0001,-1e-05,-0.00015,0,-7e-05,-0.00032,-1e-05,-2e-05,6,14
26481,5e-05,2e-05,0,3e-05,6e-05,-0.00012,-0.00017,0.00028,6,14
26483,5e-05,2e-05,0,3e-05,6e-05,-0.00012,-0.00017,0.00028,6,14
26484,5e-05,2e-05,0,3e-05,6e-05,-0.00012,-0.00017,0.00028,6,14
26485,5e-05,2e-05,0,3e-05,6e-05,-0.00012,-0.00017,0.00028,6,14
26486,5e-05,2e-05,0,3e-05,6e-05,-0.00012,-0.00017,0.00028,6,14
26488,5e-05,2e-05,0,3e-05,6e-05,-0.00012,-0.00017,0.00028,6,14
26489,5e-05,2e-05,0,3e-05,6e-05,-0.00012,-0.00017,0.00028,6,14
26490,5e-05,2e-05,0,3e-05,6e-05,-0.00012,-0.00017,0.00028,6,14
26491,5e-05,2e-05,0,3e-05,6e-05,-0.00012,-0.00017,0.00028,6,14
26492,5e-05,2e-05,0,3e-05,6e-05,-0.00012,-0.00017,0.00028,6,14
26493,5e-05,2e-05,0,3e-05,6e-05,-0.00012,-0.00017,0.00028,6,14
26494,5e-05,2e-05,0,3e-05,6e-05,-0.00012,-0.00017,0.00028,6,14
26495,5e-05,2e-05,0,3e-05,6e-05,-0.00012,-0.00017,0.00028,6,14
26496,5e-05,2e-05,0,3e-05,6e-05,-0.00012,-0.00017,0.00028,6,14
26497,5e-05,2e-05,0,3e-05,6e-05,-0.00012,-0.00017,0.00028,6,14
26498,5e-05,2e-05,0,3e-05,6e-05,-0.00012,-0.00017,0.00028,6,14
26499,5e-05,2e-05,0,3e-05,6e-05,-0.00012,-0.00017,0.00028,6,14
26500,5e-05,2e-05,0,3e-05,6e-05,-0.00012,-0.00017,0.00028,6,14
26501,5e-05,2e-05,0,3e-05,6e-05,-0.00012,-0.00017,0.00028,6,14
26502,-6e-05,1e-05,-1e-05,2e-05,-0.00014,0.00022,-1e-05,0.00021,6,14
26503,-6e-05,1e-05,-1e-05,2e-05,-0.00014,0.00022,-1e-05,0.00021,6,14
26504,-6e-05,-2e-05,-4e-05,6e-05,4e-05,0.00038,-4e-05,-0.00016,6,14
26505,-6e-05,-2e-05,-4e-05,6e-05,4e-05,0.00038,-4e-05,-0.00016,6,14
26506,-6e-05,-2e-05,-4e-05,6e-05,4e-05,0.00038,-4e-05,-0.00016,6,14
26507,-6e-05,-2e-05,-4e-05,6e-05,4e-05,0.00038,-4e-05,-0.00016,6,14
26508,-6e-05,-2e-05,-4e-05,6e-05,4e-05,0.00038,-4e-05,-0.00016,6,14
26509,-6e-05,-2e-05,-4e-05,6e-05,4e-05,0.00038,-4e-05,-0.00016,6,14
26510,-6e-05,-2e-05,-4e-05,6e-05,4e-05,0.00038,-4e-05,-0.00016,6,14
26511,-6e-05,-2e-05,-4e-05,6e-05,4e-05,0.00038,-4e-05,-0.00016,6,14
26512,-6e-05,-2e-05,-4e-05,6e-05,4e-05,0.00038,-4e-05,-0.00016,6,14
26513,-6e-05,-2e-05,-4e-05,6e-05,4e-05,0.00038,-4e-05,-0.00016,6,14
26514,-6e-05,-2e-05,-4e-05,6e-05,4e-05,0.00038,-4e-05,-0.00016,6,14
26515,-6e-05,-2e-05,-4e-05,6e-05,4e-05,0.00038,-4e-05,-0.00016,6,14
26516,-6e-05,-2e-05,-4e-05,6e-05,4e-05,0.00038,-4e-05,-0.00016,6,14
26517,-6e-05,-2e-05,-4e-05,6e-05,4e-05,0.00038,-4e-05,-0.00016,6,14
26518,-6e-05,-2e-05,-4e-05,6e-05,4e-05,0.00038,-4e-05,-0.00016,6,14
26519,-6e-05,-2e-05,-4e-05,6e-05,4e-05,0.00038,-4e-05,-0.00016,6,14
26520,-6e-05,-2e-05,-4e-05,6e-05,4e-05,0.00038,-4e-05,-0.00016,6,14
26521,-6e-05,-2e-05,-4e-05,6e-05,4e-05,0.00038,-4e-05,-0.00016,6,14
26522,-6e-05,-2e-05,-4e-05,6e-05,4e-05,0.00038,-4e-05,-0.00016,6,14
26523,-6e-05,-2e-05,-4e-05,6e-05,4e-05,0.00038,-4e-05,-0.00016,6,14
26524,-6e-05,-2e-05,-4e-05,6e-05,4e-05,0.00038,-4e-05,-0.00016,6,14
26525,-2e-05,2e-05,1e-05,7e-05,3e-05,0.00028,-0.00028,-0.00019,6,14
26526,-6e-05,-2e-05,4e-05,0.00014,0.00013,-1e-05,-0.00015,-0.00116,6,14
26527,-6e-05,-2e-05,4e-05,0.00014,0.00013,-1e-05,-0.00015,-0.00116,6,14
26528,-6e-05,-2e-05,4e-05,0.00014,0.00013,-1e-05,-0.00015,-0.00116,6,14
26529,-6e-05,-2e-05,4e-05,0.00014,0.00013,-1e-05,-0.00015,-0.00116,6,14
26530,-6e-05,-2e-05,4e-05,0.00014,0.00013,-1e-05,-0.00015,-0.00116,6,14
26531,-6e-05,-2e-05,4e-05,0.00014,0.00013,-1e-05,-0.00015,-0.00116,6,14
26532,-6e-05,-2e-05,4e-05,0.00014,0.00013,-1e-05,-0.00015,-0.00116,6,14
26533,-6e-05,-2e-05,4e-05,0.00014,0.00013,-1e-05,-0.00015,-0.00116,6,14
26534,-6e-05,-2e-05,4e-05,0.00014,0.00013,-1e-05,-0.00015,-0.00116,6,14
26535,-6e-05,-2e-05,4e-05,0.00014,0.00013,-1e-05,-0.00015,-0.00116,6,14
26536,-6e-05,-2e-05,4e-05,0.00014,0.00013,-1e-05,-0.00015,-0.00116,6,14
26539,6e-05,2e-05,2e-05,6e-05,6e-05,-0.00044,-0.00012,0.0004,6,14
26540,-5e-05,-5e-05,-5e-05,-3e-05,-2e-05,0.00072,0.00016,-2e-05,6,14
26542,-5e-05,-5e-05,-5e-05,-3e-05,-2e-05,0.00072,0.00016,-2e-05,6,14
26543,-5e-05,-5e-05,-5e-05,-3e-05,-2e-05,0.00072,0.00016,-2e-05,6,14
26544,-5e-05,-5e-05,-5e-05,-3e-05,-2e-05,0.00072,0.00016,-2e-05,6,14
26545,-5e-05,-5e-05,-5e-05,-3e-05,-2e-05,0.00072,0.00016,-2e-05,6,14
26546,2e-05,2e-05,4e-05,0.0001,-6e-05,0.00021,0,9e-05,6,14
26547,2e-05,2e-05,4e-05,0.0001,-6e-05,0.00021,0,9e-05,6,14
26548,2e-05,2e-05,4e-05,0.0001,-6e-05,0.00021,0,9e-05,6,14
26549,2e-05,2e-05,4e-05,0.0001,-6e-05,0.00021,0,9e-05,6,14
26550,2e-05,2e-05,4e-05,0.0001,-6e-05,0.00021,0,9e-05,6,14
26551,2e-05,2e-05,4e-05,0.0001,-6e-05,0.00021,0,9e-05,6,14
26552,2e-05,2e-05,4e-05,0.0001,-6e-05,0.00021,0,9e-05,6,14
26553,2e-05,2e-05,4e-05,0.0001,-6e-05,0.00021,0,9e-05,6,14
26554,2e-05,2e-05,4e-05,0.0001,-6e-05,0.00021,0,9e-05,6,14
26555,2e-05,2e-05,4e-05,0.0001,-6e-05,0.00021,0,9e-05,6,14
26556,2e-05,2e-05,4e-05,0.0001,-6e-05,0.00021,0,9e-05,6,14
26557,2e-05,2e-05,4e-05,0.0001,-6e-05,0.00021,0,9e-05,6,14
26558,2e-05,2e-05,4e-05,0.0001,-6e-05,0.00021,0,9e-05,6,14
26559,2e-05,2e-05,4e-05,0.0001,-6e-05,0.00021,0,9e-05,6,14
26560,2e-05,2e-05,4e-05,0.0001,-6e-05,0.00021,0,9e-05,6,14
26561,2e-05,2e-05,4e-05,0.0001,-6e-05,0.00021,0,9e-05,6,14
26562,-2e-05,-4e-05,0,0.00012,3e-05,-0.00034,-9e-05,-5e-05,6,14
26563,-2e-05,-4e-05,0,0.00012,3e-05,-0.00034,-9e-05,-5e-05,6,14
26564,-1e-05,1e-05,-9e-05,-0.00017,-0.00011,-0.00087,-0.00031,-0.0001,6,14
26565,-1e-05,1e-05,-9e-05,-0.00017,-0.00011,-0.00087,-0.00031,-0.0001,6,14
26566,-1e-05,1e-05,-9e-05,-0.00017,-0.00011,-0.00087,-0.00031,-0.0001,6,14
26567,-1e-05,1e-05,-9e-05,-0.00017,-0.00011,-0.00087,-0.00031,-0.0001,6,14
26568,-1e-05,1e-05,-9e-05,-0.00017,-0.00011,-0.00087,-0.00031,-0.0001,6,14
26569,-1e-05,1e-05,-9e-05,-0.00017,-0.00011,-0.00087,-0.00031,-0.0001,6,14
26570,-1e-05,1e-05,-9e-05,-0.00017,-0.00011,-0.00087,-0.00031,-0.0001,6,14
26571,-1e-05,1e-05,-9e-05,-0.00017,-0.00011,-0.00087,-0.00031,-0.0001,6,14
26572,-1e-05,1e-05,-9e-05,-0.00017,-0.00011,-0.00087,-0.00031,-0.0001,6,14
26573,-1e-05,1e-05,-9e-05,-0.00017,-0.00011,-0.00087,-0.00031,-0.0001,6,14
26574,-1e-05,1e-05,-9e-05,-0.00017,-0.00011,-0.00087,-0.00031,-0.0001,6,14
26575,-1e-05,1e-05,-9e-05,-0.00017,-0.00011,-0.00087,-0.00031,-0.0001,6,14
26576,-1e-05,1e-05,-9e-05,-0.00017,-0.00011,-0.00087,-0.00031,-0.0001,6,14
26577,-1e-05,1e-05,-9e-05,-0.00017,-0.00011,-0.00087,-0.00031,-0.0001,6,14
26578,-1e-05,1e-05,-9e-05,-0.00017,-0.00011,-0.00087,-0.00031,-0.0001,6,14
26579,-1e-05,1e-05,-9e-05,-0.00017,-0.00011,-0.00087,-0.00031,-0.0001,6,14
26580,-1e-05,1e-05,-9e-05,-0.00017,-0.00011,-0.00087,-0.00031,-0.0001,6,14
26581,-1e-05,1e-05,-9e-05,-0.00017,-0.00011,-0.00087,-0.00031,-0.0001,6,14
26582,-1e-05,1e-05,-9e-05,-0.00017,-0.00011,-0.00087,-0.00031,-0.0001,6,14
26583,-1e-05,1e-05,-9e-05,-0.00017,-0.00011,-0.00087,-0.00031,-0.0001,6,14
26584,-1e-05,1e-05,-9e-05,-0.00017,-0.00011,-0.00087,-0.00031,-0.0001,6,14
26585,1e-05,-1e-05,0,-0.00014,-0.0001,-0.00017,-0.00015,0.00029,6,14
26586,1e-05,-1e-05,0,-0.00014,-0.0001,-0.00017,-0.00015,0.00029,6,14
26589,-1e-05,0,-0.00011,3e-05,-3e-05,3e-05,0.00015,5e-05,6,14
26590,-1e-05,0,-0.00011,3e-05,-3e-05,3e-05,0.00015,5e-05,6,14
26591,-1e-05,0,-0.00011,3e-05,-3e-05,3e-05,0.00015,5e-05,6,14
26592,-1e-05,0,-0.00011,3e-05,-3e-05,3e-05,0.00015,5e-05,6,14
26593,-1e-05,0,-0.00011,3e-05,-3e-05,3e-05,0.00015,5e-05,6,14
26594,-1e-05,0,-0.00011,3e-05,-3e-05,3e-05,0.00015,5e-05,6,14
26595,-1e-05,0,-0.00011,3e-05,-3e-05,3e-05,0.00015,5e-05,6,14
26596,-1e-05,0,-0.00011,3e-05,-3e-05,3e-05,0.00015,5e-05,6,14
26597,-1e-05,0,-0.00011,3e-05,-3e-05,3e-05,0.00015,5e-05,6,14
26598,-1e-05,0,-0.00011,3e-05,-3e-05,3e-05,0.00015,5e-05,6,14
26599,-0.00013,-2e-05,-3e-05,7e-05,0.0001,-0.00011,0.00018,-0.00102,6,14
26600,-0.00013,-2e-05,-3e-05,7e-05,0.0001,-0.00011,0.00018,-0.00102,6,14
26601,-0.00013,-2e-05,-3e-05,7e-05,0.0001,-0.00011,0.00018,-0.00102,6,14
26602,-0.00013,-2e-05,-3e-05,7e-05,0.0001,-0.00011,0.00018,-0.00102,6,14
26603,-0.00013,-2e-05,-3e-05,7e-05,0.0001,-0.00011,0.00018,-0.00102,6,14
26604,-0.00013,-2e-05,-3e-05,7e-05,0.0001,-0.00011,0.00018,-0.00102,6,14
26605,-0.00013,-2e-05,-3e-05,7e-05,0.0001,-0.00011,0.00018,-0.00102,6,14
26606,-6e-05,-3e-05,5e-05,-7e-05,-0.0001,-0.00034,-0.0001,-0.00022,6,14
26607,-6e-05,-3e-05,5e-05,-7e-05,-0.0001,-0.00034,-0.0001,-0.00022,6,14
26608,-6e-05,-3e-05,5e-05,-7e-05,-0.0001,-0.00034,-0.0001,-0.00022,6,14
26609,-6e-05,-3e-05,5e-05,-7e-05,-0.0001,-0.00034,-0.0001,-0.00022,6,14
26610,-6e-05,-3e-05,5e-05,-7e-05,-0.0001,-0.00034,-0.0001,-0.00022,6,14
26611,-6e-05,-3e-05,5e-05,-7e-05,-0.0001,-0.00034,-0.0001,-0.00022,6,14
26612,-6e-05,-3e-05,5e-05,-7e-05,-0.0001,-0.00034,-0.0001,-0.00022,6,14
26613,-6e-05,-3e-05,5e-05,-7e-05,-0.0001,-0.00034,-0.0001,-0.00022,6,14
26614,-6e-05,-3e-05,5e-05,-7e-05,-0.0001,-0.00034,-0.0001,-0.00022,6,14
26615,-6e-05,-3e-05,5e-05,-7e-05,-0.0001,-0.00034,-0.0001,-0.00022,6,14
26616,-6e-05,-3e-05,5e-05,-7e-05,-0.0001,-0.00034,-0.0001,-0.00022,6,14
26617,-6e-05,-3e-05,5e-05,-7e-05,-0.0001,-0.00034,-0.0001,-0.00022,6,14
26618,-6e-05,-3e-05,5e-05,-7e-05,-0.0001,-0.00034,-0.0001,-0.00022,6,14
26619,-6e-05,-3e-05,5e-05,-7e-05,-0.0001,-0.00034,-0.0001,-0.00022,6,14
26620,-6e-05,-3e-05,5e-05,-7e-05,-0.0001,-0.00034,-0.0001,-0.00022,6,14
26621,-6e-05,-3e-05,5e-05,-7e-05,-0.0001,-0.00034,-0.0001,-0.00022,6,14
26622,8e-05,3e-05,4e-05,-6e-05,-0.00017,0.00026,1e-05,3e-05,6,14
26623,-3e-05,-2e-05,-5e-05,1e-05,7e-05,-8e-05,0,0.00014,6,14
26624,1e-05,-1e-05,-2e-05,-0.00014,-8e-05,0.00012,0.00023,0.00035,6,14
26625,1e-05,-1e-05,-2e-05,-0.00014,-8e-05,0.00012,0.00023,0.00035,6,14
26626,1e-05,-1e-05,-2e-05,-0.00014,-8e-05,0.00012,0.00023,0.00035,6,14
26627,1e-05,-1e-05,-2e-05,-0.00014,-8e-05,0.00012,0.00023,0.00035,6,14
26628,1e-05,-1e-05,-2e-05,-0.00014,-8e-05,0.00012,0.00023,0.00035,6,14
26629,1e-05,-1e-05,-2e-05,-0.00014,-8e-05,0.00012,0.00023,0.00035,6,14
26630,1e-05,-1e-05,-2e-05,-0.00014,-8e-05,0.00012,0.00023,0.00035,6,14
26631,1e-05,-1e-05,-2e-05,-0.00014,-8e-05,0.00012,0.00023,0.00035,6,14
26632,1e-05,-1e-05,-2e-05,-0.00014,-8e-05,0.00012,0.00023,0.00035,6,14
26633,1e-05,-1e-05,-2e-05,-0.00014,-8e-05,0.00012,0.00023,0.00035,6,14
26634,1e-05,-1e-05,-2e-05,-0.00014,-8e-05,0.00012,0.00023,0.00035,6,14
26635,1e-05,-1e-05,-2e-05,-0.00014,-8e-05,0.00012,0.00023,0.00035,6,14
26636,1e-05,-1e-05,-2e-05,-0.00014,-8e-05,0.00012,0.00023,0.00035,6,14
26639,1e-05,-1e-05,-2e-05,-0.00014,-8e-05,0.00012,0.00023,0.00035,6,14
26640,1e-05,-1e-05,-2e-05,-0.00014,-8e-05,0.00012,0.00023,0.00035,6,14
26641,1e-05,-1e-05,-2e-05,-0.00014,-8e-05,0.00012,0.00023,0.00035,6,14
26642,1e-05,-1e-05,-2e-05,-0.00014,-8e-05,0.00012,0.00023,0.00035,6,14
26643,1e-05,-1e-05,-2e-05,-0.00014,-8e-05,0.00012,0.00023,0.00035,6,14
26644,1e-05,-1e-05,-2e-05,-0.00014,-8e-05,0.00012,0.00023,0.00035,6,14
26645,4e-05,3e-05,6e-05,3e-05,-0.00011,-0.00023,0.00029,-8e-05,6,14
26646,0,-2e-05,-1e-05,7e-05,0.00012,0.00074,2e-05,0.00014,6,14
26647,0,-2e-05,-1e-05,7e-05,0.00012,0.00074,2e-05,0.00014,6,14
26648,0,-2e-05,-1e-05,7e-05,0.00012,0.00074,2e-05,0.00014,6,14
26649,0,-2e-05,-1e-05,7e-05,0.00012,0.00074,2e-05,0.00014,6,14
26650,0,-2e-05,-1e-05,7e-05,0.00012,0.00074,2e-05,0.00014,6,14
26651,0,-2e-05,-1e-05,7e-05,0.00012,0.00074,2e-05,0.00014,6,14
26652,0,-2e-05,-1e-05,7e-05,0.00012,0.00074,2e-05,0.00014,6,14
26653,0,-2e-05,-1e-05,7e-05,0.00012,0.00074,2e-05,0.00014,6,14
26654,0,-2e-05,-1e-05,7e-05,0.00012,0.00074,2e-05,0.00014,6,14
26655,0,-2e-05,-1e-05,7e-05,0.00012,0.00074,2e-05,0.00014,6,14
26656,0,-2e-05,-1e-05,7e-05,0.00012,0.00074,2e-05,0.00014,6,14
26657,0,-2e-05,-1e-05,7e-05,0.00012,0.00074,2e-05,0.00014,6,14
26658,0,-2e-05,-1e-05,7e-05,0.00012,0.00074,2e-05,0.00014,6,14
26659,0,-2e-05,-1e-05,7e-05,0.00012,0.00074,2e-05,0.00014,6,14
26660,1e-05,1e-05,2e-05,-0.0002,-0.00011,-5e-05,-2e-05,0.00031,6,14
26661,1e-05,1e-05,2e-05,-0.0002,-0.00011,-5e-05,-2e-05,0.00031,6,14
26662,1e-05,1e-05,2e-05,-0.0002,-0.00011,-5e-05,-2e-05,0.00031,6,14
26663,1e-05,1e-05,2e-05,-0.0002,-0.00011,-5e-05,-2e-05,0.00031,6,14
26664,1e-05,1e-05,2e-05,-0.0002,-0.00011,-5e-05,-2e-05,0.00031,6,14
26665,1e-05,1e-05,2e-05,-0.0002,-0.00011,-5e-05,-2e-05,0.00031,6,14
26666,0,-5e-05,-5e-05,-4e-05,1e-05,-0.00037,-2e-05,-9e-05,6,14
26667,0,-5e-05,-5e-05,-4e-05,1e-05,-0.00037,-2e-05,-9e-05,6,14
26668,0,-5e-05,-5e-05,-4e-05,1e-05,-0.00037,-2e-05,-9e-05,6,14
26669,0,-5e-05,-5e-05,-4e-05,1e-05,-0.00037,-2e-05,-9e-05,6,14
26670,0,-5e-05,-5e-05,-4e-05,1e-05,-0.00037,-2e-05,-9e-05,6,14
26671,0,-5e-05,-5e-05,-4e-05,1e-05,-0.00037,-2e-05,-9e-05,6,14
26672,0,-5e-05,-5e-05,-4e-05,1e-05,-0.00037,-2e-05,-9e-05,6,14
26673,0,-5e-05,-5e-05,-4e-05,1e-05,-0.00037,-2e-05,-9e-05,6,14
26674,0,-5e-05,-5e-05,-4e-05,1e-05,-0.00037,-2e-05,-9e-05,6,14
26675,0,-5e-05,-5e-05,-4e-05,1e-05,-0.00037,-2e-05,-9e-05,6,14
26676,0,-5e-05,-5e-05,-4e-05,1e-05,-0.00037,-2e-05,-9e-05,6,14
26677,0,-5e-05,-5e-05,-4e-05,1e-05,-0.00037,-2e-05,-9e-05,6,14
26678,0,-5e-05,-5e-05,-4e-05,1e-05,-0.00037,-2e-05,-9e-05,6,14
26679,0,-5e-05,-5e-05,-4e-05,1e-05,-0.00037,-2e-05,-9e-05,6,14
26680,0,-5e-05,-5e-05,-4e-05,1e-05,-0.00037,-2e-05,-9e-05,6,14
26681,0,-5e-05,-5e-05,-4e-05,1e-05,-0.00037,-2e-05,-9e-05,6,14
26682,0,-5e-05,-5e-05,-4e-05,1e-05,-0.00037,-2e-05,-9e-05,6,14
26683,0,-5e-05,-5e-05,-4e-05,1e-05,-0.00037,-2e-05,-9e-05,6,14
26684,0,-5e-05,-5e-05,-4e-05,1e-05,-0.00037,-2e-05,-9e-05,6,14
26685,0,-5e-05,-5e-05,-4e-05,1e-05,-0.00037,-2e-05,-9e-05,6,14
26686,0,-5e-05,-5e-05,-4e-05,1e-05,-0.00037,-2e-05,-9e-05,6,14
26688,0,-5e-05,-5e-05,-4e-05,1e-05,-0.00037,-2e-05,-9e-05,6,14
26689,0,-5e-05,-5e-05,-4e-05,1e-05,-0.00037,-2e-05,-9e-05,6,14
26690,-5e-05,-5e-05,-3e-05,4e-05,9e-05,0.00021,-0.00012,0.0001,6,14
26691,-5e-05,-5e-05,-3e-05,4e-05,9e-05,0.00021,-0.00012,0.0001,6,14
26692,-1e-05,2e-05,9e-05,1e-05,-1e-05,-0.00033,-0.00021,2e-05,6,14
26693,-1e-05,2e-05,9e-05,1e-05,-1e-05,-0.00033,-0.00021,2e-05,6,14
26694,-1e-05,2e-05,9e-05,1e-05,-1e-05,-0.00033,-0.00021,2e-05,6,14
26695,-1e-05,2e-05,9e-05,1e-05,-1e-05,-0.00033,-0.00021,2e-05,6,14
26696,-1e-05,2e-05,9e-05,1e-05,-1e-05,-0.00033,-0.00021,2e-05,6,14
26697,-1e-05,2e-05,9e-05,1e-05,-1e-05,-0.00033,-0.00021,2e-05,6,14
26698,-1e-05,2e-05,9e-05,1e-05,-1e-05,-0.00033,-0.00021,2e-05,6,14
26699,-1e-05,2e-05,9e-05,1e-05,-1e-05,-0.00033,-0.00021,2e-05,6,14
26700,-1e-05,2e-05,9e-05,1e-05,-1e-05,-0.00033,-0.00021,2e-05,6,14
26701,-1e-05,2e-05,9e-05,1e-05,-1e-05,-0.00033,-0.00021,2e-05,6,14
26702,-1e-05,2e-05,9e-05,1e-05,-1e-05,-0.00033,-0.00021,2e-05,6,14
26703,-1e-05,2e-05,9e-05,1e-05,-1e-05,-0.00033,-0.00021,2e-05,6,14
26704,-1e-05,2e-05,9e-05,1e-05,-1e-05,-0.00033,-0.00021,2e-05,6,14
26705,2e-05,0,-5e-05,-3e-05,6e-05,2e-05,-3e-05,0.00025,6,14
26706,-1e-05,-2e-05,-2e-05,3e-05,0.00018,-6e-05,0.00016,0.00023,6,14
26707,-1e-05,-2e-05,-2e-05,3e-05,0.00018,-6e-05,0.00016,0.00023,6,14
26708,-1e-05,-2e-05,-2e-05,3e-05,0.00018,-6e-05,0.00016,0.00023,6,14
26709,-1e-05,-2e-05,-2e-05,3e-05,0.00018,-6e-05,0.00016,0.00023,6,14
26710,-1e-05,-2e-05,-2e-05,3e-05,0.00018,-6e-05,0.00016,0.00023,6,14
26711,-1e-05,-2e-05,-2e-05,3e-05,0.00018,-6e-05,0.00016,0.00023,6,14
26712,-1e-05,-2e-05,-2e-05,3e-05,0.00018,-6e-05,0.00016,0.00023,6,14
26713,-1e-05,-2e-05,-2e-05,3e-05,0.00018,-6e-05,0.00016,0.00023,6,14
26714,-1e-05,-2e-05,-2e-05,3e-05,0.00018,-6e-05,0.00016,0.00023,6,14
26715,-1e-05,-2e-05,-2e-05,3e-05,0.00018,-6e-05,0.00016,0.00023,6,14
26716,-1e-05,-2e-05,-2e-05,3e-05,0.00018,-6e-05,0.00016,0.00023,6,14
26717,-1e-05,-2e-05,-2e-05,3e-05,0.00018,-6e-05,0.00016,0.00023,6,14
26718,-1e-05,-2e-05,-2e-05,3e-05,0.00018,-6e-05,0.00016,0.00023,6,14
26719,1e-05,0,-0.00011,3e-05,-2e-05,6e-05,-7e-05,9e-05,6,14
26720,1e-05,0,-0.00011,3e-05,-2e-05,6e-05,-7e-05,9e-05,6,14
26721,1e-05,0,-0.00011,3e-05,-2e-05,6e-05,-7e-05,9e-05,6,14
26722,1e-05,0,-0.00011,3e-05,-2e-05,6e-05,-7e-05,9e-05,6,14
26723,1e-05,0,-0.00011,3e-05,-2e-05,6e-05,-7e-05,9e-05,6,14
26724,1e-05,0,-0.00011,3e-05,-2e-05,6e-05,-7e-05,9e-05,6,14
26725,1e-05,0,-0.00011,3e-05,-2e-05,6e-05,-7e-05,9e-05,6,14
26726,0,-3e-05,3e-05,4e-05,3e-05,0.00012,-7e-05,4e-05,6,14
26727,0,-3e-05,3e-05,4e-05,3e-05,0.00012,-7e-05,4e-05,6,14
26728,0,-3e-05,3e-05,4e-05,3e-05,0.00012,-7e-05,4e-05,6,14
26729,0,-3e-05,3e-05,4e-05,3e-05,0.00012,-7e-05,4e-05,6,14
26730,0,-3e-05,3e-05,4e-05,3e-05,0.00012,-7e-05,4e-05,6,14
26731,0,-3e-05,3e-05,4e-05,3e-05,0.00012,-7e-05,4e-05,6,14
26732,0,-3e-05,3e-05,4e-05,3e-05,0.00012,-7e-05,4e-05,6,14
26733,0,-3e-05,3e-05,4e-05,3e-05,0.00012,-7e-05,4e-05,6,14
26734,0,-3e-05,3e-05,4e-05,3e-05,0.00012,-7e-05,4e-05,6,14
26735,0,-3e-05,3e-05,4e-05,3e-05,0.00012,-7e-05,4e-05,6,14
26736,0,-3e-05,3e-05,4e-05,3e-05,0.00012,-7e-05,4e-05,6,14
26738,0,-3e-05,3e-05,4e-05,3e-05,0.00012,-7e-05,4e-05,6,14
26739,0,-3e-05,3e-05,4e-05,3e-05,0.00012,-7e-05,4e-05,6,14
26740,0,-3e-05,3e-05,4e-05,3e-05,0.00012,-7e-05,4e-05,6,14
26741,0,-3e-05,3e-05,4e-05,3e-05,0.00012,-7e-05,4e-05,6,14
26742,6e-05,0,0,-0.0001,-0.0001,0.00018,-9e-05,0.00035,6,14
26743,6e-05,0,0,-0.0001,-0.0001,0.00018,-9e-05,0.00035,6,14
26744,-6e-05,-4e-05,-5e-05,-4e-05,-0.00015,0.00061,-0.00013,-0.00051,6,14
26745,-6e-05,-4e-05,-5e-05,-4e-05,-0.00015,0.00061,-0.00013,-0.00051,6,14
26746,-6e-05,-4e-05,-5e-05,-4e-05,-0.00015,0.00061,-0.00013,-0.00051,6,14
26747,-6e-05,-4e-05,-5e-05,-4e-05,-0.00015,0.00061,-0.00013,-0.00051,6,14
26748,-6e-05,-4e-05,-5e-05,-4e-05,-0.00015,0.00061,-0.00013,-0.00051,6,14
26749,-6e-05,-4e-05,-5e-05,-4e-05,-0.00015,0.00061,-0.00013,-0.00051,6,14
26750,-6e-05,-4e-05,-5e-05,-4e-05,-0.00015,0.00061,-0.00013,-0.00051,6,14
26751,-6e-05,-4e-05,-5e-05,-4e-05,-0.00015,0.00061,-0.00013,-0.00051,6,14
26752,-6e-05,-4e-05,-5e-05,-4e-05,-0.00015,0.00061,-0.00013,-0.00051,6,14
26753,-6e-05,-4e-05,-5e-05,-4e-05,-0.00015,0.00061,-0.00013,-0.00051,6,14
26754,-6e-05,-4e-05,-5e-05,-4e-05,-0.00015,0.00061,-0.00013,-0.00051,6,14
26755,-6e-05,-4e-05,-5e-05,-4e-05,-0.00015,0.00061,-0.00013,-0.00051,6,14
26756,-6e-05,-4e-05,-5e-05,-4e-05,-0.00015,0.00061,-0.00013,-0.00051,6,14
26757,-6e-05,-4e-05,-5e-05,-4e-05,-0.00015,0.00061,-0.00013,-0.00051,6,14
26758,-6e-05,-4e-05,-5e-05,-4e-05,-0.00015,0.00061,-0.00013,-0.00051,6,14
26759,-6e-05,-4e-05,-5e-05,-4e-05,-0.00015,0.00061,-0.00013,-0.00051,6,14
26760,-6e-05,-4e-05,-5e-05,-4e-05,-0.00015,0.00061,-0.00013,-0.00051,6,14
26761,-6e-05,-4e-05,-5e-05,-4e-05,-0.00015,0.00061,-0.00013,-0.00051,6,14
26762,-6e-05,-4e-05,-5e-05,-4e-05,-0.00015,0.00061,-0.00013,-0.00051,6,14
26763,-6e-05,-4e-05,-5e-05,-4e-05,-0.00015,0.00061,-0.00013,-0.00051,6,14
26764,-6e-05,-4e-05,-5e-05,-4e-05,-0.00015,0.00061,-0.00013,-0.00051,6,14
26765,-4e-05,-3e-05,3e-05,0.00012,-3e-05,-9e-05,-4e-05,-0.00015,6,14
26766,-6e-05,1e-05,0,9e-05,0.00012,0.00031,2e-05,-2e-05,6,14
26767,-6e-05,1e-05,0,9e-05,0.00012,0.00031,2e-05,-2e-05,6,14
26768,-6e-05,1e-05,0,9e-05,0.00012,0.00031,2e-05,-2e-05,6,14
26769,-6e-05,1e-05,0,9e-05,0.00012,0.00031,2e-05,-2e-05,6,14
26770,-6e-05,1e-05,0,9e-05,0.00012,0.00031,2e-05,-2e-05,6,14
26771,-6e-05,1e-05,0,9e-05,0.00012,0.00031,2e-05,-2e-05,6,14
26772,-6e-05,1e-05,0,9e-05,0.00012,0.00031,2e-05,-2e-05,6,14
26773,-6e-05,1e-05,0,9e-05,0.00012,0.00031,2e-05,-2e-05,6,14
26774,-6e-05,1e-05,0,9e-05,0.00012,0.00031,2e-05,-2e-05,6,14
26775,-6e-05,1e-05,0,9e-05,0.00012,0.00031,2e-05,-2e-05,6,14
26776,-6e-05,1e-05,0,9e-05,0.00012,0.00031,2e-05,-2e-05,6,14
26777,-6e-05,1e-05,0,9e-05,0.00012,0.00031,2e-05,-2e-05,6,14
26778,-6e-05,1e-05,0,9e-05,0.00012,0.00031,2e-05,-2e-05,6,14
26779,-1e-05,-2e-05,1e-05,-0.00015,-0.00012,-4e-05,-3e-05,6e-05,6,14
26780,-1e-05,-2e-05,1e-05,-0.00015,-0.00012,-4e-05,-3e-05,6e-05,6,14
26781,-1e-05,-2e-05,1e-05,-0.00015,-0.00012,-4e-05,-3e-05,6e-05,6,14
26782,-1e-05,-2e-05,1e-05,-0.00015,-0.00012,-4e-05,-3e-05,6e-05,6,14
26783,-1e-05,-2e-05,1e-05,-0.00015,-0.00012,-4e-05,-3e-05,6e-05,6,14
26784,-1e-05,-2e-05,1e-05,-0.00015,-0.00012,-4e-05,-3e-05,6e-05,6,14
26785,-1e-05,-2e-05,1e-05,-0.00015,-0.00012,-4e-05,-3e-05,6e-05,6,14
26786,-9e-05,-3e-05,-2e-05,-4e-05,-6e-05,-0.00033,-7e-05,-0.00014,6,14
26788,-9e-05,-3e-05,-2e-05,-4e-05,-6e-05,-0.00033,-7e-05,-0.00014,6,14
26789,-9e-05,-3e-05,-2e-05,-4e-05,-6e-05,-0.00033,-7e-05,-0.00014,6,14
26790,-9e-05,-3e-05,-2e-05,-4e-05,-6e-05,-0.00033,-7e-05,-0.00014,6,14
26791,-9e-05,-3e-05,-2e-05,-4e-05,-6e-05,-0.00033,-7e-05,-0.00014,6,14
26792,-9e-05,-3e-05,-2e-05,-4e-05,-6e-05,-0.00033,-7e-05,-0.00014,6,14
26793,-9e-05,-3e-05,-2e-05,-4e-05,-6e-05,-0.00033,-7e-05,-0.00014,6,14
26794,-9e-05,-3e-05,-2e-05,-4e-05,-6e-05,-0.00033,-7e-05,-0.00014,6,14
26795,-9e-05,-3e-05,-2e-05,-4e-05,-6e-05,-0.00033,-7e-05,-0.00014,6,14
26796,-9e-05,-3e-05,-2e-05,-4e-05,-6e-05,-0.00033,-7e-05,-0.00014,6,14
26797,-9e-05,-3e-05,-2e-05,-4e-05,-6e-05,-0.00033,-7e-05,-0.00014,6,14
26798,-9e-05,-3e-05,-2e-05,-4e-05,-6e-05,-0.00033,-7e-05,-0.00014,6,14
26799,-9e-05,-3e-05,-2e-05,-4e-05,-6e-05,-0.00033,-7e-05,-0.00014,6,14
26800,-9e-05,-3e-05,-2e-05,-4e-05,-6e-05,-0.00033,-7e-05,-0.00014,6,14
26801,-9e-05,-3e-05,-2e-05,-4e-05,-6e-05,-0.00033,-7e-05,-0.00014,6,14
26802,0,1e-05,3e-05,7e-05,0.00034,0.00087,0.00015,0.0001,6,14
26803,0,1e-05,3e-05,7e-05,0.00034,0.00087,0.00015,0.0001,6,14
26804,-3e-05,0,-2e-05,-4e-05,-6e-05,-0.00033,5e-05,-3e-05,6,14
26805,-3e-05,0,-2e-05,-4e-05,-6e-05,-0.00033,5e-05,-3e-05,6,14
26806,-3e-05,0,-2e-05,-4e-05,-6e-05,-0.00033,5e-05,-3e-05,6,14
26807,-3e-05,0,-2e-05,-4e-05,-6e-05,-0.00033,5e-05,-3e-05,6,14
26808,-3e-05,0,-2e-05,-4e-05,-6e-05,-0.00033,5e-05,-3e-05,6,14
26809,-3e-05,0,-2e-05,-4e-05,-6e-05,-0.00033,5e-05,-3e-05,6,14
26810,-3e-05,0,-2e-05,-4e-05,-6e-05,-0.00033,5e-05,-3e-05,6,14
26811,-3e-05,0,-2e-05,-4e-05,-6e-05,-0.00033,5e-05,-3e-05,6,14
26812,-3e-05,0,-2e-05,-4e-05,-6e-05,-0.00033,5e-05,-3e-05,6,14
26813,-3e-05,0,-2e-05,-4e-05,-6e-05,-0.00033,5e-05,-3e-05,6,14
26814,-3e-05,0,-2e-05,-4e-05,-6e-05,-0.00033,5e-05,-3e-05,6,14
26815,-3e-05,0,-2e-05,-4e-05,-6e-05,-0.00033,5e-05,-3e-05,6,14
26816,-3e-05,0,-2e-05,-4e-05,-6e-05,-0.00033,5e-05,-3e-05,6,14
26817,-3e-05,0,-2e-05,-4e-05,-6e-05,-0.00033,5e-05,-3e-05,6,14
26818,-3e-05,0,-2e-05,-4e-05,-6e-05,-0.00033,5e-05,-3e-05,6,14
26819,-3e-05,0,-2e-05,-4e-05,-6e-05,-0.00033,5e-05,-3e-05,6,14
26820,-3e-05,0,-2e-05,-4e-05,-6e-05,-0.00033,5e-05,-3e-05,6,14
26821,-3e-05,0,-2e-05,-4e-05,-6e-05,-0.00033,5e-05,-3e-05,6,14
26822,-3e-05,0,-2e-05,-4e-05,-6e-05,-0.00033,5e-05,-3e-05,6,14
26823,-3e-05,0,-2e-05,-4e-05,-6e-05,-0.00033,5e-05,-3e-05,6,14
26824,-3e-05,0,-2e-05,-4e-05,-6e-05,-0.00033,5e-05,-3e-05,6,14
26825,-2e-05,-2e-05,-0.00019,-8e-05,-0.00013,-0.00028,2e-05,0,6,14
26826,-2e-05,-2e-05,-0.00019,-8e-05,-0.00013,-0.00028,2e-05,0,6,14
26827,2e-05,0,-6e-05,-4e-05,-7e-05,9e-05,-5e-05,2e-05,6,14
26828,2e-05,0,-6e-05,-4e-05,-7e-05,9e-05,-5e-05,2e-05,6,14
26829,2e-05,0,-6e-05,-4e-05,-7e-05,9e-05,-5e-05,2e-05,6,14
26830,2e-05,0,-6e-05,-4e-05,-7e-05,9e-05,-5e-05,2e-05,6,14
26831,2e-05,0,-6e-05,-4e-05,-7e-05,9e-05,-5e-05,2e-05,6,14
26832,2e-05,0,-6e-05,-4e-05,-7e-05,9e-05,-5e-05,2e-05,6,14
26833,2e-05,0,-6e-05,-4e-05,-7e-05,9e-05,-5e-05,2e-05,6,14
26834,2e-05,0,-6e-05,-4e-05,-7e-05,9e-05,-5e-05,2e-05,6,14
26835,2e-05,0,-6e-05,-4e-05,-7e-05,9e-05,-5e-05,2e-05,6,14
26836,2e-05,0,-6e-05,-4e-05,-7e-05,9e-05,-5e-05,2e-05,6,14
26838,2e-05,0,-6e-05,-4e-05,-7e-05,9e-05,-5e-05,2e-05,6,14
26839,-2e-05,-3e-05,-1e-05,1e-05,-5e-05,-0.00023,-2e-05,4e-05,6,14
26840,-2e-05,-3e-05,-1e-05,1e-05,-5e-05,-0.00023,-2e-05,4e-05,6,14
26841,-2e-05,-3e-05,-1e-05,1e-05,-5e-05,-0.00023,-2e-05,4e-05,6,14
26842,-2e-05,-3e-05,-1e-05,1e-05,-5e-05,-0.00023,-2e-05,4e-05,6,14
26843,-2e-05,-3e-05,-1e-05,1e-05,-5e-05,-0.00023,-2e-05,4e-05,6,14
26844,-2e-05,-3e-05,-1e-05,1e-05,-5e-05,-0.00023,-2e-05,4e-05,6,14
26845,-2e-05,-3e-05,-1e-05,1e-05,-5e-05,-0.00023,-2e-05,4e-05,6,14
26846,1e-05,1e-05,-7e-05,2e-05,1e-05,-0.00028,-5e-05,0.00021,6,14
26847,1e-05,1e-05,-7e-05,2e-05,1e-05,-0.00028,-5e-05,0.00021,6,14
26848,1e-05,1e-05,-7e-05,2e-05,1e-05,-0.00028,-5e-05,0.00021,6,14
26849,1e-05,1e-05,-7e-05,2e-05,1e-05,-0.00028,-5e-05,0.00021,6,14
26850,1e-05,1e-05,-7e-05,2e-05,1e-05,-0.00028,-5e-05,0.00021,6,14
26851,1e-05,1e-05,-7e-05,2e-05,1e-05,-0.00028,-5e-05,0.00021,6,14
26852,1e-05,1e-05,-7e-05,2e-05,1e-05,-0.00028,-5e-05,0.00021,6,14
26853,1e-05,1e-05,-7e-05,2e-05,1e-05,-0.00028,-5e-05,0.00021,6,14
26854,1e-05,1e-05,-7e-05,2e-05,1e-05,-0.00028,-5e-05,0.00021,6,14
26855,1e-05,1e-05,-7e-05,2e-05,1e-05,-0.00028,-5e-05,0.00021,6,14
26856,1e-05,1e-05,-7e-05,2e-05,1e-05,-0.00028,-5e-05,0.00021,6,14
26857,1e-05,1e-05,-7e-05,2e-05,1e-05,-0.00028,-5e-05,0.00021,6,14
26858,1e-05,1e-05,-7e-05,2e-05,1e-05,-0.00028,-5e-05,0.00021,6,14
26859,1e-05,1e-05,-7e-05,2e-05,1e-05,-0.00028,-5e-05,0.00021,6,14
26860,1e-05,1e-05,-7e-05,2e-05,1e-05,-0.00028,-5e-05,0.00021,6,14
26861,1e-05,1e-05,-7e-05,2e-05,1e-05,-0.00028,-5e-05,0.00021,6,14
26862,1e-05,-2e-05,2e-05,-0.0001,-8e-05,0,0.0001,-0.00015,6,14
26863,1e-05,-2e-05,2e-05,-0.0001,-8e-05,0,0.0001,-0.00015,6,14
26864,1e-05,3e-05,7e-05,6e-05,0.00011,6e-05,1e-05,-0.0002,6,14
26865,1e-05,3e-05,7e-05,6e-05,0.00011,6e-05,1e-05,-0.0002,6,14
26866,1e-05,3e-05,7e-05,6e-05,0.00011,6e-05,1e-05,-0.0002,6,14
26867,1e-05,3e-05,7e-05,6e-05,0.00011,6e-05,1e-05,-0.0002,6,14
26868,1e-05,3e-05,7e-05,6e-05,0.00011,6e-05,1e-05,-0.0002,6,14
26869,1e-05,3e-05,7e-05,6e-05,0.00011,6e-05,1e-05,-0.0002,6,14
26870,1e-05,3e-05,7e-05,6e-05,0.00011,6e-05,1e-05,-0.0002,6,14
26871,1e-05,3e-05,7e-05,6e-05,0.00011,6e-05,1e-05,-0.0002,6,14
26872,1e-05,3e-05,7e-05,6e-05,0.00011,6e-05,1e-05,-0.0002,6,14
26873,1e-05,3e-05,7e-05,6e-05,0.00011,6e-05,1e-05,-0.0002,6,14
26874,1e-05,3e-05,7e-05,6e-05,0.00011,6e-05,1e-05,-0.0002,6,14
26875,1e-05,3e-05,7e-05,6e-05,0.00011,6e-05,1e-05,-0.0002,6,14
26876,1e-05,3e-05,7e-05,6e-05,0.00011,6e-05,1e-05,-0.0002,6,14
26877,1e-05,3e-05,7e-05,6e-05,0.00011,6e-05,1e-05,-0.0002,6,14
26878,1e-05,3e-05,7e-05,6e-05,0.00011,6e-05,1e-05,-0.0002,6,14
26879,1e-05,3e-05,7e-05,6e-05,0.00011,6e-05,1e-05,-0.0002,6,14
26880,1e-05,3e-05,7e-05,6e-05,0.00011,6e-05,1e-05,-0.0002,6,14
26881,1e-05,3e-05,7e-05,6e-05,0.00011,6e-05,1e-05,-0.0002,6,14
26882,1e-05,3e-05,7e-05,6e-05,0.00011,6e-05,1e-05,-0.0002,6,14
26883,1e-05,3e-05,7e-05,6e-05,0.00011,6e-05,1e-05,-0.0002,6,14
26884,1e-05,3e-05,7e-05,6e-05,0.00011,6e-05,1e-05,-0.0002,6,14
26885,-4e-05,-6e-05,1e-05,-5e-05,-8e-05,-0.00089,-0.00011,0.00031,6,14
26886,-1e-05,-1e-05,2e-05,4e-05,0.00011,0.00072,5e-05,0.00012,6,14
26888,2e-05,-2e-05,-3e-05,-5e-05,0.0001,-0.00033,0.00011,3e-05,6,14
26889,2e-05,-2e-05,-3e-05,-5e-05,0.0001,-0.00033,0.00011,3e-05,6,14
26890,2e-05,-2e-05,-3e-05,-5e-05,0.0001,-0.00033,0.00011,3e-05,6,14
26891,2e-05,-2e-05,-3e-05,-5e-05,0.0001,-0.00033,0.00011,3e-05,6,14
26892,2e-05,-2e-05,-3e-05,-5e-05,0.0001,-0.00033,0.00011,3e-05,6,14
26893,2e-05,-2e-05,-3e-05,-5e-05,0.0001,-0.00033,0.00011,3e-05,6,14
26894,2e-05,-2e-05,-3e-05,-5e-05,0.0001,-0.00033,0.00011,3e-05,6,14
26895,2e-05,-2e-05,-3e-05,-5e-05,0.0001,-0.00033,0.00011,3e-05,6,14
26896,2e-05,-2e-05,-3e-05,-5e-05,0.0001,-0.00033,0.00011,3e-05,6,14
26897,2e-05,-2e-05,-3e-05,-5e-05,0.0001,-0.00033,0.00011,3e-05,6,14
26898,-3e-05,-1e-05,7e-05,3e-05,-9e-05,-1e-05,4e-05,-0.00042,6,14
26899,-3e-05,-1e-05,7e-05,3e-05,-9e-05,-1e-05,4e-05,-0.00042,6,14
26900,-3e-05,-1e-05,7e-05,3e-05,-9e-05,-1e-05,4e-05,-0.00042,6,14
26901,-3e-05,-1e-05,7e-05,3e-05,-9e-05,-1e-05,4e-05,-0.00042,6,14
26902,-3e-05,-1e-05,7e-05,3e-05,-9e-05,-1e-05,4e-05,-0.00042,6,14
26903,-3e-05,-1e-05,7e-05,3e-05,-9e-05,-1e-05,4e-05,-0.00042,6,14
26904,-3e-05,-1e-05,7e-05,3e-05,-9e-05,-1e-05,4e-05,-0.00042,6,14
26905,-3e-05,-1e-05,7e-05,3e-05,-9e-05,-1e-05,4e-05,-0.00042,6,14
26906,-3e-05,-1e-05,7e-05,3e-05,-9e-05,-1e-05,4e-05,-0.00042,6,14
26907,2e-05,-2e-05,-7e-05,-6e-05,-2e-05,-0.00025,-0.00034,0.00049,6,14
26908,-1e-05,-2e-05,-2e-05,-5e-05,-0.00016,0.00045,-6e-05,-0.00035,6,14
26909,-1e-05,-2e-05,-2e-05,-5e-05,-0.00016,0.00045,-6e-05,-0.00035,6,14
26910,-1e-05,-2e-05,-2e-05,-5e-05,-0.00016,0.00045,-6e-05,-0.00035,6,14
26911,-1e-05,-2e-05,-2e-05,-5e-05,-0.00016,0.00045,-6e-05,-0.00035,6,14
26912,-1e-05,-2e-05,-2e-05,-5e-05,-0.00016,0.00045,-6e-05,-0.00035,6,14
26913,-1e-05,-2e-05,-2e-05,-5e-05,-0.00016,0.00045,-6e-05,-0.00035,6,14
26914,-1e-05,-2e-05,-2e-05,-5e-05,-0.00016,0.00045,-6e-05,-0.00035,6,14
26915,-1e-05,-2e-05,-2e-05,-5e-05,-0.00016,0.00045,-6e-05,-0.00035,6,14
26916,-1e-05,-2e-05,-2e-05,-5e-05,-0.00016,0.00045,-6e-05,-0.00035,6,14
26917,-1e-05,-2e-05,-2e-05,-5e-05,-0.00016,0.00045,-6e-05,-0.00035,6,14
26918,-1e-05,-2e-05,-2e-05,-5e-05,-0.00016,0.00045,-6e-05,-0.00035,6,14
26919,-1e-05,-2e-05,-2e-05,-5e-05,-0.00016,0.00045,-6e-05,-0.00035,6,14
26920,-1e-05,-2e-05,-2e-05,-5e-05,-0.00016,0.00045,-6e-05,-0.00035,6,14
26921,-1e-05,-2e-05,-2e-05,-5e-05,-0.00016,0.00045,-6e-05,-0.00035,6,14
26922,0.0001,3e-05,0.00025,5e-05,2e-05,-0.00013,1e-05,5e-05,6,14
26923,0.0001,3e-05,0.00025,5e-05,2e-05,-0.00013,1e-05,5e-05,6,14
26924,-7e-05,0,7e-05,3e-05,1e-05,0.00014,-6e-05,-0.00058,6,14
26925,-7e-05,0,7e-05,3e-05,1e-05,0.00014,-6e-05,-0.00058,6,14
26926,-7e-05,0,7e-05,3e-05,1e-05,0.00014,-6e-05,-0.00058,6,14
26927,-7e-05,0,7e-05,3e-05,1e-05,0.00014,-6e-05,-0.00058,6,14
26928,-7e-05,0,7e-05,3e-05,1e-05,0.00014,-6e-05,-0.00058,6,14
26929,-7e-05,0,7e-05,3e-05,1e-05,0.00014,-6e-05,-0.00058,6,14
26930,-7e-05,0,7e-05,3e-05,1e-05,0.00014,-6e-05,-0.00058,6,14
26931,-7e-05,0,7e-05,3e-05,1e-05,0.00014,-6e-05,-0.00058,6,14
26932,-7e-05,0,7e-05,3e-05,1e-05,0.00014,-6e-05,-0.00058,6,14
26933,-7e-05,0,7e-05,3e-05,1e-05,0.00014,-6e-05,-0.00058,6,14
26934,-7e-05,0,7e-05,3e-05,1e-05,0.00014,-6e-05,-0.00058,6,14
26935,-7e-05,0,7e-05,3e-05,1e-05,0.00014,-6e-05,-0.00058,6,14
26936,-7e-05,0,7e-05,3e-05,1e-05,0.00014,-6e-05,-0.00058,6,14
26938,-7e-05,0,7e-05,3e-05,1e-05,0.00014,-6e-05,-0.00058,6,14
26939,-7e-05,0,7e-05,3e-05,1e-05,0.00014,-6e-05,-0.00058,6,14
26940,-7e-05,0,7e-05,3e-05,1e-05,0.00014,-6e-05,-0.00058,6,14
26941,-7e-05,0,7e-05,3e-05,1e-05,0.00014,-6e-05,-0.00058,6,14
26942,-7e-05,0,7e-05,3e-05,1e-05,0.00014,-6e-05,-0.00058,6,14
26943,-7e-05,0,7e-05,3e-05,1e-05,0.00014,-6e-05,-0.00058,6,14
26944,-7e-05,0,7e-05,3e-05,1e-05,0.00014,-6e-05,-0.00058,6,14
26945,-2e-05,1e-05,-9e-05,6e-05,-4e-05,0.00019,-0.00011,-2e-05,6,14
26946,0,0,0,-6e-05,-1e-05,-0.00018,-0.00025,5e-05,6,14
26947,0,0,0,-6e-05,-1e-05,-0.00018,-0.00025,5e-05,6,14
26948,0,0,0,-6e-05,-1e-05,-0.00018,-0.00025,5e-05,6,14
26949,0,0,0,-6e-05,-1e-05,-0.00018,-0.00025,5e-05,6,14
26950,0,0,0,-6e-05,-1e-05,-0.00018,-0.00025,5e-05,6,14
26951,0,0,0,-6e-05,-1e-05,-0.00018,-0.00025,5e-05,6,14
26952,0,0,0,-6e-05,-1e-05,-0.00018,-0.00025,5e-05,6,14
26953,0,0,0,-6e-05,-1e-05,-0.00018,-0.00025,5e-05,6,14
26954,0,0,0,-6e-05,-1e-05,-0.00018,-0.00025,5e-05,6,14
26955,0,0,0,-6e-05,-1e-05,-0.00018,-0.00025,5e-05,6,14
26956,0,0,0,-6e-05,-1e-05,-0.00018,-0.00025,5e-05,6,14
26957,0,0,0,-6e-05,-1e-05,-0.00018,-0.00025,5e-05,6,14
26958,1e-05,1e-05,4e-05,8e-05,-1e-05,0.00028,1e-05,0.0001,6,14
26960,1e-05,1e-05,4e-05,8e-05,-1e-05,0.00028,1e-05,0.0001,6,14
26961,1e-05,1e-05,4e-05,8e-05,-1e-05,0.00028,1e-05,0.0001,6,14
26962,1e-05,1e-05,4e-05,8e-05,-1e-05,0.00028,1e-05,0.0001,6,14
26963,1e-05,1e-05,4e-05,8e-05,-1e-05,0.00028,1e-05,0.0001,6,14
26964,1e-05,1e-05,4e-05,8e-05,-1e-05,0.00028,1e-05,0.0001,6,14
26965,1e-05,1e-05,4e-05,8e-05,-1e-05,0.00028,1e-05,0.0001,6,14
26966,1e-05,1e-05,4e-05,8e-05,-1e-05,0.00028,1e-05,0.0001,6,14
26967,3e-05,-4e-05,-7e-05,-2e-05,-0.00012,0.00015,1e-05,0.00033,6,14
26968,3e-05,-4e-05,-7e-05,-2e-05,-0.00012,0.00015,1e-05,0.00033,6,14
26969,3e-05,-4e-05,-7e-05,-2e-05,-0.00012,0.00015,1e-05,0.00033,6,14
26970,3e-05,-4e-05,-7e-05,-2e-05,-0.00012,0.00015,1e-05,0.00033,6,14
26971,3e-05,-4e-05,-7e-05,-2e-05,-0.00012,0.00015,1e-05,0.00033,6,14
26972,3e-05,-4e-05,-7e-05,-2e-05,-0.00012,0.00015,1e-05,0.00033,6,14
26973,3e-05,-4e-05,-7e-05,-2e-05,-0.00012,0.00015,1e-05,0.00033,6,14
26974,3e-05,-4e-05,-7e-05,-2e-05,-0.00012,0.00015,1e-05,0.00033,6,14
26975,3e-05,-4e-05,-7e-05,-2e-05,-0.00012,0.00015,1e-05,0.00033,6,14
26976,3e-05,-4e-05,-7e-05,-2e-05,-0.00012,0.00015,1e-05,0.00033,6,14
26977,3e-05,-4e-05,-7e-05,-2e-05,-0.00012,0.00015,1e-05,0.00033,6,14
26978,3e-05,-4e-05,-7e-05,-2e-05,-0.00012,0.00015,1e-05,0.00033,6,14
26979,3e-05,-4e-05,-7e-05,-2e-05,-0.00012,0.00015,1e-05,0.00033,6,14
26980,3e-05,-4e-05,-7e-05,-2e-05,-0.00012,0.00015,1e-05,0.00033,6,14
26981,3e-05,-4e-05,-7e-05,-2e-05,-0.00012,0.00015,1e-05,0.00033,6,14
26982,0,-2e-05,-6e-05,-3e-05,-6e-05,0.00033,-4e-05,-0.00032,6,14
26983,0,-2e-05,-6e-05,-3e-05,-6e-05,0.00033,-4e-05,-0.00032,6,14
26984,4e-05,0,2e-05,1e-05,2e-05,8e-05,4e-05,0.0002,6,14
26985,4e-05,0,2e-05,1e-05,2e-05,8e-05,4e-05,0.0002,6,14
26986,4e-05,0,2e-05,1e-05,2e-05,8e-05,4e-05,0.0002,6,14
26989,4e-05,0,2e-05,1e-05,2e-05,8e-05,4e-05,0.0002,6,14
26990,4e-05,0,2e-05,1e-05,2e-05,8e-05,4e-05,0.0002,6,14
26991,4e-05,0,2e-05,1e-05,2e-05,8e-05,4e-05,0.0002,6,14
26992,4e-05,0,2e-05,1e-05,2e-05,8e-05,4e-05,0.0002,6,14
26993,4e-05,0,2e-05,1e-05,2e-05,8e-05,4e-05,0.0002,6,14
26994,4e-05,0,2e-05,1e-05,2e-05,8e-05,4e-05,0.0002,6,14
26995,4e-05,0,2e-05,1e-05,2e-05,8e-05,4e-05,0.0002,6,14
26996,4e-05,0,2e-05,1e-05,2e-05,8e-05,4e-05,0.0002,6,14
26997,4e-05,0,2e-05,1e-05,2e-05,8e-05,4e-05,0.0002,6,14
26998,4e-05,0,2e-05,1e-05,2e-05,8e-05,4e-05,0.0002,6,14
26999,4e-05,0,2e-05,1e-05,2e-05,8e-05,4e-05,0.0002,6,14
27000,4e-05,0,2e-05,1e-05,2e-05,8e-05,4e-05,0.0002,6,14
27001,4e-05,0,2e-05,1e-05,2e-05,8e-05,4e-05,0.0002,6,14
27002,4e-05,0,2e-05,1e-05,2e-05,8e-05,4e-05,0.0002,6,14
27003,4e-05,0,2e-05,1e-05,2e-05,8e-05,4e-05,0.0002,6,14
27004,4e-05,0,2e-05,1e-05,2e-05,8e-05,4e-05,0.0002,6,14
27005,-3e-05,-3e-05,-7e-05,-0.00014,-3e-05,-4e-05,0.00017,-0.00018,6,14
27006,-2e-05,0,0,-2e-05,4e-05,-0.0002,5e-05,3e-05,6,14
27007,-2e-05,0,0,-2e-05,4e-05,-0.0002,5e-05,3e-05,6,14
27008,-2e-05,0,0,-2e-05,4e-05,-0.0002,5e-05,3e-05,6,14
27009,-2e-05,0,0,-2e-05,4e-05,-0.0002,5e-05,3e-05,6,14
27010,-2e-05,0,0,-2e-05,4e-05,-0.0002,5e-05,3e-05,6,14
27011,-2e-05,0,0,-2e-05,4e-05,-0.0002,5e-05,3e-05,6,14
27012,-2e-05,0,0,-2e-05,4e-05,-0.0002,5e-05,3e-05,6,14
27013,-2e-05,0,0,-2e-05,4e-05,-0.0002,5e-05,3e-05,6,14
27014,-2e-05,0,0,-2e-05,4e-05,-0.0002,5e-05,3e-05,6,14
27015,-2e-05,0,0,-2e-05,4e-05,-0.0002,5e-05,3e-05,6,14
27016,-2e-05,0,0,-2e-05,4e-05,-0.0002,5e-05,3e-05,6,14
27017,-2e-05,0,0,-2e-05,4e-05,-0.0002,5e-05,3e-05,6,14
27018,-3e-05,-2e-05,-3e-05,4e-05,-2e-05,-0.00026,1e-05,-0.00014,6,14
27019,-3e-05,-2e-05,-3e-05,4e-05,-2e-05,-0.00026,1e-05,-0.00014,6,14
27020,-3e-05,-2e-05,-3e-05,4e-05,-2e-05,-0.00026,1e-05,-0.00014,6,14
27021,-3e-05,-2e-05,-3e-05,4e-05,-2e-05,-0.00026,1e-05,-0.00014,6,14
27022,-3e-05,-2e-05,-3e-05,4e-05,-2e-05,-0.00026,1e-05,-0.00014,6,14
27023,-3e-05,-2e-05,-3e-05,4e-05,-2e-05,-0.00026,1e-05,-0.00014,6,14
27024,-3e-05,-2e-05,-3e-05,4e-05,-2e-05,-0.00026,1e-05,-0.00014,6,14
27025,-3e-05,-2e-05,-3e-05,4e-05,-2e-05,-0.00026,1e-05,-0.00014,6,14
27026,-3e-05,-2e-05,-3e-05,4e-05,-2e-05,-0.00026,1e-05,-0.00014,6,14
27027,-2e-05,-3e-05,-0.00015,5e-05,-1e-05,-0.00042,0.00023,0.00044,6,14
27028,-2e-05,-3e-05,-0.00015,5e-05,-1e-05,-0.00042,0.00023,0.00044,6,14
27029,-2e-05,-3e-05,-0.00015,5e-05,-1e-05,-0.00042,0.00023,0.00044,6,14
27030,-2e-05,-3e-05,-0.00015,5e-05,-1e-05,-0.00042,0.00023,0.00044,6,14
27031,-2e-05,-3e-05,-0.00015,5e-05,-1e-05,-0.00042,0.00023,0.00044,6,14
27032,-2e-05,-3e-05,-0.00015,5e-05,-1e-05,-0.00042,0.00023,0.00044,6,14
27033,-2e-05,-3e-05,-0.00015,5e-05,-1e-05,-0.00042,0.00023,0.00044,6,14
27034,-2e-05,-3e-05,-0.00015,5e-05,-1e-05,-0.00042,0.00023,0.00044,6,14
27035,-2e-05,-3e-05,-0.00015,5e-05,-1e-05,-0.00042,0.00023,0.00044,6,14
27036,-2e-05,-3e-05,-0.00015,5e-05,-1e-05,-0.00042,0.00023,0.00044,6,14
27038,-2e-05,-3e-05,-0.00015,5e-05,-1e-05,-0.00042,0.00023,0.00044,6,14
27039,-2e-05,-3e-05,-0.00015,5e-05,-1e-05,-0.00042,0.00023,0.00044,6,14
27040,-2e-05,-3e-05,-0.00015,5e-05,-1e-05,-0.00042,0.00023,0.00044,6,14
27041,-2e-05,-3e-05,-0.00015,5e-05,-1e-05,-0.00042,0.00023,0.00044,6,14
27042,-2e-05,-2e-05,-1e-05,1e-05,-8e-05,0.0001,-8e-05,9e-05,6,14
27043,-2e-05,-2e-05,-1e-05,1e-05,-8e-05,0.0001,-8e-05,9e-05,6,14
27044,2e-05,1e-05,3e-05,-3e-05,2e-05,0.00016,-8e-05,5e-05,6,14
27045,2e-05,1e-05,3e-05,-3e-05,2e-05,0.00016,-8e-05,5e-05,6,14
27046,2e-05,1e-05,3e-05,-3e-05,2e-05,0.00016,-8e-05,5e-05,6,14
27047,2e-05,1e-05,3e-05,-3e-05,2e-05,0.00016,-8e-05,5e-05,6,14
27048,2e-05,1e-05,3e-05,-3e-05,2e-05,0.00016,-8e-05,5e-05,6,14
27049,2e-05,1e-05,3e-05,-3e-05,2e-05,0.00016,-8e-05,5e-05,6,14
27050,2e-05,1e-05,3e-05,-3e-05,2e-05,0.00016,-8e-05,5e-05,6,14
27051,2e-05,1e-05,3e-05,-3e-05,2e-05,0.00016,-8e-05,5e-05,6,14
27052,2e-05,1e-05,3e-05,-3e-05,2e-05,0.00016,-8e-05,5e-05,6,14
27053,2e-05,1e-05,3e-05,-3e-05,2e-05,0.00016,-8e-05,5e-05,6,14
27054,2e-05,1e-05,3e-05,-3e-05,2e-05,0.00016,-8e-05,5e-05,6,14
27055,2e-05,1e-05,3e-05,-3e-05,2e-05,0.00016,-8e-05,5e-05,6,14
27056,2e-05,1e-05,3e-05,-3e-05,2e-05,0.00016,-8e-05,5e-05,6,14
27057,2e-05,1e-05,3e-05,-3e-05,2e-05,0.00016,-8e-05,5e-05,6,14
27058,2e-05,1e-05,3e-05,-3e-05,2e-05,0.00016,-8e-05,5e-05,6,14
27059,2e-05,1e-05,3e-05,-3e-05,2e-05,0.00016,-8e-05,5e-05,6,14
27060,2e-05,1e-05,3e-05,-3e-05,2e-05,0.00016,-8e-05,5e-05,6,14
27061,2e-05,1e-05,3e-05,-3e-05,2e-05,0.00016,-8e-05,5e-05,6,14
27062,2e-05,1e-05,3e-05,-3e-05,2e-05,0.00016,-8e-05,5e-05,6,14
27063,2e-05,1e-05,3e-05,-3e-05,2e-05,0.00016,-8e-05,5e-05,6,14
27064,2e-05,1e-05,3e-05,-3e-05,2e-05,0.00016,-8e-05,5e-05,6,14
27065,2e-05,-2e-05,1e-05,6e-05,0.00015,-5e-05,4e-05,0.00052,6,14
27066,0,-1e-05,0,-9e-05,-3e-05,-0.00012,-5e-05,-0.00012,6,14
27067,0,-1e-05,0,-9e-05,-3e-05,-0.00012,-5e-05,-0.00012,6,14
27068,0,-1e-05,0,-9e-05,-3e-05,-0.00012,-5e-05,-0.00012,6,14
27069,0,-1e-05,0,-9e-05,-3e-05,-0.00012,-5e-05,-0.00012,6,14
27070,0,-1e-05,0,-9e-05,-3e-05,-0.00012,-5e-05,-0.00012,6,14
27071,0,-1e-05,0,-9e-05,-3e-05,-0.00012,-5e-05,-0.00012,6,14
27072,0,-1e-05,0,-9e-05,-3e-05,-0.00012,-5e-05,-0.00012,6,14
27073,0,-1e-05,0,-9e-05,-3e-05,-0.00012,-5e-05,-0.00012,6,14
27074,0,-1e-05,0,-9e-05,-3e-05,-0.00012,-5e-05,-0.00012,6,14
27075,0,-1e-05,0,-9e-05,-3e-05,-0.00012,-5e-05,-0.00012,6,14
27076,0,-1e-05,0,-9e-05,-3e-05,-0.00012,-5e-05,-0.00012,6,14
27077,0,-1e-05,0,-9e-05,-3e-05,-0.00012,-5e-05,-0.00012,6,14
27078,2e-05,-2e-05,-1e-05,1e-05,-1e-05,-0.00023,-3e-05,0.00022,6,14
27079,-4e-05,-2e-05,-1e-05,3e-05,0.00013,-0.00026,-0.00021,-0.00031,6,14
27080,-4e-05,-2e-05,-1e-05,3e-05,0.00013,-0.00026,-0.00021,-0.00031,6,14
27081,-4e-05,-2e-05,-1e-05,3e-05,0.00013,-0.00026,-0.00021,-0.00031,6,14
27082,-4e-05,-2e-05,-1e-05,3e-05,0.00013,-0.00026,-0.00021,-0.00031,6,14
27083,-4e-05,-2e-05,-1e-05,3e-05,0.00013,-0.00026,-0.00021,-0.00031,6,14
27084,-4e-05,-2e-05,-1e-05,3e-05,0.00013,-0.00026,-0.00021,-0.00031,6,14
27085,-4e-05,-2e-05,-1e-05,3e-05,0.00013,-0.00026,-0.00021,-0.00031,6,14
27086,-4e-05,-2e-05,-1e-05,3e-05,0.00013,-0.00026,-0.00021,-0.00031,6,14
27088,-1e-05,-1e-05,-3e-05,-1e-05,8e-05,-0.00021,9e-05,0.00015,6,14
27089,-1e-05,-1e-05,-3e-05,-1e-05,8e-05,-0.00021,9e-05,0.00015,6,14
27090,-1e-05,-1e-05,-3e-05,-1e-05,8e-05,-0.00021,9e-05,0.00015,6,14
27091,-1e-05,-1e-05,-3e-05,-1e-05,8e-05,-0.00021,9e-05,0.00015,6,14
27092,-1e-05,-1e-05,-3e-05,-1e-05,8e-05,-0.00021,9e-05,0.00015,6,14
27093,-1e-05,-1e-05,-3e-05,-1e-05,8e-05,-0.00021,9e-05,0.00015,6,14
27094,-1e-05,-1e-05,-3e-05,-1e-05,8e-05,-0.00021,9e-05,0.00015,6,14
27095,-1e-05,-1e-05,-3e-05,-1e-05,8e-05,-0.00021,9e-05,0.00015,6,14
27096,-1e-05,-1e-05,-3e-05,-1e-05,8e-05,-0.00021,9e-05,0.00015,6,14
27097,-1e-05,-1e-05,-3e-05,-1e-05,8e-05,-0.00021,9e-05,0.00015,6,14
27098,-1e-05,-1e-05,-3e-05,-1e-05,8e-05,-0.00021,9e-05,0.00015,6,14
27099,-1e-05,-1e-05,-3e-05,-1e-05,8e-05,-0.00021,9e-05,0.00015,6,14
27100,-1e-05,-1e-05,-3e-05,-1e-05,8e-05,-0.00021,9e-05,0.00015,6,14
27101,-1e-05,-1e-05,-3e-05,-1e-05,8e-05,-0.00021,9e-05,0.00015,6,14
27102,-1e-05,0,-1e-05,-3e-05,0,-0.00013,-5e-05,-0.00011,6,14
27103,-1e-05,0,-1e-05,-3e-05,0,-0.00013,-5e-05,-0.00011,6,14
27104,-6e-05,-5e-05,-1e-05,5e-05,-1e-05,0.00048,-1e-05,-9e-05,6,14
27105,-6e-05,-5e-05,-1e-05,5e-05,-1e-05,0.00048,-1e-05,-9e-05,6,14
27106,-6e-05,-5e-05,-1e-05,5e-05,-1e-05,0.00048,-1e-05,-9e-05,6,14
27107,-6e-05,-5e-05,-1e-05,5e-05,-1e-05,0.00048,-1e-05,-9e-05,6,14
27108,-6e-05,-5e-05,-1e-05,5e-05,-1e-05,0.00048,-1e-05,-9e-05,6,14
27109,-6e-05,-5e-05,-1e-05,5e-05,-1e-05,0.00048,-1e-05,-9e-05,6,14
27110,-6e-05,-5e-05,-1e-05,5e-05,-1e-05,0.00048,-1e-05,-9e-05,6,14
27111,-6e-05,-5e-05,-1e-05,5e-05,-1e-05,0.00048,-1e-05,-9e-05,6,14
27112,-6e-05,-5e-05,-1e-05,5e-05,-1e-05,0.00048,-1e-05,-9e-05,6,14
27113,-6e-05,-5e-05,-1e-05,5e-05,-1e-05,0.00048,-1e-05,-9e-05,6,14
27114,-6e-05,-5e-05,-1e-05,5e-05,-1e-05,0.00048,-1e-05,-9e-05,6,14
27115,-6e-05,-5e-05,-1e-05,5e-05,-1e-05,0.00048,-1e-05,-9e-05,6,14
27116,-6e-05,-5e-05,-1e-05,5e-05,-1e-05,0.00048,-1e-05,-9e-05,6,14
27117,-6e-05,-5e-05,-1e-05,5e-05,-1e-05,0.00048,-1e-05,-9e-05,6,14
27118,-6e-05,-5e-05,-1e-05,5e-05,-1e-05,0.00048,-1e-05,-9e-05,6,14
27119,-6e-05,-5e-05,-1e-05,5e-05,-1e-05,0.00048,-1e-05,-9e-05,6,14
27120,-6e-05,-5e-05,-1e-05,5e-05,-1e-05,0.00048,-1e-05,-9e-05,6,14
27121,-6e-05,-5e-05,-1e-05,5e-05,-1e-05,0.00048,-1e-05,-9e-05,6,14
27122,-6e-05,-5e-05,-1e-05,5e-05,-1e-05,0.00048,-1e-05,-9e-05,6,14
27123,-6e-05,-5e-05,-1e-05,5e-05,-1e-05,0.00048,-1e-05,-9e-05,6,14
27124,-6e-05,-5e-05,-1e-05,5e-05,-1e-05,0.00048,-1e-05,-9e-05,6,14
27125,0,-5e-05,1e-05,-1e-05,-2e-05,-8e-05,0,-0.00037,6,14
27126,-2e-05,-2e-05,-4e-05,-0.0001,-0.00016,2e-05,-6e-05,0,6,14
27127,-1e-05,3e-05,2e-05,-5e-05,5e-05,-3e-05,0.00017,-0.0001,6,14
27128,-1e-05,3e-05,2e-05,-5e-05,5e-05,-3e-05,0.00017,-0.0001,6,14
27129,-1e-05,3e-05,2e-05,-5e-05,5e-05,-3e-05,0.00017,-0.0001,6,14
27130,-1e-05,3e-05,2e-05,-5e-05,5e-05,-3e-05,0.00017,-0.0001,6,14
27131,-1e-05,3e-05,2e-05,-5e-05,5e-05,-3e-05,0.00017,-0.0001,6,14
27132,-1e-05,3e-05,2e-05,-5e-05,5e-05,-3e-05,0.00017,-0.0001,6,14
27133,-1e-05,3e-05,2e-05,-5e-05,5e-05,-3e-05,0.00017,-0.0001,6,14
27134,-1e-05,3e-05,2e-05,-5e-05,5e-05,-3e-05,0.00017,-0.0001,6,14
27135,-1e-05,3e-05,2e-05,-5e-05,5e-05,-3e-05,0.00017,-0.0001,6,14
27136,-1e-05,3e-05,2e-05,-5e-05,5e-05,-3e-05,0.00017,-0.0001,6,14
27138,5e-05,1e-05,5e-05,0.00016,0.00019,0.00025,0.00011,0.00047,6,14
27139,1e-05,2e-05,4e-05,-5e-05,-7e-05,8e-05,-3e-05,0.00012,6,14
27140,1e-05,2e-05,4e-05,-5e-05,-7e-05,8e-05,-3e-05,0.00012,6,14
27141,1e-05,2e-05,4e-05,-5e-05,-7e-05,8e-05,-3e-05,0.00012,6,14
27142,1e-05,2e-05,4e-05,-5e-05,-7e-05,8e-05,-3e-05,0.00012,6,14
27143,1e-05,2e-05,4e-05,-5e-05,-7e-05,8e-05,-3e-05,0.00012,6,14
27144,1e-05,2e-05,4e-05,-5e-05,-7e-05,8e-05,-3e-05,0.00012,6,14
27145,1e-05,2e-05,4e-05,-5e-05,-7e-05,8e-05,-3e-05,0.00012,6,14
27146,1e-05,2e-05,4e-05,-5e-05,-7e-05,8e-05,-3e-05,0.00012,6,14
27147,-4e-05,0,-0.00013,-8e-05,-6e-05,-0.0002,-0.0001,-0.00047,6,14
27148,-4e-05,0,-0.00013,-8e-05,-6e-05,-0.0002,-0.0001,-0.00047,6,14
27149,-4e-05,0,-0.00013,-8e-05,-6e-05,-0.0002,-0.0001,-0.00047,6,14
27150,-4e-05,0,-0.00013,-8e-05,-6e-05,-0.0002,-0.0001,-0.00047,6,14
27151,-4e-05,0,-0.00013,-8e-05,-6e-05,-0.0002,-0.0001,-0.00047,6,14
27152,-4e-05,0,-0.00013,-8e-05,-6e-05,-0.0002,-0.0001,-0.00047,6,14
27153,-4e-05,0,-0.00013,-8e-05,-6e-05,-0.0002,-0.0001,-0.00047,6,14
27154,-4e-05,0,-0.00013,-8e-05,-6e-05,-0.0002,-0.0001,-0.00047,6,14
27155,-4e-05,0,-0.00013,-8e-05,-6e-05,-0.0002,-0.0001,-0.00047,6,14
27156,-4e-05,0,-0.00013,-8e-05,-6e-05,-0.0002,-0.0001,-0.00047,6,14
27157,-4e-05,0,-0.00013,-8e-05,-6e-05,-0.0002,-0.0001,-0.00047,6,14
27158,-4e-05,0,-0.00013,-8e-05,-6e-05,-0.0002,-0.0001,-0.00047,6,14
27159,-4e-05,0,-0.00013,-8e-05,-6e-05,-0.0002,-0.0001,-0.00047,6,14
27160,-4e-05,0,-0.00013,-8e-05,-6e-05,-0.0002,-0.0001,-0.00047,6,14
27161,-4e-05,0,-0.00013,-8e-05,-6e-05,-0.0002,-0.0001,-0.00047,6,14
27162,-4e-05,-4e-05,-3e-05,-4e-05,-4e-05,-0.00013,2e-05,8e-05,6,14
27163,-4e-05,-4e-05,-3e-05,-4e-05,-4e-05,-0.00013,2e-05,8e-05,6,14
27164,-2e-05,0,4e-05,-3e-05,-1e-05,0.00014,3e-05,6e-05,6,14
27165,-2e-05,0,4e-05,-3e-05,-1e-05,0.00014,3e-05,6e-05,6,14
27166,-2e-05,0,4e-05,-3e-05,-1e-05,0.00014,3e-05,6e-05,6,14
27167,-2e-05,0,4e-05,-3e-05,-1e-05,0.00014,3e-05,6e-05,6,14
27168,-2e-05,0,4e-05,-3e-05,-1e-05,0.00014,3e-05,6e-05,6,14
27169,-2e-05,0,4e-05,-3e-05,-1e-05,0.00014,3e-05,6e-05,6,14
27170,-2e-05,0,4e-05,-3e-05,-1e-05,0.00014,3e-05,6e-05,6,14
27171,-2e-05,0,4e-05,-3e-05,-1e-05,0.00014,3e-05,6e-05,6,14
27172,-2e-05,0,4e-05,-3e-05,-1e-05,0.00014,3e-05,6e-05,6,14
27173,-2e-05,0,4e-05,-3e-05,-1e-05,0.00014,3e-05,6e-05,6,14
27174,-2e-05,0,4e-05,-3e-05,-1e-05,0.00014,3e-05,6e-05,6,14
27175,-2e-05,0,4e-05,-3e-05,-1e-05,0.00014,3e-05,6e-05,6,14
27176,-2e-05,0,4e-05,-3e-05,-1e-05,0.00014,3e-05,6e-05,6,14
27177,-2e-05,0,4e-05,-3e-05,-1e-05,0.00014,3e-05,6e-05,6,14
27178,-2e-05,0,4e-05,-3e-05,-1e-05,0.00014,3e-05,6e-05,6,14
27179,-2e-05,0,4e-05,-3e-05,-1e-05,0.00014,3e-05,6e-05,6,14
27180,-2e-05,0,4e-05,-3e-05,-1e-05,0.00014,3e-05,6e-05,6,14
27181,-2e-05,0,4e-05,-3e-05,-1e-05,0.00014,3e-05,6e-05,6,14
27182,-2e-05,0,4e-05,-3e-05,-1e-05,0.00014,3e-05,6e-05,6,14
27183,-2e-05,0,4e-05,-3e-05,-1e-05,0.00014,3e-05,6e-05,6,14
27184,-2e-05,0,4e-05,-3e-05,-1e-05,0.00014,3e-05,6e-05,6,14
27185,1e-05,1e-05,2e-05,1e-05,8e-05,0.00081,-1e-05,7e-05,6,14
27186,5e-05,-1e-05,3e-05,6e-05,-0.00025,1e-05,7e-05,0.00052,6,14
27188,5e-05,-1e-05,3e-05,6e-05,-0.00025,1e-05,7e-05,0.00052,6,14
27189,5e-05,-1e-05,3e-05,6e-05,-0.00025,1e-05,7e-05,0.00052,6,14
27190,5e-05,-1e-05,3e-05,6e-05,-0.00025,1e-05,7e-05,0.00052,6,14
27191,5e-05,-1e-05,3e-05,6e-05,-0.00025,1e-05,7e-05,0.00052,6,14
27192,5e-05,-1e-05,3e-05,6e-05,-0.00025,1e-05,7e-05,0.00052,6,14
27193,5e-05,-1e-05,3e-05,6e-05,-0.00025,1e-05,7e-05,0.00052,6,14
27194,5e-05,-1e-05,3e-05,6e-05,-0.00025,1e-05,7e-05,0.00052,6,14
27195,5e-05,-1e-05,3e-05,6e-05,-0.00025,1e-05,7e-05,0.00052,6,14
27196,5e-05,-1e-05,3e-05,6e-05,-0.00025,1e-05,7e-05,0.00052,6,14
27197,5e-05,-1e-05,3e-05,6e-05,-0.00025,1e-05,7e-05,0.00052,6,14
27198,5e-05,-1e-05,-2e-05,-1e-05,4e-05,-4e-05,1e-05,-8e-05,6,14
27199,5e-05,-1e-05,-2e-05,-1e-05,4e-05,-4e-05,1e-05,-8e-05,6,14
27200,5e-05,-1e-05,-2e-05,-1e-05,4e-05,-4e-05,1e-05,-8e-05,6,14
27201,5e-05,-1e-05,-2e-05,-1e-05,4e-05,-4e-05,1e-05,-8e-05,6,14
27202,5e-05,-1e-05,-2e-05,-1e-05,4e-05,-4e-05,1e-05,-8e-05,6,14
27203,5e-05,-1e-05,-2e-05,-1e-05,4e-05,-4e-05,1e-05,-8e-05,6,14
27204,5e-05,-1e-05,-2e-05,-1e-05,4e-05,-4e-05,1e-05,-8e-05,6,14
27205,5e-05,-1e-05,-2e-05,-1e-05,4e-05,-4e-05,1e-05,-8e-05,6,14
27206,5e-05,-1e-05,-2e-05,-1e-05,4e-05,-4e-05,1e-05,-8e-05,6,14
27207,-3e-05,-1e-05,-2e-05,7e-05,0.0001,-0.00018,-6e-05,-0.00015,6,14
27208,2e-05,-1e-05,4e-05,0,8e-05,-0.00058,1e-05,-6e-05,6,14
27209,2e-05,-1e-05,4e-05,0,8e-05,-0.00058,1e-05,-6e-05,6,14
27210,2e-05,-1e-05,4e-05,0,8e-05,-0.00058,1e-05,-6e-05,6,14
27211,2e-05,-1e-05,4e-05,0,8e-05,-0.00058,1e-05,-6e-05,6,14
27212,2e-05,-1e-05,4e-05,0,8e-05,-0.00058,1e-05,-6e-05,6,14
27213,2e-05,-1e-05,4e-05,0,8e-05,-0.00058,1e-05,-6e-05,6,14
27214,2e-05,-1e-05,4e-05,0,8e-05,-0.00058,1e-05,-6e-05,6,14
27215,2e-05,-1e-05,4e-05,0,8e-05,-0.00058,1e-05,-6e-05,6,14
27216,2e-05,-1e-05,4e-05,0,8e-05,-0.00058,1e-05,-6e-05,6,14
27217,2e-05,-1e-05,4e-05,0,8e-05,-0.00058,1e-05,-6e-05,6,14
27218,2e-05,-1e-05,4e-05,0,8e-05,-0.00058,1e-05,-6e-05,6,14
27219,2e-05,-1e-05,4e-05,0,8e-05,-0.00058,1e-05,-6e-05,6,14
27220,2e-05,-1e-05,4e-05,0,8e-05,-0.00058,1e-05,-6e-05,6,14
27221,2e-05,-1e-05,4e-05,0,8e-05,-0.00058,1e-05,-6e-05,6,14
27222,-2e-05,1e-05,-3e-05,0,-5e-05,-7e-05,-4e-05,0.00013,6,14
27223,-2e-05,1e-05,-3e-05,0,-5e-05,-7e-05,-4e-05,0.00013,6,14
27224,0,-1e-05,5e-05,4e-05,-3e-05,5e-05,-0.0001,0.00018,6,14
27225,0,-1e-05,5e-05,4e-05,-3e-05,5e-05,-0.0001,0.00018,6,14
27226,0,-1e-05,5e-05,4e-05,-3e-05,5e-05,-0.0001,0.00018,6,14
27227,0,-1e-05,5e-05,4e-05,-3e-05,5e-05,-0.0001,0.00018,6,14
27228,0,-1e-05,5e-05,4e-05,-3e-05,5e-05,-0.0001,0.00018,6,14
27229,0,-1e-05,5e-05,4e-05,-3e-05,5e-05,-0.0001,0.00018,6,14
27230,0,-1e-05,5e-05,4e-05,-3e-05,5e-05,-0.0001,0.00018,6,14
27231,0,-1e-05,5e-05,4e-05,-3e-05,5e-05,-0.0001,0.00018,6,14
27232,0,-1e-05,5e-05,4e-05,-3e-05,5e-05,-0.0001,0.00018,6,14
27233,0,-1e-05,5e-05,4e-05,-3e-05,5e-05,-0.0001,0.00018,6,14
27234,0,-1e-05,5e-05,4e-05,-3e-05,5e-05,-0.0001,0.00018,6,14
27235,0,-1e-05,5e-05,4e-05,-3e-05,5e-05,-0.0001,0.00018,6,14
27236,0,-1e-05,5e-05,4e-05,-3e-05,5e-05,-0.0001,0.00018,6,14
27238,0,-1e-05,5e-05,4e-05,-3e-05,5e-05,-0.0001,0.00018,6,14
27239,0,-1e-05,5e-05,4e-05,-3e-05,5e-05,-0.0001,0.00018,6,14
27240,0,-1e-05,5e-05,4e-05,-3e-05,5e-05,-0.0001,0.00018,6,14
27241,0,-1e-05,5e-05,4e-05,-3e-05,5e-05,-0.0001,0.00018,6,14
27242,0,-1e-05,5e-05,4e-05,-3e-05,5e-05,-0.0001,0.00018,6,14
27243,0,-1e-05,5e-05,4e-05,-3e-05,5e-05,-0.0001,0.00018,6,14
27244,0,-1e-05,5e-05,4e-05,-3e-05,5e-05,-0.0001,0.00018,6,14
27245,-4e-05,-4e-05,-9e-05,4e-05,0,0.00051,0.00024,-0.00011,6,14
27246,-4e-05,-4e-05,-9e-05,4e-05,0,0.00051,0.00024,-0.00011,6,14
27247,-1e-05,-2e-05,-0.00018,-3e-05,-1e-05,-0.00016,-0.00019,0.00011,6,14
27248,-1e-05,-2e-05,-0.00018,-3e-05,-1e-05,-0.00016,-0.00019,0.00011,6,14
27249,-1e-05,-2e-05,-0.00018,-3e-05,-1e-05,-0.00016,-0.00019,0.00011,6,14
27250,-1e-05,-2e-05,-0.00018,-3e-05,-1e-05,-0.00016,-0.00019,0.00011,6,14
27251,-1e-05,-2e-05,-0.00018,-3e-05,-1e-05,-0.00016,-0.00019,0.00011,6,14
27252,-1e-05,-2e-05,-0.00018,-3e-05,-1e-05,-0.00016,-0.00019,0.00011,6,14
27253,-1e-05,-2e-05,-0.00018,-3e-05,-1e-05,-0.00016,-0.00019,0.00011,6,14
27254,-1e-05,-2e-05,-0.00018,-3e-05,-1e-05,-0.00016,-0.00019,0.00011,6,14
27255,-1e-05,-2e-05,-0.00018,-3e-05,-1e-05,-0.00016,-0.00019,0.00011,6,14
27256,-1e-05,-2e-05,-0.00018,-3e-05,-1e-05,-0.00016,-0.00019,0.00011,6,14
27257,-1e-05,-2e-05,-0.00018,-3e-05,-1e-05,-0.00016,-0.00019,0.00011,6,14
27258,-3e-05,-1e-05,3e-05,-6e-05,-0.0001,-0.00019,0,3e-05,6,14
27259,-3e-05,-1e-05,3e-05,-6e-05,-0.0001,-0.00019,0,3e-05,6,14
27260,-3e-05,-1e-05,3e-05,-6e-05,-0.0001,-0.00019,0,3e-05,6,14
27261,-3e-05,-1e-05,3e-05,-6e-05,-0.0001,-0.00019,0,3e-05,6,14
27262,-3e-05,-1e-05,3e-05,-6e-05,-0.0001,-0.00019,0,3e-05,6,14
27263,-3e-05,-1e-05,3e-05,-6e-05,-0.0001,-0.00019,0,3e-05,6,14
27264,-3e-05,-1e-05,3e-05,-6e-05,-0.0001,-0.00019,0,3e-05,6,14
27265,-3e-05,-1e-05,3e-05,-6e-05,-0.0001,-0.00019,0,3e-05,6,14
27266,-3e-05,-1e-05,3e-05,-6e-05,-0.0001,-0.00019,0,3e-05,6,14
27267,-4e-05,-1e-05,0,-2e-05,4e-05,0.00016,0,-8e-05,6,14
27268,2e-05,-1e-05,3e-05,0,7e-05,0.00032,8e-05,-0.0001,6,14
27269,2e-05,-1e-05,3e-05,0,7e-05,0.00032,8e-05,-0.0001,6,14
27270,2e-05,-1e-05,3e-05,0,7e-05,0.00032,8e-05,-0.0001,6,14
27271,2e-05,-1e-05,3e-05,0,7e-05,0.00032,8e-05,-0.0001,6,14
27272,2e-05,-1e-05,3e-05,0,7e-05,0.00032,8e-05,-0.0001,6,14
27273,2e-05,-1e-05,3e-05,0,7e-05,0.00032,8e-05,-0.0001,6,14
27274,2e-05,-1e-05,3e-05,0,7e-05,0.00032,8e-05,-0.0001,6,14
27275,2e-05,-1e-05,3e-05,0,7e-05,0.00032,8e-05,-0.0001,6,14
27276,2e-05,-1e-05,3e-05,0,7e-05,0.00032,8e-05,-0.0001,6,14
27277,2e-05,-1e-05,3e-05,0,7e-05,0.00032,8e-05,-0.0001,6,14
27278,2e-05,-1e-05,3e-05,0,7e-05,0.00032,8e-05,-0.0001,6,14
27279,2e-05,-1e-05,3e-05,0,7e-05,0.00032,8e-05,-0.0001,6,14
27280,2e-05,-1e-05,3e-05,0,7e-05,0.00032,8e-05,-0.0001,6,14
27281,2e-05,-1e-05,3e-05,0,7e-05,0.00032,8e-05,-0.0001,6,14
27282,-3e-05,-3e-05,-8e-05,-0.0001,-0.00021,-0.00065,-0.00022,-3e-05,6,14
27283,-3e-05,-3e-05,-8e-05,-0.0001,-0.00021,-0.00065,-0.00022,-3e-05,6,14
27284,-1e-05,-3e-05,-2e-05,2e-05,0.00011,-0.00018,-6e-05,-0.0001,6,14
27285,-1e-05,-3e-05,-2e-05,2e-05,0.00011,-0.00018,-6e-05,-0.0001,6,14
27286,-1e-05,-3e-05,-2e-05,2e-05,0.00011,-0.00018,-6e-05,-0.0001,6,14
27288,-1e-05,-3e-05,-2e-05,2e-05,0.00011,-0.00018,-6e-05,-0.0001,6,14
27289,-1e-05,-3e-05,-2e-05,2e-05,0.00011,-0.00018,-6e-05,-0.0001,6,14
27290,-1e-05,-3e-05,-2e-05,2e-05,0.00011,-0.00018,-6e-05,-0.0001,6,14
27291,-1e-05,-3e-05,-2e-05,2e-05,0.00011,-0.00018,-6e-05,-0.0001,6,14
27292,-1e-05,-3e-05,-2e-05,2e-05,0.00011,-0.00018,-6e-05,-0.0001,6,14
27293,-1e-05,-3e-05,-2e-05,2e-05,0.00011,-0.00018,-6e-05,-0.0001,6,14
27294,-1e-05,-3e-05,-2e-05,2e-05,0.00011,-0.00018,-6e-05,-0.0001,6,14
27295,-1e-05,-3e-05,-2e-05,2e-05,0.00011,-0.00018,-6e-05,-0.0001,6,14
27296,-1e-05,-3e-05,-2e-05,2e-05,0.00011,-0.00018,-6e-05,-0.0001,6,14
27297,-1e-05,-3e-05,-2e-05,2e-05,0.00011,-0.00018,-6e-05,-0.0001,6,14
27298,-1e-05,-3e-05,-2e-05,2e-05,0.00011,-0.00018,-6e-05,-0.0001,6,14
27299,-1e-05,-3e-05,-2e-05,2e-05,0.00011,-0.00018,-6e-05,-0.0001,6,14
27300,-1e-05,-3e-05,-2e-05,2e-05,0.00011,-0.00018,-6e-05,-0.0001,6,14
27301,-1e-05,-3e-05,-2e-05,2e-05,0.00011,-0.00018,-6e-05,-0.0001,6,14
27302,-1e-05,-3e-05,-2e-05,2e-05,0.00011,-0.00018,-6e-05,-0.0001,6,14
27303,-1e-05,-3e-05,-2e-05,2e-05,0.00011,-0.00018,-6e-05,-0.0001,6,14
27304,-1e-05,-3e-05,-2e-05,2e-05,0.00011,-0.00018,-6e-05,-0.0001,6,14
27305,1e-05,0,4e-05,-4e-05,-7e-05,-0.00036,4e-05,0.00015,6,14
27306,-1e-05,1e-05,4e-05,-2e-05,1e-05,5e-05,-3e-05,-0.00013,6,14
27307,-1e-05,1e-05,4e-05,-2e-05,1e-05,5e-05,-3e-05,-0.00013,6,14
27308,-1e-05,1e-05,4e-05,-2e-05,1e-05,5e-05,-3e-05,-0.00013,6,14
27309,-1e-05,1e-05,4e-05,-2e-05,1e-05,5e-05,-3e-05,-0.00013,6,14
27310,-1e-05,1e-05,4e-05,-2e-05,1e-05,5e-05,-3e-05,-0.00013,6,14
27311,-1e-05,1e-05,4e-05,-2e-05,1e-05,5e-05,-3e-05,-0.00013,6,14
27312,-1e-05,1e-05,4e-05,-2e-05,1e-05,5e-05,-3e-05,-0.00013,6,14
27313,-1e-05,1e-05,4e-05,-2e-05,1e-05,5e-05,-3e-05,-0.00013,6,14
27314,-1e-05,1e-05,4e-05,-2e-05,1e-05,5e-05,-3e-05,-0.00013,6,14
27315,-1e-05,1e-05,4e-05,-2e-05,1e-05,5e-05,-3e-05,-0.00013,6,14
27316,-1e-05,1e-05,4e-05,-2e-05,1e-05,5e-05,-3e-05,-0.00013,6,14
27317,-1e-05,1e-05,4e-05,-2e-05,1e-05,5e-05,-3e-05,-0.00013,6,14
27318,-6e-05,-5e-05,-3e-05,4e-05,-0.00014,-0.00051,-5e-05,-7e-05,6,14
27319,-5e-05,1e-05,5e-05,-7e-05,-5e-05,0.00052,0.0001,-0.00071,6,14
27320,-5e-05,1e-05,5e-05,-7e-05,-5e-05,0.00052,0.0001,-0.00071,6,14
27321,-5e-05,1e-05,5e-05,-7e-05,-5e-05,0.00052,0.0001,-0.00071,6,14
27322,-5e-05,1e-05,5e-05,-7e-05,-5e-05,0.00052,0.0001,-0.00071,6,14
27323,-5e-05,1e-05,5e-05,-7e-05,-5e-05,0.00052,0.0001,-0.00071,6,14
27324,-5e-05,1e-05,5e-05,-7e-05,-5e-05,0.00052,0.0001,-0.00071,6,14
27325,-5e-05,1e-05,5e-05,-7e-05,-5e-05,0.00052,0.0001,-0.00071,6,14
27326,-5e-05,1e-05,5e-05,-7e-05,-5e-05,0.00052,0.0001,-0.00071,6,14
27327,1e-05,1e-05,-1e-05,-1e-05,-6e-05,4e-05,7e-05,-4e-05,6,14
27329,1e-05,1e-05,-1e-05,-1e-05,-6e-05,4e-05,7e-05,-4e-05,6,14
27330,1e-05,1e-05,-1e-05,-1e-05,-6e-05,4e-05,7e-05,-4e-05,6,14
27331,1e-05,1e-05,-1e-05,-1e-05,-6e-05,4e-05,7e-05,-4e-05,6,14
27332,1e-05,1e-05,-1e-05,-1e-05,-6e-05,4e-05,7e-05,-4e-05,6,14
27333,1e-05,1e-05,-1e-05,-1e-05,-6e-05,4e-05,7e-05,-4e-05,6,14
27334,1e-05,1e-05,-1e-05,-1e-05,-6e-05,4e-05,7e-05,-4e-05,6,14
27335,1e-05,1e-05,-1e-05,-1e-05,-6e-05,4e-05,7e-05,-4e-05,6,14
27336,1e-05,1e-05,-1e-05,-1e-05,-6e-05,4e-05,7e-05,-4e-05,6,14
27338,1e-05,1e-05,-1e-05,-1e-05,-6e-05,4e-05,7e-05,-4e-05,6,14
27339,1e-05,1e-05,-1e-05,-1e-05,-6e-05,4e-05,7e-05,-4e-05,6,14
27340,1e-05,1e-05,-1e-05,-1e-05,-6e-05,4e-05,7e-05,-4e-05,6,14
27341,1e-05,1e-05,-1e-05,-1e-05,-6e-05,4e-05,7e-05,-4e-05,6,14
27342,-5e-05,-2e-05,-3e-05,1e-05,-6e-05,-0.00056,4e-05,-3e-05,6,14
27343,-5e-05,-2e-05,-3e-05,1e-05,-6e-05,-0.00056,4e-05,-3e-05,6,14
27344,-2e-05,0,-4e-05,2e-05,5e-05,0.00028,-7e-05,1e-05,6,14
27345,4e-05,0,3e-05,-0.00013,-0.00018,7e-05,0.0001,-0.00056,6,14
27346,4e-05,0,3e-05,-0.00013,-0.00018,7e-05,0.0001,-0.00056,6,14
27347,4e-05,0,3e-05,-0.00013,-0.00018,7e-05,0.0001,-0.00056,6,14
27348,4e-05,0,3e-05,-0.00013,-0.00018,7e-05,0.0001,-0.00056,6,14
27349,4e-05,0,3e-05,-0.00013,-0.00018,7e-05,0.0001,-0.00056,6,14
27350,4e-05,0,3e-05,-0.00013,-0.00018,7e-05,0.0001,-0.00056,6,14
27351,4e-05,0,3e-05,-0.00013,-0.00018,7e-05,0.0001,-0.00056,6,14
27352,4e-05,0,3e-05,-0.00013,-0.00018,7e-05,0.0001,-0.00056,6,14
27353,4e-05,0,3e-05,-0.00013,-0.00018,7e-05,0.0001,-0.00056,6,14
27354,4e-05,0,3e-05,-0.00013,-0.00018,7e-05,0.0001,-0.00056,6,14
27355,4e-05,0,3e-05,-0.00013,-0.00018,7e-05,0.0001,-0.00056,6,14
27356,4e-05,0,3e-05,-0.00013,-0.00018,7e-05,0.0001,-0.00056,6,14
27357,4e-05,0,3e-05,-0.00013,-0.00018,7e-05,0.0001,-0.00056,6,14
27358,4e-05,0,3e-05,-0.00013,-0.00018,7e-05,0.0001,-0.00056,6,14
27359,4e-05,0,3e-05,-0.00013,-0.00018,7e-05,0.0001,-0.00056,6,14
27360,4e-05,0,3e-05,-0.00013,-0.00018,7e-05,0.0001,-0.00056,6,14
27361,4e-05,0,3e-05,-0.00013,-0.00018,7e-05,0.0001,-0.00056,6,14
27362,4e-05,0,3e-05,-0.00013,-0.00018,7e-05,0.0001,-0.00056,6,14
27363,4e-05,0,3e-05,-0.00013,-0.00018,7e-05,0.0001,-0.00056,6,14
27364,4e-05,0,3e-05,-0.00013,-0.00018,7e-05,0.0001,-0.00056,6,14
27365,2e-05,-1e-05,-3e-05,2e-05,3e-05,9e-05,1e-05,0.00019,6,14
27366,-2e-05,0,-0.0003,-0.00015,-5e-05,7e-05,-5e-05,0.00021,6,14
27367,-2e-05,0,-0.0003,-0.00015,-5e-05,7e-05,-5e-05,0.00021,6,14
27368,-2e-05,0,-0.0003,-0.00015,-5e-05,7e-05,-5e-05,0.00021,6,14
27369,-2e-05,0,-0.0003,-0.00015,-5e-05,7e-05,-5e-05,0.00021,6,14
27370,-2e-05,0,-0.0003,-0.00015,-5e-05,7e-05,-5e-05,0.00021,6,14
27371,-2e-05,0,-0.0003,-0.00015,-5e-05,7e-05,-5e-05,0.00021,6,14
27372,-2e-05,0,-0.0003,-0.00015,-5e-05,7e-05,-5e-05,0.00021,6,14
27373,-2e-05,0,-0.0003,-0.00015,-5e-05,7e-05,-5e-05,0.00021,6,14
27374,-2e-05,0,-0.0003,-0.00015,-5e-05,7e-05,-5e-05,0.00021,6,14
27375,-2e-05,0,-0.0003,-0.00015,-5e-05,7e-05,-5e-05,0.00021,6,14
27376,-2e-05,0,-0.0003,-0.00015,-5e-05,7e-05,-5e-05,0.00021,6,14
27377,-2e-05,0,-0.0003,-0.00015,-5e-05,7e-05,-5e-05,0.00021,6,14
27378,-2e-05,0,-0.0003,-0.00015,-5e-05,7e-05,-5e-05,0.00021,6,14
27379,-2e-05,0,-0.0003,-0.00015,-5e-05,7e-05,-5e-05,0.00021,6,14
27380,-2e-05,0,-0.0003,-0.00015,-5e-05,7e-05,-5e-05,0.00021,6,14
27381,-2e-05,0,-0.0003,-0.00015,-5e-05,7e-05,-5e-05,0.00021,6,14
27382,-2e-05,0,-0.0003,-0.00015,-5e-05,7e-05,-5e-05,0.00021,6,14
27383,-2e-05,0,-0.0003,-0.00015,-5e-05,7e-05,-5e-05,0.00021,6,14
27384,-2e-05,0,-0.0003,-0.00015,-5e-05,7e-05,-5e-05,0.00021,6,14
27385,-2e-05,0,-0.0003,-0.00015,-5e-05,7e-05,-5e-05,0.00021,6,14
27386,-2e-05,0,-0.0003,-0.00015,-5e-05,7e-05,-5e-05,0.00021,6,14
27389,-4e-05,-2e-05,5e-05,3e-05,-6e-05,-1e-05,0,-0.00015,6,14
27390,-4e-05,-2e-05,5e-05,3e-05,-6e-05,-1e-05,0,-0.00015,6,14
27391,-4e-05,-2e-05,5e-05,3e-05,-6e-05,-1e-05,0,-0.00015,6,14
27392,-4e-05,-2e-05,5e-05,3e-05,-6e-05,-1e-05,0,-0.00015,6,14
27393,-4e-05,-2e-05,5e-05,3e-05,-6e-05,-1e-05,0,-0.00015,6,14
27394,-4e-05,-2e-05,5e-05,3e-05,-6e-05,-1e-05,0,-0.00015,6,14
27395,-4e-05,-2e-05,5e-05,3e-05,-6e-05,-1e-05,0,-0.00015,6,14
27396,-4e-05,-2e-05,5e-05,3e-05,-6e-05,-1e-05,0,-0.00015,6,14
27397,-4e-05,-2e-05,5e-05,3e-05,-6e-05,-1e-05,0,-0.00015,6,14
27398,-4e-05,-2e-05,5e-05,3e-05,-6e-05,-1e-05,0,-0.00015,6,14
27399,-4e-05,-2e-05,5e-05,3e-05,-6e-05,-1e-05,0,-0.00015,6,14
27400,-4e-05,-2e-05,5e-05,3e-05,-6e-05,-1e-05,0,-0.00015,6,14
27401,-4e-05,-2e-05,5e-05,3e-05,-6e-05,-1e-05,0,-0.00015,6,14
27402,1e-05,-2e-05,3e-05,4e-05,1e-05,-3e-05,-7e-05,0.00026,6,14
27403,1e-05,-2e-05,3e-05,4e-05,1e-05,-3e-05,-7e-05,0.00026,6,14
27404,1e-05,2e-05,0.00011,0.00013,0.00024,0.00016,4e-05,-5e-05,6,14
27405,1e-05,2e-05,0.00011,0.00013,0.00024,0.00016,4e-05,-5e-05,6,14
27406,1e-05,2e-05,0.00011,0.00013,0.00024,0.00016,4e-05,-5e-05,6,14
27407,1e-05,2e-05,0.00011,0.00013,0.00024,0.00016,4e-05,-5e-05,6,14
27408,1e-05,2e-05,0.00011,0.00013,0.00024,0.00016,4e-05,-5e-05,6,14
27409,1e-05,2e-05,0.00011,0.00013,0.00024,0.00016,4e-05,-5e-05,6,14
27410,1e-05,2e-05,0.00011,0.00013,0.00024,0.00016,4e-05,-5e-05,6,14
27411,1e-05,2e-05,0.00011,0.00013,0.00024,0.00016,4e-05,-5e-05,6,14
27412,1e-05,2e-05,0.00011,0.00013,0.00024,0.00016,4e-05,-5e-05,6,14
27413,1e-05,2e-05,0.00011,0.00013,0.00024,0.00016,4e-05,-5e-05,6,14
27414,1e-05,2e-05,0.00011,0.00013,0.00024,0.00016,4e-05,-5e-05,6,14
27415,1e-05,2e-05,0.00011,0.00013,0.00024,0.00016,4e-05,-5e-05,6,14
27416,1e-05,2e-05,0.00011,0.00013,0.00024,0.00016,4e-05,-5e-05,6,14
27417,1e-05,2e-05,0.00011,0.00013,0.00024,0.00016,4e-05,-5e-05,6,14
27418,1e-05,2e-05,0.00011,0.00013,0.00024,0.00016,4e-05,-5e-05,6,14
27419,1e-05,2e-05,0.00011,0.00013,0.00024,0.00016,4e-05,-5e-05,6,14
27420,1e-05,2e-05,0.00011,0.00013,0.00024,0.00016,4e-05,-5e-05,6,14
27421,1e-05,2e-05,0.00011,0.00013,0.00024,0.00016,4e-05,-5e-05,6,14
27422,1e-05,2e-05,0.00011,0.00013,0.00024,0.00016,4e-05,-5e-05,6,14
27423,1e-05,2e-05,0.00011,0.00013,0.00024,0.00016,4e-05,-5e-05,6,14
27424,1e-05,2e-05,0.00011,0.00013,0.00024,0.00016,4e-05,-5e-05,6,14
27425,-4e-05,-3e-05,0,2e-05,9e-05,-9e-05,-0.00018,0.00016,6,14
27426,-8e-05,-5e-05,0,-1e-05,-5e-05,0.00056,-8e-05,-8e-05,6,14
27427,-8e-05,-5e-05,0,-1e-05,-5e-05,0.00056,-8e-05,-8e-05,6,14
27428,-8e-05,-5e-05,0,-1e-05,-5e-05,0.00056,-8e-05,-8e-05,6,14
27429,-8e-05,-5e-05,0,-1e-05,-5e-05,0.00056,-8e-05,-8e-05,6,14
27430,-8e-05,-5e-05,0,-1e-05,-5e-05,0.00056,-8e-05,-8e-05,6,14
27431,-8e-05,-5e-05,0,-1e-05,-5e-05,0.00056,-8e-05,-8e-05,6,14
27432,-8e-05,-5e-05,0,-1e-05,-5e-05,0.00056,-8e-05,-8e-05,6,14
27433,-8e-05,-5e-05,0,-1e-05,-5e-05,0.00056,-8e-05,-8e-05,6,14
27434,-8e-05,-5e-05,0,-1e-05,-5e-05,0.00056,-8e-05,-8e-05,6,14
27435,-8e-05,-5e-05,0,-1e-05,-5e-05,0.00056,-8e-05,-8e-05,6,14
27436,-8e-05,-5e-05,0,-1e-05,-5e-05,0.00056,-8e-05,-8e-05,6,14
27438,-8e-05,-5e-05,0,-1e-05,-5e-05,0.00056,-8e-05,-8e-05,6,14
27439,-8e-05,-5e-05,0,-1e-05,-5e-05,0.00056,-8e-05,-8e-05,6,14
27440,-8e-05,-5e-05,0,-1e-05,-5e-05,0.00056,-8e-05,-8e-05,6,14
27441,-8e-05,-5e-05,0,-1e-05,-5e-05,0.00056,-8e-05,-8e-05,6,14
27442,-8e-05,-5e-05,0,-1e-05,-5e-05,0.00056,-8e-05,-8e-05,6,14
27443,-8e-05,-5e-05,0,-1e-05,-5e-05,0.00056,-8e-05,-8e-05,6,14
27444,-8e-05,-5e-05,0,-1e-05,-5e-05,0.00056,-8e-05,-8e-05,6,14
27445,-8e-05,-5e-05,0,-1e-05,-5e-05,0.00056,-8e-05,-8e-05,6,14
27446,-8e-05,-5e-05,0,-1e-05,-5e-05,0.00056,-8e-05,-8e-05,6,14
27447,4e-05,-3e-05,-1e-05,1e-05,-3e-05,0.00013,0.00011,7e-05,6,14
27448,4e-05,-3e-05,-1e-05,1e-05,-3e-05,0.00013,0.00011,7e-05,6,14
27449,5e-05,-1e-05,1e-05,-0.00011,-9e-05,-0.00029,-6e-05,-0.0001,6,14
27450,5e-05,-1e-05,1e-05,-0.00011,-9e-05,-0.00029,-6e-05,-0.0001,6,14
27451,5e-05,-1e-05,1e-05,-0.00011,-9e-05,-0.00029,-6e-05,-0.0001,6,14
27452,5e-05,-1e-05,1e-05,-0.00011,-9e-05,-0.00029,-6e-05,-0.0001,6,14
27453,5e-05,-1e-05,1e-05,-0.00011,-9e-05,-0.00029,-6e-05,-0.0001,6,14
27454,5e-05,-1e-05,1e-05,-0.00011,-9e-05,-0.00029,-6e-05,-0.0001,6,14
27455,5e-05,-1e-05,1e-05,-0.00011,-9e-05,-0.00029,-6e-05,-0.0001,6,14
27456,5e-05,-1e-05,1e-05,-0.00011,-9e-05,-0.00029,-6e-05,-0.0001,6,14
27457,5e-05,-1e-05,1e-05,-0.00011,-9e-05,-0.00029,-6e-05,-0.0001,6,14
27458,5e-05,-1e-05,1e-05,-0.00011,-9e-05,-0.00029,-6e-05,-0.0001,6,14
27459,5e-05,-1e-05,1e-05,-0.00011,-9e-05,-0.00029,-6e-05,-0.0001,6,14
27460,5e-05,-1e-05,1e-05,-0.00011,-9e-05,-0.00029,-6e-05,-0.0001,6,14
27461,5e-05,-1e-05,1e-05,-0.00011,-9e-05,-0.00029,-6e-05,-0.0001,6,14
27462,5e-05,-1e-05,1e-05,-0.00011,-9e-05,-0.00029,-6e-05,-0.0001,6,14
27463,0.0001,-3e-05,-7e-05,-0.00023,-0.00028,-0.00046,-8e-05,-3e-05,6,14
27464,1e-05,-3e-05,3e-05,-1e-05,-8e-05,-6e-05,3e-05,8e-05,6,14
27465,1e-05,-3e-05,3e-05,-1e-05,-8e-05,-6e-05,3e-05,8e-05,6,14
27466,1e-05,-3e-05,3e-05,-1e-05,-8e-05,-6e-05,3e-05,8e-05,6,14
27467,1e-05,-3e-05,3e-05,-1e-05,-8e-05,-6e-05,3e-05,8e-05,6,14
27468,1e-05,-3e-05,3e-05,-1e-05,-8e-05,-6e-05,3e-05,8e-05,6,14
27469,1e-05,-3e-05,3e-05,-1e-05,-8e-05,-6e-05,3e-05,8e-05,6,14
27470,1e-05,-3e-05,3e-05,-1e-05,-8e-05,-6e-05,3e-05,8e-05,6,14
27471,1e-05,-3e-05,3e-05,-1e-05,-8e-05,-6e-05,3e-05,8e-05,6,14
27472,1e-05,-3e-05,3e-05,-1e-05,-8e-05,-6e-05,3e-05,8e-05,6,14
27473,1e-05,-3e-05,3e-05,-1e-05,-8e-05,-6e-05,3e-05,8e-05,6,14
27474,1e-05,-3e-05,3e-05,-1e-05,-8e-05,-6e-05,3e-05,8e-05,6,14
27475,1e-05,-3e-05,3e-05,-1e-05,-8e-05,-6e-05,3e-05,8e-05,6,14
27476,1e-05,-3e-05,3e-05,-1e-05,-8e-05,-6e-05,3e-05,8e-05,6,14
27477,1e-05,-3e-05,3e-05,-1e-05,-8e-05,-6e-05,3e-05,8e-05,6,14
27478,1e-05,-3e-05,3e-05,-1e-05,-8e-05,-6e-05,3e-05,8e-05,6,14
27479,1e-05,-3e-05,3e-05,-1e-05,-8e-05,-6e-05,3e-05,8e-05,6,14
27480,1e-05,-3e-05,3e-05,-1e-05,-8e-05,-6e-05,3e-05,8e-05,6,14
27481,1e-05,-3e-05,3e-05,-1e-05,-8e-05,-6e-05,3e-05,8e-05,6,14
27482,1e-05,-3e-05,3e-05,-1e-05,-8e-05,-6e-05,3e-05,8e-05,6,14
27483,1e-05,-3e-05,3e-05,-1e-05,-8e-05,-6e-05,3e-05,8e-05,6,14
27484,1e-05,-3e-05,3e-05,-1e-05,-8e-05,-6e-05,3e-05,8e-05,6,14
27485,5e-05,-4e-05,-2e-05,0.00011,0.00012,5e-05,-0.00011,-0.00055,6,14
27486,1e-05,2e-05,2e-05,-5e-05,-1e-05,-0.0002,0.00021,-0.00054,6,14
27488,-7e-05,-1e-05,2e-05,-2e-05,0.00016,-0.0002,-0.00012,-6e-05,6,14
27489,-7e-05,-1e-05,2e-05,-2e-05,0.00016,-0.0002,-0.00012,-6e-05,6,14
27490,-7e-05,-1e-05,2e-05,-2e-05,0.00016,-0.0002,-0.00012,-6e-05,6,14
27491,-7e-05,-1e-05,2e-05,-2e-05,0.00016,-0.0002,-0.00012,-6e-05,6,14
27492,-7e-05,-1e-05,2e-05,-2e-05,0.00016,-0.0002,-0.00012,-6e-05,6,14
27493,-7e-05,-1e-05,2e-05,-2e-05,0.00016,-0.0002,-0.00012,-6e-05,6,14
27494,-7e-05,-1e-05,2e-05,-2e-05,0.00016,-0.0002,-0.00012,-6e-05,6,14
27495,-7e-05,-1e-05,2e-05,-2e-05,0.00016,-0.0002,-0.00012,-6e-05,6,14
27496,-7e-05,-1e-05,2e-05,-2e-05,0.00016,-0.0002,-0.00012,-6e-05,6,14
27497,-7e-05,-1e-05,2e-05,-2e-05,0.00016,-0.0002,-0.00012,-6e-05,6,14
27498,-7e-05,-1e-05,2e-05,-2e-05,0.00016,-0.0002,-0.00012,-6e-05,6,14
27499,-7e-05,-1e-05,2e-05,-2e-05,0.00016,-0.0002,-0.00012,-6e-05,6,14
27500,-7e-05,-1e-05,2e-05,-2e-05,0.00016,-0.0002,-0.00012,-6e-05,6,14
27501,-7e-05,-1e-05,2e-05,-2e-05,0.00016,-0.0002,-0.00012,-6e-05,6,14
27502,-7e-05,-1e-05,2e-05,-2e-05,0.00016,-0.0002,-0.00012,-6e-05,6,14
27503,-7e-05,-1e-05,2e-05,-2e-05,0.00016,-0.0002,-0.00012,-6e-05,6,14
27504,-7e-05,-1e-05,2e-05,-2e-05,0.00016,-0.0002,-0.00012,-6e-05,6,14
27505,-7e-05,-1e-05,2e-05,-2e-05,0.00016,-0.0002,-0.00012,-6e-05,6,14
27506,-7e-05,-1e-05,2e-05,-2e-05,0.00016,-0.0002,-0.00012,-6e-05,6,14
27507,-7e-05,0,-3e-05,6e-05,6e-05,0,3e-05,0.00016,6,14
27508,-7e-05,0,-3e-05,6e-05,6e-05,0,3e-05,0.00016,6,14
27509,-3e-05,-3e-05,5e-05,-3e-05,-0.00027,-8e-05,-0.00018,-0.00017,6,14
27510,-3e-05,-3e-05,5e-05,-3e-05,-0.00027,-8e-05,-0.00018,-0.00017,6,14
27511,-3e-05,-3e-05,5e-05,-3e-05,-0.00027,-8e-05,-0.00018,-0.00017,6,14
27512,-3e-05,-3e-05,5e-05,-3e-05,-0.00027,-8e-05,-0.00018,-0.00017,6,14
27513,-3e-05,-3e-05,5e-05,-3e-05,-0.00027,-8e-05,-0.00018,-0.00017,6,14
27514,-3e-05,-3e-05,5e-05,-3e-05,-0.00027,-8e-05,-0.00018,-0.00017,6,14
27515,-3e-05,-3e-05,5e-05,-3e-05,-0.00027,-8e-05,-0.00018,-0.00017,6,14
27516,-3e-05,-3e-05,5e-05,-3e-05,-0.00027,-8e-05,-0.00018,-0.00017,6,14
27517,-3e-05,-3e-05,5e-05,-3e-05,-0.00027,-8e-05,-0.00018,-0.00017,6,14
27518,-3e-05,-3e-05,5e-05,-3e-05,-0.00027,-8e-05,-0.00018,-0.00017,6,14
27519,-3e-05,-3e-05,5e-05,-3e-05,-0.00027,-8e-05,-0.00018,-0.00017,6,14
27520,-3e-05,-3e-05,5e-05,-3e-05,-0.00027,-8e-05,-0.00018,-0.00017,6,14
27521,-3e-05,-3e-05,5e-05,-3e-05,-0.00027,-8e-05,-0.00018,-0.00017,6,14
27522,-4e-05,0,8e-05,0,6e-05,0.0003,3e-05,0.00011,6,14
27523,-4e-05,0,8e-05,0,6e-05,0.0003,3e-05,0.00011,6,14
27524,-4e-05,0,8e-05,0,6e-05,0.0003,3e-05,0.00011,6,14
27525,-4e-05,0,8e-05,0,6e-05,0.0003,3e-05,0.00011,6,14
27526,-4e-05,0,8e-05,0,6e-05,0.0003,3e-05,0.00011,6,14
27527,-4e-05,0,8e-05,0,6e-05,0.0003,3e-05,0.00011,6,14
27528,-6e-05,-4e-05,-1e-05,5e-05,-2e-05,-0.0003,-0.00015,-0.00022,6,14
27529,2e-05,1e-05,-6e-05,-1e-05,8e-05,0.00029,0.00012,0.00035,6,14
27530,2e-05,1e-05,-6e-05,-1e-05,8e-05,0.00029,0.00012,0.00035,6,14
27531,2e-05,1e-05,-6e-05,-1e-05,8e-05,0.00029,0.00012,0.00035,6,14
27532,2e-05,1e-05,-6e-05,-1e-05,8e-05,0.00029,0.00012,0.00035,6,14
27533,2e-05,1e-05,-6e-05,-1e-05,8e-05,0.00029,0.00012,0.00035,6,14
27534,2e-05,1e-05,-6e-05,-1e-05,8e-05,0.00029,0.00012,0.00035,6,14
27535,2e-05,1e-05,-6e-05,-1e-05,8e-05,0.00029,0.00012,0.00035,6,14
27536,2e-05,1e-05,-6e-05,-1e-05,8e-05,0.00029,0.00012,0.00035,6,14
27538,2e-05,1e-05,-6e-05,-1e-05,8e-05,0.00029,0.00012,0.00035,6,14
27539,2e-05,1e-05,-6e-05,-1e-05,8e-05,0.00029,0.00012,0.00035,6,14
27540,2e-05,1e-05,-6e-05,-1e-05,8e-05,0.00029,0.00012,0.00035,6,14
27541,2e-05,1e-05,-6e-05,-1e-05,8e-05,0.00029,0.00012,0.00035,6,14
27542,2e-05,1e-05,-6e-05,-1e-05,8e-05,0.00029,0.00012,0.00035,6,14
27543,2e-05,1e-05,-6e-05,-1e-05,8e-05,0.00029,0.00012,0.00035,6,14
27544,2e-05,1e-05,-6e-05,-1e-05,8e-05,0.00029,0.00012,0.00035,6,14
27545,0,-3e-05,-8e-05,-0.00018,-0.00022,-0.00021,0.00026,0.00026,6,14
27546,-1e-05,0,-2e-05,0,3e-05,-0.00085,0.0001,0.00027,6,14
27548,-1e-05,0,-2e-05,0,3e-05,-0.00085,0.0001,0.00027,6,14
27549,-1e-05,0,-2e-05,0,3e-05,-0.00085,0.0001,0.00027,6,14
27550,-1e-05,0,-2e-05,0,3e-05,-0.00085,0.0001,0.00027,6,14
27551,-1e-05,0,-2e-05,0,3e-05,-0.00085,0.0001,0.00027,6,14
27552,-1e-05,0,-2e-05,0,3e-05,-0.00085,0.0001,0.00027,6,14
27553,-1e-05,0,-2e-05,0,3e-05,-0.00085,0.0001,0.00027,6,14
27554,-1e-05,0,-2e-05,0,3e-05,-0.00085,0.0001,0.00027,6,14
27555,-1e-05,0,-2e-05,0,3e-05,-0.00085,0.0001,0.00027,6,14
27556,-1e-05,0,-2e-05,0,3e-05,-0.00085,0.0001,0.00027,6,14
27557,-1e-05,0,-2e-05,0,3e-05,-0.00085,0.0001,0.00027,6,14
27558,-1e-05,0,-2e-05,0,3e-05,-0.00085,0.0001,0.00027,6,14
27559,-1e-05,0,-2e-05,0,3e-05,-0.00085,0.0001,0.00027,6,14
27560,-1e-05,0,-2e-05,0,3e-05,-0.00085,0.0001,0.00027,6,14
27561,-1e-05,0,-2e-05,0,3e-05,-0.00085,0.0001,0.00027,6,14
27562,-1e-05,0,-2e-05,0,3e-05,-0.00085,0.0001,0.00027,6,14
27563,-1e-05,0,-2e-05,0,3e-05,-0.00085,0.0001,0.00027,6,14
27564,-1e-05,0,-2e-05,0,3e-05,-0.00085,0.0001,0.00027,6,14
27565,-1e-05,0,-2e-05,0,3e-05,-0.00085,0.0001,0.00027,6,14
27566,-1e-05,0,-2e-05,0,3e-05,-0.00085,0.0001,0.00027,6,14
27567,-2e-05,-2e-05,-4e-05,3e-05,0.00012,0.00071,-3e-05,-0.00022,6,14
27568,-2e-05,-2e-05,-4e-05,3e-05,0.00012,0.00071,-3e-05,-0.00022,6,14
27569,2e-05,0,8e-05,3e-05,-6e-05,0.00014,1e-05,0.00019,6,14
27570,2e-05,0,8e-05,3e-05,-6e-05,0.00014,1e-05,0.00019,6,14
27571,2e-05,0,8e-05,3e-05,-6e-05,0.00014,1e-05,0.00019,6,14
27572,2e-05,0,8e-05,3e-05,-6e-05,0.00014,1e-05,0.00019,6,14
27573,2e-05,0,8e-05,3e-05,-6e-05,0.00014,1e-05,0.00019,6,14
27574,2e-05,0,8e-05,3e-05,-6e-05,0.00014,1e-05,0.00019,6,14
27575,2e-05,0,8e-05,3e-05,-6e-05,0.00014,1e-05,0.00019,6,14
27576,2e-05,0,8e-05,3e-05,-6e-05,0.00014,1e-05,0.00019,6,14
27577,2e-05,0,8e-05,3e-05,-6e-05,0.00014,1e-05,0.00019,6,14
27578,2e-05,0,8e-05,3e-05,-6e-05,0.00014,1e-05,0.00019,6,14
27579,2e-05,0,8e-05,3e-05,-6e-05,0.00014,1e-05,0.00019,6,14
27580,2e-05,0,8e-05,3e-05,-6e-05,0.00014,1e-05,0.00019,6,14
27581,2e-05,0,8e-05,3e-05,-6e-05,0.00014,1e-05,0.00019,6,14
27582,2e-05,0,8e-05,3e-05,-6e-05,0.00014,1e-05,0.00019,6,14
27583,2e-05,0,8e-05,3e-05,-6e-05,0.00014,1e-05,0.00019,6,14
27584,2e-05,0,8e-05,3e-05,-6e-05,0.00014,1e-05,0.00019,6,14
27585,2e-05,0,8e-05,3e-05,-6e-05,0.00014,1e-05,0.00019,6,14
27586,2e-05,0,8e-05,3e-05,-6e-05,0.00014,1e-05,0.00019,6,14
27588,2e-05,0,8e-05,3e-05,-6e-05,0.00014,1e-05,0.00019,6,14
27589,2e-05,0,8e-05,3e-05,-6e-05,0.00014,1e-05,0.00019,6,14
27590,6e-05,-1e-05,-2e-05,1e-05,6e-05,0.00048,-0.0001,0.00099,6,14
27591,2e-05,4e-05,9e-05,0.00028,0.00024,0.00072,4e-05,-0.0008,6,14
27592,2e-05,4e-05,9e-05,0.00028,0.00024,0.00072,4e-05,-0.0008,6,14
27593,2e-05,4e-05,9e-05,0.00028,0.00024,0.00072,4e-05,-0.0008,6,14
27594,2e-05,4e-05,9e-05,0.00028,0.00024,0.00072,4e-05,-0.0008,6,14
27595,2e-05,4e-05,9e-05,0.00028,0.00024,0.00072,4e-05,-0.0008,6,14
27596,2e-05,4e-05,9e-05,0.00028,0.00024,0.00072,4e-05,-0.0008,6,14
27597,2e-05,4e-05,9e-05,0.00028,0.00024,0.00072,4e-05,-0.0008,6,14
27598,2e-05,4e-05,9e-05,0.00028,0.00024,0.00072,4e-05,-0.0008,6,14
27599,2e-05,4e-05,9e-05,0.00028,0.00024,0.00072,4e-05,-0.0008,6,14
27600,2e-05,4e-05,9e-05,0.00028,0.00024,0.00072,4e-05,-0.0008,6,14
27601,2e-05,4e-05,9e-05,0.00028,0.00024,0.00072,4e-05,-0.0008,6,14
27602,2e-05,4e-05,9e-05,0.00028,0.00024,0.00072,4e-05,-0.0008,6,14
27603,2e-05,4e-05,9e-05,0.00028,0.00024,0.00072,4e-05,-0.0008,6,14
27604,2e-05,4e-05,9e-05,0.00028,0.00024,0.00072,4e-05,-0.0008,6,14
27605,-0.00017,-3e-05,0.00013,-7e-05,-1e-05,-6e-05,7e-05,-0.00059,6,14
27606,4e-05,3e-05,4e-05,-1e-05,0.00018,0.00045,0.0006,0.00023,6,14
27607,4e-05,3e-05,4e-05,-1e-05,0.00018,0.00045,0.0006,0.00023,6,14
27608,4e-05,3e-05,4e-05,-1e-05,0.00018,0.00045,0.0006,0.00023,6,14
27609,4e-05,3e-05,4e-05,-1e-05,0.00018,0.00045,0.0006,0.00023,6,14
27610,4e-05,3e-05,4e-05,-1e-05,0.00018,0.00045,0.0006,0.00023,6,14
27611,4e-05,3e-05,4e-05,-1e-05,0.00018,0.00045,0.0006,0.00023,6,14
27612,4e-05,3e-05,4e-05,-1e-05,0.00018,0.00045,0.0006,0.00023,6,14
27613,4e-05,3e-05,4e-05,-1e-05,0.00018,0.00045,0.0006,0.00023,6,14
27614,4e-05,3e-05,4e-05,-1e-05,0.00018,0.00045,0.0006,0.00023,6,14
27615,4e-05,3e-05,4e-05,-1e-05,0.00018,0.00045,0.0006,0.00023,6,14
27616,4e-05,3e-05,4e-05,-1e-05,0.00018,0.00045,0.0006,0.00023,6,14
27617,4e-05,3e-05,4e-05,-1e-05,0.00018,0.00045,0.0006,0.00023,6,14
27618,4e-05,3e-05,4e-05,-1e-05,0.00018,0.00045,0.0006,0.00023,6,14
27619,4e-05,3e-05,4e-05,-1e-05,0.00018,0.00045,0.0006,0.00023,6,14
27620,4e-05,3e-05,4e-05,-1e-05,0.00018,0.00045,0.0006,0.00023,6,14
27621,4e-05,3e-05,4e-05,-1e-05,0.00018,0.00045,0.0006,0.00023,6,14
27622,4e-05,3e-05,4e-05,-1e-05,0.00018,0.00045,0.0006,0.00023,6,14
27623,4e-05,3e-05,4e-05,-1e-05,0.00018,0.00045,0.0006,0.00023,6,14
27624,4e-05,3e-05,4e-05,-1e-05,0.00018,0.00045,0.0006,0.00023,6,14
27625,4e-05,3e-05,4e-05,-1e-05,0.00018,0.00045,0.0006,0.00023,6,14
27626,4e-05,3e-05,4e-05,-1e-05,0.00018,0.00045,0.0006,0.00023,6,14
27627,1e-05,3e-05,8e-05,0.00015,-1e-05,0.0001,-0.00011,-0.00051,6,14
27628,1e-05,3e-05,8e-05,0.00015,-1e-05,0.0001,-0.00011,-0.00051,6,14
27629,-6e-05,-2e-05,-4e-05,4e-05,9e-05,0.00034,2e-05,-0.00016,6,14
27630,-6e-05,-2e-05,-4e-05,4e-05,9e-05,0.00034,2e-05,-0.00016,6,14
27631,-6e-05,-2e-05,-4e-05,4e-05,9e-05,0.00034,2e-05,-0.00016,6,14
27632,-6e-05,-2e-05,-4e-05,4e-05,9e-05,0.00034,2e-05,-0.00016,6,14
27633,-6e-05,-2e-05,-4e-05,4e-05,9e-05,0.00034,2e-05,-0.00016,6,14
27634,-6e-05,-2e-05,-4e-05,4e-05,9e-05,0.00034,2e-05,-0.00016,6,14
27635,-6e-05,-2e-05,-4e-05,4e-05,9e-05,0.00034,2e-05,-0.00016,6,14
27636,-6e-05,-2e-05,-4e-05,4e-05,9e-05,0.00034,2e-05,-0.00016,6,14
27638,-6e-05,-2e-05,-4e-05,4e-05,9e-05,0.00034,2e-05,-0.00016,6,14
27639,-6e-05,-2e-05,-4e-05,4e-05,9e-05,0.00034,2e-05,-0.00016,6,14
27640,-6e-05,-2e-05,-4e-05,4e-05,9e-05,0.00034,2e-05,-0.00016,6,14
27641,-6e-05,-2e-05,-4e-05,4e-05,9e-05,0.00034,2e-05,-0.00016,6,14
27642,9e-05,4e-05,0,2e-05,-0.0002,-0.00086,-8e-05,0.00027,6,14
27643,9e-05,4e-05,0,2e-05,-0.0002,-0.00086,-8e-05,0.00027,6,14
27644,9e-05,4e-05,0,2e-05,-0.0002,-0.00086,-8e-05,0.00027,6,14
27645,9e-05,4e-05,0,2e-05,-0.0002,-0.00086,-8e-05,0.00027,6,14
27646,9e-05,4e-05,0,2e-05,-0.0002,-0.00086,-8e-05,0.00027,6,14
27647,9e-05,4e-05,0,2e-05,-0.0002,-0.00086,-8e-05,0.00027,6,14
27648,-3e-05,-1e-05,-7e-05,-0.00012,8e-05,-0.00012,-0.0003,0.00045,6,14
27649,-3e-05,-1e-05,-7e-05,-0.00012,8e-05,-0.00012,-0.0003,0.00045,6,14
27650,-3e-05,-1e-05,-7e-05,-0.00012,8e-05,-0.00012,-0.0003,0.00045,6,14
27651,-3e-05,-1e-05,-7e-05,-0.00012,8e-05,-0.00012,-0.0003,0.00045,6,14
27652,-3e-05,-1e-05,-7e-05,-0.00012,8e-05,-0.00012,-0.0003,0.00045,6,14
27653,-3e-05,-1e-05,-7e-05,-0.00012,8e-05,-0.00012,-0.0003,0.00045,6,14
27654,-3e-05,-1e-05,-7e-05,-0.00012,8e-05,-0.00012,-0.0003,0.00045,6,14
27655,-3e-05,-1e-05,-7e-05,-0.00012,8e-05,-0.00012,-0.0003,0.00045,6,14
27656,-3e-05,-1e-05,-7e-05,-0.00012,8e-05,-0.00012,-0.0003,0.00045,6,14
27657,-3e-05,-1e-05,-7e-05,-0.00012,8e-05,-0.00012,-0.0003,0.00045,6,14
27658,-3e-05,-1e-05,-7e-05,-0.00012,8e-05,-0.00012,-0.0003,0.00045,6,14
27659,-3e-05,-1e-05,-7e-05,-0.00012,8e-05,-0.00012,-0.0003,0.00045,6,14
27660,-3e-05,-1e-05,-7e-05,-0.00012,8e-05,-0.00012,-0.0003,0.00045,6,14
27661,-3e-05,-1e-05,-7e-05,-0.00012,8e-05,-0.00012,-0.0003,0.00045,6,14
27662,-3e-05,-1e-05,-7e-05,-0.00012,8e-05,-0.00012,-0.0003,0.00045,6,14
27663,-3e-05,-1e-05,-7e-05,-0.00012,8e-05,-0.00012,-0.0003,0.00045,6,14
27664,-3e-05,-1e-05,-7e-05,-0.00012,8e-05,-0.00012,-0.0003,0.00045,6,14
27665,1e-05,3e-05,-7e-05,1e-05,0.00019,-0.00079,-7e-05,-0.00029,6,14
27666,-8e-05,-5e-05,-6e-05,-7e-05,-0.00016,-9e-05,0,-0.00017,6,14
27667,-8e-05,-5e-05,-6e-05,-7e-05,-0.00016,-9e-05,0,-0.00017,6,14
27668,-8e-05,-5e-05,-6e-05,-7e-05,-0.00016,-9e-05,0,-0.00017,6,14
27669,-8e-05,-5e-05,-6e-05,-7e-05,-0.00016,-9e-05,0,-0.00017,6,14
27670,-8e-05,-5e-05,-6e-05,-7e-05,-0.00016,-9e-05,0,-0.00017,6,14
27671,-8e-05,-5e-05,-6e-05,-7e-05,-0.00016,-9e-05,0,-0.00017,6,14
27672,-8e-05,-5e-05,-6e-05,-7e-05,-0.00016,-9e-05,0,-0.00017,6,14
27673,-8e-05,-5e-05,-6e-05,-7e-05,-0.00016,-9e-05,0,-0.00017,6,14
27674,-8e-05,-5e-05,-6e-05,-7e-05,-0.00016,-9e-05,0,-0.00017,6,14
27675,-8e-05,-5e-05,-6e-05,-7e-05,-0.00016,-9e-05,0,-0.00017,6,14
27676,-8e-05,-5e-05,-6e-05,-7e-05,-0.00016,-9e-05,0,-0.00017,6,14
27677,-8e-05,-5e-05,-6e-05,-7e-05,-0.00016,-9e-05,0,-0.00017,6,14
27678,-8e-05,-5e-05,-6e-05,-7e-05,-0.00016,-9e-05,0,-0.00017,6,14
27679,-8e-05,-5e-05,-6e-05,-7e-05,-0.00016,-9e-05,0,-0.00017,6,14
27680,-8e-05,-5e-05,-6e-05,-7e-05,-0.00016,-9e-05,0,-0.00017,6,14
27681,-8e-05,-5e-05,-6e-05,-7e-05,-0.00016,-9e-05,0,-0.00017,6,14
27682,-8e-05,-5e-05,-6e-05,-7e-05,-0.00016,-9e-05,0,-0.00017,6,14
27683,-8e-05,-5e-05,-6e-05,-7e-05,-0.00016,-9e-05,0,-0.00017,6,14
27684,-8e-05,-5e-05,-6e-05,-7e-05,-0.00016,-9e-05,0,-0.00017,6,14
27685,-8e-05,-5e-05,-6e-05,-7e-05,-0.00016,-9e-05,0,-0.00017,6,14
27686,-8e-05,-5e-05,-6e-05,-7e-05,-0.00016,-9e-05,0,-0.00017,6,14
27689,-5e-05,-4e-05,-7e-05,-0.00034,-0.00029,-0.00101,-0.00045,-0.00021,6,14
27690,-5e-05,-4e-05,-7e-05,-0.00034,-0.00029,-0.00101,-0.00045,-0.00021,6,14
27691,-5e-05,-4e-05,-7e-05,-0.00034,-0.00029,-0.00101,-0.00045,-0.00021,6,14
27692,-5e-05,-4e-05,-7e-05,-0.00034,-0.00029,-0.00101,-0.00045,-0.00021,6,14
27693,-5e-05,-4e-05,-7e-05,-0.00034,-0.00029,-0.00101,-0.00045,-0.00021,6,14
27694,-5e-05,-4e-05,-7e-05,-0.00034,-0.00029,-0.00101,-0.00045,-0.00021,6,14
27695,-5e-05,-4e-05,-7e-05,-0.00034,-0.00029,-0.00101,-0.00045,-0.00021,6,14
27696,-5e-05,-4e-05,-7e-05,-0.00034,-0.00029,-0.00101,-0.00045,-0.00021,6,14
27697,-5e-05,-4e-05,-7e-05,-0.00034,-0.00029,-0.00101,-0.00045,-0.00021,6,14
27698,-5e-05,-4e-05,-7e-05,-0.00034,-0.00029,-0.00101,-0.00045,-0.00021,6,14
27699,-5e-05,-4e-05,-7e-05,-0.00034,-0.00029,-0.00101,-0.00045,-0.00021,6,14
27700,-5e-05,-4e-05,-7e-05,-0.00034,-0.00029,-0.00101,-0.00045,-0.00021,6,14
27701,-5e-05,-4e-05,-7e-05,-0.00034,-0.00029,-0.00101,-0.00045,-0.00021,6,14
27702,1e-05,-1e-05,-4e-05,0,-3e-05,-0.0005,-0.0001,-0.00013,6,14
27703,1e-05,-1e-05,-4e-05,0,-3e-05,-0.0005,-0.0001,-0.00013,6,14
27704,1e-05,-1e-05,-4e-05,0,-3e-05,-0.0005,-0.0001,-0.00013,6,14
27705,1e-05,-1e-05,-4e-05,0,-3e-05,-0.0005,-0.0001,-0.00013,6,14
27706,1e-05,-1e-05,-4e-05,0,-3e-05,-0.0005,-0.0001,-0.00013,6,14
27707,1e-05,-1e-05,-4e-05,0,-3e-05,-0.0005,-0.0001,-0.00013,6,14
27708,-0.00011,-2e-05,-6e-05,5e-05,-0.00012,-0.0008,0.00038,4e-05,6,14
27709,-0.00011,-2e-05,-6e-05,5e-05,-0.00012,-0.0008,0.00038,4e-05,6,14
27710,-0.00011,-2e-05,-6e-05,5e-05,-0.00012,-0.0008,0.00038,4e-05,6,14
27711,-0.00011,-2e-05,-6e-05,5e-05,-0.00012,-0.0008,0.00038,4e-05,6,14
27712,-0.00011,-2e-05,-6e-05,5e-05,-0.00012,-0.0008,0.00038,4e-05,6,14
27713,-0.00011,-2e-05,-6e-05,5e-05,-0.00012,-0.0008,0.00038,4e-05,6,14
27714,-0.00011,-2e-05,-6e-05,5e-05,-0.00012,-0.0008,0.00038,4e-05,6,14
27715,-0.00011,-2e-05,-6e-05,5e-05,-0.00012,-0.0008,0.00038,4e-05,6,14
27716,-0.00011,-2e-05,-6e-05,5e-05,-0.00012,-0.0008,0.00038,4e-05,6,14
27717,-0.00011,-2e-05,-6e-05,5e-05,-0.00012,-0.0008,0.00038,4e-05,6,14
27718,-0.00011,-2e-05,-6e-05,5e-05,-0.00012,-0.0008,0.00038,4e-05,6,14
27719,-0.00011,-2e-05,-6e-05,5e-05,-0.00012,-0.0008,0.00038,4e-05,6,14
27720,-0.00011,-2e-05,-6e-05,5e-05,-0.00012,-0.0008,0.00038,4e-05,6,14
27721,-0.00011,-2e-05,-6e-05,5e-05,-0.00012,-0.0008,0.00038,4e-05,6,14
27722,-0.00011,-2e-05,-6e-05,5e-05,-0.00012,-0.0008,0.00038,4e-05,6,14
27723,-0.00011,-2e-05,-6e-05,5e-05,-0.00012,-0.0008,0.00038,4e-05,6,14
27724,-0.00011,-2e-05,-6e-05,5e-05,-0.00012,-0.0008,0.00038,4e-05,6,14
27725,1e-05,2e-05,2e-05,0.00011,0.00036,0.00021,9e-05,0.00084,6,14
27726,0.0001,0,3e-05,-6e-05,-0.00024,-0.00035,-0.00021,-0.00014,6,14
27727,1e-05,-1e-05,-0.00015,3e-05,0.0001,-0.0002,-7e-05,0.00012,6,14
27728,1e-05,-1e-05,-0.00015,3e-05,0.0001,-0.0002,-7e-05,0.00012,6,14
27729,1e-05,-1e-05,-0.00015,3e-05,0.0001,-0.0002,-7e-05,0.00012,6,14
27730,1e-05,-1e-05,-0.00015,3e-05,0.0001,-0.0002,-7e-05,0.00012,6,14
27731,1e-05,-1e-05,-0.00015,3e-05,0.0001,-0.0002,-7e-05,0.00012,6,14
27732,1e-05,-1e-05,-0.00015,3e-05,0.0001,-0.0002,-7e-05,0.00012,6,14
27733,1e-05,-1e-05,-0.00015,3e-05,0.0001,-0.0002,-7e-05,0.00012,6,14
27734,1e-05,-1e-05,-0.00015,3e-05,0.0001,-0.0002,-7e-05,0.00012,6,14
27735,1e-05,-1e-05,-0.00015,3e-05,0.0001,-0.0002,-7e-05,0.00012,6,14
27736,1e-05,-1e-05,-0.00015,3e-05,0.0001,-0.0002,-7e-05,0.00012,6,14
27738,1e-05,-1e-05,-0.00015,3e-05,0.0001,-0.0002,-7e-05,0.00012,6,14
27739,1e-05,-1e-05,-0.00015,3e-05,0.0001,-0.0002,-7e-05,0.00012,6,14
27740,1e-05,-1e-05,-0.00015,3e-05,0.0001,-0.0002,-7e-05,0.00012,6,14
27741,1e-05,-1e-05,-0.00015,3e-05,0.0001,-0.0002,-7e-05,0.00012,6,14
27742,1e-05,-1e-05,-0.00015,3e-05,0.0001,-0.0002,-7e-05,0.00012,6,14
27743,1e-05,-1e-05,-0.00015,3e-05,0.0001,-0.0002,-7e-05,0.00012,6,14
27744,1e-05,-1e-05,-0.00015,3e-05,0.0001,-0.0002,-7e-05,0.00012,6,14
27745,1e-05,-1e-05,-0.00015,3e-05,0.0001,-0.0002,-7e-05,0.00012,6,14
27746,1e-05,-1e-05,-0.00015,3e-05,0.0001,-0.0002,-7e-05,0.00012,6,14
27747,1e-05,-1e-05,-0.00015,3e-05,0.0001,-0.0002,-7e-05,0.00012,6,14
27748,1e-05,-1e-05,-0.00015,3e-05,0.0001,-0.0002,-7e-05,0.00012,6,14
27749,1e-05,-1e-05,-0.00015,3e-05,0.0001,-0.0002,-7e-05,0.00012,6,14
27750,1e-05,-1e-05,-0.00015,3e-05,0.0001,-0.0002,-7e-05,0.00012,6,14
27751,1e-05,-1e-05,-0.00015,3e-05,0.0001,-0.0002,-7e-05,0.00012,6,14
27752,1e-05,-1e-05,-0.00015,3e-05,0.0001,-0.0002,-7e-05,0.00012,6,14
27753,1e-05,-1e-05,-0.00015,3e-05,0.0001,-0.0002,-7e-05,0.00012,6,14
27754,1e-05,-1e-05,-0.00015,3e-05,0.0001,-0.0002,-7e-05,0.00012,6,14
27755,-7e-05,-3e-05,-1e-05,-4e-05,-0.00016,-0.00051,-8e-05,4e-05,6,14
27756,8e-05,1e-05,4e-05,0.00018,7e-05,-0.00012,-0.00023,0.00072,6,14
27757,8e-05,1e-05,4e-05,0.00018,7e-05,-0.00012,-0.00023,0.00072,6,14
27758,8e-05,1e-05,4e-05,0.00018,7e-05,-0.00012,-0.00023,0.00072,6,14
27759,8e-05,1e-05,4e-05,0.00018,7e-05,-0.00012,-0.00023,0.00072,6,14
27760,8e-05,1e-05,4e-05,0.00018,7e-05,-0.00012,-0.00023,0.00072,6,14
27761,0.0001,3e-05,-1e-05,-3e-05,4e-05,0.00012,-8e-05,0.0003,6,14
27762,0.0001,3e-05,-1e-05,-3e-05,4e-05,0.00012,-8e-05,0.0003,6,14
27763,0.0001,3e-05,-1e-05,-3e-05,4e-05,0.00012,-8e-05,0.0003,6,14
27764,0.0001,3e-05,-1e-05,-3e-05,4e-05,0.00012,-8e-05,0.0003,6,14
27765,0.0001,3e-05,-1e-05,-3e-05,4e-05,0.00012,-8e-05,0.0003,6,14
27766,0.0001,3e-05,-1e-05,-3e-05,4e-05,0.00012,-8e-05,0.0003,6,14
27767,0.0001,3e-05,-1e-05,-3e-05,4e-05,0.00012,-8e-05,0.0003,6,14
27768,-5e-05,0,-3e-05,3e-05,-0.0001,-1e-05,-0.00012,-8e-05,6,14
27769,-3e-05,0,3e-05,-6e-05,-6e-05,1e-05,-0.00016,-0.00028,6,14
27770,-3e-05,0,3e-05,-6e-05,-6e-05,1e-05,-0.00016,-0.00028,6,14
27771,-3e-05,0,3e-05,-6e-05,-6e-05,1e-05,-0.00016,-0.00028,6,14
27772,-3e-05,0,3e-05,-6e-05,-6e-05,1e-05,-0.00016,-0.00028,6,14
27773,-3e-05,0,3e-05,-6e-05,-6e-05,1e-05,-0.00016,-0.00028,6,14
27774,-3e-05,0,3e-05,-6e-05,-6e-05,1e-05,-0.00016,-0.00028,6,14
27775,-3e-05,0,3e-05,-6e-05,-6e-05,1e-05,-0.00016,-0.00028,6,14
27776,-3e-05,0,3e-05,-6e-05,-6e-05,1e-05,-0.00016,-0.00028,6,14
27777,-3e-05,0,3e-05,-6e-05,-6e-05,1e-05,-0.00016,-0.00028,6,14
27778,-3e-05,0,3e-05,-6e-05,-6e-05,1e-05,-0.00016,-0.00028,6,14
27779,-3e-05,0,3e-05,-6e-05,-6e-05,1e-05,-0.00016,-0.00028,6,14
27780,-3e-05,0,3e-05,-6e-05,-6e-05,1e-05,-0.00016,-0.00028,6,14
27781,-3e-05,0,3e-05,-6e-05,-6e-05,1e-05,-0.00016,-0.00028,6,14
27782,-3e-05,0,3e-05,-6e-05,-6e-05,1e-05,-0.00016,-0.00028,6,14
27783,-3e-05,0,3e-05,-6e-05,-6e-05,1e-05,-0.00016,-0.00028,6,14
27784,-3e-05,0,3e-05,-6e-05,-6e-05,1e-05,-0.00016,-0.00028,6,14
27785,-0.00013,-3e-05,4e-05,0.00012,7e-05,0.00036,0.00027,-0.00081,6,14
27786,1e-05,-5e-05,-6e-05,-0.00017,-0.00019,-0.00052,-0.00032,0.00051,6,14
27788,-3e-05,-1e-05,2e-05,9e-05,0.00013,0.00084,5e-05,-0.00022,6,14
27789,-3e-05,-1e-05,2e-05,9e-05,0.00013,0.00084,5e-05,-0.00022,6,14
27790,-3e-05,-1e-05,2e-05,9e-05,0.00013,0.00084,5e-05,-0.00022,6,14
27791,-3e-05,-1e-05,2e-05,9e-05,0.00013,0.00084,5e-05,-0.00022,6,14
27792,-3e-05,-1e-05,2e-05,9e-05,0.00013,0.00084,5e-05,-0.00022,6,14
27793,-3e-05,-1e-05,2e-05,9e-05,0.00013,0.00084,5e-05,-0.00022,6,14
27794,-3e-05,-1e-05,2e-05,9e-05,0.00013,0.00084,5e-05,-0.00022,6,14
27795,-3e-05,-1e-05,2e-05,9e-05,0.00013,0.00084,5e-05,-0.00022,6,14
27796,-3e-05,-1e-05,2e-05,9e-05,0.00013,0.00084,5e-05,-0.00022,6,14
27797,-3e-05,-1e-05,2e-05,9e-05,0.00013,0.00084,5e-05,-0.00022,6,14
27798,-3e-05,-1e-05,2e-05,9e-05,0.00013,0.00084,5e-05,-0.00022,6,14
27799,-3e-05,-1e-05,2e-05,9e-05,0.00013,0.00084,5e-05,-0.00022,6,14
27800,-3e-05,-1e-05,2e-05,9e-05,0.00013,0.00084,5e-05,-0.00022,6,14
27801,-3e-05,-1e-05,2e-05,9e-05,0.00013,0.00084,5e-05,-0.00022,6,14
27802,-3e-05,-1e-05,2e-05,9e-05,0.00013,0.00084,5e-05,-0.00022,6,14
27803,-3e-05,-1e-05,2e-05,9e-05,0.00013,0.00084,5e-05,-0.00022,6,14
27804,-3e-05,-1e-05,2e-05,9e-05,0.00013,0.00084,5e-05,-0.00022,6,14
27805,-3e-05,-1e-05,2e-05,9e-05,0.00013,0.00084,5e-05,-0.00022,6,14
27806,-3e-05,-1e-05,2e-05,9e-05,0.00013,0.00084,5e-05,-0.00022,6,14
27807,5e-05,0,-3e-05,-3e-05,5e-05,-5e-05,5e-05,-5e-05,6,14
27808,5e-05,0,-3e-05,-3e-05,5e-05,-5e-05,5e-05,-5e-05,6,14
27809,3e-05,0,2e-05,4e-05,-5e-05,0.00048,-0.00031,4e-05,6,14
27810,3e-05,0,2e-05,4e-05,-5e-05,0.00048,-0.00031,4e-05,6,14
27811,3e-05,0,2e-05,4e-05,-5e-05,0.00048,-0.00031,4e-05,6,14
27812,3e-05,0,2e-05,4e-05,-5e-05,0.00048,-0.00031,4e-05,6,14
27813,3e-05,0,2e-05,4e-05,-5e-05,0.00048,-0.00031,4e-05,6,14
27814,3e-05,0,2e-05,4e-05,-5e-05,0.00048,-0.00031,4e-05,6,14
27815,3e-05,0,2e-05,4e-05,-5e-05,0.00048,-0.00031,4e-05,6,14
27816,3e-05,0,2e-05,4e-05,-5e-05,0.00048,-0.00031,4e-05,6,14
27817,3e-05,0,2e-05,4e-05,-5e-05,0.00048,-0.00031,4e-05,6,14
27818,3e-05,0,2e-05,4e-05,-5e-05,0.00048,-0.00031,4e-05,6,14
27819,3e-05,0,2e-05,4e-05,-5e-05,0.00048,-0.00031,4e-05,6,14
27820,3e-05,0,2e-05,4e-05,-5e-05,0.00048,-0.00031,4e-05,6,14
27821,1e-05,-5e-05,-0.00024,-7e-05,-3e-05,0.00021,5e-05,-2e-05,6,14
27822,1e-05,-5e-05,-0.00024,-7e-05,-3e-05,0.00021,5e-05,-2e-05,6,14
27823,1e-05,-5e-05,-0.00024,-7e-05,-3e-05,0.00021,5e-05,-2e-05,6,14
27824,1e-05,-5e-05,-0.00024,-7e-05,-3e-05,0.00021,5e-05,-2e-05,6,14
27825,1e-05,-5e-05,-0.00024,-7e-05,-3e-05,0.00021,5e-05,-2e-05,6,14
27826,1e-05,-5e-05,-0.00024,-7e-05,-3e-05,0.00021,5e-05,-2e-05,6,14
27827,1e-05,-5e-05,-0.00024,-7e-05,-3e-05,0.00021,5e-05,-2e-05,6,14
27828,1e-05,-5e-05,-0.00024,-7e-05,-3e-05,0.00021,5e-05,-2e-05,6,14
27829,1e-05,-5e-05,-0.00024,-7e-05,-3e-05,0.00021,5e-05,-2e-05,6,14
27830,-3e-05,-8e-05,-8e-05,-0.00012,-7e-05,-0.00053,0.00024,-0.00023,6,14
27831,-3e-05,-8e-05,-8e-05,-0.00012,-7e-05,-0.00053,0.00024,-0.00023,6,14
27832,-3e-05,-8e-05,-8e-05,-0.00012,-7e-05,-0.00053,0.00024,-0.00023,6,14
27833,-3e-05,-8e-05,-8e-05,-0.00012,-7e-05,-0.00053,0.00024,-0.00023,6,14
27834,-3e-05,-8e-05,-8e-05,-0.00012,-7e-05,-0.00053,0.00024,-0.00023,6,14
27835,-3e-05,-8e-05,-8e-05,-0.00012,-7e-05,-0.00053,0.00024,-0.00023,6,14
27836,-3e-05,-8e-05,-8e-05,-0.00012,-7e-05,-0.00053,0.00024,-0.00023,6,14
27838,-3e-05,-8e-05,-8e-05,-0.00012,-7e-05,-0.00053,0.00024,-0.00023,6,14
27839,-3e-05,-8e-05,-8e-05,-0.00012,-7e-05,-0.00053,0.00024,-0.00023,6,14
27840,-3e-05,-8e-05,-8e-05,-0.00012,-7e-05,-0.00053,0.00024,-0.00023,6,14
27841,-3e-05,-8e-05,-8e-05,-0.00012,-7e-05,-0.00053,0.00024,-0.00023,6,14
27842,-3e-05,-8e-05,-8e-05,-0.00012,-7e-05,-0.00053,0.00024,-0.00023,6,14
27843,-3e-05,-8e-05,-8e-05,-0.00012,-7e-05,-0.00053,0.00024,-0.00023,6,14
27844,-3e-05,-8e-05,-8e-05,-0.00012,-7e-05,-0.00053,0.00024,-0.00023,6,14
27845,1e-05,-4e-05,6e-05,2e-05,5e-05,-6e-05,-6e-05,0.00035,6,14
27846,1e-05,-4e-05,6e-05,2e-05,5e-05,-6e-05,-6e-05,0.00035,6,14
27847,7e-05,1e-05,4e-05,-3e-05,0.00011,-1e-05,-4e-05,0.00013,6,14
27848,7e-05,1e-05,4e-05,-3e-05,0.00011,-1e-05,-4e-05,0.00013,6,14
27849,7e-05,1e-05,4e-05,-3e-05,0.00011,-1e-05,-4e-05,0.00013,6,14
27850,7e-05,1e-05,4e-05,-3e-05,0.00011,-1e-05,-4e-05,0.00013,6,14
27851,7e-05,1e-05,4e-05,-3e-05,0.00011,-1e-05,-4e-05,0.00013,6,14
27852,7e-05,1e-05,4e-05,-3e-05,0.00011,-1e-05,-4e-05,0.00013,6,14
52289,3e-05,-2e-05,5e-05,-4e-05,0.00014,-0.00073,-0.00033,0.00015,6,14
52290,3e-05,-2e-05,5e-05,-4e-05,0.00014,-0.00073,-0.00033,0.00015,6,14
52291,3e-05,-2e-05,5e-05,-4e-05,0.00014,-0.00073,-0.00033,0.00015,6,14
52292,3e-05,-2e-05,5e-05,-4e-05,0.00014,-0.00073,-0.00033,0.00015,6,14
52293,3e-05,-2e-05,5e-05,-4e-05,0.00014,-0.00073,-0.00033,0.00015,6,14
52294,-0.0001,-3e-05,1e-05,-0.0001,9e-05,-0.00094,-1e-05,-0.00027,6,14
52295,-0.0001,-3e-05,1e-05,-0.0001,9e-05,-0.00094,-1e-05,-0.00027,6,14
52296,-0.0001,-3e-05,1e-05,-0.0001,9e-05,-0.00094,-1e-05,-0.00027,6,14
52297,-0.0001,-3e-05,1e-05,-0.0001,9e-05,-0.00094,-1e-05,-0.00027,6,14
52298,-0.0001,-3e-05,1e-05,-0.0001,9e-05,-0.00094,-1e-05,-0.00027,6,14
52299,-0.0001,-3e-05,1e-05,-0.0001,9e-05,-0.00094,-1e-05,-0.00027,6,14
52300,-0.0001,-3e-05,1e-05,-0.0001,9e-05,-0.00094,-1e-05,-0.00027,6,14
52301,-0.0001,-3e-05,1e-05,-0.0001,9e-05,-0.00094,-1e-05,-0.00027,6,14
52302,-0.0001,-3e-05,1e-05,-0.0001,9e-05,-0.00094,-1e-05,-0.00027,6,14
52303,-0.0001,-3e-05,1e-05,-0.0001,9e-05,-0.00094,-1e-05,-0.00027,6,14
52304,-0.0001,-3e-05,1e-05,-0.0001,9e-05,-0.00094,-1e-05,-0.00027,6,14
52305,-0.0001,-3e-05,1e-05,-0.0001,9e-05,-0.00094,-1e-05,-0.00027,6,14
52306,-0.0001,-3e-05,1e-05,-0.0001,9e-05,-0.00094,-1e-05,-0.00027,6,14
52307,-0.0001,-3e-05,1e-05,-0.0001,9e-05,-0.00094,-1e-05,-0.00027,6,14
52308,-0.0001,-3e-05,1e-05,-0.0001,9e-05,-0.00094,-1e-05,-0.00027,6,14
52309,-0.0001,-3e-05,1e-05,-0.0001,9e-05,-0.00094,-1e-05,-0.00027,6,14
52310,-0.0001,-3e-05,1e-05,-0.0001,9e-05,-0.00094,-1e-05,-0.00027,6,14
52311,-6e-05,-1e-05,-6e-05,-0.00012,-0.00018,-9e-05,-8e-05,-3e-05,6,14
52312,-6e-05,-1e-05,-6e-05,-0.00012,-0.00018,-9e-05,-8e-05,-3e-05,6,14
52313,-6e-05,-1e-05,-6e-05,-0.00012,-0.00018,-9e-05,-8e-05,-3e-05,6,14
52314,-6e-05,-1e-05,-6e-05,-0.00012,-0.00018,-9e-05,-8e-05,-3e-05,6,14
52315,-6e-05,-1e-05,-6e-05,-0.00012,-0.00018,-9e-05,-8e-05,-3e-05,6,14
52316,-6e-05,-1e-05,-6e-05,-0.00012,-0.00018,-9e-05,-8e-05,-3e-05,6,14
52317,-6e-05,-1e-05,-6e-05,-0.00012,-0.00018,-9e-05,-8e-05,-3e-05,6,14
52318,5e-05,0,-3e-05,-4e-05,-0.00013,0.00066,7e-05,-0.00019,6,14
52319,5e-05,0,-3e-05,-4e-05,-0.00013,0.00066,7e-05,-0.00019,6,14
52320,5e-05,0,-3e-05,-4e-05,-0.00013,0.00066,7e-05,-0.00019,6,14
52321,5e-05,0,-3e-05,-4e-05,-0.00013,0.00066,7e-05,-0.00019,6,14
52322,5e-05,0,-3e-05,-4e-05,-0.00013,0.00066,7e-05,-0.00019,6,14
52323,5e-05,0,-3e-05,-4e-05,-0.00013,0.00066,7e-05,-0.00019,6,14
52324,5e-05,0,-3e-05,-4e-05,-0.00013,0.00066,7e-05,-0.00019,6,14
52325,5e-05,0,-3e-05,-4e-05,-0.00013,0.00066,7e-05,-0.00019,6,14
52326,5e-05,0,-3e-05,-4e-05,-0.00013,0.00066,7e-05,-0.00019,6,14
52327,5e-05,0,-3e-05,-4e-05,-0.00013,0.00066,7e-05,-0.00019,6,14
52328,5e-05,0,-3e-05,-4e-05,-0.00013,0.00066,7e-05,-0.00019,6,14
52329,5e-05,0,-3e-05,-4e-05,-0.00013,0.00066,7e-05,-0.00019,6,14
52330,5e-05,0,-3e-05,-4e-05,-0.00013,0.00066,7e-05,-0.00019,6,14
52331,5e-05,0,-3e-05,-4e-05,-0.00013,0.00066,7e-05,-0.00019,6,14
52332,5e-05,0,-3e-05,-4e-05,-0.00013,0.00066,7e-05,-0.00019,6,14
52333,-5e-05,-5e-05,2e-05,0.0001,0.00014,3e-05,-6e-05,-6e-05,6,14
52334,-5e-05,-5e-05,2e-05,0.0001,0.00014,3e-05,-6e-05,-6e-05,6,14
52335,6e-05,2e-05,3e-05,0.00011,-0.0001,0.00037,0.00016,0.00035,6,14
52336,6e-05,2e-05,3e-05,0.00011,-0.0001,0.00037,0.00016,0.00035,6,14
52338,6e-05,2e-05,3e-05,0.00011,-0.0001,0.00037,0.00016,0.00035,6,14
52339,6e-05,2e-05,3e-05,0.00011,-0.0001,0.00037,0.00016,0.00035,6,14
52340,6e-05,2e-05,3e-05,0.00011,-0.0001,0.00037,0.00016,0.00035,6,14
52341,6e-05,2e-05,3e-05,0.00011,-0.0001,0.00037,0.00016,0.00035,6,14
52342,6e-05,2e-05,3e-05,0.00011,-0.0001,0.00037,0.00016,0.00035,6,14
52343,6e-05,2e-05,3e-05,0.00011,-0.0001,0.00037,0.00016,0.00035,6,14
52344,6e-05,2e-05,3e-05,0.00011,-0.0001,0.00037,0.00016,0.00035,6,14
52345,6e-05,2e-05,3e-05,0.00011,-0.0001,0.00037,0.00016,0.00035,6,14
52346,6e-05,2e-05,3e-05,0.00011,-0.0001,0.00037,0.00016,0.00035,6,14
52347,-7e-05,-2e-05,-4e-05,-0.00015,0.00012,-0.00058,-8e-05,-0.00055,6,14
52348,-6e-05,-5e-05,-7e-05,-3e-05,-9e-05,-0.00063,-0.00032,-0.00027,6,14
52349,-6e-05,-5e-05,-7e-05,-3e-05,-9e-05,-0.00063,-0.00032,-0.00027,6,14
52350,-6e-05,-5e-05,-7e-05,-3e-05,-9e-05,-0.00063,-0.00032,-0.00027,6,14
52351,-6e-05,-5e-05,-7e-05,-3e-05,-9e-05,-0.00063,-0.00032,-0.00027,6,14
52352,-6e-05,-5e-05,-7e-05,-3e-05,-9e-05,-0.00063,-0.00032,-0.00027,6,14
52353,-6e-05,-5e-05,-7e-05,-3e-05,-9e-05,-0.00063,-0.00032,-0.00027,6,14
52354,-4e-05,-1e-05,-3e-05,-0.00014,-3e-05,-0.00023,-0.00014,-0.00033,6,14
52355,-4e-05,-1e-05,-3e-05,-0.00014,-3e-05,-0.00023,-0.00014,-0.00033,6,14
52356,-4e-05,-1e-05,-3e-05,-0.00014,-3e-05,-0.00023,-0.00014,-0.00033,6,14
52357,-4e-05,-1e-05,-3e-05,-0.00014,-3e-05,-0.00023,-0.00014,-0.00033,6,14
52358,-4e-05,-1e-05,-3e-05,-0.00014,-3e-05,-0.00023,-0.00014,-0.00033,6,14
52359,-4e-05,-1e-05,-3e-05,-0.00014,-3e-05,-0.00023,-0.00014,-0.00033,6,14
52360,-4e-05,-1e-05,-3e-05,-0.00014,-3e-05,-0.00023,-0.00014,-0.00033,6,14
52361,-4e-05,-1e-05,-3e-05,-0.00014,-3e-05,-0.00023,-0.00014,-0.00033,6,14
52362,-4e-05,-1e-05,-3e-05,-0.00014,-3e-05,-0.00023,-0.00014,-0.00033,6,14
52363,-4e-05,-1e-05,-3e-05,-0.00014,-3e-05,-0.00023,-0.00014,-0.00033,6,14
52364,-4e-05,-1e-05,-3e-05,-0.00014,-3e-05,-0.00023,-0.00014,-0.00033,6,14
52365,-4e-05,-1e-05,-3e-05,-0.00014,-3e-05,-0.00023,-0.00014,-0.00033,6,14
52366,-4e-05,-1e-05,-3e-05,-0.00014,-3e-05,-0.00023,-0.00014,-0.00033,6,14
52367,-4e-05,-1e-05,-3e-05,-0.00014,-3e-05,-0.00023,-0.00014,-0.00033,6,14
52368,-4e-05,-1e-05,-3e-05,-0.00014,-3e-05,-0.00023,-0.00014,-0.00033,6,14
52369,-4e-05,-1e-05,-3e-05,-0.00014,-3e-05,-0.00023,-0.00014,-0.00033,6,14
52370,-4e-05,-1e-05,-3e-05,-0.00014,-3e-05,-0.00023,-0.00014,-0.00033,6,14
52371,9e-05,-2e-05,-1e-05,-0.00012,3e-05,0.00127,0.00044,0.00031,6,14
52372,1e-05,-1e-05,0,7e-05,0.00013,-0.00018,-8e-05,-3e-05,6,14
52373,1e-05,-1e-05,0,7e-05,0.00013,-0.00018,-8e-05,-3e-05,6,14
52374,1e-05,-1e-05,0,7e-05,0.00013,-0.00018,-8e-05,-3e-05,6,14
52375,1e-05,-1e-05,0,7e-05,0.00013,-0.00018,-8e-05,-3e-05,6,14
52376,1e-05,-1e-05,0,7e-05,0.00013,-0.00018,-8e-05,-3e-05,6,14
52377,1e-05,-1e-05,0,7e-05,0.00013,-0.00018,-8e-05,-3e-05,6,14
52378,1e-05,-1e-05,0,7e-05,0.00013,-0.00018,-8e-05,-3e-05,6,14
52379,1e-05,-1e-05,0,7e-05,0.00013,-0.00018,-8e-05,-3e-05,6,14
52380,1e-05,-1e-05,0,7e-05,0.00013,-0.00018,-8e-05,-3e-05,6,14
52381,1e-05,-1e-05,0,7e-05,0.00013,-0.00018,-8e-05,-3e-05,6,14
52382,1e-05,-1e-05,0,7e-05,0.00013,-0.00018,-8e-05,-3e-05,6,14
52383,1e-05,-1e-05,0,7e-05,0.00013,-0.00018,-8e-05,-3e-05,6,14
52384,1e-05,-1e-05,0,7e-05,0.00013,-0.00018,-8e-05,-3e-05,6,14
52385,1e-05,-1e-05,0,7e-05,0.00013,-0.00018,-8e-05,-3e-05,6,14
52386,1e-05,-1e-05,0,7e-05,0.00013,-0.00018,-8e-05,-3e-05,6,14
52388,1e-05,-1e-05,0,7e-05,0.00013,-0.00018,-8e-05,-3e-05,6,14
52389,1e-05,-1e-05,0,7e-05,0.00013,-0.00018,-8e-05,-3e-05,6,14
52390,1e-05,-1e-05,0,7e-05,0.00013,-0.00018,-8e-05,-3e-05,6,14
52391,1e-05,-1e-05,0,7e-05,0.00013,-0.00018,-8e-05,-3e-05,6,14
52392,1e-05,-1e-05,0,7e-05,0.00013,-0.00018,-8e-05,-3e-05,6,14
52393,5e-05,4e-05,1e-05,0.00022,0.00029,0.00102,0.00027,-0.00017,6,14
52394,5e-05,4e-05,1e-05,0.00022,0.00029,0.00102,0.00027,-0.00017,6,14
52395,0.00013,5e-05,3e-05,-5e-05,-0.00018,0.00023,-0.00018,0.00017,6,14
52396,0.00013,5e-05,3e-05,-5e-05,-0.00018,0.00023,-0.00018,0.00017,6,14
52397,0.00013,5e-05,3e-05,-5e-05,-0.00018,0.00023,-0.00018,0.00017,6,14
52398,0.00013,5e-05,3e-05,-5e-05,-0.00018,0.00023,-0.00018,0.00017,6,14
52399,0.00013,5e-05,3e-05,-5e-05,-0.00018,0.00023,-0.00018,0.00017,6,14
52400,0.00013,5e-05,3e-05,-5e-05,-0.00018,0.00023,-0.00018,0.00017,6,14
52401,0.00013,5e-05,3e-05,-5e-05,-0.00018,0.00023,-0.00018,0.00017,6,14
52402,0.00013,5e-05,3e-05,-5e-05,-0.00018,0.00023,-0.00018,0.00017,6,14
52403,0.00013,5e-05,3e-05,-5e-05,-0.00018,0.00023,-0.00018,0.00017,6,14
52404,0.00013,5e-05,3e-05,-5e-05,-0.00018,0.00023,-0.00018,0.00017,6,14
52405,0.00013,5e-05,3e-05,-5e-05,-0.00018,0.00023,-0.00018,0.00017,6,14
52406,0.00013,5e-05,3e-05,-5e-05,-0.00018,0.00023,-0.00018,0.00017,6,14
52407,0.0001,6e-05,4e-05,0.00012,0.00012,0.00037,0.0002,0.00011,6,14
52408,1e-05,1e-05,-2e-05,8e-05,7e-05,0.00025,0.0001,0.00055,6,14
52409,1e-05,1e-05,-2e-05,8e-05,7e-05,0.00025,0.0001,0.00055,6,14
52410,1e-05,1e-05,-2e-05,8e-05,7e-05,0.00025,0.0001,0.00055,6,14
52411,1e-05,1e-05,-2e-05,8e-05,7e-05,0.00025,0.0001,0.00055,6,14
52412,1e-05,1e-05,-2e-05,8e-05,7e-05,0.00025,0.0001,0.00055,6,14
52413,1e-05,1e-05,-2e-05,8e-05,7e-05,0.00025,0.0001,0.00055,6,14
52414,0,0,-3e-05,0,2e-05,0.0002,3e-05,0.00021,6,14
52415,0,0,-3e-05,0,2e-05,0.0002,3e-05,0.00021,6,14
52416,0,0,-3e-05,0,2e-05,0.0002,3e-05,0.00021,6,14
52417,0,0,-3e-05,0,2e-05,0.0002,3e-05,0.00021,6,14
52418,0,0,-3e-05,0,2e-05,0.0002,3e-05,0.00021,6,14
52419,0,0,-3e-05,0,2e-05,0.0002,3e-05,0.00021,6,14
52420,0,0,-3e-05,0,2e-05,0.0002,3e-05,0.00021,6,14
52421,0,0,-3e-05,0,2e-05,0.0002,3e-05,0.00021,6,14
52422,0,0,-3e-05,0,2e-05,0.0002,3e-05,0.00021,6,14
52423,0,0,-3e-05,0,2e-05,0.0002,3e-05,0.00021,6,14
52424,0,0,-3e-05,0,2e-05,0.0002,3e-05,0.00021,6,14
52425,0,0,-3e-05,0,2e-05,0.0002,3e-05,0.00021,6,14
52426,0,0,-3e-05,0,2e-05,0.0002,3e-05,0.00021,6,14
52427,0,0,-3e-05,0,2e-05,0.0002,3e-05,0.00021,6,14
52428,0,0,-3e-05,0,2e-05,0.0002,3e-05,0.00021,6,14
52429,0,0,-3e-05,0,2e-05,0.0002,3e-05,0.00021,6,14
52430,0,0,-3e-05,0,2e-05,0.0002,3e-05,0.00021,6,14
52431,-1e-05,-3e-05,1e-05,0.00012,0.0001,0.00016,5e-05,0.00016,6,14
52432,8e-05,4e-05,5e-05,-4e-05,-0.00017,-0.00027,-3e-05,-6e-05,6,14
52433,-0.0001,-6e-05,1e-05,5e-05,-0.00015,-8e-05,-1e-05,-0.00038,6,14
52434,-0.0001,-6e-05,1e-05,5e-05,-0.00015,-8e-05,-1e-05,-0.00038,6,14
52435,-0.0001,-6e-05,1e-05,5e-05,-0.00015,-8e-05,-1e-05,-0.00038,6,14
52436,-0.0001,-6e-05,1e-05,5e-05,-0.00015,-8e-05,-1e-05,-0.00038,6,14
52438,-0.0001,-6e-05,1e-05,5e-05,-0.00015,-8e-05,-1e-05,-0.00038,6,14
52439,-0.0001,-6e-05,1e-05,5e-05,-0.00015,-8e-05,-1e-05,-0.00038,6,14
52440,-0.0001,-6e-05,1e-05,5e-05,-0.00015,-8e-05,-1e-05,-0.00038,6,14
52441,-0.0001,-6e-05,1e-05,5e-05,-0.00015,-8e-05,-1e-05,-0.00038,6,14
52442,-0.0001,-6e-05,1e-05,5e-05,-0.00015,-8e-05,-1e-05,-0.00038,6,14
52443,-0.0001,-6e-05,1e-05,5e-05,-0.00015,-8e-05,-1e-05,-0.00038,6,14
52444,-0.0001,-6e-05,1e-05,5e-05,-0.00015,-8e-05,-1e-05,-0.00038,6,14
52445,-0.0001,-6e-05,1e-05,5e-05,-0.00015,-8e-05,-1e-05,-0.00038,6,14
52446,-0.0001,-6e-05,1e-05,5e-05,-0.00015,-8e-05,-1e-05,-0.00038,6,14
52447,-0.0001,-6e-05,1e-05,5e-05,-0.00015,-8e-05,-1e-05,-0.00038,6,14
52448,-0.0001,-6e-05,1e-05,5e-05,-0.00015,-8e-05,-1e-05,-0.00038,6,14
52449,-0.0001,-6e-05,1e-05,5e-05,-0.00015,-8e-05,-1e-05,-0.00038,6,14
52450,-0.0001,-6e-05,1e-05,5e-05,-0.00015,-8e-05,-1e-05,-0.00038,6,14
52451,-0.0001,-6e-05,1e-05,5e-05,-0.00015,-8e-05,-1e-05,-0.00038,6,14
52452,-0.0001,-6e-05,1e-05,5e-05,-0.00015,-8e-05,-1e-05,-0.00038,6,14
52453,-2e-05,-3e-05,-7e-05,4e-05,2e-05,3e-05,4e-05,0.00014,6,14
52454,2e-05,1e-05,7e-05,0.00013,0.0002,-0.00044,-0.00012,0.00067,6,14
52455,-6e-05,0,-4e-05,-4e-05,-4e-05,-0.00079,0.00023,-0.00046,6,14
52456,-6e-05,0,-4e-05,-4e-05,-4e-05,-0.00079,0.00023,-0.00046,6,14
52457,-6e-05,0,-4e-05,-4e-05,-4e-05,-0.00079,0.00023,-0.00046,6,14
52458,-6e-05,0,-4e-05,-4e-05,-4e-05,-0.00079,0.00023,-0.00046,6,14
52459,-6e-05,0,-4e-05,-4e-05,-4e-05,-0.00079,0.00023,-0.00046,6,14
52460,-6e-05,0,-4e-05,-4e-05,-4e-05,-0.00079,0.00023,-0.00046,6,14
52461,-6e-05,0,-4e-05,-4e-05,-4e-05,-0.00079,0.00023,-0.00046,6,14
52462,-6e-05,0,-4e-05,-4e-05,-4e-05,-0.00079,0.00023,-0.00046,6,14
52463,-6e-05,0,-4e-05,-4e-05,-4e-05,-0.00079,0.00023,-0.00046,6,14
52464,-6e-05,0,-4e-05,-4e-05,-4e-05,-0.00079,0.00023,-0.00046,6,14
52465,-6e-05,0,-4e-05,-4e-05,-4e-05,-0.00079,0.00023,-0.00046,6,14
52466,-6e-05,0,-4e-05,-4e-05,-4e-05,-0.00079,0.00023,-0.00046,6,14
52467,3e-05,0,8e-05,6e-05,-9e-05,-0.00056,-8e-05,0.00013,6,14
52468,-3e-05,1e-05,2e-05,-1e-05,-0.0001,-1e-05,-5e-05,-0.00078,6,14
52469,-3e-05,1e-05,2e-05,-1e-05,-0.0001,-1e-05,-5e-05,-0.00078,6,14
