26071,-4e-05,-3e-05,-7e-05,-0.00014,0.00018,0.00013,0,-2e-05,6,16
26072,-4e-05,-3e-05,-7e-05,-0.00014,0.00018,0.00013,0,-2e-05,6,16
26073,-4e-05,-3e-05,-7e-05,-0.00014,0.00018,0.00013,0,-2e-05,6,16
26074,-4e-05,-3e-05,-7e-05,-0.00014,0.00018,0.00013,0,-2e-05,6,16
26075,-4e-05,-3e-05,-7e-05,-0.00014,0.00018,0.00013,0,-2e-05,6,16
26076,-4e-05,-3e-05,-7e-05,-0.00014,0.00018,0.00013,0,-2e-05,6,16
26077,-4e-05,-3e-05,-7e-05,-0.00014,0.00018,0.00013,0,-2e-05,6,16
26078,-4e-05,-3e-05,-7e-05,-0.00014,0.00018,0.00013,0,-2e-05,6,16
26079,-4e-05,-3e-05,-7e-05,-0.00014,0.00018,0.00013,0,-2e-05,6,16
26080,-4e-05,-3e-05,-7e-05,-0.00014,0.00018,0.00013,0,-2e-05,6,16
26081,-4e-05,-3e-05,-7e-05,-0.00014,0.00018,0.00013,0,-2e-05,6,16
26082,-4e-05,-3e-05,-7e-05,-0.00014,0.00018,0.00013,0,-2e-05,6,16
26083,-4e-05,-3e-05,-7e-05,-0.00014,0.00018,0.00013,0,-2e-05,6,16
26084,-4e-05,-3e-05,-7e-05,-0.00014,0.00018,0.00013,0,-2e-05,6,16
26085,-4e-05,-3e-05,-7e-05,-0.00014,0.00018,0.00013,0,-2e-05,6,16
26086,-4e-05,-3e-05,-7e-05,-0.00014,0.00018,0.00013,0,-2e-05,6,16
26090,0.00011,4e-05,8e-05,0.00015,0.00021,-6e-05,6e-05,9e-05,6,16
26091,0.00011,4e-05,8e-05,0.00015,0.00021,-6e-05,6e-05,9e-05,6,16
26092,0.00011,4e-05,8e-05,0.00015,0.00021,-6e-05,6e-05,9e-05,6,16
26093,0.00011,4e-05,8e-05,0.00015,0.00021,-6e-05,6e-05,9e-05,6,16
26094,0.00011,4e-05,8e-05,0.00015,0.00021,-6e-05,6e-05,9e-05,6,16
26095,0.00011,4e-05,8e-05,0.00015,0.00021,-6e-05,6e-05,9e-05,6,16
26096,0.00011,4e-05,8e-05,0.00015,0.00021,-6e-05,6e-05,9e-05,6,16
26097,0.00011,4e-05,8e-05,0.00015,0.00021,-6e-05,6e-05,9e-05,6,16
26098,0.00011,4e-05,8e-05,0.00015,0.00021,-6e-05,6e-05,9e-05,6,16
26099,0.00011,4e-05,8e-05,0.00015,0.00021,-6e-05,6e-05,9e-05,6,16
26100,0.00011,4e-05,8e-05,0.00015,0.00021,-6e-05,6e-05,9e-05,6,16
26101,0.00011,4e-05,8e-05,0.00015,0.00021,-6e-05,6e-05,9e-05,6,16
26102,0.00011,4e-05,8e-05,0.00015,0.00021,-6e-05,6e-05,9e-05,6,16
26103,0.00011,4e-05,8e-05,0.00015,0.00021,-6e-05,6e-05,9e-05,6,16
26104,0.00011,4e-05,8e-05,0.00015,0.00021,-6e-05,6e-05,9e-05,6,16
26105,0.00011,4e-05,8e-05,0.00015,0.00021,-6e-05,6e-05,9e-05,6,16
26106,0.00011,4e-05,8e-05,0.00015,0.00021,-6e-05,6e-05,9e-05,6,16
26107,0.00011,4e-05,8e-05,0.00015,0.00021,-6e-05,6e-05,9e-05,6,16
26108,0.00011,4e-05,8e-05,0.00015,0.00021,-6e-05,6e-05,9e-05,6,16
26109,0.00011,4e-05,8e-05,0.00015,0.00021,-6e-05,6e-05,9e-05,6,16
26110,4e-05,-1e-05,1e-05,1e-05,-0.00014,-2e-05,-3e-05,-3e-05,6,16
26111,-8e-05,-6e-05,-6e-05,-4e-05,-0.00012,-5e-05,0.00026,-6e-05,6,16
26112,5e-05,2e-05,2e-05,8e-05,-0.00011,-6e-05,-2e-05,0.00019,6,16
26113,5e-05,2e-05,2e-05,8e-05,-0.00011,-6e-05,-2e-05,0.00019,6,16
26114,5e-05,2e-05,2e-05,8e-05,-0.00011,-6e-05,-2e-05,0.00019,6,16
26115,5e-05,2e-05,2e-05,8e-05,-0.00011,-6e-05,-2e-05,0.00019,6,16
26116,5e-05,2e-05,2e-05,8e-05,-0.00011,-6e-05,-2e-05,0.00019,6,16
26117,5e-05,2e-05,2e-05,8e-05,-0.00011,-6e-05,-2e-05,0.00019,6,16
26118,5e-05,2e-05,2e-05,8e-05,-0.00011,-6e-05,-2e-05,0.00019,6,16
26119,5e-05,2e-05,2e-05,8e-05,-0.00011,-6e-05,-2e-05,0.00019,6,16
26120,5e-05,2e-05,2e-05,8e-05,-0.00011,-6e-05,-2e-05,0.00019,6,16
26121,5e-05,2e-05,2e-05,8e-05,-0.00011,-6e-05,-2e-05,0.00019,6,16
26122,5e-05,2e-05,2e-05,8e-05,-0.00011,-6e-05,-2e-05,0.00019,6,16
26123,5e-05,2e-05,2e-05,8e-05,-0.00011,-6e-05,-2e-05,0.00019,6,16
26124,5e-05,2e-05,2e-05,8e-05,-0.00011,-6e-05,-2e-05,0.00019,6,16
26125,5e-05,2e-05,2e-05,8e-05,-0.00011,-6e-05,-2e-05,0.00019,6,16
26126,5e-05,2e-05,2e-05,8e-05,-0.00011,-6e-05,-2e-05,0.00019,6,16
26127,5e-05,2e-05,2e-05,8e-05,-0.00011,-6e-05,-2e-05,0.00019,6,16
26128,5e-05,2e-05,2e-05,8e-05,-0.00011,-6e-05,-2e-05,0.00019,6,16
26129,5e-05,2e-05,2e-05,8e-05,-0.00011,-6e-05,-2e-05,0.00019,6,16
26130,5e-05,2e-05,2e-05,8e-05,-0.00011,-6e-05,-2e-05,0.00019,6,16
26131,5e-05,2e-05,2e-05,8e-05,-0.00011,-6e-05,-2e-05,0.00019,6,16
26132,5e-05,2e-05,2e-05,8e-05,-0.00011,-6e-05,-2e-05,0.00019,6,16
26133,8e-05,8e-05,4e-05,5e-05,-2e-05,0.0004,0.00029,0.0002,6,16
26134,8e-05,8e-05,4e-05,5e-05,-2e-05,0.0004,0.00029,0.0002,6,16
26135,8e-05,8e-05,4e-05,5e-05,-2e-05,0.0004,0.00029,0.0002,6,16
26136,8e-05,8e-05,4e-05,5e-05,-2e-05,0.0004,0.00029,0.0002,6,16
26139,8e-05,8e-05,4e-05,5e-05,-2e-05,0.0004,0.00029,0.0002,6,16
26140,0.00013,6e-05,5e-05,-6e-05,-0.00013,-3e-05,-0.00011,0.00018,6,16
26141,0,-2e-05,-5e-05,-0.00021,-0.00013,3e-05,0.00017,8e-05,6,16
26142,0,-2e-05,-5e-05,-0.00021,-0.00013,3e-05,0.00017,8e-05,6,16
26143,0,-2e-05,-5e-05,-0.00021,-0.00013,3e-05,0.00017,8e-05,6,16
26144,0,-2e-05,-5e-05,-0.00021,-0.00013,3e-05,0.00017,8e-05,6,16
26145,0,-2e-05,-5e-05,-0.00021,-0.00013,3e-05,0.00017,8e-05,6,16
26146,0,-2e-05,-5e-05,-0.00021,-0.00013,3e-05,0.00017,8e-05,6,16
26147,0,-2e-05,-5e-05,-0.00021,-0.00013,3e-05,0.00017,8e-05,6,16
26148,0,-2e-05,-5e-05,-0.00021,-0.00013,3e-05,0.00017,8e-05,6,16
26149,0,-2e-05,-5e-05,-0.00021,-0.00013,3e-05,0.00017,8e-05,6,16
26150,0,-2e-05,-5e-05,-0.00021,-0.00013,3e-05,0.00017,8e-05,6,16
26151,0,-2e-05,-5e-05,-0.00021,-0.00013,3e-05,0.00017,8e-05,6,16
26152,0,-2e-05,-5e-05,-0.00021,-0.00013,3e-05,0.00017,8e-05,6,16
26153,-0.00012,-1e-05,0,0.00014,0.00016,1e-05,-3e-05,-1e-05,6,16
26154,3e-05,2e-05,2e-05,6e-05,-1e-05,4e-05,-4e-05,0.00017,6,16
26155,3e-05,2e-05,2e-05,6e-05,-1e-05,4e-05,-4e-05,0.00017,6,16
26156,3e-05,2e-05,2e-05,6e-05,-1e-05,4e-05,-4e-05,0.00017,6,16
26157,3e-05,2e-05,2e-05,6e-05,-1e-05,4e-05,-4e-05,0.00017,6,16
26158,3e-05,2e-05,2e-05,6e-05,-1e-05,4e-05,-4e-05,0.00017,6,16
26159,3e-05,2e-05,2e-05,6e-05,-1e-05,4e-05,-4e-05,0.00017,6,16
26160,3e-05,2e-05,2e-05,6e-05,-1e-05,4e-05,-4e-05,0.00017,6,16
26161,3e-05,2e-05,2e-05,6e-05,-1e-05,4e-05,-4e-05,0.00017,6,16
26162,-7e-05,-5e-05,-6e-05,-0.00016,-0.00015,2e-05,6e-05,-1e-05,6,16
26163,-7e-05,-5e-05,-6e-05,-0.00016,-0.00015,2e-05,6e-05,-1e-05,6,16
26164,-0.00011,-6e-05,-5e-05,0.00018,0.0004,0,-3e-05,-0.0002,6,16
26165,-0.00011,-6e-05,-5e-05,0.00018,0.0004,0,-3e-05,-0.0002,6,16
26166,-0.00011,-6e-05,-5e-05,0.00018,0.0004,0,-3e-05,-0.0002,6,16
26167,-0.00011,-6e-05,-5e-05,0.00018,0.0004,0,-3e-05,-0.0002,6,16
26168,-0.00011,-6e-05,-5e-05,0.00018,0.0004,0,-3e-05,-0.0002,6,16
26169,-0.00011,-6e-05,-5e-05,0.00018,0.0004,0,-3e-05,-0.0002,6,16
26170,-0.00011,-6e-05,-5e-05,0.00018,0.0004,0,-3e-05,-0.0002,6,16
26171,-0.00011,-6e-05,-5e-05,0.00018,0.0004,0,-3e-05,-0.0002,6,16
26172,-0.00011,-6e-05,-5e-05,0.00018,0.0004,0,-3e-05,-0.0002,6,16
26173,-0.00011,-6e-05,-5e-05,0.00018,0.0004,0,-3e-05,-0.0002,6,16
26174,-0.00011,-6e-05,-5e-05,0.00018,0.0004,0,-3e-05,-0.0002,6,16
26175,-0.00011,-6e-05,-5e-05,0.00018,0.0004,0,-3e-05,-0.0002,6,16
26176,-0.00011,-6e-05,-5e-05,0.00018,0.0004,0,-3e-05,-0.0002,6,16
26177,-0.00011,-6e-05,-5e-05,0.00018,0.0004,0,-3e-05,-0.0002,6,16
26178,-0.00011,-6e-05,-5e-05,0.00018,0.0004,0,-3e-05,-0.0002,6,16
26179,-0.00011,-6e-05,-5e-05,0.00018,0.0004,0,-3e-05,-0.0002,6,16
26180,-0.00011,-6e-05,-5e-05,0.00018,0.0004,0,-3e-05,-0.0002,6,16
26181,-0.00011,-6e-05,-5e-05,0.00018,0.0004,0,-3e-05,-0.0002,6,16
26182,-0.00011,-6e-05,-5e-05,0.00018,0.0004,0,-3e-05,-0.0002,6,16
26183,-0.00011,-6e-05,-5e-05,0.00018,0.0004,0,-3e-05,-0.0002,6,16
26184,1e-05,-1e-05,-5e-05,-0.00028,-0.00037,9e-05,-0.00012,-9e-05,6,16
26185,1e-05,-1e-05,-5e-05,-0.00028,-0.00037,9e-05,-0.00012,-9e-05,6,16
26186,1e-05,-1e-05,-5e-05,-0.00028,-0.00037,9e-05,-0.00012,-9e-05,6,16
26188,1e-05,4e-05,3e-05,-6e-05,5e-05,0.00027,0.00017,1e-05,6,16
26189,1e-05,4e-05,3e-05,-6e-05,5e-05,0.00027,0.00017,1e-05,6,16
26190,1e-05,4e-05,3e-05,-6e-05,5e-05,0.00027,0.00017,1e-05,6,16
26191,1e-05,4e-05,3e-05,-6e-05,5e-05,0.00027,0.00017,1e-05,6,16
26192,1e-05,4e-05,3e-05,-6e-05,5e-05,0.00027,0.00017,1e-05,6,16
26193,1e-05,4e-05,3e-05,-6e-05,5e-05,0.00027,0.00017,1e-05,6,16
26194,1e-05,4e-05,3e-05,-6e-05,5e-05,0.00027,0.00017,1e-05,6,16
26195,1e-05,4e-05,3e-05,-6e-05,5e-05,0.00027,0.00017,1e-05,6,16
26196,1e-05,4e-05,3e-05,-6e-05,5e-05,0.00027,0.00017,1e-05,6,16
26197,1e-05,4e-05,3e-05,-6e-05,5e-05,0.00027,0.00017,1e-05,6,16
26198,1e-05,4e-05,3e-05,-6e-05,5e-05,0.00027,0.00017,1e-05,6,16
26199,1e-05,4e-05,3e-05,-6e-05,5e-05,0.00027,0.00017,1e-05,6,16
26200,3e-05,-5e-05,-5e-05,-0.00013,-9e-05,-0.00017,-0.00013,1e-05,6,16
26201,3e-05,-5e-05,-5e-05,-0.00013,-9e-05,-0.00017,-0.00013,1e-05,6,16
26202,3e-05,-5e-05,-5e-05,-0.00013,-9e-05,-0.00017,-0.00013,1e-05,6,16
26203,3e-05,-5e-05,-5e-05,-0.00013,-9e-05,-0.00017,-0.00013,1e-05,6,16
26204,3e-05,-5e-05,-5e-05,-0.00013,-9e-05,-0.00017,-0.00013,1e-05,6,16
26205,3e-05,-5e-05,-5e-05,-0.00013,-9e-05,-0.00017,-0.00013,1e-05,6,16
26206,5e-05,0,-1e-05,7e-05,0.00019,3e-05,9e-05,-6e-05,6,16
26207,5e-05,0,-1e-05,7e-05,0.00019,3e-05,9e-05,-6e-05,6,16
26208,5e-05,0,-1e-05,7e-05,0.00019,3e-05,9e-05,-6e-05,6,16
26209,5e-05,0,-1e-05,7e-05,0.00019,3e-05,9e-05,-6e-05,6,16
26210,5e-05,0,-1e-05,7e-05,0.00019,3e-05,9e-05,-6e-05,6,16
26211,5e-05,0,-1e-05,7e-05,0.00019,3e-05,9e-05,-6e-05,6,16
26212,5e-05,0,-1e-05,7e-05,0.00019,3e-05,9e-05,-6e-05,6,16
26213,5e-05,0,-1e-05,7e-05,0.00019,3e-05,9e-05,-6e-05,6,16
26214,5e-05,0,-1e-05,7e-05,0.00019,3e-05,9e-05,-6e-05,6,16
26215,5e-05,0,-1e-05,7e-05,0.00019,3e-05,9e-05,-6e-05,6,16
26216,5e-05,0,-1e-05,7e-05,0.00019,3e-05,9e-05,-6e-05,6,16
26217,5e-05,0,-1e-05,7e-05,0.00019,3e-05,9e-05,-6e-05,6,16
26218,5e-05,0,-1e-05,7e-05,0.00019,3e-05,9e-05,-6e-05,6,16
26219,5e-05,0,-1e-05,7e-05,0.00019,3e-05,9e-05,-6e-05,6,16
26220,5e-05,0,-1e-05,7e-05,0.00019,3e-05,9e-05,-6e-05,6,16
26221,5e-05,0,-1e-05,7e-05,0.00019,3e-05,9e-05,-6e-05,6,16
26222,5e-05,0,-1e-05,7e-05,0.00019,3e-05,9e-05,-6e-05,6,16
26223,5e-05,0,-1e-05,7e-05,0.00019,3e-05,9e-05,-6e-05,6,16
26224,0.00014,-2e-05,-2e-05,3e-05,9e-05,-0.00014,0.00029,0.0002,6,16
26225,0.00014,-2e-05,-2e-05,3e-05,9e-05,-0.00014,0.00029,0.0002,6,16
26226,0.00014,-2e-05,-2e-05,3e-05,9e-05,-0.00014,0.00029,0.0002,6,16
26227,0.00014,-2e-05,-2e-05,3e-05,9e-05,-0.00014,0.00029,0.0002,6,16
26228,0.00014,-2e-05,-2e-05,3e-05,9e-05,-0.00014,0.00029,0.0002,6,16
26229,0.00014,-2e-05,-2e-05,3e-05,9e-05,-0.00014,0.00029,0.0002,6,16
26230,-5e-05,3e-05,1e-05,5e-05,-5e-05,-9e-05,-0.00032,-3e-05,6,16
26231,-5e-05,3e-05,1e-05,5e-05,-5e-05,-9e-05,-0.00032,-3e-05,6,16
26232,-5e-05,3e-05,1e-05,5e-05,-5e-05,-9e-05,-0.00032,-3e-05,6,16
26233,-5e-05,3e-05,1e-05,5e-05,-5e-05,-9e-05,-0.00032,-3e-05,6,16
26234,-5e-05,3e-05,1e-05,5e-05,-5e-05,-9e-05,-0.00032,-3e-05,6,16
26235,-5e-05,3e-05,1e-05,5e-05,-5e-05,-9e-05,-0.00032,-3e-05,6,16
26236,-5e-05,3e-05,1e-05,5e-05,-5e-05,-9e-05,-0.00032,-3e-05,6,16
26238,-5e-05,3e-05,1e-05,5e-05,-5e-05,-9e-05,-0.00032,-3e-05,6,16
26240,-5e-05,3e-05,1e-05,5e-05,-5e-05,-9e-05,-0.00032,-3e-05,6,16
26241,-5e-05,3e-05,1e-05,5e-05,-5e-05,-9e-05,-0.00032,-3e-05,6,16
26242,-5e-05,3e-05,1e-05,5e-05,-5e-05,-9e-05,-0.00032,-3e-05,6,16
26243,-5e-05,3e-05,1e-05,5e-05,-5e-05,-9e-05,-0.00032,-3e-05,6,16
26244,-5e-05,3e-05,1e-05,5e-05,-5e-05,-9e-05,-0.00032,-3e-05,6,16
26245,-2e-05,-4e-05,0,0.0002,-0.00013,-0.00051,-0.00019,-0.00015,6,16
26246,6e-05,0.0001,9e-05,0.00014,0.00063,0.00059,0.0003,0.00019,6,16
26247,-6e-05,-3e-05,3e-05,9e-05,0.0002,0.00015,3e-05,-0.00018,6,16
26248,-6e-05,-3e-05,3e-05,9e-05,0.0002,0.00015,3e-05,-0.00018,6,16
26249,-6e-05,-3e-05,3e-05,9e-05,0.0002,0.00015,3e-05,-0.00018,6,16
26250,-6e-05,-3e-05,3e-05,9e-05,0.0002,0.00015,3e-05,-0.00018,6,16
26251,-6e-05,-3e-05,3e-05,9e-05,0.0002,0.00015,3e-05,-0.00018,6,16
26252,-6e-05,-3e-05,3e-05,9e-05,0.0002,0.00015,3e-05,-0.00018,6,16
26253,-6e-05,-3e-05,3e-05,9e-05,0.0002,0.00015,3e-05,-0.00018,6,16
26254,-6e-05,-3e-05,3e-05,9e-05,0.0002,0.00015,3e-05,-0.00018,6,16
26255,-6e-05,-3e-05,3e-05,9e-05,0.0002,0.00015,3e-05,-0.00018,6,16
26256,-6e-05,-3e-05,3e-05,9e-05,0.0002,0.00015,3e-05,-0.00018,6,16
26257,-6e-05,-3e-05,3e-05,9e-05,0.0002,0.00015,3e-05,-0.00018,6,16
26258,-6e-05,-3e-05,3e-05,9e-05,0.0002,0.00015,3e-05,-0.00018,6,16
26259,-6e-05,-3e-05,3e-05,9e-05,0.0002,0.00015,3e-05,-0.00018,6,16
26260,-6e-05,-3e-05,3e-05,9e-05,0.0002,0.00015,3e-05,-0.00018,6,16
26261,-6e-05,-3e-05,3e-05,9e-05,0.0002,0.00015,3e-05,-0.00018,6,16
26262,-6e-05,-3e-05,3e-05,9e-05,0.0002,0.00015,3e-05,-0.00018,6,16
26263,-6e-05,-3e-05,3e-05,9e-05,0.0002,0.00015,3e-05,-0.00018,6,16
26264,-6e-05,-3e-05,3e-05,9e-05,0.0002,0.00015,3e-05,-0.00018,6,16
26265,-6e-05,-3e-05,3e-05,9e-05,0.0002,0.00015,3e-05,-0.00018,6,16
26266,-6e-05,-3e-05,3e-05,9e-05,0.0002,0.00015,3e-05,-0.00018,6,16
26267,-6e-05,-3e-05,3e-05,9e-05,0.0002,0.00015,3e-05,-0.00018,6,16
26268,-6e-05,-3e-05,3e-05,9e-05,0.0002,0.00015,3e-05,-0.00018,6,16
26269,-6e-05,-3e-05,3e-05,9e-05,0.0002,0.00015,3e-05,-0.00018,6,16
26270,-6e-05,-3e-05,3e-05,9e-05,0.0002,0.00015,3e-05,-0.00018,6,16
26271,-6e-05,-3e-05,3e-05,9e-05,0.0002,0.00015,3e-05,-0.00018,6,16
26272,-6e-05,-3e-05,3e-05,9e-05,0.0002,0.00015,3e-05,-0.00018,6,16
26273,-6e-05,-3e-05,3e-05,9e-05,0.0002,0.00015,3e-05,-0.00018,6,16
26274,-6e-05,-3e-05,3e-05,9e-05,0.0002,0.00015,3e-05,-0.00018,6,16
26275,-6e-05,-3e-05,3e-05,9e-05,0.0002,0.00015,3e-05,-0.00018,6,16
26276,-3e-05,3e-05,3e-05,3e-05,0.00031,9e-05,-0.00011,-2e-05,6,16
26277,-7e-05,-2e-05,-3e-05,-8e-05,-0.00026,-0.00023,-0.0001,-5e-05,6,16
26278,-7e-05,-2e-05,-3e-05,-8e-05,-0.00026,-0.00023,-0.0001,-5e-05,6,16
26279,-7e-05,-2e-05,-3e-05,-8e-05,-0.00026,-0.00023,-0.0001,-5e-05,6,16
26280,-7e-05,-2e-05,-3e-05,-8e-05,-0.00026,-0.00023,-0.0001,-5e-05,6,16
26281,-7e-05,-2e-05,-3e-05,-8e-05,-0.00026,-0.00023,-0.0001,-5e-05,6,16
26282,-3e-05,1e-05,4e-05,0.00014,0.0006,0.00027,-0.00035,-4e-05,6,16
26283,-3e-05,1e-05,4e-05,0.00014,0.0006,0.00027,-0.00035,-4e-05,6,16
26284,-3e-05,-1e-05,-2e-05,0.00012,0.00041,0.00043,6e-05,-3e-05,6,16
26285,-3e-05,-1e-05,-2e-05,0.00012,0.00041,0.00043,6e-05,-3e-05,6,16
26286,-3e-05,-1e-05,-2e-05,0.00012,0.00041,0.00043,6e-05,-3e-05,6,16
26289,-3e-05,-1e-05,-2e-05,0.00012,0.00041,0.00043,6e-05,-3e-05,6,16
26290,-3e-05,-1e-05,-2e-05,0.00012,0.00041,0.00043,6e-05,-3e-05,6,16
26291,-3e-05,-1e-05,-2e-05,0.00012,0.00041,0.00043,6e-05,-3e-05,6,16
26292,-3e-05,-1e-05,-2e-05,0.00012,0.00041,0.00043,6e-05,-3e-05,6,16
26293,-3e-05,-1e-05,-2e-05,0.00012,0.00041,0.00043,6e-05,-3e-05,6,16
26294,-3e-05,-1e-05,-2e-05,0.00012,0.00041,0.00043,6e-05,-3e-05,6,16
26295,-3e-05,-1e-05,-2e-05,0.00012,0.00041,0.00043,6e-05,-3e-05,6,16
26296,-3e-05,-1e-05,-2e-05,0.00012,0.00041,0.00043,6e-05,-3e-05,6,16
26297,-3e-05,-1e-05,-2e-05,0.00012,0.00041,0.00043,6e-05,-3e-05,6,16
26298,-3e-05,-1e-05,-2e-05,0.00012,0.00041,0.00043,6e-05,-3e-05,6,16
26299,-3e-05,-1e-05,-2e-05,0.00012,0.00041,0.00043,6e-05,-3e-05,6,16
26300,-3e-05,-1e-05,-2e-05,0.00012,0.00041,0.00043,6e-05,-3e-05,6,16
26301,-3e-05,-1e-05,-2e-05,0.00012,0.00041,0.00043,6e-05,-3e-05,6,16
26302,-3e-05,-1e-05,-2e-05,0.00012,0.00041,0.00043,6e-05,-3e-05,6,16
26303,-3e-05,-1e-05,-2e-05,0.00012,0.00041,0.00043,6e-05,-3e-05,6,16
26304,-3e-05,-1e-05,-2e-05,0.00012,0.00041,0.00043,6e-05,-3e-05,6,16
26305,-1e-05,3e-05,-3e-05,-0.00013,-0.00023,0.0001,-0.00018,-0.0003,6,16
26306,-1e-05,3e-05,-3e-05,-0.00013,-0.00023,0.0001,-0.00018,-0.0003,6,16
26307,4e-05,0,5e-05,9e-05,-9e-05,-0.00025,-0.00012,0.00017,6,16
26308,4e-05,0,5e-05,9e-05,-9e-05,-0.00025,-0.00012,0.00017,6,16
26309,4e-05,0,5e-05,9e-05,-9e-05,-0.00025,-0.00012,0.00017,6,16
26310,4e-05,0,5e-05,9e-05,-9e-05,-0.00025,-0.00012,0.00017,6,16
26311,4e-05,0,5e-05,9e-05,-9e-05,-0.00025,-0.00012,0.00017,6,16
26312,4e-05,0,5e-05,9e-05,-9e-05,-0.00025,-0.00012,0.00017,6,16
26313,4e-05,0,5e-05,9e-05,-9e-05,-0.00025,-0.00012,0.00017,6,16
26314,4e-05,0,5e-05,9e-05,-9e-05,-0.00025,-0.00012,0.00017,6,16
26315,4e-05,0,5e-05,9e-05,-9e-05,-0.00025,-0.00012,0.00017,6,16
26316,4e-05,0,5e-05,9e-05,-9e-05,-0.00025,-0.00012,0.00017,6,16
26317,4e-05,0,5e-05,9e-05,-9e-05,-0.00025,-0.00012,0.00017,6,16
26318,4e-05,3e-05,2e-05,8e-05,0.00035,0.00021,-8e-05,-1e-05,6,16
26319,-6e-05,-7e-05,-6e-05,-3e-05,9e-05,-3e-05,1e-05,0,6,16
26320,-6e-05,-7e-05,-6e-05,-3e-05,9e-05,-3e-05,1e-05,0,6,16
26321,-6e-05,-7e-05,-6e-05,-3e-05,9e-05,-3e-05,1e-05,0,6,16
26322,-6e-05,-7e-05,-6e-05,-3e-05,9e-05,-3e-05,1e-05,0,6,16
26323,-6e-05,-7e-05,-6e-05,-3e-05,9e-05,-3e-05,1e-05,0,6,16
26324,-6e-05,-7e-05,-6e-05,-3e-05,9e-05,-3e-05,1e-05,0,6,16
26325,-6e-05,-7e-05,-6e-05,-3e-05,9e-05,-3e-05,1e-05,0,6,16
26326,-6e-05,-7e-05,-6e-05,-3e-05,9e-05,-3e-05,1e-05,0,6,16
26327,-6e-05,-7e-05,-6e-05,-3e-05,9e-05,-3e-05,1e-05,0,6,16
26328,5e-05,-5e-05,-8e-05,-0.0002,-0.00024,-0.00017,-6e-05,-0.00026,6,16
26329,5e-05,-5e-05,-8e-05,-0.0002,-0.00024,-0.00017,-6e-05,-0.00026,6,16
26330,5e-05,-5e-05,-8e-05,-0.0002,-0.00024,-0.00017,-6e-05,-0.00026,6,16
26331,5e-05,-5e-05,-8e-05,-0.0002,-0.00024,-0.00017,-6e-05,-0.00026,6,16
26332,5e-05,-5e-05,-8e-05,-0.0002,-0.00024,-0.00017,-6e-05,-0.00026,6,16
26333,5e-05,-5e-05,-8e-05,-0.0002,-0.00024,-0.00017,-6e-05,-0.00026,6,16
26334,5e-05,-5e-05,-8e-05,-0.0002,-0.00024,-0.00017,-6e-05,-0.00026,6,16
26335,5e-05,-5e-05,-8e-05,-0.0002,-0.00024,-0.00017,-6e-05,-0.00026,6,16
26336,5e-05,-5e-05,-8e-05,-0.0002,-0.00024,-0.00017,-6e-05,-0.00026,6,16
26338,5e-05,-5e-05,-8e-05,-0.0002,-0.00024,-0.00017,-6e-05,-0.00026,6,16
26339,5e-05,-5e-05,-8e-05,-0.0002,-0.00024,-0.00017,-6e-05,-0.00026,6,16
26340,5e-05,-5e-05,-8e-05,-0.0002,-0.00024,-0.00017,-6e-05,-0.00026,6,16
26341,5e-05,-5e-05,-8e-05,-0.0002,-0.00024,-0.00017,-6e-05,-0.00026,6,16
26342,-3e-05,4e-05,7e-05,0.00012,0.00044,-9e-05,5e-05,4e-05,6,16
26343,-3e-05,4e-05,7e-05,0.00012,0.00044,-9e-05,5e-05,4e-05,6,16
26344,-3e-05,-5e-05,-7e-05,-0.00011,-9e-05,-6e-05,1e-05,-4e-05,6,16
26345,-3e-05,-5e-05,-7e-05,-0.00011,-9e-05,-6e-05,1e-05,-4e-05,6,16
26346,-3e-05,-5e-05,-7e-05,-0.00011,-9e-05,-6e-05,1e-05,-4e-05,6,16
26347,-3e-05,-5e-05,-7e-05,-0.00011,-9e-05,-6e-05,1e-05,-4e-05,6,16
26348,-3e-05,-5e-05,-7e-05,-0.00011,-9e-05,-6e-05,1e-05,-4e-05,6,16
26349,-3e-05,-5e-05,-7e-05,-0.00011,-9e-05,-6e-05,1e-05,-4e-05,6,16
26350,-3e-05,-5e-05,-7e-05,-0.00011,-9e-05,-6e-05,1e-05,-4e-05,6,16
26351,-3e-05,-5e-05,-7e-05,-0.00011,-9e-05,-6e-05,1e-05,-4e-05,6,16
26352,-3e-05,-5e-05,-7e-05,-0.00011,-9e-05,-6e-05,1e-05,-4e-05,6,16
26353,-3e-05,-5e-05,-7e-05,-0.00011,-9e-05,-6e-05,1e-05,-4e-05,6,16
26354,-3e-05,-5e-05,-7e-05,-0.00011,-9e-05,-6e-05,1e-05,-4e-05,6,16
26355,-3e-05,-5e-05,-7e-05,-0.00011,-9e-05,-6e-05,1e-05,-4e-05,6,16
26356,-3e-05,-5e-05,-7e-05,-0.00011,-9e-05,-6e-05,1e-05,-4e-05,6,16
26357,-3e-05,-5e-05,-7e-05,-0.00011,-9e-05,-6e-05,1e-05,-4e-05,6,16
26358,-3e-05,-5e-05,-7e-05,-0.00011,-9e-05,-6e-05,1e-05,-4e-05,6,16
26359,-3e-05,-5e-05,-7e-05,-0.00011,-9e-05,-6e-05,1e-05,-4e-05,6,16
26360,-3e-05,-5e-05,-7e-05,-0.00011,-9e-05,-6e-05,1e-05,-4e-05,6,16
26361,-3e-05,-5e-05,-7e-05,-0.00011,-9e-05,-6e-05,1e-05,-4e-05,6,16
26362,-3e-05,-5e-05,-7e-05,-0.00011,-9e-05,-6e-05,1e-05,-4e-05,6,16
26363,-3e-05,-5e-05,-7e-05,-0.00011,-9e-05,-6e-05,1e-05,-4e-05,6,16
26364,-3e-05,-5e-05,-7e-05,-0.00011,-9e-05,-6e-05,1e-05,-4e-05,6,16
26365,-3e-05,-5e-05,-7e-05,-0.00011,-9e-05,-6e-05,1e-05,-4e-05,6,16
26366,-3e-05,-5e-05,-7e-05,-0.00011,-9e-05,-6e-05,1e-05,-4e-05,6,16
26367,-3e-05,-5e-05,-7e-05,-0.00011,-9e-05,-6e-05,1e-05,-4e-05,6,16
26368,-3e-05,-5e-05,-7e-05,-0.00011,-9e-05,-6e-05,1e-05,-4e-05,6,16
26369,-3e-05,-5e-05,-7e-05,-0.00011,-9e-05,-6e-05,1e-05,-4e-05,6,16
26370,-3e-05,-5e-05,-7e-05,-0.00011,-9e-05,-6e-05,1e-05,-4e-05,6,16
26371,-3e-05,-5e-05,-7e-05,-0.00011,-9e-05,-6e-05,1e-05,-4e-05,6,16
26372,-3e-05,-5e-05,-7e-05,-0.00011,-9e-05,-6e-05,1e-05,-4e-05,6,16
26373,3e-05,1e-05,1e-05,0.00014,0.0003,-9e-05,-2e-05,-3e-05,6,16
26374,-4e-05,-4e-05,0,-0.00016,-0.00011,0.00029,0.00014,2e-05,6,16
26375,-4e-05,-4e-05,0,-0.00016,-0.00011,0.00029,0.00014,2e-05,6,16
26376,-4e-05,-4e-05,0,-0.00016,-0.00011,0.00029,0.00014,2e-05,6,16
26377,-4e-05,-4e-05,0,-0.00016,-0.00011,0.00029,0.00014,2e-05,6,16
26378,-4e-05,-4e-05,0,-0.00016,-0.00011,0.00029,0.00014,2e-05,6,16
26379,-4e-05,-4e-05,0,-0.00016,-0.00011,0.00029,0.00014,2e-05,6,16
26380,-4e-05,-4e-05,0,-0.00016,-0.00011,0.00029,0.00014,2e-05,6,16
26381,-4e-05,-4e-05,0,-0.00016,-0.00011,0.00029,0.00014,2e-05,6,16
26382,-4e-05,-4e-05,0,-0.00016,-0.00011,0.00029,0.00014,2e-05,6,16
26383,-4e-05,-4e-05,0,-0.00016,-0.00011,0.00029,0.00014,2e-05,6,16
26384,-4e-05,-4e-05,0,-0.00016,-0.00011,0.00029,0.00014,2e-05,6,16
26385,-4e-05,-4e-05,0,-0.00016,-0.00011,0.00029,0.00014,2e-05,6,16
26386,-4e-05,-4e-05,0,-0.00016,-0.00011,0.00029,0.00014,2e-05,6,16
26390,-1e-05,1e-05,1e-05,2e-05,-0.00024,-0.00039,4e-05,-8e-05,6,16
26391,-1e-05,1e-05,1e-05,2e-05,-0.00024,-0.00039,4e-05,-8e-05,6,16
26392,-1e-05,1e-05,1e-05,2e-05,-0.00024,-0.00039,4e-05,-8e-05,6,16
26393,-1e-05,1e-05,1e-05,2e-05,-0.00024,-0.00039,4e-05,-8e-05,6,16
26394,-1e-05,1e-05,1e-05,2e-05,-0.00024,-0.00039,4e-05,-8e-05,6,16
26395,-1e-05,1e-05,1e-05,2e-05,-0.00024,-0.00039,4e-05,-8e-05,6,16
26396,-1e-05,1e-05,1e-05,2e-05,-0.00024,-0.00039,4e-05,-8e-05,6,16
26397,-1e-05,1e-05,1e-05,2e-05,-0.00024,-0.00039,4e-05,-8e-05,6,16
26398,-1e-05,1e-05,1e-05,2e-05,-0.00024,-0.00039,4e-05,-8e-05,6,16
26399,-1e-05,1e-05,1e-05,2e-05,-0.00024,-0.00039,4e-05,-8e-05,6,16
26400,-1e-05,1e-05,1e-05,2e-05,-0.00024,-0.00039,4e-05,-8e-05,6,16
26401,-1e-05,1e-05,1e-05,2e-05,-0.00024,-0.00039,4e-05,-8e-05,6,16
26402,-1e-05,1e-05,1e-05,2e-05,-0.00024,-0.00039,4e-05,-8e-05,6,16
26403,-1e-05,1e-05,1e-05,2e-05,-0.00024,-0.00039,4e-05,-8e-05,6,16
26404,-1e-05,1e-05,1e-05,2e-05,-0.00024,-0.00039,4e-05,-8e-05,6,16
26405,-1e-05,1e-05,1e-05,2e-05,-0.00024,-0.00039,4e-05,-8e-05,6,16
26406,-1e-05,1e-05,1e-05,2e-05,-0.00024,-0.00039,4e-05,-8e-05,6,16
26407,-1e-05,1e-05,1e-05,2e-05,-0.00024,-0.00039,4e-05,-8e-05,6,16
26408,-1e-05,1e-05,1e-05,2e-05,-0.00024,-0.00039,4e-05,-8e-05,6,16
26409,-1e-05,1e-05,1e-05,2e-05,-0.00024,-0.00039,4e-05,-8e-05,6,16
26410,-1e-05,1e-05,1e-05,2e-05,-0.00024,-0.00039,4e-05,-8e-05,6,16
26411,-1e-05,1e-05,1e-05,2e-05,-0.00024,-0.00039,4e-05,-8e-05,6,16
26412,-1e-05,1e-05,1e-05,2e-05,-0.00024,-0.00039,4e-05,-8e-05,6,16
26413,-1e-05,1e-05,1e-05,2e-05,-0.00024,-0.00039,4e-05,-8e-05,6,16
26414,-1e-05,1e-05,1e-05,2e-05,-0.00024,-0.00039,4e-05,-8e-05,6,16
26415,-1e-05,1e-05,1e-05,2e-05,-0.00024,-0.00039,4e-05,-8e-05,6,16
26416,-1e-05,1e-05,1e-05,2e-05,-0.00024,-0.00039,4e-05,-8e-05,6,16
26417,-0.00012,-7e-05,-6e-05,-0.00011,-0.00031,0.00025,0.00033,-9e-05,6,16
26419,1e-05,-2e-05,-7e-05,-0.00019,-0.00063,-0.0005,-0.0001,-4e-05,6,16
26420,1e-05,-2e-05,-7e-05,-0.00019,-0.00063,-0.0005,-0.0001,-4e-05,6,16
26421,1e-05,-2e-05,-7e-05,-0.00019,-0.00063,-0.0005,-0.0001,-4e-05,6,16
26422,1e-05,-2e-05,-7e-05,-0.00019,-0.00063,-0.0005,-0.0001,-4e-05,6,16
26423,1e-05,-2e-05,-7e-05,-0.00019,-0.00063,-0.0005,-0.0001,-4e-05,6,16
26424,1e-05,-2e-05,-7e-05,-0.00019,-0.00063,-0.0005,-0.0001,-4e-05,6,16
26425,1e-05,-2e-05,-7e-05,-0.00019,-0.00063,-0.0005,-0.0001,-4e-05,6,16
26426,1e-05,-2e-05,-7e-05,-0.00019,-0.00063,-0.0005,-0.0001,-4e-05,6,16
26427,1e-05,-2e-05,-7e-05,-0.00019,-0.00063,-0.0005,-0.0001,-4e-05,6,16
26428,1e-05,-2e-05,-7e-05,-0.00019,-0.00063,-0.0005,-0.0001,-4e-05,6,16
26429,1e-05,-2e-05,-7e-05,-0.00019,-0.00063,-0.0005,-0.0001,-4e-05,6,16
26430,1e-05,-2e-05,-7e-05,-0.00019,-0.00063,-0.0005,-0.0001,-4e-05,6,16
26431,1e-05,-2e-05,-7e-05,-0.00019,-0.00063,-0.0005,-0.0001,-4e-05,6,16
26432,3e-05,0,-2e-05,0,0.00019,0.00043,0.00013,7e-05,6,16
26433,3e-05,0,-2e-05,0,0.00019,0.00043,0.00013,7e-05,6,16
26434,-9e-05,-4e-05,1e-05,0.0001,0.00044,0.00028,0,-0.00014,6,16
26435,-9e-05,-4e-05,1e-05,0.0001,0.00044,0.00028,0,-0.00014,6,16
26436,-9e-05,-4e-05,1e-05,0.0001,0.00044,0.00028,0,-0.00014,6,16
26438,-9e-05,-4e-05,1e-05,0.0001,0.00044,0.00028,0,-0.00014,6,16
26439,-1e-05,1e-05,-1e-05,-2e-05,-8e-05,-0.00031,-0.00028,1e-05,6,16
26440,-1e-05,1e-05,-1e-05,-2e-05,-8e-05,-0.00031,-0.00028,1e-05,6,16
26441,-1e-05,1e-05,-1e-05,-2e-05,-8e-05,-0.00031,-0.00028,1e-05,6,16
26442,-1e-05,1e-05,-1e-05,-2e-05,-8e-05,-0.00031,-0.00028,1e-05,6,16
26443,-1e-05,1e-05,-1e-05,-2e-05,-8e-05,-0.00031,-0.00028,1e-05,6,16
26444,-1e-05,1e-05,-1e-05,-2e-05,-8e-05,-0.00031,-0.00028,1e-05,6,16
26445,-1e-05,1e-05,-1e-05,-2e-05,-8e-05,-0.00031,-0.00028,1e-05,6,16
26446,-1e-05,1e-05,-1e-05,-2e-05,-8e-05,-0.00031,-0.00028,1e-05,6,16
26447,-1e-05,1e-05,-1e-05,-2e-05,-8e-05,-0.00031,-0.00028,1e-05,6,16
26448,-1e-05,1e-05,-1e-05,-2e-05,-8e-05,-0.00031,-0.00028,1e-05,6,16
26449,-1e-05,1e-05,-1e-05,-2e-05,-8e-05,-0.00031,-0.00028,1e-05,6,16
26450,-1e-05,1e-05,-1e-05,-2e-05,-8e-05,-0.00031,-0.00028,1e-05,6,16
26451,-1e-05,1e-05,-1e-05,-2e-05,-8e-05,-0.00031,-0.00028,1e-05,6,16
26452,-1e-05,1e-05,-1e-05,-2e-05,-8e-05,-0.00031,-0.00028,1e-05,6,16
26453,-1e-05,1e-05,-1e-05,-2e-05,-8e-05,-0.00031,-0.00028,1e-05,6,16
26454,-1e-05,1e-05,-1e-05,-2e-05,-8e-05,-0.00031,-0.00028,1e-05,6,16
26455,-1e-05,1e-05,-1e-05,-2e-05,-8e-05,-0.00031,-0.00028,1e-05,6,16
26456,-1e-05,1e-05,-1e-05,-2e-05,-8e-05,-0.00031,-0.00028,1e-05,6,16
26457,-1e-05,1e-05,-1e-05,-2e-05,-8e-05,-0.00031,-0.00028,1e-05,6,16
26458,-1e-05,1e-05,-1e-05,-2e-05,-8e-05,-0.00031,-0.00028,1e-05,6,16
26459,-1e-05,1e-05,-1e-05,-2e-05,-8e-05,-0.00031,-0.00028,1e-05,6,16
26460,-1e-05,1e-05,-1e-05,-2e-05,-8e-05,-0.00031,-0.00028,1e-05,6,16
26461,-1e-05,1e-05,-1e-05,-2e-05,-8e-05,-0.00031,-0.00028,1e-05,6,16
26462,-1e-05,1e-05,-1e-05,-2e-05,-8e-05,-0.00031,-0.00028,1e-05,6,16
26463,-1e-05,1e-05,-1e-05,-2e-05,-8e-05,-0.00031,-0.00028,1e-05,6,16
26464,-8e-05,-1e-05,-3e-05,7e-05,-8e-05,0.00012,-6e-05,-9e-05,6,16
26465,0,4e-05,6e-05,0,0.00019,0.00018,-0.00016,3e-05,6,16
26466,0,4e-05,6e-05,0,0.00019,0.00018,-0.00016,3e-05,6,16
26467,0,4e-05,6e-05,0,0.00019,0.00018,-0.00016,3e-05,6,16
26468,0,4e-05,6e-05,0,0.00019,0.00018,-0.00016,3e-05,6,16
26469,0,4e-05,6e-05,0,0.00019,0.00018,-0.00016,3e-05,6,16
26470,0,4e-05,6e-05,0,0.00019,0.00018,-0.00016,3e-05,6,16
26471,0,4e-05,6e-05,0,0.00019,0.00018,-0.00016,3e-05,6,16
26472,0,4e-05,6e-05,0,0.00019,0.00018,-0.00016,3e-05,6,16
26473,0,4e-05,6e-05,0,0.00019,0.00018,-0.00016,3e-05,6,16
26474,0,4e-05,6e-05,0,0.00019,0.00018,-0.00016,3e-05,6,16
26475,0,4e-05,6e-05,0,0.00019,0.00018,-0.00016,3e-05,6,16
26476,-4e-05,-9e-05,-0.00014,-0.00019,-0.00043,-0.0003,-0.00022,-8e-05,6,16
26477,-4e-05,-9e-05,-0.00014,-0.00019,-0.00043,-0.0003,-0.00022,-8e-05,6,16
26478,-4e-05,-9e-05,-0.00014,-0.00019,-0.00043,-0.0003,-0.00022,-8e-05,6,16
26479,-4e-05,-9e-05,-0.00014,-0.00019,-0.00043,-0.0003,-0.00022,-8e-05,6,16
26480,-4e-05,-9e-05,-0.00014,-0.00019,-0.00043,-0.0003,-0.00022,-8e-05,6,16
26481,-4e-05,-9e-05,-0.00014,-0.00019,-0.00043,-0.0003,-0.00022,-8e-05,6,16
26482,-4e-05,-9e-05,-0.00014,-0.00019,-0.00043,-0.0003,-0.00022,-8e-05,6,16
26483,-4e-05,-9e-05,-0.00014,-0.00019,-0.00043,-0.0003,-0.00022,-8e-05,6,16
26484,-4e-05,-9e-05,-0.00014,-0.00019,-0.00043,-0.0003,-0.00022,-8e-05,6,16
26485,2e-05,-2e-05,-1e-05,-2e-05,-0.00014,-0.0002,0.00019,5e-05,6,16
26486,2e-05,-2e-05,-1e-05,-2e-05,-0.00014,-0.0002,0.00019,5e-05,6,16
26488,0,2e-05,6e-05,-0.00011,-0.00035,-0.00028,-0.00012,0.00015,6,16
26489,0,2e-05,6e-05,-0.00011,-0.00035,-0.00028,-0.00012,0.00015,6,16
26490,0,2e-05,6e-05,-0.00011,-0.00035,-0.00028,-0.00012,0.00015,6,16
26491,0,2e-05,6e-05,-0.00011,-0.00035,-0.00028,-0.00012,0.00015,6,16
26492,0,2e-05,6e-05,-0.00011,-0.00035,-0.00028,-0.00012,0.00015,6,16
26493,0,2e-05,6e-05,-0.00011,-0.00035,-0.00028,-0.00012,0.00015,6,16
26494,0,2e-05,6e-05,-0.00011,-0.00035,-0.00028,-0.00012,0.00015,6,16
26495,0,2e-05,6e-05,-0.00011,-0.00035,-0.00028,-0.00012,0.00015,6,16
26496,0,2e-05,6e-05,-0.00011,-0.00035,-0.00028,-0.00012,0.00015,6,16
26497,0,2e-05,6e-05,-0.00011,-0.00035,-0.00028,-0.00012,0.00015,6,16
26498,0,2e-05,6e-05,-0.00011,-0.00035,-0.00028,-0.00012,0.00015,6,16
26499,0,2e-05,6e-05,-0.00011,-0.00035,-0.00028,-0.00012,0.00015,6,16
26500,0,2e-05,6e-05,-0.00011,-0.00035,-0.00028,-0.00012,0.00015,6,16
26501,0,2e-05,6e-05,-0.00011,-0.00035,-0.00028,-0.00012,0.00015,6,16
26502,0,2e-05,6e-05,-0.00011,-0.00035,-0.00028,-0.00012,0.00015,6,16
26503,0,2e-05,6e-05,-0.00011,-0.00035,-0.00028,-0.00012,0.00015,6,16
26504,0,2e-05,6e-05,-0.00011,-0.00035,-0.00028,-0.00012,0.00015,6,16
26505,0,2e-05,6e-05,-0.00011,-0.00035,-0.00028,-0.00012,0.00015,6,16
26506,0,2e-05,6e-05,-0.00011,-0.00035,-0.00028,-0.00012,0.00015,6,16
26507,0,2e-05,6e-05,-0.00011,-0.00035,-0.00028,-0.00012,0.00015,6,16
26508,2e-05,-4e-05,-3e-05,2e-05,7e-05,0.0001,4e-05,-2e-05,6,16
26509,2e-05,-4e-05,-3e-05,2e-05,7e-05,0.0001,4e-05,-2e-05,6,16
26510,2e-05,-4e-05,-3e-05,2e-05,7e-05,0.0001,4e-05,-2e-05,6,16
26511,2e-05,-4e-05,-3e-05,2e-05,7e-05,0.0001,4e-05,-2e-05,6,16
26512,2e-05,-4e-05,-3e-05,2e-05,7e-05,0.0001,4e-05,-2e-05,6,16
26513,2e-05,-4e-05,-3e-05,2e-05,7e-05,0.0001,4e-05,-2e-05,6,16
26514,2e-05,-4e-05,-3e-05,2e-05,7e-05,0.0001,4e-05,-2e-05,6,16
26515,2e-05,-4e-05,-3e-05,2e-05,7e-05,0.0001,4e-05,-2e-05,6,16
26516,2e-05,-4e-05,-3e-05,2e-05,7e-05,0.0001,4e-05,-2e-05,6,16
26517,2e-05,-4e-05,-3e-05,2e-05,7e-05,0.0001,4e-05,-2e-05,6,16
26518,2e-05,-4e-05,-3e-05,2e-05,7e-05,0.0001,4e-05,-2e-05,6,16
26519,2e-05,-4e-05,-3e-05,2e-05,7e-05,0.0001,4e-05,-2e-05,6,16
26520,2e-05,-4e-05,-3e-05,2e-05,7e-05,0.0001,4e-05,-2e-05,6,16
26521,2e-05,-4e-05,-3e-05,2e-05,7e-05,0.0001,4e-05,-2e-05,6,16
26522,2e-05,-4e-05,-3e-05,2e-05,7e-05,0.0001,4e-05,-2e-05,6,16
26523,-3e-05,-1e-05,1e-05,6e-05,0.00027,-5e-05,5e-05,0.00017,6,16
26524,2e-05,1e-05,3e-05,0.00014,0.0002,-7e-05,0.0001,2e-05,6,16
26525,5e-05,1e-05,1e-05,7e-05,0.0004,0.00045,-9e-05,-3e-05,6,16
26526,5e-05,1e-05,1e-05,7e-05,0.0004,0.00045,-9e-05,-3e-05,6,16
26527,5e-05,1e-05,1e-05,7e-05,0.0004,0.00045,-9e-05,-3e-05,6,16
26528,5e-05,1e-05,1e-05,7e-05,0.0004,0.00045,-9e-05,-3e-05,6,16
26529,5e-05,1e-05,1e-05,7e-05,0.0004,0.00045,-9e-05,-3e-05,6,16
26530,5e-05,1e-05,1e-05,7e-05,0.0004,0.00045,-9e-05,-3e-05,6,16
26531,5e-05,1e-05,1e-05,7e-05,0.0004,0.00045,-9e-05,-3e-05,6,16
26532,5e-05,1e-05,1e-05,7e-05,0.0004,0.00045,-9e-05,-3e-05,6,16
26533,5e-05,1e-05,1e-05,7e-05,0.0004,0.00045,-9e-05,-3e-05,6,16
26534,5e-05,1e-05,1e-05,7e-05,0.0004,0.00045,-9e-05,-3e-05,6,16
26535,5e-05,1e-05,1e-05,7e-05,0.0004,0.00045,-9e-05,-3e-05,6,16
26536,5e-05,1e-05,1e-05,7e-05,0.0004,0.00045,-9e-05,-3e-05,6,16
26538,5e-05,1e-05,1e-05,7e-05,0.0004,0.00045,-9e-05,-3e-05,6,16
26539,5e-05,1e-05,1e-05,7e-05,0.0004,0.00045,-9e-05,-3e-05,6,16
26540,5e-05,1e-05,1e-05,7e-05,0.0004,0.00045,-9e-05,-3e-05,6,16
26541,5e-05,1e-05,1e-05,7e-05,0.0004,0.00045,-9e-05,-3e-05,6,16
26542,5e-05,1e-05,1e-05,7e-05,0.0004,0.00045,-9e-05,-3e-05,6,16
26543,5e-05,1e-05,1e-05,7e-05,0.0004,0.00045,-9e-05,-3e-05,6,16
26544,5e-05,1e-05,1e-05,7e-05,0.0004,0.00045,-9e-05,-3e-05,6,16
26545,5e-05,1e-05,1e-05,7e-05,0.0004,0.00045,-9e-05,-3e-05,6,16
26546,-2e-05,-0.00012,-0.00015,-0.00037,-0.00061,-0.00034,-0.00019,-3e-05,6,16
26547,-2e-05,-0.00012,-0.00015,-0.00037,-0.00061,-0.00034,-0.00019,-3e-05,6,16
26548,-2e-05,-0.00012,-0.00015,-0.00037,-0.00061,-0.00034,-0.00019,-3e-05,6,16
26549,-2e-05,-0.00012,-0.00015,-0.00037,-0.00061,-0.00034,-0.00019,-3e-05,6,16
26550,-2e-05,-0.00012,-0.00015,-0.00037,-0.00061,-0.00034,-0.00019,-3e-05,6,16
26551,4e-05,1e-05,0,4e-05,0.00023,1e-05,4e-05,7e-05,6,16
26552,4e-05,1e-05,0,4e-05,0.00023,1e-05,4e-05,7e-05,6,16
26553,4e-05,1e-05,0,4e-05,0.00023,1e-05,4e-05,7e-05,6,16
26554,4e-05,1e-05,0,4e-05,0.00023,1e-05,4e-05,7e-05,6,16
26555,4e-05,1e-05,0,4e-05,0.00023,1e-05,4e-05,7e-05,6,16
26556,4e-05,1e-05,0,4e-05,0.00023,1e-05,4e-05,7e-05,6,16
26557,4e-05,1e-05,0,4e-05,0.00023,1e-05,4e-05,7e-05,6,16
26558,-3e-05,-1e-05,0,-5e-05,-8e-05,9e-05,-2e-05,3e-05,6,16
26559,0,-3e-05,-7e-05,-0.00023,-0.00032,0.00012,0.00012,7e-05,6,16
26560,0,-3e-05,-7e-05,-0.00023,-0.00032,0.00012,0.00012,7e-05,6,16
26561,0,-3e-05,-7e-05,-0.00023,-0.00032,0.00012,0.00012,7e-05,6,16
26562,0,-3e-05,-7e-05,-0.00023,-0.00032,0.00012,0.00012,7e-05,6,16
26563,0,-3e-05,-7e-05,-0.00023,-0.00032,0.00012,0.00012,7e-05,6,16
26564,0,-3e-05,-7e-05,-0.00023,-0.00032,0.00012,0.00012,7e-05,6,16
26565,0,-3e-05,-7e-05,-0.00023,-0.00032,0.00012,0.00012,7e-05,6,16
26566,0,-3e-05,-7e-05,-0.00023,-0.00032,0.00012,0.00012,7e-05,6,16
26567,0,-3e-05,-7e-05,-0.00023,-0.00032,0.00012,0.00012,7e-05,6,16
26568,3e-05,2e-05,0,-7e-05,-0.00013,5e-05,0.00015,6e-05,6,16
26569,3e-05,2e-05,0,-7e-05,-0.00013,5e-05,0.00015,6e-05,6,16
26570,3e-05,2e-05,0,-7e-05,-0.00013,5e-05,0.00015,6e-05,6,16
26571,3e-05,2e-05,0,-7e-05,-0.00013,5e-05,0.00015,6e-05,6,16
26572,3e-05,2e-05,0,-7e-05,-0.00013,5e-05,0.00015,6e-05,6,16
26573,3e-05,2e-05,0,-7e-05,-0.00013,5e-05,0.00015,6e-05,6,16
26574,3e-05,2e-05,0,-7e-05,-0.00013,5e-05,0.00015,6e-05,6,16
26575,3e-05,2e-05,0,-7e-05,-0.00013,5e-05,0.00015,6e-05,6,16
26576,3e-05,2e-05,0,-7e-05,-0.00013,5e-05,0.00015,6e-05,6,16
26577,3e-05,2e-05,0,-7e-05,-0.00013,5e-05,0.00015,6e-05,6,16
26578,3e-05,2e-05,0,-7e-05,-0.00013,5e-05,0.00015,6e-05,6,16
26579,3e-05,2e-05,0,-7e-05,-0.00013,5e-05,0.00015,6e-05,6,16
26580,3e-05,2e-05,0,-7e-05,-0.00013,5e-05,0.00015,6e-05,6,16
26581,3e-05,2e-05,0,-7e-05,-0.00013,5e-05,0.00015,6e-05,6,16
26582,0.00013,-1e-05,-5e-05,4e-05,1e-05,-1e-05,0.00014,0.00016,6,16
26583,0.00013,-1e-05,-5e-05,4e-05,1e-05,-1e-05,0.00014,0.00016,6,16
26584,0.00012,8e-05,7e-05,6e-05,-9e-05,-7e-05,1e-05,0.00011,6,16
26585,0.00012,8e-05,7e-05,6e-05,-9e-05,-7e-05,1e-05,0.00011,6,16
26586,0.00012,8e-05,7e-05,6e-05,-9e-05,-7e-05,1e-05,0.00011,6,16
26588,0.00012,8e-05,7e-05,6e-05,-9e-05,-7e-05,1e-05,0.00011,6,16
26589,0.00012,8e-05,7e-05,6e-05,-9e-05,-7e-05,1e-05,0.00011,6,16
26590,0.00012,8e-05,7e-05,6e-05,-9e-05,-7e-05,1e-05,0.00011,6,16
26591,0.00012,8e-05,7e-05,6e-05,-9e-05,-7e-05,1e-05,0.00011,6,16
26592,0.00012,8e-05,7e-05,6e-05,-9e-05,-7e-05,1e-05,0.00011,6,16
26593,0.00012,8e-05,7e-05,6e-05,-9e-05,-7e-05,1e-05,0.00011,6,16
26594,0.00012,8e-05,7e-05,6e-05,-9e-05,-7e-05,1e-05,0.00011,6,16
26595,0.00012,8e-05,7e-05,6e-05,-9e-05,-7e-05,1e-05,0.00011,6,16
26596,0.00012,8e-05,7e-05,6e-05,-9e-05,-7e-05,1e-05,0.00011,6,16
26597,0.00012,8e-05,7e-05,6e-05,-9e-05,-7e-05,1e-05,0.00011,6,16
26598,0.00012,8e-05,7e-05,6e-05,-9e-05,-7e-05,1e-05,0.00011,6,16
26599,0.00012,8e-05,7e-05,6e-05,-9e-05,-7e-05,1e-05,0.00011,6,16
26600,0.00012,8e-05,7e-05,6e-05,-9e-05,-7e-05,1e-05,0.00011,6,16
26601,0.00012,8e-05,7e-05,6e-05,-9e-05,-7e-05,1e-05,0.00011,6,16
26602,0.00012,8e-05,7e-05,6e-05,-9e-05,-7e-05,1e-05,0.00011,6,16
26603,0.00012,8e-05,7e-05,6e-05,-9e-05,-7e-05,1e-05,0.00011,6,16
26604,0.00012,8e-05,7e-05,6e-05,-9e-05,-7e-05,1e-05,0.00011,6,16
26605,-3e-05,-2e-05,-3e-05,-3e-05,-0.00024,-0.0005,-0.00013,-0.00016,6,16
26606,-3e-05,-2e-05,-3e-05,-3e-05,-0.00024,-0.0005,-0.00013,-0.00016,6,16
26607,-3e-05,-2e-05,-3e-05,-3e-05,-0.00024,-0.0005,-0.00013,-0.00016,6,16
26608,-5e-05,-5e-05,-5e-05,2e-05,8e-05,-8e-05,-7e-05,-0.00014,6,16
26609,-5e-05,-5e-05,-5e-05,2e-05,8e-05,-8e-05,-7e-05,-0.00014,6,16
26610,-5e-05,-5e-05,-5e-05,2e-05,8e-05,-8e-05,-7e-05,-0.00014,6,16
26611,-5e-05,-5e-05,-5e-05,2e-05,8e-05,-8e-05,-7e-05,-0.00014,6,16
26612,-5e-05,-5e-05,-5e-05,2e-05,8e-05,-8e-05,-7e-05,-0.00014,6,16
26613,-5e-05,-5e-05,-5e-05,2e-05,8e-05,-8e-05,-7e-05,-0.00014,6,16
26614,-5e-05,-5e-05,-5e-05,2e-05,8e-05,-8e-05,-7e-05,-0.00014,6,16
26615,-5e-05,-5e-05,-5e-05,2e-05,8e-05,-8e-05,-7e-05,-0.00014,6,16
26616,-5e-05,-5e-05,-5e-05,2e-05,8e-05,-8e-05,-7e-05,-0.00014,6,16
26617,-5e-05,-5e-05,-5e-05,2e-05,8e-05,-8e-05,-7e-05,-0.00014,6,16
26618,-5e-05,-5e-05,-5e-05,2e-05,8e-05,-8e-05,-7e-05,-0.00014,6,16
26619,-8e-05,0.00012,0.00016,0.00019,0.00034,0.00038,-0.00033,-0.00024,6,16
26620,-8e-05,0.00012,0.00016,0.00019,0.00034,0.00038,-0.00033,-0.00024,6,16
26621,-8e-05,0.00012,0.00016,0.00019,0.00034,0.00038,-0.00033,-0.00024,6,16
26622,-8e-05,0.00012,0.00016,0.00019,0.00034,0.00038,-0.00033,-0.00024,6,16
26623,-8e-05,0.00012,0.00016,0.00019,0.00034,0.00038,-0.00033,-0.00024,6,16
26624,-8e-05,0.00012,0.00016,0.00019,0.00034,0.00038,-0.00033,-0.00024,6,16
26625,-8e-05,0.00012,0.00016,0.00019,0.00034,0.00038,-0.00033,-0.00024,6,16
26626,-8e-05,0.00012,0.00016,0.00019,0.00034,0.00038,-0.00033,-0.00024,6,16
26627,2e-05,-5e-05,-5e-05,-4e-05,-3e-05,-9e-05,-9e-05,-0.00016,6,16
26628,0,0,-4e-05,-0.0001,-0.00011,-0.00024,0.00011,6e-05,6,16
26629,0,0,-4e-05,-0.0001,-0.00011,-0.00024,0.00011,6e-05,6,16
26630,0,0,-4e-05,-0.0001,-0.00011,-0.00024,0.00011,6e-05,6,16
26631,0,0,-4e-05,-0.0001,-0.00011,-0.00024,0.00011,6e-05,6,16
26632,0,0,-4e-05,-0.0001,-0.00011,-0.00024,0.00011,6e-05,6,16
26633,0,0,-4e-05,-0.0001,-0.00011,-0.00024,0.00011,6e-05,6,16
26634,0,0,-4e-05,-0.0001,-0.00011,-0.00024,0.00011,6e-05,6,16
26635,0,0,-4e-05,-0.0001,-0.00011,-0.00024,0.00011,6e-05,6,16
26636,0,0,-4e-05,-0.0001,-0.00011,-0.00024,0.00011,6e-05,6,16
26638,0,0,-4e-05,-0.0001,-0.00011,-0.00024,0.00011,6e-05,6,16
26639,0,0,-4e-05,-0.0001,-0.00011,-0.00024,0.00011,6e-05,6,16
26640,0,0,-4e-05,-0.0001,-0.00011,-0.00024,0.00011,6e-05,6,16
26641,0,0,-4e-05,-0.0001,-0.00011,-0.00024,0.00011,6e-05,6,16
26642,-0.0001,-4e-05,0,0.00013,0.00012,-0.00011,0,8e-05,6,16
26643,-0.0001,-4e-05,0,0.00013,0.00012,-0.00011,0,8e-05,6,16
26644,-0.0001,-4e-05,0,0.00013,0.00012,-0.00011,0,8e-05,6,16
26645,-0.0001,-4e-05,0,0.00013,0.00012,-0.00011,0,8e-05,6,16
26646,-0.0001,-4e-05,0,0.00013,0.00012,-0.00011,0,8e-05,6,16
26647,-0.0001,-4e-05,0,0.00013,0.00012,-0.00011,0,8e-05,6,16
26648,-0.0001,-4e-05,0,0.00013,0.00012,-0.00011,0,8e-05,6,16
26649,-0.0001,-4e-05,0,0.00013,0.00012,-0.00011,0,8e-05,6,16
26650,6e-05,5e-05,3e-05,9e-05,0.00038,0.00046,0.00014,8e-05,6,16
26651,6e-05,5e-05,3e-05,9e-05,0.00038,0.00046,0.00014,8e-05,6,16
26652,6e-05,5e-05,3e-05,9e-05,0.00038,0.00046,0.00014,8e-05,6,16
26653,6e-05,5e-05,3e-05,9e-05,0.00038,0.00046,0.00014,8e-05,6,16
26654,6e-05,5e-05,3e-05,9e-05,0.00038,0.00046,0.00014,8e-05,6,16
26655,6e-05,5e-05,3e-05,9e-05,0.00038,0.00046,0.00014,8e-05,6,16
26656,6e-05,5e-05,3e-05,9e-05,0.00038,0.00046,0.00014,8e-05,6,16
26657,6e-05,5e-05,3e-05,9e-05,0.00038,0.00046,0.00014,8e-05,6,16
26658,6e-05,5e-05,3e-05,9e-05,0.00038,0.00046,0.00014,8e-05,6,16
26659,6e-05,5e-05,3e-05,9e-05,0.00038,0.00046,0.00014,8e-05,6,16
26660,6e-05,5e-05,3e-05,9e-05,0.00038,0.00046,0.00014,8e-05,6,16
26661,6e-05,5e-05,3e-05,9e-05,0.00038,0.00046,0.00014,8e-05,6,16
26662,6e-05,5e-05,3e-05,9e-05,0.00038,0.00046,0.00014,8e-05,6,16
26663,6e-05,5e-05,3e-05,9e-05,0.00038,0.00046,0.00014,8e-05,6,16
26664,6e-05,5e-05,3e-05,9e-05,0.00038,0.00046,0.00014,8e-05,6,16
26665,4e-05,7e-05,7e-05,0,-0.00017,0.00016,-0.00019,-0.00014,6,16
26666,-3e-05,-1e-05,1e-05,-4e-05,-0.0002,-0.00015,-1e-05,-5e-05,6,16
26667,5e-05,-1e-05,2e-05,0.0002,0.0003,-2e-05,0.00015,9e-05,6,16
26668,5e-05,-1e-05,2e-05,0.0002,0.0003,-2e-05,0.00015,9e-05,6,16
26669,5e-05,-1e-05,2e-05,0.0002,0.0003,-2e-05,0.00015,9e-05,6,16
26670,5e-05,-1e-05,2e-05,0.0002,0.0003,-2e-05,0.00015,9e-05,6,16
26671,5e-05,-1e-05,2e-05,0.0002,0.0003,-2e-05,0.00015,9e-05,6,16
26672,5e-05,-1e-05,2e-05,0.0002,0.0003,-2e-05,0.00015,9e-05,6,16
26673,5e-05,-1e-05,2e-05,0.0002,0.0003,-2e-05,0.00015,9e-05,6,16
26674,5e-05,-1e-05,2e-05,0.0002,0.0003,-2e-05,0.00015,9e-05,6,16
26675,5e-05,-1e-05,2e-05,0.0002,0.0003,-2e-05,0.00015,9e-05,6,16
26676,5e-05,-1e-05,2e-05,0.0002,0.0003,-2e-05,0.00015,9e-05,6,16
26677,5e-05,-1e-05,2e-05,0.0002,0.0003,-2e-05,0.00015,9e-05,6,16
26678,5e-05,-1e-05,2e-05,0.0002,0.0003,-2e-05,0.00015,9e-05,6,16
26679,7e-05,-1e-05,1e-05,0,8e-05,0.00035,0.00011,0,6,16
26680,7e-05,-1e-05,1e-05,0,8e-05,0.00035,0.00011,0,6,16
26681,7e-05,-1e-05,1e-05,0,8e-05,0.00035,0.00011,0,6,16
26682,7e-05,-1e-05,1e-05,0,8e-05,0.00035,0.00011,0,6,16
26683,7e-05,-1e-05,1e-05,0,8e-05,0.00035,0.00011,0,6,16
26684,7e-05,-1e-05,1e-05,0,8e-05,0.00035,0.00011,0,6,16
26685,7e-05,-1e-05,1e-05,0,8e-05,0.00035,0.00011,0,6,16
26686,7e-05,-1e-05,1e-05,0,8e-05,0.00035,0.00011,0,6,16
26688,-9e-05,-4e-05,-6e-05,4e-05,9e-05,9e-05,-9e-05,-0.00017,6,16
26689,-9e-05,-4e-05,-6e-05,4e-05,9e-05,9e-05,-9e-05,-0.00017,6,16
26690,-9e-05,-4e-05,-6e-05,4e-05,9e-05,9e-05,-9e-05,-0.00017,6,16
26691,-9e-05,-4e-05,-6e-05,4e-05,9e-05,9e-05,-9e-05,-0.00017,6,16
26692,-9e-05,-4e-05,-6e-05,4e-05,9e-05,9e-05,-9e-05,-0.00017,6,16
26693,-9e-05,-4e-05,-6e-05,4e-05,9e-05,9e-05,-9e-05,-0.00017,6,16
26694,-9e-05,-4e-05,-6e-05,4e-05,9e-05,9e-05,-9e-05,-0.00017,6,16
26695,-9e-05,-4e-05,-6e-05,4e-05,9e-05,9e-05,-9e-05,-0.00017,6,16
26696,-9e-05,-4e-05,-6e-05,4e-05,9e-05,9e-05,-9e-05,-0.00017,6,16
26697,-9e-05,-4e-05,-6e-05,4e-05,9e-05,9e-05,-9e-05,-0.00017,6,16
26698,-9e-05,-4e-05,-6e-05,4e-05,9e-05,9e-05,-9e-05,-0.00017,6,16
26699,-9e-05,-4e-05,-6e-05,4e-05,9e-05,9e-05,-9e-05,-0.00017,6,16
26700,-9e-05,-4e-05,-6e-05,4e-05,9e-05,9e-05,-9e-05,-0.00017,6,16
26701,-9e-05,-4e-05,-6e-05,4e-05,9e-05,9e-05,-9e-05,-0.00017,6,16
26702,-9e-05,-4e-05,-6e-05,4e-05,9e-05,9e-05,-9e-05,-0.00017,6,16
26703,-9e-05,-4e-05,-6e-05,4e-05,9e-05,9e-05,-9e-05,-0.00017,6,16
26704,-9e-05,-4e-05,-6e-05,4e-05,9e-05,9e-05,-9e-05,-0.00017,6,16
26705,-9e-05,-4e-05,-6e-05,4e-05,9e-05,9e-05,-9e-05,-0.00017,6,16
26706,-9e-05,-4e-05,-6e-05,4e-05,9e-05,9e-05,-9e-05,-0.00017,6,16
26707,-9e-05,-4e-05,-6e-05,4e-05,9e-05,9e-05,-9e-05,-0.00017,6,16
26708,-9e-05,-4e-05,-6e-05,4e-05,9e-05,9e-05,-9e-05,-0.00017,6,16
26709,-9e-05,-4e-05,-6e-05,4e-05,9e-05,9e-05,-9e-05,-0.00017,6,16
26710,-3e-05,-1e-05,-1e-05,-1e-05,0.00013,-2e-05,0.00012,7e-05,6,16
26711,-2e-05,-3e-05,-3e-05,-3e-05,0.00031,1e-05,-0.00015,-3e-05,6,16
26712,5e-05,-5e-05,-5e-05,0,-8e-05,-5e-05,-7e-05,0.00017,6,16
26713,5e-05,-5e-05,-5e-05,0,-8e-05,-5e-05,-7e-05,0.00017,6,16
26714,5e-05,-5e-05,-5e-05,0,-8e-05,-5e-05,-7e-05,0.00017,6,16
26715,5e-05,-5e-05,-5e-05,0,-8e-05,-5e-05,-7e-05,0.00017,6,16
26716,5e-05,-5e-05,-5e-05,0,-8e-05,-5e-05,-7e-05,0.00017,6,16
26717,5e-05,-5e-05,-5e-05,0,-8e-05,-5e-05,-7e-05,0.00017,6,16
26718,5e-05,-5e-05,-5e-05,0,-8e-05,-5e-05,-7e-05,0.00017,6,16
26719,5e-05,-5e-05,-5e-05,0,-8e-05,-5e-05,-7e-05,0.00017,6,16
26720,5e-05,-5e-05,-5e-05,0,-8e-05,-5e-05,-7e-05,0.00017,6,16
26721,5e-05,-5e-05,-5e-05,0,-8e-05,-5e-05,-7e-05,0.00017,6,16
26722,5e-05,-5e-05,-5e-05,0,-8e-05,-5e-05,-7e-05,0.00017,6,16
26723,5e-05,-5e-05,-5e-05,0,-8e-05,-5e-05,-7e-05,0.00017,6,16
26724,5e-05,-5e-05,-5e-05,0,-8e-05,-5e-05,-7e-05,0.00017,6,16
26725,5e-05,-5e-05,-5e-05,0,-8e-05,-5e-05,-7e-05,0.00017,6,16
26726,0.00015,4e-05,0,-6e-05,4e-05,-3e-05,0.00023,0.00024,6,16
26727,0.00015,4e-05,0,-6e-05,4e-05,-3e-05,0.00023,0.00024,6,16
26728,0.00015,4e-05,0,-6e-05,4e-05,-3e-05,0.00023,0.00024,6,16
26729,0.00015,4e-05,0,-6e-05,4e-05,-3e-05,0.00023,0.00024,6,16
26730,0.00015,4e-05,0,-6e-05,4e-05,-3e-05,0.00023,0.00024,6,16
26731,-6e-05,-1e-05,1e-05,1e-05,7e-05,-7e-05,-0.0001,0,6,16
26732,-6e-05,-1e-05,1e-05,1e-05,7e-05,-7e-05,-0.0001,0,6,16
26733,-6e-05,-1e-05,1e-05,1e-05,7e-05,-7e-05,-0.0001,0,6,16
26734,-6e-05,-1e-05,1e-05,1e-05,7e-05,-7e-05,-0.0001,0,6,16
26735,-6e-05,-1e-05,1e-05,1e-05,7e-05,-7e-05,-0.0001,0,6,16
26736,-6e-05,-1e-05,1e-05,1e-05,7e-05,-7e-05,-0.0001,0,6,16
26738,-6e-05,-1e-05,1e-05,1e-05,7e-05,-7e-05,-0.0001,0,6,16
26739,-6e-05,-1e-05,1e-05,1e-05,7e-05,-7e-05,-0.0001,0,6,16
26740,-6e-05,-1e-05,1e-05,1e-05,7e-05,-7e-05,-0.0001,0,6,16
26741,-6e-05,-1e-05,1e-05,1e-05,7e-05,-7e-05,-0.0001,0,6,16
26742,-6e-05,-1e-05,1e-05,1e-05,7e-05,-7e-05,-0.0001,0,6,16
26743,-6e-05,-1e-05,1e-05,1e-05,7e-05,-7e-05,-0.0001,0,6,16
26744,-6e-05,-1e-05,1e-05,1e-05,7e-05,-7e-05,-0.0001,0,6,16
26745,-6e-05,-1e-05,1e-05,1e-05,7e-05,-7e-05,-0.0001,0,6,16
26746,-6e-05,-1e-05,1e-05,1e-05,7e-05,-7e-05,-0.0001,0,6,16
26747,-6e-05,-1e-05,1e-05,1e-05,7e-05,-7e-05,-0.0001,0,6,16
26748,-2e-05,-2e-05,-2e-05,-3e-05,0,0.00036,8e-05,-0.00014,6,16
26749,0,-5e-05,-3e-05,2e-05,-7e-05,-0.00029,-0.00013,-5e-05,6,16
26750,0,-5e-05,-3e-05,2e-05,-7e-05,-0.00029,-0.00013,-5e-05,6,16
26751,0,-5e-05,-3e-05,2e-05,-7e-05,-0.00029,-0.00013,-5e-05,6,16
26752,0,-5e-05,-3e-05,2e-05,-7e-05,-0.00029,-0.00013,-5e-05,6,16
26753,9e-05,2e-05,-1e-05,-6e-05,-0.00025,-2e-05,0.00027,0.00024,6,16
26754,-1e-05,-4e-05,-4e-05,-6e-05,-0.00014,0.0004,0.00021,0.00017,6,16
26755,-1e-05,-4e-05,-4e-05,-6e-05,-0.00014,0.0004,0.00021,0.00017,6,16
26756,-1e-05,-4e-05,-4e-05,-6e-05,-0.00014,0.0004,0.00021,0.00017,6,16
26757,-1e-05,-4e-05,-4e-05,-6e-05,-0.00014,0.0004,0.00021,0.00017,6,16
26758,-1e-05,-4e-05,-4e-05,-6e-05,-0.00014,0.0004,0.00021,0.00017,6,16
26759,-1e-05,-4e-05,-4e-05,-6e-05,-0.00014,0.0004,0.00021,0.00017,6,16
26760,-1e-05,-4e-05,-4e-05,-6e-05,-0.00014,0.0004,0.00021,0.00017,6,16
26761,-1e-05,-4e-05,-4e-05,-6e-05,-0.00014,0.0004,0.00021,0.00017,6,16
26762,-9e-05,-6e-05,-1e-05,-2e-05,-8e-05,-0.0001,0.00025,-0.00014,6,16
26763,-9e-05,-6e-05,-1e-05,-2e-05,-8e-05,-0.0001,0.00025,-0.00014,6,16
26764,-2e-05,0,5e-05,3e-05,-6e-05,0.00021,-8e-05,-9e-05,6,16
26765,-2e-05,0,5e-05,3e-05,-6e-05,0.00021,-8e-05,-9e-05,6,16
26766,-2e-05,0,5e-05,3e-05,-6e-05,0.00021,-8e-05,-9e-05,6,16
26767,-2e-05,0,5e-05,3e-05,-6e-05,0.00021,-8e-05,-9e-05,6,16
26768,-2e-05,0,5e-05,3e-05,-6e-05,0.00021,-8e-05,-9e-05,6,16
26769,-2e-05,0,5e-05,3e-05,-6e-05,0.00021,-8e-05,-9e-05,6,16
26770,-2e-05,0,5e-05,3e-05,-6e-05,0.00021,-8e-05,-9e-05,6,16
26771,-2e-05,0,5e-05,3e-05,-6e-05,0.00021,-8e-05,-9e-05,6,16
26772,-2e-05,0,5e-05,3e-05,-6e-05,0.00021,-8e-05,-9e-05,6,16
26773,-2e-05,0,5e-05,3e-05,-6e-05,0.00021,-8e-05,-9e-05,6,16
26774,-2e-05,0,5e-05,3e-05,-6e-05,0.00021,-8e-05,-9e-05,6,16
26775,-2e-05,0,5e-05,3e-05,-6e-05,0.00021,-8e-05,-9e-05,6,16
26776,-2e-05,0,5e-05,3e-05,-6e-05,0.00021,-8e-05,-9e-05,6,16
26777,-2e-05,0,5e-05,3e-05,-6e-05,0.00021,-8e-05,-9e-05,6,16
26778,-2e-05,0,5e-05,3e-05,-6e-05,0.00021,-8e-05,-9e-05,6,16
26779,-2e-05,0,5e-05,3e-05,-6e-05,0.00021,-8e-05,-9e-05,6,16
26780,-2e-05,0,5e-05,3e-05,-6e-05,0.00021,-8e-05,-9e-05,6,16
26781,-2e-05,0,5e-05,3e-05,-6e-05,0.00021,-8e-05,-9e-05,6,16
26782,-2e-05,0,5e-05,3e-05,-6e-05,0.00021,-8e-05,-9e-05,6,16
26783,-2e-05,0,5e-05,3e-05,-6e-05,0.00021,-8e-05,-9e-05,6,16
26784,-2e-05,0,5e-05,3e-05,-6e-05,0.00021,-8e-05,-9e-05,6,16
26785,-7e-05,1e-05,-5e-05,6e-05,0.00014,-0.00011,-0.00045,0,6,16
26786,-7e-05,1e-05,-5e-05,6e-05,0.00014,-0.00011,-0.00045,0,6,16
26788,-0.00011,0,-2e-05,-8e-05,-0.00037,-0.00029,3e-05,-0.00014,6,16
26789,-0.00011,0,-2e-05,-8e-05,-0.00037,-0.00029,3e-05,-0.00014,6,16
26790,-0.00011,0,-2e-05,-8e-05,-0.00037,-0.00029,3e-05,-0.00014,6,16
26791,-0.00011,0,-2e-05,-8e-05,-0.00037,-0.00029,3e-05,-0.00014,6,16
26792,-0.00011,0,-2e-05,-8e-05,-0.00037,-0.00029,3e-05,-0.00014,6,16
26793,-0.00011,0,-2e-05,-8e-05,-0.00037,-0.00029,3e-05,-0.00014,6,16
26794,-0.00011,0,-2e-05,-8e-05,-0.00037,-0.00029,3e-05,-0.00014,6,16
26795,-0.00011,0,-2e-05,-8e-05,-0.00037,-0.00029,3e-05,-0.00014,6,16
26796,-0.00011,0,-2e-05,-8e-05,-0.00037,-0.00029,3e-05,-0.00014,6,16
26797,-0.00011,0,-2e-05,-8e-05,-0.00037,-0.00029,3e-05,-0.00014,6,16
26798,-0.00011,0,-2e-05,-8e-05,-0.00037,-0.00029,3e-05,-0.00014,6,16
26799,-0.00011,0,-2e-05,-8e-05,-0.00037,-0.00029,3e-05,-0.00014,6,16
26800,-0.00011,0,-2e-05,-8e-05,-0.00037,-0.00029,3e-05,-0.00014,6,16
26801,-0.00011,0,-2e-05,-8e-05,-0.00037,-0.00029,3e-05,-0.00014,6,16
26802,-0.00011,0,-2e-05,-8e-05,-0.00037,-0.00029,3e-05,-0.00014,6,16
26803,-0.00011,0,-2e-05,-8e-05,-0.00037,-0.00029,3e-05,-0.00014,6,16
26804,-0.00011,0,-2e-05,-8e-05,-0.00037,-0.00029,3e-05,-0.00014,6,16
26805,-0.00011,0,-2e-05,-8e-05,-0.00037,-0.00029,3e-05,-0.00014,6,16
26806,-0.00011,0,-2e-05,-8e-05,-0.00037,-0.00029,3e-05,-0.00014,6,16
26807,-0.00017,-2e-05,2e-05,-5e-05,-0.00018,-0.00014,4e-05,-4e-05,6,16
26808,6e-05,1e-05,2e-05,5e-05,0.0003,0.0002,-0.00036,-8e-05,6,16
26810,-3e-05,-3e-05,-4e-05,-0.00013,-0.0002,-0.00033,-0.00012,-0.00012,6,16
26811,-3e-05,-3e-05,-4e-05,-0.00013,-0.0002,-0.00033,-0.00012,-0.00012,6,16
26812,-3e-05,-3e-05,-4e-05,-0.00013,-0.0002,-0.00033,-0.00012,-0.00012,6,16
26813,-3e-05,-3e-05,-4e-05,-0.00013,-0.0002,-0.00033,-0.00012,-0.00012,6,16
26814,-3e-05,-3e-05,-4e-05,-0.00013,-0.0002,-0.00033,-0.00012,-0.00012,6,16
26815,-3e-05,-3e-05,-4e-05,-0.00013,-0.0002,-0.00033,-0.00012,-0.00012,6,16
26816,-3e-05,-3e-05,-4e-05,-0.00013,-0.0002,-0.00033,-0.00012,-0.00012,6,16
26817,-3e-05,-3e-05,-4e-05,-0.00013,-0.0002,-0.00033,-0.00012,-0.00012,6,16
26818,-3e-05,-3e-05,-4e-05,-0.00013,-0.0002,-0.00033,-0.00012,-0.00012,6,16
26819,-3e-05,-3e-05,-4e-05,-0.00013,-0.0002,-0.00033,-0.00012,-0.00012,6,16
26820,-3e-05,-3e-05,-4e-05,-0.00013,-0.0002,-0.00033,-0.00012,-0.00012,6,16
26821,-3e-05,-3e-05,-4e-05,-0.00013,-0.0002,-0.00033,-0.00012,-0.00012,6,16
26822,-3e-05,-3e-05,-4e-05,-0.00013,-0.0002,-0.00033,-0.00012,-0.00012,6,16
26823,7e-05,4e-05,3e-05,0.00017,0.0002,2e-05,-3e-05,0.00019,6,16
26824,7e-05,4e-05,3e-05,0.00017,0.0002,2e-05,-3e-05,0.00019,6,16
26825,7e-05,4e-05,3e-05,0.00017,0.0002,2e-05,-3e-05,0.00019,6,16
26826,7e-05,4e-05,3e-05,0.00017,0.0002,2e-05,-3e-05,0.00019,6,16
26827,7e-05,4e-05,3e-05,0.00017,0.0002,2e-05,-3e-05,0.00019,6,16
26828,-4e-05,-2e-05,-3e-05,0,-0.00012,-0.0001,-7e-05,-9e-05,6,16
26829,-5e-05,-1e-05,-3e-05,-9e-05,-0.0001,-0.00013,7e-05,-0.00011,6,16
26830,-5e-05,-1e-05,-3e-05,-9e-05,-0.0001,-0.00013,7e-05,-0.00011,6,16
26831,-5e-05,-1e-05,-3e-05,-9e-05,-0.0001,-0.00013,7e-05,-0.00011,6,16
26832,-5e-05,-1e-05,-3e-05,-9e-05,-0.0001,-0.00013,7e-05,-0.00011,6,16
26833,-5e-05,-1e-05,-3e-05,-9e-05,-0.0001,-0.00013,7e-05,-0.00011,6,16
26834,-5e-05,-1e-05,-3e-05,-9e-05,-0.0001,-0.00013,7e-05,-0.00011,6,16
26835,-5e-05,-1e-05,-3e-05,-9e-05,-0.0001,-0.00013,7e-05,-0.00011,6,16
26836,-5e-05,-1e-05,-3e-05,-9e-05,-0.0001,-0.00013,7e-05,-0.00011,6,16
26838,-5e-05,-1e-05,-3e-05,-9e-05,-0.0001,-0.00013,7e-05,-0.00011,6,16
26839,-5e-05,-1e-05,-3e-05,-9e-05,-0.0001,-0.00013,7e-05,-0.00011,6,16
26840,-5e-05,-1e-05,-3e-05,-9e-05,-0.0001,-0.00013,7e-05,-0.00011,6,16
26841,-5e-05,-1e-05,-3e-05,-9e-05,-0.0001,-0.00013,7e-05,-0.00011,6,16
26842,-5e-05,-1e-05,-3e-05,-9e-05,-0.0001,-0.00013,7e-05,-0.00011,6,16
26843,-5e-05,-1e-05,-3e-05,-9e-05,-0.0001,-0.00013,7e-05,-0.00011,6,16
26844,-5e-05,-1e-05,-3e-05,-9e-05,-0.0001,-0.00013,7e-05,-0.00011,6,16
26845,-7e-05,0,-3e-05,-7e-05,-0.00024,0.00019,0.00028,-0.00014,6,16
26846,-5e-05,-2e-05,-5e-05,-0.00016,-0.00026,-9e-05,0.00011,-0.0001,6,16
26847,-1e-05,1e-05,6e-05,0.00016,0.00036,3e-05,-0.00058,-7e-05,6,16
26848,-1e-05,1e-05,6e-05,0.00016,0.00036,3e-05,-0.00058,-7e-05,6,16
26849,-1e-05,1e-05,6e-05,0.00016,0.00036,3e-05,-0.00058,-7e-05,6,16
26850,-1e-05,1e-05,6e-05,0.00016,0.00036,3e-05,-0.00058,-7e-05,6,16
26851,-1e-05,1e-05,6e-05,0.00016,0.00036,3e-05,-0.00058,-7e-05,6,16
26852,-1e-05,1e-05,6e-05,0.00016,0.00036,3e-05,-0.00058,-7e-05,6,16
26853,-1e-05,1e-05,6e-05,0.00016,0.00036,3e-05,-0.00058,-7e-05,6,16
26854,-1e-05,1e-05,6e-05,0.00016,0.00036,3e-05,-0.00058,-7e-05,6,16
26856,-1e-05,1e-05,6e-05,0.00016,0.00036,3e-05,-0.00058,-7e-05,6,16
26857,-1e-05,1e-05,6e-05,0.00016,0.00036,3e-05,-0.00058,-7e-05,6,16
26858,-1e-05,1e-05,6e-05,0.00016,0.00036,3e-05,-0.00058,-7e-05,6,16
26859,-1e-05,1e-05,6e-05,0.00016,0.00036,3e-05,-0.00058,-7e-05,6,16
26860,-1e-05,1e-05,6e-05,0.00016,0.00036,3e-05,-0.00058,-7e-05,6,16
26861,-1e-05,1e-05,6e-05,0.00016,0.00036,3e-05,-0.00058,-7e-05,6,16
26862,-1e-05,1e-05,6e-05,0.00016,0.00036,3e-05,-0.00058,-7e-05,6,16
26863,-1e-05,1e-05,6e-05,0.00016,0.00036,3e-05,-0.00058,-7e-05,6,16
26864,-1e-05,1e-05,6e-05,0.00016,0.00036,3e-05,-0.00058,-7e-05,6,16
26865,-1e-05,1e-05,6e-05,0.00016,0.00036,3e-05,-0.00058,-7e-05,6,16
26866,-1e-05,1e-05,6e-05,0.00016,0.00036,3e-05,-0.00058,-7e-05,6,16
26867,-1e-05,-4e-05,-2e-05,-9e-05,-9e-05,0.00025,0.00016,-0.00011,6,16
26868,-1e-05,-4e-05,-2e-05,-9e-05,-9e-05,0.00025,0.00016,-0.00011,6,16
26869,7e-05,4e-05,1e-05,-0.00013,-0.00036,-0.0001,1e-05,7e-05,6,16
26870,7e-05,4e-05,1e-05,-0.00013,-0.00036,-0.0001,1e-05,7e-05,6,16
26871,7e-05,4e-05,1e-05,-0.00013,-0.00036,-0.0001,1e-05,7e-05,6,16
26872,7e-05,4e-05,1e-05,-0.00013,-0.00036,-0.0001,1e-05,7e-05,6,16
26873,7e-05,4e-05,1e-05,-0.00013,-0.00036,-0.0001,1e-05,7e-05,6,16
26874,7e-05,4e-05,1e-05,-0.00013,-0.00036,-0.0001,1e-05,7e-05,6,16
26875,7e-05,4e-05,1e-05,-0.00013,-0.00036,-0.0001,1e-05,7e-05,6,16
26876,7e-05,4e-05,1e-05,-0.00013,-0.00036,-0.0001,1e-05,7e-05,6,16
26877,7e-05,4e-05,1e-05,-0.00013,-0.00036,-0.0001,1e-05,7e-05,6,16
26878,7e-05,4e-05,1e-05,-0.00013,-0.00036,-0.0001,1e-05,7e-05,6,16
26879,7e-05,4e-05,1e-05,-0.00013,-0.00036,-0.0001,1e-05,7e-05,6,16
26880,7e-05,4e-05,1e-05,-0.00013,-0.00036,-0.0001,1e-05,7e-05,6,16
26881,7e-05,4e-05,1e-05,-0.00013,-0.00036,-0.0001,1e-05,7e-05,6,16
26882,2e-05,-2e-05,-5e-05,8e-05,0.00014,-4e-05,7e-05,2e-05,6,16
26883,2e-05,-2e-05,-5e-05,8e-05,0.00014,-4e-05,7e-05,2e-05,6,16
26884,3e-05,0,-3e-05,-2e-05,-0.00029,-0.00024,-5e-05,-4e-05,6,16
26885,3e-05,0,-3e-05,-2e-05,-0.00029,-0.00024,-5e-05,-4e-05,6,16
26886,3e-05,0,-3e-05,-2e-05,-0.00029,-0.00024,-5e-05,-4e-05,6,16
26888,3e-05,0,-3e-05,-2e-05,-0.00029,-0.00024,-5e-05,-4e-05,6,16
26889,3e-05,0,-3e-05,-2e-05,-0.00029,-0.00024,-5e-05,-4e-05,6,16
26890,3e-05,0,-3e-05,-2e-05,-0.00029,-0.00024,-5e-05,-4e-05,6,16
26891,3e-05,0,-3e-05,-2e-05,-0.00029,-0.00024,-5e-05,-4e-05,6,16
26892,3e-05,0,-3e-05,-2e-05,-0.00029,-0.00024,-5e-05,-4e-05,6,16
26893,3e-05,0,-3e-05,-2e-05,-0.00029,-0.00024,-5e-05,-4e-05,6,16
26894,3e-05,0,-3e-05,-2e-05,-0.00029,-0.00024,-5e-05,-4e-05,6,16
26895,3e-05,0,-3e-05,-2e-05,-0.00029,-0.00024,-5e-05,-4e-05,6,16
26896,3e-05,0,-3e-05,-2e-05,-0.00029,-0.00024,-5e-05,-4e-05,6,16
26897,3e-05,0,-3e-05,-2e-05,-0.00029,-0.00024,-5e-05,-4e-05,6,16
26898,3e-05,0,-3e-05,-2e-05,-0.00029,-0.00024,-5e-05,-4e-05,6,16
26899,3e-05,0,-3e-05,-2e-05,-0.00029,-0.00024,-5e-05,-4e-05,6,16
26900,3e-05,0,-3e-05,-2e-05,-0.00029,-0.00024,-5e-05,-4e-05,6,16
26901,3e-05,0,-3e-05,-2e-05,-0.00029,-0.00024,-5e-05,-4e-05,6,16
26902,3e-05,0,-3e-05,-2e-05,-0.00029,-0.00024,-5e-05,-4e-05,6,16
26903,3e-05,0,-3e-05,-2e-05,-0.00029,-0.00024,-5e-05,-4e-05,6,16
26904,3e-05,0,-3e-05,-2e-05,-0.00029,-0.00024,-5e-05,-4e-05,6,16
26905,0.00011,7e-05,6e-05,0.00013,0.00048,0.00011,9e-05,0.0002,6,16
26906,-9e-05,0,1e-05,2e-05,1e-05,7e-05,-4e-05,-0.00011,6,16
26907,-4e-05,-1e-05,0,-4e-05,-0.00013,-0.00022,9e-05,-9e-05,6,16
26908,-4e-05,-1e-05,0,-4e-05,-0.00013,-0.00022,9e-05,-9e-05,6,16
26909,-4e-05,-1e-05,0,-4e-05,-0.00013,-0.00022,9e-05,-9e-05,6,16
26910,-4e-05,-1e-05,0,-4e-05,-0.00013,-0.00022,9e-05,-9e-05,6,16
26911,-4e-05,-1e-05,0,-4e-05,-0.00013,-0.00022,9e-05,-9e-05,6,16
26912,-4e-05,-1e-05,0,-4e-05,-0.00013,-0.00022,9e-05,-9e-05,6,16
26913,-4e-05,-1e-05,0,-4e-05,-0.00013,-0.00022,9e-05,-9e-05,6,16
26914,-4e-05,-1e-05,0,-4e-05,-0.00013,-0.00022,9e-05,-9e-05,6,16
26915,-4e-05,-1e-05,0,-4e-05,-0.00013,-0.00022,9e-05,-9e-05,6,16
26916,-4e-05,-1e-05,0,-4e-05,-0.00013,-0.00022,9e-05,-9e-05,6,16
26917,-4e-05,-1e-05,0,-4e-05,-0.00013,-0.00022,9e-05,-9e-05,6,16
26918,-4e-05,-1e-05,0,-4e-05,-0.00013,-0.00022,9e-05,-9e-05,6,16
26919,-4e-05,-1e-05,0,-4e-05,-0.00013,-0.00022,9e-05,-9e-05,6,16
26920,-4e-05,-1e-05,0,-4e-05,-0.00013,-0.00022,9e-05,-9e-05,6,16
26921,-4e-05,-1e-05,0,-4e-05,-0.00013,-0.00022,9e-05,-9e-05,6,16
26922,-4e-05,-1e-05,0,-4e-05,-0.00013,-0.00022,9e-05,-9e-05,6,16
26923,-4e-05,-1e-05,0,-4e-05,-0.00013,-0.00022,9e-05,-9e-05,6,16
26924,-4e-05,-1e-05,0,-4e-05,-0.00013,-0.00022,9e-05,-9e-05,6,16
26925,-4e-05,-1e-05,0,-4e-05,-0.00013,-0.00022,9e-05,-9e-05,6,16
26926,-4e-05,-1e-05,0,-4e-05,-0.00013,-0.00022,9e-05,-9e-05,6,16
26927,4e-05,-5e-05,-1e-05,-5e-05,0.00026,0.00023,-2e-05,6e-05,6,16
26928,-0.00014,-8e-05,-6e-05,-8e-05,-6e-05,-4e-05,9e-05,-0.00019,6,16
26929,-1e-05,-3e-05,-2e-05,1e-05,0.00014,0.00013,0.00021,5e-05,6,16
26930,-1e-05,-3e-05,-2e-05,1e-05,0.00014,0.00013,0.00021,5e-05,6,16
26931,-1e-05,-3e-05,-2e-05,1e-05,0.00014,0.00013,0.00021,5e-05,6,16
26932,-1e-05,-3e-05,-2e-05,1e-05,0.00014,0.00013,0.00021,5e-05,6,16
26933,-1e-05,-3e-05,-2e-05,1e-05,0.00014,0.00013,0.00021,5e-05,6,16
26934,-1e-05,-3e-05,-2e-05,1e-05,0.00014,0.00013,0.00021,5e-05,6,16
26935,-1e-05,-3e-05,-2e-05,1e-05,0.00014,0.00013,0.00021,5e-05,6,16
26936,-1e-05,-3e-05,-2e-05,1e-05,0.00014,0.00013,0.00021,5e-05,6,16
26938,-1e-05,-3e-05,-2e-05,1e-05,0.00014,0.00013,0.00021,5e-05,6,16
26939,-1e-05,-3e-05,-2e-05,1e-05,0.00014,0.00013,0.00021,5e-05,6,16
26940,-1e-05,-3e-05,-2e-05,1e-05,0.00014,0.00013,0.00021,5e-05,6,16
26941,-1e-05,-3e-05,-2e-05,1e-05,0.00014,0.00013,0.00021,5e-05,6,16
26942,-3e-05,1e-05,-9e-05,-9e-05,-9e-05,-0.00013,-3e-05,0.00014,6,16
26943,-3e-05,1e-05,-9e-05,-9e-05,-9e-05,-0.00013,-3e-05,0.00014,6,16
26944,-3e-05,1e-05,-9e-05,-9e-05,-9e-05,-0.00013,-3e-05,0.00014,6,16
26945,-3e-05,1e-05,-9e-05,-9e-05,-9e-05,-0.00013,-3e-05,0.00014,6,16
26946,-3e-05,1e-05,-9e-05,-9e-05,-9e-05,-0.00013,-3e-05,0.00014,6,16
26947,-3e-05,1e-05,-9e-05,-9e-05,-9e-05,-0.00013,-3e-05,0.00014,6,16
26948,4e-05,-3e-05,-3e-05,0.00013,0.00019,0.00032,0.00018,-5e-05,6,16
26949,4e-05,-3e-05,-3e-05,0.00013,0.00019,0.00032,0.00018,-5e-05,6,16
26950,4e-05,-3e-05,-3e-05,0.00013,0.00019,0.00032,0.00018,-5e-05,6,16
26951,4e-05,-3e-05,-3e-05,0.00013,0.00019,0.00032,0.00018,-5e-05,6,16
26952,4e-05,-3e-05,-3e-05,0.00013,0.00019,0.00032,0.00018,-5e-05,6,16
26953,4e-05,-3e-05,-3e-05,0.00013,0.00019,0.00032,0.00018,-5e-05,6,16
26954,4e-05,-3e-05,-3e-05,0.00013,0.00019,0.00032,0.00018,-5e-05,6,16
26955,4e-05,-3e-05,-3e-05,0.00013,0.00019,0.00032,0.00018,-5e-05,6,16
26956,4e-05,-3e-05,-3e-05,0.00013,0.00019,0.00032,0.00018,-5e-05,6,16
26957,4e-05,-3e-05,-3e-05,0.00013,0.00019,0.00032,0.00018,-5e-05,6,16
26958,4e-05,-3e-05,-3e-05,0.00013,0.00019,0.00032,0.00018,-5e-05,6,16
26959,4e-05,-3e-05,-3e-05,0.00013,0.00019,0.00032,0.00018,-5e-05,6,16
26960,4e-05,-3e-05,-3e-05,0.00013,0.00019,0.00032,0.00018,-5e-05,6,16
26961,4e-05,-3e-05,-3e-05,0.00013,0.00019,0.00032,0.00018,-5e-05,6,16
26962,4e-05,-3e-05,-3e-05,0.00013,0.00019,0.00032,0.00018,-5e-05,6,16
26963,4e-05,-3e-05,-3e-05,0.00013,0.00019,0.00032,0.00018,-5e-05,6,16
26964,4e-05,-3e-05,-3e-05,0.00013,0.00019,0.00032,0.00018,-5e-05,6,16
26965,-6e-05,2e-05,0,8e-05,-8e-05,-0.00019,-2e-05,5e-05,6,16
26966,-0.00012,-8e-05,-4e-05,-0.00015,-0.00046,-0.00037,-0.00043,-0.00025,6,16
26967,-0.0001,4e-05,5e-05,9e-05,-0.00012,-3e-05,0.00026,4e-05,6,16
26968,-0.0001,4e-05,5e-05,9e-05,-0.00012,-3e-05,0.00026,4e-05,6,16
26969,-0.0001,4e-05,5e-05,9e-05,-0.00012,-3e-05,0.00026,4e-05,6,16
26970,-0.0001,4e-05,5e-05,9e-05,-0.00012,-3e-05,0.00026,4e-05,6,16
26972,-0.0001,4e-05,5e-05,9e-05,-0.00012,-3e-05,0.00026,4e-05,6,16
26973,-0.0001,4e-05,5e-05,9e-05,-0.00012,-3e-05,0.00026,4e-05,6,16
26974,-0.0001,4e-05,5e-05,9e-05,-0.00012,-3e-05,0.00026,4e-05,6,16
26975,-0.0001,4e-05,5e-05,9e-05,-0.00012,-3e-05,0.00026,4e-05,6,16
26976,-0.0001,4e-05,5e-05,9e-05,-0.00012,-3e-05,0.00026,4e-05,6,16
26977,-0.0001,4e-05,5e-05,9e-05,-0.00012,-3e-05,0.00026,4e-05,6,16
26978,-0.0001,4e-05,5e-05,9e-05,-0.00012,-3e-05,0.00026,4e-05,6,16
26979,-0.0001,4e-05,5e-05,9e-05,-0.00012,-3e-05,0.00026,4e-05,6,16
26980,-0.0001,4e-05,5e-05,9e-05,-0.00012,-3e-05,0.00026,4e-05,6,16
26981,-0.0001,4e-05,5e-05,9e-05,-0.00012,-3e-05,0.00026,4e-05,6,16
26982,-0.0001,4e-05,5e-05,9e-05,-0.00012,-3e-05,0.00026,4e-05,6,16
26983,-0.0001,4e-05,5e-05,9e-05,-0.00012,-3e-05,0.00026,4e-05,6,16
26984,-0.0001,4e-05,5e-05,9e-05,-0.00012,-3e-05,0.00026,4e-05,6,16
26985,-0.0001,4e-05,5e-05,9e-05,-0.00012,-3e-05,0.00026,4e-05,6,16
26986,-0.0001,4e-05,5e-05,9e-05,-0.00012,-3e-05,0.00026,4e-05,6,16
26988,5e-05,0,-2e-05,-0.00014,-0.0002,2e-05,4e-05,1e-05,6,16
26989,7e-05,0,0,-8e-05,0.00012,-1e-05,-8e-05,0.00013,6,16
26990,7e-05,0,0,-8e-05,0.00012,-1e-05,-8e-05,0.00013,6,16
26991,7e-05,0,0,-8e-05,0.00012,-1e-05,-8e-05,0.00013,6,16
26992,7e-05,0,0,-8e-05,0.00012,-1e-05,-8e-05,0.00013,6,16
26993,7e-05,0,0,-8e-05,0.00012,-1e-05,-8e-05,0.00013,6,16
26994,7e-05,0,0,-8e-05,0.00012,-1e-05,-8e-05,0.00013,6,16
26995,7e-05,0,0,-8e-05,0.00012,-1e-05,-8e-05,0.00013,6,16
26996,7e-05,0,0,-8e-05,0.00012,-1e-05,-8e-05,0.00013,6,16
26997,7e-05,0,0,-8e-05,0.00012,-1e-05,-8e-05,0.00013,6,16
26998,7e-05,0,0,-8e-05,0.00012,-1e-05,-8e-05,0.00013,6,16
26999,7e-05,0,0,-8e-05,0.00012,-1e-05,-8e-05,0.00013,6,16
27000,7e-05,0,0,-8e-05,0.00012,-1e-05,-8e-05,0.00013,6,16
27001,7e-05,0,0,-8e-05,0.00012,-1e-05,-8e-05,0.00013,6,16
27002,7e-05,0,0,-8e-05,0.00012,-1e-05,-8e-05,0.00013,6,16
27003,7e-05,0,0,-8e-05,0.00012,-1e-05,-8e-05,0.00013,6,16
27004,7e-05,0,0,-8e-05,0.00012,-1e-05,-8e-05,0.00013,6,16
27005,7e-05,0,0,-8e-05,0.00012,-1e-05,-8e-05,0.00013,6,16
27006,7e-05,0,0,-8e-05,0.00012,-1e-05,-8e-05,0.00013,6,16
27007,7e-05,0,0,-8e-05,0.00012,-1e-05,-8e-05,0.00013,6,16
27008,7e-05,0,0,-8e-05,0.00012,-1e-05,-8e-05,0.00013,6,16
27009,7e-05,0,0,-8e-05,0.00012,-1e-05,-8e-05,0.00013,6,16
27010,-6e-05,-5e-05,-6e-05,-0.00015,-0.00023,-0.00017,0,-0.00012,6,16
27011,-6e-05,-5e-05,-6e-05,-0.00015,-0.00023,-0.00017,0,-0.00012,6,16
27012,-6e-05,-5e-05,-6e-05,-0.00015,-0.00023,-0.00017,0,-0.00012,6,16
27013,-6e-05,-5e-05,-6e-05,-0.00015,-0.00023,-0.00017,0,-0.00012,6,16
27014,-6e-05,-5e-05,-6e-05,-0.00015,-0.00023,-0.00017,0,-0.00012,6,16
27015,-6e-05,-5e-05,-6e-05,-0.00015,-0.00023,-0.00017,0,-0.00012,6,16
27016,7e-05,0,6e-05,0.00012,0.00029,0.0001,3e-05,0.00029,6,16
27017,7e-05,0,6e-05,0.00012,0.00029,0.0001,3e-05,0.00029,6,16
27018,7e-05,0,6e-05,0.00012,0.00029,0.0001,3e-05,0.00029,6,16
27019,7e-05,0,6e-05,0.00012,0.00029,0.0001,3e-05,0.00029,6,16
27020,7e-05,0,6e-05,0.00012,0.00029,0.0001,3e-05,0.00029,6,16
27021,7e-05,0,6e-05,0.00012,0.00029,0.0001,3e-05,0.00029,6,16
27022,7e-05,0,6e-05,0.00012,0.00029,0.0001,3e-05,0.00029,6,16
27023,7e-05,0,6e-05,0.00012,0.00029,0.0001,3e-05,0.00029,6,16
27024,7e-05,0,6e-05,0.00012,0.00029,0.0001,3e-05,0.00029,6,16
27025,3e-05,-2e-05,-4e-05,3e-05,-5e-05,-7e-05,-5e-05,2e-05,6,16
27026,3e-05,-2e-05,-4e-05,3e-05,-5e-05,-7e-05,-5e-05,2e-05,6,16
27027,3e-05,-2e-05,-4e-05,3e-05,-5e-05,-7e-05,-5e-05,2e-05,6,16
27028,3e-05,-2e-05,-4e-05,3e-05,-5e-05,-7e-05,-5e-05,2e-05,6,16
27029,3e-05,-2e-05,-4e-05,3e-05,-5e-05,-7e-05,-5e-05,2e-05,6,16
27030,3e-05,-2e-05,-4e-05,3e-05,-5e-05,-7e-05,-5e-05,2e-05,6,16
27031,3e-05,-2e-05,-4e-05,3e-05,-5e-05,-7e-05,-5e-05,2e-05,6,16
27032,-0.00013,-4e-05,-5e-05,-0.00014,-0.00014,-0.00013,-0.00019,-0.00031,6,16
27033,-1e-05,-3e-05,-2e-05,2e-05,5e-05,4e-05,-0.00017,-2e-05,6,16
27034,-1e-05,-3e-05,-2e-05,2e-05,5e-05,4e-05,-0.00017,-2e-05,6,16
27035,-1e-05,-3e-05,-2e-05,2e-05,5e-05,4e-05,-0.00017,-2e-05,6,16
27036,-1e-05,-3e-05,-2e-05,2e-05,5e-05,4e-05,-0.00017,-2e-05,6,16
27038,-1e-05,-3e-05,-2e-05,2e-05,5e-05,4e-05,-0.00017,-2e-05,6,16
27039,-1e-05,-3e-05,-2e-05,2e-05,5e-05,4e-05,-0.00017,-2e-05,6,16
27040,-1e-05,-3e-05,-2e-05,2e-05,5e-05,4e-05,-0.00017,-2e-05,6,16
27041,-1e-05,-3e-05,-2e-05,2e-05,5e-05,4e-05,-0.00017,-2e-05,6,16
27042,-1e-05,-3e-05,-2e-05,2e-05,5e-05,4e-05,-0.00017,-2e-05,6,16
27043,-1e-05,-3e-05,-2e-05,2e-05,5e-05,4e-05,-0.00017,-2e-05,6,16
27044,-1e-05,-3e-05,-2e-05,2e-05,5e-05,4e-05,-0.00017,-2e-05,6,16
27045,-1e-05,-3e-05,-2e-05,2e-05,5e-05,4e-05,-0.00017,-2e-05,6,16
27046,-1e-05,-3e-05,-2e-05,2e-05,5e-05,4e-05,-0.00017,-2e-05,6,16
27047,-1e-05,-3e-05,-2e-05,2e-05,5e-05,4e-05,-0.00017,-2e-05,6,16
27048,-1e-05,-3e-05,-2e-05,2e-05,5e-05,4e-05,-0.00017,-2e-05,6,16
27049,-1e-05,-3e-05,-2e-05,2e-05,5e-05,4e-05,-0.00017,-2e-05,6,16
27050,-1e-05,-3e-05,-2e-05,2e-05,5e-05,4e-05,-0.00017,-2e-05,6,16
27051,-1e-05,-3e-05,-2e-05,2e-05,5e-05,4e-05,-0.00017,-2e-05,6,16
27052,-1e-05,-3e-05,-2e-05,2e-05,5e-05,4e-05,-0.00017,-2e-05,6,16
27053,-1e-05,-3e-05,-2e-05,2e-05,5e-05,4e-05,-0.00017,-2e-05,6,16
27054,-1e-05,-3e-05,-2e-05,2e-05,5e-05,4e-05,-0.00017,-2e-05,6,16
27055,0.00013,-4e-05,3e-05,7e-05,0.00011,3e-05,8e-05,8e-05,6,16
27056,-3e-05,4e-05,4e-05,8e-05,-8e-05,-2e-05,-3e-05,-6e-05,6,16
27057,-6e-05,-6e-05,-2e-05,-0.00011,-0.00021,-0.00026,-0.00017,-1e-05,6,16
27058,-6e-05,-6e-05,-2e-05,-0.00011,-0.00021,-0.00026,-0.00017,-1e-05,6,16
27059,-6e-05,-6e-05,-2e-05,-0.00011,-0.00021,-0.00026,-0.00017,-1e-05,6,16
27060,-6e-05,-6e-05,-2e-05,-0.00011,-0.00021,-0.00026,-0.00017,-1e-05,6,16
27061,-6e-05,-6e-05,-2e-05,-0.00011,-0.00021,-0.00026,-0.00017,-1e-05,6,16
27062,-6e-05,-6e-05,-2e-05,-0.00011,-0.00021,-0.00026,-0.00017,-1e-05,6,16
27063,-6e-05,-6e-05,-2e-05,-0.00011,-0.00021,-0.00026,-0.00017,-1e-05,6,16
27064,-6e-05,-6e-05,-2e-05,-0.00011,-0.00021,-0.00026,-0.00017,-1e-05,6,16
27065,-6e-05,-6e-05,-2e-05,-0.00011,-0.00021,-0.00026,-0.00017,-1e-05,6,16
27066,-6e-05,-6e-05,-2e-05,-0.00011,-0.00021,-0.00026,-0.00017,-1e-05,6,16
27067,-6e-05,-6e-05,-2e-05,-0.00011,-0.00021,-0.00026,-0.00017,-1e-05,6,16
27068,-6e-05,-6e-05,-2e-05,-0.00011,-0.00021,-0.00026,-0.00017,-1e-05,6,16
27069,-6e-05,-6e-05,-2e-05,-0.00011,-0.00021,-0.00026,-0.00017,-1e-05,6,16
27070,4e-05,8e-05,2e-05,0.0002,0.00055,-1e-05,0.00017,-2e-05,6,16
27071,4e-05,8e-05,2e-05,0.0002,0.00055,-1e-05,0.00017,-2e-05,6,16
27072,4e-05,8e-05,2e-05,0.0002,0.00055,-1e-05,0.00017,-2e-05,6,16
27073,4e-05,8e-05,2e-05,0.0002,0.00055,-1e-05,0.00017,-2e-05,6,16
27074,4e-05,8e-05,2e-05,0.0002,0.00055,-1e-05,0.00017,-2e-05,6,16
27075,4e-05,8e-05,2e-05,0.0002,0.00055,-1e-05,0.00017,-2e-05,6,16
27076,-0.00011,-8e-05,-8e-05,-0.00012,-4e-05,-0.00014,-0.00014,-0.00026,6,16
27077,-0.00011,-8e-05,-8e-05,-0.00012,-4e-05,-0.00014,-0.00014,-0.00026,6,16
27078,-0.00011,-8e-05,-8e-05,-0.00012,-4e-05,-0.00014,-0.00014,-0.00026,6,16
27079,-0.00011,-8e-05,-8e-05,-0.00012,-4e-05,-0.00014,-0.00014,-0.00026,6,16
27080,-0.00011,-8e-05,-8e-05,-0.00012,-4e-05,-0.00014,-0.00014,-0.00026,6,16
27081,-0.00011,-8e-05,-8e-05,-0.00012,-4e-05,-0.00014,-0.00014,-0.00026,6,16
27082,-0.00011,-8e-05,-8e-05,-0.00012,-4e-05,-0.00014,-0.00014,-0.00026,6,16
27083,-0.00011,-8e-05,-8e-05,-0.00012,-4e-05,-0.00014,-0.00014,-0.00026,6,16
27084,-0.00011,-8e-05,-8e-05,-0.00012,-4e-05,-0.00014,-0.00014,-0.00026,6,16
27085,-0.00012,-6e-05,-1e-05,3e-05,-0.00023,-0.00018,-0.00017,-5e-05,6,16
27086,1e-05,0,-6e-05,-0.0002,-0.00016,-6e-05,8e-05,-1e-05,6,16
27088,-4e-05,1e-05,2e-05,5e-05,-2e-05,0.00014,0.00026,-0.00016,6,16
27089,-4e-05,1e-05,2e-05,5e-05,-2e-05,0.00014,0.00026,-0.00016,6,16
27090,-4e-05,1e-05,2e-05,5e-05,-2e-05,0.00014,0.00026,-0.00016,6,16
27091,-4e-05,1e-05,2e-05,5e-05,-2e-05,0.00014,0.00026,-0.00016,6,16
27092,-4e-05,1e-05,2e-05,5e-05,-2e-05,0.00014,0.00026,-0.00016,6,16
27093,-4e-05,1e-05,2e-05,5e-05,-2e-05,0.00014,0.00026,-0.00016,6,16
27094,-4e-05,1e-05,2e-05,5e-05,-2e-05,0.00014,0.00026,-0.00016,6,16
27095,-4e-05,1e-05,2e-05,5e-05,-2e-05,0.00014,0.00026,-0.00016,6,16
27096,-4e-05,1e-05,2e-05,5e-05,-2e-05,0.00014,0.00026,-0.00016,6,16
27097,-4e-05,1e-05,2e-05,5e-05,-2e-05,0.00014,0.00026,-0.00016,6,16
27098,-4e-05,1e-05,2e-05,5e-05,-2e-05,0.00014,0.00026,-0.00016,6,16
27099,-4e-05,1e-05,2e-05,5e-05,-2e-05,0.00014,0.00026,-0.00016,6,16
27100,-4e-05,1e-05,2e-05,5e-05,-2e-05,0.00014,0.00026,-0.00016,6,16
27101,-4e-05,1e-05,2e-05,5e-05,-2e-05,0.00014,0.00026,-0.00016,6,16
27102,-4e-05,1e-05,2e-05,5e-05,-2e-05,0.00014,0.00026,-0.00016,6,16
27103,-4e-05,1e-05,2e-05,5e-05,-2e-05,0.00014,0.00026,-0.00016,6,16
27104,-4e-05,1e-05,2e-05,5e-05,-2e-05,0.00014,0.00026,-0.00016,6,16
27105,-4e-05,1e-05,2e-05,5e-05,-2e-05,0.00014,0.00026,-0.00016,6,16
27106,-4e-05,1e-05,2e-05,5e-05,-2e-05,0.00014,0.00026,-0.00016,6,16
27107,0,2e-05,0,-8e-05,-0.00021,6e-05,0.00039,3e-05,6,16
27108,0,2e-05,0,-8e-05,-0.00021,6e-05,0.00039,3e-05,6,16
27109,-1e-05,0,-2e-05,6e-05,0.00022,-0.00015,-0.00043,-0.00014,6,16
27111,-1e-05,0,-2e-05,6e-05,0.00022,-0.00015,-0.00043,-0.00014,6,16
27112,-1e-05,0,-2e-05,6e-05,0.00022,-0.00015,-0.00043,-0.00014,6,16
27113,-1e-05,0,-2e-05,6e-05,0.00022,-0.00015,-0.00043,-0.00014,6,16
27114,-1e-05,0,-2e-05,6e-05,0.00022,-0.00015,-0.00043,-0.00014,6,16
27115,-1e-05,0,-2e-05,6e-05,0.00022,-0.00015,-0.00043,-0.00014,6,16
27116,-1e-05,0,-2e-05,6e-05,0.00022,-0.00015,-0.00043,-0.00014,6,16
27117,-1e-05,0,-2e-05,6e-05,0.00022,-0.00015,-0.00043,-0.00014,6,16
27118,-1e-05,0,-2e-05,6e-05,0.00022,-0.00015,-0.00043,-0.00014,6,16
27119,-1e-05,0,-2e-05,6e-05,0.00022,-0.00015,-0.00043,-0.00014,6,16
27120,-1e-05,0,-2e-05,6e-05,0.00022,-0.00015,-0.00043,-0.00014,6,16
27121,-1e-05,0,-2e-05,6e-05,0.00022,-0.00015,-0.00043,-0.00014,6,16
27122,5e-05,2e-05,0,-3e-05,-3e-05,-1e-05,-0.00016,0,6,16
27123,5e-05,2e-05,0,-3e-05,-3e-05,-1e-05,-0.00016,0,6,16
27124,5e-05,2e-05,0,-3e-05,-3e-05,-1e-05,-0.00016,0,6,16
27125,5e-05,2e-05,0,-3e-05,-3e-05,-1e-05,-0.00016,0,6,16
27126,5e-05,2e-05,0,-3e-05,-3e-05,-1e-05,-0.00016,0,6,16
27127,5e-05,2e-05,0,-3e-05,-3e-05,-1e-05,-0.00016,0,6,16
27128,5e-05,2e-05,0,-3e-05,-3e-05,-1e-05,-0.00016,0,6,16
27129,-4e-05,-4e-05,-4e-05,-0.00012,-5e-05,-0.00017,2e-05,-0.0002,6,16
27130,-4e-05,-4e-05,-4e-05,-0.00012,-5e-05,-0.00017,2e-05,-0.0002,6,16
27131,-4e-05,-4e-05,-4e-05,-0.00012,-5e-05,-0.00017,2e-05,-0.0002,6,16
27132,-4e-05,-4e-05,-4e-05,-0.00012,-5e-05,-0.00017,2e-05,-0.0002,6,16
27133,-4e-05,-4e-05,-4e-05,-0.00012,-5e-05,-0.00017,2e-05,-0.0002,6,16
27134,-4e-05,-4e-05,-4e-05,-0.00012,-5e-05,-0.00017,2e-05,-0.0002,6,16
27135,-4e-05,-4e-05,-4e-05,-0.00012,-5e-05,-0.00017,2e-05,-0.0002,6,16
27136,-4e-05,-4e-05,-4e-05,-0.00012,-5e-05,-0.00017,2e-05,-0.0002,6,16
27138,-4e-05,-4e-05,-4e-05,-0.00012,-5e-05,-0.00017,2e-05,-0.0002,6,16
27139,-4e-05,-4e-05,-4e-05,-0.00012,-5e-05,-0.00017,2e-05,-0.0002,6,16
27140,-4e-05,-4e-05,-4e-05,-0.00012,-5e-05,-0.00017,2e-05,-0.0002,6,16
27141,-4e-05,-4e-05,-4e-05,-0.00012,-5e-05,-0.00017,2e-05,-0.0002,6,16
27142,-4e-05,-4e-05,-4e-05,-0.00012,-5e-05,-0.00017,2e-05,-0.0002,6,16
27143,-4e-05,-4e-05,-4e-05,-0.00012,-5e-05,-0.00017,2e-05,-0.0002,6,16
27144,-4e-05,-4e-05,-4e-05,-0.00012,-5e-05,-0.00017,2e-05,-0.0002,6,16
27145,-4e-05,-4e-05,-4e-05,-0.00012,-5e-05,-0.00017,2e-05,-0.0002,6,16
27146,-7e-05,-6e-05,-4e-05,-8e-05,5e-05,-1e-05,-7e-05,-3e-05,6,16
27147,-7e-05,-6e-05,-4e-05,-8e-05,5e-05,-1e-05,-7e-05,-3e-05,6,16
27148,-7e-05,-6e-05,-4e-05,-8e-05,5e-05,-1e-05,-7e-05,-3e-05,6,16
27149,-7e-05,-6e-05,-4e-05,-8e-05,5e-05,-1e-05,-7e-05,-3e-05,6,16
27150,-7e-05,-6e-05,-4e-05,-8e-05,5e-05,-1e-05,-7e-05,-3e-05,6,16
27151,0,-4e-05,-4e-05,-6e-05,0.00023,0.00014,7e-05,-0.00014,6,16
27152,0,-4e-05,-4e-05,-6e-05,0.00023,0.00014,7e-05,-0.00014,6,16
27153,0,-4e-05,-4e-05,-6e-05,0.00023,0.00014,7e-05,-0.00014,6,16
27154,0,-4e-05,-4e-05,-6e-05,0.00023,0.00014,7e-05,-0.00014,6,16
27155,0,-4e-05,-4e-05,-6e-05,0.00023,0.00014,7e-05,-0.00014,6,16
27156,0,-4e-05,-4e-05,-6e-05,0.00023,0.00014,7e-05,-0.00014,6,16
27157,0,-4e-05,-4e-05,-6e-05,0.00023,0.00014,7e-05,-0.00014,6,16
27158,0,-4e-05,-4e-05,-6e-05,0.00023,0.00014,7e-05,-0.00014,6,16
27159,0,-4e-05,-4e-05,-6e-05,0.00023,0.00014,7e-05,-0.00014,6,16
27160,0,-4e-05,-4e-05,-6e-05,0.00023,0.00014,7e-05,-0.00014,6,16
27161,0,-4e-05,-4e-05,-6e-05,0.00023,0.00014,7e-05,-0.00014,6,16
27162,0,-4e-05,-4e-05,-6e-05,0.00023,0.00014,7e-05,-0.00014,6,16
27163,0,-4e-05,-4e-05,-6e-05,0.00023,0.00014,7e-05,-0.00014,6,16
27164,0,-4e-05,-4e-05,-6e-05,0.00023,0.00014,7e-05,-0.00014,6,16
27165,0,-4e-05,-4e-05,-6e-05,0.00023,0.00014,7e-05,-0.00014,6,16
27166,0,-4e-05,-4e-05,-6e-05,0.00023,0.00014,7e-05,-0.00014,6,16
27167,1e-05,0,-2e-05,0.00011,0.0003,0.00019,-0.00037,0,6,16
27168,1e-05,0,-2e-05,0.00011,0.0003,0.00019,-0.00037,0,6,16
27169,7e-05,5e-05,2e-05,2e-05,-0.00015,-8e-05,0.00017,0.00022,6,16
27170,7e-05,5e-05,2e-05,2e-05,-0.00015,-8e-05,0.00017,0.00022,6,16
27171,7e-05,5e-05,2e-05,2e-05,-0.00015,-8e-05,0.00017,0.00022,6,16
27172,7e-05,5e-05,2e-05,2e-05,-0.00015,-8e-05,0.00017,0.00022,6,16
27173,7e-05,5e-05,2e-05,2e-05,-0.00015,-8e-05,0.00017,0.00022,6,16
27174,7e-05,5e-05,2e-05,2e-05,-0.00015,-8e-05,0.00017,0.00022,6,16
27175,7e-05,5e-05,2e-05,2e-05,-0.00015,-8e-05,0.00017,0.00022,6,16
27176,7e-05,5e-05,2e-05,2e-05,-0.00015,-8e-05,0.00017,0.00022,6,16
27177,7e-05,5e-05,2e-05,2e-05,-0.00015,-8e-05,0.00017,0.00022,6,16
27178,7e-05,5e-05,2e-05,2e-05,-0.00015,-8e-05,0.00017,0.00022,6,16
27179,7e-05,5e-05,2e-05,2e-05,-0.00015,-8e-05,0.00017,0.00022,6,16
27180,7e-05,5e-05,2e-05,2e-05,-0.00015,-8e-05,0.00017,0.00022,6,16
27181,7e-05,5e-05,2e-05,2e-05,-0.00015,-8e-05,0.00017,0.00022,6,16
27182,0,-1e-05,3e-05,1e-05,-3e-05,-0.00011,-7e-05,2e-05,6,16
27183,0,-1e-05,3e-05,1e-05,-3e-05,-0.00011,-7e-05,2e-05,6,16
27184,0,-1e-05,3e-05,1e-05,-3e-05,-0.00011,-7e-05,2e-05,6,16
27185,0,-1e-05,3e-05,1e-05,-3e-05,-0.00011,-7e-05,2e-05,6,16
27186,0,-1e-05,3e-05,1e-05,-3e-05,-0.00011,-7e-05,2e-05,6,16
27188,0,-1e-05,3e-05,1e-05,-3e-05,-0.00011,-7e-05,2e-05,6,16
27189,0,-1e-05,3e-05,1e-05,-3e-05,-0.00011,-7e-05,2e-05,6,16
27190,0,-1e-05,3e-05,1e-05,-3e-05,-0.00011,-7e-05,2e-05,6,16
27191,0,-1e-05,3e-05,1e-05,-3e-05,-0.00011,-7e-05,2e-05,6,16
27192,0,-1e-05,3e-05,1e-05,-3e-05,-0.00011,-7e-05,2e-05,6,16
27193,0,-1e-05,3e-05,1e-05,-3e-05,-0.00011,-7e-05,2e-05,6,16
27194,0,-1e-05,3e-05,1e-05,-3e-05,-0.00011,-7e-05,2e-05,6,16
27195,0,-1e-05,3e-05,1e-05,-3e-05,-0.00011,-7e-05,2e-05,6,16
27196,-1e-05,-4e-05,-7e-05,1e-05,-9e-05,-3e-05,7e-05,-1e-05,6,16
27197,-1e-05,-4e-05,-7e-05,1e-05,-9e-05,-3e-05,7e-05,-1e-05,6,16
27198,-1e-05,-4e-05,-7e-05,1e-05,-9e-05,-3e-05,7e-05,-1e-05,6,16
27199,-1e-05,-4e-05,-7e-05,1e-05,-9e-05,-3e-05,7e-05,-1e-05,6,16
27200,-1e-05,-4e-05,-7e-05,1e-05,-9e-05,-3e-05,7e-05,-1e-05,6,16
27201,-1e-05,-4e-05,-7e-05,1e-05,-9e-05,-3e-05,7e-05,-1e-05,6,16
27202,-1e-05,-4e-05,-7e-05,1e-05,-9e-05,-3e-05,7e-05,-1e-05,6,16
27203,-1e-05,-4e-05,-7e-05,1e-05,-9e-05,-3e-05,7e-05,-1e-05,6,16
27204,-1e-05,-4e-05,-7e-05,1e-05,-9e-05,-3e-05,7e-05,-1e-05,6,16
27205,-3e-05,-6e-05,-4e-05,-7e-05,-0.0002,0,-7e-05,-7e-05,6,16
27206,-4e-05,-7e-05,-1e-05,4e-05,0.00054,0.00031,-0.00014,-8e-05,6,16
27207,8e-05,6e-05,4e-05,-0.00012,-0.00042,-0.00021,0.00011,0.00022,6,16
27208,8e-05,6e-05,4e-05,-0.00012,-0.00042,-0.00021,0.00011,0.00022,6,16
27209,8e-05,6e-05,4e-05,-0.00012,-0.00042,-0.00021,0.00011,0.00022,6,16
27210,8e-05,6e-05,4e-05,-0.00012,-0.00042,-0.00021,0.00011,0.00022,6,16
27211,8e-05,6e-05,4e-05,-0.00012,-0.00042,-0.00021,0.00011,0.00022,6,16
27212,8e-05,6e-05,4e-05,-0.00012,-0.00042,-0.00021,0.00011,0.00022,6,16
27213,8e-05,6e-05,4e-05,-0.00012,-0.00042,-0.00021,0.00011,0.00022,6,16
27214,8e-05,6e-05,4e-05,-0.00012,-0.00042,-0.00021,0.00011,0.00022,6,16
27215,8e-05,6e-05,4e-05,-0.00012,-0.00042,-0.00021,0.00011,0.00022,6,16
27216,8e-05,6e-05,4e-05,-0.00012,-0.00042,-0.00021,0.00011,0.00022,6,16
27217,8e-05,6e-05,4e-05,-0.00012,-0.00042,-0.00021,0.00011,0.00022,6,16
27218,8e-05,6e-05,4e-05,-0.00012,-0.00042,-0.00021,0.00011,0.00022,6,16
27219,8e-05,6e-05,4e-05,-0.00012,-0.00042,-0.00021,0.00011,0.00022,6,16
27220,8e-05,6e-05,4e-05,-0.00012,-0.00042,-0.00021,0.00011,0.00022,6,16
27221,8e-05,6e-05,4e-05,-0.00012,-0.00042,-0.00021,0.00011,0.00022,6,16
27222,8e-05,6e-05,4e-05,-0.00012,-0.00042,-0.00021,0.00011,0.00022,6,16
27223,8e-05,6e-05,4e-05,-0.00012,-0.00042,-0.00021,0.00011,0.00022,6,16
27224,8e-05,6e-05,4e-05,-0.00012,-0.00042,-0.00021,0.00011,0.00022,6,16
27225,8e-05,6e-05,4e-05,-0.00012,-0.00042,-0.00021,0.00011,0.00022,6,16
27226,8e-05,6e-05,4e-05,-0.00012,-0.00042,-0.00021,0.00011,0.00022,6,16
27227,0,-8e-05,2e-05,0,0.0002,-9e-05,-0.00019,-4e-05,6,16
27228,0,-8e-05,2e-05,0,0.0002,-9e-05,-0.00019,-4e-05,6,16
27229,-0.00011,-3e-05,4e-05,-6e-05,-9e-05,0.00025,-1e-05,-0.00011,6,16
27230,-0.00011,-3e-05,4e-05,-6e-05,-9e-05,0.00025,-1e-05,-0.00011,6,16
27231,-0.00011,-3e-05,4e-05,-6e-05,-9e-05,0.00025,-1e-05,-0.00011,6,16
27232,-0.00011,-3e-05,4e-05,-6e-05,-9e-05,0.00025,-1e-05,-0.00011,6,16
27233,-0.00011,-3e-05,4e-05,-6e-05,-9e-05,0.00025,-1e-05,-0.00011,6,16
27234,-0.00011,-3e-05,4e-05,-6e-05,-9e-05,0.00025,-1e-05,-0.00011,6,16
27235,-0.00011,-3e-05,4e-05,-6e-05,-9e-05,0.00025,-1e-05,-0.00011,6,16
27236,-0.00011,-3e-05,4e-05,-6e-05,-9e-05,0.00025,-1e-05,-0.00011,6,16
27238,-0.00011,-3e-05,4e-05,-6e-05,-9e-05,0.00025,-1e-05,-0.00011,6,16
27239,-0.00011,-3e-05,4e-05,-6e-05,-9e-05,0.00025,-1e-05,-0.00011,6,16
27240,-0.00011,-3e-05,4e-05,-6e-05,-9e-05,0.00025,-1e-05,-0.00011,6,16
27241,-0.00011,-3e-05,4e-05,-6e-05,-9e-05,0.00025,-1e-05,-0.00011,6,16
27242,-0.00011,-3e-05,4e-05,-6e-05,-9e-05,0.00025,-1e-05,-0.00011,6,16
27243,5e-05,-2e-05,-0.00011,-7e-05,-7e-05,-2e-05,-0.00019,6e-05,6,16
27244,-8e-05,2e-05,3e-05,-9e-05,-0.00023,5e-05,7e-05,-0.00017,6,16
27245,-8e-05,2e-05,3e-05,-9e-05,-0.00023,5e-05,7e-05,-0.00017,6,16
27246,-8e-05,2e-05,3e-05,-9e-05,-0.00023,5e-05,7e-05,-0.00017,6,16
27247,-8e-05,2e-05,3e-05,-9e-05,-0.00023,5e-05,7e-05,-0.00017,6,16
27248,-1e-05,-4e-05,-3e-05,-9e-05,-0.00027,-6e-05,-1e-05,0.00015,6,16
27249,4e-05,2e-05,1e-05,4e-05,2e-05,7e-05,4e-05,0.0001,6,16
27250,4e-05,2e-05,1e-05,4e-05,2e-05,7e-05,4e-05,0.0001,6,16
27251,4e-05,2e-05,1e-05,4e-05,2e-05,7e-05,4e-05,0.0001,6,16
27252,4e-05,2e-05,1e-05,4e-05,2e-05,7e-05,4e-05,0.0001,6,16
27253,4e-05,2e-05,1e-05,4e-05,2e-05,7e-05,4e-05,0.0001,6,16
27254,4e-05,2e-05,1e-05,4e-05,2e-05,7e-05,4e-05,0.0001,6,16
27255,4e-05,2e-05,1e-05,4e-05,2e-05,7e-05,4e-05,0.0001,6,16
27256,4e-05,2e-05,1e-05,4e-05,2e-05,7e-05,4e-05,0.0001,6,16
27257,4e-05,2e-05,1e-05,4e-05,2e-05,7e-05,4e-05,0.0001,6,16
27258,4e-05,2e-05,1e-05,4e-05,2e-05,7e-05,4e-05,0.0001,6,16
27259,4e-05,2e-05,1e-05,4e-05,2e-05,7e-05,4e-05,0.0001,6,16
27260,4e-05,2e-05,1e-05,4e-05,2e-05,7e-05,4e-05,0.0001,6,16
27261,4e-05,2e-05,1e-05,4e-05,2e-05,7e-05,4e-05,0.0001,6,16
27262,4e-05,2e-05,1e-05,4e-05,2e-05,7e-05,4e-05,0.0001,6,16
27263,4e-05,2e-05,1e-05,4e-05,2e-05,7e-05,4e-05,0.0001,6,16
27264,4e-05,2e-05,1e-05,4e-05,2e-05,7e-05,4e-05,0.0001,6,16
27265,-8e-05,-4e-05,-4e-05,-7e-05,0.00019,0.0001,0,-0.00013,6,16
27266,-8e-05,-4e-05,-4e-05,-7e-05,0.00019,0.0001,0,-0.00013,6,16
27267,1e-05,-1e-05,-3e-05,2e-05,0.00011,2e-05,0,-2e-05,6,16
27268,1e-05,-1e-05,-3e-05,2e-05,0.00011,2e-05,0,-2e-05,6,16
27269,1e-05,-1e-05,-3e-05,2e-05,0.00011,2e-05,0,-2e-05,6,16
27270,1e-05,-1e-05,-3e-05,2e-05,0.00011,2e-05,0,-2e-05,6,16
27271,1e-05,-1e-05,-3e-05,2e-05,0.00011,2e-05,0,-2e-05,6,16
27272,1e-05,-1e-05,-3e-05,2e-05,0.00011,2e-05,0,-2e-05,6,16
27273,1e-05,-1e-05,-3e-05,2e-05,0.00011,2e-05,0,-2e-05,6,16
27274,1e-05,-1e-05,-3e-05,2e-05,0.00011,2e-05,0,-2e-05,6,16
27275,1e-05,-1e-05,-3e-05,2e-05,0.00011,2e-05,0,-2e-05,6,16
27276,1e-05,-1e-05,-3e-05,2e-05,0.00011,2e-05,0,-2e-05,6,16
27277,1e-05,-1e-05,-3e-05,2e-05,0.00011,2e-05,0,-2e-05,6,16
27278,1e-05,-1e-05,-3e-05,2e-05,0.00011,2e-05,0,-2e-05,6,16
27279,1e-05,-1e-05,-3e-05,2e-05,0.00011,2e-05,0,-2e-05,6,16
27280,1e-05,-1e-05,-3e-05,2e-05,0.00011,2e-05,0,-2e-05,6,16
27281,1e-05,-1e-05,-3e-05,2e-05,0.00011,2e-05,0,-2e-05,6,16
27282,1e-05,-1e-05,-3e-05,2e-05,0.00011,2e-05,0,-2e-05,6,16
27283,1e-05,-1e-05,-3e-05,2e-05,0.00011,2e-05,0,-2e-05,6,16
27284,1e-05,-1e-05,-3e-05,2e-05,0.00011,2e-05,0,-2e-05,6,16
27285,1e-05,-1e-05,-3e-05,2e-05,0.00011,2e-05,0,-2e-05,6,16
27286,1e-05,-1e-05,-3e-05,2e-05,0.00011,2e-05,0,-2e-05,6,16
27288,2e-05,0,2e-05,0.00022,0.00045,0.0003,0.00013,0.0002,6,16
27289,2e-05,0,2e-05,0.00022,0.00045,0.0003,0.00013,0.0002,6,16
27290,2e-05,0,2e-05,0.00022,0.00045,0.0003,0.00013,0.0002,6,16
27291,2e-05,0,2e-05,0.00022,0.00045,0.0003,0.00013,0.0002,6,16
27292,2e-05,0,2e-05,0.00022,0.00045,0.0003,0.00013,0.0002,6,16
27293,2e-05,0,2e-05,0.00022,0.00045,0.0003,0.00013,0.0002,6,16
27294,2e-05,0,2e-05,0.00022,0.00045,0.0003,0.00013,0.0002,6,16
27295,2e-05,0,2e-05,0.00022,0.00045,0.0003,0.00013,0.0002,6,16
27296,2e-05,0,2e-05,0.00022,0.00045,0.0003,0.00013,0.0002,6,16
27297,2e-05,0,2e-05,0.00022,0.00045,0.0003,0.00013,0.0002,6,16
27298,2e-05,0,2e-05,0.00022,0.00045,0.0003,0.00013,0.0002,6,16
27299,2e-05,0,2e-05,0.00022,0.00045,0.0003,0.00013,0.0002,6,16
27300,2e-05,0,2e-05,0.00022,0.00045,0.0003,0.00013,0.0002,6,16
27301,2e-05,0,2e-05,0.00022,0.00045,0.0003,0.00013,0.0002,6,16
27302,2e-05,0,2e-05,0.00022,0.00045,0.0003,0.00013,0.0002,6,16
27303,2e-05,0,2e-05,0.00022,0.00045,0.0003,0.00013,0.0002,6,16
27304,2e-05,0,2e-05,0.00022,0.00045,0.0003,0.00013,0.0002,6,16
27305,2e-05,0,2e-05,0.00022,0.00045,0.0003,0.00013,0.0002,6,16
27306,2e-05,0,2e-05,0.00022,0.00045,0.0003,0.00013,0.0002,6,16
27307,2e-05,0,2e-05,0.00022,0.00045,0.0003,0.00013,0.0002,6,16
27308,2e-05,0,2e-05,0.00022,0.00045,0.0003,0.00013,0.0002,6,16
27309,2e-05,0,2e-05,0.00022,0.00045,0.0003,0.00013,0.0002,6,16
27310,2e-05,0,2e-05,0.00022,0.00045,0.0003,0.00013,0.0002,6,16
27311,-2e-05,-5e-05,-8e-05,-0.00016,-0.0004,-0.00019,-7e-05,-3e-05,6,16
27312,-2e-05,-5e-05,-8e-05,-0.00016,-0.0004,-0.00019,-7e-05,-3e-05,6,16
27313,-1e-05,-4e-05,7e-05,0.0001,0.00034,0.00028,0.00028,0.0001,6,16
27314,-1e-05,-4e-05,7e-05,0.0001,0.00034,0.00028,0.00028,0.0001,6,16
27315,-1e-05,-4e-05,7e-05,0.0001,0.00034,0.00028,0.00028,0.0001,6,16
27316,-1e-05,-4e-05,7e-05,0.0001,0.00034,0.00028,0.00028,0.0001,6,16
27317,-1e-05,-4e-05,7e-05,0.0001,0.00034,0.00028,0.00028,0.0001,6,16
27318,-1e-05,-4e-05,7e-05,0.0001,0.00034,0.00028,0.00028,0.0001,6,16
27319,-1e-05,-4e-05,7e-05,0.0001,0.00034,0.00028,0.00028,0.0001,6,16
27320,-1e-05,-4e-05,7e-05,0.0001,0.00034,0.00028,0.00028,0.0001,6,16
27321,-1e-05,-4e-05,7e-05,0.0001,0.00034,0.00028,0.00028,0.0001,6,16
27322,-1e-05,-4e-05,7e-05,0.0001,0.00034,0.00028,0.00028,0.0001,6,16
27323,-1e-05,-4e-05,7e-05,0.0001,0.00034,0.00028,0.00028,0.0001,6,16
27324,-1e-05,-4e-05,7e-05,0.0001,0.00034,0.00028,0.00028,0.0001,6,16
27325,4e-05,1e-05,-1e-05,0,-2e-05,-6e-05,9e-05,-1e-05,6,16
27326,-2e-05,-1e-05,1e-05,2e-05,-9e-05,2e-05,0.00019,-9e-05,6,16
27327,-2e-05,-2e-05,-3e-05,-6e-05,-8e-05,-0.00018,-5e-05,-0.00017,6,16
27328,-2e-05,-2e-05,-3e-05,-6e-05,-8e-05,-0.00018,-5e-05,-0.00017,6,16
27329,-2e-05,-2e-05,-3e-05,-6e-05,-8e-05,-0.00018,-5e-05,-0.00017,6,16
27330,-2e-05,-2e-05,-3e-05,-6e-05,-8e-05,-0.00018,-5e-05,-0.00017,6,16
27331,-2e-05,-2e-05,-3e-05,-6e-05,-8e-05,-0.00018,-5e-05,-0.00017,6,16
27332,-2e-05,-2e-05,-3e-05,-6e-05,-8e-05,-0.00018,-5e-05,-0.00017,6,16
27333,-2e-05,-2e-05,-3e-05,-6e-05,-8e-05,-0.00018,-5e-05,-0.00017,6,16
27334,-2e-05,-2e-05,-3e-05,-6e-05,-8e-05,-0.00018,-5e-05,-0.00017,6,16
27335,-2e-05,-2e-05,-3e-05,-6e-05,-8e-05,-0.00018,-5e-05,-0.00017,6,16
27336,-2e-05,-2e-05,-3e-05,-6e-05,-8e-05,-0.00018,-5e-05,-0.00017,6,16
27338,-2e-05,-2e-05,-3e-05,-6e-05,-8e-05,-0.00018,-5e-05,-0.00017,6,16
27339,-2e-05,-2e-05,-3e-05,-6e-05,-8e-05,-0.00018,-5e-05,-0.00017,6,16
27340,-2e-05,-2e-05,-3e-05,-6e-05,-8e-05,-0.00018,-5e-05,-0.00017,6,16
27341,-2e-05,-2e-05,-3e-05,-6e-05,-8e-05,-0.00018,-5e-05,-0.00017,6,16
27342,-2e-05,-2e-05,-3e-05,-6e-05,-8e-05,-0.00018,-5e-05,-0.00017,6,16
27343,-2e-05,-2e-05,-3e-05,-6e-05,-8e-05,-0.00018,-5e-05,-0.00017,6,16
27344,-2e-05,-2e-05,-3e-05,-6e-05,-8e-05,-0.00018,-5e-05,-0.00017,6,16
27345,-2e-05,-2e-05,-3e-05,-6e-05,-8e-05,-0.00018,-5e-05,-0.00017,6,16
27346,-4e-05,-1e-05,-5e-05,-6e-05,-3e-05,0.00016,0.00011,5e-05,6,16
27347,-4e-05,-1e-05,-5e-05,-6e-05,-3e-05,0.00016,0.00011,5e-05,6,16
27348,-4e-05,-1e-05,-5e-05,-6e-05,-3e-05,0.00016,0.00011,5e-05,6,16
27349,-4e-05,-1e-05,-5e-05,-6e-05,-3e-05,0.00016,0.00011,5e-05,6,16
27350,-4e-05,-1e-05,-5e-05,-6e-05,-3e-05,0.00016,0.00011,5e-05,6,16
27351,-4e-05,-1e-05,-5e-05,-6e-05,-3e-05,0.00016,0.00011,5e-05,6,16
27352,-4e-05,-1e-05,-5e-05,-6e-05,-3e-05,0.00016,0.00011,5e-05,6,16
27353,-4e-05,-1e-05,-5e-05,-6e-05,-3e-05,0.00016,0.00011,5e-05,6,16
27354,-4e-05,-1e-05,-5e-05,-6e-05,-3e-05,0.00016,0.00011,5e-05,6,16
27355,-4e-05,-7e-05,-9e-05,-0.00013,-0.00045,-0.00055,-0.0001,-8e-05,6,16
27356,-4e-05,-7e-05,-9e-05,-0.00013,-0.00045,-0.00055,-0.0001,-8e-05,6,16
27357,-4e-05,-7e-05,-9e-05,-0.00013,-0.00045,-0.00055,-0.0001,-8e-05,6,16
27358,-4e-05,-7e-05,-9e-05,-0.00013,-0.00045,-0.00055,-0.0001,-8e-05,6,16
27359,-4e-05,-7e-05,-9e-05,-0.00013,-0.00045,-0.00055,-0.0001,-8e-05,6,16
27360,-4e-05,-7e-05,-9e-05,-0.00013,-0.00045,-0.00055,-0.0001,-8e-05,6,16
27361,1e-05,4e-05,4e-05,-2e-05,-0.0003,-0.00022,3e-05,-4e-05,6,16
27362,1e-05,4e-05,4e-05,-2e-05,-0.0003,-0.00022,3e-05,-4e-05,6,16
27363,1e-05,4e-05,4e-05,-2e-05,-0.0003,-0.00022,3e-05,-4e-05,6,16
27364,1e-05,4e-05,4e-05,-2e-05,-0.0003,-0.00022,3e-05,-4e-05,6,16
27365,1e-05,4e-05,4e-05,-2e-05,-0.0003,-0.00022,3e-05,-4e-05,6,16
27366,1e-05,4e-05,4e-05,-2e-05,-0.0003,-0.00022,3e-05,-4e-05,6,16
27367,1e-05,4e-05,4e-05,-2e-05,-0.0003,-0.00022,3e-05,-4e-05,6,16
27368,1e-05,4e-05,4e-05,-2e-05,-0.0003,-0.00022,3e-05,-4e-05,6,16
27369,1e-05,4e-05,4e-05,-2e-05,-0.0003,-0.00022,3e-05,-4e-05,6,16
27371,1e-05,4e-05,4e-05,-2e-05,-0.0003,-0.00022,3e-05,-4e-05,6,16
27372,-1e-05,-3e-05,-4e-05,-0.0001,7e-05,0.00012,-4e-05,-4e-05,6,16
27373,-1e-05,-3e-05,-4e-05,-0.0001,7e-05,0.00012,-4e-05,-4e-05,6,16
27374,-1e-05,-3e-05,-4e-05,-0.0001,7e-05,0.00012,-4e-05,-4e-05,6,16
27375,-1e-05,-3e-05,-4e-05,-0.0001,7e-05,0.00012,-4e-05,-4e-05,6,16
27376,-1e-05,-3e-05,-4e-05,-0.0001,7e-05,0.00012,-4e-05,-4e-05,6,16
27377,-1e-05,-3e-05,-4e-05,-0.0001,7e-05,0.00012,-4e-05,-4e-05,6,16
27378,-1e-05,-3e-05,-4e-05,-0.0001,7e-05,0.00012,-4e-05,-4e-05,6,16
27379,-1e-05,-3e-05,-4e-05,-0.0001,7e-05,0.00012,-4e-05,-4e-05,6,16
27380,-1e-05,-3e-05,-4e-05,-0.0001,7e-05,0.00012,-4e-05,-4e-05,6,16
27381,-1e-05,-3e-05,-4e-05,-0.0001,7e-05,0.00012,-4e-05,-4e-05,6,16
27382,-1e-05,-3e-05,-4e-05,-0.0001,7e-05,0.00012,-4e-05,-4e-05,6,16
27383,-1e-05,-3e-05,-4e-05,-0.0001,7e-05,0.00012,-4e-05,-4e-05,6,16
27384,-1e-05,-3e-05,-4e-05,-0.0001,7e-05,0.00012,-4e-05,-4e-05,6,16
27385,0,1e-05,-1e-05,-5e-05,-8e-05,5e-05,-0.0001,0,6,16
27386,0,1e-05,-1e-05,-5e-05,-8e-05,5e-05,-0.0001,0,6,16
27388,0,1e-05,-1e-05,-5e-05,-8e-05,5e-05,-0.0001,0,6,16
27389,0,1e-05,-1e-05,-5e-05,-8e-05,5e-05,-0.0001,0,6,16
27390,0,1e-05,-1e-05,-5e-05,-8e-05,5e-05,-0.0001,0,6,16
27391,-4e-05,3e-05,-1e-05,3e-05,-1e-05,9e-05,-0.00019,5e-05,6,16
27392,-4e-05,3e-05,-1e-05,3e-05,-1e-05,9e-05,-0.00019,5e-05,6,16
27393,-4e-05,3e-05,-1e-05,3e-05,-1e-05,9e-05,-0.00019,5e-05,6,16
27394,-4e-05,3e-05,-1e-05,3e-05,-1e-05,9e-05,-0.00019,5e-05,6,16
27395,-4e-05,3e-05,-1e-05,3e-05,-1e-05,9e-05,-0.00019,5e-05,6,16
27396,-4e-05,3e-05,-1e-05,3e-05,-1e-05,9e-05,-0.00019,5e-05,6,16
27397,-4e-05,3e-05,-1e-05,3e-05,-1e-05,9e-05,-0.00019,5e-05,6,16
27398,-4e-05,3e-05,-1e-05,3e-05,-1e-05,9e-05,-0.00019,5e-05,6,16
27399,-4e-05,3e-05,-1e-05,3e-05,-1e-05,9e-05,-0.00019,5e-05,6,16
27400,-4e-05,3e-05,-1e-05,3e-05,-1e-05,9e-05,-0.00019,5e-05,6,16
27401,-4e-05,3e-05,-1e-05,3e-05,-1e-05,9e-05,-0.00019,5e-05,6,16
27402,-4e-05,3e-05,-1e-05,3e-05,-1e-05,9e-05,-0.00019,5e-05,6,16
27403,-4e-05,3e-05,-1e-05,3e-05,-1e-05,9e-05,-0.00019,5e-05,6,16
27404,-4e-05,3e-05,-1e-05,3e-05,-1e-05,9e-05,-0.00019,5e-05,6,16
27405,-4e-05,3e-05,-1e-05,3e-05,-1e-05,9e-05,-0.00019,5e-05,6,16
27406,-4e-05,3e-05,-1e-05,3e-05,-1e-05,9e-05,-0.00019,5e-05,6,16
27407,6e-05,3e-05,0,6e-05,0.00019,4e-05,1e-05,0.00022,6,16
27408,6e-05,3e-05,0,6e-05,0.00019,4e-05,1e-05,0.00022,6,16
27409,-3e-05,1e-05,-1e-05,0,-4e-05,2e-05,-3e-05,4e-05,6,16
27410,-3e-05,1e-05,-1e-05,0,-4e-05,2e-05,-3e-05,4e-05,6,16
27411,-3e-05,1e-05,-1e-05,0,-4e-05,2e-05,-3e-05,4e-05,6,16
27412,-3e-05,1e-05,-1e-05,0,-4e-05,2e-05,-3e-05,4e-05,6,16
27413,-3e-05,1e-05,-1e-05,0,-4e-05,2e-05,-3e-05,4e-05,6,16
27414,-3e-05,1e-05,-1e-05,0,-4e-05,2e-05,-3e-05,4e-05,6,16
27415,-3e-05,1e-05,-1e-05,0,-4e-05,2e-05,-3e-05,4e-05,6,16
27416,-3e-05,1e-05,-1e-05,0,-4e-05,2e-05,-3e-05,4e-05,6,16
27417,-3e-05,1e-05,-1e-05,0,-4e-05,2e-05,-3e-05,4e-05,6,16
27418,-3e-05,1e-05,-1e-05,0,-4e-05,2e-05,-3e-05,4e-05,6,16
27419,-3e-05,1e-05,-1e-05,0,-4e-05,2e-05,-3e-05,4e-05,6,16
27420,-3e-05,1e-05,-1e-05,0,-4e-05,2e-05,-3e-05,4e-05,6,16
27421,-6e-05,-3e-05,0,8e-05,9e-05,7e-05,7e-05,-0.00016,6,16
27422,-6e-05,-3e-05,0,8e-05,9e-05,7e-05,7e-05,-0.00016,6,16
27423,-6e-05,-3e-05,0,8e-05,9e-05,7e-05,7e-05,-0.00016,6,16
27424,-6e-05,-3e-05,0,8e-05,9e-05,7e-05,7e-05,-0.00016,6,16
27425,-6e-05,-3e-05,0,8e-05,9e-05,7e-05,7e-05,-0.00016,6,16
27426,-6e-05,-3e-05,0,8e-05,9e-05,7e-05,7e-05,-0.00016,6,16
27427,-6e-05,-3e-05,0,8e-05,9e-05,7e-05,7e-05,-0.00016,6,16
27428,-6e-05,-3e-05,0,8e-05,9e-05,7e-05,7e-05,-0.00016,6,16
27429,-6e-05,-3e-05,0,8e-05,9e-05,7e-05,7e-05,-0.00016,6,16
27430,-6e-05,-3e-05,0,8e-05,9e-05,7e-05,7e-05,-0.00016,6,16
27431,-6e-05,-3e-05,0,8e-05,9e-05,7e-05,7e-05,-0.00016,6,16
27432,-6e-05,-3e-05,0,8e-05,9e-05,7e-05,7e-05,-0.00016,6,16
27433,-6e-05,-3e-05,0,8e-05,9e-05,7e-05,7e-05,-0.00016,6,16
27434,-6e-05,-3e-05,0,8e-05,9e-05,7e-05,7e-05,-0.00016,6,16
27435,-6e-05,-3e-05,0,8e-05,9e-05,7e-05,7e-05,-0.00016,6,16
27436,-6e-05,-3e-05,0,8e-05,9e-05,7e-05,7e-05,-0.00016,6,16
27438,0,-1e-05,-4e-05,-0.0001,-9e-05,8e-05,2e-05,2e-05,6,16
27439,0,-1e-05,-4e-05,-0.0001,-9e-05,8e-05,2e-05,2e-05,6,16
27440,0,-1e-05,-4e-05,-0.0001,-9e-05,8e-05,2e-05,2e-05,6,16
27441,0,-1e-05,-4e-05,-0.0001,-9e-05,8e-05,2e-05,2e-05,6,16
27442,0,-1e-05,-4e-05,-0.0001,-9e-05,8e-05,2e-05,2e-05,6,16
27443,0,-1e-05,-4e-05,-0.0001,-9e-05,8e-05,2e-05,2e-05,6,16
27444,0,-1e-05,-4e-05,-0.0001,-9e-05,8e-05,2e-05,2e-05,6,16
27445,-6e-05,-5e-05,-2e-05,-2e-05,4e-05,-0.00018,0.00022,6e-05,6,16
27446,2e-05,-5e-05,-7e-05,-7e-05,-0.00025,9e-05,-0.00013,0.00011,6,16
27447,-2e-05,2e-05,3e-05,0.00015,0.00018,-2e-05,-7e-05,-5e-05,6,16
27448,-2e-05,2e-05,3e-05,0.00015,0.00018,-2e-05,-7e-05,-5e-05,6,16
27449,-2e-05,2e-05,3e-05,0.00015,0.00018,-2e-05,-7e-05,-5e-05,6,16
27450,-2e-05,2e-05,3e-05,0.00015,0.00018,-2e-05,-7e-05,-5e-05,6,16
27451,-2e-05,2e-05,3e-05,0.00015,0.00018,-2e-05,-7e-05,-5e-05,6,16
27452,-2e-05,2e-05,3e-05,0.00015,0.00018,-2e-05,-7e-05,-5e-05,6,16
27453,-2e-05,2e-05,3e-05,0.00015,0.00018,-2e-05,-7e-05,-5e-05,6,16
27454,-2e-05,2e-05,3e-05,0.00015,0.00018,-2e-05,-7e-05,-5e-05,6,16
27455,-2e-05,2e-05,3e-05,0.00015,0.00018,-2e-05,-7e-05,-5e-05,6,16
27456,-2e-05,2e-05,3e-05,0.00015,0.00018,-2e-05,-7e-05,-5e-05,6,16
27457,-2e-05,2e-05,3e-05,0.00015,0.00018,-2e-05,-7e-05,-5e-05,6,16
27458,-2e-05,2e-05,3e-05,0.00015,0.00018,-2e-05,-7e-05,-5e-05,6,16
27459,-2e-05,2e-05,3e-05,0.00015,0.00018,-2e-05,-7e-05,-5e-05,6,16
27460,-2e-05,2e-05,3e-05,0.00015,0.00018,-2e-05,-7e-05,-5e-05,6,16
27461,-2e-05,2e-05,3e-05,0.00015,0.00018,-2e-05,-7e-05,-5e-05,6,16
27462,-2e-05,2e-05,3e-05,0.00015,0.00018,-2e-05,-7e-05,-5e-05,6,16
27463,-2e-05,2e-05,3e-05,0.00015,0.00018,-2e-05,-7e-05,-5e-05,6,16
27464,-2e-05,2e-05,3e-05,0.00015,0.00018,-2e-05,-7e-05,-5e-05,6,16
27465,-2e-05,2e-05,3e-05,0.00015,0.00018,-2e-05,-7e-05,-5e-05,6,16
27466,-2e-05,2e-05,3e-05,0.00015,0.00018,-2e-05,-7e-05,-5e-05,6,16
27467,4e-05,4e-05,7e-05,0.00012,0.0007,0.00053,8e-05,5e-05,6,16
27468,4e-05,4e-05,7e-05,0.00012,0.0007,0.00053,8e-05,5e-05,6,16
27469,-5e-05,-2e-05,1e-05,6e-05,0.00032,0.00019,-5e-05,0,6,16
27470,-5e-05,-2e-05,1e-05,6e-05,0.00032,0.00019,-5e-05,0,6,16
27471,-5e-05,-2e-05,1e-05,6e-05,0.00032,0.00019,-5e-05,0,6,16
27472,-5e-05,-2e-05,1e-05,6e-05,0.00032,0.00019,-5e-05,0,6,16
27473,-5e-05,-2e-05,1e-05,6e-05,0.00032,0.00019,-5e-05,0,6,16
27474,-5e-05,-2e-05,1e-05,6e-05,0.00032,0.00019,-5e-05,0,6,16
27475,-5e-05,-2e-05,1e-05,6e-05,0.00032,0.00019,-5e-05,0,6,16
27476,-5e-05,-2e-05,1e-05,6e-05,0.00032,0.00019,-5e-05,0,6,16
27477,-5e-05,-2e-05,1e-05,6e-05,0.00032,0.00019,-5e-05,0,6,16
27478,-5e-05,-2e-05,1e-05,6e-05,0.00032,0.00019,-5e-05,0,6,16
27479,-5e-05,-2e-05,1e-05,6e-05,0.00032,0.00019,-5e-05,0,6,16
27480,-5e-05,-2e-05,1e-05,6e-05,0.00032,0.00019,-5e-05,0,6,16
27481,-5e-05,-2e-05,1e-05,6e-05,0.00032,0.00019,-5e-05,0,6,16
27482,3e-05,2e-05,-5e-05,-1e-05,0.00011,0.0002,-7e-05,-1e-05,6,16
27483,3e-05,2e-05,-5e-05,-1e-05,0.00011,0.0002,-7e-05,-1e-05,6,16
27484,3e-05,2e-05,-5e-05,-1e-05,0.00011,0.0002,-7e-05,-1e-05,6,16
27485,3e-05,2e-05,-5e-05,-1e-05,0.00011,0.0002,-7e-05,-1e-05,6,16
27486,3e-05,2e-05,-5e-05,-1e-05,0.00011,0.0002,-7e-05,-1e-05,6,16
27488,3e-05,2e-05,-5e-05,-1e-05,0.00011,0.0002,-7e-05,-1e-05,6,16
27489,3e-05,2e-05,-5e-05,-1e-05,0.00011,0.0002,-7e-05,-1e-05,6,16
27490,3e-05,2e-05,-5e-05,-1e-05,0.00011,0.0002,-7e-05,-1e-05,6,16
27491,3e-05,2e-05,-5e-05,-1e-05,0.00011,0.0002,-7e-05,-1e-05,6,16
27492,3e-05,2e-05,-5e-05,-1e-05,0.00011,0.0002,-7e-05,-1e-05,6,16
27493,3e-05,2e-05,-5e-05,-1e-05,0.00011,0.0002,-7e-05,-1e-05,6,16
27494,3e-05,2e-05,-5e-05,-1e-05,0.00011,0.0002,-7e-05,-1e-05,6,16
27495,3e-05,2e-05,-5e-05,-1e-05,0.00011,0.0002,-7e-05,-1e-05,6,16
27496,3e-05,2e-05,-5e-05,-1e-05,0.00011,0.0002,-7e-05,-1e-05,6,16
27497,0,-5e-05,-4e-05,-5e-05,-6e-05,1e-05,0,-7e-05,6,16
27498,3e-05,-1e-05,-1e-05,-9e-05,3e-05,7e-05,6e-05,-3e-05,6,16
27499,3e-05,-1e-05,-1e-05,-9e-05,3e-05,7e-05,6e-05,-3e-05,6,16
27500,3e-05,-1e-05,-1e-05,-9e-05,3e-05,7e-05,6e-05,-3e-05,6,16
27501,3e-05,-1e-05,-1e-05,-9e-05,3e-05,7e-05,6e-05,-3e-05,6,16
27502,3e-05,-1e-05,-1e-05,-9e-05,3e-05,7e-05,6e-05,-3e-05,6,16
27503,3e-05,-1e-05,-1e-05,-9e-05,3e-05,7e-05,6e-05,-3e-05,6,16
27504,3e-05,-1e-05,-1e-05,-9e-05,3e-05,7e-05,6e-05,-3e-05,6,16
27505,-7e-05,-1e-05,0,-5e-05,-0.00033,-0.00036,-0.00016,-0.00013,6,16
27506,-1e-05,4e-05,8e-05,0.00012,0.00029,0.00032,5e-05,2e-05,6,16
27507,-4e-05,-3e-05,-4e-05,-8e-05,-0.00022,-9e-05,-5e-05,-9e-05,6,16
27508,-4e-05,-3e-05,-4e-05,-8e-05,-0.00022,-9e-05,-5e-05,-9e-05,6,16
27509,-4e-05,-3e-05,-4e-05,-8e-05,-0.00022,-9e-05,-5e-05,-9e-05,6,16
27511,-4e-05,-3e-05,-4e-05,-8e-05,-0.00022,-9e-05,-5e-05,-9e-05,6,16
27512,-4e-05,-3e-05,-4e-05,-8e-05,-0.00022,-9e-05,-5e-05,-9e-05,6,16
27513,-4e-05,-3e-05,-4e-05,-8e-05,-0.00022,-9e-05,-5e-05,-9e-05,6,16
27514,-4e-05,-3e-05,-4e-05,-8e-05,-0.00022,-9e-05,-5e-05,-9e-05,6,16
27515,-4e-05,-3e-05,-4e-05,-8e-05,-0.00022,-9e-05,-5e-05,-9e-05,6,16
27516,-4e-05,-3e-05,-4e-05,-8e-05,-0.00022,-9e-05,-5e-05,-9e-05,6,16
27517,-4e-05,-3e-05,-4e-05,-8e-05,-0.00022,-9e-05,-5e-05,-9e-05,6,16
27518,-4e-05,-3e-05,-4e-05,-8e-05,-0.00022,-9e-05,-5e-05,-9e-05,6,16
27519,-4e-05,-3e-05,-4e-05,-8e-05,-0.00022,-9e-05,-5e-05,-9e-05,6,16
27520,-4e-05,-3e-05,-4e-05,-8e-05,-0.00022,-9e-05,-5e-05,-9e-05,6,16
27521,-4e-05,-3e-05,-4e-05,-8e-05,-0.00022,-9e-05,-5e-05,-9e-05,6,16
27522,-4e-05,-3e-05,-4e-05,-8e-05,-0.00022,-9e-05,-5e-05,-9e-05,6,16
27523,-4e-05,-3e-05,-4e-05,-8e-05,-0.00022,-9e-05,-5e-05,-9e-05,6,16
27524,-4e-05,-3e-05,-4e-05,-8e-05,-0.00022,-9e-05,-5e-05,-9e-05,6,16
27525,-4e-05,-3e-05,-4e-05,-8e-05,-0.00022,-9e-05,-5e-05,-9e-05,6,16
27526,-4e-05,-3e-05,-4e-05,-8e-05,-0.00022,-9e-05,-5e-05,-9e-05,6,16
27527,6e-05,2e-05,2e-05,7e-05,0.00026,0.00027,0.00034,2e-05,6,16
27528,-2e-05,-2e-05,-1e-05,-2e-05,-0.00027,-5e-05,7e-05,-8e-05,6,16
27529,-2e-05,-6e-05,-8e-05,-9e-05,-9e-05,-8e-05,-7e-05,1e-05,6,16
27530,-2e-05,-6e-05,-8e-05,-9e-05,-9e-05,-8e-05,-7e-05,1e-05,6,16
27531,-2e-05,-6e-05,-8e-05,-9e-05,-9e-05,-8e-05,-7e-05,1e-05,6,16
27532,-2e-05,-6e-05,-8e-05,-9e-05,-9e-05,-8e-05,-7e-05,1e-05,6,16
27533,-2e-05,-6e-05,-8e-05,-9e-05,-9e-05,-8e-05,-7e-05,1e-05,6,16
27534,-2e-05,-6e-05,-8e-05,-9e-05,-9e-05,-8e-05,-7e-05,1e-05,6,16
27535,-2e-05,-6e-05,-8e-05,-9e-05,-9e-05,-8e-05,-7e-05,1e-05,6,16
27536,-2e-05,-6e-05,-8e-05,-9e-05,-9e-05,-8e-05,-7e-05,1e-05,6,16
27538,-2e-05,-6e-05,-8e-05,-9e-05,-9e-05,-8e-05,-7e-05,1e-05,6,16
27539,-2e-05,-6e-05,-8e-05,-9e-05,-9e-05,-8e-05,-7e-05,1e-05,6,16
27540,-2e-05,-6e-05,-8e-05,-9e-05,-9e-05,-8e-05,-7e-05,1e-05,6,16
27541,-5e-05,-3e-05,-1e-05,-0.0001,-0.00022,-0.00017,-1e-05,-2e-05,6,16
27542,-5e-05,-3e-05,-1e-05,-0.0001,-0.00022,-0.00017,-1e-05,-2e-05,6,16
27543,-5e-05,-3e-05,-1e-05,-0.0001,-0.00022,-0.00017,-1e-05,-2e-05,6,16
27544,-5e-05,-3e-05,-1e-05,-0.0001,-0.00022,-0.00017,-1e-05,-2e-05,6,16
27545,-5e-05,-3e-05,-1e-05,-0.0001,-0.00022,-0.00017,-1e-05,-2e-05,6,16
27546,-5e-05,-3e-05,-1e-05,-0.0001,-0.00022,-0.00017,-1e-05,-2e-05,6,16
27547,-5e-05,-3e-05,-1e-05,-0.0001,-0.00022,-0.00017,-1e-05,-2e-05,6,16
27548,-5e-05,-3e-05,-1e-05,-0.0001,-0.00022,-0.00017,-1e-05,-2e-05,6,16
27549,-5e-05,-3e-05,-1e-05,-0.0001,-0.00022,-0.00017,-1e-05,-2e-05,6,16
27550,-2e-05,-4e-05,-2e-05,-1e-05,0.00016,0.00012,-0.0001,-3e-05,6,16
27551,-2e-05,-4e-05,-2e-05,-1e-05,0.00016,0.00012,-0.0001,-3e-05,6,16
27552,-2e-05,-4e-05,-2e-05,-1e-05,0.00016,0.00012,-0.0001,-3e-05,6,16
27553,-2e-05,-4e-05,-2e-05,-1e-05,0.00016,0.00012,-0.0001,-3e-05,6,16
27554,-2e-05,-4e-05,-2e-05,-1e-05,0.00016,0.00012,-0.0001,-3e-05,6,16
27555,-2e-05,-4e-05,-2e-05,-1e-05,0.00016,0.00012,-0.0001,-3e-05,6,16
27556,-2e-05,-4e-05,-2e-05,-1e-05,0.00016,0.00012,-0.0001,-3e-05,6,16
27557,-2e-05,-4e-05,-2e-05,-1e-05,0.00016,0.00012,-0.0001,-3e-05,6,16
27559,-2e-05,-4e-05,-2e-05,-1e-05,0.00016,0.00012,-0.0001,-3e-05,6,16
27560,-2e-05,-4e-05,-2e-05,-1e-05,0.00016,0.00012,-0.0001,-3e-05,6,16
27561,-2e-05,-4e-05,-2e-05,-1e-05,0.00016,0.00012,-0.0001,-3e-05,6,16
27562,-2e-05,-4e-05,-2e-05,-1e-05,0.00016,0.00012,-0.0001,-3e-05,6,16
27563,-2e-05,-4e-05,-2e-05,-1e-05,0.00016,0.00012,-0.0001,-3e-05,6,16
27564,-2e-05,-4e-05,-2e-05,-1e-05,0.00016,0.00012,-0.0001,-3e-05,6,16
27565,-3e-05,3e-05,1e-05,-5e-05,-0.00029,-0.00016,-0.00022,-2e-05,6,16
27566,4e-05,-2e-05,-2e-05,-4e-05,-0.00022,-7e-05,0.00024,9e-05,6,16
27567,4e-05,-2e-05,-2e-05,-4e-05,-0.00022,-7e-05,0.00024,9e-05,6,16
27568,4e-05,-2e-05,-2e-05,-4e-05,-0.00022,-7e-05,0.00024,9e-05,6,16
27569,4e-05,-2e-05,-2e-05,-4e-05,-0.00022,-7e-05,0.00024,9e-05,6,16
27570,4e-05,-2e-05,-2e-05,-4e-05,-0.00022,-7e-05,0.00024,9e-05,6,16
27571,4e-05,-2e-05,-2e-05,-4e-05,-0.00022,-7e-05,0.00024,9e-05,6,16
27572,4e-05,-2e-05,-2e-05,-4e-05,-0.00022,-7e-05,0.00024,9e-05,6,16
27573,4e-05,-2e-05,-2e-05,-4e-05,-0.00022,-7e-05,0.00024,9e-05,6,16
27574,4e-05,-2e-05,-2e-05,-4e-05,-0.00022,-7e-05,0.00024,9e-05,6,16
27575,4e-05,-2e-05,-2e-05,-4e-05,-0.00022,-7e-05,0.00024,9e-05,6,16
27576,4e-05,-2e-05,-2e-05,-4e-05,-0.00022,-7e-05,0.00024,9e-05,6,16
27577,4e-05,-2e-05,-2e-05,-4e-05,-0.00022,-7e-05,0.00024,9e-05,6,16
27578,4e-05,-2e-05,-2e-05,-4e-05,-0.00022,-7e-05,0.00024,9e-05,6,16
27579,4e-05,-2e-05,-2e-05,-4e-05,-0.00022,-7e-05,0.00024,9e-05,6,16
27580,4e-05,-2e-05,-2e-05,-4e-05,-0.00022,-7e-05,0.00024,9e-05,6,16
27581,4e-05,-2e-05,-2e-05,-4e-05,-0.00022,-7e-05,0.00024,9e-05,6,16
27582,4e-05,-2e-05,-2e-05,-4e-05,-0.00022,-7e-05,0.00024,9e-05,6,16
27583,4e-05,-2e-05,-2e-05,-4e-05,-0.00022,-7e-05,0.00024,9e-05,6,16
27584,4e-05,-2e-05,-2e-05,-4e-05,-0.00022,-7e-05,0.00024,9e-05,6,16
27585,4e-05,-2e-05,-2e-05,-4e-05,-0.00022,-7e-05,0.00024,9e-05,6,16
27586,4e-05,-2e-05,-2e-05,-4e-05,-0.00022,-7e-05,0.00024,9e-05,6,16
27588,2e-05,2e-05,2e-05,5e-05,6e-05,1e-05,-1e-05,6e-05,6,16
27589,-5e-05,-7e-05,-6e-05,-7e-05,-7e-05,-0.00028,-0.00031,-1e-05,6,16
27590,-2e-05,-4e-05,-3e-05,-6e-05,-1e-05,8e-05,-1e-05,-4e-05,6,16
27591,-2e-05,-4e-05,-3e-05,-6e-05,-1e-05,8e-05,-1e-05,-4e-05,6,16
27592,-2e-05,-4e-05,-3e-05,-6e-05,-1e-05,8e-05,-1e-05,-4e-05,6,16
27593,-2e-05,-4e-05,-3e-05,-6e-05,-1e-05,8e-05,-1e-05,-4e-05,6,16
27594,-2e-05,-4e-05,-3e-05,-6e-05,-1e-05,8e-05,-1e-05,-4e-05,6,16
27595,-2e-05,-4e-05,-3e-05,-6e-05,-1e-05,8e-05,-1e-05,-4e-05,6,16
27596,-2e-05,-4e-05,-3e-05,-6e-05,-1e-05,8e-05,-1e-05,-4e-05,6,16
27597,-2e-05,-4e-05,-3e-05,-6e-05,-1e-05,8e-05,-1e-05,-4e-05,6,16
27598,-2e-05,-4e-05,-3e-05,-6e-05,-1e-05,8e-05,-1e-05,-4e-05,6,16
27599,-2e-05,-4e-05,-3e-05,-6e-05,-1e-05,8e-05,-1e-05,-4e-05,6,16
27600,-2e-05,-4e-05,-3e-05,-6e-05,-1e-05,8e-05,-1e-05,-4e-05,6,16
27601,6e-05,2e-05,2e-05,8e-05,0.00011,0.00015,-0.0001,-2e-05,6,16
27602,6e-05,2e-05,2e-05,8e-05,0.00011,0.00015,-0.0001,-2e-05,6,16
27603,6e-05,2e-05,2e-05,8e-05,0.00011,0.00015,-0.0001,-2e-05,6,16
27604,6e-05,2e-05,2e-05,8e-05,0.00011,0.00015,-0.0001,-2e-05,6,16
27605,6e-05,2e-05,2e-05,8e-05,0.00011,0.00015,-0.0001,-2e-05,6,16
27606,6e-05,2e-05,2e-05,8e-05,0.00011,0.00015,-0.0001,-2e-05,6,16
27607,6e-05,2e-05,2e-05,8e-05,0.00011,0.00015,-0.0001,-2e-05,6,16
27608,6e-05,2e-05,2e-05,8e-05,0.00011,0.00015,-0.0001,-2e-05,6,16
27609,6e-05,2e-05,2e-05,8e-05,0.00011,0.00015,-0.0001,-2e-05,6,16
27610,6e-05,2e-05,2e-05,8e-05,0.00011,0.00015,-0.0001,-2e-05,6,16
27611,5e-05,6e-05,-2e-05,4e-05,-8e-05,-2e-05,-0.00028,8e-05,6,16
27612,5e-05,6e-05,-2e-05,4e-05,-8e-05,-2e-05,-0.00028,8e-05,6,16
27613,5e-05,6e-05,-2e-05,4e-05,-8e-05,-2e-05,-0.00028,8e-05,6,16
27614,5e-05,6e-05,-2e-05,4e-05,-8e-05,-2e-05,-0.00028,8e-05,6,16
27615,5e-05,6e-05,-2e-05,4e-05,-8e-05,-2e-05,-0.00028,8e-05,6,16
27616,5e-05,6e-05,-2e-05,4e-05,-8e-05,-2e-05,-0.00028,8e-05,6,16
27617,5e-05,6e-05,-2e-05,4e-05,-8e-05,-2e-05,-0.00028,8e-05,6,16
27618,5e-05,6e-05,-2e-05,4e-05,-8e-05,-2e-05,-0.00028,8e-05,6,16
27619,5e-05,6e-05,-2e-05,4e-05,-8e-05,-2e-05,-0.00028,8e-05,6,16
27620,5e-05,6e-05,-2e-05,4e-05,-8e-05,-2e-05,-0.00028,8e-05,6,16
27621,5e-05,6e-05,-2e-05,4e-05,-8e-05,-2e-05,-0.00028,8e-05,6,16
27622,5e-05,6e-05,-2e-05,4e-05,-8e-05,-2e-05,-0.00028,8e-05,6,16
27623,5e-05,6e-05,-2e-05,4e-05,-8e-05,-2e-05,-0.00028,8e-05,6,16
27624,5e-05,6e-05,-2e-05,4e-05,-8e-05,-2e-05,-0.00028,8e-05,6,16
27625,4e-05,-5e-05,1e-05,0,-0.00025,-0.0002,-9e-05,2e-05,6,16
27626,-1e-05,4e-05,5e-05,1e-05,-0.00042,-0.00023,0.00023,2e-05,6,16
27627,-1e-05,4e-05,5e-05,1e-05,-0.00042,-0.00023,0.00023,2e-05,6,16
27628,-1e-05,4e-05,5e-05,1e-05,-0.00042,-0.00023,0.00023,2e-05,6,16
27629,-1e-05,4e-05,5e-05,1e-05,-0.00042,-0.00023,0.00023,2e-05,6,16
27630,-1e-05,4e-05,5e-05,1e-05,-0.00042,-0.00023,0.00023,2e-05,6,16
27631,-1e-05,4e-05,5e-05,1e-05,-0.00042,-0.00023,0.00023,2e-05,6,16
27632,-1e-05,4e-05,5e-05,1e-05,-0.00042,-0.00023,0.00023,2e-05,6,16
27633,-1e-05,4e-05,5e-05,1e-05,-0.00042,-0.00023,0.00023,2e-05,6,16
27634,-1e-05,4e-05,5e-05,1e-05,-0.00042,-0.00023,0.00023,2e-05,6,16
27635,-1e-05,4e-05,5e-05,1e-05,-0.00042,-0.00023,0.00023,2e-05,6,16
27636,-1e-05,4e-05,5e-05,1e-05,-0.00042,-0.00023,0.00023,2e-05,6,16
27638,-1e-05,4e-05,5e-05,1e-05,-0.00042,-0.00023,0.00023,2e-05,6,16
27639,-1e-05,4e-05,5e-05,1e-05,-0.00042,-0.00023,0.00023,2e-05,6,16
27640,-1e-05,4e-05,5e-05,1e-05,-0.00042,-0.00023,0.00023,2e-05,6,16
27641,-1e-05,4e-05,5e-05,1e-05,-0.00042,-0.00023,0.00023,2e-05,6,16
27642,-1e-05,4e-05,5e-05,1e-05,-0.00042,-0.00023,0.00023,2e-05,6,16
27643,-1e-05,4e-05,5e-05,1e-05,-0.00042,-0.00023,0.00023,2e-05,6,16
27644,-1e-05,4e-05,5e-05,1e-05,-0.00042,-0.00023,0.00023,2e-05,6,16
27645,-1e-05,4e-05,5e-05,1e-05,-0.00042,-0.00023,0.00023,2e-05,6,16
27646,-1e-05,4e-05,5e-05,1e-05,-0.00042,-0.00023,0.00023,2e-05,6,16
27647,-3e-05,-3e-05,-2e-05,-0.00014,-0.00012,5e-05,-1e-05,1e-05,6,16
27648,-3e-05,-3e-05,-2e-05,-0.00014,-0.00012,5e-05,-1e-05,1e-05,6,16
27649,-3e-05,-2e-05,-1e-05,3e-05,-0.00013,3e-05,3e-05,-1e-05,6,16
27650,-3e-05,-2e-05,-1e-05,3e-05,-0.00013,3e-05,3e-05,-1e-05,6,16
27651,-3e-05,-2e-05,-1e-05,3e-05,-0.00013,3e-05,3e-05,-1e-05,6,16
27652,-3e-05,-2e-05,-1e-05,3e-05,-0.00013,3e-05,3e-05,-1e-05,6,16
27653,-3e-05,-2e-05,-1e-05,3e-05,-0.00013,3e-05,3e-05,-1e-05,6,16
27654,-3e-05,-2e-05,-1e-05,3e-05,-0.00013,3e-05,3e-05,-1e-05,6,16
27655,-3e-05,-2e-05,-1e-05,3e-05,-0.00013,3e-05,3e-05,-1e-05,6,16
27656,-3e-05,-2e-05,-1e-05,3e-05,-0.00013,3e-05,3e-05,-1e-05,6,16
27657,-3e-05,-2e-05,-1e-05,3e-05,-0.00013,3e-05,3e-05,-1e-05,6,16
27658,-3e-05,-2e-05,-1e-05,3e-05,-0.00013,3e-05,3e-05,-1e-05,6,16
27659,-3e-05,-2e-05,-1e-05,3e-05,-0.00013,3e-05,3e-05,-1e-05,6,16
27660,-3e-05,-2e-05,-1e-05,3e-05,-0.00013,3e-05,3e-05,-1e-05,6,16
27661,-3e-05,-2e-05,-1e-05,3e-05,-0.00013,3e-05,3e-05,-1e-05,6,16
27662,2e-05,0,-3e-05,2e-05,0.00014,1e-05,5e-05,3e-05,6,16
27663,2e-05,0,-3e-05,2e-05,0.00014,1e-05,5e-05,3e-05,6,16
27664,2e-05,0,-3e-05,2e-05,0.00014,1e-05,5e-05,3e-05,6,16
27665,2e-05,0,-3e-05,2e-05,0.00014,1e-05,5e-05,3e-05,6,16
27666,2e-05,0,-3e-05,2e-05,0.00014,1e-05,5e-05,3e-05,6,16
27667,2e-05,0,-3e-05,2e-05,0.00014,1e-05,5e-05,3e-05,6,16
27668,2e-05,0,-3e-05,2e-05,0.00014,1e-05,5e-05,3e-05,6,16
27669,2e-05,0,-3e-05,2e-05,0.00014,1e-05,5e-05,3e-05,6,16
27670,-0.00012,-1e-05,-2e-05,-0.0001,-7e-05,-0.00017,-0.00012,-0.00017,6,16
27671,-0.00012,-1e-05,-2e-05,-0.0001,-7e-05,-0.00017,-0.00012,-0.00017,6,16
27672,-0.00012,-1e-05,-2e-05,-0.0001,-7e-05,-0.00017,-0.00012,-0.00017,6,16
27673,-0.00012,-1e-05,-2e-05,-0.0001,-7e-05,-0.00017,-0.00012,-0.00017,6,16
27674,-0.00012,-1e-05,-2e-05,-0.0001,-7e-05,-0.00017,-0.00012,-0.00017,6,16
27675,-0.00012,-1e-05,-2e-05,-0.0001,-7e-05,-0.00017,-0.00012,-0.00017,6,16
27676,-0.00012,-1e-05,-2e-05,-0.0001,-7e-05,-0.00017,-0.00012,-0.00017,6,16
27677,-0.00012,-1e-05,-2e-05,-0.0001,-7e-05,-0.00017,-0.00012,-0.00017,6,16
27678,-0.00012,-1e-05,-2e-05,-0.0001,-7e-05,-0.00017,-0.00012,-0.00017,6,16
27679,-0.00012,-1e-05,-2e-05,-0.0001,-7e-05,-0.00017,-0.00012,-0.00017,6,16
27680,-0.00012,-1e-05,-2e-05,-0.0001,-7e-05,-0.00017,-0.00012,-0.00017,6,16
27681,-0.00012,-1e-05,-2e-05,-0.0001,-7e-05,-0.00017,-0.00012,-0.00017,6,16
27682,-0.00012,-1e-05,-2e-05,-0.0001,-7e-05,-0.00017,-0.00012,-0.00017,6,16
27683,-0.00012,-1e-05,-2e-05,-0.0001,-7e-05,-0.00017,-0.00012,-0.00017,6,16
27684,-0.00012,-1e-05,-2e-05,-0.0001,-7e-05,-0.00017,-0.00012,-0.00017,6,16
27685,3e-05,6e-05,-1e-05,4e-05,0.00018,8e-05,-1e-05,-1e-05,6,16
27686,3e-05,6e-05,-1e-05,4e-05,0.00018,8e-05,-1e-05,-1e-05,6,16
27688,7e-05,2e-05,3e-05,1e-05,0.00014,0.00012,0.00047,0.00025,6,16
27689,7e-05,2e-05,3e-05,1e-05,0.00014,0.00012,0.00047,0.00025,6,16
27690,7e-05,2e-05,3e-05,1e-05,0.00014,0.00012,0.00047,0.00025,6,16
27691,7e-05,2e-05,3e-05,1e-05,0.00014,0.00012,0.00047,0.00025,6,16
27692,7e-05,2e-05,3e-05,1e-05,0.00014,0.00012,0.00047,0.00025,6,16
27693,7e-05,2e-05,3e-05,1e-05,0.00014,0.00012,0.00047,0.00025,6,16
27694,7e-05,2e-05,3e-05,1e-05,0.00014,0.00012,0.00047,0.00025,6,16
27695,7e-05,2e-05,3e-05,1e-05,0.00014,0.00012,0.00047,0.00025,6,16
27696,7e-05,2e-05,3e-05,1e-05,0.00014,0.00012,0.00047,0.00025,6,16
27697,7e-05,2e-05,3e-05,1e-05,0.00014,0.00012,0.00047,0.00025,6,16
27699,7e-05,2e-05,3e-05,1e-05,0.00014,0.00012,0.00047,0.00025,6,16
27700,7e-05,2e-05,3e-05,1e-05,0.00014,0.00012,0.00047,0.00025,6,16
27701,7e-05,2e-05,3e-05,1e-05,0.00014,0.00012,0.00047,0.00025,6,16
27702,7e-05,2e-05,3e-05,1e-05,0.00014,0.00012,0.00047,0.00025,6,16
27703,7e-05,2e-05,3e-05,1e-05,0.00014,0.00012,0.00047,0.00025,6,16
27704,7e-05,2e-05,3e-05,1e-05,0.00014,0.00012,0.00047,0.00025,6,16
27705,7e-05,2e-05,3e-05,1e-05,0.00014,0.00012,0.00047,0.00025,6,16
27706,7e-05,2e-05,3e-05,1e-05,0.00014,0.00012,0.00047,0.00025,6,16
27707,7e-05,2e-05,3e-05,1e-05,0.00014,0.00012,0.00047,0.00025,6,16
27708,7e-05,2e-05,3e-05,1e-05,0.00014,0.00012,0.00047,0.00025,6,16
27709,0,-1e-05,-1e-05,3e-05,0.00023,0.00014,-4e-05,0.0001,6,16
27710,0,-1e-05,-1e-05,3e-05,0.00023,0.00014,-4e-05,0.0001,6,16
27711,0,-1e-05,-1e-05,3e-05,0.00023,0.00014,-4e-05,0.0001,6,16
27712,0,-1e-05,-1e-05,3e-05,0.00023,0.00014,-4e-05,0.0001,6,16
27713,-3e-05,-4e-05,-1e-05,-9e-05,-0.00023,-0.00013,0.00016,-2e-05,6,16
27714,0,2e-05,5e-05,8e-05,0.00021,3e-05,-0.00011,-0.00012,6,16
27715,0,2e-05,5e-05,8e-05,0.00021,3e-05,-0.00011,-0.00012,6,16
27716,0,2e-05,5e-05,8e-05,0.00021,3e-05,-0.00011,-0.00012,6,16
27717,0,2e-05,5e-05,8e-05,0.00021,3e-05,-0.00011,-0.00012,6,16
27718,0,2e-05,5e-05,8e-05,0.00021,3e-05,-0.00011,-0.00012,6,16
27719,0,2e-05,5e-05,8e-05,0.00021,3e-05,-0.00011,-0.00012,6,16
27720,0,2e-05,5e-05,8e-05,0.00021,3e-05,-0.00011,-0.00012,6,16
27721,0,2e-05,5e-05,8e-05,0.00021,3e-05,-0.00011,-0.00012,6,16
27722,0,2e-05,5e-05,8e-05,0.00021,3e-05,-0.00011,-0.00012,6,16
27723,0,2e-05,5e-05,8e-05,0.00021,3e-05,-0.00011,-0.00012,6,16
27724,0,2e-05,5e-05,8e-05,0.00021,3e-05,-0.00011,-0.00012,6,16
27725,0,2e-05,5e-05,8e-05,0.00021,3e-05,-0.00011,-0.00012,6,16
27726,0,2e-05,5e-05,8e-05,0.00021,3e-05,-0.00011,-0.00012,6,16
27727,0,2e-05,5e-05,8e-05,0.00021,3e-05,-0.00011,-0.00012,6,16
27728,0,2e-05,5e-05,8e-05,0.00021,3e-05,-0.00011,-0.00012,6,16
27729,0,2e-05,5e-05,8e-05,0.00021,3e-05,-0.00011,-0.00012,6,16
27730,0,-5e-05,-8e-05,0,-3e-05,-9e-05,0.0001,0,6,16
27731,1e-05,-4e-05,-6e-05,0,-0.00012,-5e-05,-0.00021,0,6,16
27732,1e-05,-4e-05,-6e-05,0,-0.00012,-5e-05,-0.00021,0,6,16
27733,1e-05,-4e-05,-6e-05,0,-0.00012,-5e-05,-0.00021,0,6,16
27734,1e-05,-4e-05,-6e-05,0,-0.00012,-5e-05,-0.00021,0,6,16
27735,1e-05,-4e-05,-6e-05,0,-0.00012,-5e-05,-0.00021,0,6,16
27736,1e-05,-4e-05,-6e-05,0,-0.00012,-5e-05,-0.00021,0,6,16
27738,1e-05,-4e-05,-6e-05,0,-0.00012,-5e-05,-0.00021,0,6,16
27739,1e-05,-4e-05,-6e-05,0,-0.00012,-5e-05,-0.00021,0,6,16
27740,1e-05,-4e-05,-6e-05,0,-0.00012,-5e-05,-0.00021,0,6,16
27741,1e-05,-4e-05,-6e-05,0,-0.00012,-5e-05,-0.00021,0,6,16
27742,1e-05,-4e-05,-6e-05,0,-0.00012,-5e-05,-0.00021,0,6,16
27743,1e-05,-4e-05,-6e-05,0,-0.00012,-5e-05,-0.00021,0,6,16
27744,1e-05,-4e-05,-6e-05,0,-0.00012,-5e-05,-0.00021,0,6,16
27745,-3e-05,0,0,-3e-05,-2e-05,-2e-05,-0.00011,-3e-05,6,16
27746,-3e-05,0,0,-3e-05,-2e-05,-2e-05,-0.00011,-3e-05,6,16
27747,-3e-05,0,0,-3e-05,-2e-05,-2e-05,-0.00011,-3e-05,6,16
27748,-3e-05,0,0,-3e-05,-2e-05,-2e-05,-0.00011,-3e-05,6,16
27749,-3e-05,0,0,-3e-05,-2e-05,-2e-05,-0.00011,-3e-05,6,16
27750,-3e-05,0,0,-3e-05,-2e-05,-2e-05,-0.00011,-3e-05,6,16
27751,-3e-05,0,0,-3e-05,-2e-05,-2e-05,-0.00011,-3e-05,6,16
27752,-3e-05,0,0,-3e-05,-2e-05,-2e-05,-0.00011,-3e-05,6,16
27753,-3e-05,0,0,-3e-05,-2e-05,-2e-05,-0.00011,-3e-05,6,16
27754,-3e-05,0,0,-3e-05,-2e-05,-2e-05,-0.00011,-3e-05,6,16
27755,-3e-05,0,0,-3e-05,-2e-05,-2e-05,-0.00011,-3e-05,6,16
27756,-3e-05,0,0,-3e-05,-2e-05,-2e-05,-0.00011,-3e-05,6,16
27757,-3e-05,0,0,-3e-05,-2e-05,-2e-05,-0.00011,-3e-05,6,16
27758,0,-4e-05,-3e-05,-7e-05,-0.00027,-0.00014,-9e-05,2e-05,6,16
27759,0,-4e-05,-4e-05,-1e-05,0.00038,6e-05,-4e-05,-1e-05,6,16
27760,0,-4e-05,-4e-05,-1e-05,0.00038,6e-05,-4e-05,-1e-05,6,16
27761,0,-4e-05,-4e-05,-1e-05,0.00038,6e-05,-4e-05,-1e-05,6,16
27762,0,-4e-05,-4e-05,-1e-05,0.00038,6e-05,-4e-05,-1e-05,6,16
27763,0,-4e-05,-4e-05,-1e-05,0.00038,6e-05,-4e-05,-1e-05,6,16
27764,0,-4e-05,-4e-05,-1e-05,0.00038,6e-05,-4e-05,-1e-05,6,16
27765,0,-4e-05,-4e-05,-1e-05,0.00038,6e-05,-4e-05,-1e-05,6,16
27766,0,-4e-05,-4e-05,-1e-05,0.00038,6e-05,-4e-05,-1e-05,6,16
27767,0,-4e-05,-4e-05,-1e-05,0.00038,6e-05,-4e-05,-1e-05,6,16
27768,0,-4e-05,-4e-05,-1e-05,0.00038,6e-05,-4e-05,-1e-05,6,16
27769,0,-4e-05,-4e-05,-1e-05,0.00038,6e-05,-4e-05,-1e-05,6,16
27770,0,-4e-05,-4e-05,-1e-05,0.00038,6e-05,-4e-05,-1e-05,6,16
27771,0,-4e-05,-4e-05,-1e-05,0.00038,6e-05,-4e-05,-1e-05,6,16
27772,0,-4e-05,-4e-05,-1e-05,0.00038,6e-05,-4e-05,-1e-05,6,16
27773,0,-4e-05,-4e-05,-1e-05,0.00038,6e-05,-4e-05,-1e-05,6,16
27774,0,-4e-05,-4e-05,-1e-05,0.00038,6e-05,-4e-05,-1e-05,6,16
27775,-6e-05,-2e-05,1e-05,-4e-05,-6e-05,0.00016,0.00015,-8e-05,6,16
27776,0,-1e-05,-3e-05,5e-05,0,-5e-05,4e-05,0.00013,6,16
27777,-4e-05,-1e-05,2e-05,6e-05,0.00021,-6e-05,-0.00028,2e-05,6,16
27778,-4e-05,-1e-05,2e-05,6e-05,0.00021,-6e-05,-0.00028,2e-05,6,16
27779,-4e-05,-1e-05,2e-05,6e-05,0.00021,-6e-05,-0.00028,2e-05,6,16
27780,-4e-05,-1e-05,2e-05,6e-05,0.00021,-6e-05,-0.00028,2e-05,6,16
27781,-4e-05,-1e-05,2e-05,6e-05,0.00021,-6e-05,-0.00028,2e-05,6,16
27782,-4e-05,-1e-05,2e-05,6e-05,0.00021,-6e-05,-0.00028,2e-05,6,16
27783,-4e-05,-1e-05,2e-05,6e-05,0.00021,-6e-05,-0.00028,2e-05,6,16
27784,-4e-05,-1e-05,2e-05,6e-05,0.00021,-6e-05,-0.00028,2e-05,6,16
27785,-4e-05,-1e-05,2e-05,6e-05,0.00021,-6e-05,-0.00028,2e-05,6,16
27786,-4e-05,-1e-05,2e-05,6e-05,0.00021,-6e-05,-0.00028,2e-05,6,16
27788,-4e-05,-1e-05,2e-05,6e-05,0.00021,-6e-05,-0.00028,2e-05,6,16
27789,-4e-05,-1e-05,2e-05,6e-05,0.00021,-6e-05,-0.00028,2e-05,6,16
27790,-4e-05,-1e-05,2e-05,6e-05,0.00021,-6e-05,-0.00028,2e-05,6,16
27791,-4e-05,-1e-05,2e-05,6e-05,0.00021,-6e-05,-0.00028,2e-05,6,16
27792,-4e-05,-1e-05,2e-05,6e-05,0.00021,-6e-05,-0.00028,2e-05,6,16
27793,-4e-05,-1e-05,2e-05,6e-05,0.00021,-6e-05,-0.00028,2e-05,6,16
27794,-4e-05,-1e-05,2e-05,6e-05,0.00021,-6e-05,-0.00028,2e-05,6,16
27795,-4e-05,-1e-05,2e-05,6e-05,0.00021,-6e-05,-0.00028,2e-05,6,16
27796,-4e-05,-1e-05,2e-05,6e-05,0.00021,-6e-05,-0.00028,2e-05,6,16
27797,-4e-05,-1e-05,2e-05,6e-05,0.00021,-6e-05,-0.00028,2e-05,6,16
27798,-4e-05,-1e-05,2e-05,6e-05,0.00021,-6e-05,-0.00028,2e-05,6,16
27799,-4e-05,-1e-05,2e-05,6e-05,0.00021,-6e-05,-0.00028,2e-05,6,16
27800,-4e-05,-1e-05,2e-05,6e-05,0.00021,-6e-05,-0.00028,2e-05,6,16
27801,-4e-05,-1e-05,2e-05,6e-05,0.00021,-6e-05,-0.00028,2e-05,6,16
27802,-4e-05,-1e-05,2e-05,6e-05,0.00021,-6e-05,-0.00028,2e-05,6,16
27803,-4e-05,-1e-05,2e-05,6e-05,0.00021,-6e-05,-0.00028,2e-05,6,16
27804,-4e-05,-1e-05,2e-05,6e-05,0.00021,-6e-05,-0.00028,2e-05,6,16
27805,-4e-05,-1e-05,2e-05,6e-05,0.00021,-6e-05,-0.00028,2e-05,6,16
27806,-1e-05,-6e-05,-5e-05,7e-05,7e-05,0.00011,1e-05,4e-05,6,16
27807,-1e-05,-6e-05,-5e-05,7e-05,7e-05,0.00011,1e-05,4e-05,6,16
27808,-5e-05,3e-05,5e-05,7e-05,0.00017,6e-05,6e-05,-0.00013,6,16
27809,-3e-05,-5e-05,-4e-05,-7e-05,-0.00013,-8e-05,-0.0001,-0.0001,6,16
27810,-3e-05,-5e-05,-4e-05,-7e-05,-0.00013,-8e-05,-0.0001,-0.0001,6,16
27811,-3e-05,-5e-05,-4e-05,-7e-05,-0.00013,-8e-05,-0.0001,-0.0001,6,16
27812,-3e-05,-5e-05,-4e-05,-7e-05,-0.00013,-8e-05,-0.0001,-0.0001,6,16
27813,-3e-05,-5e-05,-4e-05,-7e-05,-0.00013,-8e-05,-0.0001,-0.0001,6,16
27814,-3e-05,-5e-05,-4e-05,-7e-05,-0.00013,-8e-05,-0.0001,-0.0001,6,16
27815,-3e-05,-5e-05,-4e-05,-7e-05,-0.00013,-8e-05,-0.0001,-0.0001,6,16
27816,-3e-05,-5e-05,-4e-05,-7e-05,-0.00013,-8e-05,-0.0001,-0.0001,6,16
27817,-3e-05,-5e-05,-4e-05,-7e-05,-0.00013,-8e-05,-0.0001,-0.0001,6,16
27818,-3e-05,-5e-05,-4e-05,-7e-05,-0.00013,-8e-05,-0.0001,-0.0001,6,16
27819,-3e-05,-5e-05,-4e-05,-7e-05,-0.00013,-8e-05,-0.0001,-0.0001,6,16
27820,-4e-05,-1e-05,-3e-05,-1e-05,-1e-05,8e-05,8e-05,-7e-05,6,16
27821,-4e-05,-1e-05,-3e-05,-1e-05,-1e-05,8e-05,8e-05,-7e-05,6,16
27822,-4e-05,-1e-05,-3e-05,-1e-05,-1e-05,8e-05,8e-05,-7e-05,6,16
27823,-4e-05,-1e-05,-3e-05,-1e-05,-1e-05,8e-05,8e-05,-7e-05,6,16
27824,-4e-05,-1e-05,-3e-05,-1e-05,-1e-05,8e-05,8e-05,-7e-05,6,16
27825,-4e-05,-1e-05,-3e-05,-1e-05,-1e-05,8e-05,8e-05,-7e-05,6,16
27826,-4e-05,-1e-05,-3e-05,-1e-05,-1e-05,8e-05,8e-05,-7e-05,6,16
27827,3e-05,3e-05,4e-05,-1e-05,0.00016,0.00015,-9e-05,0,6,16
27828,3e-05,3e-05,4e-05,-1e-05,0.00016,0.00015,-9e-05,0,6,16
27829,4e-05,-5e-05,-5e-05,-6e-05,-6e-05,-2e-05,8e-05,-1e-05,6,16
27830,4e-05,-5e-05,-5e-05,-6e-05,-6e-05,-2e-05,8e-05,-1e-05,6,16
27831,4e-05,-5e-05,-5e-05,-6e-05,-6e-05,-2e-05,8e-05,-1e-05,6,16
27832,4e-05,-5e-05,-5e-05,-6e-05,-6e-05,-2e-05,8e-05,-1e-05,6,16
27833,4e-05,-5e-05,-5e-05,-6e-05,-6e-05,-2e-05,8e-05,-1e-05,6,16
27834,4e-05,-5e-05,-5e-05,-6e-05,-6e-05,-2e-05,8e-05,-1e-05,6,16
27835,4e-05,-5e-05,-5e-05,-6e-05,-6e-05,-2e-05,8e-05,-1e-05,6,16
27836,4e-05,-5e-05,-5e-05,-6e-05,-6e-05,-2e-05,8e-05,-1e-05,6,16
27839,4e-05,-5e-05,-5e-05,-6e-05,-6e-05,-2e-05,8e-05,-1e-05,6,16
27840,4e-05,-5e-05,-5e-05,-6e-05,-6e-05,-2e-05,8e-05,-1e-05,6,16
27841,4e-05,-5e-05,-5e-05,-6e-05,-6e-05,-2e-05,8e-05,-1e-05,6,16
27842,4e-05,-5e-05,-5e-05,-6e-05,-6e-05,-2e-05,8e-05,-1e-05,6,16
27843,4e-05,-5e-05,-5e-05,-6e-05,-6e-05,-2e-05,8e-05,-1e-05,6,16
27844,4e-05,-5e-05,-5e-05,-6e-05,-6e-05,-2e-05,8e-05,-1e-05,6,16
27845,4e-05,-5e-05,-5e-05,-6e-05,-6e-05,-2e-05,8e-05,-1e-05,6,16
27846,4e-05,-5e-05,-5e-05,-6e-05,-6e-05,-2e-05,8e-05,-1e-05,6,16
27847,4e-05,-5e-05,-5e-05,-6e-05,-6e-05,-2e-05,8e-05,-1e-05,6,16
27848,4e-05,-5e-05,-5e-05,-6e-05,-6e-05,-2e-05,8e-05,-1e-05,6,16
27849,4e-05,-5e-05,-5e-05,-6e-05,-6e-05,-2e-05,8e-05,-1e-05,6,16
27850,7e-05,7e-05,8e-05,0.0001,0.0002,0.00014,0.00024,0.00014,6,16
27851,0,3e-05,4e-05,-7e-05,1e-05,-5e-05,-0.00016,-3e-05,6,16
27852,0,3e-05,4e-05,-7e-05,1e-05,-5e-05,-0.00016,-3e-05,6,16
27853,0,3e-05,4e-05,-7e-05,1e-05,-5e-05,-0.00016,-3e-05,6,16
27854,0,3e-05,4e-05,-7e-05,1e-05,-5e-05,-0.00016,-3e-05,6,16
27855,0,3e-05,4e-05,-7e-05,1e-05,-5e-05,-0.00016,-3e-05,6,16
27856,0,3e-05,4e-05,-7e-05,1e-05,-5e-05,-0.00016,-3e-05,6,16
27857,0,3e-05,4e-05,-7e-05,1e-05,-5e-05,-0.00016,-3e-05,6,16
27858,0,3e-05,4e-05,-7e-05,1e-05,-5e-05,-0.00016,-3e-05,6,16
27859,0,3e-05,4e-05,-7e-05,1e-05,-5e-05,-0.00016,-3e-05,6,16
27860,0,3e-05,4e-05,-7e-05,1e-05,-5e-05,-0.00016,-3e-05,6,16
27861,0,3e-05,4e-05,-7e-05,1e-05,-5e-05,-0.00016,-3e-05,6,16
27862,0,3e-05,4e-05,-7e-05,1e-05,-5e-05,-0.00016,-3e-05,6,16
27863,0,3e-05,4e-05,-7e-05,1e-05,-5e-05,-0.00016,-3e-05,6,16
27864,0,3e-05,4e-05,-7e-05,1e-05,-5e-05,-0.00016,-3e-05,6,16
27865,-6e-05,-8e-05,-0.00011,-0.00021,-0.00041,-0.00039,-7e-05,-4e-05,6,16
27866,-3e-05,-3e-05,-4e-05,-1e-05,-8e-05,-5e-05,0.00019,6e-05,6,16
27867,-3e-05,-3e-05,-4e-05,-1e-05,-8e-05,-5e-05,0.00019,6e-05,6,16
27868,-3e-05,-3e-05,-4e-05,-1e-05,-8e-05,-5e-05,0.00019,6e-05,6,16
27869,-3e-05,-3e-05,-4e-05,-1e-05,-8e-05,-5e-05,0.00019,6e-05,6,16
27870,-3e-05,-3e-05,-4e-05,-1e-05,-8e-05,-5e-05,0.00019,6e-05,6,16
27871,-3e-05,-3e-05,-4e-05,-1e-05,-8e-05,-5e-05,0.00019,6e-05,6,16
27872,-3e-05,-3e-05,-4e-05,-1e-05,-8e-05,-5e-05,0.00019,6e-05,6,16
27873,-3e-05,-3e-05,-4e-05,-1e-05,-8e-05,-5e-05,0.00019,6e-05,6,16
27874,-3e-05,-3e-05,-4e-05,-1e-05,-8e-05,-5e-05,0.00019,6e-05,6,16
27875,-3e-05,-3e-05,-4e-05,-1e-05,-8e-05,-5e-05,0.00019,6e-05,6,16
27876,-3e-05,-3e-05,-4e-05,-1e-05,-8e-05,-5e-05,0.00019,6e-05,6,16
27877,-3e-05,-3e-05,-4e-05,-1e-05,-8e-05,-5e-05,0.00019,6e-05,6,16
27878,-3e-05,-3e-05,-4e-05,-1e-05,-8e-05,-5e-05,0.00019,6e-05,6,16
27879,-3e-05,-3e-05,-4e-05,-1e-05,-8e-05,-5e-05,0.00019,6e-05,6,16
27880,-3e-05,-3e-05,-4e-05,-1e-05,-8e-05,-5e-05,0.00019,6e-05,6,16
27881,-3e-05,-3e-05,-4e-05,-1e-05,-8e-05,-5e-05,0.00019,6e-05,6,16
27882,-3e-05,-3e-05,-4e-05,-1e-05,-8e-05,-5e-05,0.00019,6e-05,6,16
27883,-3e-05,-3e-05,-4e-05,-1e-05,-8e-05,-5e-05,0.00019,6e-05,6,16
27884,-3e-05,-3e-05,-4e-05,-1e-05,-8e-05,-5e-05,0.00019,6e-05,6,16
27885,-3e-05,-3e-05,-4e-05,-1e-05,-8e-05,-5e-05,0.00019,6e-05,6,16
27886,-3e-05,-3e-05,-4e-05,-1e-05,-8e-05,-5e-05,0.00019,6e-05,6,16
27889,-1e-05,-3e-05,3e-05,7e-05,0.00028,0.00024,0.00021,5e-05,6,16
27890,-2e-05,-6e-05,-6e-05,-5e-05,-0.00029,-2e-05,6e-05,-5e-05,6,16
27891,-2e-05,-6e-05,-6e-05,-5e-05,-0.00029,-2e-05,6e-05,-5e-05,6,16
27892,-2e-05,-6e-05,-6e-05,-5e-05,-0.00029,-2e-05,6e-05,-5e-05,6,16
27893,-2e-05,-6e-05,-6e-05,-5e-05,-0.00029,-2e-05,6e-05,-5e-05,6,16
27894,-2e-05,-6e-05,-6e-05,-5e-05,-0.00029,-2e-05,6e-05,-5e-05,6,16
27895,-2e-05,-6e-05,-6e-05,-5e-05,-0.00029,-2e-05,6e-05,-5e-05,6,16
27896,-2e-05,-6e-05,-6e-05,-5e-05,-0.00029,-2e-05,6e-05,-5e-05,6,16
27897,-2e-05,-6e-05,-6e-05,-5e-05,-0.00029,-2e-05,6e-05,-5e-05,6,16
27898,-2e-05,-6e-05,-6e-05,-5e-05,-0.00029,-2e-05,6e-05,-5e-05,6,16
27899,-2e-05,-6e-05,-6e-05,-5e-05,-0.00029,-2e-05,6e-05,-5e-05,6,16
27900,-2e-05,-6e-05,-6e-05,-5e-05,-0.00029,-2e-05,6e-05,-5e-05,6,16
27901,-2e-05,-6e-05,-6e-05,-5e-05,-0.00029,-2e-05,6e-05,-5e-05,6,16
27902,-2e-05,-6e-05,-6e-05,-5e-05,-0.00029,-2e-05,6e-05,-5e-05,6,16
27903,-2e-05,-6e-05,-6e-05,-5e-05,-0.00029,-2e-05,6e-05,-5e-05,6,16
27904,-2e-05,-6e-05,-6e-05,-5e-05,-0.00029,-2e-05,6e-05,-5e-05,6,16
27905,-2e-05,-6e-05,-6e-05,-5e-05,-0.00029,-2e-05,6e-05,-5e-05,6,16
27906,-2e-05,-6e-05,-6e-05,-5e-05,-0.00029,-2e-05,6e-05,-5e-05,6,16
27907,-2e-05,-6e-05,-6e-05,-5e-05,-0.00029,-2e-05,6e-05,-5e-05,6,16
27908,-2e-05,-6e-05,-6e-05,-5e-05,-0.00029,-2e-05,6e-05,-5e-05,6,16
27909,-2e-05,-6e-05,-6e-05,-5e-05,-0.00029,-2e-05,6e-05,-5e-05,6,16
27910,-0.00013,-6e-05,-4e-05,-2e-05,-1e-05,-1e-05,-0.00013,-0.00014,6,16
27911,-0.00013,-6e-05,-4e-05,-2e-05,-1e-05,-1e-05,-0.00013,-0.00014,6,16
27912,6e-05,-4e-05,-6e-05,-3e-05,-0.00019,-2e-05,0,9e-05,6,16
27913,6e-05,-4e-05,-6e-05,-3e-05,-0.00019,-2e-05,0,9e-05,6,16
