27991,3e-05,2e-05,-2e-05,-6e-05,-2e-05,-9e-05,-2e-05,0.00018,6,19
27992,3e-05,2e-05,-2e-05,-6e-05,-2e-05,-9e-05,-2e-05,0.00018,6,19
27993,3e-05,2e-05,-2e-05,-6e-05,-2e-05,-9e-05,-2e-05,0.00018,6,19
27994,3e-05,2e-05,-2e-05,-6e-05,-2e-05,-9e-05,-2e-05,0.00018,6,19
27995,3e-05,2e-05,-2e-05,-6e-05,-2e-05,-9e-05,-2e-05,0.00018,6,19
27996,3e-05,2e-05,-2e-05,-6e-05,-2e-05,-9e-05,-2e-05,0.00018,6,19
27997,3e-05,2e-05,-2e-05,-6e-05,-2e-05,-9e-05,-2e-05,0.00018,6,19
27998,3e-05,2e-05,-2e-05,-6e-05,-2e-05,-9e-05,-2e-05,0.00018,6,19
27999,3e-05,2e-05,-2e-05,-6e-05,-2e-05,-9e-05,-2e-05,0.00018,6,19
28000,3e-05,2e-05,-2e-05,-6e-05,-2e-05,-9e-05,-2e-05,0.00018,6,19
28001,3e-05,2e-05,-2e-05,-6e-05,-2e-05,-9e-05,-2e-05,0.00018,6,19
28002,3e-05,2e-05,-2e-05,-6e-05,-2e-05,-9e-05,-2e-05,0.00018,6,19
28003,3e-05,2e-05,-2e-05,-6e-05,-2e-05,-9e-05,-2e-05,0.00018,6,19
28004,3e-05,2e-05,-2e-05,-6e-05,-2e-05,-9e-05,-2e-05,0.00018,6,19
28005,3e-05,2e-05,-2e-05,-6e-05,-2e-05,-9e-05,-2e-05,0.00018,6,19
28006,3e-05,2e-05,-2e-05,-6e-05,-2e-05,-9e-05,-2e-05,0.00018,6,19
28007,0.00016,0,-3e-05,5e-05,0.00021,0.00017,-4e-05,0.00018,6,19
28008,-4e-05,5e-05,9e-05,0.00015,0.0008,0.00018,0.00017,-0.00013,6,19
28009,-4e-05,5e-05,9e-05,0.00015,0.0008,0.00018,0.00017,-0.00013,6,19
28010,-4e-05,5e-05,9e-05,0.00015,0.0008,0.00018,0.00017,-0.00013,6,19
28011,-4e-05,5e-05,9e-05,0.00015,0.0008,0.00018,0.00017,-0.00013,6,19
28012,-4e-05,5e-05,9e-05,0.00015,0.0008,0.00018,0.00017,-0.00013,6,19
28013,-4e-05,5e-05,9e-05,0.00015,0.0008,0.00018,0.00017,-0.00013,6,19
28014,-4e-05,5e-05,9e-05,0.00015,0.0008,0.00018,0.00017,-0.00013,6,19
28015,-4e-05,5e-05,9e-05,0.00015,0.0008,0.00018,0.00017,-0.00013,6,19
28016,-4e-05,5e-05,9e-05,0.00015,0.0008,0.00018,0.00017,-0.00013,6,19
28017,-4e-05,5e-05,9e-05,0.00015,0.0008,0.00018,0.00017,-0.00013,6,19
28018,-4e-05,5e-05,9e-05,0.00015,0.0008,0.00018,0.00017,-0.00013,6,19
28019,-4e-05,5e-05,9e-05,0.00015,0.0008,0.00018,0.00017,-0.00013,6,19
28020,-4e-05,5e-05,9e-05,0.00015,0.0008,0.00018,0.00017,-0.00013,6,19
28021,-4e-05,5e-05,9e-05,0.00015,0.0008,0.00018,0.00017,-0.00013,6,19
28022,-4e-05,5e-05,9e-05,0.00015,0.0008,0.00018,0.00017,-0.00013,6,19
28023,-4e-05,5e-05,9e-05,0.00015,0.0008,0.00018,0.00017,-0.00013,6,19
28024,-4e-05,5e-05,9e-05,0.00015,0.0008,0.00018,0.00017,-0.00013,6,19
28025,-4e-05,5e-05,9e-05,0.00015,0.0008,0.00018,0.00017,-0.00013,6,19
28026,-4e-05,5e-05,9e-05,0.00015,0.0008,0.00018,0.00017,-0.00013,6,19
28027,-4e-05,5e-05,9e-05,0.00015,0.0008,0.00018,0.00017,-0.00013,6,19
28028,-7e-05,-6e-05,-2e-05,-8e-05,-0.0002,-0.00017,-0.0002,-0.0001,6,19
28029,-6e-05,-1e-05,1e-05,-5e-05,-0.00027,-0.00012,7e-05,0,6,19
28030,-4e-05,-3e-05,1e-05,2e-05,-8e-05,-4e-05,3e-05,-7e-05,6,19
28031,-4e-05,-3e-05,1e-05,2e-05,-8e-05,-4e-05,3e-05,-7e-05,6,19
28032,-4e-05,-3e-05,1e-05,2e-05,-8e-05,-4e-05,3e-05,-7e-05,6,19
28033,-4e-05,-3e-05,1e-05,2e-05,-8e-05,-4e-05,3e-05,-7e-05,6,19
28034,-4e-05,-3e-05,1e-05,2e-05,-8e-05,-4e-05,3e-05,-7e-05,6,19
28035,-4e-05,-3e-05,1e-05,2e-05,-8e-05,-4e-05,3e-05,-7e-05,6,19
28036,-4e-05,-3e-05,1e-05,2e-05,-8e-05,-4e-05,3e-05,-7e-05,6,19
28039,-4e-05,-3e-05,1e-05,2e-05,-8e-05,-4e-05,3e-05,-7e-05,6,19
28040,-4e-05,-3e-05,1e-05,2e-05,-8e-05,-4e-05,3e-05,-7e-05,6,19
28041,-4e-05,-3e-05,1e-05,2e-05,-8e-05,-4e-05,3e-05,-7e-05,6,19
28042,-7e-05,-3e-05,-3e-05,-6e-05,3e-05,-5e-05,0.00012,-1e-05,6,19
28043,-7e-05,-3e-05,-3e-05,-6e-05,3e-05,-5e-05,0.00012,-1e-05,6,19
28044,-7e-05,-3e-05,-3e-05,-6e-05,3e-05,-5e-05,0.00012,-1e-05,6,19
28045,-7e-05,-3e-05,-3e-05,-6e-05,3e-05,-5e-05,0.00012,-1e-05,6,19
28046,-7e-05,-3e-05,-3e-05,-6e-05,3e-05,-5e-05,0.00012,-1e-05,6,19
28047,-7e-05,-3e-05,-3e-05,-6e-05,3e-05,-5e-05,0.00012,-1e-05,6,19
28048,-7e-05,-3e-05,-3e-05,-6e-05,3e-05,-5e-05,0.00012,-1e-05,6,19
28049,-7e-05,-3e-05,-3e-05,-6e-05,3e-05,-5e-05,0.00012,-1e-05,6,19
28050,-7e-05,-3e-05,-3e-05,-6e-05,3e-05,-5e-05,0.00012,-1e-05,6,19
28051,-5e-05,1e-05,8e-05,0.00027,0.0001,-5e-05,-8e-05,0,6,19
28053,-5e-05,1e-05,8e-05,0.00027,0.0001,-5e-05,-8e-05,0,6,19
28054,-5e-05,1e-05,8e-05,0.00027,0.0001,-5e-05,-8e-05,0,6,19
28055,-5e-05,1e-05,8e-05,0.00027,0.0001,-5e-05,-8e-05,0,6,19
28056,-5e-05,1e-05,8e-05,0.00027,0.0001,-5e-05,-8e-05,0,6,19
28057,-5e-05,1e-05,8e-05,0.00027,0.0001,-5e-05,-8e-05,0,6,19
28058,-5e-05,1e-05,8e-05,0.00027,0.0001,-5e-05,-8e-05,0,6,19
28059,-5e-05,1e-05,8e-05,0.00027,0.0001,-5e-05,-8e-05,0,6,19
28060,-5e-05,1e-05,8e-05,0.00027,0.0001,-5e-05,-8e-05,0,6,19
28061,-5e-05,1e-05,8e-05,0.00027,0.0001,-5e-05,-8e-05,0,6,19
28062,-5e-05,1e-05,8e-05,0.00027,0.0001,-5e-05,-8e-05,0,6,19
28063,-5e-05,1e-05,8e-05,0.00027,0.0001,-5e-05,-8e-05,0,6,19
28064,-5e-05,1e-05,8e-05,0.00027,0.0001,-5e-05,-8e-05,0,6,19
28065,-5e-05,1e-05,8e-05,0.00027,0.0001,-5e-05,-8e-05,0,6,19
28066,0,1e-05,2e-05,-1e-05,-0.00024,-0.00026,-0.00013,-8e-05,6,19
28067,6e-05,-0.0001,-0.00012,-0.00014,-0.00014,0,0,-9e-05,6,19
28068,-1e-05,4e-05,8e-05,1e-05,0.00012,-4e-05,-0.0001,2e-05,6,19
28069,-1e-05,4e-05,8e-05,1e-05,0.00012,-4e-05,-0.0001,2e-05,6,19
28070,-1e-05,4e-05,8e-05,1e-05,0.00012,-4e-05,-0.0001,2e-05,6,19
28071,-1e-05,4e-05,8e-05,1e-05,0.00012,-4e-05,-0.0001,2e-05,6,19
28072,-1e-05,4e-05,8e-05,1e-05,0.00012,-4e-05,-0.0001,2e-05,6,19
28073,-1e-05,4e-05,8e-05,1e-05,0.00012,-4e-05,-0.0001,2e-05,6,19
28074,-1e-05,4e-05,8e-05,1e-05,0.00012,-4e-05,-0.0001,2e-05,6,19
28075,-1e-05,4e-05,8e-05,1e-05,0.00012,-4e-05,-0.0001,2e-05,6,19
28076,-1e-05,4e-05,8e-05,1e-05,0.00012,-4e-05,-0.0001,2e-05,6,19
28077,-1e-05,4e-05,8e-05,1e-05,0.00012,-4e-05,-0.0001,2e-05,6,19
28078,-1e-05,4e-05,8e-05,1e-05,0.00012,-4e-05,-0.0001,2e-05,6,19
28079,-1e-05,4e-05,8e-05,1e-05,0.00012,-4e-05,-0.0001,2e-05,6,19
28080,-1e-05,4e-05,8e-05,1e-05,0.00012,-4e-05,-0.0001,2e-05,6,19
28081,-1e-05,4e-05,8e-05,1e-05,0.00012,-4e-05,-0.0001,2e-05,6,19
28082,-1e-05,4e-05,8e-05,1e-05,0.00012,-4e-05,-0.0001,2e-05,6,19
28083,-1e-05,4e-05,8e-05,1e-05,0.00012,-4e-05,-0.0001,2e-05,6,19
28084,-1e-05,4e-05,8e-05,1e-05,0.00012,-4e-05,-0.0001,2e-05,6,19
28085,-1e-05,4e-05,8e-05,1e-05,0.00012,-4e-05,-0.0001,2e-05,6,19
28086,-1e-05,4e-05,8e-05,1e-05,0.00012,-4e-05,-0.0001,2e-05,6,19
28089,9e-05,7e-05,1e-05,-6e-05,5e-05,-0.00012,-0.00013,-6e-05,6,19
28090,0.00015,0,-7e-05,-0.00025,-0.00052,-0.00019,-0.00013,-0.00025,6,19
28091,0.00015,0,-7e-05,-0.00025,-0.00052,-0.00019,-0.00013,-0.00025,6,19
28092,0.00015,0,-7e-05,-0.00025,-0.00052,-0.00019,-0.00013,-0.00025,6,19
28093,0.00015,0,-7e-05,-0.00025,-0.00052,-0.00019,-0.00013,-0.00025,6,19
28094,0.00015,0,-7e-05,-0.00025,-0.00052,-0.00019,-0.00013,-0.00025,6,19
28095,0.00015,0,-7e-05,-0.00025,-0.00052,-0.00019,-0.00013,-0.00025,6,19
28096,0.00015,0,-7e-05,-0.00025,-0.00052,-0.00019,-0.00013,-0.00025,6,19
28097,0.00015,0,-7e-05,-0.00025,-0.00052,-0.00019,-0.00013,-0.00025,6,19
28098,0.00015,0,-7e-05,-0.00025,-0.00052,-0.00019,-0.00013,-0.00025,6,19
28099,0.00015,0,-7e-05,-0.00025,-0.00052,-0.00019,-0.00013,-0.00025,6,19
28100,0.00015,0,-7e-05,-0.00025,-0.00052,-0.00019,-0.00013,-0.00025,6,19
28101,0.00015,0,-7e-05,-0.00025,-0.00052,-0.00019,-0.00013,-0.00025,6,19
28102,-0.00015,-3e-05,-5e-05,-7e-05,-0.00011,7e-05,-0.00012,-0.00041,6,19
28103,-0.00015,-3e-05,-5e-05,-7e-05,-0.00011,7e-05,-0.00012,-0.00041,6,19
28104,-0.00015,-3e-05,-5e-05,-7e-05,-0.00011,7e-05,-0.00012,-0.00041,6,19
28105,-0.00015,-3e-05,-5e-05,-7e-05,-0.00011,7e-05,-0.00012,-0.00041,6,19
28106,-0.00015,-3e-05,-5e-05,-7e-05,-0.00011,7e-05,-0.00012,-0.00041,6,19
28107,-0.00015,-3e-05,-5e-05,-7e-05,-0.00011,7e-05,-0.00012,-0.00041,6,19
28108,-0.00015,-3e-05,-5e-05,-7e-05,-0.00011,7e-05,-0.00012,-0.00041,6,19
28109,-0.00015,-3e-05,-5e-05,-7e-05,-0.00011,7e-05,-0.00012,-0.00041,6,19
28110,-0.00015,-3e-05,-5e-05,-7e-05,-0.00011,7e-05,-0.00012,-0.00041,6,19
28111,-6e-05,-2e-05,-7e-05,-0.00014,-0.00046,-0.00035,1e-05,-8e-05,6,19
28112,-6e-05,-2e-05,-7e-05,-0.00014,-0.00046,-0.00035,1e-05,-8e-05,6,19
28113,-6e-05,-2e-05,-7e-05,-0.00014,-0.00046,-0.00035,1e-05,-8e-05,6,19
28114,-6e-05,-2e-05,-7e-05,-0.00014,-0.00046,-0.00035,1e-05,-8e-05,6,19
28115,-6e-05,-2e-05,-7e-05,-0.00014,-0.00046,-0.00035,1e-05,-8e-05,6,19
28116,-6e-05,-2e-05,-7e-05,-0.00014,-0.00046,-0.00035,1e-05,-8e-05,6,19
28117,-6e-05,-2e-05,-7e-05,-0.00014,-0.00046,-0.00035,1e-05,-8e-05,6,19
28118,-6e-05,-2e-05,-7e-05,-0.00014,-0.00046,-0.00035,1e-05,-8e-05,6,19
28119,-6e-05,-2e-05,-7e-05,-0.00014,-0.00046,-0.00035,1e-05,-8e-05,6,19
28120,-6e-05,-2e-05,-7e-05,-0.00014,-0.00046,-0.00035,1e-05,-8e-05,6,19
28121,-6e-05,-2e-05,-7e-05,-0.00014,-0.00046,-0.00035,1e-05,-8e-05,6,19
28122,-6e-05,-2e-05,-7e-05,-0.00014,-0.00046,-0.00035,1e-05,-8e-05,6,19
28123,-6e-05,-2e-05,-7e-05,-0.00014,-0.00046,-0.00035,1e-05,-8e-05,6,19
28124,-6e-05,-2e-05,-7e-05,-0.00014,-0.00046,-0.00035,1e-05,-8e-05,6,19
28125,-6e-05,-2e-05,-7e-05,-0.00014,-0.00046,-0.00035,1e-05,-8e-05,6,19
28126,1e-05,-1e-05,3e-05,0.00012,0.00035,0.00028,6e-05,1e-05,6,19
28127,1e-05,-1e-05,3e-05,0.00012,0.00035,0.00028,6e-05,1e-05,6,19
28128,-7e-05,-6e-05,0,0.0001,0.00059,8e-05,-4e-05,0.00011,6,19
28129,-7e-05,-6e-05,0,0.0001,0.00059,8e-05,-4e-05,0.00011,6,19
28130,-7e-05,-6e-05,0,0.0001,0.00059,8e-05,-4e-05,0.00011,6,19
28131,-7e-05,-6e-05,0,0.0001,0.00059,8e-05,-4e-05,0.00011,6,19
28132,-7e-05,-6e-05,0,0.0001,0.00059,8e-05,-4e-05,0.00011,6,19
28133,-7e-05,-6e-05,0,0.0001,0.00059,8e-05,-4e-05,0.00011,6,19
28134,-7e-05,-6e-05,0,0.0001,0.00059,8e-05,-4e-05,0.00011,6,19
28135,-7e-05,-6e-05,0,0.0001,0.00059,8e-05,-4e-05,0.00011,6,19
28136,-7e-05,-6e-05,0,0.0001,0.00059,8e-05,-4e-05,0.00011,6,19
28139,-7e-05,-6e-05,0,0.0001,0.00059,8e-05,-4e-05,0.00011,6,19
28140,-7e-05,-6e-05,0,0.0001,0.00059,8e-05,-4e-05,0.00011,6,19
28141,-7e-05,-6e-05,0,0.0001,0.00059,8e-05,-4e-05,0.00011,6,19
28142,-7e-05,-6e-05,0,0.0001,0.00059,8e-05,-4e-05,0.00011,6,19
28143,-7e-05,-6e-05,0,0.0001,0.00059,8e-05,-4e-05,0.00011,6,19
28144,-7e-05,-6e-05,0,0.0001,0.00059,8e-05,-4e-05,0.00011,6,19
28145,-7e-05,-6e-05,0,0.0001,0.00059,8e-05,-4e-05,0.00011,6,19
28146,-7e-05,-6e-05,0,0.0001,0.00059,8e-05,-4e-05,0.00011,6,19
28147,-7e-05,-6e-05,0,0.0001,0.00059,8e-05,-4e-05,0.00011,6,19
28148,-7e-05,-6e-05,0,0.0001,0.00059,8e-05,-4e-05,0.00011,6,19
28149,0,-1e-05,1e-05,5e-05,0.00012,-1e-05,7e-05,0.00031,6,19
28150,-3e-05,1e-05,-2e-05,0.00011,0.00031,0.00026,0.0001,-4e-05,6,19
28152,-3e-05,1e-05,-2e-05,0.00011,0.00031,0.00026,0.0001,-4e-05,6,19
28153,-3e-05,1e-05,-2e-05,0.00011,0.00031,0.00026,0.0001,-4e-05,6,19
28154,-3e-05,1e-05,-2e-05,0.00011,0.00031,0.00026,0.0001,-4e-05,6,19
28155,-3e-05,1e-05,-2e-05,0.00011,0.00031,0.00026,0.0001,-4e-05,6,19
28156,-3e-05,1e-05,-2e-05,0.00011,0.00031,0.00026,0.0001,-4e-05,6,19
28157,-3e-05,1e-05,-2e-05,0.00011,0.00031,0.00026,0.0001,-4e-05,6,19
28158,-3e-05,1e-05,-2e-05,0.00011,0.00031,0.00026,0.0001,-4e-05,6,19
28159,-3e-05,1e-05,-2e-05,0.00011,0.00031,0.00026,0.0001,-4e-05,6,19
28160,-3e-05,1e-05,-2e-05,0.00011,0.00031,0.00026,0.0001,-4e-05,6,19
28161,-3e-05,1e-05,-2e-05,0.00011,0.00031,0.00026,0.0001,-4e-05,6,19
28162,-3e-05,1e-05,-2e-05,0.00011,0.00031,0.00026,0.0001,-4e-05,6,19
28163,0,-2e-05,-3e-05,-0.00012,-0.00025,-0.00013,4e-05,9e-05,6,19
28164,0,-2e-05,-3e-05,-0.00012,-0.00025,-0.00013,4e-05,9e-05,6,19
28165,0,-2e-05,-3e-05,-0.00012,-0.00025,-0.00013,4e-05,9e-05,6,19
28166,0,-2e-05,-3e-05,-0.00012,-0.00025,-0.00013,4e-05,9e-05,6,19
28167,0,-2e-05,-3e-05,-0.00012,-0.00025,-0.00013,4e-05,9e-05,6,19
28168,0,-2e-05,-3e-05,-0.00012,-0.00025,-0.00013,4e-05,9e-05,6,19
28169,0,-2e-05,-3e-05,-0.00012,-0.00025,-0.00013,4e-05,9e-05,6,19
28170,0,-2e-05,-3e-05,-0.00012,-0.00025,-0.00013,4e-05,9e-05,6,19
28171,1e-05,-1e-05,1e-05,-3e-05,6e-05,-6e-05,-5e-05,-7e-05,6,19
28172,1e-05,-1e-05,1e-05,-3e-05,6e-05,-6e-05,-5e-05,-7e-05,6,19
28173,1e-05,-1e-05,1e-05,-3e-05,6e-05,-6e-05,-5e-05,-7e-05,6,19
28174,1e-05,-1e-05,1e-05,-3e-05,6e-05,-6e-05,-5e-05,-7e-05,6,19
28175,1e-05,-1e-05,1e-05,-3e-05,6e-05,-6e-05,-5e-05,-7e-05,6,19
28176,1e-05,-1e-05,1e-05,-3e-05,6e-05,-6e-05,-5e-05,-7e-05,6,19
28177,1e-05,-1e-05,1e-05,-3e-05,6e-05,-6e-05,-5e-05,-7e-05,6,19
28178,1e-05,-1e-05,1e-05,-3e-05,6e-05,-6e-05,-5e-05,-7e-05,6,19
28179,1e-05,-1e-05,1e-05,-3e-05,6e-05,-6e-05,-5e-05,-7e-05,6,19
28180,1e-05,-1e-05,1e-05,-3e-05,6e-05,-6e-05,-5e-05,-7e-05,6,19
28181,1e-05,-1e-05,1e-05,-3e-05,6e-05,-6e-05,-5e-05,-7e-05,6,19
28182,1e-05,-1e-05,1e-05,-3e-05,6e-05,-6e-05,-5e-05,-7e-05,6,19
28183,1e-05,-1e-05,1e-05,-3e-05,6e-05,-6e-05,-5e-05,-7e-05,6,19
28184,1e-05,-1e-05,1e-05,-3e-05,6e-05,-6e-05,-5e-05,-7e-05,6,19
28185,1e-05,-1e-05,1e-05,-3e-05,6e-05,-6e-05,-5e-05,-7e-05,6,19
28187,-0.00011,-0.00018,-0.00012,-9e-05,-0.00035,-9e-05,3e-05,-0.00014,6,19
28190,1e-05,-5e-05,-9e-05,-0.0001,-0.00044,4e-05,-0.00016,-0.00012,6,19
28191,1e-05,-5e-05,-9e-05,-0.0001,-0.00044,4e-05,-0.00016,-0.00012,6,19
28192,1e-05,-5e-05,-9e-05,-0.0001,-0.00044,4e-05,-0.00016,-0.00012,6,19
28193,1e-05,-5e-05,-9e-05,-0.0001,-0.00044,4e-05,-0.00016,-0.00012,6,19
28194,1e-05,-5e-05,-9e-05,-0.0001,-0.00044,4e-05,-0.00016,-0.00012,6,19
28195,1e-05,-5e-05,-9e-05,-0.0001,-0.00044,4e-05,-0.00016,-0.00012,6,19
28196,1e-05,-5e-05,-9e-05,-0.0001,-0.00044,4e-05,-0.00016,-0.00012,6,19
28197,1e-05,-5e-05,-9e-05,-0.0001,-0.00044,4e-05,-0.00016,-0.00012,6,19
28199,1e-05,-5e-05,-9e-05,-0.0001,-0.00044,4e-05,-0.00016,-0.00012,6,19
28200,1e-05,-5e-05,-9e-05,-0.0001,-0.00044,4e-05,-0.00016,-0.00012,6,19
28201,1e-05,-5e-05,-9e-05,-0.0001,-0.00044,4e-05,-0.00016,-0.00012,6,19
28202,1e-05,-5e-05,-9e-05,-0.0001,-0.00044,4e-05,-0.00016,-0.00012,6,19
28203,1e-05,-5e-05,-9e-05,-0.0001,-0.00044,4e-05,-0.00016,-0.00012,6,19
28204,1e-05,-5e-05,-9e-05,-0.0001,-0.00044,4e-05,-0.00016,-0.00012,6,19
28205,1e-05,-5e-05,-9e-05,-0.0001,-0.00044,4e-05,-0.00016,-0.00012,6,19
28206,1e-05,-5e-05,-9e-05,-0.0001,-0.00044,4e-05,-0.00016,-0.00012,6,19
28207,1e-05,-5e-05,-9e-05,-0.0001,-0.00044,4e-05,-0.00016,-0.00012,6,19
28208,1e-05,-5e-05,-9e-05,-0.0001,-0.00044,4e-05,-0.00016,-0.00012,6,19
28209,-7e-05,3e-05,-2e-05,3e-05,-3e-05,8e-05,0,0,6,19
28210,6e-05,4e-05,-1e-05,-7e-05,-0.00065,-9e-05,4e-05,0.00029,6,19
28211,6e-05,4e-05,-1e-05,-7e-05,-0.00065,-9e-05,4e-05,0.00029,6,19
28212,6e-05,4e-05,-1e-05,-7e-05,-0.00065,-9e-05,4e-05,0.00029,6,19
28213,6e-05,4e-05,-1e-05,-7e-05,-0.00065,-9e-05,4e-05,0.00029,6,19
28214,6e-05,4e-05,-1e-05,-7e-05,-0.00065,-9e-05,4e-05,0.00029,6,19
28215,6e-05,4e-05,-1e-05,-7e-05,-0.00065,-9e-05,4e-05,0.00029,6,19
28216,6e-05,4e-05,-1e-05,-7e-05,-0.00065,-9e-05,4e-05,0.00029,6,19
28217,6e-05,4e-05,-1e-05,-7e-05,-0.00065,-9e-05,4e-05,0.00029,6,19
28218,6e-05,4e-05,-1e-05,-7e-05,-0.00065,-9e-05,4e-05,0.00029,6,19
28219,6e-05,4e-05,-1e-05,-7e-05,-0.00065,-9e-05,4e-05,0.00029,6,19
28220,6e-05,4e-05,-1e-05,-7e-05,-0.00065,-9e-05,4e-05,0.00029,6,19
28221,6e-05,4e-05,-1e-05,-7e-05,-0.00065,-9e-05,4e-05,0.00029,6,19
28222,3e-05,-1e-05,-2e-05,-5e-05,-0.00016,9e-05,-9e-05,-6e-05,6,19
28223,3e-05,-1e-05,-2e-05,-5e-05,-0.00016,9e-05,-9e-05,-6e-05,6,19
28224,3e-05,-1e-05,-2e-05,-5e-05,-0.00016,9e-05,-9e-05,-6e-05,6,19
28225,3e-05,-1e-05,-2e-05,-5e-05,-0.00016,9e-05,-9e-05,-6e-05,6,19
28226,3e-05,-1e-05,-2e-05,-5e-05,-0.00016,9e-05,-9e-05,-6e-05,6,19
28227,3e-05,-1e-05,-2e-05,-5e-05,-0.00016,9e-05,-9e-05,-6e-05,6,19
28228,3e-05,-1e-05,-2e-05,-5e-05,-0.00016,9e-05,-9e-05,-6e-05,6,19
28229,3e-05,-1e-05,-2e-05,-5e-05,-0.00016,9e-05,-9e-05,-6e-05,6,19
28230,3e-05,-1e-05,-2e-05,-5e-05,-0.00016,9e-05,-9e-05,-6e-05,6,19
28231,8e-05,6e-05,5e-05,0.00014,0.00035,-0.00014,-3e-05,-0.00027,6,19
28232,8e-05,6e-05,5e-05,0.00014,0.00035,-0.00014,-3e-05,-0.00027,6,19
28233,8e-05,6e-05,5e-05,0.00014,0.00035,-0.00014,-3e-05,-0.00027,6,19
28234,8e-05,6e-05,5e-05,0.00014,0.00035,-0.00014,-3e-05,-0.00027,6,19
28235,8e-05,6e-05,5e-05,0.00014,0.00035,-0.00014,-3e-05,-0.00027,6,19
28236,8e-05,6e-05,5e-05,0.00014,0.00035,-0.00014,-3e-05,-0.00027,6,19
28239,8e-05,6e-05,5e-05,0.00014,0.00035,-0.00014,-3e-05,-0.00027,6,19
28240,8e-05,6e-05,5e-05,0.00014,0.00035,-0.00014,-3e-05,-0.00027,6,19
28241,8e-05,6e-05,5e-05,0.00014,0.00035,-0.00014,-3e-05,-0.00027,6,19
28242,8e-05,6e-05,5e-05,0.00014,0.00035,-0.00014,-3e-05,-0.00027,6,19
28243,8e-05,6e-05,5e-05,0.00014,0.00035,-0.00014,-3e-05,-0.00027,6,19
28244,8e-05,6e-05,5e-05,0.00014,0.00035,-0.00014,-3e-05,-0.00027,6,19
28245,8e-05,6e-05,5e-05,0.00014,0.00035,-0.00014,-3e-05,-0.00027,6,19
28246,1e-05,-1e-05,-3e-05,-6e-05,0.00048,-6e-05,3e-05,0.0003,6,19
28247,1e-05,-1e-05,-3e-05,-6e-05,0.00048,-6e-05,3e-05,0.0003,6,19
28248,-9e-05,-0.0001,-4e-05,6e-05,3e-05,8e-05,0.00018,-8e-05,6,19
28249,-9e-05,-0.0001,-4e-05,6e-05,3e-05,8e-05,0.00018,-8e-05,6,19
28250,-9e-05,-0.0001,-4e-05,6e-05,3e-05,8e-05,0.00018,-8e-05,6,19
28251,-9e-05,-0.0001,-4e-05,6e-05,3e-05,8e-05,0.00018,-8e-05,6,19
28252,-9e-05,-0.0001,-4e-05,6e-05,3e-05,8e-05,0.00018,-8e-05,6,19
28253,-9e-05,-0.0001,-4e-05,6e-05,3e-05,8e-05,0.00018,-8e-05,6,19
28254,-9e-05,-0.0001,-4e-05,6e-05,3e-05,8e-05,0.00018,-8e-05,6,19
28255,-9e-05,-0.0001,-4e-05,6e-05,3e-05,8e-05,0.00018,-8e-05,6,19
28256,-9e-05,-0.0001,-4e-05,6e-05,3e-05,8e-05,0.00018,-8e-05,6,19
28257,-9e-05,-0.0001,-4e-05,6e-05,3e-05,8e-05,0.00018,-8e-05,6,19
28258,-9e-05,-0.0001,-4e-05,6e-05,3e-05,8e-05,0.00018,-8e-05,6,19
28259,-9e-05,-0.0001,-4e-05,6e-05,3e-05,8e-05,0.00018,-8e-05,6,19
28260,-9e-05,-0.0001,-4e-05,6e-05,3e-05,8e-05,0.00018,-8e-05,6,19
28261,-9e-05,-0.0001,-4e-05,6e-05,3e-05,8e-05,0.00018,-8e-05,6,19
28262,-9e-05,-0.0001,-4e-05,6e-05,3e-05,8e-05,0.00018,-8e-05,6,19
28263,-9e-05,-0.0001,-4e-05,6e-05,3e-05,8e-05,0.00018,-8e-05,6,19
28264,-9e-05,-0.0001,-4e-05,6e-05,3e-05,8e-05,0.00018,-8e-05,6,19
28265,-9e-05,-0.0001,-4e-05,6e-05,3e-05,8e-05,0.00018,-8e-05,6,19
28266,-9e-05,-0.0001,-4e-05,6e-05,3e-05,8e-05,0.00018,-8e-05,6,19
28267,-9e-05,-0.0001,-4e-05,6e-05,3e-05,8e-05,0.00018,-8e-05,6,19
28268,0,3e-05,3e-05,0.00018,0.00031,-0.00011,0.00011,1e-05,6,19
28269,1e-05,-1e-05,0,6e-05,-1e-05,2e-05,-1e-05,-7e-05,6,19
28270,5e-05,-7e-05,-4e-05,2e-05,5e-05,0.00012,0.00014,-0.00013,6,19
28271,5e-05,-7e-05,-4e-05,2e-05,5e-05,0.00012,0.00014,-0.00013,6,19
28272,5e-05,-7e-05,-4e-05,2e-05,5e-05,0.00012,0.00014,-0.00013,6,19
28273,5e-05,-7e-05,-4e-05,2e-05,5e-05,0.00012,0.00014,-0.00013,6,19
28274,5e-05,-7e-05,-4e-05,2e-05,5e-05,0.00012,0.00014,-0.00013,6,19
28275,5e-05,-7e-05,-4e-05,2e-05,5e-05,0.00012,0.00014,-0.00013,6,19
28276,5e-05,-7e-05,-4e-05,2e-05,5e-05,0.00012,0.00014,-0.00013,6,19
28277,5e-05,-7e-05,-4e-05,2e-05,5e-05,0.00012,0.00014,-0.00013,6,19
28278,5e-05,-7e-05,-4e-05,2e-05,5e-05,0.00012,0.00014,-0.00013,6,19
28279,5e-05,-7e-05,-4e-05,2e-05,5e-05,0.00012,0.00014,-0.00013,6,19
28280,5e-05,-7e-05,-4e-05,2e-05,5e-05,0.00012,0.00014,-0.00013,6,19
28281,5e-05,-7e-05,-4e-05,2e-05,5e-05,0.00012,0.00014,-0.00013,6,19
28282,0.00016,0.0001,0.0001,0.00014,-0.00011,0.00013,-0.00032,-0.0001,6,19
28283,0.00016,0.0001,0.0001,0.00014,-0.00011,0.00013,-0.00032,-0.0001,6,19
28284,0.00016,0.0001,0.0001,0.00014,-0.00011,0.00013,-0.00032,-0.0001,6,19
28285,0.00016,0.0001,0.0001,0.00014,-0.00011,0.00013,-0.00032,-0.0001,6,19
28286,0.00016,0.0001,0.0001,0.00014,-0.00011,0.00013,-0.00032,-0.0001,6,19
28289,0.00016,0.0001,0.0001,0.00014,-0.00011,0.00013,-0.00032,-0.0001,6,19
28290,0.00016,0.0001,0.0001,0.00014,-0.00011,0.00013,-0.00032,-0.0001,6,19
28291,0.00016,0.0001,0.0001,0.00014,-0.00011,0.00013,-0.00032,-0.0001,6,19
28292,-7e-05,-1e-05,-1e-05,-7e-05,1e-05,-2e-05,1e-05,3e-05,6,19
28293,-7e-05,-1e-05,-1e-05,-7e-05,1e-05,-2e-05,1e-05,3e-05,6,19
28294,-7e-05,-1e-05,-1e-05,-7e-05,1e-05,-2e-05,1e-05,3e-05,6,19
28295,-7e-05,-1e-05,-1e-05,-7e-05,1e-05,-2e-05,1e-05,3e-05,6,19
28296,-7e-05,-1e-05,-1e-05,-7e-05,1e-05,-2e-05,1e-05,3e-05,6,19
28297,-7e-05,-1e-05,-1e-05,-7e-05,1e-05,-2e-05,1e-05,3e-05,6,19
28298,-7e-05,-1e-05,-1e-05,-7e-05,1e-05,-2e-05,1e-05,3e-05,6,19
28299,-7e-05,-1e-05,-1e-05,-7e-05,1e-05,-2e-05,1e-05,3e-05,6,19
28300,-7e-05,-1e-05,-1e-05,-7e-05,1e-05,-2e-05,1e-05,3e-05,6,19
28301,-7e-05,-1e-05,-1e-05,-7e-05,1e-05,-2e-05,1e-05,3e-05,6,19
28302,-7e-05,-1e-05,-1e-05,-7e-05,1e-05,-2e-05,1e-05,3e-05,6,19
28303,-7e-05,-1e-05,-1e-05,-7e-05,1e-05,-2e-05,1e-05,3e-05,6,19
28304,-7e-05,-1e-05,-1e-05,-7e-05,1e-05,-2e-05,1e-05,3e-05,6,19
28305,-7e-05,-1e-05,-1e-05,-7e-05,1e-05,-2e-05,1e-05,3e-05,6,19
28306,-7e-05,-1e-05,-1e-05,-7e-05,1e-05,-2e-05,1e-05,3e-05,6,19
28307,-6e-05,-7e-05,-2e-05,2e-05,-0.00022,-0.0001,0,-8e-05,6,19
28308,-9e-05,4e-05,2e-05,-0.00014,2e-05,-4e-05,-0.0001,-3e-05,6,19
28309,-9e-05,4e-05,2e-05,-0.00014,2e-05,-4e-05,-0.0001,-3e-05,6,19
28310,-9e-05,4e-05,2e-05,-0.00014,2e-05,-4e-05,-0.0001,-3e-05,6,19
28311,-9e-05,4e-05,2e-05,-0.00014,2e-05,-4e-05,-0.0001,-3e-05,6,19
28312,-9e-05,4e-05,2e-05,-0.00014,2e-05,-4e-05,-0.0001,-3e-05,6,19
28313,-9e-05,4e-05,2e-05,-0.00014,2e-05,-4e-05,-0.0001,-3e-05,6,19
28314,-9e-05,4e-05,2e-05,-0.00014,2e-05,-4e-05,-0.0001,-3e-05,6,19
28315,-9e-05,4e-05,2e-05,-0.00014,2e-05,-4e-05,-0.0001,-3e-05,6,19
28316,-9e-05,4e-05,2e-05,-0.00014,2e-05,-4e-05,-0.0001,-3e-05,6,19
28317,-9e-05,4e-05,2e-05,-0.00014,2e-05,-4e-05,-0.0001,-3e-05,6,19
28318,-9e-05,4e-05,2e-05,-0.00014,2e-05,-4e-05,-0.0001,-3e-05,6,19
28319,-9e-05,4e-05,2e-05,-0.00014,2e-05,-4e-05,-0.0001,-3e-05,6,19
28320,-9e-05,4e-05,2e-05,-0.00014,2e-05,-4e-05,-0.0001,-3e-05,6,19
28321,-9e-05,4e-05,2e-05,-0.00014,2e-05,-4e-05,-0.0001,-3e-05,6,19
28322,-9e-05,4e-05,2e-05,-0.00014,2e-05,-4e-05,-0.0001,-3e-05,6,19
28323,-9e-05,4e-05,2e-05,-0.00014,2e-05,-4e-05,-0.0001,-3e-05,6,19
28324,-9e-05,4e-05,2e-05,-0.00014,2e-05,-4e-05,-0.0001,-3e-05,6,19
28325,-9e-05,4e-05,2e-05,-0.00014,2e-05,-4e-05,-0.0001,-3e-05,6,19
28326,-9e-05,4e-05,2e-05,-0.00014,2e-05,-4e-05,-0.0001,-3e-05,6,19
28327,-9e-05,4e-05,2e-05,-0.00014,2e-05,-4e-05,-0.0001,-3e-05,6,19
28328,-9e-05,4e-05,2e-05,-0.00014,2e-05,-4e-05,-0.0001,-3e-05,6,19
28329,8e-05,-2e-05,-3e-05,1e-05,0.00017,-1e-05,0.00032,0.00058,6,19
28330,-0.0001,-2e-05,-3e-05,-6e-05,0.00014,6e-05,4e-05,0.0001,6,19
28331,-0.0001,-2e-05,-3e-05,-6e-05,0.00014,6e-05,4e-05,0.0001,6,19
28332,-0.0001,-2e-05,-3e-05,-6e-05,0.00014,6e-05,4e-05,0.0001,6,19
28333,-0.0001,-2e-05,-3e-05,-6e-05,0.00014,6e-05,4e-05,0.0001,6,19
28334,-0.0001,-2e-05,-3e-05,-6e-05,0.00014,6e-05,4e-05,0.0001,6,19
28335,-0.0001,-2e-05,-3e-05,-6e-05,0.00014,6e-05,4e-05,0.0001,6,19
28337,-0.0001,-2e-05,-3e-05,-6e-05,0.00014,6e-05,4e-05,0.0001,6,19
28340,-0.0001,-2e-05,-3e-05,-6e-05,0.00014,6e-05,4e-05,0.0001,6,19
28341,-0.0001,-2e-05,-3e-05,-6e-05,0.00014,6e-05,4e-05,0.0001,6,19
28342,-0.0001,-2e-05,-3e-05,-6e-05,0.00014,6e-05,4e-05,0.0001,6,19
28343,-0.0001,-2e-05,-3e-05,-6e-05,0.00014,6e-05,4e-05,0.0001,6,19
28344,-0.0001,-2e-05,-3e-05,-6e-05,0.00014,6e-05,4e-05,0.0001,6,19
28345,-0.0001,-2e-05,-3e-05,-6e-05,0.00014,6e-05,4e-05,0.0001,6,19
28346,-0.0001,-2e-05,-3e-05,-6e-05,0.00014,6e-05,4e-05,0.0001,6,19
28347,-0.0001,-2e-05,-3e-05,-6e-05,0.00014,6e-05,4e-05,0.0001,6,19
28348,-0.0001,-2e-05,-3e-05,-6e-05,0.00014,6e-05,4e-05,0.0001,6,19
28349,-0.0001,-2e-05,-3e-05,-6e-05,0.00014,6e-05,4e-05,0.0001,6,19
28350,-0.0001,-2e-05,-3e-05,-6e-05,0.00014,6e-05,4e-05,0.0001,6,19
28351,-0.0001,-2e-05,-3e-05,-6e-05,0.00014,6e-05,4e-05,0.0001,6,19
28352,-0.0001,-2e-05,-3e-05,-6e-05,0.00014,6e-05,4e-05,0.0001,6,19
28353,-0.0001,-2e-05,-3e-05,-6e-05,0.00014,6e-05,4e-05,0.0001,6,19
28354,-0.0001,-2e-05,-3e-05,-6e-05,0.00014,6e-05,4e-05,0.0001,6,19
28355,-0.0001,-2e-05,-3e-05,-6e-05,0.00014,6e-05,4e-05,0.0001,6,19
28356,-0.0001,-2e-05,-3e-05,-6e-05,0.00014,6e-05,4e-05,0.0001,6,19
28357,-0.0001,-2e-05,-3e-05,-6e-05,0.00014,6e-05,4e-05,0.0001,6,19
28358,-0.0001,-2e-05,-3e-05,-6e-05,0.00014,6e-05,4e-05,0.0001,6,19
28359,-5e-05,0,-3e-05,1e-05,8e-05,-6e-05,-0.00011,-0.00028,6,19
28360,-5e-05,0,-3e-05,1e-05,8e-05,-6e-05,-0.00011,-0.00028,6,19
28361,-5e-05,0,-3e-05,1e-05,8e-05,-6e-05,-0.00011,-0.00028,6,19
28362,-5e-05,0,-3e-05,1e-05,8e-05,-6e-05,-0.00011,-0.00028,6,19
28363,-5e-05,0,-3e-05,1e-05,8e-05,-6e-05,-0.00011,-0.00028,6,19
28364,-5e-05,0,-3e-05,1e-05,8e-05,-6e-05,-0.00011,-0.00028,6,19
28365,-5e-05,0,-3e-05,1e-05,8e-05,-6e-05,-0.00011,-0.00028,6,19
28366,-5e-05,0,-3e-05,1e-05,8e-05,-6e-05,-0.00011,-0.00028,6,19
28367,-5e-05,0,-3e-05,1e-05,8e-05,-6e-05,-0.00011,-0.00028,6,19
28368,5e-05,-5e-05,-2e-05,1e-05,-0.00027,1e-05,-0.00015,0.00021,6,19
28369,-2e-05,-1e-05,0,-3e-05,-3e-05,-5e-05,9e-05,0.00021,6,19
28370,-2e-05,-1e-05,0,-3e-05,-3e-05,-5e-05,9e-05,0.00021,6,19
28371,-2e-05,-1e-05,0,-3e-05,-3e-05,-5e-05,9e-05,0.00021,6,19
28372,0.00012,-2e-05,-1e-05,-8e-05,-0.0002,-0.00045,-0.00014,0.00018,6,19
28373,0.00012,-2e-05,-1e-05,-8e-05,-0.0002,-0.00045,-0.00014,0.00018,6,19
28374,0.00012,-2e-05,-1e-05,-8e-05,-0.0002,-0.00045,-0.00014,0.00018,6,19
28375,0.00012,-2e-05,-1e-05,-8e-05,-0.0002,-0.00045,-0.00014,0.00018,6,19
28376,0.00012,-2e-05,-1e-05,-8e-05,-0.0002,-0.00045,-0.00014,0.00018,6,19
28377,0.00012,-2e-05,-1e-05,-8e-05,-0.0002,-0.00045,-0.00014,0.00018,6,19
28378,0.00012,-2e-05,-1e-05,-8e-05,-0.0002,-0.00045,-0.00014,0.00018,6,19
28379,0.00012,-2e-05,-1e-05,-8e-05,-0.0002,-0.00045,-0.00014,0.00018,6,19
28380,0.00012,-2e-05,-1e-05,-8e-05,-0.0002,-0.00045,-0.00014,0.00018,6,19
28381,0.00012,-2e-05,-1e-05,-8e-05,-0.0002,-0.00045,-0.00014,0.00018,6,19
28382,0.00012,-2e-05,-1e-05,-8e-05,-0.0002,-0.00045,-0.00014,0.00018,6,19
28383,0.00012,-2e-05,-1e-05,-8e-05,-0.0002,-0.00045,-0.00014,0.00018,6,19
28384,0.00012,-2e-05,-1e-05,-8e-05,-0.0002,-0.00045,-0.00014,0.00018,6,19
28385,0.00012,-2e-05,-1e-05,-8e-05,-0.0002,-0.00045,-0.00014,0.00018,6,19
28386,0.00012,-2e-05,-1e-05,-8e-05,-0.0002,-0.00045,-0.00014,0.00018,6,19
28389,0.00012,-2e-05,-1e-05,-8e-05,-0.0002,-0.00045,-0.00014,0.00018,6,19
28391,0.00012,-2e-05,-1e-05,-8e-05,-0.0002,-0.00045,-0.00014,0.00018,6,19
28392,4e-05,2e-05,-2e-05,-0.00015,-0.00046,-0.00019,-9e-05,-0.00019,6,19
28393,4e-05,2e-05,-2e-05,-0.00015,-0.00046,-0.00019,-9e-05,-0.00019,6,19
28394,4e-05,2e-05,-2e-05,-0.00015,-0.00046,-0.00019,-9e-05,-0.00019,6,19
28395,4e-05,2e-05,-2e-05,-0.00015,-0.00046,-0.00019,-9e-05,-0.00019,6,19
28396,4e-05,2e-05,-2e-05,-0.00015,-0.00046,-0.00019,-9e-05,-0.00019,6,19
28397,4e-05,2e-05,-2e-05,-0.00015,-0.00046,-0.00019,-9e-05,-0.00019,6,19
28398,4e-05,2e-05,-2e-05,-0.00015,-0.00046,-0.00019,-9e-05,-0.00019,6,19
28399,4e-05,2e-05,-2e-05,-0.00015,-0.00046,-0.00019,-9e-05,-0.00019,6,19
28400,4e-05,2e-05,-2e-05,-0.00015,-0.00046,-0.00019,-9e-05,-0.00019,6,19
28401,4e-05,2e-05,-2e-05,-0.00015,-0.00046,-0.00019,-9e-05,-0.00019,6,19
28402,4e-05,2e-05,-2e-05,-0.00015,-0.00046,-0.00019,-9e-05,-0.00019,6,19
28403,4e-05,2e-05,-2e-05,-0.00015,-0.00046,-0.00019,-9e-05,-0.00019,6,19
28404,4e-05,2e-05,-2e-05,-0.00015,-0.00046,-0.00019,-9e-05,-0.00019,6,19
28405,4e-05,2e-05,-2e-05,-0.00015,-0.00046,-0.00019,-9e-05,-0.00019,6,19
28406,4e-05,2e-05,-2e-05,-0.00015,-0.00046,-0.00019,-9e-05,-0.00019,6,19
28407,4e-05,2e-05,-2e-05,-0.00015,-0.00046,-0.00019,-9e-05,-0.00019,6,19
28408,4e-05,2e-05,-2e-05,-0.00015,-0.00046,-0.00019,-9e-05,-0.00019,6,19
28409,4e-05,2e-05,-2e-05,-0.00015,-0.00046,-0.00019,-9e-05,-0.00019,6,19
28410,4e-05,2e-05,-2e-05,-0.00015,-0.00046,-0.00019,-9e-05,-0.00019,6,19
28411,7e-05,4e-05,1e-05,3e-05,4e-05,0.0001,0.00017,0.00011,6,19
28412,7e-05,4e-05,1e-05,3e-05,4e-05,0.0001,0.00017,0.00011,6,19
28413,7e-05,4e-05,1e-05,3e-05,4e-05,0.0001,0.00017,0.00011,6,19
28414,7e-05,4e-05,1e-05,3e-05,4e-05,0.0001,0.00017,0.00011,6,19
28415,7e-05,4e-05,1e-05,3e-05,4e-05,0.0001,0.00017,0.00011,6,19
28416,7e-05,4e-05,1e-05,3e-05,4e-05,0.0001,0.00017,0.00011,6,19
28417,-5e-05,-6e-05,0,1e-05,0.00025,0.00011,-1e-05,-0.00014,6,19
28418,-5e-05,-6e-05,0,1e-05,0.00025,0.00011,-1e-05,-0.00014,6,19
28419,-5e-05,-6e-05,0,1e-05,0.00025,0.00011,-1e-05,-0.00014,6,19
28420,-5e-05,-6e-05,0,1e-05,0.00025,0.00011,-1e-05,-0.00014,6,19
28421,-5e-05,-6e-05,0,1e-05,0.00025,0.00011,-1e-05,-0.00014,6,19
28422,-5e-05,-6e-05,0,1e-05,0.00025,0.00011,-1e-05,-0.00014,6,19
28423,-5e-05,-6e-05,0,1e-05,0.00025,0.00011,-1e-05,-0.00014,6,19
28424,-5e-05,-6e-05,0,1e-05,0.00025,0.00011,-1e-05,-0.00014,6,19
28425,-5e-05,-6e-05,0,1e-05,0.00025,0.00011,-1e-05,-0.00014,6,19
28426,-6e-05,2e-05,3e-05,-0.00012,-3e-05,0.00013,-4e-05,-0.0001,6,19
28427,-6e-05,2e-05,3e-05,-0.00012,-3e-05,0.00013,-4e-05,-0.0001,6,19
28428,-4e-05,1e-05,0,2e-05,0.00021,0.00034,0.00022,8e-05,6,19
28429,-4e-05,1e-05,0,2e-05,0.00021,0.00034,0.00022,8e-05,6,19
28430,-4e-05,1e-05,0,2e-05,0.00021,0.00034,0.00022,8e-05,6,19
28431,-4e-05,1e-05,0,2e-05,0.00021,0.00034,0.00022,8e-05,6,19
28432,-4e-05,1e-05,0,2e-05,0.00021,0.00034,0.00022,8e-05,6,19
28433,-4e-05,1e-05,0,2e-05,0.00021,0.00034,0.00022,8e-05,6,19
28434,-4e-05,1e-05,0,2e-05,0.00021,0.00034,0.00022,8e-05,6,19
28435,-4e-05,1e-05,0,2e-05,0.00021,0.00034,0.00022,8e-05,6,19
28436,-4e-05,1e-05,0,2e-05,0.00021,0.00034,0.00022,8e-05,6,19
28439,-4e-05,1e-05,0,2e-05,0.00021,0.00034,0.00022,8e-05,6,19
28440,-4e-05,1e-05,0,2e-05,0.00021,0.00034,0.00022,8e-05,6,19
28441,-4e-05,1e-05,0,2e-05,0.00021,0.00034,0.00022,8e-05,6,19
28442,-4e-05,1e-05,0,2e-05,0.00021,0.00034,0.00022,8e-05,6,19
28443,-4e-05,1e-05,0,2e-05,0.00021,0.00034,0.00022,8e-05,6,19
28444,-4e-05,1e-05,0,2e-05,0.00021,0.00034,0.00022,8e-05,6,19
28445,-4e-05,1e-05,0,2e-05,0.00021,0.00034,0.00022,8e-05,6,19
28446,-4e-05,1e-05,0,2e-05,0.00021,0.00034,0.00022,8e-05,6,19
28447,-4e-05,1e-05,0,2e-05,0.00021,0.00034,0.00022,8e-05,6,19
28448,-4e-05,1e-05,0,2e-05,0.00021,0.00034,0.00022,8e-05,6,19
28449,3e-05,8e-05,5e-05,0.00014,0.0009,0.00023,0.00034,-0.0003,6,19
28450,4e-05,5e-05,0,0,0.00045,0.00017,1e-05,-8e-05,6,19
28451,4e-05,5e-05,0,0,0.00045,0.00017,1e-05,-8e-05,6,19
28452,4e-05,5e-05,0,0,0.00045,0.00017,1e-05,-8e-05,6,19
28453,4e-05,5e-05,0,0,0.00045,0.00017,1e-05,-8e-05,6,19
28454,4e-05,5e-05,0,0,0.00045,0.00017,1e-05,-8e-05,6,19
28455,4e-05,5e-05,0,0,0.00045,0.00017,1e-05,-8e-05,6,19
28456,4e-05,5e-05,0,0,0.00045,0.00017,1e-05,-8e-05,6,19
28457,4e-05,5e-05,0,0,0.00045,0.00017,1e-05,-8e-05,6,19
28458,4e-05,5e-05,0,0,0.00045,0.00017,1e-05,-8e-05,6,19
28459,4e-05,5e-05,0,0,0.00045,0.00017,1e-05,-8e-05,6,19
28460,4e-05,5e-05,0,0,0.00045,0.00017,1e-05,-8e-05,6,19
28461,4e-05,5e-05,0,0,0.00045,0.00017,1e-05,-8e-05,6,19
28462,4e-05,5e-05,0,0,0.00045,0.00017,1e-05,-8e-05,6,19
28463,4e-05,5e-05,0,0,0.00045,0.00017,1e-05,-8e-05,6,19
28464,4e-05,5e-05,0,0,0.00045,0.00017,1e-05,-8e-05,6,19
28465,4e-05,5e-05,0,0,0.00045,0.00017,1e-05,-8e-05,6,19
28466,4e-05,5e-05,0,0,0.00045,0.00017,1e-05,-8e-05,6,19
28467,4e-05,5e-05,0,0,0.00045,0.00017,1e-05,-8e-05,6,19
28468,4e-05,5e-05,0,0,0.00045,0.00017,1e-05,-8e-05,6,19
28469,4e-05,5e-05,0,0,0.00045,0.00017,1e-05,-8e-05,6,19
28470,4e-05,5e-05,0,0,0.00045,0.00017,1e-05,-8e-05,6,19
28471,4e-05,5e-05,0,0,0.00045,0.00017,1e-05,-8e-05,6,19
28472,4e-05,5e-05,0,0,0.00045,0.00017,1e-05,-8e-05,6,19
28473,4e-05,5e-05,0,0,0.00045,0.00017,1e-05,-8e-05,6,19
28474,4e-05,5e-05,0,0,0.00045,0.00017,1e-05,-8e-05,6,19
28475,4e-05,5e-05,0,0,0.00045,0.00017,1e-05,-8e-05,6,19
28476,4e-05,5e-05,0,0,0.00045,0.00017,1e-05,-8e-05,6,19
28477,4e-05,5e-05,0,0,0.00045,0.00017,1e-05,-8e-05,6,19
28478,4e-05,5e-05,0,0,0.00045,0.00017,1e-05,-8e-05,6,19
28479,4e-05,5e-05,0,0,0.00045,0.00017,1e-05,-8e-05,6,19
28480,4e-05,5e-05,0,0,0.00045,0.00017,1e-05,-8e-05,6,19
28481,4e-05,5e-05,0,0,0.00045,0.00017,1e-05,-8e-05,6,19
28482,4e-05,5e-05,0,0,0.00045,0.00017,1e-05,-8e-05,6,19
28483,4e-05,5e-05,0,0,0.00045,0.00017,1e-05,-8e-05,6,19
28484,4e-05,5e-05,0,0,0.00045,0.00017,1e-05,-8e-05,6,19
28485,4e-05,5e-05,0,0,0.00045,0.00017,1e-05,-8e-05,6,19
28486,4e-05,5e-05,0,0,0.00045,0.00017,1e-05,-8e-05,6,19
28489,-3e-05,-2e-05,3e-05,0,-0.00028,0.00012,0.00022,9e-05,6,19
28490,-9e-05,-4e-05,-2e-05,-9e-05,-0.00019,-0.00014,1e-05,0,6,19
28491,-9e-05,-4e-05,-2e-05,-9e-05,-0.00019,-0.00014,1e-05,0,6,19
28492,-9e-05,-4e-05,-2e-05,-9e-05,-0.00019,-0.00014,1e-05,0,6,19
28493,-9e-05,-4e-05,-2e-05,-9e-05,-0.00019,-0.00014,1e-05,0,6,19
28494,-0.0001,-4e-05,-7e-05,-0.0001,-0.00037,-0.00017,1e-05,0.00019,6,19
28495,-0.0001,-4e-05,-7e-05,-0.0001,-0.00037,-0.00017,1e-05,0.00019,6,19
28496,-0.0001,-4e-05,-7e-05,-0.0001,-0.00037,-0.00017,1e-05,0.00019,6,19
28497,-0.0001,-4e-05,-7e-05,-0.0001,-0.00037,-0.00017,1e-05,0.00019,6,19
28498,-0.0001,-4e-05,-7e-05,-0.0001,-0.00037,-0.00017,1e-05,0.00019,6,19
28499,-0.0001,-4e-05,-7e-05,-0.0001,-0.00037,-0.00017,1e-05,0.00019,6,19
28500,-0.0001,-4e-05,-7e-05,-0.0001,-0.00037,-0.00017,1e-05,0.00019,6,19
28501,-0.0001,-4e-05,-7e-05,-0.0001,-0.00037,-0.00017,1e-05,0.00019,6,19
28502,-0.0001,-4e-05,-7e-05,-0.0001,-0.00037,-0.00017,1e-05,0.00019,6,19
28503,-0.0001,-4e-05,-7e-05,-0.0001,-0.00037,-0.00017,1e-05,0.00019,6,19
28504,-0.0001,-4e-05,-7e-05,-0.0001,-0.00037,-0.00017,1e-05,0.00019,6,19
28505,-0.0001,-4e-05,-7e-05,-0.0001,-0.00037,-0.00017,1e-05,0.00019,6,19
28506,-0.0001,-4e-05,-7e-05,-0.0001,-0.00037,-0.00017,1e-05,0.00019,6,19
28507,-0.0001,-4e-05,-7e-05,-0.0001,-0.00037,-0.00017,1e-05,0.00019,6,19
28508,-0.0001,-4e-05,-7e-05,-0.0001,-0.00037,-0.00017,1e-05,0.00019,6,19
28509,1e-05,-1e-05,7e-05,0,-0.00026,-5e-05,-8e-05,4e-05,6,19
28510,0,0,1e-05,1e-05,-4e-05,-3e-05,-0.00022,-0.00024,6,19
28511,0,0,1e-05,1e-05,-4e-05,-3e-05,-0.00022,-0.00024,6,19
28512,0,0,1e-05,1e-05,-4e-05,-3e-05,-0.00022,-0.00024,6,19
28513,0,0,1e-05,1e-05,-4e-05,-3e-05,-0.00022,-0.00024,6,19
28514,0,0,1e-05,1e-05,-4e-05,-3e-05,-0.00022,-0.00024,6,19
28515,0,0,1e-05,1e-05,-4e-05,-3e-05,-0.00022,-0.00024,6,19
28516,0,0,1e-05,1e-05,-4e-05,-3e-05,-0.00022,-0.00024,6,19
28517,0,0,1e-05,1e-05,-4e-05,-3e-05,-0.00022,-0.00024,6,19
28518,0,0,1e-05,1e-05,-4e-05,-3e-05,-0.00022,-0.00024,6,19
28519,0,0,1e-05,1e-05,-4e-05,-3e-05,-0.00022,-0.00024,6,19
28520,0,0,1e-05,1e-05,-4e-05,-3e-05,-0.00022,-0.00024,6,19
28521,0,0,1e-05,1e-05,-4e-05,-3e-05,-0.00022,-0.00024,6,19
28522,0,0,1e-05,1e-05,-4e-05,-3e-05,-0.00022,-0.00024,6,19
28523,0,0,1e-05,1e-05,-4e-05,-3e-05,-0.00022,-0.00024,6,19
28524,0,0,1e-05,1e-05,-4e-05,-3e-05,-0.00022,-0.00024,6,19
28525,0,0,1e-05,1e-05,-4e-05,-3e-05,-0.00022,-0.00024,6,19
28526,0,0,1e-05,1e-05,-4e-05,-3e-05,-0.00022,-0.00024,6,19
28527,0,0,1e-05,1e-05,-4e-05,-3e-05,-0.00022,-0.00024,6,19
28528,0,0,1e-05,1e-05,-4e-05,-3e-05,-0.00022,-0.00024,6,19
28529,0,0,1e-05,1e-05,-4e-05,-3e-05,-0.00022,-0.00024,6,19
28530,0,0,1e-05,1e-05,-4e-05,-3e-05,-0.00022,-0.00024,6,19
28531,0,4e-05,6e-05,0.00026,-7e-05,9e-05,4e-05,1e-05,6,19
28532,0,4e-05,6e-05,0.00026,-7e-05,9e-05,4e-05,1e-05,6,19
28533,-1e-05,-3e-05,-3e-05,-1e-05,-0.00015,0,-0.00027,0,6,19
28534,-1e-05,-3e-05,-3e-05,-1e-05,-0.00015,0,-0.00027,0,6,19
28535,-1e-05,-3e-05,-3e-05,-1e-05,-0.00015,0,-0.00027,0,6,19
28536,-1e-05,-3e-05,-3e-05,-1e-05,-0.00015,0,-0.00027,0,6,19
28538,-1e-05,-3e-05,-3e-05,-1e-05,-0.00015,0,-0.00027,0,6,19
28539,-1e-05,-3e-05,-3e-05,-1e-05,-0.00015,0,-0.00027,0,6,19
28540,-1e-05,-3e-05,-3e-05,-1e-05,-0.00015,0,-0.00027,0,6,19
28541,-1e-05,-3e-05,-3e-05,-1e-05,-0.00015,0,-0.00027,0,6,19
28542,-1e-05,-3e-05,-3e-05,-1e-05,-0.00015,0,-0.00027,0,6,19
28543,-1e-05,-3e-05,-3e-05,-1e-05,-0.00015,0,-0.00027,0,6,19
28544,-1e-05,-3e-05,-3e-05,-1e-05,-0.00015,0,-0.00027,0,6,19
28545,0,-1e-05,0,-0.00011,0.00015,-0.00011,-0.00014,-3e-05,6,19
28546,-0.00015,-8e-05,-3e-05,6e-05,0.00046,9e-05,-3e-05,-0.00018,6,19
28547,-0.00015,-8e-05,-3e-05,6e-05,0.00046,9e-05,-3e-05,-0.00018,6,19
28548,-0.00015,-8e-05,-3e-05,6e-05,0.00046,9e-05,-3e-05,-0.00018,6,19
28549,-0.00015,-8e-05,-3e-05,6e-05,0.00046,9e-05,-3e-05,-0.00018,6,19
28550,-0.00015,-8e-05,-3e-05,6e-05,0.00046,9e-05,-3e-05,-0.00018,6,19
28551,-0.00015,-8e-05,-3e-05,6e-05,0.00046,9e-05,-3e-05,-0.00018,6,19
28552,-0.00015,-8e-05,-3e-05,6e-05,0.00046,9e-05,-3e-05,-0.00018,6,19
28553,-0.00015,-8e-05,-3e-05,6e-05,0.00046,9e-05,-3e-05,-0.00018,6,19
28554,-0.00015,-8e-05,-3e-05,6e-05,0.00046,9e-05,-3e-05,-0.00018,6,19
28555,-0.00015,-8e-05,-3e-05,6e-05,0.00046,9e-05,-3e-05,-0.00018,6,19
28556,-0.00015,-8e-05,-3e-05,6e-05,0.00046,9e-05,-3e-05,-0.00018,6,19
28557,-0.00015,-8e-05,-3e-05,6e-05,0.00046,9e-05,-3e-05,-0.00018,6,19
28558,-0.00015,-8e-05,-3e-05,6e-05,0.00046,9e-05,-3e-05,-0.00018,6,19
28559,-0.00015,-8e-05,-3e-05,6e-05,0.00046,9e-05,-3e-05,-0.00018,6,19
28560,-0.00015,-8e-05,-3e-05,6e-05,0.00046,9e-05,-3e-05,-0.00018,6,19
28561,-0.00015,-8e-05,-3e-05,6e-05,0.00046,9e-05,-3e-05,-0.00018,6,19
28562,-0.00015,-8e-05,-3e-05,6e-05,0.00046,9e-05,-3e-05,-0.00018,6,19
28563,-0.00015,-8e-05,-3e-05,6e-05,0.00046,9e-05,-3e-05,-0.00018,6,19
28564,-0.00015,-8e-05,-3e-05,6e-05,0.00046,9e-05,-3e-05,-0.00018,6,19
28565,-0.00015,-8e-05,-3e-05,6e-05,0.00046,9e-05,-3e-05,-0.00018,6,19
28566,-0.00015,-8e-05,-3e-05,6e-05,0.00046,9e-05,-3e-05,-0.00018,6,19
28567,-0.00015,-8e-05,-3e-05,6e-05,0.00046,9e-05,-3e-05,-0.00018,6,19
28568,-0.00015,-8e-05,-3e-05,6e-05,0.00046,9e-05,-3e-05,-0.00018,6,19
28569,-1e-05,-1e-05,-1e-05,0,-0.00075,2e-05,-5e-05,0.00015,6,19
28570,-0.00014,-1e-05,-6e-05,-0.00017,-0.00022,-9e-05,-5e-05,0.00021,6,19
28571,-0.00014,-1e-05,-6e-05,-0.00017,-0.00022,-9e-05,-5e-05,0.00021,6,19
28572,-0.00024,-6e-05,1e-05,8e-05,7e-05,-1e-05,5e-05,-3e-05,6,19
28573,-0.00024,-6e-05,1e-05,8e-05,7e-05,-1e-05,5e-05,-3e-05,6,19
28574,-0.00024,-6e-05,1e-05,8e-05,7e-05,-1e-05,5e-05,-3e-05,6,19
28575,-0.00024,-6e-05,1e-05,8e-05,7e-05,-1e-05,5e-05,-3e-05,6,19
28576,-0.00024,-6e-05,1e-05,8e-05,7e-05,-1e-05,5e-05,-3e-05,6,19
28577,-0.00024,-6e-05,1e-05,8e-05,7e-05,-1e-05,5e-05,-3e-05,6,19
28578,-0.00024,-6e-05,1e-05,8e-05,7e-05,-1e-05,5e-05,-3e-05,6,19
28579,-0.00024,-6e-05,1e-05,8e-05,7e-05,-1e-05,5e-05,-3e-05,6,19
28580,-0.00024,-6e-05,1e-05,8e-05,7e-05,-1e-05,5e-05,-3e-05,6,19
28581,-0.00024,-6e-05,1e-05,8e-05,7e-05,-1e-05,5e-05,-3e-05,6,19
28582,-0.00024,-6e-05,1e-05,8e-05,7e-05,-1e-05,5e-05,-3e-05,6,19
28583,-0.00024,-6e-05,1e-05,8e-05,7e-05,-1e-05,5e-05,-3e-05,6,19
28584,-0.00024,-6e-05,1e-05,8e-05,7e-05,-1e-05,5e-05,-3e-05,6,19
28585,-0.00024,-6e-05,1e-05,8e-05,7e-05,-1e-05,5e-05,-3e-05,6,19
28586,-0.00024,-6e-05,1e-05,8e-05,7e-05,-1e-05,5e-05,-3e-05,6,19
28588,-0.00024,-6e-05,1e-05,8e-05,7e-05,-1e-05,5e-05,-3e-05,6,19
28589,-0.00024,-6e-05,1e-05,8e-05,7e-05,-1e-05,5e-05,-3e-05,6,19
28590,-0.00024,-6e-05,1e-05,8e-05,7e-05,-1e-05,5e-05,-3e-05,6,19
28591,-0.00024,-6e-05,1e-05,8e-05,7e-05,-1e-05,5e-05,-3e-05,6,19
28592,-0.00024,-6e-05,1e-05,8e-05,7e-05,-1e-05,5e-05,-3e-05,6,19
28593,-0.00024,-6e-05,1e-05,8e-05,7e-05,-1e-05,5e-05,-3e-05,6,19
28594,-0.00024,-6e-05,1e-05,8e-05,7e-05,-1e-05,5e-05,-3e-05,6,19
28595,-0.00024,-6e-05,1e-05,8e-05,7e-05,-1e-05,5e-05,-3e-05,6,19
28596,-0.00024,-6e-05,1e-05,8e-05,7e-05,-1e-05,5e-05,-3e-05,6,19
28597,-0.00024,-6e-05,1e-05,8e-05,7e-05,-1e-05,5e-05,-3e-05,6,19
28598,-0.00024,-6e-05,1e-05,8e-05,7e-05,-1e-05,5e-05,-3e-05,6,19
28599,-0.00024,-6e-05,1e-05,8e-05,7e-05,-1e-05,5e-05,-3e-05,6,19
28600,-0.00011,-4e-05,-4e-05,3e-05,2e-05,-0.0002,-0.00031,-0.00017,6,19
28601,-0.00011,-4e-05,-4e-05,3e-05,2e-05,-0.0002,-0.00031,-0.00017,6,19
28602,-0.00011,-4e-05,-4e-05,3e-05,2e-05,-0.0002,-0.00031,-0.00017,6,19
28603,-0.00011,-4e-05,-4e-05,3e-05,2e-05,-0.0002,-0.00031,-0.00017,6,19
28604,-0.00011,-4e-05,-4e-05,3e-05,2e-05,-0.0002,-0.00031,-0.00017,6,19
28605,-0.00011,-4e-05,-4e-05,3e-05,2e-05,-0.0002,-0.00031,-0.00017,6,19
28606,0.0001,7e-05,6e-05,0.00011,0.00034,-5e-05,5e-05,-6e-05,6,19
28607,2e-05,0,-5e-05,-0.00015,0.00025,-0.00013,0.00011,2e-05,6,19
28608,2e-05,0,-5e-05,-0.00015,0.00025,-0.00013,0.00011,2e-05,6,19
28609,2e-05,0,-5e-05,-0.00015,0.00025,-0.00013,0.00011,2e-05,6,19
28610,2e-05,0,-5e-05,-0.00015,0.00025,-0.00013,0.00011,2e-05,6,19
28611,2e-05,0,-5e-05,-0.00015,0.00025,-0.00013,0.00011,2e-05,6,19
28612,0,-1e-05,-6e-05,-0.00014,-0.00014,-5e-05,-0.00011,-0.00026,6,19
28613,0,-1e-05,-6e-05,-0.00014,-0.00014,-5e-05,-0.00011,-0.00026,6,19
28614,0,-1e-05,-6e-05,-0.00014,-0.00014,-5e-05,-0.00011,-0.00026,6,19
28615,0,-1e-05,-6e-05,-0.00014,-0.00014,-5e-05,-0.00011,-0.00026,6,19
28616,0,-1e-05,-6e-05,-0.00014,-0.00014,-5e-05,-0.00011,-0.00026,6,19
28617,0,-1e-05,-6e-05,-0.00014,-0.00014,-5e-05,-0.00011,-0.00026,6,19
28618,0,-1e-05,-6e-05,-0.00014,-0.00014,-5e-05,-0.00011,-0.00026,6,19
28619,0,-1e-05,-6e-05,-0.00014,-0.00014,-5e-05,-0.00011,-0.00026,6,19
28620,0,-1e-05,-6e-05,-0.00014,-0.00014,-5e-05,-0.00011,-0.00026,6,19
28621,0,-1e-05,-6e-05,-0.00014,-0.00014,-5e-05,-0.00011,-0.00026,6,19
28622,0,-1e-05,-6e-05,-0.00014,-0.00014,-5e-05,-0.00011,-0.00026,6,19
28623,0,-1e-05,-6e-05,-0.00014,-0.00014,-5e-05,-0.00011,-0.00026,6,19
28624,0,-1e-05,-6e-05,-0.00014,-0.00014,-5e-05,-0.00011,-0.00026,6,19
28625,0,-1e-05,-6e-05,-0.00014,-0.00014,-5e-05,-0.00011,-0.00026,6,19
28626,0,-1e-05,-6e-05,-0.00014,-0.00014,-5e-05,-0.00011,-0.00026,6,19
28627,0,-1e-05,-6e-05,-0.00014,-0.00014,-5e-05,-0.00011,-0.00026,6,19
28628,0,-1e-05,-6e-05,-0.00014,-0.00014,-5e-05,-0.00011,-0.00026,6,19
28629,0,-1e-05,-6e-05,-0.00014,-0.00014,-5e-05,-0.00011,-0.00026,6,19
28630,0,-1e-05,-6e-05,-0.00014,-0.00014,-5e-05,-0.00011,-0.00026,6,19
28631,0,-1e-05,-6e-05,-0.00014,-0.00014,-5e-05,-0.00011,-0.00026,6,19
28632,0,-1e-05,-6e-05,-0.00014,-0.00014,-5e-05,-0.00011,-0.00026,6,19
28633,0,-1e-05,-6e-05,-0.00014,-0.00014,-5e-05,-0.00011,-0.00026,6,19
28634,0,-1e-05,-6e-05,-0.00014,-0.00014,-5e-05,-0.00011,-0.00026,6,19
28635,0,-1e-05,-6e-05,-0.00014,-0.00014,-5e-05,-0.00011,-0.00026,6,19
28636,0,-1e-05,-6e-05,-0.00014,-0.00014,-5e-05,-0.00011,-0.00026,6,19
28638,7e-05,-5e-05,0,-0.00023,-0.00074,-0.00016,-6e-05,0,6,19
28640,7e-05,-5e-05,0,-0.00023,-0.00074,-0.00016,-6e-05,0,6,19
28641,7e-05,-5e-05,0,-0.00023,-0.00074,-0.00016,-6e-05,0,6,19
28642,0,-7e-05,-4e-05,-0.00011,9e-05,1e-05,0.00012,0.0001,6,19
28643,0,-7e-05,-4e-05,-0.00011,9e-05,1e-05,0.00012,0.0001,6,19
28644,0,-7e-05,-4e-05,-0.00011,9e-05,1e-05,0.00012,0.0001,6,19
28645,0,-7e-05,-4e-05,-0.00011,9e-05,1e-05,0.00012,0.0001,6,19
28646,0,-7e-05,-4e-05,-0.00011,9e-05,1e-05,0.00012,0.0001,6,19
28647,0,-7e-05,-4e-05,-0.00011,9e-05,1e-05,0.00012,0.0001,6,19
28648,0,-7e-05,-4e-05,-0.00011,9e-05,1e-05,0.00012,0.0001,6,19
28649,0,-7e-05,-4e-05,-0.00011,9e-05,1e-05,0.00012,0.0001,6,19
28650,0,-7e-05,-4e-05,-0.00011,9e-05,1e-05,0.00012,0.0001,6,19
28651,-7e-05,7e-05,4e-05,4e-05,-9e-05,-5e-05,7e-05,1e-05,6,19
28652,-7e-05,7e-05,4e-05,4e-05,-9e-05,-5e-05,7e-05,1e-05,6,19
28653,-4e-05,-7e-05,-6e-05,2e-05,-0.00014,-5e-05,0.00011,0.00014,6,19
28654,-4e-05,-7e-05,-6e-05,2e-05,-0.00014,-5e-05,0.00011,0.00014,6,19
28655,-4e-05,-7e-05,-6e-05,2e-05,-0.00014,-5e-05,0.00011,0.00014,6,19
28656,-4e-05,-7e-05,-6e-05,2e-05,-0.00014,-5e-05,0.00011,0.00014,6,19
28657,-4e-05,-7e-05,-6e-05,2e-05,-0.00014,-5e-05,0.00011,0.00014,6,19
28658,-4e-05,-7e-05,-6e-05,2e-05,-0.00014,-5e-05,0.00011,0.00014,6,19
28659,-4e-05,-7e-05,-6e-05,2e-05,-0.00014,-5e-05,0.00011,0.00014,6,19
28660,-4e-05,-7e-05,-6e-05,2e-05,-0.00014,-5e-05,0.00011,0.00014,6,19
28661,-4e-05,-7e-05,-6e-05,2e-05,-0.00014,-5e-05,0.00011,0.00014,6,19
28662,-4e-05,-7e-05,-6e-05,2e-05,-0.00014,-5e-05,0.00011,0.00014,6,19
28663,-4e-05,-7e-05,-6e-05,2e-05,-0.00014,-5e-05,0.00011,0.00014,6,19
28664,-4e-05,-7e-05,-6e-05,2e-05,-0.00014,-5e-05,0.00011,0.00014,6,19
28665,-1e-05,-5e-05,-7e-05,-0.00019,-0.00043,-7e-05,-7e-05,-1e-05,6,19
28666,7e-05,1e-05,5e-05,0.00029,0.00096,0.00015,-0.00014,-0.00013,6,19
28667,7e-05,1e-05,5e-05,0.00029,0.00096,0.00015,-0.00014,-0.00013,6,19
28668,7e-05,1e-05,5e-05,0.00029,0.00096,0.00015,-0.00014,-0.00013,6,19
28669,7e-05,1e-05,5e-05,0.00029,0.00096,0.00015,-0.00014,-0.00013,6,19
28670,7e-05,1e-05,5e-05,0.00029,0.00096,0.00015,-0.00014,-0.00013,6,19
28671,7e-05,1e-05,5e-05,0.00029,0.00096,0.00015,-0.00014,-0.00013,6,19
28672,-0.0001,-3e-05,1e-05,6e-05,9e-05,-7e-05,-2e-05,-0.00044,6,19
28673,-0.0001,-3e-05,1e-05,6e-05,9e-05,-7e-05,-2e-05,-0.00044,6,19
28674,-0.0001,-3e-05,1e-05,6e-05,9e-05,-7e-05,-2e-05,-0.00044,6,19
28675,-0.0001,-3e-05,1e-05,6e-05,9e-05,-7e-05,-2e-05,-0.00044,6,19
28676,-0.0001,-3e-05,1e-05,6e-05,9e-05,-7e-05,-2e-05,-0.00044,6,19
28677,-0.0001,-3e-05,1e-05,6e-05,9e-05,-7e-05,-2e-05,-0.00044,6,19
28678,-0.0001,-3e-05,1e-05,6e-05,9e-05,-7e-05,-2e-05,-0.00044,6,19
28679,-0.0001,-3e-05,1e-05,6e-05,9e-05,-7e-05,-2e-05,-0.00044,6,19
28680,-0.0001,-3e-05,1e-05,6e-05,9e-05,-7e-05,-2e-05,-0.00044,6,19
28681,-0.0001,-3e-05,1e-05,6e-05,9e-05,-7e-05,-2e-05,-0.00044,6,19
28682,-0.0001,-3e-05,1e-05,6e-05,9e-05,-7e-05,-2e-05,-0.00044,6,19
28683,-0.0001,-3e-05,1e-05,6e-05,9e-05,-7e-05,-2e-05,-0.00044,6,19
28684,-0.0001,-3e-05,1e-05,6e-05,9e-05,-7e-05,-2e-05,-0.00044,6,19
28685,-0.0001,-3e-05,1e-05,6e-05,9e-05,-7e-05,-2e-05,-0.00044,6,19
28686,-0.0001,-3e-05,1e-05,6e-05,9e-05,-7e-05,-2e-05,-0.00044,6,19
28688,-0.0001,-3e-05,1e-05,6e-05,9e-05,-7e-05,-2e-05,-0.00044,6,19
28690,-0.0001,-3e-05,1e-05,6e-05,9e-05,-7e-05,-2e-05,-0.00044,6,19
28691,-0.0001,-3e-05,1e-05,6e-05,9e-05,-7e-05,-2e-05,-0.00044,6,19
28692,-0.0001,-3e-05,1e-05,6e-05,9e-05,-7e-05,-2e-05,-0.00044,6,19
28693,-0.0001,-3e-05,1e-05,6e-05,9e-05,-7e-05,-2e-05,-0.00044,6,19
28694,-0.0001,-3e-05,1e-05,6e-05,9e-05,-7e-05,-2e-05,-0.00044,6,19
28695,-0.0001,-3e-05,1e-05,6e-05,9e-05,-7e-05,-2e-05,-0.00044,6,19
28696,6e-05,-2e-05,0,4e-05,0.00018,0.00018,0.00019,0.00021,6,19
28697,6e-05,-2e-05,0,4e-05,0.00018,0.00018,0.00019,0.00021,6,19
28698,5e-05,1e-05,-3e-05,9e-05,0.00024,4e-05,6e-05,-0.00018,6,19
28699,5e-05,1e-05,-3e-05,9e-05,0.00024,4e-05,6e-05,-0.00018,6,19
28700,5e-05,1e-05,-3e-05,9e-05,0.00024,4e-05,6e-05,-0.00018,6,19
28701,5e-05,1e-05,-3e-05,9e-05,0.00024,4e-05,6e-05,-0.00018,6,19
28702,5e-05,1e-05,-3e-05,9e-05,0.00024,4e-05,6e-05,-0.00018,6,19
28703,5e-05,1e-05,-3e-05,9e-05,0.00024,4e-05,6e-05,-0.00018,6,19
28704,5e-05,1e-05,-3e-05,9e-05,0.00024,4e-05,6e-05,-0.00018,6,19
28705,5e-05,1e-05,-3e-05,9e-05,0.00024,4e-05,6e-05,-0.00018,6,19
28706,5e-05,1e-05,-3e-05,9e-05,0.00024,4e-05,6e-05,-0.00018,6,19
28707,5e-05,1e-05,-3e-05,9e-05,0.00024,4e-05,6e-05,-0.00018,6,19
28708,5e-05,1e-05,-3e-05,9e-05,0.00024,4e-05,6e-05,-0.00018,6,19
28709,5e-05,1e-05,-3e-05,9e-05,0.00024,4e-05,6e-05,-0.00018,6,19
28710,5e-05,1e-05,-3e-05,9e-05,0.00024,4e-05,6e-05,-0.00018,6,19
28711,5e-05,1e-05,-3e-05,9e-05,0.00024,4e-05,6e-05,-0.00018,6,19
28712,5e-05,1e-05,-3e-05,9e-05,0.00024,4e-05,6e-05,-0.00018,6,19
28713,5e-05,1e-05,-3e-05,9e-05,0.00024,4e-05,6e-05,-0.00018,6,19
28714,5e-05,1e-05,-3e-05,9e-05,0.00024,4e-05,6e-05,-0.00018,6,19
28715,5e-05,1e-05,-3e-05,9e-05,0.00024,4e-05,6e-05,-0.00018,6,19
28716,5e-05,1e-05,-3e-05,9e-05,0.00024,4e-05,6e-05,-0.00018,6,19
28717,5e-05,1e-05,-3e-05,9e-05,0.00024,4e-05,6e-05,-0.00018,6,19
28718,5e-05,1e-05,-3e-05,9e-05,0.00024,4e-05,6e-05,-0.00018,6,19
28719,-7e-05,-5e-05,-4e-05,-4e-05,-0.00032,-8e-05,-4e-05,0.00017,6,19
28720,0.00013,4e-05,-3e-05,-3e-05,-0.00017,-0.00025,0,0.00021,6,19
28721,0.00013,4e-05,-3e-05,-3e-05,-0.00017,-0.00025,0,0.00021,6,19
28722,0.00013,4e-05,-3e-05,-3e-05,-0.00017,-0.00025,0,0.00021,6,19
28723,0.00013,4e-05,-3e-05,-3e-05,-0.00017,-0.00025,0,0.00021,6,19
28724,0.00013,4e-05,-3e-05,-3e-05,-0.00017,-0.00025,0,0.00021,6,19
28725,0.00011,6e-05,4e-05,0.00031,0.00043,0.00011,0.00017,0.00032,6,19
28726,0.00011,6e-05,4e-05,0.00031,0.00043,0.00011,0.00017,0.00032,6,19
28727,0.00011,6e-05,4e-05,0.00031,0.00043,0.00011,0.00017,0.00032,6,19
28728,0.00011,6e-05,4e-05,0.00031,0.00043,0.00011,0.00017,0.00032,6,19
28729,0.00011,6e-05,4e-05,0.00031,0.00043,0.00011,0.00017,0.00032,6,19
28730,0.00011,6e-05,4e-05,0.00031,0.00043,0.00011,0.00017,0.00032,6,19
28731,0.00011,6e-05,4e-05,0.00031,0.00043,0.00011,0.00017,0.00032,6,19
28732,3e-05,-1e-05,-7e-05,-0.00011,-0.00011,4e-05,-2e-05,-2e-05,6,19
28733,3e-05,-1e-05,-7e-05,-0.00011,-0.00011,4e-05,-2e-05,-2e-05,6,19
28734,3e-05,-1e-05,-7e-05,-0.00011,-0.00011,4e-05,-2e-05,-2e-05,6,19
28735,3e-05,-1e-05,-7e-05,-0.00011,-0.00011,4e-05,-2e-05,-2e-05,6,19
28736,3e-05,-1e-05,-7e-05,-0.00011,-0.00011,4e-05,-2e-05,-2e-05,6,19
28738,3e-05,-1e-05,-7e-05,-0.00011,-0.00011,4e-05,-2e-05,-2e-05,6,19
28739,3e-05,-1e-05,-7e-05,-0.00011,-0.00011,4e-05,-2e-05,-2e-05,6,19
28740,3e-05,-1e-05,-7e-05,-0.00011,-0.00011,4e-05,-2e-05,-2e-05,6,19
28741,3e-05,-1e-05,-7e-05,-0.00011,-0.00011,4e-05,-2e-05,-2e-05,6,19
28742,3e-05,-1e-05,-7e-05,-0.00011,-0.00011,4e-05,-2e-05,-2e-05,6,19
28743,3e-05,-1e-05,-7e-05,-0.00011,-0.00011,4e-05,-2e-05,-2e-05,6,19
28744,3e-05,-1e-05,-7e-05,-0.00011,-0.00011,4e-05,-2e-05,-2e-05,6,19
28745,3e-05,-1e-05,-7e-05,-0.00011,-0.00011,4e-05,-2e-05,-2e-05,6,19
28746,3e-05,-1e-05,-7e-05,-0.00011,-0.00011,4e-05,-2e-05,-2e-05,6,19
28747,3e-05,-1e-05,-7e-05,-0.00011,-0.00011,4e-05,-2e-05,-2e-05,6,19
28748,3e-05,-1e-05,-7e-05,-0.00011,-0.00011,4e-05,-2e-05,-2e-05,6,19
28749,3e-05,-1e-05,-7e-05,-0.00011,-0.00011,4e-05,-2e-05,-2e-05,6,19
28750,3e-05,-1e-05,-7e-05,-0.00011,-0.00011,4e-05,-2e-05,-2e-05,6,19
28751,3e-05,-1e-05,-7e-05,-0.00011,-0.00011,4e-05,-2e-05,-2e-05,6,19
28752,3e-05,-1e-05,-7e-05,-0.00011,-0.00011,4e-05,-2e-05,-2e-05,6,19
28753,3e-05,-1e-05,-7e-05,-0.00011,-0.00011,4e-05,-2e-05,-2e-05,6,19
28754,3e-05,-1e-05,-7e-05,-0.00011,-0.00011,4e-05,-2e-05,-2e-05,6,19
28755,3e-05,-1e-05,-7e-05,-0.00011,-0.00011,4e-05,-2e-05,-2e-05,6,19
28756,-2e-05,-6e-05,3e-05,0,-0.0002,-7e-05,6e-05,0.00019,6,19
28757,-2e-05,-6e-05,3e-05,0,-0.0002,-7e-05,6e-05,0.00019,6,19
28758,8e-05,-3e-05,-3e-05,-5e-05,-0.00016,-0.0001,1e-05,5e-05,6,19
28759,-3e-05,6e-05,8e-05,0.00011,0.0006,0.00024,1e-05,0.00014,6,19
28760,-3e-05,6e-05,8e-05,0.00011,0.0006,0.00024,1e-05,0.00014,6,19
28761,-3e-05,6e-05,8e-05,0.00011,0.0006,0.00024,1e-05,0.00014,6,19
28762,-3e-05,6e-05,8e-05,0.00011,0.0006,0.00024,1e-05,0.00014,6,19
28763,-3e-05,6e-05,8e-05,0.00011,0.0006,0.00024,1e-05,0.00014,6,19
28764,-3e-05,6e-05,8e-05,0.00011,0.0006,0.00024,1e-05,0.00014,6,19
28765,-3e-05,6e-05,8e-05,0.00011,0.0006,0.00024,1e-05,0.00014,6,19
28766,-3e-05,6e-05,8e-05,0.00011,0.0006,0.00024,1e-05,0.00014,6,19
28767,-3e-05,6e-05,8e-05,0.00011,0.0006,0.00024,1e-05,0.00014,6,19
28768,-3e-05,6e-05,8e-05,0.00011,0.0006,0.00024,1e-05,0.00014,6,19
28769,-3e-05,6e-05,8e-05,0.00011,0.0006,0.00024,1e-05,0.00014,6,19
28770,-3e-05,6e-05,8e-05,0.00011,0.0006,0.00024,1e-05,0.00014,6,19
28771,6e-05,2e-05,-3e-05,-0.00019,-0.0008,-7e-05,-8e-05,-0.00012,6,19
28772,6e-05,2e-05,-3e-05,-0.00019,-0.0008,-7e-05,-8e-05,-0.00012,6,19
28773,8e-05,0.00012,5e-05,-6e-05,1e-05,-0.00013,0,-3e-05,6,19
28774,8e-05,0.00012,5e-05,-6e-05,1e-05,-0.00013,0,-3e-05,6,19
28775,8e-05,0.00012,5e-05,-6e-05,1e-05,-0.00013,0,-3e-05,6,19
28776,8e-05,0.00012,5e-05,-6e-05,1e-05,-0.00013,0,-3e-05,6,19
28777,8e-05,0.00012,5e-05,-6e-05,1e-05,-0.00013,0,-3e-05,6,19
28778,8e-05,0.00012,5e-05,-6e-05,1e-05,-0.00013,0,-3e-05,6,19
28779,8e-05,0.00012,5e-05,-6e-05,1e-05,-0.00013,0,-3e-05,6,19
28780,8e-05,0.00012,5e-05,-6e-05,1e-05,-0.00013,0,-3e-05,6,19
28781,8e-05,0.00012,5e-05,-6e-05,1e-05,-0.00013,0,-3e-05,6,19
28782,8e-05,0.00012,5e-05,-6e-05,1e-05,-0.00013,0,-3e-05,6,19
28783,8e-05,0.00012,5e-05,-6e-05,1e-05,-0.00013,0,-3e-05,6,19
28784,8e-05,0.00012,5e-05,-6e-05,1e-05,-0.00013,0,-3e-05,6,19
28785,-0.0002,-0.00011,-2e-05,-0.00012,-0.00021,0.00013,-5e-05,-0.0001,6,19
28786,-9e-05,-4e-05,-5e-05,-0.00011,-0.00015,6e-05,-0.00014,-0.00031,6,19
28788,-9e-05,-4e-05,-5e-05,-0.00011,-0.00015,6e-05,-0.00014,-0.00031,6,19
28790,-9e-05,-4e-05,-5e-05,-0.00011,-0.00015,6e-05,-0.00014,-0.00031,6,19
28791,-9e-05,-4e-05,-5e-05,-0.00011,-0.00015,6e-05,-0.00014,-0.00031,6,19
28792,-9e-05,-4e-05,-5e-05,-0.00011,-0.00015,6e-05,-0.00014,-0.00031,6,19
28793,-9e-05,-4e-05,-5e-05,-0.00011,-0.00015,6e-05,-0.00014,-0.00031,6,19
28794,-9e-05,-4e-05,-5e-05,-0.00011,-0.00015,6e-05,-0.00014,-0.00031,6,19
28795,-9e-05,-4e-05,-5e-05,-0.00011,-0.00015,6e-05,-0.00014,-0.00031,6,19
28796,-9e-05,-4e-05,-5e-05,-0.00011,-0.00015,6e-05,-0.00014,-0.00031,6,19
28797,-9e-05,-4e-05,-5e-05,-0.00011,-0.00015,6e-05,-0.00014,-0.00031,6,19
28798,-9e-05,-4e-05,-5e-05,-0.00011,-0.00015,6e-05,-0.00014,-0.00031,6,19
28799,-9e-05,-4e-05,-5e-05,-0.00011,-0.00015,6e-05,-0.00014,-0.00031,6,19
28800,6e-05,1e-05,-3e-05,-9e-05,-1e-05,-8e-05,6e-05,0.00022,6,19
28801,6e-05,1e-05,-3e-05,-9e-05,-1e-05,-8e-05,6e-05,0.00022,6,19
28802,6e-05,1e-05,-3e-05,-9e-05,-1e-05,-8e-05,6e-05,0.00022,6,19
28803,6e-05,1e-05,-3e-05,-9e-05,-1e-05,-8e-05,6e-05,0.00022,6,19
28804,6e-05,1e-05,-3e-05,-9e-05,-1e-05,-8e-05,6e-05,0.00022,6,19
28805,6e-05,1e-05,-3e-05,-9e-05,-1e-05,-8e-05,6e-05,0.00022,6,19
28806,6e-05,1e-05,-3e-05,-9e-05,-1e-05,-8e-05,6e-05,0.00022,6,19
28807,6e-05,1e-05,-3e-05,-9e-05,-1e-05,-8e-05,6e-05,0.00022,6,19
28808,6e-05,1e-05,-3e-05,-9e-05,-1e-05,-8e-05,6e-05,0.00022,6,19
28809,0,-8e-05,-0.0001,-0.00022,-0.00031,-5e-05,-5e-05,-0.00015,6,19
28810,-2e-05,-2e-05,0,-1e-05,2e-05,1e-05,-0.00011,-4e-05,6,19
28811,-2e-05,-2e-05,0,-1e-05,2e-05,1e-05,-0.00011,-4e-05,6,19
28812,-2e-05,-2e-05,0,-1e-05,2e-05,1e-05,-0.00011,-4e-05,6,19
28813,-2e-05,-2e-05,0,-1e-05,2e-05,1e-05,-0.00011,-4e-05,6,19
28814,-2e-05,-2e-05,0,-1e-05,2e-05,1e-05,-0.00011,-4e-05,6,19
28815,-2e-05,-2e-05,0,-1e-05,2e-05,1e-05,-0.00011,-4e-05,6,19
28816,-2e-05,-2e-05,0,-1e-05,2e-05,1e-05,-0.00011,-4e-05,6,19
28817,-2e-05,-2e-05,0,-1e-05,2e-05,1e-05,-0.00011,-4e-05,6,19
28818,-2e-05,-2e-05,0,-1e-05,2e-05,1e-05,-0.00011,-4e-05,6,19
28819,-2e-05,-2e-05,0,-1e-05,2e-05,1e-05,-0.00011,-4e-05,6,19
28820,-2e-05,-2e-05,0,-1e-05,2e-05,1e-05,-0.00011,-4e-05,6,19
28821,-2e-05,-2e-05,0,-1e-05,2e-05,1e-05,-0.00011,-4e-05,6,19
28822,-2e-05,-2e-05,0,-1e-05,2e-05,1e-05,-0.00011,-4e-05,6,19
28823,-2e-05,-2e-05,0,-1e-05,2e-05,1e-05,-0.00011,-4e-05,6,19
28824,-2e-05,-2e-05,0,-1e-05,2e-05,1e-05,-0.00011,-4e-05,6,19
28825,-2e-05,-2e-05,0,-1e-05,2e-05,1e-05,-0.00011,-4e-05,6,19
28826,-2e-05,-2e-05,0,-1e-05,2e-05,1e-05,-0.00011,-4e-05,6,19
28827,-2e-05,-2e-05,0,-1e-05,2e-05,1e-05,-0.00011,-4e-05,6,19
28828,-2e-05,-2e-05,0,-1e-05,2e-05,1e-05,-0.00011,-4e-05,6,19
28829,-2e-05,-2e-05,0,-1e-05,2e-05,1e-05,-0.00011,-4e-05,6,19
28830,-2e-05,-2e-05,0,-1e-05,2e-05,1e-05,-0.00011,-4e-05,6,19
28831,-2e-05,-2e-05,0,-1e-05,2e-05,1e-05,-0.00011,-4e-05,6,19
28832,-7e-05,-4e-05,-3e-05,0.00015,5e-05,-0.00011,-9e-05,5e-05,6,19
28833,-0.00011,-6e-05,3e-05,-6e-05,-0.00014,-1e-05,-7e-05,4e-05,6,19
28834,-0.00011,-6e-05,3e-05,-6e-05,-0.00014,-1e-05,-7e-05,4e-05,6,19
28835,-0.00011,-6e-05,3e-05,-6e-05,-0.00014,-1e-05,-7e-05,4e-05,6,19
28836,-0.00011,-6e-05,3e-05,-6e-05,-0.00014,-1e-05,-7e-05,4e-05,6,19
28838,-0.00011,-6e-05,3e-05,-6e-05,-0.00014,-1e-05,-7e-05,4e-05,6,19
28839,-0.00011,-6e-05,3e-05,-6e-05,-0.00014,-1e-05,-7e-05,4e-05,6,19
28840,-0.00011,-6e-05,3e-05,-6e-05,-0.00014,-1e-05,-7e-05,4e-05,6,19
28841,-0.00011,-6e-05,3e-05,-6e-05,-0.00014,-1e-05,-7e-05,4e-05,6,19
28842,-0.00011,-6e-05,3e-05,-6e-05,-0.00014,-1e-05,-7e-05,4e-05,6,19
28843,-0.00011,-6e-05,3e-05,-6e-05,-0.00014,-1e-05,-7e-05,4e-05,6,19
28844,-0.00011,-6e-05,3e-05,-6e-05,-0.00014,-1e-05,-7e-05,4e-05,6,19
28845,-0.00011,-5e-05,-5e-05,-5e-05,0.00039,0.00016,-1e-05,-0.00033,6,19
28846,-0.00011,-5e-05,-5e-05,-5e-05,0.00039,0.00016,-1e-05,-0.00033,6,19
28847,-0.00011,-5e-05,-5e-05,-5e-05,0.00039,0.00016,-1e-05,-0.00033,6,19
28848,-0.00011,-5e-05,-5e-05,-5e-05,0.00039,0.00016,-1e-05,-0.00033,6,19
28849,-0.00011,-5e-05,-5e-05,-5e-05,0.00039,0.00016,-1e-05,-0.00033,6,19
28850,-0.00011,-5e-05,-5e-05,-5e-05,0.00039,0.00016,-1e-05,-0.00033,6,19
28851,-0.00011,-5e-05,-5e-05,-5e-05,0.00039,0.00016,-1e-05,-0.00033,6,19
28852,-0.00011,-5e-05,-5e-05,-5e-05,0.00039,0.00016,-1e-05,-0.00033,6,19
28853,-0.00011,-5e-05,-5e-05,-5e-05,0.00039,0.00016,-1e-05,-0.00033,6,19
28854,-1e-05,-3e-05,5e-05,0.00024,0.00065,0.00026,5e-05,-0.00026,6,19
28855,-1e-05,-3e-05,5e-05,0.00024,0.00065,0.00026,5e-05,-0.00026,6,19
28856,-1e-05,-3e-05,5e-05,0.00024,0.00065,0.00026,5e-05,-0.00026,6,19
28857,-1e-05,-3e-05,5e-05,0.00024,0.00065,0.00026,5e-05,-0.00026,6,19
28858,-1e-05,-3e-05,5e-05,0.00024,0.00065,0.00026,5e-05,-0.00026,6,19
28859,-1e-05,-3e-05,5e-05,0.00024,0.00065,0.00026,5e-05,-0.00026,6,19
28860,-1e-05,-3e-05,5e-05,0.00024,0.00065,0.00026,5e-05,-0.00026,6,19
28861,-1e-05,-3e-05,5e-05,0.00024,0.00065,0.00026,5e-05,-0.00026,6,19
28862,-1e-05,-3e-05,5e-05,0.00024,0.00065,0.00026,5e-05,-0.00026,6,19
28863,-1e-05,-3e-05,5e-05,0.00024,0.00065,0.00026,5e-05,-0.00026,6,19
28864,-1e-05,-3e-05,5e-05,0.00024,0.00065,0.00026,5e-05,-0.00026,6,19
28865,-1e-05,-3e-05,5e-05,0.00024,0.00065,0.00026,5e-05,-0.00026,6,19
28866,-1e-05,-3e-05,5e-05,0.00024,0.00065,0.00026,5e-05,-0.00026,6,19
28867,-1e-05,-3e-05,5e-05,0.00024,0.00065,0.00026,5e-05,-0.00026,6,19
28868,-1e-05,-3e-05,5e-05,0.00024,0.00065,0.00026,5e-05,-0.00026,6,19
28869,-1e-05,-3e-05,5e-05,0.00024,0.00065,0.00026,5e-05,-0.00026,6,19
28870,-1e-05,-3e-05,5e-05,0.00024,0.00065,0.00026,5e-05,-0.00026,6,19
28871,-1e-05,-3e-05,5e-05,0.00024,0.00065,0.00026,5e-05,-0.00026,6,19
28872,-1e-05,-3e-05,5e-05,0.00024,0.00065,0.00026,5e-05,-0.00026,6,19
28873,-1e-05,-3e-05,5e-05,0.00024,0.00065,0.00026,5e-05,-0.00026,6,19
28874,-1e-05,-3e-05,5e-05,0.00024,0.00065,0.00026,5e-05,-0.00026,6,19
28875,-1e-05,-3e-05,5e-05,0.00024,0.00065,0.00026,5e-05,-0.00026,6,19
28876,-1e-05,-3e-05,5e-05,0.00024,0.00065,0.00026,5e-05,-0.00026,6,19
28877,-2e-05,1e-05,3e-05,1e-05,-8e-05,-8e-05,-3e-05,0.00022,6,19
28878,1e-05,1e-05,-4e-05,0.00013,0.00033,-1e-05,8e-05,-3e-05,6,19
28879,1e-05,1e-05,-4e-05,0.00013,0.00033,-1e-05,8e-05,-3e-05,6,19
28880,1e-05,1e-05,-4e-05,0.00013,0.00033,-1e-05,8e-05,-3e-05,6,19
28881,1e-05,1e-05,-4e-05,0.00013,0.00033,-1e-05,8e-05,-3e-05,6,19
28882,1e-05,1e-05,-4e-05,0.00013,0.00033,-1e-05,8e-05,-3e-05,6,19
28883,1e-05,1e-05,-4e-05,0.00013,0.00033,-1e-05,8e-05,-3e-05,6,19
28884,1e-05,1e-05,-4e-05,0.00013,0.00033,-1e-05,8e-05,-3e-05,6,19
28885,1e-05,1e-05,-4e-05,0.00013,0.00033,-1e-05,8e-05,-3e-05,6,19
28886,1e-05,1e-05,-4e-05,0.00013,0.00033,-1e-05,8e-05,-3e-05,6,19
28889,1e-05,1e-05,-4e-05,0.00013,0.00033,-1e-05,8e-05,-3e-05,6,19
28890,1e-05,1e-05,-4e-05,0.00013,0.00033,-1e-05,8e-05,-3e-05,6,19
28891,0.0001,4e-05,0,6e-05,-0.00011,8e-05,-0.00014,-0.00017,6,19
28892,0.0001,4e-05,0,6e-05,-0.00011,8e-05,-0.00014,-0.00017,6,19
28893,-1e-05,0,-5e-05,0.00014,0.00011,0.00017,-0.0001,0,6,19
28894,-1e-05,0,-5e-05,0.00014,0.00011,0.00017,-0.0001,0,6,19
28895,-1e-05,0,-5e-05,0.00014,0.00011,0.00017,-0.0001,0,6,19
28896,-1e-05,0,-5e-05,0.00014,0.00011,0.00017,-0.0001,0,6,19
28897,-1e-05,0,-5e-05,0.00014,0.00011,0.00017,-0.0001,0,6,19
28898,-1e-05,0,-5e-05,0.00014,0.00011,0.00017,-0.0001,0,6,19
28899,-1e-05,0,-5e-05,0.00014,0.00011,0.00017,-0.0001,0,6,19
28900,-1e-05,0,-5e-05,0.00014,0.00011,0.00017,-0.0001,0,6,19
28901,-1e-05,0,-5e-05,0.00014,0.00011,0.00017,-0.0001,0,6,19
28902,-1e-05,0,-5e-05,0.00014,0.00011,0.00017,-0.0001,0,6,19
28903,-1e-05,0,-5e-05,0.00014,0.00011,0.00017,-0.0001,0,6,19
28904,-1e-05,0,-5e-05,0.00014,0.00011,0.00017,-0.0001,0,6,19
28905,-1e-05,0,-5e-05,0.00014,0.00011,0.00017,-0.0001,0,6,19
28906,-1e-05,0,-5e-05,0.00014,0.00011,0.00017,-0.0001,0,6,19
28907,-1e-05,0,-5e-05,0.00014,0.00011,0.00017,-0.0001,0,6,19
28908,-1e-05,0,-5e-05,0.00014,0.00011,0.00017,-0.0001,0,6,19
28909,-1e-05,0,-5e-05,0.00014,0.00011,0.00017,-0.0001,0,6,19
28910,-1e-05,0,-5e-05,0.00014,0.00011,0.00017,-0.0001,0,6,19
28911,-1e-05,0,-5e-05,0.00014,0.00011,0.00017,-0.0001,0,6,19
28912,-1e-05,0,-5e-05,0.00014,0.00011,0.00017,-0.0001,0,6,19
28913,0.00013,3e-05,-5e-05,-9e-05,-0.00015,-6e-05,-0.00016,-8e-05,6,19
28914,0.00013,3e-05,-5e-05,-9e-05,-0.00015,-6e-05,-0.00016,-8e-05,6,19
28915,-8e-05,-4e-05,2e-05,-2e-05,0.0002,3e-05,-0.0002,-0.00018,6,19
28916,-8e-05,-4e-05,2e-05,-2e-05,0.0002,3e-05,-0.0002,-0.00018,6,19
28917,-8e-05,-4e-05,2e-05,-2e-05,0.0002,3e-05,-0.0002,-0.00018,6,19
28918,-8e-05,-4e-05,2e-05,-2e-05,0.0002,3e-05,-0.0002,-0.00018,6,19
28919,-8e-05,-4e-05,2e-05,-2e-05,0.0002,3e-05,-0.0002,-0.00018,6,19
28920,-8e-05,-4e-05,2e-05,-2e-05,0.0002,3e-05,-0.0002,-0.00018,6,19
28921,-8e-05,-4e-05,2e-05,-2e-05,0.0002,3e-05,-0.0002,-0.00018,6,19
28922,-8e-05,-4e-05,2e-05,-2e-05,0.0002,3e-05,-0.0002,-0.00018,6,19
28923,-8e-05,-4e-05,2e-05,-2e-05,0.0002,3e-05,-0.0002,-0.00018,6,19
28924,-8e-05,-4e-05,2e-05,-2e-05,0.0002,3e-05,-0.0002,-0.00018,6,19
28925,-8e-05,-4e-05,2e-05,-2e-05,0.0002,3e-05,-0.0002,-0.00018,6,19
28926,-8e-05,-4e-05,2e-05,-2e-05,0.0002,3e-05,-0.0002,-0.00018,6,19
28927,-8e-05,-4e-05,2e-05,-2e-05,0.0002,3e-05,-0.0002,-0.00018,6,19
28928,-8e-05,-4e-05,2e-05,-2e-05,0.0002,3e-05,-0.0002,-0.00018,6,19
28929,-1e-05,-2e-05,1e-05,-7e-05,-0.00031,6e-05,6e-05,-5e-05,6,19
28930,3e-05,-2e-05,-1e-05,-0.00022,-0.00044,-4e-05,-7e-05,0.00012,6,19
28931,3e-05,-2e-05,-1e-05,-0.00022,-0.00044,-4e-05,-7e-05,0.00012,6,19
28932,3e-05,-2e-05,-1e-05,-0.00022,-0.00044,-4e-05,-7e-05,0.00012,6,19
28933,3e-05,-2e-05,-1e-05,-0.00022,-0.00044,-4e-05,-7e-05,0.00012,6,19
28934,3e-05,-2e-05,-1e-05,-0.00022,-0.00044,-4e-05,-7e-05,0.00012,6,19
28935,3e-05,-2e-05,-1e-05,-0.00022,-0.00044,-4e-05,-7e-05,0.00012,6,19
28936,3e-05,-2e-05,-1e-05,-0.00022,-0.00044,-4e-05,-7e-05,0.00012,6,19
28938,3e-05,-2e-05,-1e-05,-0.00022,-0.00044,-4e-05,-7e-05,0.00012,6,19
28940,3e-05,-2e-05,-1e-05,-0.00022,-0.00044,-4e-05,-7e-05,0.00012,6,19
28941,3e-05,-2e-05,-1e-05,-0.00022,-0.00044,-4e-05,-7e-05,0.00012,6,19
28942,3e-05,-2e-05,-1e-05,-0.00022,-0.00044,-4e-05,-7e-05,0.00012,6,19
28943,3e-05,-2e-05,-1e-05,-0.00022,-0.00044,-4e-05,-7e-05,0.00012,6,19
28944,3e-05,-2e-05,-1e-05,-0.00022,-0.00044,-4e-05,-7e-05,0.00012,6,19
28945,3e-05,-2e-05,-1e-05,-0.00022,-0.00044,-4e-05,-7e-05,0.00012,6,19
28946,3e-05,-2e-05,-1e-05,-0.00022,-0.00044,-4e-05,-7e-05,0.00012,6,19
28947,3e-05,-2e-05,-1e-05,-0.00022,-0.00044,-4e-05,-7e-05,0.00012,6,19
28948,3e-05,-2e-05,-1e-05,-0.00022,-0.00044,-4e-05,-7e-05,0.00012,6,19
28949,3e-05,-2e-05,-1e-05,-0.00022,-0.00044,-4e-05,-7e-05,0.00012,6,19
28950,3e-05,-2e-05,-1e-05,-0.00022,-0.00044,-4e-05,-7e-05,0.00012,6,19
28951,1e-05,8e-05,2e-05,0.00017,0.00034,0.00015,-2e-05,1e-05,6,19
28952,-7e-05,-5e-05,3e-05,4e-05,0,-6e-05,2e-05,5e-05,6,19
28954,-7e-05,-5e-05,3e-05,4e-05,0,-6e-05,2e-05,5e-05,6,19
28955,-7e-05,-5e-05,3e-05,4e-05,0,-6e-05,2e-05,5e-05,6,19
28956,-7e-05,-5e-05,3e-05,4e-05,0,-6e-05,2e-05,5e-05,6,19
28957,-7e-05,0,0,0.00028,-0.00013,0,5e-05,-4e-05,6,19
28958,-7e-05,0,0,0.00028,-0.00013,0,5e-05,-4e-05,6,19
28959,-7e-05,0,0,0.00028,-0.00013,0,5e-05,-4e-05,6,19
28960,-7e-05,0,0,0.00028,-0.00013,0,5e-05,-4e-05,6,19
28961,-7e-05,0,0,0.00028,-0.00013,0,5e-05,-4e-05,6,19
28962,-7e-05,0,0,0.00028,-0.00013,0,5e-05,-4e-05,6,19
28963,-7e-05,0,0,0.00028,-0.00013,0,5e-05,-4e-05,6,19
28964,-7e-05,0,0,0.00028,-0.00013,0,5e-05,-4e-05,6,19
28965,-1e-05,1e-05,-3e-05,-0.00012,-0.0001,-2e-05,-8e-05,5e-05,6,19
28966,-1e-05,1e-05,-3e-05,-0.00012,-0.0001,-2e-05,-8e-05,5e-05,6,19
28967,-1e-05,1e-05,-3e-05,-0.00012,-0.0001,-2e-05,-8e-05,5e-05,6,19
28968,-1e-05,1e-05,-3e-05,-0.00012,-0.0001,-2e-05,-8e-05,5e-05,6,19
28969,-1e-05,1e-05,-3e-05,-0.00012,-0.0001,-2e-05,-8e-05,5e-05,6,19
28970,-1e-05,1e-05,-3e-05,-0.00012,-0.0001,-2e-05,-8e-05,5e-05,6,19
28971,-1e-05,1e-05,-3e-05,-0.00012,-0.0001,-2e-05,-8e-05,5e-05,6,19
28972,-1e-05,1e-05,-3e-05,-0.00012,-0.0001,-2e-05,-8e-05,5e-05,6,19
28973,-1e-05,1e-05,-3e-05,-0.00012,-0.0001,-2e-05,-8e-05,5e-05,6,19
28974,-4e-05,-5e-05,-5e-05,-0.00028,-0.00032,-6e-05,-0.0001,-9e-05,6,19
28975,-4e-05,-5e-05,-5e-05,-0.00028,-0.00032,-6e-05,-0.0001,-9e-05,6,19
28976,-4e-05,-5e-05,-5e-05,-0.00028,-0.00032,-6e-05,-0.0001,-9e-05,6,19
28977,-4e-05,-5e-05,-5e-05,-0.00028,-0.00032,-6e-05,-0.0001,-9e-05,6,19
28978,-4e-05,-5e-05,-5e-05,-0.00028,-0.00032,-6e-05,-0.0001,-9e-05,6,19
28979,-4e-05,-5e-05,-5e-05,-0.00028,-0.00032,-6e-05,-0.0001,-9e-05,6,19
28980,-4e-05,-5e-05,-5e-05,-0.00028,-0.00032,-6e-05,-0.0001,-9e-05,6,19
28981,-4e-05,-5e-05,-5e-05,-0.00028,-0.00032,-6e-05,-0.0001,-9e-05,6,19
28982,-4e-05,-5e-05,-5e-05,-0.00028,-0.00032,-6e-05,-0.0001,-9e-05,6,19
28983,-4e-05,-5e-05,-5e-05,-0.00028,-0.00032,-6e-05,-0.0001,-9e-05,6,19
28984,-4e-05,-5e-05,-5e-05,-0.00028,-0.00032,-6e-05,-0.0001,-9e-05,6,19
28985,-4e-05,-5e-05,-5e-05,-0.00028,-0.00032,-6e-05,-0.0001,-9e-05,6,19
28986,-4e-05,-5e-05,-5e-05,-0.00028,-0.00032,-6e-05,-0.0001,-9e-05,6,19
28989,-4e-05,-5e-05,-5e-05,-0.00028,-0.00032,-6e-05,-0.0001,-9e-05,6,19
28990,-4e-05,-5e-05,-5e-05,-0.00028,-0.00032,-6e-05,-0.0001,-9e-05,6,19
28991,-4e-05,-5e-05,-5e-05,-0.00028,-0.00032,-6e-05,-0.0001,-9e-05,6,19
28992,-4e-05,-5e-05,-5e-05,-0.00028,-0.00032,-6e-05,-0.0001,-9e-05,6,19
28993,-4e-05,-5e-05,-5e-05,-0.00028,-0.00032,-6e-05,-0.0001,-9e-05,6,19
28994,-4e-05,-5e-05,-5e-05,-0.00028,-0.00032,-6e-05,-0.0001,-9e-05,6,19
28995,-4e-05,-5e-05,-5e-05,-0.00028,-0.00032,-6e-05,-0.0001,-9e-05,6,19
28996,-0.00013,-3e-05,0,9e-05,0.00061,0.00011,0.00014,2e-05,6,19
28997,-0.00013,-3e-05,0,9e-05,0.00061,0.00011,0.00014,2e-05,6,19
28998,8e-05,8e-05,4e-05,-0.00014,-0.00038,2e-05,-0.00015,-0.00011,6,19
28999,8e-05,8e-05,4e-05,-0.00014,-0.00038,2e-05,-0.00015,-0.00011,6,19
29000,8e-05,8e-05,4e-05,-0.00014,-0.00038,2e-05,-0.00015,-0.00011,6,19
29001,8e-05,8e-05,4e-05,-0.00014,-0.00038,2e-05,-0.00015,-0.00011,6,19
29002,8e-05,8e-05,4e-05,-0.00014,-0.00038,2e-05,-0.00015,-0.00011,6,19
29003,8e-05,8e-05,4e-05,-0.00014,-0.00038,2e-05,-0.00015,-0.00011,6,19
29004,8e-05,8e-05,4e-05,-0.00014,-0.00038,2e-05,-0.00015,-0.00011,6,19
29005,8e-05,8e-05,4e-05,-0.00014,-0.00038,2e-05,-0.00015,-0.00011,6,19
29006,8e-05,8e-05,4e-05,-0.00014,-0.00038,2e-05,-0.00015,-0.00011,6,19
29007,8e-05,8e-05,4e-05,-0.00014,-0.00038,2e-05,-0.00015,-0.00011,6,19
29008,8e-05,8e-05,4e-05,-0.00014,-0.00038,2e-05,-0.00015,-0.00011,6,19
29009,8e-05,8e-05,4e-05,-0.00014,-0.00038,2e-05,-0.00015,-0.00011,6,19
29010,8e-05,8e-05,4e-05,-0.00014,-0.00038,2e-05,-0.00015,-0.00011,6,19
29011,-0.00019,-6e-05,-4e-05,-7e-05,-9e-05,-8e-05,6e-05,-1e-05,6,19
29012,-0.00019,-6e-05,-4e-05,-7e-05,-9e-05,-8e-05,6e-05,-1e-05,6,19
29013,2e-05,1e-05,-5e-05,-6e-05,-0.00029,0,0,3e-05,6,19
29014,2e-05,1e-05,-5e-05,-6e-05,-0.00029,0,0,3e-05,6,19
29015,2e-05,1e-05,-5e-05,-6e-05,-0.00029,0,0,3e-05,6,19
29016,2e-05,1e-05,-5e-05,-6e-05,-0.00029,0,0,3e-05,6,19
29017,2e-05,1e-05,-5e-05,-6e-05,-0.00029,0,0,3e-05,6,19
29018,2e-05,1e-05,-5e-05,-6e-05,-0.00029,0,0,3e-05,6,19
29019,2e-05,1e-05,-5e-05,-6e-05,-0.00029,0,0,3e-05,6,19
29020,2e-05,1e-05,-5e-05,-6e-05,-0.00029,0,0,3e-05,6,19
29021,2e-05,1e-05,-5e-05,-6e-05,-0.00029,0,0,3e-05,6,19
29022,2e-05,1e-05,-5e-05,-6e-05,-0.00029,0,0,3e-05,6,19
29023,2e-05,1e-05,-5e-05,-6e-05,-0.00029,0,0,3e-05,6,19
29024,2e-05,1e-05,-5e-05,-6e-05,-0.00029,0,0,3e-05,6,19
29025,0.00014,7e-05,2e-05,-5e-05,0,-4e-05,0.00019,2e-05,6,19
29026,0.00014,7e-05,2e-05,-5e-05,0,-4e-05,0.00019,2e-05,6,19
29027,0.00014,7e-05,2e-05,-5e-05,0,-4e-05,0.00019,2e-05,6,19
29028,0.00014,7e-05,2e-05,-5e-05,0,-4e-05,0.00019,2e-05,6,19
29029,0.00014,7e-05,2e-05,-5e-05,0,-4e-05,0.00019,2e-05,6,19
29030,0.00014,7e-05,2e-05,-5e-05,0,-4e-05,0.00019,2e-05,6,19
29031,0.00014,7e-05,2e-05,-5e-05,0,-4e-05,0.00019,2e-05,6,19
29032,0.00014,7e-05,2e-05,-5e-05,0,-4e-05,0.00019,2e-05,6,19
29033,0.00014,7e-05,2e-05,-5e-05,0,-4e-05,0.00019,2e-05,6,19
29034,-6e-05,-3e-05,-1e-05,0.00011,-0.00027,-0.00019,-0.0001,0.00012,6,19
29035,-6e-05,-3e-05,-1e-05,0.00011,-0.00027,-0.00019,-0.0001,0.00012,6,19
29036,-6e-05,-3e-05,-1e-05,0.00011,-0.00027,-0.00019,-0.0001,0.00012,6,19
29039,-6e-05,-3e-05,-1e-05,0.00011,-0.00027,-0.00019,-0.0001,0.00012,6,19
29040,-6e-05,-3e-05,-1e-05,0.00011,-0.00027,-0.00019,-0.0001,0.00012,6,19
29041,-6e-05,-3e-05,-1e-05,0.00011,-0.00027,-0.00019,-0.0001,0.00012,6,19
29042,-6e-05,-3e-05,-1e-05,0.00011,-0.00027,-0.00019,-0.0001,0.00012,6,19
29043,-6e-05,-3e-05,-1e-05,0.00011,-0.00027,-0.00019,-0.0001,0.00012,6,19
29044,-6e-05,-3e-05,-1e-05,0.00011,-0.00027,-0.00019,-0.0001,0.00012,6,19
29045,-6e-05,-3e-05,-1e-05,0.00011,-0.00027,-0.00019,-0.0001,0.00012,6,19
29046,-6e-05,-3e-05,-1e-05,0.00011,-0.00027,-0.00019,-0.0001,0.00012,6,19
29047,-6e-05,-3e-05,-1e-05,0.00011,-0.00027,-0.00019,-0.0001,0.00012,6,19
29048,-6e-05,-3e-05,-1e-05,0.00011,-0.00027,-0.00019,-0.0001,0.00012,6,19
29049,5e-05,1e-05,-2e-05,-2e-05,-9e-05,-7e-05,3e-05,0.00032,6,19
29050,1e-05,4e-05,-3e-05,0,1e-05,-4e-05,0.00028,0.00023,6,19
29051,1e-05,4e-05,-3e-05,0,1e-05,-4e-05,0.00028,0.00023,6,19
29052,1e-05,4e-05,-3e-05,0,1e-05,-4e-05,0.00028,0.00023,6,19
29053,1e-05,4e-05,-3e-05,0,1e-05,-4e-05,0.00028,0.00023,6,19
29054,1e-05,4e-05,-3e-05,0,1e-05,-4e-05,0.00028,0.00023,6,19
29055,1e-05,4e-05,-3e-05,0,1e-05,-4e-05,0.00028,0.00023,6,19
29056,1e-05,4e-05,-3e-05,0,1e-05,-4e-05,0.00028,0.00023,6,19
29057,1e-05,4e-05,-3e-05,0,1e-05,-4e-05,0.00028,0.00023,6,19
29058,1e-05,4e-05,-3e-05,0,1e-05,-4e-05,0.00028,0.00023,6,19
29059,1e-05,4e-05,-3e-05,0,1e-05,-4e-05,0.00028,0.00023,6,19
29060,1e-05,4e-05,-3e-05,0,1e-05,-4e-05,0.00028,0.00023,6,19
29061,1e-05,4e-05,-3e-05,0,1e-05,-4e-05,0.00028,0.00023,6,19
29062,1e-05,4e-05,-3e-05,0,1e-05,-4e-05,0.00028,0.00023,6,19
29063,1e-05,4e-05,-3e-05,0,1e-05,-4e-05,0.00028,0.00023,6,19
29064,1e-05,4e-05,-3e-05,0,1e-05,-4e-05,0.00028,0.00023,6,19
29065,1e-05,4e-05,-3e-05,0,1e-05,-4e-05,0.00028,0.00023,6,19
29066,1e-05,4e-05,-3e-05,0,1e-05,-4e-05,0.00028,0.00023,6,19
29067,1e-05,4e-05,-3e-05,0,1e-05,-4e-05,0.00028,0.00023,6,19
29068,1e-05,4e-05,-3e-05,0,1e-05,-4e-05,0.00028,0.00023,6,19
29069,1e-05,4e-05,-3e-05,0,1e-05,-4e-05,0.00028,0.00023,6,19
29070,1e-05,4e-05,-3e-05,0,1e-05,-4e-05,0.00028,0.00023,6,19
29071,1e-05,-4e-05,3e-05,0.00013,0.00012,0,-0.00016,6e-05,6,19
29072,1e-05,1e-05,1e-05,6e-05,0.00031,6e-05,-0.00011,-5e-05,6,19
29073,1e-05,1e-05,1e-05,6e-05,0.00031,6e-05,-0.00011,-5e-05,6,19
29074,1e-05,1e-05,1e-05,6e-05,0.00031,6e-05,-0.00011,-5e-05,6,19
29075,1e-05,1e-05,1e-05,6e-05,0.00031,6e-05,-0.00011,-5e-05,6,19
29076,1e-05,1e-05,1e-05,6e-05,0.00031,6e-05,-0.00011,-5e-05,6,19
29077,-1e-05,0,0,-0.00012,-0.00026,0.00016,7e-05,5e-05,6,19
29078,-1e-05,0,0,-0.00012,-0.00026,0.00016,7e-05,5e-05,6,19
29079,-1e-05,0,0,-0.00012,-0.00026,0.00016,7e-05,5e-05,6,19
29080,-1e-05,0,0,-0.00012,-0.00026,0.00016,7e-05,5e-05,6,19
29081,-1e-05,0,0,-0.00012,-0.00026,0.00016,7e-05,5e-05,6,19
29082,-1e-05,0,0,-0.00012,-0.00026,0.00016,7e-05,5e-05,6,19
29083,-1e-05,0,0,-0.00012,-0.00026,0.00016,7e-05,5e-05,6,19
29084,-1e-05,0,0,-0.00012,-0.00026,0.00016,7e-05,5e-05,6,19
29085,-0.0001,-5e-05,-6e-05,-5e-05,0.00036,3e-05,-2e-05,5e-05,6,19
29086,-0.0001,-5e-05,-6e-05,-5e-05,0.00036,3e-05,-2e-05,5e-05,6,19
29089,-0.0001,-5e-05,-6e-05,-5e-05,0.00036,3e-05,-2e-05,5e-05,6,19
29090,-0.0001,-5e-05,-6e-05,-5e-05,0.00036,3e-05,-2e-05,5e-05,6,19
29091,-0.0001,-5e-05,-6e-05,-5e-05,0.00036,3e-05,-2e-05,5e-05,6,19
29092,-0.0001,-5e-05,-6e-05,-5e-05,0.00036,3e-05,-2e-05,5e-05,6,19
29093,-0.0001,-5e-05,-6e-05,-5e-05,0.00036,3e-05,-2e-05,5e-05,6,19
29094,-1e-05,0,8e-05,0.00018,0.00054,0.0002,0.00012,0.00041,6,19
29095,-1e-05,0,8e-05,0.00018,0.00054,0.0002,0.00012,0.00041,6,19
29096,-1e-05,0,8e-05,0.00018,0.00054,0.0002,0.00012,0.00041,6,19
29097,-1e-05,0,8e-05,0.00018,0.00054,0.0002,0.00012,0.00041,6,19
29098,-1e-05,0,8e-05,0.00018,0.00054,0.0002,0.00012,0.00041,6,19
29099,-1e-05,0,8e-05,0.00018,0.00054,0.0002,0.00012,0.00041,6,19
29100,-1e-05,0,8e-05,0.00018,0.00054,0.0002,0.00012,0.00041,6,19
29101,-1e-05,0,8e-05,0.00018,0.00054,0.0002,0.00012,0.00041,6,19
29102,-1e-05,0,8e-05,0.00018,0.00054,0.0002,0.00012,0.00041,6,19
29103,-1e-05,0,8e-05,0.00018,0.00054,0.0002,0.00012,0.00041,6,19
29104,-1e-05,0,8e-05,0.00018,0.00054,0.0002,0.00012,0.00041,6,19
29105,-1e-05,0,8e-05,0.00018,0.00054,0.0002,0.00012,0.00041,6,19
29106,-1e-05,0,8e-05,0.00018,0.00054,0.0002,0.00012,0.00041,6,19
29107,-1e-05,0,8e-05,0.00018,0.00054,0.0002,0.00012,0.00041,6,19
29108,-1e-05,0,8e-05,0.00018,0.00054,0.0002,0.00012,0.00041,6,19
29109,-1e-05,0,8e-05,0.00018,0.00054,0.0002,0.00012,0.00041,6,19
29110,-1e-05,0,8e-05,0.00018,0.00054,0.0002,0.00012,0.00041,6,19
29111,-1e-05,0,8e-05,0.00018,0.00054,0.0002,0.00012,0.00041,6,19
29112,-1e-05,0,8e-05,0.00018,0.00054,0.0002,0.00012,0.00041,6,19
29113,-1e-05,0,8e-05,0.00018,0.00054,0.0002,0.00012,0.00041,6,19
29114,-1e-05,0,8e-05,0.00018,0.00054,0.0002,0.00012,0.00041,6,19
29115,-1e-05,0,8e-05,0.00018,0.00054,0.0002,0.00012,0.00041,6,19
29116,0.00012,-1e-05,-5e-05,-0.00021,-0.00046,2e-05,-1e-05,0.00012,6,19
29117,0.00012,-1e-05,-5e-05,-0.00021,-0.00046,2e-05,-1e-05,0.00012,6,19
29118,-0.00012,-0.00012,2e-05,0.00013,0.0004,-2e-05,-9e-05,-0.00015,6,19
29119,-0.00012,-0.00012,2e-05,0.00013,0.0004,-2e-05,-9e-05,-0.00015,6,19
29120,-0.00012,-0.00012,2e-05,0.00013,0.0004,-2e-05,-9e-05,-0.00015,6,19
29121,-0.00012,-0.00012,2e-05,0.00013,0.0004,-2e-05,-9e-05,-0.00015,6,19
29122,-0.00012,-0.00012,2e-05,0.00013,0.0004,-2e-05,-9e-05,-0.00015,6,19
29123,-0.00012,-0.00012,2e-05,0.00013,0.0004,-2e-05,-9e-05,-0.00015,6,19
29124,-0.00012,-0.00012,2e-05,0.00013,0.0004,-2e-05,-9e-05,-0.00015,6,19
29125,-0.00012,-0.00012,2e-05,0.00013,0.0004,-2e-05,-9e-05,-0.00015,6,19
29126,-0.00012,-0.00012,2e-05,0.00013,0.0004,-2e-05,-9e-05,-0.00015,6,19
29127,-0.00012,-0.00012,2e-05,0.00013,0.0004,-2e-05,-9e-05,-0.00015,6,19
29128,-0.00012,-0.00012,2e-05,0.00013,0.0004,-2e-05,-9e-05,-0.00015,6,19
29129,-0.00012,-0.00012,2e-05,0.00013,0.0004,-2e-05,-9e-05,-0.00015,6,19
29130,-0.00012,-0.00012,2e-05,0.00013,0.0004,-2e-05,-9e-05,-0.00015,6,19
29131,-0.0002,-8e-05,2e-05,0.00021,0.00037,-2e-05,-7e-05,-0.00012,6,19
29132,-0.0002,-8e-05,2e-05,0.00021,0.00037,-2e-05,-7e-05,-0.00012,6,19
29133,-1e-05,-6e-05,-8e-05,-0.00027,-0.00031,-0.00027,-0.00029,-7e-05,6,19
29134,-1e-05,-6e-05,-8e-05,-0.00027,-0.00031,-0.00027,-0.00029,-7e-05,6,19
29135,-1e-05,-6e-05,-8e-05,-0.00027,-0.00031,-0.00027,-0.00029,-7e-05,6,19
29136,-1e-05,-6e-05,-8e-05,-0.00027,-0.00031,-0.00027,-0.00029,-7e-05,6,19
29138,-1e-05,-6e-05,-8e-05,-0.00027,-0.00031,-0.00027,-0.00029,-7e-05,6,19
29140,-1e-05,-6e-05,-8e-05,-0.00027,-0.00031,-0.00027,-0.00029,-7e-05,6,19
29141,-1e-05,-6e-05,-8e-05,-0.00027,-0.00031,-0.00027,-0.00029,-7e-05,6,19
29142,-1e-05,-6e-05,-8e-05,-0.00027,-0.00031,-0.00027,-0.00029,-7e-05,6,19
29143,-1e-05,-6e-05,-8e-05,-0.00027,-0.00031,-0.00027,-0.00029,-7e-05,6,19
29144,-1e-05,-6e-05,-8e-05,-0.00027,-0.00031,-0.00027,-0.00029,-7e-05,6,19
29145,-1e-05,-6e-05,-8e-05,-0.00027,-0.00031,-0.00027,-0.00029,-7e-05,6,19
29146,-1e-05,-6e-05,-8e-05,-0.00027,-0.00031,-0.00027,-0.00029,-7e-05,6,19
29147,-1e-05,-6e-05,-8e-05,-0.00027,-0.00031,-0.00027,-0.00029,-7e-05,6,19
29148,-1e-05,-6e-05,-8e-05,-0.00027,-0.00031,-0.00027,-0.00029,-7e-05,6,19
29149,-1e-05,-6e-05,-8e-05,-0.00027,-0.00031,-0.00027,-0.00029,-7e-05,6,19
29150,-1e-05,-6e-05,-8e-05,-0.00027,-0.00031,-0.00027,-0.00029,-7e-05,6,19
29151,-1e-05,-6e-05,-8e-05,-0.00027,-0.00031,-0.00027,-0.00029,-7e-05,6,19
29152,-1e-05,-6e-05,-8e-05,-0.00027,-0.00031,-0.00027,-0.00029,-7e-05,6,19
29153,-1e-05,-3e-05,-4e-05,-6e-05,-0.00021,-7e-05,-9e-05,-0.00021,6,19
29154,4e-05,-4e-05,3e-05,2e-05,0.00031,2e-05,9e-05,-0.00014,6,19
29155,4e-05,-4e-05,3e-05,2e-05,0.00031,2e-05,9e-05,-0.00014,6,19
29156,4e-05,-4e-05,3e-05,2e-05,0.00031,2e-05,9e-05,-0.00014,6,19
29157,4e-05,-4e-05,3e-05,2e-05,0.00031,2e-05,9e-05,-0.00014,6,19
29158,4e-05,-4e-05,3e-05,2e-05,0.00031,2e-05,9e-05,-0.00014,6,19
29159,4e-05,-4e-05,3e-05,2e-05,0.00031,2e-05,9e-05,-0.00014,6,19
29160,4e-05,-4e-05,3e-05,2e-05,0.00031,2e-05,9e-05,-0.00014,6,19
29161,4e-05,-4e-05,3e-05,2e-05,0.00031,2e-05,9e-05,-0.00014,6,19
29162,4e-05,-4e-05,3e-05,2e-05,0.00031,2e-05,9e-05,-0.00014,6,19
29163,4e-05,-4e-05,3e-05,2e-05,0.00031,2e-05,9e-05,-0.00014,6,19
29164,4e-05,-4e-05,3e-05,2e-05,0.00031,2e-05,9e-05,-0.00014,6,19
29165,4e-05,-4e-05,3e-05,2e-05,0.00031,2e-05,9e-05,-0.00014,6,19
29166,4e-05,-4e-05,3e-05,2e-05,0.00031,2e-05,9e-05,-0.00014,6,19
29167,4e-05,-4e-05,3e-05,2e-05,0.00031,2e-05,9e-05,-0.00014,6,19
29170,6e-05,6e-05,9e-05,0.00016,0.0001,0.00017,9e-05,-2e-05,6,19
29171,2e-05,0,-8e-05,-0.00014,-0.00015,-4e-05,6e-05,0.00028,6,19
29172,2e-05,0,-8e-05,-0.00014,-0.00015,-4e-05,6e-05,0.00028,6,19
29173,2e-05,0,-8e-05,-0.00014,-0.00015,-4e-05,6e-05,0.00028,6,19
29174,2e-05,0,-8e-05,-0.00014,-0.00015,-4e-05,6e-05,0.00028,6,19
29175,2e-05,0,-8e-05,-0.00014,-0.00015,-4e-05,6e-05,0.00028,6,19
29176,2e-05,0,-8e-05,-0.00014,-0.00015,-4e-05,6e-05,0.00028,6,19
29177,2e-05,0,-8e-05,-0.00014,-0.00015,-4e-05,6e-05,0.00028,6,19
29178,2e-05,0,-8e-05,-0.00014,-0.00015,-4e-05,6e-05,0.00028,6,19
29179,2e-05,0,-8e-05,-0.00014,-0.00015,-4e-05,6e-05,0.00028,6,19
29180,2e-05,0,-8e-05,-0.00014,-0.00015,-4e-05,6e-05,0.00028,6,19
29181,2e-05,0,-8e-05,-0.00014,-0.00015,-4e-05,6e-05,0.00028,6,19
29182,2e-05,0,-8e-05,-0.00014,-0.00015,-4e-05,6e-05,0.00028,6,19
29183,2e-05,0,-8e-05,-0.00014,-0.00015,-4e-05,6e-05,0.00028,6,19
29184,2e-05,0,-8e-05,-0.00014,-0.00015,-4e-05,6e-05,0.00028,6,19
29185,2e-05,0,-8e-05,-0.00014,-0.00015,-4e-05,6e-05,0.00028,6,19
29186,2e-05,0,-8e-05,-0.00014,-0.00015,-4e-05,6e-05,0.00028,6,19
29188,2e-05,0,-8e-05,-0.00014,-0.00015,-4e-05,6e-05,0.00028,6,19
29189,2e-05,0,-8e-05,-0.00014,-0.00015,-4e-05,6e-05,0.00028,6,19
29190,2e-05,0,-8e-05,-0.00014,-0.00015,-4e-05,6e-05,0.00028,6,19
29191,2e-05,0,-8e-05,-0.00014,-0.00015,-4e-05,6e-05,0.00028,6,19
29192,2e-05,0,-8e-05,-0.00014,-0.00015,-4e-05,6e-05,0.00028,6,19
29193,2e-05,0,-8e-05,-0.00014,-0.00015,-4e-05,6e-05,0.00028,6,19
29194,2e-05,0,-8e-05,-0.00014,-0.00015,-4e-05,6e-05,0.00028,6,19
29195,2e-05,0,-8e-05,-0.00014,-0.00015,-4e-05,6e-05,0.00028,6,19
29196,2e-05,0,-8e-05,-0.00014,-0.00015,-4e-05,6e-05,0.00028,6,19
29197,2e-05,0,-8e-05,-0.00014,-0.00015,-4e-05,6e-05,0.00028,6,19
29198,2e-05,0,-8e-05,-0.00014,-0.00015,-4e-05,6e-05,0.00028,6,19
29199,-2e-05,-6e-05,-0.0001,-0.00012,-0.00051,4e-05,1e-05,-0.00012,6,19
29200,-2e-05,-6e-05,-0.0001,-0.00012,-0.00051,4e-05,1e-05,-0.00012,6,19
29201,-2e-05,-6e-05,-0.0001,-0.00012,-0.00051,4e-05,1e-05,-0.00012,6,19
29202,-2e-05,-6e-05,-0.0001,-0.00012,-0.00051,4e-05,1e-05,-0.00012,6,19
29203,-2e-05,-6e-05,-0.0001,-0.00012,-0.00051,4e-05,1e-05,-0.00012,6,19
29204,-2e-05,-6e-05,-0.0001,-0.00012,-0.00051,4e-05,1e-05,-0.00012,6,19
29205,-2e-05,-6e-05,-0.0001,-0.00012,-0.00051,4e-05,1e-05,-0.00012,6,19
29206,-2e-05,-6e-05,-0.0001,-0.00012,-0.00051,4e-05,1e-05,-0.00012,6,19
29207,-2e-05,-6e-05,-0.0001,-0.00012,-0.00051,4e-05,1e-05,-0.00012,6,19
29208,-2e-05,-6e-05,-0.0001,-0.00012,-0.00051,4e-05,1e-05,-0.00012,6,19
29209,-2e-05,-6e-05,-0.0001,-0.00012,-0.00051,4e-05,1e-05,-0.00012,6,19
29210,-2e-05,-6e-05,-0.0001,-0.00012,-0.00051,4e-05,1e-05,-0.00012,6,19
29211,-2e-05,-6e-05,-0.0001,-0.00012,-0.00051,4e-05,1e-05,-0.00012,6,19
29212,-2e-05,-6e-05,-0.0001,-0.00012,-0.00051,4e-05,1e-05,-0.00012,6,19
29213,-4e-05,-5e-05,1e-05,-3e-05,-0.00035,1e-05,-4e-05,-2e-05,6,19
29214,8e-05,8e-05,7e-05,0.0002,0.00046,0.00018,5e-05,6e-05,6,19
29215,8e-05,8e-05,7e-05,0.0002,0.00046,0.00018,5e-05,6e-05,6,19
29216,8e-05,8e-05,7e-05,0.0002,0.00046,0.00018,5e-05,6e-05,6,19
29217,8e-05,8e-05,7e-05,0.0002,0.00046,0.00018,5e-05,6e-05,6,19
29218,8e-05,8e-05,7e-05,0.0002,0.00046,0.00018,5e-05,6e-05,6,19
29219,8e-05,8e-05,7e-05,0.0002,0.00046,0.00018,5e-05,6e-05,6,19
29220,8e-05,8e-05,7e-05,0.0002,0.00046,0.00018,5e-05,6e-05,6,19
29221,8e-05,8e-05,7e-05,0.0002,0.00046,0.00018,5e-05,6e-05,6,19
29222,8e-05,8e-05,7e-05,0.0002,0.00046,0.00018,5e-05,6e-05,6,19
29223,8e-05,8e-05,7e-05,0.0002,0.00046,0.00018,5e-05,6e-05,6,19
29224,8e-05,8e-05,7e-05,0.0002,0.00046,0.00018,5e-05,6e-05,6,19
29225,8e-05,8e-05,7e-05,0.0002,0.00046,0.00018,5e-05,6e-05,6,19
29226,8e-05,8e-05,7e-05,0.0002,0.00046,0.00018,5e-05,6e-05,6,19
29227,8e-05,8e-05,7e-05,0.0002,0.00046,0.00018,5e-05,6e-05,6,19
29228,3e-05,-2e-05,-7e-05,-0.0001,-4e-05,-0.00014,-0.00011,-0.00011,6,19
29229,3e-05,-2e-05,-7e-05,-0.0001,-4e-05,-0.00014,-0.00011,-0.00011,6,19
29230,3e-05,-2e-05,-7e-05,-0.0001,-4e-05,-0.00014,-0.00011,-0.00011,6,19
29231,3e-05,-2e-05,-7e-05,-0.0001,-4e-05,-0.00014,-0.00011,-0.00011,6,19
29232,3e-05,-2e-05,-7e-05,-0.0001,-4e-05,-0.00014,-0.00011,-0.00011,6,19
29233,3e-05,-2e-05,-7e-05,-0.0001,-4e-05,-0.00014,-0.00011,-0.00011,6,19
29234,3e-05,-2e-05,-7e-05,-0.0001,-4e-05,-0.00014,-0.00011,-0.00011,6,19
29235,-5e-05,-5e-05,-8e-05,-9e-05,-0.0001,-0.00013,-0.0001,-0.00011,6,19
29236,6e-05,0,2e-05,7e-05,-0.0002,-0.00023,-9e-05,-0.00015,6,19
29239,6e-05,0,2e-05,7e-05,-0.0002,-0.00023,-9e-05,-0.00015,6,19
29240,6e-05,0,2e-05,7e-05,-0.0002,-0.00023,-9e-05,-0.00015,6,19
29241,6e-05,0,2e-05,7e-05,-0.0002,-0.00023,-9e-05,-0.00015,6,19
29242,6e-05,0,2e-05,7e-05,-0.0002,-0.00023,-9e-05,-0.00015,6,19
29243,6e-05,0,2e-05,7e-05,-0.0002,-0.00023,-9e-05,-0.00015,6,19
29244,6e-05,0,2e-05,7e-05,-0.0002,-0.00023,-9e-05,-0.00015,6,19
29245,6e-05,0,2e-05,7e-05,-0.0002,-0.00023,-9e-05,-0.00015,6,19
29246,6e-05,0,2e-05,7e-05,-0.0002,-0.00023,-9e-05,-0.00015,6,19
29247,6e-05,0,2e-05,7e-05,-0.0002,-0.00023,-9e-05,-0.00015,6,19
29248,6e-05,0,2e-05,7e-05,-0.0002,-0.00023,-9e-05,-0.00015,6,19
29249,6e-05,0,2e-05,7e-05,-0.0002,-0.00023,-9e-05,-0.00015,6,19
29250,-0.00012,-3e-05,0,3e-05,-5e-05,-6e-05,-5e-05,-0.00064,6,19
29251,0,-2e-05,-5e-05,-0.00011,-0.00031,-7e-05,5e-05,3e-05,6,19
29252,0,-2e-05,-5e-05,-0.00011,-0.00031,-7e-05,5e-05,3e-05,6,19
29253,0,-2e-05,-5e-05,-0.00011,-0.00031,-7e-05,5e-05,3e-05,6,19
29254,0,-2e-05,-5e-05,-0.00011,-0.00031,-7e-05,5e-05,3e-05,6,19
29255,0,-2e-05,-5e-05,-0.00011,-0.00031,-7e-05,5e-05,3e-05,6,19
29256,0,-2e-05,-5e-05,-0.00011,-0.00031,-7e-05,5e-05,3e-05,6,19
29257,0,-2e-05,-5e-05,-0.00011,-0.00031,-7e-05,5e-05,3e-05,6,19
29258,0,-2e-05,-5e-05,-0.00011,-0.00031,-7e-05,5e-05,3e-05,6,19
29259,0,-2e-05,-5e-05,-0.00011,-0.00031,-7e-05,5e-05,3e-05,6,19
29260,0,-2e-05,-5e-05,-0.00011,-0.00031,-7e-05,5e-05,3e-05,6,19
29261,0,-2e-05,-5e-05,-0.00011,-0.00031,-7e-05,5e-05,3e-05,6,19
29262,0,-2e-05,-5e-05,-0.00011,-0.00031,-7e-05,5e-05,3e-05,6,19
29263,0,-2e-05,-5e-05,-0.00011,-0.00031,-7e-05,5e-05,3e-05,6,19
29264,0,-2e-05,-5e-05,-0.00011,-0.00031,-7e-05,5e-05,3e-05,6,19
29265,0,-2e-05,-5e-05,-0.00011,-0.00031,-7e-05,5e-05,3e-05,6,19
29266,0,-2e-05,-5e-05,-0.00011,-0.00031,-7e-05,5e-05,3e-05,6,19
29267,0,-2e-05,-5e-05,-0.00011,-0.00031,-7e-05,5e-05,3e-05,6,19
29268,0,-2e-05,-5e-05,-0.00011,-0.00031,-7e-05,5e-05,3e-05,6,19
29269,0,-2e-05,-5e-05,-0.00011,-0.00031,-7e-05,5e-05,3e-05,6,19
29270,0,-2e-05,-5e-05,-0.00011,-0.00031,-7e-05,5e-05,3e-05,6,19
29271,0,-2e-05,-5e-05,-0.00011,-0.00031,-7e-05,5e-05,3e-05,6,19
29272,0,-2e-05,-5e-05,-0.00011,-0.00031,-7e-05,5e-05,3e-05,6,19
29273,-5e-05,-2e-05,-4e-05,-0.00013,-8e-05,-0.0001,9e-05,0,6,19
29274,-0.00012,0,2e-05,0.00027,0.00036,0.00014,-4e-05,-0.00015,6,19
29275,-0.00012,0,2e-05,0.00027,0.00036,0.00014,-4e-05,-0.00015,6,19
29276,-0.00012,0,2e-05,0.00027,0.00036,0.00014,-4e-05,-0.00015,6,19
29277,-0.00012,0,2e-05,0.00027,0.00036,0.00014,-4e-05,-0.00015,6,19
29278,-0.00012,0,2e-05,0.00027,0.00036,0.00014,-4e-05,-0.00015,6,19
29279,-0.00012,0,2e-05,0.00027,0.00036,0.00014,-4e-05,-0.00015,6,19
29280,-0.00012,0,2e-05,0.00027,0.00036,0.00014,-4e-05,-0.00015,6,19
29281,-0.00012,0,2e-05,0.00027,0.00036,0.00014,-4e-05,-0.00015,6,19
29282,-0.00012,0,2e-05,0.00027,0.00036,0.00014,-4e-05,-0.00015,6,19
29283,-0.00012,0,2e-05,0.00027,0.00036,0.00014,-4e-05,-0.00015,6,19
29284,-0.00012,0,2e-05,0.00027,0.00036,0.00014,-4e-05,-0.00015,6,19
29285,-0.00012,0,2e-05,0.00027,0.00036,0.00014,-4e-05,-0.00015,6,19
29286,-0.00012,0,2e-05,0.00027,0.00036,0.00014,-4e-05,-0.00015,6,19
29289,0.00011,3e-05,9e-05,0.00034,0.00047,0.00032,0,0.00048,6,19
29290,0.00011,3e-05,9e-05,0.00034,0.00047,0.00032,0,0.00048,6,19
29291,0.00011,3e-05,9e-05,0.00034,0.00047,0.00032,0,0.00048,6,19
29292,0.00011,3e-05,9e-05,0.00034,0.00047,0.00032,0,0.00048,6,19
29293,0.00011,3e-05,9e-05,0.00034,0.00047,0.00032,0,0.00048,6,19
29294,0.00011,3e-05,9e-05,0.00034,0.00047,0.00032,0,0.00048,6,19
29295,0.00011,3e-05,9e-05,0.00034,0.00047,0.00032,0,0.00048,6,19
29296,0.00011,3e-05,9e-05,0.00034,0.00047,0.00032,0,0.00048,6,19
29297,0.00011,3e-05,9e-05,0.00034,0.00047,0.00032,0,0.00048,6,19
29298,0.00011,3e-05,9e-05,0.00034,0.00047,0.00032,0,0.00048,6,19
29299,0.00011,3e-05,9e-05,0.00034,0.00047,0.00032,0,0.00048,6,19
29300,0.00011,3e-05,9e-05,0.00034,0.00047,0.00032,0,0.00048,6,19
29301,0.00011,3e-05,9e-05,0.00034,0.00047,0.00032,0,0.00048,6,19
29302,0.00011,3e-05,9e-05,0.00034,0.00047,0.00032,0,0.00048,6,19
29303,0.00011,3e-05,9e-05,0.00034,0.00047,0.00032,0,0.00048,6,19
29304,0.00011,3e-05,9e-05,0.00034,0.00047,0.00032,0,0.00048,6,19
29305,0.00011,3e-05,9e-05,0.00034,0.00047,0.00032,0,0.00048,6,19
29306,0.00011,3e-05,9e-05,0.00034,0.00047,0.00032,0,0.00048,6,19
29307,0.00011,3e-05,9e-05,0.00034,0.00047,0.00032,0,0.00048,6,19
29308,0.00011,3e-05,9e-05,0.00034,0.00047,0.00032,0,0.00048,6,19
29309,0.00011,3e-05,9e-05,0.00034,0.00047,0.00032,0,0.00048,6,19
29310,0.00011,3e-05,9e-05,0.00034,0.00047,0.00032,0,0.00048,6,19
29311,0.00011,3e-05,9e-05,0.00034,0.00047,0.00032,0,0.00048,6,19
29312,0.00011,3e-05,9e-05,0.00034,0.00047,0.00032,0,0.00048,6,19
29313,0.00011,3e-05,9e-05,0.00034,0.00047,0.00032,0,0.00048,6,19
29314,0.00011,3e-05,9e-05,0.00034,0.00047,0.00032,0,0.00048,6,19
29315,0.00011,3e-05,9e-05,0.00034,0.00047,0.00032,0,0.00048,6,19
29316,0.00011,3e-05,9e-05,0.00034,0.00047,0.00032,0,0.00048,6,19
29317,0.00011,3e-05,9e-05,0.00034,0.00047,0.00032,0,0.00048,6,19
29318,1e-05,0,-3e-05,-0.00014,-0.00102,-0.00019,9e-05,-1e-05,6,19
29319,-3e-05,-3e-05,-7e-05,-0.00023,5e-05,-0.00027,-2e-05,0.00021,6,19
29320,-3e-05,-3e-05,-7e-05,-0.00023,5e-05,-0.00027,-2e-05,0.00021,6,19
29321,-3e-05,-3e-05,-7e-05,-0.00023,5e-05,-0.00027,-2e-05,0.00021,6,19
29322,-3e-05,-3e-05,-7e-05,-0.00023,5e-05,-0.00027,-2e-05,0.00021,6,19
29323,-3e-05,-3e-05,-7e-05,-0.00023,5e-05,-0.00027,-2e-05,0.00021,6,19
29324,-3e-05,-3e-05,-7e-05,-0.00023,5e-05,-0.00027,-2e-05,0.00021,6,19
29325,-3e-05,-3e-05,-7e-05,-0.00023,5e-05,-0.00027,-2e-05,0.00021,6,19
29326,-3e-05,-3e-05,-7e-05,-0.00023,5e-05,-0.00027,-2e-05,0.00021,6,19
29327,-3e-05,-3e-05,-7e-05,-0.00023,5e-05,-0.00027,-2e-05,0.00021,6,19
29328,-3e-05,-3e-05,-7e-05,-0.00023,5e-05,-0.00027,-2e-05,0.00021,6,19
29329,-3e-05,-3e-05,-7e-05,-0.00023,5e-05,-0.00027,-2e-05,0.00021,6,19
29330,-3e-05,-3e-05,-7e-05,-0.00023,5e-05,-0.00027,-2e-05,0.00021,6,19
29331,-3e-05,-3e-05,-7e-05,-0.00023,5e-05,-0.00027,-2e-05,0.00021,6,19
29332,-3e-05,-3e-05,-7e-05,-0.00023,5e-05,-0.00027,-2e-05,0.00021,6,19
29333,0.00012,0,-2e-05,-0.00015,-0.00032,-0.00022,-7e-05,-6e-05,6,19
29334,-2e-05,4e-05,3e-05,-0.00013,4e-05,-7e-05,7e-05,-0.0002,6,19
29335,-2e-05,4e-05,3e-05,-0.00013,4e-05,-7e-05,7e-05,-0.0002,6,19
29336,-2e-05,4e-05,3e-05,-0.00013,4e-05,-7e-05,7e-05,-0.0002,6,19
29338,-2e-05,4e-05,3e-05,-0.00013,4e-05,-7e-05,7e-05,-0.0002,6,19
29339,-2e-05,4e-05,3e-05,-0.00013,4e-05,-7e-05,7e-05,-0.0002,6,19
29340,-2e-05,4e-05,3e-05,-0.00013,4e-05,-7e-05,7e-05,-0.0002,6,19
29341,-2e-05,4e-05,3e-05,-0.00013,4e-05,-7e-05,7e-05,-0.0002,6,19
29342,-2e-05,4e-05,3e-05,-0.00013,4e-05,-7e-05,7e-05,-0.0002,6,19
29343,-2e-05,4e-05,3e-05,-0.00013,4e-05,-7e-05,7e-05,-0.0002,6,19
29344,-2e-05,4e-05,3e-05,-0.00013,4e-05,-7e-05,7e-05,-0.0002,6,19
29345,-2e-05,4e-05,3e-05,-0.00013,4e-05,-7e-05,7e-05,-0.0002,6,19
29346,-2e-05,4e-05,3e-05,-0.00013,4e-05,-7e-05,7e-05,-0.0002,6,19
29347,-2e-05,4e-05,3e-05,-0.00013,4e-05,-7e-05,7e-05,-0.0002,6,19
29348,-0.00014,-0.0001,-6e-05,-0.00012,-7e-05,-0.00017,4e-05,-0.00018,6,19
29349,-8e-05,2e-05,1e-05,-2e-05,-0.00013,-6e-05,0,-0.00017,6,19
29350,-8e-05,2e-05,1e-05,-2e-05,-0.00013,-6e-05,0,-0.00017,6,19
29351,-8e-05,2e-05,1e-05,-2e-05,-0.00013,-6e-05,0,-0.00017,6,19
29352,-8e-05,2e-05,1e-05,-2e-05,-0.00013,-6e-05,0,-0.00017,6,19
29353,-8e-05,2e-05,1e-05,-2e-05,-0.00013,-6e-05,0,-0.00017,6,19
29354,-8e-05,2e-05,1e-05,-2e-05,-0.00013,-6e-05,0,-0.00017,6,19
29355,-8e-05,2e-05,1e-05,-2e-05,-0.00013,-6e-05,0,-0.00017,6,19
29356,-8e-05,2e-05,1e-05,-2e-05,-0.00013,-6e-05,0,-0.00017,6,19
29357,-8e-05,2e-05,1e-05,-2e-05,-0.00013,-6e-05,0,-0.00017,6,19
29358,-8e-05,2e-05,1e-05,-2e-05,-0.00013,-6e-05,0,-0.00017,6,19
29359,-8e-05,2e-05,1e-05,-2e-05,-0.00013,-6e-05,0,-0.00017,6,19
29360,-8e-05,2e-05,1e-05,-2e-05,-0.00013,-6e-05,0,-0.00017,6,19
29361,-8e-05,2e-05,1e-05,-2e-05,-0.00013,-6e-05,0,-0.00017,6,19
29362,-8e-05,2e-05,1e-05,-2e-05,-0.00013,-6e-05,0,-0.00017,6,19
29363,-8e-05,2e-05,1e-05,-2e-05,-0.00013,-6e-05,0,-0.00017,6,19
29364,-8e-05,2e-05,1e-05,-2e-05,-0.00013,-6e-05,0,-0.00017,6,19
29365,-8e-05,2e-05,1e-05,-2e-05,-0.00013,-6e-05,0,-0.00017,6,19
29366,-8e-05,2e-05,1e-05,-2e-05,-0.00013,-6e-05,0,-0.00017,6,19
29367,-8e-05,2e-05,1e-05,-2e-05,-0.00013,-6e-05,0,-0.00017,6,19
29368,-8e-05,2e-05,1e-05,-2e-05,-0.00013,-6e-05,0,-0.00017,6,19
29369,-8e-05,2e-05,1e-05,-2e-05,-0.00013,-6e-05,0,-0.00017,6,19
29370,0,-1e-05,-1e-05,8e-05,0.00019,3e-05,3e-05,6e-05,6,19
29371,0,-5e-05,3e-05,0,0,-7e-05,-0.00018,-0.00025,6,19
29372,0,-5e-05,3e-05,0,0,-7e-05,-0.00018,-0.00025,6,19
29373,0,-5e-05,3e-05,0,0,-7e-05,-0.00018,-0.00025,6,19
29374,0,-5e-05,3e-05,0,0,-7e-05,-0.00018,-0.00025,6,19
29375,0,-5e-05,3e-05,0,0,-7e-05,-0.00018,-0.00025,6,19
29376,0,-5e-05,3e-05,0,0,-7e-05,-0.00018,-0.00025,6,19
29377,0,-5e-05,3e-05,0,0,-7e-05,-0.00018,-0.00025,6,19
29378,0,-5e-05,3e-05,0,0,-7e-05,-0.00018,-0.00025,6,19
29379,0,-5e-05,3e-05,0,0,-7e-05,-0.00018,-0.00025,6,19
29380,0,-5e-05,3e-05,0,0,-7e-05,-0.00018,-0.00025,6,19
29381,0,-5e-05,3e-05,0,0,-7e-05,-0.00018,-0.00025,6,19
29382,0,-5e-05,3e-05,0,0,-7e-05,-0.00018,-0.00025,6,19
29383,0,-5e-05,3e-05,0,0,-7e-05,-0.00018,-0.00025,6,19
29384,0,-5e-05,3e-05,0,0,-7e-05,-0.00018,-0.00025,6,19
29385,0,-5e-05,3e-05,0,0,-7e-05,-0.00018,-0.00025,6,19
29386,0,-5e-05,3e-05,0,0,-7e-05,-0.00018,-0.00025,6,19
29388,0,-5e-05,3e-05,0,0,-7e-05,-0.00018,-0.00025,6,19
29389,0,-5e-05,3e-05,0,0,-7e-05,-0.00018,-0.00025,6,19
29390,0,-5e-05,3e-05,0,0,-7e-05,-0.00018,-0.00025,6,19
29391,0,-5e-05,3e-05,0,0,-7e-05,-0.00018,-0.00025,6,19
29392,0,-5e-05,3e-05,0,0,-7e-05,-0.00018,-0.00025,6,19
29393,2e-05,2e-05,-0.0001,-1e-05,0.00017,-7e-05,-8e-05,0.00037,6,19
29394,-3e-05,1e-05,0,-0.00012,-2e-05,0.00013,0.00015,7e-05,6,19
29395,-3e-05,1e-05,0,-0.00012,-2e-05,0.00013,0.00015,7e-05,6,19
29396,-3e-05,1e-05,0,-0.00012,-2e-05,0.00013,0.00015,7e-05,6,19
29397,-3e-05,1e-05,0,-0.00012,-2e-05,0.00013,0.00015,7e-05,6,19
29398,-3e-05,1e-05,0,-0.00012,-2e-05,0.00013,0.00015,7e-05,6,19
29399,-3e-05,1e-05,0,-0.00012,-2e-05,0.00013,0.00015,7e-05,6,19
29400,-3e-05,1e-05,0,-0.00012,-2e-05,0.00013,0.00015,7e-05,6,19
29401,-3e-05,1e-05,0,-0.00012,-2e-05,0.00013,0.00015,7e-05,6,19
29402,-3e-05,1e-05,0,-0.00012,-2e-05,0.00013,0.00015,7e-05,6,19
29403,-3e-05,1e-05,0,-0.00012,-2e-05,0.00013,0.00015,7e-05,6,19
29404,-3e-05,1e-05,0,-0.00012,-2e-05,0.00013,0.00015,7e-05,6,19
29405,-3e-05,1e-05,0,-0.00012,-2e-05,0.00013,0.00015,7e-05,6,19
29406,-3e-05,1e-05,0,-0.00012,-2e-05,0.00013,0.00015,7e-05,6,19
29407,-3e-05,1e-05,0,-0.00012,-2e-05,0.00013,0.00015,7e-05,6,19
29408,4e-05,4e-05,7e-05,9e-05,-6e-05,-4e-05,4e-05,-0.00011,6,19
29409,0.0001,0,-7e-05,-0.00017,-0.00042,-7e-05,-0.00015,-0.00013,6,19
29410,0.0001,0,-7e-05,-0.00017,-0.00042,-7e-05,-0.00015,-0.00013,6,19
29411,0.0001,0,-7e-05,-0.00017,-0.00042,-7e-05,-0.00015,-0.00013,6,19
29412,0.0001,0,-7e-05,-0.00017,-0.00042,-7e-05,-0.00015,-0.00013,6,19
29413,0.0001,0,-7e-05,-0.00017,-0.00042,-7e-05,-0.00015,-0.00013,6,19
29414,0.0001,0,-7e-05,-0.00017,-0.00042,-7e-05,-0.00015,-0.00013,6,19
29415,0.0001,0,-7e-05,-0.00017,-0.00042,-7e-05,-0.00015,-0.00013,6,19
29416,0.0001,0,-7e-05,-0.00017,-0.00042,-7e-05,-0.00015,-0.00013,6,19
29417,0.0001,0,-7e-05,-0.00017,-0.00042,-7e-05,-0.00015,-0.00013,6,19
29418,0.0001,0,-7e-05,-0.00017,-0.00042,-7e-05,-0.00015,-0.00013,6,19
29419,0.0001,0,-7e-05,-0.00017,-0.00042,-7e-05,-0.00015,-0.00013,6,19
29420,0.0001,0,-7e-05,-0.00017,-0.00042,-7e-05,-0.00015,-0.00013,6,19
29421,0.0001,0,-7e-05,-0.00017,-0.00042,-7e-05,-0.00015,-0.00013,6,19
29422,0.0001,0,-7e-05,-0.00017,-0.00042,-7e-05,-0.00015,-0.00013,6,19
29423,0.0001,0,-7e-05,-0.00017,-0.00042,-7e-05,-0.00015,-0.00013,6,19
29424,0.0001,0,-7e-05,-0.00017,-0.00042,-7e-05,-0.00015,-0.00013,6,19
29425,0.0001,0,-7e-05,-0.00017,-0.00042,-7e-05,-0.00015,-0.00013,6,19
29426,0.0001,0,-7e-05,-0.00017,-0.00042,-7e-05,-0.00015,-0.00013,6,19
29427,0.0001,0,-7e-05,-0.00017,-0.00042,-7e-05,-0.00015,-0.00013,6,19
29428,0.0001,0,-7e-05,-0.00017,-0.00042,-7e-05,-0.00015,-0.00013,6,19
29429,0.0001,0,-7e-05,-0.00017,-0.00042,-7e-05,-0.00015,-0.00013,6,19
29430,0.0001,0,-7e-05,-0.00017,-0.00042,-7e-05,-0.00015,-0.00013,6,19
29431,0.0001,0,-7e-05,-0.00017,-0.00042,-7e-05,-0.00015,-0.00013,6,19
29432,0.0001,0,-7e-05,-0.00017,-0.00042,-7e-05,-0.00015,-0.00013,6,19
29433,0.0001,0,-7e-05,-0.00017,-0.00042,-7e-05,-0.00015,-0.00013,6,19
29434,0.0001,0,-7e-05,-0.00017,-0.00042,-7e-05,-0.00015,-0.00013,6,19
29435,0.0001,0,-7e-05,-0.00017,-0.00042,-7e-05,-0.00015,-0.00013,6,19
29436,0.0001,0,-7e-05,-0.00017,-0.00042,-7e-05,-0.00015,-0.00013,6,19
29439,8e-05,2e-05,6e-05,0.00022,2e-05,-2e-05,-4e-05,-0.00011,6,19
29440,8e-05,2e-05,6e-05,0.00022,2e-05,-2e-05,-4e-05,-0.00011,6,19
29441,8e-05,2e-05,6e-05,0.00022,2e-05,-2e-05,-4e-05,-0.00011,6,19
29442,8e-05,2e-05,6e-05,0.00022,2e-05,-2e-05,-4e-05,-0.00011,6,19
29443,8e-05,2e-05,6e-05,0.00022,2e-05,-2e-05,-4e-05,-0.00011,6,19
29444,8e-05,2e-05,6e-05,0.00022,2e-05,-2e-05,-4e-05,-0.00011,6,19
29445,8e-05,2e-05,6e-05,0.00022,2e-05,-2e-05,-4e-05,-0.00011,6,19
29446,8e-05,2e-05,6e-05,0.00022,2e-05,-2e-05,-4e-05,-0.00011,6,19
29447,8e-05,2e-05,6e-05,0.00022,2e-05,-2e-05,-4e-05,-0.00011,6,19
29448,8e-05,2e-05,6e-05,0.00022,2e-05,-2e-05,-4e-05,-0.00011,6,19
29449,8e-05,2e-05,6e-05,0.00022,2e-05,-2e-05,-4e-05,-0.00011,6,19
29450,8e-05,2e-05,6e-05,0.00022,2e-05,-2e-05,-4e-05,-0.00011,6,19
29451,8e-05,2e-05,6e-05,0.00022,2e-05,-2e-05,-4e-05,-0.00011,6,19
29452,8e-05,2e-05,6e-05,0.00022,2e-05,-2e-05,-4e-05,-0.00011,6,19
29453,4e-05,4e-05,-7e-05,-0.00011,-5e-05,-2e-05,-2e-05,-0.00013,6,19
29454,-0.0001,-7e-05,-0.00012,-2e-05,0.00042,-6e-05,2e-05,-0.00036,6,19
29455,-0.0001,-7e-05,-0.00012,-2e-05,0.00042,-6e-05,2e-05,-0.00036,6,19
29456,-0.0001,-7e-05,-0.00012,-2e-05,0.00042,-6e-05,2e-05,-0.00036,6,19
29457,-0.0001,-7e-05,-0.00012,-2e-05,0.00042,-6e-05,2e-05,-0.00036,6,19
29458,-0.0001,-7e-05,-0.00012,-2e-05,0.00042,-6e-05,2e-05,-0.00036,6,19
29459,-0.0001,-7e-05,-0.00012,-2e-05,0.00042,-6e-05,2e-05,-0.00036,6,19
29460,-0.0001,-7e-05,-0.00012,-2e-05,0.00042,-6e-05,2e-05,-0.00036,6,19
29461,-0.0001,-7e-05,-0.00012,-2e-05,0.00042,-6e-05,2e-05,-0.00036,6,19
29462,-0.0001,-7e-05,-0.00012,-2e-05,0.00042,-6e-05,2e-05,-0.00036,6,19
29463,-0.0001,-7e-05,-0.00012,-2e-05,0.00042,-6e-05,2e-05,-0.00036,6,19
29464,-0.0001,-7e-05,-0.00012,-2e-05,0.00042,-6e-05,2e-05,-0.00036,6,19
29465,-0.0001,-7e-05,-0.00012,-2e-05,0.00042,-6e-05,2e-05,-0.00036,6,19
29466,-0.0001,-7e-05,-0.00012,-2e-05,0.00042,-6e-05,2e-05,-0.00036,6,19
29467,-0.0001,-7e-05,-0.00012,-2e-05,0.00042,-6e-05,2e-05,-0.00036,6,19
29468,2e-05,1e-05,2e-05,0.00011,5e-05,-4e-05,9e-05,3e-05,6,19
29469,2e-05,1e-05,2e-05,0.00011,5e-05,-4e-05,9e-05,3e-05,6,19
29470,2e-05,1e-05,2e-05,0.00011,5e-05,-4e-05,9e-05,3e-05,6,19
29471,2e-05,1e-05,2e-05,0.00011,5e-05,-4e-05,9e-05,3e-05,6,19
29472,2e-05,1e-05,2e-05,0.00011,5e-05,-4e-05,9e-05,3e-05,6,19
29473,2e-05,1e-05,2e-05,0.00011,5e-05,-4e-05,9e-05,3e-05,6,19
29474,2e-05,1e-05,2e-05,0.00011,5e-05,-4e-05,9e-05,3e-05,6,19
29475,2e-05,-5e-05,-8e-05,-0.00035,-0.00062,-7e-05,-7e-05,-3e-05,6,19
29476,2e-05,-5e-05,-8e-05,-0.00035,-0.00062,-7e-05,-7e-05,-3e-05,6,19
29477,2e-05,-5e-05,-8e-05,-0.00035,-0.00062,-7e-05,-7e-05,-3e-05,6,19
29478,2e-05,-5e-05,-8e-05,-0.00035,-0.00062,-7e-05,-7e-05,-3e-05,6,19
29479,2e-05,-5e-05,-8e-05,-0.00035,-0.00062,-7e-05,-7e-05,-3e-05,6,19
29480,2e-05,-5e-05,-8e-05,-0.00035,-0.00062,-7e-05,-7e-05,-3e-05,6,19
29481,2e-05,-5e-05,-8e-05,-0.00035,-0.00062,-7e-05,-7e-05,-3e-05,6,19
29482,2e-05,-5e-05,-8e-05,-0.00035,-0.00062,-7e-05,-7e-05,-3e-05,6,19
29483,2e-05,-5e-05,-8e-05,-0.00035,-0.00062,-7e-05,-7e-05,-3e-05,6,19
29484,2e-05,-5e-05,-8e-05,-0.00035,-0.00062,-7e-05,-7e-05,-3e-05,6,19
29485,2e-05,-5e-05,-8e-05,-0.00035,-0.00062,-7e-05,-7e-05,-3e-05,6,19
29486,2e-05,-5e-05,-8e-05,-0.00035,-0.00062,-7e-05,-7e-05,-3e-05,6,19
29488,2e-05,-5e-05,-8e-05,-0.00035,-0.00062,-7e-05,-7e-05,-3e-05,6,19
29489,2e-05,-5e-05,-8e-05,-0.00035,-0.00062,-7e-05,-7e-05,-3e-05,6,19
29490,2e-05,-1e-05,3e-05,0.0003,0.00057,0,5e-05,0.00016,6,19
29491,-3e-05,-2e-05,-9e-05,-0.00024,-0.00053,-0.00011,-0.00013,3e-05,6,19
29493,-3e-05,-2e-05,-9e-05,-0.00024,-0.00053,-0.00011,-0.00013,3e-05,6,19
29494,-3e-05,-2e-05,-9e-05,-0.00024,-0.00053,-0.00011,-0.00013,3e-05,6,19
29495,-3e-05,-2e-05,-9e-05,-0.00024,-0.00053,-0.00011,-0.00013,3e-05,6,19
29496,-3e-05,-2e-05,-9e-05,-0.00024,-0.00053,-0.00011,-0.00013,3e-05,6,19
29497,-3e-05,-2e-05,-9e-05,-0.00024,-0.00053,-0.00011,-0.00013,3e-05,6,19
29499,-3e-05,-2e-05,-9e-05,-0.00024,-0.00053,-0.00011,-0.00013,3e-05,6,19
29500,-3e-05,-2e-05,-9e-05,-0.00024,-0.00053,-0.00011,-0.00013,3e-05,6,19
29501,-3e-05,-2e-05,-9e-05,-0.00024,-0.00053,-0.00011,-0.00013,3e-05,6,19
29502,-3e-05,-2e-05,-9e-05,-0.00024,-0.00053,-0.00011,-0.00013,3e-05,6,19
29503,-3e-05,-2e-05,-9e-05,-0.00024,-0.00053,-0.00011,-0.00013,3e-05,6,19
29504,-3e-05,-2e-05,-9e-05,-0.00024,-0.00053,-0.00011,-0.00013,3e-05,6,19
29505,-3e-05,-2e-05,-9e-05,-0.00024,-0.00053,-0.00011,-0.00013,3e-05,6,19
29506,-3e-05,-2e-05,-9e-05,-0.00024,-0.00053,-0.00011,-0.00013,3e-05,6,19
29507,-3e-05,-2e-05,-9e-05,-0.00024,-0.00053,-0.00011,-0.00013,3e-05,6,19
29508,-3e-05,-2e-05,-9e-05,-0.00024,-0.00053,-0.00011,-0.00013,3e-05,6,19
29509,-3e-05,-2e-05,-9e-05,-0.00024,-0.00053,-0.00011,-0.00013,3e-05,6,19
29510,-3e-05,-2e-05,-9e-05,-0.00024,-0.00053,-0.00011,-0.00013,3e-05,6,19
29511,-3e-05,-2e-05,-9e-05,-0.00024,-0.00053,-0.00011,-0.00013,3e-05,6,19
29512,-3e-05,-2e-05,-9e-05,-0.00024,-0.00053,-0.00011,-0.00013,3e-05,6,19
29513,-2e-05,1e-05,3e-05,1e-05,0.00023,-7e-05,-3e-05,4e-05,6,19
29514,-0.00012,-3e-05,-3e-05,-9e-05,-0.00022,0.00011,0.00024,0.0002,6,19
29515,-0.00012,-3e-05,-3e-05,-9e-05,-0.00022,0.00011,0.00024,0.0002,6,19
29516,-0.00012,-3e-05,-3e-05,-9e-05,-0.00022,0.00011,0.00024,0.0002,6,19
29517,-0.00012,-3e-05,-3e-05,-9e-05,-0.00022,0.00011,0.00024,0.0002,6,19
29518,-0.00012,-3e-05,-3e-05,-9e-05,-0.00022,0.00011,0.00024,0.0002,6,19
29519,-0.00012,-3e-05,-3e-05,-9e-05,-0.00022,0.00011,0.00024,0.0002,6,19
29520,-0.00012,-3e-05,-3e-05,-9e-05,-0.00022,0.00011,0.00024,0.0002,6,19
29521,-0.00012,-3e-05,-3e-05,-9e-05,-0.00022,0.00011,0.00024,0.0002,6,19
29522,-0.00012,-3e-05,-3e-05,-9e-05,-0.00022,0.00011,0.00024,0.0002,6,19
29523,-0.00012,-3e-05,-3e-05,-9e-05,-0.00022,0.00011,0.00024,0.0002,6,19
29524,-0.00012,-3e-05,-3e-05,-9e-05,-0.00022,0.00011,0.00024,0.0002,6,19
29525,-0.00012,-3e-05,-3e-05,-9e-05,-0.00022,0.00011,0.00024,0.0002,6,19
29526,-0.00012,-3e-05,-3e-05,-9e-05,-0.00022,0.00011,0.00024,0.0002,6,19
29527,-0.00012,-3e-05,-3e-05,-9e-05,-0.00022,0.00011,0.00024,0.0002,6,19
29528,1e-05,0,2e-05,3e-05,-0.0002,0,-4e-05,-4e-05,6,19
29529,-3e-05,-2e-05,-0.00013,4e-05,0.0002,-4e-05,-2e-05,3e-05,6,19
29530,-3e-05,-2e-05,-0.00013,4e-05,0.0002,-4e-05,-2e-05,3e-05,6,19
29531,-3e-05,-2e-05,-0.00013,4e-05,0.0002,-4e-05,-2e-05,3e-05,6,19
29532,-3e-05,-2e-05,-0.00013,4e-05,0.0002,-4e-05,-2e-05,3e-05,6,19
29533,-3e-05,-2e-05,-0.00013,4e-05,0.0002,-4e-05,-2e-05,3e-05,6,19
29534,-3e-05,-2e-05,-0.00013,4e-05,0.0002,-4e-05,-2e-05,3e-05,6,19
29535,-3e-05,-2e-05,-0.00013,4e-05,0.0002,-4e-05,-2e-05,3e-05,6,19
29536,-3e-05,-2e-05,-0.00013,4e-05,0.0002,-4e-05,-2e-05,3e-05,6,19
29538,-3e-05,-2e-05,-0.00013,4e-05,0.0002,-4e-05,-2e-05,3e-05,6,19
29540,-3e-05,-2e-05,-0.00013,4e-05,0.0002,-4e-05,-2e-05,3e-05,6,19
29541,-3e-05,-2e-05,-0.00013,4e-05,0.0002,-4e-05,-2e-05,3e-05,6,19
29542,-3e-05,-2e-05,-0.00013,4e-05,0.0002,-4e-05,-2e-05,3e-05,6,19
29543,-3e-05,-2e-05,-0.00013,4e-05,0.0002,-4e-05,-2e-05,3e-05,6,19
29544,-3e-05,-2e-05,-0.00013,4e-05,0.0002,-4e-05,-2e-05,3e-05,6,19
29545,-3e-05,-2e-05,-0.00013,4e-05,0.0002,-4e-05,-2e-05,3e-05,6,19
29546,-3e-05,-2e-05,-0.00013,4e-05,0.0002,-4e-05,-2e-05,3e-05,6,19
29547,-3e-05,-2e-05,-0.00013,4e-05,0.0002,-4e-05,-2e-05,3e-05,6,19
29548,-3e-05,-2e-05,-0.00013,4e-05,0.0002,-4e-05,-2e-05,3e-05,6,19
29549,-3e-05,-2e-05,-0.00013,4e-05,0.0002,-4e-05,-2e-05,3e-05,6,19
29550,-4e-05,-3e-05,-3e-05,-8e-05,0.00014,9e-05,-3e-05,-3e-05,6,19
29551,-4e-05,-3e-05,-3e-05,-8e-05,0.00014,9e-05,-3e-05,-3e-05,6,19
29552,-4e-05,-3e-05,-3e-05,-8e-05,0.00014,9e-05,-3e-05,-3e-05,6,19
29553,-4e-05,-3e-05,-3e-05,-8e-05,0.00014,9e-05,-3e-05,-3e-05,6,19
29554,-4e-05,-3e-05,-3e-05,-8e-05,0.00014,9e-05,-3e-05,-3e-05,6,19
29555,-4e-05,-3e-05,-3e-05,-8e-05,0.00014,9e-05,-3e-05,-3e-05,6,19
29556,-4e-05,-3e-05,-3e-05,-8e-05,0.00014,9e-05,-3e-05,-3e-05,6,19
29557,-4e-05,-3e-05,-3e-05,-8e-05,0.00014,9e-05,-3e-05,-3e-05,6,19
29558,5e-05,1e-05,2e-05,-8e-05,-0.00017,-9e-05,-2e-05,0.00017,6,19
29559,5e-05,1e-05,2e-05,-8e-05,-0.00017,-9e-05,-2e-05,0.00017,6,19
29560,5e-05,1e-05,2e-05,-8e-05,-0.00017,-9e-05,-2e-05,0.00017,6,19
29561,5e-05,1e-05,2e-05,-8e-05,-0.00017,-9e-05,-2e-05,0.00017,6,19
29562,5e-05,1e-05,2e-05,-8e-05,-0.00017,-9e-05,-2e-05,0.00017,6,19
29563,5e-05,1e-05,2e-05,-8e-05,-0.00017,-9e-05,-2e-05,0.00017,6,19
29564,5e-05,1e-05,2e-05,-8e-05,-0.00017,-9e-05,-2e-05,0.00017,6,19
29565,5e-05,1e-05,2e-05,-8e-05,-0.00017,-9e-05,-2e-05,0.00017,6,19
29566,5e-05,1e-05,2e-05,-8e-05,-0.00017,-9e-05,-2e-05,0.00017,6,19
29567,5e-05,1e-05,2e-05,-8e-05,-0.00017,-9e-05,-2e-05,0.00017,6,19
29568,5e-05,1e-05,2e-05,-8e-05,-0.00017,-9e-05,-2e-05,0.00017,6,19
29569,5e-05,1e-05,2e-05,-8e-05,-0.00017,-9e-05,-2e-05,0.00017,6,19
29570,5e-05,1e-05,2e-05,-8e-05,-0.00017,-9e-05,-2e-05,0.00017,6,19
29571,5e-05,1e-05,2e-05,-8e-05,-0.00017,-9e-05,-2e-05,0.00017,6,19
29572,5e-05,1e-05,2e-05,-8e-05,-0.00017,-9e-05,-2e-05,0.00017,6,19
29573,-4e-05,-7e-05,-3e-05,7e-05,8e-05,-0.00015,-3e-05,-0.00017,6,19
29574,1e-05,2e-05,6e-05,0.00013,0.00016,-1e-05,-6e-05,-0.00014,6,19
29575,1e-05,2e-05,6e-05,0.00013,0.00016,-1e-05,-6e-05,-0.00014,6,19
29576,1e-05,2e-05,6e-05,0.00013,0.00016,-1e-05,-6e-05,-0.00014,6,19
29577,1e-05,2e-05,6e-05,0.00013,0.00016,-1e-05,-6e-05,-0.00014,6,19
29578,1e-05,2e-05,6e-05,0.00013,0.00016,-1e-05,-6e-05,-0.00014,6,19
29579,1e-05,2e-05,6e-05,0.00013,0.00016,-1e-05,-6e-05,-0.00014,6,19
29580,1e-05,2e-05,6e-05,0.00013,0.00016,-1e-05,-6e-05,-0.00014,6,19
29581,1e-05,2e-05,6e-05,0.00013,0.00016,-1e-05,-6e-05,-0.00014,6,19
29582,1e-05,2e-05,6e-05,0.00013,0.00016,-1e-05,-6e-05,-0.00014,6,19
29583,1e-05,2e-05,6e-05,0.00013,0.00016,-1e-05,-6e-05,-0.00014,6,19
29584,1e-05,2e-05,6e-05,0.00013,0.00016,-1e-05,-6e-05,-0.00014,6,19
29585,1e-05,2e-05,6e-05,0.00013,0.00016,-1e-05,-6e-05,-0.00014,6,19
29586,1e-05,2e-05,6e-05,0.00013,0.00016,-1e-05,-6e-05,-0.00014,6,19
29588,1e-05,2e-05,6e-05,0.00013,0.00016,-1e-05,-6e-05,-0.00014,6,19
29589,1e-05,2e-05,6e-05,0.00013,0.00016,-1e-05,-6e-05,-0.00014,6,19
29590,1e-05,2e-05,6e-05,0.00013,0.00016,-1e-05,-6e-05,-0.00014,6,19
29591,1e-05,2e-05,6e-05,0.00013,0.00016,-1e-05,-6e-05,-0.00014,6,19
29592,1e-05,2e-05,6e-05,0.00013,0.00016,-1e-05,-6e-05,-0.00014,6,19
29593,1e-05,2e-05,6e-05,0.00013,0.00016,-1e-05,-6e-05,-0.00014,6,19
29594,1e-05,2e-05,6e-05,0.00013,0.00016,-1e-05,-6e-05,-0.00014,6,19
29595,1e-05,2e-05,6e-05,0.00013,0.00016,-1e-05,-6e-05,-0.00014,6,19
29596,1e-05,2e-05,6e-05,0.00013,0.00016,-1e-05,-6e-05,-0.00014,6,19
29597,1e-05,2e-05,6e-05,0.00013,0.00016,-1e-05,-6e-05,-0.00014,6,19
29598,-7e-05,-9e-05,-0.00015,-0.00019,-5e-05,-0.00015,-0.00021,-0.00029,6,19
29599,-0.00015,-3e-05,4e-05,8e-05,-0.00015,0.00018,2e-05,-0.00011,6,19
29600,-0.00015,-3e-05,4e-05,8e-05,-0.00015,0.00018,2e-05,-0.00011,6,19
29601,-0.00015,-3e-05,4e-05,8e-05,-0.00015,0.00018,2e-05,-0.00011,6,19
29602,-0.00015,-3e-05,4e-05,8e-05,-0.00015,0.00018,2e-05,-0.00011,6,19
29603,-0.00015,-3e-05,4e-05,8e-05,-0.00015,0.00018,2e-05,-0.00011,6,19
29604,-0.00015,-3e-05,4e-05,8e-05,-0.00015,0.00018,2e-05,-0.00011,6,19
29605,-0.00015,-3e-05,4e-05,8e-05,-0.00015,0.00018,2e-05,-0.00011,6,19
29606,-0.00015,-3e-05,4e-05,8e-05,-0.00015,0.00018,2e-05,-0.00011,6,19
29607,-0.00015,-3e-05,4e-05,8e-05,-0.00015,0.00018,2e-05,-0.00011,6,19
29608,-0.00015,-3e-05,4e-05,8e-05,-0.00015,0.00018,2e-05,-0.00011,6,19
29609,-0.00015,-3e-05,4e-05,8e-05,-0.00015,0.00018,2e-05,-0.00011,6,19
29610,-8e-05,-7e-05,-3e-05,-3e-05,3e-05,-1e-05,2e-05,-4e-05,6,19
29611,-0.00011,-4e-05,-4e-05,0.0001,0.00023,-0.00011,7e-05,-1e-05,6,19
29612,-0.00011,-4e-05,-4e-05,0.0001,0.00023,-0.00011,7e-05,-1e-05,6,19
29613,-0.00011,-4e-05,-4e-05,0.0001,0.00023,-0.00011,7e-05,-1e-05,6,19
29614,-0.00011,-4e-05,-4e-05,0.0001,0.00023,-0.00011,7e-05,-1e-05,6,19
29615,-0.00011,-4e-05,-4e-05,0.0001,0.00023,-0.00011,7e-05,-1e-05,6,19
29616,-0.00011,-4e-05,-4e-05,0.0001,0.00023,-0.00011,7e-05,-1e-05,6,19
29617,-0.00011,-4e-05,-4e-05,0.0001,0.00023,-0.00011,7e-05,-1e-05,6,19
29618,-0.00011,-4e-05,-4e-05,0.0001,0.00023,-0.00011,7e-05,-1e-05,6,19
29619,-0.00011,-4e-05,-4e-05,0.0001,0.00023,-0.00011,7e-05,-1e-05,6,19
29620,-0.00011,-4e-05,-4e-05,0.0001,0.00023,-0.00011,7e-05,-1e-05,6,19
29621,-0.00011,-4e-05,-4e-05,0.0001,0.00023,-0.00011,7e-05,-1e-05,6,19
29622,-0.00011,-4e-05,-4e-05,0.0001,0.00023,-0.00011,7e-05,-1e-05,6,19
29623,-0.00011,-4e-05,-4e-05,0.0001,0.00023,-0.00011,7e-05,-1e-05,6,19
29624,-0.00011,-4e-05,-4e-05,0.0001,0.00023,-0.00011,7e-05,-1e-05,6,19
29625,-0.00011,-4e-05,-4e-05,0.0001,0.00023,-0.00011,7e-05,-1e-05,6,19
29626,-0.00011,-4e-05,-4e-05,0.0001,0.00023,-0.00011,7e-05,-1e-05,6,19
29627,-0.00011,-4e-05,-4e-05,0.0001,0.00023,-0.00011,7e-05,-1e-05,6,19
29628,-0.00011,-4e-05,-4e-05,0.0001,0.00023,-0.00011,7e-05,-1e-05,6,19
29629,-0.00011,-4e-05,-4e-05,0.0001,0.00023,-0.00011,7e-05,-1e-05,6,19
29630,-0.00011,-4e-05,-4e-05,0.0001,0.00023,-0.00011,7e-05,-1e-05,6,19
29631,-0.00011,-4e-05,-4e-05,0.0001,0.00023,-0.00011,7e-05,-1e-05,6,19
29632,-0.00011,-4e-05,-4e-05,0.0001,0.00023,-0.00011,7e-05,-1e-05,6,19
29633,0,6e-05,-1e-05,-3e-05,4e-05,9e-05,-0.00025,-0.00016,6,19
29634,2e-05,-0.0001,4e-05,2e-05,0.00022,-4e-05,-0.00016,-1e-05,6,19
29635,2e-05,-0.0001,4e-05,2e-05,0.00022,-4e-05,-0.00016,-1e-05,6,19
29636,2e-05,-0.0001,4e-05,2e-05,0.00022,-4e-05,-0.00016,-1e-05,6,19
29639,2e-05,-0.0001,4e-05,2e-05,0.00022,-4e-05,-0.00016,-1e-05,6,19
29640,2e-05,-0.0001,4e-05,2e-05,0.00022,-4e-05,-0.00016,-1e-05,6,19
29641,2e-05,-0.0001,4e-05,2e-05,0.00022,-4e-05,-0.00016,-1e-05,6,19
29642,2e-05,-0.0001,4e-05,2e-05,0.00022,-4e-05,-0.00016,-1e-05,6,19
29643,2e-05,-0.0001,4e-05,2e-05,0.00022,-4e-05,-0.00016,-1e-05,6,19
29644,2e-05,-0.0001,4e-05,2e-05,0.00022,-4e-05,-0.00016,-1e-05,6,19
29645,2e-05,-0.0001,4e-05,2e-05,0.00022,-4e-05,-0.00016,-1e-05,6,19
29646,2e-05,-0.0001,4e-05,2e-05,0.00022,-4e-05,-0.00016,-1e-05,6,19
29647,2e-05,-0.0001,4e-05,2e-05,0.00022,-4e-05,-0.00016,-1e-05,6,19
29648,-6e-05,-5e-05,2e-05,0.00012,0.00011,2e-05,7e-05,0.00013,6,19
29649,-5e-05,3e-05,-1e-05,-9e-05,0.0001,0.00033,3e-05,-0.00022,6,19
29650,-5e-05,3e-05,-1e-05,-9e-05,0.0001,0.00033,3e-05,-0.00022,6,19
29651,-5e-05,3e-05,-1e-05,-9e-05,0.0001,0.00033,3e-05,-0.00022,6,19
29652,-5e-05,3e-05,-1e-05,-9e-05,0.0001,0.00033,3e-05,-0.00022,6,19
29653,-5e-05,3e-05,-1e-05,-9e-05,0.0001,0.00033,3e-05,-0.00022,6,19
29654,-5e-05,3e-05,-1e-05,-9e-05,0.0001,0.00033,3e-05,-0.00022,6,19
29655,-5e-05,3e-05,-1e-05,-9e-05,0.0001,0.00033,3e-05,-0.00022,6,19
29656,-5e-05,3e-05,-1e-05,-9e-05,0.0001,0.00033,3e-05,-0.00022,6,19
29657,-5e-05,3e-05,-1e-05,-9e-05,0.0001,0.00033,3e-05,-0.00022,6,19
29658,-5e-05,3e-05,-1e-05,-9e-05,0.0001,0.00033,3e-05,-0.00022,6,19
29659,-5e-05,3e-05,-1e-05,-9e-05,0.0001,0.00033,3e-05,-0.00022,6,19
29660,-5e-05,3e-05,-1e-05,-9e-05,0.0001,0.00033,3e-05,-0.00022,6,19
29661,-5e-05,3e-05,-1e-05,-9e-05,0.0001,0.00033,3e-05,-0.00022,6,19
29662,-5e-05,3e-05,-1e-05,-9e-05,0.0001,0.00033,3e-05,-0.00022,6,19
29663,-5e-05,3e-05,-1e-05,-9e-05,0.0001,0.00033,3e-05,-0.00022,6,19
29664,-5e-05,3e-05,-1e-05,-9e-05,0.0001,0.00033,3e-05,-0.00022,6,19
29665,-5e-05,3e-05,-1e-05,-9e-05,0.0001,0.00033,3e-05,-0.00022,6,19
29666,-5e-05,3e-05,-1e-05,-9e-05,0.0001,0.00033,3e-05,-0.00022,6,19
29667,-5e-05,3e-05,-1e-05,-9e-05,0.0001,0.00033,3e-05,-0.00022,6,19
29668,-5e-05,3e-05,-1e-05,-9e-05,0.0001,0.00033,3e-05,-0.00022,6,19
29669,-5e-05,3e-05,-1e-05,-9e-05,0.0001,0.00033,3e-05,-0.00022,6,19
29670,-5e-05,3e-05,-1e-05,-9e-05,0.0001,0.00033,3e-05,-0.00022,6,19
29671,-3e-05,-4e-05,-7e-05,-0.00015,-0.00027,-9e-05,-0.00012,7e-05,6,19
29672,9e-05,0,1e-05,0.0001,0.00013,0.00013,6e-05,4e-05,6,19
29673,9e-05,0,1e-05,0.0001,0.00013,0.00013,6e-05,4e-05,6,19
29674,9e-05,0,1e-05,0.0001,0.00013,0.00013,6e-05,4e-05,6,19
29675,9e-05,0,1e-05,0.0001,0.00013,0.00013,6e-05,4e-05,6,19
29676,9e-05,0,1e-05,0.0001,0.00013,0.00013,6e-05,4e-05,6,19
29677,9e-05,0,1e-05,0.0001,0.00013,0.00013,6e-05,4e-05,6,19
29678,9e-05,0,1e-05,0.0001,0.00013,0.00013,6e-05,4e-05,6,19
29679,9e-05,0,1e-05,0.0001,0.00013,0.00013,6e-05,4e-05,6,19
29680,9e-05,0,1e-05,0.0001,0.00013,0.00013,6e-05,4e-05,6,19
29681,9e-05,0,1e-05,0.0001,0.00013,0.00013,6e-05,4e-05,6,19
29682,9e-05,0,1e-05,0.0001,0.00013,0.00013,6e-05,4e-05,6,19
29683,9e-05,0,1e-05,0.0001,0.00013,0.00013,6e-05,4e-05,6,19
29684,9e-05,0,1e-05,0.0001,0.00013,0.00013,6e-05,4e-05,6,19
29685,9e-05,0,1e-05,0.0001,0.00013,0.00013,6e-05,4e-05,6,19
29686,9e-05,0,1e-05,0.0001,0.00013,0.00013,6e-05,4e-05,6,19
29688,9e-05,0,1e-05,0.0001,0.00013,0.00013,6e-05,4e-05,6,19
29689,9e-05,0,1e-05,0.0001,0.00013,0.00013,6e-05,4e-05,6,19
29690,9e-05,0,1e-05,0.0001,0.00013,0.00013,6e-05,4e-05,6,19
29691,9e-05,0,1e-05,0.0001,0.00013,0.00013,6e-05,4e-05,6,19
29692,9e-05,0,1e-05,0.0001,0.00013,0.00013,6e-05,4e-05,6,19
29693,9e-05,0,1e-05,0.0001,0.00013,0.00013,6e-05,4e-05,6,19
29694,0,3e-05,-7e-05,-8e-05,-8e-05,3e-05,-4e-05,-0.00024,6,19
29695,0,3e-05,-7e-05,-8e-05,-8e-05,3e-05,-4e-05,-0.00024,6,19
29696,3e-05,-2e-05,-7e-05,0.0001,0.00013,-0.00012,0,5e-05,6,19
29697,3e-05,-2e-05,-7e-05,0.0001,0.00013,-0.00012,0,5e-05,6,19
29698,3e-05,-2e-05,-7e-05,0.0001,0.00013,-0.00012,0,5e-05,6,19
29699,3e-05,-2e-05,-7e-05,0.0001,0.00013,-0.00012,0,5e-05,6,19
29700,3e-05,-2e-05,-7e-05,0.0001,0.00013,-0.00012,0,5e-05,6,19
29701,3e-05,-2e-05,-7e-05,0.0001,0.00013,-0.00012,0,5e-05,6,19
29702,3e-05,-2e-05,-7e-05,0.0001,0.00013,-0.00012,0,5e-05,6,19
29703,3e-05,-2e-05,-7e-05,0.0001,0.00013,-0.00012,0,5e-05,6,19
29704,3e-05,-2e-05,-7e-05,0.0001,0.00013,-0.00012,0,5e-05,6,19
29705,3e-05,-2e-05,-7e-05,0.0001,0.00013,-0.00012,0,5e-05,6,19
29706,3e-05,-2e-05,-7e-05,0.0001,0.00013,-0.00012,0,5e-05,6,19
29707,3e-05,-2e-05,-7e-05,0.0001,0.00013,-0.00012,0,5e-05,6,19
29708,0.00018,7e-05,5e-05,6e-05,5e-05,-1e-05,-2e-05,-7e-05,6,19
29709,-4e-05,6e-05,2e-05,-7e-05,-0.00012,1e-05,6e-05,-4e-05,6,19
29710,-4e-05,6e-05,2e-05,-7e-05,-0.00012,1e-05,6e-05,-4e-05,6,19
29711,-4e-05,6e-05,2e-05,-7e-05,-0.00012,1e-05,6e-05,-4e-05,6,19
29712,-4e-05,6e-05,2e-05,-7e-05,-0.00012,1e-05,6e-05,-4e-05,6,19
29713,-4e-05,6e-05,2e-05,-7e-05,-0.00012,1e-05,6e-05,-4e-05,6,19
29714,-4e-05,6e-05,2e-05,-7e-05,-0.00012,1e-05,6e-05,-4e-05,6,19
29715,-4e-05,6e-05,2e-05,-7e-05,-0.00012,1e-05,6e-05,-4e-05,6,19
29716,-4e-05,6e-05,2e-05,-7e-05,-0.00012,1e-05,6e-05,-4e-05,6,19
29717,-4e-05,6e-05,2e-05,-7e-05,-0.00012,1e-05,6e-05,-4e-05,6,19
29718,-4e-05,6e-05,2e-05,-7e-05,-0.00012,1e-05,6e-05,-4e-05,6,19
29719,-4e-05,6e-05,2e-05,-7e-05,-0.00012,1e-05,6e-05,-4e-05,6,19
29720,-4e-05,6e-05,2e-05,-7e-05,-0.00012,1e-05,6e-05,-4e-05,6,19
29721,-4e-05,6e-05,2e-05,-7e-05,-0.00012,1e-05,6e-05,-4e-05,6,19
29722,-4e-05,6e-05,2e-05,-7e-05,-0.00012,1e-05,6e-05,-4e-05,6,19
29723,-4e-05,6e-05,2e-05,-7e-05,-0.00012,1e-05,6e-05,-4e-05,6,19
29724,-4e-05,6e-05,2e-05,-7e-05,-0.00012,1e-05,6e-05,-4e-05,6,19
29725,-4e-05,6e-05,2e-05,-7e-05,-0.00012,1e-05,6e-05,-4e-05,6,19
29726,-4e-05,6e-05,2e-05,-7e-05,-0.00012,1e-05,6e-05,-4e-05,6,19
29727,-4e-05,6e-05,2e-05,-7e-05,-0.00012,1e-05,6e-05,-4e-05,6,19
29728,-4e-05,6e-05,2e-05,-7e-05,-0.00012,1e-05,6e-05,-4e-05,6,19
29729,-4e-05,6e-05,2e-05,-7e-05,-0.00012,1e-05,6e-05,-4e-05,6,19
29730,-1e-05,-1e-05,-4e-05,-1e-05,-0.00011,-7e-05,1e-05,0.00016,6,19
29731,5e-05,0,-1e-05,2e-05,0.00022,-0.00015,-8e-05,0.00023,6,19
29732,5e-05,0,-1e-05,2e-05,0.00022,-0.00015,-8e-05,0.00023,6,19
29733,5e-05,0,-1e-05,2e-05,0.00022,-0.00015,-8e-05,0.00023,6,19
29734,5e-05,0,-1e-05,2e-05,0.00022,-0.00015,-8e-05,0.00023,6,19
29735,5e-05,0,-1e-05,2e-05,0.00022,-0.00015,-8e-05,0.00023,6,19
29736,5e-05,0,-1e-05,2e-05,0.00022,-0.00015,-8e-05,0.00023,6,19
29739,5e-05,0,-1e-05,2e-05,0.00022,-0.00015,-8e-05,0.00023,6,19
29740,5e-05,0,-1e-05,2e-05,0.00022,-0.00015,-8e-05,0.00023,6,19
29741,5e-05,0,-1e-05,2e-05,0.00022,-0.00015,-8e-05,0.00023,6,19
29742,5e-05,0,-1e-05,2e-05,0.00022,-0.00015,-8e-05,0.00023,6,19
29743,5e-05,0,-1e-05,2e-05,0.00022,-0.00015,-8e-05,0.00023,6,19
29744,5e-05,0,-1e-05,2e-05,0.00022,-0.00015,-8e-05,0.00023,6,19
29745,5e-05,0,-1e-05,2e-05,0.00022,-0.00015,-8e-05,0.00023,6,19
29746,5e-05,0,-1e-05,2e-05,0.00022,-0.00015,-8e-05,0.00023,6,19
29747,5e-05,0,-1e-05,2e-05,0.00022,-0.00015,-8e-05,0.00023,6,19
29748,5e-05,0,-1e-05,2e-05,0.00022,-0.00015,-8e-05,0.00023,6,19
29749,5e-05,0,-1e-05,2e-05,0.00022,-0.00015,-8e-05,0.00023,6,19
29750,5e-05,0,-1e-05,2e-05,0.00022,-0.00015,-8e-05,0.00023,6,19
29751,5e-05,0,-1e-05,2e-05,0.00022,-0.00015,-8e-05,0.00023,6,19
29752,5e-05,0,-1e-05,2e-05,0.00022,-0.00015,-8e-05,0.00023,6,19
29753,5e-05,0,-1e-05,2e-05,0.00022,-0.00015,-8e-05,0.00023,6,19
29754,8e-05,-1e-05,-2e-05,8e-05,-0.00024,-0.00021,-0.00011,-0.00023,6,19
29755,8e-05,-1e-05,-2e-05,8e-05,-0.00024,-0.00021,-0.00011,-0.00023,6,19
29756,8e-05,-1e-05,-2e-05,8e-05,-0.00024,-0.00021,-0.00011,-0.00023,6,19
29757,8e-05,-1e-05,-2e-05,8e-05,-0.00024,-0.00021,-0.00011,-0.00023,6,19
29758,8e-05,-1e-05,-2e-05,8e-05,-0.00024,-0.00021,-0.00011,-0.00023,6,19
29759,8e-05,-1e-05,-2e-05,8e-05,-0.00024,-0.00021,-0.00011,-0.00023,6,19
29760,8e-05,-1e-05,-2e-05,8e-05,-0.00024,-0.00021,-0.00011,-0.00023,6,19
29761,8e-05,-1e-05,-2e-05,8e-05,-0.00024,-0.00021,-0.00011,-0.00023,6,19
29762,8e-05,-1e-05,-2e-05,8e-05,-0.00024,-0.00021,-0.00011,-0.00023,6,19
29763,8e-05,-1e-05,-2e-05,8e-05,-0.00024,-0.00021,-0.00011,-0.00023,6,19
29764,8e-05,-1e-05,-2e-05,8e-05,-0.00024,-0.00021,-0.00011,-0.00023,6,19
29765,8e-05,-1e-05,-2e-05,8e-05,-0.00024,-0.00021,-0.00011,-0.00023,6,19
29766,8e-05,-1e-05,-2e-05,8e-05,-0.00024,-0.00021,-0.00011,-0.00023,6,19
29767,8e-05,-1e-05,-2e-05,8e-05,-0.00024,-0.00021,-0.00011,-0.00023,6,19
29768,9e-05,-2e-05,0.00013,0.00017,0.00031,5e-05,-4e-05,6e-05,6,19
29769,-9e-05,-9e-05,-9e-05,2e-05,-1e-05,-0.00011,-3e-05,-5e-05,6,19
29770,-9e-05,-9e-05,-9e-05,2e-05,-1e-05,-0.00011,-3e-05,-5e-05,6,19
29771,-9e-05,-9e-05,-9e-05,2e-05,-1e-05,-0.00011,-3e-05,-5e-05,6,19
29772,-9e-05,-9e-05,-9e-05,2e-05,-1e-05,-0.00011,-3e-05,-5e-05,6,19
29773,-9e-05,-9e-05,-9e-05,2e-05,-1e-05,-0.00011,-3e-05,-5e-05,6,19
29774,-9e-05,-9e-05,-9e-05,2e-05,-1e-05,-0.00011,-3e-05,-5e-05,6,19
29775,-9e-05,-9e-05,-9e-05,2e-05,-1e-05,-0.00011,-3e-05,-5e-05,6,19
29776,-9e-05,-9e-05,-9e-05,2e-05,-1e-05,-0.00011,-3e-05,-5e-05,6,19
29778,-9e-05,-9e-05,-9e-05,2e-05,-1e-05,-0.00011,-3e-05,-5e-05,6,19
29779,-9e-05,-9e-05,-9e-05,2e-05,-1e-05,-0.00011,-3e-05,-5e-05,6,19
29780,-9e-05,-9e-05,-9e-05,2e-05,-1e-05,-0.00011,-3e-05,-5e-05,6,19
29781,-9e-05,-9e-05,-9e-05,2e-05,-1e-05,-0.00011,-3e-05,-5e-05,6,19
29782,-9e-05,-9e-05,-9e-05,2e-05,-1e-05,-0.00011,-3e-05,-5e-05,6,19
29783,-9e-05,-9e-05,-9e-05,2e-05,-1e-05,-0.00011,-3e-05,-5e-05,6,19
29784,-9e-05,-9e-05,-9e-05,2e-05,-1e-05,-0.00011,-3e-05,-5e-05,6,19
29785,-9e-05,-9e-05,-9e-05,2e-05,-1e-05,-0.00011,-3e-05,-5e-05,6,19
29786,-9e-05,-9e-05,-9e-05,2e-05,-1e-05,-0.00011,-3e-05,-5e-05,6,19
29789,-9e-05,-9e-05,-9e-05,2e-05,-1e-05,-0.00011,-3e-05,-5e-05,6,19
29790,0,3e-05,-1e-05,5e-05,0.00014,-4e-05,-2e-05,3e-05,6,19
29791,6e-05,-2e-05,3e-05,3e-05,0.00019,-8e-05,7e-05,1e-05,6,19
29792,6e-05,-2e-05,3e-05,3e-05,0.00019,-8e-05,7e-05,1e-05,6,19
29793,6e-05,-2e-05,3e-05,3e-05,0.00019,-8e-05,7e-05,1e-05,6,19
29794,6e-05,-2e-05,3e-05,3e-05,0.00019,-8e-05,7e-05,1e-05,6,19
29795,6e-05,-2e-05,3e-05,3e-05,0.00019,-8e-05,7e-05,1e-05,6,19
29796,6e-05,-2e-05,3e-05,3e-05,0.00019,-8e-05,7e-05,1e-05,6,19
29797,6e-05,-2e-05,3e-05,3e-05,0.00019,-8e-05,7e-05,1e-05,6,19
29798,6e-05,-2e-05,3e-05,3e-05,0.00019,-8e-05,7e-05,1e-05,6,19
29799,6e-05,-2e-05,3e-05,3e-05,0.00019,-8e-05,7e-05,1e-05,6,19
29800,6e-05,-2e-05,3e-05,3e-05,0.00019,-8e-05,7e-05,1e-05,6,19
29801,6e-05,-2e-05,3e-05,3e-05,0.00019,-8e-05,7e-05,1e-05,6,19
29802,6e-05,-2e-05,3e-05,3e-05,0.00019,-8e-05,7e-05,1e-05,6,19
29803,6e-05,-2e-05,3e-05,3e-05,0.00019,-8e-05,7e-05,1e-05,6,19
29804,6e-05,-2e-05,3e-05,3e-05,0.00019,-8e-05,7e-05,1e-05,6,19
29805,6e-05,-2e-05,3e-05,3e-05,0.00019,-8e-05,7e-05,1e-05,6,19
29806,6e-05,-2e-05,3e-05,3e-05,0.00019,-8e-05,7e-05,1e-05,6,19
29807,6e-05,-2e-05,3e-05,3e-05,0.00019,-8e-05,7e-05,1e-05,6,19
29808,6e-05,-2e-05,3e-05,3e-05,0.00019,-8e-05,7e-05,1e-05,6,19
29809,6e-05,-2e-05,3e-05,3e-05,0.00019,-8e-05,7e-05,1e-05,6,19
29810,6e-05,-2e-05,3e-05,3e-05,0.00019,-8e-05,7e-05,1e-05,6,19
29811,6e-05,-2e-05,3e-05,3e-05,0.00019,-8e-05,7e-05,1e-05,6,19
29812,6e-05,-2e-05,3e-05,3e-05,0.00019,-8e-05,7e-05,1e-05,6,19
29813,6e-05,-2e-05,3e-05,3e-05,0.00019,-8e-05,7e-05,1e-05,6,19
29814,-6e-05,5e-05,1e-05,-7e-05,-0.00016,7e-05,2e-05,1e-05,6,19
29815,-6e-05,5e-05,1e-05,-7e-05,-0.00016,7e-05,2e-05,1e-05,6,19
29816,-6e-05,5e-05,1e-05,-7e-05,-0.00016,7e-05,2e-05,1e-05,6,19
29817,-6e-05,5e-05,1e-05,-7e-05,-0.00016,7e-05,2e-05,1e-05,6,19
29818,-6e-05,5e-05,1e-05,-7e-05,-0.00016,7e-05,2e-05,1e-05,6,19
29819,-6e-05,5e-05,1e-05,-7e-05,-0.00016,7e-05,2e-05,1e-05,6,19
29820,-6e-05,5e-05,1e-05,-7e-05,-0.00016,7e-05,2e-05,1e-05,6,19
29821,-6e-05,5e-05,1e-05,-7e-05,-0.00016,7e-05,2e-05,1e-05,6,19
29822,-6e-05,5e-05,1e-05,-7e-05,-0.00016,7e-05,2e-05,1e-05,6,19
29823,-6e-05,5e-05,1e-05,-7e-05,-0.00016,7e-05,2e-05,1e-05,6,19
29824,-6e-05,5e-05,1e-05,-7e-05,-0.00016,7e-05,2e-05,1e-05,6,19
29825,-6e-05,5e-05,1e-05,-7e-05,-0.00016,7e-05,2e-05,1e-05,6,19
29826,-6e-05,5e-05,1e-05,-7e-05,-0.00016,7e-05,2e-05,1e-05,6,19
29827,-6e-05,5e-05,1e-05,-7e-05,-0.00016,7e-05,2e-05,1e-05,6,19
29828,-4e-05,0,0.0001,0.00015,0.00014,0.0003,0.00013,7e-05,6,19
29829,-9e-05,-5e-05,-6e-05,-9e-05,-6e-05,-6e-05,-0.00011,-0.00029,6,19
29830,3e-05,2e-05,7e-05,0.00032,0.00041,-8e-05,5e-05,0.00012,6,19
29831,3e-05,2e-05,7e-05,0.00032,0.00041,-8e-05,5e-05,0.00012,6,19
29832,3e-05,2e-05,7e-05,0.00032,0.00041,-8e-05,5e-05,0.00012,6,19
29833,3e-05,2e-05,7e-05,0.00032,0.00041,-8e-05,5e-05,0.00012,6,19
29834,3e-05,2e-05,7e-05,0.00032,0.00041,-8e-05,5e-05,0.00012,6,19
29835,3e-05,2e-05,7e-05,0.00032,0.00041,-8e-05,5e-05,0.00012,6,19
29836,3e-05,2e-05,7e-05,0.00032,0.00041,-8e-05,5e-05,0.00012,6,19
29838,3e-05,2e-05,7e-05,0.00032,0.00041,-8e-05,5e-05,0.00012,6,19
