32440,0.0001,-8e-05,0,0.00019,0.0001,-0.00022,0,-7e-05,6,20
32441,0.0001,-8e-05,0,0.00019,0.0001,-0.00022,0,-7e-05,6,20
32442,0.0001,-8e-05,0,0.00019,0.0001,-0.00022,0,-7e-05,6,20
32443,0.0001,-8e-05,0,0.00019,0.0001,-0.00022,0,-7e-05,6,20
32444,0.0001,-8e-05,0,0.00019,0.0001,-0.00022,0,-7e-05,6,20
32445,0.0001,-8e-05,0,0.00019,0.0001,-0.00022,0,-7e-05,6,20
32446,-0.00058,5e-05,3e-05,8e-05,0.00047,-5e-05,-0.00025,-0.00011,6,20
32447,-1e-05,-2e-05,-3e-05,-0.00031,-0.00014,-2e-05,0.00029,0.00012,6,20
32448,-0.00061,-0.00031,-7e-05,-9e-05,7e-05,-0.0002,-0.00031,-0.0001,6,20
32449,-0.00061,-0.00031,-7e-05,-9e-05,7e-05,-0.0002,-0.00031,-0.0001,6,20
32450,-0.00061,-0.00031,-7e-05,-9e-05,7e-05,-0.0002,-0.00031,-0.0001,6,20
32451,-0.00061,-0.00031,-7e-05,-9e-05,7e-05,-0.0002,-0.00031,-0.0001,6,20
32452,-0.00061,-0.00031,-7e-05,-9e-05,7e-05,-0.0002,-0.00031,-0.0001,6,20
32453,-0.00061,-0.00031,-7e-05,-9e-05,7e-05,-0.0002,-0.00031,-0.0001,6,20
32454,-0.00061,-0.00031,-7e-05,-9e-05,7e-05,-0.0002,-0.00031,-0.0001,6,20
32455,-0.00061,-0.00031,-7e-05,-9e-05,7e-05,-0.0002,-0.00031,-0.0001,6,20
32456,-0.00061,-0.00031,-7e-05,-9e-05,7e-05,-0.0002,-0.00031,-0.0001,6,20
32457,-0.00061,-0.00031,-7e-05,-9e-05,7e-05,-0.0002,-0.00031,-0.0001,6,20
32458,-0.00061,-0.00031,-7e-05,-9e-05,7e-05,-0.0002,-0.00031,-0.0001,6,20
32459,-0.00061,-0.00031,-7e-05,-9e-05,7e-05,-0.0002,-0.00031,-0.0001,6,20
32460,7e-05,-0.00015,-7e-05,-0.0002,-0.00104,-0.00043,-0.00029,-0.00087,6,20
32461,7e-05,-0.00015,-7e-05,-0.0002,-0.00104,-0.00043,-0.00029,-0.00087,6,20
32462,7e-05,-0.00015,-7e-05,-0.0002,-0.00104,-0.00043,-0.00029,-0.00087,6,20
32463,7e-05,-0.00015,-7e-05,-0.0002,-0.00104,-0.00043,-0.00029,-0.00087,6,20
32464,7e-05,-0.00015,-7e-05,-0.0002,-0.00104,-0.00043,-0.00029,-0.00087,6,20
32465,7e-05,-0.00015,-7e-05,-0.0002,-0.00104,-0.00043,-0.00029,-0.00087,6,20
32466,7e-05,-0.00015,-7e-05,-0.0002,-0.00104,-0.00043,-0.00029,-0.00087,6,20
32467,7e-05,-0.00015,-7e-05,-0.0002,-0.00104,-0.00043,-0.00029,-0.00087,6,20
32468,7e-05,-0.00015,-7e-05,-0.0002,-0.00104,-0.00043,-0.00029,-0.00087,6,20
32469,7e-05,-0.00015,-7e-05,-0.0002,-0.00104,-0.00043,-0.00029,-0.00087,6,20
32470,7e-05,-0.00015,-7e-05,-0.0002,-0.00104,-0.00043,-0.00029,-0.00087,6,20
32471,7e-05,-0.00015,-7e-05,-0.0002,-0.00104,-0.00043,-0.00029,-0.00087,6,20
32472,7e-05,-0.00015,-7e-05,-0.0002,-0.00104,-0.00043,-0.00029,-0.00087,6,20
32473,7e-05,-0.00015,-7e-05,-0.0002,-0.00104,-0.00043,-0.00029,-0.00087,6,20
32474,7e-05,-0.00015,-7e-05,-0.0002,-0.00104,-0.00043,-0.00029,-0.00087,6,20
32475,7e-05,-0.00015,-7e-05,-0.0002,-0.00104,-0.00043,-0.00029,-0.00087,6,20
32476,-0.00065,-5e-05,0,-8e-05,0.00095,0.00059,0.00011,0.00104,6,20
32477,0.00017,-1e-05,3e-05,2e-05,-0.00094,0.00102,0.00023,-0.00012,6,20
32478,0.00017,-1e-05,3e-05,2e-05,-0.00094,0.00102,0.00023,-0.00012,6,20
32479,0.00017,-1e-05,3e-05,2e-05,-0.00094,0.00102,0.00023,-0.00012,6,20
32480,0.00017,-1e-05,3e-05,2e-05,-0.00094,0.00102,0.00023,-0.00012,6,20
32481,0.00017,-1e-05,3e-05,2e-05,-0.00094,0.00102,0.00023,-0.00012,6,20
32482,0.00017,-1e-05,3e-05,2e-05,-0.00094,0.00102,0.00023,-0.00012,6,20
32483,0.00017,-1e-05,3e-05,2e-05,-0.00094,0.00102,0.00023,-0.00012,6,20
32484,-1e-05,-3e-05,1e-05,-0.00012,-0.00036,-0.00073,0.00012,-0.00023,6,20
32485,0.00022,0,-3e-05,-0.00018,4e-05,0.00057,-5e-05,-4e-05,6,20
32486,0,6e-05,2e-05,0.00016,6e-05,-0.00042,-2e-05,-0.00048,6,20
32488,0,6e-05,2e-05,0.00016,6e-05,-0.00042,-2e-05,-0.00048,6,20
32489,0,6e-05,2e-05,0.00016,6e-05,-0.00042,-2e-05,-0.00048,6,20
32490,0,6e-05,2e-05,0.00016,6e-05,-0.00042,-2e-05,-0.00048,6,20
32491,0,6e-05,2e-05,0.00016,6e-05,-0.00042,-2e-05,-0.00048,6,20
32492,0,6e-05,2e-05,0.00016,6e-05,-0.00042,-2e-05,-0.00048,6,20
32493,0,6e-05,2e-05,0.00016,6e-05,-0.00042,-2e-05,-0.00048,6,20
32494,0,6e-05,2e-05,0.00016,6e-05,-0.00042,-2e-05,-0.00048,6,20
32495,0,6e-05,2e-05,0.00016,6e-05,-0.00042,-2e-05,-0.00048,6,20
32496,0,6e-05,2e-05,0.00016,6e-05,-0.00042,-2e-05,-0.00048,6,20
32497,0,6e-05,2e-05,0.00016,6e-05,-0.00042,-2e-05,-0.00048,6,20
32498,0,6e-05,2e-05,0.00016,6e-05,-0.00042,-2e-05,-0.00048,6,20
32499,0,6e-05,2e-05,0.00016,6e-05,-0.00042,-2e-05,-0.00048,6,20
32500,0,6e-05,2e-05,0.00016,6e-05,-0.00042,-2e-05,-0.00048,6,20
32501,0,6e-05,2e-05,0.00016,6e-05,-0.00042,-2e-05,-0.00048,6,20
32502,0,6e-05,2e-05,0.00016,6e-05,-0.00042,-2e-05,-0.00048,6,20
32503,0,6e-05,2e-05,0.00016,6e-05,-0.00042,-2e-05,-0.00048,6,20
32504,0,6e-05,2e-05,0.00016,6e-05,-0.00042,-2e-05,-0.00048,6,20
32505,0,6e-05,2e-05,0.00016,6e-05,-0.00042,-2e-05,-0.00048,6,20
32506,-0.00018,-6e-05,-8e-05,-0.00033,-0.0004,0.00045,-0.00019,0.00016,6,20
32507,4e-05,0.00011,9e-05,0.00038,0.00053,-0.00056,-0.00026,-7e-05,6,20
32508,0,0.00012,3e-05,-0.00014,7e-05,-0.00055,-0.00062,-0.00075,6,20
32509,0,0.00012,3e-05,-0.00014,7e-05,-0.00055,-0.00062,-0.00075,6,20
32510,0,0.00012,3e-05,-0.00014,7e-05,-0.00055,-0.00062,-0.00075,6,20
32511,0,0.00012,3e-05,-0.00014,7e-05,-0.00055,-0.00062,-0.00075,6,20
32512,0,0.00012,3e-05,-0.00014,7e-05,-0.00055,-0.00062,-0.00075,6,20
32513,0,0.00012,3e-05,-0.00014,7e-05,-0.00055,-0.00062,-0.00075,6,20
32514,0,0.00012,3e-05,-0.00014,7e-05,-0.00055,-0.00062,-0.00075,6,20
32515,0,0.00012,3e-05,-0.00014,7e-05,-0.00055,-0.00062,-0.00075,6,20
32516,0,0.00012,3e-05,-0.00014,7e-05,-0.00055,-0.00062,-0.00075,6,20
32518,0,0.00012,3e-05,-0.00014,7e-05,-0.00055,-0.00062,-0.00075,6,20
32519,0,0.00012,3e-05,-0.00014,7e-05,-0.00055,-0.00062,-0.00075,6,20
32520,-0.0003,-0.00012,6e-05,-0.0001,-0.0009,-0.00086,5e-05,0.00031,6,20
32521,-0.0003,-0.00012,6e-05,-0.0001,-0.0009,-0.00086,5e-05,0.00031,6,20
32522,-0.0003,-0.00012,6e-05,-0.0001,-0.0009,-0.00086,5e-05,0.00031,6,20
32523,-0.0003,-0.00012,6e-05,-0.0001,-0.0009,-0.00086,5e-05,0.00031,6,20
32524,-0.0003,-0.00012,6e-05,-0.0001,-0.0009,-0.00086,5e-05,0.00031,6,20
32525,-0.0003,-0.00012,6e-05,-0.0001,-0.0009,-0.00086,5e-05,0.00031,6,20
32526,-0.0003,-0.00012,6e-05,-0.0001,-0.0009,-0.00086,5e-05,0.00031,6,20
32527,-0.0003,-0.00012,6e-05,-0.0001,-0.0009,-0.00086,5e-05,0.00031,6,20
32528,-0.0003,-0.00012,6e-05,-0.0001,-0.0009,-0.00086,5e-05,0.00031,6,20
32529,0.00027,0.00018,6e-05,2e-05,0.00102,0.00111,0.00073,0.00022,6,20
32530,0.00027,0.00018,6e-05,2e-05,0.00102,0.00111,0.00073,0.00022,6,20
32531,0.00027,0.00018,6e-05,2e-05,0.00102,0.00111,0.00073,0.00022,6,20
32532,0.00027,0.00018,6e-05,2e-05,0.00102,0.00111,0.00073,0.00022,6,20
32533,0.00027,0.00018,6e-05,2e-05,0.00102,0.00111,0.00073,0.00022,6,20
32534,0.00027,0.00018,6e-05,2e-05,0.00102,0.00111,0.00073,0.00022,6,20
32535,0.00027,0.00018,6e-05,2e-05,0.00102,0.00111,0.00073,0.00022,6,20
32536,0.00027,0.00018,6e-05,2e-05,0.00102,0.00111,0.00073,0.00022,6,20
32539,0.00027,0.00018,6e-05,2e-05,0.00102,0.00111,0.00073,0.00022,6,20
32540,0.00027,0.00018,6e-05,2e-05,0.00102,0.00111,0.00073,0.00022,6,20
32541,0.00027,0.00018,6e-05,2e-05,0.00102,0.00111,0.00073,0.00022,6,20
32542,0.00027,0.00018,6e-05,2e-05,0.00102,0.00111,0.00073,0.00022,6,20
32543,0.00027,0.00018,6e-05,2e-05,0.00102,0.00111,0.00073,0.00022,6,20
32544,-0.00011,-9e-05,-8e-05,0.00019,0.0001,0.0001,4e-05,0.00074,6,20
32545,-0.00011,-9e-05,-8e-05,0.00019,0.0001,0.0001,4e-05,0.00074,6,20
32546,0.00012,2e-05,0,5e-05,0,0.00033,-0.00022,0.00107,6,20
32547,0.00012,2e-05,0,5e-05,0,0.00033,-0.00022,0.00107,6,20
32548,0.00012,2e-05,0,5e-05,0,0.00033,-0.00022,0.00107,6,20
32549,0.00012,2e-05,0,5e-05,0,0.00033,-0.00022,0.00107,6,20
32550,0.00012,2e-05,0,5e-05,0,0.00033,-0.00022,0.00107,6,20
32551,0.00012,2e-05,0,5e-05,0,0.00033,-0.00022,0.00107,6,20
32552,0.00012,2e-05,0,5e-05,0,0.00033,-0.00022,0.00107,6,20
32553,0.00012,2e-05,0,5e-05,0,0.00033,-0.00022,0.00107,6,20
32554,0.00012,2e-05,0,5e-05,0,0.00033,-0.00022,0.00107,6,20
32555,0.00012,2e-05,0,5e-05,0,0.00033,-0.00022,0.00107,6,20
32556,0.00012,2e-05,0,5e-05,0,0.00033,-0.00022,0.00107,6,20
32557,0.00012,2e-05,0,5e-05,0,0.00033,-0.00022,0.00107,6,20
32558,0.00012,2e-05,0,5e-05,0,0.00033,-0.00022,0.00107,6,20
32559,0.00012,2e-05,0,5e-05,0,0.00033,-0.00022,0.00107,6,20
32560,0.00012,2e-05,0,5e-05,0,0.00033,-0.00022,0.00107,6,20
32561,0.00012,2e-05,0,5e-05,0,0.00033,-0.00022,0.00107,6,20
32562,0.00012,2e-05,0,5e-05,0,0.00033,-0.00022,0.00107,6,20
32563,0.00012,2e-05,0,5e-05,0,0.00033,-0.00022,0.00107,6,20
32564,0.00012,2e-05,0,5e-05,0,0.00033,-0.00022,0.00107,6,20
32565,0.00012,2e-05,0,5e-05,0,0.00033,-0.00022,0.00107,6,20
32566,-0.00047,3e-05,7e-05,-0.00011,0.0001,-0.00082,3e-05,-0.00028,6,20
32567,0.0005,0.0001,-2e-05,0.0002,0.00062,0.00086,0.0005,0.0001,6,20
32568,0.0005,0.0001,-2e-05,0.0002,0.00062,0.00086,0.0005,0.0001,6,20
32569,-0.0001,-5e-05,-4e-05,-8e-05,0.0001,-0.00031,-6e-05,-0.00038,6,20
32570,-0.0001,-5e-05,-4e-05,-8e-05,0.0001,-0.00031,-6e-05,-0.00038,6,20
32571,-0.0001,-5e-05,-4e-05,-8e-05,0.0001,-0.00031,-6e-05,-0.00038,6,20
32572,-0.0001,-5e-05,-4e-05,-8e-05,0.0001,-0.00031,-6e-05,-0.00038,6,20
32573,-0.0001,-5e-05,-4e-05,-8e-05,0.0001,-0.00031,-6e-05,-0.00038,6,20
32574,-0.0001,-5e-05,-4e-05,-8e-05,0.0001,-0.00031,-6e-05,-0.00038,6,20
32575,-0.0001,-5e-05,-4e-05,-8e-05,0.0001,-0.00031,-6e-05,-0.00038,6,20
32576,-0.0001,-5e-05,-4e-05,-8e-05,0.0001,-0.00031,-6e-05,-0.00038,6,20
32577,-0.0001,-5e-05,-4e-05,-8e-05,0.0001,-0.00031,-6e-05,-0.00038,6,20
32578,-0.0001,-5e-05,-4e-05,-8e-05,0.0001,-0.00031,-6e-05,-0.00038,6,20
32579,-0.0001,-5e-05,-4e-05,-8e-05,0.0001,-0.00031,-6e-05,-0.00038,6,20
32580,-0.0001,-5e-05,-4e-05,-8e-05,0.0001,-0.00031,-6e-05,-0.00038,6,20
32581,-0.0001,-5e-05,-4e-05,-8e-05,0.0001,-0.00031,-6e-05,-0.00038,6,20
32582,-0.0001,-5e-05,-4e-05,-8e-05,0.0001,-0.00031,-6e-05,-0.00038,6,20
32583,-0.0001,-5e-05,-4e-05,-8e-05,0.0001,-0.00031,-6e-05,-0.00038,6,20
32584,-0.0001,-5e-05,-4e-05,-8e-05,0.0001,-0.00031,-6e-05,-0.00038,6,20
32585,-0.0001,-5e-05,-4e-05,-8e-05,0.0001,-0.00031,-6e-05,-0.00038,6,20
32586,-0.0001,-5e-05,-4e-05,-8e-05,0.0001,-0.00031,-6e-05,-0.00038,6,20
32589,-0.00044,-0.0001,-3e-05,-6e-05,0.00015,-0.00055,-0.0002,0.00088,6,20
32590,0.00015,5e-05,0,7e-05,0.00038,0.00013,0,9e-05,6,20
32591,-0.00011,-4e-05,-1e-05,0.00017,0.00068,0.00127,0.00014,-0.00017,6,20
32592,-0.00011,-4e-05,-1e-05,0.00017,0.00068,0.00127,0.00014,-0.00017,6,20
32593,-0.00011,-4e-05,-1e-05,0.00017,0.00068,0.00127,0.00014,-0.00017,6,20
32594,-0.00011,-4e-05,-1e-05,0.00017,0.00068,0.00127,0.00014,-0.00017,6,20
32595,-0.00011,-4e-05,-1e-05,0.00017,0.00068,0.00127,0.00014,-0.00017,6,20
32596,-0.00011,-4e-05,-1e-05,0.00017,0.00068,0.00127,0.00014,-0.00017,6,20
32597,-0.00011,-4e-05,-1e-05,0.00017,0.00068,0.00127,0.00014,-0.00017,6,20
32598,-0.00011,-4e-05,-1e-05,0.00017,0.00068,0.00127,0.00014,-0.00017,6,20
32599,-0.00011,-4e-05,-1e-05,0.00017,0.00068,0.00127,0.00014,-0.00017,6,20
32600,-0.00011,-4e-05,-1e-05,0.00017,0.00068,0.00127,0.00014,-0.00017,6,20
32601,-0.00011,-4e-05,-1e-05,0.00017,0.00068,0.00127,0.00014,-0.00017,6,20
32602,-0.00011,-4e-05,-1e-05,0.00017,0.00068,0.00127,0.00014,-0.00017,6,20
32603,-0.00011,-4e-05,-1e-05,0.00017,0.00068,0.00127,0.00014,-0.00017,6,20
32604,7e-05,-9e-05,-5e-05,-0.0005,-0.00047,-0.00043,-0.00031,-5e-05,6,20
32605,0.00023,-5e-05,3e-05,0.00058,0.00095,0.00039,-3e-05,-0.00043,6,20
32606,1e-05,2e-05,3e-05,-0.00044,-0.00128,-0.00073,0.00012,0.00029,6,20
32607,1e-05,2e-05,3e-05,-0.00044,-0.00128,-0.00073,0.00012,0.00029,6,20
32608,1e-05,2e-05,3e-05,-0.00044,-0.00128,-0.00073,0.00012,0.00029,6,20
32609,1e-05,2e-05,3e-05,-0.00044,-0.00128,-0.00073,0.00012,0.00029,6,20
32611,1e-05,2e-05,3e-05,-0.00044,-0.00128,-0.00073,0.00012,0.00029,6,20
32612,1e-05,2e-05,3e-05,-0.00044,-0.00128,-0.00073,0.00012,0.00029,6,20
32613,1e-05,2e-05,3e-05,-0.00044,-0.00128,-0.00073,0.00012,0.00029,6,20
32614,1e-05,2e-05,3e-05,-0.00044,-0.00128,-0.00073,0.00012,0.00029,6,20
32615,1e-05,2e-05,3e-05,-0.00044,-0.00128,-0.00073,0.00012,0.00029,6,20
32616,1e-05,2e-05,3e-05,-0.00044,-0.00128,-0.00073,0.00012,0.00029,6,20
32617,1e-05,2e-05,3e-05,-0.00044,-0.00128,-0.00073,0.00012,0.00029,6,20
32618,1e-05,2e-05,3e-05,-0.00044,-0.00128,-0.00073,0.00012,0.00029,6,20
32619,1e-05,2e-05,3e-05,-0.00044,-0.00128,-0.00073,0.00012,0.00029,6,20
32620,1e-05,2e-05,3e-05,-0.00044,-0.00128,-0.00073,0.00012,0.00029,6,20
32621,1e-05,2e-05,3e-05,-0.00044,-0.00128,-0.00073,0.00012,0.00029,6,20
32622,1e-05,2e-05,3e-05,-0.00044,-0.00128,-0.00073,0.00012,0.00029,6,20
32623,1e-05,2e-05,3e-05,-0.00044,-0.00128,-0.00073,0.00012,0.00029,6,20
32624,1e-05,2e-05,3e-05,-0.00044,-0.00128,-0.00073,0.00012,0.00029,6,20
32625,1e-05,2e-05,3e-05,-0.00044,-0.00128,-0.00073,0.00012,0.00029,6,20
32626,-4e-05,-0.00017,-2e-05,0.0004,-3e-05,0.0003,0.00011,-0.00114,6,20
32627,-0.0002,5e-05,-2e-05,-0.00029,0.00057,0.00058,0.00032,0.00025,6,20
32628,-3e-05,-6e-05,-3e-05,0.00014,0.00065,-0.00055,0.00026,-0.00043,6,20
32629,-3e-05,-6e-05,-3e-05,0.00014,0.00065,-0.00055,0.00026,-0.00043,6,20
32630,-3e-05,-6e-05,-3e-05,0.00014,0.00065,-0.00055,0.00026,-0.00043,6,20
32631,-3e-05,-6e-05,-3e-05,0.00014,0.00065,-0.00055,0.00026,-0.00043,6,20
32632,-3e-05,-6e-05,-3e-05,0.00014,0.00065,-0.00055,0.00026,-0.00043,6,20
32633,-3e-05,-6e-05,-3e-05,0.00014,0.00065,-0.00055,0.00026,-0.00043,6,20
32634,-3e-05,-6e-05,-3e-05,0.00014,0.00065,-0.00055,0.00026,-0.00043,6,20
32635,-3e-05,-6e-05,-3e-05,0.00014,0.00065,-0.00055,0.00026,-0.00043,6,20
32636,-3e-05,-6e-05,-3e-05,0.00014,0.00065,-0.00055,0.00026,-0.00043,6,20
32638,-3e-05,-6e-05,-3e-05,0.00014,0.00065,-0.00055,0.00026,-0.00043,6,20
32640,0.00032,0.00015,3e-05,-0.0002,-0.00033,-0.00072,0.00054,0.00072,6,20
32641,0.00032,0.00015,3e-05,-0.0002,-0.00033,-0.00072,0.00054,0.00072,6,20
32642,0.00032,0.00015,3e-05,-0.0002,-0.00033,-0.00072,0.00054,0.00072,6,20
32643,0.00032,0.00015,3e-05,-0.0002,-0.00033,-0.00072,0.00054,0.00072,6,20
32644,0.00032,0.00015,3e-05,-0.0002,-0.00033,-0.00072,0.00054,0.00072,6,20
32645,0.00032,0.00015,3e-05,-0.0002,-0.00033,-0.00072,0.00054,0.00072,6,20
32646,0.00032,0.00015,3e-05,-0.0002,-0.00033,-0.00072,0.00054,0.00072,6,20
32647,0.00032,0.00015,3e-05,-0.0002,-0.00033,-0.00072,0.00054,0.00072,6,20
32648,0.00032,0.00015,3e-05,-0.0002,-0.00033,-0.00072,0.00054,0.00072,6,20
32649,0.00032,0.00015,3e-05,-0.0002,-0.00033,-0.00072,0.00054,0.00072,6,20
32650,0.00032,0.00015,3e-05,-0.0002,-0.00033,-0.00072,0.00054,0.00072,6,20
32651,0.00032,0.00015,3e-05,-0.0002,-0.00033,-0.00072,0.00054,0.00072,6,20
32652,0.00032,0.00015,3e-05,-0.0002,-0.00033,-0.00072,0.00054,0.00072,6,20
32653,0.00032,0.00015,3e-05,-0.0002,-0.00033,-0.00072,0.00054,0.00072,6,20
32654,0.00032,0.00015,3e-05,-0.0002,-0.00033,-0.00072,0.00054,0.00072,6,20
32655,-0.00016,-5e-05,-6e-05,-0.00017,-0.00059,0.00037,-0.0001,-0.00029,6,20
32656,-0.00016,-5e-05,-6e-05,-0.00017,-0.00059,0.00037,-0.0001,-0.00029,6,20
32657,-0.00016,-5e-05,-6e-05,-0.00017,-0.00059,0.00037,-0.0001,-0.00029,6,20
32658,-0.00016,-5e-05,-6e-05,-0.00017,-0.00059,0.00037,-0.0001,-0.00029,6,20
32659,-0.00016,-5e-05,-6e-05,-0.00017,-0.00059,0.00037,-0.0001,-0.00029,6,20
32660,-0.00016,-5e-05,-6e-05,-0.00017,-0.00059,0.00037,-0.0001,-0.00029,6,20
32661,-0.00016,-5e-05,-6e-05,-0.00017,-0.00059,0.00037,-0.0001,-0.00029,6,20
32662,-0.00016,-5e-05,-6e-05,-0.00017,-0.00059,0.00037,-0.0001,-0.00029,6,20
32663,-0.00016,-5e-05,-6e-05,-0.00017,-0.00059,0.00037,-0.0001,-0.00029,6,20
32664,-0.00016,-5e-05,-6e-05,-0.00017,-0.00059,0.00037,-0.0001,-0.00029,6,20
32665,-0.00016,-5e-05,-6e-05,-0.00017,-0.00059,0.00037,-0.0001,-0.00029,6,20
32666,-0.00016,-5e-05,-6e-05,-0.00017,-0.00059,0.00037,-0.0001,-0.00029,6,20
32667,-0.00016,-5e-05,-6e-05,-0.00017,-0.00059,0.00037,-0.0001,-0.00029,6,20
32668,-0.00016,-5e-05,-6e-05,-0.00017,-0.00059,0.00037,-0.0001,-0.00029,6,20
32669,-0.00016,-5e-05,-6e-05,-0.00017,-0.00059,0.00037,-0.0001,-0.00029,6,20
32670,-0.00016,-5e-05,-6e-05,-0.00017,-0.00059,0.00037,-0.0001,-0.00029,6,20
32671,-0.0004,-2e-05,-5e-05,-0.00013,-0.00021,0.00018,0,0.00035,6,20
32672,8e-05,-2e-05,3e-05,3e-05,0.00018,0.00075,0.00017,-0.00063,6,20
32673,0.00029,9e-05,0.00011,0.0006,0.0008,-0.00015,7e-05,0.00018,6,20
32674,0.00029,9e-05,0.00011,0.0006,0.0008,-0.00015,7e-05,0.00018,6,20
32675,0.00029,9e-05,0.00011,0.0006,0.0008,-0.00015,7e-05,0.00018,6,20
32676,0.00029,9e-05,0.00011,0.0006,0.0008,-0.00015,7e-05,0.00018,6,20
32677,0.00029,9e-05,0.00011,0.0006,0.0008,-0.00015,7e-05,0.00018,6,20
32678,0.00029,9e-05,0.00011,0.0006,0.0008,-0.00015,7e-05,0.00018,6,20
32679,0.00029,9e-05,0.00011,0.0006,0.0008,-0.00015,7e-05,0.00018,6,20
32680,0.00029,9e-05,0.00011,0.0006,0.0008,-0.00015,7e-05,0.00018,6,20
32681,0.00029,9e-05,0.00011,0.0006,0.0008,-0.00015,7e-05,0.00018,6,20
32682,0.00029,9e-05,0.00011,0.0006,0.0008,-0.00015,7e-05,0.00018,6,20
32683,0.00029,9e-05,0.00011,0.0006,0.0008,-0.00015,7e-05,0.00018,6,20
32684,0.00029,9e-05,0.00011,0.0006,0.0008,-0.00015,7e-05,0.00018,6,20
32685,0.00029,9e-05,0.00011,0.0006,0.0008,-0.00015,7e-05,0.00018,6,20
32687,0.00038,4e-05,-1e-05,-7e-05,-0.00068,0.00051,-0.00048,-0.00024,6,20
32690,8e-05,-1e-05,1e-05,0.00035,-0.00018,0.00074,0.00026,0.00016,6,20
32691,8e-05,-1e-05,1e-05,0.00035,-0.00018,0.00074,0.00026,0.00016,6,20
32692,8e-05,-1e-05,1e-05,0.00035,-0.00018,0.00074,0.00026,0.00016,6,20
32693,8e-05,-1e-05,1e-05,0.00035,-0.00018,0.00074,0.00026,0.00016,6,20
32694,8e-05,-1e-05,1e-05,0.00035,-0.00018,0.00074,0.00026,0.00016,6,20
32695,8e-05,-1e-05,1e-05,0.00035,-0.00018,0.00074,0.00026,0.00016,6,20
32696,8e-05,-1e-05,1e-05,0.00035,-0.00018,0.00074,0.00026,0.00016,6,20
32697,8e-05,-1e-05,1e-05,0.00035,-0.00018,0.00074,0.00026,0.00016,6,20
32698,8e-05,-1e-05,1e-05,0.00035,-0.00018,0.00074,0.00026,0.00016,6,20
32699,8e-05,-1e-05,1e-05,0.00035,-0.00018,0.00074,0.00026,0.00016,6,20
32700,0.00041,2e-05,-2e-05,4e-05,-0.00022,-3e-05,-0.00023,-0.0004,6,20
32701,0.00041,2e-05,-2e-05,4e-05,-0.00022,-3e-05,-0.00023,-0.0004,6,20
32702,0.00041,2e-05,-2e-05,4e-05,-0.00022,-3e-05,-0.00023,-0.0004,6,20
32703,0.00041,2e-05,-2e-05,4e-05,-0.00022,-3e-05,-0.00023,-0.0004,6,20
32704,0.00041,2e-05,-2e-05,4e-05,-0.00022,-3e-05,-0.00023,-0.0004,6,20
32705,0.00041,2e-05,-2e-05,4e-05,-0.00022,-3e-05,-0.00023,-0.0004,6,20
32706,0.00041,2e-05,-2e-05,4e-05,-0.00022,-3e-05,-0.00023,-0.0004,6,20
32707,0.00041,2e-05,-2e-05,4e-05,-0.00022,-3e-05,-0.00023,-0.0004,6,20
32708,0.00041,2e-05,-2e-05,4e-05,-0.00022,-3e-05,-0.00023,-0.0004,6,20
32709,1e-05,3e-05,-4e-05,-0.00023,0.00026,-0.00018,-0.00014,0.00024,6,20
32710,1e-05,3e-05,-4e-05,-0.00023,0.00026,-0.00018,-0.00014,0.00024,6,20
32711,1e-05,3e-05,-4e-05,-0.00023,0.00026,-0.00018,-0.00014,0.00024,6,20
32712,1e-05,3e-05,-4e-05,-0.00023,0.00026,-0.00018,-0.00014,0.00024,6,20
32713,1e-05,3e-05,-4e-05,-0.00023,0.00026,-0.00018,-0.00014,0.00024,6,20
32714,1e-05,3e-05,-4e-05,-0.00023,0.00026,-0.00018,-0.00014,0.00024,6,20
32715,1e-05,3e-05,-4e-05,-0.00023,0.00026,-0.00018,-0.00014,0.00024,6,20
32716,1e-05,3e-05,-4e-05,-0.00023,0.00026,-0.00018,-0.00014,0.00024,6,20
32717,1e-05,3e-05,-4e-05,-0.00023,0.00026,-0.00018,-0.00014,0.00024,6,20
32718,1e-05,3e-05,-4e-05,-0.00023,0.00026,-0.00018,-0.00014,0.00024,6,20
32719,1e-05,3e-05,-4e-05,-0.00023,0.00026,-0.00018,-0.00014,0.00024,6,20
32720,1e-05,3e-05,-4e-05,-0.00023,0.00026,-0.00018,-0.00014,0.00024,6,20
32721,1e-05,3e-05,-4e-05,-0.00023,0.00026,-0.00018,-0.00014,0.00024,6,20
32722,1e-05,3e-05,-4e-05,-0.00023,0.00026,-0.00018,-0.00014,0.00024,6,20
32723,1e-05,3e-05,-4e-05,-0.00023,0.00026,-0.00018,-0.00014,0.00024,6,20
32724,0.0001,1e-05,-6e-05,-0.00021,-0.00091,-0.00043,-0.00027,0.00025,6,20
32725,-0.00011,2e-05,5e-05,0.00031,0.00077,0.00036,-0.00048,-2e-05,6,20
32726,-0.00037,-6e-05,0,-0.00024,-0.00028,-0.00046,0.00037,-0.00083,6,20
32727,-0.00037,-6e-05,0,-0.00024,-0.00028,-0.00046,0.00037,-0.00083,6,20
32728,-0.00037,-6e-05,0,-0.00024,-0.00028,-0.00046,0.00037,-0.00083,6,20
32729,-0.00037,-6e-05,0,-0.00024,-0.00028,-0.00046,0.00037,-0.00083,6,20
32730,-0.00037,-6e-05,0,-0.00024,-0.00028,-0.00046,0.00037,-0.00083,6,20
32731,-0.00037,-6e-05,0,-0.00024,-0.00028,-0.00046,0.00037,-0.00083,6,20
32732,-0.00037,-6e-05,0,-0.00024,-0.00028,-0.00046,0.00037,-0.00083,6,20
32733,-0.00037,-6e-05,0,-0.00024,-0.00028,-0.00046,0.00037,-0.00083,6,20
32734,-0.00037,-6e-05,0,-0.00024,-0.00028,-0.00046,0.00037,-0.00083,6,20
32735,-0.00037,-6e-05,0,-0.00024,-0.00028,-0.00046,0.00037,-0.00083,6,20
32736,-0.00037,-6e-05,0,-0.00024,-0.00028,-0.00046,0.00037,-0.00083,6,20
32739,-0.00037,-6e-05,0,-0.00024,-0.00028,-0.00046,0.00037,-0.00083,6,20
32740,-0.00037,-6e-05,0,-0.00024,-0.00028,-0.00046,0.00037,-0.00083,6,20
32741,-0.00037,-6e-05,0,-0.00024,-0.00028,-0.00046,0.00037,-0.00083,6,20
32742,-0.00037,-6e-05,0,-0.00024,-0.00028,-0.00046,0.00037,-0.00083,6,20
32743,-0.00037,-6e-05,0,-0.00024,-0.00028,-0.00046,0.00037,-0.00083,6,20
32744,-0.00037,-6e-05,0,-0.00024,-0.00028,-0.00046,0.00037,-0.00083,6,20
32745,-0.00037,-6e-05,0,-0.00024,-0.00028,-0.00046,0.00037,-0.00083,6,20
32746,-0.00037,-6e-05,0,-0.00024,-0.00028,-0.00046,0.00037,-0.00083,6,20
32747,-0.00037,-6e-05,0,-0.00024,-0.00028,-0.00046,0.00037,-0.00083,6,20
32748,-0.00037,-6e-05,0,-0.00024,-0.00028,-0.00046,0.00037,-0.00083,6,20
32749,-0.00037,-6e-05,0,-0.00024,-0.00028,-0.00046,0.00037,-0.00083,6,20
32750,-0.00037,-6e-05,0,-0.00024,-0.00028,-0.00046,0.00037,-0.00083,6,20
32752,-0.00037,-6e-05,0,-0.00024,-0.00028,-0.00046,0.00037,-0.00083,6,20
32753,-0.00037,-6e-05,0,-0.00024,-0.00028,-0.00046,0.00037,-0.00083,6,20
32754,-0.00027,-8e-05,-8e-05,3e-05,0.00031,6e-05,-0.00019,-0.00079,6,20
32755,0.0003,3e-05,5e-05,0.00015,-0.00023,-0.00054,2e-05,-0.00038,6,20
32756,-0.00011,-5e-05,-4e-05,-0.0001,-8e-05,0.00083,6e-05,-1e-05,6,20
32757,-0.00011,-5e-05,-4e-05,-0.0001,-8e-05,0.00083,6e-05,-1e-05,6,20
32758,-0.00011,-5e-05,-4e-05,-0.0001,-8e-05,0.00083,6e-05,-1e-05,6,20
32759,-0.00011,-5e-05,-4e-05,-0.0001,-8e-05,0.00083,6e-05,-1e-05,6,20
32760,-0.00035,-5e-05,-0.00012,-0.00036,-0.00039,-0.00035,-3e-05,0.00012,6,20
32761,-0.00035,-5e-05,-0.00012,-0.00036,-0.00039,-0.00035,-3e-05,0.00012,6,20
32762,-0.00035,-5e-05,-0.00012,-0.00036,-0.00039,-0.00035,-3e-05,0.00012,6,20
32763,-0.00035,-5e-05,-0.00012,-0.00036,-0.00039,-0.00035,-3e-05,0.00012,6,20
32764,-0.00035,-5e-05,-0.00012,-0.00036,-0.00039,-0.00035,-3e-05,0.00012,6,20
32765,-0.00035,-5e-05,-0.00012,-0.00036,-0.00039,-0.00035,-3e-05,0.00012,6,20
32766,-0.00035,-5e-05,-0.00012,-0.00036,-0.00039,-0.00035,-3e-05,0.00012,6,20
32767,-0.00035,-5e-05,-0.00012,-0.00036,-0.00039,-0.00035,-3e-05,0.00012,6,20
32768,-0.00035,-5e-05,-0.00012,-0.00036,-0.00039,-0.00035,-3e-05,0.00012,6,20
32769,-0.00035,-5e-05,-0.00012,-0.00036,-0.00039,-0.00035,-3e-05,0.00012,6,20
32770,8e-05,-1e-05,-5e-05,-0.0001,-0.00028,-0.00094,-0.00031,-0.00078,6,20
32771,8e-05,-1e-05,-5e-05,-0.0001,-0.00028,-0.00094,-0.00031,-0.00078,6,20
32772,8e-05,-1e-05,-5e-05,-0.0001,-0.00028,-0.00094,-0.00031,-0.00078,6,20
32773,8e-05,-1e-05,-5e-05,-0.0001,-0.00028,-0.00094,-0.00031,-0.00078,6,20
32774,8e-05,-1e-05,-5e-05,-0.0001,-0.00028,-0.00094,-0.00031,-0.00078,6,20
32775,8e-05,-1e-05,-5e-05,-0.0001,-0.00028,-0.00094,-0.00031,-0.00078,6,20
32776,8e-05,-1e-05,-5e-05,-0.0001,-0.00028,-0.00094,-0.00031,-0.00078,6,20
32777,8e-05,-1e-05,-5e-05,-0.0001,-0.00028,-0.00094,-0.00031,-0.00078,6,20
32778,8e-05,-1e-05,-5e-05,-0.0001,-0.00028,-0.00094,-0.00031,-0.00078,6,20
32779,8e-05,-1e-05,-5e-05,-0.0001,-0.00028,-0.00094,-0.00031,-0.00078,6,20
32780,8e-05,-1e-05,-5e-05,-0.0001,-0.00028,-0.00094,-0.00031,-0.00078,6,20
32781,8e-05,-1e-05,-5e-05,-0.0001,-0.00028,-0.00094,-0.00031,-0.00078,6,20
32782,8e-05,-1e-05,-5e-05,-0.0001,-0.00028,-0.00094,-0.00031,-0.00078,6,20
32783,8e-05,-1e-05,-5e-05,-0.0001,-0.00028,-0.00094,-0.00031,-0.00078,6,20
32784,8e-05,-1e-05,-5e-05,-0.0001,-0.00028,-0.00094,-0.00031,-0.00078,6,20
32785,0.00034,9e-05,6e-05,1e-05,0.00027,0.00041,0.00016,4e-05,6,20
32786,0.00034,9e-05,6e-05,1e-05,0.00027,0.00041,0.00016,4e-05,6,20
32789,-0.00026,-0.00011,-8e-05,-0.00035,-0.00072,-0.00043,0.00015,0.00036,6,20
32790,-0.00026,-0.00011,-8e-05,-0.00035,-0.00072,-0.00043,0.00015,0.00036,6,20
32791,-0.00026,-0.00011,-8e-05,-0.00035,-0.00072,-0.00043,0.00015,0.00036,6,20
32792,-0.00026,-0.00011,-8e-05,-0.00035,-0.00072,-0.00043,0.00015,0.00036,6,20
32793,-0.00026,-0.00011,-8e-05,-0.00035,-0.00072,-0.00043,0.00015,0.00036,6,20
32794,-0.00026,-0.00011,-8e-05,-0.00035,-0.00072,-0.00043,0.00015,0.00036,6,20
32795,-0.00026,-0.00011,-8e-05,-0.00035,-0.00072,-0.00043,0.00015,0.00036,6,20
32796,-0.00026,-0.00011,-8e-05,-0.00035,-0.00072,-0.00043,0.00015,0.00036,6,20
32797,-0.00026,-0.00011,-8e-05,-0.00035,-0.00072,-0.00043,0.00015,0.00036,6,20
32798,-0.00026,-0.00011,-8e-05,-0.00035,-0.00072,-0.00043,0.00015,0.00036,6,20
32799,-0.00026,-0.00011,-8e-05,-0.00035,-0.00072,-0.00043,0.00015,0.00036,6,20
32800,-0.00026,-0.00011,-8e-05,-0.00035,-0.00072,-0.00043,0.00015,0.00036,6,20
32801,-0.00026,-0.00011,-8e-05,-0.00035,-0.00072,-0.00043,0.00015,0.00036,6,20
32802,-0.00026,-0.00011,-8e-05,-0.00035,-0.00072,-0.00043,0.00015,0.00036,6,20
32803,-0.00026,-0.00011,-8e-05,-0.00035,-0.00072,-0.00043,0.00015,0.00036,6,20
32804,-0.00026,-0.00011,-8e-05,-0.00035,-0.00072,-0.00043,0.00015,0.00036,6,20
32805,-0.00026,-0.00011,-8e-05,-0.00035,-0.00072,-0.00043,0.00015,0.00036,6,20
32806,0.00011,5e-05,2e-05,5e-05,0.00065,-9e-05,-5e-05,0.00033,6,20
32807,-5e-05,-5e-05,0,0.00027,0.00044,0.00022,0.0002,-0.00015,6,20
32808,1e-05,-8e-05,-4e-05,0.00018,-0.00035,4e-05,-0.00012,2e-05,6,20
32809,1e-05,-8e-05,-4e-05,0.00018,-0.00035,4e-05,-0.00012,2e-05,6,20
32810,1e-05,-8e-05,-4e-05,0.00018,-0.00035,4e-05,-0.00012,2e-05,6,20
32811,1e-05,-8e-05,-4e-05,0.00018,-0.00035,4e-05,-0.00012,2e-05,6,20
32812,1e-05,-8e-05,-4e-05,0.00018,-0.00035,4e-05,-0.00012,2e-05,6,20
32813,1e-05,-8e-05,-4e-05,0.00018,-0.00035,4e-05,-0.00012,2e-05,6,20
32814,1e-05,-8e-05,-4e-05,0.00018,-0.00035,4e-05,-0.00012,2e-05,6,20
32815,1e-05,-8e-05,-4e-05,0.00018,-0.00035,4e-05,-0.00012,2e-05,6,20
32816,1e-05,-8e-05,-4e-05,0.00018,-0.00035,4e-05,-0.00012,2e-05,6,20
32817,1e-05,-8e-05,-4e-05,0.00018,-0.00035,4e-05,-0.00012,2e-05,6,20
32818,1e-05,-8e-05,-4e-05,0.00018,-0.00035,4e-05,-0.00012,2e-05,6,20
32819,1e-05,-8e-05,-4e-05,0.00018,-0.00035,4e-05,-0.00012,2e-05,6,20
32820,1e-05,-8e-05,-4e-05,0.00018,-0.00035,4e-05,-0.00012,2e-05,6,20
32821,1e-05,-8e-05,-4e-05,0.00018,-0.00035,4e-05,-0.00012,2e-05,6,20
32822,1e-05,-8e-05,-4e-05,0.00018,-0.00035,4e-05,-0.00012,2e-05,6,20
32823,1e-05,-8e-05,-4e-05,0.00018,-0.00035,4e-05,-0.00012,2e-05,6,20
32824,1e-05,-8e-05,-4e-05,0.00018,-0.00035,4e-05,-0.00012,2e-05,6,20
32825,1e-05,-8e-05,-4e-05,0.00018,-0.00035,4e-05,-0.00012,2e-05,6,20
32826,1e-05,-8e-05,-4e-05,0.00018,-0.00035,4e-05,-0.00012,2e-05,6,20
32827,1e-05,-8e-05,-4e-05,0.00018,-0.00035,4e-05,-0.00012,2e-05,6,20
32828,1e-05,-8e-05,-4e-05,0.00018,-0.00035,4e-05,-0.00012,2e-05,6,20
32829,1e-05,-8e-05,-4e-05,0.00018,-0.00035,4e-05,-0.00012,2e-05,6,20
32830,1e-05,-8e-05,-4e-05,0.00018,-0.00035,4e-05,-0.00012,2e-05,6,20
32831,1e-05,-8e-05,-4e-05,0.00018,-0.00035,4e-05,-0.00012,2e-05,6,20
32832,1e-05,-8e-05,-4e-05,0.00018,-0.00035,4e-05,-0.00012,2e-05,6,20
32833,1e-05,-8e-05,-4e-05,0.00018,-0.00035,4e-05,-0.00012,2e-05,6,20
32834,1e-05,-8e-05,-4e-05,0.00018,-0.00035,4e-05,-0.00012,2e-05,6,20
32835,1e-05,-8e-05,-4e-05,0.00018,-0.00035,4e-05,-0.00012,2e-05,6,20
32836,-0.00023,-4e-05,-0.00011,-0.00046,-0.00069,-0.00066,-0.00026,-0.00086,6,20
32839,0.00018,-4e-05,-4e-05,-0.00012,-0.00017,-0.00043,-0.0003,0.00028,6,20
32840,0.00018,-4e-05,-4e-05,-0.00012,-0.00017,-0.00043,-0.0003,0.00028,6,20
32841,0.00018,-4e-05,-4e-05,-0.00012,-0.00017,-0.00043,-0.0003,0.00028,6,20
32842,0.00018,-4e-05,-4e-05,-0.00012,-0.00017,-0.00043,-0.0003,0.00028,6,20
32843,0.00018,-4e-05,-4e-05,-0.00012,-0.00017,-0.00043,-0.0003,0.00028,6,20
32844,-0.00016,2e-05,0.00012,0.00027,-5e-05,-0.00021,-0.0002,-6e-05,6,20
32845,-0.00016,2e-05,0.00012,0.00027,-5e-05,-0.00021,-0.0002,-6e-05,6,20
32846,-6e-05,6e-05,7e-05,0.00027,0.00102,-0.00038,-0.0003,0.00022,6,20
32847,-6e-05,6e-05,7e-05,0.00027,0.00102,-0.00038,-0.0003,0.00022,6,20
32848,-6e-05,6e-05,7e-05,0.00027,0.00102,-0.00038,-0.0003,0.00022,6,20
32849,-6e-05,6e-05,7e-05,0.00027,0.00102,-0.00038,-0.0003,0.00022,6,20
32850,-6e-05,6e-05,7e-05,0.00027,0.00102,-0.00038,-0.0003,0.00022,6,20
32851,-6e-05,6e-05,7e-05,0.00027,0.00102,-0.00038,-0.0003,0.00022,6,20
32852,-6e-05,6e-05,7e-05,0.00027,0.00102,-0.00038,-0.0003,0.00022,6,20
32853,-6e-05,6e-05,7e-05,0.00027,0.00102,-0.00038,-0.0003,0.00022,6,20
32854,-6e-05,6e-05,7e-05,0.00027,0.00102,-0.00038,-0.0003,0.00022,6,20
32855,-6e-05,6e-05,7e-05,0.00027,0.00102,-0.00038,-0.0003,0.00022,6,20
32856,-6e-05,6e-05,7e-05,0.00027,0.00102,-0.00038,-0.0003,0.00022,6,20
32857,-6e-05,6e-05,7e-05,0.00027,0.00102,-0.00038,-0.0003,0.00022,6,20
32858,-6e-05,6e-05,7e-05,0.00027,0.00102,-0.00038,-0.0003,0.00022,6,20
32859,-6e-05,6e-05,7e-05,0.00027,0.00102,-0.00038,-0.0003,0.00022,6,20
32860,-6e-05,6e-05,7e-05,0.00027,0.00102,-0.00038,-0.0003,0.00022,6,20
32861,-6e-05,6e-05,7e-05,0.00027,0.00102,-0.00038,-0.0003,0.00022,6,20
32862,-6e-05,6e-05,7e-05,0.00027,0.00102,-0.00038,-0.0003,0.00022,6,20
32863,-6e-05,6e-05,7e-05,0.00027,0.00102,-0.00038,-0.0003,0.00022,6,20
32864,-6e-05,6e-05,7e-05,0.00027,0.00102,-0.00038,-0.0003,0.00022,6,20
32865,-6e-05,6e-05,7e-05,0.00027,0.00102,-0.00038,-0.0003,0.00022,6,20
32866,-6e-05,6e-05,7e-05,0.00027,0.00102,-0.00038,-0.0003,0.00022,6,20
32867,-0.00028,-1e-05,-3e-05,-0.00025,-0.0004,6e-05,-0.00014,-0.00032,6,20
32868,-3e-05,4e-05,5e-05,0.00034,0.0003,0.00012,8e-05,0.00034,6,20
32869,-3e-05,4e-05,5e-05,0.00034,0.0003,0.00012,8e-05,0.00034,6,20
32870,-3e-05,4e-05,5e-05,0.00034,0.0003,0.00012,8e-05,0.00034,6,20
32871,-3e-05,4e-05,5e-05,0.00034,0.0003,0.00012,8e-05,0.00034,6,20
32872,-3e-05,4e-05,5e-05,0.00034,0.0003,0.00012,8e-05,0.00034,6,20
32873,-3e-05,4e-05,5e-05,0.00034,0.0003,0.00012,8e-05,0.00034,6,20
32874,-3e-05,4e-05,5e-05,0.00034,0.0003,0.00012,8e-05,0.00034,6,20
32875,-3e-05,4e-05,5e-05,0.00034,0.0003,0.00012,8e-05,0.00034,6,20
32876,-3e-05,4e-05,5e-05,0.00034,0.0003,0.00012,8e-05,0.00034,6,20
32877,-3e-05,4e-05,5e-05,0.00034,0.0003,0.00012,8e-05,0.00034,6,20
32878,-3e-05,4e-05,5e-05,0.00034,0.0003,0.00012,8e-05,0.00034,6,20
32879,-3e-05,4e-05,5e-05,0.00034,0.0003,0.00012,8e-05,0.00034,6,20
32880,-3e-05,4e-05,5e-05,0.00034,0.0003,0.00012,8e-05,0.00034,6,20
32881,-3e-05,4e-05,5e-05,0.00034,0.0003,0.00012,8e-05,0.00034,6,20
32882,-3e-05,4e-05,5e-05,0.00034,0.0003,0.00012,8e-05,0.00034,6,20
32883,-3e-05,4e-05,5e-05,0.00034,0.0003,0.00012,8e-05,0.00034,6,20
32884,-3e-05,4e-05,5e-05,0.00034,0.0003,0.00012,8e-05,0.00034,6,20
32885,-3e-05,4e-05,5e-05,0.00034,0.0003,0.00012,8e-05,0.00034,6,20
32886,-3e-05,4e-05,5e-05,0.00034,0.0003,0.00012,8e-05,0.00034,6,20
32888,-3e-05,4e-05,5e-05,0.00034,0.0003,0.00012,8e-05,0.00034,6,20
32889,-3e-05,4e-05,5e-05,0.00034,0.0003,0.00012,8e-05,0.00034,6,20
32890,-3e-05,4e-05,5e-05,0.00034,0.0003,0.00012,8e-05,0.00034,6,20
32891,-3e-05,4e-05,5e-05,0.00034,0.0003,0.00012,8e-05,0.00034,6,20
32892,-3e-05,4e-05,5e-05,0.00034,0.0003,0.00012,8e-05,0.00034,6,20
32893,-3e-05,4e-05,5e-05,0.00034,0.0003,0.00012,8e-05,0.00034,6,20
32894,-3e-05,4e-05,5e-05,0.00034,0.0003,0.00012,8e-05,0.00034,6,20
32895,-3e-05,4e-05,5e-05,0.00034,0.0003,0.00012,8e-05,0.00034,6,20
32896,-6e-05,2e-05,-1e-05,-0.00022,-0.00043,-0.00049,0,4e-05,6,20
32897,-0.00015,-9e-05,-9e-05,-0.0001,0.0004,-0.00021,-4e-05,-0.00032,6,20
32898,0.00014,0,-0.00013,-0.00054,-0.00015,0.00012,-1e-05,-2e-05,6,20
32899,0.00014,0,-0.00013,-0.00054,-0.00015,0.00012,-1e-05,-2e-05,6,20
32900,0.00014,0,-0.00013,-0.00054,-0.00015,0.00012,-1e-05,-2e-05,6,20
32901,0.00014,0,-0.00013,-0.00054,-0.00015,0.00012,-1e-05,-2e-05,6,20
32902,0.00014,0,-0.00013,-0.00054,-0.00015,0.00012,-1e-05,-2e-05,6,20
32903,0.00014,0,-0.00013,-0.00054,-0.00015,0.00012,-1e-05,-2e-05,6,20
32904,0.00015,7e-05,2e-05,0.00015,-0.0003,0.00025,1e-05,0.00019,6,20
32905,-0.00012,-6e-05,-4e-05,-0.00018,0.0001,-0.00015,-0.00016,0.00011,6,20
32906,-0.0001,0,1e-05,2e-05,-3e-05,0.00081,0.00054,-1e-05,6,20
32907,-0.0001,0,1e-05,2e-05,-3e-05,0.00081,0.00054,-1e-05,6,20
32908,-0.0001,0,1e-05,2e-05,-3e-05,0.00081,0.00054,-1e-05,6,20
32909,-0.0001,0,1e-05,2e-05,-3e-05,0.00081,0.00054,-1e-05,6,20
32910,-0.0001,0,1e-05,2e-05,-3e-05,0.00081,0.00054,-1e-05,6,20
32911,-0.0001,0,1e-05,2e-05,-3e-05,0.00081,0.00054,-1e-05,6,20
32912,-0.0001,0,1e-05,2e-05,-3e-05,0.00081,0.00054,-1e-05,6,20
32913,-0.0001,0,1e-05,2e-05,-3e-05,0.00081,0.00054,-1e-05,6,20
32914,-0.0001,0,1e-05,2e-05,-3e-05,0.00081,0.00054,-1e-05,6,20
32915,-0.0001,0,1e-05,2e-05,-3e-05,0.00081,0.00054,-1e-05,6,20
32916,-0.0001,0,1e-05,2e-05,-3e-05,0.00081,0.00054,-1e-05,6,20
32917,-0.0001,0,1e-05,2e-05,-3e-05,0.00081,0.00054,-1e-05,6,20
32918,-0.0001,0,1e-05,2e-05,-3e-05,0.00081,0.00054,-1e-05,6,20
32919,-0.0001,0,1e-05,2e-05,-3e-05,0.00081,0.00054,-1e-05,6,20
32920,-0.0001,0,1e-05,2e-05,-3e-05,0.00081,0.00054,-1e-05,6,20
32921,-0.0001,0,1e-05,2e-05,-3e-05,0.00081,0.00054,-1e-05,6,20
32922,-0.0001,0,1e-05,2e-05,-3e-05,0.00081,0.00054,-1e-05,6,20
32923,-0.0001,0,1e-05,2e-05,-3e-05,0.00081,0.00054,-1e-05,6,20
32924,-0.0001,0,1e-05,2e-05,-3e-05,0.00081,0.00054,-1e-05,6,20
32925,-0.0001,0,1e-05,2e-05,-3e-05,0.00081,0.00054,-1e-05,6,20
32926,-0.00035,-6e-05,-2e-05,-7e-05,-8e-05,0.00012,-6e-05,-0.00048,6,20
32927,-5e-05,0,-1e-05,0.00016,0.00076,0.00069,0.00038,0.00063,6,20
32928,-0.00022,1e-05,2e-05,-5e-05,-4e-05,-0.00026,-0.00023,0.00069,6,20
32929,-0.00022,1e-05,2e-05,-5e-05,-4e-05,-0.00026,-0.00023,0.00069,6,20
32930,-0.00022,1e-05,2e-05,-5e-05,-4e-05,-0.00026,-0.00023,0.00069,6,20
32931,-0.00022,1e-05,2e-05,-5e-05,-4e-05,-0.00026,-0.00023,0.00069,6,20
32932,-0.00022,1e-05,2e-05,-5e-05,-4e-05,-0.00026,-0.00023,0.00069,6,20
32933,-0.00022,1e-05,2e-05,-5e-05,-4e-05,-0.00026,-0.00023,0.00069,6,20
32934,-0.00022,1e-05,2e-05,-5e-05,-4e-05,-0.00026,-0.00023,0.00069,6,20
32935,-0.00022,1e-05,2e-05,-5e-05,-4e-05,-0.00026,-0.00023,0.00069,6,20
32936,-0.00022,1e-05,2e-05,-5e-05,-4e-05,-0.00026,-0.00023,0.00069,6,20
32939,-0.00022,1e-05,2e-05,-5e-05,-4e-05,-0.00026,-0.00023,0.00069,6,20
32940,-0.00022,1e-05,2e-05,-5e-05,-4e-05,-0.00026,-0.00023,0.00069,6,20
32941,-0.00022,1e-05,2e-05,-5e-05,-4e-05,-0.00026,-0.00023,0.00069,6,20
32942,-0.00022,1e-05,2e-05,-5e-05,-4e-05,-0.00026,-0.00023,0.00069,6,20
32943,-0.00022,1e-05,2e-05,-5e-05,-4e-05,-0.00026,-0.00023,0.00069,6,20
32944,-0.00022,1e-05,2e-05,-5e-05,-4e-05,-0.00026,-0.00023,0.00069,6,20
32945,-0.00022,1e-05,2e-05,-5e-05,-4e-05,-0.00026,-0.00023,0.00069,6,20
32946,-0.00022,1e-05,2e-05,-5e-05,-4e-05,-0.00026,-0.00023,0.00069,6,20
32947,-0.00022,1e-05,2e-05,-5e-05,-4e-05,-0.00026,-0.00023,0.00069,6,20
32948,-0.00022,1e-05,2e-05,-5e-05,-4e-05,-0.00026,-0.00023,0.00069,6,20
32949,5e-05,1e-05,-2e-05,-7e-05,0.00043,0.00077,0.00023,-0.00036,6,20
32950,-7e-05,-5e-05,2e-05,-0.00016,-0.00082,-0.00086,-0.00031,-0.00016,6,20
32951,-0.00069,-0.0001,-3e-05,-3e-05,-0.00029,-0.00052,-7e-05,-0.00068,6,20
32952,-0.00069,-0.0001,-3e-05,-3e-05,-0.00029,-0.00052,-7e-05,-0.00068,6,20
32953,-0.00069,-0.0001,-3e-05,-3e-05,-0.00029,-0.00052,-7e-05,-0.00068,6,20
32954,-0.00069,-0.0001,-3e-05,-3e-05,-0.00029,-0.00052,-7e-05,-0.00068,6,20
32955,-0.00069,-0.0001,-3e-05,-3e-05,-0.00029,-0.00052,-7e-05,-0.00068,6,20
32956,-0.00069,-0.0001,-3e-05,-3e-05,-0.00029,-0.00052,-7e-05,-0.00068,6,20
32957,-0.00069,-0.0001,-3e-05,-3e-05,-0.00029,-0.00052,-7e-05,-0.00068,6,20
32958,-0.00069,-0.0001,-3e-05,-3e-05,-0.00029,-0.00052,-7e-05,-0.00068,6,20
32959,-0.00069,-0.0001,-3e-05,-3e-05,-0.00029,-0.00052,-7e-05,-0.00068,6,20
32960,-0.00069,-0.0001,-3e-05,-3e-05,-0.00029,-0.00052,-7e-05,-0.00068,6,20
32961,-0.00069,-0.0001,-3e-05,-3e-05,-0.00029,-0.00052,-7e-05,-0.00068,6,20
32962,-0.00069,-0.0001,-3e-05,-3e-05,-0.00029,-0.00052,-7e-05,-0.00068,6,20
32963,-0.00023,-0.0001,-7e-05,-2e-05,0.00015,-0.0012,-0.00028,-0.00043,6,20
32964,-0.00023,-0.0001,-7e-05,-2e-05,0.00015,-0.0012,-0.00028,-0.00043,6,20
32965,-0.00023,-0.0001,-7e-05,-2e-05,0.00015,-0.0012,-0.00028,-0.00043,6,20
32966,-0.00023,-0.0001,-7e-05,-2e-05,0.00015,-0.0012,-0.00028,-0.00043,6,20
32967,-0.00023,-0.0001,-7e-05,-2e-05,0.00015,-0.0012,-0.00028,-0.00043,6,20
32968,-0.00023,-0.0001,-7e-05,-2e-05,0.00015,-0.0012,-0.00028,-0.00043,6,20
32969,-0.00023,-0.0001,-7e-05,-2e-05,0.00015,-0.0012,-0.00028,-0.00043,6,20
32970,-0.00023,-0.0001,-7e-05,-2e-05,0.00015,-0.0012,-0.00028,-0.00043,6,20
32972,-0.00023,-0.0001,-7e-05,-2e-05,0.00015,-0.0012,-0.00028,-0.00043,6,20
32973,-0.00023,-0.0001,-7e-05,-2e-05,0.00015,-0.0012,-0.00028,-0.00043,6,20
32974,-0.00023,-0.0001,-7e-05,-2e-05,0.00015,-0.0012,-0.00028,-0.00043,6,20
32975,-0.00023,-0.0001,-7e-05,-2e-05,0.00015,-0.0012,-0.00028,-0.00043,6,20
32976,-0.00023,-0.0001,-7e-05,-2e-05,0.00015,-0.0012,-0.00028,-0.00043,6,20
32977,-0.00023,-0.0001,-7e-05,-2e-05,0.00015,-0.0012,-0.00028,-0.00043,6,20
32978,0.00028,-7e-05,-6e-05,-7e-05,0.00046,6e-05,-0.00019,-0.00033,6,20
32979,0.00028,-7e-05,-6e-05,-7e-05,0.00046,6e-05,-0.00019,-0.00033,6,20
32980,0.00028,-7e-05,-6e-05,-7e-05,0.00046,6e-05,-0.00019,-0.00033,6,20
32981,0.00028,-7e-05,-6e-05,-7e-05,0.00046,6e-05,-0.00019,-0.00033,6,20
32982,0.00028,-7e-05,-6e-05,-7e-05,0.00046,6e-05,-0.00019,-0.00033,6,20
32983,0.00028,-7e-05,-6e-05,-7e-05,0.00046,6e-05,-0.00019,-0.00033,6,20
32984,0.00028,-7e-05,-6e-05,-7e-05,0.00046,6e-05,-0.00019,-0.00033,6,20
32985,0.00028,-7e-05,-6e-05,-7e-05,0.00046,6e-05,-0.00019,-0.00033,6,20
32987,6e-05,1e-05,0,0,0.00068,0.00066,-0.00028,0.0003,6,20
32990,0.00038,-5e-05,-6e-05,-0.00032,-0.00025,0.00076,0.00024,7e-05,6,20
32991,0.00038,-5e-05,-6e-05,-0.00032,-0.00025,0.00076,0.00024,7e-05,6,20
32992,0.00038,-5e-05,-6e-05,-0.00032,-0.00025,0.00076,0.00024,7e-05,6,20
32993,0.00038,-5e-05,-6e-05,-0.00032,-0.00025,0.00076,0.00024,7e-05,6,20
32994,0.00038,-5e-05,-6e-05,-0.00032,-0.00025,0.00076,0.00024,7e-05,6,20
32995,0.00038,-5e-05,-6e-05,-0.00032,-0.00025,0.00076,0.00024,7e-05,6,20
32996,0.00038,-5e-05,-6e-05,-0.00032,-0.00025,0.00076,0.00024,7e-05,6,20
32997,0.00038,-5e-05,-6e-05,-0.00032,-0.00025,0.00076,0.00024,7e-05,6,20
32998,0.00038,-5e-05,-6e-05,-0.00032,-0.00025,0.00076,0.00024,7e-05,6,20
32999,0.00038,-5e-05,-6e-05,-0.00032,-0.00025,0.00076,0.00024,7e-05,6,20
33000,0.00038,-5e-05,-6e-05,-0.00032,-0.00025,0.00076,0.00024,7e-05,6,20
33001,0.00038,-5e-05,-6e-05,-0.00032,-0.00025,0.00076,0.00024,7e-05,6,20
33002,0.00038,-5e-05,-6e-05,-0.00032,-0.00025,0.00076,0.00024,7e-05,6,20
33003,0.00038,-5e-05,-6e-05,-0.00032,-0.00025,0.00076,0.00024,7e-05,6,20
33004,0.00038,-5e-05,-6e-05,-0.00032,-0.00025,0.00076,0.00024,7e-05,6,20
33005,0.00038,-5e-05,-6e-05,-0.00032,-0.00025,0.00076,0.00024,7e-05,6,20
33006,0.00038,-5e-05,-6e-05,-0.00032,-0.00025,0.00076,0.00024,7e-05,6,20
33007,0.00038,-5e-05,-6e-05,-0.00032,-0.00025,0.00076,0.00024,7e-05,6,20
33008,0.00038,-5e-05,-6e-05,-0.00032,-0.00025,0.00076,0.00024,7e-05,6,20
33009,0,-6e-05,-0.00014,-0.00018,-0.00025,-0.00098,-0.00013,7e-05,6,20
33010,0.00031,8e-05,0,-3e-05,-4e-05,-0.00083,2e-05,0.00036,6,20
33011,0.00031,8e-05,0,-3e-05,-4e-05,-0.00083,2e-05,0.00036,6,20
33012,0.00031,8e-05,0,-3e-05,-4e-05,-0.00083,2e-05,0.00036,6,20
33013,0.00031,8e-05,0,-3e-05,-4e-05,-0.00083,2e-05,0.00036,6,20
33014,0.00031,8e-05,0,-3e-05,-4e-05,-0.00083,2e-05,0.00036,6,20
33015,0.00031,8e-05,0,-3e-05,-4e-05,-0.00083,2e-05,0.00036,6,20
33016,0.00031,8e-05,0,-3e-05,-4e-05,-0.00083,2e-05,0.00036,6,20
33017,0.00031,8e-05,0,-3e-05,-4e-05,-0.00083,2e-05,0.00036,6,20
33018,0.00031,8e-05,0,-3e-05,-4e-05,-0.00083,2e-05,0.00036,6,20
33019,0.00031,8e-05,0,-3e-05,-4e-05,-0.00083,2e-05,0.00036,6,20
33020,0.00031,8e-05,0,-3e-05,-4e-05,-0.00083,2e-05,0.00036,6,20
33021,0.00031,8e-05,0,-3e-05,-4e-05,-0.00083,2e-05,0.00036,6,20
33022,0.00031,8e-05,0,-3e-05,-4e-05,-0.00083,2e-05,0.00036,6,20
33023,0.00031,8e-05,0,-3e-05,-4e-05,-0.00083,2e-05,0.00036,6,20
33024,0.00031,8e-05,0,-3e-05,-4e-05,-0.00083,2e-05,0.00036,6,20
33025,0.00031,8e-05,0,-3e-05,-4e-05,-0.00083,2e-05,0.00036,6,20
33026,0.00031,8e-05,0,-3e-05,-4e-05,-0.00083,2e-05,0.00036,6,20
33027,0.00031,8e-05,0,-3e-05,-4e-05,-0.00083,2e-05,0.00036,6,20
33028,0.00031,8e-05,0,-3e-05,-4e-05,-0.00083,2e-05,0.00036,6,20
33029,0.00031,8e-05,0,-3e-05,-4e-05,-0.00083,2e-05,0.00036,6,20
33030,0.00031,8e-05,0,-3e-05,-4e-05,-0.00083,2e-05,0.00036,6,20
33031,0.00031,8e-05,0,-3e-05,-4e-05,-0.00083,2e-05,0.00036,6,20
33032,0.00031,8e-05,0,-3e-05,-4e-05,-0.00083,2e-05,0.00036,6,20
33033,3e-05,-1e-05,2e-05,4e-05,0.00013,0.0001,-0.0001,-0.00022,6,20
33034,3e-05,-1e-05,2e-05,4e-05,0.00013,0.0001,-0.0001,-0.00022,6,20
33035,3e-05,-1e-05,2e-05,4e-05,0.00013,0.0001,-0.0001,-0.00022,6,20
33037,3e-05,-1e-05,2e-05,4e-05,0.00013,0.0001,-0.0001,-0.00022,6,20
33039,3e-05,-1e-05,2e-05,4e-05,0.00013,0.0001,-0.0001,-0.00022,6,20
33040,3e-05,-1e-05,2e-05,4e-05,0.00013,0.0001,-0.0001,-0.00022,6,20
33041,3e-05,-1e-05,2e-05,4e-05,0.00013,0.0001,-0.0001,-0.00022,6,20
33042,3e-05,-1e-05,2e-05,4e-05,0.00013,0.0001,-0.0001,-0.00022,6,20
33043,3e-05,-1e-05,2e-05,4e-05,0.00013,0.0001,-0.0001,-0.00022,6,20
33044,3e-05,-1e-05,2e-05,4e-05,0.00013,0.0001,-0.0001,-0.00022,6,20
33045,3e-05,-1e-05,2e-05,4e-05,0.00013,0.0001,-0.0001,-0.00022,6,20
33046,0.00018,4e-05,-1e-05,2e-05,0.00014,0.00049,0.00014,-0.00028,6,20
33047,0.00018,4e-05,-1e-05,2e-05,0.00014,0.00049,0.00014,-0.00028,6,20
33048,-9e-05,-3e-05,-4e-05,3e-05,-0.00038,-0.00037,0.0004,-0.00013,6,20
33049,-9e-05,-3e-05,-4e-05,3e-05,-0.00038,-0.00037,0.0004,-0.00013,6,20
33050,-9e-05,-3e-05,-4e-05,3e-05,-0.00038,-0.00037,0.0004,-0.00013,6,20
33051,-9e-05,-3e-05,-4e-05,3e-05,-0.00038,-0.00037,0.0004,-0.00013,6,20
33052,-9e-05,-3e-05,-4e-05,3e-05,-0.00038,-0.00037,0.0004,-0.00013,6,20
33053,-9e-05,-3e-05,-4e-05,3e-05,-0.00038,-0.00037,0.0004,-0.00013,6,20
33054,-9e-05,-3e-05,-4e-05,3e-05,-0.00038,-0.00037,0.0004,-0.00013,6,20
33055,-9e-05,-3e-05,-4e-05,3e-05,-0.00038,-0.00037,0.0004,-0.00013,6,20
33056,-9e-05,-3e-05,-4e-05,3e-05,-0.00038,-0.00037,0.0004,-0.00013,6,20
33057,-9e-05,-3e-05,-4e-05,3e-05,-0.00038,-0.00037,0.0004,-0.00013,6,20
33058,-9e-05,-3e-05,-4e-05,3e-05,-0.00038,-0.00037,0.0004,-0.00013,6,20
33059,-9e-05,-3e-05,-4e-05,3e-05,-0.00038,-0.00037,0.0004,-0.00013,6,20
33060,-9e-05,-3e-05,-4e-05,3e-05,-0.00038,-0.00037,0.0004,-0.00013,6,20
33061,-9e-05,-3e-05,-4e-05,3e-05,-0.00038,-0.00037,0.0004,-0.00013,6,20
33062,-9e-05,-3e-05,-4e-05,3e-05,-0.00038,-0.00037,0.0004,-0.00013,6,20
33063,-9e-05,-3e-05,-4e-05,3e-05,-0.00038,-0.00037,0.0004,-0.00013,6,20
33064,-9e-05,-3e-05,-4e-05,3e-05,-0.00038,-0.00037,0.0004,-0.00013,6,20
33065,-9e-05,-3e-05,-4e-05,3e-05,-0.00038,-0.00037,0.0004,-0.00013,6,20
33066,-9e-05,-3e-05,-4e-05,3e-05,-0.00038,-0.00037,0.0004,-0.00013,6,20
33067,-9e-05,-3e-05,-4e-05,3e-05,-0.00038,-0.00037,0.0004,-0.00013,6,20
33068,-9e-05,-3e-05,-4e-05,3e-05,-0.00038,-0.00037,0.0004,-0.00013,6,20
33069,-9e-05,-3e-05,-4e-05,3e-05,-0.00038,-0.00037,0.0004,-0.00013,6,20
33070,-0.00031,-0.00014,-7e-05,0.00016,0.00095,-0.00047,-0.00019,-0.00051,6,20
33071,0,-4e-05,-4e-05,-0.00026,-0.00067,-0.00025,-0.0001,0.00031,6,20
33072,0,-4e-05,-4e-05,-0.00026,-0.00067,-0.00025,-0.0001,0.00031,6,20
33073,0,-4e-05,-4e-05,-0.00026,-0.00067,-0.00025,-0.0001,0.00031,6,20
33074,0,-4e-05,-4e-05,-0.00026,-0.00067,-0.00025,-0.0001,0.00031,6,20
33075,0,-4e-05,-4e-05,-0.00026,-0.00067,-0.00025,-0.0001,0.00031,6,20
33076,0,-4e-05,-4e-05,-0.00026,-0.00067,-0.00025,-0.0001,0.00031,6,20
33077,0,-4e-05,-4e-05,-0.00026,-0.00067,-0.00025,-0.0001,0.00031,6,20
33078,0,-4e-05,-4e-05,-0.00026,-0.00067,-0.00025,-0.0001,0.00031,6,20
33079,0,-4e-05,-4e-05,-0.00026,-0.00067,-0.00025,-0.0001,0.00031,6,20
33080,0,-4e-05,-4e-05,-0.00026,-0.00067,-0.00025,-0.0001,0.00031,6,20
33081,0,-4e-05,-4e-05,-0.00026,-0.00067,-0.00025,-0.0001,0.00031,6,20
33082,0,-4e-05,-4e-05,-0.00026,-0.00067,-0.00025,-0.0001,0.00031,6,20
33083,-5e-05,-5e-05,6e-05,0.00081,0.0006,0.00112,0.00022,-0.0002,6,20
33084,-5e-05,-5e-05,6e-05,0.00081,0.0006,0.00112,0.00022,-0.0002,6,20
33085,-5e-05,-5e-05,6e-05,0.00081,0.0006,0.00112,0.00022,-0.0002,6,20
33087,-5e-05,-5e-05,6e-05,0.00081,0.0006,0.00112,0.00022,-0.0002,6,20
33090,0.00019,8e-05,8e-05,-0.00013,-0.00058,-0.00028,-0.00049,0.00019,6,20
33091,0.00019,8e-05,8e-05,-0.00013,-0.00058,-0.00028,-0.00049,0.00019,6,20
33092,0.00019,8e-05,8e-05,-0.00013,-0.00058,-0.00028,-0.00049,0.00019,6,20
33093,0.00019,8e-05,8e-05,-0.00013,-0.00058,-0.00028,-0.00049,0.00019,6,20
33094,0.00019,8e-05,8e-05,-0.00013,-0.00058,-0.00028,-0.00049,0.00019,6,20
33095,0.00019,8e-05,8e-05,-0.00013,-0.00058,-0.00028,-0.00049,0.00019,6,20
33096,0.00019,8e-05,8e-05,-0.00013,-0.00058,-0.00028,-0.00049,0.00019,6,20
33097,0.00019,8e-05,8e-05,-0.00013,-0.00058,-0.00028,-0.00049,0.00019,6,20
33098,0.00019,8e-05,8e-05,-0.00013,-0.00058,-0.00028,-0.00049,0.00019,6,20
33099,0.00019,8e-05,8e-05,-0.00013,-0.00058,-0.00028,-0.00049,0.00019,6,20
33100,0.00019,8e-05,8e-05,-0.00013,-0.00058,-0.00028,-0.00049,0.00019,6,20
33101,0.00019,8e-05,8e-05,-0.00013,-0.00058,-0.00028,-0.00049,0.00019,6,20
33102,0.00019,8e-05,8e-05,-0.00013,-0.00058,-0.00028,-0.00049,0.00019,6,20
33103,0.00019,8e-05,8e-05,-0.00013,-0.00058,-0.00028,-0.00049,0.00019,6,20
33104,0.00019,8e-05,8e-05,-0.00013,-0.00058,-0.00028,-0.00049,0.00019,6,20
33105,0.00019,8e-05,8e-05,-0.00013,-0.00058,-0.00028,-0.00049,0.00019,6,20
33106,0.00019,8e-05,8e-05,-0.00013,-0.00058,-0.00028,-0.00049,0.00019,6,20
33107,0.00019,8e-05,8e-05,-0.00013,-0.00058,-0.00028,-0.00049,0.00019,6,20
33108,0.00019,8e-05,8e-05,-0.00013,-0.00058,-0.00028,-0.00049,0.00019,6,20
33109,0.00019,8e-05,8e-05,-0.00013,-0.00058,-0.00028,-0.00049,0.00019,6,20
33110,0.00019,8e-05,8e-05,-0.00013,-0.00058,-0.00028,-0.00049,0.00019,6,20
33111,0.00019,8e-05,8e-05,-0.00013,-0.00058,-0.00028,-0.00049,0.00019,6,20
33112,0.00019,8e-05,8e-05,-0.00013,-0.00058,-0.00028,-0.00049,0.00019,6,20
33113,0.00019,8e-05,8e-05,-0.00013,-0.00058,-0.00028,-0.00049,0.00019,6,20
33114,2e-05,2e-05,-3e-05,-0.00021,-0.00067,3e-05,-0.0003,-3e-05,6,20
33115,-0.00015,-0.00014,-0.00012,-6e-05,0.00053,2e-05,-4e-05,3e-05,6,20
33116,3e-05,8e-05,8e-05,0.0002,-0.00037,0.00018,0.00022,-0.00051,6,20
33117,3e-05,8e-05,8e-05,0.0002,-0.00037,0.00018,0.00022,-0.00051,6,20
33118,3e-05,8e-05,8e-05,0.0002,-0.00037,0.00018,0.00022,-0.00051,6,20
33119,3e-05,8e-05,8e-05,0.0002,-0.00037,0.00018,0.00022,-0.00051,6,20
33120,3e-05,8e-05,8e-05,0.0002,-0.00037,0.00018,0.00022,-0.00051,6,20
33121,3e-05,8e-05,8e-05,0.0002,-0.00037,0.00018,0.00022,-0.00051,6,20
33122,3e-05,8e-05,8e-05,0.0002,-0.00037,0.00018,0.00022,-0.00051,6,20
33123,3e-05,8e-05,8e-05,0.0002,-0.00037,0.00018,0.00022,-0.00051,6,20
33124,3e-05,8e-05,8e-05,0.0002,-0.00037,0.00018,0.00022,-0.00051,6,20
33125,3e-05,8e-05,8e-05,0.0002,-0.00037,0.00018,0.00022,-0.00051,6,20
33126,3e-05,8e-05,8e-05,0.0002,-0.00037,0.00018,0.00022,-0.00051,6,20
33127,3e-05,8e-05,8e-05,0.0002,-0.00037,0.00018,0.00022,-0.00051,6,20
33128,3e-05,8e-05,8e-05,0.0002,-0.00037,0.00018,0.00022,-0.00051,6,20
33129,-7e-05,-3e-05,-7e-05,-0.0003,-0.00068,0.00013,0.00015,0.00011,6,20
33130,6e-05,7e-05,0.00015,0.00054,0.00074,-0.00027,6e-05,0.00013,6,20
33131,2e-05,0,-2e-05,-9e-05,-5e-05,-0.00028,3e-05,0.00034,6,20
33132,2e-05,0,-2e-05,-9e-05,-5e-05,-0.00028,3e-05,0.00034,6,20
33133,2e-05,0,-2e-05,-9e-05,-5e-05,-0.00028,3e-05,0.00034,6,20
33134,2e-05,0,-2e-05,-9e-05,-5e-05,-0.00028,3e-05,0.00034,6,20
33135,2e-05,0,-2e-05,-9e-05,-5e-05,-0.00028,3e-05,0.00034,6,20
33136,2e-05,0,-2e-05,-9e-05,-5e-05,-0.00028,3e-05,0.00034,6,20
33139,2e-05,0,-2e-05,-9e-05,-5e-05,-0.00028,3e-05,0.00034,6,20
33140,2e-05,0,-2e-05,-9e-05,-5e-05,-0.00028,3e-05,0.00034,6,20
33141,2e-05,0,-2e-05,-9e-05,-5e-05,-0.00028,3e-05,0.00034,6,20
33142,2e-05,0,-2e-05,-9e-05,-5e-05,-0.00028,3e-05,0.00034,6,20
33143,2e-05,0,-2e-05,-9e-05,-5e-05,-0.00028,3e-05,0.00034,6,20
33144,3e-05,2e-05,-0.00011,-0.00067,-0.00095,-0.00036,-0.00013,-0.00027,6,20
33145,3e-05,2e-05,-0.00011,-0.00067,-0.00095,-0.00036,-0.00013,-0.00027,6,20
33146,3e-05,2e-05,-0.00011,-0.00067,-0.00095,-0.00036,-0.00013,-0.00027,6,20
33147,3e-05,2e-05,-0.00011,-0.00067,-0.00095,-0.00036,-0.00013,-0.00027,6,20
33148,3e-05,2e-05,-0.00011,-0.00067,-0.00095,-0.00036,-0.00013,-0.00027,6,20
33149,3e-05,2e-05,-0.00011,-0.00067,-0.00095,-0.00036,-0.00013,-0.00027,6,20
33150,9e-05,1e-05,1e-05,0.00034,0.00054,-0.00049,-1e-05,-1e-05,6,20
33151,9e-05,1e-05,1e-05,0.00034,0.00054,-0.00049,-1e-05,-1e-05,6,20
33152,9e-05,1e-05,1e-05,0.00034,0.00054,-0.00049,-1e-05,-1e-05,6,20
33153,9e-05,1e-05,1e-05,0.00034,0.00054,-0.00049,-1e-05,-1e-05,6,20
33154,9e-05,1e-05,1e-05,0.00034,0.00054,-0.00049,-1e-05,-1e-05,6,20
33155,9e-05,1e-05,1e-05,0.00034,0.00054,-0.00049,-1e-05,-1e-05,6,20
33156,9e-05,1e-05,1e-05,0.00034,0.00054,-0.00049,-1e-05,-1e-05,6,20
33157,9e-05,1e-05,1e-05,0.00034,0.00054,-0.00049,-1e-05,-1e-05,6,20
33158,9e-05,1e-05,1e-05,0.00034,0.00054,-0.00049,-1e-05,-1e-05,6,20
33159,9e-05,1e-05,1e-05,0.00034,0.00054,-0.00049,-1e-05,-1e-05,6,20
33160,9e-05,1e-05,1e-05,0.00034,0.00054,-0.00049,-1e-05,-1e-05,6,20
33161,9e-05,1e-05,1e-05,0.00034,0.00054,-0.00049,-1e-05,-1e-05,6,20
33162,9e-05,1e-05,1e-05,0.00034,0.00054,-0.00049,-1e-05,-1e-05,6,20
33163,9e-05,1e-05,1e-05,0.00034,0.00054,-0.00049,-1e-05,-1e-05,6,20
33164,9e-05,1e-05,1e-05,0.00034,0.00054,-0.00049,-1e-05,-1e-05,6,20
33165,9e-05,1e-05,1e-05,0.00034,0.00054,-0.00049,-1e-05,-1e-05,6,20
33166,-2e-05,0,1e-05,-0.00024,-0.00062,-0.00015,0.00043,-0.00062,6,20
33167,-2e-05,0,1e-05,-0.00024,-0.00062,-0.00015,0.00043,-0.00062,6,20
33168,-2e-05,0,1e-05,-0.00024,-0.00062,-0.00015,0.00043,-0.00062,6,20
33169,-2e-05,0,1e-05,-0.00024,-0.00062,-0.00015,0.00043,-0.00062,6,20
33170,-2e-05,0,1e-05,-0.00024,-0.00062,-0.00015,0.00043,-0.00062,6,20
33171,-2e-05,0,1e-05,-0.00024,-0.00062,-0.00015,0.00043,-0.00062,6,20
33172,-3e-05,-5e-05,-2e-05,0.00012,0.00042,-0.0002,-3e-05,0,6,20
33173,-3e-05,-5e-05,-2e-05,0.00012,0.00042,-0.0002,-3e-05,0,6,20
33174,-3e-05,-5e-05,-2e-05,0.00012,0.00042,-0.0002,-3e-05,0,6,20
33175,-3e-05,-5e-05,-2e-05,0.00012,0.00042,-0.0002,-3e-05,0,6,20
33176,-3e-05,-5e-05,-2e-05,0.00012,0.00042,-0.0002,-3e-05,0,6,20
33177,-3e-05,-5e-05,-2e-05,0.00012,0.00042,-0.0002,-3e-05,0,6,20
33178,-3e-05,-5e-05,-2e-05,0.00012,0.00042,-0.0002,-3e-05,0,6,20
33179,-3e-05,-5e-05,-2e-05,0.00012,0.00042,-0.0002,-3e-05,0,6,20
33180,-3e-05,-5e-05,-2e-05,0.00012,0.00042,-0.0002,-3e-05,0,6,20
33181,-3e-05,-5e-05,-2e-05,0.00012,0.00042,-0.0002,-3e-05,0,6,20
33182,-3e-05,-5e-05,-2e-05,0.00012,0.00042,-0.0002,-3e-05,0,6,20
33183,-3e-05,-5e-05,-2e-05,0.00012,0.00042,-0.0002,-3e-05,0,6,20
33184,-3e-05,-5e-05,-2e-05,0.00012,0.00042,-0.0002,-3e-05,0,6,20
33185,-3e-05,-5e-05,-2e-05,0.00012,0.00042,-0.0002,-3e-05,0,6,20
33186,-3e-05,-5e-05,-2e-05,0.00012,0.00042,-0.0002,-3e-05,0,6,20
33190,-1e-05,3e-05,0,-0.00034,-0.00012,0.00039,-0.00046,7e-05,6,20
33191,1e-05,1e-05,4e-05,0.00037,0.00042,-0.00046,-0.00028,-0.00091,6,20
33192,1e-05,1e-05,4e-05,0.00037,0.00042,-0.00046,-0.00028,-0.00091,6,20
33193,1e-05,1e-05,4e-05,0.00037,0.00042,-0.00046,-0.00028,-0.00091,6,20
33194,1e-05,1e-05,4e-05,0.00037,0.00042,-0.00046,-0.00028,-0.00091,6,20
33195,1e-05,1e-05,4e-05,0.00037,0.00042,-0.00046,-0.00028,-0.00091,6,20
33196,1e-05,1e-05,4e-05,0.00037,0.00042,-0.00046,-0.00028,-0.00091,6,20
33197,1e-05,1e-05,4e-05,0.00037,0.00042,-0.00046,-0.00028,-0.00091,6,20
33198,1e-05,1e-05,4e-05,0.00037,0.00042,-0.00046,-0.00028,-0.00091,6,20
33199,1e-05,1e-05,4e-05,0.00037,0.00042,-0.00046,-0.00028,-0.00091,6,20
33200,1e-05,1e-05,4e-05,0.00037,0.00042,-0.00046,-0.00028,-0.00091,6,20
33201,1e-05,1e-05,4e-05,0.00037,0.00042,-0.00046,-0.00028,-0.00091,6,20
33202,1e-05,1e-05,4e-05,0.00037,0.00042,-0.00046,-0.00028,-0.00091,6,20
33204,-1e-05,-1e-05,4e-05,0.0001,0.00018,0.00016,-0.0001,0.00052,6,20
33205,-1e-05,-1e-05,4e-05,0.0001,0.00018,0.00016,-0.0001,0.00052,6,20
33206,-1e-05,-1e-05,4e-05,0.0001,0.00018,0.00016,-0.0001,0.00052,6,20
33207,-1e-05,-1e-05,4e-05,0.0001,0.00018,0.00016,-0.0001,0.00052,6,20
33208,-1e-05,-1e-05,4e-05,0.0001,0.00018,0.00016,-0.0001,0.00052,6,20
33209,-1e-05,-1e-05,4e-05,0.0001,0.00018,0.00016,-0.0001,0.00052,6,20
33210,-8e-05,-2e-05,-6e-05,-0.00014,0.0003,0.00084,-0.00016,-4e-05,6,20
33211,-8e-05,-2e-05,-6e-05,-0.00014,0.0003,0.00084,-0.00016,-4e-05,6,20
33212,-8e-05,-2e-05,-6e-05,-0.00014,0.0003,0.00084,-0.00016,-4e-05,6,20
33213,-8e-05,-2e-05,-6e-05,-0.00014,0.0003,0.00084,-0.00016,-4e-05,6,20
33214,-8e-05,-2e-05,-6e-05,-0.00014,0.0003,0.00084,-0.00016,-4e-05,6,20
33215,-8e-05,-2e-05,-6e-05,-0.00014,0.0003,0.00084,-0.00016,-4e-05,6,20
33216,-8e-05,-2e-05,-6e-05,-0.00014,0.0003,0.00084,-0.00016,-4e-05,6,20
33217,-8e-05,-2e-05,-6e-05,-0.00014,0.0003,0.00084,-0.00016,-4e-05,6,20
33218,-8e-05,-2e-05,-6e-05,-0.00014,0.0003,0.00084,-0.00016,-4e-05,6,20
33219,-8e-05,-2e-05,-6e-05,-0.00014,0.0003,0.00084,-0.00016,-4e-05,6,20
33220,-8e-05,-2e-05,-6e-05,-0.00014,0.0003,0.00084,-0.00016,-4e-05,6,20
33221,-8e-05,-2e-05,-6e-05,-0.00014,0.0003,0.00084,-0.00016,-4e-05,6,20
33222,-8e-05,-2e-05,-6e-05,-0.00014,0.0003,0.00084,-0.00016,-4e-05,6,20
33223,-8e-05,-2e-05,-6e-05,-0.00014,0.0003,0.00084,-0.00016,-4e-05,6,20
33224,-8e-05,-2e-05,-6e-05,-0.00014,0.0003,0.00084,-0.00016,-4e-05,6,20
33225,-8e-05,-2e-05,-6e-05,-0.00014,0.0003,0.00084,-0.00016,-4e-05,6,20
33226,-8e-05,-2e-05,-6e-05,-0.00014,0.0003,0.00084,-0.00016,-4e-05,6,20
33227,-0.00048,-6e-05,-5e-05,6e-05,-8e-05,0.00056,-0.00019,7e-05,6,20
33228,7e-05,-5e-05,8e-05,0.0004,-0.0002,-7e-05,0.00013,0.00082,6,20
33230,7e-05,-5e-05,8e-05,0.0004,-0.0002,-7e-05,0.00013,0.00082,6,20
33231,7e-05,-5e-05,8e-05,0.0004,-0.0002,-7e-05,0.00013,0.00082,6,20
33232,7e-05,-5e-05,8e-05,0.0004,-0.0002,-7e-05,0.00013,0.00082,6,20
33233,7e-05,-5e-05,8e-05,0.0004,-0.0002,-7e-05,0.00013,0.00082,6,20
33234,7e-05,-5e-05,8e-05,0.0004,-0.0002,-7e-05,0.00013,0.00082,6,20
33235,7e-05,-5e-05,8e-05,0.0004,-0.0002,-7e-05,0.00013,0.00082,6,20
33237,7e-05,-5e-05,8e-05,0.0004,-0.0002,-7e-05,0.00013,0.00082,6,20
33240,7e-05,-5e-05,8e-05,0.0004,-0.0002,-7e-05,0.00013,0.00082,6,20
33241,7e-05,-5e-05,8e-05,0.0004,-0.0002,-7e-05,0.00013,0.00082,6,20
33242,7e-05,-5e-05,8e-05,0.0004,-0.0002,-7e-05,0.00013,0.00082,6,20
33243,7e-05,-5e-05,8e-05,0.0004,-0.0002,-7e-05,0.00013,0.00082,6,20
33244,7e-05,-5e-05,8e-05,0.0004,-0.0002,-7e-05,0.00013,0.00082,6,20
33245,7e-05,-5e-05,8e-05,0.0004,-0.0002,-7e-05,0.00013,0.00082,6,20
33246,7e-05,-5e-05,8e-05,0.0004,-0.0002,-7e-05,0.00013,0.00082,6,20
33247,7e-05,-5e-05,8e-05,0.0004,-0.0002,-7e-05,0.00013,0.00082,6,20
33248,7e-05,-5e-05,8e-05,0.0004,-0.0002,-7e-05,0.00013,0.00082,6,20
33249,-0.0001,7e-05,8e-05,0.00015,-5e-05,0.00051,-0.00012,-4e-05,6,20
33250,3e-05,-1e-05,-2e-05,-8e-05,0.0001,-3e-05,-0.00033,0.00044,6,20
33251,3e-05,-1e-05,-2e-05,-8e-05,0.0001,-3e-05,-0.00033,0.00044,6,20
33252,3e-05,-1e-05,-2e-05,-8e-05,0.0001,-3e-05,-0.00033,0.00044,6,20
33253,3e-05,-1e-05,-2e-05,-8e-05,0.0001,-3e-05,-0.00033,0.00044,6,20
33254,3e-05,-1e-05,-2e-05,-8e-05,0.0001,-3e-05,-0.00033,0.00044,6,20
33255,-1e-05,-4e-05,-9e-05,-0.00019,0.0002,-0.00023,0.00019,-0.0003,6,20
33256,-1e-05,-4e-05,-9e-05,-0.00019,0.0002,-0.00023,0.00019,-0.0003,6,20
33257,-1e-05,-4e-05,-9e-05,-0.00019,0.0002,-0.00023,0.00019,-0.0003,6,20
33258,-1e-05,-4e-05,-9e-05,-0.00019,0.0002,-0.00023,0.00019,-0.0003,6,20
33259,-1e-05,-4e-05,-9e-05,-0.00019,0.0002,-0.00023,0.00019,-0.0003,6,20
33260,-1e-05,-4e-05,-9e-05,-0.00019,0.0002,-0.00023,0.00019,-0.0003,6,20
33261,-1e-05,-4e-05,-9e-05,-0.00019,0.0002,-0.00023,0.00019,-0.0003,6,20
33262,-1e-05,-4e-05,-9e-05,-0.00019,0.0002,-0.00023,0.00019,-0.0003,6,20
33263,0.00019,-2e-05,1e-05,0.00015,-5e-05,-0.00048,-0.00027,8e-05,6,20
33264,0.00019,-2e-05,1e-05,0.00015,-5e-05,-0.00048,-0.00027,8e-05,6,20
33265,0.00019,-2e-05,1e-05,0.00015,-5e-05,-0.00048,-0.00027,8e-05,6,20
33266,0.00019,-2e-05,1e-05,0.00015,-5e-05,-0.00048,-0.00027,8e-05,6,20
33267,0.00019,-2e-05,1e-05,0.00015,-5e-05,-0.00048,-0.00027,8e-05,6,20
33268,0.00019,-2e-05,1e-05,0.00015,-5e-05,-0.00048,-0.00027,8e-05,6,20
33269,0.00019,-2e-05,1e-05,0.00015,-5e-05,-0.00048,-0.00027,8e-05,6,20
33270,6e-05,0.0001,0.00012,0.00021,7e-05,-0.00043,1e-05,-0.00038,6,20
33271,2e-05,1e-05,-4e-05,-0.00026,1e-05,0.00049,-0.00012,0.00052,6,20
33272,2e-05,1e-05,-4e-05,-0.00026,1e-05,0.00049,-0.00012,0.00052,6,20
33273,2e-05,1e-05,-4e-05,-0.00026,1e-05,0.00049,-0.00012,0.00052,6,20
33274,2e-05,1e-05,-4e-05,-0.00026,1e-05,0.00049,-0.00012,0.00052,6,20
33275,2e-05,1e-05,-4e-05,-0.00026,1e-05,0.00049,-0.00012,0.00052,6,20
33276,2e-05,1e-05,-4e-05,-0.00026,1e-05,0.00049,-0.00012,0.00052,6,20
33277,2e-05,1e-05,-4e-05,-0.00026,1e-05,0.00049,-0.00012,0.00052,6,20
33278,2e-05,1e-05,-4e-05,-0.00026,1e-05,0.00049,-0.00012,0.00052,6,20
33279,2e-05,1e-05,-4e-05,-0.00026,1e-05,0.00049,-0.00012,0.00052,6,20
33280,2e-05,1e-05,-4e-05,-0.00026,1e-05,0.00049,-0.00012,0.00052,6,20
33281,2e-05,1e-05,-4e-05,-0.00026,1e-05,0.00049,-0.00012,0.00052,6,20
33282,2e-05,1e-05,-4e-05,-0.00026,1e-05,0.00049,-0.00012,0.00052,6,20
33283,2e-05,1e-05,-4e-05,-0.00026,1e-05,0.00049,-0.00012,0.00052,6,20
33284,2e-05,1e-05,-4e-05,-0.00026,1e-05,0.00049,-0.00012,0.00052,6,20
33285,2e-05,1e-05,-4e-05,-0.00026,1e-05,0.00049,-0.00012,0.00052,6,20
33287,2e-05,1e-05,-4e-05,-0.00026,1e-05,0.00049,-0.00012,0.00052,6,20
33290,-7e-05,0.00011,2e-05,-0.00015,-0.00042,0.0003,0.00033,7e-05,6,20
33291,-7e-05,0.00011,2e-05,-0.00015,-0.00042,0.0003,0.00033,7e-05,6,20
33292,-7e-05,0.00011,2e-05,-0.00015,-0.00042,0.0003,0.00033,7e-05,6,20
33293,-7e-05,0.00011,2e-05,-0.00015,-0.00042,0.0003,0.00033,7e-05,6,20
33294,-7e-05,0.00011,2e-05,-0.00015,-0.00042,0.0003,0.00033,7e-05,6,20
33295,-7e-05,0.00011,2e-05,-0.00015,-0.00042,0.0003,0.00033,7e-05,6,20
33296,-7e-05,0.00011,2e-05,-0.00015,-0.00042,0.0003,0.00033,7e-05,6,20
33297,-7e-05,0.00011,2e-05,-0.00015,-0.00042,0.0003,0.00033,7e-05,6,20
33298,-7e-05,0.00011,2e-05,-0.00015,-0.00042,0.0003,0.00033,7e-05,6,20
33299,-7e-05,0.00011,2e-05,-0.00015,-0.00042,0.0003,0.00033,7e-05,6,20
33300,-7e-05,0.00011,2e-05,-0.00015,-0.00042,0.0003,0.00033,7e-05,6,20
33301,-7e-05,0.00011,2e-05,-0.00015,-0.00042,0.0003,0.00033,7e-05,6,20
33302,-7e-05,0.00011,2e-05,-0.00015,-0.00042,0.0003,0.00033,7e-05,6,20
33303,-7e-05,0.00011,2e-05,-0.00015,-0.00042,0.0003,0.00033,7e-05,6,20
33304,-7e-05,0.00011,2e-05,-0.00015,-0.00042,0.0003,0.00033,7e-05,6,20
33305,-7e-05,0.00011,2e-05,-0.00015,-0.00042,0.0003,0.00033,7e-05,6,20
33306,-7e-05,0.00011,2e-05,-0.00015,-0.00042,0.0003,0.00033,7e-05,6,20
33307,-7e-05,0.00011,2e-05,-0.00015,-0.00042,0.0003,0.00033,7e-05,6,20
33308,-7e-05,0.00011,2e-05,-0.00015,-0.00042,0.0003,0.00033,7e-05,6,20
33309,7e-05,4e-05,4e-05,0.00026,0.00063,-0.00015,0.00015,-0.00018,6,20
33310,-0.00017,-0.0001,-7e-05,-0.00011,-0.00029,-0.00017,-0.00054,-0.00064,6,20
33311,-0.00017,-0.0001,-7e-05,-0.00011,-0.00029,-0.00017,-0.00054,-0.00064,6,20
33313,-0.00017,-0.0001,-7e-05,-0.00011,-0.00029,-0.00017,-0.00054,-0.00064,6,20
33314,-0.00017,-0.0001,-7e-05,-0.00011,-0.00029,-0.00017,-0.00054,-0.00064,6,20
33315,-0.00017,-0.0001,-7e-05,-0.00011,-0.00029,-0.00017,-0.00054,-0.00064,6,20
33316,-0.00017,-0.0001,-7e-05,-0.00011,-0.00029,-0.00017,-0.00054,-0.00064,6,20
33317,-0.00017,-0.0001,-7e-05,-0.00011,-0.00029,-0.00017,-0.00054,-0.00064,6,20
33318,-0.00017,-0.0001,-7e-05,-0.00011,-0.00029,-0.00017,-0.00054,-0.00064,6,20
33319,-0.00017,-0.0001,-7e-05,-0.00011,-0.00029,-0.00017,-0.00054,-0.00064,6,20
33320,-0.00017,-0.0001,-7e-05,-0.00011,-0.00029,-0.00017,-0.00054,-0.00064,6,20
33321,-0.00017,-0.0001,-7e-05,-0.00011,-0.00029,-0.00017,-0.00054,-0.00064,6,20
33322,-9e-05,-7e-05,-9e-05,-0.00036,-5e-05,-0.00053,-5e-05,0.00015,6,20
33323,6e-05,9e-05,0.00011,0.00042,0.00062,0.00044,0.0002,-0.0005,6,20
33324,6e-05,9e-05,0.00011,0.00042,0.00062,0.00044,0.0002,-0.0005,6,20
33325,6e-05,9e-05,0.00011,0.00042,0.00062,0.00044,0.0002,-0.0005,6,20
33326,6e-05,9e-05,0.00011,0.00042,0.00062,0.00044,0.0002,-0.0005,6,20
33327,6e-05,9e-05,0.00011,0.00042,0.00062,0.00044,0.0002,-0.0005,6,20
33328,6e-05,9e-05,0.00011,0.00042,0.00062,0.00044,0.0002,-0.0005,6,20
33329,6e-05,9e-05,0.00011,0.00042,0.00062,0.00044,0.0002,-0.0005,6,20
33330,6e-05,9e-05,0.00011,0.00042,0.00062,0.00044,0.0002,-0.0005,6,20
33331,6e-05,9e-05,0.00011,0.00042,0.00062,0.00044,0.0002,-0.0005,6,20
33332,6e-05,9e-05,0.00011,0.00042,0.00062,0.00044,0.0002,-0.0005,6,20
33333,6e-05,9e-05,0.00011,0.00042,0.00062,0.00044,0.0002,-0.0005,6,20
33334,6e-05,9e-05,0.00011,0.00042,0.00062,0.00044,0.0002,-0.0005,6,20
33335,6e-05,9e-05,0.00011,0.00042,0.00062,0.00044,0.0002,-0.0005,6,20
33337,6e-05,9e-05,0.00011,0.00042,0.00062,0.00044,0.0002,-0.0005,6,20
33340,-0.00017,-0.00014,-0.00012,-3e-05,2e-05,-0.00027,-4e-05,4e-05,6,20
33341,-0.00017,-0.00014,-0.00012,-3e-05,2e-05,-0.00027,-4e-05,4e-05,6,20
33342,-0.00017,-0.00014,-0.00012,-3e-05,2e-05,-0.00027,-4e-05,4e-05,6,20
33343,-0.00017,-0.00014,-0.00012,-3e-05,2e-05,-0.00027,-4e-05,4e-05,6,20
33344,-0.00017,-0.00014,-0.00012,-3e-05,2e-05,-0.00027,-4e-05,4e-05,6,20
33345,-0.00017,-0.00014,-0.00012,-3e-05,2e-05,-0.00027,-4e-05,4e-05,6,20
33346,-0.00039,-3e-05,-2e-05,6e-05,0.00044,-0.00052,-7e-05,0.00014,6,20
33347,0.00032,4e-05,4e-05,0.00014,0.0001,0.00033,-3e-05,0.00011,6,20
33348,0.00032,4e-05,4e-05,0.00014,0.0001,0.00033,-3e-05,0.00011,6,20
33349,0.00032,4e-05,4e-05,0.00014,0.0001,0.00033,-3e-05,0.00011,6,20
33350,0.00032,4e-05,4e-05,0.00014,0.0001,0.00033,-3e-05,0.00011,6,20
33351,0.00032,4e-05,4e-05,0.00014,0.0001,0.00033,-3e-05,0.00011,6,20
33352,0.00032,4e-05,4e-05,0.00014,0.0001,0.00033,-3e-05,0.00011,6,20
33353,0.00032,4e-05,4e-05,0.00014,0.0001,0.00033,-3e-05,0.00011,6,20
33354,0.00032,4e-05,4e-05,0.00014,0.0001,0.00033,-3e-05,0.00011,6,20
33355,0.00032,4e-05,4e-05,0.00014,0.0001,0.00033,-3e-05,0.00011,6,20
33356,0.00032,4e-05,4e-05,0.00014,0.0001,0.00033,-3e-05,0.00011,6,20
33357,0.00032,4e-05,4e-05,0.00014,0.0001,0.00033,-3e-05,0.00011,6,20
33358,0.00032,4e-05,4e-05,0.00014,0.0001,0.00033,-3e-05,0.00011,6,20
33359,0.00032,4e-05,4e-05,0.00014,0.0001,0.00033,-3e-05,0.00011,6,20
33360,0.00032,4e-05,4e-05,0.00014,0.0001,0.00033,-3e-05,0.00011,6,20
33361,0.00032,4e-05,4e-05,0.00014,0.0001,0.00033,-3e-05,0.00011,6,20
33362,0.00032,4e-05,4e-05,0.00014,0.0001,0.00033,-3e-05,0.00011,6,20
33363,0.00032,4e-05,4e-05,0.00014,0.0001,0.00033,-3e-05,0.00011,6,20
33364,0.00032,4e-05,4e-05,0.00014,0.0001,0.00033,-3e-05,0.00011,6,20
33365,0.00032,4e-05,4e-05,0.00014,0.0001,0.00033,-3e-05,0.00011,6,20
33366,0.00032,4e-05,4e-05,0.00014,0.0001,0.00033,-3e-05,0.00011,6,20
33367,0.00032,4e-05,4e-05,0.00014,0.0001,0.00033,-3e-05,0.00011,6,20
33368,9e-05,1e-05,0,9e-05,-0.00016,-0.00126,-0.00033,-0.00011,6,20
33369,-0.00039,-0.0001,-2e-05,-0.00017,-0.0005,-0.00021,6e-05,-0.00085,6,20
33370,-0.00039,-0.0001,-2e-05,-0.00017,-0.0005,-0.00021,6e-05,-0.00085,6,20
33371,-0.00039,-0.0001,-2e-05,-0.00017,-0.0005,-0.00021,6e-05,-0.00085,6,20
33372,-0.00039,-0.0001,-2e-05,-0.00017,-0.0005,-0.00021,6e-05,-0.00085,6,20
33373,-0.00039,-0.0001,-2e-05,-0.00017,-0.0005,-0.00021,6e-05,-0.00085,6,20
33374,-0.00039,-0.0001,-2e-05,-0.00017,-0.0005,-0.00021,6e-05,-0.00085,6,20
33375,-0.00039,-0.0001,-2e-05,-0.00017,-0.0005,-0.00021,6e-05,-0.00085,6,20
33376,-0.00039,-0.0001,-2e-05,-0.00017,-0.0005,-0.00021,6e-05,-0.00085,6,20
33377,-0.00039,-0.0001,-2e-05,-0.00017,-0.0005,-0.00021,6e-05,-0.00085,6,20
33378,-0.00039,-0.0001,-2e-05,-0.00017,-0.0005,-0.00021,6e-05,-0.00085,6,20
33379,-0.00039,-0.0001,-2e-05,-0.00017,-0.0005,-0.00021,6e-05,-0.00085,6,20
33380,-0.00039,-0.0001,-2e-05,-0.00017,-0.0005,-0.00021,6e-05,-0.00085,6,20
33381,-0.00039,-0.0001,-2e-05,-0.00017,-0.0005,-0.00021,6e-05,-0.00085,6,20
33382,-0.00039,-0.0001,-2e-05,-0.00017,-0.0005,-0.00021,6e-05,-0.00085,6,20
33383,-0.00039,-0.0001,-2e-05,-0.00017,-0.0005,-0.00021,6e-05,-0.00085,6,20
33384,-0.00039,-0.0001,-2e-05,-0.00017,-0.0005,-0.00021,6e-05,-0.00085,6,20
33385,-0.00039,-0.0001,-2e-05,-0.00017,-0.0005,-0.00021,6e-05,-0.00085,6,20
33387,-0.00039,-0.0001,-2e-05,-0.00017,-0.0005,-0.00021,6e-05,-0.00085,6,20
33389,-0.00039,-0.0001,-2e-05,-0.00017,-0.0005,-0.00021,6e-05,-0.00085,6,20
33391,0.00037,-3e-05,-6e-05,7e-05,3e-05,0.00093,-0.00034,0.00029,6,20
33392,0.00011,-2e-05,3e-05,0.00016,0.0004,-0.00029,-5e-05,0,6,20
33393,0.00011,-2e-05,3e-05,0.00016,0.0004,-0.00029,-5e-05,0,6,20
33394,0.00011,-2e-05,3e-05,0.00016,0.0004,-0.00029,-5e-05,0,6,20
33395,0.00011,-2e-05,3e-05,0.00016,0.0004,-0.00029,-5e-05,0,6,20
33396,0.00011,-2e-05,3e-05,0.00016,0.0004,-0.00029,-5e-05,0,6,20
33397,0.00011,-2e-05,3e-05,0.00016,0.0004,-0.00029,-5e-05,0,6,20
33398,0.00011,-2e-05,3e-05,0.00016,0.0004,-0.00029,-5e-05,0,6,20
33399,0.00011,-2e-05,3e-05,0.00016,0.0004,-0.00029,-5e-05,0,6,20
33400,0.00011,-2e-05,3e-05,0.00016,0.0004,-0.00029,-5e-05,0,6,20
33401,0.00011,-2e-05,3e-05,0.00016,0.0004,-0.00029,-5e-05,0,6,20
33402,0.00011,-2e-05,3e-05,0.00016,0.0004,-0.00029,-5e-05,0,6,20
33403,0.00011,-2e-05,3e-05,0.00016,0.0004,-0.00029,-5e-05,0,6,20
33404,0.00011,-2e-05,3e-05,0.00016,0.0004,-0.00029,-5e-05,0,6,20
33405,-1e-05,3e-05,4e-05,0,0.00025,0.00026,-0.00041,0.00032,6,20
33407,-1e-05,3e-05,4e-05,0,0.00025,0.00026,-0.00041,0.00032,6,20
33408,-1e-05,3e-05,4e-05,0,0.00025,0.00026,-0.00041,0.00032,6,20
33409,-1e-05,3e-05,4e-05,0,0.00025,0.00026,-0.00041,0.00032,6,20
33410,-1e-05,3e-05,4e-05,0,0.00025,0.00026,-0.00041,0.00032,6,20
33411,-1e-05,3e-05,4e-05,0,0.00025,0.00026,-0.00041,0.00032,6,20
33412,-1e-05,3e-05,4e-05,0,0.00025,0.00026,-0.00041,0.00032,6,20
33413,-1e-05,3e-05,4e-05,0,0.00025,0.00026,-0.00041,0.00032,6,20
33414,-1e-05,3e-05,4e-05,0,0.00025,0.00026,-0.00041,0.00032,6,20
33415,-1e-05,3e-05,4e-05,0,0.00025,0.00026,-0.00041,0.00032,6,20
33416,-1e-05,3e-05,4e-05,0,0.00025,0.00026,-0.00041,0.00032,6,20
33417,-1e-05,3e-05,4e-05,0,0.00025,0.00026,-0.00041,0.00032,6,20
33418,-1e-05,3e-05,4e-05,0,0.00025,0.00026,-0.00041,0.00032,6,20
33419,-1e-05,3e-05,4e-05,0,0.00025,0.00026,-0.00041,0.00032,6,20
33420,-1e-05,3e-05,4e-05,0,0.00025,0.00026,-0.00041,0.00032,6,20
33421,-1e-05,3e-05,4e-05,0,0.00025,0.00026,-0.00041,0.00032,6,20
33422,-1e-05,3e-05,4e-05,0,0.00025,0.00026,-0.00041,0.00032,6,20
33423,-1e-05,3e-05,4e-05,0,0.00025,0.00026,-0.00041,0.00032,6,20
33424,-1e-05,3e-05,4e-05,0,0.00025,0.00026,-0.00041,0.00032,6,20
33425,-1e-05,3e-05,4e-05,0,0.00025,0.00026,-0.00041,0.00032,6,20
33426,-1e-05,3e-05,4e-05,0,0.00025,0.00026,-0.00041,0.00032,6,20
33427,-1e-05,3e-05,4e-05,0,0.00025,0.00026,-0.00041,0.00032,6,20
33428,-2e-05,3e-05,0,-0.00012,0.00023,-0.00017,0.00019,0.00011,6,20
33429,3e-05,3e-05,3e-05,0.00018,0.0005,0.00127,0.00022,-0.00059,6,20
33430,3e-05,3e-05,3e-05,0.00018,0.0005,0.00127,0.00022,-0.00059,6,20
33431,3e-05,3e-05,3e-05,0.00018,0.0005,0.00127,0.00022,-0.00059,6,20
33432,3e-05,3e-05,3e-05,0.00018,0.0005,0.00127,0.00022,-0.00059,6,20
33433,3e-05,3e-05,3e-05,0.00018,0.0005,0.00127,0.00022,-0.00059,6,20
33434,3e-05,3e-05,3e-05,0.00018,0.0005,0.00127,0.00022,-0.00059,6,20
33435,3e-05,3e-05,3e-05,0.00018,0.0005,0.00127,0.00022,-0.00059,6,20
33436,3e-05,3e-05,3e-05,0.00018,0.0005,0.00127,0.00022,-0.00059,6,20
33439,3e-05,3e-05,3e-05,0.00018,0.0005,0.00127,0.00022,-0.00059,6,20
33440,3e-05,3e-05,3e-05,0.00018,0.0005,0.00127,0.00022,-0.00059,6,20
33441,3e-05,3e-05,3e-05,0.00018,0.0005,0.00127,0.00022,-0.00059,6,20
33442,0.00029,3e-05,-2e-05,-0.0001,-0.0003,-0.00057,2e-05,0.00031,6,20
33443,-0.00016,-3e-05,0,-6e-05,-0.00087,-0.0001,-7e-05,-1e-05,6,20
33444,-0.00016,-3e-05,0,-6e-05,-0.00087,-0.0001,-7e-05,-1e-05,6,20
33445,-0.00016,-3e-05,0,-6e-05,-0.00087,-0.0001,-7e-05,-1e-05,6,20
33446,-0.00016,-3e-05,0,-6e-05,-0.00087,-0.0001,-7e-05,-1e-05,6,20
33447,-0.00016,-3e-05,0,-6e-05,-0.00087,-0.0001,-7e-05,-1e-05,6,20
33448,-0.00016,-3e-05,0,-6e-05,-0.00087,-0.0001,-7e-05,-1e-05,6,20
33449,-0.00016,-3e-05,0,-6e-05,-0.00087,-0.0001,-7e-05,-1e-05,6,20
33450,-4e-05,-4e-05,-3e-05,-4e-05,0.00053,-0.00014,-0.00011,0.00041,6,20
33451,0.0001,7e-05,1e-05,0.00015,-9e-05,0.00033,-9e-05,2e-05,6,20
33452,0.0001,7e-05,1e-05,0.00015,-9e-05,0.00033,-9e-05,2e-05,6,20
33454,0.0001,7e-05,1e-05,0.00015,-9e-05,0.00033,-9e-05,2e-05,6,20
33455,0.0001,7e-05,1e-05,0.00015,-9e-05,0.00033,-9e-05,2e-05,6,20
33456,0.0001,7e-05,1e-05,0.00015,-9e-05,0.00033,-9e-05,2e-05,6,20
33457,0.0001,7e-05,1e-05,0.00015,-9e-05,0.00033,-9e-05,2e-05,6,20
33458,0.0001,7e-05,1e-05,0.00015,-9e-05,0.00033,-9e-05,2e-05,6,20
33459,0.0001,7e-05,1e-05,0.00015,-9e-05,0.00033,-9e-05,2e-05,6,20
33460,0.0001,7e-05,1e-05,0.00015,-9e-05,0.00033,-9e-05,2e-05,6,20
33461,0.0001,7e-05,1e-05,0.00015,-9e-05,0.00033,-9e-05,2e-05,6,20
33462,0.0001,7e-05,1e-05,0.00015,-9e-05,0.00033,-9e-05,2e-05,6,20
33463,0.0001,7e-05,1e-05,0.00015,-9e-05,0.00033,-9e-05,2e-05,6,20
33464,0.0001,7e-05,1e-05,0.00015,-9e-05,0.00033,-9e-05,2e-05,6,20
33465,0.0001,7e-05,1e-05,0.00015,-9e-05,0.00033,-9e-05,2e-05,6,20
33466,8e-05,0,-4e-05,-0.00043,0.00027,-0.00037,0.00016,0.00033,6,20
33467,8e-05,0,-4e-05,-0.00043,0.00027,-0.00037,0.00016,0.00033,6,20
33468,8e-05,0,-4e-05,-0.00043,0.00027,-0.00037,0.00016,0.00033,6,20
33469,8e-05,0,-4e-05,-0.00043,0.00027,-0.00037,0.00016,0.00033,6,20
33470,8e-05,0,-4e-05,-0.00043,0.00027,-0.00037,0.00016,0.00033,6,20
33471,8e-05,0,-4e-05,-0.00043,0.00027,-0.00037,0.00016,0.00033,6,20
33472,8e-05,0,-4e-05,-0.00043,0.00027,-0.00037,0.00016,0.00033,6,20
33473,8e-05,0,-4e-05,-0.00043,0.00027,-0.00037,0.00016,0.00033,6,20
33474,8e-05,0,-4e-05,-0.00043,0.00027,-0.00037,0.00016,0.00033,6,20
33475,8e-05,0,-4e-05,-0.00043,0.00027,-0.00037,0.00016,0.00033,6,20
33476,8e-05,0,-4e-05,-0.00043,0.00027,-0.00037,0.00016,0.00033,6,20
33477,8e-05,0,-4e-05,-0.00043,0.00027,-0.00037,0.00016,0.00033,6,20
33478,8e-05,0,-4e-05,-0.00043,0.00027,-0.00037,0.00016,0.00033,6,20
33479,8e-05,0,-4e-05,-0.00043,0.00027,-0.00037,0.00016,0.00033,6,20
33480,8e-05,0,-4e-05,-0.00043,0.00027,-0.00037,0.00016,0.00033,6,20
33481,8e-05,0,-4e-05,-0.00043,0.00027,-0.00037,0.00016,0.00033,6,20
33482,8e-05,0,-4e-05,-0.00043,0.00027,-0.00037,0.00016,0.00033,6,20
33483,8e-05,0,-4e-05,-0.00043,0.00027,-0.00037,0.00016,0.00033,6,20
33484,8e-05,0,-4e-05,-0.00043,0.00027,-0.00037,0.00016,0.00033,6,20
33485,8e-05,0,-4e-05,-0.00043,0.00027,-0.00037,0.00016,0.00033,6,20
33486,8e-05,0,-4e-05,-0.00043,0.00027,-0.00037,0.00016,0.00033,6,20
33490,-8e-05,-2e-05,4e-05,0.00077,0.00042,-0.00021,0.00065,0.00037,6,20
33491,-8e-05,-2e-05,4e-05,0.00077,0.00042,-0.00021,0.00065,0.00037,6,20
33492,-8e-05,-2e-05,4e-05,0.00077,0.00042,-0.00021,0.00065,0.00037,6,20
33493,-8e-05,-2e-05,4e-05,0.00077,0.00042,-0.00021,0.00065,0.00037,6,20
33494,-8e-05,-2e-05,4e-05,0.00077,0.00042,-0.00021,0.00065,0.00037,6,20
33495,-8e-05,-2e-05,4e-05,0.00077,0.00042,-0.00021,0.00065,0.00037,6,20
33496,-8e-05,-2e-05,4e-05,0.00077,0.00042,-0.00021,0.00065,0.00037,6,20
33497,-8e-05,-2e-05,4e-05,0.00077,0.00042,-0.00021,0.00065,0.00037,6,20
33498,-8e-05,-2e-05,4e-05,0.00077,0.00042,-0.00021,0.00065,0.00037,6,20
33499,-8e-05,-2e-05,4e-05,0.00077,0.00042,-0.00021,0.00065,0.00037,6,20
33500,-8e-05,-2e-05,4e-05,0.00077,0.00042,-0.00021,0.00065,0.00037,6,20
33501,-8e-05,-2e-05,4e-05,0.00077,0.00042,-0.00021,0.00065,0.00037,6,20
33502,-8e-05,-2e-05,4e-05,0.00077,0.00042,-0.00021,0.00065,0.00037,6,20
33503,-8e-05,-2e-05,4e-05,0.00077,0.00042,-0.00021,0.00065,0.00037,6,20
33504,0.00013,-4e-05,-5e-05,3e-05,-7e-05,-0.0007,-9e-05,-7e-05,6,20
33505,0.00013,-4e-05,-5e-05,3e-05,-7e-05,-0.0007,-9e-05,-7e-05,6,20
33506,0.00013,-4e-05,-5e-05,3e-05,-7e-05,-0.0007,-9e-05,-7e-05,6,20
33507,0.00013,-4e-05,-5e-05,3e-05,-7e-05,-0.0007,-9e-05,-7e-05,6,20
33508,0.00013,-4e-05,-5e-05,3e-05,-7e-05,-0.0007,-9e-05,-7e-05,6,20
33509,0.00013,-4e-05,-5e-05,3e-05,-7e-05,-0.0007,-9e-05,-7e-05,6,20
33510,0.00013,-4e-05,-5e-05,3e-05,-7e-05,-0.0007,-9e-05,-7e-05,6,20
33511,-0.0001,-0.00011,-6e-05,-0.00035,-0.00049,-0.00097,-0.00017,0.00045,6,20
33512,-0.0001,-0.00011,-6e-05,-0.00035,-0.00049,-0.00097,-0.00017,0.00045,6,20
33513,-0.0001,-0.00011,-6e-05,-0.00035,-0.00049,-0.00097,-0.00017,0.00045,6,20
33514,-0.0001,-0.00011,-6e-05,-0.00035,-0.00049,-0.00097,-0.00017,0.00045,6,20
33515,-0.0001,-0.00011,-6e-05,-0.00035,-0.00049,-0.00097,-0.00017,0.00045,6,20
33516,-0.0001,-0.00011,-6e-05,-0.00035,-0.00049,-0.00097,-0.00017,0.00045,6,20
33517,-0.0001,-0.00011,-6e-05,-0.00035,-0.00049,-0.00097,-0.00017,0.00045,6,20
33518,-0.0001,-0.00011,-6e-05,-0.00035,-0.00049,-0.00097,-0.00017,0.00045,6,20
33519,-0.0001,-0.00011,-6e-05,-0.00035,-0.00049,-0.00097,-0.00017,0.00045,6,20
33520,-0.0001,-0.00011,-6e-05,-0.00035,-0.00049,-0.00097,-0.00017,0.00045,6,20
33521,-0.0001,-0.00011,-6e-05,-0.00035,-0.00049,-0.00097,-0.00017,0.00045,6,20
33522,-0.0001,-0.00011,-6e-05,-0.00035,-0.00049,-0.00097,-0.00017,0.00045,6,20
33523,-0.0001,-0.00011,-6e-05,-0.00035,-0.00049,-0.00097,-0.00017,0.00045,6,20
33524,-0.0001,-0.00011,-6e-05,-0.00035,-0.00049,-0.00097,-0.00017,0.00045,6,20
33525,-0.0001,-0.00011,-6e-05,-0.00035,-0.00049,-0.00097,-0.00017,0.00045,6,20
33526,0.00015,-5e-05,-7e-05,-0.00036,-0.00072,0.00018,0.00018,0.00025,6,20
33527,-0.00022,8e-05,6e-05,0.00011,0.00012,0.00064,-2e-05,-0.00026,6,20
33528,-0.00022,8e-05,6e-05,0.00011,0.00012,0.00064,-2e-05,-0.00026,6,20
33529,-0.00022,8e-05,6e-05,0.00011,0.00012,0.00064,-2e-05,-0.00026,6,20
33530,-0.00022,8e-05,6e-05,0.00011,0.00012,0.00064,-2e-05,-0.00026,6,20
33531,-0.00022,8e-05,6e-05,0.00011,0.00012,0.00064,-2e-05,-0.00026,6,20
33532,-0.00022,8e-05,6e-05,0.00011,0.00012,0.00064,-2e-05,-0.00026,6,20
33533,-0.00022,8e-05,6e-05,0.00011,0.00012,0.00064,-2e-05,-0.00026,6,20
33534,-0.00022,8e-05,6e-05,0.00011,0.00012,0.00064,-2e-05,-0.00026,6,20
33535,-0.00022,8e-05,6e-05,0.00011,0.00012,0.00064,-2e-05,-0.00026,6,20
33536,-0.00022,8e-05,6e-05,0.00011,0.00012,0.00064,-2e-05,-0.00026,6,20
33539,-0.00022,8e-05,6e-05,0.00011,0.00012,0.00064,-2e-05,-0.00026,6,20
33540,-0.00022,8e-05,6e-05,0.00011,0.00012,0.00064,-2e-05,-0.00026,6,20
33541,-0.00022,8e-05,6e-05,0.00011,0.00012,0.00064,-2e-05,-0.00026,6,20
33542,-0.00022,8e-05,6e-05,0.00011,0.00012,0.00064,-2e-05,-0.00026,6,20
33543,-0.00022,8e-05,6e-05,0.00011,0.00012,0.00064,-2e-05,-0.00026,6,20
33544,-0.00022,8e-05,6e-05,0.00011,0.00012,0.00064,-2e-05,-0.00026,6,20
33545,-0.00022,8e-05,6e-05,0.00011,0.00012,0.00064,-2e-05,-0.00026,6,20
33546,-0.00022,8e-05,6e-05,0.00011,0.00012,0.00064,-2e-05,-0.00026,6,20
33547,-0.00022,8e-05,6e-05,0.00011,0.00012,0.00064,-2e-05,-0.00026,6,20
33548,-0.0001,-1e-05,6e-05,0.00023,0.00034,0.00113,2e-05,0.00042,6,20
33549,4e-05,-4e-05,-5e-05,-1e-05,0.00022,0.00014,-0.00034,-0.00017,6,20
33550,4e-05,-4e-05,-5e-05,-1e-05,0.00022,0.00014,-0.00034,-0.00017,6,20
33551,4e-05,-4e-05,-5e-05,-1e-05,0.00022,0.00014,-0.00034,-0.00017,6,20
33552,4e-05,-4e-05,-5e-05,-1e-05,0.00022,0.00014,-0.00034,-0.00017,6,20
33553,4e-05,-4e-05,-5e-05,-1e-05,0.00022,0.00014,-0.00034,-0.00017,6,20
33554,4e-05,-4e-05,-5e-05,-1e-05,0.00022,0.00014,-0.00034,-0.00017,6,20
33555,4e-05,-4e-05,-5e-05,-1e-05,0.00022,0.00014,-0.00034,-0.00017,6,20
33556,4e-05,-4e-05,-5e-05,-1e-05,0.00022,0.00014,-0.00034,-0.00017,6,20
33557,4e-05,-4e-05,-5e-05,-1e-05,0.00022,0.00014,-0.00034,-0.00017,6,20
33558,4e-05,-4e-05,-5e-05,-1e-05,0.00022,0.00014,-0.00034,-0.00017,6,20
33559,4e-05,-4e-05,-5e-05,-1e-05,0.00022,0.00014,-0.00034,-0.00017,6,20
33560,4e-05,-4e-05,-5e-05,-1e-05,0.00022,0.00014,-0.00034,-0.00017,6,20
33561,4e-05,-4e-05,-5e-05,-1e-05,0.00022,0.00014,-0.00034,-0.00017,6,20
33562,-6e-05,0,-2e-05,9e-05,0.0008,0.00074,-2e-05,8e-05,6,20
33563,-4e-05,0,0,-4e-05,-0.00072,-0.00035,0.00015,-0.00055,6,20
33564,-4e-05,0,0,-4e-05,-0.00072,-0.00035,0.00015,-0.00055,6,20
33565,-4e-05,0,0,-4e-05,-0.00072,-0.00035,0.00015,-0.00055,6,20
33566,-4e-05,0,0,-4e-05,-0.00072,-0.00035,0.00015,-0.00055,6,20
33567,-4e-05,0,0,-4e-05,-0.00072,-0.00035,0.00015,-0.00055,6,20
33568,-4e-05,0,0,-4e-05,-0.00072,-0.00035,0.00015,-0.00055,6,20
33569,-4e-05,0,0,-4e-05,-0.00072,-0.00035,0.00015,-0.00055,6,20
33570,-4e-05,0,0,-4e-05,-0.00072,-0.00035,0.00015,-0.00055,6,20
33571,-4e-05,0,0,-4e-05,-0.00072,-0.00035,0.00015,-0.00055,6,20
33572,8e-05,0.0001,9e-05,-9e-05,-0.00052,2e-05,-0.0005,0.00028,6,20
33573,8e-05,0.0001,9e-05,-9e-05,-0.00052,2e-05,-0.0005,0.00028,6,20
33574,8e-05,0.0001,9e-05,-9e-05,-0.00052,2e-05,-0.0005,0.00028,6,20
33575,8e-05,0.0001,9e-05,-9e-05,-0.00052,2e-05,-0.0005,0.00028,6,20
33576,8e-05,0.0001,9e-05,-9e-05,-0.00052,2e-05,-0.0005,0.00028,6,20
33577,8e-05,0.0001,9e-05,-9e-05,-0.00052,2e-05,-0.0005,0.00028,6,20
33578,8e-05,0.0001,9e-05,-9e-05,-0.00052,2e-05,-0.0005,0.00028,6,20
33579,8e-05,0.0001,9e-05,-9e-05,-0.00052,2e-05,-0.0005,0.00028,6,20
33580,8e-05,0.0001,9e-05,-9e-05,-0.00052,2e-05,-0.0005,0.00028,6,20
33581,8e-05,0.0001,9e-05,-9e-05,-0.00052,2e-05,-0.0005,0.00028,6,20
33582,8e-05,0.0001,9e-05,-9e-05,-0.00052,2e-05,-0.0005,0.00028,6,20
33583,8e-05,0.0001,9e-05,-9e-05,-0.00052,2e-05,-0.0005,0.00028,6,20
33584,8e-05,0.0001,9e-05,-9e-05,-0.00052,2e-05,-0.0005,0.00028,6,20
33585,8e-05,0.0001,9e-05,-9e-05,-0.00052,2e-05,-0.0005,0.00028,6,20
33587,0.00055,0.00011,0,-0.0002,-0.0002,0.0007,0.00014,-6e-05,6,20
33590,0.00055,0.00011,0,-0.0002,-0.0002,0.0007,0.00014,-6e-05,6,20
33591,0.00055,0.00011,0,-0.0002,-0.0002,0.0007,0.00014,-6e-05,6,20
33592,0.00055,0.00011,0,-0.0002,-0.0002,0.0007,0.00014,-6e-05,6,20
33594,0.00055,0.00011,0,-0.0002,-0.0002,0.0007,0.00014,-6e-05,6,20
33595,0.00055,0.00011,0,-0.0002,-0.0002,0.0007,0.00014,-6e-05,6,20
33596,0.00055,0.00011,0,-0.0002,-0.0002,0.0007,0.00014,-6e-05,6,20
33597,0.00055,0.00011,0,-0.0002,-0.0002,0.0007,0.00014,-6e-05,6,20
33598,0.00055,0.00011,0,-0.0002,-0.0002,0.0007,0.00014,-6e-05,6,20
33599,0.00055,0.00011,0,-0.0002,-0.0002,0.0007,0.00014,-6e-05,6,20
33600,0.00055,0.00011,0,-0.0002,-0.0002,0.0007,0.00014,-6e-05,6,20
33601,0.00055,0.00011,0,-0.0002,-0.0002,0.0007,0.00014,-6e-05,6,20
33602,0.00055,0.00011,0,-0.0002,-0.0002,0.0007,0.00014,-6e-05,6,20
33603,0.00055,0.00011,0,-0.0002,-0.0002,0.0007,0.00014,-6e-05,6,20
33604,0.00055,0.00011,0,-0.0002,-0.0002,0.0007,0.00014,-6e-05,6,20
33605,0.00055,0.00011,0,-0.0002,-0.0002,0.0007,0.00014,-6e-05,6,20
33606,0.00055,0.00011,0,-0.0002,-0.0002,0.0007,0.00014,-6e-05,6,20
33607,0.00055,0.00011,0,-0.0002,-0.0002,0.0007,0.00014,-6e-05,6,20
33608,0.00055,0.00011,0,-0.0002,-0.0002,0.0007,0.00014,-6e-05,6,20
33609,0.00055,0.00011,0,-0.0002,-0.0002,0.0007,0.00014,-6e-05,6,20
33610,0.00055,0.00011,0,-0.0002,-0.0002,0.0007,0.00014,-6e-05,6,20
33611,0.00055,0.00011,0,-0.0002,-0.0002,0.0007,0.00014,-6e-05,6,20
33612,0.00055,0.00011,0,-0.0002,-0.0002,0.0007,0.00014,-6e-05,6,20
33613,0.00055,0.00011,0,-0.0002,-0.0002,0.0007,0.00014,-6e-05,6,20
33614,0.00055,0.00011,0,-0.0002,-0.0002,0.0007,0.00014,-6e-05,6,20
33615,0.00055,0.00011,0,-0.0002,-0.0002,0.0007,0.00014,-6e-05,6,20
33616,7e-05,-3e-05,-3e-05,-6e-05,0.00019,0.00058,-2e-05,0.00013,6,20
33617,0.00016,-2e-05,-4e-05,-0.00012,-6e-05,0.00022,0.00026,0.00084,6,20
33618,0.00016,-2e-05,-4e-05,-0.00012,-6e-05,0.00022,0.00026,0.00084,6,20
33619,0.00016,-2e-05,-4e-05,-0.00012,-6e-05,0.00022,0.00026,0.00084,6,20
33620,0.00016,-2e-05,-4e-05,-0.00012,-6e-05,0.00022,0.00026,0.00084,6,20
33621,0.00016,-2e-05,-4e-05,-0.00012,-6e-05,0.00022,0.00026,0.00084,6,20
33622,0.00016,-2e-05,-4e-05,-0.00012,-6e-05,0.00022,0.00026,0.00084,6,20
33623,-0.00033,-1e-05,0,0.00021,0.00026,-0.0005,-0.0001,-8e-05,6,20
33624,-0.00033,-1e-05,0,0.00021,0.00026,-0.0005,-0.0001,-8e-05,6,20
33625,-0.00033,-1e-05,0,0.00021,0.00026,-0.0005,-0.0001,-8e-05,6,20
33626,-0.00033,-1e-05,0,0.00021,0.00026,-0.0005,-0.0001,-8e-05,6,20
33627,-0.00033,-1e-05,0,0.00021,0.00026,-0.0005,-0.0001,-8e-05,6,20
33628,-0.00033,-1e-05,0,0.00021,0.00026,-0.0005,-0.0001,-8e-05,6,20
33629,-0.00033,-1e-05,0,0.00021,0.00026,-0.0005,-0.0001,-8e-05,6,20
33630,-0.00018,2e-05,0,5e-05,0.00017,0.001,0.00014,-1e-05,6,20
33631,-1e-05,-5e-05,-6e-05,-0.00016,0.00033,3e-05,7e-05,0.00015,6,20
33632,-1e-05,-5e-05,-6e-05,-0.00016,0.00033,3e-05,7e-05,0.00015,6,20
33633,-1e-05,-5e-05,-6e-05,-0.00016,0.00033,3e-05,7e-05,0.00015,6,20
33634,-1e-05,-5e-05,-6e-05,-0.00016,0.00033,3e-05,7e-05,0.00015,6,20
33635,-1e-05,-5e-05,-6e-05,-0.00016,0.00033,3e-05,7e-05,0.00015,6,20
33636,-1e-05,-5e-05,-6e-05,-0.00016,0.00033,3e-05,7e-05,0.00015,6,20
33639,-1e-05,-5e-05,-6e-05,-0.00016,0.00033,3e-05,7e-05,0.00015,6,20
33640,-1e-05,-5e-05,-6e-05,-0.00016,0.00033,3e-05,7e-05,0.00015,6,20
33641,-1e-05,-5e-05,-6e-05,-0.00016,0.00033,3e-05,7e-05,0.00015,6,20
33642,-1e-05,-5e-05,-6e-05,-0.00016,0.00033,3e-05,7e-05,0.00015,6,20
33643,-1e-05,-5e-05,-6e-05,-0.00016,0.00033,3e-05,7e-05,0.00015,6,20
33644,-1e-05,-5e-05,-6e-05,-0.00016,0.00033,3e-05,7e-05,0.00015,6,20
33645,-1e-05,-5e-05,-6e-05,-0.00016,0.00033,3e-05,7e-05,0.00015,6,20
33646,-0.00024,-0.00013,-2e-05,0.00047,0.00015,-0.00067,-0.0004,-0.00043,6,20
33647,-0.00024,-0.00013,-2e-05,0.00047,0.00015,-0.00067,-0.0004,-0.00043,6,20
33648,-0.00024,-0.00013,-2e-05,0.00047,0.00015,-0.00067,-0.0004,-0.00043,6,20
33649,-0.00024,-0.00013,-2e-05,0.00047,0.00015,-0.00067,-0.0004,-0.00043,6,20
33650,-0.00024,-0.00013,-2e-05,0.00047,0.00015,-0.00067,-0.0004,-0.00043,6,20
33651,-0.00024,-0.00013,-2e-05,0.00047,0.00015,-0.00067,-0.0004,-0.00043,6,20
33652,-0.00024,-0.00013,-2e-05,0.00047,0.00015,-0.00067,-0.0004,-0.00043,6,20
33653,-0.00024,-0.00013,-2e-05,0.00047,0.00015,-0.00067,-0.0004,-0.00043,6,20
33654,-0.00024,-0.00013,-2e-05,0.00047,0.00015,-0.00067,-0.0004,-0.00043,6,20
33655,-0.00024,-0.00013,-2e-05,0.00047,0.00015,-0.00067,-0.0004,-0.00043,6,20
33656,-0.00024,-0.00013,-2e-05,0.00047,0.00015,-0.00067,-0.0004,-0.00043,6,20
33657,-0.00024,-0.00013,-2e-05,0.00047,0.00015,-0.00067,-0.0004,-0.00043,6,20
33658,-0.00024,-0.00013,-2e-05,0.00047,0.00015,-0.00067,-0.0004,-0.00043,6,20
33659,-0.00024,-0.00013,-2e-05,0.00047,0.00015,-0.00067,-0.0004,-0.00043,6,20
33660,-0.00024,-0.00013,-2e-05,0.00047,0.00015,-0.00067,-0.0004,-0.00043,6,20
33661,-0.00024,-0.00013,-2e-05,0.00047,0.00015,-0.00067,-0.0004,-0.00043,6,20
33662,-0.00024,-0.00013,-2e-05,0.00047,0.00015,-0.00067,-0.0004,-0.00043,6,20
33663,-0.00024,-0.00013,-2e-05,0.00047,0.00015,-0.00067,-0.0004,-0.00043,6,20
33664,-0.00024,-0.00013,-2e-05,0.00047,0.00015,-0.00067,-0.0004,-0.00043,6,20
33665,-0.00024,-0.00013,-2e-05,0.00047,0.00015,-0.00067,-0.0004,-0.00043,6,20
33666,-0.00024,-0.00013,-2e-05,0.00047,0.00015,-0.00067,-0.0004,-0.00043,6,20
33667,-0.00024,-0.00013,-2e-05,0.00047,0.00015,-0.00067,-0.0004,-0.00043,6,20
33668,-1e-05,-3e-05,-6e-05,-0.00011,-0.00066,-0.00092,0.00043,-0.00074,6,20
33669,-8e-05,-1e-05,-5e-05,-0.0003,-0.00027,-1e-05,0.00014,-0.00035,6,20
33670,-8e-05,-1e-05,-5e-05,-0.0003,-0.00027,-1e-05,0.00014,-0.00035,6,20
33671,-8e-05,-1e-05,-5e-05,-0.0003,-0.00027,-1e-05,0.00014,-0.00035,6,20
33672,-8e-05,-1e-05,-5e-05,-0.0003,-0.00027,-1e-05,0.00014,-0.00035,6,20
33673,-8e-05,-1e-05,-5e-05,-0.0003,-0.00027,-1e-05,0.00014,-0.00035,6,20
33674,-8e-05,-1e-05,-5e-05,-0.0003,-0.00027,-1e-05,0.00014,-0.00035,6,20
33675,-8e-05,-1e-05,-5e-05,-0.0003,-0.00027,-1e-05,0.00014,-0.00035,6,20
33676,-8e-05,-1e-05,-5e-05,-0.0003,-0.00027,-1e-05,0.00014,-0.00035,6,20
33677,-8e-05,-1e-05,-5e-05,-0.0003,-0.00027,-1e-05,0.00014,-0.00035,6,20
33678,-8e-05,-1e-05,-5e-05,-0.0003,-0.00027,-1e-05,0.00014,-0.00035,6,20
33679,-8e-05,-1e-05,-5e-05,-0.0003,-0.00027,-1e-05,0.00014,-0.00035,6,20
33680,-8e-05,-1e-05,-5e-05,-0.0003,-0.00027,-1e-05,0.00014,-0.00035,6,20
33681,-8e-05,-1e-05,-5e-05,-0.0003,-0.00027,-1e-05,0.00014,-0.00035,6,20
33682,0.00014,1e-05,0.0001,0.00054,0.00114,-0.00033,4e-05,0.00053,6,20
33683,0.00019,1e-05,-7e-05,-0.00011,-0.00025,0.00015,0,0.00013,6,20
33684,0.00019,1e-05,-7e-05,-0.00011,-0.00025,0.00015,0,0.00013,6,20
33685,0.00019,1e-05,-7e-05,-0.00011,-0.00025,0.00015,0,0.00013,6,20
33686,0.00019,1e-05,-7e-05,-0.00011,-0.00025,0.00015,0,0.00013,6,20
33689,0.00019,1e-05,-7e-05,-0.00011,-0.00025,0.00015,0,0.00013,6,20
33690,0.00019,1e-05,-7e-05,-0.00011,-0.00025,0.00015,0,0.00013,6,20
33691,0.00019,1e-05,-7e-05,-0.00011,-0.00025,0.00015,0,0.00013,6,20
33692,0.00019,1e-05,-7e-05,-0.00011,-0.00025,0.00015,0,0.00013,6,20
33693,0.00019,1e-05,-7e-05,-0.00011,-0.00025,0.00015,0,0.00013,6,20
33694,0.00019,1e-05,-7e-05,-0.00011,-0.00025,0.00015,0,0.00013,6,20
33695,0.00019,1e-05,-7e-05,-0.00011,-0.00025,0.00015,0,0.00013,6,20
33696,0.00019,1e-05,-7e-05,-0.00011,-0.00025,0.00015,0,0.00013,6,20
33697,0.00019,1e-05,-7e-05,-0.00011,-0.00025,0.00015,0,0.00013,6,20
33698,0.00013,6e-05,-2e-05,-2e-05,-0.00025,-0.00034,0.00012,0.00011,6,20
33699,0.00013,6e-05,-2e-05,-2e-05,-0.00025,-0.00034,0.00012,0.00011,6,20
33700,0.00013,6e-05,-2e-05,-2e-05,-0.00025,-0.00034,0.00012,0.00011,6,20
33701,0.00013,6e-05,-2e-05,-2e-05,-0.00025,-0.00034,0.00012,0.00011,6,20
33702,0.00013,6e-05,-2e-05,-2e-05,-0.00025,-0.00034,0.00012,0.00011,6,20
33703,0.00013,6e-05,-2e-05,-2e-05,-0.00025,-0.00034,0.00012,0.00011,6,20
33704,0.00013,6e-05,-2e-05,-2e-05,-0.00025,-0.00034,0.00012,0.00011,6,20
33705,0.00013,6e-05,-2e-05,-2e-05,-0.00025,-0.00034,0.00012,0.00011,6,20
33706,-0.00014,-8e-05,-7e-05,0.00024,0.00066,-0.00016,-1e-05,0,6,20
33707,6e-05,-8e-05,-0.00011,-0.00026,-0.00047,-0.00081,-0.0001,-0.00023,6,20
33708,6e-05,-8e-05,-0.00011,-0.00026,-0.00047,-0.00081,-0.0001,-0.00023,6,20
33709,6e-05,-8e-05,-0.00011,-0.00026,-0.00047,-0.00081,-0.0001,-0.00023,6,20
33710,6e-05,-8e-05,-0.00011,-0.00026,-0.00047,-0.00081,-0.0001,-0.00023,6,20
33711,6e-05,-8e-05,-0.00011,-0.00026,-0.00047,-0.00081,-0.0001,-0.00023,6,20
33712,6e-05,-8e-05,-0.00011,-0.00026,-0.00047,-0.00081,-0.0001,-0.00023,6,20
33713,6e-05,-8e-05,-0.00011,-0.00026,-0.00047,-0.00081,-0.0001,-0.00023,6,20
33714,6e-05,-8e-05,-0.00011,-0.00026,-0.00047,-0.00081,-0.0001,-0.00023,6,20
33715,6e-05,-8e-05,-0.00011,-0.00026,-0.00047,-0.00081,-0.0001,-0.00023,6,20
33716,6e-05,-8e-05,-0.00011,-0.00026,-0.00047,-0.00081,-0.0001,-0.00023,6,20
33717,6e-05,-8e-05,-0.00011,-0.00026,-0.00047,-0.00081,-0.0001,-0.00023,6,20
33718,6e-05,-8e-05,-0.00011,-0.00026,-0.00047,-0.00081,-0.0001,-0.00023,6,20
33719,6e-05,-8e-05,-0.00011,-0.00026,-0.00047,-0.00081,-0.0001,-0.00023,6,20
33720,6e-05,-8e-05,-0.00011,-0.00026,-0.00047,-0.00081,-0.0001,-0.00023,6,20
33721,6e-05,-8e-05,-0.00011,-0.00026,-0.00047,-0.00081,-0.0001,-0.00023,6,20
33722,6e-05,-8e-05,-0.00011,-0.00026,-0.00047,-0.00081,-0.0001,-0.00023,6,20
33723,6e-05,-8e-05,-0.00011,-0.00026,-0.00047,-0.00081,-0.0001,-0.00023,6,20
33724,6e-05,-8e-05,-0.00011,-0.00026,-0.00047,-0.00081,-0.0001,-0.00023,6,20
33725,6e-05,-8e-05,-0.00011,-0.00026,-0.00047,-0.00081,-0.0001,-0.00023,6,20
33726,6e-05,-8e-05,-0.00011,-0.00026,-0.00047,-0.00081,-0.0001,-0.00023,6,20
33727,6e-05,-8e-05,-0.00011,-0.00026,-0.00047,-0.00081,-0.0001,-0.00023,6,20
33728,-0.00015,-5e-05,-3e-05,7e-05,0.00022,0.00051,-0.00029,3e-05,6,20
33729,-0.00014,-3e-05,0.0001,0.00082,0.001,0.00039,7e-05,0.00017,6,20
33730,-0.00014,-3e-05,0.0001,0.00082,0.001,0.00039,7e-05,0.00017,6,20
33731,-0.00014,-3e-05,0.0001,0.00082,0.001,0.00039,7e-05,0.00017,6,20
33732,-0.00014,-3e-05,0.0001,0.00082,0.001,0.00039,7e-05,0.00017,6,20
33733,-0.00014,-3e-05,0.0001,0.00082,0.001,0.00039,7e-05,0.00017,6,20
33735,-0.00014,-3e-05,0.0001,0.00082,0.001,0.00039,7e-05,0.00017,6,20
33736,-0.00014,-3e-05,0.0001,0.00082,0.001,0.00039,7e-05,0.00017,6,20
33739,-0.00014,-3e-05,0.0001,0.00082,0.001,0.00039,7e-05,0.00017,6,20
33740,-0.00014,-3e-05,0.0001,0.00082,0.001,0.00039,7e-05,0.00017,6,20
33741,-0.00014,-3e-05,0.0001,0.00082,0.001,0.00039,7e-05,0.00017,6,20
33742,-0.00014,-3e-05,0.0001,0.00082,0.001,0.00039,7e-05,0.00017,6,20
33743,-0.00014,-3e-05,0.0001,0.00082,0.001,0.00039,7e-05,0.00017,6,20
33744,-0.00014,-3e-05,0.0001,0.00082,0.001,0.00039,7e-05,0.00017,6,20
33745,-0.00014,-3e-05,0.0001,0.00082,0.001,0.00039,7e-05,0.00017,6,20
33746,-0.00014,-3e-05,0.0001,0.00082,0.001,0.00039,7e-05,0.00017,6,20
33747,-0.00014,-3e-05,0.0001,0.00082,0.001,0.00039,7e-05,0.00017,6,20
33748,-0.00014,-3e-05,0.0001,0.00082,0.001,0.00039,7e-05,0.00017,6,20
33749,-0.00014,-3e-05,0.0001,0.00082,0.001,0.00039,7e-05,0.00017,6,20
33750,-0.00014,-3e-05,0.0001,0.00082,0.001,0.00039,7e-05,0.00017,6,20
33751,-0.00033,-4e-05,2e-05,5e-05,-0.00016,-0.0009,-0.00024,-0.00015,6,20
33752,-5e-05,-1e-05,-2e-05,-0.00019,0.00035,0.00062,0.00017,-0.00027,6,20
33753,-5e-05,-1e-05,-2e-05,-0.00019,0.00035,0.00062,0.00017,-0.00027,6,20
33754,-5e-05,-1e-05,-2e-05,-0.00019,0.00035,0.00062,0.00017,-0.00027,6,20
33755,-5e-05,-1e-05,-2e-05,-0.00019,0.00035,0.00062,0.00017,-0.00027,6,20
33756,-5e-05,-1e-05,-2e-05,-0.00019,0.00035,0.00062,0.00017,-0.00027,6,20
33757,-5e-05,-1e-05,-2e-05,-0.00019,0.00035,0.00062,0.00017,-0.00027,6,20
33758,-5e-05,-1e-05,-2e-05,-0.00019,0.00035,0.00062,0.00017,-0.00027,6,20
33759,-5e-05,-1e-05,-2e-05,-0.00019,0.00035,0.00062,0.00017,-0.00027,6,20
33760,-5e-05,-1e-05,-2e-05,-0.00019,0.00035,0.00062,0.00017,-0.00027,6,20
33761,-5e-05,-1e-05,-2e-05,-0.00019,0.00035,0.00062,0.00017,-0.00027,6,20
33762,-5e-05,-1e-05,-2e-05,-0.00019,0.00035,0.00062,0.00017,-0.00027,6,20
33763,-5e-05,-1e-05,-2e-05,-0.00019,0.00035,0.00062,0.00017,-0.00027,6,20
33764,-5e-05,-1e-05,-2e-05,-0.00019,0.00035,0.00062,0.00017,-0.00027,6,20
33765,-0.00019,-2e-05,-4e-05,0.00026,0.00029,-0.00076,-2e-05,0.00014,6,20
33766,0.00045,0.00015,7e-05,-0.00013,-0.00024,0.00015,0.00025,-9e-05,6,20
33767,0.00045,0.00015,7e-05,-0.00013,-0.00024,0.00015,0.00025,-9e-05,6,20
33768,0.00045,0.00015,7e-05,-0.00013,-0.00024,0.00015,0.00025,-9e-05,6,20
33769,0.00045,0.00015,7e-05,-0.00013,-0.00024,0.00015,0.00025,-9e-05,6,20
33770,0.00045,0.00015,7e-05,-0.00013,-0.00024,0.00015,0.00025,-9e-05,6,20
33771,0.00045,0.00015,7e-05,-0.00013,-0.00024,0.00015,0.00025,-9e-05,6,20
33772,0.00045,0.00015,7e-05,-0.00013,-0.00024,0.00015,0.00025,-9e-05,6,20
33773,0.00045,0.00015,7e-05,-0.00013,-0.00024,0.00015,0.00025,-9e-05,6,20
33774,0.00045,0.00015,7e-05,-0.00013,-0.00024,0.00015,0.00025,-9e-05,6,20
33775,0.00045,0.00015,7e-05,-0.00013,-0.00024,0.00015,0.00025,-9e-05,6,20
33776,0.00045,0.00015,7e-05,-0.00013,-0.00024,0.00015,0.00025,-9e-05,6,20
33777,0.00045,0.00015,7e-05,-0.00013,-0.00024,0.00015,0.00025,-9e-05,6,20
33778,0.00045,0.00015,7e-05,-0.00013,-0.00024,0.00015,0.00025,-9e-05,6,20
33779,0.00045,0.00015,7e-05,-0.00013,-0.00024,0.00015,0.00025,-9e-05,6,20
33780,0.00045,0.00015,7e-05,-0.00013,-0.00024,0.00015,0.00025,-9e-05,6,20
33781,0.00045,0.00015,7e-05,-0.00013,-0.00024,0.00015,0.00025,-9e-05,6,20
33782,0.00045,0.00015,7e-05,-0.00013,-0.00024,0.00015,0.00025,-9e-05,6,20
33783,0.00045,0.00015,7e-05,-0.00013,-0.00024,0.00015,0.00025,-9e-05,6,20
33784,0.00045,0.00015,7e-05,-0.00013,-0.00024,0.00015,0.00025,-9e-05,6,20
33785,0.00045,0.00015,7e-05,-0.00013,-0.00024,0.00015,0.00025,-9e-05,6,20
33786,0.00045,0.00015,7e-05,-0.00013,-0.00024,0.00015,0.00025,-9e-05,6,20
33789,5e-05,-1e-05,-7e-05,7e-05,0.00053,0.00035,-6e-05,-9e-05,6,20
33790,5e-05,-1e-05,-7e-05,7e-05,0.00053,0.00035,-6e-05,-9e-05,6,20
33791,5e-05,-1e-05,-7e-05,7e-05,0.00053,0.00035,-6e-05,-9e-05,6,20
33792,5e-05,-1e-05,-7e-05,7e-05,0.00053,0.00035,-6e-05,-9e-05,6,20
33793,5e-05,-1e-05,-7e-05,7e-05,0.00053,0.00035,-6e-05,-9e-05,6,20
33794,5e-05,-1e-05,-7e-05,7e-05,0.00053,0.00035,-6e-05,-9e-05,6,20
33795,5e-05,-1e-05,-7e-05,7e-05,0.00053,0.00035,-6e-05,-9e-05,6,20
33796,5e-05,-1e-05,-7e-05,7e-05,0.00053,0.00035,-6e-05,-9e-05,6,20
33797,5e-05,-1e-05,-7e-05,7e-05,0.00053,0.00035,-6e-05,-9e-05,6,20
33798,5e-05,-1e-05,-7e-05,7e-05,0.00053,0.00035,-6e-05,-9e-05,6,20
33799,5e-05,-1e-05,-7e-05,7e-05,0.00053,0.00035,-6e-05,-9e-05,6,20
33800,5e-05,-1e-05,-7e-05,7e-05,0.00053,0.00035,-6e-05,-9e-05,6,20
33801,5e-05,-1e-05,-7e-05,7e-05,0.00053,0.00035,-6e-05,-9e-05,6,20
33802,5e-05,-1e-05,-7e-05,7e-05,0.00053,0.00035,-6e-05,-9e-05,6,20
33803,5e-05,-1e-05,-7e-05,7e-05,0.00053,0.00035,-6e-05,-9e-05,6,20
33804,5e-05,-1e-05,-7e-05,7e-05,0.00053,0.00035,-6e-05,-9e-05,6,20
33805,5e-05,-1e-05,-7e-05,7e-05,0.00053,0.00035,-6e-05,-9e-05,6,20
33806,5e-05,-1e-05,-7e-05,7e-05,0.00053,0.00035,-6e-05,-9e-05,6,20
33807,5e-05,-1e-05,-7e-05,7e-05,0.00053,0.00035,-6e-05,-9e-05,6,20
33808,5e-05,-1e-05,-7e-05,7e-05,0.00053,0.00035,-6e-05,-9e-05,6,20
33809,5e-05,-1e-05,-7e-05,7e-05,0.00053,0.00035,-6e-05,-9e-05,6,20
33810,5e-05,-1e-05,-7e-05,7e-05,0.00053,0.00035,-6e-05,-9e-05,6,20
33811,0.00011,6e-05,4e-05,-0.00029,-0.00017,0.00018,0.0002,0.00042,6,20
33812,-0.00035,-1e-05,3e-05,-1e-05,-0.00038,-0.00042,-0.0003,-0.0002,6,20
33813,-0.00035,-1e-05,3e-05,-1e-05,-0.00038,-0.00042,-0.0003,-0.0002,6,20
33814,-0.00035,-1e-05,3e-05,-1e-05,-0.00038,-0.00042,-0.0003,-0.0002,6,20
33815,-0.00035,-1e-05,3e-05,-1e-05,-0.00038,-0.00042,-0.0003,-0.0002,6,20
33816,-0.00035,-1e-05,3e-05,-1e-05,-0.00038,-0.00042,-0.0003,-0.0002,6,20
33817,-0.00035,-1e-05,3e-05,-1e-05,-0.00038,-0.00042,-0.0003,-0.0002,6,20
33818,-0.00035,-1e-05,3e-05,-1e-05,-0.00038,-0.00042,-0.0003,-0.0002,6,20
33819,-0.00035,-1e-05,3e-05,-1e-05,-0.00038,-0.00042,-0.0003,-0.0002,6,20
33820,-0.00035,-1e-05,3e-05,-1e-05,-0.00038,-0.00042,-0.0003,-0.0002,6,20
33821,-0.00035,-1e-05,3e-05,-1e-05,-0.00038,-0.00042,-0.0003,-0.0002,6,20
33822,-0.00035,-1e-05,3e-05,-1e-05,-0.00038,-0.00042,-0.0003,-0.0002,6,20
33823,-0.00035,-1e-05,3e-05,-1e-05,-0.00038,-0.00042,-0.0003,-0.0002,6,20
33824,-0.00035,-1e-05,3e-05,-1e-05,-0.00038,-0.00042,-0.0003,-0.0002,6,20
33825,-0.00035,-1e-05,3e-05,-1e-05,-0.00038,-0.00042,-0.0003,-0.0002,6,20
33826,0.00043,0.0001,0.0001,0.00029,0.00092,0.00037,-0.0003,0.00027,6,20
33827,-2e-05,-5e-05,-8e-05,-0.00046,-0.00091,-0.00044,-0.00017,-0.00039,6,20
33828,-2e-05,-5e-05,-8e-05,-0.00046,-0.00091,-0.00044,-0.00017,-0.00039,6,20
33829,-2e-05,-5e-05,-8e-05,-0.00046,-0.00091,-0.00044,-0.00017,-0.00039,6,20
33830,-2e-05,-5e-05,-8e-05,-0.00046,-0.00091,-0.00044,-0.00017,-0.00039,6,20
33831,-2e-05,-5e-05,-8e-05,-0.00046,-0.00091,-0.00044,-0.00017,-0.00039,6,20
33832,-2e-05,-5e-05,-8e-05,-0.00046,-0.00091,-0.00044,-0.00017,-0.00039,6,20
33833,-2e-05,-5e-05,-8e-05,-0.00046,-0.00091,-0.00044,-0.00017,-0.00039,6,20
33834,-2e-05,-5e-05,-8e-05,-0.00046,-0.00091,-0.00044,-0.00017,-0.00039,6,20
33835,-2e-05,-5e-05,-8e-05,-0.00046,-0.00091,-0.00044,-0.00017,-0.00039,6,20
33836,-2e-05,-5e-05,-8e-05,-0.00046,-0.00091,-0.00044,-0.00017,-0.00039,6,20
33839,-2e-05,-5e-05,-8e-05,-0.00046,-0.00091,-0.00044,-0.00017,-0.00039,6,20
33840,-2e-05,-5e-05,-8e-05,-0.00046,-0.00091,-0.00044,-0.00017,-0.00039,6,20
33841,-2e-05,-5e-05,-8e-05,-0.00046,-0.00091,-0.00044,-0.00017,-0.00039,6,20
33842,-2e-05,-5e-05,-8e-05,-0.00046,-0.00091,-0.00044,-0.00017,-0.00039,6,20
33843,-2e-05,-5e-05,-8e-05,-0.00046,-0.00091,-0.00044,-0.00017,-0.00039,6,20
33844,-2e-05,-5e-05,-8e-05,-0.00046,-0.00091,-0.00044,-0.00017,-0.00039,6,20
33845,-2e-05,-5e-05,-8e-05,-0.00046,-0.00091,-0.00044,-0.00017,-0.00039,6,20
33846,-2e-05,-5e-05,-8e-05,-0.00046,-0.00091,-0.00044,-0.00017,-0.00039,6,20
33847,-2e-05,-5e-05,-8e-05,-0.00046,-0.00091,-0.00044,-0.00017,-0.00039,6,20
33848,0.00015,-9e-05,-0.0001,-0.00017,-0.00044,-0.00045,-0.00017,-0.00015,6,20
33849,-6e-05,-4e-05,-9e-05,0,0.00038,2e-05,0.0001,-0.00014,6,20
33850,-6e-05,-4e-05,-9e-05,0,0.00038,2e-05,0.0001,-0.00014,6,20
33851,-6e-05,-4e-05,-9e-05,0,0.00038,2e-05,0.0001,-0.00014,6,20
33852,-6e-05,-4e-05,-9e-05,0,0.00038,2e-05,0.0001,-0.00014,6,20
33853,-6e-05,-4e-05,-9e-05,0,0.00038,2e-05,0.0001,-0.00014,6,20
33854,-6e-05,-4e-05,-9e-05,0,0.00038,2e-05,0.0001,-0.00014,6,20
33855,-6e-05,-4e-05,-9e-05,0,0.00038,2e-05,0.0001,-0.00014,6,20
33856,-6e-05,-4e-05,-9e-05,0,0.00038,2e-05,0.0001,-0.00014,6,20
33857,-6e-05,-4e-05,-9e-05,0,0.00038,2e-05,0.0001,-0.00014,6,20
33858,-6e-05,-4e-05,-9e-05,0,0.00038,2e-05,0.0001,-0.00014,6,20
33859,-6e-05,-4e-05,-9e-05,0,0.00038,2e-05,0.0001,-0.00014,6,20
33860,-6e-05,-4e-05,-9e-05,0,0.00038,2e-05,0.0001,-0.00014,6,20
33861,-6e-05,-4e-05,-9e-05,0,0.00038,2e-05,0.0001,-0.00014,6,20
33862,-6e-05,-4e-05,-9e-05,0,0.00038,2e-05,0.0001,-0.00014,6,20
33863,-6e-05,-4e-05,-9e-05,0,0.00038,2e-05,0.0001,-0.00014,6,20
33864,-6e-05,-4e-05,-9e-05,0,0.00038,2e-05,0.0001,-0.00014,6,20
33865,-6e-05,-4e-05,-9e-05,0,0.00038,2e-05,0.0001,-0.00014,6,20
33866,-6e-05,-4e-05,-9e-05,0,0.00038,2e-05,0.0001,-0.00014,6,20
33867,-6e-05,-4e-05,-9e-05,0,0.00038,2e-05,0.0001,-0.00014,6,20
33868,-6e-05,-4e-05,-9e-05,0,0.00038,2e-05,0.0001,-0.00014,6,20
33869,-6e-05,-4e-05,-9e-05,0,0.00038,2e-05,0.0001,-0.00014,6,20
33870,-6e-05,-4e-05,-9e-05,0,0.00038,2e-05,0.0001,-0.00014,6,20
33871,0.00034,0.0001,9e-05,0.00022,0.00032,0.00079,-0.0001,-7e-05,6,20
33872,-0.00037,-7e-05,-0.0001,-0.00041,-0.00017,-0.00116,-0.00022,-0.0001,6,20
33873,0.00011,0,-2e-05,-0.00011,-0.00051,-0.0001,-0.00016,0.00048,6,20
33874,0.00011,0,-2e-05,-0.00011,-0.00051,-0.0001,-0.00016,0.00048,6,20
33875,0.00011,0,-2e-05,-0.00011,-0.00051,-0.0001,-0.00016,0.00048,6,20
33876,0.00011,0,-2e-05,-0.00011,-0.00051,-0.0001,-0.00016,0.00048,6,20
33877,0.00011,0,-2e-05,-0.00011,-0.00051,-0.0001,-0.00016,0.00048,6,20
33878,0.00011,0,-2e-05,-0.00011,-0.00051,-0.0001,-0.00016,0.00048,6,20
33879,0.00011,0,-2e-05,-0.00011,-0.00051,-0.0001,-0.00016,0.00048,6,20
33880,0.00011,0,-2e-05,-0.00011,-0.00051,-0.0001,-0.00016,0.00048,6,20
33881,0.00011,0,-2e-05,-0.00011,-0.00051,-0.0001,-0.00016,0.00048,6,20
33882,0.00011,0,-2e-05,-0.00011,-0.00051,-0.0001,-0.00016,0.00048,6,20
33883,0.00011,0,-2e-05,-0.00011,-0.00051,-0.0001,-0.00016,0.00048,6,20
33884,0.00011,0,-2e-05,-0.00011,-0.00051,-0.0001,-0.00016,0.00048,6,20
33885,0.00011,0,-2e-05,-0.00011,-0.00051,-0.0001,-0.00016,0.00048,6,20
33886,-0.0004,-6e-05,1e-05,6e-05,-0.00031,-5e-05,0.00022,6e-05,6,20
33889,0.00013,0,-6e-05,-0.0001,0.00036,-0.00074,-0.00019,-0.00108,6,20
33890,0.00013,0,-6e-05,-0.0001,0.00036,-0.00074,-0.00019,-0.00108,6,20
33891,0.00013,0,-6e-05,-0.0001,0.00036,-0.00074,-0.00019,-0.00108,6,20
33892,0.00013,0,-6e-05,-0.0001,0.00036,-0.00074,-0.00019,-0.00108,6,20
33893,0.00033,2e-05,4e-05,6e-05,0.00021,-0.00033,-4e-05,0.00044,6,20
33894,0.00033,2e-05,4e-05,6e-05,0.00021,-0.00033,-4e-05,0.00044,6,20
33895,0.00033,2e-05,4e-05,6e-05,0.00021,-0.00033,-4e-05,0.00044,6,20
33896,0.00033,2e-05,4e-05,6e-05,0.00021,-0.00033,-4e-05,0.00044,6,20
33897,0.00033,2e-05,4e-05,6e-05,0.00021,-0.00033,-4e-05,0.00044,6,20
33898,0.00033,2e-05,4e-05,6e-05,0.00021,-0.00033,-4e-05,0.00044,6,20
33899,0.00033,2e-05,4e-05,6e-05,0.00021,-0.00033,-4e-05,0.00044,6,20
33900,0.00033,2e-05,4e-05,6e-05,0.00021,-0.00033,-4e-05,0.00044,6,20
33901,0.00033,2e-05,4e-05,6e-05,0.00021,-0.00033,-4e-05,0.00044,6,20
33902,0.00033,2e-05,4e-05,6e-05,0.00021,-0.00033,-4e-05,0.00044,6,20
33903,0.00033,2e-05,4e-05,6e-05,0.00021,-0.00033,-4e-05,0.00044,6,20
33904,0.00033,2e-05,4e-05,6e-05,0.00021,-0.00033,-4e-05,0.00044,6,20
33905,0.00033,2e-05,4e-05,6e-05,0.00021,-0.00033,-4e-05,0.00044,6,20
33906,0.00033,2e-05,4e-05,6e-05,0.00021,-0.00033,-4e-05,0.00044,6,20
33907,0.00033,2e-05,4e-05,6e-05,0.00021,-0.00033,-4e-05,0.00044,6,20
33908,-1e-05,6e-05,9e-05,0.00011,-0.00034,0.00079,-0.00015,-0.00044,6,20
33909,0.00016,-8e-05,-9e-05,2e-05,0.00035,0.00107,-0.00022,0.0005,6,20
33910,0.00016,-8e-05,-9e-05,2e-05,0.00035,0.00107,-0.00022,0.0005,6,20
33911,0.00016,-8e-05,-9e-05,2e-05,0.00035,0.00107,-0.00022,0.0005,6,20
33912,0.00016,-8e-05,-9e-05,2e-05,0.00035,0.00107,-0.00022,0.0005,6,20
33913,0.00016,-8e-05,-9e-05,2e-05,0.00035,0.00107,-0.00022,0.0005,6,20
33914,0.00016,-8e-05,-9e-05,2e-05,0.00035,0.00107,-0.00022,0.0005,6,20
33915,0.00016,-8e-05,-9e-05,2e-05,0.00035,0.00107,-0.00022,0.0005,6,20
33916,0.00016,-8e-05,-9e-05,2e-05,0.00035,0.00107,-0.00022,0.0005,6,20
33917,0.00016,-8e-05,-9e-05,2e-05,0.00035,0.00107,-0.00022,0.0005,6,20
33918,0.00016,-8e-05,-9e-05,2e-05,0.00035,0.00107,-0.00022,0.0005,6,20
33919,0.00016,-8e-05,-9e-05,2e-05,0.00035,0.00107,-0.00022,0.0005,6,20
33920,0.00016,-8e-05,-9e-05,2e-05,0.00035,0.00107,-0.00022,0.0005,6,20
33921,0.00016,-8e-05,-9e-05,2e-05,0.00035,0.00107,-0.00022,0.0005,6,20
33922,0.00016,-8e-05,-9e-05,2e-05,0.00035,0.00107,-0.00022,0.0005,6,20
33923,0.00016,-8e-05,-9e-05,2e-05,0.00035,0.00107,-0.00022,0.0005,6,20
33924,0.00016,-8e-05,-9e-05,2e-05,0.00035,0.00107,-0.00022,0.0005,6,20
33925,0.00016,-8e-05,-9e-05,2e-05,0.00035,0.00107,-0.00022,0.0005,6,20
33926,0.00016,-8e-05,-9e-05,2e-05,0.00035,0.00107,-0.00022,0.0005,6,20
33927,0.00016,-8e-05,-9e-05,2e-05,0.00035,0.00107,-0.00022,0.0005,6,20
33928,0.00016,-8e-05,-9e-05,2e-05,0.00035,0.00107,-0.00022,0.0005,6,20
33929,0.00016,-8e-05,-9e-05,2e-05,0.00035,0.00107,-0.00022,0.0005,6,20
33930,0.00016,-8e-05,-9e-05,2e-05,0.00035,0.00107,-0.00022,0.0005,6,20
33931,0.00037,-1e-05,-5e-05,-0.00056,-0.00086,0.00011,-4e-05,-0.00021,6,20
33932,-0.00036,-6e-05,-1e-05,0.00026,0.00034,0.001,0.00039,-0.00015,6,20
33933,-0.00036,-6e-05,-1e-05,0.00026,0.00034,0.001,0.00039,-0.00015,6,20
33934,-0.00036,-6e-05,-1e-05,0.00026,0.00034,0.001,0.00039,-0.00015,6,20
33935,-0.00036,-6e-05,-1e-05,0.00026,0.00034,0.001,0.00039,-0.00015,6,20
33936,-0.00036,-6e-05,-1e-05,0.00026,0.00034,0.001,0.00039,-0.00015,6,20
33940,-0.00036,-6e-05,-1e-05,0.00026,0.00034,0.001,0.00039,-0.00015,6,20
33941,-0.00036,-6e-05,-1e-05,0.00026,0.00034,0.001,0.00039,-0.00015,6,20
33942,-0.00036,-6e-05,-1e-05,0.00026,0.00034,0.001,0.00039,-0.00015,6,20
33943,-0.00036,-6e-05,-1e-05,0.00026,0.00034,0.001,0.00039,-0.00015,6,20
33944,-0.00036,-6e-05,-1e-05,0.00026,0.00034,0.001,0.00039,-0.00015,6,20
33945,-0.00036,-6e-05,-1e-05,0.00026,0.00034,0.001,0.00039,-0.00015,6,20
33946,-0.00063,-0.00014,-4e-05,-2e-05,-6e-05,-0.00063,-8e-05,-0.00095,6,20
33947,-0.00063,-0.00014,-4e-05,-2e-05,-6e-05,-0.00063,-8e-05,-0.00095,6,20
33948,-0.00063,-0.00014,-4e-05,-2e-05,-6e-05,-0.00063,-8e-05,-0.00095,6,20
33949,-0.00063,-0.00014,-4e-05,-2e-05,-6e-05,-0.00063,-8e-05,-0.00095,6,20
33950,-0.00063,-0.00014,-4e-05,-2e-05,-6e-05,-0.00063,-8e-05,-0.00095,6,20
33951,-0.00063,-0.00014,-4e-05,-2e-05,-6e-05,-0.00063,-8e-05,-0.00095,6,20
33952,-0.00063,-0.00014,-4e-05,-2e-05,-6e-05,-0.00063,-8e-05,-0.00095,6,20
33953,-0.00063,-0.00014,-4e-05,-2e-05,-6e-05,-0.00063,-8e-05,-0.00095,6,20
33954,-0.00063,-0.00014,-4e-05,-2e-05,-6e-05,-0.00063,-8e-05,-0.00095,6,20
33955,-0.00063,-0.00014,-4e-05,-2e-05,-6e-05,-0.00063,-8e-05,-0.00095,6,20
33956,-0.00063,-0.00014,-4e-05,-2e-05,-6e-05,-0.00063,-8e-05,-0.00095,6,20
33957,-0.00063,-0.00014,-4e-05,-2e-05,-6e-05,-0.00063,-8e-05,-0.00095,6,20
33958,-0.00063,-0.00014,-4e-05,-2e-05,-6e-05,-0.00063,-8e-05,-0.00095,6,20
33959,-0.00063,-0.00014,-4e-05,-2e-05,-6e-05,-0.00063,-8e-05,-0.00095,6,20
33960,-0.00063,-0.00014,-4e-05,-2e-05,-6e-05,-0.00063,-8e-05,-0.00095,6,20
33961,-0.00063,-0.00014,-4e-05,-2e-05,-6e-05,-0.00063,-8e-05,-0.00095,6,20
33962,-0.00063,-0.00014,-4e-05,-2e-05,-6e-05,-0.00063,-8e-05,-0.00095,6,20
33963,-0.00063,-0.00014,-4e-05,-2e-05,-6e-05,-0.00063,-8e-05,-0.00095,6,20
33964,-0.00063,-0.00014,-4e-05,-2e-05,-6e-05,-0.00063,-8e-05,-0.00095,6,20
33965,-0.00063,-0.00014,-4e-05,-2e-05,-6e-05,-0.00063,-8e-05,-0.00095,6,20
33966,-0.00063,-0.00014,-4e-05,-2e-05,-6e-05,-0.00063,-8e-05,-0.00095,6,20
33967,-0.00063,-0.00014,-4e-05,-2e-05,-6e-05,-0.00063,-8e-05,-0.00095,6,20
33968,-0.00063,-0.00014,-4e-05,-2e-05,-6e-05,-0.00063,-8e-05,-0.00095,6,20
33969,-0.00063,-0.00014,-4e-05,-2e-05,-6e-05,-0.00063,-8e-05,-0.00095,6,20
33970,-0.00063,-0.00014,-4e-05,-2e-05,-6e-05,-0.00063,-8e-05,-0.00095,6,20
33971,-0.00063,-0.00014,-4e-05,-2e-05,-6e-05,-0.00063,-8e-05,-0.00095,6,20
33972,-0.00063,-0.00014,-4e-05,-2e-05,-6e-05,-0.00063,-8e-05,-0.00095,6,20
33973,-0.00063,-0.00014,-4e-05,-2e-05,-6e-05,-0.00063,-8e-05,-0.00095,6,20
33974,-0.00063,-0.00014,-4e-05,-2e-05,-6e-05,-0.00063,-8e-05,-0.00095,6,20
33975,-0.00063,-0.00014,-4e-05,-2e-05,-6e-05,-0.00063,-8e-05,-0.00095,6,20
33976,-0.00014,5e-05,9e-05,0.00048,0.00073,0.00029,2e-05,0.00019,6,20
33977,-0.00022,-0.0001,2e-05,1e-05,0.00012,-0.00045,-0.00028,0.00082,6,20
33978,-0.00022,-0.0001,2e-05,1e-05,0.00012,-0.00045,-0.00028,0.00082,6,20
33979,-0.00022,-0.0001,2e-05,1e-05,0.00012,-0.00045,-0.00028,0.00082,6,20
33980,-0.00022,-0.0001,2e-05,1e-05,0.00012,-0.00045,-0.00028,0.00082,6,20
33981,-0.00022,-0.0001,2e-05,1e-05,0.00012,-0.00045,-0.00028,0.00082,6,20
33982,-0.00022,-0.0001,2e-05,1e-05,0.00012,-0.00045,-0.00028,0.00082,6,20
33983,-0.00022,-0.0001,2e-05,1e-05,0.00012,-0.00045,-0.00028,0.00082,6,20
33984,-0.00022,-0.0001,2e-05,1e-05,0.00012,-0.00045,-0.00028,0.00082,6,20
33985,-0.00022,-0.0001,2e-05,1e-05,0.00012,-0.00045,-0.00028,0.00082,6,20
33986,-0.00022,-0.0001,2e-05,1e-05,0.00012,-0.00045,-0.00028,0.00082,6,20
33989,-0.00022,-0.0001,2e-05,1e-05,0.00012,-0.00045,-0.00028,0.00082,6,20
33990,-0.00022,-0.0001,2e-05,1e-05,0.00012,-0.00045,-0.00028,0.00082,6,20
33991,4e-05,0,4e-05,4e-05,-3e-05,-3e-05,-0.00017,-0.0001,6,20
33992,0.00014,9e-05,2e-05,0.00014,0.00053,-0.00042,0.0005,-0.0004,6,20
33993,0.00014,9e-05,2e-05,0.00014,0.00053,-0.00042,0.0005,-0.0004,6,20
33994,0.00014,9e-05,2e-05,0.00014,0.00053,-0.00042,0.0005,-0.0004,6,20
33995,0.00014,9e-05,2e-05,0.00014,0.00053,-0.00042,0.0005,-0.0004,6,20
33996,0.00014,9e-05,2e-05,0.00014,0.00053,-0.00042,0.0005,-0.0004,6,20
33997,0.00014,9e-05,2e-05,0.00014,0.00053,-0.00042,0.0005,-0.0004,6,20
33998,0.00014,9e-05,2e-05,0.00014,0.00053,-0.00042,0.0005,-0.0004,6,20
33999,0.00014,9e-05,2e-05,0.00014,0.00053,-0.00042,0.0005,-0.0004,6,20
34000,0.00014,9e-05,2e-05,0.00014,0.00053,-0.00042,0.0005,-0.0004,6,20
34001,0.00014,9e-05,2e-05,0.00014,0.00053,-0.00042,0.0005,-0.0004,6,20
34002,0.00014,9e-05,2e-05,0.00014,0.00053,-0.00042,0.0005,-0.0004,6,20
34003,0.00014,9e-05,2e-05,0.00014,0.00053,-0.00042,0.0005,-0.0004,6,20
34004,0.00014,9e-05,2e-05,0.00014,0.00053,-0.00042,0.0005,-0.0004,6,20
34005,-0.00022,-8e-05,-7e-05,-0.00029,-0.00011,-0.00046,-0.00052,-0.00041,6,20
34006,-0.00031,-9e-05,-0.0001,-0.00013,0.00036,0.00094,-5e-05,-8e-05,6,20
34007,-0.00031,-9e-05,-0.0001,-0.00013,0.00036,0.00094,-5e-05,-8e-05,6,20
34008,-0.00031,-9e-05,-0.0001,-0.00013,0.00036,0.00094,-5e-05,-8e-05,6,20
34009,-0.00031,-9e-05,-0.0001,-0.00013,0.00036,0.00094,-5e-05,-8e-05,6,20
34010,-0.00031,-9e-05,-0.0001,-0.00013,0.00036,0.00094,-5e-05,-8e-05,6,20
34011,-0.00031,-9e-05,-0.0001,-0.00013,0.00036,0.00094,-5e-05,-8e-05,6,20
34012,-0.00031,-9e-05,-0.0001,-0.00013,0.00036,0.00094,-5e-05,-8e-05,6,20
34013,-0.00031,-9e-05,-0.0001,-0.00013,0.00036,0.00094,-5e-05,-8e-05,6,20
34014,-0.00031,-9e-05,-0.0001,-0.00013,0.00036,0.00094,-5e-05,-8e-05,6,20
34015,-0.00031,-9e-05,-0.0001,-0.00013,0.00036,0.00094,-5e-05,-8e-05,6,20
34016,-0.00031,-9e-05,-0.0001,-0.00013,0.00036,0.00094,-5e-05,-8e-05,6,20
34017,-0.00031,-9e-05,-0.0001,-0.00013,0.00036,0.00094,-5e-05,-8e-05,6,20
34018,-0.00031,-9e-05,-0.0001,-0.00013,0.00036,0.00094,-5e-05,-8e-05,6,20
34019,-0.00031,-9e-05,-0.0001,-0.00013,0.00036,0.00094,-5e-05,-8e-05,6,20
34020,-0.00031,-9e-05,-0.0001,-0.00013,0.00036,0.00094,-5e-05,-8e-05,6,20
34021,-0.00031,-9e-05,-0.0001,-0.00013,0.00036,0.00094,-5e-05,-8e-05,6,20
34022,-0.00031,-9e-05,-0.0001,-0.00013,0.00036,0.00094,-5e-05,-8e-05,6,20
34023,-0.00031,-9e-05,-0.0001,-0.00013,0.00036,0.00094,-5e-05,-8e-05,6,20
34024,-0.00031,-9e-05,-0.0001,-0.00013,0.00036,0.00094,-5e-05,-8e-05,6,20
34025,-0.00031,-9e-05,-0.0001,-0.00013,0.00036,0.00094,-5e-05,-8e-05,6,20
34026,-0.00031,-9e-05,-0.0001,-0.00013,0.00036,0.00094,-5e-05,-8e-05,6,20
34027,-0.00031,-9e-05,-0.0001,-0.00013,0.00036,0.00094,-5e-05,-8e-05,6,20
34028,3e-05,0,1e-05,0.00018,-0.00017,-0.00114,-0.00023,0.00012,6,20
34029,0.00011,-5e-05,3e-05,0.00041,-0.00033,-0.00095,1e-05,-0.00031,6,20
34030,0.00011,-5e-05,3e-05,0.00041,-0.00033,-0.00095,1e-05,-0.00031,6,20
34031,0.00011,-5e-05,3e-05,0.00041,-0.00033,-0.00095,1e-05,-0.00031,6,20
34032,0.00011,-5e-05,3e-05,0.00041,-0.00033,-0.00095,1e-05,-0.00031,6,20
34033,0.00011,-5e-05,3e-05,0.00041,-0.00033,-0.00095,1e-05,-0.00031,6,20
34034,0.00011,-5e-05,3e-05,0.00041,-0.00033,-0.00095,1e-05,-0.00031,6,20
34035,0.00011,-5e-05,3e-05,0.00041,-0.00033,-0.00095,1e-05,-0.00031,6,20
34036,0.00011,-5e-05,3e-05,0.00041,-0.00033,-0.00095,1e-05,-0.00031,6,20
34039,0.00011,-5e-05,3e-05,0.00041,-0.00033,-0.00095,1e-05,-0.00031,6,20
34040,0.00011,-5e-05,3e-05,0.00041,-0.00033,-0.00095,1e-05,-0.00031,6,20
34041,0.00011,-5e-05,3e-05,0.00041,-0.00033,-0.00095,1e-05,-0.00031,6,20
34042,0.00011,-5e-05,3e-05,0.00041,-0.00033,-0.00095,1e-05,-0.00031,6,20
34043,0.00011,-5e-05,3e-05,0.00041,-0.00033,-0.00095,1e-05,-0.00031,6,20
34044,0.00011,-5e-05,3e-05,0.00041,-0.00033,-0.00095,1e-05,-0.00031,6,20
34045,0.00011,-5e-05,3e-05,0.00041,-0.00033,-0.00095,1e-05,-0.00031,6,20
34046,0.00011,-5e-05,3e-05,0.00041,-0.00033,-0.00095,1e-05,-0.00031,6,20
34047,0.00011,-5e-05,3e-05,0.00041,-0.00033,-0.00095,1e-05,-0.00031,6,20
34048,0.00011,-5e-05,3e-05,0.00041,-0.00033,-0.00095,1e-05,-0.00031,6,20
34049,0.00011,-5e-05,3e-05,0.00041,-0.00033,-0.00095,1e-05,-0.00031,6,20
34050,0.00011,-5e-05,3e-05,0.00041,-0.00033,-0.00095,1e-05,-0.00031,6,20
34051,0.00011,-5e-05,3e-05,0.00041,-0.00033,-0.00095,1e-05,-0.00031,6,20
34052,0.00011,-5e-05,3e-05,0.00041,-0.00033,-0.00095,1e-05,-0.00031,6,20
34053,0.00011,-5e-05,3e-05,0.00041,-0.00033,-0.00095,1e-05,-0.00031,6,20
34054,0.00011,-5e-05,3e-05,0.00041,-0.00033,-0.00095,1e-05,-0.00031,6,20
34055,0.00011,-5e-05,3e-05,0.00041,-0.00033,-0.00095,1e-05,-0.00031,6,20
34056,0.00011,-5e-05,3e-05,0.00041,-0.00033,-0.00095,1e-05,-0.00031,6,20
34057,0.00011,-5e-05,3e-05,0.00041,-0.00033,-0.00095,1e-05,-0.00031,6,20
34058,0.00011,-5e-05,3e-05,0.00041,-0.00033,-0.00095,1e-05,-0.00031,6,20
34059,0,-1e-05,-0.00011,-0.00034,0.00064,0.00059,0.0001,7e-05,6,20
34060,-2e-05,-2e-05,-6e-05,-0.00067,-0.0011,-0.00068,1e-05,-0.00017,6,20
34061,-2e-05,-2e-05,-6e-05,-0.00067,-0.0011,-0.00068,1e-05,-0.00017,6,20
34063,-2e-05,-2e-05,-6e-05,-0.00067,-0.0011,-0.00068,1e-05,-0.00017,6,20
34064,-2e-05,-2e-05,-6e-05,-0.00067,-0.0011,-0.00068,1e-05,-0.00017,6,20
34065,-2e-05,-2e-05,-6e-05,-0.00067,-0.0011,-0.00068,1e-05,-0.00017,6,20
34066,-0.0002,-4e-05,-7e-05,3e-05,0.00055,-0.00046,5e-05,0.00031,6,20
34067,-0.0002,-4e-05,-7e-05,3e-05,0.00055,-0.00046,5e-05,0.00031,6,20
34068,-0.0002,-4e-05,-7e-05,3e-05,0.00055,-0.00046,5e-05,0.00031,6,20
34069,-0.0002,-4e-05,-7e-05,3e-05,0.00055,-0.00046,5e-05,0.00031,6,20
34070,-0.0002,-4e-05,-7e-05,3e-05,0.00055,-0.00046,5e-05,0.00031,6,20
34071,-0.0002,-4e-05,-7e-05,3e-05,0.00055,-0.00046,5e-05,0.00031,6,20
34072,-0.0002,-4e-05,-7e-05,3e-05,0.00055,-0.00046,5e-05,0.00031,6,20
34073,-0.0002,-4e-05,-7e-05,3e-05,0.00055,-0.00046,5e-05,0.00031,6,20
34074,-0.0002,-4e-05,-7e-05,3e-05,0.00055,-0.00046,5e-05,0.00031,6,20
34075,-0.0002,-4e-05,-7e-05,3e-05,0.00055,-0.00046,5e-05,0.00031,6,20
34076,-0.0002,-4e-05,-7e-05,3e-05,0.00055,-0.00046,5e-05,0.00031,6,20
34077,-0.0002,-4e-05,-7e-05,3e-05,0.00055,-0.00046,5e-05,0.00031,6,20
34078,-0.0002,-4e-05,-7e-05,3e-05,0.00055,-0.00046,5e-05,0.00031,6,20
34079,-0.0002,-4e-05,-7e-05,3e-05,0.00055,-0.00046,5e-05,0.00031,6,20
34080,-0.0002,-4e-05,-7e-05,3e-05,0.00055,-0.00046,5e-05,0.00031,6,20
34081,-0.0002,-4e-05,-7e-05,3e-05,0.00055,-0.00046,5e-05,0.00031,6,20
34082,-0.0002,-4e-05,-7e-05,3e-05,0.00055,-0.00046,5e-05,0.00031,6,20
34083,-0.0002,-4e-05,-7e-05,3e-05,0.00055,-0.00046,5e-05,0.00031,6,20
34084,-0.0002,-4e-05,-7e-05,3e-05,0.00055,-0.00046,5e-05,0.00031,6,20
34085,-0.0002,-4e-05,-7e-05,3e-05,0.00055,-0.00046,5e-05,0.00031,6,20
34086,-0.0002,-4e-05,-7e-05,3e-05,0.00055,-0.00046,5e-05,0.00031,6,20
34089,0.00054,5e-05,-2e-05,-0.00046,-0.00061,0.00089,-0.00047,-0.00059,6,20
34091,-7e-05,0.00018,0.00014,0.00034,0.00035,0.00103,-0.00014,8e-05,6,20
34092,-7e-05,0.00018,0.00014,0.00034,0.00035,0.00103,-0.00014,8e-05,6,20
34093,-7e-05,0.00018,0.00014,0.00034,0.00035,0.00103,-0.00014,8e-05,6,20
34094,-7e-05,0.00018,0.00014,0.00034,0.00035,0.00103,-0.00014,8e-05,6,20
34095,-7e-05,0.00018,0.00014,0.00034,0.00035,0.00103,-0.00014,8e-05,6,20
34096,-7e-05,0.00018,0.00014,0.00034,0.00035,0.00103,-0.00014,8e-05,6,20
34097,-7e-05,0.00018,0.00014,0.00034,0.00035,0.00103,-0.00014,8e-05,6,20
34098,-7e-05,0.00018,0.00014,0.00034,0.00035,0.00103,-0.00014,8e-05,6,20
34099,-7e-05,0.00018,0.00014,0.00034,0.00035,0.00103,-0.00014,8e-05,6,20
34100,-7e-05,0.00018,0.00014,0.00034,0.00035,0.00103,-0.00014,8e-05,6,20
34101,-7e-05,0.00018,0.00014,0.00034,0.00035,0.00103,-0.00014,8e-05,6,20
34102,-7e-05,0.00018,0.00014,0.00034,0.00035,0.00103,-0.00014,8e-05,6,20
34103,-7e-05,0.00018,0.00014,0.00034,0.00035,0.00103,-0.00014,8e-05,6,20
34104,-7e-05,0.00018,0.00014,0.00034,0.00035,0.00103,-0.00014,8e-05,6,20
34105,-7e-05,0.00018,0.00014,0.00034,0.00035,0.00103,-0.00014,8e-05,6,20
34106,-7e-05,0.00018,0.00014,0.00034,0.00035,0.00103,-0.00014,8e-05,6,20
34107,-7e-05,0.00018,0.00014,0.00034,0.00035,0.00103,-0.00014,8e-05,6,20
34108,-7e-05,0.00018,0.00014,0.00034,0.00035,0.00103,-0.00014,8e-05,6,20
34109,-7e-05,0.00018,0.00014,0.00034,0.00035,0.00103,-0.00014,8e-05,6,20
34110,-7e-05,0.00018,0.00014,0.00034,0.00035,0.00103,-0.00014,8e-05,6,20
34111,0.00029,4e-05,-3e-05,0.00013,0.00052,-0.00018,0.00034,0.00027,6,20
34112,-2e-05,4e-05,3e-05,-9e-05,-0.00081,-2e-05,-7e-05,-0.00031,6,20
34113,-2e-05,4e-05,3e-05,-9e-05,-0.00081,-2e-05,-7e-05,-0.00031,6,20
34114,-2e-05,4e-05,3e-05,-9e-05,-0.00081,-2e-05,-7e-05,-0.00031,6,20
34115,-2e-05,4e-05,3e-05,-9e-05,-0.00081,-2e-05,-7e-05,-0.00031,6,20
34116,-2e-05,4e-05,3e-05,-9e-05,-0.00081,-2e-05,-7e-05,-0.00031,6,20
34117,-2e-05,4e-05,3e-05,-9e-05,-0.00081,-2e-05,-7e-05,-0.00031,6,20
34118,-2e-05,4e-05,3e-05,-9e-05,-0.00081,-2e-05,-7e-05,-0.00031,6,20
34119,-2e-05,4e-05,3e-05,-9e-05,-0.00081,-2e-05,-7e-05,-0.00031,6,20
34120,-2e-05,4e-05,3e-05,-9e-05,-0.00081,-2e-05,-7e-05,-0.00031,6,20
34121,-2e-05,4e-05,3e-05,-9e-05,-0.00081,-2e-05,-7e-05,-0.00031,6,20
34122,-2e-05,4e-05,3e-05,-9e-05,-0.00081,-2e-05,-7e-05,-0.00031,6,20
34123,-2e-05,4e-05,3e-05,-9e-05,-0.00081,-2e-05,-7e-05,-0.00031,6,20
34124,-2e-05,4e-05,3e-05,-9e-05,-0.00081,-2e-05,-7e-05,-0.00031,6,20
34125,-5e-05,3e-05,5e-05,-0.00011,8e-05,0,-0.00042,0.00119,6,20
34126,-0.00032,-0.0002,-7e-05,-0.00022,9e-05,-0.00039,-0.00066,3e-05,6,20
34127,-0.00032,-0.0002,-7e-05,-0.00022,9e-05,-0.00039,-0.00066,3e-05,6,20
34128,-0.00032,-0.0002,-7e-05,-0.00022,9e-05,-0.00039,-0.00066,3e-05,6,20
34129,-0.00032,-0.0002,-7e-05,-0.00022,9e-05,-0.00039,-0.00066,3e-05,6,20
34130,-0.00032,-0.0002,-7e-05,-0.00022,9e-05,-0.00039,-0.00066,3e-05,6,20
34131,-0.00032,-0.0002,-7e-05,-0.00022,9e-05,-0.00039,-0.00066,3e-05,6,20
34132,-0.00032,-0.0002,-7e-05,-0.00022,9e-05,-0.00039,-0.00066,3e-05,6,20
34133,-0.00032,-0.0002,-7e-05,-0.00022,9e-05,-0.00039,-0.00066,3e-05,6,20
34134,-0.00032,-0.0002,-7e-05,-0.00022,9e-05,-0.00039,-0.00066,3e-05,6,20
34135,-0.00032,-0.0002,-7e-05,-0.00022,9e-05,-0.00039,-0.00066,3e-05,6,20
34136,-0.00032,-0.0002,-7e-05,-0.00022,9e-05,-0.00039,-0.00066,3e-05,6,20
34139,-0.00032,-0.0002,-7e-05,-0.00022,9e-05,-0.00039,-0.00066,3e-05,6,20
34140,-0.00032,-0.0002,-7e-05,-0.00022,9e-05,-0.00039,-0.00066,3e-05,6,20
34141,-0.00032,-0.0002,-7e-05,-0.00022,9e-05,-0.00039,-0.00066,3e-05,6,20
34142,-0.00032,-0.0002,-7e-05,-0.00022,9e-05,-0.00039,-0.00066,3e-05,6,20
34143,-0.00032,-0.0002,-7e-05,-0.00022,9e-05,-0.00039,-0.00066,3e-05,6,20
34144,-0.00032,-0.0002,-7e-05,-0.00022,9e-05,-0.00039,-0.00066,3e-05,6,20
34145,-0.00032,-0.0002,-7e-05,-0.00022,9e-05,-0.00039,-0.00066,3e-05,6,20
34146,-0.00032,-0.0002,-7e-05,-0.00022,9e-05,-0.00039,-0.00066,3e-05,6,20
34147,-0.00032,-0.0002,-7e-05,-0.00022,9e-05,-0.00039,-0.00066,3e-05,6,20
34148,-6e-05,5e-05,5e-05,9e-05,0.0002,-0.00097,-0.00025,-0.00071,6,20
34149,0.0002,4e-05,-6e-05,-0.00041,-0.00076,-0.00053,0.00034,8e-05,6,20
34150,0.0002,4e-05,-6e-05,-0.00041,-0.00076,-0.00053,0.00034,8e-05,6,20
34151,0.0002,4e-05,-6e-05,-0.00041,-0.00076,-0.00053,0.00034,8e-05,6,20
34152,0.0002,4e-05,-6e-05,-0.00041,-0.00076,-0.00053,0.00034,8e-05,6,20
34153,0.0002,4e-05,-6e-05,-0.00041,-0.00076,-0.00053,0.00034,8e-05,6,20
34154,0.0002,4e-05,-6e-05,-0.00041,-0.00076,-0.00053,0.00034,8e-05,6,20
34155,0.0002,4e-05,-6e-05,-0.00041,-0.00076,-0.00053,0.00034,8e-05,6,20
34156,0.0002,4e-05,-6e-05,-0.00041,-0.00076,-0.00053,0.00034,8e-05,6,20
34157,0.0002,4e-05,-6e-05,-0.00041,-0.00076,-0.00053,0.00034,8e-05,6,20
34158,0.0002,4e-05,-6e-05,-0.00041,-0.00076,-0.00053,0.00034,8e-05,6,20
34159,0.0002,4e-05,-6e-05,-0.00041,-0.00076,-0.00053,0.00034,8e-05,6,20
34160,0.0002,4e-05,-6e-05,-0.00041,-0.00076,-0.00053,0.00034,8e-05,6,20
34161,0.0002,4e-05,-6e-05,-0.00041,-0.00076,-0.00053,0.00034,8e-05,6,20
34162,0.0002,4e-05,-6e-05,-0.00041,-0.00076,-0.00053,0.00034,8e-05,6,20
34163,0.0002,4e-05,-6e-05,-0.00041,-0.00076,-0.00053,0.00034,8e-05,6,20
34164,0.0002,4e-05,-6e-05,-0.00041,-0.00076,-0.00053,0.00034,8e-05,6,20
34165,0.0002,4e-05,-6e-05,-0.00041,-0.00076,-0.00053,0.00034,8e-05,6,20
34166,0.0002,4e-05,-6e-05,-0.00041,-0.00076,-0.00053,0.00034,8e-05,6,20
34167,0.0002,4e-05,-6e-05,-0.00041,-0.00076,-0.00053,0.00034,8e-05,6,20
34168,0.0002,4e-05,-6e-05,-0.00041,-0.00076,-0.00053,0.00034,8e-05,6,20
34169,0.0002,4e-05,-6e-05,-0.00041,-0.00076,-0.00053,0.00034,8e-05,6,20
34170,0.0002,4e-05,-6e-05,-0.00041,-0.00076,-0.00053,0.00034,8e-05,6,20
34171,0.0002,4e-05,-6e-05,-0.00041,-0.00076,-0.00053,0.00034,8e-05,6,20
34172,0.00034,0.00016,0.00013,-3e-05,-0.00068,-0.00032,-0.0001,-0.00029,6,20
34173,0.00034,0.00016,0.00013,-3e-05,-0.00068,-0.00032,-0.0001,-0.00029,6,20
34174,0.00034,0.00016,0.00013,-3e-05,-0.00068,-0.00032,-0.0001,-0.00029,6,20
34175,0.00034,0.00016,0.00013,-3e-05,-0.00068,-0.00032,-0.0001,-0.00029,6,20
34176,0.00034,0.00016,0.00013,-3e-05,-0.00068,-0.00032,-0.0001,-0.00029,6,20
34177,0.00034,0.00016,0.00013,-3e-05,-0.00068,-0.00032,-0.0001,-0.00029,6,20
34178,0.00034,0.00016,0.00013,-3e-05,-0.00068,-0.00032,-0.0001,-0.00029,6,20
34179,0.00034,0.00016,0.00013,-3e-05,-0.00068,-0.00032,-0.0001,-0.00029,6,20
34180,0.00034,0.00016,0.00013,-3e-05,-0.00068,-0.00032,-0.0001,-0.00029,6,20
34181,0.00034,0.00016,0.00013,-3e-05,-0.00068,-0.00032,-0.0001,-0.00029,6,20
34182,0.00034,0.00016,0.00013,-3e-05,-0.00068,-0.00032,-0.0001,-0.00029,6,20
34183,0.00034,0.00016,0.00013,-3e-05,-0.00068,-0.00032,-0.0001,-0.00029,6,20
34184,0.00034,0.00016,0.00013,-3e-05,-0.00068,-0.00032,-0.0001,-0.00029,6,20
34185,0.00034,0.00016,0.00013,-3e-05,-0.00068,-0.00032,-0.0001,-0.00029,6,20
34186,-0.00028,0.00011,0.0001,1e-05,0.0001,-0.00021,0.0005,-0.00051,6,20
34188,3e-05,-9e-05,-2e-05,0.00047,0.0012,-0.00041,-0.00016,-0.00024,6,20
34189,3e-05,-9e-05,-2e-05,0.00047,0.0012,-0.00041,-0.00016,-0.00024,6,20
34190,3e-05,-9e-05,-2e-05,0.00047,0.0012,-0.00041,-0.00016,-0.00024,6,20
34191,3e-05,-9e-05,-2e-05,0.00047,0.0012,-0.00041,-0.00016,-0.00024,6,20
34192,3e-05,-9e-05,-2e-05,0.00047,0.0012,-0.00041,-0.00016,-0.00024,6,20
34193,3e-05,-9e-05,-2e-05,0.00047,0.0012,-0.00041,-0.00016,-0.00024,6,20
