31054,-0.00019,-0.00013,-6e-05,-0.00011,-0.00094,-0.00058,-0.00023,0.00021,6,21
31055,-0.00019,-0.00013,-6e-05,-0.00011,-0.00094,-0.00058,-0.00023,0.00021,6,21
31056,-0.00019,-0.00013,-6e-05,-0.00011,-0.00094,-0.00058,-0.00023,0.00021,6,21
31057,-0.00019,-0.00013,-6e-05,-0.00011,-0.00094,-0.00058,-0.00023,0.00021,6,21
31058,6e-05,-6e-05,5e-05,-5e-05,-0.00073,-0.00056,-7e-05,-0.00036,6,21
31059,0.00018,2e-05,6e-05,1e-05,2e-05,-0.00055,0.00057,-0.00016,6,21
31060,0.00018,2e-05,6e-05,1e-05,2e-05,-0.00055,0.00057,-0.00016,6,21
31061,0.00018,2e-05,6e-05,1e-05,2e-05,-0.00055,0.00057,-0.00016,6,21
31062,0.00018,2e-05,6e-05,1e-05,2e-05,-0.00055,0.00057,-0.00016,6,21
31063,0.00018,2e-05,6e-05,1e-05,2e-05,-0.00055,0.00057,-0.00016,6,21
31064,0.00018,2e-05,6e-05,1e-05,2e-05,-0.00055,0.00057,-0.00016,6,21
31065,0.00018,2e-05,6e-05,1e-05,2e-05,-0.00055,0.00057,-0.00016,6,21
31066,0.00018,2e-05,6e-05,1e-05,2e-05,-0.00055,0.00057,-0.00016,6,21
31067,0.00018,2e-05,6e-05,1e-05,2e-05,-0.00055,0.00057,-0.00016,6,21
31068,0.00018,2e-05,6e-05,1e-05,2e-05,-0.00055,0.00057,-0.00016,6,21
31069,0.00018,2e-05,6e-05,1e-05,2e-05,-0.00055,0.00057,-0.00016,6,21
31070,0.00018,2e-05,6e-05,1e-05,2e-05,-0.00055,0.00057,-0.00016,6,21
31071,-0.00095,-0.0002,-0.00029,-7e-05,-0.00061,-0.00032,-0.00016,-2e-05,6,21
31072,0.00043,3e-05,0.0001,-9e-05,-0.00012,-0.00018,2e-05,0.00011,6,21
31073,0.00043,3e-05,0.0001,-9e-05,-0.00012,-0.00018,2e-05,0.00011,6,21
31074,0.00043,3e-05,0.0001,-9e-05,-0.00012,-0.00018,2e-05,0.00011,6,21
31075,0.00043,3e-05,0.0001,-9e-05,-0.00012,-0.00018,2e-05,0.00011,6,21
31076,0.00043,3e-05,0.0001,-9e-05,-0.00012,-0.00018,2e-05,0.00011,6,21
31077,0.00043,3e-05,0.0001,-9e-05,-0.00012,-0.00018,2e-05,0.00011,6,21
31078,0.00043,3e-05,0.0001,-9e-05,-0.00012,-0.00018,2e-05,0.00011,6,21
31079,0.00043,3e-05,0.0001,-9e-05,-0.00012,-0.00018,2e-05,0.00011,6,21
31080,-5e-05,-5e-05,-3e-05,-7e-05,-0.00022,0.00012,-0.00045,-0.00026,6,21
31081,-5e-05,-5e-05,-3e-05,-7e-05,-0.00022,0.00012,-0.00045,-0.00026,6,21
31082,-5e-05,-5e-05,-3e-05,-7e-05,-0.00022,0.00012,-0.00045,-0.00026,6,21
31083,-5e-05,-5e-05,-3e-05,-7e-05,-0.00022,0.00012,-0.00045,-0.00026,6,21
31084,-5e-05,-5e-05,-3e-05,-7e-05,-0.00022,0.00012,-0.00045,-0.00026,6,21
31085,-5e-05,-5e-05,-3e-05,-7e-05,-0.00022,0.00012,-0.00045,-0.00026,6,21
31087,-5e-05,-5e-05,-3e-05,-7e-05,-0.00022,0.00012,-0.00045,-0.00026,6,21
31089,-5e-05,-5e-05,-3e-05,-7e-05,-0.00022,0.00012,-0.00045,-0.00026,6,21
31090,-5e-05,-5e-05,-3e-05,-7e-05,-0.00022,0.00012,-0.00045,-0.00026,6,21
31091,-5e-05,-5e-05,-3e-05,-7e-05,-0.00022,0.00012,-0.00045,-0.00026,6,21
31092,-5e-05,-5e-05,-3e-05,-7e-05,-0.00022,0.00012,-0.00045,-0.00026,6,21
31093,-5e-05,-5e-05,-3e-05,-7e-05,-0.00022,0.00012,-0.00045,-0.00026,6,21
31094,-5e-05,-5e-05,-3e-05,-7e-05,-0.00022,0.00012,-0.00045,-0.00026,6,21
31095,-2e-05,-8e-05,3e-05,6e-05,0.00021,-0.00032,0.0001,0.00012,6,21
31096,0.00012,4e-05,8e-05,7e-05,0.00022,7e-05,-0.00019,-0.00049,6,21
31097,0.00012,4e-05,8e-05,7e-05,0.00022,7e-05,-0.00019,-0.00049,6,21
31098,0.00012,4e-05,8e-05,7e-05,0.00022,7e-05,-0.00019,-0.00049,6,21
31099,0.00012,4e-05,8e-05,7e-05,0.00022,7e-05,-0.00019,-0.00049,6,21
31100,0.00012,4e-05,8e-05,7e-05,0.00022,7e-05,-0.00019,-0.00049,6,21
31101,0.00012,4e-05,8e-05,7e-05,0.00022,7e-05,-0.00019,-0.00049,6,21
31102,0.00012,4e-05,8e-05,7e-05,0.00022,7e-05,-0.00019,-0.00049,6,21
31103,0.00012,4e-05,8e-05,7e-05,0.00022,7e-05,-0.00019,-0.00049,6,21
31104,0.00012,4e-05,8e-05,7e-05,0.00022,7e-05,-0.00019,-0.00049,6,21
31105,0.00012,4e-05,8e-05,7e-05,0.00022,7e-05,-0.00019,-0.00049,6,21
31106,0.00012,4e-05,8e-05,7e-05,0.00022,7e-05,-0.00019,-0.00049,6,21
31107,0.00012,4e-05,8e-05,7e-05,0.00022,7e-05,-0.00019,-0.00049,6,21
31108,0.00012,4e-05,8e-05,7e-05,0.00022,7e-05,-0.00019,-0.00049,6,21
31109,0.00012,4e-05,8e-05,7e-05,0.00022,7e-05,-0.00019,-0.00049,6,21
31110,0.00012,4e-05,8e-05,7e-05,0.00022,7e-05,-0.00019,-0.00049,6,21
31111,0.00012,4e-05,8e-05,7e-05,0.00022,7e-05,-0.00019,-0.00049,6,21
31112,0.00012,4e-05,8e-05,7e-05,0.00022,7e-05,-0.00019,-0.00049,6,21
31113,0.00012,4e-05,8e-05,7e-05,0.00022,7e-05,-0.00019,-0.00049,6,21
31114,0.00012,4e-05,8e-05,7e-05,0.00022,7e-05,-0.00019,-0.00049,6,21
31115,0.00012,4e-05,8e-05,7e-05,0.00022,7e-05,-0.00019,-0.00049,6,21
31116,0.00012,4e-05,8e-05,7e-05,0.00022,7e-05,-0.00019,-0.00049,6,21
31117,0.00012,4e-05,8e-05,7e-05,0.00022,7e-05,-0.00019,-0.00049,6,21
31118,-0.00022,1e-05,-2e-05,-0.00026,7e-05,0.00048,-0.0002,0.0001,6,21
31119,0.00015,-6e-05,-0.00012,-1e-05,-0.00016,-0.00059,0.00022,0.00013,6,21
31120,0.00015,-6e-05,-0.00012,-1e-05,-0.00016,-0.00059,0.00022,0.00013,6,21
31121,0.00015,-6e-05,-0.00012,-1e-05,-0.00016,-0.00059,0.00022,0.00013,6,21
31122,0.00015,-6e-05,-0.00012,-1e-05,-0.00016,-0.00059,0.00022,0.00013,6,21
31123,0.00015,-6e-05,-0.00012,-1e-05,-0.00016,-0.00059,0.00022,0.00013,6,21
31124,0.00015,-6e-05,-0.00012,-1e-05,-0.00016,-0.00059,0.00022,0.00013,6,21
31125,0.00015,-6e-05,-0.00012,-1e-05,-0.00016,-0.00059,0.00022,0.00013,6,21
31126,0.00015,-6e-05,-0.00012,-1e-05,-0.00016,-0.00059,0.00022,0.00013,6,21
31127,0.00015,-6e-05,-0.00012,-1e-05,-0.00016,-0.00059,0.00022,0.00013,6,21
31128,0.00015,-6e-05,-0.00012,-1e-05,-0.00016,-0.00059,0.00022,0.00013,6,21
31129,0.00015,-6e-05,-0.00012,-1e-05,-0.00016,-0.00059,0.00022,0.00013,6,21
31130,0.00015,-6e-05,-0.00012,-1e-05,-0.00016,-0.00059,0.00022,0.00013,6,21
31131,0.00015,-6e-05,-0.00012,-1e-05,-0.00016,-0.00059,0.00022,0.00013,6,21
31132,0.00015,-6e-05,-0.00012,-1e-05,-0.00016,-0.00059,0.00022,0.00013,6,21
31133,0.00015,-6e-05,-0.00012,-1e-05,-0.00016,-0.00059,0.00022,0.00013,6,21
31134,0.00015,-6e-05,-0.00012,-1e-05,-0.00016,-0.00059,0.00022,0.00013,6,21
31135,0.00015,-6e-05,-0.00012,-1e-05,-0.00016,-0.00059,0.00022,0.00013,6,21
31137,0.00015,-6e-05,-0.00012,-1e-05,-0.00016,-0.00059,0.00022,0.00013,6,21
31139,0.00015,-6e-05,-0.00012,-1e-05,-0.00016,-0.00059,0.00022,0.00013,6,21
31140,0.00015,-6e-05,-0.00012,-1e-05,-0.00016,-0.00059,0.00022,0.00013,6,21
31141,-0.00018,-4e-05,-4e-05,-6e-05,-0.00066,0.00025,-0.00018,-0.0002,6,21
31142,-0.00032,6e-05,-5e-05,-1e-05,0.00095,0.00042,0.0002,-7e-05,6,21
31143,-0.00032,6e-05,-5e-05,-1e-05,0.00095,0.00042,0.0002,-7e-05,6,21
31144,-0.00032,6e-05,-5e-05,-1e-05,0.00095,0.00042,0.0002,-7e-05,6,21
31145,-0.00032,6e-05,-5e-05,-1e-05,0.00095,0.00042,0.0002,-7e-05,6,21
31146,-0.00032,6e-05,-5e-05,-1e-05,0.00095,0.00042,0.0002,-7e-05,6,21
31147,-0.00032,6e-05,-5e-05,-1e-05,0.00095,0.00042,0.0002,-7e-05,6,21
31148,-0.00032,6e-05,-5e-05,-1e-05,0.00095,0.00042,0.0002,-7e-05,6,21
31149,-0.00032,6e-05,-5e-05,-1e-05,0.00095,0.00042,0.0002,-7e-05,6,21
31150,-0.00032,6e-05,-5e-05,-1e-05,0.00095,0.00042,0.0002,-7e-05,6,21
31151,-0.00032,6e-05,-5e-05,-1e-05,0.00095,0.00042,0.0002,-7e-05,6,21
31152,-0.00032,6e-05,-5e-05,-1e-05,0.00095,0.00042,0.0002,-7e-05,6,21
31153,-0.00032,6e-05,-5e-05,-1e-05,0.00095,0.00042,0.0002,-7e-05,6,21
31154,-0.00032,6e-05,-5e-05,-1e-05,0.00095,0.00042,0.0002,-7e-05,6,21
31155,0.00031,-0.00012,0,0.00016,0.00087,-3e-05,0.00041,-0.00032,6,21
31156,-0.00015,-0.0003,-0.00019,-0.00012,-7e-05,0.00025,0.00054,0.00033,6,21
31157,-0.00015,-0.0003,-0.00019,-0.00012,-7e-05,0.00025,0.00054,0.00033,6,21
31158,-0.00015,-0.0003,-0.00019,-0.00012,-7e-05,0.00025,0.00054,0.00033,6,21
31159,-0.00015,-0.0003,-0.00019,-0.00012,-7e-05,0.00025,0.00054,0.00033,6,21
31160,-0.00015,-0.0003,-0.00019,-0.00012,-7e-05,0.00025,0.00054,0.00033,6,21
31161,-0.00015,-0.0003,-0.00019,-0.00012,-7e-05,0.00025,0.00054,0.00033,6,21
31162,-0.00015,-0.0003,-0.00019,-0.00012,-7e-05,0.00025,0.00054,0.00033,6,21
31163,-0.00015,-0.0003,-0.00019,-0.00012,-7e-05,0.00025,0.00054,0.00033,6,21
31164,-0.00015,-0.0003,-0.00019,-0.00012,-7e-05,0.00025,0.00054,0.00033,6,21
31165,-0.00015,-0.0003,-0.00019,-0.00012,-7e-05,0.00025,0.00054,0.00033,6,21
31166,-0.00015,-0.0003,-0.00019,-0.00012,-7e-05,0.00025,0.00054,0.00033,6,21
31167,-0.00015,-0.0003,-0.00019,-0.00012,-7e-05,0.00025,0.00054,0.00033,6,21
31168,-0.00015,-0.0003,-0.00019,-0.00012,-7e-05,0.00025,0.00054,0.00033,6,21
31169,-0.00015,-0.0003,-0.00019,-0.00012,-7e-05,0.00025,0.00054,0.00033,6,21
31170,-0.00015,-0.0003,-0.00019,-0.00012,-7e-05,0.00025,0.00054,0.00033,6,21
31171,-0.00015,-0.0003,-0.00019,-0.00012,-7e-05,0.00025,0.00054,0.00033,6,21
31172,-0.00015,-0.0003,-0.00019,-0.00012,-7e-05,0.00025,0.00054,0.00033,6,21
31173,-0.00015,-0.0003,-0.00019,-0.00012,-7e-05,0.00025,0.00054,0.00033,6,21
31174,-0.00015,-0.0003,-0.00019,-0.00012,-7e-05,0.00025,0.00054,0.00033,6,21
31175,-0.00015,-0.0003,-0.00019,-0.00012,-7e-05,0.00025,0.00054,0.00033,6,21
31176,-0.00015,-0.0003,-0.00019,-0.00012,-7e-05,0.00025,0.00054,0.00033,6,21
31177,-0.00015,-0.0003,-0.00019,-0.00012,-7e-05,0.00025,0.00054,0.00033,6,21
31178,-0.00034,0,-6e-05,0.00031,0.00014,0.0002,-0.00011,-8e-05,6,21
31179,0.00016,-0.00016,0.00019,-2e-05,7e-05,-0.0005,2e-05,9e-05,6,21
31180,0.00016,-0.00016,0.00019,-2e-05,7e-05,-0.0005,2e-05,9e-05,6,21
31181,0.00016,-0.00016,0.00019,-2e-05,7e-05,-0.0005,2e-05,9e-05,6,21
31182,0.00016,-0.00016,0.00019,-2e-05,7e-05,-0.0005,2e-05,9e-05,6,21
31183,0.00016,-0.00016,0.00019,-2e-05,7e-05,-0.0005,2e-05,9e-05,6,21
31184,0.00016,-0.00016,0.00019,-2e-05,7e-05,-0.0005,2e-05,9e-05,6,21
31185,0.00016,-0.00016,0.00019,-2e-05,7e-05,-0.0005,2e-05,9e-05,6,21
31187,0.00016,-0.00016,0.00019,-2e-05,7e-05,-0.0005,2e-05,9e-05,6,21
31189,0.00016,-0.00016,0.00019,-2e-05,7e-05,-0.0005,2e-05,9e-05,6,21
31190,0.00016,-0.00016,0.00019,-2e-05,7e-05,-0.0005,2e-05,9e-05,6,21
31191,0.00016,-0.00016,0.00019,-2e-05,7e-05,-0.0005,2e-05,9e-05,6,21
31192,0.00016,-0.00016,0.00019,-2e-05,7e-05,-0.0005,2e-05,9e-05,6,21
31193,0.00016,-0.00016,0.00019,-2e-05,7e-05,-0.0005,2e-05,9e-05,6,21
31194,0.00016,-0.00016,0.00019,-2e-05,7e-05,-0.0005,2e-05,9e-05,6,21
31195,0.00016,-0.00016,0.00019,-2e-05,7e-05,-0.0005,2e-05,9e-05,6,21
31196,0.00016,-0.00016,0.00019,-2e-05,7e-05,-0.0005,2e-05,9e-05,6,21
31197,0.00016,-0.00016,0.00019,-2e-05,7e-05,-0.0005,2e-05,9e-05,6,21
31198,0.00016,-0.00016,0.00019,-2e-05,7e-05,-0.0005,2e-05,9e-05,6,21
31199,0.00016,-0.00016,0.00019,-2e-05,7e-05,-0.0005,2e-05,9e-05,6,21
31200,0.00016,-0.00016,0.00019,-2e-05,7e-05,-0.0005,2e-05,9e-05,6,21
31201,-0.0002,7e-05,-0.0001,-0.00016,-0.0005,6e-05,0.00021,0.00012,6,21
31202,-0.0002,7e-05,-0.0001,-0.00016,-0.0005,6e-05,0.00021,0.00012,6,21
31203,-0.0002,7e-05,-0.0001,-0.00016,-0.0005,6e-05,0.00021,0.00012,6,21
31204,-0.0002,7e-05,-0.0001,-0.00016,-0.0005,6e-05,0.00021,0.00012,6,21
31205,-0.0002,7e-05,-0.0001,-0.00016,-0.0005,6e-05,0.00021,0.00012,6,21
31206,-0.0002,7e-05,-0.0001,-0.00016,-0.0005,6e-05,0.00021,0.00012,6,21
31207,-0.0002,7e-05,-0.0001,-0.00016,-0.0005,6e-05,0.00021,0.00012,6,21
31208,-0.0002,7e-05,-0.0001,-0.00016,-0.0005,6e-05,0.00021,0.00012,6,21
31209,-0.0002,7e-05,-0.0001,-0.00016,-0.0005,6e-05,0.00021,0.00012,6,21
31210,-0.0002,7e-05,-0.0001,-0.00016,-0.0005,6e-05,0.00021,0.00012,6,21
31211,-0.0002,7e-05,-0.0001,-0.00016,-0.0005,6e-05,0.00021,0.00012,6,21
31212,-0.0002,7e-05,-0.0001,-0.00016,-0.0005,6e-05,0.00021,0.00012,6,21
31213,-0.0002,7e-05,-0.0001,-0.00016,-0.0005,6e-05,0.00021,0.00012,6,21
31214,-0.0002,7e-05,-0.0001,-0.00016,-0.0005,6e-05,0.00021,0.00012,6,21
31215,-0.00037,-3e-05,-5e-05,-0.00019,-0.0012,-0.00056,-0.00071,-0.00029,6,21
31216,0.0001,5e-05,1e-05,1e-05,0.00059,0.00026,-1e-05,0.0001,6,21
31217,0.0001,5e-05,1e-05,1e-05,0.00059,0.00026,-1e-05,0.0001,6,21
31218,0.0001,5e-05,1e-05,1e-05,0.00059,0.00026,-1e-05,0.0001,6,21
31219,0.0001,5e-05,1e-05,1e-05,0.00059,0.00026,-1e-05,0.0001,6,21
31220,0.0001,5e-05,1e-05,1e-05,0.00059,0.00026,-1e-05,0.0001,6,21
31221,0.0001,5e-05,1e-05,1e-05,0.00059,0.00026,-1e-05,0.0001,6,21
31222,0.0001,5e-05,1e-05,1e-05,0.00059,0.00026,-1e-05,0.0001,6,21
31223,0.0001,5e-05,1e-05,1e-05,0.00059,0.00026,-1e-05,0.0001,6,21
31224,0.0001,5e-05,1e-05,1e-05,0.00059,0.00026,-1e-05,0.0001,6,21
31225,0.0001,5e-05,1e-05,1e-05,0.00059,0.00026,-1e-05,0.0001,6,21
31226,0.0001,5e-05,1e-05,1e-05,0.00059,0.00026,-1e-05,0.0001,6,21
31227,0.0001,5e-05,1e-05,1e-05,0.00059,0.00026,-1e-05,0.0001,6,21
31228,0.0001,5e-05,1e-05,1e-05,0.00059,0.00026,-1e-05,0.0001,6,21
31229,0.0001,5e-05,1e-05,1e-05,0.00059,0.00026,-1e-05,0.0001,6,21
31230,0.0001,5e-05,1e-05,1e-05,0.00059,0.00026,-1e-05,0.0001,6,21
31231,0.0001,5e-05,1e-05,1e-05,0.00059,0.00026,-1e-05,0.0001,6,21
31232,0.0001,5e-05,1e-05,1e-05,0.00059,0.00026,-1e-05,0.0001,6,21
31233,0.0001,5e-05,1e-05,1e-05,0.00059,0.00026,-1e-05,0.0001,6,21
31234,0.0001,5e-05,1e-05,1e-05,0.00059,0.00026,-1e-05,0.0001,6,21
31235,0.0001,5e-05,1e-05,1e-05,0.00059,0.00026,-1e-05,0.0001,6,21
31237,0.0001,5e-05,1e-05,1e-05,0.00059,0.00026,-1e-05,0.0001,6,21
31239,6e-05,6e-05,-0.00014,-0.00012,-0.00054,0.00023,-0.00025,8e-05,6,21
31240,6e-05,6e-05,-0.00014,-0.00012,-0.00054,0.00023,-0.00025,8e-05,6,21
31241,6e-05,6e-05,-0.00014,-0.00012,-0.00054,0.00023,-0.00025,8e-05,6,21
31242,6e-05,6e-05,-0.00014,-0.00012,-0.00054,0.00023,-0.00025,8e-05,6,21
31243,6e-05,6e-05,-0.00014,-0.00012,-0.00054,0.00023,-0.00025,8e-05,6,21
31244,6e-05,6e-05,-0.00014,-0.00012,-0.00054,0.00023,-0.00025,8e-05,6,21
31245,6e-05,6e-05,-0.00014,-0.00012,-0.00054,0.00023,-0.00025,8e-05,6,21
31246,6e-05,6e-05,-0.00014,-0.00012,-0.00054,0.00023,-0.00025,8e-05,6,21
31247,6e-05,6e-05,-0.00014,-0.00012,-0.00054,0.00023,-0.00025,8e-05,6,21
31248,6e-05,6e-05,-0.00014,-0.00012,-0.00054,0.00023,-0.00025,8e-05,6,21
31249,6e-05,6e-05,-0.00014,-0.00012,-0.00054,0.00023,-0.00025,8e-05,6,21
31250,6e-05,6e-05,-0.00014,-0.00012,-0.00054,0.00023,-0.00025,8e-05,6,21
31251,6e-05,6e-05,-0.00014,-0.00012,-0.00054,0.00023,-0.00025,8e-05,6,21
31252,6e-05,6e-05,-0.00014,-0.00012,-0.00054,0.00023,-0.00025,8e-05,6,21
31253,6e-05,6e-05,-0.00014,-0.00012,-0.00054,0.00023,-0.00025,8e-05,6,21
31254,6e-05,6e-05,-0.00014,-0.00012,-0.00054,0.00023,-0.00025,8e-05,6,21
31255,6e-05,6e-05,-0.00014,-0.00012,-0.00054,0.00023,-0.00025,8e-05,6,21
31256,6e-05,6e-05,-0.00014,-0.00012,-0.00054,0.00023,-0.00025,8e-05,6,21
31257,6e-05,6e-05,-0.00014,-0.00012,-0.00054,0.00023,-0.00025,8e-05,6,21
31258,6e-05,6e-05,-0.00014,-0.00012,-0.00054,0.00023,-0.00025,8e-05,6,21
31259,6e-05,6e-05,-0.00014,-0.00012,-0.00054,0.00023,-0.00025,8e-05,6,21
31260,-6e-05,6e-05,3e-05,-5e-05,-0.00028,0.0001,0.00036,3e-05,6,21
31261,0.00063,0.00016,0.00012,0.00023,-0.00055,0.00033,3e-05,6e-05,6,21
31262,0.00063,0.00016,0.00012,0.00023,-0.00055,0.00033,3e-05,6e-05,6,21
31263,0.00063,0.00016,0.00012,0.00023,-0.00055,0.00033,3e-05,6e-05,6,21
31264,0.00063,0.00016,0.00012,0.00023,-0.00055,0.00033,3e-05,6e-05,6,21
31265,0.00063,0.00016,0.00012,0.00023,-0.00055,0.00033,3e-05,6e-05,6,21
31266,0.00063,0.00016,0.00012,0.00023,-0.00055,0.00033,3e-05,6e-05,6,21
31267,0.00063,0.00016,0.00012,0.00023,-0.00055,0.00033,3e-05,6e-05,6,21
31268,0.00063,0.00016,0.00012,0.00023,-0.00055,0.00033,3e-05,6e-05,6,21
31269,0.00063,0.00016,0.00012,0.00023,-0.00055,0.00033,3e-05,6e-05,6,21
31270,0.00063,0.00016,0.00012,0.00023,-0.00055,0.00033,3e-05,6e-05,6,21
31271,0.00063,0.00016,0.00012,0.00023,-0.00055,0.00033,3e-05,6e-05,6,21
31272,0.00063,0.00016,0.00012,0.00023,-0.00055,0.00033,3e-05,6e-05,6,21
31273,0.00063,0.00016,0.00012,0.00023,-0.00055,0.00033,3e-05,6e-05,6,21
31274,0.00063,0.00016,0.00012,0.00023,-0.00055,0.00033,3e-05,6e-05,6,21
31275,-0.0004,-5e-05,-4e-05,2e-05,-0.00031,-0.00031,0.00023,-0.00014,6,21
31276,0.00036,8e-05,-4e-05,0.00015,0.00044,0.0002,-7e-05,0.00029,6,21
31277,0.00036,8e-05,-4e-05,0.00015,0.00044,0.0002,-7e-05,0.00029,6,21
31278,0.00036,8e-05,-4e-05,0.00015,0.00044,0.0002,-7e-05,0.00029,6,21
31279,0.00036,8e-05,-4e-05,0.00015,0.00044,0.0002,-7e-05,0.00029,6,21
31280,0.00036,8e-05,-4e-05,0.00015,0.00044,0.0002,-7e-05,0.00029,6,21
31281,0.00036,8e-05,-4e-05,0.00015,0.00044,0.0002,-7e-05,0.00029,6,21
31282,0.00036,8e-05,-4e-05,0.00015,0.00044,0.0002,-7e-05,0.00029,6,21
31283,0.00036,8e-05,-4e-05,0.00015,0.00044,0.0002,-7e-05,0.00029,6,21
31284,0.00036,8e-05,-4e-05,0.00015,0.00044,0.0002,-7e-05,0.00029,6,21
31285,0.00036,8e-05,-4e-05,0.00015,0.00044,0.0002,-7e-05,0.00029,6,21
31287,0.00036,8e-05,-4e-05,0.00015,0.00044,0.0002,-7e-05,0.00029,6,21
31289,0.00036,8e-05,-4e-05,0.00015,0.00044,0.0002,-7e-05,0.00029,6,21
31290,0.00036,8e-05,-4e-05,0.00015,0.00044,0.0002,-7e-05,0.00029,6,21
31291,0.00036,8e-05,-4e-05,0.00015,0.00044,0.0002,-7e-05,0.00029,6,21
31292,0.00036,8e-05,-4e-05,0.00015,0.00044,0.0002,-7e-05,0.00029,6,21
31293,0.00036,8e-05,-4e-05,0.00015,0.00044,0.0002,-7e-05,0.00029,6,21
31294,0.00036,8e-05,-4e-05,0.00015,0.00044,0.0002,-7e-05,0.00029,6,21
31295,0.00036,8e-05,-4e-05,0.00015,0.00044,0.0002,-7e-05,0.00029,6,21
31296,0.00036,8e-05,-4e-05,0.00015,0.00044,0.0002,-7e-05,0.00029,6,21
31297,0.00036,8e-05,-4e-05,0.00015,0.00044,0.0002,-7e-05,0.00029,6,21
31298,-2e-05,-0.00012,-0.00013,-0.00017,-0.00115,-0.00013,-0.0001,-3e-05,6,21
31299,0,7e-05,-2e-05,-9e-05,-0.00021,-0.00021,0.00016,-0.00028,6,21
31300,0,7e-05,-2e-05,-9e-05,-0.00021,-0.00021,0.00016,-0.00028,6,21
31301,0,7e-05,-2e-05,-9e-05,-0.00021,-0.00021,0.00016,-0.00028,6,21
31302,0,7e-05,-2e-05,-9e-05,-0.00021,-0.00021,0.00016,-0.00028,6,21
31303,0,7e-05,-2e-05,-9e-05,-0.00021,-0.00021,0.00016,-0.00028,6,21
31304,0,7e-05,-2e-05,-9e-05,-0.00021,-0.00021,0.00016,-0.00028,6,21
31305,0,7e-05,-2e-05,-9e-05,-0.00021,-0.00021,0.00016,-0.00028,6,21
31306,0,7e-05,-2e-05,-9e-05,-0.00021,-0.00021,0.00016,-0.00028,6,21
31307,0,7e-05,-2e-05,-9e-05,-0.00021,-0.00021,0.00016,-0.00028,6,21
31308,0,7e-05,-2e-05,-9e-05,-0.00021,-0.00021,0.00016,-0.00028,6,21
31309,0,7e-05,-2e-05,-9e-05,-0.00021,-0.00021,0.00016,-0.00028,6,21
31310,0,7e-05,-2e-05,-9e-05,-0.00021,-0.00021,0.00016,-0.00028,6,21
31311,0,7e-05,-2e-05,-9e-05,-0.00021,-0.00021,0.00016,-0.00028,6,21
31312,0,7e-05,-2e-05,-9e-05,-0.00021,-0.00021,0.00016,-0.00028,6,21
31313,0,7e-05,-2e-05,-9e-05,-0.00021,-0.00021,0.00016,-0.00028,6,21
31314,0,7e-05,-2e-05,-9e-05,-0.00021,-0.00021,0.00016,-0.00028,6,21
31315,0,7e-05,-2e-05,-9e-05,-0.00021,-0.00021,0.00016,-0.00028,6,21
31316,0,7e-05,-2e-05,-9e-05,-0.00021,-0.00021,0.00016,-0.00028,6,21
31317,0,7e-05,-2e-05,-9e-05,-0.00021,-0.00021,0.00016,-0.00028,6,21
31318,0,7e-05,-2e-05,-9e-05,-0.00021,-0.00021,0.00016,-0.00028,6,21
31319,0,7e-05,-2e-05,-9e-05,-0.00021,-0.00021,0.00016,-0.00028,6,21
31320,0.0003,-3e-05,7e-05,0.00019,0.00047,-0.0004,4e-05,-0.00029,6,21
31321,-0.00038,0,6e-05,0.00019,0.00066,-0.00013,-8e-05,-0.0002,6,21
31322,-0.00038,0,6e-05,0.00019,0.00066,-0.00013,-8e-05,-0.0002,6,21
31323,-0.00038,0,6e-05,0.00019,0.00066,-0.00013,-8e-05,-0.0002,6,21
31324,-0.00038,0,6e-05,0.00019,0.00066,-0.00013,-8e-05,-0.0002,6,21
31325,-0.00038,0,6e-05,0.00019,0.00066,-0.00013,-8e-05,-0.0002,6,21
31326,-0.00038,0,6e-05,0.00019,0.00066,-0.00013,-8e-05,-0.0002,6,21
31327,-0.00038,0,6e-05,0.00019,0.00066,-0.00013,-8e-05,-0.0002,6,21
31328,-0.00038,0,6e-05,0.00019,0.00066,-0.00013,-8e-05,-0.0002,6,21
31329,-0.00038,0,6e-05,0.00019,0.00066,-0.00013,-8e-05,-0.0002,6,21
31330,-0.00038,0,6e-05,0.00019,0.00066,-0.00013,-8e-05,-0.0002,6,21
31331,-0.00038,0,6e-05,0.00019,0.00066,-0.00013,-8e-05,-0.0002,6,21
31332,-0.00038,0,6e-05,0.00019,0.00066,-0.00013,-8e-05,-0.0002,6,21
31333,-0.00038,0,6e-05,0.00019,0.00066,-0.00013,-8e-05,-0.0002,6,21
31334,-0.00038,0,6e-05,0.00019,0.00066,-0.00013,-8e-05,-0.0002,6,21
31335,0.00023,-1e-05,-9e-05,-5e-05,-0.00046,0.0003,-0.00011,-2e-05,6,21
31337,-0.00021,8e-05,2e-05,-6e-05,-0.00036,0.00098,-0.00029,-0.00011,6,21
31339,-0.00021,8e-05,2e-05,-6e-05,-0.00036,0.00098,-0.00029,-0.00011,6,21
31340,-0.00021,8e-05,2e-05,-6e-05,-0.00036,0.00098,-0.00029,-0.00011,6,21
31341,-0.00021,8e-05,2e-05,-6e-05,-0.00036,0.00098,-0.00029,-0.00011,6,21
31342,-0.00021,8e-05,2e-05,-6e-05,-0.00036,0.00098,-0.00029,-0.00011,6,21
31343,-0.00021,8e-05,2e-05,-6e-05,-0.00036,0.00098,-0.00029,-0.00011,6,21
31344,-0.00021,8e-05,2e-05,-6e-05,-0.00036,0.00098,-0.00029,-0.00011,6,21
31345,-0.00021,8e-05,2e-05,-6e-05,-0.00036,0.00098,-0.00029,-0.00011,6,21
31346,-0.00021,8e-05,2e-05,-6e-05,-0.00036,0.00098,-0.00029,-0.00011,6,21
31347,-0.00021,8e-05,2e-05,-6e-05,-0.00036,0.00098,-0.00029,-0.00011,6,21
31348,-0.00021,8e-05,2e-05,-6e-05,-0.00036,0.00098,-0.00029,-0.00011,6,21
31349,-0.00021,8e-05,2e-05,-6e-05,-0.00036,0.00098,-0.00029,-0.00011,6,21
31350,-0.00021,8e-05,2e-05,-6e-05,-0.00036,0.00098,-0.00029,-0.00011,6,21
31351,-0.00021,8e-05,2e-05,-6e-05,-0.00036,0.00098,-0.00029,-0.00011,6,21
31352,-0.00021,8e-05,2e-05,-6e-05,-0.00036,0.00098,-0.00029,-0.00011,6,21
31353,-0.00021,8e-05,2e-05,-6e-05,-0.00036,0.00098,-0.00029,-0.00011,6,21
31354,-0.00021,8e-05,2e-05,-6e-05,-0.00036,0.00098,-0.00029,-0.00011,6,21
31355,-0.00021,8e-05,2e-05,-6e-05,-0.00036,0.00098,-0.00029,-0.00011,6,21
31356,-0.00021,8e-05,2e-05,-6e-05,-0.00036,0.00098,-0.00029,-0.00011,6,21
31357,-0.00021,8e-05,2e-05,-6e-05,-0.00036,0.00098,-0.00029,-0.00011,6,21
31358,-0.00029,9e-05,5e-05,0.00017,-0.00018,-0.00065,-0.0003,-0.00012,6,21
31359,-8e-05,2e-05,-4e-05,-3e-05,-0.00022,0.00019,6e-05,0.00016,6,21
31360,-8e-05,2e-05,-4e-05,-3e-05,-0.00022,0.00019,6e-05,0.00016,6,21
31361,-8e-05,2e-05,-4e-05,-3e-05,-0.00022,0.00019,6e-05,0.00016,6,21
31362,-8e-05,2e-05,-4e-05,-3e-05,-0.00022,0.00019,6e-05,0.00016,6,21
31363,-8e-05,2e-05,-4e-05,-3e-05,-0.00022,0.00019,6e-05,0.00016,6,21
31364,-8e-05,2e-05,-4e-05,-3e-05,-0.00022,0.00019,6e-05,0.00016,6,21
31365,-8e-05,2e-05,-4e-05,-3e-05,-0.00022,0.00019,6e-05,0.00016,6,21
31366,-8e-05,2e-05,-4e-05,-3e-05,-0.00022,0.00019,6e-05,0.00016,6,21
31367,-8e-05,2e-05,-4e-05,-3e-05,-0.00022,0.00019,6e-05,0.00016,6,21
31368,-8e-05,2e-05,-4e-05,-3e-05,-0.00022,0.00019,6e-05,0.00016,6,21
31369,-8e-05,2e-05,-4e-05,-3e-05,-0.00022,0.00019,6e-05,0.00016,6,21
31370,-8e-05,2e-05,-4e-05,-3e-05,-0.00022,0.00019,6e-05,0.00016,6,21
31371,-8e-05,2e-05,-4e-05,-3e-05,-0.00022,0.00019,6e-05,0.00016,6,21
31372,-8e-05,2e-05,-4e-05,-3e-05,-0.00022,0.00019,6e-05,0.00016,6,21
31373,-8e-05,2e-05,-4e-05,-3e-05,-0.00022,0.00019,6e-05,0.00016,6,21
31374,-8e-05,2e-05,-4e-05,-3e-05,-0.00022,0.00019,6e-05,0.00016,6,21
31375,-8e-05,2e-05,-4e-05,-3e-05,-0.00022,0.00019,6e-05,0.00016,6,21
31376,-8e-05,2e-05,-4e-05,-3e-05,-0.00022,0.00019,6e-05,0.00016,6,21
31377,-8e-05,2e-05,-4e-05,-3e-05,-0.00022,0.00019,6e-05,0.00016,6,21
31378,-8e-05,2e-05,-4e-05,-3e-05,-0.00022,0.00019,6e-05,0.00016,6,21
31379,-8e-05,2e-05,-4e-05,-3e-05,-0.00022,0.00019,6e-05,0.00016,6,21
31380,-1e-05,-1e-05,-3e-05,-6e-05,0.00056,-0.00023,4e-05,-7e-05,6,21
31381,0.00041,-0.00011,-7e-05,4e-05,0.00077,-0.00024,0.00028,1e-05,6,21
31382,0.00041,-0.00011,-7e-05,4e-05,0.00077,-0.00024,0.00028,1e-05,6,21
31383,0.00041,-0.00011,-7e-05,4e-05,0.00077,-0.00024,0.00028,1e-05,6,21
31384,0.00041,-0.00011,-7e-05,4e-05,0.00077,-0.00024,0.00028,1e-05,6,21
31385,0.00041,-0.00011,-7e-05,4e-05,0.00077,-0.00024,0.00028,1e-05,6,21
31387,0.00041,-0.00011,-7e-05,4e-05,0.00077,-0.00024,0.00028,1e-05,6,21
31389,0.00041,-0.00011,-7e-05,4e-05,0.00077,-0.00024,0.00028,1e-05,6,21
31390,0.00041,-0.00011,-7e-05,4e-05,0.00077,-0.00024,0.00028,1e-05,6,21
31391,0.00041,-0.00011,-7e-05,4e-05,0.00077,-0.00024,0.00028,1e-05,6,21
31392,0.00041,-0.00011,-7e-05,4e-05,0.00077,-0.00024,0.00028,1e-05,6,21
31393,0.00041,-0.00011,-7e-05,4e-05,0.00077,-0.00024,0.00028,1e-05,6,21
31394,0.00041,-0.00011,-7e-05,4e-05,0.00077,-0.00024,0.00028,1e-05,6,21
31395,-0.00084,-4e-05,-1e-05,-8e-05,7e-05,0.00039,3e-05,-0.00025,6,21
31396,-0.00031,-5e-05,-2e-05,-0.00021,-0.00056,-0.0002,1e-05,0.00019,6,21
31397,-0.00031,-5e-05,-2e-05,-0.00021,-0.00056,-0.0002,1e-05,0.00019,6,21
31398,-0.00031,-5e-05,-2e-05,-0.00021,-0.00056,-0.0002,1e-05,0.00019,6,21
31399,-0.00031,-5e-05,-2e-05,-0.00021,-0.00056,-0.0002,1e-05,0.00019,6,21
31400,-0.00031,-5e-05,-2e-05,-0.00021,-0.00056,-0.0002,1e-05,0.00019,6,21
31401,-0.00031,-5e-05,-2e-05,-0.00021,-0.00056,-0.0002,1e-05,0.00019,6,21
31402,-0.00031,-5e-05,-2e-05,-0.00021,-0.00056,-0.0002,1e-05,0.00019,6,21
31403,-0.00031,-5e-05,-2e-05,-0.00021,-0.00056,-0.0002,1e-05,0.00019,6,21
31404,-0.00031,-5e-05,-2e-05,-0.00021,-0.00056,-0.0002,1e-05,0.00019,6,21
31405,-0.00031,-5e-05,-2e-05,-0.00021,-0.00056,-0.0002,1e-05,0.00019,6,21
31406,-0.00031,-5e-05,-2e-05,-0.00021,-0.00056,-0.0002,1e-05,0.00019,6,21
31407,-0.00031,-5e-05,-2e-05,-0.00021,-0.00056,-0.0002,1e-05,0.00019,6,21
31408,-0.00031,-5e-05,-2e-05,-0.00021,-0.00056,-0.0002,1e-05,0.00019,6,21
31409,-0.00031,-5e-05,-2e-05,-0.00021,-0.00056,-0.0002,1e-05,0.00019,6,21
31410,-0.00031,-5e-05,-2e-05,-0.00021,-0.00056,-0.0002,1e-05,0.00019,6,21
31411,-0.00031,-5e-05,-2e-05,-0.00021,-0.00056,-0.0002,1e-05,0.00019,6,21
31412,-0.00031,-5e-05,-2e-05,-0.00021,-0.00056,-0.0002,1e-05,0.00019,6,21
31413,-0.00031,-5e-05,-2e-05,-0.00021,-0.00056,-0.0002,1e-05,0.00019,6,21
31414,-0.00031,-5e-05,-2e-05,-0.00021,-0.00056,-0.0002,1e-05,0.00019,6,21
31415,-0.00031,-5e-05,-2e-05,-0.00021,-0.00056,-0.0002,1e-05,0.00019,6,21
31416,-0.00031,-5e-05,-2e-05,-0.00021,-0.00056,-0.0002,1e-05,0.00019,6,21
31417,-0.00031,-5e-05,-2e-05,-0.00021,-0.00056,-0.0002,1e-05,0.00019,6,21
31418,0.0006,2e-05,2e-05,-5e-05,1e-05,0.00015,0.00037,-1e-05,6,21
31419,-0.00023,-5e-05,-1e-05,8e-05,0.00045,0.00089,-0.00013,-4e-05,6,21
31420,-0.00023,-5e-05,-1e-05,8e-05,0.00045,0.00089,-0.00013,-4e-05,6,21
31421,-0.00023,-5e-05,-1e-05,8e-05,0.00045,0.00089,-0.00013,-4e-05,6,21
31422,-0.00023,-5e-05,-1e-05,8e-05,0.00045,0.00089,-0.00013,-4e-05,6,21
31423,-0.00023,-5e-05,-1e-05,8e-05,0.00045,0.00089,-0.00013,-4e-05,6,21
31424,-0.00023,-5e-05,-1e-05,8e-05,0.00045,0.00089,-0.00013,-4e-05,6,21
31425,-0.00023,-5e-05,-1e-05,8e-05,0.00045,0.00089,-0.00013,-4e-05,6,21
31426,-0.00023,-5e-05,-1e-05,8e-05,0.00045,0.00089,-0.00013,-4e-05,6,21
31427,-0.00023,-5e-05,-1e-05,8e-05,0.00045,0.00089,-0.00013,-4e-05,6,21
31428,-0.00023,-5e-05,-1e-05,8e-05,0.00045,0.00089,-0.00013,-4e-05,6,21
31429,-0.00023,-5e-05,-1e-05,8e-05,0.00045,0.00089,-0.00013,-4e-05,6,21
31430,-0.00023,-5e-05,-1e-05,8e-05,0.00045,0.00089,-0.00013,-4e-05,6,21
31431,-0.00023,-5e-05,-1e-05,8e-05,0.00045,0.00089,-0.00013,-4e-05,6,21
31432,-0.00023,-5e-05,-1e-05,8e-05,0.00045,0.00089,-0.00013,-4e-05,6,21
31433,-0.00023,-5e-05,-1e-05,8e-05,0.00045,0.00089,-0.00013,-4e-05,6,21
31434,-0.00023,-5e-05,-1e-05,8e-05,0.00045,0.00089,-0.00013,-4e-05,6,21
31435,-0.00023,-5e-05,-1e-05,8e-05,0.00045,0.00089,-0.00013,-4e-05,6,21
31437,-0.00023,-5e-05,-1e-05,8e-05,0.00045,0.00089,-0.00013,-4e-05,6,21
31439,-0.00023,-5e-05,-1e-05,8e-05,0.00045,0.00089,-0.00013,-4e-05,6,21
31441,-0.00023,-5e-05,-1e-05,8e-05,0.00045,0.00089,-0.00013,-4e-05,6,21
31442,-0.00082,-0.00012,-9e-05,-0.00014,-0.0002,-0.00121,3e-05,-0.00019,6,21
31443,-0.00082,-0.00012,-9e-05,-0.00014,-0.0002,-0.00121,3e-05,-0.00019,6,21
31444,-0.00082,-0.00012,-9e-05,-0.00014,-0.0002,-0.00121,3e-05,-0.00019,6,21
31445,-0.00082,-0.00012,-9e-05,-0.00014,-0.0002,-0.00121,3e-05,-0.00019,6,21
31446,-0.00082,-0.00012,-9e-05,-0.00014,-0.0002,-0.00121,3e-05,-0.00019,6,21
31447,-0.00082,-0.00012,-9e-05,-0.00014,-0.0002,-0.00121,3e-05,-0.00019,6,21
31448,-0.00082,-0.00012,-9e-05,-0.00014,-0.0002,-0.00121,3e-05,-0.00019,6,21
31449,-0.00082,-0.00012,-9e-05,-0.00014,-0.0002,-0.00121,3e-05,-0.00019,6,21
31450,-0.00082,-0.00012,-9e-05,-0.00014,-0.0002,-0.00121,3e-05,-0.00019,6,21
31451,-0.00082,-0.00012,-9e-05,-0.00014,-0.0002,-0.00121,3e-05,-0.00019,6,21
31452,-0.00082,-0.00012,-9e-05,-0.00014,-0.0002,-0.00121,3e-05,-0.00019,6,21
31453,-0.00082,-0.00012,-9e-05,-0.00014,-0.0002,-0.00121,3e-05,-0.00019,6,21
31454,-0.00082,-0.00012,-9e-05,-0.00014,-0.0002,-0.00121,3e-05,-0.00019,6,21
31455,-0.00033,-5e-05,-0.00011,-0.00016,-0.00092,0.00048,-0.00023,-2e-05,6,21
31456,-0.00031,-4e-05,0,3e-05,-0.0001,0.00019,-0.00038,-5e-05,6,21
31457,-0.00031,-4e-05,0,3e-05,-0.0001,0.00019,-0.00038,-5e-05,6,21
31458,-0.00031,-4e-05,0,3e-05,-0.0001,0.00019,-0.00038,-5e-05,6,21
31459,-0.00031,-4e-05,0,3e-05,-0.0001,0.00019,-0.00038,-5e-05,6,21
31460,-0.00031,-4e-05,0,3e-05,-0.0001,0.00019,-0.00038,-5e-05,6,21
31461,-0.00031,-4e-05,0,3e-05,-0.0001,0.00019,-0.00038,-5e-05,6,21
31462,-0.00031,-4e-05,0,3e-05,-0.0001,0.00019,-0.00038,-5e-05,6,21
31463,-0.00031,-4e-05,0,3e-05,-0.0001,0.00019,-0.00038,-5e-05,6,21
31464,-0.00031,-4e-05,0,3e-05,-0.0001,0.00019,-0.00038,-5e-05,6,21
31465,-0.00031,-4e-05,0,3e-05,-0.0001,0.00019,-0.00038,-5e-05,6,21
31466,-0.00031,-4e-05,0,3e-05,-0.0001,0.00019,-0.00038,-5e-05,6,21
31467,-0.00031,-4e-05,0,3e-05,-0.0001,0.00019,-0.00038,-5e-05,6,21
31468,-0.00031,-4e-05,0,3e-05,-0.0001,0.00019,-0.00038,-5e-05,6,21
31469,-0.00031,-4e-05,0,3e-05,-0.0001,0.00019,-0.00038,-5e-05,6,21
31470,-0.00031,-4e-05,0,3e-05,-0.0001,0.00019,-0.00038,-5e-05,6,21
31471,-0.00031,-4e-05,0,3e-05,-0.0001,0.00019,-0.00038,-5e-05,6,21
31472,-0.00031,-4e-05,0,3e-05,-0.0001,0.00019,-0.00038,-5e-05,6,21
31473,-0.00031,-4e-05,0,3e-05,-0.0001,0.00019,-0.00038,-5e-05,6,21
31474,-0.00031,-4e-05,0,3e-05,-0.0001,0.00019,-0.00038,-5e-05,6,21
31475,-0.00031,-4e-05,0,3e-05,-0.0001,0.00019,-0.00038,-5e-05,6,21
31476,-0.00031,-4e-05,0,3e-05,-0.0001,0.00019,-0.00038,-5e-05,6,21
31477,-0.00031,-4e-05,0,3e-05,-0.0001,0.00019,-0.00038,-5e-05,6,21
31478,0.00056,0,6e-05,-0.00012,0.00015,-0.0011,-3e-05,-7e-05,6,21
31479,0.00062,3e-05,1e-05,-0.00012,4e-05,0.00041,-0.00068,-5e-05,6,21
31480,0.00062,3e-05,1e-05,-0.00012,4e-05,0.00041,-0.00068,-5e-05,6,21
31481,0.00062,3e-05,1e-05,-0.00012,4e-05,0.00041,-0.00068,-5e-05,6,21
31482,0.00062,3e-05,1e-05,-0.00012,4e-05,0.00041,-0.00068,-5e-05,6,21
31483,0.00062,3e-05,1e-05,-0.00012,4e-05,0.00041,-0.00068,-5e-05,6,21
31484,0.00062,3e-05,1e-05,-0.00012,4e-05,0.00041,-0.00068,-5e-05,6,21
31485,0.00062,3e-05,1e-05,-0.00012,4e-05,0.00041,-0.00068,-5e-05,6,21
31487,0.00062,3e-05,1e-05,-0.00012,4e-05,0.00041,-0.00068,-5e-05,6,21
31489,0.00062,3e-05,1e-05,-0.00012,4e-05,0.00041,-0.00068,-5e-05,6,21
31490,0.00062,3e-05,1e-05,-0.00012,4e-05,0.00041,-0.00068,-5e-05,6,21
31491,0.00062,3e-05,1e-05,-0.00012,4e-05,0.00041,-0.00068,-5e-05,6,21
31492,0.00062,3e-05,1e-05,-0.00012,4e-05,0.00041,-0.00068,-5e-05,6,21
31493,0.00062,3e-05,1e-05,-0.00012,4e-05,0.00041,-0.00068,-5e-05,6,21
31494,0.00062,3e-05,1e-05,-0.00012,4e-05,0.00041,-0.00068,-5e-05,6,21
31495,0.00062,3e-05,1e-05,-0.00012,4e-05,0.00041,-0.00068,-5e-05,6,21
31496,0.00062,3e-05,1e-05,-0.00012,4e-05,0.00041,-0.00068,-5e-05,6,21
31497,0.00062,3e-05,1e-05,-0.00012,4e-05,0.00041,-0.00068,-5e-05,6,21
31498,0.00062,3e-05,1e-05,-0.00012,4e-05,0.00041,-0.00068,-5e-05,6,21
31499,0.00062,3e-05,1e-05,-0.00012,4e-05,0.00041,-0.00068,-5e-05,6,21
31500,0.00062,3e-05,1e-05,-0.00012,4e-05,0.00041,-0.00068,-5e-05,6,21
31501,0,-1e-05,-2e-05,0.00012,-0.00075,0.00028,0,-7e-05,6,21
31502,0.0011,-5e-05,0.00015,0.00027,-0.0001,0.00038,0.00035,0.00042,6,21
31503,0.0011,-5e-05,0.00015,0.00027,-0.0001,0.00038,0.00035,0.00042,6,21
31504,0.0011,-5e-05,0.00015,0.00027,-0.0001,0.00038,0.00035,0.00042,6,21
31505,0.0011,-5e-05,0.00015,0.00027,-0.0001,0.00038,0.00035,0.00042,6,21
31506,0.0011,-5e-05,0.00015,0.00027,-0.0001,0.00038,0.00035,0.00042,6,21
31507,0.0011,-5e-05,0.00015,0.00027,-0.0001,0.00038,0.00035,0.00042,6,21
31508,0.0011,-5e-05,0.00015,0.00027,-0.0001,0.00038,0.00035,0.00042,6,21
31509,0.0011,-5e-05,0.00015,0.00027,-0.0001,0.00038,0.00035,0.00042,6,21
31510,0.0011,-5e-05,0.00015,0.00027,-0.0001,0.00038,0.00035,0.00042,6,21
31511,0.0011,-5e-05,0.00015,0.00027,-0.0001,0.00038,0.00035,0.00042,6,21
31512,0.0011,-5e-05,0.00015,0.00027,-0.0001,0.00038,0.00035,0.00042,6,21
31513,0.0011,-5e-05,0.00015,0.00027,-0.0001,0.00038,0.00035,0.00042,6,21
31514,0.0011,-5e-05,0.00015,0.00027,-0.0001,0.00038,0.00035,0.00042,6,21
31515,0.00024,-4e-05,-0.00015,-0.00033,0.00041,0.00054,0.00031,3e-05,6,21
31516,-0.00014,6e-05,0.00011,0.00042,-0.00025,-9e-05,0.0005,8e-05,6,21
31517,-0.00014,6e-05,0.00011,0.00042,-0.00025,-9e-05,0.0005,8e-05,6,21
31518,-0.00014,6e-05,0.00011,0.00042,-0.00025,-9e-05,0.0005,8e-05,6,21
31519,-0.00014,6e-05,0.00011,0.00042,-0.00025,-9e-05,0.0005,8e-05,6,21
31520,-0.00014,6e-05,0.00011,0.00042,-0.00025,-9e-05,0.0005,8e-05,6,21
31521,-0.00014,6e-05,0.00011,0.00042,-0.00025,-9e-05,0.0005,8e-05,6,21
31522,-0.00014,6e-05,0.00011,0.00042,-0.00025,-9e-05,0.0005,8e-05,6,21
31523,-0.00014,6e-05,0.00011,0.00042,-0.00025,-9e-05,0.0005,8e-05,6,21
31524,-0.00014,6e-05,0.00011,0.00042,-0.00025,-9e-05,0.0005,8e-05,6,21
31525,-0.00014,6e-05,0.00011,0.00042,-0.00025,-9e-05,0.0005,8e-05,6,21
31526,-0.00014,6e-05,0.00011,0.00042,-0.00025,-9e-05,0.0005,8e-05,6,21
31527,-0.00014,6e-05,0.00011,0.00042,-0.00025,-9e-05,0.0005,8e-05,6,21
31528,-0.00014,6e-05,0.00011,0.00042,-0.00025,-9e-05,0.0005,8e-05,6,21
31529,-0.00014,6e-05,0.00011,0.00042,-0.00025,-9e-05,0.0005,8e-05,6,21
31530,-0.00014,6e-05,0.00011,0.00042,-0.00025,-9e-05,0.0005,8e-05,6,21
31531,-0.00014,6e-05,0.00011,0.00042,-0.00025,-9e-05,0.0005,8e-05,6,21
31532,-0.00014,6e-05,0.00011,0.00042,-0.00025,-9e-05,0.0005,8e-05,6,21
31533,-0.00014,6e-05,0.00011,0.00042,-0.00025,-9e-05,0.0005,8e-05,6,21
31534,-0.00014,6e-05,0.00011,0.00042,-0.00025,-9e-05,0.0005,8e-05,6,21
31535,-0.00014,6e-05,0.00011,0.00042,-0.00025,-9e-05,0.0005,8e-05,6,21
31537,-0.00014,6e-05,0.00011,0.00042,-0.00025,-9e-05,0.0005,8e-05,6,21
31539,9e-05,-7e-05,-8e-05,-0.00027,-0.00044,-0.00067,7e-05,0.00033,6,21
31540,9e-05,-7e-05,-8e-05,-0.00027,-0.00044,-0.00067,7e-05,0.00033,6,21
31541,9e-05,-7e-05,-8e-05,-0.00027,-0.00044,-0.00067,7e-05,0.00033,6,21
31542,9e-05,-7e-05,-8e-05,-0.00027,-0.00044,-0.00067,7e-05,0.00033,6,21
31543,9e-05,-7e-05,-8e-05,-0.00027,-0.00044,-0.00067,7e-05,0.00033,6,21
31544,9e-05,-7e-05,-8e-05,-0.00027,-0.00044,-0.00067,7e-05,0.00033,6,21
31545,9e-05,-7e-05,-8e-05,-0.00027,-0.00044,-0.00067,7e-05,0.00033,6,21
31546,9e-05,-7e-05,-8e-05,-0.00027,-0.00044,-0.00067,7e-05,0.00033,6,21
31547,9e-05,-7e-05,-8e-05,-0.00027,-0.00044,-0.00067,7e-05,0.00033,6,21
31548,9e-05,-7e-05,-8e-05,-0.00027,-0.00044,-0.00067,7e-05,0.00033,6,21
31549,9e-05,-7e-05,-8e-05,-0.00027,-0.00044,-0.00067,7e-05,0.00033,6,21
31550,9e-05,-7e-05,-8e-05,-0.00027,-0.00044,-0.00067,7e-05,0.00033,6,21
31551,9e-05,-7e-05,-8e-05,-0.00027,-0.00044,-0.00067,7e-05,0.00033,6,21
31552,9e-05,-7e-05,-8e-05,-0.00027,-0.00044,-0.00067,7e-05,0.00033,6,21
31553,9e-05,-7e-05,-8e-05,-0.00027,-0.00044,-0.00067,7e-05,0.00033,6,21
31554,9e-05,-7e-05,-8e-05,-0.00027,-0.00044,-0.00067,7e-05,0.00033,6,21
31555,9e-05,-7e-05,-8e-05,-0.00027,-0.00044,-0.00067,7e-05,0.00033,6,21
31556,9e-05,-7e-05,-8e-05,-0.00027,-0.00044,-0.00067,7e-05,0.00033,6,21
31557,9e-05,-7e-05,-8e-05,-0.00027,-0.00044,-0.00067,7e-05,0.00033,6,21
31558,9e-05,-7e-05,-8e-05,-0.00027,-0.00044,-0.00067,7e-05,0.00033,6,21
31559,9e-05,-7e-05,-8e-05,-0.00027,-0.00044,-0.00067,7e-05,0.00033,6,21
31560,0.00037,-5e-05,1e-05,0.00014,0.00127,-0.00039,0.00016,0.0003,6,21
31561,0.00018,0.00012,-9e-05,-0.00021,-0.00092,-0.00012,-0.00068,0.00037,6,21
31562,0.00018,0.00012,-9e-05,-0.00021,-0.00092,-0.00012,-0.00068,0.00037,6,21
31563,0.00018,0.00012,-9e-05,-0.00021,-0.00092,-0.00012,-0.00068,0.00037,6,21
31564,0.00018,0.00012,-9e-05,-0.00021,-0.00092,-0.00012,-0.00068,0.00037,6,21
31565,0.00018,0.00012,-9e-05,-0.00021,-0.00092,-0.00012,-0.00068,0.00037,6,21
31566,0.00018,0.00012,-9e-05,-0.00021,-0.00092,-0.00012,-0.00068,0.00037,6,21
31567,0.00018,0.00012,-9e-05,-0.00021,-0.00092,-0.00012,-0.00068,0.00037,6,21
31568,0.00018,0.00012,-9e-05,-0.00021,-0.00092,-0.00012,-0.00068,0.00037,6,21
31569,0.00018,0.00012,-9e-05,-0.00021,-0.00092,-0.00012,-0.00068,0.00037,6,21
31570,0.00018,0.00012,-9e-05,-0.00021,-0.00092,-0.00012,-0.00068,0.00037,6,21
31571,0.00018,0.00012,-9e-05,-0.00021,-0.00092,-0.00012,-0.00068,0.00037,6,21
31572,0.00018,0.00012,-9e-05,-0.00021,-0.00092,-0.00012,-0.00068,0.00037,6,21
31573,0.00018,0.00012,-9e-05,-0.00021,-0.00092,-0.00012,-0.00068,0.00037,6,21
31574,0.00018,0.00012,-9e-05,-0.00021,-0.00092,-0.00012,-0.00068,0.00037,6,21
31575,0.0004,0.00018,0.00011,0.00022,-0.00037,-0.00036,0.00026,0.0003,6,21
31576,0.00014,-0.00015,-0.00022,-0.00023,0.00051,-0.0002,-2e-05,-0.0004,6,21
31577,0.00014,-0.00015,-0.00022,-0.00023,0.00051,-0.0002,-2e-05,-0.0004,6,21
31578,0.00014,-0.00015,-0.00022,-0.00023,0.00051,-0.0002,-2e-05,-0.0004,6,21
31579,0.00014,-0.00015,-0.00022,-0.00023,0.00051,-0.0002,-2e-05,-0.0004,6,21
31580,0.00014,-0.00015,-0.00022,-0.00023,0.00051,-0.0002,-2e-05,-0.0004,6,21
31581,0.00014,-0.00015,-0.00022,-0.00023,0.00051,-0.0002,-2e-05,-0.0004,6,21
31582,0.00014,-0.00015,-0.00022,-0.00023,0.00051,-0.0002,-2e-05,-0.0004,6,21
31583,0.00014,-0.00015,-0.00022,-0.00023,0.00051,-0.0002,-2e-05,-0.0004,6,21
31584,0.00014,-0.00015,-0.00022,-0.00023,0.00051,-0.0002,-2e-05,-0.0004,6,21
31585,0.00014,-0.00015,-0.00022,-0.00023,0.00051,-0.0002,-2e-05,-0.0004,6,21
31587,0.00014,-0.00015,-0.00022,-0.00023,0.00051,-0.0002,-2e-05,-0.0004,6,21
31589,0.00014,-0.00015,-0.00022,-0.00023,0.00051,-0.0002,-2e-05,-0.0004,6,21
31590,0.00014,-0.00015,-0.00022,-0.00023,0.00051,-0.0002,-2e-05,-0.0004,6,21
31591,0.00014,-0.00015,-0.00022,-0.00023,0.00051,-0.0002,-2e-05,-0.0004,6,21
31592,0.00014,-0.00015,-0.00022,-0.00023,0.00051,-0.0002,-2e-05,-0.0004,6,21
31593,0.00014,-0.00015,-0.00022,-0.00023,0.00051,-0.0002,-2e-05,-0.0004,6,21
31594,0.00014,-0.00015,-0.00022,-0.00023,0.00051,-0.0002,-2e-05,-0.0004,6,21
31595,0.00014,-0.00015,-0.00022,-0.00023,0.00051,-0.0002,-2e-05,-0.0004,6,21
31596,0.00014,-0.00015,-0.00022,-0.00023,0.00051,-0.0002,-2e-05,-0.0004,6,21
31597,0.00014,-0.00015,-0.00022,-0.00023,0.00051,-0.0002,-2e-05,-0.0004,6,21
31598,0.00018,9e-05,5e-05,0.00043,0.0011,0.00034,0.00032,0.00014,6,21
31599,-0.00066,-2e-05,7e-05,0.00014,0.00041,-0.00034,5e-05,-0.00022,6,21
31600,-0.00066,-2e-05,7e-05,0.00014,0.00041,-0.00034,5e-05,-0.00022,6,21
31601,-0.00066,-2e-05,7e-05,0.00014,0.00041,-0.00034,5e-05,-0.00022,6,21
31602,-0.00066,-2e-05,7e-05,0.00014,0.00041,-0.00034,5e-05,-0.00022,6,21
31603,-0.00066,-2e-05,7e-05,0.00014,0.00041,-0.00034,5e-05,-0.00022,6,21
31604,-0.00066,-2e-05,7e-05,0.00014,0.00041,-0.00034,5e-05,-0.00022,6,21
31605,-0.00066,-2e-05,7e-05,0.00014,0.00041,-0.00034,5e-05,-0.00022,6,21
31606,-0.00066,-2e-05,7e-05,0.00014,0.00041,-0.00034,5e-05,-0.00022,6,21
31607,-0.00066,-2e-05,7e-05,0.00014,0.00041,-0.00034,5e-05,-0.00022,6,21
31608,-0.00066,-2e-05,7e-05,0.00014,0.00041,-0.00034,5e-05,-0.00022,6,21
31609,-0.00066,-2e-05,7e-05,0.00014,0.00041,-0.00034,5e-05,-0.00022,6,21
31610,-0.00066,-2e-05,7e-05,0.00014,0.00041,-0.00034,5e-05,-0.00022,6,21
31611,-0.00066,-2e-05,7e-05,0.00014,0.00041,-0.00034,5e-05,-0.00022,6,21
31612,-0.00066,-2e-05,7e-05,0.00014,0.00041,-0.00034,5e-05,-0.00022,6,21
31613,-0.00066,-2e-05,7e-05,0.00014,0.00041,-0.00034,5e-05,-0.00022,6,21
31614,-0.00066,-2e-05,7e-05,0.00014,0.00041,-0.00034,5e-05,-0.00022,6,21
31615,-0.00066,-2e-05,7e-05,0.00014,0.00041,-0.00034,5e-05,-0.00022,6,21
31616,-0.00066,-2e-05,7e-05,0.00014,0.00041,-0.00034,5e-05,-0.00022,6,21
31617,-0.00066,-2e-05,7e-05,0.00014,0.00041,-0.00034,5e-05,-0.00022,6,21
31618,-0.00066,-2e-05,7e-05,0.00014,0.00041,-0.00034,5e-05,-0.00022,6,21
31619,-0.00066,-2e-05,7e-05,0.00014,0.00041,-0.00034,5e-05,-0.00022,6,21
31620,-3e-05,-0.00011,-0.0001,-0.00034,-0.00064,-0.00014,-0.0001,5e-05,6,21
31621,-5e-05,-0.0001,-6e-05,0.0001,0.00017,-0.00039,-0.00017,-0.00019,6,21
31622,-5e-05,-0.0001,-6e-05,0.0001,0.00017,-0.00039,-0.00017,-0.00019,6,21
31623,-5e-05,-0.0001,-6e-05,0.0001,0.00017,-0.00039,-0.00017,-0.00019,6,21
31624,-5e-05,-0.0001,-6e-05,0.0001,0.00017,-0.00039,-0.00017,-0.00019,6,21
31625,-5e-05,-0.0001,-6e-05,0.0001,0.00017,-0.00039,-0.00017,-0.00019,6,21
31626,-5e-05,-0.0001,-6e-05,0.0001,0.00017,-0.00039,-0.00017,-0.00019,6,21
31627,-5e-05,-0.0001,-6e-05,0.0001,0.00017,-0.00039,-0.00017,-0.00019,6,21
31628,-5e-05,-0.0001,-6e-05,0.0001,0.00017,-0.00039,-0.00017,-0.00019,6,21
31629,-5e-05,-0.0001,-6e-05,0.0001,0.00017,-0.00039,-0.00017,-0.00019,6,21
31630,-5e-05,-0.0001,-6e-05,0.0001,0.00017,-0.00039,-0.00017,-0.00019,6,21
31631,-5e-05,-0.0001,-6e-05,0.0001,0.00017,-0.00039,-0.00017,-0.00019,6,21
31632,-5e-05,-0.0001,-6e-05,0.0001,0.00017,-0.00039,-0.00017,-0.00019,6,21
31633,-5e-05,-0.0001,-6e-05,0.0001,0.00017,-0.00039,-0.00017,-0.00019,6,21
31634,-5e-05,-0.0001,-6e-05,0.0001,0.00017,-0.00039,-0.00017,-0.00019,6,21
31635,0.00044,-2e-05,9e-05,0.00045,0.00021,-0.00015,0.00023,0.00026,6,21
31637,-2e-05,7e-05,-3e-05,-0.00015,-0.00029,0.00054,0.00017,-0.00026,6,21
31639,-2e-05,7e-05,-3e-05,-0.00015,-0.00029,0.00054,0.00017,-0.00026,6,21
31641,-2e-05,7e-05,-3e-05,-0.00015,-0.00029,0.00054,0.00017,-0.00026,6,21
31642,-2e-05,7e-05,-3e-05,-0.00015,-0.00029,0.00054,0.00017,-0.00026,6,21
31643,-2e-05,7e-05,-3e-05,-0.00015,-0.00029,0.00054,0.00017,-0.00026,6,21
31644,-2e-05,7e-05,-3e-05,-0.00015,-0.00029,0.00054,0.00017,-0.00026,6,21
31645,-2e-05,7e-05,-3e-05,-0.00015,-0.00029,0.00054,0.00017,-0.00026,6,21
31646,-2e-05,7e-05,-3e-05,-0.00015,-0.00029,0.00054,0.00017,-0.00026,6,21
31647,-2e-05,7e-05,-3e-05,-0.00015,-0.00029,0.00054,0.00017,-0.00026,6,21
31648,-2e-05,7e-05,-3e-05,-0.00015,-0.00029,0.00054,0.00017,-0.00026,6,21
31649,-2e-05,7e-05,-3e-05,-0.00015,-0.00029,0.00054,0.00017,-0.00026,6,21
31650,-2e-05,7e-05,-3e-05,-0.00015,-0.00029,0.00054,0.00017,-0.00026,6,21
31651,-2e-05,7e-05,-3e-05,-0.00015,-0.00029,0.00054,0.00017,-0.00026,6,21
31652,-2e-05,7e-05,-3e-05,-0.00015,-0.00029,0.00054,0.00017,-0.00026,6,21
31653,-2e-05,7e-05,-3e-05,-0.00015,-0.00029,0.00054,0.00017,-0.00026,6,21
31654,-2e-05,7e-05,-3e-05,-0.00015,-0.00029,0.00054,0.00017,-0.00026,6,21
31655,-2e-05,7e-05,-3e-05,-0.00015,-0.00029,0.00054,0.00017,-0.00026,6,21
31656,-2e-05,7e-05,-3e-05,-0.00015,-0.00029,0.00054,0.00017,-0.00026,6,21
31657,-2e-05,7e-05,-3e-05,-0.00015,-0.00029,0.00054,0.00017,-0.00026,6,21
31658,4e-05,-6e-05,-5e-05,8e-05,0.00021,0.0001,0.00024,-0.00011,6,21
31659,-0.00022,-3e-05,0.0001,5e-05,0.0003,0.00063,0.00032,-0.00014,6,21
31660,-0.00022,-3e-05,0.0001,5e-05,0.0003,0.00063,0.00032,-0.00014,6,21
31661,-0.00022,-3e-05,0.0001,5e-05,0.0003,0.00063,0.00032,-0.00014,6,21
31662,-0.00022,-3e-05,0.0001,5e-05,0.0003,0.00063,0.00032,-0.00014,6,21
31663,-0.00022,-3e-05,0.0001,5e-05,0.0003,0.00063,0.00032,-0.00014,6,21
31664,-0.00022,-3e-05,0.0001,5e-05,0.0003,0.00063,0.00032,-0.00014,6,21
31665,-0.00022,-3e-05,0.0001,5e-05,0.0003,0.00063,0.00032,-0.00014,6,21
31666,-0.00022,-3e-05,0.0001,5e-05,0.0003,0.00063,0.00032,-0.00014,6,21
31667,-0.00022,-3e-05,0.0001,5e-05,0.0003,0.00063,0.00032,-0.00014,6,21
31668,-0.00022,-3e-05,0.0001,5e-05,0.0003,0.00063,0.00032,-0.00014,6,21
31669,-0.00022,-3e-05,0.0001,5e-05,0.0003,0.00063,0.00032,-0.00014,6,21
31670,-0.00022,-3e-05,0.0001,5e-05,0.0003,0.00063,0.00032,-0.00014,6,21
31671,-0.00022,-3e-05,0.0001,5e-05,0.0003,0.00063,0.00032,-0.00014,6,21
31672,-0.00022,-3e-05,0.0001,5e-05,0.0003,0.00063,0.00032,-0.00014,6,21
31673,-0.00022,-3e-05,0.0001,5e-05,0.0003,0.00063,0.00032,-0.00014,6,21
31674,-0.00022,-3e-05,0.0001,5e-05,0.0003,0.00063,0.00032,-0.00014,6,21
31675,-0.00022,-3e-05,0.0001,5e-05,0.0003,0.00063,0.00032,-0.00014,6,21
31676,-0.00022,-3e-05,0.0001,5e-05,0.0003,0.00063,0.00032,-0.00014,6,21
31677,-0.00022,-3e-05,0.0001,5e-05,0.0003,0.00063,0.00032,-0.00014,6,21
31678,-0.00022,-3e-05,0.0001,5e-05,0.0003,0.00063,0.00032,-0.00014,6,21
31679,-0.00022,-3e-05,0.0001,5e-05,0.0003,0.00063,0.00032,-0.00014,6,21
31680,0.00097,0.00017,7e-05,0.00013,-0.00048,-0.00047,2e-05,-6e-05,6,21
31681,-0.00067,-3e-05,-2e-05,5e-05,0.00043,-0.00042,-0.00011,-0.00025,6,21
31682,-0.00067,-3e-05,-2e-05,5e-05,0.00043,-0.00042,-0.00011,-0.00025,6,21
31683,-0.00067,-3e-05,-2e-05,5e-05,0.00043,-0.00042,-0.00011,-0.00025,6,21
31684,-0.00067,-3e-05,-2e-05,5e-05,0.00043,-0.00042,-0.00011,-0.00025,6,21
31685,-0.00067,-3e-05,-2e-05,5e-05,0.00043,-0.00042,-0.00011,-0.00025,6,21
31687,-0.00067,-3e-05,-2e-05,5e-05,0.00043,-0.00042,-0.00011,-0.00025,6,21
31689,-0.00067,-3e-05,-2e-05,5e-05,0.00043,-0.00042,-0.00011,-0.00025,6,21
31690,-0.00067,-3e-05,-2e-05,5e-05,0.00043,-0.00042,-0.00011,-0.00025,6,21
31691,-0.00067,-3e-05,-2e-05,5e-05,0.00043,-0.00042,-0.00011,-0.00025,6,21
31692,-0.00067,-3e-05,-2e-05,5e-05,0.00043,-0.00042,-0.00011,-0.00025,6,21
31693,-0.00067,-3e-05,-2e-05,5e-05,0.00043,-0.00042,-0.00011,-0.00025,6,21
31694,-0.00067,-3e-05,-2e-05,5e-05,0.00043,-0.00042,-0.00011,-0.00025,6,21
31695,-0.00045,8e-05,5e-05,0.00017,0.00013,-0.00076,0.00012,-0.00025,6,21
31696,0.00019,4e-05,-2e-05,-9e-05,0.00014,0.00012,0.00063,0.00012,6,21
31697,0.00019,4e-05,-2e-05,-9e-05,0.00014,0.00012,0.00063,0.00012,6,21
31698,0.00019,4e-05,-2e-05,-9e-05,0.00014,0.00012,0.00063,0.00012,6,21
31699,0.00019,4e-05,-2e-05,-9e-05,0.00014,0.00012,0.00063,0.00012,6,21
31700,0.00019,4e-05,-2e-05,-9e-05,0.00014,0.00012,0.00063,0.00012,6,21
31701,0.00019,4e-05,-2e-05,-9e-05,0.00014,0.00012,0.00063,0.00012,6,21
31702,0.00019,4e-05,-2e-05,-9e-05,0.00014,0.00012,0.00063,0.00012,6,21
31703,0.00019,4e-05,-2e-05,-9e-05,0.00014,0.00012,0.00063,0.00012,6,21
31704,0.00019,4e-05,-2e-05,-9e-05,0.00014,0.00012,0.00063,0.00012,6,21
31705,0.00019,4e-05,-2e-05,-9e-05,0.00014,0.00012,0.00063,0.00012,6,21
31706,0.00019,4e-05,-2e-05,-9e-05,0.00014,0.00012,0.00063,0.00012,6,21
31707,0.00019,4e-05,-2e-05,-9e-05,0.00014,0.00012,0.00063,0.00012,6,21
31708,0.00019,4e-05,-2e-05,-9e-05,0.00014,0.00012,0.00063,0.00012,6,21
31709,0.00019,4e-05,-2e-05,-9e-05,0.00014,0.00012,0.00063,0.00012,6,21
31710,0.00019,4e-05,-2e-05,-9e-05,0.00014,0.00012,0.00063,0.00012,6,21
31711,0.00019,4e-05,-2e-05,-9e-05,0.00014,0.00012,0.00063,0.00012,6,21
31712,0.00019,4e-05,-2e-05,-9e-05,0.00014,0.00012,0.00063,0.00012,6,21
31713,0.00019,4e-05,-2e-05,-9e-05,0.00014,0.00012,0.00063,0.00012,6,21
31714,0.00019,4e-05,-2e-05,-9e-05,0.00014,0.00012,0.00063,0.00012,6,21
31715,0.00019,4e-05,-2e-05,-9e-05,0.00014,0.00012,0.00063,0.00012,6,21
31716,0.00019,4e-05,-2e-05,-9e-05,0.00014,0.00012,0.00063,0.00012,6,21
31717,0.00019,4e-05,-2e-05,-9e-05,0.00014,0.00012,0.00063,0.00012,6,21
31718,0.00029,-3e-05,-3e-05,-8e-05,3e-05,-0.00102,0.00022,0.00031,6,21
31719,0.00093,0.00013,8e-05,6e-05,-0.00064,-0.00089,-0.00021,-1e-05,6,21
31720,0.00093,0.00013,8e-05,6e-05,-0.00064,-0.00089,-0.00021,-1e-05,6,21
31721,0.00093,0.00013,8e-05,6e-05,-0.00064,-0.00089,-0.00021,-1e-05,6,21
31722,0.00093,0.00013,8e-05,6e-05,-0.00064,-0.00089,-0.00021,-1e-05,6,21
31723,0.00093,0.00013,8e-05,6e-05,-0.00064,-0.00089,-0.00021,-1e-05,6,21
31724,0.00093,0.00013,8e-05,6e-05,-0.00064,-0.00089,-0.00021,-1e-05,6,21
31725,0.00093,0.00013,8e-05,6e-05,-0.00064,-0.00089,-0.00021,-1e-05,6,21
31726,0.00093,0.00013,8e-05,6e-05,-0.00064,-0.00089,-0.00021,-1e-05,6,21
31727,0.00093,0.00013,8e-05,6e-05,-0.00064,-0.00089,-0.00021,-1e-05,6,21
31728,0.00093,0.00013,8e-05,6e-05,-0.00064,-0.00089,-0.00021,-1e-05,6,21
31729,0.00093,0.00013,8e-05,6e-05,-0.00064,-0.00089,-0.00021,-1e-05,6,21
31730,0.00093,0.00013,8e-05,6e-05,-0.00064,-0.00089,-0.00021,-1e-05,6,21
31731,0.00093,0.00013,8e-05,6e-05,-0.00064,-0.00089,-0.00021,-1e-05,6,21
31732,0.00093,0.00013,8e-05,6e-05,-0.00064,-0.00089,-0.00021,-1e-05,6,21
31733,0.00093,0.00013,8e-05,6e-05,-0.00064,-0.00089,-0.00021,-1e-05,6,21
31734,0.00093,0.00013,8e-05,6e-05,-0.00064,-0.00089,-0.00021,-1e-05,6,21
31735,0.00093,0.00013,8e-05,6e-05,-0.00064,-0.00089,-0.00021,-1e-05,6,21
31737,0.00093,0.00013,8e-05,6e-05,-0.00064,-0.00089,-0.00021,-1e-05,6,21
31739,0.00093,0.00013,8e-05,6e-05,-0.00064,-0.00089,-0.00021,-1e-05,6,21
31740,0.00093,0.00013,8e-05,6e-05,-0.00064,-0.00089,-0.00021,-1e-05,6,21
31741,-5e-05,-0.00011,-3e-05,-9e-05,-0.00014,0.00066,-0.00011,0.00031,6,21
31742,-5e-05,-0.00011,-3e-05,-9e-05,-0.00014,0.00066,-0.00011,0.00031,6,21
31743,-5e-05,-0.00011,-3e-05,-9e-05,-0.00014,0.00066,-0.00011,0.00031,6,21
31744,-5e-05,-0.00011,-3e-05,-9e-05,-0.00014,0.00066,-0.00011,0.00031,6,21
31745,-5e-05,-0.00011,-3e-05,-9e-05,-0.00014,0.00066,-0.00011,0.00031,6,21
31746,-5e-05,-0.00011,-3e-05,-9e-05,-0.00014,0.00066,-0.00011,0.00031,6,21
31747,-5e-05,-0.00011,-3e-05,-9e-05,-0.00014,0.00066,-0.00011,0.00031,6,21
31748,-5e-05,-0.00011,-3e-05,-9e-05,-0.00014,0.00066,-0.00011,0.00031,6,21
31749,-5e-05,-0.00011,-3e-05,-9e-05,-0.00014,0.00066,-0.00011,0.00031,6,21
31750,-5e-05,-0.00011,-3e-05,-9e-05,-0.00014,0.00066,-0.00011,0.00031,6,21
31751,-5e-05,-0.00011,-3e-05,-9e-05,-0.00014,0.00066,-0.00011,0.00031,6,21
31752,-5e-05,-0.00011,-3e-05,-9e-05,-0.00014,0.00066,-0.00011,0.00031,6,21
31753,-5e-05,-0.00011,-3e-05,-9e-05,-0.00014,0.00066,-0.00011,0.00031,6,21
31754,-9e-05,-0.00013,-0.00011,-0.00034,-0.00088,-0.0006,-0.00021,-0.00026,6,21
31755,-9e-05,-0.00013,-0.00011,-0.00034,-0.00088,-0.0006,-0.00021,-0.00026,6,21
31756,-9e-05,-0.00013,-0.00011,-0.00034,-0.00088,-0.0006,-0.00021,-0.00026,6,21
31757,-9e-05,-0.00013,-0.00011,-0.00034,-0.00088,-0.0006,-0.00021,-0.00026,6,21
31758,-9e-05,-0.00013,-0.00011,-0.00034,-0.00088,-0.0006,-0.00021,-0.00026,6,21
31759,-9e-05,-0.00013,-0.00011,-0.00034,-0.00088,-0.0006,-0.00021,-0.00026,6,21
31760,-9e-05,-0.00013,-0.00011,-0.00034,-0.00088,-0.0006,-0.00021,-0.00026,6,21
31761,-9e-05,-0.00013,-0.00011,-0.00034,-0.00088,-0.0006,-0.00021,-0.00026,6,21
31762,-9e-05,-0.00013,-0.00011,-0.00034,-0.00088,-0.0006,-0.00021,-0.00026,6,21
31763,-0.00031,-5e-05,-4e-05,4e-05,0.00037,0.00088,0.00021,-0.00024,6,21
31764,-0.00031,-5e-05,-4e-05,4e-05,0.00037,0.00088,0.00021,-0.00024,6,21
31765,-0.00031,-5e-05,-4e-05,4e-05,0.00037,0.00088,0.00021,-0.00024,6,21
31766,-0.00031,-5e-05,-4e-05,4e-05,0.00037,0.00088,0.00021,-0.00024,6,21
31767,-0.00031,-5e-05,-4e-05,4e-05,0.00037,0.00088,0.00021,-0.00024,6,21
31768,-0.00031,-5e-05,-4e-05,4e-05,0.00037,0.00088,0.00021,-0.00024,6,21
31769,-0.00031,-5e-05,-4e-05,4e-05,0.00037,0.00088,0.00021,-0.00024,6,21
31770,-0.00031,-5e-05,-4e-05,4e-05,0.00037,0.00088,0.00021,-0.00024,6,21
31771,-0.00031,-5e-05,-4e-05,4e-05,0.00037,0.00088,0.00021,-0.00024,6,21
31772,-0.00031,-5e-05,-4e-05,4e-05,0.00037,0.00088,0.00021,-0.00024,6,21
31773,-0.00031,-5e-05,-4e-05,4e-05,0.00037,0.00088,0.00021,-0.00024,6,21
31774,-0.00031,-5e-05,-4e-05,4e-05,0.00037,0.00088,0.00021,-0.00024,6,21
31775,-0.00031,-5e-05,-4e-05,4e-05,0.00037,0.00088,0.00021,-0.00024,6,21
31776,-0.00031,-5e-05,-4e-05,4e-05,0.00037,0.00088,0.00021,-0.00024,6,21
31777,-0.00031,-5e-05,-4e-05,4e-05,0.00037,0.00088,0.00021,-0.00024,6,21
31778,-0.00121,-0.00016,-0.0001,-0.00011,-0.0002,0.00035,0.0001,-0.00015,6,21
31779,0.00053,8e-05,1e-05,3e-05,0,-0.00097,-0.00074,0.00015,6,21
31780,0.00053,8e-05,1e-05,3e-05,0,-0.00097,-0.00074,0.00015,6,21
31781,0.00053,8e-05,1e-05,3e-05,0,-0.00097,-0.00074,0.00015,6,21
31782,0.00053,8e-05,1e-05,3e-05,0,-0.00097,-0.00074,0.00015,6,21
31783,0.00053,8e-05,1e-05,3e-05,0,-0.00097,-0.00074,0.00015,6,21
31784,0.00053,8e-05,1e-05,3e-05,0,-0.00097,-0.00074,0.00015,6,21
31785,0.00053,8e-05,1e-05,3e-05,0,-0.00097,-0.00074,0.00015,6,21
31787,0.00053,8e-05,1e-05,3e-05,0,-0.00097,-0.00074,0.00015,6,21
31789,0.00053,8e-05,1e-05,3e-05,0,-0.00097,-0.00074,0.00015,6,21
31790,0.00053,8e-05,1e-05,3e-05,0,-0.00097,-0.00074,0.00015,6,21
31791,0.00053,8e-05,1e-05,3e-05,0,-0.00097,-0.00074,0.00015,6,21
31792,0.00053,8e-05,1e-05,3e-05,0,-0.00097,-0.00074,0.00015,6,21
31793,0.00053,8e-05,1e-05,3e-05,0,-0.00097,-0.00074,0.00015,6,21
31794,0.00053,8e-05,1e-05,3e-05,0,-0.00097,-0.00074,0.00015,6,21
31795,0.00053,8e-05,1e-05,3e-05,0,-0.00097,-0.00074,0.00015,6,21
31796,0.00053,8e-05,1e-05,3e-05,0,-0.00097,-0.00074,0.00015,6,21
31797,0.00053,8e-05,1e-05,3e-05,0,-0.00097,-0.00074,0.00015,6,21
31798,0.00053,8e-05,1e-05,3e-05,0,-0.00097,-0.00074,0.00015,6,21
31799,0.00053,8e-05,1e-05,3e-05,0,-0.00097,-0.00074,0.00015,6,21
31800,0.0002,6e-05,0.00011,5e-05,-0.00082,-0.00054,9e-05,0.00013,6,21
31801,0.0002,6e-05,0.00011,5e-05,-0.00082,-0.00054,9e-05,0.00013,6,21
31802,-0.00013,-9e-05,-2e-05,0.00015,0.00055,3e-05,-5e-05,-1e-05,6,21
31803,-0.00013,-9e-05,-2e-05,0.00015,0.00055,3e-05,-5e-05,-1e-05,6,21
31804,-0.00013,-9e-05,-2e-05,0.00015,0.00055,3e-05,-5e-05,-1e-05,6,21
31805,-0.00013,-9e-05,-2e-05,0.00015,0.00055,3e-05,-5e-05,-1e-05,6,21
31806,-0.00013,-9e-05,-2e-05,0.00015,0.00055,3e-05,-5e-05,-1e-05,6,21
31807,-0.00013,-9e-05,-2e-05,0.00015,0.00055,3e-05,-5e-05,-1e-05,6,21
31808,-0.00013,-9e-05,-2e-05,0.00015,0.00055,3e-05,-5e-05,-1e-05,6,21
31809,-0.00013,-9e-05,-2e-05,0.00015,0.00055,3e-05,-5e-05,-1e-05,6,21
31810,-0.00013,-9e-05,-2e-05,0.00015,0.00055,3e-05,-5e-05,-1e-05,6,21
31811,-0.00013,-9e-05,-2e-05,0.00015,0.00055,3e-05,-5e-05,-1e-05,6,21
31812,-0.00013,-9e-05,-2e-05,0.00015,0.00055,3e-05,-5e-05,-1e-05,6,21
31813,-0.00013,-9e-05,-2e-05,0.00015,0.00055,3e-05,-5e-05,-1e-05,6,21
31814,-0.00023,-2e-05,3e-05,0.00022,0.00094,0.00049,-0.00016,-2e-05,6,21
31815,-0.00023,-2e-05,3e-05,0.00022,0.00094,0.00049,-0.00016,-2e-05,6,21
31816,-0.00023,-2e-05,3e-05,0.00022,0.00094,0.00049,-0.00016,-2e-05,6,21
31817,-0.00023,-2e-05,3e-05,0.00022,0.00094,0.00049,-0.00016,-2e-05,6,21
31818,-0.00023,-2e-05,3e-05,0.00022,0.00094,0.00049,-0.00016,-2e-05,6,21
31819,-0.00023,-2e-05,3e-05,0.00022,0.00094,0.00049,-0.00016,-2e-05,6,21
31820,-0.00023,-2e-05,3e-05,0.00022,0.00094,0.00049,-0.00016,-2e-05,6,21
31821,-0.00023,-2e-05,3e-05,0.00022,0.00094,0.00049,-0.00016,-2e-05,6,21
31822,-0.00023,-2e-05,3e-05,0.00022,0.00094,0.00049,-0.00016,-2e-05,6,21
31824,-0.00033,3e-05,-0.0001,-0.00014,-0.00049,-0.00035,0.00022,6e-05,6,21
31825,-0.00033,3e-05,-0.0001,-0.00014,-0.00049,-0.00035,0.00022,6e-05,6,21
31826,-0.00033,3e-05,-0.0001,-0.00014,-0.00049,-0.00035,0.00022,6e-05,6,21
31827,-0.00033,3e-05,-0.0001,-0.00014,-0.00049,-0.00035,0.00022,6e-05,6,21
31828,-0.00033,3e-05,-0.0001,-0.00014,-0.00049,-0.00035,0.00022,6e-05,6,21
31829,-0.00033,3e-05,-0.0001,-0.00014,-0.00049,-0.00035,0.00022,6e-05,6,21
31830,-0.00033,3e-05,-0.0001,-0.00014,-0.00049,-0.00035,0.00022,6e-05,6,21
31831,-0.00033,3e-05,-0.0001,-0.00014,-0.00049,-0.00035,0.00022,6e-05,6,21
31832,-0.00033,3e-05,-0.0001,-0.00014,-0.00049,-0.00035,0.00022,6e-05,6,21
31833,-0.00033,3e-05,-0.0001,-0.00014,-0.00049,-0.00035,0.00022,6e-05,6,21
31834,-0.00033,3e-05,-0.0001,-0.00014,-0.00049,-0.00035,0.00022,6e-05,6,21
31835,-0.00033,3e-05,-0.0001,-0.00014,-0.00049,-0.00035,0.00022,6e-05,6,21
31837,-0.00033,3e-05,-0.0001,-0.00014,-0.00049,-0.00035,0.00022,6e-05,6,21
31839,-0.00076,-7e-05,0,3e-05,-3e-05,0.00065,5e-05,-0.00033,6,21
31840,-0.00076,-7e-05,0,3e-05,-3e-05,0.00065,5e-05,-0.00033,6,21
31841,0.00041,1e-05,2e-05,2e-05,0.00029,0.00026,-6e-05,0.00027,6,21
31842,0.00041,1e-05,2e-05,2e-05,0.00029,0.00026,-6e-05,0.00027,6,21
31843,0.00041,1e-05,2e-05,2e-05,0.00029,0.00026,-6e-05,0.00027,6,21
31844,0.00041,1e-05,2e-05,2e-05,0.00029,0.00026,-6e-05,0.00027,6,21
31845,0.00041,1e-05,2e-05,2e-05,0.00029,0.00026,-6e-05,0.00027,6,21
31846,0.00041,1e-05,2e-05,2e-05,0.00029,0.00026,-6e-05,0.00027,6,21
31847,0.00041,1e-05,2e-05,2e-05,0.00029,0.00026,-6e-05,0.00027,6,21
31848,0.00041,1e-05,2e-05,2e-05,0.00029,0.00026,-6e-05,0.00027,6,21
31849,0.00041,1e-05,2e-05,2e-05,0.00029,0.00026,-6e-05,0.00027,6,21
31850,0.00041,1e-05,2e-05,2e-05,0.00029,0.00026,-6e-05,0.00027,6,21
31851,0.00041,1e-05,2e-05,2e-05,0.00029,0.00026,-6e-05,0.00027,6,21
31852,0.00041,1e-05,2e-05,2e-05,0.00029,0.00026,-6e-05,0.00027,6,21
31853,0.00041,1e-05,2e-05,2e-05,0.00029,0.00026,-6e-05,0.00027,6,21
31854,0.00041,1e-05,2e-05,2e-05,0.00029,0.00026,-6e-05,0.00027,6,21
31855,0.00041,1e-05,2e-05,2e-05,0.00029,0.00026,-6e-05,0.00027,6,21
31856,0.00041,1e-05,2e-05,2e-05,0.00029,0.00026,-6e-05,0.00027,6,21
31857,0.00041,1e-05,2e-05,2e-05,0.00029,0.00026,-6e-05,0.00027,6,21
31858,0.00041,1e-05,2e-05,2e-05,0.00029,0.00026,-6e-05,0.00027,6,21
31859,0.00041,1e-05,2e-05,2e-05,0.00029,0.00026,-6e-05,0.00027,6,21
31860,0.00041,1e-05,2e-05,2e-05,0.00029,0.00026,-6e-05,0.00027,6,21
31861,0.00036,0.00013,8e-05,0.0002,0.00024,0.00019,0.00078,-0.00012,6,21
31862,-0.00016,-6e-05,1e-05,-2e-05,1e-05,0.00068,0.0001,-0.00012,6,21
31863,-0.00016,-6e-05,1e-05,-2e-05,1e-05,0.00068,0.0001,-0.00012,6,21
31864,-0.00016,-6e-05,1e-05,-2e-05,1e-05,0.00068,0.0001,-0.00012,6,21
31865,-0.00016,-6e-05,1e-05,-2e-05,1e-05,0.00068,0.0001,-0.00012,6,21
31866,-0.00016,-6e-05,1e-05,-2e-05,1e-05,0.00068,0.0001,-0.00012,6,21
31867,-0.00016,-6e-05,1e-05,-2e-05,1e-05,0.00068,0.0001,-0.00012,6,21
31868,-0.00016,-6e-05,1e-05,-2e-05,1e-05,0.00068,0.0001,-0.00012,6,21
31869,-0.00016,-6e-05,1e-05,-2e-05,1e-05,0.00068,0.0001,-0.00012,6,21
31870,-0.00016,-6e-05,1e-05,-2e-05,1e-05,0.00068,0.0001,-0.00012,6,21
31871,-0.00016,-6e-05,1e-05,-2e-05,1e-05,0.00068,0.0001,-0.00012,6,21
31872,-0.00016,-6e-05,1e-05,-2e-05,1e-05,0.00068,0.0001,-0.00012,6,21
31873,-0.00016,-6e-05,1e-05,-2e-05,1e-05,0.00068,0.0001,-0.00012,6,21
31874,8e-05,0.0002,6e-05,1e-05,-0.00016,0.00039,0.00048,-0.00013,6,21
31875,8e-05,0.0002,6e-05,1e-05,-0.00016,0.00039,0.00048,-0.00013,6,21
31876,8e-05,0.0002,6e-05,1e-05,-0.00016,0.00039,0.00048,-0.00013,6,21
31877,8e-05,0.0002,6e-05,1e-05,-0.00016,0.00039,0.00048,-0.00013,6,21
31878,8e-05,0.0002,6e-05,1e-05,-0.00016,0.00039,0.00048,-0.00013,6,21
31879,8e-05,0.0002,6e-05,1e-05,-0.00016,0.00039,0.00048,-0.00013,6,21
31880,8e-05,0.0002,6e-05,1e-05,-0.00016,0.00039,0.00048,-0.00013,6,21
31881,8e-05,0.0002,6e-05,1e-05,-0.00016,0.00039,0.00048,-0.00013,6,21
31882,8e-05,0.0002,6e-05,1e-05,-0.00016,0.00039,0.00048,-0.00013,6,21
31883,-0.00035,-0.00024,-0.00026,-0.00012,-0.00023,-0.00112,-5e-05,-0.00014,6,21
31884,-0.00035,-0.00024,-0.00026,-0.00012,-0.00023,-0.00112,-5e-05,-0.00014,6,21
31885,-0.00035,-0.00024,-0.00026,-0.00012,-0.00023,-0.00112,-5e-05,-0.00014,6,21
31887,-0.00035,-0.00024,-0.00026,-0.00012,-0.00023,-0.00112,-5e-05,-0.00014,6,21
31889,-0.00035,-0.00024,-0.00026,-0.00012,-0.00023,-0.00112,-5e-05,-0.00014,6,21
31890,-0.00035,-0.00024,-0.00026,-0.00012,-0.00023,-0.00112,-5e-05,-0.00014,6,21
31891,-0.00035,-0.00024,-0.00026,-0.00012,-0.00023,-0.00112,-5e-05,-0.00014,6,21
31892,-0.00035,-0.00024,-0.00026,-0.00012,-0.00023,-0.00112,-5e-05,-0.00014,6,21
31893,-0.00035,-0.00024,-0.00026,-0.00012,-0.00023,-0.00112,-5e-05,-0.00014,6,21
31894,-0.00035,-0.00024,-0.00026,-0.00012,-0.00023,-0.00112,-5e-05,-0.00014,6,21
31895,-0.00035,-0.00024,-0.00026,-0.00012,-0.00023,-0.00112,-5e-05,-0.00014,6,21
31896,-0.00035,-0.00024,-0.00026,-0.00012,-0.00023,-0.00112,-5e-05,-0.00014,6,21
31897,-0.00035,-0.00024,-0.00026,-0.00012,-0.00023,-0.00112,-5e-05,-0.00014,6,21
31898,0.00077,6e-05,-0.00013,0.00016,-0.00035,-0.00069,-0.0008,4e-05,6,21
31899,-0.00048,7e-05,0.00012,5e-05,0.00022,0.00052,0.00018,-0.00049,6,21
31900,0.00059,0.00014,8e-05,-0.00013,-0.00037,0.00054,-0.00018,0.00029,6,21
31901,0.00059,0.00014,8e-05,-0.00013,-0.00037,0.00054,-0.00018,0.00029,6,21
31902,0.00059,0.00014,8e-05,-0.00013,-0.00037,0.00054,-0.00018,0.00029,6,21
31903,0.00059,0.00014,8e-05,-0.00013,-0.00037,0.00054,-0.00018,0.00029,6,21
31904,0.00059,0.00014,8e-05,-0.00013,-0.00037,0.00054,-0.00018,0.00029,6,21
31905,0.00059,0.00014,8e-05,-0.00013,-0.00037,0.00054,-0.00018,0.00029,6,21
31906,0.00059,0.00014,8e-05,-0.00013,-0.00037,0.00054,-0.00018,0.00029,6,21
31907,0.00059,0.00014,8e-05,-0.00013,-0.00037,0.00054,-0.00018,0.00029,6,21
31908,0.00059,0.00014,8e-05,-0.00013,-0.00037,0.00054,-0.00018,0.00029,6,21
31909,0.00059,0.00014,8e-05,-0.00013,-0.00037,0.00054,-0.00018,0.00029,6,21
31910,0.00059,0.00014,8e-05,-0.00013,-0.00037,0.00054,-0.00018,0.00029,6,21
31911,0.00059,0.00014,8e-05,-0.00013,-0.00037,0.00054,-0.00018,0.00029,6,21
31912,0.00059,0.00014,8e-05,-0.00013,-0.00037,0.00054,-0.00018,0.00029,6,21
31913,0.00059,0.00014,8e-05,-0.00013,-0.00037,0.00054,-0.00018,0.00029,6,21
31914,0.00059,0.00014,8e-05,-0.00013,-0.00037,0.00054,-0.00018,0.00029,6,21
31915,0.00059,0.00014,8e-05,-0.00013,-0.00037,0.00054,-0.00018,0.00029,6,21
31916,0.00059,0.00014,8e-05,-0.00013,-0.00037,0.00054,-0.00018,0.00029,6,21
31917,0.00059,0.00014,8e-05,-0.00013,-0.00037,0.00054,-0.00018,0.00029,6,21
31918,0.00059,0.00014,8e-05,-0.00013,-0.00037,0.00054,-0.00018,0.00029,6,21
31919,0.00059,0.00014,8e-05,-0.00013,-0.00037,0.00054,-0.00018,0.00029,6,21
31920,0.0002,5e-05,-3e-05,0.00013,0.0001,0.00011,-6e-05,-0.0002,6,21
31921,0.00013,-0.00012,-4e-05,-0.00027,-0.00051,-0.00022,-0.00026,0.00029,6,21
31922,-0.00015,-0.00021,4e-05,6e-05,-3e-05,-2e-05,0.00011,-8e-05,6,21
31923,-0.00015,-0.00021,4e-05,6e-05,-3e-05,-2e-05,0.00011,-8e-05,6,21
31924,-0.00015,-0.00021,4e-05,6e-05,-3e-05,-2e-05,0.00011,-8e-05,6,21
31925,-0.00015,-0.00021,4e-05,6e-05,-3e-05,-2e-05,0.00011,-8e-05,6,21
31926,-0.00015,-0.00021,4e-05,6e-05,-3e-05,-2e-05,0.00011,-8e-05,6,21
31927,-0.00015,-0.00021,4e-05,6e-05,-3e-05,-2e-05,0.00011,-8e-05,6,21
31928,-0.00015,-0.00021,4e-05,6e-05,-3e-05,-2e-05,0.00011,-8e-05,6,21
31929,-0.00015,-0.00021,4e-05,6e-05,-3e-05,-2e-05,0.00011,-8e-05,6,21
31930,-0.00015,-0.00021,4e-05,6e-05,-3e-05,-2e-05,0.00011,-8e-05,6,21
31931,-0.00015,-0.00021,4e-05,6e-05,-3e-05,-2e-05,0.00011,-8e-05,6,21
31932,-0.00015,-0.00021,4e-05,6e-05,-3e-05,-2e-05,0.00011,-8e-05,6,21
31933,-0.00015,-0.00021,4e-05,6e-05,-3e-05,-2e-05,0.00011,-8e-05,6,21
31934,6e-05,3e-05,-3e-05,0,0.00018,0.00022,-0.00053,0.00014,6,21
31935,6e-05,3e-05,-3e-05,0,0.00018,0.00022,-0.00053,0.00014,6,21
31937,6e-05,3e-05,-3e-05,0,0.00018,0.00022,-0.00053,0.00014,6,21
31939,6e-05,3e-05,-3e-05,0,0.00018,0.00022,-0.00053,0.00014,6,21
31940,6e-05,3e-05,-3e-05,0,0.00018,0.00022,-0.00053,0.00014,6,21
31941,6e-05,3e-05,-3e-05,0,0.00018,0.00022,-0.00053,0.00014,6,21
31942,6e-05,3e-05,-3e-05,0,0.00018,0.00022,-0.00053,0.00014,6,21
31943,-0.00047,0.00012,-4e-05,0.00013,0.0003,-3e-05,9e-05,-0.00039,6,21
31944,-0.00047,0.00012,-4e-05,0.00013,0.0003,-3e-05,9e-05,-0.00039,6,21
31945,-0.00047,0.00012,-4e-05,0.00013,0.0003,-3e-05,9e-05,-0.00039,6,21
31946,-0.00047,0.00012,-4e-05,0.00013,0.0003,-3e-05,9e-05,-0.00039,6,21
31947,-0.00047,0.00012,-4e-05,0.00013,0.0003,-3e-05,9e-05,-0.00039,6,21
31948,-0.00047,0.00012,-4e-05,0.00013,0.0003,-3e-05,9e-05,-0.00039,6,21
31949,-0.00047,0.00012,-4e-05,0.00013,0.0003,-3e-05,9e-05,-0.00039,6,21
31950,-0.00047,0.00012,-4e-05,0.00013,0.0003,-3e-05,9e-05,-0.00039,6,21
31951,-0.00047,0.00012,-4e-05,0.00013,0.0003,-3e-05,9e-05,-0.00039,6,21
31952,-0.00047,0.00012,-4e-05,0.00013,0.0003,-3e-05,9e-05,-0.00039,6,21
31953,-0.00047,0.00012,-4e-05,0.00013,0.0003,-3e-05,9e-05,-0.00039,6,21
31954,-0.00047,0.00012,-4e-05,0.00013,0.0003,-3e-05,9e-05,-0.00039,6,21
31955,-0.00047,0.00012,-4e-05,0.00013,0.0003,-3e-05,9e-05,-0.00039,6,21
31956,-0.00047,0.00012,-4e-05,0.00013,0.0003,-3e-05,9e-05,-0.00039,6,21
31957,-0.00047,0.00012,-4e-05,0.00013,0.0003,-3e-05,9e-05,-0.00039,6,21
31958,-0.0003,5e-05,2e-05,-0.00029,2e-05,0.0003,-0.00021,-0.00014,6,21
31959,-0.0003,5e-05,2e-05,-0.00029,2e-05,0.0003,-0.00021,-0.00014,6,21
31960,0.00016,1e-05,0.00011,0.00028,-0.00067,-0.00097,-0.00057,-0.00022,6,21
31961,0.00016,1e-05,0.00011,0.00028,-0.00067,-0.00097,-0.00057,-0.00022,6,21
31962,0.00016,1e-05,0.00011,0.00028,-0.00067,-0.00097,-0.00057,-0.00022,6,21
31963,0.00016,1e-05,0.00011,0.00028,-0.00067,-0.00097,-0.00057,-0.00022,6,21
31964,0.00016,1e-05,0.00011,0.00028,-0.00067,-0.00097,-0.00057,-0.00022,6,21
31965,0.00016,1e-05,0.00011,0.00028,-0.00067,-0.00097,-0.00057,-0.00022,6,21
31966,0.00016,1e-05,0.00011,0.00028,-0.00067,-0.00097,-0.00057,-0.00022,6,21
31967,0.00016,1e-05,0.00011,0.00028,-0.00067,-0.00097,-0.00057,-0.00022,6,21
31968,0.00016,1e-05,0.00011,0.00028,-0.00067,-0.00097,-0.00057,-0.00022,6,21
31969,0.00016,1e-05,0.00011,0.00028,-0.00067,-0.00097,-0.00057,-0.00022,6,21
31970,0.00016,1e-05,0.00011,0.00028,-0.00067,-0.00097,-0.00057,-0.00022,6,21
31971,0.00016,1e-05,0.00011,0.00028,-0.00067,-0.00097,-0.00057,-0.00022,6,21
31972,0.00016,1e-05,0.00011,0.00028,-0.00067,-0.00097,-0.00057,-0.00022,6,21
31973,0.00016,1e-05,0.00011,0.00028,-0.00067,-0.00097,-0.00057,-0.00022,6,21
31974,0.00016,1e-05,0.00011,0.00028,-0.00067,-0.00097,-0.00057,-0.00022,6,21
31975,0.00016,1e-05,0.00011,0.00028,-0.00067,-0.00097,-0.00057,-0.00022,6,21
31976,0.00016,1e-05,0.00011,0.00028,-0.00067,-0.00097,-0.00057,-0.00022,6,21
31977,0.00016,1e-05,0.00011,0.00028,-0.00067,-0.00097,-0.00057,-0.00022,6,21
31978,0.00016,1e-05,0.00011,0.00028,-0.00067,-0.00097,-0.00057,-0.00022,6,21
31979,0.00016,1e-05,0.00011,0.00028,-0.00067,-0.00097,-0.00057,-0.00022,6,21
31980,-0.0002,-0.00024,-7e-05,-0.00014,-0.00095,-0.00045,0.00014,1e-05,6,21
31981,0.00023,-0.00021,6e-05,0.00029,0.00127,0.0008,0.00015,-0.00014,6,21
31982,0.00084,0.00019,5e-05,0.00093,7e-05,0.00053,0.00025,0.00022,6,21
31983,0.00084,0.00019,5e-05,0.00093,7e-05,0.00053,0.00025,0.00022,6,21
31984,0.00084,0.00019,5e-05,0.00093,7e-05,0.00053,0.00025,0.00022,6,21
31985,0.00084,0.00019,5e-05,0.00093,7e-05,0.00053,0.00025,0.00022,6,21
31987,0.00084,0.00019,5e-05,0.00093,7e-05,0.00053,0.00025,0.00022,6,21
31989,0.00084,0.00019,5e-05,0.00093,7e-05,0.00053,0.00025,0.00022,6,21
31990,0.00084,0.00019,5e-05,0.00093,7e-05,0.00053,0.00025,0.00022,6,21
31991,0.00084,0.00019,5e-05,0.00093,7e-05,0.00053,0.00025,0.00022,6,21
31992,0.00084,0.00019,5e-05,0.00093,7e-05,0.00053,0.00025,0.00022,6,21
31993,0.00084,0.00019,5e-05,0.00093,7e-05,0.00053,0.00025,0.00022,6,21
31994,0.00023,5e-05,1e-05,-0.00013,-0.00033,0.0006,0.00021,0.00021,6,21
31995,0.00023,5e-05,1e-05,-0.00013,-0.00033,0.0006,0.00021,0.00021,6,21
31996,0.00023,5e-05,1e-05,-0.00013,-0.00033,0.0006,0.00021,0.00021,6,21
31997,0.00023,5e-05,1e-05,-0.00013,-0.00033,0.0006,0.00021,0.00021,6,21
31998,0.00023,5e-05,1e-05,-0.00013,-0.00033,0.0006,0.00021,0.00021,6,21
31999,0.00023,5e-05,1e-05,-0.00013,-0.00033,0.0006,0.00021,0.00021,6,21
32000,0.00023,5e-05,1e-05,-0.00013,-0.00033,0.0006,0.00021,0.00021,6,21
32001,0.00023,5e-05,1e-05,-0.00013,-0.00033,0.0006,0.00021,0.00021,6,21
32002,0.00023,5e-05,1e-05,-0.00013,-0.00033,0.0006,0.00021,0.00021,6,21
32003,-1e-05,0.00023,-3e-05,-0.00039,0.00094,0.00123,0.00058,7e-05,6,21
32004,-1e-05,0.00023,-3e-05,-0.00039,0.00094,0.00123,0.00058,7e-05,6,21
32005,-1e-05,0.00023,-3e-05,-0.00039,0.00094,0.00123,0.00058,7e-05,6,21
32006,-1e-05,0.00023,-3e-05,-0.00039,0.00094,0.00123,0.00058,7e-05,6,21
32007,-1e-05,0.00023,-3e-05,-0.00039,0.00094,0.00123,0.00058,7e-05,6,21
32008,-1e-05,0.00023,-3e-05,-0.00039,0.00094,0.00123,0.00058,7e-05,6,21
32009,-1e-05,0.00023,-3e-05,-0.00039,0.00094,0.00123,0.00058,7e-05,6,21
32010,-1e-05,0.00023,-3e-05,-0.00039,0.00094,0.00123,0.00058,7e-05,6,21
32011,-1e-05,0.00023,-3e-05,-0.00039,0.00094,0.00123,0.00058,7e-05,6,21
32012,-1e-05,0.00023,-3e-05,-0.00039,0.00094,0.00123,0.00058,7e-05,6,21
32013,-1e-05,0.00023,-3e-05,-0.00039,0.00094,0.00123,0.00058,7e-05,6,21
32014,-1e-05,0.00023,-3e-05,-0.00039,0.00094,0.00123,0.00058,7e-05,6,21
32015,-1e-05,0.00023,-3e-05,-0.00039,0.00094,0.00123,0.00058,7e-05,6,21
32016,-1e-05,0.00023,-3e-05,-0.00039,0.00094,0.00123,0.00058,7e-05,6,21
32017,-1e-05,0.00023,-3e-05,-0.00039,0.00094,0.00123,0.00058,7e-05,6,21
32018,-0.0003,9e-05,0.00011,7e-05,-0.00088,-0.00014,3e-05,-0.00011,6,21
32019,0.00018,0.00018,-9e-05,0.00031,0.00043,-0.00026,-0.00065,-0.00015,6,21
32020,0.00034,4e-05,0.00012,-0.00013,0.00011,-0.00024,0.0005,-0.00029,6,21
32021,0.00034,4e-05,0.00012,-0.00013,0.00011,-0.00024,0.0005,-0.00029,6,21
32022,0.00034,4e-05,0.00012,-0.00013,0.00011,-0.00024,0.0005,-0.00029,6,21
32023,0.00034,4e-05,0.00012,-0.00013,0.00011,-0.00024,0.0005,-0.00029,6,21
32024,0.00034,4e-05,0.00012,-0.00013,0.00011,-0.00024,0.0005,-0.00029,6,21
32025,0.00034,4e-05,0.00012,-0.00013,0.00011,-0.00024,0.0005,-0.00029,6,21
32026,0.00034,4e-05,0.00012,-0.00013,0.00011,-0.00024,0.0005,-0.00029,6,21
32027,0.00034,4e-05,0.00012,-0.00013,0.00011,-0.00024,0.0005,-0.00029,6,21
32028,0.00034,4e-05,0.00012,-0.00013,0.00011,-0.00024,0.0005,-0.00029,6,21
32029,0.00034,4e-05,0.00012,-0.00013,0.00011,-0.00024,0.0005,-0.00029,6,21
32030,0.00034,4e-05,0.00012,-0.00013,0.00011,-0.00024,0.0005,-0.00029,6,21
32031,0.00034,4e-05,0.00012,-0.00013,0.00011,-0.00024,0.0005,-0.00029,6,21
32032,0.00034,4e-05,0.00012,-0.00013,0.00011,-0.00024,0.0005,-0.00029,6,21
32033,0.00034,4e-05,0.00012,-0.00013,0.00011,-0.00024,0.0005,-0.00029,6,21
32034,0.00034,4e-05,0.00012,-0.00013,0.00011,-0.00024,0.0005,-0.00029,6,21
32035,0.00034,4e-05,0.00012,-0.00013,0.00011,-0.00024,0.0005,-0.00029,6,21
32037,0.00034,4e-05,0.00012,-0.00013,0.00011,-0.00024,0.0005,-0.00029,6,21
32039,0.00034,4e-05,0.00012,-0.00013,0.00011,-0.00024,0.0005,-0.00029,6,21
32040,0.00034,4e-05,0.00012,-0.00013,0.00011,-0.00024,0.0005,-0.00029,6,21
32041,8e-05,1e-05,-4e-05,0.00011,-0.00021,-0.00014,3e-05,-9e-05,6,21
32042,0.00018,-0.00011,-1e-05,-0.00011,-0.00045,-0.0009,-0.00043,9e-05,6,21
32043,0.00018,-0.00011,-1e-05,-0.00011,-0.00045,-0.0009,-0.00043,9e-05,6,21
32044,0.00018,-0.00011,-1e-05,-0.00011,-0.00045,-0.0009,-0.00043,9e-05,6,21
32045,0.00018,-0.00011,-1e-05,-0.00011,-0.00045,-0.0009,-0.00043,9e-05,6,21
32046,0.00018,-0.00011,-1e-05,-0.00011,-0.00045,-0.0009,-0.00043,9e-05,6,21
32047,0.00018,-0.00011,-1e-05,-0.00011,-0.00045,-0.0009,-0.00043,9e-05,6,21
32048,0.00018,-0.00011,-1e-05,-0.00011,-0.00045,-0.0009,-0.00043,9e-05,6,21
32049,0.00018,-0.00011,-1e-05,-0.00011,-0.00045,-0.0009,-0.00043,9e-05,6,21
32050,0.00018,-0.00011,-1e-05,-0.00011,-0.00045,-0.0009,-0.00043,9e-05,6,21
32051,0.00018,-0.00011,-1e-05,-0.00011,-0.00045,-0.0009,-0.00043,9e-05,6,21
32052,0.00018,-0.00011,-1e-05,-0.00011,-0.00045,-0.0009,-0.00043,9e-05,6,21
32053,0.00018,-0.00011,-1e-05,-0.00011,-0.00045,-0.0009,-0.00043,9e-05,6,21
32054,1e-05,-0.00018,-0.00017,-0.0005,0.00041,0.00011,-8e-05,-4e-05,6,21
32055,1e-05,-0.00018,-0.00017,-0.0005,0.00041,0.00011,-8e-05,-4e-05,6,21
32056,1e-05,-0.00018,-0.00017,-0.0005,0.00041,0.00011,-8e-05,-4e-05,6,21
32057,1e-05,-0.00018,-0.00017,-0.0005,0.00041,0.00011,-8e-05,-4e-05,6,21
32058,1e-05,-0.00018,-0.00017,-0.0005,0.00041,0.00011,-8e-05,-4e-05,6,21
32059,1e-05,-0.00018,-0.00017,-0.0005,0.00041,0.00011,-8e-05,-4e-05,6,21
32060,1e-05,-0.00018,-0.00017,-0.0005,0.00041,0.00011,-8e-05,-4e-05,6,21
32061,1e-05,-0.00018,-0.00017,-0.0005,0.00041,0.00011,-8e-05,-4e-05,6,21
32062,1e-05,-0.00018,-0.00017,-0.0005,0.00041,0.00011,-8e-05,-4e-05,6,21
32063,-0.00095,-7e-05,-4e-05,-0.00023,-0.0004,0.00047,-0.00052,7e-05,6,21
32064,-0.00095,-7e-05,-4e-05,-0.00023,-0.0004,0.00047,-0.00052,7e-05,6,21
32065,-0.00095,-7e-05,-4e-05,-0.00023,-0.0004,0.00047,-0.00052,7e-05,6,21
32066,-0.00095,-7e-05,-4e-05,-0.00023,-0.0004,0.00047,-0.00052,7e-05,6,21
32067,-0.00095,-7e-05,-4e-05,-0.00023,-0.0004,0.00047,-0.00052,7e-05,6,21
32068,-0.00095,-7e-05,-4e-05,-0.00023,-0.0004,0.00047,-0.00052,7e-05,6,21
32069,-0.00095,-7e-05,-4e-05,-0.00023,-0.0004,0.00047,-0.00052,7e-05,6,21
32070,-0.00095,-7e-05,-4e-05,-0.00023,-0.0004,0.00047,-0.00052,7e-05,6,21
32071,-0.00095,-7e-05,-4e-05,-0.00023,-0.0004,0.00047,-0.00052,7e-05,6,21
32072,-0.00095,-7e-05,-4e-05,-0.00023,-0.0004,0.00047,-0.00052,7e-05,6,21
32073,-0.00095,-7e-05,-4e-05,-0.00023,-0.0004,0.00047,-0.00052,7e-05,6,21
32074,-0.00095,-7e-05,-4e-05,-0.00023,-0.0004,0.00047,-0.00052,7e-05,6,21
32075,-0.00095,-7e-05,-4e-05,-0.00023,-0.0004,0.00047,-0.00052,7e-05,6,21
32076,-0.00095,-7e-05,-4e-05,-0.00023,-0.0004,0.00047,-0.00052,7e-05,6,21
32077,-0.00095,-7e-05,-4e-05,-0.00023,-0.0004,0.00047,-0.00052,7e-05,6,21
32078,-0.0001,3e-05,-0.00013,-0.00023,0.00038,-0.00021,-4e-05,9e-05,6,21
32079,-0.0002,3e-05,0.00013,0.00053,0.00013,0.00045,0.00059,-0.00038,6,21
32080,-0.00018,-0.00015,-0.00013,-0.00039,-0.00014,-0.00067,-8e-05,0.00017,6,21
32081,-0.00018,-0.00015,-0.00013,-0.00039,-0.00014,-0.00067,-8e-05,0.00017,6,21
32082,-0.00018,-0.00015,-0.00013,-0.00039,-0.00014,-0.00067,-8e-05,0.00017,6,21
32083,-0.00018,-0.00015,-0.00013,-0.00039,-0.00014,-0.00067,-8e-05,0.00017,6,21
32084,-0.00018,-0.00015,-0.00013,-0.00039,-0.00014,-0.00067,-8e-05,0.00017,6,21
32085,-0.00018,-0.00015,-0.00013,-0.00039,-0.00014,-0.00067,-8e-05,0.00017,6,21
32087,-0.00018,-0.00015,-0.00013,-0.00039,-0.00014,-0.00067,-8e-05,0.00017,6,21
32089,-0.00018,-0.00015,-0.00013,-0.00039,-0.00014,-0.00067,-8e-05,0.00017,6,21
32090,-0.00018,-0.00015,-0.00013,-0.00039,-0.00014,-0.00067,-8e-05,0.00017,6,21
32091,-0.00018,-0.00015,-0.00013,-0.00039,-0.00014,-0.00067,-8e-05,0.00017,6,21
32092,-0.00018,-0.00015,-0.00013,-0.00039,-0.00014,-0.00067,-8e-05,0.00017,6,21
32093,-0.00018,-0.00015,-0.00013,-0.00039,-0.00014,-0.00067,-8e-05,0.00017,6,21
32094,-0.00018,-0.00015,-0.00013,-0.00039,-0.00014,-0.00067,-8e-05,0.00017,6,21
32095,-0.00018,-0.00015,-0.00013,-0.00039,-0.00014,-0.00067,-8e-05,0.00017,6,21
32096,-0.00018,-0.00015,-0.00013,-0.00039,-0.00014,-0.00067,-8e-05,0.00017,6,21
32097,-0.00018,-0.00015,-0.00013,-0.00039,-0.00014,-0.00067,-8e-05,0.00017,6,21
32098,-0.00018,-0.00015,-0.00013,-0.00039,-0.00014,-0.00067,-8e-05,0.00017,6,21
32099,-0.00018,-0.00015,-0.00013,-0.00039,-0.00014,-0.00067,-8e-05,0.00017,6,21
32100,-0.00036,0.00021,-2e-05,-2e-05,4e-05,0.00034,0.0001,-0.00023,6,21
32101,0.00022,-0.00018,0.00019,0.00039,0.00056,0.00084,-1e-05,6e-05,6,21
32102,-6e-05,-8e-05,1e-05,-0.00032,0.00024,0.00066,-0.00024,1e-05,6,21
32103,-6e-05,-8e-05,1e-05,-0.00032,0.00024,0.00066,-0.00024,1e-05,6,21
32104,-6e-05,-8e-05,1e-05,-0.00032,0.00024,0.00066,-0.00024,1e-05,6,21
32105,-6e-05,-8e-05,1e-05,-0.00032,0.00024,0.00066,-0.00024,1e-05,6,21
32106,-6e-05,-8e-05,1e-05,-0.00032,0.00024,0.00066,-0.00024,1e-05,6,21
32107,-6e-05,-8e-05,1e-05,-0.00032,0.00024,0.00066,-0.00024,1e-05,6,21
32108,-6e-05,-8e-05,1e-05,-0.00032,0.00024,0.00066,-0.00024,1e-05,6,21
32109,-6e-05,-8e-05,1e-05,-0.00032,0.00024,0.00066,-0.00024,1e-05,6,21
32110,-6e-05,-8e-05,1e-05,-0.00032,0.00024,0.00066,-0.00024,1e-05,6,21
32111,-6e-05,-8e-05,1e-05,-0.00032,0.00024,0.00066,-0.00024,1e-05,6,21
32112,-6e-05,-8e-05,1e-05,-0.00032,0.00024,0.00066,-0.00024,1e-05,6,21
32113,-6e-05,-8e-05,1e-05,-0.00032,0.00024,0.00066,-0.00024,1e-05,6,21
32114,-6e-05,-8e-05,1e-05,-0.00032,0.00024,0.00066,-0.00024,1e-05,6,21
32115,-6e-05,-8e-05,1e-05,-0.00032,0.00024,0.00066,-0.00024,1e-05,6,21
32116,-6e-05,-8e-05,1e-05,-0.00032,0.00024,0.00066,-0.00024,1e-05,6,21
32117,-6e-05,-8e-05,1e-05,-0.00032,0.00024,0.00066,-0.00024,1e-05,6,21
32118,-6e-05,-8e-05,1e-05,-0.00032,0.00024,0.00066,-0.00024,1e-05,6,21
32119,-6e-05,-8e-05,1e-05,-0.00032,0.00024,0.00066,-0.00024,1e-05,6,21
32120,-6e-05,-8e-05,1e-05,-0.00032,0.00024,0.00066,-0.00024,1e-05,6,21
32121,-6e-05,-8e-05,1e-05,-0.00032,0.00024,0.00066,-0.00024,1e-05,6,21
32122,-6e-05,-8e-05,1e-05,-0.00032,0.00024,0.00066,-0.00024,1e-05,6,21
32123,9e-05,0.00011,-0.0002,-0.00018,-0.00016,-0.00048,0.00027,8e-05,6,21
32124,9e-05,0.00011,-0.0002,-0.00018,-0.00016,-0.00048,0.00027,8e-05,6,21
32125,-0.00013,-9e-05,7e-05,2e-05,-0.00028,0.00062,4e-05,3e-05,6,21
32126,-0.00013,-9e-05,7e-05,2e-05,-0.00028,0.00062,4e-05,3e-05,6,21
32127,-0.00013,-9e-05,7e-05,2e-05,-0.00028,0.00062,4e-05,3e-05,6,21
32128,-0.00013,-9e-05,7e-05,2e-05,-0.00028,0.00062,4e-05,3e-05,6,21
32129,-0.00013,-9e-05,7e-05,2e-05,-0.00028,0.00062,4e-05,3e-05,6,21
32130,-0.00013,-9e-05,7e-05,2e-05,-0.00028,0.00062,4e-05,3e-05,6,21
32131,-0.00013,-9e-05,7e-05,2e-05,-0.00028,0.00062,4e-05,3e-05,6,21
32132,-0.00013,-9e-05,7e-05,2e-05,-0.00028,0.00062,4e-05,3e-05,6,21
32133,-0.00013,-9e-05,7e-05,2e-05,-0.00028,0.00062,4e-05,3e-05,6,21
32134,-0.00013,-9e-05,7e-05,2e-05,-0.00028,0.00062,4e-05,3e-05,6,21
32135,-0.00013,-9e-05,7e-05,2e-05,-0.00028,0.00062,4e-05,3e-05,6,21
32137,-0.00013,-9e-05,7e-05,2e-05,-0.00028,0.00062,4e-05,3e-05,6,21
32139,-0.00092,6e-05,-3e-05,0.00026,-0.00083,-0.00039,0.0001,-0.00017,6,21
32141,-0.00092,6e-05,-3e-05,0.00026,-0.00083,-0.00039,0.0001,-0.00017,6,21
32142,-0.00092,6e-05,-3e-05,0.00026,-0.00083,-0.00039,0.0001,-0.00017,6,21
32143,-0.00092,6e-05,-3e-05,0.00026,-0.00083,-0.00039,0.0001,-0.00017,6,21
32144,-0.00092,6e-05,-3e-05,0.00026,-0.00083,-0.00039,0.0001,-0.00017,6,21
32145,-0.00092,6e-05,-3e-05,0.00026,-0.00083,-0.00039,0.0001,-0.00017,6,21
32146,-0.00092,6e-05,-3e-05,0.00026,-0.00083,-0.00039,0.0001,-0.00017,6,21
32147,-0.00092,6e-05,-3e-05,0.00026,-0.00083,-0.00039,0.0001,-0.00017,6,21
32148,-0.00092,6e-05,-3e-05,0.00026,-0.00083,-0.00039,0.0001,-0.00017,6,21
32149,-0.00092,6e-05,-3e-05,0.00026,-0.00083,-0.00039,0.0001,-0.00017,6,21
32150,-0.00092,6e-05,-3e-05,0.00026,-0.00083,-0.00039,0.0001,-0.00017,6,21
32151,-0.00092,6e-05,-3e-05,0.00026,-0.00083,-0.00039,0.0001,-0.00017,6,21
32152,-0.00092,6e-05,-3e-05,0.00026,-0.00083,-0.00039,0.0001,-0.00017,6,21
32153,-0.00092,6e-05,-3e-05,0.00026,-0.00083,-0.00039,0.0001,-0.00017,6,21
32154,-0.00092,6e-05,-3e-05,0.00026,-0.00083,-0.00039,0.0001,-0.00017,6,21
32155,-0.00092,6e-05,-3e-05,0.00026,-0.00083,-0.00039,0.0001,-0.00017,6,21
32156,-0.00092,6e-05,-3e-05,0.00026,-0.00083,-0.00039,0.0001,-0.00017,6,21
32157,-0.00092,6e-05,-3e-05,0.00026,-0.00083,-0.00039,0.0001,-0.00017,6,21
32158,-0.00092,6e-05,-3e-05,0.00026,-0.00083,-0.00039,0.0001,-0.00017,6,21
32159,-0.00092,6e-05,-3e-05,0.00026,-0.00083,-0.00039,0.0001,-0.00017,6,21
32160,0.00054,-3e-05,1e-05,0.00044,0.00025,-0.00055,-3e-05,-0.00016,6,21
32161,0.00054,-3e-05,1e-05,0.00044,0.00025,-0.00055,-3e-05,-0.00016,6,21
32162,0.00054,-3e-05,1e-05,0.00044,0.00025,-0.00055,-3e-05,-0.00016,6,21
32163,0.00054,-3e-05,1e-05,0.00044,0.00025,-0.00055,-3e-05,-0.00016,6,21
32164,0.00054,-3e-05,1e-05,0.00044,0.00025,-0.00055,-3e-05,-0.00016,6,21
32165,0.00054,-3e-05,1e-05,0.00044,0.00025,-0.00055,-3e-05,-0.00016,6,21
32166,-0.00057,2e-05,-1e-05,-0.0004,-0.00021,-0.00015,4e-05,-6e-05,6,21
32167,-5e-05,-4e-05,-2e-05,-0.00011,1e-05,-0.00045,0.00019,-3e-05,6,21
32168,-5e-05,-4e-05,-2e-05,-0.00011,1e-05,-0.00045,0.00019,-3e-05,6,21
32169,-5e-05,-4e-05,-2e-05,-0.00011,1e-05,-0.00045,0.00019,-3e-05,6,21
32170,-5e-05,-4e-05,-2e-05,-0.00011,1e-05,-0.00045,0.00019,-3e-05,6,21
32171,-5e-05,-4e-05,-2e-05,-0.00011,1e-05,-0.00045,0.00019,-3e-05,6,21
32172,-5e-05,-4e-05,-2e-05,-0.00011,1e-05,-0.00045,0.00019,-3e-05,6,21
32173,-5e-05,-4e-05,-2e-05,-0.00011,1e-05,-0.00045,0.00019,-3e-05,6,21
32174,-5e-05,-4e-05,-2e-05,-0.00011,1e-05,-0.00045,0.00019,-3e-05,6,21
32175,-5e-05,-4e-05,-2e-05,-0.00011,1e-05,-0.00045,0.00019,-3e-05,6,21
32176,-5e-05,-4e-05,-2e-05,-0.00011,1e-05,-0.00045,0.00019,-3e-05,6,21
32177,-5e-05,-4e-05,-2e-05,-0.00011,1e-05,-0.00045,0.00019,-3e-05,6,21
32178,-5e-05,-4e-05,-2e-05,-0.00011,1e-05,-0.00045,0.00019,-3e-05,6,21
32179,-5e-05,-4e-05,-2e-05,-0.00011,1e-05,-0.00045,0.00019,-3e-05,6,21
32180,-5e-05,-4e-05,-2e-05,-0.00011,1e-05,-0.00045,0.00019,-3e-05,6,21
32181,-5e-05,-4e-05,-2e-05,-0.00011,1e-05,-0.00045,0.00019,-3e-05,6,21
32182,-5e-05,-4e-05,-2e-05,-0.00011,1e-05,-0.00045,0.00019,-3e-05,6,21
32183,-0.00074,-5e-05,-7e-05,-0.00011,-0.00104,-0.00028,-8e-05,-0.00043,6,21
32184,-0.0003,5e-05,0.00021,0.00031,0.00105,0.00042,0.00023,-6e-05,6,21
32185,9e-05,-2e-05,-0.00015,0.00018,0.00011,0.0004,-0.00012,-0.00015,6,21
32187,9e-05,-2e-05,-0.00015,0.00018,0.00011,0.0004,-0.00012,-0.00015,6,21
32189,9e-05,-2e-05,-0.00015,0.00018,0.00011,0.0004,-0.00012,-0.00015,6,21
32190,9e-05,-2e-05,-0.00015,0.00018,0.00011,0.0004,-0.00012,-0.00015,6,21
32191,9e-05,-2e-05,-0.00015,0.00018,0.00011,0.0004,-0.00012,-0.00015,6,21
32192,9e-05,-2e-05,-0.00015,0.00018,0.00011,0.0004,-0.00012,-0.00015,6,21
32193,9e-05,-2e-05,-0.00015,0.00018,0.00011,0.0004,-0.00012,-0.00015,6,21
32194,9e-05,-2e-05,-0.00015,0.00018,0.00011,0.0004,-0.00012,-0.00015,6,21
32195,9e-05,-2e-05,-0.00015,0.00018,0.00011,0.0004,-0.00012,-0.00015,6,21
32196,9e-05,-2e-05,-0.00015,0.00018,0.00011,0.0004,-0.00012,-0.00015,6,21
32197,9e-05,-2e-05,-0.00015,0.00018,0.00011,0.0004,-0.00012,-0.00015,6,21
32198,0.00064,-1e-05,-1e-05,-0.00017,0.00083,8e-05,-0.00032,0.00022,6,21
32199,0.00054,0.00012,0.0001,0.00031,0.00078,-0.00086,-0.00014,-0.00025,6,21
32200,0.00035,-4e-05,1e-05,-0.0002,-0.00059,-0.00031,0.00014,-0.00034,6,21
32201,0.00035,-4e-05,1e-05,-0.0002,-0.00059,-0.00031,0.00014,-0.00034,6,21
32202,0.00035,-4e-05,1e-05,-0.0002,-0.00059,-0.00031,0.00014,-0.00034,6,21
32203,0.00035,-4e-05,1e-05,-0.0002,-0.00059,-0.00031,0.00014,-0.00034,6,21
32204,0.00035,-4e-05,1e-05,-0.0002,-0.00059,-0.00031,0.00014,-0.00034,6,21
32205,0.00035,-4e-05,1e-05,-0.0002,-0.00059,-0.00031,0.00014,-0.00034,6,21
32206,0.00035,-4e-05,1e-05,-0.0002,-0.00059,-0.00031,0.00014,-0.00034,6,21
32207,0.00035,-4e-05,1e-05,-0.0002,-0.00059,-0.00031,0.00014,-0.00034,6,21
32208,0.00035,-4e-05,1e-05,-0.0002,-0.00059,-0.00031,0.00014,-0.00034,6,21
32209,0.00035,-4e-05,1e-05,-0.0002,-0.00059,-0.00031,0.00014,-0.00034,6,21
32210,0.00035,-4e-05,1e-05,-0.0002,-0.00059,-0.00031,0.00014,-0.00034,6,21
32211,0.00035,-4e-05,1e-05,-0.0002,-0.00059,-0.00031,0.00014,-0.00034,6,21
32212,0.00035,-4e-05,1e-05,-0.0002,-0.00059,-0.00031,0.00014,-0.00034,6,21
32213,0.00035,-4e-05,1e-05,-0.0002,-0.00059,-0.00031,0.00014,-0.00034,6,21
32214,0.00035,-4e-05,1e-05,-0.0002,-0.00059,-0.00031,0.00014,-0.00034,6,21
32215,0.00035,-4e-05,1e-05,-0.0002,-0.00059,-0.00031,0.00014,-0.00034,6,21
32216,0.00035,-4e-05,1e-05,-0.0002,-0.00059,-0.00031,0.00014,-0.00034,6,21
32217,0.00035,-4e-05,1e-05,-0.0002,-0.00059,-0.00031,0.00014,-0.00034,6,21
32218,0.00035,-4e-05,1e-05,-0.0002,-0.00059,-0.00031,0.00014,-0.00034,6,21
32219,0.00035,-4e-05,1e-05,-0.0002,-0.00059,-0.00031,0.00014,-0.00034,6,21
32220,0.00018,0.0001,-3e-05,0.0001,0.0003,0.00048,-7e-05,2e-05,6,21
32221,-0.00041,-0.00037,-3e-05,-0.00021,-0.00032,-0.0005,8e-05,1e-05,6,21
32222,0.00011,7e-05,0.0001,0.0002,0.0003,-6e-05,-0.00018,0.00028,6,21
32223,0.00011,7e-05,0.0001,0.0002,0.0003,-6e-05,-0.00018,0.00028,6,21
32224,0.00011,7e-05,0.0001,0.0002,0.0003,-6e-05,-0.00018,0.00028,6,21
32225,0.00011,7e-05,0.0001,0.0002,0.0003,-6e-05,-0.00018,0.00028,6,21
32226,0.00011,7e-05,0.0001,0.0002,0.0003,-6e-05,-0.00018,0.00028,6,21
32227,0.00011,7e-05,0.0001,0.0002,0.0003,-6e-05,-0.00018,0.00028,6,21
32228,0.00011,7e-05,0.0001,0.0002,0.0003,-6e-05,-0.00018,0.00028,6,21
32229,0.00011,7e-05,0.0001,0.0002,0.0003,-6e-05,-0.00018,0.00028,6,21
32230,0.00011,7e-05,0.0001,0.0002,0.0003,-6e-05,-0.00018,0.00028,6,21
32231,0.00011,7e-05,0.0001,0.0002,0.0003,-6e-05,-0.00018,0.00028,6,21
32232,0.00011,7e-05,0.0001,0.0002,0.0003,-6e-05,-0.00018,0.00028,6,21
32233,0.00011,7e-05,0.0001,0.0002,0.0003,-6e-05,-0.00018,0.00028,6,21
32234,0.00011,7e-05,0.0001,0.0002,0.0003,-6e-05,-0.00018,0.00028,6,21
32235,0.00011,7e-05,0.0001,0.0002,0.0003,-6e-05,-0.00018,0.00028,6,21
32237,0.00011,7e-05,0.0001,0.0002,0.0003,-6e-05,-0.00018,0.00028,6,21
32239,0.00011,7e-05,0.0001,0.0002,0.0003,-6e-05,-0.00018,0.00028,6,21
32240,0.00011,7e-05,0.0001,0.0002,0.0003,-6e-05,-0.00018,0.00028,6,21
32241,0.00011,7e-05,0.0001,0.0002,0.0003,-6e-05,-0.00018,0.00028,6,21
32242,0.00011,7e-05,0.0001,0.0002,0.0003,-6e-05,-0.00018,0.00028,6,21
32243,0.00018,0.00031,-2e-05,-0.00042,-0.00037,8e-05,-0.00029,9e-05,6,21
32244,-0.00018,-0.0002,5e-05,0.00036,0.00031,0.00014,3e-05,7e-05,6,21
32245,-0.00012,-0.0001,-0.00013,-0.00011,-0.00027,-0.00019,-3e-05,-0.00017,6,21
32246,-0.00012,-0.0001,-0.00013,-0.00011,-0.00027,-0.00019,-3e-05,-0.00017,6,21
32247,-0.00012,-0.0001,-0.00013,-0.00011,-0.00027,-0.00019,-3e-05,-0.00017,6,21
32248,-0.00012,-0.0001,-0.00013,-0.00011,-0.00027,-0.00019,-3e-05,-0.00017,6,21
32249,-0.00012,-0.0001,-0.00013,-0.00011,-0.00027,-0.00019,-3e-05,-0.00017,6,21
32250,-0.00012,-0.0001,-0.00013,-0.00011,-0.00027,-0.00019,-3e-05,-0.00017,6,21
32251,-0.00012,-0.0001,-0.00013,-0.00011,-0.00027,-0.00019,-3e-05,-0.00017,6,21
32252,-0.00012,-0.0001,-0.00013,-0.00011,-0.00027,-0.00019,-3e-05,-0.00017,6,21
32253,-0.00012,-0.0001,-0.00013,-0.00011,-0.00027,-0.00019,-3e-05,-0.00017,6,21
32254,-0.00012,-0.0001,-0.00013,-0.00011,-0.00027,-0.00019,-3e-05,-0.00017,6,21
32255,-0.00012,-0.0001,-0.00013,-0.00011,-0.00027,-0.00019,-3e-05,-0.00017,6,21
32256,-0.00012,-0.0001,-0.00013,-0.00011,-0.00027,-0.00019,-3e-05,-0.00017,6,21
32257,-0.00105,-4e-05,-3e-05,0.0001,0.00082,0.0006,-5e-05,0.00032,6,21
32258,-0.00105,-4e-05,-3e-05,0.0001,0.00082,0.0006,-5e-05,0.00032,6,21
32259,-0.00105,-4e-05,-3e-05,0.0001,0.00082,0.0006,-5e-05,0.00032,6,21
32260,-0.00105,-4e-05,-3e-05,0.0001,0.00082,0.0006,-5e-05,0.00032,6,21
32261,-0.00105,-4e-05,-3e-05,0.0001,0.00082,0.0006,-5e-05,0.00032,6,21
32262,-0.00105,-4e-05,-3e-05,0.0001,0.00082,0.0006,-5e-05,0.00032,6,21
32263,-0.00105,-4e-05,-3e-05,0.0001,0.00082,0.0006,-5e-05,0.00032,6,21
32264,0.00036,5e-05,8e-05,0.00026,0.00054,0.00064,0.00012,0.00028,6,21
32265,0.00036,5e-05,8e-05,0.00026,0.00054,0.00064,0.00012,0.00028,6,21
32266,0.00036,5e-05,8e-05,0.00026,0.00054,0.00064,0.00012,0.00028,6,21
32267,0.00036,5e-05,8e-05,0.00026,0.00054,0.00064,0.00012,0.00028,6,21
32268,0.00036,5e-05,8e-05,0.00026,0.00054,0.00064,0.00012,0.00028,6,21
32269,0.00036,5e-05,8e-05,0.00026,0.00054,0.00064,0.00012,0.00028,6,21
32270,0.00036,5e-05,8e-05,0.00026,0.00054,0.00064,0.00012,0.00028,6,21
32271,0.00036,5e-05,8e-05,0.00026,0.00054,0.00064,0.00012,0.00028,6,21
32272,0.00036,5e-05,8e-05,0.00026,0.00054,0.00064,0.00012,0.00028,6,21
32273,0.00036,5e-05,8e-05,0.00026,0.00054,0.00064,0.00012,0.00028,6,21
32274,0.00036,5e-05,8e-05,0.00026,0.00054,0.00064,0.00012,0.00028,6,21
32275,0.00036,5e-05,8e-05,0.00026,0.00054,0.00064,0.00012,0.00028,6,21
32276,0.00036,5e-05,8e-05,0.00026,0.00054,0.00064,0.00012,0.00028,6,21
32277,0.00036,5e-05,8e-05,0.00026,0.00054,0.00064,0.00012,0.00028,6,21
32278,0.00036,5e-05,8e-05,0.00026,0.00054,0.00064,0.00012,0.00028,6,21
32279,0.00036,5e-05,8e-05,0.00026,0.00054,0.00064,0.00012,0.00028,6,21
32280,-0.00093,-0.00016,-6e-05,-7e-05,2e-05,-0.00045,-0.00019,-0.0003,6,21
32281,0.00022,-1e-05,3e-05,0.00013,6e-05,0.0004,0.00024,4e-05,6,21
32282,8e-05,-6e-05,-5e-05,0.0003,-0.00055,-0.00053,0.00013,-0.00012,6,21
32283,8e-05,-6e-05,-5e-05,0.0003,-0.00055,-0.00053,0.00013,-0.00012,6,21
32284,8e-05,-6e-05,-5e-05,0.0003,-0.00055,-0.00053,0.00013,-0.00012,6,21
32285,8e-05,-6e-05,-5e-05,0.0003,-0.00055,-0.00053,0.00013,-0.00012,6,21
32287,8e-05,-6e-05,-5e-05,0.0003,-0.00055,-0.00053,0.00013,-0.00012,6,21
32289,8e-05,-6e-05,-5e-05,0.0003,-0.00055,-0.00053,0.00013,-0.00012,6,21
32290,8e-05,-6e-05,-5e-05,0.0003,-0.00055,-0.00053,0.00013,-0.00012,6,21
32291,8e-05,-6e-05,-5e-05,0.0003,-0.00055,-0.00053,0.00013,-0.00012,6,21
32292,8e-05,-6e-05,-5e-05,0.0003,-0.00055,-0.00053,0.00013,-0.00012,6,21
32293,8e-05,-6e-05,-5e-05,0.0003,-0.00055,-0.00053,0.00013,-0.00012,6,21
32294,8e-05,-6e-05,-5e-05,0.0003,-0.00055,-0.00053,0.00013,-0.00012,6,21
32295,8e-05,-6e-05,-5e-05,0.0003,-0.00055,-0.00053,0.00013,-0.00012,6,21
32296,8e-05,-6e-05,-5e-05,0.0003,-0.00055,-0.00053,0.00013,-0.00012,6,21
32297,8e-05,-6e-05,-5e-05,0.0003,-0.00055,-0.00053,0.00013,-0.00012,6,21
32298,8e-05,-6e-05,-5e-05,0.0003,-0.00055,-0.00053,0.00013,-0.00012,6,21
32299,8e-05,-6e-05,-5e-05,0.0003,-0.00055,-0.00053,0.00013,-0.00012,6,21
32300,8e-05,-6e-05,-5e-05,0.0003,-0.00055,-0.00053,0.00013,-0.00012,6,21
32301,8e-05,-6e-05,-5e-05,0.0003,-0.00055,-0.00053,0.00013,-0.00012,6,21
32302,8e-05,-6e-05,-5e-05,0.0003,-0.00055,-0.00053,0.00013,-0.00012,6,21
32303,-0.0001,-5e-05,-7e-05,-7e-05,-0.00053,-0.00044,2e-05,0.00015,6,21
32304,-0.00015,-5e-05,-4e-05,-0.00014,-1e-05,-0.00095,-0.00011,0.0003,6,21
32305,4e-05,8e-05,7e-05,-4e-05,-0.00021,0.00025,4e-05,-0.00039,6,21
32306,4e-05,8e-05,7e-05,-4e-05,-0.00021,0.00025,4e-05,-0.00039,6,21
32307,4e-05,8e-05,7e-05,-4e-05,-0.00021,0.00025,4e-05,-0.00039,6,21
32308,4e-05,8e-05,7e-05,-4e-05,-0.00021,0.00025,4e-05,-0.00039,6,21
32309,4e-05,8e-05,7e-05,-4e-05,-0.00021,0.00025,4e-05,-0.00039,6,21
32310,4e-05,8e-05,7e-05,-4e-05,-0.00021,0.00025,4e-05,-0.00039,6,21
32311,4e-05,8e-05,7e-05,-4e-05,-0.00021,0.00025,4e-05,-0.00039,6,21
32312,4e-05,8e-05,7e-05,-4e-05,-0.00021,0.00025,4e-05,-0.00039,6,21
32313,4e-05,8e-05,7e-05,-4e-05,-0.00021,0.00025,4e-05,-0.00039,6,21
32314,4e-05,8e-05,7e-05,-4e-05,-0.00021,0.00025,4e-05,-0.00039,6,21
32315,4e-05,8e-05,7e-05,-4e-05,-0.00021,0.00025,4e-05,-0.00039,6,21
32316,4e-05,8e-05,7e-05,-4e-05,-0.00021,0.00025,4e-05,-0.00039,6,21
32317,0.00013,0.00023,9e-05,0.00027,-0.00018,0.00023,-1e-05,4e-05,6,21
32318,0.00013,0.00023,9e-05,0.00027,-0.00018,0.00023,-1e-05,4e-05,6,21
32319,0.00013,0.00023,9e-05,0.00027,-0.00018,0.00023,-1e-05,4e-05,6,21
32320,0.00013,0.00023,9e-05,0.00027,-0.00018,0.00023,-1e-05,4e-05,6,21
32321,0.00013,0.00023,9e-05,0.00027,-0.00018,0.00023,-1e-05,4e-05,6,21
32322,0.00013,0.00023,9e-05,0.00027,-0.00018,0.00023,-1e-05,4e-05,6,21
32323,0.00013,0.00023,9e-05,0.00027,-0.00018,0.00023,-1e-05,4e-05,6,21
32324,-0.00099,3e-05,-0.00012,0.00012,0.00018,9e-05,0.00017,-0.00019,6,21
32325,-0.00099,3e-05,-0.00012,0.00012,0.00018,9e-05,0.00017,-0.00019,6,21
32326,-0.00099,3e-05,-0.00012,0.00012,0.00018,9e-05,0.00017,-0.00019,6,21
32327,-0.00099,3e-05,-0.00012,0.00012,0.00018,9e-05,0.00017,-0.00019,6,21
32328,-0.00099,3e-05,-0.00012,0.00012,0.00018,9e-05,0.00017,-0.00019,6,21
32329,-0.00099,3e-05,-0.00012,0.00012,0.00018,9e-05,0.00017,-0.00019,6,21
32330,-0.00099,3e-05,-0.00012,0.00012,0.00018,9e-05,0.00017,-0.00019,6,21
32331,-0.00099,3e-05,-0.00012,0.00012,0.00018,9e-05,0.00017,-0.00019,6,21
32332,-0.00099,3e-05,-0.00012,0.00012,0.00018,9e-05,0.00017,-0.00019,6,21
32333,-0.00099,3e-05,-0.00012,0.00012,0.00018,9e-05,0.00017,-0.00019,6,21
32334,-0.00099,3e-05,-0.00012,0.00012,0.00018,9e-05,0.00017,-0.00019,6,21
32335,-0.00099,3e-05,-0.00012,0.00012,0.00018,9e-05,0.00017,-0.00019,6,21
32337,-0.00099,3e-05,-0.00012,0.00012,0.00018,9e-05,0.00017,-0.00019,6,21
32339,-0.00099,3e-05,-0.00012,0.00012,0.00018,9e-05,0.00017,-0.00019,6,21
32340,-0.00099,3e-05,-0.00012,0.00012,0.00018,9e-05,0.00017,-0.00019,6,21
32341,0.0003,1e-05,6e-05,0.00012,-0.00031,0.00059,0,1e-05,6,21
32342,0.00034,-2e-05,6e-05,-0.00035,0.00024,-3e-05,6e-05,-2e-05,6,21
32343,0.00034,-2e-05,6e-05,-0.00035,0.00024,-3e-05,6e-05,-2e-05,6,21
32344,0.00034,-2e-05,6e-05,-0.00035,0.00024,-3e-05,6e-05,-2e-05,6,21
32345,0.00034,-2e-05,6e-05,-0.00035,0.00024,-3e-05,6e-05,-2e-05,6,21
32346,0.00034,-2e-05,6e-05,-0.00035,0.00024,-3e-05,6e-05,-2e-05,6,21
32347,0.00034,-2e-05,6e-05,-0.00035,0.00024,-3e-05,6e-05,-2e-05,6,21
32348,0.00034,-2e-05,6e-05,-0.00035,0.00024,-3e-05,6e-05,-2e-05,6,21
32349,0.00034,-2e-05,6e-05,-0.00035,0.00024,-3e-05,6e-05,-2e-05,6,21
32350,0.00034,-2e-05,6e-05,-0.00035,0.00024,-3e-05,6e-05,-2e-05,6,21
32351,0.00034,-2e-05,6e-05,-0.00035,0.00024,-3e-05,6e-05,-2e-05,6,21
32352,0.00034,-2e-05,6e-05,-0.00035,0.00024,-3e-05,6e-05,-2e-05,6,21
32353,0.00034,-2e-05,6e-05,-0.00035,0.00024,-3e-05,6e-05,-2e-05,6,21
32354,0.00034,-2e-05,6e-05,-0.00035,0.00024,-3e-05,6e-05,-2e-05,6,21
32355,0.00034,-2e-05,6e-05,-0.00035,0.00024,-3e-05,6e-05,-2e-05,6,21
32356,0.00034,-2e-05,6e-05,-0.00035,0.00024,-3e-05,6e-05,-2e-05,6,21
32357,0.00034,-2e-05,6e-05,-0.00035,0.00024,-3e-05,6e-05,-2e-05,6,21
32358,0.00034,-2e-05,6e-05,-0.00035,0.00024,-3e-05,6e-05,-2e-05,6,21
32359,0.00034,-2e-05,6e-05,-0.00035,0.00024,-3e-05,6e-05,-2e-05,6,21
32360,0.00034,-2e-05,6e-05,-0.00035,0.00024,-3e-05,6e-05,-2e-05,6,21
32361,0.00034,-2e-05,6e-05,-0.00035,0.00024,-3e-05,6e-05,-2e-05,6,21
32362,0.00034,-2e-05,6e-05,-0.00035,0.00024,-3e-05,6e-05,-2e-05,6,21
32363,-0.00042,-0.00016,-0.00018,-0.0001,2e-05,-0.00052,-0.00027,-0.00021,6,21
32364,0.00021,3e-05,4e-05,0.00025,-0.00023,-0.00038,4e-05,0.00028,6,21
32365,0.00027,2e-05,3e-05,-0.00015,-4e-05,-0.00037,3e-05,-0.00016,6,21
32366,0.00027,2e-05,3e-05,-0.00015,-4e-05,-0.00037,3e-05,-0.00016,6,21
32367,0.00027,2e-05,3e-05,-0.00015,-4e-05,-0.00037,3e-05,-0.00016,6,21
32368,0.00027,2e-05,3e-05,-0.00015,-4e-05,-0.00037,3e-05,-0.00016,6,21
32369,0.00027,2e-05,3e-05,-0.00015,-4e-05,-0.00037,3e-05,-0.00016,6,21
32370,0.00027,2e-05,3e-05,-0.00015,-4e-05,-0.00037,3e-05,-0.00016,6,21
32371,0.00027,2e-05,3e-05,-0.00015,-4e-05,-0.00037,3e-05,-0.00016,6,21
32372,0.00027,2e-05,3e-05,-0.00015,-4e-05,-0.00037,3e-05,-0.00016,6,21
32373,0.00027,2e-05,3e-05,-0.00015,-4e-05,-0.00037,3e-05,-0.00016,6,21
32374,0.00027,2e-05,3e-05,-0.00015,-4e-05,-0.00037,3e-05,-0.00016,6,21
32375,0.00027,2e-05,3e-05,-0.00015,-4e-05,-0.00037,3e-05,-0.00016,6,21
32376,0.00027,2e-05,3e-05,-0.00015,-4e-05,-0.00037,3e-05,-0.00016,6,21
32377,0.0003,-0.0001,-3e-05,-0.0001,-0.00016,0.00051,5e-05,-7e-05,6,21
32378,0.0003,-0.0001,-3e-05,-0.0001,-0.00016,0.00051,5e-05,-7e-05,6,21
32379,0.0003,-0.0001,-3e-05,-0.0001,-0.00016,0.00051,5e-05,-7e-05,6,21
32380,0.0003,-0.0001,-3e-05,-0.0001,-0.00016,0.00051,5e-05,-7e-05,6,21
32381,0.0003,-0.0001,-3e-05,-0.0001,-0.00016,0.00051,5e-05,-7e-05,6,21
32382,0.0003,-0.0001,-3e-05,-0.0001,-0.00016,0.00051,5e-05,-7e-05,6,21
32383,0.0003,-0.0001,-3e-05,-0.0001,-0.00016,0.00051,5e-05,-7e-05,6,21
32384,-0.00044,8e-05,-2e-05,-0.00019,-3e-05,0.00019,0.00011,0.00024,6,21
32385,-0.00044,8e-05,-2e-05,-0.00019,-3e-05,0.00019,0.00011,0.00024,6,21
32387,-0.00044,8e-05,-2e-05,-0.00019,-3e-05,0.00019,0.00011,0.00024,6,21
32389,-0.00044,8e-05,-2e-05,-0.00019,-3e-05,0.00019,0.00011,0.00024,6,21
32390,-0.00044,8e-05,-2e-05,-0.00019,-3e-05,0.00019,0.00011,0.00024,6,21
32391,-0.00044,8e-05,-2e-05,-0.00019,-3e-05,0.00019,0.00011,0.00024,6,21
32392,-0.00044,8e-05,-2e-05,-0.00019,-3e-05,0.00019,0.00011,0.00024,6,21
32393,-0.00044,8e-05,-2e-05,-0.00019,-3e-05,0.00019,0.00011,0.00024,6,21
32394,-0.00044,8e-05,-2e-05,-0.00019,-3e-05,0.00019,0.00011,0.00024,6,21
32395,-0.00044,8e-05,-2e-05,-0.00019,-3e-05,0.00019,0.00011,0.00024,6,21
32396,-0.00044,8e-05,-2e-05,-0.00019,-3e-05,0.00019,0.00011,0.00024,6,21
32397,-0.00044,8e-05,-2e-05,-0.00019,-3e-05,0.00019,0.00011,0.00024,6,21
32398,-0.00044,8e-05,-2e-05,-0.00019,-3e-05,0.00019,0.00011,0.00024,6,21
32399,-0.00044,8e-05,-2e-05,-0.00019,-3e-05,0.00019,0.00011,0.00024,6,21
32400,0.00026,-1e-05,-6e-05,1e-05,4e-05,-0.00038,-4e-05,7e-05,6,21
32401,0.00034,5e-05,0.0001,0.00015,0.00026,0.00032,0.00018,-9e-05,6,21
32402,0.00022,-6e-05,1e-05,-0.00016,8e-05,0.00025,-0.00013,0.00019,6,21
32403,0.00022,-6e-05,1e-05,-0.00016,8e-05,0.00025,-0.00013,0.00019,6,21
32404,0.00022,-6e-05,1e-05,-0.00016,8e-05,0.00025,-0.00013,0.00019,6,21
32405,0.00022,-6e-05,1e-05,-0.00016,8e-05,0.00025,-0.00013,0.00019,6,21
32406,0.00022,-6e-05,1e-05,-0.00016,8e-05,0.00025,-0.00013,0.00019,6,21
32407,0.00022,-6e-05,1e-05,-0.00016,8e-05,0.00025,-0.00013,0.00019,6,21
32408,0.00022,-6e-05,1e-05,-0.00016,8e-05,0.00025,-0.00013,0.00019,6,21
32409,0.00022,-6e-05,1e-05,-0.00016,8e-05,0.00025,-0.00013,0.00019,6,21
32410,0.00022,-6e-05,1e-05,-0.00016,8e-05,0.00025,-0.00013,0.00019,6,21
32411,0.00022,-6e-05,1e-05,-0.00016,8e-05,0.00025,-0.00013,0.00019,6,21
32412,0.00022,-6e-05,1e-05,-0.00016,8e-05,0.00025,-0.00013,0.00019,6,21
32413,0.00022,-6e-05,1e-05,-0.00016,8e-05,0.00025,-0.00013,0.00019,6,21
32414,0.00022,-6e-05,1e-05,-0.00016,8e-05,0.00025,-0.00013,0.00019,6,21
32415,0.00022,-6e-05,1e-05,-0.00016,8e-05,0.00025,-0.00013,0.00019,6,21
32416,0.00022,-6e-05,1e-05,-0.00016,8e-05,0.00025,-0.00013,0.00019,6,21
32417,0.00022,-6e-05,1e-05,-0.00016,8e-05,0.00025,-0.00013,0.00019,6,21
32418,0.00022,-6e-05,1e-05,-0.00016,8e-05,0.00025,-0.00013,0.00019,6,21
32419,0.00022,-6e-05,1e-05,-0.00016,8e-05,0.00025,-0.00013,0.00019,6,21
32420,0.00022,-6e-05,1e-05,-0.00016,8e-05,0.00025,-0.00013,0.00019,6,21
32421,0.00022,-6e-05,1e-05,-0.00016,8e-05,0.00025,-0.00013,0.00019,6,21
32422,0.00022,-6e-05,1e-05,-0.00016,8e-05,0.00025,-0.00013,0.00019,6,21
32423,0.00028,-1e-05,1e-05,0.00017,0.0003,-0.00029,1e-05,-1e-05,6,21
32424,-0.00018,0.00016,0.00012,0.00027,0.00071,0.00062,0.00014,-0.00011,6,21
32425,0.00025,-6e-05,-4e-05,-0.00024,-0.00022,-0.00016,8e-05,0.00039,6,21
32426,0.00025,-6e-05,-4e-05,-0.00024,-0.00022,-0.00016,8e-05,0.00039,6,21
32427,0.00025,-6e-05,-4e-05,-0.00024,-0.00022,-0.00016,8e-05,0.00039,6,21
32428,0.00025,-6e-05,-4e-05,-0.00024,-0.00022,-0.00016,8e-05,0.00039,6,21
32429,0.00025,-6e-05,-4e-05,-0.00024,-0.00022,-0.00016,8e-05,0.00039,6,21
32430,0.00025,-6e-05,-4e-05,-0.00024,-0.00022,-0.00016,8e-05,0.00039,6,21
32431,0.00025,-6e-05,-4e-05,-0.00024,-0.00022,-0.00016,8e-05,0.00039,6,21
32432,0.00025,-6e-05,-4e-05,-0.00024,-0.00022,-0.00016,8e-05,0.00039,6,21
32433,0.00025,-6e-05,-4e-05,-0.00024,-0.00022,-0.00016,8e-05,0.00039,6,21
32434,0.00025,-6e-05,-4e-05,-0.00024,-0.00022,-0.00016,8e-05,0.00039,6,21
32435,0.00025,-6e-05,-4e-05,-0.00024,-0.00022,-0.00016,8e-05,0.00039,6,21
32437,0.00017,-2e-05,-3e-05,-8e-05,-0.00053,-0.0002,-6e-05,0.00015,6,21
32439,0.00017,-2e-05,-3e-05,-8e-05,-0.00053,-0.0002,-6e-05,0.00015,6,21
32440,0.00017,-2e-05,-3e-05,-8e-05,-0.00053,-0.0002,-6e-05,0.00015,6,21
32441,0.00017,-2e-05,-3e-05,-8e-05,-0.00053,-0.0002,-6e-05,0.00015,6,21
32442,0.00017,-2e-05,-3e-05,-8e-05,-0.00053,-0.0002,-6e-05,0.00015,6,21
32443,0.00017,-2e-05,-3e-05,-8e-05,-0.00053,-0.0002,-6e-05,0.00015,6,21
32444,-0.00028,5e-05,0,-0.00021,-9e-05,-0.00051,1e-05,-2e-05,6,21
32445,-0.00028,5e-05,0,-0.00021,-9e-05,-0.00051,1e-05,-2e-05,6,21
32446,-0.00028,5e-05,0,-0.00021,-9e-05,-0.00051,1e-05,-2e-05,6,21
32447,-0.00028,5e-05,0,-0.00021,-9e-05,-0.00051,1e-05,-2e-05,6,21
32448,-0.00028,5e-05,0,-0.00021,-9e-05,-0.00051,1e-05,-2e-05,6,21
32449,-0.00028,5e-05,0,-0.00021,-9e-05,-0.00051,1e-05,-2e-05,6,21
32450,-0.00028,5e-05,0,-0.00021,-9e-05,-0.00051,1e-05,-2e-05,6,21
32451,-0.00028,5e-05,0,-0.00021,-9e-05,-0.00051,1e-05,-2e-05,6,21
32452,-0.00028,5e-05,0,-0.00021,-9e-05,-0.00051,1e-05,-2e-05,6,21
32453,-0.00028,5e-05,0,-0.00021,-9e-05,-0.00051,1e-05,-2e-05,6,21
32454,-0.00028,5e-05,0,-0.00021,-9e-05,-0.00051,1e-05,-2e-05,6,21
32455,-0.00028,5e-05,0,-0.00021,-9e-05,-0.00051,1e-05,-2e-05,6,21
32456,-0.00028,5e-05,0,-0.00021,-9e-05,-0.00051,1e-05,-2e-05,6,21
32457,-0.00028,5e-05,0,-0.00021,-9e-05,-0.00051,1e-05,-2e-05,6,21
32458,-0.00028,5e-05,0,-0.00021,-9e-05,-0.00051,1e-05,-2e-05,6,21
32459,-0.00028,5e-05,0,-0.00021,-9e-05,-0.00051,1e-05,-2e-05,6,21
32460,0.00036,2e-05,8e-05,9e-05,0.00025,-4e-05,0,-1e-05,6,21
32461,7e-05,-8e-05,-6e-05,0.00017,-3e-05,-0.00046,-0.0001,3e-05,6,21
32462,0.0005,0.00013,0.00014,-0.00024,-0.001,-0.0008,-0.00039,-0.00019,6,21
32463,0.0005,0.00013,0.00014,-0.00024,-0.001,-0.0008,-0.00039,-0.00019,6,21
32464,0.0005,0.00013,0.00014,-0.00024,-0.001,-0.0008,-0.00039,-0.00019,6,21
32465,0.0005,0.00013,0.00014,-0.00024,-0.001,-0.0008,-0.00039,-0.00019,6,21
32466,0.0005,0.00013,0.00014,-0.00024,-0.001,-0.0008,-0.00039,-0.00019,6,21
32467,0.0005,0.00013,0.00014,-0.00024,-0.001,-0.0008,-0.00039,-0.00019,6,21
32468,0.0005,0.00013,0.00014,-0.00024,-0.001,-0.0008,-0.00039,-0.00019,6,21
32469,0.0005,0.00013,0.00014,-0.00024,-0.001,-0.0008,-0.00039,-0.00019,6,21
32470,0.0005,0.00013,0.00014,-0.00024,-0.001,-0.0008,-0.00039,-0.00019,6,21
32471,0.0005,0.00013,0.00014,-0.00024,-0.001,-0.0008,-0.00039,-0.00019,6,21
32472,0.0005,0.00013,0.00014,-0.00024,-0.001,-0.0008,-0.00039,-0.00019,6,21
32473,0.0005,0.00013,0.00014,-0.00024,-0.001,-0.0008,-0.00039,-0.00019,6,21
32474,0.0005,0.00013,0.00014,-0.00024,-0.001,-0.0008,-0.00039,-0.00019,6,21
32475,0.0005,0.00013,0.00014,-0.00024,-0.001,-0.0008,-0.00039,-0.00019,6,21
32476,0.0005,0.00013,0.00014,-0.00024,-0.001,-0.0008,-0.00039,-0.00019,6,21
32477,0.0005,0.00013,0.00014,-0.00024,-0.001,-0.0008,-0.00039,-0.00019,6,21
32478,0.0005,0.00013,0.00014,-0.00024,-0.001,-0.0008,-0.00039,-0.00019,6,21
32479,0.0005,0.00013,0.00014,-0.00024,-0.001,-0.0008,-0.00039,-0.00019,6,21
32480,0.0005,0.00013,0.00014,-0.00024,-0.001,-0.0008,-0.00039,-0.00019,6,21
32481,0.0005,0.00013,0.00014,-0.00024,-0.001,-0.0008,-0.00039,-0.00019,6,21
32482,0.0005,0.00013,0.00014,-0.00024,-0.001,-0.0008,-0.00039,-0.00019,6,21
32483,-0.00042,-6e-05,1e-05,-0.00043,-0.00031,0.00052,-3e-05,0.0003,6,21
32484,0.0004,4e-05,2e-05,0.00014,-0.00025,-0.00034,-3e-05,-6e-05,6,21
32485,4e-05,-4e-05,6e-05,0.00024,0.00021,0.00055,5e-05,0.00035,6,21
32487,4e-05,-4e-05,6e-05,0.00024,0.00021,0.00055,5e-05,0.00035,6,21
32489,4e-05,-4e-05,6e-05,0.00024,0.00021,0.00055,5e-05,0.00035,6,21
32490,4e-05,-4e-05,6e-05,0.00024,0.00021,0.00055,5e-05,0.00035,6,21
32491,4e-05,-4e-05,6e-05,0.00024,0.00021,0.00055,5e-05,0.00035,6,21
32492,4e-05,-4e-05,6e-05,0.00024,0.00021,0.00055,5e-05,0.00035,6,21
32493,4e-05,-4e-05,6e-05,0.00024,0.00021,0.00055,5e-05,0.00035,6,21
32494,4e-05,-4e-05,6e-05,0.00024,0.00021,0.00055,5e-05,0.00035,6,21
32495,4e-05,-4e-05,6e-05,0.00024,0.00021,0.00055,5e-05,0.00035,6,21
32496,4e-05,-4e-05,6e-05,0.00024,0.00021,0.00055,5e-05,0.00035,6,21
32497,4e-05,-2e-05,-6e-05,5e-05,-3e-05,-0.00037,-3e-05,-7e-05,6,21
32498,4e-05,-2e-05,-6e-05,5e-05,-3e-05,-0.00037,-3e-05,-7e-05,6,21
32499,4e-05,-2e-05,-6e-05,5e-05,-3e-05,-0.00037,-3e-05,-7e-05,6,21
32500,4e-05,-2e-05,-6e-05,5e-05,-3e-05,-0.00037,-3e-05,-7e-05,6,21
32501,4e-05,-2e-05,-6e-05,5e-05,-3e-05,-0.00037,-3e-05,-7e-05,6,21
32502,4e-05,-2e-05,-6e-05,5e-05,-3e-05,-0.00037,-3e-05,-7e-05,6,21
32503,4e-05,-2e-05,-6e-05,5e-05,-3e-05,-0.00037,-3e-05,-7e-05,6,21
32504,-0.00012,-9e-05,-6e-05,-2e-05,0.0004,0.00049,5e-05,0.00015,6,21
32505,-0.00012,-9e-05,-6e-05,-2e-05,0.0004,0.00049,5e-05,0.00015,6,21
32506,-0.00012,-9e-05,-6e-05,-2e-05,0.0004,0.00049,5e-05,0.00015,6,21
32507,-0.00012,-9e-05,-6e-05,-2e-05,0.0004,0.00049,5e-05,0.00015,6,21
32508,-0.00012,-9e-05,-6e-05,-2e-05,0.0004,0.00049,5e-05,0.00015,6,21
32509,-0.00012,-9e-05,-6e-05,-2e-05,0.0004,0.00049,5e-05,0.00015,6,21
32510,-0.00012,-9e-05,-6e-05,-2e-05,0.0004,0.00049,5e-05,0.00015,6,21
32511,-0.00012,-9e-05,-6e-05,-2e-05,0.0004,0.00049,5e-05,0.00015,6,21
32512,-0.00012,-9e-05,-6e-05,-2e-05,0.0004,0.00049,5e-05,0.00015,6,21
32513,-0.00012,-9e-05,-6e-05,-2e-05,0.0004,0.00049,5e-05,0.00015,6,21
32514,-0.00012,-9e-05,-6e-05,-2e-05,0.0004,0.00049,5e-05,0.00015,6,21
32515,-0.00012,-9e-05,-6e-05,-2e-05,0.0004,0.00049,5e-05,0.00015,6,21
32516,-0.00012,-9e-05,-6e-05,-2e-05,0.0004,0.00049,5e-05,0.00015,6,21
32517,-0.00012,-9e-05,-6e-05,-2e-05,0.0004,0.00049,5e-05,0.00015,6,21
32518,-0.00012,-9e-05,-6e-05,-2e-05,0.0004,0.00049,5e-05,0.00015,6,21
32519,-0.00012,-9e-05,-6e-05,-2e-05,0.0004,0.00049,5e-05,0.00015,6,21
32520,0.00014,0.00035,0.00013,2e-05,-0.0004,-0.00039,4e-05,-3e-05,6,21
32521,-0.00028,-0.00025,-6e-05,0.00023,-0.00016,-0.00021,0.00033,4e-05,6,21
32522,6e-05,-7e-05,3e-05,0.00078,0.00099,-0.00014,-0.00066,-0.00011,6,21
32523,6e-05,-7e-05,3e-05,0.00078,0.00099,-0.00014,-0.00066,-0.00011,6,21
32524,6e-05,-7e-05,3e-05,0.00078,0.00099,-0.00014,-0.00066,-0.00011,6,21
32525,6e-05,-7e-05,3e-05,0.00078,0.00099,-0.00014,-0.00066,-0.00011,6,21
32526,6e-05,-7e-05,3e-05,0.00078,0.00099,-0.00014,-0.00066,-0.00011,6,21
32527,6e-05,-7e-05,3e-05,0.00078,0.00099,-0.00014,-0.00066,-0.00011,6,21
32528,6e-05,-7e-05,3e-05,0.00078,0.00099,-0.00014,-0.00066,-0.00011,6,21
32529,6e-05,-7e-05,3e-05,0.00078,0.00099,-0.00014,-0.00066,-0.00011,6,21
32530,6e-05,-7e-05,3e-05,0.00078,0.00099,-0.00014,-0.00066,-0.00011,6,21
32531,6e-05,-7e-05,3e-05,0.00078,0.00099,-0.00014,-0.00066,-0.00011,6,21
32532,6e-05,-7e-05,3e-05,0.00078,0.00099,-0.00014,-0.00066,-0.00011,6,21
32533,6e-05,-7e-05,3e-05,0.00078,0.00099,-0.00014,-0.00066,-0.00011,6,21
32534,6e-05,-7e-05,3e-05,0.00078,0.00099,-0.00014,-0.00066,-0.00011,6,21
32535,6e-05,-7e-05,3e-05,0.00078,0.00099,-0.00014,-0.00066,-0.00011,6,21
32537,6e-05,-7e-05,3e-05,0.00078,0.00099,-0.00014,-0.00066,-0.00011,6,21
32539,6e-05,-7e-05,3e-05,0.00078,0.00099,-0.00014,-0.00066,-0.00011,6,21
32540,6e-05,-7e-05,3e-05,0.00078,0.00099,-0.00014,-0.00066,-0.00011,6,21
32541,6e-05,-7e-05,3e-05,0.00078,0.00099,-0.00014,-0.00066,-0.00011,6,21
32542,6e-05,-7e-05,3e-05,0.00078,0.00099,-0.00014,-0.00066,-0.00011,6,21
32543,8e-05,9e-05,0,-4e-05,-7e-05,0.00048,-0.00014,-0.00018,6,21
32544,0.00012,1e-05,0,7e-05,-0.00011,0.00021,6e-05,-4e-05,6,21
32545,0.00014,-6e-05,-9e-05,-4e-05,-0.00021,-6e-05,4e-05,-0.00012,6,21
32546,0.00014,-6e-05,-9e-05,-4e-05,-0.00021,-6e-05,4e-05,-0.00012,6,21
32547,0.00014,-6e-05,-9e-05,-4e-05,-0.00021,-6e-05,4e-05,-0.00012,6,21
32548,0.00014,-6e-05,-9e-05,-4e-05,-0.00021,-6e-05,4e-05,-0.00012,6,21
32549,0.00014,-6e-05,-9e-05,-4e-05,-0.00021,-6e-05,4e-05,-0.00012,6,21
32550,0.00014,-6e-05,-9e-05,-4e-05,-0.00021,-6e-05,4e-05,-0.00012,6,21
32551,0.00014,-6e-05,-9e-05,-4e-05,-0.00021,-6e-05,4e-05,-0.00012,6,21
32552,0.00014,-6e-05,-9e-05,-4e-05,-0.00021,-6e-05,4e-05,-0.00012,6,21
32553,0.00014,-6e-05,-9e-05,-4e-05,-0.00021,-6e-05,4e-05,-0.00012,6,21
32554,0.00014,-6e-05,-9e-05,-4e-05,-0.00021,-6e-05,4e-05,-0.00012,6,21
32555,0.00014,-6e-05,-9e-05,-4e-05,-0.00021,-6e-05,4e-05,-0.00012,6,21
62059,0.00069,0.00027,0.00011,0.00018,0.00067,-0.00051,-1e-05,-0.0003,6,21
62060,0.00069,0.00027,0.00011,0.00018,0.00067,-0.00051,-1e-05,-0.0003,6,21
62061,0.00069,0.00027,0.00011,0.00018,0.00067,-0.00051,-1e-05,-0.0003,6,21
62062,0.00069,0.00027,0.00011,0.00018,0.00067,-0.00051,-1e-05,-0.0003,6,21
62063,0.00069,0.00027,0.00011,0.00018,0.00067,-0.00051,-1e-05,-0.0003,6,21
62064,0.00069,0.00027,0.00011,0.00018,0.00067,-0.00051,-1e-05,-0.0003,6,21
62065,0.00069,0.00027,0.00011,0.00018,0.00067,-0.00051,-1e-05,-0.0003,6,21
62066,0.00069,0.00027,0.00011,0.00018,0.00067,-0.00051,-1e-05,-0.0003,6,21
62067,0.00069,0.00027,0.00011,0.00018,0.00067,-0.00051,-1e-05,-0.0003,6,21
62068,0.00069,0.00027,0.00011,0.00018,0.00067,-0.00051,-1e-05,-0.0003,6,21
62069,0.00069,0.00027,0.00011,0.00018,0.00067,-0.00051,-1e-05,-0.0003,6,21
62070,0.00069,0.00027,0.00011,0.00018,0.00067,-0.00051,-1e-05,-0.0003,6,21
62071,0.00069,0.00027,0.00011,0.00018,0.00067,-0.00051,-1e-05,-0.0003,6,21
62072,0.00069,0.00027,0.00011,0.00018,0.00067,-0.00051,-1e-05,-0.0003,6,21
62073,0.00069,0.00027,0.00011,0.00018,0.00067,-0.00051,-1e-05,-0.0003,6,21
62074,0.00069,0.00027,0.00011,0.00018,0.00067,-0.00051,-1e-05,-0.0003,6,21
62075,0.00069,0.00027,0.00011,0.00018,0.00067,-0.00051,-1e-05,-0.0003,6,21
62076,0.00039,0,-3e-05,-0.00032,-0.00093,-0.00053,0.00018,1e-05,6,21
62077,0.00039,0,-3e-05,-0.00032,-0.00093,-0.00053,0.00018,1e-05,6,21
62078,0.00039,0,-3e-05,-0.00032,-0.00093,-0.00053,0.00018,1e-05,6,21
62079,0.00039,0,-3e-05,-0.00032,-0.00093,-0.00053,0.00018,1e-05,6,21
62080,0.00039,0,-3e-05,-0.00032,-0.00093,-0.00053,0.00018,1e-05,6,21
62081,0.00039,0,-3e-05,-0.00032,-0.00093,-0.00053,0.00018,1e-05,6,21
62082,0.00039,0,-3e-05,-0.00032,-0.00093,-0.00053,0.00018,1e-05,6,21
62083,0.00039,0,-3e-05,-0.00032,-0.00093,-0.00053,0.00018,1e-05,6,21
62084,0.00039,0,-3e-05,-0.00032,-0.00093,-0.00053,0.00018,1e-05,6,21
62085,0.00039,0,-3e-05,-0.00032,-0.00093,-0.00053,0.00018,1e-05,6,21
62087,0.00039,0,-3e-05,-0.00032,-0.00093,-0.00053,0.00018,1e-05,6,21
62089,0.00039,0,-3e-05,-0.00032,-0.00093,-0.00053,0.00018,1e-05,6,21
62090,0.00039,0,-3e-05,-0.00032,-0.00093,-0.00053,0.00018,1e-05,6,21
62091,0.00039,0,-3e-05,-0.00032,-0.00093,-0.00053,0.00018,1e-05,6,21
62092,0.00039,0,-3e-05,-0.00032,-0.00093,-0.00053,0.00018,1e-05,6,21
62093,0.00039,0,-3e-05,-0.00032,-0.00093,-0.00053,0.00018,1e-05,6,21
62094,0.00039,0,-3e-05,-0.00032,-0.00093,-0.00053,0.00018,1e-05,6,21
62095,0.00039,0,-3e-05,-0.00032,-0.00093,-0.00053,0.00018,1e-05,6,21
62096,0.00039,0,-3e-05,-0.00032,-0.00093,-0.00053,0.00018,1e-05,6,21
62097,0.00039,0,-3e-05,-0.00032,-0.00093,-0.00053,0.00018,1e-05,6,21
62098,0.00039,0,-3e-05,-0.00032,-0.00093,-0.00053,0.00018,1e-05,6,21
62099,0.00039,0,-3e-05,-0.00032,-0.00093,-0.00053,0.00018,1e-05,6,21
62100,-0.00049,-4e-05,-0.00012,-0.00012,0.00071,0.00084,-0.00029,-0.00078,6,21
62101,-0.00049,-4e-05,-0.00012,-0.00012,0.00071,0.00084,-0.00029,-0.00078,6,21
62102,-0.00049,-4e-05,-0.00012,-0.00012,0.00071,0.00084,-0.00029,-0.00078,6,21
62103,-0.00049,-4e-05,-0.00012,-0.00012,0.00071,0.00084,-0.00029,-0.00078,6,21
62104,-0.00049,-4e-05,-0.00012,-0.00012,0.00071,0.00084,-0.00029,-0.00078,6,21
62105,-0.00049,-4e-05,-0.00012,-0.00012,0.00071,0.00084,-0.00029,-0.00078,6,21
62106,-0.00049,-4e-05,-0.00012,-0.00012,0.00071,0.00084,-0.00029,-0.00078,6,21
62107,-0.00049,-4e-05,-0.00012,-0.00012,0.00071,0.00084,-0.00029,-0.00078,6,21
62108,-0.00049,-4e-05,-0.00012,-0.00012,0.00071,0.00084,-0.00029,-0.00078,6,21
62109,-0.00049,-4e-05,-0.00012,-0.00012,0.00071,0.00084,-0.00029,-0.00078,6,21
62110,-0.00049,-4e-05,-0.00012,-0.00012,0.00071,0.00084,-0.00029,-0.00078,6,21
62111,-0.00049,-4e-05,-0.00012,-0.00012,0.00071,0.00084,-0.00029,-0.00078,6,21
62112,-0.00049,-4e-05,-0.00012,-0.00012,0.00071,0.00084,-0.00029,-0.00078,6,21
62113,-0.00069,-9e-05,0.00011,-3e-05,-0.00038,-0.00054,-0.00052,-0.00038,6,21
62114,-0.00069,-9e-05,0.00011,-3e-05,-0.00038,-0.00054,-0.00052,-0.00038,6,21
62115,-0.00069,-9e-05,0.00011,-3e-05,-0.00038,-0.00054,-0.00052,-0.00038,6,21
62116,-0.00069,-9e-05,0.00011,-3e-05,-0.00038,-0.00054,-0.00052,-0.00038,6,21
62117,-0.00069,-9e-05,0.00011,-3e-05,-0.00038,-0.00054,-0.00052,-0.00038,6,21
62118,-0.00069,-9e-05,0.00011,-3e-05,-0.00038,-0.00054,-0.00052,-0.00038,6,21
62119,-0.00069,-9e-05,0.00011,-3e-05,-0.00038,-0.00054,-0.00052,-0.00038,6,21
62120,-0.00069,-9e-05,0.00011,-3e-05,-0.00038,-0.00054,-0.00052,-0.00038,6,21
62121,0.00069,-7e-05,-8e-05,-6e-05,-0.00038,-0.00093,-0.00038,0.00012,6,21
62122,0.00069,-7e-05,-8e-05,-6e-05,-0.00038,-0.00093,-0.00038,0.00012,6,21
62123,0.00069,-7e-05,-8e-05,-6e-05,-0.00038,-0.00093,-0.00038,0.00012,6,21
62124,0.00069,-7e-05,-8e-05,-6e-05,-0.00038,-0.00093,-0.00038,0.00012,6,21
62125,0.00069,-7e-05,-8e-05,-6e-05,-0.00038,-0.00093,-0.00038,0.00012,6,21
62126,0.00069,-7e-05,-8e-05,-6e-05,-0.00038,-0.00093,-0.00038,0.00012,6,21
62127,0.00069,-7e-05,-8e-05,-6e-05,-0.00038,-0.00093,-0.00038,0.00012,6,21
62128,0.00069,-7e-05,-8e-05,-6e-05,-0.00038,-0.00093,-0.00038,0.00012,6,21
62129,0.00069,-7e-05,-8e-05,-6e-05,-0.00038,-0.00093,-0.00038,0.00012,6,21
62130,0.00069,-7e-05,-8e-05,-6e-05,-0.00038,-0.00093,-0.00038,0.00012,6,21
62131,0.00069,-7e-05,-8e-05,-6e-05,-0.00038,-0.00093,-0.00038,0.00012,6,21
62132,0.00069,-7e-05,-8e-05,-6e-05,-0.00038,-0.00093,-0.00038,0.00012,6,21
62133,0.00069,-7e-05,-8e-05,-6e-05,-0.00038,-0.00093,-0.00038,0.00012,6,21
62134,0.00069,-7e-05,-8e-05,-6e-05,-0.00038,-0.00093,-0.00038,0.00012,6,21
62135,0.00069,-7e-05,-8e-05,-6e-05,-0.00038,-0.00093,-0.00038,0.00012,6,21
62137,-0.00104,-0.0002,-0.00011,-0.00019,-0.00017,0.0003,-0.00051,-0.0002,6,21
62139,-0.00104,-0.0002,-0.00011,-0.00019,-0.00017,0.0003,-0.00051,-0.0002,6,21
62140,-0.00104,-0.0002,-0.00011,-0.00019,-0.00017,0.0003,-0.00051,-0.0002,6,21
62141,-0.00104,-0.0002,-0.00011,-0.00019,-0.00017,0.0003,-0.00051,-0.0002,6,21
62142,-0.00104,-0.0002,-0.00011,-0.00019,-0.00017,0.0003,-0.00051,-0.0002,6,21
62143,-0.00104,-0.0002,-0.00011,-0.00019,-0.00017,0.0003,-0.00051,-0.0002,6,21
62144,-0.00104,-0.0002,-0.00011,-0.00019,-0.00017,0.0003,-0.00051,-0.0002,6,21
62145,-0.00104,-0.0002,-0.00011,-0.00019,-0.00017,0.0003,-0.00051,-0.0002,6,21
62146,-0.00104,-0.0002,-0.00011,-0.00019,-0.00017,0.0003,-0.00051,-0.0002,6,21
62147,-0.00104,-0.0002,-0.00011,-0.00019,-0.00017,0.0003,-0.00051,-0.0002,6,21
62148,-0.00104,-0.0002,-0.00011,-0.00019,-0.00017,0.0003,-0.00051,-0.0002,6,21
62149,-0.00104,-0.0002,-0.00011,-0.00019,-0.00017,0.0003,-0.00051,-0.0002,6,21
62150,-0.00104,-0.0002,-0.00011,-0.00019,-0.00017,0.0003,-0.00051,-0.0002,6,21
62151,-0.00104,-0.0002,-0.00011,-0.00019,-0.00017,0.0003,-0.00051,-0.0002,6,21
62152,-0.00104,-0.0002,-0.00011,-0.00019,-0.00017,0.0003,-0.00051,-0.0002,6,21
62153,-0.00104,-0.0002,-0.00011,-0.00019,-0.00017,0.0003,-0.00051,-0.0002,6,21
62154,-0.00104,-0.0002,-0.00011,-0.00019,-0.00017,0.0003,-0.00051,-0.0002,6,21
62155,-0.00104,-0.0002,-0.00011,-0.00019,-0.00017,0.0003,-0.00051,-0.0002,6,21
62156,-0.00104,-0.0002,-0.00011,-0.00019,-0.00017,0.0003,-0.00051,-0.0002,6,21
62157,-0.00104,-0.0002,-0.00011,-0.00019,-0.00017,0.0003,-0.00051,-0.0002,6,21
62158,-0.00104,-0.0002,-0.00011,-0.00019,-0.00017,0.0003,-0.00051,-0.0002,6,21
62159,0.00044,0.00011,-8e-05,0.0001,0.00051,-0.00128,-0.00027,0.00013,6,21
62160,0.00026,0.00012,-2e-05,-3e-05,-0.00012,-1e-05,0.0002,9e-05,6,21
62161,0.00026,0.00012,-2e-05,-3e-05,-0.00012,-1e-05,0.0002,9e-05,6,21
62162,0.00026,0.00012,-2e-05,-3e-05,-0.00012,-1e-05,0.0002,9e-05,6,21
62163,0.00026,0.00012,-2e-05,-3e-05,-0.00012,-1e-05,0.0002,9e-05,6,21
62164,0.00026,0.00012,-2e-05,-3e-05,-0.00012,-1e-05,0.0002,9e-05,6,21
62165,0.00026,0.00012,-2e-05,-3e-05,-0.00012,-1e-05,0.0002,9e-05,6,21
62166,0.00026,0.00012,-2e-05,-3e-05,-0.00012,-1e-05,0.0002,9e-05,6,21
62167,0.00026,0.00012,-2e-05,-3e-05,-0.00012,-1e-05,0.0002,9e-05,6,21
62168,0.00026,0.00012,-2e-05,-3e-05,-0.00012,-1e-05,0.0002,9e-05,6,21
62169,0.00026,0.00012,-2e-05,-3e-05,-0.00012,-1e-05,0.0002,9e-05,6,21
62170,0.00026,0.00012,-2e-05,-3e-05,-0.00012,-1e-05,0.0002,9e-05,6,21
62171,0.00026,0.00012,-2e-05,-3e-05,-0.00012,-1e-05,0.0002,9e-05,6,21
62172,0.00026,0.00012,-2e-05,-3e-05,-0.00012,-1e-05,0.0002,9e-05,6,21
62173,0.00039,4e-05,-0.00011,0.0001,0.00037,-0.00025,3e-05,0.00038,6,21
62174,0.00039,4e-05,-0.00011,0.0001,0.00037,-0.00025,3e-05,0.00038,6,21
62175,0.00039,4e-05,-0.00011,0.0001,0.00037,-0.00025,3e-05,0.00038,6,21
62176,0.00039,4e-05,-0.00011,0.0001,0.00037,-0.00025,3e-05,0.00038,6,21
62177,0.00039,4e-05,-0.00011,0.0001,0.00037,-0.00025,3e-05,0.00038,6,21
62178,0.00039,4e-05,-0.00011,0.0001,0.00037,-0.00025,3e-05,0.00038,6,21
62179,0.00039,4e-05,-0.00011,0.0001,0.00037,-0.00025,3e-05,0.00038,6,21
62180,0.00039,4e-05,-0.00011,0.0001,0.00037,-0.00025,3e-05,0.00038,6,21
62181,6e-05,0,3e-05,4e-05,0.00021,-0.00054,-0.0001,-0.00029,6,21
62182,-0.00025,8e-05,0.00015,3e-05,-0.00087,0.00051,0.00022,0.00011,6,21
62183,-0.00025,8e-05,0.00015,3e-05,-0.00087,0.00051,0.00022,0.00011,6,21
62184,-0.00025,8e-05,0.00015,3e-05,-0.00087,0.00051,0.00022,0.00011,6,21
62185,-0.00025,8e-05,0.00015,3e-05,-0.00087,0.00051,0.00022,0.00011,6,21
62187,-0.00025,8e-05,0.00015,3e-05,-0.00087,0.00051,0.00022,0.00011,6,21
62189,-0.00025,8e-05,0.00015,3e-05,-0.00087,0.00051,0.00022,0.00011,6,21
62190,-0.00025,8e-05,0.00015,3e-05,-0.00087,0.00051,0.00022,0.00011,6,21
62191,-0.00025,8e-05,0.00015,3e-05,-0.00087,0.00051,0.00022,0.00011,6,21
62192,-0.00025,8e-05,0.00015,3e-05,-0.00087,0.00051,0.00022,0.00011,6,21
62193,-0.00025,8e-05,0.00015,3e-05,-0.00087,0.00051,0.00022,0.00011,6,21
62194,-0.00025,8e-05,0.00015,3e-05,-0.00087,0.00051,0.00022,0.00011,6,21
62195,-0.00025,8e-05,0.00015,3e-05,-0.00087,0.00051,0.00022,0.00011,6,21
62196,0.00038,9e-05,7e-05,3e-05,-0.00031,0.00034,0.00016,0.00014,6,21
62197,-3e-05,0,4e-05,0.00024,0.00068,-0.0003,0.00021,0.00014,6,21
62198,-3e-05,0,4e-05,0.00024,0.00068,-0.0003,0.00021,0.00014,6,21
62199,-3e-05,0,4e-05,0.00024,0.00068,-0.0003,0.00021,0.00014,6,21
62200,-3e-05,0,4e-05,0.00024,0.00068,-0.0003,0.00021,0.00014,6,21
62201,-3e-05,0,4e-05,0.00024,0.00068,-0.0003,0.00021,0.00014,6,21
62202,-3e-05,0,4e-05,0.00024,0.00068,-0.0003,0.00021,0.00014,6,21
62203,-3e-05,0,4e-05,0.00024,0.00068,-0.0003,0.00021,0.00014,6,21
62204,-3e-05,0,4e-05,0.00024,0.00068,-0.0003,0.00021,0.00014,6,21
62205,-3e-05,0,4e-05,0.00024,0.00068,-0.0003,0.00021,0.00014,6,21
62206,-3e-05,0,4e-05,0.00024,0.00068,-0.0003,0.00021,0.00014,6,21
62207,-3e-05,0,4e-05,0.00024,0.00068,-0.0003,0.00021,0.00014,6,21
62208,-3e-05,0,4e-05,0.00024,0.00068,-0.0003,0.00021,0.00014,6,21
62209,-3e-05,0,4e-05,0.00024,0.00068,-0.0003,0.00021,0.00014,6,21
62210,-3e-05,0,4e-05,0.00024,0.00068,-0.0003,0.00021,0.00014,6,21
62211,-3e-05,0,4e-05,0.00024,0.00068,-0.0003,0.00021,0.00014,6,21
62212,-3e-05,0,4e-05,0.00024,0.00068,-0.0003,0.00021,0.00014,6,21
62213,-3e-05,0,4e-05,0.00024,0.00068,-0.0003,0.00021,0.00014,6,21
62214,-3e-05,0,4e-05,0.00024,0.00068,-0.0003,0.00021,0.00014,6,21
62215,-3e-05,0,4e-05,0.00024,0.00068,-0.0003,0.00021,0.00014,6,21
62216,-3e-05,0,4e-05,0.00024,0.00068,-0.0003,0.00021,0.00014,6,21
62217,-3e-05,0,4e-05,0.00024,0.00068,-0.0003,0.00021,0.00014,6,21
62218,-3e-05,0,4e-05,0.00024,0.00068,-0.0003,0.00021,0.00014,6,21
62219,-0.0001,0.0001,0.00013,8e-05,-0.0005,6e-05,0.00028,0.00012,6,21
62220,0.00079,0.00014,2e-05,0,-0.00056,0.00026,0.00043,-0.00045,6,21
62221,0.00079,0.00014,2e-05,0,-0.00056,0.00026,0.00043,-0.00045,6,21
62222,0.00079,0.00014,2e-05,0,-0.00056,0.00026,0.00043,-0.00045,6,21
62223,0.00079,0.00014,2e-05,0,-0.00056,0.00026,0.00043,-0.00045,6,21
62224,0.00079,0.00014,2e-05,0,-0.00056,0.00026,0.00043,-0.00045,6,21
62225,0.00079,0.00014,2e-05,0,-0.00056,0.00026,0.00043,-0.00045,6,21
62226,0.00079,0.00014,2e-05,0,-0.00056,0.00026,0.00043,-0.00045,6,21
62227,0.00079,0.00014,2e-05,0,-0.00056,0.00026,0.00043,-0.00045,6,21
62228,0.00079,0.00014,2e-05,0,-0.00056,0.00026,0.00043,-0.00045,6,21
62229,0.00079,0.00014,2e-05,0,-0.00056,0.00026,0.00043,-0.00045,6,21
62230,0.00079,0.00014,2e-05,0,-0.00056,0.00026,0.00043,-0.00045,6,21
62231,0.00079,0.00014,2e-05,0,-0.00056,0.00026,0.00043,-0.00045,6,21
62232,0.00079,0.00014,2e-05,0,-0.00056,0.00026,0.00043,-0.00045,6,21
62233,-9e-05,0,8e-05,0.0003,0.00024,-0.00033,-2e-05,7e-05,6,21
62234,-9e-05,0,8e-05,0.0003,0.00024,-0.00033,-2e-05,7e-05,6,21
62235,-9e-05,0,8e-05,0.0003,0.00024,-0.00033,-2e-05,7e-05,6,21
62237,-9e-05,0,8e-05,0.0003,0.00024,-0.00033,-2e-05,7e-05,6,21
62239,-9e-05,0,8e-05,0.0003,0.00024,-0.00033,-2e-05,7e-05,6,21
62240,-9e-05,0,8e-05,0.0003,0.00024,-0.00033,-2e-05,7e-05,6,21
62241,4e-05,-5e-05,-0.00013,-0.00014,-0.0006,-0.00056,0.00029,0.00013,6,21
62242,4e-05,-5e-05,-0.00013,-0.00014,-0.0006,-0.00056,0.00029,0.00013,6,21
62243,4e-05,-5e-05,-0.00013,-0.00014,-0.0006,-0.00056,0.00029,0.00013,6,21
62244,4e-05,-5e-05,-0.00013,-0.00014,-0.0006,-0.00056,0.00029,0.00013,6,21
62245,4e-05,-5e-05,-0.00013,-0.00014,-0.0006,-0.00056,0.00029,0.00013,6,21
62246,4e-05,-5e-05,-0.00013,-0.00014,-0.0006,-0.00056,0.00029,0.00013,6,21
62247,4e-05,-5e-05,-0.00013,-0.00014,-0.0006,-0.00056,0.00029,0.00013,6,21
62248,4e-05,-5e-05,-0.00013,-0.00014,-0.0006,-0.00056,0.00029,0.00013,6,21
62249,4e-05,-5e-05,-0.00013,-0.00014,-0.0006,-0.00056,0.00029,0.00013,6,21
62250,4e-05,-5e-05,-0.00013,-0.00014,-0.0006,-0.00056,0.00029,0.00013,6,21
62251,4e-05,-5e-05,-0.00013,-0.00014,-0.0006,-0.00056,0.00029,0.00013,6,21
62252,4e-05,-5e-05,-0.00013,-0.00014,-0.0006,-0.00056,0.00029,0.00013,6,21
62253,4e-05,-5e-05,-0.00013,-0.00014,-0.0006,-0.00056,0.00029,0.00013,6,21
62254,4e-05,-5e-05,-0.00013,-0.00014,-0.0006,-0.00056,0.00029,0.00013,6,21
62255,4e-05,-5e-05,-0.00013,-0.00014,-0.0006,-0.00056,0.00029,0.00013,6,21
62256,0.00035,0.0001,2e-05,-7e-05,0.00028,0.00011,-3e-05,-0.00017,6,21
62257,-0.00073,-0.0001,-1e-05,5e-05,-0.00025,-0.00035,-0.00016,6e-05,6,21
62258,-0.00073,-0.0001,-1e-05,5e-05,-0.00025,-0.00035,-0.00016,6e-05,6,21
62259,-0.00073,-0.0001,-1e-05,5e-05,-0.00025,-0.00035,-0.00016,6e-05,6,21
62260,-0.00073,-0.0001,-1e-05,5e-05,-0.00025,-0.00035,-0.00016,6e-05,6,21
62261,-0.00073,-0.0001,-1e-05,5e-05,-0.00025,-0.00035,-0.00016,6e-05,6,21
62262,-0.00073,-0.0001,-1e-05,5e-05,-0.00025,-0.00035,-0.00016,6e-05,6,21
62263,-0.00073,-0.0001,-1e-05,5e-05,-0.00025,-0.00035,-0.00016,6e-05,6,21
62264,-0.00073,-0.0001,-1e-05,5e-05,-0.00025,-0.00035,-0.00016,6e-05,6,21
62265,-0.00073,-0.0001,-1e-05,5e-05,-0.00025,-0.00035,-0.00016,6e-05,6,21
