30543,-8e-05,-0.0002,0.00055,0.00028,2e-05,-2e-05,1e-05,8e-05,6,22
30544,-8e-05,-0.0002,0.00055,0.00028,2e-05,-2e-05,1e-05,8e-05,6,22
30545,-8e-05,-0.0002,0.00055,0.00028,2e-05,-2e-05,1e-05,8e-05,6,22
30546,-8e-05,-0.0002,0.00055,0.00028,2e-05,-2e-05,1e-05,8e-05,6,22
30547,-0.00016,-2e-05,-8e-05,-4e-05,-5e-05,2e-05,-2e-05,-0.0001,6,22
30548,-0.00016,-2e-05,-8e-05,-4e-05,-5e-05,2e-05,-2e-05,-0.0001,6,22
30549,-0.00016,-2e-05,-8e-05,-4e-05,-5e-05,2e-05,-2e-05,-0.0001,6,22
30550,-0.00016,-2e-05,-8e-05,-4e-05,-5e-05,2e-05,-2e-05,-0.0001,6,22
30551,-0.00016,-2e-05,-8e-05,-4e-05,-5e-05,2e-05,-2e-05,-0.0001,6,22
30552,-0.00016,-2e-05,-8e-05,-4e-05,-5e-05,2e-05,-2e-05,-0.0001,6,22
30553,-0.00016,-2e-05,-8e-05,-4e-05,-5e-05,2e-05,-2e-05,-0.0001,6,22
30554,-0.00016,-2e-05,-8e-05,-4e-05,-5e-05,2e-05,-2e-05,-0.0001,6,22
30555,-0.00016,-2e-05,-8e-05,-4e-05,-5e-05,2e-05,-2e-05,-0.0001,6,22
30556,-0.00016,-2e-05,-8e-05,-4e-05,-5e-05,2e-05,-2e-05,-0.0001,6,22
30557,-0.00016,-2e-05,-8e-05,-4e-05,-5e-05,2e-05,-2e-05,-0.0001,6,22
30558,-0.00016,-2e-05,-8e-05,-4e-05,-5e-05,2e-05,-2e-05,-0.0001,6,22
30559,-0.00016,-2e-05,-8e-05,-4e-05,-5e-05,2e-05,-2e-05,-0.0001,6,22
30560,-0.00016,-2e-05,-8e-05,-4e-05,-5e-05,2e-05,-2e-05,-0.0001,6,22
30561,-0.00016,-2e-05,-8e-05,-4e-05,-5e-05,2e-05,-2e-05,-0.0001,6,22
30562,-0.00016,-2e-05,-8e-05,-4e-05,-5e-05,2e-05,-2e-05,-0.0001,6,22
30563,-0.00016,-2e-05,-8e-05,-4e-05,-5e-05,2e-05,-2e-05,-0.0001,6,22
30564,-0.00016,-2e-05,-8e-05,-4e-05,-5e-05,2e-05,-2e-05,-0.0001,6,22
30565,-0.00016,-2e-05,-8e-05,-4e-05,-5e-05,2e-05,-2e-05,-0.0001,6,22
30566,-0.00016,-2e-05,-8e-05,-4e-05,-5e-05,2e-05,-2e-05,-0.0001,6,22
30567,-0.00016,-2e-05,-8e-05,-4e-05,-5e-05,2e-05,-2e-05,-0.0001,6,22
30568,-0.00016,-2e-05,-8e-05,-4e-05,-5e-05,2e-05,-2e-05,-0.0001,6,22
30569,0.00014,0,3e-05,0.00018,5e-05,6e-05,0,2e-05,6,22
30570,-0.0001,-0.00013,-0.00019,-3e-05,-1e-05,-3e-05,-4e-05,-0.00021,6,22
30571,-0.0001,-0.00013,-0.00019,-3e-05,-1e-05,-3e-05,-4e-05,-0.00021,6,22
30572,-0.0001,-0.00013,-0.00019,-3e-05,-1e-05,-3e-05,-4e-05,-0.00021,6,22
30573,-0.0001,-0.00013,-0.00019,-3e-05,-1e-05,-3e-05,-4e-05,-0.00021,6,22
30574,-0.0001,-0.00013,-0.00019,-3e-05,-1e-05,-3e-05,-4e-05,-0.00021,6,22
30575,-0.0001,-0.00013,-0.00019,-3e-05,-1e-05,-3e-05,-4e-05,-0.00021,6,22
30576,-0.0001,-0.00013,-0.00019,-3e-05,-1e-05,-3e-05,-4e-05,-0.00021,6,22
30577,-0.0001,-0.00013,-0.00019,-3e-05,-1e-05,-3e-05,-4e-05,-0.00021,6,22
30578,-0.0001,-0.00013,-0.00019,-3e-05,-1e-05,-3e-05,-4e-05,-0.00021,6,22
30579,-0.0001,-0.00013,-0.00019,-3e-05,-1e-05,-3e-05,-4e-05,-0.00021,6,22
30580,-0.0001,-0.00013,-0.00019,-3e-05,-1e-05,-3e-05,-4e-05,-0.00021,6,22
30581,-0.0001,-0.00013,-0.00019,-3e-05,-1e-05,-3e-05,-4e-05,-0.00021,6,22
30582,-0.0001,-0.00013,-0.00019,-3e-05,-1e-05,-3e-05,-4e-05,-0.00021,6,22
30583,-0.00022,2e-05,0.00015,0.00012,1e-05,3e-05,4e-05,9e-05,6,22
30584,-8e-05,-1e-05,-0.00033,-4e-05,-3e-05,-3e-05,-2e-05,0.00018,6,22
30585,-8e-05,-1e-05,-0.00033,-4e-05,-3e-05,-3e-05,-2e-05,0.00018,6,22
30586,-8e-05,-1e-05,-0.00033,-4e-05,-3e-05,-3e-05,-2e-05,0.00018,6,22
30588,-8e-05,-1e-05,-0.00033,-4e-05,-3e-05,-3e-05,-2e-05,0.00018,6,22
30589,-8e-05,-1e-05,-0.00033,-4e-05,-3e-05,-3e-05,-2e-05,0.00018,6,22
30590,-8e-05,-1e-05,-0.00033,-4e-05,-3e-05,-3e-05,-2e-05,0.00018,6,22
30591,-8e-05,-1e-05,-0.00033,-4e-05,-3e-05,-3e-05,-2e-05,0.00018,6,22
30592,-0.00017,-1e-05,0.00038,0.00035,4e-05,2e-05,-1e-05,-8e-05,6,22
30593,-0.00017,-1e-05,0.00038,0.00035,4e-05,2e-05,-1e-05,-8e-05,6,22
30594,-0.00017,-1e-05,0.00038,0.00035,4e-05,2e-05,-1e-05,-8e-05,6,22
30595,-0.00017,-1e-05,0.00038,0.00035,4e-05,2e-05,-1e-05,-8e-05,6,22
30596,-0.00017,-1e-05,0.00038,0.00035,4e-05,2e-05,-1e-05,-8e-05,6,22
30597,-0.00017,-1e-05,0.00038,0.00035,4e-05,2e-05,-1e-05,-8e-05,6,22
30598,-0.00017,-1e-05,0.00038,0.00035,4e-05,2e-05,-1e-05,-8e-05,6,22
30599,-0.00017,-1e-05,0.00038,0.00035,4e-05,2e-05,-1e-05,-8e-05,6,22
30600,-0.00017,-1e-05,0.00038,0.00035,4e-05,2e-05,-1e-05,-8e-05,6,22
30601,-0.00017,-1e-05,0.00038,0.00035,4e-05,2e-05,-1e-05,-8e-05,6,22
30602,-0.00017,-1e-05,0.00038,0.00035,4e-05,2e-05,-1e-05,-8e-05,6,22
30603,-0.00017,-1e-05,0.00038,0.00035,4e-05,2e-05,-1e-05,-8e-05,6,22
30604,-0.00017,-1e-05,0.00038,0.00035,4e-05,2e-05,-1e-05,-8e-05,6,22
30605,-0.00017,-1e-05,0.00038,0.00035,4e-05,2e-05,-1e-05,-8e-05,6,22
30606,-0.00017,-1e-05,0.00038,0.00035,4e-05,2e-05,-1e-05,-8e-05,6,22
30607,-0.00011,0.00014,-0.00023,-0.00013,-3e-05,-5e-05,-2e-05,-5e-05,6,22
30608,-0.00011,0.00014,-0.00023,-0.00013,-3e-05,-5e-05,-2e-05,-5e-05,6,22
30609,-0.00011,0.00014,-0.00023,-0.00013,-3e-05,-5e-05,-2e-05,-5e-05,6,22
30610,-0.00011,0.00014,-0.00023,-0.00013,-3e-05,-5e-05,-2e-05,-5e-05,6,22
30611,-0.00011,0.00014,-0.00023,-0.00013,-3e-05,-5e-05,-2e-05,-5e-05,6,22
30612,-0.00011,0.00014,-0.00023,-0.00013,-3e-05,-5e-05,-2e-05,-5e-05,6,22
30613,-0.00011,0.00014,-0.00023,-0.00013,-3e-05,-5e-05,-2e-05,-5e-05,6,22
30614,-0.00011,0.00014,-0.00023,-0.00013,-3e-05,-5e-05,-2e-05,-5e-05,6,22
30615,-0.00011,0.00014,-0.00023,-0.00013,-3e-05,-5e-05,-2e-05,-5e-05,6,22
30616,-0.00011,0.00014,-0.00023,-0.00013,-3e-05,-5e-05,-2e-05,-5e-05,6,22
30617,-0.00011,0.00014,-0.00023,-0.00013,-3e-05,-5e-05,-2e-05,-5e-05,6,22
30618,-0.00011,0.00014,-0.00023,-0.00013,-3e-05,-5e-05,-2e-05,-5e-05,6,22
30619,-0.00011,0.00014,-0.00023,-0.00013,-3e-05,-5e-05,-2e-05,-5e-05,6,22
30620,-0.00011,0.00014,-0.00023,-0.00013,-3e-05,-5e-05,-2e-05,-5e-05,6,22
30621,-0.00011,0.00014,-0.00023,-0.00013,-3e-05,-5e-05,-2e-05,-5e-05,6,22
30622,-0.00011,0.00014,-0.00023,-0.00013,-3e-05,-5e-05,-2e-05,-5e-05,6,22
30623,-0.00011,0.00014,-0.00023,-0.00013,-3e-05,-5e-05,-2e-05,-5e-05,6,22
30624,-0.00011,0.00014,-0.00023,-0.00013,-3e-05,-5e-05,-2e-05,-5e-05,6,22
30625,-0.00011,0.00014,-0.00023,-0.00013,-3e-05,-5e-05,-2e-05,-5e-05,6,22
30626,-0.00011,0.00014,-0.00023,-0.00013,-3e-05,-5e-05,-2e-05,-5e-05,6,22
30627,-0.00011,0.00014,-0.00023,-0.00013,-3e-05,-5e-05,-2e-05,-5e-05,6,22
30628,-0.00011,0.00014,-0.00023,-0.00013,-3e-05,-5e-05,-2e-05,-5e-05,6,22
30629,0.00038,0.00013,-0.00015,-4e-05,-2e-05,-2e-05,2e-05,0.00019,6,22
30630,0.00016,0.00016,0.00058,0.00041,-1e-05,-3e-05,2e-05,0.00032,6,22
30631,0.00016,0.00016,0.00058,0.00041,-1e-05,-3e-05,2e-05,0.00032,6,22
30632,0.00016,0.00016,0.00058,0.00041,-1e-05,-3e-05,2e-05,0.00032,6,22
30633,0.00016,0.00016,0.00058,0.00041,-1e-05,-3e-05,2e-05,0.00032,6,22
30634,0.00016,0.00016,0.00058,0.00041,-1e-05,-3e-05,2e-05,0.00032,6,22
30635,0.00016,0.00016,0.00058,0.00041,-1e-05,-3e-05,2e-05,0.00032,6,22
30636,0.00016,0.00016,0.00058,0.00041,-1e-05,-3e-05,2e-05,0.00032,6,22
30638,0.00016,0.00016,0.00058,0.00041,-1e-05,-3e-05,2e-05,0.00032,6,22
30639,0.00016,0.00016,0.00058,0.00041,-1e-05,-3e-05,2e-05,0.00032,6,22
30640,0.00016,0.00016,0.00058,0.00041,-1e-05,-3e-05,2e-05,0.00032,6,22
30641,0.00016,0.00016,0.00058,0.00041,-1e-05,-3e-05,2e-05,0.00032,6,22
30642,0.00016,0.00016,0.00058,0.00041,-1e-05,-3e-05,2e-05,0.00032,6,22
30643,-0.00021,-0.0003,-0.00012,-0.00013,-8e-05,-8e-05,-7e-05,-0.0001,6,22
30644,-0.00021,-0.0003,-0.00012,-0.00013,-8e-05,-8e-05,-7e-05,-0.0001,6,22
30645,-0.00021,-0.0003,-0.00012,-0.00013,-8e-05,-8e-05,-7e-05,-0.0001,6,22
30646,-0.00021,-0.0003,-0.00012,-0.00013,-8e-05,-8e-05,-7e-05,-0.0001,6,22
30647,-0.00021,-0.0003,-0.00012,-0.00013,-8e-05,-8e-05,-7e-05,-0.0001,6,22
30648,-0.00021,-0.0003,-0.00012,-0.00013,-8e-05,-8e-05,-7e-05,-0.0001,6,22
30649,-0.00021,-0.0003,-0.00012,-0.00013,-8e-05,-8e-05,-7e-05,-0.0001,6,22
30650,-0.00021,-0.0003,-0.00012,-0.00013,-8e-05,-8e-05,-7e-05,-0.0001,6,22
30651,-0.00021,-0.0003,-0.00012,-0.00013,-8e-05,-8e-05,-7e-05,-0.0001,6,22
30652,0.00031,0.00066,-9e-05,-0.00032,0,0,3e-05,0.0002,6,22
30653,0.00031,0.00066,-9e-05,-0.00032,0,0,3e-05,0.0002,6,22
30654,0.00031,0.00066,-9e-05,-0.00032,0,0,3e-05,0.0002,6,22
30655,0.00031,0.00066,-9e-05,-0.00032,0,0,3e-05,0.0002,6,22
30656,0.00031,0.00066,-9e-05,-0.00032,0,0,3e-05,0.0002,6,22
30657,0.00031,0.00066,-9e-05,-0.00032,0,0,3e-05,0.0002,6,22
30658,0.00031,0.00066,-9e-05,-0.00032,0,0,3e-05,0.0002,6,22
30659,0.00031,0.00066,-9e-05,-0.00032,0,0,3e-05,0.0002,6,22
30660,0.00031,0.00066,-9e-05,-0.00032,0,0,3e-05,0.0002,6,22
30661,0.00031,0.00066,-9e-05,-0.00032,0,0,3e-05,0.0002,6,22
30662,0.00031,0.00066,-9e-05,-0.00032,0,0,3e-05,0.0002,6,22
30663,0.00031,0.00066,-9e-05,-0.00032,0,0,3e-05,0.0002,6,22
30664,0.00031,0.00066,-9e-05,-0.00032,0,0,3e-05,0.0002,6,22
30665,0.00031,0.00066,-9e-05,-0.00032,0,0,3e-05,0.0002,6,22
30666,0.00031,0.00066,-9e-05,-0.00032,0,0,3e-05,0.0002,6,22
30667,-0.0002,-0.00024,-0.00013,4e-05,-3e-05,-2e-05,-2e-05,2e-05,6,22
30668,-0.0002,-0.00024,-0.00013,4e-05,-3e-05,-2e-05,-2e-05,2e-05,6,22
30669,-0.0002,-0.00024,-0.00013,4e-05,-3e-05,-2e-05,-2e-05,2e-05,6,22
30670,-0.0002,-0.00024,-0.00013,4e-05,-3e-05,-2e-05,-2e-05,2e-05,6,22
30671,-0.0002,-0.00024,-0.00013,4e-05,-3e-05,-2e-05,-2e-05,2e-05,6,22
30672,-0.0002,-0.00024,-0.00013,4e-05,-3e-05,-2e-05,-2e-05,2e-05,6,22
30673,-0.0002,-0.00024,-0.00013,4e-05,-3e-05,-2e-05,-2e-05,2e-05,6,22
30674,-0.0002,-0.00024,-0.00013,4e-05,-3e-05,-2e-05,-2e-05,2e-05,6,22
30675,-0.0002,-0.00024,-0.00013,4e-05,-3e-05,-2e-05,-2e-05,2e-05,6,22
30676,-0.0002,-0.00024,-0.00013,4e-05,-3e-05,-2e-05,-2e-05,2e-05,6,22
30677,-0.0002,-0.00024,-0.00013,4e-05,-3e-05,-2e-05,-2e-05,2e-05,6,22
30678,-0.0002,-0.00024,-0.00013,4e-05,-3e-05,-2e-05,-2e-05,2e-05,6,22
30679,-0.0002,-0.00024,-0.00013,4e-05,-3e-05,-2e-05,-2e-05,2e-05,6,22
30680,-0.0002,-0.00024,-0.00013,4e-05,-3e-05,-2e-05,-2e-05,2e-05,6,22
30681,-0.0002,-0.00024,-0.00013,4e-05,-3e-05,-2e-05,-2e-05,2e-05,6,22
30682,-0.0002,-0.00024,-0.00013,4e-05,-3e-05,-2e-05,-2e-05,2e-05,6,22
30683,-0.0002,-0.00024,-0.00013,4e-05,-3e-05,-2e-05,-2e-05,2e-05,6,22
30684,-0.0002,-0.00024,-0.00013,4e-05,-3e-05,-2e-05,-2e-05,2e-05,6,22
30685,-0.0002,-0.00024,-0.00013,4e-05,-3e-05,-2e-05,-2e-05,2e-05,6,22
30686,-0.0002,-0.00024,-0.00013,4e-05,-3e-05,-2e-05,-2e-05,2e-05,6,22
30688,-0.0002,-0.00024,-0.00013,4e-05,-3e-05,-2e-05,-2e-05,2e-05,6,22
30689,2e-05,6e-05,0.00024,2e-05,-2e-05,-1e-05,2e-05,-3e-05,6,22
30690,3e-05,-7e-05,-0.00018,8e-05,1e-05,4e-05,1e-05,-4e-05,6,22
30691,3e-05,-7e-05,-0.00018,8e-05,1e-05,4e-05,1e-05,-4e-05,6,22
30692,3e-05,-7e-05,-0.00018,8e-05,1e-05,4e-05,1e-05,-4e-05,6,22
30693,3e-05,-7e-05,-0.00018,8e-05,1e-05,4e-05,1e-05,-4e-05,6,22
30694,3e-05,-7e-05,-0.00018,8e-05,1e-05,4e-05,1e-05,-4e-05,6,22
30695,3e-05,-7e-05,-0.00018,8e-05,1e-05,4e-05,1e-05,-4e-05,6,22
30696,3e-05,-7e-05,-0.00018,8e-05,1e-05,4e-05,1e-05,-4e-05,6,22
30697,3e-05,-7e-05,-0.00018,8e-05,1e-05,4e-05,1e-05,-4e-05,6,22
30698,3e-05,-7e-05,-0.00018,8e-05,1e-05,4e-05,1e-05,-4e-05,6,22
30699,3e-05,-7e-05,-0.00018,8e-05,1e-05,4e-05,1e-05,-4e-05,6,22
30700,3e-05,-7e-05,-0.00018,8e-05,1e-05,4e-05,1e-05,-4e-05,6,22
30701,3e-05,-7e-05,-0.00018,8e-05,1e-05,4e-05,1e-05,-4e-05,6,22
30702,3e-05,-7e-05,-0.00018,8e-05,1e-05,4e-05,1e-05,-4e-05,6,22
30703,3e-05,-7e-05,-0.00018,8e-05,1e-05,4e-05,1e-05,-4e-05,6,22
30704,3e-05,-7e-05,-0.00018,8e-05,1e-05,4e-05,1e-05,-4e-05,6,22
30705,3e-05,-7e-05,-0.00018,8e-05,1e-05,4e-05,1e-05,-4e-05,6,22
30706,3e-05,-7e-05,-0.00018,8e-05,1e-05,4e-05,1e-05,-4e-05,6,22
30707,3e-05,-7e-05,-0.00018,8e-05,1e-05,4e-05,1e-05,-4e-05,6,22
30708,3e-05,-7e-05,-0.00018,8e-05,1e-05,4e-05,1e-05,-4e-05,6,22
30709,3e-05,-7e-05,-0.00018,8e-05,1e-05,4e-05,1e-05,-4e-05,6,22
30710,3e-05,-7e-05,-0.00018,8e-05,1e-05,4e-05,1e-05,-4e-05,6,22
30711,3e-05,-7e-05,-0.00018,8e-05,1e-05,4e-05,1e-05,-4e-05,6,22
30712,-0.0002,-0.00025,-0.00017,-6e-05,-9e-05,-0.0001,-8e-05,-2e-05,6,22
30713,-6e-05,-6e-05,0.00018,0.00016,5e-05,2e-05,1e-05,2e-05,6,22
30714,-0.00031,1e-05,-0.00027,-0.00021,1e-05,-1e-05,1e-05,-0.00013,6,22
30715,-0.00031,1e-05,-0.00027,-0.00021,1e-05,-1e-05,1e-05,-0.00013,6,22
30716,-0.00031,1e-05,-0.00027,-0.00021,1e-05,-1e-05,1e-05,-0.00013,6,22
30717,-0.00031,1e-05,-0.00027,-0.00021,1e-05,-1e-05,1e-05,-0.00013,6,22
30718,-0.00031,1e-05,-0.00027,-0.00021,1e-05,-1e-05,1e-05,-0.00013,6,22
30719,-0.00031,1e-05,-0.00027,-0.00021,1e-05,-1e-05,1e-05,-0.00013,6,22
30720,-0.00031,1e-05,-0.00027,-0.00021,1e-05,-1e-05,1e-05,-0.00013,6,22
30721,-0.00031,1e-05,-0.00027,-0.00021,1e-05,-1e-05,1e-05,-0.00013,6,22
30722,-0.00031,1e-05,-0.00027,-0.00021,1e-05,-1e-05,1e-05,-0.00013,6,22
30723,-0.00031,1e-05,-0.00027,-0.00021,1e-05,-1e-05,1e-05,-0.00013,6,22
30724,-0.00031,1e-05,-0.00027,-0.00021,1e-05,-1e-05,1e-05,-0.00013,6,22
30725,-0.00031,1e-05,-0.00027,-0.00021,1e-05,-1e-05,1e-05,-0.00013,6,22
30726,-0.00031,1e-05,-0.00027,-0.00021,1e-05,-1e-05,1e-05,-0.00013,6,22
30727,-5e-05,-0.00015,-0.00021,-0.00011,-8e-05,-3e-05,-4e-05,-9e-05,6,22
30728,-5e-05,-0.00015,-0.00021,-0.00011,-8e-05,-3e-05,-4e-05,-9e-05,6,22
30729,-5e-05,-0.00015,-0.00021,-0.00011,-8e-05,-3e-05,-4e-05,-9e-05,6,22
30730,-5e-05,-0.00015,-0.00021,-0.00011,-8e-05,-3e-05,-4e-05,-9e-05,6,22
30731,-5e-05,-0.00015,-0.00021,-0.00011,-8e-05,-3e-05,-4e-05,-9e-05,6,22
30732,-5e-05,-0.00015,-0.00021,-0.00011,-8e-05,-3e-05,-4e-05,-9e-05,6,22
30733,-5e-05,-0.00015,-0.00021,-0.00011,-8e-05,-3e-05,-4e-05,-9e-05,6,22
30734,-5e-05,-0.00015,-0.00021,-0.00011,-8e-05,-3e-05,-4e-05,-9e-05,6,22
30735,-5e-05,-0.00015,-0.00021,-0.00011,-8e-05,-3e-05,-4e-05,-9e-05,6,22
30736,-5e-05,-0.00015,-0.00021,-0.00011,-8e-05,-3e-05,-4e-05,-9e-05,6,22
30738,-5e-05,-0.00015,-0.00021,-0.00011,-8e-05,-3e-05,-4e-05,-9e-05,6,22
30739,-5e-05,-0.00015,-0.00021,-0.00011,-8e-05,-3e-05,-4e-05,-9e-05,6,22
30740,-5e-05,-0.00015,-0.00021,-0.00011,-8e-05,-3e-05,-4e-05,-9e-05,6,22
30741,-5e-05,-0.00015,-0.00021,-0.00011,-8e-05,-3e-05,-4e-05,-9e-05,6,22
30742,-5e-05,-0.00015,-0.00021,-0.00011,-8e-05,-3e-05,-4e-05,-9e-05,6,22
30743,-5e-05,-0.00015,-0.00021,-0.00011,-8e-05,-3e-05,-4e-05,-9e-05,6,22
30744,-5e-05,-0.00015,-0.00021,-0.00011,-8e-05,-3e-05,-4e-05,-9e-05,6,22
30745,-5e-05,-0.00015,-0.00021,-0.00011,-8e-05,-3e-05,-4e-05,-9e-05,6,22
30746,-5e-05,-0.00015,-0.00021,-0.00011,-8e-05,-3e-05,-4e-05,-9e-05,6,22
30747,-5e-05,-0.00015,-0.00021,-0.00011,-8e-05,-3e-05,-4e-05,-9e-05,6,22
30748,-5e-05,-0.00015,-0.00021,-0.00011,-8e-05,-3e-05,-4e-05,-9e-05,6,22
30749,-0.00033,-9e-05,-0.00023,-0.00024,-2e-05,0,0,-7e-05,6,22
30750,-4e-05,-0.0002,-3e-05,7e-05,-3e-05,-4e-05,-3e-05,6e-05,6,22
30751,-4e-05,-0.0002,-3e-05,7e-05,-3e-05,-4e-05,-3e-05,6e-05,6,22
30752,-4e-05,-0.0002,-3e-05,7e-05,-3e-05,-4e-05,-3e-05,6e-05,6,22
30753,-4e-05,-0.0002,-3e-05,7e-05,-3e-05,-4e-05,-3e-05,6e-05,6,22
30754,-4e-05,-0.0002,-3e-05,7e-05,-3e-05,-4e-05,-3e-05,6e-05,6,22
30755,-4e-05,-0.0002,-3e-05,7e-05,-3e-05,-4e-05,-3e-05,6e-05,6,22
30756,-4e-05,-0.0002,-3e-05,7e-05,-3e-05,-4e-05,-3e-05,6e-05,6,22
30757,-4e-05,-0.0002,-3e-05,7e-05,-3e-05,-4e-05,-3e-05,6e-05,6,22
30758,-4e-05,-0.0002,-3e-05,7e-05,-3e-05,-4e-05,-3e-05,6e-05,6,22
30759,-4e-05,-0.0002,-3e-05,7e-05,-3e-05,-4e-05,-3e-05,6e-05,6,22
30760,-4e-05,-0.0002,-3e-05,7e-05,-3e-05,-4e-05,-3e-05,6e-05,6,22
30761,-4e-05,-0.0002,-3e-05,7e-05,-3e-05,-4e-05,-3e-05,6e-05,6,22
30762,-4e-05,-0.0002,-3e-05,7e-05,-3e-05,-4e-05,-3e-05,6e-05,6,22
30763,-4e-05,-0.0002,-3e-05,7e-05,-3e-05,-4e-05,-3e-05,6e-05,6,22
30764,-4e-05,-0.0002,-3e-05,7e-05,-3e-05,-4e-05,-3e-05,6e-05,6,22
30765,-4e-05,-0.0002,-3e-05,7e-05,-3e-05,-4e-05,-3e-05,6e-05,6,22
30766,-4e-05,-0.0002,-3e-05,7e-05,-3e-05,-4e-05,-3e-05,6e-05,6,22
30767,-4e-05,-0.0002,-3e-05,7e-05,-3e-05,-4e-05,-3e-05,6e-05,6,22
30768,-4e-05,-0.0002,-3e-05,7e-05,-3e-05,-4e-05,-3e-05,6e-05,6,22
30769,-4e-05,-0.0002,-3e-05,7e-05,-3e-05,-4e-05,-3e-05,6e-05,6,22
30770,-4e-05,-0.0002,-3e-05,7e-05,-3e-05,-4e-05,-3e-05,6e-05,6,22
30771,-4e-05,-0.0002,-3e-05,7e-05,-3e-05,-4e-05,-3e-05,6e-05,6,22
30772,1e-05,-9e-05,-0.00014,-5e-05,3e-05,0,-2e-05,-9e-05,6,22
30773,-0.00018,-0.00022,-0.00083,-0.00061,-7e-05,-1e-05,-3e-05,-4e-05,6,22
30774,-0.00018,-0.00022,-0.00083,-0.00061,-7e-05,-1e-05,-3e-05,-4e-05,6,22
30775,-0.00018,-0.00022,-0.00083,-0.00061,-7e-05,-1e-05,-3e-05,-4e-05,6,22
30776,-0.00018,-0.00022,-0.00083,-0.00061,-7e-05,-1e-05,-3e-05,-4e-05,6,22
30777,-0.00018,-0.00022,-0.00083,-0.00061,-7e-05,-1e-05,-3e-05,-4e-05,6,22
30778,-0.00018,-0.00022,-0.00083,-0.00061,-7e-05,-1e-05,-3e-05,-4e-05,6,22
30779,-0.00018,-0.00022,-0.00083,-0.00061,-7e-05,-1e-05,-3e-05,-4e-05,6,22
30780,-0.00018,-0.00022,-0.00083,-0.00061,-7e-05,-1e-05,-3e-05,-4e-05,6,22
30781,-0.00018,-0.00022,-0.00083,-0.00061,-7e-05,-1e-05,-3e-05,-4e-05,6,22
30782,-0.00018,-0.00022,-0.00083,-0.00061,-7e-05,-1e-05,-3e-05,-4e-05,6,22
30783,-0.00018,-0.00022,-0.00083,-0.00061,-7e-05,-1e-05,-3e-05,-4e-05,6,22
30784,-0.00018,-0.00022,-0.00083,-0.00061,-7e-05,-1e-05,-3e-05,-4e-05,6,22
30785,-0.00018,-0.00022,-0.00083,-0.00061,-7e-05,-1e-05,-3e-05,-4e-05,6,22
30786,-0.00018,-0.00022,-0.00083,-0.00061,-7e-05,-1e-05,-3e-05,-4e-05,6,22
30788,0.00017,-8e-05,0.00034,0.00011,4e-05,-2e-05,2e-05,3e-05,6,22
30789,0.00017,-8e-05,0.00034,0.00011,4e-05,-2e-05,2e-05,3e-05,6,22
30790,0.00017,-8e-05,0.00034,0.00011,4e-05,-2e-05,2e-05,3e-05,6,22
30791,0.00017,-8e-05,0.00034,0.00011,4e-05,-2e-05,2e-05,3e-05,6,22
30792,0.00017,-8e-05,0.00034,0.00011,4e-05,-2e-05,2e-05,3e-05,6,22
30793,0.00017,-8e-05,0.00034,0.00011,4e-05,-2e-05,2e-05,3e-05,6,22
30794,0.00017,-8e-05,0.00034,0.00011,4e-05,-2e-05,2e-05,3e-05,6,22
30795,0.00017,-8e-05,0.00034,0.00011,4e-05,-2e-05,2e-05,3e-05,6,22
30796,0.00017,-8e-05,0.00034,0.00011,4e-05,-2e-05,2e-05,3e-05,6,22
30797,0.00017,-8e-05,0.00034,0.00011,4e-05,-2e-05,2e-05,3e-05,6,22
30798,0.00017,-8e-05,0.00034,0.00011,4e-05,-2e-05,2e-05,3e-05,6,22
30799,0.00017,-8e-05,0.00034,0.00011,4e-05,-2e-05,2e-05,3e-05,6,22
30800,0.00017,-8e-05,0.00034,0.00011,4e-05,-2e-05,2e-05,3e-05,6,22
30801,0.00017,-8e-05,0.00034,0.00011,4e-05,-2e-05,2e-05,3e-05,6,22
30802,0.00017,-8e-05,0.00034,0.00011,4e-05,-2e-05,2e-05,3e-05,6,22
30803,0.00017,-8e-05,0.00034,0.00011,4e-05,-2e-05,2e-05,3e-05,6,22
30804,0.00017,-8e-05,0.00034,0.00011,4e-05,-2e-05,2e-05,3e-05,6,22
30805,0.00017,-8e-05,0.00034,0.00011,4e-05,-2e-05,2e-05,3e-05,6,22
30806,0.00017,-8e-05,0.00034,0.00011,4e-05,-2e-05,2e-05,3e-05,6,22
30807,0.00017,-8e-05,0.00034,0.00011,4e-05,-2e-05,2e-05,3e-05,6,22
30808,0.00017,-8e-05,0.00034,0.00011,4e-05,-2e-05,2e-05,3e-05,6,22
30809,-7e-05,-0.00021,-0.00055,-0.00024,-8e-05,-1e-05,0,0.00018,6,22
30810,0.00011,0.00019,0.00038,8e-05,0,-1e-05,-2e-05,1e-05,6,22
30811,0.00011,0.00019,0.00038,8e-05,0,-1e-05,-2e-05,1e-05,6,22
30812,0.00011,0.00019,0.00038,8e-05,0,-1e-05,-2e-05,1e-05,6,22
30813,0.00011,0.00019,0.00038,8e-05,0,-1e-05,-2e-05,1e-05,6,22
30814,0.00011,0.00019,0.00038,8e-05,0,-1e-05,-2e-05,1e-05,6,22
30815,0.00011,0.00019,0.00038,8e-05,0,-1e-05,-2e-05,1e-05,6,22
30816,0.00011,0.00019,0.00038,8e-05,0,-1e-05,-2e-05,1e-05,6,22
30817,0.00011,0.00019,0.00038,8e-05,0,-1e-05,-2e-05,1e-05,6,22
30818,0.00011,0.00019,0.00038,8e-05,0,-1e-05,-2e-05,1e-05,6,22
30819,0.00011,0.00019,0.00038,8e-05,0,-1e-05,-2e-05,1e-05,6,22
30820,0.00011,0.00019,0.00038,8e-05,0,-1e-05,-2e-05,1e-05,6,22
30821,0.00011,0.00019,0.00038,8e-05,0,-1e-05,-2e-05,1e-05,6,22
30822,0.00011,0.00019,0.00038,8e-05,0,-1e-05,-2e-05,1e-05,6,22
30823,0.00011,0.00019,0.00038,8e-05,0,-1e-05,-2e-05,1e-05,6,22
30824,0.00011,0.00019,0.00038,8e-05,0,-1e-05,-2e-05,1e-05,6,22
30825,0.00011,0.00019,0.00038,8e-05,0,-1e-05,-2e-05,1e-05,6,22
30826,0.00011,0.00019,0.00038,8e-05,0,-1e-05,-2e-05,1e-05,6,22
30827,0.00011,0.00019,0.00038,8e-05,0,-1e-05,-2e-05,1e-05,6,22
30828,0.00011,0.00019,0.00038,8e-05,0,-1e-05,-2e-05,1e-05,6,22
30829,0.00011,0.00019,0.00038,8e-05,0,-1e-05,-2e-05,1e-05,6,22
30830,0.00011,0.00019,0.00038,8e-05,0,-1e-05,-2e-05,1e-05,6,22
30831,0.00011,0.00019,0.00038,8e-05,0,-1e-05,-2e-05,1e-05,6,22
30832,-2e-05,0.00015,0.00028,-3e-05,4e-05,3e-05,3e-05,0.0001,6,22
30833,1e-05,-8e-05,0.00018,7e-05,0,0,-1e-05,-2e-05,6,22
30834,1e-05,-8e-05,0.00018,7e-05,0,0,-1e-05,-2e-05,6,22
30835,1e-05,-8e-05,0.00018,7e-05,0,0,-1e-05,-2e-05,6,22
30836,1e-05,-8e-05,0.00018,7e-05,0,0,-1e-05,-2e-05,6,22
30838,1e-05,-8e-05,0.00018,7e-05,0,0,-1e-05,-2e-05,6,22
30839,1e-05,-8e-05,0.00018,7e-05,0,0,-1e-05,-2e-05,6,22
30840,1e-05,-8e-05,0.00018,7e-05,0,0,-1e-05,-2e-05,6,22
30841,1e-05,-8e-05,0.00018,7e-05,0,0,-1e-05,-2e-05,6,22
30842,1e-05,-8e-05,0.00018,7e-05,0,0,-1e-05,-2e-05,6,22
30843,1e-05,-8e-05,0.00018,7e-05,0,0,-1e-05,-2e-05,6,22
30844,1e-05,-8e-05,0.00018,7e-05,0,0,-1e-05,-2e-05,6,22
30845,1e-05,-8e-05,0.00018,7e-05,0,0,-1e-05,-2e-05,6,22
30846,1e-05,-8e-05,0.00018,7e-05,0,0,-1e-05,-2e-05,6,22
30847,-0.00013,-0.00031,0.00057,8e-05,-5e-05,-5e-05,-3e-05,-0.00021,6,22
30848,-0.00013,-0.00031,0.00057,8e-05,-5e-05,-5e-05,-3e-05,-0.00021,6,22
30849,-0.00013,-0.00031,0.00057,8e-05,-5e-05,-5e-05,-3e-05,-0.00021,6,22
30850,-0.00013,-0.00031,0.00057,8e-05,-5e-05,-5e-05,-3e-05,-0.00021,6,22
30851,-0.00013,-0.00031,0.00057,8e-05,-5e-05,-5e-05,-3e-05,-0.00021,6,22
30852,-0.00013,-0.00031,0.00057,8e-05,-5e-05,-5e-05,-3e-05,-0.00021,6,22
30853,-0.00013,-0.00031,0.00057,8e-05,-5e-05,-5e-05,-3e-05,-0.00021,6,22
30855,-0.00013,-0.00031,0.00057,8e-05,-5e-05,-5e-05,-3e-05,-0.00021,6,22
30856,-0.00013,-0.00031,0.00057,8e-05,-5e-05,-5e-05,-3e-05,-0.00021,6,22
30857,-0.00013,-0.00031,0.00057,8e-05,-5e-05,-5e-05,-3e-05,-0.00021,6,22
30858,-0.00013,-0.00031,0.00057,8e-05,-5e-05,-5e-05,-3e-05,-0.00021,6,22
30859,-0.00013,-0.00031,0.00057,8e-05,-5e-05,-5e-05,-3e-05,-0.00021,6,22
30860,-0.00013,-0.00031,0.00057,8e-05,-5e-05,-5e-05,-3e-05,-0.00021,6,22
30861,-0.00013,-0.00031,0.00057,8e-05,-5e-05,-5e-05,-3e-05,-0.00021,6,22
30862,-0.00013,-0.00031,0.00057,8e-05,-5e-05,-5e-05,-3e-05,-0.00021,6,22
30863,-0.00013,-0.00031,0.00057,8e-05,-5e-05,-5e-05,-3e-05,-0.00021,6,22
30864,-0.00013,-0.00031,0.00057,8e-05,-5e-05,-5e-05,-3e-05,-0.00021,6,22
30865,-0.00013,-0.00031,0.00057,8e-05,-5e-05,-5e-05,-3e-05,-0.00021,6,22
30866,-0.00013,-0.00031,0.00057,8e-05,-5e-05,-5e-05,-3e-05,-0.00021,6,22
30867,-0.00013,-0.00031,0.00057,8e-05,-5e-05,-5e-05,-3e-05,-0.00021,6,22
30868,-0.00013,-0.00031,0.00057,8e-05,-5e-05,-5e-05,-3e-05,-0.00021,6,22
30869,0.00014,8e-05,0.00018,0.00011,-3e-05,-4e-05,-2e-05,-1e-05,6,22
30870,0.00023,2e-05,0.00012,0.00026,1e-05,1e-05,3e-05,0.0004,6,22
30871,0.00023,2e-05,0.00012,0.00026,1e-05,1e-05,3e-05,0.0004,6,22
30872,0.00023,2e-05,0.00012,0.00026,1e-05,1e-05,3e-05,0.0004,6,22
30873,0.00023,2e-05,0.00012,0.00026,1e-05,1e-05,3e-05,0.0004,6,22
30874,0.00023,2e-05,0.00012,0.00026,1e-05,1e-05,3e-05,0.0004,6,22
30875,0.00023,2e-05,0.00012,0.00026,1e-05,1e-05,3e-05,0.0004,6,22
30876,0.00023,2e-05,0.00012,0.00026,1e-05,1e-05,3e-05,0.0004,6,22
30877,0.00023,2e-05,0.00012,0.00026,1e-05,1e-05,3e-05,0.0004,6,22
30878,0.00023,2e-05,0.00012,0.00026,1e-05,1e-05,3e-05,0.0004,6,22
30879,0.00023,2e-05,0.00012,0.00026,1e-05,1e-05,3e-05,0.0004,6,22
30880,0.00023,2e-05,0.00012,0.00026,1e-05,1e-05,3e-05,0.0004,6,22
30881,0.00023,2e-05,0.00012,0.00026,1e-05,1e-05,3e-05,0.0004,6,22
30882,0.00023,2e-05,0.00012,0.00026,1e-05,1e-05,3e-05,0.0004,6,22
30883,0.00023,2e-05,0.00012,0.00026,1e-05,1e-05,3e-05,0.0004,6,22
30884,0.00023,2e-05,0.00012,0.00026,1e-05,1e-05,3e-05,0.0004,6,22
30885,0.00023,2e-05,0.00012,0.00026,1e-05,1e-05,3e-05,0.0004,6,22
30886,0.00023,2e-05,0.00012,0.00026,1e-05,1e-05,3e-05,0.0004,6,22
30888,0.00023,2e-05,0.00012,0.00026,1e-05,1e-05,3e-05,0.0004,6,22
30889,0.00023,2e-05,0.00012,0.00026,1e-05,1e-05,3e-05,0.0004,6,22
30890,0.00023,2e-05,0.00012,0.00026,1e-05,1e-05,3e-05,0.0004,6,22
30891,0.00023,2e-05,0.00012,0.00026,1e-05,1e-05,3e-05,0.0004,6,22
30892,0.00031,0.00022,0.00036,9e-05,3e-05,3e-05,0,2e-05,6,22
30893,1e-05,0.0002,-0.00022,-0.00013,3e-05,3e-05,-1e-05,0.00012,6,22
30894,1e-05,0.0002,-0.00022,-0.00013,3e-05,3e-05,-1e-05,0.00012,6,22
30895,1e-05,0.0002,-0.00022,-0.00013,3e-05,3e-05,-1e-05,0.00012,6,22
30896,1e-05,0.0002,-0.00022,-0.00013,3e-05,3e-05,-1e-05,0.00012,6,22
30897,1e-05,0.0002,-0.00022,-0.00013,3e-05,3e-05,-1e-05,0.00012,6,22
30898,1e-05,0.0002,-0.00022,-0.00013,3e-05,3e-05,-1e-05,0.00012,6,22
30899,1e-05,0.0002,-0.00022,-0.00013,3e-05,3e-05,-1e-05,0.00012,6,22
30900,1e-05,0.0002,-0.00022,-0.00013,3e-05,3e-05,-1e-05,0.00012,6,22
30901,1e-05,0.0002,-0.00022,-0.00013,3e-05,3e-05,-1e-05,0.00012,6,22
30902,1e-05,0.0002,-0.00022,-0.00013,3e-05,3e-05,-1e-05,0.00012,6,22
30903,1e-05,0.0002,-0.00022,-0.00013,3e-05,3e-05,-1e-05,0.00012,6,22
30904,1e-05,0.0002,-0.00022,-0.00013,3e-05,3e-05,-1e-05,0.00012,6,22
30905,1e-05,0.0002,-0.00022,-0.00013,3e-05,3e-05,-1e-05,0.00012,6,22
30906,1e-05,0.0002,-0.00022,-0.00013,3e-05,3e-05,-1e-05,0.00012,6,22
30907,-6e-05,2e-05,0.0002,0.00011,-3e-05,-5e-05,-2e-05,-0.00013,6,22
30908,-6e-05,2e-05,0.0002,0.00011,-3e-05,-5e-05,-2e-05,-0.00013,6,22
30909,-6e-05,2e-05,0.0002,0.00011,-3e-05,-5e-05,-2e-05,-0.00013,6,22
30910,-6e-05,2e-05,0.0002,0.00011,-3e-05,-5e-05,-2e-05,-0.00013,6,22
30911,-6e-05,2e-05,0.0002,0.00011,-3e-05,-5e-05,-2e-05,-0.00013,6,22
30912,-6e-05,2e-05,0.0002,0.00011,-3e-05,-5e-05,-2e-05,-0.00013,6,22
30913,-6e-05,2e-05,0.0002,0.00011,-3e-05,-5e-05,-2e-05,-0.00013,6,22
30914,-6e-05,2e-05,0.0002,0.00011,-3e-05,-5e-05,-2e-05,-0.00013,6,22
30915,-6e-05,2e-05,0.0002,0.00011,-3e-05,-5e-05,-2e-05,-0.00013,6,22
30916,-6e-05,2e-05,0.0002,0.00011,-3e-05,-5e-05,-2e-05,-0.00013,6,22
30917,-6e-05,2e-05,0.0002,0.00011,-3e-05,-5e-05,-2e-05,-0.00013,6,22
30918,-6e-05,2e-05,0.0002,0.00011,-3e-05,-5e-05,-2e-05,-0.00013,6,22
30919,-6e-05,2e-05,0.0002,0.00011,-3e-05,-5e-05,-2e-05,-0.00013,6,22
30920,-6e-05,2e-05,0.0002,0.00011,-3e-05,-5e-05,-2e-05,-0.00013,6,22
30921,-6e-05,2e-05,0.0002,0.00011,-3e-05,-5e-05,-2e-05,-0.00013,6,22
30922,-6e-05,2e-05,0.0002,0.00011,-3e-05,-5e-05,-2e-05,-0.00013,6,22
30923,-6e-05,2e-05,0.0002,0.00011,-3e-05,-5e-05,-2e-05,-0.00013,6,22
30924,-6e-05,2e-05,0.0002,0.00011,-3e-05,-5e-05,-2e-05,-0.00013,6,22
30925,-6e-05,2e-05,0.0002,0.00011,-3e-05,-5e-05,-2e-05,-0.00013,6,22
30926,-6e-05,2e-05,0.0002,0.00011,-3e-05,-5e-05,-2e-05,-0.00013,6,22
30927,-6e-05,2e-05,0.0002,0.00011,-3e-05,-5e-05,-2e-05,-0.00013,6,22
30928,-6e-05,2e-05,0.0002,0.00011,-3e-05,-5e-05,-2e-05,-0.00013,6,22
30929,-6e-05,-5e-05,0.00073,0.00039,0,3e-05,2e-05,-2e-05,6,22
30930,3e-05,8e-05,0.00026,0.00017,4e-05,4e-05,2e-05,7e-05,6,22
30931,3e-05,8e-05,0.00026,0.00017,4e-05,4e-05,2e-05,7e-05,6,22
30932,3e-05,8e-05,0.00026,0.00017,4e-05,4e-05,2e-05,7e-05,6,22
30933,3e-05,8e-05,0.00026,0.00017,4e-05,4e-05,2e-05,7e-05,6,22
30934,3e-05,8e-05,0.00026,0.00017,4e-05,4e-05,2e-05,7e-05,6,22
30935,3e-05,8e-05,0.00026,0.00017,4e-05,4e-05,2e-05,7e-05,6,22
30936,3e-05,8e-05,0.00026,0.00017,4e-05,4e-05,2e-05,7e-05,6,22
30938,3e-05,8e-05,0.00026,0.00017,4e-05,4e-05,2e-05,7e-05,6,22
30939,3e-05,8e-05,0.00026,0.00017,4e-05,4e-05,2e-05,7e-05,6,22
30940,3e-05,8e-05,0.00026,0.00017,4e-05,4e-05,2e-05,7e-05,6,22
30941,3e-05,8e-05,0.00026,0.00017,4e-05,4e-05,2e-05,7e-05,6,22
30942,3e-05,8e-05,0.00026,0.00017,4e-05,4e-05,2e-05,7e-05,6,22
30943,3e-05,8e-05,0.00026,0.00017,4e-05,4e-05,2e-05,7e-05,6,22
30944,3e-05,8e-05,0.00026,0.00017,4e-05,4e-05,2e-05,7e-05,6,22
30945,3e-05,8e-05,0.00026,0.00017,4e-05,4e-05,2e-05,7e-05,6,22
30946,3e-05,8e-05,0.00026,0.00017,4e-05,4e-05,2e-05,7e-05,6,22
30947,3e-05,8e-05,0.00026,0.00017,4e-05,4e-05,2e-05,7e-05,6,22
30948,3e-05,8e-05,0.00026,0.00017,4e-05,4e-05,2e-05,7e-05,6,22
30949,3e-05,8e-05,0.00026,0.00017,4e-05,4e-05,2e-05,7e-05,6,22
30950,3e-05,8e-05,0.00026,0.00017,4e-05,4e-05,2e-05,7e-05,6,22
30951,3e-05,8e-05,0.00026,0.00017,4e-05,4e-05,2e-05,7e-05,6,22
30952,3e-05,8e-05,0.00026,0.00017,4e-05,4e-05,2e-05,7e-05,6,22
30953,-6e-05,-0.00029,-8e-05,-0.0002,1e-05,2e-05,0,-0.00011,6,22
30954,1e-05,0.00014,0.00059,0.00019,0,-4e-05,-7e-05,-7e-05,6,22
30955,1e-05,0.00014,0.00059,0.00019,0,-4e-05,-7e-05,-7e-05,6,22
30956,1e-05,0.00014,0.00059,0.00019,0,-4e-05,-7e-05,-7e-05,6,22
30957,1e-05,0.00014,0.00059,0.00019,0,-4e-05,-7e-05,-7e-05,6,22
30958,1e-05,0.00014,0.00059,0.00019,0,-4e-05,-7e-05,-7e-05,6,22
30959,1e-05,0.00014,0.00059,0.00019,0,-4e-05,-7e-05,-7e-05,6,22
30960,1e-05,0.00014,0.00059,0.00019,0,-4e-05,-7e-05,-7e-05,6,22
30961,1e-05,0.00014,0.00059,0.00019,0,-4e-05,-7e-05,-7e-05,6,22
30962,1e-05,0.00014,0.00059,0.00019,0,-4e-05,-7e-05,-7e-05,6,22
30963,1e-05,0.00014,0.00059,0.00019,0,-4e-05,-7e-05,-7e-05,6,22
30964,1e-05,0.00014,0.00059,0.00019,0,-4e-05,-7e-05,-7e-05,6,22
30965,1e-05,0.00014,0.00059,0.00019,0,-4e-05,-7e-05,-7e-05,6,22
30966,1e-05,0.00014,0.00059,0.00019,0,-4e-05,-7e-05,-7e-05,6,22
30967,-6e-05,1e-05,-5e-05,0.00022,0,0,1e-05,-4e-05,6,22
30968,-6e-05,1e-05,-5e-05,0.00022,0,0,1e-05,-4e-05,6,22
30969,-6e-05,1e-05,-5e-05,0.00022,0,0,1e-05,-4e-05,6,22
30970,-6e-05,1e-05,-5e-05,0.00022,0,0,1e-05,-4e-05,6,22
30971,-6e-05,1e-05,-5e-05,0.00022,0,0,1e-05,-4e-05,6,22
30972,-6e-05,1e-05,-5e-05,0.00022,0,0,1e-05,-4e-05,6,22
30973,-6e-05,1e-05,-5e-05,0.00022,0,0,1e-05,-4e-05,6,22
30975,-6e-05,1e-05,-5e-05,0.00022,0,0,1e-05,-4e-05,6,22
30976,-6e-05,1e-05,-5e-05,0.00022,0,0,1e-05,-4e-05,6,22
30977,-6e-05,1e-05,-5e-05,0.00022,0,0,1e-05,-4e-05,6,22
30978,-6e-05,1e-05,-5e-05,0.00022,0,0,1e-05,-4e-05,6,22
30979,-6e-05,1e-05,-5e-05,0.00022,0,0,1e-05,-4e-05,6,22
30980,-6e-05,1e-05,-5e-05,0.00022,0,0,1e-05,-4e-05,6,22
30981,-6e-05,1e-05,-5e-05,0.00022,0,0,1e-05,-4e-05,6,22
30982,-6e-05,1e-05,-5e-05,0.00022,0,0,1e-05,-4e-05,6,22
30983,-6e-05,1e-05,-5e-05,0.00022,0,0,1e-05,-4e-05,6,22
30984,-6e-05,1e-05,-5e-05,0.00022,0,0,1e-05,-4e-05,6,22
30985,-6e-05,1e-05,-5e-05,0.00022,0,0,1e-05,-4e-05,6,22
30986,-6e-05,1e-05,-5e-05,0.00022,0,0,1e-05,-4e-05,6,22
30988,-6e-05,1e-05,-5e-05,0.00022,0,0,1e-05,-4e-05,6,22
30989,0.00018,7e-05,0.00013,3e-05,1e-05,0,1e-05,2e-05,6,22
30990,-0.00012,-0.00013,-0.00037,-0.00024,0,1e-05,2e-05,-0.0001,6,22
30991,-0.00012,-0.00013,-0.00037,-0.00024,0,1e-05,2e-05,-0.0001,6,22
30992,-0.00012,-0.00013,-0.00037,-0.00024,0,1e-05,2e-05,-0.0001,6,22
30993,-0.00012,-0.00013,-0.00037,-0.00024,0,1e-05,2e-05,-0.0001,6,22
30994,-0.00012,-0.00013,-0.00037,-0.00024,0,1e-05,2e-05,-0.0001,6,22
30995,-0.00012,-0.00013,-0.00037,-0.00024,0,1e-05,2e-05,-0.0001,6,22
30996,-0.00012,-0.00013,-0.00037,-0.00024,0,1e-05,2e-05,-0.0001,6,22
30997,-0.00012,-0.00013,-0.00037,-0.00024,0,1e-05,2e-05,-0.0001,6,22
30998,-0.00012,-0.00013,-0.00037,-0.00024,0,1e-05,2e-05,-0.0001,6,22
30999,-0.00012,-0.00013,-0.00037,-0.00024,0,1e-05,2e-05,-0.0001,6,22
31000,-0.00012,-0.00013,-0.00037,-0.00024,0,1e-05,2e-05,-0.0001,6,22
31001,-0.00012,-0.00013,-0.00037,-0.00024,0,1e-05,2e-05,-0.0001,6,22
31002,-0.00012,-0.00013,-0.00037,-0.00024,0,1e-05,2e-05,-0.0001,6,22
31003,-0.00012,-0.00013,-0.00037,-0.00024,0,1e-05,2e-05,-0.0001,6,22
31004,-0.00012,-0.00013,-0.00037,-0.00024,0,1e-05,2e-05,-0.0001,6,22
31005,-0.00012,-0.00013,-0.00037,-0.00024,0,1e-05,2e-05,-0.0001,6,22
31006,-0.00012,-0.00013,-0.00037,-0.00024,0,1e-05,2e-05,-0.0001,6,22
31007,-0.00012,-0.00013,-0.00037,-0.00024,0,1e-05,2e-05,-0.0001,6,22
31008,-0.00012,-0.00013,-0.00037,-0.00024,0,1e-05,2e-05,-0.0001,6,22
31009,-0.00012,-0.00013,-0.00037,-0.00024,0,1e-05,2e-05,-0.0001,6,22
31010,-0.00012,-0.00013,-0.00037,-0.00024,0,1e-05,2e-05,-0.0001,6,22
31011,-0.00012,-0.00013,-0.00037,-0.00024,0,1e-05,2e-05,-0.0001,6,22
31012,-3e-05,-0.00011,-0.00048,-0.00018,-7e-05,-5e-05,-2e-05,-0.00014,6,22
31014,-3e-05,-0.00011,-0.00048,-0.00018,-7e-05,-5e-05,-2e-05,-0.00014,6,22
31015,-3e-05,-0.00011,-0.00048,-0.00018,-7e-05,-5e-05,-2e-05,-0.00014,6,22
31016,-3e-05,-0.00011,-0.00048,-0.00018,-7e-05,-5e-05,-2e-05,-0.00014,6,22
31017,-3e-05,-0.00011,-0.00048,-0.00018,-7e-05,-5e-05,-2e-05,-0.00014,6,22
31018,-3e-05,-0.00011,-0.00048,-0.00018,-7e-05,-5e-05,-2e-05,-0.00014,6,22
31019,-3e-05,-0.00011,-0.00048,-0.00018,-7e-05,-5e-05,-2e-05,-0.00014,6,22
31020,-3e-05,-0.00011,-0.00048,-0.00018,-7e-05,-5e-05,-2e-05,-0.00014,6,22
31021,-3e-05,-0.00011,-0.00048,-0.00018,-7e-05,-5e-05,-2e-05,-0.00014,6,22
31022,-3e-05,-0.00011,-0.00048,-0.00018,-7e-05,-5e-05,-2e-05,-0.00014,6,22
31023,-3e-05,-0.00011,-0.00048,-0.00018,-7e-05,-5e-05,-2e-05,-0.00014,6,22
31024,-3e-05,-0.00011,-0.00048,-0.00018,-7e-05,-5e-05,-2e-05,-0.00014,6,22
31025,-3e-05,-0.00011,-0.00048,-0.00018,-7e-05,-5e-05,-2e-05,-0.00014,6,22
31026,-7e-05,-4e-05,0.00033,0.00015,4e-05,2e-05,3e-05,7e-05,6,22
31027,4e-05,0.0001,0.00017,-1e-05,5e-05,7e-05,3e-05,0.00012,6,22
31028,4e-05,0.0001,0.00017,-1e-05,5e-05,7e-05,3e-05,0.00012,6,22
31029,4e-05,0.0001,0.00017,-1e-05,5e-05,7e-05,3e-05,0.00012,6,22
31030,4e-05,0.0001,0.00017,-1e-05,5e-05,7e-05,3e-05,0.00012,6,22
31031,4e-05,0.0001,0.00017,-1e-05,5e-05,7e-05,3e-05,0.00012,6,22
31032,4e-05,0.0001,0.00017,-1e-05,5e-05,7e-05,3e-05,0.00012,6,22
31033,4e-05,0.0001,0.00017,-1e-05,5e-05,7e-05,3e-05,0.00012,6,22
31034,4e-05,0.0001,0.00017,-1e-05,5e-05,7e-05,3e-05,0.00012,6,22
31035,4e-05,0.0001,0.00017,-1e-05,5e-05,7e-05,3e-05,0.00012,6,22
31036,4e-05,0.0001,0.00017,-1e-05,5e-05,7e-05,3e-05,0.00012,6,22
31038,4e-05,0.0001,0.00017,-1e-05,5e-05,7e-05,3e-05,0.00012,6,22
31039,4e-05,0.0001,0.00017,-1e-05,5e-05,7e-05,3e-05,0.00012,6,22
31040,4e-05,0.0001,0.00017,-1e-05,5e-05,7e-05,3e-05,0.00012,6,22
31041,4e-05,0.0001,0.00017,-1e-05,5e-05,7e-05,3e-05,0.00012,6,22
31042,4e-05,0.0001,0.00017,-1e-05,5e-05,7e-05,3e-05,0.00012,6,22
31043,4e-05,0.0001,0.00017,-1e-05,5e-05,7e-05,3e-05,0.00012,6,22
31044,4e-05,0.0001,0.00017,-1e-05,5e-05,7e-05,3e-05,0.00012,6,22
31045,4e-05,0.0001,0.00017,-1e-05,5e-05,7e-05,3e-05,0.00012,6,22
31046,4e-05,0.0001,0.00017,-1e-05,5e-05,7e-05,3e-05,0.00012,6,22
31047,4e-05,0.0001,0.00017,-1e-05,5e-05,7e-05,3e-05,0.00012,6,22
31048,4e-05,0.0001,0.00017,-1e-05,5e-05,7e-05,3e-05,0.00012,6,22
31049,0.00015,-4e-05,7e-05,4e-05,-2e-05,-3e-05,-4e-05,5e-05,6,22
31050,-7e-05,-0.00042,-0.00019,-5e-05,-3e-05,-4e-05,-4e-05,-0.00013,6,22
31051,-7e-05,-0.00042,-0.00019,-5e-05,-3e-05,-4e-05,-4e-05,-0.00013,6,22
31052,-7e-05,-0.00042,-0.00019,-5e-05,-3e-05,-4e-05,-4e-05,-0.00013,6,22
31053,-7e-05,-0.00042,-0.00019,-5e-05,-3e-05,-4e-05,-4e-05,-0.00013,6,22
31054,-7e-05,-0.00042,-0.00019,-5e-05,-3e-05,-4e-05,-4e-05,-0.00013,6,22
31055,-7e-05,-0.00042,-0.00019,-5e-05,-3e-05,-4e-05,-4e-05,-0.00013,6,22
31056,-7e-05,-0.00042,-0.00019,-5e-05,-3e-05,-4e-05,-4e-05,-0.00013,6,22
31057,-7e-05,-0.00042,-0.00019,-5e-05,-3e-05,-4e-05,-4e-05,-0.00013,6,22
31058,-7e-05,-0.00042,-0.00019,-5e-05,-3e-05,-4e-05,-4e-05,-0.00013,6,22
31059,-7e-05,-0.00042,-0.00019,-5e-05,-3e-05,-4e-05,-4e-05,-0.00013,6,22
31060,-7e-05,-0.00042,-0.00019,-5e-05,-3e-05,-4e-05,-4e-05,-0.00013,6,22
31061,-7e-05,-0.00042,-0.00019,-5e-05,-3e-05,-4e-05,-4e-05,-0.00013,6,22
31062,-7e-05,-0.00042,-0.00019,-5e-05,-3e-05,-4e-05,-4e-05,-0.00013,6,22
31063,-7e-05,-0.00042,-0.00019,-5e-05,-3e-05,-4e-05,-4e-05,-0.00013,6,22
31064,-7e-05,-0.00042,-0.00019,-5e-05,-3e-05,-4e-05,-4e-05,-0.00013,6,22
31065,-7e-05,-0.00042,-0.00019,-5e-05,-3e-05,-4e-05,-4e-05,-0.00013,6,22
31066,-7e-05,-0.00042,-0.00019,-5e-05,-3e-05,-4e-05,-4e-05,-0.00013,6,22
31067,-7e-05,-0.00042,-0.00019,-5e-05,-3e-05,-4e-05,-4e-05,-0.00013,6,22
31068,-7e-05,-0.00042,-0.00019,-5e-05,-3e-05,-4e-05,-4e-05,-0.00013,6,22
31069,-7e-05,-0.00042,-0.00019,-5e-05,-3e-05,-4e-05,-4e-05,-0.00013,6,22
31070,-7e-05,-0.00042,-0.00019,-5e-05,-3e-05,-4e-05,-4e-05,-0.00013,6,22
31071,-7e-05,-0.00042,-0.00019,-5e-05,-3e-05,-4e-05,-4e-05,-0.00013,6,22
31072,-0.00014,-6e-05,-0.00056,-0.00018,-4e-05,0,-1e-05,-0.00016,6,22
31073,-0.00023,-0.0001,0.00039,0.00019,1e-05,-3e-05,-2e-05,0.00011,6,22
31074,-0.00023,-0.0001,0.00039,0.00019,1e-05,-3e-05,-2e-05,0.00011,6,22
31075,-0.00023,-0.0001,0.00039,0.00019,1e-05,-3e-05,-2e-05,0.00011,6,22
31076,-0.00023,-0.0001,0.00039,0.00019,1e-05,-3e-05,-2e-05,0.00011,6,22
31077,-0.00023,-0.0001,0.00039,0.00019,1e-05,-3e-05,-2e-05,0.00011,6,22
31078,-0.00023,-0.0001,0.00039,0.00019,1e-05,-3e-05,-2e-05,0.00011,6,22
31079,-0.00023,-0.0001,0.00039,0.00019,1e-05,-3e-05,-2e-05,0.00011,6,22
31080,-0.00023,-0.0001,0.00039,0.00019,1e-05,-3e-05,-2e-05,0.00011,6,22
31081,-0.00023,-0.0001,0.00039,0.00019,1e-05,-3e-05,-2e-05,0.00011,6,22
31082,-0.00023,-0.0001,0.00039,0.00019,1e-05,-3e-05,-2e-05,0.00011,6,22
31083,-0.00023,-0.0001,0.00039,0.00019,1e-05,-3e-05,-2e-05,0.00011,6,22
31084,-0.00023,-0.0001,0.00039,0.00019,1e-05,-3e-05,-2e-05,0.00011,6,22
31085,-0.00023,-0.0001,0.00039,0.00019,1e-05,-3e-05,-2e-05,0.00011,6,22
31086,0.00017,-0.0003,-0.00079,-0.00048,-7e-05,-3e-05,-2e-05,-0.00022,6,22
31088,-5e-05,7e-05,-0.00032,-4e-05,-5e-05,-4e-05,-1e-05,-3e-05,6,22
31089,-5e-05,7e-05,-0.00032,-4e-05,-5e-05,-4e-05,-1e-05,-3e-05,6,22
31090,-5e-05,7e-05,-0.00032,-4e-05,-5e-05,-4e-05,-1e-05,-3e-05,6,22
31091,-5e-05,7e-05,-0.00032,-4e-05,-5e-05,-4e-05,-1e-05,-3e-05,6,22
31092,-5e-05,7e-05,-0.00032,-4e-05,-5e-05,-4e-05,-1e-05,-3e-05,6,22
31093,-5e-05,7e-05,-0.00032,-4e-05,-5e-05,-4e-05,-1e-05,-3e-05,6,22
31094,-5e-05,7e-05,-0.00032,-4e-05,-5e-05,-4e-05,-1e-05,-3e-05,6,22
31095,-5e-05,7e-05,-0.00032,-4e-05,-5e-05,-4e-05,-1e-05,-3e-05,6,22
31096,-5e-05,7e-05,-0.00032,-4e-05,-5e-05,-4e-05,-1e-05,-3e-05,6,22
31097,-5e-05,7e-05,-0.00032,-4e-05,-5e-05,-4e-05,-1e-05,-3e-05,6,22
31098,-5e-05,7e-05,-0.00032,-4e-05,-5e-05,-4e-05,-1e-05,-3e-05,6,22
31099,-5e-05,7e-05,-0.00032,-4e-05,-5e-05,-4e-05,-1e-05,-3e-05,6,22
31100,-5e-05,7e-05,-0.00032,-4e-05,-5e-05,-4e-05,-1e-05,-3e-05,6,22
31101,-5e-05,7e-05,-0.00032,-4e-05,-5e-05,-4e-05,-1e-05,-3e-05,6,22
31102,-5e-05,7e-05,-0.00032,-4e-05,-5e-05,-4e-05,-1e-05,-3e-05,6,22
31103,-5e-05,7e-05,-0.00032,-4e-05,-5e-05,-4e-05,-1e-05,-3e-05,6,22
31104,-5e-05,7e-05,-0.00032,-4e-05,-5e-05,-4e-05,-1e-05,-3e-05,6,22
31105,-5e-05,7e-05,-0.00032,-4e-05,-5e-05,-4e-05,-1e-05,-3e-05,6,22
31106,-5e-05,7e-05,-0.00032,-4e-05,-5e-05,-4e-05,-1e-05,-3e-05,6,22
31107,-5e-05,7e-05,-0.00032,-4e-05,-5e-05,-4e-05,-1e-05,-3e-05,6,22
31108,-5e-05,7e-05,-0.00032,-4e-05,-5e-05,-4e-05,-1e-05,-3e-05,6,22
31109,-4e-05,-0.00012,-0.00022,0,-2e-05,0,-2e-05,-1e-05,6,22
31110,4e-05,-0.00033,-0.00053,-0.00037,-1e-05,-2e-05,-2e-05,-7e-05,6,22
31111,4e-05,-0.00033,-0.00053,-0.00037,-1e-05,-2e-05,-2e-05,-7e-05,6,22
31112,4e-05,-0.00033,-0.00053,-0.00037,-1e-05,-2e-05,-2e-05,-7e-05,6,22
31113,4e-05,-0.00033,-0.00053,-0.00037,-1e-05,-2e-05,-2e-05,-7e-05,6,22
31114,4e-05,-0.00033,-0.00053,-0.00037,-1e-05,-2e-05,-2e-05,-7e-05,6,22
31115,4e-05,-0.00033,-0.00053,-0.00037,-1e-05,-2e-05,-2e-05,-7e-05,6,22
31116,4e-05,-0.00033,-0.00053,-0.00037,-1e-05,-2e-05,-2e-05,-7e-05,6,22
31117,4e-05,-0.00033,-0.00053,-0.00037,-1e-05,-2e-05,-2e-05,-7e-05,6,22
31118,4e-05,-0.00033,-0.00053,-0.00037,-1e-05,-2e-05,-2e-05,-7e-05,6,22
31119,4e-05,-0.00033,-0.00053,-0.00037,-1e-05,-2e-05,-2e-05,-7e-05,6,22
31120,4e-05,-0.00033,-0.00053,-0.00037,-1e-05,-2e-05,-2e-05,-7e-05,6,22
31121,4e-05,-0.00033,-0.00053,-0.00037,-1e-05,-2e-05,-2e-05,-7e-05,6,22
31122,4e-05,-0.00033,-0.00053,-0.00037,-1e-05,-2e-05,-2e-05,-7e-05,6,22
31123,4e-05,-0.00033,-0.00053,-0.00037,-1e-05,-2e-05,-2e-05,-7e-05,6,22
31124,4e-05,-0.00033,-0.00053,-0.00037,-1e-05,-2e-05,-2e-05,-7e-05,6,22
31125,4e-05,-0.00033,-0.00053,-0.00037,-1e-05,-2e-05,-2e-05,-7e-05,6,22
31126,4e-05,-0.00033,-0.00053,-0.00037,-1e-05,-2e-05,-2e-05,-7e-05,6,22
31127,4e-05,-0.00033,-0.00053,-0.00037,-1e-05,-2e-05,-2e-05,-7e-05,6,22
31128,4e-05,-0.00033,-0.00053,-0.00037,-1e-05,-2e-05,-2e-05,-7e-05,6,22
31129,4e-05,-0.00033,-0.00053,-0.00037,-1e-05,-2e-05,-2e-05,-7e-05,6,22
31130,4e-05,-0.00033,-0.00053,-0.00037,-1e-05,-2e-05,-2e-05,-7e-05,6,22
31131,4e-05,-0.00033,-0.00053,-0.00037,-1e-05,-2e-05,-2e-05,-7e-05,6,22
31132,-1e-05,0.0001,0.00016,0.00024,-1e-05,-2e-05,0,6e-05,6,22
31133,0.00014,0.00011,-0.00018,7e-05,-1e-05,2e-05,-2e-05,0.00026,6,22
31134,0.00014,0.00011,-0.00018,7e-05,-1e-05,2e-05,-2e-05,0.00026,6,22
31135,0.00014,0.00011,-0.00018,7e-05,-1e-05,2e-05,-2e-05,0.00026,6,22
31136,0.00014,0.00011,-0.00018,7e-05,-1e-05,2e-05,-2e-05,0.00026,6,22
31138,0.00014,0.00011,-0.00018,7e-05,-1e-05,2e-05,-2e-05,0.00026,6,22
31139,0.00014,0.00011,-0.00018,7e-05,-1e-05,2e-05,-2e-05,0.00026,6,22
31140,0.00014,0.00011,-0.00018,7e-05,-1e-05,2e-05,-2e-05,0.00026,6,22
31141,0.00014,0.00011,-0.00018,7e-05,-1e-05,2e-05,-2e-05,0.00026,6,22
31142,0.00014,0.00011,-0.00018,7e-05,-1e-05,2e-05,-2e-05,0.00026,6,22
31143,0.00014,0.00011,-0.00018,7e-05,-1e-05,2e-05,-2e-05,0.00026,6,22
31144,0.00014,0.00011,-0.00018,7e-05,-1e-05,2e-05,-2e-05,0.00026,6,22
31145,0.00014,0.00011,-0.00018,7e-05,-1e-05,2e-05,-2e-05,0.00026,6,22
31146,0.00014,0.00011,-0.00018,7e-05,-1e-05,2e-05,-2e-05,0.00026,6,22
31147,1e-05,2e-05,-0.0002,-6e-05,-1e-05,0,-1e-05,-0.00018,6,22
31148,1e-05,2e-05,-0.0002,-6e-05,-1e-05,0,-1e-05,-0.00018,6,22
31149,1e-05,2e-05,-0.0002,-6e-05,-1e-05,0,-1e-05,-0.00018,6,22
31150,1e-05,2e-05,-0.0002,-6e-05,-1e-05,0,-1e-05,-0.00018,6,22
31151,1e-05,2e-05,-0.0002,-6e-05,-1e-05,0,-1e-05,-0.00018,6,22
31152,1e-05,2e-05,-0.0002,-6e-05,-1e-05,0,-1e-05,-0.00018,6,22
31153,1e-05,2e-05,-0.0002,-6e-05,-1e-05,0,-1e-05,-0.00018,6,22
31154,1e-05,2e-05,-0.0002,-6e-05,-1e-05,0,-1e-05,-0.00018,6,22
31155,1e-05,2e-05,-0.0002,-6e-05,-1e-05,0,-1e-05,-0.00018,6,22
31156,1e-05,2e-05,-0.0002,-6e-05,-1e-05,0,-1e-05,-0.00018,6,22
31157,1e-05,2e-05,-0.0002,-6e-05,-1e-05,0,-1e-05,-0.00018,6,22
31158,1e-05,2e-05,-0.0002,-6e-05,-1e-05,0,-1e-05,-0.00018,6,22
31159,1e-05,2e-05,-0.0002,-6e-05,-1e-05,0,-1e-05,-0.00018,6,22
31160,1e-05,2e-05,-0.0002,-6e-05,-1e-05,0,-1e-05,-0.00018,6,22
31161,1e-05,2e-05,-0.0002,-6e-05,-1e-05,0,-1e-05,-0.00018,6,22
31162,1e-05,2e-05,-0.0002,-6e-05,-1e-05,0,-1e-05,-0.00018,6,22
31163,1e-05,2e-05,-0.0002,-6e-05,-1e-05,0,-1e-05,-0.00018,6,22
31164,1e-05,2e-05,-0.0002,-6e-05,-1e-05,0,-1e-05,-0.00018,6,22
31165,1e-05,2e-05,-0.0002,-6e-05,-1e-05,0,-1e-05,-0.00018,6,22
31166,1e-05,2e-05,-0.0002,-6e-05,-1e-05,0,-1e-05,-0.00018,6,22
31167,1e-05,2e-05,-0.0002,-6e-05,-1e-05,0,-1e-05,-0.00018,6,22
31168,1e-05,2e-05,-0.0002,-6e-05,-1e-05,0,-1e-05,-0.00018,6,22
31169,0.00012,3e-05,0.00022,0.00017,6e-05,3e-05,2e-05,0.00031,6,22
31170,-2e-05,1e-05,8e-05,-0.00014,-7e-05,-3e-05,-1e-05,-6e-05,6,22
31171,-2e-05,1e-05,8e-05,-0.00014,-7e-05,-3e-05,-1e-05,-6e-05,6,22
31172,-2e-05,1e-05,8e-05,-0.00014,-7e-05,-3e-05,-1e-05,-6e-05,6,22
31173,-2e-05,1e-05,8e-05,-0.00014,-7e-05,-3e-05,-1e-05,-6e-05,6,22
31174,-2e-05,1e-05,8e-05,-0.00014,-7e-05,-3e-05,-1e-05,-6e-05,6,22
31175,-2e-05,1e-05,8e-05,-0.00014,-7e-05,-3e-05,-1e-05,-6e-05,6,22
31176,-2e-05,1e-05,8e-05,-0.00014,-7e-05,-3e-05,-1e-05,-6e-05,6,22
31177,-2e-05,1e-05,8e-05,-0.00014,-7e-05,-3e-05,-1e-05,-6e-05,6,22
31178,-2e-05,1e-05,8e-05,-0.00014,-7e-05,-3e-05,-1e-05,-6e-05,6,22
31179,-2e-05,1e-05,8e-05,-0.00014,-7e-05,-3e-05,-1e-05,-6e-05,6,22
31180,-2e-05,1e-05,8e-05,-0.00014,-7e-05,-3e-05,-1e-05,-6e-05,6,22
31181,-2e-05,1e-05,8e-05,-0.00014,-7e-05,-3e-05,-1e-05,-6e-05,6,22
31182,-2e-05,1e-05,8e-05,-0.00014,-7e-05,-3e-05,-1e-05,-6e-05,6,22
31183,-2e-05,1e-05,8e-05,-0.00014,-7e-05,-3e-05,-1e-05,-6e-05,6,22
31184,-2e-05,1e-05,8e-05,-0.00014,-7e-05,-3e-05,-1e-05,-6e-05,6,22
31185,-2e-05,1e-05,8e-05,-0.00014,-7e-05,-3e-05,-1e-05,-6e-05,6,22
31186,-2e-05,1e-05,8e-05,-0.00014,-7e-05,-3e-05,-1e-05,-6e-05,6,22
31188,-2e-05,1e-05,8e-05,-0.00014,-7e-05,-3e-05,-1e-05,-6e-05,6,22
31189,-2e-05,1e-05,8e-05,-0.00014,-7e-05,-3e-05,-1e-05,-6e-05,6,22
31190,-2e-05,1e-05,8e-05,-0.00014,-7e-05,-3e-05,-1e-05,-6e-05,6,22
31191,-2e-05,1e-05,8e-05,-0.00014,-7e-05,-3e-05,-1e-05,-6e-05,6,22
31192,-0.00016,0.00015,0.00015,1e-05,-5e-05,-5e-05,-3e-05,-0.00027,6,22
31193,0.00018,6e-05,-0.00013,-0.00018,-5e-05,-4e-05,-2e-05,5e-05,6,22
31194,0.00018,6e-05,-0.00013,-0.00018,-5e-05,-4e-05,-2e-05,5e-05,6,22
31195,0.00018,6e-05,-0.00013,-0.00018,-5e-05,-4e-05,-2e-05,5e-05,6,22
31196,0.00018,6e-05,-0.00013,-0.00018,-5e-05,-4e-05,-2e-05,5e-05,6,22
31197,0.00018,6e-05,-0.00013,-0.00018,-5e-05,-4e-05,-2e-05,5e-05,6,22
31198,0.00018,6e-05,-0.00013,-0.00018,-5e-05,-4e-05,-2e-05,5e-05,6,22
31199,0.00018,6e-05,-0.00013,-0.00018,-5e-05,-4e-05,-2e-05,5e-05,6,22
31200,0.00018,6e-05,-0.00013,-0.00018,-5e-05,-4e-05,-2e-05,5e-05,6,22
31201,0.00018,6e-05,-0.00013,-0.00018,-5e-05,-4e-05,-2e-05,5e-05,6,22
31202,0.00018,6e-05,-0.00013,-0.00018,-5e-05,-4e-05,-2e-05,5e-05,6,22
31203,0.00018,6e-05,-0.00013,-0.00018,-5e-05,-4e-05,-2e-05,5e-05,6,22
31204,0.00018,6e-05,-0.00013,-0.00018,-5e-05,-4e-05,-2e-05,5e-05,6,22
31205,0.00018,6e-05,-0.00013,-0.00018,-5e-05,-4e-05,-2e-05,5e-05,6,22
31206,-0.00015,-0.00033,-0.00013,2e-05,-2e-05,1e-05,1e-05,-9e-05,6,22
31207,3e-05,7e-05,0.00036,8e-05,0,-2e-05,0,-2e-05,6,22
31208,-8e-05,0.00013,-0.00044,-9e-05,-1e-05,-3e-05,-2e-05,1e-05,6,22
31209,-8e-05,0.00013,-0.00044,-9e-05,-1e-05,-3e-05,-2e-05,1e-05,6,22
31210,-8e-05,0.00013,-0.00044,-9e-05,-1e-05,-3e-05,-2e-05,1e-05,6,22
31211,-8e-05,0.00013,-0.00044,-9e-05,-1e-05,-3e-05,-2e-05,1e-05,6,22
31212,-8e-05,0.00013,-0.00044,-9e-05,-1e-05,-3e-05,-2e-05,1e-05,6,22
31213,-8e-05,0.00013,-0.00044,-9e-05,-1e-05,-3e-05,-2e-05,1e-05,6,22
31214,-8e-05,0.00013,-0.00044,-9e-05,-1e-05,-3e-05,-2e-05,1e-05,6,22
31215,-8e-05,0.00013,-0.00044,-9e-05,-1e-05,-3e-05,-2e-05,1e-05,6,22
31216,-8e-05,0.00013,-0.00044,-9e-05,-1e-05,-3e-05,-2e-05,1e-05,6,22
31217,-8e-05,0.00013,-0.00044,-9e-05,-1e-05,-3e-05,-2e-05,1e-05,6,22
31218,-8e-05,0.00013,-0.00044,-9e-05,-1e-05,-3e-05,-2e-05,1e-05,6,22
31219,-8e-05,0.00013,-0.00044,-9e-05,-1e-05,-3e-05,-2e-05,1e-05,6,22
31220,-8e-05,0.00013,-0.00044,-9e-05,-1e-05,-3e-05,-2e-05,1e-05,6,22
31221,-8e-05,0.00013,-0.00044,-9e-05,-1e-05,-3e-05,-2e-05,1e-05,6,22
31222,-8e-05,0.00013,-0.00044,-9e-05,-1e-05,-3e-05,-2e-05,1e-05,6,22
31223,-8e-05,0.00013,-0.00044,-9e-05,-1e-05,-3e-05,-2e-05,1e-05,6,22
31224,-8e-05,0.00013,-0.00044,-9e-05,-1e-05,-3e-05,-2e-05,1e-05,6,22
31225,-8e-05,0.00013,-0.00044,-9e-05,-1e-05,-3e-05,-2e-05,1e-05,6,22
31226,-8e-05,0.00013,-0.00044,-9e-05,-1e-05,-3e-05,-2e-05,1e-05,6,22
31227,-8e-05,0.00013,-0.00044,-9e-05,-1e-05,-3e-05,-2e-05,1e-05,6,22
31228,-8e-05,0.00013,-0.00044,-9e-05,-1e-05,-3e-05,-2e-05,1e-05,6,22
31229,-8e-05,0.00013,-0.00044,-9e-05,-1e-05,-3e-05,-2e-05,1e-05,6,22
31230,0.00014,-0.00029,0.00039,0.00017,1e-05,-1e-05,2e-05,-1e-05,6,22
31231,0.00014,-0.00029,0.00039,0.00017,1e-05,-1e-05,2e-05,-1e-05,6,22
31232,0.00014,-0.00029,0.00039,0.00017,1e-05,-1e-05,2e-05,-1e-05,6,22
31233,0.00014,-0.00029,0.00039,0.00017,1e-05,-1e-05,2e-05,-1e-05,6,22
31234,0.00014,-0.00029,0.00039,0.00017,1e-05,-1e-05,2e-05,-1e-05,6,22
31235,0.00014,-0.00029,0.00039,0.00017,1e-05,-1e-05,2e-05,-1e-05,6,22
31237,0.00014,-0.00029,0.00039,0.00017,1e-05,-1e-05,2e-05,-1e-05,6,22
31239,0.00014,-0.00029,0.00039,0.00017,1e-05,-1e-05,2e-05,-1e-05,6,22
31240,0.00014,-0.00029,0.00039,0.00017,1e-05,-1e-05,2e-05,-1e-05,6,22
31241,0.00014,-0.00029,0.00039,0.00017,1e-05,-1e-05,2e-05,-1e-05,6,22
31242,0.00014,-0.00029,0.00039,0.00017,1e-05,-1e-05,2e-05,-1e-05,6,22
31243,0.00014,-0.00029,0.00039,0.00017,1e-05,-1e-05,2e-05,-1e-05,6,22
31244,0.00014,-0.00029,0.00039,0.00017,1e-05,-1e-05,2e-05,-1e-05,6,22
31245,0.00014,-0.00029,0.00039,0.00017,1e-05,-1e-05,2e-05,-1e-05,6,22
31246,0.00014,-0.00029,0.00039,0.00017,1e-05,-1e-05,2e-05,-1e-05,6,22
31247,0.00014,-0.00029,0.00039,0.00017,1e-05,-1e-05,2e-05,-1e-05,6,22
31248,0.00014,-0.00029,0.00039,0.00017,1e-05,-1e-05,2e-05,-1e-05,6,22
31249,0.00014,-0.00029,0.00039,0.00017,1e-05,-1e-05,2e-05,-1e-05,6,22
31250,0.00014,-0.00029,0.00039,0.00017,1e-05,-1e-05,2e-05,-1e-05,6,22
31251,0.00014,-0.00029,0.00039,0.00017,1e-05,-1e-05,2e-05,-1e-05,6,22
31252,0.0002,-0.00012,4e-05,4e-05,1e-05,1e-05,3e-05,0.00015,6,22
31253,-9e-05,-0.00011,0.00013,9e-05,2e-05,3e-05,-1e-05,5e-05,6,22
31254,-9e-05,-0.00011,0.00013,9e-05,2e-05,3e-05,-1e-05,5e-05,6,22
31255,-9e-05,-0.00011,0.00013,9e-05,2e-05,3e-05,-1e-05,5e-05,6,22
31256,-9e-05,-0.00011,0.00013,9e-05,2e-05,3e-05,-1e-05,5e-05,6,22
31257,-9e-05,-0.00011,0.00013,9e-05,2e-05,3e-05,-1e-05,5e-05,6,22
31258,-9e-05,-0.00011,0.00013,9e-05,2e-05,3e-05,-1e-05,5e-05,6,22
31259,-9e-05,-0.00011,0.00013,9e-05,2e-05,3e-05,-1e-05,5e-05,6,22
31260,-9e-05,-0.00011,0.00013,9e-05,2e-05,3e-05,-1e-05,5e-05,6,22
31261,-9e-05,-0.00011,0.00013,9e-05,2e-05,3e-05,-1e-05,5e-05,6,22
31262,-9e-05,-0.00011,0.00013,9e-05,2e-05,3e-05,-1e-05,5e-05,6,22
31263,-9e-05,-0.00011,0.00013,9e-05,2e-05,3e-05,-1e-05,5e-05,6,22
31264,-9e-05,-0.00011,0.00013,9e-05,2e-05,3e-05,-1e-05,5e-05,6,22
31265,-9e-05,-0.00011,0.00013,9e-05,2e-05,3e-05,-1e-05,5e-05,6,22
31266,0,9e-05,0.00026,0.00013,1e-05,-2e-05,2e-05,4e-05,6,22
31267,0,9e-05,0.00026,0.00013,1e-05,-2e-05,2e-05,4e-05,6,22
31268,0,9e-05,0.00026,0.00013,1e-05,-2e-05,2e-05,4e-05,6,22
31269,0,9e-05,0.00026,0.00013,1e-05,-2e-05,2e-05,4e-05,6,22
31270,0,9e-05,0.00026,0.00013,1e-05,-2e-05,2e-05,4e-05,6,22
31271,0,9e-05,0.00026,0.00013,1e-05,-2e-05,2e-05,4e-05,6,22
31272,0,9e-05,0.00026,0.00013,1e-05,-2e-05,2e-05,4e-05,6,22
31273,0,9e-05,0.00026,0.00013,1e-05,-2e-05,2e-05,4e-05,6,22
31274,-0.00014,5e-05,-0.00011,-0.00011,-3e-05,-3e-05,-1e-05,-8e-05,6,22
31275,-0.00014,5e-05,-0.00011,-0.00011,-3e-05,-3e-05,-1e-05,-8e-05,6,22
31276,-0.00014,5e-05,-0.00011,-0.00011,-3e-05,-3e-05,-1e-05,-8e-05,6,22
31277,-0.00014,5e-05,-0.00011,-0.00011,-3e-05,-3e-05,-1e-05,-8e-05,6,22
31278,-0.00014,5e-05,-0.00011,-0.00011,-3e-05,-3e-05,-1e-05,-8e-05,6,22
31279,-0.00014,5e-05,-0.00011,-0.00011,-3e-05,-3e-05,-1e-05,-8e-05,6,22
31280,-0.00014,5e-05,-0.00011,-0.00011,-3e-05,-3e-05,-1e-05,-8e-05,6,22
31281,-0.00014,5e-05,-0.00011,-0.00011,-3e-05,-3e-05,-1e-05,-8e-05,6,22
31282,-0.00014,5e-05,-0.00011,-0.00011,-3e-05,-3e-05,-1e-05,-8e-05,6,22
31283,-0.00014,5e-05,-0.00011,-0.00011,-3e-05,-3e-05,-1e-05,-8e-05,6,22
31285,-0.00014,5e-05,-0.00011,-0.00011,-3e-05,-3e-05,-1e-05,-8e-05,6,22
31286,-0.00014,5e-05,-0.00011,-0.00011,-3e-05,-3e-05,-1e-05,-8e-05,6,22
31289,-0.00014,5e-05,-0.00011,-0.00011,-3e-05,-3e-05,-1e-05,-8e-05,6,22
31290,-0.00014,5e-05,-0.00011,-0.00011,-3e-05,-3e-05,-1e-05,-8e-05,6,22
31291,-8e-05,3e-05,0.00047,9e-05,1e-05,0,0,-0.00019,6,22
31292,-8e-05,3e-05,0.00047,9e-05,1e-05,0,0,-0.00019,6,22
31293,-8e-05,3e-05,0.00047,9e-05,1e-05,0,0,-0.00019,6,22
31294,-8e-05,3e-05,0.00047,9e-05,1e-05,0,0,-0.00019,6,22
31295,-8e-05,3e-05,0.00047,9e-05,1e-05,0,0,-0.00019,6,22
31296,-8e-05,3e-05,0.00047,9e-05,1e-05,0,0,-0.00019,6,22
31297,-8e-05,3e-05,0.00047,9e-05,1e-05,0,0,-0.00019,6,22
31298,-8e-05,3e-05,0.00047,9e-05,1e-05,0,0,-0.00019,6,22
31299,-8e-05,3e-05,0.00047,9e-05,1e-05,0,0,-0.00019,6,22
31300,-8e-05,3e-05,0.00047,9e-05,1e-05,0,0,-0.00019,6,22
31301,-8e-05,3e-05,0.00047,9e-05,1e-05,0,0,-0.00019,6,22
31302,-8e-05,3e-05,0.00047,9e-05,1e-05,0,0,-0.00019,6,22
31303,-8e-05,3e-05,0.00047,9e-05,1e-05,0,0,-0.00019,6,22
31304,-8e-05,3e-05,0.00047,9e-05,1e-05,0,0,-0.00019,6,22
31305,-8e-05,3e-05,0.00047,9e-05,1e-05,0,0,-0.00019,6,22
31306,-8e-05,3e-05,0.00047,9e-05,1e-05,0,0,-0.00019,6,22
31307,-8e-05,3e-05,0.00047,9e-05,1e-05,0,0,-0.00019,6,22
31308,-8e-05,3e-05,0.00047,9e-05,1e-05,0,0,-0.00019,6,22
31309,-8e-05,3e-05,0.00047,9e-05,1e-05,0,0,-0.00019,6,22
31310,-8e-05,3e-05,0.00047,9e-05,1e-05,0,0,-0.00019,6,22
31311,-8e-05,3e-05,0.00047,9e-05,1e-05,0,0,-0.00019,6,22
31312,-0.00017,0.00013,-0.00023,8e-05,-1e-05,-4e-05,-2e-05,-9e-05,6,22
31313,0.0001,9e-05,0.00034,-1e-05,1e-05,4e-05,3e-05,3e-05,6,22
31314,0.0001,9e-05,0.00034,-1e-05,1e-05,4e-05,3e-05,3e-05,6,22
31315,0.0001,9e-05,0.00034,-1e-05,1e-05,4e-05,3e-05,3e-05,6,22
31316,0.0001,9e-05,0.00034,-1e-05,1e-05,4e-05,3e-05,3e-05,6,22
31317,0.0001,9e-05,0.00034,-1e-05,1e-05,4e-05,3e-05,3e-05,6,22
31318,0.0001,9e-05,0.00034,-1e-05,1e-05,4e-05,3e-05,3e-05,6,22
31319,0.0001,9e-05,0.00034,-1e-05,1e-05,4e-05,3e-05,3e-05,6,22
31320,0.0001,9e-05,0.00034,-1e-05,1e-05,4e-05,3e-05,3e-05,6,22
31321,0.0001,9e-05,0.00034,-1e-05,1e-05,4e-05,3e-05,3e-05,6,22
31322,0.0001,9e-05,0.00034,-1e-05,1e-05,4e-05,3e-05,3e-05,6,22
31323,0.0001,9e-05,0.00034,-1e-05,1e-05,4e-05,3e-05,3e-05,6,22
31324,0.0001,9e-05,0.00034,-1e-05,1e-05,4e-05,3e-05,3e-05,6,22
31325,0.0001,9e-05,0.00034,-1e-05,1e-05,4e-05,3e-05,3e-05,6,22
31326,3e-05,-0.00013,0.00033,0.00011,-4e-05,-3e-05,-4e-05,-0.00015,6,22
31327,3e-05,-0.00013,0.00033,0.00011,-4e-05,-3e-05,-4e-05,-0.00015,6,22
31328,3e-05,-0.00013,0.00033,0.00011,-4e-05,-3e-05,-4e-05,-0.00015,6,22
31329,3e-05,-0.00013,0.00033,0.00011,-4e-05,-3e-05,-4e-05,-0.00015,6,22
31330,3e-05,-0.00013,0.00033,0.00011,-4e-05,-3e-05,-4e-05,-0.00015,6,22
31331,3e-05,-0.00013,0.00033,0.00011,-4e-05,-3e-05,-4e-05,-0.00015,6,22
31332,3e-05,-0.00013,0.00033,0.00011,-4e-05,-3e-05,-4e-05,-0.00015,6,22
31333,3e-05,-0.00013,0.00033,0.00011,-4e-05,-3e-05,-4e-05,-0.00015,6,22
31334,6e-05,0.00012,-0.0001,0.00013,-1e-05,-1e-05,-3e-05,-3e-05,6,22
31335,6e-05,0.00012,-0.0001,0.00013,-1e-05,-1e-05,-3e-05,-3e-05,6,22
31336,6e-05,0.00012,-0.0001,0.00013,-1e-05,-1e-05,-3e-05,-3e-05,6,22
31338,6e-05,0.00012,-0.0001,0.00013,-1e-05,-1e-05,-3e-05,-3e-05,6,22
31339,6e-05,0.00012,-0.0001,0.00013,-1e-05,-1e-05,-3e-05,-3e-05,6,22
31340,6e-05,0.00012,-0.0001,0.00013,-1e-05,-1e-05,-3e-05,-3e-05,6,22
31341,6e-05,0.00012,-0.0001,0.00013,-1e-05,-1e-05,-3e-05,-3e-05,6,22
31342,6e-05,0.00012,-0.0001,0.00013,-1e-05,-1e-05,-3e-05,-3e-05,6,22
31343,6e-05,0.00012,-0.0001,0.00013,-1e-05,-1e-05,-3e-05,-3e-05,6,22
31344,6e-05,0.00012,-0.0001,0.00013,-1e-05,-1e-05,-3e-05,-3e-05,6,22
31345,6e-05,0.00012,-0.0001,0.00013,-1e-05,-1e-05,-3e-05,-3e-05,6,22
31346,6e-05,0.00012,-0.0001,0.00013,-1e-05,-1e-05,-3e-05,-3e-05,6,22
31347,6e-05,0.00012,-0.0001,0.00013,-1e-05,-1e-05,-3e-05,-3e-05,6,22
31348,6e-05,0.00012,-0.0001,0.00013,-1e-05,-1e-05,-3e-05,-3e-05,6,22
31349,6e-05,0.00012,-0.0001,0.00013,-1e-05,-1e-05,-3e-05,-3e-05,6,22
31350,-3e-05,-0.00015,-0.0001,-9e-05,-2e-05,-1e-05,-1e-05,9e-05,6,22
31351,-7e-05,-5e-05,-0.00054,-6e-05,-3e-05,0,0,1e-05,6,22
31352,-7e-05,-5e-05,-0.00054,-6e-05,-3e-05,0,0,1e-05,6,22
31353,-7e-05,-5e-05,-0.00054,-6e-05,-3e-05,0,0,1e-05,6,22
31354,-7e-05,-5e-05,-0.00054,-6e-05,-3e-05,0,0,1e-05,6,22
31355,-7e-05,-5e-05,-0.00054,-6e-05,-3e-05,0,0,1e-05,6,22
31356,-7e-05,-5e-05,-0.00054,-6e-05,-3e-05,0,0,1e-05,6,22
31357,-7e-05,-5e-05,-0.00054,-6e-05,-3e-05,0,0,1e-05,6,22
31358,-7e-05,-5e-05,-0.00054,-6e-05,-3e-05,0,0,1e-05,6,22
31359,-7e-05,-5e-05,-0.00054,-6e-05,-3e-05,0,0,1e-05,6,22
31360,-7e-05,-5e-05,-0.00054,-6e-05,-3e-05,0,0,1e-05,6,22
31361,-7e-05,-5e-05,-0.00054,-6e-05,-3e-05,0,0,1e-05,6,22
31362,-7e-05,-5e-05,-0.00054,-6e-05,-3e-05,0,0,1e-05,6,22
31363,-7e-05,-5e-05,-0.00054,-6e-05,-3e-05,0,0,1e-05,6,22
31364,-7e-05,-5e-05,-0.00054,-6e-05,-3e-05,0,0,1e-05,6,22
31365,-7e-05,-5e-05,-0.00054,-6e-05,-3e-05,0,0,1e-05,6,22
31366,-7e-05,-5e-05,-0.00054,-6e-05,-3e-05,0,0,1e-05,6,22
31367,-7e-05,-5e-05,-0.00054,-6e-05,-3e-05,0,0,1e-05,6,22
31368,-7e-05,-5e-05,-0.00054,-6e-05,-3e-05,0,0,1e-05,6,22
31369,-7e-05,-5e-05,-0.00054,-6e-05,-3e-05,0,0,1e-05,6,22
31370,-7e-05,-5e-05,-0.00054,-6e-05,-3e-05,0,0,1e-05,6,22
31371,-7e-05,-5e-05,-0.00054,-6e-05,-3e-05,0,0,1e-05,6,22
31372,-5e-05,0.00016,-0.00011,-0.00026,0,2e-05,2e-05,-3e-05,6,22
31373,-0.00027,6e-05,0.00018,-3e-05,-5e-05,-5e-05,-4e-05,-0.00018,6,22
31374,-0.00027,6e-05,0.00018,-3e-05,-5e-05,-5e-05,-4e-05,-0.00018,6,22
31375,-0.00027,6e-05,0.00018,-3e-05,-5e-05,-5e-05,-4e-05,-0.00018,6,22
31376,-0.00027,6e-05,0.00018,-3e-05,-5e-05,-5e-05,-4e-05,-0.00018,6,22
31377,-0.00027,6e-05,0.00018,-3e-05,-5e-05,-5e-05,-4e-05,-0.00018,6,22
31378,-0.00027,6e-05,0.00018,-3e-05,-5e-05,-5e-05,-4e-05,-0.00018,6,22
31379,-0.00027,6e-05,0.00018,-3e-05,-5e-05,-5e-05,-4e-05,-0.00018,6,22
31380,-0.00027,6e-05,0.00018,-3e-05,-5e-05,-5e-05,-4e-05,-0.00018,6,22
31381,-0.00027,6e-05,0.00018,-3e-05,-5e-05,-5e-05,-4e-05,-0.00018,6,22
31382,-0.00027,6e-05,0.00018,-3e-05,-5e-05,-5e-05,-4e-05,-0.00018,6,22
31383,-0.00027,6e-05,0.00018,-3e-05,-5e-05,-5e-05,-4e-05,-0.00018,6,22
31384,-0.00027,6e-05,0.00018,-3e-05,-5e-05,-5e-05,-4e-05,-0.00018,6,22
31385,-0.00027,6e-05,0.00018,-3e-05,-5e-05,-5e-05,-4e-05,-0.00018,6,22
31386,0.00015,-0.00012,-0.00025,-9e-05,-5e-05,-5e-05,-2e-05,4e-05,6,22
31388,0.00015,-0.00012,-0.00025,-9e-05,-5e-05,-5e-05,-2e-05,4e-05,6,22
31389,0.00015,-0.00012,-0.00025,-9e-05,-5e-05,-5e-05,-2e-05,4e-05,6,22
31390,0.00015,-0.00012,-0.00025,-9e-05,-5e-05,-5e-05,-2e-05,4e-05,6,22
31391,0.00015,-0.00012,-0.00025,-9e-05,-5e-05,-5e-05,-2e-05,4e-05,6,22
31392,0.00015,-0.00012,-0.00025,-9e-05,-5e-05,-5e-05,-2e-05,4e-05,6,22
31393,0.00015,-0.00012,-0.00025,-9e-05,-5e-05,-5e-05,-2e-05,4e-05,6,22
31394,7e-05,9e-05,-6e-05,-4e-05,-1e-05,-3e-05,-2e-05,0,6,22
31395,7e-05,9e-05,-6e-05,-4e-05,-1e-05,-3e-05,-2e-05,0,6,22
31396,7e-05,9e-05,-6e-05,-4e-05,-1e-05,-3e-05,-2e-05,0,6,22
31397,7e-05,9e-05,-6e-05,-4e-05,-1e-05,-3e-05,-2e-05,0,6,22
31398,7e-05,9e-05,-6e-05,-4e-05,-1e-05,-3e-05,-2e-05,0,6,22
31399,7e-05,9e-05,-6e-05,-4e-05,-1e-05,-3e-05,-2e-05,0,6,22
31400,7e-05,9e-05,-6e-05,-4e-05,-1e-05,-3e-05,-2e-05,0,6,22
31401,7e-05,9e-05,-6e-05,-4e-05,-1e-05,-3e-05,-2e-05,0,6,22
31402,7e-05,9e-05,-6e-05,-4e-05,-1e-05,-3e-05,-2e-05,0,6,22
31403,7e-05,9e-05,-6e-05,-4e-05,-1e-05,-3e-05,-2e-05,0,6,22
31404,7e-05,9e-05,-6e-05,-4e-05,-1e-05,-3e-05,-2e-05,0,6,22
31405,7e-05,9e-05,-6e-05,-4e-05,-1e-05,-3e-05,-2e-05,0,6,22
31406,7e-05,9e-05,-6e-05,-4e-05,-1e-05,-3e-05,-2e-05,0,6,22
31407,7e-05,9e-05,-6e-05,-4e-05,-1e-05,-3e-05,-2e-05,0,6,22
31408,7e-05,9e-05,-6e-05,-4e-05,-1e-05,-3e-05,-2e-05,0,6,22
31409,7e-05,9e-05,-6e-05,-4e-05,-1e-05,-3e-05,-2e-05,0,6,22
31410,0.0002,0.00017,-0.00092,-0.00037,-4e-05,-1e-05,-4e-05,-0.00016,6,22
31411,4e-05,-0.00016,0.00016,7e-05,-2e-05,-3e-05,-1e-05,0.00014,6,22
31412,4e-05,-0.00016,0.00016,7e-05,-2e-05,-3e-05,-1e-05,0.00014,6,22
31413,4e-05,-0.00016,0.00016,7e-05,-2e-05,-3e-05,-1e-05,0.00014,6,22
31414,4e-05,-0.00016,0.00016,7e-05,-2e-05,-3e-05,-1e-05,0.00014,6,22
31415,4e-05,-0.00016,0.00016,7e-05,-2e-05,-3e-05,-1e-05,0.00014,6,22
31416,4e-05,-0.00016,0.00016,7e-05,-2e-05,-3e-05,-1e-05,0.00014,6,22
31417,4e-05,-0.00016,0.00016,7e-05,-2e-05,-3e-05,-1e-05,0.00014,6,22
31418,4e-05,-0.00016,0.00016,7e-05,-2e-05,-3e-05,-1e-05,0.00014,6,22
31419,4e-05,-0.00016,0.00016,7e-05,-2e-05,-3e-05,-1e-05,0.00014,6,22
31420,4e-05,-0.00016,0.00016,7e-05,-2e-05,-3e-05,-1e-05,0.00014,6,22
31421,4e-05,-0.00016,0.00016,7e-05,-2e-05,-3e-05,-1e-05,0.00014,6,22
31422,4e-05,-0.00016,0.00016,7e-05,-2e-05,-3e-05,-1e-05,0.00014,6,22
31423,4e-05,-0.00016,0.00016,7e-05,-2e-05,-3e-05,-1e-05,0.00014,6,22
31424,4e-05,-0.00016,0.00016,7e-05,-2e-05,-3e-05,-1e-05,0.00014,6,22
31425,4e-05,-0.00016,0.00016,7e-05,-2e-05,-3e-05,-1e-05,0.00014,6,22
31426,4e-05,-0.00016,0.00016,7e-05,-2e-05,-3e-05,-1e-05,0.00014,6,22
31427,4e-05,-0.00016,0.00016,7e-05,-2e-05,-3e-05,-1e-05,0.00014,6,22
31428,4e-05,-0.00016,0.00016,7e-05,-2e-05,-3e-05,-1e-05,0.00014,6,22
31429,4e-05,-0.00016,0.00016,7e-05,-2e-05,-3e-05,-1e-05,0.00014,6,22
31430,4e-05,-0.00016,0.00016,7e-05,-2e-05,-3e-05,-1e-05,0.00014,6,22
31431,4e-05,-0.00016,0.00016,7e-05,-2e-05,-3e-05,-1e-05,0.00014,6,22
31432,4e-05,-0.00016,0.00016,7e-05,-2e-05,-3e-05,-1e-05,0.00014,6,22
31433,-8e-05,6e-05,0.00025,0.00029,0,-4e-05,-2e-05,-4e-05,6,22
31434,-8e-05,6e-05,0.00025,0.00029,0,-4e-05,-2e-05,-4e-05,6,22
31435,-8e-05,6e-05,0.00025,0.00029,0,-4e-05,-2e-05,-4e-05,6,22
31436,-8e-05,6e-05,0.00025,0.00029,0,-4e-05,-2e-05,-4e-05,6,22
31438,-8e-05,6e-05,0.00025,0.00029,0,-4e-05,-2e-05,-4e-05,6,22
31439,-8e-05,6e-05,0.00025,0.00029,0,-4e-05,-2e-05,-4e-05,6,22
31440,-8e-05,6e-05,0.00025,0.00029,0,-4e-05,-2e-05,-4e-05,6,22
31441,-8e-05,6e-05,0.00025,0.00029,0,-4e-05,-2e-05,-4e-05,6,22
31442,-8e-05,6e-05,0.00025,0.00029,0,-4e-05,-2e-05,-4e-05,6,22
31443,-8e-05,6e-05,0.00025,0.00029,0,-4e-05,-2e-05,-4e-05,6,22
31444,-8e-05,6e-05,0.00025,0.00029,0,-4e-05,-2e-05,-4e-05,6,22
31445,-8e-05,6e-05,0.00025,0.00029,0,-4e-05,-2e-05,-4e-05,6,22
31446,-9e-05,-0.00022,-0.00053,-8e-05,-3e-05,-3e-05,-5e-05,-0.00024,6,22
31447,-9e-05,-0.00022,-0.00053,-8e-05,-3e-05,-3e-05,-5e-05,-0.00024,6,22
31448,-9e-05,-0.00022,-0.00053,-8e-05,-3e-05,-3e-05,-5e-05,-0.00024,6,22
31449,-9e-05,-0.00022,-0.00053,-8e-05,-3e-05,-3e-05,-5e-05,-0.00024,6,22
31450,-9e-05,-0.00022,-0.00053,-8e-05,-3e-05,-3e-05,-5e-05,-0.00024,6,22
31451,-9e-05,-0.00022,-0.00053,-8e-05,-3e-05,-3e-05,-5e-05,-0.00024,6,22
31452,-9e-05,-0.00022,-0.00053,-8e-05,-3e-05,-3e-05,-5e-05,-0.00024,6,22
31453,-9e-05,-0.00022,-0.00053,-8e-05,-3e-05,-3e-05,-5e-05,-0.00024,6,22
31454,1e-05,4e-05,-0.00045,-0.00024,-2e-05,-1e-05,-3e-05,-0.00019,6,22
31455,1e-05,4e-05,-0.00045,-0.00024,-2e-05,-1e-05,-3e-05,-0.00019,6,22
31456,1e-05,4e-05,-0.00045,-0.00024,-2e-05,-1e-05,-3e-05,-0.00019,6,22
31457,1e-05,4e-05,-0.00045,-0.00024,-2e-05,-1e-05,-3e-05,-0.00019,6,22
31458,1e-05,4e-05,-0.00045,-0.00024,-2e-05,-1e-05,-3e-05,-0.00019,6,22
31459,1e-05,4e-05,-0.00045,-0.00024,-2e-05,-1e-05,-3e-05,-0.00019,6,22
31460,1e-05,4e-05,-0.00045,-0.00024,-2e-05,-1e-05,-3e-05,-0.00019,6,22
31461,1e-05,4e-05,-0.00045,-0.00024,-2e-05,-1e-05,-3e-05,-0.00019,6,22
31462,1e-05,4e-05,-0.00045,-0.00024,-2e-05,-1e-05,-3e-05,-0.00019,6,22
31463,1e-05,4e-05,-0.00045,-0.00024,-2e-05,-1e-05,-3e-05,-0.00019,6,22
31464,1e-05,4e-05,-0.00045,-0.00024,-2e-05,-1e-05,-3e-05,-0.00019,6,22
31465,1e-05,4e-05,-0.00045,-0.00024,-2e-05,-1e-05,-3e-05,-0.00019,6,22
31466,1e-05,4e-05,-0.00045,-0.00024,-2e-05,-1e-05,-3e-05,-0.00019,6,22
31467,1e-05,4e-05,-0.00045,-0.00024,-2e-05,-1e-05,-3e-05,-0.00019,6,22
31468,1e-05,4e-05,-0.00045,-0.00024,-2e-05,-1e-05,-3e-05,-0.00019,6,22
31469,1e-05,4e-05,-0.00045,-0.00024,-2e-05,-1e-05,-3e-05,-0.00019,6,22
31470,-0.00021,0.00037,-0.00068,-0.00027,1e-05,3e-05,-2e-05,-0.00013,6,22
31471,0.00014,0.00014,0.00011,-7e-05,0,0,3e-05,0.00011,6,22
31472,0.00014,0.00014,0.00011,-7e-05,0,0,3e-05,0.00011,6,22
31473,0.00014,0.00014,0.00011,-7e-05,0,0,3e-05,0.00011,6,22
31474,0.00014,0.00014,0.00011,-7e-05,0,0,3e-05,0.00011,6,22
31475,0.00014,0.00014,0.00011,-7e-05,0,0,3e-05,0.00011,6,22
31476,0.00014,0.00014,0.00011,-7e-05,0,0,3e-05,0.00011,6,22
31477,0.00014,0.00014,0.00011,-7e-05,0,0,3e-05,0.00011,6,22
31478,0.00014,0.00014,0.00011,-7e-05,0,0,3e-05,0.00011,6,22
31479,0.00014,0.00014,0.00011,-7e-05,0,0,3e-05,0.00011,6,22
31480,0.00014,0.00014,0.00011,-7e-05,0,0,3e-05,0.00011,6,22
31481,0.00014,0.00014,0.00011,-7e-05,0,0,3e-05,0.00011,6,22
31482,0.00014,0.00014,0.00011,-7e-05,0,0,3e-05,0.00011,6,22
31483,0.00014,0.00014,0.00011,-7e-05,0,0,3e-05,0.00011,6,22
31484,0.00014,0.00014,0.00011,-7e-05,0,0,3e-05,0.00011,6,22
31485,0.00014,0.00014,0.00011,-7e-05,0,0,3e-05,0.00011,6,22
31486,0.00014,0.00014,0.00011,-7e-05,0,0,3e-05,0.00011,6,22
31488,0.00014,0.00014,0.00011,-7e-05,0,0,3e-05,0.00011,6,22
31489,0.00014,0.00014,0.00011,-7e-05,0,0,3e-05,0.00011,6,22
31490,0.00014,0.00014,0.00011,-7e-05,0,0,3e-05,0.00011,6,22
31491,0.00014,0.00014,0.00011,-7e-05,0,0,3e-05,0.00011,6,22
31492,1e-05,8e-05,0.00021,-3e-05,0,0,3e-05,-5e-05,6,22
31493,-4e-05,0.00022,-0.00011,-3e-05,-3e-05,-5e-05,-3e-05,-0.00017,6,22
31494,-4e-05,0.00022,-0.00011,-3e-05,-3e-05,-5e-05,-3e-05,-0.00017,6,22
31495,-4e-05,0.00022,-0.00011,-3e-05,-3e-05,-5e-05,-3e-05,-0.00017,6,22
31496,-4e-05,0.00022,-0.00011,-3e-05,-3e-05,-5e-05,-3e-05,-0.00017,6,22
31497,-4e-05,0.00022,-0.00011,-3e-05,-3e-05,-5e-05,-3e-05,-0.00017,6,22
31498,-4e-05,0.00022,-0.00011,-3e-05,-3e-05,-5e-05,-3e-05,-0.00017,6,22
31499,-4e-05,0.00022,-0.00011,-3e-05,-3e-05,-5e-05,-3e-05,-0.00017,6,22
31500,-4e-05,0.00022,-0.00011,-3e-05,-3e-05,-5e-05,-3e-05,-0.00017,6,22
31501,-4e-05,0.00022,-0.00011,-3e-05,-3e-05,-5e-05,-3e-05,-0.00017,6,22
31502,-4e-05,0.00022,-0.00011,-3e-05,-3e-05,-5e-05,-3e-05,-0.00017,6,22
31503,-4e-05,0.00022,-0.00011,-3e-05,-3e-05,-5e-05,-3e-05,-0.00017,6,22
31504,-4e-05,0.00022,-0.00011,-3e-05,-3e-05,-5e-05,-3e-05,-0.00017,6,22
31505,-4e-05,0.00022,-0.00011,-3e-05,-3e-05,-5e-05,-3e-05,-0.00017,6,22
31506,2e-05,-0.00012,3e-05,-0.00023,-5e-05,-1e-05,-4e-05,-0.00021,6,22
31507,2e-05,-0.00012,3e-05,-0.00023,-5e-05,-1e-05,-4e-05,-0.00021,6,22
31508,2e-05,-0.00012,3e-05,-0.00023,-5e-05,-1e-05,-4e-05,-0.00021,6,22
31509,2e-05,-0.00012,3e-05,-0.00023,-5e-05,-1e-05,-4e-05,-0.00021,6,22
31510,2e-05,-0.00012,3e-05,-0.00023,-5e-05,-1e-05,-4e-05,-0.00021,6,22
31511,2e-05,-0.00012,3e-05,-0.00023,-5e-05,-1e-05,-4e-05,-0.00021,6,22
31512,2e-05,-0.00012,3e-05,-0.00023,-5e-05,-1e-05,-4e-05,-0.00021,6,22
31513,2e-05,-0.00012,3e-05,-0.00023,-5e-05,-1e-05,-4e-05,-0.00021,6,22
31514,-0.00017,-4e-05,0.0001,-4e-05,1e-05,1e-05,-1e-05,-0.00012,6,22
31515,-0.00017,-4e-05,0.0001,-4e-05,1e-05,1e-05,-1e-05,-0.00012,6,22
31516,-0.00017,-4e-05,0.0001,-4e-05,1e-05,1e-05,-1e-05,-0.00012,6,22
31517,-0.00017,-4e-05,0.0001,-4e-05,1e-05,1e-05,-1e-05,-0.00012,6,22
31518,-0.00017,-4e-05,0.0001,-4e-05,1e-05,1e-05,-1e-05,-0.00012,6,22
31519,-0.00017,-4e-05,0.0001,-4e-05,1e-05,1e-05,-1e-05,-0.00012,6,22
31520,-0.00017,-4e-05,0.0001,-4e-05,1e-05,1e-05,-1e-05,-0.00012,6,22
31521,-0.00017,-4e-05,0.0001,-4e-05,1e-05,1e-05,-1e-05,-0.00012,6,22
31522,-0.00017,-4e-05,0.0001,-4e-05,1e-05,1e-05,-1e-05,-0.00012,6,22
31523,-0.00017,-4e-05,0.0001,-4e-05,1e-05,1e-05,-1e-05,-0.00012,6,22
31524,-0.00017,-4e-05,0.0001,-4e-05,1e-05,1e-05,-1e-05,-0.00012,6,22
31525,-0.00017,-4e-05,0.0001,-4e-05,1e-05,1e-05,-1e-05,-0.00012,6,22
31526,-0.00017,-4e-05,0.0001,-4e-05,1e-05,1e-05,-1e-05,-0.00012,6,22
31527,-0.00017,-4e-05,0.0001,-4e-05,1e-05,1e-05,-1e-05,-0.00012,6,22
31528,-0.00017,-4e-05,0.0001,-4e-05,1e-05,1e-05,-1e-05,-0.00012,6,22
31529,-0.00017,-4e-05,0.0001,-4e-05,1e-05,1e-05,-1e-05,-0.00012,6,22
31530,-0.00038,-7e-05,-6e-05,-0.00013,-3e-05,-5e-05,-5e-05,-0.00061,6,22
31531,0.00016,-0.00027,-0.00041,-0.00012,4e-05,4e-05,1e-05,-3e-05,6,22
31533,0.00016,-0.00027,-0.00041,-0.00012,4e-05,4e-05,1e-05,-3e-05,6,22
31534,0.00016,-0.00027,-0.00041,-0.00012,4e-05,4e-05,1e-05,-3e-05,6,22
31535,0.00016,-0.00027,-0.00041,-0.00012,4e-05,4e-05,1e-05,-3e-05,6,22
31536,0.00016,-0.00027,-0.00041,-0.00012,4e-05,4e-05,1e-05,-3e-05,6,22
31538,0.00016,-0.00027,-0.00041,-0.00012,4e-05,4e-05,1e-05,-3e-05,6,22
31539,0.00016,-0.00027,-0.00041,-0.00012,4e-05,4e-05,1e-05,-3e-05,6,22
31540,0.00016,-0.00027,-0.00041,-0.00012,4e-05,4e-05,1e-05,-3e-05,6,22
31541,0.00016,-0.00027,-0.00041,-0.00012,4e-05,4e-05,1e-05,-3e-05,6,22
31542,0.00016,-0.00027,-0.00041,-0.00012,4e-05,4e-05,1e-05,-3e-05,6,22
31543,0.00016,-0.00027,-0.00041,-0.00012,4e-05,4e-05,1e-05,-3e-05,6,22
31544,0.00016,-0.00027,-0.00041,-0.00012,4e-05,4e-05,1e-05,-3e-05,6,22
31545,0.00016,-0.00027,-0.00041,-0.00012,4e-05,4e-05,1e-05,-3e-05,6,22
31546,0.00016,-0.00027,-0.00041,-0.00012,4e-05,4e-05,1e-05,-3e-05,6,22
31547,0.00016,-0.00027,-0.00041,-0.00012,4e-05,4e-05,1e-05,-3e-05,6,22
31548,0.00016,-0.00027,-0.00041,-0.00012,4e-05,4e-05,1e-05,-3e-05,6,22
31549,0.00016,-0.00027,-0.00041,-0.00012,4e-05,4e-05,1e-05,-3e-05,6,22
31550,0.00016,-0.00027,-0.00041,-0.00012,4e-05,4e-05,1e-05,-3e-05,6,22
31551,0.00016,-0.00027,-0.00041,-0.00012,4e-05,4e-05,1e-05,-3e-05,6,22
31552,-6e-05,-3e-05,0.00017,0.00017,2e-05,1e-05,-1e-05,-1e-05,6,22
31553,-1e-05,-7e-05,0.00011,0.00015,1e-05,-1e-05,0,4e-05,6,22
31554,-1e-05,-7e-05,0.00011,0.00015,1e-05,-1e-05,0,4e-05,6,22
31555,-1e-05,-7e-05,0.00011,0.00015,1e-05,-1e-05,0,4e-05,6,22
31556,-1e-05,-7e-05,0.00011,0.00015,1e-05,-1e-05,0,4e-05,6,22
31557,-1e-05,-7e-05,0.00011,0.00015,1e-05,-1e-05,0,4e-05,6,22
31558,-1e-05,-7e-05,0.00011,0.00015,1e-05,-1e-05,0,4e-05,6,22
31559,-1e-05,-7e-05,0.00011,0.00015,1e-05,-1e-05,0,4e-05,6,22
31560,-1e-05,-7e-05,0.00011,0.00015,1e-05,-1e-05,0,4e-05,6,22
31561,-1e-05,-7e-05,0.00011,0.00015,1e-05,-1e-05,0,4e-05,6,22
31562,-1e-05,-7e-05,0.00011,0.00015,1e-05,-1e-05,0,4e-05,6,22
31563,-1e-05,-7e-05,0.00011,0.00015,1e-05,-1e-05,0,4e-05,6,22
31564,-1e-05,-7e-05,0.00011,0.00015,1e-05,-1e-05,0,4e-05,6,22
31565,-1e-05,-7e-05,0.00011,0.00015,1e-05,-1e-05,0,4e-05,6,22
31566,-9e-05,-0.00023,0.00011,0.00018,-1e-05,-5e-05,-3e-05,0.00012,6,22
31567,-9e-05,-0.00023,0.00011,0.00018,-1e-05,-5e-05,-3e-05,0.00012,6,22
31568,-9e-05,-0.00023,0.00011,0.00018,-1e-05,-5e-05,-3e-05,0.00012,6,22
31569,-9e-05,-0.00023,0.00011,0.00018,-1e-05,-5e-05,-3e-05,0.00012,6,22
31570,-9e-05,-0.00023,0.00011,0.00018,-1e-05,-5e-05,-3e-05,0.00012,6,22
31571,-9e-05,-0.00023,0.00011,0.00018,-1e-05,-5e-05,-3e-05,0.00012,6,22
31572,-9e-05,-0.00023,0.00011,0.00018,-1e-05,-5e-05,-3e-05,0.00012,6,22
31573,-9e-05,-0.00023,0.00011,0.00018,-1e-05,-5e-05,-3e-05,0.00012,6,22
31574,-0.00011,-0.00012,0.00026,0.00015,-1e-05,-1e-05,-3e-05,2e-05,6,22
31575,-0.00011,-0.00012,0.00026,0.00015,-1e-05,-1e-05,-3e-05,2e-05,6,22
31576,-0.00011,-0.00012,0.00026,0.00015,-1e-05,-1e-05,-3e-05,2e-05,6,22
31577,-0.00011,-0.00012,0.00026,0.00015,-1e-05,-1e-05,-3e-05,2e-05,6,22
31578,-0.00011,-0.00012,0.00026,0.00015,-1e-05,-1e-05,-3e-05,2e-05,6,22
31579,-0.00011,-0.00012,0.00026,0.00015,-1e-05,-1e-05,-3e-05,2e-05,6,22
31580,-0.00011,-0.00012,0.00026,0.00015,-1e-05,-1e-05,-3e-05,2e-05,6,22
31581,-0.00011,-0.00012,0.00026,0.00015,-1e-05,-1e-05,-3e-05,2e-05,6,22
31582,-0.00011,-0.00012,0.00026,0.00015,-1e-05,-1e-05,-3e-05,2e-05,6,22
31583,-0.00011,-0.00012,0.00026,0.00015,-1e-05,-1e-05,-3e-05,2e-05,6,22
31584,-0.00011,-0.00012,0.00026,0.00015,-1e-05,-1e-05,-3e-05,2e-05,6,22
31585,-0.00011,-0.00012,0.00026,0.00015,-1e-05,-1e-05,-3e-05,2e-05,6,22
31586,-0.00011,-0.00012,0.00026,0.00015,-1e-05,-1e-05,-3e-05,2e-05,6,22
31588,-0.00011,-0.00012,0.00026,0.00015,-1e-05,-1e-05,-3e-05,2e-05,6,22
31589,-0.00011,-0.00012,0.00026,0.00015,-1e-05,-1e-05,-3e-05,2e-05,6,22
31590,-2e-05,-8e-05,-0.00042,-0.00028,-5e-05,-3e-05,0,6e-05,6,22
31591,-2e-05,-8e-05,-0.00042,-0.00028,-5e-05,-3e-05,0,6e-05,6,22
31592,-2e-05,-8e-05,-0.00042,-0.00028,-5e-05,-3e-05,0,6e-05,6,22
31593,-2e-05,-8e-05,-0.00042,-0.00028,-5e-05,-3e-05,0,6e-05,6,22
31594,-2e-05,-8e-05,-0.00042,-0.00028,-5e-05,-3e-05,0,6e-05,6,22
31595,-2e-05,-8e-05,-0.00042,-0.00028,-5e-05,-3e-05,0,6e-05,6,22
31596,-2e-05,-8e-05,-0.00042,-0.00028,-5e-05,-3e-05,0,6e-05,6,22
31597,-2e-05,-8e-05,-0.00042,-0.00028,-5e-05,-3e-05,0,6e-05,6,22
31598,-2e-05,-8e-05,-0.00042,-0.00028,-5e-05,-3e-05,0,6e-05,6,22
31599,-2e-05,-8e-05,-0.00042,-0.00028,-5e-05,-3e-05,0,6e-05,6,22
31600,-2e-05,-8e-05,-0.00042,-0.00028,-5e-05,-3e-05,0,6e-05,6,22
31601,-2e-05,-8e-05,-0.00042,-0.00028,-5e-05,-3e-05,0,6e-05,6,22
31602,-2e-05,-8e-05,-0.00042,-0.00028,-5e-05,-3e-05,0,6e-05,6,22
31603,-2e-05,-8e-05,-0.00042,-0.00028,-5e-05,-3e-05,0,6e-05,6,22
31604,-2e-05,-8e-05,-0.00042,-0.00028,-5e-05,-3e-05,0,6e-05,6,22
31605,-2e-05,-8e-05,-0.00042,-0.00028,-5e-05,-3e-05,0,6e-05,6,22
31606,-2e-05,-8e-05,-0.00042,-0.00028,-5e-05,-3e-05,0,6e-05,6,22
31607,-2e-05,-8e-05,-0.00042,-0.00028,-5e-05,-3e-05,0,6e-05,6,22
31608,-2e-05,-8e-05,-0.00042,-0.00028,-5e-05,-3e-05,0,6e-05,6,22
31609,-2e-05,-8e-05,-0.00042,-0.00028,-5e-05,-3e-05,0,6e-05,6,22
31610,-2e-05,-8e-05,-0.00042,-0.00028,-5e-05,-3e-05,0,6e-05,6,22
31611,-2e-05,-8e-05,-0.00042,-0.00028,-5e-05,-3e-05,0,6e-05,6,22
31612,-0.00018,-9e-05,-8e-05,-5e-05,3e-05,3e-05,1e-05,-7e-05,6,22
31613,3e-05,4e-05,0.00019,5e-05,-1e-05,-2e-05,-1e-05,-1e-05,6,22
31614,3e-05,4e-05,0.00019,5e-05,-1e-05,-2e-05,-1e-05,-1e-05,6,22
31615,3e-05,4e-05,0.00019,5e-05,-1e-05,-2e-05,-1e-05,-1e-05,6,22
31616,3e-05,4e-05,0.00019,5e-05,-1e-05,-2e-05,-1e-05,-1e-05,6,22
31617,3e-05,4e-05,0.00019,5e-05,-1e-05,-2e-05,-1e-05,-1e-05,6,22
31618,3e-05,4e-05,0.00019,5e-05,-1e-05,-2e-05,-1e-05,-1e-05,6,22
31619,3e-05,4e-05,0.00019,5e-05,-1e-05,-2e-05,-1e-05,-1e-05,6,22
31620,3e-05,4e-05,0.00019,5e-05,-1e-05,-2e-05,-1e-05,-1e-05,6,22
31621,3e-05,4e-05,0.00019,5e-05,-1e-05,-2e-05,-1e-05,-1e-05,6,22
31622,3e-05,4e-05,0.00019,5e-05,-1e-05,-2e-05,-1e-05,-1e-05,6,22
31623,3e-05,4e-05,0.00019,5e-05,-1e-05,-2e-05,-1e-05,-1e-05,6,22
31624,3e-05,4e-05,0.00019,5e-05,-1e-05,-2e-05,-1e-05,-1e-05,6,22
31625,3e-05,4e-05,0.00019,5e-05,-1e-05,-2e-05,-1e-05,-1e-05,6,22
31626,4e-05,5e-05,0.00031,4e-05,3e-05,3e-05,1e-05,-2e-05,6,22
31627,4e-05,5e-05,0.00031,4e-05,3e-05,3e-05,1e-05,-2e-05,6,22
31628,4e-05,5e-05,0.00031,4e-05,3e-05,3e-05,1e-05,-2e-05,6,22
31629,4e-05,5e-05,0.00031,4e-05,3e-05,3e-05,1e-05,-2e-05,6,22
31630,4e-05,5e-05,0.00031,4e-05,3e-05,3e-05,1e-05,-2e-05,6,22
31631,4e-05,5e-05,0.00031,4e-05,3e-05,3e-05,1e-05,-2e-05,6,22
31632,4e-05,5e-05,0.00031,4e-05,3e-05,3e-05,1e-05,-2e-05,6,22
31633,4e-05,5e-05,0.00031,4e-05,3e-05,3e-05,1e-05,-2e-05,6,22
31634,-4e-05,-3e-05,9e-05,5e-05,-4e-05,-5e-05,-7e-05,-0.00017,6,22
31635,-4e-05,-3e-05,9e-05,5e-05,-4e-05,-5e-05,-7e-05,-0.00017,6,22
31636,-4e-05,-3e-05,9e-05,5e-05,-4e-05,-5e-05,-7e-05,-0.00017,6,22
31638,-4e-05,-3e-05,9e-05,5e-05,-4e-05,-5e-05,-7e-05,-0.00017,6,22
31639,-4e-05,-3e-05,9e-05,5e-05,-4e-05,-5e-05,-7e-05,-0.00017,6,22
31640,-4e-05,-3e-05,9e-05,5e-05,-4e-05,-5e-05,-7e-05,-0.00017,6,22
31641,-4e-05,-3e-05,9e-05,5e-05,-4e-05,-5e-05,-7e-05,-0.00017,6,22
31642,-4e-05,-3e-05,9e-05,5e-05,-4e-05,-5e-05,-7e-05,-0.00017,6,22
31643,-4e-05,-3e-05,9e-05,5e-05,-4e-05,-5e-05,-7e-05,-0.00017,6,22
31644,-4e-05,-3e-05,9e-05,5e-05,-4e-05,-5e-05,-7e-05,-0.00017,6,22
31645,-4e-05,-3e-05,9e-05,5e-05,-4e-05,-5e-05,-7e-05,-0.00017,6,22
31646,-4e-05,-3e-05,9e-05,5e-05,-4e-05,-5e-05,-7e-05,-0.00017,6,22
31647,-4e-05,-3e-05,9e-05,5e-05,-4e-05,-5e-05,-7e-05,-0.00017,6,22
31648,-4e-05,-3e-05,9e-05,5e-05,-4e-05,-5e-05,-7e-05,-0.00017,6,22
31649,-0.00026,0.00014,0.00018,9e-05,-1e-05,1e-05,0,-0.00019,6,22
31650,-0.00026,0.00014,0.00018,9e-05,-1e-05,1e-05,0,-0.00019,6,22
31651,-0.00026,0.00014,0.00018,9e-05,-1e-05,1e-05,0,-0.00019,6,22
31652,-0.00026,0.00014,0.00018,9e-05,-1e-05,1e-05,0,-0.00019,6,22
31653,-0.00026,0.00014,0.00018,9e-05,-1e-05,1e-05,0,-0.00019,6,22
31654,-0.00026,0.00014,0.00018,9e-05,-1e-05,1e-05,0,-0.00019,6,22
31655,-0.00026,0.00014,0.00018,9e-05,-1e-05,1e-05,0,-0.00019,6,22
31656,8e-05,5e-05,-1e-05,0.00016,1e-05,-1e-05,-1e-05,7e-05,6,22
31658,8e-05,5e-05,-1e-05,0.00016,1e-05,-1e-05,-1e-05,7e-05,6,22
31659,8e-05,5e-05,-1e-05,0.00016,1e-05,-1e-05,-1e-05,7e-05,6,22
31660,8e-05,5e-05,-1e-05,0.00016,1e-05,-1e-05,-1e-05,7e-05,6,22
31661,8e-05,5e-05,-1e-05,0.00016,1e-05,-1e-05,-1e-05,7e-05,6,22
31662,8e-05,5e-05,-1e-05,0.00016,1e-05,-1e-05,-1e-05,7e-05,6,22
31663,8e-05,5e-05,-1e-05,0.00016,1e-05,-1e-05,-1e-05,7e-05,6,22
31664,8e-05,5e-05,-1e-05,0.00016,1e-05,-1e-05,-1e-05,7e-05,6,22
31665,8e-05,5e-05,-1e-05,0.00016,1e-05,-1e-05,-1e-05,7e-05,6,22
31666,8e-05,5e-05,-1e-05,0.00016,1e-05,-1e-05,-1e-05,7e-05,6,22
31667,8e-05,5e-05,-1e-05,0.00016,1e-05,-1e-05,-1e-05,7e-05,6,22
31668,8e-05,5e-05,-1e-05,0.00016,1e-05,-1e-05,-1e-05,7e-05,6,22
31669,8e-05,5e-05,-1e-05,0.00016,1e-05,-1e-05,-1e-05,7e-05,6,22
31670,8e-05,5e-05,-1e-05,0.00016,1e-05,-1e-05,-1e-05,7e-05,6,22
31671,8e-05,5e-05,-1e-05,0.00016,1e-05,-1e-05,-1e-05,7e-05,6,22
31672,-3e-05,4e-05,0.00011,0.00013,-3e-05,-3e-05,1e-05,-5e-05,6,22
31673,-3e-05,4e-05,0.00011,0.00013,-3e-05,-3e-05,1e-05,-5e-05,6,22
31674,0.00013,3e-05,-0.00031,-3e-05,-6e-05,-6e-05,-2e-05,-0.00017,6,22
31675,0.00013,3e-05,-0.00031,-3e-05,-6e-05,-6e-05,-2e-05,-0.00017,6,22
31676,0.00013,3e-05,-0.00031,-3e-05,-6e-05,-6e-05,-2e-05,-0.00017,6,22
31677,0.00013,3e-05,-0.00031,-3e-05,-6e-05,-6e-05,-2e-05,-0.00017,6,22
31678,0.00013,3e-05,-0.00031,-3e-05,-6e-05,-6e-05,-2e-05,-0.00017,6,22
31679,0.00013,3e-05,-0.00031,-3e-05,-6e-05,-6e-05,-2e-05,-0.00017,6,22
31680,0.00013,3e-05,-0.00031,-3e-05,-6e-05,-6e-05,-2e-05,-0.00017,6,22
31681,0.00013,3e-05,-0.00031,-3e-05,-6e-05,-6e-05,-2e-05,-0.00017,6,22
31682,0.00013,3e-05,-0.00031,-3e-05,-6e-05,-6e-05,-2e-05,-0.00017,6,22
31683,0.00013,3e-05,-0.00031,-3e-05,-6e-05,-6e-05,-2e-05,-0.00017,6,22
31684,0.00013,3e-05,-0.00031,-3e-05,-6e-05,-6e-05,-2e-05,-0.00017,6,22
31685,0.00013,3e-05,-0.00031,-3e-05,-6e-05,-6e-05,-2e-05,-0.00017,6,22
31686,0.00013,3e-05,-0.00031,-3e-05,-6e-05,-6e-05,-2e-05,-0.00017,6,22
31688,0.00013,3e-05,-0.00031,-3e-05,-6e-05,-6e-05,-2e-05,-0.00017,6,22
31689,0.00013,3e-05,-0.00031,-3e-05,-6e-05,-6e-05,-2e-05,-0.00017,6,22
31690,0.00013,3e-05,-0.00031,-3e-05,-6e-05,-6e-05,-2e-05,-0.00017,6,22
31691,0.00013,3e-05,-0.00031,-3e-05,-6e-05,-6e-05,-2e-05,-0.00017,6,22
31692,0.00013,3e-05,-0.00031,-3e-05,-6e-05,-6e-05,-2e-05,-0.00017,6,22
31693,0.00013,3e-05,-0.00031,-3e-05,-6e-05,-6e-05,-2e-05,-0.00017,6,22
31694,0.00013,3e-05,-0.00031,-3e-05,-6e-05,-6e-05,-2e-05,-0.00017,6,22
31695,-6e-05,-9e-05,-8e-05,-2e-05,-4e-05,-5e-05,2e-05,0.00043,6,22
31696,3e-05,0.00015,-4e-05,8e-05,1e-05,0,0,0.00011,6,22
31698,3e-05,0.00015,-4e-05,8e-05,1e-05,0,0,0.00011,6,22
31699,3e-05,0.00015,-4e-05,8e-05,1e-05,0,0,0.00011,6,22
31700,3e-05,0.00015,-4e-05,8e-05,1e-05,0,0,0.00011,6,22
31701,3e-05,0.00015,-4e-05,8e-05,1e-05,0,0,0.00011,6,22
31702,3e-05,0.00015,-4e-05,8e-05,1e-05,0,0,0.00011,6,22
31703,3e-05,0.00015,-4e-05,8e-05,1e-05,0,0,0.00011,6,22
31704,3e-05,0.00015,-4e-05,8e-05,1e-05,0,0,0.00011,6,22
31705,3e-05,0.00015,-4e-05,8e-05,1e-05,0,0,0.00011,6,22
31706,3e-05,0.00015,-4e-05,8e-05,1e-05,0,0,0.00011,6,22
31707,3e-05,0.00015,-4e-05,8e-05,1e-05,0,0,0.00011,6,22
31708,3e-05,0.00015,-4e-05,8e-05,1e-05,0,0,0.00011,6,22
31709,0.00023,-2e-05,2e-05,-1e-05,-3e-05,-4e-05,-3e-05,-7e-05,6,22
31710,0.00023,-2e-05,2e-05,-1e-05,-3e-05,-4e-05,-3e-05,-7e-05,6,22
31711,0.00023,-2e-05,2e-05,-1e-05,-3e-05,-4e-05,-3e-05,-7e-05,6,22
31712,0.00023,-2e-05,2e-05,-1e-05,-3e-05,-4e-05,-3e-05,-7e-05,6,22
31713,0.00023,-2e-05,2e-05,-1e-05,-3e-05,-4e-05,-3e-05,-7e-05,6,22
31714,0.00023,-2e-05,2e-05,-1e-05,-3e-05,-4e-05,-3e-05,-7e-05,6,22
31715,0.00023,-2e-05,2e-05,-1e-05,-3e-05,-4e-05,-3e-05,-7e-05,6,22
31716,0,0.00011,7e-05,2e-05,-1e-05,-1e-05,1e-05,7e-05,6,22
31717,-0.00015,-7e-05,-4e-05,-0.00015,-6e-05,-4e-05,-3e-05,-0.0001,6,22
31718,-0.00015,-7e-05,-4e-05,-0.00015,-6e-05,-4e-05,-3e-05,-0.0001,6,22
31719,-0.00015,-7e-05,-4e-05,-0.00015,-6e-05,-4e-05,-3e-05,-0.0001,6,22
31720,-0.00015,-7e-05,-4e-05,-0.00015,-6e-05,-4e-05,-3e-05,-0.0001,6,22
31721,-0.00015,-7e-05,-4e-05,-0.00015,-6e-05,-4e-05,-3e-05,-0.0001,6,22
31722,-0.00015,-7e-05,-4e-05,-0.00015,-6e-05,-4e-05,-3e-05,-0.0001,6,22
31723,-0.00015,-7e-05,-4e-05,-0.00015,-6e-05,-4e-05,-3e-05,-0.0001,6,22
31724,-0.00015,-7e-05,-4e-05,-0.00015,-6e-05,-4e-05,-3e-05,-0.0001,6,22
31725,-0.00015,-7e-05,-4e-05,-0.00015,-6e-05,-4e-05,-3e-05,-0.0001,6,22
31726,-0.00015,-7e-05,-4e-05,-0.00015,-6e-05,-4e-05,-3e-05,-0.0001,6,22
31727,-0.00015,-7e-05,-4e-05,-0.00015,-6e-05,-4e-05,-3e-05,-0.0001,6,22
31728,-0.00015,-7e-05,-4e-05,-0.00015,-6e-05,-4e-05,-3e-05,-0.0001,6,22
31729,-0.00015,-7e-05,-4e-05,-0.00015,-6e-05,-4e-05,-3e-05,-0.0001,6,22
31730,-0.00015,-7e-05,-4e-05,-0.00015,-6e-05,-4e-05,-3e-05,-0.0001,6,22
31731,-0.00015,-7e-05,-4e-05,-0.00015,-6e-05,-4e-05,-3e-05,-0.0001,6,22
31732,-1e-05,0,-4e-05,-7e-05,1e-05,1e-05,-2e-05,-0.00013,6,22
31733,-1e-05,0,-4e-05,-7e-05,1e-05,1e-05,-2e-05,-0.00013,6,22
31734,0.00021,-0.00011,-0.0001,9e-05,-1e-05,-1e-05,-1e-05,5e-05,6,22
31735,0.00021,-0.00011,-0.0001,9e-05,-1e-05,-1e-05,-1e-05,5e-05,6,22
31736,0.00021,-0.00011,-0.0001,9e-05,-1e-05,-1e-05,-1e-05,5e-05,6,22
31738,0.00021,-0.00011,-0.0001,9e-05,-1e-05,-1e-05,-1e-05,5e-05,6,22
31739,0.00021,-0.00011,-0.0001,9e-05,-1e-05,-1e-05,-1e-05,5e-05,6,22
31740,0.00021,-0.00011,-0.0001,9e-05,-1e-05,-1e-05,-1e-05,5e-05,6,22
31741,0.00021,-0.00011,-0.0001,9e-05,-1e-05,-1e-05,-1e-05,5e-05,6,22
31742,0.00021,-0.00011,-0.0001,9e-05,-1e-05,-1e-05,-1e-05,5e-05,6,22
31743,0.00021,-0.00011,-0.0001,9e-05,-1e-05,-1e-05,-1e-05,5e-05,6,22
31744,0.00021,-0.00011,-0.0001,9e-05,-1e-05,-1e-05,-1e-05,5e-05,6,22
31745,0.00021,-0.00011,-0.0001,9e-05,-1e-05,-1e-05,-1e-05,5e-05,6,22
31746,0.00021,-0.00011,-0.0001,9e-05,-1e-05,-1e-05,-1e-05,5e-05,6,22
31747,0.00021,-0.00011,-0.0001,9e-05,-1e-05,-1e-05,-1e-05,5e-05,6,22
31748,0.00021,-0.00011,-0.0001,9e-05,-1e-05,-1e-05,-1e-05,5e-05,6,22
31749,0.00021,-0.00011,-0.0001,9e-05,-1e-05,-1e-05,-1e-05,5e-05,6,22
31750,0.00021,-0.00011,-0.0001,9e-05,-1e-05,-1e-05,-1e-05,5e-05,6,22
31751,0.00021,-0.00011,-0.0001,9e-05,-1e-05,-1e-05,-1e-05,5e-05,6,22
31752,0.00021,-0.00011,-0.0001,9e-05,-1e-05,-1e-05,-1e-05,5e-05,6,22
31753,0.00021,-0.00011,-0.0001,9e-05,-1e-05,-1e-05,-1e-05,5e-05,6,22
31754,0.00021,-0.00011,-0.0001,9e-05,-1e-05,-1e-05,-1e-05,5e-05,6,22
31755,0.0003,-2e-05,7e-05,6e-05,-2e-05,-3e-05,-5e-05,-0.00012,6,22
31756,-0.0001,3e-05,0.00059,0.00015,2e-05,4e-05,3e-05,0.00011,6,22
31758,-0.0001,3e-05,0.00059,0.00015,2e-05,4e-05,3e-05,0.00011,6,22
31759,-0.0001,3e-05,0.00059,0.00015,2e-05,4e-05,3e-05,0.00011,6,22
31760,-0.0001,3e-05,0.00059,0.00015,2e-05,4e-05,3e-05,0.00011,6,22
31761,-0.0001,3e-05,0.00059,0.00015,2e-05,4e-05,3e-05,0.00011,6,22
31762,-0.0001,3e-05,0.00059,0.00015,2e-05,4e-05,3e-05,0.00011,6,22
31763,-0.0001,3e-05,0.00059,0.00015,2e-05,4e-05,3e-05,0.00011,6,22
31764,-0.0001,3e-05,0.00059,0.00015,2e-05,4e-05,3e-05,0.00011,6,22
31765,-0.0001,3e-05,0.00059,0.00015,2e-05,4e-05,3e-05,0.00011,6,22
31766,-0.0001,3e-05,0.00059,0.00015,2e-05,4e-05,3e-05,0.00011,6,22
31767,-0.0001,3e-05,0.00059,0.00015,2e-05,4e-05,3e-05,0.00011,6,22
31768,-0.0001,3e-05,0.00059,0.00015,2e-05,4e-05,3e-05,0.00011,6,22
31769,0.00013,0.0001,-3e-05,0,0,-2e-05,-3e-05,-3e-05,6,22
31770,0.00013,0.0001,-3e-05,0,0,-2e-05,-3e-05,-3e-05,6,22
31771,0.00013,0.0001,-3e-05,0,0,-2e-05,-3e-05,-3e-05,6,22
31772,0.00013,0.0001,-3e-05,0,0,-2e-05,-3e-05,-3e-05,6,22
31773,0.00013,0.0001,-3e-05,0,0,-2e-05,-3e-05,-3e-05,6,22
31774,0.00013,0.0001,-3e-05,0,0,-2e-05,-3e-05,-3e-05,6,22
31775,0.00013,0.0001,-3e-05,0,0,-2e-05,-3e-05,-3e-05,6,22
31776,-9e-05,-2e-05,0.00013,1e-05,3e-05,3e-05,5e-05,7e-05,6,22
31777,-9e-05,-2e-05,0.00013,1e-05,3e-05,3e-05,5e-05,7e-05,6,22
31778,-9e-05,-2e-05,0.00013,1e-05,3e-05,3e-05,5e-05,7e-05,6,22
31779,-9e-05,-2e-05,0.00013,1e-05,3e-05,3e-05,5e-05,7e-05,6,22
31780,-9e-05,-2e-05,0.00013,1e-05,3e-05,3e-05,5e-05,7e-05,6,22
31781,-9e-05,-2e-05,0.00013,1e-05,3e-05,3e-05,5e-05,7e-05,6,22
31782,-9e-05,-2e-05,0.00013,1e-05,3e-05,3e-05,5e-05,7e-05,6,22
31783,-9e-05,-2e-05,0.00013,1e-05,3e-05,3e-05,5e-05,7e-05,6,22
31784,-9e-05,-2e-05,0.00013,1e-05,3e-05,3e-05,5e-05,7e-05,6,22
31785,-9e-05,-2e-05,0.00013,1e-05,3e-05,3e-05,5e-05,7e-05,6,22
31786,-9e-05,-2e-05,0.00013,1e-05,3e-05,3e-05,5e-05,7e-05,6,22
31788,-9e-05,-2e-05,0.00013,1e-05,3e-05,3e-05,5e-05,7e-05,6,22
31789,-9e-05,-2e-05,0.00013,1e-05,3e-05,3e-05,5e-05,7e-05,6,22
31790,-9e-05,-2e-05,0.00013,1e-05,3e-05,3e-05,5e-05,7e-05,6,22
31791,-9e-05,-2e-05,0.00013,1e-05,3e-05,3e-05,5e-05,7e-05,6,22
31792,-0.00033,0,2e-05,8e-05,-4e-05,-3e-05,-1e-05,-8e-05,6,22
31793,-0.00033,0,2e-05,8e-05,-4e-05,-3e-05,-1e-05,-8e-05,6,22
31794,0.00015,8e-05,-7e-05,-0.00015,-2e-05,-5e-05,-9e-05,-0.00023,6,22
31795,0.00015,8e-05,-7e-05,-0.00015,-2e-05,-5e-05,-9e-05,-0.00023,6,22
31796,0.00015,8e-05,-7e-05,-0.00015,-2e-05,-5e-05,-9e-05,-0.00023,6,22
31797,0.00015,8e-05,-7e-05,-0.00015,-2e-05,-5e-05,-9e-05,-0.00023,6,22
31798,0.00015,8e-05,-7e-05,-0.00015,-2e-05,-5e-05,-9e-05,-0.00023,6,22
31799,0.00015,8e-05,-7e-05,-0.00015,-2e-05,-5e-05,-9e-05,-0.00023,6,22
31800,0.00015,8e-05,-7e-05,-0.00015,-2e-05,-5e-05,-9e-05,-0.00023,6,22
31801,0.00015,8e-05,-7e-05,-0.00015,-2e-05,-5e-05,-9e-05,-0.00023,6,22
31802,0.00015,8e-05,-7e-05,-0.00015,-2e-05,-5e-05,-9e-05,-0.00023,6,22
31803,0.00015,8e-05,-7e-05,-0.00015,-2e-05,-5e-05,-9e-05,-0.00023,6,22
31804,0.00015,8e-05,-7e-05,-0.00015,-2e-05,-5e-05,-9e-05,-0.00023,6,22
31805,0.00015,8e-05,-7e-05,-0.00015,-2e-05,-5e-05,-9e-05,-0.00023,6,22
31806,0.00015,8e-05,-7e-05,-0.00015,-2e-05,-5e-05,-9e-05,-0.00023,6,22
31807,0.00015,8e-05,-7e-05,-0.00015,-2e-05,-5e-05,-9e-05,-0.00023,6,22
31808,0.00015,8e-05,-7e-05,-0.00015,-2e-05,-5e-05,-9e-05,-0.00023,6,22
31809,0.00015,8e-05,-7e-05,-0.00015,-2e-05,-5e-05,-9e-05,-0.00023,6,22
31810,0.00015,8e-05,-7e-05,-0.00015,-2e-05,-5e-05,-9e-05,-0.00023,6,22
31811,0.00015,8e-05,-7e-05,-0.00015,-2e-05,-5e-05,-9e-05,-0.00023,6,22
31812,0.00015,8e-05,-7e-05,-0.00015,-2e-05,-5e-05,-9e-05,-0.00023,6,22
31813,0.00015,8e-05,-7e-05,-0.00015,-2e-05,-5e-05,-9e-05,-0.00023,6,22
31814,0.00015,8e-05,-7e-05,-0.00015,-2e-05,-5e-05,-9e-05,-0.00023,6,22
31815,-4e-05,9e-05,-0.00015,-2e-05,1e-05,1e-05,-1e-05,8e-05,6,22
31816,1e-05,-8e-05,0.00016,0.0002,0,-3e-05,0,-2e-05,6,22
31817,-0.00052,-0.0001,-0.00044,-0.00031,-6e-05,-3e-05,-1e-05,8e-05,6,22
31818,-0.00052,-0.0001,-0.00044,-0.00031,-6e-05,-3e-05,-1e-05,8e-05,6,22
31819,-0.00052,-0.0001,-0.00044,-0.00031,-6e-05,-3e-05,-1e-05,8e-05,6,22
31820,-0.00052,-0.0001,-0.00044,-0.00031,-6e-05,-3e-05,-1e-05,8e-05,6,22
31821,-0.00052,-0.0001,-0.00044,-0.00031,-6e-05,-3e-05,-1e-05,8e-05,6,22
31822,-0.00052,-0.0001,-0.00044,-0.00031,-6e-05,-3e-05,-1e-05,8e-05,6,22
31823,-0.00052,-0.0001,-0.00044,-0.00031,-6e-05,-3e-05,-1e-05,8e-05,6,22
31824,-0.00052,-0.0001,-0.00044,-0.00031,-6e-05,-3e-05,-1e-05,8e-05,6,22
31825,-0.00052,-0.0001,-0.00044,-0.00031,-6e-05,-3e-05,-1e-05,8e-05,6,22
31826,-0.00052,-0.0001,-0.00044,-0.00031,-6e-05,-3e-05,-1e-05,8e-05,6,22
31827,-0.00052,-0.0001,-0.00044,-0.00031,-6e-05,-3e-05,-1e-05,8e-05,6,22
31828,-0.00052,-0.0001,-0.00044,-0.00031,-6e-05,-3e-05,-1e-05,8e-05,6,22
31829,7e-05,0,-0.0002,-9e-05,1e-05,1e-05,-2e-05,-0.0001,6,22
31830,7e-05,0,-0.0002,-9e-05,1e-05,1e-05,-2e-05,-0.0001,6,22
31831,7e-05,0,-0.0002,-9e-05,1e-05,1e-05,-2e-05,-0.0001,6,22
31832,7e-05,0,-0.0002,-9e-05,1e-05,1e-05,-2e-05,-0.0001,6,22
31833,7e-05,0,-0.0002,-9e-05,1e-05,1e-05,-2e-05,-0.0001,6,22
31834,7e-05,0,-0.0002,-9e-05,1e-05,1e-05,-2e-05,-0.0001,6,22
31835,7e-05,0,-0.0002,-9e-05,1e-05,1e-05,-2e-05,-0.0001,6,22
31836,9e-05,8e-05,0,0,0,0,2e-05,0.00013,6,22
31838,9e-05,8e-05,0,0,0,0,2e-05,0.00013,6,22
31839,9e-05,8e-05,0,0,0,0,2e-05,0.00013,6,22
31840,9e-05,8e-05,0,0,0,0,2e-05,0.00013,6,22
31841,9e-05,8e-05,0,0,0,0,2e-05,0.00013,6,22
31842,9e-05,8e-05,0,0,0,0,2e-05,0.00013,6,22
31843,9e-05,8e-05,0,0,0,0,2e-05,0.00013,6,22
31844,9e-05,8e-05,0,0,0,0,2e-05,0.00013,6,22
31845,9e-05,8e-05,0,0,0,0,2e-05,0.00013,6,22
31846,9e-05,8e-05,0,0,0,0,2e-05,0.00013,6,22
31847,9e-05,8e-05,0,0,0,0,2e-05,0.00013,6,22
31848,9e-05,8e-05,0,0,0,0,2e-05,0.00013,6,22
31849,9e-05,8e-05,0,0,0,0,2e-05,0.00013,6,22
31850,9e-05,8e-05,0,0,0,0,2e-05,0.00013,6,22
31851,9e-05,8e-05,0,0,0,0,2e-05,0.00013,6,22
31852,9e-05,8e-05,0,0,0,0,2e-05,0.00013,6,22
31853,9e-05,8e-05,0,0,0,0,2e-05,0.00013,6,22
31854,9e-05,8e-05,0,0,0,0,2e-05,0.00013,6,22
31855,9e-05,8e-05,0,0,0,0,2e-05,0.00013,6,22
31856,9e-05,8e-05,0,0,0,0,2e-05,0.00013,6,22
31857,9e-05,8e-05,0,0,0,0,2e-05,0.00013,6,22
31858,9e-05,8e-05,0,0,0,0,2e-05,0.00013,6,22
31859,9e-05,8e-05,0,0,0,0,2e-05,0.00013,6,22
31860,-0.00017,-0.00013,-2e-05,0.00011,1e-05,0,0,-2e-05,6,22
31861,-0.00011,-0.00022,-0.00049,-8e-05,-6e-05,-8e-05,-5e-05,-0.00018,6,22
31862,-0.00011,-0.00022,-0.00049,-8e-05,-6e-05,-8e-05,-5e-05,-0.00018,6,22
31863,-0.00011,-0.00022,-0.00049,-8e-05,-6e-05,-8e-05,-5e-05,-0.00018,6,22
31864,-0.00011,-0.00022,-0.00049,-8e-05,-6e-05,-8e-05,-5e-05,-0.00018,6,22
31865,-0.00011,-0.00022,-0.00049,-8e-05,-6e-05,-8e-05,-5e-05,-0.00018,6,22
31866,-0.00011,-0.00022,-0.00049,-8e-05,-6e-05,-8e-05,-5e-05,-0.00018,6,22
31867,-0.00011,-0.00022,-0.00049,-8e-05,-6e-05,-8e-05,-5e-05,-0.00018,6,22
31868,-0.00011,-0.00022,-0.00049,-8e-05,-6e-05,-8e-05,-5e-05,-0.00018,6,22
31869,-0.00011,-0.00022,-0.00049,-8e-05,-6e-05,-8e-05,-5e-05,-0.00018,6,22
31870,-0.00011,-0.00022,-0.00049,-8e-05,-6e-05,-8e-05,-5e-05,-0.00018,6,22
31871,-0.00011,-0.00022,-0.00049,-8e-05,-6e-05,-8e-05,-5e-05,-0.00018,6,22
31872,-0.00011,-0.00022,-0.00049,-8e-05,-6e-05,-8e-05,-5e-05,-0.00018,6,22
31873,-0.00011,-0.00022,-0.00049,-8e-05,-6e-05,-8e-05,-5e-05,-0.00018,6,22
31874,-0.00011,-0.00022,-0.00049,-8e-05,-6e-05,-8e-05,-5e-05,-0.00018,6,22
31875,0.00033,-4e-05,-0.00047,-0.0002,-8e-05,-7e-05,-5e-05,-0.00014,6,22
31876,0.00031,3e-05,-2e-05,-1e-05,2e-05,1e-05,1e-05,0.00013,6,22
31877,0.00031,3e-05,-2e-05,-1e-05,2e-05,1e-05,1e-05,0.00013,6,22
31878,0.00031,3e-05,-2e-05,-1e-05,2e-05,1e-05,1e-05,0.00013,6,22
31879,0.00031,3e-05,-2e-05,-1e-05,2e-05,1e-05,1e-05,0.00013,6,22
31880,0.00031,3e-05,-2e-05,-1e-05,2e-05,1e-05,1e-05,0.00013,6,22
31881,0.00031,3e-05,-2e-05,-1e-05,2e-05,1e-05,1e-05,0.00013,6,22
31882,0.00031,3e-05,-2e-05,-1e-05,2e-05,1e-05,1e-05,0.00013,6,22
31883,0.00031,3e-05,-2e-05,-1e-05,2e-05,1e-05,1e-05,0.00013,6,22
31884,0.00031,3e-05,-2e-05,-1e-05,2e-05,1e-05,1e-05,0.00013,6,22
31885,0.00031,3e-05,-2e-05,-1e-05,2e-05,1e-05,1e-05,0.00013,6,22
31886,0.00031,3e-05,-2e-05,-1e-05,2e-05,1e-05,1e-05,0.00013,6,22
31888,0.00031,3e-05,-2e-05,-1e-05,2e-05,1e-05,1e-05,0.00013,6,22
31889,0.00013,9e-05,8e-05,-0.00011,4e-05,3e-05,4e-05,0.00015,6,22
31890,-0.00017,-9e-05,0.00012,8e-05,-5e-05,-6e-05,-2e-05,-4e-05,6,22
31891,-0.00017,-9e-05,0.00012,8e-05,-5e-05,-6e-05,-2e-05,-4e-05,6,22
31892,-0.00017,-9e-05,0.00012,8e-05,-5e-05,-6e-05,-2e-05,-4e-05,6,22
31893,-0.00017,-9e-05,0.00012,8e-05,-5e-05,-6e-05,-2e-05,-4e-05,6,22
31894,-0.00017,-9e-05,0.00012,8e-05,-5e-05,-6e-05,-2e-05,-4e-05,6,22
31895,-0.00017,-9e-05,0.00012,8e-05,-5e-05,-6e-05,-2e-05,-4e-05,6,22
31896,1e-05,9e-05,0.00012,1e-05,4e-05,5e-05,4e-05,9e-05,6,22
31897,1e-05,9e-05,0.00012,1e-05,4e-05,5e-05,4e-05,9e-05,6,22
31898,1e-05,9e-05,0.00012,1e-05,4e-05,5e-05,4e-05,9e-05,6,22
31899,1e-05,9e-05,0.00012,1e-05,4e-05,5e-05,4e-05,9e-05,6,22
31900,1e-05,9e-05,0.00012,1e-05,4e-05,5e-05,4e-05,9e-05,6,22
31901,1e-05,9e-05,0.00012,1e-05,4e-05,5e-05,4e-05,9e-05,6,22
31902,1e-05,9e-05,0.00012,1e-05,4e-05,5e-05,4e-05,9e-05,6,22
31903,1e-05,9e-05,0.00012,1e-05,4e-05,5e-05,4e-05,9e-05,6,22
31904,1e-05,9e-05,0.00012,1e-05,4e-05,5e-05,4e-05,9e-05,6,22
31905,1e-05,9e-05,0.00012,1e-05,4e-05,5e-05,4e-05,9e-05,6,22
31906,1e-05,9e-05,0.00012,1e-05,4e-05,5e-05,4e-05,9e-05,6,22
31907,1e-05,9e-05,0.00012,1e-05,4e-05,5e-05,4e-05,9e-05,6,22
31908,1e-05,9e-05,0.00012,1e-05,4e-05,5e-05,4e-05,9e-05,6,22
31909,1e-05,9e-05,0.00012,1e-05,4e-05,5e-05,4e-05,9e-05,6,22
31910,1e-05,9e-05,0.00012,1e-05,4e-05,5e-05,4e-05,9e-05,6,22
31911,1e-05,9e-05,0.00012,1e-05,4e-05,5e-05,4e-05,9e-05,6,22
31912,-1e-05,8e-05,1e-05,-0.00019,-1e-05,0,3e-05,5e-05,6,22
31913,-1e-05,8e-05,1e-05,-0.00019,-1e-05,0,3e-05,5e-05,6,22
31914,-0.00026,-1e-05,0.00013,0.00017,-1e-05,-2e-05,-1e-05,-8e-05,6,22
31915,-0.00026,-1e-05,0.00013,0.00017,-1e-05,-2e-05,-1e-05,-8e-05,6,22
31916,-0.00026,-1e-05,0.00013,0.00017,-1e-05,-2e-05,-1e-05,-8e-05,6,22
31917,-0.00026,-1e-05,0.00013,0.00017,-1e-05,-2e-05,-1e-05,-8e-05,6,22
31918,-0.00026,-1e-05,0.00013,0.00017,-1e-05,-2e-05,-1e-05,-8e-05,6,22
31919,-0.00026,-1e-05,0.00013,0.00017,-1e-05,-2e-05,-1e-05,-8e-05,6,22
31920,-0.00026,-1e-05,0.00013,0.00017,-1e-05,-2e-05,-1e-05,-8e-05,6,22
31921,-0.00026,-1e-05,0.00013,0.00017,-1e-05,-2e-05,-1e-05,-8e-05,6,22
31922,-0.00026,-1e-05,0.00013,0.00017,-1e-05,-2e-05,-1e-05,-8e-05,6,22
31923,-0.00026,-1e-05,0.00013,0.00017,-1e-05,-2e-05,-1e-05,-8e-05,6,22
31924,-0.00026,-1e-05,0.00013,0.00017,-1e-05,-2e-05,-1e-05,-8e-05,6,22
31925,-0.00026,-1e-05,0.00013,0.00017,-1e-05,-2e-05,-1e-05,-8e-05,6,22
31926,-0.00026,-1e-05,0.00013,0.00017,-1e-05,-2e-05,-1e-05,-8e-05,6,22
31927,-0.00026,-1e-05,0.00013,0.00017,-1e-05,-2e-05,-1e-05,-8e-05,6,22
31928,-0.00026,-1e-05,0.00013,0.00017,-1e-05,-2e-05,-1e-05,-8e-05,6,22
31929,-0.00026,-1e-05,0.00013,0.00017,-1e-05,-2e-05,-1e-05,-8e-05,6,22
31930,-0.00026,-1e-05,0.00013,0.00017,-1e-05,-2e-05,-1e-05,-8e-05,6,22
31931,-0.00026,-1e-05,0.00013,0.00017,-1e-05,-2e-05,-1e-05,-8e-05,6,22
31932,-0.00026,-1e-05,0.00013,0.00017,-1e-05,-2e-05,-1e-05,-8e-05,6,22
31933,-0.00026,-1e-05,0.00013,0.00017,-1e-05,-2e-05,-1e-05,-8e-05,6,22
31934,-0.00026,-1e-05,0.00013,0.00017,-1e-05,-2e-05,-1e-05,-8e-05,6,22
31935,-1e-05,-0.00021,-0.00052,-0.00012,-1e-05,-1e-05,-2e-05,0.00011,6,22
31936,-5e-05,3e-05,0.00018,2e-05,2e-05,1e-05,2e-05,-4e-05,6,22
31938,-5e-05,3e-05,0.00018,2e-05,2e-05,1e-05,2e-05,-4e-05,6,22
31939,-5e-05,3e-05,0.00018,2e-05,2e-05,1e-05,2e-05,-4e-05,6,22
31940,-5e-05,3e-05,0.00018,2e-05,2e-05,1e-05,2e-05,-4e-05,6,22
31941,-5e-05,3e-05,0.00018,2e-05,2e-05,1e-05,2e-05,-4e-05,6,22
31942,-5e-05,3e-05,0.00018,2e-05,2e-05,1e-05,2e-05,-4e-05,6,22
31943,-5e-05,3e-05,0.00018,2e-05,2e-05,1e-05,2e-05,-4e-05,6,22
31944,-5e-05,3e-05,0.00018,2e-05,2e-05,1e-05,2e-05,-4e-05,6,22
31945,-5e-05,3e-05,0.00018,2e-05,2e-05,1e-05,2e-05,-4e-05,6,22
31946,-5e-05,3e-05,0.00018,2e-05,2e-05,1e-05,2e-05,-4e-05,6,22
31947,-5e-05,3e-05,0.00018,2e-05,2e-05,1e-05,2e-05,-4e-05,6,22
31948,-5e-05,3e-05,0.00018,2e-05,2e-05,1e-05,2e-05,-4e-05,6,22
31949,0.00025,0.00022,0.00057,9e-05,1e-05,0,-1e-05,0.00013,6,22
31950,0.00025,0.00022,0.00057,9e-05,1e-05,0,-1e-05,0.00013,6,22
31951,0.00025,0.00022,0.00057,9e-05,1e-05,0,-1e-05,0.00013,6,22
31952,0.00025,0.00022,0.00057,9e-05,1e-05,0,-1e-05,0.00013,6,22
31953,0.00025,0.00022,0.00057,9e-05,1e-05,0,-1e-05,0.00013,6,22
31954,0.00025,0.00022,0.00057,9e-05,1e-05,0,-1e-05,0.00013,6,22
31955,0.00025,0.00022,0.00057,9e-05,1e-05,0,-1e-05,0.00013,6,22
31956,-5e-05,-0.00016,0.00031,0.00013,-3e-05,-4e-05,-1e-05,5e-05,6,22
31957,-5e-05,-0.00016,0.00031,0.00013,-3e-05,-4e-05,-1e-05,5e-05,6,22
31958,-5e-05,-0.00016,0.00031,0.00013,-3e-05,-4e-05,-1e-05,5e-05,6,22
31959,-5e-05,-0.00016,0.00031,0.00013,-3e-05,-4e-05,-1e-05,5e-05,6,22
31960,-5e-05,-0.00016,0.00031,0.00013,-3e-05,-4e-05,-1e-05,5e-05,6,22
31961,-5e-05,-0.00016,0.00031,0.00013,-3e-05,-4e-05,-1e-05,5e-05,6,22
31962,-5e-05,-0.00016,0.00031,0.00013,-3e-05,-4e-05,-1e-05,5e-05,6,22
31963,-5e-05,-0.00016,0.00031,0.00013,-3e-05,-4e-05,-1e-05,5e-05,6,22
31964,-5e-05,-0.00016,0.00031,0.00013,-3e-05,-4e-05,-1e-05,5e-05,6,22
31965,-5e-05,-0.00016,0.00031,0.00013,-3e-05,-4e-05,-1e-05,5e-05,6,22
31966,-5e-05,-0.00016,0.00031,0.00013,-3e-05,-4e-05,-1e-05,5e-05,6,22
31967,-5e-05,-0.00016,0.00031,0.00013,-3e-05,-4e-05,-1e-05,5e-05,6,22
31968,-5e-05,-0.00016,0.00031,0.00013,-3e-05,-4e-05,-1e-05,5e-05,6,22
31969,-5e-05,-0.00016,0.00031,0.00013,-3e-05,-4e-05,-1e-05,5e-05,6,22
31970,-5e-05,-0.00016,0.00031,0.00013,-3e-05,-4e-05,-1e-05,5e-05,6,22
31971,-5e-05,-0.00016,0.00031,0.00013,-3e-05,-4e-05,-1e-05,5e-05,6,22
31972,-0.00017,-0.00017,5e-05,7e-05,0,0,-1e-05,-0.00028,6,22
31973,-0.00017,-0.00017,5e-05,7e-05,0,0,-1e-05,-0.00028,6,22
31974,2e-05,-0.00014,0.00036,-9e-05,-1e-05,1e-05,0,6e-05,6,22
31975,2e-05,-0.00014,0.00036,-9e-05,-1e-05,1e-05,0,6e-05,6,22
31976,2e-05,-0.00014,0.00036,-9e-05,-1e-05,1e-05,0,6e-05,6,22
31977,2e-05,-0.00014,0.00036,-9e-05,-1e-05,1e-05,0,6e-05,6,22
31978,2e-05,-0.00014,0.00036,-9e-05,-1e-05,1e-05,0,6e-05,6,22
31979,2e-05,-0.00014,0.00036,-9e-05,-1e-05,1e-05,0,6e-05,6,22
31980,2e-05,-0.00014,0.00036,-9e-05,-1e-05,1e-05,0,6e-05,6,22
31981,2e-05,-0.00014,0.00036,-9e-05,-1e-05,1e-05,0,6e-05,6,22
31982,2e-05,-0.00014,0.00036,-9e-05,-1e-05,1e-05,0,6e-05,6,22
31983,2e-05,-0.00014,0.00036,-9e-05,-1e-05,1e-05,0,6e-05,6,22
31984,2e-05,-0.00014,0.00036,-9e-05,-1e-05,1e-05,0,6e-05,6,22
31985,2e-05,-0.00014,0.00036,-9e-05,-1e-05,1e-05,0,6e-05,6,22
31986,2e-05,-0.00014,0.00036,-9e-05,-1e-05,1e-05,0,6e-05,6,22
31988,2e-05,-0.00014,0.00036,-9e-05,-1e-05,1e-05,0,6e-05,6,22
31989,2e-05,-0.00014,0.00036,-9e-05,-1e-05,1e-05,0,6e-05,6,22
31990,2e-05,-0.00014,0.00036,-9e-05,-1e-05,1e-05,0,6e-05,6,22
31991,2e-05,-0.00014,0.00036,-9e-05,-1e-05,1e-05,0,6e-05,6,22
31992,2e-05,-0.00014,0.00036,-9e-05,-1e-05,1e-05,0,6e-05,6,22
31993,2e-05,-0.00014,0.00036,-9e-05,-1e-05,1e-05,0,6e-05,6,22
31994,2e-05,-0.00014,0.00036,-9e-05,-1e-05,1e-05,0,6e-05,6,22
31995,-0.00017,-0.00012,-0.00036,-6e-05,-6e-05,-2e-05,-5e-05,1e-05,6,22
31996,0.00021,-8e-05,-0.00034,-0.00016,1e-05,0,2e-05,0.00019,6,22
31998,0.00021,-8e-05,-0.00034,-0.00016,1e-05,0,2e-05,0.00019,6,22
31999,0.00021,-8e-05,-0.00034,-0.00016,1e-05,0,2e-05,0.00019,6,22
32000,0.00021,-8e-05,-0.00034,-0.00016,1e-05,0,2e-05,0.00019,6,22
32001,0.00021,-8e-05,-0.00034,-0.00016,1e-05,0,2e-05,0.00019,6,22
32002,0.00021,-8e-05,-0.00034,-0.00016,1e-05,0,2e-05,0.00019,6,22
32003,0.00021,-8e-05,-0.00034,-0.00016,1e-05,0,2e-05,0.00019,6,22
32004,0.00021,-8e-05,-0.00034,-0.00016,1e-05,0,2e-05,0.00019,6,22
32005,0.00021,-8e-05,-0.00034,-0.00016,1e-05,0,2e-05,0.00019,6,22
32006,0.00021,-8e-05,-0.00034,-0.00016,1e-05,0,2e-05,0.00019,6,22
32007,0.00021,-8e-05,-0.00034,-0.00016,1e-05,0,2e-05,0.00019,6,22
32008,0.00021,-8e-05,-0.00034,-0.00016,1e-05,0,2e-05,0.00019,6,22
32009,5e-05,5e-05,2e-05,-1e-05,3e-05,3e-05,1e-05,9e-05,6,22
32010,5e-05,5e-05,2e-05,-1e-05,3e-05,3e-05,1e-05,9e-05,6,22
32011,5e-05,5e-05,2e-05,-1e-05,3e-05,3e-05,1e-05,9e-05,6,22
32012,5e-05,5e-05,2e-05,-1e-05,3e-05,3e-05,1e-05,9e-05,6,22
32013,5e-05,5e-05,2e-05,-1e-05,3e-05,3e-05,1e-05,9e-05,6,22
32014,5e-05,5e-05,2e-05,-1e-05,3e-05,3e-05,1e-05,9e-05,6,22
32015,5e-05,5e-05,2e-05,-1e-05,3e-05,3e-05,1e-05,9e-05,6,22
32016,-7e-05,2e-05,-0.00041,-0.00017,-7e-05,-5e-05,-3e-05,1e-05,6,22
32017,-7e-05,2e-05,-0.00041,-0.00017,-7e-05,-5e-05,-3e-05,1e-05,6,22
32018,-7e-05,2e-05,-0.00041,-0.00017,-7e-05,-5e-05,-3e-05,1e-05,6,22
32019,-7e-05,2e-05,-0.00041,-0.00017,-7e-05,-5e-05,-3e-05,1e-05,6,22
32020,-7e-05,2e-05,-0.00041,-0.00017,-7e-05,-5e-05,-3e-05,1e-05,6,22
32021,-7e-05,2e-05,-0.00041,-0.00017,-7e-05,-5e-05,-3e-05,1e-05,6,22
32022,-7e-05,2e-05,-0.00041,-0.00017,-7e-05,-5e-05,-3e-05,1e-05,6,22
32023,-7e-05,2e-05,-0.00041,-0.00017,-7e-05,-5e-05,-3e-05,1e-05,6,22
32024,-7e-05,2e-05,-0.00041,-0.00017,-7e-05,-5e-05,-3e-05,1e-05,6,22
32025,-7e-05,2e-05,-0.00041,-0.00017,-7e-05,-5e-05,-3e-05,1e-05,6,22
32026,-7e-05,2e-05,-0.00041,-0.00017,-7e-05,-5e-05,-3e-05,1e-05,6,22
32027,-7e-05,2e-05,-0.00041,-0.00017,-7e-05,-5e-05,-3e-05,1e-05,6,22
32028,-7e-05,2e-05,-0.00041,-0.00017,-7e-05,-5e-05,-3e-05,1e-05,6,22
32029,-7e-05,2e-05,-0.00041,-0.00017,-7e-05,-5e-05,-3e-05,1e-05,6,22
32030,-7e-05,2e-05,-0.00041,-0.00017,-7e-05,-5e-05,-3e-05,1e-05,6,22
32031,-7e-05,2e-05,-0.00041,-0.00017,-7e-05,-5e-05,-3e-05,1e-05,6,22
32032,-0.00032,2e-05,0,0.00015,1e-05,1e-05,4e-05,5e-05,6,22
32033,-0.00032,2e-05,0,0.00015,1e-05,1e-05,4e-05,5e-05,6,22
32034,-2e-05,-8e-05,-0.00025,-9e-05,-4e-05,-1e-05,-2e-05,-5e-05,6,22
32035,-2e-05,-8e-05,-0.00025,-9e-05,-4e-05,-1e-05,-2e-05,-5e-05,6,22
32036,-2e-05,-8e-05,-0.00025,-9e-05,-4e-05,-1e-05,-2e-05,-5e-05,6,22
32038,-2e-05,-8e-05,-0.00025,-9e-05,-4e-05,-1e-05,-2e-05,-5e-05,6,22
32039,-2e-05,-8e-05,-0.00025,-9e-05,-4e-05,-1e-05,-2e-05,-5e-05,6,22
32040,-2e-05,-8e-05,-0.00025,-9e-05,-4e-05,-1e-05,-2e-05,-5e-05,6,22
32041,-2e-05,-8e-05,-0.00025,-9e-05,-4e-05,-1e-05,-2e-05,-5e-05,6,22
32042,-2e-05,-8e-05,-0.00025,-9e-05,-4e-05,-1e-05,-2e-05,-5e-05,6,22
32043,-2e-05,-8e-05,-0.00025,-9e-05,-4e-05,-1e-05,-2e-05,-5e-05,6,22
32044,-2e-05,-8e-05,-0.00025,-9e-05,-4e-05,-1e-05,-2e-05,-5e-05,6,22
32045,-2e-05,-8e-05,-0.00025,-9e-05,-4e-05,-1e-05,-2e-05,-5e-05,6,22
32046,-2e-05,-8e-05,-0.00025,-9e-05,-4e-05,-1e-05,-2e-05,-5e-05,6,22
32047,-2e-05,-8e-05,-0.00025,-9e-05,-4e-05,-1e-05,-2e-05,-5e-05,6,22
32048,-2e-05,-8e-05,-0.00025,-9e-05,-4e-05,-1e-05,-2e-05,-5e-05,6,22
32049,-2e-05,-8e-05,-0.00025,-9e-05,-4e-05,-1e-05,-2e-05,-5e-05,6,22
32050,-2e-05,-8e-05,-0.00025,-9e-05,-4e-05,-1e-05,-2e-05,-5e-05,6,22
32051,-2e-05,-8e-05,-0.00025,-9e-05,-4e-05,-1e-05,-2e-05,-5e-05,6,22
32052,-2e-05,-8e-05,-0.00025,-9e-05,-4e-05,-1e-05,-2e-05,-5e-05,6,22
32053,-2e-05,-8e-05,-0.00025,-9e-05,-4e-05,-1e-05,-2e-05,-5e-05,6,22
32054,-2e-05,-8e-05,-0.00025,-9e-05,-4e-05,-1e-05,-2e-05,-5e-05,6,22
32055,0.00011,3e-05,0.00018,0.00012,0,-2e-05,-1e-05,-6e-05,6,22
32056,-8e-05,0.0001,0.00034,0.0003,1e-05,0,2e-05,-2e-05,6,22
32057,-8e-05,0.0001,0.00034,0.0003,1e-05,0,2e-05,-2e-05,6,22
32058,-8e-05,0.0001,0.00034,0.0003,1e-05,0,2e-05,-2e-05,6,22
32059,-8e-05,0.0001,0.00034,0.0003,1e-05,0,2e-05,-2e-05,6,22
32060,-8e-05,0.0001,0.00034,0.0003,1e-05,0,2e-05,-2e-05,6,22
32061,-8e-05,0.0001,0.00034,0.0003,1e-05,0,2e-05,-2e-05,6,22
32062,-8e-05,0.0001,0.00034,0.0003,1e-05,0,2e-05,-2e-05,6,22
32063,-8e-05,0.0001,0.00034,0.0003,1e-05,0,2e-05,-2e-05,6,22
32064,-8e-05,0.0001,0.00034,0.0003,1e-05,0,2e-05,-2e-05,6,22
32065,-8e-05,0.0001,0.00034,0.0003,1e-05,0,2e-05,-2e-05,6,22
32066,-8e-05,0.0001,0.00034,0.0003,1e-05,0,2e-05,-2e-05,6,22
32067,-8e-05,0.0001,0.00034,0.0003,1e-05,0,2e-05,-2e-05,6,22
32068,-8e-05,0.0001,0.00034,0.0003,1e-05,0,2e-05,-2e-05,6,22
32069,0,8e-05,0.00014,0,2e-05,3e-05,2e-05,0.0002,6,22
32070,0,8e-05,0.00014,0,2e-05,3e-05,2e-05,0.0002,6,22
32071,0,8e-05,0.00014,0,2e-05,3e-05,2e-05,0.0002,6,22
32072,0,8e-05,0.00014,0,2e-05,3e-05,2e-05,0.0002,6,22
32073,0,8e-05,0.00014,0,2e-05,3e-05,2e-05,0.0002,6,22
32074,0,8e-05,0.00014,0,2e-05,3e-05,2e-05,0.0002,6,22
32075,0,8e-05,0.00014,0,2e-05,3e-05,2e-05,0.0002,6,22
32076,-9e-05,0,0.00037,5e-05,-1e-05,-1e-05,-1e-05,-0.00031,6,22
32077,-9e-05,0,0.00037,5e-05,-1e-05,-1e-05,-1e-05,-0.00031,6,22
32078,-9e-05,0,0.00037,5e-05,-1e-05,-1e-05,-1e-05,-0.00031,6,22
32079,-9e-05,0,0.00037,5e-05,-1e-05,-1e-05,-1e-05,-0.00031,6,22
32080,-9e-05,0,0.00037,5e-05,-1e-05,-1e-05,-1e-05,-0.00031,6,22
32081,-9e-05,0,0.00037,5e-05,-1e-05,-1e-05,-1e-05,-0.00031,6,22
32082,-9e-05,0,0.00037,5e-05,-1e-05,-1e-05,-1e-05,-0.00031,6,22
32083,-9e-05,0,0.00037,5e-05,-1e-05,-1e-05,-1e-05,-0.00031,6,22
32084,-9e-05,0,0.00037,5e-05,-1e-05,-1e-05,-1e-05,-0.00031,6,22
32085,-9e-05,0,0.00037,5e-05,-1e-05,-1e-05,-1e-05,-0.00031,6,22
32086,-9e-05,0,0.00037,5e-05,-1e-05,-1e-05,-1e-05,-0.00031,6,22
32088,-9e-05,0,0.00037,5e-05,-1e-05,-1e-05,-1e-05,-0.00031,6,22
32089,-9e-05,0,0.00037,5e-05,-1e-05,-1e-05,-1e-05,-0.00031,6,22
32090,-9e-05,0,0.00037,5e-05,-1e-05,-1e-05,-1e-05,-0.00031,6,22
32091,-9e-05,0,0.00037,5e-05,-1e-05,-1e-05,-1e-05,-0.00031,6,22
32092,0.0001,-0.00016,-0.00029,-0.00015,2e-05,4e-05,2e-05,7e-05,6,22
32093,0.0001,-0.00016,-0.00029,-0.00015,2e-05,4e-05,2e-05,7e-05,6,22
32094,-1e-05,2e-05,-0.00021,-0.0001,1e-05,1e-05,1e-05,2e-05,6,22
32095,-1e-05,2e-05,-0.00021,-0.0001,1e-05,1e-05,1e-05,2e-05,6,22
32096,-1e-05,2e-05,-0.00021,-0.0001,1e-05,1e-05,1e-05,2e-05,6,22
32097,-1e-05,2e-05,-0.00021,-0.0001,1e-05,1e-05,1e-05,2e-05,6,22
32098,-1e-05,2e-05,-0.00021,-0.0001,1e-05,1e-05,1e-05,2e-05,6,22
32099,-1e-05,2e-05,-0.00021,-0.0001,1e-05,1e-05,1e-05,2e-05,6,22
32100,-1e-05,2e-05,-0.00021,-0.0001,1e-05,1e-05,1e-05,2e-05,6,22
32101,-1e-05,2e-05,-0.00021,-0.0001,1e-05,1e-05,1e-05,2e-05,6,22
32102,-1e-05,2e-05,-0.00021,-0.0001,1e-05,1e-05,1e-05,2e-05,6,22
32103,-1e-05,2e-05,-0.00021,-0.0001,1e-05,1e-05,1e-05,2e-05,6,22
32104,-1e-05,2e-05,-0.00021,-0.0001,1e-05,1e-05,1e-05,2e-05,6,22
32105,-1e-05,2e-05,-0.00021,-0.0001,1e-05,1e-05,1e-05,2e-05,6,22
32106,-1e-05,2e-05,-0.00021,-0.0001,1e-05,1e-05,1e-05,2e-05,6,22
32107,-1e-05,2e-05,-0.00021,-0.0001,1e-05,1e-05,1e-05,2e-05,6,22
32108,-1e-05,2e-05,-0.00021,-0.0001,1e-05,1e-05,1e-05,2e-05,6,22
32109,-1e-05,2e-05,-0.00021,-0.0001,1e-05,1e-05,1e-05,2e-05,6,22
32110,-1e-05,2e-05,-0.00021,-0.0001,1e-05,1e-05,1e-05,2e-05,6,22
32111,-1e-05,2e-05,-0.00021,-0.0001,1e-05,1e-05,1e-05,2e-05,6,22
32112,-1e-05,2e-05,-0.00021,-0.0001,1e-05,1e-05,1e-05,2e-05,6,22
32113,-1e-05,2e-05,-0.00021,-0.0001,1e-05,1e-05,1e-05,2e-05,6,22
32114,-1e-05,2e-05,-0.00021,-0.0001,1e-05,1e-05,1e-05,2e-05,6,22
32115,-3e-05,-0.00012,-0.00029,-1e-05,-6e-05,-5e-05,-7e-05,-0.00024,6,22
32116,9e-05,0.00011,0.00026,0.0003,-1e-05,0,-1e-05,9e-05,6,22
32117,9e-05,0.00011,0.00026,0.0003,-1e-05,0,-1e-05,9e-05,6,22
32118,9e-05,0.00011,0.00026,0.0003,-1e-05,0,-1e-05,9e-05,6,22
32119,9e-05,0.00011,0.00026,0.0003,-1e-05,0,-1e-05,9e-05,6,22
32120,9e-05,0.00011,0.00026,0.0003,-1e-05,0,-1e-05,9e-05,6,22
32121,9e-05,0.00011,0.00026,0.0003,-1e-05,0,-1e-05,9e-05,6,22
32122,9e-05,0.00011,0.00026,0.0003,-1e-05,0,-1e-05,9e-05,6,22
32123,9e-05,0.00011,0.00026,0.0003,-1e-05,0,-1e-05,9e-05,6,22
32124,9e-05,0.00011,0.00026,0.0003,-1e-05,0,-1e-05,9e-05,6,22
32125,9e-05,0.00011,0.00026,0.0003,-1e-05,0,-1e-05,9e-05,6,22
32126,9e-05,0.00011,0.00026,0.0003,-1e-05,0,-1e-05,9e-05,6,22
32127,9e-05,0.00011,0.00026,0.0003,-1e-05,0,-1e-05,9e-05,6,22
32128,9e-05,0.00011,0.00026,0.0003,-1e-05,0,-1e-05,9e-05,6,22
32129,-1e-05,0.00029,0.00019,1e-05,1e-05,1e-05,-1e-05,-4e-05,6,22
32130,-1e-05,0.00029,0.00019,1e-05,1e-05,1e-05,-1e-05,-4e-05,6,22
32131,-1e-05,0.00029,0.00019,1e-05,1e-05,1e-05,-1e-05,-4e-05,6,22
32132,-1e-05,0.00029,0.00019,1e-05,1e-05,1e-05,-1e-05,-4e-05,6,22
32133,-1e-05,0.00029,0.00019,1e-05,1e-05,1e-05,-1e-05,-4e-05,6,22
32134,-1e-05,0.00029,0.00019,1e-05,1e-05,1e-05,-1e-05,-4e-05,6,22
32135,-1e-05,0.00029,0.00019,1e-05,1e-05,1e-05,-1e-05,-4e-05,6,22
32136,0.0001,-0.00013,0.0007,0.00018,8e-05,9e-05,4e-05,0.00012,6,22
32138,0.0001,-0.00013,0.0007,0.00018,8e-05,9e-05,4e-05,0.00012,6,22
32139,0.0001,-0.00013,0.0007,0.00018,8e-05,9e-05,4e-05,0.00012,6,22
32140,0.0001,-0.00013,0.0007,0.00018,8e-05,9e-05,4e-05,0.00012,6,22
32141,0.0001,-0.00013,0.0007,0.00018,8e-05,9e-05,4e-05,0.00012,6,22
32142,0.0001,-0.00013,0.0007,0.00018,8e-05,9e-05,4e-05,0.00012,6,22
32143,0.0001,-0.00013,0.0007,0.00018,8e-05,9e-05,4e-05,0.00012,6,22
32144,0.0001,-0.00013,0.0007,0.00018,8e-05,9e-05,4e-05,0.00012,6,22
32145,0.0001,-0.00013,0.0007,0.00018,8e-05,9e-05,4e-05,0.00012,6,22
32146,0.0001,-0.00013,0.0007,0.00018,8e-05,9e-05,4e-05,0.00012,6,22
32147,0.0001,-0.00013,0.0007,0.00018,8e-05,9e-05,4e-05,0.00012,6,22
32148,0.0001,-0.00013,0.0007,0.00018,8e-05,9e-05,4e-05,0.00012,6,22
32149,0.0001,-0.00013,0.0007,0.00018,8e-05,9e-05,4e-05,0.00012,6,22
32150,0.0001,-0.00013,0.0007,0.00018,8e-05,9e-05,4e-05,0.00012,6,22
32151,0.0001,-0.00013,0.0007,0.00018,8e-05,9e-05,4e-05,0.00012,6,22
32152,2e-05,-0.00015,-0.00011,-0.0003,-3e-05,-5e-05,-1e-05,5e-05,6,22
32153,2e-05,-0.00015,-0.00011,-0.0003,-3e-05,-5e-05,-1e-05,5e-05,6,22
32154,-6e-05,4e-05,-0.00011,-0.00021,-2e-05,-1e-05,-1e-05,-2e-05,6,22
32155,-6e-05,4e-05,-0.00011,-0.00021,-2e-05,-1e-05,-1e-05,-2e-05,6,22
32156,-6e-05,4e-05,-0.00011,-0.00021,-2e-05,-1e-05,-1e-05,-2e-05,6,22
32157,-6e-05,4e-05,-0.00011,-0.00021,-2e-05,-1e-05,-1e-05,-2e-05,6,22
32158,-6e-05,4e-05,-0.00011,-0.00021,-2e-05,-1e-05,-1e-05,-2e-05,6,22
32159,-6e-05,4e-05,-0.00011,-0.00021,-2e-05,-1e-05,-1e-05,-2e-05,6,22
32160,-6e-05,4e-05,-0.00011,-0.00021,-2e-05,-1e-05,-1e-05,-2e-05,6,22
32161,-6e-05,4e-05,-0.00011,-0.00021,-2e-05,-1e-05,-1e-05,-2e-05,6,22
32162,-6e-05,4e-05,-0.00011,-0.00021,-2e-05,-1e-05,-1e-05,-2e-05,6,22
32163,-6e-05,4e-05,-0.00011,-0.00021,-2e-05,-1e-05,-1e-05,-2e-05,6,22
32164,-6e-05,4e-05,-0.00011,-0.00021,-2e-05,-1e-05,-1e-05,-2e-05,6,22
32165,-6e-05,4e-05,-0.00011,-0.00021,-2e-05,-1e-05,-1e-05,-2e-05,6,22
32166,-6e-05,4e-05,-0.00011,-0.00021,-2e-05,-1e-05,-1e-05,-2e-05,6,22
32167,-6e-05,4e-05,-0.00011,-0.00021,-2e-05,-1e-05,-1e-05,-2e-05,6,22
32168,-6e-05,4e-05,-0.00011,-0.00021,-2e-05,-1e-05,-1e-05,-2e-05,6,22
32169,-6e-05,4e-05,-0.00011,-0.00021,-2e-05,-1e-05,-1e-05,-2e-05,6,22
32170,-6e-05,4e-05,-0.00011,-0.00021,-2e-05,-1e-05,-1e-05,-2e-05,6,22
32171,-6e-05,4e-05,-0.00011,-0.00021,-2e-05,-1e-05,-1e-05,-2e-05,6,22
32172,-6e-05,4e-05,-0.00011,-0.00021,-2e-05,-1e-05,-1e-05,-2e-05,6,22
32173,-6e-05,4e-05,-0.00011,-0.00021,-2e-05,-1e-05,-1e-05,-2e-05,6,22
32174,-6e-05,4e-05,-0.00011,-0.00021,-2e-05,-1e-05,-1e-05,-2e-05,6,22
32175,0.00012,2e-05,0.00015,-5e-05,1e-05,0,1e-05,0.00015,6,22
32176,0.00027,-3e-05,-0.0002,-1e-05,-5e-05,-3e-05,0,-0.0001,6,22
32177,0.00027,-3e-05,-0.0002,-1e-05,-5e-05,-3e-05,0,-0.0001,6,22
32178,0.00027,-3e-05,-0.0002,-1e-05,-5e-05,-3e-05,0,-0.0001,6,22
32179,0.00027,-3e-05,-0.0002,-1e-05,-5e-05,-3e-05,0,-0.0001,6,22
32180,0.00027,-3e-05,-0.0002,-1e-05,-5e-05,-3e-05,0,-0.0001,6,22
32181,0.00027,-3e-05,-0.0002,-1e-05,-5e-05,-3e-05,0,-0.0001,6,22
32182,0.00027,-3e-05,-0.0002,-1e-05,-5e-05,-3e-05,0,-0.0001,6,22
32183,0.00027,-3e-05,-0.0002,-1e-05,-5e-05,-3e-05,0,-0.0001,6,22
32184,0.00027,-3e-05,-0.0002,-1e-05,-5e-05,-3e-05,0,-0.0001,6,22
32185,0.00027,-3e-05,-0.0002,-1e-05,-5e-05,-3e-05,0,-0.0001,6,22
32186,0.00027,-3e-05,-0.0002,-1e-05,-5e-05,-3e-05,0,-0.0001,6,22
32188,0.00025,0,-0.00049,-7e-05,-3e-05,1e-05,-1e-05,8e-05,6,22
32189,0.00025,0,-0.00049,-7e-05,-3e-05,1e-05,-1e-05,8e-05,6,22
32190,0.00025,0,-0.00049,-7e-05,-3e-05,1e-05,-1e-05,8e-05,6,22
32191,0.00025,0,-0.00049,-7e-05,-3e-05,1e-05,-1e-05,8e-05,6,22
32192,0.00025,0,-0.00049,-7e-05,-3e-05,1e-05,-1e-05,8e-05,6,22
32193,0.00025,0,-0.00049,-7e-05,-3e-05,1e-05,-1e-05,8e-05,6,22
32194,0.00025,0,-0.00049,-7e-05,-3e-05,1e-05,-1e-05,8e-05,6,22
32195,0.00025,0,-0.00049,-7e-05,-3e-05,1e-05,-1e-05,8e-05,6,22
32196,0.00025,0,-0.00049,-7e-05,-3e-05,1e-05,-1e-05,8e-05,6,22
32197,-7e-05,0.00017,-0.00044,-0.00016,-6e-05,-6e-05,-7e-05,-0.00022,6,22
32198,-7e-05,0.00017,-0.00044,-0.00016,-6e-05,-6e-05,-7e-05,-0.00022,6,22
32199,-7e-05,0.00017,-0.00044,-0.00016,-6e-05,-6e-05,-7e-05,-0.00022,6,22
32200,-7e-05,0.00017,-0.00044,-0.00016,-6e-05,-6e-05,-7e-05,-0.00022,6,22
32201,-7e-05,0.00017,-0.00044,-0.00016,-6e-05,-6e-05,-7e-05,-0.00022,6,22
32202,-7e-05,0.00017,-0.00044,-0.00016,-6e-05,-6e-05,-7e-05,-0.00022,6,22
32203,-7e-05,0.00017,-0.00044,-0.00016,-6e-05,-6e-05,-7e-05,-0.00022,6,22
32204,-7e-05,0.00017,-0.00044,-0.00016,-6e-05,-6e-05,-7e-05,-0.00022,6,22
32205,-7e-05,0.00017,-0.00044,-0.00016,-6e-05,-6e-05,-7e-05,-0.00022,6,22
32206,-7e-05,0.00017,-0.00044,-0.00016,-6e-05,-6e-05,-7e-05,-0.00022,6,22
32207,-7e-05,0.00017,-0.00044,-0.00016,-6e-05,-6e-05,-7e-05,-0.00022,6,22
32208,-7e-05,0.00017,-0.00044,-0.00016,-6e-05,-6e-05,-7e-05,-0.00022,6,22
32209,-7e-05,0.00017,-0.00044,-0.00016,-6e-05,-6e-05,-7e-05,-0.00022,6,22
32210,-7e-05,0.00017,-0.00044,-0.00016,-6e-05,-6e-05,-7e-05,-0.00022,6,22
32211,-7e-05,0.00017,-0.00044,-0.00016,-6e-05,-6e-05,-7e-05,-0.00022,6,22
32212,-0.00015,-2e-05,0.00022,4e-05,-2e-05,-3e-05,-3e-05,-0.0001,6,22
32213,-0.00015,-2e-05,0.00022,4e-05,-2e-05,-3e-05,-3e-05,-0.0001,6,22
32214,0.00014,0.00019,-7e-05,-6e-05,-3e-05,-4e-05,-2e-05,0.00018,6,22
32215,0.00014,0.00019,-7e-05,-6e-05,-3e-05,-4e-05,-2e-05,0.00018,6,22
32216,0.00014,0.00019,-7e-05,-6e-05,-3e-05,-4e-05,-2e-05,0.00018,6,22
32217,0.00014,0.00019,-7e-05,-6e-05,-3e-05,-4e-05,-2e-05,0.00018,6,22
32218,0.00014,0.00019,-7e-05,-6e-05,-3e-05,-4e-05,-2e-05,0.00018,6,22
32219,0.00014,0.00019,-7e-05,-6e-05,-3e-05,-4e-05,-2e-05,0.00018,6,22
32220,0.00014,0.00019,-7e-05,-6e-05,-3e-05,-4e-05,-2e-05,0.00018,6,22
32221,0.00014,0.00019,-7e-05,-6e-05,-3e-05,-4e-05,-2e-05,0.00018,6,22
32222,0.00014,0.00019,-7e-05,-6e-05,-3e-05,-4e-05,-2e-05,0.00018,6,22
32223,0.00014,0.00019,-7e-05,-6e-05,-3e-05,-4e-05,-2e-05,0.00018,6,22
32224,0.00014,0.00019,-7e-05,-6e-05,-3e-05,-4e-05,-2e-05,0.00018,6,22
32225,0.00014,0.00019,-7e-05,-6e-05,-3e-05,-4e-05,-2e-05,0.00018,6,22
32226,0.00014,0.00019,-7e-05,-6e-05,-3e-05,-4e-05,-2e-05,0.00018,6,22
32227,0.00014,0.00019,-7e-05,-6e-05,-3e-05,-4e-05,-2e-05,0.00018,6,22
32228,0.00014,0.00019,-7e-05,-6e-05,-3e-05,-4e-05,-2e-05,0.00018,6,22
32229,0.00014,0.00019,-7e-05,-6e-05,-3e-05,-4e-05,-2e-05,0.00018,6,22
32230,0.00014,0.00019,-7e-05,-6e-05,-3e-05,-4e-05,-2e-05,0.00018,6,22
32231,0.00014,0.00019,-7e-05,-6e-05,-3e-05,-4e-05,-2e-05,0.00018,6,22
32232,0.00014,0.00019,-7e-05,-6e-05,-3e-05,-4e-05,-2e-05,0.00018,6,22
32233,0.00014,0.00019,-7e-05,-6e-05,-3e-05,-4e-05,-2e-05,0.00018,6,22
32234,0.00014,0.00019,-7e-05,-6e-05,-3e-05,-4e-05,-2e-05,0.00018,6,22
32235,8e-05,0.00028,0.00023,-6e-05,2e-05,3e-05,0,0.00011,6,22
32237,-9e-05,-0.00013,-0.00012,-8e-05,-7e-05,-5e-05,-5e-05,1e-05,6,22
32239,-9e-05,-0.00013,-0.00012,-8e-05,-7e-05,-5e-05,-5e-05,1e-05,6,22
32240,-9e-05,-0.00013,-0.00012,-8e-05,-7e-05,-5e-05,-5e-05,1e-05,6,22
32241,-9e-05,-0.00013,-0.00012,-8e-05,-7e-05,-5e-05,-5e-05,1e-05,6,22
32242,-9e-05,-0.00013,-0.00012,-8e-05,-7e-05,-5e-05,-5e-05,1e-05,6,22
32243,-9e-05,-0.00013,-0.00012,-8e-05,-7e-05,-5e-05,-5e-05,1e-05,6,22
32244,-9e-05,-0.00013,-0.00012,-8e-05,-7e-05,-5e-05,-5e-05,1e-05,6,22
32245,-9e-05,-0.00013,-0.00012,-8e-05,-7e-05,-5e-05,-5e-05,1e-05,6,22
32246,-9e-05,-0.00013,-0.00012,-8e-05,-7e-05,-5e-05,-5e-05,1e-05,6,22
32247,-9e-05,-0.00013,-0.00012,-8e-05,-7e-05,-5e-05,-5e-05,1e-05,6,22
32248,-4e-05,5e-05,-0.00014,-0.00012,3e-05,3e-05,0,-6e-05,6,22
32249,-4e-05,5e-05,-0.00014,-0.00012,3e-05,3e-05,0,-6e-05,6,22
32250,-4e-05,5e-05,-0.00014,-0.00012,3e-05,3e-05,0,-6e-05,6,22
32251,-4e-05,5e-05,-0.00014,-0.00012,3e-05,3e-05,0,-6e-05,6,22
32252,-4e-05,5e-05,-0.00014,-0.00012,3e-05,3e-05,0,-6e-05,6,22
32253,-4e-05,5e-05,-0.00014,-0.00012,3e-05,3e-05,0,-6e-05,6,22
32254,-4e-05,5e-05,-0.00014,-0.00012,3e-05,3e-05,0,-6e-05,6,22
32255,-4e-05,5e-05,-0.00014,-0.00012,3e-05,3e-05,0,-6e-05,6,22
32256,-4e-05,5e-05,-0.00014,-0.00012,3e-05,3e-05,0,-6e-05,6,22
32257,-1e-05,-1e-05,0.00017,-1e-05,1e-05,0,-1e-05,-4e-05,6,22
32258,-1e-05,-1e-05,0.00017,-1e-05,1e-05,0,-1e-05,-4e-05,6,22
32259,-1e-05,-1e-05,0.00017,-1e-05,1e-05,0,-1e-05,-4e-05,6,22
32260,-1e-05,-1e-05,0.00017,-1e-05,1e-05,0,-1e-05,-4e-05,6,22
32261,-1e-05,-1e-05,0.00017,-1e-05,1e-05,0,-1e-05,-4e-05,6,22
60784,6e-05,0.00018,0.00043,0.00016,0,-2e-05,0,-0.00017,6,22
60785,6e-05,0.00018,0.00043,0.00016,0,-2e-05,0,-0.00017,6,22
60786,6e-05,0.00018,0.00043,0.00016,0,-2e-05,0,-0.00017,6,22
60788,-0.00037,0.00024,0.00068,0.0002,6e-05,3e-05,0.0001,0.00029,6,22
60789,-0.00037,0.00024,0.00068,0.0002,6e-05,3e-05,0.0001,0.00029,6,22
60790,-0.00037,0.00024,0.00068,0.0002,6e-05,3e-05,0.0001,0.00029,6,22
60791,-0.00037,0.00024,0.00068,0.0002,6e-05,3e-05,0.0001,0.00029,6,22
60792,-0.00037,0.00024,0.00068,0.0002,6e-05,3e-05,0.0001,0.00029,6,22
60793,-0.00037,0.00024,0.00068,0.0002,6e-05,3e-05,0.0001,0.00029,6,22
60794,-0.00037,0.00024,0.00068,0.0002,6e-05,3e-05,0.0001,0.00029,6,22
60795,-0.00037,0.00024,0.00068,0.0002,6e-05,3e-05,0.0001,0.00029,6,22
60796,-0.00037,0.00024,0.00068,0.0002,6e-05,3e-05,0.0001,0.00029,6,22
60797,-0.00037,0.00024,0.00068,0.0002,6e-05,3e-05,0.0001,0.00029,6,22
60798,-0.00037,0.00024,0.00068,0.0002,6e-05,3e-05,0.0001,0.00029,6,22
60799,-0.00037,0.00024,0.00068,0.0002,6e-05,3e-05,0.0001,0.00029,6,22
60800,-0.00037,0.00024,0.00068,0.0002,6e-05,3e-05,0.0001,0.00029,6,22
60801,-0.00037,0.00024,0.00068,0.0002,6e-05,3e-05,0.0001,0.00029,6,22
60802,-0.00037,0.00024,0.00068,0.0002,6e-05,3e-05,0.0001,0.00029,6,22
60803,-0.00037,0.00024,0.00068,0.0002,6e-05,3e-05,0.0001,0.00029,6,22
60804,-0.00037,0.00024,0.00068,0.0002,6e-05,3e-05,0.0001,0.00029,6,22
60805,-0.00037,0.00024,0.00068,0.0002,6e-05,3e-05,0.0001,0.00029,6,22
60806,-0.00037,0.00024,0.00068,0.0002,6e-05,3e-05,0.0001,0.00029,6,22
60807,-0.00037,0.00024,0.00068,0.0002,6e-05,3e-05,0.0001,0.00029,6,22
60808,-0.00037,0.00024,0.00068,0.0002,6e-05,3e-05,0.0001,0.00029,6,22
60809,-0.00037,0.00024,0.00068,0.0002,6e-05,3e-05,0.0001,0.00029,6,22
60810,-0.00037,0.00024,0.00068,0.0002,6e-05,3e-05,0.0001,0.00029,6,22
60811,-0.00037,0.00024,0.00068,0.0002,6e-05,3e-05,0.0001,0.00029,6,22
60812,0.0001,5e-05,-0.00021,-0.00012,-2e-05,-1e-05,0,0.00022,6,22
60813,0.00016,0.00034,0.0002,0.00014,2e-05,0,-2e-05,-0.00052,6,22
60814,0.00016,0.00034,0.0002,0.00014,2e-05,0,-2e-05,-0.00052,6,22
60815,0.00016,0.00034,0.0002,0.00014,2e-05,0,-2e-05,-0.00052,6,22
60816,0.00016,0.00034,0.0002,0.00014,2e-05,0,-2e-05,-0.00052,6,22
60817,0.00016,0.00034,0.0002,0.00014,2e-05,0,-2e-05,-0.00052,6,22
60818,0.00016,0.00034,0.0002,0.00014,2e-05,0,-2e-05,-0.00052,6,22
60819,0.00016,0.00034,0.0002,0.00014,2e-05,0,-2e-05,-0.00052,6,22
60820,0.00016,0.00034,0.0002,0.00014,2e-05,0,-2e-05,-0.00052,6,22
60821,0.00016,0.00034,0.0002,0.00014,2e-05,0,-2e-05,-0.00052,6,22
60822,0.00016,0.00034,0.0002,0.00014,2e-05,0,-2e-05,-0.00052,6,22
60823,0.00016,0.00034,0.0002,0.00014,2e-05,0,-2e-05,-0.00052,6,22
60824,0.00016,0.00034,0.0002,0.00014,2e-05,0,-2e-05,-0.00052,6,22
60825,7e-05,5e-05,0,2e-05,-2e-05,-2e-05,-4e-05,-0.00015,6,22
60826,4e-05,-0.00016,-0.00098,-0.00078,-0.00019,-0.00012,-6e-05,7e-05,6,22
60827,4e-05,-0.00016,-0.00098,-0.00078,-0.00019,-0.00012,-6e-05,7e-05,6,22
60828,4e-05,-0.00016,-0.00098,-0.00078,-0.00019,-0.00012,-6e-05,7e-05,6,22
60829,4e-05,-0.00016,-0.00098,-0.00078,-0.00019,-0.00012,-6e-05,7e-05,6,22
60830,4e-05,-0.00016,-0.00098,-0.00078,-0.00019,-0.00012,-6e-05,7e-05,6,22
60831,4e-05,-0.00016,-0.00098,-0.00078,-0.00019,-0.00012,-6e-05,7e-05,6,22
60832,4e-05,-0.00016,-0.00098,-0.00078,-0.00019,-0.00012,-6e-05,7e-05,6,22
60833,7e-05,-0.00012,0.00012,-4e-05,-5e-05,-7e-05,-5e-05,-8e-05,6,22
60834,7e-05,-0.00012,0.00012,-4e-05,-5e-05,-7e-05,-5e-05,-8e-05,6,22
60835,7e-05,-0.00012,0.00012,-4e-05,-5e-05,-7e-05,-5e-05,-8e-05,6,22
60836,7e-05,-0.00012,0.00012,-4e-05,-5e-05,-7e-05,-5e-05,-8e-05,6,22
60838,7e-05,-0.00012,0.00012,-4e-05,-5e-05,-7e-05,-5e-05,-8e-05,6,22
60839,7e-05,-0.00012,0.00012,-4e-05,-5e-05,-7e-05,-5e-05,-8e-05,6,22
60840,7e-05,-0.00012,0.00012,-4e-05,-5e-05,-7e-05,-5e-05,-8e-05,6,22
60841,7e-05,-0.00012,0.00012,-4e-05,-5e-05,-7e-05,-5e-05,-8e-05,6,22
60842,7e-05,-0.00012,0.00012,-4e-05,-5e-05,-7e-05,-5e-05,-8e-05,6,22
60843,7e-05,-0.00012,0.00012,-4e-05,-5e-05,-7e-05,-5e-05,-8e-05,6,22
60844,7e-05,-0.00012,0.00012,-4e-05,-5e-05,-7e-05,-5e-05,-8e-05,6,22
60845,7e-05,-0.00012,0.00012,-4e-05,-5e-05,-7e-05,-5e-05,-8e-05,6,22
60846,7e-05,-0.00012,0.00012,-4e-05,-5e-05,-7e-05,-5e-05,-8e-05,6,22
60847,7e-05,-0.00012,0.00012,-4e-05,-5e-05,-7e-05,-5e-05,-8e-05,6,22
60848,7e-05,-0.00012,0.00012,-4e-05,-5e-05,-7e-05,-5e-05,-8e-05,6,22
60849,0.00033,-3e-05,0.00038,0.00019,8e-05,7e-05,7e-05,0.0004,6,22
60850,0.00033,-3e-05,0.00038,0.00019,8e-05,7e-05,7e-05,0.0004,6,22
60851,-0.00018,-1e-05,-7e-05,-3e-05,2e-05,4e-05,1e-05,-6e-05,6,22
60852,-0.00018,-1e-05,-7e-05,-3e-05,2e-05,4e-05,1e-05,-6e-05,6,22
60853,-0.00018,-1e-05,-7e-05,-3e-05,2e-05,4e-05,1e-05,-6e-05,6,22
60854,-0.00018,-1e-05,-7e-05,-3e-05,2e-05,4e-05,1e-05,-6e-05,6,22
60855,-0.00018,-1e-05,-7e-05,-3e-05,2e-05,4e-05,1e-05,-6e-05,6,22
60856,-0.00018,-1e-05,-7e-05,-3e-05,2e-05,4e-05,1e-05,-6e-05,6,22
60857,-0.00018,-1e-05,-7e-05,-3e-05,2e-05,4e-05,1e-05,-6e-05,6,22
60858,-0.00018,-1e-05,-7e-05,-3e-05,2e-05,4e-05,1e-05,-6e-05,6,22
60859,-0.00018,-1e-05,-7e-05,-3e-05,2e-05,4e-05,1e-05,-6e-05,6,22
60860,-0.00018,-1e-05,-7e-05,-3e-05,2e-05,4e-05,1e-05,-6e-05,6,22
60861,-0.00018,-1e-05,-7e-05,-3e-05,2e-05,4e-05,1e-05,-6e-05,6,22
60862,-0.00018,-1e-05,-7e-05,-3e-05,2e-05,4e-05,1e-05,-6e-05,6,22
60863,-0.00018,-1e-05,-7e-05,-3e-05,2e-05,4e-05,1e-05,-6e-05,6,22
60864,-0.00018,-1e-05,-7e-05,-3e-05,2e-05,4e-05,1e-05,-6e-05,6,22
60865,-0.00018,-1e-05,-7e-05,-3e-05,2e-05,4e-05,1e-05,-6e-05,6,22
60866,-0.00018,-1e-05,-7e-05,-3e-05,2e-05,4e-05,1e-05,-6e-05,6,22
60867,-0.00018,-1e-05,-7e-05,-3e-05,2e-05,4e-05,1e-05,-6e-05,6,22
60868,-0.00018,-1e-05,-7e-05,-3e-05,2e-05,4e-05,1e-05,-6e-05,6,22
60869,-0.00018,-1e-05,-7e-05,-3e-05,2e-05,4e-05,1e-05,-6e-05,6,22
60870,-0.00018,-1e-05,-7e-05,-3e-05,2e-05,4e-05,1e-05,-6e-05,6,22
60871,-0.00018,-1e-05,-7e-05,-3e-05,2e-05,4e-05,1e-05,-6e-05,6,22
60872,-0.00018,-1e-05,-7e-05,-3e-05,2e-05,4e-05,1e-05,-6e-05,6,22
60873,-0.00018,-1e-05,-7e-05,-3e-05,2e-05,4e-05,1e-05,-6e-05,6,22
60874,-0.00018,-1e-05,-7e-05,-3e-05,2e-05,4e-05,1e-05,-6e-05,6,22
60875,-0.00018,-1e-05,-7e-05,-3e-05,2e-05,4e-05,1e-05,-6e-05,6,22
60876,-0.00018,-1e-05,-7e-05,-3e-05,2e-05,4e-05,1e-05,-6e-05,6,22
60877,-0.00018,-1e-05,-7e-05,-3e-05,2e-05,4e-05,1e-05,-6e-05,6,22
60878,0.00016,0.00017,0.00053,0.0003,0.0001,8e-05,5e-05,5e-05,6,22
60879,0.00016,0.00017,0.00053,0.0003,0.0001,8e-05,5e-05,5e-05,6,22
60880,0.00028,4e-05,-2e-05,-4e-05,2e-05,-1e-05,-6e-05,-3e-05,6,22
