29247,-3e-05,-3e-05,-1e-05,1e-05,0.00027,4e-05,6e-05,9e-05,6,24
29248,-3e-05,-3e-05,-1e-05,1e-05,0.00027,4e-05,6e-05,9e-05,6,24
29249,-3e-05,-3e-05,-1e-05,1e-05,0.00027,4e-05,6e-05,9e-05,6,24
29250,-3e-05,-3e-05,-1e-05,1e-05,0.00027,4e-05,6e-05,9e-05,6,24
29251,-3e-05,-3e-05,-1e-05,1e-05,0.00027,4e-05,6e-05,9e-05,6,24
29252,-7e-05,5e-05,5e-05,8e-05,0.00034,0.00012,0.00038,-0.00041,6,24
29253,-7e-05,5e-05,5e-05,8e-05,0.00034,0.00012,0.00038,-0.00041,6,24
29254,-7e-05,5e-05,5e-05,8e-05,0.00034,0.00012,0.00038,-0.00041,6,24
29255,-7e-05,5e-05,5e-05,8e-05,0.00034,0.00012,0.00038,-0.00041,6,24
29256,-7e-05,5e-05,5e-05,8e-05,0.00034,0.00012,0.00038,-0.00041,6,24
29257,-7e-05,5e-05,5e-05,8e-05,0.00034,0.00012,0.00038,-0.00041,6,24
29258,3e-05,0,0,-8e-05,-0.00012,-1e-05,2e-05,-0.0002,6,24
29259,3e-05,0,0,-8e-05,-0.00012,-1e-05,2e-05,-0.0002,6,24
29260,3e-05,0,0,-8e-05,-0.00012,-1e-05,2e-05,-0.0002,6,24
29261,3e-05,0,0,-8e-05,-0.00012,-1e-05,2e-05,-0.0002,6,24
29262,3e-05,0,0,-8e-05,-0.00012,-1e-05,2e-05,-0.0002,6,24
29263,3e-05,0,0,-8e-05,-0.00012,-1e-05,2e-05,-0.0002,6,24
29264,3e-05,0,0,-8e-05,-0.00012,-1e-05,2e-05,-0.0002,6,24
29265,3e-05,0,0,-8e-05,-0.00012,-1e-05,2e-05,-0.0002,6,24
29266,3e-05,0,0,-8e-05,-0.00012,-1e-05,2e-05,-0.0002,6,24
29267,3e-05,0,0,-8e-05,-0.00012,-1e-05,2e-05,-0.0002,6,24
29268,3e-05,0,0,-8e-05,-0.00012,-1e-05,2e-05,-0.0002,6,24
29269,3e-05,0,0,-8e-05,-0.00012,-1e-05,2e-05,-0.0002,6,24
29270,3e-05,0,0,-8e-05,-0.00012,-1e-05,2e-05,-0.0002,6,24
29271,3e-05,0,0,-8e-05,-0.00012,-1e-05,2e-05,-0.0002,6,24
29272,3e-05,0,0,-8e-05,-0.00012,-1e-05,2e-05,-0.0002,6,24
29273,3e-05,0,0,-8e-05,-0.00012,-1e-05,2e-05,-0.0002,6,24
29274,3e-05,0,0,-8e-05,-0.00012,-1e-05,2e-05,-0.0002,6,24
29275,-9e-05,0,1e-05,1e-05,8e-05,5e-05,-9e-05,-0.00054,6,24
29276,1e-05,5e-05,0,2e-05,-2e-05,-0.00016,-7e-05,-0.0005,6,24
29277,1e-05,5e-05,0,2e-05,-2e-05,-0.00016,-7e-05,-0.0005,6,24
29278,1e-05,5e-05,0,2e-05,-2e-05,-0.00016,-7e-05,-0.0005,6,24
29279,1e-05,5e-05,0,2e-05,-2e-05,-0.00016,-7e-05,-0.0005,6,24
29280,1e-05,5e-05,0,2e-05,-2e-05,-0.00016,-7e-05,-0.0005,6,24
29281,1e-05,5e-05,0,2e-05,-2e-05,-0.00016,-7e-05,-0.0005,6,24
29282,1e-05,5e-05,0,2e-05,-2e-05,-0.00016,-7e-05,-0.0005,6,24
29283,1e-05,5e-05,0,2e-05,-2e-05,-0.00016,-7e-05,-0.0005,6,24
29284,1e-05,5e-05,0,2e-05,-2e-05,-0.00016,-7e-05,-0.0005,6,24
29285,1e-05,5e-05,0,2e-05,-2e-05,-0.00016,-7e-05,-0.0005,6,24
29286,1e-05,5e-05,0,2e-05,-2e-05,-0.00016,-7e-05,-0.0005,6,24
29288,1e-05,5e-05,0,2e-05,-2e-05,-0.00016,-7e-05,-0.0005,6,24
29289,1e-05,5e-05,0,2e-05,-2e-05,-0.00016,-7e-05,-0.0005,6,24
29290,1e-05,5e-05,0,2e-05,-2e-05,-0.00016,-7e-05,-0.0005,6,24
29291,1e-05,5e-05,0,2e-05,-2e-05,-0.00016,-7e-05,-0.0005,6,24
29292,1e-05,5e-05,0,2e-05,-2e-05,-0.00016,-7e-05,-0.0005,6,24
29293,1e-05,5e-05,0,2e-05,-2e-05,-0.00016,-7e-05,-0.0005,6,24
29294,1e-05,5e-05,0,2e-05,-2e-05,-0.00016,-7e-05,-0.0005,6,24
29295,1e-05,5e-05,0,2e-05,-2e-05,-0.00016,-7e-05,-0.0005,6,24
29296,1e-05,5e-05,0,2e-05,-2e-05,-0.00016,-7e-05,-0.0005,6,24
29297,1e-05,5e-05,0,2e-05,-2e-05,-0.00016,-7e-05,-0.0005,6,24
29298,1e-05,5e-05,0,2e-05,-2e-05,-0.00016,-7e-05,-0.0005,6,24
29299,1e-05,5e-05,0,2e-05,-2e-05,-0.00016,-7e-05,-0.0005,6,24
29300,1e-05,5e-05,0,2e-05,-2e-05,-0.00016,-7e-05,-0.0005,6,24
29301,1e-05,5e-05,0,2e-05,-2e-05,-0.00016,-7e-05,-0.0005,6,24
29302,1e-05,5e-05,0,2e-05,-2e-05,-0.00016,-7e-05,-0.0005,6,24
29303,1e-05,5e-05,0,2e-05,-2e-05,-0.00016,-7e-05,-0.0005,6,24
29304,1e-05,5e-05,0,2e-05,-2e-05,-0.00016,-7e-05,-0.0005,6,24
29305,1e-05,5e-05,0,2e-05,-2e-05,-0.00016,-7e-05,-0.0005,6,24
29306,1e-05,5e-05,0,2e-05,-2e-05,-0.00016,-7e-05,-0.0005,6,24
29307,1e-05,5e-05,0,2e-05,-2e-05,-0.00016,-7e-05,-0.0005,6,24
29308,1e-05,5e-05,0,2e-05,-2e-05,-0.00016,-7e-05,-0.0005,6,24
29309,1e-05,5e-05,0,2e-05,-2e-05,-0.00016,-7e-05,-0.0005,6,24
29310,1e-05,5e-05,0,2e-05,-2e-05,-0.00016,-7e-05,-0.0005,6,24
29311,1e-05,5e-05,0,2e-05,-2e-05,-0.00016,-7e-05,-0.0005,6,24
29312,1e-05,5e-05,0,2e-05,-2e-05,-0.00016,-7e-05,-0.0005,6,24
29313,1e-05,5e-05,0,2e-05,-2e-05,-0.00016,-7e-05,-0.0005,6,24
29314,-6e-05,-3e-05,0,-4e-05,-0.00026,-0.00011,-0.00042,0.00073,6,24
29315,-0.00016,-1e-05,2e-05,-1e-05,-0.00035,-2e-05,-2e-05,-4e-05,6,24
29316,9e-05,-1e-05,-3e-05,-1e-05,-8e-05,8e-05,0,0.0002,6,24
29317,9e-05,-1e-05,-3e-05,-1e-05,-8e-05,8e-05,0,0.0002,6,24
29318,9e-05,-1e-05,-3e-05,-1e-05,-8e-05,8e-05,0,0.0002,6,24
29319,9e-05,-1e-05,-3e-05,-1e-05,-8e-05,8e-05,0,0.0002,6,24
29320,-0.00011,0,0,2e-05,-0.00013,-0.00012,-1e-05,0,6,24
29321,-0.00011,0,0,2e-05,-0.00013,-0.00012,-1e-05,0,6,24
29322,-0.00011,0,0,2e-05,-0.00013,-0.00012,-1e-05,0,6,24
29323,-0.00011,0,0,2e-05,-0.00013,-0.00012,-1e-05,0,6,24
29324,-0.00011,0,0,2e-05,-0.00013,-0.00012,-1e-05,0,6,24
29325,-0.00011,0,0,2e-05,-0.00013,-0.00012,-1e-05,0,6,24
29326,-0.00011,0,0,2e-05,-0.00013,-0.00012,-1e-05,0,6,24
29327,-0.00011,0,0,2e-05,-0.00013,-0.00012,-1e-05,0,6,24
29328,-0.00011,0,0,2e-05,-0.00013,-0.00012,-1e-05,0,6,24
29329,-0.00011,0,0,2e-05,-0.00013,-0.00012,-1e-05,0,6,24
29330,-0.00011,0,0,2e-05,-0.00013,-0.00012,-1e-05,0,6,24
29331,-0.00011,0,0,2e-05,-0.00013,-0.00012,-1e-05,0,6,24
29332,-0.00011,0,0,2e-05,-0.00013,-0.00012,-1e-05,0,6,24
29333,-0.00011,0,0,2e-05,-0.00013,-0.00012,-1e-05,0,6,24
29334,-0.00011,0,0,2e-05,-0.00013,-0.00012,-1e-05,0,6,24
29335,-9e-05,0,0,4e-05,9e-05,-0.00011,-0.00014,-0.00026,6,24
29336,-4e-05,-2e-05,-1e-05,-4e-05,0.0001,7e-05,-0.00013,0.0004,6,24
29338,-4e-05,-2e-05,-1e-05,-4e-05,0.0001,7e-05,-0.00013,0.0004,6,24
29339,-4e-05,-2e-05,-1e-05,-4e-05,0.0001,7e-05,-0.00013,0.0004,6,24
29340,-4e-05,-2e-05,-1e-05,-4e-05,0.0001,7e-05,-0.00013,0.0004,6,24
29341,-4e-05,-2e-05,-1e-05,-4e-05,0.0001,7e-05,-0.00013,0.0004,6,24
29342,-4e-05,-2e-05,-1e-05,-4e-05,0.0001,7e-05,-0.00013,0.0004,6,24
29343,-4e-05,-2e-05,-1e-05,-4e-05,0.0001,7e-05,-0.00013,0.0004,6,24
29344,-4e-05,-2e-05,-1e-05,-4e-05,0.0001,7e-05,-0.00013,0.0004,6,24
29345,-4e-05,-2e-05,-1e-05,-4e-05,0.0001,7e-05,-0.00013,0.0004,6,24
29346,-4e-05,-2e-05,-1e-05,-4e-05,0.0001,7e-05,-0.00013,0.0004,6,24
29347,-4e-05,-2e-05,-1e-05,-4e-05,0.0001,7e-05,-0.00013,0.0004,6,24
29348,-4e-05,-2e-05,-1e-05,-4e-05,0.0001,7e-05,-0.00013,0.0004,6,24
29349,-4e-05,-2e-05,-1e-05,-4e-05,0.0001,7e-05,-0.00013,0.0004,6,24
29350,-4e-05,-2e-05,-1e-05,-4e-05,0.0001,7e-05,-0.00013,0.0004,6,24
29351,-4e-05,-2e-05,-1e-05,-4e-05,0.0001,7e-05,-0.00013,0.0004,6,24
29352,-4e-05,-2e-05,-1e-05,-4e-05,0.0001,7e-05,-0.00013,0.0004,6,24
29353,-4e-05,-2e-05,-1e-05,-4e-05,0.0001,7e-05,-0.00013,0.0004,6,24
29354,-4e-05,-2e-05,-1e-05,-4e-05,0.0001,7e-05,-0.00013,0.0004,6,24
29355,-4e-05,-2e-05,-1e-05,-4e-05,0.0001,7e-05,-0.00013,0.0004,6,24
29356,-4e-05,-2e-05,-1e-05,-4e-05,0.0001,7e-05,-0.00013,0.0004,6,24
29357,-3e-05,-4e-05,-9e-05,1e-05,0.00021,5e-05,0.00011,-0.00072,6,24
29358,-3e-05,-4e-05,-9e-05,1e-05,0.00021,5e-05,0.00011,-0.00072,6,24
29359,-1e-05,-4e-05,-3e-05,-2e-05,0,8e-05,0.00017,0.00014,6,24
29360,-1e-05,-4e-05,-3e-05,-2e-05,0,8e-05,0.00017,0.00014,6,24
29361,-1e-05,-4e-05,-3e-05,-2e-05,0,8e-05,0.00017,0.00014,6,24
29362,-1e-05,-4e-05,-3e-05,-2e-05,0,8e-05,0.00017,0.00014,6,24
29363,-1e-05,-4e-05,-3e-05,-2e-05,0,8e-05,0.00017,0.00014,6,24
29364,-1e-05,-4e-05,-3e-05,-2e-05,0,8e-05,0.00017,0.00014,6,24
29365,-1e-05,-4e-05,-3e-05,-2e-05,0,8e-05,0.00017,0.00014,6,24
29366,-1e-05,-4e-05,-3e-05,-2e-05,0,8e-05,0.00017,0.00014,6,24
29367,-1e-05,-4e-05,-3e-05,-2e-05,0,8e-05,0.00017,0.00014,6,24
29368,-1e-05,-4e-05,-3e-05,-2e-05,0,8e-05,0.00017,0.00014,6,24
29369,-1e-05,-4e-05,-3e-05,-2e-05,0,8e-05,0.00017,0.00014,6,24
29370,-1e-05,-4e-05,-3e-05,-2e-05,0,8e-05,0.00017,0.00014,6,24
29371,0.0001,4e-05,6e-05,-1e-05,-0.00017,-9e-05,-7e-05,0.00017,6,24
29372,0.0001,4e-05,6e-05,-1e-05,-0.00017,-9e-05,-7e-05,0.00017,6,24
29373,0.0001,4e-05,6e-05,-1e-05,-0.00017,-9e-05,-7e-05,0.00017,6,24
29374,0.0001,4e-05,6e-05,-1e-05,-0.00017,-9e-05,-7e-05,0.00017,6,24
29375,0.0001,4e-05,6e-05,-1e-05,-0.00017,-9e-05,-7e-05,0.00017,6,24
29376,0.0001,4e-05,6e-05,-1e-05,-0.00017,-9e-05,-7e-05,0.00017,6,24
29377,0.0001,4e-05,6e-05,-1e-05,-0.00017,-9e-05,-7e-05,0.00017,6,24
29378,6e-05,0,-1e-05,-1e-05,-2e-05,0.0001,0.00014,0.00021,6,24
29380,6e-05,0,-1e-05,-1e-05,-2e-05,0.0001,0.00014,0.00021,6,24
29381,6e-05,0,-1e-05,-1e-05,-2e-05,0.0001,0.00014,0.00021,6,24
29382,6e-05,0,-1e-05,-1e-05,-2e-05,0.0001,0.00014,0.00021,6,24
29383,6e-05,0,-1e-05,-1e-05,-2e-05,0.0001,0.00014,0.00021,6,24
29384,6e-05,0,-1e-05,-1e-05,-2e-05,0.0001,0.00014,0.00021,6,24
29385,6e-05,0,-1e-05,-1e-05,-2e-05,0.0001,0.00014,0.00021,6,24
29386,6e-05,0,-1e-05,-1e-05,-2e-05,0.0001,0.00014,0.00021,6,24
29388,6e-05,0,-1e-05,-1e-05,-2e-05,0.0001,0.00014,0.00021,6,24
29390,6e-05,0,-1e-05,-1e-05,-2e-05,0.0001,0.00014,0.00021,6,24
29391,6e-05,0,-1e-05,-1e-05,-2e-05,0.0001,0.00014,0.00021,6,24
29392,6e-05,0,-1e-05,-1e-05,-2e-05,0.0001,0.00014,0.00021,6,24
29393,6e-05,0,-1e-05,-1e-05,-2e-05,0.0001,0.00014,0.00021,6,24
29394,6e-05,0,-1e-05,-1e-05,-2e-05,0.0001,0.00014,0.00021,6,24
29395,3e-05,1e-05,-1e-05,0,-2e-05,-0.00016,0.00021,0.00014,6,24
29396,0.00021,-3e-05,-3e-05,-5e-05,-0.00012,-9e-05,-0.0001,0.00014,6,24
29397,0.00021,-3e-05,-3e-05,-5e-05,-0.00012,-9e-05,-0.0001,0.00014,6,24
29398,0.00021,-3e-05,-3e-05,-5e-05,-0.00012,-9e-05,-0.0001,0.00014,6,24
29399,0.00021,-3e-05,-3e-05,-5e-05,-0.00012,-9e-05,-0.0001,0.00014,6,24
29400,0.00021,-3e-05,-3e-05,-5e-05,-0.00012,-9e-05,-0.0001,0.00014,6,24
29401,0.00021,-3e-05,-3e-05,-5e-05,-0.00012,-9e-05,-0.0001,0.00014,6,24
29402,0.00021,-3e-05,-3e-05,-5e-05,-0.00012,-9e-05,-0.0001,0.00014,6,24
29403,0.00021,-3e-05,-3e-05,-5e-05,-0.00012,-9e-05,-0.0001,0.00014,6,24
29404,0.00021,-3e-05,-3e-05,-5e-05,-0.00012,-9e-05,-0.0001,0.00014,6,24
29405,0.00021,-3e-05,-3e-05,-5e-05,-0.00012,-9e-05,-0.0001,0.00014,6,24
29406,0.00021,-3e-05,-3e-05,-5e-05,-0.00012,-9e-05,-0.0001,0.00014,6,24
29407,0.00021,-3e-05,-3e-05,-5e-05,-0.00012,-9e-05,-0.0001,0.00014,6,24
29408,0.00021,-3e-05,-3e-05,-5e-05,-0.00012,-9e-05,-0.0001,0.00014,6,24
29409,0.00021,-3e-05,-3e-05,-5e-05,-0.00012,-9e-05,-0.0001,0.00014,6,24
29410,0.00021,-3e-05,-3e-05,-5e-05,-0.00012,-9e-05,-0.0001,0.00014,6,24
29411,0.00021,-3e-05,-3e-05,-5e-05,-0.00012,-9e-05,-0.0001,0.00014,6,24
29412,0.00021,-3e-05,-3e-05,-5e-05,-0.00012,-9e-05,-0.0001,0.00014,6,24
29413,0.00021,-3e-05,-3e-05,-5e-05,-0.00012,-9e-05,-0.0001,0.00014,6,24
29414,0.00021,-3e-05,-3e-05,-5e-05,-0.00012,-9e-05,-0.0001,0.00014,6,24
29415,0.00021,-3e-05,-3e-05,-5e-05,-0.00012,-9e-05,-0.0001,0.00014,6,24
29416,0.00021,-3e-05,-3e-05,-5e-05,-0.00012,-9e-05,-0.0001,0.00014,6,24
29417,6e-05,1e-05,0,4e-05,0.00039,5e-05,3e-05,0.00036,6,24
29418,6e-05,1e-05,0,4e-05,0.00039,5e-05,3e-05,0.00036,6,24
29419,3e-05,3e-05,2e-05,-8e-05,-4e-05,-0.00016,-4e-05,-0.0002,6,24
29420,3e-05,3e-05,2e-05,-8e-05,-4e-05,-0.00016,-4e-05,-0.0002,6,24
29421,3e-05,3e-05,2e-05,-8e-05,-4e-05,-0.00016,-4e-05,-0.0002,6,24
29422,3e-05,3e-05,2e-05,-8e-05,-4e-05,-0.00016,-4e-05,-0.0002,6,24
29423,3e-05,3e-05,2e-05,-8e-05,-4e-05,-0.00016,-4e-05,-0.0002,6,24
29424,3e-05,3e-05,2e-05,-8e-05,-4e-05,-0.00016,-4e-05,-0.0002,6,24
29425,3e-05,3e-05,2e-05,-8e-05,-4e-05,-0.00016,-4e-05,-0.0002,6,24
29426,3e-05,3e-05,2e-05,-8e-05,-4e-05,-0.00016,-4e-05,-0.0002,6,24
29427,3e-05,3e-05,2e-05,-8e-05,-4e-05,-0.00016,-4e-05,-0.0002,6,24
29428,3e-05,3e-05,2e-05,-8e-05,-4e-05,-0.00016,-4e-05,-0.0002,6,24
29429,3e-05,3e-05,2e-05,-8e-05,-4e-05,-0.00016,-4e-05,-0.0002,6,24
29430,3e-05,3e-05,2e-05,-8e-05,-4e-05,-0.00016,-4e-05,-0.0002,6,24
29431,3e-05,3e-05,2e-05,-8e-05,-4e-05,-0.00016,-4e-05,-0.0002,6,24
29432,3e-05,0,-2e-05,1e-05,-7e-05,-0.00024,-2e-05,0.00052,6,24
29433,3e-05,0,-2e-05,1e-05,-7e-05,-0.00024,-2e-05,0.00052,6,24
29434,3e-05,0,-2e-05,1e-05,-7e-05,-0.00024,-2e-05,0.00052,6,24
29435,3e-05,0,-2e-05,1e-05,-7e-05,-0.00024,-2e-05,0.00052,6,24
29436,3e-05,0,-2e-05,1e-05,-7e-05,-0.00024,-2e-05,0.00052,6,24
29438,3e-05,0,-2e-05,1e-05,-7e-05,-0.00024,-2e-05,0.00052,6,24
29440,-2e-05,-2e-05,-2e-05,0,-5e-05,-6e-05,2e-05,4e-05,6,24
29441,-2e-05,-2e-05,-2e-05,0,-5e-05,-6e-05,2e-05,4e-05,6,24
29442,-2e-05,-2e-05,-2e-05,0,-5e-05,-6e-05,2e-05,4e-05,6,24
29443,-2e-05,-2e-05,-2e-05,0,-5e-05,-6e-05,2e-05,4e-05,6,24
29444,-2e-05,-2e-05,-2e-05,0,-5e-05,-6e-05,2e-05,4e-05,6,24
29445,-2e-05,-2e-05,-2e-05,0,-5e-05,-6e-05,2e-05,4e-05,6,24
29446,-2e-05,-2e-05,-2e-05,0,-5e-05,-6e-05,2e-05,4e-05,6,24
29447,-2e-05,-2e-05,-2e-05,0,-5e-05,-6e-05,2e-05,4e-05,6,24
29448,-2e-05,-2e-05,-2e-05,0,-5e-05,-6e-05,2e-05,4e-05,6,24
29449,-2e-05,-2e-05,-2e-05,0,-5e-05,-6e-05,2e-05,4e-05,6,24
29450,-2e-05,-2e-05,-2e-05,0,-5e-05,-6e-05,2e-05,4e-05,6,24
29451,-2e-05,-2e-05,-2e-05,0,-5e-05,-6e-05,2e-05,4e-05,6,24
29452,-2e-05,-2e-05,-2e-05,0,-5e-05,-6e-05,2e-05,4e-05,6,24
29453,-2e-05,-2e-05,-2e-05,0,-5e-05,-6e-05,2e-05,4e-05,6,24
29454,-2e-05,-2e-05,-2e-05,0,-5e-05,-6e-05,2e-05,4e-05,6,24
29455,0.00054,4e-05,0,-7e-05,-0.00011,5e-05,-8e-05,0.00023,6,24
29456,0.00054,4e-05,0,-7e-05,-0.00011,5e-05,-8e-05,0.00023,6,24
29457,-4e-05,-2e-05,-2e-05,4e-05,-0.00019,5e-05,-2e-05,-0.00033,6,24
29458,-4e-05,-2e-05,-2e-05,4e-05,-0.00019,5e-05,-2e-05,-0.00033,6,24
29459,-4e-05,-2e-05,-2e-05,4e-05,-0.00019,5e-05,-2e-05,-0.00033,6,24
29460,-4e-05,-2e-05,-2e-05,4e-05,-0.00019,5e-05,-2e-05,-0.00033,6,24
29461,-4e-05,-2e-05,-2e-05,4e-05,-0.00019,5e-05,-2e-05,-0.00033,6,24
29462,-4e-05,-2e-05,-2e-05,4e-05,-0.00019,5e-05,-2e-05,-0.00033,6,24
29463,-4e-05,-2e-05,-2e-05,4e-05,-0.00019,5e-05,-2e-05,-0.00033,6,24
29464,-4e-05,-2e-05,-2e-05,4e-05,-0.00019,5e-05,-2e-05,-0.00033,6,24
29465,-4e-05,-2e-05,-2e-05,4e-05,-0.00019,5e-05,-2e-05,-0.00033,6,24
29466,-4e-05,-2e-05,-2e-05,4e-05,-0.00019,5e-05,-2e-05,-0.00033,6,24
29467,-4e-05,-2e-05,-2e-05,4e-05,-0.00019,5e-05,-2e-05,-0.00033,6,24
29468,-4e-05,-2e-05,-2e-05,4e-05,-0.00019,5e-05,-2e-05,-0.00033,6,24
29469,-4e-05,-2e-05,-2e-05,4e-05,-0.00019,5e-05,-2e-05,-0.00033,6,24
29470,-4e-05,-2e-05,-2e-05,4e-05,-0.00019,5e-05,-2e-05,-0.00033,6,24
29471,-4e-05,-2e-05,-2e-05,4e-05,-0.00019,5e-05,-2e-05,-0.00033,6,24
29472,-4e-05,-2e-05,-2e-05,4e-05,-0.00019,5e-05,-2e-05,-0.00033,6,24
29473,-4e-05,-2e-05,-2e-05,4e-05,-0.00019,5e-05,-2e-05,-0.00033,6,24
29474,-4e-05,-2e-05,-2e-05,4e-05,-0.00019,5e-05,-2e-05,-0.00033,6,24
29475,-4e-05,-2e-05,-2e-05,4e-05,-0.00019,5e-05,-2e-05,-0.00033,6,24
29476,-4e-05,-2e-05,-2e-05,4e-05,-0.00019,5e-05,-2e-05,-0.00033,6,24
29477,-0.00012,1e-05,4e-05,-3e-05,-0.0003,0,-0.00014,-0.00023,6,24
29478,-0.00012,1e-05,4e-05,-3e-05,-0.0003,0,-0.00014,-0.00023,6,24
29479,-8e-05,-1e-05,-1e-05,2e-05,0.00034,6e-05,-0.00051,-0.00086,6,24
29480,-8e-05,-1e-05,-1e-05,2e-05,0.00034,6e-05,-0.00051,-0.00086,6,24
29481,-8e-05,-1e-05,-1e-05,2e-05,0.00034,6e-05,-0.00051,-0.00086,6,24
29482,-8e-05,-1e-05,-1e-05,2e-05,0.00034,6e-05,-0.00051,-0.00086,6,24
29483,-8e-05,-1e-05,-1e-05,2e-05,0.00034,6e-05,-0.00051,-0.00086,6,24
29484,-8e-05,-1e-05,-1e-05,2e-05,0.00034,6e-05,-0.00051,-0.00086,6,24
29485,-8e-05,-1e-05,-1e-05,2e-05,0.00034,6e-05,-0.00051,-0.00086,6,24
29486,-8e-05,-1e-05,-1e-05,2e-05,0.00034,6e-05,-0.00051,-0.00086,6,24
29488,-8e-05,-1e-05,-1e-05,2e-05,0.00034,6e-05,-0.00051,-0.00086,6,24
29489,-8e-05,-1e-05,-1e-05,2e-05,0.00034,6e-05,-0.00051,-0.00086,6,24
29490,-8e-05,-1e-05,-1e-05,2e-05,0.00034,6e-05,-0.00051,-0.00086,6,24
29491,-0.00015,-6e-05,-1e-05,2e-05,0,1e-05,-6e-05,1e-05,6,24
29492,-0.00015,-6e-05,-1e-05,2e-05,0,1e-05,-6e-05,1e-05,6,24
29493,-0.00015,-6e-05,-1e-05,2e-05,0,1e-05,-6e-05,1e-05,6,24
29494,-0.00015,-6e-05,-1e-05,2e-05,0,1e-05,-6e-05,1e-05,6,24
29495,-0.00015,-6e-05,-1e-05,2e-05,0,1e-05,-6e-05,1e-05,6,24
29496,-0.00015,-6e-05,-1e-05,2e-05,0,1e-05,-6e-05,1e-05,6,24
29497,-0.00015,-6e-05,-1e-05,2e-05,0,1e-05,-6e-05,1e-05,6,24
29498,-0.00015,-6e-05,-1e-05,2e-05,0,1e-05,-6e-05,1e-05,6,24
29499,-0.00015,-6e-05,-1e-05,2e-05,0,1e-05,-6e-05,1e-05,6,24
29500,-0.00014,-6e-05,-6e-05,0,9e-05,2e-05,-0.0001,8e-05,6,24
29501,-0.00014,-6e-05,-6e-05,0,9e-05,2e-05,-0.0001,8e-05,6,24
29502,-0.00014,-6e-05,-6e-05,0,9e-05,2e-05,-0.0001,8e-05,6,24
29503,-0.00014,-6e-05,-6e-05,0,9e-05,2e-05,-0.0001,8e-05,6,24
29504,-0.00014,-6e-05,-6e-05,0,9e-05,2e-05,-0.0001,8e-05,6,24
29505,-0.00014,-6e-05,-6e-05,0,9e-05,2e-05,-0.0001,8e-05,6,24
29506,-0.00014,-6e-05,-6e-05,0,9e-05,2e-05,-0.0001,8e-05,6,24
29507,-0.00014,-6e-05,-6e-05,0,9e-05,2e-05,-0.0001,8e-05,6,24
29508,-0.00014,-6e-05,-6e-05,0,9e-05,2e-05,-0.0001,8e-05,6,24
29509,-0.00014,-6e-05,-6e-05,0,9e-05,2e-05,-0.0001,8e-05,6,24
29510,-0.00014,-6e-05,-6e-05,0,9e-05,2e-05,-0.0001,8e-05,6,24
29511,-0.00014,-6e-05,-6e-05,0,9e-05,2e-05,-0.0001,8e-05,6,24
29512,-0.00014,-6e-05,-6e-05,0,9e-05,2e-05,-0.0001,8e-05,6,24
29513,-0.00014,-6e-05,-6e-05,0,9e-05,2e-05,-0.0001,8e-05,6,24
29514,-0.00014,-6e-05,-6e-05,0,9e-05,2e-05,-0.0001,8e-05,6,24
29515,-3e-05,-2e-05,-3e-05,-3e-05,7e-05,5e-05,1e-05,-0.00025,6,24
29516,3e-05,1e-05,0,5e-05,0.00026,4e-05,9e-05,0.00033,6,24
29517,3e-05,1e-05,0,5e-05,0.00026,4e-05,9e-05,0.00033,6,24
29518,3e-05,1e-05,0,5e-05,0.00026,4e-05,9e-05,0.00033,6,24
29519,3e-05,1e-05,0,5e-05,0.00026,4e-05,9e-05,0.00033,6,24
29520,3e-05,1e-05,0,5e-05,0.00026,4e-05,9e-05,0.00033,6,24
29521,3e-05,1e-05,0,5e-05,0.00026,4e-05,9e-05,0.00033,6,24
29522,3e-05,1e-05,0,5e-05,0.00026,4e-05,9e-05,0.00033,6,24
29523,3e-05,1e-05,0,5e-05,0.00026,4e-05,9e-05,0.00033,6,24
29524,3e-05,1e-05,0,5e-05,0.00026,4e-05,9e-05,0.00033,6,24
29525,3e-05,1e-05,0,5e-05,0.00026,4e-05,9e-05,0.00033,6,24
29526,3e-05,1e-05,0,5e-05,0.00026,4e-05,9e-05,0.00033,6,24
29527,3e-05,1e-05,0,5e-05,0.00026,4e-05,9e-05,0.00033,6,24
29528,3e-05,1e-05,0,5e-05,0.00026,4e-05,9e-05,0.00033,6,24
29529,3e-05,1e-05,0,5e-05,0.00026,4e-05,9e-05,0.00033,6,24
29530,3e-05,1e-05,0,5e-05,0.00026,4e-05,9e-05,0.00033,6,24
29531,3e-05,1e-05,0,5e-05,0.00026,4e-05,9e-05,0.00033,6,24
29532,3e-05,1e-05,0,5e-05,0.00026,4e-05,9e-05,0.00033,6,24
29533,3e-05,1e-05,0,5e-05,0.00026,4e-05,9e-05,0.00033,6,24
29534,3e-05,1e-05,0,5e-05,0.00026,4e-05,9e-05,0.00033,6,24
29535,3e-05,1e-05,0,5e-05,0.00026,4e-05,9e-05,0.00033,6,24
29536,3e-05,1e-05,0,5e-05,0.00026,4e-05,9e-05,0.00033,6,24
29538,2e-05,0,-2e-05,-5e-05,-0.00022,3e-05,7e-05,0.00024,6,24
29539,0,0,3e-05,1e-05,0.00018,-1e-05,-3e-05,7e-05,6,24
29540,0.00011,0,1e-05,0,-5e-05,-5e-05,-0.00014,0.00045,6,24
29541,0.00011,0,1e-05,0,-5e-05,-5e-05,-0.00014,0.00045,6,24
29542,0.00011,0,1e-05,0,-5e-05,-5e-05,-0.00014,0.00045,6,24
29543,0.00011,0,1e-05,0,-5e-05,-5e-05,-0.00014,0.00045,6,24
29544,0.00011,0,1e-05,0,-5e-05,-5e-05,-0.00014,0.00045,6,24
29545,0.00011,0,1e-05,0,-5e-05,-5e-05,-0.00014,0.00045,6,24
29546,0.00011,0,1e-05,0,-5e-05,-5e-05,-0.00014,0.00045,6,24
29547,0.00011,0,1e-05,0,-5e-05,-5e-05,-0.00014,0.00045,6,24
29548,0.00011,0,1e-05,0,-5e-05,-5e-05,-0.00014,0.00045,6,24
29549,0.00011,0,1e-05,0,-5e-05,-5e-05,-0.00014,0.00045,6,24
29550,0.00011,0,1e-05,0,-5e-05,-5e-05,-0.00014,0.00045,6,24
29551,-0.00025,1e-05,-2e-05,-4e-05,-4e-05,-5e-05,-3e-05,0.00011,6,24
29552,-0.00025,1e-05,-2e-05,-4e-05,-4e-05,-5e-05,-3e-05,0.00011,6,24
29553,-0.00025,1e-05,-2e-05,-4e-05,-4e-05,-5e-05,-3e-05,0.00011,6,24
29554,-0.00025,1e-05,-2e-05,-4e-05,-4e-05,-5e-05,-3e-05,0.00011,6,24
29555,-0.00025,1e-05,-2e-05,-4e-05,-4e-05,-5e-05,-3e-05,0.00011,6,24
29556,-0.00025,1e-05,-2e-05,-4e-05,-4e-05,-5e-05,-3e-05,0.00011,6,24
29557,-0.00025,1e-05,-2e-05,-4e-05,-4e-05,-5e-05,-3e-05,0.00011,6,24
29558,-0.00025,1e-05,-2e-05,-4e-05,-4e-05,-5e-05,-3e-05,0.00011,6,24
29559,-0.00025,1e-05,-2e-05,-4e-05,-4e-05,-5e-05,-3e-05,0.00011,6,24
29560,-1e-05,-1e-05,1e-05,-3e-05,-7e-05,-1e-05,6e-05,-9e-05,6,24
29561,-1e-05,-1e-05,1e-05,-3e-05,-7e-05,-1e-05,6e-05,-9e-05,6,24
29562,-1e-05,-1e-05,1e-05,-3e-05,-7e-05,-1e-05,6e-05,-9e-05,6,24
29563,-1e-05,-1e-05,1e-05,-3e-05,-7e-05,-1e-05,6e-05,-9e-05,6,24
29564,-1e-05,-1e-05,1e-05,-3e-05,-7e-05,-1e-05,6e-05,-9e-05,6,24
29565,-1e-05,-1e-05,1e-05,-3e-05,-7e-05,-1e-05,6e-05,-9e-05,6,24
29566,-1e-05,-1e-05,1e-05,-3e-05,-7e-05,-1e-05,6e-05,-9e-05,6,24
29567,-1e-05,-1e-05,1e-05,-3e-05,-7e-05,-1e-05,6e-05,-9e-05,6,24
29568,-1e-05,-1e-05,1e-05,-3e-05,-7e-05,-1e-05,6e-05,-9e-05,6,24
29569,-1e-05,-1e-05,1e-05,-3e-05,-7e-05,-1e-05,6e-05,-9e-05,6,24
29570,-1e-05,-1e-05,1e-05,-3e-05,-7e-05,-1e-05,6e-05,-9e-05,6,24
29571,-1e-05,-1e-05,1e-05,-3e-05,-7e-05,-1e-05,6e-05,-9e-05,6,24
29572,-1e-05,-1e-05,1e-05,-3e-05,-7e-05,-1e-05,6e-05,-9e-05,6,24
29573,-1e-05,-1e-05,1e-05,-3e-05,-7e-05,-1e-05,6e-05,-9e-05,6,24
29574,-1e-05,-1e-05,1e-05,-3e-05,-7e-05,-1e-05,6e-05,-9e-05,6,24
29575,-1e-05,-3e-05,-1e-05,-3e-05,-5e-05,-0.0001,0.00021,0.00026,6,24
29576,1e-05,0,-2e-05,0,-0.00011,7e-05,2e-05,0.00027,6,24
29577,1e-05,0,-2e-05,0,-0.00011,7e-05,2e-05,0.00027,6,24
29578,1e-05,0,-2e-05,0,-0.00011,7e-05,2e-05,0.00027,6,24
29579,1e-05,0,-2e-05,0,-0.00011,7e-05,2e-05,0.00027,6,24
29580,1e-05,0,-2e-05,0,-0.00011,7e-05,2e-05,0.00027,6,24
29581,1e-05,0,-2e-05,0,-0.00011,7e-05,2e-05,0.00027,6,24
29582,1e-05,0,-2e-05,0,-0.00011,7e-05,2e-05,0.00027,6,24
29583,1e-05,0,-2e-05,0,-0.00011,7e-05,2e-05,0.00027,6,24
29584,1e-05,0,-2e-05,0,-0.00011,7e-05,2e-05,0.00027,6,24
29585,1e-05,0,-2e-05,0,-0.00011,7e-05,2e-05,0.00027,6,24
29586,1e-05,0,-2e-05,0,-0.00011,7e-05,2e-05,0.00027,6,24
29588,1e-05,0,-2e-05,0,-0.00011,7e-05,2e-05,0.00027,6,24
29589,1e-05,0,-2e-05,0,-0.00011,7e-05,2e-05,0.00027,6,24
29590,1e-05,0,-2e-05,0,-0.00011,7e-05,2e-05,0.00027,6,24
29591,1e-05,0,-2e-05,0,-0.00011,7e-05,2e-05,0.00027,6,24
29592,1e-05,0,-2e-05,0,-0.00011,7e-05,2e-05,0.00027,6,24
29593,1e-05,0,-2e-05,0,-0.00011,7e-05,2e-05,0.00027,6,24
29594,1e-05,0,-2e-05,0,-0.00011,7e-05,2e-05,0.00027,6,24
29595,1e-05,0,-2e-05,0,-0.00011,7e-05,2e-05,0.00027,6,24
29596,1e-05,0,-2e-05,0,-0.00011,7e-05,2e-05,0.00027,6,24
29597,-1e-05,-2e-05,2e-05,2e-05,-0.00011,0.0001,7e-05,-0.00012,6,24
29598,-1e-05,-2e-05,2e-05,2e-05,-0.00011,0.0001,7e-05,-0.00012,6,24
29599,-1e-05,1e-05,1e-05,0,-2e-05,4e-05,0.00017,-1e-05,6,24
29600,-1e-05,1e-05,1e-05,0,-2e-05,4e-05,0.00017,-1e-05,6,24
29601,-1e-05,1e-05,1e-05,0,-2e-05,4e-05,0.00017,-1e-05,6,24
29602,-1e-05,1e-05,1e-05,0,-2e-05,4e-05,0.00017,-1e-05,6,24
29603,-1e-05,1e-05,1e-05,0,-2e-05,4e-05,0.00017,-1e-05,6,24
29604,-1e-05,1e-05,1e-05,0,-2e-05,4e-05,0.00017,-1e-05,6,24
29605,-1e-05,1e-05,1e-05,0,-2e-05,4e-05,0.00017,-1e-05,6,24
29606,-1e-05,1e-05,1e-05,0,-2e-05,4e-05,0.00017,-1e-05,6,24
29607,-1e-05,1e-05,1e-05,0,-2e-05,4e-05,0.00017,-1e-05,6,24
29608,-1e-05,1e-05,1e-05,0,-2e-05,4e-05,0.00017,-1e-05,6,24
29609,-1e-05,1e-05,1e-05,0,-2e-05,4e-05,0.00017,-1e-05,6,24
29610,-1e-05,1e-05,1e-05,0,-2e-05,4e-05,0.00017,-1e-05,6,24
29611,7e-05,-2e-05,-2e-05,3e-05,8e-05,4e-05,-2e-05,-0.00031,6,24
29612,7e-05,-2e-05,-2e-05,3e-05,8e-05,4e-05,-2e-05,-0.00031,6,24
29613,7e-05,-2e-05,-2e-05,3e-05,8e-05,4e-05,-2e-05,-0.00031,6,24
29614,7e-05,-2e-05,-2e-05,3e-05,8e-05,4e-05,-2e-05,-0.00031,6,24
29615,7e-05,-2e-05,-2e-05,3e-05,8e-05,4e-05,-2e-05,-0.00031,6,24
29616,7e-05,-2e-05,-2e-05,3e-05,8e-05,4e-05,-2e-05,-0.00031,6,24
29617,7e-05,-2e-05,-2e-05,3e-05,8e-05,4e-05,-2e-05,-0.00031,6,24
29618,7e-05,-2e-05,-2e-05,3e-05,8e-05,4e-05,-2e-05,-0.00031,6,24
29619,7e-05,-2e-05,-2e-05,3e-05,8e-05,4e-05,-2e-05,-0.00031,6,24
29620,-4e-05,0,-1e-05,-1e-05,1e-05,2e-05,0.00015,-0.0002,6,24
29621,-4e-05,0,-1e-05,-1e-05,1e-05,2e-05,0.00015,-0.0002,6,24
29622,-4e-05,0,-1e-05,-1e-05,1e-05,2e-05,0.00015,-0.0002,6,24
29623,-4e-05,0,-1e-05,-1e-05,1e-05,2e-05,0.00015,-0.0002,6,24
29624,-4e-05,0,-1e-05,-1e-05,1e-05,2e-05,0.00015,-0.0002,6,24
29625,-4e-05,0,-1e-05,-1e-05,1e-05,2e-05,0.00015,-0.0002,6,24
29626,-4e-05,0,-1e-05,-1e-05,1e-05,2e-05,0.00015,-0.0002,6,24
29627,-4e-05,0,-1e-05,-1e-05,1e-05,2e-05,0.00015,-0.0002,6,24
29628,-4e-05,0,-1e-05,-1e-05,1e-05,2e-05,0.00015,-0.0002,6,24
29629,-4e-05,0,-1e-05,-1e-05,1e-05,2e-05,0.00015,-0.0002,6,24
29630,-4e-05,0,-1e-05,-1e-05,1e-05,2e-05,0.00015,-0.0002,6,24
29631,-4e-05,0,-1e-05,-1e-05,1e-05,2e-05,0.00015,-0.0002,6,24
29632,-4e-05,0,-1e-05,-1e-05,1e-05,2e-05,0.00015,-0.0002,6,24
29633,-4e-05,0,-1e-05,-1e-05,1e-05,2e-05,0.00015,-0.0002,6,24
29634,-4e-05,0,-1e-05,-1e-05,1e-05,2e-05,0.00015,-0.0002,6,24
29635,-8e-05,-6e-05,-5e-05,-7e-05,-0.00027,-0.00015,0,0.00017,6,24
29636,0,-5e-05,-5e-05,-2e-05,7e-05,6e-05,0.0001,0.00013,6,24
29638,0,-5e-05,-5e-05,-2e-05,7e-05,6e-05,0.0001,0.00013,6,24
29639,0,-5e-05,-5e-05,-2e-05,7e-05,6e-05,0.0001,0.00013,6,24
29640,0,-5e-05,-5e-05,-2e-05,7e-05,6e-05,0.0001,0.00013,6,24
29641,0,-5e-05,-5e-05,-2e-05,7e-05,6e-05,0.0001,0.00013,6,24
29642,0,-5e-05,-5e-05,-2e-05,7e-05,6e-05,0.0001,0.00013,6,24
29643,0,-5e-05,-5e-05,-2e-05,7e-05,6e-05,0.0001,0.00013,6,24
29644,0,-5e-05,-5e-05,-2e-05,7e-05,6e-05,0.0001,0.00013,6,24
29645,0,-5e-05,-5e-05,-2e-05,7e-05,6e-05,0.0001,0.00013,6,24
29646,0,-5e-05,-5e-05,-2e-05,7e-05,6e-05,0.0001,0.00013,6,24
29647,0,-5e-05,-5e-05,-2e-05,7e-05,6e-05,0.0001,0.00013,6,24
29648,0,-5e-05,-5e-05,-2e-05,7e-05,6e-05,0.0001,0.00013,6,24
29649,0,-5e-05,-5e-05,-2e-05,7e-05,6e-05,0.0001,0.00013,6,24
29650,0,-5e-05,-5e-05,-2e-05,7e-05,6e-05,0.0001,0.00013,6,24
29651,0,-5e-05,-5e-05,-2e-05,7e-05,6e-05,0.0001,0.00013,6,24
29652,0,-5e-05,-5e-05,-2e-05,7e-05,6e-05,0.0001,0.00013,6,24
29653,0,-5e-05,-5e-05,-2e-05,7e-05,6e-05,0.0001,0.00013,6,24
29654,0,-5e-05,-5e-05,-2e-05,7e-05,6e-05,0.0001,0.00013,6,24
29655,0,-5e-05,-5e-05,-2e-05,7e-05,6e-05,0.0001,0.00013,6,24
29656,0,-5e-05,-5e-05,-2e-05,7e-05,6e-05,0.0001,0.00013,6,24
29657,-3e-05,-3e-05,0,-2e-05,-4e-05,9e-05,-6e-05,-2e-05,6,24
29658,-3e-05,-3e-05,0,-2e-05,-4e-05,9e-05,-6e-05,-2e-05,6,24
29659,3e-05,-1e-05,-2e-05,-1e-05,-0.00037,-0.00018,-5e-05,3e-05,6,24
29660,3e-05,-1e-05,-2e-05,-1e-05,-0.00037,-0.00018,-5e-05,3e-05,6,24
29661,3e-05,-1e-05,-2e-05,-1e-05,-0.00037,-0.00018,-5e-05,3e-05,6,24
29662,3e-05,-1e-05,-2e-05,-1e-05,-0.00037,-0.00018,-5e-05,3e-05,6,24
29663,3e-05,-1e-05,-2e-05,-1e-05,-0.00037,-0.00018,-5e-05,3e-05,6,24
29664,3e-05,-1e-05,-2e-05,-1e-05,-0.00037,-0.00018,-5e-05,3e-05,6,24
29665,3e-05,-1e-05,-2e-05,-1e-05,-0.00037,-0.00018,-5e-05,3e-05,6,24
29666,3e-05,-1e-05,-2e-05,-1e-05,-0.00037,-0.00018,-5e-05,3e-05,6,24
29667,3e-05,-1e-05,-2e-05,-1e-05,-0.00037,-0.00018,-5e-05,3e-05,6,24
29668,3e-05,-1e-05,-2e-05,-1e-05,-0.00037,-0.00018,-5e-05,3e-05,6,24
29669,3e-05,-1e-05,-2e-05,-1e-05,-0.00037,-0.00018,-5e-05,3e-05,6,24
29670,3e-05,-1e-05,-2e-05,-1e-05,-0.00037,-0.00018,-5e-05,3e-05,6,24
29671,-9e-05,0,-1e-05,-1e-05,9e-05,2e-05,-0.00019,-0.00037,6,24
29672,-9e-05,0,-1e-05,-1e-05,9e-05,2e-05,-0.00019,-0.00037,6,24
29673,-9e-05,0,-1e-05,-1e-05,9e-05,2e-05,-0.00019,-0.00037,6,24
29674,-9e-05,0,-1e-05,-1e-05,9e-05,2e-05,-0.00019,-0.00037,6,24
29675,-9e-05,0,-1e-05,-1e-05,9e-05,2e-05,-0.00019,-0.00037,6,24
29676,-9e-05,0,-1e-05,-1e-05,9e-05,2e-05,-0.00019,-0.00037,6,24
29677,-9e-05,0,-1e-05,-1e-05,9e-05,2e-05,-0.00019,-0.00037,6,24
29678,-9e-05,0,-1e-05,-1e-05,9e-05,2e-05,-0.00019,-0.00037,6,24
29679,-9e-05,0,-1e-05,-1e-05,9e-05,2e-05,-0.00019,-0.00037,6,24
29680,-1e-05,-1e-05,0,-1e-05,6e-05,-0.0001,8e-05,0.00014,6,24
29681,-1e-05,-1e-05,0,-1e-05,6e-05,-0.0001,8e-05,0.00014,6,24
29682,-1e-05,-1e-05,0,-1e-05,6e-05,-0.0001,8e-05,0.00014,6,24
29683,-1e-05,-1e-05,0,-1e-05,6e-05,-0.0001,8e-05,0.00014,6,24
29684,-1e-05,-1e-05,0,-1e-05,6e-05,-0.0001,8e-05,0.00014,6,24
29685,-1e-05,-1e-05,0,-1e-05,6e-05,-0.0001,8e-05,0.00014,6,24
29686,-1e-05,-1e-05,0,-1e-05,6e-05,-0.0001,8e-05,0.00014,6,24
29688,-1e-05,-1e-05,0,-1e-05,6e-05,-0.0001,8e-05,0.00014,6,24
29689,-1e-05,-1e-05,0,-1e-05,6e-05,-0.0001,8e-05,0.00014,6,24
29690,-1e-05,-1e-05,0,-1e-05,6e-05,-0.0001,8e-05,0.00014,6,24
29691,-1e-05,-1e-05,0,-1e-05,6e-05,-0.0001,8e-05,0.00014,6,24
29692,-1e-05,-1e-05,0,-1e-05,6e-05,-0.0001,8e-05,0.00014,6,24
29693,-1e-05,-1e-05,0,-1e-05,6e-05,-0.0001,8e-05,0.00014,6,24
29694,-1e-05,-1e-05,0,-1e-05,6e-05,-0.0001,8e-05,0.00014,6,24
29695,3e-05,-2e-05,-8e-05,1e-05,3e-05,0.00015,1e-05,0.0002,6,24
29696,-6e-05,-1e-05,0,-3e-05,5e-05,0.0001,-0.00026,-0.00082,6,24
29697,-6e-05,-1e-05,0,-3e-05,5e-05,0.0001,-0.00026,-0.00082,6,24
29698,-6e-05,-1e-05,0,-3e-05,5e-05,0.0001,-0.00026,-0.00082,6,24
29699,-6e-05,-1e-05,0,-3e-05,5e-05,0.0001,-0.00026,-0.00082,6,24
29700,-6e-05,-1e-05,0,-3e-05,5e-05,0.0001,-0.00026,-0.00082,6,24
29701,-6e-05,-1e-05,0,-3e-05,5e-05,0.0001,-0.00026,-0.00082,6,24
29702,-6e-05,-1e-05,0,-3e-05,5e-05,0.0001,-0.00026,-0.00082,6,24
29703,-6e-05,-1e-05,0,-3e-05,5e-05,0.0001,-0.00026,-0.00082,6,24
29704,-6e-05,-1e-05,0,-3e-05,5e-05,0.0001,-0.00026,-0.00082,6,24
29705,-6e-05,-1e-05,0,-3e-05,5e-05,0.0001,-0.00026,-0.00082,6,24
29706,-6e-05,-1e-05,0,-3e-05,5e-05,0.0001,-0.00026,-0.00082,6,24
29707,-6e-05,-1e-05,0,-3e-05,5e-05,0.0001,-0.00026,-0.00082,6,24
29708,-6e-05,-1e-05,0,-3e-05,5e-05,0.0001,-0.00026,-0.00082,6,24
29709,-6e-05,-1e-05,0,-3e-05,5e-05,0.0001,-0.00026,-0.00082,6,24
29710,-6e-05,-1e-05,0,-3e-05,5e-05,0.0001,-0.00026,-0.00082,6,24
29711,-6e-05,-1e-05,0,-3e-05,5e-05,0.0001,-0.00026,-0.00082,6,24
29712,-6e-05,-1e-05,0,-3e-05,5e-05,0.0001,-0.00026,-0.00082,6,24
29713,-6e-05,-1e-05,0,-3e-05,5e-05,0.0001,-0.00026,-0.00082,6,24
29714,-6e-05,-1e-05,0,-3e-05,5e-05,0.0001,-0.00026,-0.00082,6,24
29715,-6e-05,-1e-05,0,-3e-05,5e-05,0.0001,-0.00026,-0.00082,6,24
29716,-1e-05,2e-05,3e-05,-1e-05,8e-05,-4e-05,-0.0001,-2e-05,6,24
29717,-1e-05,2e-05,3e-05,-1e-05,8e-05,-4e-05,-0.0001,-2e-05,6,24
29718,-1e-05,2e-05,3e-05,-1e-05,8e-05,-4e-05,-0.0001,-2e-05,6,24
29719,-1e-05,2e-05,3e-05,-1e-05,8e-05,-4e-05,-0.0001,-2e-05,6,24
29720,-1e-05,2e-05,3e-05,-1e-05,8e-05,-4e-05,-0.0001,-2e-05,6,24
29721,-1e-05,2e-05,3e-05,-1e-05,8e-05,-4e-05,-0.0001,-2e-05,6,24
29722,-1e-05,2e-05,3e-05,-1e-05,8e-05,-4e-05,-0.0001,-2e-05,6,24
29723,-1e-05,2e-05,3e-05,-1e-05,8e-05,-4e-05,-0.0001,-2e-05,6,24
29724,-1e-05,2e-05,3e-05,-1e-05,8e-05,-4e-05,-0.0001,-2e-05,6,24
29725,3e-05,-1e-05,-1e-05,-1e-05,1e-05,-1e-05,-0.00018,0.00021,6,24
29726,3e-05,-1e-05,-1e-05,-1e-05,1e-05,-1e-05,-0.00018,0.00021,6,24
29727,3e-05,-1e-05,-1e-05,-1e-05,1e-05,-1e-05,-0.00018,0.00021,6,24
29728,3e-05,-1e-05,-1e-05,-1e-05,1e-05,-1e-05,-0.00018,0.00021,6,24
29729,3e-05,-1e-05,-1e-05,-1e-05,1e-05,-1e-05,-0.00018,0.00021,6,24
29730,3e-05,-1e-05,-1e-05,-1e-05,1e-05,-1e-05,-0.00018,0.00021,6,24
29731,3e-05,1e-05,-1e-05,-2e-05,-3e-05,4e-05,0.00013,-0.00015,6,24
29732,3e-05,1e-05,-1e-05,-2e-05,-3e-05,4e-05,0.00013,-0.00015,6,24
29733,3e-05,1e-05,-1e-05,-2e-05,-3e-05,4e-05,0.00013,-0.00015,6,24
29734,3e-05,1e-05,-1e-05,-2e-05,-3e-05,4e-05,0.00013,-0.00015,6,24
29735,3e-05,1e-05,-1e-05,-2e-05,-3e-05,4e-05,0.00013,-0.00015,6,24
29736,3e-05,1e-05,-1e-05,-2e-05,-3e-05,4e-05,0.00013,-0.00015,6,24
29738,3e-05,1e-05,-1e-05,-2e-05,-3e-05,4e-05,0.00013,-0.00015,6,24
29739,3e-05,1e-05,-1e-05,-2e-05,-3e-05,4e-05,0.00013,-0.00015,6,24
29740,-2e-05,1e-05,2e-05,-1e-05,-0.00014,-2e-05,9e-05,-0.00034,6,24
29741,-2e-05,1e-05,2e-05,-1e-05,-0.00014,-2e-05,9e-05,-0.00034,6,24
29742,-2e-05,1e-05,2e-05,-1e-05,-0.00014,-2e-05,9e-05,-0.00034,6,24
29743,-2e-05,1e-05,2e-05,-1e-05,-0.00014,-2e-05,9e-05,-0.00034,6,24
29744,-2e-05,1e-05,2e-05,-1e-05,-0.00014,-2e-05,9e-05,-0.00034,6,24
29745,-2e-05,1e-05,2e-05,-1e-05,-0.00014,-2e-05,9e-05,-0.00034,6,24
29746,-2e-05,1e-05,2e-05,-1e-05,-0.00014,-2e-05,9e-05,-0.00034,6,24
29747,-2e-05,1e-05,2e-05,-1e-05,-0.00014,-2e-05,9e-05,-0.00034,6,24
29748,-2e-05,1e-05,2e-05,-1e-05,-0.00014,-2e-05,9e-05,-0.00034,6,24
29749,-2e-05,1e-05,2e-05,-1e-05,-0.00014,-2e-05,9e-05,-0.00034,6,24
29750,-2e-05,1e-05,2e-05,-1e-05,-0.00014,-2e-05,9e-05,-0.00034,6,24
29751,-2e-05,1e-05,2e-05,-1e-05,-0.00014,-2e-05,9e-05,-0.00034,6,24
29752,-2e-05,1e-05,2e-05,-1e-05,-0.00014,-2e-05,9e-05,-0.00034,6,24
29753,-2e-05,1e-05,2e-05,-1e-05,-0.00014,-2e-05,9e-05,-0.00034,6,24
29754,-2e-05,1e-05,2e-05,-1e-05,-0.00014,-2e-05,9e-05,-0.00034,6,24
29755,1e-05,1e-05,2e-05,5e-05,0.00025,-4e-05,-0.00017,0.00013,6,24
29756,1e-05,1e-05,2e-05,5e-05,0.00025,-4e-05,-0.00017,0.00013,6,24
29757,-3e-05,-2e-05,-6e-05,-4e-05,6e-05,-1e-05,0.0001,5e-05,6,24
29758,-3e-05,-2e-05,-6e-05,-4e-05,6e-05,-1e-05,0.0001,5e-05,6,24
29759,-3e-05,-2e-05,-6e-05,-4e-05,6e-05,-1e-05,0.0001,5e-05,6,24
29760,-3e-05,-2e-05,-6e-05,-4e-05,6e-05,-1e-05,0.0001,5e-05,6,24
29761,-3e-05,-2e-05,-6e-05,-4e-05,6e-05,-1e-05,0.0001,5e-05,6,24
29762,-3e-05,-2e-05,-6e-05,-4e-05,6e-05,-1e-05,0.0001,5e-05,6,24
29763,-3e-05,-2e-05,-6e-05,-4e-05,6e-05,-1e-05,0.0001,5e-05,6,24
29764,-3e-05,-2e-05,-6e-05,-4e-05,6e-05,-1e-05,0.0001,5e-05,6,24
29765,-3e-05,-2e-05,-6e-05,-4e-05,6e-05,-1e-05,0.0001,5e-05,6,24
29766,-3e-05,-2e-05,-6e-05,-4e-05,6e-05,-1e-05,0.0001,5e-05,6,24
29767,-3e-05,-2e-05,-6e-05,-4e-05,6e-05,-1e-05,0.0001,5e-05,6,24
29768,-3e-05,-2e-05,-6e-05,-4e-05,6e-05,-1e-05,0.0001,5e-05,6,24
29769,-3e-05,-2e-05,-6e-05,-4e-05,6e-05,-1e-05,0.0001,5e-05,6,24
29770,-3e-05,-2e-05,-6e-05,-4e-05,6e-05,-1e-05,0.0001,5e-05,6,24
29771,-3e-05,-2e-05,-6e-05,-4e-05,6e-05,-1e-05,0.0001,5e-05,6,24
29772,-3e-05,-2e-05,-6e-05,-4e-05,6e-05,-1e-05,0.0001,5e-05,6,24
29773,-3e-05,-2e-05,-6e-05,-4e-05,6e-05,-1e-05,0.0001,5e-05,6,24
29774,-3e-05,-2e-05,-6e-05,-4e-05,6e-05,-1e-05,0.0001,5e-05,6,24
29775,-3e-05,-2e-05,-6e-05,-4e-05,6e-05,-1e-05,0.0001,5e-05,6,24
29776,-3e-05,-2e-05,-6e-05,-4e-05,6e-05,-1e-05,0.0001,5e-05,6,24
29777,-7e-05,-5e-05,-4e-05,-5e-05,-0.00011,-0.00011,0,-2e-05,6,24
29778,-7e-05,-5e-05,-4e-05,-5e-05,-0.00011,-0.00011,0,-2e-05,6,24
29779,1e-05,-3e-05,-2e-05,-2e-05,6e-05,5e-05,0.00011,0.00013,6,24
29780,1e-05,-3e-05,-2e-05,-2e-05,6e-05,5e-05,0.00011,0.00013,6,24
29781,1e-05,-3e-05,-2e-05,-2e-05,6e-05,5e-05,0.00011,0.00013,6,24
29782,1e-05,-3e-05,-2e-05,-2e-05,6e-05,5e-05,0.00011,0.00013,6,24
29783,1e-05,-3e-05,-2e-05,-2e-05,6e-05,5e-05,0.00011,0.00013,6,24
29784,1e-05,-3e-05,-2e-05,-2e-05,6e-05,5e-05,0.00011,0.00013,6,24
29785,1e-05,-3e-05,-2e-05,-2e-05,6e-05,5e-05,0.00011,0.00013,6,24
29786,1e-05,-3e-05,-2e-05,-2e-05,6e-05,5e-05,0.00011,0.00013,6,24
29788,1e-05,-3e-05,-2e-05,-2e-05,6e-05,5e-05,0.00011,0.00013,6,24
29789,1e-05,-3e-05,-2e-05,-2e-05,6e-05,5e-05,0.00011,0.00013,6,24
29790,1e-05,-3e-05,-2e-05,-2e-05,6e-05,5e-05,0.00011,0.00013,6,24
29791,7e-05,-1e-05,0,-3e-05,-8e-05,-3e-05,3e-05,4e-05,6,24
29792,7e-05,-1e-05,0,-3e-05,-8e-05,-3e-05,3e-05,4e-05,6,24
29793,7e-05,-1e-05,0,-3e-05,-8e-05,-3e-05,3e-05,4e-05,6,24
29794,7e-05,-1e-05,0,-3e-05,-8e-05,-3e-05,3e-05,4e-05,6,24
29795,7e-05,-1e-05,0,-3e-05,-8e-05,-3e-05,3e-05,4e-05,6,24
29796,7e-05,-1e-05,0,-3e-05,-8e-05,-3e-05,3e-05,4e-05,6,24
29797,7e-05,-1e-05,0,-3e-05,-8e-05,-3e-05,3e-05,4e-05,6,24
29798,7e-05,-1e-05,0,-3e-05,-8e-05,-3e-05,3e-05,4e-05,6,24
29799,7e-05,-1e-05,0,-3e-05,-8e-05,-3e-05,3e-05,4e-05,6,24
29800,-3e-05,-5e-05,-0.00011,2e-05,0.0001,-1e-05,4e-05,0.00019,6,24
29802,-3e-05,-5e-05,-0.00011,2e-05,0.0001,-1e-05,4e-05,0.00019,6,24
29803,-3e-05,-5e-05,-0.00011,2e-05,0.0001,-1e-05,4e-05,0.00019,6,24
29804,-3e-05,-5e-05,-0.00011,2e-05,0.0001,-1e-05,4e-05,0.00019,6,24
29805,-3e-05,-5e-05,-0.00011,2e-05,0.0001,-1e-05,4e-05,0.00019,6,24
29806,-3e-05,-5e-05,-0.00011,2e-05,0.0001,-1e-05,4e-05,0.00019,6,24
29807,-3e-05,-5e-05,-0.00011,2e-05,0.0001,-1e-05,4e-05,0.00019,6,24
29808,-3e-05,-5e-05,-0.00011,2e-05,0.0001,-1e-05,4e-05,0.00019,6,24
29809,-3e-05,-5e-05,-0.00011,2e-05,0.0001,-1e-05,4e-05,0.00019,6,24
29810,-3e-05,-5e-05,-0.00011,2e-05,0.0001,-1e-05,4e-05,0.00019,6,24
29811,-3e-05,-5e-05,-0.00011,2e-05,0.0001,-1e-05,4e-05,0.00019,6,24
29812,-3e-05,-5e-05,-0.00011,2e-05,0.0001,-1e-05,4e-05,0.00019,6,24
29813,-3e-05,-5e-05,-0.00011,2e-05,0.0001,-1e-05,4e-05,0.00019,6,24
29814,-3e-05,-5e-05,-0.00011,2e-05,0.0001,-1e-05,4e-05,0.00019,6,24
29815,0.00016,7e-05,6e-05,-3e-05,-0.0002,-0.00021,-3e-05,-0.0002,6,24
29816,-4e-05,1e-05,6e-05,3e-05,-1e-05,3e-05,4e-05,-0.0001,6,24
29817,-4e-05,1e-05,6e-05,3e-05,-1e-05,3e-05,4e-05,-0.0001,6,24
29818,-4e-05,1e-05,6e-05,3e-05,-1e-05,3e-05,4e-05,-0.0001,6,24
29819,-4e-05,1e-05,6e-05,3e-05,-1e-05,3e-05,4e-05,-0.0001,6,24
29820,-4e-05,1e-05,6e-05,3e-05,-1e-05,3e-05,4e-05,-0.0001,6,24
29821,-4e-05,1e-05,6e-05,3e-05,-1e-05,3e-05,4e-05,-0.0001,6,24
29822,-4e-05,1e-05,6e-05,3e-05,-1e-05,3e-05,4e-05,-0.0001,6,24
29823,-4e-05,1e-05,6e-05,3e-05,-1e-05,3e-05,4e-05,-0.0001,6,24
29824,-4e-05,1e-05,6e-05,3e-05,-1e-05,3e-05,4e-05,-0.0001,6,24
29825,-4e-05,1e-05,6e-05,3e-05,-1e-05,3e-05,4e-05,-0.0001,6,24
29826,-4e-05,1e-05,6e-05,3e-05,-1e-05,3e-05,4e-05,-0.0001,6,24
29827,-4e-05,1e-05,6e-05,3e-05,-1e-05,3e-05,4e-05,-0.0001,6,24
29828,-4e-05,1e-05,6e-05,3e-05,-1e-05,3e-05,4e-05,-0.0001,6,24
29829,-4e-05,1e-05,6e-05,3e-05,-1e-05,3e-05,4e-05,-0.0001,6,24
29830,-4e-05,1e-05,6e-05,3e-05,-1e-05,3e-05,4e-05,-0.0001,6,24
29831,-4e-05,1e-05,6e-05,3e-05,-1e-05,3e-05,4e-05,-0.0001,6,24
29832,-4e-05,1e-05,6e-05,3e-05,-1e-05,3e-05,4e-05,-0.0001,6,24
29833,-4e-05,1e-05,6e-05,3e-05,-1e-05,3e-05,4e-05,-0.0001,6,24
29834,-4e-05,1e-05,6e-05,3e-05,-1e-05,3e-05,4e-05,-0.0001,6,24
29835,-4e-05,1e-05,6e-05,3e-05,-1e-05,3e-05,4e-05,-0.0001,6,24
29836,-4e-05,1e-05,6e-05,3e-05,-1e-05,3e-05,4e-05,-0.0001,6,24
29838,-1e-05,3e-05,3e-05,0.00014,0.00062,8e-05,-8e-05,0.00019,6,24
29839,3e-05,-2e-05,-2e-05,-2e-05,-3e-05,2e-05,-5e-05,0.00018,6,24
29840,3e-05,-2e-05,-2e-05,-2e-05,-3e-05,2e-05,-5e-05,0.00018,6,24
29841,3e-05,-2e-05,-2e-05,-2e-05,-3e-05,2e-05,-5e-05,0.00018,6,24
29842,3e-05,-2e-05,-2e-05,-2e-05,-3e-05,2e-05,-5e-05,0.00018,6,24
29843,3e-05,-2e-05,-2e-05,-2e-05,-3e-05,2e-05,-5e-05,0.00018,6,24
29844,3e-05,-2e-05,-2e-05,-2e-05,-3e-05,2e-05,-5e-05,0.00018,6,24
29845,3e-05,-2e-05,-2e-05,-2e-05,-3e-05,2e-05,-5e-05,0.00018,6,24
29846,3e-05,-2e-05,-2e-05,-2e-05,-3e-05,2e-05,-5e-05,0.00018,6,24
29847,3e-05,-2e-05,-2e-05,-2e-05,-3e-05,2e-05,-5e-05,0.00018,6,24
29848,3e-05,-2e-05,-2e-05,-2e-05,-3e-05,2e-05,-5e-05,0.00018,6,24
29849,3e-05,-2e-05,-2e-05,-2e-05,-3e-05,2e-05,-5e-05,0.00018,6,24
29850,3e-05,-2e-05,-2e-05,-2e-05,-3e-05,2e-05,-5e-05,0.00018,6,24
29851,-3e-05,-7e-05,-3e-05,-8e-05,-0.0003,-2e-05,8e-05,-3e-05,6,24
29852,-3e-05,-7e-05,-3e-05,-8e-05,-0.0003,-2e-05,8e-05,-3e-05,6,24
29853,-3e-05,-7e-05,-3e-05,-8e-05,-0.0003,-2e-05,8e-05,-3e-05,6,24
29854,-3e-05,-7e-05,-3e-05,-8e-05,-0.0003,-2e-05,8e-05,-3e-05,6,24
29855,-3e-05,-7e-05,-3e-05,-8e-05,-0.0003,-2e-05,8e-05,-3e-05,6,24
29856,-3e-05,-7e-05,-3e-05,-8e-05,-0.0003,-2e-05,8e-05,-3e-05,6,24
29857,-3e-05,-7e-05,-3e-05,-8e-05,-0.0003,-2e-05,8e-05,-3e-05,6,24
29858,-3e-05,-7e-05,-3e-05,-8e-05,-0.0003,-2e-05,8e-05,-3e-05,6,24
29859,-3e-05,-7e-05,-3e-05,-8e-05,-0.0003,-2e-05,8e-05,-3e-05,6,24
29860,-3e-05,0,4e-05,-1e-05,-5e-05,-1e-05,-0.00012,0.00102,6,24
29861,-3e-05,0,4e-05,-1e-05,-5e-05,-1e-05,-0.00012,0.00102,6,24
29862,-3e-05,0,4e-05,-1e-05,-5e-05,-1e-05,-0.00012,0.00102,6,24
29863,-3e-05,0,4e-05,-1e-05,-5e-05,-1e-05,-0.00012,0.00102,6,24
29864,-3e-05,0,4e-05,-1e-05,-5e-05,-1e-05,-0.00012,0.00102,6,24
29865,-3e-05,0,4e-05,-1e-05,-5e-05,-1e-05,-0.00012,0.00102,6,24
29866,-3e-05,0,4e-05,-1e-05,-5e-05,-1e-05,-0.00012,0.00102,6,24
29867,-3e-05,0,4e-05,-1e-05,-5e-05,-1e-05,-0.00012,0.00102,6,24
29868,-3e-05,0,4e-05,-1e-05,-5e-05,-1e-05,-0.00012,0.00102,6,24
29869,-3e-05,0,4e-05,-1e-05,-5e-05,-1e-05,-0.00012,0.00102,6,24
29870,-3e-05,0,4e-05,-1e-05,-5e-05,-1e-05,-0.00012,0.00102,6,24
29871,-3e-05,0,4e-05,-1e-05,-5e-05,-1e-05,-0.00012,0.00102,6,24
29872,-3e-05,0,4e-05,-1e-05,-5e-05,-1e-05,-0.00012,0.00102,6,24
29873,-3e-05,0,4e-05,-1e-05,-5e-05,-1e-05,-0.00012,0.00102,6,24
29874,-3e-05,0,4e-05,-1e-05,-5e-05,-1e-05,-0.00012,0.00102,6,24
29875,0.00013,1e-05,-1e-05,-1e-05,-4e-05,9e-05,0.0002,0.00024,6,24
29876,4e-05,1e-05,-2e-05,-3e-05,2e-05,0,0.00013,-0.00035,6,24
29877,4e-05,1e-05,-2e-05,-3e-05,2e-05,0,0.00013,-0.00035,6,24
29878,4e-05,1e-05,-2e-05,-3e-05,2e-05,0,0.00013,-0.00035,6,24
29879,4e-05,1e-05,-2e-05,-3e-05,2e-05,0,0.00013,-0.00035,6,24
29880,4e-05,1e-05,-2e-05,-3e-05,2e-05,0,0.00013,-0.00035,6,24
29881,4e-05,1e-05,-2e-05,-3e-05,2e-05,0,0.00013,-0.00035,6,24
29882,4e-05,1e-05,-2e-05,-3e-05,2e-05,0,0.00013,-0.00035,6,24
29883,4e-05,1e-05,-2e-05,-3e-05,2e-05,0,0.00013,-0.00035,6,24
29884,4e-05,1e-05,-2e-05,-3e-05,2e-05,0,0.00013,-0.00035,6,24
29885,4e-05,1e-05,-2e-05,-3e-05,2e-05,0,0.00013,-0.00035,6,24
29886,4e-05,1e-05,-2e-05,-3e-05,2e-05,0,0.00013,-0.00035,6,24
29888,4e-05,1e-05,-2e-05,-3e-05,2e-05,0,0.00013,-0.00035,6,24
29889,4e-05,1e-05,-2e-05,-3e-05,2e-05,0,0.00013,-0.00035,6,24
29890,4e-05,1e-05,-2e-05,-3e-05,2e-05,0,0.00013,-0.00035,6,24
29891,4e-05,1e-05,-2e-05,-3e-05,2e-05,0,0.00013,-0.00035,6,24
29892,4e-05,1e-05,-2e-05,-3e-05,2e-05,0,0.00013,-0.00035,6,24
29893,4e-05,1e-05,-2e-05,-3e-05,2e-05,0,0.00013,-0.00035,6,24
29894,4e-05,1e-05,-2e-05,-3e-05,2e-05,0,0.00013,-0.00035,6,24
29895,4e-05,1e-05,-2e-05,-3e-05,2e-05,0,0.00013,-0.00035,6,24
29896,4e-05,1e-05,-2e-05,-3e-05,2e-05,0,0.00013,-0.00035,6,24
29897,-7e-05,-4e-05,-3e-05,-4e-05,-7e-05,5e-05,-5e-05,-0.0002,6,24
29898,-7e-05,-4e-05,-3e-05,-4e-05,-7e-05,5e-05,-5e-05,-0.0002,6,24
29899,-0.00012,-3e-05,-4e-05,-1e-05,-6e-05,-0.00012,4e-05,-0.00045,6,24
29900,-0.00012,-3e-05,-4e-05,-1e-05,-6e-05,-0.00012,4e-05,-0.00045,6,24
29901,-0.00012,-3e-05,-4e-05,-1e-05,-6e-05,-0.00012,4e-05,-0.00045,6,24
29902,-0.00012,-3e-05,-4e-05,-1e-05,-6e-05,-0.00012,4e-05,-0.00045,6,24
29903,-0.00012,-3e-05,-4e-05,-1e-05,-6e-05,-0.00012,4e-05,-0.00045,6,24
29905,-0.00012,-3e-05,-4e-05,-1e-05,-6e-05,-0.00012,4e-05,-0.00045,6,24
29906,-0.00012,-3e-05,-4e-05,-1e-05,-6e-05,-0.00012,4e-05,-0.00045,6,24
29907,-0.00012,-3e-05,-4e-05,-1e-05,-6e-05,-0.00012,4e-05,-0.00045,6,24
29908,-0.00012,-3e-05,-4e-05,-1e-05,-6e-05,-0.00012,4e-05,-0.00045,6,24
29909,-0.00012,-3e-05,-4e-05,-1e-05,-6e-05,-0.00012,4e-05,-0.00045,6,24
29910,-0.00012,-3e-05,-4e-05,-1e-05,-6e-05,-0.00012,4e-05,-0.00045,6,24
29911,-0.00012,-3e-05,-4e-05,-1e-05,-6e-05,-0.00012,4e-05,-0.00045,6,24
29912,-0.00012,-3e-05,-4e-05,-1e-05,-6e-05,-0.00012,4e-05,-0.00045,6,24
29913,-0.00012,-3e-05,-4e-05,-1e-05,-6e-05,-0.00012,4e-05,-0.00045,6,24
29914,-0.00012,-3e-05,-4e-05,-1e-05,-6e-05,-0.00012,4e-05,-0.00045,6,24
29915,-0.00012,-3e-05,-4e-05,-1e-05,-6e-05,-0.00012,4e-05,-0.00045,6,24
29916,-0.00012,-3e-05,-4e-05,-1e-05,-6e-05,-0.00012,4e-05,-0.00045,6,24
29917,-0.00012,-3e-05,-4e-05,-1e-05,-6e-05,-0.00012,4e-05,-0.00045,6,24
29918,-0.00012,-3e-05,-4e-05,-1e-05,-6e-05,-0.00012,4e-05,-0.00045,6,24
29919,-5e-05,0,0,2e-05,6e-05,-0.00013,-0.00011,-0.0002,6,24
29920,-5e-05,0,5e-05,-1e-05,4e-05,-7e-05,-9e-05,-0.00016,6,24
29921,-5e-05,0,5e-05,-1e-05,4e-05,-7e-05,-9e-05,-0.00016,6,24
29922,-5e-05,0,5e-05,-1e-05,4e-05,-7e-05,-9e-05,-0.00016,6,24
29923,-5e-05,0,5e-05,-1e-05,4e-05,-7e-05,-9e-05,-0.00016,6,24
29924,-5e-05,0,5e-05,-1e-05,4e-05,-7e-05,-9e-05,-0.00016,6,24
29925,-5e-05,0,5e-05,-1e-05,4e-05,-7e-05,-9e-05,-0.00016,6,24
29926,-5e-05,0,5e-05,-1e-05,4e-05,-7e-05,-9e-05,-0.00016,6,24
29927,-5e-05,0,5e-05,-1e-05,4e-05,-7e-05,-9e-05,-0.00016,6,24
29928,-5e-05,0,5e-05,-1e-05,4e-05,-7e-05,-9e-05,-0.00016,6,24
29929,-5e-05,0,5e-05,-1e-05,4e-05,-7e-05,-9e-05,-0.00016,6,24
29930,-5e-05,0,5e-05,-1e-05,4e-05,-7e-05,-9e-05,-0.00016,6,24
29931,-5e-05,0,5e-05,-1e-05,4e-05,-7e-05,-9e-05,-0.00016,6,24
29932,-5e-05,0,5e-05,-1e-05,4e-05,-7e-05,-9e-05,-0.00016,6,24
29933,-5e-05,0,5e-05,-1e-05,4e-05,-7e-05,-9e-05,-0.00016,6,24
29934,-4e-05,-3e-05,-3e-05,-5e-05,-4e-05,2e-05,1e-05,-0.00014,6,24
29935,0,1e-05,3e-05,1e-05,-1e-05,-3e-05,-5e-05,-5e-05,6,24
29936,0,1e-05,3e-05,1e-05,-1e-05,-3e-05,-5e-05,-5e-05,6,24
29938,0,1e-05,3e-05,1e-05,-1e-05,-3e-05,-5e-05,-5e-05,6,24
29939,0,1e-05,3e-05,1e-05,-1e-05,-3e-05,-5e-05,-5e-05,6,24
29940,0,1e-05,3e-05,1e-05,-1e-05,-3e-05,-5e-05,-5e-05,6,24
29941,0,1e-05,3e-05,1e-05,-1e-05,-3e-05,-5e-05,-5e-05,6,24
29942,0,1e-05,3e-05,1e-05,-1e-05,-3e-05,-5e-05,-5e-05,6,24
29943,0,1e-05,3e-05,1e-05,-1e-05,-3e-05,-5e-05,-5e-05,6,24
29944,0,1e-05,3e-05,1e-05,-1e-05,-3e-05,-5e-05,-5e-05,6,24
29945,0,1e-05,3e-05,1e-05,-1e-05,-3e-05,-5e-05,-5e-05,6,24
29946,0,1e-05,3e-05,1e-05,-1e-05,-3e-05,-5e-05,-5e-05,6,24
29947,0,1e-05,3e-05,1e-05,-1e-05,-3e-05,-5e-05,-5e-05,6,24
29948,0,1e-05,3e-05,1e-05,-1e-05,-3e-05,-5e-05,-5e-05,6,24
29949,0,1e-05,3e-05,1e-05,-1e-05,-3e-05,-5e-05,-5e-05,6,24
29950,0,1e-05,3e-05,1e-05,-1e-05,-3e-05,-5e-05,-5e-05,6,24
29951,0,1e-05,3e-05,1e-05,-1e-05,-3e-05,-5e-05,-5e-05,6,24
29952,0,1e-05,3e-05,1e-05,-1e-05,-3e-05,-5e-05,-5e-05,6,24
29953,0,1e-05,3e-05,1e-05,-1e-05,-3e-05,-5e-05,-5e-05,6,24
29954,0,1e-05,3e-05,1e-05,-1e-05,-3e-05,-5e-05,-5e-05,6,24
29955,0,1e-05,3e-05,1e-05,-1e-05,-3e-05,-5e-05,-5e-05,6,24
29956,0,1e-05,3e-05,1e-05,-1e-05,-3e-05,-5e-05,-5e-05,6,24
29957,7e-05,6e-05,2e-05,0.00011,0.00018,-8e-05,0.00018,-5e-05,6,24
29958,7e-05,6e-05,2e-05,0.00011,0.00018,-8e-05,0.00018,-5e-05,6,24
29959,7e-05,6e-05,2e-05,0.00011,0.00018,-8e-05,0.00018,-5e-05,6,24
29960,7e-05,6e-05,2e-05,0.00011,0.00018,-8e-05,0.00018,-5e-05,6,24
29961,7e-05,6e-05,2e-05,0.00011,0.00018,-8e-05,0.00018,-5e-05,6,24
29962,7e-05,6e-05,2e-05,0.00011,0.00018,-8e-05,0.00018,-5e-05,6,24
29963,7e-05,6e-05,2e-05,0.00011,0.00018,-8e-05,0.00018,-5e-05,6,24
29964,7e-05,6e-05,2e-05,0.00011,0.00018,-8e-05,0.00018,-5e-05,6,24
29965,7e-05,6e-05,2e-05,0.00011,0.00018,-8e-05,0.00018,-5e-05,6,24
29966,7e-05,6e-05,2e-05,0.00011,0.00018,-8e-05,0.00018,-5e-05,6,24
29967,7e-05,6e-05,2e-05,0.00011,0.00018,-8e-05,0.00018,-5e-05,6,24
29968,7e-05,6e-05,2e-05,0.00011,0.00018,-8e-05,0.00018,-5e-05,6,24
29969,7e-05,6e-05,2e-05,0.00011,0.00018,-8e-05,0.00018,-5e-05,6,24
29970,7e-05,6e-05,2e-05,0.00011,0.00018,-8e-05,0.00018,-5e-05,6,24
29971,7e-05,6e-05,2e-05,0.00011,0.00018,-8e-05,0.00018,-5e-05,6,24
29972,7e-05,6e-05,2e-05,0.00011,0.00018,-8e-05,0.00018,-5e-05,6,24
29973,7e-05,6e-05,2e-05,0.00011,0.00018,-8e-05,0.00018,-5e-05,6,24
29974,7e-05,6e-05,2e-05,0.00011,0.00018,-8e-05,0.00018,-5e-05,6,24
29975,7e-05,6e-05,2e-05,0.00011,0.00018,-8e-05,0.00018,-5e-05,6,24
29976,7e-05,6e-05,2e-05,0.00011,0.00018,-8e-05,0.00018,-5e-05,6,24
29977,7e-05,6e-05,2e-05,0.00011,0.00018,-8e-05,0.00018,-5e-05,6,24
29978,7e-05,6e-05,2e-05,0.00011,0.00018,-8e-05,0.00018,-5e-05,6,24
29979,-6e-05,3e-05,-1e-05,9e-05,0.00025,6e-05,-7e-05,1e-05,6,24
29980,-8e-05,-3e-05,-3e-05,-8e-05,-0.00013,0.0001,-4e-05,5e-05,6,24
29981,-8e-05,-3e-05,-3e-05,-8e-05,-0.00013,0.0001,-4e-05,5e-05,6,24
29982,-8e-05,-3e-05,-3e-05,-8e-05,-0.00013,0.0001,-4e-05,5e-05,6,24
29983,-8e-05,-3e-05,-3e-05,-8e-05,-0.00013,0.0001,-4e-05,5e-05,6,24
29984,-8e-05,-3e-05,-3e-05,-8e-05,-0.00013,0.0001,-4e-05,5e-05,6,24
29985,-8e-05,-3e-05,-3e-05,-8e-05,-0.00013,0.0001,-4e-05,5e-05,6,24
29987,-8e-05,-3e-05,-3e-05,-8e-05,-0.00013,0.0001,-4e-05,5e-05,6,24
29989,-8e-05,-3e-05,-3e-05,-8e-05,-0.00013,0.0001,-4e-05,5e-05,6,24
29990,-8e-05,-3e-05,-3e-05,-8e-05,-0.00013,0.0001,-4e-05,5e-05,6,24
29991,-8e-05,-3e-05,-3e-05,-8e-05,-0.00013,0.0001,-4e-05,5e-05,6,24
29992,-8e-05,-3e-05,-3e-05,-8e-05,-0.00013,0.0001,-4e-05,5e-05,6,24
29993,-8e-05,-3e-05,-3e-05,-8e-05,-0.00013,0.0001,-4e-05,5e-05,6,24
29994,2e-05,-2e-05,-2e-05,-4e-05,-1e-05,-6e-05,0,0.00018,6,24
29995,2e-05,-2e-05,-3e-05,-3e-05,1e-05,-5e-05,-4e-05,0.00015,6,24
29996,2e-05,-2e-05,-3e-05,-3e-05,1e-05,-5e-05,-4e-05,0.00015,6,24
29997,2e-05,-2e-05,-3e-05,-3e-05,1e-05,-5e-05,-4e-05,0.00015,6,24
29998,2e-05,-2e-05,-3e-05,-3e-05,1e-05,-5e-05,-4e-05,0.00015,6,24
29999,2e-05,-2e-05,-3e-05,-3e-05,1e-05,-5e-05,-4e-05,0.00015,6,24
30000,2e-05,-2e-05,-3e-05,-3e-05,1e-05,-5e-05,-4e-05,0.00015,6,24
30001,2e-05,-2e-05,-3e-05,-3e-05,1e-05,-5e-05,-4e-05,0.00015,6,24
30002,2e-05,-2e-05,-3e-05,-3e-05,1e-05,-5e-05,-4e-05,0.00015,6,24
30003,2e-05,-2e-05,-3e-05,-3e-05,1e-05,-5e-05,-4e-05,0.00015,6,24
30004,2e-05,-2e-05,-3e-05,-3e-05,1e-05,-5e-05,-4e-05,0.00015,6,24
30005,2e-05,-2e-05,-3e-05,-3e-05,1e-05,-5e-05,-4e-05,0.00015,6,24
30006,2e-05,-2e-05,-3e-05,-3e-05,1e-05,-5e-05,-4e-05,0.00015,6,24
30007,2e-05,-2e-05,-3e-05,-3e-05,1e-05,-5e-05,-4e-05,0.00015,6,24
30008,2e-05,-2e-05,-3e-05,-3e-05,1e-05,-5e-05,-4e-05,0.00015,6,24
30009,2e-05,-2e-05,-3e-05,-3e-05,1e-05,-5e-05,-4e-05,0.00015,6,24
30010,2e-05,-2e-05,-3e-05,-3e-05,1e-05,-5e-05,-4e-05,0.00015,6,24
30011,2e-05,-2e-05,-3e-05,-3e-05,1e-05,-5e-05,-4e-05,0.00015,6,24
30012,2e-05,-2e-05,-3e-05,-3e-05,1e-05,-5e-05,-4e-05,0.00015,6,24
30013,2e-05,-2e-05,-3e-05,-3e-05,1e-05,-5e-05,-4e-05,0.00015,6,24
30014,2e-05,-2e-05,-3e-05,-3e-05,1e-05,-5e-05,-4e-05,0.00015,6,24
30015,2e-05,-2e-05,-3e-05,-3e-05,1e-05,-5e-05,-4e-05,0.00015,6,24
30016,2e-05,-2e-05,-3e-05,-3e-05,1e-05,-5e-05,-4e-05,0.00015,6,24
30017,0,4e-05,4e-05,0.0001,0.00035,0.00011,-9e-05,-0.00087,6,24
30018,0,4e-05,4e-05,0.0001,0.00035,0.00011,-9e-05,-0.00087,6,24
30019,0,4e-05,4e-05,0.0001,0.00035,0.00011,-9e-05,-0.00087,6,24
30020,0,4e-05,4e-05,0.0001,0.00035,0.00011,-9e-05,-0.00087,6,24
30021,0,4e-05,4e-05,0.0001,0.00035,0.00011,-9e-05,-0.00087,6,24
30022,0,4e-05,4e-05,0.0001,0.00035,0.00011,-9e-05,-0.00087,6,24
30023,0,4e-05,4e-05,0.0001,0.00035,0.00011,-9e-05,-0.00087,6,24
30025,0,4e-05,4e-05,0.0001,0.00035,0.00011,-9e-05,-0.00087,6,24
30026,0,4e-05,4e-05,0.0001,0.00035,0.00011,-9e-05,-0.00087,6,24
30027,0,4e-05,4e-05,0.0001,0.00035,0.00011,-9e-05,-0.00087,6,24
30028,0,4e-05,4e-05,0.0001,0.00035,0.00011,-9e-05,-0.00087,6,24
30029,0,4e-05,4e-05,0.0001,0.00035,0.00011,-9e-05,-0.00087,6,24
30030,0,4e-05,4e-05,0.0001,0.00035,0.00011,-9e-05,-0.00087,6,24
30031,0,4e-05,4e-05,0.0001,0.00035,0.00011,-9e-05,-0.00087,6,24
30032,0,4e-05,4e-05,0.0001,0.00035,0.00011,-9e-05,-0.00087,6,24
30033,0,4e-05,4e-05,0.0001,0.00035,0.00011,-9e-05,-0.00087,6,24
30034,0,4e-05,4e-05,0.0001,0.00035,0.00011,-9e-05,-0.00087,6,24
30035,0,4e-05,4e-05,0.0001,0.00035,0.00011,-9e-05,-0.00087,6,24
30043,0,4e-05,4e-05,0.0001,0.00035,0.00011,-9e-05,-0.00087,6,24
30044,-4e-05,0,1e-05,-2e-05,-8e-05,2e-05,-3e-05,-0.00011,6,24
30045,4e-05,1e-05,0,-1e-05,-4e-05,-0.0001,-4e-05,8e-05,6,24
30046,4e-05,1e-05,0,-1e-05,-4e-05,-0.0001,-4e-05,8e-05,6,24
30047,4e-05,1e-05,0,-1e-05,-4e-05,-0.0001,-4e-05,8e-05,6,24
30048,4e-05,1e-05,0,-1e-05,-4e-05,-0.0001,-4e-05,8e-05,6,24
30049,4e-05,1e-05,0,-1e-05,-4e-05,-0.0001,-4e-05,8e-05,6,24
30050,4e-05,1e-05,0,-1e-05,-4e-05,-0.0001,-4e-05,8e-05,6,24
30051,4e-05,1e-05,0,-1e-05,-4e-05,-0.0001,-4e-05,8e-05,6,24
30052,4e-05,1e-05,0,-1e-05,-4e-05,-0.0001,-4e-05,8e-05,6,24
30053,4e-05,1e-05,0,-1e-05,-4e-05,-0.0001,-4e-05,8e-05,6,24
30054,-0.00018,-4e-05,-3e-05,-3e-05,-0.00014,-0.00012,-0.00017,0.00019,6,24
30055,1e-05,-4e-05,0,-1e-05,-5e-05,1e-05,-5e-05,0.00024,6,24
30056,1e-05,-4e-05,0,-1e-05,-5e-05,1e-05,-5e-05,0.00024,6,24
30057,1e-05,-4e-05,0,-1e-05,-5e-05,1e-05,-5e-05,0.00024,6,24
30058,1e-05,-4e-05,0,-1e-05,-5e-05,1e-05,-5e-05,0.00024,6,24
30059,1e-05,-4e-05,0,-1e-05,-5e-05,1e-05,-5e-05,0.00024,6,24
30060,1e-05,-4e-05,0,-1e-05,-5e-05,1e-05,-5e-05,0.00024,6,24
30061,1e-05,-4e-05,0,-1e-05,-5e-05,1e-05,-5e-05,0.00024,6,24
30062,1e-05,-4e-05,0,-1e-05,-5e-05,1e-05,-5e-05,0.00024,6,24
30063,1e-05,-4e-05,0,-1e-05,-5e-05,1e-05,-5e-05,0.00024,6,24
30064,1e-05,-4e-05,0,-1e-05,-5e-05,1e-05,-5e-05,0.00024,6,24
30065,1e-05,-4e-05,0,-1e-05,-5e-05,1e-05,-5e-05,0.00024,6,24
30066,1e-05,-4e-05,0,-1e-05,-5e-05,1e-05,-5e-05,0.00024,6,24
30067,1e-05,-4e-05,0,-1e-05,-5e-05,1e-05,-5e-05,0.00024,6,24
30068,1e-05,-4e-05,0,-1e-05,-5e-05,1e-05,-5e-05,0.00024,6,24
30069,1e-05,-4e-05,0,-1e-05,-5e-05,1e-05,-5e-05,0.00024,6,24
30070,1e-05,-4e-05,0,-1e-05,-5e-05,1e-05,-5e-05,0.00024,6,24
30071,1e-05,-4e-05,0,-1e-05,-5e-05,1e-05,-5e-05,0.00024,6,24
30072,1e-05,-4e-05,0,-1e-05,-5e-05,1e-05,-5e-05,0.00024,6,24
30073,1e-05,-4e-05,0,-1e-05,-5e-05,1e-05,-5e-05,0.00024,6,24
30074,1e-05,-4e-05,0,-1e-05,-5e-05,1e-05,-5e-05,0.00024,6,24
30075,1e-05,-4e-05,0,-1e-05,-5e-05,1e-05,-5e-05,0.00024,6,24
30076,1e-05,-4e-05,0,-1e-05,-5e-05,1e-05,-5e-05,0.00024,6,24
30077,-5e-05,-2e-05,-3e-05,-2e-05,0.00011,2e-05,-4e-05,-0.00062,6,24
30078,-5e-05,-2e-05,-3e-05,-2e-05,0.00011,2e-05,-4e-05,-0.00062,6,24
30079,-5e-05,-2e-05,-3e-05,-2e-05,0.00011,2e-05,-4e-05,-0.00062,6,24
30080,-5e-05,-2e-05,-3e-05,-2e-05,0.00011,2e-05,-4e-05,-0.00062,6,24
30081,-5e-05,-2e-05,-3e-05,-2e-05,0.00011,2e-05,-4e-05,-0.00062,6,24
30082,-5e-05,-2e-05,-3e-05,-2e-05,0.00011,2e-05,-4e-05,-0.00062,6,24
30083,-5e-05,-2e-05,-3e-05,-2e-05,0.00011,2e-05,-4e-05,-0.00062,6,24
30084,-5e-05,-2e-05,-3e-05,-2e-05,0.00011,2e-05,-4e-05,-0.00062,6,24
30085,-5e-05,-2e-05,-3e-05,-2e-05,0.00011,2e-05,-4e-05,-0.00062,6,24
30086,-5e-05,-2e-05,-3e-05,-2e-05,0.00011,2e-05,-4e-05,-0.00062,6,24
30088,-5e-05,-2e-05,-3e-05,-2e-05,0.00011,2e-05,-4e-05,-0.00062,6,24
30089,-5e-05,-2e-05,-3e-05,-2e-05,0.00011,2e-05,-4e-05,-0.00062,6,24
30090,-5e-05,-2e-05,-3e-05,-2e-05,0.00011,2e-05,-4e-05,-0.00062,6,24
30091,-5e-05,-2e-05,-3e-05,-2e-05,0.00011,2e-05,-4e-05,-0.00062,6,24
30092,-5e-05,-2e-05,-3e-05,-2e-05,0.00011,2e-05,-4e-05,-0.00062,6,24
30093,-5e-05,-2e-05,-3e-05,-2e-05,0.00011,2e-05,-4e-05,-0.00062,6,24
30094,-5e-05,-2e-05,-3e-05,-2e-05,0.00011,2e-05,-4e-05,-0.00062,6,24
30095,-5e-05,-2e-05,-3e-05,-2e-05,0.00011,2e-05,-4e-05,-0.00062,6,24
30096,-5e-05,-2e-05,-3e-05,-2e-05,0.00011,2e-05,-4e-05,-0.00062,6,24
30097,-5e-05,-2e-05,-3e-05,-2e-05,0.00011,2e-05,-4e-05,-0.00062,6,24
30098,-5e-05,-2e-05,-3e-05,-2e-05,0.00011,2e-05,-4e-05,-0.00062,6,24
30099,5e-05,9e-05,4e-05,3e-05,0.00021,2e-05,7e-05,-0.00021,6,24
30100,8e-05,2e-05,-2e-05,-1e-05,-0.00013,0.0001,3e-05,0.00021,6,24
30101,8e-05,2e-05,-2e-05,-1e-05,-0.00013,0.0001,3e-05,0.00021,6,24
30102,8e-05,2e-05,-2e-05,-1e-05,-0.00013,0.0001,3e-05,0.00021,6,24
30103,8e-05,2e-05,-2e-05,-1e-05,-0.00013,0.0001,3e-05,0.00021,6,24
30104,8e-05,2e-05,-2e-05,-1e-05,-0.00013,0.0001,3e-05,0.00021,6,24
30105,8e-05,2e-05,-2e-05,-1e-05,-0.00013,0.0001,3e-05,0.00021,6,24
30106,8e-05,2e-05,-2e-05,-1e-05,-0.00013,0.0001,3e-05,0.00021,6,24
30107,8e-05,2e-05,-2e-05,-1e-05,-0.00013,0.0001,3e-05,0.00021,6,24
30108,8e-05,2e-05,-2e-05,-1e-05,-0.00013,0.0001,3e-05,0.00021,6,24
30109,8e-05,2e-05,-2e-05,-1e-05,-0.00013,0.0001,3e-05,0.00021,6,24
30110,8e-05,2e-05,-2e-05,-1e-05,-0.00013,0.0001,3e-05,0.00021,6,24
30111,8e-05,2e-05,-2e-05,-1e-05,-0.00013,0.0001,3e-05,0.00021,6,24
30112,8e-05,2e-05,-2e-05,-1e-05,-0.00013,0.0001,3e-05,0.00021,6,24
30113,8e-05,2e-05,-2e-05,-1e-05,-0.00013,0.0001,3e-05,0.00021,6,24
30114,-6e-05,-4e-05,-1e-05,-2e-05,-1e-05,3e-05,0.00021,2e-05,6,24
30115,7e-05,0,4e-05,-6e-05,-0.00014,-0.00014,-0.00019,3e-05,6,24
30116,7e-05,0,4e-05,-6e-05,-0.00014,-0.00014,-0.00019,3e-05,6,24
30117,7e-05,0,4e-05,-6e-05,-0.00014,-0.00014,-0.00019,3e-05,6,24
30118,7e-05,0,4e-05,-6e-05,-0.00014,-0.00014,-0.00019,3e-05,6,24
30119,7e-05,0,4e-05,-6e-05,-0.00014,-0.00014,-0.00019,3e-05,6,24
30120,7e-05,0,4e-05,-6e-05,-0.00014,-0.00014,-0.00019,3e-05,6,24
30121,7e-05,0,4e-05,-6e-05,-0.00014,-0.00014,-0.00019,3e-05,6,24
30122,7e-05,0,4e-05,-6e-05,-0.00014,-0.00014,-0.00019,3e-05,6,24
30123,7e-05,0,4e-05,-6e-05,-0.00014,-0.00014,-0.00019,3e-05,6,24
30124,7e-05,0,4e-05,-6e-05,-0.00014,-0.00014,-0.00019,3e-05,6,24
30125,7e-05,0,4e-05,-6e-05,-0.00014,-0.00014,-0.00019,3e-05,6,24
30126,7e-05,0,4e-05,-6e-05,-0.00014,-0.00014,-0.00019,3e-05,6,24
30127,7e-05,0,4e-05,-6e-05,-0.00014,-0.00014,-0.00019,3e-05,6,24
30128,7e-05,0,4e-05,-6e-05,-0.00014,-0.00014,-0.00019,3e-05,6,24
30129,7e-05,0,4e-05,-6e-05,-0.00014,-0.00014,-0.00019,3e-05,6,24
30130,7e-05,0,4e-05,-6e-05,-0.00014,-0.00014,-0.00019,3e-05,6,24
30131,7e-05,0,4e-05,-6e-05,-0.00014,-0.00014,-0.00019,3e-05,6,24
30132,7e-05,0,4e-05,-6e-05,-0.00014,-0.00014,-0.00019,3e-05,6,24
30133,7e-05,0,4e-05,-6e-05,-0.00014,-0.00014,-0.00019,3e-05,6,24
30134,7e-05,0,4e-05,-6e-05,-0.00014,-0.00014,-0.00019,3e-05,6,24
30135,7e-05,0,4e-05,-6e-05,-0.00014,-0.00014,-0.00019,3e-05,6,24
30136,7e-05,0,4e-05,-6e-05,-0.00014,-0.00014,-0.00019,3e-05,6,24
30138,-8e-05,-5e-05,-2e-05,-2e-05,0.00019,2e-05,2e-05,0.00014,6,24
30139,-8e-05,-5e-05,-2e-05,-2e-05,0.00019,2e-05,2e-05,0.00014,6,24
30140,-8e-05,-5e-05,-2e-05,-2e-05,0.00019,2e-05,2e-05,0.00014,6,24
30141,-8e-05,-5e-05,-2e-05,-2e-05,0.00019,2e-05,2e-05,0.00014,6,24
30142,-8e-05,-5e-05,-2e-05,-2e-05,0.00019,2e-05,2e-05,0.00014,6,24
30143,-8e-05,-5e-05,-2e-05,-2e-05,0.00019,2e-05,2e-05,0.00014,6,24
30145,-8e-05,-5e-05,-2e-05,-2e-05,0.00019,2e-05,2e-05,0.00014,6,24
30146,-8e-05,-5e-05,-2e-05,-2e-05,0.00019,2e-05,2e-05,0.00014,6,24
30147,-8e-05,-5e-05,-2e-05,-2e-05,0.00019,2e-05,2e-05,0.00014,6,24
30148,-8e-05,-5e-05,-2e-05,-2e-05,0.00019,2e-05,2e-05,0.00014,6,24
30149,-8e-05,-5e-05,-2e-05,-2e-05,0.00019,2e-05,2e-05,0.00014,6,24
30150,-8e-05,-5e-05,-2e-05,-2e-05,0.00019,2e-05,2e-05,0.00014,6,24
30151,-8e-05,-5e-05,-2e-05,-2e-05,0.00019,2e-05,2e-05,0.00014,6,24
30152,-8e-05,-5e-05,-2e-05,-2e-05,0.00019,2e-05,2e-05,0.00014,6,24
30153,-8e-05,-5e-05,-2e-05,-2e-05,0.00019,2e-05,2e-05,0.00014,6,24
30154,-8e-05,-5e-05,-2e-05,-2e-05,0.00019,2e-05,2e-05,0.00014,6,24
30155,-8e-05,-5e-05,-2e-05,-2e-05,0.00019,2e-05,2e-05,0.00014,6,24
30156,-8e-05,-5e-05,-2e-05,-2e-05,0.00019,2e-05,2e-05,0.00014,6,24
30157,-8e-05,-5e-05,-2e-05,-2e-05,0.00019,2e-05,2e-05,0.00014,6,24
30158,-8e-05,-5e-05,-2e-05,-2e-05,0.00019,2e-05,2e-05,0.00014,6,24
30159,0.00015,4e-05,0,-1e-05,-1e-05,0,0,8e-05,6,24
30160,-5e-05,-2e-05,-4e-05,-3e-05,-0.00025,0,0.0001,0.00089,6,24
30161,-5e-05,-2e-05,-4e-05,-3e-05,-0.00025,0,0.0001,0.00089,6,24
30162,-5e-05,-2e-05,-4e-05,-3e-05,-0.00025,0,0.0001,0.00089,6,24
30163,-5e-05,-2e-05,-4e-05,-3e-05,-0.00025,0,0.0001,0.00089,6,24
30164,-5e-05,-2e-05,-4e-05,-3e-05,-0.00025,0,0.0001,0.00089,6,24
30165,-5e-05,-2e-05,-4e-05,-3e-05,-0.00025,0,0.0001,0.00089,6,24
30166,-5e-05,-2e-05,-4e-05,-3e-05,-0.00025,0,0.0001,0.00089,6,24
30167,-5e-05,-2e-05,-4e-05,-3e-05,-0.00025,0,0.0001,0.00089,6,24
30168,-5e-05,-2e-05,-4e-05,-3e-05,-0.00025,0,0.0001,0.00089,6,24
30169,-5e-05,-2e-05,-4e-05,-3e-05,-0.00025,0,0.0001,0.00089,6,24
30170,-5e-05,-2e-05,-4e-05,-3e-05,-0.00025,0,0.0001,0.00089,6,24
30171,-5e-05,-2e-05,-4e-05,-3e-05,-0.00025,0,0.0001,0.00089,6,24
30172,-5e-05,-2e-05,-4e-05,-3e-05,-0.00025,0,0.0001,0.00089,6,24
30173,-5e-05,-2e-05,-4e-05,-3e-05,-0.00025,0,0.0001,0.00089,6,24
30174,8e-05,-2e-05,-3e-05,-6e-05,0.00021,6e-05,-3e-05,-5e-05,6,24
30175,8e-05,-2e-05,-3e-05,-6e-05,0.00021,6e-05,-3e-05,-5e-05,6,24
30176,0,-1e-05,-1e-05,1e-05,-0.00013,-0.00014,0.00016,0.00012,6,24
30177,0,-1e-05,-1e-05,1e-05,-0.00013,-0.00014,0.00016,0.00012,6,24
30178,0,-1e-05,-1e-05,1e-05,-0.00013,-0.00014,0.00016,0.00012,6,24
30179,0,-1e-05,-1e-05,1e-05,-0.00013,-0.00014,0.00016,0.00012,6,24
30180,0,-1e-05,-1e-05,1e-05,-0.00013,-0.00014,0.00016,0.00012,6,24
30181,0,-1e-05,-1e-05,1e-05,-0.00013,-0.00014,0.00016,0.00012,6,24
30182,0,-1e-05,-1e-05,1e-05,-0.00013,-0.00014,0.00016,0.00012,6,24
30183,0,-1e-05,-1e-05,1e-05,-0.00013,-0.00014,0.00016,0.00012,6,24
30184,0,-1e-05,-1e-05,1e-05,-0.00013,-0.00014,0.00016,0.00012,6,24
30185,0,-1e-05,-1e-05,1e-05,-0.00013,-0.00014,0.00016,0.00012,6,24
30186,0,-1e-05,-1e-05,1e-05,-0.00013,-0.00014,0.00016,0.00012,6,24
30188,0,-1e-05,-1e-05,1e-05,-0.00013,-0.00014,0.00016,0.00012,6,24
30189,0,-1e-05,-1e-05,1e-05,-0.00013,-0.00014,0.00016,0.00012,6,24
30190,0,-1e-05,-1e-05,1e-05,-0.00013,-0.00014,0.00016,0.00012,6,24
30191,0,-1e-05,-1e-05,1e-05,-0.00013,-0.00014,0.00016,0.00012,6,24
30192,0,-1e-05,-1e-05,1e-05,-0.00013,-0.00014,0.00016,0.00012,6,24
30193,0,-1e-05,-1e-05,1e-05,-0.00013,-0.00014,0.00016,0.00012,6,24
30194,0,-1e-05,-1e-05,1e-05,-0.00013,-0.00014,0.00016,0.00012,6,24
30195,0,-1e-05,-1e-05,1e-05,-0.00013,-0.00014,0.00016,0.00012,6,24
30196,0,-1e-05,-1e-05,1e-05,-0.00013,-0.00014,0.00016,0.00012,6,24
30197,-3e-05,-2e-05,-1e-05,4e-05,0.00017,8e-05,-3e-05,-0.00017,6,24
30198,-3e-05,-2e-05,-1e-05,4e-05,0.00017,8e-05,-3e-05,-0.00017,6,24
30199,-3e-05,-2e-05,-1e-05,4e-05,0.00017,8e-05,-3e-05,-0.00017,6,24
30200,-3e-05,-2e-05,-1e-05,4e-05,0.00017,8e-05,-3e-05,-0.00017,6,24
30201,-3e-05,-2e-05,-1e-05,4e-05,0.00017,8e-05,-3e-05,-0.00017,6,24
30202,-3e-05,-2e-05,-1e-05,4e-05,0.00017,8e-05,-3e-05,-0.00017,6,24
30203,-3e-05,-2e-05,-1e-05,4e-05,0.00017,8e-05,-3e-05,-0.00017,6,24
30204,-3e-05,-2e-05,-1e-05,4e-05,0.00017,8e-05,-3e-05,-0.00017,6,24
30205,-3e-05,-2e-05,-1e-05,4e-05,0.00017,8e-05,-3e-05,-0.00017,6,24
30206,-3e-05,-2e-05,-1e-05,4e-05,0.00017,8e-05,-3e-05,-0.00017,6,24
30207,-3e-05,-2e-05,-1e-05,4e-05,0.00017,8e-05,-3e-05,-0.00017,6,24
30208,-3e-05,-2e-05,-1e-05,4e-05,0.00017,8e-05,-3e-05,-0.00017,6,24
30209,-3e-05,-2e-05,-1e-05,4e-05,0.00017,8e-05,-3e-05,-0.00017,6,24
30210,-3e-05,-2e-05,-1e-05,4e-05,0.00017,8e-05,-3e-05,-0.00017,6,24
30211,-3e-05,-2e-05,-1e-05,4e-05,0.00017,8e-05,-3e-05,-0.00017,6,24
30212,-3e-05,-2e-05,-1e-05,4e-05,0.00017,8e-05,-3e-05,-0.00017,6,24
30213,-3e-05,-2e-05,-1e-05,4e-05,0.00017,8e-05,-3e-05,-0.00017,6,24
30214,-3e-05,-2e-05,-1e-05,4e-05,0.00017,8e-05,-3e-05,-0.00017,6,24
30215,-3e-05,-2e-05,-1e-05,4e-05,0.00017,8e-05,-3e-05,-0.00017,6,24
30216,-3e-05,-2e-05,-1e-05,4e-05,0.00017,8e-05,-3e-05,-0.00017,6,24
30217,-3e-05,-2e-05,-1e-05,4e-05,0.00017,8e-05,-3e-05,-0.00017,6,24
30218,-3e-05,-2e-05,-1e-05,4e-05,0.00017,8e-05,-3e-05,-0.00017,6,24
30219,-5e-05,-5e-05,-2e-05,-1e-05,-7e-05,-0.0001,-3e-05,-0.00022,6,24
30220,-5e-05,-5e-05,-7e-05,-6e-05,-2e-05,0.0001,0.00016,-0.0001,6,24
30221,-5e-05,-5e-05,-7e-05,-6e-05,-2e-05,0.0001,0.00016,-0.0001,6,24
30222,-5e-05,-5e-05,-7e-05,-6e-05,-2e-05,0.0001,0.00016,-0.0001,6,24
30223,-5e-05,-5e-05,-7e-05,-6e-05,-2e-05,0.0001,0.00016,-0.0001,6,24
30224,-5e-05,-5e-05,-7e-05,-6e-05,-2e-05,0.0001,0.00016,-0.0001,6,24
30225,-5e-05,-5e-05,-7e-05,-6e-05,-2e-05,0.0001,0.00016,-0.0001,6,24
30226,-5e-05,-5e-05,-7e-05,-6e-05,-2e-05,0.0001,0.00016,-0.0001,6,24
30227,-5e-05,-5e-05,-7e-05,-6e-05,-2e-05,0.0001,0.00016,-0.0001,6,24
30228,-5e-05,-5e-05,-7e-05,-6e-05,-2e-05,0.0001,0.00016,-0.0001,6,24
30229,-5e-05,-5e-05,-7e-05,-6e-05,-2e-05,0.0001,0.00016,-0.0001,6,24
30230,-5e-05,-5e-05,-7e-05,-6e-05,-2e-05,0.0001,0.00016,-0.0001,6,24
30231,-5e-05,-5e-05,-7e-05,-6e-05,-2e-05,0.0001,0.00016,-0.0001,6,24
30232,-5e-05,-5e-05,-7e-05,-6e-05,-2e-05,0.0001,0.00016,-0.0001,6,24
30233,-5e-05,-5e-05,-7e-05,-6e-05,-2e-05,0.0001,0.00016,-0.0001,6,24
30234,-6e-05,-1e-05,-7e-05,4e-05,8e-05,2e-05,0.00019,-0.00032,6,24
30235,-2e-05,0,2e-05,-1e-05,-0.0002,-7e-05,-7e-05,-0.0001,6,24
30236,-2e-05,0,2e-05,-1e-05,-0.0002,-7e-05,-7e-05,-0.0001,6,24
30238,-2e-05,0,2e-05,-1e-05,-0.0002,-7e-05,-7e-05,-0.0001,6,24
30239,-2e-05,0,2e-05,-1e-05,-0.0002,-7e-05,-7e-05,-0.0001,6,24
30240,-2e-05,0,2e-05,-1e-05,-0.0002,-7e-05,-7e-05,-0.0001,6,24
30241,-2e-05,0,2e-05,-1e-05,-0.0002,-7e-05,-7e-05,-0.0001,6,24
30242,-2e-05,0,2e-05,-1e-05,-0.0002,-7e-05,-7e-05,-0.0001,6,24
30243,-2e-05,0,2e-05,-1e-05,-0.0002,-7e-05,-7e-05,-0.0001,6,24
30244,-2e-05,0,2e-05,-1e-05,-0.0002,-7e-05,-7e-05,-0.0001,6,24
30245,-2e-05,0,2e-05,-1e-05,-0.0002,-7e-05,-7e-05,-0.0001,6,24
30246,-2e-05,0,2e-05,-1e-05,-0.0002,-7e-05,-7e-05,-0.0001,6,24
30247,-2e-05,0,2e-05,-1e-05,-0.0002,-7e-05,-7e-05,-0.0001,6,24
30248,-2e-05,0,2e-05,-1e-05,-0.0002,-7e-05,-7e-05,-0.0001,6,24
30249,-2e-05,0,2e-05,-1e-05,-0.0002,-7e-05,-7e-05,-0.0001,6,24
30250,-2e-05,0,2e-05,-1e-05,-0.0002,-7e-05,-7e-05,-0.0001,6,24
30251,-2e-05,0,2e-05,-1e-05,-0.0002,-7e-05,-7e-05,-0.0001,6,24
30252,-2e-05,0,2e-05,-1e-05,-0.0002,-7e-05,-7e-05,-0.0001,6,24
30253,-2e-05,0,2e-05,-1e-05,-0.0002,-7e-05,-7e-05,-0.0001,6,24
30254,-2e-05,0,2e-05,-1e-05,-0.0002,-7e-05,-7e-05,-0.0001,6,24
30255,-2e-05,0,2e-05,-1e-05,-0.0002,-7e-05,-7e-05,-0.0001,6,24
30256,4e-05,2e-05,-1e-05,-5e-05,0.00012,-7e-05,-0.00016,-9e-05,6,24
30257,0,0,-2e-05,-1e-05,-6e-05,2e-05,0,-0.00034,6,24
30258,0,0,-2e-05,-1e-05,-6e-05,2e-05,0,-0.00034,6,24
30259,0,0,-2e-05,-1e-05,-6e-05,2e-05,0,-0.00034,6,24
30260,0,0,-2e-05,-1e-05,-6e-05,2e-05,0,-0.00034,6,24
30261,0,0,-2e-05,-1e-05,-6e-05,2e-05,0,-0.00034,6,24
30262,0,0,-2e-05,-1e-05,-6e-05,2e-05,0,-0.00034,6,24
30263,0,0,-2e-05,-1e-05,-6e-05,2e-05,0,-0.00034,6,24
30264,0,0,-2e-05,-1e-05,-6e-05,2e-05,0,-0.00034,6,24
30265,0,0,-2e-05,-1e-05,-6e-05,2e-05,0,-0.00034,6,24
30266,0,0,-2e-05,-1e-05,-6e-05,2e-05,0,-0.00034,6,24
30267,0,0,-2e-05,-1e-05,-6e-05,2e-05,0,-0.00034,6,24
30268,0,0,-2e-05,-1e-05,-6e-05,2e-05,0,-0.00034,6,24
30269,0,0,-2e-05,-1e-05,-6e-05,2e-05,0,-0.00034,6,24
30270,0,0,-2e-05,-1e-05,-6e-05,2e-05,0,-0.00034,6,24
30271,0,0,-2e-05,-1e-05,-6e-05,2e-05,0,-0.00034,6,24
30272,0,0,-2e-05,-1e-05,-6e-05,2e-05,0,-0.00034,6,24
30273,0,0,-2e-05,-1e-05,-6e-05,2e-05,0,-0.00034,6,24
30274,0,0,-2e-05,-1e-05,-6e-05,2e-05,0,-0.00034,6,24
30275,0,0,-2e-05,-1e-05,-6e-05,2e-05,0,-0.00034,6,24
30276,0,0,-2e-05,-1e-05,-6e-05,2e-05,0,-0.00034,6,24
30277,0,0,-2e-05,-1e-05,-6e-05,2e-05,0,-0.00034,6,24
30278,0,0,-2e-05,-1e-05,-6e-05,2e-05,0,-0.00034,6,24
30279,2e-05,-2e-05,3e-05,3e-05,8e-05,-2e-05,-0.0001,0.00024,6,24
30280,-0.00047,-3e-05,1e-05,-2e-05,-3e-05,5e-05,-0.00022,-0.00017,6,24
30281,-0.00047,-3e-05,1e-05,-2e-05,-3e-05,5e-05,-0.00022,-0.00017,6,24
30282,-0.00047,-3e-05,1e-05,-2e-05,-3e-05,5e-05,-0.00022,-0.00017,6,24
30283,-0.00047,-3e-05,1e-05,-2e-05,-3e-05,5e-05,-0.00022,-0.00017,6,24
30284,-0.00047,-3e-05,1e-05,-2e-05,-3e-05,5e-05,-0.00022,-0.00017,6,24
30285,-0.00047,-3e-05,1e-05,-2e-05,-3e-05,5e-05,-0.00022,-0.00017,6,24
30286,-0.00047,-3e-05,1e-05,-2e-05,-3e-05,5e-05,-0.00022,-0.00017,6,24
30288,-0.00047,-3e-05,1e-05,-2e-05,-3e-05,5e-05,-0.00022,-0.00017,6,24
30289,-0.00047,-3e-05,1e-05,-2e-05,-3e-05,5e-05,-0.00022,-0.00017,6,24
30290,-0.00047,-3e-05,1e-05,-2e-05,-3e-05,5e-05,-0.00022,-0.00017,6,24
30291,-0.00047,-3e-05,1e-05,-2e-05,-3e-05,5e-05,-0.00022,-0.00017,6,24
30292,-0.00047,-3e-05,1e-05,-2e-05,-3e-05,5e-05,-0.00022,-0.00017,6,24
30293,-0.00047,-3e-05,1e-05,-2e-05,-3e-05,5e-05,-0.00022,-0.00017,6,24
30294,-2e-05,-1e-05,1e-05,4e-05,0.00011,-4e-05,-2e-05,0.00029,6,24
30295,-2e-05,-1e-05,1e-05,4e-05,0.00011,-4e-05,-2e-05,0.00029,6,24
30296,-2e-05,-1e-05,1e-05,4e-05,0.00011,-4e-05,-2e-05,0.00029,6,24
30297,-2e-05,-1e-05,1e-05,4e-05,0.00011,-4e-05,-2e-05,0.00029,6,24
30298,-2e-05,-1e-05,1e-05,4e-05,0.00011,-4e-05,-2e-05,0.00029,6,24
30299,-2e-05,-1e-05,1e-05,4e-05,0.00011,-4e-05,-2e-05,0.00029,6,24
30300,-2e-05,-1e-05,1e-05,4e-05,0.00011,-4e-05,-2e-05,0.00029,6,24
30301,9e-05,1e-05,1e-05,4e-05,0.00017,3e-05,-3e-05,-0.0001,6,24
30302,-7e-05,-1e-05,1e-05,-5e-05,-0.00037,-9e-05,-2e-05,0.00043,6,24
30303,-7e-05,-1e-05,1e-05,-5e-05,-0.00037,-9e-05,-2e-05,0.00043,6,24
30304,-7e-05,-1e-05,1e-05,-5e-05,-0.00037,-9e-05,-2e-05,0.00043,6,24
30305,-7e-05,-1e-05,1e-05,-5e-05,-0.00037,-9e-05,-2e-05,0.00043,6,24
30306,-7e-05,-1e-05,1e-05,-5e-05,-0.00037,-9e-05,-2e-05,0.00043,6,24
30307,-7e-05,-1e-05,1e-05,-5e-05,-0.00037,-9e-05,-2e-05,0.00043,6,24
30308,-7e-05,-1e-05,1e-05,-5e-05,-0.00037,-9e-05,-2e-05,0.00043,6,24
30309,-7e-05,-1e-05,1e-05,-5e-05,-0.00037,-9e-05,-2e-05,0.00043,6,24
30310,-7e-05,-1e-05,1e-05,-5e-05,-0.00037,-9e-05,-2e-05,0.00043,6,24
30311,-7e-05,-1e-05,1e-05,-5e-05,-0.00037,-9e-05,-2e-05,0.00043,6,24
30312,-7e-05,-1e-05,1e-05,-5e-05,-0.00037,-9e-05,-2e-05,0.00043,6,24
30313,-7e-05,-1e-05,1e-05,-5e-05,-0.00037,-9e-05,-2e-05,0.00043,6,24
30314,-7e-05,-1e-05,1e-05,-5e-05,-0.00037,-9e-05,-2e-05,0.00043,6,24
30315,-7e-05,-1e-05,1e-05,-5e-05,-0.00037,-9e-05,-2e-05,0.00043,6,24
30316,-0.00017,-6e-05,-6e-05,-2e-05,6e-05,2e-05,7e-05,0.00022,6,24
30317,0.00013,2e-05,-1e-05,-6e-05,-0.00017,0.00024,2e-05,0,6,24
30318,0.00013,2e-05,-1e-05,-6e-05,-0.00017,0.00024,2e-05,0,6,24
30319,0.00013,2e-05,-1e-05,-6e-05,-0.00017,0.00024,2e-05,0,6,24
30320,0.00013,2e-05,-1e-05,-6e-05,-0.00017,0.00024,2e-05,0,6,24
30321,0.00013,2e-05,-1e-05,-6e-05,-0.00017,0.00024,2e-05,0,6,24
30322,0.00013,2e-05,-1e-05,-6e-05,-0.00017,0.00024,2e-05,0,6,24
30323,0.00013,2e-05,-1e-05,-6e-05,-0.00017,0.00024,2e-05,0,6,24
30324,0.00013,2e-05,-1e-05,-6e-05,-0.00017,0.00024,2e-05,0,6,24
30325,0.00013,2e-05,-1e-05,-6e-05,-0.00017,0.00024,2e-05,0,6,24
30326,0.00013,2e-05,-1e-05,-6e-05,-0.00017,0.00024,2e-05,0,6,24
30327,0.00013,2e-05,-1e-05,-6e-05,-0.00017,0.00024,2e-05,0,6,24
30328,0.00013,2e-05,-1e-05,-6e-05,-0.00017,0.00024,2e-05,0,6,24
30329,0.00013,2e-05,-1e-05,-6e-05,-0.00017,0.00024,2e-05,0,6,24
30330,0.00013,2e-05,-1e-05,-6e-05,-0.00017,0.00024,2e-05,0,6,24
30331,0.00013,2e-05,-1e-05,-6e-05,-0.00017,0.00024,2e-05,0,6,24
30332,0.00013,2e-05,-1e-05,-6e-05,-0.00017,0.00024,2e-05,0,6,24
30333,0.00013,2e-05,-1e-05,-6e-05,-0.00017,0.00024,2e-05,0,6,24
30334,0.00013,2e-05,-1e-05,-6e-05,-0.00017,0.00024,2e-05,0,6,24
30335,0.00013,2e-05,-1e-05,-6e-05,-0.00017,0.00024,2e-05,0,6,24
30336,0.00013,2e-05,-1e-05,-6e-05,-0.00017,0.00024,2e-05,0,6,24
30338,0.00013,2e-05,-1e-05,-6e-05,-0.00017,0.00024,2e-05,0,6,24
30339,4e-05,1e-05,-2e-05,2e-05,0.00014,0.00012,-6e-05,0.00017,6,24
30340,0.0001,-7e-05,-6e-05,-5e-05,5e-05,-0.0001,-4e-05,9e-05,6,24
30341,0.0001,-7e-05,-6e-05,-5e-05,5e-05,-0.0001,-4e-05,9e-05,6,24
30342,0.0001,-7e-05,-6e-05,-5e-05,5e-05,-0.0001,-4e-05,9e-05,6,24
30343,0.0001,-7e-05,-6e-05,-5e-05,5e-05,-0.0001,-4e-05,9e-05,6,24
30344,0.0001,-7e-05,-6e-05,-5e-05,5e-05,-0.0001,-4e-05,9e-05,6,24
30345,0.0001,-7e-05,-6e-05,-5e-05,5e-05,-0.0001,-4e-05,9e-05,6,24
30346,0.0001,-7e-05,-6e-05,-5e-05,5e-05,-0.0001,-4e-05,9e-05,6,24
30347,0.0001,-7e-05,-6e-05,-5e-05,5e-05,-0.0001,-4e-05,9e-05,6,24
30348,0.0001,-7e-05,-6e-05,-5e-05,5e-05,-0.0001,-4e-05,9e-05,6,24
30349,0.0001,-7e-05,-6e-05,-5e-05,5e-05,-0.0001,-4e-05,9e-05,6,24
30350,0.0001,-7e-05,-6e-05,-5e-05,5e-05,-0.0001,-4e-05,9e-05,6,24
30351,0.0001,-7e-05,-6e-05,-5e-05,5e-05,-0.0001,-4e-05,9e-05,6,24
30352,0.0001,-7e-05,-6e-05,-5e-05,5e-05,-0.0001,-4e-05,9e-05,6,24
30353,0.0001,-7e-05,-6e-05,-5e-05,5e-05,-0.0001,-4e-05,9e-05,6,24
30354,-0.00028,1e-05,3e-05,2e-05,-6e-05,8e-05,8e-05,-0.00032,6,24
30355,8e-05,0,-2e-05,-2e-05,2e-05,-6e-05,-2e-05,-0.00019,6,24
30356,8e-05,0,-2e-05,-2e-05,2e-05,-6e-05,-2e-05,-0.00019,6,24
30357,8e-05,0,-2e-05,-2e-05,2e-05,-6e-05,-2e-05,-0.00019,6,24
30358,8e-05,0,-2e-05,-2e-05,2e-05,-6e-05,-2e-05,-0.00019,6,24
30359,8e-05,0,-2e-05,-2e-05,2e-05,-6e-05,-2e-05,-0.00019,6,24
30360,8e-05,0,-2e-05,-2e-05,2e-05,-6e-05,-2e-05,-0.00019,6,24
30361,8e-05,0,-2e-05,-2e-05,2e-05,-6e-05,-2e-05,-0.00019,6,24
30362,8e-05,0,-2e-05,-2e-05,2e-05,-6e-05,-2e-05,-0.00019,6,24
30363,8e-05,0,-2e-05,-2e-05,2e-05,-6e-05,-2e-05,-0.00019,6,24
30364,8e-05,0,-2e-05,-2e-05,2e-05,-6e-05,-2e-05,-0.00019,6,24
30365,8e-05,0,-2e-05,-2e-05,2e-05,-6e-05,-2e-05,-0.00019,6,24
30366,8e-05,0,-2e-05,-2e-05,2e-05,-6e-05,-2e-05,-0.00019,6,24
30367,8e-05,0,-2e-05,-2e-05,2e-05,-6e-05,-2e-05,-0.00019,6,24
30368,8e-05,0,-2e-05,-2e-05,2e-05,-6e-05,-2e-05,-0.00019,6,24
30369,8e-05,0,-2e-05,-2e-05,2e-05,-6e-05,-2e-05,-0.00019,6,24
30370,8e-05,0,-2e-05,-2e-05,2e-05,-6e-05,-2e-05,-0.00019,6,24
30371,8e-05,0,-2e-05,-2e-05,2e-05,-6e-05,-2e-05,-0.00019,6,24
30372,8e-05,0,-2e-05,-2e-05,2e-05,-6e-05,-2e-05,-0.00019,6,24
30373,8e-05,0,-2e-05,-2e-05,2e-05,-6e-05,-2e-05,-0.00019,6,24
30374,8e-05,0,-2e-05,-2e-05,2e-05,-6e-05,-2e-05,-0.00019,6,24
30375,8e-05,0,-2e-05,-2e-05,2e-05,-6e-05,-2e-05,-0.00019,6,24
30376,8e-05,0,-2e-05,-2e-05,2e-05,-6e-05,-2e-05,-0.00019,6,24
30377,0.0001,2e-05,1e-05,8e-05,3e-05,-0.00011,0.00012,-0.00025,6,24
30378,0.0001,2e-05,1e-05,8e-05,3e-05,-0.00011,0.00012,-0.00025,6,24
30379,0.0001,2e-05,1e-05,8e-05,3e-05,-0.00011,0.00012,-0.00025,6,24
30380,0.0001,2e-05,1e-05,8e-05,3e-05,-0.00011,0.00012,-0.00025,6,24
30381,0.0001,2e-05,1e-05,8e-05,3e-05,-0.00011,0.00012,-0.00025,6,24
30382,0.0001,2e-05,1e-05,8e-05,3e-05,-0.00011,0.00012,-0.00025,6,24
30383,0.0001,2e-05,1e-05,8e-05,3e-05,-0.00011,0.00012,-0.00025,6,24
30384,0.0001,2e-05,1e-05,8e-05,3e-05,-0.00011,0.00012,-0.00025,6,24
30385,0.0001,2e-05,1e-05,8e-05,3e-05,-0.00011,0.00012,-0.00025,6,24
30386,0.0001,2e-05,1e-05,8e-05,3e-05,-0.00011,0.00012,-0.00025,6,24
30388,0.0001,2e-05,1e-05,8e-05,3e-05,-0.00011,0.00012,-0.00025,6,24
30389,0.0001,2e-05,1e-05,8e-05,3e-05,-0.00011,0.00012,-0.00025,6,24
30390,0.0001,2e-05,1e-05,8e-05,3e-05,-0.00011,0.00012,-0.00025,6,24
30391,0.0001,2e-05,1e-05,8e-05,3e-05,-0.00011,0.00012,-0.00025,6,24
30392,0.0001,2e-05,1e-05,8e-05,3e-05,-0.00011,0.00012,-0.00025,6,24
30393,0.0001,2e-05,1e-05,8e-05,3e-05,-0.00011,0.00012,-0.00025,6,24
30394,0.0001,2e-05,1e-05,8e-05,3e-05,-0.00011,0.00012,-0.00025,6,24
30395,0.0001,2e-05,1e-05,8e-05,3e-05,-0.00011,0.00012,-0.00025,6,24
30396,0.0001,2e-05,1e-05,8e-05,3e-05,-0.00011,0.00012,-0.00025,6,24
30397,0.0001,2e-05,1e-05,8e-05,3e-05,-0.00011,0.00012,-0.00025,6,24
30398,0.0001,2e-05,1e-05,8e-05,3e-05,-0.00011,0.00012,-0.00025,6,24
30399,6e-05,1e-05,1e-05,1e-05,-3e-05,-1e-05,1e-05,-0.00014,6,24
30400,0,0,-1e-05,-5e-05,-0.00011,1e-05,1e-05,-6e-05,6,24
30401,0,0,-1e-05,-5e-05,-0.00011,1e-05,1e-05,-6e-05,6,24
30402,0,0,-1e-05,-5e-05,-0.00011,1e-05,1e-05,-6e-05,6,24
30403,0,0,-1e-05,-5e-05,-0.00011,1e-05,1e-05,-6e-05,6,24
30404,0,0,-1e-05,-5e-05,-0.00011,1e-05,1e-05,-6e-05,6,24
30405,0,0,-1e-05,-5e-05,-0.00011,1e-05,1e-05,-6e-05,6,24
30406,0,0,-1e-05,-5e-05,-0.00011,1e-05,1e-05,-6e-05,6,24
30407,0,0,-1e-05,-5e-05,-0.00011,1e-05,1e-05,-6e-05,6,24
30408,0,0,-1e-05,-5e-05,-0.00011,1e-05,1e-05,-6e-05,6,24
30409,0,0,-1e-05,-5e-05,-0.00011,1e-05,1e-05,-6e-05,6,24
30410,0,0,-1e-05,-5e-05,-0.00011,1e-05,1e-05,-6e-05,6,24
30411,0,0,-1e-05,-5e-05,-0.00011,1e-05,1e-05,-6e-05,6,24
30412,0,0,-1e-05,-5e-05,-0.00011,1e-05,1e-05,-6e-05,6,24
30413,0,0,-1e-05,-5e-05,-0.00011,1e-05,1e-05,-6e-05,6,24
30414,0,0,-1e-05,-5e-05,-0.00011,1e-05,1e-05,-6e-05,6,24
30415,0,-3e-05,-2e-05,-2e-05,0,2e-05,-2e-05,2e-05,6,24
30416,0.00012,0,1e-05,0,0.00025,-2e-05,0,4e-05,6,24
30417,0.00012,0,1e-05,0,0.00025,-2e-05,0,4e-05,6,24
30418,0.00012,0,1e-05,0,0.00025,-2e-05,0,4e-05,6,24
30419,0.00012,0,1e-05,0,0.00025,-2e-05,0,4e-05,6,24
30420,0.00012,0,1e-05,0,0.00025,-2e-05,0,4e-05,6,24
30421,0.00012,0,1e-05,0,0.00025,-2e-05,0,4e-05,6,24
30422,0.00012,0,1e-05,0,0.00025,-2e-05,0,4e-05,6,24
30423,0.00012,0,1e-05,0,0.00025,-2e-05,0,4e-05,6,24
30424,0.00012,0,1e-05,0,0.00025,-2e-05,0,4e-05,6,24
30425,0.00012,0,1e-05,0,0.00025,-2e-05,0,4e-05,6,24
30426,0.00012,0,1e-05,0,0.00025,-2e-05,0,4e-05,6,24
30427,0.00012,0,1e-05,0,0.00025,-2e-05,0,4e-05,6,24
30428,0.00012,0,1e-05,0,0.00025,-2e-05,0,4e-05,6,24
30429,0.00012,0,1e-05,0,0.00025,-2e-05,0,4e-05,6,24
30430,0.00012,0,1e-05,0,0.00025,-2e-05,0,4e-05,6,24
30431,0.00012,0,1e-05,0,0.00025,-2e-05,0,4e-05,6,24
30432,0.00012,0,1e-05,0,0.00025,-2e-05,0,4e-05,6,24
30433,0.00012,0,1e-05,0,0.00025,-2e-05,0,4e-05,6,24
30434,0.00012,0,1e-05,0,0.00025,-2e-05,0,4e-05,6,24
30435,0.00012,0,1e-05,0,0.00025,-2e-05,0,4e-05,6,24
30436,0.00012,0,1e-05,0,0.00025,-2e-05,0,4e-05,6,24
30438,0.00067,0.0001,-2e-05,9e-05,0.00015,7e-05,7e-05,0.00018,6,24
30439,0.00067,0.0001,-2e-05,9e-05,0.00015,7e-05,7e-05,0.00018,6,24
30440,0.00067,0.0001,-2e-05,9e-05,0.00015,7e-05,7e-05,0.00018,6,24
30441,0.00067,0.0001,-2e-05,9e-05,0.00015,7e-05,7e-05,0.00018,6,24
30442,0.00067,0.0001,-2e-05,9e-05,0.00015,7e-05,7e-05,0.00018,6,24
30443,0.00067,0.0001,-2e-05,9e-05,0.00015,7e-05,7e-05,0.00018,6,24
30444,0.00067,0.0001,-2e-05,9e-05,0.00015,7e-05,7e-05,0.00018,6,24
30445,0.00067,0.0001,-2e-05,9e-05,0.00015,7e-05,7e-05,0.00018,6,24
30446,0.00067,0.0001,-2e-05,9e-05,0.00015,7e-05,7e-05,0.00018,6,24
30447,0.00067,0.0001,-2e-05,9e-05,0.00015,7e-05,7e-05,0.00018,6,24
30448,0.00067,0.0001,-2e-05,9e-05,0.00015,7e-05,7e-05,0.00018,6,24
30449,0.00067,0.0001,-2e-05,9e-05,0.00015,7e-05,7e-05,0.00018,6,24
30450,0.00067,0.0001,-2e-05,9e-05,0.00015,7e-05,7e-05,0.00018,6,24
30451,0.00067,0.0001,-2e-05,9e-05,0.00015,7e-05,7e-05,0.00018,6,24
30452,0.00067,0.0001,-2e-05,9e-05,0.00015,7e-05,7e-05,0.00018,6,24
30453,0.00067,0.0001,-2e-05,9e-05,0.00015,7e-05,7e-05,0.00018,6,24
30454,0.00067,0.0001,-2e-05,9e-05,0.00015,7e-05,7e-05,0.00018,6,24
30455,0.00067,0.0001,-2e-05,9e-05,0.00015,7e-05,7e-05,0.00018,6,24
30456,0.00067,0.0001,-2e-05,9e-05,0.00015,7e-05,7e-05,0.00018,6,24
30457,0.00067,0.0001,-2e-05,9e-05,0.00015,7e-05,7e-05,0.00018,6,24
30458,0.00067,0.0001,-2e-05,9e-05,0.00015,7e-05,7e-05,0.00018,6,24
30459,0.00067,0.0001,-2e-05,9e-05,0.00015,7e-05,7e-05,0.00018,6,24
30460,-0.00026,-3e-05,2e-05,-1e-05,-8e-05,-4e-05,-6e-05,-0.00012,6,24
30461,-0.00026,-3e-05,2e-05,-1e-05,-8e-05,-4e-05,-6e-05,-0.00012,6,24
30462,-0.00026,-3e-05,2e-05,-1e-05,-8e-05,-4e-05,-6e-05,-0.00012,6,24
30463,-0.00026,-3e-05,2e-05,-1e-05,-8e-05,-4e-05,-6e-05,-0.00012,6,24
30464,-0.00026,-3e-05,2e-05,-1e-05,-8e-05,-4e-05,-6e-05,-0.00012,6,24
30465,-0.00026,-3e-05,2e-05,-1e-05,-8e-05,-4e-05,-6e-05,-0.00012,6,24
30466,-0.00026,-3e-05,2e-05,-1e-05,-8e-05,-4e-05,-6e-05,-0.00012,6,24
30467,-0.00026,-3e-05,2e-05,-1e-05,-8e-05,-4e-05,-6e-05,-0.00012,6,24
30468,-0.00026,-3e-05,2e-05,-1e-05,-8e-05,-4e-05,-6e-05,-0.00012,6,24
30469,-0.00026,-3e-05,2e-05,-1e-05,-8e-05,-4e-05,-6e-05,-0.00012,6,24
30470,-0.00026,-3e-05,2e-05,-1e-05,-8e-05,-4e-05,-6e-05,-0.00012,6,24
30471,-0.00026,-3e-05,2e-05,-1e-05,-8e-05,-4e-05,-6e-05,-0.00012,6,24
30472,-0.00026,-3e-05,2e-05,-1e-05,-8e-05,-4e-05,-6e-05,-0.00012,6,24
30473,-0.00026,-3e-05,2e-05,-1e-05,-8e-05,-4e-05,-6e-05,-0.00012,6,24
30474,3e-05,-3e-05,-5e-05,3e-05,0.00015,-0.00012,-9e-05,0.0001,6,24
30475,-0.00016,-7e-05,-4e-05,-7e-05,5e-05,4e-05,-7e-05,-0.0002,6,24
30476,-0.00016,-7e-05,-4e-05,-7e-05,5e-05,4e-05,-7e-05,-0.0002,6,24
30477,-0.00016,-7e-05,-4e-05,-7e-05,5e-05,4e-05,-7e-05,-0.0002,6,24
30478,-0.00016,-7e-05,-4e-05,-7e-05,5e-05,4e-05,-7e-05,-0.0002,6,24
30479,-0.00016,-7e-05,-4e-05,-7e-05,5e-05,4e-05,-7e-05,-0.0002,6,24
30480,-0.00016,-7e-05,-4e-05,-7e-05,5e-05,4e-05,-7e-05,-0.0002,6,24
30481,-0.00016,-7e-05,-4e-05,-7e-05,5e-05,4e-05,-7e-05,-0.0002,6,24
30482,-0.00016,-7e-05,-4e-05,-7e-05,5e-05,4e-05,-7e-05,-0.0002,6,24
30483,-0.00016,-7e-05,-4e-05,-7e-05,5e-05,4e-05,-7e-05,-0.0002,6,24
30484,-0.00016,-7e-05,-4e-05,-7e-05,5e-05,4e-05,-7e-05,-0.0002,6,24
30485,-0.00016,-7e-05,-4e-05,-7e-05,5e-05,4e-05,-7e-05,-0.0002,6,24
30486,-0.00016,-7e-05,-4e-05,-7e-05,5e-05,4e-05,-7e-05,-0.0002,6,24
30488,-0.00016,-7e-05,-4e-05,-7e-05,5e-05,4e-05,-7e-05,-0.0002,6,24
30489,-0.00016,-7e-05,-4e-05,-7e-05,5e-05,4e-05,-7e-05,-0.0002,6,24
30490,-0.00016,-7e-05,-4e-05,-7e-05,5e-05,4e-05,-7e-05,-0.0002,6,24
30491,-0.00016,-7e-05,-4e-05,-7e-05,5e-05,4e-05,-7e-05,-0.0002,6,24
30492,-0.00016,-7e-05,-4e-05,-7e-05,5e-05,4e-05,-7e-05,-0.0002,6,24
30493,-0.00016,-7e-05,-4e-05,-7e-05,5e-05,4e-05,-7e-05,-0.0002,6,24
30494,-0.00016,-7e-05,-4e-05,-7e-05,5e-05,4e-05,-7e-05,-0.0002,6,24
30495,-0.00016,-7e-05,-4e-05,-7e-05,5e-05,4e-05,-7e-05,-0.0002,6,24
30496,-0.00016,-7e-05,-4e-05,-7e-05,5e-05,4e-05,-7e-05,-0.0002,6,24
30497,0.00015,2e-05,0,0.0001,0.00034,-9e-05,1e-05,0.00023,6,24
30498,0.00015,2e-05,0,0.0001,0.00034,-9e-05,1e-05,0.00023,6,24
30499,0.00015,2e-05,0,0.0001,0.00034,-9e-05,1e-05,0.00023,6,24
30500,0.00015,2e-05,0,0.0001,0.00034,-9e-05,1e-05,0.00023,6,24
30501,0.00015,2e-05,0,0.0001,0.00034,-9e-05,1e-05,0.00023,6,24
30502,0.00015,2e-05,0,0.0001,0.00034,-9e-05,1e-05,0.00023,6,24
30503,0.00015,2e-05,0,0.0001,0.00034,-9e-05,1e-05,0.00023,6,24
30504,0.00015,2e-05,0,0.0001,0.00034,-9e-05,1e-05,0.00023,6,24
30505,0.00015,2e-05,0,0.0001,0.00034,-9e-05,1e-05,0.00023,6,24
30506,0.00015,2e-05,0,0.0001,0.00034,-9e-05,1e-05,0.00023,6,24
30507,0.00015,2e-05,0,0.0001,0.00034,-9e-05,1e-05,0.00023,6,24
30508,0.00015,2e-05,0,0.0001,0.00034,-9e-05,1e-05,0.00023,6,24
30509,0.00015,2e-05,0,0.0001,0.00034,-9e-05,1e-05,0.00023,6,24
30510,0.00015,2e-05,0,0.0001,0.00034,-9e-05,1e-05,0.00023,6,24
30511,0.00015,2e-05,0,0.0001,0.00034,-9e-05,1e-05,0.00023,6,24
30512,0.00015,2e-05,0,0.0001,0.00034,-9e-05,1e-05,0.00023,6,24
30513,0.00015,2e-05,0,0.0001,0.00034,-9e-05,1e-05,0.00023,6,24
30514,0.00015,2e-05,0,0.0001,0.00034,-9e-05,1e-05,0.00023,6,24
30515,0.00015,2e-05,0,0.0001,0.00034,-9e-05,1e-05,0.00023,6,24
30516,0.00015,2e-05,0,0.0001,0.00034,-9e-05,1e-05,0.00023,6,24
30517,0.00015,2e-05,0,0.0001,0.00034,-9e-05,1e-05,0.00023,6,24
30518,0.00015,2e-05,0,0.0001,0.00034,-9e-05,1e-05,0.00023,6,24
30519,0.0001,1e-05,-1e-05,-2e-05,0,3e-05,-0.00018,-0.00019,6,24
30520,-0.00018,-9e-05,-7e-05,-5e-05,-1e-05,-8e-05,-4e-05,0,6,24
30521,-0.00018,-9e-05,-7e-05,-5e-05,-1e-05,-8e-05,-4e-05,0,6,24
30522,-0.00018,-9e-05,-7e-05,-5e-05,-1e-05,-8e-05,-4e-05,0,6,24
30523,-0.00018,-9e-05,-7e-05,-5e-05,-1e-05,-8e-05,-4e-05,0,6,24
30524,-0.00018,-9e-05,-7e-05,-5e-05,-1e-05,-8e-05,-4e-05,0,6,24
30525,-0.00018,-9e-05,-7e-05,-5e-05,-1e-05,-8e-05,-4e-05,0,6,24
30526,-0.00018,-9e-05,-7e-05,-5e-05,-1e-05,-8e-05,-4e-05,0,6,24
30527,-0.00018,-9e-05,-7e-05,-5e-05,-1e-05,-8e-05,-4e-05,0,6,24
30528,-0.00018,-9e-05,-7e-05,-5e-05,-1e-05,-8e-05,-4e-05,0,6,24
30529,-0.00018,-9e-05,-7e-05,-5e-05,-1e-05,-8e-05,-4e-05,0,6,24
30530,-0.00018,-9e-05,-7e-05,-5e-05,-1e-05,-8e-05,-4e-05,0,6,24
30531,-0.00018,-9e-05,-7e-05,-5e-05,-1e-05,-8e-05,-4e-05,0,6,24
30532,-0.00018,-9e-05,-7e-05,-5e-05,-1e-05,-8e-05,-4e-05,0,6,24
30533,-0.00022,-7e-05,-3e-05,1e-05,0.00022,-2e-05,-4e-05,-0.00042,6,24
30534,-0.00022,-7e-05,-3e-05,1e-05,0.00022,-2e-05,-4e-05,-0.00042,6,24
30535,-0.00022,-7e-05,-3e-05,1e-05,0.00022,-2e-05,-4e-05,-0.00042,6,24
30536,-0.00022,-7e-05,-3e-05,1e-05,0.00022,-2e-05,-4e-05,-0.00042,6,24
30538,-0.00022,-7e-05,-3e-05,1e-05,0.00022,-2e-05,-4e-05,-0.00042,6,24
30539,-0.00022,-7e-05,-3e-05,1e-05,0.00022,-2e-05,-4e-05,-0.00042,6,24
30540,-0.00022,-7e-05,-3e-05,1e-05,0.00022,-2e-05,-4e-05,-0.00042,6,24
30541,-0.00022,-7e-05,-3e-05,1e-05,0.00022,-2e-05,-4e-05,-0.00042,6,24
30542,0.00031,6e-05,3e-05,-1e-05,3e-05,0.00029,-0.0001,1e-05,6,24
30543,0.00031,6e-05,3e-05,-1e-05,3e-05,0.00029,-0.0001,1e-05,6,24
30544,0.00031,6e-05,3e-05,-1e-05,3e-05,0.00029,-0.0001,1e-05,6,24
30545,0.00031,6e-05,3e-05,-1e-05,3e-05,0.00029,-0.0001,1e-05,6,24
30546,0.00031,6e-05,3e-05,-1e-05,3e-05,0.00029,-0.0001,1e-05,6,24
30547,0.00031,6e-05,3e-05,-1e-05,3e-05,0.00029,-0.0001,1e-05,6,24
30548,0.00031,6e-05,3e-05,-1e-05,3e-05,0.00029,-0.0001,1e-05,6,24
30549,0.00031,6e-05,3e-05,-1e-05,3e-05,0.00029,-0.0001,1e-05,6,24
30550,0.00031,6e-05,3e-05,-1e-05,3e-05,0.00029,-0.0001,1e-05,6,24
30551,0.00031,6e-05,3e-05,-1e-05,3e-05,0.00029,-0.0001,1e-05,6,24
30552,0.00031,6e-05,3e-05,-1e-05,3e-05,0.00029,-0.0001,1e-05,6,24
30553,0.00031,6e-05,3e-05,-1e-05,3e-05,0.00029,-0.0001,1e-05,6,24
30554,0.00031,6e-05,3e-05,-1e-05,3e-05,0.00029,-0.0001,1e-05,6,24
30555,0.00031,6e-05,3e-05,-1e-05,3e-05,0.00029,-0.0001,1e-05,6,24
30556,0.00031,6e-05,3e-05,-1e-05,3e-05,0.00029,-0.0001,1e-05,6,24
30557,-0.00015,-4e-05,1e-05,-3e-05,-1e-05,-5e-05,-0.00012,0.00014,6,24
30558,-0.00015,-4e-05,1e-05,-3e-05,-1e-05,-5e-05,-0.00012,0.00014,6,24
30559,-0.00015,-4e-05,1e-05,-3e-05,-1e-05,-5e-05,-0.00012,0.00014,6,24
30560,-0.00015,-4e-05,1e-05,-3e-05,-1e-05,-5e-05,-0.00012,0.00014,6,24
30561,-0.00015,-4e-05,1e-05,-3e-05,-1e-05,-5e-05,-0.00012,0.00014,6,24
30562,-0.00015,-4e-05,1e-05,-3e-05,-1e-05,-5e-05,-0.00012,0.00014,6,24
30563,-0.00015,-4e-05,1e-05,-3e-05,-1e-05,-5e-05,-0.00012,0.00014,6,24
30564,-0.00015,-4e-05,1e-05,-3e-05,-1e-05,-5e-05,-0.00012,0.00014,6,24
30565,-0.00015,-4e-05,1e-05,-3e-05,-1e-05,-5e-05,-0.00012,0.00014,6,24
30566,-0.00015,-4e-05,1e-05,-3e-05,-1e-05,-5e-05,-0.00012,0.00014,6,24
30567,-0.00015,-4e-05,1e-05,-3e-05,-1e-05,-5e-05,-0.00012,0.00014,6,24
30568,-0.00015,-4e-05,1e-05,-3e-05,-1e-05,-5e-05,-0.00012,0.00014,6,24
30569,-0.00015,-4e-05,1e-05,-3e-05,-1e-05,-5e-05,-0.00012,0.00014,6,24
30570,-0.00015,-4e-05,1e-05,-3e-05,-1e-05,-5e-05,-0.00012,0.00014,6,24
30571,-0.00015,-4e-05,1e-05,-3e-05,-1e-05,-5e-05,-0.00012,0.00014,6,24
30572,-0.00015,-4e-05,1e-05,-3e-05,-1e-05,-5e-05,-0.00012,0.00014,6,24
30573,-0.00015,-4e-05,1e-05,-3e-05,-1e-05,-5e-05,-0.00012,0.00014,6,24
30574,-0.00015,-4e-05,1e-05,-3e-05,-1e-05,-5e-05,-0.00012,0.00014,6,24
30575,-0.00015,-4e-05,1e-05,-3e-05,-1e-05,-5e-05,-0.00012,0.00014,6,24
30576,-0.00015,-4e-05,1e-05,-3e-05,-1e-05,-5e-05,-0.00012,0.00014,6,24
30577,-0.00015,-4e-05,1e-05,-3e-05,-1e-05,-5e-05,-0.00012,0.00014,6,24
30578,-0.00015,-4e-05,1e-05,-3e-05,-1e-05,-5e-05,-0.00012,0.00014,6,24
30579,6e-05,5e-05,3e-05,-4e-05,-0.00014,-6e-05,2e-05,-0.00032,6,24
30580,0,5e-05,-1e-05,0.0001,-3e-05,-5e-05,1e-05,-0.00013,6,24
30581,0,5e-05,-1e-05,0.0001,-3e-05,-5e-05,1e-05,-0.00013,6,24
30582,0,5e-05,-1e-05,0.0001,-3e-05,-5e-05,1e-05,-0.00013,6,24
30583,0,5e-05,-1e-05,0.0001,-3e-05,-5e-05,1e-05,-0.00013,6,24
30584,0,5e-05,-1e-05,0.0001,-3e-05,-5e-05,1e-05,-0.00013,6,24
30585,0,5e-05,-1e-05,0.0001,-3e-05,-5e-05,1e-05,-0.00013,6,24
30586,0,5e-05,-1e-05,0.0001,-3e-05,-5e-05,1e-05,-0.00013,6,24
30588,0,5e-05,-1e-05,0.0001,-3e-05,-5e-05,1e-05,-0.00013,6,24
30589,0,5e-05,-1e-05,0.0001,-3e-05,-5e-05,1e-05,-0.00013,6,24
30590,0,5e-05,-1e-05,0.0001,-3e-05,-5e-05,1e-05,-0.00013,6,24
30591,0,5e-05,-1e-05,0.0001,-3e-05,-5e-05,1e-05,-0.00013,6,24
30592,0,5e-05,-1e-05,0.0001,-3e-05,-5e-05,1e-05,-0.00013,6,24
30593,0,5e-05,-1e-05,0.0001,-3e-05,-5e-05,1e-05,-0.00013,6,24
30594,-0.0001,0,0,-5e-05,0.00015,0.00013,0.00013,-0.00057,6,24
30595,-0.0001,0,0,-5e-05,0.00015,0.00013,0.00013,-0.00057,6,24
30596,-0.0001,0,0,-5e-05,0.00015,0.00013,0.00013,-0.00057,6,24
30597,-0.0001,0,0,-5e-05,0.00015,0.00013,0.00013,-0.00057,6,24
30598,-0.0001,0,0,-5e-05,0.00015,0.00013,0.00013,-0.00057,6,24
30599,-0.0001,0,0,-5e-05,0.00015,0.00013,0.00013,-0.00057,6,24
30600,-0.0001,0,0,-5e-05,0.00015,0.00013,0.00013,-0.00057,6,24
30601,-0.00021,-2e-05,-1e-05,-1e-05,-0.00021,-6e-05,-0.0001,-9e-05,6,24
30602,-0.00021,-2e-05,-1e-05,-1e-05,-0.00021,-6e-05,-0.0001,-9e-05,6,24
30603,-0.00021,-2e-05,-1e-05,-1e-05,-0.00021,-6e-05,-0.0001,-9e-05,6,24
30604,-0.00021,-2e-05,-1e-05,-1e-05,-0.00021,-6e-05,-0.0001,-9e-05,6,24
30605,-0.00021,-2e-05,-1e-05,-1e-05,-0.00021,-6e-05,-0.0001,-9e-05,6,24
30606,-0.00021,-2e-05,-1e-05,-1e-05,-0.00021,-6e-05,-0.0001,-9e-05,6,24
30607,-0.00021,-2e-05,-1e-05,-1e-05,-0.00021,-6e-05,-0.0001,-9e-05,6,24
30608,-0.00021,-2e-05,-1e-05,-1e-05,-0.00021,-6e-05,-0.0001,-9e-05,6,24
30609,-0.00021,-2e-05,-1e-05,-1e-05,-0.00021,-6e-05,-0.0001,-9e-05,6,24
30610,-0.00021,-2e-05,-1e-05,-1e-05,-0.00021,-6e-05,-0.0001,-9e-05,6,24
30611,-0.00021,-2e-05,-1e-05,-1e-05,-0.00021,-6e-05,-0.0001,-9e-05,6,24
30612,-0.00021,-2e-05,-1e-05,-1e-05,-0.00021,-6e-05,-0.0001,-9e-05,6,24
30613,-0.00021,-2e-05,-1e-05,-1e-05,-0.00021,-6e-05,-0.0001,-9e-05,6,24
30614,-0.00021,-2e-05,-1e-05,-1e-05,-0.00021,-6e-05,-0.0001,-9e-05,6,24
30615,-0.00021,-2e-05,-1e-05,-1e-05,-0.00021,-6e-05,-0.0001,-9e-05,6,24
30616,-0.00021,-2e-05,-1e-05,-1e-05,-0.00021,-6e-05,-0.0001,-9e-05,6,24
30617,-0.00011,-2e-05,2e-05,3e-05,9e-05,-8e-05,9e-05,-1e-05,6,24
30618,-0.00011,-2e-05,2e-05,3e-05,9e-05,-8e-05,9e-05,-1e-05,6,24
30619,-0.00011,-2e-05,2e-05,3e-05,9e-05,-8e-05,9e-05,-1e-05,6,24
30620,-0.00011,-2e-05,2e-05,3e-05,9e-05,-8e-05,9e-05,-1e-05,6,24
30621,-0.00011,-2e-05,2e-05,3e-05,9e-05,-8e-05,9e-05,-1e-05,6,24
30622,-0.00011,-2e-05,2e-05,3e-05,9e-05,-8e-05,9e-05,-1e-05,6,24
30623,-0.00011,-2e-05,2e-05,3e-05,9e-05,-8e-05,9e-05,-1e-05,6,24
30624,-0.00011,-2e-05,2e-05,3e-05,9e-05,-8e-05,9e-05,-1e-05,6,24
30625,-0.00011,-2e-05,2e-05,3e-05,9e-05,-8e-05,9e-05,-1e-05,6,24
30626,-0.00011,-2e-05,2e-05,3e-05,9e-05,-8e-05,9e-05,-1e-05,6,24
30627,-0.00011,-2e-05,2e-05,3e-05,9e-05,-8e-05,9e-05,-1e-05,6,24
30628,-0.00011,-2e-05,2e-05,3e-05,9e-05,-8e-05,9e-05,-1e-05,6,24
30629,-0.00011,-2e-05,2e-05,3e-05,9e-05,-8e-05,9e-05,-1e-05,6,24
30630,-0.00011,-2e-05,2e-05,3e-05,9e-05,-8e-05,9e-05,-1e-05,6,24
30631,-0.00011,-2e-05,2e-05,3e-05,9e-05,-8e-05,9e-05,-1e-05,6,24
30632,-0.00011,-2e-05,2e-05,3e-05,9e-05,-8e-05,9e-05,-1e-05,6,24
30633,-0.00011,-2e-05,2e-05,3e-05,9e-05,-8e-05,9e-05,-1e-05,6,24
30634,-0.00011,-2e-05,2e-05,3e-05,9e-05,-8e-05,9e-05,-1e-05,6,24
30635,-0.00011,-2e-05,2e-05,3e-05,9e-05,-8e-05,9e-05,-1e-05,6,24
30636,-0.00011,-2e-05,2e-05,3e-05,9e-05,-8e-05,9e-05,-1e-05,6,24
30638,-0.00011,-2e-05,2e-05,3e-05,9e-05,-8e-05,9e-05,-1e-05,6,24
30639,6e-05,1e-05,0,-4e-05,-3e-05,1e-05,3e-05,0.00013,6,24
30640,-0.00015,-6e-05,-5e-05,-4e-05,-0.00016,0,0,-1e-05,6,24
30641,-0.00015,-6e-05,-5e-05,-4e-05,-0.00016,0,0,-1e-05,6,24
30642,-0.00015,-6e-05,-5e-05,-4e-05,-0.00016,0,0,-1e-05,6,24
30643,-0.00015,-6e-05,-5e-05,-4e-05,-0.00016,0,0,-1e-05,6,24
30644,-0.00015,-6e-05,-5e-05,-4e-05,-0.00016,0,0,-1e-05,6,24
30645,-0.00015,-6e-05,-5e-05,-4e-05,-0.00016,0,0,-1e-05,6,24
30646,-0.00015,-6e-05,-5e-05,-4e-05,-0.00016,0,0,-1e-05,6,24
30647,-0.00015,-6e-05,-5e-05,-4e-05,-0.00016,0,0,-1e-05,6,24
30648,-0.00015,-6e-05,-5e-05,-4e-05,-0.00016,0,0,-1e-05,6,24
30649,-0.00015,-6e-05,-5e-05,-4e-05,-0.00016,0,0,-1e-05,6,24
30650,-0.00015,-6e-05,-5e-05,-4e-05,-0.00016,0,0,-1e-05,6,24
30651,-0.00015,-6e-05,-5e-05,-4e-05,-0.00016,0,0,-1e-05,6,24
30652,-0.00015,-6e-05,-5e-05,-4e-05,-0.00016,0,0,-1e-05,6,24
30653,0.00019,3e-05,0,5e-05,-4e-05,-3e-05,0.00018,0.00052,6,24
30654,0.00019,3e-05,0,5e-05,-4e-05,-3e-05,0.00018,0.00052,6,24
30655,0.00019,3e-05,0,5e-05,-4e-05,-3e-05,0.00018,0.00052,6,24
30656,0.00019,3e-05,0,5e-05,-4e-05,-3e-05,0.00018,0.00052,6,24
30657,0.00019,3e-05,0,5e-05,-4e-05,-3e-05,0.00018,0.00052,6,24
30658,0.00019,3e-05,0,5e-05,-4e-05,-3e-05,0.00018,0.00052,6,24
30659,0.00019,3e-05,0,5e-05,-4e-05,-3e-05,0.00018,0.00052,6,24
30660,0.00019,3e-05,0,5e-05,-4e-05,-3e-05,0.00018,0.00052,6,24
30661,0.00019,3e-05,0,5e-05,-4e-05,-3e-05,0.00018,0.00052,6,24
30662,0.00015,2e-05,-2e-05,-5e-05,-0.00028,9e-05,-2e-05,-7e-05,6,24
30663,0.00015,2e-05,-2e-05,-5e-05,-0.00028,9e-05,-2e-05,-7e-05,6,24
30664,0.00015,2e-05,-2e-05,-5e-05,-0.00028,9e-05,-2e-05,-7e-05,6,24
30665,0.00015,2e-05,-2e-05,-5e-05,-0.00028,9e-05,-2e-05,-7e-05,6,24
30666,0.00015,2e-05,-2e-05,-5e-05,-0.00028,9e-05,-2e-05,-7e-05,6,24
30667,0.00015,2e-05,-2e-05,-5e-05,-0.00028,9e-05,-2e-05,-7e-05,6,24
30668,0.00015,2e-05,-2e-05,-5e-05,-0.00028,9e-05,-2e-05,-7e-05,6,24
30669,0.00015,2e-05,-2e-05,-5e-05,-0.00028,9e-05,-2e-05,-7e-05,6,24
30670,0.00015,2e-05,-2e-05,-5e-05,-0.00028,9e-05,-2e-05,-7e-05,6,24
30671,0.00015,2e-05,-2e-05,-5e-05,-0.00028,9e-05,-2e-05,-7e-05,6,24
30672,0.00015,2e-05,-2e-05,-5e-05,-0.00028,9e-05,-2e-05,-7e-05,6,24
30673,0.00015,2e-05,-2e-05,-5e-05,-0.00028,9e-05,-2e-05,-7e-05,6,24
30674,0.00015,2e-05,-2e-05,-5e-05,-0.00028,9e-05,-2e-05,-7e-05,6,24
30675,0.00015,2e-05,-2e-05,-5e-05,-0.00028,9e-05,-2e-05,-7e-05,6,24
30676,0.00015,2e-05,-2e-05,-5e-05,-0.00028,9e-05,-2e-05,-7e-05,6,24
30677,0.00011,-7e-05,-0.00013,-0.00012,-0.0003,2e-05,-0.00012,0.00088,6,24
30678,-0.00012,-2e-05,-2e-05,-4e-05,3e-05,-7e-05,0,-8e-05,6,24
30679,-0.00012,-2e-05,-2e-05,-4e-05,3e-05,-7e-05,0,-8e-05,6,24
30680,-0.00012,-2e-05,-2e-05,-4e-05,3e-05,-7e-05,0,-8e-05,6,24
30681,-0.00012,-2e-05,-2e-05,-4e-05,3e-05,-7e-05,0,-8e-05,6,24
30682,-0.00012,-2e-05,-2e-05,-4e-05,3e-05,-7e-05,0,-8e-05,6,24
30683,-0.00012,-2e-05,-2e-05,-4e-05,3e-05,-7e-05,0,-8e-05,6,24
30684,-0.00012,-2e-05,-2e-05,-4e-05,3e-05,-7e-05,0,-8e-05,6,24
30685,-0.00012,-2e-05,-2e-05,-4e-05,3e-05,-7e-05,0,-8e-05,6,24
30686,-0.00012,-2e-05,-2e-05,-4e-05,3e-05,-7e-05,0,-8e-05,6,24
30688,-0.00012,-2e-05,-2e-05,-4e-05,3e-05,-7e-05,0,-8e-05,6,24
30689,-0.00012,-2e-05,-2e-05,-4e-05,3e-05,-7e-05,0,-8e-05,6,24
30690,-0.00012,-2e-05,-2e-05,-4e-05,3e-05,-7e-05,0,-8e-05,6,24
30691,-0.00012,-2e-05,-2e-05,-4e-05,3e-05,-7e-05,0,-8e-05,6,24
30692,-0.00012,-2e-05,-2e-05,-4e-05,3e-05,-7e-05,0,-8e-05,6,24
30693,-0.00012,-2e-05,-2e-05,-4e-05,3e-05,-7e-05,0,-8e-05,6,24
30694,-0.00012,-2e-05,-2e-05,-4e-05,3e-05,-7e-05,0,-8e-05,6,24
30695,-0.00012,-2e-05,-2e-05,-4e-05,3e-05,-7e-05,0,-8e-05,6,24
30696,-0.00012,-2e-05,-2e-05,-4e-05,3e-05,-7e-05,0,-8e-05,6,24
30697,-0.00012,-2e-05,-2e-05,-4e-05,3e-05,-7e-05,0,-8e-05,6,24
30698,-0.00012,-2e-05,-2e-05,-4e-05,3e-05,-7e-05,0,-8e-05,6,24
30699,0.00017,3e-05,0,0,-4e-05,2e-05,-9e-05,-0.00028,6,24
30700,-3e-05,-2e-05,-2e-05,-6e-05,-3e-05,0.0001,-3e-05,2e-05,6,24
30701,-3e-05,-2e-05,-2e-05,-6e-05,-3e-05,0.0001,-3e-05,2e-05,6,24
30702,-3e-05,-2e-05,-2e-05,-6e-05,-3e-05,0.0001,-3e-05,2e-05,6,24
30703,-3e-05,-2e-05,-2e-05,-6e-05,-3e-05,0.0001,-3e-05,2e-05,6,24
30704,-3e-05,-2e-05,-2e-05,-6e-05,-3e-05,0.0001,-3e-05,2e-05,6,24
30705,-3e-05,-2e-05,-2e-05,-6e-05,-3e-05,0.0001,-3e-05,2e-05,6,24
30706,-3e-05,-2e-05,-2e-05,-6e-05,-3e-05,0.0001,-3e-05,2e-05,6,24
30707,-3e-05,-2e-05,-2e-05,-6e-05,-3e-05,0.0001,-3e-05,2e-05,6,24
30708,-3e-05,-2e-05,-2e-05,-6e-05,-3e-05,0.0001,-3e-05,2e-05,6,24
30709,-3e-05,-2e-05,-2e-05,-6e-05,-3e-05,0.0001,-3e-05,2e-05,6,24
30710,-3e-05,-2e-05,-2e-05,-6e-05,-3e-05,0.0001,-3e-05,2e-05,6,24
30711,-3e-05,-2e-05,-2e-05,-6e-05,-3e-05,0.0001,-3e-05,2e-05,6,24
30712,-3e-05,-2e-05,-2e-05,-6e-05,-3e-05,0.0001,-3e-05,2e-05,6,24
30713,-7e-05,1e-05,4e-05,3e-05,2e-05,-9e-05,0.0002,-0.0003,6,24
30714,-7e-05,1e-05,4e-05,3e-05,2e-05,-9e-05,0.0002,-0.0003,6,24
30715,-7e-05,1e-05,4e-05,3e-05,2e-05,-9e-05,0.0002,-0.0003,6,24
30716,-7e-05,1e-05,4e-05,3e-05,2e-05,-9e-05,0.0002,-0.0003,6,24
30717,-7e-05,1e-05,4e-05,3e-05,2e-05,-9e-05,0.0002,-0.0003,6,24
30718,-7e-05,1e-05,4e-05,3e-05,2e-05,-9e-05,0.0002,-0.0003,6,24
30719,-7e-05,1e-05,4e-05,3e-05,2e-05,-9e-05,0.0002,-0.0003,6,24
30720,-7e-05,1e-05,4e-05,3e-05,2e-05,-9e-05,0.0002,-0.0003,6,24
30721,-6e-05,-2e-05,-3e-05,-3e-05,1e-05,6e-05,-4e-05,0,6,24
30722,1e-05,-2e-05,-1e-05,0,-1e-05,-5e-05,2e-05,-4e-05,6,24
30723,1e-05,-2e-05,-1e-05,0,-1e-05,-5e-05,2e-05,-4e-05,6,24
30724,1e-05,-2e-05,-1e-05,0,-1e-05,-5e-05,2e-05,-4e-05,6,24
30725,1e-05,-2e-05,-1e-05,0,-1e-05,-5e-05,2e-05,-4e-05,6,24
30726,1e-05,-2e-05,-1e-05,0,-1e-05,-5e-05,2e-05,-4e-05,6,24
30727,1e-05,-2e-05,-1e-05,0,-1e-05,-5e-05,2e-05,-4e-05,6,24
30728,1e-05,-2e-05,-1e-05,0,-1e-05,-5e-05,2e-05,-4e-05,6,24
30729,1e-05,-2e-05,-1e-05,0,-1e-05,-5e-05,2e-05,-4e-05,6,24
30730,1e-05,-2e-05,-1e-05,0,-1e-05,-5e-05,2e-05,-4e-05,6,24
30731,1e-05,-2e-05,-1e-05,0,-1e-05,-5e-05,2e-05,-4e-05,6,24
30732,1e-05,-2e-05,-1e-05,0,-1e-05,-5e-05,2e-05,-4e-05,6,24
30733,1e-05,-2e-05,-1e-05,0,-1e-05,-5e-05,2e-05,-4e-05,6,24
30734,1e-05,-2e-05,-1e-05,0,-1e-05,-5e-05,2e-05,-4e-05,6,24
30735,1e-05,-2e-05,-1e-05,0,-1e-05,-5e-05,2e-05,-4e-05,6,24
30736,1e-05,-2e-05,-1e-05,0,-1e-05,-5e-05,2e-05,-4e-05,6,24
30738,9e-05,4e-05,0,-3e-05,-0.00016,-0.00017,-3e-05,0.00034,6,24
30739,9e-05,4e-05,0,-3e-05,-0.00016,-0.00017,-3e-05,0.00034,6,24
30740,9e-05,4e-05,0,-3e-05,-0.00016,-0.00017,-3e-05,0.00034,6,24
30741,9e-05,4e-05,0,-3e-05,-0.00016,-0.00017,-3e-05,0.00034,6,24
30742,9e-05,4e-05,0,-3e-05,-0.00016,-0.00017,-3e-05,0.00034,6,24
30743,9e-05,4e-05,0,-3e-05,-0.00016,-0.00017,-3e-05,0.00034,6,24
30744,9e-05,4e-05,0,-3e-05,-0.00016,-0.00017,-3e-05,0.00034,6,24
30745,9e-05,4e-05,0,-3e-05,-0.00016,-0.00017,-3e-05,0.00034,6,24
30746,9e-05,4e-05,0,-3e-05,-0.00016,-0.00017,-3e-05,0.00034,6,24
30747,9e-05,4e-05,0,-3e-05,-0.00016,-0.00017,-3e-05,0.00034,6,24
30748,9e-05,4e-05,0,-3e-05,-0.00016,-0.00017,-3e-05,0.00034,6,24
30749,9e-05,4e-05,0,-3e-05,-0.00016,-0.00017,-3e-05,0.00034,6,24
30750,9e-05,4e-05,0,-3e-05,-0.00016,-0.00017,-3e-05,0.00034,6,24
30751,9e-05,4e-05,0,-3e-05,-0.00016,-0.00017,-3e-05,0.00034,6,24
30752,9e-05,4e-05,0,-3e-05,-0.00016,-0.00017,-3e-05,0.00034,6,24
30753,9e-05,4e-05,0,-3e-05,-0.00016,-0.00017,-3e-05,0.00034,6,24
30754,9e-05,4e-05,0,-3e-05,-0.00016,-0.00017,-3e-05,0.00034,6,24
30755,9e-05,4e-05,0,-3e-05,-0.00016,-0.00017,-3e-05,0.00034,6,24
30756,9e-05,4e-05,0,-3e-05,-0.00016,-0.00017,-3e-05,0.00034,6,24
30757,9e-05,4e-05,0,-3e-05,-0.00016,-0.00017,-3e-05,0.00034,6,24
30758,9e-05,4e-05,0,-3e-05,-0.00016,-0.00017,-3e-05,0.00034,6,24
30759,9e-05,4e-05,0,-3e-05,-0.00016,-0.00017,-3e-05,0.00034,6,24
30760,9e-05,4e-05,0,-3e-05,-0.00016,-0.00017,-3e-05,0.00034,6,24
30761,-0.00011,-3e-05,-1e-05,-1e-05,0.00012,4e-05,9e-05,-0.00048,6,24
30762,-0.00011,-3e-05,-1e-05,-1e-05,0.00012,4e-05,9e-05,-0.00048,6,24
30763,-0.00011,-3e-05,-1e-05,-1e-05,0.00012,4e-05,9e-05,-0.00048,6,24
30764,-0.00011,-3e-05,-1e-05,-1e-05,0.00012,4e-05,9e-05,-0.00048,6,24
30765,-0.00011,-3e-05,-1e-05,-1e-05,0.00012,4e-05,9e-05,-0.00048,6,24
30766,-0.00011,-3e-05,-1e-05,-1e-05,0.00012,4e-05,9e-05,-0.00048,6,24
30767,-0.00011,-3e-05,-1e-05,-1e-05,0.00012,4e-05,9e-05,-0.00048,6,24
30768,-0.00011,-3e-05,-1e-05,-1e-05,0.00012,4e-05,9e-05,-0.00048,6,24
30769,-0.00011,-3e-05,-1e-05,-1e-05,0.00012,4e-05,9e-05,-0.00048,6,24
30770,-0.00011,-3e-05,-1e-05,-1e-05,0.00012,4e-05,9e-05,-0.00048,6,24
30771,-0.00011,-3e-05,-1e-05,-1e-05,0.00012,4e-05,9e-05,-0.00048,6,24
30772,-0.00011,-3e-05,-1e-05,-1e-05,0.00012,4e-05,9e-05,-0.00048,6,24
30773,4e-05,-3e-05,-0.0001,-2e-05,-1e-05,-6e-05,-0.00017,-0.00018,6,24
30774,4e-05,-3e-05,-0.0001,-2e-05,-1e-05,-6e-05,-0.00017,-0.00018,6,24
30775,4e-05,-3e-05,-0.0001,-2e-05,-1e-05,-6e-05,-0.00017,-0.00018,6,24
30776,4e-05,-3e-05,-0.0001,-2e-05,-1e-05,-6e-05,-0.00017,-0.00018,6,24
30777,4e-05,-3e-05,-0.0001,-2e-05,-1e-05,-6e-05,-0.00017,-0.00018,6,24
30778,4e-05,-3e-05,-0.0001,-2e-05,-1e-05,-6e-05,-0.00017,-0.00018,6,24
30779,4e-05,-3e-05,-0.0001,-2e-05,-1e-05,-6e-05,-0.00017,-0.00018,6,24
30780,4e-05,-3e-05,-0.0001,-2e-05,-1e-05,-6e-05,-0.00017,-0.00018,6,24
30781,-4e-05,-5e-05,0,3e-05,9e-05,-8e-05,7e-05,4e-05,6,24
30782,-9e-05,-1e-05,0,-5e-05,-0.00014,1e-05,-9e-05,6e-05,6,24
30783,-9e-05,-1e-05,0,-5e-05,-0.00014,1e-05,-9e-05,6e-05,6,24
30784,-9e-05,-1e-05,0,-5e-05,-0.00014,1e-05,-9e-05,6e-05,6,24
30785,-9e-05,-1e-05,0,-5e-05,-0.00014,1e-05,-9e-05,6e-05,6,24
30786,-9e-05,-1e-05,0,-5e-05,-0.00014,1e-05,-9e-05,6e-05,6,24
30788,-9e-05,-1e-05,0,-5e-05,-0.00014,1e-05,-9e-05,6e-05,6,24
30789,-9e-05,-1e-05,0,-5e-05,-0.00014,1e-05,-9e-05,6e-05,6,24
30790,-9e-05,-1e-05,0,-5e-05,-0.00014,1e-05,-9e-05,6e-05,6,24
30791,-9e-05,-1e-05,0,-5e-05,-0.00014,1e-05,-9e-05,6e-05,6,24
30792,-9e-05,-1e-05,0,-5e-05,-0.00014,1e-05,-9e-05,6e-05,6,24
30793,-9e-05,-1e-05,0,-5e-05,-0.00014,1e-05,-9e-05,6e-05,6,24
30794,-9e-05,-1e-05,0,-5e-05,-0.00014,1e-05,-9e-05,6e-05,6,24
30795,-9e-05,-1e-05,0,-5e-05,-0.00014,1e-05,-9e-05,6e-05,6,24
30796,0.00025,4e-05,1e-05,-6e-05,-5e-05,-7e-05,-0.00011,-0.00053,6,24
30797,-0.00015,-4e-05,-1e-05,-5e-05,-0.00012,3e-05,0,0.00022,6,24
30798,-0.00012,-6e-05,-4e-05,-2e-05,-8e-05,-0.00018,5e-05,0.00025,6,24
30799,-0.00012,-6e-05,-4e-05,-2e-05,-8e-05,-0.00018,5e-05,0.00025,6,24
30800,-0.00012,-6e-05,-4e-05,-2e-05,-8e-05,-0.00018,5e-05,0.00025,6,24
30801,-0.00012,-6e-05,-4e-05,-2e-05,-8e-05,-0.00018,5e-05,0.00025,6,24
30802,-0.00012,-6e-05,-4e-05,-2e-05,-8e-05,-0.00018,5e-05,0.00025,6,24
30803,-0.00012,-6e-05,-4e-05,-2e-05,-8e-05,-0.00018,5e-05,0.00025,6,24
30804,-0.00012,-6e-05,-4e-05,-2e-05,-8e-05,-0.00018,5e-05,0.00025,6,24
30805,-0.00012,-6e-05,-4e-05,-2e-05,-8e-05,-0.00018,5e-05,0.00025,6,24
30806,-0.00012,-6e-05,-4e-05,-2e-05,-8e-05,-0.00018,5e-05,0.00025,6,24
30807,-0.00012,-6e-05,-4e-05,-2e-05,-8e-05,-0.00018,5e-05,0.00025,6,24
30808,-0.00012,-6e-05,-4e-05,-2e-05,-8e-05,-0.00018,5e-05,0.00025,6,24
30809,-0.00012,-6e-05,-4e-05,-2e-05,-8e-05,-0.00018,5e-05,0.00025,6,24
30810,-0.00012,-6e-05,-4e-05,-2e-05,-8e-05,-0.00018,5e-05,0.00025,6,24
30811,-0.00012,-6e-05,-4e-05,-2e-05,-8e-05,-0.00018,5e-05,0.00025,6,24
30812,-0.00012,-6e-05,-4e-05,-2e-05,-8e-05,-0.00018,5e-05,0.00025,6,24
30813,-0.00012,-6e-05,-4e-05,-2e-05,-8e-05,-0.00018,5e-05,0.00025,6,24
30814,-0.00012,-6e-05,-4e-05,-2e-05,-8e-05,-0.00018,5e-05,0.00025,6,24
30815,-0.00012,-6e-05,-4e-05,-2e-05,-8e-05,-0.00018,5e-05,0.00025,6,24
30816,-0.00012,-6e-05,-4e-05,-2e-05,-8e-05,-0.00018,5e-05,0.00025,6,24
30817,-0.00012,-6e-05,-4e-05,-2e-05,-8e-05,-0.00018,5e-05,0.00025,6,24
30818,-0.00012,-6e-05,-4e-05,-2e-05,-8e-05,-0.00018,5e-05,0.00025,6,24
30819,-0.00012,-6e-05,-4e-05,-2e-05,-8e-05,-0.00018,5e-05,0.00025,6,24
30820,1e-05,0,-1e-05,2e-05,7e-05,-3e-05,0,-9e-05,6,24
30821,1e-05,0,-1e-05,2e-05,7e-05,-3e-05,0,-9e-05,6,24
30822,1e-05,0,-1e-05,2e-05,7e-05,-3e-05,0,-9e-05,6,24
30823,1e-05,0,-1e-05,2e-05,7e-05,-3e-05,0,-9e-05,6,24
30824,1e-05,0,-1e-05,2e-05,7e-05,-3e-05,0,-9e-05,6,24
30825,1e-05,0,-1e-05,2e-05,7e-05,-3e-05,0,-9e-05,6,24
30826,1e-05,0,-1e-05,2e-05,7e-05,-3e-05,0,-9e-05,6,24
30827,1e-05,0,-1e-05,2e-05,7e-05,-3e-05,0,-9e-05,6,24
30828,1e-05,0,-1e-05,2e-05,7e-05,-3e-05,0,-9e-05,6,24
30829,1e-05,0,-1e-05,2e-05,7e-05,-3e-05,0,-9e-05,6,24
30830,1e-05,0,-1e-05,2e-05,7e-05,-3e-05,0,-9e-05,6,24
30831,1e-05,0,-1e-05,2e-05,7e-05,-3e-05,0,-9e-05,6,24
30832,1e-05,0,-1e-05,2e-05,7e-05,-3e-05,0,-9e-05,6,24
30833,3e-05,-1e-05,-1e-05,2e-05,-0.00012,-0.00011,-8e-05,-5e-05,6,24
30834,3e-05,-1e-05,-1e-05,2e-05,-0.00012,-0.00011,-8e-05,-5e-05,6,24
30835,3e-05,-1e-05,-1e-05,2e-05,-0.00012,-0.00011,-8e-05,-5e-05,6,24
30836,3e-05,-1e-05,-1e-05,2e-05,-0.00012,-0.00011,-8e-05,-5e-05,6,24
30838,3e-05,-1e-05,-1e-05,2e-05,-0.00012,-0.00011,-8e-05,-5e-05,6,24
30839,3e-05,-1e-05,-1e-05,2e-05,-0.00012,-0.00011,-8e-05,-5e-05,6,24
30840,3e-05,-1e-05,-1e-05,2e-05,-0.00012,-0.00011,-8e-05,-5e-05,6,24
30841,3e-05,-1e-05,-1e-05,2e-05,-0.00012,-0.00011,-8e-05,-5e-05,6,24
30842,-6e-05,-3e-05,-2e-05,-1e-05,0.00017,9e-05,0.00025,0.00045,6,24
30843,-6e-05,-3e-05,-2e-05,-1e-05,0.00017,9e-05,0.00025,0.00045,6,24
30845,-6e-05,-3e-05,-2e-05,-1e-05,0.00017,9e-05,0.00025,0.00045,6,24
30846,-6e-05,-3e-05,-2e-05,-1e-05,0.00017,9e-05,0.00025,0.00045,6,24
30847,-6e-05,-3e-05,-2e-05,-1e-05,0.00017,9e-05,0.00025,0.00045,6,24
30848,-6e-05,-3e-05,-2e-05,-1e-05,0.00017,9e-05,0.00025,0.00045,6,24
30849,-6e-05,-3e-05,-2e-05,-1e-05,0.00017,9e-05,0.00025,0.00045,6,24
30850,-6e-05,-3e-05,-2e-05,-1e-05,0.00017,9e-05,0.00025,0.00045,6,24
30851,-6e-05,-3e-05,-2e-05,-1e-05,0.00017,9e-05,0.00025,0.00045,6,24
30852,-6e-05,-3e-05,-2e-05,-1e-05,0.00017,9e-05,0.00025,0.00045,6,24
30853,-6e-05,-3e-05,-2e-05,-1e-05,0.00017,9e-05,0.00025,0.00045,6,24
30854,-6e-05,-3e-05,-2e-05,-1e-05,0.00017,9e-05,0.00025,0.00045,6,24
30855,-6e-05,-3e-05,-2e-05,-1e-05,0.00017,9e-05,0.00025,0.00045,6,24
30856,-6e-05,-3e-05,-2e-05,-1e-05,0.00017,9e-05,0.00025,0.00045,6,24
30857,0.00014,5e-05,2e-05,1e-05,5e-05,-4e-05,-3e-05,-0.00011,6,24
30858,0.00034,2e-05,0,3e-05,1e-05,-1e-05,-5e-05,-1e-05,6,24
30859,0.00034,2e-05,0,3e-05,1e-05,-1e-05,-5e-05,-1e-05,6,24
30860,0.00034,2e-05,0,3e-05,1e-05,-1e-05,-5e-05,-1e-05,6,24
30861,0.00034,2e-05,0,3e-05,1e-05,-1e-05,-5e-05,-1e-05,6,24
30862,0.00034,2e-05,0,3e-05,1e-05,-1e-05,-5e-05,-1e-05,6,24
30863,0.00034,2e-05,0,3e-05,1e-05,-1e-05,-5e-05,-1e-05,6,24
30864,0.00034,2e-05,0,3e-05,1e-05,-1e-05,-5e-05,-1e-05,6,24
30865,0.00034,2e-05,0,3e-05,1e-05,-1e-05,-5e-05,-1e-05,6,24
30866,0.00034,2e-05,0,3e-05,1e-05,-1e-05,-5e-05,-1e-05,6,24
30867,0.00034,2e-05,0,3e-05,1e-05,-1e-05,-5e-05,-1e-05,6,24
30868,0.00034,2e-05,0,3e-05,1e-05,-1e-05,-5e-05,-1e-05,6,24
30869,0.00034,2e-05,0,3e-05,1e-05,-1e-05,-5e-05,-1e-05,6,24
30870,0.00034,2e-05,0,3e-05,1e-05,-1e-05,-5e-05,-1e-05,6,24
30871,0.00034,2e-05,0,3e-05,1e-05,-1e-05,-5e-05,-1e-05,6,24
30872,0.00034,2e-05,0,3e-05,1e-05,-1e-05,-5e-05,-1e-05,6,24
30873,0.00034,2e-05,0,3e-05,1e-05,-1e-05,-5e-05,-1e-05,6,24
30874,0.00034,2e-05,0,3e-05,1e-05,-1e-05,-5e-05,-1e-05,6,24
30875,0.00034,2e-05,0,3e-05,1e-05,-1e-05,-5e-05,-1e-05,6,24
30876,0.00034,2e-05,0,3e-05,1e-05,-1e-05,-5e-05,-1e-05,6,24
30877,0.00034,2e-05,0,3e-05,1e-05,-1e-05,-5e-05,-1e-05,6,24
30878,0.00034,2e-05,0,3e-05,1e-05,-1e-05,-5e-05,-1e-05,6,24
30879,0.00034,2e-05,0,3e-05,1e-05,-1e-05,-5e-05,-1e-05,6,24
30880,-2e-05,-4e-05,-2e-05,-1e-05,5e-05,3e-05,-9e-05,-8e-05,6,24
30881,-2e-05,-4e-05,-2e-05,-1e-05,5e-05,3e-05,-9e-05,-8e-05,6,24
30882,-2e-05,-4e-05,-2e-05,-1e-05,5e-05,3e-05,-9e-05,-8e-05,6,24
30883,-2e-05,-4e-05,-2e-05,-1e-05,5e-05,3e-05,-9e-05,-8e-05,6,24
30884,-2e-05,-4e-05,-2e-05,-1e-05,5e-05,3e-05,-9e-05,-8e-05,6,24
30885,-2e-05,-4e-05,-2e-05,-1e-05,5e-05,3e-05,-9e-05,-8e-05,6,24
30886,-2e-05,-4e-05,-2e-05,-1e-05,5e-05,3e-05,-9e-05,-8e-05,6,24
30888,-2e-05,-4e-05,-2e-05,-1e-05,5e-05,3e-05,-9e-05,-8e-05,6,24
30889,-2e-05,-4e-05,-2e-05,-1e-05,5e-05,3e-05,-9e-05,-8e-05,6,24
30890,-2e-05,-4e-05,-2e-05,-1e-05,5e-05,3e-05,-9e-05,-8e-05,6,24
30891,-2e-05,-4e-05,-2e-05,-1e-05,5e-05,3e-05,-9e-05,-8e-05,6,24
30892,-2e-05,-4e-05,-2e-05,-1e-05,5e-05,3e-05,-9e-05,-8e-05,6,24
30893,-2e-05,-4e-05,-2e-05,-1e-05,5e-05,3e-05,-9e-05,-8e-05,6,24
30894,-2e-05,-4e-05,-2e-05,-1e-05,5e-05,3e-05,-9e-05,-8e-05,6,24
30895,-2e-05,-4e-05,-2e-05,-1e-05,5e-05,3e-05,-9e-05,-8e-05,6,24
30896,-2e-05,-4e-05,-2e-05,-1e-05,5e-05,3e-05,-9e-05,-8e-05,6,24
30897,-2e-05,-4e-05,-2e-05,-1e-05,5e-05,3e-05,-9e-05,-8e-05,6,24
30898,-2e-05,-4e-05,-2e-05,-1e-05,5e-05,3e-05,-9e-05,-8e-05,6,24
30899,-2e-05,-4e-05,-2e-05,-1e-05,5e-05,3e-05,-9e-05,-8e-05,6,24
30900,-2e-05,-4e-05,-2e-05,-1e-05,5e-05,3e-05,-9e-05,-8e-05,6,24
30901,-2e-05,-4e-05,-2e-05,-1e-05,5e-05,3e-05,-9e-05,-8e-05,6,24
30902,-5e-05,-1e-05,1e-05,-4e-05,-0.0001,1e-05,2e-05,0,6,24
60830,-5e-05,-1e-05,-2e-05,-3e-05,-0.00033,3e-05,-0.00024,-5e-05,6,24
60832,-5e-05,-1e-05,-2e-05,-3e-05,-0.00033,3e-05,-0.00024,-5e-05,6,24
60833,-0.00011,-6e-05,-4e-05,-6e-05,8e-05,0.00017,-3e-05,-0.00032,6,24
60834,-0.00011,-6e-05,-4e-05,-6e-05,8e-05,0.00017,-3e-05,-0.00032,6,24
60835,-0.00011,-6e-05,-4e-05,-6e-05,8e-05,0.00017,-3e-05,-0.00032,6,24
60836,-0.00011,-6e-05,-4e-05,-6e-05,8e-05,0.00017,-3e-05,-0.00032,6,24
60838,-0.00011,-6e-05,-4e-05,-6e-05,8e-05,0.00017,-3e-05,-0.00032,6,24
60839,-0.00011,-6e-05,-4e-05,-6e-05,8e-05,0.00017,-3e-05,-0.00032,6,24
60840,-0.00011,-6e-05,-4e-05,-6e-05,8e-05,0.00017,-3e-05,-0.00032,6,24
60841,-0.00011,-6e-05,-4e-05,-6e-05,8e-05,0.00017,-3e-05,-0.00032,6,24
60842,-0.00011,-6e-05,-4e-05,-6e-05,8e-05,0.00017,-3e-05,-0.00032,6,24
60843,7e-05,-1e-05,0,-2e-05,0,0.00048,0.00011,0.00021,6,24
60844,7e-05,-1e-05,0,-2e-05,0,0.00048,0.00011,0.00021,6,24
60845,7e-05,-1e-05,0,-2e-05,0,0.00048,0.00011,0.00021,6,24
60846,7e-05,-1e-05,0,-2e-05,0,0.00048,0.00011,0.00021,6,24
60847,7e-05,-1e-05,0,-2e-05,0,0.00048,0.00011,0.00021,6,24
60848,7e-05,-1e-05,0,-2e-05,0,0.00048,0.00011,0.00021,6,24
60849,7e-05,-1e-05,0,-2e-05,0,0.00048,0.00011,0.00021,6,24
60850,7e-05,-1e-05,0,-2e-05,0,0.00048,0.00011,0.00021,6,24
60851,7e-05,-1e-05,0,-2e-05,0,0.00048,0.00011,0.00021,6,24
60852,7e-05,-1e-05,0,-2e-05,0,0.00048,0.00011,0.00021,6,24
60853,7e-05,-1e-05,0,-2e-05,0,0.00048,0.00011,0.00021,6,24
60854,7e-05,-1e-05,0,-2e-05,0,0.00048,0.00011,0.00021,6,24
60855,7e-05,-1e-05,0,-2e-05,0,0.00048,0.00011,0.00021,6,24
60856,7e-05,-1e-05,0,-2e-05,0,0.00048,0.00011,0.00021,6,24
60857,-8e-05,-5e-05,-4e-05,-6e-05,-0.0002,-1e-05,-0.00025,-0.00032,6,24
60858,-8e-05,-5e-05,-4e-05,-6e-05,-0.0002,-1e-05,-0.00025,-0.00032,6,24
60859,-0.00011,0,1e-05,-1e-05,3e-05,0.00019,-4e-05,-0.00026,6,24
60860,-0.00011,0,1e-05,-1e-05,3e-05,0.00019,-4e-05,-0.00026,6,24
60861,-0.00011,0,1e-05,-1e-05,3e-05,0.00019,-4e-05,-0.00026,6,24
60862,-0.00011,0,1e-05,-1e-05,3e-05,0.00019,-4e-05,-0.00026,6,24
60863,-0.00011,0,1e-05,-1e-05,3e-05,0.00019,-4e-05,-0.00026,6,24
60864,-0.00011,0,1e-05,-1e-05,3e-05,0.00019,-4e-05,-0.00026,6,24
60865,-0.00011,0,1e-05,-1e-05,3e-05,0.00019,-4e-05,-0.00026,6,24
60866,-0.00011,0,1e-05,-1e-05,3e-05,0.00019,-4e-05,-0.00026,6,24
60867,-0.00011,0,1e-05,-1e-05,3e-05,0.00019,-4e-05,-0.00026,6,24
60868,-0.00011,0,1e-05,-1e-05,3e-05,0.00019,-4e-05,-0.00026,6,24
60869,-0.00011,0,1e-05,-1e-05,3e-05,0.00019,-4e-05,-0.00026,6,24
60870,-0.00011,0,1e-05,-1e-05,3e-05,0.00019,-4e-05,-0.00026,6,24
60871,-0.00011,0,1e-05,-1e-05,3e-05,0.00019,-4e-05,-0.00026,6,24
60872,-0.00011,0,1e-05,-1e-05,3e-05,0.00019,-4e-05,-0.00026,6,24
60873,-0.00011,0,1e-05,-1e-05,3e-05,0.00019,-4e-05,-0.00026,6,24
60874,-0.00011,0,1e-05,-1e-05,3e-05,0.00019,-4e-05,-0.00026,6,24
60875,-0.00011,0,1e-05,-1e-05,3e-05,0.00019,-4e-05,-0.00026,6,24
60876,-0.00011,0,1e-05,-1e-05,3e-05,0.00019,-4e-05,-0.00026,6,24
60877,-0.00011,0,1e-05,-1e-05,3e-05,0.00019,-4e-05,-0.00026,6,24
60878,-0.00011,0,1e-05,-1e-05,3e-05,0.00019,-4e-05,-0.00026,6,24
60879,0,0,0,-8e-05,-0.00024,0.00021,0.00016,0.0002,6,24
60880,0,0,0,-8e-05,-0.00024,0.00021,0.00016,0.0002,6,24
60881,-0.00011,-3e-05,-5e-05,-5e-05,-0.00031,-0.00067,-0.00014,-4e-05,6,24
60882,-0.00011,-3e-05,-5e-05,-5e-05,-0.00031,-0.00067,-0.00014,-4e-05,6,24
60883,-0.00011,-3e-05,-5e-05,-5e-05,-0.00031,-0.00067,-0.00014,-4e-05,6,24
60884,-0.00011,-3e-05,-5e-05,-5e-05,-0.00031,-0.00067,-0.00014,-4e-05,6,24
60885,-0.00011,-3e-05,-5e-05,-5e-05,-0.00031,-0.00067,-0.00014,-4e-05,6,24
60886,-0.00011,-3e-05,-5e-05,-5e-05,-0.00031,-0.00067,-0.00014,-4e-05,6,24
60888,-0.00011,-3e-05,-5e-05,-5e-05,-0.00031,-0.00067,-0.00014,-4e-05,6,24
60889,-0.00011,-3e-05,-5e-05,-5e-05,-0.00031,-0.00067,-0.00014,-4e-05,6,24
60890,-0.00011,-3e-05,-5e-05,-5e-05,-0.00031,-0.00067,-0.00014,-4e-05,6,24
60891,-0.00011,-3e-05,-5e-05,-5e-05,-0.00031,-0.00067,-0.00014,-4e-05,6,24
60892,-0.00011,-3e-05,-5e-05,-5e-05,-0.00031,-0.00067,-0.00014,-4e-05,6,24
60893,0.00016,2e-05,3e-05,0,-0.00019,0.00031,0.00017,0.00126,6,24
60894,0.00016,2e-05,3e-05,0,-0.00019,0.00031,0.00017,0.00126,6,24
60895,0.00016,2e-05,3e-05,0,-0.00019,0.00031,0.00017,0.00126,6,24
60896,0.00016,2e-05,3e-05,0,-0.00019,0.00031,0.00017,0.00126,6,24
60897,0.00016,2e-05,3e-05,0,-0.00019,0.00031,0.00017,0.00126,6,24
60898,0.00016,2e-05,3e-05,0,-0.00019,0.00031,0.00017,0.00126,6,24
60899,0.00016,2e-05,3e-05,0,-0.00019,0.00031,0.00017,0.00126,6,24
60900,0.00016,2e-05,3e-05,0,-0.00019,0.00031,0.00017,0.00126,6,24
60901,0.00016,2e-05,3e-05,0,-0.00019,0.00031,0.00017,0.00126,6,24
60902,-1e-05,-2e-05,-3e-05,-2e-05,-0.00017,-0.00074,-0.00024,0.00047,6,24
60903,-1e-05,-2e-05,-3e-05,-2e-05,-0.00017,-0.00074,-0.00024,0.00047,6,24
60904,-1e-05,-2e-05,-3e-05,-2e-05,-0.00017,-0.00074,-0.00024,0.00047,6,24
60905,-1e-05,-2e-05,-3e-05,-2e-05,-0.00017,-0.00074,-0.00024,0.00047,6,24
60906,-1e-05,-2e-05,-3e-05,-2e-05,-0.00017,-0.00074,-0.00024,0.00047,6,24
60907,-1e-05,-2e-05,-3e-05,-2e-05,-0.00017,-0.00074,-0.00024,0.00047,6,24
60908,-1e-05,-2e-05,-3e-05,-2e-05,-0.00017,-0.00074,-0.00024,0.00047,6,24
60909,-1e-05,-2e-05,-3e-05,-2e-05,-0.00017,-0.00074,-0.00024,0.00047,6,24
60910,-1e-05,-2e-05,-3e-05,-2e-05,-0.00017,-0.00074,-0.00024,0.00047,6,24
60911,-1e-05,-2e-05,-3e-05,-2e-05,-0.00017,-0.00074,-0.00024,0.00047,6,24
60912,-1e-05,-2e-05,-3e-05,-2e-05,-0.00017,-0.00074,-0.00024,0.00047,6,24
60913,-1e-05,-2e-05,-3e-05,-2e-05,-0.00017,-0.00074,-0.00024,0.00047,6,24
60914,-1e-05,-2e-05,-3e-05,-2e-05,-0.00017,-0.00074,-0.00024,0.00047,6,24
60915,-1e-05,-2e-05,-3e-05,-2e-05,-0.00017,-0.00074,-0.00024,0.00047,6,24
60916,-1e-05,-2e-05,-3e-05,-2e-05,-0.00017,-0.00074,-0.00024,0.00047,6,24
60917,-6e-05,-2e-05,-2e-05,-6e-05,-0.00018,-0.00047,0.0001,-0.00032,6,24
60918,-0.00012,-4e-05,-2e-05,-3e-05,-0.00012,-0.00047,0.00017,-0.0006,6,24
60919,6e-05,1e-05,-5e-05,-4e-05,-0.0001,-0.00047,-6e-05,-0.00018,6,24
60920,6e-05,1e-05,-5e-05,-4e-05,-0.0001,-0.00047,-6e-05,-0.00018,6,24
60921,6e-05,1e-05,-5e-05,-4e-05,-0.0001,-0.00047,-6e-05,-0.00018,6,24
60922,6e-05,1e-05,-5e-05,-4e-05,-0.0001,-0.00047,-6e-05,-0.00018,6,24
60923,6e-05,1e-05,-5e-05,-4e-05,-0.0001,-0.00047,-6e-05,-0.00018,6,24
60924,6e-05,1e-05,-5e-05,-4e-05,-0.0001,-0.00047,-6e-05,-0.00018,6,24
60925,6e-05,1e-05,-5e-05,-4e-05,-0.0001,-0.00047,-6e-05,-0.00018,6,24
60926,6e-05,1e-05,-5e-05,-4e-05,-0.0001,-0.00047,-6e-05,-0.00018,6,24
60927,6e-05,1e-05,-5e-05,-4e-05,-0.0001,-0.00047,-6e-05,-0.00018,6,24
60928,6e-05,1e-05,-5e-05,-4e-05,-0.0001,-0.00047,-6e-05,-0.00018,6,24
60929,6e-05,1e-05,-5e-05,-4e-05,-0.0001,-0.00047,-6e-05,-0.00018,6,24
60930,6e-05,1e-05,-5e-05,-4e-05,-0.0001,-0.00047,-6e-05,-0.00018,6,24
60931,6e-05,1e-05,-5e-05,-4e-05,-0.0001,-0.00047,-6e-05,-0.00018,6,24
60932,6e-05,1e-05,-5e-05,-4e-05,-0.0001,-0.00047,-6e-05,-0.00018,6,24
60933,6e-05,1e-05,-5e-05,-4e-05,-0.0001,-0.00047,-6e-05,-0.00018,6,24
60934,6e-05,1e-05,-5e-05,-4e-05,-0.0001,-0.00047,-6e-05,-0.00018,6,24
60935,6e-05,1e-05,-5e-05,-4e-05,-0.0001,-0.00047,-6e-05,-0.00018,6,24
60936,6e-05,1e-05,-5e-05,-4e-05,-0.0001,-0.00047,-6e-05,-0.00018,6,24
60938,6e-05,1e-05,-5e-05,-4e-05,-0.0001,-0.00047,-6e-05,-0.00018,6,24
60939,0,2e-05,2e-05,3e-05,-6e-05,-0.00057,-0.00015,-0.00023,6,24
60940,0,2e-05,2e-05,3e-05,-6e-05,-0.00057,-0.00015,-0.00023,6,24
60941,0.00013,-5e-05,-3e-05,-1e-05,0.00035,-0.0002,7e-05,0.00072,6,24
60942,0.00013,-5e-05,-3e-05,-1e-05,0.00035,-0.0002,7e-05,0.00072,6,24
60943,0.00013,-5e-05,-3e-05,-1e-05,0.00035,-0.0002,7e-05,0.00072,6,24
60944,0.00013,-5e-05,-3e-05,-1e-05,0.00035,-0.0002,7e-05,0.00072,6,24
60945,0.00013,-5e-05,-3e-05,-1e-05,0.00035,-0.0002,7e-05,0.00072,6,24
60946,0.00013,-5e-05,-3e-05,-1e-05,0.00035,-0.0002,7e-05,0.00072,6,24
60947,0.00013,-5e-05,-3e-05,-1e-05,0.00035,-0.0002,7e-05,0.00072,6,24
60948,0.00013,-5e-05,-3e-05,-1e-05,0.00035,-0.0002,7e-05,0.00072,6,24
60949,0.00013,-5e-05,-3e-05,-1e-05,0.00035,-0.0002,7e-05,0.00072,6,24
60950,0.00013,-5e-05,-3e-05,-1e-05,0.00035,-0.0002,7e-05,0.00072,6,24
60951,0.00013,-5e-05,-3e-05,-1e-05,0.00035,-0.0002,7e-05,0.00072,6,24
60952,0.00013,-5e-05,-3e-05,-1e-05,0.00035,-0.0002,7e-05,0.00072,6,24
60953,-1e-05,0,2e-05,-1e-05,1e-05,8e-05,-0.00012,-0.00016,6,24
60954,-1e-05,0,2e-05,-1e-05,1e-05,8e-05,-0.00012,-0.00016,6,24
60955,-1e-05,0,2e-05,-1e-05,1e-05,8e-05,-0.00012,-0.00016,6,24
60956,-1e-05,0,2e-05,-1e-05,1e-05,8e-05,-0.00012,-0.00016,6,24
60957,-1e-05,0,2e-05,-1e-05,1e-05,8e-05,-0.00012,-0.00016,6,24
60958,-1e-05,0,2e-05,-1e-05,1e-05,8e-05,-0.00012,-0.00016,6,24
60959,-1e-05,0,2e-05,-1e-05,1e-05,8e-05,-0.00012,-0.00016,6,24
60960,-1e-05,0,2e-05,-1e-05,1e-05,8e-05,-0.00012,-0.00016,6,24
60961,-1e-05,0,2e-05,-1e-05,1e-05,8e-05,-0.00012,-0.00016,6,24
60962,-8e-05,0,0,1e-05,2e-05,-0.00031,-4e-05,-0.00028,6,24
60963,-8e-05,0,0,1e-05,2e-05,-0.00031,-4e-05,-0.00028,6,24
60964,-8e-05,0,0,1e-05,2e-05,-0.00031,-4e-05,-0.00028,6,24
60965,-8e-05,0,0,1e-05,2e-05,-0.00031,-4e-05,-0.00028,6,24
60966,-8e-05,0,0,1e-05,2e-05,-0.00031,-4e-05,-0.00028,6,24
60967,-8e-05,0,0,1e-05,2e-05,-0.00031,-4e-05,-0.00028,6,24
60968,-8e-05,0,0,1e-05,2e-05,-0.00031,-4e-05,-0.00028,6,24
60969,-8e-05,0,0,1e-05,2e-05,-0.00031,-4e-05,-0.00028,6,24
60970,-8e-05,0,0,1e-05,2e-05,-0.00031,-4e-05,-0.00028,6,24
60971,-8e-05,0,0,1e-05,2e-05,-0.00031,-4e-05,-0.00028,6,24
60972,-8e-05,0,0,1e-05,2e-05,-0.00031,-4e-05,-0.00028,6,24
60973,-8e-05,0,0,1e-05,2e-05,-0.00031,-4e-05,-0.00028,6,24
60974,-8e-05,0,0,1e-05,2e-05,-0.00031,-4e-05,-0.00028,6,24
60975,-8e-05,0,0,1e-05,2e-05,-0.00031,-4e-05,-0.00028,6,24
60976,-8e-05,0,0,1e-05,2e-05,-0.00031,-4e-05,-0.00028,6,24
60977,-1e-05,-3e-05,-1e-05,5e-05,4e-05,0.00022,6e-05,-0.00012,6,24
60978,3e-05,-2e-05,3e-05,0,0.00051,0.00038,0.00012,0.00053,6,24
60979,3e-05,-2e-05,3e-05,0,0.00051,0.00038,0.00012,0.00053,6,24
60980,3e-05,-2e-05,3e-05,0,0.00051,0.00038,0.00012,0.00053,6,24
60981,3e-05,-2e-05,3e-05,0,0.00051,0.00038,0.00012,0.00053,6,24
60982,3e-05,-2e-05,3e-05,0,0.00051,0.00038,0.00012,0.00053,6,24
60983,3e-05,-2e-05,3e-05,0,0.00051,0.00038,0.00012,0.00053,6,24
60984,3e-05,-2e-05,3e-05,0,0.00051,0.00038,0.00012,0.00053,6,24
60985,3e-05,-2e-05,3e-05,0,0.00051,0.00038,0.00012,0.00053,6,24
60986,3e-05,-2e-05,3e-05,0,0.00051,0.00038,0.00012,0.00053,6,24
60988,3e-05,-2e-05,3e-05,0,0.00051,0.00038,0.00012,0.00053,6,24
60989,3e-05,-2e-05,3e-05,0,0.00051,0.00038,0.00012,0.00053,6,24
60990,3e-05,-2e-05,3e-05,0,0.00051,0.00038,0.00012,0.00053,6,24
60991,3e-05,-2e-05,3e-05,0,0.00051,0.00038,0.00012,0.00053,6,24
60992,3e-05,-2e-05,3e-05,0,0.00051,0.00038,0.00012,0.00053,6,24
60993,3e-05,-2e-05,3e-05,0,0.00051,0.00038,0.00012,0.00053,6,24
60994,3e-05,-2e-05,3e-05,0,0.00051,0.00038,0.00012,0.00053,6,24
60995,3e-05,-2e-05,3e-05,0,0.00051,0.00038,0.00012,0.00053,6,24
60996,3e-05,-2e-05,3e-05,0,0.00051,0.00038,0.00012,0.00053,6,24
60997,3e-05,-2e-05,3e-05,0,0.00051,0.00038,0.00012,0.00053,6,24
60998,3e-05,-2e-05,3e-05,0,0.00051,0.00038,0.00012,0.00053,6,24
60999,3e-05,-2e-05,3e-05,0,0.00051,0.00038,0.00012,0.00053,6,24
61000,-0.00023,-6e-05,-6e-05,-9e-05,-0.00017,0.00037,0.00019,-0.00102,6,24
61001,-1e-05,0,0,2e-05,-2e-05,7e-05,-2e-05,-0.00018,6,24
61002,-1e-05,0,0,2e-05,-2e-05,7e-05,-2e-05,-0.00018,6,24
61003,-1e-05,0,0,2e-05,-2e-05,7e-05,-2e-05,-0.00018,6,24
61004,-1e-05,0,0,2e-05,-2e-05,7e-05,-2e-05,-0.00018,6,24
61005,-1e-05,0,0,2e-05,-2e-05,7e-05,-2e-05,-0.00018,6,24
61006,-1e-05,0,0,2e-05,-2e-05,7e-05,-2e-05,-0.00018,6,24
61007,-1e-05,0,0,2e-05,-2e-05,7e-05,-2e-05,-0.00018,6,24
61008,-1e-05,0,0,2e-05,-2e-05,7e-05,-2e-05,-0.00018,6,24
61009,-1e-05,0,0,2e-05,-2e-05,7e-05,-2e-05,-0.00018,6,24
61010,-1e-05,0,0,2e-05,-2e-05,7e-05,-2e-05,-0.00018,6,24
61011,-1e-05,0,0,2e-05,-2e-05,7e-05,-2e-05,-0.00018,6,24
61012,-1e-05,0,0,2e-05,-2e-05,7e-05,-2e-05,-0.00018,6,24
61013,0.0001,1e-05,-5e-05,-5e-05,-0.00037,-0.00027,9e-05,0,6,24
61014,0.0001,1e-05,-5e-05,-5e-05,-0.00037,-0.00027,9e-05,0,6,24
61015,0.0001,1e-05,-5e-05,-5e-05,-0.00037,-0.00027,9e-05,0,6,24
61016,0.0001,1e-05,-5e-05,-5e-05,-0.00037,-0.00027,9e-05,0,6,24
61017,0.0001,1e-05,-5e-05,-5e-05,-0.00037,-0.00027,9e-05,0,6,24
61018,0.0001,1e-05,-5e-05,-5e-05,-0.00037,-0.00027,9e-05,0,6,24
61019,0.0001,1e-05,-5e-05,-5e-05,-0.00037,-0.00027,9e-05,0,6,24
61020,0.0001,1e-05,-5e-05,-5e-05,-0.00037,-0.00027,9e-05,0,6,24
61021,0.0001,1e-05,-5e-05,-5e-05,-0.00037,-0.00027,9e-05,0,6,24
61022,-3e-05,-4e-05,-4e-05,-4e-05,-3e-05,0.00014,-0.00025,-0.00026,6,24
61023,-3e-05,-4e-05,-4e-05,-4e-05,-3e-05,0.00014,-0.00025,-0.00026,6,24
61024,-3e-05,-4e-05,-4e-05,-4e-05,-3e-05,0.00014,-0.00025,-0.00026,6,24
61025,-3e-05,-4e-05,-4e-05,-4e-05,-3e-05,0.00014,-0.00025,-0.00026,6,24
61026,-3e-05,-4e-05,-4e-05,-4e-05,-3e-05,0.00014,-0.00025,-0.00026,6,24
61027,-3e-05,-4e-05,-4e-05,-4e-05,-3e-05,0.00014,-0.00025,-0.00026,6,24
61028,-3e-05,-4e-05,-4e-05,-4e-05,-3e-05,0.00014,-0.00025,-0.00026,6,24
61029,-3e-05,-4e-05,-4e-05,-4e-05,-3e-05,0.00014,-0.00025,-0.00026,6,24
61030,-3e-05,-4e-05,-4e-05,-4e-05,-3e-05,0.00014,-0.00025,-0.00026,6,24
61031,-3e-05,-4e-05,-4e-05,-4e-05,-3e-05,0.00014,-0.00025,-0.00026,6,24
61032,-3e-05,-4e-05,-4e-05,-4e-05,-3e-05,0.00014,-0.00025,-0.00026,6,24
61033,-3e-05,-4e-05,-4e-05,-4e-05,-3e-05,0.00014,-0.00025,-0.00026,6,24
61034,-3e-05,-4e-05,-4e-05,-4e-05,-3e-05,0.00014,-0.00025,-0.00026,6,24
61035,-3e-05,-4e-05,-4e-05,-4e-05,-3e-05,0.00014,-0.00025,-0.00026,6,24
61036,-3e-05,-4e-05,-4e-05,-4e-05,-3e-05,0.00014,-0.00025,-0.00026,6,24
61038,-0.0002,-1e-05,0,5e-05,0.0002,-0.00012,-0.00027,0.00014,6,24
61039,-4e-05,0,-1e-05,-5e-05,-0.00042,-0.00036,3e-05,5e-05,6,24
61040,-4e-05,0,-1e-05,-5e-05,-0.00042,-0.00036,3e-05,5e-05,6,24
61041,-4e-05,0,-1e-05,-5e-05,-0.00042,-0.00036,3e-05,5e-05,6,24
61042,-4e-05,0,-1e-05,-5e-05,-0.00042,-0.00036,3e-05,5e-05,6,24
61043,-4e-05,0,-1e-05,-5e-05,-0.00042,-0.00036,3e-05,5e-05,6,24
61044,-4e-05,0,-1e-05,-5e-05,-0.00042,-0.00036,3e-05,5e-05,6,24
61045,-4e-05,0,-1e-05,-5e-05,-0.00042,-0.00036,3e-05,5e-05,6,24
61046,-4e-05,0,-1e-05,-5e-05,-0.00042,-0.00036,3e-05,5e-05,6,24
61047,-4e-05,0,-1e-05,-5e-05,-0.00042,-0.00036,3e-05,5e-05,6,24
61048,-4e-05,0,-1e-05,-5e-05,-0.00042,-0.00036,3e-05,5e-05,6,24
61049,-4e-05,0,-1e-05,-5e-05,-0.00042,-0.00036,3e-05,5e-05,6,24
61050,-4e-05,0,-1e-05,-5e-05,-0.00042,-0.00036,3e-05,5e-05,6,24
61051,-4e-05,0,-1e-05,-5e-05,-0.00042,-0.00036,3e-05,5e-05,6,24
61052,-4e-05,0,-1e-05,-5e-05,-0.00042,-0.00036,3e-05,5e-05,6,24
