29948,0.00019,7e-05,-1e-05,9e-05,-0.00011,-2e-05,0,0.00033,6,25
29949,0.00019,7e-05,-1e-05,9e-05,-0.00011,-2e-05,0,0.00033,6,25
29950,0.00019,7e-05,-1e-05,9e-05,-0.00011,-2e-05,0,0.00033,6,25
29951,0.00019,7e-05,-1e-05,9e-05,-0.00011,-2e-05,0,0.00033,6,25
29952,0.00019,7e-05,-1e-05,9e-05,-0.00011,-2e-05,0,0.00033,6,25
29953,0.00019,7e-05,-1e-05,9e-05,-0.00011,-2e-05,0,0.00033,6,25
29954,0.00019,7e-05,-1e-05,9e-05,-0.00011,-2e-05,0,0.00033,6,25
29955,0.00019,7e-05,-1e-05,9e-05,-0.00011,-2e-05,0,0.00033,6,25
29956,0.00019,7e-05,-1e-05,9e-05,-0.00011,-2e-05,0,0.00033,6,25
29957,0.00021,-0.00023,0.00011,0.00035,0.00036,0.00037,0.00057,0.00049,6,25
29958,0.00021,-0.00023,0.00011,0.00035,0.00036,0.00037,0.00057,0.00049,6,25
29959,0.00021,-0.00023,0.00011,0.00035,0.00036,0.00037,0.00057,0.00049,6,25
29960,0.00021,-0.00023,0.00011,0.00035,0.00036,0.00037,0.00057,0.00049,6,25
29961,0.00021,-0.00023,0.00011,0.00035,0.00036,0.00037,0.00057,0.00049,6,25
29962,0.00021,-0.00023,0.00011,0.00035,0.00036,0.00037,0.00057,0.00049,6,25
29963,0.00021,-0.00023,0.00011,0.00035,0.00036,0.00037,0.00057,0.00049,6,25
29964,0.00046,0.00039,0.00012,-6e-05,0.00033,0.00036,-2e-05,-0.00033,6,25
29965,0.00046,0.00039,0.00012,-6e-05,0.00033,0.00036,-2e-05,-0.00033,6,25
29966,0.00046,0.00039,0.00012,-6e-05,0.00033,0.00036,-2e-05,-0.00033,6,25
29967,0.00046,0.00039,0.00012,-6e-05,0.00033,0.00036,-2e-05,-0.00033,6,25
29968,0.00046,0.00039,0.00012,-6e-05,0.00033,0.00036,-2e-05,-0.00033,6,25
29969,0.00046,0.00039,0.00012,-6e-05,0.00033,0.00036,-2e-05,-0.00033,6,25
29970,0.00046,0.00039,0.00012,-6e-05,0.00033,0.00036,-2e-05,-0.00033,6,25
29971,0.00046,0.00039,0.00012,-6e-05,0.00033,0.00036,-2e-05,-0.00033,6,25
29972,0.00046,0.00039,0.00012,-6e-05,0.00033,0.00036,-2e-05,-0.00033,6,25
29973,0.00046,0.00039,0.00012,-6e-05,0.00033,0.00036,-2e-05,-0.00033,6,25
29974,0.00046,0.00039,0.00012,-6e-05,0.00033,0.00036,-2e-05,-0.00033,6,25
29975,0.00046,0.00039,0.00012,-6e-05,0.00033,0.00036,-2e-05,-0.00033,6,25
29976,0.00046,0.00039,0.00012,-6e-05,0.00033,0.00036,-2e-05,-0.00033,6,25
29977,0.00046,0.00039,0.00012,-6e-05,0.00033,0.00036,-2e-05,-0.00033,6,25
29978,0.00046,0.00039,0.00012,-6e-05,0.00033,0.00036,-2e-05,-0.00033,6,25
29979,0.00046,0.00039,0.00012,-6e-05,0.00033,0.00036,-2e-05,-0.00033,6,25
29981,-0.00066,-0.0001,4e-05,0.00015,0.00116,0.00081,4e-05,-0.00012,6,25
29982,-0.0003,0.0001,0.00019,0.00039,-0.00031,0.0005,-0.00046,0.00018,6,25
29983,-0.0003,0.0001,0.00019,0.00039,-0.00031,0.0005,-0.00046,0.00018,6,25
29984,-0.0003,0.0001,0.00019,0.00039,-0.00031,0.0005,-0.00046,0.00018,6,25
29985,-0.0003,0.0001,0.00019,0.00039,-0.00031,0.0005,-0.00046,0.00018,6,25
29986,-0.0003,0.0001,0.00019,0.00039,-0.00031,0.0005,-0.00046,0.00018,6,25
29987,-0.0003,0.0001,0.00019,0.00039,-0.00031,0.0005,-0.00046,0.00018,6,25
29988,-0.0003,0.0001,0.00019,0.00039,-0.00031,0.0005,-0.00046,0.00018,6,25
29989,-0.0003,0.0001,0.00019,0.00039,-0.00031,0.0005,-0.00046,0.00018,6,25
29990,-0.0003,0.0001,0.00019,0.00039,-0.00031,0.0005,-0.00046,0.00018,6,25
29991,-0.0003,0.0001,0.00019,0.00039,-0.00031,0.0005,-0.00046,0.00018,6,25
29992,-0.0003,0.0001,0.00019,0.00039,-0.00031,0.0005,-0.00046,0.00018,6,25
29993,-0.0003,0.0001,0.00019,0.00039,-0.00031,0.0005,-0.00046,0.00018,6,25
29994,-0.0003,0.0001,0.00019,0.00039,-0.00031,0.0005,-0.00046,0.00018,6,25
29995,-0.0003,0.0001,0.00019,0.00039,-0.00031,0.0005,-0.00046,0.00018,6,25
29996,-0.0003,0.0001,0.00019,0.00039,-0.00031,0.0005,-0.00046,0.00018,6,25
29997,-0.0003,0.0001,0.00019,0.00039,-0.00031,0.0005,-0.00046,0.00018,6,25
29998,-0.0003,0.0001,0.00019,0.00039,-0.00031,0.0005,-0.00046,0.00018,6,25
29999,-0.0003,0.0001,0.00019,0.00039,-0.00031,0.0005,-0.00046,0.00018,6,25
30000,-0.0003,0.0001,0.00019,0.00039,-0.00031,0.0005,-0.00046,0.00018,6,25
30001,-0.0003,0.0001,0.00019,0.00039,-0.00031,0.0005,-0.00046,0.00018,6,25
30002,-0.0003,0.0001,0.00019,0.00039,-0.00031,0.0005,-0.00046,0.00018,6,25
30003,0.00064,-0.00014,-1e-05,0.00011,-0.0002,-0.00013,0.00032,-0.00026,6,25
30004,-0.00061,-0.00043,-0.00014,0.00015,0.00088,0.00049,0.00025,-0.00128,6,25
30005,-0.00061,-0.00043,-0.00014,0.00015,0.00088,0.00049,0.00025,-0.00128,6,25
30006,-0.00061,-0.00043,-0.00014,0.00015,0.00088,0.00049,0.00025,-0.00128,6,25
30007,-0.00061,-0.00043,-0.00014,0.00015,0.00088,0.00049,0.00025,-0.00128,6,25
30008,-0.00061,-0.00043,-0.00014,0.00015,0.00088,0.00049,0.00025,-0.00128,6,25
30009,-0.00061,-0.00043,-0.00014,0.00015,0.00088,0.00049,0.00025,-0.00128,6,25
30010,-0.00061,-0.00043,-0.00014,0.00015,0.00088,0.00049,0.00025,-0.00128,6,25
30011,-0.00061,-0.00043,-0.00014,0.00015,0.00088,0.00049,0.00025,-0.00128,6,25
30012,-0.00061,-0.00043,-0.00014,0.00015,0.00088,0.00049,0.00025,-0.00128,6,25
30013,-0.00061,-0.00043,-0.00014,0.00015,0.00088,0.00049,0.00025,-0.00128,6,25
30014,-0.00061,-0.00043,-0.00014,0.00015,0.00088,0.00049,0.00025,-0.00128,6,25
30015,-0.00061,-0.00043,-0.00014,0.00015,0.00088,0.00049,0.00025,-0.00128,6,25
30016,-0.00061,-0.00043,-0.00014,0.00015,0.00088,0.00049,0.00025,-0.00128,6,25
30017,-0.00061,-0.00043,-0.00014,0.00015,0.00088,0.00049,0.00025,-0.00128,6,25
30018,0.00041,2e-05,0.00014,0.00034,-0.00028,-0.00011,-0.0003,-0.00029,6,25
30019,-0.0001,-6e-05,-0.0001,-4e-05,-0.00017,-0.00094,-4e-05,-0.00019,6,25
30020,-0.0001,-6e-05,-0.0001,-4e-05,-0.00017,-0.00094,-4e-05,-0.00019,6,25
30021,-0.0001,-6e-05,-0.0001,-4e-05,-0.00017,-0.00094,-4e-05,-0.00019,6,25
30022,-0.0001,-6e-05,-0.0001,-4e-05,-0.00017,-0.00094,-4e-05,-0.00019,6,25
30023,-0.0001,-6e-05,-0.0001,-4e-05,-0.00017,-0.00094,-4e-05,-0.00019,6,25
30026,-0.0001,-6e-05,-0.0001,-4e-05,-0.00017,-0.00094,-4e-05,-0.00019,6,25
30027,-0.0001,-6e-05,-0.0001,-4e-05,-0.00017,-0.00094,-4e-05,-0.00019,6,25
30028,-0.0001,-6e-05,-0.0001,-4e-05,-0.00017,-0.00094,-4e-05,-0.00019,6,25
30029,-0.0001,-6e-05,-0.0001,-4e-05,-0.00017,-0.00094,-4e-05,-0.00019,6,25
30030,-0.0001,-6e-05,-0.0001,-4e-05,-0.00017,-0.00094,-4e-05,-0.00019,6,25
30031,-0.0001,-6e-05,-0.0001,-4e-05,-0.00017,-0.00094,-4e-05,-0.00019,6,25
30032,-0.0001,-6e-05,-0.0001,-4e-05,-0.00017,-0.00094,-4e-05,-0.00019,6,25
30033,-0.0001,-6e-05,-0.0001,-4e-05,-0.00017,-0.00094,-4e-05,-0.00019,6,25
30034,-0.0001,-6e-05,-0.0001,-4e-05,-0.00017,-0.00094,-4e-05,-0.00019,6,25
30035,-0.0001,-6e-05,-0.0001,-4e-05,-0.00017,-0.00094,-4e-05,-0.00019,6,25
30039,-0.0001,-6e-05,-0.0001,-4e-05,-0.00017,-0.00094,-4e-05,-0.00019,6,25
30040,-0.0003,-2e-05,-8e-05,-0.00022,0.0001,3e-05,-0.00016,2e-05,6,25
30041,-0.0003,-2e-05,-8e-05,-0.00022,0.0001,3e-05,-0.00016,2e-05,6,25
30042,0.00036,8e-05,-0.00011,-8e-05,0.00038,0,-0.00045,0.00017,6,25
30043,0.00036,8e-05,-0.00011,-8e-05,0.00038,0,-0.00045,0.00017,6,25
30044,0.00036,8e-05,-0.00011,-8e-05,0.00038,0,-0.00045,0.00017,6,25
30045,0.00036,8e-05,-0.00011,-8e-05,0.00038,0,-0.00045,0.00017,6,25
30046,0.00036,8e-05,-0.00011,-8e-05,0.00038,0,-0.00045,0.00017,6,25
30047,0.00036,8e-05,-0.00011,-8e-05,0.00038,0,-0.00045,0.00017,6,25
30048,0.00036,8e-05,-0.00011,-8e-05,0.00038,0,-0.00045,0.00017,6,25
30049,0.00036,8e-05,-0.00011,-8e-05,0.00038,0,-0.00045,0.00017,6,25
30050,0.00036,8e-05,-0.00011,-8e-05,0.00038,0,-0.00045,0.00017,6,25
30051,0.00036,8e-05,-0.00011,-8e-05,0.00038,0,-0.00045,0.00017,6,25
30052,0.00036,8e-05,-0.00011,-8e-05,0.00038,0,-0.00045,0.00017,6,25
30053,0.00036,8e-05,-0.00011,-8e-05,0.00038,0,-0.00045,0.00017,6,25
30054,0.00036,8e-05,-0.00011,-8e-05,0.00038,0,-0.00045,0.00017,6,25
30055,0.00036,8e-05,-0.00011,-8e-05,0.00038,0,-0.00045,0.00017,6,25
30056,0.00036,8e-05,-0.00011,-8e-05,0.00038,0,-0.00045,0.00017,6,25
30057,0.00036,8e-05,-0.00011,-8e-05,0.00038,0,-0.00045,0.00017,6,25
30058,0.00036,8e-05,-0.00011,-8e-05,0.00038,0,-0.00045,0.00017,6,25
30059,0.00036,8e-05,-0.00011,-8e-05,0.00038,0,-0.00045,0.00017,6,25
30060,0.00036,8e-05,-0.00011,-8e-05,0.00038,0,-0.00045,0.00017,6,25
30061,0.00036,8e-05,-0.00011,-8e-05,0.00038,0,-0.00045,0.00017,6,25
30062,0.00036,8e-05,-0.00011,-8e-05,0.00038,0,-0.00045,0.00017,6,25
30063,0.00073,0.00022,0.00018,1e-05,-0.00058,-0.00042,0.00024,-5e-05,6,25
30064,-8e-05,-0.00019,9e-05,0.00011,0.00059,0.00086,0.00023,0.00013,6,25
30065,-8e-05,-0.00019,9e-05,0.00011,0.00059,0.00086,0.00023,0.00013,6,25
30066,-8e-05,-0.00019,9e-05,0.00011,0.00059,0.00086,0.00023,0.00013,6,25
30067,-8e-05,-0.00019,9e-05,0.00011,0.00059,0.00086,0.00023,0.00013,6,25
30068,-8e-05,-0.00019,9e-05,0.00011,0.00059,0.00086,0.00023,0.00013,6,25
30069,-8e-05,-0.00019,9e-05,0.00011,0.00059,0.00086,0.00023,0.00013,6,25
30070,-8e-05,-0.00019,9e-05,0.00011,0.00059,0.00086,0.00023,0.00013,6,25
30071,-8e-05,-0.00019,9e-05,0.00011,0.00059,0.00086,0.00023,0.00013,6,25
30072,-8e-05,-0.00019,9e-05,0.00011,0.00059,0.00086,0.00023,0.00013,6,25
30073,-8e-05,-0.00019,9e-05,0.00011,0.00059,0.00086,0.00023,0.00013,6,25
30074,-8e-05,-0.00019,9e-05,0.00011,0.00059,0.00086,0.00023,0.00013,6,25
30076,-8e-05,-0.00019,9e-05,0.00011,0.00059,0.00086,0.00023,0.00013,6,25
30077,0.00016,9e-05,0,6e-05,0.00088,0.00082,-0.00017,4e-05,6,25
30078,0.00016,9e-05,0,6e-05,0.00088,0.00082,-0.00017,4e-05,6,25
30079,0.00016,9e-05,0,6e-05,0.00088,0.00082,-0.00017,4e-05,6,25
30080,0.00016,9e-05,0,6e-05,0.00088,0.00082,-0.00017,4e-05,6,25
30081,0.00016,9e-05,0,6e-05,0.00088,0.00082,-0.00017,4e-05,6,25
30082,0.00016,9e-05,0,6e-05,0.00088,0.00082,-0.00017,4e-05,6,25
30083,0.00016,9e-05,0,6e-05,0.00088,0.00082,-0.00017,4e-05,6,25
30084,2e-05,-4e-05,-0.00021,-0.00036,-0.00047,-0.00064,5e-05,6e-05,6,25
30085,2e-05,-4e-05,-0.00021,-0.00036,-0.00047,-0.00064,5e-05,6e-05,6,25
30086,2e-05,-4e-05,-0.00021,-0.00036,-0.00047,-0.00064,5e-05,6e-05,6,25
30087,2e-05,-4e-05,-0.00021,-0.00036,-0.00047,-0.00064,5e-05,6e-05,6,25
30088,2e-05,-4e-05,-0.00021,-0.00036,-0.00047,-0.00064,5e-05,6e-05,6,25
30089,2e-05,-4e-05,-0.00021,-0.00036,-0.00047,-0.00064,5e-05,6e-05,6,25
30090,2e-05,-4e-05,-0.00021,-0.00036,-0.00047,-0.00064,5e-05,6e-05,6,25
30091,2e-05,-4e-05,-0.00021,-0.00036,-0.00047,-0.00064,5e-05,6e-05,6,25
30092,2e-05,-4e-05,-0.00021,-0.00036,-0.00047,-0.00064,5e-05,6e-05,6,25
30093,2e-05,-4e-05,-0.00021,-0.00036,-0.00047,-0.00064,5e-05,6e-05,6,25
30094,2e-05,-4e-05,-0.00021,-0.00036,-0.00047,-0.00064,5e-05,6e-05,6,25
30095,2e-05,-4e-05,-0.00021,-0.00036,-0.00047,-0.00064,5e-05,6e-05,6,25
30096,2e-05,-4e-05,-0.00021,-0.00036,-0.00047,-0.00064,5e-05,6e-05,6,25
30097,2e-05,-4e-05,-0.00021,-0.00036,-0.00047,-0.00064,5e-05,6e-05,6,25
30098,2e-05,-4e-05,-0.00021,-0.00036,-0.00047,-0.00064,5e-05,6e-05,6,25
30099,2e-05,-4e-05,-0.00021,-0.00036,-0.00047,-0.00064,5e-05,6e-05,6,25
30100,0.00034,0.00011,-6e-05,-6e-05,0.0001,-0.00026,1e-05,0.0002,6,25
30101,0.00034,0.00011,-6e-05,-6e-05,0.0001,-0.00026,1e-05,0.0002,6,25
30102,-0.00047,-6e-05,-4e-05,-0.00012,-0.00014,-0.00029,-0.0002,-0.00028,6,25
30103,-0.00047,-6e-05,-4e-05,-0.00012,-0.00014,-0.00029,-0.0002,-0.00028,6,25
30104,-0.00047,-6e-05,-4e-05,-0.00012,-0.00014,-0.00029,-0.0002,-0.00028,6,25
30105,-0.00047,-6e-05,-4e-05,-0.00012,-0.00014,-0.00029,-0.0002,-0.00028,6,25
30106,-0.00047,-6e-05,-4e-05,-0.00012,-0.00014,-0.00029,-0.0002,-0.00028,6,25
30107,-0.00047,-6e-05,-4e-05,-0.00012,-0.00014,-0.00029,-0.0002,-0.00028,6,25
30108,-0.00047,-6e-05,-4e-05,-0.00012,-0.00014,-0.00029,-0.0002,-0.00028,6,25
30109,-0.00047,-6e-05,-4e-05,-0.00012,-0.00014,-0.00029,-0.0002,-0.00028,6,25
30110,-0.00047,-6e-05,-4e-05,-0.00012,-0.00014,-0.00029,-0.0002,-0.00028,6,25
30111,-0.00047,-6e-05,-4e-05,-0.00012,-0.00014,-0.00029,-0.0002,-0.00028,6,25
30112,-0.00047,-6e-05,-4e-05,-0.00012,-0.00014,-0.00029,-0.0002,-0.00028,6,25
30113,-0.00047,-6e-05,-4e-05,-0.00012,-0.00014,-0.00029,-0.0002,-0.00028,6,25
30114,-0.00047,-6e-05,-4e-05,-0.00012,-0.00014,-0.00029,-0.0002,-0.00028,6,25
30115,-0.00047,-6e-05,-4e-05,-0.00012,-0.00014,-0.00029,-0.0002,-0.00028,6,25
30116,-0.00047,-6e-05,-4e-05,-0.00012,-0.00014,-0.00029,-0.0002,-0.00028,6,25
30117,-0.00047,-6e-05,-4e-05,-0.00012,-0.00014,-0.00029,-0.0002,-0.00028,6,25
30118,-0.00047,-6e-05,-4e-05,-0.00012,-0.00014,-0.00029,-0.0002,-0.00028,6,25
30119,-0.00047,-6e-05,-4e-05,-0.00012,-0.00014,-0.00029,-0.0002,-0.00028,6,25
30120,-0.00047,-6e-05,-4e-05,-0.00012,-0.00014,-0.00029,-0.0002,-0.00028,6,25
30122,-0.00047,-6e-05,-4e-05,-0.00012,-0.00014,-0.00029,-0.0002,-0.00028,6,25
30123,-0.00038,0.00037,-1e-05,3e-05,0.00016,-0.00033,0.00034,-0.0003,6,25
30124,-0.00043,-0.0001,-9e-05,-0.00018,-0.00074,-5e-05,0.00041,0.00029,6,25
30125,-0.00043,-0.0001,-9e-05,-0.00018,-0.00074,-5e-05,0.00041,0.00029,6,25
30126,-0.00043,-0.0001,-9e-05,-0.00018,-0.00074,-5e-05,0.00041,0.00029,6,25
30127,-0.00043,-0.0001,-9e-05,-0.00018,-0.00074,-5e-05,0.00041,0.00029,6,25
30128,-0.00043,-0.0001,-9e-05,-0.00018,-0.00074,-5e-05,0.00041,0.00029,6,25
30129,-0.00043,-0.0001,-9e-05,-0.00018,-0.00074,-5e-05,0.00041,0.00029,6,25
30130,-0.00043,-0.0001,-9e-05,-0.00018,-0.00074,-5e-05,0.00041,0.00029,6,25
30131,-0.00043,-0.0001,-9e-05,-0.00018,-0.00074,-5e-05,0.00041,0.00029,6,25
30132,-0.00043,-0.0001,-9e-05,-0.00018,-0.00074,-5e-05,0.00041,0.00029,6,25
30133,-0.00043,-0.0001,-9e-05,-0.00018,-0.00074,-5e-05,0.00041,0.00029,6,25
30134,-0.00043,-0.0001,-9e-05,-0.00018,-0.00074,-5e-05,0.00041,0.00029,6,25
30135,-0.00043,-0.0001,-9e-05,-0.00018,-0.00074,-5e-05,0.00041,0.00029,6,25
30136,-0.00043,-0.0001,-9e-05,-0.00018,-0.00074,-5e-05,0.00041,0.00029,6,25
30137,0.00016,0.00011,0.00014,0.00015,0.00042,0.0001,-0.00034,0.00026,6,25
30138,-0.00029,0.00016,3e-05,0.00015,0.00015,0.00025,0.00017,0.00047,6,25
30139,-0.00029,0.00016,3e-05,0.00015,0.00015,0.00025,0.00017,0.00047,6,25
30140,-0.00029,0.00016,3e-05,0.00015,0.00015,0.00025,0.00017,0.00047,6,25
30141,-0.00029,0.00016,3e-05,0.00015,0.00015,0.00025,0.00017,0.00047,6,25
30142,-0.00029,0.00016,3e-05,0.00015,0.00015,0.00025,0.00017,0.00047,6,25
30143,-0.00029,0.00016,3e-05,0.00015,0.00015,0.00025,0.00017,0.00047,6,25
30144,-0.00027,2e-05,6e-05,0.0001,-0.00089,0.00053,0.00043,-0.0001,6,25
30145,-0.00027,2e-05,6e-05,0.0001,-0.00089,0.00053,0.00043,-0.0001,6,25
30146,-0.00027,2e-05,6e-05,0.0001,-0.00089,0.00053,0.00043,-0.0001,6,25
30147,-0.00027,2e-05,6e-05,0.0001,-0.00089,0.00053,0.00043,-0.0001,6,25
30148,-0.00027,2e-05,6e-05,0.0001,-0.00089,0.00053,0.00043,-0.0001,6,25
30149,-0.00027,2e-05,6e-05,0.0001,-0.00089,0.00053,0.00043,-0.0001,6,25
30150,-0.00027,2e-05,6e-05,0.0001,-0.00089,0.00053,0.00043,-0.0001,6,25
30152,-0.00027,2e-05,6e-05,0.0001,-0.00089,0.00053,0.00043,-0.0001,6,25
30153,-0.00027,2e-05,6e-05,0.0001,-0.00089,0.00053,0.00043,-0.0001,6,25
30154,-0.00027,2e-05,6e-05,0.0001,-0.00089,0.00053,0.00043,-0.0001,6,25
30155,-0.00027,2e-05,6e-05,0.0001,-0.00089,0.00053,0.00043,-0.0001,6,25
30156,-0.00027,2e-05,6e-05,0.0001,-0.00089,0.00053,0.00043,-0.0001,6,25
30157,-0.00027,2e-05,6e-05,0.0001,-0.00089,0.00053,0.00043,-0.0001,6,25
30158,-0.00027,2e-05,6e-05,0.0001,-0.00089,0.00053,0.00043,-0.0001,6,25
30159,-0.00027,2e-05,6e-05,0.0001,-0.00089,0.00053,0.00043,-0.0001,6,25
30160,-0.00104,-0.00048,-0.0001,-0.00012,-0.00076,0.00045,4e-05,8e-05,6,25
30161,-0.00104,-0.00048,-0.0001,-0.00012,-0.00076,0.00045,4e-05,8e-05,6,25
30162,0.00012,-0.00014,6e-05,0.00013,0.0003,-0.00015,0,-4e-05,6,25
30163,0.00012,-0.00014,6e-05,0.00013,0.0003,-0.00015,0,-4e-05,6,25
30164,0.00012,-0.00014,6e-05,0.00013,0.0003,-0.00015,0,-4e-05,6,25
30165,0.00012,-0.00014,6e-05,0.00013,0.0003,-0.00015,0,-4e-05,6,25
30166,0.00012,-0.00014,6e-05,0.00013,0.0003,-0.00015,0,-4e-05,6,25
30167,0.00012,-0.00014,6e-05,0.00013,0.0003,-0.00015,0,-4e-05,6,25
30169,0.00012,-0.00014,6e-05,0.00013,0.0003,-0.00015,0,-4e-05,6,25
30170,0.00012,-0.00014,6e-05,0.00013,0.0003,-0.00015,0,-4e-05,6,25
30171,0.00012,-0.00014,6e-05,0.00013,0.0003,-0.00015,0,-4e-05,6,25
30172,0.00012,-0.00014,6e-05,0.00013,0.0003,-0.00015,0,-4e-05,6,25
30173,0.00012,-0.00014,6e-05,0.00013,0.0003,-0.00015,0,-4e-05,6,25
30174,0.00012,-0.00014,6e-05,0.00013,0.0003,-0.00015,0,-4e-05,6,25
30175,0.00012,-0.00014,6e-05,0.00013,0.0003,-0.00015,0,-4e-05,6,25
30176,0.00012,-0.00014,6e-05,0.00013,0.0003,-0.00015,0,-4e-05,6,25
30177,0.00012,-0.00014,6e-05,0.00013,0.0003,-0.00015,0,-4e-05,6,25
30178,0.00012,-0.00014,6e-05,0.00013,0.0003,-0.00015,0,-4e-05,6,25
30179,0.00012,-0.00014,6e-05,0.00013,0.0003,-0.00015,0,-4e-05,6,25
30180,0.00012,-0.00014,6e-05,0.00013,0.0003,-0.00015,0,-4e-05,6,25
30181,0.00012,-0.00014,6e-05,0.00013,0.0003,-0.00015,0,-4e-05,6,25
30182,0.00012,-0.00014,6e-05,0.00013,0.0003,-0.00015,0,-4e-05,6,25
30183,-0.00017,-0.00011,2e-05,1e-05,-0.00067,-0.00012,-0.00049,-0.00059,6,25
30184,-0.00017,-0.00011,2e-05,1e-05,-0.00067,-0.00012,-0.00049,-0.00059,6,25
30185,0.00036,0.00012,5e-05,0.00012,0.00074,0.00041,-0.0002,9e-05,6,25
30186,0.00036,0.00012,5e-05,0.00012,0.00074,0.00041,-0.0002,9e-05,6,25
30187,0.00036,0.00012,5e-05,0.00012,0.00074,0.00041,-0.0002,9e-05,6,25
30188,0.00036,0.00012,5e-05,0.00012,0.00074,0.00041,-0.0002,9e-05,6,25
30189,0.00036,0.00012,5e-05,0.00012,0.00074,0.00041,-0.0002,9e-05,6,25
30190,0.00036,0.00012,5e-05,0.00012,0.00074,0.00041,-0.0002,9e-05,6,25
30191,0.00036,0.00012,5e-05,0.00012,0.00074,0.00041,-0.0002,9e-05,6,25
30192,0.00036,0.00012,5e-05,0.00012,0.00074,0.00041,-0.0002,9e-05,6,25
30193,0.00036,0.00012,5e-05,0.00012,0.00074,0.00041,-0.0002,9e-05,6,25
30194,0.00036,0.00012,5e-05,0.00012,0.00074,0.00041,-0.0002,9e-05,6,25
30195,0.00036,0.00012,5e-05,0.00012,0.00074,0.00041,-0.0002,9e-05,6,25
30196,0.00036,0.00012,5e-05,0.00012,0.00074,0.00041,-0.0002,9e-05,6,25
30197,-0.00025,-0.00027,-0.0001,-0.00022,-0.00027,-9e-05,-1e-05,-0.00037,6,25
30198,-0.00025,-0.00027,-0.0001,-0.00022,-0.00027,-9e-05,-1e-05,-0.00037,6,25
30199,-0.00025,-0.00027,-0.0001,-0.00022,-0.00027,-9e-05,-1e-05,-0.00037,6,25
30200,-0.00025,-0.00027,-0.0001,-0.00022,-0.00027,-9e-05,-1e-05,-0.00037,6,25
30201,-0.00025,-0.00027,-0.0001,-0.00022,-0.00027,-9e-05,-1e-05,-0.00037,6,25
30202,-0.00025,-0.00027,-0.0001,-0.00022,-0.00027,-9e-05,-1e-05,-0.00037,6,25
30203,-0.00025,-0.00027,-0.0001,-0.00022,-0.00027,-9e-05,-1e-05,-0.00037,6,25
30204,-1e-05,-2e-05,-5e-05,-0.00025,-4e-05,-0.00015,1e-05,-0.00034,6,25
30205,-1e-05,-2e-05,-5e-05,-0.00025,-4e-05,-0.00015,1e-05,-0.00034,6,25
30206,-1e-05,-2e-05,-5e-05,-0.00025,-4e-05,-0.00015,1e-05,-0.00034,6,25
30207,-1e-05,-2e-05,-5e-05,-0.00025,-4e-05,-0.00015,1e-05,-0.00034,6,25
30208,-1e-05,-2e-05,-5e-05,-0.00025,-4e-05,-0.00015,1e-05,-0.00034,6,25
30209,-1e-05,-2e-05,-5e-05,-0.00025,-4e-05,-0.00015,1e-05,-0.00034,6,25
30210,-1e-05,-2e-05,-5e-05,-0.00025,-4e-05,-0.00015,1e-05,-0.00034,6,25
30211,-1e-05,-2e-05,-5e-05,-0.00025,-4e-05,-0.00015,1e-05,-0.00034,6,25
30212,-1e-05,-2e-05,-5e-05,-0.00025,-4e-05,-0.00015,1e-05,-0.00034,6,25
30213,-1e-05,-2e-05,-5e-05,-0.00025,-4e-05,-0.00015,1e-05,-0.00034,6,25
30215,-1e-05,-2e-05,-5e-05,-0.00025,-4e-05,-0.00015,1e-05,-0.00034,6,25
30216,-1e-05,-2e-05,-5e-05,-0.00025,-4e-05,-0.00015,1e-05,-0.00034,6,25
30217,-1e-05,-2e-05,-5e-05,-0.00025,-4e-05,-0.00015,1e-05,-0.00034,6,25
30218,-1e-05,-2e-05,-5e-05,-0.00025,-4e-05,-0.00015,1e-05,-0.00034,6,25
30219,-1e-05,-2e-05,-5e-05,-0.00025,-4e-05,-0.00015,1e-05,-0.00034,6,25
30220,4e-05,-0.00032,-0.00028,-0.00015,-0.00022,-0.00078,-0.00029,0.00029,6,25
30221,4e-05,-0.00032,-0.00028,-0.00015,-0.00022,-0.00078,-0.00029,0.00029,6,25
30222,-0.00016,-0.00025,0.00014,-2e-05,0.00028,-0.00014,-0.00011,-8e-05,6,25
30223,-0.00016,-0.00025,0.00014,-2e-05,0.00028,-0.00014,-0.00011,-8e-05,6,25
30224,-0.00016,-0.00025,0.00014,-2e-05,0.00028,-0.00014,-0.00011,-8e-05,6,25
30225,-0.00016,-0.00025,0.00014,-2e-05,0.00028,-0.00014,-0.00011,-8e-05,6,25
30226,-0.00016,-0.00025,0.00014,-2e-05,0.00028,-0.00014,-0.00011,-8e-05,6,25
30227,-0.00016,-0.00025,0.00014,-2e-05,0.00028,-0.00014,-0.00011,-8e-05,6,25
30228,-0.00016,-0.00025,0.00014,-2e-05,0.00028,-0.00014,-0.00011,-8e-05,6,25
30229,-0.00016,-0.00025,0.00014,-2e-05,0.00028,-0.00014,-0.00011,-8e-05,6,25
30230,-0.00016,-0.00025,0.00014,-2e-05,0.00028,-0.00014,-0.00011,-8e-05,6,25
30231,-0.00016,-0.00025,0.00014,-2e-05,0.00028,-0.00014,-0.00011,-8e-05,6,25
30232,-0.00016,-0.00025,0.00014,-2e-05,0.00028,-0.00014,-0.00011,-8e-05,6,25
30233,-0.00016,-0.00025,0.00014,-2e-05,0.00028,-0.00014,-0.00011,-8e-05,6,25
30234,-0.00016,-0.00025,0.00014,-2e-05,0.00028,-0.00014,-0.00011,-8e-05,6,25
30235,-0.00016,-0.00025,0.00014,-2e-05,0.00028,-0.00014,-0.00011,-8e-05,6,25
30236,-0.00016,-0.00025,0.00014,-2e-05,0.00028,-0.00014,-0.00011,-8e-05,6,25
30237,-0.00016,-0.00025,0.00014,-2e-05,0.00028,-0.00014,-0.00011,-8e-05,6,25
30238,-0.00016,-0.00025,0.00014,-2e-05,0.00028,-0.00014,-0.00011,-8e-05,6,25
30239,-0.00016,-0.00025,0.00014,-2e-05,0.00028,-0.00014,-0.00011,-8e-05,6,25
30240,-0.00016,-0.00025,0.00014,-2e-05,0.00028,-0.00014,-0.00011,-8e-05,6,25
30241,-0.00016,-0.00025,0.00014,-2e-05,0.00028,-0.00014,-0.00011,-8e-05,6,25
30242,-0.00016,-0.00025,0.00014,-2e-05,0.00028,-0.00014,-0.00011,-8e-05,6,25
30243,0.00012,0.00015,5e-05,-5e-05,-5e-05,-0.00019,0.00015,0.0005,6,25
30244,0.00044,7e-05,-1e-05,5e-05,-0.00013,-0.00036,-6e-05,7e-05,6,25
30245,0.00044,7e-05,-1e-05,5e-05,-0.00013,-0.00036,-6e-05,7e-05,6,25
30246,0.00044,7e-05,-1e-05,5e-05,-0.00013,-0.00036,-6e-05,7e-05,6,25
30247,0.00044,7e-05,-1e-05,5e-05,-0.00013,-0.00036,-6e-05,7e-05,6,25
30248,0.00044,7e-05,-1e-05,5e-05,-0.00013,-0.00036,-6e-05,7e-05,6,25
30249,0.00044,7e-05,-1e-05,5e-05,-0.00013,-0.00036,-6e-05,7e-05,6,25
30250,0.00044,7e-05,-1e-05,5e-05,-0.00013,-0.00036,-6e-05,7e-05,6,25
30251,0.00044,7e-05,-1e-05,5e-05,-0.00013,-0.00036,-6e-05,7e-05,6,25
30252,0.00044,7e-05,-1e-05,5e-05,-0.00013,-0.00036,-6e-05,7e-05,6,25
30253,0.00044,7e-05,-1e-05,5e-05,-0.00013,-0.00036,-6e-05,7e-05,6,25
30254,0.00044,7e-05,-1e-05,5e-05,-0.00013,-0.00036,-6e-05,7e-05,6,25
30255,0.00044,7e-05,-1e-05,5e-05,-0.00013,-0.00036,-6e-05,7e-05,6,25
30256,0.00044,7e-05,-1e-05,5e-05,-0.00013,-0.00036,-6e-05,7e-05,6,25
30257,1e-05,-0.0002,-0.00013,-0.00034,-0.00034,-0.00012,0,0.00021,6,25
30258,1e-05,-0.0002,-0.00013,-0.00034,-0.00034,-0.00012,0,0.00021,6,25
30259,1e-05,-0.0002,-0.00013,-0.00034,-0.00034,-0.00012,0,0.00021,6,25
30260,1e-05,-0.0002,-0.00013,-0.00034,-0.00034,-0.00012,0,0.00021,6,25
30262,1e-05,-0.0002,-0.00013,-0.00034,-0.00034,-0.00012,0,0.00021,6,25
30263,1e-05,-0.0002,-0.00013,-0.00034,-0.00034,-0.00012,0,0.00021,6,25
30264,7e-05,-0.00018,8e-05,0.00017,0.00063,0.00021,-0.00031,0.00018,6,25
30265,7e-05,-0.00018,8e-05,0.00017,0.00063,0.00021,-0.00031,0.00018,6,25
30266,7e-05,-0.00018,8e-05,0.00017,0.00063,0.00021,-0.00031,0.00018,6,25
30267,7e-05,-0.00018,8e-05,0.00017,0.00063,0.00021,-0.00031,0.00018,6,25
30268,7e-05,-0.00018,8e-05,0.00017,0.00063,0.00021,-0.00031,0.00018,6,25
30269,7e-05,-0.00018,8e-05,0.00017,0.00063,0.00021,-0.00031,0.00018,6,25
30270,7e-05,-0.00018,8e-05,0.00017,0.00063,0.00021,-0.00031,0.00018,6,25
30271,7e-05,-0.00018,8e-05,0.00017,0.00063,0.00021,-0.00031,0.00018,6,25
30272,7e-05,-0.00018,8e-05,0.00017,0.00063,0.00021,-0.00031,0.00018,6,25
30273,7e-05,-0.00018,8e-05,0.00017,0.00063,0.00021,-0.00031,0.00018,6,25
30274,7e-05,-0.00018,8e-05,0.00017,0.00063,0.00021,-0.00031,0.00018,6,25
30275,7e-05,-0.00018,8e-05,0.00017,0.00063,0.00021,-0.00031,0.00018,6,25
30276,7e-05,-0.00018,8e-05,0.00017,0.00063,0.00021,-0.00031,0.00018,6,25
30277,7e-05,-0.00018,8e-05,0.00017,0.00063,0.00021,-0.00031,0.00018,6,25
30278,7e-05,-0.00018,8e-05,0.00017,0.00063,0.00021,-0.00031,0.00018,6,25
30279,7e-05,-0.00018,8e-05,0.00017,0.00063,0.00021,-0.00031,0.00018,6,25
30280,-2e-05,-0.00017,-0.00011,9e-05,0.00091,0.00077,5e-05,2e-05,6,25
30281,-2e-05,-0.00017,-0.00011,9e-05,0.00091,0.00077,5e-05,2e-05,6,25
30282,-0.00028,-1e-05,-6e-05,-0.00014,-0.00088,-0.00104,-0.00024,-0.00022,6,25
30283,-0.00028,-1e-05,-6e-05,-0.00014,-0.00088,-0.00104,-0.00024,-0.00022,6,25
30284,-0.00028,-1e-05,-6e-05,-0.00014,-0.00088,-0.00104,-0.00024,-0.00022,6,25
30285,-0.00028,-1e-05,-6e-05,-0.00014,-0.00088,-0.00104,-0.00024,-0.00022,6,25
30286,-0.00028,-1e-05,-6e-05,-0.00014,-0.00088,-0.00104,-0.00024,-0.00022,6,25
30287,-0.00028,-1e-05,-6e-05,-0.00014,-0.00088,-0.00104,-0.00024,-0.00022,6,25
30288,-0.00028,-1e-05,-6e-05,-0.00014,-0.00088,-0.00104,-0.00024,-0.00022,6,25
30289,-0.00028,-1e-05,-6e-05,-0.00014,-0.00088,-0.00104,-0.00024,-0.00022,6,25
30290,-0.00028,-1e-05,-6e-05,-0.00014,-0.00088,-0.00104,-0.00024,-0.00022,6,25
30291,-0.00028,-1e-05,-6e-05,-0.00014,-0.00088,-0.00104,-0.00024,-0.00022,6,25
30292,-0.00028,-1e-05,-6e-05,-0.00014,-0.00088,-0.00104,-0.00024,-0.00022,6,25
30293,-0.00028,-1e-05,-6e-05,-0.00014,-0.00088,-0.00104,-0.00024,-0.00022,6,25
30294,-0.00028,-1e-05,-6e-05,-0.00014,-0.00088,-0.00104,-0.00024,-0.00022,6,25
30295,-0.00028,-1e-05,-6e-05,-0.00014,-0.00088,-0.00104,-0.00024,-0.00022,6,25
30296,-0.00028,-1e-05,-6e-05,-0.00014,-0.00088,-0.00104,-0.00024,-0.00022,6,25
30297,-0.00028,-1e-05,-6e-05,-0.00014,-0.00088,-0.00104,-0.00024,-0.00022,6,25
30298,-0.00028,-1e-05,-6e-05,-0.00014,-0.00088,-0.00104,-0.00024,-0.00022,6,25
30299,-0.00028,-1e-05,-6e-05,-0.00014,-0.00088,-0.00104,-0.00024,-0.00022,6,25
30300,-0.00028,-1e-05,-6e-05,-0.00014,-0.00088,-0.00104,-0.00024,-0.00022,6,25
30301,-0.00028,-1e-05,-6e-05,-0.00014,-0.00088,-0.00104,-0.00024,-0.00022,6,25
30302,-0.00028,-1e-05,-6e-05,-0.00014,-0.00088,-0.00104,-0.00024,-0.00022,6,25
30303,-3e-05,-5e-05,5e-05,-0.0001,-0.0002,-0.00033,-0.00013,9e-05,6,25
30304,-0.00031,-5e-05,-0.00024,-0.00026,-0.0007,-0.00023,-0.00012,0.0001,6,25
30305,-0.00031,-5e-05,-0.00024,-0.00026,-0.0007,-0.00023,-0.00012,0.0001,6,25
30306,-0.00031,-5e-05,-0.00024,-0.00026,-0.0007,-0.00023,-0.00012,0.0001,6,25
30307,-0.00031,-5e-05,-0.00024,-0.00026,-0.0007,-0.00023,-0.00012,0.0001,6,25
30308,-0.00031,-5e-05,-0.00024,-0.00026,-0.0007,-0.00023,-0.00012,0.0001,6,25
30310,-0.00031,-5e-05,-0.00024,-0.00026,-0.0007,-0.00023,-0.00012,0.0001,6,25
30311,-0.00031,-5e-05,-0.00024,-0.00026,-0.0007,-0.00023,-0.00012,0.0001,6,25
30312,-0.00031,-5e-05,-0.00024,-0.00026,-0.0007,-0.00023,-0.00012,0.0001,6,25
30313,-0.00031,-5e-05,-0.00024,-0.00026,-0.0007,-0.00023,-0.00012,0.0001,6,25
30314,-0.00031,-5e-05,-0.00024,-0.00026,-0.0007,-0.00023,-0.00012,0.0001,6,25
30315,-0.00031,-5e-05,-0.00024,-0.00026,-0.0007,-0.00023,-0.00012,0.0001,6,25
30316,-0.00031,-5e-05,-0.00024,-0.00026,-0.0007,-0.00023,-0.00012,0.0001,6,25
30317,0.00043,0.00012,9e-05,-0.0001,7e-05,1e-05,-0.00022,-0.00054,6,25
30318,0.00043,0.00012,9e-05,-0.0001,7e-05,1e-05,-0.00022,-0.00054,6,25
30319,0.00043,0.00012,9e-05,-0.0001,7e-05,1e-05,-0.00022,-0.00054,6,25
30320,0.00043,0.00012,9e-05,-0.0001,7e-05,1e-05,-0.00022,-0.00054,6,25
30321,0.00043,0.00012,9e-05,-0.0001,7e-05,1e-05,-0.00022,-0.00054,6,25
30322,0.00043,0.00012,9e-05,-0.0001,7e-05,1e-05,-0.00022,-0.00054,6,25
30323,0.00043,0.00012,9e-05,-0.0001,7e-05,1e-05,-0.00022,-0.00054,6,25
30324,-3e-05,0.00015,-1e-05,-0.00014,-8e-05,-1e-05,0.00011,-4e-05,6,25
30325,-3e-05,0.00015,-1e-05,-0.00014,-8e-05,-1e-05,0.00011,-4e-05,6,25
30326,-3e-05,0.00015,-1e-05,-0.00014,-8e-05,-1e-05,0.00011,-4e-05,6,25
30327,-3e-05,0.00015,-1e-05,-0.00014,-8e-05,-1e-05,0.00011,-4e-05,6,25
30328,-3e-05,0.00015,-1e-05,-0.00014,-8e-05,-1e-05,0.00011,-4e-05,6,25
30329,-3e-05,0.00015,-1e-05,-0.00014,-8e-05,-1e-05,0.00011,-4e-05,6,25
30330,-3e-05,0.00015,-1e-05,-0.00014,-8e-05,-1e-05,0.00011,-4e-05,6,25
30331,-3e-05,0.00015,-1e-05,-0.00014,-8e-05,-1e-05,0.00011,-4e-05,6,25
30332,-3e-05,0.00015,-1e-05,-0.00014,-8e-05,-1e-05,0.00011,-4e-05,6,25
30333,-3e-05,0.00015,-1e-05,-0.00014,-8e-05,-1e-05,0.00011,-4e-05,6,25
30334,-3e-05,0.00015,-1e-05,-0.00014,-8e-05,-1e-05,0.00011,-4e-05,6,25
30335,-3e-05,0.00015,-1e-05,-0.00014,-8e-05,-1e-05,0.00011,-4e-05,6,25
30336,-3e-05,0.00015,-1e-05,-0.00014,-8e-05,-1e-05,0.00011,-4e-05,6,25
30337,-3e-05,0.00015,-1e-05,-0.00014,-8e-05,-1e-05,0.00011,-4e-05,6,25
30338,-3e-05,0.00015,-1e-05,-0.00014,-8e-05,-1e-05,0.00011,-4e-05,6,25
30339,-3e-05,0.00015,-1e-05,-0.00014,-8e-05,-1e-05,0.00011,-4e-05,6,25
30340,0.00037,1e-05,0.0002,0.00022,0.00069,0.00014,0.00026,-0.00042,6,25
30341,0.00037,1e-05,0.0002,0.00022,0.00069,0.00014,0.00026,-0.00042,6,25
30342,0.00103,0.00024,0.0001,0.00036,-0.0003,0.0004,-0.00013,0.00039,6,25
30343,0.00103,0.00024,0.0001,0.00036,-0.0003,0.0004,-0.00013,0.00039,6,25
30344,0.00103,0.00024,0.0001,0.00036,-0.0003,0.0004,-0.00013,0.00039,6,25
30345,0.00103,0.00024,0.0001,0.00036,-0.0003,0.0004,-0.00013,0.00039,6,25
30346,0.00103,0.00024,0.0001,0.00036,-0.0003,0.0004,-0.00013,0.00039,6,25
30347,0.00103,0.00024,0.0001,0.00036,-0.0003,0.0004,-0.00013,0.00039,6,25
30348,0.00103,0.00024,0.0001,0.00036,-0.0003,0.0004,-0.00013,0.00039,6,25
30349,0.00103,0.00024,0.0001,0.00036,-0.0003,0.0004,-0.00013,0.00039,6,25
30350,0.00103,0.00024,0.0001,0.00036,-0.0003,0.0004,-0.00013,0.00039,6,25
30352,0.00103,0.00024,0.0001,0.00036,-0.0003,0.0004,-0.00013,0.00039,6,25
30353,0.00103,0.00024,0.0001,0.00036,-0.0003,0.0004,-0.00013,0.00039,6,25
30354,0.00103,0.00024,0.0001,0.00036,-0.0003,0.0004,-0.00013,0.00039,6,25
30356,0.00103,0.00024,0.0001,0.00036,-0.0003,0.0004,-0.00013,0.00039,6,25
30357,0.00103,0.00024,0.0001,0.00036,-0.0003,0.0004,-0.00013,0.00039,6,25
30358,0.00103,0.00024,0.0001,0.00036,-0.0003,0.0004,-0.00013,0.00039,6,25
30359,0.00103,0.00024,0.0001,0.00036,-0.0003,0.0004,-0.00013,0.00039,6,25
30360,0.00103,0.00024,0.0001,0.00036,-0.0003,0.0004,-0.00013,0.00039,6,25
30361,0.00103,0.00024,0.0001,0.00036,-0.0003,0.0004,-0.00013,0.00039,6,25
30362,0.00103,0.00024,0.0001,0.00036,-0.0003,0.0004,-0.00013,0.00039,6,25
30363,0.0004,0.00025,0.00017,0.00047,0.00061,0.0004,0.00038,0.00034,6,25
30364,0.00016,-1e-05,-1e-05,-0.00025,-0.00052,0.00052,0.00031,-3e-05,6,25
30365,0.00016,-1e-05,-1e-05,-0.00025,-0.00052,0.00052,0.00031,-3e-05,6,25
30366,0.00016,-1e-05,-1e-05,-0.00025,-0.00052,0.00052,0.00031,-3e-05,6,25
30367,0.00016,-1e-05,-1e-05,-0.00025,-0.00052,0.00052,0.00031,-3e-05,6,25
30368,0.00016,-1e-05,-1e-05,-0.00025,-0.00052,0.00052,0.00031,-3e-05,6,25
30369,0.00016,-1e-05,-1e-05,-0.00025,-0.00052,0.00052,0.00031,-3e-05,6,25
30370,0.00016,-1e-05,-1e-05,-0.00025,-0.00052,0.00052,0.00031,-3e-05,6,25
30371,0.00016,-1e-05,-1e-05,-0.00025,-0.00052,0.00052,0.00031,-3e-05,6,25
30372,0.00016,-1e-05,-1e-05,-0.00025,-0.00052,0.00052,0.00031,-3e-05,6,25
30373,0.00016,-1e-05,-1e-05,-0.00025,-0.00052,0.00052,0.00031,-3e-05,6,25
30374,0.00016,-1e-05,-1e-05,-0.00025,-0.00052,0.00052,0.00031,-3e-05,6,25
30375,0.00016,-1e-05,-1e-05,-0.00025,-0.00052,0.00052,0.00031,-3e-05,6,25
30376,0.00016,-1e-05,-1e-05,-0.00025,-0.00052,0.00052,0.00031,-3e-05,6,25
30377,5e-05,1e-05,-0.00018,-0.00023,-0.00105,-0.00091,-0.0002,0.00033,6,25
30378,5e-05,1e-05,-0.00018,-0.00023,-0.00105,-0.00091,-0.0002,0.00033,6,25
30379,5e-05,1e-05,-0.00018,-0.00023,-0.00105,-0.00091,-0.0002,0.00033,6,25
30380,5e-05,1e-05,-0.00018,-0.00023,-0.00105,-0.00091,-0.0002,0.00033,6,25
30381,5e-05,1e-05,-0.00018,-0.00023,-0.00105,-0.00091,-0.0002,0.00033,6,25
30382,5e-05,1e-05,-0.00018,-0.00023,-0.00105,-0.00091,-0.0002,0.00033,6,25
30383,5e-05,1e-05,-0.00018,-0.00023,-0.00105,-0.00091,-0.0002,0.00033,6,25
30384,0.00021,-8e-05,2e-05,0.00022,0.00043,9e-05,0.00054,0.0007,6,25
30385,0.00021,-8e-05,2e-05,0.00022,0.00043,9e-05,0.00054,0.0007,6,25
30386,0.00021,-8e-05,2e-05,0.00022,0.00043,9e-05,0.00054,0.0007,6,25
30387,0.00021,-8e-05,2e-05,0.00022,0.00043,9e-05,0.00054,0.0007,6,25
30388,0.00021,-8e-05,2e-05,0.00022,0.00043,9e-05,0.00054,0.0007,6,25
30389,0.00021,-8e-05,2e-05,0.00022,0.00043,9e-05,0.00054,0.0007,6,25
30390,0.00021,-8e-05,2e-05,0.00022,0.00043,9e-05,0.00054,0.0007,6,25
30391,0.00021,-8e-05,2e-05,0.00022,0.00043,9e-05,0.00054,0.0007,6,25
30392,0.00021,-8e-05,2e-05,0.00022,0.00043,9e-05,0.00054,0.0007,6,25
30393,0.00021,-8e-05,2e-05,0.00022,0.00043,9e-05,0.00054,0.0007,6,25
30394,0.00021,-8e-05,2e-05,0.00022,0.00043,9e-05,0.00054,0.0007,6,25
30395,0.00021,-8e-05,2e-05,0.00022,0.00043,9e-05,0.00054,0.0007,6,25
30396,0.00021,-8e-05,2e-05,0.00022,0.00043,9e-05,0.00054,0.0007,6,25
30397,0.00021,-8e-05,2e-05,0.00022,0.00043,9e-05,0.00054,0.0007,6,25
30398,0.00021,-8e-05,2e-05,0.00022,0.00043,9e-05,0.00054,0.0007,6,25
30399,0.00021,-8e-05,2e-05,0.00022,0.00043,9e-05,0.00054,0.0007,6,25
30400,-0.0007,2e-05,-3e-05,-0.00015,-0.00022,-5e-05,-0.00047,-0.00028,6,25
30401,-0.0007,2e-05,-3e-05,-0.00015,-0.00022,-5e-05,-0.00047,-0.00028,6,25
30402,-0.00066,-0.0001,1e-05,0.00017,0.00062,0.00031,0.00012,-0.00086,6,25
30403,-0.00066,-0.0001,1e-05,0.00017,0.00062,0.00031,0.00012,-0.00086,6,25
30404,-0.00066,-0.0001,1e-05,0.00017,0.00062,0.00031,0.00012,-0.00086,6,25
30405,-0.00066,-0.0001,1e-05,0.00017,0.00062,0.00031,0.00012,-0.00086,6,25
30406,-0.00066,-0.0001,1e-05,0.00017,0.00062,0.00031,0.00012,-0.00086,6,25
30407,-0.00066,-0.0001,1e-05,0.00017,0.00062,0.00031,0.00012,-0.00086,6,25
30408,-0.00066,-0.0001,1e-05,0.00017,0.00062,0.00031,0.00012,-0.00086,6,25
30409,-0.00066,-0.0001,1e-05,0.00017,0.00062,0.00031,0.00012,-0.00086,6,25
30410,-0.00066,-0.0001,1e-05,0.00017,0.00062,0.00031,0.00012,-0.00086,6,25
30411,-0.00066,-0.0001,1e-05,0.00017,0.00062,0.00031,0.00012,-0.00086,6,25
30412,-0.00066,-0.0001,1e-05,0.00017,0.00062,0.00031,0.00012,-0.00086,6,25
30413,-0.00066,-0.0001,1e-05,0.00017,0.00062,0.00031,0.00012,-0.00086,6,25
30414,-0.00066,-0.0001,1e-05,0.00017,0.00062,0.00031,0.00012,-0.00086,6,25
30415,-0.00066,-0.0001,1e-05,0.00017,0.00062,0.00031,0.00012,-0.00086,6,25
30416,-0.00066,-0.0001,1e-05,0.00017,0.00062,0.00031,0.00012,-0.00086,6,25
30417,-0.00066,-0.0001,1e-05,0.00017,0.00062,0.00031,0.00012,-0.00086,6,25
30418,-0.00066,-0.0001,1e-05,0.00017,0.00062,0.00031,0.00012,-0.00086,6,25
30419,-0.00066,-0.0001,1e-05,0.00017,0.00062,0.00031,0.00012,-0.00086,6,25
30420,-0.00066,-0.0001,1e-05,0.00017,0.00062,0.00031,0.00012,-0.00086,6,25
30421,-0.00066,-0.0001,1e-05,0.00017,0.00062,0.00031,0.00012,-0.00086,6,25
30422,-0.00066,-0.0001,1e-05,0.00017,0.00062,0.00031,0.00012,-0.00086,6,25
30423,-0.00059,-0.0002,-9e-05,-0.00013,-0.0004,-0.00045,0.00018,0.00025,6,25
30424,-0.00051,-0.00012,-1e-05,-0.00012,-0.00057,-0.00052,-8e-05,-0.00039,6,25
30425,-0.00051,-0.00012,-1e-05,-0.00012,-0.00057,-0.00052,-8e-05,-0.00039,6,25
30426,-0.00051,-0.00012,-1e-05,-0.00012,-0.00057,-0.00052,-8e-05,-0.00039,6,25
30427,-0.00051,-0.00012,-1e-05,-0.00012,-0.00057,-0.00052,-8e-05,-0.00039,6,25
30428,-0.00051,-0.00012,-1e-05,-0.00012,-0.00057,-0.00052,-8e-05,-0.00039,6,25
30429,-0.00051,-0.00012,-1e-05,-0.00012,-0.00057,-0.00052,-8e-05,-0.00039,6,25
30430,-0.00051,-0.00012,-1e-05,-0.00012,-0.00057,-0.00052,-8e-05,-0.00039,6,25
30431,-0.00051,-0.00012,-1e-05,-0.00012,-0.00057,-0.00052,-8e-05,-0.00039,6,25
30432,-0.00051,-0.00012,-1e-05,-0.00012,-0.00057,-0.00052,-8e-05,-0.00039,6,25
30433,-0.00051,-0.00012,-1e-05,-0.00012,-0.00057,-0.00052,-8e-05,-0.00039,6,25
30434,-0.00051,-0.00012,-1e-05,-0.00012,-0.00057,-0.00052,-8e-05,-0.00039,6,25
30435,-0.00051,-0.00012,-1e-05,-0.00012,-0.00057,-0.00052,-8e-05,-0.00039,6,25
30436,-0.00047,-0.00013,-4e-05,-6e-05,0.00017,0.00055,0.00054,-0.00033,6,25
30438,-0.00047,-0.00013,-4e-05,-6e-05,0.00017,0.00055,0.00054,-0.00033,6,25
30439,-0.00047,-0.00013,-4e-05,-6e-05,0.00017,0.00055,0.00054,-0.00033,6,25
30440,-0.00047,-0.00013,-4e-05,-6e-05,0.00017,0.00055,0.00054,-0.00033,6,25
30441,-0.00047,-0.00013,-4e-05,-6e-05,0.00017,0.00055,0.00054,-0.00033,6,25
30442,-0.00047,-0.00013,-4e-05,-6e-05,0.00017,0.00055,0.00054,-0.00033,6,25
30443,-0.00047,-0.00013,-4e-05,-6e-05,0.00017,0.00055,0.00054,-0.00033,6,25
30444,-0.00047,-0.00013,-4e-05,-6e-05,0.00017,0.00055,0.00054,-0.00033,6,25
30445,0.00019,-0.00012,7e-05,-2e-05,-0.00029,7e-05,0.00042,0.00013,6,25
30446,0.00019,-0.00012,7e-05,-2e-05,-0.00029,7e-05,0.00042,0.00013,6,25
30447,0.00019,-0.00012,7e-05,-2e-05,-0.00029,7e-05,0.00042,0.00013,6,25
30448,0.00019,-0.00012,7e-05,-2e-05,-0.00029,7e-05,0.00042,0.00013,6,25
30450,0.00019,-0.00012,7e-05,-2e-05,-0.00029,7e-05,0.00042,0.00013,6,25
30452,0.00019,-0.00012,7e-05,-2e-05,-0.00029,7e-05,0.00042,0.00013,6,25
30453,0.00019,-0.00012,7e-05,-2e-05,-0.00029,7e-05,0.00042,0.00013,6,25
30454,0.00019,-0.00012,7e-05,-2e-05,-0.00029,7e-05,0.00042,0.00013,6,25
30455,0.00019,-0.00012,7e-05,-2e-05,-0.00029,7e-05,0.00042,0.00013,6,25
30456,0.00019,-0.00012,7e-05,-2e-05,-0.00029,7e-05,0.00042,0.00013,6,25
30457,0.00019,-0.00012,7e-05,-2e-05,-0.00029,7e-05,0.00042,0.00013,6,25
30458,0.00019,-0.00012,7e-05,-2e-05,-0.00029,7e-05,0.00042,0.00013,6,25
30459,0.00019,-0.00012,7e-05,-2e-05,-0.00029,7e-05,0.00042,0.00013,6,25
30460,0.00032,-0.0001,-8e-05,5e-05,4e-05,0.00055,0.00014,0.00091,6,25
30461,0.00032,-0.0001,-8e-05,5e-05,4e-05,0.00055,0.00014,0.00091,6,25
30462,-0.00016,-3e-05,-5e-05,-4e-05,-0.00011,-0.00015,-3e-05,-0.00016,6,25
30463,-0.00016,-3e-05,-5e-05,-4e-05,-0.00011,-0.00015,-3e-05,-0.00016,6,25
30464,-0.00016,-3e-05,-5e-05,-4e-05,-0.00011,-0.00015,-3e-05,-0.00016,6,25
30465,-0.00016,-3e-05,-5e-05,-4e-05,-0.00011,-0.00015,-3e-05,-0.00016,6,25
30466,-0.00016,-3e-05,-5e-05,-4e-05,-0.00011,-0.00015,-3e-05,-0.00016,6,25
30467,-0.00016,-3e-05,-5e-05,-4e-05,-0.00011,-0.00015,-3e-05,-0.00016,6,25
30468,-0.00016,-3e-05,-5e-05,-4e-05,-0.00011,-0.00015,-3e-05,-0.00016,6,25
30469,-0.00016,-3e-05,-5e-05,-4e-05,-0.00011,-0.00015,-3e-05,-0.00016,6,25
30470,-0.00016,-3e-05,-5e-05,-4e-05,-0.00011,-0.00015,-3e-05,-0.00016,6,25
30471,-0.00016,-3e-05,-5e-05,-4e-05,-0.00011,-0.00015,-3e-05,-0.00016,6,25
30472,-0.00016,-3e-05,-5e-05,-4e-05,-0.00011,-0.00015,-3e-05,-0.00016,6,25
30473,-0.00016,-3e-05,-5e-05,-4e-05,-0.00011,-0.00015,-3e-05,-0.00016,6,25
30474,-0.00016,-3e-05,-5e-05,-4e-05,-0.00011,-0.00015,-3e-05,-0.00016,6,25
30475,-0.00016,-3e-05,-5e-05,-4e-05,-0.00011,-0.00015,-3e-05,-0.00016,6,25
30476,-0.00016,-3e-05,-5e-05,-4e-05,-0.00011,-0.00015,-3e-05,-0.00016,6,25
30477,-0.00016,-3e-05,-5e-05,-4e-05,-0.00011,-0.00015,-3e-05,-0.00016,6,25
30478,-0.00016,-3e-05,-5e-05,-4e-05,-0.00011,-0.00015,-3e-05,-0.00016,6,25
30479,-0.00016,-3e-05,-5e-05,-4e-05,-0.00011,-0.00015,-3e-05,-0.00016,6,25
30480,-0.00016,-3e-05,-5e-05,-4e-05,-0.00011,-0.00015,-3e-05,-0.00016,6,25
30481,-0.00016,-3e-05,-5e-05,-4e-05,-0.00011,-0.00015,-3e-05,-0.00016,6,25
30482,-0.00016,-3e-05,-5e-05,-4e-05,-0.00011,-0.00015,-3e-05,-0.00016,6,25
30483,0.00029,-3e-05,2e-05,4e-05,-8e-05,6e-05,0.0003,0.00014,6,25
30484,0.00023,0.00016,0,0.00026,0.00032,0.00021,-0.00018,0.00031,6,25
30485,0.00023,0.00016,0,0.00026,0.00032,0.00021,-0.00018,0.00031,6,25
30486,0.00023,0.00016,0,0.00026,0.00032,0.00021,-0.00018,0.00031,6,25
30487,0.00023,0.00016,0,0.00026,0.00032,0.00021,-0.00018,0.00031,6,25
30488,0.00023,0.00016,0,0.00026,0.00032,0.00021,-0.00018,0.00031,6,25
30489,0.00023,0.00016,0,0.00026,0.00032,0.00021,-0.00018,0.00031,6,25
30490,0.00023,0.00016,0,0.00026,0.00032,0.00021,-0.00018,0.00031,6,25
30491,0.00023,0.00016,0,0.00026,0.00032,0.00021,-0.00018,0.00031,6,25
30492,0.00023,0.00016,0,0.00026,0.00032,0.00021,-0.00018,0.00031,6,25
30493,0.00023,0.00016,0,0.00026,0.00032,0.00021,-0.00018,0.00031,6,25
30494,0.00023,0.00016,0,0.00026,0.00032,0.00021,-0.00018,0.00031,6,25
30495,0.00023,0.00016,0,0.00026,0.00032,0.00021,-0.00018,0.00031,6,25
30497,0.00033,-0.0001,-2e-05,-8e-05,-0.00033,0.00015,-0.00018,4e-05,6,25
30498,0.00045,0.00026,8e-05,0.00013,0.00081,-0.00027,6e-05,-0.00075,6,25
30499,0.00045,0.00026,8e-05,0.00013,0.00081,-0.00027,6e-05,-0.00075,6,25
30500,0.00045,0.00026,8e-05,0.00013,0.00081,-0.00027,6e-05,-0.00075,6,25
30502,0.00045,0.00026,8e-05,0.00013,0.00081,-0.00027,6e-05,-0.00075,6,25
30503,0.00045,0.00026,8e-05,0.00013,0.00081,-0.00027,6e-05,-0.00075,6,25
30504,0.00045,0.00026,8e-05,0.00013,0.00081,-0.00027,6e-05,-0.00075,6,25
30505,-0.00024,5e-05,-0.0001,-0.00015,-0.0002,-0.00075,-0.00042,6e-05,6,25
30506,-0.00024,5e-05,-0.0001,-0.00015,-0.0002,-0.00075,-0.00042,6e-05,6,25
30507,-0.00024,5e-05,-0.0001,-0.00015,-0.0002,-0.00075,-0.00042,6e-05,6,25
30508,-0.00024,5e-05,-0.0001,-0.00015,-0.0002,-0.00075,-0.00042,6e-05,6,25
30509,-0.00024,5e-05,-0.0001,-0.00015,-0.0002,-0.00075,-0.00042,6e-05,6,25
30510,-0.00024,5e-05,-0.0001,-0.00015,-0.0002,-0.00075,-0.00042,6e-05,6,25
30511,-0.00024,5e-05,-0.0001,-0.00015,-0.0002,-0.00075,-0.00042,6e-05,6,25
30512,-0.00024,5e-05,-0.0001,-0.00015,-0.0002,-0.00075,-0.00042,6e-05,6,25
30513,-0.00024,5e-05,-0.0001,-0.00015,-0.0002,-0.00075,-0.00042,6e-05,6,25
30514,-0.00024,5e-05,-0.0001,-0.00015,-0.0002,-0.00075,-0.00042,6e-05,6,25
30515,-0.00024,5e-05,-0.0001,-0.00015,-0.0002,-0.00075,-0.00042,6e-05,6,25
30516,-0.00024,5e-05,-0.0001,-0.00015,-0.0002,-0.00075,-0.00042,6e-05,6,25
30517,-0.00024,5e-05,-0.0001,-0.00015,-0.0002,-0.00075,-0.00042,6e-05,6,25
30518,-0.00024,5e-05,-0.0001,-0.00015,-0.0002,-0.00075,-0.00042,6e-05,6,25
30519,-0.00024,5e-05,-0.0001,-0.00015,-0.0002,-0.00075,-0.00042,6e-05,6,25
30520,-0.00078,-0.00011,-0.00015,-0.00015,-0.001,-0.00056,-0.00041,-0.00045,6,25
30521,-0.00078,-0.00011,-0.00015,-0.00015,-0.001,-0.00056,-0.00041,-0.00045,6,25
30522,-0.0001,0.00015,-0.0001,-1e-05,-7e-05,-0.00047,-0.00053,-0.00011,6,25
30523,-0.0001,0.00015,-0.0001,-1e-05,-7e-05,-0.00047,-0.00053,-0.00011,6,25
30524,-0.0001,0.00015,-0.0001,-1e-05,-7e-05,-0.00047,-0.00053,-0.00011,6,25
30525,-0.0001,0.00015,-0.0001,-1e-05,-7e-05,-0.00047,-0.00053,-0.00011,6,25
30526,-0.0001,0.00015,-0.0001,-1e-05,-7e-05,-0.00047,-0.00053,-0.00011,6,25
30527,-0.0001,0.00015,-0.0001,-1e-05,-7e-05,-0.00047,-0.00053,-0.00011,6,25
30528,-0.0001,0.00015,-0.0001,-1e-05,-7e-05,-0.00047,-0.00053,-0.00011,6,25
30529,-0.0001,0.00015,-0.0001,-1e-05,-7e-05,-0.00047,-0.00053,-0.00011,6,25
30530,-0.0001,0.00015,-0.0001,-1e-05,-7e-05,-0.00047,-0.00053,-0.00011,6,25
30531,-0.0001,0.00015,-0.0001,-1e-05,-7e-05,-0.00047,-0.00053,-0.00011,6,25
30532,-0.0001,0.00015,-0.0001,-1e-05,-7e-05,-0.00047,-0.00053,-0.00011,6,25
30533,-0.0001,0.00015,-0.0001,-1e-05,-7e-05,-0.00047,-0.00053,-0.00011,6,25
30534,-0.0001,0.00015,-0.0001,-1e-05,-7e-05,-0.00047,-0.00053,-0.00011,6,25
30535,-0.0001,0.00015,-0.0001,-1e-05,-7e-05,-0.00047,-0.00053,-0.00011,6,25
30536,-0.0001,0.00015,-0.0001,-1e-05,-7e-05,-0.00047,-0.00053,-0.00011,6,25
30537,-0.0001,0.00015,-0.0001,-1e-05,-7e-05,-0.00047,-0.00053,-0.00011,6,25
30538,-0.0001,0.00015,-0.0001,-1e-05,-7e-05,-0.00047,-0.00053,-0.00011,6,25
30539,-0.0001,0.00015,-0.0001,-1e-05,-7e-05,-0.00047,-0.00053,-0.00011,6,25
30540,-0.0001,0.00015,-0.0001,-1e-05,-7e-05,-0.00047,-0.00053,-0.00011,6,25
30541,-0.0001,0.00015,-0.0001,-1e-05,-7e-05,-0.00047,-0.00053,-0.00011,6,25
30543,-0.0001,0.00015,-0.0001,-1e-05,-7e-05,-0.00047,-0.00053,-0.00011,6,25
30544,0.00034,0.00014,1e-05,-0.00015,-0.00063,-0.001,1e-05,0.00013,6,25
30545,0.00034,0.00014,1e-05,-0.00015,-0.00063,-0.001,1e-05,0.00013,6,25
30546,0.00034,0.00014,1e-05,-0.00015,-0.00063,-0.001,1e-05,0.00013,6,25
30547,0.00034,0.00014,1e-05,-0.00015,-0.00063,-0.001,1e-05,0.00013,6,25
30548,0.00034,0.00014,1e-05,-0.00015,-0.00063,-0.001,1e-05,0.00013,6,25
30549,0.00034,0.00014,1e-05,-0.00015,-0.00063,-0.001,1e-05,0.00013,6,25
30550,0.00034,0.00014,1e-05,-0.00015,-0.00063,-0.001,1e-05,0.00013,6,25
30552,0.00034,0.00014,1e-05,-0.00015,-0.00063,-0.001,1e-05,0.00013,6,25
30553,0.00034,0.00014,1e-05,-0.00015,-0.00063,-0.001,1e-05,0.00013,6,25
30554,0.00034,0.00014,1e-05,-0.00015,-0.00063,-0.001,1e-05,0.00013,6,25
30555,0.00034,0.00014,1e-05,-0.00015,-0.00063,-0.001,1e-05,0.00013,6,25
30556,0.00053,0.00019,0.0001,8e-05,0.00013,0.00012,-0.00014,0.00028,6,25
30557,0.00053,0.00019,0.0001,8e-05,0.00013,0.00012,-0.00014,0.00028,6,25
30558,0.00053,0.00019,0.0001,8e-05,0.00013,0.00012,-0.00014,0.00028,6,25
30559,0.00053,0.00019,0.0001,8e-05,0.00013,0.00012,-0.00014,0.00028,6,25
30560,0.00053,0.00019,0.0001,8e-05,0.00013,0.00012,-0.00014,0.00028,6,25
30561,0.00053,0.00019,0.0001,8e-05,0.00013,0.00012,-0.00014,0.00028,6,25
30562,0.00053,0.00019,0.0001,8e-05,0.00013,0.00012,-0.00014,0.00028,6,25
30563,0.00053,0.00019,0.0001,8e-05,0.00013,0.00012,-0.00014,0.00028,6,25
30564,0.00053,0.00019,0.0001,8e-05,0.00013,0.00012,-0.00014,0.00028,6,25
30565,0.00018,-1e-05,6e-05,0.00013,0.0004,0.00051,0.00014,0.00013,6,25
30566,0.00018,-1e-05,6e-05,0.00013,0.0004,0.00051,0.00014,0.00013,6,25
30567,0.00018,-1e-05,6e-05,0.00013,0.0004,0.00051,0.00014,0.00013,6,25
30568,0.00018,-1e-05,6e-05,0.00013,0.0004,0.00051,0.00014,0.00013,6,25
30569,0.00018,-1e-05,6e-05,0.00013,0.0004,0.00051,0.00014,0.00013,6,25
30570,0.00018,-1e-05,6e-05,0.00013,0.0004,0.00051,0.00014,0.00013,6,25
30571,0.00018,-1e-05,6e-05,0.00013,0.0004,0.00051,0.00014,0.00013,6,25
30572,0.00018,-1e-05,6e-05,0.00013,0.0004,0.00051,0.00014,0.00013,6,25
30573,0.00018,-1e-05,6e-05,0.00013,0.0004,0.00051,0.00014,0.00013,6,25
30574,0.00018,-1e-05,6e-05,0.00013,0.0004,0.00051,0.00014,0.00013,6,25
30575,0.00018,-1e-05,6e-05,0.00013,0.0004,0.00051,0.00014,0.00013,6,25
30576,0.00018,-1e-05,6e-05,0.00013,0.0004,0.00051,0.00014,0.00013,6,25
30577,0.00018,-1e-05,6e-05,0.00013,0.0004,0.00051,0.00014,0.00013,6,25
30578,0.00018,-1e-05,6e-05,0.00013,0.0004,0.00051,0.00014,0.00013,6,25
30579,0.00018,-1e-05,6e-05,0.00013,0.0004,0.00051,0.00014,0.00013,6,25
30580,0.00038,2e-05,0.00013,0.0001,0.00108,0.00039,0.00033,0.00054,6,25
30581,0.00038,2e-05,0.00013,0.0001,0.00108,0.00039,0.00033,0.00054,6,25
30582,0.00011,-9e-05,-5e-05,-3e-05,0.00016,-8e-05,-0.00057,-0.00053,6,25
30583,0.00011,-9e-05,-5e-05,-3e-05,0.00016,-8e-05,-0.00057,-0.00053,6,25
30584,0.00011,-9e-05,-5e-05,-3e-05,0.00016,-8e-05,-0.00057,-0.00053,6,25
30585,0.00011,-9e-05,-5e-05,-3e-05,0.00016,-8e-05,-0.00057,-0.00053,6,25
30586,0.00011,-9e-05,-5e-05,-3e-05,0.00016,-8e-05,-0.00057,-0.00053,6,25
30587,0.00011,-9e-05,-5e-05,-3e-05,0.00016,-8e-05,-0.00057,-0.00053,6,25
30590,0.00011,-9e-05,-5e-05,-3e-05,0.00016,-8e-05,-0.00057,-0.00053,6,25
30591,0.00011,-9e-05,-5e-05,-3e-05,0.00016,-8e-05,-0.00057,-0.00053,6,25
30592,0.00011,-9e-05,-5e-05,-3e-05,0.00016,-8e-05,-0.00057,-0.00053,6,25
30593,0.00011,-9e-05,-5e-05,-3e-05,0.00016,-8e-05,-0.00057,-0.00053,6,25
30594,0.00011,-9e-05,-5e-05,-3e-05,0.00016,-8e-05,-0.00057,-0.00053,6,25
30595,0.00011,-9e-05,-5e-05,-3e-05,0.00016,-8e-05,-0.00057,-0.00053,6,25
30596,0.00011,-9e-05,-5e-05,-3e-05,0.00016,-8e-05,-0.00057,-0.00053,6,25
30597,0.00011,-9e-05,-5e-05,-3e-05,0.00016,-8e-05,-0.00057,-0.00053,6,25
30598,0.00011,-9e-05,-5e-05,-3e-05,0.00016,-8e-05,-0.00057,-0.00053,6,25
30599,0.00011,-9e-05,-5e-05,-3e-05,0.00016,-8e-05,-0.00057,-0.00053,6,25
30600,0.00011,-9e-05,-5e-05,-3e-05,0.00016,-8e-05,-0.00057,-0.00053,6,25
30602,0.00011,-9e-05,-5e-05,-3e-05,0.00016,-8e-05,-0.00057,-0.00053,6,25
30603,0.00073,4e-05,-1e-05,-0.00011,-0.00047,-5e-05,-0.00055,5e-05,6,25
30604,2e-05,-2e-05,-0.00017,-0.00022,-0.00032,0.00029,2e-05,3e-05,6,25
30605,2e-05,-2e-05,-0.00017,-0.00022,-0.00032,0.00029,2e-05,3e-05,6,25
30606,2e-05,-2e-05,-0.00017,-0.00022,-0.00032,0.00029,2e-05,3e-05,6,25
30607,2e-05,-2e-05,-0.00017,-0.00022,-0.00032,0.00029,2e-05,3e-05,6,25
30608,2e-05,-2e-05,-0.00017,-0.00022,-0.00032,0.00029,2e-05,3e-05,6,25
30609,2e-05,-2e-05,-0.00017,-0.00022,-0.00032,0.00029,2e-05,3e-05,6,25
30610,2e-05,-2e-05,-0.00017,-0.00022,-0.00032,0.00029,2e-05,3e-05,6,25
30611,2e-05,-2e-05,-0.00017,-0.00022,-0.00032,0.00029,2e-05,3e-05,6,25
30612,2e-05,-2e-05,-0.00017,-0.00022,-0.00032,0.00029,2e-05,3e-05,6,25
30613,2e-05,-2e-05,-0.00017,-0.00022,-0.00032,0.00029,2e-05,3e-05,6,25
30614,2e-05,-2e-05,-0.00017,-0.00022,-0.00032,0.00029,2e-05,3e-05,6,25
30615,2e-05,-2e-05,-0.00017,-0.00022,-0.00032,0.00029,2e-05,3e-05,6,25
30616,0.00069,0.0001,-0.0001,-0.00016,-0.00044,-0.00038,-3e-05,1e-05,6,25
30617,0.00069,0.0001,-0.0001,-0.00016,-0.00044,-0.00038,-3e-05,1e-05,6,25
30618,0.00069,0.0001,-0.0001,-0.00016,-0.00044,-0.00038,-3e-05,1e-05,6,25
30619,0.00069,0.0001,-0.0001,-0.00016,-0.00044,-0.00038,-3e-05,1e-05,6,25
30620,0.00069,0.0001,-0.0001,-0.00016,-0.00044,-0.00038,-3e-05,1e-05,6,25
30621,0.00069,0.0001,-0.0001,-0.00016,-0.00044,-0.00038,-3e-05,1e-05,6,25
30622,0.00069,0.0001,-0.0001,-0.00016,-0.00044,-0.00038,-3e-05,1e-05,6,25
30623,0.00069,0.0001,-0.0001,-0.00016,-0.00044,-0.00038,-3e-05,1e-05,6,25
30624,0.00069,0.0001,-0.0001,-0.00016,-0.00044,-0.00038,-3e-05,1e-05,6,25
30625,-0.00049,-0.00032,-3e-05,4e-05,0.00025,0.00013,-0.00012,-0.00048,6,25
30626,-0.00049,-0.00032,-3e-05,4e-05,0.00025,0.00013,-0.00012,-0.00048,6,25
30627,-0.00049,-0.00032,-3e-05,4e-05,0.00025,0.00013,-0.00012,-0.00048,6,25
30628,-0.00049,-0.00032,-3e-05,4e-05,0.00025,0.00013,-0.00012,-0.00048,6,25
30629,-0.00049,-0.00032,-3e-05,4e-05,0.00025,0.00013,-0.00012,-0.00048,6,25
30630,-0.00049,-0.00032,-3e-05,4e-05,0.00025,0.00013,-0.00012,-0.00048,6,25
30631,-0.00049,-0.00032,-3e-05,4e-05,0.00025,0.00013,-0.00012,-0.00048,6,25
30632,-0.00049,-0.00032,-3e-05,4e-05,0.00025,0.00013,-0.00012,-0.00048,6,25
30633,-0.00049,-0.00032,-3e-05,4e-05,0.00025,0.00013,-0.00012,-0.00048,6,25
30634,-0.00049,-0.00032,-3e-05,4e-05,0.00025,0.00013,-0.00012,-0.00048,6,25
30635,-0.00049,-0.00032,-3e-05,4e-05,0.00025,0.00013,-0.00012,-0.00048,6,25
30636,-0.00049,-0.00032,-3e-05,4e-05,0.00025,0.00013,-0.00012,-0.00048,6,25
30639,-0.00049,-0.00032,-3e-05,4e-05,0.00025,0.00013,-0.00012,-0.00048,6,25
30640,0.00016,0,1e-05,1e-05,-0.00037,0.00053,0.00056,-0.00033,6,25
30641,0.00016,0,1e-05,1e-05,-0.00037,0.00053,0.00056,-0.00033,6,25
30642,-0.00025,8e-05,4e-05,-9e-05,1e-05,-3e-05,-2e-05,-2e-05,6,25
30643,-0.00025,8e-05,4e-05,-9e-05,1e-05,-3e-05,-2e-05,-2e-05,6,25
30644,-0.00025,8e-05,4e-05,-9e-05,1e-05,-3e-05,-2e-05,-2e-05,6,25
30645,-0.00025,8e-05,4e-05,-9e-05,1e-05,-3e-05,-2e-05,-2e-05,6,25
30646,-0.00025,8e-05,4e-05,-9e-05,1e-05,-3e-05,-2e-05,-2e-05,6,25
30647,-0.00025,8e-05,4e-05,-9e-05,1e-05,-3e-05,-2e-05,-2e-05,6,25
30648,-0.00025,8e-05,4e-05,-9e-05,1e-05,-3e-05,-2e-05,-2e-05,6,25
30649,-0.00025,8e-05,4e-05,-9e-05,1e-05,-3e-05,-2e-05,-2e-05,6,25
30650,-0.00025,8e-05,4e-05,-9e-05,1e-05,-3e-05,-2e-05,-2e-05,6,25
30652,-0.00025,8e-05,4e-05,-9e-05,1e-05,-3e-05,-2e-05,-2e-05,6,25
30653,-0.00025,8e-05,4e-05,-9e-05,1e-05,-3e-05,-2e-05,-2e-05,6,25
30654,-0.00025,8e-05,4e-05,-9e-05,1e-05,-3e-05,-2e-05,-2e-05,6,25
30655,-0.00025,8e-05,4e-05,-9e-05,1e-05,-3e-05,-2e-05,-2e-05,6,25
30656,-0.00025,8e-05,4e-05,-9e-05,1e-05,-3e-05,-2e-05,-2e-05,6,25
30657,-0.00025,8e-05,4e-05,-9e-05,1e-05,-3e-05,-2e-05,-2e-05,6,25
30658,-0.00025,8e-05,4e-05,-9e-05,1e-05,-3e-05,-2e-05,-2e-05,6,25
30659,-0.00025,8e-05,4e-05,-9e-05,1e-05,-3e-05,-2e-05,-2e-05,6,25
30660,-0.00025,8e-05,4e-05,-9e-05,1e-05,-3e-05,-2e-05,-2e-05,6,25
30661,-0.00025,8e-05,4e-05,-9e-05,1e-05,-3e-05,-2e-05,-2e-05,6,25
30662,-0.00025,8e-05,4e-05,-9e-05,1e-05,-3e-05,-2e-05,-2e-05,6,25
30663,-0.00055,-0.00017,-4e-05,-0.00013,-0.00014,-0.00025,0.0001,-0.00041,6,25
30664,0.00019,0.00017,9e-05,4e-05,0.00041,-0.00013,0.00022,0.00026,6,25
30665,0.00019,0.00017,9e-05,4e-05,0.00041,-0.00013,0.00022,0.00026,6,25
30666,0.00019,0.00017,9e-05,4e-05,0.00041,-0.00013,0.00022,0.00026,6,25
30667,0.00019,0.00017,9e-05,4e-05,0.00041,-0.00013,0.00022,0.00026,6,25
30668,0.00019,0.00017,9e-05,4e-05,0.00041,-0.00013,0.00022,0.00026,6,25
30669,0.00019,0.00017,9e-05,4e-05,0.00041,-0.00013,0.00022,0.00026,6,25
30670,0.00019,0.00017,9e-05,4e-05,0.00041,-0.00013,0.00022,0.00026,6,25
30671,0.00019,0.00017,9e-05,4e-05,0.00041,-0.00013,0.00022,0.00026,6,25
30672,0.00019,0.00017,9e-05,4e-05,0.00041,-0.00013,0.00022,0.00026,6,25
30673,0.00019,0.00017,9e-05,4e-05,0.00041,-0.00013,0.00022,0.00026,6,25
30674,0.00019,0.00017,9e-05,4e-05,0.00041,-0.00013,0.00022,0.00026,6,25
30675,0.00019,0.00017,9e-05,4e-05,0.00041,-0.00013,0.00022,0.00026,6,25
30676,-0.00026,8e-05,4e-05,0.00024,0.00033,-0.00015,-0.00019,0.00011,6,25
30677,-0.00026,8e-05,4e-05,0.00024,0.00033,-0.00015,-0.00019,0.00011,6,25
30678,-0.00026,8e-05,4e-05,0.00024,0.00033,-0.00015,-0.00019,0.00011,6,25
30679,-0.00026,8e-05,4e-05,0.00024,0.00033,-0.00015,-0.00019,0.00011,6,25
30680,-0.00026,8e-05,4e-05,0.00024,0.00033,-0.00015,-0.00019,0.00011,6,25
30681,-0.00026,8e-05,4e-05,0.00024,0.00033,-0.00015,-0.00019,0.00011,6,25
30683,-0.00026,8e-05,4e-05,0.00024,0.00033,-0.00015,-0.00019,0.00011,6,25
30684,-0.00026,8e-05,4e-05,0.00024,0.00033,-0.00015,-0.00019,0.00011,6,25
30685,0.00041,-0.00012,-0.0001,-0.00014,-0.00045,-0.00041,0.00013,0.00019,6,25
30686,0.00041,-0.00012,-0.0001,-0.00014,-0.00045,-0.00041,0.00013,0.00019,6,25
30687,0.00041,-0.00012,-0.0001,-0.00014,-0.00045,-0.00041,0.00013,0.00019,6,25
30689,0.00041,-0.00012,-0.0001,-0.00014,-0.00045,-0.00041,0.00013,0.00019,6,25
30690,0.00041,-0.00012,-0.0001,-0.00014,-0.00045,-0.00041,0.00013,0.00019,6,25
30691,0.00041,-0.00012,-0.0001,-0.00014,-0.00045,-0.00041,0.00013,0.00019,6,25
30692,0.00041,-0.00012,-0.0001,-0.00014,-0.00045,-0.00041,0.00013,0.00019,6,25
30693,0.00041,-0.00012,-0.0001,-0.00014,-0.00045,-0.00041,0.00013,0.00019,6,25
30694,0.00041,-0.00012,-0.0001,-0.00014,-0.00045,-0.00041,0.00013,0.00019,6,25
30695,0.00041,-0.00012,-0.0001,-0.00014,-0.00045,-0.00041,0.00013,0.00019,6,25
30696,0.00041,-0.00012,-0.0001,-0.00014,-0.00045,-0.00041,0.00013,0.00019,6,25
30697,0.00041,-0.00012,-0.0001,-0.00014,-0.00045,-0.00041,0.00013,0.00019,6,25
30698,0.00041,-0.00012,-0.0001,-0.00014,-0.00045,-0.00041,0.00013,0.00019,6,25
30699,0.00041,-0.00012,-0.0001,-0.00014,-0.00045,-0.00041,0.00013,0.00019,6,25
30700,-0.00057,-0.00049,-6e-05,0.00015,0.00032,9e-05,0.00023,0.00037,6,25
30701,-0.00057,-0.00049,-6e-05,0.00015,0.00032,9e-05,0.00023,0.00037,6,25
30702,0.00023,7e-05,-2e-05,3e-05,1e-05,0.00022,0.00015,0.00019,6,25
30703,0.00023,7e-05,-2e-05,3e-05,1e-05,0.00022,0.00015,0.00019,6,25
30704,0.00023,7e-05,-2e-05,3e-05,1e-05,0.00022,0.00015,0.00019,6,25
30705,0.00023,7e-05,-2e-05,3e-05,1e-05,0.00022,0.00015,0.00019,6,25
30706,0.00023,7e-05,-2e-05,3e-05,1e-05,0.00022,0.00015,0.00019,6,25
30707,0.00023,7e-05,-2e-05,3e-05,1e-05,0.00022,0.00015,0.00019,6,25
30708,0.00023,7e-05,-2e-05,3e-05,1e-05,0.00022,0.00015,0.00019,6,25
30709,0.00023,7e-05,-2e-05,3e-05,1e-05,0.00022,0.00015,0.00019,6,25
30710,0.00023,7e-05,-2e-05,3e-05,1e-05,0.00022,0.00015,0.00019,6,25
30711,0.00023,7e-05,-2e-05,3e-05,1e-05,0.00022,0.00015,0.00019,6,25
30712,0.00023,7e-05,-2e-05,3e-05,1e-05,0.00022,0.00015,0.00019,6,25
30713,0.00023,7e-05,-2e-05,3e-05,1e-05,0.00022,0.00015,0.00019,6,25
30714,0.00023,7e-05,-2e-05,3e-05,1e-05,0.00022,0.00015,0.00019,6,25
30715,0.00023,7e-05,-2e-05,3e-05,1e-05,0.00022,0.00015,0.00019,6,25
30716,0.00023,7e-05,-2e-05,3e-05,1e-05,0.00022,0.00015,0.00019,6,25
30717,0.00023,7e-05,-2e-05,3e-05,1e-05,0.00022,0.00015,0.00019,6,25
30718,0.00023,7e-05,-2e-05,3e-05,1e-05,0.00022,0.00015,0.00019,6,25
30719,0.00023,7e-05,-2e-05,3e-05,1e-05,0.00022,0.00015,0.00019,6,25
30720,0.00023,7e-05,-2e-05,3e-05,1e-05,0.00022,0.00015,0.00019,6,25
30721,0.00023,7e-05,-2e-05,3e-05,1e-05,0.00022,0.00015,0.00019,6,25
30722,0.00023,7e-05,-2e-05,3e-05,1e-05,0.00022,0.00015,0.00019,6,25
30723,0.00057,0.00044,0.00022,0.00013,0.00038,-0.00027,-0.00014,-0.00049,6,25
30724,-0.00012,-0.00019,-4e-05,-0.00025,-0.00036,0,0.00013,0.0001,6,25
30725,-0.00012,-0.00019,-4e-05,-0.00025,-0.00036,0,0.00013,0.0001,6,25
30726,-0.00012,-0.00019,-4e-05,-0.00025,-0.00036,0,0.00013,0.0001,6,25
30727,-0.00012,-0.00019,-4e-05,-0.00025,-0.00036,0,0.00013,0.0001,6,25
30728,-0.00012,-0.00019,-4e-05,-0.00025,-0.00036,0,0.00013,0.0001,6,25
30729,-0.00012,-0.00019,-4e-05,-0.00025,-0.00036,0,0.00013,0.0001,6,25
30731,-0.00012,-0.00019,-4e-05,-0.00025,-0.00036,0,0.00013,0.0001,6,25
30732,-0.00012,-0.00019,-4e-05,-0.00025,-0.00036,0,0.00013,0.0001,6,25
30733,-0.00012,-0.00019,-4e-05,-0.00025,-0.00036,0,0.00013,0.0001,6,25
30734,-0.00012,-0.00019,-4e-05,-0.00025,-0.00036,0,0.00013,0.0001,6,25
30735,-0.00012,-0.00019,-4e-05,-0.00025,-0.00036,0,0.00013,0.0001,6,25
30736,-0.00012,-0.00019,-4e-05,-0.00025,-0.00036,0,0.00013,0.0001,6,25
30737,-0.00012,-0.00019,-4e-05,-0.00025,-0.00036,0,0.00013,0.0001,6,25
30738,-0.00012,-0.00019,-4e-05,-0.00025,-0.00036,0,0.00013,0.0001,6,25
30739,-0.00012,-0.00019,-4e-05,-0.00025,-0.00036,0,0.00013,0.0001,6,25
30740,-0.00012,-0.00019,-4e-05,-0.00025,-0.00036,0,0.00013,0.0001,6,25
30741,-0.00012,-0.00019,-4e-05,-0.00025,-0.00036,0,0.00013,0.0001,6,25
30742,-0.00012,-0.00019,-4e-05,-0.00025,-0.00036,0,0.00013,0.0001,6,25
30743,-0.00012,-0.00019,-4e-05,-0.00025,-0.00036,0,0.00013,0.0001,6,25
30744,-0.00012,-0.00019,-4e-05,-0.00025,-0.00036,0,0.00013,0.0001,6,25
30745,0.00019,8e-05,8e-05,0.00025,0.00041,0.00021,-0.00022,0.00024,6,25
30746,0.00019,8e-05,8e-05,0.00025,0.00041,0.00021,-0.00022,0.00024,6,25
30747,0.00012,-8e-05,6e-05,7e-05,0.00077,0.00058,-0.00016,-6e-05,6,25
30748,0.00012,-8e-05,6e-05,7e-05,0.00077,0.00058,-0.00016,-6e-05,6,25
30749,0.00012,-8e-05,6e-05,7e-05,0.00077,0.00058,-0.00016,-6e-05,6,25
30750,0.00012,-8e-05,6e-05,7e-05,0.00077,0.00058,-0.00016,-6e-05,6,25
30751,0.00012,-8e-05,6e-05,7e-05,0.00077,0.00058,-0.00016,-6e-05,6,25
30752,0.00012,-8e-05,6e-05,7e-05,0.00077,0.00058,-0.00016,-6e-05,6,25
30753,0.00012,-8e-05,6e-05,7e-05,0.00077,0.00058,-0.00016,-6e-05,6,25
30754,0.00012,-8e-05,6e-05,7e-05,0.00077,0.00058,-0.00016,-6e-05,6,25
30755,0.00012,-8e-05,6e-05,7e-05,0.00077,0.00058,-0.00016,-6e-05,6,25
30756,0.00012,-8e-05,6e-05,7e-05,0.00077,0.00058,-0.00016,-6e-05,6,25
30757,0.00012,-8e-05,6e-05,7e-05,0.00077,0.00058,-0.00016,-6e-05,6,25
30758,0.00012,-8e-05,6e-05,7e-05,0.00077,0.00058,-0.00016,-6e-05,6,25
30759,0.00012,-8e-05,6e-05,7e-05,0.00077,0.00058,-0.00016,-6e-05,6,25
30760,-0.00039,-3e-05,-6e-05,-6e-05,-0.00045,5e-05,-0.00021,-0.00026,6,25
30761,-0.00039,-3e-05,-6e-05,-6e-05,-0.00045,5e-05,-0.00021,-0.00026,6,25
30762,2e-05,-4e-05,-5e-05,-3e-05,-0.00032,-0.00016,0.0002,-0.00012,6,25
30763,2e-05,-4e-05,-5e-05,-3e-05,-0.00032,-0.00016,0.0002,-0.00012,6,25
30764,2e-05,-4e-05,-5e-05,-3e-05,-0.00032,-0.00016,0.0002,-0.00012,6,25
30765,2e-05,-4e-05,-5e-05,-3e-05,-0.00032,-0.00016,0.0002,-0.00012,6,25
30766,2e-05,-4e-05,-5e-05,-3e-05,-0.00032,-0.00016,0.0002,-0.00012,6,25
30767,2e-05,-4e-05,-5e-05,-3e-05,-0.00032,-0.00016,0.0002,-0.00012,6,25
30768,2e-05,-4e-05,-5e-05,-3e-05,-0.00032,-0.00016,0.0002,-0.00012,6,25
30769,2e-05,-4e-05,-5e-05,-3e-05,-0.00032,-0.00016,0.0002,-0.00012,6,25
30770,2e-05,-4e-05,-5e-05,-3e-05,-0.00032,-0.00016,0.0002,-0.00012,6,25
30771,2e-05,-4e-05,-5e-05,-3e-05,-0.00032,-0.00016,0.0002,-0.00012,6,25
30772,2e-05,-4e-05,-5e-05,-3e-05,-0.00032,-0.00016,0.0002,-0.00012,6,25
30773,2e-05,-4e-05,-5e-05,-3e-05,-0.00032,-0.00016,0.0002,-0.00012,6,25
30774,2e-05,-4e-05,-5e-05,-3e-05,-0.00032,-0.00016,0.0002,-0.00012,6,25
30775,2e-05,-4e-05,-5e-05,-3e-05,-0.00032,-0.00016,0.0002,-0.00012,6,25
30777,2e-05,-4e-05,-5e-05,-3e-05,-0.00032,-0.00016,0.0002,-0.00012,6,25
30778,2e-05,-4e-05,-5e-05,-3e-05,-0.00032,-0.00016,0.0002,-0.00012,6,25
30779,2e-05,-4e-05,-5e-05,-3e-05,-0.00032,-0.00016,0.0002,-0.00012,6,25
30780,2e-05,-4e-05,-5e-05,-3e-05,-0.00032,-0.00016,0.0002,-0.00012,6,25
30781,2e-05,-4e-05,-5e-05,-3e-05,-0.00032,-0.00016,0.0002,-0.00012,6,25
30782,2e-05,-4e-05,-5e-05,-3e-05,-0.00032,-0.00016,0.0002,-0.00012,6,25
30783,-0.00043,0.00018,0.00019,1e-05,5e-05,0.00042,-6e-05,-0.00039,6,25
30784,-0.00043,0.00018,0.00019,1e-05,5e-05,0.00042,-6e-05,-0.00039,6,25
30785,0.0001,0.00019,4e-05,5e-05,-0.00021,-0.0002,-0.00015,0.0003,6,25
30786,0.0001,0.00019,4e-05,5e-05,-0.00021,-0.0002,-0.00015,0.0003,6,25
30787,0.0001,0.00019,4e-05,5e-05,-0.00021,-0.0002,-0.00015,0.0003,6,25
30788,0.0001,0.00019,4e-05,5e-05,-0.00021,-0.0002,-0.00015,0.0003,6,25
30789,0.0001,0.00019,4e-05,5e-05,-0.00021,-0.0002,-0.00015,0.0003,6,25
30790,0.0001,0.00019,4e-05,5e-05,-0.00021,-0.0002,-0.00015,0.0003,6,25
30791,0.0001,0.00019,4e-05,5e-05,-0.00021,-0.0002,-0.00015,0.0003,6,25
30792,0.0001,0.00019,4e-05,5e-05,-0.00021,-0.0002,-0.00015,0.0003,6,25
30793,0.0001,0.00019,4e-05,5e-05,-0.00021,-0.0002,-0.00015,0.0003,6,25
30794,0.0001,0.00019,4e-05,5e-05,-0.00021,-0.0002,-0.00015,0.0003,6,25
30795,0.0001,0.00019,4e-05,5e-05,-0.00021,-0.0002,-0.00015,0.0003,6,25
30796,0.0001,0.00019,4e-05,5e-05,-0.00021,-0.0002,-0.00015,0.0003,6,25
30797,0.00025,-0.00011,-0.0001,-0.00025,-0.00047,-0.00026,9e-05,6e-05,6,25
30798,0.00025,-0.00011,-0.0001,-0.00025,-0.00047,-0.00026,9e-05,6e-05,6,25
30799,0.00025,-0.00011,-0.0001,-0.00025,-0.00047,-0.00026,9e-05,6e-05,6,25
30800,0.00025,-0.00011,-0.0001,-0.00025,-0.00047,-0.00026,9e-05,6e-05,6,25
30801,0.00025,-0.00011,-0.0001,-0.00025,-0.00047,-0.00026,9e-05,6e-05,6,25
30802,0.00025,-0.00011,-0.0001,-0.00025,-0.00047,-0.00026,9e-05,6e-05,6,25
30803,0.00025,-0.00011,-0.0001,-0.00025,-0.00047,-0.00026,9e-05,6e-05,6,25
30804,0.00025,-0.00011,-0.0001,-0.00025,-0.00047,-0.00026,9e-05,6e-05,6,25
30805,0.00017,0.00018,7e-05,0,-0.00039,-0.00039,2e-05,-2e-05,6,25
30806,0.00017,0.00018,7e-05,0,-0.00039,-0.00039,2e-05,-2e-05,6,25
30807,0.00017,0.00018,7e-05,0,-0.00039,-0.00039,2e-05,-2e-05,6,25
30808,0.00017,0.00018,7e-05,0,-0.00039,-0.00039,2e-05,-2e-05,6,25
30809,0.00017,0.00018,7e-05,0,-0.00039,-0.00039,2e-05,-2e-05,6,25
30810,0.00017,0.00018,7e-05,0,-0.00039,-0.00039,2e-05,-2e-05,6,25
30811,0.00017,0.00018,7e-05,0,-0.00039,-0.00039,2e-05,-2e-05,6,25
30812,0.00017,0.00018,7e-05,0,-0.00039,-0.00039,2e-05,-2e-05,6,25
30813,0.00017,0.00018,7e-05,0,-0.00039,-0.00039,2e-05,-2e-05,6,25
30814,0.00017,0.00018,7e-05,0,-0.00039,-0.00039,2e-05,-2e-05,6,25
30815,0.00017,0.00018,7e-05,0,-0.00039,-0.00039,2e-05,-2e-05,6,25
30816,0.00017,0.00018,7e-05,0,-0.00039,-0.00039,2e-05,-2e-05,6,25
30817,0.00017,0.00018,7e-05,0,-0.00039,-0.00039,2e-05,-2e-05,6,25
30818,0.00017,0.00018,7e-05,0,-0.00039,-0.00039,2e-05,-2e-05,6,25
30819,0.00017,0.00018,7e-05,0,-0.00039,-0.00039,2e-05,-2e-05,6,25
30820,0.00012,4e-05,-7e-05,0.00013,-0.00014,0.00025,-5e-05,-0.00033,6,25
30821,0.00012,4e-05,-7e-05,0.00013,-0.00014,0.00025,-5e-05,-0.00033,6,25
30822,0.00012,4e-05,-7e-05,0.00013,-0.00014,0.00025,-5e-05,-0.00033,6,25
30824,0.00012,4e-05,-7e-05,0.00013,-0.00014,0.00025,-5e-05,-0.00033,6,25
30825,0.00012,4e-05,-7e-05,0.00013,-0.00014,0.00025,-5e-05,-0.00033,6,25
30826,-0.00034,-0.00029,-2e-05,0.00018,0.00088,0.00096,-0.00053,-0.0005,6,25
30827,-0.00034,-0.00029,-2e-05,0.00018,0.00088,0.00096,-0.00053,-0.0005,6,25
30828,-0.00034,-0.00029,-2e-05,0.00018,0.00088,0.00096,-0.00053,-0.0005,6,25
30829,-0.00034,-0.00029,-2e-05,0.00018,0.00088,0.00096,-0.00053,-0.0005,6,25
30830,-0.00034,-0.00029,-2e-05,0.00018,0.00088,0.00096,-0.00053,-0.0005,6,25
30831,-0.00034,-0.00029,-2e-05,0.00018,0.00088,0.00096,-0.00053,-0.0005,6,25
30832,-0.00034,-0.00029,-2e-05,0.00018,0.00088,0.00096,-0.00053,-0.0005,6,25
30833,-0.00034,-0.00029,-2e-05,0.00018,0.00088,0.00096,-0.00053,-0.0005,6,25
30834,-0.00034,-0.00029,-2e-05,0.00018,0.00088,0.00096,-0.00053,-0.0005,6,25
30835,-0.00034,-0.00029,-2e-05,0.00018,0.00088,0.00096,-0.00053,-0.0005,6,25
30836,-0.00034,-0.00029,-2e-05,0.00018,0.00088,0.00096,-0.00053,-0.0005,6,25
30837,-0.00034,-0.00029,-2e-05,0.00018,0.00088,0.00096,-0.00053,-0.0005,6,25
30838,-0.00034,-0.00029,-2e-05,0.00018,0.00088,0.00096,-0.00053,-0.0005,6,25
30839,-0.00034,-0.00029,-2e-05,0.00018,0.00088,0.00096,-0.00053,-0.0005,6,25
30840,-0.00034,-0.00029,-2e-05,0.00018,0.00088,0.00096,-0.00053,-0.0005,6,25
30841,-0.00034,-0.00029,-2e-05,0.00018,0.00088,0.00096,-0.00053,-0.0005,6,25
30842,-0.00034,-0.00029,-2e-05,0.00018,0.00088,0.00096,-0.00053,-0.0005,6,25
30843,8e-05,0.00026,-1e-05,-8e-05,0.00023,0.00017,0.00016,0.00037,6,25
30844,0.00017,9e-05,0,-6e-05,-0.00022,-0.00034,-7e-05,3e-05,6,25
30845,0.00017,9e-05,0,-6e-05,-0.00022,-0.00034,-7e-05,3e-05,6,25
30846,0.00017,9e-05,0,-6e-05,-0.00022,-0.00034,-7e-05,3e-05,6,25
30847,0.00017,9e-05,0,-6e-05,-0.00022,-0.00034,-7e-05,3e-05,6,25
30848,0.00017,9e-05,0,-6e-05,-0.00022,-0.00034,-7e-05,3e-05,6,25
30849,0.00017,9e-05,0,-6e-05,-0.00022,-0.00034,-7e-05,3e-05,6,25
30850,0.00017,9e-05,0,-6e-05,-0.00022,-0.00034,-7e-05,3e-05,6,25
30851,0.00017,9e-05,0,-6e-05,-0.00022,-0.00034,-7e-05,3e-05,6,25
30852,0.00017,9e-05,0,-6e-05,-0.00022,-0.00034,-7e-05,3e-05,6,25
30853,0.00017,9e-05,0,-6e-05,-0.00022,-0.00034,-7e-05,3e-05,6,25
30854,0.00017,9e-05,0,-6e-05,-0.00022,-0.00034,-7e-05,3e-05,6,25
30855,0.00017,9e-05,0,-6e-05,-0.00022,-0.00034,-7e-05,3e-05,6,25
30856,0.00017,9e-05,0,-6e-05,-0.00022,-0.00034,-7e-05,3e-05,6,25
30857,0.00017,9e-05,0,-6e-05,-0.00022,-0.00034,-7e-05,3e-05,6,25
30858,0.00017,9e-05,0,-6e-05,-0.00022,-0.00034,-7e-05,3e-05,6,25
30859,0.00017,9e-05,0,-6e-05,-0.00022,-0.00034,-7e-05,3e-05,6,25
30860,0.00017,9e-05,0,-6e-05,-0.00022,-0.00034,-7e-05,3e-05,6,25
30861,0.00017,9e-05,0,-6e-05,-0.00022,-0.00034,-7e-05,3e-05,6,25
30862,0.00017,9e-05,0,-6e-05,-0.00022,-0.00034,-7e-05,3e-05,6,25
30863,0.00017,9e-05,0,-6e-05,-0.00022,-0.00034,-7e-05,3e-05,6,25
30864,0.00017,9e-05,0,-6e-05,-0.00022,-0.00034,-7e-05,3e-05,6,25
30865,-0.00011,-1e-05,1e-05,0.00032,0.00089,0.0002,0.00012,1e-05,6,25
30866,-0.00011,-1e-05,1e-05,0.00032,0.00089,0.0002,0.00012,1e-05,6,25
30867,0.0008,5e-05,-0.00014,-0.00017,-0.00017,-0.00025,0.00023,0.0004,6,25
30868,0.0008,5e-05,-0.00014,-0.00017,-0.00017,-0.00025,0.00023,0.0004,6,25
30869,0.0008,5e-05,-0.00014,-0.00017,-0.00017,-0.00025,0.00023,0.0004,6,25
30870,0.0008,5e-05,-0.00014,-0.00017,-0.00017,-0.00025,0.00023,0.0004,6,25
30872,0.0008,5e-05,-0.00014,-0.00017,-0.00017,-0.00025,0.00023,0.0004,6,25
30873,0.0008,5e-05,-0.00014,-0.00017,-0.00017,-0.00025,0.00023,0.0004,6,25
30874,0.0008,5e-05,-0.00014,-0.00017,-0.00017,-0.00025,0.00023,0.0004,6,25
30875,0.0008,5e-05,-0.00014,-0.00017,-0.00017,-0.00025,0.00023,0.0004,6,25
30876,0.0008,5e-05,-0.00014,-0.00017,-0.00017,-0.00025,0.00023,0.0004,6,25
30877,0.0008,5e-05,-0.00014,-0.00017,-0.00017,-0.00025,0.00023,0.0004,6,25
30878,0.0008,5e-05,-0.00014,-0.00017,-0.00017,-0.00025,0.00023,0.0004,6,25
30879,0.0008,5e-05,-0.00014,-0.00017,-0.00017,-0.00025,0.00023,0.0004,6,25
30880,-8e-05,2e-05,2e-05,0.00016,0.00065,0.0001,3e-05,0.00013,6,25
30881,-8e-05,2e-05,2e-05,0.00016,0.00065,0.0001,3e-05,0.00013,6,25
30882,-0.0001,-8e-05,3e-05,0.00021,0.00104,0.00111,0.00031,6e-05,6,25
30883,-0.0001,-8e-05,3e-05,0.00021,0.00104,0.00111,0.00031,6e-05,6,25
30884,-0.0001,-8e-05,3e-05,0.00021,0.00104,0.00111,0.00031,6e-05,6,25
30885,-0.0001,-8e-05,3e-05,0.00021,0.00104,0.00111,0.00031,6e-05,6,25
30886,-0.0001,-8e-05,3e-05,0.00021,0.00104,0.00111,0.00031,6e-05,6,25
30887,-0.0001,-8e-05,3e-05,0.00021,0.00104,0.00111,0.00031,6e-05,6,25
30888,-0.0001,-8e-05,3e-05,0.00021,0.00104,0.00111,0.00031,6e-05,6,25
30889,-0.0001,-8e-05,3e-05,0.00021,0.00104,0.00111,0.00031,6e-05,6,25
30890,-0.0001,-8e-05,3e-05,0.00021,0.00104,0.00111,0.00031,6e-05,6,25
30891,-0.0001,-8e-05,3e-05,0.00021,0.00104,0.00111,0.00031,6e-05,6,25
30892,-0.0001,-8e-05,3e-05,0.00021,0.00104,0.00111,0.00031,6e-05,6,25
30893,-0.0001,-8e-05,3e-05,0.00021,0.00104,0.00111,0.00031,6e-05,6,25
30894,-0.0001,-8e-05,3e-05,0.00021,0.00104,0.00111,0.00031,6e-05,6,25
30895,-0.0001,-8e-05,3e-05,0.00021,0.00104,0.00111,0.00031,6e-05,6,25
30896,-0.0001,-8e-05,3e-05,0.00021,0.00104,0.00111,0.00031,6e-05,6,25
30897,-0.0001,-8e-05,3e-05,0.00021,0.00104,0.00111,0.00031,6e-05,6,25
30898,-0.0001,-8e-05,3e-05,0.00021,0.00104,0.00111,0.00031,6e-05,6,25
30899,-0.0001,-8e-05,3e-05,0.00021,0.00104,0.00111,0.00031,6e-05,6,25
30901,-0.0001,-8e-05,3e-05,0.00021,0.00104,0.00111,0.00031,6e-05,6,25
30903,0.0002,0.00024,8e-05,0.00017,-0.0002,0.00056,-0.00024,-0.00026,6,25
30904,0.00018,-8e-05,-4e-05,-9e-05,-0.00049,-0.00086,-7e-05,-0.00031,6,25
30905,0.00018,-8e-05,-4e-05,-9e-05,-0.00049,-0.00086,-7e-05,-0.00031,6,25
30906,0.00018,-8e-05,-4e-05,-9e-05,-0.00049,-0.00086,-7e-05,-0.00031,6,25
30907,0.00018,-8e-05,-4e-05,-9e-05,-0.00049,-0.00086,-7e-05,-0.00031,6,25
30908,0.00018,-8e-05,-4e-05,-9e-05,-0.00049,-0.00086,-7e-05,-0.00031,6,25
30909,0.00018,-8e-05,-4e-05,-9e-05,-0.00049,-0.00086,-7e-05,-0.00031,6,25
30910,0.00018,-8e-05,-4e-05,-9e-05,-0.00049,-0.00086,-7e-05,-0.00031,6,25
30911,0.00018,-8e-05,-4e-05,-9e-05,-0.00049,-0.00086,-7e-05,-0.00031,6,25
30912,0.00018,-8e-05,-4e-05,-9e-05,-0.00049,-0.00086,-7e-05,-0.00031,6,25
30913,0.00018,-8e-05,-4e-05,-9e-05,-0.00049,-0.00086,-7e-05,-0.00031,6,25
30914,0.00018,-8e-05,-4e-05,-9e-05,-0.00049,-0.00086,-7e-05,-0.00031,6,25
30915,0.00018,-8e-05,-4e-05,-9e-05,-0.00049,-0.00086,-7e-05,-0.00031,6,25
30916,0.00018,-8e-05,-4e-05,-9e-05,-0.00049,-0.00086,-7e-05,-0.00031,6,25
30917,0.00018,-8e-05,-4e-05,-9e-05,-0.00049,-0.00086,-7e-05,-0.00031,6,25
30918,0.00018,-8e-05,-4e-05,-9e-05,-0.00049,-0.00086,-7e-05,-0.00031,6,25
30919,0.00018,-8e-05,-4e-05,-9e-05,-0.00049,-0.00086,-7e-05,-0.00031,6,25
30920,0.00018,-8e-05,-4e-05,-9e-05,-0.00049,-0.00086,-7e-05,-0.00031,6,25
30921,0.00018,-8e-05,-4e-05,-9e-05,-0.00049,-0.00086,-7e-05,-0.00031,6,25
30922,0.00018,-8e-05,-4e-05,-9e-05,-0.00049,-0.00086,-7e-05,-0.00031,6,25
30923,0.00018,-8e-05,-4e-05,-9e-05,-0.00049,-0.00086,-7e-05,-0.00031,6,25
30924,0.00018,-8e-05,-4e-05,-9e-05,-0.00049,-0.00086,-7e-05,-0.00031,6,25
30925,-4e-05,-0.0001,3e-05,2e-05,-0.00067,-0.0007,-0.00015,9e-05,6,25
30926,-4e-05,-0.0001,3e-05,2e-05,-0.00067,-0.0007,-0.00015,9e-05,6,25
30927,-0.00012,9e-05,-5e-05,0.00012,-0.0001,-0.00019,-0.00011,-0.00027,6,25
30928,-0.00012,9e-05,-5e-05,0.00012,-0.0001,-0.00019,-0.00011,-0.00027,6,25
30929,-0.00012,9e-05,-5e-05,0.00012,-0.0001,-0.00019,-0.00011,-0.00027,6,25
30930,-0.00012,9e-05,-5e-05,0.00012,-0.0001,-0.00019,-0.00011,-0.00027,6,25
30931,-0.00012,9e-05,-5e-05,0.00012,-0.0001,-0.00019,-0.00011,-0.00027,6,25
30932,-0.00012,9e-05,-5e-05,0.00012,-0.0001,-0.00019,-0.00011,-0.00027,6,25
30933,-0.00012,9e-05,-5e-05,0.00012,-0.0001,-0.00019,-0.00011,-0.00027,6,25
30934,-0.00012,9e-05,-5e-05,0.00012,-0.0001,-0.00019,-0.00011,-0.00027,6,25
30935,-0.00012,9e-05,-5e-05,0.00012,-0.0001,-0.00019,-0.00011,-0.00027,6,25
30936,-0.00012,9e-05,-5e-05,0.00012,-0.0001,-0.00019,-0.00011,-0.00027,6,25
30937,-0.00012,9e-05,-5e-05,0.00012,-0.0001,-0.00019,-0.00011,-0.00027,6,25
30938,-0.00012,9e-05,-5e-05,0.00012,-0.0001,-0.00019,-0.00011,-0.00027,6,25
30939,-0.00012,9e-05,-5e-05,0.00012,-0.0001,-0.00019,-0.00011,-0.00027,6,25
30940,0.00054,0.00013,0,-0.0001,0.00058,-0.00052,-0.00016,0.00029,6,25
30941,0.00054,0.00013,0,-0.0001,0.00058,-0.00052,-0.00016,0.00029,6,25
30942,0.00051,-0.0001,3e-05,-7e-05,-0.00034,0.00046,0.00037,0,6,25
30943,0.00051,-0.0001,3e-05,-7e-05,-0.00034,0.00046,0.00037,0,6,25
30944,0.00051,-0.0001,3e-05,-7e-05,-0.00034,0.00046,0.00037,0,6,25
30945,0.00051,-0.0001,3e-05,-7e-05,-0.00034,0.00046,0.00037,0,6,25
30946,0.00051,-0.0001,3e-05,-7e-05,-0.00034,0.00046,0.00037,0,6,25
30947,0.00051,-0.0001,3e-05,-7e-05,-0.00034,0.00046,0.00037,0,6,25
30949,0.00051,-0.0001,3e-05,-7e-05,-0.00034,0.00046,0.00037,0,6,25
30950,0.00051,-0.0001,3e-05,-7e-05,-0.00034,0.00046,0.00037,0,6,25
30952,0.00051,-0.0001,3e-05,-7e-05,-0.00034,0.00046,0.00037,0,6,25
30953,0.00051,-0.0001,3e-05,-7e-05,-0.00034,0.00046,0.00037,0,6,25
30954,0.00051,-0.0001,3e-05,-7e-05,-0.00034,0.00046,0.00037,0,6,25
30955,0.00051,-0.0001,3e-05,-7e-05,-0.00034,0.00046,0.00037,0,6,25
30956,0.00051,-0.0001,3e-05,-7e-05,-0.00034,0.00046,0.00037,0,6,25
30957,0.00051,-0.0001,3e-05,-7e-05,-0.00034,0.00046,0.00037,0,6,25
30958,0.00051,-0.0001,3e-05,-7e-05,-0.00034,0.00046,0.00037,0,6,25
30959,0.00051,-0.0001,3e-05,-7e-05,-0.00034,0.00046,0.00037,0,6,25
30960,0.00051,-0.0001,3e-05,-7e-05,-0.00034,0.00046,0.00037,0,6,25
30961,0.00051,-0.0001,3e-05,-7e-05,-0.00034,0.00046,0.00037,0,6,25
30962,0.00051,-0.0001,3e-05,-7e-05,-0.00034,0.00046,0.00037,0,6,25
30963,-0.00016,-7e-05,-6e-05,-0.00017,-0.00015,0.00026,1e-05,-1e-05,6,25
30964,-0.00015,-1e-05,5e-05,0.0002,0.00044,0.0006,0.00019,0.00052,6,25
30965,-0.00015,-1e-05,5e-05,0.0002,0.00044,0.0006,0.00019,0.00052,6,25
30966,-0.00015,-1e-05,5e-05,0.0002,0.00044,0.0006,0.00019,0.00052,6,25
30967,-0.00015,-1e-05,5e-05,0.0002,0.00044,0.0006,0.00019,0.00052,6,25
30968,-0.00015,-1e-05,5e-05,0.0002,0.00044,0.0006,0.00019,0.00052,6,25
30969,-0.00015,-1e-05,5e-05,0.0002,0.00044,0.0006,0.00019,0.00052,6,25
30970,-0.00015,-1e-05,5e-05,0.0002,0.00044,0.0006,0.00019,0.00052,6,25
30971,-0.00015,-1e-05,5e-05,0.0002,0.00044,0.0006,0.00019,0.00052,6,25
30972,-0.00015,-1e-05,5e-05,0.0002,0.00044,0.0006,0.00019,0.00052,6,25
30973,-0.00015,-1e-05,5e-05,0.0002,0.00044,0.0006,0.00019,0.00052,6,25
30974,-0.00015,-1e-05,5e-05,0.0002,0.00044,0.0006,0.00019,0.00052,6,25
30975,-0.00015,-1e-05,5e-05,0.0002,0.00044,0.0006,0.00019,0.00052,6,25
30976,-0.00015,-1e-05,5e-05,0.0002,0.00044,0.0006,0.00019,0.00052,6,25
30977,-0.00015,-1e-05,5e-05,0.0002,0.00044,0.0006,0.00019,0.00052,6,25
30978,-0.00015,-1e-05,5e-05,0.0002,0.00044,0.0006,0.00019,0.00052,6,25
30979,-0.00015,-1e-05,5e-05,0.0002,0.00044,0.0006,0.00019,0.00052,6,25
30980,-0.00015,-1e-05,5e-05,0.0002,0.00044,0.0006,0.00019,0.00052,6,25
30981,-0.00015,-1e-05,5e-05,0.0002,0.00044,0.0006,0.00019,0.00052,6,25
30982,-0.00015,-1e-05,5e-05,0.0002,0.00044,0.0006,0.00019,0.00052,6,25
30983,-0.00015,-1e-05,5e-05,0.0002,0.00044,0.0006,0.00019,0.00052,6,25
30984,-0.00015,-1e-05,5e-05,0.0002,0.00044,0.0006,0.00019,0.00052,6,25
30985,-9e-05,-0.0001,-0.00011,-0.00038,-0.00093,-0.00091,0,7e-05,6,25
30986,-9e-05,-0.0001,-0.00011,-0.00038,-0.00093,-0.00091,0,7e-05,6,25
30988,-0.00026,-0.0001,-0.00011,-0.00022,-0.00033,-0.00018,-2e-05,0.00018,6,25
30989,-0.00026,-0.0001,-0.00011,-0.00022,-0.00033,-0.00018,-2e-05,0.00018,6,25
30990,-0.00026,-0.0001,-0.00011,-0.00022,-0.00033,-0.00018,-2e-05,0.00018,6,25
30991,-0.00026,-0.0001,-0.00011,-0.00022,-0.00033,-0.00018,-2e-05,0.00018,6,25
30992,-0.00026,-0.0001,-0.00011,-0.00022,-0.00033,-0.00018,-2e-05,0.00018,6,25
30993,-0.00026,-0.0001,-0.00011,-0.00022,-0.00033,-0.00018,-2e-05,0.00018,6,25
30994,-0.00026,-0.0001,-0.00011,-0.00022,-0.00033,-0.00018,-2e-05,0.00018,6,25
30996,-0.00026,-0.0001,-0.00011,-0.00022,-0.00033,-0.00018,-2e-05,0.00018,6,25
30997,-0.00026,-0.0001,-0.00011,-0.00022,-0.00033,-0.00018,-2e-05,0.00018,6,25
30998,-0.00026,-0.0001,-0.00011,-0.00022,-0.00033,-0.00018,-2e-05,0.00018,6,25
30999,-0.00026,-0.0001,-0.00011,-0.00022,-0.00033,-0.00018,-2e-05,0.00018,6,25
31000,-0.00018,-2e-05,-3e-05,7e-05,-0.00034,-7e-05,-9e-05,6e-05,6,25
31002,-0.00018,-2e-05,-3e-05,7e-05,-0.00034,-7e-05,-9e-05,6e-05,6,25
31003,-0.00018,-2e-05,-3e-05,7e-05,-0.00034,-7e-05,-9e-05,6e-05,6,25
31004,-0.00018,-2e-05,-3e-05,7e-05,-0.00034,-7e-05,-9e-05,6e-05,6,25
31005,-0.00018,-2e-05,-3e-05,7e-05,-0.00034,-7e-05,-9e-05,6e-05,6,25
31006,-4e-05,0.00019,0.00024,0.00037,0.00108,0.00048,8e-05,-0.00057,6,25
31007,-4e-05,0.00019,0.00024,0.00037,0.00108,0.00048,8e-05,-0.00057,6,25
31008,-4e-05,0.00019,0.00024,0.00037,0.00108,0.00048,8e-05,-0.00057,6,25
31009,-4e-05,0.00019,0.00024,0.00037,0.00108,0.00048,8e-05,-0.00057,6,25
31010,-4e-05,0.00019,0.00024,0.00037,0.00108,0.00048,8e-05,-0.00057,6,25
31011,-4e-05,0.00019,0.00024,0.00037,0.00108,0.00048,8e-05,-0.00057,6,25
31012,-4e-05,0.00019,0.00024,0.00037,0.00108,0.00048,8e-05,-0.00057,6,25
31013,-4e-05,0.00019,0.00024,0.00037,0.00108,0.00048,8e-05,-0.00057,6,25
31014,-4e-05,0.00019,0.00024,0.00037,0.00108,0.00048,8e-05,-0.00057,6,25
31015,-4e-05,0.00019,0.00024,0.00037,0.00108,0.00048,8e-05,-0.00057,6,25
31016,-4e-05,0.00019,0.00024,0.00037,0.00108,0.00048,8e-05,-0.00057,6,25
31017,-4e-05,0.00019,0.00024,0.00037,0.00108,0.00048,8e-05,-0.00057,6,25
31018,-4e-05,0.00019,0.00024,0.00037,0.00108,0.00048,8e-05,-0.00057,6,25
31019,-4e-05,0.00019,0.00024,0.00037,0.00108,0.00048,8e-05,-0.00057,6,25
31020,-4e-05,0.00019,0.00024,0.00037,0.00108,0.00048,8e-05,-0.00057,6,25
31021,-4e-05,0.00019,0.00024,0.00037,0.00108,0.00048,8e-05,-0.00057,6,25
31022,-4e-05,0.00019,0.00024,0.00037,0.00108,0.00048,8e-05,-0.00057,6,25
31023,-4e-05,0.00019,0.00024,0.00037,0.00108,0.00048,8e-05,-0.00057,6,25
31026,-0.00025,7e-05,1e-05,-9e-05,-0.00013,-0.00049,5e-05,-0.00016,6,25
31027,-0.00018,0.00011,-1e-05,-0.00015,-0.00054,-0.00046,-9e-05,-2e-05,6,25
31028,-0.00018,0.00011,-1e-05,-0.00015,-0.00054,-0.00046,-9e-05,-2e-05,6,25
31029,-0.00018,0.00011,-1e-05,-0.00015,-0.00054,-0.00046,-9e-05,-2e-05,6,25
31030,-0.00018,0.00011,-1e-05,-0.00015,-0.00054,-0.00046,-9e-05,-2e-05,6,25
31031,-0.00018,0.00011,-1e-05,-0.00015,-0.00054,-0.00046,-9e-05,-2e-05,6,25
31032,-0.00018,0.00011,-1e-05,-0.00015,-0.00054,-0.00046,-9e-05,-2e-05,6,25
31033,-0.00018,0.00011,-1e-05,-0.00015,-0.00054,-0.00046,-9e-05,-2e-05,6,25
31034,-0.00018,0.00011,-1e-05,-0.00015,-0.00054,-0.00046,-9e-05,-2e-05,6,25
31035,-0.00018,0.00011,-1e-05,-0.00015,-0.00054,-0.00046,-9e-05,-2e-05,6,25
31036,-0.00018,0.00011,-1e-05,-0.00015,-0.00054,-0.00046,-9e-05,-2e-05,6,25
31037,-0.00018,0.00011,-1e-05,-0.00015,-0.00054,-0.00046,-9e-05,-2e-05,6,25
31038,-0.00018,0.00011,-1e-05,-0.00015,-0.00054,-0.00046,-9e-05,-2e-05,6,25
31039,-0.00018,0.00011,-1e-05,-0.00015,-0.00054,-0.00046,-9e-05,-2e-05,6,25
31040,-0.00018,0.00011,-1e-05,-0.00015,-0.00054,-0.00046,-9e-05,-2e-05,6,25
31041,-0.00018,0.00011,-1e-05,-0.00015,-0.00054,-0.00046,-9e-05,-2e-05,6,25
31042,-0.00018,0.00011,-1e-05,-0.00015,-0.00054,-0.00046,-9e-05,-2e-05,6,25
31043,-0.00018,0.00011,-1e-05,-0.00015,-0.00054,-0.00046,-9e-05,-2e-05,6,25
31044,-0.00018,0.00011,-1e-05,-0.00015,-0.00054,-0.00046,-9e-05,-2e-05,6,25
31045,9e-05,-0.00021,-5e-05,8e-05,0.00041,0.00051,9e-05,-3e-05,6,25
31046,9e-05,-0.00021,-5e-05,8e-05,0.00041,0.00051,9e-05,-3e-05,6,25
31047,-0.00086,-3e-05,-0.00012,-0.00028,-0.00073,2e-05,-0.00015,-0.00021,6,25
31048,-0.00086,-3e-05,-0.00012,-0.00028,-0.00073,2e-05,-0.00015,-0.00021,6,25
31049,-0.00086,-3e-05,-0.00012,-0.00028,-0.00073,2e-05,-0.00015,-0.00021,6,25
31050,-0.00086,-3e-05,-0.00012,-0.00028,-0.00073,2e-05,-0.00015,-0.00021,6,25
31052,-0.00086,-3e-05,-0.00012,-0.00028,-0.00073,2e-05,-0.00015,-0.00021,6,25
31053,-0.00086,-3e-05,-0.00012,-0.00028,-0.00073,2e-05,-0.00015,-0.00021,6,25
31054,-0.00086,-3e-05,-0.00012,-0.00028,-0.00073,2e-05,-0.00015,-0.00021,6,25
31055,-0.00086,-3e-05,-0.00012,-0.00028,-0.00073,2e-05,-0.00015,-0.00021,6,25
31056,-0.00086,-3e-05,-0.00012,-0.00028,-0.00073,2e-05,-0.00015,-0.00021,6,25
31057,-0.00086,-3e-05,-0.00012,-0.00028,-0.00073,2e-05,-0.00015,-0.00021,6,25
31058,-0.00086,-3e-05,-0.00012,-0.00028,-0.00073,2e-05,-0.00015,-0.00021,6,25
31059,-0.00086,-3e-05,-0.00012,-0.00028,-0.00073,2e-05,-0.00015,-0.00021,6,25
31060,0.00016,-0.00019,-0.00025,-0.00027,-0.00033,0.00023,-0.00022,0,6,25
31061,0.00016,-0.00019,-0.00025,-0.00027,-0.00033,0.00023,-0.00022,0,6,25
31062,0.00016,-0.00019,-0.00025,-0.00027,-0.00033,0.00023,-0.00022,0,6,25
31063,0.00016,-0.00019,-0.00025,-0.00027,-0.00033,0.00023,-0.00022,0,6,25
31064,0.00016,-0.00019,-0.00025,-0.00027,-0.00033,0.00023,-0.00022,0,6,25
31065,0.00016,-0.00019,-0.00025,-0.00027,-0.00033,0.00023,-0.00022,0,6,25
31066,0.00017,-4e-05,-4e-05,-0.0002,-0.00083,-0.00078,-0.00016,0.00044,6,25
31067,0.00017,-4e-05,-4e-05,-0.0002,-0.00083,-0.00078,-0.00016,0.00044,6,25
31068,0.00017,-4e-05,-4e-05,-0.0002,-0.00083,-0.00078,-0.00016,0.00044,6,25
31069,0.00017,-4e-05,-4e-05,-0.0002,-0.00083,-0.00078,-0.00016,0.00044,6,25
31070,0.00017,-4e-05,-4e-05,-0.0002,-0.00083,-0.00078,-0.00016,0.00044,6,25
31071,0.00017,-4e-05,-4e-05,-0.0002,-0.00083,-0.00078,-0.00016,0.00044,6,25
31072,0.00017,-4e-05,-4e-05,-0.0002,-0.00083,-0.00078,-0.00016,0.00044,6,25
31073,0.00017,-4e-05,-4e-05,-0.0002,-0.00083,-0.00078,-0.00016,0.00044,6,25
31074,0.00017,-4e-05,-4e-05,-0.0002,-0.00083,-0.00078,-0.00016,0.00044,6,25
31075,0.00017,-4e-05,-4e-05,-0.0002,-0.00083,-0.00078,-0.00016,0.00044,6,25
31076,0.00017,-4e-05,-4e-05,-0.0002,-0.00083,-0.00078,-0.00016,0.00044,6,25
31077,0.00017,-4e-05,-4e-05,-0.0002,-0.00083,-0.00078,-0.00016,0.00044,6,25
31078,0.00017,-4e-05,-4e-05,-0.0002,-0.00083,-0.00078,-0.00016,0.00044,6,25
31079,0.00017,-4e-05,-4e-05,-0.0002,-0.00083,-0.00078,-0.00016,0.00044,6,25
31080,0.00017,-4e-05,-4e-05,-0.0002,-0.00083,-0.00078,-0.00016,0.00044,6,25
31081,0.00017,-4e-05,-4e-05,-0.0002,-0.00083,-0.00078,-0.00016,0.00044,6,25
31082,0.00017,-4e-05,-4e-05,-0.0002,-0.00083,-0.00078,-0.00016,0.00044,6,25
31083,-0.00027,-0.00015,-3e-05,0.00016,0.00018,-0.00018,-0.00024,-4e-05,6,25
31084,-0.00053,7e-05,0.00012,0.00036,0.00033,2e-05,0.00022,-0.00018,6,25
31085,-0.00053,7e-05,0.00012,0.00036,0.00033,2e-05,0.00022,-0.00018,6,25
31086,-0.00053,7e-05,0.00012,0.00036,0.00033,2e-05,0.00022,-0.00018,6,25
31087,-0.00053,7e-05,0.00012,0.00036,0.00033,2e-05,0.00022,-0.00018,6,25
31088,-0.00053,7e-05,0.00012,0.00036,0.00033,2e-05,0.00022,-0.00018,6,25
31089,-0.00053,7e-05,0.00012,0.00036,0.00033,2e-05,0.00022,-0.00018,6,25
31090,-0.00053,7e-05,0.00012,0.00036,0.00033,2e-05,0.00022,-0.00018,6,25
31091,-0.00053,7e-05,0.00012,0.00036,0.00033,2e-05,0.00022,-0.00018,6,25
31092,-0.00053,7e-05,0.00012,0.00036,0.00033,2e-05,0.00022,-0.00018,6,25
31093,-0.00053,7e-05,0.00012,0.00036,0.00033,2e-05,0.00022,-0.00018,6,25
31094,-0.00053,7e-05,0.00012,0.00036,0.00033,2e-05,0.00022,-0.00018,6,25
31095,-0.00053,7e-05,0.00012,0.00036,0.00033,2e-05,0.00022,-0.00018,6,25
31096,-0.00053,7e-05,0.00012,0.00036,0.00033,2e-05,0.00022,-0.00018,6,25
31097,-0.00053,7e-05,0.00012,0.00036,0.00033,2e-05,0.00022,-0.00018,6,25
31098,-0.00053,7e-05,0.00012,0.00036,0.00033,2e-05,0.00022,-0.00018,6,25
31099,-0.00053,7e-05,0.00012,0.00036,0.00033,2e-05,0.00022,-0.00018,6,25
31100,-0.00053,7e-05,0.00012,0.00036,0.00033,2e-05,0.00022,-0.00018,6,25
31101,-0.00053,7e-05,0.00012,0.00036,0.00033,2e-05,0.00022,-0.00018,6,25
31102,-0.00053,7e-05,0.00012,0.00036,0.00033,2e-05,0.00022,-0.00018,6,25
31103,-0.00053,7e-05,0.00012,0.00036,0.00033,2e-05,0.00022,-0.00018,6,25
31104,-0.00053,7e-05,0.00012,0.00036,0.00033,2e-05,0.00022,-0.00018,6,25
31105,-0.0003,-0.0001,2e-05,-2e-05,0.00017,-0.00041,0,-0.0002,6,25
31106,-0.0003,-0.0001,2e-05,-2e-05,0.00017,-0.00041,0,-0.0002,6,25
31107,0.00014,6e-05,3e-05,0.00017,6e-05,1e-05,0.00012,-0.0002,6,25
31108,0.00014,6e-05,3e-05,0.00017,6e-05,1e-05,0.00012,-0.0002,6,25
31109,0.00014,6e-05,3e-05,0.00017,6e-05,1e-05,0.00012,-0.0002,6,25
31110,0.00014,6e-05,3e-05,0.00017,6e-05,1e-05,0.00012,-0.0002,6,25
31111,0.00014,6e-05,3e-05,0.00017,6e-05,1e-05,0.00012,-0.0002,6,25
31112,0.00014,6e-05,3e-05,0.00017,6e-05,1e-05,0.00012,-0.0002,6,25
31113,0.00014,6e-05,3e-05,0.00017,6e-05,1e-05,0.00012,-0.0002,6,25
31114,0.00014,6e-05,3e-05,0.00017,6e-05,1e-05,0.00012,-0.0002,6,25
31115,0.00014,6e-05,3e-05,0.00017,6e-05,1e-05,0.00012,-0.0002,6,25
31116,0.00014,6e-05,3e-05,0.00017,6e-05,1e-05,0.00012,-0.0002,6,25
31117,0.00014,6e-05,3e-05,0.00017,6e-05,1e-05,0.00012,-0.0002,6,25
31118,0.00014,6e-05,3e-05,0.00017,6e-05,1e-05,0.00012,-0.0002,6,25
31119,0.00014,6e-05,3e-05,0.00017,6e-05,1e-05,0.00012,-0.0002,6,25
31120,-0.00042,-7e-05,4e-05,3e-05,-0.0002,0.00031,-2e-05,-0.00024,6,25
31121,-0.00042,-7e-05,4e-05,3e-05,-0.0002,0.00031,-2e-05,-0.00024,6,25
31122,-0.00042,-7e-05,4e-05,3e-05,-0.0002,0.00031,-2e-05,-0.00024,6,25
31123,-0.00042,-7e-05,4e-05,3e-05,-0.0002,0.00031,-2e-05,-0.00024,6,25
31124,-0.00042,-7e-05,4e-05,3e-05,-0.0002,0.00031,-2e-05,-0.00024,6,25
31125,-0.00042,-7e-05,4e-05,3e-05,-0.0002,0.00031,-2e-05,-0.00024,6,25
31126,0.00019,7e-05,0.00011,0.00017,0.00087,0.00069,0.00011,7e-05,6,25
31127,0.00019,7e-05,0.00011,0.00017,0.00087,0.00069,0.00011,7e-05,6,25
31128,0.00019,7e-05,0.00011,0.00017,0.00087,0.00069,0.00011,7e-05,6,25
31129,0.00019,7e-05,0.00011,0.00017,0.00087,0.00069,0.00011,7e-05,6,25
31130,0.00019,7e-05,0.00011,0.00017,0.00087,0.00069,0.00011,7e-05,6,25
31131,0.00019,7e-05,0.00011,0.00017,0.00087,0.00069,0.00011,7e-05,6,25
31132,0.00019,7e-05,0.00011,0.00017,0.00087,0.00069,0.00011,7e-05,6,25
31133,0.00019,7e-05,0.00011,0.00017,0.00087,0.00069,0.00011,7e-05,6,25
31134,0.00019,7e-05,0.00011,0.00017,0.00087,0.00069,0.00011,7e-05,6,25
31136,0.00019,7e-05,0.00011,0.00017,0.00087,0.00069,0.00011,7e-05,6,25
31137,0.00019,7e-05,0.00011,0.00017,0.00087,0.00069,0.00011,7e-05,6,25
31138,0.00019,7e-05,0.00011,0.00017,0.00087,0.00069,0.00011,7e-05,6,25
31139,0.00019,7e-05,0.00011,0.00017,0.00087,0.00069,0.00011,7e-05,6,25
31140,0.00019,7e-05,0.00011,0.00017,0.00087,0.00069,0.00011,7e-05,6,25
31141,0.00019,7e-05,0.00011,0.00017,0.00087,0.00069,0.00011,7e-05,6,25
31142,0.00019,7e-05,0.00011,0.00017,0.00087,0.00069,0.00011,7e-05,6,25
31143,8e-05,-6e-05,-1e-05,-3e-05,-0.00023,0.00021,0.00021,6e-05,6,25
31144,0.00016,-0.0001,4e-05,-3e-05,-9e-05,0.00033,9e-05,0.00053,6,25
31145,0.00016,-0.0001,4e-05,-3e-05,-9e-05,0.00033,9e-05,0.00053,6,25
31146,0.00016,-0.0001,4e-05,-3e-05,-9e-05,0.00033,9e-05,0.00053,6,25
31147,0.00016,-0.0001,4e-05,-3e-05,-9e-05,0.00033,9e-05,0.00053,6,25
31148,0.00016,-0.0001,4e-05,-3e-05,-9e-05,0.00033,9e-05,0.00053,6,25
31149,0.00016,-0.0001,4e-05,-3e-05,-9e-05,0.00033,9e-05,0.00053,6,25
31150,0.00016,-0.0001,4e-05,-3e-05,-9e-05,0.00033,9e-05,0.00053,6,25
31151,0.00016,-0.0001,4e-05,-3e-05,-9e-05,0.00033,9e-05,0.00053,6,25
31152,0.00016,-0.0001,4e-05,-3e-05,-9e-05,0.00033,9e-05,0.00053,6,25
31153,0.00016,-0.0001,4e-05,-3e-05,-9e-05,0.00033,9e-05,0.00053,6,25
31154,0.00016,-0.0001,4e-05,-3e-05,-9e-05,0.00033,9e-05,0.00053,6,25
31155,0.00016,-0.0001,4e-05,-3e-05,-9e-05,0.00033,9e-05,0.00053,6,25
31156,0.00016,-0.0001,4e-05,-3e-05,-9e-05,0.00033,9e-05,0.00053,6,25
31157,0.00016,-0.0001,4e-05,-3e-05,-9e-05,0.00033,9e-05,0.00053,6,25
31158,0.00016,-0.0001,4e-05,-3e-05,-9e-05,0.00033,9e-05,0.00053,6,25
31159,0.00016,-0.0001,4e-05,-3e-05,-9e-05,0.00033,9e-05,0.00053,6,25
31160,0.00016,-0.0001,4e-05,-3e-05,-9e-05,0.00033,9e-05,0.00053,6,25
31161,0.00016,-0.0001,4e-05,-3e-05,-9e-05,0.00033,9e-05,0.00053,6,25
31162,0.00016,-0.0001,4e-05,-3e-05,-9e-05,0.00033,9e-05,0.00053,6,25
31163,0.00016,-0.0001,4e-05,-3e-05,-9e-05,0.00033,9e-05,0.00053,6,25
31164,0.00016,-0.0001,4e-05,-3e-05,-9e-05,0.00033,9e-05,0.00053,6,25
31165,0,5e-05,9e-05,-5e-05,-7e-05,0.00079,-0.00011,0.00028,6,25
31166,0,5e-05,9e-05,-5e-05,-7e-05,0.00079,-0.00011,0.00028,6,25
31167,4e-05,2e-05,6e-05,3e-05,-5e-05,-0.00022,-0.00018,-5e-05,6,25
31168,4e-05,2e-05,6e-05,3e-05,-5e-05,-0.00022,-0.00018,-5e-05,6,25
31169,4e-05,2e-05,6e-05,3e-05,-5e-05,-0.00022,-0.00018,-5e-05,6,25
31170,4e-05,2e-05,6e-05,3e-05,-5e-05,-0.00022,-0.00018,-5e-05,6,25
31171,4e-05,2e-05,6e-05,3e-05,-5e-05,-0.00022,-0.00018,-5e-05,6,25
31172,4e-05,2e-05,6e-05,3e-05,-5e-05,-0.00022,-0.00018,-5e-05,6,25
31173,4e-05,2e-05,6e-05,3e-05,-5e-05,-0.00022,-0.00018,-5e-05,6,25
31174,4e-05,2e-05,6e-05,3e-05,-5e-05,-0.00022,-0.00018,-5e-05,6,25
31175,4e-05,2e-05,6e-05,3e-05,-5e-05,-0.00022,-0.00018,-5e-05,6,25
31176,4e-05,2e-05,6e-05,3e-05,-5e-05,-0.00022,-0.00018,-5e-05,6,25
31177,4e-05,2e-05,6e-05,3e-05,-5e-05,-0.00022,-0.00018,-5e-05,6,25
31178,4e-05,2e-05,6e-05,3e-05,-5e-05,-0.00022,-0.00018,-5e-05,6,25
31179,4e-05,2e-05,6e-05,3e-05,-5e-05,-0.00022,-0.00018,-5e-05,6,25
31180,9e-05,-2e-05,-0.0001,-0.00017,-0.00017,0.00011,0,0.00014,6,25
31181,9e-05,-2e-05,-0.0001,-0.00017,-0.00017,0.00011,0,0.00014,6,25
31183,9e-05,-2e-05,-0.0001,-0.00017,-0.00017,0.00011,0,0.00014,6,25
31184,9e-05,-2e-05,-0.0001,-0.00017,-0.00017,0.00011,0,0.00014,6,25
31185,9e-05,-2e-05,-0.0001,-0.00017,-0.00017,0.00011,0,0.00014,6,25
31186,9e-05,-2e-05,-0.0001,-0.00017,-0.00017,0.00011,0,0.00014,6,25
31188,5e-05,1e-05,-5e-05,-0.00012,-0.00057,-0.00042,-6e-05,-0.00012,6,25
31189,5e-05,1e-05,-5e-05,-0.00012,-0.00057,-0.00042,-6e-05,-0.00012,6,25
31190,5e-05,1e-05,-5e-05,-0.00012,-0.00057,-0.00042,-6e-05,-0.00012,6,25
31191,5e-05,1e-05,-5e-05,-0.00012,-0.00057,-0.00042,-6e-05,-0.00012,6,25
31192,5e-05,1e-05,-5e-05,-0.00012,-0.00057,-0.00042,-6e-05,-0.00012,6,25
31193,5e-05,1e-05,-5e-05,-0.00012,-0.00057,-0.00042,-6e-05,-0.00012,6,25
31194,5e-05,1e-05,-5e-05,-0.00012,-0.00057,-0.00042,-6e-05,-0.00012,6,25
31195,5e-05,1e-05,-5e-05,-0.00012,-0.00057,-0.00042,-6e-05,-0.00012,6,25
31196,5e-05,1e-05,-5e-05,-0.00012,-0.00057,-0.00042,-6e-05,-0.00012,6,25
31197,5e-05,1e-05,-5e-05,-0.00012,-0.00057,-0.00042,-6e-05,-0.00012,6,25
31198,5e-05,1e-05,-5e-05,-0.00012,-0.00057,-0.00042,-6e-05,-0.00012,6,25
31199,5e-05,1e-05,-5e-05,-0.00012,-0.00057,-0.00042,-6e-05,-0.00012,6,25
31200,5e-05,1e-05,-5e-05,-0.00012,-0.00057,-0.00042,-6e-05,-0.00012,6,25
31201,5e-05,1e-05,-5e-05,-0.00012,-0.00057,-0.00042,-6e-05,-0.00012,6,25
31202,5e-05,1e-05,-5e-05,-0.00012,-0.00057,-0.00042,-6e-05,-0.00012,6,25
31203,-0.00015,5e-05,0,-6e-05,-0.00011,-0.00057,0.00027,-0.00041,6,25
31204,0.00027,0.00012,2e-05,7e-05,-0.00012,0.0002,-8e-05,0.00012,6,25
31205,0.00027,0.00012,2e-05,7e-05,-0.00012,0.0002,-8e-05,0.00012,6,25
31206,0.00027,0.00012,2e-05,7e-05,-0.00012,0.0002,-8e-05,0.00012,6,25
31207,0.00027,0.00012,2e-05,7e-05,-0.00012,0.0002,-8e-05,0.00012,6,25
31208,0.00027,0.00012,2e-05,7e-05,-0.00012,0.0002,-8e-05,0.00012,6,25
31209,0.00027,0.00012,2e-05,7e-05,-0.00012,0.0002,-8e-05,0.00012,6,25
31210,0.00027,0.00012,2e-05,7e-05,-0.00012,0.0002,-8e-05,0.00012,6,25
31211,0.00027,0.00012,2e-05,7e-05,-0.00012,0.0002,-8e-05,0.00012,6,25
31212,0.00027,0.00012,2e-05,7e-05,-0.00012,0.0002,-8e-05,0.00012,6,25
31213,0.00027,0.00012,2e-05,7e-05,-0.00012,0.0002,-8e-05,0.00012,6,25
31214,0.00027,0.00012,2e-05,7e-05,-0.00012,0.0002,-8e-05,0.00012,6,25
31215,0.00027,0.00012,2e-05,7e-05,-0.00012,0.0002,-8e-05,0.00012,6,25
31216,0.00027,0.00012,2e-05,7e-05,-0.00012,0.0002,-8e-05,0.00012,6,25
31217,0.00027,0.00012,2e-05,7e-05,-0.00012,0.0002,-8e-05,0.00012,6,25
31218,0.00027,0.00012,2e-05,7e-05,-0.00012,0.0002,-8e-05,0.00012,6,25
31219,0.00027,0.00012,2e-05,7e-05,-0.00012,0.0002,-8e-05,0.00012,6,25
31220,0.00027,0.00012,2e-05,7e-05,-0.00012,0.0002,-8e-05,0.00012,6,25
31221,0.00027,0.00012,2e-05,7e-05,-0.00012,0.0002,-8e-05,0.00012,6,25
31222,0.00027,0.00012,2e-05,7e-05,-0.00012,0.0002,-8e-05,0.00012,6,25
31223,0.00027,0.00012,2e-05,7e-05,-0.00012,0.0002,-8e-05,0.00012,6,25
31224,0.00027,0.00012,2e-05,7e-05,-0.00012,0.0002,-8e-05,0.00012,6,25
31225,-0.00062,-0.00039,-5e-05,6e-05,8e-05,0.00024,0.00018,-6e-05,6,25
31226,-0.00062,-0.00039,-5e-05,6e-05,8e-05,0.00024,0.00018,-6e-05,6,25
31227,-0.00022,-0.00015,-0.00017,-6e-05,0.00033,0.00051,-4e-05,-0.00024,6,25
31228,-0.00022,-0.00015,-0.00017,-6e-05,0.00033,0.00051,-4e-05,-0.00024,6,25
31230,-0.00022,-0.00015,-0.00017,-6e-05,0.00033,0.00051,-4e-05,-0.00024,6,25
31231,-0.00022,-0.00015,-0.00017,-6e-05,0.00033,0.00051,-4e-05,-0.00024,6,25
31232,-0.00022,-0.00015,-0.00017,-6e-05,0.00033,0.00051,-4e-05,-0.00024,6,25
31233,-0.00022,-0.00015,-0.00017,-6e-05,0.00033,0.00051,-4e-05,-0.00024,6,25
31234,-0.00022,-0.00015,-0.00017,-6e-05,0.00033,0.00051,-4e-05,-0.00024,6,25
31235,-0.00022,-0.00015,-0.00017,-6e-05,0.00033,0.00051,-4e-05,-0.00024,6,25
31236,-0.00022,-0.00015,-0.00017,-6e-05,0.00033,0.00051,-4e-05,-0.00024,6,25
31237,-0.00022,-0.00015,-0.00017,-6e-05,0.00033,0.00051,-4e-05,-0.00024,6,25
31238,-0.00022,-0.00015,-0.00017,-6e-05,0.00033,0.00051,-4e-05,-0.00024,6,25
31239,-0.00022,-0.00015,-0.00017,-6e-05,0.00033,0.00051,-4e-05,-0.00024,6,25
31240,0.00083,0.00025,3e-05,-1e-05,-0.00049,-3e-05,8e-05,0.00026,6,25
31241,0.00083,0.00025,3e-05,-1e-05,-0.00049,-3e-05,8e-05,0.00026,6,25
31242,0.00083,0.00025,3e-05,-1e-05,-0.00049,-3e-05,8e-05,0.00026,6,25
31243,0.00083,0.00025,3e-05,-1e-05,-0.00049,-3e-05,8e-05,0.00026,6,25
31244,0.00083,0.00025,3e-05,-1e-05,-0.00049,-3e-05,8e-05,0.00026,6,25
31245,0.00083,0.00025,3e-05,-1e-05,-0.00049,-3e-05,8e-05,0.00026,6,25
31246,2e-05,-3e-05,-2e-05,0.00011,0,-0.00023,-0.00034,-0.00047,6,25
31247,2e-05,-3e-05,-2e-05,0.00011,0,-0.00023,-0.00034,-0.00047,6,25
31248,2e-05,-3e-05,-2e-05,0.00011,0,-0.00023,-0.00034,-0.00047,6,25
31249,2e-05,-3e-05,-2e-05,0.00011,0,-0.00023,-0.00034,-0.00047,6,25
31250,2e-05,-3e-05,-2e-05,0.00011,0,-0.00023,-0.00034,-0.00047,6,25
31251,2e-05,-3e-05,-2e-05,0.00011,0,-0.00023,-0.00034,-0.00047,6,25
31252,2e-05,-3e-05,-2e-05,0.00011,0,-0.00023,-0.00034,-0.00047,6,25
31253,2e-05,-3e-05,-2e-05,0.00011,0,-0.00023,-0.00034,-0.00047,6,25
31254,2e-05,-3e-05,-2e-05,0.00011,0,-0.00023,-0.00034,-0.00047,6,25
31255,2e-05,-3e-05,-2e-05,0.00011,0,-0.00023,-0.00034,-0.00047,6,25
31256,2e-05,-3e-05,-2e-05,0.00011,0,-0.00023,-0.00034,-0.00047,6,25
31257,2e-05,-3e-05,-2e-05,0.00011,0,-0.00023,-0.00034,-0.00047,6,25
31258,2e-05,-3e-05,-2e-05,0.00011,0,-0.00023,-0.00034,-0.00047,6,25
31259,2e-05,-3e-05,-2e-05,0.00011,0,-0.00023,-0.00034,-0.00047,6,25
31260,2e-05,-3e-05,-2e-05,0.00011,0,-0.00023,-0.00034,-0.00047,6,25
31261,2e-05,-3e-05,-2e-05,0.00011,0,-0.00023,-0.00034,-0.00047,6,25
31262,2e-05,-3e-05,-2e-05,0.00011,0,-0.00023,-0.00034,-0.00047,6,25
31263,-0.00013,4e-05,8e-05,6e-05,0.0001,2e-05,-0.00016,-0.00067,6,25
31264,-0.00061,-0.00014,-5e-05,-0.00014,-0.00018,-0.0004,0.00012,-0.00038,6,25
31265,-0.00061,-0.00014,-5e-05,-0.00014,-0.00018,-0.0004,0.00012,-0.00038,6,25
31266,-0.00061,-0.00014,-5e-05,-0.00014,-0.00018,-0.0004,0.00012,-0.00038,6,25
31267,-0.00061,-0.00014,-5e-05,-0.00014,-0.00018,-0.0004,0.00012,-0.00038,6,25
31268,-0.00061,-0.00014,-5e-05,-0.00014,-0.00018,-0.0004,0.00012,-0.00038,6,25
31269,-0.00061,-0.00014,-5e-05,-0.00014,-0.00018,-0.0004,0.00012,-0.00038,6,25
31270,-0.00061,-0.00014,-5e-05,-0.00014,-0.00018,-0.0004,0.00012,-0.00038,6,25
31271,-0.00061,-0.00014,-5e-05,-0.00014,-0.00018,-0.0004,0.00012,-0.00038,6,25
31272,-0.00061,-0.00014,-5e-05,-0.00014,-0.00018,-0.0004,0.00012,-0.00038,6,25
31273,-0.00061,-0.00014,-5e-05,-0.00014,-0.00018,-0.0004,0.00012,-0.00038,6,25
31274,-0.00061,-0.00014,-5e-05,-0.00014,-0.00018,-0.0004,0.00012,-0.00038,6,25
31276,-0.00061,-0.00014,-5e-05,-0.00014,-0.00018,-0.0004,0.00012,-0.00038,6,25
31277,-0.00061,-0.00014,-5e-05,-0.00014,-0.00018,-0.0004,0.00012,-0.00038,6,25
31278,-0.00061,-0.00014,-5e-05,-0.00014,-0.00018,-0.0004,0.00012,-0.00038,6,25
31279,-0.00061,-0.00014,-5e-05,-0.00014,-0.00018,-0.0004,0.00012,-0.00038,6,25
31280,-0.00061,-0.00014,-5e-05,-0.00014,-0.00018,-0.0004,0.00012,-0.00038,6,25
31281,-0.00061,-0.00014,-5e-05,-0.00014,-0.00018,-0.0004,0.00012,-0.00038,6,25
31282,-0.00061,-0.00014,-5e-05,-0.00014,-0.00018,-0.0004,0.00012,-0.00038,6,25
31283,-0.00061,-0.00014,-5e-05,-0.00014,-0.00018,-0.0004,0.00012,-0.00038,6,25
31284,-0.00061,-0.00014,-5e-05,-0.00014,-0.00018,-0.0004,0.00012,-0.00038,6,25
31285,0.00022,9e-05,-7e-05,-0.0003,-0.00061,-0.00076,-0.00038,0.00014,6,25
31286,0.00022,9e-05,-7e-05,-0.0003,-0.00061,-0.00076,-0.00038,0.00014,6,25
31288,0.00015,0,3e-05,2e-05,-0.00016,-0.00066,8e-05,0.00033,6,25
31289,0.00015,0,3e-05,2e-05,-0.00016,-0.00066,8e-05,0.00033,6,25
31290,0.00015,0,3e-05,2e-05,-0.00016,-0.00066,8e-05,0.00033,6,25
31291,0.00015,0,3e-05,2e-05,-0.00016,-0.00066,8e-05,0.00033,6,25
31292,0.00015,0,3e-05,2e-05,-0.00016,-0.00066,8e-05,0.00033,6,25
31293,0.00015,0,3e-05,2e-05,-0.00016,-0.00066,8e-05,0.00033,6,25
31294,0.00015,0,3e-05,2e-05,-0.00016,-0.00066,8e-05,0.00033,6,25
31295,0.00015,0,3e-05,2e-05,-0.00016,-0.00066,8e-05,0.00033,6,25
31296,0.00015,0,3e-05,2e-05,-0.00016,-0.00066,8e-05,0.00033,6,25
31297,0.00015,0,3e-05,2e-05,-0.00016,-0.00066,8e-05,0.00033,6,25
31298,0.00015,0,3e-05,2e-05,-0.00016,-0.00066,8e-05,0.00033,6,25
31299,0.00015,0,3e-05,2e-05,-0.00016,-0.00066,8e-05,0.00033,6,25
31300,-0.00064,-6e-05,-8e-05,-6e-05,0.0002,0.00059,-4e-05,-0.00034,6,25
31301,-0.00064,-6e-05,-8e-05,-6e-05,0.0002,0.00059,-4e-05,-0.00034,6,25
31302,-0.00064,-6e-05,-8e-05,-6e-05,0.0002,0.00059,-4e-05,-0.00034,6,25
31303,-0.00064,-6e-05,-8e-05,-6e-05,0.0002,0.00059,-4e-05,-0.00034,6,25
31304,-0.00064,-6e-05,-8e-05,-6e-05,0.0002,0.00059,-4e-05,-0.00034,6,25
31305,-0.00064,-6e-05,-8e-05,-6e-05,0.0002,0.00059,-4e-05,-0.00034,6,25
31306,0.00019,0,2e-05,4e-05,0.00026,5e-05,0.00019,-0.00041,6,25
31307,0.00019,0,2e-05,4e-05,0.00026,5e-05,0.00019,-0.00041,6,25
31308,0.00019,0,2e-05,4e-05,0.00026,5e-05,0.00019,-0.00041,6,25
31309,0.00019,0,2e-05,4e-05,0.00026,5e-05,0.00019,-0.00041,6,25
31310,0.00019,0,2e-05,4e-05,0.00026,5e-05,0.00019,-0.00041,6,25
31311,0.00019,0,2e-05,4e-05,0.00026,5e-05,0.00019,-0.00041,6,25
31312,0.00019,0,2e-05,4e-05,0.00026,5e-05,0.00019,-0.00041,6,25
31313,0.00019,0,2e-05,4e-05,0.00026,5e-05,0.00019,-0.00041,6,25
31314,0.00019,0,2e-05,4e-05,0.00026,5e-05,0.00019,-0.00041,6,25
31315,0.00019,0,2e-05,4e-05,0.00026,5e-05,0.00019,-0.00041,6,25
31316,0.00019,0,2e-05,4e-05,0.00026,5e-05,0.00019,-0.00041,6,25
31317,0.00019,0,2e-05,4e-05,0.00026,5e-05,0.00019,-0.00041,6,25
31318,0.00019,0,2e-05,4e-05,0.00026,5e-05,0.00019,-0.00041,6,25
31319,0.00019,0,2e-05,4e-05,0.00026,5e-05,0.00019,-0.00041,6,25
31320,0.00019,0,2e-05,4e-05,0.00026,5e-05,0.00019,-0.00041,6,25
31321,0.00019,0,2e-05,4e-05,0.00026,5e-05,0.00019,-0.00041,6,25
31322,0.00019,0,2e-05,4e-05,0.00026,5e-05,0.00019,-0.00041,6,25
31324,-1e-05,-2e-05,5e-05,-8e-05,-0.00044,-1e-05,-6e-05,0.00035,6,25
31325,-0.00014,-7e-05,-4e-05,-3e-05,-1e-05,0.00023,2e-05,0.00027,6,25
31326,-0.00014,-7e-05,-4e-05,-3e-05,-1e-05,0.00023,2e-05,0.00027,6,25
31327,-0.00014,-7e-05,-4e-05,-3e-05,-1e-05,0.00023,2e-05,0.00027,6,25
31328,-0.00014,-7e-05,-4e-05,-3e-05,-1e-05,0.00023,2e-05,0.00027,6,25
31329,-0.00014,-7e-05,-4e-05,-3e-05,-1e-05,0.00023,2e-05,0.00027,6,25
31330,-0.00014,-7e-05,-4e-05,-3e-05,-1e-05,0.00023,2e-05,0.00027,6,25
31331,-0.00014,-7e-05,-4e-05,-3e-05,-1e-05,0.00023,2e-05,0.00027,6,25
31332,-0.00014,-7e-05,-4e-05,-3e-05,-1e-05,0.00023,2e-05,0.00027,6,25
31333,-0.00014,-7e-05,-4e-05,-3e-05,-1e-05,0.00023,2e-05,0.00027,6,25
31334,-0.00014,-7e-05,-4e-05,-3e-05,-1e-05,0.00023,2e-05,0.00027,6,25
31335,-0.00014,-7e-05,-4e-05,-3e-05,-1e-05,0.00023,2e-05,0.00027,6,25
31336,-0.00014,-7e-05,-4e-05,-3e-05,-1e-05,0.00023,2e-05,0.00027,6,25
31337,-0.00014,-7e-05,-4e-05,-3e-05,-1e-05,0.00023,2e-05,0.00027,6,25
31338,-0.00014,-7e-05,-4e-05,-3e-05,-1e-05,0.00023,2e-05,0.00027,6,25
31339,-0.00014,-7e-05,-4e-05,-3e-05,-1e-05,0.00023,2e-05,0.00027,6,25
31340,-0.00014,-7e-05,-4e-05,-3e-05,-1e-05,0.00023,2e-05,0.00027,6,25
31341,-0.00014,-7e-05,-4e-05,-3e-05,-1e-05,0.00023,2e-05,0.00027,6,25
31342,-0.00014,-7e-05,-4e-05,-3e-05,-1e-05,0.00023,2e-05,0.00027,6,25
31343,-0.00014,-7e-05,-4e-05,-3e-05,-1e-05,0.00023,2e-05,0.00027,6,25
31344,-0.00014,-7e-05,-4e-05,-3e-05,-1e-05,0.00023,2e-05,0.00027,6,25
31345,0.00043,6e-05,-6e-05,3e-05,0.00021,0.00038,-1e-05,0.00036,6,25
31346,0.00043,6e-05,-6e-05,3e-05,0.00021,0.00038,-1e-05,0.00036,6,25
31347,0.00064,6e-05,-3e-05,-0.00011,-0.00036,-8e-05,0.00013,0.00048,6,25
31348,0.00064,6e-05,-3e-05,-0.00011,-0.00036,-8e-05,0.00013,0.00048,6,25
31349,0.00064,6e-05,-3e-05,-0.00011,-0.00036,-8e-05,0.00013,0.00048,6,25
31350,0.00064,6e-05,-3e-05,-0.00011,-0.00036,-8e-05,0.00013,0.00048,6,25
31351,0.00064,6e-05,-3e-05,-0.00011,-0.00036,-8e-05,0.00013,0.00048,6,25
31352,0.00064,6e-05,-3e-05,-0.00011,-0.00036,-8e-05,0.00013,0.00048,6,25
31353,0.00064,6e-05,-3e-05,-0.00011,-0.00036,-8e-05,0.00013,0.00048,6,25
31354,0.00064,6e-05,-3e-05,-0.00011,-0.00036,-8e-05,0.00013,0.00048,6,25
31355,0.00064,6e-05,-3e-05,-0.00011,-0.00036,-8e-05,0.00013,0.00048,6,25
31356,0.00064,6e-05,-3e-05,-0.00011,-0.00036,-8e-05,0.00013,0.00048,6,25
31357,0.00064,6e-05,-3e-05,-0.00011,-0.00036,-8e-05,0.00013,0.00048,6,25
31358,0.00064,6e-05,-3e-05,-0.00011,-0.00036,-8e-05,0.00013,0.00048,6,25
31359,-4e-05,-0.00026,-4e-05,0.0002,0.00071,-0.00032,5e-05,0.0002,6,25
31360,-4e-05,-0.00026,-4e-05,0.0002,0.00071,-0.00032,5e-05,0.0002,6,25
31361,-4e-05,-0.00026,-4e-05,0.0002,0.00071,-0.00032,5e-05,0.0002,6,25
31362,-4e-05,-0.00026,-4e-05,0.0002,0.00071,-0.00032,5e-05,0.0002,6,25
31363,-4e-05,-0.00026,-4e-05,0.0002,0.00071,-0.00032,5e-05,0.0002,6,25
31364,-4e-05,-0.00026,-4e-05,0.0002,0.00071,-0.00032,5e-05,0.0002,6,25
31365,-4e-05,-0.00026,-4e-05,0.0002,0.00071,-0.00032,5e-05,0.0002,6,25
31366,-4e-05,-0.00026,-4e-05,0.0002,0.00071,-0.00032,5e-05,0.0002,6,25
31367,-4e-05,-0.00026,-4e-05,0.0002,0.00071,-0.00032,5e-05,0.0002,6,25
31368,-3e-05,1e-05,-0.00013,-6e-05,0.00018,0.00045,0.00018,-0.00012,6,25
31369,-3e-05,1e-05,-0.00013,-6e-05,0.00018,0.00045,0.00018,-0.00012,6,25
31370,-3e-05,1e-05,-0.00013,-6e-05,0.00018,0.00045,0.00018,-0.00012,6,25
31371,-3e-05,1e-05,-0.00013,-6e-05,0.00018,0.00045,0.00018,-0.00012,6,25
31372,-3e-05,1e-05,-0.00013,-6e-05,0.00018,0.00045,0.00018,-0.00012,6,25
31373,-3e-05,1e-05,-0.00013,-6e-05,0.00018,0.00045,0.00018,-0.00012,6,25
31374,-3e-05,1e-05,-0.00013,-6e-05,0.00018,0.00045,0.00018,-0.00012,6,25
31375,-3e-05,1e-05,-0.00013,-6e-05,0.00018,0.00045,0.00018,-0.00012,6,25
31376,-3e-05,1e-05,-0.00013,-6e-05,0.00018,0.00045,0.00018,-0.00012,6,25
31377,-3e-05,1e-05,-0.00013,-6e-05,0.00018,0.00045,0.00018,-0.00012,6,25
31378,-3e-05,1e-05,-0.00013,-6e-05,0.00018,0.00045,0.00018,-0.00012,6,25
31379,-3e-05,1e-05,-0.00013,-6e-05,0.00018,0.00045,0.00018,-0.00012,6,25
31380,-3e-05,1e-05,-0.00013,-6e-05,0.00018,0.00045,0.00018,-0.00012,6,25
31381,-3e-05,1e-05,-0.00013,-6e-05,0.00018,0.00045,0.00018,-0.00012,6,25
31382,-3e-05,1e-05,-0.00013,-6e-05,0.00018,0.00045,0.00018,-0.00012,6,25
31383,0.00081,0.00016,8e-05,5e-05,0.00063,-0.00053,-0.00026,0.00034,6,25
31384,-0.00033,-5e-05,4e-05,-4e-05,0.00016,-1e-05,0.00048,0.00043,6,25
31385,-0.00033,-5e-05,4e-05,-4e-05,0.00016,-1e-05,0.00048,0.00043,6,25
31386,-0.00033,-5e-05,4e-05,-4e-05,0.00016,-1e-05,0.00048,0.00043,6,25
31387,-0.00033,-5e-05,4e-05,-4e-05,0.00016,-1e-05,0.00048,0.00043,6,25
31388,-0.00033,-5e-05,4e-05,-4e-05,0.00016,-1e-05,0.00048,0.00043,6,25
31389,-0.00033,-5e-05,4e-05,-4e-05,0.00016,-1e-05,0.00048,0.00043,6,25
31390,-0.00033,-5e-05,4e-05,-4e-05,0.00016,-1e-05,0.00048,0.00043,6,25
31391,-0.00033,-5e-05,4e-05,-4e-05,0.00016,-1e-05,0.00048,0.00043,6,25
31392,-0.00033,-5e-05,4e-05,-4e-05,0.00016,-1e-05,0.00048,0.00043,6,25
31393,-0.00033,-5e-05,4e-05,-4e-05,0.00016,-1e-05,0.00048,0.00043,6,25
31394,-0.00033,-5e-05,4e-05,-4e-05,0.00016,-1e-05,0.00048,0.00043,6,25
31395,-0.00033,-5e-05,4e-05,-4e-05,0.00016,-1e-05,0.00048,0.00043,6,25
31396,-0.00033,-5e-05,4e-05,-4e-05,0.00016,-1e-05,0.00048,0.00043,6,25
31397,-0.00033,-5e-05,4e-05,-4e-05,0.00016,-1e-05,0.00048,0.00043,6,25
31398,-0.00033,-5e-05,4e-05,-4e-05,0.00016,-1e-05,0.00048,0.00043,6,25
31399,-0.00033,-5e-05,4e-05,-4e-05,0.00016,-1e-05,0.00048,0.00043,6,25
31400,-0.00033,-5e-05,4e-05,-4e-05,0.00016,-1e-05,0.00048,0.00043,6,25
31401,-0.00033,-5e-05,4e-05,-4e-05,0.00016,-1e-05,0.00048,0.00043,6,25
31402,-0.00033,-5e-05,4e-05,-4e-05,0.00016,-1e-05,0.00048,0.00043,6,25
31403,-0.00033,-5e-05,4e-05,-4e-05,0.00016,-1e-05,0.00048,0.00043,6,25
31404,-0.00033,-5e-05,4e-05,-4e-05,0.00016,-1e-05,0.00048,0.00043,6,25
31405,-4e-05,1e-05,0.00011,-2e-05,-0.00032,-0.00049,9e-05,-3e-05,6,25
31406,-4e-05,1e-05,0.00011,-2e-05,-0.00032,-0.00049,9e-05,-3e-05,6,25
31407,0.00028,0.00011,4e-05,0,0.00016,-0.00031,-0.00031,-1e-05,6,25
31408,0.00028,0.00011,4e-05,0,0.00016,-0.00031,-0.00031,-1e-05,6,25
31409,0.00028,0.00011,4e-05,0,0.00016,-0.00031,-0.00031,-1e-05,6,25
31410,0.00028,0.00011,4e-05,0,0.00016,-0.00031,-0.00031,-1e-05,6,25
31411,0.00028,0.00011,4e-05,0,0.00016,-0.00031,-0.00031,-1e-05,6,25
31412,0.00028,0.00011,4e-05,0,0.00016,-0.00031,-0.00031,-1e-05,6,25
31413,0.00028,0.00011,4e-05,0,0.00016,-0.00031,-0.00031,-1e-05,6,25
31414,0.00028,0.00011,4e-05,0,0.00016,-0.00031,-0.00031,-1e-05,6,25
31415,0.00028,0.00011,4e-05,0,0.00016,-0.00031,-0.00031,-1e-05,6,25
31417,0.00028,0.00011,4e-05,0,0.00016,-0.00031,-0.00031,-1e-05,6,25
31418,0.00028,0.00011,4e-05,0,0.00016,-0.00031,-0.00031,-1e-05,6,25
31419,0.00028,0.00011,4e-05,0,0.00016,-0.00031,-0.00031,-1e-05,6,25
31420,0.00028,0.00011,4e-05,0,0.00016,-0.00031,-0.00031,-1e-05,6,25
31421,0.00028,0.00011,4e-05,0,0.00016,-0.00031,-0.00031,-1e-05,6,25
31422,0.00028,0.00011,4e-05,0,0.00016,-0.00031,-0.00031,-1e-05,6,25
31423,0.00028,0.00011,4e-05,0,0.00016,-0.00031,-0.00031,-1e-05,6,25
31424,0.00028,0.00011,4e-05,0,0.00016,-0.00031,-0.00031,-1e-05,6,25
31425,0.00028,0.00011,4e-05,0,0.00016,-0.00031,-0.00031,-1e-05,6,25
31426,0.00028,0.00011,4e-05,0,0.00016,-0.00031,-0.00031,-1e-05,6,25
31427,0.00028,0.00011,4e-05,0,0.00016,-0.00031,-0.00031,-1e-05,6,25
31428,0.00041,-0.00018,-5e-05,-0.00015,-0.00053,0.0001,0.00039,-0.00062,6,25
31429,-0.00019,-0.00031,-7e-05,-0.00017,-0.00067,-0.00078,-0.00029,-0.00021,6,25
31430,-0.00019,-0.00031,-7e-05,-0.00017,-0.00067,-0.00078,-0.00029,-0.00021,6,25
31431,-0.00019,-0.00031,-7e-05,-0.00017,-0.00067,-0.00078,-0.00029,-0.00021,6,25
31432,-0.00019,-0.00031,-7e-05,-0.00017,-0.00067,-0.00078,-0.00029,-0.00021,6,25
31433,-0.00019,-0.00031,-7e-05,-0.00017,-0.00067,-0.00078,-0.00029,-0.00021,6,25
31434,-0.00019,-0.00031,-7e-05,-0.00017,-0.00067,-0.00078,-0.00029,-0.00021,6,25
31435,-0.00019,-0.00031,-7e-05,-0.00017,-0.00067,-0.00078,-0.00029,-0.00021,6,25
31436,-0.00019,-0.00031,-7e-05,-0.00017,-0.00067,-0.00078,-0.00029,-0.00021,6,25
31437,-0.00019,-0.00031,-7e-05,-0.00017,-0.00067,-0.00078,-0.00029,-0.00021,6,25
31438,-0.00019,-0.00031,-7e-05,-0.00017,-0.00067,-0.00078,-0.00029,-0.00021,6,25
31439,-0.00019,-0.00031,-7e-05,-0.00017,-0.00067,-0.00078,-0.00029,-0.00021,6,25
31440,-0.00019,-0.00031,-7e-05,-0.00017,-0.00067,-0.00078,-0.00029,-0.00021,6,25
31441,-0.00019,-0.00031,-7e-05,-0.00017,-0.00067,-0.00078,-0.00029,-0.00021,6,25
31442,-0.00019,-0.00031,-7e-05,-0.00017,-0.00067,-0.00078,-0.00029,-0.00021,6,25
31443,-0.00014,5e-05,-1e-05,6e-05,-0.00027,-0.00041,-0.00021,-0.00041,6,25
31444,-1e-05,-6e-05,-0.00011,-0.00014,-0.00031,0.00067,0.00018,0.00027,6,25
31445,-1e-05,-6e-05,-0.00011,-0.00014,-0.00031,0.00067,0.00018,0.00027,6,25
31446,-1e-05,-6e-05,-0.00011,-0.00014,-0.00031,0.00067,0.00018,0.00027,6,25
31447,-1e-05,-6e-05,-0.00011,-0.00014,-0.00031,0.00067,0.00018,0.00027,6,25
31448,-1e-05,-6e-05,-0.00011,-0.00014,-0.00031,0.00067,0.00018,0.00027,6,25
31449,-1e-05,-6e-05,-0.00011,-0.00014,-0.00031,0.00067,0.00018,0.00027,6,25
31450,-1e-05,-6e-05,-0.00011,-0.00014,-0.00031,0.00067,0.00018,0.00027,6,25
31451,-1e-05,-6e-05,-0.00011,-0.00014,-0.00031,0.00067,0.00018,0.00027,6,25
31452,-1e-05,-6e-05,-0.00011,-0.00014,-0.00031,0.00067,0.00018,0.00027,6,25
31453,-1e-05,-6e-05,-0.00011,-0.00014,-0.00031,0.00067,0.00018,0.00027,6,25
31454,-1e-05,-6e-05,-0.00011,-0.00014,-0.00031,0.00067,0.00018,0.00027,6,25
31455,-1e-05,-6e-05,-0.00011,-0.00014,-0.00031,0.00067,0.00018,0.00027,6,25
31456,-1e-05,-6e-05,-0.00011,-0.00014,-0.00031,0.00067,0.00018,0.00027,6,25
31457,-1e-05,-6e-05,-0.00011,-0.00014,-0.00031,0.00067,0.00018,0.00027,6,25
31458,-1e-05,-6e-05,-0.00011,-0.00014,-0.00031,0.00067,0.00018,0.00027,6,25
31459,-1e-05,-6e-05,-0.00011,-0.00014,-0.00031,0.00067,0.00018,0.00027,6,25
31460,-1e-05,-6e-05,-0.00011,-0.00014,-0.00031,0.00067,0.00018,0.00027,6,25
31461,-1e-05,-6e-05,-0.00011,-0.00014,-0.00031,0.00067,0.00018,0.00027,6,25
31462,-1e-05,-6e-05,-0.00011,-0.00014,-0.00031,0.00067,0.00018,0.00027,6,25
31464,-1e-05,-6e-05,-0.00011,-0.00014,-0.00031,0.00067,0.00018,0.00027,6,25
31465,-1e-05,-6e-05,-0.00011,-0.00014,-0.00031,0.00067,0.00018,0.00027,6,25
31466,-1e-05,-6e-05,-0.00011,-0.00014,-0.00031,0.00067,0.00018,0.00027,6,25
31467,-1e-05,-6e-05,-0.00011,-0.00014,-0.00031,0.00067,0.00018,0.00027,6,25
31468,-0.00076,-1e-05,2e-05,0.00012,-0.00024,0.00027,-0.00023,-0.00021,6,25
31469,-0.00076,-1e-05,2e-05,0.00012,-0.00024,0.00027,-0.00023,-0.00021,6,25
31470,-0.00076,-1e-05,2e-05,0.00012,-0.00024,0.00027,-0.00023,-0.00021,6,25
31471,-0.00076,-1e-05,2e-05,0.00012,-0.00024,0.00027,-0.00023,-0.00021,6,25
31472,-0.00076,-1e-05,2e-05,0.00012,-0.00024,0.00027,-0.00023,-0.00021,6,25
31473,-0.00076,-1e-05,2e-05,0.00012,-0.00024,0.00027,-0.00023,-0.00021,6,25
31474,-0.00076,-1e-05,2e-05,0.00012,-0.00024,0.00027,-0.00023,-0.00021,6,25
31475,-0.00076,-1e-05,2e-05,0.00012,-0.00024,0.00027,-0.00023,-0.00021,6,25
31476,-0.00076,-1e-05,2e-05,0.00012,-0.00024,0.00027,-0.00023,-0.00021,6,25
31477,-0.00076,-1e-05,2e-05,0.00012,-0.00024,0.00027,-0.00023,-0.00021,6,25
31478,-0.00076,-1e-05,2e-05,0.00012,-0.00024,0.00027,-0.00023,-0.00021,6,25
31479,-5e-05,-0.0001,-6e-05,6e-05,-0.00038,5e-05,0.00019,4e-05,6,25
31480,-5e-05,-0.0001,-6e-05,6e-05,-0.00038,5e-05,0.00019,4e-05,6,25
31481,-5e-05,-0.0001,-6e-05,6e-05,-0.00038,5e-05,0.00019,4e-05,6,25
31482,-5e-05,-0.0001,-6e-05,6e-05,-0.00038,5e-05,0.00019,4e-05,6,25
31483,-5e-05,-0.0001,-6e-05,6e-05,-0.00038,5e-05,0.00019,4e-05,6,25
31484,-5e-05,-0.0001,-6e-05,6e-05,-0.00038,5e-05,0.00019,4e-05,6,25
31485,-5e-05,-0.0001,-6e-05,6e-05,-0.00038,5e-05,0.00019,4e-05,6,25
31486,-5e-05,-0.0001,-6e-05,6e-05,-0.00038,5e-05,0.00019,4e-05,6,25
31487,0.00032,-1e-05,-2e-05,-6e-05,-0.00014,-0.00028,-0.00013,-8e-05,6,25
31489,0.00032,-1e-05,-2e-05,-6e-05,-0.00014,-0.00028,-0.00013,-8e-05,6,25
31490,0.00032,-1e-05,-2e-05,-6e-05,-0.00014,-0.00028,-0.00013,-8e-05,6,25
31491,0.00032,-1e-05,-2e-05,-6e-05,-0.00014,-0.00028,-0.00013,-8e-05,6,25
31492,0.00032,-1e-05,-2e-05,-6e-05,-0.00014,-0.00028,-0.00013,-8e-05,6,25
31493,0.00032,-1e-05,-2e-05,-6e-05,-0.00014,-0.00028,-0.00013,-8e-05,6,25
31494,0.00032,-1e-05,-2e-05,-6e-05,-0.00014,-0.00028,-0.00013,-8e-05,6,25
31495,0.00032,-1e-05,-2e-05,-6e-05,-0.00014,-0.00028,-0.00013,-8e-05,6,25
31496,0.00032,-1e-05,-2e-05,-6e-05,-0.00014,-0.00028,-0.00013,-8e-05,6,25
31497,0.00032,-1e-05,-2e-05,-6e-05,-0.00014,-0.00028,-0.00013,-8e-05,6,25
31498,0.00032,-1e-05,-2e-05,-6e-05,-0.00014,-0.00028,-0.00013,-8e-05,6,25
31499,0.00032,-1e-05,-2e-05,-6e-05,-0.00014,-0.00028,-0.00013,-8e-05,6,25
31500,0.00032,-1e-05,-2e-05,-6e-05,-0.00014,-0.00028,-0.00013,-8e-05,6,25
31501,0.00032,-1e-05,-2e-05,-6e-05,-0.00014,-0.00028,-0.00013,-8e-05,6,25
31502,0.00032,-1e-05,-2e-05,-6e-05,-0.00014,-0.00028,-0.00013,-8e-05,6,25
31503,-0.00057,2e-05,-1e-05,0.00012,0.0008,0.00115,0.00021,7e-05,6,25
31504,-0.00054,-0.00014,-0.00027,-0.00022,-0.00047,-0.0001,-0.00013,3e-05,6,25
31505,-0.00054,-0.00014,-0.00027,-0.00022,-0.00047,-0.0001,-0.00013,3e-05,6,25
31506,-0.00054,-0.00014,-0.00027,-0.00022,-0.00047,-0.0001,-0.00013,3e-05,6,25
31507,-0.00054,-0.00014,-0.00027,-0.00022,-0.00047,-0.0001,-0.00013,3e-05,6,25
31508,-0.00054,-0.00014,-0.00027,-0.00022,-0.00047,-0.0001,-0.00013,3e-05,6,25
31510,-0.00054,-0.00014,-0.00027,-0.00022,-0.00047,-0.0001,-0.00013,3e-05,6,25
31511,-0.00054,-0.00014,-0.00027,-0.00022,-0.00047,-0.0001,-0.00013,3e-05,6,25
31512,-0.00054,-0.00014,-0.00027,-0.00022,-0.00047,-0.0001,-0.00013,3e-05,6,25
31513,-0.00054,-0.00014,-0.00027,-0.00022,-0.00047,-0.0001,-0.00013,3e-05,6,25
31514,-0.00054,-0.00014,-0.00027,-0.00022,-0.00047,-0.0001,-0.00013,3e-05,6,25
31515,-0.00054,-0.00014,-0.00027,-0.00022,-0.00047,-0.0001,-0.00013,3e-05,6,25
31516,-0.00054,-0.00014,-0.00027,-0.00022,-0.00047,-0.0001,-0.00013,3e-05,6,25
31517,-0.00054,-0.00014,-0.00027,-0.00022,-0.00047,-0.0001,-0.00013,3e-05,6,25
31518,-0.00054,-0.00014,-0.00027,-0.00022,-0.00047,-0.0001,-0.00013,3e-05,6,25
31519,-0.00054,-0.00014,-0.00027,-0.00022,-0.00047,-0.0001,-0.00013,3e-05,6,25
31520,-0.00054,-0.00014,-0.00027,-0.00022,-0.00047,-0.0001,-0.00013,3e-05,6,25
31521,-0.00054,-0.00014,-0.00027,-0.00022,-0.00047,-0.0001,-0.00013,3e-05,6,25
31522,-0.00054,-0.00014,-0.00027,-0.00022,-0.00047,-0.0001,-0.00013,3e-05,6,25
31523,-0.00054,-0.00014,-0.00027,-0.00022,-0.00047,-0.0001,-0.00013,3e-05,6,25
31524,-0.00054,-0.00014,-0.00027,-0.00022,-0.00047,-0.0001,-0.00013,3e-05,6,25
31525,0.00025,3e-05,-5e-05,-9e-05,-0.00037,-0.00014,-6e-05,-2e-05,6,25
31526,0.00025,3e-05,-5e-05,-9e-05,-0.00037,-0.00014,-6e-05,-2e-05,6,25
31527,0.0002,-1e-05,-9e-05,-0.00026,3e-05,0.00021,2e-05,0.00015,6,25
31528,0.0002,-1e-05,-9e-05,-0.00026,3e-05,0.00021,2e-05,0.00015,6,25
31529,0.0002,-1e-05,-9e-05,-0.00026,3e-05,0.00021,2e-05,0.00015,6,25
31530,0.0002,-1e-05,-9e-05,-0.00026,3e-05,0.00021,2e-05,0.00015,6,25
31531,0.0002,-1e-05,-9e-05,-0.00026,3e-05,0.00021,2e-05,0.00015,6,25
31532,0.0002,-1e-05,-9e-05,-0.00026,3e-05,0.00021,2e-05,0.00015,6,25
31533,0.0002,-1e-05,-9e-05,-0.00026,3e-05,0.00021,2e-05,0.00015,6,25
31534,0.0002,-1e-05,-9e-05,-0.00026,3e-05,0.00021,2e-05,0.00015,6,25
31535,0.0002,-1e-05,-9e-05,-0.00026,3e-05,0.00021,2e-05,0.00015,6,25
31536,0.0002,-1e-05,-9e-05,-0.00026,3e-05,0.00021,2e-05,0.00015,6,25
31537,0.0002,-1e-05,-9e-05,-0.00026,3e-05,0.00021,2e-05,0.00015,6,25
31538,0.0002,-1e-05,-9e-05,-0.00026,3e-05,0.00021,2e-05,0.00015,6,25
31539,-0.00015,-9e-05,-2e-05,0.00013,0.00015,0.00026,9e-05,0.00023,6,25
31540,-0.00015,-9e-05,-2e-05,0.00013,0.00015,0.00026,9e-05,0.00023,6,25
31541,-0.00015,-9e-05,-2e-05,0.00013,0.00015,0.00026,9e-05,0.00023,6,25
31542,-0.00015,-9e-05,-2e-05,0.00013,0.00015,0.00026,9e-05,0.00023,6,25
31543,-0.00015,-9e-05,-2e-05,0.00013,0.00015,0.00026,9e-05,0.00023,6,25
31544,-0.00015,-9e-05,-2e-05,0.00013,0.00015,0.00026,9e-05,0.00023,6,25
31545,-0.00015,-9e-05,-2e-05,0.00013,0.00015,0.00026,9e-05,0.00023,6,25
31546,-0.00015,-9e-05,-2e-05,0.00013,0.00015,0.00026,9e-05,0.00023,6,25
31547,-0.00015,-9e-05,-2e-05,0.00013,0.00015,0.00026,9e-05,0.00023,6,25
31548,-0.00021,-0.00015,-1e-05,-0.00014,-0.00051,-0.00094,-0.00035,-0.00057,6,25
31549,-0.00021,-0.00015,-1e-05,-0.00014,-0.00051,-0.00094,-0.00035,-0.00057,6,25
31550,-0.00021,-0.00015,-1e-05,-0.00014,-0.00051,-0.00094,-0.00035,-0.00057,6,25
31551,-0.00021,-0.00015,-1e-05,-0.00014,-0.00051,-0.00094,-0.00035,-0.00057,6,25
31552,-0.00021,-0.00015,-1e-05,-0.00014,-0.00051,-0.00094,-0.00035,-0.00057,6,25
31553,-0.00021,-0.00015,-1e-05,-0.00014,-0.00051,-0.00094,-0.00035,-0.00057,6,25
31554,-0.00021,-0.00015,-1e-05,-0.00014,-0.00051,-0.00094,-0.00035,-0.00057,6,25
31555,-0.00021,-0.00015,-1e-05,-0.00014,-0.00051,-0.00094,-0.00035,-0.00057,6,25
31557,-0.00021,-0.00015,-1e-05,-0.00014,-0.00051,-0.00094,-0.00035,-0.00057,6,25
31558,-0.00021,-0.00015,-1e-05,-0.00014,-0.00051,-0.00094,-0.00035,-0.00057,6,25
31559,-0.00021,-0.00015,-1e-05,-0.00014,-0.00051,-0.00094,-0.00035,-0.00057,6,25
31560,-0.00021,-0.00015,-1e-05,-0.00014,-0.00051,-0.00094,-0.00035,-0.00057,6,25
31561,-0.00021,-0.00015,-1e-05,-0.00014,-0.00051,-0.00094,-0.00035,-0.00057,6,25
31562,-0.00021,-0.00015,-1e-05,-0.00014,-0.00051,-0.00094,-0.00035,-0.00057,6,25
31563,0.00013,-1e-05,-4e-05,1e-05,0.00032,0.0006,-1e-05,0.00037,6,25
31564,-4e-05,9e-05,6e-05,0.00011,0.00052,4e-05,6e-05,0.00022,6,25
31565,-4e-05,9e-05,6e-05,0.00011,0.00052,4e-05,6e-05,0.00022,6,25
31566,-4e-05,9e-05,6e-05,0.00011,0.00052,4e-05,6e-05,0.00022,6,25
31567,-4e-05,9e-05,6e-05,0.00011,0.00052,4e-05,6e-05,0.00022,6,25
31568,-4e-05,9e-05,6e-05,0.00011,0.00052,4e-05,6e-05,0.00022,6,25
31569,-4e-05,9e-05,6e-05,0.00011,0.00052,4e-05,6e-05,0.00022,6,25
31570,-4e-05,9e-05,6e-05,0.00011,0.00052,4e-05,6e-05,0.00022,6,25
31571,-4e-05,9e-05,6e-05,0.00011,0.00052,4e-05,6e-05,0.00022,6,25
31572,-4e-05,9e-05,6e-05,0.00011,0.00052,4e-05,6e-05,0.00022,6,25
31573,-4e-05,9e-05,6e-05,0.00011,0.00052,4e-05,6e-05,0.00022,6,25
31574,-4e-05,9e-05,6e-05,0.00011,0.00052,4e-05,6e-05,0.00022,6,25
31575,-4e-05,9e-05,6e-05,0.00011,0.00052,4e-05,6e-05,0.00022,6,25
31576,-4e-05,9e-05,6e-05,0.00011,0.00052,4e-05,6e-05,0.00022,6,25
31577,-4e-05,9e-05,6e-05,0.00011,0.00052,4e-05,6e-05,0.00022,6,25
31578,-4e-05,9e-05,6e-05,0.00011,0.00052,4e-05,6e-05,0.00022,6,25
31579,-4e-05,9e-05,6e-05,0.00011,0.00052,4e-05,6e-05,0.00022,6,25
31580,-4e-05,9e-05,6e-05,0.00011,0.00052,4e-05,6e-05,0.00022,6,25
31581,-4e-05,9e-05,6e-05,0.00011,0.00052,4e-05,6e-05,0.00022,6,25
31582,-4e-05,9e-05,6e-05,0.00011,0.00052,4e-05,6e-05,0.00022,6,25
31583,-4e-05,9e-05,6e-05,0.00011,0.00052,4e-05,6e-05,0.00022,6,25
31584,-4e-05,9e-05,6e-05,0.00011,0.00052,4e-05,6e-05,0.00022,6,25
31585,-0.00027,-4e-05,4e-05,0.0001,-0.00019,-0.00027,-0.00019,0.00013,6,25
31586,-0.00027,-4e-05,4e-05,0.0001,-0.00019,-0.00027,-0.00019,0.00013,6,25
31588,0.00024,-1e-05,5e-05,0.00024,0.00088,0.00041,-8e-05,0.00012,6,25
31589,0.00024,-1e-05,5e-05,0.00024,0.00088,0.00041,-8e-05,0.00012,6,25
31590,0.00024,-1e-05,5e-05,0.00024,0.00088,0.00041,-8e-05,0.00012,6,25
31591,0.00024,-1e-05,5e-05,0.00024,0.00088,0.00041,-8e-05,0.00012,6,25
31592,0.00024,-1e-05,5e-05,0.00024,0.00088,0.00041,-8e-05,0.00012,6,25
31593,0.00024,-1e-05,5e-05,0.00024,0.00088,0.00041,-8e-05,0.00012,6,25
31594,0.00024,-1e-05,5e-05,0.00024,0.00088,0.00041,-8e-05,0.00012,6,25
31595,0.00024,-1e-05,5e-05,0.00024,0.00088,0.00041,-8e-05,0.00012,6,25
31596,0.00024,-1e-05,5e-05,0.00024,0.00088,0.00041,-8e-05,0.00012,6,25
31597,0.00024,-1e-05,5e-05,0.00024,0.00088,0.00041,-8e-05,0.00012,6,25
31598,0.00024,-1e-05,5e-05,0.00024,0.00088,0.00041,-8e-05,0.00012,6,25
31599,0.00012,-0.0001,-0.00014,-0.0005,-0.00091,-0.00064,-0.00064,-0.0004,6,25
31600,0.00012,-0.0001,-0.00014,-0.0005,-0.00091,-0.00064,-0.00064,-0.0004,6,25
31601,0.00012,-0.0001,-0.00014,-0.0005,-0.00091,-0.00064,-0.00064,-0.0004,6,25
31602,0.00012,-0.0001,-0.00014,-0.0005,-0.00091,-0.00064,-0.00064,-0.0004,6,25
31604,0.00012,-0.0001,-0.00014,-0.0005,-0.00091,-0.00064,-0.00064,-0.0004,6,25
31605,0.00012,-0.0001,-0.00014,-0.0005,-0.00091,-0.00064,-0.00064,-0.0004,6,25
31606,0.00012,-0.0001,-0.00014,-0.0005,-0.00091,-0.00064,-0.00064,-0.0004,6,25
31607,0.00012,-0.0001,-0.00014,-0.0005,-0.00091,-0.00064,-0.00064,-0.0004,6,25
31608,0.00037,0.00021,0.00012,-2e-05,-0.00027,-3e-05,0.00027,-0.00043,6,25
31609,0.00037,0.00021,0.00012,-2e-05,-0.00027,-3e-05,0.00027,-0.00043,6,25
31610,0.00037,0.00021,0.00012,-2e-05,-0.00027,-3e-05,0.00027,-0.00043,6,25
31611,0.00037,0.00021,0.00012,-2e-05,-0.00027,-3e-05,0.00027,-0.00043,6,25
31612,0.00037,0.00021,0.00012,-2e-05,-0.00027,-3e-05,0.00027,-0.00043,6,25
31613,0.00037,0.00021,0.00012,-2e-05,-0.00027,-3e-05,0.00027,-0.00043,6,25
31614,0.00037,0.00021,0.00012,-2e-05,-0.00027,-3e-05,0.00027,-0.00043,6,25
31615,0.00037,0.00021,0.00012,-2e-05,-0.00027,-3e-05,0.00027,-0.00043,6,25
31616,0.00037,0.00021,0.00012,-2e-05,-0.00027,-3e-05,0.00027,-0.00043,6,25
31617,0.00037,0.00021,0.00012,-2e-05,-0.00027,-3e-05,0.00027,-0.00043,6,25
31618,0.00037,0.00021,0.00012,-2e-05,-0.00027,-3e-05,0.00027,-0.00043,6,25
31619,0.00037,0.00021,0.00012,-2e-05,-0.00027,-3e-05,0.00027,-0.00043,6,25
31620,0.00037,0.00021,0.00012,-2e-05,-0.00027,-3e-05,0.00027,-0.00043,6,25
31621,0.00037,0.00021,0.00012,-2e-05,-0.00027,-3e-05,0.00027,-0.00043,6,25
31622,0.00037,0.00021,0.00012,-2e-05,-0.00027,-3e-05,0.00027,-0.00043,6,25
31623,-0.00018,-0.00022,-8e-05,-0.00015,-0.00035,-5e-05,-0.00016,-0.0003,6,25
31624,-2e-05,-0.00034,-0.00014,2e-05,0.0001,0.00018,0.0004,-3e-05,6,25
31625,-2e-05,-0.00034,-0.00014,2e-05,0.0001,0.00018,0.0004,-3e-05,6,25
31626,-2e-05,-0.00034,-0.00014,2e-05,0.0001,0.00018,0.0004,-3e-05,6,25
31627,-2e-05,-0.00034,-0.00014,2e-05,0.0001,0.00018,0.0004,-3e-05,6,25
31628,-2e-05,-0.00034,-0.00014,2e-05,0.0001,0.00018,0.0004,-3e-05,6,25
31629,-2e-05,-0.00034,-0.00014,2e-05,0.0001,0.00018,0.0004,-3e-05,6,25
31630,-2e-05,-0.00034,-0.00014,2e-05,0.0001,0.00018,0.0004,-3e-05,6,25
31631,-2e-05,-0.00034,-0.00014,2e-05,0.0001,0.00018,0.0004,-3e-05,6,25
31632,-2e-05,-0.00034,-0.00014,2e-05,0.0001,0.00018,0.0004,-3e-05,6,25
31633,-2e-05,-0.00034,-0.00014,2e-05,0.0001,0.00018,0.0004,-3e-05,6,25
31634,-2e-05,-0.00034,-0.00014,2e-05,0.0001,0.00018,0.0004,-3e-05,6,25
31635,-2e-05,-0.00034,-0.00014,2e-05,0.0001,0.00018,0.0004,-3e-05,6,25
31636,-2e-05,-0.00034,-0.00014,2e-05,0.0001,0.00018,0.0004,-3e-05,6,25
