22359,-0.0004,-2e-05,-1e-05,2e-05,-2e-05,-6e-05,-0.00024,0.00029,6,28
22360,-0.0004,-2e-05,-1e-05,2e-05,-2e-05,-6e-05,-0.00024,0.00029,6,28
22361,-0.0004,-2e-05,-1e-05,2e-05,-2e-05,-6e-05,-0.00024,0.00029,6,28
22362,-0.0004,-2e-05,-1e-05,2e-05,-2e-05,-6e-05,-0.00024,0.00029,6,28
22363,-0.0004,-2e-05,-1e-05,2e-05,-2e-05,-6e-05,-0.00024,0.00029,6,28
22364,-0.0004,-2e-05,-1e-05,2e-05,-2e-05,-6e-05,-0.00024,0.00029,6,28
22365,-0.0004,-2e-05,-1e-05,2e-05,-2e-05,-6e-05,-0.00024,0.00029,6,28
22366,-0.0004,-2e-05,-1e-05,2e-05,-2e-05,-6e-05,-0.00024,0.00029,6,28
22367,-0.0004,-2e-05,-1e-05,2e-05,-2e-05,-6e-05,-0.00024,0.00029,6,28
22368,-0.0004,-2e-05,-1e-05,2e-05,-2e-05,-6e-05,-0.00024,0.00029,6,28
22369,0.0003,-7e-05,-4e-05,-3e-05,-0.00015,-0.00046,-0.00041,0.00109,6,28
22370,5e-05,-1e-05,-6e-05,-4e-05,3e-05,-0.00012,-8e-05,-0.00089,6,28
22371,5e-05,-1e-05,-6e-05,-4e-05,3e-05,-0.00012,-8e-05,-0.00089,6,28
22372,5e-05,-1e-05,-6e-05,-4e-05,3e-05,-0.00012,-8e-05,-0.00089,6,28
22373,5e-05,-1e-05,-6e-05,-4e-05,3e-05,-0.00012,-8e-05,-0.00089,6,28
22374,5e-05,-1e-05,-6e-05,-4e-05,3e-05,-0.00012,-8e-05,-0.00089,6,28
22375,5e-05,-1e-05,-6e-05,-4e-05,3e-05,-0.00012,-8e-05,-0.00089,6,28
22376,5e-05,-1e-05,-6e-05,-4e-05,3e-05,-0.00012,-8e-05,-0.00089,6,28
22377,5e-05,-1e-05,-6e-05,-4e-05,3e-05,-0.00012,-8e-05,-0.00089,6,28
22378,5e-05,-1e-05,-6e-05,-4e-05,3e-05,-0.00012,-8e-05,-0.00089,6,28
22379,5e-05,-1e-05,-6e-05,-4e-05,3e-05,-0.00012,-8e-05,-0.00089,6,28
22380,5e-05,-1e-05,-6e-05,-4e-05,3e-05,-0.00012,-8e-05,-0.00089,6,28
22381,5e-05,-1e-05,-6e-05,-4e-05,3e-05,-0.00012,-8e-05,-0.00089,6,28
22382,-0.00032,4e-05,2e-05,3e-05,3e-05,-3e-05,-1e-05,-0.00036,6,28
22383,-0.00032,4e-05,2e-05,3e-05,3e-05,-3e-05,-1e-05,-0.00036,6,28
22384,-0.00032,4e-05,2e-05,3e-05,3e-05,-3e-05,-1e-05,-0.00036,6,28
22385,-0.00032,4e-05,2e-05,3e-05,3e-05,-3e-05,-1e-05,-0.00036,6,28
22386,-0.00032,4e-05,2e-05,3e-05,3e-05,-3e-05,-1e-05,-0.00036,6,28
22388,-0.00032,4e-05,2e-05,3e-05,3e-05,-3e-05,-1e-05,-0.00036,6,28
22389,2e-05,-6e-05,-4e-05,-6e-05,-6e-05,0.00015,-0.0001,0.00017,6,28
22390,2e-05,-6e-05,-4e-05,-6e-05,-6e-05,0.00015,-0.0001,0.00017,6,28
22391,2e-05,-6e-05,-4e-05,-6e-05,-6e-05,0.00015,-0.0001,0.00017,6,28
22392,2e-05,-6e-05,-4e-05,-6e-05,-6e-05,0.00015,-0.0001,0.00017,6,28
22393,2e-05,-6e-05,-4e-05,-6e-05,-6e-05,0.00015,-0.0001,0.00017,6,28
22394,2e-05,-6e-05,-4e-05,-6e-05,-6e-05,0.00015,-0.0001,0.00017,6,28
22395,2e-05,-6e-05,-4e-05,-6e-05,-6e-05,0.00015,-0.0001,0.00017,6,28
22396,2e-05,-6e-05,-4e-05,-6e-05,-6e-05,0.00015,-0.0001,0.00017,6,28
22397,2e-05,-6e-05,-4e-05,-6e-05,-6e-05,0.00015,-0.0001,0.00017,6,28
22398,2e-05,-6e-05,-4e-05,-6e-05,-6e-05,0.00015,-0.0001,0.00017,6,28
22399,2e-05,-6e-05,-4e-05,-6e-05,-6e-05,0.00015,-0.0001,0.00017,6,28
22400,2e-05,-6e-05,-4e-05,-6e-05,-6e-05,0.00015,-0.0001,0.00017,6,28
22401,2e-05,-6e-05,-4e-05,-6e-05,-6e-05,0.00015,-0.0001,0.00017,6,28
22402,2e-05,-6e-05,-4e-05,-6e-05,-6e-05,0.00015,-0.0001,0.00017,6,28
22403,2e-05,-6e-05,-4e-05,-6e-05,-6e-05,0.00015,-0.0001,0.00017,6,28
22404,2e-05,-6e-05,-4e-05,-6e-05,-6e-05,0.00015,-0.0001,0.00017,6,28
22405,2e-05,-6e-05,-4e-05,-6e-05,-6e-05,0.00015,-0.0001,0.00017,6,28
22406,-0.00013,-0.00025,-4e-05,-4e-05,-1e-05,0.00028,8e-05,6e-05,6,28
22407,0.00062,0.00023,1e-05,0,5e-05,0.00034,5e-05,0.00027,6,28
22408,0.00062,0.00023,1e-05,0,5e-05,0.00034,5e-05,0.00027,6,28
22409,0.00062,0.00023,1e-05,0,5e-05,0.00034,5e-05,0.00027,6,28
22410,0.00062,0.00023,1e-05,0,5e-05,0.00034,5e-05,0.00027,6,28
22411,0.00062,0.00023,1e-05,0,5e-05,0.00034,5e-05,0.00027,6,28
22412,0.00062,0.00023,1e-05,0,5e-05,0.00034,5e-05,0.00027,6,28
22413,0.00062,0.00023,1e-05,0,5e-05,0.00034,5e-05,0.00027,6,28
22414,0.00062,0.00023,1e-05,0,5e-05,0.00034,5e-05,0.00027,6,28
22415,0.00062,0.00023,1e-05,0,5e-05,0.00034,5e-05,0.00027,6,28
22416,0.00062,0.00023,1e-05,0,5e-05,0.00034,5e-05,0.00027,6,28
22417,0.00062,0.00023,1e-05,0,5e-05,0.00034,5e-05,0.00027,6,28
22418,0.00062,0.00023,1e-05,0,5e-05,0.00034,5e-05,0.00027,6,28
22419,0.00062,0.00023,1e-05,0,5e-05,0.00034,5e-05,0.00027,6,28
22420,0.00062,0.00023,1e-05,0,5e-05,0.00034,5e-05,0.00027,6,28
22421,0.00062,0.00023,1e-05,0,5e-05,0.00034,5e-05,0.00027,6,28
22422,0.00062,0.00023,1e-05,0,5e-05,0.00034,5e-05,0.00027,6,28
22423,0.00062,0.00023,1e-05,0,5e-05,0.00034,5e-05,0.00027,6,28
22424,0.00062,0.00023,1e-05,0,5e-05,0.00034,5e-05,0.00027,6,28
22425,0.00062,0.00023,1e-05,0,5e-05,0.00034,5e-05,0.00027,6,28
22426,0.00062,0.00023,1e-05,0,5e-05,0.00034,5e-05,0.00027,6,28
22427,0.00062,0.00023,1e-05,0,5e-05,0.00034,5e-05,0.00027,6,28
22428,-0.00037,-6e-05,-1e-05,-3e-05,2e-05,5e-05,0.00025,0.00038,6,28
22429,-0.00037,-6e-05,-1e-05,-3e-05,2e-05,5e-05,0.00025,0.00038,6,28
22430,-0.00088,-0.0002,-5e-05,-4e-05,-5e-05,-0.00023,-0.00019,8e-05,6,28
22431,-0.00088,-0.0002,-5e-05,-4e-05,-5e-05,-0.00023,-0.00019,8e-05,6,28
22432,-0.00088,-0.0002,-5e-05,-4e-05,-5e-05,-0.00023,-0.00019,8e-05,6,28
22433,-0.00088,-0.0002,-5e-05,-4e-05,-5e-05,-0.00023,-0.00019,8e-05,6,28
22434,-0.00088,-0.0002,-5e-05,-4e-05,-5e-05,-0.00023,-0.00019,8e-05,6,28
22435,-0.00088,-0.0002,-5e-05,-4e-05,-5e-05,-0.00023,-0.00019,8e-05,6,28
22436,-0.00088,-0.0002,-5e-05,-4e-05,-5e-05,-0.00023,-0.00019,8e-05,6,28
22438,-0.00088,-0.0002,-5e-05,-4e-05,-5e-05,-0.00023,-0.00019,8e-05,6,28
22439,-0.00088,-0.0002,-5e-05,-4e-05,-5e-05,-0.00023,-0.00019,8e-05,6,28
22440,-0.00088,-0.0002,-5e-05,-4e-05,-5e-05,-0.00023,-0.00019,8e-05,6,28
22441,-0.00088,-0.0002,-5e-05,-4e-05,-5e-05,-0.00023,-0.00019,8e-05,6,28
22442,1e-05,0.00012,7e-05,9e-05,6e-05,0.00033,-7e-05,-0.00037,6,28
22443,7e-05,0.00018,7e-05,0.00011,0.00012,0.0001,0.00029,0.00014,6,28
22444,7e-05,0.00018,7e-05,0.00011,0.00012,0.0001,0.00029,0.00014,6,28
22445,7e-05,0.00018,7e-05,0.00011,0.00012,0.0001,0.00029,0.00014,6,28
22446,7e-05,0.00018,7e-05,0.00011,0.00012,0.0001,0.00029,0.00014,6,28
22447,7e-05,0.00018,7e-05,0.00011,0.00012,0.0001,0.00029,0.00014,6,28
22448,7e-05,0.00018,7e-05,0.00011,0.00012,0.0001,0.00029,0.00014,6,28
22449,0,-6e-05,-0.00011,-0.00015,-9e-05,-8e-05,8e-05,0.00014,6,28
22450,0,-6e-05,-0.00011,-0.00015,-9e-05,-8e-05,8e-05,0.00014,6,28
22451,0,-6e-05,-0.00011,-0.00015,-9e-05,-8e-05,8e-05,0.00014,6,28
22452,0,-6e-05,-0.00011,-0.00015,-9e-05,-8e-05,8e-05,0.00014,6,28
22453,0,-6e-05,-0.00011,-0.00015,-9e-05,-8e-05,8e-05,0.00014,6,28
22454,0,-6e-05,-0.00011,-0.00015,-9e-05,-8e-05,8e-05,0.00014,6,28
22455,0,-6e-05,-0.00011,-0.00015,-9e-05,-8e-05,8e-05,0.00014,6,28
22456,0,-6e-05,-0.00011,-0.00015,-9e-05,-8e-05,8e-05,0.00014,6,28
22457,0,-6e-05,-0.00011,-0.00015,-9e-05,-8e-05,8e-05,0.00014,6,28
22458,0,-6e-05,-0.00011,-0.00015,-9e-05,-8e-05,8e-05,0.00014,6,28
22459,0,-6e-05,-0.00011,-0.00015,-9e-05,-8e-05,8e-05,0.00014,6,28
22460,0,-6e-05,-0.00011,-0.00015,-9e-05,-8e-05,8e-05,0.00014,6,28
22461,0,-6e-05,-0.00011,-0.00015,-9e-05,-8e-05,8e-05,0.00014,6,28
22462,0,-6e-05,-0.00011,-0.00015,-9e-05,-8e-05,8e-05,0.00014,6,28
22463,0,-6e-05,-0.00011,-0.00015,-9e-05,-8e-05,8e-05,0.00014,6,28
22464,0,-6e-05,-0.00011,-0.00015,-9e-05,-8e-05,8e-05,0.00014,6,28
22465,0,-6e-05,-0.00011,-0.00015,-9e-05,-8e-05,8e-05,0.00014,6,28
22466,-5e-05,2e-05,4e-05,3e-05,6e-05,0,0.00011,0.00022,6,28
22467,0.00034,9e-05,0,2e-05,2e-05,0.00019,2e-05,0.00012,6,28
22468,0.00034,9e-05,0,2e-05,2e-05,0.00019,2e-05,0.00012,6,28
22469,0.00034,9e-05,0,2e-05,2e-05,0.00019,2e-05,0.00012,6,28
22470,0.00034,9e-05,0,2e-05,2e-05,0.00019,2e-05,0.00012,6,28
22471,0.00034,9e-05,0,2e-05,2e-05,0.00019,2e-05,0.00012,6,28
22472,0.00034,9e-05,0,2e-05,2e-05,0.00019,2e-05,0.00012,6,28
22473,0.00034,9e-05,0,2e-05,2e-05,0.00019,2e-05,0.00012,6,28
22474,0.00034,9e-05,0,2e-05,2e-05,0.00019,2e-05,0.00012,6,28
22475,0.00034,9e-05,0,2e-05,2e-05,0.00019,2e-05,0.00012,6,28
22476,0.00034,9e-05,0,2e-05,2e-05,0.00019,2e-05,0.00012,6,28
22477,0.00034,9e-05,0,2e-05,2e-05,0.00019,2e-05,0.00012,6,28
22478,0.00034,9e-05,0,2e-05,2e-05,0.00019,2e-05,0.00012,6,28
22479,0.00034,9e-05,0,2e-05,2e-05,0.00019,2e-05,0.00012,6,28
22480,0.00034,9e-05,0,2e-05,2e-05,0.00019,2e-05,0.00012,6,28
22481,0.00034,9e-05,0,2e-05,2e-05,0.00019,2e-05,0.00012,6,28
22482,0.00034,9e-05,0,2e-05,2e-05,0.00019,2e-05,0.00012,6,28
22483,0.00034,9e-05,0,2e-05,2e-05,0.00019,2e-05,0.00012,6,28
22484,0.00034,9e-05,0,2e-05,2e-05,0.00019,2e-05,0.00012,6,28
22485,0.00034,9e-05,0,2e-05,2e-05,0.00019,2e-05,0.00012,6,28
22486,0.00034,9e-05,0,2e-05,2e-05,0.00019,2e-05,0.00012,6,28
22489,1e-05,7e-05,-3e-05,-4e-05,-6e-05,2e-05,-2e-05,-0.0005,6,28
22490,0.00017,4e-05,2e-05,2e-05,9e-05,0.00024,-5e-05,-0.00058,6,28
22491,0.00017,4e-05,2e-05,2e-05,9e-05,0.00024,-5e-05,-0.00058,6,28
22492,0.00017,4e-05,2e-05,2e-05,9e-05,0.00024,-5e-05,-0.00058,6,28
22493,0.00017,4e-05,2e-05,2e-05,9e-05,0.00024,-5e-05,-0.00058,6,28
22494,0.00017,4e-05,2e-05,2e-05,9e-05,0.00024,-5e-05,-0.00058,6,28
22495,0.00017,4e-05,2e-05,2e-05,9e-05,0.00024,-5e-05,-0.00058,6,28
22496,0.00017,4e-05,2e-05,2e-05,9e-05,0.00024,-5e-05,-0.00058,6,28
22497,0.00017,4e-05,2e-05,2e-05,9e-05,0.00024,-5e-05,-0.00058,6,28
22498,0.00017,4e-05,2e-05,2e-05,9e-05,0.00024,-5e-05,-0.00058,6,28
22499,0.00017,4e-05,2e-05,2e-05,9e-05,0.00024,-5e-05,-0.00058,6,28
22500,0.00017,4e-05,2e-05,2e-05,9e-05,0.00024,-5e-05,-0.00058,6,28
22501,0.00017,4e-05,2e-05,2e-05,9e-05,0.00024,-5e-05,-0.00058,6,28
22502,0.00017,4e-05,2e-05,2e-05,9e-05,0.00024,-5e-05,-0.00058,6,28
22503,0.00014,2e-05,-5e-05,0,0,-0.00017,9e-05,-2e-05,6,28
22504,0.00014,2e-05,-5e-05,0,0,-0.00017,9e-05,-2e-05,6,28
22505,0.00014,2e-05,-5e-05,0,0,-0.00017,9e-05,-2e-05,6,28
22506,0.00014,2e-05,-5e-05,0,0,-0.00017,9e-05,-2e-05,6,28
22507,0.00014,2e-05,-5e-05,0,0,-0.00017,9e-05,-2e-05,6,28
22508,0.00014,2e-05,-5e-05,0,0,-0.00017,9e-05,-2e-05,6,28
22509,0.00065,0.00022,1e-05,3e-05,2e-05,-0.00012,0.00016,-0.00023,6,28
22510,0.00065,0.00022,1e-05,3e-05,2e-05,-0.00012,0.00016,-0.00023,6,28
22511,0.00065,0.00022,1e-05,3e-05,2e-05,-0.00012,0.00016,-0.00023,6,28
22512,0.00065,0.00022,1e-05,3e-05,2e-05,-0.00012,0.00016,-0.00023,6,28
22513,0.00065,0.00022,1e-05,3e-05,2e-05,-0.00012,0.00016,-0.00023,6,28
22514,0.00065,0.00022,1e-05,3e-05,2e-05,-0.00012,0.00016,-0.00023,6,28
22515,0.00065,0.00022,1e-05,3e-05,2e-05,-0.00012,0.00016,-0.00023,6,28
22516,0.00065,0.00022,1e-05,3e-05,2e-05,-0.00012,0.00016,-0.00023,6,28
22517,0.00065,0.00022,1e-05,3e-05,2e-05,-0.00012,0.00016,-0.00023,6,28
22518,0.00065,0.00022,1e-05,3e-05,2e-05,-0.00012,0.00016,-0.00023,6,28
22519,0.00065,0.00022,1e-05,3e-05,2e-05,-0.00012,0.00016,-0.00023,6,28
22520,0.00065,0.00022,1e-05,3e-05,2e-05,-0.00012,0.00016,-0.00023,6,28
22521,0.00065,0.00022,1e-05,3e-05,2e-05,-0.00012,0.00016,-0.00023,6,28
22522,0.00065,0.00022,1e-05,3e-05,2e-05,-0.00012,0.00016,-0.00023,6,28
22523,0.00065,0.00022,1e-05,3e-05,2e-05,-0.00012,0.00016,-0.00023,6,28
22524,0.00065,0.00022,1e-05,3e-05,2e-05,-0.00012,0.00016,-0.00023,6,28
22525,7e-05,5e-05,-8e-05,-0.00013,-5e-05,0.00018,0.00018,0.00025,6,28
22526,0.0001,4e-05,-3e-05,-2e-05,4e-05,0.00021,2e-05,8e-05,6,28
22527,0.0001,4e-05,-3e-05,-2e-05,4e-05,0.00021,2e-05,8e-05,6,28
22528,0.0001,4e-05,-3e-05,-2e-05,4e-05,0.00021,2e-05,8e-05,6,28
22529,0.0001,4e-05,-3e-05,-2e-05,4e-05,0.00021,2e-05,8e-05,6,28
22530,0.0001,4e-05,-3e-05,-2e-05,4e-05,0.00021,2e-05,8e-05,6,28
22531,0.0001,4e-05,-3e-05,-2e-05,4e-05,0.00021,2e-05,8e-05,6,28
22532,-0.00011,0,-3e-05,-3e-05,0,3e-05,1e-05,-0.0001,6,28
22533,-0.00011,0,-3e-05,-3e-05,0,3e-05,1e-05,-0.0001,6,28
22534,-0.00011,0,-3e-05,-3e-05,0,3e-05,1e-05,-0.0001,6,28
22535,-0.00011,0,-3e-05,-3e-05,0,3e-05,1e-05,-0.0001,6,28
22537,-0.00011,0,-3e-05,-3e-05,0,3e-05,1e-05,-0.0001,6,28
22539,-0.00011,0,-3e-05,-3e-05,0,3e-05,1e-05,-0.0001,6,28
22540,-0.00011,0,-3e-05,-3e-05,0,3e-05,1e-05,-0.0001,6,28
22541,-0.00011,0,-3e-05,-3e-05,0,3e-05,1e-05,-0.0001,6,28
22542,-0.00011,0,-3e-05,-3e-05,0,3e-05,1e-05,-0.0001,6,28
22543,-0.00011,0,-3e-05,-3e-05,0,3e-05,1e-05,-0.0001,6,28
22544,-0.00011,0,-3e-05,-3e-05,0,3e-05,1e-05,-0.0001,6,28
22545,-0.00011,0,-3e-05,-3e-05,0,3e-05,1e-05,-0.0001,6,28
22546,-0.00011,0,-3e-05,-3e-05,0,3e-05,1e-05,-0.0001,6,28
22547,-0.00011,0,-3e-05,-3e-05,0,3e-05,1e-05,-0.0001,6,28
22548,0.00016,-5e-05,2e-05,0,-4e-05,-0.00048,8e-05,-0.00031,6,28
22549,-0.0002,-5e-05,-2e-05,-8e-05,-0.00011,-0.00011,-0.00015,-0.00035,6,28
22550,-0.0002,-5e-05,-2e-05,-8e-05,-0.00011,-0.00011,-0.00015,-0.00035,6,28
22551,-0.0002,-5e-05,-2e-05,-8e-05,-0.00011,-0.00011,-0.00015,-0.00035,6,28
22552,-0.0002,-5e-05,-2e-05,-8e-05,-0.00011,-0.00011,-0.00015,-0.00035,6,28
22553,-0.0002,-5e-05,-2e-05,-8e-05,-0.00011,-0.00011,-0.00015,-0.00035,6,28
22554,-0.00047,-7e-05,2e-05,4e-05,6e-05,0.00016,-1e-05,-0.00019,6,28
22555,-0.00047,-7e-05,2e-05,4e-05,6e-05,0.00016,-1e-05,-0.00019,6,28
22556,-0.00047,-7e-05,2e-05,4e-05,6e-05,0.00016,-1e-05,-0.00019,6,28
22557,-0.00047,-7e-05,2e-05,4e-05,6e-05,0.00016,-1e-05,-0.00019,6,28
22558,-0.00047,-7e-05,2e-05,4e-05,6e-05,0.00016,-1e-05,-0.00019,6,28
22559,-0.00047,-7e-05,2e-05,4e-05,6e-05,0.00016,-1e-05,-0.00019,6,28
22560,-0.00047,-7e-05,2e-05,4e-05,6e-05,0.00016,-1e-05,-0.00019,6,28
22561,-0.00047,-7e-05,2e-05,4e-05,6e-05,0.00016,-1e-05,-0.00019,6,28
22562,-0.0002,-4e-05,1e-05,2e-05,1e-05,0.00013,0.00032,0.00061,6,28
22563,8e-05,-7e-05,-8e-05,-8e-05,-9e-05,-6e-05,-0.00024,0.0001,6,28
22564,8e-05,-7e-05,-8e-05,-8e-05,-9e-05,-6e-05,-0.00024,0.0001,6,28
22565,8e-05,-7e-05,-8e-05,-8e-05,-9e-05,-6e-05,-0.00024,0.0001,6,28
22566,8e-05,-7e-05,-8e-05,-8e-05,-9e-05,-6e-05,-0.00024,0.0001,6,28
22567,8e-05,-7e-05,-8e-05,-8e-05,-9e-05,-6e-05,-0.00024,0.0001,6,28
22568,8e-05,-7e-05,-8e-05,-8e-05,-9e-05,-6e-05,-0.00024,0.0001,6,28
22569,8e-05,-7e-05,-8e-05,-8e-05,-9e-05,-6e-05,-0.00024,0.0001,6,28
22570,-0.00058,-8e-05,-2e-05,-3e-05,-6e-05,-0.00012,0.0002,0.0002,6,28
22571,-0.00058,-8e-05,-2e-05,-3e-05,-6e-05,-0.00012,0.0002,0.0002,6,28
22572,-0.00058,-8e-05,-2e-05,-3e-05,-6e-05,-0.00012,0.0002,0.0002,6,28
22573,-0.00058,-8e-05,-2e-05,-3e-05,-6e-05,-0.00012,0.0002,0.0002,6,28
22574,-0.00058,-8e-05,-2e-05,-3e-05,-6e-05,-0.00012,0.0002,0.0002,6,28
22575,-0.00058,-8e-05,-2e-05,-3e-05,-6e-05,-0.00012,0.0002,0.0002,6,28
22576,-0.00058,-8e-05,-2e-05,-3e-05,-6e-05,-0.00012,0.0002,0.0002,6,28
22577,-0.00058,-8e-05,-2e-05,-3e-05,-6e-05,-0.00012,0.0002,0.0002,6,28
22578,-0.00058,-8e-05,-2e-05,-3e-05,-6e-05,-0.00012,0.0002,0.0002,6,28
22579,-0.00058,-8e-05,-2e-05,-3e-05,-6e-05,-0.00012,0.0002,0.0002,6,28
22580,-0.00058,-8e-05,-2e-05,-3e-05,-6e-05,-0.00012,0.0002,0.0002,6,28
22581,-0.00058,-8e-05,-2e-05,-3e-05,-6e-05,-0.00012,0.0002,0.0002,6,28
22582,-0.00058,-8e-05,-2e-05,-3e-05,-6e-05,-0.00012,0.0002,0.0002,6,28
22583,-0.00058,-8e-05,-2e-05,-3e-05,-6e-05,-0.00012,0.0002,0.0002,6,28
22584,-0.00058,-8e-05,-2e-05,-3e-05,-6e-05,-0.00012,0.0002,0.0002,6,28
22585,-0.00058,-8e-05,-2e-05,-3e-05,-6e-05,-0.00012,0.0002,0.0002,6,28
22587,-0.00031,-6e-05,-5e-05,-3e-05,-5e-05,-5e-05,-3e-05,-0.00048,6,28
22589,0.00018,-2e-05,-4e-05,-1e-05,2e-05,-7e-05,-9e-05,0.00025,6,28
22590,0.00018,-2e-05,-4e-05,-1e-05,2e-05,-7e-05,-9e-05,0.00025,6,28
22591,0.00018,-2e-05,-4e-05,-1e-05,2e-05,-7e-05,-9e-05,0.00025,6,28
22592,0.00018,-2e-05,-4e-05,-1e-05,2e-05,-7e-05,-9e-05,0.00025,6,28
22593,0.00018,-2e-05,-4e-05,-1e-05,2e-05,-7e-05,-9e-05,0.00025,6,28
22594,0.00018,-2e-05,-4e-05,-1e-05,2e-05,-7e-05,-9e-05,0.00025,6,28
22595,0.00018,-2e-05,-4e-05,-1e-05,2e-05,-7e-05,-9e-05,0.00025,6,28
22596,0.00018,-2e-05,-4e-05,-1e-05,2e-05,-7e-05,-9e-05,0.00025,6,28
22597,0.00018,-2e-05,-4e-05,-1e-05,2e-05,-7e-05,-9e-05,0.00025,6,28
22598,0.00018,-2e-05,-4e-05,-1e-05,2e-05,-7e-05,-9e-05,0.00025,6,28
22599,0.00018,-2e-05,-4e-05,-1e-05,2e-05,-7e-05,-9e-05,0.00025,6,28
22600,0.00018,-2e-05,-4e-05,-1e-05,2e-05,-7e-05,-9e-05,0.00025,6,28
22601,0.00018,-2e-05,-4e-05,-1e-05,2e-05,-7e-05,-9e-05,0.00025,6,28
22602,0.00018,-2e-05,-4e-05,-1e-05,2e-05,-7e-05,-9e-05,0.00025,6,28
22603,0.00018,-2e-05,-4e-05,-1e-05,2e-05,-7e-05,-9e-05,0.00025,6,28
22604,0.00018,-2e-05,-4e-05,-1e-05,2e-05,-7e-05,-9e-05,0.00025,6,28
22605,0.00018,-2e-05,-4e-05,-1e-05,2e-05,-7e-05,-9e-05,0.00025,6,28
22606,0.00018,-2e-05,-4e-05,-1e-05,2e-05,-7e-05,-9e-05,0.00025,6,28
22607,0.00018,-2e-05,-4e-05,-1e-05,2e-05,-7e-05,-9e-05,0.00025,6,28
22608,-6e-05,1e-05,-1e-05,0,5e-05,-1e-05,7e-05,0.00026,6,28
22609,-6e-05,1e-05,-1e-05,0,5e-05,-1e-05,7e-05,0.00026,6,28
22610,-2e-05,-3e-05,4e-05,3e-05,0,2e-05,2e-05,0.00041,6,28
22611,-2e-05,-3e-05,4e-05,3e-05,0,2e-05,2e-05,0.00041,6,28
22612,-2e-05,-3e-05,4e-05,3e-05,0,2e-05,2e-05,0.00041,6,28
22613,-2e-05,-3e-05,4e-05,3e-05,0,2e-05,2e-05,0.00041,6,28
22614,-2e-05,-3e-05,4e-05,3e-05,0,2e-05,2e-05,0.00041,6,28
22615,-2e-05,-3e-05,4e-05,3e-05,0,2e-05,2e-05,0.00041,6,28
22616,-2e-05,-3e-05,4e-05,3e-05,0,2e-05,2e-05,0.00041,6,28
22617,-2e-05,-3e-05,4e-05,3e-05,0,2e-05,2e-05,0.00041,6,28
22618,-2e-05,-3e-05,4e-05,3e-05,0,2e-05,2e-05,0.00041,6,28
22619,-2e-05,-3e-05,4e-05,3e-05,0,2e-05,2e-05,0.00041,6,28
22620,-2e-05,-3e-05,4e-05,3e-05,0,2e-05,2e-05,0.00041,6,28
22621,-2e-05,-3e-05,4e-05,3e-05,0,2e-05,2e-05,0.00041,6,28
22622,0.00046,5e-05,1e-05,0,0,-6e-05,7e-05,-6e-05,6,28
22623,0.00046,5e-05,1e-05,0,0,-6e-05,7e-05,-6e-05,6,28
22624,0.00046,5e-05,1e-05,0,0,-6e-05,7e-05,-6e-05,6,28
22625,0.00046,5e-05,1e-05,0,0,-6e-05,7e-05,-6e-05,6,28
22626,0.00046,5e-05,1e-05,0,0,-6e-05,7e-05,-6e-05,6,28
22627,0.00046,5e-05,1e-05,0,0,-6e-05,7e-05,-6e-05,6,28
22628,0.00046,5e-05,1e-05,0,0,-6e-05,7e-05,-6e-05,6,28
22629,0.00046,5e-05,1e-05,0,0,-6e-05,7e-05,-6e-05,6,28
22630,0.00046,5e-05,1e-05,0,0,-6e-05,7e-05,-6e-05,6,28
22631,2e-05,-1e-05,3e-05,1e-05,-1e-05,0,-0.0001,-2e-05,6,28
22632,2e-05,-1e-05,3e-05,1e-05,-1e-05,0,-0.0001,-2e-05,6,28
22633,2e-05,-1e-05,3e-05,1e-05,-1e-05,0,-0.0001,-2e-05,6,28
22634,2e-05,-1e-05,3e-05,1e-05,-1e-05,0,-0.0001,-2e-05,6,28
22635,2e-05,-1e-05,3e-05,1e-05,-1e-05,0,-0.0001,-2e-05,6,28
22637,2e-05,-1e-05,3e-05,1e-05,-1e-05,0,-0.0001,-2e-05,6,28
22639,2e-05,-1e-05,3e-05,1e-05,-1e-05,0,-0.0001,-2e-05,6,28
22640,2e-05,-1e-05,3e-05,1e-05,-1e-05,0,-0.0001,-2e-05,6,28
22641,2e-05,-1e-05,3e-05,1e-05,-1e-05,0,-0.0001,-2e-05,6,28
22642,2e-05,-1e-05,3e-05,1e-05,-1e-05,0,-0.0001,-2e-05,6,28
22643,2e-05,-1e-05,3e-05,1e-05,-1e-05,0,-0.0001,-2e-05,6,28
22644,2e-05,-1e-05,3e-05,1e-05,-1e-05,0,-0.0001,-2e-05,6,28
22645,2e-05,-1e-05,3e-05,1e-05,-1e-05,0,-0.0001,-2e-05,6,28
22646,-0.00024,-4e-05,-1e-05,0,0,0.00033,-0.00015,9e-05,6,28
22647,0.0001,0,0,1e-05,-3e-05,2e-05,-0.00016,-0.00027,6,28
22648,0.0001,0,0,1e-05,-3e-05,2e-05,-0.00016,-0.00027,6,28
22649,0.0001,0,0,1e-05,-3e-05,2e-05,-0.00016,-0.00027,6,28
22650,0.0001,0,0,1e-05,-3e-05,2e-05,-0.00016,-0.00027,6,28
22651,0.0001,0,0,1e-05,-3e-05,2e-05,-0.00016,-0.00027,6,28
22652,0.0001,0,0,1e-05,-3e-05,2e-05,-0.00016,-0.00027,6,28
22653,0.0001,0,0,1e-05,-3e-05,2e-05,-0.00016,-0.00027,6,28
22654,0.0001,0,0,1e-05,-3e-05,2e-05,-0.00016,-0.00027,6,28
22655,0.0001,0,0,1e-05,-3e-05,2e-05,-0.00016,-0.00027,6,28
22656,0.0001,0,0,1e-05,-3e-05,2e-05,-0.00016,-0.00027,6,28
22657,0.0001,0,0,1e-05,-3e-05,2e-05,-0.00016,-0.00027,6,28
22658,0.0001,0,0,1e-05,-3e-05,2e-05,-0.00016,-0.00027,6,28
22659,0.0001,0,0,1e-05,-3e-05,2e-05,-0.00016,-0.00027,6,28
22660,0.0001,0,0,1e-05,-3e-05,2e-05,-0.00016,-0.00027,6,28
22661,0.0001,0,0,1e-05,-3e-05,2e-05,-0.00016,-0.00027,6,28
22662,0.0001,0,0,1e-05,-3e-05,2e-05,-0.00016,-0.00027,6,28
22664,0.0001,0,0,1e-05,-3e-05,2e-05,-0.00016,-0.00027,6,28
22665,0.0001,0,0,1e-05,-3e-05,2e-05,-0.00016,-0.00027,6,28
22666,0.0001,0,0,1e-05,-3e-05,2e-05,-0.00016,-0.00027,6,28
22667,0.0001,0,0,1e-05,-3e-05,2e-05,-0.00016,-0.00027,6,28
22668,0.00031,8e-05,4e-05,5e-05,-2e-05,-0.00089,-8e-05,-2e-05,6,28
22669,0.00031,8e-05,4e-05,5e-05,-2e-05,-0.00089,-8e-05,-2e-05,6,28
22670,0.00031,8e-05,4e-05,5e-05,-2e-05,-0.00089,-8e-05,-2e-05,6,28
22671,0.00031,8e-05,4e-05,5e-05,-2e-05,-0.00089,-8e-05,-2e-05,6,28
22672,0.00031,8e-05,4e-05,5e-05,-2e-05,-0.00089,-8e-05,-2e-05,6,28
22673,0.00031,8e-05,4e-05,5e-05,-2e-05,-0.00089,-8e-05,-2e-05,6,28
22674,3e-05,2e-05,2e-05,2e-05,1e-05,-7e-05,4e-05,3e-05,6,28
22675,3e-05,2e-05,2e-05,2e-05,1e-05,-7e-05,4e-05,3e-05,6,28
22676,3e-05,2e-05,2e-05,2e-05,1e-05,-7e-05,4e-05,3e-05,6,28
22677,3e-05,2e-05,2e-05,2e-05,1e-05,-7e-05,4e-05,3e-05,6,28
22678,3e-05,2e-05,2e-05,2e-05,1e-05,-7e-05,4e-05,3e-05,6,28
22679,3e-05,2e-05,2e-05,2e-05,1e-05,-7e-05,4e-05,3e-05,6,28
22680,3e-05,2e-05,2e-05,2e-05,1e-05,-7e-05,4e-05,3e-05,6,28
22681,3e-05,2e-05,2e-05,2e-05,1e-05,-7e-05,4e-05,3e-05,6,28
22682,-0.00027,-1e-05,0,0,1e-05,0.00015,8e-05,-3e-05,6,28
22683,-0.00027,-1e-05,0,0,1e-05,0.00015,8e-05,-3e-05,6,28
22684,-0.00027,-1e-05,0,0,1e-05,0.00015,8e-05,-3e-05,6,28
22685,-0.00027,-1e-05,0,0,1e-05,0.00015,8e-05,-3e-05,6,28
22686,-0.00027,-1e-05,0,0,1e-05,0.00015,8e-05,-3e-05,6,28
22689,-0.00027,-1e-05,0,0,1e-05,0.00015,8e-05,-3e-05,6,28
22690,-0.00027,-1e-05,0,0,1e-05,0.00015,8e-05,-3e-05,6,28
22691,0,-1e-05,3e-05,6e-05,6e-05,8e-05,5e-05,-0.00095,6,28
22692,0,-1e-05,3e-05,6e-05,6e-05,8e-05,5e-05,-0.00095,6,28
22693,0,-1e-05,3e-05,6e-05,6e-05,8e-05,5e-05,-0.00095,6,28
22694,0,-1e-05,3e-05,6e-05,6e-05,8e-05,5e-05,-0.00095,6,28
22695,0,-1e-05,3e-05,6e-05,6e-05,8e-05,5e-05,-0.00095,6,28
22696,0,-1e-05,3e-05,6e-05,6e-05,8e-05,5e-05,-0.00095,6,28
22697,0,-1e-05,3e-05,6e-05,6e-05,8e-05,5e-05,-0.00095,6,28
22698,0,-1e-05,3e-05,6e-05,6e-05,8e-05,5e-05,-0.00095,6,28
22699,0,-1e-05,3e-05,6e-05,6e-05,8e-05,5e-05,-0.00095,6,28
22700,0,-1e-05,3e-05,6e-05,6e-05,8e-05,5e-05,-0.00095,6,28
22701,0,-1e-05,3e-05,6e-05,6e-05,8e-05,5e-05,-0.00095,6,28
22702,0,-1e-05,3e-05,6e-05,6e-05,8e-05,5e-05,-0.00095,6,28
22703,0,-1e-05,3e-05,6e-05,6e-05,8e-05,5e-05,-0.00095,6,28
22704,0,-1e-05,3e-05,6e-05,6e-05,8e-05,5e-05,-0.00095,6,28
22705,0,-1e-05,3e-05,6e-05,6e-05,8e-05,5e-05,-0.00095,6,28
22706,-0.00029,-7e-05,1e-05,0,-2e-05,0.0001,7e-05,5e-05,6,28
22707,-2e-05,1e-05,0,-3e-05,-5e-05,2e-05,1e-05,0.0004,6,28
22708,-2e-05,1e-05,0,-3e-05,-5e-05,2e-05,1e-05,0.0004,6,28
22709,-2e-05,1e-05,0,-3e-05,-5e-05,2e-05,1e-05,0.0004,6,28
22710,-2e-05,1e-05,0,-3e-05,-5e-05,2e-05,1e-05,0.0004,6,28
22711,-2e-05,1e-05,0,-3e-05,-5e-05,2e-05,1e-05,0.0004,6,28
22712,-2e-05,1e-05,0,-3e-05,-5e-05,2e-05,1e-05,0.0004,6,28
22713,-2e-05,1e-05,0,-3e-05,-5e-05,2e-05,1e-05,0.0004,6,28
22714,-2e-05,1e-05,0,-3e-05,-5e-05,2e-05,1e-05,0.0004,6,28
22715,-2e-05,1e-05,0,-3e-05,-5e-05,2e-05,1e-05,0.0004,6,28
22716,-2e-05,1e-05,0,-3e-05,-5e-05,2e-05,1e-05,0.0004,6,28
22717,-2e-05,1e-05,0,-3e-05,-5e-05,2e-05,1e-05,0.0004,6,28
22718,-2e-05,1e-05,0,-3e-05,-5e-05,2e-05,1e-05,0.0004,6,28
22719,-2e-05,1e-05,0,-3e-05,-5e-05,2e-05,1e-05,0.0004,6,28
22720,-2e-05,1e-05,0,-3e-05,-5e-05,2e-05,1e-05,0.0004,6,28
22721,-2e-05,1e-05,0,-3e-05,-5e-05,2e-05,1e-05,0.0004,6,28
22722,-2e-05,1e-05,0,-3e-05,-5e-05,2e-05,1e-05,0.0004,6,28
22723,-2e-05,1e-05,0,-3e-05,-5e-05,2e-05,1e-05,0.0004,6,28
22724,-2e-05,1e-05,0,-3e-05,-5e-05,2e-05,1e-05,0.0004,6,28
22725,-2e-05,1e-05,0,-3e-05,-5e-05,2e-05,1e-05,0.0004,6,28
22726,-2e-05,1e-05,0,-3e-05,-5e-05,2e-05,1e-05,0.0004,6,28
22727,-2e-05,1e-05,0,-3e-05,-5e-05,2e-05,1e-05,0.0004,6,28
22728,2e-05,-1e-05,-2e-05,-1e-05,-3e-05,0.00013,6e-05,-0.00011,6,28
22729,2e-05,-1e-05,-2e-05,-1e-05,-3e-05,0.00013,6e-05,-0.00011,6,28
22730,8e-05,5e-05,5e-05,5e-05,3e-05,-0.0001,0.00011,0.00037,6,28
22731,8e-05,5e-05,5e-05,5e-05,3e-05,-0.0001,0.00011,0.00037,6,28
22732,8e-05,5e-05,5e-05,5e-05,3e-05,-0.0001,0.00011,0.00037,6,28
22733,8e-05,5e-05,5e-05,5e-05,3e-05,-0.0001,0.00011,0.00037,6,28
22734,8e-05,5e-05,5e-05,5e-05,3e-05,-0.0001,0.00011,0.00037,6,28
22735,8e-05,5e-05,5e-05,5e-05,3e-05,-0.0001,0.00011,0.00037,6,28
22737,8e-05,5e-05,5e-05,5e-05,3e-05,-0.0001,0.00011,0.00037,6,28
22739,8e-05,5e-05,5e-05,5e-05,3e-05,-0.0001,0.00011,0.00037,6,28
22740,8e-05,5e-05,5e-05,5e-05,3e-05,-0.0001,0.00011,0.00037,6,28
22741,8e-05,5e-05,5e-05,5e-05,3e-05,-0.0001,0.00011,0.00037,6,28
22742,4e-05,-6e-05,-2e-05,-1e-05,-5e-05,0.00017,7e-05,0.00012,6,28
22743,4e-05,-6e-05,-2e-05,-1e-05,-5e-05,0.00017,7e-05,0.00012,6,28
22744,4e-05,-6e-05,-2e-05,-1e-05,-5e-05,0.00017,7e-05,0.00012,6,28
22745,4e-05,-6e-05,-2e-05,-1e-05,-5e-05,0.00017,7e-05,0.00012,6,28
22746,4e-05,-6e-05,-2e-05,-1e-05,-5e-05,0.00017,7e-05,0.00012,6,28
22747,4e-05,-6e-05,-2e-05,-1e-05,-5e-05,0.00017,7e-05,0.00012,6,28
22748,4e-05,-6e-05,-2e-05,-1e-05,-5e-05,0.00017,7e-05,0.00012,6,28
22749,4e-05,-6e-05,-2e-05,-1e-05,-5e-05,0.00017,7e-05,0.00012,6,28
22750,4e-05,-6e-05,-2e-05,-1e-05,-5e-05,0.00017,7e-05,0.00012,6,28
22751,5e-05,-1e-05,-6e-05,-5e-05,-5e-05,0.00015,6e-05,7e-05,6,28
22752,5e-05,-1e-05,-6e-05,-5e-05,-5e-05,0.00015,6e-05,7e-05,6,28
22753,5e-05,-1e-05,-6e-05,-5e-05,-5e-05,0.00015,6e-05,7e-05,6,28
22754,5e-05,-1e-05,-6e-05,-5e-05,-5e-05,0.00015,6e-05,7e-05,6,28
22755,5e-05,-1e-05,-6e-05,-5e-05,-5e-05,0.00015,6e-05,7e-05,6,28
22756,5e-05,-1e-05,-6e-05,-5e-05,-5e-05,0.00015,6e-05,7e-05,6,28
22757,5e-05,-1e-05,-6e-05,-5e-05,-5e-05,0.00015,6e-05,7e-05,6,28
22758,5e-05,-1e-05,-6e-05,-5e-05,-5e-05,0.00015,6e-05,7e-05,6,28
22759,5e-05,-1e-05,-6e-05,-5e-05,-5e-05,0.00015,6e-05,7e-05,6,28
22760,5e-05,-1e-05,-6e-05,-5e-05,-5e-05,0.00015,6e-05,7e-05,6,28
22761,5e-05,-1e-05,-6e-05,-5e-05,-5e-05,0.00015,6e-05,7e-05,6,28
22762,5e-05,-1e-05,-6e-05,-5e-05,-5e-05,0.00015,6e-05,7e-05,6,28
22763,5e-05,-1e-05,-6e-05,-5e-05,-5e-05,0.00015,6e-05,7e-05,6,28
22764,5e-05,-1e-05,-6e-05,-5e-05,-5e-05,0.00015,6e-05,7e-05,6,28
22765,5e-05,-1e-05,-6e-05,-5e-05,-5e-05,0.00015,6e-05,7e-05,6,28
22766,3e-05,5e-05,6e-05,6e-05,9e-05,-0.00031,-0.00024,-0.00066,6,28
22767,0.00027,-4e-05,-4e-05,-7e-05,-7e-05,0.00015,-7e-05,7e-05,6,28
22768,0.00027,-4e-05,-4e-05,-7e-05,-7e-05,0.00015,-7e-05,7e-05,6,28
22769,0.00027,-4e-05,-4e-05,-7e-05,-7e-05,0.00015,-7e-05,7e-05,6,28
22770,0.00027,-4e-05,-4e-05,-7e-05,-7e-05,0.00015,-7e-05,7e-05,6,28
22771,0.00027,-4e-05,-4e-05,-7e-05,-7e-05,0.00015,-7e-05,7e-05,6,28
22772,0.00027,-4e-05,-4e-05,-7e-05,-7e-05,0.00015,-7e-05,7e-05,6,28
22773,0.00027,-4e-05,-4e-05,-7e-05,-7e-05,0.00015,-7e-05,7e-05,6,28
22774,0.00027,-4e-05,-4e-05,-7e-05,-7e-05,0.00015,-7e-05,7e-05,6,28
22775,0.00027,-4e-05,-4e-05,-7e-05,-7e-05,0.00015,-7e-05,7e-05,6,28
22776,0.00027,-4e-05,-4e-05,-7e-05,-7e-05,0.00015,-7e-05,7e-05,6,28
22777,0.00027,-4e-05,-4e-05,-7e-05,-7e-05,0.00015,-7e-05,7e-05,6,28
22778,0.00027,-4e-05,-4e-05,-7e-05,-7e-05,0.00015,-7e-05,7e-05,6,28
22779,0.00027,-4e-05,-4e-05,-7e-05,-7e-05,0.00015,-7e-05,7e-05,6,28
22780,0.00027,-4e-05,-4e-05,-7e-05,-7e-05,0.00015,-7e-05,7e-05,6,28
22781,0.00027,-4e-05,-4e-05,-7e-05,-7e-05,0.00015,-7e-05,7e-05,6,28
22782,0.00027,-4e-05,-4e-05,-7e-05,-7e-05,0.00015,-7e-05,7e-05,6,28
22783,0.00027,-4e-05,-4e-05,-7e-05,-7e-05,0.00015,-7e-05,7e-05,6,28
22784,0.00027,-4e-05,-4e-05,-7e-05,-7e-05,0.00015,-7e-05,7e-05,6,28
22785,0.00027,-4e-05,-4e-05,-7e-05,-7e-05,0.00015,-7e-05,7e-05,6,28
22787,0.00027,-4e-05,-4e-05,-7e-05,-7e-05,0.00015,-7e-05,7e-05,6,28
22790,0.00033,9e-05,-4e-05,-8e-05,-4e-05,-0.00013,0,1e-05,6,28
22791,0.00033,9e-05,-4e-05,-8e-05,-4e-05,-0.00013,0,1e-05,6,28
22792,0.00033,9e-05,-4e-05,-8e-05,-4e-05,-0.00013,0,1e-05,6,28
22793,0.00033,9e-05,-4e-05,-8e-05,-4e-05,-0.00013,0,1e-05,6,28
22794,0.00033,9e-05,-4e-05,-8e-05,-4e-05,-0.00013,0,1e-05,6,28
22795,0.00033,9e-05,-4e-05,-8e-05,-4e-05,-0.00013,0,1e-05,6,28
22796,0.00033,9e-05,-4e-05,-8e-05,-4e-05,-0.00013,0,1e-05,6,28
22797,0.00033,9e-05,-4e-05,-8e-05,-4e-05,-0.00013,0,1e-05,6,28
22798,0.00033,9e-05,-4e-05,-8e-05,-4e-05,-0.00013,0,1e-05,6,28
22799,0.00033,9e-05,-4e-05,-8e-05,-4e-05,-0.00013,0,1e-05,6,28
22800,0.00033,9e-05,-4e-05,-8e-05,-4e-05,-0.00013,0,1e-05,6,28
22801,0.00033,9e-05,-4e-05,-8e-05,-4e-05,-0.00013,0,1e-05,6,28
22802,3e-05,-4e-05,-1e-05,-1e-05,1e-05,0.00012,9e-05,8e-05,6,28
22803,3e-05,-4e-05,-1e-05,-1e-05,1e-05,0.00012,9e-05,8e-05,6,28
22805,3e-05,-4e-05,-1e-05,-1e-05,1e-05,0.00012,9e-05,8e-05,6,28
22806,3e-05,-4e-05,-1e-05,-1e-05,1e-05,0.00012,9e-05,8e-05,6,28
22807,3e-05,-4e-05,-1e-05,-1e-05,1e-05,0.00012,9e-05,8e-05,6,28
22808,3e-05,-4e-05,-1e-05,-1e-05,1e-05,0.00012,9e-05,8e-05,6,28
22809,3e-05,-4e-05,-1e-05,-1e-05,1e-05,0.00012,9e-05,8e-05,6,28
22810,3e-05,-4e-05,-1e-05,-1e-05,1e-05,0.00012,9e-05,8e-05,6,28
22811,-0.00019,-4e-05,-2e-05,1e-05,0,0.00025,4e-05,-0.00012,6,28
22812,-0.00019,-4e-05,-2e-05,1e-05,0,0.00025,4e-05,-0.00012,6,28
22813,-0.00019,-4e-05,-2e-05,1e-05,0,0.00025,4e-05,-0.00012,6,28
22814,-0.00019,-4e-05,-2e-05,1e-05,0,0.00025,4e-05,-0.00012,6,28
22815,-0.00019,-4e-05,-2e-05,1e-05,0,0.00025,4e-05,-0.00012,6,28
22816,-0.00019,-4e-05,-2e-05,1e-05,0,0.00025,4e-05,-0.00012,6,28
22817,-0.00019,-4e-05,-2e-05,1e-05,0,0.00025,4e-05,-0.00012,6,28
22818,-0.00019,-4e-05,-2e-05,1e-05,0,0.00025,4e-05,-0.00012,6,28
22819,-0.00019,-4e-05,-2e-05,1e-05,0,0.00025,4e-05,-0.00012,6,28
22820,-0.00019,-4e-05,-2e-05,1e-05,0,0.00025,4e-05,-0.00012,6,28
22821,-0.00019,-4e-05,-2e-05,1e-05,0,0.00025,4e-05,-0.00012,6,28
22822,-0.00019,-4e-05,-2e-05,1e-05,0,0.00025,4e-05,-0.00012,6,28
22823,-0.00019,-4e-05,-2e-05,1e-05,0,0.00025,4e-05,-0.00012,6,28
22824,-0.00019,-4e-05,-2e-05,1e-05,0,0.00025,4e-05,-0.00012,6,28
22825,-0.00019,-4e-05,-2e-05,1e-05,0,0.00025,4e-05,-0.00012,6,28
22826,-0.00039,-7e-05,-7e-05,-5e-05,-7e-05,-0.00023,5e-05,-0.00017,6,28
22827,-0.00026,-9e-05,-4e-05,-4e-05,-2e-05,-0.00028,-0.00016,-0.00061,6,28
22828,-0.00026,-9e-05,-4e-05,-4e-05,-2e-05,-0.00028,-0.00016,-0.00061,6,28
22829,-0.00026,-9e-05,-4e-05,-4e-05,-2e-05,-0.00028,-0.00016,-0.00061,6,28
22830,-0.00026,-9e-05,-4e-05,-4e-05,-2e-05,-0.00028,-0.00016,-0.00061,6,28
22831,-0.00026,-9e-05,-4e-05,-4e-05,-2e-05,-0.00028,-0.00016,-0.00061,6,28
22832,-0.00026,-9e-05,-4e-05,-4e-05,-2e-05,-0.00028,-0.00016,-0.00061,6,28
22833,-0.00026,-9e-05,-4e-05,-4e-05,-2e-05,-0.00028,-0.00016,-0.00061,6,28
22834,-0.00026,-9e-05,-4e-05,-4e-05,-2e-05,-0.00028,-0.00016,-0.00061,6,28
22835,-0.00026,-9e-05,-4e-05,-4e-05,-2e-05,-0.00028,-0.00016,-0.00061,6,28
22837,-0.00026,-9e-05,-4e-05,-4e-05,-2e-05,-0.00028,-0.00016,-0.00061,6,28
22840,-0.00026,-9e-05,-4e-05,-4e-05,-2e-05,-0.00028,-0.00016,-0.00061,6,28
22841,-0.00026,-9e-05,-4e-05,-4e-05,-2e-05,-0.00028,-0.00016,-0.00061,6,28
22842,-0.00026,-9e-05,-4e-05,-4e-05,-2e-05,-0.00028,-0.00016,-0.00061,6,28
22843,-0.00026,-9e-05,-4e-05,-4e-05,-2e-05,-0.00028,-0.00016,-0.00061,6,28
22844,-0.00026,-9e-05,-4e-05,-4e-05,-2e-05,-0.00028,-0.00016,-0.00061,6,28
22845,-0.00026,-9e-05,-4e-05,-4e-05,-2e-05,-0.00028,-0.00016,-0.00061,6,28
22846,-0.00026,-9e-05,-4e-05,-4e-05,-2e-05,-0.00028,-0.00016,-0.00061,6,28
22847,-0.00026,-9e-05,-4e-05,-4e-05,-2e-05,-0.00028,-0.00016,-0.00061,6,28
22848,-3e-05,3e-05,-1e-05,-4e-05,-6e-05,-4e-05,0,3e-05,6,28
22849,-3e-05,3e-05,-1e-05,-4e-05,-6e-05,-4e-05,0,3e-05,6,28
22850,-7e-05,-6e-05,0,-2e-05,-7e-05,-0.00013,1e-05,0.00013,6,28
22851,-7e-05,-6e-05,0,-2e-05,-7e-05,-0.00013,1e-05,0.00013,6,28
22852,-7e-05,-6e-05,0,-2e-05,-7e-05,-0.00013,1e-05,0.00013,6,28
22853,-7e-05,-6e-05,0,-2e-05,-7e-05,-0.00013,1e-05,0.00013,6,28
22854,-7e-05,-6e-05,0,-2e-05,-7e-05,-0.00013,1e-05,0.00013,6,28
22855,-7e-05,-6e-05,0,-2e-05,-7e-05,-0.00013,1e-05,0.00013,6,28
22856,-7e-05,-6e-05,0,-2e-05,-7e-05,-0.00013,1e-05,0.00013,6,28
22857,-7e-05,-6e-05,0,-2e-05,-7e-05,-0.00013,1e-05,0.00013,6,28
22858,-7e-05,-6e-05,0,-2e-05,-7e-05,-0.00013,1e-05,0.00013,6,28
22859,-7e-05,-6e-05,0,-2e-05,-7e-05,-0.00013,1e-05,0.00013,6,28
22860,-7e-05,-6e-05,0,-2e-05,-7e-05,-0.00013,1e-05,0.00013,6,28
22861,-7e-05,-6e-05,0,-2e-05,-7e-05,-0.00013,1e-05,0.00013,6,28
22862,-7e-05,-6e-05,0,-2e-05,-7e-05,-0.00013,1e-05,0.00013,6,28
22863,-7e-05,-6e-05,0,-2e-05,-7e-05,-0.00013,1e-05,0.00013,6,28
22864,-7e-05,-6e-05,0,-2e-05,-7e-05,-0.00013,1e-05,0.00013,6,28
22865,-7e-05,-6e-05,0,-2e-05,-7e-05,-0.00013,1e-05,0.00013,6,28
22866,-7e-05,-6e-05,0,-2e-05,-7e-05,-0.00013,1e-05,0.00013,6,28
22867,-7e-05,-6e-05,0,-2e-05,-7e-05,-0.00013,1e-05,0.00013,6,28
22868,-7e-05,-6e-05,0,-2e-05,-7e-05,-0.00013,1e-05,0.00013,6,28
22869,-7e-05,-6e-05,0,-2e-05,-7e-05,-0.00013,1e-05,0.00013,6,28
22870,-8e-05,-5e-05,4e-05,5e-05,-1e-05,-6e-05,3e-05,0.00017,6,28
22871,-0.0001,-1e-05,-4e-05,-1e-05,-1e-05,-0.00025,-8e-05,-0.00012,6,28
22873,-0.0001,-1e-05,-4e-05,-1e-05,-1e-05,-0.00025,-8e-05,-0.00012,6,28
22874,-0.0001,-1e-05,-4e-05,-1e-05,-1e-05,-0.00025,-8e-05,-0.00012,6,28
22875,-0.0001,-1e-05,-4e-05,-1e-05,-1e-05,-0.00025,-8e-05,-0.00012,6,28
22876,-0.0001,-1e-05,-4e-05,-1e-05,-1e-05,-0.00025,-8e-05,-0.00012,6,28
22877,-0.0001,-1e-05,-4e-05,-1e-05,-1e-05,-0.00025,-8e-05,-0.00012,6,28
22878,-0.0001,-1e-05,-4e-05,-1e-05,-1e-05,-0.00025,-8e-05,-0.00012,6,28
22879,-0.0001,-1e-05,-4e-05,-1e-05,-1e-05,-0.00025,-8e-05,-0.00012,6,28
22880,-0.0001,-1e-05,-4e-05,-1e-05,-1e-05,-0.00025,-8e-05,-0.00012,6,28
22881,-0.0001,-1e-05,-4e-05,-1e-05,-1e-05,-0.00025,-8e-05,-0.00012,6,28
22882,-0.0001,-1e-05,-4e-05,-1e-05,-1e-05,-0.00025,-8e-05,-0.00012,6,28
22883,-0.0001,-1e-05,-4e-05,-1e-05,-1e-05,-0.00025,-8e-05,-0.00012,6,28
22884,-0.0001,-1e-05,-4e-05,-1e-05,-1e-05,-0.00025,-8e-05,-0.00012,6,28
22885,9e-05,0,3e-05,6e-05,1e-05,6e-05,-1e-05,-0.00024,6,28
22886,3e-05,-4e-05,-3e-05,-2e-05,-3e-05,-0.00023,2e-05,0.00025,6,28
22888,3e-05,-4e-05,-3e-05,-2e-05,-3e-05,-0.00023,2e-05,0.00025,6,28
22890,3e-05,-4e-05,-3e-05,-2e-05,-3e-05,-0.00023,2e-05,0.00025,6,28
22891,3e-05,-4e-05,-3e-05,-2e-05,-3e-05,-0.00023,2e-05,0.00025,6,28
22892,3e-05,-4e-05,-3e-05,-2e-05,-3e-05,-0.00023,2e-05,0.00025,6,28
22893,3e-05,-4e-05,-3e-05,-2e-05,-3e-05,-0.00023,2e-05,0.00025,6,28
22894,3e-05,-4e-05,-3e-05,-2e-05,-3e-05,-0.00023,2e-05,0.00025,6,28
22895,3e-05,-4e-05,-3e-05,-2e-05,-3e-05,-0.00023,2e-05,0.00025,6,28
22896,3e-05,-4e-05,-3e-05,-2e-05,-3e-05,-0.00023,2e-05,0.00025,6,28
22897,3e-05,-4e-05,-3e-05,-2e-05,-3e-05,-0.00023,2e-05,0.00025,6,28
22898,3e-05,-4e-05,-3e-05,-2e-05,-3e-05,-0.00023,2e-05,0.00025,6,28
22899,3e-05,-4e-05,-3e-05,-2e-05,-3e-05,-0.00023,2e-05,0.00025,6,28
22900,3e-05,-4e-05,-3e-05,-2e-05,-3e-05,-0.00023,2e-05,0.00025,6,28
22901,3e-05,-4e-05,-3e-05,-2e-05,-3e-05,-0.00023,2e-05,0.00025,6,28
22902,3e-05,-4e-05,-3e-05,-2e-05,-3e-05,-0.00023,2e-05,0.00025,6,28
22903,3e-05,-4e-05,-3e-05,-2e-05,-3e-05,-0.00023,2e-05,0.00025,6,28
22904,3e-05,-4e-05,-3e-05,-2e-05,-3e-05,-0.00023,2e-05,0.00025,6,28
22905,3e-05,-4e-05,-3e-05,-2e-05,-3e-05,-0.00023,2e-05,0.00025,6,28
22906,3e-05,-4e-05,-3e-05,-2e-05,-3e-05,-0.00023,2e-05,0.00025,6,28
22907,0.0003,2e-05,-3e-05,-4e-05,-6e-05,-8e-05,6e-05,-1e-05,6,28
22908,-3e-05,-1e-05,3e-05,-1e-05,5e-05,8e-05,-4e-05,-0.00013,6,28
22909,-0.00019,-4e-05,-1e-05,0,3e-05,0.00017,5e-05,0.0004,6,28
22910,-0.00019,-4e-05,-1e-05,0,3e-05,0.00017,5e-05,0.0004,6,28
22911,-0.00019,-4e-05,-1e-05,0,3e-05,0.00017,5e-05,0.0004,6,28
22912,-0.00019,-4e-05,-1e-05,0,3e-05,0.00017,5e-05,0.0004,6,28
22913,-0.00019,-4e-05,-1e-05,0,3e-05,0.00017,5e-05,0.0004,6,28
22914,-0.00019,-4e-05,-1e-05,0,3e-05,0.00017,5e-05,0.0004,6,28
22915,-0.00019,-4e-05,-1e-05,0,3e-05,0.00017,5e-05,0.0004,6,28
22916,-0.00019,-4e-05,-1e-05,0,3e-05,0.00017,5e-05,0.0004,6,28
22917,-0.00019,-4e-05,-1e-05,0,3e-05,0.00017,5e-05,0.0004,6,28
22918,-0.00019,-4e-05,-1e-05,0,3e-05,0.00017,5e-05,0.0004,6,28
22919,-0.00019,-4e-05,-1e-05,0,3e-05,0.00017,5e-05,0.0004,6,28
22920,-0.00019,-4e-05,-1e-05,0,3e-05,0.00017,5e-05,0.0004,6,28
22921,-0.00019,-4e-05,-1e-05,0,3e-05,0.00017,5e-05,0.0004,6,28
22922,-0.00019,-4e-05,-1e-05,0,3e-05,0.00017,5e-05,0.0004,6,28
22923,-0.00019,-4e-05,-1e-05,0,3e-05,0.00017,5e-05,0.0004,6,28
22924,-0.00019,-4e-05,-1e-05,0,3e-05,0.00017,5e-05,0.0004,6,28
22925,-0.00019,-4e-05,-1e-05,0,3e-05,0.00017,5e-05,0.0004,6,28
22926,-0.00019,-4e-05,-1e-05,0,3e-05,0.00017,5e-05,0.0004,6,28
22927,-0.00019,-4e-05,-1e-05,0,3e-05,0.00017,5e-05,0.0004,6,28
22928,-0.00019,-4e-05,-1e-05,0,3e-05,0.00017,5e-05,0.0004,6,28
22929,-0.00019,-4e-05,-1e-05,0,3e-05,0.00017,5e-05,0.0004,6,28
22930,0.00016,-3e-05,-5e-05,-4e-05,4e-05,0.0006,8e-05,0.0002,6,28
22931,0.00027,4e-05,-2e-05,-2e-05,6e-05,0.00014,9e-05,-7e-05,6,28
22932,0.00027,4e-05,-2e-05,-2e-05,6e-05,0.00014,9e-05,-7e-05,6,28
22933,0.00027,4e-05,-2e-05,-2e-05,6e-05,0.00014,9e-05,-7e-05,6,28
22934,0.00027,4e-05,-2e-05,-2e-05,6e-05,0.00014,9e-05,-7e-05,6,28
22935,0.00027,4e-05,-2e-05,-2e-05,6e-05,0.00014,9e-05,-7e-05,6,28
22937,0.00027,4e-05,-2e-05,-2e-05,6e-05,0.00014,9e-05,-7e-05,6,28
22940,0.00027,4e-05,-2e-05,-2e-05,6e-05,0.00014,9e-05,-7e-05,6,28
22941,0.00027,4e-05,-2e-05,-2e-05,6e-05,0.00014,9e-05,-7e-05,6,28
22942,0.00027,4e-05,-2e-05,-2e-05,6e-05,0.00014,9e-05,-7e-05,6,28
22943,0.00027,4e-05,-2e-05,-2e-05,6e-05,0.00014,9e-05,-7e-05,6,28
22944,0.00027,4e-05,-2e-05,-2e-05,6e-05,0.00014,9e-05,-7e-05,6,28
22945,-7e-05,0,0,-4e-05,-1e-05,0.00014,9e-05,0.0002,6,28
22946,0.00056,2e-05,1e-05,2e-05,3e-05,0.00034,0.00014,0.00019,6,28
22947,0.00056,2e-05,1e-05,2e-05,3e-05,0.00034,0.00014,0.00019,6,28
22948,0.00056,2e-05,1e-05,2e-05,3e-05,0.00034,0.00014,0.00019,6,28
22949,0.00056,2e-05,1e-05,2e-05,3e-05,0.00034,0.00014,0.00019,6,28
22950,0.00056,2e-05,1e-05,2e-05,3e-05,0.00034,0.00014,0.00019,6,28
22951,0.00056,2e-05,1e-05,2e-05,3e-05,0.00034,0.00014,0.00019,6,28
22952,0.00056,2e-05,1e-05,2e-05,3e-05,0.00034,0.00014,0.00019,6,28
22953,0.00056,2e-05,1e-05,2e-05,3e-05,0.00034,0.00014,0.00019,6,28
22954,0.00056,2e-05,1e-05,2e-05,3e-05,0.00034,0.00014,0.00019,6,28
22955,0.00056,2e-05,1e-05,2e-05,3e-05,0.00034,0.00014,0.00019,6,28
22956,0.00056,2e-05,1e-05,2e-05,3e-05,0.00034,0.00014,0.00019,6,28
22957,0.00056,2e-05,1e-05,2e-05,3e-05,0.00034,0.00014,0.00019,6,28
22958,0.00056,2e-05,1e-05,2e-05,3e-05,0.00034,0.00014,0.00019,6,28
22959,0.00056,2e-05,1e-05,2e-05,3e-05,0.00034,0.00014,0.00019,6,28
22960,0.00056,2e-05,1e-05,2e-05,3e-05,0.00034,0.00014,0.00019,6,28
22961,0.00056,2e-05,1e-05,2e-05,3e-05,0.00034,0.00014,0.00019,6,28
22962,0.00056,2e-05,1e-05,2e-05,3e-05,0.00034,0.00014,0.00019,6,28
22963,0.00056,2e-05,1e-05,2e-05,3e-05,0.00034,0.00014,0.00019,6,28
22964,0.00056,2e-05,1e-05,2e-05,3e-05,0.00034,0.00014,0.00019,6,28
22965,0.00056,2e-05,1e-05,2e-05,3e-05,0.00034,0.00014,0.00019,6,28
22966,0.00056,2e-05,1e-05,2e-05,3e-05,0.00034,0.00014,0.00019,6,28
22967,0.00011,-7e-05,-2e-05,0,2e-05,0.00015,1e-05,-0.00012,6,28
22968,-0.0001,-6e-05,-2e-05,0,-4e-05,-0.00028,-0.00016,-5e-05,6,28
22969,-0.0001,-6e-05,-2e-05,0,-4e-05,-0.00028,-0.00016,-5e-05,6,28
22970,-0.0001,-6e-05,-2e-05,0,-4e-05,-0.00028,-0.00016,-5e-05,6,28
22971,-0.0001,-6e-05,-2e-05,0,-4e-05,-0.00028,-0.00016,-5e-05,6,28
22972,-0.0001,-6e-05,-2e-05,0,-4e-05,-0.00028,-0.00016,-5e-05,6,28
22973,-0.0001,-6e-05,-2e-05,0,-4e-05,-0.00028,-0.00016,-5e-05,6,28
22974,-0.0001,-6e-05,-2e-05,0,-4e-05,-0.00028,-0.00016,-5e-05,6,28
22975,-0.0001,-6e-05,-2e-05,0,-4e-05,-0.00028,-0.00016,-5e-05,6,28
22976,-0.0001,-6e-05,-2e-05,0,-4e-05,-0.00028,-0.00016,-5e-05,6,28
22977,-0.0001,-6e-05,-2e-05,0,-4e-05,-0.00028,-0.00016,-5e-05,6,28
22978,-0.0001,-6e-05,-2e-05,0,-4e-05,-0.00028,-0.00016,-5e-05,6,28
22979,-0.0001,-6e-05,-2e-05,0,-4e-05,-0.00028,-0.00016,-5e-05,6,28
22980,-0.0001,-6e-05,-2e-05,0,-4e-05,-0.00028,-0.00016,-5e-05,6,28
22981,-0.0001,-6e-05,-2e-05,0,-4e-05,-0.00028,-0.00016,-5e-05,6,28
22982,-0.0001,-6e-05,-2e-05,0,-4e-05,-0.00028,-0.00016,-5e-05,6,28
22983,-0.0001,-6e-05,-2e-05,0,-4e-05,-0.00028,-0.00016,-5e-05,6,28
22984,-0.0001,-6e-05,-2e-05,0,-4e-05,-0.00028,-0.00016,-5e-05,6,28
22985,-0.0001,-6e-05,-2e-05,0,-4e-05,-0.00028,-0.00016,-5e-05,6,28
22986,-0.0001,-6e-05,-2e-05,0,-4e-05,-0.00028,-0.00016,-5e-05,6,28
22989,-0.0001,-6e-05,-2e-05,0,-4e-05,-0.00028,-0.00016,-5e-05,6,28
22990,0.00028,2e-05,2e-05,1e-05,0,-0.00021,-2e-05,-5e-05,6,28
22991,-0.00019,-2e-05,-2e-05,0,-2e-05,3e-05,0.00013,0.00032,6,28
22992,-0.00019,-2e-05,-2e-05,0,-2e-05,3e-05,0.00013,0.00032,6,28
22993,-0.00019,-2e-05,-2e-05,0,-2e-05,3e-05,0.00013,0.00032,6,28
22994,-0.00019,-2e-05,-2e-05,0,-2e-05,3e-05,0.00013,0.00032,6,28
22995,-0.00019,-2e-05,-2e-05,0,-2e-05,3e-05,0.00013,0.00032,6,28
22996,-0.00019,-2e-05,-2e-05,0,-2e-05,3e-05,0.00013,0.00032,6,28
22997,-0.00019,-2e-05,-2e-05,0,-2e-05,3e-05,0.00013,0.00032,6,28
22998,-0.00019,-2e-05,-2e-05,0,-2e-05,3e-05,0.00013,0.00032,6,28
22999,-0.00019,-2e-05,-2e-05,0,-2e-05,3e-05,0.00013,0.00032,6,28
23000,-0.00019,-2e-05,-2e-05,0,-2e-05,3e-05,0.00013,0.00032,6,28
23001,-0.00019,-2e-05,-2e-05,0,-2e-05,3e-05,0.00013,0.00032,6,28
23002,-0.00019,-2e-05,-2e-05,0,-2e-05,3e-05,0.00013,0.00032,6,28
23003,-0.00019,-2e-05,-2e-05,0,-2e-05,3e-05,0.00013,0.00032,6,28
23004,-0.00019,-2e-05,-2e-05,0,-2e-05,3e-05,0.00013,0.00032,6,28
23005,8e-05,-2e-05,-3e-05,-4e-05,-0.00015,-0.00058,-7e-05,-0.0001,6,28
23006,-0.0001,-2e-05,-1e-05,-3e-05,-1e-05,5e-05,-0.0001,-0.00033,6,28
23007,-0.0001,-2e-05,-1e-05,-3e-05,-1e-05,5e-05,-0.0001,-0.00033,6,28
23008,-0.0001,-2e-05,-1e-05,-3e-05,-1e-05,5e-05,-0.0001,-0.00033,6,28
23009,-0.0001,-2e-05,-1e-05,-3e-05,-1e-05,5e-05,-0.0001,-0.00033,6,28
23010,-0.0001,-2e-05,-1e-05,-3e-05,-1e-05,5e-05,-0.0001,-0.00033,6,28
23011,-0.0001,-2e-05,-1e-05,-3e-05,-1e-05,5e-05,-0.0001,-0.00033,6,28
23012,-0.0001,-2e-05,-1e-05,-3e-05,-1e-05,5e-05,-0.0001,-0.00033,6,28
23013,-0.0001,-2e-05,-1e-05,-3e-05,-1e-05,5e-05,-0.0001,-0.00033,6,28
23014,-0.0001,-2e-05,-1e-05,-3e-05,-1e-05,5e-05,-0.0001,-0.00033,6,28
23015,-0.0001,-2e-05,-1e-05,-3e-05,-1e-05,5e-05,-0.0001,-0.00033,6,28
23016,-0.0001,-2e-05,-1e-05,-3e-05,-1e-05,5e-05,-0.0001,-0.00033,6,28
23017,-0.0001,-2e-05,-1e-05,-3e-05,-1e-05,5e-05,-0.0001,-0.00033,6,28
23018,-0.0001,-2e-05,-1e-05,-3e-05,-1e-05,5e-05,-0.0001,-0.00033,6,28
23019,-0.0001,-2e-05,-1e-05,-3e-05,-1e-05,5e-05,-0.0001,-0.00033,6,28
23020,-0.0001,-2e-05,-1e-05,-3e-05,-1e-05,5e-05,-0.0001,-0.00033,6,28
23021,-0.0001,-2e-05,-1e-05,-3e-05,-1e-05,5e-05,-0.0001,-0.00033,6,28
23022,-0.0001,-2e-05,-1e-05,-3e-05,-1e-05,5e-05,-0.0001,-0.00033,6,28
23023,-0.0001,-2e-05,-1e-05,-3e-05,-1e-05,5e-05,-0.0001,-0.00033,6,28
23024,-0.0001,-2e-05,-1e-05,-3e-05,-1e-05,5e-05,-0.0001,-0.00033,6,28
23025,-0.0001,-2e-05,-1e-05,-3e-05,-1e-05,5e-05,-0.0001,-0.00033,6,28
23026,-0.0001,-2e-05,-1e-05,-3e-05,-1e-05,5e-05,-0.0001,-0.00033,6,28
23027,-0.0005,-0.00011,0,0,0,0,-1e-05,-0.00037,6,28
23028,-6e-05,-5e-05,-1e-05,-1e-05,2e-05,-0.00021,1e-05,-0.00028,6,28
23029,-6e-05,-5e-05,-1e-05,-1e-05,2e-05,-0.00021,1e-05,-0.00028,6,28
23030,-6e-05,-5e-05,-1e-05,-1e-05,2e-05,-0.00021,1e-05,-0.00028,6,28
23031,-6e-05,-5e-05,-1e-05,-1e-05,2e-05,-0.00021,1e-05,-0.00028,6,28
23032,-6e-05,-5e-05,-1e-05,-1e-05,2e-05,-0.00021,1e-05,-0.00028,6,28
23033,-6e-05,-5e-05,-1e-05,-1e-05,2e-05,-0.00021,1e-05,-0.00028,6,28
23034,-6e-05,-5e-05,-1e-05,-1e-05,2e-05,-0.00021,1e-05,-0.00028,6,28
23035,-6e-05,-5e-05,-1e-05,-1e-05,2e-05,-0.00021,1e-05,-0.00028,6,28
23036,-6e-05,-5e-05,-1e-05,-1e-05,2e-05,-0.00021,1e-05,-0.00028,6,28
23039,-6e-05,-5e-05,-1e-05,-1e-05,2e-05,-0.00021,1e-05,-0.00028,6,28
23040,-6e-05,-5e-05,-1e-05,-1e-05,2e-05,-0.00021,1e-05,-0.00028,6,28
23041,-6e-05,-5e-05,-1e-05,-1e-05,2e-05,-0.00021,1e-05,-0.00028,6,28
23042,-6e-05,-5e-05,-1e-05,-1e-05,2e-05,-0.00021,1e-05,-0.00028,6,28
23043,-6e-05,-5e-05,-1e-05,-1e-05,2e-05,-0.00021,1e-05,-0.00028,6,28
23044,-6e-05,-5e-05,-1e-05,-1e-05,2e-05,-0.00021,1e-05,-0.00028,6,28
23045,-6e-05,-5e-05,-1e-05,-1e-05,2e-05,-0.00021,1e-05,-0.00028,6,28
23046,-6e-05,-5e-05,-1e-05,-1e-05,2e-05,-0.00021,1e-05,-0.00028,6,28
23047,-6e-05,-5e-05,-1e-05,-1e-05,2e-05,-0.00021,1e-05,-0.00028,6,28
23048,-6e-05,-5e-05,-1e-05,-1e-05,2e-05,-0.00021,1e-05,-0.00028,6,28
23049,-6e-05,-5e-05,-1e-05,-1e-05,2e-05,-0.00021,1e-05,-0.00028,6,28
23050,0.0001,-1e-05,-1e-05,-3e-05,-3e-05,-0.00025,9e-05,5e-05,6,28
23051,-0.00069,-5e-05,-3e-05,-5e-05,-7e-05,7e-05,4e-05,-0.00019,6,28
23053,-0.00069,-5e-05,-3e-05,-5e-05,-7e-05,7e-05,4e-05,-0.00019,6,28
23054,-0.00069,-5e-05,-3e-05,-5e-05,-7e-05,7e-05,4e-05,-0.00019,6,28
23055,-0.00069,-5e-05,-3e-05,-5e-05,-7e-05,7e-05,4e-05,-0.00019,6,28
23056,-0.00069,-5e-05,-3e-05,-5e-05,-7e-05,7e-05,4e-05,-0.00019,6,28
23057,-0.00069,-5e-05,-3e-05,-5e-05,-7e-05,7e-05,4e-05,-0.00019,6,28
23058,-0.00069,-5e-05,-3e-05,-5e-05,-7e-05,7e-05,4e-05,-0.00019,6,28
23059,-0.00069,-5e-05,-3e-05,-5e-05,-7e-05,7e-05,4e-05,-0.00019,6,28
23060,-0.00069,-5e-05,-3e-05,-5e-05,-7e-05,7e-05,4e-05,-0.00019,6,28
23061,-0.00069,-5e-05,-3e-05,-5e-05,-7e-05,7e-05,4e-05,-0.00019,6,28
23062,-0.00069,-5e-05,-3e-05,-5e-05,-7e-05,7e-05,4e-05,-0.00019,6,28
23063,-0.00069,-5e-05,-3e-05,-5e-05,-7e-05,7e-05,4e-05,-0.00019,6,28
23064,-0.00069,-5e-05,-3e-05,-5e-05,-7e-05,7e-05,4e-05,-0.00019,6,28
23065,-0.00019,-6e-05,-2e-05,0,6e-05,-9e-05,5e-05,-7e-05,6,28
23066,0.00013,0,1e-05,2e-05,2e-05,2e-05,0,0.00033,6,28
23067,0.00013,0,1e-05,2e-05,2e-05,2e-05,0,0.00033,6,28
23068,0.00013,0,1e-05,2e-05,2e-05,2e-05,0,0.00033,6,28
23069,0.00013,0,1e-05,2e-05,2e-05,2e-05,0,0.00033,6,28
23070,0.00013,0,1e-05,2e-05,2e-05,2e-05,0,0.00033,6,28
23072,0.00013,0,1e-05,2e-05,2e-05,2e-05,0,0.00033,6,28
23073,0.00013,0,1e-05,2e-05,2e-05,2e-05,0,0.00033,6,28
23074,0.00013,0,1e-05,2e-05,2e-05,2e-05,0,0.00033,6,28
23075,0.00013,0,1e-05,2e-05,2e-05,2e-05,0,0.00033,6,28
23076,0.00013,0,1e-05,2e-05,2e-05,2e-05,0,0.00033,6,28
23077,0.00013,0,1e-05,2e-05,2e-05,2e-05,0,0.00033,6,28
23078,0.00013,0,1e-05,2e-05,2e-05,2e-05,0,0.00033,6,28
23079,0.00013,0,1e-05,2e-05,2e-05,2e-05,0,0.00033,6,28
23080,0.00013,0,1e-05,2e-05,2e-05,2e-05,0,0.00033,6,28
23081,0.00013,0,1e-05,2e-05,2e-05,2e-05,0,0.00033,6,28
23082,0.00013,0,1e-05,2e-05,2e-05,2e-05,0,0.00033,6,28
23083,0.00013,0,1e-05,2e-05,2e-05,2e-05,0,0.00033,6,28
23084,0.00013,0,1e-05,2e-05,2e-05,2e-05,0,0.00033,6,28
23085,0.00013,0,1e-05,2e-05,2e-05,2e-05,0,0.00033,6,28
23086,0.00013,0,1e-05,2e-05,2e-05,2e-05,0,0.00033,6,28
23090,0.00013,0,-2e-05,-2e-05,0,5e-05,-6e-05,0.00024,6,28
23091,0.00013,0,-2e-05,-2e-05,0,5e-05,-6e-05,0.00024,6,28
23092,0.00013,0,-2e-05,-2e-05,0,5e-05,-6e-05,0.00024,6,28
23093,0.00013,0,-2e-05,-2e-05,0,5e-05,-6e-05,0.00024,6,28
23094,0.00013,0,-2e-05,-2e-05,0,5e-05,-6e-05,0.00024,6,28
23096,0.00013,0,-2e-05,-2e-05,0,5e-05,-6e-05,0.00024,6,28
23097,0.00013,0,-2e-05,-2e-05,0,5e-05,-6e-05,0.00024,6,28
23098,0.00013,0,-2e-05,-2e-05,0,5e-05,-6e-05,0.00024,6,28
23099,0.00013,0,-2e-05,-2e-05,0,5e-05,-6e-05,0.00024,6,28
23100,0.00013,0,-2e-05,-2e-05,0,5e-05,-6e-05,0.00024,6,28
23102,0.00013,0,-2e-05,-2e-05,0,5e-05,-6e-05,0.00024,6,28
23103,0.00013,0,-2e-05,-2e-05,0,5e-05,-6e-05,0.00024,6,28
23104,0.00013,0,-2e-05,-2e-05,0,5e-05,-6e-05,0.00024,6,28
23105,0.00013,0,-2e-05,-2e-05,0,5e-05,-6e-05,0.00024,6,28
23106,0.00013,0,-2e-05,-2e-05,0,5e-05,-6e-05,0.00024,6,28
23107,0.00013,0,-2e-05,-2e-05,0,5e-05,-6e-05,0.00024,6,28
23108,0.00013,0,-2e-05,-2e-05,0,5e-05,-6e-05,0.00024,6,28
23109,0.00013,0,-2e-05,-2e-05,0,5e-05,-6e-05,0.00024,6,28
23110,-5e-05,0,-1e-05,-2e-05,0,0.00015,8e-05,8e-05,6,28
23111,-2e-05,-3e-05,-2e-05,-4e-05,-5e-05,5e-05,6e-05,-0.00032,6,28
23112,-2e-05,-3e-05,-2e-05,-4e-05,-5e-05,5e-05,6e-05,-0.00032,6,28
23113,-2e-05,-3e-05,-2e-05,-4e-05,-5e-05,5e-05,6e-05,-0.00032,6,28
23114,-2e-05,-3e-05,-2e-05,-4e-05,-5e-05,5e-05,6e-05,-0.00032,6,28
23115,-2e-05,-3e-05,-2e-05,-4e-05,-5e-05,5e-05,6e-05,-0.00032,6,28
23116,-2e-05,-3e-05,-2e-05,-4e-05,-5e-05,5e-05,6e-05,-0.00032,6,28
23117,-2e-05,-3e-05,-2e-05,-4e-05,-5e-05,5e-05,6e-05,-0.00032,6,28
23118,-2e-05,-3e-05,-2e-05,-4e-05,-5e-05,5e-05,6e-05,-0.00032,6,28
23119,-2e-05,-3e-05,-2e-05,-4e-05,-5e-05,5e-05,6e-05,-0.00032,6,28
23120,-2e-05,-3e-05,-2e-05,-4e-05,-5e-05,5e-05,6e-05,-0.00032,6,28
23121,-2e-05,-3e-05,-2e-05,-4e-05,-5e-05,5e-05,6e-05,-0.00032,6,28
23122,-2e-05,-3e-05,-2e-05,-4e-05,-5e-05,5e-05,6e-05,-0.00032,6,28
23123,-2e-05,-3e-05,-2e-05,-4e-05,-5e-05,5e-05,6e-05,-0.00032,6,28
23124,-2e-05,-3e-05,-2e-05,-4e-05,-5e-05,5e-05,6e-05,-0.00032,6,28
23125,0.00018,0,-1e-05,2e-05,3e-05,0.00019,0.0002,0.00052,6,28
23126,-0.00015,2e-05,-3e-05,-2e-05,-5e-05,-5e-05,-0.00014,8e-05,6,28
23127,-0.00015,2e-05,-3e-05,-2e-05,-5e-05,-5e-05,-0.00014,8e-05,6,28
23128,-0.00015,2e-05,-3e-05,-2e-05,-5e-05,-5e-05,-0.00014,8e-05,6,28
23129,-0.00015,2e-05,-3e-05,-2e-05,-5e-05,-5e-05,-0.00014,8e-05,6,28
23130,-0.00015,2e-05,-3e-05,-2e-05,-5e-05,-5e-05,-0.00014,8e-05,6,28
23131,-0.00015,2e-05,-3e-05,-2e-05,-5e-05,-5e-05,-0.00014,8e-05,6,28
23132,-0.00015,2e-05,-3e-05,-2e-05,-5e-05,-5e-05,-0.00014,8e-05,6,28
23133,-0.00015,2e-05,-3e-05,-2e-05,-5e-05,-5e-05,-0.00014,8e-05,6,28
23134,-0.00015,2e-05,-3e-05,-2e-05,-5e-05,-5e-05,-0.00014,8e-05,6,28
23135,-0.00015,2e-05,-3e-05,-2e-05,-5e-05,-5e-05,-0.00014,8e-05,6,28
23136,-0.00015,2e-05,-3e-05,-2e-05,-5e-05,-5e-05,-0.00014,8e-05,6,28
23138,-0.00015,2e-05,-3e-05,-2e-05,-5e-05,-5e-05,-0.00014,8e-05,6,28
23140,-0.00015,2e-05,-3e-05,-2e-05,-5e-05,-5e-05,-0.00014,8e-05,6,28
23141,-0.00015,2e-05,-3e-05,-2e-05,-5e-05,-5e-05,-0.00014,8e-05,6,28
23142,-0.00015,2e-05,-3e-05,-2e-05,-5e-05,-5e-05,-0.00014,8e-05,6,28
23143,-0.00015,2e-05,-3e-05,-2e-05,-5e-05,-5e-05,-0.00014,8e-05,6,28
23144,-0.00015,2e-05,-3e-05,-2e-05,-5e-05,-5e-05,-0.00014,8e-05,6,28
23145,-0.00015,2e-05,-3e-05,-2e-05,-5e-05,-5e-05,-0.00014,8e-05,6,28
23146,-0.00015,2e-05,-3e-05,-2e-05,-5e-05,-5e-05,-0.00014,8e-05,6,28
23147,-0.00015,2e-05,-3e-05,-2e-05,-5e-05,-5e-05,-0.00014,8e-05,6,28
23148,-0.00011,-4e-05,2e-05,3e-05,2e-05,-0.00013,-2e-05,9e-05,6,28
23149,-0.00011,-4e-05,2e-05,3e-05,2e-05,-0.00013,-2e-05,9e-05,6,28
23150,-0.00011,-4e-05,2e-05,3e-05,2e-05,-0.00013,-2e-05,9e-05,6,28
23151,-0.00011,-4e-05,2e-05,3e-05,2e-05,-0.00013,-2e-05,9e-05,6,28
23152,-0.00011,-4e-05,2e-05,3e-05,2e-05,-0.00013,-2e-05,9e-05,6,28
23153,-0.00011,-4e-05,2e-05,3e-05,2e-05,-0.00013,-2e-05,9e-05,6,28
23154,-0.00011,-4e-05,2e-05,3e-05,2e-05,-0.00013,-2e-05,9e-05,6,28
23155,-0.00011,-4e-05,2e-05,3e-05,2e-05,-0.00013,-2e-05,9e-05,6,28
23156,-0.00011,-4e-05,2e-05,3e-05,2e-05,-0.00013,-2e-05,9e-05,6,28
23157,-0.00011,-4e-05,2e-05,3e-05,2e-05,-0.00013,-2e-05,9e-05,6,28
23158,-0.00011,-4e-05,2e-05,3e-05,2e-05,-0.00013,-2e-05,9e-05,6,28
23159,-0.00011,-4e-05,2e-05,3e-05,2e-05,-0.00013,-2e-05,9e-05,6,28
23160,-0.00011,-4e-05,2e-05,3e-05,2e-05,-0.00013,-2e-05,9e-05,6,28
23161,-0.00011,-4e-05,2e-05,3e-05,2e-05,-0.00013,-2e-05,9e-05,6,28
23162,-0.00011,-4e-05,2e-05,3e-05,2e-05,-0.00013,-2e-05,9e-05,6,28
23163,-0.00011,-4e-05,2e-05,3e-05,2e-05,-0.00013,-2e-05,9e-05,6,28
23164,-0.00011,-4e-05,2e-05,3e-05,2e-05,-0.00013,-2e-05,9e-05,6,28
23165,-0.00011,-4e-05,2e-05,3e-05,2e-05,-0.00013,-2e-05,9e-05,6,28
23166,-0.00011,-4e-05,2e-05,3e-05,2e-05,-0.00013,-2e-05,9e-05,6,28
23167,-0.00011,-4e-05,2e-05,3e-05,2e-05,-0.00013,-2e-05,9e-05,6,28
23168,-0.00011,-4e-05,2e-05,3e-05,2e-05,-0.00013,-2e-05,9e-05,6,28
23169,-0.00011,-4e-05,2e-05,3e-05,2e-05,-0.00013,-2e-05,9e-05,6,28
23170,0.0001,-1e-05,-1e-05,-1e-05,3e-05,0,3e-05,0.00018,6,28
23171,9e-05,4e-05,3e-05,4e-05,6e-05,0.00021,-0.0001,-0.00049,6,28
23173,9e-05,4e-05,3e-05,4e-05,6e-05,0.00021,-0.0001,-0.00049,6,28
23174,9e-05,4e-05,3e-05,4e-05,6e-05,0.00021,-0.0001,-0.00049,6,28
23175,9e-05,4e-05,3e-05,4e-05,6e-05,0.00021,-0.0001,-0.00049,6,28
23176,9e-05,4e-05,3e-05,4e-05,6e-05,0.00021,-0.0001,-0.00049,6,28
23177,9e-05,4e-05,3e-05,4e-05,6e-05,0.00021,-0.0001,-0.00049,6,28
23178,9e-05,4e-05,3e-05,4e-05,6e-05,0.00021,-0.0001,-0.00049,6,28
23179,9e-05,4e-05,3e-05,4e-05,6e-05,0.00021,-0.0001,-0.00049,6,28
23180,9e-05,4e-05,3e-05,4e-05,6e-05,0.00021,-0.0001,-0.00049,6,28
23181,9e-05,4e-05,3e-05,4e-05,6e-05,0.00021,-0.0001,-0.00049,6,28
23182,9e-05,4e-05,3e-05,4e-05,6e-05,0.00021,-0.0001,-0.00049,6,28
23183,9e-05,4e-05,3e-05,4e-05,6e-05,0.00021,-0.0001,-0.00049,6,28
23184,9e-05,4e-05,3e-05,4e-05,6e-05,0.00021,-0.0001,-0.00049,6,28
23185,-5e-05,-3e-05,-1e-05,0,-1e-05,0.00012,-0.00012,-0.00015,6,28
23186,5e-05,-1e-05,2e-05,-1e-05,-3e-05,2e-05,1e-05,7e-05,6,28
23189,5e-05,-1e-05,2e-05,-1e-05,-3e-05,2e-05,1e-05,7e-05,6,28
23190,5e-05,-1e-05,2e-05,-1e-05,-3e-05,2e-05,1e-05,7e-05,6,28
23191,5e-05,-1e-05,2e-05,-1e-05,-3e-05,2e-05,1e-05,7e-05,6,28
23192,5e-05,-1e-05,2e-05,-1e-05,-3e-05,2e-05,1e-05,7e-05,6,28
23193,5e-05,-1e-05,2e-05,-1e-05,-3e-05,2e-05,1e-05,7e-05,6,28
23194,5e-05,-1e-05,2e-05,-1e-05,-3e-05,2e-05,1e-05,7e-05,6,28
23195,5e-05,-1e-05,2e-05,-1e-05,-3e-05,2e-05,1e-05,7e-05,6,28
23196,5e-05,-1e-05,2e-05,-1e-05,-3e-05,2e-05,1e-05,7e-05,6,28
23197,5e-05,-1e-05,2e-05,-1e-05,-3e-05,2e-05,1e-05,7e-05,6,28
23198,5e-05,-1e-05,2e-05,-1e-05,-3e-05,2e-05,1e-05,7e-05,6,28
23199,5e-05,-1e-05,2e-05,-1e-05,-3e-05,2e-05,1e-05,7e-05,6,28
23200,5e-05,-1e-05,2e-05,-1e-05,-3e-05,2e-05,1e-05,7e-05,6,28
23201,5e-05,-1e-05,2e-05,-1e-05,-3e-05,2e-05,1e-05,7e-05,6,28
23202,5e-05,-1e-05,2e-05,-1e-05,-3e-05,2e-05,1e-05,7e-05,6,28
23203,5e-05,-1e-05,2e-05,-1e-05,-3e-05,2e-05,1e-05,7e-05,6,28
23204,5e-05,-1e-05,2e-05,-1e-05,-3e-05,2e-05,1e-05,7e-05,6,28
23205,5e-05,-1e-05,2e-05,-1e-05,-3e-05,2e-05,1e-05,7e-05,6,28
23206,5e-05,-1e-05,2e-05,-1e-05,-3e-05,2e-05,1e-05,7e-05,6,28
23207,-2e-05,-2e-05,-1e-05,1e-05,6e-05,0.00026,0.00012,0.00031,6,28
23208,-3e-05,2e-05,1e-05,1e-05,-1e-05,3e-05,1e-05,0.00071,6,28
23209,-3e-05,2e-05,1e-05,1e-05,-1e-05,3e-05,1e-05,0.00071,6,28
23210,-3e-05,2e-05,1e-05,1e-05,-1e-05,3e-05,1e-05,0.00071,6,28
23211,-3e-05,2e-05,1e-05,1e-05,-1e-05,3e-05,1e-05,0.00071,6,28
23212,-3e-05,2e-05,1e-05,1e-05,-1e-05,3e-05,1e-05,0.00071,6,28
23213,-3e-05,2e-05,1e-05,1e-05,-1e-05,3e-05,1e-05,0.00071,6,28
23214,-3e-05,2e-05,1e-05,1e-05,-1e-05,3e-05,1e-05,0.00071,6,28
23215,-3e-05,2e-05,1e-05,1e-05,-1e-05,3e-05,1e-05,0.00071,6,28
23216,-3e-05,2e-05,1e-05,1e-05,-1e-05,3e-05,1e-05,0.00071,6,28
23217,-3e-05,2e-05,1e-05,1e-05,-1e-05,3e-05,1e-05,0.00071,6,28
23218,-3e-05,2e-05,1e-05,1e-05,-1e-05,3e-05,1e-05,0.00071,6,28
23219,-3e-05,2e-05,1e-05,1e-05,-1e-05,3e-05,1e-05,0.00071,6,28
23220,-3e-05,2e-05,1e-05,1e-05,-1e-05,3e-05,1e-05,0.00071,6,28
23221,-3e-05,2e-05,1e-05,1e-05,-1e-05,3e-05,1e-05,0.00071,6,28
23222,-3e-05,2e-05,1e-05,1e-05,-1e-05,3e-05,1e-05,0.00071,6,28
23223,-3e-05,2e-05,1e-05,1e-05,-1e-05,3e-05,1e-05,0.00071,6,28
23224,-3e-05,2e-05,1e-05,1e-05,-1e-05,3e-05,1e-05,0.00071,6,28
23225,-3e-05,2e-05,1e-05,1e-05,-1e-05,3e-05,1e-05,0.00071,6,28
23226,-3e-05,2e-05,1e-05,1e-05,-1e-05,3e-05,1e-05,0.00071,6,28
23227,-3e-05,2e-05,1e-05,1e-05,-1e-05,3e-05,1e-05,0.00071,6,28
23228,-3e-05,2e-05,1e-05,1e-05,-1e-05,3e-05,1e-05,0.00071,6,28
23229,-3e-05,2e-05,1e-05,1e-05,-1e-05,3e-05,1e-05,0.00071,6,28
23230,-3e-05,2e-05,1e-05,1e-05,-1e-05,3e-05,1e-05,0.00071,6,28
23231,-4e-05,-3e-05,-1e-05,0,-3e-05,-3e-05,9e-05,0.00014,6,28
23232,-9e-05,-4e-05,-2e-05,-4e-05,0,-2e-05,-1e-05,0.00017,6,28
23233,-9e-05,-4e-05,-2e-05,-4e-05,0,-2e-05,-1e-05,0.00017,6,28
23234,-9e-05,-4e-05,-2e-05,-4e-05,0,-2e-05,-1e-05,0.00017,6,28
23235,-9e-05,-4e-05,-2e-05,-4e-05,0,-2e-05,-1e-05,0.00017,6,28
23236,-9e-05,-4e-05,-2e-05,-4e-05,0,-2e-05,-1e-05,0.00017,6,28
23238,-9e-05,-4e-05,-2e-05,-4e-05,0,-2e-05,-1e-05,0.00017,6,28
23240,-9e-05,-4e-05,-2e-05,-4e-05,0,-2e-05,-1e-05,0.00017,6,28
23241,-9e-05,-4e-05,-2e-05,-4e-05,0,-2e-05,-1e-05,0.00017,6,28
23242,-9e-05,-4e-05,-2e-05,-4e-05,0,-2e-05,-1e-05,0.00017,6,28
23243,-9e-05,-4e-05,-2e-05,-4e-05,0,-2e-05,-1e-05,0.00017,6,28
23244,-9e-05,-4e-05,-2e-05,-4e-05,0,-2e-05,-1e-05,0.00017,6,28
23245,1e-05,-1e-05,0,-1e-05,0,7e-05,5e-05,4e-05,6,28
23246,0.00013,2e-05,0,2e-05,3e-05,0.00015,0.0001,-4e-05,6,28
23247,0.00013,2e-05,0,2e-05,3e-05,0.00015,0.0001,-4e-05,6,28
23248,0.00013,2e-05,0,2e-05,3e-05,0.00015,0.0001,-4e-05,6,28
23249,0.00013,2e-05,0,2e-05,3e-05,0.00015,0.0001,-4e-05,6,28
23250,0.00013,2e-05,0,2e-05,3e-05,0.00015,0.0001,-4e-05,6,28
23251,0.00013,2e-05,0,2e-05,3e-05,0.00015,0.0001,-4e-05,6,28
23252,0.00013,2e-05,0,2e-05,3e-05,0.00015,0.0001,-4e-05,6,28
23253,0.00013,2e-05,0,2e-05,3e-05,0.00015,0.0001,-4e-05,6,28
23254,0.00013,2e-05,0,2e-05,3e-05,0.00015,0.0001,-4e-05,6,28
23255,0.00013,2e-05,0,2e-05,3e-05,0.00015,0.0001,-4e-05,6,28
23256,0.00013,2e-05,0,2e-05,3e-05,0.00015,0.0001,-4e-05,6,28
23257,0.00013,2e-05,0,2e-05,3e-05,0.00015,0.0001,-4e-05,6,28
23258,0.00013,2e-05,0,2e-05,3e-05,0.00015,0.0001,-4e-05,6,28
23259,0.00013,2e-05,0,2e-05,3e-05,0.00015,0.0001,-4e-05,6,28
23260,0.00013,2e-05,0,2e-05,3e-05,0.00015,0.0001,-4e-05,6,28
23261,0.00013,2e-05,0,2e-05,3e-05,0.00015,0.0001,-4e-05,6,28
23262,0.00013,2e-05,0,2e-05,3e-05,0.00015,0.0001,-4e-05,6,28
23263,0.00013,2e-05,0,2e-05,3e-05,0.00015,0.0001,-4e-05,6,28
23264,0.00013,2e-05,0,2e-05,3e-05,0.00015,0.0001,-4e-05,6,28
23265,0.00013,2e-05,0,2e-05,3e-05,0.00015,0.0001,-4e-05,6,28
23266,0.00013,2e-05,0,2e-05,3e-05,0.00015,0.0001,-4e-05,6,28
23267,-7e-05,-4e-05,-2e-05,0,1e-05,0.00011,-0.00018,1e-05,6,28
23268,4e-05,-3e-05,-2e-05,2e-05,1e-05,4e-05,-1e-05,-0.00015,6,28
23269,4e-05,-3e-05,-2e-05,2e-05,1e-05,4e-05,-1e-05,-0.00015,6,28
23270,4e-05,-3e-05,-2e-05,2e-05,1e-05,4e-05,-1e-05,-0.00015,6,28
23272,4e-05,-3e-05,-2e-05,2e-05,1e-05,4e-05,-1e-05,-0.00015,6,28
23273,4e-05,-3e-05,-2e-05,2e-05,1e-05,4e-05,-1e-05,-0.00015,6,28
23274,4e-05,-3e-05,-2e-05,2e-05,1e-05,4e-05,-1e-05,-0.00015,6,28
23275,4e-05,-3e-05,-2e-05,2e-05,1e-05,4e-05,-1e-05,-0.00015,6,28
23276,4e-05,-3e-05,-2e-05,2e-05,1e-05,4e-05,-1e-05,-0.00015,6,28
23277,4e-05,-3e-05,-2e-05,2e-05,1e-05,4e-05,-1e-05,-0.00015,6,28
23278,4e-05,-3e-05,-2e-05,2e-05,1e-05,4e-05,-1e-05,-0.00015,6,28
23279,4e-05,-3e-05,-2e-05,2e-05,1e-05,4e-05,-1e-05,-0.00015,6,28
23280,4e-05,-3e-05,-2e-05,2e-05,1e-05,4e-05,-1e-05,-0.00015,6,28
23281,4e-05,-3e-05,-2e-05,2e-05,1e-05,4e-05,-1e-05,-0.00015,6,28
23282,4e-05,-3e-05,-2e-05,2e-05,1e-05,4e-05,-1e-05,-0.00015,6,28
23283,4e-05,-3e-05,-2e-05,2e-05,1e-05,4e-05,-1e-05,-0.00015,6,28
23284,4e-05,-3e-05,-2e-05,2e-05,1e-05,4e-05,-1e-05,-0.00015,6,28
23285,4e-05,-3e-05,-2e-05,2e-05,1e-05,4e-05,-1e-05,-0.00015,6,28
23286,4e-05,-3e-05,-2e-05,2e-05,1e-05,4e-05,-1e-05,-0.00015,6,28
23289,4e-05,-3e-05,-2e-05,2e-05,1e-05,4e-05,-1e-05,-0.00015,6,28
23290,4e-05,-3e-05,-2e-05,2e-05,1e-05,4e-05,-1e-05,-0.00015,6,28
23291,8e-05,5e-05,-2e-05,0,8e-05,7e-05,-0.0001,-0.00029,6,28
23292,8e-05,5e-05,-2e-05,0,8e-05,7e-05,-0.0001,-0.00029,6,28
23293,8e-05,5e-05,-2e-05,0,8e-05,7e-05,-0.0001,-0.00029,6,28
23294,8e-05,5e-05,-2e-05,0,8e-05,7e-05,-0.0001,-0.00029,6,28
23295,8e-05,5e-05,-2e-05,0,8e-05,7e-05,-0.0001,-0.00029,6,28
23296,8e-05,5e-05,-2e-05,0,8e-05,7e-05,-0.0001,-0.00029,6,28
23297,8e-05,5e-05,-2e-05,0,8e-05,7e-05,-0.0001,-0.00029,6,28
23298,8e-05,5e-05,-2e-05,0,8e-05,7e-05,-0.0001,-0.00029,6,28
23299,8e-05,5e-05,-2e-05,0,8e-05,7e-05,-0.0001,-0.00029,6,28
23300,8e-05,5e-05,-2e-05,0,8e-05,7e-05,-0.0001,-0.00029,6,28
23301,8e-05,5e-05,-2e-05,0,8e-05,7e-05,-0.0001,-0.00029,6,28
23302,8e-05,5e-05,-2e-05,0,8e-05,7e-05,-0.0001,-0.00029,6,28
23303,8e-05,5e-05,-2e-05,0,8e-05,7e-05,-0.0001,-0.00029,6,28
23304,8e-05,5e-05,-2e-05,0,8e-05,7e-05,-0.0001,-0.00029,6,28
23305,8e-05,5e-05,-2e-05,0,8e-05,7e-05,-0.0001,-0.00029,6,28
23306,0.00012,4e-05,3e-05,3e-05,1e-05,-0.00015,3e-05,-6e-05,6,28
23307,0,-5e-05,-3e-05,-6e-05,-9e-05,1e-05,0.00016,0.00027,6,28
23308,0,-5e-05,-3e-05,-6e-05,-9e-05,1e-05,0.00016,0.00027,6,28
23309,0,-5e-05,-3e-05,-6e-05,-9e-05,1e-05,0.00016,0.00027,6,28
23310,0,-5e-05,-3e-05,-6e-05,-9e-05,1e-05,0.00016,0.00027,6,28
23311,0,-5e-05,-3e-05,-6e-05,-9e-05,1e-05,0.00016,0.00027,6,28
23312,0,-5e-05,-3e-05,-6e-05,-9e-05,1e-05,0.00016,0.00027,6,28
23313,0,-5e-05,-3e-05,-6e-05,-9e-05,1e-05,0.00016,0.00027,6,28
23314,0,-5e-05,-3e-05,-6e-05,-9e-05,1e-05,0.00016,0.00027,6,28
23315,0,-5e-05,-3e-05,-6e-05,-9e-05,1e-05,0.00016,0.00027,6,28
23316,0,-5e-05,-3e-05,-6e-05,-9e-05,1e-05,0.00016,0.00027,6,28
23317,0,-5e-05,-3e-05,-6e-05,-9e-05,1e-05,0.00016,0.00027,6,28
23318,0,-5e-05,-3e-05,-6e-05,-9e-05,1e-05,0.00016,0.00027,6,28
23319,0,-5e-05,-3e-05,-6e-05,-9e-05,1e-05,0.00016,0.00027,6,28
23320,0,-5e-05,-3e-05,-6e-05,-9e-05,1e-05,0.00016,0.00027,6,28
23321,0,-5e-05,-3e-05,-6e-05,-9e-05,1e-05,0.00016,0.00027,6,28
23322,0,-5e-05,-3e-05,-6e-05,-9e-05,1e-05,0.00016,0.00027,6,28
23323,0,-5e-05,-3e-05,-6e-05,-9e-05,1e-05,0.00016,0.00027,6,28
23324,0,-5e-05,-3e-05,-6e-05,-9e-05,1e-05,0.00016,0.00027,6,28
23325,0,-5e-05,-3e-05,-6e-05,-9e-05,1e-05,0.00016,0.00027,6,28
23326,0,-5e-05,-3e-05,-6e-05,-9e-05,1e-05,0.00016,0.00027,6,28
23327,-8e-05,1e-05,1e-05,1e-05,-8e-05,-0.00044,-5e-05,-7e-05,6,28
23328,-8e-05,2e-05,-1e-05,-4e-05,-0.00011,-0.00017,6e-05,-0.00019,6,28
23329,-8e-05,2e-05,-1e-05,-4e-05,-0.00011,-0.00017,6e-05,-0.00019,6,28
23330,-8e-05,2e-05,-1e-05,-4e-05,-0.00011,-0.00017,6e-05,-0.00019,6,28
23331,-8e-05,2e-05,-1e-05,-4e-05,-0.00011,-0.00017,6e-05,-0.00019,6,28
23332,-8e-05,2e-05,-1e-05,-4e-05,-0.00011,-0.00017,6e-05,-0.00019,6,28
23333,-8e-05,2e-05,-1e-05,-4e-05,-0.00011,-0.00017,6e-05,-0.00019,6,28
23334,-8e-05,2e-05,-1e-05,-4e-05,-0.00011,-0.00017,6e-05,-0.00019,6,28
23335,-8e-05,2e-05,-1e-05,-4e-05,-0.00011,-0.00017,6e-05,-0.00019,6,28
23336,-8e-05,2e-05,-1e-05,-4e-05,-0.00011,-0.00017,6e-05,-0.00019,6,28
23339,-8e-05,2e-05,-1e-05,-4e-05,-0.00011,-0.00017,6e-05,-0.00019,6,28
23340,-8e-05,2e-05,-1e-05,-4e-05,-0.00011,-0.00017,6e-05,-0.00019,6,28
23341,-8e-05,2e-05,-1e-05,-4e-05,-0.00011,-0.00017,6e-05,-0.00019,6,28
23342,-8e-05,2e-05,-1e-05,-4e-05,-0.00011,-0.00017,6e-05,-0.00019,6,28
23343,-8e-05,2e-05,-1e-05,-4e-05,-0.00011,-0.00017,6e-05,-0.00019,6,28
23344,-8e-05,2e-05,-1e-05,-4e-05,-0.00011,-0.00017,6e-05,-0.00019,6,28
23345,-8e-05,2e-05,-1e-05,-4e-05,-0.00011,-0.00017,6e-05,-0.00019,6,28
23346,-8e-05,2e-05,-1e-05,-4e-05,-0.00011,-0.00017,6e-05,-0.00019,6,28
23347,-8e-05,2e-05,-1e-05,-4e-05,-0.00011,-0.00017,6e-05,-0.00019,6,28
23348,-8e-05,2e-05,-1e-05,-4e-05,-0.00011,-0.00017,6e-05,-0.00019,6,28
23349,-8e-05,2e-05,-1e-05,-4e-05,-0.00011,-0.00017,6e-05,-0.00019,6,28
23350,-8e-05,2e-05,-1e-05,-4e-05,-0.00011,-0.00017,6e-05,-0.00019,6,28
23351,0.00013,-1e-05,-5e-05,-2e-05,-4e-05,-1e-05,-0.0001,-4e-05,6,28
23352,0.00013,-1e-05,-5e-05,-2e-05,-4e-05,-1e-05,-0.0001,-4e-05,6,28
23353,0.00013,-1e-05,-5e-05,-2e-05,-4e-05,-1e-05,-0.0001,-4e-05,6,28
23354,0.00013,-1e-05,-5e-05,-2e-05,-4e-05,-1e-05,-0.0001,-4e-05,6,28
23355,0.00013,-1e-05,-5e-05,-2e-05,-4e-05,-1e-05,-0.0001,-4e-05,6,28
23356,0.00013,-1e-05,-5e-05,-2e-05,-4e-05,-1e-05,-0.0001,-4e-05,6,28
23357,0.00013,-1e-05,-5e-05,-2e-05,-4e-05,-1e-05,-0.0001,-4e-05,6,28
23358,0.00013,-1e-05,-5e-05,-2e-05,-4e-05,-1e-05,-0.0001,-4e-05,6,28
23359,0.00013,-1e-05,-5e-05,-2e-05,-4e-05,-1e-05,-0.0001,-4e-05,6,28
23360,0.00013,-1e-05,-5e-05,-2e-05,-4e-05,-1e-05,-0.0001,-4e-05,6,28
23361,0.00013,-1e-05,-5e-05,-2e-05,-4e-05,-1e-05,-0.0001,-4e-05,6,28
23362,0.00013,-1e-05,-5e-05,-2e-05,-4e-05,-1e-05,-0.0001,-4e-05,6,28
23363,0.00013,-1e-05,-5e-05,-2e-05,-4e-05,-1e-05,-0.0001,-4e-05,6,28
23364,0.00013,-1e-05,-5e-05,-2e-05,-4e-05,-1e-05,-0.0001,-4e-05,6,28
23365,0.00021,-4e-05,-4e-05,0,4e-05,0.00015,-5e-05,-3e-05,6,28
23366,-0.00013,0,1e-05,-1e-05,-1e-05,-8e-05,-4e-05,-9e-05,6,28
23367,-0.00013,0,1e-05,-1e-05,-1e-05,-8e-05,-4e-05,-9e-05,6,28
23368,-0.00013,0,1e-05,-1e-05,-1e-05,-8e-05,-4e-05,-9e-05,6,28
23369,-0.00013,0,1e-05,-1e-05,-1e-05,-8e-05,-4e-05,-9e-05,6,28
23370,-0.00013,0,1e-05,-1e-05,-1e-05,-8e-05,-4e-05,-9e-05,6,28
23371,-0.00013,0,1e-05,-1e-05,-1e-05,-8e-05,-4e-05,-9e-05,6,28
23372,-0.00013,0,1e-05,-1e-05,-1e-05,-8e-05,-4e-05,-9e-05,6,28
23373,-0.00013,0,1e-05,-1e-05,-1e-05,-8e-05,-4e-05,-9e-05,6,28
23374,-0.00013,0,1e-05,-1e-05,-1e-05,-8e-05,-4e-05,-9e-05,6,28
23375,-0.00013,0,1e-05,-1e-05,-1e-05,-8e-05,-4e-05,-9e-05,6,28
23376,-0.00013,0,1e-05,-1e-05,-1e-05,-8e-05,-4e-05,-9e-05,6,28
23377,-0.00013,0,1e-05,-1e-05,-1e-05,-8e-05,-4e-05,-9e-05,6,28
23378,-0.00013,0,1e-05,-1e-05,-1e-05,-8e-05,-4e-05,-9e-05,6,28
23379,-0.00013,0,1e-05,-1e-05,-1e-05,-8e-05,-4e-05,-9e-05,6,28
23380,-0.00013,0,1e-05,-1e-05,-1e-05,-8e-05,-4e-05,-9e-05,6,28
23381,-0.00013,0,1e-05,-1e-05,-1e-05,-8e-05,-4e-05,-9e-05,6,28
23382,-0.00013,0,1e-05,-1e-05,-1e-05,-8e-05,-4e-05,-9e-05,6,28
23383,-0.00013,0,1e-05,-1e-05,-1e-05,-8e-05,-4e-05,-9e-05,6,28
23384,-0.00013,0,1e-05,-1e-05,-1e-05,-8e-05,-4e-05,-9e-05,6,28
23385,-0.00013,0,1e-05,-1e-05,-1e-05,-8e-05,-4e-05,-9e-05,6,28
23386,-0.00013,0,1e-05,-1e-05,-1e-05,-8e-05,-4e-05,-9e-05,6,28
23390,6e-05,3e-05,1e-05,1e-05,6e-05,5e-05,1e-05,-0.00017,6,28
23391,6e-05,3e-05,1e-05,1e-05,6e-05,5e-05,1e-05,-0.00017,6,28
23392,6e-05,3e-05,1e-05,1e-05,6e-05,5e-05,1e-05,-0.00017,6,28
23393,6e-05,3e-05,1e-05,1e-05,6e-05,5e-05,1e-05,-0.00017,6,28
23394,6e-05,3e-05,1e-05,1e-05,6e-05,5e-05,1e-05,-0.00017,6,28
23396,6e-05,3e-05,1e-05,1e-05,6e-05,5e-05,1e-05,-0.00017,6,28
23397,6e-05,3e-05,1e-05,1e-05,6e-05,5e-05,1e-05,-0.00017,6,28
23398,6e-05,3e-05,1e-05,1e-05,6e-05,5e-05,1e-05,-0.00017,6,28
23399,6e-05,3e-05,1e-05,1e-05,6e-05,5e-05,1e-05,-0.00017,6,28
23400,6e-05,3e-05,1e-05,1e-05,6e-05,5e-05,1e-05,-0.00017,6,28
23401,6e-05,3e-05,1e-05,1e-05,6e-05,5e-05,1e-05,-0.00017,6,28
23402,6e-05,3e-05,1e-05,1e-05,6e-05,5e-05,1e-05,-0.00017,6,28
23403,6e-05,3e-05,1e-05,1e-05,6e-05,5e-05,1e-05,-0.00017,6,28
23404,6e-05,3e-05,1e-05,1e-05,6e-05,5e-05,1e-05,-0.00017,6,28
23405,6e-05,3e-05,1e-05,1e-05,6e-05,5e-05,1e-05,-0.00017,6,28
23406,6e-05,3e-05,1e-05,1e-05,6e-05,5e-05,1e-05,-0.00017,6,28
23407,6e-05,3e-05,1e-05,1e-05,6e-05,5e-05,1e-05,-0.00017,6,28
23408,6e-05,3e-05,1e-05,1e-05,6e-05,5e-05,1e-05,-0.00017,6,28
23409,6e-05,3e-05,1e-05,1e-05,6e-05,5e-05,1e-05,-0.00017,6,28
23410,6e-05,3e-05,1e-05,1e-05,6e-05,5e-05,1e-05,-0.00017,6,28
23411,0,-5e-05,3e-05,0,-3e-05,-0.00035,-4e-05,-2e-05,6,28
23412,0,-5e-05,3e-05,0,-3e-05,-0.00035,-4e-05,-2e-05,6,28
23413,0,-5e-05,3e-05,0,-3e-05,-0.00035,-4e-05,-2e-05,6,28
23414,0,-5e-05,3e-05,0,-3e-05,-0.00035,-4e-05,-2e-05,6,28
23415,0,-5e-05,3e-05,0,-3e-05,-0.00035,-4e-05,-2e-05,6,28
23416,0,-5e-05,3e-05,0,-3e-05,-0.00035,-4e-05,-2e-05,6,28
23417,0,-5e-05,3e-05,0,-3e-05,-0.00035,-4e-05,-2e-05,6,28
23418,0,-5e-05,3e-05,0,-3e-05,-0.00035,-4e-05,-2e-05,6,28
23419,0,-5e-05,3e-05,0,-3e-05,-0.00035,-4e-05,-2e-05,6,28
23420,0,-5e-05,3e-05,0,-3e-05,-0.00035,-4e-05,-2e-05,6,28
23421,0,-5e-05,3e-05,0,-3e-05,-0.00035,-4e-05,-2e-05,6,28
23422,0,-5e-05,3e-05,0,-3e-05,-0.00035,-4e-05,-2e-05,6,28
23423,0,-5e-05,3e-05,0,-3e-05,-0.00035,-4e-05,-2e-05,6,28
23424,0,-5e-05,3e-05,0,-3e-05,-0.00035,-4e-05,-2e-05,6,28
23425,0,-4e-05,-7e-05,-6e-05,-5e-05,-7e-05,-0.0001,0.00021,6,28
23426,-6e-05,-1e-05,-4e-05,-1e-05,-4e-05,0.0001,-1e-05,0.00011,6,28
23427,-6e-05,-1e-05,-4e-05,-1e-05,-4e-05,0.0001,-1e-05,0.00011,6,28
23428,-6e-05,-1e-05,-4e-05,-1e-05,-4e-05,0.0001,-1e-05,0.00011,6,28
23429,-6e-05,-1e-05,-4e-05,-1e-05,-4e-05,0.0001,-1e-05,0.00011,6,28
23430,-6e-05,-1e-05,-4e-05,-1e-05,-4e-05,0.0001,-1e-05,0.00011,6,28
23431,-6e-05,-1e-05,-4e-05,-1e-05,-4e-05,0.0001,-1e-05,0.00011,6,28
23432,-6e-05,-1e-05,-4e-05,-1e-05,-4e-05,0.0001,-1e-05,0.00011,6,28
23433,-6e-05,-1e-05,-4e-05,-1e-05,-4e-05,0.0001,-1e-05,0.00011,6,28
23434,-6e-05,-1e-05,-4e-05,-1e-05,-4e-05,0.0001,-1e-05,0.00011,6,28
23435,-6e-05,-1e-05,-4e-05,-1e-05,-4e-05,0.0001,-1e-05,0.00011,6,28
23436,-6e-05,-1e-05,-4e-05,-1e-05,-4e-05,0.0001,-1e-05,0.00011,6,28
23439,-6e-05,-1e-05,-4e-05,-1e-05,-4e-05,0.0001,-1e-05,0.00011,6,28
23440,-6e-05,-1e-05,-4e-05,-1e-05,-4e-05,0.0001,-1e-05,0.00011,6,28
23441,-6e-05,-1e-05,-4e-05,-1e-05,-4e-05,0.0001,-1e-05,0.00011,6,28
23442,-6e-05,-1e-05,-4e-05,-1e-05,-4e-05,0.0001,-1e-05,0.00011,6,28
23443,-6e-05,-1e-05,-4e-05,-1e-05,-4e-05,0.0001,-1e-05,0.00011,6,28
23444,-6e-05,-1e-05,-4e-05,-1e-05,-4e-05,0.0001,-1e-05,0.00011,6,28
23445,-6e-05,-1e-05,-4e-05,-1e-05,-4e-05,0.0001,-1e-05,0.00011,6,28
23446,-6e-05,-1e-05,-4e-05,-1e-05,-4e-05,0.0001,-1e-05,0.00011,6,28
23447,0.00021,0,-1e-05,-2e-05,-1e-05,-1e-05,-1e-05,-0.00012,6,28
23448,2e-05,-1e-05,2e-05,5e-05,0.00013,0.0002,-1e-05,-0.00036,6,28
23449,2e-05,-1e-05,2e-05,5e-05,0.00013,0.0002,-1e-05,-0.00036,6,28
23450,2e-05,-1e-05,2e-05,5e-05,0.00013,0.0002,-1e-05,-0.00036,6,28
23451,2e-05,-1e-05,2e-05,5e-05,0.00013,0.0002,-1e-05,-0.00036,6,28
23452,2e-05,-1e-05,2e-05,5e-05,0.00013,0.0002,-1e-05,-0.00036,6,28
23453,2e-05,-1e-05,2e-05,5e-05,0.00013,0.0002,-1e-05,-0.00036,6,28
23454,2e-05,-1e-05,2e-05,5e-05,0.00013,0.0002,-1e-05,-0.00036,6,28
23455,2e-05,-1e-05,2e-05,5e-05,0.00013,0.0002,-1e-05,-0.00036,6,28
23456,2e-05,-1e-05,2e-05,5e-05,0.00013,0.0002,-1e-05,-0.00036,6,28
23457,2e-05,-1e-05,2e-05,5e-05,0.00013,0.0002,-1e-05,-0.00036,6,28
23458,2e-05,-1e-05,2e-05,5e-05,0.00013,0.0002,-1e-05,-0.00036,6,28
23459,2e-05,-1e-05,2e-05,5e-05,0.00013,0.0002,-1e-05,-0.00036,6,28
23460,2e-05,-1e-05,2e-05,5e-05,0.00013,0.0002,-1e-05,-0.00036,6,28
23461,2e-05,-1e-05,2e-05,5e-05,0.00013,0.0002,-1e-05,-0.00036,6,28
23462,2e-05,-1e-05,2e-05,5e-05,0.00013,0.0002,-1e-05,-0.00036,6,28
23463,2e-05,-1e-05,2e-05,5e-05,0.00013,0.0002,-1e-05,-0.00036,6,28
23464,2e-05,-1e-05,2e-05,5e-05,0.00013,0.0002,-1e-05,-0.00036,6,28
23465,2e-05,-1e-05,2e-05,5e-05,0.00013,0.0002,-1e-05,-0.00036,6,28
23466,2e-05,-1e-05,2e-05,5e-05,0.00013,0.0002,-1e-05,-0.00036,6,28
23467,2e-05,-1e-05,2e-05,5e-05,0.00013,0.0002,-1e-05,-0.00036,6,28
23468,2e-05,-1e-05,2e-05,5e-05,0.00013,0.0002,-1e-05,-0.00036,6,28
23469,2e-05,-1e-05,2e-05,5e-05,0.00013,0.0002,-1e-05,-0.00036,6,28
23470,2e-05,-1e-05,2e-05,5e-05,0.00013,0.0002,-1e-05,-0.00036,6,28
23471,-8e-05,-2e-05,0,0,-6e-05,-0.00017,-8e-05,-4e-05,6,28
23472,-8e-05,-2e-05,0,0,-6e-05,-0.00017,-8e-05,-4e-05,6,28
23473,-8e-05,-2e-05,0,0,-6e-05,-0.00017,-8e-05,-4e-05,6,28
23474,-8e-05,-2e-05,0,0,-6e-05,-0.00017,-8e-05,-4e-05,6,28
23475,-8e-05,-2e-05,0,0,-6e-05,-0.00017,-8e-05,-4e-05,6,28
23476,-8e-05,-2e-05,0,0,-6e-05,-0.00017,-8e-05,-4e-05,6,28
23477,-8e-05,-2e-05,0,0,-6e-05,-0.00017,-8e-05,-4e-05,6,28
23478,-8e-05,-2e-05,0,0,-6e-05,-0.00017,-8e-05,-4e-05,6,28
23479,-8e-05,-2e-05,0,0,-6e-05,-0.00017,-8e-05,-4e-05,6,28
23480,-8e-05,-2e-05,0,0,-6e-05,-0.00017,-8e-05,-4e-05,6,28
23481,-8e-05,-2e-05,0,0,-6e-05,-0.00017,-8e-05,-4e-05,6,28
23482,-8e-05,-2e-05,0,0,-6e-05,-0.00017,-8e-05,-4e-05,6,28
23483,-8e-05,-2e-05,0,0,-6e-05,-0.00017,-8e-05,-4e-05,6,28
23484,-8e-05,-2e-05,0,0,-6e-05,-0.00017,-8e-05,-4e-05,6,28
23485,-9e-05,-1e-05,-3e-05,-3e-05,-1e-05,3e-05,-5e-05,-0.0003,6,28
23486,4e-05,0,-3e-05,0,3e-05,0.00011,-2e-05,0.00019,6,28
23489,4e-05,0,-3e-05,0,3e-05,0.00011,-2e-05,0.00019,6,28
23490,4e-05,0,-3e-05,0,3e-05,0.00011,-2e-05,0.00019,6,28
23491,4e-05,0,-3e-05,0,3e-05,0.00011,-2e-05,0.00019,6,28
23492,4e-05,0,-3e-05,0,3e-05,0.00011,-2e-05,0.00019,6,28
23493,4e-05,0,-3e-05,0,3e-05,0.00011,-2e-05,0.00019,6,28
23494,4e-05,0,-3e-05,0,3e-05,0.00011,-2e-05,0.00019,6,28
23495,4e-05,0,-3e-05,0,3e-05,0.00011,-2e-05,0.00019,6,28
23496,4e-05,0,-3e-05,0,3e-05,0.00011,-2e-05,0.00019,6,28
23497,4e-05,0,-3e-05,0,3e-05,0.00011,-2e-05,0.00019,6,28
23498,4e-05,0,-3e-05,0,3e-05,0.00011,-2e-05,0.00019,6,28
23499,4e-05,0,-3e-05,0,3e-05,0.00011,-2e-05,0.00019,6,28
23500,4e-05,0,-3e-05,0,3e-05,0.00011,-2e-05,0.00019,6,28
23501,4e-05,0,-3e-05,0,3e-05,0.00011,-2e-05,0.00019,6,28
23502,4e-05,0,-3e-05,0,3e-05,0.00011,-2e-05,0.00019,6,28
23503,4e-05,0,-3e-05,0,3e-05,0.00011,-2e-05,0.00019,6,28
23504,4e-05,0,-3e-05,0,3e-05,0.00011,-2e-05,0.00019,6,28
23505,4e-05,0,-3e-05,0,3e-05,0.00011,-2e-05,0.00019,6,28
23506,4e-05,0,-3e-05,0,3e-05,0.00011,-2e-05,0.00019,6,28
23507,-5e-05,0,-1e-05,2e-05,2e-05,-0.00013,-4e-05,-0.00012,6,28
23508,0.00015,1e-05,-3e-05,-4e-05,-6e-05,-0.00021,-1e-05,0,6,28
23509,0.00015,1e-05,-3e-05,-4e-05,-6e-05,-0.00021,-1e-05,0,6,28
23510,0.00015,1e-05,-3e-05,-4e-05,-6e-05,-0.00021,-1e-05,0,6,28
23511,0.00015,1e-05,-3e-05,-4e-05,-6e-05,-0.00021,-1e-05,0,6,28
23512,0.00015,1e-05,-3e-05,-4e-05,-6e-05,-0.00021,-1e-05,0,6,28
23513,0.00015,1e-05,-3e-05,-4e-05,-6e-05,-0.00021,-1e-05,0,6,28
23514,0.00015,1e-05,-3e-05,-4e-05,-6e-05,-0.00021,-1e-05,0,6,28
23516,0.00015,1e-05,-3e-05,-4e-05,-6e-05,-0.00021,-1e-05,0,6,28
23517,0.00015,1e-05,-3e-05,-4e-05,-6e-05,-0.00021,-1e-05,0,6,28
23518,0.00015,1e-05,-3e-05,-4e-05,-6e-05,-0.00021,-1e-05,0,6,28
23519,0.00015,1e-05,-3e-05,-4e-05,-6e-05,-0.00021,-1e-05,0,6,28
23520,0.00015,1e-05,-3e-05,-4e-05,-6e-05,-0.00021,-1e-05,0,6,28
23521,0.00015,1e-05,-3e-05,-4e-05,-6e-05,-0.00021,-1e-05,0,6,28
23522,0.00015,1e-05,-3e-05,-4e-05,-6e-05,-0.00021,-1e-05,0,6,28
23523,0.00015,1e-05,-3e-05,-4e-05,-6e-05,-0.00021,-1e-05,0,6,28
23524,0.00015,1e-05,-3e-05,-4e-05,-6e-05,-0.00021,-1e-05,0,6,28
23525,0.00015,1e-05,-3e-05,-4e-05,-6e-05,-0.00021,-1e-05,0,6,28
23526,0.00015,1e-05,-3e-05,-4e-05,-6e-05,-0.00021,-1e-05,0,6,28
23527,0.00015,1e-05,-3e-05,-4e-05,-6e-05,-0.00021,-1e-05,0,6,28
23528,0.00015,1e-05,-3e-05,-4e-05,-6e-05,-0.00021,-1e-05,0,6,28
23529,0.00015,1e-05,-3e-05,-4e-05,-6e-05,-0.00021,-1e-05,0,6,28
23530,0.00015,1e-05,-3e-05,-4e-05,-6e-05,-0.00021,-1e-05,0,6,28
23531,-0.00018,-8e-05,-1e-05,-3e-05,-2e-05,9e-05,-5e-05,-0.0001,6,28
23532,-0.00018,-8e-05,-1e-05,-3e-05,-2e-05,9e-05,-5e-05,-0.0001,6,28
23533,-0.00018,-8e-05,-1e-05,-3e-05,-2e-05,9e-05,-5e-05,-0.0001,6,28
23534,-0.00018,-8e-05,-1e-05,-3e-05,-2e-05,9e-05,-5e-05,-0.0001,6,28
23535,-0.00018,-8e-05,-1e-05,-3e-05,-2e-05,9e-05,-5e-05,-0.0001,6,28
23536,-0.00018,-8e-05,-1e-05,-3e-05,-2e-05,9e-05,-5e-05,-0.0001,6,28
23539,-0.00018,-8e-05,-1e-05,-3e-05,-2e-05,9e-05,-5e-05,-0.0001,6,28
23540,-0.00018,-8e-05,-1e-05,-3e-05,-2e-05,9e-05,-5e-05,-0.0001,6,28
23541,-0.00018,-8e-05,-1e-05,-3e-05,-2e-05,9e-05,-5e-05,-0.0001,6,28
23542,-0.00018,-8e-05,-1e-05,-3e-05,-2e-05,9e-05,-5e-05,-0.0001,6,28
23543,-0.00018,-8e-05,-1e-05,-3e-05,-2e-05,9e-05,-5e-05,-0.0001,6,28
23544,-0.00018,-8e-05,-1e-05,-3e-05,-2e-05,9e-05,-5e-05,-0.0001,6,28
23545,0.00012,-2e-05,-9e-05,-9e-05,-0.00012,-0.00019,-0.00012,0.0002,6,28
23546,4e-05,0,0,0,2e-05,3e-05,8e-05,-0.00024,6,28
23547,4e-05,0,0,0,2e-05,3e-05,8e-05,-0.00024,6,28
23548,4e-05,0,0,0,2e-05,3e-05,8e-05,-0.00024,6,28
23549,4e-05,0,0,0,2e-05,3e-05,8e-05,-0.00024,6,28
23550,4e-05,0,0,0,2e-05,3e-05,8e-05,-0.00024,6,28
23551,4e-05,0,0,0,2e-05,3e-05,8e-05,-0.00024,6,28
23552,4e-05,0,0,0,2e-05,3e-05,8e-05,-0.00024,6,28
23553,4e-05,0,0,0,2e-05,3e-05,8e-05,-0.00024,6,28
23554,4e-05,0,0,0,2e-05,3e-05,8e-05,-0.00024,6,28
23555,4e-05,0,0,0,2e-05,3e-05,8e-05,-0.00024,6,28
23556,4e-05,0,0,0,2e-05,3e-05,8e-05,-0.00024,6,28
23557,4e-05,0,0,0,2e-05,3e-05,8e-05,-0.00024,6,28
23558,4e-05,0,0,0,2e-05,3e-05,8e-05,-0.00024,6,28
23559,4e-05,0,0,0,2e-05,3e-05,8e-05,-0.00024,6,28
23560,4e-05,0,0,0,2e-05,3e-05,8e-05,-0.00024,6,28
23561,4e-05,0,0,0,2e-05,3e-05,8e-05,-0.00024,6,28
23562,4e-05,0,0,0,2e-05,3e-05,8e-05,-0.00024,6,28
23563,4e-05,0,0,0,2e-05,3e-05,8e-05,-0.00024,6,28
23564,4e-05,0,0,0,2e-05,3e-05,8e-05,-0.00024,6,28
23565,4e-05,0,0,0,2e-05,3e-05,8e-05,-0.00024,6,28
23566,4e-05,0,0,0,2e-05,3e-05,8e-05,-0.00024,6,28
23567,4e-05,0,0,0,2e-05,3e-05,8e-05,-0.00024,6,28
23568,-2e-05,0,-5e-05,-5e-05,-4e-05,-0.0002,-6e-05,0.0001,6,28
23569,-2e-05,0,-5e-05,-5e-05,-4e-05,-0.0002,-6e-05,0.0001,6,28
23570,-2e-05,0,-5e-05,-5e-05,-4e-05,-0.0002,-6e-05,0.0001,6,28
23571,-2e-05,0,-5e-05,-5e-05,-4e-05,-0.0002,-6e-05,0.0001,6,28
23572,-2e-05,0,-5e-05,-5e-05,-4e-05,-0.0002,-6e-05,0.0001,6,28
23573,-2e-05,0,-5e-05,-5e-05,-4e-05,-0.0002,-6e-05,0.0001,6,28
23574,-2e-05,0,-5e-05,-5e-05,-4e-05,-0.0002,-6e-05,0.0001,6,28
23576,-2e-05,0,-5e-05,-5e-05,-4e-05,-0.0002,-6e-05,0.0001,6,28
23577,-2e-05,0,-5e-05,-5e-05,-4e-05,-0.0002,-6e-05,0.0001,6,28
23578,-2e-05,0,-5e-05,-5e-05,-4e-05,-0.0002,-6e-05,0.0001,6,28
23579,-2e-05,0,-5e-05,-5e-05,-4e-05,-0.0002,-6e-05,0.0001,6,28
23580,-2e-05,0,-5e-05,-5e-05,-4e-05,-0.0002,-6e-05,0.0001,6,28
23581,-2e-05,0,-5e-05,-5e-05,-4e-05,-0.0002,-6e-05,0.0001,6,28
23582,-2e-05,0,-5e-05,-5e-05,-4e-05,-0.0002,-6e-05,0.0001,6,28
23583,-2e-05,0,-5e-05,-5e-05,-4e-05,-0.0002,-6e-05,0.0001,6,28
23584,-2e-05,0,-5e-05,-5e-05,-4e-05,-0.0002,-6e-05,0.0001,6,28
23585,-2e-05,0,-5e-05,-5e-05,-4e-05,-0.0002,-6e-05,0.0001,6,28
23586,-2e-05,0,-5e-05,-5e-05,-4e-05,-0.0002,-6e-05,0.0001,6,28
23588,-2e-05,0,-5e-05,-5e-05,-4e-05,-0.0002,-6e-05,0.0001,6,28
23589,-2e-05,0,-5e-05,-5e-05,-4e-05,-0.0002,-6e-05,0.0001,6,28
23590,-2e-05,0,-5e-05,-5e-05,-4e-05,-0.0002,-6e-05,0.0001,6,28
23591,-4e-05,0,1e-05,-1e-05,2e-05,0.00023,0.00012,1e-05,6,28
23592,-4e-05,0,1e-05,-1e-05,2e-05,0.00023,0.00012,1e-05,6,28
23593,-4e-05,0,1e-05,-1e-05,2e-05,0.00023,0.00012,1e-05,6,28
23594,-4e-05,0,1e-05,-1e-05,2e-05,0.00023,0.00012,1e-05,6,28
23595,-4e-05,0,1e-05,-1e-05,2e-05,0.00023,0.00012,1e-05,6,28
23596,-4e-05,0,1e-05,-1e-05,2e-05,0.00023,0.00012,1e-05,6,28
23597,-4e-05,0,1e-05,-1e-05,2e-05,0.00023,0.00012,1e-05,6,28
23598,-4e-05,0,1e-05,-1e-05,2e-05,0.00023,0.00012,1e-05,6,28
23599,-4e-05,0,1e-05,-1e-05,2e-05,0.00023,0.00012,1e-05,6,28
23600,-4e-05,0,1e-05,-1e-05,2e-05,0.00023,0.00012,1e-05,6,28
23601,-4e-05,0,1e-05,-1e-05,2e-05,0.00023,0.00012,1e-05,6,28
23602,-4e-05,0,1e-05,-1e-05,2e-05,0.00023,0.00012,1e-05,6,28
23603,-4e-05,0,1e-05,-1e-05,2e-05,0.00023,0.00012,1e-05,6,28
23604,-4e-05,0,1e-05,-1e-05,2e-05,0.00023,0.00012,1e-05,6,28
23605,-7e-05,-4e-05,0,-1e-05,0,0.00024,0,-0.00013,6,28
23606,-1e-05,-1e-05,1e-05,0,-1e-05,-6e-05,-6e-05,8e-05,6,28
23607,-1e-05,-1e-05,1e-05,0,-1e-05,-6e-05,-6e-05,8e-05,6,28
23608,-1e-05,-1e-05,1e-05,0,-1e-05,-6e-05,-6e-05,8e-05,6,28
23609,-1e-05,-1e-05,1e-05,0,-1e-05,-6e-05,-6e-05,8e-05,6,28
23610,-1e-05,-1e-05,1e-05,0,-1e-05,-6e-05,-6e-05,8e-05,6,28
23611,-1e-05,-1e-05,1e-05,0,-1e-05,-6e-05,-6e-05,8e-05,6,28
23612,-1e-05,-1e-05,1e-05,0,-1e-05,-6e-05,-6e-05,8e-05,6,28
23613,-1e-05,-1e-05,1e-05,0,-1e-05,-6e-05,-6e-05,8e-05,6,28
23614,-1e-05,-1e-05,1e-05,0,-1e-05,-6e-05,-6e-05,8e-05,6,28
23615,-1e-05,-1e-05,1e-05,0,-1e-05,-6e-05,-6e-05,8e-05,6,28
23616,-1e-05,-1e-05,1e-05,0,-1e-05,-6e-05,-6e-05,8e-05,6,28
23617,-1e-05,-1e-05,1e-05,0,-1e-05,-6e-05,-6e-05,8e-05,6,28
23618,-1e-05,-1e-05,1e-05,0,-1e-05,-6e-05,-6e-05,8e-05,6,28
23619,-1e-05,-1e-05,1e-05,0,-1e-05,-6e-05,-6e-05,8e-05,6,28
23620,-1e-05,-1e-05,1e-05,0,-1e-05,-6e-05,-6e-05,8e-05,6,28
23621,-1e-05,-1e-05,1e-05,0,-1e-05,-6e-05,-6e-05,8e-05,6,28
23622,-1e-05,-1e-05,1e-05,0,-1e-05,-6e-05,-6e-05,8e-05,6,28
23623,-1e-05,-1e-05,1e-05,0,-1e-05,-6e-05,-6e-05,8e-05,6,28
23624,-1e-05,-1e-05,1e-05,0,-1e-05,-6e-05,-6e-05,8e-05,6,28
23625,-1e-05,-1e-05,1e-05,0,-1e-05,-6e-05,-6e-05,8e-05,6,28
23626,-1e-05,-1e-05,1e-05,0,-1e-05,-6e-05,-6e-05,8e-05,6,28
23627,0.00013,2e-05,-5e-05,-5e-05,-0.0001,-0.00029,0,0.00024,6,28
23628,6e-05,4e-05,0,-2e-05,-1e-05,2e-05,0.00013,0.00028,6,28
23629,6e-05,4e-05,0,-2e-05,-1e-05,2e-05,0.00013,0.00028,6,28
23630,6e-05,4e-05,0,-2e-05,-1e-05,2e-05,0.00013,0.00028,6,28
23631,6e-05,4e-05,0,-2e-05,-1e-05,2e-05,0.00013,0.00028,6,28
23632,6e-05,4e-05,0,-2e-05,-1e-05,2e-05,0.00013,0.00028,6,28
23633,6e-05,4e-05,0,-2e-05,-1e-05,2e-05,0.00013,0.00028,6,28
23634,6e-05,4e-05,0,-2e-05,-1e-05,2e-05,0.00013,0.00028,6,28
23635,6e-05,4e-05,0,-2e-05,-1e-05,2e-05,0.00013,0.00028,6,28
23636,6e-05,4e-05,0,-2e-05,-1e-05,2e-05,0.00013,0.00028,6,28
23638,6e-05,4e-05,0,-2e-05,-1e-05,2e-05,0.00013,0.00028,6,28
23639,6e-05,4e-05,0,-2e-05,-1e-05,2e-05,0.00013,0.00028,6,28
23640,6e-05,4e-05,0,-2e-05,-1e-05,2e-05,0.00013,0.00028,6,28
23641,6e-05,4e-05,0,-2e-05,-1e-05,2e-05,0.00013,0.00028,6,28
23642,6e-05,4e-05,0,-2e-05,-1e-05,2e-05,0.00013,0.00028,6,28
23643,6e-05,4e-05,0,-2e-05,-1e-05,2e-05,0.00013,0.00028,6,28
23644,6e-05,4e-05,0,-2e-05,-1e-05,2e-05,0.00013,0.00028,6,28
23645,6e-05,4e-05,0,-2e-05,-1e-05,2e-05,0.00013,0.00028,6,28
23646,6e-05,4e-05,0,-2e-05,-1e-05,2e-05,0.00013,0.00028,6,28
23647,6e-05,4e-05,0,-2e-05,-1e-05,2e-05,0.00013,0.00028,6,28
23648,6e-05,4e-05,0,-2e-05,-1e-05,2e-05,0.00013,0.00028,6,28
23649,6e-05,4e-05,0,-2e-05,-1e-05,2e-05,0.00013,0.00028,6,28
23650,6e-05,4e-05,0,-2e-05,-1e-05,2e-05,0.00013,0.00028,6,28
23651,-1e-05,1e-05,4e-05,5e-05,5e-05,0.00057,6e-05,5e-05,6,28
23652,-1e-05,1e-05,4e-05,5e-05,5e-05,0.00057,6e-05,5e-05,6,28
23653,-1e-05,1e-05,4e-05,5e-05,5e-05,0.00057,6e-05,5e-05,6,28
23654,-1e-05,1e-05,4e-05,5e-05,5e-05,0.00057,6e-05,5e-05,6,28
23655,-1e-05,1e-05,4e-05,5e-05,5e-05,0.00057,6e-05,5e-05,6,28
23656,-1e-05,1e-05,4e-05,5e-05,5e-05,0.00057,6e-05,5e-05,6,28
23657,-1e-05,1e-05,4e-05,5e-05,5e-05,0.00057,6e-05,5e-05,6,28
23658,-1e-05,1e-05,4e-05,5e-05,5e-05,0.00057,6e-05,5e-05,6,28
23659,-1e-05,1e-05,4e-05,5e-05,5e-05,0.00057,6e-05,5e-05,6,28
23660,-1e-05,1e-05,4e-05,5e-05,5e-05,0.00057,6e-05,5e-05,6,28
23661,-1e-05,1e-05,4e-05,5e-05,5e-05,0.00057,6e-05,5e-05,6,28
23662,-1e-05,1e-05,4e-05,5e-05,5e-05,0.00057,6e-05,5e-05,6,28
23663,-1e-05,1e-05,4e-05,5e-05,5e-05,0.00057,6e-05,5e-05,6,28
23664,5e-05,-1e-05,-1e-05,1e-05,4e-05,0.00018,5e-05,-0.0001,6,28
23665,5e-05,-1e-05,-1e-05,1e-05,4e-05,0.00018,5e-05,-0.0001,6,28
23666,5e-05,-1e-05,-1e-05,1e-05,4e-05,0.00018,5e-05,-0.0001,6,28
23667,5e-05,-1e-05,-1e-05,1e-05,4e-05,0.00018,5e-05,-0.0001,6,28
23668,5e-05,-1e-05,-1e-05,1e-05,4e-05,0.00018,5e-05,-0.0001,6,28
23669,5e-05,-1e-05,-1e-05,1e-05,4e-05,0.00018,5e-05,-0.0001,6,28
23670,5e-05,-1e-05,-1e-05,1e-05,4e-05,0.00018,5e-05,-0.0001,6,28
23671,5e-05,-1e-05,-1e-05,1e-05,4e-05,0.00018,5e-05,-0.0001,6,28
23672,1e-05,-4e-05,-3e-05,-1e-05,-1e-05,0.0001,-4e-05,0.00024,6,28
23673,-1e-05,-6e-05,-4e-05,-5e-05,-8e-05,-8e-05,-6e-05,-0.0001,6,28
23674,-1e-05,-6e-05,-4e-05,-5e-05,-8e-05,-8e-05,-6e-05,-0.0001,6,28
23675,-1e-05,-6e-05,-4e-05,-5e-05,-8e-05,-8e-05,-6e-05,-0.0001,6,28
23676,-1e-05,-6e-05,-4e-05,-5e-05,-8e-05,-8e-05,-6e-05,-0.0001,6,28
23677,-1e-05,-6e-05,-4e-05,-5e-05,-8e-05,-8e-05,-6e-05,-0.0001,6,28
23678,-1e-05,-6e-05,-4e-05,-5e-05,-8e-05,-8e-05,-6e-05,-0.0001,6,28
23679,-1e-05,-6e-05,-4e-05,-5e-05,-8e-05,-8e-05,-6e-05,-0.0001,6,28
23680,-1e-05,-6e-05,-4e-05,-5e-05,-8e-05,-8e-05,-6e-05,-0.0001,6,28
23681,-1e-05,-6e-05,-4e-05,-5e-05,-8e-05,-8e-05,-6e-05,-0.0001,6,28
23682,-1e-05,-6e-05,-4e-05,-5e-05,-8e-05,-8e-05,-6e-05,-0.0001,6,28
23683,-1e-05,-6e-05,-4e-05,-5e-05,-8e-05,-8e-05,-6e-05,-0.0001,6,28
23684,-1e-05,-6e-05,-4e-05,-5e-05,-8e-05,-8e-05,-6e-05,-0.0001,6,28
23685,-1e-05,-6e-05,-4e-05,-5e-05,-8e-05,-8e-05,-6e-05,-0.0001,6,28
23686,-1e-05,-6e-05,-4e-05,-5e-05,-8e-05,-8e-05,-6e-05,-0.0001,6,28
23689,-7e-05,2e-05,2e-05,2e-05,0,0.00015,-9e-05,-0.00011,6,28
23690,-7e-05,2e-05,2e-05,2e-05,0,0.00015,-9e-05,-0.00011,6,28
23691,-7e-05,2e-05,2e-05,2e-05,0,0.00015,-9e-05,-0.00011,6,28
23692,-7e-05,2e-05,2e-05,2e-05,0,0.00015,-9e-05,-0.00011,6,28
23693,-7e-05,2e-05,2e-05,2e-05,0,0.00015,-9e-05,-0.00011,6,28
23694,-7e-05,2e-05,2e-05,2e-05,0,0.00015,-9e-05,-0.00011,6,28
23695,-7e-05,2e-05,2e-05,2e-05,0,0.00015,-9e-05,-0.00011,6,28
23696,-7e-05,2e-05,2e-05,2e-05,0,0.00015,-9e-05,-0.00011,6,28
23697,-7e-05,2e-05,2e-05,2e-05,0,0.00015,-9e-05,-0.00011,6,28
23698,-7e-05,2e-05,2e-05,2e-05,0,0.00015,-9e-05,-0.00011,6,28
23699,-7e-05,2e-05,2e-05,2e-05,0,0.00015,-9e-05,-0.00011,6,28
23700,-7e-05,2e-05,2e-05,2e-05,0,0.00015,-9e-05,-0.00011,6,28
23701,-7e-05,2e-05,2e-05,2e-05,0,0.00015,-9e-05,-0.00011,6,28
23702,-7e-05,2e-05,2e-05,2e-05,0,0.00015,-9e-05,-0.00011,6,28
23703,-7e-05,2e-05,2e-05,2e-05,0,0.00015,-9e-05,-0.00011,6,28
23704,-7e-05,2e-05,2e-05,2e-05,0,0.00015,-9e-05,-0.00011,6,28
23705,-7e-05,2e-05,2e-05,2e-05,0,0.00015,-9e-05,-0.00011,6,28
23707,-7e-05,2e-05,2e-05,2e-05,0,0.00015,-9e-05,-0.00011,6,28
23708,-7e-05,2e-05,2e-05,2e-05,0,0.00015,-9e-05,-0.00011,6,28
23709,-7e-05,2e-05,2e-05,2e-05,0,0.00015,-9e-05,-0.00011,6,28
23710,-7e-05,2e-05,2e-05,2e-05,0,0.00015,-9e-05,-0.00011,6,28
23711,-5e-05,-3e-05,-3e-05,1e-05,0,0.00027,2e-05,-1e-05,6,28
23712,-5e-05,-3e-05,-3e-05,1e-05,0,0.00027,2e-05,-1e-05,6,28
23713,-5e-05,-3e-05,-3e-05,1e-05,0,0.00027,2e-05,-1e-05,6,28
23714,-5e-05,-3e-05,-3e-05,1e-05,0,0.00027,2e-05,-1e-05,6,28
23715,-5e-05,-3e-05,-3e-05,1e-05,0,0.00027,2e-05,-1e-05,6,28
23716,-5e-05,-3e-05,-3e-05,1e-05,0,0.00027,2e-05,-1e-05,6,28
23717,-5e-05,-3e-05,-3e-05,1e-05,0,0.00027,2e-05,-1e-05,6,28
23718,-5e-05,-3e-05,-3e-05,1e-05,0,0.00027,2e-05,-1e-05,6,28
23719,-5e-05,-3e-05,-3e-05,1e-05,0,0.00027,2e-05,-1e-05,6,28
23720,-5e-05,-3e-05,-3e-05,1e-05,0,0.00027,2e-05,-1e-05,6,28
23721,-5e-05,-3e-05,-3e-05,1e-05,0,0.00027,2e-05,-1e-05,6,28
23722,-5e-05,-3e-05,-3e-05,1e-05,0,0.00027,2e-05,-1e-05,6,28
23723,-5e-05,-3e-05,-3e-05,1e-05,0,0.00027,2e-05,-1e-05,6,28
23724,-0.00011,-2e-05,-1e-05,-2e-05,-6e-05,-0.0001,-0.00011,0.00033,6,28
23725,-0.00011,-2e-05,-1e-05,-2e-05,-6e-05,-0.0001,-0.00011,0.00033,6,28
23726,-0.00011,-2e-05,-1e-05,-2e-05,-6e-05,-0.0001,-0.00011,0.00033,6,28
23727,-0.00011,-2e-05,-1e-05,-2e-05,-6e-05,-0.0001,-0.00011,0.00033,6,28
23728,-0.00011,-2e-05,-1e-05,-2e-05,-6e-05,-0.0001,-0.00011,0.00033,6,28
23729,-0.00011,-2e-05,-1e-05,-2e-05,-6e-05,-0.0001,-0.00011,0.00033,6,28
23730,-0.00011,-2e-05,-1e-05,-2e-05,-6e-05,-0.0001,-0.00011,0.00033,6,28
23731,-0.00011,-2e-05,-1e-05,-2e-05,-6e-05,-0.0001,-0.00011,0.00033,6,28
23732,-3e-05,-3e-05,-1e-05,-3e-05,0,-0.00013,-0.00017,-0.00016,6,28
23733,-3e-05,-3e-05,-1e-05,-3e-05,0,-0.00013,-0.00017,-0.00016,6,28
23734,-3e-05,-3e-05,-1e-05,-3e-05,0,-0.00013,-0.00017,-0.00016,6,28
23735,-3e-05,-3e-05,-1e-05,-3e-05,0,-0.00013,-0.00017,-0.00016,6,28
23736,-3e-05,-3e-05,-1e-05,-3e-05,0,-0.00013,-0.00017,-0.00016,6,28
23738,-3e-05,-3e-05,-1e-05,-3e-05,0,-0.00013,-0.00017,-0.00016,6,28
23739,-3e-05,-3e-05,-1e-05,-3e-05,0,-0.00013,-0.00017,-0.00016,6,28
23740,-3e-05,-3e-05,-1e-05,-3e-05,0,-0.00013,-0.00017,-0.00016,6,28
23741,-3e-05,-3e-05,-1e-05,-3e-05,0,-0.00013,-0.00017,-0.00016,6,28
23742,-3e-05,-3e-05,-1e-05,-3e-05,0,-0.00013,-0.00017,-0.00016,6,28
23743,-3e-05,-3e-05,-1e-05,-3e-05,0,-0.00013,-0.00017,-0.00016,6,28
23744,-3e-05,-3e-05,-1e-05,-3e-05,0,-0.00013,-0.00017,-0.00016,6,28
23745,-3e-05,-3e-05,-1e-05,-3e-05,0,-0.00013,-0.00017,-0.00016,6,28
23746,-3e-05,-3e-05,-1e-05,-3e-05,0,-0.00013,-0.00017,-0.00016,6,28
23747,-3e-05,-5e-05,5e-05,2e-05,3e-05,-0.00022,-0.00019,8e-05,6,28
23748,0.0001,-4e-05,-2e-05,-1e-05,-8e-05,-0.00033,8e-05,0.0003,6,28
23749,0.0001,-4e-05,-2e-05,-1e-05,-8e-05,-0.00033,8e-05,0.0003,6,28
23750,0.0001,-4e-05,-2e-05,-1e-05,-8e-05,-0.00033,8e-05,0.0003,6,28
23751,0.0001,-4e-05,-2e-05,-1e-05,-8e-05,-0.00033,8e-05,0.0003,6,28
23752,0.0001,-4e-05,-2e-05,-1e-05,-8e-05,-0.00033,8e-05,0.0003,6,28
23753,0.0001,-4e-05,-2e-05,-1e-05,-8e-05,-0.00033,8e-05,0.0003,6,28
23754,0.0001,-4e-05,-2e-05,-1e-05,-8e-05,-0.00033,8e-05,0.0003,6,28
23755,0.0001,-4e-05,-2e-05,-1e-05,-8e-05,-0.00033,8e-05,0.0003,6,28
23756,0.0001,-4e-05,-2e-05,-1e-05,-8e-05,-0.00033,8e-05,0.0003,6,28
23757,0.0001,-4e-05,-2e-05,-1e-05,-8e-05,-0.00033,8e-05,0.0003,6,28
23758,0.0001,-4e-05,-2e-05,-1e-05,-8e-05,-0.00033,8e-05,0.0003,6,28
23759,0.0001,-4e-05,-2e-05,-1e-05,-8e-05,-0.00033,8e-05,0.0003,6,28
23760,0.0001,-4e-05,-2e-05,-1e-05,-8e-05,-0.00033,8e-05,0.0003,6,28
23761,0.0001,-4e-05,-2e-05,-1e-05,-8e-05,-0.00033,8e-05,0.0003,6,28
23762,0.0001,-4e-05,-2e-05,-1e-05,-8e-05,-0.00033,8e-05,0.0003,6,28
23763,0.0001,-4e-05,-2e-05,-1e-05,-8e-05,-0.00033,8e-05,0.0003,6,28
23764,0.0001,-4e-05,-2e-05,-1e-05,-8e-05,-0.00033,8e-05,0.0003,6,28
23765,0.0001,-4e-05,-2e-05,-1e-05,-8e-05,-0.00033,8e-05,0.0003,6,28
23766,0.0001,-4e-05,-2e-05,-1e-05,-8e-05,-0.00033,8e-05,0.0003,6,28
23767,0.0001,-4e-05,-2e-05,-1e-05,-8e-05,-0.00033,8e-05,0.0003,6,28
23768,0.0001,-4e-05,-2e-05,-1e-05,-8e-05,-0.00033,8e-05,0.0003,6,28
23769,0.0001,-4e-05,-2e-05,-1e-05,-8e-05,-0.00033,8e-05,0.0003,6,28
23770,0.0001,-4e-05,-2e-05,-1e-05,-8e-05,-0.00033,8e-05,0.0003,6,28
23771,-5e-05,1e-05,-2e-05,2e-05,6e-05,0.00027,-1e-05,6e-05,6,28
23772,-8e-05,2e-05,0,8e-05,0.00013,4e-05,-5e-05,-0.00032,6,28
23773,-8e-05,2e-05,0,8e-05,0.00013,4e-05,-5e-05,-0.00032,6,28
23774,-8e-05,2e-05,0,8e-05,0.00013,4e-05,-5e-05,-0.00032,6,28
23775,-8e-05,2e-05,0,8e-05,0.00013,4e-05,-5e-05,-0.00032,6,28
23776,-8e-05,2e-05,0,8e-05,0.00013,4e-05,-5e-05,-0.00032,6,28
23777,-8e-05,2e-05,0,8e-05,0.00013,4e-05,-5e-05,-0.00032,6,28
23778,-8e-05,2e-05,0,8e-05,0.00013,4e-05,-5e-05,-0.00032,6,28
23779,-8e-05,2e-05,0,8e-05,0.00013,4e-05,-5e-05,-0.00032,6,28
23780,-8e-05,2e-05,0,8e-05,0.00013,4e-05,-5e-05,-0.00032,6,28
23781,-8e-05,2e-05,0,8e-05,0.00013,4e-05,-5e-05,-0.00032,6,28
23782,-8e-05,2e-05,0,8e-05,0.00013,4e-05,-5e-05,-0.00032,6,28
23783,-8e-05,2e-05,0,8e-05,0.00013,4e-05,-5e-05,-0.00032,6,28
23784,3e-05,-6e-05,0,1e-05,-3e-05,-3e-05,-1e-05,-4e-05,6,28
23785,3e-05,-6e-05,0,1e-05,-3e-05,-3e-05,-1e-05,-4e-05,6,28
23786,3e-05,-6e-05,0,1e-05,-3e-05,-3e-05,-1e-05,-4e-05,6,28
23788,3e-05,-6e-05,0,1e-05,-3e-05,-3e-05,-1e-05,-4e-05,6,28
23789,3e-05,-6e-05,0,1e-05,-3e-05,-3e-05,-1e-05,-4e-05,6,28
23790,3e-05,-6e-05,0,1e-05,-3e-05,-3e-05,-1e-05,-4e-05,6,28
23791,3e-05,-6e-05,0,1e-05,-3e-05,-3e-05,-1e-05,-4e-05,6,28
23792,8e-05,-2e-05,-2e-05,-5e-05,1e-05,6e-05,5e-05,0.00025,6,28
23793,0.00014,2e-05,-2e-05,-4e-05,-5e-05,-3e-05,5e-05,-0.00012,6,28
23794,0.00014,2e-05,-2e-05,-4e-05,-5e-05,-3e-05,5e-05,-0.00012,6,28
23795,0.00014,2e-05,-2e-05,-4e-05,-5e-05,-3e-05,5e-05,-0.00012,6,28
23796,0.00014,2e-05,-2e-05,-4e-05,-5e-05,-3e-05,5e-05,-0.00012,6,28
23797,0.00014,2e-05,-2e-05,-4e-05,-5e-05,-3e-05,5e-05,-0.00012,6,28
23798,0.00014,2e-05,-2e-05,-4e-05,-5e-05,-3e-05,5e-05,-0.00012,6,28
23799,0.00014,2e-05,-2e-05,-4e-05,-5e-05,-3e-05,5e-05,-0.00012,6,28
23801,0.00014,2e-05,-2e-05,-4e-05,-5e-05,-3e-05,5e-05,-0.00012,6,28
23803,0.00014,2e-05,-2e-05,-4e-05,-5e-05,-3e-05,5e-05,-0.00012,6,28
23804,0.00014,2e-05,-2e-05,-4e-05,-5e-05,-3e-05,5e-05,-0.00012,6,28
23805,0.00014,2e-05,-2e-05,-4e-05,-5e-05,-3e-05,5e-05,-0.00012,6,28
23806,0.00014,2e-05,-2e-05,-4e-05,-5e-05,-3e-05,5e-05,-0.00012,6,28
23807,0.00014,2e-05,-2e-05,-4e-05,-5e-05,-3e-05,5e-05,-0.00012,6,28
23808,8e-05,-2e-05,-1e-05,-2e-05,-5e-05,-1e-05,-6e-05,0.00062,6,28
23809,8e-05,-2e-05,-1e-05,-2e-05,-5e-05,-1e-05,-6e-05,0.00062,6,28
23810,8e-05,-2e-05,-1e-05,-2e-05,-5e-05,-1e-05,-6e-05,0.00062,6,28
23811,8e-05,-2e-05,-1e-05,-2e-05,-5e-05,-1e-05,-6e-05,0.00062,6,28
23812,8e-05,-2e-05,-1e-05,-2e-05,-5e-05,-1e-05,-6e-05,0.00062,6,28
23813,8e-05,-2e-05,-1e-05,-2e-05,-5e-05,-1e-05,-6e-05,0.00062,6,28
23814,8e-05,-2e-05,-1e-05,-2e-05,-5e-05,-1e-05,-6e-05,0.00062,6,28
23815,8e-05,-2e-05,-1e-05,-2e-05,-5e-05,-1e-05,-6e-05,0.00062,6,28
23816,8e-05,-2e-05,-1e-05,-2e-05,-5e-05,-1e-05,-6e-05,0.00062,6,28
23817,8e-05,-2e-05,-1e-05,-2e-05,-5e-05,-1e-05,-6e-05,0.00062,6,28
23818,8e-05,-2e-05,-1e-05,-2e-05,-5e-05,-1e-05,-6e-05,0.00062,6,28
23819,8e-05,-2e-05,-1e-05,-2e-05,-5e-05,-1e-05,-6e-05,0.00062,6,28
23820,8e-05,-2e-05,-1e-05,-2e-05,-5e-05,-1e-05,-6e-05,0.00062,6,28
23821,8e-05,-2e-05,-1e-05,-2e-05,-5e-05,-1e-05,-6e-05,0.00062,6,28
23822,8e-05,-2e-05,-1e-05,-2e-05,-5e-05,-1e-05,-6e-05,0.00062,6,28
23823,8e-05,-2e-05,-1e-05,-2e-05,-5e-05,-1e-05,-6e-05,0.00062,6,28
23824,8e-05,-2e-05,-1e-05,-2e-05,-5e-05,-1e-05,-6e-05,0.00062,6,28
23825,8e-05,-2e-05,-1e-05,-2e-05,-5e-05,-1e-05,-6e-05,0.00062,6,28
23826,8e-05,-2e-05,-1e-05,-2e-05,-5e-05,-1e-05,-6e-05,0.00062,6,28
23827,8e-05,-2e-05,-1e-05,-2e-05,-5e-05,-1e-05,-6e-05,0.00062,6,28
23828,8e-05,-2e-05,-1e-05,-2e-05,-5e-05,-1e-05,-6e-05,0.00062,6,28
23829,8e-05,-2e-05,-1e-05,-2e-05,-5e-05,-1e-05,-6e-05,0.00062,6,28
23830,8e-05,-2e-05,-1e-05,-2e-05,-5e-05,-1e-05,-6e-05,0.00062,6,28
23831,-5e-05,-4e-05,-1e-05,-2e-05,-4e-05,-0.00019,-3e-05,-9e-05,6,28
23832,-5e-05,-4e-05,-1e-05,-2e-05,-4e-05,-0.00019,-3e-05,-9e-05,6,28
23833,-5e-05,-4e-05,-1e-05,-2e-05,-4e-05,-0.00019,-3e-05,-9e-05,6,28
23834,-5e-05,-4e-05,-1e-05,-2e-05,-4e-05,-0.00019,-3e-05,-9e-05,6,28
23835,-5e-05,-4e-05,-1e-05,-2e-05,-4e-05,-0.00019,-3e-05,-9e-05,6,28
23836,-5e-05,-4e-05,-1e-05,-2e-05,-4e-05,-0.00019,-3e-05,-9e-05,6,28
23838,-5e-05,-4e-05,-1e-05,-2e-05,-4e-05,-0.00019,-3e-05,-9e-05,6,28
23839,-5e-05,-4e-05,-1e-05,-2e-05,-4e-05,-0.00019,-3e-05,-9e-05,6,28
23840,-5e-05,-4e-05,-1e-05,-2e-05,-4e-05,-0.00019,-3e-05,-9e-05,6,28
23841,-5e-05,-4e-05,-1e-05,-2e-05,-4e-05,-0.00019,-3e-05,-9e-05,6,28
23842,-5e-05,-4e-05,-1e-05,-2e-05,-4e-05,-0.00019,-3e-05,-9e-05,6,28
23843,-5e-05,-4e-05,-1e-05,-2e-05,-4e-05,-0.00019,-3e-05,-9e-05,6,28
23844,-0.0002,-1e-05,-2e-05,-2e-05,-5e-05,-9e-05,-6e-05,-0.00019,6,28
23846,-0.0002,-1e-05,-2e-05,-2e-05,-5e-05,-9e-05,-6e-05,-0.00019,6,28
23847,-0.0002,-1e-05,-2e-05,-2e-05,-5e-05,-9e-05,-6e-05,-0.00019,6,28
23849,-0.0002,-1e-05,-2e-05,-2e-05,-5e-05,-9e-05,-6e-05,-0.00019,6,28
23850,-0.0002,-1e-05,-2e-05,-2e-05,-5e-05,-9e-05,-6e-05,-0.00019,6,28
23851,-0.0002,-1e-05,-2e-05,-2e-05,-5e-05,-9e-05,-6e-05,-0.00019,6,28
23852,-0.00018,-8e-05,-4e-05,-4e-05,-3e-05,0.00026,-0.00011,-7e-05,6,28
23853,3e-05,2e-05,-3e-05,2e-05,0,-0.00022,3e-05,3e-05,6,28
23854,3e-05,2e-05,-3e-05,2e-05,0,-0.00022,3e-05,3e-05,6,28
23855,3e-05,2e-05,-3e-05,2e-05,0,-0.00022,3e-05,3e-05,6,28
23856,3e-05,2e-05,-3e-05,2e-05,0,-0.00022,3e-05,3e-05,6,28
23857,3e-05,2e-05,-3e-05,2e-05,0,-0.00022,3e-05,3e-05,6,28
23858,3e-05,2e-05,-3e-05,2e-05,0,-0.00022,3e-05,3e-05,6,28
23859,3e-05,2e-05,-3e-05,2e-05,0,-0.00022,3e-05,3e-05,6,28
23860,3e-05,2e-05,-3e-05,2e-05,0,-0.00022,3e-05,3e-05,6,28
23861,3e-05,2e-05,-3e-05,2e-05,0,-0.00022,3e-05,3e-05,6,28
23862,3e-05,2e-05,-3e-05,2e-05,0,-0.00022,3e-05,3e-05,6,28
23863,3e-05,2e-05,-3e-05,2e-05,0,-0.00022,3e-05,3e-05,6,28
23864,3e-05,2e-05,-3e-05,2e-05,0,-0.00022,3e-05,3e-05,6,28
23865,3e-05,2e-05,-3e-05,2e-05,0,-0.00022,3e-05,3e-05,6,28
23866,3e-05,2e-05,-3e-05,2e-05,0,-0.00022,3e-05,3e-05,6,28
23867,-5e-05,-2e-05,-4e-05,3e-05,-9e-05,-2e-05,8e-05,0.00014,6,28
23868,-8e-05,1e-05,2e-05,3e-05,-2e-05,-0.00023,-1e-05,-7e-05,6,28
23869,-8e-05,1e-05,2e-05,3e-05,-2e-05,-0.00023,-1e-05,-7e-05,6,28
23870,-8e-05,1e-05,2e-05,3e-05,-2e-05,-0.00023,-1e-05,-7e-05,6,28
23871,-8e-05,1e-05,2e-05,3e-05,-2e-05,-0.00023,-1e-05,-7e-05,6,28
23872,-8e-05,1e-05,2e-05,3e-05,-2e-05,-0.00023,-1e-05,-7e-05,6,28
23873,-8e-05,1e-05,2e-05,3e-05,-2e-05,-0.00023,-1e-05,-7e-05,6,28
23874,-8e-05,1e-05,2e-05,3e-05,-2e-05,-0.00023,-1e-05,-7e-05,6,28
23875,-8e-05,1e-05,2e-05,3e-05,-2e-05,-0.00023,-1e-05,-7e-05,6,28
23876,-8e-05,1e-05,2e-05,3e-05,-2e-05,-0.00023,-1e-05,-7e-05,6,28
23877,-8e-05,1e-05,2e-05,3e-05,-2e-05,-0.00023,-1e-05,-7e-05,6,28
23878,-8e-05,1e-05,2e-05,3e-05,-2e-05,-0.00023,-1e-05,-7e-05,6,28
23879,-8e-05,1e-05,2e-05,3e-05,-2e-05,-0.00023,-1e-05,-7e-05,6,28
23880,-8e-05,1e-05,2e-05,3e-05,-2e-05,-0.00023,-1e-05,-7e-05,6,28
23881,-8e-05,1e-05,2e-05,3e-05,-2e-05,-0.00023,-1e-05,-7e-05,6,28
23882,-8e-05,1e-05,2e-05,3e-05,-2e-05,-0.00023,-1e-05,-7e-05,6,28
23883,-8e-05,1e-05,2e-05,3e-05,-2e-05,-0.00023,-1e-05,-7e-05,6,28
23884,-8e-05,1e-05,2e-05,3e-05,-2e-05,-0.00023,-1e-05,-7e-05,6,28
23885,-8e-05,1e-05,2e-05,3e-05,-2e-05,-0.00023,-1e-05,-7e-05,6,28
23886,-8e-05,1e-05,2e-05,3e-05,-2e-05,-0.00023,-1e-05,-7e-05,6,28
23889,-8e-05,1e-05,2e-05,3e-05,-2e-05,-0.00023,-1e-05,-7e-05,6,28
23890,-8e-05,1e-05,2e-05,3e-05,-2e-05,-0.00023,-1e-05,-7e-05,6,28
23891,-9e-05,-1e-05,1e-05,-6e-05,-6e-05,-9e-05,-6e-05,6e-05,6,28
23892,-9e-05,-1e-05,1e-05,-6e-05,-6e-05,-9e-05,-6e-05,6e-05,6,28
23893,-9e-05,-1e-05,1e-05,-6e-05,-6e-05,-9e-05,-6e-05,6e-05,6,28
23894,-9e-05,-1e-05,1e-05,-6e-05,-6e-05,-9e-05,-6e-05,6e-05,6,28
23895,-9e-05,-1e-05,1e-05,-6e-05,-6e-05,-9e-05,-6e-05,6e-05,6,28
23896,-9e-05,-1e-05,1e-05,-6e-05,-6e-05,-9e-05,-6e-05,6e-05,6,28
23897,-9e-05,-1e-05,1e-05,-6e-05,-6e-05,-9e-05,-6e-05,6e-05,6,28
23898,-9e-05,-1e-05,1e-05,-6e-05,-6e-05,-9e-05,-6e-05,6e-05,6,28
23899,-9e-05,-1e-05,1e-05,-6e-05,-6e-05,-9e-05,-6e-05,6e-05,6,28
23900,-9e-05,-1e-05,1e-05,-6e-05,-6e-05,-9e-05,-6e-05,6e-05,6,28
23901,-9e-05,-1e-05,1e-05,-6e-05,-6e-05,-9e-05,-6e-05,6e-05,6,28
50023,0.00053,2e-05,-4e-05,-3e-05,-0.00011,-2e-05,-5e-05,-0.00022,6,28
50024,0.00053,2e-05,-4e-05,-3e-05,-0.00011,-2e-05,-5e-05,-0.00022,6,28
50025,0.00053,2e-05,-4e-05,-3e-05,-0.00011,-2e-05,-5e-05,-0.00022,6,28
50026,0.00053,2e-05,-4e-05,-3e-05,-0.00011,-2e-05,-5e-05,-0.00022,6,28
50027,0.00053,2e-05,-4e-05,-3e-05,-0.00011,-2e-05,-5e-05,-0.00022,6,28
50028,0.00053,2e-05,-4e-05,-3e-05,-0.00011,-2e-05,-5e-05,-0.00022,6,28
50029,0.00053,2e-05,-4e-05,-3e-05,-0.00011,-2e-05,-5e-05,-0.00022,6,28
50030,0.00053,2e-05,-4e-05,-3e-05,-0.00011,-2e-05,-5e-05,-0.00022,6,28
50031,0.00053,2e-05,-4e-05,-3e-05,-0.00011,-2e-05,-5e-05,-0.00022,6,28
50033,0.00053,2e-05,-4e-05,-3e-05,-0.00011,-2e-05,-5e-05,-0.00022,6,28
50034,0.00053,2e-05,-4e-05,-3e-05,-0.00011,-2e-05,-5e-05,-0.00022,6,28
50035,0.00053,2e-05,-4e-05,-3e-05,-0.00011,-2e-05,-5e-05,-0.00022,6,28
50043,-0.00046,-0.00011,-4e-05,-4e-05,-0.00018,-0.00063,0.00014,-2e-05,6,28
50044,-0.00046,-0.00011,-4e-05,-4e-05,-0.00018,-0.00063,0.00014,-2e-05,6,28
50045,-0.00046,-0.00011,-4e-05,-4e-05,-0.00018,-0.00063,0.00014,-2e-05,6,28
50046,-0.00046,-0.00011,-4e-05,-4e-05,-0.00018,-0.00063,0.00014,-2e-05,6,28
50047,-0.00046,-0.00011,-4e-05,-4e-05,-0.00018,-0.00063,0.00014,-2e-05,6,28
50048,-0.00046,-0.00011,-4e-05,-4e-05,-0.00018,-0.00063,0.00014,-2e-05,6,28
50049,-0.00046,-0.00011,-4e-05,-4e-05,-0.00018,-0.00063,0.00014,-2e-05,6,28
50050,-0.00046,-0.00011,-4e-05,-4e-05,-0.00018,-0.00063,0.00014,-2e-05,6,28
50051,-0.00046,-0.00011,-4e-05,-4e-05,-0.00018,-0.00063,0.00014,-2e-05,6,28
50052,-0.00046,-0.00011,-4e-05,-4e-05,-0.00018,-0.00063,0.00014,-2e-05,6,28
50053,-0.00046,-0.00011,-4e-05,-4e-05,-0.00018,-0.00063,0.00014,-2e-05,6,28
50054,-0.00046,-0.00011,-4e-05,-4e-05,-0.00018,-0.00063,0.00014,-2e-05,6,28
50055,-0.00046,-0.00011,-4e-05,-4e-05,-0.00018,-0.00063,0.00014,-2e-05,6,28
50056,-0.00046,-0.00011,-4e-05,-4e-05,-0.00018,-0.00063,0.00014,-2e-05,6,28
50057,-0.00046,-0.00011,-4e-05,-4e-05,-0.00018,-0.00063,0.00014,-2e-05,6,28
50058,1e-05,4e-05,-3e-05,2e-05,-9e-05,8e-05,0.00017,0.00021,6,28
50059,-0.00043,-4e-05,1e-05,0,-0.0001,-0.00022,-0.00014,-0.00038,6,28
50060,-0.00043,-4e-05,1e-05,0,-0.0001,-0.00022,-0.00014,-0.00038,6,28
50061,-0.00043,-4e-05,1e-05,0,-0.0001,-0.00022,-0.00014,-0.00038,6,28
50062,-0.00043,-4e-05,1e-05,0,-0.0001,-0.00022,-0.00014,-0.00038,6,28
50063,-0.00043,-4e-05,1e-05,0,-0.0001,-0.00022,-0.00014,-0.00038,6,28
50064,-0.00043,-4e-05,1e-05,0,-0.0001,-0.00022,-0.00014,-0.00038,6,28
50065,-0.00043,-4e-05,1e-05,0,-0.0001,-0.00022,-0.00014,-0.00038,6,28
50066,-0.00043,-4e-05,1e-05,0,-0.0001,-0.00022,-0.00014,-0.00038,6,28
50067,-0.00043,-4e-05,1e-05,0,-0.0001,-0.00022,-0.00014,-0.00038,6,28
50068,-0.00043,-4e-05,1e-05,0,-0.0001,-0.00022,-0.00014,-0.00038,6,28
50069,-0.00043,-4e-05,1e-05,0,-0.0001,-0.00022,-0.00014,-0.00038,6,28
50070,-0.00043,-4e-05,1e-05,0,-0.0001,-0.00022,-0.00014,-0.00038,6,28
50071,-0.00043,-4e-05,1e-05,0,-0.0001,-0.00022,-0.00014,-0.00038,6,28
50072,-0.00043,-4e-05,1e-05,0,-0.0001,-0.00022,-0.00014,-0.00038,6,28
50073,-0.00043,-4e-05,1e-05,0,-0.0001,-0.00022,-0.00014,-0.00038,6,28
50074,-0.00043,-4e-05,1e-05,0,-0.0001,-0.00022,-0.00014,-0.00038,6,28
50075,-0.00043,-4e-05,1e-05,0,-0.0001,-0.00022,-0.00014,-0.00038,6,28
50076,-0.00043,-4e-05,1e-05,0,-0.0001,-0.00022,-0.00014,-0.00038,6,28
50077,-0.00043,-4e-05,1e-05,0,-0.0001,-0.00022,-0.00014,-0.00038,6,28
50078,-0.00043,-4e-05,1e-05,0,-0.0001,-0.00022,-0.00014,-0.00038,6,28
50079,-0.00043,-4e-05,1e-05,0,-0.0001,-0.00022,-0.00014,-0.00038,6,28
50080,-0.00043,-4e-05,1e-05,0,-0.0001,-0.00022,-0.00014,-0.00038,6,28
50081,-1e-05,-3e-05,-6e-05,-7e-05,-0.00011,-0.00043,0.00035,0.00014,6,28
50082,-1e-05,1e-05,-1e-05,3e-05,-6e-05,-0.00031,-2e-05,7e-05,6,28
50083,-1e-05,1e-05,-1e-05,3e-05,-6e-05,-0.00031,-2e-05,7e-05,6,28
50084,-1e-05,1e-05,-1e-05,3e-05,-6e-05,-0.00031,-2e-05,7e-05,6,28
50085,-1e-05,1e-05,-1e-05,3e-05,-6e-05,-0.00031,-2e-05,7e-05,6,28
50086,-1e-05,1e-05,-1e-05,3e-05,-6e-05,-0.00031,-2e-05,7e-05,6,28
50089,-1e-05,1e-05,-1e-05,3e-05,-6e-05,-0.00031,-2e-05,7e-05,6,28
50090,-1e-05,1e-05,-1e-05,3e-05,-6e-05,-0.00031,-2e-05,7e-05,6,28
50091,-1e-05,1e-05,-1e-05,3e-05,-6e-05,-0.00031,-2e-05,7e-05,6,28
50092,-1e-05,1e-05,-1e-05,3e-05,-6e-05,-0.00031,-2e-05,7e-05,6,28
50093,-1e-05,1e-05,-1e-05,3e-05,-6e-05,-0.00031,-2e-05,7e-05,6,28
50094,-1e-05,1e-05,-1e-05,3e-05,-6e-05,-0.00031,-2e-05,7e-05,6,28
50095,-1e-05,1e-05,-1e-05,3e-05,-6e-05,-0.00031,-2e-05,7e-05,6,28
50096,0.00016,3e-05,3e-05,7e-05,0.00016,0.00028,0.00013,-0.00013,6,28
50097,0.00022,0,-0.00016,-0.00021,-0.00034,-0.00046,0.00013,-0.00043,6,28
50098,0.00022,0,-0.00016,-0.00021,-0.00034,-0.00046,0.00013,-0.00043,6,28
50099,0.00022,0,-0.00016,-0.00021,-0.00034,-0.00046,0.00013,-0.00043,6,28
50100,0.00022,0,-0.00016,-0.00021,-0.00034,-0.00046,0.00013,-0.00043,6,28
50101,0.00022,0,-0.00016,-0.00021,-0.00034,-0.00046,0.00013,-0.00043,6,28
50102,0.00022,0,-0.00016,-0.00021,-0.00034,-0.00046,0.00013,-0.00043,6,28
50103,0.00022,0,-0.00016,-0.00021,-0.00034,-0.00046,0.00013,-0.00043,6,28
50104,0.00022,0,-0.00016,-0.00021,-0.00034,-0.00046,0.00013,-0.00043,6,28
50105,0.00022,0,-0.00016,-0.00021,-0.00034,-0.00046,0.00013,-0.00043,6,28
50106,0.00022,0,-0.00016,-0.00021,-0.00034,-0.00046,0.00013,-0.00043,6,28
50107,0.00022,0,-0.00016,-0.00021,-0.00034,-0.00046,0.00013,-0.00043,6,28
50108,0.00022,0,-0.00016,-0.00021,-0.00034,-0.00046,0.00013,-0.00043,6,28
50109,0.00022,0,-0.00016,-0.00021,-0.00034,-0.00046,0.00013,-0.00043,6,28
50110,0.00022,0,-0.00016,-0.00021,-0.00034,-0.00046,0.00013,-0.00043,6,28
50111,0.00022,0,-0.00016,-0.00021,-0.00034,-0.00046,0.00013,-0.00043,6,28
50112,0.00022,0,-0.00016,-0.00021,-0.00034,-0.00046,0.00013,-0.00043,6,28
50113,0.00022,0,-0.00016,-0.00021,-0.00034,-0.00046,0.00013,-0.00043,6,28
50114,0.00022,0,-0.00016,-0.00021,-0.00034,-0.00046,0.00013,-0.00043,6,28
50115,0.00022,0,-0.00016,-0.00021,-0.00034,-0.00046,0.00013,-0.00043,6,28
50116,0.00022,0,-0.00016,-0.00021,-0.00034,-0.00046,0.00013,-0.00043,6,28
50117,0.00022,0,-0.00016,-0.00021,-0.00034,-0.00046,0.00013,-0.00043,6,28
50118,0.00022,3e-05,1e-05,0,1e-05,0.00059,0.00039,0.00082,6,28
50119,-0.00018,-5e-05,6e-05,1e-05,1e-05,0.0001,-5e-05,-0.00025,6,28
50120,-0.00018,-5e-05,6e-05,1e-05,1e-05,0.0001,-5e-05,-0.00025,6,28
50121,-0.00018,-5e-05,6e-05,1e-05,1e-05,0.0001,-5e-05,-0.00025,6,28
50122,-0.00018,-5e-05,6e-05,1e-05,1e-05,0.0001,-5e-05,-0.00025,6,28
50123,-0.00018,-5e-05,6e-05,1e-05,1e-05,0.0001,-5e-05,-0.00025,6,28
50124,-0.00018,-5e-05,6e-05,1e-05,1e-05,0.0001,-5e-05,-0.00025,6,28
50125,-0.00018,-5e-05,6e-05,1e-05,1e-05,0.0001,-5e-05,-0.00025,6,28
50126,-0.00018,-5e-05,6e-05,1e-05,1e-05,0.0001,-5e-05,-0.00025,6,28
50127,-0.00018,-5e-05,6e-05,1e-05,1e-05,0.0001,-5e-05,-0.00025,6,28
50128,-0.00018,-5e-05,6e-05,1e-05,1e-05,0.0001,-5e-05,-0.00025,6,28
50129,-0.00018,-5e-05,6e-05,1e-05,1e-05,0.0001,-5e-05,-0.00025,6,28
50130,-0.00018,-5e-05,6e-05,1e-05,1e-05,0.0001,-5e-05,-0.00025,6,28
50131,-0.00018,-5e-05,6e-05,1e-05,1e-05,0.0001,-5e-05,-0.00025,6,28
50132,-0.00018,-5e-05,6e-05,1e-05,1e-05,0.0001,-5e-05,-0.00025,6,28
50133,-0.00018,-5e-05,6e-05,1e-05,1e-05,0.0001,-5e-05,-0.00025,6,28
50134,-0.00018,-5e-05,6e-05,1e-05,1e-05,0.0001,-5e-05,-0.00025,6,28
50135,-0.00018,-5e-05,6e-05,1e-05,1e-05,0.0001,-5e-05,-0.00025,6,28
50136,-0.00018,-5e-05,6e-05,1e-05,1e-05,0.0001,-5e-05,-0.00025,6,28
50139,-0.00018,-5e-05,6e-05,1e-05,1e-05,0.0001,-5e-05,-0.00025,6,28
50140,-0.00018,-5e-05,6e-05,1e-05,1e-05,0.0001,-5e-05,-0.00025,6,28
50141,-7e-05,-4e-05,-4e-05,-1e-05,-4e-05,-0.00021,3e-05,-0.00015,6,28
50142,-0.00051,-0.00012,-4e-05,-5e-05,4e-05,1e-05,-0.00011,-0.00018,6,28
50143,-0.00051,-0.00012,-4e-05,-5e-05,4e-05,1e-05,-0.00011,-0.00018,6,28
50145,-0.00051,-0.00012,-4e-05,-5e-05,4e-05,1e-05,-0.00011,-0.00018,6,28
50146,-0.00051,-0.00012,-4e-05,-5e-05,4e-05,1e-05,-0.00011,-0.00018,6,28
50147,-0.00051,-0.00012,-4e-05,-5e-05,4e-05,1e-05,-0.00011,-0.00018,6,28
50148,-0.00051,-0.00012,-4e-05,-5e-05,4e-05,1e-05,-0.00011,-0.00018,6,28
50149,-0.00051,-0.00012,-4e-05,-5e-05,4e-05,1e-05,-0.00011,-0.00018,6,28
50150,-0.00051,-0.00012,-4e-05,-5e-05,4e-05,1e-05,-0.00011,-0.00018,6,28
50151,-0.00051,-0.00012,-4e-05,-5e-05,4e-05,1e-05,-0.00011,-0.00018,6,28
50152,-0.00051,-0.00012,-4e-05,-5e-05,4e-05,1e-05,-0.00011,-0.00018,6,28
50153,-0.00051,-0.00012,-4e-05,-5e-05,4e-05,1e-05,-0.00011,-0.00018,6,28
50154,-0.00051,-0.00012,-4e-05,-5e-05,4e-05,1e-05,-0.00011,-0.00018,6,28
50155,-0.00051,-0.00012,-4e-05,-5e-05,4e-05,1e-05,-0.00011,-0.00018,6,28
50156,-2e-05,4e-05,-2e-05,-4e-05,-4e-05,0.00012,-0.00012,-5e-05,6,28
50157,0.00024,0.00011,6e-05,7e-05,4e-05,0.00015,0,0.00039,6,28
50158,0.00024,0.00011,6e-05,7e-05,4e-05,0.00015,0,0.00039,6,28
50159,0.00024,0.00011,6e-05,7e-05,4e-05,0.00015,0,0.00039,6,28
50160,0.00024,0.00011,6e-05,7e-05,4e-05,0.00015,0,0.00039,6,28
50161,0.00024,0.00011,6e-05,7e-05,4e-05,0.00015,0,0.00039,6,28
50162,0.00024,0.00011,6e-05,7e-05,4e-05,0.00015,0,0.00039,6,28
50163,0.00024,0.00011,6e-05,7e-05,4e-05,0.00015,0,0.00039,6,28
50164,0.00024,0.00011,6e-05,7e-05,4e-05,0.00015,0,0.00039,6,28
50165,0.00024,0.00011,6e-05,7e-05,4e-05,0.00015,0,0.00039,6,28
50166,0.00024,0.00011,6e-05,7e-05,4e-05,0.00015,0,0.00039,6,28
50167,0.00024,0.00011,6e-05,7e-05,4e-05,0.00015,0,0.00039,6,28
50168,0.00024,0.00011,6e-05,7e-05,4e-05,0.00015,0,0.00039,6,28
50169,0.00024,0.00011,6e-05,7e-05,4e-05,0.00015,0,0.00039,6,28
50170,0.00024,0.00011,6e-05,7e-05,4e-05,0.00015,0,0.00039,6,28
50171,0.00024,0.00011,6e-05,7e-05,4e-05,0.00015,0,0.00039,6,28
50172,0.00024,0.00011,6e-05,7e-05,4e-05,0.00015,0,0.00039,6,28
50173,0.00024,0.00011,6e-05,7e-05,4e-05,0.00015,0,0.00039,6,28
50174,0.00024,0.00011,6e-05,7e-05,4e-05,0.00015,0,0.00039,6,28
50175,0.00024,0.00011,6e-05,7e-05,4e-05,0.00015,0,0.00039,6,28
50176,0.00024,0.00011,6e-05,7e-05,4e-05,0.00015,0,0.00039,6,28
50177,0.00024,0.00011,6e-05,7e-05,4e-05,0.00015,0,0.00039,6,28
50178,-0.00026,-4e-05,-4e-05,-1e-05,-4e-05,-0.00017,2e-05,-0.00014,6,28
50179,-3e-05,-3e-05,-3e-05,1e-05,-1e-05,-0.00022,-5e-05,-3e-05,6,28
50180,-3e-05,-3e-05,-3e-05,1e-05,-1e-05,-0.00022,-5e-05,-3e-05,6,28
50181,-3e-05,-3e-05,-3e-05,1e-05,-1e-05,-0.00022,-5e-05,-3e-05,6,28
50182,-3e-05,-3e-05,-3e-05,1e-05,-1e-05,-0.00022,-5e-05,-3e-05,6,28
50183,-3e-05,-3e-05,-3e-05,1e-05,-1e-05,-0.00022,-5e-05,-3e-05,6,28
50184,-3e-05,-3e-05,-3e-05,1e-05,-1e-05,-0.00022,-5e-05,-3e-05,6,28
50185,-3e-05,-3e-05,-3e-05,1e-05,-1e-05,-0.00022,-5e-05,-3e-05,6,28
50186,-3e-05,-3e-05,-3e-05,1e-05,-1e-05,-0.00022,-5e-05,-3e-05,6,28
50189,-3e-05,-3e-05,-3e-05,1e-05,-1e-05,-0.00022,-5e-05,-3e-05,6,28
50190,-3e-05,-3e-05,-3e-05,1e-05,-1e-05,-0.00022,-5e-05,-3e-05,6,28
50191,-3e-05,-3e-05,-3e-05,1e-05,-1e-05,-0.00022,-5e-05,-3e-05,6,28
50192,-3e-05,-3e-05,-3e-05,1e-05,-1e-05,-0.00022,-5e-05,-3e-05,6,28
50193,-3e-05,-3e-05,-3e-05,1e-05,-1e-05,-0.00022,-5e-05,-3e-05,6,28
50194,-3e-05,-3e-05,-3e-05,1e-05,-1e-05,-0.00022,-5e-05,-3e-05,6,28
50195,-3e-05,-3e-05,-3e-05,1e-05,-1e-05,-0.00022,-5e-05,-3e-05,6,28
50196,-3e-05,-3e-05,-3e-05,1e-05,-1e-05,-0.00022,-5e-05,-3e-05,6,28
50197,-3e-05,-3e-05,-3e-05,1e-05,-1e-05,-0.00022,-5e-05,-3e-05,6,28
50198,-3e-05,-3e-05,-3e-05,1e-05,-1e-05,-0.00022,-5e-05,-3e-05,6,28
50199,-3e-05,-3e-05,-3e-05,1e-05,-1e-05,-0.00022,-5e-05,-3e-05,6,28
50200,-3e-05,-3e-05,-3e-05,1e-05,-1e-05,-0.00022,-5e-05,-3e-05,6,28
50201,2e-05,-4e-05,-2e-05,1e-05,4e-05,-0.00012,-6e-05,-2e-05,6,28
50202,0.00017,6e-05,0.00012,5e-05,5e-05,0.00028,-4e-05,0.00017,6,28
50203,0.00017,6e-05,0.00012,5e-05,5e-05,0.00028,-4e-05,0.00017,6,28
50204,0.00017,6e-05,0.00012,5e-05,5e-05,0.00028,-4e-05,0.00017,6,28
50205,0.00017,6e-05,0.00012,5e-05,5e-05,0.00028,-4e-05,0.00017,6,28
50206,0.00017,6e-05,0.00012,5e-05,5e-05,0.00028,-4e-05,0.00017,6,28
50207,0.00017,6e-05,0.00012,5e-05,5e-05,0.00028,-4e-05,0.00017,6,28
50208,0.00017,6e-05,0.00012,5e-05,5e-05,0.00028,-4e-05,0.00017,6,28
50209,0.00017,6e-05,0.00012,5e-05,5e-05,0.00028,-4e-05,0.00017,6,28
50210,0.00017,6e-05,0.00012,5e-05,5e-05,0.00028,-4e-05,0.00017,6,28
50211,0.00017,6e-05,0.00012,5e-05,5e-05,0.00028,-4e-05,0.00017,6,28
50212,0.00017,6e-05,0.00012,5e-05,5e-05,0.00028,-4e-05,0.00017,6,28
50213,0.00017,6e-05,0.00012,5e-05,5e-05,0.00028,-4e-05,0.00017,6,28
50214,0.00017,6e-05,0.00012,5e-05,5e-05,0.00028,-4e-05,0.00017,6,28
50215,0.00017,6e-05,0.00012,5e-05,5e-05,0.00028,-4e-05,0.00017,6,28
50216,-0.00058,-0.00015,2e-05,-2e-05,1e-05,-2e-05,-2e-05,0.00012,6,28
50217,5e-05,0,-3e-05,-4e-05,-0.00024,-0.00046,7e-05,0.00021,6,28
50218,5e-05,0,-3e-05,-4e-05,-0.00024,-0.00046,7e-05,0.00021,6,28
50219,5e-05,0,-3e-05,-4e-05,-0.00024,-0.00046,7e-05,0.00021,6,28
50220,5e-05,0,-3e-05,-4e-05,-0.00024,-0.00046,7e-05,0.00021,6,28
50221,5e-05,0,-3e-05,-4e-05,-0.00024,-0.00046,7e-05,0.00021,6,28
50222,5e-05,0,-3e-05,-4e-05,-0.00024,-0.00046,7e-05,0.00021,6,28
50223,5e-05,0,-3e-05,-4e-05,-0.00024,-0.00046,7e-05,0.00021,6,28
50224,5e-05,0,-3e-05,-4e-05,-0.00024,-0.00046,7e-05,0.00021,6,28
50225,5e-05,0,-3e-05,-4e-05,-0.00024,-0.00046,7e-05,0.00021,6,28
50226,5e-05,0,-3e-05,-4e-05,-0.00024,-0.00046,7e-05,0.00021,6,28
50227,5e-05,0,-3e-05,-4e-05,-0.00024,-0.00046,7e-05,0.00021,6,28
50228,5e-05,0,-3e-05,-4e-05,-0.00024,-0.00046,7e-05,0.00021,6,28
50229,5e-05,0,-3e-05,-4e-05,-0.00024,-0.00046,7e-05,0.00021,6,28
50230,5e-05,0,-3e-05,-4e-05,-0.00024,-0.00046,7e-05,0.00021,6,28
50231,5e-05,0,-3e-05,-4e-05,-0.00024,-0.00046,7e-05,0.00021,6,28
50232,5e-05,0,-3e-05,-4e-05,-0.00024,-0.00046,7e-05,0.00021,6,28
50233,5e-05,0,-3e-05,-4e-05,-0.00024,-0.00046,7e-05,0.00021,6,28
50234,5e-05,0,-3e-05,-4e-05,-0.00024,-0.00046,7e-05,0.00021,6,28
50235,5e-05,0,-3e-05,-4e-05,-0.00024,-0.00046,7e-05,0.00021,6,28
50236,5e-05,0,-3e-05,-4e-05,-0.00024,-0.00046,7e-05,0.00021,6,28
50239,0.00025,0.0001,2e-05,2e-05,-7e-05,0.00035,-2e-05,-3e-05,6,28
50240,0.00025,0.0001,2e-05,2e-05,-7e-05,0.00035,-2e-05,-3e-05,6,28
50241,0.00025,0.0001,2e-05,2e-05,-7e-05,0.00035,-2e-05,-3e-05,6,28
50242,0.00025,0.0001,2e-05,2e-05,-7e-05,0.00035,-2e-05,-3e-05,6,28
50243,0.00025,0.0001,2e-05,2e-05,-7e-05,0.00035,-2e-05,-3e-05,6,28
50244,0.00025,0.0001,2e-05,2e-05,-7e-05,0.00035,-2e-05,-3e-05,6,28
50245,0.00025,0.0001,2e-05,2e-05,-7e-05,0.00035,-2e-05,-3e-05,6,28
50246,0.00025,0.0001,2e-05,2e-05,-7e-05,0.00035,-2e-05,-3e-05,6,28
50247,0.00025,0.0001,2e-05,2e-05,-7e-05,0.00035,-2e-05,-3e-05,6,28
50248,0.00025,0.0001,2e-05,2e-05,-7e-05,0.00035,-2e-05,-3e-05,6,28
50249,0.00025,0.0001,2e-05,2e-05,-7e-05,0.00035,-2e-05,-3e-05,6,28
50250,0.00025,0.0001,2e-05,2e-05,-7e-05,0.00035,-2e-05,-3e-05,6,28
50251,0.00025,0.0001,2e-05,2e-05,-7e-05,0.00035,-2e-05,-3e-05,6,28
50252,0.00025,0.0001,2e-05,2e-05,-7e-05,0.00035,-2e-05,-3e-05,6,28
50253,0.00025,0.0001,2e-05,2e-05,-7e-05,0.00035,-2e-05,-3e-05,6,28
50254,0.00025,0.0001,2e-05,2e-05,-7e-05,0.00035,-2e-05,-3e-05,6,28
50255,0.00025,0.0001,2e-05,2e-05,-7e-05,0.00035,-2e-05,-3e-05,6,28
50256,0.00025,0.0001,2e-05,2e-05,-7e-05,0.00035,-2e-05,-3e-05,6,28
50257,0.00025,0.0001,2e-05,2e-05,-7e-05,0.00035,-2e-05,-3e-05,6,28
50258,0.00025,0.0001,2e-05,2e-05,-7e-05,0.00035,-2e-05,-3e-05,6,28
50259,0.00025,0.0001,2e-05,2e-05,-7e-05,0.00035,-2e-05,-3e-05,6,28
50260,0.00025,0.0001,2e-05,2e-05,-7e-05,0.00035,-2e-05,-3e-05,6,28
50261,0.0001,-5e-05,-0.00014,-0.00018,-0.00027,0.00022,0.00044,-3e-05,6,28
50262,-5e-05,-9e-05,-1e-05,0,8e-05,0.00035,-2e-05,8e-05,6,28
50263,-5e-05,-9e-05,-1e-05,0,8e-05,0.00035,-2e-05,8e-05,6,28
50264,-5e-05,-9e-05,-1e-05,0,8e-05,0.00035,-2e-05,8e-05,6,28
50265,-5e-05,-9e-05,-1e-05,0,8e-05,0.00035,-2e-05,8e-05,6,28
50266,-5e-05,-9e-05,-1e-05,0,8e-05,0.00035,-2e-05,8e-05,6,28
50267,-5e-05,-9e-05,-1e-05,0,8e-05,0.00035,-2e-05,8e-05,6,28
50268,-5e-05,-9e-05,-1e-05,0,8e-05,0.00035,-2e-05,8e-05,6,28
50269,-5e-05,-9e-05,-1e-05,0,8e-05,0.00035,-2e-05,8e-05,6,28
50270,-5e-05,-9e-05,-1e-05,0,8e-05,0.00035,-2e-05,8e-05,6,28
50271,-5e-05,-9e-05,-1e-05,0,8e-05,0.00035,-2e-05,8e-05,6,28
50272,-5e-05,-9e-05,-1e-05,0,8e-05,0.00035,-2e-05,8e-05,6,28
50273,-5e-05,-9e-05,-1e-05,0,8e-05,0.00035,-2e-05,8e-05,6,28
50274,-5e-05,-9e-05,-1e-05,0,8e-05,0.00035,-2e-05,8e-05,6,28
50275,0.00035,-1e-05,-7e-05,-0.00013,-9e-05,0.00045,-0.00011,-0.0005,6,28
50276,0.00035,-1e-05,-7e-05,-0.00013,-9e-05,0.00045,-0.00011,-0.0005,6,28
50277,0.00035,-1e-05,-7e-05,-0.00013,-9e-05,0.00045,-0.00011,-0.0005,6,28
50278,0.00035,-1e-05,-7e-05,-0.00013,-9e-05,0.00045,-0.00011,-0.0005,6,28
50279,0.00035,-1e-05,-7e-05,-0.00013,-9e-05,0.00045,-0.00011,-0.0005,6,28
50280,0.00035,-1e-05,-7e-05,-0.00013,-9e-05,0.00045,-0.00011,-0.0005,6,28
50281,0.00035,-1e-05,-7e-05,-0.00013,-9e-05,0.00045,-0.00011,-0.0005,6,28
50282,0.00035,-1e-05,-7e-05,-0.00013,-9e-05,0.00045,-0.00011,-0.0005,6,28
50283,0.00035,-1e-05,-7e-05,-0.00013,-9e-05,0.00045,-0.00011,-0.0005,6,28
50284,0.00043,0.0001,7e-05,0.00013,0.00011,0.00017,0.00015,0.00051,6,28
50285,0.00043,0.0001,7e-05,0.00013,0.00011,0.00017,0.00015,0.00051,6,28
50286,0.00043,0.0001,7e-05,0.00013,0.00011,0.00017,0.00015,0.00051,6,28
50288,0.00043,0.0001,7e-05,0.00013,0.00011,0.00017,0.00015,0.00051,6,28
50290,0.00043,0.0001,7e-05,0.00013,0.00011,0.00017,0.00015,0.00051,6,28
50291,0.00043,0.0001,7e-05,0.00013,0.00011,0.00017,0.00015,0.00051,6,28
50292,0.00043,0.0001,7e-05,0.00013,0.00011,0.00017,0.00015,0.00051,6,28
50293,0.00043,0.0001,7e-05,0.00013,0.00011,0.00017,0.00015,0.00051,6,28
50294,0.00043,0.0001,7e-05,0.00013,0.00011,0.00017,0.00015,0.00051,6,28
50295,0.00043,0.0001,7e-05,0.00013,0.00011,0.00017,0.00015,0.00051,6,28
50296,0.00043,0.0001,7e-05,0.00013,0.00011,0.00017,0.00015,0.00051,6,28
50297,0.00043,0.0001,7e-05,0.00013,0.00011,0.00017,0.00015,0.00051,6,28
50298,-0.0001,0,-7e-05,-1e-05,-3e-05,-9e-05,-0.00011,-0.00014,6,28
50299,-0.00029,-0.0001,-6e-05,-6e-05,-0.00021,-7e-05,-7e-05,-0.00015,6,28
50300,-0.00045,-1e-05,1e-05,4e-05,9e-05,4e-05,-0.00014,-0.00019,6,28
50301,-0.00045,-1e-05,1e-05,4e-05,9e-05,4e-05,-0.00014,-0.00019,6,28
50302,-0.00045,-1e-05,1e-05,4e-05,9e-05,4e-05,-0.00014,-0.00019,6,28
50303,-0.00045,-1e-05,1e-05,4e-05,9e-05,4e-05,-0.00014,-0.00019,6,28
50304,-0.00045,-1e-05,1e-05,4e-05,9e-05,4e-05,-0.00014,-0.00019,6,28
50305,-0.00045,-1e-05,1e-05,4e-05,9e-05,4e-05,-0.00014,-0.00019,6,28
50306,-0.00045,-1e-05,1e-05,4e-05,9e-05,4e-05,-0.00014,-0.00019,6,28
50307,-0.00045,-1e-05,1e-05,4e-05,9e-05,4e-05,-0.00014,-0.00019,6,28
50308,-0.00045,-1e-05,1e-05,4e-05,9e-05,4e-05,-0.00014,-0.00019,6,28
50309,-0.00045,-1e-05,1e-05,4e-05,9e-05,4e-05,-0.00014,-0.00019,6,28
50310,-0.00045,-1e-05,1e-05,4e-05,9e-05,4e-05,-0.00014,-0.00019,6,28
50311,-0.00045,-1e-05,1e-05,4e-05,9e-05,4e-05,-0.00014,-0.00019,6,28
50312,-0.00045,-1e-05,1e-05,4e-05,9e-05,4e-05,-0.00014,-0.00019,6,28
50313,-0.00045,-1e-05,1e-05,4e-05,9e-05,4e-05,-0.00014,-0.00019,6,28
50314,-0.00045,-1e-05,1e-05,4e-05,9e-05,4e-05,-0.00014,-0.00019,6,28
50315,-0.00045,-1e-05,1e-05,4e-05,9e-05,4e-05,-0.00014,-0.00019,6,28
50316,-0.00045,-1e-05,1e-05,4e-05,9e-05,4e-05,-0.00014,-0.00019,6,28
50317,-0.00045,-1e-05,1e-05,4e-05,9e-05,4e-05,-0.00014,-0.00019,6,28
50318,-0.00045,-1e-05,1e-05,4e-05,9e-05,4e-05,-0.00014,-0.00019,6,28
50319,-0.00045,-1e-05,1e-05,4e-05,9e-05,4e-05,-0.00014,-0.00019,6,28
50320,-0.00045,-1e-05,1e-05,4e-05,9e-05,4e-05,-0.00014,-0.00019,6,28
50321,-0.00045,-1e-05,1e-05,4e-05,9e-05,4e-05,-0.00014,-0.00019,6,28
50322,-0.00045,-1e-05,1e-05,4e-05,9e-05,4e-05,-0.00014,-0.00019,6,28
50323,-0.00045,-1e-05,1e-05,4e-05,9e-05,4e-05,-0.00014,-0.00019,6,28
50324,-0.00045,-1e-05,1e-05,4e-05,9e-05,4e-05,-0.00014,-0.00019,6,28
50325,-0.00045,-1e-05,1e-05,4e-05,9e-05,4e-05,-0.00014,-0.00019,6,28
50326,-0.00045,-1e-05,1e-05,4e-05,9e-05,4e-05,-0.00014,-0.00019,6,28
50327,-0.00045,-1e-05,1e-05,4e-05,9e-05,4e-05,-0.00014,-0.00019,6,28
50328,-0.00045,-1e-05,1e-05,4e-05,9e-05,4e-05,-0.00014,-0.00019,6,28
50329,1e-05,-7e-05,0,4e-05,7e-05,0.00017,-5e-05,-0.00026,6,28
50330,-2e-05,-3e-05,1e-05,3e-05,0.00013,0.00012,-0.00013,-0.00011,6,28
50331,-2e-05,-3e-05,1e-05,3e-05,0.00013,0.00012,-0.00013,-0.00011,6,28
50332,-2e-05,-3e-05,1e-05,3e-05,0.00013,0.00012,-0.00013,-0.00011,6,28
50333,-2e-05,-3e-05,1e-05,3e-05,0.00013,0.00012,-0.00013,-0.00011,6,28
50334,-2e-05,-3e-05,1e-05,3e-05,0.00013,0.00012,-0.00013,-0.00011,6,28
50335,0,-6e-05,-3e-05,-1e-05,7e-05,0.00013,5e-05,7e-05,6,28
50336,0,-6e-05,-3e-05,-1e-05,7e-05,0.00013,5e-05,7e-05,6,28
50338,0,-6e-05,-3e-05,-1e-05,7e-05,0.00013,5e-05,7e-05,6,28
50339,0,-6e-05,-3e-05,-1e-05,7e-05,0.00013,5e-05,7e-05,6,28
50340,0,-6e-05,-3e-05,-1e-05,7e-05,0.00013,5e-05,7e-05,6,28
50341,0,-6e-05,-3e-05,-1e-05,7e-05,0.00013,5e-05,7e-05,6,28
50342,0,-6e-05,-3e-05,-1e-05,7e-05,0.00013,5e-05,7e-05,6,28
50343,0.00022,0,-4e-05,-5e-05,2e-05,8e-05,0,0.0003,6,28
50344,0.00022,0,-4e-05,-5e-05,2e-05,8e-05,0,0.0003,6,28
50345,0.00022,0,-4e-05,-5e-05,2e-05,8e-05,0,0.0003,6,28
50346,0.00022,0,-4e-05,-5e-05,2e-05,8e-05,0,0.0003,6,28
50347,0.00022,0,-4e-05,-5e-05,2e-05,8e-05,0,0.0003,6,28
50348,0.00022,0,-4e-05,-5e-05,2e-05,8e-05,0,0.0003,6,28
50349,0.00022,0,-4e-05,-5e-05,2e-05,8e-05,0,0.0003,6,28
50350,0.00022,0,-4e-05,-5e-05,2e-05,8e-05,0,0.0003,6,28
50351,0.00022,0,-4e-05,-5e-05,2e-05,8e-05,0,0.0003,6,28
50352,0.00022,0,-4e-05,-5e-05,2e-05,8e-05,0,0.0003,6,28
50353,0.00022,0,-4e-05,-5e-05,2e-05,8e-05,0,0.0003,6,28
50354,0.00022,0,-4e-05,-5e-05,2e-05,8e-05,0,0.0003,6,28
50355,0.00022,0,-4e-05,-5e-05,2e-05,8e-05,0,0.0003,6,28
50356,0.00022,0,-4e-05,-5e-05,2e-05,8e-05,0,0.0003,6,28
50357,0.00022,0,-4e-05,-5e-05,2e-05,8e-05,0,0.0003,6,28
50358,-3e-05,-1e-05,1e-05,5e-05,0.00015,0.00021,0.00027,-8e-05,6,28
50359,4e-05,0,-5e-05,-0.0001,-8e-05,-4e-05,3e-05,-0.00017,6,28
50360,4e-05,0,-5e-05,-0.0001,-8e-05,-4e-05,3e-05,-0.00017,6,28
50361,4e-05,0,-5e-05,-0.0001,-8e-05,-4e-05,3e-05,-0.00017,6,28
50362,4e-05,0,-5e-05,-0.0001,-8e-05,-4e-05,3e-05,-0.00017,6,28
50363,4e-05,0,-5e-05,-0.0001,-8e-05,-4e-05,3e-05,-0.00017,6,28
50364,4e-05,0,-5e-05,-0.0001,-8e-05,-4e-05,3e-05,-0.00017,6,28
50365,4e-05,0,-5e-05,-0.0001,-8e-05,-4e-05,3e-05,-0.00017,6,28
50366,4e-05,0,-5e-05,-0.0001,-8e-05,-4e-05,3e-05,-0.00017,6,28
50367,4e-05,0,-5e-05,-0.0001,-8e-05,-4e-05,3e-05,-0.00017,6,28
50368,4e-05,0,-5e-05,-0.0001,-8e-05,-4e-05,3e-05,-0.00017,6,28
50369,4e-05,0,-5e-05,-0.0001,-8e-05,-4e-05,3e-05,-0.00017,6,28
50370,4e-05,0,-5e-05,-0.0001,-8e-05,-4e-05,3e-05,-0.00017,6,28
50371,4e-05,0,-5e-05,-0.0001,-8e-05,-4e-05,3e-05,-0.00017,6,28
50372,4e-05,0,-5e-05,-0.0001,-8e-05,-4e-05,3e-05,-0.00017,6,28
50373,4e-05,0,-5e-05,-0.0001,-8e-05,-4e-05,3e-05,-0.00017,6,28
50374,4e-05,0,-5e-05,-0.0001,-8e-05,-4e-05,3e-05,-0.00017,6,28
50375,4e-05,0,-5e-05,-0.0001,-8e-05,-4e-05,3e-05,-0.00017,6,28
50376,4e-05,0,-5e-05,-0.0001,-8e-05,-4e-05,3e-05,-0.00017,6,28
50377,4e-05,0,-5e-05,-0.0001,-8e-05,-4e-05,3e-05,-0.00017,6,28
50378,4e-05,0,-5e-05,-0.0001,-8e-05,-4e-05,3e-05,-0.00017,6,28
50379,4e-05,0,-5e-05,-0.0001,-8e-05,-4e-05,3e-05,-0.00017,6,28
50380,4e-05,0,-5e-05,-0.0001,-8e-05,-4e-05,3e-05,-0.00017,6,28
50381,-7e-05,-1e-05,3e-05,1e-05,4e-05,0.00011,-0.00019,0.00012,6,28
50382,0.00048,0.0001,0,-4e-05,-1e-05,-2e-05,-0.00016,-0.00058,6,28
50383,0.00048,0.0001,0,-4e-05,-1e-05,-2e-05,-0.00016,-0.00058,6,28
50384,0.00048,0.0001,0,-4e-05,-1e-05,-2e-05,-0.00016,-0.00058,6,28
50385,0.00048,0.0001,0,-4e-05,-1e-05,-2e-05,-0.00016,-0.00058,6,28
50386,0.00048,0.0001,0,-4e-05,-1e-05,-2e-05,-0.00016,-0.00058,6,28
50388,0.00048,0.0001,0,-4e-05,-1e-05,-2e-05,-0.00016,-0.00058,6,28
50389,0.00048,0.0001,0,-4e-05,-1e-05,-2e-05,-0.00016,-0.00058,6,28
50390,0.00048,0.0001,0,-4e-05,-1e-05,-2e-05,-0.00016,-0.00058,6,28
50391,0.00048,0.0001,0,-4e-05,-1e-05,-2e-05,-0.00016,-0.00058,6,28
