26533,-0.00093,-0.00013,-2e-05,4e-05,-6e-05,0.00015,0.00013,-0.00052,6,4
26534,-0.00093,-0.00013,-2e-05,4e-05,-6e-05,0.00015,0.00013,-0.00052,6,4
26535,-0.00093,-0.00013,-2e-05,4e-05,-6e-05,0.00015,0.00013,-0.00052,6,4
26536,0.00058,0.00025,2e-05,0.00016,7e-05,0.00023,0.00022,0.00035,6,4
26538,6e-05,-5e-05,-5e-05,7e-05,0.00036,0.00027,0.00015,-2e-05,6,4
26539,6e-05,-5e-05,-5e-05,7e-05,0.00036,0.00027,0.00015,-2e-05,6,4
26541,6e-05,-5e-05,-5e-05,7e-05,0.00036,0.00027,0.00015,-2e-05,6,4
26542,6e-05,-5e-05,-5e-05,7e-05,0.00036,0.00027,0.00015,-2e-05,6,4
26543,6e-05,-5e-05,-5e-05,7e-05,0.00036,0.00027,0.00015,-2e-05,6,4
26544,6e-05,-5e-05,-5e-05,7e-05,0.00036,0.00027,0.00015,-2e-05,6,4
26545,6e-05,-5e-05,-5e-05,7e-05,0.00036,0.00027,0.00015,-2e-05,6,4
26546,6e-05,-5e-05,-5e-05,7e-05,0.00036,0.00027,0.00015,-2e-05,6,4
26547,6e-05,-5e-05,-5e-05,7e-05,0.00036,0.00027,0.00015,-2e-05,6,4
26548,6e-05,-5e-05,-5e-05,7e-05,0.00036,0.00027,0.00015,-2e-05,6,4
26549,6e-05,-5e-05,-5e-05,7e-05,0.00036,0.00027,0.00015,-2e-05,6,4
26550,6e-05,-5e-05,-5e-05,7e-05,0.00036,0.00027,0.00015,-2e-05,6,4
26551,6e-05,-5e-05,-5e-05,7e-05,0.00036,0.00027,0.00015,-2e-05,6,4
26552,6e-05,-5e-05,-5e-05,7e-05,0.00036,0.00027,0.00015,-2e-05,6,4
26553,6e-05,-5e-05,-5e-05,7e-05,0.00036,0.00027,0.00015,-2e-05,6,4
26554,6e-05,-5e-05,-5e-05,7e-05,0.00036,0.00027,0.00015,-2e-05,6,4
26555,6e-05,-5e-05,-5e-05,7e-05,0.00036,0.00027,0.00015,-2e-05,6,4
26556,6e-05,-5e-05,-5e-05,7e-05,0.00036,0.00027,0.00015,-2e-05,6,4
26557,6e-05,-5e-05,-5e-05,7e-05,0.00036,0.00027,0.00015,-2e-05,6,4
26558,-0.0003,0,1e-05,4e-05,0.00041,8e-05,-0.00017,-0.00034,6,4
26559,-0.0003,0,1e-05,4e-05,0.00041,8e-05,-0.00017,-0.00034,6,4
26560,0.00034,6e-05,-3e-05,-0.00011,-5e-05,0.00023,0.00013,0.00033,6,4
26561,0.00034,6e-05,-3e-05,-0.00011,-5e-05,0.00023,0.00013,0.00033,6,4
26562,0.00034,6e-05,-3e-05,-0.00011,-5e-05,0.00023,0.00013,0.00033,6,4
26563,0.00034,6e-05,-3e-05,-0.00011,-5e-05,0.00023,0.00013,0.00033,6,4
26564,0.00034,6e-05,-3e-05,-0.00011,-5e-05,0.00023,0.00013,0.00033,6,4
26565,0.00034,6e-05,-3e-05,-0.00011,-5e-05,0.00023,0.00013,0.00033,6,4
26566,0.00034,6e-05,-3e-05,-0.00011,-5e-05,0.00023,0.00013,0.00033,6,4
26567,0.00034,6e-05,-3e-05,-0.00011,-5e-05,0.00023,0.00013,0.00033,6,4
26568,0.00034,6e-05,-3e-05,-0.00011,-5e-05,0.00023,0.00013,0.00033,6,4
26569,0.00034,6e-05,-3e-05,-0.00011,-5e-05,0.00023,0.00013,0.00033,6,4
26570,0.00034,6e-05,-3e-05,-0.00011,-5e-05,0.00023,0.00013,0.00033,6,4
26571,0.00034,6e-05,-3e-05,-0.00011,-5e-05,0.00023,0.00013,0.00033,6,4
26572,0.00026,4e-05,4e-05,-1e-05,2e-05,-0.00033,0.00022,-5e-05,6,4
26573,0.00026,4e-05,4e-05,-1e-05,2e-05,-0.00033,0.00022,-5e-05,6,4
26574,0.00026,4e-05,4e-05,-1e-05,2e-05,-0.00033,0.00022,-5e-05,6,4
26575,0.00026,4e-05,4e-05,-1e-05,2e-05,-0.00033,0.00022,-5e-05,6,4
26576,0.00026,4e-05,4e-05,-1e-05,2e-05,-0.00033,0.00022,-5e-05,6,4
26577,0.00026,4e-05,4e-05,-1e-05,2e-05,-0.00033,0.00022,-5e-05,6,4
26578,0.00026,4e-05,4e-05,-1e-05,2e-05,-0.00033,0.00022,-5e-05,6,4
26579,0.00026,4e-05,4e-05,-1e-05,2e-05,-0.00033,0.00022,-5e-05,6,4
26580,0.00026,4e-05,4e-05,-1e-05,2e-05,-0.00033,0.00022,-5e-05,6,4
26581,1e-05,-3e-05,5e-05,6e-05,0.00015,0.00011,1e-05,7e-05,6,4
26582,1e-05,-3e-05,5e-05,6e-05,0.00015,0.00011,1e-05,7e-05,6,4
26583,1e-05,-3e-05,5e-05,6e-05,0.00015,0.00011,1e-05,7e-05,6,4
26584,1e-05,-3e-05,5e-05,6e-05,0.00015,0.00011,1e-05,7e-05,6,4
26585,1e-05,-3e-05,5e-05,6e-05,0.00015,0.00011,1e-05,7e-05,6,4
26586,1e-05,-3e-05,5e-05,6e-05,0.00015,0.00011,1e-05,7e-05,6,4
26587,1e-05,-3e-05,5e-05,6e-05,0.00015,0.00011,1e-05,7e-05,6,4
26589,1e-05,-3e-05,5e-05,6e-05,0.00015,0.00011,1e-05,7e-05,6,4
26590,1e-05,-3e-05,5e-05,6e-05,0.00015,0.00011,1e-05,7e-05,6,4
26591,1e-05,-3e-05,5e-05,6e-05,0.00015,0.00011,1e-05,7e-05,6,4
26592,1e-05,-3e-05,5e-05,6e-05,0.00015,0.00011,1e-05,7e-05,6,4
26593,1e-05,-3e-05,5e-05,6e-05,0.00015,0.00011,1e-05,7e-05,6,4
26594,1e-05,-3e-05,5e-05,6e-05,0.00015,0.00011,1e-05,7e-05,6,4
26595,1e-05,-3e-05,5e-05,6e-05,0.00015,0.00011,1e-05,7e-05,6,4
26596,-0.00019,-0.00011,-6e-05,2e-05,6e-05,-0.00017,-0.00017,-0.00013,6,4
26597,-0.00019,-0.00011,-6e-05,2e-05,6e-05,-0.00017,-0.00017,-0.00013,6,4
26598,-6e-05,3e-05,5e-05,2e-05,-6e-05,0.00013,0.0001,-0.00014,6,4
26599,-6e-05,3e-05,5e-05,2e-05,-6e-05,0.00013,0.0001,-0.00014,6,4
26600,-6e-05,3e-05,5e-05,2e-05,-6e-05,0.00013,0.0001,-0.00014,6,4
26601,-6e-05,3e-05,5e-05,2e-05,-6e-05,0.00013,0.0001,-0.00014,6,4
26602,-6e-05,3e-05,5e-05,2e-05,-6e-05,0.00013,0.0001,-0.00014,6,4
26603,-6e-05,3e-05,5e-05,2e-05,-6e-05,0.00013,0.0001,-0.00014,6,4
26604,-6e-05,3e-05,5e-05,2e-05,-6e-05,0.00013,0.0001,-0.00014,6,4
26605,-6e-05,3e-05,5e-05,2e-05,-6e-05,0.00013,0.0001,-0.00014,6,4
26606,-6e-05,3e-05,5e-05,2e-05,-6e-05,0.00013,0.0001,-0.00014,6,4
26607,-6e-05,3e-05,5e-05,2e-05,-6e-05,0.00013,0.0001,-0.00014,6,4
26608,-6e-05,3e-05,5e-05,2e-05,-6e-05,0.00013,0.0001,-0.00014,6,4
26609,-6e-05,3e-05,5e-05,2e-05,-6e-05,0.00013,0.0001,-0.00014,6,4
26610,-6e-05,3e-05,5e-05,2e-05,-6e-05,0.00013,0.0001,-0.00014,6,4
26611,-6e-05,3e-05,5e-05,2e-05,-6e-05,0.00013,0.0001,-0.00014,6,4
26612,-6e-05,3e-05,5e-05,2e-05,-6e-05,0.00013,0.0001,-0.00014,6,4
26613,-6e-05,3e-05,5e-05,2e-05,-6e-05,0.00013,0.0001,-0.00014,6,4
26614,-6e-05,3e-05,5e-05,2e-05,-6e-05,0.00013,0.0001,-0.00014,6,4
26615,-6e-05,3e-05,5e-05,2e-05,-6e-05,0.00013,0.0001,-0.00014,6,4
26616,-6e-05,3e-05,5e-05,2e-05,-6e-05,0.00013,0.0001,-0.00014,6,4
26617,-6e-05,3e-05,5e-05,2e-05,-6e-05,0.00013,0.0001,-0.00014,6,4
26618,-0.00012,-9e-05,-8e-05,-6e-05,7e-05,0.00021,0,-5e-05,6,4
26619,-0.00012,-9e-05,-8e-05,-6e-05,7e-05,0.00021,0,-5e-05,6,4
26620,-0.00027,1e-05,6e-05,4e-05,-3e-05,1e-05,-1e-05,-0.00024,6,4
26621,-0.00027,1e-05,6e-05,4e-05,-3e-05,1e-05,-1e-05,-0.00024,6,4
26622,-0.00027,1e-05,6e-05,4e-05,-3e-05,1e-05,-1e-05,-0.00024,6,4
26623,-0.00027,1e-05,6e-05,4e-05,-3e-05,1e-05,-1e-05,-0.00024,6,4
26624,-0.00027,1e-05,6e-05,4e-05,-3e-05,1e-05,-1e-05,-0.00024,6,4
26625,-0.00027,1e-05,6e-05,4e-05,-3e-05,1e-05,-1e-05,-0.00024,6,4
26626,-0.00027,1e-05,6e-05,4e-05,-3e-05,1e-05,-1e-05,-0.00024,6,4
26627,-0.00027,1e-05,6e-05,4e-05,-3e-05,1e-05,-1e-05,-0.00024,6,4
26628,-0.00027,1e-05,6e-05,4e-05,-3e-05,1e-05,-1e-05,-0.00024,6,4
26629,-0.00027,1e-05,6e-05,4e-05,-3e-05,1e-05,-1e-05,-0.00024,6,4
26630,-0.00027,1e-05,6e-05,4e-05,-3e-05,1e-05,-1e-05,-0.00024,6,4
26631,-0.00027,1e-05,6e-05,4e-05,-3e-05,1e-05,-1e-05,-0.00024,6,4
26632,0.00029,-1e-05,-2e-05,-1e-05,-0.00014,-0.00033,-0.00017,2e-05,6,4
26634,0.00029,-1e-05,-2e-05,-1e-05,-0.00014,-0.00033,-0.00017,2e-05,6,4
26635,0.00029,-1e-05,-2e-05,-1e-05,-0.00014,-0.00033,-0.00017,2e-05,6,4
26636,0.00029,-1e-05,-2e-05,-1e-05,-0.00014,-0.00033,-0.00017,2e-05,6,4
26637,0.00029,-1e-05,-2e-05,-1e-05,-0.00014,-0.00033,-0.00017,2e-05,6,4
26638,0.00029,-1e-05,-2e-05,-1e-05,-0.00014,-0.00033,-0.00017,2e-05,6,4
26639,0.00029,-1e-05,-2e-05,-1e-05,-0.00014,-0.00033,-0.00017,2e-05,6,4
26640,0.00029,-1e-05,-2e-05,-1e-05,-0.00014,-0.00033,-0.00017,2e-05,6,4
26641,-0.00024,-7e-05,1e-05,0.00011,0.00024,-0.00048,-0.0003,-0.00018,6,4
26642,-0.00024,-7e-05,1e-05,0.00011,0.00024,-0.00048,-0.0003,-0.00018,6,4
26643,-0.00024,-7e-05,1e-05,0.00011,0.00024,-0.00048,-0.0003,-0.00018,6,4
26644,-0.00024,-7e-05,1e-05,0.00011,0.00024,-0.00048,-0.0003,-0.00018,6,4
26645,-0.00024,-7e-05,1e-05,0.00011,0.00024,-0.00048,-0.0003,-0.00018,6,4
26646,-0.00024,-7e-05,1e-05,0.00011,0.00024,-0.00048,-0.0003,-0.00018,6,4
26647,-0.00024,-7e-05,1e-05,0.00011,0.00024,-0.00048,-0.0003,-0.00018,6,4
26648,-0.00024,-7e-05,1e-05,0.00011,0.00024,-0.00048,-0.0003,-0.00018,6,4
26649,-0.00024,-7e-05,1e-05,0.00011,0.00024,-0.00048,-0.0003,-0.00018,6,4
26650,-0.00024,-7e-05,1e-05,0.00011,0.00024,-0.00048,-0.0003,-0.00018,6,4
26651,-0.00024,-7e-05,1e-05,0.00011,0.00024,-0.00048,-0.0003,-0.00018,6,4
26652,-0.00024,-7e-05,1e-05,0.00011,0.00024,-0.00048,-0.0003,-0.00018,6,4
26653,-0.00024,-7e-05,1e-05,0.00011,0.00024,-0.00048,-0.0003,-0.00018,6,4
26654,-0.00024,-7e-05,1e-05,0.00011,0.00024,-0.00048,-0.0003,-0.00018,6,4
26655,-0.00024,-7e-05,1e-05,0.00011,0.00024,-0.00048,-0.0003,-0.00018,6,4
26656,-0.00064,-2e-05,1e-05,8e-05,0.00023,0.00022,3e-05,-0.0003,6,4
26657,0.00031,-1e-05,2e-05,0.00015,0.00028,0.00021,2e-05,0.00034,6,4
26658,0.00031,-1e-05,2e-05,0.00015,0.00028,0.00021,2e-05,0.00034,6,4
26659,0.00031,-1e-05,2e-05,0.00015,0.00028,0.00021,2e-05,0.00034,6,4
26660,0.00031,-1e-05,2e-05,0.00015,0.00028,0.00021,2e-05,0.00034,6,4
26661,0.00031,-1e-05,2e-05,0.00015,0.00028,0.00021,2e-05,0.00034,6,4
26662,0.00031,-1e-05,2e-05,0.00015,0.00028,0.00021,2e-05,0.00034,6,4
26663,0.00031,-1e-05,2e-05,0.00015,0.00028,0.00021,2e-05,0.00034,6,4
26664,0.00031,-1e-05,2e-05,0.00015,0.00028,0.00021,2e-05,0.00034,6,4
26665,0.00031,-1e-05,2e-05,0.00015,0.00028,0.00021,2e-05,0.00034,6,4
26666,0.00031,-1e-05,2e-05,0.00015,0.00028,0.00021,2e-05,0.00034,6,4
26667,0.00031,-1e-05,2e-05,0.00015,0.00028,0.00021,2e-05,0.00034,6,4
26668,0.00031,-1e-05,2e-05,0.00015,0.00028,0.00021,2e-05,0.00034,6,4
26669,0.00031,-1e-05,2e-05,0.00015,0.00028,0.00021,2e-05,0.00034,6,4
26670,0.00031,-1e-05,2e-05,0.00015,0.00028,0.00021,2e-05,0.00034,6,4
26671,0.00031,-1e-05,2e-05,0.00015,0.00028,0.00021,2e-05,0.00034,6,4
26672,0.00031,-1e-05,2e-05,0.00015,0.00028,0.00021,2e-05,0.00034,6,4
26673,0.00031,-1e-05,2e-05,0.00015,0.00028,0.00021,2e-05,0.00034,6,4
26674,0.00031,-1e-05,2e-05,0.00015,0.00028,0.00021,2e-05,0.00034,6,4
26675,0.00031,-1e-05,2e-05,0.00015,0.00028,0.00021,2e-05,0.00034,6,4
26676,0.00031,-1e-05,2e-05,0.00015,0.00028,0.00021,2e-05,0.00034,6,4
26677,0.00031,-1e-05,2e-05,0.00015,0.00028,0.00021,2e-05,0.00034,6,4
26678,7e-05,4e-05,0.00011,8e-05,0.00015,-7e-05,0.00029,-3e-05,6,4
26679,7e-05,4e-05,0.00011,8e-05,0.00015,-7e-05,0.00029,-3e-05,6,4
26680,0,4e-05,0,8e-05,4e-05,4e-05,6e-05,-0.00025,6,4
26682,0,4e-05,0,8e-05,4e-05,4e-05,6e-05,-0.00025,6,4
26683,0,4e-05,0,8e-05,4e-05,4e-05,6e-05,-0.00025,6,4
26684,0,4e-05,0,8e-05,4e-05,4e-05,6e-05,-0.00025,6,4
26685,0,4e-05,0,8e-05,4e-05,4e-05,6e-05,-0.00025,6,4
26686,0,4e-05,0,8e-05,4e-05,4e-05,6e-05,-0.00025,6,4
26687,0,4e-05,0,8e-05,4e-05,4e-05,6e-05,-0.00025,6,4
26688,0,4e-05,0,8e-05,4e-05,4e-05,6e-05,-0.00025,6,4
26689,0,4e-05,0,8e-05,4e-05,4e-05,6e-05,-0.00025,6,4
26690,0,4e-05,0,8e-05,4e-05,4e-05,6e-05,-0.00025,6,4
26691,0,4e-05,0,8e-05,4e-05,4e-05,6e-05,-0.00025,6,4
26692,5e-05,-4e-05,-3e-05,-0.0001,-0.00022,-0.00011,5e-05,0.00037,6,4
26693,5e-05,-4e-05,-3e-05,-0.0001,-0.00022,-0.00011,5e-05,0.00037,6,4
26694,5e-05,-4e-05,-3e-05,-0.0001,-0.00022,-0.00011,5e-05,0.00037,6,4
26695,5e-05,-4e-05,-3e-05,-0.0001,-0.00022,-0.00011,5e-05,0.00037,6,4
26696,5e-05,-4e-05,-3e-05,-0.0001,-0.00022,-0.00011,5e-05,0.00037,6,4
26697,5e-05,-4e-05,-3e-05,-0.0001,-0.00022,-0.00011,5e-05,0.00037,6,4
26698,5e-05,-4e-05,-3e-05,-0.0001,-0.00022,-0.00011,5e-05,0.00037,6,4
26699,5e-05,-4e-05,-3e-05,-0.0001,-0.00022,-0.00011,5e-05,0.00037,6,4
26700,5e-05,-4e-05,-3e-05,-0.0001,-0.00022,-0.00011,5e-05,0.00037,6,4
26701,0.00019,-7e-05,-0.00019,-0.00023,-0.00037,-2e-05,5e-05,0.00016,6,4
26702,0.00019,-7e-05,-0.00019,-0.00023,-0.00037,-2e-05,5e-05,0.00016,6,4
26703,0.00019,-7e-05,-0.00019,-0.00023,-0.00037,-2e-05,5e-05,0.00016,6,4
26704,0.00019,-7e-05,-0.00019,-0.00023,-0.00037,-2e-05,5e-05,0.00016,6,4
26705,0.00019,-7e-05,-0.00019,-0.00023,-0.00037,-2e-05,5e-05,0.00016,6,4
26706,0.00019,-7e-05,-0.00019,-0.00023,-0.00037,-2e-05,5e-05,0.00016,6,4
26707,0.00019,-7e-05,-0.00019,-0.00023,-0.00037,-2e-05,5e-05,0.00016,6,4
26708,0.00019,-7e-05,-0.00019,-0.00023,-0.00037,-2e-05,5e-05,0.00016,6,4
26709,0.00019,-7e-05,-0.00019,-0.00023,-0.00037,-2e-05,5e-05,0.00016,6,4
26710,0.00019,-7e-05,-0.00019,-0.00023,-0.00037,-2e-05,5e-05,0.00016,6,4
26711,0.00019,-7e-05,-0.00019,-0.00023,-0.00037,-2e-05,5e-05,0.00016,6,4
26712,0.00019,-7e-05,-0.00019,-0.00023,-0.00037,-2e-05,5e-05,0.00016,6,4
26713,0.00019,-7e-05,-0.00019,-0.00023,-0.00037,-2e-05,5e-05,0.00016,6,4
26714,0.00019,-7e-05,-0.00019,-0.00023,-0.00037,-2e-05,5e-05,0.00016,6,4
26715,0.00019,-7e-05,-0.00019,-0.00023,-0.00037,-2e-05,5e-05,0.00016,6,4
26716,0.00026,-3e-05,-0.00011,-0.0001,-0.00046,-0.00013,0.00013,0.00071,6,4
26717,9e-05,-3e-05,3e-05,3e-05,-4e-05,-0.00019,-0.00011,0.00013,6,4
26718,9e-05,-3e-05,3e-05,3e-05,-4e-05,-0.00019,-0.00011,0.00013,6,4
26719,9e-05,-3e-05,3e-05,3e-05,-4e-05,-0.00019,-0.00011,0.00013,6,4
26720,9e-05,-3e-05,3e-05,3e-05,-4e-05,-0.00019,-0.00011,0.00013,6,4
26721,9e-05,-3e-05,3e-05,3e-05,-4e-05,-0.00019,-0.00011,0.00013,6,4
26722,9e-05,-3e-05,3e-05,3e-05,-4e-05,-0.00019,-0.00011,0.00013,6,4
26723,9e-05,-3e-05,3e-05,3e-05,-4e-05,-0.00019,-0.00011,0.00013,6,4
26724,9e-05,-3e-05,3e-05,3e-05,-4e-05,-0.00019,-0.00011,0.00013,6,4
26725,9e-05,-3e-05,3e-05,3e-05,-4e-05,-0.00019,-0.00011,0.00013,6,4
26726,9e-05,-3e-05,3e-05,3e-05,-4e-05,-0.00019,-0.00011,0.00013,6,4
26728,9e-05,-3e-05,3e-05,3e-05,-4e-05,-0.00019,-0.00011,0.00013,6,4
26729,9e-05,-3e-05,3e-05,3e-05,-4e-05,-0.00019,-0.00011,0.00013,6,4
26730,9e-05,-3e-05,3e-05,3e-05,-4e-05,-0.00019,-0.00011,0.00013,6,4
26731,9e-05,-3e-05,3e-05,3e-05,-4e-05,-0.00019,-0.00011,0.00013,6,4
26732,9e-05,-3e-05,3e-05,3e-05,-4e-05,-0.00019,-0.00011,0.00013,6,4
26733,9e-05,-3e-05,3e-05,3e-05,-4e-05,-0.00019,-0.00011,0.00013,6,4
26734,9e-05,-3e-05,3e-05,3e-05,-4e-05,-0.00019,-0.00011,0.00013,6,4
26735,9e-05,-3e-05,3e-05,3e-05,-4e-05,-0.00019,-0.00011,0.00013,6,4
26736,9e-05,-3e-05,3e-05,3e-05,-4e-05,-0.00019,-0.00011,0.00013,6,4
26737,9e-05,-3e-05,3e-05,3e-05,-4e-05,-0.00019,-0.00011,0.00013,6,4
26738,-2e-05,-0.00013,2e-05,4e-05,6e-05,-4e-05,-0.00014,6e-05,6,4
26739,-2e-05,-0.00013,2e-05,4e-05,6e-05,-4e-05,-0.00014,6e-05,6,4
26740,-0.00081,-0.00013,-6e-05,-1e-05,0.00011,0.00021,-9e-05,-0.00052,6,4
26741,-0.00081,-0.00013,-6e-05,-1e-05,0.00011,0.00021,-9e-05,-0.00052,6,4
26742,-0.00081,-0.00013,-6e-05,-1e-05,0.00011,0.00021,-9e-05,-0.00052,6,4
26743,-0.00081,-0.00013,-6e-05,-1e-05,0.00011,0.00021,-9e-05,-0.00052,6,4
26744,-0.00081,-0.00013,-6e-05,-1e-05,0.00011,0.00021,-9e-05,-0.00052,6,4
26745,-0.00081,-0.00013,-6e-05,-1e-05,0.00011,0.00021,-9e-05,-0.00052,6,4
26746,-0.00081,-0.00013,-6e-05,-1e-05,0.00011,0.00021,-9e-05,-0.00052,6,4
26747,-0.00081,-0.00013,-6e-05,-1e-05,0.00011,0.00021,-9e-05,-0.00052,6,4
26748,-0.00081,-0.00013,-6e-05,-1e-05,0.00011,0.00021,-9e-05,-0.00052,6,4
26749,-0.00081,-0.00013,-6e-05,-1e-05,0.00011,0.00021,-9e-05,-0.00052,6,4
26750,-0.00081,-0.00013,-6e-05,-1e-05,0.00011,0.00021,-9e-05,-0.00052,6,4
26751,-0.00081,-0.00013,-6e-05,-1e-05,0.00011,0.00021,-9e-05,-0.00052,6,4
26752,0.0004,7e-05,-1e-05,2e-05,0.0001,-0.00029,-0.00014,-0.00015,6,4
26753,0.0004,7e-05,-1e-05,2e-05,0.0001,-0.00029,-0.00014,-0.00015,6,4
26754,0.0004,7e-05,-1e-05,2e-05,0.0001,-0.00029,-0.00014,-0.00015,6,4
26755,0.0004,7e-05,-1e-05,2e-05,0.0001,-0.00029,-0.00014,-0.00015,6,4
26756,0.0004,7e-05,-1e-05,2e-05,0.0001,-0.00029,-0.00014,-0.00015,6,4
26757,0.0004,7e-05,-1e-05,2e-05,0.0001,-0.00029,-0.00014,-0.00015,6,4
26758,0.0004,7e-05,-1e-05,2e-05,0.0001,-0.00029,-0.00014,-0.00015,6,4
26759,0.0004,7e-05,-1e-05,2e-05,0.0001,-0.00029,-0.00014,-0.00015,6,4
26760,0.0004,7e-05,-1e-05,2e-05,0.0001,-0.00029,-0.00014,-0.00015,6,4
26761,0.00015,-4e-05,1e-05,-6e-05,-0.00028,5e-05,-0.00015,-0.00029,6,4
26762,0.00015,-4e-05,1e-05,-6e-05,-0.00028,5e-05,-0.00015,-0.00029,6,4
26763,0.00015,-4e-05,1e-05,-6e-05,-0.00028,5e-05,-0.00015,-0.00029,6,4
26764,0.00015,-4e-05,1e-05,-6e-05,-0.00028,5e-05,-0.00015,-0.00029,6,4
26765,0.00015,-4e-05,1e-05,-6e-05,-0.00028,5e-05,-0.00015,-0.00029,6,4
26766,0.00015,-4e-05,1e-05,-6e-05,-0.00028,5e-05,-0.00015,-0.00029,6,4
26767,0.00015,-4e-05,1e-05,-6e-05,-0.00028,5e-05,-0.00015,-0.00029,6,4
26768,0.00015,-4e-05,1e-05,-6e-05,-0.00028,5e-05,-0.00015,-0.00029,6,4
26769,0.00015,-4e-05,1e-05,-6e-05,-0.00028,5e-05,-0.00015,-0.00029,6,4
26770,0.00015,-4e-05,1e-05,-6e-05,-0.00028,5e-05,-0.00015,-0.00029,6,4
26771,0.00015,-4e-05,1e-05,-6e-05,-0.00028,5e-05,-0.00015,-0.00029,6,4
26772,0.00015,-4e-05,1e-05,-6e-05,-0.00028,5e-05,-0.00015,-0.00029,6,4
26773,0.00015,-4e-05,1e-05,-6e-05,-0.00028,5e-05,-0.00015,-0.00029,6,4
26775,0.00015,-4e-05,1e-05,-6e-05,-0.00028,5e-05,-0.00015,-0.00029,6,4
26776,-0.00031,-3e-05,-5e-05,-0.00012,4e-05,0.00012,-0.00039,-0.00013,6,4
26777,-0.00034,0,-1e-05,5e-05,7e-05,0.00026,0.0002,0.00052,6,4
26778,-0.00034,0,-1e-05,5e-05,7e-05,0.00026,0.0002,0.00052,6,4
26779,-0.00034,0,-1e-05,5e-05,7e-05,0.00026,0.0002,0.00052,6,4
26780,-0.00034,0,-1e-05,5e-05,7e-05,0.00026,0.0002,0.00052,6,4
26781,-0.00034,0,-1e-05,5e-05,7e-05,0.00026,0.0002,0.00052,6,4
26782,-0.00034,0,-1e-05,5e-05,7e-05,0.00026,0.0002,0.00052,6,4
26783,-0.00034,0,-1e-05,5e-05,7e-05,0.00026,0.0002,0.00052,6,4
26784,-0.00034,0,-1e-05,5e-05,7e-05,0.00026,0.0002,0.00052,6,4
26785,-0.00034,0,-1e-05,5e-05,7e-05,0.00026,0.0002,0.00052,6,4
26786,-0.00034,0,-1e-05,5e-05,7e-05,0.00026,0.0002,0.00052,6,4
26787,-0.00034,0,-1e-05,5e-05,7e-05,0.00026,0.0002,0.00052,6,4
26788,-0.00034,0,-1e-05,5e-05,7e-05,0.00026,0.0002,0.00052,6,4
26789,-0.00034,0,-1e-05,5e-05,7e-05,0.00026,0.0002,0.00052,6,4
26790,-0.00034,0,-1e-05,5e-05,7e-05,0.00026,0.0002,0.00052,6,4
26791,-0.00034,0,-1e-05,5e-05,7e-05,0.00026,0.0002,0.00052,6,4
26792,-0.00034,0,-1e-05,5e-05,7e-05,0.00026,0.0002,0.00052,6,4
26793,-0.00034,0,-1e-05,5e-05,7e-05,0.00026,0.0002,0.00052,6,4
26794,-0.00034,0,-1e-05,5e-05,7e-05,0.00026,0.0002,0.00052,6,4
26795,-0.00034,0,-1e-05,5e-05,7e-05,0.00026,0.0002,0.00052,6,4
26796,-0.00034,0,-1e-05,5e-05,7e-05,0.00026,0.0002,0.00052,6,4
26797,-0.00034,0,-1e-05,5e-05,7e-05,0.00026,0.0002,0.00052,6,4
26798,-2e-05,0.0002,0.0001,-2e-05,-0.0002,6e-05,-0.0001,-0.0003,6,4
26799,-2e-05,0.0002,0.0001,-2e-05,-0.0002,6e-05,-0.0001,-0.0003,6,4
26800,0.0002,3e-05,1e-05,6e-05,9e-05,0.00013,-2e-05,0.00012,6,4
26801,0.0002,3e-05,1e-05,6e-05,9e-05,0.00013,-2e-05,0.00012,6,4
26802,0.0002,3e-05,1e-05,6e-05,9e-05,0.00013,-2e-05,0.00012,6,4
26803,0.0002,3e-05,1e-05,6e-05,9e-05,0.00013,-2e-05,0.00012,6,4
26804,0.0002,3e-05,1e-05,6e-05,9e-05,0.00013,-2e-05,0.00012,6,4
26805,0.0002,3e-05,1e-05,6e-05,9e-05,0.00013,-2e-05,0.00012,6,4
26806,0.0002,3e-05,1e-05,6e-05,9e-05,0.00013,-2e-05,0.00012,6,4
26807,0.0002,3e-05,1e-05,6e-05,9e-05,0.00013,-2e-05,0.00012,6,4
26808,0.0002,3e-05,1e-05,6e-05,9e-05,0.00013,-2e-05,0.00012,6,4
26809,0.0002,3e-05,1e-05,6e-05,9e-05,0.00013,-2e-05,0.00012,6,4
26810,0.0002,3e-05,1e-05,6e-05,9e-05,0.00013,-2e-05,0.00012,6,4
26811,0.0002,3e-05,1e-05,6e-05,9e-05,0.00013,-2e-05,0.00012,6,4
26812,0.00026,-1e-05,-2e-05,0,-7e-05,-0.00015,5e-05,-8e-05,6,4
26813,0.00026,-1e-05,-2e-05,0,-7e-05,-0.00015,5e-05,-8e-05,6,4
26814,0.00026,-1e-05,-2e-05,0,-7e-05,-0.00015,5e-05,-8e-05,6,4
26815,0.00026,-1e-05,-2e-05,0,-7e-05,-0.00015,5e-05,-8e-05,6,4
26816,0.00026,-1e-05,-2e-05,0,-7e-05,-0.00015,5e-05,-8e-05,6,4
26817,0.00026,-1e-05,-2e-05,0,-7e-05,-0.00015,5e-05,-8e-05,6,4
26818,0.00026,-1e-05,-2e-05,0,-7e-05,-0.00015,5e-05,-8e-05,6,4
26819,0.00026,-1e-05,-2e-05,0,-7e-05,-0.00015,5e-05,-8e-05,6,4
26820,0.00026,-1e-05,-2e-05,0,-7e-05,-0.00015,5e-05,-8e-05,6,4
26822,-0.00075,-2e-05,3e-05,-8e-05,-0.00015,-7e-05,-0.0001,-0.00011,6,4
26823,-0.00075,-2e-05,3e-05,-8e-05,-0.00015,-7e-05,-0.0001,-0.00011,6,4
26824,-0.00075,-2e-05,3e-05,-8e-05,-0.00015,-7e-05,-0.0001,-0.00011,6,4
26825,-0.00075,-2e-05,3e-05,-8e-05,-0.00015,-7e-05,-0.0001,-0.00011,6,4
26826,-0.00075,-2e-05,3e-05,-8e-05,-0.00015,-7e-05,-0.0001,-0.00011,6,4
26827,-0.00075,-2e-05,3e-05,-8e-05,-0.00015,-7e-05,-0.0001,-0.00011,6,4
26828,-0.00075,-2e-05,3e-05,-8e-05,-0.00015,-7e-05,-0.0001,-0.00011,6,4
26829,-0.00075,-2e-05,3e-05,-8e-05,-0.00015,-7e-05,-0.0001,-0.00011,6,4
26830,-0.00075,-2e-05,3e-05,-8e-05,-0.00015,-7e-05,-0.0001,-0.00011,6,4
26831,-0.00075,-2e-05,3e-05,-8e-05,-0.00015,-7e-05,-0.0001,-0.00011,6,4
26832,-0.00075,-2e-05,3e-05,-8e-05,-0.00015,-7e-05,-0.0001,-0.00011,6,4
26833,-0.00075,-2e-05,3e-05,-8e-05,-0.00015,-7e-05,-0.0001,-0.00011,6,4
26834,-0.00075,-2e-05,3e-05,-8e-05,-0.00015,-7e-05,-0.0001,-0.00011,6,4
26835,-0.00075,-2e-05,3e-05,-8e-05,-0.00015,-7e-05,-0.0001,-0.00011,6,4
26836,-0.00075,-2e-05,3e-05,-8e-05,-0.00015,-7e-05,-0.0001,-0.00011,6,4
26837,-0.00075,-2e-05,3e-05,-8e-05,-0.00015,-7e-05,-0.0001,-0.00011,6,4
26838,0.00021,-9e-05,-3e-05,2e-05,5e-05,-0.00022,-0.00013,0.00034,6,4
26839,0.00021,-9e-05,-3e-05,2e-05,5e-05,-0.00022,-0.00013,0.00034,6,4
26840,0.00021,-9e-05,-3e-05,2e-05,5e-05,-0.00022,-0.00013,0.00034,6,4
26841,0.00021,-9e-05,-3e-05,2e-05,5e-05,-0.00022,-0.00013,0.00034,6,4
26842,0.00021,-9e-05,-3e-05,2e-05,5e-05,-0.00022,-0.00013,0.00034,6,4
26843,0.00021,-9e-05,-3e-05,2e-05,5e-05,-0.00022,-0.00013,0.00034,6,4
26844,0.00021,-9e-05,-3e-05,2e-05,5e-05,-0.00022,-0.00013,0.00034,6,4
26845,0.00021,-9e-05,-3e-05,2e-05,5e-05,-0.00022,-0.00013,0.00034,6,4
26846,0.00021,-9e-05,-3e-05,2e-05,5e-05,-0.00022,-0.00013,0.00034,6,4
26847,0.00021,-9e-05,-3e-05,2e-05,5e-05,-0.00022,-0.00013,0.00034,6,4
26848,0.00021,-9e-05,-3e-05,2e-05,5e-05,-0.00022,-0.00013,0.00034,6,4
26849,0.00021,-9e-05,-3e-05,2e-05,5e-05,-0.00022,-0.00013,0.00034,6,4
26851,0.00021,-9e-05,-3e-05,2e-05,5e-05,-0.00022,-0.00013,0.00034,6,4
26852,0.00021,-9e-05,-3e-05,2e-05,5e-05,-0.00022,-0.00013,0.00034,6,4
26853,0.00021,-9e-05,-3e-05,2e-05,5e-05,-0.00022,-0.00013,0.00034,6,4
26854,0.00021,-9e-05,-3e-05,2e-05,5e-05,-0.00022,-0.00013,0.00034,6,4
26855,0.00021,-9e-05,-3e-05,2e-05,5e-05,-0.00022,-0.00013,0.00034,6,4
26856,0.00021,-9e-05,-3e-05,2e-05,5e-05,-0.00022,-0.00013,0.00034,6,4
26857,0.00021,-9e-05,-3e-05,2e-05,5e-05,-0.00022,-0.00013,0.00034,6,4
26858,-0.00031,-1e-05,3e-05,0.00022,0.00077,0.00011,6e-05,-0.00032,6,4
26859,-0.00031,-1e-05,3e-05,0.00022,0.00077,0.00011,6e-05,-0.00032,6,4
26860,-0.00021,-2e-05,-1e-05,-9e-05,-0.00029,-3e-05,0,-0.00019,6,4
26861,-0.00021,-2e-05,-1e-05,-9e-05,-0.00029,-3e-05,0,-0.00019,6,4
26862,-0.00021,-2e-05,-1e-05,-9e-05,-0.00029,-3e-05,0,-0.00019,6,4
26863,-0.00021,-2e-05,-1e-05,-9e-05,-0.00029,-3e-05,0,-0.00019,6,4
26864,-0.00021,-2e-05,-1e-05,-9e-05,-0.00029,-3e-05,0,-0.00019,6,4
26865,-0.00021,-2e-05,-1e-05,-9e-05,-0.00029,-3e-05,0,-0.00019,6,4
26866,-0.00021,-2e-05,-1e-05,-9e-05,-0.00029,-3e-05,0,-0.00019,6,4
26867,-0.00021,-2e-05,-1e-05,-9e-05,-0.00029,-3e-05,0,-0.00019,6,4
26869,-0.00021,-2e-05,-1e-05,-9e-05,-0.00029,-3e-05,0,-0.00019,6,4
26870,-0.00021,-2e-05,-1e-05,-9e-05,-0.00029,-3e-05,0,-0.00019,6,4
26871,-0.00021,-2e-05,-1e-05,-9e-05,-0.00029,-3e-05,0,-0.00019,6,4
26872,0.00011,0,-6e-05,-7e-05,-0.00017,0.0001,9e-05,0.00028,6,4
26873,0.00011,0,-6e-05,-7e-05,-0.00017,0.0001,9e-05,0.00028,6,4
26874,0.00011,0,-6e-05,-7e-05,-0.00017,0.0001,9e-05,0.00028,6,4
26875,0.00011,0,-6e-05,-7e-05,-0.00017,0.0001,9e-05,0.00028,6,4
26876,0.00011,0,-6e-05,-7e-05,-0.00017,0.0001,9e-05,0.00028,6,4
26877,0.00011,0,-6e-05,-7e-05,-0.00017,0.0001,9e-05,0.00028,6,4
26878,0.00011,0,-6e-05,-7e-05,-0.00017,0.0001,9e-05,0.00028,6,4
26879,0.00011,0,-6e-05,-7e-05,-0.00017,0.0001,9e-05,0.00028,6,4
26880,0.00011,0,-6e-05,-7e-05,-0.00017,0.0001,9e-05,0.00028,6,4
26881,-6e-05,1e-05,3e-05,-1e-05,-3e-05,4e-05,-0.00012,-0.0002,6,4
26882,-6e-05,1e-05,3e-05,-1e-05,-3e-05,4e-05,-0.00012,-0.0002,6,4
26883,-6e-05,1e-05,3e-05,-1e-05,-3e-05,4e-05,-0.00012,-0.0002,6,4
26884,-6e-05,1e-05,3e-05,-1e-05,-3e-05,4e-05,-0.00012,-0.0002,6,4
26885,-6e-05,1e-05,3e-05,-1e-05,-3e-05,4e-05,-0.00012,-0.0002,6,4
26886,-6e-05,1e-05,3e-05,-1e-05,-3e-05,4e-05,-0.00012,-0.0002,6,4
26887,-6e-05,1e-05,3e-05,-1e-05,-3e-05,4e-05,-0.00012,-0.0002,6,4
26888,-6e-05,1e-05,3e-05,-1e-05,-3e-05,4e-05,-0.00012,-0.0002,6,4
26889,-6e-05,1e-05,3e-05,-1e-05,-3e-05,4e-05,-0.00012,-0.0002,6,4
26890,-6e-05,1e-05,3e-05,-1e-05,-3e-05,4e-05,-0.00012,-0.0002,6,4
26891,-6e-05,1e-05,3e-05,-1e-05,-3e-05,4e-05,-0.00012,-0.0002,6,4
26892,-6e-05,1e-05,3e-05,-1e-05,-3e-05,4e-05,-0.00012,-0.0002,6,4
26893,-6e-05,1e-05,3e-05,-1e-05,-3e-05,4e-05,-0.00012,-0.0002,6,4
26894,-6e-05,1e-05,3e-05,-1e-05,-3e-05,4e-05,-0.00012,-0.0002,6,4
26895,-6e-05,1e-05,3e-05,-1e-05,-3e-05,4e-05,-0.00012,-0.0002,6,4
26896,-0.00023,-0.00013,-9e-05,1e-05,-4e-05,6e-05,-6e-05,0.00021,6,4
26897,-0.00031,-0.00011,-3e-05,-0.00013,-0.00047,-0.00017,-6e-05,-0.00018,6,4
26899,-0.00031,-0.00011,-3e-05,-0.00013,-0.00047,-0.00017,-6e-05,-0.00018,6,4
26900,-0.00031,-0.00011,-3e-05,-0.00013,-0.00047,-0.00017,-6e-05,-0.00018,6,4
26902,-0.00031,-0.00011,-3e-05,-0.00013,-0.00047,-0.00017,-6e-05,-0.00018,6,4
26903,-0.00031,-0.00011,-3e-05,-0.00013,-0.00047,-0.00017,-6e-05,-0.00018,6,4
26904,-0.00031,-0.00011,-3e-05,-0.00013,-0.00047,-0.00017,-6e-05,-0.00018,6,4
26905,-0.00031,-0.00011,-3e-05,-0.00013,-0.00047,-0.00017,-6e-05,-0.00018,6,4
26906,-0.00031,-0.00011,-3e-05,-0.00013,-0.00047,-0.00017,-6e-05,-0.00018,6,4
26907,-0.00031,-0.00011,-3e-05,-0.00013,-0.00047,-0.00017,-6e-05,-0.00018,6,4
26908,-0.00031,-0.00011,-3e-05,-0.00013,-0.00047,-0.00017,-6e-05,-0.00018,6,4
26909,-0.00031,-0.00011,-3e-05,-0.00013,-0.00047,-0.00017,-6e-05,-0.00018,6,4
26910,-0.00031,-0.00011,-3e-05,-0.00013,-0.00047,-0.00017,-6e-05,-0.00018,6,4
26911,-0.00031,-0.00011,-3e-05,-0.00013,-0.00047,-0.00017,-6e-05,-0.00018,6,4
26912,-0.00031,-0.00011,-3e-05,-0.00013,-0.00047,-0.00017,-6e-05,-0.00018,6,4
26913,-0.00031,-0.00011,-3e-05,-0.00013,-0.00047,-0.00017,-6e-05,-0.00018,6,4
26915,-0.00031,-0.00011,-3e-05,-0.00013,-0.00047,-0.00017,-6e-05,-0.00018,6,4
26916,-0.00031,-0.00011,-3e-05,-0.00013,-0.00047,-0.00017,-6e-05,-0.00018,6,4
26917,-0.00031,-0.00011,-3e-05,-0.00013,-0.00047,-0.00017,-6e-05,-0.00018,6,4
26918,0.00035,4e-05,5e-05,-4e-05,-5e-05,1e-05,7e-05,0.00035,6,4
26919,0.00035,4e-05,5e-05,-4e-05,-5e-05,1e-05,7e-05,0.00035,6,4
26920,0.00068,0.00015,5e-05,9e-05,0.00026,0.00023,0.00012,0.00053,6,4
26921,0.00068,0.00015,5e-05,9e-05,0.00026,0.00023,0.00012,0.00053,6,4
26922,0.00068,0.00015,5e-05,9e-05,0.00026,0.00023,0.00012,0.00053,6,4
26923,0.00068,0.00015,5e-05,9e-05,0.00026,0.00023,0.00012,0.00053,6,4
26924,0.00068,0.00015,5e-05,9e-05,0.00026,0.00023,0.00012,0.00053,6,4
26925,0.00068,0.00015,5e-05,9e-05,0.00026,0.00023,0.00012,0.00053,6,4
26926,0.00068,0.00015,5e-05,9e-05,0.00026,0.00023,0.00012,0.00053,6,4
26927,0.00068,0.00015,5e-05,9e-05,0.00026,0.00023,0.00012,0.00053,6,4
26928,0.00068,0.00015,5e-05,9e-05,0.00026,0.00023,0.00012,0.00053,6,4
26929,0.00068,0.00015,5e-05,9e-05,0.00026,0.00023,0.00012,0.00053,6,4
26930,0.00068,0.00015,5e-05,9e-05,0.00026,0.00023,0.00012,0.00053,6,4
26931,0.00068,0.00015,5e-05,9e-05,0.00026,0.00023,0.00012,0.00053,6,4
26932,0.00068,0.00015,5e-05,9e-05,0.00026,0.00023,0.00012,0.00053,6,4
26933,0.00068,0.00015,5e-05,9e-05,0.00026,0.00023,0.00012,0.00053,6,4
26934,0.00068,0.00015,5e-05,9e-05,0.00026,0.00023,0.00012,0.00053,6,4
26935,0.00068,0.00015,5e-05,9e-05,0.00026,0.00023,0.00012,0.00053,6,4
26936,0.00068,0.00015,5e-05,9e-05,0.00026,0.00023,0.00012,0.00053,6,4
26937,0.00068,0.00015,5e-05,9e-05,0.00026,0.00023,0.00012,0.00053,6,4
26938,0.00068,0.00015,5e-05,9e-05,0.00026,0.00023,0.00012,0.00053,6,4
26939,0.00068,0.00015,5e-05,9e-05,0.00026,0.00023,0.00012,0.00053,6,4
26940,0.00068,0.00015,5e-05,9e-05,0.00026,0.00023,0.00012,0.00053,6,4
26941,-3e-05,3e-05,-2e-05,-5e-05,-8e-05,0.00039,0.00042,1e-05,6,4
26942,0.00033,3e-05,-0.00011,3e-05,0.00051,1e-05,-0.00014,-0.00035,6,4
26943,0.00033,3e-05,-0.00011,3e-05,0.00051,1e-05,-0.00014,-0.00035,6,4
26944,0.00033,3e-05,-0.00011,3e-05,0.00051,1e-05,-0.00014,-0.00035,6,4
26945,0.00033,3e-05,-0.00011,3e-05,0.00051,1e-05,-0.00014,-0.00035,6,4
26946,0.00033,3e-05,-0.00011,3e-05,0.00051,1e-05,-0.00014,-0.00035,6,4
26947,0.00033,3e-05,-0.00011,3e-05,0.00051,1e-05,-0.00014,-0.00035,6,4
26948,0.00033,3e-05,-0.00011,3e-05,0.00051,1e-05,-0.00014,-0.00035,6,4
26949,0.00033,3e-05,-0.00011,3e-05,0.00051,1e-05,-0.00014,-0.00035,6,4
26950,0.00033,3e-05,-0.00011,3e-05,0.00051,1e-05,-0.00014,-0.00035,6,4
26951,0.00033,3e-05,-0.00011,3e-05,0.00051,1e-05,-0.00014,-0.00035,6,4
26952,0.00033,3e-05,-0.00011,3e-05,0.00051,1e-05,-0.00014,-0.00035,6,4
26953,0.00033,3e-05,-0.00011,3e-05,0.00051,1e-05,-0.00014,-0.00035,6,4
26954,0.00033,3e-05,-0.00011,3e-05,0.00051,1e-05,-0.00014,-0.00035,6,4
26955,0.00033,3e-05,-0.00011,3e-05,0.00051,1e-05,-0.00014,-0.00035,6,4
26956,0,-4e-05,6e-05,-6e-05,-0.00038,-0.0002,-0.00019,-0.00021,6,4
26957,0,-4e-05,6e-05,-6e-05,-0.00038,-0.0002,-0.00019,-0.00021,6,4
26958,-0.00022,-5e-05,-3e-05,-5e-05,8e-05,0.00023,0.00026,0.00023,6,4
26959,-0.00022,-5e-05,-3e-05,-5e-05,8e-05,0.00023,0.00026,0.00023,6,4
26960,-0.00022,-5e-05,-3e-05,-5e-05,8e-05,0.00023,0.00026,0.00023,6,4
26961,-0.00022,-5e-05,-3e-05,-5e-05,8e-05,0.00023,0.00026,0.00023,6,4
26963,-0.00022,-5e-05,-3e-05,-5e-05,8e-05,0.00023,0.00026,0.00023,6,4
26964,-0.00022,-5e-05,-3e-05,-5e-05,8e-05,0.00023,0.00026,0.00023,6,4
26965,-0.00022,-5e-05,-3e-05,-5e-05,8e-05,0.00023,0.00026,0.00023,6,4
26966,-0.00022,-5e-05,-3e-05,-5e-05,8e-05,0.00023,0.00026,0.00023,6,4
26967,-0.00022,-5e-05,-3e-05,-5e-05,8e-05,0.00023,0.00026,0.00023,6,4
26968,-0.00022,-5e-05,-3e-05,-5e-05,8e-05,0.00023,0.00026,0.00023,6,4
26969,-0.00022,-5e-05,-3e-05,-5e-05,8e-05,0.00023,0.00026,0.00023,6,4
26970,-0.00022,-5e-05,-3e-05,-5e-05,8e-05,0.00023,0.00026,0.00023,6,4
26971,-0.00022,-5e-05,-3e-05,-5e-05,8e-05,0.00023,0.00026,0.00023,6,4
26972,-0.00022,-5e-05,-3e-05,-5e-05,8e-05,0.00023,0.00026,0.00023,6,4
26973,-0.00022,-5e-05,-3e-05,-5e-05,8e-05,0.00023,0.00026,0.00023,6,4
26974,-0.00022,-5e-05,-3e-05,-5e-05,8e-05,0.00023,0.00026,0.00023,6,4
26975,-0.00022,-5e-05,-3e-05,-5e-05,8e-05,0.00023,0.00026,0.00023,6,4
26976,-0.00022,-5e-05,-3e-05,-5e-05,8e-05,0.00023,0.00026,0.00023,6,4
26977,-0.00022,-5e-05,-3e-05,-5e-05,8e-05,0.00023,0.00026,0.00023,6,4
26978,-7e-05,-7e-05,-2e-05,0.00016,0.00019,0.00027,-2e-05,2e-05,6,4
26979,-7e-05,-7e-05,-2e-05,0.00016,0.00019,0.00027,-2e-05,2e-05,6,4
26980,0.00044,8e-05,4e-05,6e-05,0.00016,-4e-05,0,0.00012,6,4
26981,0.00044,8e-05,4e-05,6e-05,0.00016,-4e-05,0,0.00012,6,4
26982,0.00044,8e-05,4e-05,6e-05,0.00016,-4e-05,0,0.00012,6,4
26983,0.00044,8e-05,4e-05,6e-05,0.00016,-4e-05,0,0.00012,6,4
26984,0.00044,8e-05,4e-05,6e-05,0.00016,-4e-05,0,0.00012,6,4
26985,0.00044,8e-05,4e-05,6e-05,0.00016,-4e-05,0,0.00012,6,4
26986,0.00044,8e-05,4e-05,6e-05,0.00016,-4e-05,0,0.00012,6,4
26987,0.00044,8e-05,4e-05,6e-05,0.00016,-4e-05,0,0.00012,6,4
26988,0.00044,8e-05,4e-05,6e-05,0.00016,-4e-05,0,0.00012,6,4
26989,0.00044,8e-05,4e-05,6e-05,0.00016,-4e-05,0,0.00012,6,4
26990,0.00044,8e-05,4e-05,6e-05,0.00016,-4e-05,0,0.00012,6,4
26991,0.00044,8e-05,4e-05,6e-05,0.00016,-4e-05,0,0.00012,6,4
26992,0.00044,8e-05,4e-05,6e-05,0.00016,-4e-05,0,0.00012,6,4
26993,0.00044,8e-05,4e-05,6e-05,0.00016,-4e-05,0,0.00012,6,4
26994,0.00044,8e-05,4e-05,6e-05,0.00016,-4e-05,0,0.00012,6,4
26995,0.00044,8e-05,4e-05,6e-05,0.00016,-4e-05,0,0.00012,6,4
26996,0.00044,8e-05,4e-05,6e-05,0.00016,-4e-05,0,0.00012,6,4
26997,0.00044,8e-05,4e-05,6e-05,0.00016,-4e-05,0,0.00012,6,4
26998,0.00044,8e-05,4e-05,6e-05,0.00016,-4e-05,0,0.00012,6,4
26999,0.00044,8e-05,4e-05,6e-05,0.00016,-4e-05,0,0.00012,6,4
27000,0.00044,8e-05,4e-05,6e-05,0.00016,-4e-05,0,0.00012,6,4
27001,0.00019,-1e-05,2e-05,0,-7e-05,0.00012,9e-05,0.00022,6,4
27002,0.00019,-1e-05,2e-05,0,-7e-05,0.00012,9e-05,0.00022,6,4
27003,-5e-05,-6e-05,0,-1e-05,0.0002,-0.00048,1e-05,-0.00015,6,4
27004,-5e-05,-6e-05,0,-1e-05,0.0002,-0.00048,1e-05,-0.00015,6,4
27005,-5e-05,-6e-05,0,-1e-05,0.0002,-0.00048,1e-05,-0.00015,6,4
27006,-5e-05,-6e-05,0,-1e-05,0.0002,-0.00048,1e-05,-0.00015,6,4
27007,-5e-05,-6e-05,0,-1e-05,0.0002,-0.00048,1e-05,-0.00015,6,4
27009,-5e-05,-6e-05,0,-1e-05,0.0002,-0.00048,1e-05,-0.00015,6,4
27010,-5e-05,-6e-05,0,-1e-05,0.0002,-0.00048,1e-05,-0.00015,6,4
27011,-5e-05,-6e-05,0,-1e-05,0.0002,-0.00048,1e-05,-0.00015,6,4
27012,-5e-05,-6e-05,0,-1e-05,0.0002,-0.00048,1e-05,-0.00015,6,4
27013,-5e-05,-6e-05,0,-1e-05,0.0002,-0.00048,1e-05,-0.00015,6,4
27014,-5e-05,-6e-05,0,-1e-05,0.0002,-0.00048,1e-05,-0.00015,6,4
27015,-5e-05,-6e-05,0,-1e-05,0.0002,-0.00048,1e-05,-0.00015,6,4
27016,-0.00044,-6e-05,3e-05,-5e-05,-0.00011,-0.00017,-0.00012,-0.00034,6,4
27017,-0.00044,-6e-05,3e-05,-5e-05,-0.00011,-0.00017,-0.00012,-0.00034,6,4
27018,4e-05,-1e-05,-4e-05,2e-05,0,-0.00028,-8e-05,-0.00014,6,4
27019,4e-05,-1e-05,-4e-05,2e-05,0,-0.00028,-8e-05,-0.00014,6,4
27020,4e-05,-1e-05,-4e-05,2e-05,0,-0.00028,-8e-05,-0.00014,6,4
27021,4e-05,-1e-05,-4e-05,2e-05,0,-0.00028,-8e-05,-0.00014,6,4
27022,4e-05,-1e-05,-4e-05,2e-05,0,-0.00028,-8e-05,-0.00014,6,4
27023,4e-05,-1e-05,-4e-05,2e-05,0,-0.00028,-8e-05,-0.00014,6,4
27024,4e-05,-1e-05,-4e-05,2e-05,0,-0.00028,-8e-05,-0.00014,6,4
27025,4e-05,-1e-05,-4e-05,2e-05,0,-0.00028,-8e-05,-0.00014,6,4
27026,4e-05,-1e-05,-4e-05,2e-05,0,-0.00028,-8e-05,-0.00014,6,4
27027,4e-05,-1e-05,-4e-05,2e-05,0,-0.00028,-8e-05,-0.00014,6,4
27028,4e-05,-1e-05,-4e-05,2e-05,0,-0.00028,-8e-05,-0.00014,6,4
27029,4e-05,-1e-05,-4e-05,2e-05,0,-0.00028,-8e-05,-0.00014,6,4
27030,4e-05,-1e-05,-4e-05,2e-05,0,-0.00028,-8e-05,-0.00014,6,4
27031,4e-05,-1e-05,-4e-05,2e-05,0,-0.00028,-8e-05,-0.00014,6,4
27032,4e-05,-1e-05,-4e-05,2e-05,0,-0.00028,-8e-05,-0.00014,6,4
27033,4e-05,-1e-05,-4e-05,2e-05,0,-0.00028,-8e-05,-0.00014,6,4
27034,4e-05,-1e-05,-4e-05,2e-05,0,-0.00028,-8e-05,-0.00014,6,4
27035,4e-05,-1e-05,-4e-05,2e-05,0,-0.00028,-8e-05,-0.00014,6,4
27036,4e-05,-1e-05,-4e-05,2e-05,0,-0.00028,-8e-05,-0.00014,6,4
27037,4e-05,-1e-05,-4e-05,2e-05,0,-0.00028,-8e-05,-0.00014,6,4
27038,-8e-05,-7e-05,6e-05,-4e-05,-0.00013,0.00041,0.00014,4e-05,6,4
27039,-8e-05,-7e-05,6e-05,-4e-05,-0.00013,0.00041,0.00014,4e-05,6,4
27040,-0.00064,-2e-05,-1e-05,-0.00013,-0.00053,-0.00012,-0.0001,-0.00011,6,4
27041,-0.00064,-2e-05,-1e-05,-0.00013,-0.00053,-0.00012,-0.0001,-0.00011,6,4
27042,-0.00064,-2e-05,-1e-05,-0.00013,-0.00053,-0.00012,-0.0001,-0.00011,6,4
27043,-0.00064,-2e-05,-1e-05,-0.00013,-0.00053,-0.00012,-0.0001,-0.00011,6,4
27044,-0.00064,-2e-05,-1e-05,-0.00013,-0.00053,-0.00012,-0.0001,-0.00011,6,4
27045,-0.00064,-2e-05,-1e-05,-0.00013,-0.00053,-0.00012,-0.0001,-0.00011,6,4
27046,-0.00064,-2e-05,-1e-05,-0.00013,-0.00053,-0.00012,-0.0001,-0.00011,6,4
27047,-0.00064,-2e-05,-1e-05,-0.00013,-0.00053,-0.00012,-0.0001,-0.00011,6,4
27048,-0.00064,-2e-05,-1e-05,-0.00013,-0.00053,-0.00012,-0.0001,-0.00011,6,4
27049,-0.00064,-2e-05,-1e-05,-0.00013,-0.00053,-0.00012,-0.0001,-0.00011,6,4
27050,-0.00064,-2e-05,-1e-05,-0.00013,-0.00053,-0.00012,-0.0001,-0.00011,6,4
27051,-0.00064,-2e-05,-1e-05,-0.00013,-0.00053,-0.00012,-0.0001,-0.00011,6,4
27052,-0.00064,-2e-05,-1e-05,-0.00013,-0.00053,-0.00012,-0.0001,-0.00011,6,4
27053,-0.00064,-2e-05,-1e-05,-0.00013,-0.00053,-0.00012,-0.0001,-0.00011,6,4
27054,-0.00064,-2e-05,-1e-05,-0.00013,-0.00053,-0.00012,-0.0001,-0.00011,6,4
27055,-0.00064,-2e-05,-1e-05,-0.00013,-0.00053,-0.00012,-0.0001,-0.00011,6,4
27057,-0.00064,-2e-05,-1e-05,-0.00013,-0.00053,-0.00012,-0.0001,-0.00011,6,4
27058,-0.00064,-2e-05,-1e-05,-0.00013,-0.00053,-0.00012,-0.0001,-0.00011,6,4
27059,-0.00064,-2e-05,-1e-05,-0.00013,-0.00053,-0.00012,-0.0001,-0.00011,6,4
27060,-0.00064,-2e-05,-1e-05,-0.00013,-0.00053,-0.00012,-0.0001,-0.00011,6,4
27061,-0.00013,5e-05,-6e-05,-6e-05,2e-05,-0.00012,-0.00014,-0.00028,6,4
27062,-0.00013,5e-05,-6e-05,-6e-05,2e-05,-0.00012,-0.00014,-0.00028,6,4
27063,0.00027,-3e-05,3e-05,-1e-05,3e-05,0.00015,-0.00017,0,6,4
27064,0.00027,-3e-05,3e-05,-1e-05,3e-05,0.00015,-0.00017,0,6,4
27065,0.00027,-3e-05,3e-05,-1e-05,3e-05,0.00015,-0.00017,0,6,4
27066,0.00027,-3e-05,3e-05,-1e-05,3e-05,0.00015,-0.00017,0,6,4
27067,0.00027,-3e-05,3e-05,-1e-05,3e-05,0.00015,-0.00017,0,6,4
27068,0.00027,-3e-05,3e-05,-1e-05,3e-05,0.00015,-0.00017,0,6,4
27069,0.00027,-3e-05,3e-05,-1e-05,3e-05,0.00015,-0.00017,0,6,4
27070,0.00027,-3e-05,3e-05,-1e-05,3e-05,0.00015,-0.00017,0,6,4
27071,0.00027,-3e-05,3e-05,-1e-05,3e-05,0.00015,-0.00017,0,6,4
27072,0.00027,-3e-05,3e-05,-1e-05,3e-05,0.00015,-0.00017,0,6,4
27073,0.00027,-3e-05,3e-05,-1e-05,3e-05,0.00015,-0.00017,0,6,4
27074,0.00027,-3e-05,3e-05,-1e-05,3e-05,0.00015,-0.00017,0,6,4
27075,-0.00015,6e-05,2e-05,7e-05,4e-05,-0.00017,7e-05,4e-05,6,4
27076,-0.00015,6e-05,2e-05,7e-05,4e-05,-0.00017,7e-05,4e-05,6,4
27077,-0.00015,6e-05,2e-05,7e-05,4e-05,-0.00017,7e-05,4e-05,6,4
27078,-0.00015,6e-05,2e-05,7e-05,4e-05,-0.00017,7e-05,4e-05,6,4
27079,-0.00015,6e-05,2e-05,7e-05,4e-05,-0.00017,7e-05,4e-05,6,4
27080,-0.00015,6e-05,2e-05,7e-05,4e-05,-0.00017,7e-05,4e-05,6,4
27081,-0.00015,6e-05,2e-05,7e-05,4e-05,-0.00017,7e-05,4e-05,6,4
27082,0.00023,1e-05,-2e-05,0,-2e-05,0.00014,-3e-05,-0.00037,6,4
27083,0.00023,1e-05,-2e-05,0,-2e-05,0.00014,-3e-05,-0.00037,6,4
27084,0.00023,1e-05,-2e-05,0,-2e-05,0.00014,-3e-05,-0.00037,6,4
27085,0.00023,1e-05,-2e-05,0,-2e-05,0.00014,-3e-05,-0.00037,6,4
27086,0.00023,1e-05,-2e-05,0,-2e-05,0.00014,-3e-05,-0.00037,6,4
27087,0.00023,1e-05,-2e-05,0,-2e-05,0.00014,-3e-05,-0.00037,6,4
27088,0.00023,1e-05,-2e-05,0,-2e-05,0.00014,-3e-05,-0.00037,6,4
27089,0.00023,1e-05,-2e-05,0,-2e-05,0.00014,-3e-05,-0.00037,6,4
27090,0.00023,1e-05,-2e-05,0,-2e-05,0.00014,-3e-05,-0.00037,6,4
27091,0.00023,1e-05,-2e-05,0,-2e-05,0.00014,-3e-05,-0.00037,6,4
27092,0.00023,1e-05,-2e-05,0,-2e-05,0.00014,-3e-05,-0.00037,6,4
27093,0.00023,1e-05,-2e-05,0,-2e-05,0.00014,-3e-05,-0.00037,6,4
27094,0.00023,1e-05,-2e-05,0,-2e-05,0.00014,-3e-05,-0.00037,6,4
27095,0.00023,1e-05,-2e-05,0,-2e-05,0.00014,-3e-05,-0.00037,6,4
27096,0.00023,1e-05,-2e-05,0,-2e-05,0.00014,-3e-05,-0.00037,6,4
27097,0.00023,1e-05,-2e-05,0,-2e-05,0.00014,-3e-05,-0.00037,6,4
27098,0.0001,2e-05,5e-05,6e-05,-0.00021,-0.00033,-0.00021,1e-05,6,4
27099,0.0001,2e-05,5e-05,6e-05,-0.00021,-0.00033,-0.00021,1e-05,6,4
27100,0.0001,2e-05,5e-05,6e-05,-0.00021,-0.00033,-0.00021,1e-05,6,4
27102,0.00056,7e-05,-3e-05,1e-05,7e-05,-0.00011,1e-05,0.00017,6,4
27103,0.00056,7e-05,-3e-05,1e-05,7e-05,-0.00011,1e-05,0.00017,6,4
27104,0.00056,7e-05,-3e-05,1e-05,7e-05,-0.00011,1e-05,0.00017,6,4
27105,0.00056,7e-05,-3e-05,1e-05,7e-05,-0.00011,1e-05,0.00017,6,4
27106,0.00056,7e-05,-3e-05,1e-05,7e-05,-0.00011,1e-05,0.00017,6,4
27107,0.00056,7e-05,-3e-05,1e-05,7e-05,-0.00011,1e-05,0.00017,6,4
27108,0.00056,7e-05,-3e-05,1e-05,7e-05,-0.00011,1e-05,0.00017,6,4
27109,0.00056,7e-05,-3e-05,1e-05,7e-05,-0.00011,1e-05,0.00017,6,4
27110,0.00056,7e-05,-3e-05,1e-05,7e-05,-0.00011,1e-05,0.00017,6,4
27111,0.00056,7e-05,-3e-05,1e-05,7e-05,-0.00011,1e-05,0.00017,6,4
27112,0.00056,7e-05,-3e-05,1e-05,7e-05,-0.00011,1e-05,0.00017,6,4
27113,0.00056,7e-05,-3e-05,1e-05,7e-05,-0.00011,1e-05,0.00017,6,4
27114,0.00056,7e-05,-3e-05,1e-05,7e-05,-0.00011,1e-05,0.00017,6,4
27115,0.00056,7e-05,-3e-05,1e-05,7e-05,-0.00011,1e-05,0.00017,6,4
27116,0.00056,7e-05,-3e-05,1e-05,7e-05,-0.00011,1e-05,0.00017,6,4
27117,0.00056,7e-05,-3e-05,1e-05,7e-05,-0.00011,1e-05,0.00017,6,4
27118,0.00056,7e-05,-3e-05,1e-05,7e-05,-0.00011,1e-05,0.00017,6,4
27119,0.00056,7e-05,-3e-05,1e-05,7e-05,-0.00011,1e-05,0.00017,6,4
27120,0.00056,7e-05,-3e-05,1e-05,7e-05,-0.00011,1e-05,0.00017,6,4
27121,4e-05,0,-6e-05,-1e-05,0.00026,0.00053,3e-05,7e-05,6,4
27122,0,7e-05,6e-05,0.00016,0.00033,0.00012,2e-05,-3e-05,6,4
27124,0,7e-05,6e-05,0.00016,0.00033,0.00012,2e-05,-3e-05,6,4
27125,0,7e-05,6e-05,0.00016,0.00033,0.00012,2e-05,-3e-05,6,4
27126,0,7e-05,6e-05,0.00016,0.00033,0.00012,2e-05,-3e-05,6,4
27127,0,7e-05,6e-05,0.00016,0.00033,0.00012,2e-05,-3e-05,6,4
27128,0,7e-05,6e-05,0.00016,0.00033,0.00012,2e-05,-3e-05,6,4
27129,0,7e-05,6e-05,0.00016,0.00033,0.00012,2e-05,-3e-05,6,4
27130,0,7e-05,6e-05,0.00016,0.00033,0.00012,2e-05,-3e-05,6,4
27131,0,7e-05,6e-05,0.00016,0.00033,0.00012,2e-05,-3e-05,6,4
27132,0,7e-05,6e-05,0.00016,0.00033,0.00012,2e-05,-3e-05,6,4
27133,0,7e-05,6e-05,0.00016,0.00033,0.00012,2e-05,-3e-05,6,4
27134,0,7e-05,6e-05,0.00016,0.00033,0.00012,2e-05,-3e-05,6,4
27135,-2e-05,-6e-05,4e-05,1e-05,6e-05,-0.0003,-4e-05,-3e-05,6,4
27136,-2e-05,-6e-05,4e-05,1e-05,6e-05,-0.0003,-4e-05,-3e-05,6,4
27138,-2e-05,-6e-05,4e-05,1e-05,6e-05,-0.0003,-4e-05,-3e-05,6,4
27139,-2e-05,-6e-05,4e-05,1e-05,6e-05,-0.0003,-4e-05,-3e-05,6,4
27140,-2e-05,-6e-05,4e-05,1e-05,6e-05,-0.0003,-4e-05,-3e-05,6,4
27141,-2e-05,-6e-05,4e-05,1e-05,6e-05,-0.0003,-4e-05,-3e-05,6,4
27142,-0.00048,0,3e-05,-0.0001,-0.00026,-0.00031,-0.00016,-0.00013,6,4
27143,-0.00048,0,3e-05,-0.0001,-0.00026,-0.00031,-0.00016,-0.00013,6,4
27144,-0.00048,0,3e-05,-0.0001,-0.00026,-0.00031,-0.00016,-0.00013,6,4
27145,-0.00048,0,3e-05,-0.0001,-0.00026,-0.00031,-0.00016,-0.00013,6,4
27146,-0.00048,0,3e-05,-0.0001,-0.00026,-0.00031,-0.00016,-0.00013,6,4
27147,-0.00048,0,3e-05,-0.0001,-0.00026,-0.00031,-0.00016,-0.00013,6,4
27149,-0.00048,0,3e-05,-0.0001,-0.00026,-0.00031,-0.00016,-0.00013,6,4
27151,-0.00048,0,3e-05,-0.0001,-0.00026,-0.00031,-0.00016,-0.00013,6,4
27152,-0.00048,0,3e-05,-0.0001,-0.00026,-0.00031,-0.00016,-0.00013,6,4
27153,-0.00048,0,3e-05,-0.0001,-0.00026,-0.00031,-0.00016,-0.00013,6,4
27154,-0.00048,0,3e-05,-0.0001,-0.00026,-0.00031,-0.00016,-0.00013,6,4
27155,-0.00048,0,3e-05,-0.0001,-0.00026,-0.00031,-0.00016,-0.00013,6,4
27156,-0.00048,0,3e-05,-0.0001,-0.00026,-0.00031,-0.00016,-0.00013,6,4
27157,-0.00048,0,3e-05,-0.0001,-0.00026,-0.00031,-0.00016,-0.00013,6,4
27158,0.00032,-3e-05,-0.00011,-4e-05,-8e-05,0.00019,0.00032,0.00013,6,4
27159,0.00032,-3e-05,-0.00011,-4e-05,-8e-05,0.00019,0.00032,0.00013,6,4
27160,9e-05,-2e-05,1e-05,-3e-05,2e-05,3e-05,-9e-05,2e-05,6,4
27161,9e-05,-2e-05,1e-05,-3e-05,2e-05,3e-05,-9e-05,2e-05,6,4
27162,9e-05,-2e-05,1e-05,-3e-05,2e-05,3e-05,-9e-05,2e-05,6,4
27163,9e-05,-2e-05,1e-05,-3e-05,2e-05,3e-05,-9e-05,2e-05,6,4
27164,9e-05,-2e-05,1e-05,-3e-05,2e-05,3e-05,-9e-05,2e-05,6,4
27165,9e-05,-2e-05,1e-05,-3e-05,2e-05,3e-05,-9e-05,2e-05,6,4
27166,9e-05,-2e-05,1e-05,-3e-05,2e-05,3e-05,-9e-05,2e-05,6,4
27167,9e-05,-2e-05,1e-05,-3e-05,2e-05,3e-05,-9e-05,2e-05,6,4
27168,9e-05,-2e-05,1e-05,-3e-05,2e-05,3e-05,-9e-05,2e-05,6,4
27169,9e-05,-2e-05,1e-05,-3e-05,2e-05,3e-05,-9e-05,2e-05,6,4
27170,9e-05,-2e-05,1e-05,-3e-05,2e-05,3e-05,-9e-05,2e-05,6,4
27171,9e-05,-2e-05,1e-05,-3e-05,2e-05,3e-05,-9e-05,2e-05,6,4
27172,9e-05,-2e-05,1e-05,-3e-05,2e-05,3e-05,-9e-05,2e-05,6,4
27173,9e-05,-2e-05,1e-05,-3e-05,2e-05,3e-05,-9e-05,2e-05,6,4
27174,9e-05,-2e-05,1e-05,-3e-05,2e-05,3e-05,-9e-05,2e-05,6,4
27175,9e-05,-2e-05,1e-05,-3e-05,2e-05,3e-05,-9e-05,2e-05,6,4
27176,9e-05,-2e-05,1e-05,-3e-05,2e-05,3e-05,-9e-05,2e-05,6,4
27177,9e-05,-2e-05,1e-05,-3e-05,2e-05,3e-05,-9e-05,2e-05,6,4
27178,9e-05,-2e-05,1e-05,-3e-05,2e-05,3e-05,-9e-05,2e-05,6,4
27179,9e-05,-2e-05,1e-05,-3e-05,2e-05,3e-05,-9e-05,2e-05,6,4
27180,9e-05,-2e-05,1e-05,-3e-05,2e-05,3e-05,-9e-05,2e-05,6,4
27181,-0.00027,1e-05,-4e-05,-9e-05,-0.00014,-7e-05,0.00012,-0.00012,6,4
27182,0.00019,0,4e-05,5e-05,-0.00013,1e-05,-0.00011,0.00011,6,4
27183,0.00019,0,4e-05,5e-05,-0.00013,1e-05,-0.00011,0.00011,6,4
27184,0.00019,0,4e-05,5e-05,-0.00013,1e-05,-0.00011,0.00011,6,4
27185,0.00019,0,4e-05,5e-05,-0.00013,1e-05,-0.00011,0.00011,6,4
27186,0.00019,0,4e-05,5e-05,-0.00013,1e-05,-0.00011,0.00011,6,4
27187,0.00019,0,4e-05,5e-05,-0.00013,1e-05,-0.00011,0.00011,6,4
27188,0.00019,0,4e-05,5e-05,-0.00013,1e-05,-0.00011,0.00011,6,4
27189,0.00019,0,4e-05,5e-05,-0.00013,1e-05,-0.00011,0.00011,6,4
27190,0.00019,0,4e-05,5e-05,-0.00013,1e-05,-0.00011,0.00011,6,4
27191,0.00019,0,4e-05,5e-05,-0.00013,1e-05,-0.00011,0.00011,6,4
27192,0.00019,0,4e-05,5e-05,-0.00013,1e-05,-0.00011,0.00011,6,4
27193,0.00019,0,4e-05,5e-05,-0.00013,1e-05,-0.00011,0.00011,6,4
27194,0.00019,0,4e-05,5e-05,-0.00013,1e-05,-0.00011,0.00011,6,4
27196,0.0001,-1e-05,1e-05,8e-05,3e-05,-0.00022,-4e-05,4e-05,6,4
27197,0.0001,-1e-05,1e-05,8e-05,3e-05,-0.00022,-4e-05,4e-05,6,4
27198,0.0001,-1e-05,1e-05,8e-05,3e-05,-0.00022,-4e-05,4e-05,6,4
27199,0.0001,-1e-05,1e-05,8e-05,3e-05,-0.00022,-4e-05,4e-05,6,4
27201,0.0001,-1e-05,1e-05,8e-05,3e-05,-0.00022,-4e-05,4e-05,6,4
27202,-0.00012,-2e-05,8e-05,-1e-05,-0.0003,-0.00048,0.00016,0.0002,6,4
27203,-0.00012,-2e-05,8e-05,-1e-05,-0.0003,-0.00048,0.00016,0.0002,6,4
27204,-0.00012,-2e-05,8e-05,-1e-05,-0.0003,-0.00048,0.00016,0.0002,6,4
27205,-0.00012,-2e-05,8e-05,-1e-05,-0.0003,-0.00048,0.00016,0.0002,6,4
27206,-0.00012,-2e-05,8e-05,-1e-05,-0.0003,-0.00048,0.00016,0.0002,6,4
27207,-0.00012,-2e-05,8e-05,-1e-05,-0.0003,-0.00048,0.00016,0.0002,6,4
27208,-0.00012,-2e-05,8e-05,-1e-05,-0.0003,-0.00048,0.00016,0.0002,6,4
27209,-0.00012,-2e-05,8e-05,-1e-05,-0.0003,-0.00048,0.00016,0.0002,6,4
27210,-0.00012,-2e-05,8e-05,-1e-05,-0.0003,-0.00048,0.00016,0.0002,6,4
27211,-0.00012,-2e-05,8e-05,-1e-05,-0.0003,-0.00048,0.00016,0.0002,6,4
27212,-0.00012,-2e-05,8e-05,-1e-05,-0.0003,-0.00048,0.00016,0.0002,6,4
27213,-0.00012,-2e-05,8e-05,-1e-05,-0.0003,-0.00048,0.00016,0.0002,6,4
27214,-0.00012,-2e-05,8e-05,-1e-05,-0.0003,-0.00048,0.00016,0.0002,6,4
27215,-0.00012,-2e-05,8e-05,-1e-05,-0.0003,-0.00048,0.00016,0.0002,6,4
27216,-0.00012,-2e-05,8e-05,-1e-05,-0.0003,-0.00048,0.00016,0.0002,6,4
27217,-0.00012,-2e-05,8e-05,-1e-05,-0.0003,-0.00048,0.00016,0.0002,6,4
27218,7e-05,-1e-05,-5e-05,-3e-05,0.00019,1e-05,-0.00017,-4e-05,6,4
27219,7e-05,-1e-05,-5e-05,-3e-05,0.00019,1e-05,-0.00017,-4e-05,6,4
27220,0.00048,5e-05,-9e-05,-5e-05,-0.00028,0.00046,0.00057,0.00023,6,4
27221,0.00048,5e-05,-9e-05,-5e-05,-0.00028,0.00046,0.00057,0.00023,6,4
27222,0.00048,5e-05,-9e-05,-5e-05,-0.00028,0.00046,0.00057,0.00023,6,4
27223,0.00048,5e-05,-9e-05,-5e-05,-0.00028,0.00046,0.00057,0.00023,6,4
27224,0.00048,5e-05,-9e-05,-5e-05,-0.00028,0.00046,0.00057,0.00023,6,4
27225,0.00048,5e-05,-9e-05,-5e-05,-0.00028,0.00046,0.00057,0.00023,6,4
27226,0.00048,5e-05,-9e-05,-5e-05,-0.00028,0.00046,0.00057,0.00023,6,4
27227,0.00048,5e-05,-9e-05,-5e-05,-0.00028,0.00046,0.00057,0.00023,6,4
27228,0.00048,5e-05,-9e-05,-5e-05,-0.00028,0.00046,0.00057,0.00023,6,4
27229,0.00048,5e-05,-9e-05,-5e-05,-0.00028,0.00046,0.00057,0.00023,6,4
27230,0.00048,5e-05,-9e-05,-5e-05,-0.00028,0.00046,0.00057,0.00023,6,4
27231,0.00048,5e-05,-9e-05,-5e-05,-0.00028,0.00046,0.00057,0.00023,6,4
27232,0.00048,5e-05,-9e-05,-5e-05,-0.00028,0.00046,0.00057,0.00023,6,4
27233,0.00048,5e-05,-9e-05,-5e-05,-0.00028,0.00046,0.00057,0.00023,6,4
27234,0.00048,5e-05,-9e-05,-5e-05,-0.00028,0.00046,0.00057,0.00023,6,4
27235,0.00048,5e-05,-9e-05,-5e-05,-0.00028,0.00046,0.00057,0.00023,6,4
27236,0.00048,5e-05,-9e-05,-5e-05,-0.00028,0.00046,0.00057,0.00023,6,4
27237,0.00048,5e-05,-9e-05,-5e-05,-0.00028,0.00046,0.00057,0.00023,6,4
27238,0.00048,5e-05,-9e-05,-5e-05,-0.00028,0.00046,0.00057,0.00023,6,4
27239,0.00048,5e-05,-9e-05,-5e-05,-0.00028,0.00046,0.00057,0.00023,6,4
27240,0.00048,5e-05,-9e-05,-5e-05,-0.00028,0.00046,0.00057,0.00023,6,4
27241,3e-05,-2e-05,2e-05,-4e-05,-0.00013,-8e-05,-8e-05,0.0001,6,4
27243,-0.00015,-1e-05,-7e-05,0.00011,0.00043,2e-05,-0.00012,0.0004,6,4
27244,-0.00015,-1e-05,-7e-05,0.00011,0.00043,2e-05,-0.00012,0.0004,6,4
27245,-0.00015,-1e-05,-7e-05,0.00011,0.00043,2e-05,-0.00012,0.0004,6,4
27246,-0.00015,-1e-05,-7e-05,0.00011,0.00043,2e-05,-0.00012,0.0004,6,4
27247,-0.00015,-1e-05,-7e-05,0.00011,0.00043,2e-05,-0.00012,0.0004,6,4
27248,-0.00015,-1e-05,-7e-05,0.00011,0.00043,2e-05,-0.00012,0.0004,6,4
27249,-0.00015,-1e-05,-7e-05,0.00011,0.00043,2e-05,-0.00012,0.0004,6,4
27251,-0.00015,-1e-05,-7e-05,0.00011,0.00043,2e-05,-0.00012,0.0004,6,4
27252,-0.00015,-1e-05,-7e-05,0.00011,0.00043,2e-05,-0.00012,0.0004,6,4
27253,-0.00015,-1e-05,-7e-05,0.00011,0.00043,2e-05,-0.00012,0.0004,6,4
27254,-0.00015,-1e-05,-7e-05,0.00011,0.00043,2e-05,-0.00012,0.0004,6,4
27255,0,7e-05,6e-05,0.00011,0.00026,0.0001,-1e-05,7e-05,6,4
27256,0,7e-05,6e-05,0.00011,0.00026,0.0001,-1e-05,7e-05,6,4
27257,0,7e-05,6e-05,0.00011,0.00026,0.0001,-1e-05,7e-05,6,4
27258,0,7e-05,6e-05,0.00011,0.00026,0.0001,-1e-05,7e-05,6,4
27259,0,7e-05,6e-05,0.00011,0.00026,0.0001,-1e-05,7e-05,6,4
27260,0,7e-05,6e-05,0.00011,0.00026,0.0001,-1e-05,7e-05,6,4
27261,0,7e-05,6e-05,0.00011,0.00026,0.0001,-1e-05,7e-05,6,4
27262,-0.00013,2e-05,-7e-05,-0.00021,-0.00047,-0.00041,-0.00012,0.00022,6,4
27263,-0.00013,2e-05,-7e-05,-0.00021,-0.00047,-0.00041,-0.00012,0.00022,6,4
27264,-0.00013,2e-05,-7e-05,-0.00021,-0.00047,-0.00041,-0.00012,0.00022,6,4
27265,-0.00013,2e-05,-7e-05,-0.00021,-0.00047,-0.00041,-0.00012,0.00022,6,4
27266,-0.00013,2e-05,-7e-05,-0.00021,-0.00047,-0.00041,-0.00012,0.00022,6,4
27267,-0.00013,2e-05,-7e-05,-0.00021,-0.00047,-0.00041,-0.00012,0.00022,6,4
27268,-0.00013,2e-05,-7e-05,-0.00021,-0.00047,-0.00041,-0.00012,0.00022,6,4
27269,-0.00013,2e-05,-7e-05,-0.00021,-0.00047,-0.00041,-0.00012,0.00022,6,4
27270,-0.00013,2e-05,-7e-05,-0.00021,-0.00047,-0.00041,-0.00012,0.00022,6,4
27271,-0.00013,2e-05,-7e-05,-0.00021,-0.00047,-0.00041,-0.00012,0.00022,6,4
27272,-0.00013,2e-05,-7e-05,-0.00021,-0.00047,-0.00041,-0.00012,0.00022,6,4
27273,-0.00013,2e-05,-7e-05,-0.00021,-0.00047,-0.00041,-0.00012,0.00022,6,4
27274,-0.00013,2e-05,-7e-05,-0.00021,-0.00047,-0.00041,-0.00012,0.00022,6,4
27275,-0.00013,2e-05,-7e-05,-0.00021,-0.00047,-0.00041,-0.00012,0.00022,6,4
27276,-0.00013,2e-05,-7e-05,-0.00021,-0.00047,-0.00041,-0.00012,0.00022,6,4
27277,-0.00013,2e-05,-7e-05,-0.00021,-0.00047,-0.00041,-0.00012,0.00022,6,4
27278,-0.00057,1e-05,0.0001,3e-05,-8e-05,5e-05,0,-0.00036,6,4
27279,-0.00057,1e-05,0.0001,3e-05,-8e-05,5e-05,0,-0.00036,6,4
27280,-0.00018,-7e-05,-5e-05,0,0.00026,-5e-05,-0.00016,-0.00018,6,4
27281,-0.00018,-7e-05,-5e-05,0,0.00026,-5e-05,-0.00016,-0.00018,6,4
27282,-0.00018,-7e-05,-5e-05,0,0.00026,-5e-05,-0.00016,-0.00018,6,4
27283,-0.00018,-7e-05,-5e-05,0,0.00026,-5e-05,-0.00016,-0.00018,6,4
27284,-0.00018,-7e-05,-5e-05,0,0.00026,-5e-05,-0.00016,-0.00018,6,4
27285,-0.00018,-7e-05,-5e-05,0,0.00026,-5e-05,-0.00016,-0.00018,6,4
27286,-0.00018,-7e-05,-5e-05,0,0.00026,-5e-05,-0.00016,-0.00018,6,4
27287,-0.00018,-7e-05,-5e-05,0,0.00026,-5e-05,-0.00016,-0.00018,6,4
27288,-0.00018,-7e-05,-5e-05,0,0.00026,-5e-05,-0.00016,-0.00018,6,4
27289,-0.00018,-7e-05,-5e-05,0,0.00026,-5e-05,-0.00016,-0.00018,6,4
27291,-0.00018,-7e-05,-5e-05,0,0.00026,-5e-05,-0.00016,-0.00018,6,4
27292,-0.00018,-7e-05,-5e-05,0,0.00026,-5e-05,-0.00016,-0.00018,6,4
27293,-0.00018,-7e-05,-5e-05,0,0.00026,-5e-05,-0.00016,-0.00018,6,4
27294,-0.00018,-7e-05,-5e-05,0,0.00026,-5e-05,-0.00016,-0.00018,6,4
27295,-0.00018,-7e-05,-5e-05,0,0.00026,-5e-05,-0.00016,-0.00018,6,4
27296,-0.00018,-7e-05,-5e-05,0,0.00026,-5e-05,-0.00016,-0.00018,6,4
27297,-0.00018,-7e-05,-5e-05,0,0.00026,-5e-05,-0.00016,-0.00018,6,4
27298,-0.00018,-7e-05,-5e-05,0,0.00026,-5e-05,-0.00016,-0.00018,6,4
27299,-0.00018,-7e-05,-5e-05,0,0.00026,-5e-05,-0.00016,-0.00018,6,4
27301,0.00024,-4e-05,-7e-05,-2e-05,0,1e-05,-0.00013,-0.0002,6,4
27302,-0.00015,-0.00015,-2e-05,-5e-05,3e-05,0,-2e-05,-0.0001,6,4
27303,-0.00015,-0.00015,-2e-05,-5e-05,3e-05,0,-2e-05,-0.0001,6,4
27304,-0.00015,-0.00015,-2e-05,-5e-05,3e-05,0,-2e-05,-0.0001,6,4
27305,-0.00015,-0.00015,-2e-05,-5e-05,3e-05,0,-2e-05,-0.0001,6,4
27306,-0.00015,-0.00015,-2e-05,-5e-05,3e-05,0,-2e-05,-0.0001,6,4
27307,-0.00015,-0.00015,-2e-05,-5e-05,3e-05,0,-2e-05,-0.0001,6,4
27308,-0.00015,-0.00015,-2e-05,-5e-05,3e-05,0,-2e-05,-0.0001,6,4
27309,-0.00015,-0.00015,-2e-05,-5e-05,3e-05,0,-2e-05,-0.0001,6,4
27310,-0.00015,-0.00015,-2e-05,-5e-05,3e-05,0,-2e-05,-0.0001,6,4
27311,-0.00015,-0.00015,-2e-05,-5e-05,3e-05,0,-2e-05,-0.0001,6,4
27312,-0.00015,-0.00015,-2e-05,-5e-05,3e-05,0,-2e-05,-0.0001,6,4
27313,-0.00015,-0.00015,-2e-05,-5e-05,3e-05,0,-2e-05,-0.0001,6,4
27314,0.00028,-6e-05,-0.0001,-4e-05,0.0001,0.00019,8e-05,9e-05,6,4
27315,0.00028,-6e-05,-0.0001,-4e-05,0.0001,0.00019,8e-05,9e-05,6,4
27316,0.00028,-6e-05,-0.0001,-4e-05,0.0001,0.00019,8e-05,9e-05,6,4
27317,0.00028,-6e-05,-0.0001,-4e-05,0.0001,0.00019,8e-05,9e-05,6,4
27318,0.00028,-6e-05,-0.0001,-4e-05,0.0001,0.00019,8e-05,9e-05,6,4
27319,0.00028,-6e-05,-0.0001,-4e-05,0.0001,0.00019,8e-05,9e-05,6,4
27320,0.00028,-6e-05,-0.0001,-4e-05,0.0001,0.00019,8e-05,9e-05,6,4
27321,0.00028,-6e-05,-0.0001,-4e-05,0.0001,0.00019,8e-05,9e-05,6,4
27322,0.00028,-6e-05,-0.0001,-4e-05,0.0001,0.00019,8e-05,9e-05,6,4
27323,0.00028,-6e-05,-0.0001,-4e-05,0.0001,0.00019,8e-05,9e-05,6,4
27324,0.00027,-7e-05,-6e-05,-4e-05,0.00011,0.00012,6e-05,7e-05,6,4
27325,0.00027,-7e-05,-6e-05,-4e-05,0.00011,0.00012,6e-05,7e-05,6,4
27326,0.00027,-7e-05,-6e-05,-4e-05,0.00011,0.00012,6e-05,7e-05,6,4
27327,0.00027,-7e-05,-6e-05,-4e-05,0.00011,0.00012,6e-05,7e-05,6,4
27328,0.00027,-7e-05,-6e-05,-4e-05,0.00011,0.00012,6e-05,7e-05,6,4
27329,0.00027,-7e-05,-6e-05,-4e-05,0.00011,0.00012,6e-05,7e-05,6,4
27330,0.00027,-7e-05,-6e-05,-4e-05,0.00011,0.00012,6e-05,7e-05,6,4
27331,0.00027,-7e-05,-6e-05,-4e-05,0.00011,0.00012,6e-05,7e-05,6,4
27332,0.00027,-7e-05,-6e-05,-4e-05,0.00011,0.00012,6e-05,7e-05,6,4
27333,0.00027,-7e-05,-6e-05,-4e-05,0.00011,0.00012,6e-05,7e-05,6,4
27334,0.00027,-7e-05,-6e-05,-4e-05,0.00011,0.00012,6e-05,7e-05,6,4
27335,0.00027,-7e-05,-6e-05,-4e-05,0.00011,0.00012,6e-05,7e-05,6,4
27337,0.00027,-7e-05,-6e-05,-4e-05,0.00011,0.00012,6e-05,7e-05,6,4
27338,0.00027,-7e-05,-6e-05,-4e-05,0.00011,0.00012,6e-05,7e-05,6,4
27339,-0.00013,-4e-05,0,-0.00011,-0.00056,-0.00047,-0.0002,-1e-05,6,4
27340,-0.00042,2e-05,-2e-05,-0.00015,-0.00029,-6e-05,-4e-05,-0.00011,6,4
27341,-0.00042,2e-05,-2e-05,-0.00015,-0.00029,-6e-05,-4e-05,-0.00011,6,4
27342,-0.00042,2e-05,-2e-05,-0.00015,-0.00029,-6e-05,-4e-05,-0.00011,6,4
27343,-0.00042,2e-05,-2e-05,-0.00015,-0.00029,-6e-05,-4e-05,-0.00011,6,4
27344,-0.00042,2e-05,-2e-05,-0.00015,-0.00029,-6e-05,-4e-05,-0.00011,6,4
27345,-0.00042,2e-05,-2e-05,-0.00015,-0.00029,-6e-05,-4e-05,-0.00011,6,4
27346,-0.00042,2e-05,-2e-05,-0.00015,-0.00029,-6e-05,-4e-05,-0.00011,6,4
27347,-0.00042,2e-05,-2e-05,-0.00015,-0.00029,-6e-05,-4e-05,-0.00011,6,4
27348,-0.00042,2e-05,-2e-05,-0.00015,-0.00029,-6e-05,-4e-05,-0.00011,6,4
27349,-0.00042,2e-05,-2e-05,-0.00015,-0.00029,-6e-05,-4e-05,-0.00011,6,4
27351,-0.00042,2e-05,-2e-05,-0.00015,-0.00029,-6e-05,-4e-05,-0.00011,6,4
27352,-0.00042,2e-05,-2e-05,-0.00015,-0.00029,-6e-05,-4e-05,-0.00011,6,4
27353,-0.00042,2e-05,-2e-05,-0.00015,-0.00029,-6e-05,-4e-05,-0.00011,6,4
27354,-0.00042,2e-05,-2e-05,-0.00015,-0.00029,-6e-05,-4e-05,-0.00011,6,4
27355,-0.00042,2e-05,-2e-05,-0.00015,-0.00029,-6e-05,-4e-05,-0.00011,6,4
27356,-0.00042,2e-05,-2e-05,-0.00015,-0.00029,-6e-05,-4e-05,-0.00011,6,4
27357,-0.00042,2e-05,-2e-05,-0.00015,-0.00029,-6e-05,-4e-05,-0.00011,6,4
27358,-0.00042,2e-05,-2e-05,-0.00015,-0.00029,-6e-05,-4e-05,-0.00011,6,4
27359,-0.00042,2e-05,-2e-05,-0.00015,-0.00029,-6e-05,-4e-05,-0.00011,6,4
27360,-0.00042,2e-05,-2e-05,-0.00015,-0.00029,-6e-05,-4e-05,-0.00011,6,4
27361,-0.00021,-1e-05,-2e-05,-5e-05,-0.00012,-0.0001,-4e-05,-7e-05,6,4
27362,-0.00021,-1e-05,-2e-05,-5e-05,-0.00012,-0.0001,-4e-05,-7e-05,6,4
27363,4e-05,4e-05,4e-05,4e-05,8e-05,4e-05,0.00028,7e-05,6,4
27364,4e-05,4e-05,4e-05,4e-05,8e-05,4e-05,0.00028,7e-05,6,4
27365,4e-05,4e-05,4e-05,4e-05,8e-05,4e-05,0.00028,7e-05,6,4
27366,4e-05,4e-05,4e-05,4e-05,8e-05,4e-05,0.00028,7e-05,6,4
27367,4e-05,4e-05,4e-05,4e-05,8e-05,4e-05,0.00028,7e-05,6,4
27368,4e-05,4e-05,4e-05,4e-05,8e-05,4e-05,0.00028,7e-05,6,4
27369,4e-05,4e-05,4e-05,4e-05,8e-05,4e-05,0.00028,7e-05,6,4
27370,4e-05,4e-05,4e-05,4e-05,8e-05,4e-05,0.00028,7e-05,6,4
27371,4e-05,4e-05,4e-05,4e-05,8e-05,4e-05,0.00028,7e-05,6,4
27372,4e-05,4e-05,4e-05,4e-05,8e-05,4e-05,0.00028,7e-05,6,4
27373,4e-05,4e-05,4e-05,4e-05,8e-05,4e-05,0.00028,7e-05,6,4
27374,4e-05,4e-05,4e-05,4e-05,8e-05,4e-05,0.00028,7e-05,6,4
27375,-9e-05,1e-05,-0.0001,-2e-05,0.00015,0.00022,0.00011,3e-05,6,4
27376,-9e-05,1e-05,-0.0001,-2e-05,0.00015,0.00022,0.00011,3e-05,6,4
27377,-9e-05,1e-05,-0.0001,-2e-05,0.00015,0.00022,0.00011,3e-05,6,4
27378,-9e-05,1e-05,-0.0001,-2e-05,0.00015,0.00022,0.00011,3e-05,6,4
27379,-9e-05,1e-05,-0.0001,-2e-05,0.00015,0.00022,0.00011,3e-05,6,4
27380,-9e-05,1e-05,-0.0001,-2e-05,0.00015,0.00022,0.00011,3e-05,6,4
27381,-9e-05,1e-05,-0.0001,-2e-05,0.00015,0.00022,0.00011,3e-05,6,4
27382,0.00025,7e-05,-2e-05,8e-05,0.00028,-0.00013,-0.00012,-1e-05,6,4
27384,0.00025,7e-05,-2e-05,8e-05,0.00028,-0.00013,-0.00012,-1e-05,6,4
27385,0.00025,7e-05,-2e-05,8e-05,0.00028,-0.00013,-0.00012,-1e-05,6,4
27386,0.00025,7e-05,-2e-05,8e-05,0.00028,-0.00013,-0.00012,-1e-05,6,4
27387,0.00025,7e-05,-2e-05,8e-05,0.00028,-0.00013,-0.00012,-1e-05,6,4
27388,0.00025,7e-05,-2e-05,8e-05,0.00028,-0.00013,-0.00012,-1e-05,6,4
27389,0.00025,7e-05,-2e-05,8e-05,0.00028,-0.00013,-0.00012,-1e-05,6,4
27390,0.00025,7e-05,-2e-05,8e-05,0.00028,-0.00013,-0.00012,-1e-05,6,4
27391,0.00025,7e-05,-2e-05,8e-05,0.00028,-0.00013,-0.00012,-1e-05,6,4
27392,0.00025,7e-05,-2e-05,8e-05,0.00028,-0.00013,-0.00012,-1e-05,6,4
27393,0.00025,7e-05,-2e-05,8e-05,0.00028,-0.00013,-0.00012,-1e-05,6,4
27394,0.00025,7e-05,-2e-05,8e-05,0.00028,-0.00013,-0.00012,-1e-05,6,4
27395,0.00025,7e-05,-2e-05,8e-05,0.00028,-0.00013,-0.00012,-1e-05,6,4
27396,0.00025,7e-05,-2e-05,8e-05,0.00028,-0.00013,-0.00012,-1e-05,6,4
27397,0.00025,7e-05,-2e-05,8e-05,0.00028,-0.00013,-0.00012,-1e-05,6,4
27398,0.00025,7e-05,-2e-05,8e-05,0.00028,-0.00013,-0.00012,-1e-05,6,4
27399,0.00011,2e-05,3e-05,4e-05,9e-05,-0.0001,0.0001,0.0002,6,4
27400,0.00019,5e-05,0,-6e-05,-0.00017,-0.00014,-0.0001,-0.0002,6,4
27401,0.00019,5e-05,0,-6e-05,-0.00017,-0.00014,-0.0001,-0.0002,6,4
27402,0.00019,5e-05,0,-6e-05,-0.00017,-0.00014,-0.0001,-0.0002,6,4
27403,0.00019,5e-05,0,-6e-05,-0.00017,-0.00014,-0.0001,-0.0002,6,4
27404,0.00019,5e-05,0,-6e-05,-0.00017,-0.00014,-0.0001,-0.0002,6,4
27405,0.00019,5e-05,0,-6e-05,-0.00017,-0.00014,-0.0001,-0.0002,6,4
27406,0.00019,5e-05,0,-6e-05,-0.00017,-0.00014,-0.0001,-0.0002,6,4
27407,0.00019,5e-05,0,-6e-05,-0.00017,-0.00014,-0.0001,-0.0002,6,4
27408,0.00019,5e-05,0,-6e-05,-0.00017,-0.00014,-0.0001,-0.0002,6,4
27409,0.00019,5e-05,0,-6e-05,-0.00017,-0.00014,-0.0001,-0.0002,6,4
27410,0.00019,5e-05,0,-6e-05,-0.00017,-0.00014,-0.0001,-0.0002,6,4
27411,0.00019,5e-05,0,-6e-05,-0.00017,-0.00014,-0.0001,-0.0002,6,4
27412,0.00019,5e-05,0,-6e-05,-0.00017,-0.00014,-0.0001,-0.0002,6,4
27413,0.00019,5e-05,0,-6e-05,-0.00017,-0.00014,-0.0001,-0.0002,6,4
27414,0.00019,5e-05,0,-6e-05,-0.00017,-0.00014,-0.0001,-0.0002,6,4
27415,0.00019,5e-05,0,-6e-05,-0.00017,-0.00014,-0.0001,-0.0002,6,4
27416,0.00019,5e-05,0,-6e-05,-0.00017,-0.00014,-0.0001,-0.0002,6,4
27417,0.00019,5e-05,0,-6e-05,-0.00017,-0.00014,-0.0001,-0.0002,6,4
27418,0.00019,5e-05,0,-6e-05,-0.00017,-0.00014,-0.0001,-0.0002,6,4
27419,0.00019,5e-05,0,-6e-05,-0.00017,-0.00014,-0.0001,-0.0002,6,4
27420,0.00019,5e-05,0,-6e-05,-0.00017,-0.00014,-0.0001,-0.0002,6,4
27421,0.00014,9e-05,0,0,0.00013,-0.00023,-8e-05,-0.00026,6,4
27422,-6e-05,1e-05,-1e-05,1e-05,8e-05,6e-05,-2e-05,-7e-05,6,4
27423,-6e-05,1e-05,-1e-05,1e-05,8e-05,6e-05,-2e-05,-7e-05,6,4
27424,-6e-05,1e-05,-1e-05,1e-05,8e-05,6e-05,-2e-05,-7e-05,6,4
27425,-6e-05,1e-05,-1e-05,1e-05,8e-05,6e-05,-2e-05,-7e-05,6,4
27426,-6e-05,1e-05,-1e-05,1e-05,8e-05,6e-05,-2e-05,-7e-05,6,4
27427,-6e-05,1e-05,-1e-05,1e-05,8e-05,6e-05,-2e-05,-7e-05,6,4
27428,-6e-05,1e-05,-1e-05,1e-05,8e-05,6e-05,-2e-05,-7e-05,6,4
27429,-6e-05,1e-05,-1e-05,1e-05,8e-05,6e-05,-2e-05,-7e-05,6,4
27431,-6e-05,1e-05,-1e-05,1e-05,8e-05,6e-05,-2e-05,-7e-05,6,4
27432,-6e-05,1e-05,-1e-05,1e-05,8e-05,6e-05,-2e-05,-7e-05,6,4
27433,-6e-05,1e-05,-1e-05,1e-05,8e-05,6e-05,-2e-05,-7e-05,6,4
27434,0.00028,-9e-05,-3e-05,-6e-05,-6e-05,1e-05,5e-05,-0.00017,6,4
27438,0.00028,-9e-05,-3e-05,-6e-05,-6e-05,1e-05,5e-05,-0.00017,6,4
27439,0.00028,-9e-05,-3e-05,-6e-05,-6e-05,1e-05,5e-05,-0.00017,6,4
27440,0.00028,-9e-05,-3e-05,-6e-05,-6e-05,1e-05,5e-05,-0.00017,6,4
27441,0.00028,-9e-05,-3e-05,-6e-05,-6e-05,1e-05,5e-05,-0.00017,6,4
27442,0.00028,-9e-05,-3e-05,-6e-05,-6e-05,1e-05,5e-05,-0.00017,6,4
27443,-2e-05,-8e-05,1e-05,-5e-05,-0.00021,-3e-05,0.00013,-0.00035,6,4
27444,-2e-05,-8e-05,1e-05,-5e-05,-0.00021,-3e-05,0.00013,-0.00035,6,4
27445,-2e-05,-8e-05,1e-05,-5e-05,-0.00021,-3e-05,0.00013,-0.00035,6,4
27446,-2e-05,-8e-05,1e-05,-5e-05,-0.00021,-3e-05,0.00013,-0.00035,6,4
27447,-2e-05,-8e-05,1e-05,-5e-05,-0.00021,-3e-05,0.00013,-0.00035,6,4
27448,-2e-05,-8e-05,1e-05,-5e-05,-0.00021,-3e-05,0.00013,-0.00035,6,4
27449,-2e-05,-8e-05,1e-05,-5e-05,-0.00021,-3e-05,0.00013,-0.00035,6,4
27450,-2e-05,-8e-05,1e-05,-5e-05,-0.00021,-3e-05,0.00013,-0.00035,6,4
27451,-2e-05,-8e-05,1e-05,-5e-05,-0.00021,-3e-05,0.00013,-0.00035,6,4
27452,-2e-05,-8e-05,1e-05,-5e-05,-0.00021,-3e-05,0.00013,-0.00035,6,4
27453,-2e-05,-8e-05,1e-05,-5e-05,-0.00021,-3e-05,0.00013,-0.00035,6,4
27454,-2e-05,-8e-05,1e-05,-5e-05,-0.00021,-3e-05,0.00013,-0.00035,6,4
27455,-2e-05,-8e-05,1e-05,-5e-05,-0.00021,-3e-05,0.00013,-0.00035,6,4
27456,-2e-05,-8e-05,1e-05,-5e-05,-0.00021,-3e-05,0.00013,-0.00035,6,4
27457,-2e-05,-8e-05,1e-05,-5e-05,-0.00021,-3e-05,0.00013,-0.00035,6,4
27458,-0.00053,-0.0001,-3e-05,-5e-05,7e-05,-0.00021,-0.0002,3e-05,6,4
27459,-0.00053,-0.0001,-3e-05,-5e-05,7e-05,-0.00021,-0.0002,3e-05,6,4
27460,5e-05,-4e-05,1e-05,5e-05,-4e-05,7e-05,6e-05,-6e-05,6,4
27461,5e-05,-4e-05,1e-05,5e-05,-4e-05,7e-05,6e-05,-6e-05,6,4
27462,5e-05,-4e-05,1e-05,5e-05,-4e-05,7e-05,6e-05,-6e-05,6,4
27463,5e-05,-4e-05,1e-05,5e-05,-4e-05,7e-05,6e-05,-6e-05,6,4
27464,5e-05,-4e-05,1e-05,5e-05,-4e-05,7e-05,6e-05,-6e-05,6,4
27465,5e-05,-4e-05,1e-05,5e-05,-4e-05,7e-05,6e-05,-6e-05,6,4
27466,5e-05,-4e-05,1e-05,5e-05,-4e-05,7e-05,6e-05,-6e-05,6,4
27467,5e-05,-4e-05,1e-05,5e-05,-4e-05,7e-05,6e-05,-6e-05,6,4
27468,5e-05,-4e-05,1e-05,5e-05,-4e-05,7e-05,6e-05,-6e-05,6,4
27469,5e-05,-4e-05,1e-05,5e-05,-4e-05,7e-05,6e-05,-6e-05,6,4
27470,5e-05,-4e-05,1e-05,5e-05,-4e-05,7e-05,6e-05,-6e-05,6,4
27471,5e-05,-4e-05,1e-05,5e-05,-4e-05,7e-05,6e-05,-6e-05,6,4
27472,5e-05,-4e-05,1e-05,5e-05,-4e-05,7e-05,6e-05,-6e-05,6,4
27473,5e-05,-4e-05,1e-05,5e-05,-4e-05,7e-05,6e-05,-6e-05,6,4
27474,5e-05,-4e-05,1e-05,5e-05,-4e-05,7e-05,6e-05,-6e-05,6,4
27475,5e-05,-4e-05,1e-05,5e-05,-4e-05,7e-05,6e-05,-6e-05,6,4
27477,5e-05,-4e-05,1e-05,5e-05,-4e-05,7e-05,6e-05,-6e-05,6,4
27478,5e-05,-4e-05,1e-05,5e-05,-4e-05,7e-05,6e-05,-6e-05,6,4
27479,5e-05,-4e-05,1e-05,5e-05,-4e-05,7e-05,6e-05,-6e-05,6,4
27480,5e-05,-4e-05,1e-05,5e-05,-4e-05,7e-05,6e-05,-6e-05,6,4
27481,0.00016,-1e-05,1e-05,-2e-05,2e-05,-3e-05,-0.00018,-0.00012,6,4
27482,-0.00015,-4e-05,-1e-05,1e-05,0.00021,0.00018,6e-05,5e-05,6,4
27483,-0.00015,-4e-05,-1e-05,1e-05,0.00021,0.00018,6e-05,5e-05,6,4
27484,-0.00015,-4e-05,-1e-05,1e-05,0.00021,0.00018,6e-05,5e-05,6,4
27485,-0.00015,-4e-05,-1e-05,1e-05,0.00021,0.00018,6e-05,5e-05,6,4
27486,-0.00015,-4e-05,-1e-05,1e-05,0.00021,0.00018,6e-05,5e-05,6,4
27487,-0.00015,-4e-05,-1e-05,1e-05,0.00021,0.00018,6e-05,5e-05,6,4
27488,-0.00015,-4e-05,-1e-05,1e-05,0.00021,0.00018,6e-05,5e-05,6,4
27489,-0.00015,-4e-05,-1e-05,1e-05,0.00021,0.00018,6e-05,5e-05,6,4
27490,-0.00015,-4e-05,-1e-05,1e-05,0.00021,0.00018,6e-05,5e-05,6,4
27491,-0.00015,-4e-05,-1e-05,1e-05,0.00021,0.00018,6e-05,5e-05,6,4
27492,-0.00015,-4e-05,-1e-05,1e-05,0.00021,0.00018,6e-05,5e-05,6,4
27493,-0.00015,-4e-05,-1e-05,1e-05,0.00021,0.00018,6e-05,5e-05,6,4
27494,-0.00015,-4e-05,-1e-05,1e-05,0.00021,0.00018,6e-05,5e-05,6,4
27495,-0.00015,-4e-05,-1e-05,1e-05,0.00021,0.00018,6e-05,5e-05,6,4
27496,7e-05,2e-05,4e-05,0.0001,8e-05,0.00037,-0.00011,0,6,4
27497,7e-05,2e-05,4e-05,0.0001,8e-05,0.00037,-0.00011,0,6,4
27498,7e-05,2e-05,4e-05,0.0001,8e-05,0.00037,-0.00011,0,6,4
27499,7e-05,2e-05,4e-05,0.0001,8e-05,0.00037,-0.00011,0,6,4
27500,7e-05,2e-05,4e-05,0.0001,8e-05,0.00037,-0.00011,0,6,4
27501,7e-05,2e-05,4e-05,0.0001,8e-05,0.00037,-0.00011,0,6,4
27502,7e-05,2e-05,4e-05,0.0001,8e-05,0.00037,-0.00011,0,6,4
27503,0.00069,4e-05,4e-05,0.0001,9e-05,-0.0001,0.00012,-4e-05,6,4
27504,0.00069,4e-05,4e-05,0.0001,9e-05,-0.0001,0.00012,-4e-05,6,4
27505,0.00069,4e-05,4e-05,0.0001,9e-05,-0.0001,0.00012,-4e-05,6,4
27506,0.00069,4e-05,4e-05,0.0001,9e-05,-0.0001,0.00012,-4e-05,6,4
27507,0.00069,4e-05,4e-05,0.0001,9e-05,-0.0001,0.00012,-4e-05,6,4
27508,0.00069,4e-05,4e-05,0.0001,9e-05,-0.0001,0.00012,-4e-05,6,4
27509,0.00069,4e-05,4e-05,0.0001,9e-05,-0.0001,0.00012,-4e-05,6,4
27510,0.00069,4e-05,4e-05,0.0001,9e-05,-0.0001,0.00012,-4e-05,6,4
27511,0.00069,4e-05,4e-05,0.0001,9e-05,-0.0001,0.00012,-4e-05,6,4
27512,0.00069,4e-05,4e-05,0.0001,9e-05,-0.0001,0.00012,-4e-05,6,4
27513,0.00069,4e-05,4e-05,0.0001,9e-05,-0.0001,0.00012,-4e-05,6,4
27514,0.00069,4e-05,4e-05,0.0001,9e-05,-0.0001,0.00012,-4e-05,6,4
27515,0.00069,4e-05,4e-05,0.0001,9e-05,-0.0001,0.00012,-4e-05,6,4
27516,0.00069,4e-05,4e-05,0.0001,9e-05,-0.0001,0.00012,-4e-05,6,4
27517,0.00069,4e-05,4e-05,0.0001,9e-05,-0.0001,0.00012,-4e-05,6,4
27518,-0.00016,1e-05,0,-2e-05,4e-05,-0.00017,-5e-05,-0.00032,6,4
27519,-0.00016,1e-05,0,-2e-05,4e-05,-0.00017,-5e-05,-0.00032,6,4
27520,-4e-05,-2e-05,-0.00014,-6e-05,-0.00012,3e-05,-9e-05,4e-05,6,4
27521,-4e-05,-2e-05,-0.00014,-6e-05,-0.00012,3e-05,-9e-05,4e-05,6,4
27522,-4e-05,-2e-05,-0.00014,-6e-05,-0.00012,3e-05,-9e-05,4e-05,6,4
27524,-4e-05,-2e-05,-0.00014,-6e-05,-0.00012,3e-05,-9e-05,4e-05,6,4
27525,-4e-05,-2e-05,-0.00014,-6e-05,-0.00012,3e-05,-9e-05,4e-05,6,4
27526,-4e-05,-2e-05,-0.00014,-6e-05,-0.00012,3e-05,-9e-05,4e-05,6,4
27527,-4e-05,-2e-05,-0.00014,-6e-05,-0.00012,3e-05,-9e-05,4e-05,6,4
27528,-4e-05,-2e-05,-0.00014,-6e-05,-0.00012,3e-05,-9e-05,4e-05,6,4
27529,-4e-05,-2e-05,-0.00014,-6e-05,-0.00012,3e-05,-9e-05,4e-05,6,4
27530,-4e-05,-2e-05,-0.00014,-6e-05,-0.00012,3e-05,-9e-05,4e-05,6,4
27531,-4e-05,-2e-05,-0.00014,-6e-05,-0.00012,3e-05,-9e-05,4e-05,6,4
27532,-4e-05,-2e-05,-0.00014,-6e-05,-0.00012,3e-05,-9e-05,4e-05,6,4
27533,-4e-05,-2e-05,-0.00014,-6e-05,-0.00012,3e-05,-9e-05,4e-05,6,4
27534,-4e-05,-2e-05,-0.00014,-6e-05,-0.00012,3e-05,-9e-05,4e-05,6,4
27535,-4e-05,-2e-05,-0.00014,-6e-05,-0.00012,3e-05,-9e-05,4e-05,6,4
27536,-4e-05,-2e-05,-0.00014,-6e-05,-0.00012,3e-05,-9e-05,4e-05,6,4
27537,-4e-05,-2e-05,-0.00014,-6e-05,-0.00012,3e-05,-9e-05,4e-05,6,4
27538,-4e-05,-2e-05,-0.00014,-6e-05,-0.00012,3e-05,-9e-05,4e-05,6,4
27539,-4e-05,-2e-05,-0.00014,-6e-05,-0.00012,3e-05,-9e-05,4e-05,6,4
27540,-4e-05,-2e-05,-0.00014,-6e-05,-0.00012,3e-05,-9e-05,4e-05,6,4
27541,0.00029,8e-05,7e-05,6e-05,-8e-05,-0.00011,-0.00013,0.00016,6,4
27542,0.00017,-6e-05,-3e-05,2e-05,0.00011,0.00039,6e-05,0.00012,6,4
27543,0.00017,-6e-05,-3e-05,2e-05,0.00011,0.00039,6e-05,0.00012,6,4
27544,0.00017,-6e-05,-3e-05,2e-05,0.00011,0.00039,6e-05,0.00012,6,4
27545,0.00017,-6e-05,-3e-05,2e-05,0.00011,0.00039,6e-05,0.00012,6,4
27546,0.00017,-6e-05,-3e-05,2e-05,0.00011,0.00039,6e-05,0.00012,6,4
27547,0.00017,-6e-05,-3e-05,2e-05,0.00011,0.00039,6e-05,0.00012,6,4
27548,0.00017,-6e-05,-3e-05,2e-05,0.00011,0.00039,6e-05,0.00012,6,4
27549,0.00017,-6e-05,-3e-05,2e-05,0.00011,0.00039,6e-05,0.00012,6,4
27550,0.00017,-6e-05,-3e-05,2e-05,0.00011,0.00039,6e-05,0.00012,6,4
27551,0.00017,-6e-05,-3e-05,2e-05,0.00011,0.00039,6e-05,0.00012,6,4
27552,0.00017,-6e-05,-3e-05,2e-05,0.00011,0.00039,6e-05,0.00012,6,4
27553,0.00017,-6e-05,-3e-05,2e-05,0.00011,0.00039,6e-05,0.00012,6,4
27554,0.00017,-6e-05,-3e-05,2e-05,0.00011,0.00039,6e-05,0.00012,6,4
27555,7e-05,3e-05,2e-05,2e-05,-4e-05,0.00015,-3e-05,-3e-05,6,4
27556,7e-05,3e-05,2e-05,2e-05,-4e-05,0.00015,-3e-05,-3e-05,6,4
27557,7e-05,3e-05,2e-05,2e-05,-4e-05,0.00015,-3e-05,-3e-05,6,4
27558,7e-05,3e-05,2e-05,2e-05,-4e-05,0.00015,-3e-05,-3e-05,6,4
27559,7e-05,3e-05,2e-05,2e-05,-4e-05,0.00015,-3e-05,-3e-05,6,4
27560,7e-05,3e-05,2e-05,2e-05,-4e-05,0.00015,-3e-05,-3e-05,6,4
27561,7e-05,3e-05,2e-05,2e-05,-4e-05,0.00015,-3e-05,-3e-05,6,4
27562,7e-05,3e-05,2e-05,2e-05,-4e-05,0.00015,-3e-05,-3e-05,6,4
27563,-0.00066,-0.00012,-6e-05,8e-05,0.00077,0.00028,0.00033,0.00021,6,4
27564,-0.00066,-0.00012,-6e-05,8e-05,0.00077,0.00028,0.00033,0.00021,6,4
27565,-0.00066,-0.00012,-6e-05,8e-05,0.00077,0.00028,0.00033,0.00021,6,4
27566,-0.00066,-0.00012,-6e-05,8e-05,0.00077,0.00028,0.00033,0.00021,6,4
27567,-0.00066,-0.00012,-6e-05,8e-05,0.00077,0.00028,0.00033,0.00021,6,4
27568,-0.00066,-0.00012,-6e-05,8e-05,0.00077,0.00028,0.00033,0.00021,6,4
27569,-0.00066,-0.00012,-6e-05,8e-05,0.00077,0.00028,0.00033,0.00021,6,4
27571,-0.00066,-0.00012,-6e-05,8e-05,0.00077,0.00028,0.00033,0.00021,6,4
27572,-0.00066,-0.00012,-6e-05,8e-05,0.00077,0.00028,0.00033,0.00021,6,4
27573,-0.00066,-0.00012,-6e-05,8e-05,0.00077,0.00028,0.00033,0.00021,6,4
27574,-0.00066,-0.00012,-6e-05,8e-05,0.00077,0.00028,0.00033,0.00021,6,4
27575,-0.00066,-0.00012,-6e-05,8e-05,0.00077,0.00028,0.00033,0.00021,6,4
27576,-0.00066,-0.00012,-6e-05,8e-05,0.00077,0.00028,0.00033,0.00021,6,4
27577,-0.00066,-0.00012,-6e-05,8e-05,0.00077,0.00028,0.00033,0.00021,6,4
27578,-0.0006,-0.00011,-6e-05,-0.00015,1e-05,-3e-05,0.00015,0.00016,6,4
27579,-0.0006,-0.00011,-6e-05,-0.00015,1e-05,-3e-05,0.00015,0.00016,6,4
27580,-0.00019,4e-05,5e-05,0.00014,0.00021,-0.00016,-0.0001,0.00032,6,4
27581,-0.00019,4e-05,5e-05,0.00014,0.00021,-0.00016,-0.0001,0.00032,6,4
27582,-0.00019,4e-05,5e-05,0.00014,0.00021,-0.00016,-0.0001,0.00032,6,4
27583,-0.00019,4e-05,5e-05,0.00014,0.00021,-0.00016,-0.0001,0.00032,6,4
27584,-0.00019,4e-05,5e-05,0.00014,0.00021,-0.00016,-0.0001,0.00032,6,4
27585,-0.00019,4e-05,5e-05,0.00014,0.00021,-0.00016,-0.0001,0.00032,6,4
27586,-0.00019,4e-05,5e-05,0.00014,0.00021,-0.00016,-0.0001,0.00032,6,4
27587,-0.00019,4e-05,5e-05,0.00014,0.00021,-0.00016,-0.0001,0.00032,6,4
27588,-0.00019,4e-05,5e-05,0.00014,0.00021,-0.00016,-0.0001,0.00032,6,4
27589,-0.00019,4e-05,5e-05,0.00014,0.00021,-0.00016,-0.0001,0.00032,6,4
27590,-0.00019,4e-05,5e-05,0.00014,0.00021,-0.00016,-0.0001,0.00032,6,4
27591,-0.00019,4e-05,5e-05,0.00014,0.00021,-0.00016,-0.0001,0.00032,6,4
27592,-0.00019,4e-05,5e-05,0.00014,0.00021,-0.00016,-0.0001,0.00032,6,4
27593,-0.00019,4e-05,5e-05,0.00014,0.00021,-0.00016,-0.0001,0.00032,6,4
27594,-0.00019,4e-05,5e-05,0.00014,0.00021,-0.00016,-0.0001,0.00032,6,4
27595,-0.00019,4e-05,5e-05,0.00014,0.00021,-0.00016,-0.0001,0.00032,6,4
27596,-0.00019,4e-05,5e-05,0.00014,0.00021,-0.00016,-0.0001,0.00032,6,4
27597,-0.00019,4e-05,5e-05,0.00014,0.00021,-0.00016,-0.0001,0.00032,6,4
27598,-0.00019,4e-05,5e-05,0.00014,0.00021,-0.00016,-0.0001,0.00032,6,4
27599,-0.00019,4e-05,5e-05,0.00014,0.00021,-0.00016,-0.0001,0.00032,6,4
27600,-0.00019,4e-05,5e-05,0.00014,0.00021,-0.00016,-0.0001,0.00032,6,4
27601,-0.00031,-7e-05,-8e-05,-9e-05,0.00015,3e-05,8e-05,0.00023,6,4
27602,-7e-05,-3e-05,-0.00012,-0.00015,-5e-05,-0.00016,-0.00018,-0.00017,6,4
27603,-7e-05,-3e-05,-0.00012,-0.00015,-5e-05,-0.00016,-0.00018,-0.00017,6,4
27604,-7e-05,-3e-05,-0.00012,-0.00015,-5e-05,-0.00016,-0.00018,-0.00017,6,4
27605,-7e-05,-3e-05,-0.00012,-0.00015,-5e-05,-0.00016,-0.00018,-0.00017,6,4
27606,-7e-05,-3e-05,-0.00012,-0.00015,-5e-05,-0.00016,-0.00018,-0.00017,6,4
27607,-7e-05,-3e-05,-0.00012,-0.00015,-5e-05,-0.00016,-0.00018,-0.00017,6,4
27608,-7e-05,-3e-05,-0.00012,-0.00015,-5e-05,-0.00016,-0.00018,-0.00017,6,4
27609,-7e-05,-3e-05,-0.00012,-0.00015,-5e-05,-0.00016,-0.00018,-0.00017,6,4
27610,-7e-05,-3e-05,-0.00012,-0.00015,-5e-05,-0.00016,-0.00018,-0.00017,6,4
27611,-7e-05,-3e-05,-0.00012,-0.00015,-5e-05,-0.00016,-0.00018,-0.00017,6,4
27612,-7e-05,-3e-05,-0.00012,-0.00015,-5e-05,-0.00016,-0.00018,-0.00017,6,4
27613,-7e-05,-3e-05,-0.00012,-0.00015,-5e-05,-0.00016,-0.00018,-0.00017,6,4
27614,0.00033,6e-05,-4e-05,-6e-05,-0.00026,-0.00026,7e-05,0.00054,6,4
27615,0.00033,6e-05,-4e-05,-6e-05,-0.00026,-0.00026,7e-05,0.00054,6,4
27617,0.00033,6e-05,-4e-05,-6e-05,-0.00026,-0.00026,7e-05,0.00054,6,4
27618,0.00033,6e-05,-4e-05,-6e-05,-0.00026,-0.00026,7e-05,0.00054,6,4
27619,0.00033,6e-05,-4e-05,-6e-05,-0.00026,-0.00026,7e-05,0.00054,6,4
27620,0.00033,6e-05,-4e-05,-6e-05,-0.00026,-0.00026,7e-05,0.00054,6,4
27621,0.00033,6e-05,-4e-05,-6e-05,-0.00026,-0.00026,7e-05,0.00054,6,4
27622,0.00033,6e-05,-4e-05,-6e-05,-0.00026,-0.00026,7e-05,0.00054,6,4
27623,7e-05,1e-05,0,-6e-05,-0.0002,-0.0001,-0.00017,-0.00019,6,4
27624,7e-05,1e-05,0,-6e-05,-0.0002,-0.0001,-0.00017,-0.00019,6,4
27625,7e-05,1e-05,0,-6e-05,-0.0002,-0.0001,-0.00017,-0.00019,6,4
27626,7e-05,1e-05,0,-6e-05,-0.0002,-0.0001,-0.00017,-0.00019,6,4
27627,7e-05,1e-05,0,-6e-05,-0.0002,-0.0001,-0.00017,-0.00019,6,4
27628,7e-05,1e-05,0,-6e-05,-0.0002,-0.0001,-0.00017,-0.00019,6,4
27629,7e-05,1e-05,0,-6e-05,-0.0002,-0.0001,-0.00017,-0.00019,6,4
27630,7e-05,1e-05,0,-6e-05,-0.0002,-0.0001,-0.00017,-0.00019,6,4
27631,7e-05,1e-05,0,-6e-05,-0.0002,-0.0001,-0.00017,-0.00019,6,4
27632,7e-05,1e-05,0,-6e-05,-0.0002,-0.0001,-0.00017,-0.00019,6,4
27633,7e-05,1e-05,0,-6e-05,-0.0002,-0.0001,-0.00017,-0.00019,6,4
27634,7e-05,1e-05,0,-6e-05,-0.0002,-0.0001,-0.00017,-0.00019,6,4
27635,7e-05,1e-05,0,-6e-05,-0.0002,-0.0001,-0.00017,-0.00019,6,4
27636,7e-05,1e-05,0,-6e-05,-0.0002,-0.0001,-0.00017,-0.00019,6,4
27637,7e-05,1e-05,0,-6e-05,-0.0002,-0.0001,-0.00017,-0.00019,6,4
27638,0.00025,-3e-05,-3e-05,-4e-05,-0.00013,1e-05,-9e-05,7e-05,6,4
27639,0.00025,-3e-05,-3e-05,-4e-05,-0.00013,1e-05,-9e-05,7e-05,6,4
27640,3e-05,4e-05,1e-05,-2e-05,-0.0003,-0.00012,-1e-05,0.00021,6,4
27641,3e-05,4e-05,1e-05,-2e-05,-0.0003,-0.00012,-1e-05,0.00021,6,4
27642,3e-05,4e-05,1e-05,-2e-05,-0.0003,-0.00012,-1e-05,0.00021,6,4
27643,3e-05,4e-05,1e-05,-2e-05,-0.0003,-0.00012,-1e-05,0.00021,6,4
27644,3e-05,4e-05,1e-05,-2e-05,-0.0003,-0.00012,-1e-05,0.00021,6,4
27645,3e-05,4e-05,1e-05,-2e-05,-0.0003,-0.00012,-1e-05,0.00021,6,4
27646,3e-05,4e-05,1e-05,-2e-05,-0.0003,-0.00012,-1e-05,0.00021,6,4
27647,3e-05,4e-05,1e-05,-2e-05,-0.0003,-0.00012,-1e-05,0.00021,6,4
27648,3e-05,4e-05,1e-05,-2e-05,-0.0003,-0.00012,-1e-05,0.00021,6,4
27649,3e-05,4e-05,1e-05,-2e-05,-0.0003,-0.00012,-1e-05,0.00021,6,4
27650,3e-05,4e-05,1e-05,-2e-05,-0.0003,-0.00012,-1e-05,0.00021,6,4
27651,3e-05,4e-05,1e-05,-2e-05,-0.0003,-0.00012,-1e-05,0.00021,6,4
27652,3e-05,4e-05,1e-05,-2e-05,-0.0003,-0.00012,-1e-05,0.00021,6,4
27653,3e-05,4e-05,1e-05,-2e-05,-0.0003,-0.00012,-1e-05,0.00021,6,4
27654,3e-05,4e-05,1e-05,-2e-05,-0.0003,-0.00012,-1e-05,0.00021,6,4
27655,3e-05,4e-05,1e-05,-2e-05,-0.0003,-0.00012,-1e-05,0.00021,6,4
27656,3e-05,4e-05,1e-05,-2e-05,-0.0003,-0.00012,-1e-05,0.00021,6,4
27657,3e-05,4e-05,1e-05,-2e-05,-0.0003,-0.00012,-1e-05,0.00021,6,4
27658,3e-05,4e-05,1e-05,-2e-05,-0.0003,-0.00012,-1e-05,0.00021,6,4
27659,3e-05,4e-05,1e-05,-2e-05,-0.0003,-0.00012,-1e-05,0.00021,6,4
27660,3e-05,4e-05,1e-05,-2e-05,-0.0003,-0.00012,-1e-05,0.00021,6,4
27661,7e-05,0.00011,5e-05,8e-05,0.0002,-9e-05,-1e-05,5e-05,6,4
27662,-0.00023,-0.00011,-1e-05,-0.0001,-0.00059,-0.00016,-0.00015,-0.00056,6,4
27663,-0.00023,-0.00011,-1e-05,-0.0001,-0.00059,-0.00016,-0.00015,-0.00056,6,4
27665,-0.00023,-0.00011,-1e-05,-0.0001,-0.00059,-0.00016,-0.00015,-0.00056,6,4
27666,-0.00023,-0.00011,-1e-05,-0.0001,-0.00059,-0.00016,-0.00015,-0.00056,6,4
27667,-0.00023,-0.00011,-1e-05,-0.0001,-0.00059,-0.00016,-0.00015,-0.00056,6,4
27668,-0.00023,-0.00011,-1e-05,-0.0001,-0.00059,-0.00016,-0.00015,-0.00056,6,4
27669,-0.00023,-0.00011,-1e-05,-0.0001,-0.00059,-0.00016,-0.00015,-0.00056,6,4
27670,-0.00023,-0.00011,-1e-05,-0.0001,-0.00059,-0.00016,-0.00015,-0.00056,6,4
27671,-0.00023,-0.00011,-1e-05,-0.0001,-0.00059,-0.00016,-0.00015,-0.00056,6,4
27672,-0.00023,-0.00011,-1e-05,-0.0001,-0.00059,-0.00016,-0.00015,-0.00056,6,4
27673,-0.00023,-0.00011,-1e-05,-0.0001,-0.00059,-0.00016,-0.00015,-0.00056,6,4
27674,0.00019,-5e-05,-3e-05,-0.00012,-0.00046,1e-05,3e-05,-0.00016,6,4
27675,0.00019,-5e-05,-3e-05,-0.00012,-0.00046,1e-05,3e-05,-0.00016,6,4
27676,0.00019,-5e-05,-3e-05,-0.00012,-0.00046,1e-05,3e-05,-0.00016,6,4
27677,0.00019,-5e-05,-3e-05,-0.00012,-0.00046,1e-05,3e-05,-0.00016,6,4
27678,0.00019,-5e-05,-3e-05,-0.00012,-0.00046,1e-05,3e-05,-0.00016,6,4
27679,0.00019,-5e-05,-3e-05,-0.00012,-0.00046,1e-05,3e-05,-0.00016,6,4
27680,0.00019,-5e-05,-3e-05,-0.00012,-0.00046,1e-05,3e-05,-0.00016,6,4
27681,0.00019,-5e-05,-3e-05,-0.00012,-0.00046,1e-05,3e-05,-0.00016,6,4
27682,0.00019,-5e-05,-3e-05,-0.00012,-0.00046,1e-05,3e-05,-0.00016,6,4
27683,0,-6e-05,4e-05,-0.00018,-0.00023,-0.00013,0.00014,-0.00027,6,4
27684,0,-6e-05,4e-05,-0.00018,-0.00023,-0.00013,0.00014,-0.00027,6,4
27685,0,-6e-05,4e-05,-0.00018,-0.00023,-0.00013,0.00014,-0.00027,6,4
27686,0,-6e-05,4e-05,-0.00018,-0.00023,-0.00013,0.00014,-0.00027,6,4
27687,0,-6e-05,4e-05,-0.00018,-0.00023,-0.00013,0.00014,-0.00027,6,4
27688,0,-6e-05,4e-05,-0.00018,-0.00023,-0.00013,0.00014,-0.00027,6,4
27689,0,-6e-05,4e-05,-0.00018,-0.00023,-0.00013,0.00014,-0.00027,6,4
27690,0,-6e-05,4e-05,-0.00018,-0.00023,-0.00013,0.00014,-0.00027,6,4
27691,0,-6e-05,4e-05,-0.00018,-0.00023,-0.00013,0.00014,-0.00027,6,4
27692,0,-6e-05,4e-05,-0.00018,-0.00023,-0.00013,0.00014,-0.00027,6,4
27693,0,-6e-05,4e-05,-0.00018,-0.00023,-0.00013,0.00014,-0.00027,6,4
27694,0,-6e-05,4e-05,-0.00018,-0.00023,-0.00013,0.00014,-0.00027,6,4
27696,0,-6e-05,4e-05,-0.00018,-0.00023,-0.00013,0.00014,-0.00027,6,4
27697,0,-6e-05,4e-05,-0.00018,-0.00023,-0.00013,0.00014,-0.00027,6,4
27698,1e-05,-2e-05,-3e-05,3e-05,6e-05,0.00033,0,-0.00019,6,4
27699,1e-05,-2e-05,-3e-05,3e-05,6e-05,0.00033,0,-0.00019,6,4
27700,3e-05,6e-05,-1e-05,0.0001,0.00037,0.00023,-0.00019,0.00032,6,4
27701,3e-05,6e-05,-1e-05,0.0001,0.00037,0.00023,-0.00019,0.00032,6,4
27702,3e-05,6e-05,-1e-05,0.0001,0.00037,0.00023,-0.00019,0.00032,6,4
27703,3e-05,6e-05,-1e-05,0.0001,0.00037,0.00023,-0.00019,0.00032,6,4
27704,3e-05,6e-05,-1e-05,0.0001,0.00037,0.00023,-0.00019,0.00032,6,4
27705,3e-05,6e-05,-1e-05,0.0001,0.00037,0.00023,-0.00019,0.00032,6,4
27706,3e-05,6e-05,-1e-05,0.0001,0.00037,0.00023,-0.00019,0.00032,6,4
27707,3e-05,6e-05,-1e-05,0.0001,0.00037,0.00023,-0.00019,0.00032,6,4
27708,3e-05,6e-05,-1e-05,0.0001,0.00037,0.00023,-0.00019,0.00032,6,4
27709,3e-05,6e-05,-1e-05,0.0001,0.00037,0.00023,-0.00019,0.00032,6,4
27710,3e-05,6e-05,-1e-05,0.0001,0.00037,0.00023,-0.00019,0.00032,6,4
27711,3e-05,6e-05,-1e-05,0.0001,0.00037,0.00023,-0.00019,0.00032,6,4
27712,3e-05,6e-05,-1e-05,0.0001,0.00037,0.00023,-0.00019,0.00032,6,4
27713,3e-05,6e-05,-1e-05,0.0001,0.00037,0.00023,-0.00019,0.00032,6,4
27714,3e-05,6e-05,-1e-05,0.0001,0.00037,0.00023,-0.00019,0.00032,6,4
27715,3e-05,6e-05,-1e-05,0.0001,0.00037,0.00023,-0.00019,0.00032,6,4
27716,3e-05,6e-05,-1e-05,0.0001,0.00037,0.00023,-0.00019,0.00032,6,4
27717,3e-05,6e-05,-1e-05,0.0001,0.00037,0.00023,-0.00019,0.00032,6,4
27718,3e-05,6e-05,-1e-05,0.0001,0.00037,0.00023,-0.00019,0.00032,6,4
27719,3e-05,6e-05,-1e-05,0.0001,0.00037,0.00023,-0.00019,0.00032,6,4
27720,3e-05,6e-05,-1e-05,0.0001,0.00037,0.00023,-0.00019,0.00032,6,4
27721,-8e-05,-4e-05,4e-05,0.00014,0.00013,0.00026,0.00027,3e-05,6,4
27722,-3e-05,4e-05,-1e-05,-4e-05,-0.00025,-0.00032,3e-05,0.00033,6,4
27723,-3e-05,4e-05,-1e-05,-4e-05,-0.00025,-0.00032,3e-05,0.00033,6,4
27724,-3e-05,4e-05,-1e-05,-4e-05,-0.00025,-0.00032,3e-05,0.00033,6,4
27725,-3e-05,4e-05,-1e-05,-4e-05,-0.00025,-0.00032,3e-05,0.00033,6,4
27726,-3e-05,4e-05,-1e-05,-4e-05,-0.00025,-0.00032,3e-05,0.00033,6,4
27727,-3e-05,4e-05,-1e-05,-4e-05,-0.00025,-0.00032,3e-05,0.00033,6,4
27728,-3e-05,4e-05,-1e-05,-4e-05,-0.00025,-0.00032,3e-05,0.00033,6,4
27729,-3e-05,4e-05,-1e-05,-4e-05,-0.00025,-0.00032,3e-05,0.00033,6,4
27730,-3e-05,4e-05,-1e-05,-4e-05,-0.00025,-0.00032,3e-05,0.00033,6,4
27731,-3e-05,4e-05,-1e-05,-4e-05,-0.00025,-0.00032,3e-05,0.00033,6,4
27732,-3e-05,4e-05,-1e-05,-4e-05,-0.00025,-0.00032,3e-05,0.00033,6,4
27733,-3e-05,4e-05,-1e-05,-4e-05,-0.00025,-0.00032,3e-05,0.00033,6,4
27734,-0.00053,-6e-05,-3e-05,6e-05,0.0004,-6e-05,3e-05,1e-05,6,4
27735,-0.00053,-6e-05,-3e-05,6e-05,0.0004,-6e-05,3e-05,1e-05,6,4
27736,-0.00053,-6e-05,-3e-05,6e-05,0.0004,-6e-05,3e-05,1e-05,6,4
27737,-0.00053,-6e-05,-3e-05,6e-05,0.0004,-6e-05,3e-05,1e-05,6,4
27738,-0.00053,-6e-05,-3e-05,6e-05,0.0004,-6e-05,3e-05,1e-05,6,4
27739,-0.00053,-6e-05,-3e-05,6e-05,0.0004,-6e-05,3e-05,1e-05,6,4
27740,-0.00053,-6e-05,-3e-05,6e-05,0.0004,-6e-05,3e-05,1e-05,6,4
27742,-0.00053,-6e-05,-3e-05,6e-05,0.0004,-6e-05,3e-05,1e-05,6,4
27743,-4e-05,-1e-05,-4e-05,-7e-05,-0.00012,-0.00016,-3e-05,-0.00021,6,4
27744,-4e-05,-1e-05,-4e-05,-7e-05,-0.00012,-0.00016,-3e-05,-0.00021,6,4
27745,-4e-05,-1e-05,-4e-05,-7e-05,-0.00012,-0.00016,-3e-05,-0.00021,6,4
27746,-4e-05,-1e-05,-4e-05,-7e-05,-0.00012,-0.00016,-3e-05,-0.00021,6,4
27747,-4e-05,-1e-05,-4e-05,-7e-05,-0.00012,-0.00016,-3e-05,-0.00021,6,4
27748,-4e-05,-1e-05,-4e-05,-7e-05,-0.00012,-0.00016,-3e-05,-0.00021,6,4
27749,-4e-05,-1e-05,-4e-05,-7e-05,-0.00012,-0.00016,-3e-05,-0.00021,6,4
27751,-4e-05,-1e-05,-4e-05,-7e-05,-0.00012,-0.00016,-3e-05,-0.00021,6,4
27752,-4e-05,-1e-05,-4e-05,-7e-05,-0.00012,-0.00016,-3e-05,-0.00021,6,4
27753,-4e-05,-1e-05,-4e-05,-7e-05,-0.00012,-0.00016,-3e-05,-0.00021,6,4
27754,-4e-05,-1e-05,-4e-05,-7e-05,-0.00012,-0.00016,-3e-05,-0.00021,6,4
27755,-4e-05,-1e-05,-4e-05,-7e-05,-0.00012,-0.00016,-3e-05,-0.00021,6,4
27756,-4e-05,-1e-05,-4e-05,-7e-05,-0.00012,-0.00016,-3e-05,-0.00021,6,4
27757,-4e-05,-1e-05,-4e-05,-7e-05,-0.00012,-0.00016,-3e-05,-0.00021,6,4
27758,0.00032,3e-05,-2e-05,-3e-05,-0.0002,-0.00044,-0.0001,0.00016,6,4
27759,0.00032,3e-05,-2e-05,-3e-05,-0.0002,-0.00044,-0.0001,0.00016,6,4
27760,-9e-05,-7e-05,-5e-05,-4e-05,0.00039,0.00045,9e-05,-0.00015,6,4
27761,-9e-05,-7e-05,-5e-05,-4e-05,0.00039,0.00045,9e-05,-0.00015,6,4
27762,-9e-05,-7e-05,-5e-05,-4e-05,0.00039,0.00045,9e-05,-0.00015,6,4
27763,-9e-05,-7e-05,-5e-05,-4e-05,0.00039,0.00045,9e-05,-0.00015,6,4
27764,-9e-05,-7e-05,-5e-05,-4e-05,0.00039,0.00045,9e-05,-0.00015,6,4
27765,-9e-05,-7e-05,-5e-05,-4e-05,0.00039,0.00045,9e-05,-0.00015,6,4
27766,-9e-05,-7e-05,-5e-05,-4e-05,0.00039,0.00045,9e-05,-0.00015,6,4
27767,-9e-05,-7e-05,-5e-05,-4e-05,0.00039,0.00045,9e-05,-0.00015,6,4
27768,-9e-05,-7e-05,-5e-05,-4e-05,0.00039,0.00045,9e-05,-0.00015,6,4
27769,-9e-05,-7e-05,-5e-05,-4e-05,0.00039,0.00045,9e-05,-0.00015,6,4
27770,-9e-05,-7e-05,-5e-05,-4e-05,0.00039,0.00045,9e-05,-0.00015,6,4
27771,-9e-05,-7e-05,-5e-05,-4e-05,0.00039,0.00045,9e-05,-0.00015,6,4
27772,-9e-05,-7e-05,-5e-05,-4e-05,0.00039,0.00045,9e-05,-0.00015,6,4
27773,-9e-05,-7e-05,-5e-05,-4e-05,0.00039,0.00045,9e-05,-0.00015,6,4
27774,-9e-05,-7e-05,-5e-05,-4e-05,0.00039,0.00045,9e-05,-0.00015,6,4
27775,-9e-05,-7e-05,-5e-05,-4e-05,0.00039,0.00045,9e-05,-0.00015,6,4
27776,-9e-05,-7e-05,-5e-05,-4e-05,0.00039,0.00045,9e-05,-0.00015,6,4
27777,-9e-05,-7e-05,-5e-05,-4e-05,0.00039,0.00045,9e-05,-0.00015,6,4
27778,-9e-05,-7e-05,-5e-05,-4e-05,0.00039,0.00045,9e-05,-0.00015,6,4
27779,-9e-05,-7e-05,-5e-05,-4e-05,0.00039,0.00045,9e-05,-0.00015,6,4
27780,-9e-05,-7e-05,-5e-05,-4e-05,0.00039,0.00045,9e-05,-0.00015,6,4
27781,7e-05,6e-05,4e-05,-9e-05,-0.00022,0.00036,-1e-05,0.00021,6,4
27782,0.00016,-0.00014,-4e-05,0,-0.00019,3e-05,3e-05,8e-05,6,4
27783,0.00016,-0.00014,-4e-05,0,-0.00019,3e-05,3e-05,8e-05,6,4
27784,0.00016,-0.00014,-4e-05,0,-0.00019,3e-05,3e-05,8e-05,6,4
27785,0.00016,-0.00014,-4e-05,0,-0.00019,3e-05,3e-05,8e-05,6,4
27786,0.00016,-0.00014,-4e-05,0,-0.00019,3e-05,3e-05,8e-05,6,4
27787,0.00016,-0.00014,-4e-05,0,-0.00019,3e-05,3e-05,8e-05,6,4
27789,0.00016,-0.00014,-4e-05,0,-0.00019,3e-05,3e-05,8e-05,6,4
27790,0.00016,-0.00014,-4e-05,0,-0.00019,3e-05,3e-05,8e-05,6,4
27791,0.00016,-0.00014,-4e-05,0,-0.00019,3e-05,3e-05,8e-05,6,4
27792,0.00016,-0.00014,-4e-05,0,-0.00019,3e-05,3e-05,8e-05,6,4
27793,0.00016,-0.00014,-4e-05,0,-0.00019,3e-05,3e-05,8e-05,6,4
27794,0.00016,-0.00014,-4e-05,0,-0.00019,3e-05,3e-05,8e-05,6,4
27795,0.00013,1e-05,5e-05,2e-05,-0.00038,0.0002,8e-05,-0.00018,6,4
27796,0.00013,1e-05,5e-05,2e-05,-0.00038,0.0002,8e-05,-0.00018,6,4
27797,0.00013,1e-05,5e-05,2e-05,-0.00038,0.0002,8e-05,-0.00018,6,4
27798,0.00013,1e-05,5e-05,2e-05,-0.00038,0.0002,8e-05,-0.00018,6,4
27799,0.00013,1e-05,5e-05,2e-05,-0.00038,0.0002,8e-05,-0.00018,6,4
27800,0.00013,1e-05,5e-05,2e-05,-0.00038,0.0002,8e-05,-0.00018,6,4
27801,0.00013,1e-05,5e-05,2e-05,-0.00038,0.0002,8e-05,-0.00018,6,4
27802,0.00013,1e-05,5e-05,2e-05,-0.00038,0.0002,8e-05,-0.00018,6,4
27803,0.00018,-5e-05,-9e-05,-6e-05,2e-05,-6e-05,-9e-05,0.00022,6,4
27804,0.00018,-5e-05,-9e-05,-6e-05,2e-05,-6e-05,-9e-05,0.00022,6,4
27805,0.00018,-5e-05,-9e-05,-6e-05,2e-05,-6e-05,-9e-05,0.00022,6,4
27806,0.00018,-5e-05,-9e-05,-6e-05,2e-05,-6e-05,-9e-05,0.00022,6,4
27807,0.00018,-5e-05,-9e-05,-6e-05,2e-05,-6e-05,-9e-05,0.00022,6,4
27808,0.00018,-5e-05,-9e-05,-6e-05,2e-05,-6e-05,-9e-05,0.00022,6,4
27809,0.00018,-5e-05,-9e-05,-6e-05,2e-05,-6e-05,-9e-05,0.00022,6,4
27810,0.00018,-5e-05,-9e-05,-6e-05,2e-05,-6e-05,-9e-05,0.00022,6,4
27811,0.00018,-5e-05,-9e-05,-6e-05,2e-05,-6e-05,-9e-05,0.00022,6,4
27812,0.00018,-5e-05,-9e-05,-6e-05,2e-05,-6e-05,-9e-05,0.00022,6,4
27813,0.00018,-5e-05,-9e-05,-6e-05,2e-05,-6e-05,-9e-05,0.00022,6,4
27814,0.00018,-5e-05,-9e-05,-6e-05,2e-05,-6e-05,-9e-05,0.00022,6,4
27815,0.00018,-5e-05,-9e-05,-6e-05,2e-05,-6e-05,-9e-05,0.00022,6,4
27816,0.00018,-5e-05,-9e-05,-6e-05,2e-05,-6e-05,-9e-05,0.00022,6,4
27817,0.00018,-5e-05,-9e-05,-6e-05,2e-05,-6e-05,-9e-05,0.00022,6,4
27818,0.00017,-0.0001,-3e-05,-3e-05,6e-05,-8e-05,-0.00016,-0.00016,6,4
27819,0.00017,-0.0001,-3e-05,-3e-05,6e-05,-8e-05,-0.00016,-0.00016,6,4
27820,-0.00016,2e-05,1e-05,5e-05,-5e-05,-5e-05,-7e-05,-0.00017,6,4
27821,-0.00016,2e-05,1e-05,5e-05,-5e-05,-5e-05,-7e-05,-0.00017,6,4
27822,-0.00016,2e-05,1e-05,5e-05,-5e-05,-5e-05,-7e-05,-0.00017,6,4
27823,-0.00016,2e-05,1e-05,5e-05,-5e-05,-5e-05,-7e-05,-0.00017,6,4
27824,-0.00016,2e-05,1e-05,5e-05,-5e-05,-5e-05,-7e-05,-0.00017,6,4
27825,-0.00016,2e-05,1e-05,5e-05,-5e-05,-5e-05,-7e-05,-0.00017,6,4
27826,-0.00016,2e-05,1e-05,5e-05,-5e-05,-5e-05,-7e-05,-0.00017,6,4
27827,-0.00016,2e-05,1e-05,5e-05,-5e-05,-5e-05,-7e-05,-0.00017,6,4
27828,-0.00016,2e-05,1e-05,5e-05,-5e-05,-5e-05,-7e-05,-0.00017,6,4
27829,-0.00016,2e-05,1e-05,5e-05,-5e-05,-5e-05,-7e-05,-0.00017,6,4
27830,-0.00016,2e-05,1e-05,5e-05,-5e-05,-5e-05,-7e-05,-0.00017,6,4
27831,-0.00016,2e-05,1e-05,5e-05,-5e-05,-5e-05,-7e-05,-0.00017,6,4
27832,-0.00016,2e-05,1e-05,5e-05,-5e-05,-5e-05,-7e-05,-0.00017,6,4
27833,-0.00016,2e-05,1e-05,5e-05,-5e-05,-5e-05,-7e-05,-0.00017,6,4
27834,-0.00016,2e-05,1e-05,5e-05,-5e-05,-5e-05,-7e-05,-0.00017,6,4
27835,-0.00016,2e-05,1e-05,5e-05,-5e-05,-5e-05,-7e-05,-0.00017,6,4
27837,-0.00016,2e-05,1e-05,5e-05,-5e-05,-5e-05,-7e-05,-0.00017,6,4
27838,-0.00016,2e-05,1e-05,5e-05,-5e-05,-5e-05,-7e-05,-0.00017,6,4
27839,-0.00016,2e-05,1e-05,5e-05,-5e-05,-5e-05,-7e-05,-0.00017,6,4
27840,-0.00016,2e-05,1e-05,5e-05,-5e-05,-5e-05,-7e-05,-0.00017,6,4
27841,0.0002,7e-05,2e-05,3e-05,0.00014,5e-05,-6e-05,-0.00028,6,4
27842,4e-05,0.00014,0.00012,0,-0.00018,-0.0001,0.00025,1e-05,6,4
27843,4e-05,0.00014,0.00012,0,-0.00018,-0.0001,0.00025,1e-05,6,4
27844,4e-05,0.00014,0.00012,0,-0.00018,-0.0001,0.00025,1e-05,6,4
27845,4e-05,0.00014,0.00012,0,-0.00018,-0.0001,0.00025,1e-05,6,4
27846,4e-05,0.00014,0.00012,0,-0.00018,-0.0001,0.00025,1e-05,6,4
27847,4e-05,0.00014,0.00012,0,-0.00018,-0.0001,0.00025,1e-05,6,4
27848,4e-05,0.00014,0.00012,0,-0.00018,-0.0001,0.00025,1e-05,6,4
27849,4e-05,0.00014,0.00012,0,-0.00018,-0.0001,0.00025,1e-05,6,4
27850,4e-05,0.00014,0.00012,0,-0.00018,-0.0001,0.00025,1e-05,6,4
27851,4e-05,0.00014,0.00012,0,-0.00018,-0.0001,0.00025,1e-05,6,4
27852,4e-05,0.00014,0.00012,0,-0.00018,-0.0001,0.00025,1e-05,6,4
27853,4e-05,0.00014,0.00012,0,-0.00018,-0.0001,0.00025,1e-05,6,4
27854,4e-05,0.00014,0.00012,0,-0.00018,-0.0001,0.00025,1e-05,6,4
27855,4e-05,0.00014,0.00012,0,-0.00018,-0.0001,0.00025,1e-05,6,4
27856,4e-05,0.00014,0.00012,0,-0.00018,-0.0001,0.00025,1e-05,6,4
27857,4e-05,0.00014,0.00012,0,-0.00018,-0.0001,0.00025,1e-05,6,4
27858,4e-05,0.00014,0.00012,0,-0.00018,-0.0001,0.00025,1e-05,6,4
27859,4e-05,0.00014,0.00012,0,-0.00018,-0.0001,0.00025,1e-05,6,4
27860,4e-05,0.00014,0.00012,0,-0.00018,-0.0001,0.00025,1e-05,6,4
27861,4e-05,0.00014,0.00012,0,-0.00018,-0.0001,0.00025,1e-05,6,4
27862,4e-05,0.00014,0.00012,0,-0.00018,-0.0001,0.00025,1e-05,6,4
27863,4e-05,0.0001,2e-05,8e-05,0.00029,-0.00019,-0.00019,-0.00016,6,4
27864,4e-05,0.0001,2e-05,8e-05,0.00029,-0.00019,-0.00019,-0.00016,6,4
27865,4e-05,0.0001,2e-05,8e-05,0.00029,-0.00019,-0.00019,-0.00016,6,4
27866,-6e-05,-0.0001,-8e-05,0,0.00019,0.00019,-0.00016,-0.0001,6,4
27867,-6e-05,-0.0001,-8e-05,0,0.00019,0.00019,-0.00016,-0.0001,6,4
27868,-6e-05,-0.0001,-8e-05,0,0.00019,0.00019,-0.00016,-0.0001,6,4
27869,-6e-05,-0.0001,-8e-05,0,0.00019,0.00019,-0.00016,-0.0001,6,4
27870,-6e-05,-0.0001,-8e-05,0,0.00019,0.00019,-0.00016,-0.0001,6,4
27871,-6e-05,-0.0001,-8e-05,0,0.00019,0.00019,-0.00016,-0.0001,6,4
27872,-6e-05,-0.0001,-8e-05,0,0.00019,0.00019,-0.00016,-0.0001,6,4
27873,-6e-05,-0.0001,-8e-05,0,0.00019,0.00019,-0.00016,-0.0001,6,4
27874,-6e-05,-0.0001,-8e-05,0,0.00019,0.00019,-0.00016,-0.0001,6,4
27875,-6e-05,-0.0001,-8e-05,0,0.00019,0.00019,-0.00016,-0.0001,6,4
27876,-6e-05,-0.0001,-8e-05,0,0.00019,0.00019,-0.00016,-0.0001,6,4
27877,-6e-05,-0.0001,-8e-05,0,0.00019,0.00019,-0.00016,-0.0001,6,4
27878,-9e-05,-6e-05,-1e-05,-4e-05,-0.00027,-0.00031,-3e-05,-5e-05,6,4
27879,-9e-05,-6e-05,-1e-05,-4e-05,-0.00027,-0.00031,-3e-05,-5e-05,6,4
27880,7e-05,1e-05,2e-05,1e-05,0.00026,-0.00023,-5e-05,0,6,4
27881,7e-05,1e-05,2e-05,1e-05,0.00026,-0.00023,-5e-05,0,6,4
27883,7e-05,1e-05,2e-05,1e-05,0.00026,-0.00023,-5e-05,0,6,4
27884,7e-05,1e-05,2e-05,1e-05,0.00026,-0.00023,-5e-05,0,6,4
27885,7e-05,1e-05,2e-05,1e-05,0.00026,-0.00023,-5e-05,0,6,4
27886,7e-05,1e-05,2e-05,1e-05,0.00026,-0.00023,-5e-05,0,6,4
27887,7e-05,1e-05,2e-05,1e-05,0.00026,-0.00023,-5e-05,0,6,4
27888,7e-05,1e-05,2e-05,1e-05,0.00026,-0.00023,-5e-05,0,6,4
27889,7e-05,1e-05,2e-05,1e-05,0.00026,-0.00023,-5e-05,0,6,4
27890,7e-05,1e-05,2e-05,1e-05,0.00026,-0.00023,-5e-05,0,6,4
27891,7e-05,1e-05,2e-05,1e-05,0.00026,-0.00023,-5e-05,0,6,4
27892,7e-05,1e-05,2e-05,1e-05,0.00026,-0.00023,-5e-05,0,6,4
27893,7e-05,1e-05,2e-05,1e-05,0.00026,-0.00023,-5e-05,0,6,4
27894,7e-05,1e-05,2e-05,1e-05,0.00026,-0.00023,-5e-05,0,6,4
27895,7e-05,1e-05,2e-05,1e-05,0.00026,-0.00023,-5e-05,0,6,4
27896,7e-05,1e-05,2e-05,1e-05,0.00026,-0.00023,-5e-05,0,6,4
27897,7e-05,1e-05,2e-05,1e-05,0.00026,-0.00023,-5e-05,0,6,4
27898,7e-05,1e-05,2e-05,1e-05,0.00026,-0.00023,-5e-05,0,6,4
27899,7e-05,1e-05,2e-05,1e-05,0.00026,-0.00023,-5e-05,0,6,4
27900,7e-05,1e-05,2e-05,1e-05,0.00026,-0.00023,-5e-05,0,6,4
27901,-0.0005,-3e-05,-8e-05,-0.0001,-7e-05,-1e-05,-7e-05,-0.00023,6,4
27902,-0.0001,-4e-05,-5e-05,-0.00013,-0.00033,0.00028,-7e-05,-6e-05,6,4
27903,-0.0001,-4e-05,-5e-05,-0.00013,-0.00033,0.00028,-7e-05,-6e-05,6,4
27904,-0.0001,-4e-05,-5e-05,-0.00013,-0.00033,0.00028,-7e-05,-6e-05,6,4
27905,-0.0001,-4e-05,-5e-05,-0.00013,-0.00033,0.00028,-7e-05,-6e-05,6,4
27906,-0.0001,-4e-05,-5e-05,-0.00013,-0.00033,0.00028,-7e-05,-6e-05,6,4
27907,-0.0001,-4e-05,-5e-05,-0.00013,-0.00033,0.00028,-7e-05,-6e-05,6,4
27908,-0.0001,-4e-05,-5e-05,-0.00013,-0.00033,0.00028,-7e-05,-6e-05,6,4
27909,-0.0001,-4e-05,-5e-05,-0.00013,-0.00033,0.00028,-7e-05,-6e-05,6,4
27910,-0.0001,-4e-05,-5e-05,-0.00013,-0.00033,0.00028,-7e-05,-6e-05,6,4
27911,-0.0001,-4e-05,-5e-05,-0.00013,-0.00033,0.00028,-7e-05,-6e-05,6,4
27912,-0.0001,-4e-05,-5e-05,-0.00013,-0.00033,0.00028,-7e-05,-6e-05,6,4
27913,-0.0001,-4e-05,-5e-05,-0.00013,-0.00033,0.00028,-7e-05,-6e-05,6,4
27914,-0.0001,-4e-05,-5e-05,-0.00013,-0.00033,0.00028,-7e-05,-6e-05,6,4
27915,-0.0001,-4e-05,-5e-05,-0.00013,-0.00033,0.00028,-7e-05,-6e-05,6,4
27916,-0.0001,-4e-05,-5e-05,-0.00013,-0.00033,0.00028,-7e-05,-6e-05,6,4
27917,-0.0001,-4e-05,-5e-05,-0.00013,-0.00033,0.00028,-7e-05,-6e-05,6,4
27918,-0.0001,-4e-05,-5e-05,-0.00013,-0.00033,0.00028,-7e-05,-6e-05,6,4
27919,-0.0001,-4e-05,-5e-05,-0.00013,-0.00033,0.00028,-7e-05,-6e-05,6,4
27920,-0.0001,-4e-05,-5e-05,-0.00013,-0.00033,0.00028,-7e-05,-6e-05,6,4
27921,-0.0001,-4e-05,-5e-05,-0.00013,-0.00033,0.00028,-7e-05,-6e-05,6,4
27922,-0.0001,-4e-05,-5e-05,-0.00013,-0.00033,0.00028,-7e-05,-6e-05,6,4
27923,5e-05,-0.0001,-7e-05,-7e-05,-0.00016,-0.00013,-5e-05,9e-05,6,4
27924,5e-05,-0.0001,-7e-05,-7e-05,-0.00016,-0.00013,-5e-05,9e-05,6,4
27925,-0.0002,-0.00012,3e-05,-4e-05,-0.00037,-0.00028,-0.0001,-0.00015,6,4
27926,-0.0002,-0.00012,3e-05,-4e-05,-0.00037,-0.00028,-0.0001,-0.00015,6,4
27927,-0.0002,-0.00012,3e-05,-4e-05,-0.00037,-0.00028,-0.0001,-0.00015,6,4
27929,-0.0002,-0.00012,3e-05,-4e-05,-0.00037,-0.00028,-0.0001,-0.00015,6,4
27930,-0.0002,-0.00012,3e-05,-4e-05,-0.00037,-0.00028,-0.0001,-0.00015,6,4
27931,-0.0002,-0.00012,3e-05,-4e-05,-0.00037,-0.00028,-0.0001,-0.00015,6,4
27932,-0.0002,-0.00012,3e-05,-4e-05,-0.00037,-0.00028,-0.0001,-0.00015,6,4
27933,-0.0002,-0.00012,3e-05,-4e-05,-0.00037,-0.00028,-0.0001,-0.00015,6,4
27934,-0.0002,-0.00012,3e-05,-4e-05,-0.00037,-0.00028,-0.0001,-0.00015,6,4
27935,-0.0002,-0.00012,3e-05,-4e-05,-0.00037,-0.00028,-0.0001,-0.00015,6,4
27936,-0.0002,-0.00012,3e-05,-4e-05,-0.00037,-0.00028,-0.0001,-0.00015,6,4
27937,-0.0002,-0.00012,3e-05,-4e-05,-0.00037,-0.00028,-0.0001,-0.00015,6,4
27938,0.0001,5e-05,3e-05,-4e-05,5e-05,1e-05,0.00014,0.00022,6,4
27939,0.0001,5e-05,3e-05,-4e-05,5e-05,1e-05,0.00014,0.00022,6,4
27940,0.00015,0.00011,-1e-05,-2e-05,-0.0001,0.00015,0.00017,4e-05,6,4
27941,0.00015,0.00011,-1e-05,-2e-05,-0.0001,0.00015,0.00017,4e-05,6,4
27942,0.00015,0.00011,-1e-05,-2e-05,-0.0001,0.00015,0.00017,4e-05,6,4
27943,0.00015,0.00011,-1e-05,-2e-05,-0.0001,0.00015,0.00017,4e-05,6,4
27944,0.00015,0.00011,-1e-05,-2e-05,-0.0001,0.00015,0.00017,4e-05,6,4
27945,0.00015,0.00011,-1e-05,-2e-05,-0.0001,0.00015,0.00017,4e-05,6,4
27946,0.00015,0.00011,-1e-05,-2e-05,-0.0001,0.00015,0.00017,4e-05,6,4
27947,0.00015,0.00011,-1e-05,-2e-05,-0.0001,0.00015,0.00017,4e-05,6,4
27948,0.00015,0.00011,-1e-05,-2e-05,-0.0001,0.00015,0.00017,4e-05,6,4
27949,0.00015,0.00011,-1e-05,-2e-05,-0.0001,0.00015,0.00017,4e-05,6,4
27950,0.00015,0.00011,-1e-05,-2e-05,-0.0001,0.00015,0.00017,4e-05,6,4
27951,0.00015,0.00011,-1e-05,-2e-05,-0.0001,0.00015,0.00017,4e-05,6,4
27952,0.00015,0.00011,-1e-05,-2e-05,-0.0001,0.00015,0.00017,4e-05,6,4
27953,0.00015,0.00011,-1e-05,-2e-05,-0.0001,0.00015,0.00017,4e-05,6,4
27954,0.00015,0.00011,-1e-05,-2e-05,-0.0001,0.00015,0.00017,4e-05,6,4
27955,0.00015,0.00011,-1e-05,-2e-05,-0.0001,0.00015,0.00017,4e-05,6,4
27956,0.00015,0.00011,-1e-05,-2e-05,-0.0001,0.00015,0.00017,4e-05,6,4
27957,0.00015,0.00011,-1e-05,-2e-05,-0.0001,0.00015,0.00017,4e-05,6,4
27958,0.00015,0.00011,-1e-05,-2e-05,-0.0001,0.00015,0.00017,4e-05,6,4
27959,0.00015,0.00011,-1e-05,-2e-05,-0.0001,0.00015,0.00017,4e-05,6,4
27960,0.00015,0.00011,-1e-05,-2e-05,-0.0001,0.00015,0.00017,4e-05,6,4
27961,0.00019,0,4e-05,0.00023,0.00042,0.0001,0.00011,0.00015,6,4
27962,-2e-05,2e-05,-7e-05,1e-05,0.0002,-0.00011,-3e-05,-0.0001,6,4
27963,-2e-05,2e-05,-7e-05,1e-05,0.0002,-0.00011,-3e-05,-0.0001,6,4
27964,-2e-05,2e-05,-7e-05,1e-05,0.0002,-0.00011,-3e-05,-0.0001,6,4
27965,-2e-05,2e-05,-7e-05,1e-05,0.0002,-0.00011,-3e-05,-0.0001,6,4
27966,-2e-05,2e-05,-7e-05,1e-05,0.0002,-0.00011,-3e-05,-0.0001,6,4
27967,-2e-05,2e-05,-7e-05,1e-05,0.0002,-0.00011,-3e-05,-0.0001,6,4
27968,-2e-05,2e-05,-7e-05,1e-05,0.0002,-0.00011,-3e-05,-0.0001,6,4
27969,-2e-05,2e-05,-7e-05,1e-05,0.0002,-0.00011,-3e-05,-0.0001,6,4
27970,-2e-05,2e-05,-7e-05,1e-05,0.0002,-0.00011,-3e-05,-0.0001,6,4
27971,-2e-05,2e-05,-7e-05,1e-05,0.0002,-0.00011,-3e-05,-0.0001,6,4
27972,-2e-05,2e-05,-7e-05,1e-05,0.0002,-0.00011,-3e-05,-0.0001,6,4
27973,-2e-05,2e-05,-7e-05,1e-05,0.0002,-0.00011,-3e-05,-0.0001,6,4
27974,-2e-05,2e-05,-7e-05,1e-05,0.0002,-0.00011,-3e-05,-0.0001,6,4
27976,-2e-05,2e-05,-7e-05,1e-05,0.0002,-0.00011,-3e-05,-0.0001,6,4
27977,-2e-05,2e-05,-7e-05,1e-05,0.0002,-0.00011,-3e-05,-0.0001,6,4
27978,-2e-05,2e-05,-7e-05,1e-05,0.0002,-0.00011,-3e-05,-0.0001,6,4
27979,-2e-05,2e-05,-7e-05,1e-05,0.0002,-0.00011,-3e-05,-0.0001,6,4
27980,-2e-05,2e-05,-7e-05,1e-05,0.0002,-0.00011,-3e-05,-0.0001,6,4
27981,-2e-05,2e-05,-7e-05,1e-05,0.0002,-0.00011,-3e-05,-0.0001,6,4
27982,-2e-05,2e-05,-7e-05,1e-05,0.0002,-0.00011,-3e-05,-0.0001,6,4
27983,-0.00072,-0.00014,-3e-05,-0.00011,-0.00021,4e-05,2e-05,-3e-05,6,4
27984,-0.00072,-0.00014,-3e-05,-0.00011,-0.00021,4e-05,2e-05,-3e-05,6,4
27985,0.00014,3e-05,-3e-05,4e-05,0.00013,8e-05,1e-05,0.00023,6,4
27986,0.00014,3e-05,-3e-05,4e-05,0.00013,8e-05,1e-05,0.00023,6,4
27987,0.00014,3e-05,-3e-05,4e-05,0.00013,8e-05,1e-05,0.00023,6,4
27988,0.00014,3e-05,-3e-05,4e-05,0.00013,8e-05,1e-05,0.00023,6,4
27989,0.00014,3e-05,-3e-05,4e-05,0.00013,8e-05,1e-05,0.00023,6,4
27990,0.00014,3e-05,-3e-05,4e-05,0.00013,8e-05,1e-05,0.00023,6,4
27991,0.00014,3e-05,-3e-05,4e-05,0.00013,8e-05,1e-05,0.00023,6,4
27992,0.00014,3e-05,-3e-05,4e-05,0.00013,8e-05,1e-05,0.00023,6,4
27993,0.00014,3e-05,-3e-05,4e-05,0.00013,8e-05,1e-05,0.00023,6,4
27994,0.00014,3e-05,-3e-05,4e-05,0.00013,8e-05,1e-05,0.00023,6,4
27995,0.00014,3e-05,-3e-05,4e-05,0.00013,8e-05,1e-05,0.00023,6,4
27996,0.00014,3e-05,-3e-05,4e-05,0.00013,8e-05,1e-05,0.00023,6,4
27997,0.00014,3e-05,-3e-05,4e-05,0.00013,8e-05,1e-05,0.00023,6,4
27998,0.00035,8e-05,6e-05,0.00026,0.0007,0.00017,5e-05,6e-05,6,4
27999,0.00035,8e-05,6e-05,0.00026,0.0007,0.00017,5e-05,6e-05,6,4
28000,-0.00023,1e-05,1e-05,-6e-05,-0.0004,5e-05,-0.00011,0,6,4
28001,-0.00023,1e-05,1e-05,-6e-05,-0.0004,5e-05,-0.00011,0,6,4
28002,-0.00023,1e-05,1e-05,-6e-05,-0.0004,5e-05,-0.00011,0,6,4
28003,-0.00023,1e-05,1e-05,-6e-05,-0.0004,5e-05,-0.00011,0,6,4
28004,-0.00023,1e-05,1e-05,-6e-05,-0.0004,5e-05,-0.00011,0,6,4
28005,-0.00023,1e-05,1e-05,-6e-05,-0.0004,5e-05,-0.00011,0,6,4
28006,-0.00023,1e-05,1e-05,-6e-05,-0.0004,5e-05,-0.00011,0,6,4
28007,-0.00023,1e-05,1e-05,-6e-05,-0.0004,5e-05,-0.00011,0,6,4
28008,-0.00023,1e-05,1e-05,-6e-05,-0.0004,5e-05,-0.00011,0,6,4
28009,-0.00023,1e-05,1e-05,-6e-05,-0.0004,5e-05,-0.00011,0,6,4
28010,-0.00023,1e-05,1e-05,-6e-05,-0.0004,5e-05,-0.00011,0,6,4
28011,-0.00023,1e-05,1e-05,-6e-05,-0.0004,5e-05,-0.00011,0,6,4
28012,-0.00023,1e-05,1e-05,-6e-05,-0.0004,5e-05,-0.00011,0,6,4
28013,-0.00023,1e-05,1e-05,-6e-05,-0.0004,5e-05,-0.00011,0,6,4
28014,-0.00023,1e-05,1e-05,-6e-05,-0.0004,5e-05,-0.00011,0,6,4
28015,-0.00023,1e-05,1e-05,-6e-05,-0.0004,5e-05,-0.00011,0,6,4
28016,-0.00023,1e-05,1e-05,-6e-05,-0.0004,5e-05,-0.00011,0,6,4
28017,-0.00023,1e-05,1e-05,-6e-05,-0.0004,5e-05,-0.00011,0,6,4
28018,-0.00023,1e-05,1e-05,-6e-05,-0.0004,5e-05,-0.00011,0,6,4
28019,-0.00023,1e-05,1e-05,-6e-05,-0.0004,5e-05,-0.00011,0,6,4
28020,-0.00023,1e-05,1e-05,-6e-05,-0.0004,5e-05,-0.00011,0,6,4
28021,-0.00013,-8e-05,-2e-05,-8e-05,0.0001,0.00022,0.00029,-0.0001,6,4
28023,0.00023,0.00016,8e-05,0.00018,0.00025,0.00023,7e-05,3e-05,6,4
28024,0.00023,0.00016,8e-05,0.00018,0.00025,0.00023,7e-05,3e-05,6,4
28025,0.00023,0.00016,8e-05,0.00018,0.00025,0.00023,7e-05,3e-05,6,4
28026,0.00023,0.00016,8e-05,0.00018,0.00025,0.00023,7e-05,3e-05,6,4
28027,0.00023,0.00016,8e-05,0.00018,0.00025,0.00023,7e-05,3e-05,6,4
28028,0.00023,0.00016,8e-05,0.00018,0.00025,0.00023,7e-05,3e-05,6,4
28029,0.00023,0.00016,8e-05,0.00018,0.00025,0.00023,7e-05,3e-05,6,4
28030,0.00023,0.00016,8e-05,0.00018,0.00025,0.00023,7e-05,3e-05,6,4
28031,0.00023,0.00016,8e-05,0.00018,0.00025,0.00023,7e-05,3e-05,6,4
28032,0.00023,0.00016,8e-05,0.00018,0.00025,0.00023,7e-05,3e-05,6,4
28033,0.00023,0.00016,8e-05,0.00018,0.00025,0.00023,7e-05,3e-05,6,4
28034,0.00023,0.00016,8e-05,0.00018,0.00025,0.00023,7e-05,3e-05,6,4
28035,0.00023,0.00016,8e-05,0.00018,0.00025,0.00023,7e-05,3e-05,6,4
28036,0.00023,0.00016,8e-05,0.00018,0.00025,0.00023,7e-05,3e-05,6,4
28037,0.00023,0.00016,8e-05,0.00018,0.00025,0.00023,7e-05,3e-05,6,4
28038,0.00023,0.00016,8e-05,0.00018,0.00025,0.00023,7e-05,3e-05,6,4
28039,0.00023,0.00016,8e-05,0.00018,0.00025,0.00023,7e-05,3e-05,6,4
28040,0.00023,0.00016,8e-05,0.00018,0.00025,0.00023,7e-05,3e-05,6,4
28041,0.00023,0.00016,8e-05,0.00018,0.00025,0.00023,7e-05,3e-05,6,4
28042,0.00023,0.00016,8e-05,0.00018,0.00025,0.00023,7e-05,3e-05,6,4
28043,8e-05,-9e-05,-0.00012,-0.00011,-0.00011,0.00013,-0.00016,-1e-05,6,4
28044,8e-05,-9e-05,-0.00012,-0.00011,-0.00011,0.00013,-0.00016,-1e-05,6,4
28045,-0.00011,-0.00016,-0.00013,-6e-05,5e-05,-0.00028,-0.00022,8e-05,6,4
28046,-0.00011,-0.00016,-0.00013,-6e-05,5e-05,-0.00028,-0.00022,8e-05,6,4
28047,-0.00011,-0.00016,-0.00013,-6e-05,5e-05,-0.00028,-0.00022,8e-05,6,4
28048,-0.00011,-0.00016,-0.00013,-6e-05,5e-05,-0.00028,-0.00022,8e-05,6,4
28049,-0.00011,-0.00016,-0.00013,-6e-05,5e-05,-0.00028,-0.00022,8e-05,6,4
28050,-0.00011,-0.00016,-0.00013,-6e-05,5e-05,-0.00028,-0.00022,8e-05,6,4
28051,-0.00011,-0.00016,-0.00013,-6e-05,5e-05,-0.00028,-0.00022,8e-05,6,4
28052,-0.00011,-0.00016,-0.00013,-6e-05,5e-05,-0.00028,-0.00022,8e-05,6,4
28053,-0.00011,-0.00016,-0.00013,-6e-05,5e-05,-0.00028,-0.00022,8e-05,6,4
28054,-0.00011,-0.00016,-0.00013,-6e-05,5e-05,-0.00028,-0.00022,8e-05,6,4
28055,-0.00011,-0.00016,-0.00013,-6e-05,5e-05,-0.00028,-0.00022,8e-05,6,4
28056,-0.00011,-0.00016,-0.00013,-6e-05,5e-05,-0.00028,-0.00022,8e-05,6,4
28057,-0.00013,4e-05,1e-05,-0.00014,-0.00057,4e-05,-8e-05,3e-05,6,4
28058,-0.00013,4e-05,1e-05,-0.00014,-0.00057,4e-05,-8e-05,3e-05,6,4
28059,-0.00013,4e-05,1e-05,-0.00014,-0.00057,4e-05,-8e-05,3e-05,6,4
28060,-0.00013,4e-05,1e-05,-0.00014,-0.00057,4e-05,-8e-05,3e-05,6,4
28061,-0.00013,4e-05,1e-05,-0.00014,-0.00057,4e-05,-8e-05,3e-05,6,4
28062,-0.00013,4e-05,1e-05,-0.00014,-0.00057,4e-05,-8e-05,3e-05,6,4
28063,-0.00013,4e-05,1e-05,-0.00014,-0.00057,4e-05,-8e-05,3e-05,6,4
28064,-0.00013,4e-05,1e-05,-0.00014,-0.00057,4e-05,-8e-05,3e-05,6,4
28065,-0.00037,-2e-05,4e-05,0.0001,0.00011,0.00021,0.00032,-0.00023,6,4
28066,-0.00037,-2e-05,4e-05,0.0001,0.00011,0.00021,0.00032,-0.00023,6,4
28067,-0.00037,-2e-05,4e-05,0.0001,0.00011,0.00021,0.00032,-0.00023,6,4
28068,-0.00037,-2e-05,4e-05,0.0001,0.00011,0.00021,0.00032,-0.00023,6,4
28070,-0.00037,-2e-05,4e-05,0.0001,0.00011,0.00021,0.00032,-0.00023,6,4
28071,-0.00037,-2e-05,4e-05,0.0001,0.00011,0.00021,0.00032,-0.00023,6,4
28072,-0.00037,-2e-05,4e-05,0.0001,0.00011,0.00021,0.00032,-0.00023,6,4
28073,-0.00037,-2e-05,4e-05,0.0001,0.00011,0.00021,0.00032,-0.00023,6,4
28074,-0.00037,-2e-05,4e-05,0.0001,0.00011,0.00021,0.00032,-0.00023,6,4
28075,-0.00037,-2e-05,4e-05,0.0001,0.00011,0.00021,0.00032,-0.00023,6,4
28076,-0.00037,-2e-05,4e-05,0.0001,0.00011,0.00021,0.00032,-0.00023,6,4
28077,-0.00037,-2e-05,4e-05,0.0001,0.00011,0.00021,0.00032,-0.00023,6,4
28078,-0.00037,-2e-05,4e-05,0.0001,0.00011,0.00021,0.00032,-0.00023,6,4
28079,-0.00037,-2e-05,4e-05,0.0001,0.00011,0.00021,0.00032,-0.00023,6,4
28080,1e-05,6e-05,7e-05,-1e-05,-0.00011,-0.00019,-0.0001,0.00011,6,4
28081,0.00016,2e-05,-4e-05,-5e-05,-0.00011,7e-05,1e-05,-9e-05,6,4
28082,0.00016,2e-05,-4e-05,-5e-05,-0.00011,7e-05,1e-05,-9e-05,6,4
28083,0.00016,2e-05,-4e-05,-5e-05,-0.00011,7e-05,1e-05,-9e-05,6,4
28084,0.00016,2e-05,-4e-05,-5e-05,-0.00011,7e-05,1e-05,-9e-05,6,4
28085,0.00016,2e-05,-4e-05,-5e-05,-0.00011,7e-05,1e-05,-9e-05,6,4
28086,0.00016,2e-05,-4e-05,-5e-05,-0.00011,7e-05,1e-05,-9e-05,6,4
28088,0.00016,2e-05,-4e-05,-5e-05,-0.00011,7e-05,1e-05,-9e-05,6,4
28089,0.00016,2e-05,-4e-05,-5e-05,-0.00011,7e-05,1e-05,-9e-05,6,4
28090,0.00016,2e-05,-4e-05,-5e-05,-0.00011,7e-05,1e-05,-9e-05,6,4
28091,0.00016,2e-05,-4e-05,-5e-05,-0.00011,7e-05,1e-05,-9e-05,6,4
28092,0.00016,2e-05,-4e-05,-5e-05,-0.00011,7e-05,1e-05,-9e-05,6,4
28093,0.00016,2e-05,-4e-05,-5e-05,-0.00011,7e-05,1e-05,-9e-05,6,4
28094,0.00016,2e-05,-4e-05,-5e-05,-0.00011,7e-05,1e-05,-9e-05,6,4
28095,0.00016,2e-05,-4e-05,-5e-05,-0.00011,7e-05,1e-05,-9e-05,6,4
28096,0.00016,2e-05,-4e-05,-5e-05,-0.00011,7e-05,1e-05,-9e-05,6,4
28097,0.00016,2e-05,-4e-05,-5e-05,-0.00011,7e-05,1e-05,-9e-05,6,4
28098,0.00016,2e-05,-4e-05,-5e-05,-0.00011,7e-05,1e-05,-9e-05,6,4
28099,0.00016,2e-05,-4e-05,-5e-05,-0.00011,7e-05,1e-05,-9e-05,6,4
28100,0.00016,2e-05,-4e-05,-5e-05,-0.00011,7e-05,1e-05,-9e-05,6,4
28101,0.00016,2e-05,-4e-05,-5e-05,-0.00011,7e-05,1e-05,-9e-05,6,4
28102,0.00016,2e-05,-4e-05,-5e-05,-0.00011,7e-05,1e-05,-9e-05,6,4
28103,9e-05,2e-05,0,0,0.00014,-0.00024,0.0001,0.00015,6,4
28104,9e-05,2e-05,0,0,0.00014,-0.00024,0.0001,0.00015,6,4
28105,9e-05,2e-05,0,0,0.00014,-0.00024,0.0001,0.00015,6,4
28106,9e-05,2e-05,0,0,0.00014,-0.00024,0.0001,0.00015,6,4
28107,9e-05,2e-05,0,0,0.00014,-0.00024,0.0001,0.00015,6,4
28108,9e-05,2e-05,0,0,0.00014,-0.00024,0.0001,0.00015,6,4
28109,9e-05,2e-05,0,0,0.00014,-0.00024,0.0001,0.00015,6,4
28110,9e-05,2e-05,0,0,0.00014,-0.00024,0.0001,0.00015,6,4
28111,9e-05,2e-05,0,0,0.00014,-0.00024,0.0001,0.00015,6,4
28112,9e-05,2e-05,0,0,0.00014,-0.00024,0.0001,0.00015,6,4
28113,9e-05,2e-05,0,0,0.00014,-0.00024,0.0001,0.00015,6,4
28114,9e-05,2e-05,0,0,0.00014,-0.00024,0.0001,0.00015,6,4
28115,9e-05,2e-05,0,0,0.00014,-0.00024,0.0001,0.00015,6,4
28117,9e-05,2e-05,0,0,0.00014,-0.00024,0.0001,0.00015,6,4
28118,0.00025,-3e-05,-4e-05,7e-05,0.00036,1e-05,0.00012,0.0001,6,4
28119,0.00025,-3e-05,-4e-05,7e-05,0.00036,1e-05,0.00012,0.0001,6,4
28120,0.00025,-3e-05,-4e-05,7e-05,0.00036,1e-05,0.00012,0.0001,6,4
28121,0.00025,-3e-05,-4e-05,7e-05,0.00036,1e-05,0.00012,0.0001,6,4
28122,0.00025,-3e-05,-4e-05,7e-05,0.00036,1e-05,0.00012,0.0001,6,4
28123,0.00025,-3e-05,-4e-05,7e-05,0.00036,1e-05,0.00012,0.0001,6,4
28124,0.00025,-3e-05,-4e-05,7e-05,0.00036,1e-05,0.00012,0.0001,6,4
28125,0.00025,-3e-05,-4e-05,7e-05,0.00036,1e-05,0.00012,0.0001,6,4
28126,0.00025,-3e-05,-4e-05,7e-05,0.00036,1e-05,0.00012,0.0001,6,4
28127,0.00025,-3e-05,-4e-05,7e-05,0.00036,1e-05,0.00012,0.0001,6,4
28128,0.00025,-3e-05,-4e-05,7e-05,0.00036,1e-05,0.00012,0.0001,6,4
28129,0.00025,-3e-05,-4e-05,7e-05,0.00036,1e-05,0.00012,0.0001,6,4
28130,0.00025,-3e-05,-4e-05,7e-05,0.00036,1e-05,0.00012,0.0001,6,4
28131,0.00025,-3e-05,-4e-05,7e-05,0.00036,1e-05,0.00012,0.0001,6,4
28132,0.00025,-3e-05,-4e-05,7e-05,0.00036,1e-05,0.00012,0.0001,6,4
28133,0.00025,-3e-05,-4e-05,7e-05,0.00036,1e-05,0.00012,0.0001,6,4
28134,0.00025,-3e-05,-4e-05,7e-05,0.00036,1e-05,0.00012,0.0001,6,4
28135,0.00025,-3e-05,-4e-05,7e-05,0.00036,1e-05,0.00012,0.0001,6,4
28136,0.00025,-3e-05,-4e-05,7e-05,0.00036,1e-05,0.00012,0.0001,6,4
28137,0.00025,-3e-05,-4e-05,7e-05,0.00036,1e-05,0.00012,0.0001,6,4
28138,0.00025,-3e-05,-4e-05,7e-05,0.00036,1e-05,0.00012,0.0001,6,4
28139,0.00025,-3e-05,-4e-05,7e-05,0.00036,1e-05,0.00012,0.0001,6,4
28140,0.0002,3e-05,-6e-05,-0.00012,-0.00024,-4e-05,4e-05,-4e-05,6,4
28141,0.0002,3e-05,-6e-05,-0.00012,-0.00024,-4e-05,4e-05,-4e-05,6,4
28142,0.0002,3e-05,-6e-05,-0.00012,-0.00024,-4e-05,4e-05,-4e-05,6,4
28143,0.0002,3e-05,-6e-05,-0.00012,-0.00024,-4e-05,4e-05,-4e-05,6,4
28144,0.0002,3e-05,-6e-05,-0.00012,-0.00024,-4e-05,4e-05,-4e-05,6,4
28145,0.0002,3e-05,-6e-05,-0.00012,-0.00024,-4e-05,4e-05,-4e-05,6,4
28146,0.0002,3e-05,-6e-05,-0.00012,-0.00024,-4e-05,4e-05,-4e-05,6,4
28147,0.0002,3e-05,-6e-05,-0.00012,-0.00024,-4e-05,4e-05,-4e-05,6,4
28148,-0.00014,-9e-05,1e-05,-5e-05,-0.00013,0.0003,0.00015,8e-05,6,4
28149,-0.00014,-9e-05,1e-05,-5e-05,-0.00013,0.0003,0.00015,8e-05,6,4
28150,-0.00014,-9e-05,1e-05,-5e-05,-0.00013,0.0003,0.00015,8e-05,6,4
28151,-0.00014,-9e-05,1e-05,-5e-05,-0.00013,0.0003,0.00015,8e-05,6,4
28152,-0.00014,-9e-05,1e-05,-5e-05,-0.00013,0.0003,0.00015,8e-05,6,4
28153,-0.00014,-9e-05,1e-05,-5e-05,-0.00013,0.0003,0.00015,8e-05,6,4
28154,-0.00014,-9e-05,1e-05,-5e-05,-0.00013,0.0003,0.00015,8e-05,6,4
28155,-0.00014,-9e-05,1e-05,-5e-05,-0.00013,0.0003,0.00015,8e-05,6,4
28156,-0.00014,-9e-05,1e-05,-5e-05,-0.00013,0.0003,0.00015,8e-05,6,4
28157,-0.00014,-9e-05,1e-05,-5e-05,-0.00013,0.0003,0.00015,8e-05,6,4
28158,-0.00014,-9e-05,1e-05,-5e-05,-0.00013,0.0003,0.00015,8e-05,6,4
28159,-0.00014,-9e-05,1e-05,-5e-05,-0.00013,0.0003,0.00015,8e-05,6,4
28160,-0.00014,-9e-05,1e-05,-5e-05,-0.00013,0.0003,0.00015,8e-05,6,4
28161,-0.00014,-9e-05,1e-05,-5e-05,-0.00013,0.0003,0.00015,8e-05,6,4
28163,1e-05,1e-05,0,2e-05,6e-05,-0.00024,2e-05,-0.00013,6,4
28164,0.0003,5e-05,2e-05,-1e-05,-0.00013,-0.00034,-0.00046,-0.00017,6,4
28165,0.0003,5e-05,2e-05,-1e-05,-0.00013,-0.00034,-0.00046,-0.00017,6,4
28166,0.0003,5e-05,2e-05,-1e-05,-0.00013,-0.00034,-0.00046,-0.00017,6,4
28167,0.0003,5e-05,2e-05,-1e-05,-0.00013,-0.00034,-0.00046,-0.00017,6,4
28168,0.0003,5e-05,2e-05,-1e-05,-0.00013,-0.00034,-0.00046,-0.00017,6,4
28169,0.0003,5e-05,2e-05,-1e-05,-0.00013,-0.00034,-0.00046,-0.00017,6,4
28170,0.0003,5e-05,2e-05,-1e-05,-0.00013,-0.00034,-0.00046,-0.00017,6,4
28171,0.0003,5e-05,2e-05,-1e-05,-0.00013,-0.00034,-0.00046,-0.00017,6,4
28172,0.0003,5e-05,2e-05,-1e-05,-0.00013,-0.00034,-0.00046,-0.00017,6,4
28173,0.0003,5e-05,2e-05,-1e-05,-0.00013,-0.00034,-0.00046,-0.00017,6,4
28174,0.0003,5e-05,2e-05,-1e-05,-0.00013,-0.00034,-0.00046,-0.00017,6,4
28175,0.0003,5e-05,2e-05,-1e-05,-0.00013,-0.00034,-0.00046,-0.00017,6,4
28176,0.0003,5e-05,2e-05,-1e-05,-0.00013,-0.00034,-0.00046,-0.00017,6,4
28177,0.0003,5e-05,2e-05,-1e-05,-0.00013,-0.00034,-0.00046,-0.00017,6,4
28178,-0.00052,1e-05,1e-05,7e-05,9e-05,0,-1e-05,-0.00012,6,4
28179,-0.00052,1e-05,1e-05,7e-05,9e-05,0,-1e-05,-0.00012,6,4
28180,-0.00052,1e-05,1e-05,7e-05,9e-05,0,-1e-05,-0.00012,6,4
28181,-0.00052,1e-05,1e-05,7e-05,9e-05,0,-1e-05,-0.00012,6,4
28182,-0.00052,1e-05,1e-05,7e-05,9e-05,0,-1e-05,-0.00012,6,4
28183,-0.00052,1e-05,1e-05,7e-05,9e-05,0,-1e-05,-0.00012,6,4
28184,-0.00052,1e-05,1e-05,7e-05,9e-05,0,-1e-05,-0.00012,6,4
28185,-0.00052,1e-05,1e-05,7e-05,9e-05,0,-1e-05,-0.00012,6,4
28186,-0.00052,1e-05,1e-05,7e-05,9e-05,0,-1e-05,-0.00012,6,4
28187,-0.00052,1e-05,1e-05,7e-05,9e-05,0,-1e-05,-0.00012,6,4
28188,-0.00052,1e-05,1e-05,7e-05,9e-05,0,-1e-05,-0.00012,6,4
28189,-0.00052,1e-05,1e-05,7e-05,9e-05,0,-1e-05,-0.00012,6,4
28190,-0.00052,1e-05,1e-05,7e-05,9e-05,0,-1e-05,-0.00012,6,4
28191,-0.00052,1e-05,1e-05,7e-05,9e-05,0,-1e-05,-0.00012,6,4
28192,-0.00052,1e-05,1e-05,7e-05,9e-05,0,-1e-05,-0.00012,6,4
28193,-0.00052,1e-05,1e-05,7e-05,9e-05,0,-1e-05,-0.00012,6,4
28194,-0.00052,1e-05,1e-05,7e-05,9e-05,0,-1e-05,-0.00012,6,4
28195,-0.00052,1e-05,1e-05,7e-05,9e-05,0,-1e-05,-0.00012,6,4
28196,-0.00052,1e-05,1e-05,7e-05,9e-05,0,-1e-05,-0.00012,6,4
28197,-0.00052,1e-05,1e-05,7e-05,9e-05,0,-1e-05,-0.00012,6,4
28198,-0.00052,1e-05,1e-05,7e-05,9e-05,0,-1e-05,-0.00012,6,4
28199,-0.00052,1e-05,1e-05,7e-05,9e-05,0,-1e-05,-0.00012,6,4
28200,-5e-05,-4e-05,-1e-05,1e-05,-7e-05,0.00024,-2e-05,-0.00018,6,4
28201,8e-05,7e-05,3e-05,-3e-05,-2e-05,4e-05,0.0001,0.00011,6,4
28202,8e-05,7e-05,3e-05,-3e-05,-2e-05,4e-05,0.0001,0.00011,6,4
28203,8e-05,7e-05,3e-05,-3e-05,-2e-05,4e-05,0.0001,0.00011,6,4
28204,8e-05,7e-05,3e-05,-3e-05,-2e-05,4e-05,0.0001,0.00011,6,4
28205,8e-05,7e-05,3e-05,-3e-05,-2e-05,4e-05,0.0001,0.00011,6,4
28206,8e-05,7e-05,3e-05,-3e-05,-2e-05,4e-05,0.0001,0.00011,6,4
28207,8e-05,7e-05,3e-05,-3e-05,-2e-05,4e-05,0.0001,0.00011,6,4
28208,8e-05,7e-05,3e-05,-3e-05,-2e-05,4e-05,0.0001,0.00011,6,4
28209,8e-05,7e-05,3e-05,-3e-05,-2e-05,4e-05,0.0001,0.00011,6,4
28211,8e-05,7e-05,3e-05,-3e-05,-2e-05,4e-05,0.0001,0.00011,6,4
28212,8e-05,7e-05,3e-05,-3e-05,-2e-05,4e-05,0.0001,0.00011,6,4
28213,8e-05,7e-05,3e-05,-3e-05,-2e-05,4e-05,0.0001,0.00011,6,4
28214,8e-05,7e-05,3e-05,-3e-05,-2e-05,4e-05,0.0001,0.00011,6,4
28215,8e-05,7e-05,3e-05,-3e-05,-2e-05,4e-05,0.0001,0.00011,6,4
28216,8e-05,7e-05,3e-05,-3e-05,-2e-05,4e-05,0.0001,0.00011,6,4
28217,8e-05,7e-05,3e-05,-3e-05,-2e-05,4e-05,0.0001,0.00011,6,4
28218,8e-05,7e-05,3e-05,-3e-05,-2e-05,4e-05,0.0001,0.00011,6,4
28219,8e-05,7e-05,3e-05,-3e-05,-2e-05,4e-05,0.0001,0.00011,6,4
28220,8e-05,7e-05,3e-05,-3e-05,-2e-05,4e-05,0.0001,0.00011,6,4
28221,8e-05,7e-05,3e-05,-3e-05,-2e-05,4e-05,0.0001,0.00011,6,4
28222,8e-05,7e-05,3e-05,-3e-05,-2e-05,4e-05,0.0001,0.00011,6,4
28223,7e-05,-5e-05,-0.00012,-0.00014,-0.00018,-7e-05,-7e-05,4e-05,6,4
28224,7e-05,-5e-05,-0.00012,-0.00014,-0.00018,-7e-05,-7e-05,4e-05,6,4
28225,7e-05,-5e-05,-0.00012,-0.00014,-0.00018,-7e-05,-7e-05,4e-05,6,4
28226,7e-05,-5e-05,-0.00012,-0.00014,-0.00018,-7e-05,-7e-05,4e-05,6,4
28227,7e-05,-5e-05,-0.00012,-0.00014,-0.00018,-7e-05,-7e-05,4e-05,6,4
28228,7e-05,-5e-05,-0.00012,-0.00014,-0.00018,-7e-05,-7e-05,4e-05,6,4
28229,7e-05,-5e-05,-0.00012,-0.00014,-0.00018,-7e-05,-7e-05,4e-05,6,4
28230,7e-05,-5e-05,-0.00012,-0.00014,-0.00018,-7e-05,-7e-05,4e-05,6,4
28231,7e-05,-5e-05,-0.00012,-0.00014,-0.00018,-7e-05,-7e-05,4e-05,6,4
28232,7e-05,-5e-05,-0.00012,-0.00014,-0.00018,-7e-05,-7e-05,4e-05,6,4
28233,7e-05,-5e-05,-0.00012,-0.00014,-0.00018,-7e-05,-7e-05,4e-05,6,4
28234,7e-05,-5e-05,-0.00012,-0.00014,-0.00018,-7e-05,-7e-05,4e-05,6,4
28235,7e-05,-5e-05,-0.00012,-0.00014,-0.00018,-7e-05,-7e-05,4e-05,6,4
28236,7e-05,-5e-05,-0.00012,-0.00014,-0.00018,-7e-05,-7e-05,4e-05,6,4
28238,-6e-05,-4e-05,4e-05,0.00021,0.00049,0.00028,-2e-05,-8e-05,6,4
28239,-6e-05,-4e-05,4e-05,0.00021,0.00049,0.00028,-2e-05,-8e-05,6,4
28240,-6e-05,-4e-05,4e-05,0.00021,0.00049,0.00028,-2e-05,-8e-05,6,4
28241,-6e-05,-4e-05,4e-05,0.00021,0.00049,0.00028,-2e-05,-8e-05,6,4
28242,-6e-05,-4e-05,4e-05,0.00021,0.00049,0.00028,-2e-05,-8e-05,6,4
28243,-6e-05,-4e-05,4e-05,0.00021,0.00049,0.00028,-2e-05,-8e-05,6,4
28244,-6e-05,-4e-05,4e-05,0.00021,0.00049,0.00028,-2e-05,-8e-05,6,4
28245,-6e-05,-4e-05,4e-05,0.00021,0.00049,0.00028,-2e-05,-8e-05,6,4
28246,-6e-05,-4e-05,4e-05,0.00021,0.00049,0.00028,-2e-05,-8e-05,6,4
28247,-6e-05,-4e-05,4e-05,0.00021,0.00049,0.00028,-2e-05,-8e-05,6,4
28248,-6e-05,-4e-05,4e-05,0.00021,0.00049,0.00028,-2e-05,-8e-05,6,4
28249,-6e-05,-4e-05,4e-05,0.00021,0.00049,0.00028,-2e-05,-8e-05,6,4
28250,-6e-05,-4e-05,4e-05,0.00021,0.00049,0.00028,-2e-05,-8e-05,6,4
28251,-6e-05,-4e-05,4e-05,0.00021,0.00049,0.00028,-2e-05,-8e-05,6,4
28252,-6e-05,-4e-05,4e-05,0.00021,0.00049,0.00028,-2e-05,-8e-05,6,4
28253,-6e-05,-4e-05,4e-05,0.00021,0.00049,0.00028,-2e-05,-8e-05,6,4
28254,-6e-05,-4e-05,4e-05,0.00021,0.00049,0.00028,-2e-05,-8e-05,6,4
28255,-6e-05,-4e-05,4e-05,0.00021,0.00049,0.00028,-2e-05,-8e-05,6,4
28257,-6e-05,-4e-05,4e-05,0.00021,0.00049,0.00028,-2e-05,-8e-05,6,4
28258,-6e-05,-4e-05,4e-05,0.00021,0.00049,0.00028,-2e-05,-8e-05,6,4
28259,-6e-05,-4e-05,4e-05,0.00021,0.00049,0.00028,-2e-05,-8e-05,6,4
28260,0.00025,4e-05,4e-05,0.00016,0.0003,0.00037,-8e-05,-0.00014,6,4
28261,-7e-05,-7e-05,-4e-05,-0.00015,-0.00068,-0.00039,0,3e-05,6,4
28262,-7e-05,-7e-05,-4e-05,-0.00015,-0.00068,-0.00039,0,3e-05,6,4
28263,-7e-05,-7e-05,-4e-05,-0.00015,-0.00068,-0.00039,0,3e-05,6,4
28264,-7e-05,-7e-05,-4e-05,-0.00015,-0.00068,-0.00039,0,3e-05,6,4
28265,-7e-05,-7e-05,-4e-05,-0.00015,-0.00068,-0.00039,0,3e-05,6,4
28266,-7e-05,-7e-05,-4e-05,-0.00015,-0.00068,-0.00039,0,3e-05,6,4
28267,-7e-05,-7e-05,-4e-05,-0.00015,-0.00068,-0.00039,0,3e-05,6,4
28268,-7e-05,-7e-05,-4e-05,-0.00015,-0.00068,-0.00039,0,3e-05,6,4
28269,-7e-05,-7e-05,-4e-05,-0.00015,-0.00068,-0.00039,0,3e-05,6,4
28270,-7e-05,-7e-05,-4e-05,-0.00015,-0.00068,-0.00039,0,3e-05,6,4
28271,-7e-05,-7e-05,-4e-05,-0.00015,-0.00068,-0.00039,0,3e-05,6,4
28272,-7e-05,-7e-05,-4e-05,-0.00015,-0.00068,-0.00039,0,3e-05,6,4
28273,-7e-05,-7e-05,-4e-05,-0.00015,-0.00068,-0.00039,0,3e-05,6,4
28274,-7e-05,-7e-05,-4e-05,-0.00015,-0.00068,-0.00039,0,3e-05,6,4
28275,-7e-05,-7e-05,-4e-05,-0.00015,-0.00068,-0.00039,0,3e-05,6,4
28276,-7e-05,-7e-05,-4e-05,-0.00015,-0.00068,-0.00039,0,3e-05,6,4
28277,-7e-05,-7e-05,-4e-05,-0.00015,-0.00068,-0.00039,0,3e-05,6,4
28278,-7e-05,-7e-05,-4e-05,-0.00015,-0.00068,-0.00039,0,3e-05,6,4
28279,-7e-05,-7e-05,-4e-05,-0.00015,-0.00068,-0.00039,0,3e-05,6,4
28280,-7e-05,-7e-05,-4e-05,-0.00015,-0.00068,-0.00039,0,3e-05,6,4
28281,-7e-05,-7e-05,-4e-05,-0.00015,-0.00068,-0.00039,0,3e-05,6,4
28282,0.00012,8e-05,1e-05,7e-05,0.00024,9e-05,-2e-05,0.0001,6,4
28283,0.00025,-2e-05,-1e-05,7e-05,0.00011,-0.00017,1e-05,-0.00015,6,4
28284,0.00025,-2e-05,-1e-05,7e-05,0.00011,-0.00017,1e-05,-0.00015,6,4
28285,0.00025,-2e-05,-1e-05,7e-05,0.00011,-0.00017,1e-05,-0.00015,6,4
28286,0.00025,-2e-05,-1e-05,7e-05,0.00011,-0.00017,1e-05,-0.00015,6,4
28287,0.00025,-2e-05,-1e-05,7e-05,0.00011,-0.00017,1e-05,-0.00015,6,4
28288,0.00025,-2e-05,-1e-05,7e-05,0.00011,-0.00017,1e-05,-0.00015,6,4
28289,0.00025,-2e-05,-1e-05,7e-05,0.00011,-0.00017,1e-05,-0.00015,6,4
28290,0.00025,-2e-05,-1e-05,7e-05,0.00011,-0.00017,1e-05,-0.00015,6,4
28291,0.00025,-2e-05,-1e-05,7e-05,0.00011,-0.00017,1e-05,-0.00015,6,4
28292,0.00025,-2e-05,-1e-05,7e-05,0.00011,-0.00017,1e-05,-0.00015,6,4
28295,0.00025,-2e-05,-1e-05,7e-05,0.00011,-0.00017,1e-05,-0.00015,6,4
28296,0.00025,-2e-05,-1e-05,7e-05,0.00011,-0.00017,1e-05,-0.00015,6,4
28297,0.00025,-2e-05,-1e-05,7e-05,0.00011,-0.00017,1e-05,-0.00015,6,4
28298,1e-05,6e-05,3e-05,0,0.00028,0.0004,0.0002,-7e-05,6,4
28299,1e-05,6e-05,3e-05,0,0.00028,0.0004,0.0002,-7e-05,6,4
28300,1e-05,6e-05,3e-05,0,0.00028,0.0004,0.0002,-7e-05,6,4
28301,1e-05,6e-05,3e-05,0,0.00028,0.0004,0.0002,-7e-05,6,4
28302,1e-05,6e-05,3e-05,0,0.00028,0.0004,0.0002,-7e-05,6,4
28304,1e-05,6e-05,3e-05,0,0.00028,0.0004,0.0002,-7e-05,6,4
28305,1e-05,6e-05,3e-05,0,0.00028,0.0004,0.0002,-7e-05,6,4
28306,1e-05,6e-05,3e-05,0,0.00028,0.0004,0.0002,-7e-05,6,4
28307,1e-05,6e-05,3e-05,0,0.00028,0.0004,0.0002,-7e-05,6,4
28308,1e-05,6e-05,3e-05,0,0.00028,0.0004,0.0002,-7e-05,6,4
28309,1e-05,6e-05,3e-05,0,0.00028,0.0004,0.0002,-7e-05,6,4
28310,1e-05,6e-05,3e-05,0,0.00028,0.0004,0.0002,-7e-05,6,4
28311,1e-05,6e-05,3e-05,0,0.00028,0.0004,0.0002,-7e-05,6,4
28312,1e-05,6e-05,3e-05,0,0.00028,0.0004,0.0002,-7e-05,6,4
28313,1e-05,6e-05,3e-05,0,0.00028,0.0004,0.0002,-7e-05,6,4
28314,1e-05,6e-05,3e-05,0,0.00028,0.0004,0.0002,-7e-05,6,4
28315,1e-05,6e-05,3e-05,0,0.00028,0.0004,0.0002,-7e-05,6,4
28316,1e-05,6e-05,3e-05,0,0.00028,0.0004,0.0002,-7e-05,6,4
28317,1e-05,6e-05,3e-05,0,0.00028,0.0004,0.0002,-7e-05,6,4
28318,1e-05,6e-05,3e-05,0,0.00028,0.0004,0.0002,-7e-05,6,4
28319,1e-05,6e-05,3e-05,0,0.00028,0.0004,0.0002,-7e-05,6,4
28320,-0.00056,-1e-05,6e-05,9e-05,0.00047,0.00011,7e-05,-0.00012,6,4
28321,0.00013,0,-4e-05,4e-05,0.00015,-9e-05,4e-05,0.00013,6,4
28322,0.00013,0,-4e-05,4e-05,0.00015,-9e-05,4e-05,0.00013,6,4
28323,0.00013,0,-4e-05,4e-05,0.00015,-9e-05,4e-05,0.00013,6,4
28324,0.00013,0,-4e-05,4e-05,0.00015,-9e-05,4e-05,0.00013,6,4
28325,0.00013,0,-4e-05,4e-05,0.00015,-9e-05,4e-05,0.00013,6,4
28326,0.00013,0,-4e-05,4e-05,0.00015,-9e-05,4e-05,0.00013,6,4
28327,0.00013,0,-4e-05,4e-05,0.00015,-9e-05,4e-05,0.00013,6,4
28328,0.00013,0,-4e-05,4e-05,0.00015,-9e-05,4e-05,0.00013,6,4
28329,0.00013,0,-4e-05,4e-05,0.00015,-9e-05,4e-05,0.00013,6,4
28330,0.00013,0,-4e-05,4e-05,0.00015,-9e-05,4e-05,0.00013,6,4
28331,0.00013,0,-4e-05,4e-05,0.00015,-9e-05,4e-05,0.00013,6,4
28332,0.00013,0,-4e-05,4e-05,0.00015,-9e-05,4e-05,0.00013,6,4
28333,0.00013,0,-4e-05,4e-05,0.00015,-9e-05,4e-05,0.00013,6,4
28334,0.00013,0,-4e-05,4e-05,0.00015,-9e-05,4e-05,0.00013,6,4
28335,0.00013,0,-4e-05,4e-05,0.00015,-9e-05,4e-05,0.00013,6,4
28336,0.00013,0,-4e-05,4e-05,0.00015,-9e-05,4e-05,0.00013,6,4
28337,0.00013,0,-4e-05,4e-05,0.00015,-9e-05,4e-05,0.00013,6,4
28338,0.00013,0,-4e-05,4e-05,0.00015,-9e-05,4e-05,0.00013,6,4
28339,0.00013,0,-4e-05,4e-05,0.00015,-9e-05,4e-05,0.00013,6,4
28340,0.00013,0,-4e-05,4e-05,0.00015,-9e-05,4e-05,0.00013,6,4
28341,0.00013,0,-4e-05,4e-05,0.00015,-9e-05,4e-05,0.00013,6,4
28342,0.00013,0,-4e-05,4e-05,0.00015,-9e-05,4e-05,0.00013,6,4
