32289,0,0,9e-05,0.0003,-5e-05,0.00021,-5e-05,1e-05,6,7
32290,0,0,9e-05,0.0003,-5e-05,0.00021,-5e-05,1e-05,6,7
32291,1e-05,-2e-05,-4e-05,-3e-05,0.0006,0,0.00022,1e-05,6,7
32292,1e-05,1e-05,-5e-05,0.0004,-0.0011,-0.00022,-2e-05,0,6,7
32293,1e-05,1e-05,-5e-05,0.0004,-0.0011,-0.00022,-2e-05,0,6,7
32294,1e-05,1e-05,-5e-05,0.0004,-0.0011,-0.00022,-2e-05,0,6,7
32295,1e-05,1e-05,-5e-05,0.0004,-0.0011,-0.00022,-2e-05,0,6,7
32296,1e-05,1e-05,-5e-05,0.0004,-0.0011,-0.00022,-2e-05,0,6,7
32297,1e-05,1e-05,-5e-05,0.0004,-0.0011,-0.00022,-2e-05,0,6,7
32298,1e-05,1e-05,-5e-05,0.0004,-0.0011,-0.00022,-2e-05,0,6,7
32299,1e-05,1e-05,-5e-05,0.0004,-0.0011,-0.00022,-2e-05,0,6,7
32300,1e-05,1e-05,-5e-05,0.0004,-0.0011,-0.00022,-2e-05,0,6,7
32301,1e-05,1e-05,-5e-05,0.0004,-0.0011,-0.00022,-2e-05,0,6,7
32302,1e-05,1e-05,-5e-05,0.0004,-0.0011,-0.00022,-2e-05,0,6,7
32303,1e-05,1e-05,-5e-05,0.0004,-0.0011,-0.00022,-2e-05,0,6,7
32304,1e-05,1e-05,-5e-05,0.0004,-0.0011,-0.00022,-2e-05,0,6,7
32305,1e-05,1e-05,-5e-05,0.0004,-0.0011,-0.00022,-2e-05,0,6,7
32306,1e-05,1e-05,-5e-05,0.0004,-0.0011,-0.00022,-2e-05,0,6,7
32307,1e-05,1e-05,-5e-05,0.0004,-0.0011,-0.00022,-2e-05,0,6,7
32308,1e-05,1e-05,-5e-05,0.0004,-0.0011,-0.00022,-2e-05,0,6,7
32309,1e-05,1e-05,-5e-05,0.0004,-0.0011,-0.00022,-2e-05,0,6,7
32310,1e-05,1e-05,-5e-05,0.0004,-0.0011,-0.00022,-2e-05,0,6,7
32311,1e-05,1e-05,-5e-05,0.0004,-0.0011,-0.00022,-2e-05,0,6,7
32312,1e-05,1e-05,-5e-05,0.0004,-0.0011,-0.00022,-2e-05,0,6,7
32313,1e-05,1e-05,-5e-05,0.0004,-0.0011,-0.00022,-2e-05,0,6,7
32314,-3e-05,-1e-05,2e-05,9e-05,-0.00089,0.00026,1e-05,-0.00011,6,7
32315,-3e-05,-1e-05,2e-05,9e-05,-0.00089,0.00026,1e-05,-0.00011,6,7
32316,-3e-05,-1e-05,2e-05,9e-05,-0.00089,0.00026,1e-05,-0.00011,6,7
32317,-3e-05,-1e-05,2e-05,9e-05,-0.00089,0.00026,1e-05,-0.00011,6,7
32318,-3e-05,-1e-05,2e-05,9e-05,-0.00089,0.00026,1e-05,-0.00011,6,7
32319,-3e-05,-1e-05,2e-05,9e-05,-0.00089,0.00026,1e-05,-0.00011,6,7
32320,-3e-05,-1e-05,2e-05,9e-05,-0.00089,0.00026,1e-05,-0.00011,6,7
32321,-3e-05,-1e-05,2e-05,9e-05,-0.00089,0.00026,1e-05,-0.00011,6,7
32322,-3e-05,-1e-05,2e-05,9e-05,-0.00089,0.00026,1e-05,-0.00011,6,7
32323,-3e-05,-1e-05,2e-05,9e-05,-0.00089,0.00026,1e-05,-0.00011,6,7
32324,-3e-05,-1e-05,2e-05,9e-05,-0.00089,0.00026,1e-05,-0.00011,6,7
32325,-3e-05,-1e-05,2e-05,9e-05,-0.00089,0.00026,1e-05,-0.00011,6,7
32326,-3e-05,-1e-05,2e-05,9e-05,-0.00089,0.00026,1e-05,-0.00011,6,7
32327,-3e-05,-1e-05,2e-05,9e-05,-0.00089,0.00026,1e-05,-0.00011,6,7
32328,-1e-05,-3e-05,8e-05,0.00053,-0.00036,-0.00029,-8e-05,1e-05,6,7
32329,-1e-05,-3e-05,8e-05,0.00053,-0.00036,-0.00029,-8e-05,1e-05,6,7
32330,-1e-05,-3e-05,8e-05,0.00053,-0.00036,-0.00029,-8e-05,1e-05,6,7
32331,-1e-05,-3e-05,8e-05,0.00053,-0.00036,-0.00029,-8e-05,1e-05,6,7
32332,-1e-05,-3e-05,8e-05,0.00053,-0.00036,-0.00029,-8e-05,1e-05,6,7
32333,-1e-05,-3e-05,8e-05,0.00053,-0.00036,-0.00029,-8e-05,1e-05,6,7
32334,-1e-05,-3e-05,8e-05,0.00053,-0.00036,-0.00029,-8e-05,1e-05,6,7
32335,-1e-05,-3e-05,8e-05,0.00053,-0.00036,-0.00029,-8e-05,1e-05,6,7
32336,-1e-05,-3e-05,8e-05,0.00053,-0.00036,-0.00029,-8e-05,1e-05,6,7
32338,-1e-05,-3e-05,8e-05,0.00053,-0.00036,-0.00029,-8e-05,1e-05,6,7
32339,-1e-05,-3e-05,8e-05,0.00053,-0.00036,-0.00029,-8e-05,1e-05,6,7
32340,-1e-05,-3e-05,8e-05,0.00053,-0.00036,-0.00029,-8e-05,1e-05,6,7
32341,-1e-05,-3e-05,8e-05,0.00053,-0.00036,-0.00029,-8e-05,1e-05,6,7
32342,-1e-05,-3e-05,8e-05,0.00053,-0.00036,-0.00029,-8e-05,1e-05,6,7
32343,-1e-05,-3e-05,8e-05,0.00053,-0.00036,-0.00029,-8e-05,1e-05,6,7
32344,0,3e-05,0,-0.0002,-0.00058,-0.00012,-7e-05,-3e-05,6,7
32345,0,3e-05,0,-0.0002,-0.00058,-0.00012,-7e-05,-3e-05,6,7
32346,0,3e-05,0,-0.0002,-0.00058,-0.00012,-7e-05,-3e-05,6,7
32347,0,3e-05,0,-0.0002,-0.00058,-0.00012,-7e-05,-3e-05,6,7
32348,0,3e-05,0,-0.0002,-0.00058,-0.00012,-7e-05,-3e-05,6,7
32349,0,3e-05,0,-0.0002,-0.00058,-0.00012,-7e-05,-3e-05,6,7
32350,0,3e-05,0,-0.0002,-0.00058,-0.00012,-7e-05,-3e-05,6,7
32351,-1e-05,-7e-05,-0.00014,-0.00067,-0.00128,3e-05,-0.00017,1e-05,6,7
32352,-2e-05,-3e-05,2e-05,-0.00044,-0.00048,-0.00019,-0.00013,-5e-05,6,7
32353,-2e-05,-3e-05,2e-05,-0.00044,-0.00048,-0.00019,-0.00013,-5e-05,6,7
32354,-2e-05,-3e-05,2e-05,-0.00044,-0.00048,-0.00019,-0.00013,-5e-05,6,7
32355,-2e-05,-3e-05,2e-05,-0.00044,-0.00048,-0.00019,-0.00013,-5e-05,6,7
32356,-2e-05,-3e-05,2e-05,-0.00044,-0.00048,-0.00019,-0.00013,-5e-05,6,7
32357,-2e-05,-3e-05,2e-05,-0.00044,-0.00048,-0.00019,-0.00013,-5e-05,6,7
32358,-2e-05,-3e-05,2e-05,-0.00044,-0.00048,-0.00019,-0.00013,-5e-05,6,7
32359,-2e-05,-3e-05,2e-05,-0.00044,-0.00048,-0.00019,-0.00013,-5e-05,6,7
32360,-2e-05,-3e-05,2e-05,-0.00044,-0.00048,-0.00019,-0.00013,-5e-05,6,7
32361,-2e-05,-3e-05,2e-05,-0.00044,-0.00048,-0.00019,-0.00013,-5e-05,6,7
32362,-2e-05,-3e-05,2e-05,-0.00044,-0.00048,-0.00019,-0.00013,-5e-05,6,7
32363,-2e-05,-3e-05,2e-05,-0.00044,-0.00048,-0.00019,-0.00013,-5e-05,6,7
32364,-2e-05,-3e-05,2e-05,-0.00044,-0.00048,-0.00019,-0.00013,-5e-05,6,7
32365,-2e-05,-3e-05,2e-05,-0.00044,-0.00048,-0.00019,-0.00013,-5e-05,6,7
32366,-2e-05,-3e-05,2e-05,-0.00044,-0.00048,-0.00019,-0.00013,-5e-05,6,7
32367,-2e-05,-3e-05,2e-05,-0.00044,-0.00048,-0.00019,-0.00013,-5e-05,6,7
32368,-2e-05,-3e-05,2e-05,-0.00044,-0.00048,-0.00019,-0.00013,-5e-05,6,7
32369,-2e-05,-3e-05,2e-05,-0.00044,-0.00048,-0.00019,-0.00013,-5e-05,6,7
32370,-2e-05,-3e-05,2e-05,-0.00044,-0.00048,-0.00019,-0.00013,-5e-05,6,7
32371,-2e-05,-3e-05,2e-05,-0.00044,-0.00048,-0.00019,-0.00013,-5e-05,6,7
32372,-2e-05,-3e-05,2e-05,-0.00044,-0.00048,-0.00019,-0.00013,-5e-05,6,7
32373,-2e-05,-3e-05,2e-05,-0.00044,-0.00048,-0.00019,-0.00013,-5e-05,6,7
32374,3e-05,4e-05,3e-05,-7e-05,0.0001,1e-05,0.00026,3e-05,6,7
32375,-3e-05,-4e-05,-9e-05,-4e-05,-6e-05,-0.00011,-8e-05,-2e-05,6,7
32376,-3e-05,-4e-05,-9e-05,-4e-05,-6e-05,-0.00011,-8e-05,-2e-05,6,7
32377,-3e-05,-4e-05,-9e-05,-4e-05,-6e-05,-0.00011,-8e-05,-2e-05,6,7
32378,-3e-05,-4e-05,-9e-05,-4e-05,-6e-05,-0.00011,-8e-05,-2e-05,6,7
32379,-3e-05,-4e-05,-9e-05,-4e-05,-6e-05,-0.00011,-8e-05,-2e-05,6,7
32380,-3e-05,-4e-05,-9e-05,-4e-05,-6e-05,-0.00011,-8e-05,-2e-05,6,7
32381,-3e-05,-4e-05,-9e-05,-4e-05,-6e-05,-0.00011,-8e-05,-2e-05,6,7
32382,-3e-05,-4e-05,-9e-05,-4e-05,-6e-05,-0.00011,-8e-05,-2e-05,6,7
32383,-3e-05,-4e-05,-9e-05,-4e-05,-6e-05,-0.00011,-8e-05,-2e-05,6,7
32384,-3e-05,-4e-05,-9e-05,-4e-05,-6e-05,-0.00011,-8e-05,-2e-05,6,7
32385,-3e-05,-4e-05,-9e-05,-4e-05,-6e-05,-0.00011,-8e-05,-2e-05,6,7
32386,-3e-05,-4e-05,-9e-05,-4e-05,-6e-05,-0.00011,-8e-05,-2e-05,6,7
32388,-2e-05,-1e-05,0,-2e-05,-0.00038,-0.00023,-2e-05,-3e-05,6,7
32389,1e-05,2e-05,3e-05,7e-05,0.00084,0.00025,5e-05,2e-05,6,7
32390,1e-05,2e-05,3e-05,7e-05,0.00084,0.00025,5e-05,2e-05,6,7
32391,1e-05,2e-05,3e-05,7e-05,0.00084,0.00025,5e-05,2e-05,6,7
32392,1e-05,2e-05,3e-05,7e-05,0.00084,0.00025,5e-05,2e-05,6,7
32393,1e-05,2e-05,3e-05,7e-05,0.00084,0.00025,5e-05,2e-05,6,7
32394,1e-05,2e-05,3e-05,7e-05,0.00084,0.00025,5e-05,2e-05,6,7
32395,1e-05,2e-05,3e-05,7e-05,0.00084,0.00025,5e-05,2e-05,6,7
32396,1e-05,2e-05,3e-05,7e-05,0.00084,0.00025,5e-05,2e-05,6,7
32397,1e-05,2e-05,3e-05,7e-05,0.00084,0.00025,5e-05,2e-05,6,7
32398,1e-05,2e-05,3e-05,7e-05,0.00084,0.00025,5e-05,2e-05,6,7
32399,1e-05,2e-05,3e-05,7e-05,0.00084,0.00025,5e-05,2e-05,6,7
32400,1e-05,2e-05,3e-05,7e-05,0.00084,0.00025,5e-05,2e-05,6,7
32401,1e-05,2e-05,3e-05,7e-05,0.00084,0.00025,5e-05,2e-05,6,7
32402,1e-05,2e-05,3e-05,7e-05,0.00084,0.00025,5e-05,2e-05,6,7
32403,1e-05,2e-05,3e-05,7e-05,0.00084,0.00025,5e-05,2e-05,6,7
32404,1e-05,2e-05,3e-05,7e-05,0.00084,0.00025,5e-05,2e-05,6,7
32405,1e-05,2e-05,3e-05,7e-05,0.00084,0.00025,5e-05,2e-05,6,7
32406,1e-05,2e-05,3e-05,7e-05,0.00084,0.00025,5e-05,2e-05,6,7
32407,1e-05,2e-05,3e-05,7e-05,0.00084,0.00025,5e-05,2e-05,6,7
32408,1e-05,2e-05,3e-05,7e-05,0.00084,0.00025,5e-05,2e-05,6,7
32409,1e-05,2e-05,3e-05,7e-05,0.00084,0.00025,5e-05,2e-05,6,7
32410,1e-05,2e-05,3e-05,7e-05,0.00084,0.00025,5e-05,2e-05,6,7
32411,1e-05,2e-05,3e-05,7e-05,0.00084,0.00025,5e-05,2e-05,6,7
32412,1e-05,2e-05,3e-05,7e-05,0.00084,0.00025,5e-05,2e-05,6,7
32413,2e-05,5e-05,8e-05,-0.00018,0.0003,-4e-05,-4e-05,0.0002,6,7
32414,2e-05,5e-05,8e-05,-0.00018,0.0003,-4e-05,-4e-05,0.0002,6,7
32415,-4e-05,-5e-05,-0.00011,-0.00031,-0.00052,-0.00033,5e-05,-7e-05,6,7
32416,-1e-05,-4e-05,-3e-05,0.00033,0.00106,0.00045,5e-05,1e-05,6,7
32417,-1e-05,-4e-05,-3e-05,0.00033,0.00106,0.00045,5e-05,1e-05,6,7
32418,-1e-05,-4e-05,-3e-05,0.00033,0.00106,0.00045,5e-05,1e-05,6,7
32419,-1e-05,-4e-05,-3e-05,0.00033,0.00106,0.00045,5e-05,1e-05,6,7
32420,-1e-05,-4e-05,-3e-05,0.00033,0.00106,0.00045,5e-05,1e-05,6,7
32421,-1e-05,-4e-05,-3e-05,0.00033,0.00106,0.00045,5e-05,1e-05,6,7
32422,-1e-05,-4e-05,-3e-05,0.00033,0.00106,0.00045,5e-05,1e-05,6,7
32423,-1e-05,-4e-05,-3e-05,0.00033,0.00106,0.00045,5e-05,1e-05,6,7
32424,-1e-05,-4e-05,-3e-05,0.00033,0.00106,0.00045,5e-05,1e-05,6,7
32425,-1e-05,-4e-05,-3e-05,0.00033,0.00106,0.00045,5e-05,1e-05,6,7
32426,-1e-05,-4e-05,-3e-05,0.00033,0.00106,0.00045,5e-05,1e-05,6,7
32427,-1e-05,-4e-05,-3e-05,0.00033,0.00106,0.00045,5e-05,1e-05,6,7
32428,-1e-05,-4e-05,-3e-05,0.00033,0.00106,0.00045,5e-05,1e-05,6,7
32429,-1e-05,-4e-05,-3e-05,0.00033,0.00106,0.00045,5e-05,1e-05,6,7
32430,-1e-05,-4e-05,-3e-05,0.00033,0.00106,0.00045,5e-05,1e-05,6,7
32431,-1e-05,-4e-05,-3e-05,0.00033,0.00106,0.00045,5e-05,1e-05,6,7
32432,-1e-05,-4e-05,-3e-05,0.00033,0.00106,0.00045,5e-05,1e-05,6,7
32433,-1e-05,-4e-05,-3e-05,0.00033,0.00106,0.00045,5e-05,1e-05,6,7
32434,0,1e-05,1e-05,-7e-05,-0.00044,0.00012,-3e-05,-1e-05,6,7
32435,2e-05,1e-05,2e-05,0.00014,-0.00034,-0.00017,3e-05,-4e-05,6,7
32436,2e-05,1e-05,2e-05,0.00014,-0.00034,-0.00017,3e-05,-4e-05,6,7
32438,2e-05,1e-05,2e-05,0.00014,-0.00034,-0.00017,3e-05,-4e-05,6,7
32439,2e-05,1e-05,2e-05,0.00014,-0.00034,-0.00017,3e-05,-4e-05,6,7
32440,2e-05,1e-05,2e-05,0.00014,-0.00034,-0.00017,3e-05,-4e-05,6,7
32441,2e-05,1e-05,2e-05,0.00014,-0.00034,-0.00017,3e-05,-4e-05,6,7
32442,2e-05,1e-05,2e-05,0.00014,-0.00034,-0.00017,3e-05,-4e-05,6,7
32443,2e-05,1e-05,2e-05,0.00014,-0.00034,-0.00017,3e-05,-4e-05,6,7
32444,2e-05,1e-05,2e-05,0.00014,-0.00034,-0.00017,3e-05,-4e-05,6,7
32445,2e-05,1e-05,2e-05,0.00014,-0.00034,-0.00017,3e-05,-4e-05,6,7
32446,2e-05,1e-05,2e-05,0.00014,-0.00034,-0.00017,3e-05,-4e-05,6,7
32447,2e-05,1e-05,2e-05,0.00014,-0.00034,-0.00017,3e-05,-4e-05,6,7
32448,2e-05,1e-05,2e-05,0.00014,-0.00034,-0.00017,3e-05,-4e-05,6,7
32449,2e-05,1e-05,2e-05,0.00014,-0.00034,-0.00017,3e-05,-4e-05,6,7
32450,2e-05,1e-05,2e-05,0.00014,-0.00034,-0.00017,3e-05,-4e-05,6,7
32451,2e-05,1e-05,2e-05,0.00014,-0.00034,-0.00017,3e-05,-4e-05,6,7
32452,2e-05,1e-05,2e-05,0.00014,-0.00034,-0.00017,3e-05,-4e-05,6,7
32453,2e-05,1e-05,2e-05,0.00014,-0.00034,-0.00017,3e-05,-4e-05,6,7
32454,2e-05,1e-05,2e-05,0.00014,-0.00034,-0.00017,3e-05,-4e-05,6,7
32455,2e-05,1e-05,2e-05,0.00014,-0.00034,-0.00017,3e-05,-4e-05,6,7
32456,2e-05,1e-05,2e-05,0.00014,-0.00034,-0.00017,3e-05,-4e-05,6,7
32457,0,0,4e-05,-0.00024,0.00068,-2e-05,-0.0002,-4e-05,6,7
32458,-2e-05,-2e-05,-2e-05,-0.00033,-9e-05,5e-05,2e-05,-2e-05,6,7
32459,-2e-05,-2e-05,-2e-05,-0.00033,-9e-05,5e-05,2e-05,-2e-05,6,7
32460,-2e-05,-2e-05,-2e-05,-0.00033,-9e-05,5e-05,2e-05,-2e-05,6,7
32461,-2e-05,-2e-05,-2e-05,-0.00033,-9e-05,5e-05,2e-05,-2e-05,6,7
32462,-2e-05,-2e-05,-2e-05,-0.00033,-9e-05,5e-05,2e-05,-2e-05,6,7
32463,-2e-05,-2e-05,-2e-05,-0.00033,-9e-05,5e-05,2e-05,-2e-05,6,7
32464,-2e-05,-2e-05,-2e-05,-0.00033,-9e-05,5e-05,2e-05,-2e-05,6,7
32465,-2e-05,-2e-05,-2e-05,-0.00033,-9e-05,5e-05,2e-05,-2e-05,6,7
32466,-2e-05,-2e-05,-2e-05,-0.00033,-9e-05,5e-05,2e-05,-2e-05,6,7
32467,-2e-05,-2e-05,-2e-05,-0.00033,-9e-05,5e-05,2e-05,-2e-05,6,7
32468,-2e-05,-2e-05,-2e-05,-0.00033,-9e-05,5e-05,2e-05,-2e-05,6,7
32469,-2e-05,-2e-05,-2e-05,-0.00033,-9e-05,5e-05,2e-05,-2e-05,6,7
32470,-2e-05,-2e-05,-2e-05,-0.00033,-9e-05,5e-05,2e-05,-2e-05,6,7
32471,-3e-05,-2e-05,-1e-05,0,-0.00095,-0.00025,-0.00014,-4e-05,6,7
32472,-1e-05,-3e-05,-1e-05,-0.00015,0.00045,1e-05,1e-05,-1e-05,6,7
32473,-1e-05,-3e-05,-1e-05,-0.00015,0.00045,1e-05,1e-05,-1e-05,6,7
32474,-1e-05,-3e-05,-1e-05,-0.00015,0.00045,1e-05,1e-05,-1e-05,6,7
32475,-1e-05,-3e-05,-1e-05,-0.00015,0.00045,1e-05,1e-05,-1e-05,6,7
32476,-1e-05,-3e-05,-1e-05,-0.00015,0.00045,1e-05,1e-05,-1e-05,6,7
32477,-1e-05,-3e-05,-1e-05,-0.00015,0.00045,1e-05,1e-05,-1e-05,6,7
32478,-1e-05,-3e-05,-1e-05,-0.00015,0.00045,1e-05,1e-05,-1e-05,6,7
32479,-1e-05,-3e-05,-1e-05,-0.00015,0.00045,1e-05,1e-05,-1e-05,6,7
32480,-1e-05,-3e-05,-1e-05,-0.00015,0.00045,1e-05,1e-05,-1e-05,6,7
32481,-1e-05,-3e-05,-1e-05,-0.00015,0.00045,1e-05,1e-05,-1e-05,6,7
32482,-1e-05,-3e-05,-1e-05,-0.00015,0.00045,1e-05,1e-05,-1e-05,6,7
32483,-1e-05,-3e-05,-1e-05,-0.00015,0.00045,1e-05,1e-05,-1e-05,6,7
32484,-1e-05,-3e-05,-1e-05,-0.00015,0.00045,1e-05,1e-05,-1e-05,6,7
32485,-1e-05,-3e-05,-1e-05,-0.00015,0.00045,1e-05,1e-05,-1e-05,6,7
32486,-1e-05,-3e-05,-1e-05,-0.00015,0.00045,1e-05,1e-05,-1e-05,6,7
32488,-1e-05,-3e-05,-1e-05,-0.00015,0.00045,1e-05,1e-05,-1e-05,6,7
32489,-1e-05,-3e-05,-1e-05,-0.00015,0.00045,1e-05,1e-05,-1e-05,6,7
32490,-1e-05,-3e-05,-1e-05,-0.00015,0.00045,1e-05,1e-05,-1e-05,6,7
32491,-1e-05,-3e-05,-1e-05,-0.00015,0.00045,1e-05,1e-05,-1e-05,6,7
32492,-1e-05,-3e-05,-1e-05,-0.00015,0.00045,1e-05,1e-05,-1e-05,6,7
32493,-1e-05,-3e-05,-1e-05,-0.00015,0.00045,1e-05,1e-05,-1e-05,6,7
32494,-1e-05,4e-05,4e-05,4e-05,-0.00037,-0.00013,0.00018,0,6,7
32495,0,0,3e-05,0.00016,0.00036,-0.0003,-0.00015,-7e-05,6,7
32496,0,0,3e-05,0.00016,0.00036,-0.0003,-0.00015,-7e-05,6,7
32497,0,0,3e-05,0.00016,0.00036,-0.0003,-0.00015,-7e-05,6,7
32498,0,0,3e-05,0.00016,0.00036,-0.0003,-0.00015,-7e-05,6,7
32499,0,0,3e-05,0.00016,0.00036,-0.0003,-0.00015,-7e-05,6,7
32500,0,0,3e-05,0.00016,0.00036,-0.0003,-0.00015,-7e-05,6,7
32501,0,0,3e-05,0.00016,0.00036,-0.0003,-0.00015,-7e-05,6,7
32502,0,0,3e-05,0.00016,0.00036,-0.0003,-0.00015,-7e-05,6,7
32503,0,0,3e-05,0.00016,0.00036,-0.0003,-0.00015,-7e-05,6,7
32504,0,0,3e-05,0.00016,0.00036,-0.0003,-0.00015,-7e-05,6,7
32505,0,0,3e-05,0.00016,0.00036,-0.0003,-0.00015,-7e-05,6,7
32506,0,0,3e-05,0.00016,0.00036,-0.0003,-0.00015,-7e-05,6,7
32507,0,0,3e-05,0.00016,0.00036,-0.0003,-0.00015,-7e-05,6,7
32508,0,0,3e-05,0.00016,0.00036,-0.0003,-0.00015,-7e-05,6,7
32509,0,0,3e-05,0.00016,0.00036,-0.0003,-0.00015,-7e-05,6,7
32510,0,0,3e-05,0.00016,0.00036,-0.0003,-0.00015,-7e-05,6,7
32511,0,0,3e-05,0.00016,0.00036,-0.0003,-0.00015,-7e-05,6,7
32512,0,0,3e-05,0.00016,0.00036,-0.0003,-0.00015,-7e-05,6,7
32513,0,0,3e-05,0.00016,0.00036,-0.0003,-0.00015,-7e-05,6,7
32514,0,0,3e-05,0.00016,0.00036,-0.0003,-0.00015,-7e-05,6,7
32515,0,0,3e-05,0.00016,0.00036,-0.0003,-0.00015,-7e-05,6,7
32516,0,0,3e-05,0.00016,0.00036,-0.0003,-0.00015,-7e-05,6,7
32517,0,-2e-05,-4e-05,0,6e-05,6e-05,-3e-05,1e-05,6,7
32518,3e-05,6e-05,7e-05,-1e-05,0.00077,-2e-05,-0.00013,-0.0002,6,7
32519,3e-05,6e-05,7e-05,-1e-05,0.00077,-2e-05,-0.00013,-0.0002,6,7
32520,3e-05,6e-05,7e-05,-1e-05,0.00077,-2e-05,-0.00013,-0.0002,6,7
32521,3e-05,6e-05,7e-05,-1e-05,0.00077,-2e-05,-0.00013,-0.0002,6,7
32522,3e-05,6e-05,7e-05,-1e-05,0.00077,-2e-05,-0.00013,-0.0002,6,7
32523,3e-05,6e-05,7e-05,-1e-05,0.00077,-2e-05,-0.00013,-0.0002,6,7
32524,3e-05,6e-05,7e-05,-1e-05,0.00077,-2e-05,-0.00013,-0.0002,6,7
32525,3e-05,6e-05,7e-05,-1e-05,0.00077,-2e-05,-0.00013,-0.0002,6,7
32526,3e-05,6e-05,7e-05,-1e-05,0.00077,-2e-05,-0.00013,-0.0002,6,7
32527,3e-05,6e-05,7e-05,-1e-05,0.00077,-2e-05,-0.00013,-0.0002,6,7
32528,3e-05,6e-05,7e-05,-1e-05,0.00077,-2e-05,-0.00013,-0.0002,6,7
32529,3e-05,6e-05,7e-05,-1e-05,0.00077,-2e-05,-0.00013,-0.0002,6,7
32530,3e-05,6e-05,7e-05,-1e-05,0.00077,-2e-05,-0.00013,-0.0002,6,7
32531,3e-05,6e-05,7e-05,-1e-05,0.00077,-2e-05,-0.00013,-0.0002,6,7
32532,3e-05,6e-05,7e-05,-1e-05,0.00077,-2e-05,-0.00013,-0.0002,6,7
32533,3e-05,6e-05,7e-05,-1e-05,0.00077,-2e-05,-0.00013,-0.0002,6,7
32534,3e-05,6e-05,7e-05,-1e-05,0.00077,-2e-05,-0.00013,-0.0002,6,7
32535,3e-05,6e-05,7e-05,-1e-05,0.00077,-2e-05,-0.00013,-0.0002,6,7
32536,3e-05,6e-05,7e-05,-1e-05,0.00077,-2e-05,-0.00013,-0.0002,6,7
32538,3e-05,6e-05,7e-05,-1e-05,0.00077,-2e-05,-0.00013,-0.0002,6,7
32539,-5e-05,-4e-05,-2e-05,0.00029,-0.00085,-0.00013,7e-05,-1e-05,6,7
32540,-1e-05,-2e-05,-0.0001,0.00011,-0.00033,-5e-05,0.00015,6e-05,6,7
32541,-1e-05,-2e-05,-0.0001,0.00011,-0.00033,-5e-05,0.00015,6e-05,6,7
32542,-1e-05,-2e-05,-0.0001,0.00011,-0.00033,-5e-05,0.00015,6e-05,6,7
32543,-1e-05,-2e-05,-0.0001,0.00011,-0.00033,-5e-05,0.00015,6e-05,6,7
32544,-1e-05,-2e-05,-0.0001,0.00011,-0.00033,-5e-05,0.00015,6e-05,6,7
32545,-1e-05,-2e-05,-0.0001,0.00011,-0.00033,-5e-05,0.00015,6e-05,6,7
32546,-1e-05,-2e-05,-0.0001,0.00011,-0.00033,-5e-05,0.00015,6e-05,6,7
32547,-1e-05,-2e-05,-0.0001,0.00011,-0.00033,-5e-05,0.00015,6e-05,6,7
32548,-1e-05,-2e-05,-0.0001,0.00011,-0.00033,-5e-05,0.00015,6e-05,6,7
32549,-1e-05,-2e-05,-0.0001,0.00011,-0.00033,-5e-05,0.00015,6e-05,6,7
32550,-1e-05,-2e-05,-0.0001,0.00011,-0.00033,-5e-05,0.00015,6e-05,6,7
32551,-1e-05,-2e-05,-0.0001,0.00011,-0.00033,-5e-05,0.00015,6e-05,6,7
32552,-1e-05,-2e-05,-0.0001,0.00011,-0.00033,-5e-05,0.00015,6e-05,6,7
32553,-1e-05,-2e-05,-0.0001,0.00011,-0.00033,-5e-05,0.00015,6e-05,6,7
32554,-2e-05,-4e-05,2e-05,9e-05,0.00054,7e-05,8e-05,3e-05,6,7
32555,-2e-05,-4e-05,2e-05,9e-05,0.00054,7e-05,8e-05,3e-05,6,7
32556,-2e-05,-4e-05,2e-05,9e-05,0.00054,7e-05,8e-05,3e-05,6,7
32557,-2e-05,-4e-05,2e-05,9e-05,0.00054,7e-05,8e-05,3e-05,6,7
32558,-2e-05,-4e-05,2e-05,9e-05,0.00054,7e-05,8e-05,3e-05,6,7
32559,-2e-05,-4e-05,2e-05,9e-05,0.00054,7e-05,8e-05,3e-05,6,7
32560,-2e-05,-4e-05,2e-05,9e-05,0.00054,7e-05,8e-05,3e-05,6,7
32561,-2e-05,-4e-05,2e-05,9e-05,0.00054,7e-05,8e-05,3e-05,6,7
32562,-2e-05,-4e-05,2e-05,9e-05,0.00054,7e-05,8e-05,3e-05,6,7
32563,-2e-05,-4e-05,2e-05,9e-05,0.00054,7e-05,8e-05,3e-05,6,7
32564,-2e-05,-4e-05,2e-05,9e-05,0.00054,7e-05,8e-05,3e-05,6,7
32565,-2e-05,-4e-05,2e-05,9e-05,0.00054,7e-05,8e-05,3e-05,6,7
32566,-2e-05,-4e-05,2e-05,9e-05,0.00054,7e-05,8e-05,3e-05,6,7
32567,-2e-05,-4e-05,2e-05,9e-05,0.00054,7e-05,8e-05,3e-05,6,7
32568,-2e-05,-4e-05,2e-05,9e-05,0.00054,7e-05,8e-05,3e-05,6,7
32569,-2e-05,-4e-05,2e-05,9e-05,0.00054,7e-05,8e-05,3e-05,6,7
32570,0,3e-05,-4e-05,-0.0002,0.00014,-0.00027,-6e-05,1e-05,6,7
32571,0,3e-05,-4e-05,-0.0002,0.00014,-0.00027,-6e-05,1e-05,6,7
32572,0,3e-05,-4e-05,-0.0002,0.00014,-0.00027,-6e-05,1e-05,6,7
32573,0,3e-05,-4e-05,-0.0002,0.00014,-0.00027,-6e-05,1e-05,6,7
32574,0,3e-05,-4e-05,-0.0002,0.00014,-0.00027,-6e-05,1e-05,6,7
32575,0,3e-05,-4e-05,-0.0002,0.00014,-0.00027,-6e-05,1e-05,6,7
32576,-1e-05,-2e-05,-8e-05,1e-05,-0.00109,-0.00019,-0.00011,0,6,7
32577,-1e-05,-2e-05,-8e-05,1e-05,-0.00109,-0.00019,-0.00011,0,6,7
32578,-1e-05,-2e-05,-8e-05,1e-05,-0.00109,-0.00019,-0.00011,0,6,7
32579,-1e-05,-2e-05,-8e-05,1e-05,-0.00109,-0.00019,-0.00011,0,6,7
32580,-1e-05,-2e-05,-8e-05,1e-05,-0.00109,-0.00019,-0.00011,0,6,7
32581,-1e-05,-2e-05,-8e-05,1e-05,-0.00109,-0.00019,-0.00011,0,6,7
32582,-1e-05,-2e-05,-8e-05,1e-05,-0.00109,-0.00019,-0.00011,0,6,7
32583,-1e-05,-2e-05,-8e-05,1e-05,-0.00109,-0.00019,-0.00011,0,6,7
32584,-1e-05,-2e-05,-8e-05,1e-05,-0.00109,-0.00019,-0.00011,0,6,7
32585,-1e-05,-2e-05,-8e-05,1e-05,-0.00109,-0.00019,-0.00011,0,6,7
32586,-1e-05,-2e-05,-8e-05,1e-05,-0.00109,-0.00019,-0.00011,0,6,7
32588,-1e-05,-2e-05,-8e-05,1e-05,-0.00109,-0.00019,-0.00011,0,6,7
32589,-1e-05,-2e-05,-8e-05,1e-05,-0.00109,-0.00019,-0.00011,0,6,7
32590,-1e-05,-2e-05,-8e-05,1e-05,-0.00109,-0.00019,-0.00011,0,6,7
32591,-1e-05,-2e-05,-8e-05,1e-05,-0.00109,-0.00019,-0.00011,0,6,7
32592,-1e-05,-2e-05,-8e-05,1e-05,-0.00109,-0.00019,-0.00011,0,6,7
32593,-1e-05,-2e-05,-8e-05,1e-05,-0.00109,-0.00019,-0.00011,0,6,7
32594,-1e-05,-2e-05,-8e-05,1e-05,-0.00109,-0.00019,-0.00011,0,6,7
32595,-1e-05,-2e-05,-8e-05,1e-05,-0.00109,-0.00019,-0.00011,0,6,7
32596,-1e-05,-2e-05,-8e-05,1e-05,-0.00109,-0.00019,-0.00011,0,6,7
32597,-1e-05,-2e-05,-8e-05,1e-05,-0.00109,-0.00019,-0.00011,0,6,7
32598,-1e-05,-2e-05,-8e-05,1e-05,-0.00109,-0.00019,-0.00011,0,6,7
32599,-1e-05,-2e-05,-8e-05,1e-05,-0.00109,-0.00019,-0.00011,0,6,7
32600,-1e-05,-3e-05,0,-0.0001,-0.00029,0.00012,1e-05,-3e-05,6,7
32601,3e-05,6e-05,0.00011,4e-05,-0.00085,-0.00024,4e-05,2e-05,6,7
32602,3e-05,6e-05,0.00011,4e-05,-0.00085,-0.00024,4e-05,2e-05,6,7
32603,3e-05,6e-05,0.00011,4e-05,-0.00085,-0.00024,4e-05,2e-05,6,7
32604,3e-05,6e-05,0.00011,4e-05,-0.00085,-0.00024,4e-05,2e-05,6,7
32605,3e-05,6e-05,0.00011,4e-05,-0.00085,-0.00024,4e-05,2e-05,6,7
32606,3e-05,6e-05,0.00011,4e-05,-0.00085,-0.00024,4e-05,2e-05,6,7
32607,3e-05,6e-05,0.00011,4e-05,-0.00085,-0.00024,4e-05,2e-05,6,7
32608,3e-05,6e-05,0.00011,4e-05,-0.00085,-0.00024,4e-05,2e-05,6,7
32609,3e-05,6e-05,0.00011,4e-05,-0.00085,-0.00024,4e-05,2e-05,6,7
32610,3e-05,6e-05,0.00011,4e-05,-0.00085,-0.00024,4e-05,2e-05,6,7
32611,3e-05,6e-05,0.00011,4e-05,-0.00085,-0.00024,4e-05,2e-05,6,7
32612,3e-05,6e-05,0.00011,4e-05,-0.00085,-0.00024,4e-05,2e-05,6,7
32613,3e-05,6e-05,0.00011,4e-05,-0.00085,-0.00024,4e-05,2e-05,6,7
32614,3e-05,6e-05,0.00011,4e-05,-0.00085,-0.00024,4e-05,2e-05,6,7
32615,3e-05,6e-05,0.00011,4e-05,-0.00085,-0.00024,4e-05,2e-05,6,7
32616,3e-05,6e-05,0.00011,4e-05,-0.00085,-0.00024,4e-05,2e-05,6,7
32617,3e-05,6e-05,0.00011,4e-05,-0.00085,-0.00024,4e-05,2e-05,6,7
32618,3e-05,6e-05,0.00011,4e-05,-0.00085,-0.00024,4e-05,2e-05,6,7
32619,3e-05,6e-05,0.00011,4e-05,-0.00085,-0.00024,4e-05,2e-05,6,7
32620,3e-05,6e-05,0.00011,4e-05,-0.00085,-0.00024,4e-05,2e-05,6,7
32621,3e-05,6e-05,0.00011,4e-05,-0.00085,-0.00024,4e-05,2e-05,6,7
32622,1e-05,1e-05,4e-05,0.00015,-0.00046,8e-05,0.00023,3e-05,6,7
32623,-1e-05,-1e-05,-1e-05,3e-05,-7e-05,9e-05,-2e-05,3e-05,6,7
32624,-1e-05,-1e-05,-1e-05,3e-05,-7e-05,9e-05,-2e-05,3e-05,6,7
32625,-1e-05,-1e-05,-1e-05,3e-05,-7e-05,9e-05,-2e-05,3e-05,6,7
32626,-1e-05,-1e-05,-1e-05,3e-05,-7e-05,9e-05,-2e-05,3e-05,6,7
32627,-1e-05,-1e-05,-1e-05,3e-05,-7e-05,9e-05,-2e-05,3e-05,6,7
32628,2e-05,0,-6e-05,-0.00017,6e-05,-0.00011,-2e-05,1e-05,6,7
32629,2e-05,0,-6e-05,-0.00017,6e-05,-0.00011,-2e-05,1e-05,6,7
32630,2e-05,0,-6e-05,-0.00017,6e-05,-0.00011,-2e-05,1e-05,6,7
32631,2e-05,0,-6e-05,-0.00017,6e-05,-0.00011,-2e-05,1e-05,6,7
32632,2e-05,0,-6e-05,-0.00017,6e-05,-0.00011,-2e-05,1e-05,6,7
32633,2e-05,0,-6e-05,-0.00017,6e-05,-0.00011,-2e-05,1e-05,6,7
32634,2e-05,0,-6e-05,-0.00017,6e-05,-0.00011,-2e-05,1e-05,6,7
32635,2e-05,0,-6e-05,-0.00017,6e-05,-0.00011,-2e-05,1e-05,6,7
32636,-4e-05,-5e-05,-7e-05,-0.00037,-5e-05,-9e-05,-2e-05,-3e-05,6,7
32638,-4e-05,-5e-05,-7e-05,-0.00037,-5e-05,-9e-05,-2e-05,-3e-05,6,7
32639,-4e-05,-5e-05,-7e-05,-0.00037,-5e-05,-9e-05,-2e-05,-3e-05,6,7
32640,-4e-05,-5e-05,-7e-05,-0.00037,-5e-05,-9e-05,-2e-05,-3e-05,6,7
32641,-4e-05,-5e-05,-7e-05,-0.00037,-5e-05,-9e-05,-2e-05,-3e-05,6,7
32642,-4e-05,-5e-05,-7e-05,-0.00037,-5e-05,-9e-05,-2e-05,-3e-05,6,7
32643,-4e-05,-5e-05,-7e-05,-0.00037,-5e-05,-9e-05,-2e-05,-3e-05,6,7
32644,-4e-05,-5e-05,-7e-05,-0.00037,-5e-05,-9e-05,-2e-05,-3e-05,6,7
32645,-4e-05,-5e-05,-7e-05,-0.00037,-5e-05,-9e-05,-2e-05,-3e-05,6,7
32646,-4e-05,-5e-05,-7e-05,-0.00037,-5e-05,-9e-05,-2e-05,-3e-05,6,7
32647,-4e-05,-5e-05,-7e-05,-0.00037,-5e-05,-9e-05,-2e-05,-3e-05,6,7
32648,-4e-05,-5e-05,-7e-05,-0.00037,-5e-05,-9e-05,-2e-05,-3e-05,6,7
32649,-4e-05,-5e-05,-7e-05,-0.00037,-5e-05,-9e-05,-2e-05,-3e-05,6,7
32650,-4e-05,-5e-05,-7e-05,-0.00037,-5e-05,-9e-05,-2e-05,-3e-05,6,7
32651,-4e-05,-5e-05,-7e-05,-0.00037,-5e-05,-9e-05,-2e-05,-3e-05,6,7
32652,-4e-05,-5e-05,-7e-05,-0.00037,-5e-05,-9e-05,-2e-05,-3e-05,6,7
32653,-1e-05,0,1e-05,0.0002,-0.00023,0.00017,-0.00027,0,6,7
32654,-4e-05,-4e-05,-0.0001,5e-05,0.00095,0,-1e-05,-3e-05,6,7
32655,-4e-05,-4e-05,-0.0001,5e-05,0.00095,0,-1e-05,-3e-05,6,7
32656,-4e-05,-4e-05,-0.0001,5e-05,0.00095,0,-1e-05,-3e-05,6,7
32657,-4e-05,-4e-05,-0.0001,5e-05,0.00095,0,-1e-05,-3e-05,6,7
32658,-4e-05,-4e-05,-0.0001,5e-05,0.00095,0,-1e-05,-3e-05,6,7
32659,-4e-05,-4e-05,-0.0001,5e-05,0.00095,0,-1e-05,-3e-05,6,7
32660,-4e-05,-4e-05,-0.0001,5e-05,0.00095,0,-1e-05,-3e-05,6,7
32661,-4e-05,-4e-05,-0.0001,5e-05,0.00095,0,-1e-05,-3e-05,6,7
32662,-4e-05,-4e-05,-0.0001,5e-05,0.00095,0,-1e-05,-3e-05,6,7
32663,-4e-05,-4e-05,-0.0001,5e-05,0.00095,0,-1e-05,-3e-05,6,7
32664,-4e-05,-4e-05,-0.0001,5e-05,0.00095,0,-1e-05,-3e-05,6,7
32665,-4e-05,-4e-05,-0.0001,5e-05,0.00095,0,-1e-05,-3e-05,6,7
32666,-4e-05,-4e-05,-0.0001,5e-05,0.00095,0,-1e-05,-3e-05,6,7
32667,-4e-05,-4e-05,-0.0001,5e-05,0.00095,0,-1e-05,-3e-05,6,7
32668,-4e-05,-4e-05,-0.0001,5e-05,0.00095,0,-1e-05,-3e-05,6,7
32669,-4e-05,-4e-05,-0.0001,5e-05,0.00095,0,-1e-05,-3e-05,6,7
32670,-4e-05,-4e-05,-0.0001,5e-05,0.00095,0,-1e-05,-3e-05,6,7
32671,-4e-05,-4e-05,-0.0001,5e-05,0.00095,0,-1e-05,-3e-05,6,7
32672,-4e-05,-4e-05,-0.0001,5e-05,0.00095,0,-1e-05,-3e-05,6,7
32673,-4e-05,-4e-05,-0.0001,5e-05,0.00095,0,-1e-05,-3e-05,6,7
32674,-4e-05,-4e-05,-0.0001,5e-05,0.00095,0,-1e-05,-3e-05,6,7
32675,-4e-05,-4e-05,-0.0001,5e-05,0.00095,0,-1e-05,-3e-05,6,7
32676,-4e-05,-4e-05,-0.0001,5e-05,0.00095,0,-1e-05,-3e-05,6,7
32677,-4e-05,-4e-05,-0.0001,5e-05,0.00095,0,-1e-05,-3e-05,6,7
32678,-4e-05,-4e-05,-0.0001,5e-05,0.00095,0,-1e-05,-3e-05,6,7
32679,-4e-05,-4e-05,-0.0001,5e-05,0.00095,0,-1e-05,-3e-05,6,7
32680,-4e-05,-4e-05,-0.0001,5e-05,0.00095,0,-1e-05,-3e-05,6,7
32681,-4e-05,-4e-05,-0.0001,5e-05,0.00095,0,-1e-05,-3e-05,6,7
32682,-1e-05,-2e-05,2e-05,-4e-05,-0.00012,-4e-05,0.00019,0.00015,6,7
32683,1e-05,2e-05,3e-05,0.00025,-0.00018,0.00016,3e-05,2e-05,6,7
32684,1e-05,2e-05,3e-05,0.00025,-0.00018,0.00016,3e-05,2e-05,6,7
32685,1e-05,2e-05,3e-05,0.00025,-0.00018,0.00016,3e-05,2e-05,6,7
32686,1e-05,2e-05,3e-05,0.00025,-0.00018,0.00016,3e-05,2e-05,6,7
32688,1e-05,2e-05,3e-05,0.00025,-0.00018,0.00016,3e-05,2e-05,6,7
32689,1e-05,2e-05,3e-05,0.00025,-0.00018,0.00016,3e-05,2e-05,6,7
32690,1e-05,2e-05,3e-05,0.00025,-0.00018,0.00016,3e-05,2e-05,6,7
32691,1e-05,2e-05,3e-05,0.00025,-0.00018,0.00016,3e-05,2e-05,6,7
32692,1e-05,2e-05,3e-05,0.00025,-0.00018,0.00016,3e-05,2e-05,6,7
32693,1e-05,2e-05,3e-05,0.00025,-0.00018,0.00016,3e-05,2e-05,6,7
32694,1e-05,2e-05,3e-05,0.00025,-0.00018,0.00016,3e-05,2e-05,6,7
32695,1e-05,2e-05,3e-05,0.00025,-0.00018,0.00016,3e-05,2e-05,6,7
32696,1e-05,2e-05,3e-05,0.00025,-0.00018,0.00016,3e-05,2e-05,6,7
32697,1e-05,2e-05,3e-05,0.00025,-0.00018,0.00016,3e-05,2e-05,6,7
32698,1e-05,2e-05,3e-05,0.00025,-0.00018,0.00016,3e-05,2e-05,6,7
32699,1e-05,2e-05,3e-05,0.00025,-0.00018,0.00016,3e-05,2e-05,6,7
32700,1e-05,2e-05,3e-05,0.00025,-0.00018,0.00016,3e-05,2e-05,6,7
32701,1e-05,2e-05,3e-05,0.00025,-0.00018,0.00016,3e-05,2e-05,6,7
32702,1e-05,2e-05,3e-05,0.00025,-0.00018,0.00016,3e-05,2e-05,6,7
32703,1e-05,2e-05,3e-05,0.00025,-0.00018,0.00016,3e-05,2e-05,6,7
32704,1e-05,2e-05,4e-05,-6e-05,0.00032,-7e-05,-0.00024,-2e-05,6,7
32705,0,0,-2e-05,-0.00025,-8e-05,-0.00015,5e-05,-2e-05,6,7
32706,0,0,-2e-05,-0.00025,-8e-05,-0.00015,5e-05,-2e-05,6,7
32707,0,0,-2e-05,-0.00025,-8e-05,-0.00015,5e-05,-2e-05,6,7
32708,0,0,-2e-05,-0.00025,-8e-05,-0.00015,5e-05,-2e-05,6,7
32709,0,0,-2e-05,-0.00025,-8e-05,-0.00015,5e-05,-2e-05,6,7
32710,0,0,-2e-05,-0.00025,-8e-05,-0.00015,5e-05,-2e-05,6,7
32711,0,0,-2e-05,-0.00025,-8e-05,-0.00015,5e-05,-2e-05,6,7
32712,3e-05,5e-05,8e-05,0.00016,0.00077,0.00015,0.00022,5e-05,6,7
32713,3e-05,5e-05,8e-05,0.00016,0.00077,0.00015,0.00022,5e-05,6,7
32714,3e-05,5e-05,8e-05,0.00016,0.00077,0.00015,0.00022,5e-05,6,7
32715,3e-05,5e-05,8e-05,0.00016,0.00077,0.00015,0.00022,5e-05,6,7
32716,3e-05,5e-05,8e-05,0.00016,0.00077,0.00015,0.00022,5e-05,6,7
32717,3e-05,5e-05,8e-05,0.00016,0.00077,0.00015,0.00022,5e-05,6,7
32718,3e-05,5e-05,8e-05,0.00016,0.00077,0.00015,0.00022,5e-05,6,7
32719,3e-05,5e-05,8e-05,0.00016,0.00077,0.00015,0.00022,5e-05,6,7
32720,3e-05,5e-05,8e-05,0.00016,0.00077,0.00015,0.00022,5e-05,6,7
32721,3e-05,5e-05,8e-05,0.00016,0.00077,0.00015,0.00022,5e-05,6,7
32722,3e-05,5e-05,8e-05,0.00016,0.00077,0.00015,0.00022,5e-05,6,7
32723,3e-05,5e-05,8e-05,0.00016,0.00077,0.00015,0.00022,5e-05,6,7
32724,3e-05,5e-05,8e-05,0.00016,0.00077,0.00015,0.00022,5e-05,6,7
32725,3e-05,5e-05,8e-05,0.00016,0.00077,0.00015,0.00022,5e-05,6,7
32726,3e-05,5e-05,8e-05,0.00016,0.00077,0.00015,0.00022,5e-05,6,7
32727,3e-05,5e-05,8e-05,0.00016,0.00077,0.00015,0.00022,5e-05,6,7
32728,3e-05,5e-05,8e-05,0.00016,0.00077,0.00015,0.00022,5e-05,6,7
32729,3e-05,5e-05,8e-05,0.00016,0.00077,0.00015,0.00022,5e-05,6,7
32730,3e-05,5e-05,8e-05,0.00016,0.00077,0.00015,0.00022,5e-05,6,7
32731,3e-05,5e-05,8e-05,0.00016,0.00077,0.00015,0.00022,5e-05,6,7
32732,3e-05,5e-05,8e-05,0.00016,0.00077,0.00015,0.00022,5e-05,6,7
32733,3e-05,5e-05,8e-05,0.00016,0.00077,0.00015,0.00022,5e-05,6,7
32734,0,0,-1e-05,3e-05,0.0005,9e-05,3e-05,-5e-05,6,7
32735,-4e-05,-8e-05,-7e-05,-0.00011,-0.00081,-0.0001,2e-05,-4e-05,6,7
32736,-4e-05,-8e-05,-7e-05,-0.00011,-0.00081,-0.0001,2e-05,-4e-05,6,7
32738,-4e-05,-8e-05,-7e-05,-0.00011,-0.00081,-0.0001,2e-05,-4e-05,6,7
32739,-4e-05,-8e-05,-7e-05,-0.00011,-0.00081,-0.0001,2e-05,-4e-05,6,7
32740,-4e-05,-8e-05,-7e-05,-0.00011,-0.00081,-0.0001,2e-05,-4e-05,6,7
32741,-4e-05,-8e-05,-7e-05,-0.00011,-0.00081,-0.0001,2e-05,-4e-05,6,7
32742,-4e-05,-8e-05,-7e-05,-0.00011,-0.00081,-0.0001,2e-05,-4e-05,6,7
32743,-4e-05,-8e-05,-7e-05,-0.00011,-0.00081,-0.0001,2e-05,-4e-05,6,7
32744,-4e-05,-8e-05,-7e-05,-0.00011,-0.00081,-0.0001,2e-05,-4e-05,6,7
32745,-4e-05,-8e-05,-7e-05,-0.00011,-0.00081,-0.0001,2e-05,-4e-05,6,7
32746,-4e-05,-8e-05,-7e-05,-0.00011,-0.00081,-0.0001,2e-05,-4e-05,6,7
32747,-4e-05,-8e-05,-7e-05,-0.00011,-0.00081,-0.0001,2e-05,-4e-05,6,7
32748,-4e-05,-8e-05,-7e-05,-0.00011,-0.00081,-0.0001,2e-05,-4e-05,6,7
32749,-4e-05,-8e-05,-7e-05,-0.00011,-0.00081,-0.0001,2e-05,-4e-05,6,7
32750,-4e-05,-8e-05,-7e-05,-0.00011,-0.00081,-0.0001,2e-05,-4e-05,6,7
32751,-4e-05,-8e-05,-7e-05,-0.00011,-0.00081,-0.0001,2e-05,-4e-05,6,7
32752,-4e-05,-8e-05,-7e-05,-0.00011,-0.00081,-0.0001,2e-05,-4e-05,6,7
32753,-4e-05,-8e-05,-7e-05,-0.00011,-0.00081,-0.0001,2e-05,-4e-05,6,7
32754,-4e-05,-8e-05,-7e-05,-0.00011,-0.00081,-0.0001,2e-05,-4e-05,6,7
32755,-4e-05,-8e-05,-7e-05,-0.00011,-0.00081,-0.0001,2e-05,-4e-05,6,7
32756,-4e-05,-8e-05,-7e-05,-0.00011,-0.00081,-0.0001,2e-05,-4e-05,6,7
32757,-4e-05,-8e-05,-7e-05,-0.00011,-0.00081,-0.0001,2e-05,-4e-05,6,7
32758,-4e-05,-8e-05,-7e-05,-0.00011,-0.00081,-0.0001,2e-05,-4e-05,6,7
32759,-4e-05,-8e-05,-7e-05,-0.00011,-0.00081,-0.0001,2e-05,-4e-05,6,7
32760,-4e-05,-8e-05,-7e-05,-0.00011,-0.00081,-0.0001,2e-05,-4e-05,6,7
32761,-4e-05,-8e-05,-7e-05,-0.00011,-0.00081,-0.0001,2e-05,-4e-05,6,7
32762,-4e-05,-8e-05,-7e-05,-0.00011,-0.00081,-0.0001,2e-05,-4e-05,6,7
32763,-4e-05,-8e-05,-7e-05,-0.00011,-0.00081,-0.0001,2e-05,-4e-05,6,7
32764,-6e-05,-4e-05,-5e-05,-0.00033,-0.00063,-0.00018,-6e-05,-6e-05,6,7
32765,1e-05,0,-1e-05,0.00026,0.00048,6e-05,-0.00011,0,6,7
32766,1e-05,0,-1e-05,0.00026,0.00048,6e-05,-0.00011,0,6,7
32767,1e-05,0,-1e-05,0.00026,0.00048,6e-05,-0.00011,0,6,7
32768,1e-05,0,-1e-05,0.00026,0.00048,6e-05,-0.00011,0,6,7
32769,1e-05,0,-1e-05,0.00026,0.00048,6e-05,-0.00011,0,6,7
32770,1e-05,0,-1e-05,0.00026,0.00048,6e-05,-0.00011,0,6,7
32771,-3e-05,-6e-05,-3e-05,6e-05,-9e-05,-0.0001,-3e-05,-5e-05,6,7
32772,-7e-05,-6e-05,-6e-05,0.00014,8e-05,-8e-05,-0.00029,-8e-05,6,7
32773,-7e-05,-6e-05,-6e-05,0.00014,8e-05,-8e-05,-0.00029,-8e-05,6,7
32774,-7e-05,-6e-05,-6e-05,0.00014,8e-05,-8e-05,-0.00029,-8e-05,6,7
32775,-7e-05,-6e-05,-6e-05,0.00014,8e-05,-8e-05,-0.00029,-8e-05,6,7
32776,-7e-05,-6e-05,-6e-05,0.00014,8e-05,-8e-05,-0.00029,-8e-05,6,7
32777,-7e-05,-6e-05,-6e-05,0.00014,8e-05,-8e-05,-0.00029,-8e-05,6,7
32778,-7e-05,-6e-05,-6e-05,0.00014,8e-05,-8e-05,-0.00029,-8e-05,6,7
32779,-7e-05,-6e-05,-6e-05,0.00014,8e-05,-8e-05,-0.00029,-8e-05,6,7
32780,-7e-05,-6e-05,-6e-05,0.00014,8e-05,-8e-05,-0.00029,-8e-05,6,7
32781,-7e-05,-6e-05,-6e-05,0.00014,8e-05,-8e-05,-0.00029,-8e-05,6,7
32782,-7e-05,-6e-05,-6e-05,0.00014,8e-05,-8e-05,-0.00029,-8e-05,6,7
32783,-7e-05,-6e-05,-6e-05,0.00014,8e-05,-8e-05,-0.00029,-8e-05,6,7
32784,-7e-05,-6e-05,-6e-05,0.00014,8e-05,-8e-05,-0.00029,-8e-05,6,7
32785,-7e-05,-6e-05,-6e-05,0.00014,8e-05,-8e-05,-0.00029,-8e-05,6,7
32786,-7e-05,-6e-05,-6e-05,0.00014,8e-05,-8e-05,-0.00029,-8e-05,6,7
32788,-7e-05,-6e-05,-6e-05,0.00014,8e-05,-8e-05,-0.00029,-8e-05,6,7
32789,-7e-05,-6e-05,-6e-05,0.00014,8e-05,-8e-05,-0.00029,-8e-05,6,7
32790,-7e-05,-6e-05,-6e-05,0.00014,8e-05,-8e-05,-0.00029,-8e-05,6,7
32791,-7e-05,-6e-05,-6e-05,0.00014,8e-05,-8e-05,-0.00029,-8e-05,6,7
32792,-7e-05,-6e-05,-6e-05,0.00014,8e-05,-8e-05,-0.00029,-8e-05,6,7
32793,-7e-05,-6e-05,-6e-05,0.00014,8e-05,-8e-05,-0.00029,-8e-05,6,7
32794,0,2e-05,4e-05,0.00015,0.00016,0.00018,2e-05,-2e-05,6,7
32795,0,1e-05,3e-05,0.00015,-8e-05,-0.00015,-6e-05,-2e-05,6,7
32796,0,1e-05,3e-05,0.00015,-8e-05,-0.00015,-6e-05,-2e-05,6,7
32797,0,1e-05,3e-05,0.00015,-8e-05,-0.00015,-6e-05,-2e-05,6,7
32798,0,1e-05,3e-05,0.00015,-8e-05,-0.00015,-6e-05,-2e-05,6,7
32799,0,1e-05,3e-05,0.00015,-8e-05,-0.00015,-6e-05,-2e-05,6,7
32800,0,1e-05,3e-05,0.00015,-8e-05,-0.00015,-6e-05,-2e-05,6,7
32801,0,1e-05,3e-05,0.00015,-8e-05,-0.00015,-6e-05,-2e-05,6,7
32802,0,1e-05,3e-05,0.00015,-8e-05,-0.00015,-6e-05,-2e-05,6,7
32803,0,1e-05,3e-05,0.00015,-8e-05,-0.00015,-6e-05,-2e-05,6,7
32804,0,1e-05,3e-05,0.00015,-8e-05,-0.00015,-6e-05,-2e-05,6,7
32805,0,1e-05,3e-05,0.00015,-8e-05,-0.00015,-6e-05,-2e-05,6,7
32806,0,1e-05,3e-05,0.00015,-8e-05,-0.00015,-6e-05,-2e-05,6,7
32807,0,1e-05,3e-05,0.00015,-8e-05,-0.00015,-6e-05,-2e-05,6,7
32808,0,1e-05,3e-05,0.00015,-8e-05,-0.00015,-6e-05,-2e-05,6,7
32809,0,1e-05,3e-05,0.00015,-8e-05,-0.00015,-6e-05,-2e-05,6,7
32810,0,1e-05,3e-05,0.00015,-8e-05,-0.00015,-6e-05,-2e-05,6,7
32811,0,1e-05,3e-05,0.00015,-8e-05,-0.00015,-6e-05,-2e-05,6,7
32812,0,1e-05,3e-05,0.00015,-8e-05,-0.00015,-6e-05,-2e-05,6,7
32813,0,1e-05,3e-05,0.00015,-8e-05,-0.00015,-6e-05,-2e-05,6,7
32814,0,1e-05,3e-05,0.00015,-8e-05,-0.00015,-6e-05,-2e-05,6,7
32815,0,1e-05,3e-05,0.00015,-8e-05,-0.00015,-6e-05,-2e-05,6,7
32816,0,1e-05,3e-05,0.00015,-8e-05,-0.00015,-6e-05,-2e-05,6,7
32817,-1e-05,-1e-05,1e-05,0.0001,0.00014,0,-0.0001,-3e-05,6,7
32818,0,-3e-05,-0.00014,-0.00061,0.00015,-0.00025,-0.00011,0,6,7
32819,0,-3e-05,-0.00014,-0.00061,0.00015,-0.00025,-0.00011,0,6,7
32820,0,-3e-05,-0.00014,-0.00061,0.00015,-0.00025,-0.00011,0,6,7
32821,0,-3e-05,-0.00014,-0.00061,0.00015,-0.00025,-0.00011,0,6,7
32822,0,-3e-05,-0.00014,-0.00061,0.00015,-0.00025,-0.00011,0,6,7
32823,0,-3e-05,-0.00014,-0.00061,0.00015,-0.00025,-0.00011,0,6,7
32824,0,-3e-05,-0.00014,-0.00061,0.00015,-0.00025,-0.00011,0,6,7
32825,0,-3e-05,-0.00014,-0.00061,0.00015,-0.00025,-0.00011,0,6,7
32826,0,-3e-05,-0.00014,-0.00061,0.00015,-0.00025,-0.00011,0,6,7
32827,0,-3e-05,-0.00014,-0.00061,0.00015,-0.00025,-0.00011,0,6,7
32828,0,-3e-05,-0.00014,-0.00061,0.00015,-0.00025,-0.00011,0,6,7
32829,0,-3e-05,-0.00014,-0.00061,0.00015,-0.00025,-0.00011,0,6,7
32830,0,-3e-05,-0.00014,-0.00061,0.00015,-0.00025,-0.00011,0,6,7
32831,3e-05,5e-05,0.00014,0.00017,-0.00012,-0.00015,1e-05,0,6,7
32832,2e-05,4e-05,5e-05,0.00034,0.00061,0.00037,-6e-05,-2e-05,6,7
32833,2e-05,4e-05,5e-05,0.00034,0.00061,0.00037,-6e-05,-2e-05,6,7
32834,2e-05,4e-05,5e-05,0.00034,0.00061,0.00037,-6e-05,-2e-05,6,7
32835,2e-05,4e-05,5e-05,0.00034,0.00061,0.00037,-6e-05,-2e-05,6,7
32836,2e-05,4e-05,5e-05,0.00034,0.00061,0.00037,-6e-05,-2e-05,6,7
32838,2e-05,4e-05,5e-05,0.00034,0.00061,0.00037,-6e-05,-2e-05,6,7
32839,2e-05,4e-05,5e-05,0.00034,0.00061,0.00037,-6e-05,-2e-05,6,7
32840,2e-05,4e-05,5e-05,0.00034,0.00061,0.00037,-6e-05,-2e-05,6,7
32841,2e-05,4e-05,5e-05,0.00034,0.00061,0.00037,-6e-05,-2e-05,6,7
32842,2e-05,4e-05,5e-05,0.00034,0.00061,0.00037,-6e-05,-2e-05,6,7
32843,2e-05,4e-05,5e-05,0.00034,0.00061,0.00037,-6e-05,-2e-05,6,7
32844,2e-05,4e-05,5e-05,0.00034,0.00061,0.00037,-6e-05,-2e-05,6,7
32845,2e-05,4e-05,5e-05,0.00034,0.00061,0.00037,-6e-05,-2e-05,6,7
32846,2e-05,4e-05,5e-05,0.00034,0.00061,0.00037,-6e-05,-2e-05,6,7
32847,2e-05,4e-05,5e-05,0.00034,0.00061,0.00037,-6e-05,-2e-05,6,7
32848,2e-05,4e-05,5e-05,0.00034,0.00061,0.00037,-6e-05,-2e-05,6,7
32849,2e-05,4e-05,5e-05,0.00034,0.00061,0.00037,-6e-05,-2e-05,6,7
32850,2e-05,4e-05,5e-05,0.00034,0.00061,0.00037,-6e-05,-2e-05,6,7
32851,2e-05,4e-05,5e-05,0.00034,0.00061,0.00037,-6e-05,-2e-05,6,7
32852,2e-05,4e-05,5e-05,0.00034,0.00061,0.00037,-6e-05,-2e-05,6,7
32853,2e-05,4e-05,5e-05,0.00034,0.00061,0.00037,-6e-05,-2e-05,6,7
32854,0,0,-3e-05,-0.00012,-0.00078,-0.00015,-5e-05,-5e-05,6,7
32855,0,2e-05,7e-05,-0.00013,-0.00039,0.00013,9e-05,7e-05,6,7
32856,0,2e-05,7e-05,-0.00013,-0.00039,0.00013,9e-05,7e-05,6,7
32857,0,2e-05,7e-05,-0.00013,-0.00039,0.00013,9e-05,7e-05,6,7
32858,0,2e-05,7e-05,-0.00013,-0.00039,0.00013,9e-05,7e-05,6,7
32859,0,2e-05,7e-05,-0.00013,-0.00039,0.00013,9e-05,7e-05,6,7
32860,0,2e-05,7e-05,-0.00013,-0.00039,0.00013,9e-05,7e-05,6,7
32861,0,2e-05,7e-05,-0.00013,-0.00039,0.00013,9e-05,7e-05,6,7
32862,0,2e-05,7e-05,-0.00013,-0.00039,0.00013,9e-05,7e-05,6,7
32863,0,2e-05,7e-05,-0.00013,-0.00039,0.00013,9e-05,7e-05,6,7
32864,0,2e-05,7e-05,-0.00013,-0.00039,0.00013,9e-05,7e-05,6,7
32865,0,2e-05,7e-05,-0.00013,-0.00039,0.00013,9e-05,7e-05,6,7
32866,0,2e-05,7e-05,-0.00013,-0.00039,0.00013,9e-05,7e-05,6,7
32867,0,2e-05,7e-05,-0.00013,-0.00039,0.00013,9e-05,7e-05,6,7
32868,0,2e-05,7e-05,-0.00013,-0.00039,0.00013,9e-05,7e-05,6,7
32869,0,2e-05,7e-05,-0.00013,-0.00039,0.00013,9e-05,7e-05,6,7
32870,0,2e-05,7e-05,-0.00013,-0.00039,0.00013,9e-05,7e-05,6,7
32871,0,2e-05,7e-05,-0.00013,-0.00039,0.00013,9e-05,7e-05,6,7
32872,0,2e-05,7e-05,-0.00013,-0.00039,0.00013,9e-05,7e-05,6,7
32873,0,2e-05,7e-05,-0.00013,-0.00039,0.00013,9e-05,7e-05,6,7
32874,0,2e-05,7e-05,-0.00013,-0.00039,0.00013,9e-05,7e-05,6,7
32875,0,2e-05,7e-05,-0.00013,-0.00039,0.00013,9e-05,7e-05,6,7
32876,0,2e-05,7e-05,-0.00013,-0.00039,0.00013,9e-05,7e-05,6,7
32877,0,2e-05,7e-05,-0.00013,-0.00039,0.00013,9e-05,7e-05,6,7
32878,0,2e-05,7e-05,-0.00013,-0.00039,0.00013,9e-05,7e-05,6,7
32879,0,2e-05,7e-05,-0.00013,-0.00039,0.00013,9e-05,7e-05,6,7
32880,0,2e-05,7e-05,-0.00013,-0.00039,0.00013,9e-05,7e-05,6,7
32881,0,2e-05,7e-05,-0.00013,-0.00039,0.00013,9e-05,7e-05,6,7
32882,0,2e-05,7e-05,-0.00013,-0.00039,0.00013,9e-05,7e-05,6,7
32883,0,2e-05,7e-05,-0.00013,-0.00039,0.00013,9e-05,7e-05,6,7
32884,0,2e-05,7e-05,-0.00013,-0.00039,0.00013,9e-05,7e-05,6,7
32885,0,2e-05,7e-05,-0.00013,-0.00039,0.00013,9e-05,7e-05,6,7
32886,-4e-05,-3e-05,-0.00015,-0.00053,-0.00083,-0.00026,-0.00014,-6e-05,6,7
32888,-3e-05,-4e-05,-5e-05,-0.00033,-0.00073,-2e-05,5e-05,-1e-05,6,7
32889,-3e-05,-4e-05,-5e-05,-0.00033,-0.00073,-2e-05,5e-05,-1e-05,6,7
32890,-3e-05,-4e-05,-5e-05,-0.00033,-0.00073,-2e-05,5e-05,-1e-05,6,7
32891,-3e-05,-4e-05,-5e-05,-0.00033,-0.00073,-2e-05,5e-05,-1e-05,6,7
32892,-3e-05,-4e-05,-5e-05,-0.00033,-0.00073,-2e-05,5e-05,-1e-05,6,7
32893,-3e-05,-4e-05,-5e-05,-0.00033,-0.00073,-2e-05,5e-05,-1e-05,6,7
32894,-3e-05,-4e-05,-5e-05,-0.00033,-0.00073,-2e-05,5e-05,-1e-05,6,7
32895,-3e-05,-4e-05,-5e-05,-0.00033,-0.00073,-2e-05,5e-05,-1e-05,6,7
32896,-3e-05,-4e-05,-5e-05,-0.00033,-0.00073,-2e-05,5e-05,-1e-05,6,7
32897,-3e-05,-4e-05,-5e-05,-0.00033,-0.00073,-2e-05,5e-05,-1e-05,6,7
32898,-3e-05,-4e-05,-5e-05,-0.00033,-0.00073,-2e-05,5e-05,-1e-05,6,7
32899,-1e-05,0,0,8e-05,0.00031,-0.00011,-2e-05,-3e-05,6,7
32900,-4e-05,-5e-05,-6e-05,-0.00011,-0.00022,0,2e-05,-3e-05,6,7
32901,-4e-05,-5e-05,-6e-05,-0.00011,-0.00022,0,2e-05,-3e-05,6,7
32902,-4e-05,-5e-05,-6e-05,-0.00011,-0.00022,0,2e-05,-3e-05,6,7
32903,-4e-05,-5e-05,-6e-05,-0.00011,-0.00022,0,2e-05,-3e-05,6,7
32904,-4e-05,-5e-05,-6e-05,-0.00011,-0.00022,0,2e-05,-3e-05,6,7
32905,-4e-05,-5e-05,-6e-05,-0.00011,-0.00022,0,2e-05,-3e-05,6,7
32906,-4e-05,-5e-05,-6e-05,-0.00011,-0.00022,0,2e-05,-3e-05,6,7
32907,-4e-05,-5e-05,-6e-05,-0.00011,-0.00022,0,2e-05,-3e-05,6,7
32908,-4e-05,-5e-05,-6e-05,-0.00011,-0.00022,0,2e-05,-3e-05,6,7
32909,-4e-05,-5e-05,-6e-05,-0.00011,-0.00022,0,2e-05,-3e-05,6,7
32910,-4e-05,-5e-05,-6e-05,-0.00011,-0.00022,0,2e-05,-3e-05,6,7
32911,-4e-05,-5e-05,-6e-05,-0.00011,-0.00022,0,2e-05,-3e-05,6,7
32912,-4e-05,-5e-05,-6e-05,-0.00011,-0.00022,0,2e-05,-3e-05,6,7
32913,-4e-05,-5e-05,-6e-05,-0.00011,-0.00022,0,2e-05,-3e-05,6,7
32914,2e-05,5e-05,6e-05,-4e-05,-0.0006,-0.00016,2e-05,-3e-05,6,7
32915,2e-05,5e-05,6e-05,-4e-05,-0.0006,-0.00016,2e-05,-3e-05,6,7
32916,2e-05,5e-05,6e-05,-4e-05,-0.0006,-0.00016,2e-05,-3e-05,6,7
32917,2e-05,5e-05,6e-05,-4e-05,-0.0006,-0.00016,2e-05,-3e-05,6,7
32918,2e-05,5e-05,6e-05,-4e-05,-0.0006,-0.00016,2e-05,-3e-05,6,7
32919,2e-05,5e-05,6e-05,-4e-05,-0.0006,-0.00016,2e-05,-3e-05,6,7
32920,2e-05,5e-05,6e-05,-4e-05,-0.0006,-0.00016,2e-05,-3e-05,6,7
32921,2e-05,5e-05,6e-05,-4e-05,-0.0006,-0.00016,2e-05,-3e-05,6,7
32922,2e-05,5e-05,6e-05,-4e-05,-0.0006,-0.00016,2e-05,-3e-05,6,7
32923,2e-05,5e-05,6e-05,-4e-05,-0.0006,-0.00016,2e-05,-3e-05,6,7
32924,2e-05,5e-05,6e-05,-4e-05,-0.0006,-0.00016,2e-05,-3e-05,6,7
32925,2e-05,5e-05,6e-05,-4e-05,-0.0006,-0.00016,2e-05,-3e-05,6,7
32926,2e-05,5e-05,6e-05,-4e-05,-0.0006,-0.00016,2e-05,-3e-05,6,7
32927,2e-05,5e-05,6e-05,-4e-05,-0.0006,-0.00016,2e-05,-3e-05,6,7
32928,2e-05,5e-05,6e-05,-4e-05,-0.0006,-0.00016,2e-05,-3e-05,6,7
32929,2e-05,5e-05,6e-05,-4e-05,-0.0006,-0.00016,2e-05,-3e-05,6,7
32930,2e-05,5e-05,6e-05,-4e-05,-0.0006,-0.00016,2e-05,-3e-05,6,7
32931,2e-05,5e-05,6e-05,-4e-05,-0.0006,-0.00016,2e-05,-3e-05,6,7
32932,2e-05,5e-05,6e-05,-4e-05,-0.0006,-0.00016,2e-05,-3e-05,6,7
32933,2e-05,5e-05,6e-05,-4e-05,-0.0006,-0.00016,2e-05,-3e-05,6,7
32934,2e-05,5e-05,6e-05,-4e-05,-0.0006,-0.00016,2e-05,-3e-05,6,7
32935,2e-05,5e-05,6e-05,-4e-05,-0.0006,-0.00016,2e-05,-3e-05,6,7
32936,2e-05,5e-05,6e-05,-4e-05,-0.0006,-0.00016,2e-05,-3e-05,6,7
32939,-2e-05,-2e-05,-2e-05,-0.00016,0.00015,-3e-05,6e-05,0,6,7
32940,-2e-05,-2e-05,-2e-05,-0.00016,0.00015,-3e-05,6e-05,0,6,7
32941,-2e-05,-2e-05,-2e-05,-0.00016,0.00015,-3e-05,6e-05,0,6,7
32942,-2e-05,-2e-05,-2e-05,-0.00016,0.00015,-3e-05,6e-05,0,6,7
32943,-2e-05,-2e-05,-2e-05,-0.00016,0.00015,-3e-05,6e-05,0,6,7
32944,-2e-05,-2e-05,-2e-05,-0.00016,0.00015,-3e-05,6e-05,0,6,7
32945,-2e-05,-2e-05,-2e-05,-0.00016,0.00015,-3e-05,6e-05,0,6,7
32946,-2e-05,-2e-05,-2e-05,-0.00016,0.00015,-3e-05,6e-05,0,6,7
32947,-2e-05,-2e-05,-2e-05,-0.00016,0.00015,-3e-05,6e-05,0,6,7
32948,-2e-05,-2e-05,-2e-05,-0.00016,0.00015,-3e-05,6e-05,0,6,7
32949,-2e-05,-2e-05,-2e-05,-0.00016,0.00015,-3e-05,6e-05,0,6,7
32950,-2e-05,-2e-05,-2e-05,-0.00016,0.00015,-3e-05,6e-05,0,6,7
32951,-2e-05,-2e-05,-2e-05,-0.00016,0.00015,-3e-05,6e-05,0,6,7
32952,-2e-05,-2e-05,-2e-05,-0.00016,0.00015,-3e-05,6e-05,0,6,7
32953,-2e-05,-2e-05,-2e-05,-0.00016,0.00015,-3e-05,6e-05,0,6,7
32954,-2e-05,-2e-05,-2e-05,-0.00016,0.00015,-3e-05,6e-05,0,6,7
32955,-2e-05,-2e-05,-2e-05,-0.00016,0.00015,-3e-05,6e-05,0,6,7
32956,-2e-05,-2e-05,-2e-05,-0.00016,0.00015,-3e-05,6e-05,0,6,7
32957,-2e-05,-2e-05,-2e-05,-0.00016,0.00015,-3e-05,6e-05,0,6,7
32958,-2e-05,-2e-05,-2e-05,-0.00016,0.00015,-3e-05,6e-05,0,6,7
32959,3e-05,1e-05,5e-05,-5e-05,-0.0002,0.0002,8e-05,2e-05,6,7
32960,2e-05,1e-05,4e-05,-0.00026,-0.00072,0.00071,5e-05,1e-05,6,7
32961,2e-05,1e-05,4e-05,-0.00026,-0.00072,0.00071,5e-05,1e-05,6,7
32962,2e-05,1e-05,4e-05,-0.00026,-0.00072,0.00071,5e-05,1e-05,6,7
32963,2e-05,1e-05,4e-05,-0.00026,-0.00072,0.00071,5e-05,1e-05,6,7
32964,2e-05,1e-05,4e-05,-0.00026,-0.00072,0.00071,5e-05,1e-05,6,7
32965,2e-05,1e-05,4e-05,-0.00026,-0.00072,0.00071,5e-05,1e-05,6,7
32966,2e-05,1e-05,4e-05,-0.00026,-0.00072,0.00071,5e-05,1e-05,6,7
32967,2e-05,1e-05,4e-05,-0.00026,-0.00072,0.00071,5e-05,1e-05,6,7
32968,2e-05,1e-05,4e-05,-0.00026,-0.00072,0.00071,5e-05,1e-05,6,7
32969,2e-05,1e-05,4e-05,-0.00026,-0.00072,0.00071,5e-05,1e-05,6,7
32970,2e-05,1e-05,4e-05,-0.00026,-0.00072,0.00071,5e-05,1e-05,6,7
32971,2e-05,1e-05,4e-05,-0.00026,-0.00072,0.00071,5e-05,1e-05,6,7
32972,2e-05,1e-05,4e-05,-0.00026,-0.00072,0.00071,5e-05,1e-05,6,7
32973,2e-05,1e-05,4e-05,-0.00026,-0.00072,0.00071,5e-05,1e-05,6,7
32974,2e-05,1e-05,4e-05,-0.00026,-0.00072,0.00071,5e-05,1e-05,6,7
32975,2e-05,1e-05,4e-05,-0.00026,-0.00072,0.00071,5e-05,1e-05,6,7
32976,2e-05,1e-05,4e-05,-0.00026,-0.00072,0.00071,5e-05,1e-05,6,7
32977,2e-05,1e-05,4e-05,-0.00026,-0.00072,0.00071,5e-05,1e-05,6,7
32978,2e-05,1e-05,4e-05,-0.00026,-0.00072,0.00071,5e-05,1e-05,6,7
32979,2e-05,1e-05,4e-05,-0.00026,-0.00072,0.00071,5e-05,1e-05,6,7
32980,2e-05,1e-05,4e-05,-0.00026,-0.00072,0.00071,5e-05,1e-05,6,7
32981,2e-05,1e-05,4e-05,-0.00026,-0.00072,0.00071,5e-05,1e-05,6,7
32982,0,1e-05,-4e-05,0.00016,0.00051,-0.00023,-3e-05,7e-05,6,7
32983,-2e-05,-2e-05,-8e-05,0,0,-0.00023,4e-05,-5e-05,6,7
32984,-2e-05,-2e-05,-8e-05,0,0,-0.00023,4e-05,-5e-05,6,7
32985,-2e-05,-2e-05,-8e-05,0,0,-0.00023,4e-05,-5e-05,6,7
32986,-2e-05,-2e-05,-8e-05,0,0,-0.00023,4e-05,-5e-05,6,7
32988,-2e-05,-2e-05,-8e-05,0,0,-0.00023,4e-05,-5e-05,6,7
32989,-2e-05,-2e-05,-8e-05,0,0,-0.00023,4e-05,-5e-05,6,7
32990,-2e-05,-2e-05,-8e-05,0,0,-0.00023,4e-05,-5e-05,6,7
32991,-2e-05,-2e-05,-8e-05,0,0,-0.00023,4e-05,-5e-05,6,7
32992,-2e-05,-2e-05,-8e-05,0,0,-0.00023,4e-05,-5e-05,6,7
32993,-2e-05,-2e-05,-8e-05,0,0,-0.00023,4e-05,-5e-05,6,7
32994,-2e-05,-2e-05,-8e-05,0,0,-0.00023,4e-05,-5e-05,6,7
32995,-2e-05,-2e-05,-8e-05,0,0,-0.00023,4e-05,-5e-05,6,7
32996,-2e-05,-2e-05,-8e-05,0,0,-0.00023,4e-05,-5e-05,6,7
32997,-2e-05,-2e-05,0,-1e-05,-0.00023,-5e-05,-0.00017,-0.00015,6,7
32998,1e-05,0,-2e-05,1e-05,0.00029,-7e-05,-0.00013,1e-05,6,7
32999,1e-05,0,-2e-05,1e-05,0.00029,-7e-05,-0.00013,1e-05,6,7
33000,1e-05,0,-2e-05,1e-05,0.00029,-7e-05,-0.00013,1e-05,6,7
33001,1e-05,0,-2e-05,1e-05,0.00029,-7e-05,-0.00013,1e-05,6,7
33002,1e-05,0,-2e-05,1e-05,0.00029,-7e-05,-0.00013,1e-05,6,7
33003,1e-05,0,-2e-05,1e-05,0.00029,-7e-05,-0.00013,1e-05,6,7
33004,1e-05,0,-2e-05,1e-05,0.00029,-7e-05,-0.00013,1e-05,6,7
33005,1e-05,0,-2e-05,1e-05,0.00029,-7e-05,-0.00013,1e-05,6,7
33006,1e-05,0,-2e-05,1e-05,0.00029,-7e-05,-0.00013,1e-05,6,7
33007,1e-05,0,-2e-05,1e-05,0.00029,-7e-05,-0.00013,1e-05,6,7
33008,1e-05,0,-2e-05,1e-05,0.00029,-7e-05,-0.00013,1e-05,6,7
33009,1e-05,0,-2e-05,1e-05,0.00029,-7e-05,-0.00013,1e-05,6,7
33010,1e-05,0,-2e-05,1e-05,0.00029,-7e-05,-0.00013,1e-05,6,7
33011,2e-05,3e-05,7e-05,3e-05,-9e-05,-2e-05,0.00014,7e-05,6,7
33012,-1e-05,-1e-05,1e-05,1e-05,-0.00016,3e-05,0,-3e-05,6,7
33013,0,-1e-05,-1e-05,-0.00016,0.00025,0.0001,2e-05,0,6,7
33014,0,-1e-05,-1e-05,-0.00016,0.00025,0.0001,2e-05,0,6,7
33015,0,-1e-05,-1e-05,-0.00016,0.00025,0.0001,2e-05,0,6,7
33016,0,-1e-05,-1e-05,-0.00016,0.00025,0.0001,2e-05,0,6,7
33017,0,-1e-05,-1e-05,-0.00016,0.00025,0.0001,2e-05,0,6,7
33018,0,-1e-05,-1e-05,-0.00016,0.00025,0.0001,2e-05,0,6,7
33019,0,-1e-05,-1e-05,-0.00016,0.00025,0.0001,2e-05,0,6,7
33020,0,-1e-05,-1e-05,-0.00016,0.00025,0.0001,2e-05,0,6,7
33021,0,-1e-05,-1e-05,-0.00016,0.00025,0.0001,2e-05,0,6,7
33022,0,-1e-05,-1e-05,-0.00016,0.00025,0.0001,2e-05,0,6,7
33023,0,-1e-05,-1e-05,-0.00016,0.00025,0.0001,2e-05,0,6,7
33024,0,-1e-05,-1e-05,-0.00016,0.00025,0.0001,2e-05,0,6,7
33025,0,-1e-05,-1e-05,-0.00016,0.00025,0.0001,2e-05,0,6,7
33026,0,-1e-05,-1e-05,-0.00016,0.00025,0.0001,2e-05,0,6,7
33027,0,-1e-05,-1e-05,-0.00016,0.00025,0.0001,2e-05,0,6,7
33028,0,-1e-05,-1e-05,-0.00016,0.00025,0.0001,2e-05,0,6,7
33029,0,-1e-05,-1e-05,-0.00016,0.00025,0.0001,2e-05,0,6,7
33030,0,-1e-05,-1e-05,-0.00016,0.00025,0.0001,2e-05,0,6,7
33031,0,-1e-05,-1e-05,-0.00016,0.00025,0.0001,2e-05,0,6,7
33032,0,-1e-05,-1e-05,-0.00016,0.00025,0.0001,2e-05,0,6,7
33033,0,-1e-05,-1e-05,-0.00016,0.00025,0.0001,2e-05,0,6,7
33034,0,-1e-05,-1e-05,-0.00016,0.00025,0.0001,2e-05,0,6,7
33035,0,-1e-05,-1e-05,-0.00016,0.00025,0.0001,2e-05,0,6,7
33036,0,-1e-05,-1e-05,-0.00016,0.00025,0.0001,2e-05,0,6,7
33038,0,-1e-05,-1e-05,-0.00016,0.00025,0.0001,2e-05,0,6,7
33039,0,-1e-05,-1e-05,-0.00016,0.00025,0.0001,2e-05,0,6,7
33040,0,-1e-05,-1e-05,-0.00016,0.00025,0.0001,2e-05,0,6,7
33041,0,-1e-05,-1e-05,-0.00016,0.00025,0.0001,2e-05,0,6,7
33042,1e-05,1e-05,6e-05,3e-05,0.00062,0.0001,0.00012,2e-05,6,7
33043,3e-05,3e-05,3e-05,-0.00023,0.00076,0.00029,0.00012,7e-05,6,7
33044,3e-05,3e-05,3e-05,-0.00023,0.00076,0.00029,0.00012,7e-05,6,7
33045,3e-05,3e-05,3e-05,-0.00023,0.00076,0.00029,0.00012,7e-05,6,7
33046,3e-05,3e-05,3e-05,-0.00023,0.00076,0.00029,0.00012,7e-05,6,7
33047,3e-05,3e-05,3e-05,-0.00023,0.00076,0.00029,0.00012,7e-05,6,7
33048,3e-05,3e-05,3e-05,-0.00023,0.00076,0.00029,0.00012,7e-05,6,7
33049,3e-05,3e-05,3e-05,-0.00023,0.00076,0.00029,0.00012,7e-05,6,7
33050,3e-05,3e-05,3e-05,-0.00023,0.00076,0.00029,0.00012,7e-05,6,7
33051,3e-05,3e-05,3e-05,-0.00023,0.00076,0.00029,0.00012,7e-05,6,7
33052,3e-05,3e-05,3e-05,-0.00023,0.00076,0.00029,0.00012,7e-05,6,7
33053,3e-05,3e-05,3e-05,-0.00023,0.00076,0.00029,0.00012,7e-05,6,7
33054,3e-05,3e-05,3e-05,-0.00023,0.00076,0.00029,0.00012,7e-05,6,7
33055,3e-05,3e-05,3e-05,-0.00023,0.00076,0.00029,0.00012,7e-05,6,7
33056,3e-05,3e-05,3e-05,-0.00023,0.00076,0.00029,0.00012,7e-05,6,7
33057,3e-05,3e-05,3e-05,-0.00023,0.00076,0.00029,0.00012,7e-05,6,7
33058,3e-05,3e-05,3e-05,-0.00023,0.00076,0.00029,0.00012,7e-05,6,7
33059,3e-05,3e-05,3e-05,-0.00023,0.00076,0.00029,0.00012,7e-05,6,7
33060,3e-05,3e-05,3e-05,-0.00023,0.00076,0.00029,0.00012,7e-05,6,7
33061,3e-05,3e-05,3e-05,-0.00023,0.00076,0.00029,0.00012,7e-05,6,7
33062,3e-05,3e-05,3e-05,-0.00023,0.00076,0.00029,0.00012,7e-05,6,7
33063,3e-05,3e-05,3e-05,-0.00023,0.00076,0.00029,0.00012,7e-05,6,7
33064,-3e-05,-4e-05,-2e-05,-0.00013,-3e-05,-0.00012,-0.00024,-1e-05,6,7
33065,-1e-05,-4e-05,0,0.00012,-0.00038,-0.00042,-8e-05,-8e-05,6,7
33066,-1e-05,-4e-05,0,0.00012,-0.00038,-0.00042,-8e-05,-8e-05,6,7
33067,-1e-05,-4e-05,0,0.00012,-0.00038,-0.00042,-8e-05,-8e-05,6,7
33068,-1e-05,-4e-05,0,0.00012,-0.00038,-0.00042,-8e-05,-8e-05,6,7
33069,-1e-05,-4e-05,0,0.00012,-0.00038,-0.00042,-8e-05,-8e-05,6,7
33070,-1e-05,-4e-05,0,0.00012,-0.00038,-0.00042,-8e-05,-8e-05,6,7
33071,-2e-05,-1e-05,1e-05,0.0003,3e-05,4e-05,4e-05,2e-05,6,7
33072,-3e-05,-4e-05,-2e-05,0.00025,-0.00021,-0.00015,-6e-05,-3e-05,6,7
33073,-3e-05,-4e-05,-2e-05,0.00025,-0.00021,-0.00015,-6e-05,-3e-05,6,7
33074,-3e-05,-4e-05,-2e-05,0.00025,-0.00021,-0.00015,-6e-05,-3e-05,6,7
33075,-3e-05,-4e-05,-2e-05,0.00025,-0.00021,-0.00015,-6e-05,-3e-05,6,7
33076,-3e-05,-4e-05,-2e-05,0.00025,-0.00021,-0.00015,-6e-05,-3e-05,6,7
33077,-3e-05,-4e-05,-2e-05,0.00025,-0.00021,-0.00015,-6e-05,-3e-05,6,7
33078,-3e-05,-4e-05,-2e-05,0.00025,-0.00021,-0.00015,-6e-05,-3e-05,6,7
33079,-3e-05,-4e-05,-2e-05,0.00025,-0.00021,-0.00015,-6e-05,-3e-05,6,7
33080,-3e-05,-4e-05,-2e-05,0.00025,-0.00021,-0.00015,-6e-05,-3e-05,6,7
33081,-3e-05,-4e-05,-2e-05,0.00025,-0.00021,-0.00015,-6e-05,-3e-05,6,7
33082,-3e-05,-4e-05,-2e-05,0.00025,-0.00021,-0.00015,-6e-05,-3e-05,6,7
33083,-3e-05,-4e-05,-2e-05,0.00025,-0.00021,-0.00015,-6e-05,-3e-05,6,7
33084,-3e-05,-4e-05,-2e-05,0.00025,-0.00021,-0.00015,-6e-05,-3e-05,6,7
33085,-3e-05,-4e-05,-2e-05,0.00025,-0.00021,-0.00015,-6e-05,-3e-05,6,7
33086,-3e-05,-4e-05,-2e-05,0.00025,-0.00021,-0.00015,-6e-05,-3e-05,6,7
33088,-3e-05,-4e-05,-2e-05,0.00025,-0.00021,-0.00015,-6e-05,-3e-05,6,7
33089,-3e-05,-4e-05,-2e-05,0.00025,-0.00021,-0.00015,-6e-05,-3e-05,6,7
33090,-3e-05,-4e-05,-2e-05,0.00025,-0.00021,-0.00015,-6e-05,-3e-05,6,7
33091,-3e-05,-4e-05,-2e-05,0.00025,-0.00021,-0.00015,-6e-05,-3e-05,6,7
33092,-3e-05,-4e-05,-2e-05,0.00025,-0.00021,-0.00015,-6e-05,-3e-05,6,7
33093,-3e-05,-4e-05,-2e-05,0.00025,-0.00021,-0.00015,-6e-05,-3e-05,6,7
33094,-2e-05,0,-4e-05,-4e-05,-0.00034,0,-4e-05,3e-05,6,7
33095,-4e-05,-3e-05,0,0.00019,-0.0004,0.0001,-3e-05,-1e-05,6,7
33096,-4e-05,-3e-05,0,0.00019,-0.0004,0.0001,-3e-05,-1e-05,6,7
33097,-4e-05,-3e-05,0,0.00019,-0.0004,0.0001,-3e-05,-1e-05,6,7
33098,-4e-05,-3e-05,0,0.00019,-0.0004,0.0001,-3e-05,-1e-05,6,7
33099,-4e-05,-3e-05,0,0.00019,-0.0004,0.0001,-3e-05,-1e-05,6,7
33100,-4e-05,-3e-05,0,0.00019,-0.0004,0.0001,-3e-05,-1e-05,6,7
33101,-4e-05,-3e-05,0,0.00019,-0.0004,0.0001,-3e-05,-1e-05,6,7
33102,-4e-05,-3e-05,0,0.00019,-0.0004,0.0001,-3e-05,-1e-05,6,7
33103,-4e-05,-3e-05,0,0.00019,-0.0004,0.0001,-3e-05,-1e-05,6,7
33104,-4e-05,-3e-05,0,0.00019,-0.0004,0.0001,-3e-05,-1e-05,6,7
33105,-4e-05,-3e-05,0,0.00019,-0.0004,0.0001,-3e-05,-1e-05,6,7
33106,-4e-05,-3e-05,0,0.00019,-0.0004,0.0001,-3e-05,-1e-05,6,7
33107,-4e-05,-3e-05,0,0.00019,-0.0004,0.0001,-3e-05,-1e-05,6,7
33108,-4e-05,-3e-05,0,0.00019,-0.0004,0.0001,-3e-05,-1e-05,6,7
33109,-4e-05,-3e-05,0,0.00019,-0.0004,0.0001,-3e-05,-1e-05,6,7
33110,-4e-05,-3e-05,0,0.00019,-0.0004,0.0001,-3e-05,-1e-05,6,7
33111,-4e-05,-3e-05,0,0.00019,-0.0004,0.0001,-3e-05,-1e-05,6,7
33112,-4e-05,-3e-05,0,0.00019,-0.0004,0.0001,-3e-05,-1e-05,6,7
33113,-4e-05,-3e-05,0,0.00019,-0.0004,0.0001,-3e-05,-1e-05,6,7
33114,-4e-05,-3e-05,0,0.00019,-0.0004,0.0001,-3e-05,-1e-05,6,7
33115,-4e-05,-3e-05,0,0.00019,-0.0004,0.0001,-3e-05,-1e-05,6,7
33116,-4e-05,-3e-05,0,0.00019,-0.0004,0.0001,-3e-05,-1e-05,6,7
33117,-4e-05,-3e-05,0,0.00019,-0.0004,0.0001,-3e-05,-1e-05,6,7
33118,-4e-05,-3e-05,0,0.00019,-0.0004,0.0001,-3e-05,-1e-05,6,7
33119,-4e-05,-3e-05,0,0.00019,-0.0004,0.0001,-3e-05,-1e-05,6,7
33120,-4e-05,-3e-05,0,0.00019,-0.0004,0.0001,-3e-05,-1e-05,6,7
33121,-4e-05,-3e-05,0,0.00019,-0.0004,0.0001,-3e-05,-1e-05,6,7
33122,-4e-05,-3e-05,0,0.00019,-0.0004,0.0001,-3e-05,-1e-05,6,7
33123,-4e-05,-3e-05,0,0.00019,-0.0004,0.0001,-3e-05,-1e-05,6,7
33124,-2e-05,-2e-05,0,-0.00013,-0.00047,-6e-05,-1e-05,-1e-05,6,7
33125,-1e-05,0,0,6e-05,0.00017,3e-05,-8e-05,-1e-05,6,7
33126,-1e-05,0,0,6e-05,0.00017,3e-05,-8e-05,-1e-05,6,7
33127,-1e-05,0,0,6e-05,0.00017,3e-05,-8e-05,-1e-05,6,7
33128,-1e-05,0,0,6e-05,0.00017,3e-05,-8e-05,-1e-05,6,7
33130,-1e-05,0,0,6e-05,0.00017,3e-05,-8e-05,-1e-05,6,7
33131,-1e-05,-2e-05,-0.00012,-0.00037,-0.00035,-2e-05,0.00016,1e-05,6,7
33132,-3e-05,-3e-05,-1e-05,0.00049,6e-05,-8e-05,7e-05,9e-05,6,7
33133,-3e-05,-3e-05,-1e-05,0.00049,6e-05,-8e-05,7e-05,9e-05,6,7
33134,-3e-05,-3e-05,-1e-05,0.00049,6e-05,-8e-05,7e-05,9e-05,6,7
33135,-3e-05,-3e-05,-1e-05,0.00049,6e-05,-8e-05,7e-05,9e-05,6,7
33136,-3e-05,-3e-05,-1e-05,0.00049,6e-05,-8e-05,7e-05,9e-05,6,7
33138,-3e-05,-3e-05,-1e-05,0.00049,6e-05,-8e-05,7e-05,9e-05,6,7
33139,-3e-05,-3e-05,-1e-05,0.00049,6e-05,-8e-05,7e-05,9e-05,6,7
33140,-3e-05,-3e-05,-1e-05,0.00049,6e-05,-8e-05,7e-05,9e-05,6,7
33141,-3e-05,-3e-05,-1e-05,0.00049,6e-05,-8e-05,7e-05,9e-05,6,7
33142,-3e-05,-3e-05,-1e-05,0.00049,6e-05,-8e-05,7e-05,9e-05,6,7
33143,-3e-05,-3e-05,-1e-05,0.00049,6e-05,-8e-05,7e-05,9e-05,6,7
33144,-3e-05,-3e-05,-1e-05,0.00049,6e-05,-8e-05,7e-05,9e-05,6,7
33145,-3e-05,-3e-05,-1e-05,0.00049,6e-05,-8e-05,7e-05,9e-05,6,7
33146,-3e-05,-3e-05,-1e-05,0.00049,6e-05,-8e-05,7e-05,9e-05,6,7
33147,-3e-05,-3e-05,-1e-05,0.00049,6e-05,-8e-05,7e-05,9e-05,6,7
33148,-3e-05,-3e-05,-1e-05,0.00049,6e-05,-8e-05,7e-05,9e-05,6,7
33149,-3e-05,-3e-05,-1e-05,0.00049,6e-05,-8e-05,7e-05,9e-05,6,7
33150,-3e-05,-3e-05,-1e-05,0.00049,6e-05,-8e-05,7e-05,9e-05,6,7
33151,-3e-05,-3e-05,-1e-05,0.00049,6e-05,-8e-05,7e-05,9e-05,6,7
33152,-3e-05,-3e-05,-1e-05,0.00049,6e-05,-8e-05,7e-05,9e-05,6,7
33153,0,2e-05,-6e-05,-0.00054,0.00039,6e-05,-5e-05,-0.00019,6,7
33154,0,-2e-05,2e-05,-7e-05,-4e-05,0.00011,1e-05,0,6,7
33155,0,-2e-05,2e-05,-7e-05,-4e-05,0.00011,1e-05,0,6,7
33156,0,-2e-05,2e-05,-7e-05,-4e-05,0.00011,1e-05,0,6,7
33157,0,-2e-05,2e-05,-7e-05,-4e-05,0.00011,1e-05,0,6,7
33158,0,-2e-05,2e-05,-7e-05,-4e-05,0.00011,1e-05,0,6,7
33159,0,-2e-05,2e-05,-7e-05,-4e-05,0.00011,1e-05,0,6,7
33160,0,-2e-05,2e-05,-7e-05,-4e-05,0.00011,1e-05,0,6,7
33161,-2e-05,0,-1e-05,0.00014,0.00097,-3e-05,3e-05,-5e-05,6,7
33162,-2e-05,0,-1e-05,0.00014,0.00097,-3e-05,3e-05,-5e-05,6,7
33163,-2e-05,0,-1e-05,0.00014,0.00097,-3e-05,3e-05,-5e-05,6,7
33164,-2e-05,0,-1e-05,0.00014,0.00097,-3e-05,3e-05,-5e-05,6,7
33165,-2e-05,0,-1e-05,0.00014,0.00097,-3e-05,3e-05,-5e-05,6,7
33166,-2e-05,0,-1e-05,0.00014,0.00097,-3e-05,3e-05,-5e-05,6,7
33167,-2e-05,0,-1e-05,0.00014,0.00097,-3e-05,3e-05,-5e-05,6,7
33168,-2e-05,0,-1e-05,0.00014,0.00097,-3e-05,3e-05,-5e-05,6,7
33169,-2e-05,0,-1e-05,0.00014,0.00097,-3e-05,3e-05,-5e-05,6,7
33170,-2e-05,0,-1e-05,0.00014,0.00097,-3e-05,3e-05,-5e-05,6,7
33171,-2e-05,0,-1e-05,0.00014,0.00097,-3e-05,3e-05,-5e-05,6,7
33172,-2e-05,0,-1e-05,0.00014,0.00097,-3e-05,3e-05,-5e-05,6,7
33173,-2e-05,0,-1e-05,0.00014,0.00097,-3e-05,3e-05,-5e-05,6,7
33174,-2e-05,0,-1e-05,0.00014,0.00097,-3e-05,3e-05,-5e-05,6,7
33175,-2e-05,0,-1e-05,0.00014,0.00097,-3e-05,3e-05,-5e-05,6,7
33176,-2e-05,0,-1e-05,0.00014,0.00097,-3e-05,3e-05,-5e-05,6,7
33177,2e-05,0,3e-05,-0.00011,-0.00053,0.00012,7e-05,4e-05,6,7
33178,-2e-05,0,-4e-05,-2e-05,-0.00022,9e-05,2e-05,0,6,7
33179,-2e-05,0,-4e-05,-2e-05,-0.00022,9e-05,2e-05,0,6,7
33180,-2e-05,0,-4e-05,-2e-05,-0.00022,9e-05,2e-05,0,6,7
33181,-2e-05,0,-4e-05,-2e-05,-0.00022,9e-05,2e-05,0,6,7
33182,-2e-05,0,-4e-05,-2e-05,-0.00022,9e-05,2e-05,0,6,7
33183,-2e-05,0,-4e-05,-2e-05,-0.00022,9e-05,2e-05,0,6,7
33184,-2e-05,0,-4e-05,-2e-05,-0.00022,9e-05,2e-05,0,6,7
33185,-2e-05,0,-4e-05,-2e-05,-0.00022,9e-05,2e-05,0,6,7
33186,-2e-05,0,-4e-05,-2e-05,-0.00022,9e-05,2e-05,0,6,7
33188,-2e-05,0,-4e-05,-2e-05,-0.00022,9e-05,2e-05,0,6,7
33189,-2e-05,0,-4e-05,-2e-05,-0.00022,9e-05,2e-05,0,6,7
33190,-2e-05,0,-4e-05,-2e-05,-0.00022,9e-05,2e-05,0,6,7
33191,0,0,2e-05,9e-05,0.00068,0.00022,-3e-05,-2e-05,6,7
33192,1e-05,-1e-05,-6e-05,-0.00021,-0.00086,-0.00017,5e-05,-3e-05,6,7
33193,1e-05,-1e-05,-6e-05,-0.00021,-0.00086,-0.00017,5e-05,-3e-05,6,7
33194,1e-05,-1e-05,-6e-05,-0.00021,-0.00086,-0.00017,5e-05,-3e-05,6,7
33195,1e-05,-1e-05,-6e-05,-0.00021,-0.00086,-0.00017,5e-05,-3e-05,6,7
33196,1e-05,-1e-05,-6e-05,-0.00021,-0.00086,-0.00017,5e-05,-3e-05,6,7
33197,1e-05,-1e-05,-6e-05,-0.00021,-0.00086,-0.00017,5e-05,-3e-05,6,7
33198,1e-05,-1e-05,-6e-05,-0.00021,-0.00086,-0.00017,5e-05,-3e-05,6,7
33199,1e-05,-1e-05,-6e-05,-0.00021,-0.00086,-0.00017,5e-05,-3e-05,6,7
33200,1e-05,-1e-05,-6e-05,-0.00021,-0.00086,-0.00017,5e-05,-3e-05,6,7
33201,1e-05,-1e-05,-6e-05,-0.00021,-0.00086,-0.00017,5e-05,-3e-05,6,7
33202,1e-05,-1e-05,-6e-05,-0.00021,-0.00086,-0.00017,5e-05,-3e-05,6,7
33203,1e-05,-1e-05,-6e-05,-0.00021,-0.00086,-0.00017,5e-05,-3e-05,6,7
33204,1e-05,-1e-05,-6e-05,-0.00021,-0.00086,-0.00017,5e-05,-3e-05,6,7
33205,1e-05,-1e-05,-6e-05,-0.00021,-0.00086,-0.00017,5e-05,-3e-05,6,7
33206,1e-05,-1e-05,-6e-05,-0.00021,-0.00086,-0.00017,5e-05,-3e-05,6,7
33207,1e-05,-1e-05,-6e-05,-0.00021,-0.00086,-0.00017,5e-05,-3e-05,6,7
33208,1e-05,-1e-05,-6e-05,-0.00021,-0.00086,-0.00017,5e-05,-3e-05,6,7
33209,1e-05,-1e-05,-6e-05,-0.00021,-0.00086,-0.00017,5e-05,-3e-05,6,7
33210,1e-05,-1e-05,-6e-05,-0.00021,-0.00086,-0.00017,5e-05,-3e-05,6,7
33211,1e-05,-1e-05,-6e-05,-0.00021,-0.00086,-0.00017,5e-05,-3e-05,6,7
33212,1e-05,-1e-05,-6e-05,-0.00021,-0.00086,-0.00017,5e-05,-3e-05,6,7
33213,1e-05,-1e-05,-6e-05,-0.00021,-0.00086,-0.00017,5e-05,-3e-05,6,7
33214,-2e-05,-2e-05,2e-05,0.00019,-0.00016,-0.00017,-0.00037,2e-05,6,7
33215,3e-05,3e-05,5e-05,0.00025,0.00073,0.00041,-0.00016,0,6,7
33216,3e-05,3e-05,5e-05,0.00025,0.00073,0.00041,-0.00016,0,6,7
33217,3e-05,3e-05,5e-05,0.00025,0.00073,0.00041,-0.00016,0,6,7
33218,3e-05,3e-05,5e-05,0.00025,0.00073,0.00041,-0.00016,0,6,7
33219,3e-05,3e-05,5e-05,0.00025,0.00073,0.00041,-0.00016,0,6,7
33220,3e-05,3e-05,5e-05,0.00025,0.00073,0.00041,-0.00016,0,6,7
33221,3e-05,3e-05,5e-05,0.00025,0.00073,0.00041,-0.00016,0,6,7
33222,3e-05,3e-05,5e-05,0.00025,0.00073,0.00041,-0.00016,0,6,7
33223,3e-05,3e-05,5e-05,0.00025,0.00073,0.00041,-0.00016,0,6,7
33224,3e-05,3e-05,5e-05,0.00025,0.00073,0.00041,-0.00016,0,6,7
33225,3e-05,3e-05,5e-05,0.00025,0.00073,0.00041,-0.00016,0,6,7
33226,3e-05,3e-05,5e-05,0.00025,0.00073,0.00041,-0.00016,0,6,7
33227,3e-05,3e-05,5e-05,0.00025,0.00073,0.00041,-0.00016,0,6,7
33228,3e-05,3e-05,5e-05,0.00025,0.00073,0.00041,-0.00016,0,6,7
33229,3e-05,3e-05,5e-05,0.00025,0.00073,0.00041,-0.00016,0,6,7
33230,3e-05,3e-05,5e-05,0.00025,0.00073,0.00041,-0.00016,0,6,7
33231,3e-05,3e-05,5e-05,0.00025,0.00073,0.00041,-0.00016,0,6,7
33232,3e-05,3e-05,5e-05,0.00025,0.00073,0.00041,-0.00016,0,6,7
33233,3e-05,3e-05,5e-05,0.00025,0.00073,0.00041,-0.00016,0,6,7
33234,3e-05,3e-05,5e-05,0.00025,0.00073,0.00041,-0.00016,0,6,7
33235,3e-05,3e-05,5e-05,0.00025,0.00073,0.00041,-0.00016,0,6,7
33236,3e-05,3e-05,5e-05,0.00025,0.00073,0.00041,-0.00016,0,6,7
33238,-3e-05,-6e-05,-6e-05,-0.00039,-0.00052,-0.00011,-3e-05,-5e-05,6,7
33240,-3e-05,-6e-05,-6e-05,-0.00039,-0.00052,-0.00011,-3e-05,-5e-05,6,7
33241,-3e-05,-6e-05,-6e-05,-0.00039,-0.00052,-0.00011,-3e-05,-5e-05,6,7
33242,-3e-05,-6e-05,-6e-05,-0.00039,-0.00052,-0.00011,-3e-05,-5e-05,6,7
33243,-3e-05,-6e-05,-6e-05,-0.00039,-0.00052,-0.00011,-3e-05,-5e-05,6,7
33244,-3e-05,-6e-05,-6e-05,-0.00039,-0.00052,-0.00011,-3e-05,-5e-05,6,7
33245,-3e-05,-6e-05,-6e-05,-0.00039,-0.00052,-0.00011,-3e-05,-5e-05,6,7
33246,-3e-05,-6e-05,-6e-05,-0.00039,-0.00052,-0.00011,-3e-05,-5e-05,6,7
33247,-3e-05,-6e-05,-6e-05,-0.00039,-0.00052,-0.00011,-3e-05,-5e-05,6,7
33248,-3e-05,-6e-05,-6e-05,-0.00039,-0.00052,-0.00011,-3e-05,-5e-05,6,7
33249,-3e-05,-6e-05,-6e-05,-0.00039,-0.00052,-0.00011,-3e-05,-5e-05,6,7
33250,-3e-05,-6e-05,-6e-05,-0.00039,-0.00052,-0.00011,-3e-05,-5e-05,6,7
33251,-3e-05,-6e-05,-6e-05,-0.00039,-0.00052,-0.00011,-3e-05,-5e-05,6,7
33252,-3e-05,-6e-05,-6e-05,-0.00039,-0.00052,-0.00011,-3e-05,-5e-05,6,7
33253,-3e-05,-6e-05,-6e-05,-0.00039,-0.00052,-0.00011,-3e-05,-5e-05,6,7
33254,-3e-05,-6e-05,-6e-05,-0.00039,-0.00052,-0.00011,-3e-05,-5e-05,6,7
33255,-3e-05,-6e-05,-6e-05,-0.00039,-0.00052,-0.00011,-3e-05,-5e-05,6,7
33256,-3e-05,-6e-05,-6e-05,-0.00039,-0.00052,-0.00011,-3e-05,-5e-05,6,7
33257,-3e-05,-6e-05,-6e-05,-0.00039,-0.00052,-0.00011,-3e-05,-5e-05,6,7
33258,-3e-05,-6e-05,-6e-05,-0.00039,-0.00052,-0.00011,-3e-05,-5e-05,6,7
33259,0,-1e-05,5e-05,0.00033,0.0004,-0.00019,-0.0001,2e-05,6,7
33260,-1e-05,0,-2e-05,-0.00031,-0.00047,-0.00018,-9e-05,-2e-05,6,7
33261,-1e-05,0,-2e-05,-0.00031,-0.00047,-0.00018,-9e-05,-2e-05,6,7
33262,-1e-05,0,-2e-05,-0.00031,-0.00047,-0.00018,-9e-05,-2e-05,6,7
33263,-1e-05,0,-2e-05,-0.00031,-0.00047,-0.00018,-9e-05,-2e-05,6,7
33264,-1e-05,0,-2e-05,-0.00031,-0.00047,-0.00018,-9e-05,-2e-05,6,7
33265,-1e-05,0,-2e-05,-0.00031,-0.00047,-0.00018,-9e-05,-2e-05,6,7
33266,-1e-05,0,-2e-05,-0.00031,-0.00047,-0.00018,-9e-05,-2e-05,6,7
33267,-1e-05,0,-2e-05,-0.00031,-0.00047,-0.00018,-9e-05,-2e-05,6,7
33268,-1e-05,0,-2e-05,-0.00031,-0.00047,-0.00018,-9e-05,-2e-05,6,7
33269,-1e-05,0,-2e-05,-0.00031,-0.00047,-0.00018,-9e-05,-2e-05,6,7
33270,-1e-05,0,-2e-05,-0.00031,-0.00047,-0.00018,-9e-05,-2e-05,6,7
33271,-1e-05,0,-2e-05,-0.00031,-0.00047,-0.00018,-9e-05,-2e-05,6,7
33272,-1e-05,0,-2e-05,-0.00031,-0.00047,-0.00018,-9e-05,-2e-05,6,7
33273,-1e-05,0,-2e-05,-0.00031,-0.00047,-0.00018,-9e-05,-2e-05,6,7
33274,-2e-05,-3e-05,-4e-05,-5e-05,-0.00036,-8e-05,0,-5e-05,6,7
33275,0,1e-05,5e-05,0.00028,0.00079,-0.00011,0,-3e-05,6,7
33276,0,1e-05,5e-05,0.00028,0.00079,-0.00011,0,-3e-05,6,7
33277,0,1e-05,5e-05,0.00028,0.00079,-0.00011,0,-3e-05,6,7
33278,0,1e-05,5e-05,0.00028,0.00079,-0.00011,0,-3e-05,6,7
33279,0,1e-05,5e-05,0.00028,0.00079,-0.00011,0,-3e-05,6,7
33280,0,1e-05,5e-05,0.00028,0.00079,-0.00011,0,-3e-05,6,7
33281,0,1e-05,5e-05,0.00028,0.00079,-0.00011,0,-3e-05,6,7
33282,0,1e-05,5e-05,0.00028,0.00079,-0.00011,0,-3e-05,6,7
33283,0,1e-05,5e-05,0.00028,0.00079,-0.00011,0,-3e-05,6,7
33284,0,1e-05,5e-05,0.00028,0.00079,-0.00011,0,-3e-05,6,7
33285,0,1e-05,5e-05,0.00028,0.00079,-0.00011,0,-3e-05,6,7
33286,0,1e-05,5e-05,0.00028,0.00079,-0.00011,0,-3e-05,6,7
33288,0,1e-05,5e-05,0.00028,0.00079,-0.00011,0,-3e-05,6,7
33289,0,1e-05,5e-05,0.00028,0.00079,-0.00011,0,-3e-05,6,7
33290,0,1e-05,5e-05,0.00028,0.00079,-0.00011,0,-3e-05,6,7
33291,0,1e-05,5e-05,0.00028,0.00079,-0.00011,0,-3e-05,6,7
33292,0,1e-05,5e-05,0.00028,0.00079,-0.00011,0,-3e-05,6,7
33293,0,1e-05,5e-05,0.00028,0.00079,-0.00011,0,-3e-05,6,7
33294,0,1e-05,5e-05,0.00028,0.00079,-0.00011,0,-3e-05,6,7
33295,0,1e-05,5e-05,0.00028,0.00079,-0.00011,0,-3e-05,6,7
33296,0,1e-05,5e-05,0.00028,0.00079,-0.00011,0,-3e-05,6,7
33297,1e-05,2e-05,6e-05,3e-05,-0.00031,9e-05,2e-05,-0.00014,6,7
33298,-2e-05,-6e-05,-5e-05,-0.00017,-0.0006,-9e-05,-3e-05,-2e-05,6,7
33299,-2e-05,-6e-05,-5e-05,-0.00017,-0.0006,-9e-05,-3e-05,-2e-05,6,7
33300,-2e-05,-6e-05,-5e-05,-0.00017,-0.0006,-9e-05,-3e-05,-2e-05,6,7
33301,-2e-05,-6e-05,-5e-05,-0.00017,-0.0006,-9e-05,-3e-05,-2e-05,6,7
33302,-2e-05,-6e-05,-5e-05,-0.00017,-0.0006,-9e-05,-3e-05,-2e-05,6,7
33303,-2e-05,-6e-05,-5e-05,-0.00017,-0.0006,-9e-05,-3e-05,-2e-05,6,7
33304,-2e-05,-6e-05,-5e-05,-0.00017,-0.0006,-9e-05,-3e-05,-2e-05,6,7
33305,-2e-05,-6e-05,-5e-05,-0.00017,-0.0006,-9e-05,-3e-05,-2e-05,6,7
33306,-2e-05,-6e-05,-5e-05,-0.00017,-0.0006,-9e-05,-3e-05,-2e-05,6,7
33307,-2e-05,-6e-05,-5e-05,-0.00017,-0.0006,-9e-05,-3e-05,-2e-05,6,7
33308,-2e-05,-6e-05,-5e-05,-0.00017,-0.0006,-9e-05,-3e-05,-2e-05,6,7
33309,-2e-05,-6e-05,-5e-05,-0.00017,-0.0006,-9e-05,-3e-05,-2e-05,6,7
33310,-2e-05,-6e-05,-5e-05,-0.00017,-0.0006,-9e-05,-3e-05,-2e-05,6,7
33311,-2e-05,-6e-05,-5e-05,-0.00017,-0.0006,-9e-05,-3e-05,-2e-05,6,7
33312,-2e-05,-6e-05,-5e-05,-0.00017,-0.0006,-9e-05,-3e-05,-2e-05,6,7
33313,-2e-05,-6e-05,-5e-05,-0.00017,-0.0006,-9e-05,-3e-05,-2e-05,6,7
33314,-2e-05,-6e-05,-5e-05,-0.00017,-0.0006,-9e-05,-3e-05,-2e-05,6,7
33315,-2e-05,-6e-05,-5e-05,-0.00017,-0.0006,-9e-05,-3e-05,-2e-05,6,7
33316,-2e-05,-6e-05,-5e-05,-0.00017,-0.0006,-9e-05,-3e-05,-2e-05,6,7
33317,-2e-05,-6e-05,-5e-05,-0.00017,-0.0006,-9e-05,-3e-05,-2e-05,6,7
33318,-2e-05,-6e-05,-5e-05,-0.00017,-0.0006,-9e-05,-3e-05,-2e-05,6,7
33319,-1e-05,-1e-05,-1e-05,-3e-05,7e-05,-0.00015,-0.0001,2e-05,6,7
33320,-1e-05,-3e-05,-0.00013,-0.00028,-0.00087,-0.00018,-0.00016,-4e-05,6,7
33321,-1e-05,-3e-05,-0.00013,-0.00028,-0.00087,-0.00018,-0.00016,-4e-05,6,7
33322,-1e-05,-3e-05,-0.00013,-0.00028,-0.00087,-0.00018,-0.00016,-4e-05,6,7
33323,-1e-05,-3e-05,-0.00013,-0.00028,-0.00087,-0.00018,-0.00016,-4e-05,6,7
33324,-1e-05,-3e-05,-0.00013,-0.00028,-0.00087,-0.00018,-0.00016,-4e-05,6,7
33325,-1e-05,-3e-05,-0.00013,-0.00028,-0.00087,-0.00018,-0.00016,-4e-05,6,7
33326,-1e-05,-3e-05,-0.00013,-0.00028,-0.00087,-0.00018,-0.00016,-4e-05,6,7
33327,-1e-05,-3e-05,-0.00013,-0.00028,-0.00087,-0.00018,-0.00016,-4e-05,6,7
33328,-1e-05,-3e-05,-0.00013,-0.00028,-0.00087,-0.00018,-0.00016,-4e-05,6,7
33329,-1e-05,-3e-05,-0.00013,-0.00028,-0.00087,-0.00018,-0.00016,-4e-05,6,7
33330,-1e-05,-3e-05,-0.00013,-0.00028,-0.00087,-0.00018,-0.00016,-4e-05,6,7
33331,-1e-05,-3e-05,-0.00013,-0.00028,-0.00087,-0.00018,-0.00016,-4e-05,6,7
33332,-1e-05,-3e-05,-0.00013,-0.00028,-0.00087,-0.00018,-0.00016,-4e-05,6,7
33333,-1e-05,-3e-05,-0.00013,-0.00028,-0.00087,-0.00018,-0.00016,-4e-05,6,7
33334,-1e-05,-3e-05,-0.00013,-0.00028,-0.00087,-0.00018,-0.00016,-4e-05,6,7
33335,-1e-05,-3e-05,-0.00013,-0.00028,-0.00087,-0.00018,-0.00016,-4e-05,6,7
33336,-1e-05,-3e-05,-0.00013,-0.00028,-0.00087,-0.00018,-0.00016,-4e-05,6,7
33338,-1e-05,-3e-05,-0.00013,-0.00028,-0.00087,-0.00018,-0.00016,-4e-05,6,7
33339,-1e-05,-3e-05,-0.00013,-0.00028,-0.00087,-0.00018,-0.00016,-4e-05,6,7
33340,-1e-05,-3e-05,-0.00013,-0.00028,-0.00087,-0.00018,-0.00016,-4e-05,6,7
33341,-1e-05,-3e-05,-0.00013,-0.00028,-0.00087,-0.00018,-0.00016,-4e-05,6,7
33342,-1e-05,-3e-05,-0.00013,-0.00028,-0.00087,-0.00018,-0.00016,-4e-05,6,7
33343,-1e-05,-3e-05,-0.00013,-0.00028,-0.00087,-0.00018,-0.00016,-4e-05,6,7
33344,-1e-05,-3e-05,-0.00013,-0.00028,-0.00087,-0.00018,-0.00016,-4e-05,6,7
33345,-1e-05,-3e-05,-0.00013,-0.00028,-0.00087,-0.00018,-0.00016,-4e-05,6,7
33346,-1e-05,-3e-05,-0.00013,-0.00028,-0.00087,-0.00018,-0.00016,-4e-05,6,7
33347,-1e-05,-3e-05,-0.00013,-0.00028,-0.00087,-0.00018,-0.00016,-4e-05,6,7
33348,-1e-05,-3e-05,-0.00013,-0.00028,-0.00087,-0.00018,-0.00016,-4e-05,6,7
33349,0,-3e-05,-4e-05,0.00012,0.00013,0.00015,-7e-05,6e-05,6,7
33350,-4e-05,-2e-05,1e-05,9e-05,-1e-05,0,-2e-05,1e-05,6,7
33351,-4e-05,-2e-05,1e-05,9e-05,-1e-05,0,-2e-05,1e-05,6,7
33352,-4e-05,-2e-05,1e-05,9e-05,-1e-05,0,-2e-05,1e-05,6,7
33353,-4e-05,-2e-05,1e-05,9e-05,-1e-05,0,-2e-05,1e-05,6,7
33354,-4e-05,-2e-05,1e-05,9e-05,-1e-05,0,-2e-05,1e-05,6,7
33355,-4e-05,-2e-05,1e-05,9e-05,-1e-05,0,-2e-05,1e-05,6,7
33356,-4e-05,-2e-05,1e-05,9e-05,-1e-05,0,-2e-05,1e-05,6,7
33357,-4e-05,-2e-05,1e-05,9e-05,-1e-05,0,-2e-05,1e-05,6,7
33358,0,0,0,0,-0.00044,-0.00012,8e-05,3e-05,6,7
33359,0,0,0,0,-0.00044,-0.00012,8e-05,3e-05,6,7
33360,0,0,0,0,-0.00044,-0.00012,8e-05,3e-05,6,7
33361,0,0,0,0,-0.00044,-0.00012,8e-05,3e-05,6,7
33362,0,0,0,0,-0.00044,-0.00012,8e-05,3e-05,6,7
33363,0,0,0,0,-0.00044,-0.00012,8e-05,3e-05,6,7
33364,0,0,0,0,-0.00044,-0.00012,8e-05,3e-05,6,7
33365,0,0,0,0,-0.00044,-0.00012,8e-05,3e-05,6,7
33366,0,0,0,0,-0.00044,-0.00012,8e-05,3e-05,6,7
33367,0,0,0,0,-0.00044,-0.00012,8e-05,3e-05,6,7
33368,0,0,0,0,-0.00044,-0.00012,8e-05,3e-05,6,7
33369,0,0,0,0,-0.00044,-0.00012,8e-05,3e-05,6,7
33370,0,0,0,0,-0.00044,-0.00012,8e-05,3e-05,6,7
33371,1e-05,2e-05,0,-0.00026,0.00101,2e-05,-3e-05,-1e-05,6,7
33372,1e-05,2e-05,0,-0.00026,0.00101,2e-05,-3e-05,-1e-05,6,7
33373,1e-05,2e-05,0,-0.00026,0.00101,2e-05,-3e-05,-1e-05,6,7
33374,1e-05,2e-05,0,-0.00026,0.00101,2e-05,-3e-05,-1e-05,6,7
33375,1e-05,2e-05,0,-0.00026,0.00101,2e-05,-3e-05,-1e-05,6,7
33376,1e-05,2e-05,0,-0.00026,0.00101,2e-05,-3e-05,-1e-05,6,7
33377,1e-05,2e-05,0,-0.00026,0.00101,2e-05,-3e-05,-1e-05,6,7
33378,1e-05,2e-05,0,-0.00026,0.00101,2e-05,-3e-05,-1e-05,6,7
33379,1e-05,1e-05,0.00011,0.0002,-0.00077,-5e-05,8e-05,3e-05,6,7
33380,1e-05,1e-05,0.00011,0.0002,-0.00077,-5e-05,8e-05,3e-05,6,7
33381,1e-05,1e-05,0.00011,0.0002,-0.00077,-5e-05,8e-05,3e-05,6,7
33382,1e-05,1e-05,0.00011,0.0002,-0.00077,-5e-05,8e-05,3e-05,6,7
33383,1e-05,1e-05,0.00011,0.0002,-0.00077,-5e-05,8e-05,3e-05,6,7
33384,1e-05,1e-05,0.00011,0.0002,-0.00077,-5e-05,8e-05,3e-05,6,7
33385,1e-05,1e-05,0.00011,0.0002,-0.00077,-5e-05,8e-05,3e-05,6,7
33386,1e-05,1e-05,0.00011,0.0002,-0.00077,-5e-05,8e-05,3e-05,6,7
33388,1e-05,1e-05,0.00011,0.0002,-0.00077,-5e-05,8e-05,3e-05,6,7
33389,1e-05,1e-05,0.00011,0.0002,-0.00077,-5e-05,8e-05,3e-05,6,7
33390,1e-05,1e-05,0.00011,0.0002,-0.00077,-5e-05,8e-05,3e-05,6,7
33391,1e-05,1e-05,0.00011,0.0002,-0.00077,-5e-05,8e-05,3e-05,6,7
33392,1e-05,1e-05,0.00011,0.0002,-0.00077,-5e-05,8e-05,3e-05,6,7
33393,1e-05,1e-05,0.00011,0.0002,-0.00077,-5e-05,8e-05,3e-05,6,7
33394,1e-05,1e-05,0.00011,0.0002,-0.00077,-5e-05,8e-05,3e-05,6,7
33395,1e-05,1e-05,0.00011,0.0002,-0.00077,-5e-05,8e-05,3e-05,6,7
33396,1e-05,1e-05,0.00011,0.0002,-0.00077,-5e-05,8e-05,3e-05,6,7
33397,1e-05,1e-05,0.00011,0.0002,-0.00077,-5e-05,8e-05,3e-05,6,7
33398,1e-05,1e-05,0.00011,0.0002,-0.00077,-5e-05,8e-05,3e-05,6,7
33399,1e-05,1e-05,0.00011,0.0002,-0.00077,-5e-05,8e-05,3e-05,6,7
33400,1e-05,1e-05,0.00011,0.0002,-0.00077,-5e-05,8e-05,3e-05,6,7
33401,1e-05,1e-05,0.00011,0.0002,-0.00077,-5e-05,8e-05,3e-05,6,7
33402,-1e-05,0,-2e-05,0.00041,-0.00082,-0.0002,-5e-05,1e-05,6,7
33403,-1e-05,0,5e-05,-4e-05,0.00046,-0.00025,-0.00024,-3e-05,6,7
33404,-1e-05,0,5e-05,-4e-05,0.00046,-0.00025,-0.00024,-3e-05,6,7
33405,-1e-05,0,5e-05,-4e-05,0.00046,-0.00025,-0.00024,-3e-05,6,7
33406,-1e-05,0,5e-05,-4e-05,0.00046,-0.00025,-0.00024,-3e-05,6,7
33407,-1e-05,0,5e-05,-4e-05,0.00046,-0.00025,-0.00024,-3e-05,6,7
33408,-1e-05,0,5e-05,-4e-05,0.00046,-0.00025,-0.00024,-3e-05,6,7
33409,-1e-05,0,5e-05,-4e-05,0.00046,-0.00025,-0.00024,-3e-05,6,7
33410,-1e-05,0,5e-05,-4e-05,0.00046,-0.00025,-0.00024,-3e-05,6,7
33411,-1e-05,0,5e-05,-4e-05,0.00046,-0.00025,-0.00024,-3e-05,6,7
33412,-1e-05,0,5e-05,-4e-05,0.00046,-0.00025,-0.00024,-3e-05,6,7
33413,-1e-05,0,5e-05,-4e-05,0.00046,-0.00025,-0.00024,-3e-05,6,7
33414,-1e-05,0,5e-05,-4e-05,0.00046,-0.00025,-0.00024,-3e-05,6,7
33415,-1e-05,0,5e-05,-4e-05,0.00046,-0.00025,-0.00024,-3e-05,6,7
33416,-1e-05,0,5e-05,-4e-05,0.00046,-0.00025,-0.00024,-3e-05,6,7
33417,-1e-05,0,5e-05,-4e-05,0.00046,-0.00025,-0.00024,-3e-05,6,7
33418,-1e-05,0,5e-05,-4e-05,0.00046,-0.00025,-0.00024,-3e-05,6,7
33419,-1e-05,0,5e-05,-4e-05,0.00046,-0.00025,-0.00024,-3e-05,6,7
33420,-1e-05,0,5e-05,-4e-05,0.00046,-0.00025,-0.00024,-3e-05,6,7
33421,-1e-05,0,5e-05,-4e-05,0.00046,-0.00025,-0.00024,-3e-05,6,7
33422,-1e-05,0,5e-05,-4e-05,0.00046,-0.00025,-0.00024,-3e-05,6,7
33423,-1e-05,0,5e-05,-4e-05,0.00046,-0.00025,-0.00024,-3e-05,6,7
33424,-2e-05,-2e-05,-1e-05,-6e-05,-0.0009,-1e-05,-7e-05,-2e-05,6,7
33425,-3e-05,-4e-05,-3e-05,0.00011,0.00012,0.00016,8e-05,-4e-05,6,7
33426,-3e-05,-4e-05,-3e-05,0.00011,0.00012,0.00016,8e-05,-4e-05,6,7
33427,-3e-05,-4e-05,-3e-05,0.00011,0.00012,0.00016,8e-05,-4e-05,6,7
33428,-3e-05,-4e-05,-3e-05,0.00011,0.00012,0.00016,8e-05,-4e-05,6,7
33429,-3e-05,-4e-05,-3e-05,0.00011,0.00012,0.00016,8e-05,-4e-05,6,7
33430,-3e-05,-4e-05,-3e-05,0.00011,0.00012,0.00016,8e-05,-4e-05,6,7
33431,-1e-05,0,-3e-05,2e-05,0.00058,-6e-05,0.00012,0.00015,6,7
33432,-1e-05,0,-3e-05,2e-05,0.00058,-6e-05,0.00012,0.00015,6,7
33433,-1e-05,0,-3e-05,2e-05,0.00058,-6e-05,0.00012,0.00015,6,7
33434,-1e-05,0,-3e-05,2e-05,0.00058,-6e-05,0.00012,0.00015,6,7
33435,-1e-05,0,-3e-05,2e-05,0.00058,-6e-05,0.00012,0.00015,6,7
33436,-1e-05,0,-3e-05,2e-05,0.00058,-6e-05,0.00012,0.00015,6,7
33438,-1e-05,0,-3e-05,2e-05,0.00058,-6e-05,0.00012,0.00015,6,7
33439,-4e-05,-5e-05,-6e-05,-0.00033,-2e-05,7e-05,-2e-05,-6e-05,6,7
33440,-4e-05,-5e-05,-6e-05,-0.00033,-2e-05,7e-05,-2e-05,-6e-05,6,7
33441,-4e-05,-5e-05,-6e-05,-0.00033,-2e-05,7e-05,-2e-05,-6e-05,6,7
33442,-4e-05,-5e-05,-6e-05,-0.00033,-2e-05,7e-05,-2e-05,-6e-05,6,7
33443,-4e-05,-5e-05,-6e-05,-0.00033,-2e-05,7e-05,-2e-05,-6e-05,6,7
33444,-4e-05,-5e-05,-6e-05,-0.00033,-2e-05,7e-05,-2e-05,-6e-05,6,7
33445,-4e-05,-5e-05,-6e-05,-0.00033,-2e-05,7e-05,-2e-05,-6e-05,6,7
33446,-4e-05,-5e-05,-6e-05,-0.00033,-2e-05,7e-05,-2e-05,-6e-05,6,7
33447,-4e-05,-5e-05,-6e-05,-0.00033,-2e-05,7e-05,-2e-05,-6e-05,6,7
33448,-4e-05,-5e-05,-6e-05,-0.00033,-2e-05,7e-05,-2e-05,-6e-05,6,7
33449,-4e-05,-5e-05,-6e-05,-0.00033,-2e-05,7e-05,-2e-05,-6e-05,6,7
33450,-4e-05,-5e-05,-6e-05,-0.00033,-2e-05,7e-05,-2e-05,-6e-05,6,7
33451,-4e-05,-5e-05,-6e-05,-0.00033,-2e-05,7e-05,-2e-05,-6e-05,6,7
33452,-4e-05,-5e-05,-6e-05,-0.00033,-2e-05,7e-05,-2e-05,-6e-05,6,7
33453,-4e-05,-5e-05,-6e-05,-0.00033,-2e-05,7e-05,-2e-05,-6e-05,6,7
33454,-4e-05,-5e-05,-6e-05,-0.00033,-2e-05,7e-05,-2e-05,-6e-05,6,7
33455,-2e-05,-3e-05,-2e-05,-7e-05,2e-05,5e-05,5e-05,-1e-05,6,7
33456,1e-05,4e-05,3e-05,-0.0001,8e-05,0.00013,6e-05,2e-05,6,7
33457,1e-05,4e-05,3e-05,-0.0001,8e-05,0.00013,6e-05,2e-05,6,7
33458,1e-05,4e-05,3e-05,-0.0001,8e-05,0.00013,6e-05,2e-05,6,7
33459,1e-05,4e-05,3e-05,-0.0001,8e-05,0.00013,6e-05,2e-05,6,7
33460,1e-05,4e-05,3e-05,-0.0001,8e-05,0.00013,6e-05,2e-05,6,7
33461,1e-05,4e-05,3e-05,-0.0001,8e-05,0.00013,6e-05,2e-05,6,7
33462,1e-05,4e-05,3e-05,-0.0001,8e-05,0.00013,6e-05,2e-05,6,7
33463,1e-05,4e-05,3e-05,-0.0001,8e-05,0.00013,6e-05,2e-05,6,7
33464,1e-05,4e-05,3e-05,-0.0001,8e-05,0.00013,6e-05,2e-05,6,7
33465,1e-05,4e-05,3e-05,-0.0001,8e-05,0.00013,6e-05,2e-05,6,7
33466,1e-05,4e-05,3e-05,-0.0001,8e-05,0.00013,6e-05,2e-05,6,7
33467,1e-05,4e-05,3e-05,-0.0001,8e-05,0.00013,6e-05,2e-05,6,7
33468,1e-05,4e-05,3e-05,-0.0001,8e-05,0.00013,6e-05,2e-05,6,7
33469,1e-05,4e-05,3e-05,-0.0001,8e-05,0.00013,6e-05,2e-05,6,7
33470,1e-05,4e-05,3e-05,-0.0001,8e-05,0.00013,6e-05,2e-05,6,7
33471,1e-05,4e-05,3e-05,-0.0001,8e-05,0.00013,6e-05,2e-05,6,7
33472,1e-05,4e-05,3e-05,-0.0001,8e-05,0.00013,6e-05,2e-05,6,7
33473,1e-05,4e-05,3e-05,-0.0001,8e-05,0.00013,6e-05,2e-05,6,7
33474,1e-05,4e-05,3e-05,-0.0001,8e-05,0.00013,6e-05,2e-05,6,7
33475,1e-05,4e-05,3e-05,-0.0001,8e-05,0.00013,6e-05,2e-05,6,7
33476,1e-05,4e-05,3e-05,-0.0001,8e-05,0.00013,6e-05,2e-05,6,7
33477,1e-05,4e-05,3e-05,-0.0001,8e-05,0.00013,6e-05,2e-05,6,7
33478,1e-05,4e-05,3e-05,-0.0001,8e-05,0.00013,6e-05,2e-05,6,7
33479,1e-05,4e-05,3e-05,-0.0001,8e-05,0.00013,6e-05,2e-05,6,7
33480,1e-05,4e-05,3e-05,-0.0001,8e-05,0.00013,6e-05,2e-05,6,7
33481,1e-05,4e-05,3e-05,-0.0001,8e-05,0.00013,6e-05,2e-05,6,7
33482,1e-05,4e-05,3e-05,-0.0001,8e-05,0.00013,6e-05,2e-05,6,7
33483,1e-05,4e-05,3e-05,-0.0001,8e-05,0.00013,6e-05,2e-05,6,7
33484,-1e-05,-3e-05,-2e-05,-0.00038,-0.00026,0,-3e-05,-3e-05,6,7
33485,1e-05,1e-05,0,0.00031,0.00028,0.00014,-7e-05,-2e-05,6,7
33486,1e-05,1e-05,0,0.00031,0.00028,0.00014,-7e-05,-2e-05,6,7
33488,1e-05,1e-05,0,0.00031,0.00028,0.00014,-7e-05,-2e-05,6,7
33489,1e-05,1e-05,0,0.00031,0.00028,0.00014,-7e-05,-2e-05,6,7
33490,0,3e-05,3e-05,2e-05,0,0.00018,9e-05,3e-05,6,7
33491,1e-05,0,1e-05,9e-05,4e-05,-0.00023,-0.00012,-4e-05,6,7
33492,1e-05,0,1e-05,9e-05,4e-05,-0.00023,-0.00012,-4e-05,6,7
33493,1e-05,0,1e-05,9e-05,4e-05,-0.00023,-0.00012,-4e-05,6,7
33494,1e-05,0,1e-05,9e-05,4e-05,-0.00023,-0.00012,-4e-05,6,7
33495,1e-05,0,1e-05,9e-05,4e-05,-0.00023,-0.00012,-4e-05,6,7
33496,1e-05,0,1e-05,9e-05,4e-05,-0.00023,-0.00012,-4e-05,6,7
33497,1e-05,0,1e-05,9e-05,4e-05,-0.00023,-0.00012,-4e-05,6,7
33498,1e-05,0,1e-05,9e-05,4e-05,-0.00023,-0.00012,-4e-05,6,7
33499,2e-05,2e-05,4e-05,0.00016,0.00044,-1e-05,9e-05,2e-05,6,7
33500,2e-05,2e-05,4e-05,0.00016,0.00044,-1e-05,9e-05,2e-05,6,7
33501,2e-05,2e-05,4e-05,0.00016,0.00044,-1e-05,9e-05,2e-05,6,7
33502,2e-05,2e-05,4e-05,0.00016,0.00044,-1e-05,9e-05,2e-05,6,7
33503,2e-05,2e-05,4e-05,0.00016,0.00044,-1e-05,9e-05,2e-05,6,7
33504,2e-05,2e-05,4e-05,0.00016,0.00044,-1e-05,9e-05,2e-05,6,7
33505,2e-05,2e-05,4e-05,0.00016,0.00044,-1e-05,9e-05,2e-05,6,7
33506,2e-05,2e-05,4e-05,0.00016,0.00044,-1e-05,9e-05,2e-05,6,7
33507,2e-05,2e-05,4e-05,0.00016,0.00044,-1e-05,9e-05,2e-05,6,7
33508,2e-05,2e-05,4e-05,0.00016,0.00044,-1e-05,9e-05,2e-05,6,7
33509,2e-05,2e-05,4e-05,0.00016,0.00044,-1e-05,9e-05,2e-05,6,7
33510,2e-05,2e-05,4e-05,0.00016,0.00044,-1e-05,9e-05,2e-05,6,7
33511,2e-05,2e-05,4e-05,0.00016,0.00044,-1e-05,9e-05,2e-05,6,7
33512,2e-05,2e-05,4e-05,0.00016,0.00044,-1e-05,9e-05,2e-05,6,7
33513,2e-05,2e-05,4e-05,0.00016,0.00044,-1e-05,9e-05,2e-05,6,7
33514,-5e-05,-7e-05,-7e-05,-2e-05,-0.00016,0.00016,-3e-05,-6e-05,6,7
33515,-1e-05,-1e-05,4e-05,0.00015,0.00016,-0.00014,8e-05,-1e-05,6,7
33516,-1e-05,-1e-05,4e-05,0.00015,0.00016,-0.00014,8e-05,-1e-05,6,7
33517,-1e-05,-1e-05,4e-05,0.00015,0.00016,-0.00014,8e-05,-1e-05,6,7
33518,-1e-05,-1e-05,4e-05,0.00015,0.00016,-0.00014,8e-05,-1e-05,6,7
33519,-1e-05,-1e-05,4e-05,0.00015,0.00016,-0.00014,8e-05,-1e-05,6,7
33520,-1e-05,-1e-05,4e-05,0.00015,0.00016,-0.00014,8e-05,-1e-05,6,7
33521,-1e-05,-1e-05,4e-05,0.00015,0.00016,-0.00014,8e-05,-1e-05,6,7
33522,-1e-05,-1e-05,4e-05,0.00015,0.00016,-0.00014,8e-05,-1e-05,6,7
33523,-1e-05,-1e-05,4e-05,0.00015,0.00016,-0.00014,8e-05,-1e-05,6,7
33524,-1e-05,-1e-05,4e-05,0.00015,0.00016,-0.00014,8e-05,-1e-05,6,7
33525,-1e-05,-1e-05,4e-05,0.00015,0.00016,-0.00014,8e-05,-1e-05,6,7
33526,-1e-05,-1e-05,4e-05,0.00015,0.00016,-0.00014,8e-05,-1e-05,6,7
33527,-1e-05,-1e-05,4e-05,0.00015,0.00016,-0.00014,8e-05,-1e-05,6,7
33528,-1e-05,-1e-05,4e-05,0.00015,0.00016,-0.00014,8e-05,-1e-05,6,7
33529,-1e-05,-1e-05,4e-05,0.00015,0.00016,-0.00014,8e-05,-1e-05,6,7
33530,-1e-05,-1e-05,4e-05,0.00015,0.00016,-0.00014,8e-05,-1e-05,6,7
33531,-1e-05,-1e-05,4e-05,0.00015,0.00016,-0.00014,8e-05,-1e-05,6,7
33532,-1e-05,-1e-05,4e-05,0.00015,0.00016,-0.00014,8e-05,-1e-05,6,7
33533,-1e-05,-1e-05,4e-05,0.00015,0.00016,-0.00014,8e-05,-1e-05,6,7
33534,-1e-05,-1e-05,4e-05,0.00015,0.00016,-0.00014,8e-05,-1e-05,6,7
33535,-1e-05,-1e-05,4e-05,0.00015,0.00016,-0.00014,8e-05,-1e-05,6,7
33536,-1e-05,-1e-05,4e-05,0.00015,0.00016,-0.00014,8e-05,-1e-05,6,7
33539,2e-05,0,-3e-05,-0.0002,8e-05,-5e-05,-0.00022,1e-05,6,7
33540,2e-05,0,-3e-05,-0.0002,8e-05,-5e-05,-0.00022,1e-05,6,7
33541,2e-05,0,-3e-05,-0.0002,8e-05,-5e-05,-0.00022,1e-05,6,7
33542,2e-05,0,-3e-05,-0.0002,8e-05,-5e-05,-0.00022,1e-05,6,7
33543,2e-05,0,-3e-05,-0.0002,8e-05,-5e-05,-0.00022,1e-05,6,7
33544,2e-05,0,-3e-05,-0.0002,8e-05,-5e-05,-0.00022,1e-05,6,7
33545,2e-05,0,-3e-05,-0.0002,8e-05,-5e-05,-0.00022,1e-05,6,7
33546,2e-05,0,-3e-05,-0.0002,8e-05,-5e-05,-0.00022,1e-05,6,7
33547,2e-05,0,-3e-05,-0.0002,8e-05,-5e-05,-0.00022,1e-05,6,7
33548,2e-05,0,-3e-05,-0.0002,8e-05,-5e-05,-0.00022,1e-05,6,7
33549,2e-05,0,-3e-05,-0.0002,8e-05,-5e-05,-0.00022,1e-05,6,7
33550,0,1e-05,2e-05,-2e-05,0.00038,2e-05,0.00023,-3e-05,6,7
33551,-2e-05,-1e-05,2e-05,0.0001,0.00017,7e-05,-8e-05,-3e-05,6,7
33552,-2e-05,-1e-05,2e-05,0.0001,0.00017,7e-05,-8e-05,-3e-05,6,7
33553,-2e-05,-1e-05,2e-05,0.0001,0.00017,7e-05,-8e-05,-3e-05,6,7
33554,-2e-05,-1e-05,2e-05,0.0001,0.00017,7e-05,-8e-05,-3e-05,6,7
33555,-2e-05,-1e-05,2e-05,0.0001,0.00017,7e-05,-8e-05,-3e-05,6,7
33556,-2e-05,-1e-05,2e-05,0.0001,0.00017,7e-05,-8e-05,-3e-05,6,7
33557,-2e-05,-1e-05,2e-05,0.0001,0.00017,7e-05,-8e-05,-3e-05,6,7
33558,-2e-05,-1e-05,2e-05,0.0001,0.00017,7e-05,-8e-05,-3e-05,6,7
33559,-2e-05,-1e-05,2e-05,0.0001,0.00017,7e-05,-8e-05,-3e-05,6,7
33560,-2e-05,-1e-05,2e-05,0.0001,0.00017,7e-05,-8e-05,-3e-05,6,7
33561,-2e-05,-1e-05,2e-05,0.0001,0.00017,7e-05,-8e-05,-3e-05,6,7
33562,-2e-05,-1e-05,2e-05,0.0001,0.00017,7e-05,-8e-05,-3e-05,6,7
33563,-2e-05,-1e-05,2e-05,0.0001,0.00017,7e-05,-8e-05,-3e-05,6,7
33564,-2e-05,-1e-05,2e-05,0.0001,0.00017,7e-05,-8e-05,-3e-05,6,7
33565,-2e-05,-1e-05,2e-05,0.0001,0.00017,7e-05,-8e-05,-3e-05,6,7
33566,-2e-05,-3e-05,-9e-05,-9e-05,-0.00029,-9e-05,-0.00011,-0.00018,6,7
33567,-2e-05,-3e-05,-9e-05,-9e-05,-0.00029,-9e-05,-0.00011,-0.00018,6,7
33568,-2e-05,-3e-05,-9e-05,-9e-05,-0.00029,-9e-05,-0.00011,-0.00018,6,7
33569,-2e-05,-3e-05,-9e-05,-9e-05,-0.00029,-9e-05,-0.00011,-0.00018,6,7
33570,-2e-05,-3e-05,-9e-05,-9e-05,-0.00029,-9e-05,-0.00011,-0.00018,6,7
33571,-2e-05,-3e-05,-9e-05,-9e-05,-0.00029,-9e-05,-0.00011,-0.00018,6,7
33572,-2e-05,-3e-05,-9e-05,-9e-05,-0.00029,-9e-05,-0.00011,-0.00018,6,7
33573,-1e-05,-1e-05,-7e-05,0.00016,0.00066,-0.00014,0,1e-05,6,7
33574,-1e-05,-1e-05,-7e-05,0.00016,0.00066,-0.00014,0,1e-05,6,7
33575,-1e-05,-1e-05,-7e-05,0.00016,0.00066,-0.00014,0,1e-05,6,7
33576,-1e-05,-1e-05,-7e-05,0.00016,0.00066,-0.00014,0,1e-05,6,7
33577,-1e-05,-1e-05,-7e-05,0.00016,0.00066,-0.00014,0,1e-05,6,7
33578,-1e-05,-1e-05,-7e-05,0.00016,0.00066,-0.00014,0,1e-05,6,7
33579,-1e-05,-1e-05,-7e-05,0.00016,0.00066,-0.00014,0,1e-05,6,7
33580,-1e-05,-1e-05,-7e-05,0.00016,0.00066,-0.00014,0,1e-05,6,7
33581,-1e-05,-1e-05,-7e-05,0.00016,0.00066,-0.00014,0,1e-05,6,7
33582,-2e-05,-2e-05,5e-05,0.00011,9e-05,-0.00011,-0.0001,2e-05,6,7
33583,-2e-05,-2e-05,5e-05,0.00011,9e-05,-0.00011,-0.0001,2e-05,6,7
33584,-2e-05,-2e-05,5e-05,0.00011,9e-05,-0.00011,-0.0001,2e-05,6,7
33585,-2e-05,-2e-05,5e-05,0.00011,9e-05,-0.00011,-0.0001,2e-05,6,7
33586,-2e-05,-2e-05,5e-05,0.00011,9e-05,-0.00011,-0.0001,2e-05,6,7
33588,-2e-05,-2e-05,5e-05,0.00011,9e-05,-0.00011,-0.0001,2e-05,6,7
33589,-2e-05,-2e-05,5e-05,0.00011,9e-05,-0.00011,-0.0001,2e-05,6,7
33590,-2e-05,-2e-05,5e-05,0.00011,9e-05,-0.00011,-0.0001,2e-05,6,7
33591,-2e-05,-2e-05,5e-05,0.00011,9e-05,-0.00011,-0.0001,2e-05,6,7
33592,-2e-05,-2e-05,5e-05,0.00011,9e-05,-0.00011,-0.0001,2e-05,6,7
33593,-2e-05,-2e-05,5e-05,0.00011,9e-05,-0.00011,-0.0001,2e-05,6,7
33594,-2e-05,-2e-05,5e-05,0.00011,9e-05,-0.00011,-0.0001,2e-05,6,7
33595,-2e-05,-2e-05,5e-05,0.00011,9e-05,-0.00011,-0.0001,2e-05,6,7
33596,-2e-05,-2e-05,5e-05,0.00011,9e-05,-0.00011,-0.0001,2e-05,6,7
33597,0,0,7e-05,-0.00016,-0.0008,5e-05,-3e-05,-4e-05,6,7
33598,-1e-05,-4e-05,-9e-05,-9e-05,-0.00013,3e-05,-4e-05,1e-05,6,7
33599,-2e-05,-1e-05,-4e-05,3e-05,-5e-05,-5e-05,5e-05,1e-05,6,7
33600,-2e-05,-1e-05,-4e-05,3e-05,-5e-05,-5e-05,5e-05,1e-05,6,7
33601,-2e-05,-1e-05,-4e-05,3e-05,-5e-05,-5e-05,5e-05,1e-05,6,7
33602,-2e-05,-1e-05,-4e-05,3e-05,-5e-05,-5e-05,5e-05,1e-05,6,7
33603,-2e-05,-1e-05,-4e-05,3e-05,-5e-05,-5e-05,5e-05,1e-05,6,7
33604,-2e-05,-1e-05,-4e-05,3e-05,-5e-05,-5e-05,5e-05,1e-05,6,7
33605,-2e-05,-1e-05,-4e-05,3e-05,-5e-05,-5e-05,5e-05,1e-05,6,7
33606,-2e-05,-1e-05,-4e-05,3e-05,-5e-05,-5e-05,5e-05,1e-05,6,7
33607,-2e-05,-1e-05,-4e-05,3e-05,-5e-05,-5e-05,5e-05,1e-05,6,7
33608,-2e-05,-1e-05,-4e-05,3e-05,-5e-05,-5e-05,5e-05,1e-05,6,7
33609,-2e-05,-1e-05,-4e-05,3e-05,-5e-05,-5e-05,5e-05,1e-05,6,7
33610,-2e-05,-1e-05,-4e-05,3e-05,-5e-05,-5e-05,5e-05,1e-05,6,7
33611,-2e-05,-1e-05,-4e-05,3e-05,-5e-05,-5e-05,5e-05,1e-05,6,7
33612,-2e-05,-1e-05,-4e-05,3e-05,-5e-05,-5e-05,5e-05,1e-05,6,7
33613,-2e-05,-1e-05,-4e-05,3e-05,-5e-05,-5e-05,5e-05,1e-05,6,7
33614,-2e-05,-1e-05,-4e-05,3e-05,-5e-05,-5e-05,5e-05,1e-05,6,7
33615,-2e-05,-1e-05,-4e-05,3e-05,-5e-05,-5e-05,5e-05,1e-05,6,7
33616,-2e-05,-1e-05,-4e-05,3e-05,-5e-05,-5e-05,5e-05,1e-05,6,7
33617,-2e-05,-1e-05,-4e-05,3e-05,-5e-05,-5e-05,5e-05,1e-05,6,7
33618,-2e-05,-1e-05,-4e-05,3e-05,-5e-05,-5e-05,5e-05,1e-05,6,7
33619,-2e-05,-1e-05,-4e-05,3e-05,-5e-05,-5e-05,5e-05,1e-05,6,7
33620,-4e-05,0,-6e-05,-7e-05,-0.0007,-0.00013,0,-2e-05,6,7
33621,-1e-05,-1e-05,-2e-05,-0.00023,-0.00085,3e-05,0.00024,5e-05,6,7
33622,-1e-05,-1e-05,-2e-05,-0.00023,-0.00085,3e-05,0.00024,5e-05,6,7
33623,-1e-05,-1e-05,-2e-05,-0.00023,-0.00085,3e-05,0.00024,5e-05,6,7
33624,-1e-05,-1e-05,-2e-05,-0.00023,-0.00085,3e-05,0.00024,5e-05,6,7
33625,-1e-05,-1e-05,-2e-05,-0.00023,-0.00085,3e-05,0.00024,5e-05,6,7
33626,-1e-05,-1e-05,-2e-05,-0.00023,-0.00085,3e-05,0.00024,5e-05,6,7
33627,-1e-05,-1e-05,-2e-05,-0.00023,-0.00085,3e-05,0.00024,5e-05,6,7
33628,-1e-05,-1e-05,-2e-05,-0.00023,-0.00085,3e-05,0.00024,5e-05,6,7
33629,-1e-05,-1e-05,-2e-05,-0.00023,-0.00085,3e-05,0.00024,5e-05,6,7
33630,-1e-05,-1e-05,-2e-05,-0.00023,-0.00085,3e-05,0.00024,5e-05,6,7
33631,-1e-05,-1e-05,-2e-05,-0.00023,-0.00085,3e-05,0.00024,5e-05,6,7
33632,-1e-05,-1e-05,-2e-05,-0.00023,-0.00085,3e-05,0.00024,5e-05,6,7
33633,-1e-05,-1e-05,-2e-05,-0.00023,-0.00085,3e-05,0.00024,5e-05,6,7
33634,0,-3e-05,2e-05,-0.00012,-0.00063,-6e-05,-5e-05,-3e-05,6,7
33635,0,-3e-05,2e-05,-0.00012,-0.00063,-6e-05,-5e-05,-3e-05,6,7
33636,0,-3e-05,2e-05,-0.00012,-0.00063,-6e-05,-5e-05,-3e-05,6,7
33638,0,-3e-05,2e-05,-0.00012,-0.00063,-6e-05,-5e-05,-3e-05,6,7
33639,0,-3e-05,2e-05,-0.00012,-0.00063,-6e-05,-5e-05,-3e-05,6,7
33640,0,-3e-05,2e-05,-0.00012,-0.00063,-6e-05,-5e-05,-3e-05,6,7
33641,0,-3e-05,2e-05,-0.00012,-0.00063,-6e-05,-5e-05,-3e-05,6,7
33642,0,-3e-05,2e-05,-0.00012,-0.00063,-6e-05,-5e-05,-3e-05,6,7
33643,0,-3e-05,2e-05,-0.00012,-0.00063,-6e-05,-5e-05,-3e-05,6,7
33644,0,-3e-05,2e-05,-0.00012,-0.00063,-6e-05,-5e-05,-3e-05,6,7
33645,0,-3e-05,2e-05,-0.00012,-0.00063,-6e-05,-5e-05,-3e-05,6,7
33646,0,-3e-05,2e-05,-0.00012,-0.00063,-6e-05,-5e-05,-3e-05,6,7
33647,0,-3e-05,2e-05,-0.00012,-0.00063,-6e-05,-5e-05,-3e-05,6,7
33648,-1e-05,1e-05,2e-05,-0.00015,0.00025,0.00036,0.00017,-1e-05,6,7
33649,-1e-05,1e-05,2e-05,-0.00015,0.00025,0.00036,0.00017,-1e-05,6,7
33650,-1e-05,1e-05,2e-05,-0.00015,0.00025,0.00036,0.00017,-1e-05,6,7
33651,-1e-05,1e-05,2e-05,-0.00015,0.00025,0.00036,0.00017,-1e-05,6,7
33652,-1e-05,1e-05,2e-05,-0.00015,0.00025,0.00036,0.00017,-1e-05,6,7
33653,-1e-05,1e-05,2e-05,-0.00015,0.00025,0.00036,0.00017,-1e-05,6,7
33654,-1e-05,1e-05,2e-05,-0.00015,0.00025,0.00036,0.00017,-1e-05,6,7
33655,-1e-05,1e-05,2e-05,-0.00015,0.00025,0.00036,0.00017,-1e-05,6,7
33656,-1e-05,1e-05,2e-05,-0.00015,0.00025,0.00036,0.00017,-1e-05,6,7
33657,1e-05,2e-05,0,0,0.00012,-0.00011,4e-05,-1e-05,6,7
33658,-2e-05,-2e-05,-1e-05,3e-05,0.00019,-0.00012,2e-05,-3e-05,6,7
33659,-2e-05,-1e-05,-1e-05,-7e-05,-0.00051,-0.00011,-0.00016,-2e-05,6,7
33660,-2e-05,-1e-05,-1e-05,-7e-05,-0.00051,-0.00011,-0.00016,-2e-05,6,7
33661,-2e-05,-1e-05,-1e-05,-7e-05,-0.00051,-0.00011,-0.00016,-2e-05,6,7
33662,-2e-05,-1e-05,-1e-05,-7e-05,-0.00051,-0.00011,-0.00016,-2e-05,6,7
33663,-2e-05,-1e-05,-1e-05,-7e-05,-0.00051,-0.00011,-0.00016,-2e-05,6,7
33664,-2e-05,-1e-05,-1e-05,-7e-05,-0.00051,-0.00011,-0.00016,-2e-05,6,7
33665,-2e-05,-1e-05,-1e-05,-7e-05,-0.00051,-0.00011,-0.00016,-2e-05,6,7
33666,-2e-05,-1e-05,-1e-05,-7e-05,-0.00051,-0.00011,-0.00016,-2e-05,6,7
33667,-2e-05,-1e-05,-1e-05,-7e-05,-0.00051,-0.00011,-0.00016,-2e-05,6,7
33668,-2e-05,-1e-05,-1e-05,-7e-05,-0.00051,-0.00011,-0.00016,-2e-05,6,7
33669,-2e-05,-1e-05,-1e-05,-7e-05,-0.00051,-0.00011,-0.00016,-2e-05,6,7
33670,-2e-05,-1e-05,-1e-05,-7e-05,-0.00051,-0.00011,-0.00016,-2e-05,6,7
33671,-2e-05,-1e-05,-1e-05,-7e-05,-0.00051,-0.00011,-0.00016,-2e-05,6,7
33672,-2e-05,-1e-05,-1e-05,-7e-05,-0.00051,-0.00011,-0.00016,-2e-05,6,7
33673,-2e-05,-1e-05,-1e-05,-7e-05,-0.00051,-0.00011,-0.00016,-2e-05,6,7
33674,-2e-05,-1e-05,-1e-05,-7e-05,-0.00051,-0.00011,-0.00016,-2e-05,6,7
33675,-2e-05,-1e-05,-1e-05,-7e-05,-0.00051,-0.00011,-0.00016,-2e-05,6,7
33676,-2e-05,-1e-05,-1e-05,-7e-05,-0.00051,-0.00011,-0.00016,-2e-05,6,7
33677,-2e-05,-1e-05,-1e-05,-7e-05,-0.00051,-0.00011,-0.00016,-2e-05,6,7
33678,-2e-05,-1e-05,-1e-05,-7e-05,-0.00051,-0.00011,-0.00016,-2e-05,6,7
33679,-2e-05,-1e-05,-1e-05,-7e-05,-0.00051,-0.00011,-0.00016,-2e-05,6,7
33680,0,1e-05,3e-05,0.00028,0.00028,0.00041,-3e-05,2e-05,6,7
33681,3e-05,1e-05,-2e-05,0.00025,0.00063,0.0001,0,3e-05,6,7
33682,3e-05,1e-05,-2e-05,0.00025,0.00063,0.0001,0,3e-05,6,7
33683,3e-05,1e-05,-2e-05,0.00025,0.00063,0.0001,0,3e-05,6,7
33684,3e-05,1e-05,-2e-05,0.00025,0.00063,0.0001,0,3e-05,6,7
33685,3e-05,1e-05,-2e-05,0.00025,0.00063,0.0001,0,3e-05,6,7
33686,3e-05,1e-05,-2e-05,0.00025,0.00063,0.0001,0,3e-05,6,7
33688,3e-05,1e-05,-2e-05,0.00025,0.00063,0.0001,0,3e-05,6,7
33689,3e-05,1e-05,-2e-05,0.00025,0.00063,0.0001,0,3e-05,6,7
33690,3e-05,1e-05,-2e-05,0.00025,0.00063,0.0001,0,3e-05,6,7
33691,3e-05,1e-05,-2e-05,0.00025,0.00063,0.0001,0,3e-05,6,7
33692,3e-05,1e-05,-2e-05,0.00025,0.00063,0.0001,0,3e-05,6,7
33693,3e-05,1e-05,-2e-05,0.00025,0.00063,0.0001,0,3e-05,6,7
33694,3e-05,1e-05,-2e-05,0.00025,0.00063,0.0001,0,3e-05,6,7
33695,3e-05,1e-05,-2e-05,0.00025,0.00063,0.0001,0,3e-05,6,7
33696,3e-05,1e-05,-2e-05,0.00025,0.00063,0.0001,0,3e-05,6,7
33697,3e-05,1e-05,-2e-05,0.00025,0.00063,0.0001,0,3e-05,6,7
33698,3e-05,1e-05,-2e-05,0.00025,0.00063,0.0001,0,3e-05,6,7
33699,3e-05,1e-05,-2e-05,0.00025,0.00063,0.0001,0,3e-05,6,7
33700,3e-05,1e-05,-2e-05,0.00025,0.00063,0.0001,0,3e-05,6,7
33701,3e-05,1e-05,-2e-05,0.00025,0.00063,0.0001,0,3e-05,6,7
33702,3e-05,1e-05,-2e-05,0.00025,0.00063,0.0001,0,3e-05,6,7
33703,3e-05,1e-05,-2e-05,0.00025,0.00063,0.0001,0,3e-05,6,7
33704,3e-05,1e-05,-2e-05,0.00025,0.00063,0.0001,0,3e-05,6,7
33705,3e-05,1e-05,-2e-05,0.00025,0.00063,0.0001,0,3e-05,6,7
33706,3e-05,1e-05,-2e-05,0.00025,0.00063,0.0001,0,3e-05,6,7
33707,3e-05,1e-05,-2e-05,0.00025,0.00063,0.0001,0,3e-05,6,7
33708,3e-05,1e-05,-2e-05,0.00025,0.00063,0.0001,0,3e-05,6,7
33709,1e-05,1e-05,4e-05,0,-0.00076,-0.00014,1e-05,1e-05,6,7
33710,1e-05,1e-05,4e-05,0,-0.00076,-0.00014,1e-05,1e-05,6,7
33711,-4e-05,-7e-05,-7e-05,4e-05,-0.00087,0.00013,0.00015,7e-05,6,7
33712,-4e-05,-7e-05,-7e-05,4e-05,-0.00087,0.00013,0.00015,7e-05,6,7
33713,-4e-05,-7e-05,-7e-05,4e-05,-0.00087,0.00013,0.00015,7e-05,6,7
33714,-4e-05,-7e-05,-7e-05,4e-05,-0.00087,0.00013,0.00015,7e-05,6,7
33715,-4e-05,-7e-05,-7e-05,4e-05,-0.00087,0.00013,0.00015,7e-05,6,7
33716,-4e-05,-7e-05,-7e-05,4e-05,-0.00087,0.00013,0.00015,7e-05,6,7
33717,-2e-05,-4e-05,2e-05,0.00038,-2e-05,0.00012,9e-05,3e-05,6,7
33718,-1e-05,-5e-05,0,2e-05,-0.0002,4e-05,-8e-05,-4e-05,6,7
33719,-1e-05,-4e-05,-8e-05,-0.00015,8e-05,-5e-05,-0.00023,0,6,7
33720,-1e-05,-4e-05,-8e-05,-0.00015,8e-05,-5e-05,-0.00023,0,6,7
33721,-1e-05,-4e-05,-8e-05,-0.00015,8e-05,-5e-05,-0.00023,0,6,7
33722,-1e-05,-4e-05,-8e-05,-0.00015,8e-05,-5e-05,-0.00023,0,6,7
33723,-1e-05,-4e-05,-8e-05,-0.00015,8e-05,-5e-05,-0.00023,0,6,7
33724,-1e-05,-4e-05,-8e-05,-0.00015,8e-05,-5e-05,-0.00023,0,6,7
33725,-1e-05,-4e-05,-8e-05,-0.00015,8e-05,-5e-05,-0.00023,0,6,7
33726,-1e-05,-4e-05,-8e-05,-0.00015,8e-05,-5e-05,-0.00023,0,6,7
33727,-1e-05,-4e-05,-8e-05,-0.00015,8e-05,-5e-05,-0.00023,0,6,7
33728,-1e-05,-4e-05,-8e-05,-0.00015,8e-05,-5e-05,-0.00023,0,6,7
33729,-1e-05,-4e-05,-8e-05,-0.00015,8e-05,-5e-05,-0.00023,0,6,7
33730,-1e-05,-4e-05,-8e-05,-0.00015,8e-05,-5e-05,-0.00023,0,6,7
33731,-1e-05,-4e-05,-8e-05,-0.00015,8e-05,-5e-05,-0.00023,0,6,7
33732,-1e-05,-4e-05,-8e-05,-0.00015,8e-05,-5e-05,-0.00023,0,6,7
33733,-1e-05,-4e-05,-8e-05,-0.00015,8e-05,-5e-05,-0.00023,0,6,7
33734,-1e-05,-4e-05,-8e-05,-0.00015,8e-05,-5e-05,-0.00023,0,6,7
33735,-1e-05,-4e-05,-8e-05,-0.00015,8e-05,-5e-05,-0.00023,0,6,7
33736,-1e-05,-4e-05,-8e-05,-0.00015,8e-05,-5e-05,-0.00023,0,6,7
33738,-1e-05,-4e-05,-8e-05,-0.00015,8e-05,-5e-05,-0.00023,0,6,7
33739,-2e-05,-2e-05,-4e-05,-5e-05,-0.00013,-3e-05,0.00011,4e-05,6,7
33740,-4e-05,-1e-05,-4e-05,-0.00024,0.00083,-2e-05,-0.00019,-2e-05,6,7
33741,-1e-05,-1e-05,-2e-05,6e-05,0.00025,-9e-05,-0.0001,-4e-05,6,7
33742,-1e-05,-1e-05,-2e-05,6e-05,0.00025,-9e-05,-0.0001,-4e-05,6,7
33743,-1e-05,-1e-05,-2e-05,6e-05,0.00025,-9e-05,-0.0001,-4e-05,6,7
33744,-1e-05,-1e-05,-2e-05,6e-05,0.00025,-9e-05,-0.0001,-4e-05,6,7
33745,-1e-05,-1e-05,-2e-05,6e-05,0.00025,-9e-05,-0.0001,-4e-05,6,7
33746,-1e-05,-1e-05,-2e-05,6e-05,0.00025,-9e-05,-0.0001,-4e-05,6,7
33747,-1e-05,-1e-05,-2e-05,6e-05,0.00025,-9e-05,-0.0001,-4e-05,6,7
33748,-1e-05,-1e-05,-2e-05,6e-05,0.00025,-9e-05,-0.0001,-4e-05,6,7
33749,-1e-05,-1e-05,-2e-05,6e-05,0.00025,-9e-05,-0.0001,-4e-05,6,7
33750,-1e-05,-1e-05,-2e-05,6e-05,0.00025,-9e-05,-0.0001,-4e-05,6,7
33751,-1e-05,-1e-05,-2e-05,6e-05,0.00025,-9e-05,-0.0001,-4e-05,6,7
33752,-1e-05,-1e-05,-2e-05,6e-05,0.00025,-9e-05,-0.0001,-4e-05,6,7
33753,-1e-05,-1e-05,-2e-05,6e-05,0.00025,-9e-05,-0.0001,-4e-05,6,7
33754,-1e-05,-1e-05,-2e-05,6e-05,0.00025,-9e-05,-0.0001,-4e-05,6,7
33755,-1e-05,-1e-05,-2e-05,6e-05,0.00025,-9e-05,-0.0001,-4e-05,6,7
33756,-1e-05,-1e-05,-2e-05,6e-05,0.00025,-9e-05,-0.0001,-4e-05,6,7
33757,-1e-05,-1e-05,-2e-05,6e-05,0.00025,-9e-05,-0.0001,-4e-05,6,7
33758,-1e-05,-1e-05,-2e-05,6e-05,0.00025,-9e-05,-0.0001,-4e-05,6,7
33759,-1e-05,-1e-05,-2e-05,6e-05,0.00025,-9e-05,-0.0001,-4e-05,6,7
33760,-1e-05,-1e-05,-2e-05,6e-05,0.00025,-9e-05,-0.0001,-4e-05,6,7
33761,-1e-05,-1e-05,-2e-05,6e-05,0.00025,-9e-05,-0.0001,-4e-05,6,7
33762,-1e-05,-5e-05,1e-05,0.00027,0.00078,6e-05,-1e-05,-6e-05,6,7
33763,-1e-05,-2e-05,-7e-05,0.00023,0.00044,-4e-05,-4e-05,2e-05,6,7
33764,-1e-05,0,2e-05,5e-05,-0.00013,-7e-05,0,-2e-05,6,7
33765,-1e-05,0,2e-05,5e-05,-0.00013,-7e-05,0,-2e-05,6,7
33766,-1e-05,0,2e-05,5e-05,-0.00013,-7e-05,0,-2e-05,6,7
33767,-1e-05,0,2e-05,5e-05,-0.00013,-7e-05,0,-2e-05,6,7
33768,-1e-05,0,2e-05,5e-05,-0.00013,-7e-05,0,-2e-05,6,7
33769,-1e-05,0,2e-05,5e-05,-0.00013,-7e-05,0,-2e-05,6,7
33770,-1e-05,0,2e-05,5e-05,-0.00013,-7e-05,0,-2e-05,6,7
33771,-1e-05,0,2e-05,5e-05,-0.00013,-7e-05,0,-2e-05,6,7
33772,-1e-05,0,2e-05,5e-05,-0.00013,-7e-05,0,-2e-05,6,7
33773,-1e-05,0,2e-05,5e-05,-0.00013,-7e-05,0,-2e-05,6,7
33774,-1e-05,0,2e-05,5e-05,-0.00013,-7e-05,0,-2e-05,6,7
33775,-1e-05,0,2e-05,5e-05,-0.00013,-7e-05,0,-2e-05,6,7
33776,-1e-05,0,2e-05,5e-05,-0.00013,-7e-05,0,-2e-05,6,7
33777,-3e-05,-1e-05,-3e-05,-2e-05,0.0009,0,6e-05,-1e-05,6,7
33778,2e-05,0,-1e-05,6e-05,-0.00039,-0.00014,-8e-05,0,6,7
33779,-1e-05,-1e-05,-4e-05,0.0001,-0.0001,-7e-05,7e-05,-2e-05,6,7
33780,-1e-05,-1e-05,-4e-05,0.0001,-0.0001,-7e-05,7e-05,-2e-05,6,7
33781,-1e-05,-1e-05,-4e-05,0.0001,-0.0001,-7e-05,7e-05,-2e-05,6,7
33782,-1e-05,-1e-05,-4e-05,0.0001,-0.0001,-7e-05,7e-05,-2e-05,6,7
33783,-1e-05,-1e-05,-4e-05,0.0001,-0.0001,-7e-05,7e-05,-2e-05,6,7
33784,-1e-05,-1e-05,-4e-05,0.0001,-0.0001,-7e-05,7e-05,-2e-05,6,7
33785,-1e-05,-1e-05,-4e-05,0.0001,-0.0001,-7e-05,7e-05,-2e-05,6,7
33786,-1e-05,-1e-05,-4e-05,0.0001,-0.0001,-7e-05,7e-05,-2e-05,6,7
33788,-1e-05,-1e-05,-4e-05,0.0001,-0.0001,-7e-05,7e-05,-2e-05,6,7
33789,-1e-05,-1e-05,-4e-05,0.0001,-0.0001,-7e-05,7e-05,-2e-05,6,7
33790,-1e-05,-1e-05,-4e-05,0.0001,-0.0001,-7e-05,7e-05,-2e-05,6,7
33791,-1e-05,-1e-05,-4e-05,0.0001,-0.0001,-7e-05,7e-05,-2e-05,6,7
33792,-1e-05,-1e-05,-4e-05,0.0001,-0.0001,-7e-05,7e-05,-2e-05,6,7
33793,-1e-05,-1e-05,-4e-05,0.0001,-0.0001,-7e-05,7e-05,-2e-05,6,7
33794,-1e-05,-1e-05,-4e-05,0.0001,-0.0001,-7e-05,7e-05,-2e-05,6,7
33795,-1e-05,-1e-05,-4e-05,0.0001,-0.0001,-7e-05,7e-05,-2e-05,6,7
33796,-1e-05,-1e-05,-4e-05,0.0001,-0.0001,-7e-05,7e-05,-2e-05,6,7
33797,-1e-05,-1e-05,-4e-05,0.0001,-0.0001,-7e-05,7e-05,-2e-05,6,7
33798,-1e-05,-1e-05,-4e-05,0.0001,-0.0001,-7e-05,7e-05,-2e-05,6,7
33799,1e-05,1e-05,1e-05,-0.00012,0.0002,-0.00013,-7e-05,2e-05,6,7
33800,-3e-05,-2e-05,2e-05,8e-05,-0.00039,7e-05,-0.0001,-2e-05,6,7
33801,-1e-05,-2e-05,-3e-05,-0.00058,0.00022,-0.00015,-0.00027,-5e-05,6,7
33802,-1e-05,-2e-05,-3e-05,-0.00058,0.00022,-0.00015,-0.00027,-5e-05,6,7
33803,-1e-05,-2e-05,-3e-05,-0.00058,0.00022,-0.00015,-0.00027,-5e-05,6,7
33804,-1e-05,-2e-05,-3e-05,-0.00058,0.00022,-0.00015,-0.00027,-5e-05,6,7
33805,-1e-05,-2e-05,-3e-05,-0.00058,0.00022,-0.00015,-0.00027,-5e-05,6,7
33806,-1e-05,-2e-05,-3e-05,-0.00058,0.00022,-0.00015,-0.00027,-5e-05,6,7
33807,-1e-05,-2e-05,-3e-05,-0.00058,0.00022,-0.00015,-0.00027,-5e-05,6,7
33808,-1e-05,-2e-05,-3e-05,-0.00058,0.00022,-0.00015,-0.00027,-5e-05,6,7
33809,-1e-05,-2e-05,-3e-05,-0.00058,0.00022,-0.00015,-0.00027,-5e-05,6,7
33810,-1e-05,-2e-05,-3e-05,-0.00058,0.00022,-0.00015,-0.00027,-5e-05,6,7
33811,-1e-05,-2e-05,-3e-05,-0.00058,0.00022,-0.00015,-0.00027,-5e-05,6,7
33812,-1e-05,-2e-05,-3e-05,-0.00058,0.00022,-0.00015,-0.00027,-5e-05,6,7
33813,-1e-05,-2e-05,-3e-05,-0.00058,0.00022,-0.00015,-0.00027,-5e-05,6,7
33814,1e-05,0,0,-0.00032,-0.00083,-2e-05,7e-05,1e-05,6,7
33815,1e-05,0,0,-0.00032,-0.00083,-2e-05,7e-05,1e-05,6,7
33816,1e-05,0,0,-0.00032,-0.00083,-2e-05,7e-05,1e-05,6,7
33817,1e-05,0,0,-0.00032,-0.00083,-2e-05,7e-05,1e-05,6,7
33818,1e-05,0,0,-0.00032,-0.00083,-2e-05,7e-05,1e-05,6,7
33819,1e-05,0,0,-0.00032,-0.00083,-2e-05,7e-05,1e-05,6,7
33820,1e-05,3e-05,-2e-05,0.00013,0.0002,-2e-05,-0.00027,-3e-05,6,7
33821,1e-05,2e-05,5e-05,-0.00012,-0.00076,-0.00024,1e-05,-1e-05,6,7
33822,1e-05,2e-05,5e-05,-0.00012,-0.00076,-0.00024,1e-05,-1e-05,6,7
33823,1e-05,2e-05,5e-05,-0.00012,-0.00076,-0.00024,1e-05,-1e-05,6,7
33824,1e-05,2e-05,5e-05,-0.00012,-0.00076,-0.00024,1e-05,-1e-05,6,7
33825,1e-05,2e-05,5e-05,-0.00012,-0.00076,-0.00024,1e-05,-1e-05,6,7
33826,1e-05,2e-05,5e-05,-0.00012,-0.00076,-0.00024,1e-05,-1e-05,6,7
33827,1e-05,2e-05,5e-05,-0.00012,-0.00076,-0.00024,1e-05,-1e-05,6,7
33828,1e-05,2e-05,5e-05,-0.00012,-0.00076,-0.00024,1e-05,-1e-05,6,7
33829,1e-05,2e-05,5e-05,-0.00012,-0.00076,-0.00024,1e-05,-1e-05,6,7
33830,1e-05,2e-05,5e-05,-0.00012,-0.00076,-0.00024,1e-05,-1e-05,6,7
33831,1e-05,2e-05,5e-05,-0.00012,-0.00076,-0.00024,1e-05,-1e-05,6,7
33832,1e-05,2e-05,5e-05,-0.00012,-0.00076,-0.00024,1e-05,-1e-05,6,7
33833,1e-05,2e-05,5e-05,-0.00012,-0.00076,-0.00024,1e-05,-1e-05,6,7
33834,1e-05,2e-05,5e-05,-0.00012,-0.00076,-0.00024,1e-05,-1e-05,6,7
33835,1e-05,2e-05,5e-05,-0.00012,-0.00076,-0.00024,1e-05,-1e-05,6,7
33836,1e-05,2e-05,5e-05,-0.00012,-0.00076,-0.00024,1e-05,-1e-05,6,7
33838,1e-05,2e-05,5e-05,-0.00012,-0.00076,-0.00024,1e-05,-1e-05,6,7
33839,1e-05,2e-05,5e-05,-0.00012,-0.00076,-0.00024,1e-05,-1e-05,6,7
33840,1e-05,2e-05,5e-05,-0.00012,-0.00076,-0.00024,1e-05,-1e-05,6,7
33841,1e-05,2e-05,5e-05,-0.00012,-0.00076,-0.00024,1e-05,-1e-05,6,7
33842,1e-05,2e-05,5e-05,-0.00012,-0.00076,-0.00024,1e-05,-1e-05,6,7
33843,1e-05,2e-05,5e-05,-0.00012,-0.00076,-0.00024,1e-05,-1e-05,6,7
33844,-2e-05,-3e-05,0,-7e-05,-8e-05,-4e-05,3e-05,-2e-05,6,7
33845,-2e-05,-3e-05,0,-7e-05,-8e-05,-4e-05,3e-05,-2e-05,6,7
33846,-1e-05,-1e-05,-1e-05,0.00012,-0.00067,-0.0001,-3e-05,5e-05,6,7
33847,-1e-05,-1e-05,-1e-05,0.00012,-0.00067,-0.0001,-3e-05,5e-05,6,7
33848,-1e-05,-1e-05,-1e-05,0.00012,-0.00067,-0.0001,-3e-05,5e-05,6,7
33849,-1e-05,-1e-05,-1e-05,0.00012,-0.00067,-0.0001,-3e-05,5e-05,6,7
33850,-1e-05,-1e-05,-1e-05,0.00012,-0.00067,-0.0001,-3e-05,5e-05,6,7
33851,-1e-05,-1e-05,-1e-05,0.00012,-0.00067,-0.0001,-3e-05,5e-05,6,7
33852,-1e-05,-1e-05,-1e-05,0.00012,-0.00067,-0.0001,-3e-05,5e-05,6,7
33853,-1e-05,-1e-05,-1e-05,0.00012,-0.00067,-0.0001,-3e-05,5e-05,6,7
33854,-1e-05,-1e-05,-1e-05,0.00012,-0.00067,-0.0001,-3e-05,5e-05,6,7
33855,-1e-05,-1e-05,-1e-05,0.00012,-0.00067,-0.0001,-3e-05,5e-05,6,7
33856,-1e-05,-1e-05,-1e-05,0.00012,-0.00067,-0.0001,-3e-05,5e-05,6,7
33857,-1e-05,-1e-05,-1e-05,0.00012,-0.00067,-0.0001,-3e-05,5e-05,6,7
33858,-1e-05,-1e-05,-1e-05,0.00012,-0.00067,-0.0001,-3e-05,5e-05,6,7
33859,0,1e-05,-2e-05,-3e-05,-0.00033,-2e-05,-2e-05,-1e-05,6,7
33860,0,1e-05,-2e-05,-3e-05,-0.00033,-2e-05,-2e-05,-1e-05,6,7
33861,-3e-05,-2e-05,-2e-05,-0.00019,-6e-05,7e-05,4e-05,-5e-05,6,7
33862,-3e-05,-2e-05,-2e-05,-0.00019,-6e-05,7e-05,4e-05,-5e-05,6,7
33863,-3e-05,-2e-05,-2e-05,-0.00019,-6e-05,7e-05,4e-05,-5e-05,6,7
33864,-3e-05,-2e-05,-2e-05,-0.00019,-6e-05,7e-05,4e-05,-5e-05,6,7
33865,-3e-05,-2e-05,-2e-05,-0.00019,-6e-05,7e-05,4e-05,-5e-05,6,7
33866,-3e-05,-2e-05,-2e-05,-0.00019,-6e-05,7e-05,4e-05,-5e-05,6,7
33867,-3e-05,-2e-05,-2e-05,-0.00019,-6e-05,7e-05,4e-05,-5e-05,6,7
33868,-3e-05,-2e-05,-2e-05,-0.00019,-6e-05,7e-05,4e-05,-5e-05,6,7
33869,-3e-05,-2e-05,-2e-05,-0.00019,-6e-05,7e-05,4e-05,-5e-05,6,7
33870,-3e-05,-2e-05,-2e-05,-0.00019,-6e-05,7e-05,4e-05,-5e-05,6,7
33871,-3e-05,-2e-05,-2e-05,-0.00019,-6e-05,7e-05,4e-05,-5e-05,6,7
33872,-3e-05,-2e-05,-2e-05,-0.00019,-6e-05,7e-05,4e-05,-5e-05,6,7
33873,-3e-05,-2e-05,-2e-05,-0.00019,-6e-05,7e-05,4e-05,-5e-05,6,7
33874,0,-2e-05,-9e-05,-9e-05,-0.0001,0.00011,-0.00019,-0.00021,6,7
33875,0,-2e-05,-9e-05,-9e-05,-0.0001,0.00011,-0.00019,-0.00021,6,7
33876,0,-2e-05,-9e-05,-9e-05,-0.0001,0.00011,-0.00019,-0.00021,6,7
33877,0,-2e-05,-9e-05,-9e-05,-0.0001,0.00011,-0.00019,-0.00021,6,7
33878,0,-2e-05,-9e-05,-9e-05,-0.0001,0.00011,-0.00019,-0.00021,6,7
33879,0,-2e-05,-9e-05,-9e-05,-0.0001,0.00011,-0.00019,-0.00021,6,7
33880,0,-2e-05,-9e-05,-9e-05,-0.0001,0.00011,-0.00019,-0.00021,6,7
33881,-1e-05,-2e-05,4e-05,0.00029,0.00028,0.00016,0.00018,-1e-05,6,7
33882,-1e-05,-2e-05,4e-05,0.00029,0.00028,0.00016,0.00018,-1e-05,6,7
33883,-1e-05,-2e-05,4e-05,0.00029,0.00028,0.00016,0.00018,-1e-05,6,7
33884,-1e-05,-2e-05,4e-05,0.00029,0.00028,0.00016,0.00018,-1e-05,6,7
33885,-1e-05,-2e-05,4e-05,0.00029,0.00028,0.00016,0.00018,-1e-05,6,7
33886,-1e-05,-2e-05,4e-05,0.00029,0.00028,0.00016,0.00018,-1e-05,6,7
33888,-1e-05,-2e-05,4e-05,0.00029,0.00028,0.00016,0.00018,-1e-05,6,7
33889,-1e-05,-2e-05,4e-05,0.00029,0.00028,0.00016,0.00018,-1e-05,6,7
33890,-1e-05,-2e-05,4e-05,0.00029,0.00028,0.00016,0.00018,-1e-05,6,7
33891,-1e-05,-2e-05,4e-05,0.00029,0.00028,0.00016,0.00018,-1e-05,6,7
33892,-1e-05,-2e-05,4e-05,0.00029,0.00028,0.00016,0.00018,-1e-05,6,7
33893,-1e-05,-2e-05,4e-05,0.00029,0.00028,0.00016,0.00018,-1e-05,6,7
33894,-1e-05,-2e-05,4e-05,0.00029,0.00028,0.00016,0.00018,-1e-05,6,7
33895,-1e-05,-2e-05,4e-05,0.00029,0.00028,0.00016,0.00018,-1e-05,6,7
33896,-1e-05,-2e-05,4e-05,0.00029,0.00028,0.00016,0.00018,-1e-05,6,7
33897,-1e-05,-2e-05,4e-05,0.00029,0.00028,0.00016,0.00018,-1e-05,6,7
33898,-2e-05,-1e-05,2e-05,0.00028,0.0001,6e-05,0.00018,4e-05,6,7
33899,-2e-05,-1e-05,2e-05,0.00028,0.0001,6e-05,0.00018,4e-05,6,7
33900,-2e-05,-1e-05,2e-05,0.00028,0.0001,6e-05,0.00018,4e-05,6,7
33901,-2e-05,-1e-05,2e-05,0.00028,0.0001,6e-05,0.00018,4e-05,6,7
33902,-2e-05,-1e-05,2e-05,0.00028,0.0001,6e-05,0.00018,4e-05,6,7
33903,-2e-05,-3e-05,-3e-05,-0.00031,-0.00033,5e-05,-2e-05,-1e-05,6,7
33904,-2e-05,-3e-05,-3e-05,-0.00031,-0.00033,5e-05,-2e-05,-1e-05,6,7
33905,-2e-05,-3e-05,-3e-05,-0.00031,-0.00033,5e-05,-2e-05,-1e-05,6,7
33906,-2e-05,-3e-05,-3e-05,-0.00031,-0.00033,5e-05,-2e-05,-1e-05,6,7
33907,-2e-05,-3e-05,-3e-05,-0.00031,-0.00033,5e-05,-2e-05,-1e-05,6,7
33908,-2e-05,-3e-05,-3e-05,-0.00031,-0.00033,5e-05,-2e-05,-1e-05,6,7
33909,-2e-05,-3e-05,-3e-05,-0.00031,-0.00033,5e-05,-2e-05,-1e-05,6,7
33910,-2e-05,-3e-05,-3e-05,-0.00031,-0.00033,5e-05,-2e-05,-1e-05,6,7
33911,-2e-05,-3e-05,-3e-05,-0.00031,-0.00033,5e-05,-2e-05,-1e-05,6,7
33912,-2e-05,-3e-05,-3e-05,-0.00031,-0.00033,5e-05,-2e-05,-1e-05,6,7
33913,-2e-05,-3e-05,-3e-05,-0.00031,-0.00033,5e-05,-2e-05,-1e-05,6,7
33914,-2e-05,-3e-05,-3e-05,-0.00031,-0.00033,5e-05,-2e-05,-1e-05,6,7
33915,-2e-05,-3e-05,-3e-05,-0.00031,-0.00033,5e-05,-2e-05,-1e-05,6,7
33916,-2e-05,-3e-05,-3e-05,-0.00031,-0.00033,5e-05,-2e-05,-1e-05,6,7
33917,-2e-05,-3e-05,-3e-05,-0.00031,-0.00033,5e-05,-2e-05,-1e-05,6,7
33918,-2e-05,-3e-05,-3e-05,-0.00031,-0.00033,5e-05,-2e-05,-1e-05,6,7
33919,-2e-05,-3e-05,-3e-05,-0.00031,-0.00033,5e-05,-2e-05,-1e-05,6,7
33920,-2e-05,-3e-05,-3e-05,-0.00031,-0.00033,5e-05,-2e-05,-1e-05,6,7
33921,-2e-05,-3e-05,-3e-05,-0.00031,-0.00033,5e-05,-2e-05,-1e-05,6,7
33922,-2e-05,-3e-05,-3e-05,-0.00031,-0.00033,5e-05,-2e-05,-1e-05,6,7
33923,-2e-05,-3e-05,-3e-05,-0.00031,-0.00033,5e-05,-2e-05,-1e-05,6,7
33924,-2e-05,-3e-05,-3e-05,-0.00031,-0.00033,5e-05,-2e-05,-1e-05,6,7
33925,-2e-05,-3e-05,-3e-05,-0.00031,-0.00033,5e-05,-2e-05,-1e-05,6,7
33926,-2e-05,-3e-05,-3e-05,-0.00031,-0.00033,5e-05,-2e-05,-1e-05,6,7
33927,0,-1e-05,-4e-05,1e-05,0.00029,-6e-05,-2e-05,2e-05,6,7
33928,-3e-05,-2e-05,-4e-05,0.00022,0.00038,0.00013,4e-05,0,6,7
33929,-3e-05,-2e-05,-4e-05,0.00022,0.00038,0.00013,4e-05,0,6,7
33930,-3e-05,-2e-05,-4e-05,0.00022,0.00038,0.00013,4e-05,0,6,7
33931,-3e-05,-2e-05,-4e-05,0.00022,0.00038,0.00013,4e-05,0,6,7
33932,-3e-05,-2e-05,-4e-05,0.00022,0.00038,0.00013,4e-05,0,6,7
33933,-3e-05,-2e-05,-4e-05,0.00022,0.00038,0.00013,4e-05,0,6,7
33934,-1e-05,-1e-05,0,0.00019,-0.0003,-0.00021,0,1e-05,6,7
33935,-1e-05,-1e-05,0,0.00019,-0.0003,-0.00021,0,1e-05,6,7
33936,-1e-05,-1e-05,0,0.00019,-0.0003,-0.00021,0,1e-05,6,7
33938,-1e-05,-1e-05,0,0.00019,-0.0003,-0.00021,0,1e-05,6,7
33939,-1e-05,-1e-05,0,0.00019,-0.0003,-0.00021,0,1e-05,6,7
33940,-3e-05,-5e-05,-9e-05,-0.00024,-0.00043,-0.00022,-5e-05,-4e-05,6,7
33941,1e-05,0,7e-05,6e-05,0.00055,3e-05,6e-05,0,6,7
33942,1e-05,0,7e-05,6e-05,0.00055,3e-05,6e-05,0,6,7
33943,1e-05,0,7e-05,6e-05,0.00055,3e-05,6e-05,0,6,7
33944,1e-05,0,7e-05,6e-05,0.00055,3e-05,6e-05,0,6,7
33945,1e-05,0,7e-05,6e-05,0.00055,3e-05,6e-05,0,6,7
33946,1e-05,0,7e-05,6e-05,0.00055,3e-05,6e-05,0,6,7
33947,1e-05,0,7e-05,6e-05,0.00055,3e-05,6e-05,0,6,7
33948,1e-05,0,7e-05,6e-05,0.00055,3e-05,6e-05,0,6,7
33949,1e-05,0,7e-05,6e-05,0.00055,3e-05,6e-05,0,6,7
33950,1e-05,0,7e-05,6e-05,0.00055,3e-05,6e-05,0,6,7
33951,1e-05,0,7e-05,6e-05,0.00055,3e-05,6e-05,0,6,7
33952,1e-05,0,7e-05,6e-05,0.00055,3e-05,6e-05,0,6,7
33953,1e-05,0,7e-05,6e-05,0.00055,3e-05,6e-05,0,6,7
33954,1e-05,0,7e-05,6e-05,0.00055,3e-05,6e-05,0,6,7
33955,1e-05,0,7e-05,6e-05,0.00055,3e-05,6e-05,0,6,7
33956,1e-05,0,7e-05,6e-05,0.00055,3e-05,6e-05,0,6,7
33957,-1e-05,-1e-05,3e-05,0.00029,-0.00045,-9e-05,-6e-05,0,6,7
33958,-1e-05,0,-4e-05,-0.00014,-0.00039,2e-05,9e-05,3e-05,6,7
33959,-1e-05,0,-4e-05,-0.00014,-0.00039,2e-05,9e-05,3e-05,6,7
33960,-1e-05,0,-4e-05,-0.00014,-0.00039,2e-05,9e-05,3e-05,6,7
33961,-1e-05,0,-4e-05,-0.00014,-0.00039,2e-05,9e-05,3e-05,6,7
33962,-1e-05,0,-4e-05,-0.00014,-0.00039,2e-05,9e-05,3e-05,6,7
33963,-1e-05,0,-4e-05,-0.00014,-0.00039,2e-05,9e-05,3e-05,6,7
33964,-1e-05,0,-4e-05,-0.00014,-0.00039,2e-05,9e-05,3e-05,6,7
33965,-1e-05,0,-4e-05,-0.00014,-0.00039,2e-05,9e-05,3e-05,6,7
33966,-1e-05,0,-4e-05,-0.00014,-0.00039,2e-05,9e-05,3e-05,6,7
33967,-1e-05,0,-4e-05,-0.00014,-0.00039,2e-05,9e-05,3e-05,6,7
33968,-1e-05,0,-4e-05,-0.00014,-0.00039,2e-05,9e-05,3e-05,6,7
33969,-1e-05,0,-4e-05,-0.00014,-0.00039,2e-05,9e-05,3e-05,6,7
33970,-1e-05,0,-4e-05,-0.00014,-0.00039,2e-05,9e-05,3e-05,6,7
33971,-1e-05,0,-4e-05,-0.00014,-0.00039,2e-05,9e-05,3e-05,6,7
33972,-1e-05,0,-4e-05,-0.00014,-0.00039,2e-05,9e-05,3e-05,6,7
33973,-1e-05,0,-4e-05,-0.00014,-0.00039,2e-05,9e-05,3e-05,6,7
33974,-1e-05,0,-4e-05,-0.00014,-0.00039,2e-05,9e-05,3e-05,6,7
33975,-1e-05,0,-4e-05,-0.00014,-0.00039,2e-05,9e-05,3e-05,6,7
33976,-1e-05,0,-4e-05,-0.00014,-0.00039,2e-05,9e-05,3e-05,6,7
33977,-1e-05,0,-4e-05,-0.00014,-0.00039,2e-05,9e-05,3e-05,6,7
33978,-1e-05,0,-4e-05,-0.00014,-0.00039,2e-05,9e-05,3e-05,6,7
33979,-1e-05,0,-4e-05,-0.00014,-0.00039,2e-05,9e-05,3e-05,6,7
33980,-1e-05,0,-4e-05,-0.00014,-0.00039,2e-05,9e-05,3e-05,6,7
33981,-1e-05,0,-4e-05,-0.00014,-0.00039,2e-05,9e-05,3e-05,6,7
33982,-1e-05,0,-4e-05,-0.00014,-0.00039,2e-05,9e-05,3e-05,6,7
33983,-1e-05,0,-4e-05,-0.00014,-0.00039,2e-05,9e-05,3e-05,6,7
33984,-1e-05,0,-4e-05,-0.00014,-0.00039,2e-05,9e-05,3e-05,6,7
33985,-1e-05,0,-4e-05,-0.00014,-0.00039,2e-05,9e-05,3e-05,6,7
33986,-1e-05,0,-4e-05,-0.00014,-0.00039,2e-05,9e-05,3e-05,6,7
33988,-3e-05,-2e-05,-6e-05,-0.00043,-0.00063,-5e-05,-6e-05,1e-05,6,7
33989,3e-05,2e-05,-4e-05,-0.00013,5e-05,-0.00012,-2e-05,-4e-05,6,7
33990,3e-05,2e-05,-4e-05,-0.00013,5e-05,-0.00012,-2e-05,-4e-05,6,7
33991,3e-05,2e-05,-4e-05,-0.00013,5e-05,-0.00012,-2e-05,-4e-05,6,7
33992,3e-05,2e-05,-4e-05,-0.00013,5e-05,-0.00012,-2e-05,-4e-05,6,7
33993,3e-05,2e-05,-4e-05,-0.00013,5e-05,-0.00012,-2e-05,-4e-05,6,7
33994,-1e-05,-1e-05,-1e-05,-0.00046,-0.00019,3e-05,-0.00012,3e-05,6,7
33995,-1e-05,-1e-05,-1e-05,-0.00046,-0.00019,3e-05,-0.00012,3e-05,6,7
33996,-1e-05,-1e-05,-1e-05,-0.00046,-0.00019,3e-05,-0.00012,3e-05,6,7
33997,-1e-05,-1e-05,-1e-05,-0.00046,-0.00019,3e-05,-0.00012,3e-05,6,7
33998,-1e-05,-1e-05,-1e-05,-0.00046,-0.00019,3e-05,-0.00012,3e-05,6,7
33999,-1e-05,-1e-05,-1e-05,-0.00046,-0.00019,3e-05,-0.00012,3e-05,6,7
34000,-1e-05,-1e-05,-1e-05,-0.00046,-0.00019,3e-05,-0.00012,3e-05,6,7
34001,-1e-05,-1e-05,-1e-05,-0.00046,-0.00019,3e-05,-0.00012,3e-05,6,7
34002,-1e-05,-1e-05,-1e-05,-0.00046,-0.00019,3e-05,-0.00012,3e-05,6,7
34003,-1e-05,-1e-05,-1e-05,-0.00046,-0.00019,3e-05,-0.00012,3e-05,6,7
34004,-1e-05,-1e-05,-1e-05,-0.00046,-0.00019,3e-05,-0.00012,3e-05,6,7
34005,-1e-05,-1e-05,-1e-05,-0.00046,-0.00019,3e-05,-0.00012,3e-05,6,7
34006,-1e-05,-1e-05,-1e-05,-0.00046,-0.00019,3e-05,-0.00012,3e-05,6,7
34007,-1e-05,-1e-05,-1e-05,-0.00046,-0.00019,3e-05,-0.00012,3e-05,6,7
34008,-2e-05,-1e-05,-5e-05,0.00015,0.00097,0.00044,-0.00013,-0.00019,6,7
34009,-2e-05,-1e-05,-5e-05,0.00015,0.00097,0.00044,-0.00013,-0.00019,6,7
34010,-2e-05,-1e-05,-5e-05,0.00015,0.00097,0.00044,-0.00013,-0.00019,6,7
34011,-2e-05,-1e-05,-5e-05,0.00015,0.00097,0.00044,-0.00013,-0.00019,6,7
34012,-2e-05,-1e-05,-5e-05,0.00015,0.00097,0.00044,-0.00013,-0.00019,6,7
34013,-2e-05,-1e-05,-5e-05,0.00015,0.00097,0.00044,-0.00013,-0.00019,6,7
34014,-2e-05,-1e-05,-5e-05,0.00015,0.00097,0.00044,-0.00013,-0.00019,6,7
34015,-2e-05,-1e-05,-5e-05,0.00015,0.00097,0.00044,-0.00013,-0.00019,6,7
34016,-2e-05,-1e-05,-5e-05,0.00015,0.00097,0.00044,-0.00013,-0.00019,6,7
34017,0,-2e-05,-2e-05,-0.00018,1e-05,4e-05,0,1e-05,6,7
34018,0,1e-05,6e-05,0.0001,0.00036,-1e-05,0,0,6,7
34019,-2e-05,-2e-05,1e-05,0.00019,-5e-05,-0.00029,-0.00012,1e-05,6,7
34020,-2e-05,-2e-05,1e-05,0.00019,-5e-05,-0.00029,-0.00012,1e-05,6,7
34021,-2e-05,-2e-05,1e-05,0.00019,-5e-05,-0.00029,-0.00012,1e-05,6,7
34022,-2e-05,-2e-05,1e-05,0.00019,-5e-05,-0.00029,-0.00012,1e-05,6,7
34023,-2e-05,-2e-05,1e-05,0.00019,-5e-05,-0.00029,-0.00012,1e-05,6,7
34024,-2e-05,-2e-05,1e-05,0.00019,-5e-05,-0.00029,-0.00012,1e-05,6,7
34025,-2e-05,-2e-05,1e-05,0.00019,-5e-05,-0.00029,-0.00012,1e-05,6,7
34026,-2e-05,-2e-05,1e-05,0.00019,-5e-05,-0.00029,-0.00012,1e-05,6,7
34027,-2e-05,-2e-05,1e-05,0.00019,-5e-05,-0.00029,-0.00012,1e-05,6,7
34028,-2e-05,-2e-05,1e-05,0.00019,-5e-05,-0.00029,-0.00012,1e-05,6,7
34029,-2e-05,-2e-05,1e-05,0.00019,-5e-05,-0.00029,-0.00012,1e-05,6,7
34030,-2e-05,-2e-05,1e-05,0.00019,-5e-05,-0.00029,-0.00012,1e-05,6,7
34031,-2e-05,-2e-05,1e-05,0.00019,-5e-05,-0.00029,-0.00012,1e-05,6,7
34032,-2e-05,-2e-05,1e-05,0.00019,-5e-05,-0.00029,-0.00012,1e-05,6,7
34033,-2e-05,-2e-05,1e-05,0.00019,-5e-05,-0.00029,-0.00012,1e-05,6,7
34034,-2e-05,-2e-05,1e-05,0.00019,-5e-05,-0.00029,-0.00012,1e-05,6,7
34035,-2e-05,-2e-05,1e-05,0.00019,-5e-05,-0.00029,-0.00012,1e-05,6,7
34036,-2e-05,-2e-05,1e-05,0.00019,-5e-05,-0.00029,-0.00012,1e-05,6,7
34038,-2e-05,-2e-05,1e-05,0.00019,-5e-05,-0.00029,-0.00012,1e-05,6,7
34039,-2e-05,-2e-05,1e-05,0.00019,-5e-05,-0.00029,-0.00012,1e-05,6,7
34040,-3e-05,-4e-05,-6e-05,-7e-05,3e-05,9e-05,6e-05,-4e-05,6,7
34041,-1e-05,-3e-05,0,3e-05,-0.00038,-0.00027,-0.00038,3e-05,6,7
34042,-1e-05,-3e-05,0,3e-05,-0.00038,-0.00027,-0.00038,3e-05,6,7
34043,-1e-05,-3e-05,0,3e-05,-0.00038,-0.00027,-0.00038,3e-05,6,7
34044,-1e-05,-3e-05,0,3e-05,-0.00038,-0.00027,-0.00038,3e-05,6,7
34045,-1e-05,-3e-05,0,3e-05,-0.00038,-0.00027,-0.00038,3e-05,6,7
34046,-1e-05,-3e-05,0,3e-05,-0.00038,-0.00027,-0.00038,3e-05,6,7
34047,-1e-05,-3e-05,0,3e-05,-0.00038,-0.00027,-0.00038,3e-05,6,7
34048,-1e-05,-3e-05,0,3e-05,-0.00038,-0.00027,-0.00038,3e-05,6,7
34049,-1e-05,-3e-05,0,3e-05,-0.00038,-0.00027,-0.00038,3e-05,6,7
34050,-1e-05,-3e-05,0,3e-05,-0.00038,-0.00027,-0.00038,3e-05,6,7
34051,-1e-05,-3e-05,0,3e-05,-0.00038,-0.00027,-0.00038,3e-05,6,7
34052,-1e-05,-3e-05,0,3e-05,-0.00038,-0.00027,-0.00038,3e-05,6,7
34053,-1e-05,-3e-05,0,3e-05,-0.00038,-0.00027,-0.00038,3e-05,6,7
34054,0,1e-05,3e-05,0.00022,0.00015,-3e-05,4e-05,4e-05,6,7
34055,0,1e-05,3e-05,0.00022,0.00015,-3e-05,4e-05,4e-05,6,7
34056,0,1e-05,3e-05,0.00022,0.00015,-3e-05,4e-05,4e-05,6,7
34057,0,1e-05,3e-05,0.00022,0.00015,-3e-05,4e-05,4e-05,6,7
34058,0,1e-05,3e-05,0.00022,0.00015,-3e-05,4e-05,4e-05,6,7
34059,0,1e-05,3e-05,0.00022,0.00015,-3e-05,4e-05,4e-05,6,7
34060,0,1e-05,3e-05,0.00022,0.00015,-3e-05,4e-05,4e-05,6,7
34061,0,1e-05,3e-05,0.00022,0.00015,-3e-05,4e-05,4e-05,6,7
34062,0,1e-05,3e-05,0.00022,0.00015,-3e-05,4e-05,4e-05,6,7
34063,0,1e-05,3e-05,0.00022,0.00015,-3e-05,4e-05,4e-05,6,7
34064,0,1e-05,3e-05,0.00022,0.00015,-3e-05,4e-05,4e-05,6,7
34065,0,1e-05,3e-05,0.00022,0.00015,-3e-05,4e-05,4e-05,6,7
34066,0,1e-05,3e-05,0.00022,0.00015,-3e-05,4e-05,4e-05,6,7
34067,0,1e-05,3e-05,0.00022,0.00015,-3e-05,4e-05,4e-05,6,7
34068,-1e-05,2e-05,-4e-05,1e-05,-0.00071,-0.00025,1e-05,1e-05,6,7
34069,-1e-05,2e-05,-4e-05,1e-05,-0.00071,-0.00025,1e-05,1e-05,6,7
34070,-1e-05,2e-05,-4e-05,1e-05,-0.00071,-0.00025,1e-05,1e-05,6,7
34071,-1e-05,2e-05,-4e-05,1e-05,-0.00071,-0.00025,1e-05,1e-05,6,7
34072,-1e-05,2e-05,-4e-05,1e-05,-0.00071,-0.00025,1e-05,1e-05,6,7
34073,-1e-05,2e-05,-4e-05,1e-05,-0.00071,-0.00025,1e-05,1e-05,6,7
34074,-1e-05,2e-05,-4e-05,1e-05,-0.00071,-0.00025,1e-05,1e-05,6,7
34075,-1e-05,2e-05,-4e-05,1e-05,-0.00071,-0.00025,1e-05,1e-05,6,7
34076,-1e-05,2e-05,-4e-05,1e-05,-0.00071,-0.00025,1e-05,1e-05,6,7
34077,1e-05,1e-05,0.00011,0.00055,0.00096,3e-05,-0.00014,2e-05,6,7
34078,-3e-05,-2e-05,-4e-05,-0.00021,-3e-05,-6e-05,0.00014,-6e-05,6,7
34079,-1e-05,1e-05,3e-05,1e-05,0.00056,0.00014,8e-05,-1e-05,6,7
34080,-1e-05,1e-05,3e-05,1e-05,0.00056,0.00014,8e-05,-1e-05,6,7
34081,-1e-05,1e-05,3e-05,1e-05,0.00056,0.00014,8e-05,-1e-05,6,7
34082,-1e-05,1e-05,3e-05,1e-05,0.00056,0.00014,8e-05,-1e-05,6,7
34083,-1e-05,1e-05,3e-05,1e-05,0.00056,0.00014,8e-05,-1e-05,6,7
34084,-1e-05,1e-05,3e-05,1e-05,0.00056,0.00014,8e-05,-1e-05,6,7
34085,-1e-05,1e-05,3e-05,1e-05,0.00056,0.00014,8e-05,-1e-05,6,7
34086,-1e-05,1e-05,3e-05,1e-05,0.00056,0.00014,8e-05,-1e-05,6,7
34088,-1e-05,1e-05,3e-05,1e-05,0.00056,0.00014,8e-05,-1e-05,6,7
34089,-1e-05,1e-05,3e-05,1e-05,0.00056,0.00014,8e-05,-1e-05,6,7
34090,-1e-05,1e-05,3e-05,1e-05,0.00056,0.00014,8e-05,-1e-05,6,7
34091,-1e-05,1e-05,3e-05,1e-05,0.00056,0.00014,8e-05,-1e-05,6,7
34092,-1e-05,1e-05,3e-05,1e-05,0.00056,0.00014,8e-05,-1e-05,6,7
34093,-1e-05,1e-05,3e-05,1e-05,0.00056,0.00014,8e-05,-1e-05,6,7
34094,-1e-05,1e-05,3e-05,1e-05,0.00056,0.00014,8e-05,-1e-05,6,7
34095,-1e-05,1e-05,3e-05,1e-05,0.00056,0.00014,8e-05,-1e-05,6,7
34096,-1e-05,1e-05,3e-05,1e-05,0.00056,0.00014,8e-05,-1e-05,6,7
34097,-1e-05,1e-05,3e-05,1e-05,0.00056,0.00014,8e-05,-1e-05,6,7
34098,-1e-05,1e-05,3e-05,1e-05,0.00056,0.00014,8e-05,-1e-05,6,7
34099,2e-05,0,-2e-05,-0.00014,-0.00068,-4e-05,5e-05,1e-05,6,7
34100,-1e-05,-2e-05,-6e-05,-0.00014,-0.00032,4e-05,7e-05,-2e-05,6,7
34101,-4e-05,-3e-05,-5e-05,-8e-05,0.00033,-6e-05,0.00027,2e-05,6,7
34102,-4e-05,-3e-05,-5e-05,-8e-05,0.00033,-6e-05,0.00027,2e-05,6,7
34103,-4e-05,-3e-05,-5e-05,-8e-05,0.00033,-6e-05,0.00027,2e-05,6,7
34104,-4e-05,-3e-05,-5e-05,-8e-05,0.00033,-6e-05,0.00027,2e-05,6,7
34105,-4e-05,-3e-05,-5e-05,-8e-05,0.00033,-6e-05,0.00027,2e-05,6,7
34106,-4e-05,-3e-05,-5e-05,-8e-05,0.00033,-6e-05,0.00027,2e-05,6,7
34107,-4e-05,-3e-05,-5e-05,-8e-05,0.00033,-6e-05,0.00027,2e-05,6,7
34108,-4e-05,-3e-05,-5e-05,-8e-05,0.00033,-6e-05,0.00027,2e-05,6,7
34109,-4e-05,-3e-05,-5e-05,-8e-05,0.00033,-6e-05,0.00027,2e-05,6,7
34110,-4e-05,-3e-05,-5e-05,-8e-05,0.00033,-6e-05,0.00027,2e-05,6,7
34111,-4e-05,-3e-05,-5e-05,-8e-05,0.00033,-6e-05,0.00027,2e-05,6,7
34112,-4e-05,-3e-05,-5e-05,-8e-05,0.00033,-6e-05,0.00027,2e-05,6,7
34113,-4e-05,-3e-05,-5e-05,-8e-05,0.00033,-6e-05,0.00027,2e-05,6,7
34114,-4e-05,-3e-05,-5e-05,-8e-05,0.00033,-6e-05,0.00027,2e-05,6,7
34115,-4e-05,-3e-05,-5e-05,-8e-05,0.00033,-6e-05,0.00027,2e-05,6,7
34116,-4e-05,-3e-05,-5e-05,-8e-05,0.00033,-6e-05,0.00027,2e-05,6,7
34117,-4e-05,-3e-05,-5e-05,-8e-05,0.00033,-6e-05,0.00027,2e-05,6,7
34118,-4e-05,-3e-05,-5e-05,-8e-05,0.00033,-6e-05,0.00027,2e-05,6,7
34119,-4e-05,-3e-05,-5e-05,-8e-05,0.00033,-6e-05,0.00027,2e-05,6,7
34120,-4e-05,-3e-05,-5e-05,-8e-05,0.00033,-6e-05,0.00027,2e-05,6,7
34121,-4e-05,-3e-05,-5e-05,-8e-05,0.00033,-6e-05,0.00027,2e-05,6,7
34122,1e-05,-2e-05,0,0.00011,-8e-05,5e-05,1e-05,-2e-05,6,7
34123,0,-1e-05,-6e-05,-0.00031,0.00011,-0.00012,-4e-05,1e-05,6,7
34124,-1e-05,-2e-05,0,0,9e-05,0.00049,9e-05,4e-05,6,7
34125,-1e-05,-2e-05,0,0,9e-05,0.00049,9e-05,4e-05,6,7
34126,-1e-05,-2e-05,0,0,9e-05,0.00049,9e-05,4e-05,6,7
34127,-1e-05,-2e-05,0,0,9e-05,0.00049,9e-05,4e-05,6,7
34128,-1e-05,-2e-05,0,0,9e-05,0.00049,9e-05,4e-05,6,7
34129,-1e-05,-2e-05,0,0,9e-05,0.00049,9e-05,4e-05,6,7
34130,-1e-05,-2e-05,0,0,9e-05,0.00049,9e-05,4e-05,6,7
34131,-1e-05,-2e-05,0,0,9e-05,0.00049,9e-05,4e-05,6,7
34132,-1e-05,-2e-05,0,0,9e-05,0.00049,9e-05,4e-05,6,7
34133,-1e-05,-2e-05,0,0,9e-05,0.00049,9e-05,4e-05,6,7
34134,-1e-05,-2e-05,0,0,9e-05,0.00049,9e-05,4e-05,6,7
34135,-1e-05,-2e-05,0,0,9e-05,0.00049,9e-05,4e-05,6,7
34136,-1e-05,-2e-05,0,0,9e-05,0.00049,9e-05,4e-05,6,7
34139,-1e-05,-2e-05,-2e-05,0,-0.00011,-2e-05,2e-05,1e-05,6,7
34140,-1e-05,-2e-05,-2e-05,0,-0.00011,-2e-05,2e-05,1e-05,6,7
34141,-1e-05,-2e-05,-2e-05,0,-0.00011,-2e-05,2e-05,1e-05,6,7
34142,-1e-05,-2e-05,-2e-05,0,-0.00011,-2e-05,2e-05,1e-05,6,7
34143,-1e-05,-2e-05,-2e-05,0,-0.00011,-2e-05,2e-05,1e-05,6,7
34144,-1e-05,-2e-05,-2e-05,0,-0.00011,-2e-05,2e-05,1e-05,6,7
34145,-1e-05,-2e-05,-2e-05,0,-0.00011,-2e-05,2e-05,1e-05,6,7
34146,-1e-05,-2e-05,-2e-05,0,-0.00011,-2e-05,2e-05,1e-05,6,7
34147,-1e-05,-2e-05,-2e-05,0,-0.00011,-2e-05,2e-05,1e-05,6,7
34148,-1e-05,-2e-05,-2e-05,0,-0.00011,-2e-05,2e-05,1e-05,6,7
34149,-1e-05,-2e-05,-2e-05,0,-0.00011,-2e-05,2e-05,1e-05,6,7
34150,-1e-05,-2e-05,-2e-05,0,-0.00011,-2e-05,2e-05,1e-05,6,7
34151,-1e-05,-2e-05,-2e-05,0,-0.00011,-2e-05,2e-05,1e-05,6,7
34152,-1e-05,-2e-05,-2e-05,0,-0.00011,-2e-05,2e-05,1e-05,6,7
34153,-1e-05,-2e-05,-2e-05,0,-0.00011,-2e-05,2e-05,1e-05,6,7
