31591,2e-05,-1e-05,-2e-05,-6e-05,4e-05,-0.00074,-0.00036,0.00044,6,8
31592,2e-05,-1e-05,-2e-05,-6e-05,4e-05,-0.00074,-0.00036,0.00044,6,8
31593,0.00027,7e-05,6e-05,2e-05,2e-05,0.00054,0.00011,-0.00034,6,8
31594,0,-2e-05,3e-05,0.00014,0.00021,0.00027,-6e-05,0.00045,6,8
31595,5e-05,1e-05,-3e-05,-0.00012,-0.00022,-0.00067,0.00018,-0.00019,6,8
31596,5e-05,1e-05,-3e-05,-0.00012,-0.00022,-0.00067,0.00018,-0.00019,6,8
31597,5e-05,1e-05,-3e-05,-0.00012,-0.00022,-0.00067,0.00018,-0.00019,6,8
31598,5e-05,1e-05,-3e-05,-0.00012,-0.00022,-0.00067,0.00018,-0.00019,6,8
31599,5e-05,1e-05,-3e-05,-0.00012,-0.00022,-0.00067,0.00018,-0.00019,6,8
31600,5e-05,1e-05,-3e-05,-0.00012,-0.00022,-0.00067,0.00018,-0.00019,6,8
31601,5e-05,1e-05,-3e-05,-0.00012,-0.00022,-0.00067,0.00018,-0.00019,6,8
31602,5e-05,1e-05,-3e-05,-0.00012,-0.00022,-0.00067,0.00018,-0.00019,6,8
31603,5e-05,1e-05,-3e-05,-0.00012,-0.00022,-0.00067,0.00018,-0.00019,6,8
31604,5e-05,1e-05,-3e-05,-0.00012,-0.00022,-0.00067,0.00018,-0.00019,6,8
31605,5e-05,1e-05,-3e-05,-0.00012,-0.00022,-0.00067,0.00018,-0.00019,6,8
31606,5e-05,1e-05,-3e-05,-0.00012,-0.00022,-0.00067,0.00018,-0.00019,6,8
31607,5e-05,1e-05,-3e-05,-0.00012,-0.00022,-0.00067,0.00018,-0.00019,6,8
31608,5e-05,1e-05,-3e-05,-0.00012,-0.00022,-0.00067,0.00018,-0.00019,6,8
31609,5e-05,1e-05,-3e-05,-0.00012,-0.00022,-0.00067,0.00018,-0.00019,6,8
31610,5e-05,1e-05,-3e-05,-0.00012,-0.00022,-0.00067,0.00018,-0.00019,6,8
31611,5e-05,1e-05,-3e-05,-0.00012,-0.00022,-0.00067,0.00018,-0.00019,6,8
31612,5e-05,1e-05,-3e-05,-0.00012,-0.00022,-0.00067,0.00018,-0.00019,6,8
31613,5e-05,1e-05,-3e-05,-0.00012,-0.00022,-0.00067,0.00018,-0.00019,6,8
31614,5e-05,1e-05,-3e-05,-0.00012,-0.00022,-0.00067,0.00018,-0.00019,6,8
31615,-7e-05,-7e-05,-8e-05,-0.00011,-0.00022,-0.00033,-0.0001,0,6,8
31616,-0.00025,-9e-05,-0.00014,-8e-05,9e-05,-0.0005,-6e-05,-0.00066,6,8
31617,6e-05,9e-05,0.0001,3e-05,0.00013,0.00044,0.00014,0.00031,6,8
31618,6e-05,9e-05,0.0001,3e-05,0.00013,0.00044,0.00014,0.00031,6,8
31619,6e-05,9e-05,0.0001,3e-05,0.00013,0.00044,0.00014,0.00031,6,8
31620,6e-05,9e-05,0.0001,3e-05,0.00013,0.00044,0.00014,0.00031,6,8
31621,6e-05,9e-05,0.0001,3e-05,0.00013,0.00044,0.00014,0.00031,6,8
31622,6e-05,9e-05,0.0001,3e-05,0.00013,0.00044,0.00014,0.00031,6,8
31623,6e-05,9e-05,0.0001,3e-05,0.00013,0.00044,0.00014,0.00031,6,8
31624,6e-05,9e-05,0.0001,3e-05,0.00013,0.00044,0.00014,0.00031,6,8
31625,6e-05,9e-05,0.0001,3e-05,0.00013,0.00044,0.00014,0.00031,6,8
31626,6e-05,9e-05,0.0001,3e-05,0.00013,0.00044,0.00014,0.00031,6,8
31627,6e-05,9e-05,0.0001,3e-05,0.00013,0.00044,0.00014,0.00031,6,8
31628,6e-05,9e-05,0.0001,3e-05,0.00013,0.00044,0.00014,0.00031,6,8
31629,6e-05,9e-05,0.0001,3e-05,0.00013,0.00044,0.00014,0.00031,6,8
31630,6e-05,9e-05,0.0001,3e-05,0.00013,0.00044,0.00014,0.00031,6,8
31631,6e-05,9e-05,0.0001,3e-05,0.00013,0.00044,0.00014,0.00031,6,8
31632,6e-05,9e-05,0.0001,3e-05,0.00013,0.00044,0.00014,0.00031,6,8
31633,6e-05,9e-05,0.0001,3e-05,0.00013,0.00044,0.00014,0.00031,6,8
31634,6e-05,9e-05,0.0001,3e-05,0.00013,0.00044,0.00014,0.00031,6,8
31635,6e-05,9e-05,0.0001,3e-05,0.00013,0.00044,0.00014,0.00031,6,8
31636,6e-05,9e-05,0.0001,3e-05,0.00013,0.00044,0.00014,0.00031,6,8
31638,6e-05,9e-05,0.0001,3e-05,0.00013,0.00044,0.00014,0.00031,6,8
31640,6e-05,9e-05,0.0001,3e-05,0.00013,0.00044,0.00014,0.00031,6,8
31641,6e-05,9e-05,0.0001,3e-05,0.00013,0.00044,0.00014,0.00031,6,8
31642,6e-05,9e-05,0.0001,3e-05,0.00013,0.00044,0.00014,0.00031,6,8
31643,6e-05,9e-05,0.0001,3e-05,0.00013,0.00044,0.00014,0.00031,6,8
31644,-9e-05,-1e-05,2e-05,8e-05,0.00025,0.00069,-5e-05,-9e-05,6,8
31645,-9e-05,-1e-05,2e-05,8e-05,0.00025,0.00069,-5e-05,-9e-05,6,8
31646,-0.00031,-1e-05,6e-05,0.00012,0.00039,0.00029,9e-05,-5e-05,6,8
31647,-0.00031,-1e-05,6e-05,0.00012,0.00039,0.00029,9e-05,-5e-05,6,8
31648,-0.00031,-1e-05,6e-05,0.00012,0.00039,0.00029,9e-05,-5e-05,6,8
31649,-0.00031,-1e-05,6e-05,0.00012,0.00039,0.00029,9e-05,-5e-05,6,8
31650,-0.00031,-1e-05,6e-05,0.00012,0.00039,0.00029,9e-05,-5e-05,6,8
31651,-0.00031,-1e-05,6e-05,0.00012,0.00039,0.00029,9e-05,-5e-05,6,8
31652,-0.00031,-1e-05,6e-05,0.00012,0.00039,0.00029,9e-05,-5e-05,6,8
31653,-0.00031,-1e-05,6e-05,0.00012,0.00039,0.00029,9e-05,-5e-05,6,8
31654,-0.00031,-1e-05,6e-05,0.00012,0.00039,0.00029,9e-05,-5e-05,6,8
31655,-0.00031,-1e-05,6e-05,0.00012,0.00039,0.00029,9e-05,-5e-05,6,8
31656,-0.00031,-1e-05,6e-05,0.00012,0.00039,0.00029,9e-05,-5e-05,6,8
31657,-0.00031,-1e-05,6e-05,0.00012,0.00039,0.00029,9e-05,-5e-05,6,8
31658,-0.00031,-1e-05,6e-05,0.00012,0.00039,0.00029,9e-05,-5e-05,6,8
31659,-0.00031,-1e-05,6e-05,0.00012,0.00039,0.00029,9e-05,-5e-05,6,8
31660,-0.00031,-1e-05,6e-05,0.00012,0.00039,0.00029,9e-05,-5e-05,6,8
31661,-0.00031,-1e-05,6e-05,0.00012,0.00039,0.00029,9e-05,-5e-05,6,8
31662,-0.00031,-1e-05,6e-05,0.00012,0.00039,0.00029,9e-05,-5e-05,6,8
31663,-0.00031,-1e-05,6e-05,0.00012,0.00039,0.00029,9e-05,-5e-05,6,8
31664,-0.00031,-1e-05,6e-05,0.00012,0.00039,0.00029,9e-05,-5e-05,6,8
31665,-0.00031,-1e-05,6e-05,0.00012,0.00039,0.00029,9e-05,-5e-05,6,8
31666,-0.00031,-1e-05,6e-05,0.00012,0.00039,0.00029,9e-05,-5e-05,6,8
31667,0.0001,2e-05,0,-4e-05,-0.00054,-8e-05,0,0.00037,6,8
31668,2e-05,5e-05,-2e-05,-8e-05,0,0.00028,-0.00017,-0.00041,6,8
31669,2e-05,5e-05,-2e-05,-8e-05,0,0.00028,-0.00017,-0.00041,6,8
31670,2e-05,5e-05,-2e-05,-8e-05,0,0.00028,-0.00017,-0.00041,6,8
31671,2e-05,5e-05,-2e-05,-8e-05,0,0.00028,-0.00017,-0.00041,6,8
31672,2e-05,5e-05,-2e-05,-8e-05,0,0.00028,-0.00017,-0.00041,6,8
31673,2e-05,5e-05,-2e-05,-8e-05,0,0.00028,-0.00017,-0.00041,6,8
31674,-0.00018,-0.00011,-5e-05,-7e-05,-0.00021,-4e-05,0.00011,-0.00018,6,8
31675,-0.00018,-0.00011,-5e-05,-7e-05,-0.00021,-4e-05,0.00011,-0.00018,6,8
31676,0.00019,0.00011,5e-05,8e-05,0.00017,0.00019,0.00092,-0.00019,6,8
31677,0.00019,0.00011,5e-05,8e-05,0.00017,0.00019,0.00092,-0.00019,6,8
31678,0.00019,0.00011,5e-05,8e-05,0.00017,0.00019,0.00092,-0.00019,6,8
31679,0.00019,0.00011,5e-05,8e-05,0.00017,0.00019,0.00092,-0.00019,6,8
31680,0.00019,0.00011,5e-05,8e-05,0.00017,0.00019,0.00092,-0.00019,6,8
31681,0.00019,0.00011,5e-05,8e-05,0.00017,0.00019,0.00092,-0.00019,6,8
31682,0.00019,0.00011,5e-05,8e-05,0.00017,0.00019,0.00092,-0.00019,6,8
31683,0.00019,0.00011,5e-05,8e-05,0.00017,0.00019,0.00092,-0.00019,6,8
31684,0.00019,0.00011,5e-05,8e-05,0.00017,0.00019,0.00092,-0.00019,6,8
31685,0.00019,0.00011,5e-05,8e-05,0.00017,0.00019,0.00092,-0.00019,6,8
31686,0.00019,0.00011,5e-05,8e-05,0.00017,0.00019,0.00092,-0.00019,6,8
31689,0.00022,3e-05,1e-05,0.00019,0.0001,0.00025,0.00012,0.00065,6,8
31690,0.00022,3e-05,1e-05,0.00019,0.0001,0.00025,0.00012,0.00065,6,8
31691,0.00022,3e-05,1e-05,0.00019,0.0001,0.00025,0.00012,0.00065,6,8
31692,0.00022,3e-05,1e-05,0.00019,0.0001,0.00025,0.00012,0.00065,6,8
31693,0.00022,3e-05,1e-05,0.00019,0.0001,0.00025,0.00012,0.00065,6,8
31694,0.00022,3e-05,1e-05,0.00019,0.0001,0.00025,0.00012,0.00065,6,8
31695,-3e-05,2e-05,1e-05,-0.0001,-0.00036,-0.00049,-3e-05,2e-05,6,8
31696,-0.00011,0,-3e-05,-8e-05,-0.00023,-0.00038,-7e-05,-0.00025,6,8
31697,-0.00011,0,-3e-05,-8e-05,-0.00023,-0.00038,-7e-05,-0.00025,6,8
31698,-0.00011,0,-3e-05,-8e-05,-0.00023,-0.00038,-7e-05,-0.00025,6,8
31699,-0.00011,0,-3e-05,-8e-05,-0.00023,-0.00038,-7e-05,-0.00025,6,8
31700,-0.00011,0,-3e-05,-8e-05,-0.00023,-0.00038,-7e-05,-0.00025,6,8
31701,-0.00011,0,-3e-05,-8e-05,-0.00023,-0.00038,-7e-05,-0.00025,6,8
31702,-0.00011,0,-3e-05,-8e-05,-0.00023,-0.00038,-7e-05,-0.00025,6,8
31703,-0.00011,0,-3e-05,-8e-05,-0.00023,-0.00038,-7e-05,-0.00025,6,8
31704,-0.00011,0,-3e-05,-8e-05,-0.00023,-0.00038,-7e-05,-0.00025,6,8
31705,-0.00011,0,-3e-05,-8e-05,-0.00023,-0.00038,-7e-05,-0.00025,6,8
31706,-0.00011,0,-3e-05,-8e-05,-0.00023,-0.00038,-7e-05,-0.00025,6,8
31707,-0.00011,0,-3e-05,-8e-05,-0.00023,-0.00038,-7e-05,-0.00025,6,8
31708,-0.00011,0,-3e-05,-8e-05,-0.00023,-0.00038,-7e-05,-0.00025,6,8
31709,-0.00011,0,-3e-05,-8e-05,-0.00023,-0.00038,-7e-05,-0.00025,6,8
31710,-0.00011,0,-3e-05,-8e-05,-0.00023,-0.00038,-7e-05,-0.00025,6,8
31711,-0.00011,0,-3e-05,-8e-05,-0.00023,-0.00038,-7e-05,-0.00025,6,8
31712,-0.00011,0,-3e-05,-8e-05,-0.00023,-0.00038,-7e-05,-0.00025,6,8
31713,-0.00011,0,-3e-05,-8e-05,-0.00023,-0.00038,-7e-05,-0.00025,6,8
31714,-0.00011,0,-3e-05,-8e-05,-0.00023,-0.00038,-7e-05,-0.00025,6,8
31715,-0.00011,0,-3e-05,-8e-05,-0.00023,-0.00038,-7e-05,-0.00025,6,8
31716,-0.00011,0,-3e-05,-8e-05,-0.00023,-0.00038,-7e-05,-0.00025,6,8
31717,-0.00011,0,-3e-05,-8e-05,-0.00023,-0.00038,-7e-05,-0.00025,6,8
31718,-0.00011,0,-3e-05,-8e-05,-0.00023,-0.00038,-7e-05,-0.00025,6,8
31719,-6e-05,1e-05,2e-05,-3e-05,0.00024,0.00052,0.0003,-0.0004,6,8
31720,-6e-05,1e-05,2e-05,-3e-05,0.00024,0.00052,0.0003,-0.0004,6,8
31721,0.0001,-7e-05,2e-05,0.00012,0.00034,-0.0003,-0.00048,0.00016,6,8
31722,0.0001,-7e-05,2e-05,0.00012,0.00034,-0.0003,-0.00048,0.00016,6,8
31723,0.0001,-7e-05,2e-05,0.00012,0.00034,-0.0003,-0.00048,0.00016,6,8
31724,0.0001,-7e-05,2e-05,0.00012,0.00034,-0.0003,-0.00048,0.00016,6,8
31725,0.0001,-7e-05,2e-05,0.00012,0.00034,-0.0003,-0.00048,0.00016,6,8
31726,0.0001,-7e-05,2e-05,0.00012,0.00034,-0.0003,-0.00048,0.00016,6,8
31727,0.0001,-7e-05,2e-05,0.00012,0.00034,-0.0003,-0.00048,0.00016,6,8
31728,0.0001,-7e-05,2e-05,0.00012,0.00034,-0.0003,-0.00048,0.00016,6,8
31729,0.0001,-7e-05,2e-05,0.00012,0.00034,-0.0003,-0.00048,0.00016,6,8
31730,0.0001,-7e-05,2e-05,0.00012,0.00034,-0.0003,-0.00048,0.00016,6,8
31731,0.0001,-7e-05,2e-05,0.00012,0.00034,-0.0003,-0.00048,0.00016,6,8
31732,0.0001,-7e-05,2e-05,0.00012,0.00034,-0.0003,-0.00048,0.00016,6,8
31733,0.0001,-7e-05,2e-05,0.00012,0.00034,-0.0003,-0.00048,0.00016,6,8
31734,0.0001,-7e-05,2e-05,0.00012,0.00034,-0.0003,-0.00048,0.00016,6,8
31735,0.0001,-7e-05,2e-05,0.00012,0.00034,-0.0003,-0.00048,0.00016,6,8
31736,0.0001,-7e-05,2e-05,0.00012,0.00034,-0.0003,-0.00048,0.00016,6,8
31738,0.0001,-7e-05,2e-05,0.00012,0.00034,-0.0003,-0.00048,0.00016,6,8
31739,0.0001,-7e-05,2e-05,0.00012,0.00034,-0.0003,-0.00048,0.00016,6,8
31740,0.0001,-7e-05,2e-05,0.00012,0.00034,-0.0003,-0.00048,0.00016,6,8
31741,0.0001,-7e-05,2e-05,0.00012,0.00034,-0.0003,-0.00048,0.00016,6,8
31742,0.0001,-7e-05,2e-05,0.00012,0.00034,-0.0003,-0.00048,0.00016,6,8
31743,0.00027,1e-05,2e-05,0.0001,0.00021,0.00048,0.00019,-0.00036,6,8
31744,-0.00013,1e-05,-1e-05,-0.00013,-0.00044,1e-05,-0.00026,0.00013,6,8
31745,-0.00013,1e-05,-1e-05,-0.00013,-0.00044,1e-05,-0.00026,0.00013,6,8
31746,-0.00013,1e-05,-1e-05,-0.00013,-0.00044,1e-05,-0.00026,0.00013,6,8
31747,-0.00013,1e-05,-1e-05,-0.00013,-0.00044,1e-05,-0.00026,0.00013,6,8
31748,1e-05,0,1e-05,4e-05,0.00018,0.00066,0.0002,-0.00022,6,8
31749,-0.00011,0,2e-05,4e-05,0.0001,-0.00031,8e-05,0.00077,6,8
31750,-0.00011,0,2e-05,4e-05,0.0001,-0.00031,8e-05,0.00077,6,8
31751,-0.00011,0,2e-05,4e-05,0.0001,-0.00031,8e-05,0.00077,6,8
31752,-0.00011,0,2e-05,4e-05,0.0001,-0.00031,8e-05,0.00077,6,8
31753,-0.00011,0,2e-05,4e-05,0.0001,-0.00031,8e-05,0.00077,6,8
31754,-0.00011,0,2e-05,4e-05,0.0001,-0.00031,8e-05,0.00077,6,8
31755,-0.00011,0,2e-05,4e-05,0.0001,-0.00031,8e-05,0.00077,6,8
31756,-0.00011,0,2e-05,4e-05,0.0001,-0.00031,8e-05,0.00077,6,8
31757,-0.00011,0,2e-05,4e-05,0.0001,-0.00031,8e-05,0.00077,6,8
31758,-0.00011,0,2e-05,4e-05,0.0001,-0.00031,8e-05,0.00077,6,8
31759,-0.00011,0,2e-05,4e-05,0.0001,-0.00031,8e-05,0.00077,6,8
31760,-0.00011,0,2e-05,4e-05,0.0001,-0.00031,8e-05,0.00077,6,8
31761,-0.00011,0,2e-05,4e-05,0.0001,-0.00031,8e-05,0.00077,6,8
31762,-0.00011,0,2e-05,4e-05,0.0001,-0.00031,8e-05,0.00077,6,8
31763,-0.00011,0,2e-05,4e-05,0.0001,-0.00031,8e-05,0.00077,6,8
31764,-0.00011,0,2e-05,4e-05,0.0001,-0.00031,8e-05,0.00077,6,8
31765,-0.00011,0,2e-05,4e-05,0.0001,-0.00031,8e-05,0.00077,6,8
31766,-0.00011,0,2e-05,4e-05,0.0001,-0.00031,8e-05,0.00077,6,8
31767,-0.00011,0,2e-05,4e-05,0.0001,-0.00031,8e-05,0.00077,6,8
31768,-0.00011,0,2e-05,4e-05,0.0001,-0.00031,8e-05,0.00077,6,8
31769,-0.00011,0,2e-05,4e-05,0.0001,-0.00031,8e-05,0.00077,6,8
31770,-0.00011,0,2e-05,4e-05,0.0001,-0.00031,8e-05,0.00077,6,8
31771,-0.00011,0,2e-05,4e-05,0.0001,-0.00031,8e-05,0.00077,6,8
31772,9e-05,4e-05,1e-05,-5e-05,-0.0002,4e-05,-0.0001,-0.00037,6,8
31773,4e-05,-4e-05,-5e-05,-0.00013,-6e-05,-0.00059,0.00023,0,6,8
31774,-6e-05,0.00011,0.00014,0.0004,0.00042,0.00013,0,-0.00023,6,8
31775,-0.00011,-7e-05,-0.00012,-0.00019,-0.00042,-0.00027,0.00017,-0.00037,6,8
31776,-0.00011,-7e-05,-0.00012,-0.00019,-0.00042,-0.00027,0.00017,-0.00037,6,8
31777,-0.00011,-7e-05,-0.00012,-0.00019,-0.00042,-0.00027,0.00017,-0.00037,6,8
31778,-0.00011,-7e-05,-0.00012,-0.00019,-0.00042,-0.00027,0.00017,-0.00037,6,8
31779,-0.00011,-7e-05,-0.00012,-0.00019,-0.00042,-0.00027,0.00017,-0.00037,6,8
31780,-0.00011,-7e-05,-0.00012,-0.00019,-0.00042,-0.00027,0.00017,-0.00037,6,8
31781,-0.00011,-7e-05,-0.00012,-0.00019,-0.00042,-0.00027,0.00017,-0.00037,6,8
31782,-0.00011,-7e-05,-0.00012,-0.00019,-0.00042,-0.00027,0.00017,-0.00037,6,8
31783,-0.00011,-7e-05,-0.00012,-0.00019,-0.00042,-0.00027,0.00017,-0.00037,6,8
31784,-0.00011,-7e-05,-0.00012,-0.00019,-0.00042,-0.00027,0.00017,-0.00037,6,8
31785,-0.00011,-7e-05,-0.00012,-0.00019,-0.00042,-0.00027,0.00017,-0.00037,6,8
31786,-0.00011,-7e-05,-0.00012,-0.00019,-0.00042,-0.00027,0.00017,-0.00037,6,8
31789,-0.00011,-7e-05,-0.00012,-0.00019,-0.00042,-0.00027,0.00017,-0.00037,6,8
31790,-0.00011,-7e-05,-0.00012,-0.00019,-0.00042,-0.00027,0.00017,-0.00037,6,8
31791,-0.00011,-7e-05,-0.00012,-0.00019,-0.00042,-0.00027,0.00017,-0.00037,6,8
31792,-0.00011,-7e-05,-0.00012,-0.00019,-0.00042,-0.00027,0.00017,-0.00037,6,8
31793,-0.00011,-7e-05,-0.00012,-0.00019,-0.00042,-0.00027,0.00017,-0.00037,6,8
31794,-0.00011,-7e-05,-0.00012,-0.00019,-0.00042,-0.00027,0.00017,-0.00037,6,8
31795,0.00029,7e-05,3e-05,-0.00015,0.00019,0.00034,0.00012,6e-05,6,8
31796,6e-05,-1e-05,3e-05,0.00012,0.00041,0.00041,-2e-05,0.00014,6,8
31797,6e-05,-1e-05,3e-05,0.00012,0.00041,0.00041,-2e-05,0.00014,6,8
31798,6e-05,-1e-05,3e-05,0.00012,0.00041,0.00041,-2e-05,0.00014,6,8
31799,6e-05,-1e-05,3e-05,0.00012,0.00041,0.00041,-2e-05,0.00014,6,8
31800,6e-05,-1e-05,3e-05,0.00012,0.00041,0.00041,-2e-05,0.00014,6,8
31801,6e-05,-1e-05,3e-05,0.00012,0.00041,0.00041,-2e-05,0.00014,6,8
31802,6e-05,-1e-05,3e-05,0.00012,0.00041,0.00041,-2e-05,0.00014,6,8
31803,6e-05,-1e-05,3e-05,0.00012,0.00041,0.00041,-2e-05,0.00014,6,8
31804,6e-05,-1e-05,3e-05,0.00012,0.00041,0.00041,-2e-05,0.00014,6,8
31805,6e-05,-1e-05,3e-05,0.00012,0.00041,0.00041,-2e-05,0.00014,6,8
31806,6e-05,-1e-05,3e-05,0.00012,0.00041,0.00041,-2e-05,0.00014,6,8
31807,6e-05,-1e-05,3e-05,0.00012,0.00041,0.00041,-2e-05,0.00014,6,8
31808,6e-05,-1e-05,3e-05,0.00012,0.00041,0.00041,-2e-05,0.00014,6,8
31809,6e-05,-1e-05,3e-05,0.00012,0.00041,0.00041,-2e-05,0.00014,6,8
31810,6e-05,-1e-05,3e-05,0.00012,0.00041,0.00041,-2e-05,0.00014,6,8
31811,6e-05,-1e-05,3e-05,0.00012,0.00041,0.00041,-2e-05,0.00014,6,8
31812,6e-05,-1e-05,3e-05,0.00012,0.00041,0.00041,-2e-05,0.00014,6,8
31813,6e-05,-1e-05,3e-05,0.00012,0.00041,0.00041,-2e-05,0.00014,6,8
31814,6e-05,-1e-05,3e-05,0.00012,0.00041,0.00041,-2e-05,0.00014,6,8
31815,6e-05,-1e-05,3e-05,0.00012,0.00041,0.00041,-2e-05,0.00014,6,8
31816,6e-05,-1e-05,3e-05,0.00012,0.00041,0.00041,-2e-05,0.00014,6,8
31817,-1e-05,1e-05,-3e-05,-6e-05,-0.00021,0.00033,-0.00014,-8e-05,6,8
31818,-1e-05,1e-05,-3e-05,-6e-05,-0.00021,0.00033,-0.00014,-8e-05,6,8
31819,9e-05,-5e-05,-0.00014,-0.00023,-0.00075,0.00041,0.00035,0.00081,6,8
31820,9e-05,-5e-05,-0.00014,-0.00023,-0.00075,0.00041,0.00035,0.00081,6,8
31821,9e-05,-5e-05,-0.00014,-0.00023,-0.00075,0.00041,0.00035,0.00081,6,8
31822,9e-05,-5e-05,-0.00014,-0.00023,-0.00075,0.00041,0.00035,0.00081,6,8
31823,9e-05,-5e-05,-0.00014,-0.00023,-0.00075,0.00041,0.00035,0.00081,6,8
31824,9e-05,-5e-05,-0.00014,-0.00023,-0.00075,0.00041,0.00035,0.00081,6,8
31825,9e-05,-5e-05,-0.00014,-0.00023,-0.00075,0.00041,0.00035,0.00081,6,8
31826,9e-05,-5e-05,-0.00014,-0.00023,-0.00075,0.00041,0.00035,0.00081,6,8
31827,9e-05,-5e-05,-0.00014,-0.00023,-0.00075,0.00041,0.00035,0.00081,6,8
31828,9e-05,-5e-05,-0.00014,-0.00023,-0.00075,0.00041,0.00035,0.00081,6,8
31829,9e-05,-5e-05,-0.00014,-0.00023,-0.00075,0.00041,0.00035,0.00081,6,8
31830,9e-05,-5e-05,-0.00014,-0.00023,-0.00075,0.00041,0.00035,0.00081,6,8
31831,9e-05,-5e-05,-0.00014,-0.00023,-0.00075,0.00041,0.00035,0.00081,6,8
31832,9e-05,-5e-05,-0.00014,-0.00023,-0.00075,0.00041,0.00035,0.00081,6,8
31833,9e-05,-5e-05,-0.00014,-0.00023,-0.00075,0.00041,0.00035,0.00081,6,8
31834,9e-05,-5e-05,-0.00014,-0.00023,-0.00075,0.00041,0.00035,0.00081,6,8
31835,9e-05,-5e-05,-0.00014,-0.00023,-0.00075,0.00041,0.00035,0.00081,6,8
31836,9e-05,-5e-05,-0.00014,-0.00023,-0.00075,0.00041,0.00035,0.00081,6,8
31839,9e-05,-5e-05,-0.00014,-0.00023,-0.00075,0.00041,0.00035,0.00081,6,8
31840,9e-05,-5e-05,-0.00014,-0.00023,-0.00075,0.00041,0.00035,0.00081,6,8
31841,9e-05,-5e-05,-0.00014,-0.00023,-0.00075,0.00041,0.00035,0.00081,6,8
31842,9e-05,-5e-05,-0.00014,-0.00023,-0.00075,0.00041,0.00035,0.00081,6,8
31843,9e-05,-5e-05,-0.00014,-0.00023,-0.00075,0.00041,0.00035,0.00081,6,8
31844,9e-05,-5e-05,-0.00014,-0.00023,-0.00075,0.00041,0.00035,0.00081,6,8
31845,9e-05,-5e-05,-0.00014,-0.00023,-0.00075,0.00041,0.00035,0.00081,6,8
31846,9e-05,-5e-05,-0.00014,-0.00023,-0.00075,0.00041,0.00035,0.00081,6,8
31847,-9e-05,-7e-05,-0.00012,-0.00011,-0.00021,-0.0005,-0.00025,0.0008,6,8
31848,0.00024,0.00013,9e-05,6e-05,0.00019,0.00021,-0.0001,0.00027,6,8
31849,-0.00022,-0.00016,-4e-05,-1e-05,-0.0002,-0.00067,5e-05,-0.0001,6,8
31850,-0.00022,-0.00016,-4e-05,-1e-05,-0.0002,-0.00067,5e-05,-0.0001,6,8
31851,-0.00022,-0.00016,-4e-05,-1e-05,-0.0002,-0.00067,5e-05,-0.0001,6,8
31852,-0.00022,-0.00016,-4e-05,-1e-05,-0.0002,-0.00067,5e-05,-0.0001,6,8
31853,-0.00022,-0.00016,-4e-05,-1e-05,-0.0002,-0.00067,5e-05,-0.0001,6,8
31854,-0.00022,-0.00016,-4e-05,-1e-05,-0.0002,-0.00067,5e-05,-0.0001,6,8
31855,-0.00022,-0.00016,-4e-05,-1e-05,-0.0002,-0.00067,5e-05,-0.0001,6,8
31856,-0.00022,-0.00016,-4e-05,-1e-05,-0.0002,-0.00067,5e-05,-0.0001,6,8
31857,-0.00022,-0.00016,-4e-05,-1e-05,-0.0002,-0.00067,5e-05,-0.0001,6,8
31858,-0.00022,-0.00016,-4e-05,-1e-05,-0.0002,-0.00067,5e-05,-0.0001,6,8
31859,-0.00022,-0.00016,-4e-05,-1e-05,-0.0002,-0.00067,5e-05,-0.0001,6,8
31860,-0.00022,-0.00016,-4e-05,-1e-05,-0.0002,-0.00067,5e-05,-0.0001,6,8
31861,-6e-05,-2e-05,-4e-05,-7e-05,-0.00038,-0.0005,0.0001,0.00044,6,8
31862,-6e-05,-2e-05,-4e-05,-7e-05,-0.00038,-0.0005,0.0001,0.00044,6,8
31863,-6e-05,-2e-05,-4e-05,-7e-05,-0.00038,-0.0005,0.0001,0.00044,6,8
31864,-6e-05,-2e-05,-4e-05,-7e-05,-0.00038,-0.0005,0.0001,0.00044,6,8
31865,-6e-05,-2e-05,-4e-05,-7e-05,-0.00038,-0.0005,0.0001,0.00044,6,8
31866,-6e-05,-2e-05,-4e-05,-7e-05,-0.00038,-0.0005,0.0001,0.00044,6,8
31867,-6e-05,-2e-05,-4e-05,-7e-05,-0.00038,-0.0005,0.0001,0.00044,6,8
31868,-6e-05,-2e-05,-4e-05,-7e-05,-0.00038,-0.0005,0.0001,0.00044,6,8
31869,-6e-05,-2e-05,-4e-05,-7e-05,-0.00038,-0.0005,0.0001,0.00044,6,8
31870,9e-05,0,7e-05,0.00024,0,-0.00017,-9e-05,-0.00021,6,8
31871,-0.00017,-3e-05,0,-0.00013,-4e-05,0.00034,0.00064,-0.0001,6,8
31872,-0.00017,-3e-05,0,-0.00013,-4e-05,0.00034,0.00064,-0.0001,6,8
31873,-0.00017,-3e-05,0,-0.00013,-4e-05,0.00034,0.00064,-0.0001,6,8
31874,-0.00017,-3e-05,0,-0.00013,-4e-05,0.00034,0.00064,-0.0001,6,8
31875,-0.00017,-3e-05,0,-0.00013,-4e-05,0.00034,0.00064,-0.0001,6,8
31876,-0.00017,-3e-05,0,-0.00013,-4e-05,0.00034,0.00064,-0.0001,6,8
31877,-0.00017,-3e-05,0,-0.00013,-4e-05,0.00034,0.00064,-0.0001,6,8
31878,-0.00017,-3e-05,0,-0.00013,-4e-05,0.00034,0.00064,-0.0001,6,8
31879,-0.00017,-3e-05,0,-0.00013,-4e-05,0.00034,0.00064,-0.0001,6,8
31880,-0.00017,-3e-05,0,-0.00013,-4e-05,0.00034,0.00064,-0.0001,6,8
31881,-0.00017,-3e-05,0,-0.00013,-4e-05,0.00034,0.00064,-0.0001,6,8
31882,-0.00017,-3e-05,0,-0.00013,-4e-05,0.00034,0.00064,-0.0001,6,8
31883,-0.00017,-3e-05,0,-0.00013,-4e-05,0.00034,0.00064,-0.0001,6,8
31884,-0.00017,-3e-05,0,-0.00013,-4e-05,0.00034,0.00064,-0.0001,6,8
31885,-0.00017,-3e-05,0,-0.00013,-4e-05,0.00034,0.00064,-0.0001,6,8
31886,-0.00017,-3e-05,0,-0.00013,-4e-05,0.00034,0.00064,-0.0001,6,8
31889,-0.00017,-3e-05,0,-0.00013,-4e-05,0.00034,0.00064,-0.0001,6,8
31890,-0.00017,-3e-05,0,-0.00013,-4e-05,0.00034,0.00064,-0.0001,6,8
31891,-0.00017,-3e-05,0,-0.00013,-4e-05,0.00034,0.00064,-0.0001,6,8
31892,-0.00017,-3e-05,0,-0.00013,-4e-05,0.00034,0.00064,-0.0001,6,8
31893,-0.00017,-3e-05,0,-0.00013,-4e-05,0.00034,0.00064,-0.0001,6,8
31894,-3e-05,2e-05,2e-05,-2e-05,0.00032,4e-05,-0.00016,-5e-05,6,8
31895,-6e-05,0,-5e-05,-1e-05,6e-05,0.0004,-0.00017,-0.00025,6,8
31896,-6e-05,0,-5e-05,-1e-05,6e-05,0.0004,-0.00017,-0.00025,6,8
31897,-6e-05,0,-5e-05,-1e-05,6e-05,0.0004,-0.00017,-0.00025,6,8
31898,1e-05,0,-3e-05,3e-05,0.00026,0.00012,-3e-05,-8e-05,6,8
31899,1e-05,0,-3e-05,3e-05,0.00026,0.00012,-3e-05,-8e-05,6,8
31900,1e-05,0,-3e-05,3e-05,0.00026,0.00012,-3e-05,-8e-05,6,8
31901,1e-05,0,-3e-05,3e-05,0.00026,0.00012,-3e-05,-8e-05,6,8
31902,1e-05,0,-3e-05,3e-05,0.00026,0.00012,-3e-05,-8e-05,6,8
31903,1e-05,0,-3e-05,3e-05,0.00026,0.00012,-3e-05,-8e-05,6,8
31904,1e-05,0,-3e-05,3e-05,0.00026,0.00012,-3e-05,-8e-05,6,8
31905,1e-05,0,-3e-05,3e-05,0.00026,0.00012,-3e-05,-8e-05,6,8
31906,1e-05,0,-3e-05,3e-05,0.00026,0.00012,-3e-05,-8e-05,6,8
31907,1e-05,0,-3e-05,3e-05,0.00026,0.00012,-3e-05,-8e-05,6,8
31908,1e-05,0,-3e-05,3e-05,0.00026,0.00012,-3e-05,-8e-05,6,8
31909,1e-05,0,-3e-05,3e-05,0.00026,0.00012,-3e-05,-8e-05,6,8
31910,1e-05,0,-3e-05,3e-05,0.00026,0.00012,-3e-05,-8e-05,6,8
31911,1e-05,0,-3e-05,3e-05,0.00026,0.00012,-3e-05,-8e-05,6,8
31912,1e-05,0,-3e-05,3e-05,0.00026,0.00012,-3e-05,-8e-05,6,8
31913,1e-05,0,-3e-05,3e-05,0.00026,0.00012,-3e-05,-8e-05,6,8
31914,1e-05,0,-3e-05,3e-05,0.00026,0.00012,-3e-05,-8e-05,6,8
31915,1e-05,0,-3e-05,3e-05,0.00026,0.00012,-3e-05,-8e-05,6,8
31916,1e-05,0,-3e-05,3e-05,0.00026,0.00012,-3e-05,-8e-05,6,8
31917,1e-05,0,-3e-05,3e-05,0.00026,0.00012,-3e-05,-8e-05,6,8
31918,1e-05,0,-3e-05,3e-05,0.00026,0.00012,-3e-05,-8e-05,6,8
31919,1e-05,0,-3e-05,3e-05,0.00026,0.00012,-3e-05,-8e-05,6,8
31920,1e-05,0,-3e-05,3e-05,0.00026,0.00012,-3e-05,-8e-05,6,8
31921,1e-05,0,-3e-05,3e-05,0.00026,0.00012,-3e-05,-8e-05,6,8
31922,0.00014,3e-05,8e-05,3e-05,-0.00034,-0.00093,0.00016,-0.00015,6,8
31923,-7e-05,-1e-05,-5e-05,-6e-05,-0.0001,5e-05,8e-05,6e-05,6,8
31924,-7e-05,-1e-05,-5e-05,-6e-05,-0.0001,5e-05,8e-05,6e-05,6,8
31925,-7e-05,-1e-05,-5e-05,-6e-05,-0.0001,5e-05,8e-05,6e-05,6,8
31926,-7e-05,-1e-05,-5e-05,-6e-05,-0.0001,5e-05,8e-05,6e-05,6,8
31927,-7e-05,-1e-05,-5e-05,-6e-05,-0.0001,5e-05,8e-05,6e-05,6,8
31928,-0.00012,2e-05,2e-05,-0.00014,-6e-05,0.00018,-0.00051,-0.00017,6,8
31929,-0.00012,2e-05,2e-05,-0.00014,-6e-05,0.00018,-0.00051,-0.00017,6,8
31930,-0.00012,2e-05,2e-05,-0.00014,-6e-05,0.00018,-0.00051,-0.00017,6,8
31931,-0.00012,2e-05,2e-05,-0.00014,-6e-05,0.00018,-0.00051,-0.00017,6,8
31932,-0.00012,2e-05,2e-05,-0.00014,-6e-05,0.00018,-0.00051,-0.00017,6,8
31933,-0.00012,2e-05,2e-05,-0.00014,-6e-05,0.00018,-0.00051,-0.00017,6,8
31934,-0.00012,2e-05,2e-05,-0.00014,-6e-05,0.00018,-0.00051,-0.00017,6,8
31935,-0.00012,2e-05,2e-05,-0.00014,-6e-05,0.00018,-0.00051,-0.00017,6,8
31936,-0.00012,2e-05,2e-05,-0.00014,-6e-05,0.00018,-0.00051,-0.00017,6,8
31939,-0.00012,2e-05,2e-05,-0.00014,-6e-05,0.00018,-0.00051,-0.00017,6,8
31940,-0.00012,2e-05,2e-05,-0.00014,-6e-05,0.00018,-0.00051,-0.00017,6,8
31941,-0.00012,2e-05,2e-05,-0.00014,-6e-05,0.00018,-0.00051,-0.00017,6,8
31942,-0.00012,2e-05,2e-05,-0.00014,-6e-05,0.00018,-0.00051,-0.00017,6,8
31943,0.00016,2e-05,-1e-05,-0.00011,-0.00033,-0.0001,8e-05,0.0001,6,8
31944,0.00016,2e-05,-1e-05,-0.00011,-0.00033,-0.0001,8e-05,0.0001,6,8
31945,0.00016,2e-05,-1e-05,-0.00011,-0.00033,-0.0001,8e-05,0.0001,6,8
31946,0.00016,2e-05,-1e-05,-0.00011,-0.00033,-0.0001,8e-05,0.0001,6,8
31947,0.00016,2e-05,-1e-05,-0.00011,-0.00033,-0.0001,8e-05,0.0001,6,8
31948,0.00016,2e-05,-1e-05,-0.00011,-0.00033,-0.0001,8e-05,0.0001,6,8
31949,0.00016,2e-05,-1e-05,-0.00011,-0.00033,-0.0001,8e-05,0.0001,6,8
31950,0.00016,2e-05,-1e-05,-0.00011,-0.00033,-0.0001,8e-05,0.0001,6,8
31951,0.00016,2e-05,-1e-05,-0.00011,-0.00033,-0.0001,8e-05,0.0001,6,8
31952,-7e-05,1e-05,-1e-05,-1e-05,-1e-05,0.00014,0.00022,0.00012,6,8
31953,-0.00033,-9e-05,-0.00011,-0.00015,5e-05,9e-05,0.00103,-0.00065,6,8
31954,-0.00033,-9e-05,-0.00011,-0.00015,5e-05,9e-05,0.00103,-0.00065,6,8
31955,-0.00033,-9e-05,-0.00011,-0.00015,5e-05,9e-05,0.00103,-0.00065,6,8
31956,-0.00033,-9e-05,-0.00011,-0.00015,5e-05,9e-05,0.00103,-0.00065,6,8
31957,-0.00033,-9e-05,-0.00011,-0.00015,5e-05,9e-05,0.00103,-0.00065,6,8
31958,-0.00033,-9e-05,-0.00011,-0.00015,5e-05,9e-05,0.00103,-0.00065,6,8
31959,-0.00033,-9e-05,-0.00011,-0.00015,5e-05,9e-05,0.00103,-0.00065,6,8
31960,-0.00033,-9e-05,-0.00011,-0.00015,5e-05,9e-05,0.00103,-0.00065,6,8
31961,-0.00033,-9e-05,-0.00011,-0.00015,5e-05,9e-05,0.00103,-0.00065,6,8
31962,-0.00033,-9e-05,-0.00011,-0.00015,5e-05,9e-05,0.00103,-0.00065,6,8
31963,-0.00033,-9e-05,-0.00011,-0.00015,5e-05,9e-05,0.00103,-0.00065,6,8
31964,-0.00033,-9e-05,-0.00011,-0.00015,5e-05,9e-05,0.00103,-0.00065,6,8
31965,-0.00033,-9e-05,-0.00011,-0.00015,5e-05,9e-05,0.00103,-0.00065,6,8
31966,-0.00033,-9e-05,-0.00011,-0.00015,5e-05,9e-05,0.00103,-0.00065,6,8
31967,-0.00033,-9e-05,-0.00011,-0.00015,5e-05,9e-05,0.00103,-0.00065,6,8
31968,-0.00033,-9e-05,-0.00011,-0.00015,5e-05,9e-05,0.00103,-0.00065,6,8
31969,-0.00033,-9e-05,-0.00011,-0.00015,5e-05,9e-05,0.00103,-0.00065,6,8
31970,-0.00033,-9e-05,-0.00011,-0.00015,5e-05,9e-05,0.00103,-0.00065,6,8
31971,-0.00033,-9e-05,-0.00011,-0.00015,5e-05,9e-05,0.00103,-0.00065,6,8
31972,-0.00033,-9e-05,-0.00011,-0.00015,5e-05,9e-05,0.00103,-0.00065,6,8
31973,-0.00033,-9e-05,-0.00011,-0.00015,5e-05,9e-05,0.00103,-0.00065,6,8
31974,-0.00033,-9e-05,-0.00011,-0.00015,5e-05,9e-05,0.00103,-0.00065,6,8
31975,0.00015,7e-05,8e-05,0.00028,0.00041,0.00015,-0.00062,0.00025,6,8
31976,5e-05,4e-05,2e-05,-7e-05,-0.00027,-7e-05,-0.00036,-0.00064,6,8
31977,-0.00016,-5e-05,0,3e-05,-0.00012,-0.00072,-0.00026,4e-05,6,8
31978,-0.00016,-5e-05,0,3e-05,-0.00012,-0.00072,-0.00026,4e-05,6,8
31979,-0.00016,-5e-05,0,3e-05,-0.00012,-0.00072,-0.00026,4e-05,6,8
31980,-0.00016,-5e-05,0,3e-05,-0.00012,-0.00072,-0.00026,4e-05,6,8
31981,-0.00016,-5e-05,0,3e-05,-0.00012,-0.00072,-0.00026,4e-05,6,8
31982,-0.00016,-5e-05,0,3e-05,-0.00012,-0.00072,-0.00026,4e-05,6,8
31983,-0.00016,-5e-05,0,3e-05,-0.00012,-0.00072,-0.00026,4e-05,6,8
31984,-0.00016,-5e-05,0,3e-05,-0.00012,-0.00072,-0.00026,4e-05,6,8
31985,-0.00016,-5e-05,0,3e-05,-0.00012,-0.00072,-0.00026,4e-05,6,8
31986,-0.00016,-5e-05,0,3e-05,-0.00012,-0.00072,-0.00026,4e-05,6,8
31988,-0.00016,-5e-05,0,3e-05,-0.00012,-0.00072,-0.00026,4e-05,6,8
31990,-0.00016,-5e-05,0,3e-05,-0.00012,-0.00072,-0.00026,4e-05,6,8
31991,-0.00016,-5e-05,0,3e-05,-0.00012,-0.00072,-0.00026,4e-05,6,8
31992,-0.00016,-5e-05,0,3e-05,-0.00012,-0.00072,-0.00026,4e-05,6,8
31993,-0.00016,-5e-05,0,3e-05,-0.00012,-0.00072,-0.00026,4e-05,6,8
31994,-0.00016,-5e-05,0,3e-05,-0.00012,-0.00072,-0.00026,4e-05,6,8
31995,-0.00016,-5e-05,0,3e-05,-0.00012,-0.00072,-0.00026,4e-05,6,8
31996,-0.00016,-5e-05,0,3e-05,-0.00012,-0.00072,-0.00026,4e-05,6,8
31997,-0.0002,-2e-05,5e-05,0.00012,0.00037,0.00072,9e-05,-0.00063,6,8
31998,0.00023,8e-05,0.00011,0.00019,0.00066,0.00086,-0.00022,0.00015,6,8
31999,0.00023,8e-05,0.00011,0.00019,0.00066,0.00086,-0.00022,0.00015,6,8
32000,0.00023,8e-05,0.00011,0.00019,0.00066,0.00086,-0.00022,0.00015,6,8
32001,0.00023,8e-05,0.00011,0.00019,0.00066,0.00086,-0.00022,0.00015,6,8
32002,0.00023,8e-05,0.00011,0.00019,0.00066,0.00086,-0.00022,0.00015,6,8
32003,0.00023,8e-05,0.00011,0.00019,0.00066,0.00086,-0.00022,0.00015,6,8
32004,0.00023,8e-05,0.00011,0.00019,0.00066,0.00086,-0.00022,0.00015,6,8
32005,0.00023,8e-05,0.00011,0.00019,0.00066,0.00086,-0.00022,0.00015,6,8
32006,0.00023,8e-05,0.00011,0.00019,0.00066,0.00086,-0.00022,0.00015,6,8
32007,0.00023,8e-05,0.00011,0.00019,0.00066,0.00086,-0.00022,0.00015,6,8
32008,0.00023,8e-05,0.00011,0.00019,0.00066,0.00086,-0.00022,0.00015,6,8
32009,0.00023,8e-05,0.00011,0.00019,0.00066,0.00086,-0.00022,0.00015,6,8
32010,0.00023,8e-05,0.00011,0.00019,0.00066,0.00086,-0.00022,0.00015,6,8
32011,0.00023,8e-05,0.00011,0.00019,0.00066,0.00086,-0.00022,0.00015,6,8
32012,0.00017,-8e-05,-6e-05,-2e-05,-0.00023,-0.00069,-0.00038,0.00071,6,8
32013,0.00017,-8e-05,-6e-05,-2e-05,-0.00023,-0.00069,-0.00038,0.00071,6,8
32014,0.00017,-8e-05,-6e-05,-2e-05,-0.00023,-0.00069,-0.00038,0.00071,6,8
32015,0.00017,-8e-05,-6e-05,-2e-05,-0.00023,-0.00069,-0.00038,0.00071,6,8
32016,0.00017,-8e-05,-6e-05,-2e-05,-0.00023,-0.00069,-0.00038,0.00071,6,8
32017,0.00017,-8e-05,-6e-05,-2e-05,-0.00023,-0.00069,-0.00038,0.00071,6,8
32018,6e-05,2e-05,1e-05,-8e-05,-6e-05,0.00047,-0.00019,0.00027,6,8
32019,6e-05,2e-05,1e-05,-8e-05,-6e-05,0.00047,-0.00019,0.00027,6,8
32020,6e-05,2e-05,1e-05,-8e-05,-6e-05,0.00047,-0.00019,0.00027,6,8
32021,6e-05,2e-05,1e-05,-8e-05,-6e-05,0.00047,-0.00019,0.00027,6,8
32022,6e-05,2e-05,1e-05,-8e-05,-6e-05,0.00047,-0.00019,0.00027,6,8
32023,6e-05,2e-05,1e-05,-8e-05,-6e-05,0.00047,-0.00019,0.00027,6,8
32024,6e-05,2e-05,1e-05,-8e-05,-6e-05,0.00047,-0.00019,0.00027,6,8
32025,6e-05,2e-05,1e-05,-8e-05,-6e-05,0.00047,-0.00019,0.00027,6,8
32026,6e-05,2e-05,1e-05,-8e-05,-6e-05,0.00047,-0.00019,0.00027,6,8
32027,6e-05,2e-05,1e-05,-8e-05,-6e-05,0.00047,-0.00019,0.00027,6,8
32028,6e-05,2e-05,1e-05,-8e-05,-6e-05,0.00047,-0.00019,0.00027,6,8
32029,6e-05,2e-05,1e-05,-8e-05,-6e-05,0.00047,-0.00019,0.00027,6,8
32030,6e-05,2e-05,1e-05,-8e-05,-6e-05,0.00047,-0.00019,0.00027,6,8
32031,6e-05,2e-05,1e-05,-8e-05,-6e-05,0.00047,-0.00019,0.00027,6,8
32032,6e-05,2e-05,1e-05,-8e-05,-6e-05,0.00047,-0.00019,0.00027,6,8
32033,6e-05,2e-05,1e-05,-8e-05,-6e-05,0.00047,-0.00019,0.00027,6,8
32034,6e-05,2e-05,1e-05,-8e-05,-6e-05,0.00047,-0.00019,0.00027,6,8
32035,6e-05,2e-05,1e-05,-8e-05,-6e-05,0.00047,-0.00019,0.00027,6,8
32036,6e-05,2e-05,1e-05,-8e-05,-6e-05,0.00047,-0.00019,0.00027,6,8
32038,6e-05,2e-05,1e-05,-8e-05,-6e-05,0.00047,-0.00019,0.00027,6,8
32040,6e-05,2e-05,1e-05,-8e-05,-6e-05,0.00047,-0.00019,0.00027,6,8
32041,0.00018,0,0,0.00017,0.00046,0.00016,-0.00039,-0.00045,6,8
32042,0.00018,0,0,0.00017,0.00046,0.00016,-0.00039,-0.00045,6,8
32043,0.00018,0,0,0.00017,0.00046,0.00016,-0.00039,-0.00045,6,8
32044,0.00018,0,0,0.00017,0.00046,0.00016,-0.00039,-0.00045,6,8
32045,0.00018,0,0,0.00017,0.00046,0.00016,-0.00039,-0.00045,6,8
32046,0.00018,0,0,0.00017,0.00046,0.00016,-0.00039,-0.00045,6,8
32047,0.00018,0,0,0.00017,0.00046,0.00016,-0.00039,-0.00045,6,8
32048,0.00018,0,0,0.00017,0.00046,0.00016,-0.00039,-0.00045,6,8
32049,0.00018,0,0,0.00017,0.00046,0.00016,-0.00039,-0.00045,6,8
32050,-5e-05,-7e-05,-9e-05,-0.00011,-0.00029,-0.00064,-0.00013,0.00052,6,8
32051,-9e-05,-5e-05,-3e-05,-4e-05,-1e-05,-0.00013,0.00025,-0.00022,6,8
32052,-9e-05,-5e-05,-3e-05,-4e-05,-1e-05,-0.00013,0.00025,-0.00022,6,8
32053,-9e-05,-5e-05,-3e-05,-4e-05,-1e-05,-0.00013,0.00025,-0.00022,6,8
32054,-9e-05,-5e-05,-3e-05,-4e-05,-1e-05,-0.00013,0.00025,-0.00022,6,8
32055,-9e-05,-5e-05,-3e-05,-4e-05,-1e-05,-0.00013,0.00025,-0.00022,6,8
32056,-9e-05,-5e-05,-3e-05,-4e-05,-1e-05,-0.00013,0.00025,-0.00022,6,8
32057,-9e-05,-5e-05,-3e-05,-4e-05,-1e-05,-0.00013,0.00025,-0.00022,6,8
32058,-9e-05,-5e-05,-3e-05,-4e-05,-1e-05,-0.00013,0.00025,-0.00022,6,8
32059,-9e-05,-5e-05,-3e-05,-4e-05,-1e-05,-0.00013,0.00025,-0.00022,6,8
32060,-9e-05,-5e-05,-3e-05,-4e-05,-1e-05,-0.00013,0.00025,-0.00022,6,8
32061,-9e-05,-5e-05,-3e-05,-4e-05,-1e-05,-0.00013,0.00025,-0.00022,6,8
32062,-9e-05,-5e-05,-3e-05,-4e-05,-1e-05,-0.00013,0.00025,-0.00022,6,8
32063,-9e-05,-5e-05,-3e-05,-4e-05,-1e-05,-0.00013,0.00025,-0.00022,6,8
32064,-9e-05,-5e-05,-3e-05,-4e-05,-1e-05,-0.00013,0.00025,-0.00022,6,8
32065,-9e-05,-5e-05,-3e-05,-4e-05,-1e-05,-0.00013,0.00025,-0.00022,6,8
32066,-9e-05,-5e-05,-3e-05,-4e-05,-1e-05,-0.00013,0.00025,-0.00022,6,8
32067,-9e-05,-5e-05,-3e-05,-4e-05,-1e-05,-0.00013,0.00025,-0.00022,6,8
32068,-9e-05,-5e-05,-3e-05,-4e-05,-1e-05,-0.00013,0.00025,-0.00022,6,8
32069,-9e-05,-5e-05,-3e-05,-4e-05,-1e-05,-0.00013,0.00025,-0.00022,6,8
32070,-9e-05,-5e-05,-3e-05,-4e-05,-1e-05,-0.00013,0.00025,-0.00022,6,8
32071,-9e-05,-5e-05,-3e-05,-4e-05,-1e-05,-0.00013,0.00025,-0.00022,6,8
32072,-9e-05,-5e-05,-3e-05,-4e-05,-1e-05,-0.00013,0.00025,-0.00022,6,8
32073,-9e-05,-5e-05,-3e-05,-4e-05,-1e-05,-0.00013,0.00025,-0.00022,6,8
32074,-0.00027,4e-05,6e-05,9e-05,-0.00035,0.00037,-0.00048,-0.00088,6,8
32075,-0.00017,1e-05,4e-05,2e-05,6e-05,3e-05,-6e-05,0.00015,6,8
32076,-0.00017,1e-05,4e-05,2e-05,6e-05,3e-05,-6e-05,0.00015,6,8
32077,-0.00017,1e-05,4e-05,2e-05,6e-05,3e-05,-6e-05,0.00015,6,8
32078,5e-05,7e-05,0.00011,0.00021,0.00078,0.00023,0.00054,9e-05,6,8
32079,5e-05,7e-05,0.00011,0.00021,0.00078,0.00023,0.00054,9e-05,6,8
32080,5e-05,7e-05,0.00011,0.00021,0.00078,0.00023,0.00054,9e-05,6,8
32081,5e-05,7e-05,0.00011,0.00021,0.00078,0.00023,0.00054,9e-05,6,8
32082,5e-05,7e-05,0.00011,0.00021,0.00078,0.00023,0.00054,9e-05,6,8
32083,5e-05,7e-05,0.00011,0.00021,0.00078,0.00023,0.00054,9e-05,6,8
32084,5e-05,7e-05,0.00011,0.00021,0.00078,0.00023,0.00054,9e-05,6,8
32085,5e-05,7e-05,0.00011,0.00021,0.00078,0.00023,0.00054,9e-05,6,8
32086,5e-05,7e-05,0.00011,0.00021,0.00078,0.00023,0.00054,9e-05,6,8
32089,5e-05,7e-05,0.00011,0.00021,0.00078,0.00023,0.00054,9e-05,6,8
32090,5e-05,7e-05,0.00011,0.00021,0.00078,0.00023,0.00054,9e-05,6,8
32091,5e-05,7e-05,0.00011,0.00021,0.00078,0.00023,0.00054,9e-05,6,8
32092,5e-05,7e-05,0.00011,0.00021,0.00078,0.00023,0.00054,9e-05,6,8
32093,5e-05,7e-05,0.00011,0.00021,0.00078,0.00023,0.00054,9e-05,6,8
32094,-4e-05,-2e-05,-4e-05,-0.0001,-5e-05,-0.00025,9e-05,-0.00046,6,8
32095,-4e-05,-2e-05,-4e-05,-0.0001,-5e-05,-0.00025,9e-05,-0.00046,6,8
32096,0.00016,-2e-05,0,-6e-05,-0.00025,-0.00052,-0.00028,-0.0001,6,8
32097,0.00016,-2e-05,0,-6e-05,-0.00025,-0.00052,-0.00028,-0.0001,6,8
32098,0.00016,-2e-05,0,-6e-05,-0.00025,-0.00052,-0.00028,-0.0001,6,8
32099,0.00016,-2e-05,0,-6e-05,-0.00025,-0.00052,-0.00028,-0.0001,6,8
32100,0.00016,-2e-05,0,-6e-05,-0.00025,-0.00052,-0.00028,-0.0001,6,8
32101,0.00016,-2e-05,0,-6e-05,-0.00025,-0.00052,-0.00028,-0.0001,6,8
32102,0.00016,-2e-05,0,-6e-05,-0.00025,-0.00052,-0.00028,-0.0001,6,8
32103,0.00016,-2e-05,0,-6e-05,-0.00025,-0.00052,-0.00028,-0.0001,6,8
32104,0.00016,-2e-05,0,-6e-05,-0.00025,-0.00052,-0.00028,-0.0001,6,8
32105,0.00016,-2e-05,0,-6e-05,-0.00025,-0.00052,-0.00028,-0.0001,6,8
32106,0.00016,-2e-05,0,-6e-05,-0.00025,-0.00052,-0.00028,-0.0001,6,8
32107,0.00016,-2e-05,0,-6e-05,-0.00025,-0.00052,-0.00028,-0.0001,6,8
32108,0.00016,-2e-05,0,-6e-05,-0.00025,-0.00052,-0.00028,-0.0001,6,8
32109,0.00016,-2e-05,0,-6e-05,-0.00025,-0.00052,-0.00028,-0.0001,6,8
32110,0.00016,-2e-05,0,-6e-05,-0.00025,-0.00052,-0.00028,-0.0001,6,8
32111,0.00016,-2e-05,0,-6e-05,-0.00025,-0.00052,-0.00028,-0.0001,6,8
32112,0.00016,-2e-05,0,-6e-05,-0.00025,-0.00052,-0.00028,-0.0001,6,8
32113,0.00016,-2e-05,0,-6e-05,-0.00025,-0.00052,-0.00028,-0.0001,6,8
32114,0.00016,-2e-05,0,-6e-05,-0.00025,-0.00052,-0.00028,-0.0001,6,8
32115,0.00016,-2e-05,0,-6e-05,-0.00025,-0.00052,-0.00028,-0.0001,6,8
32116,0.00016,-2e-05,0,-6e-05,-0.00025,-0.00052,-0.00028,-0.0001,6,8
32117,0.00016,-2e-05,0,-6e-05,-0.00025,-0.00052,-0.00028,-0.0001,6,8
32118,0.00016,-2e-05,0,-6e-05,-0.00025,-0.00052,-0.00028,-0.0001,6,8
32119,0.00016,-2e-05,0,-6e-05,-0.00025,-0.00052,-0.00028,-0.0001,6,8
32120,0.00016,-2e-05,0,-6e-05,-0.00025,-0.00052,-0.00028,-0.0001,6,8
32121,0.00016,-2e-05,0,-6e-05,-0.00025,-0.00052,-0.00028,-0.0001,6,8
32122,0.00016,-2e-05,0,-6e-05,-0.00025,-0.00052,-0.00028,-0.0001,6,8
32123,0.00016,-2e-05,0,-6e-05,-0.00025,-0.00052,-0.00028,-0.0001,6,8
32124,8e-05,2e-05,0,0.00022,0.00032,-6e-05,8e-05,0,6,8
32125,8e-05,2e-05,0,0.00022,0.00032,-6e-05,8e-05,0,6,8
32126,6e-05,4e-05,-2e-05,-2e-05,-0.00012,-0.00011,0.0005,5e-05,6,8
32127,6e-05,4e-05,-2e-05,-2e-05,-0.00012,-0.00011,0.0005,5e-05,6,8
32128,6e-05,4e-05,-2e-05,-2e-05,-0.00012,-0.00011,0.0005,5e-05,6,8
32129,6e-05,4e-05,-2e-05,-2e-05,-0.00012,-0.00011,0.0005,5e-05,6,8
32130,6e-05,4e-05,-2e-05,-2e-05,-0.00012,-0.00011,0.0005,5e-05,6,8
32131,6e-05,4e-05,-2e-05,-2e-05,-0.00012,-0.00011,0.0005,5e-05,6,8
32132,6e-05,4e-05,-2e-05,-2e-05,-0.00012,-0.00011,0.0005,5e-05,6,8
32133,6e-05,4e-05,-2e-05,-2e-05,-0.00012,-0.00011,0.0005,5e-05,6,8
32134,6e-05,4e-05,-2e-05,-2e-05,-0.00012,-0.00011,0.0005,5e-05,6,8
32135,6e-05,4e-05,-2e-05,-2e-05,-0.00012,-0.00011,0.0005,5e-05,6,8
32136,6e-05,4e-05,-2e-05,-2e-05,-0.00012,-0.00011,0.0005,5e-05,6,8
32138,6e-05,4e-05,-2e-05,-2e-05,-0.00012,-0.00011,0.0005,5e-05,6,8
32139,6e-05,4e-05,-2e-05,-2e-05,-0.00012,-0.00011,0.0005,5e-05,6,8
32140,0,-0.00016,-9e-05,-0.0002,-0.00027,-0.00023,-0.00073,-0.00024,6,8
32141,0,-0.00016,-9e-05,-0.0002,-0.00027,-0.00023,-0.00073,-0.00024,6,8
32142,0,-0.00016,-9e-05,-0.0002,-0.00027,-0.00023,-0.00073,-0.00024,6,8
32143,0,-0.00016,-9e-05,-0.0002,-0.00027,-0.00023,-0.00073,-0.00024,6,8
32144,0,-0.00016,-9e-05,-0.0002,-0.00027,-0.00023,-0.00073,-0.00024,6,8
32145,0,-0.00016,-9e-05,-0.0002,-0.00027,-0.00023,-0.00073,-0.00024,6,8
32146,0,-0.00016,-9e-05,-0.0002,-0.00027,-0.00023,-0.00073,-0.00024,6,8
32147,2e-05,1e-05,-2e-05,-5e-05,-0.00033,-0.00075,-0.00031,9e-05,6,8
32148,2e-05,1e-05,-2e-05,-5e-05,-0.00033,-0.00075,-0.00031,9e-05,6,8
32149,2e-05,1e-05,-2e-05,-5e-05,-0.00033,-0.00075,-0.00031,9e-05,6,8
32150,2e-05,1e-05,-2e-05,-5e-05,-0.00033,-0.00075,-0.00031,9e-05,6,8
32151,2e-05,1e-05,-2e-05,-5e-05,-0.00033,-0.00075,-0.00031,9e-05,6,8
32152,2e-05,1e-05,-2e-05,-5e-05,-0.00033,-0.00075,-0.00031,9e-05,6,8
32153,2e-05,1e-05,-2e-05,-5e-05,-0.00033,-0.00075,-0.00031,9e-05,6,8
32154,2e-05,8e-05,5e-05,-6e-05,-0.00021,2e-05,4e-05,0.0001,6,8
32155,2e-05,8e-05,5e-05,-6e-05,-0.00021,2e-05,4e-05,0.0001,6,8
32156,-9e-05,-9e-05,-8e-05,-0.00014,-0.00015,-0.00051,-0.00061,-0.00024,6,8
32157,-9e-05,-9e-05,-8e-05,-0.00014,-0.00015,-0.00051,-0.00061,-0.00024,6,8
32158,-9e-05,-9e-05,-8e-05,-0.00014,-0.00015,-0.00051,-0.00061,-0.00024,6,8
32159,-9e-05,-9e-05,-8e-05,-0.00014,-0.00015,-0.00051,-0.00061,-0.00024,6,8
32160,-9e-05,-9e-05,-8e-05,-0.00014,-0.00015,-0.00051,-0.00061,-0.00024,6,8
32161,-9e-05,-9e-05,-8e-05,-0.00014,-0.00015,-0.00051,-0.00061,-0.00024,6,8
32162,-9e-05,-9e-05,-8e-05,-0.00014,-0.00015,-0.00051,-0.00061,-0.00024,6,8
32163,-9e-05,-9e-05,-8e-05,-0.00014,-0.00015,-0.00051,-0.00061,-0.00024,6,8
32164,-9e-05,-9e-05,-8e-05,-0.00014,-0.00015,-0.00051,-0.00061,-0.00024,6,8
32165,-9e-05,-9e-05,-8e-05,-0.00014,-0.00015,-0.00051,-0.00061,-0.00024,6,8
32166,-9e-05,-9e-05,-8e-05,-0.00014,-0.00015,-0.00051,-0.00061,-0.00024,6,8
32167,-9e-05,-9e-05,-8e-05,-0.00014,-0.00015,-0.00051,-0.00061,-0.00024,6,8
32168,-4e-05,-2e-05,1e-05,0.0001,0.00018,-0.00015,9e-05,0.00017,6,8
32169,-4e-05,-2e-05,1e-05,0.0001,0.00018,-0.00015,9e-05,0.00017,6,8
32170,-4e-05,-2e-05,1e-05,0.0001,0.00018,-0.00015,9e-05,0.00017,6,8
32171,-4e-05,-2e-05,1e-05,0.0001,0.00018,-0.00015,9e-05,0.00017,6,8
32172,-4e-05,-2e-05,1e-05,0.0001,0.00018,-0.00015,9e-05,0.00017,6,8
32173,-4e-05,-2e-05,1e-05,0.0001,0.00018,-0.00015,9e-05,0.00017,6,8
32174,-4e-05,-2e-05,1e-05,0.0001,0.00018,-0.00015,9e-05,0.00017,6,8
32175,-4e-05,-2e-05,1e-05,0.0001,0.00018,-0.00015,9e-05,0.00017,6,8
32176,-4e-05,-2e-05,1e-05,0.0001,0.00018,-0.00015,9e-05,0.00017,6,8
32177,-0.0002,-8e-05,-8e-05,3e-05,2e-05,0.00021,-0.00012,-0.00033,6,8
32178,-0.0002,-8e-05,-8e-05,3e-05,2e-05,0.00021,-0.00012,-0.00033,6,8
32179,-0.0002,-8e-05,-8e-05,3e-05,2e-05,0.00021,-0.00012,-0.00033,6,8
32180,-0.0002,-8e-05,-8e-05,3e-05,2e-05,0.00021,-0.00012,-0.00033,6,8
32181,-0.0002,-8e-05,-8e-05,3e-05,2e-05,0.00021,-0.00012,-0.00033,6,8
32182,-0.0002,-8e-05,-8e-05,3e-05,2e-05,0.00021,-0.00012,-0.00033,6,8
32183,-0.0002,-8e-05,-8e-05,3e-05,2e-05,0.00021,-0.00012,-0.00033,6,8
32184,-0.0002,-8e-05,-8e-05,3e-05,2e-05,0.00021,-0.00012,-0.00033,6,8
32185,-0.0002,-8e-05,-8e-05,3e-05,2e-05,0.00021,-0.00012,-0.00033,6,8
32186,-0.0002,-8e-05,-8e-05,3e-05,2e-05,0.00021,-0.00012,-0.00033,6,8
32188,-0.0002,-8e-05,-8e-05,3e-05,2e-05,0.00021,-0.00012,-0.00033,6,8
32189,-0.0002,-8e-05,-8e-05,3e-05,2e-05,0.00021,-0.00012,-0.00033,6,8
32190,-0.0002,-8e-05,-8e-05,3e-05,2e-05,0.00021,-0.00012,-0.00033,6,8
32191,-0.0002,-8e-05,-8e-05,3e-05,2e-05,0.00021,-0.00012,-0.00033,6,8
32192,-0.0002,-8e-05,-8e-05,3e-05,2e-05,0.00021,-0.00012,-0.00033,6,8
32193,-0.0002,-8e-05,-8e-05,3e-05,2e-05,0.00021,-0.00012,-0.00033,6,8
32194,-0.0002,-8e-05,-8e-05,3e-05,2e-05,0.00021,-0.00012,-0.00033,6,8
32195,-0.0002,-8e-05,-8e-05,3e-05,2e-05,0.00021,-0.00012,-0.00033,6,8
32196,-0.0002,-8e-05,-8e-05,3e-05,2e-05,0.00021,-0.00012,-0.00033,6,8
32197,-0.0002,-8e-05,-8e-05,3e-05,2e-05,0.00021,-0.00012,-0.00033,6,8
32198,-0.0002,-8e-05,-8e-05,3e-05,2e-05,0.00021,-0.00012,-0.00033,6,8
32199,0,0.0001,1e-05,-3e-05,-0.00032,0.00031,0.00042,0.00015,6,8
32200,0,0.0001,1e-05,-3e-05,-0.00032,0.00031,0.00042,0.00015,6,8
32201,-0.00023,-0.0001,-8e-05,-0.00013,-0.00023,-7e-05,-0.00024,0.00019,6,8
32202,-0.00023,-0.0001,-8e-05,-0.00013,-0.00023,-7e-05,-0.00024,0.00019,6,8
32203,-0.00023,-0.0001,-8e-05,-0.00013,-0.00023,-7e-05,-0.00024,0.00019,6,8
32204,-0.00023,-0.0001,-8e-05,-0.00013,-0.00023,-7e-05,-0.00024,0.00019,6,8
32205,-0.00023,-0.0001,-8e-05,-0.00013,-0.00023,-7e-05,-0.00024,0.00019,6,8
32206,-0.00023,-0.0001,-8e-05,-0.00013,-0.00023,-7e-05,-0.00024,0.00019,6,8
32207,-0.00023,-0.0001,-8e-05,-0.00013,-0.00023,-7e-05,-0.00024,0.00019,6,8
32208,-0.00023,-0.0001,-8e-05,-0.00013,-0.00023,-7e-05,-0.00024,0.00019,6,8
32209,-0.00023,-0.0001,-8e-05,-0.00013,-0.00023,-7e-05,-0.00024,0.00019,6,8
32210,-0.00023,-0.0001,-8e-05,-0.00013,-0.00023,-7e-05,-0.00024,0.00019,6,8
32211,-0.00023,-0.0001,-8e-05,-0.00013,-0.00023,-7e-05,-0.00024,0.00019,6,8
32212,-0.00023,-0.0001,-8e-05,-0.00013,-0.00023,-7e-05,-0.00024,0.00019,6,8
32213,-0.00023,-0.0001,-8e-05,-0.00013,-0.00023,-7e-05,-0.00024,0.00019,6,8
32214,-0.00023,-0.0001,-8e-05,-0.00013,-0.00023,-7e-05,-0.00024,0.00019,6,8
32215,-3e-05,0,1e-05,5e-05,-0.00017,0.00052,0.00019,-0.00029,6,8
32216,0.00054,4e-05,0,-1e-05,-0.00013,0.00021,0.00045,0,6,8
32217,0.00054,4e-05,0,-1e-05,-0.00013,0.00021,0.00045,0,6,8
32218,0.00054,4e-05,0,-1e-05,-0.00013,0.00021,0.00045,0,6,8
32219,0.00054,4e-05,0,-1e-05,-0.00013,0.00021,0.00045,0,6,8
32220,0.00054,4e-05,0,-1e-05,-0.00013,0.00021,0.00045,0,6,8
32221,0.00054,4e-05,0,-1e-05,-0.00013,0.00021,0.00045,0,6,8
32222,0.00054,4e-05,0,-1e-05,-0.00013,0.00021,0.00045,0,6,8
32223,0.00054,4e-05,0,-1e-05,-0.00013,0.00021,0.00045,0,6,8
32224,0.00054,4e-05,0,-1e-05,-0.00013,0.00021,0.00045,0,6,8
32225,0.00054,4e-05,0,-1e-05,-0.00013,0.00021,0.00045,0,6,8
32226,0.00054,4e-05,0,-1e-05,-0.00013,0.00021,0.00045,0,6,8
32227,0.00054,4e-05,0,-1e-05,-0.00013,0.00021,0.00045,0,6,8
32228,0,4e-05,3e-05,2e-05,-6e-05,0,-0.0007,-0.00055,6,8
32229,0,4e-05,3e-05,2e-05,-6e-05,0,-0.0007,-0.00055,6,8
32230,0,4e-05,3e-05,2e-05,-6e-05,0,-0.0007,-0.00055,6,8
32231,0,4e-05,3e-05,2e-05,-6e-05,0,-0.0007,-0.00055,6,8
32232,0,4e-05,3e-05,2e-05,-6e-05,0,-0.0007,-0.00055,6,8
32233,0,4e-05,3e-05,2e-05,-6e-05,0,-0.0007,-0.00055,6,8
32234,0,4e-05,3e-05,2e-05,-6e-05,0,-0.0007,-0.00055,6,8
32235,0,4e-05,3e-05,2e-05,-6e-05,0,-0.0007,-0.00055,6,8
32236,0,4e-05,3e-05,2e-05,-6e-05,0,-0.0007,-0.00055,6,8
32238,0,4e-05,3e-05,2e-05,-6e-05,0,-0.0007,-0.00055,6,8
32239,0,4e-05,3e-05,2e-05,-6e-05,0,-0.0007,-0.00055,6,8
32240,0,4e-05,3e-05,2e-05,-6e-05,0,-0.0007,-0.00055,6,8
32241,0,4e-05,3e-05,2e-05,-6e-05,0,-0.0007,-0.00055,6,8
32242,0,4e-05,3e-05,2e-05,-6e-05,0,-0.0007,-0.00055,6,8
32243,0,4e-05,3e-05,2e-05,-6e-05,0,-0.0007,-0.00055,6,8
32244,2e-05,-1e-05,0,-1e-05,-0.0001,0.00012,0.00033,-4e-05,6,8
32245,2e-05,-1e-05,0,-1e-05,-0.0001,0.00012,0.00033,-4e-05,6,8
32246,2e-05,-1e-05,0,-1e-05,-0.0001,0.00012,0.00033,-4e-05,6,8
32247,2e-05,-1e-05,0,-1e-05,-0.0001,0.00012,0.00033,-4e-05,6,8
32248,2e-05,-1e-05,0,-1e-05,-0.0001,0.00012,0.00033,-4e-05,6,8
32249,2e-05,-1e-05,0,-1e-05,-0.0001,0.00012,0.00033,-4e-05,6,8
32250,2e-05,-1e-05,0,-1e-05,-0.0001,0.00012,0.00033,-4e-05,6,8
32251,2e-05,-1e-05,0,-1e-05,-0.0001,0.00012,0.00033,-4e-05,6,8
32252,4e-05,-3e-05,-3e-05,-9e-05,-0.00018,-0.00029,3e-05,0.00013,6,8
32253,-0.00018,-2e-05,3e-05,5e-05,0.00044,0.00046,-0.00041,-0.00079,6,8
32254,-0.00018,-2e-05,3e-05,5e-05,0.00044,0.00046,-0.00041,-0.00079,6,8
32255,-0.00018,-2e-05,3e-05,5e-05,0.00044,0.00046,-0.00041,-0.00079,6,8
32256,-0.00018,-2e-05,3e-05,5e-05,0.00044,0.00046,-0.00041,-0.00079,6,8
32258,-0.00018,-2e-05,3e-05,5e-05,0.00044,0.00046,-0.00041,-0.00079,6,8
32259,-0.00018,-2e-05,3e-05,5e-05,0.00044,0.00046,-0.00041,-0.00079,6,8
32260,-0.00018,-2e-05,3e-05,5e-05,0.00044,0.00046,-0.00041,-0.00079,6,8
32261,-0.00018,-2e-05,3e-05,5e-05,0.00044,0.00046,-0.00041,-0.00079,6,8
32262,-0.00018,-2e-05,3e-05,5e-05,0.00044,0.00046,-0.00041,-0.00079,6,8
32263,-0.00018,-2e-05,3e-05,5e-05,0.00044,0.00046,-0.00041,-0.00079,6,8
32264,-0.00018,-2e-05,3e-05,5e-05,0.00044,0.00046,-0.00041,-0.00079,6,8
32265,-0.00018,-2e-05,3e-05,5e-05,0.00044,0.00046,-0.00041,-0.00079,6,8
32266,-0.00018,-2e-05,3e-05,5e-05,0.00044,0.00046,-0.00041,-0.00079,6,8
32267,-0.00018,-2e-05,3e-05,5e-05,0.00044,0.00046,-0.00041,-0.00079,6,8
32268,-0.00018,-2e-05,3e-05,5e-05,0.00044,0.00046,-0.00041,-0.00079,6,8
32269,-0.00018,-2e-05,3e-05,5e-05,0.00044,0.00046,-0.00041,-0.00079,6,8
32270,-0.00018,-2e-05,3e-05,5e-05,0.00044,0.00046,-0.00041,-0.00079,6,8
32271,-0.00018,-2e-05,3e-05,5e-05,0.00044,0.00046,-0.00041,-0.00079,6,8
32272,-0.00018,-2e-05,3e-05,5e-05,0.00044,0.00046,-0.00041,-0.00079,6,8
32273,-0.00018,-2e-05,3e-05,5e-05,0.00044,0.00046,-0.00041,-0.00079,6,8
32274,-0.00018,-2e-05,3e-05,5e-05,0.00044,0.00046,-0.00041,-0.00079,6,8
32275,-6e-05,-6e-05,-2e-05,-0.00017,7e-05,8e-05,1e-05,-5e-05,6,8
32276,0.0002,8e-05,5e-05,3e-05,-9e-05,-0.00014,0.0002,0.00101,6,8
32277,0.0002,8e-05,5e-05,3e-05,-9e-05,-0.00014,0.0002,0.00101,6,8
32278,0.0002,8e-05,5e-05,3e-05,-9e-05,-0.00014,0.0002,0.00101,6,8
32279,0.0002,8e-05,5e-05,3e-05,-9e-05,-0.00014,0.0002,0.00101,6,8
32280,0.0002,8e-05,5e-05,3e-05,-9e-05,-0.00014,0.0002,0.00101,6,8
32281,0.0002,8e-05,5e-05,3e-05,-9e-05,-0.00014,0.0002,0.00101,6,8
32282,0.0002,8e-05,5e-05,3e-05,-9e-05,-0.00014,0.0002,0.00101,6,8
32283,0.0002,8e-05,5e-05,3e-05,-9e-05,-0.00014,0.0002,0.00101,6,8
32284,0.0002,8e-05,5e-05,3e-05,-9e-05,-0.00014,0.0002,0.00101,6,8
32285,0.0002,8e-05,5e-05,3e-05,-9e-05,-0.00014,0.0002,0.00101,6,8
32286,0.0002,8e-05,5e-05,3e-05,-9e-05,-0.00014,0.0002,0.00101,6,8
32289,0.0002,8e-05,5e-05,3e-05,-9e-05,-0.00014,0.0002,0.00101,6,8
32290,0.0002,8e-05,5e-05,3e-05,-9e-05,-0.00014,0.0002,0.00101,6,8
32291,0.0002,8e-05,5e-05,3e-05,-9e-05,-0.00014,0.0002,0.00101,6,8
32292,0.0002,8e-05,5e-05,3e-05,-9e-05,-0.00014,0.0002,0.00101,6,8
32293,0.0002,8e-05,5e-05,3e-05,-9e-05,-0.00014,0.0002,0.00101,6,8
32294,0.0002,8e-05,5e-05,3e-05,-9e-05,-0.00014,0.0002,0.00101,6,8
32295,0.0002,8e-05,5e-05,3e-05,-9e-05,-0.00014,0.0002,0.00101,6,8
32296,0.0002,8e-05,5e-05,3e-05,-9e-05,-0.00014,0.0002,0.00101,6,8
32297,-2e-05,-7e-05,-7e-05,-2e-05,-5e-05,-0.00036,-0.00013,-0.00036,6,8
32298,-2e-05,-7e-05,-7e-05,-2e-05,-5e-05,-0.00036,-0.00013,-0.00036,6,8
32299,0.00017,5e-05,-1e-05,3e-05,0.00028,0.00039,-0.00014,0.00027,6,8
32300,0.00017,5e-05,-1e-05,3e-05,0.00028,0.00039,-0.00014,0.00027,6,8
32301,0.00017,5e-05,-1e-05,3e-05,0.00028,0.00039,-0.00014,0.00027,6,8
32302,0.00017,5e-05,-1e-05,3e-05,0.00028,0.00039,-0.00014,0.00027,6,8
32304,0.00017,5e-05,-1e-05,3e-05,0.00028,0.00039,-0.00014,0.00027,6,8
32305,0.00017,5e-05,-1e-05,3e-05,0.00028,0.00039,-0.00014,0.00027,6,8
32306,0.00017,5e-05,-1e-05,3e-05,0.00028,0.00039,-0.00014,0.00027,6,8
32307,0.00017,5e-05,-1e-05,3e-05,0.00028,0.00039,-0.00014,0.00027,6,8
32308,0.00017,5e-05,-1e-05,3e-05,0.00028,0.00039,-0.00014,0.00027,6,8
32309,0.00017,5e-05,-1e-05,3e-05,0.00028,0.00039,-0.00014,0.00027,6,8
32310,0.00017,5e-05,-1e-05,3e-05,0.00028,0.00039,-0.00014,0.00027,6,8
32311,0.00017,5e-05,-1e-05,3e-05,0.00028,0.00039,-0.00014,0.00027,6,8
32312,0.00017,5e-05,-1e-05,3e-05,0.00028,0.00039,-0.00014,0.00027,6,8
32313,0.00017,5e-05,-1e-05,3e-05,0.00028,0.00039,-0.00014,0.00027,6,8
32314,0.00017,5e-05,-1e-05,3e-05,0.00028,0.00039,-0.00014,0.00027,6,8
32315,0.00017,5e-05,-1e-05,3e-05,0.00028,0.00039,-0.00014,0.00027,6,8
32316,0.00017,5e-05,-1e-05,3e-05,0.00028,0.00039,-0.00014,0.00027,6,8
32317,0.00017,5e-05,-1e-05,3e-05,0.00028,0.00039,-0.00014,0.00027,6,8
32318,0.00017,5e-05,-1e-05,3e-05,0.00028,0.00039,-0.00014,0.00027,6,8
32319,0,3e-05,-1e-05,-4e-05,0.00048,0.00044,-7e-05,-0.00036,6,8
32320,0,3e-05,-1e-05,-4e-05,0.00048,0.00044,-7e-05,-0.00036,6,8
32321,-6e-05,-1e-05,-1e-05,1e-05,-0.00019,0.00013,-0.00021,8e-05,6,8
32322,-6e-05,-1e-05,-1e-05,1e-05,-0.00019,0.00013,-0.00021,8e-05,6,8
32323,-6e-05,-1e-05,-1e-05,1e-05,-0.00019,0.00013,-0.00021,8e-05,6,8
32324,-6e-05,-1e-05,-1e-05,1e-05,-0.00019,0.00013,-0.00021,8e-05,6,8
32325,-6e-05,-1e-05,-1e-05,1e-05,-0.00019,0.00013,-0.00021,8e-05,6,8
32326,-6e-05,-1e-05,-1e-05,1e-05,-0.00019,0.00013,-0.00021,8e-05,6,8
32327,-6e-05,-1e-05,-1e-05,1e-05,-0.00019,0.00013,-0.00021,8e-05,6,8
32328,-6e-05,-1e-05,-1e-05,1e-05,-0.00019,0.00013,-0.00021,8e-05,6,8
32329,-6e-05,-1e-05,-1e-05,1e-05,-0.00019,0.00013,-0.00021,8e-05,6,8
32330,-6e-05,-1e-05,-1e-05,1e-05,-0.00019,0.00013,-0.00021,8e-05,6,8
32331,-6e-05,-1e-05,-1e-05,1e-05,-0.00019,0.00013,-0.00021,8e-05,6,8
32332,-6e-05,-1e-05,-1e-05,1e-05,-0.00019,0.00013,-0.00021,8e-05,6,8
32333,-6e-05,-1e-05,-1e-05,1e-05,-0.00019,0.00013,-0.00021,8e-05,6,8
32334,-6e-05,-1e-05,-1e-05,1e-05,-0.00019,0.00013,-0.00021,8e-05,6,8
32335,-6e-05,-1e-05,-1e-05,1e-05,-0.00019,0.00013,-0.00021,8e-05,6,8
32337,-6e-05,-1e-05,-1e-05,1e-05,-0.00019,0.00013,-0.00021,8e-05,6,8
32339,-6e-05,-1e-05,-1e-05,1e-05,-0.00019,0.00013,-0.00021,8e-05,6,8
32341,-6e-05,-1e-05,-1e-05,1e-05,-0.00019,0.00013,-0.00021,8e-05,6,8
32342,0.00013,-3e-05,-4e-05,3e-05,0.00031,0.00016,6e-05,0.00037,6,8
32343,0.00013,-3e-05,-4e-05,3e-05,0.00031,0.00016,6e-05,0.00037,6,8
32344,0.00013,-3e-05,-4e-05,3e-05,0.00031,0.00016,6e-05,0.00037,6,8
32345,0.00013,-3e-05,-4e-05,3e-05,0.00031,0.00016,6e-05,0.00037,6,8
32346,0.00013,-3e-05,-4e-05,3e-05,0.00031,0.00016,6e-05,0.00037,6,8
32347,0.00013,-3e-05,-4e-05,3e-05,0.00031,0.00016,6e-05,0.00037,6,8
32348,-0.00023,-1e-05,-3e-05,1e-05,0.00015,2e-05,0.00032,0.0005,6,8
32349,-0.00023,-1e-05,-3e-05,1e-05,0.00015,2e-05,0.00032,0.0005,6,8
32350,-0.00023,-1e-05,-3e-05,1e-05,0.00015,2e-05,0.00032,0.0005,6,8
32351,-0.00023,-1e-05,-3e-05,1e-05,0.00015,2e-05,0.00032,0.0005,6,8
32352,-0.00023,-1e-05,-3e-05,1e-05,0.00015,2e-05,0.00032,0.0005,6,8
32353,-0.00023,-1e-05,-3e-05,1e-05,0.00015,2e-05,0.00032,0.0005,6,8
32354,-0.00023,-1e-05,-3e-05,1e-05,0.00015,2e-05,0.00032,0.0005,6,8
32355,-0.00023,-1e-05,-3e-05,1e-05,0.00015,2e-05,0.00032,0.0005,6,8
32356,-0.00023,-1e-05,-3e-05,1e-05,0.00015,2e-05,0.00032,0.0005,6,8
32357,-9e-05,4e-05,4e-05,5e-05,0.00017,-2e-05,3e-05,0.00014,6,8
32358,0.00019,-5e-05,-9e-05,-0.00014,-0.00018,2e-05,0,0.00037,6,8
32359,0.00019,-5e-05,-9e-05,-0.00014,-0.00018,2e-05,0,0.00037,6,8
32360,0.00019,-5e-05,-9e-05,-0.00014,-0.00018,2e-05,0,0.00037,6,8
32361,0.00019,-5e-05,-9e-05,-0.00014,-0.00018,2e-05,0,0.00037,6,8
32362,0.00019,-5e-05,-9e-05,-0.00014,-0.00018,2e-05,0,0.00037,6,8
32363,0.00019,-5e-05,-9e-05,-0.00014,-0.00018,2e-05,0,0.00037,6,8
32364,0.00019,-5e-05,-9e-05,-0.00014,-0.00018,2e-05,0,0.00037,6,8
32365,0.00019,-5e-05,-9e-05,-0.00014,-0.00018,2e-05,0,0.00037,6,8
32366,0.00019,-5e-05,-9e-05,-0.00014,-0.00018,2e-05,0,0.00037,6,8
32367,0.00019,-5e-05,-9e-05,-0.00014,-0.00018,2e-05,0,0.00037,6,8
32368,0.00019,-5e-05,-9e-05,-0.00014,-0.00018,2e-05,0,0.00037,6,8
32369,0.00019,-5e-05,-9e-05,-0.00014,-0.00018,2e-05,0,0.00037,6,8
32370,0.00019,-5e-05,-9e-05,-0.00014,-0.00018,2e-05,0,0.00037,6,8
32371,0.00019,-5e-05,-9e-05,-0.00014,-0.00018,2e-05,0,0.00037,6,8
32372,0,-5e-05,-0.0001,-4e-05,-0.00046,-0.00013,7e-05,-5e-05,6,8
32373,-0.00013,-2e-05,-1e-05,-2e-05,-6e-05,-2e-05,-3e-05,-6e-05,6,8
32375,-0.00013,-2e-05,-1e-05,-2e-05,-6e-05,-2e-05,-3e-05,-6e-05,6,8
32376,-0.00013,-2e-05,-1e-05,-2e-05,-6e-05,-2e-05,-3e-05,-6e-05,6,8
32377,-0.00013,-2e-05,-1e-05,-2e-05,-6e-05,-2e-05,-3e-05,-6e-05,6,8
32378,-0.00013,-2e-05,-1e-05,-2e-05,-6e-05,-2e-05,-3e-05,-6e-05,6,8
32379,-0.00013,-2e-05,-1e-05,-2e-05,-6e-05,-2e-05,-3e-05,-6e-05,6,8
32381,-0.00013,-2e-05,-1e-05,-2e-05,-6e-05,-2e-05,-3e-05,-6e-05,6,8
32382,-0.00013,-2e-05,-1e-05,-2e-05,-6e-05,-2e-05,-3e-05,-6e-05,6,8
32383,-0.00013,-2e-05,-1e-05,-2e-05,-6e-05,-2e-05,-3e-05,-6e-05,6,8
32384,-0.00013,-2e-05,-1e-05,-2e-05,-6e-05,-2e-05,-3e-05,-6e-05,6,8
32385,-0.00013,-2e-05,-1e-05,-2e-05,-6e-05,-2e-05,-3e-05,-6e-05,6,8
32386,-0.00013,-2e-05,-1e-05,-2e-05,-6e-05,-2e-05,-3e-05,-6e-05,6,8
32389,-0.00013,-2e-05,-1e-05,-2e-05,-6e-05,-2e-05,-3e-05,-6e-05,6,8
32390,-0.00013,-2e-05,-1e-05,-2e-05,-6e-05,-2e-05,-3e-05,-6e-05,6,8
32391,-0.00013,-2e-05,-1e-05,-2e-05,-6e-05,-2e-05,-3e-05,-6e-05,6,8
32392,-0.00013,-2e-05,-1e-05,-2e-05,-6e-05,-2e-05,-3e-05,-6e-05,6,8
32393,-0.00013,-2e-05,-1e-05,-2e-05,-6e-05,-2e-05,-3e-05,-6e-05,6,8
32394,-0.00013,-2e-05,-1e-05,-2e-05,-6e-05,-2e-05,-3e-05,-6e-05,6,8
32395,-0.00013,-2e-05,-1e-05,-2e-05,-6e-05,-2e-05,-3e-05,-6e-05,6,8
32396,-0.00013,-2e-05,-1e-05,-2e-05,-6e-05,-2e-05,-3e-05,-6e-05,6,8
32397,-0.00013,-2e-05,-1e-05,-2e-05,-6e-05,-2e-05,-3e-05,-6e-05,6,8
32398,-0.00013,-2e-05,-1e-05,-2e-05,-6e-05,-2e-05,-3e-05,-6e-05,6,8
32399,-0.00013,-2e-05,-1e-05,-2e-05,-6e-05,-2e-05,-3e-05,-6e-05,6,8
32400,-0.00013,-2e-05,-1e-05,-2e-05,-6e-05,-2e-05,-3e-05,-6e-05,6,8
32401,-0.00013,-2e-05,-1e-05,-2e-05,-6e-05,-2e-05,-3e-05,-6e-05,6,8
32402,-2e-05,1e-05,-1e-05,8e-05,0.00018,0.0007,0.00021,-0.00019,6,8
32403,8e-05,2e-05,7e-05,0.00012,0.00076,0.00053,1e-05,-0.00038,6,8
32404,8e-05,2e-05,7e-05,0.00012,0.00076,0.00053,1e-05,-0.00038,6,8
32405,8e-05,2e-05,7e-05,0.00012,0.00076,0.00053,1e-05,-0.00038,6,8
32406,8e-05,2e-05,7e-05,0.00012,0.00076,0.00053,1e-05,-0.00038,6,8
32407,8e-05,2e-05,7e-05,0.00012,0.00076,0.00053,1e-05,-0.00038,6,8
32408,8e-05,2e-05,7e-05,0.00012,0.00076,0.00053,1e-05,-0.00038,6,8
32409,8e-05,2e-05,7e-05,0.00012,0.00076,0.00053,1e-05,-0.00038,6,8
32410,8e-05,2e-05,7e-05,0.00012,0.00076,0.00053,1e-05,-0.00038,6,8
32411,8e-05,2e-05,7e-05,0.00012,0.00076,0.00053,1e-05,-0.00038,6,8
32412,8e-05,2e-05,7e-05,0.00012,0.00076,0.00053,1e-05,-0.00038,6,8
32413,8e-05,2e-05,7e-05,0.00012,0.00076,0.00053,1e-05,-0.00038,6,8
32414,8e-05,2e-05,7e-05,0.00012,0.00076,0.00053,1e-05,-0.00038,6,8
32415,8e-05,2e-05,7e-05,0.00012,0.00076,0.00053,1e-05,-0.00038,6,8
32416,8e-05,2e-05,7e-05,0.00012,0.00076,0.00053,1e-05,-0.00038,6,8
32417,-0.00013,2e-05,5e-05,-3e-05,-0.00012,-0.00034,-0.00057,-0.0006,6,8
32418,-0.00013,2e-05,5e-05,-3e-05,-0.00012,-0.00034,-0.00057,-0.0006,6,8
32419,-0.00011,-2e-05,-1e-05,-1e-05,-0.00018,-0.00035,-6e-05,-0.00012,6,8
32420,-0.00011,-2e-05,-1e-05,-1e-05,-0.00018,-0.00035,-6e-05,-0.00012,6,8
32421,-0.00011,-2e-05,-1e-05,-1e-05,-0.00018,-0.00035,-6e-05,-0.00012,6,8
32422,-0.00011,-2e-05,-1e-05,-1e-05,-0.00018,-0.00035,-6e-05,-0.00012,6,8
32423,-0.00011,-2e-05,-1e-05,-1e-05,-0.00018,-0.00035,-6e-05,-0.00012,6,8
32424,-0.00011,-2e-05,-1e-05,-1e-05,-0.00018,-0.00035,-6e-05,-0.00012,6,8
32425,-0.00011,-2e-05,-1e-05,-1e-05,-0.00018,-0.00035,-6e-05,-0.00012,6,8
32426,-0.00011,-2e-05,-1e-05,-1e-05,-0.00018,-0.00035,-6e-05,-0.00012,6,8
32427,-0.00011,-2e-05,-1e-05,-1e-05,-0.00018,-0.00035,-6e-05,-0.00012,6,8
32428,-0.00011,-2e-05,-1e-05,-1e-05,-0.00018,-0.00035,-6e-05,-0.00012,6,8
32429,-0.00011,-2e-05,-1e-05,-1e-05,-0.00018,-0.00035,-6e-05,-0.00012,6,8
32430,-0.00011,-2e-05,-1e-05,-1e-05,-0.00018,-0.00035,-6e-05,-0.00012,6,8
32431,-0.00011,-2e-05,4e-05,0.00014,6e-05,-0.00059,-0.00023,-0.00051,6,8
32432,-0.00011,-2e-05,4e-05,0.00014,6e-05,-0.00059,-0.00023,-0.00051,6,8
32433,-0.00011,-2e-05,4e-05,0.00014,6e-05,-0.00059,-0.00023,-0.00051,6,8
32434,-0.00011,-2e-05,4e-05,0.00014,6e-05,-0.00059,-0.00023,-0.00051,6,8
32435,-0.00011,-2e-05,4e-05,0.00014,6e-05,-0.00059,-0.00023,-0.00051,6,8
32436,-0.00011,-2e-05,4e-05,0.00014,6e-05,-0.00059,-0.00023,-0.00051,6,8
32438,-0.00011,-2e-05,4e-05,0.00014,6e-05,-0.00059,-0.00023,-0.00051,6,8
32440,-0.00011,-2e-05,4e-05,0.00014,6e-05,-0.00059,-0.00023,-0.00051,6,8
32441,-0.00011,-2e-05,4e-05,0.00014,6e-05,-0.00059,-0.00023,-0.00051,6,8
32442,-0.00011,-2e-05,4e-05,0.00014,6e-05,-0.00059,-0.00023,-0.00051,6,8
32443,-0.00011,-2e-05,4e-05,0.00014,6e-05,-0.00059,-0.00023,-0.00051,6,8
32444,-0.00011,-2e-05,4e-05,0.00014,6e-05,-0.00059,-0.00023,-0.00051,6,8
32445,-0.00011,-2e-05,4e-05,0.00014,6e-05,-0.00059,-0.00023,-0.00051,6,8
32446,-0.00011,-2e-05,4e-05,0.00014,6e-05,-0.00059,-0.00023,-0.00051,6,8
32447,7e-05,-1e-05,0,-0.00012,0.00015,0.0004,-0.00022,-0.0001,6,8
32448,7e-05,-1e-05,0,-0.00012,0.00015,0.0004,-0.00022,-0.0001,6,8
32449,7e-05,-1e-05,0,-0.00012,0.00015,0.0004,-0.00022,-0.0001,6,8
32450,7e-05,-1e-05,0,-0.00012,0.00015,0.0004,-0.00022,-0.0001,6,8
32451,7e-05,-1e-05,0,-0.00012,0.00015,0.0004,-0.00022,-0.0001,6,8
32452,7e-05,-1e-05,0,-0.00012,0.00015,0.0004,-0.00022,-0.0001,6,8
32453,7e-05,-1e-05,0,-0.00012,0.00015,0.0004,-0.00022,-0.0001,6,8
32454,-0.00012,-0.00018,-0.0001,-5e-05,-0.00024,-0.0003,0.00041,0.00084,6,8
32455,-0.00012,-0.00018,-0.0001,-5e-05,-0.00024,-0.0003,0.00041,0.00084,6,8
32456,-0.0002,-1e-05,1e-05,-1e-05,-0.00015,-9e-05,-9e-05,-0.00088,6,8
32457,-0.0002,-1e-05,1e-05,-1e-05,-0.00015,-9e-05,-9e-05,-0.00088,6,8
32458,-0.0002,-1e-05,1e-05,-1e-05,-0.00015,-9e-05,-9e-05,-0.00088,6,8
32459,-0.0002,-1e-05,1e-05,-1e-05,-0.00015,-9e-05,-9e-05,-0.00088,6,8
32460,-0.0002,-1e-05,1e-05,-1e-05,-0.00015,-9e-05,-9e-05,-0.00088,6,8
32461,-0.0002,-1e-05,1e-05,-1e-05,-0.00015,-9e-05,-9e-05,-0.00088,6,8
32462,-0.0002,-1e-05,1e-05,-1e-05,-0.00015,-9e-05,-9e-05,-0.00088,6,8
32463,-0.0002,-1e-05,1e-05,-1e-05,-0.00015,-9e-05,-9e-05,-0.00088,6,8
32464,-0.0002,-1e-05,1e-05,-1e-05,-0.00015,-9e-05,-9e-05,-0.00088,6,8
32465,-0.0002,-1e-05,1e-05,-1e-05,-0.00015,-9e-05,-9e-05,-0.00088,6,8
32466,-0.0002,-1e-05,1e-05,-1e-05,-0.00015,-9e-05,-9e-05,-0.00088,6,8
32467,-0.0002,-1e-05,1e-05,-1e-05,-0.00015,-9e-05,-9e-05,-0.00088,6,8
32468,-0.0002,-1e-05,1e-05,-1e-05,-0.00015,-9e-05,-9e-05,-0.00088,6,8
32469,-0.0002,-1e-05,1e-05,-1e-05,-0.00015,-9e-05,-9e-05,-0.00088,6,8
32470,-0.0002,-1e-05,1e-05,-1e-05,-0.00015,-9e-05,-9e-05,-0.00088,6,8
32471,-0.0002,-1e-05,1e-05,-1e-05,-0.00015,-9e-05,-9e-05,-0.00088,6,8
32472,-0.0002,-1e-05,1e-05,-1e-05,-0.00015,-9e-05,-9e-05,-0.00088,6,8
32473,-0.0002,-1e-05,1e-05,-1e-05,-0.00015,-9e-05,-9e-05,-0.00088,6,8
32474,-0.0002,-1e-05,1e-05,-1e-05,-0.00015,-9e-05,-9e-05,-0.00088,6,8
32475,-0.0002,-1e-05,1e-05,-1e-05,-0.00015,-9e-05,-9e-05,-0.00088,6,8
32476,-0.0002,-1e-05,1e-05,-1e-05,-0.00015,-9e-05,-9e-05,-0.00088,6,8
32477,-2e-05,2e-05,1e-05,0,0.00015,1e-05,0.00011,0.00059,6,8
32478,-0.00015,-2e-05,-7e-05,-5e-05,-6e-05,0.00016,-0.00034,-0.00075,6,8
32479,-0.00015,-2e-05,-7e-05,-5e-05,-6e-05,0.00016,-0.00034,-0.00075,6,8
32480,-0.00015,-2e-05,-7e-05,-5e-05,-6e-05,0.00016,-0.00034,-0.00075,6,8
32481,-0.00015,-2e-05,-7e-05,-5e-05,-6e-05,0.00016,-0.00034,-0.00075,6,8
32482,-0.00015,-2e-05,-7e-05,-5e-05,-6e-05,0.00016,-0.00034,-0.00075,6,8
32483,-0.00015,-2e-05,-7e-05,-5e-05,-6e-05,0.00016,-0.00034,-0.00075,6,8
32484,-0.00015,-2e-05,-7e-05,-5e-05,-6e-05,0.00016,-0.00034,-0.00075,6,8
32485,-0.00015,-2e-05,-7e-05,-5e-05,-6e-05,0.00016,-0.00034,-0.00075,6,8
32487,-0.00015,-2e-05,-7e-05,-5e-05,-6e-05,0.00016,-0.00034,-0.00075,6,8
32490,-0.00015,-2e-05,-7e-05,-5e-05,-6e-05,0.00016,-0.00034,-0.00075,6,8
32491,-0.00015,-2e-05,-7e-05,-5e-05,-6e-05,0.00016,-0.00034,-0.00075,6,8
32492,-0.00015,-2e-05,-7e-05,-5e-05,-6e-05,0.00016,-0.00034,-0.00075,6,8
32493,8e-05,1e-05,1e-05,4e-05,7e-05,7e-05,6e-05,0.00023,6,8
32494,8e-05,1e-05,1e-05,4e-05,7e-05,7e-05,6e-05,0.00023,6,8
32495,8e-05,1e-05,1e-05,4e-05,7e-05,7e-05,6e-05,0.00023,6,8
32496,8e-05,1e-05,1e-05,4e-05,7e-05,7e-05,6e-05,0.00023,6,8
32497,8e-05,1e-05,1e-05,4e-05,7e-05,7e-05,6e-05,0.00023,6,8
32498,-0.00018,1e-05,0,-3e-05,-0.00029,0.00028,0.00028,-7e-05,6,8
32499,-0.00018,1e-05,0,-3e-05,-0.00029,0.00028,0.00028,-7e-05,6,8
32500,-0.00018,1e-05,0,-3e-05,-0.00029,0.00028,0.00028,-7e-05,6,8
32501,-0.00018,1e-05,0,-3e-05,-0.00029,0.00028,0.00028,-7e-05,6,8
32502,-0.00018,1e-05,0,-3e-05,-0.00029,0.00028,0.00028,-7e-05,6,8
32503,-0.00018,1e-05,0,-3e-05,-0.00029,0.00028,0.00028,-7e-05,6,8
32504,-0.00018,1e-05,0,-3e-05,-0.00029,0.00028,0.00028,-7e-05,6,8
32505,-0.00018,1e-05,0,-3e-05,-0.00029,0.00028,0.00028,-7e-05,6,8
32506,-0.00018,1e-05,0,-3e-05,-0.00029,0.00028,0.00028,-7e-05,6,8
32507,-0.00018,1e-05,0,-3e-05,-0.00029,0.00028,0.00028,-7e-05,6,8
32508,-0.00018,1e-05,0,-3e-05,-0.00029,0.00028,0.00028,-7e-05,6,8
32509,-0.00018,1e-05,0,-3e-05,-0.00029,0.00028,0.00028,-7e-05,6,8
32510,-0.00018,1e-05,0,-3e-05,-0.00029,0.00028,0.00028,-7e-05,6,8
32511,-0.00018,1e-05,0,-3e-05,-0.00029,0.00028,0.00028,-7e-05,6,8
32512,-0.00018,1e-05,0,-3e-05,-0.00029,0.00028,0.00028,-7e-05,6,8
32513,-0.00018,1e-05,0,-3e-05,-0.00029,0.00028,0.00028,-7e-05,6,8
32514,-0.00018,1e-05,0,-3e-05,-0.00029,0.00028,0.00028,-7e-05,6,8
32515,-0.00018,1e-05,0,-3e-05,-0.00029,0.00028,0.00028,-7e-05,6,8
32516,-0.00018,1e-05,0,-3e-05,-0.00029,0.00028,0.00028,-7e-05,6,8
32517,-0.00018,1e-05,0,-3e-05,-0.00029,0.00028,0.00028,-7e-05,6,8
32518,-0.00018,1e-05,0,-3e-05,-0.00029,0.00028,0.00028,-7e-05,6,8
32519,-0.00018,1e-05,0,-3e-05,-0.00029,0.00028,0.00028,-7e-05,6,8
32520,-0.00018,1e-05,0,-3e-05,-0.00029,0.00028,0.00028,-7e-05,6,8
32521,-0.00018,1e-05,0,-3e-05,-0.00029,0.00028,0.00028,-7e-05,6,8
32522,8e-05,5e-05,3e-05,2e-05,0.00014,-7e-05,0.00019,0.00043,6,8
32523,0.00016,-9e-05,-6e-05,-8e-05,-0.0004,-0.00052,0.00039,0.00087,6,8
32524,0.00016,-9e-05,-6e-05,-8e-05,-0.0004,-0.00052,0.00039,0.00087,6,8
32525,0.00016,-9e-05,-6e-05,-8e-05,-0.0004,-0.00052,0.00039,0.00087,6,8
32526,0.00016,-9e-05,-6e-05,-8e-05,-0.0004,-0.00052,0.00039,0.00087,6,8
32527,0.00016,-9e-05,-6e-05,-8e-05,-0.0004,-0.00052,0.00039,0.00087,6,8
32528,0.00016,-9e-05,-6e-05,-8e-05,-0.0004,-0.00052,0.00039,0.00087,6,8
32529,0.00016,-9e-05,-6e-05,-8e-05,-0.0004,-0.00052,0.00039,0.00087,6,8
32530,0.00016,-9e-05,-6e-05,-8e-05,-0.0004,-0.00052,0.00039,0.00087,6,8
32531,0.00016,-9e-05,-6e-05,-8e-05,-0.0004,-0.00052,0.00039,0.00087,6,8
32532,0.00016,-9e-05,-6e-05,-8e-05,-0.0004,-0.00052,0.00039,0.00087,6,8
32533,0.00016,-9e-05,-6e-05,-8e-05,-0.0004,-0.00052,0.00039,0.00087,6,8
32534,0.00016,-9e-05,-6e-05,-8e-05,-0.0004,-0.00052,0.00039,0.00087,6,8
32535,0.00016,-9e-05,-6e-05,-8e-05,-0.0004,-0.00052,0.00039,0.00087,6,8
32536,0.00016,-9e-05,-6e-05,-8e-05,-0.0004,-0.00052,0.00039,0.00087,6,8
32539,0.00016,-9e-05,-6e-05,-8e-05,-0.0004,-0.00052,0.00039,0.00087,6,8
32540,0.00016,-9e-05,-6e-05,-8e-05,-0.0004,-0.00052,0.00039,0.00087,6,8
32541,0.00016,-9e-05,-6e-05,-8e-05,-0.0004,-0.00052,0.00039,0.00087,6,8
32542,0.00016,-9e-05,-6e-05,-8e-05,-0.0004,-0.00052,0.00039,0.00087,6,8
32543,0.00016,-9e-05,-6e-05,-8e-05,-0.0004,-0.00052,0.00039,0.00087,6,8
32544,0.00016,-9e-05,-6e-05,-8e-05,-0.0004,-0.00052,0.00039,0.00087,6,8
32545,0.00016,-9e-05,-6e-05,-8e-05,-0.0004,-0.00052,0.00039,0.00087,6,8
32546,0.00016,-9e-05,-6e-05,-8e-05,-0.0004,-0.00052,0.00039,0.00087,6,8
32547,0.00016,-9e-05,-6e-05,-8e-05,-0.0004,-0.00052,0.00039,0.00087,6,8
32548,0.00016,-9e-05,-6e-05,-8e-05,-0.0004,-0.00052,0.00039,0.00087,6,8
32549,0.00016,-9e-05,-6e-05,-8e-05,-0.0004,-0.00052,0.00039,0.00087,6,8
32550,0.00016,-9e-05,-6e-05,-8e-05,-0.0004,-0.00052,0.00039,0.00087,6,8
32551,0.00016,-9e-05,-6e-05,-8e-05,-0.0004,-0.00052,0.00039,0.00087,6,8
32552,0.00016,-9e-05,-6e-05,-8e-05,-0.0004,-0.00052,0.00039,0.00087,6,8
32553,-0.0002,-2e-05,-4e-05,-3e-05,-0.0002,6e-05,7e-05,-0.00034,6,8
32554,-0.00013,-4e-05,-6e-05,-0.00013,-0.00033,-0.00012,-0.00058,-0.00097,6,8
32555,0.00041,1e-05,0,-0.00011,-3e-05,0.0004,0.00023,-0.00035,6,8
32556,2e-05,-2e-05,-3e-05,-0.00012,-0.00059,-0.00053,9e-05,-7e-05,6,8
32557,2e-05,-2e-05,-3e-05,-0.00012,-0.00059,-0.00053,9e-05,-7e-05,6,8
32558,2e-05,-2e-05,-3e-05,-0.00012,-0.00059,-0.00053,9e-05,-7e-05,6,8
32559,8e-05,1e-05,2e-05,0.00017,9e-05,0.0001,0.00058,0.00014,6,8
32560,8e-05,1e-05,2e-05,0.00017,9e-05,0.0001,0.00058,0.00014,6,8
32561,8e-05,1e-05,2e-05,0.00017,9e-05,0.0001,0.00058,0.00014,6,8
32562,8e-05,1e-05,2e-05,0.00017,9e-05,0.0001,0.00058,0.00014,6,8
32563,8e-05,1e-05,2e-05,0.00017,9e-05,0.0001,0.00058,0.00014,6,8
32564,8e-05,1e-05,2e-05,0.00017,9e-05,0.0001,0.00058,0.00014,6,8
32565,8e-05,1e-05,2e-05,0.00017,9e-05,0.0001,0.00058,0.00014,6,8
32566,8e-05,1e-05,2e-05,0.00017,9e-05,0.0001,0.00058,0.00014,6,8
32567,8e-05,1e-05,2e-05,0.00017,9e-05,0.0001,0.00058,0.00014,6,8
32568,8e-05,1e-05,2e-05,0.00017,9e-05,0.0001,0.00058,0.00014,6,8
32569,8e-05,1e-05,2e-05,0.00017,9e-05,0.0001,0.00058,0.00014,6,8
32570,8e-05,1e-05,2e-05,0.00017,9e-05,0.0001,0.00058,0.00014,6,8
32571,8e-05,1e-05,2e-05,0.00017,9e-05,0.0001,0.00058,0.00014,6,8
32572,8e-05,1e-05,2e-05,0.00017,9e-05,0.0001,0.00058,0.00014,6,8
32573,8e-05,1e-05,2e-05,0.00017,9e-05,0.0001,0.00058,0.00014,6,8
32574,-8e-05,-2e-05,-2e-05,-7e-05,-3e-05,-0.00015,-0.00014,0.00011,6,8
32575,-8e-05,-2e-05,-2e-05,-7e-05,-3e-05,-0.00015,-0.00014,0.00011,6,8
32576,-0.00017,-8e-05,-5e-05,-4e-05,4e-05,2e-05,0.00039,0.00022,6,8
32577,-0.00017,-8e-05,-5e-05,-4e-05,4e-05,2e-05,0.00039,0.00022,6,8
32578,-0.00017,-8e-05,-5e-05,-4e-05,4e-05,2e-05,0.00039,0.00022,6,8
32579,-0.00017,-8e-05,-5e-05,-4e-05,4e-05,2e-05,0.00039,0.00022,6,8
32580,-0.00017,-8e-05,-5e-05,-4e-05,4e-05,2e-05,0.00039,0.00022,6,8
32581,-0.00017,-8e-05,-5e-05,-4e-05,4e-05,2e-05,0.00039,0.00022,6,8
32582,-0.00017,-8e-05,-5e-05,-4e-05,4e-05,2e-05,0.00039,0.00022,6,8
32583,-0.00017,-8e-05,-5e-05,-4e-05,4e-05,2e-05,0.00039,0.00022,6,8
32584,-0.00017,-8e-05,-5e-05,-4e-05,4e-05,2e-05,0.00039,0.00022,6,8
32585,-0.00017,-8e-05,-5e-05,-4e-05,4e-05,2e-05,0.00039,0.00022,6,8
32586,-0.00017,-8e-05,-5e-05,-4e-05,4e-05,2e-05,0.00039,0.00022,6,8
32588,-0.00017,-8e-05,-5e-05,-4e-05,4e-05,2e-05,0.00039,0.00022,6,8
32589,-0.00017,-8e-05,-5e-05,-4e-05,4e-05,2e-05,0.00039,0.00022,6,8
32590,-0.00017,-8e-05,-5e-05,-4e-05,4e-05,2e-05,0.00039,0.00022,6,8
32591,-0.00017,-8e-05,-5e-05,-4e-05,4e-05,2e-05,0.00039,0.00022,6,8
32592,-0.00017,-8e-05,-5e-05,-4e-05,4e-05,2e-05,0.00039,0.00022,6,8
32593,-0.00017,-8e-05,-5e-05,-4e-05,4e-05,2e-05,0.00039,0.00022,6,8
32594,-0.00017,-8e-05,-5e-05,-4e-05,4e-05,2e-05,0.00039,0.00022,6,8
32595,-0.00017,-8e-05,-5e-05,-4e-05,4e-05,2e-05,0.00039,0.00022,6,8
32596,-0.00017,-8e-05,-5e-05,-4e-05,4e-05,2e-05,0.00039,0.00022,6,8
32597,-0.00017,-8e-05,-5e-05,-4e-05,4e-05,2e-05,0.00039,0.00022,6,8
32598,-0.00017,-8e-05,-5e-05,-4e-05,4e-05,2e-05,0.00039,0.00022,6,8
32599,-0.00017,-8e-05,-5e-05,-4e-05,4e-05,2e-05,0.00039,0.00022,6,8
32600,-0.00017,-8e-05,-5e-05,-4e-05,4e-05,2e-05,0.00039,0.00022,6,8
32601,-0.00017,-8e-05,-5e-05,-4e-05,4e-05,2e-05,0.00039,0.00022,6,8
32602,-0.00017,-8e-05,-5e-05,-4e-05,4e-05,2e-05,0.00039,0.00022,6,8
32603,-0.00017,-8e-05,-5e-05,-4e-05,4e-05,2e-05,0.00039,0.00022,6,8
32604,6e-05,0.00014,1e-05,0,0.00025,0.00036,-0.00039,0.0003,6,8
32605,-0.00026,-0.00022,-0.00012,-3e-05,-0.00013,-0.00022,2e-05,-0.00067,6,8
32606,-0.00015,9e-05,5e-05,-6e-05,-0.0005,-0.00036,-0.00033,-0.00016,6,8
32607,-0.00015,9e-05,5e-05,-6e-05,-0.0005,-0.00036,-0.00033,-0.00016,6,8
32608,-0.00015,9e-05,5e-05,-6e-05,-0.0005,-0.00036,-0.00033,-0.00016,6,8
32609,-0.00015,9e-05,5e-05,-6e-05,-0.0005,-0.00036,-0.00033,-0.00016,6,8
32610,-0.00015,9e-05,5e-05,-6e-05,-0.0005,-0.00036,-0.00033,-0.00016,6,8
32611,-0.00015,9e-05,5e-05,-6e-05,-0.0005,-0.00036,-0.00033,-0.00016,6,8
32612,-0.00015,9e-05,5e-05,-6e-05,-0.0005,-0.00036,-0.00033,-0.00016,6,8
32613,-0.00015,9e-05,5e-05,-6e-05,-0.0005,-0.00036,-0.00033,-0.00016,6,8
32614,-0.00015,9e-05,5e-05,-6e-05,-0.0005,-0.00036,-0.00033,-0.00016,6,8
32616,-0.00015,9e-05,5e-05,-6e-05,-0.0005,-0.00036,-0.00033,-0.00016,6,8
32617,-0.00015,9e-05,5e-05,-6e-05,-0.0005,-0.00036,-0.00033,-0.00016,6,8
32618,-0.00015,9e-05,5e-05,-6e-05,-0.0005,-0.00036,-0.00033,-0.00016,6,8
32619,0.00019,6e-05,6e-05,-8e-05,-0.00028,-9e-05,0.00064,6e-05,6,8
32620,0.00019,6e-05,6e-05,-8e-05,-0.00028,-9e-05,0.00064,6e-05,6,8
32621,-0.00015,-3e-05,-4e-05,-2e-05,0,-0.0001,-0.0004,-6e-05,6,8
32622,-0.00015,-3e-05,-4e-05,-2e-05,0,-0.0001,-0.0004,-6e-05,6,8
32623,-0.00015,-3e-05,-4e-05,-2e-05,0,-0.0001,-0.0004,-6e-05,6,8
32624,-0.00015,-3e-05,-4e-05,-2e-05,0,-0.0001,-0.0004,-6e-05,6,8
32625,-0.00015,-3e-05,-4e-05,-2e-05,0,-0.0001,-0.0004,-6e-05,6,8
32626,-0.00015,-3e-05,-4e-05,-2e-05,0,-0.0001,-0.0004,-6e-05,6,8
32627,-0.00015,-3e-05,-4e-05,-2e-05,0,-0.0001,-0.0004,-6e-05,6,8
32628,-0.00015,-3e-05,-4e-05,-2e-05,0,-0.0001,-0.0004,-6e-05,6,8
32629,-0.00015,-3e-05,-4e-05,-2e-05,0,-0.0001,-0.0004,-6e-05,6,8
32630,-0.00015,-3e-05,-4e-05,-2e-05,0,-0.0001,-0.0004,-6e-05,6,8
32631,-0.00015,-3e-05,-4e-05,-2e-05,0,-0.0001,-0.0004,-6e-05,6,8
32632,-0.00015,-3e-05,-4e-05,-2e-05,0,-0.0001,-0.0004,-6e-05,6,8
32633,-0.00015,-3e-05,-4e-05,-2e-05,0,-0.0001,-0.0004,-6e-05,6,8
32634,-0.00015,-3e-05,-4e-05,-2e-05,0,-0.0001,-0.0004,-6e-05,6,8
32635,-0.00015,-3e-05,-4e-05,-2e-05,0,-0.0001,-0.0004,-6e-05,6,8
32636,-0.00015,-3e-05,-4e-05,-2e-05,0,-0.0001,-0.0004,-6e-05,6,8
32639,-0.00015,-3e-05,-4e-05,-2e-05,0,-0.0001,-0.0004,-6e-05,6,8
32640,-0.00015,-3e-05,-4e-05,-2e-05,0,-0.0001,-0.0004,-6e-05,6,8
32641,-0.00015,-3e-05,-4e-05,-2e-05,0,-0.0001,-0.0004,-6e-05,6,8
32642,-0.00015,-3e-05,-4e-05,-2e-05,0,-0.0001,-0.0004,-6e-05,6,8
32643,1e-05,0,2e-05,-6e-05,0.0001,9e-05,-0.00023,-0.00021,6,8
32644,1e-05,0,2e-05,-6e-05,0.0001,9e-05,-0.00023,-0.00021,6,8
32645,1e-05,0,2e-05,-6e-05,0.0001,9e-05,-0.00023,-0.00021,6,8
32646,1e-05,0,2e-05,-6e-05,0.0001,9e-05,-0.00023,-0.00021,6,8
32647,1e-05,0,2e-05,-6e-05,0.0001,9e-05,-0.00023,-0.00021,6,8
32648,1e-05,0,2e-05,-6e-05,0.0001,9e-05,-0.00023,-0.00021,6,8
32649,0.00023,5e-05,0.0001,0.00011,-6e-05,0.00033,0.00027,0.00054,6,8
32650,0.00023,5e-05,0.0001,0.00011,-6e-05,0.00033,0.00027,0.00054,6,8
32651,0.00023,5e-05,0.0001,0.00011,-6e-05,0.00033,0.00027,0.00054,6,8
32652,0.00023,5e-05,0.0001,0.00011,-6e-05,0.00033,0.00027,0.00054,6,8
32653,0.00023,5e-05,0.0001,0.00011,-6e-05,0.00033,0.00027,0.00054,6,8
32654,0.00023,5e-05,0.0001,0.00011,-6e-05,0.00033,0.00027,0.00054,6,8
32655,0.00023,5e-05,0.0001,0.00011,-6e-05,0.00033,0.00027,0.00054,6,8
32656,0.00023,5e-05,0.0001,0.00011,-6e-05,0.00033,0.00027,0.00054,6,8
32657,5e-05,1e-05,3e-05,1e-05,0,-0.00036,1e-05,0.00028,6,8
32658,-6e-05,-5e-05,-0.00012,-0.00024,-0.00062,-0.00074,8e-05,-0.00031,6,8
32659,-6e-05,-5e-05,-0.00012,-0.00024,-0.00062,-0.00074,8e-05,-0.00031,6,8
32660,-6e-05,-5e-05,-0.00012,-0.00024,-0.00062,-0.00074,8e-05,-0.00031,6,8
32661,-6e-05,-5e-05,-0.00012,-0.00024,-0.00062,-0.00074,8e-05,-0.00031,6,8
32662,-6e-05,-5e-05,-0.00012,-0.00024,-0.00062,-0.00074,8e-05,-0.00031,6,8
32663,-6e-05,-5e-05,-0.00012,-0.00024,-0.00062,-0.00074,8e-05,-0.00031,6,8
32664,-6e-05,-5e-05,-0.00012,-0.00024,-0.00062,-0.00074,8e-05,-0.00031,6,8
32665,-6e-05,-5e-05,-0.00012,-0.00024,-0.00062,-0.00074,8e-05,-0.00031,6,8
32666,-6e-05,-5e-05,-0.00012,-0.00024,-0.00062,-0.00074,8e-05,-0.00031,6,8
32667,-6e-05,-5e-05,-0.00012,-0.00024,-0.00062,-0.00074,8e-05,-0.00031,6,8
32668,-6e-05,-5e-05,-0.00012,-0.00024,-0.00062,-0.00074,8e-05,-0.00031,6,8
32669,-6e-05,-5e-05,-0.00012,-0.00024,-0.00062,-0.00074,8e-05,-0.00031,6,8
32670,-6e-05,-5e-05,-0.00012,-0.00024,-0.00062,-0.00074,8e-05,-0.00031,6,8
32671,-6e-05,-5e-05,-0.00012,-0.00024,-0.00062,-0.00074,8e-05,-0.00031,6,8
32672,-6e-05,-5e-05,-0.00012,-0.00024,-0.00062,-0.00074,8e-05,-0.00031,6,8
32673,-6e-05,-5e-05,-0.00012,-0.00024,-0.00062,-0.00074,8e-05,-0.00031,6,8
32674,-6e-05,-5e-05,-0.00012,-0.00024,-0.00062,-0.00074,8e-05,-0.00031,6,8
32675,-6e-05,-5e-05,-0.00012,-0.00024,-0.00062,-0.00074,8e-05,-0.00031,6,8
32676,-6e-05,-5e-05,-0.00012,-0.00024,-0.00062,-0.00074,8e-05,-0.00031,6,8
32677,-6e-05,-5e-05,-0.00012,-0.00024,-0.00062,-0.00074,8e-05,-0.00031,6,8
32678,-6e-05,-5e-05,-0.00012,-0.00024,-0.00062,-0.00074,8e-05,-0.00031,6,8
32679,6e-05,-5e-05,-2e-05,1e-05,-9e-05,0.0002,-1e-05,0.00014,6,8
32680,6e-05,-5e-05,-2e-05,1e-05,-9e-05,0.0002,-1e-05,0.00014,6,8
32681,0.0001,-5e-05,-7e-05,-0.00016,-9e-05,-7e-05,2e-05,4e-05,6,8
32682,0.0001,-5e-05,-7e-05,-0.00016,-9e-05,-7e-05,2e-05,4e-05,6,8
32683,0.0001,-5e-05,-7e-05,-0.00016,-9e-05,-7e-05,2e-05,4e-05,6,8
32684,0.0001,-5e-05,-7e-05,-0.00016,-9e-05,-7e-05,2e-05,4e-05,6,8
32685,0.0001,-5e-05,-7e-05,-0.00016,-9e-05,-7e-05,2e-05,4e-05,6,8
32686,0.0001,-5e-05,-7e-05,-0.00016,-9e-05,-7e-05,2e-05,4e-05,6,8
32688,0.0001,-5e-05,-7e-05,-0.00016,-9e-05,-7e-05,2e-05,4e-05,6,8
32690,0.0001,-5e-05,-7e-05,-0.00016,-9e-05,-7e-05,2e-05,4e-05,6,8
32691,0.0001,-5e-05,-7e-05,-0.00016,-9e-05,-7e-05,2e-05,4e-05,6,8
32692,0.0001,-5e-05,-7e-05,-0.00016,-9e-05,-7e-05,2e-05,4e-05,6,8
32693,0.0001,-5e-05,-7e-05,-0.00016,-9e-05,-7e-05,2e-05,4e-05,6,8
32694,0.00017,3e-05,0,-5e-05,0.0003,0.0006,0.0004,0.00055,6,8
32695,0.00017,3e-05,0,-5e-05,0.0003,0.0006,0.0004,0.00055,6,8
32696,0.00017,3e-05,0,-5e-05,0.0003,0.0006,0.0004,0.00055,6,8
32697,0.00017,3e-05,0,-5e-05,0.0003,0.0006,0.0004,0.00055,6,8
32698,0.00017,3e-05,0,-5e-05,0.0003,0.0006,0.0004,0.00055,6,8
32699,0.00017,3e-05,0,-5e-05,0.0003,0.0006,0.0004,0.00055,6,8
32700,0.00017,3e-05,0,-5e-05,0.0003,0.0006,0.0004,0.00055,6,8
32701,0.00017,3e-05,0,-5e-05,0.0003,0.0006,0.0004,0.00055,6,8
32702,0.00024,-1e-05,6e-05,0.00012,0.00039,0.0002,8e-05,0.00027,6,8
32703,0.00024,-1e-05,6e-05,0.00012,0.00039,0.0002,8e-05,0.00027,6,8
32704,0.00024,-1e-05,6e-05,0.00012,0.00039,0.0002,8e-05,0.00027,6,8
32705,0.00024,-1e-05,6e-05,0.00012,0.00039,0.0002,8e-05,0.00027,6,8
32706,0.00024,-1e-05,6e-05,0.00012,0.00039,0.0002,8e-05,0.00027,6,8
32707,0.00024,-1e-05,6e-05,0.00012,0.00039,0.0002,8e-05,0.00027,6,8
32709,0.00024,-1e-05,6e-05,0.00012,0.00039,0.0002,8e-05,0.00027,6,8
32710,0.00024,-1e-05,6e-05,0.00012,0.00039,0.0002,8e-05,0.00027,6,8
32711,0.00024,-1e-05,6e-05,0.00012,0.00039,0.0002,8e-05,0.00027,6,8
32712,0.00024,-1e-05,6e-05,0.00012,0.00039,0.0002,8e-05,0.00027,6,8
32713,0.00024,-1e-05,6e-05,0.00012,0.00039,0.0002,8e-05,0.00027,6,8
32714,0.00024,-1e-05,6e-05,0.00012,0.00039,0.0002,8e-05,0.00027,6,8
32715,0.00024,-1e-05,6e-05,0.00012,0.00039,0.0002,8e-05,0.00027,6,8
32716,0.00024,-1e-05,6e-05,0.00012,0.00039,0.0002,8e-05,0.00027,6,8
32717,0.00024,-1e-05,6e-05,0.00012,0.00039,0.0002,8e-05,0.00027,6,8
32718,-0.00014,1e-05,-1e-05,3e-05,0.00031,-0.00024,-0.00024,-0.00038,6,8
32719,-0.00014,1e-05,-1e-05,3e-05,0.00031,-0.00024,-0.00024,-0.00038,6,8
32720,-0.00014,1e-05,-1e-05,3e-05,0.00031,-0.00024,-0.00024,-0.00038,6,8
32721,-0.00014,1e-05,-1e-05,3e-05,0.00031,-0.00024,-0.00024,-0.00038,6,8
32722,-0.00014,1e-05,-1e-05,3e-05,0.00031,-0.00024,-0.00024,-0.00038,6,8
32723,4e-05,2e-05,1e-05,5e-05,0.00014,0.00012,0.00047,0.00064,6,8
32724,4e-05,2e-05,1e-05,5e-05,0.00014,0.00012,0.00047,0.00064,6,8
32725,4e-05,2e-05,1e-05,5e-05,0.00014,0.00012,0.00047,0.00064,6,8
32726,4e-05,2e-05,1e-05,5e-05,0.00014,0.00012,0.00047,0.00064,6,8
32727,4e-05,2e-05,1e-05,5e-05,0.00014,0.00012,0.00047,0.00064,6,8
32728,4e-05,2e-05,1e-05,5e-05,0.00014,0.00012,0.00047,0.00064,6,8
32729,4e-05,2e-05,1e-05,5e-05,0.00014,0.00012,0.00047,0.00064,6,8
32730,4e-05,2e-05,1e-05,5e-05,0.00014,0.00012,0.00047,0.00064,6,8
32731,0.00015,4e-05,4e-05,0.00015,-2e-05,-8e-05,0.00017,-0.00071,6,8
32732,0.00015,4e-05,4e-05,0.00015,-2e-05,-8e-05,0.00017,-0.00071,6,8
32733,0.00015,4e-05,4e-05,0.00015,-2e-05,-8e-05,0.00017,-0.00071,6,8
32734,0.00015,4e-05,4e-05,0.00015,-2e-05,-8e-05,0.00017,-0.00071,6,8
32735,0.00015,4e-05,4e-05,0.00015,-2e-05,-8e-05,0.00017,-0.00071,6,8
32736,0.00015,4e-05,4e-05,0.00015,-2e-05,-8e-05,0.00017,-0.00071,6,8
32738,0.00015,4e-05,4e-05,0.00015,-2e-05,-8e-05,0.00017,-0.00071,6,8
32739,0.00015,4e-05,4e-05,0.00015,-2e-05,-8e-05,0.00017,-0.00071,6,8
32740,0.00015,4e-05,4e-05,0.00015,-2e-05,-8e-05,0.00017,-0.00071,6,8
32741,0.00015,4e-05,4e-05,0.00015,-2e-05,-8e-05,0.00017,-0.00071,6,8
32742,0.00015,4e-05,4e-05,0.00015,-2e-05,-8e-05,0.00017,-0.00071,6,8
32743,0.00015,4e-05,4e-05,0.00015,-2e-05,-8e-05,0.00017,-0.00071,6,8
32744,0.00015,4e-05,4e-05,0.00015,-2e-05,-8e-05,0.00017,-0.00071,6,8
32745,0.00015,4e-05,4e-05,0.00015,-2e-05,-8e-05,0.00017,-0.00071,6,8
32746,0.00015,4e-05,4e-05,0.00015,-2e-05,-8e-05,0.00017,-0.00071,6,8
32747,0.00015,4e-05,4e-05,0.00015,-2e-05,-8e-05,0.00017,-0.00071,6,8
32748,0.00015,4e-05,4e-05,0.00015,-2e-05,-8e-05,0.00017,-0.00071,6,8
32749,0.00015,4e-05,4e-05,0.00015,-2e-05,-8e-05,0.00017,-0.00071,6,8
32750,0.00015,4e-05,4e-05,0.00015,-2e-05,-8e-05,0.00017,-0.00071,6,8
32751,0.00015,4e-05,4e-05,0.00015,-2e-05,-8e-05,0.00017,-0.00071,6,8
32752,0.00015,4e-05,4e-05,0.00015,-2e-05,-8e-05,0.00017,-0.00071,6,8
32753,0.00015,4e-05,4e-05,0.00015,-2e-05,-8e-05,0.00017,-0.00071,6,8
32754,0.00015,4e-05,4e-05,0.00015,-2e-05,-8e-05,0.00017,-0.00071,6,8
32755,-7e-05,-5e-05,-2e-05,-3e-05,7e-05,-0.00034,-0.00022,-0.00035,6,8
32756,-7e-05,-5e-05,-2e-05,-3e-05,7e-05,-0.00034,-0.00022,-0.00035,6,8
32757,-8e-05,-2e-05,-2e-05,-0.00012,-0.00045,-0.00061,-9e-05,-0.00017,6,8
32758,-0.00029,0.0001,5e-05,0.00015,0.00049,0.00011,-0.0003,-0.00023,6,8
32759,-0.00029,0.0001,5e-05,0.00015,0.00049,0.00011,-0.0003,-0.00023,6,8
32760,-0.00029,0.0001,5e-05,0.00015,0.00049,0.00011,-0.0003,-0.00023,6,8
32761,-0.00029,0.0001,5e-05,0.00015,0.00049,0.00011,-0.0003,-0.00023,6,8
32762,-0.00029,0.0001,5e-05,0.00015,0.00049,0.00011,-0.0003,-0.00023,6,8
32763,-0.00029,0.0001,5e-05,0.00015,0.00049,0.00011,-0.0003,-0.00023,6,8
32764,-0.00029,0.0001,5e-05,0.00015,0.00049,0.00011,-0.0003,-0.00023,6,8
32765,-0.00029,0.0001,5e-05,0.00015,0.00049,0.00011,-0.0003,-0.00023,6,8
32766,-0.00029,0.0001,5e-05,0.00015,0.00049,0.00011,-0.0003,-0.00023,6,8
32767,-0.00029,0.0001,5e-05,0.00015,0.00049,0.00011,-0.0003,-0.00023,6,8
32768,-0.00029,0.0001,5e-05,0.00015,0.00049,0.00011,-0.0003,-0.00023,6,8
32769,-0.00029,0.0001,5e-05,0.00015,0.00049,0.00011,-0.0003,-0.00023,6,8
32770,-0.00029,0.0001,5e-05,0.00015,0.00049,0.00011,-0.0003,-0.00023,6,8
32771,-0.00029,0.0001,5e-05,0.00015,0.00049,0.00011,-0.0003,-0.00023,6,8
32772,-0.00029,0.0001,5e-05,0.00015,0.00049,0.00011,-0.0003,-0.00023,6,8
32773,-0.00029,0.0001,5e-05,0.00015,0.00049,0.00011,-0.0003,-0.00023,6,8
32774,-0.00029,0.0001,5e-05,0.00015,0.00049,0.00011,-0.0003,-0.00023,6,8
32775,-0.00029,0.0001,5e-05,0.00015,0.00049,0.00011,-0.0003,-0.00023,6,8
32776,-0.00029,0.0001,5e-05,0.00015,0.00049,0.00011,-0.0003,-0.00023,6,8
32777,0.00016,1e-05,-4e-05,-3e-05,-2e-05,0.00018,0.00015,0.00018,6,8
32778,-3e-05,-3e-05,-1e-05,2e-05,0.00011,-0.00076,-0.00029,-6e-05,6,8
32780,-3e-05,-3e-05,-1e-05,2e-05,0.00011,-0.00076,-0.00029,-6e-05,6,8
32781,-3e-05,-3e-05,-1e-05,2e-05,0.00011,-0.00076,-0.00029,-6e-05,6,8
32782,-3e-05,-3e-05,-1e-05,2e-05,0.00011,-0.00076,-0.00029,-6e-05,6,8
32783,-3e-05,-3e-05,-1e-05,2e-05,0.00011,-0.00076,-0.00029,-6e-05,6,8
32784,-3e-05,-3e-05,-1e-05,2e-05,0.00011,-0.00076,-0.00029,-6e-05,6,8
32785,-3e-05,-3e-05,-1e-05,2e-05,0.00011,-0.00076,-0.00029,-6e-05,6,8
32786,-3e-05,-3e-05,-1e-05,2e-05,0.00011,-0.00076,-0.00029,-6e-05,6,8
32788,-3e-05,-3e-05,-1e-05,2e-05,0.00011,-0.00076,-0.00029,-6e-05,6,8
32789,-3e-05,-3e-05,-1e-05,2e-05,0.00011,-0.00076,-0.00029,-6e-05,6,8
32790,-3e-05,-3e-05,-1e-05,2e-05,0.00011,-0.00076,-0.00029,-6e-05,6,8
32791,-3e-05,-3e-05,-1e-05,2e-05,0.00011,-0.00076,-0.00029,-6e-05,6,8
32792,-3e-05,-3e-05,-1e-05,2e-05,0.00011,-0.00076,-0.00029,-6e-05,6,8
32793,-3e-05,-3e-05,-1e-05,2e-05,0.00011,-0.00076,-0.00029,-6e-05,6,8
32794,-3e-05,-3e-05,-1e-05,2e-05,0.00011,-0.00076,-0.00029,-6e-05,6,8
32795,-3e-05,-3e-05,-1e-05,2e-05,0.00011,-0.00076,-0.00029,-6e-05,6,8
32796,-3e-05,-3e-05,-1e-05,2e-05,0.00011,-0.00076,-0.00029,-6e-05,6,8
32797,-3e-05,-3e-05,-1e-05,2e-05,0.00011,-0.00076,-0.00029,-6e-05,6,8
32798,-3e-05,-3e-05,-1e-05,2e-05,0.00011,-0.00076,-0.00029,-6e-05,6,8
32799,-8e-05,1e-05,4e-05,5e-05,-7e-05,-0.00038,-7e-05,0.00029,6,8
32800,-8e-05,1e-05,4e-05,5e-05,-7e-05,-0.00038,-7e-05,0.00029,6,8
32801,3e-05,-2e-05,4e-05,0.00021,0.00051,0.00042,0.00034,0.00012,6,8
32802,3e-05,-2e-05,4e-05,0.00021,0.00051,0.00042,0.00034,0.00012,6,8
32803,3e-05,-2e-05,4e-05,0.00021,0.00051,0.00042,0.00034,0.00012,6,8
32804,3e-05,-2e-05,4e-05,0.00021,0.00051,0.00042,0.00034,0.00012,6,8
32805,3e-05,-2e-05,4e-05,0.00021,0.00051,0.00042,0.00034,0.00012,6,8
32806,3e-05,-2e-05,4e-05,0.00021,0.00051,0.00042,0.00034,0.00012,6,8
32807,3e-05,-2e-05,4e-05,0.00021,0.00051,0.00042,0.00034,0.00012,6,8
32808,3e-05,-2e-05,4e-05,0.00021,0.00051,0.00042,0.00034,0.00012,6,8
32809,3e-05,-2e-05,4e-05,0.00021,0.00051,0.00042,0.00034,0.00012,6,8
32810,3e-05,-2e-05,4e-05,0.00021,0.00051,0.00042,0.00034,0.00012,6,8
32811,3e-05,-2e-05,4e-05,0.00021,0.00051,0.00042,0.00034,0.00012,6,8
32812,3e-05,-2e-05,4e-05,0.00021,0.00051,0.00042,0.00034,0.00012,6,8
32813,3e-05,-2e-05,4e-05,0.00021,0.00051,0.00042,0.00034,0.00012,6,8
32814,3e-05,-2e-05,4e-05,0.00021,0.00051,0.00042,0.00034,0.00012,6,8
32815,3e-05,-2e-05,4e-05,0.00021,0.00051,0.00042,0.00034,0.00012,6,8
32816,3e-05,-2e-05,4e-05,0.00021,0.00051,0.00042,0.00034,0.00012,6,8
32817,3e-05,-2e-05,4e-05,0.00021,0.00051,0.00042,0.00034,0.00012,6,8
32818,3e-05,-2e-05,4e-05,0.00021,0.00051,0.00042,0.00034,0.00012,6,8
32819,3e-05,-2e-05,4e-05,0.00021,0.00051,0.00042,0.00034,0.00012,6,8
32820,3e-05,-2e-05,4e-05,0.00021,0.00051,0.00042,0.00034,0.00012,6,8
32821,3e-05,-2e-05,4e-05,0.00021,0.00051,0.00042,0.00034,0.00012,6,8
32822,3e-05,-2e-05,4e-05,0.00021,0.00051,0.00042,0.00034,0.00012,6,8
32823,3e-05,-2e-05,4e-05,0.00021,0.00051,0.00042,0.00034,0.00012,6,8
32824,3e-05,-2e-05,4e-05,0.00021,0.00051,0.00042,0.00034,0.00012,6,8
32825,3e-05,-2e-05,4e-05,0.00021,0.00051,0.00042,0.00034,0.00012,6,8
32826,3e-05,-2e-05,4e-05,0.00021,0.00051,0.00042,0.00034,0.00012,6,8
32827,3e-05,-2e-05,4e-05,0.00021,0.00051,0.00042,0.00034,0.00012,6,8
32828,3e-05,-2e-05,4e-05,0.00021,0.00051,0.00042,0.00034,0.00012,6,8
32829,-4e-05,-3e-05,-2e-05,-2e-05,0.00023,0.0002,-0.00018,-5e-05,6,8
32830,-4e-05,-3e-05,-2e-05,-2e-05,0.00023,0.0002,-0.00018,-5e-05,6,8
32831,-2e-05,-4e-05,4e-05,-7e-05,2e-05,-6e-05,3e-05,-0.00017,6,8
32832,-2e-05,-4e-05,4e-05,-7e-05,2e-05,-6e-05,3e-05,-0.00017,6,8
32833,-2e-05,-4e-05,4e-05,-7e-05,2e-05,-6e-05,3e-05,-0.00017,6,8
32834,-2e-05,-4e-05,4e-05,-7e-05,2e-05,-6e-05,3e-05,-0.00017,6,8
32835,-2e-05,-4e-05,4e-05,-7e-05,2e-05,-6e-05,3e-05,-0.00017,6,8
32836,-2e-05,-4e-05,4e-05,-7e-05,2e-05,-6e-05,3e-05,-0.00017,6,8
32838,-2e-05,-4e-05,4e-05,-7e-05,2e-05,-6e-05,3e-05,-0.00017,6,8
32839,-2e-05,-4e-05,4e-05,-7e-05,2e-05,-6e-05,3e-05,-0.00017,6,8
32840,-2e-05,-4e-05,4e-05,-7e-05,2e-05,-6e-05,3e-05,-0.00017,6,8
32841,-2e-05,-4e-05,4e-05,-7e-05,2e-05,-6e-05,3e-05,-0.00017,6,8
32842,-2e-05,-4e-05,4e-05,-7e-05,2e-05,-6e-05,3e-05,-0.00017,6,8
32843,-2e-05,-4e-05,4e-05,-7e-05,2e-05,-6e-05,3e-05,-0.00017,6,8
32844,-0.00013,4e-05,-1e-05,1e-05,-2e-05,-0.00031,-0.00034,-6e-05,6,8
32845,-0.00013,4e-05,-1e-05,1e-05,-2e-05,-0.00031,-0.00034,-6e-05,6,8
32846,-0.00013,4e-05,-1e-05,1e-05,-2e-05,-0.00031,-0.00034,-6e-05,6,8
32847,-0.00013,4e-05,-1e-05,1e-05,-2e-05,-0.00031,-0.00034,-6e-05,6,8
32848,-0.00013,4e-05,-1e-05,1e-05,-2e-05,-0.00031,-0.00034,-6e-05,6,8
32849,-0.00013,4e-05,-1e-05,1e-05,-2e-05,-0.00031,-0.00034,-6e-05,6,8
32850,-0.00013,4e-05,-1e-05,1e-05,-2e-05,-0.00031,-0.00034,-6e-05,6,8
32851,-0.00013,4e-05,-1e-05,1e-05,-2e-05,-0.00031,-0.00034,-6e-05,6,8
32852,9e-05,-8e-05,-0.00013,-0.00017,-0.00016,6e-05,-2e-05,-0.00016,6,8
32853,-0.00026,-9e-05,-1e-05,-3e-05,-9e-05,-0.00019,-2e-05,-7e-05,6,8
32854,-0.00026,-9e-05,-1e-05,-3e-05,-9e-05,-0.00019,-2e-05,-7e-05,6,8
32855,-0.00026,-9e-05,-1e-05,-3e-05,-9e-05,-0.00019,-2e-05,-7e-05,6,8
32856,-0.00026,-9e-05,-1e-05,-3e-05,-9e-05,-0.00019,-2e-05,-7e-05,6,8
32857,-0.00026,-9e-05,-1e-05,-3e-05,-9e-05,-0.00019,-2e-05,-7e-05,6,8
32858,-0.00026,-9e-05,-1e-05,-3e-05,-9e-05,-0.00019,-2e-05,-7e-05,6,8
32859,-0.00026,-9e-05,-1e-05,-3e-05,-9e-05,-0.00019,-2e-05,-7e-05,6,8
32860,-3e-05,2e-05,4e-05,-4e-05,-5e-05,0.00025,1e-05,-0.00064,6,8
32861,-3e-05,2e-05,4e-05,-4e-05,-5e-05,0.00025,1e-05,-0.00064,6,8
32862,-3e-05,2e-05,4e-05,-4e-05,-5e-05,0.00025,1e-05,-0.00064,6,8
32863,-3e-05,2e-05,4e-05,-4e-05,-5e-05,0.00025,1e-05,-0.00064,6,8
32864,-3e-05,2e-05,4e-05,-4e-05,-5e-05,0.00025,1e-05,-0.00064,6,8
32865,-3e-05,2e-05,4e-05,-4e-05,-5e-05,0.00025,1e-05,-0.00064,6,8
32866,-3e-05,2e-05,4e-05,-4e-05,-5e-05,0.00025,1e-05,-0.00064,6,8
32867,-3e-05,2e-05,4e-05,-4e-05,-5e-05,0.00025,1e-05,-0.00064,6,8
32868,-3e-05,2e-05,4e-05,-4e-05,-5e-05,0.00025,1e-05,-0.00064,6,8
32869,-3e-05,2e-05,4e-05,-4e-05,-5e-05,0.00025,1e-05,-0.00064,6,8
32870,-3e-05,2e-05,4e-05,-4e-05,-5e-05,0.00025,1e-05,-0.00064,6,8
32871,-3e-05,2e-05,4e-05,-4e-05,-5e-05,0.00025,1e-05,-0.00064,6,8
32872,-3e-05,2e-05,4e-05,-4e-05,-5e-05,0.00025,1e-05,-0.00064,6,8
32873,-3e-05,2e-05,4e-05,-4e-05,-5e-05,0.00025,1e-05,-0.00064,6,8
32874,-3e-05,2e-05,4e-05,-4e-05,-5e-05,0.00025,1e-05,-0.00064,6,8
32875,-3e-05,2e-05,4e-05,-4e-05,-5e-05,0.00025,1e-05,-0.00064,6,8
32876,-3e-05,2e-05,4e-05,-4e-05,-5e-05,0.00025,1e-05,-0.00064,6,8
32877,-3e-05,2e-05,4e-05,-4e-05,-5e-05,0.00025,1e-05,-0.00064,6,8
32878,-3e-05,2e-05,4e-05,-4e-05,-5e-05,0.00025,1e-05,-0.00064,6,8
32879,-3e-05,2e-05,4e-05,-4e-05,-5e-05,0.00025,1e-05,-0.00064,6,8
32880,-3e-05,2e-05,4e-05,-4e-05,-5e-05,0.00025,1e-05,-0.00064,6,8
32881,-3e-05,2e-05,4e-05,-4e-05,-5e-05,0.00025,1e-05,-0.00064,6,8
32882,2e-05,-1e-05,0,7e-05,6e-05,0.00036,5e-05,0.00015,6,8
32883,-0.00012,0,0,0,0.00026,0.00039,-0.00018,0.00032,6,8
32884,-0.00012,0,0,0,0.00026,0.00039,-0.00018,0.00032,6,8
32885,-0.00012,0,0,0,0.00026,0.00039,-0.00018,0.00032,6,8
32886,-0.00012,0,0,0,0.00026,0.00039,-0.00018,0.00032,6,8
32889,-0.00012,0,0,0,0.00026,0.00039,-0.00018,0.00032,6,8
32890,-0.00012,0,0,0,0.00026,0.00039,-0.00018,0.00032,6,8
32891,-0.00012,0,0,0,0.00026,0.00039,-0.00018,0.00032,6,8
32892,-0.00012,0,0,0,0.00026,0.00039,-0.00018,0.00032,6,8
32893,-0.00012,0,0,0,0.00026,0.00039,-0.00018,0.00032,6,8
32894,-0.00012,0,0,0,0.00026,0.00039,-0.00018,0.00032,6,8
32895,-0.00012,0,0,0,0.00026,0.00039,-0.00018,0.00032,6,8
32896,-0.00012,0,0,0,0.00026,0.00039,-0.00018,0.00032,6,8
32897,-0.00012,0,0,0,0.00026,0.00039,-0.00018,0.00032,6,8
32898,-0.00012,0,0,0,0.00026,0.00039,-0.00018,0.00032,6,8
32899,-0.00012,0,0,0,0.00026,0.00039,-0.00018,0.00032,6,8
32900,-0.00012,0,0,0,0.00026,0.00039,-0.00018,0.00032,6,8
32901,-0.00012,0,0,0,0.00026,0.00039,-0.00018,0.00032,6,8
32902,-0.00012,0,0,0,0.00026,0.00039,-0.00018,0.00032,6,8
32903,-0.00012,0,0,0,0.00026,0.00039,-0.00018,0.00032,6,8
32904,-2e-05,-3e-05,-2e-05,0,-9e-05,-0.00035,-3e-05,0.00028,6,8
32905,-2e-05,-3e-05,-2e-05,0,-9e-05,-0.00035,-3e-05,0.00028,6,8
32906,6e-05,0,-5e-05,-0.00014,-0.00016,7e-05,0.00012,-0.00021,6,8
32907,6e-05,0,-5e-05,-0.00014,-0.00016,7e-05,0.00012,-0.00021,6,8
32908,6e-05,0,-5e-05,-0.00014,-0.00016,7e-05,0.00012,-0.00021,6,8
32909,6e-05,0,-5e-05,-0.00014,-0.00016,7e-05,0.00012,-0.00021,6,8
32910,6e-05,0,-5e-05,-0.00014,-0.00016,7e-05,0.00012,-0.00021,6,8
32911,6e-05,0,-5e-05,-0.00014,-0.00016,7e-05,0.00012,-0.00021,6,8
32912,6e-05,0,-5e-05,-0.00014,-0.00016,7e-05,0.00012,-0.00021,6,8
32913,6e-05,0,-5e-05,-0.00014,-0.00016,7e-05,0.00012,-0.00021,6,8
32914,6e-05,0,-5e-05,-0.00014,-0.00016,7e-05,0.00012,-0.00021,6,8
32915,6e-05,0,-5e-05,-0.00014,-0.00016,7e-05,0.00012,-0.00021,6,8
32916,6e-05,0,-5e-05,-0.00014,-0.00016,7e-05,0.00012,-0.00021,6,8
32917,6e-05,0,-5e-05,-0.00014,-0.00016,7e-05,0.00012,-0.00021,6,8
32918,6e-05,0,-5e-05,-0.00014,-0.00016,7e-05,0.00012,-0.00021,6,8
32919,6e-05,0,-5e-05,-0.00014,-0.00016,7e-05,0.00012,-0.00021,6,8
32920,6e-05,0,-5e-05,-0.00014,-0.00016,7e-05,0.00012,-0.00021,6,8
32921,6e-05,0,-5e-05,-0.00014,-0.00016,7e-05,0.00012,-0.00021,6,8
32922,6e-05,0,-5e-05,-0.00014,-0.00016,7e-05,0.00012,-0.00021,6,8
32923,6e-05,0,-5e-05,-0.00014,-0.00016,7e-05,0.00012,-0.00021,6,8
32924,6e-05,0,-5e-05,-0.00014,-0.00016,7e-05,0.00012,-0.00021,6,8
32925,6e-05,0,-5e-05,-0.00014,-0.00016,7e-05,0.00012,-0.00021,6,8
32926,6e-05,0,-5e-05,-0.00014,-0.00016,7e-05,0.00012,-0.00021,6,8
32927,-7e-05,0,-6e-05,-8e-05,5e-05,0.00015,-0.00011,-0.00027,6,8
32928,0.00017,-2e-05,-5e-05,1e-05,-5e-05,-5e-05,-5e-05,-0.00044,6,8
32929,0.00017,-2e-05,-5e-05,1e-05,-5e-05,-5e-05,-5e-05,-0.00044,6,8
32930,0.00017,-2e-05,-5e-05,1e-05,-5e-05,-5e-05,-5e-05,-0.00044,6,8
32931,0.00017,-2e-05,-5e-05,1e-05,-5e-05,-5e-05,-5e-05,-0.00044,6,8
32932,0.00017,-2e-05,-5e-05,1e-05,-5e-05,-5e-05,-5e-05,-0.00044,6,8
32933,0.00017,-2e-05,-5e-05,1e-05,-5e-05,-5e-05,-5e-05,-0.00044,6,8
32934,-0.00032,-7e-05,1e-05,-3e-05,-6e-05,0.00054,-8e-05,-0.00025,6,8
32935,-0.00032,-7e-05,1e-05,-3e-05,-6e-05,0.00054,-8e-05,-0.00025,6,8
32936,3e-05,-4e-05,1e-05,5e-05,0.00011,0.00023,-0.00033,3e-05,6,8
32938,3e-05,-4e-05,1e-05,5e-05,0.00011,0.00023,-0.00033,3e-05,6,8
32939,3e-05,-4e-05,1e-05,5e-05,0.00011,0.00023,-0.00033,3e-05,6,8
32940,3e-05,-4e-05,1e-05,5e-05,0.00011,0.00023,-0.00033,3e-05,6,8
32941,3e-05,-4e-05,1e-05,5e-05,0.00011,0.00023,-0.00033,3e-05,6,8
32942,3e-05,-4e-05,1e-05,5e-05,0.00011,0.00023,-0.00033,3e-05,6,8
32943,3e-05,-4e-05,1e-05,5e-05,0.00011,0.00023,-0.00033,3e-05,6,8
32944,3e-05,-4e-05,1e-05,5e-05,0.00011,0.00023,-0.00033,3e-05,6,8
32945,3e-05,-4e-05,1e-05,5e-05,0.00011,0.00023,-0.00033,3e-05,6,8
32946,3e-05,-4e-05,1e-05,5e-05,0.00011,0.00023,-0.00033,3e-05,6,8
32947,3e-05,-4e-05,1e-05,5e-05,0.00011,0.00023,-0.00033,3e-05,6,8
32948,3e-05,-4e-05,1e-05,5e-05,0.00011,0.00023,-0.00033,3e-05,6,8
32949,3e-05,-4e-05,1e-05,5e-05,0.00011,0.00023,-0.00033,3e-05,6,8
32950,3e-05,-4e-05,1e-05,5e-05,0.00011,0.00023,-0.00033,3e-05,6,8
32951,3e-05,-4e-05,1e-05,5e-05,0.00011,0.00023,-0.00033,3e-05,6,8
32952,3e-05,-4e-05,1e-05,5e-05,0.00011,0.00023,-0.00033,3e-05,6,8
32953,3e-05,-4e-05,1e-05,5e-05,0.00011,0.00023,-0.00033,3e-05,6,8
32954,3e-05,-4e-05,1e-05,5e-05,0.00011,0.00023,-0.00033,3e-05,6,8
32955,3e-05,-4e-05,1e-05,5e-05,0.00011,0.00023,-0.00033,3e-05,6,8
32956,3e-05,-4e-05,1e-05,5e-05,0.00011,0.00023,-0.00033,3e-05,6,8
32957,0.00026,3e-05,-4e-05,-0.00015,-8e-05,2e-05,-0.00018,-0.00065,6,8
32958,0.00026,3e-05,-4e-05,-0.00015,-8e-05,2e-05,-0.00018,-0.00065,6,8
32959,-9e-05,-2e-05,0,3e-05,-8e-05,-6e-05,0.00037,0.00073,6,8
32960,-9e-05,-2e-05,0,3e-05,-8e-05,-6e-05,0.00037,0.00073,6,8
32961,-9e-05,-2e-05,0,3e-05,-8e-05,-6e-05,0.00037,0.00073,6,8
32962,-9e-05,-2e-05,0,3e-05,-8e-05,-6e-05,0.00037,0.00073,6,8
32963,-9e-05,-2e-05,0,3e-05,-8e-05,-6e-05,0.00037,0.00073,6,8
32964,-9e-05,-2e-05,0,3e-05,-8e-05,-6e-05,0.00037,0.00073,6,8
32965,-9e-05,-2e-05,0,3e-05,-8e-05,-6e-05,0.00037,0.00073,6,8
32966,-9e-05,-2e-05,0,3e-05,-8e-05,-6e-05,0.00037,0.00073,6,8
32967,-9e-05,-2e-05,0,3e-05,-8e-05,-6e-05,0.00037,0.00073,6,8
32968,-9e-05,-2e-05,0,3e-05,-8e-05,-6e-05,0.00037,0.00073,6,8
32969,-9e-05,-2e-05,0,3e-05,-8e-05,-6e-05,0.00037,0.00073,6,8
32970,-9e-05,-2e-05,0,3e-05,-8e-05,-6e-05,0.00037,0.00073,6,8
32971,7e-05,-2e-05,-5e-05,-9e-05,-0.00026,-0.00037,-2e-05,0.00029,6,8
32972,7e-05,-2e-05,-5e-05,-9e-05,-0.00026,-0.00037,-2e-05,0.00029,6,8
32973,7e-05,-2e-05,-5e-05,-9e-05,-0.00026,-0.00037,-2e-05,0.00029,6,8
32974,7e-05,-2e-05,-5e-05,-9e-05,-0.00026,-0.00037,-2e-05,0.00029,6,8
32975,7e-05,-2e-05,-5e-05,-9e-05,-0.00026,-0.00037,-2e-05,0.00029,6,8
32976,7e-05,-2e-05,-5e-05,-9e-05,-0.00026,-0.00037,-2e-05,0.00029,6,8
32977,7e-05,-2e-05,-5e-05,-9e-05,-0.00026,-0.00037,-2e-05,0.00029,6,8
32978,7e-05,-2e-05,-5e-05,-9e-05,-0.00026,-0.00037,-2e-05,0.00029,6,8
32979,0,2e-05,-0.00011,-3e-05,3e-05,0.00016,-6e-05,-6e-05,6,8
32980,0,2e-05,-0.00011,-3e-05,3e-05,0.00016,-6e-05,-6e-05,6,8
32981,0,2e-05,-0.00011,-3e-05,3e-05,0.00016,-6e-05,-6e-05,6,8
32982,0,2e-05,-0.00011,-3e-05,3e-05,0.00016,-6e-05,-6e-05,6,8
32983,0,2e-05,-0.00011,-3e-05,3e-05,0.00016,-6e-05,-6e-05,6,8
32984,0,2e-05,-0.00011,-3e-05,3e-05,0.00016,-6e-05,-6e-05,6,8
32985,0,2e-05,-0.00011,-3e-05,3e-05,0.00016,-6e-05,-6e-05,6,8
32986,0,2e-05,-0.00011,-3e-05,3e-05,0.00016,-6e-05,-6e-05,6,8
32988,0,2e-05,-0.00011,-3e-05,3e-05,0.00016,-6e-05,-6e-05,6,8
32989,0,2e-05,-0.00011,-3e-05,3e-05,0.00016,-6e-05,-6e-05,6,8
32990,0,2e-05,-0.00011,-3e-05,3e-05,0.00016,-6e-05,-6e-05,6,8
32991,0,2e-05,-0.00011,-3e-05,3e-05,0.00016,-6e-05,-6e-05,6,8
32992,0,2e-05,-0.00011,-3e-05,3e-05,0.00016,-6e-05,-6e-05,6,8
32993,0,2e-05,-0.00011,-3e-05,3e-05,0.00016,-6e-05,-6e-05,6,8
32994,0,2e-05,-0.00011,-3e-05,3e-05,0.00016,-6e-05,-6e-05,6,8
32995,0,2e-05,-0.00011,-3e-05,3e-05,0.00016,-6e-05,-6e-05,6,8
32996,0,2e-05,-0.00011,-3e-05,3e-05,0.00016,-6e-05,-6e-05,6,8
32997,0,2e-05,-0.00011,-3e-05,3e-05,0.00016,-6e-05,-6e-05,6,8
32998,0,2e-05,-0.00011,-3e-05,3e-05,0.00016,-6e-05,-6e-05,6,8
32999,0,2e-05,-0.00011,-3e-05,3e-05,0.00016,-6e-05,-6e-05,6,8
33000,0,2e-05,-0.00011,-3e-05,3e-05,0.00016,-6e-05,-6e-05,6,8
33001,0,2e-05,-0.00011,-3e-05,3e-05,0.00016,-6e-05,-6e-05,6,8
33002,0.00032,4e-05,2e-05,2e-05,0.00016,0.0002,0.00084,0.0007,6,8
33003,0.00032,4e-05,2e-05,2e-05,0.00016,0.0002,0.00084,0.0007,6,8
33004,2e-05,-1e-05,-1e-05,3e-05,0,0.00016,-9e-05,-0.0002,6,8
33005,2e-05,-1e-05,-1e-05,3e-05,0,0.00016,-9e-05,-0.0002,6,8
33006,2e-05,-1e-05,-1e-05,3e-05,0,0.00016,-9e-05,-0.0002,6,8
33007,2e-05,-1e-05,-1e-05,3e-05,0,0.00016,-9e-05,-0.0002,6,8
33008,2e-05,-1e-05,-1e-05,3e-05,0,0.00016,-9e-05,-0.0002,6,8
33009,2e-05,-1e-05,-1e-05,3e-05,0,0.00016,-9e-05,-0.0002,6,8
33010,2e-05,-1e-05,-1e-05,3e-05,0,0.00016,-9e-05,-0.0002,6,8
33011,2e-05,-1e-05,-1e-05,3e-05,0,0.00016,-9e-05,-0.0002,6,8
33012,2e-05,-1e-05,-1e-05,3e-05,0,0.00016,-9e-05,-0.0002,6,8
33013,2e-05,-1e-05,-1e-05,3e-05,0,0.00016,-9e-05,-0.0002,6,8
33014,2e-05,-1e-05,-1e-05,3e-05,0,0.00016,-9e-05,-0.0002,6,8
33015,2e-05,-1e-05,-1e-05,3e-05,0,0.00016,-9e-05,-0.0002,6,8
33016,2e-05,-1e-05,-1e-05,3e-05,0,0.00016,-9e-05,-0.0002,6,8
33017,2e-05,-1e-05,-1e-05,3e-05,0,0.00016,-9e-05,-0.0002,6,8
33018,2e-05,-1e-05,-1e-05,3e-05,0,0.00016,-9e-05,-0.0002,6,8
33019,2e-05,-1e-05,-1e-05,3e-05,0,0.00016,-9e-05,-0.0002,6,8
33020,2e-05,-1e-05,-1e-05,3e-05,0,0.00016,-9e-05,-0.0002,6,8
33021,2e-05,-1e-05,-1e-05,3e-05,0,0.00016,-9e-05,-0.0002,6,8
33022,2e-05,-1e-05,-1e-05,3e-05,0,0.00016,-9e-05,-0.0002,6,8
33023,2e-05,-1e-05,-1e-05,3e-05,0,0.00016,-9e-05,-0.0002,6,8
33024,2e-05,-1e-05,-1e-05,3e-05,0,0.00016,-9e-05,-0.0002,6,8
33025,2e-05,-1e-05,-1e-05,3e-05,0,0.00016,-9e-05,-0.0002,6,8
33026,2e-05,-1e-05,-1e-05,3e-05,0,0.00016,-9e-05,-0.0002,6,8
33027,2e-05,-1e-05,-1e-05,3e-05,0,0.00016,-9e-05,-0.0002,6,8
33028,2e-05,-1e-05,-1e-05,3e-05,0,0.00016,-9e-05,-0.0002,6,8
33029,2e-05,-1e-05,-1e-05,3e-05,0,0.00016,-9e-05,-0.0002,6,8
33030,2e-05,-1e-05,-1e-05,3e-05,0,0.00016,-9e-05,-0.0002,6,8
33031,2e-05,-1e-05,-1e-05,3e-05,0,0.00016,-9e-05,-0.0002,6,8
33032,0.00016,2e-05,3e-05,3e-05,-0.00028,0.0002,-5e-05,0.00024,6,8
33033,0.00016,2e-05,3e-05,3e-05,-0.00028,0.0002,-5e-05,0.00024,6,8
33034,-0.00018,-2e-05,-3e-05,-0.00014,-0.00036,0.00023,-0.0002,-0.0004,6,8
33035,-0.0001,-0.00011,1e-05,8e-05,0.0001,-0.00024,-0.00036,-0.00013,6,8
33036,-0.0001,-0.00011,1e-05,8e-05,0.0001,-0.00024,-0.00036,-0.00013,6,8
33038,-0.0001,-0.00011,1e-05,8e-05,0.0001,-0.00024,-0.00036,-0.00013,6,8
33040,-0.0001,-0.00011,1e-05,8e-05,0.0001,-0.00024,-0.00036,-0.00013,6,8
33041,-0.0001,-0.00011,1e-05,8e-05,0.0001,-0.00024,-0.00036,-0.00013,6,8
33042,-0.0001,-0.00011,1e-05,8e-05,0.0001,-0.00024,-0.00036,-0.00013,6,8
33043,-0.0001,-0.00011,1e-05,8e-05,0.0001,-0.00024,-0.00036,-0.00013,6,8
33044,-0.0001,-0.00011,1e-05,8e-05,0.0001,-0.00024,-0.00036,-0.00013,6,8
33045,-0.0001,-0.00011,1e-05,8e-05,0.0001,-0.00024,-0.00036,-0.00013,6,8
33046,-0.0001,-0.00011,1e-05,8e-05,0.0001,-0.00024,-0.00036,-0.00013,6,8
33047,-0.0001,-0.00011,1e-05,8e-05,0.0001,-0.00024,-0.00036,-0.00013,6,8
33048,-6e-05,0,2e-05,-3e-05,-0.00043,-0.0003,-0.00025,-0.00027,6,8
33049,-6e-05,0,2e-05,-3e-05,-0.00043,-0.0003,-0.00025,-0.00027,6,8
33050,-6e-05,0,2e-05,-3e-05,-0.00043,-0.0003,-0.00025,-0.00027,6,8
33051,-6e-05,0,2e-05,-3e-05,-0.00043,-0.0003,-0.00025,-0.00027,6,8
33052,-6e-05,0,2e-05,-3e-05,-0.00043,-0.0003,-0.00025,-0.00027,6,8
33053,-6e-05,0,2e-05,-3e-05,-0.00043,-0.0003,-0.00025,-0.00027,6,8
33054,-9e-05,2e-05,-2e-05,4e-05,0.00026,0.00033,-0.00031,0.00018,6,8
33055,-9e-05,2e-05,-2e-05,4e-05,0.00026,0.00033,-0.00031,0.00018,6,8
33056,0.00016,4e-05,5e-05,0.00013,-8e-05,7e-05,-0.00022,0.00057,6,8
33057,0.00016,4e-05,5e-05,0.00013,-8e-05,7e-05,-0.00022,0.00057,6,8
33058,0.00016,4e-05,5e-05,0.00013,-8e-05,7e-05,-0.00022,0.00057,6,8
33059,0.00016,4e-05,5e-05,0.00013,-8e-05,7e-05,-0.00022,0.00057,6,8
33060,0.00016,4e-05,5e-05,0.00013,-8e-05,7e-05,-0.00022,0.00057,6,8
33061,0.00016,4e-05,5e-05,0.00013,-8e-05,7e-05,-0.00022,0.00057,6,8
33062,0.00016,4e-05,5e-05,0.00013,-8e-05,7e-05,-0.00022,0.00057,6,8
33063,0.00016,4e-05,5e-05,0.00013,-8e-05,7e-05,-0.00022,0.00057,6,8
33064,0.00016,4e-05,5e-05,0.00013,-8e-05,7e-05,-0.00022,0.00057,6,8
33065,0.00016,4e-05,5e-05,0.00013,-8e-05,7e-05,-0.00022,0.00057,6,8
33066,0.00016,4e-05,5e-05,0.00013,-8e-05,7e-05,-0.00022,0.00057,6,8
33067,0.00016,4e-05,5e-05,0.00013,-8e-05,7e-05,-0.00022,0.00057,6,8
33068,0.00016,4e-05,5e-05,0.00013,-8e-05,7e-05,-0.00022,0.00057,6,8
33069,0.00016,4e-05,5e-05,0.00013,-8e-05,7e-05,-0.00022,0.00057,6,8
33070,0.00016,4e-05,5e-05,0.00013,-8e-05,7e-05,-0.00022,0.00057,6,8
33071,0.00016,4e-05,5e-05,0.00013,-8e-05,7e-05,-0.00022,0.00057,6,8
33072,0.00016,4e-05,5e-05,0.00013,-8e-05,7e-05,-0.00022,0.00057,6,8
33073,0.00016,4e-05,5e-05,0.00013,-8e-05,7e-05,-0.00022,0.00057,6,8
33074,0.00016,4e-05,5e-05,0.00013,-8e-05,7e-05,-0.00022,0.00057,6,8
33075,0.00016,4e-05,5e-05,0.00013,-8e-05,7e-05,-0.00022,0.00057,6,8
33076,0.00016,4e-05,5e-05,0.00013,-8e-05,7e-05,-0.00022,0.00057,6,8
33077,-0.00036,-3e-05,-4e-05,1e-05,3e-05,0.00012,-0.00028,-7e-05,6,8
33078,-0.00036,-3e-05,-4e-05,1e-05,3e-05,0.00012,-0.00028,-7e-05,6,8
33079,0.00018,4e-05,2e-05,1e-05,0.00036,0.0003,0.00026,-9e-05,6,8
33080,0.00018,4e-05,2e-05,1e-05,0.00036,0.0003,0.00026,-9e-05,6,8
33081,0.00018,4e-05,2e-05,1e-05,0.00036,0.0003,0.00026,-9e-05,6,8
33082,0.00018,4e-05,2e-05,1e-05,0.00036,0.0003,0.00026,-9e-05,6,8
33083,0.00018,4e-05,2e-05,1e-05,0.00036,0.0003,0.00026,-9e-05,6,8
33084,0.00018,4e-05,2e-05,1e-05,0.00036,0.0003,0.00026,-9e-05,6,8
33085,0.00018,4e-05,2e-05,1e-05,0.00036,0.0003,0.00026,-9e-05,6,8
33086,0.00018,4e-05,2e-05,1e-05,0.00036,0.0003,0.00026,-9e-05,6,8
33089,0.00018,4e-05,2e-05,1e-05,0.00036,0.0003,0.00026,-9e-05,6,8
33090,0.00018,4e-05,2e-05,1e-05,0.00036,0.0003,0.00026,-9e-05,6,8
33091,0.00018,4e-05,2e-05,1e-05,0.00036,0.0003,0.00026,-9e-05,6,8
33092,0.00018,4e-05,2e-05,1e-05,0.00036,0.0003,0.00026,-9e-05,6,8
33093,0.00018,4e-05,2e-05,1e-05,0.00036,0.0003,0.00026,-9e-05,6,8
33094,0.00018,4e-05,2e-05,1e-05,0.00036,0.0003,0.00026,-9e-05,6,8
33095,0.00018,4e-05,2e-05,1e-05,0.00036,0.0003,0.00026,-9e-05,6,8
33096,0.00018,4e-05,2e-05,1e-05,0.00036,0.0003,0.00026,-9e-05,6,8
33097,0.00018,4e-05,2e-05,1e-05,0.00036,0.0003,0.00026,-9e-05,6,8
33098,0.00018,4e-05,2e-05,1e-05,0.00036,0.0003,0.00026,-9e-05,6,8
33099,0.00018,4e-05,2e-05,1e-05,0.00036,0.0003,0.00026,-9e-05,6,8
33100,0.00018,4e-05,2e-05,1e-05,0.00036,0.0003,0.00026,-9e-05,6,8
33101,0.00018,4e-05,2e-05,1e-05,0.00036,0.0003,0.00026,-9e-05,6,8
33102,0.00018,4e-05,2e-05,1e-05,0.00036,0.0003,0.00026,-9e-05,6,8
33103,0.00018,4e-05,2e-05,1e-05,0.00036,0.0003,0.00026,-9e-05,6,8
33104,0.00018,4e-05,2e-05,1e-05,0.00036,0.0003,0.00026,-9e-05,6,8
33105,0.00018,4e-05,2e-05,1e-05,0.00036,0.0003,0.00026,-9e-05,6,8
33106,0.00018,4e-05,2e-05,1e-05,0.00036,0.0003,0.00026,-9e-05,6,8
33107,-2e-05,-1e-05,-4e-05,-3e-05,-0.00033,9e-05,0.0001,-0.0001,6,8
33108,-0.00063,-0.00012,-8e-05,-5e-05,0.00026,-0.0003,0.00019,0.00043,6,8
33109,-0.00063,-0.00012,-8e-05,-5e-05,0.00026,-0.0003,0.00019,0.00043,6,8
33110,-0.00063,-0.00012,-8e-05,-5e-05,0.00026,-0.0003,0.00019,0.00043,6,8
33111,-0.00063,-0.00012,-8e-05,-5e-05,0.00026,-0.0003,0.00019,0.00043,6,8
33112,-0.00063,-0.00012,-8e-05,-5e-05,0.00026,-0.0003,0.00019,0.00043,6,8
33113,-0.00063,-0.00012,-8e-05,-5e-05,0.00026,-0.0003,0.00019,0.00043,6,8
33114,-0.00063,-0.00012,-8e-05,-5e-05,0.00026,-0.0003,0.00019,0.00043,6,8
33115,-0.00063,-0.00012,-8e-05,-5e-05,0.00026,-0.0003,0.00019,0.00043,6,8
33116,-0.00063,-0.00012,-8e-05,-5e-05,0.00026,-0.0003,0.00019,0.00043,6,8
33117,-0.00063,-0.00012,-8e-05,-5e-05,0.00026,-0.0003,0.00019,0.00043,6,8
33118,-0.00063,-0.00012,-8e-05,-5e-05,0.00026,-0.0003,0.00019,0.00043,6,8
33119,-0.00063,-0.00012,-8e-05,-5e-05,0.00026,-0.0003,0.00019,0.00043,6,8
33120,-0.00063,-0.00012,-8e-05,-5e-05,0.00026,-0.0003,0.00019,0.00043,6,8
33121,-0.00063,-0.00012,-8e-05,-5e-05,0.00026,-0.0003,0.00019,0.00043,6,8
33122,-2e-05,0,-1e-05,-1e-05,0.0001,0.00014,-0.0001,-3e-05,6,8
33123,-2e-05,0,-1e-05,-1e-05,0.0001,0.00014,-0.0001,-3e-05,6,8
33124,0.00019,4e-05,2e-05,0.0001,4e-05,-0.00038,3e-05,-4e-05,6,8
33125,0.00019,4e-05,2e-05,0.0001,4e-05,-0.00038,3e-05,-4e-05,6,8
33126,0.00019,4e-05,2e-05,0.0001,4e-05,-0.00038,3e-05,-4e-05,6,8
33127,0.00019,4e-05,2e-05,0.0001,4e-05,-0.00038,3e-05,-4e-05,6,8
33128,0.00019,4e-05,2e-05,0.0001,4e-05,-0.00038,3e-05,-4e-05,6,8
33129,0.00019,4e-05,2e-05,0.0001,4e-05,-0.00038,3e-05,-4e-05,6,8
33130,0.00019,4e-05,2e-05,0.0001,4e-05,-0.00038,3e-05,-4e-05,6,8
33131,0.00019,4e-05,2e-05,0.0001,4e-05,-0.00038,3e-05,-4e-05,6,8
33132,0.00019,4e-05,2e-05,0.0001,4e-05,-0.00038,3e-05,-4e-05,6,8
33133,0.00019,4e-05,2e-05,0.0001,4e-05,-0.00038,3e-05,-4e-05,6,8
33134,0.00019,4e-05,2e-05,0.0001,4e-05,-0.00038,3e-05,-4e-05,6,8
33135,0.00019,4e-05,2e-05,0.0001,4e-05,-0.00038,3e-05,-4e-05,6,8
33136,0.00019,4e-05,2e-05,0.0001,4e-05,-0.00038,3e-05,-4e-05,6,8
33139,0.00014,-5e-05,-2e-05,-3e-05,-0.00018,-4e-05,0.00024,0.0007,6,8
33140,0.00014,-5e-05,-2e-05,-3e-05,-0.00018,-4e-05,0.00024,0.0007,6,8
33141,0.00014,-5e-05,-2e-05,-3e-05,-0.00018,-4e-05,0.00024,0.0007,6,8
33142,0.00014,-5e-05,-2e-05,-3e-05,-0.00018,-4e-05,0.00024,0.0007,6,8
33143,0.00014,-5e-05,-2e-05,-3e-05,-0.00018,-4e-05,0.00024,0.0007,6,8
33144,0.00014,-5e-05,-2e-05,-3e-05,-0.00018,-4e-05,0.00024,0.0007,6,8
33145,0.00014,-5e-05,-2e-05,-3e-05,-0.00018,-4e-05,0.00024,0.0007,6,8
33146,0.00014,-5e-05,-2e-05,-3e-05,-0.00018,-4e-05,0.00024,0.0007,6,8
33147,0.00014,-5e-05,-2e-05,-3e-05,-0.00018,-4e-05,0.00024,0.0007,6,8
33148,0.00014,-5e-05,-2e-05,-3e-05,-0.00018,-4e-05,0.00024,0.0007,6,8
33149,0.00014,-5e-05,-2e-05,-3e-05,-0.00018,-4e-05,0.00024,0.0007,6,8
33150,-0.00029,2e-05,1e-05,-7e-05,-0.00011,7e-05,-7e-05,-0.00012,6,8
33151,0.00017,4e-05,-2e-05,0,-7e-05,0.00041,-3e-05,-0.00046,6,8
33152,0.00017,4e-05,-2e-05,0,-7e-05,0.00041,-3e-05,-0.00046,6,8
33153,0.00017,4e-05,-2e-05,0,-7e-05,0.00041,-3e-05,-0.00046,6,8
33154,0.00017,4e-05,-2e-05,0,-7e-05,0.00041,-3e-05,-0.00046,6,8
33155,0.00017,4e-05,-2e-05,0,-7e-05,0.00041,-3e-05,-0.00046,6,8
33156,0.00017,4e-05,-2e-05,0,-7e-05,0.00041,-3e-05,-0.00046,6,8
33157,0.00017,4e-05,-2e-05,0,-7e-05,0.00041,-3e-05,-0.00046,6,8
33158,0.00017,4e-05,-2e-05,0,-7e-05,0.00041,-3e-05,-0.00046,6,8
33159,-6e-05,-1e-05,-2e-05,-1e-05,0.00044,0.00033,-8e-05,-0.00044,6,8
33160,-6e-05,-1e-05,-2e-05,-1e-05,0.00044,0.00033,-8e-05,-0.00044,6,8
33161,-6e-05,-1e-05,-2e-05,-1e-05,0.00044,0.00033,-8e-05,-0.00044,6,8
33162,-6e-05,-1e-05,-2e-05,-1e-05,0.00044,0.00033,-8e-05,-0.00044,6,8
33163,-6e-05,-1e-05,-2e-05,-1e-05,0.00044,0.00033,-8e-05,-0.00044,6,8
33164,-6e-05,-1e-05,-2e-05,-1e-05,0.00044,0.00033,-8e-05,-0.00044,6,8
33165,-6e-05,-1e-05,-2e-05,-1e-05,0.00044,0.00033,-8e-05,-0.00044,6,8
33166,-6e-05,-1e-05,-2e-05,-1e-05,0.00044,0.00033,-8e-05,-0.00044,6,8
33167,-6e-05,-1e-05,-2e-05,-1e-05,0.00044,0.00033,-8e-05,-0.00044,6,8
33168,-6e-05,-1e-05,-2e-05,-1e-05,0.00044,0.00033,-8e-05,-0.00044,6,8
33169,-6e-05,-1e-05,-2e-05,-1e-05,0.00044,0.00033,-8e-05,-0.00044,6,8
33170,-6e-05,-1e-05,-2e-05,-1e-05,0.00044,0.00033,-8e-05,-0.00044,6,8
33171,-6e-05,-1e-05,-2e-05,-1e-05,0.00044,0.00033,-8e-05,-0.00044,6,8
33172,-6e-05,-1e-05,-2e-05,-1e-05,0.00044,0.00033,-8e-05,-0.00044,6,8
33173,-6e-05,-1e-05,-2e-05,-1e-05,0.00044,0.00033,-8e-05,-0.00044,6,8
33174,-6e-05,-1e-05,-2e-05,-1e-05,0.00044,0.00033,-8e-05,-0.00044,6,8
33175,-6e-05,-1e-05,-2e-05,-1e-05,0.00044,0.00033,-8e-05,-0.00044,6,8
33176,1e-05,4e-05,-5e-05,-0.00016,-0.00023,-0.00042,-0.00012,-0.00037,6,8
33177,0,4e-05,0,3e-05,0.00023,-0.00017,-0.00016,-0.00033,6,8
33178,0,4e-05,0,3e-05,0.00023,-0.00017,-0.00016,-0.00033,6,8
33179,0,4e-05,0,3e-05,0.00023,-0.00017,-0.00016,-0.00033,6,8
33180,0,4e-05,0,3e-05,0.00023,-0.00017,-0.00016,-0.00033,6,8
33181,0,4e-05,0,3e-05,0.00023,-0.00017,-0.00016,-0.00033,6,8
33182,0,4e-05,0,3e-05,0.00023,-0.00017,-0.00016,-0.00033,6,8
33183,0,4e-05,0,3e-05,0.00023,-0.00017,-0.00016,-0.00033,6,8
33184,0,4e-05,0,3e-05,0.00023,-0.00017,-0.00016,-0.00033,6,8
33185,0,4e-05,0,3e-05,0.00023,-0.00017,-0.00016,-0.00033,6,8
33186,0,4e-05,0,3e-05,0.00023,-0.00017,-0.00016,-0.00033,6,8
33188,0,4e-05,0,3e-05,0.00023,-0.00017,-0.00016,-0.00033,6,8
33189,0,4e-05,0,3e-05,0.00023,-0.00017,-0.00016,-0.00033,6,8
33190,0,4e-05,0,3e-05,0.00023,-0.00017,-0.00016,-0.00033,6,8
33191,0,4e-05,0,3e-05,0.00023,-0.00017,-0.00016,-0.00033,6,8
33192,0,4e-05,0,3e-05,0.00023,-0.00017,-0.00016,-0.00033,6,8
33193,0,4e-05,0,3e-05,0.00023,-0.00017,-0.00016,-0.00033,6,8
33194,0,4e-05,0,3e-05,0.00023,-0.00017,-0.00016,-0.00033,6,8
33195,0,4e-05,0,3e-05,0.00023,-0.00017,-0.00016,-0.00033,6,8
33196,0,4e-05,0,3e-05,0.00023,-0.00017,-0.00016,-0.00033,6,8
33197,0,4e-05,0,3e-05,0.00023,-0.00017,-0.00016,-0.00033,6,8
33198,0,4e-05,0,3e-05,0.00023,-0.00017,-0.00016,-0.00033,6,8
33199,0,4e-05,0,3e-05,0.00023,-0.00017,-0.00016,-0.00033,6,8
33200,0,4e-05,0,3e-05,0.00023,-0.00017,-0.00016,-0.00033,6,8
33201,0,4e-05,0,3e-05,0.00023,-0.00017,-0.00016,-0.00033,6,8
33202,0,4e-05,0,3e-05,0.00023,-0.00017,-0.00016,-0.00033,6,8
33203,0,4e-05,0,3e-05,0.00023,-0.00017,-0.00016,-0.00033,6,8
33204,0,4e-05,0,3e-05,0.00023,-0.00017,-0.00016,-0.00033,6,8
33205,1e-05,0,-5e-05,-5e-05,4e-05,-0.00022,7e-05,4e-05,6,8
33206,0.00012,-3e-05,2e-05,8e-05,-0.00033,-0.00052,-0.00011,-0.00042,6,8
33207,0.00012,-3e-05,2e-05,8e-05,-0.00033,-0.00052,-0.00011,-0.00042,6,8
33208,0.00012,-3e-05,2e-05,8e-05,-0.00033,-0.00052,-0.00011,-0.00042,6,8
33209,0.00012,-3e-05,2e-05,8e-05,-0.00033,-0.00052,-0.00011,-0.00042,6,8
33210,0.00012,-3e-05,2e-05,8e-05,-0.00033,-0.00052,-0.00011,-0.00042,6,8
33211,0.00012,-3e-05,2e-05,8e-05,-0.00033,-0.00052,-0.00011,-0.00042,6,8
33212,0.00012,-3e-05,2e-05,8e-05,-0.00033,-0.00052,-0.00011,-0.00042,6,8
33213,0.00012,-3e-05,2e-05,8e-05,-0.00033,-0.00052,-0.00011,-0.00042,6,8
59686,-0.00041,-4e-05,-0.0001,-0.00021,-0.00027,-0.00058,-0.00078,-0.00128,6,8
59687,0.0002,4e-05,0.00032,0.00029,0.00088,0.0008,-0.00041,0.00051,6,8
59688,7e-05,4e-05,-2e-05,0.00018,0.00013,0.00089,0.00032,0.00013,6,8
59689,7e-05,4e-05,-2e-05,0.00018,0.00013,0.00089,0.00032,0.00013,6,8
59690,7e-05,4e-05,-2e-05,0.00018,0.00013,0.00089,0.00032,0.00013,6,8
59691,7e-05,4e-05,-2e-05,0.00018,0.00013,0.00089,0.00032,0.00013,6,8
59692,7e-05,4e-05,-2e-05,0.00018,0.00013,0.00089,0.00032,0.00013,6,8
59693,7e-05,4e-05,-2e-05,0.00018,0.00013,0.00089,0.00032,0.00013,6,8
59694,7e-05,4e-05,-2e-05,0.00018,0.00013,0.00089,0.00032,0.00013,6,8
59695,7e-05,4e-05,-2e-05,0.00018,0.00013,0.00089,0.00032,0.00013,6,8
59696,7e-05,4e-05,-2e-05,0.00018,0.00013,0.00089,0.00032,0.00013,6,8
59697,7e-05,4e-05,-2e-05,0.00018,0.00013,0.00089,0.00032,0.00013,6,8
59698,7e-05,4e-05,-2e-05,0.00018,0.00013,0.00089,0.00032,0.00013,6,8
59699,7e-05,4e-05,-2e-05,0.00018,0.00013,0.00089,0.00032,0.00013,6,8
59700,-0.00021,-0.0001,-0.00026,-0.00043,-0.00054,6e-05,0.00046,0.00022,6,8
59701,-0.00021,-0.0001,-0.00026,-0.00043,-0.00054,6e-05,0.00046,0.00022,6,8
59702,-0.00021,-0.0001,-0.00026,-0.00043,-0.00054,6e-05,0.00046,0.00022,6,8
59703,-0.00021,-0.0001,-0.00026,-0.00043,-0.00054,6e-05,0.00046,0.00022,6,8
59704,-0.00021,-0.0001,-0.00026,-0.00043,-0.00054,6e-05,0.00046,0.00022,6,8
59705,-0.00021,-0.0001,-0.00026,-0.00043,-0.00054,6e-05,0.00046,0.00022,6,8
59706,-0.00021,-0.0001,-0.00026,-0.00043,-0.00054,6e-05,0.00046,0.00022,6,8
59707,-0.00021,-0.0001,-0.00026,-0.00043,-0.00054,6e-05,0.00046,0.00022,6,8
59708,-0.00021,-0.0001,-0.00026,-0.00043,-0.00054,6e-05,0.00046,0.00022,6,8
59709,-0.00034,6e-05,0.00019,0.00028,0.00072,0.00042,-0.00043,-0.00038,6,8
59710,-0.00034,6e-05,0.00019,0.00028,0.00072,0.00042,-0.00043,-0.00038,6,8
59711,-0.00034,6e-05,0.00019,0.00028,0.00072,0.00042,-0.00043,-0.00038,6,8
59712,-0.00034,6e-05,0.00019,0.00028,0.00072,0.00042,-0.00043,-0.00038,6,8
59713,-0.00034,6e-05,0.00019,0.00028,0.00072,0.00042,-0.00043,-0.00038,6,8
59714,-0.00034,6e-05,0.00019,0.00028,0.00072,0.00042,-0.00043,-0.00038,6,8
59715,-0.00034,6e-05,0.00019,0.00028,0.00072,0.00042,-0.00043,-0.00038,6,8
59716,-0.00034,6e-05,0.00019,0.00028,0.00072,0.00042,-0.00043,-0.00038,6,8
59717,-0.00034,6e-05,0.00019,0.00028,0.00072,0.00042,-0.00043,-0.00038,6,8
59718,-0.00034,6e-05,0.00019,0.00028,0.00072,0.00042,-0.00043,-0.00038,6,8
59719,-0.00034,6e-05,0.00019,0.00028,0.00072,0.00042,-0.00043,-0.00038,6,8
59720,-0.00034,6e-05,0.00019,0.00028,0.00072,0.00042,-0.00043,-0.00038,6,8
59721,-0.00034,6e-05,0.00019,0.00028,0.00072,0.00042,-0.00043,-0.00038,6,8
59722,-0.00034,6e-05,0.00019,0.00028,0.00072,0.00042,-0.00043,-0.00038,6,8
59723,-0.00014,3e-05,0.00023,0.00024,0.00061,0.00043,0.00081,-0.00037,6,8
59724,-0.00014,3e-05,0.00023,0.00024,0.00061,0.00043,0.00081,-0.00037,6,8
59725,-0.00014,3e-05,0.00023,0.00024,0.00061,0.00043,0.00081,-0.00037,6,8
59726,-0.00014,3e-05,0.00023,0.00024,0.00061,0.00043,0.00081,-0.00037,6,8
59727,-0.00014,3e-05,0.00023,0.00024,0.00061,0.00043,0.00081,-0.00037,6,8
59728,-0.00014,3e-05,0.00023,0.00024,0.00061,0.00043,0.00081,-0.00037,6,8
59729,-0.00014,3e-05,0.00023,0.00024,0.00061,0.00043,0.00081,-0.00037,6,8
59730,6e-05,-3e-05,8e-05,-8e-05,-0.00041,-0.00031,0.00022,0.00014,6,8
59731,6e-05,-3e-05,8e-05,-8e-05,-0.00041,-0.00031,0.00022,0.00014,6,8
59732,6e-05,-3e-05,8e-05,-8e-05,-0.00041,-0.00031,0.00022,0.00014,6,8
59733,6e-05,-3e-05,8e-05,-8e-05,-0.00041,-0.00031,0.00022,0.00014,6,8
59734,6e-05,-3e-05,8e-05,-8e-05,-0.00041,-0.00031,0.00022,0.00014,6,8
59735,6e-05,-3e-05,8e-05,-8e-05,-0.00041,-0.00031,0.00022,0.00014,6,8
59736,6e-05,-3e-05,8e-05,-8e-05,-0.00041,-0.00031,0.00022,0.00014,6,8
59738,6e-05,-3e-05,8e-05,-8e-05,-0.00041,-0.00031,0.00022,0.00014,6,8
59739,6e-05,-3e-05,8e-05,-8e-05,-0.00041,-0.00031,0.00022,0.00014,6,8
59740,6e-05,-3e-05,8e-05,-8e-05,-0.00041,-0.00031,0.00022,0.00014,6,8
59741,6e-05,-3e-05,8e-05,-8e-05,-0.00041,-0.00031,0.00022,0.00014,6,8
59742,6e-05,-3e-05,8e-05,-8e-05,-0.00041,-0.00031,0.00022,0.00014,6,8
59743,6e-05,-3e-05,8e-05,-8e-05,-0.00041,-0.00031,0.00022,0.00014,6,8
59744,6e-05,-3e-05,8e-05,-8e-05,-0.00041,-0.00031,0.00022,0.00014,6,8
59745,6e-05,-3e-05,8e-05,-8e-05,-0.00041,-0.00031,0.00022,0.00014,6,8
59746,6e-05,-3e-05,8e-05,-8e-05,-0.00041,-0.00031,0.00022,0.00014,6,8
59747,-0.00011,2e-05,0.00012,0.00014,0.00057,0.0004,-0.0001,0.00051,6,8
59748,-0.00021,9e-05,0.0001,-3e-05,-0.00061,-0.00045,-0.00062,-0.00105,6,8
59749,-0.00021,9e-05,0.0001,-3e-05,-0.00061,-0.00045,-0.00062,-0.00105,6,8
59750,-0.00021,9e-05,0.0001,-3e-05,-0.00061,-0.00045,-0.00062,-0.00105,6,8
59751,-0.00021,9e-05,0.0001,-3e-05,-0.00061,-0.00045,-0.00062,-0.00105,6,8
59752,-0.00021,9e-05,0.0001,-3e-05,-0.00061,-0.00045,-0.00062,-0.00105,6,8
59753,-0.00021,9e-05,0.0001,-3e-05,-0.00061,-0.00045,-0.00062,-0.00105,6,8
59754,-0.00021,9e-05,0.0001,-3e-05,-0.00061,-0.00045,-0.00062,-0.00105,6,8
59755,-0.00021,9e-05,0.0001,-3e-05,-0.00061,-0.00045,-0.00062,-0.00105,6,8
59756,-0.00021,9e-05,0.0001,-3e-05,-0.00061,-0.00045,-0.00062,-0.00105,6,8
59757,-0.00021,9e-05,0.0001,-3e-05,-0.00061,-0.00045,-0.00062,-0.00105,6,8
59758,-0.00021,9e-05,0.0001,-3e-05,-0.00061,-0.00045,-0.00062,-0.00105,6,8
59759,-0.00021,9e-05,0.0001,-3e-05,-0.00061,-0.00045,-0.00062,-0.00105,6,8
59760,-0.00021,9e-05,0.0001,-3e-05,-0.00061,-0.00045,-0.00062,-0.00105,6,8
59761,-6e-05,-0.00022,-0.00015,0.00017,0.00045,-0.00014,0.0005,-0.00011,6,8
59762,-6e-05,-0.00022,-0.00015,0.00017,0.00045,-0.00014,0.0005,-0.00011,6,8
59763,-6e-05,-0.00022,-0.00015,0.00017,0.00045,-0.00014,0.0005,-0.00011,6,8
59764,-6e-05,-0.00022,-0.00015,0.00017,0.00045,-0.00014,0.0005,-0.00011,6,8
59765,-6e-05,-0.00022,-0.00015,0.00017,0.00045,-0.00014,0.0005,-0.00011,6,8
59766,-6e-05,-0.00022,-0.00015,0.00017,0.00045,-0.00014,0.0005,-0.00011,6,8
59767,-6e-05,-0.00022,-0.00015,0.00017,0.00045,-0.00014,0.0005,-0.00011,6,8
59768,-6e-05,-0.00022,-0.00015,0.00017,0.00045,-0.00014,0.0005,-0.00011,6,8
59769,-6e-05,-0.00022,-0.00015,0.00017,0.00045,-0.00014,0.0005,-0.00011,6,8
59770,0.00021,-0.00012,-7e-05,-7e-05,-9e-05,-0.00049,5e-05,0.00017,6,8
59771,0.00021,-0.00012,-7e-05,-7e-05,-9e-05,-0.00049,5e-05,0.00017,6,8
59772,0.00021,-0.00012,-7e-05,-7e-05,-9e-05,-0.00049,5e-05,0.00017,6,8
59773,0.00021,-0.00012,-7e-05,-7e-05,-9e-05,-0.00049,5e-05,0.00017,6,8
59774,0.00021,-0.00012,-7e-05,-7e-05,-9e-05,-0.00049,5e-05,0.00017,6,8
59775,0.00021,-0.00012,-7e-05,-7e-05,-9e-05,-0.00049,5e-05,0.00017,6,8
59776,0.00021,-0.00012,-7e-05,-7e-05,-9e-05,-0.00049,5e-05,0.00017,6,8
59777,0.00021,-0.00012,-7e-05,-7e-05,-9e-05,-0.00049,5e-05,0.00017,6,8
59778,0.00021,-0.00012,-7e-05,-7e-05,-9e-05,-0.00049,5e-05,0.00017,6,8
59779,0.00021,-0.00012,-7e-05,-7e-05,-9e-05,-0.00049,5e-05,0.00017,6,8
59780,0.00021,-0.00012,-7e-05,-7e-05,-9e-05,-0.00049,5e-05,0.00017,6,8
59781,0.00021,-0.00012,-7e-05,-7e-05,-9e-05,-0.00049,5e-05,0.00017,6,8
59782,0.00021,-0.00012,-7e-05,-7e-05,-9e-05,-0.00049,5e-05,0.00017,6,8
59783,0.00021,-0.00012,-7e-05,-7e-05,-9e-05,-0.00049,5e-05,0.00017,6,8
59784,-0.00016,-0.00011,-0.00011,-0.00033,-0.00128,-0.00073,-0.00018,-0.00059,6,8
59785,-0.00016,-0.00011,-0.00011,-0.00033,-0.00128,-0.00073,-0.00018,-0.00059,6,8
59787,0.00041,0.00022,0.00023,0.00017,0.00017,0.00047,-0.00013,5e-05,6,8
59789,0.00041,0.00022,0.00023,0.00017,0.00017,0.00047,-0.00013,5e-05,6,8
59790,0.00041,0.00022,0.00023,0.00017,0.00017,0.00047,-0.00013,5e-05,6,8
59791,0.00041,0.00022,0.00023,0.00017,0.00017,0.00047,-0.00013,5e-05,6,8
59792,0.00041,0.00022,0.00023,0.00017,0.00017,0.00047,-0.00013,5e-05,6,8
59793,0.00041,0.00022,0.00023,0.00017,0.00017,0.00047,-0.00013,5e-05,6,8
59794,0.00041,0.00022,0.00023,0.00017,0.00017,0.00047,-0.00013,5e-05,6,8
59795,0.00041,0.00022,0.00023,0.00017,0.00017,0.00047,-0.00013,5e-05,6,8
59796,0.00041,0.00022,0.00023,0.00017,0.00017,0.00047,-0.00013,5e-05,6,8
59797,0.00041,0.00022,0.00023,0.00017,0.00017,0.00047,-0.00013,5e-05,6,8
59798,0.00041,0.00022,0.00023,0.00017,0.00017,0.00047,-0.00013,5e-05,6,8
59799,0.00041,0.00022,0.00023,0.00017,0.00017,0.00047,-0.00013,5e-05,6,8
59800,0.00041,0.00022,0.00023,0.00017,0.00017,0.00047,-0.00013,5e-05,6,8
59801,0.00041,0.00022,0.00023,0.00017,0.00017,0.00047,-0.00013,5e-05,6,8
59802,0.00041,0.00022,0.00023,0.00017,0.00017,0.00047,-0.00013,5e-05,6,8
59803,0.00041,0.00022,0.00023,0.00017,0.00017,0.00047,-0.00013,5e-05,6,8
59804,0.00041,0.00022,0.00023,0.00017,0.00017,0.00047,-0.00013,5e-05,6,8
59805,0.00041,0.00022,0.00023,0.00017,0.00017,0.00047,-0.00013,5e-05,6,8
59806,0.00041,0.00022,0.00023,0.00017,0.00017,0.00047,-0.00013,5e-05,6,8
59807,-4e-05,6e-05,7e-05,8e-05,-0.0002,-0.0001,-0.00017,0.00019,6,8
59808,0.00011,-1e-05,0,-0.00012,-8e-05,-0.00033,0.0004,-0.00021,6,8
59809,0.00011,-1e-05,0,-0.00012,-8e-05,-0.00033,0.0004,-0.00021,6,8
59810,0.00011,-1e-05,0,-0.00012,-8e-05,-0.00033,0.0004,-0.00021,6,8
59811,0.00011,-1e-05,0,-0.00012,-8e-05,-0.00033,0.0004,-0.00021,6,8
59812,0.00011,-1e-05,0,-0.00012,-8e-05,-0.00033,0.0004,-0.00021,6,8
59813,0.00011,-1e-05,0,-0.00012,-8e-05,-0.00033,0.0004,-0.00021,6,8
59814,0.00011,-1e-05,0,-0.00012,-8e-05,-0.00033,0.0004,-0.00021,6,8
59815,0.00011,-1e-05,0,-0.00012,-8e-05,-0.00033,0.0004,-0.00021,6,8
59816,0.00011,-1e-05,0,-0.00012,-8e-05,-0.00033,0.0004,-0.00021,6,8
59817,0.00011,-1e-05,0,-0.00012,-8e-05,-0.00033,0.0004,-0.00021,6,8
59818,0.00011,-1e-05,0,-0.00012,-8e-05,-0.00033,0.0004,-0.00021,6,8
59819,0.00011,-1e-05,0,-0.00012,-8e-05,-0.00033,0.0004,-0.00021,6,8
59820,0.00011,-1e-05,0,-0.00012,-8e-05,-0.00033,0.0004,-0.00021,6,8
59821,0.00011,-1e-05,0,-0.00012,-8e-05,-0.00033,0.0004,-0.00021,6,8
59822,0.00011,-1e-05,0,-0.00012,-8e-05,-0.00033,0.0004,-0.00021,6,8
59823,0.00011,-1e-05,0,-0.00012,-8e-05,-0.00033,0.0004,-0.00021,6,8
59824,0.00011,-1e-05,0,-0.00012,-8e-05,-0.00033,0.0004,-0.00021,6,8
59825,0.00011,-1e-05,0,-0.00012,-8e-05,-0.00033,0.0004,-0.00021,6,8
59826,0.00011,-1e-05,0,-0.00012,-8e-05,-0.00033,0.0004,-0.00021,6,8
59827,0.00011,-1e-05,0,-0.00012,-8e-05,-0.00033,0.0004,-0.00021,6,8
59828,0.00011,-1e-05,0,-0.00012,-8e-05,-0.00033,0.0004,-0.00021,6,8
59829,0.00011,-1e-05,0,-0.00012,-8e-05,-0.00033,0.0004,-0.00021,6,8
59830,-0.00045,-0.00021,-0.00011,-0.00035,-0.00082,-0.00056,1e-05,-0.0006,6,8
59831,-0.00014,-0.00011,-7e-05,1e-05,0.00014,0.00015,-0.00055,-7e-05,6,8
59832,-0.00014,-0.00011,-7e-05,1e-05,0.00014,0.00015,-0.00055,-7e-05,6,8
59833,-0.00014,-0.00011,-7e-05,1e-05,0.00014,0.00015,-0.00055,-7e-05,6,8
59834,-0.00014,-0.00011,-7e-05,1e-05,0.00014,0.00015,-0.00055,-7e-05,6,8
59835,-0.00014,-0.00011,-7e-05,1e-05,0.00014,0.00015,-0.00055,-7e-05,6,8
59837,-0.00014,-0.00011,-7e-05,1e-05,0.00014,0.00015,-0.00055,-7e-05,6,8
59840,-0.00014,-0.00011,-7e-05,1e-05,0.00014,0.00015,-0.00055,-7e-05,6,8
59841,-0.00014,-0.00011,-7e-05,1e-05,0.00014,0.00015,-0.00055,-7e-05,6,8
59842,-0.00014,-0.00011,-7e-05,1e-05,0.00014,0.00015,-0.00055,-7e-05,6,8
59843,0,1e-05,-1e-05,1e-05,0.00031,0.00012,0.00026,-0.00022,6,8
59844,0,1e-05,-1e-05,1e-05,0.00031,0.00012,0.00026,-0.00022,6,8
59845,0,1e-05,-1e-05,1e-05,0.00031,0.00012,0.00026,-0.00022,6,8
59846,0,1e-05,-1e-05,1e-05,0.00031,0.00012,0.00026,-0.00022,6,8
59847,0,1e-05,-1e-05,1e-05,0.00031,0.00012,0.00026,-0.00022,6,8
59848,0,1e-05,-1e-05,1e-05,0.00031,0.00012,0.00026,-0.00022,6,8
59849,0,1e-05,-1e-05,1e-05,0.00031,0.00012,0.00026,-0.00022,6,8
59850,6e-05,4e-05,-4e-05,-5e-05,0.00012,0.00097,0.00068,0.00054,6,8
59851,6e-05,4e-05,-4e-05,-5e-05,0.00012,0.00097,0.00068,0.00054,6,8
59852,6e-05,4e-05,-4e-05,-5e-05,0.00012,0.00097,0.00068,0.00054,6,8
59853,6e-05,4e-05,-4e-05,-5e-05,0.00012,0.00097,0.00068,0.00054,6,8
59854,6e-05,4e-05,-4e-05,-5e-05,0.00012,0.00097,0.00068,0.00054,6,8
59855,6e-05,4e-05,-4e-05,-5e-05,0.00012,0.00097,0.00068,0.00054,6,8
