28015,2e-05,1e-05,1e-05,6e-05,0.00015,-0.00038,0.0002,-0.00083,6,9
28016,-5e-05,-4e-05,-3e-05,-0.0001,-0.00013,0.00044,-4e-05,-0.0004,6,9
28017,-5e-05,-4e-05,-3e-05,-0.0001,-0.00013,0.00044,-4e-05,-0.0004,6,9
28018,-5e-05,-4e-05,-3e-05,-0.0001,-0.00013,0.00044,-4e-05,-0.0004,6,9
28019,-5e-05,-4e-05,-3e-05,-0.0001,-0.00013,0.00044,-4e-05,-0.0004,6,9
28020,-5e-05,-4e-05,-3e-05,-0.0001,-0.00013,0.00044,-4e-05,-0.0004,6,9
28021,-5e-05,-4e-05,-3e-05,-0.0001,-0.00013,0.00044,-4e-05,-0.0004,6,9
28022,-5e-05,-4e-05,-3e-05,-0.0001,-0.00013,0.00044,-4e-05,-0.0004,6,9
28024,-5e-05,-4e-05,-3e-05,-0.0001,-0.00013,0.00044,-4e-05,-0.0004,6,9
28025,-5e-05,-4e-05,-3e-05,-0.0001,-0.00013,0.00044,-4e-05,-0.0004,6,9
28026,-5e-05,-4e-05,-3e-05,-0.0001,-0.00013,0.00044,-4e-05,-0.0004,6,9
28027,-5e-05,-4e-05,-3e-05,-0.0001,-0.00013,0.00044,-4e-05,-0.0004,6,9
28028,-5e-05,-4e-05,-3e-05,-0.0001,-0.00013,0.00044,-4e-05,-0.0004,6,9
28029,-5e-05,-4e-05,-3e-05,-0.0001,-0.00013,0.00044,-4e-05,-0.0004,6,9
28030,0,5e-05,2e-05,4e-05,-3e-05,7e-05,6e-05,-9e-05,6,9
28031,0,1e-05,5e-05,7e-05,0.00021,0.00065,0.00017,-0.00032,6,9
28032,0,1e-05,5e-05,7e-05,0.00021,0.00065,0.00017,-0.00032,6,9
28033,0,1e-05,5e-05,7e-05,0.00021,0.00065,0.00017,-0.00032,6,9
28034,0,1e-05,5e-05,7e-05,0.00021,0.00065,0.00017,-0.00032,6,9
28035,0,1e-05,5e-05,7e-05,0.00021,0.00065,0.00017,-0.00032,6,9
28036,0,1e-05,5e-05,7e-05,0.00021,0.00065,0.00017,-0.00032,6,9
28038,0,1e-05,5e-05,7e-05,0.00021,0.00065,0.00017,-0.00032,6,9
28040,0,1e-05,5e-05,7e-05,0.00021,0.00065,0.00017,-0.00032,6,9
28041,0,1e-05,5e-05,7e-05,0.00021,0.00065,0.00017,-0.00032,6,9
28042,0,1e-05,5e-05,7e-05,0.00021,0.00065,0.00017,-0.00032,6,9
28043,0,1e-05,5e-05,7e-05,0.00021,0.00065,0.00017,-0.00032,6,9
28044,0,1e-05,5e-05,7e-05,0.00021,0.00065,0.00017,-0.00032,6,9
28045,0,1e-05,5e-05,7e-05,0.00021,0.00065,0.00017,-0.00032,6,9
28046,0,1e-05,5e-05,7e-05,0.00021,0.00065,0.00017,-0.00032,6,9
28047,0,1e-05,5e-05,7e-05,0.00021,0.00065,0.00017,-0.00032,6,9
28048,0,1e-05,5e-05,7e-05,0.00021,0.00065,0.00017,-0.00032,6,9
28049,0,1e-05,5e-05,7e-05,0.00021,0.00065,0.00017,-0.00032,6,9
28050,0,1e-05,5e-05,7e-05,0.00021,0.00065,0.00017,-0.00032,6,9
28051,0,1e-05,5e-05,7e-05,0.00021,0.00065,0.00017,-0.00032,6,9
28052,0,1e-05,5e-05,7e-05,0.00021,0.00065,0.00017,-0.00032,6,9
28053,0,1e-05,5e-05,7e-05,0.00021,0.00065,0.00017,-0.00032,6,9
28054,0.00011,5e-05,7e-05,-3e-05,-0.00025,-0.0001,-0.00049,8e-05,6,9
28055,-0.00034,4e-05,6e-05,-3e-05,2e-05,0.00024,9e-05,-0.00128,6,9
28056,-0.00034,4e-05,6e-05,-3e-05,2e-05,0.00024,9e-05,-0.00128,6,9
28057,-0.00034,4e-05,6e-05,-3e-05,2e-05,0.00024,9e-05,-0.00128,6,9
28058,-0.00034,4e-05,6e-05,-3e-05,2e-05,0.00024,9e-05,-0.00128,6,9
28059,-0.00034,4e-05,6e-05,-3e-05,2e-05,0.00024,9e-05,-0.00128,6,9
28060,-0.00034,4e-05,6e-05,-3e-05,2e-05,0.00024,9e-05,-0.00128,6,9
28061,-0.00034,4e-05,6e-05,-3e-05,2e-05,0.00024,9e-05,-0.00128,6,9
28062,-0.00034,4e-05,6e-05,-3e-05,2e-05,0.00024,9e-05,-0.00128,6,9
28064,-0.00034,4e-05,6e-05,-3e-05,2e-05,0.00024,9e-05,-0.00128,6,9
28065,-0.00034,4e-05,6e-05,-3e-05,2e-05,0.00024,9e-05,-0.00128,6,9
28066,-0.00034,4e-05,6e-05,-3e-05,2e-05,0.00024,9e-05,-0.00128,6,9
28067,-0.00034,4e-05,6e-05,-3e-05,2e-05,0.00024,9e-05,-0.00128,6,9
28068,-0.00034,4e-05,6e-05,-3e-05,2e-05,0.00024,9e-05,-0.00128,6,9
28069,-0.00034,4e-05,6e-05,-3e-05,2e-05,0.00024,9e-05,-0.00128,6,9
28070,-0.00034,4e-05,6e-05,-3e-05,2e-05,0.00024,9e-05,-0.00128,6,9
28071,-0.00034,4e-05,6e-05,-3e-05,2e-05,0.00024,9e-05,-0.00128,6,9
28072,-0.00034,4e-05,6e-05,-3e-05,2e-05,0.00024,9e-05,-0.00128,6,9
28073,-0.00034,4e-05,6e-05,-3e-05,2e-05,0.00024,9e-05,-0.00128,6,9
28074,-0.00034,4e-05,6e-05,-3e-05,2e-05,0.00024,9e-05,-0.00128,6,9
28075,-0.00034,4e-05,6e-05,-3e-05,2e-05,0.00024,9e-05,-0.00128,6,9
28076,-2e-05,3e-05,4e-05,-5e-05,-0.00041,-0.0007,-0.0002,-1e-05,6,9
28077,0.00022,2e-05,1e-05,5e-05,3e-05,-0.00017,-0.00035,0.00015,6,9
28078,0.00022,2e-05,1e-05,5e-05,3e-05,-0.00017,-0.00035,0.00015,6,9
28079,0.00022,2e-05,1e-05,5e-05,3e-05,-0.00017,-0.00035,0.00015,6,9
28080,0.00022,2e-05,1e-05,5e-05,3e-05,-0.00017,-0.00035,0.00015,6,9
28081,0.00022,2e-05,1e-05,5e-05,3e-05,-0.00017,-0.00035,0.00015,6,9
28082,0.00022,2e-05,1e-05,5e-05,3e-05,-0.00017,-0.00035,0.00015,6,9
28083,0.00022,2e-05,1e-05,5e-05,3e-05,-0.00017,-0.00035,0.00015,6,9
28084,0.00022,2e-05,1e-05,5e-05,3e-05,-0.00017,-0.00035,0.00015,6,9
28085,0.00022,2e-05,1e-05,5e-05,3e-05,-0.00017,-0.00035,0.00015,6,9
28086,0.00022,2e-05,1e-05,5e-05,3e-05,-0.00017,-0.00035,0.00015,6,9
28088,0.00022,2e-05,1e-05,5e-05,3e-05,-0.00017,-0.00035,0.00015,6,9
28089,0.00022,2e-05,1e-05,5e-05,3e-05,-0.00017,-0.00035,0.00015,6,9
28090,0.00022,2e-05,1e-05,5e-05,3e-05,-0.00017,-0.00035,0.00015,6,9
28091,0.00022,2e-05,1e-05,5e-05,3e-05,-0.00017,-0.00035,0.00015,6,9
28092,0.00022,2e-05,1e-05,5e-05,3e-05,-0.00017,-0.00035,0.00015,6,9
28093,0.00022,2e-05,1e-05,5e-05,3e-05,-0.00017,-0.00035,0.00015,6,9
28094,0.00022,2e-05,1e-05,5e-05,3e-05,-0.00017,-0.00035,0.00015,6,9
28095,0.00022,2e-05,1e-05,5e-05,3e-05,-0.00017,-0.00035,0.00015,6,9
28096,0.00022,2e-05,1e-05,5e-05,3e-05,-0.00017,-0.00035,0.00015,6,9
28097,0.00022,2e-05,1e-05,5e-05,3e-05,-0.00017,-0.00035,0.00015,6,9
28098,7e-05,-6e-05,0,-1e-05,0.00035,0.00019,-0.00033,0.00012,6,9
28099,-0.0001,0,2e-05,-3e-05,-9e-05,6e-05,0.00018,-0.00013,6,9
28100,-0.0001,0,2e-05,-3e-05,-9e-05,6e-05,0.00018,-0.00013,6,9
28101,-0.0001,0,2e-05,-3e-05,-9e-05,6e-05,0.00018,-0.00013,6,9
28102,-0.0001,0,2e-05,-3e-05,-9e-05,6e-05,0.00018,-0.00013,6,9
28104,-0.0001,0,2e-05,-3e-05,-9e-05,6e-05,0.00018,-0.00013,6,9
28105,-0.0001,0,2e-05,-3e-05,-9e-05,6e-05,0.00018,-0.00013,6,9
28106,-0.0001,0,2e-05,-3e-05,-9e-05,6e-05,0.00018,-0.00013,6,9
28107,-0.0001,0,2e-05,-3e-05,-9e-05,6e-05,0.00018,-0.00013,6,9
28108,-0.0001,0,2e-05,-3e-05,-9e-05,6e-05,0.00018,-0.00013,6,9
28109,-0.0001,0,2e-05,-3e-05,-9e-05,6e-05,0.00018,-0.00013,6,9
28110,-0.0001,0,2e-05,-3e-05,-9e-05,6e-05,0.00018,-0.00013,6,9
28111,-0.0001,0,2e-05,-3e-05,-9e-05,6e-05,0.00018,-0.00013,6,9
28112,-0.0001,0,2e-05,-3e-05,-9e-05,6e-05,0.00018,-0.00013,6,9
28114,-0.0001,0,2e-05,-3e-05,-9e-05,6e-05,0.00018,-0.00013,6,9
28115,-0.0001,0,2e-05,-3e-05,-9e-05,6e-05,0.00018,-0.00013,6,9
28116,-0.0001,0,2e-05,-3e-05,-9e-05,6e-05,0.00018,-0.00013,6,9
28117,-0.0001,0,2e-05,-3e-05,-9e-05,6e-05,0.00018,-0.00013,6,9
28118,-0.0001,0,2e-05,-3e-05,-9e-05,6e-05,0.00018,-0.00013,6,9
28119,-0.0001,0,2e-05,-3e-05,-9e-05,6e-05,0.00018,-0.00013,6,9
28120,-0.0001,0,2e-05,-3e-05,-9e-05,6e-05,0.00018,-0.00013,6,9
28121,-0.00015,-4e-05,-4e-05,-0.00013,-0.00023,-0.00013,-0.00019,-0.00055,6,9
28122,8e-05,-2e-05,1e-05,0.0001,0.00039,0.00019,0.0001,0.00125,6,9
28123,8e-05,-2e-05,1e-05,0.0001,0.00039,0.00019,0.0001,0.00125,6,9
28124,8e-05,-2e-05,1e-05,0.0001,0.00039,0.00019,0.0001,0.00125,6,9
28125,8e-05,-2e-05,1e-05,0.0001,0.00039,0.00019,0.0001,0.00125,6,9
28126,8e-05,-2e-05,1e-05,0.0001,0.00039,0.00019,0.0001,0.00125,6,9
28127,8e-05,-2e-05,1e-05,0.0001,0.00039,0.00019,0.0001,0.00125,6,9
28128,8e-05,-2e-05,1e-05,0.0001,0.00039,0.00019,0.0001,0.00125,6,9
28129,8e-05,-2e-05,1e-05,0.0001,0.00039,0.00019,0.0001,0.00125,6,9
28130,8e-05,-2e-05,1e-05,0.0001,0.00039,0.00019,0.0001,0.00125,6,9
28131,8e-05,-2e-05,1e-05,0.0001,0.00039,0.00019,0.0001,0.00125,6,9
28132,8e-05,-2e-05,1e-05,0.0001,0.00039,0.00019,0.0001,0.00125,6,9
28133,8e-05,-2e-05,1e-05,0.0001,0.00039,0.00019,0.0001,0.00125,6,9
28134,8e-05,-2e-05,1e-05,0.0001,0.00039,0.00019,0.0001,0.00125,6,9
28135,8e-05,-2e-05,1e-05,0.0001,0.00039,0.00019,0.0001,0.00125,6,9
28136,8e-05,-2e-05,1e-05,0.0001,0.00039,0.00019,0.0001,0.00125,6,9
28139,-1e-05,1e-05,-5e-05,1e-05,-0.00015,0.00032,0.0002,0.00013,6,9
28140,-2e-05,-7e-05,-4e-05,-0.00014,-0.00029,-0.00113,-0.00038,-0.00028,6,9
28141,-2e-05,-7e-05,-4e-05,-0.00014,-0.00029,-0.00113,-0.00038,-0.00028,6,9
28142,-2e-05,-7e-05,-4e-05,-0.00014,-0.00029,-0.00113,-0.00038,-0.00028,6,9
28143,-2e-05,-7e-05,-4e-05,-0.00014,-0.00029,-0.00113,-0.00038,-0.00028,6,9
28144,-2e-05,-7e-05,-4e-05,-0.00014,-0.00029,-0.00113,-0.00038,-0.00028,6,9
28145,-2e-05,-7e-05,-4e-05,-0.00014,-0.00029,-0.00113,-0.00038,-0.00028,6,9
28146,-2e-05,-7e-05,-4e-05,-0.00014,-0.00029,-0.00113,-0.00038,-0.00028,6,9
28147,-2e-05,-7e-05,-4e-05,-0.00014,-0.00029,-0.00113,-0.00038,-0.00028,6,9
28148,-2e-05,-7e-05,-4e-05,-0.00014,-0.00029,-0.00113,-0.00038,-0.00028,6,9
28149,-2e-05,-7e-05,-4e-05,-0.00014,-0.00029,-0.00113,-0.00038,-0.00028,6,9
28150,-0.0003,-7e-05,2e-05,0,-4e-05,-0.0007,-0.00038,0.00024,6,9
28151,-0.0003,-7e-05,2e-05,0,-4e-05,-0.0007,-0.00038,0.00024,6,9
28152,-0.0003,-7e-05,2e-05,0,-4e-05,-0.0007,-0.00038,0.00024,6,9
28153,-0.0003,-7e-05,2e-05,0,-4e-05,-0.0007,-0.00038,0.00024,6,9
28154,-0.0003,-7e-05,2e-05,0,-4e-05,-0.0007,-0.00038,0.00024,6,9
28155,-0.0003,-7e-05,2e-05,0,-4e-05,-0.0007,-0.00038,0.00024,6,9
28156,-0.0003,-7e-05,2e-05,0,-4e-05,-0.0007,-0.00038,0.00024,6,9
28157,-0.0003,-7e-05,2e-05,0,-4e-05,-0.0007,-0.00038,0.00024,6,9
28158,-0.0003,-7e-05,2e-05,0,-4e-05,-0.0007,-0.00038,0.00024,6,9
28159,-0.0003,-7e-05,2e-05,0,-4e-05,-0.0007,-0.00038,0.00024,6,9
28160,-0.0003,-7e-05,2e-05,0,-4e-05,-0.0007,-0.00038,0.00024,6,9
28161,-0.0003,-7e-05,2e-05,0,-4e-05,-0.0007,-0.00038,0.00024,6,9
28162,-0.0003,-7e-05,2e-05,0,-4e-05,-0.0007,-0.00038,0.00024,6,9
28163,-0.0003,-7e-05,2e-05,0,-4e-05,-0.0007,-0.00038,0.00024,6,9
28164,-0.0003,-7e-05,2e-05,0,-4e-05,-0.0007,-0.00038,0.00024,6,9
28165,-0.0003,-7e-05,2e-05,0,-4e-05,-0.0007,-0.00038,0.00024,6,9
28166,-0.0003,-7e-05,2e-05,0,-4e-05,-0.0007,-0.00038,0.00024,6,9
28167,-0.0003,-7e-05,2e-05,0,-4e-05,-0.0007,-0.00038,0.00024,6,9
28168,-0.0003,-7e-05,2e-05,0,-4e-05,-0.0007,-0.00038,0.00024,6,9
28169,-0.0003,-7e-05,2e-05,0,-4e-05,-0.0007,-0.00038,0.00024,6,9
28170,-0.0003,-7e-05,2e-05,0,-4e-05,-0.0007,-0.00038,0.00024,6,9
28171,-0.0003,-7e-05,2e-05,0,-4e-05,-0.0007,-0.00038,0.00024,6,9
28172,-0.0003,-7e-05,2e-05,0,-4e-05,-0.0007,-0.00038,0.00024,6,9
28173,-0.00022,-6e-05,-7e-05,-0.00013,-0.0001,-0.00012,0.00012,-0.00035,6,9
28174,0.00011,1e-05,-7e-05,-1e-05,-6e-05,-0.00035,-4e-05,-0.00049,6,9
28175,0.00011,1e-05,-7e-05,-1e-05,-6e-05,-0.00035,-4e-05,-0.00049,6,9
28176,0.00011,1e-05,-7e-05,-1e-05,-6e-05,-0.00035,-4e-05,-0.00049,6,9
28177,0.00011,1e-05,-7e-05,-1e-05,-6e-05,-0.00035,-4e-05,-0.00049,6,9
28178,0.00011,1e-05,-7e-05,-1e-05,-6e-05,-0.00035,-4e-05,-0.00049,6,9
28179,0.00011,1e-05,-7e-05,-1e-05,-6e-05,-0.00035,-4e-05,-0.00049,6,9
28180,0.00011,1e-05,-7e-05,-1e-05,-6e-05,-0.00035,-4e-05,-0.00049,6,9
28181,0.00011,1e-05,-7e-05,-1e-05,-6e-05,-0.00035,-4e-05,-0.00049,6,9
28182,0.00011,1e-05,-7e-05,-1e-05,-6e-05,-0.00035,-4e-05,-0.00049,6,9
28183,0.00011,1e-05,-7e-05,-1e-05,-6e-05,-0.00035,-4e-05,-0.00049,6,9
28184,0.00011,1e-05,-7e-05,-1e-05,-6e-05,-0.00035,-4e-05,-0.00049,6,9
28185,0.00011,1e-05,-7e-05,-1e-05,-6e-05,-0.00035,-4e-05,-0.00049,6,9
28187,0.00011,1e-05,-7e-05,-1e-05,-6e-05,-0.00035,-4e-05,-0.00049,6,9
28189,0.00011,1e-05,-7e-05,-1e-05,-6e-05,-0.00035,-4e-05,-0.00049,6,9
28190,0.00011,1e-05,-7e-05,-1e-05,-6e-05,-0.00035,-4e-05,-0.00049,6,9
28191,0.00011,1e-05,-7e-05,-1e-05,-6e-05,-0.00035,-4e-05,-0.00049,6,9
28192,0.00011,1e-05,-7e-05,-1e-05,-6e-05,-0.00035,-4e-05,-0.00049,6,9
28193,0.00011,1e-05,-7e-05,-1e-05,-6e-05,-0.00035,-4e-05,-0.00049,6,9
28194,0.00011,1e-05,-7e-05,-1e-05,-6e-05,-0.00035,-4e-05,-0.00049,6,9
28195,-0.00014,3e-05,2e-05,9e-05,0.00041,0.00053,8e-05,-0.00119,6,9
28196,0.00034,6e-05,2e-05,-4e-05,-0.00026,-0.0005,0.0001,0.00098,6,9
28197,0.00034,6e-05,2e-05,-4e-05,-0.00026,-0.0005,0.0001,0.00098,6,9
28198,0.00034,6e-05,2e-05,-4e-05,-0.00026,-0.0005,0.0001,0.00098,6,9
28199,0.00034,6e-05,2e-05,-4e-05,-0.00026,-0.0005,0.0001,0.00098,6,9
28200,0.00034,6e-05,2e-05,-4e-05,-0.00026,-0.0005,0.0001,0.00098,6,9
28201,0.00034,6e-05,2e-05,-4e-05,-0.00026,-0.0005,0.0001,0.00098,6,9
28202,0.00034,6e-05,2e-05,-4e-05,-0.00026,-0.0005,0.0001,0.00098,6,9
28203,0.00034,6e-05,2e-05,-4e-05,-0.00026,-0.0005,0.0001,0.00098,6,9
28204,0.00034,6e-05,2e-05,-4e-05,-0.00026,-0.0005,0.0001,0.00098,6,9
28205,0.00034,6e-05,2e-05,-4e-05,-0.00026,-0.0005,0.0001,0.00098,6,9
28206,0.00034,6e-05,2e-05,-4e-05,-0.00026,-0.0005,0.0001,0.00098,6,9
28207,0.00034,6e-05,2e-05,-4e-05,-0.00026,-0.0005,0.0001,0.00098,6,9
28208,0.00034,6e-05,2e-05,-4e-05,-0.00026,-0.0005,0.0001,0.00098,6,9
28209,0.00034,6e-05,2e-05,-4e-05,-0.00026,-0.0005,0.0001,0.00098,6,9
28210,0.00011,3e-05,-4e-05,1e-05,0.00037,-0.00027,0.00033,0.00043,6,9
28211,0.00028,2e-05,-1e-05,3e-05,5e-05,0.00023,-0.00038,0.00084,6,9
28212,0.00028,2e-05,-1e-05,3e-05,5e-05,0.00023,-0.00038,0.00084,6,9
28213,0.00028,2e-05,-1e-05,3e-05,5e-05,0.00023,-0.00038,0.00084,6,9
28214,0.00028,2e-05,-1e-05,3e-05,5e-05,0.00023,-0.00038,0.00084,6,9
28215,0.00028,2e-05,-1e-05,3e-05,5e-05,0.00023,-0.00038,0.00084,6,9
28216,0.00028,2e-05,-1e-05,3e-05,5e-05,0.00023,-0.00038,0.00084,6,9
28217,0.00028,2e-05,-1e-05,3e-05,5e-05,0.00023,-0.00038,0.00084,6,9
28218,0.00028,2e-05,-1e-05,3e-05,5e-05,0.00023,-0.00038,0.00084,6,9
28219,0.00028,2e-05,-1e-05,3e-05,5e-05,0.00023,-0.00038,0.00084,6,9
28220,0.00028,2e-05,-1e-05,3e-05,5e-05,0.00023,-0.00038,0.00084,6,9
28221,0.00028,2e-05,-1e-05,3e-05,5e-05,0.00023,-0.00038,0.00084,6,9
28222,0.00028,2e-05,-1e-05,3e-05,5e-05,0.00023,-0.00038,0.00084,6,9
28224,0.00028,2e-05,-1e-05,3e-05,5e-05,0.00023,-0.00038,0.00084,6,9
28225,0.00028,2e-05,-1e-05,3e-05,5e-05,0.00023,-0.00038,0.00084,6,9
28226,0.00028,2e-05,-1e-05,3e-05,5e-05,0.00023,-0.00038,0.00084,6,9
28227,0.00028,2e-05,-1e-05,3e-05,5e-05,0.00023,-0.00038,0.00084,6,9
28228,0.00028,2e-05,-1e-05,3e-05,5e-05,0.00023,-0.00038,0.00084,6,9
28229,0.00028,2e-05,-1e-05,3e-05,5e-05,0.00023,-0.00038,0.00084,6,9
28230,0.00028,2e-05,-1e-05,3e-05,5e-05,0.00023,-0.00038,0.00084,6,9
28231,0.00028,2e-05,-1e-05,3e-05,5e-05,0.00023,-0.00038,0.00084,6,9
28232,0.00028,2e-05,-1e-05,3e-05,5e-05,0.00023,-0.00038,0.00084,6,9
28233,0.00016,4e-05,4e-05,0.00016,4e-05,0.00025,0.0006,0.00089,6,9
28234,2e-05,-1e-05,-3e-05,0,0.00027,0.00031,1e-05,-0.00025,6,9
28235,2e-05,-1e-05,-3e-05,0,0.00027,0.00031,1e-05,-0.00025,6,9
28237,2e-05,-1e-05,-3e-05,0,0.00027,0.00031,1e-05,-0.00025,6,9
28239,2e-05,-1e-05,-3e-05,0,0.00027,0.00031,1e-05,-0.00025,6,9
28241,2e-05,-1e-05,-3e-05,0,0.00027,0.00031,1e-05,-0.00025,6,9
28242,2e-05,-1e-05,-3e-05,0,0.00027,0.00031,1e-05,-0.00025,6,9
28244,2e-05,-1e-05,-3e-05,0,0.00027,0.00031,1e-05,-0.00025,6,9
28245,2e-05,-1e-05,-3e-05,0,0.00027,0.00031,1e-05,-0.00025,6,9
28246,2e-05,-1e-05,-3e-05,0,0.00027,0.00031,1e-05,-0.00025,6,9
28247,2e-05,-1e-05,-3e-05,0,0.00027,0.00031,1e-05,-0.00025,6,9
28248,2e-05,-1e-05,-3e-05,0,0.00027,0.00031,1e-05,-0.00025,6,9
28250,2e-05,-1e-05,-3e-05,0,0.00027,0.00031,1e-05,-0.00025,6,9
28251,2e-05,-1e-05,-3e-05,0,0.00027,0.00031,1e-05,-0.00025,6,9
28252,2e-05,-1e-05,-3e-05,0,0.00027,0.00031,1e-05,-0.00025,6,9
28253,2e-05,-1e-05,-3e-05,0,0.00027,0.00031,1e-05,-0.00025,6,9
28254,2e-05,-1e-05,-3e-05,0,0.00027,0.00031,1e-05,-0.00025,6,9
28255,-4e-05,-2e-05,-8e-05,-4e-05,-7e-05,-0.00031,0.00017,-0.00017,6,9
28256,-3e-05,8e-05,8e-05,0.00013,0.00038,-9e-05,1e-05,-0.00043,6,9
28257,-3e-05,8e-05,8e-05,0.00013,0.00038,-9e-05,1e-05,-0.00043,6,9
28258,-3e-05,8e-05,8e-05,0.00013,0.00038,-9e-05,1e-05,-0.00043,6,9
28259,-3e-05,8e-05,8e-05,0.00013,0.00038,-9e-05,1e-05,-0.00043,6,9
28260,-3e-05,8e-05,8e-05,0.00013,0.00038,-9e-05,1e-05,-0.00043,6,9
28261,-3e-05,8e-05,8e-05,0.00013,0.00038,-9e-05,1e-05,-0.00043,6,9
28262,-3e-05,8e-05,8e-05,0.00013,0.00038,-9e-05,1e-05,-0.00043,6,9
28263,-3e-05,8e-05,8e-05,0.00013,0.00038,-9e-05,1e-05,-0.00043,6,9
28264,-3e-05,8e-05,8e-05,0.00013,0.00038,-9e-05,1e-05,-0.00043,6,9
28265,-3e-05,8e-05,8e-05,0.00013,0.00038,-9e-05,1e-05,-0.00043,6,9
28266,-3e-05,8e-05,8e-05,0.00013,0.00038,-9e-05,1e-05,-0.00043,6,9
28267,-3e-05,8e-05,8e-05,0.00013,0.00038,-9e-05,1e-05,-0.00043,6,9
28268,-3e-05,8e-05,8e-05,0.00013,0.00038,-9e-05,1e-05,-0.00043,6,9
28269,-3e-05,8e-05,8e-05,0.00013,0.00038,-9e-05,1e-05,-0.00043,6,9
28270,-0.00015,-7e-05,-2e-05,-6e-05,-4e-05,2e-05,-3e-05,-0.00011,6,9
28271,-0.00015,-7e-05,-2e-05,-6e-05,-4e-05,2e-05,-3e-05,-0.00011,6,9
28272,-0.00015,-7e-05,-2e-05,-6e-05,-4e-05,2e-05,-3e-05,-0.00011,6,9
28273,-0.00015,-7e-05,-2e-05,-6e-05,-4e-05,2e-05,-3e-05,-0.00011,6,9
28274,-0.00015,-7e-05,-2e-05,-6e-05,-4e-05,2e-05,-3e-05,-0.00011,6,9
28275,-0.00015,-7e-05,-2e-05,-6e-05,-4e-05,2e-05,-3e-05,-0.00011,6,9
28276,-0.00015,-7e-05,-2e-05,-6e-05,-4e-05,2e-05,-3e-05,-0.00011,6,9
28277,-0.00021,-5e-05,-2e-05,5e-05,0.00018,0.00073,0.00027,-0.00063,6,9
28278,-0.00021,-5e-05,-2e-05,5e-05,0.00018,0.00073,0.00027,-0.00063,6,9
28279,-0.00021,-5e-05,-2e-05,5e-05,0.00018,0.00073,0.00027,-0.00063,6,9
28280,-0.00021,-5e-05,-2e-05,5e-05,0.00018,0.00073,0.00027,-0.00063,6,9
28281,-0.00021,-5e-05,-2e-05,5e-05,0.00018,0.00073,0.00027,-0.00063,6,9
28282,-0.00021,-5e-05,-2e-05,5e-05,0.00018,0.00073,0.00027,-0.00063,6,9
28283,-0.00021,-5e-05,-2e-05,5e-05,0.00018,0.00073,0.00027,-0.00063,6,9
28284,-0.00021,-5e-05,-2e-05,5e-05,0.00018,0.00073,0.00027,-0.00063,6,9
28285,-0.00021,-5e-05,-2e-05,5e-05,0.00018,0.00073,0.00027,-0.00063,6,9
28286,-0.00021,-5e-05,-2e-05,5e-05,0.00018,0.00073,0.00027,-0.00063,6,9
28288,-0.00021,-5e-05,-2e-05,5e-05,0.00018,0.00073,0.00027,-0.00063,6,9
28289,-0.00021,-5e-05,-2e-05,5e-05,0.00018,0.00073,0.00027,-0.00063,6,9
28290,-0.00021,-5e-05,-2e-05,5e-05,0.00018,0.00073,0.00027,-0.00063,6,9
28291,-0.00021,-5e-05,-2e-05,5e-05,0.00018,0.00073,0.00027,-0.00063,6,9
28292,-0.00021,-5e-05,-2e-05,5e-05,0.00018,0.00073,0.00027,-0.00063,6,9
28293,0.00023,7e-05,-1e-05,-2e-05,-0.00017,0.00018,-0.00032,-3e-05,6,9
28295,0.00023,7e-05,-1e-05,-2e-05,-0.00017,0.00018,-0.00032,-3e-05,6,9
28296,0.00023,7e-05,-1e-05,-2e-05,-0.00017,0.00018,-0.00032,-3e-05,6,9
28297,0.00023,7e-05,-1e-05,-2e-05,-0.00017,0.00018,-0.00032,-3e-05,6,9
28298,0.00023,7e-05,-1e-05,-2e-05,-0.00017,0.00018,-0.00032,-3e-05,6,9
28299,0.00023,7e-05,-1e-05,-2e-05,-0.00017,0.00018,-0.00032,-3e-05,6,9
28300,0.00023,7e-05,-1e-05,-2e-05,-0.00017,0.00018,-0.00032,-3e-05,6,9
28301,0.00023,7e-05,-1e-05,-2e-05,-0.00017,0.00018,-0.00032,-3e-05,6,9
28302,0.00023,7e-05,-1e-05,-2e-05,-0.00017,0.00018,-0.00032,-3e-05,6,9
28303,0.00023,7e-05,-1e-05,-2e-05,-0.00017,0.00018,-0.00032,-3e-05,6,9
28304,0.00023,7e-05,-1e-05,-2e-05,-0.00017,0.00018,-0.00032,-3e-05,6,9
28305,0.00023,7e-05,-1e-05,-2e-05,-0.00017,0.00018,-0.00032,-3e-05,6,9
28306,0.00023,7e-05,-1e-05,-2e-05,-0.00017,0.00018,-0.00032,-3e-05,6,9
28307,0.00023,7e-05,-1e-05,-2e-05,-0.00017,0.00018,-0.00032,-3e-05,6,9
28308,0.00023,7e-05,-1e-05,-2e-05,-0.00017,0.00018,-0.00032,-3e-05,6,9
28309,0.00023,7e-05,-1e-05,-2e-05,-0.00017,0.00018,-0.00032,-3e-05,6,9
28310,0.00023,7e-05,-1e-05,-2e-05,-0.00017,0.00018,-0.00032,-3e-05,6,9
28311,0.00023,7e-05,-1e-05,-2e-05,-0.00017,0.00018,-0.00032,-3e-05,6,9
28312,0.00023,7e-05,-1e-05,-2e-05,-0.00017,0.00018,-0.00032,-3e-05,6,9
28313,0.00023,7e-05,-1e-05,-2e-05,-0.00017,0.00018,-0.00032,-3e-05,6,9
28314,0.00023,7e-05,-1e-05,-2e-05,-0.00017,0.00018,-0.00032,-3e-05,6,9
28315,-0.00028,-5e-05,1e-05,5e-05,-0.00014,-0.00063,-0.00036,-0.00086,6,9
28316,-0.0003,-4e-05,-1e-05,1e-05,6e-05,0,0.0001,-0.00088,6,9
28317,-0.0003,-4e-05,-1e-05,1e-05,6e-05,0,0.0001,-0.00088,6,9
28318,-0.0003,-4e-05,-1e-05,1e-05,6e-05,0,0.0001,-0.00088,6,9
28319,-0.0003,-4e-05,-1e-05,1e-05,6e-05,0,0.0001,-0.00088,6,9
28320,-0.0003,-4e-05,-1e-05,1e-05,6e-05,0,0.0001,-0.00088,6,9
28321,-0.0003,-4e-05,-1e-05,1e-05,6e-05,0,0.0001,-0.00088,6,9
28322,-0.0003,-4e-05,-1e-05,1e-05,6e-05,0,0.0001,-0.00088,6,9
28323,-0.0003,-4e-05,-1e-05,1e-05,6e-05,0,0.0001,-0.00088,6,9
28324,-0.0003,-4e-05,-1e-05,1e-05,6e-05,0,0.0001,-0.00088,6,9
28325,-0.0003,-4e-05,-1e-05,1e-05,6e-05,0,0.0001,-0.00088,6,9
28326,-0.0003,-4e-05,-1e-05,1e-05,6e-05,0,0.0001,-0.00088,6,9
28327,-0.0003,-4e-05,-1e-05,1e-05,6e-05,0,0.0001,-0.00088,6,9
28328,-0.0003,-4e-05,-1e-05,1e-05,6e-05,0,0.0001,-0.00088,6,9
28329,-0.0003,-4e-05,-1e-05,1e-05,6e-05,0,0.0001,-0.00088,6,9
28330,-2e-05,-5e-05,-9e-05,-6e-05,-0.00033,0.00109,0,0.00066,6,9
28331,0.00011,-1e-05,2e-05,-6e-05,-0.00019,-0.00013,0.00015,0.00016,6,9
28332,0.00011,-1e-05,2e-05,-6e-05,-0.00019,-0.00013,0.00015,0.00016,6,9
28333,0.00011,-1e-05,2e-05,-6e-05,-0.00019,-0.00013,0.00015,0.00016,6,9
28334,0.00011,-1e-05,2e-05,-6e-05,-0.00019,-0.00013,0.00015,0.00016,6,9
28335,0.00011,-1e-05,2e-05,-6e-05,-0.00019,-0.00013,0.00015,0.00016,6,9
28337,0.00011,-1e-05,2e-05,-6e-05,-0.00019,-0.00013,0.00015,0.00016,6,9
28339,0.00011,-1e-05,2e-05,-6e-05,-0.00019,-0.00013,0.00015,0.00016,6,9
28340,0.00011,-1e-05,2e-05,-6e-05,-0.00019,-0.00013,0.00015,0.00016,6,9
28341,0.00011,-1e-05,2e-05,-6e-05,-0.00019,-0.00013,0.00015,0.00016,6,9
28342,0.00011,-1e-05,2e-05,-6e-05,-0.00019,-0.00013,0.00015,0.00016,6,9
28343,0.00011,-1e-05,2e-05,-6e-05,-0.00019,-0.00013,0.00015,0.00016,6,9
28344,0.00011,-1e-05,2e-05,-6e-05,-0.00019,-0.00013,0.00015,0.00016,6,9
28345,0.00011,-1e-05,2e-05,-6e-05,-0.00019,-0.00013,0.00015,0.00016,6,9
28346,0.00011,-1e-05,2e-05,-6e-05,-0.00019,-0.00013,0.00015,0.00016,6,9
28347,0.00011,-1e-05,2e-05,-6e-05,-0.00019,-0.00013,0.00015,0.00016,6,9
28348,0.00011,-1e-05,2e-05,-6e-05,-0.00019,-0.00013,0.00015,0.00016,6,9
28349,0.00011,-1e-05,2e-05,-6e-05,-0.00019,-0.00013,0.00015,0.00016,6,9
28350,0.00011,-1e-05,2e-05,-6e-05,-0.00019,-0.00013,0.00015,0.00016,6,9
28351,0.00011,-1e-05,2e-05,-6e-05,-0.00019,-0.00013,0.00015,0.00016,6,9
28352,0.00011,-1e-05,2e-05,-6e-05,-0.00019,-0.00013,0.00015,0.00016,6,9
28353,-4e-05,-3e-05,2e-05,1e-05,0.00021,0.00049,0.00019,0.00035,6,9
28354,0,-6e-05,-9e-05,-6e-05,-0.00016,-5e-05,7e-05,0.00055,6,9
28355,0,-6e-05,-9e-05,-6e-05,-0.00016,-5e-05,7e-05,0.00055,6,9
28356,0,-6e-05,-9e-05,-6e-05,-0.00016,-5e-05,7e-05,0.00055,6,9
28357,0,-6e-05,-9e-05,-6e-05,-0.00016,-5e-05,7e-05,0.00055,6,9
28358,0,-6e-05,-9e-05,-6e-05,-0.00016,-5e-05,7e-05,0.00055,6,9
28359,0,-6e-05,-9e-05,-6e-05,-0.00016,-5e-05,7e-05,0.00055,6,9
28360,0,-6e-05,-9e-05,-6e-05,-0.00016,-5e-05,7e-05,0.00055,6,9
28361,0,-6e-05,-9e-05,-6e-05,-0.00016,-5e-05,7e-05,0.00055,6,9
28362,0,-6e-05,-9e-05,-6e-05,-0.00016,-5e-05,7e-05,0.00055,6,9
28364,0,-6e-05,-9e-05,-6e-05,-0.00016,-5e-05,7e-05,0.00055,6,9
28365,0,-6e-05,-9e-05,-6e-05,-0.00016,-5e-05,7e-05,0.00055,6,9
28366,0,-6e-05,-9e-05,-6e-05,-0.00016,-5e-05,7e-05,0.00055,6,9
28367,0,-6e-05,-9e-05,-6e-05,-0.00016,-5e-05,7e-05,0.00055,6,9
28368,0,-6e-05,-9e-05,-6e-05,-0.00016,-5e-05,7e-05,0.00055,6,9
28369,0,-6e-05,-9e-05,-6e-05,-0.00016,-5e-05,7e-05,0.00055,6,9
28370,0,-6e-05,-9e-05,-6e-05,-0.00016,-5e-05,7e-05,0.00055,6,9
28371,0,-6e-05,-9e-05,-6e-05,-0.00016,-5e-05,7e-05,0.00055,6,9
28372,0,-6e-05,-9e-05,-6e-05,-0.00016,-5e-05,7e-05,0.00055,6,9
28374,0,-6e-05,-9e-05,-6e-05,-0.00016,-5e-05,7e-05,0.00055,6,9
28375,-0.00015,-6e-05,-1e-05,3e-05,0.00022,0.00015,1e-05,-0.00079,6,9
28376,-7e-05,-0.00011,-8e-05,-0.00016,-0.00021,-0.00023,-0.00027,0.00096,6,9
28377,-7e-05,-0.00011,-8e-05,-0.00016,-0.00021,-0.00023,-0.00027,0.00096,6,9
28378,-7e-05,-0.00011,-8e-05,-0.00016,-0.00021,-0.00023,-0.00027,0.00096,6,9
28379,-7e-05,-0.00011,-8e-05,-0.00016,-0.00021,-0.00023,-0.00027,0.00096,6,9
28380,-7e-05,-0.00011,-8e-05,-0.00016,-0.00021,-0.00023,-0.00027,0.00096,6,9
28381,-7e-05,-0.00011,-8e-05,-0.00016,-0.00021,-0.00023,-0.00027,0.00096,6,9
28382,-7e-05,-0.00011,-8e-05,-0.00016,-0.00021,-0.00023,-0.00027,0.00096,6,9
28383,-7e-05,-0.00011,-8e-05,-0.00016,-0.00021,-0.00023,-0.00027,0.00096,6,9
28384,-7e-05,-0.00011,-8e-05,-0.00016,-0.00021,-0.00023,-0.00027,0.00096,6,9
28385,-7e-05,-0.00011,-8e-05,-0.00016,-0.00021,-0.00023,-0.00027,0.00096,6,9
28386,-7e-05,-0.00011,-8e-05,-0.00016,-0.00021,-0.00023,-0.00027,0.00096,6,9
28389,-7e-05,-0.00011,-8e-05,-0.00016,-0.00021,-0.00023,-0.00027,0.00096,6,9
28390,-7e-05,-0.00011,-8e-05,-0.00016,-0.00021,-0.00023,-0.00027,0.00096,6,9
28391,-7e-05,-0.00011,-8e-05,-0.00016,-0.00021,-0.00023,-0.00027,0.00096,6,9
28392,-7e-05,-0.00011,-8e-05,-0.00016,-0.00021,-0.00023,-0.00027,0.00096,6,9
28393,-7e-05,-0.00011,-8e-05,-0.00016,-0.00021,-0.00023,-0.00027,0.00096,6,9
28394,-7e-05,-0.00011,-8e-05,-0.00016,-0.00021,-0.00023,-0.00027,0.00096,6,9
28395,-7e-05,-0.00011,-8e-05,-0.00016,-0.00021,-0.00023,-0.00027,0.00096,6,9
28396,-7e-05,-0.00011,-8e-05,-0.00016,-0.00021,-0.00023,-0.00027,0.00096,6,9
28397,-7e-05,-0.00011,-8e-05,-0.00016,-0.00021,-0.00023,-0.00027,0.00096,6,9
28398,-0.00033,3e-05,4e-05,3e-05,5e-05,0.00011,1e-05,-0.00083,6,9
28399,-5e-05,-4e-05,-2e-05,1e-05,-3e-05,-0.0008,-3e-05,-0.00092,6,9
28400,-5e-05,-4e-05,-2e-05,1e-05,-3e-05,-0.0008,-3e-05,-0.00092,6,9
28401,-5e-05,-4e-05,-2e-05,1e-05,-3e-05,-0.0008,-3e-05,-0.00092,6,9
28402,-5e-05,-4e-05,-2e-05,1e-05,-3e-05,-0.0008,-3e-05,-0.00092,6,9
28403,-5e-05,-4e-05,-2e-05,1e-05,-3e-05,-0.0008,-3e-05,-0.00092,6,9
28404,-5e-05,-4e-05,-2e-05,1e-05,-3e-05,-0.0008,-3e-05,-0.00092,6,9
28405,-5e-05,-4e-05,-2e-05,1e-05,-3e-05,-0.0008,-3e-05,-0.00092,6,9
28406,-5e-05,-4e-05,-2e-05,1e-05,-3e-05,-0.0008,-3e-05,-0.00092,6,9
28407,-5e-05,-4e-05,-2e-05,1e-05,-3e-05,-0.0008,-3e-05,-0.00092,6,9
28408,-5e-05,-4e-05,-2e-05,1e-05,-3e-05,-0.0008,-3e-05,-0.00092,6,9
28409,-5e-05,-4e-05,-2e-05,1e-05,-3e-05,-0.0008,-3e-05,-0.00092,6,9
28410,-5e-05,-4e-05,-2e-05,1e-05,-3e-05,-0.0008,-3e-05,-0.00092,6,9
28411,-5e-05,-4e-05,-2e-05,1e-05,-3e-05,-0.0008,-3e-05,-0.00092,6,9
28412,-5e-05,-4e-05,-2e-05,1e-05,-3e-05,-0.0008,-3e-05,-0.00092,6,9
28413,0.00034,3e-05,1e-05,2e-05,-0.00018,0.00069,5e-05,0.00094,6,9
28414,-0.0001,-5e-05,1e-05,1e-05,9e-05,6e-05,-0.00022,-0.00017,6,9
28415,-0.0001,-5e-05,1e-05,1e-05,9e-05,6e-05,-0.00022,-0.00017,6,9
28416,-0.0001,-5e-05,1e-05,1e-05,9e-05,6e-05,-0.00022,-0.00017,6,9
28417,-0.0001,-5e-05,1e-05,1e-05,9e-05,6e-05,-0.00022,-0.00017,6,9
28418,-0.0001,-5e-05,1e-05,1e-05,9e-05,6e-05,-0.00022,-0.00017,6,9
28419,-0.0001,-5e-05,1e-05,1e-05,9e-05,6e-05,-0.00022,-0.00017,6,9
28420,-0.0001,-5e-05,1e-05,1e-05,9e-05,6e-05,-0.00022,-0.00017,6,9
28421,-0.0001,-5e-05,1e-05,1e-05,9e-05,6e-05,-0.00022,-0.00017,6,9
28422,-0.0001,-5e-05,1e-05,1e-05,9e-05,6e-05,-0.00022,-0.00017,6,9
28423,-0.0001,-5e-05,1e-05,1e-05,9e-05,6e-05,-0.00022,-0.00017,6,9
28424,-0.0001,-5e-05,1e-05,1e-05,9e-05,6e-05,-0.00022,-0.00017,6,9
28425,-0.0001,-5e-05,1e-05,1e-05,9e-05,6e-05,-0.00022,-0.00017,6,9
28426,-0.0001,-5e-05,1e-05,1e-05,9e-05,6e-05,-0.00022,-0.00017,6,9
28427,-0.0001,-5e-05,1e-05,1e-05,9e-05,6e-05,-0.00022,-0.00017,6,9
28428,-0.0001,-5e-05,1e-05,1e-05,9e-05,6e-05,-0.00022,-0.00017,6,9
28429,-0.0001,-5e-05,1e-05,1e-05,9e-05,6e-05,-0.00022,-0.00017,6,9
28430,-0.0001,-5e-05,1e-05,1e-05,9e-05,6e-05,-0.00022,-0.00017,6,9
28431,-0.0001,-5e-05,1e-05,1e-05,9e-05,6e-05,-0.00022,-0.00017,6,9
28432,-0.0001,-5e-05,1e-05,1e-05,9e-05,6e-05,-0.00022,-0.00017,6,9
28433,-0.0001,-5e-05,1e-05,1e-05,9e-05,6e-05,-0.00022,-0.00017,6,9
28434,-0.0001,-5e-05,1e-05,1e-05,9e-05,6e-05,-0.00022,-0.00017,6,9
28435,0.00014,2e-05,-3e-05,0,0.00015,-0.00013,0.00019,0.00059,6,9
28437,0.00014,2e-05,-3e-05,0,0.00015,-0.00013,0.00019,0.00059,6,9
28439,0.00013,6e-05,3e-05,4e-05,0.00014,0.00066,0.0003,0.0002,6,9
28441,0.00013,6e-05,3e-05,4e-05,0.00014,0.00066,0.0003,0.0002,6,9
28442,0.00013,6e-05,3e-05,4e-05,0.00014,0.00066,0.0003,0.0002,6,9
28443,0.00013,6e-05,3e-05,4e-05,0.00014,0.00066,0.0003,0.0002,6,9
28444,0.00013,6e-05,3e-05,4e-05,0.00014,0.00066,0.0003,0.0002,6,9
28445,0.00013,6e-05,3e-05,4e-05,0.00014,0.00066,0.0003,0.0002,6,9
28446,0.00013,6e-05,3e-05,4e-05,0.00014,0.00066,0.0003,0.0002,6,9
28447,0.00013,6e-05,3e-05,4e-05,0.00014,0.00066,0.0003,0.0002,6,9
28448,0.00013,6e-05,3e-05,4e-05,0.00014,0.00066,0.0003,0.0002,6,9
28449,0.00013,6e-05,3e-05,4e-05,0.00014,0.00066,0.0003,0.0002,6,9
28450,-0.00016,-5e-05,8e-05,-4e-05,-0.00012,0,-0.00025,0.00028,6,9
28451,-0.00016,-5e-05,8e-05,-4e-05,-0.00012,0,-0.00025,0.00028,6,9
28452,-0.00016,-5e-05,8e-05,-4e-05,-0.00012,0,-0.00025,0.00028,6,9
28453,-0.00016,-5e-05,8e-05,-4e-05,-0.00012,0,-0.00025,0.00028,6,9
28454,-0.00016,-5e-05,8e-05,-4e-05,-0.00012,0,-0.00025,0.00028,6,9
28455,-0.00016,-5e-05,8e-05,-4e-05,-0.00012,0,-0.00025,0.00028,6,9
28456,-0.00016,-5e-05,8e-05,-4e-05,-0.00012,0,-0.00025,0.00028,6,9
28457,-0.00016,-5e-05,8e-05,-4e-05,-0.00012,0,-0.00025,0.00028,6,9
28458,-0.00016,-5e-05,8e-05,-4e-05,-0.00012,0,-0.00025,0.00028,6,9
28459,-0.00016,-5e-05,8e-05,-4e-05,-0.00012,0,-0.00025,0.00028,6,9
28460,-0.00016,-5e-05,8e-05,-4e-05,-0.00012,0,-0.00025,0.00028,6,9
28461,-0.00016,-5e-05,8e-05,-4e-05,-0.00012,0,-0.00025,0.00028,6,9
28462,-0.00016,-5e-05,8e-05,-4e-05,-0.00012,0,-0.00025,0.00028,6,9
28463,-0.00016,-5e-05,8e-05,-4e-05,-0.00012,0,-0.00025,0.00028,6,9
28464,-0.00016,-5e-05,8e-05,-4e-05,-0.00012,0,-0.00025,0.00028,6,9
28465,-0.00016,-5e-05,8e-05,-4e-05,-0.00012,0,-0.00025,0.00028,6,9
28466,-0.00016,-5e-05,8e-05,-4e-05,-0.00012,0,-0.00025,0.00028,6,9
28467,-0.00016,-5e-05,8e-05,-4e-05,-0.00012,0,-0.00025,0.00028,6,9
28468,-0.00016,-5e-05,8e-05,-4e-05,-0.00012,0,-0.00025,0.00028,6,9
28469,-0.00016,-5e-05,8e-05,-4e-05,-0.00012,0,-0.00025,0.00028,6,9
28470,-0.00016,-5e-05,8e-05,-4e-05,-0.00012,0,-0.00025,0.00028,6,9
28471,-0.00016,-5e-05,8e-05,-4e-05,-0.00012,0,-0.00025,0.00028,6,9
28472,-0.00016,-5e-05,8e-05,-4e-05,-0.00012,0,-0.00025,0.00028,6,9
28473,-8e-05,5e-05,5e-05,0.00012,0.00013,-0.00016,-1e-05,0.00026,6,9
28474,-2e-05,-2e-05,-3e-05,-1e-05,-0.00019,-0.00027,-8e-05,0.00049,6,9
28475,-2e-05,-2e-05,-3e-05,-1e-05,-0.00019,-0.00027,-8e-05,0.00049,6,9
28476,-2e-05,-2e-05,-3e-05,-1e-05,-0.00019,-0.00027,-8e-05,0.00049,6,9
28477,-2e-05,-2e-05,-3e-05,-1e-05,-0.00019,-0.00027,-8e-05,0.00049,6,9
28478,-2e-05,-2e-05,-3e-05,-1e-05,-0.00019,-0.00027,-8e-05,0.00049,6,9
28479,-2e-05,-2e-05,-3e-05,-1e-05,-0.00019,-0.00027,-8e-05,0.00049,6,9
28480,-2e-05,-2e-05,-3e-05,-1e-05,-0.00019,-0.00027,-8e-05,0.00049,6,9
28481,-2e-05,-2e-05,-3e-05,-1e-05,-0.00019,-0.00027,-8e-05,0.00049,6,9
28482,-2e-05,-2e-05,-3e-05,-1e-05,-0.00019,-0.00027,-8e-05,0.00049,6,9
28483,-2e-05,-2e-05,-3e-05,-1e-05,-0.00019,-0.00027,-8e-05,0.00049,6,9
28484,-2e-05,-2e-05,-3e-05,-1e-05,-0.00019,-0.00027,-8e-05,0.00049,6,9
28485,-2e-05,-2e-05,-3e-05,-1e-05,-0.00019,-0.00027,-8e-05,0.00049,6,9
28487,-2e-05,-2e-05,-3e-05,-1e-05,-0.00019,-0.00027,-8e-05,0.00049,6,9
28489,-2e-05,-2e-05,-3e-05,-1e-05,-0.00019,-0.00027,-8e-05,0.00049,6,9
28490,-2e-05,-2e-05,-3e-05,-1e-05,-0.00019,-0.00027,-8e-05,0.00049,6,9
28491,-2e-05,-2e-05,-3e-05,-1e-05,-0.00019,-0.00027,-8e-05,0.00049,6,9
28492,-2e-05,-2e-05,-3e-05,-1e-05,-0.00019,-0.00027,-8e-05,0.00049,6,9
28493,-2e-05,-2e-05,-3e-05,-1e-05,-0.00019,-0.00027,-8e-05,0.00049,6,9
28494,-2e-05,-2e-05,-3e-05,-1e-05,-0.00019,-0.00027,-8e-05,0.00049,6,9
28495,0.00014,-2e-05,0,8e-05,0.00048,-2e-05,-8e-05,0.00099,6,9
28496,0.00014,-2e-05,0,8e-05,0.00048,-2e-05,-8e-05,0.00099,6,9
28497,4e-05,1e-05,-5e-05,0,-0.00011,-9e-05,-0.0001,-0.00016,6,9
28498,4e-05,1e-05,-5e-05,0,-0.00011,-9e-05,-0.0001,-0.00016,6,9
28499,4e-05,1e-05,-5e-05,0,-0.00011,-9e-05,-0.0001,-0.00016,6,9
28500,4e-05,1e-05,-5e-05,0,-0.00011,-9e-05,-0.0001,-0.00016,6,9
28501,4e-05,1e-05,-5e-05,0,-0.00011,-9e-05,-0.0001,-0.00016,6,9
28502,4e-05,1e-05,-5e-05,0,-0.00011,-9e-05,-0.0001,-0.00016,6,9
28503,4e-05,1e-05,-5e-05,0,-0.00011,-9e-05,-0.0001,-0.00016,6,9
28504,4e-05,1e-05,-5e-05,0,-0.00011,-9e-05,-0.0001,-0.00016,6,9
28505,4e-05,1e-05,-5e-05,0,-0.00011,-9e-05,-0.0001,-0.00016,6,9
28506,4e-05,1e-05,-5e-05,0,-0.00011,-9e-05,-0.0001,-0.00016,6,9
28507,4e-05,1e-05,-5e-05,0,-0.00011,-9e-05,-0.0001,-0.00016,6,9
28508,4e-05,1e-05,-5e-05,0,-0.00011,-9e-05,-0.0001,-0.00016,6,9
28509,-7e-05,4e-05,-5e-05,-2e-05,-0.00043,-0.00017,0.00016,0.00018,6,9
28510,-7e-05,4e-05,-5e-05,-2e-05,-0.00043,-0.00017,0.00016,0.00018,6,9
28511,-7e-05,4e-05,-5e-05,-2e-05,-0.00043,-0.00017,0.00016,0.00018,6,9
28512,-7e-05,4e-05,-5e-05,-2e-05,-0.00043,-0.00017,0.00016,0.00018,6,9
28513,-7e-05,4e-05,-5e-05,-2e-05,-0.00043,-0.00017,0.00016,0.00018,6,9
28514,-7e-05,4e-05,-5e-05,-2e-05,-0.00043,-0.00017,0.00016,0.00018,6,9
28515,-7e-05,4e-05,-5e-05,-2e-05,-0.00043,-0.00017,0.00016,0.00018,6,9
28516,-7e-05,4e-05,-5e-05,-2e-05,-0.00043,-0.00017,0.00016,0.00018,6,9
28517,-7e-05,4e-05,-5e-05,-2e-05,-0.00043,-0.00017,0.00016,0.00018,6,9
28518,-2e-05,-5e-05,-7e-05,-0.0001,-1e-05,-0.00014,0.00011,-0.00035,6,9
28519,-2e-05,-5e-05,-7e-05,-0.0001,-1e-05,-0.00014,0.00011,-0.00035,6,9
28520,-2e-05,-5e-05,-7e-05,-0.0001,-1e-05,-0.00014,0.00011,-0.00035,6,9
28521,-2e-05,-5e-05,-7e-05,-0.0001,-1e-05,-0.00014,0.00011,-0.00035,6,9
28522,-2e-05,-5e-05,-7e-05,-0.0001,-1e-05,-0.00014,0.00011,-0.00035,6,9
28523,-2e-05,-5e-05,-7e-05,-0.0001,-1e-05,-0.00014,0.00011,-0.00035,6,9
28524,-2e-05,-5e-05,-7e-05,-0.0001,-1e-05,-0.00014,0.00011,-0.00035,6,9
28525,-2e-05,-5e-05,-7e-05,-0.0001,-1e-05,-0.00014,0.00011,-0.00035,6,9
28526,-2e-05,-5e-05,-7e-05,-0.0001,-1e-05,-0.00014,0.00011,-0.00035,6,9
28527,-2e-05,-5e-05,-7e-05,-0.0001,-1e-05,-0.00014,0.00011,-0.00035,6,9
28529,-2e-05,-5e-05,-7e-05,-0.0001,-1e-05,-0.00014,0.00011,-0.00035,6,9
28530,-2e-05,-5e-05,-7e-05,-0.0001,-1e-05,-0.00014,0.00011,-0.00035,6,9
28531,-2e-05,-5e-05,-7e-05,-0.0001,-1e-05,-0.00014,0.00011,-0.00035,6,9
28532,-2e-05,-5e-05,-7e-05,-0.0001,-1e-05,-0.00014,0.00011,-0.00035,6,9
28533,9e-05,-6e-05,-6e-05,-0.00014,-0.0002,-0.00054,8e-05,0.00099,6,9
28534,5e-05,-2e-05,3e-05,2e-05,1e-05,-6e-05,5e-05,-0.00049,6,9
28535,0.00014,9e-05,6e-05,8e-05,0.00028,0.00059,0.00039,-2e-05,6,9
28536,0.00014,9e-05,6e-05,8e-05,0.00028,0.00059,0.00039,-2e-05,6,9
28538,0.00014,9e-05,6e-05,8e-05,0.00028,0.00059,0.00039,-2e-05,6,9
28539,0.00014,9e-05,6e-05,8e-05,0.00028,0.00059,0.00039,-2e-05,6,9
28540,0.00014,9e-05,6e-05,8e-05,0.00028,0.00059,0.00039,-2e-05,6,9
28541,0.00014,9e-05,6e-05,8e-05,0.00028,0.00059,0.00039,-2e-05,6,9
28542,0.00014,9e-05,6e-05,8e-05,0.00028,0.00059,0.00039,-2e-05,6,9
28543,0.00014,9e-05,6e-05,8e-05,0.00028,0.00059,0.00039,-2e-05,6,9
28544,0.00014,9e-05,6e-05,8e-05,0.00028,0.00059,0.00039,-2e-05,6,9
28545,0.00014,9e-05,6e-05,8e-05,0.00028,0.00059,0.00039,-2e-05,6,9
28546,0.00014,9e-05,6e-05,8e-05,0.00028,0.00059,0.00039,-2e-05,6,9
28547,0.00014,9e-05,6e-05,8e-05,0.00028,0.00059,0.00039,-2e-05,6,9
28548,0.00014,9e-05,6e-05,8e-05,0.00028,0.00059,0.00039,-2e-05,6,9
28549,0.00014,9e-05,6e-05,8e-05,0.00028,0.00059,0.00039,-2e-05,6,9
28550,0.00014,9e-05,6e-05,8e-05,0.00028,0.00059,0.00039,-2e-05,6,9
28551,0.00014,9e-05,6e-05,8e-05,0.00028,0.00059,0.00039,-2e-05,6,9
28552,0.00014,9e-05,6e-05,8e-05,0.00028,0.00059,0.00039,-2e-05,6,9
28553,0.00014,9e-05,6e-05,8e-05,0.00028,0.00059,0.00039,-2e-05,6,9
28554,0.00014,9e-05,6e-05,8e-05,0.00028,0.00059,0.00039,-2e-05,6,9
28555,-7e-05,-4e-05,-1e-05,-2e-05,-3e-05,-0.00012,6e-05,-0.00023,6,9
28556,-7e-05,-4e-05,-1e-05,-2e-05,-3e-05,-0.00012,6e-05,-0.00023,6,9
28557,-0.00011,6e-05,3e-05,5e-05,0.00031,0.00119,0.00034,-0.0008,6,9
28558,-0.00011,6e-05,3e-05,5e-05,0.00031,0.00119,0.00034,-0.0008,6,9
28559,-0.00011,6e-05,3e-05,5e-05,0.00031,0.00119,0.00034,-0.0008,6,9
28560,-0.00011,6e-05,3e-05,5e-05,0.00031,0.00119,0.00034,-0.0008,6,9
28561,-0.00011,6e-05,3e-05,5e-05,0.00031,0.00119,0.00034,-0.0008,6,9
28562,-0.00011,6e-05,3e-05,5e-05,0.00031,0.00119,0.00034,-0.0008,6,9
28563,-0.00011,6e-05,3e-05,5e-05,0.00031,0.00119,0.00034,-0.0008,6,9
28564,-0.00011,6e-05,3e-05,5e-05,0.00031,0.00119,0.00034,-0.0008,6,9
28565,-0.00011,6e-05,3e-05,5e-05,0.00031,0.00119,0.00034,-0.0008,6,9
28566,-0.00011,6e-05,3e-05,5e-05,0.00031,0.00119,0.00034,-0.0008,6,9
28567,-0.00011,6e-05,3e-05,5e-05,0.00031,0.00119,0.00034,-0.0008,6,9
28568,-0.00011,6e-05,3e-05,5e-05,0.00031,0.00119,0.00034,-0.0008,6,9
28569,-0.00032,-6e-05,1e-05,2e-05,0.00015,0.00073,-0.00017,-0.00118,6,9
28571,-0.00032,-6e-05,1e-05,2e-05,0.00015,0.00073,-0.00017,-0.00118,6,9
28572,-0.00032,-6e-05,1e-05,2e-05,0.00015,0.00073,-0.00017,-0.00118,6,9
28573,-0.00032,-6e-05,1e-05,2e-05,0.00015,0.00073,-0.00017,-0.00118,6,9
28574,-0.00032,-6e-05,1e-05,2e-05,0.00015,0.00073,-0.00017,-0.00118,6,9
28575,-0.00032,-6e-05,1e-05,2e-05,0.00015,0.00073,-0.00017,-0.00118,6,9
28576,-0.00032,-6e-05,1e-05,2e-05,0.00015,0.00073,-0.00017,-0.00118,6,9
28577,-0.00032,-6e-05,1e-05,2e-05,0.00015,0.00073,-0.00017,-0.00118,6,9
28578,-4e-05,2e-05,3e-05,5e-05,-3e-05,0.00019,0.0001,-0.00028,6,9
28579,-4e-05,2e-05,3e-05,5e-05,-3e-05,0.00019,0.0001,-0.00028,6,9
28580,-4e-05,2e-05,3e-05,5e-05,-3e-05,0.00019,0.0001,-0.00028,6,9
28581,-4e-05,2e-05,3e-05,5e-05,-3e-05,0.00019,0.0001,-0.00028,6,9
28582,-4e-05,2e-05,3e-05,5e-05,-3e-05,0.00019,0.0001,-0.00028,6,9
28583,-4e-05,2e-05,3e-05,5e-05,-3e-05,0.00019,0.0001,-0.00028,6,9
28584,-4e-05,2e-05,3e-05,5e-05,-3e-05,0.00019,0.0001,-0.00028,6,9
28585,-4e-05,2e-05,3e-05,5e-05,-3e-05,0.00019,0.0001,-0.00028,6,9
28587,-4e-05,2e-05,3e-05,5e-05,-3e-05,0.00019,0.0001,-0.00028,6,9
28589,-4e-05,2e-05,3e-05,5e-05,-3e-05,0.00019,0.0001,-0.00028,6,9
28590,-4e-05,2e-05,3e-05,5e-05,-3e-05,0.00019,0.0001,-0.00028,6,9
28591,-4e-05,2e-05,3e-05,5e-05,-3e-05,0.00019,0.0001,-0.00028,6,9
28592,-4e-05,2e-05,3e-05,5e-05,-3e-05,0.00019,0.0001,-0.00028,6,9
28593,4e-05,-3e-05,4e-05,-7e-05,-0.00016,-0.00023,-5e-05,-0.00066,6,9
28594,2e-05,1e-05,1e-05,4e-05,0.00015,0.00023,-0.0001,0.00057,6,9
28595,0.0001,-1e-05,-5e-05,-4e-05,-5e-05,-0.00054,-8e-05,0.00042,6,9
28596,0.0001,-1e-05,-5e-05,-4e-05,-5e-05,-0.00054,-8e-05,0.00042,6,9
28597,0.0001,-1e-05,-5e-05,-4e-05,-5e-05,-0.00054,-8e-05,0.00042,6,9
28598,0.0001,-1e-05,-5e-05,-4e-05,-5e-05,-0.00054,-8e-05,0.00042,6,9
28599,0.0001,-1e-05,-5e-05,-4e-05,-5e-05,-0.00054,-8e-05,0.00042,6,9
28600,0.0001,-1e-05,-5e-05,-4e-05,-5e-05,-0.00054,-8e-05,0.00042,6,9
28601,0.0001,-1e-05,-5e-05,-4e-05,-5e-05,-0.00054,-8e-05,0.00042,6,9
28602,0.0001,-1e-05,-5e-05,-4e-05,-5e-05,-0.00054,-8e-05,0.00042,6,9
28603,0.0001,-1e-05,-5e-05,-4e-05,-5e-05,-0.00054,-8e-05,0.00042,6,9
28604,0.0001,-1e-05,-5e-05,-4e-05,-5e-05,-0.00054,-8e-05,0.00042,6,9
28605,0.0001,-1e-05,-5e-05,-4e-05,-5e-05,-0.00054,-8e-05,0.00042,6,9
28606,0.0001,-1e-05,-5e-05,-4e-05,-5e-05,-0.00054,-8e-05,0.00042,6,9
28607,0.0001,-1e-05,-5e-05,-4e-05,-5e-05,-0.00054,-8e-05,0.00042,6,9
28608,0.0001,-1e-05,-5e-05,-4e-05,-5e-05,-0.00054,-8e-05,0.00042,6,9
28609,0.0001,-1e-05,-5e-05,-4e-05,-5e-05,-0.00054,-8e-05,0.00042,6,9
28610,0.0001,-1e-05,-5e-05,-4e-05,-5e-05,-0.00054,-8e-05,0.00042,6,9
28611,0.0001,-1e-05,-5e-05,-4e-05,-5e-05,-0.00054,-8e-05,0.00042,6,9
28612,0.0001,-1e-05,-5e-05,-4e-05,-5e-05,-0.00054,-8e-05,0.00042,6,9
28613,0.0001,-1e-05,-5e-05,-4e-05,-5e-05,-0.00054,-8e-05,0.00042,6,9
28614,0.0001,-1e-05,-5e-05,-4e-05,-5e-05,-0.00054,-8e-05,0.00042,6,9
28615,0.0001,-1e-05,-5e-05,-4e-05,-5e-05,-0.00054,-8e-05,0.00042,6,9
28616,-0.00011,-0.0001,-9e-05,-0.00016,-0.0003,-0.0004,-0.0002,-0.00054,6,9
28617,-0.00013,0,-4e-05,-3e-05,4e-05,-0.00031,-0.0002,-0.00052,6,9
28618,-0.00013,0,-4e-05,-3e-05,4e-05,-0.00031,-0.0002,-0.00052,6,9
28619,-0.00013,0,-4e-05,-3e-05,4e-05,-0.00031,-0.0002,-0.00052,6,9
28620,-0.00013,0,-4e-05,-3e-05,4e-05,-0.00031,-0.0002,-0.00052,6,9
28621,-0.00013,0,-4e-05,-3e-05,4e-05,-0.00031,-0.0002,-0.00052,6,9
28622,-0.00013,0,-4e-05,-3e-05,4e-05,-0.00031,-0.0002,-0.00052,6,9
28623,-0.00013,0,-4e-05,-3e-05,4e-05,-0.00031,-0.0002,-0.00052,6,9
28624,-0.00013,0,-4e-05,-3e-05,4e-05,-0.00031,-0.0002,-0.00052,6,9
28625,-0.00013,0,-4e-05,-3e-05,4e-05,-0.00031,-0.0002,-0.00052,6,9
28626,-0.00013,0,-4e-05,-3e-05,4e-05,-0.00031,-0.0002,-0.00052,6,9
28627,-0.00013,0,-4e-05,-3e-05,4e-05,-0.00031,-0.0002,-0.00052,6,9
28628,-0.00013,0,-4e-05,-3e-05,4e-05,-0.00031,-0.0002,-0.00052,6,9
28629,-0.00013,0,-4e-05,-3e-05,4e-05,-0.00031,-0.0002,-0.00052,6,9
28630,8e-05,0.00012,3e-05,4e-05,3e-05,-0.0006,-0.00019,0.00057,6,9
28631,1e-05,3e-05,6e-05,2e-05,1e-05,8e-05,-0.00013,-0.00015,6,9
28632,1e-05,3e-05,6e-05,2e-05,1e-05,8e-05,-0.00013,-0.00015,6,9
28633,1e-05,3e-05,6e-05,2e-05,1e-05,8e-05,-0.00013,-0.00015,6,9
28634,1e-05,3e-05,6e-05,2e-05,1e-05,8e-05,-0.00013,-0.00015,6,9
28635,1e-05,3e-05,6e-05,2e-05,1e-05,8e-05,-0.00013,-0.00015,6,9
28637,1e-05,3e-05,6e-05,2e-05,1e-05,8e-05,-0.00013,-0.00015,6,9
28640,1e-05,3e-05,6e-05,2e-05,1e-05,8e-05,-0.00013,-0.00015,6,9
28641,1e-05,3e-05,6e-05,2e-05,1e-05,8e-05,-0.00013,-0.00015,6,9
28642,1e-05,3e-05,6e-05,2e-05,1e-05,8e-05,-0.00013,-0.00015,6,9
28643,1e-05,3e-05,6e-05,2e-05,1e-05,8e-05,-0.00013,-0.00015,6,9
28644,3e-05,-8e-05,-9e-05,-6e-05,-6e-05,5e-05,0.00013,0.00049,6,9
28645,3e-05,-8e-05,-9e-05,-6e-05,-6e-05,5e-05,0.00013,0.00049,6,9
28646,3e-05,-8e-05,-9e-05,-6e-05,-6e-05,5e-05,0.00013,0.00049,6,9
28647,3e-05,-8e-05,-9e-05,-6e-05,-6e-05,5e-05,0.00013,0.00049,6,9
28648,3e-05,-8e-05,-9e-05,-6e-05,-6e-05,5e-05,0.00013,0.00049,6,9
28649,3e-05,-8e-05,-9e-05,-6e-05,-6e-05,5e-05,0.00013,0.00049,6,9
28650,3e-05,-8e-05,-9e-05,-6e-05,-6e-05,5e-05,0.00013,0.00049,6,9
28651,3e-05,-8e-05,-9e-05,-6e-05,-6e-05,5e-05,0.00013,0.00049,6,9
28652,3e-05,-8e-05,-9e-05,-6e-05,-6e-05,5e-05,0.00013,0.00049,6,9
28653,3e-05,-8e-05,-9e-05,-6e-05,-6e-05,5e-05,0.00013,0.00049,6,9
28654,9e-05,-2e-05,1e-05,1e-05,-0.0001,0.00028,2e-05,0.00037,6,9
28655,0.00021,1e-05,3e-05,4e-05,-4e-05,6e-05,-7e-05,0.00038,6,9
28656,0.00021,1e-05,3e-05,4e-05,-4e-05,6e-05,-7e-05,0.00038,6,9
28657,0.00021,1e-05,3e-05,4e-05,-4e-05,6e-05,-7e-05,0.00038,6,9
28658,0.00021,1e-05,3e-05,4e-05,-4e-05,6e-05,-7e-05,0.00038,6,9
28659,0.00021,1e-05,3e-05,4e-05,-4e-05,6e-05,-7e-05,0.00038,6,9
28660,0.00021,1e-05,3e-05,4e-05,-4e-05,6e-05,-7e-05,0.00038,6,9
28661,0.00021,1e-05,3e-05,4e-05,-4e-05,6e-05,-7e-05,0.00038,6,9
28662,0.00021,1e-05,3e-05,4e-05,-4e-05,6e-05,-7e-05,0.00038,6,9
28663,0.00021,1e-05,3e-05,4e-05,-4e-05,6e-05,-7e-05,0.00038,6,9
28664,0.00021,1e-05,3e-05,4e-05,-4e-05,6e-05,-7e-05,0.00038,6,9
28665,0.00021,1e-05,3e-05,4e-05,-4e-05,6e-05,-7e-05,0.00038,6,9
28666,0.00021,1e-05,3e-05,4e-05,-4e-05,6e-05,-7e-05,0.00038,6,9
28667,0.00021,1e-05,3e-05,4e-05,-4e-05,6e-05,-7e-05,0.00038,6,9
28668,0.00021,1e-05,3e-05,4e-05,-4e-05,6e-05,-7e-05,0.00038,6,9
28669,0.00021,1e-05,3e-05,4e-05,-4e-05,6e-05,-7e-05,0.00038,6,9
28671,0.00021,1e-05,3e-05,4e-05,-4e-05,6e-05,-7e-05,0.00038,6,9
28672,0.00021,1e-05,3e-05,4e-05,-4e-05,6e-05,-7e-05,0.00038,6,9
28673,0.00021,1e-05,3e-05,4e-05,-4e-05,6e-05,-7e-05,0.00038,6,9
28674,0.00021,1e-05,3e-05,4e-05,-4e-05,6e-05,-7e-05,0.00038,6,9
28675,1e-05,-1e-05,2e-05,6e-05,0.00035,0.00016,6e-05,-0.00058,6,9
28676,1e-05,-1e-05,2e-05,6e-05,0.00035,0.00016,6e-05,-0.00058,6,9
28677,-4e-05,-3e-05,2e-05,-5e-05,-0.00011,0.00022,-0.00023,-0.00056,6,9
28678,-4e-05,-3e-05,2e-05,-5e-05,-0.00011,0.00022,-0.00023,-0.00056,6,9
28679,-4e-05,-3e-05,2e-05,-5e-05,-0.00011,0.00022,-0.00023,-0.00056,6,9
28680,-4e-05,-3e-05,2e-05,-5e-05,-0.00011,0.00022,-0.00023,-0.00056,6,9
28681,-4e-05,-3e-05,2e-05,-5e-05,-0.00011,0.00022,-0.00023,-0.00056,6,9
28682,-4e-05,-3e-05,2e-05,-5e-05,-0.00011,0.00022,-0.00023,-0.00056,6,9
28683,-4e-05,-3e-05,2e-05,-5e-05,-0.00011,0.00022,-0.00023,-0.00056,6,9
28684,-4e-05,-3e-05,2e-05,-5e-05,-0.00011,0.00022,-0.00023,-0.00056,6,9
28685,-4e-05,-3e-05,2e-05,-5e-05,-0.00011,0.00022,-0.00023,-0.00056,6,9
28687,-4e-05,-3e-05,2e-05,-5e-05,-0.00011,0.00022,-0.00023,-0.00056,6,9
28690,5e-05,7e-05,3e-05,6e-05,-1e-05,0.00085,0.00037,0.00029,6,9
28691,5e-05,7e-05,3e-05,6e-05,-1e-05,0.00085,0.00037,0.00029,6,9
28692,5e-05,7e-05,3e-05,6e-05,-1e-05,0.00085,0.00037,0.00029,6,9
28693,5e-05,7e-05,3e-05,6e-05,-1e-05,0.00085,0.00037,0.00029,6,9
28694,5e-05,7e-05,3e-05,6e-05,-1e-05,0.00085,0.00037,0.00029,6,9
28695,5e-05,7e-05,3e-05,6e-05,-1e-05,0.00085,0.00037,0.00029,6,9
28696,5e-05,7e-05,3e-05,6e-05,-1e-05,0.00085,0.00037,0.00029,6,9
28697,5e-05,7e-05,3e-05,6e-05,-1e-05,0.00085,0.00037,0.00029,6,9
28698,6e-05,0.0001,0.00013,0.00027,0.00039,0.00021,0.00025,-0.00031,6,9
28699,6e-05,0.0001,0.00013,0.00027,0.00039,0.00021,0.00025,-0.00031,6,9
28700,6e-05,0.0001,0.00013,0.00027,0.00039,0.00021,0.00025,-0.00031,6,9
28701,6e-05,0.0001,0.00013,0.00027,0.00039,0.00021,0.00025,-0.00031,6,9
28702,6e-05,0.0001,0.00013,0.00027,0.00039,0.00021,0.00025,-0.00031,6,9
28703,6e-05,0.0001,0.00013,0.00027,0.00039,0.00021,0.00025,-0.00031,6,9
28704,6e-05,0.0001,0.00013,0.00027,0.00039,0.00021,0.00025,-0.00031,6,9
28705,6e-05,0.0001,0.00013,0.00027,0.00039,0.00021,0.00025,-0.00031,6,9
28706,6e-05,0.0001,0.00013,0.00027,0.00039,0.00021,0.00025,-0.00031,6,9
28707,6e-05,0.0001,0.00013,0.00027,0.00039,0.00021,0.00025,-0.00031,6,9
28708,6e-05,0.0001,0.00013,0.00027,0.00039,0.00021,0.00025,-0.00031,6,9
28709,6e-05,0.0001,0.00013,0.00027,0.00039,0.00021,0.00025,-0.00031,6,9
28710,6e-05,0.0001,0.00013,0.00027,0.00039,0.00021,0.00025,-0.00031,6,9
28711,6e-05,0.0001,0.00013,0.00027,0.00039,0.00021,0.00025,-0.00031,6,9
28712,6e-05,0.0001,0.00013,0.00027,0.00039,0.00021,0.00025,-0.00031,6,9
28713,-1e-05,-0.0001,-3e-05,-6e-05,-0.00018,-0.00043,-1e-05,-4e-05,6,9
28714,1e-05,-6e-05,-0.00011,-0.00012,-0.00012,0,4e-05,7e-05,6,9
28715,1e-05,-6e-05,-0.00011,-0.00012,-0.00012,0,4e-05,7e-05,6,9
28716,1e-05,-6e-05,-0.00011,-0.00012,-0.00012,0,4e-05,7e-05,6,9
28717,1e-05,-6e-05,-0.00011,-0.00012,-0.00012,0,4e-05,7e-05,6,9
28718,1e-05,-6e-05,-0.00011,-0.00012,-0.00012,0,4e-05,7e-05,6,9
28719,1e-05,-6e-05,-0.00011,-0.00012,-0.00012,0,4e-05,7e-05,6,9
28720,1e-05,-6e-05,-0.00011,-0.00012,-0.00012,0,4e-05,7e-05,6,9
28721,1e-05,-6e-05,-0.00011,-0.00012,-0.00012,0,4e-05,7e-05,6,9
28722,1e-05,-6e-05,-0.00011,-0.00012,-0.00012,0,4e-05,7e-05,6,9
28723,1e-05,-6e-05,-0.00011,-0.00012,-0.00012,0,4e-05,7e-05,6,9
28724,1e-05,-6e-05,-0.00011,-0.00012,-0.00012,0,4e-05,7e-05,6,9
28725,1e-05,-6e-05,-0.00011,-0.00012,-0.00012,0,4e-05,7e-05,6,9
28726,1e-05,-6e-05,-0.00011,-0.00012,-0.00012,0,4e-05,7e-05,6,9
28727,1e-05,-6e-05,-0.00011,-0.00012,-0.00012,0,4e-05,7e-05,6,9
28728,1e-05,-6e-05,-0.00011,-0.00012,-0.00012,0,4e-05,7e-05,6,9
28729,1e-05,-6e-05,-0.00011,-0.00012,-0.00012,0,4e-05,7e-05,6,9
28730,1e-05,-6e-05,-0.00011,-0.00012,-0.00012,0,4e-05,7e-05,6,9
28731,1e-05,-6e-05,-0.00011,-0.00012,-0.00012,0,4e-05,7e-05,6,9
28732,1e-05,-6e-05,-0.00011,-0.00012,-0.00012,0,4e-05,7e-05,6,9
28734,1e-05,-6e-05,-0.00011,-0.00012,-0.00012,0,4e-05,7e-05,6,9
28735,0,-0.0001,-8e-05,-8e-05,-5e-05,-3e-05,-0.0003,0.00011,6,9
28737,-6e-05,-2e-05,2e-05,5e-05,0.00032,-0.00012,-9e-05,-0.00035,6,9
28740,-6e-05,-2e-05,2e-05,5e-05,0.00032,-0.00012,-9e-05,-0.00035,6,9
28741,-6e-05,-2e-05,2e-05,5e-05,0.00032,-0.00012,-9e-05,-0.00035,6,9
28742,-6e-05,-2e-05,2e-05,5e-05,0.00032,-0.00012,-9e-05,-0.00035,6,9
28743,-6e-05,-2e-05,2e-05,5e-05,0.00032,-0.00012,-9e-05,-0.00035,6,9
28744,-6e-05,-2e-05,2e-05,5e-05,0.00032,-0.00012,-9e-05,-0.00035,6,9
28745,-6e-05,-2e-05,2e-05,5e-05,0.00032,-0.00012,-9e-05,-0.00035,6,9
28746,-6e-05,-2e-05,2e-05,5e-05,0.00032,-0.00012,-9e-05,-0.00035,6,9
28747,-6e-05,-2e-05,2e-05,5e-05,0.00032,-0.00012,-9e-05,-0.00035,6,9
28748,-6e-05,-2e-05,2e-05,5e-05,0.00032,-0.00012,-9e-05,-0.00035,6,9
28749,0.00014,3e-05,-4e-05,-8e-05,-0.00036,-0.00091,-0.00034,0.00032,6,9
28750,0.00014,3e-05,-4e-05,-8e-05,-0.00036,-0.00091,-0.00034,0.00032,6,9
28751,0.00014,3e-05,-4e-05,-8e-05,-0.00036,-0.00091,-0.00034,0.00032,6,9
28752,0.00014,3e-05,-4e-05,-8e-05,-0.00036,-0.00091,-0.00034,0.00032,6,9
28753,0.00014,3e-05,-4e-05,-8e-05,-0.00036,-0.00091,-0.00034,0.00032,6,9
28754,0.00014,3e-05,-4e-05,-8e-05,-0.00036,-0.00091,-0.00034,0.00032,6,9
28755,0.00014,3e-05,-4e-05,-8e-05,-0.00036,-0.00091,-0.00034,0.00032,6,9
28756,0.00014,3e-05,-4e-05,-8e-05,-0.00036,-0.00091,-0.00034,0.00032,6,9
28757,0.00014,3e-05,-4e-05,-8e-05,-0.00036,-0.00091,-0.00034,0.00032,6,9
28758,2e-05,-2e-05,-9e-05,-0.00011,-0.00043,-0.00018,-0.00015,-0.00018,6,9
28759,2e-05,-2e-05,-9e-05,-0.00011,-0.00043,-0.00018,-0.00015,-0.00018,6,9
28760,2e-05,-2e-05,-9e-05,-0.00011,-0.00043,-0.00018,-0.00015,-0.00018,6,9
28761,2e-05,-2e-05,-9e-05,-0.00011,-0.00043,-0.00018,-0.00015,-0.00018,6,9
28762,2e-05,-2e-05,-9e-05,-0.00011,-0.00043,-0.00018,-0.00015,-0.00018,6,9
28763,2e-05,-2e-05,-9e-05,-0.00011,-0.00043,-0.00018,-0.00015,-0.00018,6,9
28764,2e-05,-2e-05,-9e-05,-0.00011,-0.00043,-0.00018,-0.00015,-0.00018,6,9
28765,2e-05,-2e-05,-9e-05,-0.00011,-0.00043,-0.00018,-0.00015,-0.00018,6,9
28766,2e-05,-2e-05,-9e-05,-0.00011,-0.00043,-0.00018,-0.00015,-0.00018,6,9
28767,2e-05,-2e-05,-9e-05,-0.00011,-0.00043,-0.00018,-0.00015,-0.00018,6,9
28768,2e-05,-2e-05,-9e-05,-0.00011,-0.00043,-0.00018,-0.00015,-0.00018,6,9
28769,2e-05,-2e-05,-9e-05,-0.00011,-0.00043,-0.00018,-0.00015,-0.00018,6,9
28770,2e-05,-2e-05,-9e-05,-0.00011,-0.00043,-0.00018,-0.00015,-0.00018,6,9
28771,2e-05,-2e-05,-9e-05,-0.00011,-0.00043,-0.00018,-0.00015,-0.00018,6,9
28772,2e-05,-2e-05,-9e-05,-0.00011,-0.00043,-0.00018,-0.00015,-0.00018,6,9
28773,5e-05,0.0001,0,-5e-05,-9e-05,-0.00046,-5e-05,-0.00013,6,9
28774,-0.00013,-0.00015,-8e-05,-4e-05,8e-05,0.00025,-0.00012,0.00011,6,9
28775,-9e-05,3e-05,-2e-05,-1e-05,-4e-05,-0.00037,7e-05,-0.00019,6,9
28776,-9e-05,3e-05,-2e-05,-1e-05,-4e-05,-0.00037,7e-05,-0.00019,6,9
28777,-9e-05,3e-05,-2e-05,-1e-05,-4e-05,-0.00037,7e-05,-0.00019,6,9
28778,-9e-05,3e-05,-2e-05,-1e-05,-4e-05,-0.00037,7e-05,-0.00019,6,9
28779,-9e-05,3e-05,-2e-05,-1e-05,-4e-05,-0.00037,7e-05,-0.00019,6,9
28780,-9e-05,3e-05,-2e-05,-1e-05,-4e-05,-0.00037,7e-05,-0.00019,6,9
28781,-9e-05,3e-05,-2e-05,-1e-05,-4e-05,-0.00037,7e-05,-0.00019,6,9
28782,-9e-05,3e-05,-2e-05,-1e-05,-4e-05,-0.00037,7e-05,-0.00019,6,9
28783,-9e-05,3e-05,-2e-05,-1e-05,-4e-05,-0.00037,7e-05,-0.00019,6,9
28784,-9e-05,3e-05,-2e-05,-1e-05,-4e-05,-0.00037,7e-05,-0.00019,6,9
28785,-9e-05,3e-05,-2e-05,-1e-05,-4e-05,-0.00037,7e-05,-0.00019,6,9
28786,-9e-05,3e-05,-2e-05,-1e-05,-4e-05,-0.00037,7e-05,-0.00019,6,9
28789,-9e-05,3e-05,-2e-05,-1e-05,-4e-05,-0.00037,7e-05,-0.00019,6,9
28790,-9e-05,3e-05,-2e-05,-1e-05,-4e-05,-0.00037,7e-05,-0.00019,6,9
28791,-9e-05,3e-05,-2e-05,-1e-05,-4e-05,-0.00037,7e-05,-0.00019,6,9
28792,-9e-05,3e-05,-2e-05,-1e-05,-4e-05,-0.00037,7e-05,-0.00019,6,9
28793,-9e-05,3e-05,-2e-05,-1e-05,-4e-05,-0.00037,7e-05,-0.00019,6,9
28794,-9e-05,3e-05,-2e-05,-1e-05,-4e-05,-0.00037,7e-05,-0.00019,6,9
28795,0,0,2e-05,-2e-05,-8e-05,0.00022,0.00018,-2e-05,6,9
28796,-8e-05,-7e-05,-9e-05,-8e-05,-5e-05,-0.00017,1e-05,0.00037,6,9
28797,-7e-05,-2e-05,-3e-05,-3e-05,4e-05,-5e-05,-1e-05,-0.00041,6,9
28798,-7e-05,-2e-05,-3e-05,-3e-05,4e-05,-5e-05,-1e-05,-0.00041,6,9
28799,-7e-05,-2e-05,-3e-05,-3e-05,4e-05,-5e-05,-1e-05,-0.00041,6,9
28800,-7e-05,-2e-05,-3e-05,-3e-05,4e-05,-5e-05,-1e-05,-0.00041,6,9
28801,-7e-05,-2e-05,-3e-05,-3e-05,4e-05,-5e-05,-1e-05,-0.00041,6,9
28802,-7e-05,-2e-05,-3e-05,-3e-05,4e-05,-5e-05,-1e-05,-0.00041,6,9
28803,-7e-05,-2e-05,-3e-05,-3e-05,4e-05,-5e-05,-1e-05,-0.00041,6,9
28804,-7e-05,-2e-05,-3e-05,-3e-05,4e-05,-5e-05,-1e-05,-0.00041,6,9
28805,-7e-05,-2e-05,-3e-05,-3e-05,4e-05,-5e-05,-1e-05,-0.00041,6,9
28806,-7e-05,-2e-05,-3e-05,-3e-05,4e-05,-5e-05,-1e-05,-0.00041,6,9
28807,-7e-05,-2e-05,-3e-05,-3e-05,4e-05,-5e-05,-1e-05,-0.00041,6,9
28808,-7e-05,-2e-05,-3e-05,-3e-05,4e-05,-5e-05,-1e-05,-0.00041,6,9
28809,-0.00012,-3e-05,-3e-05,-4e-05,-0.00011,-0.00023,-9e-05,-0.00023,6,9
28810,-0.00012,-3e-05,-3e-05,-4e-05,-0.00011,-0.00023,-9e-05,-0.00023,6,9
28811,-0.00012,-3e-05,-3e-05,-4e-05,-0.00011,-0.00023,-9e-05,-0.00023,6,9
28812,-0.00012,-3e-05,-3e-05,-4e-05,-0.00011,-0.00023,-9e-05,-0.00023,6,9
28813,-0.00012,-3e-05,-3e-05,-4e-05,-0.00011,-0.00023,-9e-05,-0.00023,6,9
28814,-0.00012,-3e-05,-3e-05,-4e-05,-0.00011,-0.00023,-9e-05,-0.00023,6,9
28815,-0.00012,-3e-05,-3e-05,-4e-05,-0.00011,-0.00023,-9e-05,-0.00023,6,9
28816,-0.00012,-3e-05,-3e-05,-4e-05,-0.00011,-0.00023,-9e-05,-0.00023,6,9
28817,-0.00012,-3e-05,-3e-05,-4e-05,-0.00011,-0.00023,-9e-05,-0.00023,6,9
28818,-9e-05,3e-05,4e-05,2e-05,-8e-05,-0.00015,0.00016,4e-05,6,9
28819,-9e-05,3e-05,4e-05,2e-05,-8e-05,-0.00015,0.00016,4e-05,6,9
28820,-9e-05,3e-05,4e-05,2e-05,-8e-05,-0.00015,0.00016,4e-05,6,9
28821,-9e-05,3e-05,4e-05,2e-05,-8e-05,-0.00015,0.00016,4e-05,6,9
28822,-9e-05,3e-05,4e-05,2e-05,-8e-05,-0.00015,0.00016,4e-05,6,9
28823,-9e-05,3e-05,4e-05,2e-05,-8e-05,-0.00015,0.00016,4e-05,6,9
28824,-9e-05,3e-05,4e-05,2e-05,-8e-05,-0.00015,0.00016,4e-05,6,9
28825,-9e-05,3e-05,4e-05,2e-05,-8e-05,-0.00015,0.00016,4e-05,6,9
28826,-9e-05,3e-05,4e-05,2e-05,-8e-05,-0.00015,0.00016,4e-05,6,9
28827,-9e-05,3e-05,4e-05,2e-05,-8e-05,-0.00015,0.00016,4e-05,6,9
28828,-9e-05,3e-05,4e-05,2e-05,-8e-05,-0.00015,0.00016,4e-05,6,9
28829,-9e-05,3e-05,4e-05,2e-05,-8e-05,-0.00015,0.00016,4e-05,6,9
28830,-9e-05,3e-05,4e-05,2e-05,-8e-05,-0.00015,0.00016,4e-05,6,9
28831,-9e-05,3e-05,4e-05,2e-05,-8e-05,-0.00015,0.00016,4e-05,6,9
28832,-9e-05,3e-05,4e-05,2e-05,-8e-05,-0.00015,0.00016,4e-05,6,9
28833,7e-05,0,0,0,8e-05,0.00026,-6e-05,0.00035,6,9
28834,-3e-05,-1e-05,4e-05,-3e-05,-0.00018,-0.00064,0.00017,-0.00025,6,9
28835,-1e-05,-5e-05,-0.00011,-6e-05,0.00013,0.00024,-0.00013,0.00038,6,9
28836,-1e-05,-5e-05,-0.00011,-6e-05,0.00013,0.00024,-0.00013,0.00038,6,9
28839,-1e-05,-5e-05,-0.00011,-6e-05,0.00013,0.00024,-0.00013,0.00038,6,9
28840,-1e-05,-5e-05,-0.00011,-6e-05,0.00013,0.00024,-0.00013,0.00038,6,9
28841,-1e-05,-5e-05,-0.00011,-6e-05,0.00013,0.00024,-0.00013,0.00038,6,9
28842,-1e-05,-5e-05,-0.00011,-6e-05,0.00013,0.00024,-0.00013,0.00038,6,9
28843,-1e-05,-5e-05,-0.00011,-6e-05,0.00013,0.00024,-0.00013,0.00038,6,9
28844,-1e-05,-5e-05,-0.00011,-6e-05,0.00013,0.00024,-0.00013,0.00038,6,9
28845,-1e-05,-5e-05,-0.00011,-6e-05,0.00013,0.00024,-0.00013,0.00038,6,9
28846,-1e-05,-5e-05,-0.00011,-6e-05,0.00013,0.00024,-0.00013,0.00038,6,9
28847,-1e-05,-5e-05,-0.00011,-6e-05,0.00013,0.00024,-0.00013,0.00038,6,9
28848,-1e-05,-5e-05,-0.00011,-6e-05,0.00013,0.00024,-0.00013,0.00038,6,9
28849,-1e-05,-5e-05,-0.00011,-6e-05,0.00013,0.00024,-0.00013,0.00038,6,9
28850,-1e-05,-5e-05,-0.00011,-6e-05,0.00013,0.00024,-0.00013,0.00038,6,9
28851,-1e-05,-5e-05,-0.00011,-6e-05,0.00013,0.00024,-0.00013,0.00038,6,9
28852,-1e-05,-5e-05,-0.00011,-6e-05,0.00013,0.00024,-0.00013,0.00038,6,9
28853,-1e-05,-5e-05,-0.00011,-6e-05,0.00013,0.00024,-0.00013,0.00038,6,9
28854,-1e-05,-5e-05,-0.00011,-6e-05,0.00013,0.00024,-0.00013,0.00038,6,9
28855,-9e-05,-9e-05,3e-05,-1e-05,3e-05,0.00065,0,0.0001,6,9
28856,-9e-05,-9e-05,3e-05,-1e-05,3e-05,0.00065,0,0.0001,6,9
28857,8e-05,-3e-05,-7e-05,-4e-05,1e-05,0.00024,-7e-05,-8e-05,6,9
28858,6e-05,8e-05,5e-05,0,-0.00012,-0.00074,-0.00017,-0.00027,6,9
28859,6e-05,8e-05,5e-05,0,-0.00012,-0.00074,-0.00017,-0.00027,6,9
28860,6e-05,8e-05,5e-05,0,-0.00012,-0.00074,-0.00017,-0.00027,6,9
28861,6e-05,8e-05,5e-05,0,-0.00012,-0.00074,-0.00017,-0.00027,6,9
28862,6e-05,8e-05,5e-05,0,-0.00012,-0.00074,-0.00017,-0.00027,6,9
28863,6e-05,8e-05,5e-05,0,-0.00012,-0.00074,-0.00017,-0.00027,6,9
28864,6e-05,8e-05,5e-05,0,-0.00012,-0.00074,-0.00017,-0.00027,6,9
28865,6e-05,8e-05,5e-05,0,-0.00012,-0.00074,-0.00017,-0.00027,6,9
28866,6e-05,8e-05,5e-05,0,-0.00012,-0.00074,-0.00017,-0.00027,6,9
28867,6e-05,8e-05,5e-05,0,-0.00012,-0.00074,-0.00017,-0.00027,6,9
28868,6e-05,8e-05,5e-05,0,-0.00012,-0.00074,-0.00017,-0.00027,6,9
28869,8e-05,3e-05,-6e-05,-4e-05,6e-05,-0.00052,5e-05,0.00021,6,9
28870,8e-05,3e-05,-6e-05,-4e-05,6e-05,-0.00052,5e-05,0.00021,6,9
28871,8e-05,3e-05,-6e-05,-4e-05,6e-05,-0.00052,5e-05,0.00021,6,9
28872,8e-05,3e-05,-6e-05,-4e-05,6e-05,-0.00052,5e-05,0.00021,6,9
28873,8e-05,3e-05,-6e-05,-4e-05,6e-05,-0.00052,5e-05,0.00021,6,9
28874,8e-05,3e-05,-6e-05,-4e-05,6e-05,-0.00052,5e-05,0.00021,6,9
28875,8e-05,3e-05,-6e-05,-4e-05,6e-05,-0.00052,5e-05,0.00021,6,9
28876,8e-05,3e-05,-6e-05,-4e-05,6e-05,-0.00052,5e-05,0.00021,6,9
28877,-7e-05,-4e-05,-7e-05,-0.00013,-7e-05,0.00017,-2e-05,0.0003,6,9
28878,-0.00011,0,1e-05,9e-05,0.00032,0.00014,-1e-05,0.00024,6,9
28879,-0.00011,0,1e-05,9e-05,0.00032,0.00014,-1e-05,0.00024,6,9
28880,-0.00011,0,1e-05,9e-05,0.00032,0.00014,-1e-05,0.00024,6,9
28881,-0.00011,0,1e-05,9e-05,0.00032,0.00014,-1e-05,0.00024,6,9
28882,-0.00011,0,1e-05,9e-05,0.00032,0.00014,-1e-05,0.00024,6,9
28884,-0.00011,0,1e-05,9e-05,0.00032,0.00014,-1e-05,0.00024,6,9
28885,-0.00011,0,1e-05,9e-05,0.00032,0.00014,-1e-05,0.00024,6,9
28886,-0.00011,0,1e-05,9e-05,0.00032,0.00014,-1e-05,0.00024,6,9
28889,-0.00011,0,1e-05,9e-05,0.00032,0.00014,-1e-05,0.00024,6,9
28890,-0.00011,0,1e-05,9e-05,0.00032,0.00014,-1e-05,0.00024,6,9
28891,-0.00011,0,1e-05,9e-05,0.00032,0.00014,-1e-05,0.00024,6,9
28892,-0.00011,0,1e-05,9e-05,0.00032,0.00014,-1e-05,0.00024,6,9
28893,-1e-05,0,-2e-05,3e-05,-0.0001,-0.00042,-0.00023,0.0001,6,9
28894,-6e-05,-2e-05,2e-05,7e-05,0.00023,0.00034,-6e-05,-0.00036,6,9
28895,6e-05,4e-05,-2e-05,-0.0001,-0.00026,-2e-05,0.00011,4e-05,6,9
28896,6e-05,4e-05,-2e-05,-0.0001,-0.00026,-2e-05,0.00011,4e-05,6,9
28897,6e-05,4e-05,-2e-05,-0.0001,-0.00026,-2e-05,0.00011,4e-05,6,9
28898,6e-05,4e-05,-2e-05,-0.0001,-0.00026,-2e-05,0.00011,4e-05,6,9
28899,6e-05,4e-05,-2e-05,-0.0001,-0.00026,-2e-05,0.00011,4e-05,6,9
28900,6e-05,4e-05,-2e-05,-0.0001,-0.00026,-2e-05,0.00011,4e-05,6,9
28901,6e-05,4e-05,-2e-05,-0.0001,-0.00026,-2e-05,0.00011,4e-05,6,9
28902,6e-05,4e-05,-2e-05,-0.0001,-0.00026,-2e-05,0.00011,4e-05,6,9
28904,6e-05,4e-05,-2e-05,-0.0001,-0.00026,-2e-05,0.00011,4e-05,6,9
28905,6e-05,4e-05,-2e-05,-0.0001,-0.00026,-2e-05,0.00011,4e-05,6,9
28906,6e-05,4e-05,-2e-05,-0.0001,-0.00026,-2e-05,0.00011,4e-05,6,9
28907,6e-05,4e-05,-2e-05,-0.0001,-0.00026,-2e-05,0.00011,4e-05,6,9
28908,6e-05,4e-05,-2e-05,-0.0001,-0.00026,-2e-05,0.00011,4e-05,6,9
28909,6e-05,4e-05,-2e-05,-0.0001,-0.00026,-2e-05,0.00011,4e-05,6,9
28910,6e-05,4e-05,-2e-05,-0.0001,-0.00026,-2e-05,0.00011,4e-05,6,9
28911,6e-05,4e-05,-2e-05,-0.0001,-0.00026,-2e-05,0.00011,4e-05,6,9
28912,6e-05,4e-05,-2e-05,-0.0001,-0.00026,-2e-05,0.00011,4e-05,6,9
28914,6e-05,4e-05,-2e-05,-0.0001,-0.00026,-2e-05,0.00011,4e-05,6,9
28915,6e-05,4e-05,-2e-05,-0.0001,-0.00026,-2e-05,0.00011,4e-05,6,9
28916,-0.0002,-4e-05,-4e-05,-4e-05,-0.00013,-0.00022,-0.00012,-0.00022,6,9
28917,3e-05,0,3e-05,2e-05,7e-05,0.00073,0,-6e-05,6,9
28918,3e-05,0,3e-05,2e-05,7e-05,0.00073,0,-6e-05,6,9
28919,3e-05,0,3e-05,2e-05,7e-05,0.00073,0,-6e-05,6,9
28920,3e-05,0,3e-05,2e-05,7e-05,0.00073,0,-6e-05,6,9
28921,3e-05,0,3e-05,2e-05,7e-05,0.00073,0,-6e-05,6,9
28922,3e-05,0,3e-05,2e-05,7e-05,0.00073,0,-6e-05,6,9
28923,3e-05,0,3e-05,2e-05,7e-05,0.00073,0,-6e-05,6,9
28924,3e-05,0,3e-05,2e-05,7e-05,0.00073,0,-6e-05,6,9
28925,3e-05,0,3e-05,2e-05,7e-05,0.00073,0,-6e-05,6,9
28926,3e-05,0,3e-05,2e-05,7e-05,0.00073,0,-6e-05,6,9
28927,3e-05,0,3e-05,2e-05,7e-05,0.00073,0,-6e-05,6,9
28928,3e-05,0,3e-05,2e-05,7e-05,0.00073,0,-6e-05,6,9
28929,-0.0001,-5e-05,-5e-05,-6e-05,-1e-05,4e-05,0.00011,-0.00051,6,9
28930,-0.0001,-5e-05,-5e-05,-6e-05,-1e-05,4e-05,0.00011,-0.00051,6,9
28931,-0.0001,-5e-05,-5e-05,-6e-05,-1e-05,4e-05,0.00011,-0.00051,6,9
28932,-0.0001,-5e-05,-5e-05,-6e-05,-1e-05,4e-05,0.00011,-0.00051,6,9
28933,-0.0001,-5e-05,-5e-05,-6e-05,-1e-05,4e-05,0.00011,-0.00051,6,9
28934,-0.0001,-5e-05,-5e-05,-6e-05,-1e-05,4e-05,0.00011,-0.00051,6,9
28935,-0.0001,-5e-05,-5e-05,-6e-05,-1e-05,4e-05,0.00011,-0.00051,6,9
28936,-0.0001,-5e-05,-5e-05,-6e-05,-1e-05,4e-05,0.00011,-0.00051,6,9
28939,-0.0001,-5e-05,-5e-05,-6e-05,-1e-05,4e-05,0.00011,-0.00051,6,9
28940,-7e-05,-7e-05,2e-05,-3e-05,-0.00011,-0.00085,-0.00016,-7e-05,6,9
28941,-7e-05,-7e-05,2e-05,-3e-05,-0.00011,-0.00085,-0.00016,-7e-05,6,9
28942,-7e-05,-7e-05,2e-05,-3e-05,-0.00011,-0.00085,-0.00016,-7e-05,6,9
28943,-7e-05,-7e-05,2e-05,-3e-05,-0.00011,-0.00085,-0.00016,-7e-05,6,9
28944,-7e-05,-7e-05,2e-05,-3e-05,-0.00011,-0.00085,-0.00016,-7e-05,6,9
28945,-7e-05,-7e-05,2e-05,-3e-05,-0.00011,-0.00085,-0.00016,-7e-05,6,9
28946,-7e-05,-7e-05,2e-05,-3e-05,-0.00011,-0.00085,-0.00016,-7e-05,6,9
28947,-7e-05,-7e-05,2e-05,-3e-05,-0.00011,-0.00085,-0.00016,-7e-05,6,9
28948,-7e-05,-7e-05,2e-05,-3e-05,-0.00011,-0.00085,-0.00016,-7e-05,6,9
28949,-7e-05,-7e-05,2e-05,-3e-05,-0.00011,-0.00085,-0.00016,-7e-05,6,9
28951,-7e-05,-7e-05,2e-05,-3e-05,-0.00011,-0.00085,-0.00016,-7e-05,6,9
28952,-6e-05,0,2e-05,0.00011,0.00032,0.00067,0.00011,1e-05,6,9
28953,-6e-05,0,2e-05,0.00011,0.00032,0.00067,0.00011,1e-05,6,9
28954,-6e-05,0,2e-05,0.00011,0.00032,0.00067,0.00011,1e-05,6,9
28955,-6e-05,0,2e-05,0.00011,0.00032,0.00067,0.00011,1e-05,6,9
28956,-6e-05,0,2e-05,0.00011,0.00032,0.00067,0.00011,1e-05,6,9
28957,-6e-05,0,2e-05,0.00011,0.00032,0.00067,0.00011,1e-05,6,9
28958,-6e-05,0,2e-05,0.00011,0.00032,0.00067,0.00011,1e-05,6,9
28959,6e-05,-4e-05,0,-5e-05,5e-05,-8e-05,-8e-05,-0.00012,6,9
28960,6e-05,-4e-05,0,-5e-05,5e-05,-8e-05,-8e-05,-0.00012,6,9
28961,6e-05,-4e-05,0,-5e-05,5e-05,-8e-05,-8e-05,-0.00012,6,9
28962,6e-05,-4e-05,0,-5e-05,5e-05,-8e-05,-8e-05,-0.00012,6,9
28963,6e-05,-4e-05,0,-5e-05,5e-05,-8e-05,-8e-05,-0.00012,6,9
28964,6e-05,-4e-05,0,-5e-05,5e-05,-8e-05,-8e-05,-0.00012,6,9
28965,6e-05,-4e-05,0,-5e-05,5e-05,-8e-05,-8e-05,-0.00012,6,9
28966,6e-05,-4e-05,0,-5e-05,5e-05,-8e-05,-8e-05,-0.00012,6,9
28967,6e-05,-4e-05,0,-5e-05,5e-05,-8e-05,-8e-05,-0.00012,6,9
28968,6e-05,-4e-05,0,-5e-05,5e-05,-8e-05,-8e-05,-0.00012,6,9
28969,6e-05,-4e-05,0,-5e-05,5e-05,-8e-05,-8e-05,-0.00012,6,9
28970,6e-05,-4e-05,0,-5e-05,5e-05,-8e-05,-8e-05,-0.00012,6,9
28971,6e-05,-4e-05,0,-5e-05,5e-05,-8e-05,-8e-05,-0.00012,6,9
28972,6e-05,-4e-05,0,-5e-05,5e-05,-8e-05,-8e-05,-0.00012,6,9
28973,6e-05,-4e-05,0,-5e-05,5e-05,-8e-05,-8e-05,-0.00012,6,9
28974,6e-05,-4e-05,0,-5e-05,5e-05,-8e-05,-8e-05,-0.00012,6,9
28975,0,-4e-05,-3e-05,5e-05,0.0002,0.00055,-8e-05,9e-05,6,9
28976,0,-4e-05,-3e-05,5e-05,0.0002,0.00055,-8e-05,9e-05,6,9
28977,-0.00013,-0.00011,-0.00011,-9e-05,-0.00016,0.0004,-1e-05,-2e-05,6,9
28978,-0.00013,-0.00011,-0.00011,-9e-05,-0.00016,0.0004,-1e-05,-2e-05,6,9
28979,-0.00013,-0.00011,-0.00011,-9e-05,-0.00016,0.0004,-1e-05,-2e-05,6,9
28980,-0.00013,-0.00011,-0.00011,-9e-05,-0.00016,0.0004,-1e-05,-2e-05,6,9
28981,-0.00013,-0.00011,-0.00011,-9e-05,-0.00016,0.0004,-1e-05,-2e-05,6,9
28982,-0.00013,-0.00011,-0.00011,-9e-05,-0.00016,0.0004,-1e-05,-2e-05,6,9
28983,-0.00013,-0.00011,-0.00011,-9e-05,-0.00016,0.0004,-1e-05,-2e-05,6,9
28984,-0.00013,-0.00011,-0.00011,-9e-05,-0.00016,0.0004,-1e-05,-2e-05,6,9
28985,-0.00013,-0.00011,-0.00011,-9e-05,-0.00016,0.0004,-1e-05,-2e-05,6,9
28986,-0.00013,-0.00011,-0.00011,-9e-05,-0.00016,0.0004,-1e-05,-2e-05,6,9
28989,-0.00013,-0.00011,-0.00011,-9e-05,-0.00016,0.0004,-1e-05,-2e-05,6,9
28990,-0.00013,-0.00011,-0.00011,-9e-05,-0.00016,0.0004,-1e-05,-2e-05,6,9
28991,-0.00013,-0.00011,-0.00011,-9e-05,-0.00016,0.0004,-1e-05,-2e-05,6,9
28992,-0.00013,-0.00011,-0.00011,-9e-05,-0.00016,0.0004,-1e-05,-2e-05,6,9
28993,-0.00013,-0.00011,-0.00011,-9e-05,-0.00016,0.0004,-1e-05,-2e-05,6,9
28994,-0.00013,-0.00011,-0.00011,-9e-05,-0.00016,0.0004,-1e-05,-2e-05,6,9
28995,-0.00013,-0.00011,-0.00011,-9e-05,-0.00016,0.0004,-1e-05,-2e-05,6,9
28996,-0.00013,-0.00011,-0.00011,-9e-05,-0.00016,0.0004,-1e-05,-2e-05,6,9
28997,-0.00013,-0.00011,-0.00011,-9e-05,-0.00016,0.0004,-1e-05,-2e-05,6,9
28998,2e-05,1e-05,9e-05,2e-05,1e-05,-0.00027,0.00016,0.00032,6,9
28999,-4e-05,2e-05,4e-05,-2e-05,-8e-05,1e-05,5e-05,-7e-05,6,9
29000,0.00016,0,2e-05,-1e-05,4e-05,4e-05,4e-05,-6e-05,6,9
29001,0.00016,0,2e-05,-1e-05,4e-05,4e-05,4e-05,-6e-05,6,9
29002,0.00016,0,2e-05,-1e-05,4e-05,4e-05,4e-05,-6e-05,6,9
29003,0.00016,0,2e-05,-1e-05,4e-05,4e-05,4e-05,-6e-05,6,9
29004,0.00016,0,2e-05,-1e-05,4e-05,4e-05,4e-05,-6e-05,6,9
29005,0.00016,0,2e-05,-1e-05,4e-05,4e-05,4e-05,-6e-05,6,9
29006,0.00016,0,2e-05,-1e-05,4e-05,4e-05,4e-05,-6e-05,6,9
29007,0.00016,0,2e-05,-1e-05,4e-05,4e-05,4e-05,-6e-05,6,9
29008,0.00016,0,2e-05,-1e-05,4e-05,4e-05,4e-05,-6e-05,6,9
29009,0.00016,0,2e-05,-1e-05,4e-05,4e-05,4e-05,-6e-05,6,9
29010,0.00016,0,2e-05,-1e-05,4e-05,4e-05,4e-05,-6e-05,6,9
29011,0.00016,0,2e-05,-1e-05,4e-05,4e-05,4e-05,-6e-05,6,9
29012,0.00016,0,2e-05,-1e-05,4e-05,4e-05,4e-05,-6e-05,6,9
29013,-2e-05,0,-4e-05,-3e-05,-6e-05,-0.00016,-9e-05,0,6,9
29014,0,-4e-05,-1e-05,-6e-05,-6e-05,-8e-05,-5e-05,0.00025,6,9
29015,0,7e-05,5e-05,0.0001,-4e-05,-0.00057,0.00012,-0.00048,6,9
29016,0,7e-05,5e-05,0.0001,-4e-05,-0.00057,0.00012,-0.00048,6,9
29017,0,7e-05,5e-05,0.0001,-4e-05,-0.00057,0.00012,-0.00048,6,9
29018,0,7e-05,5e-05,0.0001,-4e-05,-0.00057,0.00012,-0.00048,6,9
29019,0,7e-05,5e-05,0.0001,-4e-05,-0.00057,0.00012,-0.00048,6,9
29020,0,7e-05,5e-05,0.0001,-4e-05,-0.00057,0.00012,-0.00048,6,9
29021,0,7e-05,5e-05,0.0001,-4e-05,-0.00057,0.00012,-0.00048,6,9
29022,0,7e-05,5e-05,0.0001,-4e-05,-0.00057,0.00012,-0.00048,6,9
29023,0,7e-05,5e-05,0.0001,-4e-05,-0.00057,0.00012,-0.00048,6,9
29024,0,7e-05,5e-05,0.0001,-4e-05,-0.00057,0.00012,-0.00048,6,9
29025,0,7e-05,5e-05,0.0001,-4e-05,-0.00057,0.00012,-0.00048,6,9
29026,0,7e-05,5e-05,0.0001,-4e-05,-0.00057,0.00012,-0.00048,6,9
29027,0,7e-05,5e-05,0.0001,-4e-05,-0.00057,0.00012,-0.00048,6,9
29028,0,7e-05,5e-05,0.0001,-4e-05,-0.00057,0.00012,-0.00048,6,9
29029,0,7e-05,5e-05,0.0001,-4e-05,-0.00057,0.00012,-0.00048,6,9
29030,0,7e-05,5e-05,0.0001,-4e-05,-0.00057,0.00012,-0.00048,6,9
29031,0,7e-05,5e-05,0.0001,-4e-05,-0.00057,0.00012,-0.00048,6,9
29032,0,7e-05,5e-05,0.0001,-4e-05,-0.00057,0.00012,-0.00048,6,9
29033,0,7e-05,5e-05,0.0001,-4e-05,-0.00057,0.00012,-0.00048,6,9
29034,0,7e-05,5e-05,0.0001,-4e-05,-0.00057,0.00012,-0.00048,6,9
29035,-4e-05,1e-05,1e-05,1e-05,-0.00012,-0.00041,-0.00018,-0.00033,6,9
29036,-4e-05,1e-05,1e-05,1e-05,-0.00012,-0.00041,-0.00018,-0.00033,6,9
29039,-8e-05,-1e-05,-5e-05,1e-05,-4e-05,0.00021,-4e-05,-3e-05,6,9
29040,-8e-05,-1e-05,-5e-05,1e-05,-4e-05,0.00021,-4e-05,-3e-05,6,9
29041,-8e-05,-1e-05,-5e-05,1e-05,-4e-05,0.00021,-4e-05,-3e-05,6,9
29042,-8e-05,-1e-05,-5e-05,1e-05,-4e-05,0.00021,-4e-05,-3e-05,6,9
29043,-8e-05,-1e-05,-5e-05,1e-05,-4e-05,0.00021,-4e-05,-3e-05,6,9
29044,-8e-05,-1e-05,-5e-05,1e-05,-4e-05,0.00021,-4e-05,-3e-05,6,9
29045,-8e-05,-1e-05,-5e-05,1e-05,-4e-05,0.00021,-4e-05,-3e-05,6,9
29046,-8e-05,-1e-05,-5e-05,1e-05,-4e-05,0.00021,-4e-05,-3e-05,6,9
29047,-8e-05,-1e-05,-5e-05,1e-05,-4e-05,0.00021,-4e-05,-3e-05,6,9
29048,-8e-05,-1e-05,-5e-05,1e-05,-4e-05,0.00021,-4e-05,-3e-05,6,9
29049,-8e-05,-1e-05,-5e-05,1e-05,-4e-05,0.00021,-4e-05,-3e-05,6,9
29050,-8e-05,-1e-05,-5e-05,1e-05,-4e-05,0.00021,-4e-05,-3e-05,6,9
29051,-8e-05,-1e-05,-5e-05,1e-05,-4e-05,0.00021,-4e-05,-3e-05,6,9
29052,-8e-05,-1e-05,-5e-05,1e-05,-4e-05,0.00021,-4e-05,-3e-05,6,9
29053,-8e-05,-1e-05,-5e-05,1e-05,-4e-05,0.00021,-4e-05,-3e-05,6,9
29054,-8e-05,-1e-05,-5e-05,1e-05,-4e-05,0.00021,-4e-05,-3e-05,6,9
29055,-8e-05,-1e-05,-5e-05,1e-05,-4e-05,0.00021,-4e-05,-3e-05,6,9
29056,-8e-05,-1e-05,-5e-05,1e-05,-4e-05,0.00021,-4e-05,-3e-05,6,9
29057,-8e-05,-1e-05,-5e-05,1e-05,-4e-05,0.00021,-4e-05,-3e-05,6,9
29058,0,-1e-05,3e-05,9e-05,0.00043,0.00016,0.00016,-2e-05,6,9
29059,0.00013,2e-05,-3e-05,2e-05,-1e-05,-0.00024,0.00013,0.0001,6,9
29060,-6e-05,-5e-05,-4e-05,-4e-05,1e-05,-7e-05,1e-05,-0.00033,6,9
29061,-6e-05,-5e-05,-4e-05,-4e-05,1e-05,-7e-05,1e-05,-0.00033,6,9
29062,-6e-05,-5e-05,-4e-05,-4e-05,1e-05,-7e-05,1e-05,-0.00033,6,9
29064,-6e-05,-5e-05,-4e-05,-4e-05,1e-05,-7e-05,1e-05,-0.00033,6,9
29065,-6e-05,-5e-05,-4e-05,-4e-05,1e-05,-7e-05,1e-05,-0.00033,6,9
29066,-6e-05,-5e-05,-4e-05,-4e-05,1e-05,-7e-05,1e-05,-0.00033,6,9
29067,-6e-05,-5e-05,-4e-05,-4e-05,1e-05,-7e-05,1e-05,-0.00033,6,9
29068,-6e-05,-5e-05,-4e-05,-4e-05,1e-05,-7e-05,1e-05,-0.00033,6,9
29069,-6e-05,-5e-05,-4e-05,-4e-05,1e-05,-7e-05,1e-05,-0.00033,6,9
29070,-6e-05,-5e-05,-4e-05,-4e-05,1e-05,-7e-05,1e-05,-0.00033,6,9
29071,-6e-05,-5e-05,-4e-05,-4e-05,1e-05,-7e-05,1e-05,-0.00033,6,9
29072,-6e-05,-5e-05,-4e-05,-4e-05,1e-05,-7e-05,1e-05,-0.00033,6,9
29073,-6e-05,-5e-05,-4e-05,-4e-05,1e-05,-7e-05,1e-05,-0.00033,6,9
29074,-2e-05,4e-05,5e-05,2e-05,-1e-05,3e-05,8e-05,6e-05,6,9
29075,2e-05,-1e-05,-1e-05,-3e-05,5e-05,0.00058,-0.00011,0.00021,6,9
29076,2e-05,-1e-05,-1e-05,-3e-05,5e-05,0.00058,-0.00011,0.00021,6,9
29077,2e-05,-1e-05,-1e-05,-3e-05,5e-05,0.00058,-0.00011,0.00021,6,9
29078,2e-05,-1e-05,-1e-05,-3e-05,5e-05,0.00058,-0.00011,0.00021,6,9
29079,2e-05,-1e-05,-1e-05,-3e-05,5e-05,0.00058,-0.00011,0.00021,6,9
29080,2e-05,-1e-05,-1e-05,-3e-05,5e-05,0.00058,-0.00011,0.00021,6,9
29081,2e-05,-1e-05,-1e-05,-3e-05,5e-05,0.00058,-0.00011,0.00021,6,9
29082,2e-05,-1e-05,-1e-05,-3e-05,5e-05,0.00058,-0.00011,0.00021,6,9
29083,2e-05,-1e-05,-1e-05,-3e-05,5e-05,0.00058,-0.00011,0.00021,6,9
29084,2e-05,-1e-05,-1e-05,-3e-05,5e-05,0.00058,-0.00011,0.00021,6,9
29085,2e-05,-1e-05,-1e-05,-3e-05,5e-05,0.00058,-0.00011,0.00021,6,9
29086,2e-05,-1e-05,-1e-05,-3e-05,5e-05,0.00058,-0.00011,0.00021,6,9
29089,2e-05,-1e-05,-1e-05,-3e-05,5e-05,0.00058,-0.00011,0.00021,6,9
29090,2e-05,-1e-05,-1e-05,-3e-05,5e-05,0.00058,-0.00011,0.00021,6,9
29091,2e-05,-1e-05,-1e-05,-3e-05,5e-05,0.00058,-0.00011,0.00021,6,9
29092,2e-05,-1e-05,-1e-05,-3e-05,5e-05,0.00058,-0.00011,0.00021,6,9
29093,2e-05,-1e-05,-1e-05,-3e-05,5e-05,0.00058,-0.00011,0.00021,6,9
29094,2e-05,-1e-05,-1e-05,-3e-05,5e-05,0.00058,-0.00011,0.00021,6,9
29095,-3e-05,5e-05,3e-05,4e-05,-1e-05,-0.00017,-1e-05,-4e-05,6,9
29096,0,-9e-05,-7e-05,-7e-05,-9e-05,0.00015,0.00014,-0.00011,6,9
29097,3e-05,-5e-05,-3e-05,-5e-05,-0.00024,-0.00076,1e-05,-1e-05,6,9
29098,3e-05,-5e-05,-3e-05,-5e-05,-0.00024,-0.00076,1e-05,-1e-05,6,9
29099,3e-05,-5e-05,-3e-05,-5e-05,-0.00024,-0.00076,1e-05,-1e-05,6,9
29100,3e-05,-5e-05,-3e-05,-5e-05,-0.00024,-0.00076,1e-05,-1e-05,6,9
29101,3e-05,-5e-05,-3e-05,-5e-05,-0.00024,-0.00076,1e-05,-1e-05,6,9
29102,3e-05,-5e-05,-3e-05,-5e-05,-0.00024,-0.00076,1e-05,-1e-05,6,9
29103,3e-05,-5e-05,-3e-05,-5e-05,-0.00024,-0.00076,1e-05,-1e-05,6,9
29104,3e-05,-5e-05,-3e-05,-5e-05,-0.00024,-0.00076,1e-05,-1e-05,6,9
29105,3e-05,-5e-05,-3e-05,-5e-05,-0.00024,-0.00076,1e-05,-1e-05,6,9
29106,3e-05,-5e-05,-3e-05,-5e-05,-0.00024,-0.00076,1e-05,-1e-05,6,9
29107,3e-05,-5e-05,-3e-05,-5e-05,-0.00024,-0.00076,1e-05,-1e-05,6,9
29108,3e-05,-5e-05,-3e-05,-5e-05,-0.00024,-0.00076,1e-05,-1e-05,6,9
29109,3e-05,-5e-05,-3e-05,-5e-05,-0.00024,-0.00076,1e-05,-1e-05,6,9
29110,3e-05,-5e-05,-3e-05,-5e-05,-0.00024,-0.00076,1e-05,-1e-05,6,9
29111,3e-05,-5e-05,-3e-05,-5e-05,-0.00024,-0.00076,1e-05,-1e-05,6,9
29112,3e-05,-5e-05,-3e-05,-5e-05,-0.00024,-0.00076,1e-05,-1e-05,6,9
29114,3e-05,-5e-05,-3e-05,-5e-05,-0.00024,-0.00076,1e-05,-1e-05,6,9
29115,3e-05,-5e-05,-3e-05,-5e-05,-0.00024,-0.00076,1e-05,-1e-05,6,9
29116,3e-05,-5e-05,-3e-05,-5e-05,-0.00024,-0.00076,1e-05,-1e-05,6,9
29117,3e-05,-5e-05,-3e-05,-5e-05,-0.00024,-0.00076,1e-05,-1e-05,6,9
29118,0.00014,1e-05,1e-05,-4e-05,5e-05,0.00052,0.00024,0.00059,6,9
29119,-0.00016,-3e-05,-1e-05,6e-05,0.00011,0.00029,-7e-05,-0.00085,6,9
29120,-7e-05,-6e-05,-3e-05,-7e-05,-9e-05,-0.00033,-8e-05,0.00021,6,9
29121,-7e-05,-6e-05,-3e-05,-7e-05,-9e-05,-0.00033,-8e-05,0.00021,6,9
29122,-7e-05,-6e-05,-3e-05,-7e-05,-9e-05,-0.00033,-8e-05,0.00021,6,9
29123,-7e-05,-6e-05,-3e-05,-7e-05,-9e-05,-0.00033,-8e-05,0.00021,6,9
29124,-7e-05,-6e-05,-3e-05,-7e-05,-9e-05,-0.00033,-8e-05,0.00021,6,9
29125,-7e-05,-6e-05,-3e-05,-7e-05,-9e-05,-0.00033,-8e-05,0.00021,6,9
29126,-7e-05,-6e-05,-3e-05,-7e-05,-9e-05,-0.00033,-8e-05,0.00021,6,9
29127,-7e-05,-6e-05,-3e-05,-7e-05,-9e-05,-0.00033,-8e-05,0.00021,6,9
29128,-7e-05,-6e-05,-3e-05,-7e-05,-9e-05,-0.00033,-8e-05,0.00021,6,9
29129,-7e-05,-6e-05,-3e-05,-7e-05,-9e-05,-0.00033,-8e-05,0.00021,6,9
29130,-7e-05,-6e-05,-3e-05,-7e-05,-9e-05,-0.00033,-8e-05,0.00021,6,9
29131,-7e-05,-6e-05,-3e-05,-7e-05,-9e-05,-0.00033,-8e-05,0.00021,6,9
29132,-2e-05,0,-2e-05,0,-8e-05,0.0002,4e-05,-3e-05,6,9
29133,-2e-05,0,-2e-05,0,-8e-05,0.0002,4e-05,-3e-05,6,9
29134,-2e-05,0,-2e-05,0,-8e-05,0.0002,4e-05,-3e-05,6,9
29135,-2e-05,0,-2e-05,0,-8e-05,0.0002,4e-05,-3e-05,6,9
29136,-2e-05,0,-2e-05,0,-8e-05,0.0002,4e-05,-3e-05,6,9
29139,-8e-05,-1e-05,0,0,7e-05,0.00035,3e-05,1e-05,6,9
29140,-8e-05,-1e-05,0,0,7e-05,0.00035,3e-05,1e-05,6,9
29141,-8e-05,-1e-05,0,0,7e-05,0.00035,3e-05,1e-05,6,9
29142,-8e-05,-1e-05,0,0,7e-05,0.00035,3e-05,1e-05,6,9
29143,-8e-05,-1e-05,0,0,7e-05,0.00035,3e-05,1e-05,6,9
29144,-8e-05,-1e-05,0,0,7e-05,0.00035,3e-05,1e-05,6,9
29145,-8e-05,-1e-05,0,0,7e-05,0.00035,3e-05,1e-05,6,9
29146,-8e-05,-1e-05,0,0,7e-05,0.00035,3e-05,1e-05,6,9
29147,-8e-05,-1e-05,0,0,7e-05,0.00035,3e-05,1e-05,6,9
29148,-8e-05,-1e-05,0,0,7e-05,0.00035,3e-05,1e-05,6,9
29149,-8e-05,-1e-05,0,0,7e-05,0.00035,3e-05,1e-05,6,9
29150,-8e-05,-1e-05,0,0,7e-05,0.00035,3e-05,1e-05,6,9
29151,-8e-05,-1e-05,0,0,7e-05,0.00035,3e-05,1e-05,6,9
29152,-8e-05,-1e-05,0,0,7e-05,0.00035,3e-05,1e-05,6,9
29154,-8e-05,-1e-05,0,0,7e-05,0.00035,3e-05,1e-05,6,9
29155,-8e-05,-1e-05,0,0,7e-05,0.00035,3e-05,1e-05,6,9
29156,2e-05,-2e-05,-3e-05,-7e-05,-0.00015,-0.0001,-9e-05,-0.00014,6,9
29157,-3e-05,-1e-05,0,7e-05,-7e-05,-0.00012,-5e-05,-0.00043,6,9
29158,-3e-05,-1e-05,0,7e-05,-7e-05,-0.00012,-5e-05,-0.00043,6,9
29159,-3e-05,-1e-05,0,7e-05,-7e-05,-0.00012,-5e-05,-0.00043,6,9
29160,-3e-05,-1e-05,0,7e-05,-7e-05,-0.00012,-5e-05,-0.00043,6,9
29161,-3e-05,-1e-05,0,7e-05,-7e-05,-0.00012,-5e-05,-0.00043,6,9
29162,-3e-05,-1e-05,0,7e-05,-7e-05,-0.00012,-5e-05,-0.00043,6,9
29163,-3e-05,-1e-05,0,7e-05,-7e-05,-0.00012,-5e-05,-0.00043,6,9
29164,-3e-05,-1e-05,0,7e-05,-7e-05,-0.00012,-5e-05,-0.00043,6,9
29165,-3e-05,-1e-05,0,7e-05,-7e-05,-0.00012,-5e-05,-0.00043,6,9
29166,-3e-05,-1e-05,0,7e-05,-7e-05,-0.00012,-5e-05,-0.00043,6,9
29167,-3e-05,-1e-05,0,7e-05,-7e-05,-0.00012,-5e-05,-0.00043,6,9
29168,-3e-05,-1e-05,0,7e-05,-7e-05,-0.00012,-5e-05,-0.00043,6,9
29169,-3e-05,-1e-05,0,7e-05,-7e-05,-0.00012,-5e-05,-0.00043,6,9
29170,-3e-05,-1e-05,0,7e-05,-7e-05,-0.00012,-5e-05,-0.00043,6,9
29171,-3e-05,-1e-05,0,7e-05,-7e-05,-0.00012,-5e-05,-0.00043,6,9
29172,-3e-05,-1e-05,0,7e-05,-7e-05,-0.00012,-5e-05,-0.00043,6,9
29173,-3e-05,-1e-05,0,7e-05,-7e-05,-0.00012,-5e-05,-0.00043,6,9
29174,-3e-05,-1e-05,0,7e-05,-7e-05,-0.00012,-5e-05,-0.00043,6,9
29175,-3e-05,-1e-05,0,7e-05,-7e-05,-0.00012,-5e-05,-0.00043,6,9
29176,-3e-05,-1e-05,0,7e-05,-7e-05,-0.00012,-5e-05,-0.00043,6,9
29177,-3e-05,-1e-05,0,7e-05,-7e-05,-0.00012,-5e-05,-0.00043,6,9
29178,7e-05,0.0001,6e-05,1e-05,-2e-05,-0.00033,7e-05,0.0001,6,9
29179,-0.00013,1e-05,-4e-05,1e-05,0.00023,0.00066,0.00012,-0.00012,6,9
29180,-0.00013,1e-05,-4e-05,1e-05,0.00023,0.00066,0.00012,-0.00012,6,9
29181,-0.00013,1e-05,-4e-05,1e-05,0.00023,0.00066,0.00012,-0.00012,6,9
29182,-0.00013,1e-05,-4e-05,1e-05,0.00023,0.00066,0.00012,-0.00012,6,9
29183,-0.00013,1e-05,-4e-05,1e-05,0.00023,0.00066,0.00012,-0.00012,6,9
29184,-0.00013,1e-05,-4e-05,1e-05,0.00023,0.00066,0.00012,-0.00012,6,9
29185,-0.00013,1e-05,-4e-05,1e-05,0.00023,0.00066,0.00012,-0.00012,6,9
29186,-0.00013,1e-05,-4e-05,1e-05,0.00023,0.00066,0.00012,-0.00012,6,9
29189,-0.00013,1e-05,-4e-05,1e-05,0.00023,0.00066,0.00012,-0.00012,6,9
29190,-0.00013,1e-05,-4e-05,1e-05,0.00023,0.00066,0.00012,-0.00012,6,9
29191,-0.00013,1e-05,-4e-05,1e-05,0.00023,0.00066,0.00012,-0.00012,6,9
29192,-0.00026,-0.0001,-4e-05,-3e-05,7e-05,0.00013,9e-05,-0.0006,6,9
29193,0,2e-05,-2e-05,-1e-05,-0.0001,-0.00049,0,-3e-05,6,9
29194,0,2e-05,-2e-05,-1e-05,-0.0001,-0.00049,0,-3e-05,6,9
29195,0,2e-05,-2e-05,-1e-05,-0.0001,-0.00049,0,-3e-05,6,9
29196,0,2e-05,-2e-05,-1e-05,-0.0001,-0.00049,0,-3e-05,6,9
29197,0,2e-05,-2e-05,-1e-05,-0.0001,-0.00049,0,-3e-05,6,9
29198,0,2e-05,-2e-05,-1e-05,-0.0001,-0.00049,0,-3e-05,6,9
29199,-6e-05,1e-05,5e-05,-4e-05,-0.00026,-0.00019,0.00011,-0.00011,6,9
29200,-6e-05,1e-05,5e-05,-4e-05,-0.00026,-0.00019,0.00011,-0.00011,6,9
29201,-6e-05,1e-05,5e-05,-4e-05,-0.00026,-0.00019,0.00011,-0.00011,6,9
29202,-6e-05,1e-05,5e-05,-4e-05,-0.00026,-0.00019,0.00011,-0.00011,6,9
29203,-6e-05,1e-05,5e-05,-4e-05,-0.00026,-0.00019,0.00011,-0.00011,6,9
29204,-6e-05,1e-05,5e-05,-4e-05,-0.00026,-0.00019,0.00011,-0.00011,6,9
29205,-6e-05,1e-05,5e-05,-4e-05,-0.00026,-0.00019,0.00011,-0.00011,6,9
29206,-6e-05,1e-05,5e-05,-4e-05,-0.00026,-0.00019,0.00011,-0.00011,6,9
29207,-6e-05,1e-05,5e-05,-4e-05,-0.00026,-0.00019,0.00011,-0.00011,6,9
29208,-6e-05,1e-05,5e-05,-4e-05,-0.00026,-0.00019,0.00011,-0.00011,6,9
29209,-6e-05,1e-05,5e-05,-4e-05,-0.00026,-0.00019,0.00011,-0.00011,6,9
29210,-6e-05,1e-05,5e-05,-4e-05,-0.00026,-0.00019,0.00011,-0.00011,6,9
29211,-6e-05,1e-05,5e-05,-4e-05,-0.00026,-0.00019,0.00011,-0.00011,6,9
29212,-6e-05,1e-05,5e-05,-4e-05,-0.00026,-0.00019,0.00011,-0.00011,6,9
29213,-6e-05,1e-05,5e-05,-4e-05,-0.00026,-0.00019,0.00011,-0.00011,6,9
29214,-6e-05,1e-05,5e-05,-4e-05,-0.00026,-0.00019,0.00011,-0.00011,6,9
29215,-7e-05,-2e-05,1e-05,-2e-05,-3e-05,-0.00052,-6e-05,4e-05,6,9
29216,-7e-05,-2e-05,1e-05,-2e-05,-3e-05,-0.00052,-6e-05,4e-05,6,9
29217,0.00014,1e-05,-2e-05,0,-6e-05,2e-05,3e-05,0.00043,6,9
29218,0.00014,1e-05,-2e-05,0,-6e-05,2e-05,3e-05,0.00043,6,9
29219,0.00014,1e-05,-2e-05,0,-6e-05,2e-05,3e-05,0.00043,6,9
29220,0.00014,1e-05,-2e-05,0,-6e-05,2e-05,3e-05,0.00043,6,9
29221,0.00014,1e-05,-2e-05,0,-6e-05,2e-05,3e-05,0.00043,6,9
29222,0.00014,1e-05,-2e-05,0,-6e-05,2e-05,3e-05,0.00043,6,9
29223,0.00014,1e-05,-2e-05,0,-6e-05,2e-05,3e-05,0.00043,6,9
29224,0.00014,1e-05,-2e-05,0,-6e-05,2e-05,3e-05,0.00043,6,9
29225,0.00014,1e-05,-2e-05,0,-6e-05,2e-05,3e-05,0.00043,6,9
29226,0.00014,1e-05,-2e-05,0,-6e-05,2e-05,3e-05,0.00043,6,9
29227,0.00014,1e-05,-2e-05,0,-6e-05,2e-05,3e-05,0.00043,6,9
29228,0.00014,1e-05,-2e-05,0,-6e-05,2e-05,3e-05,0.00043,6,9
29229,0.00014,1e-05,-2e-05,0,-6e-05,2e-05,3e-05,0.00043,6,9
29230,0.00014,1e-05,-2e-05,0,-6e-05,2e-05,3e-05,0.00043,6,9
29231,0.00014,1e-05,-2e-05,0,-6e-05,2e-05,3e-05,0.00043,6,9
29232,0.00014,1e-05,-2e-05,0,-6e-05,2e-05,3e-05,0.00043,6,9
29234,0.00014,1e-05,-2e-05,0,-6e-05,2e-05,3e-05,0.00043,6,9
29235,0.00014,1e-05,-2e-05,0,-6e-05,2e-05,3e-05,0.00043,6,9
29236,0.00014,1e-05,-2e-05,0,-6e-05,2e-05,3e-05,0.00043,6,9
29239,0.00014,1e-05,-2e-05,0,-6e-05,2e-05,3e-05,0.00043,6,9
29240,0.00017,4e-05,-1e-05,-1e-05,4e-05,-0.00018,4e-05,0.00016,6,9
29241,-3e-05,-2e-05,-6e-05,-7e-05,-0.00011,0.0002,-0.00012,0.00017,6,9
29242,-3e-05,-2e-05,-6e-05,-7e-05,-0.00011,0.0002,-0.00012,0.00017,6,9
29243,-3e-05,-2e-05,-6e-05,-7e-05,-0.00011,0.0002,-0.00012,0.00017,6,9
29244,-3e-05,-2e-05,-6e-05,-7e-05,-0.00011,0.0002,-0.00012,0.00017,6,9
29245,-3e-05,-2e-05,-6e-05,-7e-05,-0.00011,0.0002,-0.00012,0.00017,6,9
29246,-3e-05,-2e-05,-6e-05,-7e-05,-0.00011,0.0002,-0.00012,0.00017,6,9
29247,-3e-05,-2e-05,-6e-05,-7e-05,-0.00011,0.0002,-0.00012,0.00017,6,9
29248,-3e-05,-2e-05,-6e-05,-7e-05,-0.00011,0.0002,-0.00012,0.00017,6,9
29249,-3e-05,-2e-05,-6e-05,-7e-05,-0.00011,0.0002,-0.00012,0.00017,6,9
29250,-3e-05,-2e-05,-6e-05,-7e-05,-0.00011,0.0002,-0.00012,0.00017,6,9
29251,-3e-05,-2e-05,-6e-05,-7e-05,-0.00011,0.0002,-0.00012,0.00017,6,9
29252,5e-05,-2e-05,3e-05,0,-0.00013,9e-05,0,-0.00022,6,9
29253,-0.00022,-0.00013,-0.00012,-0.00012,-0.00014,-1e-05,-0.00036,0.00019,6,9
29254,-0.00022,-0.00013,-0.00012,-0.00012,-0.00014,-1e-05,-0.00036,0.00019,6,9
29255,-0.00022,-0.00013,-0.00012,-0.00012,-0.00014,-1e-05,-0.00036,0.00019,6,9
29256,-0.00022,-0.00013,-0.00012,-0.00012,-0.00014,-1e-05,-0.00036,0.00019,6,9
29257,-0.00022,-0.00013,-0.00012,-0.00012,-0.00014,-1e-05,-0.00036,0.00019,6,9
29258,-0.00022,-0.00013,-0.00012,-0.00012,-0.00014,-1e-05,-0.00036,0.00019,6,9
29259,-0.00013,0,1e-05,-3e-05,-0.00013,0.00017,-0.00019,-0.00087,6,9
29260,0.00015,1e-05,0,4e-05,0.00019,-0.00021,-5e-05,0.00012,6,9
29261,0.00015,1e-05,0,4e-05,0.00019,-0.00021,-5e-05,0.00012,6,9
29262,0.00015,1e-05,0,4e-05,0.00019,-0.00021,-5e-05,0.00012,6,9
29263,0.00015,1e-05,0,4e-05,0.00019,-0.00021,-5e-05,0.00012,6,9
29264,0.00015,1e-05,0,4e-05,0.00019,-0.00021,-5e-05,0.00012,6,9
29265,0.00015,1e-05,0,4e-05,0.00019,-0.00021,-5e-05,0.00012,6,9
29266,0.00015,1e-05,0,4e-05,0.00019,-0.00021,-5e-05,0.00012,6,9
29267,0.00015,1e-05,0,4e-05,0.00019,-0.00021,-5e-05,0.00012,6,9
29268,0.00015,1e-05,0,4e-05,0.00019,-0.00021,-5e-05,0.00012,6,9
29269,0.00015,1e-05,0,4e-05,0.00019,-0.00021,-5e-05,0.00012,6,9
29270,0.00015,1e-05,0,4e-05,0.00019,-0.00021,-5e-05,0.00012,6,9
29271,0.00015,1e-05,0,4e-05,0.00019,-0.00021,-5e-05,0.00012,6,9
29272,0.00015,1e-05,0,4e-05,0.00019,-0.00021,-5e-05,0.00012,6,9
29273,0.00015,1e-05,0,4e-05,0.00019,-0.00021,-5e-05,0.00012,6,9
29274,0.00015,1e-05,0,4e-05,0.00019,-0.00021,-5e-05,0.00012,6,9
29275,-8e-05,-5e-05,4e-05,1e-05,-7e-05,-0.00048,2e-05,-0.00032,6,9
29276,0.00027,3e-05,0,5e-05,0.00011,0.0002,0.00021,0.00048,6,9
29277,4e-05,-8e-05,-0.0001,-0.00012,-4e-05,-0.00022,-0.00016,0.0003,6,9
29278,4e-05,-8e-05,-0.0001,-0.00012,-4e-05,-0.00022,-0.00016,0.0003,6,9
29279,4e-05,-8e-05,-0.0001,-0.00012,-4e-05,-0.00022,-0.00016,0.0003,6,9
29280,4e-05,-8e-05,-0.0001,-0.00012,-4e-05,-0.00022,-0.00016,0.0003,6,9
29281,4e-05,-8e-05,-0.0001,-0.00012,-4e-05,-0.00022,-0.00016,0.0003,6,9
29282,4e-05,-8e-05,-0.0001,-0.00012,-4e-05,-0.00022,-0.00016,0.0003,6,9
29283,4e-05,-8e-05,-0.0001,-0.00012,-4e-05,-0.00022,-0.00016,0.0003,6,9
29284,4e-05,-8e-05,-0.0001,-0.00012,-4e-05,-0.00022,-0.00016,0.0003,6,9
29285,4e-05,-8e-05,-0.0001,-0.00012,-4e-05,-0.00022,-0.00016,0.0003,6,9
29286,4e-05,-8e-05,-0.0001,-0.00012,-4e-05,-0.00022,-0.00016,0.0003,6,9
29288,4e-05,-8e-05,-0.0001,-0.00012,-4e-05,-0.00022,-0.00016,0.0003,6,9
29290,4e-05,-8e-05,-0.0001,-0.00012,-4e-05,-0.00022,-0.00016,0.0003,6,9
29291,4e-05,-8e-05,-0.0001,-0.00012,-4e-05,-0.00022,-0.00016,0.0003,6,9
29292,4e-05,-8e-05,-0.0001,-0.00012,-4e-05,-0.00022,-0.00016,0.0003,6,9
29293,4e-05,-8e-05,-0.0001,-0.00012,-4e-05,-0.00022,-0.00016,0.0003,6,9
29294,4e-05,-8e-05,-0.0001,-0.00012,-4e-05,-0.00022,-0.00016,0.0003,6,9
29295,4e-05,-8e-05,-0.0001,-0.00012,-4e-05,-0.00022,-0.00016,0.0003,6,9
29296,4e-05,-8e-05,-0.0001,-0.00012,-4e-05,-0.00022,-0.00016,0.0003,6,9
29297,4e-05,-8e-05,-0.0001,-0.00012,-4e-05,-0.00022,-0.00016,0.0003,6,9
29298,-5e-05,-9e-05,-4e-05,-1e-05,0.0001,0.00024,2e-05,-0.0002,6,9
29299,1e-05,3e-05,-2e-05,-6e-05,-4e-05,-3e-05,-4e-05,-0.00015,6,9
29300,3e-05,5e-05,5e-05,2e-05,8e-05,0.00055,4e-05,2e-05,6,9
29301,3e-05,5e-05,5e-05,2e-05,8e-05,0.00055,4e-05,2e-05,6,9
29302,3e-05,5e-05,5e-05,2e-05,8e-05,0.00055,4e-05,2e-05,6,9
29303,3e-05,5e-05,5e-05,2e-05,8e-05,0.00055,4e-05,2e-05,6,9
29304,3e-05,5e-05,5e-05,2e-05,8e-05,0.00055,4e-05,2e-05,6,9
29305,3e-05,5e-05,5e-05,2e-05,8e-05,0.00055,4e-05,2e-05,6,9
29306,3e-05,5e-05,5e-05,2e-05,8e-05,0.00055,4e-05,2e-05,6,9
29307,3e-05,5e-05,5e-05,2e-05,8e-05,0.00055,4e-05,2e-05,6,9
29308,3e-05,5e-05,5e-05,2e-05,8e-05,0.00055,4e-05,2e-05,6,9
29309,3e-05,5e-05,5e-05,2e-05,8e-05,0.00055,4e-05,2e-05,6,9
29310,3e-05,5e-05,5e-05,2e-05,8e-05,0.00055,4e-05,2e-05,6,9
29311,3e-05,5e-05,5e-05,2e-05,8e-05,0.00055,4e-05,2e-05,6,9
29312,-0.00015,-1e-05,0,-4e-05,-7e-05,0.00045,0,-0.00046,6,9
29313,-0.00015,-1e-05,0,-4e-05,-7e-05,0.00045,0,-0.00046,6,9
29314,-0.00015,-1e-05,0,-4e-05,-7e-05,0.00045,0,-0.00046,6,9
29315,-0.00015,-1e-05,0,-4e-05,-7e-05,0.00045,0,-0.00046,6,9
29316,-0.00015,-1e-05,0,-4e-05,-7e-05,0.00045,0,-0.00046,6,9
29317,-0.00015,-1e-05,0,-4e-05,-7e-05,0.00045,0,-0.00046,6,9
29318,-0.00015,-1e-05,0,-4e-05,-7e-05,0.00045,0,-0.00046,6,9
29319,-0.00021,-4e-05,-2e-05,-6e-05,-0.00011,-0.00029,-6e-05,-0.0001,6,9
29320,-0.00021,-4e-05,-2e-05,-6e-05,-0.00011,-0.00029,-6e-05,-0.0001,6,9
29321,-0.00021,-4e-05,-2e-05,-6e-05,-0.00011,-0.00029,-6e-05,-0.0001,6,9
29322,-0.00021,-4e-05,-2e-05,-6e-05,-0.00011,-0.00029,-6e-05,-0.0001,6,9
29323,-0.00021,-4e-05,-2e-05,-6e-05,-0.00011,-0.00029,-6e-05,-0.0001,6,9
29324,-0.00021,-4e-05,-2e-05,-6e-05,-0.00011,-0.00029,-6e-05,-0.0001,6,9
29325,-0.00021,-4e-05,-2e-05,-6e-05,-0.00011,-0.00029,-6e-05,-0.0001,6,9
29326,-0.00021,-4e-05,-2e-05,-6e-05,-0.00011,-0.00029,-6e-05,-0.0001,6,9
29327,-0.00021,-4e-05,-2e-05,-6e-05,-0.00011,-0.00029,-6e-05,-0.0001,6,9
29328,-0.00021,-4e-05,-2e-05,-6e-05,-0.00011,-0.00029,-6e-05,-0.0001,6,9
29329,-0.00021,-4e-05,-2e-05,-6e-05,-0.00011,-0.00029,-6e-05,-0.0001,6,9
29330,-0.00021,-4e-05,-2e-05,-6e-05,-0.00011,-0.00029,-6e-05,-0.0001,6,9
29331,-0.00021,-4e-05,-2e-05,-6e-05,-0.00011,-0.00029,-6e-05,-0.0001,6,9
29332,-0.00021,-4e-05,-2e-05,-6e-05,-0.00011,-0.00029,-6e-05,-0.0001,6,9
29333,-0.00021,-4e-05,-2e-05,-6e-05,-0.00011,-0.00029,-6e-05,-0.0001,6,9
29334,-0.00021,-4e-05,-2e-05,-6e-05,-0.00011,-0.00029,-6e-05,-0.0001,6,9
29335,9e-05,1e-05,0,-0.0001,-0.00014,3e-05,-4e-05,0.00019,6,9
29336,4e-05,-2e-05,-3e-05,9e-05,0.00026,0.00025,6e-05,-5e-05,6,9
29339,0.00011,5e-05,2e-05,2e-05,5e-05,0.00014,2e-05,0.00026,6,9
29340,0.00011,5e-05,2e-05,2e-05,5e-05,0.00014,2e-05,0.00026,6,9
29341,0.00011,5e-05,2e-05,2e-05,5e-05,0.00014,2e-05,0.00026,6,9
29342,0.00011,5e-05,2e-05,2e-05,5e-05,0.00014,2e-05,0.00026,6,9
29343,0.00011,5e-05,2e-05,2e-05,5e-05,0.00014,2e-05,0.00026,6,9
29344,0.00011,5e-05,2e-05,2e-05,5e-05,0.00014,2e-05,0.00026,6,9
29345,0.00011,5e-05,2e-05,2e-05,5e-05,0.00014,2e-05,0.00026,6,9
29346,0.00011,5e-05,2e-05,2e-05,5e-05,0.00014,2e-05,0.00026,6,9
29347,0.00011,5e-05,2e-05,2e-05,5e-05,0.00014,2e-05,0.00026,6,9
29348,0.00011,5e-05,2e-05,2e-05,5e-05,0.00014,2e-05,0.00026,6,9
29349,0.00011,5e-05,2e-05,2e-05,5e-05,0.00014,2e-05,0.00026,6,9
29350,0.00011,5e-05,2e-05,2e-05,5e-05,0.00014,2e-05,0.00026,6,9
29351,0.00011,5e-05,2e-05,2e-05,5e-05,0.00014,2e-05,0.00026,6,9
29352,0.00011,5e-05,2e-05,2e-05,5e-05,0.00014,2e-05,0.00026,6,9
29354,0.00011,5e-05,2e-05,2e-05,5e-05,0.00014,2e-05,0.00026,6,9
29355,0.00011,5e-05,2e-05,2e-05,5e-05,0.00014,2e-05,0.00026,6,9
29356,0.00011,5e-05,2e-05,2e-05,5e-05,0.00014,2e-05,0.00026,6,9
29357,0.00011,5e-05,2e-05,2e-05,5e-05,0.00014,2e-05,0.00026,6,9
29358,1e-05,-3e-05,7e-05,-5e-05,-0.00025,1e-05,7e-05,0.00023,6,9
29359,4e-05,-3e-05,-5e-05,2e-05,0.00021,0.00024,0.00018,-2e-05,6,9
29360,2e-05,0,-2e-05,6e-05,0.00014,5e-05,-0.00012,0.00042,6,9
29361,2e-05,0,-2e-05,6e-05,0.00014,5e-05,-0.00012,0.00042,6,9
29362,2e-05,0,-2e-05,6e-05,0.00014,5e-05,-0.00012,0.00042,6,9
29363,2e-05,0,-2e-05,6e-05,0.00014,5e-05,-0.00012,0.00042,6,9
29364,2e-05,0,-2e-05,6e-05,0.00014,5e-05,-0.00012,0.00042,6,9
29365,2e-05,0,-2e-05,6e-05,0.00014,5e-05,-0.00012,0.00042,6,9
29366,2e-05,0,-2e-05,6e-05,0.00014,5e-05,-0.00012,0.00042,6,9
29367,2e-05,0,-2e-05,6e-05,0.00014,5e-05,-0.00012,0.00042,6,9
29368,2e-05,0,-2e-05,6e-05,0.00014,5e-05,-0.00012,0.00042,6,9
29369,2e-05,0,-2e-05,6e-05,0.00014,5e-05,-0.00012,0.00042,6,9
29370,2e-05,0,-2e-05,6e-05,0.00014,5e-05,-0.00012,0.00042,6,9
29371,2e-05,0,-2e-05,6e-05,0.00014,5e-05,-0.00012,0.00042,6,9
29372,0,-3e-05,-3e-05,-8e-05,-0.00011,0.0006,-7e-05,0.00015,6,9
29373,3e-05,-4e-05,-7e-05,2e-05,0.00021,0.00045,-0.00024,-0.00026,6,9
29374,3e-05,-4e-05,-7e-05,2e-05,0.00021,0.00045,-0.00024,-0.00026,6,9
29375,3e-05,-4e-05,-7e-05,2e-05,0.00021,0.00045,-0.00024,-0.00026,6,9
29376,3e-05,-4e-05,-7e-05,2e-05,0.00021,0.00045,-0.00024,-0.00026,6,9
29377,3e-05,-4e-05,-7e-05,2e-05,0.00021,0.00045,-0.00024,-0.00026,6,9
29378,3e-05,-4e-05,-7e-05,2e-05,0.00021,0.00045,-0.00024,-0.00026,6,9
29379,-6e-05,-2e-05,2e-05,-3e-05,5e-05,-0.00031,-5e-05,-0.00026,6,9
29380,-6e-05,-2e-05,2e-05,-3e-05,5e-05,-0.00031,-5e-05,-0.00026,6,9
29381,-6e-05,-2e-05,2e-05,-3e-05,5e-05,-0.00031,-5e-05,-0.00026,6,9
29382,-6e-05,-2e-05,2e-05,-3e-05,5e-05,-0.00031,-5e-05,-0.00026,6,9
29384,-6e-05,-2e-05,2e-05,-3e-05,5e-05,-0.00031,-5e-05,-0.00026,6,9
29385,-6e-05,-2e-05,2e-05,-3e-05,5e-05,-0.00031,-5e-05,-0.00026,6,9
29386,-6e-05,-2e-05,2e-05,-3e-05,5e-05,-0.00031,-5e-05,-0.00026,6,9
29388,-6e-05,-2e-05,2e-05,-3e-05,5e-05,-0.00031,-5e-05,-0.00026,6,9
29390,-6e-05,-2e-05,2e-05,-3e-05,5e-05,-0.00031,-5e-05,-0.00026,6,9
29391,-6e-05,-2e-05,2e-05,-3e-05,5e-05,-0.00031,-5e-05,-0.00026,6,9
29392,-6e-05,-2e-05,2e-05,-3e-05,5e-05,-0.00031,-5e-05,-0.00026,6,9
29393,-6e-05,-2e-05,2e-05,-3e-05,5e-05,-0.00031,-5e-05,-0.00026,6,9
29394,-6e-05,-2e-05,2e-05,-3e-05,5e-05,-0.00031,-5e-05,-0.00026,6,9
29395,3e-05,4e-05,5e-05,3e-05,7e-05,-0.00021,9e-05,2e-05,6,9
29396,3e-05,4e-05,5e-05,3e-05,7e-05,-0.00021,9e-05,2e-05,6,9
29397,-3e-05,-6e-05,-3e-05,-2e-05,1e-05,7e-05,0.00013,-7e-05,6,9
29398,-3e-05,-6e-05,-3e-05,-2e-05,1e-05,7e-05,0.00013,-7e-05,6,9
29399,-3e-05,-6e-05,-3e-05,-2e-05,1e-05,7e-05,0.00013,-7e-05,6,9
29400,-3e-05,-6e-05,-3e-05,-2e-05,1e-05,7e-05,0.00013,-7e-05,6,9
29401,-3e-05,-6e-05,-3e-05,-2e-05,1e-05,7e-05,0.00013,-7e-05,6,9
29402,-3e-05,-6e-05,-3e-05,-2e-05,1e-05,7e-05,0.00013,-7e-05,6,9
29403,-3e-05,-6e-05,-3e-05,-2e-05,1e-05,7e-05,0.00013,-7e-05,6,9
29404,-3e-05,-6e-05,-3e-05,-2e-05,1e-05,7e-05,0.00013,-7e-05,6,9
29405,-3e-05,-6e-05,-3e-05,-2e-05,1e-05,7e-05,0.00013,-7e-05,6,9
29406,-3e-05,-6e-05,-3e-05,-2e-05,1e-05,7e-05,0.00013,-7e-05,6,9
29407,-3e-05,-6e-05,-3e-05,-2e-05,1e-05,7e-05,0.00013,-7e-05,6,9
29408,-3e-05,-6e-05,-3e-05,-2e-05,1e-05,7e-05,0.00013,-7e-05,6,9
29409,-3e-05,-6e-05,-3e-05,-2e-05,1e-05,7e-05,0.00013,-7e-05,6,9
29410,-3e-05,-6e-05,-3e-05,-2e-05,1e-05,7e-05,0.00013,-7e-05,6,9
29411,-3e-05,-6e-05,-3e-05,-2e-05,1e-05,7e-05,0.00013,-7e-05,6,9
29412,-3e-05,-6e-05,-3e-05,-2e-05,1e-05,7e-05,0.00013,-7e-05,6,9
29413,-3e-05,-6e-05,-3e-05,-2e-05,1e-05,7e-05,0.00013,-7e-05,6,9
29414,-3e-05,-6e-05,-3e-05,-2e-05,1e-05,7e-05,0.00013,-7e-05,6,9
29415,-3e-05,-6e-05,-3e-05,-2e-05,1e-05,7e-05,0.00013,-7e-05,6,9
29416,-3e-05,-6e-05,-3e-05,-2e-05,1e-05,7e-05,0.00013,-7e-05,6,9
29417,-3e-05,-6e-05,-3e-05,-2e-05,1e-05,7e-05,0.00013,-7e-05,6,9
29418,-6e-05,6e-05,1e-05,-3e-05,-0.00017,0.00017,-4e-05,-0.00014,6,9
29419,-6e-05,6e-05,1e-05,-3e-05,-0.00017,0.00017,-4e-05,-0.00014,6,9
29420,-3e-05,1e-05,-1e-05,1e-05,-4e-05,0.00015,9e-05,0.00032,6,9
29421,-3e-05,1e-05,-1e-05,1e-05,-4e-05,0.00015,9e-05,0.00032,6,9
29422,-3e-05,1e-05,-1e-05,1e-05,-4e-05,0.00015,9e-05,0.00032,6,9
29423,-3e-05,1e-05,-1e-05,1e-05,-4e-05,0.00015,9e-05,0.00032,6,9
29424,-3e-05,1e-05,-1e-05,1e-05,-4e-05,0.00015,9e-05,0.00032,6,9
29425,-3e-05,1e-05,-1e-05,1e-05,-4e-05,0.00015,9e-05,0.00032,6,9
29426,-3e-05,1e-05,-1e-05,1e-05,-4e-05,0.00015,9e-05,0.00032,6,9
29427,-3e-05,1e-05,-1e-05,1e-05,-4e-05,0.00015,9e-05,0.00032,6,9
29428,-3e-05,1e-05,-1e-05,1e-05,-4e-05,0.00015,9e-05,0.00032,6,9
29429,-3e-05,1e-05,-1e-05,1e-05,-4e-05,0.00015,9e-05,0.00032,6,9
29430,-3e-05,1e-05,-1e-05,1e-05,-4e-05,0.00015,9e-05,0.00032,6,9
29431,-3e-05,1e-05,-1e-05,1e-05,-4e-05,0.00015,9e-05,0.00032,6,9
29432,-6e-05,-1e-05,0,-1e-05,-0.0001,-4e-05,9e-05,4e-05,6,9
29433,-6e-05,-1e-05,0,-1e-05,-0.0001,-4e-05,9e-05,4e-05,6,9
29434,-6e-05,-1e-05,0,-1e-05,-0.0001,-4e-05,9e-05,4e-05,6,9
29435,-6e-05,-1e-05,0,-1e-05,-0.0001,-4e-05,9e-05,4e-05,6,9
29436,-6e-05,-1e-05,0,-1e-05,-0.0001,-4e-05,9e-05,4e-05,6,9
29439,-3e-05,-4e-05,2e-05,4e-05,2e-05,-1e-05,6e-05,-0.00011,6,9
29440,-3e-05,-4e-05,2e-05,4e-05,2e-05,-1e-05,6e-05,-0.00011,6,9
29441,-3e-05,-4e-05,2e-05,4e-05,2e-05,-1e-05,6e-05,-0.00011,6,9
29442,-3e-05,-4e-05,2e-05,4e-05,2e-05,-1e-05,6e-05,-0.00011,6,9
29443,-3e-05,-4e-05,2e-05,4e-05,2e-05,-1e-05,6e-05,-0.00011,6,9
29444,-3e-05,-4e-05,2e-05,4e-05,2e-05,-1e-05,6e-05,-0.00011,6,9
29445,-3e-05,-4e-05,2e-05,4e-05,2e-05,-1e-05,6e-05,-0.00011,6,9
29446,-3e-05,-4e-05,2e-05,4e-05,2e-05,-1e-05,6e-05,-0.00011,6,9
29447,-3e-05,-4e-05,2e-05,4e-05,2e-05,-1e-05,6e-05,-0.00011,6,9
29448,-3e-05,-4e-05,2e-05,4e-05,2e-05,-1e-05,6e-05,-0.00011,6,9
29449,-3e-05,-4e-05,2e-05,4e-05,2e-05,-1e-05,6e-05,-0.00011,6,9
29450,-3e-05,-4e-05,2e-05,4e-05,2e-05,-1e-05,6e-05,-0.00011,6,9
29451,-3e-05,-4e-05,2e-05,4e-05,2e-05,-1e-05,6e-05,-0.00011,6,9
29452,-3e-05,-4e-05,2e-05,4e-05,2e-05,-1e-05,6e-05,-0.00011,6,9
29453,-3e-05,-4e-05,2e-05,4e-05,2e-05,-1e-05,6e-05,-0.00011,6,9
29454,-3e-05,-4e-05,2e-05,4e-05,2e-05,-1e-05,6e-05,-0.00011,6,9
29455,-3e-05,-4e-05,2e-05,4e-05,2e-05,-1e-05,6e-05,-0.00011,6,9
29457,0.00015,-4e-05,-5e-05,-3e-05,-0.00015,-0.0003,7e-05,0.00072,6,9
29458,-0.0001,-6e-05,-6e-05,-8e-05,-0.00017,-0.00041,0,-0.00027,6,9
29459,-8e-05,1e-05,5e-05,8e-05,9e-05,-0.00027,3e-05,0,6,9
29460,-8e-05,1e-05,5e-05,8e-05,9e-05,-0.00027,3e-05,0,6,9
29461,-8e-05,1e-05,5e-05,8e-05,9e-05,-0.00027,3e-05,0,6,9
29462,-8e-05,1e-05,5e-05,8e-05,9e-05,-0.00027,3e-05,0,6,9
29463,-8e-05,1e-05,5e-05,8e-05,9e-05,-0.00027,3e-05,0,6,9
29464,-8e-05,1e-05,5e-05,8e-05,9e-05,-0.00027,3e-05,0,6,9
29465,-8e-05,1e-05,5e-05,8e-05,9e-05,-0.00027,3e-05,0,6,9
29466,-8e-05,1e-05,5e-05,8e-05,9e-05,-0.00027,3e-05,0,6,9
29467,-8e-05,1e-05,5e-05,8e-05,9e-05,-0.00027,3e-05,0,6,9
29468,-8e-05,1e-05,5e-05,8e-05,9e-05,-0.00027,3e-05,0,6,9
29469,-8e-05,1e-05,5e-05,8e-05,9e-05,-0.00027,3e-05,0,6,9
29470,-8e-05,1e-05,5e-05,8e-05,9e-05,-0.00027,3e-05,0,6,9
29471,-8e-05,1e-05,5e-05,8e-05,9e-05,-0.00027,3e-05,0,6,9
29472,-8e-05,1e-05,5e-05,8e-05,9e-05,-0.00027,3e-05,0,6,9
29473,-8e-05,1e-05,5e-05,8e-05,9e-05,-0.00027,3e-05,0,6,9
29474,-8e-05,1e-05,5e-05,8e-05,9e-05,-0.00027,3e-05,0,6,9
29475,-8e-05,1e-05,5e-05,8e-05,9e-05,-0.00027,3e-05,0,6,9
29476,-8e-05,1e-05,5e-05,8e-05,9e-05,-0.00027,3e-05,0,6,9
29477,-8e-05,1e-05,5e-05,8e-05,9e-05,-0.00027,3e-05,0,6,9
29478,0.0001,8e-05,3e-05,5e-05,7e-05,0.00029,-4e-05,-1e-05,6,9
29479,5e-05,-9e-05,-8e-05,-2e-05,-6e-05,-0.00021,-1e-05,0.00041,6,9
29480,7e-05,-3e-05,-6e-05,-6e-05,-9e-05,-0.0001,-0.00012,0.00032,6,9
29481,7e-05,-3e-05,-6e-05,-6e-05,-9e-05,-0.0001,-0.00012,0.00032,6,9
29482,7e-05,-3e-05,-6e-05,-6e-05,-9e-05,-0.0001,-0.00012,0.00032,6,9
29484,7e-05,-3e-05,-6e-05,-6e-05,-9e-05,-0.0001,-0.00012,0.00032,6,9
29485,7e-05,-3e-05,-6e-05,-6e-05,-9e-05,-0.0001,-0.00012,0.00032,6,9
29486,7e-05,-3e-05,-6e-05,-6e-05,-9e-05,-0.0001,-0.00012,0.00032,6,9
29488,7e-05,-3e-05,-6e-05,-6e-05,-9e-05,-0.0001,-0.00012,0.00032,6,9
29489,7e-05,-3e-05,-6e-05,-6e-05,-9e-05,-0.0001,-0.00012,0.00032,6,9
29490,7e-05,-3e-05,-6e-05,-6e-05,-9e-05,-0.0001,-0.00012,0.00032,6,9
29491,-2e-05,2e-05,0,-2e-05,2e-05,0.00013,-3e-05,0.00022,6,9
29492,-0.0001,2e-05,2e-05,0.00011,9e-05,-0.00016,0.00016,-7e-05,6,9
29493,-0.0001,2e-05,2e-05,0.00011,9e-05,-0.00016,0.00016,-7e-05,6,9
29494,-0.0001,2e-05,2e-05,0.00011,9e-05,-0.00016,0.00016,-7e-05,6,9
29495,-0.0001,2e-05,2e-05,0.00011,9e-05,-0.00016,0.00016,-7e-05,6,9
29497,-0.0001,2e-05,2e-05,0.00011,9e-05,-0.00016,0.00016,-7e-05,6,9
29498,-0.0001,2e-05,2e-05,0.00011,9e-05,-0.00016,0.00016,-7e-05,6,9
29499,-0.0001,2e-05,2e-05,0.00011,9e-05,-0.00016,0.00016,-7e-05,6,9
29500,1e-05,-1e-05,-2e-05,-1e-05,2e-05,-0.00039,7e-05,0.00011,6,9
29501,-3e-05,-2e-05,-5e-05,-8e-05,-0.00021,0.00034,7e-05,-0.00014,6,9
29502,-3e-05,-2e-05,-5e-05,-8e-05,-0.00021,0.00034,7e-05,-0.00014,6,9
29504,-3e-05,-2e-05,-5e-05,-8e-05,-0.00021,0.00034,7e-05,-0.00014,6,9
29505,-3e-05,-2e-05,-5e-05,-8e-05,-0.00021,0.00034,7e-05,-0.00014,6,9
29506,-3e-05,-2e-05,-5e-05,-8e-05,-0.00021,0.00034,7e-05,-0.00014,6,9
29507,-3e-05,-2e-05,-5e-05,-8e-05,-0.00021,0.00034,7e-05,-0.00014,6,9
29508,-3e-05,-2e-05,-5e-05,-8e-05,-0.00021,0.00034,7e-05,-0.00014,6,9
29509,-3e-05,-2e-05,-5e-05,-8e-05,-0.00021,0.00034,7e-05,-0.00014,6,9
29510,-3e-05,-2e-05,-5e-05,-8e-05,-0.00021,0.00034,7e-05,-0.00014,6,9
29511,-3e-05,-2e-05,-5e-05,-8e-05,-0.00021,0.00034,7e-05,-0.00014,6,9
29512,-3e-05,-2e-05,-5e-05,-8e-05,-0.00021,0.00034,7e-05,-0.00014,6,9
29514,-3e-05,-2e-05,-5e-05,-8e-05,-0.00021,0.00034,7e-05,-0.00014,6,9
29515,-9e-05,-1e-05,3e-05,0,0.00015,0.00049,0.00012,-0.0003,6,9
29516,-9e-05,-1e-05,3e-05,0,0.00015,0.00049,0.00012,-0.0003,6,9
29517,5e-05,3e-05,2e-05,-1e-05,0.00019,-0.00019,-6e-05,-0.0005,6,9
29518,5e-05,3e-05,2e-05,-1e-05,0.00019,-0.00019,-6e-05,-0.0005,6,9
29519,5e-05,3e-05,2e-05,-1e-05,0.00019,-0.00019,-6e-05,-0.0005,6,9
29520,5e-05,3e-05,2e-05,-1e-05,0.00019,-0.00019,-6e-05,-0.0005,6,9
29521,5e-05,3e-05,2e-05,-1e-05,0.00019,-0.00019,-6e-05,-0.0005,6,9
29522,5e-05,3e-05,2e-05,-1e-05,0.00019,-0.00019,-6e-05,-0.0005,6,9
29523,5e-05,3e-05,2e-05,-1e-05,0.00019,-0.00019,-6e-05,-0.0005,6,9
29524,5e-05,3e-05,2e-05,-1e-05,0.00019,-0.00019,-6e-05,-0.0005,6,9
29525,5e-05,3e-05,2e-05,-1e-05,0.00019,-0.00019,-6e-05,-0.0005,6,9
29526,5e-05,3e-05,2e-05,-1e-05,0.00019,-0.00019,-6e-05,-0.0005,6,9
29527,5e-05,3e-05,2e-05,-1e-05,0.00019,-0.00019,-6e-05,-0.0005,6,9
29528,5e-05,3e-05,2e-05,-1e-05,0.00019,-0.00019,-6e-05,-0.0005,6,9
29529,5e-05,3e-05,2e-05,-1e-05,0.00019,-0.00019,-6e-05,-0.0005,6,9
29530,5e-05,3e-05,2e-05,-1e-05,0.00019,-0.00019,-6e-05,-0.0005,6,9
29531,5e-05,3e-05,2e-05,-1e-05,0.00019,-0.00019,-6e-05,-0.0005,6,9
29532,5e-05,3e-05,2e-05,-1e-05,0.00019,-0.00019,-6e-05,-0.0005,6,9
29533,5e-05,3e-05,2e-05,-1e-05,0.00019,-0.00019,-6e-05,-0.0005,6,9
29534,5e-05,3e-05,2e-05,-1e-05,0.00019,-0.00019,-6e-05,-0.0005,6,9
29535,5e-05,3e-05,2e-05,-1e-05,0.00019,-0.00019,-6e-05,-0.0005,6,9
29536,5e-05,3e-05,2e-05,-1e-05,0.00019,-0.00019,-6e-05,-0.0005,6,9
29539,-3e-05,0,1e-05,-1e-05,-2e-05,-0.00028,-6e-05,0.00015,6,9
29540,0,-1e-05,-8e-05,-5e-05,-0.0001,-0.00017,-7e-05,-0.00024,6,9
29541,0,-1e-05,-8e-05,-5e-05,-0.0001,-0.00017,-7e-05,-0.00024,6,9
29543,0,-1e-05,-8e-05,-5e-05,-0.0001,-0.00017,-7e-05,-0.00024,6,9
29544,0,-1e-05,-8e-05,-5e-05,-0.0001,-0.00017,-7e-05,-0.00024,6,9
29545,0,-1e-05,-8e-05,-5e-05,-0.0001,-0.00017,-7e-05,-0.00024,6,9
29546,0,-1e-05,-8e-05,-5e-05,-0.0001,-0.00017,-7e-05,-0.00024,6,9
29547,0,-1e-05,-8e-05,-5e-05,-0.0001,-0.00017,-7e-05,-0.00024,6,9
29548,0,-1e-05,-8e-05,-5e-05,-0.0001,-0.00017,-7e-05,-0.00024,6,9
29549,0,-1e-05,-8e-05,-5e-05,-0.0001,-0.00017,-7e-05,-0.00024,6,9
29550,0,-1e-05,-8e-05,-5e-05,-0.0001,-0.00017,-7e-05,-0.00024,6,9
29551,3e-05,-1e-05,1e-05,-6e-05,-5e-05,-0.00024,0,-0.0001,6,9
29552,-5e-05,8e-05,3e-05,0.00017,0.0004,0.00058,0.00034,0.00024,6,9
29553,-5e-05,8e-05,3e-05,0.00017,0.0004,0.00058,0.00034,0.00024,6,9
29554,-5e-05,8e-05,3e-05,0.00017,0.0004,0.00058,0.00034,0.00024,6,9
29555,-5e-05,8e-05,3e-05,0.00017,0.0004,0.00058,0.00034,0.00024,6,9
29556,-5e-05,8e-05,3e-05,0.00017,0.0004,0.00058,0.00034,0.00024,6,9
29557,-5e-05,8e-05,3e-05,0.00017,0.0004,0.00058,0.00034,0.00024,6,9
29558,-5e-05,8e-05,3e-05,0.00017,0.0004,0.00058,0.00034,0.00024,6,9
29559,-5e-05,8e-05,3e-05,0.00017,0.0004,0.00058,0.00034,0.00024,6,9
29560,-2e-05,-6e-05,-4e-05,-7e-05,-8e-05,-0.00017,-0.00021,8e-05,6,9
29561,-5e-05,-2e-05,2e-05,-3e-05,-3e-05,-5e-05,-0.00017,0.00017,6,9
29562,-5e-05,-2e-05,2e-05,-3e-05,-3e-05,-5e-05,-0.00017,0.00017,6,9
29563,-5e-05,-2e-05,2e-05,-3e-05,-3e-05,-5e-05,-0.00017,0.00017,6,9
29564,-5e-05,-2e-05,2e-05,-3e-05,-3e-05,-5e-05,-0.00017,0.00017,6,9
29565,-5e-05,-2e-05,2e-05,-3e-05,-3e-05,-5e-05,-0.00017,0.00017,6,9
29566,-5e-05,-2e-05,2e-05,-3e-05,-3e-05,-5e-05,-0.00017,0.00017,6,9
29567,-5e-05,-2e-05,2e-05,-3e-05,-3e-05,-5e-05,-0.00017,0.00017,6,9
29568,-5e-05,-2e-05,2e-05,-3e-05,-3e-05,-5e-05,-0.00017,0.00017,6,9
29569,-5e-05,-2e-05,2e-05,-3e-05,-3e-05,-5e-05,-0.00017,0.00017,6,9
29570,-5e-05,-2e-05,2e-05,-3e-05,-3e-05,-5e-05,-0.00017,0.00017,6,9
29571,-5e-05,-2e-05,2e-05,-3e-05,-3e-05,-5e-05,-0.00017,0.00017,6,9
29572,-5e-05,-2e-05,2e-05,-3e-05,-3e-05,-5e-05,-0.00017,0.00017,6,9
29573,-5e-05,-2e-05,2e-05,-3e-05,-3e-05,-5e-05,-0.00017,0.00017,6,9
29574,-5e-05,-2e-05,2e-05,-3e-05,-3e-05,-5e-05,-0.00017,0.00017,6,9
29575,7e-05,-9e-05,-7e-05,-0.00013,-0.00026,0.0004,-0.00017,3e-05,6,9
29576,7e-05,-9e-05,-7e-05,-0.00013,-0.00026,0.0004,-0.00017,3e-05,6,9
29577,-4e-05,-8e-05,-6e-05,-9e-05,-0.00016,7e-05,7e-05,0.0007,6,9
29578,-4e-05,-8e-05,-6e-05,-9e-05,-0.00016,7e-05,7e-05,0.0007,6,9
29579,-4e-05,-8e-05,-6e-05,-9e-05,-0.00016,7e-05,7e-05,0.0007,6,9
29580,-4e-05,-8e-05,-6e-05,-9e-05,-0.00016,7e-05,7e-05,0.0007,6,9
29581,-4e-05,-8e-05,-6e-05,-9e-05,-0.00016,7e-05,7e-05,0.0007,6,9
29582,-4e-05,-8e-05,-6e-05,-9e-05,-0.00016,7e-05,7e-05,0.0007,6,9
29583,-4e-05,-8e-05,-6e-05,-9e-05,-0.00016,7e-05,7e-05,0.0007,6,9
29584,-4e-05,-8e-05,-6e-05,-9e-05,-0.00016,7e-05,7e-05,0.0007,6,9
29585,-4e-05,-8e-05,-6e-05,-9e-05,-0.00016,7e-05,7e-05,0.0007,6,9
29586,-4e-05,-8e-05,-6e-05,-9e-05,-0.00016,7e-05,7e-05,0.0007,6,9
29588,-4e-05,-8e-05,-6e-05,-9e-05,-0.00016,7e-05,7e-05,0.0007,6,9
29589,-4e-05,-8e-05,-6e-05,-9e-05,-0.00016,7e-05,7e-05,0.0007,6,9
29590,-4e-05,-8e-05,-6e-05,-9e-05,-0.00016,7e-05,7e-05,0.0007,6,9
29591,-4e-05,-8e-05,-6e-05,-9e-05,-0.00016,7e-05,7e-05,0.0007,6,9
29592,-4e-05,-8e-05,-6e-05,-9e-05,-0.00016,7e-05,7e-05,0.0007,6,9
29593,-4e-05,-8e-05,-6e-05,-9e-05,-0.00016,7e-05,7e-05,0.0007,6,9
29594,-4e-05,-8e-05,-6e-05,-9e-05,-0.00016,7e-05,7e-05,0.0007,6,9
29595,-4e-05,-8e-05,-6e-05,-9e-05,-0.00016,7e-05,7e-05,0.0007,6,9
29596,-4e-05,-8e-05,-6e-05,-9e-05,-0.00016,7e-05,7e-05,0.0007,6,9
29597,-4e-05,-8e-05,-6e-05,-9e-05,-0.00016,7e-05,7e-05,0.0007,6,9
29598,-7e-05,-3e-05,1e-05,-7e-05,-0.00021,6e-05,0,-2e-05,6,9
29599,-2e-05,-1e-05,-4e-05,-4e-05,-2e-05,-0.00017,-0.00012,-0.0002,6,9
29600,-2e-05,-1e-05,-4e-05,-4e-05,-2e-05,-0.00017,-0.00012,-0.0002,6,9
29601,-2e-05,-1e-05,-4e-05,-4e-05,-2e-05,-0.00017,-0.00012,-0.0002,6,9
29602,-2e-05,-1e-05,-4e-05,-4e-05,-2e-05,-0.00017,-0.00012,-0.0002,6,9
29603,-2e-05,-1e-05,-4e-05,-4e-05,-2e-05,-0.00017,-0.00012,-0.0002,6,9
29604,-2e-05,-1e-05,-4e-05,-4e-05,-2e-05,-0.00017,-0.00012,-0.0002,6,9
29605,-2e-05,-1e-05,-4e-05,-4e-05,-2e-05,-0.00017,-0.00012,-0.0002,6,9
29606,-2e-05,-1e-05,-4e-05,-4e-05,-2e-05,-0.00017,-0.00012,-0.0002,6,9
29607,-2e-05,-1e-05,-4e-05,-4e-05,-2e-05,-0.00017,-0.00012,-0.0002,6,9
29608,-2e-05,-1e-05,-4e-05,-4e-05,-2e-05,-0.00017,-0.00012,-0.0002,6,9
29609,-2e-05,-1e-05,-4e-05,-4e-05,-2e-05,-0.00017,-0.00012,-0.0002,6,9
29610,-2e-05,-1e-05,-4e-05,-4e-05,-2e-05,-0.00017,-0.00012,-0.0002,6,9
29611,1e-05,0,2e-05,4e-05,-5e-05,-2e-05,0,5e-05,6,9
29612,-9e-05,-2e-05,-6e-05,-6e-05,-0.00034,-0.00081,-0.00016,1e-05,6,9
29613,-9e-05,-2e-05,-6e-05,-6e-05,-0.00034,-0.00081,-0.00016,1e-05,6,9
29614,-9e-05,-2e-05,-6e-05,-6e-05,-0.00034,-0.00081,-0.00016,1e-05,6,9
29615,-9e-05,-2e-05,-6e-05,-6e-05,-0.00034,-0.00081,-0.00016,1e-05,6,9
29616,-9e-05,-2e-05,-6e-05,-6e-05,-0.00034,-0.00081,-0.00016,1e-05,6,9
29617,-9e-05,-2e-05,-6e-05,-6e-05,-0.00034,-0.00081,-0.00016,1e-05,6,9
29618,-9e-05,-2e-05,-6e-05,-6e-05,-0.00034,-0.00081,-0.00016,1e-05,6,9
29619,-9e-05,-2e-05,-6e-05,-6e-05,-0.00034,-0.00081,-0.00016,1e-05,6,9
29620,0.0001,0,1e-05,-3e-05,-0.00023,-0.00048,8e-05,6e-05,6,9
29621,-8e-05,-7e-05,0,2e-05,0.00015,0.00023,0.00023,-0.00018,6,9
29622,-8e-05,-7e-05,0,2e-05,0.00015,0.00023,0.00023,-0.00018,6,9
29623,-8e-05,-7e-05,0,2e-05,0.00015,0.00023,0.00023,-0.00018,6,9
29624,-8e-05,-7e-05,0,2e-05,0.00015,0.00023,0.00023,-0.00018,6,9
29625,-8e-05,-7e-05,0,2e-05,0.00015,0.00023,0.00023,-0.00018,6,9
29626,-8e-05,-7e-05,0,2e-05,0.00015,0.00023,0.00023,-0.00018,6,9
29627,-8e-05,-7e-05,0,2e-05,0.00015,0.00023,0.00023,-0.00018,6,9
29628,-8e-05,-7e-05,0,2e-05,0.00015,0.00023,0.00023,-0.00018,6,9
60678,-2e-05,-3e-05,0,6e-05,0.00022,-9e-05,7e-05,0.00044,6,9
60679,-3e-05,7e-05,3e-05,1e-05,-0.00022,1e-05,6e-05,-6e-05,6,9
60680,-0.00013,-3e-05,-8e-05,-8e-05,-0.00012,-6e-05,-0.00019,-5e-05,6,9
60681,-0.00013,-3e-05,-8e-05,-8e-05,-0.00012,-6e-05,-0.00019,-5e-05,6,9
60682,-0.00013,-3e-05,-8e-05,-8e-05,-0.00012,-6e-05,-0.00019,-5e-05,6,9
60683,-0.00013,-3e-05,-8e-05,-8e-05,-0.00012,-6e-05,-0.00019,-5e-05,6,9
60684,-0.00013,-3e-05,-8e-05,-8e-05,-0.00012,-6e-05,-0.00019,-5e-05,6,9
60685,-0.00013,-3e-05,-8e-05,-8e-05,-0.00012,-6e-05,-0.00019,-5e-05,6,9
60686,-0.00013,-3e-05,-8e-05,-8e-05,-0.00012,-6e-05,-0.00019,-5e-05,6,9
60688,-0.00013,-3e-05,-8e-05,-8e-05,-0.00012,-6e-05,-0.00019,-5e-05,6,9
60689,-0.00013,-3e-05,-8e-05,-8e-05,-0.00012,-6e-05,-0.00019,-5e-05,6,9
60690,-0.00013,-3e-05,-8e-05,-8e-05,-0.00012,-6e-05,-0.00019,-5e-05,6,9
60691,-0.00013,-3e-05,-8e-05,-8e-05,-0.00012,-6e-05,-0.00019,-5e-05,6,9
60692,-0.00013,-3e-05,-8e-05,-8e-05,-0.00012,-6e-05,-0.00019,-5e-05,6,9
60693,-0.00013,-3e-05,-8e-05,-8e-05,-0.00012,-6e-05,-0.00019,-5e-05,6,9
60694,-0.00013,-3e-05,-8e-05,-8e-05,-0.00012,-6e-05,-0.00019,-5e-05,6,9
60695,-0.00013,-3e-05,-8e-05,-8e-05,-0.00012,-6e-05,-0.00019,-5e-05,6,9
60696,-0.00013,-3e-05,-8e-05,-8e-05,-0.00012,-6e-05,-0.00019,-5e-05,6,9
60697,-0.00013,-3e-05,-8e-05,-8e-05,-0.00012,-6e-05,-0.00019,-5e-05,6,9
60698,-0.00013,-3e-05,-8e-05,-8e-05,-0.00012,-6e-05,-0.00019,-5e-05,6,9
60699,-0.00013,-3e-05,-8e-05,-8e-05,-0.00012,-6e-05,-0.00019,-5e-05,6,9
60700,-0.00013,-3e-05,-8e-05,-8e-05,-0.00012,-6e-05,-0.00019,-5e-05,6,9
60701,-0.00016,-1e-05,1e-05,-3e-05,-0.00012,-8e-05,-0.0001,-0.00038,6,9
60702,-0.00021,-7e-05,-4e-05,-1e-05,6e-05,-0.00029,-8e-05,-0.00021,6,9
60703,-0.00021,-7e-05,-4e-05,-1e-05,6e-05,-0.00029,-8e-05,-0.00021,6,9
60704,-0.00021,-7e-05,-4e-05,-1e-05,6e-05,-0.00029,-8e-05,-0.00021,6,9
60705,-0.00021,-7e-05,-4e-05,-1e-05,6e-05,-0.00029,-8e-05,-0.00021,6,9
60706,-0.00021,-7e-05,-4e-05,-1e-05,6e-05,-0.00029,-8e-05,-0.00021,6,9
60707,-0.00021,-7e-05,-4e-05,-1e-05,6e-05,-0.00029,-8e-05,-0.00021,6,9
60708,-0.00021,-7e-05,-4e-05,-1e-05,6e-05,-0.00029,-8e-05,-0.00021,6,9
60709,-0.00021,-7e-05,-4e-05,-1e-05,6e-05,-0.00029,-8e-05,-0.00021,6,9
60710,-0.00021,-7e-05,-4e-05,-1e-05,6e-05,-0.00029,-8e-05,-0.00021,6,9
60711,-0.00021,-7e-05,-4e-05,-1e-05,6e-05,-0.00029,-8e-05,-0.00021,6,9
60712,-0.00021,-7e-05,-4e-05,-1e-05,6e-05,-0.00029,-8e-05,-0.00021,6,9
60713,-0.00021,-7e-05,-4e-05,-1e-05,6e-05,-0.00029,-8e-05,-0.00021,6,9
60714,-0.00021,-7e-05,-4e-05,-1e-05,6e-05,-0.00029,-8e-05,-0.00021,6,9
60715,3e-05,0,2e-05,-2e-05,-7e-05,-0.00047,2e-05,-0.00035,6,9
60716,3e-05,0,2e-05,-2e-05,-7e-05,-0.00047,2e-05,-0.00035,6,9
60717,3e-05,0,2e-05,-2e-05,-7e-05,-0.00047,2e-05,-0.00035,6,9
60718,3e-05,0,2e-05,-2e-05,-7e-05,-0.00047,2e-05,-0.00035,6,9
60719,3e-05,0,2e-05,-2e-05,-7e-05,-0.00047,2e-05,-0.00035,6,9
60720,3e-05,0,2e-05,-2e-05,-7e-05,-0.00047,2e-05,-0.00035,6,9
60721,3e-05,0,2e-05,-2e-05,-7e-05,-0.00047,2e-05,-0.00035,6,9
60722,6e-05,1e-05,4e-05,-5e-05,-9e-05,0.0001,0.00011,7e-05,6,9
60723,6e-05,1e-05,4e-05,-5e-05,-9e-05,0.0001,0.00011,7e-05,6,9
60724,6e-05,1e-05,4e-05,-5e-05,-9e-05,0.0001,0.00011,7e-05,6,9
60725,6e-05,1e-05,4e-05,-5e-05,-9e-05,0.0001,0.00011,7e-05,6,9
60726,6e-05,1e-05,4e-05,-5e-05,-9e-05,0.0001,0.00011,7e-05,6,9
60727,6e-05,1e-05,4e-05,-5e-05,-9e-05,0.0001,0.00011,7e-05,6,9
60728,6e-05,1e-05,4e-05,-5e-05,-9e-05,0.0001,0.00011,7e-05,6,9
60729,6e-05,1e-05,4e-05,-5e-05,-9e-05,0.0001,0.00011,7e-05,6,9
60730,6e-05,1e-05,4e-05,-5e-05,-9e-05,0.0001,0.00011,7e-05,6,9
60731,6e-05,1e-05,4e-05,-5e-05,-9e-05,0.0001,0.00011,7e-05,6,9
60732,6e-05,1e-05,4e-05,-5e-05,-9e-05,0.0001,0.00011,7e-05,6,9
60733,6e-05,1e-05,4e-05,-5e-05,-9e-05,0.0001,0.00011,7e-05,6,9
60734,6e-05,1e-05,4e-05,-5e-05,-9e-05,0.0001,0.00011,7e-05,6,9
60735,6e-05,1e-05,4e-05,-5e-05,-9e-05,0.0001,0.00011,7e-05,6,9
60736,6e-05,1e-05,4e-05,-5e-05,-9e-05,0.0001,0.00011,7e-05,6,9
60738,6e-05,1e-05,4e-05,-5e-05,-9e-05,0.0001,0.00011,7e-05,6,9
60739,6e-05,1e-05,4e-05,-5e-05,-9e-05,0.0001,0.00011,7e-05,6,9
60740,6e-05,1e-05,4e-05,-5e-05,-9e-05,0.0001,0.00011,7e-05,6,9
60741,6e-05,1e-05,4e-05,-5e-05,-9e-05,0.0001,0.00011,7e-05,6,9
60742,6e-05,1e-05,4e-05,-5e-05,-9e-05,0.0001,0.00011,7e-05,6,9
60743,6e-05,1e-05,4e-05,-5e-05,-9e-05,0.0001,0.00011,7e-05,6,9
60744,6e-05,1e-05,4e-05,-5e-05,-9e-05,0.0001,0.00011,7e-05,6,9
60745,6e-05,1e-05,4e-05,-5e-05,-9e-05,0.0001,0.00011,7e-05,6,9
60746,-4e-05,-9e-05,-2e-05,6e-05,0.00055,0.00054,0.0001,-4e-05,6,9
60747,-4e-05,-9e-05,-2e-05,6e-05,0.00055,0.00054,0.0001,-4e-05,6,9
60748,9e-05,4e-05,1e-05,2e-05,-0.00018,2e-05,6e-05,-4e-05,6,9
60749,9e-05,4e-05,1e-05,2e-05,-0.00018,2e-05,6e-05,-4e-05,6,9
60750,9e-05,4e-05,1e-05,2e-05,-0.00018,2e-05,6e-05,-4e-05,6,9
60751,9e-05,4e-05,1e-05,2e-05,-0.00018,2e-05,6e-05,-4e-05,6,9
60752,9e-05,4e-05,1e-05,2e-05,-0.00018,2e-05,6e-05,-4e-05,6,9
60753,9e-05,4e-05,1e-05,2e-05,-0.00018,2e-05,6e-05,-4e-05,6,9
60754,9e-05,4e-05,1e-05,2e-05,-0.00018,2e-05,6e-05,-4e-05,6,9
60755,9e-05,4e-05,1e-05,2e-05,-0.00018,2e-05,6e-05,-4e-05,6,9
60756,9e-05,4e-05,1e-05,2e-05,-0.00018,2e-05,6e-05,-4e-05,6,9
60757,9e-05,4e-05,1e-05,2e-05,-0.00018,2e-05,6e-05,-4e-05,6,9
60758,9e-05,4e-05,1e-05,2e-05,-0.00018,2e-05,6e-05,-4e-05,6,9
60759,9e-05,4e-05,1e-05,2e-05,-0.00018,2e-05,6e-05,-4e-05,6,9
60760,9e-05,4e-05,1e-05,2e-05,-0.00018,2e-05,6e-05,-4e-05,6,9
60761,4e-05,-3e-05,-2e-05,-3e-05,-0.00012,0.00025,6e-05,-0.0001,6,9
60762,-9e-05,-5e-05,-0.00011,-2e-05,9e-05,-0.00013,2e-05,5e-05,6,9
60763,-0.00017,-0.0001,-9e-05,-8e-05,-5e-05,-8e-05,4e-05,0.00033,6,9
60764,-0.00017,-0.0001,-9e-05,-8e-05,-5e-05,-8e-05,4e-05,0.00033,6,9
60765,-0.00017,-0.0001,-9e-05,-8e-05,-5e-05,-8e-05,4e-05,0.00033,6,9
60766,-0.00017,-0.0001,-9e-05,-8e-05,-5e-05,-8e-05,4e-05,0.00033,6,9
60767,-0.00017,-0.0001,-9e-05,-8e-05,-5e-05,-8e-05,4e-05,0.00033,6,9
60768,-0.00017,-0.0001,-9e-05,-8e-05,-5e-05,-8e-05,4e-05,0.00033,6,9
60769,-0.00017,-0.0001,-9e-05,-8e-05,-5e-05,-8e-05,4e-05,0.00033,6,9
60770,-0.00017,-0.0001,-9e-05,-8e-05,-5e-05,-8e-05,4e-05,0.00033,6,9
60771,-0.00017,-0.0001,-9e-05,-8e-05,-5e-05,-8e-05,4e-05,0.00033,6,9
60772,-0.00017,-0.0001,-9e-05,-8e-05,-5e-05,-8e-05,4e-05,0.00033,6,9
60773,-0.00017,-0.0001,-9e-05,-8e-05,-5e-05,-8e-05,4e-05,0.00033,6,9
60774,-0.00017,-0.0001,-9e-05,-8e-05,-5e-05,-8e-05,4e-05,0.00033,6,9
60775,0.00012,1e-05,-1e-05,3e-05,3e-05,-0.00014,-6e-05,0.00035,6,9
60776,0.00012,1e-05,-1e-05,3e-05,3e-05,-0.00014,-6e-05,0.00035,6,9
60777,0.00012,1e-05,-1e-05,3e-05,3e-05,-0.00014,-6e-05,0.00035,6,9
60778,0.00012,1e-05,-1e-05,3e-05,3e-05,-0.00014,-6e-05,0.00035,6,9
60779,0.00012,1e-05,-1e-05,3e-05,3e-05,-0.00014,-6e-05,0.00035,6,9
60780,0.00012,1e-05,-1e-05,3e-05,3e-05,-0.00014,-6e-05,0.00035,6,9
60781,0.00012,1e-05,-1e-05,3e-05,3e-05,-0.00014,-6e-05,0.00035,6,9
60782,0,0,-4e-05,1e-05,0,3e-05,4e-05,9e-05,6,9
60783,0,0,-4e-05,1e-05,0,3e-05,4e-05,9e-05,6,9
60784,0,0,-4e-05,1e-05,0,3e-05,4e-05,9e-05,6,9
60785,0,0,-4e-05,1e-05,0,3e-05,4e-05,9e-05,6,9
60786,0,0,-4e-05,1e-05,0,3e-05,4e-05,9e-05,6,9
60788,0,0,-4e-05,1e-05,0,3e-05,4e-05,9e-05,6,9
60789,0,0,-4e-05,1e-05,0,3e-05,4e-05,9e-05,6,9
60791,0,0,-4e-05,1e-05,0,3e-05,4e-05,9e-05,6,9
60792,0,0,-4e-05,1e-05,0,3e-05,4e-05,9e-05,6,9
60793,0,0,-4e-05,1e-05,0,3e-05,4e-05,9e-05,6,9
60794,0,0,-4e-05,1e-05,0,3e-05,4e-05,9e-05,6,9
60795,0,0,-4e-05,1e-05,0,3e-05,4e-05,9e-05,6,9
60796,0,0,-4e-05,1e-05,0,3e-05,4e-05,9e-05,6,9
60797,0,0,-4e-05,1e-05,0,3e-05,4e-05,9e-05,6,9
60798,0,0,-4e-05,1e-05,0,3e-05,4e-05,9e-05,6,9
60799,-1e-05,1e-05,3e-05,4e-05,0.00013,-0.0009,4e-05,-0.00016,6,9
60800,8e-05,2e-05,-4e-05,-6e-05,-5e-05,0.00052,2e-05,0.00018,6,9
60801,8e-05,2e-05,-4e-05,-6e-05,-5e-05,0.00052,2e-05,0.00018,6,9
60802,8e-05,2e-05,-4e-05,-6e-05,-5e-05,0.00052,2e-05,0.00018,6,9
60803,8e-05,2e-05,-4e-05,-6e-05,-5e-05,0.00052,2e-05,0.00018,6,9
60804,8e-05,2e-05,-4e-05,-6e-05,-5e-05,0.00052,2e-05,0.00018,6,9
60805,8e-05,2e-05,-4e-05,-6e-05,-5e-05,0.00052,2e-05,0.00018,6,9
60806,8e-05,2e-05,-4e-05,-6e-05,-5e-05,0.00052,2e-05,0.00018,6,9
60807,8e-05,2e-05,-4e-05,-6e-05,-5e-05,0.00052,2e-05,0.00018,6,9
60808,8e-05,2e-05,-4e-05,-6e-05,-5e-05,0.00052,2e-05,0.00018,6,9
60809,8e-05,2e-05,-4e-05,-6e-05,-5e-05,0.00052,2e-05,0.00018,6,9
60810,8e-05,2e-05,-4e-05,-6e-05,-5e-05,0.00052,2e-05,0.00018,6,9
60811,8e-05,2e-05,-4e-05,-6e-05,-5e-05,0.00052,2e-05,0.00018,6,9
60812,8e-05,2e-05,-4e-05,-6e-05,-5e-05,0.00052,2e-05,0.00018,6,9
60813,8e-05,2e-05,-4e-05,-6e-05,-5e-05,0.00052,2e-05,0.00018,6,9
60814,8e-05,2e-05,-4e-05,-6e-05,-5e-05,0.00052,2e-05,0.00018,6,9
60815,8e-05,2e-05,-4e-05,-6e-05,-5e-05,0.00052,2e-05,0.00018,6,9
60816,8e-05,2e-05,-4e-05,-6e-05,-5e-05,0.00052,2e-05,0.00018,6,9
60817,8e-05,2e-05,-4e-05,-6e-05,-5e-05,0.00052,2e-05,0.00018,6,9
60818,8e-05,2e-05,-4e-05,-6e-05,-5e-05,0.00052,2e-05,0.00018,6,9
60819,8e-05,2e-05,-4e-05,-6e-05,-5e-05,0.00052,2e-05,0.00018,6,9
60820,8e-05,2e-05,-4e-05,-6e-05,-5e-05,0.00052,2e-05,0.00018,6,9
60821,-3e-05,-4e-05,-4e-05,-2e-05,0.00024,0.00076,0.00028,0.0002,6,9
60822,-3e-05,-4e-05,-4e-05,-2e-05,0.00024,0.00076,0.00028,0.0002,6,9
60823,3e-05,3e-05,1e-05,2e-05,-7e-05,0.0002,-4e-05,-0.00024,6,9
60824,3e-05,3e-05,1e-05,2e-05,-7e-05,0.0002,-4e-05,-0.00024,6,9
60825,3e-05,3e-05,1e-05,2e-05,-7e-05,0.0002,-4e-05,-0.00024,6,9
60826,3e-05,3e-05,1e-05,2e-05,-7e-05,0.0002,-4e-05,-0.00024,6,9
60827,3e-05,3e-05,1e-05,2e-05,-7e-05,0.0002,-4e-05,-0.00024,6,9
60828,3e-05,3e-05,1e-05,2e-05,-7e-05,0.0002,-4e-05,-0.00024,6,9
60829,3e-05,3e-05,1e-05,2e-05,-7e-05,0.0002,-4e-05,-0.00024,6,9
60830,3e-05,3e-05,1e-05,2e-05,-7e-05,0.0002,-4e-05,-0.00024,6,9
60831,3e-05,3e-05,1e-05,2e-05,-7e-05,0.0002,-4e-05,-0.00024,6,9
60832,3e-05,3e-05,1e-05,2e-05,-7e-05,0.0002,-4e-05,-0.00024,6,9
60833,3e-05,3e-05,1e-05,2e-05,-7e-05,0.0002,-4e-05,-0.00024,6,9
60834,0,-1e-05,-5e-05,-5e-05,-0.00017,-0.00039,-7e-05,0,6,9
60835,6e-05,9e-05,8e-05,0.0001,0.00031,0.00051,0.00018,0.00012,6,9
60836,6e-05,9e-05,8e-05,0.0001,0.00031,0.00051,0.00018,0.00012,6,9
60839,6e-05,9e-05,8e-05,0.0001,0.00031,0.00051,0.00018,0.00012,6,9
60840,6e-05,9e-05,8e-05,0.0001,0.00031,0.00051,0.00018,0.00012,6,9
60841,6e-05,9e-05,8e-05,0.0001,0.00031,0.00051,0.00018,0.00012,6,9
60842,6e-05,9e-05,8e-05,0.0001,0.00031,0.00051,0.00018,0.00012,6,9
60843,6e-05,9e-05,8e-05,0.0001,0.00031,0.00051,0.00018,0.00012,6,9
60844,3e-05,-4e-05,-6e-05,-5e-05,-4e-05,0.00053,-9e-05,0.00058,6,9
60845,3e-05,-4e-05,-6e-05,-5e-05,-4e-05,0.00053,-9e-05,0.00058,6,9
60846,3e-05,-4e-05,-6e-05,-5e-05,-4e-05,0.00053,-9e-05,0.00058,6,9
60847,3e-05,-4e-05,-6e-05,-5e-05,-4e-05,0.00053,-9e-05,0.00058,6,9
60848,3e-05,-4e-05,-6e-05,-5e-05,-4e-05,0.00053,-9e-05,0.00058,6,9
60849,3e-05,-4e-05,-6e-05,-5e-05,-4e-05,0.00053,-9e-05,0.00058,6,9
60850,3e-05,-4e-05,-6e-05,-5e-05,-4e-05,0.00053,-9e-05,0.00058,6,9
60851,3e-05,-4e-05,-6e-05,-5e-05,-4e-05,0.00053,-9e-05,0.00058,6,9
60852,3e-05,-4e-05,-6e-05,-5e-05,-4e-05,0.00053,-9e-05,0.00058,6,9
60853,3e-05,-4e-05,-6e-05,-5e-05,-4e-05,0.00053,-9e-05,0.00058,6,9
60854,3e-05,-4e-05,-6e-05,-5e-05,-4e-05,0.00053,-9e-05,0.00058,6,9
60855,3e-05,-4e-05,-6e-05,-5e-05,-4e-05,0.00053,-9e-05,0.00058,6,9
60856,3e-05,-4e-05,-6e-05,-5e-05,-4e-05,0.00053,-9e-05,0.00058,6,9
60857,3e-05,-4e-05,-6e-05,-5e-05,-4e-05,0.00053,-9e-05,0.00058,6,9
60858,-6e-05,0,-1e-05,-3e-05,-0.00011,-8e-05,-0.00015,-0.0001,6,9
60859,-6e-05,0,-1e-05,-3e-05,-0.00011,-8e-05,-0.00015,-0.0001,6,9
60860,7e-05,5e-05,4e-05,0.00011,-6e-05,-0.00056,0.00013,0.00019,6,9
60861,7e-05,5e-05,4e-05,0.00011,-6e-05,-0.00056,0.00013,0.00019,6,9
60862,7e-05,5e-05,4e-05,0.00011,-6e-05,-0.00056,0.00013,0.00019,6,9
60863,7e-05,5e-05,4e-05,0.00011,-6e-05,-0.00056,0.00013,0.00019,6,9
60864,7e-05,5e-05,4e-05,0.00011,-6e-05,-0.00056,0.00013,0.00019,6,9
60865,7e-05,5e-05,4e-05,0.00011,-6e-05,-0.00056,0.00013,0.00019,6,9
60866,7e-05,5e-05,4e-05,0.00011,-6e-05,-0.00056,0.00013,0.00019,6,9
60867,7e-05,5e-05,4e-05,0.00011,-6e-05,-0.00056,0.00013,0.00019,6,9
60868,7e-05,5e-05,4e-05,0.00011,-6e-05,-0.00056,0.00013,0.00019,6,9
60869,7e-05,5e-05,4e-05,0.00011,-6e-05,-0.00056,0.00013,0.00019,6,9
60870,7e-05,5e-05,4e-05,0.00011,-6e-05,-0.00056,0.00013,0.00019,6,9
60871,7e-05,5e-05,4e-05,0.00011,-6e-05,-0.00056,0.00013,0.00019,6,9
60872,7e-05,5e-05,4e-05,0.00011,-6e-05,-0.00056,0.00013,0.00019,6,9
60873,7e-05,5e-05,4e-05,0.00011,-6e-05,-0.00056,0.00013,0.00019,6,9
60874,7e-05,5e-05,4e-05,0.00011,-6e-05,-0.00056,0.00013,0.00019,6,9
60875,7e-05,5e-05,4e-05,0.00011,-6e-05,-0.00056,0.00013,0.00019,6,9
60876,7e-05,5e-05,4e-05,0.00011,-6e-05,-0.00056,0.00013,0.00019,6,9
60877,7e-05,5e-05,4e-05,0.00011,-6e-05,-0.00056,0.00013,0.00019,6,9
60878,7e-05,5e-05,4e-05,0.00011,-6e-05,-0.00056,0.00013,0.00019,6,9
60879,7e-05,5e-05,4e-05,0.00011,-6e-05,-0.00056,0.00013,0.00019,6,9
60880,7e-05,5e-05,4e-05,0.00011,-6e-05,-0.00056,0.00013,0.00019,6,9
60881,-5e-05,-4e-05,-0.00011,-0.00011,-0.00011,-0.00054,-0.00014,3e-05,6,9
60882,-1e-05,5e-05,8e-05,0.00018,0.0003,0.00051,2e-05,-4e-05,6,9
60883,-0.0001,-4e-05,-2e-05,-6e-05,-6e-05,8e-05,-2e-05,-0.00097,6,9
60884,-0.0001,-4e-05,-2e-05,-6e-05,-6e-05,8e-05,-2e-05,-0.00097,6,9
60885,-0.0001,-4e-05,-2e-05,-6e-05,-6e-05,8e-05,-2e-05,-0.00097,6,9
60886,-0.0001,-4e-05,-2e-05,-6e-05,-6e-05,8e-05,-2e-05,-0.00097,6,9
60888,-0.0001,-4e-05,-2e-05,-6e-05,-6e-05,8e-05,-2e-05,-0.00097,6,9
60889,-0.0001,-4e-05,-2e-05,-6e-05,-6e-05,8e-05,-2e-05,-0.00097,6,9
60890,-0.0001,-4e-05,-2e-05,-6e-05,-6e-05,8e-05,-2e-05,-0.00097,6,9
60891,-0.0001,-4e-05,-2e-05,-6e-05,-6e-05,8e-05,-2e-05,-0.00097,6,9
60892,-0.0001,-4e-05,-2e-05,-6e-05,-6e-05,8e-05,-2e-05,-0.00097,6,9
60893,-0.0001,-4e-05,-2e-05,-6e-05,-6e-05,8e-05,-2e-05,-0.00097,6,9
60894,-0.0001,-4e-05,-2e-05,-6e-05,-6e-05,8e-05,-2e-05,-0.00097,6,9
60895,-3e-05,-7e-05,-2e-05,-4e-05,-6e-05,0.00016,0,-0.00023,6,9
60896,-3e-05,-7e-05,-2e-05,-4e-05,-6e-05,0.00016,0,-0.00023,6,9
60897,-3e-05,-7e-05,-2e-05,-4e-05,-6e-05,0.00016,0,-0.00023,6,9
60898,-3e-05,-7e-05,-2e-05,-4e-05,-6e-05,0.00016,0,-0.00023,6,9
60899,-3e-05,-7e-05,-2e-05,-4e-05,-6e-05,0.00016,0,-0.00023,6,9
60900,-3e-05,-7e-05,-2e-05,-4e-05,-6e-05,0.00016,0,-0.00023,6,9
60901,-3e-05,-7e-05,-2e-05,-4e-05,-6e-05,0.00016,0,-0.00023,6,9
60902,-3e-05,-7e-05,-2e-05,-4e-05,-6e-05,0.00016,0,-0.00023,6,9
60903,-3e-05,-7e-05,-2e-05,-4e-05,-6e-05,0.00016,0,-0.00023,6,9
60904,9e-05,1e-05,2e-05,1e-05,-1e-05,0.00023,6e-05,1e-05,6,9
60905,9e-05,1e-05,2e-05,1e-05,-1e-05,0.00023,6e-05,1e-05,6,9
60906,9e-05,1e-05,2e-05,1e-05,-1e-05,0.00023,6e-05,1e-05,6,9
60907,9e-05,1e-05,2e-05,1e-05,-1e-05,0.00023,6e-05,1e-05,6,9
60908,9e-05,1e-05,2e-05,1e-05,-1e-05,0.00023,6e-05,1e-05,6,9
60909,9e-05,1e-05,2e-05,1e-05,-1e-05,0.00023,6e-05,1e-05,6,9
60910,9e-05,1e-05,2e-05,1e-05,-1e-05,0.00023,6e-05,1e-05,6,9
60911,9e-05,1e-05,2e-05,1e-05,-1e-05,0.00023,6e-05,1e-05,6,9
60912,9e-05,1e-05,2e-05,1e-05,-1e-05,0.00023,6e-05,1e-05,6,9
60913,9e-05,1e-05,2e-05,1e-05,-1e-05,0.00023,6e-05,1e-05,6,9
60914,9e-05,1e-05,2e-05,1e-05,-1e-05,0.00023,6e-05,1e-05,6,9
60915,9e-05,1e-05,2e-05,1e-05,-1e-05,0.00023,6e-05,1e-05,6,9
60916,9e-05,1e-05,2e-05,1e-05,-1e-05,0.00023,6e-05,1e-05,6,9
60917,9e-05,1e-05,2e-05,1e-05,-1e-05,0.00023,6e-05,1e-05,6,9
60918,-9e-05,-3e-05,-6e-05,-4e-05,-9e-05,0.00046,-0.0001,-0.00033,6,9
60919,-9e-05,-3e-05,-6e-05,-4e-05,-9e-05,0.00046,-0.0001,-0.00033,6,9
60920,4e-05,1e-05,0,9e-05,0.00042,0.00032,-5e-05,0.00027,6,9
60921,4e-05,1e-05,0,9e-05,0.00042,0.00032,-5e-05,0.00027,6,9
60922,4e-05,1e-05,0,9e-05,0.00042,0.00032,-5e-05,0.00027,6,9
60923,4e-05,1e-05,0,9e-05,0.00042,0.00032,-5e-05,0.00027,6,9
60924,4e-05,1e-05,0,9e-05,0.00042,0.00032,-5e-05,0.00027,6,9
60925,4e-05,1e-05,0,9e-05,0.00042,0.00032,-5e-05,0.00027,6,9
60926,4e-05,1e-05,0,9e-05,0.00042,0.00032,-5e-05,0.00027,6,9
60927,4e-05,1e-05,0,9e-05,0.00042,0.00032,-5e-05,0.00027,6,9
60928,4e-05,1e-05,0,9e-05,0.00042,0.00032,-5e-05,0.00027,6,9
60929,4e-05,1e-05,0,9e-05,0.00042,0.00032,-5e-05,0.00027,6,9
60930,4e-05,1e-05,0,9e-05,0.00042,0.00032,-5e-05,0.00027,6,9
60931,4e-05,1e-05,0,9e-05,0.00042,0.00032,-5e-05,0.00027,6,9
60932,4e-05,1e-05,0,9e-05,0.00042,0.00032,-5e-05,0.00027,6,9
60933,4e-05,1e-05,0,9e-05,0.00042,0.00032,-5e-05,0.00027,6,9
60934,4e-05,1e-05,0,9e-05,0.00042,0.00032,-5e-05,0.00027,6,9
60935,4e-05,1e-05,0,9e-05,0.00042,0.00032,-5e-05,0.00027,6,9
60936,4e-05,1e-05,0,9e-05,0.00042,0.00032,-5e-05,0.00027,6,9
60938,4e-05,1e-05,0,9e-05,0.00042,0.00032,-5e-05,0.00027,6,9
60939,4e-05,1e-05,0,9e-05,0.00042,0.00032,-5e-05,0.00027,6,9
60940,4e-05,1e-05,0,9e-05,0.00042,0.00032,-5e-05,0.00027,6,9
