34375,-0.00018,-3e-05,1e-05,0.0001,0.00013,0.00032,3e-05,0.00018,7,11
34376,-0.00018,-3e-05,1e-05,0.0001,0.00013,0.00032,3e-05,0.00018,7,11
34377,-0.00018,-3e-05,1e-05,0.0001,0.00013,0.00032,3e-05,0.00018,7,11
34378,-0.00018,-3e-05,1e-05,0.0001,0.00013,0.00032,3e-05,0.00018,7,11
34379,-0.00018,-3e-05,1e-05,0.0001,0.00013,0.00032,3e-05,0.00018,7,11
34380,-0.00018,-3e-05,1e-05,0.0001,0.00013,0.00032,3e-05,0.00018,7,11
34381,-0.00018,-3e-05,1e-05,0.0001,0.00013,0.00032,3e-05,0.00018,7,11
34382,-0.00018,-3e-05,1e-05,0.0001,0.00013,0.00032,3e-05,0.00018,7,11
34383,-0.00018,-3e-05,1e-05,0.0001,0.00013,0.00032,3e-05,0.00018,7,11
34384,-0.00018,-3e-05,1e-05,0.0001,0.00013,0.00032,3e-05,0.00018,7,11
34385,-0.00018,-3e-05,1e-05,0.0001,0.00013,0.00032,3e-05,0.00018,7,11
34386,-0.00018,-3e-05,1e-05,0.0001,0.00013,0.00032,3e-05,0.00018,7,11
34388,-0.00018,-3e-05,1e-05,0.0001,0.00013,0.00032,3e-05,0.00018,7,11
34389,-0.00018,-3e-05,1e-05,0.0001,0.00013,0.00032,3e-05,0.00018,7,11
34390,-0.00018,-3e-05,1e-05,0.0001,0.00013,0.00032,3e-05,0.00018,7,11
34391,-0.00018,-3e-05,1e-05,0.0001,0.00013,0.00032,3e-05,0.00018,7,11
34392,-0.00018,-3e-05,1e-05,0.0001,0.00013,0.00032,3e-05,0.00018,7,11
34393,-0.00018,-3e-05,1e-05,0.0001,0.00013,0.00032,3e-05,0.00018,7,11
34394,-0.00018,-3e-05,1e-05,0.0001,0.00013,0.00032,3e-05,0.00018,7,11
34395,-0.00018,-3e-05,1e-05,0.0001,0.00013,0.00032,3e-05,0.00018,7,11
34396,0.00036,8e-05,5e-05,3e-05,0.00045,0.0005,0.00018,-0.00032,7,11
34397,-0.00084,-0.00012,-8e-05,1e-05,0.00017,0.00031,0,-0.00023,7,11
34398,-0.00084,-0.00012,-8e-05,1e-05,0.00017,0.00031,0,-0.00023,7,11
34399,-0.00084,-0.00012,-8e-05,1e-05,0.00017,0.00031,0,-0.00023,7,11
34400,-0.00084,-0.00012,-8e-05,1e-05,0.00017,0.00031,0,-0.00023,7,11
34401,-0.00084,-0.00012,-8e-05,1e-05,0.00017,0.00031,0,-0.00023,7,11
34402,-0.00084,-0.00012,-8e-05,1e-05,0.00017,0.00031,0,-0.00023,7,11
34403,-0.00084,-0.00012,-8e-05,1e-05,0.00017,0.00031,0,-0.00023,7,11
34404,-0.00084,-0.00012,-8e-05,1e-05,0.00017,0.00031,0,-0.00023,7,11
34405,-0.00084,-0.00012,-8e-05,1e-05,0.00017,0.00031,0,-0.00023,7,11
34406,-0.00084,-0.00012,-8e-05,1e-05,0.00017,0.00031,0,-0.00023,7,11
34407,-0.00084,-0.00012,-8e-05,1e-05,0.00017,0.00031,0,-0.00023,7,11
34408,-0.00084,-0.00012,-8e-05,1e-05,0.00017,0.00031,0,-0.00023,7,11
34409,-0.00084,-0.00012,-8e-05,1e-05,0.00017,0.00031,0,-0.00023,7,11
34410,-0.00045,3e-05,6e-05,0.00011,-0.00027,2e-05,0.0003,-8e-05,7,11
34411,-0.00045,3e-05,6e-05,0.00011,-0.00027,2e-05,0.0003,-8e-05,7,11
34412,0.00053,7e-05,3e-05,-2e-05,0.0002,-0.00021,-3e-05,-8e-05,7,11
34413,0.00053,7e-05,3e-05,-2e-05,0.0002,-0.00021,-3e-05,-8e-05,7,11
34414,0.00053,7e-05,3e-05,-2e-05,0.0002,-0.00021,-3e-05,-8e-05,7,11
34415,0.00053,7e-05,3e-05,-2e-05,0.0002,-0.00021,-3e-05,-8e-05,7,11
34416,0.00053,7e-05,3e-05,-2e-05,0.0002,-0.00021,-3e-05,-8e-05,7,11
34417,0.00053,7e-05,3e-05,-2e-05,0.0002,-0.00021,-3e-05,-8e-05,7,11
34418,0.00053,7e-05,3e-05,-2e-05,0.0002,-0.00021,-3e-05,-8e-05,7,11
34419,0.00053,7e-05,3e-05,-2e-05,0.0002,-0.00021,-3e-05,-8e-05,7,11
34420,0.00053,7e-05,3e-05,-2e-05,0.0002,-0.00021,-3e-05,-8e-05,7,11
34421,0.00053,7e-05,3e-05,-2e-05,0.0002,-0.00021,-3e-05,-8e-05,7,11
34422,0.00053,7e-05,3e-05,-2e-05,0.0002,-0.00021,-3e-05,-8e-05,7,11
34423,0.00053,7e-05,3e-05,-2e-05,0.0002,-0.00021,-3e-05,-8e-05,7,11
34424,0.00053,7e-05,3e-05,-2e-05,0.0002,-0.00021,-3e-05,-8e-05,7,11
34425,0.00053,7e-05,3e-05,-2e-05,0.0002,-0.00021,-3e-05,-8e-05,7,11
34426,0.00053,7e-05,3e-05,-2e-05,0.0002,-0.00021,-3e-05,-8e-05,7,11
34427,0.00053,7e-05,3e-05,-2e-05,0.0002,-0.00021,-3e-05,-8e-05,7,11
34428,0.00053,7e-05,3e-05,-2e-05,0.0002,-0.00021,-3e-05,-8e-05,7,11
34429,0.00053,7e-05,3e-05,-2e-05,0.0002,-0.00021,-3e-05,-8e-05,7,11
34430,0.00053,7e-05,3e-05,-2e-05,0.0002,-0.00021,-3e-05,-8e-05,7,11
34431,0.00053,7e-05,3e-05,-2e-05,0.0002,-0.00021,-3e-05,-8e-05,7,11
34432,0.00053,7e-05,3e-05,-2e-05,0.0002,-0.00021,-3e-05,-8e-05,7,11
34433,0.00053,7e-05,3e-05,-2e-05,0.0002,-0.00021,-3e-05,-8e-05,7,11
34434,0.00102,-3e-05,-8e-05,-9e-05,-0.00108,-0.00071,4e-05,0.00073,7,11
34435,0.00102,-3e-05,-8e-05,-9e-05,-0.00108,-0.00071,4e-05,0.00073,7,11
34436,0.00102,-3e-05,-8e-05,-9e-05,-0.00108,-0.00071,4e-05,0.00073,7,11
34438,0.00102,-3e-05,-8e-05,-9e-05,-0.00108,-0.00071,4e-05,0.00073,7,11
34439,-3e-05,-2e-05,-1e-05,-5e-05,-0.00097,-0.00076,6e-05,0.00045,7,11
34440,-3e-05,-2e-05,-1e-05,-5e-05,-0.00097,-0.00076,6e-05,0.00045,7,11
34441,-3e-05,-2e-05,-1e-05,-5e-05,-0.00097,-0.00076,6e-05,0.00045,7,11
34442,-3e-05,-2e-05,-1e-05,-5e-05,-0.00097,-0.00076,6e-05,0.00045,7,11
34443,-3e-05,-2e-05,-1e-05,-5e-05,-0.00097,-0.00076,6e-05,0.00045,7,11
34444,-3e-05,-2e-05,-1e-05,-5e-05,-0.00097,-0.00076,6e-05,0.00045,7,11
34445,-3e-05,-2e-05,-1e-05,-5e-05,-0.00097,-0.00076,6e-05,0.00045,7,11
34446,-3e-05,-2e-05,-1e-05,-5e-05,-0.00097,-0.00076,6e-05,0.00045,7,11
34447,-3e-05,-2e-05,-1e-05,-5e-05,-0.00097,-0.00076,6e-05,0.00045,7,11
34448,-3e-05,-2e-05,-1e-05,-5e-05,-0.00097,-0.00076,6e-05,0.00045,7,11
34449,-3e-05,-2e-05,-1e-05,-5e-05,-0.00097,-0.00076,6e-05,0.00045,7,11
34450,-3e-05,-2e-05,-1e-05,-5e-05,-0.00097,-0.00076,6e-05,0.00045,7,11
34451,-3e-05,-2e-05,-1e-05,-5e-05,-0.00097,-0.00076,6e-05,0.00045,7,11
34452,-3e-05,-2e-05,-1e-05,-5e-05,-0.00097,-0.00076,6e-05,0.00045,7,11
34453,-3e-05,-2e-05,-1e-05,-5e-05,-0.00097,-0.00076,6e-05,0.00045,7,11
34454,-3e-05,-2e-05,-1e-05,-5e-05,-0.00097,-0.00076,6e-05,0.00045,7,11
34455,-0.00058,-6e-05,0,0.00017,0,0.00054,-0.00022,-0.00078,7,11
34456,-0.00058,-6e-05,0,0.00017,0,0.00054,-0.00022,-0.00078,7,11
34457,9e-05,1e-05,4e-05,2e-05,0.00013,0.00022,3e-05,-0.00061,7,11
34458,9e-05,1e-05,4e-05,2e-05,0.00013,0.00022,3e-05,-0.00061,7,11
34459,9e-05,1e-05,4e-05,2e-05,0.00013,0.00022,3e-05,-0.00061,7,11
34460,9e-05,1e-05,4e-05,2e-05,0.00013,0.00022,3e-05,-0.00061,7,11
34461,9e-05,1e-05,4e-05,2e-05,0.00013,0.00022,3e-05,-0.00061,7,11
34462,9e-05,1e-05,4e-05,2e-05,0.00013,0.00022,3e-05,-0.00061,7,11
34463,9e-05,1e-05,4e-05,2e-05,0.00013,0.00022,3e-05,-0.00061,7,11
34464,9e-05,1e-05,4e-05,2e-05,0.00013,0.00022,3e-05,-0.00061,7,11
34465,9e-05,1e-05,4e-05,2e-05,0.00013,0.00022,3e-05,-0.00061,7,11
34466,9e-05,1e-05,4e-05,2e-05,0.00013,0.00022,3e-05,-0.00061,7,11
34467,9e-05,1e-05,4e-05,2e-05,0.00013,0.00022,3e-05,-0.00061,7,11
34468,9e-05,1e-05,4e-05,2e-05,0.00013,0.00022,3e-05,-0.00061,7,11
34469,-6e-05,2e-05,5e-05,8e-05,-0.00021,-0.00051,0.00015,-2e-05,7,11
34470,0.00015,-1e-05,-4e-05,-2e-05,0.00056,0.00044,-7e-05,-0.00056,7,11
34471,0.00015,-1e-05,-4e-05,-2e-05,0.00056,0.00044,-7e-05,-0.00056,7,11
34472,0.00015,-1e-05,-4e-05,-2e-05,0.00056,0.00044,-7e-05,-0.00056,7,11
34473,0.00015,-1e-05,-4e-05,-2e-05,0.00056,0.00044,-7e-05,-0.00056,7,11
34474,0.00015,-1e-05,-4e-05,-2e-05,0.00056,0.00044,-7e-05,-0.00056,7,11
34475,0.00015,-1e-05,-4e-05,-2e-05,0.00056,0.00044,-7e-05,-0.00056,7,11
34476,0.00015,-1e-05,-4e-05,-2e-05,0.00056,0.00044,-7e-05,-0.00056,7,11
34477,0.00015,-1e-05,-4e-05,-2e-05,0.00056,0.00044,-7e-05,-0.00056,7,11
34478,0.00015,-1e-05,-4e-05,-2e-05,0.00056,0.00044,-7e-05,-0.00056,7,11
34479,0.00015,-1e-05,-4e-05,-2e-05,0.00056,0.00044,-7e-05,-0.00056,7,11
34480,0.00015,-1e-05,-4e-05,-2e-05,0.00056,0.00044,-7e-05,-0.00056,7,11
34481,0.00015,-1e-05,-4e-05,-2e-05,0.00056,0.00044,-7e-05,-0.00056,7,11
34482,0.00015,-1e-05,-4e-05,-2e-05,0.00056,0.00044,-7e-05,-0.00056,7,11
34483,0.00015,-1e-05,-4e-05,-2e-05,0.00056,0.00044,-7e-05,-0.00056,7,11
34484,-0.00114,-6e-05,-4e-05,-9e-05,-0.0009,-7e-05,2e-05,0.00033,7,11
34485,-0.00114,-6e-05,-4e-05,-9e-05,-0.0009,-7e-05,2e-05,0.00033,7,11
34486,-0.00114,-6e-05,-4e-05,-9e-05,-0.0009,-7e-05,2e-05,0.00033,7,11
34488,-0.00114,-6e-05,-4e-05,-9e-05,-0.0009,-7e-05,2e-05,0.00033,7,11
34489,-0.00114,-6e-05,-4e-05,-9e-05,-0.0009,-7e-05,2e-05,0.00033,7,11
34490,-0.00114,-6e-05,-4e-05,-9e-05,-0.0009,-7e-05,2e-05,0.00033,7,11
34491,-0.00114,-6e-05,-4e-05,-9e-05,-0.0009,-7e-05,2e-05,0.00033,7,11
34492,-0.00114,-6e-05,-4e-05,-9e-05,-0.0009,-7e-05,2e-05,0.00033,7,11
34493,0.00013,0,-2e-05,-9e-05,-0.00021,0.00029,6e-05,0.00071,7,11
34494,0.00107,-1e-05,-3e-05,4e-05,0.00016,-0.00042,9e-05,-0.00019,7,11
34495,0.00107,-1e-05,-3e-05,4e-05,0.00016,-0.00042,9e-05,-0.00019,7,11
34496,0.00107,-1e-05,-3e-05,4e-05,0.00016,-0.00042,9e-05,-0.00019,7,11
34497,0.00107,-1e-05,-3e-05,4e-05,0.00016,-0.00042,9e-05,-0.00019,7,11
34498,0.00107,-1e-05,-3e-05,4e-05,0.00016,-0.00042,9e-05,-0.00019,7,11
34499,0.00107,-1e-05,-3e-05,4e-05,0.00016,-0.00042,9e-05,-0.00019,7,11
34500,0.00107,-1e-05,-3e-05,4e-05,0.00016,-0.00042,9e-05,-0.00019,7,11
34501,0.00107,-1e-05,-3e-05,4e-05,0.00016,-0.00042,9e-05,-0.00019,7,11
34502,0.00107,-1e-05,-3e-05,4e-05,0.00016,-0.00042,9e-05,-0.00019,7,11
34503,0.00107,-1e-05,-3e-05,4e-05,0.00016,-0.00042,9e-05,-0.00019,7,11
34504,0.00107,-1e-05,-3e-05,4e-05,0.00016,-0.00042,9e-05,-0.00019,7,11
34505,0.00107,-1e-05,-3e-05,4e-05,0.00016,-0.00042,9e-05,-0.00019,7,11
34506,0.00107,-1e-05,-3e-05,4e-05,0.00016,-0.00042,9e-05,-0.00019,7,11
34507,0.00107,-1e-05,-3e-05,4e-05,0.00016,-0.00042,9e-05,-0.00019,7,11
34508,0.00107,-1e-05,-3e-05,4e-05,0.00016,-0.00042,9e-05,-0.00019,7,11
34509,0.00107,-1e-05,-3e-05,4e-05,0.00016,-0.00042,9e-05,-0.00019,7,11
34510,0.00107,-1e-05,-3e-05,4e-05,0.00016,-0.00042,9e-05,-0.00019,7,11
34511,0.00107,-1e-05,-3e-05,4e-05,0.00016,-0.00042,9e-05,-0.00019,7,11
34512,0.00107,-1e-05,-3e-05,4e-05,0.00016,-0.00042,9e-05,-0.00019,7,11
34513,0.00107,-1e-05,-3e-05,4e-05,0.00016,-0.00042,9e-05,-0.00019,7,11
34514,0.00107,-1e-05,-3e-05,4e-05,0.00016,-0.00042,9e-05,-0.00019,7,11
34515,0.00011,8e-05,4e-05,-4e-05,3e-05,0.0007,1e-05,-0.00056,7,11
34516,0.00011,8e-05,4e-05,-4e-05,3e-05,0.0007,1e-05,-0.00056,7,11
34517,0.00011,-1e-05,-5e-05,-4e-05,-0.00074,-0.00063,-5e-05,2e-05,7,11
34518,0.00011,-1e-05,-5e-05,-4e-05,-0.00074,-0.00063,-5e-05,2e-05,7,11
34519,0.00011,-1e-05,-5e-05,-4e-05,-0.00074,-0.00063,-5e-05,2e-05,7,11
34520,0.00011,-1e-05,-5e-05,-4e-05,-0.00074,-0.00063,-5e-05,2e-05,7,11
34521,0.00011,-1e-05,-5e-05,-4e-05,-0.00074,-0.00063,-5e-05,2e-05,7,11
34522,0.00011,-1e-05,-5e-05,-4e-05,-0.00074,-0.00063,-5e-05,2e-05,7,11
34523,0.00011,-1e-05,-5e-05,-4e-05,-0.00074,-0.00063,-5e-05,2e-05,7,11
34524,0.00011,-1e-05,-5e-05,-4e-05,-0.00074,-0.00063,-5e-05,2e-05,7,11
34525,0.00011,-1e-05,-5e-05,-4e-05,-0.00074,-0.00063,-5e-05,2e-05,7,11
34526,0.00011,-1e-05,-5e-05,-4e-05,-0.00074,-0.00063,-5e-05,2e-05,7,11
34527,0.00011,-1e-05,-5e-05,-4e-05,-0.00074,-0.00063,-5e-05,2e-05,7,11
34528,0.00011,-1e-05,-5e-05,-4e-05,-0.00074,-0.00063,-5e-05,2e-05,7,11
34529,0.00011,-1e-05,-5e-05,-4e-05,-0.00074,-0.00063,-5e-05,2e-05,7,11
34530,0.0003,-3e-05,-4e-05,-6e-05,0,8e-05,-5e-05,-0.00046,7,11
34531,0.0003,-3e-05,-4e-05,-6e-05,0,8e-05,-5e-05,-0.00046,7,11
34532,0.0003,-3e-05,-4e-05,-6e-05,0,8e-05,-5e-05,-0.00046,7,11
34533,0.0003,-3e-05,-4e-05,-6e-05,0,8e-05,-5e-05,-0.00046,7,11
34534,0.0003,-3e-05,-4e-05,-6e-05,0,8e-05,-5e-05,-0.00046,7,11
34535,0.0003,-3e-05,-4e-05,-6e-05,0,8e-05,-5e-05,-0.00046,7,11
34536,0.0003,-3e-05,-4e-05,-6e-05,0,8e-05,-5e-05,-0.00046,7,11
34538,-7e-05,0,-4e-05,-1e-05,4e-05,-0.00036,-0.00025,0.00018,7,11
34539,-7e-05,0,-4e-05,-1e-05,4e-05,-0.00036,-0.00025,0.00018,7,11
34540,-7e-05,0,-4e-05,-1e-05,4e-05,-0.00036,-0.00025,0.00018,7,11
34541,-7e-05,0,-4e-05,-1e-05,4e-05,-0.00036,-0.00025,0.00018,7,11
34542,-7e-05,0,-4e-05,-1e-05,4e-05,-0.00036,-0.00025,0.00018,7,11
34543,-7e-05,0,-4e-05,-1e-05,4e-05,-0.00036,-0.00025,0.00018,7,11
34544,-7e-05,0,-4e-05,-1e-05,4e-05,-0.00036,-0.00025,0.00018,7,11
34545,-7e-05,0,-4e-05,-1e-05,4e-05,-0.00036,-0.00025,0.00018,7,11
34546,-7e-05,0,-4e-05,-1e-05,4e-05,-0.00036,-0.00025,0.00018,7,11
34547,-7e-05,0,-4e-05,-1e-05,4e-05,-0.00036,-0.00025,0.00018,7,11
34548,-7e-05,0,-4e-05,-1e-05,4e-05,-0.00036,-0.00025,0.00018,7,11
34549,-7e-05,0,-4e-05,-1e-05,4e-05,-0.00036,-0.00025,0.00018,7,11
34550,-7e-05,0,-4e-05,-1e-05,4e-05,-0.00036,-0.00025,0.00018,7,11
34551,-7e-05,0,-4e-05,-1e-05,4e-05,-0.00036,-0.00025,0.00018,7,11
34552,-7e-05,0,-4e-05,-1e-05,4e-05,-0.00036,-0.00025,0.00018,7,11
34553,0.00019,-2e-05,-4e-05,-3e-05,-0.00015,-0.00014,0.00016,-2e-05,7,11
34554,0.00019,-2e-05,-4e-05,-3e-05,-0.00015,-0.00014,0.00016,-2e-05,7,11
34555,0.00027,-3e-05,-2e-05,6e-05,0.00041,0.00024,-2e-05,-7e-05,7,11
34556,0.00027,-3e-05,-2e-05,6e-05,0.00041,0.00024,-2e-05,-7e-05,7,11
34557,0.00027,-3e-05,-2e-05,6e-05,0.00041,0.00024,-2e-05,-7e-05,7,11
34558,0.00027,-3e-05,-2e-05,6e-05,0.00041,0.00024,-2e-05,-7e-05,7,11
34559,0.00027,-3e-05,-2e-05,6e-05,0.00041,0.00024,-2e-05,-7e-05,7,11
34560,0.00027,-3e-05,-2e-05,6e-05,0.00041,0.00024,-2e-05,-7e-05,7,11
34561,0.00027,-3e-05,-2e-05,6e-05,0.00041,0.00024,-2e-05,-7e-05,7,11
34562,0.00027,-3e-05,-2e-05,6e-05,0.00041,0.00024,-2e-05,-7e-05,7,11
34563,0.00027,-3e-05,-2e-05,6e-05,0.00041,0.00024,-2e-05,-7e-05,7,11
34564,0.00027,-3e-05,-2e-05,6e-05,0.00041,0.00024,-2e-05,-7e-05,7,11
34565,0.00027,-3e-05,-2e-05,6e-05,0.00041,0.00024,-2e-05,-7e-05,7,11
34566,0.00027,-3e-05,-2e-05,6e-05,0.00041,0.00024,-2e-05,-7e-05,7,11
34567,0.00027,-3e-05,-2e-05,6e-05,0.00041,0.00024,-2e-05,-7e-05,7,11
34568,0.00027,-3e-05,-2e-05,6e-05,0.00041,0.00024,-2e-05,-7e-05,7,11
34569,0.00027,-3e-05,-2e-05,6e-05,0.00041,0.00024,-2e-05,-7e-05,7,11
34570,0.00027,-3e-05,-2e-05,6e-05,0.00041,0.00024,-2e-05,-7e-05,7,11
34571,0.00027,-3e-05,-2e-05,6e-05,0.00041,0.00024,-2e-05,-7e-05,7,11
34572,0.00027,-3e-05,-2e-05,6e-05,0.00041,0.00024,-2e-05,-7e-05,7,11
34573,0.00027,-3e-05,-2e-05,6e-05,0.00041,0.00024,-2e-05,-7e-05,7,11
34574,0.00027,-3e-05,-2e-05,6e-05,0.00041,0.00024,-2e-05,-7e-05,7,11
34575,-0.00021,8e-05,7e-05,0.00013,-6e-05,-0.0008,-0.00022,2e-05,7,11
34576,-0.00021,8e-05,7e-05,0.00013,-6e-05,-0.0008,-0.00022,2e-05,7,11
34577,-0.0002,-2e-05,-3e-05,-5e-05,-9e-05,-0.00026,1e-05,-0.00023,7,11
34578,-0.0002,-2e-05,-3e-05,-5e-05,-9e-05,-0.00026,1e-05,-0.00023,7,11
34579,-0.0002,-2e-05,-3e-05,-5e-05,-9e-05,-0.00026,1e-05,-0.00023,7,11
34580,-0.0002,-2e-05,-3e-05,-5e-05,-9e-05,-0.00026,1e-05,-0.00023,7,11
34581,-0.0002,-2e-05,-3e-05,-5e-05,-9e-05,-0.00026,1e-05,-0.00023,7,11
34582,-0.0002,-2e-05,-3e-05,-5e-05,-9e-05,-0.00026,1e-05,-0.00023,7,11
34583,-0.0002,-2e-05,-3e-05,-5e-05,-9e-05,-0.00026,1e-05,-0.00023,7,11
34584,-0.0002,-2e-05,-3e-05,-5e-05,-9e-05,-0.00026,1e-05,-0.00023,7,11
34585,-0.0002,-2e-05,-3e-05,-5e-05,-9e-05,-0.00026,1e-05,-0.00023,7,11
34586,-0.0002,-2e-05,-3e-05,-5e-05,-9e-05,-0.00026,1e-05,-0.00023,7,11
34589,-0.0002,-2e-05,-3e-05,-5e-05,-9e-05,-0.00026,1e-05,-0.00023,7,11
34590,0.00013,-2e-05,0,8e-05,0.00088,0.00056,0.00013,-0.00047,7,11
34591,0.00013,-2e-05,0,8e-05,0.00088,0.00056,0.00013,-0.00047,7,11
34592,0.00013,-2e-05,0,8e-05,0.00088,0.00056,0.00013,-0.00047,7,11
34593,0.00013,-2e-05,0,8e-05,0.00088,0.00056,0.00013,-0.00047,7,11
34594,0.00013,-2e-05,0,8e-05,0.00088,0.00056,0.00013,-0.00047,7,11
34595,0.00013,-2e-05,0,8e-05,0.00088,0.00056,0.00013,-0.00047,7,11
34596,0.00043,3e-05,-1e-05,-3e-05,-0.00051,2e-05,5e-05,0.00081,7,11
34597,0.00043,3e-05,-1e-05,-3e-05,-0.00051,2e-05,5e-05,0.00081,7,11
34598,0.00043,3e-05,-1e-05,-3e-05,-0.00051,2e-05,5e-05,0.00081,7,11
34599,0.00043,3e-05,-1e-05,-3e-05,-0.00051,2e-05,5e-05,0.00081,7,11
34600,0.00043,3e-05,-1e-05,-3e-05,-0.00051,2e-05,5e-05,0.00081,7,11
34601,0.00043,3e-05,-1e-05,-3e-05,-0.00051,2e-05,5e-05,0.00081,7,11
34602,0.00043,3e-05,-1e-05,-3e-05,-0.00051,2e-05,5e-05,0.00081,7,11
34603,0.00043,3e-05,-1e-05,-3e-05,-0.00051,2e-05,5e-05,0.00081,7,11
34604,0.00043,3e-05,-1e-05,-3e-05,-0.00051,2e-05,5e-05,0.00081,7,11
34605,0.00043,3e-05,-1e-05,-3e-05,-0.00051,2e-05,5e-05,0.00081,7,11
34606,0.00043,3e-05,-1e-05,-3e-05,-0.00051,2e-05,5e-05,0.00081,7,11
34607,0.00043,3e-05,-1e-05,-3e-05,-0.00051,2e-05,5e-05,0.00081,7,11
34608,0.00043,3e-05,-1e-05,-3e-05,-0.00051,2e-05,5e-05,0.00081,7,11
34609,0.00043,3e-05,-1e-05,-3e-05,-0.00051,2e-05,5e-05,0.00081,7,11
34610,0.00043,3e-05,-1e-05,-3e-05,-0.00051,2e-05,5e-05,0.00081,7,11
34611,0.00043,3e-05,-1e-05,-3e-05,-0.00051,2e-05,5e-05,0.00081,7,11
34612,0.00043,3e-05,-1e-05,-3e-05,-0.00051,2e-05,5e-05,0.00081,7,11
34613,0.0001,-8e-05,-6e-05,-0.00013,0.00028,-0.00018,0.00011,0.001,7,11
34614,-2e-05,-1e-05,-1e-05,-8e-05,0.00026,5e-05,-6e-05,-0.00018,7,11
34615,-2e-05,-1e-05,-1e-05,-8e-05,0.00026,5e-05,-6e-05,-0.00018,7,11
34616,-2e-05,-1e-05,-1e-05,-8e-05,0.00026,5e-05,-6e-05,-0.00018,7,11
34617,-2e-05,-1e-05,-1e-05,-8e-05,0.00026,5e-05,-6e-05,-0.00018,7,11
34618,-2e-05,-1e-05,-1e-05,-8e-05,0.00026,5e-05,-6e-05,-0.00018,7,11
34619,-2e-05,-1e-05,-1e-05,-8e-05,0.00026,5e-05,-6e-05,-0.00018,7,11
34620,-2e-05,-1e-05,-1e-05,-8e-05,0.00026,5e-05,-6e-05,-0.00018,7,11
34621,-2e-05,-1e-05,-1e-05,-8e-05,0.00026,5e-05,-6e-05,-0.00018,7,11
34622,-2e-05,-1e-05,-1e-05,-8e-05,0.00026,5e-05,-6e-05,-0.00018,7,11
34623,-2e-05,-1e-05,-1e-05,-8e-05,0.00026,5e-05,-6e-05,-0.00018,7,11
34624,-2e-05,-1e-05,-1e-05,-8e-05,0.00026,5e-05,-6e-05,-0.00018,7,11
34625,-2e-05,-1e-05,-1e-05,-8e-05,0.00026,5e-05,-6e-05,-0.00018,7,11
34626,-2e-05,-1e-05,-1e-05,-8e-05,0.00026,5e-05,-6e-05,-0.00018,7,11
34627,-2e-05,-1e-05,-1e-05,-8e-05,0.00026,5e-05,-6e-05,-0.00018,7,11
34628,-2e-05,-1e-05,-1e-05,-8e-05,0.00026,5e-05,-6e-05,-0.00018,7,11
34630,-2e-05,-1e-05,-1e-05,-8e-05,0.00026,5e-05,-6e-05,-0.00018,7,11
34631,-2e-05,-1e-05,-1e-05,-8e-05,0.00026,5e-05,-6e-05,-0.00018,7,11
34632,-2e-05,-1e-05,-1e-05,-8e-05,0.00026,5e-05,-6e-05,-0.00018,7,11
34633,-2e-05,-1e-05,-1e-05,-8e-05,0.00026,5e-05,-6e-05,-0.00018,7,11
34634,-2e-05,-1e-05,-1e-05,-8e-05,0.00026,5e-05,-6e-05,-0.00018,7,11
34635,-0.00029,-2e-05,-1e-05,-1e-05,-0.00025,-0.00024,-0.00011,-0.00013,7,11
34636,-0.00029,-2e-05,-1e-05,-1e-05,-0.00025,-0.00024,-0.00011,-0.00013,7,11
34639,-0.00017,-6e-05,-7e-05,-0.00012,0.00021,-7e-05,-4e-05,3e-05,7,11
34640,-0.00017,-6e-05,-7e-05,-0.00012,0.00021,-7e-05,-4e-05,3e-05,7,11
34641,-0.00017,-6e-05,-7e-05,-0.00012,0.00021,-7e-05,-4e-05,3e-05,7,11
34642,-0.00017,-6e-05,-7e-05,-0.00012,0.00021,-7e-05,-4e-05,3e-05,7,11
34643,-0.00017,-6e-05,-7e-05,-0.00012,0.00021,-7e-05,-4e-05,3e-05,7,11
34644,-0.00017,-6e-05,-7e-05,-0.00012,0.00021,-7e-05,-4e-05,3e-05,7,11
34645,-0.00017,-6e-05,-7e-05,-0.00012,0.00021,-7e-05,-4e-05,3e-05,7,11
34646,-0.00017,-6e-05,-7e-05,-0.00012,0.00021,-7e-05,-4e-05,3e-05,7,11
34647,-0.00017,-6e-05,-7e-05,-0.00012,0.00021,-7e-05,-4e-05,3e-05,7,11
34648,-0.00017,-6e-05,-7e-05,-0.00012,0.00021,-7e-05,-4e-05,3e-05,7,11
34649,-8e-05,-1e-05,0,9e-05,0.00019,0.00063,0.00025,0.00021,7,11
34650,0.00046,7e-05,3e-05,-2e-05,-9e-05,0.00019,-0.00018,-0.00053,7,11
34651,0.00046,7e-05,3e-05,-2e-05,-9e-05,0.00019,-0.00018,-0.00053,7,11
34652,0.00046,7e-05,3e-05,-2e-05,-9e-05,0.00019,-0.00018,-0.00053,7,11
34653,0.00046,7e-05,3e-05,-2e-05,-9e-05,0.00019,-0.00018,-0.00053,7,11
34654,0.00046,7e-05,3e-05,-2e-05,-9e-05,0.00019,-0.00018,-0.00053,7,11
34655,0.00046,7e-05,3e-05,-2e-05,-9e-05,0.00019,-0.00018,-0.00053,7,11
34656,-0.00047,-6e-05,-2e-05,2e-05,0.00068,-0.00017,-7e-05,-0.0004,7,11
34657,-0.00047,-6e-05,-2e-05,2e-05,0.00068,-0.00017,-7e-05,-0.0004,7,11
34658,-0.00047,-6e-05,-2e-05,2e-05,0.00068,-0.00017,-7e-05,-0.0004,7,11
34659,-0.00047,-6e-05,-2e-05,2e-05,0.00068,-0.00017,-7e-05,-0.0004,7,11
34660,-0.00047,-6e-05,-2e-05,2e-05,0.00068,-0.00017,-7e-05,-0.0004,7,11
34661,-0.00047,-6e-05,-2e-05,2e-05,0.00068,-0.00017,-7e-05,-0.0004,7,11
34662,-0.00047,-6e-05,-2e-05,2e-05,0.00068,-0.00017,-7e-05,-0.0004,7,11
34663,-0.00047,-6e-05,-2e-05,2e-05,0.00068,-0.00017,-7e-05,-0.0004,7,11
34664,-0.00047,-6e-05,-2e-05,2e-05,0.00068,-0.00017,-7e-05,-0.0004,7,11
34665,-0.00047,-6e-05,-2e-05,2e-05,0.00068,-0.00017,-7e-05,-0.0004,7,11
34666,-0.00047,-6e-05,-2e-05,2e-05,0.00068,-0.00017,-7e-05,-0.0004,7,11
34667,-0.00047,-6e-05,-2e-05,2e-05,0.00068,-0.00017,-7e-05,-0.0004,7,11
34668,-0.00047,-6e-05,-2e-05,2e-05,0.00068,-0.00017,-7e-05,-0.0004,7,11
34669,-0.00047,-6e-05,-2e-05,2e-05,0.00068,-0.00017,-7e-05,-0.0004,7,11
34670,-0.00047,-6e-05,-2e-05,2e-05,0.00068,-0.00017,-7e-05,-0.0004,7,11
34671,-0.00047,-6e-05,-2e-05,2e-05,0.00068,-0.00017,-7e-05,-0.0004,7,11
34672,-0.00047,-6e-05,-2e-05,2e-05,0.00068,-0.00017,-7e-05,-0.0004,7,11
34673,-0.00025,-5e-05,-2e-05,0.00011,0.00068,8e-05,5e-05,-0.00081,7,11
34674,4e-05,0,5e-05,8e-05,0.00085,0.00045,1e-05,-0.00034,7,11
34675,4e-05,0,5e-05,8e-05,0.00085,0.00045,1e-05,-0.00034,7,11
34676,4e-05,0,5e-05,8e-05,0.00085,0.00045,1e-05,-0.00034,7,11
34677,4e-05,0,5e-05,8e-05,0.00085,0.00045,1e-05,-0.00034,7,11
34678,4e-05,0,5e-05,8e-05,0.00085,0.00045,1e-05,-0.00034,7,11
34679,4e-05,0,5e-05,8e-05,0.00085,0.00045,1e-05,-0.00034,7,11
34680,4e-05,0,5e-05,8e-05,0.00085,0.00045,1e-05,-0.00034,7,11
34681,4e-05,0,5e-05,8e-05,0.00085,0.00045,1e-05,-0.00034,7,11
34682,4e-05,0,5e-05,8e-05,0.00085,0.00045,1e-05,-0.00034,7,11
34683,4e-05,0,5e-05,8e-05,0.00085,0.00045,1e-05,-0.00034,7,11
34684,4e-05,0,5e-05,8e-05,0.00085,0.00045,1e-05,-0.00034,7,11
34685,4e-05,0,5e-05,8e-05,0.00085,0.00045,1e-05,-0.00034,7,11
34686,4e-05,0,5e-05,8e-05,0.00085,0.00045,1e-05,-0.00034,7,11
34689,4e-05,0,5e-05,8e-05,0.00085,0.00045,1e-05,-0.00034,7,11
34690,4e-05,0,5e-05,8e-05,0.00085,0.00045,1e-05,-0.00034,7,11
34691,4e-05,0,5e-05,8e-05,0.00085,0.00045,1e-05,-0.00034,7,11
34692,4e-05,0,5e-05,8e-05,0.00085,0.00045,1e-05,-0.00034,7,11
34693,4e-05,0,5e-05,8e-05,0.00085,0.00045,1e-05,-0.00034,7,11
34694,4e-05,0,5e-05,8e-05,0.00085,0.00045,1e-05,-0.00034,7,11
34695,-6e-05,-4e-05,-3e-05,-8e-05,-0.00051,-0.00011,-7e-05,-0.0001,7,11
34696,-6e-05,-4e-05,-3e-05,-8e-05,-0.00051,-0.00011,-7e-05,-0.0001,7,11
34697,-0.0004,-4e-05,-5e-05,-9e-05,-0.00023,0.00042,-2e-05,-0.00013,7,11
34698,-0.0004,-4e-05,-5e-05,-9e-05,-0.00023,0.00042,-2e-05,-0.00013,7,11
34699,-0.0004,-4e-05,-5e-05,-9e-05,-0.00023,0.00042,-2e-05,-0.00013,7,11
34700,-0.0004,-4e-05,-5e-05,-9e-05,-0.00023,0.00042,-2e-05,-0.00013,7,11
34701,-0.0004,-4e-05,-5e-05,-9e-05,-0.00023,0.00042,-2e-05,-0.00013,7,11
34702,-0.0004,-4e-05,-5e-05,-9e-05,-0.00023,0.00042,-2e-05,-0.00013,7,11
34703,-0.0004,-4e-05,-5e-05,-9e-05,-0.00023,0.00042,-2e-05,-0.00013,7,11
34704,-0.0004,-4e-05,-5e-05,-9e-05,-0.00023,0.00042,-2e-05,-0.00013,7,11
34705,-0.0004,-4e-05,-5e-05,-9e-05,-0.00023,0.00042,-2e-05,-0.00013,7,11
34706,-0.0004,-4e-05,-5e-05,-9e-05,-0.00023,0.00042,-2e-05,-0.00013,7,11
34707,-0.0004,-4e-05,-5e-05,-9e-05,-0.00023,0.00042,-2e-05,-0.00013,7,11
34709,-0.0004,-4e-05,-5e-05,-9e-05,-0.00023,0.00042,-2e-05,-0.00013,7,11
34710,-0.0004,-4e-05,-5e-05,-9e-05,-0.00023,0.00042,-2e-05,-0.00013,7,11
34711,-0.0004,-4e-05,-5e-05,-9e-05,-0.00023,0.00042,-2e-05,-0.00013,7,11
34712,-0.0004,-4e-05,-5e-05,-9e-05,-0.00023,0.00042,-2e-05,-0.00013,7,11
34713,-0.0004,-4e-05,-5e-05,-9e-05,-0.00023,0.00042,-2e-05,-0.00013,7,11
34714,-0.0004,-4e-05,-5e-05,-9e-05,-0.00023,0.00042,-2e-05,-0.00013,7,11
34715,-0.0004,-4e-05,-5e-05,-9e-05,-0.00023,0.00042,-2e-05,-0.00013,7,11
34716,-0.0004,-4e-05,-5e-05,-9e-05,-0.00023,0.00042,-2e-05,-0.00013,7,11
34717,-0.0004,-4e-05,-5e-05,-9e-05,-0.00023,0.00042,-2e-05,-0.00013,7,11
34718,-4e-05,-3e-05,-8e-05,-6e-05,-0.00047,-0.00021,9e-05,-0.00026,7,11
34719,0.00042,-2e-05,1e-05,0.0001,-0.00026,-0.00039,0.00012,-9e-05,7,11
34720,0.00042,-2e-05,1e-05,0.0001,-0.00026,-0.00039,0.00012,-9e-05,7,11
34721,0.00042,-2e-05,1e-05,0.0001,-0.00026,-0.00039,0.00012,-9e-05,7,11
34722,0.00042,-2e-05,1e-05,0.0001,-0.00026,-0.00039,0.00012,-9e-05,7,11
34723,0.00042,-2e-05,1e-05,0.0001,-0.00026,-0.00039,0.00012,-9e-05,7,11
34724,0.00042,-2e-05,1e-05,0.0001,-0.00026,-0.00039,0.00012,-9e-05,7,11
34725,0.00042,-2e-05,1e-05,0.0001,-0.00026,-0.00039,0.00012,-9e-05,7,11
34726,0.00042,-2e-05,1e-05,0.0001,-0.00026,-0.00039,0.00012,-9e-05,7,11
34727,0.00042,-2e-05,1e-05,0.0001,-0.00026,-0.00039,0.00012,-9e-05,7,11
34728,0.00042,-2e-05,1e-05,0.0001,-0.00026,-0.00039,0.00012,-9e-05,7,11
34729,0.00042,-2e-05,1e-05,0.0001,-0.00026,-0.00039,0.00012,-9e-05,7,11
34730,0.00042,-2e-05,1e-05,0.0001,-0.00026,-0.00039,0.00012,-9e-05,7,11
34731,0.00042,-2e-05,1e-05,0.0001,-0.00026,-0.00039,0.00012,-9e-05,7,11
34732,0.00042,-2e-05,1e-05,0.0001,-0.00026,-0.00039,0.00012,-9e-05,7,11
34733,-0.00059,-7e-05,0,0.00019,0.00037,0.00064,7e-05,-0.00067,7,11
34734,0.00033,-1e-05,-2e-05,-6e-05,2e-05,1e-05,4e-05,-0.00023,7,11
34735,0.00033,-1e-05,-2e-05,-6e-05,2e-05,1e-05,4e-05,-0.00023,7,11
34736,0.00033,-1e-05,-2e-05,-6e-05,2e-05,1e-05,4e-05,-0.00023,7,11
34739,0.00033,-1e-05,-2e-05,-6e-05,2e-05,1e-05,4e-05,-0.00023,7,11
34740,0.00033,-1e-05,-2e-05,-6e-05,2e-05,1e-05,4e-05,-0.00023,7,11
34741,0.00033,-1e-05,-2e-05,-6e-05,2e-05,1e-05,4e-05,-0.00023,7,11
34742,0.00033,-1e-05,-2e-05,-6e-05,2e-05,1e-05,4e-05,-0.00023,7,11
34743,0.00033,-1e-05,-2e-05,-6e-05,2e-05,1e-05,4e-05,-0.00023,7,11
34744,0.00033,-1e-05,-2e-05,-6e-05,2e-05,1e-05,4e-05,-0.00023,7,11
34745,0.00033,-1e-05,-2e-05,-6e-05,2e-05,1e-05,4e-05,-0.00023,7,11
34746,0.00033,-1e-05,-2e-05,-6e-05,2e-05,1e-05,4e-05,-0.00023,7,11
34747,0.00033,-1e-05,-2e-05,-6e-05,2e-05,1e-05,4e-05,-0.00023,7,11
34748,0.00033,-1e-05,-2e-05,-6e-05,2e-05,1e-05,4e-05,-0.00023,7,11
34749,0.00033,-1e-05,-2e-05,-6e-05,2e-05,1e-05,4e-05,-0.00023,7,11
34750,0.00033,-1e-05,-2e-05,-6e-05,2e-05,1e-05,4e-05,-0.00023,7,11
34751,0.00033,-1e-05,-2e-05,-6e-05,2e-05,1e-05,4e-05,-0.00023,7,11
34752,0.00033,-1e-05,-2e-05,-6e-05,2e-05,1e-05,4e-05,-0.00023,7,11
34753,0.00033,-1e-05,-2e-05,-6e-05,2e-05,1e-05,4e-05,-0.00023,7,11
34754,0.00033,-1e-05,-2e-05,-6e-05,2e-05,1e-05,4e-05,-0.00023,7,11
34755,0.00033,-1e-05,-2e-05,-6e-05,2e-05,1e-05,4e-05,-0.00023,7,11
34756,0.00033,-1e-05,-2e-05,-6e-05,2e-05,1e-05,4e-05,-0.00023,7,11
34757,0.00033,-1e-05,-2e-05,-6e-05,2e-05,1e-05,4e-05,-0.00023,7,11
34758,0.00033,-1e-05,-2e-05,-6e-05,2e-05,1e-05,4e-05,-0.00023,7,11
34759,0.00033,-1e-05,-2e-05,-6e-05,2e-05,1e-05,4e-05,-0.00023,7,11
34760,0.00033,-1e-05,-2e-05,-6e-05,2e-05,1e-05,4e-05,-0.00023,7,11
34761,0.00033,-1e-05,-2e-05,-6e-05,2e-05,1e-05,4e-05,-0.00023,7,11
34762,0.00033,-1e-05,-2e-05,-6e-05,2e-05,1e-05,4e-05,-0.00023,7,11
34763,-6e-05,-2e-05,0,-4e-05,-8e-05,-0.00012,0.0001,0.00076,7,11
34764,-9e-05,7e-05,7e-05,3e-05,-0.00026,0.00109,1e-05,0.00019,7,11
34765,-9e-05,7e-05,7e-05,3e-05,-0.00026,0.00109,1e-05,0.00019,7,11
34766,-9e-05,7e-05,7e-05,3e-05,-0.00026,0.00109,1e-05,0.00019,7,11
34767,-9e-05,7e-05,7e-05,3e-05,-0.00026,0.00109,1e-05,0.00019,7,11
34768,-9e-05,7e-05,7e-05,3e-05,-0.00026,0.00109,1e-05,0.00019,7,11
34769,9e-05,5e-05,1e-05,1e-05,3e-05,0.00016,4e-05,0.00041,7,11
34770,9e-05,5e-05,1e-05,1e-05,3e-05,0.00016,4e-05,0.00041,7,11
34771,9e-05,5e-05,1e-05,1e-05,3e-05,0.00016,4e-05,0.00041,7,11
34772,9e-05,5e-05,1e-05,1e-05,3e-05,0.00016,4e-05,0.00041,7,11
34773,9e-05,5e-05,1e-05,1e-05,3e-05,0.00016,4e-05,0.00041,7,11
34774,9e-05,5e-05,1e-05,1e-05,3e-05,0.00016,4e-05,0.00041,7,11
34775,9e-05,5e-05,1e-05,1e-05,3e-05,0.00016,4e-05,0.00041,7,11
34776,-4e-05,0,-1e-05,-6e-05,-0.00052,-0.00022,-5e-05,0.00023,7,11
34777,-4e-05,0,-1e-05,-6e-05,-0.00052,-0.00022,-5e-05,0.00023,7,11
34778,-4e-05,0,-1e-05,-6e-05,-0.00052,-0.00022,-5e-05,0.00023,7,11
34779,-4e-05,0,-1e-05,-6e-05,-0.00052,-0.00022,-5e-05,0.00023,7,11
34780,-4e-05,0,-1e-05,-6e-05,-0.00052,-0.00022,-5e-05,0.00023,7,11
34781,-4e-05,0,-1e-05,-6e-05,-0.00052,-0.00022,-5e-05,0.00023,7,11
34782,-4e-05,0,-1e-05,-6e-05,-0.00052,-0.00022,-5e-05,0.00023,7,11
34783,-4e-05,0,-1e-05,-6e-05,-0.00052,-0.00022,-5e-05,0.00023,7,11
34784,-4e-05,0,-1e-05,-6e-05,-0.00052,-0.00022,-5e-05,0.00023,7,11
34785,-4e-05,0,-1e-05,-6e-05,-0.00052,-0.00022,-5e-05,0.00023,7,11
34786,-4e-05,0,-1e-05,-6e-05,-0.00052,-0.00022,-5e-05,0.00023,7,11
34788,-4e-05,0,-1e-05,-6e-05,-0.00052,-0.00022,-5e-05,0.00023,7,11
34789,-4e-05,0,-1e-05,-6e-05,-0.00052,-0.00022,-5e-05,0.00023,7,11
34790,-4e-05,0,-1e-05,-6e-05,-0.00052,-0.00022,-5e-05,0.00023,7,11
34791,-4e-05,0,-1e-05,-6e-05,-0.00052,-0.00022,-5e-05,0.00023,7,11
34792,-4e-05,0,-1e-05,-6e-05,-0.00052,-0.00022,-5e-05,0.00023,7,11
34793,0.00015,4e-05,2e-05,-1e-05,-9e-05,7e-05,5e-05,-7e-05,7,11
34794,6e-05,1e-05,-1e-05,1e-05,0.00026,-4e-05,1e-05,-0.00058,7,11
34795,6e-05,1e-05,-1e-05,1e-05,0.00026,-4e-05,1e-05,-0.00058,7,11
34796,6e-05,1e-05,-1e-05,1e-05,0.00026,-4e-05,1e-05,-0.00058,7,11
34797,6e-05,1e-05,-1e-05,1e-05,0.00026,-4e-05,1e-05,-0.00058,7,11
34798,6e-05,1e-05,-1e-05,1e-05,0.00026,-4e-05,1e-05,-0.00058,7,11
34799,6e-05,1e-05,-1e-05,1e-05,0.00026,-4e-05,1e-05,-0.00058,7,11
34800,6e-05,1e-05,-1e-05,1e-05,0.00026,-4e-05,1e-05,-0.00058,7,11
34801,6e-05,1e-05,-1e-05,1e-05,0.00026,-4e-05,1e-05,-0.00058,7,11
34802,6e-05,1e-05,-1e-05,1e-05,0.00026,-4e-05,1e-05,-0.00058,7,11
34803,6e-05,1e-05,-1e-05,1e-05,0.00026,-4e-05,1e-05,-0.00058,7,11
34804,6e-05,1e-05,-1e-05,1e-05,0.00026,-4e-05,1e-05,-0.00058,7,11
34805,6e-05,1e-05,-1e-05,1e-05,0.00026,-4e-05,1e-05,-0.00058,7,11
34806,6e-05,1e-05,-1e-05,1e-05,0.00026,-4e-05,1e-05,-0.00058,7,11
34807,6e-05,1e-05,-1e-05,1e-05,0.00026,-4e-05,1e-05,-0.00058,7,11
34808,6e-05,1e-05,-1e-05,1e-05,0.00026,-4e-05,1e-05,-0.00058,7,11
34809,6e-05,1e-05,-1e-05,1e-05,0.00026,-4e-05,1e-05,-0.00058,7,11
34810,6e-05,1e-05,-1e-05,1e-05,0.00026,-4e-05,1e-05,-0.00058,7,11
34811,6e-05,1e-05,-1e-05,1e-05,0.00026,-4e-05,1e-05,-0.00058,7,11
34812,6e-05,1e-05,-1e-05,1e-05,0.00026,-4e-05,1e-05,-0.00058,7,11
34813,6e-05,1e-05,-1e-05,1e-05,0.00026,-4e-05,1e-05,-0.00058,7,11
34814,6e-05,1e-05,-1e-05,1e-05,0.00026,-4e-05,1e-05,-0.00058,7,11
34815,0.0001,-2e-05,-4e-05,-5e-05,-0.00021,2e-05,-9e-05,-0.00076,7,11
34816,0.0001,-2e-05,-4e-05,-5e-05,-0.00021,2e-05,-9e-05,-0.00076,7,11
34817,4e-05,-1e-05,-1e-05,-7e-05,-0.00012,-0.00042,-8e-05,0.0001,7,11
34818,4e-05,-1e-05,-1e-05,-7e-05,-0.00012,-0.00042,-8e-05,0.0001,7,11
34819,4e-05,-1e-05,-1e-05,-7e-05,-0.00012,-0.00042,-8e-05,0.0001,7,11
34820,4e-05,-1e-05,-1e-05,-7e-05,-0.00012,-0.00042,-8e-05,0.0001,7,11
34821,4e-05,-1e-05,-1e-05,-7e-05,-0.00012,-0.00042,-8e-05,0.0001,7,11
34822,4e-05,-1e-05,-1e-05,-7e-05,-0.00012,-0.00042,-8e-05,0.0001,7,11
34823,4e-05,-1e-05,-1e-05,-7e-05,-0.00012,-0.00042,-8e-05,0.0001,7,11
34824,4e-05,-1e-05,-1e-05,-7e-05,-0.00012,-0.00042,-8e-05,0.0001,7,11
34825,4e-05,-1e-05,-1e-05,-7e-05,-0.00012,-0.00042,-8e-05,0.0001,7,11
34826,4e-05,-1e-05,-1e-05,-7e-05,-0.00012,-0.00042,-8e-05,0.0001,7,11
34827,4e-05,-1e-05,-1e-05,-7e-05,-0.00012,-0.00042,-8e-05,0.0001,7,11
34828,4e-05,-1e-05,-1e-05,-7e-05,-0.00012,-0.00042,-8e-05,0.0001,7,11
34829,0.00027,1e-05,-2e-05,-1e-05,-0.00046,-0.00013,-0.00012,0.0003,7,11
34830,0.00027,1e-05,-2e-05,-1e-05,-0.00046,-0.00013,-0.00012,0.0003,7,11
34831,0.00027,1e-05,-2e-05,-1e-05,-0.00046,-0.00013,-0.00012,0.0003,7,11
34832,0.00027,1e-05,-2e-05,-1e-05,-0.00046,-0.00013,-0.00012,0.0003,7,11
34833,0.00027,1e-05,-2e-05,-1e-05,-0.00046,-0.00013,-0.00012,0.0003,7,11
34834,0.00027,1e-05,-2e-05,-1e-05,-0.00046,-0.00013,-0.00012,0.0003,7,11
34835,0.00027,1e-05,-2e-05,-1e-05,-0.00046,-0.00013,-0.00012,0.0003,7,11
34836,0.00027,1e-05,-2e-05,-1e-05,-0.00046,-0.00013,-0.00012,0.0003,7,11
34838,-0.00037,-1e-05,-3e-05,-1e-05,-0.00017,-8e-05,-5e-05,-0.00041,7,11
34839,-0.00037,-1e-05,-3e-05,-1e-05,-0.00017,-8e-05,-5e-05,-0.00041,7,11
34840,-0.00037,-1e-05,-3e-05,-1e-05,-0.00017,-8e-05,-5e-05,-0.00041,7,11
34841,-0.00037,-1e-05,-3e-05,-1e-05,-0.00017,-8e-05,-5e-05,-0.00041,7,11
34842,-0.00037,-1e-05,-3e-05,-1e-05,-0.00017,-8e-05,-5e-05,-0.00041,7,11
34843,-0.00037,-1e-05,-3e-05,-1e-05,-0.00017,-8e-05,-5e-05,-0.00041,7,11
34844,-0.00037,-1e-05,-3e-05,-1e-05,-0.00017,-8e-05,-5e-05,-0.00041,7,11
34845,-0.00037,-1e-05,-3e-05,-1e-05,-0.00017,-8e-05,-5e-05,-0.00041,7,11
34846,-0.00037,-1e-05,-3e-05,-1e-05,-0.00017,-8e-05,-5e-05,-0.00041,7,11
34848,-0.00037,-1e-05,-3e-05,-1e-05,-0.00017,-8e-05,-5e-05,-0.00041,7,11
34849,-0.00037,-1e-05,-3e-05,-1e-05,-0.00017,-8e-05,-5e-05,-0.00041,7,11
34850,-0.00037,-1e-05,-3e-05,-1e-05,-0.00017,-8e-05,-5e-05,-0.00041,7,11
34851,-0.00037,-1e-05,-3e-05,-1e-05,-0.00017,-8e-05,-5e-05,-0.00041,7,11
34852,-0.00037,-1e-05,-3e-05,-1e-05,-0.00017,-8e-05,-5e-05,-0.00041,7,11
34853,-0.00015,-7e-05,-5e-05,-0.00018,-0.00123,-0.00014,0,0.00011,7,11
34854,-0.00045,-4e-05,0,4e-05,-9e-05,-0.00028,-4e-05,0.00048,7,11
34855,-0.00045,-4e-05,0,4e-05,-9e-05,-0.00028,-4e-05,0.00048,7,11
34856,-0.00045,-4e-05,0,4e-05,-9e-05,-0.00028,-4e-05,0.00048,7,11
34857,-0.00045,-4e-05,0,4e-05,-9e-05,-0.00028,-4e-05,0.00048,7,11
34858,-0.00045,-4e-05,0,4e-05,-9e-05,-0.00028,-4e-05,0.00048,7,11
34859,-0.00045,-4e-05,0,4e-05,-9e-05,-0.00028,-4e-05,0.00048,7,11
34860,-0.00045,-4e-05,0,4e-05,-9e-05,-0.00028,-4e-05,0.00048,7,11
34861,-0.00045,-4e-05,0,4e-05,-9e-05,-0.00028,-4e-05,0.00048,7,11
34862,-0.00045,-4e-05,0,4e-05,-9e-05,-0.00028,-4e-05,0.00048,7,11
34863,-0.00045,-4e-05,0,4e-05,-9e-05,-0.00028,-4e-05,0.00048,7,11
34864,-0.00045,-4e-05,0,4e-05,-9e-05,-0.00028,-4e-05,0.00048,7,11
34865,-0.00045,-4e-05,0,4e-05,-9e-05,-0.00028,-4e-05,0.00048,7,11
34866,-0.00045,-4e-05,0,4e-05,-9e-05,-0.00028,-4e-05,0.00048,7,11
34867,-0.00045,-4e-05,0,4e-05,-9e-05,-0.00028,-4e-05,0.00048,7,11
34868,-0.00045,-4e-05,0,4e-05,-9e-05,-0.00028,-4e-05,0.00048,7,11
34869,-0.00045,-4e-05,0,4e-05,-9e-05,-0.00028,-4e-05,0.00048,7,11
34870,-0.00045,-4e-05,0,4e-05,-9e-05,-0.00028,-4e-05,0.00048,7,11
34871,-0.00045,-4e-05,0,4e-05,-9e-05,-0.00028,-4e-05,0.00048,7,11
34872,-0.00045,-4e-05,0,4e-05,-9e-05,-0.00028,-4e-05,0.00048,7,11
34873,-0.00045,-4e-05,0,4e-05,-9e-05,-0.00028,-4e-05,0.00048,7,11
34874,-0.00045,-4e-05,0,4e-05,-9e-05,-0.00028,-4e-05,0.00048,7,11
34875,0.00012,5e-05,3e-05,-3e-05,0.00088,-0.00023,-8e-05,-0.00051,7,11
34876,0.00012,5e-05,3e-05,-3e-05,0.00088,-0.00023,-8e-05,-0.00051,7,11
34877,-0.00018,-3e-05,-2e-05,2e-05,0.00012,0.00067,0.0002,8e-05,7,11
34878,-0.00018,-3e-05,-2e-05,2e-05,0.00012,0.00067,0.0002,8e-05,7,11
34879,-0.00018,-3e-05,-2e-05,2e-05,0.00012,0.00067,0.0002,8e-05,7,11
34880,-0.00018,-3e-05,-2e-05,2e-05,0.00012,0.00067,0.0002,8e-05,7,11
34881,-0.00018,-3e-05,-2e-05,2e-05,0.00012,0.00067,0.0002,8e-05,7,11
34882,-0.00018,-3e-05,-2e-05,2e-05,0.00012,0.00067,0.0002,8e-05,7,11
34883,-0.00018,-3e-05,-2e-05,2e-05,0.00012,0.00067,0.0002,8e-05,7,11
34884,-0.00018,-3e-05,-2e-05,2e-05,0.00012,0.00067,0.0002,8e-05,7,11
34885,-0.00018,-3e-05,-2e-05,2e-05,0.00012,0.00067,0.0002,8e-05,7,11
34886,-0.00018,-3e-05,-2e-05,2e-05,0.00012,0.00067,0.0002,8e-05,7,11
34888,-0.00018,-3e-05,-2e-05,2e-05,0.00012,0.00067,0.0002,8e-05,7,11
34889,-0.00018,-3e-05,-2e-05,2e-05,0.00012,0.00067,0.0002,8e-05,7,11
34890,-0.00018,-3e-05,-2e-05,2e-05,0.00012,0.00067,0.0002,8e-05,7,11
34891,-0.00018,-3e-05,-2e-05,2e-05,0.00012,0.00067,0.0002,8e-05,7,11
34892,-0.00018,-3e-05,-2e-05,2e-05,0.00012,0.00067,0.0002,8e-05,7,11
34893,-0.00018,-3e-05,-2e-05,2e-05,0.00012,0.00067,0.0002,8e-05,7,11
34894,-0.00018,-3e-05,-2e-05,2e-05,0.00012,0.00067,0.0002,8e-05,7,11
34895,-0.00018,-3e-05,-2e-05,2e-05,0.00012,0.00067,0.0002,8e-05,7,11
34896,-0.00018,-3e-05,-2e-05,2e-05,0.00012,0.00067,0.0002,8e-05,7,11
34897,-0.00018,-3e-05,-2e-05,2e-05,0.00012,0.00067,0.0002,8e-05,7,11
34898,2e-05,2e-05,0,-0.00013,-0.00045,0.00015,-0.00011,-0.00034,7,11
34899,4e-05,-3e-05,-4e-05,7e-05,4e-05,-9e-05,0,-2e-05,7,11
34900,-0.00023,-6e-05,-1e-05,-5e-05,0.00027,-0.00095,-0.00011,-0.00017,7,11
34901,-0.00023,-6e-05,-1e-05,-5e-05,0.00027,-0.00095,-0.00011,-0.00017,7,11
34902,-0.00023,-6e-05,-1e-05,-5e-05,0.00027,-0.00095,-0.00011,-0.00017,7,11
34903,-0.00023,-6e-05,-1e-05,-5e-05,0.00027,-0.00095,-0.00011,-0.00017,7,11
34904,-0.00023,-6e-05,-1e-05,-5e-05,0.00027,-0.00095,-0.00011,-0.00017,7,11
34905,-0.00023,-6e-05,-1e-05,-5e-05,0.00027,-0.00095,-0.00011,-0.00017,7,11
34906,-0.00023,-6e-05,-1e-05,-5e-05,0.00027,-0.00095,-0.00011,-0.00017,7,11
34907,-0.00023,-6e-05,-1e-05,-5e-05,0.00027,-0.00095,-0.00011,-0.00017,7,11
34908,-0.00023,-6e-05,-1e-05,-5e-05,0.00027,-0.00095,-0.00011,-0.00017,7,11
34909,-0.00023,-6e-05,-1e-05,-5e-05,0.00027,-0.00095,-0.00011,-0.00017,7,11
34910,-0.00023,-6e-05,-1e-05,-5e-05,0.00027,-0.00095,-0.00011,-0.00017,7,11
34911,-0.00023,-6e-05,-1e-05,-5e-05,0.00027,-0.00095,-0.00011,-0.00017,7,11
34912,-0.00023,-6e-05,-1e-05,-5e-05,0.00027,-0.00095,-0.00011,-0.00017,7,11
34913,-0.0002,-6e-05,-6e-05,-6e-05,-0.0001,-0.00034,-8e-05,-0.00034,7,11
34914,9e-05,-1e-05,-3e-05,1e-05,0.00038,1e-05,0.00016,9e-05,7,11
34915,9e-05,-1e-05,-3e-05,1e-05,0.00038,1e-05,0.00016,9e-05,7,11
34916,9e-05,-1e-05,-3e-05,1e-05,0.00038,1e-05,0.00016,9e-05,7,11
34917,9e-05,-1e-05,-3e-05,1e-05,0.00038,1e-05,0.00016,9e-05,7,11
34918,9e-05,-1e-05,-3e-05,1e-05,0.00038,1e-05,0.00016,9e-05,7,11
34919,9e-05,-1e-05,-3e-05,1e-05,0.00038,1e-05,0.00016,9e-05,7,11
34920,9e-05,-1e-05,-3e-05,1e-05,0.00038,1e-05,0.00016,9e-05,7,11
34921,9e-05,-1e-05,-3e-05,1e-05,0.00038,1e-05,0.00016,9e-05,7,11
34922,9e-05,-1e-05,-3e-05,1e-05,0.00038,1e-05,0.00016,9e-05,7,11
34923,9e-05,-1e-05,-3e-05,1e-05,0.00038,1e-05,0.00016,9e-05,7,11
34924,9e-05,-1e-05,-3e-05,1e-05,0.00038,1e-05,0.00016,9e-05,7,11
34925,9e-05,-1e-05,-3e-05,1e-05,0.00038,1e-05,0.00016,9e-05,7,11
34926,9e-05,-1e-05,-3e-05,1e-05,0.00038,1e-05,0.00016,9e-05,7,11
34927,9e-05,-1e-05,-3e-05,1e-05,0.00038,1e-05,0.00016,9e-05,7,11
34928,9e-05,-1e-05,-3e-05,1e-05,0.00038,1e-05,0.00016,9e-05,7,11
34929,9e-05,-1e-05,-3e-05,1e-05,0.00038,1e-05,0.00016,9e-05,7,11
34930,9e-05,-1e-05,-3e-05,1e-05,0.00038,1e-05,0.00016,9e-05,7,11
34931,9e-05,-1e-05,-3e-05,1e-05,0.00038,1e-05,0.00016,9e-05,7,11
34932,9e-05,-1e-05,-3e-05,1e-05,0.00038,1e-05,0.00016,9e-05,7,11
34933,9e-05,-1e-05,-3e-05,1e-05,0.00038,1e-05,0.00016,9e-05,7,11
34934,9e-05,-1e-05,-3e-05,1e-05,0.00038,1e-05,0.00016,9e-05,7,11
34935,-0.00039,-5e-05,-2e-05,3e-05,0.00037,-0.00038,7e-05,4e-05,7,11
34936,-0.00039,-5e-05,-2e-05,3e-05,0.00037,-0.00038,7e-05,4e-05,7,11
34938,0.00034,2e-05,0,1e-05,0.00047,0.00027,-0.0001,-0.0001,7,11
34939,0.00034,2e-05,0,1e-05,0.00047,0.00027,-0.0001,-0.0001,7,11
34940,0.00034,2e-05,0,1e-05,0.00047,0.00027,-0.0001,-0.0001,7,11
34941,0.00034,2e-05,0,1e-05,0.00047,0.00027,-0.0001,-0.0001,7,11
34942,0.00034,2e-05,0,1e-05,0.00047,0.00027,-0.0001,-0.0001,7,11
34943,0.00034,2e-05,0,1e-05,0.00047,0.00027,-0.0001,-0.0001,7,11
34944,0.00034,2e-05,0,1e-05,0.00047,0.00027,-0.0001,-0.0001,7,11
34945,0.00034,2e-05,0,1e-05,0.00047,0.00027,-0.0001,-0.0001,7,11
34946,0.00034,2e-05,0,1e-05,0.00047,0.00027,-0.0001,-0.0001,7,11
34947,0.00034,2e-05,0,1e-05,0.00047,0.00027,-0.0001,-0.0001,7,11
34948,0.00034,2e-05,0,1e-05,0.00047,0.00027,-0.0001,-0.0001,7,11
34949,-0.00039,1e-05,-3e-05,-3e-05,-0.00033,-7e-05,6e-05,0.00013,7,11
34950,-0.00039,1e-05,-3e-05,-3e-05,-0.00033,-7e-05,6e-05,0.00013,7,11
34951,-0.00039,1e-05,-3e-05,-3e-05,-0.00033,-7e-05,6e-05,0.00013,7,11
34952,-0.00039,1e-05,-3e-05,-3e-05,-0.00033,-7e-05,6e-05,0.00013,7,11
34953,-0.00039,1e-05,-3e-05,-3e-05,-0.00033,-7e-05,6e-05,0.00013,7,11
34954,-0.00039,1e-05,-3e-05,-3e-05,-0.00033,-7e-05,6e-05,0.00013,7,11
34955,-0.00039,1e-05,-3e-05,-3e-05,-0.00033,-7e-05,6e-05,0.00013,7,11
34956,-0.00039,1e-05,-3e-05,-3e-05,-0.00033,-7e-05,6e-05,0.00013,7,11
34957,-0.00039,1e-05,-3e-05,-3e-05,-0.00033,-7e-05,6e-05,0.00013,7,11
34958,8e-05,-2e-05,-3e-05,5e-05,0.00047,0.00045,9e-05,8e-05,7,11
34959,8e-05,-2e-05,-3e-05,5e-05,0.00047,0.00045,9e-05,8e-05,7,11
34960,8e-05,-2e-05,-3e-05,5e-05,0.00047,0.00045,9e-05,8e-05,7,11
34961,8e-05,-2e-05,-3e-05,5e-05,0.00047,0.00045,9e-05,8e-05,7,11
34962,8e-05,-2e-05,-3e-05,5e-05,0.00047,0.00045,9e-05,8e-05,7,11
34963,8e-05,-2e-05,-3e-05,5e-05,0.00047,0.00045,9e-05,8e-05,7,11
34964,8e-05,-2e-05,-3e-05,5e-05,0.00047,0.00045,9e-05,8e-05,7,11
34965,8e-05,-2e-05,-3e-05,5e-05,0.00047,0.00045,9e-05,8e-05,7,11
34966,8e-05,-2e-05,-3e-05,5e-05,0.00047,0.00045,9e-05,8e-05,7,11
34967,8e-05,-2e-05,-3e-05,5e-05,0.00047,0.00045,9e-05,8e-05,7,11
34968,8e-05,-2e-05,-3e-05,5e-05,0.00047,0.00045,9e-05,8e-05,7,11
34969,8e-05,-2e-05,-3e-05,5e-05,0.00047,0.00045,9e-05,8e-05,7,11
34970,8e-05,-2e-05,-3e-05,5e-05,0.00047,0.00045,9e-05,8e-05,7,11
34971,8e-05,-2e-05,-3e-05,5e-05,0.00047,0.00045,9e-05,8e-05,7,11
34972,8e-05,-2e-05,-3e-05,5e-05,0.00047,0.00045,9e-05,8e-05,7,11
34973,-2e-05,-2e-05,-4e-05,-7e-05,-0.00035,-0.00026,-7e-05,-0.0001,7,11
34974,0.00031,-2e-05,-1e-05,-3e-05,-0.00047,-0.00036,-6e-05,-0.00053,7,11
34975,0.00031,-2e-05,-1e-05,-3e-05,-0.00047,-0.00036,-6e-05,-0.00053,7,11
34976,0.00031,-2e-05,-1e-05,-3e-05,-0.00047,-0.00036,-6e-05,-0.00053,7,11
34977,0.00031,-2e-05,-1e-05,-3e-05,-0.00047,-0.00036,-6e-05,-0.00053,7,11
34978,0.00031,-2e-05,-1e-05,-3e-05,-0.00047,-0.00036,-6e-05,-0.00053,7,11
34979,0.00031,-2e-05,-1e-05,-3e-05,-0.00047,-0.00036,-6e-05,-0.00053,7,11
34980,0.00031,-2e-05,-1e-05,-3e-05,-0.00047,-0.00036,-6e-05,-0.00053,7,11
34981,0.00031,-2e-05,-1e-05,-3e-05,-0.00047,-0.00036,-6e-05,-0.00053,7,11
34982,0.00031,-2e-05,-1e-05,-3e-05,-0.00047,-0.00036,-6e-05,-0.00053,7,11
34983,0.00031,-2e-05,-1e-05,-3e-05,-0.00047,-0.00036,-6e-05,-0.00053,7,11
34984,0.00031,-2e-05,-1e-05,-3e-05,-0.00047,-0.00036,-6e-05,-0.00053,7,11
34985,0.00031,-2e-05,-1e-05,-3e-05,-0.00047,-0.00036,-6e-05,-0.00053,7,11
34986,0.00031,-2e-05,-1e-05,-3e-05,-0.00047,-0.00036,-6e-05,-0.00053,7,11
34989,0.00031,-2e-05,-1e-05,-3e-05,-0.00047,-0.00036,-6e-05,-0.00053,7,11
34990,0.00031,-2e-05,-1e-05,-3e-05,-0.00047,-0.00036,-6e-05,-0.00053,7,11
34991,0.00031,-2e-05,-1e-05,-3e-05,-0.00047,-0.00036,-6e-05,-0.00053,7,11
34992,0.00031,-2e-05,-1e-05,-3e-05,-0.00047,-0.00036,-6e-05,-0.00053,7,11
34993,0.00031,-2e-05,-1e-05,-3e-05,-0.00047,-0.00036,-6e-05,-0.00053,7,11
34994,0.00031,-2e-05,-1e-05,-3e-05,-0.00047,-0.00036,-6e-05,-0.00053,7,11
34995,0.00031,-2e-05,-1e-05,-3e-05,-0.00047,-0.00036,-6e-05,-0.00053,7,11
34996,1e-05,2e-05,3e-05,-6e-05,-0.0003,0.00011,0,-0.00024,7,11
34997,-0.00082,-3e-05,-2e-05,6e-05,0.00016,9e-05,-0.00016,0.00031,7,11
34998,-0.00082,-3e-05,-2e-05,6e-05,0.00016,9e-05,-0.00016,0.00031,7,11
34999,-0.00082,-3e-05,-2e-05,6e-05,0.00016,9e-05,-0.00016,0.00031,7,11
35000,-0.00082,-3e-05,-2e-05,6e-05,0.00016,9e-05,-0.00016,0.00031,7,11
35001,-0.00082,-3e-05,-2e-05,6e-05,0.00016,9e-05,-0.00016,0.00031,7,11
35002,-0.00082,-3e-05,-2e-05,6e-05,0.00016,9e-05,-0.00016,0.00031,7,11
35003,-0.00082,-3e-05,-2e-05,6e-05,0.00016,9e-05,-0.00016,0.00031,7,11
35004,-0.00082,-3e-05,-2e-05,6e-05,0.00016,9e-05,-0.00016,0.00031,7,11
35005,-0.00082,-3e-05,-2e-05,6e-05,0.00016,9e-05,-0.00016,0.00031,7,11
35006,-0.00082,-3e-05,-2e-05,6e-05,0.00016,9e-05,-0.00016,0.00031,7,11
35007,-0.00082,-3e-05,-2e-05,6e-05,0.00016,9e-05,-0.00016,0.00031,7,11
35008,-0.00082,-3e-05,-2e-05,6e-05,0.00016,9e-05,-0.00016,0.00031,7,11
35009,0.0003,-1e-05,3e-05,4e-05,0.00035,-2e-05,-0.00011,0.00022,7,11
35010,0.0003,-1e-05,3e-05,4e-05,0.00035,-2e-05,-0.00011,0.00022,7,11
35011,0.0003,-1e-05,3e-05,4e-05,0.00035,-2e-05,-0.00011,0.00022,7,11
35012,0.0003,-1e-05,3e-05,4e-05,0.00035,-2e-05,-0.00011,0.00022,7,11
35013,0.0003,-1e-05,3e-05,4e-05,0.00035,-2e-05,-0.00011,0.00022,7,11
35014,0.0003,-1e-05,3e-05,4e-05,0.00035,-2e-05,-0.00011,0.00022,7,11
35015,0.0003,-1e-05,3e-05,4e-05,0.00035,-2e-05,-0.00011,0.00022,7,11
35016,0.0003,-1e-05,3e-05,4e-05,0.00035,-2e-05,-0.00011,0.00022,7,11
35017,0.0003,-1e-05,3e-05,4e-05,0.00035,-2e-05,-0.00011,0.00022,7,11
35018,0.00022,1e-05,-2e-05,-7e-05,-0.00045,-0.00049,-0.00014,0.00015,7,11
35019,0.00022,1e-05,-2e-05,-7e-05,-0.00045,-0.00049,-0.00014,0.00015,7,11
35020,0.00022,1e-05,-2e-05,-7e-05,-0.00045,-0.00049,-0.00014,0.00015,7,11
35021,0.00022,1e-05,-2e-05,-7e-05,-0.00045,-0.00049,-0.00014,0.00015,7,11
35022,0.00022,1e-05,-2e-05,-7e-05,-0.00045,-0.00049,-0.00014,0.00015,7,11
35023,0.00022,1e-05,-2e-05,-7e-05,-0.00045,-0.00049,-0.00014,0.00015,7,11
35024,0.00022,1e-05,-2e-05,-7e-05,-0.00045,-0.00049,-0.00014,0.00015,7,11
35025,0.00022,1e-05,-2e-05,-7e-05,-0.00045,-0.00049,-0.00014,0.00015,7,11
35026,0.00022,1e-05,-2e-05,-7e-05,-0.00045,-0.00049,-0.00014,0.00015,7,11
35027,0.00022,1e-05,-2e-05,-7e-05,-0.00045,-0.00049,-0.00014,0.00015,7,11
35028,0.00022,1e-05,-2e-05,-7e-05,-0.00045,-0.00049,-0.00014,0.00015,7,11
35029,0.00022,1e-05,-2e-05,-7e-05,-0.00045,-0.00049,-0.00014,0.00015,7,11
35030,0.00022,1e-05,-2e-05,-7e-05,-0.00045,-0.00049,-0.00014,0.00015,7,11
35031,0.00022,1e-05,-2e-05,-7e-05,-0.00045,-0.00049,-0.00014,0.00015,7,11
35033,0.00018,0,-4e-05,-0.00013,0.00013,-0.00041,-4e-05,-0.00049,7,11
35034,-0.00046,-2e-05,-1e-05,0,0.00021,2e-05,-7e-05,0.00038,7,11
35035,-0.00046,-2e-05,-1e-05,0,0.00021,2e-05,-7e-05,0.00038,7,11
35036,-0.00046,-2e-05,-1e-05,0,0.00021,2e-05,-7e-05,0.00038,7,11
35038,-0.00046,-2e-05,-1e-05,0,0.00021,2e-05,-7e-05,0.00038,7,11
35039,-0.00046,-2e-05,-1e-05,0,0.00021,2e-05,-7e-05,0.00038,7,11
35040,-0.00046,-2e-05,-1e-05,0,0.00021,2e-05,-7e-05,0.00038,7,11
35041,-0.00046,-2e-05,-1e-05,0,0.00021,2e-05,-7e-05,0.00038,7,11
35042,-0.00046,-2e-05,-1e-05,0,0.00021,2e-05,-7e-05,0.00038,7,11
35043,-0.00046,-2e-05,-1e-05,0,0.00021,2e-05,-7e-05,0.00038,7,11
35044,-0.00046,-2e-05,-1e-05,0,0.00021,2e-05,-7e-05,0.00038,7,11
35045,-0.00046,-2e-05,-1e-05,0,0.00021,2e-05,-7e-05,0.00038,7,11
35046,-0.00046,-2e-05,-1e-05,0,0.00021,2e-05,-7e-05,0.00038,7,11
35047,-0.00046,-2e-05,-1e-05,0,0.00021,2e-05,-7e-05,0.00038,7,11
35048,-0.00046,-2e-05,-1e-05,0,0.00021,2e-05,-7e-05,0.00038,7,11
35049,-0.00046,-2e-05,-1e-05,0,0.00021,2e-05,-7e-05,0.00038,7,11
35050,-0.00046,-2e-05,-1e-05,0,0.00021,2e-05,-7e-05,0.00038,7,11
35051,-0.00046,-2e-05,-1e-05,0,0.00021,2e-05,-7e-05,0.00038,7,11
35052,-0.00046,-2e-05,-1e-05,0,0.00021,2e-05,-7e-05,0.00038,7,11
35053,-0.00046,-2e-05,-1e-05,0,0.00021,2e-05,-7e-05,0.00038,7,11
35054,-0.00046,-2e-05,-1e-05,0,0.00021,2e-05,-7e-05,0.00038,7,11
35055,0.00032,0,5e-05,0.0001,0.00044,0.00077,3e-05,0.0002,7,11
35056,0.00032,0,5e-05,0.0001,0.00044,0.00077,3e-05,0.0002,7,11
35057,0.00032,0,5e-05,0.0001,0.00044,0.00077,3e-05,0.0002,7,11
35058,0.00032,0,5e-05,0.0001,0.00044,0.00077,3e-05,0.0002,7,11
35059,0.00032,0,5e-05,0.0001,0.00044,0.00077,3e-05,0.0002,7,11
35060,0.00032,0,5e-05,0.0001,0.00044,0.00077,3e-05,0.0002,7,11
35061,0.0004,2e-05,2e-05,1e-05,0.0003,0.00027,1e-05,-0.00022,7,11
35062,0.0004,2e-05,2e-05,1e-05,0.0003,0.00027,1e-05,-0.00022,7,11
35063,0.0004,2e-05,2e-05,1e-05,0.0003,0.00027,1e-05,-0.00022,7,11
35064,0.0004,2e-05,2e-05,1e-05,0.0003,0.00027,1e-05,-0.00022,7,11
35065,0.0004,2e-05,2e-05,1e-05,0.0003,0.00027,1e-05,-0.00022,7,11
35066,0.0004,2e-05,2e-05,1e-05,0.0003,0.00027,1e-05,-0.00022,7,11
35067,0.0004,2e-05,2e-05,1e-05,0.0003,0.00027,1e-05,-0.00022,7,11
35068,0.0004,2e-05,2e-05,1e-05,0.0003,0.00027,1e-05,-0.00022,7,11
35069,0.00053,-2e-05,-1e-05,-5e-05,-0.00067,-7e-05,1e-05,-4e-05,7,11
35070,0.00053,-2e-05,-1e-05,-5e-05,-0.00067,-7e-05,1e-05,-4e-05,7,11
35071,0.00053,-2e-05,-1e-05,-5e-05,-0.00067,-7e-05,1e-05,-4e-05,7,11
35072,0.00053,-2e-05,-1e-05,-5e-05,-0.00067,-7e-05,1e-05,-4e-05,7,11
35073,0.00053,-2e-05,-1e-05,-5e-05,-0.00067,-7e-05,1e-05,-4e-05,7,11
35074,0.00053,-2e-05,-1e-05,-5e-05,-0.00067,-7e-05,1e-05,-4e-05,7,11
35075,0.00053,-2e-05,-1e-05,-5e-05,-0.00067,-7e-05,1e-05,-4e-05,7,11
35076,0.00053,-2e-05,-1e-05,-5e-05,-0.00067,-7e-05,1e-05,-4e-05,7,11
35077,0.00053,-2e-05,-1e-05,-5e-05,-0.00067,-7e-05,1e-05,-4e-05,7,11
35078,0.00015,1e-05,0,-1e-05,-0.00038,-4e-05,8e-05,9e-05,7,11
35079,0.00015,1e-05,0,-1e-05,-0.00038,-4e-05,8e-05,9e-05,7,11
35080,0.00015,1e-05,0,-1e-05,-0.00038,-4e-05,8e-05,9e-05,7,11
35081,0.00015,1e-05,0,-1e-05,-0.00038,-4e-05,8e-05,9e-05,7,11
35082,0.00015,1e-05,0,-1e-05,-0.00038,-4e-05,8e-05,9e-05,7,11
35083,0.00015,1e-05,0,-1e-05,-0.00038,-4e-05,8e-05,9e-05,7,11
35084,0.00015,1e-05,0,-1e-05,-0.00038,-4e-05,8e-05,9e-05,7,11
35085,0.00015,1e-05,0,-1e-05,-0.00038,-4e-05,8e-05,9e-05,7,11
35086,0.00015,1e-05,0,-1e-05,-0.00038,-4e-05,8e-05,9e-05,7,11
35088,0.00015,1e-05,0,-1e-05,-0.00038,-4e-05,8e-05,9e-05,7,11
35089,0.00015,1e-05,0,-1e-05,-0.00038,-4e-05,8e-05,9e-05,7,11
35090,0.00015,1e-05,0,-1e-05,-0.00038,-4e-05,8e-05,9e-05,7,11
35091,0.00015,1e-05,0,-1e-05,-0.00038,-4e-05,8e-05,9e-05,7,11
35092,0.00015,1e-05,0,-1e-05,-0.00038,-4e-05,8e-05,9e-05,7,11
35093,0.00011,2e-05,-1e-05,2e-05,-0.00082,0.00057,1e-05,0.00018,7,11
35094,-8e-05,5e-05,4e-05,0,0.00015,-0.00019,-0.00015,-0.00094,7,11
35095,-8e-05,5e-05,4e-05,0,0.00015,-0.00019,-0.00015,-0.00094,7,11
35096,-8e-05,5e-05,4e-05,0,0.00015,-0.00019,-0.00015,-0.00094,7,11
35097,-8e-05,5e-05,4e-05,0,0.00015,-0.00019,-0.00015,-0.00094,7,11
35098,-8e-05,5e-05,4e-05,0,0.00015,-0.00019,-0.00015,-0.00094,7,11
35099,-8e-05,5e-05,4e-05,0,0.00015,-0.00019,-0.00015,-0.00094,7,11
35100,-8e-05,5e-05,4e-05,0,0.00015,-0.00019,-0.00015,-0.00094,7,11
35101,-8e-05,5e-05,4e-05,0,0.00015,-0.00019,-0.00015,-0.00094,7,11
35102,-8e-05,5e-05,4e-05,0,0.00015,-0.00019,-0.00015,-0.00094,7,11
35103,-8e-05,5e-05,4e-05,0,0.00015,-0.00019,-0.00015,-0.00094,7,11
35104,-8e-05,5e-05,4e-05,0,0.00015,-0.00019,-0.00015,-0.00094,7,11
35105,-8e-05,5e-05,4e-05,0,0.00015,-0.00019,-0.00015,-0.00094,7,11
35106,-8e-05,5e-05,4e-05,0,0.00015,-0.00019,-0.00015,-0.00094,7,11
35107,-8e-05,5e-05,4e-05,0,0.00015,-0.00019,-0.00015,-0.00094,7,11
35108,-8e-05,5e-05,4e-05,0,0.00015,-0.00019,-0.00015,-0.00094,7,11
35109,-8e-05,5e-05,4e-05,0,0.00015,-0.00019,-0.00015,-0.00094,7,11
35110,-8e-05,5e-05,4e-05,0,0.00015,-0.00019,-0.00015,-0.00094,7,11
35111,-8e-05,5e-05,4e-05,0,0.00015,-0.00019,-0.00015,-0.00094,7,11
35112,-8e-05,5e-05,4e-05,0,0.00015,-0.00019,-0.00015,-0.00094,7,11
35113,-8e-05,5e-05,4e-05,0,0.00015,-0.00019,-0.00015,-0.00094,7,11
35114,-8e-05,5e-05,4e-05,0,0.00015,-0.00019,-0.00015,-0.00094,7,11
35115,-0.00036,-4e-05,-2e-05,2e-05,0.00035,0.00011,-7e-05,5e-05,7,11
35116,-0.00036,-4e-05,-2e-05,2e-05,0.00035,0.00011,-7e-05,5e-05,7,11
35117,9e-05,-2e-05,0,-5e-05,7e-05,-0.00012,-8e-05,0.0001,7,11
35118,9e-05,-2e-05,0,-5e-05,7e-05,-0.00012,-8e-05,0.0001,7,11
35119,9e-05,-2e-05,0,-5e-05,7e-05,-0.00012,-8e-05,0.0001,7,11
35120,9e-05,-2e-05,0,-5e-05,7e-05,-0.00012,-8e-05,0.0001,7,11
35121,9e-05,-2e-05,0,-5e-05,7e-05,-0.00012,-8e-05,0.0001,7,11
35122,9e-05,-2e-05,0,-5e-05,7e-05,-0.00012,-8e-05,0.0001,7,11
35123,9e-05,-2e-05,0,-5e-05,7e-05,-0.00012,-8e-05,0.0001,7,11
35124,9e-05,-2e-05,0,-5e-05,7e-05,-0.00012,-8e-05,0.0001,7,11
35125,9e-05,-2e-05,0,-5e-05,7e-05,-0.00012,-8e-05,0.0001,7,11
35126,9e-05,-2e-05,0,-5e-05,7e-05,-0.00012,-8e-05,0.0001,7,11
35127,9e-05,-2e-05,0,-5e-05,7e-05,-0.00012,-8e-05,0.0001,7,11
35129,-0.00042,-3e-05,-6e-05,5e-05,0.00052,-0.00037,-9e-05,-0.00026,7,11
35130,-0.00042,-3e-05,-6e-05,5e-05,0.00052,-0.00037,-9e-05,-0.00026,7,11
35131,-0.00042,-3e-05,-6e-05,5e-05,0.00052,-0.00037,-9e-05,-0.00026,7,11
35132,-0.00042,-3e-05,-6e-05,5e-05,0.00052,-0.00037,-9e-05,-0.00026,7,11
35133,-0.00042,-3e-05,-6e-05,5e-05,0.00052,-0.00037,-9e-05,-0.00026,7,11
35134,-0.00042,-3e-05,-6e-05,5e-05,0.00052,-0.00037,-9e-05,-0.00026,7,11
35135,-0.00042,-3e-05,-6e-05,5e-05,0.00052,-0.00037,-9e-05,-0.00026,7,11
35136,-0.00042,-3e-05,-6e-05,5e-05,0.00052,-0.00037,-9e-05,-0.00026,7,11
35139,0.00026,1e-05,3e-05,9e-05,9e-05,0.00026,5e-05,0.00021,7,11
35140,0.00026,1e-05,3e-05,9e-05,9e-05,0.00026,5e-05,0.00021,7,11
35141,0.00026,1e-05,3e-05,9e-05,9e-05,0.00026,5e-05,0.00021,7,11
35142,0.00026,1e-05,3e-05,9e-05,9e-05,0.00026,5e-05,0.00021,7,11
35143,0.00026,1e-05,3e-05,9e-05,9e-05,0.00026,5e-05,0.00021,7,11
35144,0.00026,1e-05,3e-05,9e-05,9e-05,0.00026,5e-05,0.00021,7,11
35145,0.00026,1e-05,3e-05,9e-05,9e-05,0.00026,5e-05,0.00021,7,11
35146,0.00026,1e-05,3e-05,9e-05,9e-05,0.00026,5e-05,0.00021,7,11
35147,0.00026,1e-05,3e-05,9e-05,9e-05,0.00026,5e-05,0.00021,7,11
35148,0.00026,1e-05,3e-05,9e-05,9e-05,0.00026,5e-05,0.00021,7,11
35149,0.00026,1e-05,3e-05,9e-05,9e-05,0.00026,5e-05,0.00021,7,11
35150,0.00026,1e-05,3e-05,9e-05,9e-05,0.00026,5e-05,0.00021,7,11
35151,0.00026,1e-05,3e-05,9e-05,9e-05,0.00026,5e-05,0.00021,7,11
35152,0.00026,1e-05,3e-05,9e-05,9e-05,0.00026,5e-05,0.00021,7,11
35153,-2e-05,-1e-05,-4e-05,-0.00014,-0.00045,-0.00035,3e-05,0.00012,7,11
35154,-0.0002,-3e-05,-6e-05,-0.0001,-0.00045,-0.00011,2e-05,-0.00051,7,11
35155,-0.0002,-3e-05,-6e-05,-0.0001,-0.00045,-0.00011,2e-05,-0.00051,7,11
35156,-0.0002,-3e-05,-6e-05,-0.0001,-0.00045,-0.00011,2e-05,-0.00051,7,11
35157,-0.0002,-3e-05,-6e-05,-0.0001,-0.00045,-0.00011,2e-05,-0.00051,7,11
35158,-0.0002,-3e-05,-6e-05,-0.0001,-0.00045,-0.00011,2e-05,-0.00051,7,11
35159,-0.0002,-3e-05,-6e-05,-0.0001,-0.00045,-0.00011,2e-05,-0.00051,7,11
35160,-0.0002,-3e-05,-6e-05,-0.0001,-0.00045,-0.00011,2e-05,-0.00051,7,11
35161,-0.0002,-3e-05,-6e-05,-0.0001,-0.00045,-0.00011,2e-05,-0.00051,7,11
35162,-0.0002,-3e-05,-6e-05,-0.0001,-0.00045,-0.00011,2e-05,-0.00051,7,11
35163,-0.0002,-3e-05,-6e-05,-0.0001,-0.00045,-0.00011,2e-05,-0.00051,7,11
35164,-0.0002,-3e-05,-6e-05,-0.0001,-0.00045,-0.00011,2e-05,-0.00051,7,11
35165,-0.0002,-3e-05,-6e-05,-0.0001,-0.00045,-0.00011,2e-05,-0.00051,7,11
35166,-0.0002,-3e-05,-6e-05,-0.0001,-0.00045,-0.00011,2e-05,-0.00051,7,11
35167,-0.0002,-3e-05,-6e-05,-0.0001,-0.00045,-0.00011,2e-05,-0.00051,7,11
35168,-0.0002,-3e-05,-6e-05,-0.0001,-0.00045,-0.00011,2e-05,-0.00051,7,11
35169,-0.0002,-3e-05,-6e-05,-0.0001,-0.00045,-0.00011,2e-05,-0.00051,7,11
35170,-0.0002,-3e-05,-6e-05,-0.0001,-0.00045,-0.00011,2e-05,-0.00051,7,11
35171,-0.0002,-3e-05,-6e-05,-0.0001,-0.00045,-0.00011,2e-05,-0.00051,7,11
35172,-0.0002,-3e-05,-6e-05,-0.0001,-0.00045,-0.00011,2e-05,-0.00051,7,11
35173,-0.0002,-3e-05,-6e-05,-0.0001,-0.00045,-0.00011,2e-05,-0.00051,7,11
35174,-0.0002,-3e-05,-6e-05,-0.0001,-0.00045,-0.00011,2e-05,-0.00051,7,11
35175,-0.00015,-1e-05,1e-05,6e-05,5e-05,0.00031,0.00038,0.0007,7,11
35176,-0.00015,-1e-05,1e-05,6e-05,5e-05,0.00031,0.00038,0.0007,7,11
35177,0.00018,3e-05,2e-05,-0.00015,-0.00096,0.0005,0.00021,2e-05,7,11
35178,0.00018,3e-05,2e-05,-0.00015,-0.00096,0.0005,0.00021,2e-05,7,11
35179,0.00018,3e-05,2e-05,-0.00015,-0.00096,0.0005,0.00021,2e-05,7,11
35180,0.00018,3e-05,2e-05,-0.00015,-0.00096,0.0005,0.00021,2e-05,7,11
35181,0.00018,3e-05,2e-05,-0.00015,-0.00096,0.0005,0.00021,2e-05,7,11
35182,0.00018,3e-05,2e-05,-0.00015,-0.00096,0.0005,0.00021,2e-05,7,11
35183,0.00018,3e-05,2e-05,-0.00015,-0.00096,0.0005,0.00021,2e-05,7,11
35184,0.00018,3e-05,2e-05,-0.00015,-0.00096,0.0005,0.00021,2e-05,7,11
35185,0.00018,3e-05,2e-05,-0.00015,-0.00096,0.0005,0.00021,2e-05,7,11
35186,0.00018,3e-05,2e-05,-0.00015,-0.00096,0.0005,0.00021,2e-05,7,11
35188,0.00018,3e-05,2e-05,-0.00015,-0.00096,0.0005,0.00021,2e-05,7,11
35189,0.00042,2e-05,-1e-05,4e-05,-0.00065,-0.00079,-3e-05,-0.00049,7,11
35190,0.00042,2e-05,-1e-05,4e-05,-0.00065,-0.00079,-3e-05,-0.00049,7,11
35191,0.00042,2e-05,-1e-05,4e-05,-0.00065,-0.00079,-3e-05,-0.00049,7,11
35192,0.00042,2e-05,-1e-05,4e-05,-0.00065,-0.00079,-3e-05,-0.00049,7,11
35193,0.00042,2e-05,-1e-05,4e-05,-0.00065,-0.00079,-3e-05,-0.00049,7,11
35194,0.00042,2e-05,-1e-05,4e-05,-0.00065,-0.00079,-3e-05,-0.00049,7,11
35195,0.00042,2e-05,-1e-05,4e-05,-0.00065,-0.00079,-3e-05,-0.00049,7,11
35196,0.00042,2e-05,-1e-05,4e-05,-0.00065,-0.00079,-3e-05,-0.00049,7,11
35197,0.00042,2e-05,-1e-05,4e-05,-0.00065,-0.00079,-3e-05,-0.00049,7,11
35198,0.00016,-2e-05,-1e-05,2e-05,-0.00046,0.00035,4e-05,0.00033,7,11
35199,0.00016,-2e-05,-1e-05,2e-05,-0.00046,0.00035,4e-05,0.00033,7,11
35200,0.00016,-2e-05,-1e-05,2e-05,-0.00046,0.00035,4e-05,0.00033,7,11
35201,0.00016,-2e-05,-1e-05,2e-05,-0.00046,0.00035,4e-05,0.00033,7,11
35202,0.00016,-2e-05,-1e-05,2e-05,-0.00046,0.00035,4e-05,0.00033,7,11
35203,0.00016,-2e-05,-1e-05,2e-05,-0.00046,0.00035,4e-05,0.00033,7,11
35204,0.00016,-2e-05,-1e-05,2e-05,-0.00046,0.00035,4e-05,0.00033,7,11
35205,0.00016,-2e-05,-1e-05,2e-05,-0.00046,0.00035,4e-05,0.00033,7,11
35206,0.00016,-2e-05,-1e-05,2e-05,-0.00046,0.00035,4e-05,0.00033,7,11
35207,0.00016,-2e-05,-1e-05,2e-05,-0.00046,0.00035,4e-05,0.00033,7,11
35208,0.00016,-2e-05,-1e-05,2e-05,-0.00046,0.00035,4e-05,0.00033,7,11
35209,0.00016,-2e-05,-1e-05,2e-05,-0.00046,0.00035,4e-05,0.00033,7,11
35210,0.00016,-2e-05,-1e-05,2e-05,-0.00046,0.00035,4e-05,0.00033,7,11
35211,0.00016,-2e-05,-1e-05,2e-05,-0.00046,0.00035,4e-05,0.00033,7,11
35212,0.00016,-2e-05,-1e-05,2e-05,-0.00046,0.00035,4e-05,0.00033,7,11
35213,0.00047,2e-05,0,-5e-05,-1e-05,-0.00035,-6e-05,0.00032,7,11
35214,-0.00012,-1e-05,-3e-05,-5e-05,0.00019,0.00013,4e-05,-0.00013,7,11
35215,-0.00012,-1e-05,-3e-05,-5e-05,0.00019,0.00013,4e-05,-0.00013,7,11
35216,-0.00012,-1e-05,-3e-05,-5e-05,0.00019,0.00013,4e-05,-0.00013,7,11
35217,-0.00012,-1e-05,-3e-05,-5e-05,0.00019,0.00013,4e-05,-0.00013,7,11
35218,-0.00012,-1e-05,-3e-05,-5e-05,0.00019,0.00013,4e-05,-0.00013,7,11
35219,-0.00012,-1e-05,-3e-05,-5e-05,0.00019,0.00013,4e-05,-0.00013,7,11
35220,-0.00012,-1e-05,-3e-05,-5e-05,0.00019,0.00013,4e-05,-0.00013,7,11
35221,-0.00012,-1e-05,-3e-05,-5e-05,0.00019,0.00013,4e-05,-0.00013,7,11
35222,-0.00012,-1e-05,-3e-05,-5e-05,0.00019,0.00013,4e-05,-0.00013,7,11
35223,-0.00012,-1e-05,-3e-05,-5e-05,0.00019,0.00013,4e-05,-0.00013,7,11
35224,-0.00012,-1e-05,-3e-05,-5e-05,0.00019,0.00013,4e-05,-0.00013,7,11
35225,-0.00012,-1e-05,-3e-05,-5e-05,0.00019,0.00013,4e-05,-0.00013,7,11
35226,-0.00012,-1e-05,-3e-05,-5e-05,0.00019,0.00013,4e-05,-0.00013,7,11
35227,-0.00012,-1e-05,-3e-05,-5e-05,0.00019,0.00013,4e-05,-0.00013,7,11
35228,-0.00012,-1e-05,-3e-05,-5e-05,0.00019,0.00013,4e-05,-0.00013,7,11
35229,-0.00012,-1e-05,-3e-05,-5e-05,0.00019,0.00013,4e-05,-0.00013,7,11
35230,-0.00012,-1e-05,-3e-05,-5e-05,0.00019,0.00013,4e-05,-0.00013,7,11
35231,-0.00012,-1e-05,-3e-05,-5e-05,0.00019,0.00013,4e-05,-0.00013,7,11
35232,-0.00012,-1e-05,-3e-05,-5e-05,0.00019,0.00013,4e-05,-0.00013,7,11
35233,-0.00012,-1e-05,-3e-05,-5e-05,0.00019,0.00013,4e-05,-0.00013,7,11
35234,-0.00012,-1e-05,-3e-05,-5e-05,0.00019,0.00013,4e-05,-0.00013,7,11
35235,-0.00051,-9e-05,-3e-05,2e-05,0.00035,0.00027,7e-05,0.0009,7,11
35236,-0.00051,-9e-05,-3e-05,2e-05,0.00035,0.00027,7e-05,0.0009,7,11
35238,-0.00028,-3e-05,-1e-05,0.00012,0.00058,0.00034,5e-05,-2e-05,7,11
35239,-0.00028,-3e-05,-1e-05,0.00012,0.00058,0.00034,5e-05,-2e-05,7,11
35240,-0.00028,-3e-05,-1e-05,0.00012,0.00058,0.00034,5e-05,-2e-05,7,11
35241,-0.00028,-3e-05,-1e-05,0.00012,0.00058,0.00034,5e-05,-2e-05,7,11
35242,-0.00028,-3e-05,-1e-05,0.00012,0.00058,0.00034,5e-05,-2e-05,7,11
35243,-0.00028,-3e-05,-1e-05,0.00012,0.00058,0.00034,5e-05,-2e-05,7,11
35244,-0.00028,-3e-05,-1e-05,0.00012,0.00058,0.00034,5e-05,-2e-05,7,11
35245,-0.00028,-3e-05,-1e-05,0.00012,0.00058,0.00034,5e-05,-2e-05,7,11
35246,-0.00028,-3e-05,-1e-05,0.00012,0.00058,0.00034,5e-05,-2e-05,7,11
35247,-0.00028,-3e-05,-1e-05,0.00012,0.00058,0.00034,5e-05,-2e-05,7,11
35248,-0.00028,-3e-05,-1e-05,0.00012,0.00058,0.00034,5e-05,-2e-05,7,11
35249,-0.00028,-3e-05,-1e-05,0.00012,0.00058,0.00034,5e-05,-2e-05,7,11
35250,-0.00028,-3e-05,-1e-05,0.00012,0.00058,0.00034,5e-05,-2e-05,7,11
35251,-0.00028,-3e-05,-1e-05,0.00012,0.00058,0.00034,5e-05,-2e-05,7,11
35252,-0.00028,-3e-05,-1e-05,0.00012,0.00058,0.00034,5e-05,-2e-05,7,11
35253,-0.00028,-3e-05,-1e-05,0.00012,0.00058,0.00034,5e-05,-2e-05,7,11
35254,-0.00028,-3e-05,-1e-05,0.00012,0.00058,0.00034,5e-05,-2e-05,7,11
35255,-0.00028,-3e-05,-1e-05,0.00012,0.00058,0.00034,5e-05,-2e-05,7,11
35256,-0.00028,-3e-05,-1e-05,0.00012,0.00058,0.00034,5e-05,-2e-05,7,11
35257,-0.00028,-3e-05,-1e-05,0.00012,0.00058,0.00034,5e-05,-2e-05,7,11
35258,-7e-05,-1e-05,0,3e-05,0.0003,0.00041,-0.00013,-0.0003,7,11
35259,0.00036,0,-1e-05,-9e-05,0.00039,0.00013,0,-0.00018,7,11
35260,0.00036,0,-1e-05,-9e-05,0.00039,0.00013,0,-0.00018,7,11
35261,0.00036,0,-1e-05,-9e-05,0.00039,0.00013,0,-0.00018,7,11
35262,0.00036,0,-1e-05,-9e-05,0.00039,0.00013,0,-0.00018,7,11
35263,0.00036,0,-1e-05,-9e-05,0.00039,0.00013,0,-0.00018,7,11
35264,0.00036,0,-1e-05,-9e-05,0.00039,0.00013,0,-0.00018,7,11
35265,0.00036,0,-1e-05,-9e-05,0.00039,0.00013,0,-0.00018,7,11
35266,0.00036,0,-1e-05,-9e-05,0.00039,0.00013,0,-0.00018,7,11
35267,0.00036,0,-1e-05,-9e-05,0.00039,0.00013,0,-0.00018,7,11
35268,0.00036,0,-1e-05,-9e-05,0.00039,0.00013,0,-0.00018,7,11
35269,0.00036,0,-1e-05,-9e-05,0.00039,0.00013,0,-0.00018,7,11
35270,0.00036,0,-1e-05,-9e-05,0.00039,0.00013,0,-0.00018,7,11
35271,0.00036,0,-1e-05,-9e-05,0.00039,0.00013,0,-0.00018,7,11
35272,0.00036,0,-1e-05,-9e-05,0.00039,0.00013,0,-0.00018,7,11
35273,0.00014,0,3e-05,4e-05,-0.00023,0.00048,-3e-05,-0.00077,7,11
35274,0.00037,-2e-05,-3e-05,0.00011,0.00101,-0.00032,-4e-05,4e-05,7,11
35275,0.00037,-2e-05,-3e-05,0.00011,0.00101,-0.00032,-4e-05,4e-05,7,11
35276,0.00037,-2e-05,-3e-05,0.00011,0.00101,-0.00032,-4e-05,4e-05,7,11
35277,0.00037,-2e-05,-3e-05,0.00011,0.00101,-0.00032,-4e-05,4e-05,7,11
35278,0.00037,-2e-05,-3e-05,0.00011,0.00101,-0.00032,-4e-05,4e-05,7,11
35279,0.00037,-2e-05,-3e-05,0.00011,0.00101,-0.00032,-4e-05,4e-05,7,11
35280,0.00037,-2e-05,-3e-05,0.00011,0.00101,-0.00032,-4e-05,4e-05,7,11
35281,0.00037,-2e-05,-3e-05,0.00011,0.00101,-0.00032,-4e-05,4e-05,7,11
35282,0.00037,-2e-05,-3e-05,0.00011,0.00101,-0.00032,-4e-05,4e-05,7,11
35283,0.00037,-2e-05,-3e-05,0.00011,0.00101,-0.00032,-4e-05,4e-05,7,11
35284,0.00037,-2e-05,-3e-05,0.00011,0.00101,-0.00032,-4e-05,4e-05,7,11
35285,0.00037,-2e-05,-3e-05,0.00011,0.00101,-0.00032,-4e-05,4e-05,7,11
35286,0.00037,-2e-05,-3e-05,0.00011,0.00101,-0.00032,-4e-05,4e-05,7,11
35288,0.00037,-2e-05,-3e-05,0.00011,0.00101,-0.00032,-4e-05,4e-05,7,11
35289,0.00037,-2e-05,-3e-05,0.00011,0.00101,-0.00032,-4e-05,4e-05,7,11
35290,0.00037,-2e-05,-3e-05,0.00011,0.00101,-0.00032,-4e-05,4e-05,7,11
35291,0.00037,-2e-05,-3e-05,0.00011,0.00101,-0.00032,-4e-05,4e-05,7,11
35292,0.00037,-2e-05,-3e-05,0.00011,0.00101,-0.00032,-4e-05,4e-05,7,11
35293,0.00037,-2e-05,-3e-05,0.00011,0.00101,-0.00032,-4e-05,4e-05,7,11
35294,0.00037,-2e-05,-3e-05,0.00011,0.00101,-0.00032,-4e-05,4e-05,7,11
35295,-9e-05,0,4e-05,-4e-05,-0.0004,5e-05,3e-05,0.00012,7,11
35296,-9e-05,0,4e-05,-4e-05,-0.0004,5e-05,3e-05,0.00012,7,11
35297,0.00029,-1e-05,-1e-05,3e-05,-0.0003,-0.00071,2e-05,-0.00012,7,11
35298,0.00029,-1e-05,-1e-05,3e-05,-0.0003,-0.00071,2e-05,-0.00012,7,11
35299,0.00029,-1e-05,-1e-05,3e-05,-0.0003,-0.00071,2e-05,-0.00012,7,11
35300,0.00029,-1e-05,-1e-05,3e-05,-0.0003,-0.00071,2e-05,-0.00012,7,11
35301,0.00029,-1e-05,-1e-05,3e-05,-0.0003,-0.00071,2e-05,-0.00012,7,11
35302,0.00029,-1e-05,-1e-05,3e-05,-0.0003,-0.00071,2e-05,-0.00012,7,11
35303,0.00029,-1e-05,-1e-05,3e-05,-0.0003,-0.00071,2e-05,-0.00012,7,11
35304,0.00029,-1e-05,-1e-05,3e-05,-0.0003,-0.00071,2e-05,-0.00012,7,11
35305,0.00029,-1e-05,-1e-05,3e-05,-0.0003,-0.00071,2e-05,-0.00012,7,11
35306,0.00029,-1e-05,-1e-05,3e-05,-0.0003,-0.00071,2e-05,-0.00012,7,11
35307,0.00029,-1e-05,-1e-05,3e-05,-0.0003,-0.00071,2e-05,-0.00012,7,11
35308,0.00029,-1e-05,-1e-05,3e-05,-0.0003,-0.00071,2e-05,-0.00012,7,11
35309,0.00029,-1e-05,-1e-05,3e-05,-0.0003,-0.00071,2e-05,-0.00012,7,11
35310,0.00029,-1e-05,-1e-05,3e-05,-0.0003,-0.00071,2e-05,-0.00012,7,11
35311,0.00029,-1e-05,-1e-05,3e-05,-0.0003,-0.00071,2e-05,-0.00012,7,11
35312,0.00029,-1e-05,-1e-05,3e-05,-0.0003,-0.00071,2e-05,-0.00012,7,11
35313,0.00029,-1e-05,-1e-05,3e-05,-0.0003,-0.00071,2e-05,-0.00012,7,11
35314,0.00029,-1e-05,-1e-05,3e-05,-0.0003,-0.00071,2e-05,-0.00012,7,11
35315,0.00029,-1e-05,-1e-05,3e-05,-0.0003,-0.00071,2e-05,-0.00012,7,11
35316,0.00029,-1e-05,-1e-05,3e-05,-0.0003,-0.00071,2e-05,-0.00012,7,11
35317,0.00029,-1e-05,-1e-05,3e-05,-0.0003,-0.00071,2e-05,-0.00012,7,11
35318,7e-05,0,0,-2e-05,0.00047,-0.00045,-2e-05,0.00019,7,11
35319,-0.00044,-2e-05,1e-05,-0.00013,-0.00062,0.00052,0.0001,2e-05,7,11
35320,-0.00044,-2e-05,1e-05,-0.00013,-0.00062,0.00052,0.0001,2e-05,7,11
35321,-0.00044,-2e-05,1e-05,-0.00013,-0.00062,0.00052,0.0001,2e-05,7,11
35322,-0.00044,-2e-05,1e-05,-0.00013,-0.00062,0.00052,0.0001,2e-05,7,11
35323,-0.00044,-2e-05,1e-05,-0.00013,-0.00062,0.00052,0.0001,2e-05,7,11
35324,-0.00044,-2e-05,1e-05,-0.00013,-0.00062,0.00052,0.0001,2e-05,7,11
35325,-0.00044,-2e-05,1e-05,-0.00013,-0.00062,0.00052,0.0001,2e-05,7,11
35326,-0.00044,-2e-05,1e-05,-0.00013,-0.00062,0.00052,0.0001,2e-05,7,11
35327,-0.00044,-2e-05,1e-05,-0.00013,-0.00062,0.00052,0.0001,2e-05,7,11
35328,-0.00044,-2e-05,1e-05,-0.00013,-0.00062,0.00052,0.0001,2e-05,7,11
35329,-0.00044,-2e-05,1e-05,-0.00013,-0.00062,0.00052,0.0001,2e-05,7,11
35330,-0.00044,-2e-05,1e-05,-0.00013,-0.00062,0.00052,0.0001,2e-05,7,11
35331,-0.00044,-2e-05,1e-05,-0.00013,-0.00062,0.00052,0.0001,2e-05,7,11
35332,-0.00044,-2e-05,1e-05,-0.00013,-0.00062,0.00052,0.0001,2e-05,7,11
35333,-0.00044,-2e-05,1e-05,-0.00013,-0.00062,0.00052,0.0001,2e-05,7,11
35334,-0.00044,-2e-05,1e-05,-0.00013,-0.00062,0.00052,0.0001,2e-05,7,11
35335,-0.00044,-2e-05,1e-05,-0.00013,-0.00062,0.00052,0.0001,2e-05,7,11
35336,-0.00044,-2e-05,1e-05,-0.00013,-0.00062,0.00052,0.0001,2e-05,7,11
35338,-0.00044,-2e-05,1e-05,-0.00013,-0.00062,0.00052,0.0001,2e-05,7,11
35339,-0.00044,-2e-05,1e-05,-0.00013,-0.00062,0.00052,0.0001,2e-05,7,11
35340,-0.00044,-2e-05,1e-05,-0.00013,-0.00062,0.00052,0.0001,2e-05,7,11
35341,0.00021,4e-05,0,-6e-05,-0.00016,-0.00027,4e-05,-0.0003,7,11
35342,-0.00013,-2e-05,1e-05,4e-05,7e-05,0.00089,0.00013,-0.00021,7,11
35343,-0.00013,-2e-05,1e-05,4e-05,7e-05,0.00089,0.00013,-0.00021,7,11
35344,-0.00013,-2e-05,1e-05,4e-05,7e-05,0.00089,0.00013,-0.00021,7,11
35345,-0.00013,-2e-05,1e-05,4e-05,7e-05,0.00089,0.00013,-0.00021,7,11
35346,-0.00013,-2e-05,1e-05,4e-05,7e-05,0.00089,0.00013,-0.00021,7,11
35347,-0.00013,-2e-05,1e-05,4e-05,7e-05,0.00089,0.00013,-0.00021,7,11
35348,-0.00013,-2e-05,1e-05,4e-05,7e-05,0.00089,0.00013,-0.00021,7,11
35349,-0.00013,-2e-05,1e-05,4e-05,7e-05,0.00089,0.00013,-0.00021,7,11
35350,-0.00013,-2e-05,1e-05,4e-05,7e-05,0.00089,0.00013,-0.00021,7,11
35351,-0.00013,-2e-05,1e-05,4e-05,7e-05,0.00089,0.00013,-0.00021,7,11
35352,-0.00013,-2e-05,1e-05,4e-05,7e-05,0.00089,0.00013,-0.00021,7,11
35353,-0.00013,-2e-05,1e-05,4e-05,7e-05,0.00089,0.00013,-0.00021,7,11
35354,-0.00013,-2e-05,1e-05,4e-05,7e-05,0.00089,0.00013,-0.00021,7,11
35355,-0.00013,-2e-05,1e-05,4e-05,7e-05,0.00089,0.00013,-0.00021,7,11
35356,-0.00013,-2e-05,1e-05,4e-05,7e-05,0.00089,0.00013,-0.00021,7,11
35357,-0.00013,-2e-05,1e-05,4e-05,7e-05,0.00089,0.00013,-0.00021,7,11
35358,-0.00013,-2e-05,1e-05,4e-05,7e-05,0.00089,0.00013,-0.00021,7,11
35359,-0.00013,-2e-05,1e-05,4e-05,7e-05,0.00089,0.00013,-0.00021,7,11
35360,-0.00013,-2e-05,1e-05,4e-05,7e-05,0.00089,0.00013,-0.00021,7,11
35361,-0.00013,-2e-05,1e-05,4e-05,7e-05,0.00089,0.00013,-0.00021,7,11
35362,-0.00013,-2e-05,1e-05,4e-05,7e-05,0.00089,0.00013,-0.00021,7,11
35363,-0.0004,-5e-05,-3e-05,-1e-05,0.00023,0.00019,4e-05,-6e-05,7,11
35364,5e-05,-1e-05,0,7e-05,-8e-05,0.00012,-3e-05,0.00031,7,11
35365,5e-05,-1e-05,0,7e-05,-8e-05,0.00012,-3e-05,0.00031,7,11
35366,5e-05,-1e-05,0,7e-05,-8e-05,0.00012,-3e-05,0.00031,7,11
35367,5e-05,-1e-05,0,7e-05,-8e-05,0.00012,-3e-05,0.00031,7,11
35368,5e-05,-1e-05,0,7e-05,-8e-05,0.00012,-3e-05,0.00031,7,11
35369,5e-05,-1e-05,0,7e-05,-8e-05,0.00012,-3e-05,0.00031,7,11
35370,5e-05,-1e-05,0,7e-05,-8e-05,0.00012,-3e-05,0.00031,7,11
35371,5e-05,-1e-05,0,7e-05,-8e-05,0.00012,-3e-05,0.00031,7,11
35372,5e-05,-1e-05,0,7e-05,-8e-05,0.00012,-3e-05,0.00031,7,11
35373,5e-05,-1e-05,0,7e-05,-8e-05,0.00012,-3e-05,0.00031,7,11
35374,5e-05,-1e-05,0,7e-05,-8e-05,0.00012,-3e-05,0.00031,7,11
35375,5e-05,-1e-05,0,7e-05,-8e-05,0.00012,-3e-05,0.00031,7,11
35376,5e-05,-1e-05,0,7e-05,-8e-05,0.00012,-3e-05,0.00031,7,11
35377,5e-05,-1e-05,0,7e-05,-8e-05,0.00012,-3e-05,0.00031,7,11
35378,-4e-05,4e-05,0,-0.00012,-0.00127,-0.00023,0,0.001,7,11
35379,0.00035,0,-3e-05,-1e-05,0.00027,-0.00039,-9e-05,-9e-05,7,11
35380,0.00035,0,-3e-05,-1e-05,0.00027,-0.00039,-9e-05,-9e-05,7,11
35381,0.00035,0,-3e-05,-1e-05,0.00027,-0.00039,-9e-05,-9e-05,7,11
35382,0.00035,0,-3e-05,-1e-05,0.00027,-0.00039,-9e-05,-9e-05,7,11
35383,0.00035,0,-3e-05,-1e-05,0.00027,-0.00039,-9e-05,-9e-05,7,11
35384,0.00035,0,-3e-05,-1e-05,0.00027,-0.00039,-9e-05,-9e-05,7,11
35385,0.00035,0,-3e-05,-1e-05,0.00027,-0.00039,-9e-05,-9e-05,7,11
35386,0.00035,0,-3e-05,-1e-05,0.00027,-0.00039,-9e-05,-9e-05,7,11
35388,0.00035,0,-3e-05,-1e-05,0.00027,-0.00039,-9e-05,-9e-05,7,11
35389,0.00035,0,-3e-05,-1e-05,0.00027,-0.00039,-9e-05,-9e-05,7,11
35390,0.00035,0,-3e-05,-1e-05,0.00027,-0.00039,-9e-05,-9e-05,7,11
35391,0.00035,0,-3e-05,-1e-05,0.00027,-0.00039,-9e-05,-9e-05,7,11
35392,6e-05,-5e-05,-6e-05,7e-05,0.00025,7e-05,-1e-05,-0.00026,7,11
35393,6e-05,-5e-05,-6e-05,7e-05,0.00025,7e-05,-1e-05,-0.00026,7,11
35394,6e-05,-5e-05,-6e-05,7e-05,0.00025,7e-05,-1e-05,-0.00026,7,11
35395,6e-05,-5e-05,-6e-05,7e-05,0.00025,7e-05,-1e-05,-0.00026,7,11
35396,6e-05,-5e-05,-6e-05,7e-05,0.00025,7e-05,-1e-05,-0.00026,7,11
35397,6e-05,-5e-05,-6e-05,7e-05,0.00025,7e-05,-1e-05,-0.00026,7,11
35398,6e-05,-5e-05,-6e-05,7e-05,0.00025,7e-05,-1e-05,-0.00026,7,11
35399,2e-05,5e-05,3e-05,3e-05,-0.00033,3e-05,-8e-05,9e-05,7,11
35400,2e-05,5e-05,3e-05,3e-05,-0.00033,3e-05,-8e-05,9e-05,7,11
35401,2e-05,5e-05,3e-05,3e-05,-0.00033,3e-05,-8e-05,9e-05,7,11
35402,2e-05,5e-05,3e-05,3e-05,-0.00033,3e-05,-8e-05,9e-05,7,11
35403,2e-05,5e-05,3e-05,3e-05,-0.00033,3e-05,-8e-05,9e-05,7,11
35404,2e-05,5e-05,3e-05,3e-05,-0.00033,3e-05,-8e-05,9e-05,7,11
35405,2e-05,5e-05,3e-05,3e-05,-0.00033,3e-05,-8e-05,9e-05,7,11
35406,2e-05,5e-05,3e-05,3e-05,-0.00033,3e-05,-8e-05,9e-05,7,11
35407,2e-05,5e-05,3e-05,3e-05,-0.00033,3e-05,-8e-05,9e-05,7,11
35408,2e-05,5e-05,3e-05,3e-05,-0.00033,3e-05,-8e-05,9e-05,7,11
35409,2e-05,5e-05,3e-05,3e-05,-0.00033,3e-05,-8e-05,9e-05,7,11
35410,2e-05,5e-05,3e-05,3e-05,-0.00033,3e-05,-8e-05,9e-05,7,11
35411,2e-05,5e-05,3e-05,3e-05,-0.00033,3e-05,-8e-05,9e-05,7,11
35412,2e-05,5e-05,3e-05,3e-05,-0.00033,3e-05,-8e-05,9e-05,7,11
35413,2e-05,5e-05,3e-05,3e-05,-0.00033,3e-05,-8e-05,9e-05,7,11
35414,2e-05,5e-05,3e-05,3e-05,-0.00033,3e-05,-8e-05,9e-05,7,11
35415,0.00011,-1e-05,-1e-05,4e-05,0.00021,9e-05,-0.0001,-0.00017,7,11
35416,0.00011,-1e-05,-1e-05,4e-05,0.00021,9e-05,-0.0001,-0.00017,7,11
35417,-0.00012,-4e-05,0,5e-05,0.00026,-0.00071,-0.00019,-0.00026,7,11
35418,-0.00012,-4e-05,0,5e-05,0.00026,-0.00071,-0.00019,-0.00026,7,11
35419,-0.00012,-4e-05,0,5e-05,0.00026,-0.00071,-0.00019,-0.00026,7,11
35420,-0.00012,-4e-05,0,5e-05,0.00026,-0.00071,-0.00019,-0.00026,7,11
35421,-0.00012,-4e-05,0,5e-05,0.00026,-0.00071,-0.00019,-0.00026,7,11
35422,-0.00012,-4e-05,0,5e-05,0.00026,-0.00071,-0.00019,-0.00026,7,11
35423,-0.00012,-4e-05,0,5e-05,0.00026,-0.00071,-0.00019,-0.00026,7,11
35424,-0.00012,-4e-05,0,5e-05,0.00026,-0.00071,-0.00019,-0.00026,7,11
35425,-0.00012,-4e-05,0,5e-05,0.00026,-0.00071,-0.00019,-0.00026,7,11
35426,-0.00012,-4e-05,0,5e-05,0.00026,-0.00071,-0.00019,-0.00026,7,11
35427,-0.00012,-4e-05,0,5e-05,0.00026,-0.00071,-0.00019,-0.00026,7,11
35428,-0.00012,-4e-05,0,5e-05,0.00026,-0.00071,-0.00019,-0.00026,7,11
35429,-0.00012,-4e-05,0,5e-05,0.00026,-0.00071,-0.00019,-0.00026,7,11
35430,-0.00012,-4e-05,0,5e-05,0.00026,-0.00071,-0.00019,-0.00026,7,11
35431,-0.00012,-4e-05,0,5e-05,0.00026,-0.00071,-0.00019,-0.00026,7,11
35432,-0.00012,-4e-05,0,5e-05,0.00026,-0.00071,-0.00019,-0.00026,7,11
35433,-0.00012,-4e-05,0,5e-05,0.00026,-0.00071,-0.00019,-0.00026,7,11
35434,-0.00012,-4e-05,0,5e-05,0.00026,-0.00071,-0.00019,-0.00026,7,11
35435,-0.00012,-4e-05,0,5e-05,0.00026,-0.00071,-0.00019,-0.00026,7,11
35436,-0.00012,-4e-05,0,5e-05,0.00026,-0.00071,-0.00019,-0.00026,7,11
35438,0.00032,0.00013,4e-05,6e-05,-0.00038,0.00012,-1e-05,0.00049,7,11
35439,0,-3e-05,-5e-05,-4e-05,-1e-05,0.00011,-8e-05,9e-05,7,11
35440,0,-3e-05,-5e-05,-4e-05,-1e-05,0.00011,-8e-05,9e-05,7,11
35441,0,-3e-05,-5e-05,-4e-05,-1e-05,0.00011,-8e-05,9e-05,7,11
35442,0,-3e-05,-5e-05,-4e-05,-1e-05,0.00011,-8e-05,9e-05,7,11
35443,0,-3e-05,-5e-05,-4e-05,-1e-05,0.00011,-8e-05,9e-05,7,11
35444,0,-3e-05,-5e-05,-4e-05,-1e-05,0.00011,-8e-05,9e-05,7,11
35445,0,-3e-05,-5e-05,-4e-05,-1e-05,0.00011,-8e-05,9e-05,7,11
35446,0,-3e-05,-5e-05,-4e-05,-1e-05,0.00011,-8e-05,9e-05,7,11
35447,0,-3e-05,-5e-05,-4e-05,-1e-05,0.00011,-8e-05,9e-05,7,11
35448,0,-3e-05,-5e-05,-4e-05,-1e-05,0.00011,-8e-05,9e-05,7,11
35449,0,-3e-05,-5e-05,-4e-05,-1e-05,0.00011,-8e-05,9e-05,7,11
35450,0,-3e-05,-5e-05,-4e-05,-1e-05,0.00011,-8e-05,9e-05,7,11
35451,0,-3e-05,-5e-05,-4e-05,-1e-05,0.00011,-8e-05,9e-05,7,11
35452,8e-05,-3e-05,1e-05,-4e-05,0.00064,-0.00078,-0.00015,-0.00036,7,11
35453,8e-05,-3e-05,1e-05,-4e-05,0.00064,-0.00078,-0.00015,-0.00036,7,11
35454,8e-05,-3e-05,1e-05,-4e-05,0.00064,-0.00078,-0.00015,-0.00036,7,11
35455,8e-05,-3e-05,1e-05,-4e-05,0.00064,-0.00078,-0.00015,-0.00036,7,11
35456,8e-05,-3e-05,1e-05,-4e-05,0.00064,-0.00078,-0.00015,-0.00036,7,11
35457,8e-05,-3e-05,1e-05,-4e-05,0.00064,-0.00078,-0.00015,-0.00036,7,11
35458,8e-05,-3e-05,1e-05,-4e-05,0.00064,-0.00078,-0.00015,-0.00036,7,11
35459,0.00038,0,-3e-05,-3e-05,-0.00084,-0.00031,7e-05,0.00017,7,11
35460,0.00038,0,-3e-05,-3e-05,-0.00084,-0.00031,7e-05,0.00017,7,11
35461,0.00038,0,-3e-05,-3e-05,-0.00084,-0.00031,7e-05,0.00017,7,11
35462,0.00038,0,-3e-05,-3e-05,-0.00084,-0.00031,7e-05,0.00017,7,11
35463,0.00038,0,-3e-05,-3e-05,-0.00084,-0.00031,7e-05,0.00017,7,11
35464,0.00038,0,-3e-05,-3e-05,-0.00084,-0.00031,7e-05,0.00017,7,11
35465,0.00038,0,-3e-05,-3e-05,-0.00084,-0.00031,7e-05,0.00017,7,11
35466,0.00038,0,-3e-05,-3e-05,-0.00084,-0.00031,7e-05,0.00017,7,11
35467,0.00038,0,-3e-05,-3e-05,-0.00084,-0.00031,7e-05,0.00017,7,11
35468,0.00038,0,-3e-05,-3e-05,-0.00084,-0.00031,7e-05,0.00017,7,11
35469,0.00038,0,-3e-05,-3e-05,-0.00084,-0.00031,7e-05,0.00017,7,11
35470,0.00038,0,-3e-05,-3e-05,-0.00084,-0.00031,7e-05,0.00017,7,11
35471,0.00038,0,-3e-05,-3e-05,-0.00084,-0.00031,7e-05,0.00017,7,11
35472,0.00038,0,-3e-05,-3e-05,-0.00084,-0.00031,7e-05,0.00017,7,11
35473,0.00038,0,-3e-05,-3e-05,-0.00084,-0.00031,7e-05,0.00017,7,11
35474,0.00038,0,-3e-05,-3e-05,-0.00084,-0.00031,7e-05,0.00017,7,11
35475,-0.00028,-4e-05,-3e-05,-8e-05,-0.0007,-0.00025,-4e-05,-0.00029,7,11
35476,-0.00028,-4e-05,-3e-05,-8e-05,-0.0007,-0.00025,-4e-05,-0.00029,7,11
35477,-0.00032,-8e-05,-4e-05,-0.00014,-0.00022,6e-05,-1e-05,7e-05,7,11
35478,-0.00032,-8e-05,-4e-05,-0.00014,-0.00022,6e-05,-1e-05,7e-05,7,11
35479,-0.00032,-8e-05,-4e-05,-0.00014,-0.00022,6e-05,-1e-05,7e-05,7,11
35480,-0.00032,-8e-05,-4e-05,-0.00014,-0.00022,6e-05,-1e-05,7e-05,7,11
35481,-0.00032,-8e-05,-4e-05,-0.00014,-0.00022,6e-05,-1e-05,7e-05,7,11
35482,-0.00032,-8e-05,-4e-05,-0.00014,-0.00022,6e-05,-1e-05,7e-05,7,11
35483,-0.00032,-8e-05,-4e-05,-0.00014,-0.00022,6e-05,-1e-05,7e-05,7,11
35484,-0.00032,-8e-05,-4e-05,-0.00014,-0.00022,6e-05,-1e-05,7e-05,7,11
35485,-0.00032,-8e-05,-4e-05,-0.00014,-0.00022,6e-05,-1e-05,7e-05,7,11
35486,-0.00032,-8e-05,-4e-05,-0.00014,-0.00022,6e-05,-1e-05,7e-05,7,11
35488,-0.00032,-8e-05,-4e-05,-0.00014,-0.00022,6e-05,-1e-05,7e-05,7,11
35489,-0.00032,-8e-05,-4e-05,-0.00014,-0.00022,6e-05,-1e-05,7e-05,7,11
35490,-0.00032,-8e-05,-4e-05,-0.00014,-0.00022,6e-05,-1e-05,7e-05,7,11
35491,-0.00032,-8e-05,-4e-05,-0.00014,-0.00022,6e-05,-1e-05,7e-05,7,11
35492,-0.00032,-8e-05,-4e-05,-0.00014,-0.00022,6e-05,-1e-05,7e-05,7,11
35493,-0.00032,-8e-05,-4e-05,-0.00014,-0.00022,6e-05,-1e-05,7e-05,7,11
35494,-0.00032,-8e-05,-4e-05,-0.00014,-0.00022,6e-05,-1e-05,7e-05,7,11
35495,-0.00032,-8e-05,-4e-05,-0.00014,-0.00022,6e-05,-1e-05,7e-05,7,11
35496,-0.00032,-8e-05,-4e-05,-0.00014,-0.00022,6e-05,-1e-05,7e-05,7,11
35497,-0.00032,-8e-05,-4e-05,-0.00014,-0.00022,6e-05,-1e-05,7e-05,7,11
35498,-0.00032,-8e-05,-4e-05,-0.00014,-0.00022,6e-05,-1e-05,7e-05,7,11
35499,-0.00051,-4e-05,0,0.0001,0.00029,0.00026,7e-05,-3e-05,7,11
35500,-0.00051,-4e-05,0,0.0001,0.00029,0.00026,7e-05,-3e-05,7,11
35501,-0.00051,-4e-05,0,0.0001,0.00029,0.00026,7e-05,-3e-05,7,11
35502,-0.00051,-4e-05,0,0.0001,0.00029,0.00026,7e-05,-3e-05,7,11
35503,-0.00051,-4e-05,0,0.0001,0.00029,0.00026,7e-05,-3e-05,7,11
35504,-6e-05,5e-05,3e-05,-1e-05,-0.00035,-0.0003,-3e-05,-0.00017,7,11
35505,-6e-05,5e-05,3e-05,-1e-05,-0.00035,-0.0003,-3e-05,-0.00017,7,11
35506,-6e-05,5e-05,3e-05,-1e-05,-0.00035,-0.0003,-3e-05,-0.00017,7,11
35507,-6e-05,5e-05,3e-05,-1e-05,-0.00035,-0.0003,-3e-05,-0.00017,7,11
35508,-6e-05,5e-05,3e-05,-1e-05,-0.00035,-0.0003,-3e-05,-0.00017,7,11
35509,-6e-05,5e-05,3e-05,-1e-05,-0.00035,-0.0003,-3e-05,-0.00017,7,11
35510,-6e-05,5e-05,3e-05,-1e-05,-0.00035,-0.0003,-3e-05,-0.00017,7,11
35511,-6e-05,5e-05,3e-05,-1e-05,-0.00035,-0.0003,-3e-05,-0.00017,7,11
35512,0.00012,1e-05,0,-2e-05,-5e-05,0.00096,0.00016,0.00091,7,11
35513,0.00012,1e-05,0,-2e-05,-5e-05,0.00096,0.00016,0.00091,7,11
35514,0.00012,1e-05,0,-2e-05,-5e-05,0.00096,0.00016,0.00091,7,11
35515,0.00012,1e-05,0,-2e-05,-5e-05,0.00096,0.00016,0.00091,7,11
35516,0.00012,1e-05,0,-2e-05,-5e-05,0.00096,0.00016,0.00091,7,11
35517,0.00012,1e-05,0,-2e-05,-5e-05,0.00096,0.00016,0.00091,7,11
35518,0.00012,1e-05,0,-2e-05,-5e-05,0.00096,0.00016,0.00091,7,11
35519,-0.00017,-4e-05,-5e-05,2e-05,0.00072,-2e-05,-8e-05,-5e-05,7,11
35520,-0.00017,-4e-05,-5e-05,2e-05,0.00072,-2e-05,-8e-05,-5e-05,7,11
35521,-0.00017,-4e-05,-5e-05,2e-05,0.00072,-2e-05,-8e-05,-5e-05,7,11
35522,-0.00017,-4e-05,-5e-05,2e-05,0.00072,-2e-05,-8e-05,-5e-05,7,11
35523,-0.00017,-4e-05,-5e-05,2e-05,0.00072,-2e-05,-8e-05,-5e-05,7,11
35524,-0.00017,-4e-05,-5e-05,2e-05,0.00072,-2e-05,-8e-05,-5e-05,7,11
35525,-0.00017,-4e-05,-5e-05,2e-05,0.00072,-2e-05,-8e-05,-5e-05,7,11
35526,-0.00017,-4e-05,-5e-05,2e-05,0.00072,-2e-05,-8e-05,-5e-05,7,11
35527,-0.00017,-4e-05,-5e-05,2e-05,0.00072,-2e-05,-8e-05,-5e-05,7,11
35528,-0.00017,-4e-05,-5e-05,2e-05,0.00072,-2e-05,-8e-05,-5e-05,7,11
35529,-0.00017,-4e-05,-5e-05,2e-05,0.00072,-2e-05,-8e-05,-5e-05,7,11
35530,-0.00017,-4e-05,-5e-05,2e-05,0.00072,-2e-05,-8e-05,-5e-05,7,11
35531,-0.00017,-4e-05,-5e-05,2e-05,0.00072,-2e-05,-8e-05,-5e-05,7,11
35532,-0.00017,-4e-05,-5e-05,2e-05,0.00072,-2e-05,-8e-05,-5e-05,7,11
35533,-0.00017,-4e-05,-5e-05,2e-05,0.00072,-2e-05,-8e-05,-5e-05,7,11
35534,-0.00017,-4e-05,-5e-05,2e-05,0.00072,-2e-05,-8e-05,-5e-05,7,11
35535,0.00014,-1e-05,-1e-05,9e-05,0.001,0.00023,-0.00013,-0.00031,7,11
35536,0.00014,-1e-05,-1e-05,9e-05,0.001,0.00023,-0.00013,-0.00031,7,11
35538,0.00034,0,3e-05,1e-05,-0.00021,-7e-05,0.00012,0.00038,7,11
35539,0.00034,0,3e-05,1e-05,-0.00021,-7e-05,0.00012,0.00038,7,11
35540,0.00034,0,3e-05,1e-05,-0.00021,-7e-05,0.00012,0.00038,7,11
35541,0.00034,0,3e-05,1e-05,-0.00021,-7e-05,0.00012,0.00038,7,11
35542,0.00034,0,3e-05,1e-05,-0.00021,-7e-05,0.00012,0.00038,7,11
35543,0.00034,0,3e-05,1e-05,-0.00021,-7e-05,0.00012,0.00038,7,11
35544,0.00034,0,3e-05,1e-05,-0.00021,-7e-05,0.00012,0.00038,7,11
35545,0.00034,0,3e-05,1e-05,-0.00021,-7e-05,0.00012,0.00038,7,11
35546,0.00034,0,3e-05,1e-05,-0.00021,-7e-05,0.00012,0.00038,7,11
35547,0.00034,0,3e-05,1e-05,-0.00021,-7e-05,0.00012,0.00038,7,11
35548,0.00034,0,3e-05,1e-05,-0.00021,-7e-05,0.00012,0.00038,7,11
35549,0.00034,0,3e-05,1e-05,-0.00021,-7e-05,0.00012,0.00038,7,11
35550,0.00034,0,3e-05,1e-05,-0.00021,-7e-05,0.00012,0.00038,7,11
35551,0.00034,0,3e-05,1e-05,-0.00021,-7e-05,0.00012,0.00038,7,11
35552,0.00034,0,3e-05,1e-05,-0.00021,-7e-05,0.00012,0.00038,7,11
35553,0.00034,0,3e-05,1e-05,-0.00021,-7e-05,0.00012,0.00038,7,11
35554,0.00034,0,3e-05,1e-05,-0.00021,-7e-05,0.00012,0.00038,7,11
35555,0.00034,0,3e-05,1e-05,-0.00021,-7e-05,0.00012,0.00038,7,11
35556,0.00034,0,3e-05,1e-05,-0.00021,-7e-05,0.00012,0.00038,7,11
35557,0.00034,0,3e-05,1e-05,-0.00021,-7e-05,0.00012,0.00038,7,11
35558,-1e-05,-4e-05,-2e-05,-1e-05,-1e-05,0.00029,0.00014,-0.00028,7,11
35559,-9e-05,0,-1e-05,-3e-05,0.00057,0.0002,5e-05,-0.00032,7,11
35560,-9e-05,0,-1e-05,-3e-05,0.00057,0.0002,5e-05,-0.00032,7,11
35561,-9e-05,0,-1e-05,-3e-05,0.00057,0.0002,5e-05,-0.00032,7,11
35562,-9e-05,0,-1e-05,-3e-05,0.00057,0.0002,5e-05,-0.00032,7,11
35563,-9e-05,0,-1e-05,-3e-05,0.00057,0.0002,5e-05,-0.00032,7,11
35564,-9e-05,0,-1e-05,-3e-05,0.00057,0.0002,5e-05,-0.00032,7,11
35565,-9e-05,0,-1e-05,-3e-05,0.00057,0.0002,5e-05,-0.00032,7,11
35566,-9e-05,0,-1e-05,-3e-05,0.00057,0.0002,5e-05,-0.00032,7,11
35567,-9e-05,0,-1e-05,-3e-05,0.00057,0.0002,5e-05,-0.00032,7,11
35568,-9e-05,0,-1e-05,-3e-05,0.00057,0.0002,5e-05,-0.00032,7,11
35569,-9e-05,0,-1e-05,-3e-05,0.00057,0.0002,5e-05,-0.00032,7,11
35570,-9e-05,0,-1e-05,-3e-05,0.00057,0.0002,5e-05,-0.00032,7,11
35571,-9e-05,0,-1e-05,-3e-05,0.00057,0.0002,5e-05,-0.00032,7,11
35572,-0.00018,0,3e-05,0,-0.00027,-0.00019,-8e-05,-0.00023,7,11
35573,-0.00018,0,3e-05,0,-0.00027,-0.00019,-8e-05,-0.00023,7,11
35574,-0.00018,0,3e-05,0,-0.00027,-0.00019,-8e-05,-0.00023,7,11
35575,-0.00018,0,3e-05,0,-0.00027,-0.00019,-8e-05,-0.00023,7,11
35576,-0.00018,0,3e-05,0,-0.00027,-0.00019,-8e-05,-0.00023,7,11
35577,-0.00018,0,3e-05,0,-0.00027,-0.00019,-8e-05,-0.00023,7,11
35578,-0.00018,0,3e-05,0,-0.00027,-0.00019,-8e-05,-0.00023,7,11
35579,-0.00044,-0.0001,-4e-05,-6e-05,-0.00031,0.0006,-5e-05,-0.00016,7,11
35580,-0.00044,-0.0001,-4e-05,-6e-05,-0.00031,0.0006,-5e-05,-0.00016,7,11
35581,-0.00044,-0.0001,-4e-05,-6e-05,-0.00031,0.0006,-5e-05,-0.00016,7,11
35582,-0.00044,-0.0001,-4e-05,-6e-05,-0.00031,0.0006,-5e-05,-0.00016,7,11
35583,-0.00044,-0.0001,-4e-05,-6e-05,-0.00031,0.0006,-5e-05,-0.00016,7,11
35584,-0.00044,-0.0001,-4e-05,-6e-05,-0.00031,0.0006,-5e-05,-0.00016,7,11
35585,-0.00044,-0.0001,-4e-05,-6e-05,-0.00031,0.0006,-5e-05,-0.00016,7,11
35586,-0.00044,-0.0001,-4e-05,-6e-05,-0.00031,0.0006,-5e-05,-0.00016,7,11
35588,-0.00044,-0.0001,-4e-05,-6e-05,-0.00031,0.0006,-5e-05,-0.00016,7,11
35589,-0.00044,-0.0001,-4e-05,-6e-05,-0.00031,0.0006,-5e-05,-0.00016,7,11
35590,-0.00044,-0.0001,-4e-05,-6e-05,-0.00031,0.0006,-5e-05,-0.00016,7,11
35591,-0.00044,-0.0001,-4e-05,-6e-05,-0.00031,0.0006,-5e-05,-0.00016,7,11
35592,-0.00044,-0.0001,-4e-05,-6e-05,-0.00031,0.0006,-5e-05,-0.00016,7,11
35593,-0.00044,-0.0001,-4e-05,-6e-05,-0.00031,0.0006,-5e-05,-0.00016,7,11
35594,-0.00044,-0.0001,-4e-05,-6e-05,-0.00031,0.0006,-5e-05,-0.00016,7,11
35595,-0.00044,-0.0001,-4e-05,-6e-05,-0.00031,0.0006,-5e-05,-0.00016,7,11
35596,-3e-05,1e-05,0,-1e-05,-0.00013,0.00012,0.00011,0.00016,7,11
35597,-0.00011,-6e-05,-6e-05,0,0.00058,7e-05,2e-05,-0.00015,7,11
35598,-0.00011,-6e-05,-6e-05,0,0.00058,7e-05,2e-05,-0.00015,7,11
35599,-0.00011,-6e-05,-6e-05,0,0.00058,7e-05,2e-05,-0.00015,7,11
35600,-0.00011,-6e-05,-6e-05,0,0.00058,7e-05,2e-05,-0.00015,7,11
35601,-0.00011,-6e-05,-6e-05,0,0.00058,7e-05,2e-05,-0.00015,7,11
35602,-0.00011,-6e-05,-6e-05,0,0.00058,7e-05,2e-05,-0.00015,7,11
35603,-0.00011,-6e-05,-6e-05,0,0.00058,7e-05,2e-05,-0.00015,7,11
35604,-0.00011,-6e-05,-6e-05,0,0.00058,7e-05,2e-05,-0.00015,7,11
35605,-0.00011,-6e-05,-6e-05,0,0.00058,7e-05,2e-05,-0.00015,7,11
35606,-0.00011,-6e-05,-6e-05,0,0.00058,7e-05,2e-05,-0.00015,7,11
35607,-0.00011,-6e-05,-6e-05,0,0.00058,7e-05,2e-05,-0.00015,7,11
35608,-0.00011,-6e-05,-6e-05,0,0.00058,7e-05,2e-05,-0.00015,7,11
35609,-0.00011,-6e-05,-6e-05,0,0.00058,7e-05,2e-05,-0.00015,7,11
35610,-0.00011,-6e-05,-6e-05,0,0.00058,7e-05,2e-05,-0.00015,7,11
35611,-0.00011,-6e-05,-6e-05,0,0.00058,7e-05,2e-05,-0.00015,7,11
35612,-0.00011,-6e-05,-6e-05,0,0.00058,7e-05,2e-05,-0.00015,7,11
35613,-0.00011,-6e-05,-6e-05,0,0.00058,7e-05,2e-05,-0.00015,7,11
35614,-0.00011,-6e-05,-6e-05,0,0.00058,7e-05,2e-05,-0.00015,7,11
35615,-0.00011,-6e-05,-6e-05,0,0.00058,7e-05,2e-05,-0.00015,7,11
35616,-0.00011,-6e-05,-6e-05,0,0.00058,7e-05,2e-05,-0.00015,7,11
35617,-0.00011,-6e-05,-6e-05,0,0.00058,7e-05,2e-05,-0.00015,7,11
35618,0.00041,3e-05,-3e-05,-0.0001,-0.00026,-0.00076,-0.00019,-0.00055,7,11
35619,0.00041,3e-05,-3e-05,-0.0001,-0.00026,-0.00076,-0.00019,-0.00055,7,11
35620,9e-05,3e-05,0,7e-05,0.0001,-0.00029,-6e-05,0.00017,7,11
35621,9e-05,3e-05,0,7e-05,0.0001,-0.00029,-6e-05,0.00017,7,11
35622,9e-05,3e-05,0,7e-05,0.0001,-0.00029,-6e-05,0.00017,7,11
35623,9e-05,3e-05,0,7e-05,0.0001,-0.00029,-6e-05,0.00017,7,11
35624,9e-05,3e-05,0,7e-05,0.0001,-0.00029,-6e-05,0.00017,7,11
35625,9e-05,3e-05,0,7e-05,0.0001,-0.00029,-6e-05,0.00017,7,11
35626,9e-05,3e-05,0,7e-05,0.0001,-0.00029,-6e-05,0.00017,7,11
35627,9e-05,3e-05,0,7e-05,0.0001,-0.00029,-6e-05,0.00017,7,11
35628,9e-05,3e-05,0,7e-05,0.0001,-0.00029,-6e-05,0.00017,7,11
35629,9e-05,3e-05,0,7e-05,0.0001,-0.00029,-6e-05,0.00017,7,11
35630,9e-05,3e-05,0,7e-05,0.0001,-0.00029,-6e-05,0.00017,7,11
35631,9e-05,3e-05,0,7e-05,0.0001,-0.00029,-6e-05,0.00017,7,11
35632,0.00016,4e-05,-2e-05,-9e-05,-0.00025,0.00072,4e-05,-0.00012,7,11
35633,0.00016,4e-05,-2e-05,-9e-05,-0.00025,0.00072,4e-05,-0.00012,7,11
35634,0.00016,4e-05,-2e-05,-9e-05,-0.00025,0.00072,4e-05,-0.00012,7,11
35635,0.00016,4e-05,-2e-05,-9e-05,-0.00025,0.00072,4e-05,-0.00012,7,11
35636,0.00016,4e-05,-2e-05,-9e-05,-0.00025,0.00072,4e-05,-0.00012,7,11
35638,0.00016,4e-05,-2e-05,-9e-05,-0.00025,0.00072,4e-05,-0.00012,7,11
35639,-5e-05,1e-05,0,-4e-05,0.00025,0.00014,-7e-05,2e-05,7,11
35640,-5e-05,1e-05,0,-4e-05,0.00025,0.00014,-7e-05,2e-05,7,11
35641,-5e-05,1e-05,0,-4e-05,0.00025,0.00014,-7e-05,2e-05,7,11
35642,-5e-05,1e-05,0,-4e-05,0.00025,0.00014,-7e-05,2e-05,7,11
35643,-5e-05,1e-05,0,-4e-05,0.00025,0.00014,-7e-05,2e-05,7,11
35644,-5e-05,1e-05,0,-4e-05,0.00025,0.00014,-7e-05,2e-05,7,11
35645,-5e-05,1e-05,0,-4e-05,0.00025,0.00014,-7e-05,2e-05,7,11
35646,-5e-05,1e-05,0,-4e-05,0.00025,0.00014,-7e-05,2e-05,7,11
35647,-5e-05,1e-05,0,-4e-05,0.00025,0.00014,-7e-05,2e-05,7,11
35648,-5e-05,1e-05,0,-4e-05,0.00025,0.00014,-7e-05,2e-05,7,11
35649,-5e-05,1e-05,0,-4e-05,0.00025,0.00014,-7e-05,2e-05,7,11
35650,-5e-05,1e-05,0,-4e-05,0.00025,0.00014,-7e-05,2e-05,7,11
35651,-5e-05,1e-05,0,-4e-05,0.00025,0.00014,-7e-05,2e-05,7,11
35652,-5e-05,1e-05,0,-4e-05,0.00025,0.00014,-7e-05,2e-05,7,11
35653,-5e-05,1e-05,0,-4e-05,0.00025,0.00014,-7e-05,2e-05,7,11
35654,-5e-05,1e-05,0,-4e-05,0.00025,0.00014,-7e-05,2e-05,7,11
35655,-0.00016,-2e-05,1e-05,-2e-05,-0.00018,-0.00031,-1e-05,0.00029,7,11
35656,-0.00016,-2e-05,1e-05,-2e-05,-0.00018,-0.00031,-1e-05,0.00029,7,11
35657,0.00041,-1e-05,-6e-05,-0.00012,-0.00057,-1e-05,0.0001,-2e-05,7,11
35658,0.00041,-1e-05,-6e-05,-0.00012,-0.00057,-1e-05,0.0001,-2e-05,7,11
35659,0.00041,-1e-05,-6e-05,-0.00012,-0.00057,-1e-05,0.0001,-2e-05,7,11
35660,0.00041,-1e-05,-6e-05,-0.00012,-0.00057,-1e-05,0.0001,-2e-05,7,11
35661,0.00041,-1e-05,-6e-05,-0.00012,-0.00057,-1e-05,0.0001,-2e-05,7,11
35662,0.00041,-1e-05,-6e-05,-0.00012,-0.00057,-1e-05,0.0001,-2e-05,7,11
35663,0.00041,-1e-05,-6e-05,-0.00012,-0.00057,-1e-05,0.0001,-2e-05,7,11
35664,0.00041,-1e-05,-6e-05,-0.00012,-0.00057,-1e-05,0.0001,-2e-05,7,11
35665,0.00041,-1e-05,-6e-05,-0.00012,-0.00057,-1e-05,0.0001,-2e-05,7,11
35666,0.00041,-1e-05,-6e-05,-0.00012,-0.00057,-1e-05,0.0001,-2e-05,7,11
35667,0.00041,-1e-05,-6e-05,-0.00012,-0.00057,-1e-05,0.0001,-2e-05,7,11
35668,0.00041,-1e-05,-6e-05,-0.00012,-0.00057,-1e-05,0.0001,-2e-05,7,11
35669,0.00041,-1e-05,-6e-05,-0.00012,-0.00057,-1e-05,0.0001,-2e-05,7,11
35670,0.00041,-1e-05,-6e-05,-0.00012,-0.00057,-1e-05,0.0001,-2e-05,7,11
35671,0.00041,-1e-05,-6e-05,-0.00012,-0.00057,-1e-05,0.0001,-2e-05,7,11
35672,0.00041,-1e-05,-6e-05,-0.00012,-0.00057,-1e-05,0.0001,-2e-05,7,11
35673,0.00041,-1e-05,-6e-05,-0.00012,-0.00057,-1e-05,0.0001,-2e-05,7,11
35674,0.00041,-1e-05,-6e-05,-0.00012,-0.00057,-1e-05,0.0001,-2e-05,7,11
35675,0.00041,-1e-05,-6e-05,-0.00012,-0.00057,-1e-05,0.0001,-2e-05,7,11
35676,0.00041,-1e-05,-6e-05,-0.00012,-0.00057,-1e-05,0.0001,-2e-05,7,11
35677,0.00041,-1e-05,-6e-05,-0.00012,-0.00057,-1e-05,0.0001,-2e-05,7,11
35678,-0.00036,-2e-05,0,-1e-05,0.00057,0.00016,-6e-05,-0.00049,7,11
35679,0.00028,4e-05,5e-05,0.00013,8e-05,0.00026,-9e-05,-3e-05,7,11
35681,0.00028,4e-05,5e-05,0.00013,8e-05,0.00026,-9e-05,-3e-05,7,11
35682,0.00028,4e-05,5e-05,0.00013,8e-05,0.00026,-9e-05,-3e-05,7,11
35683,0.00028,4e-05,5e-05,0.00013,8e-05,0.00026,-9e-05,-3e-05,7,11
35684,0.00028,4e-05,5e-05,0.00013,8e-05,0.00026,-9e-05,-3e-05,7,11
35685,0.00028,4e-05,5e-05,0.00013,8e-05,0.00026,-9e-05,-3e-05,7,11
35686,0.00028,4e-05,5e-05,0.00013,8e-05,0.00026,-9e-05,-3e-05,7,11
35688,0.00028,4e-05,5e-05,0.00013,8e-05,0.00026,-9e-05,-3e-05,7,11
35689,0.00028,4e-05,5e-05,0.00013,8e-05,0.00026,-9e-05,-3e-05,7,11
35690,0.00028,4e-05,5e-05,0.00013,8e-05,0.00026,-9e-05,-3e-05,7,11
35691,0.00028,4e-05,5e-05,0.00013,8e-05,0.00026,-9e-05,-3e-05,7,11
35692,-2e-05,-3e-05,-6e-05,-0.00018,-0.00036,-0.00056,-8e-05,-0.00017,7,11
35693,-2e-05,-3e-05,-6e-05,-0.00018,-0.00036,-0.00056,-8e-05,-0.00017,7,11
35694,-2e-05,-3e-05,-6e-05,-0.00018,-0.00036,-0.00056,-8e-05,-0.00017,7,11
35695,-2e-05,-3e-05,-6e-05,-0.00018,-0.00036,-0.00056,-8e-05,-0.00017,7,11
35696,-2e-05,-3e-05,-6e-05,-0.00018,-0.00036,-0.00056,-8e-05,-0.00017,7,11
35697,-2e-05,-3e-05,-6e-05,-0.00018,-0.00036,-0.00056,-8e-05,-0.00017,7,11
35698,-2e-05,-3e-05,-6e-05,-0.00018,-0.00036,-0.00056,-8e-05,-0.00017,7,11
35699,-0.00014,3e-05,2e-05,4e-05,0.00031,-0.00022,-5e-05,7e-05,7,11
35700,-0.00014,3e-05,2e-05,4e-05,0.00031,-0.00022,-5e-05,7e-05,7,11
35701,-0.00014,3e-05,2e-05,4e-05,0.00031,-0.00022,-5e-05,7e-05,7,11
35702,-0.00014,3e-05,2e-05,4e-05,0.00031,-0.00022,-5e-05,7e-05,7,11
35703,-0.00014,3e-05,2e-05,4e-05,0.00031,-0.00022,-5e-05,7e-05,7,11
35704,-0.00014,3e-05,2e-05,4e-05,0.00031,-0.00022,-5e-05,7e-05,7,11
35705,-0.00014,3e-05,2e-05,4e-05,0.00031,-0.00022,-5e-05,7e-05,7,11
35706,-0.00014,3e-05,2e-05,4e-05,0.00031,-0.00022,-5e-05,7e-05,7,11
35707,-0.00014,3e-05,2e-05,4e-05,0.00031,-0.00022,-5e-05,7e-05,7,11
35708,-0.00014,3e-05,2e-05,4e-05,0.00031,-0.00022,-5e-05,7e-05,7,11
35709,-0.00014,3e-05,2e-05,4e-05,0.00031,-0.00022,-5e-05,7e-05,7,11
35710,-0.00014,3e-05,2e-05,4e-05,0.00031,-0.00022,-5e-05,7e-05,7,11
35711,-0.00014,3e-05,2e-05,4e-05,0.00031,-0.00022,-5e-05,7e-05,7,11
35712,-0.00014,3e-05,2e-05,4e-05,0.00031,-0.00022,-5e-05,7e-05,7,11
35713,-0.00014,3e-05,2e-05,4e-05,0.00031,-0.00022,-5e-05,7e-05,7,11
35714,-0.00014,3e-05,2e-05,4e-05,0.00031,-0.00022,-5e-05,7e-05,7,11
35715,0.00024,-3e-05,-1e-05,1e-05,9e-05,0.00039,8e-05,-3e-05,7,11
35716,0.00024,-3e-05,-1e-05,1e-05,9e-05,0.00039,8e-05,-3e-05,7,11
35717,-0.00017,-0.0001,-9e-05,-6e-05,0.00023,-0.00091,-0.00018,7e-05,7,11
35718,-0.00017,-0.0001,-9e-05,-6e-05,0.00023,-0.00091,-0.00018,7e-05,7,11
35719,-0.00017,-0.0001,-9e-05,-6e-05,0.00023,-0.00091,-0.00018,7e-05,7,11
35720,-0.00017,-0.0001,-9e-05,-6e-05,0.00023,-0.00091,-0.00018,7e-05,7,11
35721,-0.00017,-0.0001,-9e-05,-6e-05,0.00023,-0.00091,-0.00018,7e-05,7,11
35722,-0.00017,-0.0001,-9e-05,-6e-05,0.00023,-0.00091,-0.00018,7e-05,7,11
35723,-0.00017,-0.0001,-9e-05,-6e-05,0.00023,-0.00091,-0.00018,7e-05,7,11
35724,-0.00017,-0.0001,-9e-05,-6e-05,0.00023,-0.00091,-0.00018,7e-05,7,11
35725,-0.00017,-0.0001,-9e-05,-6e-05,0.00023,-0.00091,-0.00018,7e-05,7,11
35726,-0.00017,-0.0001,-9e-05,-6e-05,0.00023,-0.00091,-0.00018,7e-05,7,11
35727,-0.00017,-0.0001,-9e-05,-6e-05,0.00023,-0.00091,-0.00018,7e-05,7,11
35728,-0.00017,-0.0001,-9e-05,-6e-05,0.00023,-0.00091,-0.00018,7e-05,7,11
35729,-0.00017,-0.0001,-9e-05,-6e-05,0.00023,-0.00091,-0.00018,7e-05,7,11
35730,-0.00017,-0.0001,-9e-05,-6e-05,0.00023,-0.00091,-0.00018,7e-05,7,11
35731,-0.00017,-0.0001,-9e-05,-6e-05,0.00023,-0.00091,-0.00018,7e-05,7,11
35732,-0.00017,-0.0001,-9e-05,-6e-05,0.00023,-0.00091,-0.00018,7e-05,7,11
35733,-0.00017,-0.0001,-9e-05,-6e-05,0.00023,-0.00091,-0.00018,7e-05,7,11
35734,-0.00017,-0.0001,-9e-05,-6e-05,0.00023,-0.00091,-0.00018,7e-05,7,11
35735,-0.00017,-0.0001,-9e-05,-6e-05,0.00023,-0.00091,-0.00018,7e-05,7,11
35736,-0.00017,-0.0001,-9e-05,-6e-05,0.00023,-0.00091,-0.00018,7e-05,7,11
35739,-0.00077,-4e-05,1e-05,-0.0001,-0.00073,-0.00032,-0.0001,5e-05,7,11
35740,-0.00077,-4e-05,1e-05,-0.0001,-0.00073,-0.00032,-0.0001,5e-05,7,11
35741,-0.00077,-4e-05,1e-05,-0.0001,-0.00073,-0.00032,-0.0001,5e-05,7,11
35742,-0.00077,-4e-05,1e-05,-0.0001,-0.00073,-0.00032,-0.0001,5e-05,7,11
35743,-0.00077,-4e-05,1e-05,-0.0001,-0.00073,-0.00032,-0.0001,5e-05,7,11
35744,-0.00077,-4e-05,1e-05,-0.0001,-0.00073,-0.00032,-0.0001,5e-05,7,11
35745,-0.00077,-4e-05,1e-05,-0.0001,-0.00073,-0.00032,-0.0001,5e-05,7,11
35746,-0.00077,-4e-05,1e-05,-0.0001,-0.00073,-0.00032,-0.0001,5e-05,7,11
35747,-0.00077,-4e-05,1e-05,-0.0001,-0.00073,-0.00032,-0.0001,5e-05,7,11
35748,-0.00077,-4e-05,1e-05,-0.0001,-0.00073,-0.00032,-0.0001,5e-05,7,11
35749,-0.00077,-4e-05,1e-05,-0.0001,-0.00073,-0.00032,-0.0001,5e-05,7,11
35750,-0.00077,-4e-05,1e-05,-0.0001,-0.00073,-0.00032,-0.0001,5e-05,7,11
35751,0.0001,-1e-05,-1e-05,7e-05,8e-05,0.00035,5e-05,0.00029,7,11
35752,0.0001,-1e-05,-1e-05,7e-05,8e-05,0.00035,5e-05,0.00029,7,11
35753,0.0001,-1e-05,-1e-05,7e-05,8e-05,0.00035,5e-05,0.00029,7,11
35754,0.0001,-1e-05,-1e-05,7e-05,8e-05,0.00035,5e-05,0.00029,7,11
35755,0.0001,-1e-05,-1e-05,7e-05,8e-05,0.00035,5e-05,0.00029,7,11
35756,0.0001,-1e-05,-1e-05,7e-05,8e-05,0.00035,5e-05,0.00029,7,11
35757,0.0001,-1e-05,-1e-05,7e-05,8e-05,0.00035,5e-05,0.00029,7,11
35758,0.0001,-1e-05,-1e-05,7e-05,8e-05,0.00035,5e-05,0.00029,7,11
35759,0.0001,-1e-05,-1e-05,7e-05,8e-05,0.00035,5e-05,0.00029,7,11
35760,-5e-05,-1e-05,-4e-05,-7e-05,-0.00039,-2e-05,6e-05,-0.00013,7,11
35761,-5e-05,-1e-05,-4e-05,-7e-05,-0.00039,-2e-05,6e-05,-0.00013,7,11
35762,-5e-05,-1e-05,-4e-05,-7e-05,-0.00039,-2e-05,6e-05,-0.00013,7,11
35763,-5e-05,-1e-05,-4e-05,-7e-05,-0.00039,-2e-05,6e-05,-0.00013,7,11
35764,-5e-05,-1e-05,-4e-05,-7e-05,-0.00039,-2e-05,6e-05,-0.00013,7,11
35765,-5e-05,-1e-05,-4e-05,-7e-05,-0.00039,-2e-05,6e-05,-0.00013,7,11
35766,-5e-05,-1e-05,-4e-05,-7e-05,-0.00039,-2e-05,6e-05,-0.00013,7,11
35767,-5e-05,-1e-05,-4e-05,-7e-05,-0.00039,-2e-05,6e-05,-0.00013,7,11
35768,-5e-05,-1e-05,-4e-05,-7e-05,-0.00039,-2e-05,6e-05,-0.00013,7,11
35769,-5e-05,-1e-05,-4e-05,-7e-05,-0.00039,-2e-05,6e-05,-0.00013,7,11
35770,-5e-05,-1e-05,-4e-05,-7e-05,-0.00039,-2e-05,6e-05,-0.00013,7,11
35771,-5e-05,-1e-05,-4e-05,-7e-05,-0.00039,-2e-05,6e-05,-0.00013,7,11
35772,-5e-05,-1e-05,-4e-05,-7e-05,-0.00039,-2e-05,6e-05,-0.00013,7,11
35773,-5e-05,-1e-05,-4e-05,-7e-05,-0.00039,-2e-05,6e-05,-0.00013,7,11
35774,-5e-05,-1e-05,-4e-05,-7e-05,-0.00039,-2e-05,6e-05,-0.00013,7,11
35775,-0.0001,3e-05,4e-05,0.00011,0.00035,0.00022,4e-05,-7e-05,7,11
35776,-0.0001,3e-05,4e-05,0.00011,0.00035,0.00022,4e-05,-7e-05,7,11
35777,0.00014,3e-05,1e-05,-2e-05,2e-05,0.00046,6e-05,7e-05,7,11
35778,0.00014,3e-05,1e-05,-2e-05,2e-05,0.00046,6e-05,7e-05,7,11
35779,0.00014,3e-05,1e-05,-2e-05,2e-05,0.00046,6e-05,7e-05,7,11
35780,0.00014,3e-05,1e-05,-2e-05,2e-05,0.00046,6e-05,7e-05,7,11
35781,0.00014,3e-05,1e-05,-2e-05,2e-05,0.00046,6e-05,7e-05,7,11
35782,0.00014,3e-05,1e-05,-2e-05,2e-05,0.00046,6e-05,7e-05,7,11
35783,0.00014,3e-05,1e-05,-2e-05,2e-05,0.00046,6e-05,7e-05,7,11
35784,0.00014,3e-05,1e-05,-2e-05,2e-05,0.00046,6e-05,7e-05,7,11
35785,0.00014,3e-05,1e-05,-2e-05,2e-05,0.00046,6e-05,7e-05,7,11
35786,0.00014,3e-05,1e-05,-2e-05,2e-05,0.00046,6e-05,7e-05,7,11
35788,0.00014,3e-05,1e-05,-2e-05,2e-05,0.00046,6e-05,7e-05,7,11
35789,0.00014,3e-05,1e-05,-2e-05,2e-05,0.00046,6e-05,7e-05,7,11
35790,0.00014,3e-05,1e-05,-2e-05,2e-05,0.00046,6e-05,7e-05,7,11
35791,0.00014,3e-05,1e-05,-2e-05,2e-05,0.00046,6e-05,7e-05,7,11
35792,0.00014,3e-05,1e-05,-2e-05,2e-05,0.00046,6e-05,7e-05,7,11
35793,0.00014,3e-05,1e-05,-2e-05,2e-05,0.00046,6e-05,7e-05,7,11
35794,0.00014,3e-05,1e-05,-2e-05,2e-05,0.00046,6e-05,7e-05,7,11
35795,0.00014,3e-05,1e-05,-2e-05,2e-05,0.00046,6e-05,7e-05,7,11
35796,0.00014,3e-05,1e-05,-2e-05,2e-05,0.00046,6e-05,7e-05,7,11
35797,0.00014,3e-05,1e-05,-2e-05,2e-05,0.00046,6e-05,7e-05,7,11
35798,-1e-05,-8e-05,-4e-05,-0.0001,-0.00051,0.00022,-7e-05,6e-05,7,11
35800,-0.00047,3e-05,2e-05,-9e-05,0.00061,0.00034,4e-05,0.00013,7,11
35801,-0.00047,3e-05,2e-05,-9e-05,0.00061,0.00034,4e-05,0.00013,7,11
35802,-0.00047,3e-05,2e-05,-9e-05,0.00061,0.00034,4e-05,0.00013,7,11
35803,-0.00047,3e-05,2e-05,-9e-05,0.00061,0.00034,4e-05,0.00013,7,11
35804,-0.00047,3e-05,2e-05,-9e-05,0.00061,0.00034,4e-05,0.00013,7,11
35805,-0.00047,3e-05,2e-05,-9e-05,0.00061,0.00034,4e-05,0.00013,7,11
35806,-0.00047,3e-05,2e-05,-9e-05,0.00061,0.00034,4e-05,0.00013,7,11
35807,-0.00047,3e-05,2e-05,-9e-05,0.00061,0.00034,4e-05,0.00013,7,11
35808,-0.00047,3e-05,2e-05,-9e-05,0.00061,0.00034,4e-05,0.00013,7,11
35809,-0.00047,3e-05,2e-05,-9e-05,0.00061,0.00034,4e-05,0.00013,7,11
35810,-0.00047,3e-05,2e-05,-9e-05,0.00061,0.00034,4e-05,0.00013,7,11
35811,9e-05,-2e-05,-5e-05,-3e-05,0.00023,2e-05,-0.0002,-0.00028,7,11
35812,9e-05,-2e-05,-5e-05,-3e-05,0.00023,2e-05,-0.0002,-0.00028,7,11
35813,9e-05,-2e-05,-5e-05,-3e-05,0.00023,2e-05,-0.0002,-0.00028,7,11
35814,9e-05,-2e-05,-5e-05,-3e-05,0.00023,2e-05,-0.0002,-0.00028,7,11
35815,9e-05,-2e-05,-5e-05,-3e-05,0.00023,2e-05,-0.0002,-0.00028,7,11
35816,9e-05,-2e-05,-5e-05,-3e-05,0.00023,2e-05,-0.0002,-0.00028,7,11
35817,9e-05,-2e-05,-5e-05,-3e-05,0.00023,2e-05,-0.0002,-0.00028,7,11
35818,9e-05,-2e-05,-5e-05,-3e-05,0.00023,2e-05,-0.0002,-0.00028,7,11
35819,9e-05,-2e-05,-5e-05,-3e-05,0.00023,2e-05,-0.0002,-0.00028,7,11
35820,9e-05,-2e-05,-5e-05,-3e-05,0.00023,2e-05,-0.0002,-0.00028,7,11
35821,9e-05,-2e-05,-5e-05,-3e-05,0.00023,2e-05,-0.0002,-0.00028,7,11
35822,9e-05,-2e-05,-5e-05,-3e-05,0.00023,2e-05,-0.0002,-0.00028,7,11
35823,9e-05,-2e-05,-5e-05,-3e-05,0.00023,2e-05,-0.0002,-0.00028,7,11
35824,9e-05,-2e-05,-5e-05,-3e-05,0.00023,2e-05,-0.0002,-0.00028,7,11
35825,9e-05,-2e-05,-5e-05,-3e-05,0.00023,2e-05,-0.0002,-0.00028,7,11
35826,9e-05,-2e-05,-5e-05,-3e-05,0.00023,2e-05,-0.0002,-0.00028,7,11
35827,9e-05,-2e-05,-5e-05,-3e-05,0.00023,2e-05,-0.0002,-0.00028,7,11
35828,0.00035,5e-05,2e-05,1e-05,-0.00042,7e-05,-2e-05,-0.00037,7,11
35829,0.00035,5e-05,2e-05,1e-05,-0.00042,7e-05,-2e-05,-0.00037,7,11
35830,0.00035,5e-05,2e-05,1e-05,-0.00042,7e-05,-2e-05,-0.00037,7,11
35831,0.00035,5e-05,2e-05,1e-05,-0.00042,7e-05,-2e-05,-0.00037,7,11
35832,0.00035,5e-05,2e-05,1e-05,-0.00042,7e-05,-2e-05,-0.00037,7,11
35833,0.00035,5e-05,2e-05,1e-05,-0.00042,7e-05,-2e-05,-0.00037,7,11
35834,0.00035,5e-05,2e-05,1e-05,-0.00042,7e-05,-2e-05,-0.00037,7,11
35835,4e-05,-6e-05,-2e-05,4e-05,0.00017,-0.00023,-5e-05,-0.00017,7,11
35836,4e-05,-6e-05,-2e-05,4e-05,0.00017,-0.00023,-5e-05,-0.00017,7,11
35838,0.00027,-1e-05,-2e-05,5e-05,0.00029,0.00015,6e-05,0,7,11
35839,0.00027,-1e-05,-2e-05,5e-05,0.00029,0.00015,6e-05,0,7,11
35840,0.00027,-1e-05,-2e-05,5e-05,0.00029,0.00015,6e-05,0,7,11
35841,0.00027,-1e-05,-2e-05,5e-05,0.00029,0.00015,6e-05,0,7,11
35842,0.00027,-1e-05,-2e-05,5e-05,0.00029,0.00015,6e-05,0,7,11
35843,0.00027,-1e-05,-2e-05,5e-05,0.00029,0.00015,6e-05,0,7,11
35844,0.00027,-1e-05,-2e-05,5e-05,0.00029,0.00015,6e-05,0,7,11
35845,0.00027,-1e-05,-2e-05,5e-05,0.00029,0.00015,6e-05,0,7,11
35846,0.00027,-1e-05,-2e-05,5e-05,0.00029,0.00015,6e-05,0,7,11
35847,0.00027,-1e-05,-2e-05,5e-05,0.00029,0.00015,6e-05,0,7,11
35848,0.00027,-1e-05,-2e-05,5e-05,0.00029,0.00015,6e-05,0,7,11
35849,0.00027,-1e-05,-2e-05,5e-05,0.00029,0.00015,6e-05,0,7,11
35850,0.00027,-1e-05,-2e-05,5e-05,0.00029,0.00015,6e-05,0,7,11
35851,0.00027,-1e-05,-2e-05,5e-05,0.00029,0.00015,6e-05,0,7,11
35852,0.00027,-1e-05,-2e-05,5e-05,0.00029,0.00015,6e-05,0,7,11
35853,0.00027,-1e-05,-2e-05,5e-05,0.00029,0.00015,6e-05,0,7,11
35854,0.00027,-1e-05,-2e-05,5e-05,0.00029,0.00015,6e-05,0,7,11
35855,0.00027,-1e-05,-2e-05,5e-05,0.00029,0.00015,6e-05,0,7,11
35856,0.00027,-1e-05,-2e-05,5e-05,0.00029,0.00015,6e-05,0,7,11
35857,0.00027,-1e-05,-2e-05,5e-05,0.00029,0.00015,6e-05,0,7,11
35858,0.00019,-3e-05,-7e-05,5e-05,0.00047,0.00051,0.00016,0.00024,7,11
35859,-0.00013,4e-05,5e-05,-0.00015,-0.00019,-0.00028,-0.00016,-0.00076,7,11
35860,-1e-05,-1e-05,4e-05,0.00015,0.00013,0.0005,8e-05,6e-05,7,11
35861,-1e-05,-1e-05,4e-05,0.00015,0.00013,0.0005,8e-05,6e-05,7,11
35862,-1e-05,-1e-05,4e-05,0.00015,0.00013,0.0005,8e-05,6e-05,7,11
35863,-1e-05,-1e-05,4e-05,0.00015,0.00013,0.0005,8e-05,6e-05,7,11
35864,-1e-05,-1e-05,4e-05,0.00015,0.00013,0.0005,8e-05,6e-05,7,11
35865,-1e-05,-1e-05,4e-05,0.00015,0.00013,0.0005,8e-05,6e-05,7,11
35866,-1e-05,-1e-05,4e-05,0.00015,0.00013,0.0005,8e-05,6e-05,7,11
35867,-1e-05,-1e-05,4e-05,0.00015,0.00013,0.0005,8e-05,6e-05,7,11
35868,-1e-05,-1e-05,4e-05,0.00015,0.00013,0.0005,8e-05,6e-05,7,11
35869,-1e-05,-1e-05,4e-05,0.00015,0.00013,0.0005,8e-05,6e-05,7,11
35870,-1e-05,-1e-05,4e-05,0.00015,0.00013,0.0005,8e-05,6e-05,7,11
35871,-0.00037,3e-05,-2e-05,-0.00016,-0.00041,9e-05,0.00014,0.00014,7,11
35872,-0.00037,3e-05,-2e-05,-0.00016,-0.00041,9e-05,0.00014,0.00014,7,11
35873,-0.00037,3e-05,-2e-05,-0.00016,-0.00041,9e-05,0.00014,0.00014,7,11
35874,-0.00037,3e-05,-2e-05,-0.00016,-0.00041,9e-05,0.00014,0.00014,7,11
35875,-0.00037,3e-05,-2e-05,-0.00016,-0.00041,9e-05,0.00014,0.00014,7,11
35876,-0.00037,3e-05,-2e-05,-0.00016,-0.00041,9e-05,0.00014,0.00014,7,11
35878,-0.00037,3e-05,-2e-05,-0.00016,-0.00041,9e-05,0.00014,0.00014,7,11
35879,-0.00037,3e-05,-2e-05,-0.00016,-0.00041,9e-05,0.00014,0.00014,7,11
35880,0.00034,3e-05,1e-05,5e-05,9e-05,-0.00014,-2e-05,-0.00071,7,11
35881,0.00034,3e-05,1e-05,5e-05,9e-05,-0.00014,-2e-05,-0.00071,7,11
35882,0.00034,3e-05,1e-05,5e-05,9e-05,-0.00014,-2e-05,-0.00071,7,11
35883,0.00034,3e-05,1e-05,5e-05,9e-05,-0.00014,-2e-05,-0.00071,7,11
35884,0.00034,3e-05,1e-05,5e-05,9e-05,-0.00014,-2e-05,-0.00071,7,11
35885,0.00034,3e-05,1e-05,5e-05,9e-05,-0.00014,-2e-05,-0.00071,7,11
35886,0.00034,3e-05,1e-05,5e-05,9e-05,-0.00014,-2e-05,-0.00071,7,11
35888,0.00034,3e-05,1e-05,5e-05,9e-05,-0.00014,-2e-05,-0.00071,7,11
35889,0.00034,3e-05,1e-05,5e-05,9e-05,-0.00014,-2e-05,-0.00071,7,11
35890,0.00034,3e-05,1e-05,5e-05,9e-05,-0.00014,-2e-05,-0.00071,7,11
35891,0.00034,3e-05,1e-05,5e-05,9e-05,-0.00014,-2e-05,-0.00071,7,11
35892,0.00034,3e-05,1e-05,5e-05,9e-05,-0.00014,-2e-05,-0.00071,7,11
35893,0.00034,3e-05,1e-05,5e-05,9e-05,-0.00014,-2e-05,-0.00071,7,11
35894,0.00034,3e-05,1e-05,5e-05,9e-05,-0.00014,-2e-05,-0.00071,7,11
35895,0.00035,-1e-05,5e-05,0.00015,0.00068,-0.00035,-3e-05,-0.00015,7,11
35896,0.00035,-1e-05,5e-05,0.00015,0.00068,-0.00035,-3e-05,-0.00015,7,11
35897,-3e-05,-2e-05,-2e-05,-5e-05,7e-05,-0.00017,-1e-05,-0.00064,7,11
35898,-3e-05,-2e-05,-2e-05,-5e-05,7e-05,-0.00017,-1e-05,-0.00064,7,11
35899,-3e-05,-2e-05,-2e-05,-5e-05,7e-05,-0.00017,-1e-05,-0.00064,7,11
35900,-3e-05,-2e-05,-2e-05,-5e-05,7e-05,-0.00017,-1e-05,-0.00064,7,11
35901,-3e-05,-2e-05,-2e-05,-5e-05,7e-05,-0.00017,-1e-05,-0.00064,7,11
35902,-3e-05,-2e-05,-2e-05,-5e-05,7e-05,-0.00017,-1e-05,-0.00064,7,11
35903,-3e-05,-2e-05,-2e-05,-5e-05,7e-05,-0.00017,-1e-05,-0.00064,7,11
35904,-3e-05,-2e-05,-2e-05,-5e-05,7e-05,-0.00017,-1e-05,-0.00064,7,11
35905,-3e-05,-2e-05,-2e-05,-5e-05,7e-05,-0.00017,-1e-05,-0.00064,7,11
35906,-3e-05,-2e-05,-2e-05,-5e-05,7e-05,-0.00017,-1e-05,-0.00064,7,11
35907,-3e-05,-2e-05,-2e-05,-5e-05,7e-05,-0.00017,-1e-05,-0.00064,7,11
35908,-3e-05,-2e-05,-2e-05,-5e-05,7e-05,-0.00017,-1e-05,-0.00064,7,11
35909,-3e-05,-2e-05,-2e-05,-5e-05,7e-05,-0.00017,-1e-05,-0.00064,7,11
35910,-3e-05,-2e-05,-2e-05,-5e-05,7e-05,-0.00017,-1e-05,-0.00064,7,11
35911,-3e-05,-2e-05,-2e-05,-5e-05,7e-05,-0.00017,-1e-05,-0.00064,7,11
35912,-3e-05,-2e-05,-2e-05,-5e-05,7e-05,-0.00017,-1e-05,-0.00064,7,11
35913,-3e-05,-2e-05,-2e-05,-5e-05,7e-05,-0.00017,-1e-05,-0.00064,7,11
35914,-3e-05,-2e-05,-2e-05,-5e-05,7e-05,-0.00017,-1e-05,-0.00064,7,11
35915,-3e-05,-2e-05,-2e-05,-5e-05,7e-05,-0.00017,-1e-05,-0.00064,7,11
35916,-3e-05,-2e-05,-2e-05,-5e-05,7e-05,-0.00017,-1e-05,-0.00064,7,11
35917,-3e-05,-2e-05,-2e-05,-5e-05,7e-05,-0.00017,-1e-05,-0.00064,7,11
35918,1e-05,-2e-05,0,3e-05,0.00014,-0.00041,-8e-05,7e-05,7,11
35919,0.00017,-7e-05,-4e-05,2e-05,-0.00037,-0.00056,-1e-05,0.00022,7,11
35920,0.00017,-7e-05,-4e-05,2e-05,-0.00037,-0.00056,-1e-05,0.00022,7,11
35921,0.00017,-7e-05,-4e-05,2e-05,-0.00037,-0.00056,-1e-05,0.00022,7,11
35922,0.00017,-7e-05,-4e-05,2e-05,-0.00037,-0.00056,-1e-05,0.00022,7,11
35923,0.00017,-7e-05,-4e-05,2e-05,-0.00037,-0.00056,-1e-05,0.00022,7,11
35924,0.00017,-7e-05,-4e-05,2e-05,-0.00037,-0.00056,-1e-05,0.00022,7,11
35925,0.00017,-7e-05,-4e-05,2e-05,-0.00037,-0.00056,-1e-05,0.00022,7,11
35926,0.00017,-7e-05,-4e-05,2e-05,-0.00037,-0.00056,-1e-05,0.00022,7,11
35927,0.00017,-7e-05,-4e-05,2e-05,-0.00037,-0.00056,-1e-05,0.00022,7,11
35928,0.00017,-7e-05,-4e-05,2e-05,-0.00037,-0.00056,-1e-05,0.00022,7,11
35929,0.00017,-7e-05,-4e-05,2e-05,-0.00037,-0.00056,-1e-05,0.00022,7,11
35930,0.00017,-7e-05,-4e-05,2e-05,-0.00037,-0.00056,-1e-05,0.00022,7,11
35931,5e-05,0,-1e-05,-2e-05,-0.00023,0.00018,-8e-05,9e-05,7,11
35932,5e-05,0,-1e-05,-2e-05,-0.00023,0.00018,-8e-05,9e-05,7,11
35933,5e-05,0,-1e-05,-2e-05,-0.00023,0.00018,-8e-05,9e-05,7,11
35934,5e-05,0,-1e-05,-2e-05,-0.00023,0.00018,-8e-05,9e-05,7,11
35935,5e-05,0,-1e-05,-2e-05,-0.00023,0.00018,-8e-05,9e-05,7,11
35936,5e-05,0,-1e-05,-2e-05,-0.00023,0.00018,-8e-05,9e-05,7,11
35938,5e-05,0,-1e-05,-2e-05,-0.00023,0.00018,-8e-05,9e-05,7,11
35939,5e-05,0,-1e-05,-2e-05,-0.00023,0.00018,-8e-05,9e-05,7,11
35940,-0.00103,0,1e-05,-2e-05,-1e-05,-0.0007,-8e-05,0.00031,7,11
35941,-0.00103,0,1e-05,-2e-05,-1e-05,-0.0007,-8e-05,0.00031,7,11
35942,-0.00103,0,1e-05,-2e-05,-1e-05,-0.0007,-8e-05,0.00031,7,11
35943,-0.00103,0,1e-05,-2e-05,-1e-05,-0.0007,-8e-05,0.00031,7,11
35944,-0.00103,0,1e-05,-2e-05,-1e-05,-0.0007,-8e-05,0.00031,7,11
35945,-0.00103,0,1e-05,-2e-05,-1e-05,-0.0007,-8e-05,0.00031,7,11
35946,-0.00103,0,1e-05,-2e-05,-1e-05,-0.0007,-8e-05,0.00031,7,11
35947,-0.00103,0,1e-05,-2e-05,-1e-05,-0.0007,-8e-05,0.00031,7,11
35948,-0.00103,0,1e-05,-2e-05,-1e-05,-0.0007,-8e-05,0.00031,7,11
35949,-0.00103,0,1e-05,-2e-05,-1e-05,-0.0007,-8e-05,0.00031,7,11
35950,-0.00103,0,1e-05,-2e-05,-1e-05,-0.0007,-8e-05,0.00031,7,11
35951,-0.00103,0,1e-05,-2e-05,-1e-05,-0.0007,-8e-05,0.00031,7,11
35952,-0.00103,0,1e-05,-2e-05,-1e-05,-0.0007,-8e-05,0.00031,7,11
35953,-0.00103,0,1e-05,-2e-05,-1e-05,-0.0007,-8e-05,0.00031,7,11
35954,-0.00103,0,1e-05,-2e-05,-1e-05,-0.0007,-8e-05,0.00031,7,11
35955,-0.00103,0,1e-05,-2e-05,-1e-05,-0.0007,-8e-05,0.00031,7,11
35956,-0.00103,0,1e-05,-2e-05,-1e-05,-0.0007,-8e-05,0.00031,7,11
35957,-0.00103,0,1e-05,-2e-05,-1e-05,-0.0007,-8e-05,0.00031,7,11
35958,-0.00103,0,1e-05,-2e-05,-1e-05,-0.0007,-8e-05,0.00031,7,11
35959,-0.00103,0,1e-05,-2e-05,-1e-05,-0.0007,-8e-05,0.00031,7,11
35960,-0.00103,0,1e-05,-2e-05,-1e-05,-0.0007,-8e-05,0.00031,7,11
35961,-0.00103,0,1e-05,-2e-05,-1e-05,-0.0007,-8e-05,0.00031,7,11
35962,-0.00103,0,1e-05,-2e-05,-1e-05,-0.0007,-8e-05,0.00031,7,11
35963,-0.00026,-1e-05,2e-05,-7e-05,-0.00023,-0.00093,-8e-05,-0.00021,7,11
35964,0.00024,0,-6e-05,-0.00016,-0.00051,0.00014,0.0001,-0.00013,7,11
35965,0.00024,0,-6e-05,-0.00016,-0.00051,0.00014,0.0001,-0.00013,7,11
35966,0.00024,0,-6e-05,-0.00016,-0.00051,0.00014,0.0001,-0.00013,7,11
35967,0.00024,0,-6e-05,-0.00016,-0.00051,0.00014,0.0001,-0.00013,7,11
35968,0.00024,0,-6e-05,-0.00016,-0.00051,0.00014,0.0001,-0.00013,7,11
35969,0.00024,0,-6e-05,-0.00016,-0.00051,0.00014,0.0001,-0.00013,7,11
35970,0.00024,0,-6e-05,-0.00016,-0.00051,0.00014,0.0001,-0.00013,7,11
35971,0.00024,0,-6e-05,-0.00016,-0.00051,0.00014,0.0001,-0.00013,7,11
35972,0.00024,0,-6e-05,-0.00016,-0.00051,0.00014,0.0001,-0.00013,7,11
35973,0.00024,0,-6e-05,-0.00016,-0.00051,0.00014,0.0001,-0.00013,7,11
35974,0.00024,0,-6e-05,-0.00016,-0.00051,0.00014,0.0001,-0.00013,7,11
35975,0.00024,0,-6e-05,-0.00016,-0.00051,0.00014,0.0001,-0.00013,7,11
35976,0.00024,0,-6e-05,-0.00016,-0.00051,0.00014,0.0001,-0.00013,7,11
35977,0.00024,0,-6e-05,-0.00016,-0.00051,0.00014,0.0001,-0.00013,7,11
35978,5e-05,-5e-05,-5e-05,-1e-05,2e-05,-6e-05,-5e-05,-0.00038,7,11
35979,2e-05,-2e-05,-1e-05,9e-05,0.00025,6e-05,4e-05,0.00037,7,11
35980,2e-05,-2e-05,-1e-05,9e-05,0.00025,6e-05,4e-05,0.00037,7,11
35981,2e-05,-2e-05,-1e-05,9e-05,0.00025,6e-05,4e-05,0.00037,7,11
35982,2e-05,-2e-05,-1e-05,9e-05,0.00025,6e-05,4e-05,0.00037,7,11
35983,2e-05,-2e-05,-1e-05,9e-05,0.00025,6e-05,4e-05,0.00037,7,11
35984,2e-05,-2e-05,-1e-05,9e-05,0.00025,6e-05,4e-05,0.00037,7,11
35985,2e-05,-2e-05,-1e-05,9e-05,0.00025,6e-05,4e-05,0.00037,7,11
35986,2e-05,-2e-05,-1e-05,9e-05,0.00025,6e-05,4e-05,0.00037,7,11
35988,2e-05,-2e-05,-1e-05,9e-05,0.00025,6e-05,4e-05,0.00037,7,11
35989,2e-05,-2e-05,-1e-05,9e-05,0.00025,6e-05,4e-05,0.00037,7,11
35990,2e-05,-2e-05,-1e-05,9e-05,0.00025,6e-05,4e-05,0.00037,7,11
35991,2e-05,-2e-05,-1e-05,9e-05,0.00025,6e-05,4e-05,0.00037,7,11
35992,2e-05,-2e-05,-1e-05,9e-05,0.00025,6e-05,4e-05,0.00037,7,11
35993,2e-05,-2e-05,-1e-05,9e-05,0.00025,6e-05,4e-05,0.00037,7,11
35994,2e-05,-2e-05,-1e-05,9e-05,0.00025,6e-05,4e-05,0.00037,7,11
35995,2e-05,-2e-05,-1e-05,9e-05,0.00025,6e-05,4e-05,0.00037,7,11
35996,2e-05,-2e-05,-1e-05,9e-05,0.00025,6e-05,4e-05,0.00037,7,11
35997,2e-05,-2e-05,-1e-05,9e-05,0.00025,6e-05,4e-05,0.00037,7,11
35998,2e-05,-2e-05,-1e-05,9e-05,0.00025,6e-05,4e-05,0.00037,7,11
35999,2e-05,-2e-05,-1e-05,9e-05,0.00025,6e-05,4e-05,0.00037,7,11
36000,2e-05,-2e-05,-1e-05,9e-05,0.00025,6e-05,4e-05,0.00037,7,11
36001,2e-05,-2e-05,-1e-05,9e-05,0.00025,6e-05,4e-05,0.00037,7,11
36002,2e-05,-2e-05,-1e-05,9e-05,0.00025,6e-05,4e-05,0.00037,7,11
36003,2e-05,-2e-05,-1e-05,9e-05,0.00025,6e-05,4e-05,0.00037,7,11
36004,2e-05,-2e-05,-1e-05,9e-05,0.00025,6e-05,4e-05,0.00037,7,11
36005,2e-05,-2e-05,-1e-05,9e-05,0.00025,6e-05,4e-05,0.00037,7,11
36006,2e-05,-2e-05,-1e-05,9e-05,0.00025,6e-05,4e-05,0.00037,7,11
36007,2e-05,-2e-05,-1e-05,9e-05,0.00025,6e-05,4e-05,0.00037,7,11
36008,0.00019,0,-2e-05,-0.00015,-0.00089,-0.00012,2e-05,8e-05,7,11
36009,0.00019,0,-2e-05,-0.00015,-0.00089,-0.00012,2e-05,8e-05,7,11
36010,0.00019,0,-2e-05,-0.00015,-0.00089,-0.00012,2e-05,8e-05,7,11
36011,0.00019,0,-2e-05,-0.00015,-0.00089,-0.00012,2e-05,8e-05,7,11
36012,0.00019,0,-2e-05,-0.00015,-0.00089,-0.00012,2e-05,8e-05,7,11
36013,0.00019,0,-2e-05,-0.00015,-0.00089,-0.00012,2e-05,8e-05,7,11
36014,0.00019,0,-2e-05,-0.00015,-0.00089,-0.00012,2e-05,8e-05,7,11
36015,0.00019,0,-2e-05,-0.00015,-0.00089,-0.00012,2e-05,8e-05,7,11
36016,0.00019,0,-2e-05,-0.00015,-0.00089,-0.00012,2e-05,8e-05,7,11
36017,0.00011,1e-05,3e-05,-2e-05,-0.00054,-0.00064,-0.0002,0.00052,7,11
36018,1e-05,2e-05,2e-05,-0.00014,-0.00064,-0.00026,-0.00012,-0.00015,7,11
36019,1e-05,2e-05,2e-05,-0.00014,-0.00064,-0.00026,-0.00012,-0.00015,7,11
36020,1e-05,2e-05,2e-05,-0.00014,-0.00064,-0.00026,-0.00012,-0.00015,7,11
36021,1e-05,1e-05,2e-05,0,-6e-05,0.00036,-1e-05,0.0004,7,11
36022,1e-05,1e-05,2e-05,0,-6e-05,0.00036,-1e-05,0.0004,7,11
36023,1e-05,1e-05,2e-05,0,-6e-05,0.00036,-1e-05,0.0004,7,11
36024,1e-05,1e-05,2e-05,0,-6e-05,0.00036,-1e-05,0.0004,7,11
36025,1e-05,1e-05,2e-05,0,-6e-05,0.00036,-1e-05,0.0004,7,11
36026,1e-05,1e-05,2e-05,0,-6e-05,0.00036,-1e-05,0.0004,7,11
36027,1e-05,1e-05,2e-05,0,-6e-05,0.00036,-1e-05,0.0004,7,11
36028,1e-05,1e-05,2e-05,0,-6e-05,0.00036,-1e-05,0.0004,7,11
36029,1e-05,1e-05,2e-05,0,-6e-05,0.00036,-1e-05,0.0004,7,11
36030,1e-05,1e-05,2e-05,0,-6e-05,0.00036,-1e-05,0.0004,7,11
36031,1e-05,1e-05,2e-05,0,-6e-05,0.00036,-1e-05,0.0004,7,11
36032,1e-05,1e-05,2e-05,0,-6e-05,0.00036,-1e-05,0.0004,7,11
36033,1e-05,1e-05,2e-05,0,-6e-05,0.00036,-1e-05,0.0004,7,11
36034,1e-05,1e-05,2e-05,0,-6e-05,0.00036,-1e-05,0.0004,7,11
36035,1e-05,1e-05,2e-05,0,-6e-05,0.00036,-1e-05,0.0004,7,11
36036,1e-05,1e-05,2e-05,0,-6e-05,0.00036,-1e-05,0.0004,7,11
36038,-9e-05,-7e-05,-5e-05,8e-05,0.00067,0.00042,3e-05,0.0001,7,11
36039,0.00024,-3e-05,-3e-05,-3e-05,0.00045,0.00047,-0.0001,-0.00028,7,11
36040,0.00024,-3e-05,-3e-05,-3e-05,0.00045,0.00047,-0.0001,-0.00028,7,11
36041,0.00024,-3e-05,-3e-05,-3e-05,0.00045,0.00047,-0.0001,-0.00028,7,11
36042,0.00024,-3e-05,-3e-05,-3e-05,0.00045,0.00047,-0.0001,-0.00028,7,11
36043,0.00024,-3e-05,-3e-05,-3e-05,0.00045,0.00047,-0.0001,-0.00028,7,11
36044,0.00024,-3e-05,-3e-05,-3e-05,0.00045,0.00047,-0.0001,-0.00028,7,11
36045,0.00024,-3e-05,-3e-05,-3e-05,0.00045,0.00047,-0.0001,-0.00028,7,11
36046,0.00024,-3e-05,-3e-05,-3e-05,0.00045,0.00047,-0.0001,-0.00028,7,11
36047,0.00024,-3e-05,-3e-05,-3e-05,0.00045,0.00047,-0.0001,-0.00028,7,11
36048,0.00024,-3e-05,-3e-05,-3e-05,0.00045,0.00047,-0.0001,-0.00028,7,11
36049,0.00024,-3e-05,-3e-05,-3e-05,0.00045,0.00047,-0.0001,-0.00028,7,11
36050,0.00024,-3e-05,-3e-05,-3e-05,0.00045,0.00047,-0.0001,-0.00028,7,11
36051,0.00024,-3e-05,-3e-05,-3e-05,0.00045,0.00047,-0.0001,-0.00028,7,11
36052,3e-05,-4e-05,-4e-05,-4e-05,-0.00011,0.0003,3e-05,-0.00014,7,11
36053,3e-05,-4e-05,-4e-05,-4e-05,-0.00011,0.0003,3e-05,-0.00014,7,11
36054,3e-05,-4e-05,-4e-05,-4e-05,-0.00011,0.0003,3e-05,-0.00014,7,11
36055,3e-05,-4e-05,-4e-05,-4e-05,-0.00011,0.0003,3e-05,-0.00014,7,11
36056,3e-05,-4e-05,-4e-05,-4e-05,-0.00011,0.0003,3e-05,-0.00014,7,11
36057,3e-05,-4e-05,-4e-05,-4e-05,-0.00011,0.0003,3e-05,-0.00014,7,11
36058,3e-05,-4e-05,-4e-05,-4e-05,-0.00011,0.0003,3e-05,-0.00014,7,11
36059,3e-05,-4e-05,-4e-05,-4e-05,-0.00011,0.0003,3e-05,-0.00014,7,11
36060,-0.0001,-8e-05,-0.00011,3e-05,0.00034,-0.00025,3e-05,-0.00043,7,11
36061,-0.0001,-8e-05,-0.00011,3e-05,0.00034,-0.00025,3e-05,-0.00043,7,11
36062,-0.0001,-8e-05,-0.00011,3e-05,0.00034,-0.00025,3e-05,-0.00043,7,11
36063,-0.0001,-8e-05,-0.00011,3e-05,0.00034,-0.00025,3e-05,-0.00043,7,11
36064,-0.0001,-8e-05,-0.00011,3e-05,0.00034,-0.00025,3e-05,-0.00043,7,11
36066,-0.0001,-8e-05,-0.00011,3e-05,0.00034,-0.00025,3e-05,-0.00043,7,11
36067,-0.0001,-8e-05,-0.00011,3e-05,0.00034,-0.00025,3e-05,-0.00043,7,11
36068,-0.0001,-8e-05,-0.00011,3e-05,0.00034,-0.00025,3e-05,-0.00043,7,11
36069,-0.0001,-8e-05,-0.00011,3e-05,0.00034,-0.00025,3e-05,-0.00043,7,11
36070,-0.0001,-8e-05,-0.00011,3e-05,0.00034,-0.00025,3e-05,-0.00043,7,11
36071,-0.0001,-8e-05,-0.00011,3e-05,0.00034,-0.00025,3e-05,-0.00043,7,11
36072,-0.0001,-8e-05,-0.00011,3e-05,0.00034,-0.00025,3e-05,-0.00043,7,11
36073,-0.0001,-8e-05,-0.00011,3e-05,0.00034,-0.00025,3e-05,-0.00043,7,11
36074,-0.0001,-8e-05,-0.00011,3e-05,0.00034,-0.00025,3e-05,-0.00043,7,11
36075,-0.00039,8e-05,8e-05,0.0001,3e-05,0.00032,-1e-05,5e-05,7,11
36076,-0.00039,8e-05,8e-05,0.0001,3e-05,0.00032,-1e-05,5e-05,7,11
36077,-0.00031,-5e-05,-3e-05,-3e-05,4e-05,0.00034,-4e-05,-0.00026,7,11
36078,-0.00031,-5e-05,-3e-05,-3e-05,4e-05,0.00034,-4e-05,-0.00026,7,11
36079,-0.00031,-5e-05,-3e-05,-3e-05,4e-05,0.00034,-4e-05,-0.00026,7,11
36080,-0.00031,-5e-05,-3e-05,-3e-05,4e-05,0.00034,-4e-05,-0.00026,7,11
36081,-0.00031,-5e-05,-3e-05,-3e-05,4e-05,0.00034,-4e-05,-0.00026,7,11
36082,-0.00031,-5e-05,-3e-05,-3e-05,4e-05,0.00034,-4e-05,-0.00026,7,11
36083,-0.00031,-5e-05,-3e-05,-3e-05,4e-05,0.00034,-4e-05,-0.00026,7,11
36084,-0.00031,-5e-05,-3e-05,-3e-05,4e-05,0.00034,-4e-05,-0.00026,7,11
36085,-0.00031,-5e-05,-3e-05,-3e-05,4e-05,0.00034,-4e-05,-0.00026,7,11
36086,-0.00031,-5e-05,-3e-05,-3e-05,4e-05,0.00034,-4e-05,-0.00026,7,11
36088,-0.00031,-5e-05,-3e-05,-3e-05,4e-05,0.00034,-4e-05,-0.00026,7,11
36089,-0.00031,-5e-05,-3e-05,-3e-05,4e-05,0.00034,-4e-05,-0.00026,7,11
36090,-0.00031,-5e-05,-3e-05,-3e-05,4e-05,0.00034,-4e-05,-0.00026,7,11
36091,-0.00031,-5e-05,-3e-05,-3e-05,4e-05,0.00034,-4e-05,-0.00026,7,11
36092,-0.00031,-5e-05,-3e-05,-3e-05,4e-05,0.00034,-4e-05,-0.00026,7,11
36093,-0.00031,-5e-05,-3e-05,-3e-05,4e-05,0.00034,-4e-05,-0.00026,7,11
36094,-0.00031,-5e-05,-3e-05,-3e-05,4e-05,0.00034,-4e-05,-0.00026,7,11
36095,-0.00031,-5e-05,-3e-05,-3e-05,4e-05,0.00034,-4e-05,-0.00026,7,11
36096,-0.00031,-5e-05,-3e-05,-3e-05,4e-05,0.00034,-4e-05,-0.00026,7,11
36097,-0.00031,-5e-05,-3e-05,-3e-05,4e-05,0.00034,-4e-05,-0.00026,7,11
36098,-0.00031,-5e-05,-3e-05,-3e-05,4e-05,0.00034,-4e-05,-0.00026,7,11
36099,-0.00031,-5e-05,-3e-05,-3e-05,4e-05,0.00034,-4e-05,-0.00026,7,11
36100,-0.00031,-5e-05,-3e-05,-3e-05,4e-05,0.00034,-4e-05,-0.00026,7,11
36101,-0.00031,-5e-05,-3e-05,-3e-05,4e-05,0.00034,-4e-05,-0.00026,7,11
36102,-0.00031,-5e-05,-3e-05,-3e-05,4e-05,0.00034,-4e-05,-0.00026,7,11
36103,-0.00031,-5e-05,-3e-05,-3e-05,4e-05,0.00034,-4e-05,-0.00026,7,11
36104,-0.00031,-5e-05,-3e-05,-3e-05,4e-05,0.00034,-4e-05,-0.00026,7,11
36105,-0.00031,-5e-05,-3e-05,-3e-05,4e-05,0.00034,-4e-05,-0.00026,7,11
36106,-0.00024,3e-05,3e-05,4e-05,-0.00055,8e-05,-3e-05,-0.0002,7,11
36107,0.00042,9e-05,9e-05,-1e-05,-0.00074,-0.00055,1e-05,0.00018,7,11
36108,0.00042,9e-05,9e-05,-1e-05,-0.00074,-0.00055,1e-05,0.00018,7,11
36109,0.00042,9e-05,9e-05,-1e-05,-0.00074,-0.00055,1e-05,0.00018,7,11
36110,0.00042,9e-05,9e-05,-1e-05,-0.00074,-0.00055,1e-05,0.00018,7,11
36111,0.00022,-1e-05,3e-05,-3e-05,0.00022,0.00066,-4e-05,0.00018,7,11
36112,3e-05,-7e-05,-3e-05,5e-05,0.00036,-9e-05,-5e-05,1e-05,7,11
36113,3e-05,-7e-05,-3e-05,5e-05,0.00036,-9e-05,-5e-05,1e-05,7,11
36114,3e-05,-7e-05,-3e-05,5e-05,0.00036,-9e-05,-5e-05,1e-05,7,11
36115,3e-05,-7e-05,-3e-05,5e-05,0.00036,-9e-05,-5e-05,1e-05,7,11
36116,3e-05,-7e-05,-3e-05,5e-05,0.00036,-9e-05,-5e-05,1e-05,7,11
36117,3e-05,-7e-05,-3e-05,5e-05,0.00036,-9e-05,-5e-05,1e-05,7,11
36118,3e-05,-7e-05,-3e-05,5e-05,0.00036,-9e-05,-5e-05,1e-05,7,11
36119,3e-05,-7e-05,-3e-05,5e-05,0.00036,-9e-05,-5e-05,1e-05,7,11
36120,0.0001,-6e-05,-5e-05,-1e-05,0.0005,0.0007,7e-05,-5e-05,7,11
36121,0.0001,-6e-05,-5e-05,-1e-05,0.0005,0.0007,7e-05,-5e-05,7,11
36122,0.0001,-6e-05,-5e-05,-1e-05,0.0005,0.0007,7e-05,-5e-05,7,11
36123,0.0001,-6e-05,-5e-05,-1e-05,0.0005,0.0007,7e-05,-5e-05,7,11
36124,0.0001,-6e-05,-5e-05,-1e-05,0.0005,0.0007,7e-05,-5e-05,7,11
36125,0.0001,-6e-05,-5e-05,-1e-05,0.0005,0.0007,7e-05,-5e-05,7,11
36126,0.0001,-6e-05,-5e-05,-1e-05,0.0005,0.0007,7e-05,-5e-05,7,11
36127,0.0001,-6e-05,-5e-05,-1e-05,0.0005,0.0007,7e-05,-5e-05,7,11
36128,0.0001,-6e-05,-5e-05,-1e-05,0.0005,0.0007,7e-05,-5e-05,7,11
36129,0.0001,-6e-05,-5e-05,-1e-05,0.0005,0.0007,7e-05,-5e-05,7,11
36130,0.0001,-6e-05,-5e-05,-1e-05,0.0005,0.0007,7e-05,-5e-05,7,11
36131,0.0001,-6e-05,-5e-05,-1e-05,0.0005,0.0007,7e-05,-5e-05,7,11
36132,0.0001,-6e-05,-5e-05,-1e-05,0.0005,0.0007,7e-05,-5e-05,7,11
36133,0.0001,-6e-05,-5e-05,-1e-05,0.0005,0.0007,7e-05,-5e-05,7,11
36134,0.0001,-6e-05,-5e-05,-1e-05,0.0005,0.0007,7e-05,-5e-05,7,11
36135,0.0001,-6e-05,-5e-05,-1e-05,0.0005,0.0007,7e-05,-5e-05,7,11
36136,0.0001,-6e-05,-5e-05,-1e-05,0.0005,0.0007,7e-05,-5e-05,7,11
36138,0.0001,-6e-05,-5e-05,-1e-05,0.0005,0.0007,7e-05,-5e-05,7,11
36139,0.0001,-6e-05,-5e-05,-1e-05,0.0005,0.0007,7e-05,-5e-05,7,11
36140,0.0001,-6e-05,-5e-05,-1e-05,0.0005,0.0007,7e-05,-5e-05,7,11
36141,0.0001,-6e-05,-5e-05,-1e-05,0.0005,0.0007,7e-05,-5e-05,7,11
36142,0.0001,-6e-05,-5e-05,-1e-05,0.0005,0.0007,7e-05,-5e-05,7,11
36143,0.0001,-6e-05,-5e-05,-1e-05,0.0005,0.0007,7e-05,-5e-05,7,11
36144,0.0001,-6e-05,-5e-05,-1e-05,0.0005,0.0007,7e-05,-5e-05,7,11
36145,0.0001,-6e-05,-5e-05,-1e-05,0.0005,0.0007,7e-05,-5e-05,7,11
36146,0.0001,-6e-05,-5e-05,-1e-05,0.0005,0.0007,7e-05,-5e-05,7,11
36147,0.0001,-6e-05,-5e-05,-1e-05,0.0005,0.0007,7e-05,-5e-05,7,11
36148,0.0001,-6e-05,-5e-05,-1e-05,0.0005,0.0007,7e-05,-5e-05,7,11
36149,0.0001,-6e-05,-5e-05,-1e-05,0.0005,0.0007,7e-05,-5e-05,7,11
36150,-0.00012,2e-05,2e-05,-3e-05,-0.00017,-0.00029,8e-05,0.00029,7,11
36151,-0.00012,2e-05,2e-05,-3e-05,-0.00017,-0.00029,8e-05,0.00029,7,11
36152,0.00018,5e-05,0.0001,0.0002,0.00073,0.00076,0.0001,0.00012,7,11
36153,0.00018,5e-05,0.0001,0.0002,0.00073,0.00076,0.0001,0.00012,7,11
36154,0.00018,5e-05,0.0001,0.0002,0.00073,0.00076,0.0001,0.00012,7,11
